EMG_s0,EMG_s1,EMG_s2,EMG_s3,EMG_s4,EMG_s5,EMG_s6,EMG_s7,timestamp
0.0,0.0,-3.0,-1.0,-1.0,0.0,-1.0,-1.0,1651024690369795.0
1.0,1.0,0.0,0.0,0.0,-2.0,-1.0,0.0,1651024690369795.0
-4.0,-9.0,-2.0,-3.0,-7.0,-2.0,-2.0,-2.0,1651024690369795.0
-1.0,0.0,-5.0,-1.0,2.0,-3.0,0.0,1.0,1651024690369795.0
0.0,-1.0,1.0,1.0,9.0,5.0,2.0,1.0,1651024690372779.0
0.0,6.0,3.0,1.0,-19.0,-1.0,2.0,2.0,1651024690372779.0
1.0,1.0,2.0,0.0,28.0,7.0,2.0,-1.0,1651024690373777.0
2.0,-3.0,1.0,-1.0,-2.0,6.0,-1.0,0.0,1651024690373777.0
2.0,6.0,3.0,-1.0,-8.0,-6.0,1.0,0.0,1651024690379760.0
0.0,2.0,-1.0,-2.0,1.0,1.0,-1.0,-1.0,1651024690379760.0
1.0,-5.0,2.0,0.0,-7.0,-1.0,0.0,2.0,1651024690393751.0
1.0,2.0,1.0,-1.0,0.0,-2.0,1.0,0.0,1651024690393751.0
-1.0,-6.0,-3.0,-1.0,7.0,1.0,-1.0,-1.0,1651024690400718.0
-1.0,-4.0,-1.0,-2.0,-2.0,0.0,0.0,-1.0,1651024690400718.0
0.0,4.0,1.0,-2.0,-7.0,-3.0,-1.0,2.0,1651024690412794.0
-2.0,0.0,0.0,-1.0,4.0,-1.0,-2.0,-1.0,1651024690412794.0
0.0,1.0,1.0,1.0,-4.0,-3.0,0.0,1.0,1651024690424810.0
0.0,-3.0,-1.0,-1.0,3.0,-1.0,-1.0,1.0,1651024690424810.0
0.0,0.0,-2.0,-1.0,-5.0,0.0,-1.0,-1.0,1651024690439861.0
1.0,3.0,2.0,3.0,1.0,-2.0,-1.0,1.0,1651024690439861.0
0.0,2.0,0.0,-2.0,-3.0,-1.0,0.0,-1.0,1651024690479074.0
0.0,-5.0,-4.0,-3.0,-8.0,-3.0,-1.0,-1.0,1651024690479074.0
-1.0,-2.0,0.0,-2.0,2.0,-3.0,0.0,-1.0,1651024690480071.0
-1.0,10.0,0.0,1.0,4.0,5.0,0.0,0.0,1651024690480071.0
-3.0,-14.0,-4.0,0.0,-1.0,-1.0,1.0,0.0,1651024690481068.0
-2.0,-1.0,1.0,-1.0,0.0,-1.0,0.0,2.0,1651024690481068.0
0.0,1.0,-3.0,-3.0,-12.0,-5.0,-1.0,0.0,1651024690483091.0
-1.0,-1.0,2.0,1.0,6.0,-3.0,-2.0,-1.0,1651024690483091.0
0.0,1.0,-2.0,1.0,7.0,7.0,-1.0,1.0,1651024690492039.0
-1.0,0.0,0.0,0.0,-3.0,-2.0,1.0,-1.0,1651024690492039.0
-1.0,-4.0,0.0,0.0,1.0,1.0,-1.0,0.0,1651024690498050.0
2.0,0.0,-2.0,-4.0,-7.0,-5.0,0.0,-2.0,1651024690498050.0
-1.0,3.0,0.0,-1.0,-3.0,-3.0,-1.0,-1.0,1651024690506999.0
0.0,-2.0,-1.0,-2.0,4.0,1.0,-3.0,-1.0,1651024690506999.0
0.0,2.0,0.0,0.0,-2.0,1.0,-1.0,1.0,1651024690520965.0
-1.0,-3.0,1.0,-2.0,-2.0,-1.0,-1.0,-1.0,1651024690520965.0
-1.0,0.0,2.0,-1.0,-2.0,-2.0,0.0,-1.0,1651024690529938.0
0.0,-1.0,-1.0,0.0,-2.0,2.0,0.0,-2.0,1651024690529938.0
0.0,0.0,1.0,0.0,-3.0,1.0,0.0,-1.0,1651024690551995.0
0.0,-3.0,0.0,5.0,13.0,3.0,1.0,-1.0,1651024690551995.0
0.0,-4.0,-1.0,-2.0,-6.0,-1.0,1.0,0.0,1651024690553923.0
0.0,3.0,-1.0,-2.0,2.0,-2.0,0.0,0.0,1651024690553923.0
0.0,5.0,0.0,-3.0,1.0,4.0,-2.0,-1.0,1651024690565912.0
-6.0,-9.0,-4.0,-3.0,-4.0,0.0,0.0,0.0,1651024690565912.0
-1.0,-7.0,-2.0,-1.0,2.0,-2.0,0.0,-1.0,1651024690572872.0
-1.0,7.0,1.0,1.0,-3.0,-1.0,0.0,-1.0,1651024690572872.0
-2.0,-11.0,-1.0,-3.0,-10.0,-5.0,-2.0,-1.0,1651024690589100.0
2.0,1.0,-4.0,-3.0,11.0,3.0,-1.0,0.0,1651024690589100.0
0.0,3.0,2.0,0.0,1.0,0.0,-1.0,-2.0,1651024690591095.0
0.0,1.0,0.0,2.0,-5.0,-2.0,-1.0,-2.0,1651024690591095.0
-1.0,-2.0,1.0,0.0,3.0,3.0,0.0,-2.0,1651024690612188.0
-1.0,-1.0,1.0,1.0,-9.0,-3.0,0.0,0.0,1651024690612188.0
-1.0,1.0,-1.0,-2.0,-6.0,-3.0,-2.0,-1.0,1651024690618137.0
0.0,-3.0,-2.0,1.0,5.0,0.0,0.0,2.0,1651024690618137.0
-1.0,5.0,-1.0,2.0,10.0,1.0,0.0,1.0,1651024690626151.0
0.0,-4.0,-2.0,-2.0,-8.0,0.0,-1.0,-1.0,1651024690626151.0
1.0,5.0,0.0,0.0,1.0,-1.0,-2.0,1.0,1651024690633131.0
-2.0,-7.0,-2.0,-3.0,-18.0,-3.0,-2.0,-2.0,1651024690633131.0
-1.0,-2.0,-2.0,0.0,18.0,1.0,0.0,-2.0,1651024690649990.0
1.0,3.0,1.0,2.0,-2.0,1.0,0.0,0.0,1651024690649990.0
1.0,4.0,1.0,-2.0,-3.0,-2.0,-2.0,-1.0,1651024690650958.0
-1.0,-5.0,-3.0,0.0,3.0,0.0,-1.0,-1.0,1651024690650958.0
1.0,0.0,-2.0,-1.0,-7.0,-4.0,-1.0,-1.0,1651024690671929.0
-1.0,1.0,-2.0,-2.0,-2.0,0.0,0.0,-1.0,1651024690671929.0
0.0,3.0,1.0,2.0,4.0,0.0,1.0,0.0,1651024690673920.0
-2.0,-13.0,-4.0,-2.0,-1.0,-2.0,-2.0,-1.0,1651024690673920.0
-1.0,1.0,-1.0,1.0,0.0,3.0,-1.0,-2.0,1651024690686081.0
1.0,0.0,0.0,-1.0,-12.0,-3.0,0.0,-1.0,1651024690686081.0
-1.0,1.0,1.0,1.0,7.0,2.0,0.0,-1.0,1651024690693059.0
2.0,8.0,3.0,-2.0,-4.0,-1.0,0.0,1.0,1651024690693059.0
-5.0,-9.0,-2.0,1.0,2.0,-1.0,0.0,0.0,1651024690709970.0
-1.0,0.0,2.0,0.0,0.0,-2.0,-2.0,1.0,1651024690709970.0
0.0,-2.0,-4.0,-2.0,-8.0,-3.0,0.0,-2.0,1651024690710945.0
2.0,3.0,0.0,1.0,9.0,2.0,-1.0,0.0,1651024690710945.0
1.0,2.0,1.0,0.0,-5.0,0.0,-1.0,1.0,1651024690731979.0
-2.0,-2.0,-1.0,-2.0,-1.0,-5.0,-2.0,-1.0,1651024690731979.0
0.0,-4.0,-2.0,0.0,6.0,3.0,-1.0,-1.0,1651024690733973.0
0.0,2.0,1.0,1.0,0.0,-1.0,1.0,-1.0,1651024690733973.0
1.0,4.0,2.0,-1.0,-2.0,-1.0,0.0,-1.0,1651024690746055.0
0.0,-4.0,-2.0,-1.0,-5.0,-3.0,-2.0,0.0,1651024690746055.0
0.0,0.0,-1.0,-1.0,-1.0,-2.0,0.0,0.0,1651024690753322.0
0.0,1.0,0.0,2.0,3.0,1.0,1.0,-1.0,1651024690753322.0
0.0,3.0,-1.0,-2.0,-5.0,-2.0,-2.0,-1.0,1651024690770014.0
1.0,0.0,-1.0,-2.0,-3.0,-4.0,-2.0,-1.0,1651024690770014.0
-2.0,3.0,1.0,1.0,1.0,2.0,-1.0,0.0,1651024690770977.0
-1.0,-4.0,-2.0,0.0,0.0,0.0,0.0,0.0,1651024690770977.0
0.0,-2.0,0.0,-1.0,-10.0,-1.0,0.0,1.0,1651024690791993.0
0.0,1.0,-1.0,1.0,7.0,2.0,-2.0,0.0,1651024690791993.0
1.0,-2.0,-1.0,-1.0,6.0,-1.0,-2.0,-2.0,1651024690793921.0
0.0,6.0,1.0,1.0,0.0,1.0,1.0,0.0,1651024690793921.0
1.0,2.0,-2.0,0.0,-4.0,-3.0,0.0,-1.0,1651024690806086.0
-3.0,-2.0,1.0,-1.0,-3.0,3.0,-1.0,-2.0,1651024690806086.0
-2.0,-2.0,-1.0,0.0,-6.0,-2.0,-1.0,-1.0,1651024690813045.0
1.0,-1.0,0.0,-1.0,-4.0,0.0,0.0,0.0,1651024690813045.0
0.0,-2.0,-2.0,-2.0,17.0,2.0,-1.0,-1.0,1651024690829239.0
-2.0,-2.0,0.0,2.0,2.0,0.0,2.0,0.0,1651024690829239.0
-1.0,-1.0,-1.0,-1.0,-4.0,-4.0,1.0,-1.0,1651024690831169.0
-1.0,1.0,1.0,-2.0,0.0,0.0,-1.0,-2.0,1651024690831169.0
0.0,4.0,-1.0,-1.0,-8.0,-3.0,1.0,0.0,1651024690852005.0
-3.0,-7.0,0.0,0.0,-3.0,-1.0,0.0,-1.0,1651024690852005.0
3.0,3.0,1.0,-1.0,4.0,3.0,1.0,0.0,1651024690853964.0
-3.0,-1.0,-1.0,0.0,-2.0,-2.0,-2.0,0.0,1651024690853964.0
0.0,1.0,2.0,4.0,1.0,2.0,1.0,-2.0,1651024690866009.0
0.0,0.0,-5.0,-3.0,-2.0,-1.0,-1.0,0.0,1651024690866009.0
-1.0,2.0,1.0,0.0,-7.0,-1.0,-2.0,1.0,1651024690873027.0
3.0,-3.0,0.0,1.0,12.0,-1.0,0.0,-3.0,1651024690873027.0
0.0,1.0,1.0,-2.0,-6.0,1.0,0.0,-2.0,1651024690888951.0
-2.0,1.0,0.0,0.0,4.0,3.0,-1.0,-2.0,1651024690888951.0
0.0,-1.0,-3.0,-1.0,-8.0,-1.0,0.0,1.0,1651024690896929.0
-2.0,-2.0,-1.0,0.0,-1.0,-2.0,-2.0,0.0,1651024690896929.0
-2.0,-7.0,-5.0,0.0,6.0,4.0,-1.0,0.0,1651024690911909.0
1.0,1.0,0.0,1.0,-5.0,-2.0,0.0,-1.0,1651024690911909.0
-1.0,-4.0,-2.0,-2.0,3.0,1.0,-1.0,-1.0,1651024690913905.0
1.0,-1.0,0.0,-1.0,4.0,-2.0,0.0,-1.0,1651024690913905.0
0.0,-2.0,-2.0,0.0,-1.0,1.0,-1.0,0.0,1651024690925909.0
-1.0,-3.0,0.0,-1.0,-7.0,-3.0,1.0,-2.0,1651024690925909.0
-2.0,-1.0,-1.0,4.0,8.0,0.0,-1.0,1.0,1651024690934829.0
-1.0,0.0,0.0,0.0,-5.0,-1.0,0.0,-2.0,1651024690934829.0
0.0,6.0,0.0,-2.0,-4.0,-3.0,-1.0,-1.0,1651024690949945.0
1.0,-5.0,-2.0,1.0,4.0,3.0,0.0,1.0,1651024690949945.0
-1.0,-1.0,0.0,0.0,-13.0,-3.0,-1.0,-4.0,1651024690950899.0
0.0,5.0,1.0,1.0,10.0,2.0,-2.0,-1.0,1651024690950899.0
0.0,1.0,1.0,2.0,0.0,0.0,-1.0,0.0,1651024690971936.0
0.0,1.0,0.0,0.0,-1.0,2.0,-2.0,-1.0,1651024690971936.0
-3.0,-4.0,-1.0,-2.0,1.0,0.0,1.0,-2.0,1651024690973923.0
1.0,5.0,0.0,-1.0,-7.0,-1.0,-1.0,0.0,1651024690973923.0
-2.0,-8.0,-2.0,-1.0,-2.0,-2.0,-1.0,-1.0,1651024690985697.0
-1.0,1.0,0.0,0.0,-2.0,-2.0,-1.0,0.0,1651024690985697.0
0.0,0.0,-2.0,-1.0,-1.0,-1.0,-1.0,1.0,1651024690994486.0
-1.0,-4.0,-1.0,-2.0,-9.0,-2.0,-3.0,0.0,1651024690994486.0
-3.0,0.0,-1.0,-2.0,8.0,0.0,-2.0,-1.0,1651024691017453.0
0.0,-2.0,-1.0,-3.0,2.0,4.0,0.0,-1.0,1651024691017453.0
1.0,4.0,-1.0,-3.0,0.0,-3.0,0.0,-1.0,1651024691018428.0
-1.0,-1.0,-1.0,-1.0,-4.0,-3.0,-1.0,0.0,1651024691018428.0
-3.0,1.0,0.0,2.0,-5.0,-2.0,0.0,-1.0,1651024691032425.0
-2.0,-6.0,-3.0,0.0,-3.0,-1.0,-2.0,-3.0,1651024691032425.0
-1.0,-2.0,0.0,0.0,5.0,3.0,0.0,-1.0,1651024691033397.0
1.0,-2.0,-2.0,-4.0,-12.0,1.0,1.0,0.0,1651024691033397.0
1.0,-1.0,-1.0,2.0,11.0,-1.0,-2.0,2.0,1651024691045605.0
1.0,5.0,0.0,0.0,2.0,0.0,-1.0,0.0,1651024691045605.0
0.0,-2.0,-2.0,-1.0,-8.0,-3.0,-1.0,0.0,1651024691054921.0
0.0,1.0,0.0,0.0,2.0,1.0,1.0,-1.0,1651024691054921.0
-4.0,-6.0,2.0,1.0,-2.0,1.0,0.0,-1.0,1651024691069866.0
0.0,2.0,-1.0,-1.0,-1.0,0.0,-3.0,-1.0,1651024691069866.0
-2.0,-5.0,0.0,0.0,-1.0,-2.0,-2.0,-1.0,1651024691070796.0
-1.0,1.0,-1.0,-2.0,-1.0,-3.0,-2.0,-1.0,1651024691070796.0
1.0,-4.0,-1.0,-4.0,-17.0,-4.0,1.0,-1.0,1651024691092251.0
-2.0,3.0,0.0,1.0,15.0,3.0,0.0,1.0,1651024691092251.0
-1.0,-3.0,1.0,2.0,-2.0,1.0,0.0,1.0,1651024691093190.0
-1.0,-2.0,-1.0,0.0,1.0,0.0,-2.0,-1.0,1651024691093190.0
3.0,3.0,1.0,0.0,-20.0,-6.0,-2.0,0.0,1651024691105426.0
-2.0,-2.0,1.0,-3.0,3.0,1.0,2.0,1.0,1651024691105426.0
1.0,3.0,1.0,2.0,6.0,2.0,-1.0,-1.0,1651024691114895.0
-1.0,3.0,1.0,2.0,-1.0,0.0,-1.0,-1.0,1651024691114895.0
-1.0,-14.0,-4.0,-4.0,-3.0,-1.0,0.0,0.0,1651024691136990.0
3.0,7.0,0.0,-2.0,-6.0,-3.0,-1.0,0.0,1651024691136990.0
-3.0,-7.0,2.0,4.0,15.0,1.0,-1.0,0.0,1651024691138931.0
-1.0,1.0,-1.0,-2.0,-7.0,-1.0,-1.0,-2.0,1651024691138931.0
-2.0,2.0,-2.0,-2.0,5.0,0.0,0.0,-1.0,1651024691151963.0
-1.0,3.0,0.0,0.0,-5.0,-3.0,0.0,0.0,1651024691151963.0
-2.0,0.0,-1.0,-1.0,-5.0,-3.0,0.0,-2.0,1651024691153911.0
1.0,-3.0,-1.0,0.0,5.0,1.0,-1.0,0.0,1651024691153911.0
0.0,3.0,2.0,-1.0,4.0,1.0,0.0,-1.0,1651024691165927.0
-2.0,-7.0,-3.0,-2.0,-4.0,-3.0,-1.0,0.0,1651024691165927.0
1.0,3.0,0.0,-3.0,-22.0,-8.0,-2.0,-2.0,1651024691174591.0
-1.0,-6.0,-3.0,-2.0,21.0,8.0,-1.0,1.0,1651024691174591.0
0.0,-1.0,-2.0,-1.0,1.0,1.0,1.0,0.0,1651024691189559.0
3.0,2.0,4.0,3.0,-1.0,-2.0,0.0,1.0,1651024691189559.0
-6.0,-8.0,-4.0,-1.0,-6.0,-1.0,0.0,-2.0,1651024691190575.0
1.0,2.0,0.0,-3.0,-3.0,-3.0,-1.0,0.0,1651024691190575.0
1.0,6.0,2.0,2.0,8.0,2.0,-1.0,0.0,1651024691211822.0
0.0,-5.0,-2.0,0.0,-1.0,-3.0,0.0,0.0,1651024691211822.0
2.0,0.0,-1.0,0.0,-1.0,0.0,0.0,0.0,1651024691213815.0
0.0,0.0,0.0,1.0,-2.0,0.0,0.0,-1.0,1651024691213815.0
-2.0,-1.0,-3.0,0.0,0.0,0.0,0.0,1.0,1651024691226052.0
0.0,2.0,1.0,-2.0,-4.0,0.0,-1.0,-1.0,1651024691226052.0
0.0,2.0,-1.0,-2.0,2.0,-2.0,-1.0,0.0,1651024691235068.0
-1.0,-7.0,-1.0,1.0,-3.0,-1.0,-1.0,-2.0,1651024691235068.0
2.0,0.0,2.0,3.0,3.0,0.0,1.0,-2.0,1651024691257438.0
-3.0,2.0,1.0,0.0,-3.0,0.0,-1.0,-2.0,1651024691257438.0
0.0,1.0,-2.0,-4.0,2.0,1.0,0.0,0.0,1651024691258409.0
0.0,3.0,0.0,-2.0,0.0,-1.0,-1.0,-1.0,1651024691258409.0
1.0,-3.0,-1.0,-2.0,-5.0,-3.0,-3.0,-1.0,1651024691272374.0
0.0,-2.0,-1.0,0.0,8.0,6.0,-1.0,-1.0,1651024691272374.0
2.0,4.0,4.0,3.0,1.0,1.0,1.0,1.0,1651024691273370.0
-2.0,-3.0,-2.0,-2.0,-1.0,0.0,1.0,0.0,1651024691273370.0
0.0,3.0,2.0,0.0,-5.0,-1.0,-2.0,0.0,1651024691285824.0
0.0,-6.0,-4.0,-2.0,0.0,-2.0,0.0,-2.0,1651024691285824.0
1.0,3.0,-1.0,-1.0,3.0,3.0,-1.0,1.0,1651024691294666.0
0.0,-7.0,0.0,-1.0,-11.0,-5.0,-1.0,0.0,1651024691294666.0
-1.0,-2.0,-2.0,0.0,-2.0,-3.0,-1.0,-2.0,1651024691309621.0
-2.0,5.0,1.0,3.0,12.0,4.0,0.0,-1.0,1651024691309621.0
1.0,-3.0,-1.0,0.0,-6.0,-1.0,-1.0,1.0,1651024691310618.0
0.0,2.0,-2.0,-1.0,4.0,0.0,0.0,0.0,1651024691310618.0
-3.0,1.0,0.0,-3.0,-5.0,0.0,-1.0,-2.0,1651024691331622.0
-1.0,2.0,1.0,0.0,-2.0,-1.0,0.0,-1.0,1651024691331622.0
-2.0,2.0,0.0,1.0,4.0,0.0,-1.0,-2.0,1651024691333557.0
0.0,0.0,-1.0,1.0,-4.0,-2.0,0.0,0.0,1651024691333557.0
0.0,-2.0,-1.0,-3.0,1.0,0.0,1.0,1.0,1651024691354568.0
-1.0,-3.0,-3.0,-5.0,-16.0,-3.0,0.0,0.0,1651024691354568.0
-1.0,1.0,1.0,-2.0,21.0,6.0,-1.0,-1.0,1651024691356501.0
-4.0,-3.0,-3.0,0.0,-1.0,1.0,0.0,-2.0,1651024691356501.0
2.0,1.0,-1.0,-1.0,-2.0,-2.0,0.0,0.0,1651024691369017.0
-1.0,1.0,0.0,1.0,-1.0,-3.0,0.0,-2.0,1651024691369017.0
-1.0,6.0,0.0,1.0,-9.0,-4.0,-1.0,-3.0,1651024691376000.0
-2.0,-9.0,-2.0,-2.0,1.0,1.0,-1.0,-1.0,1651024691376000.0
0.0,0.0,-1.0,0.0,2.0,2.0,0.0,0.0,1651024691392014.0
2.0,1.0,0.0,-3.0,-20.0,-7.0,-2.0,0.0,1651024691392014.0
-3.0,-7.0,-2.0,4.0,22.0,5.0,-1.0,0.0,1651024691393959.0
-1.0,3.0,1.0,4.0,2.0,1.0,1.0,0.0,1651024691393959.0
0.0,5.0,-1.0,0.0,-7.0,-4.0,0.0,1.0,1651024691414949.0
-1.0,-3.0,-2.0,-2.0,-1.0,-1.0,-1.0,0.0,1651024691414949.0
0.0,1.0,0.0,-1.0,-7.0,-2.0,-2.0,0.0,1651024691416904.0
2.0,0.0,2.0,2.0,0.0,-5.0,-1.0,0.0,1651024691416904.0
-3.0,-4.0,-2.0,-1.0,3.0,7.0,0.0,-1.0,1651024691429908.0
-1.0,-2.0,0.0,-1.0,4.0,0.0,1.0,1.0,1651024691429908.0
0.0,-4.0,-1.0,-2.0,-5.0,-2.0,1.0,0.0,1651024691430839.0
-1.0,-3.0,-4.0,-4.0,-1.0,-1.0,0.0,0.0,1651024691430839.0
-1.0,2.0,-1.0,1.0,-1.0,-3.0,0.0,0.0,1651024691450847.0
1.0,6.0,1.0,0.0,-10.0,-3.0,-1.0,0.0,1651024691450847.0
-1.0,-10.0,-2.0,-2.0,12.0,4.0,1.0,0.0,1651024691459761.0
-1.0,-1.0,0.0,0.0,-5.0,1.0,-1.0,1.0,1651024691459761.0
1.0,7.0,1.0,-5.0,-6.0,-1.0,0.0,0.0,1651024691474923.0
-7.0,-20.0,-2.0,4.0,13.0,2.0,-2.0,-1.0,1651024691474923.0
1.0,1.0,-1.0,0.0,-9.0,-5.0,-1.0,-1.0,1651024691475883.0
0.0,11.0,1.0,-3.0,-5.0,-2.0,-2.0,0.0,1651024691475883.0
0.0,0.0,0.0,1.0,15.0,7.0,0.0,-1.0,1651024691497408.0
0.0,5.0,1.0,-1.0,-7.0,-2.0,1.0,1.0,1651024691497408.0
-1.0,-3.0,-3.0,-1.0,-5.0,1.0,-1.0,0.0,1651024691498894.0
0.0,-3.0,0.0,2.0,8.0,1.0,0.0,0.0,1651024691498894.0
0.0,-3.0,-1.0,-1.0,-4.0,-1.0,-3.0,-1.0,1651024691510904.0
1.0,4.0,1.0,-1.0,5.0,1.0,1.0,1.0,1651024691510904.0
-4.0,-9.0,-7.0,-3.0,-7.0,-4.0,-1.0,-1.0,1651024691519812.0
0.0,3.0,0.0,0.0,-2.0,-1.0,-1.0,-1.0,1651024691519812.0
-2.0,-3.0,-1.0,1.0,1.0,0.0,0.0,-2.0,1651024691534904.0
-1.0,-4.0,-3.0,-1.0,3.0,-2.0,0.0,-1.0,1651024691534904.0
2.0,7.0,0.0,-2.0,6.0,-1.0,1.0,0.0,1651024691535906.0
-1.0,1.0,1.0,0.0,-3.0,2.0,1.0,-2.0,1651024691535906.0
-3.0,-14.0,-4.0,1.0,2.0,-2.0,0.0,-1.0,1651024691556950.0
1.0,3.0,1.0,1.0,12.0,2.0,0.0,-3.0,1651024691556950.0
3.0,6.0,1.0,-2.0,-13.0,-2.0,1.0,-2.0,1651024691558944.0
-1.0,-1.0,-2.0,-1.0,2.0,-2.0,-1.0,0.0,1651024691558944.0
-1.0,1.0,0.0,-3.0,-2.0,-1.0,-1.0,1.0,1651024691570912.0
0.0,2.0,1.0,-3.0,-7.0,-1.0,0.0,1.0,1651024691570912.0
-1.0,0.0,1.0,-1.0,-4.0,-3.0,-1.0,0.0,1651024691579888.0
3.0,-1.0,-1.0,1.0,6.0,3.0,-1.0,-2.0,1651024691579888.0
-2.0,-4.0,-1.0,0.0,7.0,5.0,0.0,0.0,1651024691594142.0
3.0,2.0,0.0,0.0,-1.0,1.0,-1.0,1.0,1651024691594142.0
-4.0,-9.0,0.0,-2.0,0.0,-1.0,-1.0,0.0,1651024691596070.0
0.0,7.0,-1.0,-2.0,-5.0,-2.0,-1.0,-1.0,1651024691596070.0
1.0,-5.0,-2.0,-2.0,-3.0,-4.0,0.0,1.0,1651024691617383.0
-1.0,0.0,0.0,0.0,3.0,0.0,1.0,-1.0,1651024691617383.0
0.0,2.0,1.0,0.0,-4.0,-1.0,0.0,-1.0,1651024691618899.0
0.0,-1.0,-1.0,0.0,-1.0,1.0,-1.0,0.0,1651024691618899.0
-2.0,-1.0,-3.0,-6.0,-6.0,-1.0,0.0,-1.0,1651024691630906.0
-3.0,-7.0,-2.0,1.0,5.0,0.0,-3.0,-1.0,1651024691630906.0
-1.0,3.0,1.0,4.0,9.0,5.0,-1.0,0.0,1651024691639815.0
0.0,-4.0,-1.0,-2.0,-5.0,0.0,0.0,-1.0,1651024691639815.0
2.0,3.0,0.0,1.0,6.0,0.0,0.0,-1.0,1651024691654843.0
-3.0,-4.0,-3.0,-5.0,-14.0,-3.0,0.0,0.0,1651024691654843.0
1.0,8.0,-1.0,-2.0,-6.0,-3.0,0.0,-1.0,1651024691655772.0
-4.0,-15.0,-5.0,-3.0,14.0,0.0,-1.0,0.0,1651024691655772.0
-3.0,1.0,0.0,1.0,-2.0,4.0,-1.0,-1.0,1651024691676783.0
2.0,8.0,4.0,5.0,0.0,0.0,-1.0,1.0,1651024691676783.0
-3.0,-9.0,-6.0,-3.0,0.0,0.0,-1.0,0.0,1651024691678738.0
2.0,5.0,1.0,-1.0,-9.0,-4.0,-1.0,0.0,1651024691678738.0
1.0,-2.0,1.0,0.0,-3.0,-3.0,-2.0,-1.0,1651024691690709.0
-1.0,3.0,1.0,2.0,5.0,4.0,0.0,0.0,1651024691690709.0
-1.0,-1.0,-1.0,-4.0,-4.0,0.0,-1.0,0.0,1651024691699654.0
3.0,8.0,2.0,2.0,-1.0,-1.0,0.0,0.0,1651024691699654.0
-4.0,-7.0,-1.0,-1.0,-5.0,-2.0,0.0,-1.0,1651024691714674.0
0.0,-2.0,-2.0,-1.0,-8.0,-5.0,-1.0,-3.0,1651024691714674.0
0.0,-1.0,-2.0,0.0,7.0,1.0,0.0,1.0,1651024691715766.0
1.0,4.0,-1.0,-15.0,-10.0,3.0,0.0,1.0,1651024691715766.0
-1.0,1.0,-2.0,7.0,3.0,-2.0,0.0,1.0,1651024691737346.0
1.0,-3.0,6.0,9.0,-2.0,-2.0,0.0,0.0,1651024691737346.0
-4.0,4.0,1.0,0.0,4.0,-1.0,-1.0,-3.0,1651024691738869.0
2.0,5.0,3.0,1.0,8.0,3.0,0.0,1.0,1651024691738869.0
1.0,16.0,0.0,-11.0,-13.0,-5.0,-1.0,-1.0,1651024691750902.0
-3.0,-24.0,-6.0,0.0,10.0,3.0,-1.0,-2.0,1651024691750902.0
4.0,19.0,4.0,-2.0,-3.0,0.0,0.0,1.0,1651024691759820.0
-6.0,-10.0,-5.0,0.0,1.0,-1.0,0.0,-1.0,1651024691759820.0
0.0,0.0,1.0,3.0,2.0,0.0,-1.0,0.0,1651024691774985.0
-1.0,4.0,-1.0,-5.0,-4.0,-2.0,0.0,1.0,1651024691774985.0
0.0,0.0,4.0,1.0,-5.0,-1.0,-1.0,-1.0,1651024691775985.0
-1.0,-2.0,-1.0,-1.0,-3.0,-1.0,1.0,-1.0,1651024691775985.0
-3.0,-21.0,-4.0,6.0,12.0,0.0,0.0,-2.0,1651024691797113.0
-4.0,19.0,-3.0,-14.0,-8.0,-2.0,-1.0,-2.0,1651024691797113.0
-2.0,-12.0,-6.0,-11.0,-24.0,-5.0,1.0,-2.0,1651024691799041.0
3.0,13.0,-3.0,11.0,16.0,3.0,0.0,0.0,1651024691799041.0
-1.0,6.0,17.0,10.0,7.0,4.0,0.0,-4.0,1651024691811009.0
7.0,7.0,-6.0,12.0,5.0,-2.0,2.0,0.0,1651024691811009.0
-4.0,-16.0,-9.0,-13.0,-6.0,2.0,0.0,1.0,1651024691819985.0
5.0,21.0,24.0,16.0,-6.0,-2.0,1.0,3.0,1651024691819985.0
-5.0,-25.0,-24.0,-10.0,9.0,5.0,0.0,1.0,1651024691835028.0
5.0,15.0,9.0,-4.0,3.0,3.0,0.0,2.0,1651024691835028.0
-2.0,-15.0,-26.0,-16.0,-3.0,-3.0,-1.0,-3.0,1651024691835899.0
5.0,10.0,4.0,34.0,14.0,-3.0,-2.0,0.0,1651024691835899.0
-4.0,8.0,30.0,0.0,-2.0,3.0,2.0,2.0,1651024691856958.0
-2.0,-7.0,-12.0,-14.0,-14.0,-3.0,-5.0,-1.0,1651024691856958.0
8.0,12.0,-2.0,8.0,7.0,2.0,2.0,1.0,1651024691858953.0
-5.0,-2.0,20.0,20.0,7.0,0.0,-19.0,-9.0,1651024691858953.0
5.0,16.0,15.0,10.0,11.0,7.0,17.0,8.0,1651024691879908.0
-4.0,-28.0,-30.0,-40.0,-14.0,-3.0,3.0,-2.0,1651024691879908.0
-7.0,0.0,5.0,20.0,10.0,-1.0,-5.0,-4.0,1651024691880894.0
4.0,-13.0,-33.0,-30.0,-9.0,0.0,4.0,4.0,1651024691880894.0
0.0,7.0,-9.0,8.0,-13.0,-10.0,-10.0,-8.0,1651024691893894.0
-8.0,2.0,30.0,42.0,27.0,8.0,-1.0,-1.0,1651024691893894.0
-3.0,-11.0,0.0,-27.0,-9.0,-1.0,7.0,4.0,1651024691900906.0
-4.0,-6.0,-21.0,-45.0,-22.0,-11.0,-11.0,-9.0,1651024691900906.0
-9.0,-21.0,4.0,37.0,15.0,0.0,2.0,1.0,1651024691917385.0
-2.0,5.0,-3.0,-40.0,-5.0,-2.0,-3.0,-1.0,1651024691917385.0
0.0,-1.0,-16.0,17.0,-6.0,-6.0,-34.0,-11.0,1651024691918868.0
3.0,0.0,22.0,17.0,9.0,4.0,23.0,10.0,1651024691918868.0
12.0,22.0,-13.0,-33.0,-12.0,3.0,13.0,7.0,1651024691939873.0
-17.0,-12.0,26.0,42.0,1.0,-9.0,-31.0,-21.0,1651024691939873.0
6.0,12.0,8.0,-10.0,8.0,12.0,26.0,13.0,1651024691940810.0
2.0,2.0,-19.0,-17.0,-10.0,-17.0,-24.0,-11.0,1651024691940810.0
-1.0,-13.0,-30.0,-10.0,-3.0,-4.0,-8.0,-3.0,1651024691953860.0
6.0,10.0,29.0,23.0,14.0,7.0,21.0,11.0,1651024691953860.0
3.0,17.0,27.0,27.0,1.0,15.0,1.0,-1.0,1651024691960918.0
-16.0,-40.0,-48.0,-18.0,-6.0,-20.0,-16.0,-10.0,1651024691960918.0
-3.0,8.0,-2.0,-13.0,-4.0,17.0,-24.0,-19.0,1651024691976991.0
5.0,-3.0,-11.0,-44.0,-9.0,14.0,47.0,24.0,1651024691976991.0
2.0,3.0,26.0,73.0,26.0,-1.0,4.0,2.0,1651024691978946.0
-2.0,-20.0,-34.0,-32.0,-20.0,0.0,18.0,7.0,1651024691978946.0
3.0,22.0,54.0,1.0,-5.0,-32.0,-23.0,-5.0,1651024691999405.0
-17.0,-30.0,-63.0,23.0,-2.0,2.0,-39.0,-30.0,1651024691999405.0
-6.0,-14.0,0.0,-32.0,-32.0,-15.0,20.0,6.0,1651024692005539.0
2.0,15.0,10.0,32.0,30.0,12.0,-2.0,2.0,1651024692005539.0
-4.0,-19.0,-7.0,-22.0,-15.0,-3.0,-27.0,-17.0,1651024692013418.0
18.0,35.0,3.0,-33.0,-12.0,3.0,48.0,29.0,1651024692013418.0
-11.0,-21.0,16.0,8.0,11.0,-1.0,-1.0,-6.0,1651024692020467.0
-5.0,-7.0,-3.0,7.0,6.0,4.0,-11.0,-2.0,1651024692020467.0
1.0,5.0,1.0,2.0,2.0,3.0,0.0,5.0,1651024692036963.0
-3.0,-19.0,-3.0,20.0,0.0,-14.0,-19.0,-11.0,1651024692036963.0
6.0,11.0,10.0,-21.0,-17.0,-8.0,11.0,2.0,1651024692038919.0
-6.0,-12.0,7.0,9.0,18.0,12.0,-31.0,-8.0,1651024692038919.0
7.0,20.0,1.0,3.0,6.0,10.0,55.0,15.0,1651024692059924.0
-4.0,-10.0,-3.0,-2.0,-1.0,-4.0,-4.0,0.0,1651024692059924.0
-6.0,-3.0,-5.0,-3.0,-11.0,-18.0,-40.0,-20.0,1651024692060902.0
6.0,8.0,3.0,-53.0,-26.0,4.0,61.0,26.0,1651024692060902.0
-1.0,7.0,3.0,56.0,17.0,0.0,4.0,5.0,1651024692073865.0
-4.0,-25.0,-18.0,-9.0,-7.0,-8.0,-1.0,-2.0,1651024692073865.0
4.0,13.0,5.0,-8.0,0.0,-1.0,-1.0,5.0,1651024692080903.0
-5.0,3.0,25.0,-3.0,-2.0,4.0,-6.0,-9.0,1651024692080903.0
2.0,-20.0,-41.0,-21.0,-13.0,-3.0,-11.0,2.0,1651024692096904.0
-12.0,-18.0,-23.0,-25.0,4.0,-5.0,14.0,-1.0,1651024692096904.0
6.0,20.0,12.0,26.0,29.0,13.0,-27.0,-10.0,1651024692098871.0
-6.0,-12.0,1.0,-5.0,-14.0,-5.0,21.0,8.0,1651024692098871.0
0.0,-3.0,12.0,-7.0,-11.0,-10.0,-7.0,1.0,1651024692120022.0
6.0,24.0,30.0,22.0,3.0,2.0,-12.0,-5.0,1651024692120022.0
-1.0,-15.0,-43.0,-23.0,-5.0,0.0,7.0,3.0,1651024692120990.0
0.0,4.0,12.0,9.0,13.0,-2.0,2.0,-2.0,1651024692120990.0
-2.0,-11.0,-14.0,-7.0,-3.0,6.0,-8.0,-8.0,1651024692133392.0
8.0,18.0,26.0,2.0,-5.0,-27.0,-10.0,0.0,1651024692133392.0
1.0,4.0,-12.0,-8.0,-2.0,55.0,30.0,9.0,1651024692142371.0
1.0,-4.0,6.0,-3.0,-11.0,-19.0,-7.0,-3.0,1651024692142371.0
-3.0,-6.0,-13.0,-13.0,8.0,25.0,7.0,-1.0,1651024692157375.0
-2.0,12.0,2.0,5.0,-2.0,-3.0,-26.0,-12.0,1651024692157375.0
1.0,-9.0,2.0,-6.0,-2.0,-9.0,32.0,9.0,1651024692163359.0
1.0,9.0,12.0,18.0,5.0,-4.0,-14.0,-4.0,1651024692163359.0
4.0,6.0,2.0,-1.0,4.0,-2.0,13.0,7.0,1651024692179316.0
4.0,2.0,6.0,7.0,-2.0,2.0,-13.0,-5.0,1651024692179316.0
-1.0,-8.0,-21.0,-18.0,-24.0,-23.0,-17.0,-5.0,1651024692181312.0
5.0,10.0,-4.0,1.0,26.0,21.0,-4.0,-7.0,1651024692181312.0
0.0,-9.0,-11.0,-14.0,-3.0,-8.0,45.0,20.0,1651024692193315.0
6.0,24.0,34.0,-5.0,-5.0,7.0,10.0,7.0,1651024692193315.0
-1.0,-4.0,15.0,63.0,20.0,-4.0,-12.0,-2.0,1651024692202256.0
-7.0,-9.0,-8.0,4.0,-15.0,-6.0,-23.0,-13.0,1651024692202256.0
2.0,15.0,20.0,0.0,-6.0,-8.0,-8.0,0.0,1651024692217243.0
2.0,-5.0,-28.0,-26.0,-2.0,4.0,-8.0,-1.0,1651024692217243.0
-7.0,-4.0,-16.0,-13.0,1.0,-2.0,10.0,2.0,1651024692218216.0
3.0,8.0,7.0,2.0,-5.0,1.0,-3.0,1.0,1651024692218216.0
-9.0,-5.0,11.0,-4.0,-9.0,-12.0,-27.0,-20.0,1651024692246978.0
5.0,5.0,-5.0,7.0,-2.0,-4.0,2.0,11.0,1651024692246978.0
5.0,12.0,20.0,0.0,16.0,5.0,7.0,4.0,1651024692248912.0
-2.0,-9.0,-7.0,13.0,4.0,14.0,10.0,4.0,1651024692248912.0
-2.0,-5.0,0.0,-12.0,-10.0,-10.0,-20.0,-9.0,1651024692253922.0
-7.0,-9.0,-2.0,-2.0,-8.0,-8.0,15.0,5.0,1651024692253922.0
1.0,-1.0,-8.0,-23.0,-6.0,-2.0,-12.0,-7.0,1651024692260895.0
2.0,9.0,3.0,8.0,-1.0,8.0,32.0,8.0,1651024692260895.0
4.0,3.0,1.0,-14.0,-2.0,4.0,-1.0,3.0,1651024692276791.0
-8.0,-19.0,-1.0,33.0,6.0,4.0,-9.0,-8.0,1651024692276791.0
-1.0,-1.0,-18.0,-27.0,19.0,-13.0,-7.0,-4.0,1651024692278818.0
-3.0,1.0,26.0,59.0,13.0,10.0,10.0,5.0,1651024692278818.0
5.0,-2.0,-21.0,5.0,-10.0,-2.0,0.0,7.0,1651024692299827.0
0.0,16.0,6.0,-18.0,-7.0,-4.0,-18.0,-9.0,1651024692299827.0
0.0,4.0,11.0,-2.0,-9.0,-2.0,14.0,3.0,1651024692300825.0
6.0,-1.0,-3.0,-17.0,-6.0,-3.0,-7.0,-3.0,1651024692300825.0
1.0,12.0,10.0,11.0,16.0,9.0,3.0,-1.0,1651024692313796.0
-6.0,-30.0,-52.0,-16.0,-7.0,-5.0,2.0,2.0,1651024692313796.0
-3.0,-13.0,0.0,-7.0,-5.0,7.0,1.0,-2.0,1651024692320776.0
-9.0,-8.0,-9.0,-16.0,-7.0,-9.0,-17.0,-9.0,1651024692320776.0
10.0,13.0,15.0,17.0,5.0,-5.0,11.0,9.0,1651024692336860.0
-2.0,5.0,9.0,2.0,9.0,24.0,35.0,5.0,1651024692336860.0
-5.0,-2.0,-13.0,-8.0,-10.0,-4.0,-36.0,-15.0,1651024692338857.0
6.0,10.0,14.0,6.0,-6.0,-7.0,14.0,9.0,1651024692338857.0
-3.0,-6.0,0.0,6.0,6.0,10.0,-1.0,-3.0,1651024692358311.0
0.0,-1.0,7.0,-5.0,4.0,-3.0,-10.0,-7.0,1651024692358311.0
3.0,-4.0,-24.0,-13.0,-16.0,-8.0,2.0,4.0,1651024692367088.0
-5.0,-1.0,31.0,40.0,27.0,5.0,-10.0,-7.0,1651024692367088.0
-3.0,2.0,-1.0,-10.0,-9.0,-4.0,11.0,1.0,1651024692373073.0
0.0,-6.0,-5.0,22.0,-1.0,-3.0,-3.0,0.0,1651024692373073.0
-5.0,-7.0,2.0,-2.0,16.0,3.0,-4.0,-3.0,1651024692382635.0
-2.0,-8.0,-33.0,-38.0,-14.0,-3.0,6.0,3.0,1651024692382635.0
-3.0,5.0,16.0,27.0,0.0,-3.0,4.0,0.0,1651024692396995.0
1.0,-5.0,-5.0,-2.0,-6.0,2.0,4.0,4.0,1651024692396995.0
1.0,1.0,3.0,-10.0,-29.0,-10.0,-1.0,-1.0,1651024692398949.0
-3.0,-2.0,-4.0,-2.0,15.0,10.0,-6.0,-2.0,1651024692398949.0
1.0,-1.0,-11.0,1.0,8.0,3.0,7.0,3.0,1651024692419926.0
1.0,11.0,9.0,-14.0,-8.0,-1.0,-3.0,-2.0,1651024692419926.0
3.0,8.0,13.0,14.0,1.0,-3.0,-1.0,1.0,1651024692420924.0
-4.0,-7.0,-26.0,-23.0,-12.0,-12.0,-21.0,-12.0,1651024692420924.0
-5.0,-10.0,4.0,-6.0,-3.0,-7.0,-11.0,-4.0,1651024692432960.0
2.0,5.0,-4.0,-1.0,5.0,0.0,-16.0,-6.0,1651024692432960.0
-3.0,-9.0,-7.0,1.0,11.0,11.0,8.0,2.0,1651024692441868.0
6.0,16.0,34.0,16.0,-15.0,-2.0,-2.0,2.0,1651024692441868.0
-7.0,-19.0,-16.0,6.0,21.0,6.0,7.0,0.0,1651024692456889.0
3.0,6.0,10.0,5.0,7.0,-5.0,-16.0,-1.0,1651024692456889.0
-4.0,-1.0,4.0,-4.0,-9.0,-10.0,-9.0,-6.0,1651024692458823.0
1.0,-6.0,-14.0,4.0,1.0,4.0,3.0,0.0,1651024692458823.0
-6.0,-5.0,15.0,-2.0,-14.0,-11.0,-13.0,-5.0,1651024692479434.0
2.0,5.0,-3.0,-6.0,-1.0,4.0,20.0,7.0,1651024692479434.0
0.0,-11.0,-12.0,-8.0,2.0,2.0,-13.0,-4.0,1651024692481362.0
-1.0,-1.0,-11.0,-5.0,-13.0,-12.0,8.0,5.0,1651024692481362.0
-4.0,1.0,-12.0,-17.0,-6.0,-2.0,-9.0,-5.0,1651024692493365.0
0.0,10.0,22.0,10.0,2.0,3.0,4.0,-4.0,1651024692493365.0
3.0,6.0,6.0,8.0,10.0,3.0,14.0,7.0,1651024692502313.0
-8.0,-11.0,-11.0,-14.0,-4.0,-1.0,5.0,-5.0,1651024692502313.0
-1.0,3.0,5.0,-1.0,0.0,-5.0,-34.0,-18.0,1651024692517335.0
-5.0,-22.0,-29.0,-33.0,-18.0,-2.0,11.0,6.0,1651024692517335.0
-4.0,-8.0,3.0,16.0,-1.0,0.0,-2.0,-4.0,1651024692518261.0
2.0,0.0,5.0,0.0,-1.0,-2.0,1.0,2.0,1651024692518261.0
-5.0,-4.0,-13.0,-14.0,3.0,-9.0,-4.0,-5.0,1651024692539012.0
3.0,8.0,20.0,30.0,-4.0,-9.0,-4.0,-2.0,1651024692539012.0
-6.0,-10.0,-12.0,-25.0,11.0,1.0,-22.0,-7.0,1651024692540939.0
0.0,1.0,8.0,21.0,5.0,8.0,15.0,5.0,1651024692540939.0
3.0,3.0,-13.0,3.0,-4.0,3.0,-9.0,-3.0,1651024692562267.0
0.0,-6.0,-5.0,-8.0,0.0,-3.0,-10.0,-9.0,1651024692562267.0
5.0,8.0,14.0,13.0,-8.0,-3.0,39.0,20.0,1651024692563197.0
-1.0,9.0,5.0,-24.0,-10.0,-6.0,-10.0,-8.0,1651024692563197.0
3.0,-6.0,-3.0,11.0,3.0,8.0,9.0,10.0,1651024692577224.0
5.0,11.0,13.0,7.0,13.0,4.0,-11.0,-1.0,1651024692577224.0
-1.0,1.0,-14.0,4.0,-4.0,-9.0,-14.0,-8.0,1651024692578950.0
-8.0,-17.0,-14.0,-18.0,-6.0,-15.0,-33.0,-13.0,1651024692578950.0
8.0,2.0,0.0,4.0,-6.0,16.0,62.0,22.0,1651024692599944.0
-7.0,-7.0,-4.0,-4.0,1.0,-15.0,0.0,-3.0,1651024692599944.0
1.0,9.0,20.0,2.0,21.0,32.0,3.0,0.0,1651024692600894.0
3.0,7.0,2.0,5.0,-7.0,-2.0,8.0,6.0,1651024692600894.0
-6.0,-5.0,-4.0,-1.0,2.0,-10.0,-21.0,-10.0,1651024692612980.0
-1.0,0.0,-8.0,-16.0,-14.0,-2.0,-11.0,-7.0,1651024692612980.0
5.0,-3.0,-3.0,16.0,15.0,1.0,12.0,8.0,1651024692621959.0
1.0,7.0,19.0,8.0,11.0,11.0,1.0,0.0,1651024692621959.0
0.0,-5.0,4.0,23.0,-1.0,-5.0,-1.0,4.0,1651024692644907.0
1.0,-2.0,-12.0,-11.0,-3.0,5.0,8.0,3.0,1651024692644907.0
-4.0,0.0,4.0,3.0,-9.0,-15.0,-24.0,-14.0,1651024692645882.0
8.0,5.0,-3.0,-10.0,3.0,3.0,16.0,6.0,1651024692645882.0
0.0,-7.0,-25.0,-12.0,-6.0,-4.0,-5.0,0.0,1651024692659906.0
-6.0,-2.0,10.0,6.0,-2.0,-2.0,1.0,-3.0,1651024692659906.0
-4.0,-6.0,-2.0,2.0,-6.0,-2.0,-13.0,-5.0,1651024692660842.0
-3.0,-7.0,-14.0,-24.0,-15.0,-6.0,24.0,12.0,1651024692660842.0
4.0,12.0,20.0,16.0,5.0,7.0,13.0,6.0,1651024692673469.0
4.0,8.0,-3.0,7.0,29.0,13.0,11.0,2.0,1651024692673469.0
4.0,2.0,-8.0,-9.0,-15.0,-6.0,3.0,6.0,1651024692682289.0
-4.0,-12.0,-14.0,-2.0,7.0,-3.0,-12.0,-8.0,1651024692682289.0
-4.0,3.0,17.0,-18.0,-19.0,-11.0,-1.0,-2.0,1651024692697305.0
3.0,-5.0,-23.0,-1.0,-2.0,-2.0,-2.0,3.0,1651024692697305.0
-7.0,1.0,15.0,5.0,0.0,-5.0,7.0,-6.0,1651024692698236.0
-1.0,-8.0,-19.0,15.0,2.0,-5.0,-9.0,-4.0,1651024692698236.0
-3.0,2.0,8.0,-13.0,2.0,9.0,-9.0,-6.0,1651024692719381.0
-1.0,-5.0,-10.0,1.0,-3.0,-3.0,7.0,2.0,1651024692719381.0
4.0,6.0,6.0,-2.0,-5.0,-8.0,11.0,7.0,1651024692721335.0
4.0,10.0,9.0,-3.0,-1.0,0.0,-11.0,-4.0,1651024692721335.0
-3.0,-6.0,-16.0,-15.0,-3.0,-4.0,-3.0,-7.0,1651024692733357.0
6.0,17.0,37.0,28.0,7.0,1.0,27.0,13.0,1651024692733357.0
-5.0,-16.0,-25.0,-11.0,-8.0,3.0,0.0,-3.0,1651024692742259.0
3.0,8.0,6.0,-3.0,-3.0,3.0,-5.0,1.0,1651024692742259.0
1.0,6.0,3.0,-6.0,7.0,-2.0,-2.0,-1.0,1651024692757280.0
-5.0,-8.0,-4.0,18.0,5.0,-1.0,-19.0,-9.0,1651024692757280.0
0.0,-7.0,-13.0,-15.0,-2.0,3.0,7.0,1.0,1651024692758250.0
-1.0,2.0,10.0,34.0,5.0,-1.0,-7.0,-2.0,1651024692758250.0
-1.0,1.0,2.0,-9.0,0.0,4.0,-12.0,-7.0,1651024692779213.0
2.0,-1.0,2.0,-15.0,-9.0,2.0,9.0,6.0,1651024692779213.0
2.0,6.0,-1.0,5.0,-24.0,-15.0,-1.0,1.0,1651024692781175.0
-3.0,-1.0,1.0,-3.0,27.0,16.0,-3.0,-4.0,1651024692781175.0
2.0,5.0,10.0,-16.0,-4.0,2.0,7.0,2.0,1651024692802356.0
2.0,0.0,-2.0,35.0,12.0,-2.0,-7.0,-4.0,1651024692802356.0
5.0,4.0,-2.0,2.0,8.0,16.0,16.0,9.0,1651024692803354.0
0.0,7.0,17.0,-5.0,-25.0,-16.0,-12.0,-4.0,1651024692803354.0
-3.0,-7.0,-4.0,-8.0,1.0,5.0,4.0,0.0,1651024692817317.0
1.0,8.0,9.0,-3.0,0.0,4.0,-1.0,-2.0,1651024692817317.0
-2.0,-9.0,-3.0,2.0,13.0,-3.0,-28.0,-12.0,1651024692818314.0
-1.0,-3.0,-5.0,2.0,-1.0,-2.0,21.0,7.0,1651024692818314.0
1.0,1.0,0.0,2.0,-13.0,-1.0,8.0,5.0,1651024692839443.0
-13.0,-28.0,-22.0,-10.0,8.0,-6.0,-14.0,-9.0,1651024692839443.0
3.0,16.0,9.0,4.0,7.0,8.0,3.0,1.0,1651024692841370.0
-5.0,-8.0,0.0,-21.0,-13.0,-3.0,8.0,5.0,1651024692841370.0
0.0,-5.0,-15.0,18.0,0.0,-13.0,-45.0,-17.0,1651024692861915.0
10.0,0.0,-7.0,-12.0,-8.0,8.0,37.0,18.0,1651024692861915.0
-2.0,6.0,0.0,-11.0,1.0,0.0,-8.0,-6.0,1651024692863882.0
-1.0,2.0,19.0,30.0,14.0,2.0,12.0,4.0,1651024692863882.0
-4.0,-7.0,-9.0,-10.0,0.0,14.0,15.0,3.0,1651024692877380.0
-6.0,-4.0,5.0,13.0,-5.0,-6.0,-34.0,-17.0,1651024692877380.0
-2.0,3.0,5.0,-6.0,6.0,2.0,-10.0,-3.0,1651024692878869.0
-1.0,-5.0,-18.0,-28.0,-24.0,-15.0,-9.0,-4.0,1651024692878869.0
2.0,4.0,13.0,28.0,17.0,-1.0,-8.0,-2.0,1651024692899040.0
-9.0,-21.0,-19.0,-7.0,3.0,7.0,27.0,8.0,1651024692899040.0
-3.0,-1.0,0.0,-28.0,-31.0,-13.0,-5.0,-2.0,1651024692900971.0
2.0,8.0,16.0,46.0,20.0,8.0,6.0,0.0,1651024692900971.0
-7.0,-11.0,-17.0,-16.0,-8.0,-8.0,-10.0,-8.0,1651024692921980.0
5.0,24.0,17.0,-12.0,0.0,2.0,-5.0,-2.0,1651024692921980.0
6.0,-3.0,1.0,8.0,-4.0,-1.0,23.0,15.0,1651024692923934.0
-5.0,-8.0,-17.0,-11.0,0.0,1.0,-13.0,-8.0,1651024692923934.0
4.0,11.0,5.0,-9.0,-8.0,2.0,26.0,12.0,1651024692937390.0
1.0,-2.0,-4.0,9.0,8.0,-6.0,-21.0,-7.0,1651024692937390.0
0.0,2.0,-1.0,-15.0,4.0,0.0,-9.0,-3.0,1651024692938895.0
0.0,0.0,-3.0,-7.0,-1.0,3.0,-14.0,-6.0,1651024692938895.0
0.0,-1.0,8.0,25.0,13.0,5.0,10.0,11.0,1651024692960304.0
-1.0,2.0,7.0,-15.0,-21.0,-6.0,-9.0,-2.0,1651024692960304.0
-2.0,-3.0,-5.0,11.0,1.0,-2.0,8.0,1.0,1651024692961275.0
-1.0,-5.0,-18.0,-12.0,-5.0,-8.0,-47.0,-17.0,1651024692961275.0
-1.0,-4.0,4.0,-11.0,-13.0,-8.0,11.0,3.0,1651024692981967.0
-7.0,-8.0,0.0,1.0,-2.0,3.0,-11.0,-7.0,1651024692981967.0
-1.0,-3.0,9.0,27.0,12.0,2.0,12.0,1.0,1651024692983893.0
-2.0,-4.0,-10.0,-17.0,-14.0,-5.0,9.0,2.0,1651024692983893.0
-2.0,-7.0,-17.0,2.0,5.0,-7.0,-29.0,-13.0,1651024692995929.0
7.0,8.0,4.0,-15.0,-2.0,10.0,34.0,18.0,1651024692995929.0
-5.0,-5.0,-4.0,14.0,18.0,3.0,-19.0,-11.0,1651024693010982.0
1.0,4.0,6.0,3.0,3.0,-2.0,6.0,2.0,1651024693010982.0
-8.0,-20.0,-6.0,-8.0,-22.0,-16.0,-4.0,-4.0,1651024693019963.0
-4.0,-1.0,-4.0,-8.0,2.0,0.0,-21.0,-11.0,1651024693019963.0
-2.0,6.0,18.0,3.0,-4.0,-2.0,7.0,4.0,1651024693020970.0
1.0,2.0,-21.0,-11.0,-6.0,-1.0,0.0,-1.0,1651024693020970.0
1.0,2.0,2.0,12.0,11.0,0.0,20.0,9.0,1651024693042265.0
-1.0,3.0,2.0,-6.0,-14.0,-16.0,-24.0,-9.0,1651024693042265.0
-1.0,1.0,-1.0,-1.0,-5.0,1.0,4.0,0.0,1651024693043269.0
1.0,-1.0,3.0,-1.0,5.0,-3.0,9.0,7.0,1651024693043269.0
0.0,6.0,4.0,-1.0,6.0,23.0,-7.0,-6.0,1651024693056299.0
-2.0,-6.0,-8.0,-1.0,-10.0,-3.0,9.0,3.0,1651024693056299.0
2.0,1.0,-2.0,-2.0,5.0,1.0,-3.0,1.0,1651024693063365.0
1.0,-2.0,8.0,-8.0,-4.0,1.0,18.0,6.0,1651024693063365.0
4.0,5.0,1.0,13.0,-9.0,-14.0,-6.0,-3.0,1651024693079298.0
1.0,0.0,1.0,10.0,34.0,7.0,-1.0,0.0,1651024693079298.0
7.0,9.0,5.0,6.0,1.0,12.0,14.0,9.0,1651024693081254.0
-3.0,-17.0,-9.0,-17.0,-14.0,-6.0,-8.0,-2.0,1651024693081254.0
0.0,4.0,11.0,4.0,-3.0,-3.0,0.0,1.0,1651024693102397.0
-1.0,-8.0,-17.0,-4.0,-3.0,-18.0,-3.0,-1.0,1651024693102397.0
0.0,5.0,3.0,2.0,-14.0,-23.0,-8.0,-9.0,1651024693103327.0
3.0,6.0,3.0,5.0,19.0,56.0,19.0,10.0,1651024693103327.0
-1.0,-9.0,0.0,-6.0,-5.0,3.0,-7.0,-5.0,1651024693116357.0
-1.0,4.0,3.0,-4.0,-10.0,-19.0,1.0,2.0,1651024693116357.0
10.0,4.0,-1.0,-1.0,-17.0,12.0,4.0,-3.0,1651024693123326.0
-13.0,0.0,-5.0,4.0,30.0,9.0,12.0,2.0,1651024693123326.0
6.0,19.0,7.0,3.0,3.0,-9.0,1.0,-4.0,1651024693139928.0
-4.0,-7.0,1.0,1.0,-9.0,4.0,-13.0,-9.0,1651024693139928.0
10.0,29.0,-4.0,0.0,12.0,-1.0,-1.0,19.0,1651024693140937.0
-6.0,-46.0,-38.0,-15.0,-17.0,-4.0,2.0,2.0,1651024693140937.0
-10.0,-1.0,-6.0,-12.0,2.0,-1.0,-5.0,-5.0,1651024693161898.0
2.0,8.0,21.0,11.0,-4.0,-8.0,3.0,-2.0,1651024693161898.0
5.0,0.0,5.0,4.0,6.0,-4.0,-4.0,-9.0,1651024693163865.0
0.0,6.0,41.0,22.0,4.0,1.0,-3.0,4.0,1651024693163865.0
0.0,3.0,-24.0,-7.0,7.0,-7.0,1.0,2.0,1651024693175863.0
-3.0,0.0,-17.0,-20.0,-15.0,4.0,-3.0,3.0,1651024693175863.0
-5.0,-21.0,-3.0,0.0,-1.0,10.0,2.0,5.0,1651024693182814.0
11.0,16.0,5.0,4.0,13.0,-12.0,-2.0,1.0,1651024693182814.0
1.0,-3.0,14.0,5.0,-22.0,-8.0,0.0,0.0,1651024693199949.0
11.0,41.0,8.0,4.0,21.0,24.0,9.0,3.0,1651024693199949.0
-19.0,-64.0,-22.0,-8.0,-2.0,-3.0,-4.0,-8.0,1651024693200948.0
2.0,22.0,13.0,3.0,-19.0,-17.0,-2.0,-4.0,1651024693200948.0
1.0,-3.0,-1.0,1.0,23.0,11.0,5.0,2.0,1651024693221949.0
2.0,3.0,2.0,2.0,1.0,8.0,6.0,4.0,1651024693221949.0
-1.0,-3.0,0.0,-3.0,-4.0,-10.0,-3.0,-2.0,1651024693223909.0
1.0,-11.0,-4.0,2.0,-13.0,-4.0,-1.0,-2.0,1651024693223909.0
3.0,23.0,-1.0,-6.0,3.0,5.0,0.0,3.0,1651024693235926.0
1.0,-6.0,6.0,2.0,1.0,-1.0,0.0,1.0,1651024693235926.0
3.0,34.0,7.0,-1.0,-8.0,-3.0,-3.0,-4.0,1651024693242835.0
-2.0,-5.0,-2.0,-1.0,5.0,-2.0,-1.0,-3.0,1651024693242835.0
10.0,2.0,6.0,0.0,-3.0,2.0,2.0,4.0,1651024693259927.0
-13.0,-27.0,-13.0,-5.0,-5.0,-4.0,4.0,-1.0,1651024693259927.0
-4.0,-1.0,6.0,2.0,1.0,6.0,-3.0,-9.0,1651024693260924.0
1.0,6.0,3.0,8.0,9.0,0.0,1.0,-1.0,1651024693260924.0
9.0,-1.0,-6.0,0.0,17.0,6.0,0.0,4.0,1651024693282016.0
-5.0,0.0,5.0,-2.0,-12.0,0.0,-1.0,-4.0,1651024693282016.0
-1.0,3.0,2.0,2.0,7.0,3.0,1.0,3.0,1651024693284049.0
4.0,4.0,0.0,-1.0,2.0,-1.0,0.0,2.0,1651024693284049.0
11.0,73.0,34.0,10.0,-4.0,-1.0,0.0,0.0,1651024693296110.0
-16.0,-92.0,-35.0,-7.0,-4.0,0.0,-1.0,-3.0,1651024693296110.0
4.0,-3.0,4.0,-3.0,-2.0,-1.0,-1.0,2.0,1651024693305152.0
-15.0,1.0,-12.0,-5.0,-1.0,-4.0,-3.0,-6.0,1651024693305152.0
-3.0,7.0,-24.0,-13.0,-14.0,0.0,2.0,2.0,1651024693319234.0
8.0,26.0,12.0,4.0,18.0,3.0,0.0,2.0,1651024693319234.0
-4.0,-38.0,-14.0,-5.0,-4.0,-3.0,1.0,1.0,1651024693321249.0
0.0,3.0,-1.0,-7.0,-9.0,-1.0,-2.0,-6.0,1651024693321249.0
-16.0,-56.0,-6.0,0.0,2.0,2.0,-1.0,-1.0,1651024693342080.0
5.0,53.0,6.0,2.0,7.0,5.0,-2.0,-1.0,1651024693342080.0
-1.0,-20.0,11.0,9.0,6.0,-1.0,1.0,1.0,1651024693344006.0
12.0,32.0,4.0,1.0,-4.0,4.0,1.0,5.0,1651024693344006.0
-19.0,-45.0,-20.0,-10.0,-21.0,-10.0,-5.0,-8.0,1651024693356010.0
3.0,-10.0,14.0,5.0,11.0,5.0,2.0,2.0,1651024693356010.0
6.0,14.0,-2.0,4.0,2.0,0.0,1.0,2.0,1651024693364950.0
-14.0,-4.0,-13.0,-13.0,-12.0,-7.0,-4.0,-4.0,1651024693364950.0
5.0,0.0,0.0,-3.0,-3.0,-1.0,0.0,1.0,1651024693379117.0
8.0,43.0,2.0,-1.0,-11.0,-2.0,1.0,3.0,1651024693379117.0
-7.0,-23.0,-7.0,0.0,3.0,-2.0,0.0,1.0,1651024693381085.0
-4.0,23.0,0.0,1.0,9.0,-3.0,-6.0,-5.0,1651024693381085.0
-8.0,-46.0,-5.0,6.0,9.0,5.0,2.0,1.0,1651024693402090.0
4.0,4.0,15.0,-2.0,-8.0,-4.0,-3.0,-2.0,1651024693402090.0
11.0,20.0,-4.0,-4.0,-8.0,-2.0,0.0,4.0,1651024693404017.0
-27.0,-44.0,-5.0,-4.0,-6.0,-3.0,-3.0,-8.0,1651024693404017.0
28.0,21.0,7.0,7.0,12.0,5.0,4.0,9.0,1651024693416015.0
-17.0,-11.0,-2.0,1.0,-1.0,1.0,2.0,-3.0,1651024693416015.0
-5.0,-4.0,-6.0,-4.0,-1.0,-3.0,-2.0,-1.0,1651024693425011.0
3.0,-9.0,8.0,5.0,1.0,-1.0,2.0,1.0,1651024693425011.0
4.0,26.0,4.0,-1.0,0.0,0.0,1.0,0.0,1651024693439033.0
1.0,-3.0,-8.0,-4.0,-9.0,-4.0,-3.0,0.0,1651024693439033.0
-7.0,-45.0,-8.0,-2.0,5.0,6.0,0.0,-2.0,1651024693446023.0
24.0,40.0,16.0,5.0,-20.0,-5.0,2.0,7.0,1651024693446023.0
-26.0,-21.0,-14.0,-7.0,19.0,4.0,-6.0,-8.0,1651024693462080.0
-12.0,-11.0,-12.0,-3.0,2.0,-2.0,-3.0,-7.0,1651024693462080.0
1.0,55.0,8.0,2.0,-5.0,-4.0,-2.0,-1.0,1651024693464037.0
5.0,-48.0,-1.0,3.0,2.0,6.0,4.0,5.0,1651024693464037.0
11.0,4.0,0.0,-1.0,-6.0,-1.0,1.0,1.0,1651024693476044.0
17.0,-28.0,7.0,10.0,7.0,3.0,8.0,9.0,1651024693476044.0
16.0,97.0,17.0,-7.0,-10.0,-5.0,-2.0,1.0,1651024693484952.0
-5.0,-45.0,-3.0,0.0,1.0,5.0,2.0,1.0,1651024693484952.0
-11.0,-6.0,-9.0,-2.0,7.0,-4.0,-4.0,-5.0,1651024693499912.0
1.0,-23.0,-2.0,7.0,7.0,5.0,1.0,0.0,1651024693499912.0
-7.0,32.0,-6.0,-4.0,-10.0,-3.0,-4.0,-5.0,1651024693500910.0
11.0,-17.0,-7.0,-5.0,1.0,-1.0,-1.0,4.0,1651024693500910.0
-3.0,-3.0,6.0,-1.0,-7.0,-2.0,0.0,1.0,1651024693522477.0
-15.0,-25.0,-6.0,-3.0,-6.0,-1.0,-3.0,-6.0,1651024693522477.0
0.0,-28.0,-10.0,0.0,2.0,-2.0,0.0,1.0,1651024693523476.0
1.0,-36.0,-7.0,3.0,8.0,3.0,2.0,2.0,1651024693523476.0
-2.0,-34.0,4.0,6.0,5.0,5.0,4.0,5.0,1651024693535636.0
7.0,42.0,5.0,-2.0,-5.0,-4.0,-6.0,-4.0,1651024693535636.0
-8.0,-23.0,-9.0,-1.0,-1.0,-1.0,-1.0,-2.0,1651024693544542.0
2.0,31.0,-1.0,1.0,9.0,4.0,1.0,-1.0,1651024693544542.0
-1.0,-32.0,4.0,-1.0,-7.0,-3.0,3.0,1.0,1651024693559506.0
-1.0,6.0,-5.0,-3.0,0.0,0.0,1.0,0.0,1651024693559506.0
2.0,11.0,-1.0,1.0,4.0,1.0,-1.0,-1.0,1651024693560499.0
-8.0,-16.0,4.0,-2.0,-2.0,-2.0,-3.0,-6.0,1651024693560499.0
-4.0,-19.0,-37.0,-11.0,-19.0,-6.0,-3.0,-2.0,1651024693581508.0
3.0,16.0,11.0,0.0,11.0,5.0,2.0,2.0,1651024693581508.0
-21.0,-30.0,-7.0,2.0,2.0,-1.0,-3.0,-9.0,1651024693583438.0
-31.0,-36.0,-22.0,-9.0,-13.0,-9.0,-5.0,-9.0,1651024693583438.0
2.0,25.0,13.0,-5.0,3.0,0.0,-3.0,-4.0,1651024693595474.0
3.0,30.0,2.0,-2.0,-10.0,-1.0,0.0,2.0,1651024693595474.0
3.0,-18.0,8.0,5.0,17.0,3.0,2.0,5.0,1651024693604381.0
12.0,31.0,4.0,6.0,3.0,4.0,3.0,6.0,1651024693604381.0
-4.0,2.0,2.0,1.0,-5.0,-2.0,-1.0,-2.0,1651024693619383.0
-6.0,-17.0,-8.0,-7.0,-8.0,-4.0,-3.0,-3.0,1651024693619383.0
-3.0,-11.0,2.0,-2.0,0.0,2.0,1.0,0.0,1651024693621337.0
6.0,-4.0,4.0,5.0,3.0,1.0,2.0,2.0,1651024693621337.0
8.0,48.0,9.0,0.0,0.0,0.0,-1.0,-1.0,1651024693641955.0
-14.0,-25.0,-2.0,-2.0,2.0,-1.0,-3.0,-4.0,1651024693641955.0
15.0,0.0,1.0,-1.0,-3.0,1.0,1.0,5.0,1651024693643893.0
-8.0,-1.0,-1.0,-6.0,0.0,-3.0,-4.0,-4.0,1651024693643893.0
0.0,22.0,7.0,0.0,-2.0,0.0,-1.0,2.0,1651024693655970.0
1.0,4.0,1.0,2.0,2.0,-1.0,-1.0,1.0,1651024693655970.0
4.0,24.0,7.0,0.0,-2.0,-2.0,-1.0,0.0,1651024693664832.0
13.0,25.0,6.0,0.0,-4.0,-2.0,2.0,4.0,1651024693664832.0
5.0,-3.0,3.0,1.0,4.0,2.0,-1.0,0.0,1651024693679040.0
0.0,-5.0,-4.0,0.0,-5.0,-4.0,0.0,-1.0,1651024693679040.0
11.0,50.0,14.0,-1.0,-12.0,-1.0,-1.0,1.0,1651024693685955.0
6.0,24.0,18.0,2.0,18.0,4.0,2.0,1.0,1651024693685955.0
-3.0,9.0,-21.0,2.0,-3.0,-1.0,1.0,1.0,1651024693701681.0
12.0,9.0,1.0,0.0,-2.0,-4.0,2.0,3.0,1651024693701681.0
-3.0,0.0,5.0,-3.0,-7.0,-3.0,-2.0,-5.0,1651024693703619.0
1.0,4.0,-1.0,0.0,-3.0,1.0,-3.0,0.0,1651024693703619.0
-4.0,-25.0,3.0,2.0,2.0,0.0,0.0,0.0,1651024693715581.0
3.0,26.0,1.0,-3.0,-18.0,-4.0,0.0,-3.0,1651024693715581.0
1.0,2.0,-7.0,-1.0,23.0,6.0,-1.0,-1.0,1651024693724614.0
5.0,8.0,1.0,1.0,-4.0,1.0,1.0,1.0,1651024693724614.0
-4.0,-7.0,1.0,-2.0,-1.0,-3.0,-2.0,-3.0,1651024693739972.0
3.0,2.0,-5.0,1.0,-1.0,-1.0,1.0,2.0,1651024693739972.0
-9.0,-40.0,-7.0,-3.0,-7.0,-2.0,-2.0,-3.0,1651024693740949.0
2.0,41.0,1.0,1.0,2.0,-1.0,-2.0,-2.0,1651024693740949.0
-2.0,-6.0,1.0,-2.0,-6.0,-2.0,1.0,0.0,1651024693761929.0
2.0,9.0,0.0,-1.0,4.0,1.0,1.0,1.0,1651024693761929.0
6.0,12.0,0.0,-1.0,-3.0,-3.0,0.0,2.0,1651024693763946.0
-3.0,21.0,1.0,-4.0,2.0,-1.0,-2.0,-2.0,1651024693763946.0
6.0,21.0,9.0,3.0,-2.0,-2.0,0.0,-1.0,1651024693783679.0
-8.0,-8.0,3.0,2.0,6.0,1.0,-2.0,-2.0,1651024693783679.0
-7.0,0.0,-4.0,-4.0,0.0,-1.0,-2.0,-4.0,1651024693792655.0
3.0,0.0,-11.0,2.0,-7.0,-2.0,1.0,2.0,1651024693792655.0
-2.0,39.0,2.0,-5.0,-1.0,-2.0,-3.0,-5.0,1651024693799703.0
4.0,16.0,4.0,2.0,2.0,0.0,1.0,0.0,1651024693799703.0
0.0,-22.0,-6.0,2.0,-6.0,-1.0,1.0,2.0,1651024693800634.0
-1.0,-13.0,1.0,-6.0,-3.0,-2.0,0.0,-1.0,1651024693800634.0
-2.0,-7.0,0.0,3.0,20.0,5.0,2.0,1.0,1651024693821583.0
4.0,-14.0,-11.0,3.0,3.0,2.0,2.0,2.0,1651024693821583.0
0.0,-10.0,2.0,-3.0,-7.0,-1.0,-3.0,-2.0,1651024693823572.0
-7.0,4.0,3.0,-1.0,-5.0,-4.0,-1.0,-2.0,1651024693823572.0
1.0,-24.0,-11.0,-2.0,-5.0,0.0,-1.0,0.0,1651024693844940.0
15.0,-3.0,3.0,-1.0,2.0,0.0,-1.0,1.0,1651024693844940.0
-15.0,-3.0,0.0,1.0,1.0,0.0,3.0,2.0,1651024693845937.0
-6.0,-5.0,-5.0,-1.0,-15.0,-10.0,-1.0,-2.0,1651024693845937.0
1.0,-36.0,-1.0,-1.0,11.0,9.0,0.0,1.0,1651024693859686.0
-16.0,-28.0,-4.0,1.0,1.0,0.0,-3.0,-9.0,1651024693859686.0
-12.0,-24.0,-3.0,0.0,-2.0,-1.0,-2.0,-6.0,1651024693861615.0
4.0,3.0,-2.0,0.0,2.0,1.0,1.0,3.0,1651024693861615.0
-5.0,-30.0,-5.0,-2.0,-11.0,-5.0,1.0,0.0,1651024693881635.0
4.0,-28.0,-9.0,-3.0,1.0,3.0,1.0,4.0,1651024693881635.0
2.0,47.0,0.0,1.0,4.0,2.0,-1.0,-1.0,1651024693883616.0
1.0,26.0,13.0,1.0,3.0,1.0,-1.0,-1.0,1651024693883616.0
5.0,21.0,3.0,0.0,-6.0,-3.0,-1.0,1.0,1651024693904904.0
-2.0,-7.0,-1.0,-1.0,1.0,0.0,1.0,1.0,1651024693904904.0
0.0,-3.0,-3.0,0.0,-1.0,-1.0,1.0,-1.0,1651024693905903.0
7.0,22.0,1.0,0.0,1.0,1.0,0.0,1.0,1651024693905903.0
-3.0,18.0,0.0,-2.0,-5.0,-1.0,-2.0,-2.0,1651024693918869.0
-6.0,7.0,3.0,-2.0,-3.0,-3.0,-2.0,-1.0,1651024693918869.0
4.0,26.0,1.0,-2.0,-3.0,-2.0,-3.0,0.0,1651024693925861.0
-3.0,-20.0,-7.0,1.0,9.0,5.0,-1.0,-1.0,1651024693925861.0
1.0,16.0,10.0,4.0,8.0,-1.0,1.0,-1.0,1651024693940874.0
-2.0,2.0,2.0,2.0,-2.0,3.0,2.0,-1.0,1651024693940874.0
-5.0,-44.0,-9.0,-3.0,-4.0,-3.0,0.0,0.0,1651024693949794.0
-2.0,-5.0,1.0,-1.0,-5.0,-2.0,-1.0,-2.0,1651024693949794.0
1.0,-1.0,-10.0,-5.0,-6.0,-6.0,-2.0,0.0,1651024693964297.0
1.0,36.0,11.0,0.0,2.0,1.0,-2.0,-1.0,1651024693964297.0
3.0,5.0,2.0,3.0,3.0,0.0,0.0,-1.0,1651024693966291.0
-6.0,-43.0,-9.0,-2.0,-2.0,-2.0,-1.0,-2.0,1651024693966291.0
-12.0,-49.0,-8.0,-1.0,-3.0,-2.0,-2.0,-1.0,1651024693979274.0
3.0,18.0,0.0,-3.0,-9.0,-7.0,-2.0,-1.0,1651024693979274.0
-1.0,-18.0,1.0,1.0,13.0,8.0,2.0,1.0,1651024693985382.0
-1.0,5.0,-1.0,0.0,1.0,-1.0,0.0,-1.0,1651024693985382.0
-1.0,12.0,3.0,2.0,0.0,0.0,1.0,-1.0,1651024694001916.0
-2.0,-29.0,-7.0,-1.0,-2.0,-1.0,1.0,1.0,1651024694001916.0
-1.0,27.0,-1.0,-5.0,-6.0,-5.0,-4.0,-4.0,1651024694003934.0
-3.0,-20.0,-7.0,-3.0,0.0,-1.0,-1.0,2.0,1651024694003934.0
3.0,1.0,2.0,1.0,-3.0,0.0,-1.0,-1.0,1651024694024935.0
-2.0,0.0,1.0,1.0,4.0,1.0,-1.0,1.0,1651024694024935.0
10.0,32.0,6.0,2.0,-1.0,0.0,0.0,-1.0,1651024694025931.0
-2.0,6.0,2.0,2.0,1.0,1.0,-1.0,-1.0,1651024694025931.0
4.0,15.0,-3.0,-3.0,-5.0,-3.0,-3.0,0.0,1651024694038963.0
0.0,-9.0,-4.0,-1.0,-2.0,-1.0,-2.0,0.0,1651024694038963.0
-3.0,-11.0,-3.0,0.0,-1.0,-6.0,-1.0,-2.0,1651024694045948.0
0.0,-4.0,1.0,0.0,13.0,7.0,-2.0,0.0,1651024694045948.0
-5.0,-6.0,-1.0,5.0,4.0,4.0,-1.0,-2.0,1651024694076918.0
1.0,21.0,4.0,2.0,-4.0,-1.0,1.0,-1.0,1651024694076918.0
7.0,-7.0,6.0,-1.0,-6.0,-1.0,-2.0,0.0,1651024694078886.0
-7.0,0.0,-5.0,-3.0,-6.0,-6.0,-1.0,-1.0,1651024694078886.0
3.0,18.0,1.0,-3.0,-3.0,-3.0,-1.0,0.0,1651024694084890.0
-3.0,-17.0,-8.0,-3.0,5.0,1.0,-2.0,0.0,1651024694084890.0
-7.0,-39.0,-2.0,-1.0,-2.0,0.0,0.0,0.0,1651024694085867.0
6.0,6.0,5.0,1.0,-2.0,-3.0,1.0,-1.0,1651024694085867.0
6.0,11.0,4.0,1.0,11.0,3.0,1.0,3.0,1651024694098900.0
0.0,10.0,6.0,2.0,2.0,0.0,0.0,-1.0,1651024694098900.0
5.0,-3.0,-4.0,1.0,2.0,0.0,1.0,1.0,1651024694105877.0
4.0,4.0,3.0,0.0,-3.0,-2.0,-2.0,-1.0,1651024694105877.0
-12.0,-11.0,-5.0,-4.0,-10.0,-3.0,-1.0,-4.0,1651024694121955.0
0.0,-20.0,-4.0,-1.0,-1.0,-1.0,0.0,0.0,1651024694121955.0
-1.0,-6.0,-1.0,-1.0,0.0,1.0,-1.0,0.0,1651024694123909.0
0.0,-7.0,-2.0,-1.0,-6.0,0.0,0.0,-1.0,1651024694123909.0
-2.0,36.0,3.0,-2.0,-8.0,-6.0,-1.0,0.0,1651024694144833.0
0.0,-17.0,-7.0,-6.0,3.0,-2.0,-2.0,-3.0,1651024694144833.0
1.0,9.0,2.0,1.0,12.0,8.0,0.0,-1.0,1651024694145844.0
0.0,-11.0,-1.0,2.0,-5.0,-3.0,-1.0,-2.0,1651024694145844.0
2.0,4.0,5.0,2.0,-3.0,-1.0,2.0,1.0,1651024694158866.0
4.0,24.0,2.0,1.0,-4.0,-1.0,0.0,-1.0,1651024694158866.0
-4.0,-9.0,-6.0,-2.0,-3.0,-2.0,0.0,0.0,1651024694165843.0
1.0,-17.0,-7.0,-4.0,1.0,1.0,-2.0,-1.0,1651024694165843.0
2.0,-2.0,3.0,-1.0,-1.0,1.0,-2.0,0.0,1651024694181737.0
-8.0,7.0,-3.0,-1.0,0.0,-1.0,-2.0,-2.0,1651024694181737.0
1.0,5.0,3.0,1.0,-2.0,-4.0,-1.0,-3.0,1651024694183732.0
3.0,20.0,-5.0,1.0,5.0,2.0,1.0,0.0,1651024694183732.0
0.0,-4.0,3.0,1.0,0.0,0.0,0.0,-1.0,1651024694205048.0
-1.0,3.0,-1.0,-2.0,0.0,-1.0,0.0,1.0,1651024694205048.0
-3.0,3.0,-10.0,-5.0,3.0,-1.0,-1.0,-2.0,1651024694205866.0
-2.0,-2.0,-4.0,-4.0,-11.0,-1.0,-1.0,-1.0,1651024694205866.0
-4.0,-35.0,-6.0,3.0,15.0,-1.0,0.0,0.0,1651024694218885.0
0.0,6.0,13.0,2.0,0.0,0.0,-2.0,-1.0,1651024694218885.0
-4.0,-6.0,-9.0,-1.0,-9.0,-3.0,1.0,0.0,1651024694226040.0
-2.0,-2.0,1.0,0.0,2.0,-1.0,-1.0,-1.0,1651024694226040.0
0.0,-5.0,-5.0,-4.0,-4.0,2.0,-3.0,-3.0,1651024694242473.0
-1.0,-9.0,-6.0,0.0,-1.0,1.0,2.0,2.0,1651024694242473.0
4.0,12.0,6.0,0.0,-3.0,-3.0,-1.0,0.0,1651024694243472.0
0.0,-4.0,-2.0,-1.0,3.0,4.0,0.0,2.0,1651024694243472.0
-3.0,-1.0,1.0,2.0,0.0,1.0,1.0,0.0,1651024694264485.0
-1.0,-12.0,1.0,2.0,2.0,-1.0,-1.0,-2.0,1651024694264485.0
0.0,-20.0,-3.0,0.0,-3.0,-1.0,0.0,2.0,1651024694266438.0
4.0,30.0,4.0,2.0,-7.0,-6.0,-2.0,0.0,1651024694266438.0
-3.0,-10.0,-7.0,-4.0,11.0,3.0,-3.0,-3.0,1651024694278379.0
0.0,2.0,-2.0,-2.0,-1.0,0.0,2.0,0.0,1651024694278379.0
2.0,20.0,5.0,0.0,-7.0,-5.0,-3.0,0.0,1651024694287355.0
-2.0,5.0,1.0,2.0,5.0,3.0,0.0,0.0,1651024694287355.0
0.0,-5.0,4.0,-1.0,-6.0,-3.0,-2.0,0.0,1651024694302314.0
1.0,-3.0,-9.0,-5.0,-18.0,-5.0,-1.0,1.0,1651024694302314.0
-4.0,-1.0,-7.0,-1.0,23.0,7.0,0.0,0.0,1651024694303325.0
-5.0,-12.0,1.0,2.0,-1.0,-3.0,1.0,-3.0,1651024694303325.0
-1.0,8.0,3.0,-1.0,-4.0,-1.0,1.0,-1.0,1651024694324294.0
-2.0,-4.0,-2.0,-3.0,0.0,0.0,-1.0,-2.0,1651024694324294.0
0.0,15.0,-1.0,-3.0,-11.0,-1.0,-1.0,-2.0,1651024694326278.0
-3.0,-12.0,-4.0,-3.0,2.0,-1.0,-1.0,-3.0,1651024694326278.0
1.0,1.0,-2.0,-1.0,-1.0,0.0,0.0,-1.0,1651024694338094.0
1.0,4.0,2.0,0.0,-4.0,-1.0,-1.0,0.0,1651024694338094.0
-1.0,-11.0,3.0,1.0,4.0,4.0,1.0,2.0,1651024694347005.0
1.0,-34.0,-4.0,-1.0,5.0,1.0,1.0,0.0,1651024694347005.0
-5.0,-9.0,-5.0,0.0,-5.0,0.0,-3.0,-1.0,1651024694361965.0
1.0,-5.0,-3.0,-2.0,-1.0,-3.0,-1.0,0.0,1651024694361965.0
1.0,4.0,3.0,2.0,0.0,-3.0,-1.0,0.0,1651024694363965.0
-2.0,5.0,1.0,1.0,9.0,5.0,0.0,0.0,1651024694363965.0
0.0,-11.0,1.0,-1.0,-8.0,-4.0,0.0,1.0,1651024694384929.0
1.0,-10.0,-4.0,1.0,3.0,1.0,0.0,0.0,1651024694384929.0
2.0,-9.0,0.0,-1.0,-6.0,-2.0,1.0,1.0,1651024694385884.0
-2.0,15.0,1.0,-6.0,-12.0,-6.0,-3.0,-1.0,1651024694385884.0
-3.0,0.0,-1.0,-2.0,5.0,0.0,-1.0,-3.0,1651024694397896.0
-1.0,-38.0,-4.0,5.0,14.0,3.0,1.0,0.0,1651024694397896.0
-12.0,-11.0,4.0,0.0,-6.0,2.0,0.0,-2.0,1651024694406829.0
4.0,6.0,9.0,3.0,2.0,0.0,-2.0,1.0,1651024694406829.0
6.0,11.0,-4.0,-2.0,-9.0,-2.0,-2.0,0.0,1651024694422474.0
-2.0,16.0,3.0,-1.0,8.0,2.0,-1.0,-1.0,1651024694422474.0
3.0,-14.0,-6.0,-2.0,1.0,-1.0,-3.0,-2.0,1651024694423479.0
-5.0,-12.0,-5.0,0.0,-6.0,-3.0,1.0,0.0,1651024694423479.0
0.0,9.0,2.0,2.0,1.0,0.0,0.0,0.0,1651024694444486.0
1.0,8.0,3.0,1.0,-4.0,-4.0,2.0,0.0,1651024694444486.0
-9.0,-5.0,-6.0,-3.0,-2.0,-3.0,-3.0,-2.0,1651024694446440.0
1.0,18.0,-2.0,-2.0,-1.0,3.0,-1.0,-2.0,1651024694446440.0
3.0,2.0,3.0,-2.0,-1.0,1.0,-1.0,0.0,1651024694457939.0
-4.0,1.0,3.0,0.0,1.0,0.0,-1.0,-2.0,1651024694457939.0
3.0,-7.0,-1.0,0.0,3.0,0.0,1.0,0.0,1651024694466918.0
7.0,4.0,4.0,0.0,2.0,2.0,2.0,1.0,1651024694466918.0
-5.0,28.0,-4.0,-2.0,-6.0,-3.0,0.0,-3.0,1651024694481944.0
0.0,7.0,0.0,1.0,13.0,4.0,0.0,0.0,1651024694481944.0
0.0,-8.0,1.0,0.0,-9.0,-3.0,0.0,-1.0,1651024694483898.0
1.0,3.0,-1.0,0.0,-4.0,-5.0,0.0,-1.0,1651024694483898.0
4.0,2.0,6.0,0.0,3.0,2.0,3.0,1.0,1651024694504921.0
0.0,6.0,1.0,-2.0,-8.0,-1.0,0.0,1.0,1651024694504921.0
-1.0,-17.0,-7.0,-2.0,0.0,-2.0,-2.0,-2.0,1651024694505874.0
-10.0,-5.0,-5.0,-1.0,2.0,1.0,-2.0,-4.0,1651024694505874.0
2.0,14.0,0.0,0.0,0.0,0.0,-1.0,0.0,1651024694517842.0
3.0,10.0,-1.0,-2.0,-7.0,-3.0,-3.0,-2.0,1651024694517842.0
3.0,1.0,6.0,1.0,3.0,1.0,1.0,0.0,1651024694526832.0
5.0,23.0,4.0,0.0,0.0,-2.0,0.0,2.0,1651024694526832.0
-5.0,-27.0,-4.0,-1.0,0.0,-2.0,-1.0,-1.0,1651024694541846.0
-3.0,1.0,-1.0,0.0,-8.0,-5.0,0.0,0.0,1651024694541846.0
2.0,11.0,-1.0,-1.0,5.0,2.0,-1.0,-1.0,1651024694543799.0
0.0,11.0,-2.0,-2.0,-2.0,1.0,-2.0,-1.0,1651024694543799.0
3.0,3.0,-1.0,3.0,5.0,0.0,0.0,-1.0,1651024694564725.0
-1.0,1.0,-1.0,0.0,-4.0,-2.0,-1.0,-1.0,1651024694564725.0
3.0,4.0,4.0,0.0,-2.0,0.0,0.0,1.0,1651024694565715.0
-2.0,-8.0,0.0,0.0,1.0,-1.0,0.0,0.0,1651024694565715.0
-2.0,-16.0,-5.0,0.0,0.0,0.0,0.0,-2.0,1651024694578679.0
-1.0,5.0,-1.0,-8.0,-24.0,-6.0,-3.0,-4.0,1651024694578679.0
-3.0,-4.0,-2.0,0.0,18.0,4.0,-1.0,-1.0,1651024694587656.0
-1.0,-7.0,-2.0,3.0,8.0,-1.0,1.0,1.0,1651024694587656.0
-5.0,-13.0,0.0,0.0,-6.0,-1.0,-1.0,-1.0,1651024694601618.0
3.0,10.0,1.0,0.0,1.0,2.0,0.0,2.0,1651024694601618.0
3.0,11.0,-5.0,-3.0,-9.0,-3.0,-1.0,-1.0,1651024694603613.0
-4.0,-7.0,-3.0,-4.0,-4.0,-3.0,-2.0,-3.0,1651024694603613.0
1.0,-10.0,-5.0,-1.0,4.0,-1.0,0.0,0.0,1651024694624624.0
-5.0,14.0,-3.0,-1.0,5.0,2.0,-2.0,-1.0,1651024694624624.0
-5.0,-4.0,-2.0,-1.0,-3.0,-1.0,-2.0,-1.0,1651024694625577.0
1.0,-8.0,-1.0,2.0,2.0,2.0,0.0,1.0,1651024694625577.0
0.0,9.0,3.0,-1.0,-3.0,-3.0,-1.0,-1.0,1651024694638550.0
3.0,-14.0,-4.0,-1.0,4.0,1.0,-1.0,-3.0,1651024694638550.0
0.0,8.0,4.0,0.0,-2.0,-2.0,0.0,-1.0,1651024694647496.0
-2.0,-3.0,-3.0,0.0,-3.0,-3.0,0.0,1.0,1651024694647496.0
-6.0,-12.0,1.0,2.0,-2.0,1.0,-2.0,-1.0,1651024694661463.0
-4.0,-22.0,-3.0,1.0,6.0,0.0,1.0,-1.0,1651024694661463.0
5.0,-2.0,0.0,1.0,-1.0,1.0,1.0,3.0,1651024694663453.0
-4.0,-46.0,-10.0,-4.0,-9.0,-3.0,-3.0,-3.0,1651024694663453.0
1.0,15.0,4.0,-2.0,7.0,1.0,-1.0,0.0,1651024694684468.0
0.0,1.0,5.0,4.0,10.0,6.0,-1.0,-1.0,1651024694684468.0
0.0,-4.0,0.0,1.0,-6.0,-5.0,0.0,0.0,1651024694686314.0
0.0,8.0,-2.0,-1.0,0.0,1.0,0.0,-1.0,1651024694686314.0
-1.0,-30.0,-9.0,-4.0,-1.0,-2.0,1.0,0.0,1651024694706985.0
-2.0,-17.0,-5.0,-1.0,-2.0,-4.0,1.0,0.0,1651024694706985.0
0.0,13.0,2.0,0.0,2.0,2.0,-2.0,-1.0,1651024694708941.0
0.0,4.0,3.0,-4.0,-24.0,-7.0,-3.0,-2.0,1651024694708941.0
4.0,1.0,-3.0,1.0,26.0,5.0,0.0,1.0,1651024694722498.0
-5.0,-18.0,1.0,3.0,4.0,2.0,0.0,0.0,1651024694722498.0
-1.0,-2.0,0.0,0.0,-9.0,-2.0,0.0,1.0,1651024694723498.0
-3.0,-2.0,0.0,-1.0,2.0,0.0,0.0,-1.0,1651024694723498.0
4.0,20.0,5.0,-1.0,-12.0,0.0,0.0,0.0,1651024694744903.0
0.0,-21.0,-6.0,-4.0,-1.0,1.0,0.0,1.0,1651024694744903.0
3.0,20.0,-2.0,-4.0,4.0,-2.0,-4.0,-2.0,1651024694745903.0
1.0,3.0,3.0,1.0,2.0,0.0,0.0,0.0,1651024694745903.0
1.0,13.0,2.0,0.0,-3.0,-1.0,-1.0,1.0,1651024694766915.0
0.0,7.0,1.0,1.0,0.0,-4.0,-1.0,-1.0,1651024694766915.0
-4.0,-10.0,-2.0,1.0,-1.0,0.0,0.0,-1.0,1651024694768842.0
4.0,22.0,6.0,1.0,6.0,0.0,0.0,1.0,1651024694768842.0
-3.0,-13.0,-4.0,-1.0,-3.0,-1.0,-3.0,-3.0,1651024694781808.0
1.0,33.0,1.0,-1.0,-3.0,-1.0,0.0,-1.0,1651024694781808.0
-10.0,-5.0,-1.0,-3.0,-5.0,-3.0,-1.0,-4.0,1651024694783830.0
2.0,4.0,1.0,2.0,7.0,1.0,-1.0,-1.0,1651024694783830.0
1.0,10.0,1.0,1.0,-1.0,-2.0,-1.0,1.0,1651024694804901.0
-4.0,-3.0,-4.0,-2.0,-7.0,-5.0,-1.0,-2.0,1651024694804901.0
3.0,10.0,-2.0,-1.0,3.0,4.0,1.0,0.0,1651024694805841.0
-2.0,-2.0,-1.0,-1.0,1.0,3.0,0.0,-1.0,1651024694805841.0
-1.0,5.0,1.0,0.0,10.0,-1.0,-1.0,-1.0,1651024694826785.0
3.0,-5.0,1.0,-1.0,0.0,3.0,0.0,1.0,1651024694826785.0
1.0,3.0,0.0,-1.0,-6.0,-3.0,-1.0,0.0,1651024694828779.0
6.0,30.0,5.0,0.0,-2.0,0.0,-2.0,0.0,1651024694828779.0
-7.0,-25.0,-2.0,-2.0,-7.0,-3.0,-2.0,-3.0,1651024694841753.0
2.0,2.0,-1.0,-1.0,-9.0,-3.0,-1.0,0.0,1651024694841753.0
-1.0,-2.0,0.0,0.0,16.0,3.0,0.0,0.0,1651024694847757.0
1.0,2.0,6.0,0.0,2.0,0.0,0.0,0.0,1651024694847757.0
4.0,5.0,-5.0,0.0,-6.0,-3.0,0.0,2.0,1651024694864683.0
-7.0,-25.0,-1.0,-2.0,0.0,-1.0,-1.0,-3.0,1651024694864683.0
4.0,-8.0,-2.0,0.0,-9.0,-1.0,1.0,1.0,1651024694865693.0
1.0,11.0,-1.0,-1.0,-3.0,-4.0,-1.0,1.0,1651024694865693.0
-1.0,1.0,-1.0,-2.0,3.0,1.0,0.0,0.0,1651024694886985.0
2.0,5.0,1.0,1.0,3.0,2.0,1.0,2.0,1651024694886985.0
0.0,-1.0,2.0,-4.0,-1.0,0.0,-1.0,-1.0,1651024694888942.0
-4.0,-14.0,0.0,6.0,4.0,0.0,-2.0,-1.0,1651024694888942.0
0.0,-12.0,2.0,2.0,-6.0,-1.0,0.0,1.0,1651024694900951.0
4.0,22.0,1.0,-5.0,-6.0,-5.0,-3.0,-1.0,1651024694900951.0
-1.0,3.0,-2.0,-8.0,-16.0,-1.0,-1.0,0.0,1651024694907929.0
-1.0,-12.0,-11.0,-1.0,21.0,4.0,-1.0,-1.0,1651024694907929.0
-2.0,4.0,6.0,13.0,-1.0,2.0,-1.0,2.0,1651024694924865.0
3.0,5.0,-4.0,1.0,6.0,1.0,1.0,0.0,1651024694924865.0
-3.0,-11.0,4.0,0.0,-2.0,-4.0,1.0,-1.0,1651024694925900.0
-2.0,-13.0,-14.0,-19.0,-26.0,-9.0,-2.0,-4.0,1651024694925900.0
-4.0,3.0,-15.0,-12.0,8.0,5.0,-1.0,-3.0,1651024694946895.0
-6.0,-6.0,1.0,15.0,2.0,2.0,-1.0,-2.0,1651024694946895.0
3.0,4.0,4.0,5.0,5.0,1.0,2.0,2.0,1651024694948890.0
-11.0,-81.0,-2.0,17.0,5.0,2.0,3.0,0.0,1651024694948890.0
6.0,10.0,6.0,-4.0,-3.0,-2.0,-1.0,1.0,1651024694961004.0
1.0,4.0,-15.0,-17.0,-6.0,1.0,-1.0,0.0,1651024694961004.0
-2.0,1.0,1.0,1.0,1.0,-1.0,-3.0,-3.0,1651024694967949.0
1.0,17.0,6.0,-2.0,0.0,0.0,-1.0,1.0,1651024694967949.0
-14.0,-7.0,-7.0,-5.0,-8.0,-2.0,1.0,-4.0,1651024694983926.0
-3.0,-24.0,0.0,-5.0,-8.0,-3.0,0.0,-1.0,1651024694983926.0
0.0,-1.0,1.0,9.0,15.0,4.0,1.0,1.0,1651024694990970.0
-1.0,10.0,0.0,1.0,7.0,2.0,-1.0,-1.0,1651024694990970.0
5.0,8.0,2.0,1.0,-27.0,-7.0,-1.0,0.0,1651024695007381.0
1.0,15.0,9.0,10.0,28.0,9.0,1.0,-1.0,1651024695007381.0
-3.0,2.0,22.0,7.0,-3.0,0.0,-1.0,0.0,1651024695008896.0
5.0,8.0,-34.0,-15.0,-23.0,-9.0,0.0,2.0,1651024695008896.0
-3.0,-6.0,-2.0,-11.0,13.0,5.0,-1.0,-4.0,1651024695021834.0
0.0,-2.0,-4.0,-21.0,-26.0,-10.0,-3.0,0.0,1651024695021834.0
3.0,3.0,0.0,-6.0,6.0,-3.0,-2.0,-4.0,1651024695027926.0
0.0,5.0,19.0,-10.0,-2.0,5.0,2.0,1.0,1651024695027926.0
5.0,9.0,13.0,40.0,28.0,7.0,4.0,4.0,1651024695044989.0
3.0,-1.0,-7.0,16.0,11.0,5.0,6.0,4.0,1651024695044989.0
-11.0,-19.0,-35.0,-63.0,-19.0,-6.0,-11.0,-10.0,1651024695045986.0
-3.0,5.0,23.0,29.0,-3.0,-2.0,-3.0,-4.0,1651024695045986.0
3.0,2.0,-6.0,-4.0,-3.0,-2.0,6.0,3.0,1651024695067026.0
4.0,22.0,37.0,22.0,11.0,2.0,-9.0,-3.0,1651024695067026.0
1.0,-4.0,-4.0,17.0,7.0,1.0,3.0,3.0,1651024695069014.0
5.0,6.0,-19.0,-29.0,-10.0,-7.0,5.0,6.0,1651024695069014.0
-4.0,-4.0,10.0,-6.0,-10.0,-12.0,-41.0,-16.0,1651024695080983.0
7.0,4.0,-13.0,-23.0,-4.0,15.0,33.0,18.0,1651024695080983.0
6.0,-1.0,-39.0,-32.0,-8.0,1.0,8.0,5.0,1651024695088028.0
-18.0,0.0,-3.0,-30.0,-6.0,-14.0,-7.0,-7.0,1651024695088028.0
3.0,7.0,8.0,-8.0,-7.0,11.0,-1.0,1.0,1651024695104866.0
-6.0,2.0,26.0,35.0,3.0,-9.0,-9.0,-12.0,1651024695104866.0
0.0,-17.0,25.0,75.0,13.0,2.0,-32.0,-8.0,1651024695105866.0
7.0,10.0,-19.0,-71.0,-4.0,5.0,8.0,7.0,1651024695105866.0
-2.0,-3.0,12.0,39.0,13.0,-2.0,2.0,0.0,1651024695126969.0
-24.0,-20.0,-41.0,27.0,14.0,-20.0,-3.0,-6.0,1651024695126969.0
-2.0,-3.0,12.0,-36.0,-7.0,17.0,10.0,4.0,1651024695128923.0
6.0,11.0,12.0,9.0,-3.0,-36.0,-33.0,-12.0,1651024695128923.0
8.0,1.0,-4.0,-3.0,-10.0,6.0,35.0,15.0,1651024695140933.0
1.0,8.0,-2.0,10.0,11.0,62.0,1.0,-1.0,1651024695140933.0
-14.0,-3.0,-6.0,24.0,4.0,-1.0,3.0,0.0,1651024695149841.0
8.0,20.0,8.0,0.0,-2.0,3.0,9.0,3.0,1651024695149841.0
-1.0,2.0,-13.0,-24.0,-5.0,0.0,-13.0,-14.0,1651024695164828.0
11.0,15.0,18.0,-5.0,-12.0,-30.0,10.0,11.0,1651024695164828.0
-2.0,-1.0,2.0,12.0,5.0,-3.0,16.0,12.0,1651024695165798.0
-8.0,-19.0,-21.0,-3.0,8.0,1.0,-17.0,-11.0,1651024695165798.0
5.0,3.0,-44.0,-17.0,-7.0,0.0,46.0,23.0,1651024695194683.0
-14.0,-25.0,31.0,-3.0,-15.0,-13.0,-24.0,-18.0,1651024695194683.0
11.0,20.0,17.0,-14.0,-3.0,-3.0,-20.0,-9.0,1651024695195735.0
2.0,5.0,1.0,31.0,3.0,-6.0,14.0,5.0,1651024695195735.0
-8.0,-10.0,2.0,15.0,3.0,0.0,-57.0,-25.0,1651024695200123.0
-1.0,-10.0,-30.0,-45.0,-7.0,19.0,13.0,6.0,1651024695200123.0
3.0,-2.0,-19.0,-20.0,-6.0,-13.0,8.0,7.0,1651024695210104.0
-8.0,-1.0,43.0,34.0,2.0,0.0,1.0,-9.0,1651024695210104.0
4.0,-5.0,-24.0,-33.0,-9.0,-17.0,3.0,3.0,1651024695225056.0
4.0,21.0,16.0,-3.0,4.0,1.0,-18.0,-7.0,1651024695225056.0
6.0,14.0,22.0,28.0,3.0,-11.0,4.0,3.0,1651024695226053.0
-4.0,-20.0,-34.0,14.0,20.0,25.0,12.0,5.0,1651024695226053.0
-18.0,-18.0,9.0,-30.0,-12.0,-9.0,-22.0,-18.0,1651024695246896.0
13.0,8.0,13.0,1.0,13.0,0.0,22.0,14.0,1651024695246896.0
-9.0,-11.0,-22.0,-12.0,-9.0,-3.0,8.0,-1.0,1651024695248892.0
7.0,10.0,17.0,16.0,-7.0,-18.0,-22.0,-6.0,1651024695248892.0
3.0,5.0,11.0,7.0,3.0,1.0,30.0,12.0,1651024695260929.0
-12.0,-21.0,-28.0,1.0,-13.0,-9.0,-19.0,-15.0,1651024695260929.0
5.0,12.0,14.0,7.0,12.0,4.0,1.0,-1.0,1651024695269835.0
-6.0,-18.0,-1.0,-28.0,-4.0,8.0,12.0,5.0,1651024695269835.0
-1.0,4.0,8.0,18.0,7.0,0.0,-10.0,-5.0,1651024695284896.0
12.0,5.0,-18.0,-28.0,-20.0,-17.0,4.0,7.0,1651024695284896.0
0.0,-1.0,-21.0,23.0,10.0,13.0,3.0,0.0,1651024695285910.0
-9.0,-1.0,20.0,1.0,-8.0,-21.0,-51.0,-25.0,1651024695285910.0
7.0,1.0,4.0,15.0,8.0,35.0,84.0,38.0,1651024695307893.0
0.0,-10.0,-6.0,2.0,4.0,-7.0,-4.0,4.0,1651024695307893.0
0.0,-2.0,2.0,-30.0,-20.0,-6.0,-5.0,-7.0,1651024695308878.0
7.0,12.0,7.0,16.0,14.0,15.0,-2.0,2.0,1651024695308878.0
11.0,4.0,-3.0,-2.0,7.0,-5.0,10.0,17.0,1651024695320848.0
3.0,7.0,6.0,-1.0,-2.0,5.0,-7.0,-4.0,1651024695320848.0
-7.0,-9.0,-2.0,-3.0,-3.0,-3.0,-9.0,-6.0,1651024695329849.0
-1.0,2.0,-8.0,33.0,10.0,8.0,21.0,7.0,1651024695329849.0
-7.0,-7.0,-14.0,-40.0,-26.0,-40.0,-41.0,-19.0,1651024695352498.0
1.0,-3.0,4.0,-1.0,2.0,31.0,32.0,11.0,1651024695352498.0
0.0,3.0,6.0,6.0,4.0,-2.0,-14.0,-5.0,1651024695353508.0
5.0,19.0,10.0,11.0,18.0,10.0,-30.0,-12.0,1651024695353508.0
-6.0,-14.0,-9.0,-33.0,-24.0,-6.0,13.0,6.0,1651024695366472.0
-6.0,-2.0,8.0,37.0,19.0,-11.0,-7.0,-3.0,1651024695366472.0
-8.0,-7.0,0.0,-1.0,-5.0,-2.0,-16.0,-15.0,1651024695373452.0
10.0,8.0,8.0,19.0,10.0,16.0,37.0,23.0,1651024695373452.0
2.0,8.0,11.0,16.0,15.0,6.0,-7.0,-3.0,1651024695380434.0
-3.0,-4.0,-1.0,-13.0,-9.0,-13.0,-18.0,-11.0,1651024695380434.0
-6.0,3.0,-3.0,-22.0,-10.0,-10.0,-15.0,-6.0,1651024695390011.0
4.0,-11.0,-19.0,1.0,1.0,7.0,38.0,18.0,1651024695390011.0
-7.0,-4.0,13.0,9.0,-8.0,-29.0,-55.0,-25.0,1651024695405082.0
6.0,16.0,16.0,-8.0,7.0,0.0,10.0,9.0,1651024695405082.0
-3.0,-19.0,-34.0,-7.0,-2.0,3.0,9.0,4.0,1651024695405978.0
0.0,2.0,13.0,-14.0,-8.0,17.0,8.0,-1.0,1651024695405978.0
-11.0,-27.0,-21.0,-2.0,5.0,22.0,-5.0,-8.0,1651024695426976.0
0.0,16.0,17.0,4.0,5.0,-17.0,-22.0,-7.0,1651024695426976.0
-1.0,1.0,17.0,13.0,1.0,-7.0,9.0,5.0,1651024695428935.0
-2.0,-4.0,-32.0,-29.0,-6.0,-8.0,-13.0,-3.0,1651024695428935.0
0.0,7.0,18.0,30.0,7.0,-7.0,3.0,2.0,1651024695440943.0
5.0,25.0,46.0,8.0,-5.0,4.0,3.0,1.0,1651024695440943.0
-6.0,-14.0,-53.0,10.0,23.0,18.0,14.0,6.0,1651024695456832.0
-3.0,0.0,35.0,-8.0,-17.0,-5.0,-6.0,-6.0,1651024695456832.0
4.0,11.0,-7.0,-12.0,3.0,5.0,-11.0,0.0,1651024695464829.0
1.0,-3.0,-2.0,-23.0,6.0,12.0,33.0,15.0,1651024695464829.0
4.0,0.0,4.0,13.0,1.0,8.0,9.0,5.0,1651024695465875.0
-3.0,-26.0,-49.0,5.0,-2.0,-10.0,-10.0,-6.0,1651024695465875.0
-1.0,10.0,17.0,2.0,-3.0,-19.0,-19.0,-9.0,1651024695486768.0
-2.0,7.0,8.0,10.0,-5.0,16.0,3.0,-3.0,1651024695486768.0
-8.0,-19.0,-8.0,-25.0,-13.0,-1.0,-32.0,-18.0,1651024695488771.0
2.0,4.0,1.0,7.0,7.0,8.0,-1.0,-1.0,1651024695488771.0
-10.0,1.0,5.0,2.0,7.0,8.0,33.0,13.0,1651024695500717.0
-1.0,-3.0,-25.0,-8.0,-1.0,0.0,-7.0,-6.0,1651024695500717.0
-1.0,9.0,23.0,5.0,-7.0,-17.0,7.0,0.0,1651024695509692.0
-8.0,-10.0,-19.0,1.0,-8.0,-1.0,-8.0,-7.0,1651024695509692.0
8.0,8.0,5.0,2.0,9.0,4.0,-6.0,-1.0,1651024695524991.0
1.0,1.0,-19.0,-13.0,-6.0,-15.0,-9.0,-2.0,1651024695524991.0
11.0,11.0,4.0,-29.0,4.0,21.0,40.0,21.0,1651024695525897.0
-3.0,2.0,37.0,39.0,11.0,-1.0,1.0,2.0,1651024695525897.0
2.0,-3.0,-11.0,2.0,-1.0,2.0,14.0,4.0,1651024695546966.0
-13.0,-22.0,-24.0,-6.0,-11.0,-16.0,-14.0,-8.0,1651024695546966.0
9.0,15.0,16.0,0.0,-2.0,2.0,-5.0,1.0,1651024695548894.0
-3.0,-5.0,-22.0,-42.0,-17.0,-6.0,0.0,-2.0,1651024695548894.0
1.0,-4.0,-6.0,9.0,3.0,-3.0,-39.0,-14.0,1651024695560928.0
-8.0,-13.0,-12.0,7.0,-9.0,-8.0,1.0,-2.0,1651024695560928.0
4.0,18.0,16.0,-12.0,-13.0,-36.0,-19.0,-4.0,1651024695569838.0
-10.0,-20.0,-23.0,-20.0,-1.0,21.0,9.0,-3.0,1651024695569838.0
1.0,3.0,6.0,20.0,8.0,14.0,5.0,-1.0,1651024695584799.0
3.0,7.0,2.0,-20.0,-9.0,-4.0,-9.0,-2.0,1651024695584799.0
-8.0,-9.0,-1.0,10.0,7.0,15.0,12.0,0.0,1651024695585906.0
7.0,25.0,18.0,10.0,0.0,-26.0,-23.0,-3.0,1651024695585906.0
-1.0,-23.0,-31.0,-20.0,-6.0,2.0,12.0,2.0,1651024695606959.0
3.0,-5.0,-8.0,-7.0,-1.0,11.0,19.0,9.0,1651024695606959.0
-1.0,1.0,17.0,17.0,9.0,-11.0,-6.0,-3.0,1651024695608892.0
0.0,8.0,33.0,33.0,12.0,7.0,-3.0,-3.0,1651024695608892.0
0.0,3.0,-25.0,-36.0,-6.0,7.0,2.0,2.0,1651024695620871.0
0.0,3.0,20.0,44.0,18.0,-7.0,-19.0,-9.0,1651024695620871.0
4.0,-1.0,0.0,11.0,-1.0,1.0,2.0,6.0,1651024695635979.0
-4.0,2.0,-13.0,-27.0,-13.0,-3.0,7.0,4.0,1651024695635979.0
5.0,-17.0,8.0,2.0,9.0,1.0,13.0,7.0,1651024695644918.0
-15.0,-9.0,-2.0,0.0,4.0,0.0,-6.0,-9.0,1651024695644918.0
-1.0,11.0,1.0,-4.0,-11.0,-4.0,-37.0,-18.0,1651024695645923.0
7.0,7.0,-3.0,-2.0,-4.0,4.0,36.0,17.0,1651024695645923.0
-4.0,-4.0,17.0,-1.0,8.0,-10.0,-13.0,-7.0,1651024695666984.0
10.0,2.0,-10.0,16.0,11.0,-14.0,3.0,10.0,1651024695666984.0
3.0,3.0,4.0,7.0,13.0,51.0,17.0,2.0,1651024695668937.0
-12.0,1.0,-3.0,-12.0,-13.0,-13.0,0.0,-4.0,1651024695668937.0
-3.0,2.0,-5.0,-5.0,-16.0,-8.0,3.0,5.0,1651024695689819.0
1.0,-6.0,-11.0,-6.0,6.0,12.0,-7.0,-3.0,1651024695689819.0
2.0,6.0,2.0,6.0,-2.0,-16.0,38.0,18.0,1651024695696783.0
-3.0,-8.0,6.0,-1.0,-3.0,-12.0,-14.0,-4.0,1651024695696783.0
-3.0,10.0,25.0,4.0,-16.0,-10.0,-23.0,-12.0,1651024695704776.0
10.0,20.0,-6.0,14.0,26.0,24.0,43.0,23.0,1651024695704776.0
-5.0,-29.0,-35.0,-36.0,-16.0,-9.0,-9.0,-6.0,1651024695705829.0
4.0,0.0,12.0,9.0,17.0,8.0,1.0,-1.0,1651024695705829.0
-4.0,-12.0,-10.0,35.0,6.0,-8.0,-15.0,-8.0,1651024695725936.0
-6.0,-7.0,-4.0,-49.0,-41.0,-18.0,-8.0,-9.0,1651024695725936.0
3.0,8.0,25.0,59.0,25.0,11.0,-15.0,-3.0,1651024695734715.0
3.0,-10.0,-24.0,-23.0,-7.0,-8.0,15.0,6.0,1651024695734715.0
-3.0,15.0,10.0,-2.0,-3.0,0.0,1.0,-2.0,1651024695749766.0
4.0,-11.0,-1.0,5.0,6.0,9.0,-8.0,3.0,1651024695749766.0
-2.0,-4.0,-9.0,-19.0,-5.0,-7.0,4.0,2.0,1651024695750700.0
-10.0,-13.0,-9.0,-14.0,-11.0,-6.0,-19.0,-15.0,1651024695750700.0
4.0,10.0,4.0,4.0,-10.0,1.0,26.0,7.0,1651024695763730.0
-1.0,8.0,10.0,3.0,2.0,3.0,-29.0,-10.0,1651024695763730.0
-3.0,-18.0,-26.0,-14.0,4.0,-14.0,-5.0,-3.0,1651024695771750.0
6.0,-4.0,-3.0,-4.0,-10.0,-3.0,-9.0,-1.0,1651024695771750.0
-6.0,0.0,2.0,15.0,20.0,12.0,-12.0,-10.0,1651024695786099.0
3.0,-1.0,1.0,-26.0,-14.0,-7.0,10.0,5.0,1651024695786099.0
0.0,6.0,6.0,-34.0,-19.0,-10.0,-8.0,-4.0,1651024695787028.0
10.0,13.0,30.0,92.0,40.0,16.0,10.0,2.0,1651024695787028.0
7.0,-3.0,-7.0,-19.0,-13.0,1.0,6.0,8.0,1651024695808995.0
-4.0,-2.0,10.0,17.0,2.0,-2.0,2.0,-3.0,1651024695808995.0
-7.0,-13.0,-31.0,-26.0,-5.0,1.0,-10.0,-6.0,1651024695809956.0
-1.0,-10.0,-14.0,-32.0,-13.0,-5.0,7.0,3.0,1651024695809956.0
0.0,6.0,10.0,-2.0,-1.0,-1.0,7.0,4.0,1651024695822903.0
2.0,4.0,-3.0,6.0,7.0,12.0,14.0,4.0,1651024695822903.0
2.0,9.0,9.0,0.0,-3.0,-1.0,-4.0,-4.0,1651024695830874.0
3.0,-13.0,-19.0,-10.0,-6.0,-17.0,-24.0,-8.0,1651024695830874.0
7.0,7.0,4.0,9.0,9.0,29.0,23.0,17.0,1651024695854073.0
-5.0,-6.0,-6.0,-12.0,-6.0,-10.0,-29.0,-16.0,1651024695854073.0
0.0,2.0,22.0,7.0,-1.0,2.0,51.0,24.0,1651024695855155.0
4.0,1.0,-24.0,-22.0,-4.0,14.0,8.0,4.0,1651024695855155.0
7.0,28.0,40.0,51.0,12.0,-8.0,-5.0,3.0,1651024695868901.0
-2.0,-4.0,-27.0,-16.0,10.0,5.0,-23.0,-9.0,1651024695868901.0
1.0,-13.0,3.0,22.0,-2.0,1.0,-3.0,-1.0,1651024695869860.0
-3.0,3.0,15.0,-3.0,4.0,-4.0,4.0,2.0,1651024695869860.0
-4.0,-12.0,-15.0,-16.0,-3.0,-5.0,-8.0,-9.0,1651024695882864.0
1.0,3.0,9.0,4.0,-1.0,-3.0,-9.0,-1.0,1651024695882864.0
1.0,13.0,-2.0,13.0,6.0,-4.0,-7.0,-1.0,1651024695891347.0
-1.0,14.0,7.0,-15.0,-5.0,11.0,30.0,9.0,1651024695891347.0
-10.0,-11.0,-2.0,-19.0,-18.0,-12.0,0.0,-4.0,1651024695906757.0
-3.0,-9.0,-5.0,5.0,-6.0,-9.0,-7.0,-4.0,1651024695906757.0
4.0,8.0,11.0,-3.0,0.0,-12.0,16.0,9.0,1651024695906757.0
-2.0,-1.0,12.0,7.0,9.0,31.0,3.0,3.0,1651024695906757.0
5.0,4.0,-11.0,0.0,13.0,8.0,-13.0,-8.0,1651024695929029.0
-3.0,-14.0,-14.0,-34.0,-26.0,-27.0,30.0,12.0,1651024695929029.0
-2.0,1.0,-1.0,17.0,0.0,3.0,-18.0,-10.0,1651024695929972.0
-1.0,-3.0,10.0,-10.0,1.0,-7.0,-11.0,-4.0,1651024695929972.0
-1.0,-2.0,11.0,37.0,22.0,-4.0,-11.0,-4.0,1651024695942926.0
0.0,-8.0,-21.0,-5.0,-3.0,8.0,10.0,4.0,1651024695942926.0
1.0,4.0,-5.0,-6.0,-6.0,-10.0,-21.0,-8.0,1651024695950973.0
1.0,7.0,25.0,15.0,-5.0,-4.0,13.0,3.0,1651024695950973.0
-6.0,-15.0,-20.0,-24.0,-14.0,-2.0,-12.0,-3.0,1651024695966551.0
-4.0,-10.0,-16.0,-1.0,9.0,-1.0,6.0,-2.0,1651024695966551.0
-1.0,2.0,10.0,4.0,5.0,10.0,14.0,4.0,1651024695973548.0
4.0,5.0,-23.0,-10.0,-5.0,-10.0,-7.0,0.0,1651024695973548.0
-4.0,-7.0,-9.0,-17.0,-12.0,-3.0,-5.0,-3.0,1651024695988561.0
-4.0,-1.0,5.0,8.0,-3.0,-1.0,6.0,-4.0,1651024695988561.0
0.0,3.0,2.0,-12.0,1.0,6.0,-4.0,-2.0,1651024695989492.0
-2.0,-7.0,1.0,9.0,7.0,1.0,-6.0,2.0,1651024695989492.0
0.0,-1.0,-13.0,-8.0,2.0,-6.0,-10.0,-8.0,1651024696003460.0
1.0,0.0,-3.0,-5.0,-6.0,-3.0,5.0,2.0,1651024696003460.0
0.0,8.0,19.0,4.0,-6.0,-7.0,-3.0,-3.0,1651024696011495.0
-1.0,-13.0,-8.0,-9.0,-17.0,-15.0,1.0,0.0,1651024696011495.0
8.0,17.0,-15.0,-24.0,15.0,10.0,11.0,7.0,1651024696026161.0
0.0,-7.0,16.0,41.0,11.0,4.0,-5.0,3.0,1651024696026161.0
-2.0,0.0,-1.0,-5.0,-9.0,5.0,1.0,-3.0,1651024696027091.0
-4.0,-5.0,-13.0,-5.0,4.0,-7.0,-32.0,-16.0,1651024696027091.0
2.0,6.0,19.0,7.0,-7.0,-3.0,6.0,1.0,1651024696049257.0
2.0,8.0,16.0,-8.0,-11.0,4.0,9.0,2.0,1651024696049257.0
-2.0,-9.0,-10.0,2.0,0.0,-6.0,-5.0,-4.0,1651024696049257.0
3.0,7.0,1.0,10.0,13.0,5.0,7.0,6.0,1651024696049257.0
0.0,6.0,-3.0,0.0,3.0,0.0,5.0,1.0,1651024696063400.0
2.0,1.0,-10.0,-17.0,3.0,-3.0,-7.0,2.0,1651024696063400.0
-4.0,-9.0,20.0,46.0,1.0,-1.0,5.0,5.0,1651024696071381.0
-2.0,-9.0,-25.0,-18.0,7.0,14.0,12.0,3.0,1651024696071381.0
-4.0,-4.0,2.0,1.0,-5.0,-5.0,6.0,1.0,1651024696086804.0
-1.0,6.0,4.0,-4.0,-10.0,-11.0,-12.0,-5.0,1651024696086804.0
-3.0,-1.0,-5.0,-10.0,0.0,1.0,-7.0,0.0,1651024696086804.0
3.0,6.0,0.0,2.0,14.0,37.0,18.0,2.0,1651024696086804.0
-3.0,-6.0,-8.0,4.0,-1.0,-7.0,1.0,-1.0,1651024696108957.0
0.0,0.0,10.0,4.0,-1.0,5.0,-7.0,-3.0,1651024696108957.0
3.0,8.0,-4.0,-15.0,-4.0,-7.0,5.0,1.0,1651024696109914.0
-4.0,0.0,1.0,-2.0,-14.0,-16.0,-9.0,-2.0,1651024696109914.0
0.0,-9.0,1.0,-2.0,-2.0,4.0,6.0,3.0,1651024696122860.0
-1.0,7.0,13.0,12.0,17.0,-3.0,-16.0,-10.0,1651024696122860.0
0.0,-6.0,-19.0,-6.0,-4.0,1.0,-10.0,-1.0,1651024696130903.0
12.0,25.0,37.0,33.0,26.0,13.0,39.0,23.0,1651024696130903.0
-11.0,-39.0,-37.0,-33.0,-14.0,-3.0,3.0,-4.0,1651024696146392.0
-3.0,2.0,1.0,1.0,-11.0,-12.0,-11.0,-7.0,1651024696146392.0
3.0,11.0,5.0,-3.0,8.0,16.0,-5.0,-2.0,1651024696147316.0
-3.0,-1.0,1.0,-9.0,-21.0,-12.0,-20.0,-11.0,1651024696147316.0
2.0,9.0,11.0,17.0,0.0,1.0,-5.0,-1.0,1651024696168937.0
-2.0,-13.0,-25.0,-11.0,12.0,3.0,11.0,2.0,1651024696168937.0
1.0,7.0,14.0,-2.0,-3.0,-1.0,-1.0,-3.0,1651024696169880.0
-4.0,-10.0,-12.0,-4.0,-5.0,-16.0,-18.0,-7.0,1651024696169880.0
1.0,8.0,11.0,1.0,8.0,10.0,10.0,5.0,1651024696182836.0
-2.0,-14.0,-11.0,1.0,-11.0,-1.0,1.0,-3.0,1651024696182836.0
8.0,3.0,-5.0,-3.0,1.0,20.0,10.0,9.0,1651024696191823.0
-5.0,1.0,6.0,2.0,7.0,-7.0,-13.0,-6.0,1651024696191823.0
0.0,4.0,5.0,4.0,-7.0,7.0,2.0,-1.0,1651024696205984.0
0.0,0.0,-5.0,-3.0,12.0,-9.0,-20.0,-7.0,1651024696205984.0
0.0,-2.0,-6.0,-11.0,-1.0,6.0,13.0,-1.0,1651024696206919.0
-1.0,1.0,3.0,20.0,-6.0,-7.0,3.0,0.0,1651024696206919.0
-3.0,-7.0,-9.0,-20.0,-5.0,-6.0,0.0,2.0,1651024696229021.0
3.0,13.0,13.0,11.0,0.0,3.0,5.0,3.0,1651024696229021.0
0.0,3.0,12.0,9.0,3.0,-21.0,-13.0,-9.0,1651024696229977.0
-5.0,-13.0,-23.0,-22.0,-6.0,6.0,-3.0,-1.0,1651024696229977.0
0.0,3.0,6.0,7.0,-5.0,-24.0,3.0,0.0,1651024696243380.0
0.0,1.0,2.0,-6.0,7.0,45.0,5.0,3.0,1651024696243380.0
-2.0,-2.0,-4.0,-1.0,-2.0,-2.0,3.0,1.0,1651024696259343.0
-1.0,-2.0,4.0,11.0,11.0,2.0,1.0,0.0,1651024696259343.0
0.0,0.0,5.0,-4.0,0.0,-11.0,-9.0,-2.0,1651024696266371.0
-1.0,-7.0,-13.0,-7.0,-16.0,4.0,11.0,3.0,1651024696266371.0
-2.0,-1.0,3.0,1.0,5.0,-12.0,-7.0,-3.0,1651024696267398.0
-2.0,2.0,-2.0,-4.0,0.0,15.0,3.0,-3.0,1651024696267398.0
0.0,-2.0,-2.0,-5.0,-8.0,-13.0,-6.0,-3.0,1651024696289318.0
-3.0,2.0,8.0,-1.0,-15.0,-20.0,-4.0,-3.0,1651024696289318.0
-2.0,-3.0,-6.0,4.0,17.0,17.0,4.0,1.0,1651024696289318.0
-2.0,-3.0,-3.0,-5.0,-12.0,-17.0,-2.0,-6.0,1651024696289318.0
-2.0,1.0,1.0,3.0,6.0,16.0,4.0,2.0,1651024696304271.0
0.0,0.0,0.0,8.0,0.0,19.0,10.0,5.0,1651024696304271.0
-2.0,-5.0,-11.0,-7.0,-6.0,-14.0,-10.0,-3.0,1651024696311322.0
-1.0,-2.0,0.0,-2.0,7.0,-5.0,-4.0,-2.0,1651024696311322.0
2.0,8.0,-3.0,0.0,-17.0,-5.0,8.0,-2.0,1651024696326241.0
1.0,-5.0,-1.0,1.0,10.0,-11.0,-11.0,-4.0,1651024696326241.0
-7.0,-8.0,-10.0,-6.0,-10.0,-4.0,-1.0,0.0,1651024696327223.0
3.0,4.0,11.0,1.0,2.0,-4.0,-4.0,-2.0,1651024696327223.0
2.0,6.0,2.0,5.0,8.0,9.0,1.0,0.0,1651024696349153.0
-6.0,-2.0,-2.0,0.0,7.0,-4.0,5.0,0.0,1651024696349153.0
-2.0,-6.0,-1.0,3.0,5.0,7.0,5.0,2.0,1651024696349153.0
-2.0,-1.0,2.0,2.0,-12.0,-7.0,-3.0,-1.0,1651024696349153.0
5.0,-1.0,-12.0,-12.0,-6.0,3.0,-4.0,4.0,1651024696363364.0
1.0,0.0,-2.0,-4.0,3.0,4.0,3.0,-6.0,1651024696363364.0
3.0,1.0,2.0,5.0,0.0,-1.0,-2.0,3.0,1651024696371274.0
-1.0,2.0,1.0,-1.0,-3.0,0.0,2.0,1.0,1651024696371274.0
-2.0,-2.0,2.0,-2.0,8.0,7.0,-2.0,1.0,1651024696386267.0
-1.0,5.0,13.0,10.0,3.0,1.0,4.0,-1.0,1651024696386267.0
1.0,-1.0,-6.0,0.0,6.0,-8.0,0.0,-2.0,1651024696387239.0
1.0,-1.0,-1.0,3.0,6.0,8.0,0.0,3.0,1651024696387239.0
0.0,-6.0,-6.0,-2.0,-1.0,2.0,-2.0,-1.0,1651024696409061.0
-1.0,4.0,8.0,0.0,-8.0,-7.0,0.0,-1.0,1651024696409061.0
0.0,7.0,12.0,1.0,-4.0,0.0,-2.0,-2.0,1651024696409996.0
1.0,-12.0,-28.0,-12.0,-5.0,-2.0,-2.0,-4.0,1651024696409996.0
-6.0,-7.0,-1.0,1.0,3.0,2.0,0.0,0.0,1651024696423333.0
2.0,2.0,6.0,0.0,-9.0,-6.0,2.0,2.0,1651024696423333.0
-5.0,-7.0,-14.0,-8.0,-14.0,-1.0,0.0,-2.0,1651024696431829.0
3.0,7.0,1.0,2.0,15.0,3.0,-1.0,0.0,1651024696431829.0
0.0,5.0,4.0,4.0,-1.0,1.0,-1.0,-1.0,1651024696446817.0
1.0,-1.0,-3.0,-2.0,0.0,-3.0,3.0,3.0,1651024696446817.0
-1.0,1.0,19.0,10.0,5.0,4.0,1.0,-1.0,1651024696446817.0
-3.0,-1.0,-8.0,0.0,-5.0,-6.0,-3.0,0.0,1651024696446817.0
3.0,4.0,7.0,-6.0,3.0,1.0,-3.0,-3.0,1651024696468817.0
0.0,2.0,10.0,9.0,-10.0,-6.0,-3.0,0.0,1651024696468817.0
-4.0,-20.0,-48.0,-26.0,-12.0,-2.0,0.0,-4.0,1651024696469775.0
-3.0,1.0,9.0,3.0,-6.0,-9.0,-1.0,1.0,1651024696469775.0
3.0,13.0,11.0,13.0,23.0,11.0,3.0,11.0,1651024696482742.0
-2.0,2.0,-20.0,-15.0,-6.0,1.0,1.0,-2.0,1651024696482742.0
2.0,7.0,17.0,10.0,-1.0,-2.0,1.0,0.0,1651024696491702.0
-1.0,-20.0,5.0,2.0,-4.0,-2.0,-3.0,-1.0,1651024696491702.0
6.0,24.0,4.0,-2.0,-8.0,-5.0,0.0,-1.0,1651024696505921.0
5.0,-11.0,-4.0,2.0,4.0,0.0,0.0,4.0,1651024696505921.0
-9.0,31.0,-3.0,-5.0,1.0,-1.0,-2.0,-3.0,1651024696506918.0
-6.0,-14.0,11.0,2.0,0.0,0.0,0.0,-1.0,1651024696506918.0
2.0,-8.0,-13.0,-5.0,-2.0,2.0,-1.0,-2.0,1651024696528320.0
6.0,6.0,5.0,2.0,3.0,1.0,2.0,1.0,1651024696528320.0
-6.0,-17.0,16.0,7.0,0.0,-1.0,1.0,-2.0,1651024696536299.0
6.0,25.0,29.0,9.0,-4.0,-6.0,0.0,3.0,1651024696536299.0
-7.0,-15.0,-61.0,-22.0,-8.0,2.0,-2.0,-5.0,1651024696543290.0
-7.0,-36.0,-24.0,-13.0,3.0,0.0,-3.0,-2.0,1651024696543290.0
7.0,-1.0,5.0,6.0,19.0,4.0,-1.0,2.0,1651024696551340.0
4.0,5.0,13.0,1.0,-8.0,1.0,0.0,0.0,1651024696551340.0
-5.0,1.0,23.0,8.0,-4.0,-9.0,-1.0,-3.0,1651024696566333.0
10.0,25.0,0.0,0.0,3.0,2.0,1.0,5.0,1651024696566333.0
-10.0,-25.0,-6.0,-6.0,-12.0,-8.0,-5.0,-6.0,1651024696567351.0
-5.0,-3.0,-8.0,1.0,7.0,3.0,-2.0,-3.0,1651024696567351.0
7.0,8.0,-4.0,-1.0,2.0,2.0,1.0,1.0,1651024696589266.0
-9.0,-8.0,-2.0,1.0,2.0,-3.0,-2.0,-3.0,1651024696589266.0
5.0,-13.0,3.0,5.0,5.0,2.0,2.0,5.0,1651024696589266.0
-3.0,13.0,-23.0,-18.0,-14.0,-1.0,-2.0,-5.0,1651024696589266.0
6.0,-12.0,6.0,6.0,19.0,4.0,1.0,3.0,1651024696612261.0
-13.0,-29.0,8.0,7.0,-1.0,-2.0,0.0,-4.0,1651024696612261.0
10.0,3.0,4.0,1.0,-5.0,1.0,2.0,4.0,1651024696613201.0
-6.0,-2.0,11.0,7.0,-1.0,-1.0,-1.0,-1.0,1651024696613201.0
-19.0,-16.0,-53.0,-31.0,-20.0,-8.0,-8.0,-10.0,1651024696626737.0
5.0,31.0,10.0,3.0,5.0,2.0,-1.0,0.0,1651024696626737.0
1.0,-7.0,-7.0,0.0,-5.0,-2.0,3.0,4.0,1651024696626737.0
3.0,-10.0,0.0,-1.0,9.0,5.0,0.0,2.0,1651024696626737.0
-2.0,22.0,28.0,17.0,13.0,0.0,-1.0,-5.0,1651024696648747.0
2.0,-22.0,-8.0,-1.0,-11.0,-3.0,-2.0,1.0,1651024696648747.0
0.0,41.0,2.0,-6.0,-4.0,-1.0,-1.0,-1.0,1651024696649678.0
-6.0,-54.0,-11.0,-2.0,-1.0,0.0,0.0,-2.0,1651024696649678.0
3.0,-1.0,12.0,5.0,-8.0,-1.0,0.0,0.0,1651024696671676.0
-4.0,6.0,-12.0,-5.0,4.0,0.0,3.0,-2.0,1651024696671676.0
10.0,25.0,11.0,6.0,-7.0,-4.0,-2.0,2.0,1651024696672617.0
7.0,34.0,1.0,-2.0,8.0,4.0,2.0,1.0,1651024696672617.0
2.0,-21.0,4.0,4.0,1.0,-1.0,0.0,0.0,1651024696686606.0
-17.0,-12.0,1.0,-6.0,-6.0,-4.0,-7.0,-11.0,1651024696686606.0
-3.0,-8.0,-7.0,-1.0,2.0,1.0,-1.0,-1.0,1651024696686606.0
10.0,58.0,-10.0,-9.0,-1.0,-2.0,2.0,3.0,1651024696686606.0
-15.0,-75.0,-8.0,-2.0,-9.0,-2.0,-5.0,-4.0,1651024696708678.0
-15.0,30.0,6.0,-1.0,-3.0,-3.0,-1.0,-3.0,1651024696708678.0
-7.0,-15.0,-6.0,-1.0,-4.0,-4.0,-2.0,-1.0,1651024696709611.0
0.0,-16.0,-11.0,4.0,8.0,5.0,1.0,0.0,1651024696709611.0
8.0,36.0,-2.0,-6.0,3.0,0.0,1.0,1.0,1651024696739531.0
4.0,-34.0,1.0,3.0,-2.0,1.0,1.0,5.0,1651024696739531.0
-5.0,-10.0,-3.0,-2.0,7.0,1.0,-1.0,-1.0,1651024696740529.0
-5.0,-23.0,-2.0,1.0,-7.0,-2.0,-2.0,2.0,1651024696740529.0
-4.0,22.0,15.0,5.0,-4.0,-1.0,0.0,-1.0,1651024696746543.0
9.0,-6.0,0.0,1.0,6.0,1.0,3.0,4.0,1651024696746543.0
9.0,-18.0,2.0,-2.0,0.0,1.0,1.0,1.0,1651024696746543.0
-10.0,40.0,9.0,10.0,-2.0,-4.0,-6.0,-8.0,1651024696746543.0
-11.0,-9.0,2.0,-1.0,4.0,-2.0,-2.0,-4.0,1651024696768434.0
11.0,26.0,2.0,0.0,-1.0,2.0,-1.0,2.0,1651024696768434.0
-3.0,16.0,4.0,3.0,6.0,2.0,1.0,1.0,1651024696769367.0
-15.0,-49.0,-23.0,-13.0,-2.0,-7.0,-4.0,-4.0,1651024696769367.0
2.0,8.0,3.0,3.0,-5.0,0.0,0.0,2.0,1651024696792374.0
-3.0,-4.0,2.0,1.0,-2.0,-1.0,-1.0,1.0,1651024696792374.0
2.0,7.0,-4.0,-5.0,1.0,1.0,1.0,-1.0,1651024696792374.0
-4.0,-35.0,-15.0,-7.0,-5.0,-3.0,-1.0,-2.0,1651024696792374.0
4.0,32.0,17.0,4.0,-3.0,1.0,0.0,1.0,1651024696806269.0
10.0,20.0,-4.0,0.0,-2.0,-3.0,-2.0,-2.0,1651024696806269.0
-15.0,-7.0,4.0,2.0,2.0,1.0,-3.0,-4.0,1651024696807266.0
1.0,-15.0,-18.0,-6.0,-3.0,0.0,-1.0,1.0,1651024696807266.0
7.0,28.0,12.0,1.0,-4.0,-1.0,-2.0,-2.0,1651024696829207.0
1.0,14.0,2.0,0.0,-3.0,-1.0,2.0,2.0,1651024696829207.0
1.0,5.0,0.0,-5.0,0.0,0.0,-3.0,-4.0,1651024696829207.0
13.0,51.0,12.0,4.0,15.0,2.0,2.0,1.0,1651024696829207.0
-11.0,-40.0,-9.0,3.0,-3.0,-1.0,-1.0,-1.0,1651024696852149.0
0.0,0.0,1.0,0.0,0.0,1.0,0.0,-1.0,1651024696852149.0
-5.0,-25.0,-8.0,-4.0,-8.0,-3.0,0.0,-1.0,1651024696853144.0
17.0,39.0,16.0,-1.0,-5.0,4.0,2.0,3.0,1651024696853144.0
6.0,-46.0,-4.0,8.0,10.0,4.0,1.0,0.0,1651024696866297.0
6.0,50.0,7.0,-2.0,-2.0,-3.0,-3.0,-2.0,1651024696866297.0
1.0,0.0,-6.0,0.0,0.0,-1.0,-1.0,2.0,1651024696867284.0
-3.0,-22.0,0.0,-2.0,-2.0,0.0,-2.0,0.0,1651024696867284.0
6.0,31.0,7.0,-2.0,-3.0,-1.0,-1.0,1.0,1651024696897449.0
-11.0,-16.0,-12.0,0.0,-14.0,-6.0,-3.0,-3.0,1651024696897449.0
3.0,3.0,-3.0,1.0,18.0,3.0,-1.0,-1.0,1651024696897449.0
2.0,7.0,4.0,1.0,-3.0,0.0,-2.0,2.0,1651024696897449.0
4.0,18.0,3.0,1.0,-1.0,0.0,2.0,3.0,1651024696911469.0
-16.0,-47.0,-7.0,-11.0,-4.0,-2.0,-5.0,-3.0,1651024696911469.0
-1.0,6.0,-14.0,3.0,-5.0,-3.0,-1.0,-2.0,1651024696912399.0
-6.0,-20.0,-8.0,-5.0,-9.0,-4.0,1.0,-1.0,1651024696912399.0
-2.0,5.0,5.0,3.0,12.0,0.0,0.0,-1.0,1651024696926539.0
9.0,6.0,-3.0,4.0,9.0,3.0,1.0,3.0,1651024696926539.0
6.0,-1.0,13.0,1.0,-4.0,1.0,4.0,5.0,1651024696933520.0
-14.0,-20.0,-8.0,-5.0,-4.0,-3.0,-3.0,-7.0,1651024696933520.0
0.0,-8.0,1.0,-1.0,-9.0,-2.0,0.0,0.0,1651024696948479.0
0.0,-6.0,4.0,-1.0,0.0,-1.0,0.0,-2.0,1651024696948479.0
-1.0,-8.0,-2.0,-3.0,7.0,1.0,-2.0,-2.0,1651024696949477.0
1.0,21.0,1.0,3.0,2.0,5.0,3.0,3.0,1651024696949477.0
0.0,11.0,1.0,0.0,-1.0,-2.0,0.0,0.0,1651024696971482.0
-1.0,-3.0,1.0,2.0,5.0,2.0,1.0,1.0,1651024696971482.0
7.0,30.0,-1.0,-3.0,-8.0,-6.0,-1.0,0.0,1651024696972437.0
3.0,9.0,4.0,1.0,-1.0,-2.0,1.0,-1.0,1651024696972437.0
-5.0,-10.0,-2.0,-3.0,0.0,0.0,-1.0,-4.0,1651024696986792.0
4.0,-1.0,2.0,-1.0,0.0,1.0,-1.0,0.0,1651024696986792.0
1.0,-12.0,-5.0,-1.0,-2.0,-1.0,0.0,0.0,1651024696986792.0
-19.0,-43.0,2.0,2.0,-1.0,0.0,3.0,1.0,1651024696986792.0
1.0,18.0,5.0,3.0,11.0,2.0,-1.0,-2.0,1651024697008312.0
0.0,-3.0,-7.0,1.0,2.0,2.0,3.0,1.0,1651024697008312.0
-3.0,2.0,1.0,-1.0,-8.0,-3.0,-1.0,-3.0,1651024697009307.0
4.0,-15.0,3.0,2.0,4.0,2.0,0.0,1.0,1651024697009307.0
-1.0,-5.0,-4.0,-4.0,-13.0,-3.0,0.0,1.0,1651024697031449.0
-4.0,-8.0,0.0,2.0,4.0,0.0,-2.0,0.0,1651024697031449.0
-22.0,14.0,3.0,1.0,14.0,2.0,-2.0,-5.0,1651024697032413.0
0.0,2.0,3.0,1.0,-10.0,-3.0,0.0,-1.0,1651024697032413.0
4.0,0.0,8.0,0.0,0.0,0.0,0.0,1.0,1651024697046410.0
0.0,6.0,-19.0,-9.0,-5.0,-1.0,0.0,-2.0,1651024697046410.0
-1.0,-2.0,1.0,-1.0,-6.0,-1.0,-2.0,0.0,1651024697047344.0
3.0,9.0,-2.0,-2.0,1.0,-3.0,-3.0,1.0,1651024697047344.0
-1.0,23.0,0.0,-1.0,-3.0,1.0,0.0,0.0,1651024697068432.0
0.0,-14.0,8.0,5.0,6.0,2.0,3.0,2.0,1651024697068432.0
-4.0,-25.0,-4.0,-2.0,-12.0,-5.0,-1.0,-1.0,1651024697069363.0
0.0,6.0,1.0,-2.0,10.0,4.0,0.0,-3.0,1651024697069363.0
2.0,-20.0,-7.0,-2.0,0.0,1.0,0.0,1.0,1651024697091332.0
4.0,14.0,9.0,6.0,-4.0,-4.0,-3.0,-1.0,1651024697091332.0
-3.0,-15.0,0.0,-1.0,1.0,0.0,0.0,-2.0,1651024697092302.0
3.0,23.0,0.0,-1.0,-6.0,-3.0,-2.0,0.0,1651024697092302.0
-3.0,-8.0,-7.0,0.0,-6.0,-2.0,-1.0,1.0,1651024697106311.0
-2.0,-2.0,-2.0,-5.0,10.0,1.0,1.0,1.0,1651024697106311.0
4.0,39.0,8.0,3.0,-2.0,1.0,0.0,0.0,1651024697107336.0
-16.0,-48.0,-4.0,0.0,9.0,-2.0,-3.0,-6.0,1651024697107336.0
-2.0,-3.0,-6.0,-1.0,-2.0,-1.0,-1.0,-2.0,1651024697128422.0
-2.0,-6.0,1.0,-1.0,-6.0,-3.0,-1.0,0.0,1651024697128422.0
8.0,8.0,1.0,-3.0,-3.0,-1.0,0.0,2.0,1651024697129361.0
2.0,-12.0,2.0,2.0,1.0,3.0,2.0,0.0,1651024697129361.0
-4.0,2.0,-2.0,0.0,3.0,-2.0,0.0,-3.0,1651024697151485.0
-5.0,-14.0,-3.0,-2.0,-5.0,-1.0,-2.0,-2.0,1651024697151485.0
4.0,-25.0,-6.0,1.0,3.0,2.0,2.0,0.0,1651024697152441.0
3.0,14.0,4.0,0.0,-3.0,-4.0,0.0,0.0,1651024697152441.0
-2.0,-17.0,-2.0,-2.0,2.0,0.0,-1.0,-1.0,1651024697166435.0
0.0,-7.0,2.0,0.0,-2.0,-1.0,-2.0,0.0,1651024697166435.0
1.0,-1.0,1.0,-1.0,3.0,-1.0,0.0,0.0,1651024697167370.0
2.0,14.0,-1.0,-3.0,-4.0,-1.0,-2.0,1.0,1651024697167370.0
2.0,1.0,4.0,1.0,0.0,0.0,-1.0,0.0,1651024697188928.0
2.0,18.0,0.0,-2.0,0.0,-1.0,-1.0,-1.0,1651024697188928.0
-7.0,-52.0,-8.0,-3.0,-2.0,1.0,-2.0,0.0,1651024697189857.0
5.0,9.0,7.0,0.0,2.0,2.0,-1.0,-1.0,1651024697189857.0
-3.0,6.0,-5.0,-3.0,1.0,-1.0,1.0,-1.0,1651024697211000.0
-2.0,-7.0,-4.0,0.0,-8.0,-1.0,-2.0,0.0,1651024697211000.0
2.0,9.0,2.0,2.0,4.0,1.0,0.0,-1.0,1651024697211930.0
5.0,4.0,-2.0,3.0,3.0,0.0,0.0,-1.0,1651024697211930.0
-8.0,-38.0,-2.0,-4.0,5.0,1.0,0.0,-1.0,1651024697225957.0
6.0,15.0,6.0,0.0,1.0,0.0,1.0,0.0,1651024697225957.0
2.0,-3.0,0.0,-1.0,-9.0,-3.0,-1.0,1.0,1651024697233945.0
2.0,4.0,-3.0,-1.0,0.0,1.0,0.0,1.0,1651024697233945.0
9.0,30.0,5.0,0.0,-4.0,-2.0,-2.0,0.0,1651024697249003.0
-2.0,16.0,3.0,-1.0,-3.0,1.0,-1.0,-2.0,1651024697249003.0
3.0,17.0,6.0,0.0,4.0,1.0,0.0,1.0,1651024697249961.0
6.0,10.0,-2.0,-2.0,-4.0,-2.0,-1.0,1.0,1651024697249961.0
-2.0,9.0,3.0,1.0,-3.0,-2.0,-1.0,1.0,1651024697270936.0
-10.0,-27.0,-4.0,-1.0,4.0,1.0,1.0,-2.0,1651024697270936.0
7.0,3.0,-2.0,1.0,1.0,1.0,-2.0,-1.0,1651024697271884.0
-7.0,-11.0,-1.0,-1.0,0.0,1.0,-2.0,-1.0,1651024697271884.0
0.0,2.0,-1.0,-1.0,-5.0,1.0,0.0,-2.0,1651024697285905.0
0.0,3.0,2.0,2.0,-1.0,1.0,-2.0,2.0,1651024697285905.0
-2.0,-1.0,-4.0,0.0,0.0,0.0,0.0,0.0,1651024697293818.0
0.0,7.0,-1.0,-2.0,-7.0,-2.0,0.0,-2.0,1651024697293818.0
0.0,-8.0,-3.0,2.0,-1.0,-2.0,1.0,-1.0,1651024697308660.0
-3.0,-18.0,-2.0,0.0,3.0,-1.0,2.0,1.0,1651024697308660.0
-8.0,-35.0,-7.0,-1.0,-2.0,-4.0,-2.0,-2.0,1651024697309590.0
5.0,15.0,1.0,-2.0,-2.0,2.0,-1.0,0.0,1651024697309590.0
0.0,-11.0,-2.0,-2.0,1.0,0.0,-3.0,1.0,1651024697331531.0
3.0,52.0,7.0,-4.0,-8.0,-4.0,-2.0,-4.0,1651024697331531.0
-2.0,10.0,-1.0,0.0,5.0,0.0,0.0,-2.0,1651024697331531.0
0.0,23.0,3.0,1.0,4.0,-1.0,-2.0,-1.0,1651024697331531.0
0.0,-9.0,-2.0,0.0,-3.0,-1.0,1.0,-3.0,1651024697345558.0
0.0,-12.0,-4.0,-2.0,-4.0,-4.0,-2.0,-1.0,1651024697345558.0
1.0,6.0,1.0,-4.0,6.0,4.0,-1.0,1.0,1651024697353476.0
6.0,18.0,2.0,1.0,-2.0,-2.0,0.0,1.0,1651024697353476.0
3.0,22.0,2.0,2.0,7.0,1.0,0.0,1.0,1651024697369275.0
-7.0,-46.0,-9.0,-3.0,-4.0,-2.0,-2.0,-1.0,1651024697369275.0
1.0,21.0,6.0,4.0,-5.0,-2.0,0.0,0.0,1651024697369275.0
-1.0,-7.0,-3.0,3.0,2.0,0.0,0.0,0.0,1651024697369275.0
0.0,-4.0,0.0,0.0,-4.0,-1.0,0.0,0.0,1651024697399236.0
4.0,9.0,1.0,-2.0,-3.0,-1.0,2.0,0.0,1651024697399236.0
4.0,13.0,1.0,-1.0,1.0,1.0,1.0,1.0,1651024697400168.0
-3.0,-4.0,0.0,-2.0,-1.0,0.0,0.0,-1.0,1651024697400168.0
-2.0,10.0,2.0,1.0,-4.0,-2.0,-1.0,-2.0,1651024697405184.0
1.0,-3.0,0.0,5.0,7.0,2.0,0.0,0.0,1651024697405184.0
4.0,5.0,0.0,-3.0,-3.0,-2.0,1.0,0.0,1651024697414138.0
-5.0,-1.0,4.0,-1.0,-7.0,-3.0,-2.0,-1.0,1651024697414138.0
-6.0,-9.0,-5.0,-1.0,2.0,0.0,0.0,0.0,1651024697429159.0
9.0,8.0,0.0,-8.0,-6.0,1.0,-1.0,1.0,1651024697429159.0
-15.0,-17.0,-7.0,5.0,9.0,-7.0,-2.0,-4.0,1651024697429159.0
1.0,-8.0,0.0,0.0,0.0,5.0,2.0,2.0,1651024697429159.0
3.0,28.0,5.0,0.0,0.0,-2.0,-2.0,1.0,1651024697450929.0
-6.0,-7.0,1.0,1.0,-4.0,2.0,-2.0,0.0,1651024697450929.0
1.0,-9.0,-10.0,-9.0,1.0,0.0,-2.0,1.0,1651024697451928.0
-2.0,-14.0,-4.0,-2.0,-6.0,-3.0,-1.0,-1.0,1651024697451928.0
-8.0,6.0,2.0,3.0,8.0,2.0,-2.0,-3.0,1651024697465957.0
2.0,3.0,2.0,3.0,1.0,1.0,2.0,1.0,1651024697465957.0
0.0,9.0,2.0,-1.0,-11.0,-5.0,-1.0,0.0,1651024697473881.0
0.0,-4.0,-4.0,0.0,5.0,1.0,1.0,-1.0,1651024697473881.0
-2.0,-13.0,-3.0,-3.0,-3.0,1.0,1.0,-1.0,1651024697488983.0
0.0,3.0,-1.0,2.0,3.0,-3.0,-2.0,1.0,1651024697488983.0
-2.0,13.0,1.0,0.0,-2.0,2.0,-1.0,1.0,1651024697489979.0
-1.0,-23.0,-6.0,-2.0,-4.0,-2.0,-1.0,1.0,1651024697489979.0
-4.0,-18.0,-8.0,-5.0,-6.0,-2.0,-3.0,-2.0,1651024697519952.0
0.0,26.0,7.0,3.0,5.0,2.0,1.0,-1.0,1651024697519952.0
6.0,-2.0,1.0,0.0,-1.0,2.0,-1.0,-1.0,1651024697519952.0
7.0,19.0,-1.0,-2.0,1.0,-1.0,0.0,3.0,1651024697519952.0
2.0,2.0,1.0,-8.0,-6.0,-2.0,0.0,1.0,1651024697534078.0
-1.0,-16.0,3.0,13.0,3.0,-2.0,1.0,-2.0,1651024697534078.0
3.0,20.0,4.0,5.0,-7.0,0.0,-1.0,-1.0,1651024697535008.0
-2.0,-3.0,-2.0,3.0,15.0,-2.0,-1.0,-2.0,1651024697535008.0
-1.0,3.0,1.0,1.0,-13.0,-6.0,-1.0,0.0,1651024697557006.0
0.0,8.0,-3.0,-9.0,15.0,7.0,-4.0,0.0,1651024697557006.0
-1.0,-12.0,0.0,-1.0,-5.0,0.0,1.0,-1.0,1651024697557969.0
-3.0,-3.0,0.0,-7.0,-20.0,-9.0,-1.0,-1.0,1651024697557969.0
0.0,-5.0,-6.0,1.0,11.0,2.0,0.0,0.0,1651024697570933.0
-7.0,-17.0,1.0,-1.0,-3.0,0.0,1.0,0.0,1651024697570933.0
3.0,3.0,2.0,1.0,2.0,0.0,0.0,1.0,1651024697571863.0
-5.0,10.0,-1.0,-3.0,-1.0,1.0,-1.0,-1.0,1651024697571863.0
9.0,8.0,1.0,-1.0,-4.0,-3.0,-2.0,0.0,1651024697594594.0
-1.0,2.0,-5.0,-1.0,-2.0,-2.0,-1.0,-1.0,1651024697594594.0
-3.0,-13.0,-1.0,-1.0,4.0,2.0,1.0,0.0,1651024697595500.0
1.0,-7.0,2.0,-4.0,-10.0,-3.0,-2.0,-2.0,1651024697595500.0
1.0,0.0,-3.0,-4.0,8.0,0.0,-1.0,0.0,1651024697609002.0
-1.0,2.0,-5.0,0.0,5.0,3.0,0.0,-2.0,1651024697609002.0
-2.0,-1.0,0.0,-1.0,-3.0,-1.0,0.0,0.0,1651024697609958.0
-1.0,-6.0,2.0,1.0,4.0,2.0,-2.0,-1.0,1651024697609958.0
2.0,11.0,2.0,3.0,-7.0,2.0,1.0,3.0,1651024697630939.0
-6.0,-8.0,-3.0,-8.0,-11.0,-6.0,0.0,-1.0,1651024697630939.0
-2.0,-17.0,1.0,-5.0,11.0,1.0,-1.0,-2.0,1651024697631884.0
-4.0,5.0,-15.0,9.0,3.0,3.0,1.0,-3.0,1651024697631884.0
-1.0,-17.0,-4.0,-1.0,-19.0,-10.0,0.0,-1.0,1651024697654951.0
2.0,-5.0,2.0,-4.0,4.0,6.0,2.0,1.0,1651024697654951.0
-1.0,5.0,1.0,-2.0,3.0,-2.0,0.0,0.0,1651024697654951.0
4.0,11.0,7.0,11.0,3.0,0.0,-1.0,0.0,1651024697654951.0
-2.0,-18.0,-8.0,2.0,1.0,4.0,-1.0,0.0,1651024697668884.0
3.0,6.0,0.0,-7.0,0.0,-6.0,-1.0,0.0,1651024697668884.0
-2.0,-4.0,-4.0,-8.0,-8.0,-1.0,0.0,0.0,1651024697669868.0
1.0,-1.0,1.0,-3.0,5.0,1.0,0.0,1.0,1651024697669868.0
-3.0,-7.0,-1.0,2.0,4.0,0.0,1.0,-2.0,1651024697690934.0
0.0,17.0,-1.0,-1.0,-14.0,-4.0,0.0,-1.0,1651024697690934.0
1.0,9.0,-4.0,-5.0,1.0,0.0,-2.0,-1.0,1651024697691931.0
-2.0,-13.0,-2.0,-3.0,-1.0,-3.0,1.0,0.0,1651024697691931.0
3.0,6.0,2.0,-1.0,0.0,0.0,1.0,0.0,1651024697713986.0
-2.0,1.0,1.0,2.0,1.0,-2.0,-3.0,-3.0,1651024697713986.0
-1.0,0.0,0.0,2.0,0.0,1.0,1.0,-2.0,1651024697714986.0
-2.0,-3.0,-1.0,-2.0,-3.0,0.0,1.0,-2.0,1651024697714986.0
-3.0,1.0,-3.0,-5.0,0.0,-1.0,-2.0,-2.0,1651024697729012.0
0.0,-5.0,-2.0,2.0,-1.0,1.0,0.0,-1.0,1651024697729012.0
-1.0,-2.0,-3.0,1.0,9.0,2.0,0.0,-1.0,1651024697729946.0
-1.0,-5.0,0.0,-4.0,-4.0,1.0,-1.0,-1.0,1651024697729946.0
-1.0,-2.0,2.0,-3.0,3.0,0.0,0.0,0.0,1651024697751095.0
2.0,-4.0,1.0,5.0,2.0,1.0,-1.0,2.0,1651024697751095.0
-1.0,1.0,-5.0,0.0,-10.0,-4.0,-2.0,-1.0,1651024697752038.0
-1.0,-4.0,-1.0,-10.0,-3.0,-2.0,-3.0,-2.0,1651024697752038.0
1.0,-1.0,-2.0,-2.0,7.0,4.0,1.0,1.0,1651024697774981.0
2.0,-1.0,-2.0,-3.0,-7.0,-3.0,1.0,-1.0,1651024697774981.0
-3.0,-11.0,-1.0,-3.0,-13.0,-4.0,0.0,-2.0,1651024697774981.0
-1.0,5.0,1.0,0.0,1.0,1.0,0.0,0.0,1651024697774981.0
4.0,14.0,5.0,6.0,23.0,5.0,-1.0,-2.0,1651024697796982.0
-3.0,-31.0,-8.0,11.0,-1.0,-2.0,1.0,1.0,1651024697796982.0
1.0,16.0,4.0,-5.0,-4.0,0.0,0.0,0.0,1651024697797912.0
1.0,3.0,31.0,-7.0,-10.0,-5.0,-1.0,-1.0,1651024697797912.0
-3.0,-15.0,-26.0,8.0,-2.0,0.0,-1.0,-1.0,1651024697811943.0
0.0,2.0,-11.0,-14.0,2.0,1.0,0.0,0.0,1651024697811943.0
-1.0,4.0,6.0,9.0,0.0,-4.0,-2.0,-1.0,1651024697818861.0
-2.0,-10.0,-16.0,-6.0,-9.0,-4.0,-2.0,-2.0,1651024697818861.0
0.0,9.0,15.0,-24.0,-11.0,-5.0,-2.0,-1.0,1651024697834813.0
1.0,-1.0,-4.0,6.0,5.0,0.0,1.0,2.0,1651024697834813.0
-1.0,-2.0,4.0,1.0,-4.0,-2.0,0.0,0.0,1651024697834813.0
3.0,11.0,8.0,24.0,17.0,7.0,3.0,3.0,1651024697834813.0
-2.0,-9.0,5.0,6.0,3.0,3.0,0.0,0.0,1651024697848844.0
1.0,-2.0,7.0,9.0,6.0,2.0,0.0,1.0,1651024697848844.0
-1.0,4.0,20.0,15.0,8.0,3.0,-1.0,-1.0,1651024697856799.0
0.0,0.0,-32.0,-25.0,-11.0,-5.0,-2.0,-1.0,1651024697856799.0
-7.0,-28.0,-25.0,4.0,-3.0,-4.0,-5.0,-3.0,1651024697870958.0
5.0,26.0,18.0,-3.0,-2.0,1.0,5.0,4.0,1651024697870958.0
5.0,3.0,-1.0,6.0,3.0,0.0,0.0,0.0,1651024697871892.0
-7.0,-20.0,-19.0,-9.0,-2.0,-4.0,-2.0,-4.0,1651024697871892.0
-2.0,-8.0,-25.0,-46.0,-19.0,-3.0,-3.0,-1.0,1651024697895012.0
2.0,14.0,31.0,21.0,8.0,2.0,-1.0,0.0,1651024697895012.0
1.0,14.0,23.0,-8.0,-6.0,-1.0,-7.0,-3.0,1651024697895012.0
11.0,12.0,11.0,38.0,16.0,7.0,-5.0,5.0,1651024697895012.0
-10.0,-16.0,14.0,35.0,20.0,2.0,15.0,-2.0,1651024697908856.0
8.0,-15.0,-54.0,-34.0,-7.0,-3.0,-1.0,3.0,1651024697908856.0
-13.0,-9.0,16.0,34.0,11.0,1.0,3.0,-2.0,1651024697909785.0
0.0,6.0,-4.0,-34.0,-23.0,-5.0,-10.0,-4.0,1651024697909785.0
-4.0,-5.0,-15.0,-27.0,-13.0,-8.0,-6.0,-2.0,1651024697931750.0
2.0,15.0,11.0,-27.0,-5.0,-6.0,3.0,1.0,1651024697931750.0
-4.0,11.0,0.0,8.0,8.0,18.0,1.0,1.0,1651024697931750.0
-6.0,-9.0,13.0,46.0,11.0,-5.0,-9.0,-7.0,1651024697931750.0
12.0,43.0,41.0,8.0,-7.0,-34.0,-2.0,7.0,1651024697955003.0
-7.0,-18.0,-26.0,0.0,-4.0,15.0,-12.0,-10.0,1651024697955003.0
1.0,-12.0,-20.0,-60.0,-27.0,-2.0,-8.0,0.0,1651024697955003.0
-16.0,-26.0,-20.0,-27.0,-3.0,0.0,-10.0,-15.0,1651024697955003.0
16.0,0.0,-25.0,6.0,8.0,4.0,55.0,34.0,1651024697968884.0
-9.0,13.0,23.0,-10.0,-13.0,-30.0,-32.0,-21.0,1651024697968884.0
14.0,2.0,-5.0,-5.0,5.0,13.0,15.0,18.0,1651024697969867.0
-8.0,-11.0,-16.0,-18.0,-7.0,0.0,-20.0,-16.0,1651024697969867.0
-9.0,11.0,31.0,13.0,-2.0,-4.0,-20.0,-16.0,1651024697991868.0
2.0,-18.0,-8.0,29.0,18.0,8.0,39.0,24.0,1651024697991868.0
-9.0,-27.0,-35.0,-11.0,-4.0,-7.0,7.0,-12.0,1651024697992805.0
13.0,14.0,8.0,-8.0,-4.0,0.0,11.0,15.0,1651024697992805.0
-4.0,1.0,-15.0,-24.0,-9.0,9.0,41.0,16.0,1651024698014934.0
5.0,15.0,26.0,20.0,1.0,4.0,20.0,6.0,1651024698014934.0
-7.0,-14.0,-17.0,-10.0,0.0,0.0,1.0,-6.0,1651024698015012.0
3.0,3.0,-8.0,-4.0,1.0,-10.0,8.0,5.0,1651024698015012.0
1.0,0.0,7.0,7.0,4.0,7.0,-30.0,-14.0,1651024698029095.0
-8.0,-10.0,0.0,16.0,2.0,4.0,-18.0,-10.0,1651024698029095.0
3.0,19.0,44.0,6.0,1.0,-8.0,0.0,1.0,1651024698030022.0
-11.0,-14.0,-28.0,-6.0,-6.0,-10.0,-14.0,-12.0,1651024698030022.0
-8.0,-23.0,-9.0,2.0,-5.0,11.0,-2.0,-3.0,1651024698051010.0
4.0,3.0,-2.0,-6.0,1.0,-2.0,-1.0,3.0,1651024698051010.0
1.0,-2.0,-17.0,-13.0,5.0,-7.0,-17.0,-6.0,1651024698052012.0
7.0,18.0,58.0,20.0,13.0,16.0,32.0,18.0,1651024698052012.0
-1.0,-3.0,-28.0,21.0,6.0,6.0,-22.0,-10.0,1651024698074932.0
-4.0,-12.0,-17.0,-29.0,-12.0,-10.0,-3.0,-2.0,1651024698074932.0
1.0,2.0,0.0,8.0,-5.0,-3.0,6.0,-1.0,1651024698075047.0
0.0,1.0,10.0,7.0,8.0,8.0,3.0,5.0,1651024698075047.0
1.0,9.0,9.0,-7.0,-5.0,-5.0,-7.0,0.0,1651024698087926.0
-3.0,-6.0,-3.0,-2.0,-6.0,-4.0,-10.0,-6.0,1651024698087926.0
-1.0,-5.0,-25.0,-12.0,-5.0,-8.0,-10.0,-4.0,1651024698096800.0
-1.0,-3.0,-16.0,-11.0,-12.0,-1.0,3.0,2.0,1651024698096800.0
2.0,1.0,28.0,4.0,3.0,-1.0,-15.0,-11.0,1651024698112078.0
-3.0,-5.0,-1.0,1.0,-1.0,2.0,-1.0,-2.0,1651024698112078.0
1.0,-6.0,-26.0,0.0,-5.0,-6.0,-10.0,-5.0,1651024698112078.0
-5.0,-4.0,4.0,-5.0,-9.0,-8.0,-6.0,-2.0,1651024698112078.0
7.0,17.0,9.0,-3.0,11.0,9.0,-1.0,2.0,1651024698136067.0
-3.0,-6.0,8.0,20.0,3.0,5.0,26.0,8.0,1651024698136067.0
3.0,5.0,4.0,8.0,2.0,-1.0,7.0,4.0,1651024698137083.0
3.0,-2.0,-2.0,-2.0,-1.0,-6.0,-2.0,2.0,1651024698137083.0
1.0,10.0,5.0,-15.0,-6.0,-4.0,-23.0,-9.0,1651024698147934.0
-5.0,-17.0,-23.0,13.0,-3.0,3.0,1.0,-3.0,1651024698147934.0
3.0,-4.0,-4.0,-3.0,12.0,0.0,-2.0,1.0,1651024698155983.0
-2.0,15.0,29.0,34.0,11.0,6.0,4.0,0.0,1651024698155983.0
-2.0,4.0,10.0,6.0,6.0,7.0,6.0,1.0,1651024698170984.0
-5.0,-5.0,-10.0,-19.0,-13.0,-5.0,-7.0,-3.0,1651024698170984.0
2.0,6.0,14.0,22.0,2.0,2.0,6.0,2.0,1651024698171989.0
-5.0,-18.0,-23.0,-14.0,1.0,-2.0,-9.0,-3.0,1651024698171989.0
-1.0,-8.0,0.0,-2.0,-5.0,8.0,57.0,19.0,1651024698193714.0
-2.0,0.0,-11.0,-21.0,-10.0,-7.0,-5.0,-1.0,1651024698193714.0
1.0,7.0,22.0,9.0,12.0,1.0,6.0,1.0,1651024698194715.0
5.0,3.0,-1.0,-4.0,-5.0,0.0,0.0,1.0,1651024698194715.0
-6.0,-13.0,-12.0,0.0,-2.0,-3.0,-12.0,-7.0,1651024698208677.0
1.0,10.0,9.0,2.0,1.0,-4.0,-13.0,-7.0,1651024698208677.0
4.0,-2.0,-8.0,-6.0,-2.0,15.0,35.0,16.0,1651024698216719.0
-9.0,-6.0,-7.0,-9.0,-9.0,-13.0,-11.0,-10.0,1651024698216719.0
-2.0,1.0,9.0,11.0,3.0,-5.0,-33.0,-20.0,1651024698230998.0
9.0,8.0,5.0,7.0,16.0,21.0,38.0,26.0,1651024698230998.0
0.0,9.0,12.0,2.0,-5.0,-8.0,-16.0,-2.0,1651024698231929.0
-1.0,-1.0,10.0,8.0,6.0,6.0,9.0,0.0,1651024698231929.0
-1.0,-10.0,-39.0,-10.0,-9.0,-4.0,3.0,2.0,1651024698254941.0
3.0,13.0,25.0,-1.0,3.0,-1.0,-9.0,-3.0,1651024698254941.0
-5.0,-9.0,-2.0,6.0,-1.0,-1.0,-18.0,-7.0,1651024698254941.0
15.0,3.0,-22.0,-22.0,-8.0,1.0,5.0,4.0,1651024698254941.0
-4.0,-14.0,-1.0,7.0,1.0,6.0,23.0,11.0,1651024698268136.0
2.0,6.0,1.0,12.0,5.0,-4.0,-10.0,-4.0,1651024698268136.0
-4.0,4.0,1.0,-4.0,-5.0,-1.0,1.0,0.0,1651024698276063.0
0.0,-7.0,4.0,9.0,3.0,-1.0,-14.0,-6.0,1651024698276063.0
3.0,8.0,5.0,-7.0,0.0,1.0,0.0,-1.0,1651024698291155.0
-1.0,7.0,-7.0,-20.0,-6.0,-9.0,-42.0,-18.0,1651024698291155.0
-5.0,-3.0,13.0,23.0,8.0,13.0,46.0,13.0,1651024698292118.0
3.0,8.0,-12.0,-10.0,-3.0,-1.0,11.0,7.0,1651024698292118.0
-6.0,-4.0,0.0,-4.0,-7.0,-15.0,-17.0,-9.0,1651024698314094.0
0.0,-6.0,0.0,3.0,2.0,-2.0,-4.0,-1.0,1651024698314094.0
-5.0,-11.0,-18.0,-13.0,-6.0,-10.0,-14.0,-7.0,1651024698315032.0
0.0,6.0,16.0,-2.0,6.0,8.0,5.0,1.0,1651024698315032.0
3.0,0.0,10.0,19.0,4.0,6.0,7.0,3.0,1651024698328276.0
-7.0,-5.0,-4.0,-8.0,-14.0,-20.0,-21.0,-16.0,1651024698328276.0
-9.0,-3.0,2.0,2.0,1.0,-3.0,-57.0,-26.0,1651024698336256.0
5.0,1.0,-35.0,-14.0,-5.0,-1.0,38.0,21.0,1651024698336256.0
-1.0,5.0,31.0,14.0,3.0,-2.0,-10.0,-3.0,1651024698350977.0
3.0,6.0,9.0,-3.0,4.0,11.0,17.0,6.0,1651024698350977.0
5.0,-4.0,-32.0,-19.0,-5.0,-7.0,-19.0,-4.0,1651024698351950.0
0.0,6.0,18.0,-1.0,-5.0,-4.0,-8.0,-6.0,1651024698351950.0
-10.0,-13.0,-21.0,-8.0,-1.0,-2.0,4.0,-2.0,1651024698374968.0
2.0,11.0,20.0,17.0,8.0,4.0,-5.0,3.0,1651024698374968.0
0.0,4.0,19.0,4.0,-2.0,0.0,12.0,6.0,1651024698374968.0
-4.0,-14.0,-19.0,3.0,2.0,-1.0,-14.0,-11.0,1651024698374968.0
2.0,4.0,5.0,-1.0,0.0,-2.0,-11.0,-3.0,1651024698387964.0
1.0,3.0,0.0,5.0,3.0,8.0,22.0,5.0,1651024698387964.0
-9.0,-19.0,-31.0,-35.0,-21.0,-10.0,2.0,0.0,1651024698395943.0
-5.0,2.0,8.0,4.0,6.0,-1.0,-1.0,-6.0,1651024698395943.0
9.0,16.0,20.0,15.0,13.0,6.0,-1.0,7.0,1651024698410902.0
-12.0,-28.0,-21.0,-1.0,-1.0,-5.0,-15.0,-14.0,1651024698410902.0
6.0,1.0,12.0,9.0,0.0,8.0,25.0,11.0,1651024698411831.0
1.0,10.0,6.0,1.0,-2.0,-2.0,-6.0,-3.0,1651024698411831.0
-1.0,-6.0,-17.0,-15.0,-6.0,-2.0,-2.0,-2.0,1651024698434895.0
8.0,13.0,5.0,27.0,10.0,13.0,15.0,6.0,1651024698434895.0
-4.0,-14.0,-14.0,-17.0,-14.0,-9.0,8.0,2.0,1651024698434895.0
0.0,8.0,24.0,13.0,4.0,-1.0,-4.0,1.0,1651024698434895.0
1.0,-8.0,-22.0,-2.0,1.0,2.0,14.0,6.0,1651024698457355.0
-9.0,-10.0,1.0,-16.0,-13.0,-13.0,-30.0,-18.0,1651024698457355.0
6.0,9.0,9.0,10.0,7.0,5.0,0.0,2.0,1651024698457869.0
2.0,6.0,4.0,1.0,0.0,6.0,13.0,5.0,1651024698457869.0
3.0,10.0,7.0,-7.0,-2.0,-7.0,-25.0,-5.0,1651024698470993.0
2.0,-7.0,-22.0,-14.0,-10.0,-5.0,4.0,3.0,1651024698470993.0
0.0,4.0,9.0,3.0,6.0,-1.0,-6.0,-2.0,1651024698479005.0
-3.0,-2.0,13.0,9.0,2.0,-3.0,-6.0,-1.0,1651024698479005.0
4.0,6.0,-8.0,3.0,-1.0,2.0,-3.0,-2.0,1651024698494940.0
-5.0,6.0,8.0,3.0,-4.0,3.0,3.0,2.0,1651024698494940.0
-4.0,-7.0,6.0,24.0,23.0,2.0,-2.0,-1.0,1651024698494940.0
-1.0,-3.0,-4.0,-5.0,-2.0,1.0,21.0,3.0,1651024698494940.0
0.0,-2.0,-3.0,-8.0,-14.0,-6.0,-14.0,-6.0,1651024698517114.0
-1.0,-6.0,-13.0,-9.0,6.0,0.0,-7.0,-2.0,1651024698517114.0
-6.0,-6.0,-13.0,5.0,-6.0,-5.0,-5.0,-5.0,1651024698518069.0
-3.0,1.0,5.0,-13.0,-8.0,-7.0,-27.0,-9.0,1651024698518069.0
-4.0,-9.0,-5.0,3.0,10.0,6.0,13.0,5.0,1651024698531076.0
2.0,8.0,8.0,-6.0,-3.0,-3.0,8.0,3.0,1651024698531076.0
2.0,5.0,5.0,-2.0,-1.0,2.0,-4.0,-2.0,1651024698532012.0
-2.0,-13.0,-10.0,8.0,5.0,-3.0,-31.0,-12.0,1651024698532012.0
4.0,5.0,-2.0,-7.0,-5.0,-1.0,12.0,8.0,1651024698554960.0
1.0,-1.0,2.0,0.0,0.0,0.0,6.0,2.0,1651024698554960.0
-1.0,-7.0,-13.0,-13.0,-10.0,-4.0,7.0,3.0,1651024698554960.0
5.0,10.0,11.0,10.0,8.0,7.0,15.0,9.0,1651024698554960.0
-5.0,-10.0,-1.0,12.0,0.0,-2.0,-3.0,-6.0,1651024698577149.0
-1.0,-2.0,9.0,1.0,7.0,1.0,8.0,2.0,1651024698577149.0
5.0,9.0,4.0,9.0,6.0,5.0,0.0,2.0,1651024698578133.0
3.0,16.0,14.0,-3.0,-3.0,-1.0,1.0,1.0,1651024698578133.0
-13.0,-28.0,-31.0,-14.0,-13.0,-14.0,-35.0,-17.0,1651024698591043.0
4.0,-1.0,9.0,4.0,0.0,4.0,20.0,12.0,1651024698591043.0
5.0,17.0,4.0,-7.0,-3.0,-1.0,-2.0,1.0,1651024698592041.0
-6.0,-13.0,-20.0,-3.0,3.0,3.0,5.0,0.0,1651024698592041.0
3.0,14.0,27.0,8.0,0.0,-5.0,-11.0,-5.0,1651024698614979.0
2.0,1.0,-5.0,-5.0,-19.0,-7.0,6.0,4.0,1651024698614979.0
-6.0,-14.0,-13.0,-9.0,-4.0,-1.0,-8.0,-6.0,1651024698614979.0
-2.0,4.0,0.0,4.0,21.0,8.0,16.0,6.0,1651024698614979.0
-1.0,-1.0,-1.0,8.0,-1.0,2.0,6.0,1.0,1651024698636877.0
0.0,2.0,7.0,-1.0,3.0,-1.0,-11.0,-5.0,1651024698636877.0
2.0,8.0,8.0,-1.0,-5.0,0.0,-7.0,-3.0,1651024698637875.0
1.0,7.0,18.0,8.0,-5.0,-4.0,-12.0,-3.0,1651024698637875.0
-4.0,-30.0,-31.0,-4.0,2.0,0.0,9.0,3.0,1651024698650994.0
5.0,2.0,1.0,-5.0,0.0,3.0,1.0,-1.0,1651024698650994.0
-1.0,2.0,2.0,-2.0,-2.0,-2.0,-20.0,-7.0,1651024698651933.0
-3.0,-11.0,-9.0,-7.0,-3.0,-3.0,-6.0,-5.0,1651024698651933.0
0.0,14.0,18.0,0.0,2.0,5.0,19.0,7.0,1651024698674141.0
-1.0,-4.0,-15.0,-3.0,0.0,-2.0,-7.0,-4.0,1651024698674141.0
-2.0,-5.0,2.0,-12.0,-1.0,0.0,5.0,3.0,1651024698675071.0
0.0,-1.0,-7.0,10.0,1.0,1.0,-6.0,-2.0,1651024698675071.0
4.0,5.0,4.0,-8.0,-2.0,2.0,24.0,10.0,1651024698696845.0
-7.0,-12.0,-12.0,-9.0,-7.0,-2.0,9.0,1.0,1651024698696845.0
1.0,7.0,17.0,16.0,12.0,5.0,14.0,3.0,1651024698697846.0
1.0,0.0,-18.0,-18.0,-16.0,-8.0,3.0,2.0,1651024698697846.0
-3.0,0.0,-2.0,17.0,9.0,4.0,-7.0,-5.0,1651024698711809.0
3.0,4.0,6.0,-7.0,3.0,-1.0,-4.0,0.0,1651024698711809.0
1.0,2.0,3.0,5.0,0.0,-1.0,2.0,2.0,1651024698711809.0
3.0,11.0,6.0,9.0,-3.0,-3.0,-4.0,-1.0,1651024698711809.0
-6.0,-18.0,-12.0,-11.0,-2.0,-1.0,-15.0,-7.0,1651024698734435.0
-4.0,-9.0,-15.0,-8.0,0.0,4.0,12.0,7.0,1651024698734435.0
0.0,3.0,19.0,17.0,7.0,2.0,-9.0,-4.0,1651024698735397.0
-4.0,-4.0,0.0,-1.0,-2.0,-7.0,-19.0,-10.0,1651024698735397.0
1.0,9.0,10.0,-6.0,-5.0,-4.0,5.0,3.0,1651024698757378.0
2.0,5.0,3.0,5.0,2.0,1.0,-7.0,-4.0,1651024698757378.0
2.0,-1.0,-16.0,-19.0,-10.0,-3.0,-3.0,-1.0,1651024698757378.0
-1.0,-8.0,-10.0,6.0,2.0,3.0,-3.0,-1.0,1651024698757378.0
-2.0,3.0,5.0,-6.0,-1.0,-2.0,-5.0,-5.0,1651024698771337.0
-4.0,-3.0,5.0,17.0,0.0,-4.0,-7.0,-3.0,1651024698771337.0
3.0,1.0,4.0,12.0,12.0,2.0,2.0,0.0,1651024698772267.0
-2.0,-4.0,4.0,1.0,-8.0,-1.0,1.0,0.0,1651024698772267.0
0.0,-6.0,-13.0,-17.0,-6.0,-1.0,12.0,5.0,1651024698794907.0
3.0,14.0,27.0,21.0,6.0,0.0,0.0,-4.0,1651024698794907.0
3.0,-2.0,-11.0,-11.0,-8.0,4.0,9.0,7.0,1651024698794907.0
-6.0,-11.0,-24.0,-19.0,-11.0,-7.0,3.0,-1.0,1651024698794907.0
1.0,6.0,19.0,13.0,13.0,6.0,14.0,6.0,1651024698817371.0
-2.0,-10.0,-13.0,-10.0,-5.0,-5.0,-5.0,0.0,1651024698817371.0
1.0,3.0,9.0,-4.0,0.0,-4.0,-21.0,-10.0,1651024698817898.0
4.0,0.0,1.0,11.0,7.0,7.0,17.0,7.0,1651024698817898.0
0.0,4.0,1.0,3.0,-5.0,-6.0,-6.0,-5.0,1651024698830866.0
2.0,10.0,4.0,-11.0,-5.0,-1.0,1.0,0.0,1651024698830866.0
-4.0,-15.0,-23.0,-6.0,-7.0,-5.0,-1.0,-2.0,1651024698831866.0
-3.0,0.0,0.0,-32.0,-10.0,-6.0,0.0,-4.0,1651024698831866.0
1.0,6.0,13.0,32.0,9.0,0.0,-22.0,-10.0,1651024698854803.0
0.0,-1.0,-1.0,-9.0,4.0,7.0,22.0,6.0,1651024698854803.0
-3.0,-11.0,-7.0,-1.0,-10.0,-5.0,-2.0,0.0,1651024698854803.0
-1.0,-1.0,-9.0,-16.0,-3.0,1.0,-1.0,1.0,1651024698854803.0
0.0,-3.0,2.0,-5.0,-1.0,1.0,-2.0,-5.0,1651024698876917.0
-3.0,-3.0,9.0,-1.0,-4.0,-3.0,-1.0,-2.0,1651024698876917.0
-1.0,1.0,-15.0,6.0,7.0,1.0,3.0,1.0,1651024698877911.0
-1.0,2.0,14.0,9.0,5.0,4.0,5.0,3.0,1651024698877911.0
-4.0,-1.0,3.0,-6.0,-6.0,-5.0,-13.0,-6.0,1651024698890910.0
3.0,-3.0,-11.0,-5.0,-9.0,-7.0,11.0,3.0,1651024698890910.0
5.0,13.0,18.0,-6.0,3.0,6.0,3.0,4.0,1651024698891877.0
4.0,5.0,11.0,18.0,13.0,7.0,3.0,1.0,1651024698891877.0
5.0,8.0,3.0,9.0,1.0,4.0,26.0,11.0,1651024698914906.0
-6.0,-15.0,-24.0,-10.0,3.0,1.0,-14.0,-7.0,1651024698914906.0
-2.0,4.0,4.0,-8.0,-8.0,-5.0,6.0,3.0,1651024698915076.0
-1.0,-4.0,-4.0,-8.0,-8.0,-4.0,-1.0,1.0,1651024698915076.0
3.0,5.0,10.0,14.0,2.0,1.0,-5.0,1.0,1651024698937003.0
1.0,-3.0,-5.0,7.0,6.0,1.0,0.0,-1.0,1651024698937003.0
-10.0,-25.0,-21.0,-10.0,2.0,-2.0,-5.0,-6.0,1651024698938010.0
1.0,1.0,2.0,15.0,-4.0,4.0,1.0,3.0,1651024698938010.0
2.0,10.0,3.0,-21.0,6.0,-3.0,-9.0,-3.0,1651024698951036.0
1.0,4.0,4.0,14.0,-2.0,1.0,-3.0,0.0,1651024698951036.0
-2.0,-5.0,-11.0,-5.0,-5.0,1.0,3.0,1.0,1651024698951963.0
1.0,-6.0,-1.0,-3.0,4.0,2.0,17.0,6.0,1651024698951963.0
1.0,0.0,5.0,-2.0,-8.0,-2.0,-4.0,-2.0,1651024698974011.0
-2.0,-1.0,-3.0,-1.0,2.0,0.0,-9.0,-5.0,1651024698974011.0
2.0,9.0,11.0,2.0,-2.0,0.0,2.0,2.0,1651024698981830.0
0.0,-4.0,-1.0,0.0,1.0,-3.0,-1.0,0.0,1651024698981830.0
-2.0,-5.0,-16.0,-13.0,-6.0,-5.0,-6.0,-2.0,1651024698996967.0
-3.0,-13.0,-3.0,11.0,7.0,3.0,7.0,2.0,1651024698996967.0
-4.0,4.0,8.0,-10.0,-7.0,-4.0,-8.0,-4.0,1651024698997896.0
1.0,2.0,1.0,27.0,12.0,3.0,3.0,2.0,1651024698997896.0
2.0,7.0,3.0,-11.0,-4.0,3.0,4.0,2.0,1651024699010926.0
-2.0,3.0,2.0,-2.0,3.0,-2.0,-11.0,-4.0,1651024699010926.0
2.0,1.0,5.0,7.0,-1.0,-1.0,2.0,0.0,1651024699011872.0
1.0,7.0,4.0,-21.0,-7.0,-3.0,-11.0,-4.0,1651024699011872.0
-1.0,-3.0,6.0,29.0,-1.0,2.0,3.0,3.0,1651024699034145.0
-4.0,-12.0,-26.0,-17.0,-5.0,-5.0,-26.0,-11.0,1651024699034145.0
3.0,9.0,28.0,16.0,21.0,4.0,11.0,4.0,1651024699035172.0
2.0,-4.0,-17.0,-9.0,-7.0,5.0,7.0,5.0,1651024699035172.0
-1.0,4.0,-2.0,-17.0,-1.0,-5.0,0.0,-1.0,1651024699056089.0
0.0,11.0,20.0,26.0,2.0,-2.0,-21.0,-7.0,1651024699056089.0
-1.0,-9.0,-15.0,-1.0,-4.0,2.0,25.0,9.0,1651024699064099.0
-2.0,4.0,7.0,-10.0,-6.0,-4.0,-8.0,-7.0,1651024699064099.0
0.0,-1.0,-5.0,-12.0,-5.0,1.0,2.0,1.0,1651024699078995.0
-4.0,-8.0,-1.0,15.0,3.0,0.0,4.0,1.0,1651024699078995.0
-2.0,-1.0,-1.0,-4.0,-2.0,-2.0,-14.0,-8.0,1651024699080005.0
-4.0,-4.0,-2.0,4.0,4.0,0.0,-4.0,-1.0,1651024699080005.0
0.0,-1.0,-7.0,-15.0,-6.0,3.0,17.0,5.0,1651024699093955.0
0.0,1.0,2.0,2.0,2.0,-2.0,-11.0,-2.0,1651024699093955.0
0.0,-1.0,-13.0,-6.0,-5.0,0.0,0.0,-1.0,1651024699095318.0
0.0,2.0,20.0,11.0,-6.0,-6.0,-5.0,-2.0,1651024699095318.0
-1.0,-2.0,19.0,9.0,4.0,-5.0,-10.0,-9.0,1651024699117358.0
-1.0,-6.0,-34.0,-14.0,2.0,6.0,1.0,6.0,1651024699117358.0
0.0,0.0,10.0,8.0,10.0,1.0,-3.0,-5.0,1651024699117869.0
-1.0,0.0,1.0,-7.0,0.0,0.0,7.0,1.0,1651024699117869.0
2.0,-1.0,-12.0,-14.0,-8.0,-6.0,-17.0,-1.0,1651024699130905.0
0.0,0.0,5.0,-14.0,-20.0,-9.0,-8.0,-10.0,1651024699130905.0
-3.0,-8.0,-14.0,1.0,6.0,-2.0,2.0,-6.0,1651024699138883.0
-3.0,3.0,7.0,4.0,0.0,-6.0,2.0,0.0,1651024699138883.0
2.0,3.0,1.0,0.0,3.0,6.0,13.0,1.0,1651024699154773.0
0.0,5.0,4.0,-5.0,-6.0,-6.0,0.0,7.0,1651024699154773.0
1.0,4.0,11.0,3.0,-7.0,-7.0,11.0,7.0,1651024699154773.0
-3.0,-12.0,-28.0,-4.0,0.0,17.0,1.0,-4.0,1651024699154773.0
-1.0,2.0,0.0,-5.0,1.0,0.0,-4.0,-3.0,1651024699184895.0
1.0,3.0,20.0,23.0,11.0,4.0,14.0,5.0,1651024699184895.0
0.0,1.0,2.0,6.0,1.0,-2.0,-1.0,2.0,1651024699184895.0
1.0,3.0,5.0,4.0,-2.0,-6.0,2.0,-1.0,1651024699184895.0
2.0,7.0,9.0,16.0,3.0,2.0,-16.0,0.0,1651024699190882.0
1.0,-12.0,-31.0,-28.0,0.0,2.0,6.0,3.0,1651024699190882.0
1.0,6.0,14.0,6.0,-3.0,-3.0,-10.0,-4.0,1651024699198890.0
-1.0,-6.0,-3.0,9.0,5.0,0.0,-2.0,-3.0,1651024699198890.0
1.0,-2.0,-11.0,-6.0,-15.0,-3.0,6.0,0.0,1651024699213888.0
1.0,1.0,4.0,-5.0,2.0,2.0,9.0,-2.0,1651024699213888.0
1.0,3.0,-2.0,8.0,12.0,0.0,-4.0,1.0,1651024699220801.0
-1.0,-3.0,-3.0,-8.0,-5.0,-4.0,-13.0,-5.0,1651024699220801.0
-3.0,-8.0,-5.0,4.0,0.0,-9.0,-6.0,-7.0,1651024699236873.0
2.0,7.0,11.0,-7.0,-15.0,-30.0,24.0,17.0,1651024699236873.0
0.0,-7.0,-14.0,-5.0,10.0,80.0,24.0,10.0,1651024699237804.0
-2.0,-4.0,1.0,8.0,7.0,-6.0,-4.0,-1.0,1651024699237804.0
-4.0,-2.0,5.0,-2.0,-2.0,4.0,-7.0,-5.0,1651024699250836.0
-1.0,5.0,0.0,-2.0,1.0,-8.0,-4.0,-1.0,1651024699250836.0
-3.0,-3.0,-10.0,-8.0,-8.0,-26.0,-12.0,-5.0,1651024699258811.0
-1.0,-4.0,2.0,3.0,2.0,9.0,4.0,-5.0,1651024699258811.0
-3.0,-3.0,-10.0,-13.0,-5.0,-1.0,8.0,11.0,1651024699274235.0
2.0,10.0,21.0,14.0,3.0,9.0,1.0,-2.0,1651024699274235.0
0.0,-4.0,-5.0,3.0,-1.0,-13.0,-4.0,1.0,1651024699274911.0
2.0,3.0,-4.0,-12.0,1.0,0.0,-4.0,1.0,1651024699274911.0
1.0,-6.0,-4.0,17.0,7.0,-3.0,3.0,-4.0,1651024699296802.0
-7.0,-5.0,-4.0,-19.0,-15.0,-5.0,-6.0,-1.0,1651024699296802.0
0.0,4.0,2.0,-5.0,-12.0,-7.0,-4.0,-3.0,1651024699297731.0
1.0,0.0,3.0,2.0,12.0,-4.0,0.0,0.0,1651024699297731.0
2.0,0.0,-3.0,-2.0,3.0,2.0,1.0,1.0,1651024699310763.0
1.0,5.0,6.0,1.0,0.0,2.0,7.0,0.0,1651024699310763.0
0.0,-4.0,-3.0,-5.0,-11.0,-14.0,-10.0,-1.0,1651024699318744.0
0.0,2.0,-2.0,0.0,-5.0,3.0,3.0,2.0,1651024699318744.0
-1.0,-2.0,-4.0,0.0,0.0,-51.0,-12.0,-7.0,1651024699333647.0
1.0,5.0,-1.0,3.0,9.0,56.0,23.0,4.0,1651024699333647.0
2.0,-3.0,0.0,-2.0,-2.0,-15.0,-8.0,-3.0,1651024699341613.0
-8.0,-25.0,-1.0,-1.0,-3.0,-4.0,3.0,4.0,1651024699341613.0
0.0,20.0,-5.0,-3.0,5.0,45.0,11.0,-6.0,1651024699357409.0
4.0,7.0,2.0,0.0,-7.0,-30.0,-7.0,-1.0,1651024699357409.0
3.0,15.0,1.0,0.0,0.0,-2.0,0.0,0.0,1651024699357866.0
-3.0,-7.0,2.0,2.0,-4.0,-5.0,2.0,3.0,1651024699357866.0
-4.0,-9.0,-3.0,0.0,-5.0,-35.0,-12.0,2.0,1651024699370897.0
1.0,-2.0,0.0,-1.0,7.0,25.0,4.0,-4.0,1651024699370897.0
3.0,7.0,10.0,5.0,5.0,14.0,8.0,4.0,1651024699378880.0
-3.0,15.0,-7.0,-3.0,-4.0,-6.0,-5.0,-3.0,1651024699378880.0
-5.0,-19.0,-1.0,-4.0,-3.0,2.0,5.0,0.0,1651024699393772.0
3.0,7.0,-8.0,-6.0,0.0,0.0,-1.0,1.0,1651024699393772.0
1.0,-6.0,-4.0,-4.0,-17.0,-20.0,-8.0,0.0,1651024699394770.0
1.0,6.0,5.0,1.0,12.0,17.0,-8.0,-4.0,1651024699394770.0
-3.0,-6.0,-1.0,5.0,11.0,14.0,10.0,1.0,1651024699416786.0
-1.0,-9.0,-11.0,-8.0,-8.0,-11.0,-11.0,-3.0,1651024699416786.0
-1.0,1.0,0.0,1.0,2.0,-3.0,6.0,1.0,1651024699417797.0
3.0,11.0,11.0,1.0,0.0,-1.0,5.0,1.0,1651024699417797.0
-1.0,0.0,2.0,5.0,-1.0,8.0,-2.0,4.0,1651024699439002.0
-4.0,-13.0,-2.0,-1.0,3.0,-6.0,6.0,-3.0,1651024699439002.0
0.0,9.0,7.0,3.0,-8.0,-4.0,-12.0,-11.0,1651024699439989.0
-10.0,-63.0,-46.0,-21.0,-10.0,-4.0,12.0,5.0,1651024699439989.0
13.0,76.0,17.0,0.0,9.0,7.0,-10.0,-7.0,1651024699453934.0
1.0,2.0,12.0,9.0,-12.0,-10.0,-6.0,14.0,1651024699453934.0
-8.0,-37.0,-34.0,-18.0,8.0,1.0,2.0,-3.0,1651024699454931.0
4.0,13.0,23.0,11.0,4.0,2.0,-2.0,1.0,1651024699454931.0
-5.0,-37.0,-8.0,-1.0,-4.0,-2.0,2.0,-7.0,1651024699476872.0
3.0,15.0,6.0,3.0,4.0,-1.0,-5.0,-1.0,1651024699476872.0
-7.0,9.0,-2.0,-6.0,-8.0,-2.0,-6.0,-7.0,1651024699477869.0
16.0,-20.0,8.0,7.0,-14.0,-8.0,-3.0,2.0,1651024699477869.0
-24.0,10.0,-12.0,-9.0,11.0,1.0,-5.0,-4.0,1651024699499897.0
10.0,36.0,7.0,2.0,6.0,4.0,-2.0,-4.0,1651024699499897.0
0.0,-26.0,-7.0,-1.0,-3.0,0.0,1.0,2.0,1651024699499897.0
-2.0,8.0,-11.0,-8.0,-6.0,-6.0,-3.0,-6.0,1651024699499897.0
6.0,3.0,7.0,0.0,-8.0,1.0,5.0,4.0,1651024699513773.0
-13.0,-45.0,-2.0,3.0,4.0,-1.0,-4.0,-7.0,1651024699513773.0
-12.0,-24.0,-2.0,2.0,-5.0,-4.0,-4.0,-1.0,1651024699514800.0
-2.0,-5.0,4.0,1.0,2.0,1.0,0.0,1.0,1651024699514800.0
12.0,36.0,14.0,7.0,17.0,6.0,1.0,5.0,1651024699537416.0
-10.0,-26.0,-17.0,-3.0,0.0,-2.0,-3.0,-3.0,1651024699537416.0
15.0,-6.0,-4.0,-6.0,-4.0,1.0,1.0,4.0,1651024699537871.0
-10.0,39.0,8.0,0.0,-10.0,-9.0,-5.0,-6.0,1651024699537871.0
-9.0,-67.0,3.0,3.0,-2.0,7.0,5.0,5.0,1651024699560811.0
16.0,71.0,-20.0,-10.0,-1.0,-4.0,-4.0,-4.0,1651024699560811.0
-11.0,17.0,11.0,1.0,0.0,-2.0,-1.0,-4.0,1651024699562801.0
-5.0,-9.0,5.0,7.0,4.0,1.0,-2.0,-1.0,1651024699562801.0
10.0,-2.0,-8.0,0.0,-3.0,-2.0,0.0,2.0,1651024699573772.0
-4.0,-71.0,6.0,5.0,3.0,0.0,0.0,1.0,1651024699573772.0
-11.0,34.0,1.0,-1.0,0.0,-1.0,-1.0,-5.0,1651024699574769.0
9.0,25.0,2.0,-2.0,4.0,0.0,-2.0,2.0,1651024699574769.0
-4.0,-10.0,-8.0,-7.0,-9.0,-4.0,-2.0,-1.0,1651024699596814.0
4.0,9.0,7.0,-2.0,-5.0,-1.0,-2.0,-1.0,1651024699596814.0
-6.0,-4.0,5.0,-2.0,2.0,2.0,-1.0,-1.0,1651024699597784.0
-3.0,-44.0,-10.0,3.0,7.0,2.0,2.0,-1.0,1651024699597784.0
17.0,44.0,16.0,16.0,3.0,1.0,5.0,7.0,1651024699619742.0
-5.0,-25.0,-7.0,-2.0,-1.0,0.0,-1.0,0.0,1651024699619742.0
23.0,46.0,17.0,11.0,9.0,5.0,4.0,6.0,1651024699619742.0
5.0,20.0,6.0,-3.0,-7.0,-1.0,0.0,1.0,1651024699619742.0
-13.0,-35.0,-17.0,-16.0,-1.0,-3.0,-1.0,-5.0,1651024699633689.0
8.0,40.0,11.0,12.0,10.0,5.0,4.0,6.0,1651024699633689.0
-17.0,-49.0,1.0,-1.0,-3.0,-4.0,-2.0,-6.0,1651024699634685.0
12.0,19.0,5.0,1.0,2.0,1.0,3.0,4.0,1651024699634685.0
-4.0,0.0,-5.0,-9.0,-16.0,-4.0,-2.0,-2.0,1651024699657348.0
5.0,31.0,10.0,6.0,16.0,1.0,0.0,1.0,1651024699657348.0
9.0,46.0,4.0,1.0,1.0,1.0,0.0,0.0,1651024699657903.0
4.0,48.0,4.0,-3.0,-5.0,-3.0,-1.0,0.0,1651024699657903.0
-3.0,-62.0,-13.0,0.0,1.0,2.0,0.0,1.0,1651024699679893.0
-15.0,-27.0,0.0,2.0,-2.0,1.0,-4.0,-5.0,1651024699679893.0
2.0,-9.0,-5.0,0.0,0.0,1.0,0.0,1.0,1651024699679893.0
9.0,25.0,0.0,-3.0,1.0,0.0,0.0,1.0,1651024699679893.0
-10.0,-22.0,-4.0,-2.0,-10.0,-5.0,-1.0,-3.0,1651024699693810.0
-19.0,-21.0,-11.0,-3.0,2.0,0.0,-4.0,-5.0,1651024699693810.0
-5.0,-10.0,-6.0,0.0,5.0,1.0,1.0,0.0,1651024699694828.0
5.0,2.0,4.0,1.0,-6.0,-3.0,-1.0,-2.0,1651024699694828.0
-6.0,10.0,-3.0,-2.0,9.0,1.0,0.0,-2.0,1651024699716876.0
-3.0,-11.0,-1.0,-1.0,-2.0,0.0,3.0,-1.0,1651024699716876.0
-4.0,5.0,1.0,-1.0,-2.0,-4.0,-2.0,-3.0,1651024699717875.0
-7.0,-7.0,-3.0,-2.0,3.0,0.0,0.0,-2.0,1651024699717875.0
16.0,33.0,3.0,-2.0,-5.0,-3.0,-1.0,4.0,1651024699739958.0
-2.0,23.0,-1.0,-5.0,-6.0,-2.0,-2.0,0.0,1651024699739958.0
4.0,-50.0,0.0,0.0,1.0,0.0,-2.0,2.0,1651024699740889.0
-25.0,-10.0,-11.0,-4.0,0.0,-1.0,-5.0,-6.0,1651024699740889.0
7.0,1.0,0.0,0.0,-1.0,1.0,1.0,4.0,1651024699754206.0
4.0,24.0,5.0,-4.0,-6.0,-3.0,-1.0,-3.0,1651024699754206.0
7.0,11.0,5.0,2.0,1.0,2.0,1.0,2.0,1651024699754921.0
0.0,-11.0,-4.0,-1.0,0.0,-2.0,-1.0,0.0,1651024699754921.0
-9.0,-3.0,-1.0,-3.0,-3.0,1.0,0.0,-3.0,1651024699776777.0
8.0,1.0,-1.0,-5.0,0.0,-2.0,-2.0,-3.0,1651024699776777.0
2.0,16.0,4.0,11.0,9.0,6.0,3.0,5.0,1651024699777789.0
1.0,18.0,0.0,-7.0,-8.0,-5.0,-4.0,-6.0,1651024699777789.0
5.0,-5.0,5.0,4.0,-6.0,0.0,1.0,1.0,1651024699799777.0
-3.0,0.0,5.0,5.0,5.0,-1.0,0.0,0.0,1651024699799777.0
3.0,0.0,-5.0,-2.0,1.0,-1.0,1.0,0.0,1651024699800714.0
3.0,9.0,4.0,3.0,4.0,4.0,1.0,2.0,1651024699800714.0
-14.0,8.0,-9.0,-7.0,-6.0,-3.0,-4.0,-6.0,1651024699812706.0
-4.0,-20.0,-6.0,-5.0,-9.0,-1.0,-1.0,-3.0,1651024699812706.0
0.0,-4.0,-2.0,-10.0,-6.0,-1.0,-1.0,0.0,1651024699821722.0
-11.0,-19.0,-5.0,6.0,4.0,0.0,0.0,-2.0,1651024699821722.0
6.0,30.0,10.0,3.0,0.0,1.0,1.0,1.0,1651024699836622.0
-3.0,-75.0,-12.0,-2.0,-3.0,-3.0,-2.0,-3.0,1651024699836622.0
3.0,14.0,2.0,5.0,8.0,6.0,2.0,0.0,1651024699838612.0
-4.0,-48.0,-11.0,-11.0,-10.0,-3.0,-3.0,-4.0,1651024699838612.0
14.0,20.0,10.0,3.0,0.0,2.0,2.0,3.0,1651024699859693.0
-13.0,-18.0,-13.0,-3.0,-3.0,-1.0,0.0,-4.0,1651024699859693.0
4.0,6.0,1.0,-11.0,-6.0,-2.0,2.0,3.0,1651024699861652.0
2.0,0.0,5.0,16.0,3.0,1.0,1.0,1.0,1651024699861652.0
-1.0,-10.0,-2.0,-3.0,2.0,-1.0,0.0,1.0,1651024699873609.0
9.0,34.0,10.0,10.0,2.0,1.0,-1.0,1.0,1651024699873609.0
-4.0,-21.0,-6.0,6.0,-1.0,-1.0,-1.0,-2.0,1651024699882573.0
10.0,24.0,0.0,-5.0,2.0,0.0,1.0,3.0,1651024699882573.0
-8.0,-12.0,-5.0,-3.0,2.0,-1.0,-2.0,-5.0,1651024699897902.0
0.0,24.0,3.0,-4.0,-4.0,-1.0,1.0,4.0,1651024699897902.0
-6.0,-55.0,-7.0,-4.0,-3.0,-2.0,-3.0,-1.0,1651024699898912.0
1.0,20.0,7.0,1.0,1.0,1.0,0.0,-1.0,1651024699898912.0
9.0,5.0,0.0,1.0,-2.0,-1.0,1.0,2.0,1651024699919961.0
-5.0,-7.0,2.0,-2.0,-5.0,-1.0,1.0,-2.0,1651024699919961.0
0.0,22.0,2.0,-1.0,2.0,1.0,-1.0,-2.0,1651024699920931.0
-4.0,-12.0,-4.0,-1.0,9.0,2.0,0.0,-2.0,1651024699920931.0
-5.0,-22.0,-3.0,3.0,6.0,-2.0,-1.0,0.0,1651024699932959.0
-12.0,-7.0,-7.0,-4.0,-10.0,-3.0,-4.0,-5.0,1651024699932959.0
17.0,62.0,17.0,3.0,7.0,1.0,1.0,4.0,1651024699942407.0
-2.0,-43.0,-9.0,-6.0,-5.0,1.0,-1.0,-2.0,1651024699942407.0
-6.0,3.0,-5.0,-2.0,2.0,-2.0,-1.0,-3.0,1651024699957394.0
4.0,2.0,4.0,1.0,-2.0,0.0,1.0,4.0,1651024699957394.0
3.0,21.0,2.0,-3.0,-7.0,-4.0,-3.0,-3.0,1651024699958363.0
-15.0,-10.0,-3.0,-1.0,-3.0,-3.0,-4.0,-6.0,1651024699958363.0
1.0,10.0,3.0,4.0,6.0,2.0,1.0,1.0,1651024699979307.0
-1.0,10.0,2.0,-5.0,-1.0,-1.0,-1.0,-1.0,1651024699979307.0
-14.0,-5.0,-7.0,-3.0,-6.0,-2.0,-1.0,-3.0,1651024699981303.0
4.0,10.0,3.0,0.0,4.0,0.0,3.0,4.0,1651024699981303.0
-2.0,-9.0,-5.0,-4.0,-4.0,-1.0,-1.0,0.0,1651024699993356.0
-5.0,-31.0,-7.0,-1.0,-2.0,-2.0,-3.0,-3.0,1651024699993356.0
-16.0,-3.0,-2.0,5.0,3.0,0.0,-2.0,-5.0,1651024700002549.0
5.0,35.0,2.0,-5.0,-1.0,0.0,0.0,2.0,1651024700002549.0
-6.0,-1.0,0.0,-3.0,-7.0,-1.0,-1.0,-1.0,1651024700016702.0
5.0,13.0,3.0,-1.0,2.0,2.0,0.0,2.0,1651024700016702.0
2.0,-7.0,-3.0,-1.0,0.0,-1.0,0.0,0.0,1651024700018697.0
1.0,15.0,6.0,5.0,7.0,1.0,0.0,1.0,1651024700018697.0
-4.0,-29.0,-7.0,-7.0,-8.0,0.0,-1.0,-1.0,1651024700039369.0
16.0,30.0,6.0,3.0,-2.0,-1.0,2.0,3.0,1651024700039369.0
2.0,-16.0,-1.0,3.0,2.0,3.0,-1.0,0.0,1651024700041391.0
9.0,18.0,7.0,4.0,2.0,0.0,2.0,3.0,1651024700041391.0
2.0,8.0,-3.0,0.0,4.0,-1.0,-3.0,0.0,1651024700053362.0
4.0,6.0,4.0,1.0,-1.0,0.0,1.0,2.0,1651024700053362.0
-5.0,-13.0,-3.0,-3.0,-6.0,-4.0,0.0,-2.0,1651024700062309.0
-1.0,48.0,5.0,-1.0,0.0,1.0,1.0,1.0,1651024700062309.0
0.0,-43.0,-3.0,4.0,2.0,0.0,0.0,-1.0,1651024700077334.0
2.0,7.0,0.0,-1.0,0.0,-1.0,0.0,-1.0,1651024700077334.0
2.0,6.0,-1.0,-2.0,0.0,-2.0,0.0,0.0,1651024700078278.0
-3.0,-23.0,-6.0,-3.0,-5.0,-2.0,-2.0,-1.0,1651024700078278.0
-2.0,29.0,2.0,-1.0,1.0,0.0,0.0,0.0,1651024700100448.0
-8.0,-13.0,-4.0,-2.0,2.0,1.0,0.0,0.0,1651024700100448.0
4.0,-1.0,3.0,5.0,4.0,0.0,-1.0,-1.0,1651024700101433.0
-7.0,-26.0,-6.0,0.0,-6.0,-4.0,-3.0,-5.0,1651024700101433.0
2.0,15.0,1.0,0.0,0.0,0.0,-1.0,-1.0,1651024700113410.0
2.0,-5.0,-1.0,0.0,5.0,1.0,-1.0,0.0,1651024700113410.0
0.0,11.0,0.0,0.0,-4.0,0.0,-1.0,0.0,1651024700122385.0
5.0,-29.0,-6.0,-4.0,-5.0,-4.0,-2.0,-3.0,1651024700122385.0
-1.0,5.0,2.0,0.0,5.0,4.0,0.0,-2.0,1651024700137386.0
0.0,4.0,0.0,-2.0,1.0,-1.0,0.0,-1.0,1651024700137386.0
6.0,16.0,-1.0,-2.0,-4.0,-2.0,0.0,0.0,1651024700138895.0
1.0,12.0,-1.0,-2.0,-14.0,-2.0,1.0,2.0,1651024700138895.0
3.0,7.0,0.0,-1.0,13.0,-1.0,0.0,-2.0,1651024700159881.0
7.0,-23.0,0.0,6.0,6.0,4.0,2.0,1.0,1651024700159881.0
-6.0,-3.0,-2.0,2.0,-3.0,0.0,0.0,-1.0,1651024700160810.0
6.0,11.0,0.0,-2.0,-14.0,-5.0,0.0,0.0,1651024700160810.0
-6.0,10.0,2.0,0.0,6.0,4.0,1.0,2.0,1651024700172968.0
2.0,-1.0,1.0,-2.0,0.0,-3.0,-1.0,0.0,1651024700172968.0
-6.0,-32.0,-4.0,0.0,0.0,0.0,0.0,1.0,1651024700182068.0
1.0,13.0,2.0,2.0,3.0,3.0,0.0,-1.0,1651024700182068.0
2.0,-21.0,-5.0,0.0,-6.0,-2.0,0.0,0.0,1651024700197068.0
3.0,12.0,4.0,1.0,0.0,1.0,0.0,0.0,1651024700197068.0
3.0,7.0,1.0,-1.0,0.0,0.0,-1.0,-1.0,1651024700199004.0
-6.0,-13.0,-1.0,-1.0,4.0,0.0,-1.0,-2.0,1651024700199004.0
1.0,-2.0,0.0,-2.0,-2.0,-2.0,-1.0,0.0,1651024700219495.0
0.0,22.0,3.0,3.0,3.0,2.0,-1.0,0.0,1651024700219495.0
-2.0,-9.0,-2.0,0.0,-4.0,-2.0,0.0,0.0,1651024700221490.0
0.0,-37.0,-3.0,0.0,3.0,2.0,-1.0,3.0,1651024700221490.0
4.0,17.0,3.0,3.0,-4.0,-1.0,0.0,0.0,1651024700233459.0
-13.0,3.0,-8.0,-7.0,-7.0,-3.0,-3.0,-3.0,1651024700233459.0
9.0,3.0,-3.0,-2.0,0.0,-1.0,-2.0,2.0,1651024700242434.0
-4.0,-61.0,-10.0,-1.0,4.0,1.0,1.0,-2.0,1651024700242434.0
-10.0,-9.0,1.0,1.0,-3.0,-3.0,0.0,-2.0,1651024700257384.0
3.0,7.0,4.0,2.0,-1.0,-2.0,0.0,0.0,1651024700257384.0
-2.0,22.0,-2.0,-5.0,-1.0,0.0,-2.0,-3.0,1651024700258367.0
1.0,-1.0,-1.0,-1.0,2.0,0.0,1.0,0.0,1651024700258367.0
-6.0,-1.0,-4.0,-2.0,-3.0,-2.0,-2.0,-1.0,1651024700279311.0
-2.0,-15.0,-2.0,2.0,2.0,0.0,-2.0,0.0,1651024700279311.0
-4.0,5.0,2.0,-4.0,0.0,0.0,-2.0,0.0,1651024700281330.0
4.0,38.0,8.0,3.0,-1.0,1.0,-1.0,-1.0,1651024700281330.0
1.0,-9.0,3.0,3.0,-9.0,-1.0,0.0,-2.0,1651024700293346.0
5.0,30.0,3.0,-3.0,6.0,-1.0,0.0,0.0,1651024700293346.0
-8.0,-20.0,0.0,2.0,14.0,3.0,0.0,-2.0,1651024700302350.0
-8.0,7.0,-2.0,0.0,-4.0,-3.0,0.0,0.0,1651024700302350.0
3.0,-7.0,1.0,1.0,0.0,-1.0,0.0,2.0,1651024700317373.0
8.0,7.0,-2.0,-1.0,-10.0,-4.0,1.0,0.0,1651024700317373.0
-6.0,-19.0,-3.0,-8.0,-4.0,-1.0,-1.0,-3.0,1651024700318310.0
-3.0,-44.0,-4.0,2.0,8.0,3.0,1.0,1.0,1651024700318310.0
8.0,11.0,4.0,1.0,-3.0,1.0,1.0,-1.0,1651024700339284.0
-3.0,-7.0,0.0,1.0,-1.0,1.0,0.0,0.0,1651024700339284.0
4.0,10.0,1.0,-1.0,-6.0,-4.0,-1.0,-1.0,1651024700341268.0
0.0,1.0,-6.0,-7.0,-11.0,-3.0,-1.0,-1.0,1651024700341268.0
2.0,7.0,-2.0,-3.0,11.0,4.0,0.0,1.0,1651024700361886.0
1.0,14.0,4.0,3.0,3.0,1.0,0.0,1.0,1651024700361886.0
12.0,-17.0,6.0,3.0,1.0,0.0,1.0,5.0,1651024700363882.0
0.0,4.0,0.0,0.0,0.0,-1.0,0.0,1.0,1651024700363882.0
3.0,19.0,0.0,-1.0,-6.0,-2.0,-2.0,0.0,1651024700376913.0
-6.0,-19.0,-6.0,-3.0,2.0,-1.0,-1.0,-1.0,1651024700376913.0
-2.0,-2.0,-3.0,-1.0,-7.0,-2.0,1.0,-1.0,1651024700378866.0
0.0,1.0,0.0,-2.0,-1.0,-1.0,-1.0,0.0,1651024700378866.0
-6.0,-41.0,-1.0,7.0,19.0,3.0,0.0,-2.0,1651024700399852.0
5.0,63.0,9.0,-2.0,-6.0,0.0,-1.0,-1.0,1651024700399852.0
-4.0,-6.0,-3.0,4.0,-2.0,0.0,0.0,-3.0,1651024700400794.0
-2.0,-11.0,-3.0,-3.0,-3.0,1.0,-1.0,-1.0,1651024700400794.0
2.0,-9.0,-6.0,-9.0,-19.0,-7.0,-2.0,-1.0,1651024700422477.0
-2.0,-20.0,-1.0,1.0,17.0,2.0,-1.0,-1.0,1651024700422477.0
6.0,29.0,1.0,2.0,-2.0,1.0,1.0,0.0,1651024700423477.0
-4.0,35.0,5.0,-2.0,2.0,0.0,0.0,1.0,1651024700423477.0
-2.0,-16.0,-3.0,7.0,-1.0,-1.0,-1.0,1.0,1651024700436970.0
-3.0,-22.0,-2.0,0.0,-5.0,-4.0,1.0,0.0,1651024700436970.0
-1.0,-29.0,-5.0,-4.0,-1.0,-1.0,-1.0,-3.0,1651024700438927.0
1.0,36.0,6.0,-3.0,3.0,-2.0,0.0,0.0,1651024700438927.0
1.0,11.0,-2.0,1.0,-1.0,-1.0,-3.0,-1.0,1651024700459437.0
-5.0,-10.0,-3.0,-3.0,-8.0,0.0,0.0,-2.0,1651024700459437.0
-3.0,-1.0,-3.0,1.0,6.0,3.0,-1.0,0.0,1651024700461362.0
-2.0,-18.0,-2.0,0.0,2.0,1.0,0.0,-1.0,1651024700461362.0
-3.0,-2.0,-4.0,-4.0,-7.0,-2.0,0.0,-1.0,1651024700482373.0
-2.0,0.0,-3.0,-4.0,-2.0,-2.0,-2.0,-2.0,1651024700482373.0
-5.0,-5.0,-5.0,-5.0,-10.0,-2.0,-1.0,-1.0,1651024700483308.0
-9.0,-38.0,-7.0,1.0,13.0,-1.0,-1.0,-3.0,1651024700483308.0
2.0,19.0,1.0,-1.0,-1.0,0.0,0.0,2.0,1651024700496271.0
-5.0,-52.0,-4.0,3.0,-1.0,0.0,0.0,-3.0,1651024700496271.0
1.0,5.0,0.0,-1.0,-4.0,-1.0,1.0,2.0,1651024700504426.0
1.0,10.0,-3.0,-2.0,-5.0,1.0,0.0,-1.0,1651024700504426.0
-1.0,5.0,-1.0,-5.0,0.0,0.0,1.0,0.0,1651024700519443.0
6.0,-5.0,0.0,8.0,-1.0,0.0,1.0,2.0,1651024700519443.0
-1.0,23.0,3.0,-5.0,-2.0,-2.0,0.0,0.0,1651024700521370.0
-4.0,-19.0,-8.0,-2.0,0.0,-1.0,-3.0,-4.0,1651024700521370.0
-8.0,11.0,3.0,1.0,1.0,1.0,-1.0,-1.0,1651024700542420.0
1.0,-1.0,-1.0,3.0,-2.0,0.0,-1.0,2.0,1651024700542420.0
0.0,15.0,5.0,5.0,3.0,-1.0,-2.0,-3.0,1651024700543421.0
6.0,11.0,2.0,-9.0,-2.0,-2.0,1.0,0.0,1651024700543421.0
2.0,6.0,-2.0,3.0,-5.0,0.0,-2.0,-2.0,1651024700555969.0
-4.0,27.0,5.0,-1.0,5.0,-2.0,-1.0,-2.0,1651024700555969.0
5.0,14.0,5.0,4.0,11.0,4.0,0.0,3.0,1651024700563004.0
-9.0,-45.0,-11.0,0.0,-4.0,-1.0,-1.0,0.0,1651024700563004.0
4.0,34.0,4.0,-8.0,-4.0,-2.0,0.0,-1.0,1651024700579918.0
-8.0,-18.0,-1.0,-5.0,-6.0,-2.0,-1.0,-2.0,1651024700579918.0
-2.0,-4.0,-1.0,-2.0,-3.0,-2.0,-1.0,3.0,1651024700580914.0
0.0,23.0,-1.0,-1.0,-1.0,0.0,-1.0,-3.0,1651024700580914.0
-7.0,-17.0,-1.0,2.0,1.0,0.0,0.0,0.0,1651024700602476.0
2.0,3.0,0.0,-1.0,-5.0,0.0,-1.0,-1.0,1651024700602476.0
-2.0,-26.0,-3.0,-1.0,7.0,-2.0,2.0,-1.0,1651024700603483.0
4.0,1.0,1.0,3.0,2.0,0.0,0.0,0.0,1651024700603483.0
-5.0,-23.0,-7.0,-10.0,-6.0,-2.0,-2.0,-4.0,1651024700616822.0
2.0,7.0,0.0,-2.0,0.0,-1.0,2.0,-2.0,1651024700616822.0
-2.0,-15.0,-1.0,-2.0,-6.0,-1.0,-2.0,0.0,1651024700622875.0
-3.0,8.0,2.0,-5.0,-6.0,-2.0,-2.0,-2.0,1651024700622875.0
-2.0,17.0,2.0,6.0,-5.0,-3.0,-1.0,1.0,1651024700639953.0
-2.0,-15.0,-5.0,-11.0,8.0,5.0,0.0,0.0,1651024700639953.0
-4.0,-12.0,-10.0,-8.0,-6.0,-2.0,1.0,-3.0,1651024700640913.0
5.0,21.0,9.0,6.0,-2.0,-3.0,0.0,2.0,1651024700640913.0
1.0,-4.0,9.0,9.0,-9.0,-1.0,2.0,1.0,1651024700661783.0
-10.0,19.0,-1.0,5.0,13.0,4.0,-1.0,-2.0,1651024700661783.0
2.0,2.0,2.0,6.0,2.0,1.0,0.0,1.0,1651024700663711.0
1.0,19.0,-1.0,-6.0,-4.0,-3.0,-1.0,1.0,1651024700663711.0
-1.0,-9.0,-4.0,-8.0,-3.0,-2.0,-1.0,-1.0,1651024700676738.0
5.0,3.0,-2.0,-6.0,-18.0,-7.0,-1.0,-2.0,1651024700676738.0
-1.0,-5.0,-3.0,10.0,25.0,4.0,-2.0,-1.0,1651024700683658.0
0.0,10.0,5.0,2.0,-1.0,2.0,2.0,-1.0,1651024700683658.0
1.0,0.0,-1.0,-4.0,1.0,-1.0,-1.0,-2.0,1651024700699615.0
-2.0,-9.0,-4.0,-5.0,-8.0,-4.0,-1.0,-1.0,1651024700699615.0
-1.0,-3.0,-5.0,-4.0,-5.0,1.0,-1.0,0.0,1651024700700639.0
0.0,-10.0,-5.0,-6.0,2.0,1.0,0.0,0.0,1651024700700639.0
5.0,10.0,5.0,15.0,13.0,7.0,3.0,2.0,1651024700721834.0
2.0,19.0,8.0,5.0,-11.0,-4.0,-2.0,0.0,1651024700721834.0
-3.0,1.0,-6.0,-4.0,2.0,-1.0,-2.0,-3.0,1651024700723762.0
0.0,-2.0,7.0,3.0,-6.0,-1.0,0.0,-2.0,1651024700723762.0
9.0,31.0,-1.0,-10.0,14.0,1.0,1.0,2.0,1651024700736794.0
-6.0,-35.0,-21.0,-29.0,-12.0,-1.0,0.0,1.0,1651024700736794.0
0.0,5.0,9.0,2.0,-16.0,-5.0,1.0,-1.0,1651024700743392.0
1.0,-1.0,3.0,38.0,38.0,11.0,1.0,3.0,1651024700743392.0
-6.0,-9.0,-9.0,-11.0,-3.0,0.0,-2.0,-3.0,1651024700759416.0
-1.0,-6.0,11.0,9.0,-6.0,-7.0,-3.0,-2.0,1651024700759416.0
-4.0,-3.0,-11.0,-28.0,-8.0,-1.0,-2.0,-1.0,1651024700761371.0
3.0,4.0,14.0,2.0,-3.0,-1.0,1.0,2.0,1651024700761371.0
-4.0,-18.0,-14.0,7.0,6.0,1.0,0.0,-2.0,1651024700782312.0
3.0,-2.0,-19.0,-1.0,14.0,4.0,0.0,2.0,1651024700782312.0
-2.0,-2.0,-2.0,-22.0,-26.0,-7.0,-1.0,-1.0,1651024700783293.0
-10.0,-7.0,1.0,12.0,-2.0,-6.0,-4.0,-6.0,1651024700783293.0
3.0,1.0,9.0,8.0,3.0,1.0,-2.0,-1.0,1651024700796328.0
2.0,12.0,6.0,-9.0,-6.0,0.0,-1.0,0.0,1651024700796328.0
0.0,2.0,4.0,0.0,9.0,2.0,-1.0,0.0,1651024700803320.0
5.0,8.0,4.0,-6.0,3.0,0.0,1.0,3.0,1651024700803320.0
-10.0,-30.0,-30.0,-3.0,-3.0,-3.0,0.0,-2.0,1651024700819279.0
0.0,7.0,31.0,21.0,8.0,1.0,-1.0,-1.0,1651024700819279.0
-3.0,-4.0,-2.0,-1.0,-6.0,-6.0,-2.0,-4.0,1651024700821261.0
3.0,3.0,5.0,14.0,2.0,2.0,1.0,3.0,1651024700821261.0
4.0,13.0,17.0,0.0,1.0,0.0,1.0,2.0,1651024700841208.0
-3.0,-26.0,-55.0,-12.0,-7.0,-3.0,-6.0,0.0,1651024700841208.0
-12.0,-9.0,20.0,2.0,-15.0,-6.0,0.0,-8.0,1651024700849186.0
-3.0,-6.0,-18.0,-39.0,-6.0,-7.0,-5.0,-5.0,1651024700849186.0
-4.0,-22.0,-48.0,-15.0,-4.0,-2.0,-1.0,-1.0,1651024700855170.0
-6.0,4.0,61.0,73.0,16.0,0.0,-2.0,-4.0,1651024700855170.0
14.0,41.0,35.0,18.0,6.0,1.0,0.0,3.0,1651024700864147.0
-16.0,-54.0,-44.0,-20.0,0.0,3.0,-4.0,-5.0,1651024700864147.0
9.0,27.0,9.0,-21.0,-10.0,-2.0,1.0,4.0,1651024700879134.0
5.0,-2.0,0.0,-12.0,8.0,4.0,7.0,8.0,1651024700879134.0
-3.0,-10.0,-25.0,9.0,12.0,1.0,-6.0,-4.0,1651024700881102.0
5.0,16.0,22.0,11.0,-5.0,-5.0,0.0,1.0,1651024700881102.0
-2.0,-6.0,-4.0,-1.0,-5.0,-13.0,-36.0,-17.0,1651024700902165.0
2.0,4.0,-6.0,-15.0,-7.0,-4.0,3.0,4.0,1651024700902165.0
19.0,35.0,33.0,12.0,13.0,18.0,21.0,21.0,1651024700903162.0
5.0,4.0,-1.0,-8.0,15.0,55.0,37.0,12.0,1651024700903162.0
3.0,0.0,-1.0,0.0,-6.0,-17.0,-8.0,-4.0,1651024700915131.0
-15.0,-17.0,-16.0,5.0,-1.0,-28.0,-25.0,-18.0,1651024700915131.0
12.0,16.0,16.0,8.0,5.0,13.0,12.0,7.0,1651024700924106.0
0.0,8.0,6.0,-15.0,-14.0,-9.0,-19.0,-5.0,1651024700924106.0
-1.0,11.0,30.0,47.0,20.0,9.0,10.0,4.0,1651024700939098.0
5.0,5.0,-24.0,-24.0,-6.0,6.0,-20.0,-6.0,1651024700939098.0
-9.0,-24.0,-8.0,2.0,-9.0,-22.0,-3.0,-2.0,1651024700941065.0
8.0,14.0,-4.0,14.0,-1.0,-6.0,1.0,5.0,1651024700941065.0
-11.0,-16.0,8.0,-38.0,-17.0,2.0,8.0,-2.0,1651024700962044.0
6.0,17.0,3.0,-4.0,3.0,-11.0,-15.0,-3.0,1651024700962044.0
-10.0,-31.0,-43.0,-16.0,-8.0,-11.0,-12.0,-6.0,1651024700968027.0
4.0,19.0,32.0,4.0,-8.0,-3.0,0.0,0.0,1651024700968027.0
-2.0,-2.0,-10.0,16.0,5.0,-7.0,-22.0,-6.0,1651024700976009.0
4.0,4.0,4.0,8.0,5.0,15.0,24.0,4.0,1651024700976009.0
-9.0,-28.0,-30.0,-30.0,-17.0,-2.0,8.0,3.0,1651024700984943.0
-3.0,4.0,15.0,26.0,11.0,-21.0,-62.0,-26.0,1651024700984943.0
