EMG_s0,EMG_s1,EMG_s2,EMG_s3,EMG_s4,EMG_s5,EMG_s6,EMG_s7,timestamp
2.0,3.0,2.0,1.0,4.0,2.0,0.0,1.0,1651023939049137.0
0.0,1.0,2.0,0.0,-2.0,-1.0,-1.0,1.0,1651023939049137.0
-1.0,-2.0,-1.0,-1.0,-1.0,0.0,-2.0,0.0,1651023939050127.0
0.0,-3.0,0.0,-2.0,-2.0,-1.0,0.0,-1.0,1651023939050127.0
-1.0,-7.0,-4.0,-2.0,0.0,-2.0,0.0,-2.0,1651023939052125.0
0.0,7.0,0.0,-1.0,1.0,1.0,-1.0,0.0,1651023939052125.0
0.0,-8.0,-4.0,-1.0,-1.0,0.0,0.0,-2.0,1651023939054118.0
0.0,2.0,1.0,0.0,-1.0,-1.0,-2.0,1.0,1651023939054118.0
-1.0,0.0,-1.0,1.0,-2.0,0.0,-1.0,-2.0,1651023939059104.0
4.0,1.0,0.0,0.0,1.0,-2.0,1.0,-1.0,1651023939059104.0
-2.0,1.0,-1.0,-2.0,0.0,1.0,0.0,-1.0,1651023939074065.0
-1.0,-1.0,1.0,-1.0,1.0,-1.0,0.0,0.0,1651023939074065.0
-1.0,0.0,-1.0,-1.0,-2.0,-1.0,0.0,0.0,1651023939081045.0
-2.0,-1.0,-2.0,2.0,-1.0,-1.0,0.0,0.0,1651023939081045.0
0.0,1.0,-2.0,-1.0,-1.0,0.0,0.0,0.0,1651023939092016.0
0.0,1.0,-2.0,-1.0,-1.0,0.0,-1.0,-2.0,1651023939092016.0
2.0,5.0,1.0,0.0,-1.0,-1.0,-2.0,0.0,1651023939096033.0
-1.0,-1.0,1.0,-1.0,-1.0,-2.0,-2.0,-2.0,1651023939096033.0
-1.0,-2.0,-1.0,0.0,1.0,-1.0,-1.0,0.0,1651023939119277.0
-1.0,3.0,-1.0,0.0,1.0,-1.0,-1.0,-1.0,1651023939119277.0
3.0,2.0,1.0,0.0,0.0,0.0,-2.0,-1.0,1651023939158918.0
-5.0,-11.0,0.0,2.0,0.0,1.0,0.0,-1.0,1651023939158918.0
-2.0,-1.0,-3.0,-1.0,-1.0,-1.0,0.0,-1.0,1651023939159916.0
0.0,-1.0,-1.0,0.0,-2.0,0.0,0.0,0.0,1651023939159916.0
2.0,1.0,0.0,0.0,2.0,0.0,1.0,0.0,1651023939160936.0
2.0,3.0,-1.0,-1.0,-2.0,0.0,0.0,0.0,1651023939160936.0
0.0,-2.0,-1.0,-2.0,-1.0,-2.0,0.0,-1.0,1651023939162932.0
0.0,-2.0,1.0,0.0,0.0,-1.0,-1.0,-1.0,1651023939162932.0
-1.0,0.0,-3.0,-2.0,-2.0,0.0,0.0,-1.0,1651023939170913.0
0.0,1.0,0.0,0.0,1.0,0.0,-2.0,0.0,1651023939170913.0
-1.0,-1.0,0.0,0.0,0.0,0.0,-1.0,0.0,1651023939177873.0
1.0,2.0,-1.0,-1.0,-1.0,-1.0,0.0,-1.0,1651023939177873.0
-1.0,-1.0,-2.0,-1.0,-1.0,0.0,-1.0,-1.0,1651023939185848.0
0.0,0.0,-3.0,0.0,0.0,-1.0,0.0,-2.0,1651023939185848.0
0.0,0.0,1.0,0.0,0.0,0.0,-1.0,0.0,1651023939200969.0
-1.0,0.0,-1.0,-1.0,0.0,0.0,-3.0,1.0,1651023939200969.0
-1.0,-7.0,-2.0,-2.0,0.0,0.0,0.0,-1.0,1651023939208978.0
2.0,2.0,-2.0,0.0,0.0,-1.0,0.0,1.0,1651023939208978.0
-1.0,-1.0,2.0,2.0,-1.0,0.0,0.0,0.0,1651023939222992.0
2.0,0.0,0.0,-1.0,-2.0,-1.0,1.0,0.0,1651023939222992.0
0.0,1.0,0.0,0.0,0.0,0.0,-1.0,1.0,1651023939231914.0
2.0,0.0,2.0,-1.0,0.0,-2.0,-1.0,0.0,1651023939231914.0
-2.0,0.0,-2.0,1.0,0.0,-1.0,-1.0,-2.0,1651023939245973.0
0.0,1.0,0.0,-1.0,2.0,1.0,0.0,1.0,1651023939245973.0
0.0,2.0,-1.0,0.0,-1.0,-1.0,0.0,0.0,1651023939254978.0
3.0,0.0,1.0,1.0,0.0,2.0,0.0,1.0,1651023939254978.0
1.0,4.0,0.0,-2.0,-1.0,-2.0,-1.0,0.0,1651023939269921.0
0.0,13.0,2.0,-3.0,-2.0,-1.0,-1.0,1.0,1651023939269921.0
-4.0,-5.0,1.0,3.0,0.0,0.0,-2.0,-2.0,1651023939270909.0
-3.0,-6.0,-1.0,0.0,0.0,-1.0,-1.0,0.0,1651023939270909.0
0.0,0.0,0.0,-2.0,-2.0,-1.0,-1.0,-2.0,1651023939291950.0
0.0,2.0,-2.0,-1.0,-1.0,-1.0,0.0,0.0,1651023939291950.0
-1.0,-1.0,-1.0,-2.0,-1.0,-1.0,1.0,0.0,1651023939293946.0
-1.0,2.0,-1.0,-2.0,-2.0,-1.0,0.0,-1.0,1651023939293946.0
-1.0,-1.0,-2.0,-1.0,0.0,0.0,0.0,0.0,1651023939305979.0
-1.0,-1.0,-1.0,-2.0,2.0,-2.0,-1.0,0.0,1651023939305979.0
-3.0,-2.0,1.0,-2.0,-2.0,-1.0,0.0,-1.0,1651023939314832.0
-2.0,-3.0,0.0,-1.0,0.0,0.0,0.0,-2.0,1651023939314832.0
1.0,7.0,-1.0,-2.0,-3.0,1.0,-2.0,2.0,1651023939329876.0
-1.0,-12.0,-3.0,2.0,-1.0,1.0,0.0,0.0,1651023939329876.0
-1.0,0.0,-2.0,2.0,0.0,0.0,0.0,-1.0,1651023939330789.0
-1.0,6.0,-1.0,-2.0,0.0,0.0,1.0,0.0,1651023939330789.0
1.0,-2.0,1.0,1.0,-1.0,-1.0,0.0,1.0,1651023939351913.0
0.0,0.0,1.0,2.0,1.0,-1.0,0.0,-2.0,1651023939351913.0
-7.0,-6.0,-1.0,-1.0,-3.0,-1.0,-2.0,-2.0,1651023939353869.0
-1.0,7.0,-1.0,-5.0,-3.0,-2.0,-1.0,-1.0,1651023939353869.0
-1.0,-12.0,-3.0,1.0,0.0,-1.0,-1.0,-2.0,1651023939366026.0
-2.0,-7.0,-1.0,-1.0,0.0,0.0,1.0,0.0,1651023939366026.0
2.0,3.0,-1.0,-1.0,0.0,-1.0,0.0,1.0,1651023939374966.0
-1.0,5.0,-1.0,-1.0,-2.0,0.0,-2.0,-2.0,1651023939374966.0
-3.0,-19.0,-3.0,-2.0,-1.0,-1.0,-1.0,0.0,1651023939388923.0
-2.0,1.0,2.0,0.0,-1.0,-1.0,-1.0,-2.0,1651023939388923.0
3.0,2.0,-1.0,-3.0,-1.0,1.0,-2.0,1.0,1651023939390915.0
0.0,-4.0,0.0,0.0,1.0,-1.0,-1.0,-1.0,1651023939390915.0
1.0,2.0,-2.0,-2.0,-2.0,-2.0,0.0,-2.0,1651023939411930.0
-1.0,-2.0,-2.0,-1.0,-2.0,-1.0,0.0,0.0,1651023939411930.0
1.0,-2.0,-1.0,2.0,1.0,2.0,1.0,-2.0,1651023939413877.0
-3.0,-5.0,-1.0,0.0,-2.0,-2.0,-2.0,1.0,1651023939413877.0
2.0,2.0,1.0,-2.0,0.0,-1.0,0.0,-1.0,1651023939425920.0
-1.0,1.0,-2.0,-1.0,-2.0,-1.0,0.0,1.0,1651023939425920.0
0.0,0.0,-1.0,0.0,0.0,-1.0,-1.0,0.0,1651023939434856.0
0.0,-3.0,-1.0,-1.0,-2.0,-1.0,1.0,1.0,1651023939434856.0
-1.0,4.0,1.0,0.0,0.0,0.0,1.0,0.0,1651023939448927.0
-1.0,-5.0,0.0,0.0,-2.0,-1.0,-1.0,-1.0,1651023939448927.0
0.0,4.0,-1.0,-1.0,-3.0,-2.0,-2.0,-1.0,1651023939450920.0
2.0,0.0,0.0,2.0,4.0,0.0,0.0,-1.0,1651023939450920.0
-1.0,-6.0,-1.0,0.0,1.0,0.0,-1.0,-1.0,1651023939471945.0
0.0,3.0,-1.0,0.0,-1.0,-1.0,0.0,-1.0,1651023939471945.0
-1.0,-1.0,0.0,0.0,-3.0,-1.0,-1.0,0.0,1651023939473900.0
-3.0,-2.0,-2.0,-1.0,-2.0,1.0,1.0,-2.0,1651023939473900.0
-1.0,6.0,-1.0,-3.0,0.0,-1.0,-1.0,0.0,1651023939485851.0
3.0,2.0,1.0,2.0,2.0,0.0,-2.0,-1.0,1651023939485851.0
-6.0,-26.0,-6.0,-1.0,-1.0,-1.0,-2.0,-1.0,1651023939494818.0
1.0,3.0,2.0,1.0,0.0,-2.0,-2.0,1.0,1651023939494818.0
3.0,10.0,1.0,1.0,-1.0,1.0,1.0,1.0,1651023939516821.0
-3.0,0.0,0.0,-1.0,-3.0,1.0,-1.0,0.0,1651023939516821.0
1.0,4.0,2.0,-2.0,0.0,-1.0,0.0,0.0,1651023939518754.0
0.0,-3.0,1.0,1.0,-2.0,0.0,0.0,-1.0,1651023939518754.0
-2.0,2.0,-1.0,1.0,0.0,-2.0,-1.0,-1.0,1651023939532359.0
-2.0,-8.0,-3.0,-2.0,0.0,1.0,1.0,-1.0,1651023939532359.0
1.0,8.0,1.0,0.0,1.0,-1.0,2.0,1.0,1651023939533373.0
-1.0,-7.0,-1.0,-1.0,-1.0,-1.0,-1.0,0.0,1651023939533373.0
2.0,12.0,2.0,-1.0,-2.0,-1.0,-2.0,-1.0,1651023939545393.0
-2.0,-14.0,-2.0,0.0,-1.0,0.0,0.0,-2.0,1651023939545393.0
0.0,11.0,1.0,-3.0,0.0,-1.0,-2.0,0.0,1651023939554302.0
0.0,-7.0,-1.0,4.0,0.0,-1.0,0.0,-1.0,1651023939554302.0
-1.0,0.0,1.0,1.0,1.0,1.0,-2.0,-2.0,1651023939569263.0
0.0,3.0,0.0,0.0,2.0,-2.0,-2.0,0.0,1651023939569263.0
2.0,1.0,-2.0,0.0,0.0,0.0,0.0,-2.0,1651023939571289.0
-3.0,0.0,0.0,-2.0,-3.0,-1.0,-1.0,-2.0,1651023939571289.0
-2.0,-3.0,-4.0,-3.0,0.0,-2.0,-1.0,0.0,1651023939592133.0
-3.0,0.0,-1.0,0.0,-1.0,-2.0,-1.0,-1.0,1651023939592133.0
-1.0,-2.0,-2.0,-1.0,-1.0,-2.0,-1.0,0.0,1651023939593064.0
1.0,2.0,-3.0,-2.0,-1.0,-1.0,2.0,-2.0,1651023939593064.0
0.0,-3.0,-1.0,-1.0,0.0,-1.0,1.0,0.0,1651023939606029.0
-1.0,-5.0,-4.0,-5.0,-2.0,-2.0,-1.0,1.0,1651023939606029.0
-2.0,0.0,1.0,1.0,1.0,0.0,0.0,-1.0,1651023939614075.0
0.0,3.0,-1.0,-3.0,-1.0,-1.0,-3.0,-2.0,1651023939614075.0
-1.0,-4.0,1.0,0.0,-2.0,-1.0,-1.0,-1.0,1651023939629341.0
-1.0,-3.0,-2.0,0.0,4.0,1.0,0.0,1.0,1651023939629341.0
1.0,-6.0,1.0,1.0,-1.0,0.0,0.0,0.0,1651023939631274.0
0.0,2.0,-1.0,-1.0,1.0,-1.0,0.0,0.0,1651023939631274.0
2.0,7.0,0.0,0.0,-3.0,0.0,0.0,0.0,1651023939651998.0
-5.0,-2.0,-1.0,0.0,-2.0,0.0,1.0,-1.0,1651023939651998.0
-1.0,-1.0,-3.0,-1.0,-1.0,-1.0,0.0,1.0,1651023939653925.0
-1.0,-1.0,0.0,-2.0,-2.0,0.0,0.0,-1.0,1651023939653925.0
-2.0,0.0,-1.0,-1.0,1.0,-1.0,-1.0,0.0,1651023939665960.0
3.0,2.0,0.0,-1.0,0.0,-1.0,-1.0,0.0,1651023939665960.0
0.0,-2.0,0.0,0.0,0.0,0.0,-1.0,0.0,1651023939674935.0
-2.0,-1.0,-2.0,-2.0,-2.0,0.0,-1.0,-2.0,1651023939674935.0
-2.0,0.0,-2.0,1.0,1.0,1.0,0.0,0.0,1651023939688898.0
-2.0,-7.0,-1.0,-2.0,-4.0,-1.0,-1.0,-2.0,1651023939688898.0
0.0,7.0,-1.0,-2.0,-1.0,0.0,-1.0,-1.0,1651023939690893.0
3.0,-1.0,0.0,1.0,0.0,2.0,0.0,1.0,1651023939690893.0
-1.0,-5.0,-1.0,2.0,-1.0,-1.0,-2.0,-2.0,1651023939711983.0
1.0,1.0,-1.0,-4.0,-2.0,-1.0,1.0,-2.0,1651023939711983.0
0.0,2.0,0.0,2.0,1.0,-2.0,2.0,0.0,1651023939713949.0
0.0,2.0,2.0,0.0,1.0,1.0,-1.0,1.0,1651023939713949.0
-2.0,-2.0,-1.0,-3.0,-1.0,-3.0,0.0,0.0,1651023939726033.0
-1.0,-3.0,0.0,3.0,-1.0,1.0,0.0,-2.0,1651023939726033.0
-1.0,0.0,-3.0,-1.0,-1.0,0.0,1.0,-3.0,1651023939734979.0
1.0,10.0,-1.0,-3.0,2.0,-1.0,1.0,1.0,1651023939734979.0
-5.0,-20.0,-4.0,-4.0,-1.0,0.0,-1.0,0.0,1651023939749006.0
0.0,5.0,0.0,-2.0,0.0,-1.0,0.0,0.0,1651023939749006.0
0.0,-3.0,2.0,3.0,1.0,0.0,-1.0,-2.0,1651023939750934.0
0.0,-3.0,-2.0,1.0,-1.0,0.0,0.0,-1.0,1651023939750934.0
0.0,11.0,-2.0,0.0,-1.0,-1.0,1.0,-1.0,1651023939771955.0
0.0,1.0,0.0,0.0,2.0,2.0,0.0,0.0,1651023939771955.0
-5.0,-16.0,-5.0,-5.0,-1.0,-1.0,-1.0,0.0,1651023939773896.0
4.0,14.0,1.0,-4.0,-1.0,-2.0,0.0,0.0,1651023939773896.0
-4.0,-10.0,-3.0,2.0,-1.0,1.0,-2.0,-2.0,1651023939785908.0
0.0,0.0,0.0,-1.0,0.0,0.0,-1.0,-1.0,1651023939785908.0
2.0,0.0,-1.0,0.0,1.0,0.0,0.0,0.0,1651023939794845.0
-2.0,0.0,3.0,-1.0,-2.0,-1.0,0.0,1.0,1651023939794845.0
2.0,-1.0,1.0,-1.0,1.0,0.0,1.0,-1.0,1651023939809789.0
-1.0,3.0,0.0,-1.0,-2.0,0.0,-2.0,0.0,1651023939809789.0
1.0,4.0,2.0,1.0,-2.0,-2.0,-1.0,1.0,1651023939810774.0
-6.0,-6.0,-3.0,-1.0,-1.0,-2.0,-1.0,-1.0,1651023939810774.0
1.0,-2.0,0.0,-1.0,0.0,-1.0,0.0,-2.0,1651023939832291.0
2.0,1.0,-2.0,2.0,0.0,-1.0,-1.0,1.0,1651023939832291.0
0.0,2.0,-2.0,-4.0,-2.0,-1.0,0.0,0.0,1651023939833220.0
-2.0,-4.0,-2.0,0.0,0.0,1.0,-1.0,-1.0,1651023939833220.0
-1.0,3.0,0.0,-2.0,0.0,0.0,-1.0,1.0,1651023939845256.0
1.0,1.0,1.0,3.0,-1.0,-1.0,0.0,-1.0,1651023939845256.0
-1.0,0.0,1.0,0.0,0.0,-1.0,-1.0,-1.0,1651023939854165.0
-2.0,-5.0,1.0,2.0,-1.0,-1.0,0.0,0.0,1651023939854165.0
-1.0,0.0,0.0,-2.0,-2.0,0.0,-2.0,-1.0,1651023939869019.0
0.0,-8.0,-3.0,-2.0,1.0,0.0,0.0,0.0,1651023939869019.0
-2.0,1.0,0.0,-1.0,0.0,0.0,-1.0,-1.0,1651023939870954.0
0.0,-1.0,-2.0,-1.0,0.0,-1.0,-1.0,-1.0,1651023939870954.0
1.0,2.0,0.0,-1.0,-1.0,-1.0,0.0,-1.0,1651023939891953.0
-3.0,-3.0,-1.0,1.0,-1.0,-2.0,1.0,0.0,1651023939891953.0
0.0,1.0,0.0,1.0,-2.0,1.0,0.0,0.0,1651023939893899.0
-1.0,-4.0,-1.0,-2.0,2.0,0.0,-1.0,-1.0,1651023939893899.0
0.0,2.0,-3.0,-1.0,-2.0,-3.0,0.0,1.0,1651023939905920.0
1.0,4.0,0.0,-1.0,2.0,-1.0,-2.0,-1.0,1651023939905920.0
-2.0,-1.0,-2.0,-5.0,-1.0,1.0,1.0,-1.0,1651023939914829.0
1.0,2.0,0.0,0.0,-2.0,-1.0,-1.0,0.0,1651023939914829.0
-5.0,-18.0,3.0,9.0,3.0,0.0,0.0,-1.0,1651023939929903.0
-1.0,0.0,0.0,-1.0,-1.0,0.0,-1.0,0.0,1651023939929903.0
1.0,2.0,0.0,1.0,-1.0,-1.0,-2.0,-1.0,1651023939930900.0
-2.0,4.0,-1.0,-3.0,-1.0,0.0,-2.0,-1.0,1651023939930900.0
3.0,1.0,-1.0,-2.0,0.0,0.0,-2.0,-1.0,1651023939951992.0
-2.0,-5.0,0.0,0.0,1.0,0.0,0.0,-1.0,1651023939951992.0
0.0,5.0,0.0,-2.0,-1.0,-2.0,-1.0,-2.0,1651023939953932.0
-1.0,-5.0,-2.0,0.0,-2.0,0.0,1.0,0.0,1651023939953932.0
-2.0,2.0,-3.0,-1.0,-2.0,0.0,-1.0,0.0,1651023939965918.0
1.0,2.0,3.0,4.0,0.0,0.0,0.0,0.0,1651023939965918.0
0.0,4.0,-1.0,-3.0,1.0,0.0,-1.0,0.0,1651023939975006.0
1.0,-6.0,-2.0,2.0,0.0,-1.0,0.0,-1.0,1651023939975006.0
-1.0,-2.0,-1.0,-2.0,-2.0,0.0,-1.0,0.0,1651023939989854.0
1.0,1.0,-2.0,-1.0,1.0,-1.0,-2.0,-1.0,1651023939989854.0
0.0,-1.0,0.0,1.0,-3.0,1.0,-1.0,0.0,1651023939990811.0
0.0,-5.0,-2.0,0.0,3.0,-2.0,-1.0,-1.0,1651023939990811.0
-3.0,-1.0,-1.0,-2.0,-2.0,-1.0,0.0,-1.0,1651023940011754.0
-2.0,0.0,-1.0,-3.0,-2.0,-1.0,0.0,-2.0,1651023940011754.0
-2.0,-1.0,0.0,0.0,-1.0,-2.0,-1.0,-1.0,1651023940013749.0
1.0,2.0,1.0,-1.0,-1.0,-1.0,0.0,0.0,1651023940013749.0
2.0,4.0,-2.0,-2.0,1.0,0.0,0.0,0.0,1651023940025926.0
-1.0,-1.0,-1.0,-1.0,-2.0,-2.0,-2.0,-1.0,1651023940025926.0
-2.0,-5.0,0.0,0.0,0.0,1.0,0.0,1.0,1651023940034697.0
1.0,7.0,2.0,-4.0,-1.0,0.0,0.0,0.0,1651023940034697.0
-1.0,1.0,3.0,3.0,3.0,2.0,0.0,1.0,1651023940049774.0
-2.0,2.0,1.0,-1.0,-1.0,0.0,-1.0,0.0,1651023940049774.0
0.0,-5.0,-1.0,-1.0,0.0,1.0,-1.0,0.0,1651023940050710.0
-4.0,-2.0,-4.0,-8.0,-6.0,-3.0,-3.0,-1.0,1651023940050710.0
1.0,1.0,0.0,-2.0,0.0,-3.0,1.0,1.0,1651023940071944.0
1.0,6.0,-1.0,1.0,1.0,-1.0,0.0,-1.0,1651023940071944.0
0.0,1.0,3.0,3.0,0.0,-1.0,-1.0,0.0,1651023940073952.0
-1.0,-10.0,-1.0,2.0,0.0,0.0,-1.0,0.0,1651023940073952.0
-4.0,-9.0,-3.0,-2.0,-3.0,-2.0,-3.0,-3.0,1651023940085949.0
1.0,8.0,0.0,-3.0,0.0,-1.0,0.0,0.0,1651023940085949.0
-2.0,-1.0,0.0,-1.0,0.0,-2.0,0.0,-2.0,1651023940101945.0
-1.0,1.0,1.0,2.0,2.0,0.0,0.0,0.0,1651023940101945.0
1.0,7.0,-1.0,0.0,-1.0,-1.0,0.0,-1.0,1651023940108954.0
-3.0,-2.0,-1.0,0.0,0.0,-2.0,-1.0,-1.0,1651023940108954.0
-1.0,-9.0,-4.0,-2.0,-2.0,-3.0,-2.0,-1.0,1651023940110920.0
1.0,1.0,0.0,0.0,0.0,0.0,0.0,-1.0,1651023940110920.0
-1.0,0.0,-1.0,-1.0,1.0,0.0,-2.0,-2.0,1651023940130934.0
-1.0,2.0,-2.0,-1.0,-1.0,-1.0,1.0,-1.0,1651023940130934.0
2.0,1.0,-2.0,-1.0,1.0,1.0,1.0,0.0,1651023940137870.0
-3.0,-1.0,1.0,0.0,-1.0,-1.0,-1.0,-3.0,1651023940137870.0
-2.0,-2.0,-3.0,-2.0,-2.0,-1.0,0.0,-1.0,1651023940154922.0
0.0,0.0,1.0,-2.0,-4.0,-1.0,0.0,0.0,1651023940154922.0
2.0,9.0,1.0,1.0,2.0,0.0,0.0,0.0,1651023940155921.0
0.0,-14.0,-1.0,3.0,-1.0,-1.0,0.0,1.0,1651023940155921.0
-1.0,0.0,2.0,4.0,-2.0,-1.0,-2.0,-2.0,1651023940177176.0
0.0,-1.0,0.0,-1.0,0.0,1.0,-2.0,-1.0,1651023940177176.0
-1.0,-3.0,-4.0,-4.0,-1.0,-1.0,0.0,-1.0,1651023940178188.0
-1.0,6.0,0.0,-1.0,2.0,1.0,0.0,-2.0,1651023940178188.0
0.0,2.0,0.0,3.0,-1.0,-1.0,-2.0,0.0,1651023940191123.0
1.0,-4.0,0.0,-1.0,-1.0,-2.0,1.0,-1.0,1651023940191123.0
-1.0,-2.0,1.0,-3.0,0.0,0.0,-1.0,-2.0,1651023940198168.0
-1.0,-3.0,-3.0,-4.0,-3.0,0.0,0.0,1.0,1651023940198168.0
3.0,8.0,3.0,3.0,-2.0,-2.0,1.0,1.0,1651023940221958.0
2.0,-1.0,-1.0,1.0,-1.0,0.0,1.0,1.0,1651023940221958.0
-5.0,-7.0,1.0,1.0,-4.0,0.0,-1.0,0.0,1651023940223882.0
0.0,-1.0,1.0,-1.0,3.0,-1.0,-1.0,0.0,1651023940223882.0
0.0,7.0,26.0,1.0,-3.0,-1.0,0.0,-1.0,1651023940237013.0
-4.0,-18.0,-53.0,-8.0,-3.0,-1.0,-1.0,-1.0,1651023940237013.0
1.0,-2.0,2.0,-4.0,-2.0,1.0,-1.0,1.0,1651023940238942.0
1.0,3.0,0.0,1.0,-2.0,0.0,-2.0,0.0,1651023940238942.0
-2.0,-7.0,0.0,-5.0,-8.0,0.0,0.0,-1.0,1651023940258945.0
1.0,11.0,19.0,8.0,17.0,3.0,1.0,0.0,1651023940258945.0
-3.0,-10.0,-26.0,-11.0,-6.0,-3.0,-2.0,-3.0,1651023940260884.0
-2.0,2.0,12.0,2.0,-3.0,-2.0,0.0,-1.0,1651023940260884.0
-4.0,-5.0,-7.0,0.0,-4.0,-2.0,-2.0,-2.0,1651023940274903.0
2.0,2.0,5.0,1.0,0.0,0.0,1.0,2.0,1651023940274903.0
1.0,3.0,15.0,3.0,-2.0,-1.0,0.0,-1.0,1651023940275902.0
-2.0,0.0,0.0,-5.0,0.0,0.0,-1.0,-2.0,1651023940275902.0
1.0,2.0,-2.0,-7.0,1.0,2.0,2.0,2.0,1651023940296908.0
0.0,-1.0,-3.0,-2.0,-14.0,-1.0,0.0,1.0,1651023940296908.0
-6.0,-3.0,3.0,15.0,11.0,-3.0,0.0,-1.0,1651023940298840.0
-2.0,-2.0,-10.0,0.0,4.0,1.0,-1.0,-1.0,1651023940298840.0
2.0,7.0,0.0,-8.0,2.0,4.0,0.0,1.0,1651023940310809.0
-2.0,-8.0,-4.0,-7.0,-12.0,-4.0,0.0,0.0,1651023940310809.0
4.0,-4.0,-8.0,-2.0,11.0,3.0,0.0,0.0,1651023940319526.0
3.0,19.0,25.0,-8.0,-18.0,-8.0,0.0,0.0,1651023940319526.0
-13.0,-22.0,-42.0,-14.0,3.0,1.0,-3.0,-4.0,1651023940334582.0
-2.0,-2.0,3.0,-26.0,-9.0,-3.0,-5.0,-4.0,1651023940334582.0
9.0,22.0,43.0,78.0,15.0,1.0,2.0,3.0,1651023940335614.0
-1.0,1.0,-1.0,0.0,0.0,7.0,15.0,8.0,1651023940335614.0
16.0,-8.0,-12.0,-40.0,-19.0,-5.0,27.0,10.0,1651023940357039.0
14.0,10.0,-10.0,-28.0,19.0,-2.0,-41.0,-15.0,1651023940357039.0
19.0,3.0,5.0,18.0,-4.0,2.0,-7.0,6.0,1651023940358972.0
-53.0,4.0,48.0,-14.0,-19.0,-13.0,-9.0,-8.0,1651023940358972.0
31.0,-6.0,9.0,66.0,23.0,9.0,20.0,12.0,1651023940378977.0
-31.0,2.0,-9.0,22.0,20.0,4.0,-25.0,-21.0,1651023940378977.0
12.0,-5.0,-15.0,-78.0,-21.0,-6.0,6.0,7.0,1651023940380914.0
31.0,22.0,-17.0,18.0,31.0,38.0,54.0,26.0,1651023940380914.0
-2.0,10.0,25.0,-6.0,-20.0,-5.0,24.0,4.0,1651023940393908.0
9.0,-6.0,34.0,45.0,-3.0,-29.0,-40.0,-1.0,1651023940393908.0
-29.0,-8.0,-17.0,-25.0,-10.0,-3.0,39.0,-15.0,1651023940395885.0
18.0,8.0,-13.0,-40.0,-20.0,8.0,-6.0,8.0,1651023940395885.0
-28.0,-27.0,22.0,26.0,17.0,-10.0,-9.0,-18.0,1651023940417844.0
49.0,14.0,-13.0,-65.0,-13.0,14.0,24.0,19.0,1651023940417844.0
4.0,-2.0,18.0,64.0,35.0,-3.0,29.0,3.0,1651023940418812.0
16.0,-9.0,-26.0,35.0,28.0,38.0,80.0,41.0,1651023940418812.0
1.0,18.0,15.0,15.0,-7.0,-56.0,-97.0,-49.0,1651023940430843.0
-33.0,-16.0,-39.0,8.0,-35.0,-35.0,113.0,-5.0,1651023940430843.0
-19.0,-14.0,-4.0,-42.0,-5.0,75.0,-128.0,-47.0,1651023940439757.0
-1.0,-2.0,24.0,5.0,4.0,-35.0,110.0,18.0,1651023940439757.0
-14.0,3.0,-60.0,-34.0,29.0,126.0,-37.0,15.0,1651023940454726.0
-24.0,-2.0,65.0,17.0,-25.0,-52.0,-45.0,-15.0,1651023940454726.0
3.0,-22.0,-53.0,-67.0,-41.0,-82.0,66.0,12.0,1651023940455823.0
-11.0,-34.0,-77.0,6.0,14.0,67.0,43.0,19.0,1651023940455823.0
-7.0,20.0,58.0,13.0,30.0,41.0,-83.0,-47.0,1651023940476938.0
8.0,8.0,47.0,38.0,22.0,2.0,48.0,22.0,1651023940476938.0
10.0,6.0,-28.0,9.0,-1.0,-25.0,41.0,21.0,1651023940478942.0
-11.0,-34.0,-7.0,-39.0,-33.0,-76.0,-66.0,-33.0,1651023940478942.0
-5.0,-4.0,-14.0,-52.0,-41.0,-62.0,43.0,16.0,1651023940490938.0
2.0,13.0,72.0,53.0,38.0,94.0,-14.0,-4.0,1651023940490938.0
13.0,-8.0,-32.0,-36.0,-9.0,-17.0,-23.0,3.0,1651023940499791.0
-12.0,15.0,67.0,9.0,-9.0,-18.0,-54.0,-17.0,1651023940499791.0
-10.0,-23.0,-19.0,8.0,-2.0,-28.0,9.0,8.0,1651023940514823.0
2.0,-6.0,-62.0,-61.0,-24.0,-40.0,-43.0,-9.0,1651023940514823.0
-1.0,23.0,81.0,39.0,17.0,61.0,57.0,21.0,1651023940515748.0
15.0,3.0,-37.0,5.0,-5.0,-57.0,-90.0,-28.0,1651023940515748.0
24.0,2.0,40.0,6.0,10.0,76.0,28.0,4.0,1651023940536759.0
-14.0,-3.0,-30.0,12.0,8.0,9.0,40.0,21.0,1651023940536759.0
-16.0,-18.0,-46.0,-24.0,-17.0,-27.0,-31.0,-15.0,1651023940538688.0
-4.0,0.0,30.0,21.0,16.0,-8.0,-39.0,-22.0,1651023940538688.0
16.0,7.0,-9.0,0.0,-24.0,-47.0,-5.0,10.0,1651023940550720.0
2.0,-7.0,-29.0,-16.0,-3.0,1.0,17.0,17.0,1651023940550720.0
0.0,4.0,-11.0,-15.0,0.0,21.0,21.0,6.0,1651023940559637.0
5.0,10.0,32.0,11.0,-9.0,4.0,-40.0,-14.0,1651023940559637.0
-13.0,-4.0,-14.0,0.0,0.0,-47.0,-1.0,2.0,1651023940574718.0
10.0,-13.0,8.0,0.0,11.0,34.0,3.0,-2.0,1651023940574718.0
-18.0,-7.0,-20.0,-21.0,-7.0,-28.0,-37.0,-12.0,1651023940575813.0
7.0,12.0,12.0,8.0,-8.0,43.0,64.0,10.0,1651023940575813.0
-5.0,2.0,11.0,29.0,11.0,-11.0,-20.0,0.0,1651023940596730.0
11.0,-4.0,-18.0,-15.0,-19.0,-38.0,-25.0,-5.0,1651023940596730.0
-2.0,11.0,67.0,45.0,18.0,-28.0,-25.0,-7.0,1651023940598684.0
8.0,-1.0,-67.0,-35.0,12.0,80.0,61.0,22.0,1651023940598684.0
2.0,8.0,-14.0,-18.0,-2.0,19.0,42.0,12.0,1651023940610624.0
5.0,8.0,55.0,30.0,15.0,0.0,-40.0,-15.0,1651023940610624.0
-24.0,-22.0,-13.0,6.0,-14.0,-36.0,-21.0,-13.0,1651023940619605.0
-5.0,-6.0,-1.0,2.0,-6.0,-48.0,-67.0,-18.0,1651023940619605.0
6.0,20.0,23.0,11.0,6.0,-20.0,39.0,6.0,1651023940634268.0
-27.0,0.0,-43.0,-8.0,-3.0,-20.0,-9.0,7.0,1651023940634268.0
17.0,15.0,19.0,0.0,12.0,103.0,25.0,2.0,1651023940640308.0
-8.0,-7.0,-17.0,-19.0,-16.0,2.0,7.0,-5.0,1651023940640308.0
-23.0,-10.0,27.0,28.0,16.0,1.0,-8.0,-2.0,1651023940656983.0
-1.0,-11.0,-45.0,-34.0,-13.0,-45.0,15.0,-6.0,1651023940656983.0
7.0,15.0,-2.0,-42.0,-23.0,-12.0,-23.0,-6.0,1651023940658942.0
1.0,-2.0,47.0,65.0,35.0,13.0,2.0,5.0,1651023940658942.0
16.0,-1.0,-25.0,-6.0,-11.0,-51.0,13.0,13.0,1651023940671018.0
-7.0,-4.0,5.0,-12.0,-4.0,34.0,-13.0,-5.0,1651023940671018.0
-9.0,-2.0,11.0,14.0,18.0,20.0,11.0,-2.0,1651023940679905.0
9.0,2.0,-20.0,-23.0,-8.0,-20.0,-15.0,-4.0,1651023940679905.0
1.0,5.0,5.0,-2.0,-10.0,-34.0,-6.0,-1.0,1651023940694143.0
5.0,3.0,-6.0,10.0,14.0,42.0,61.0,13.0,1651023940694143.0
-5.0,-10.0,3.0,1.0,-10.0,7.0,-31.0,-12.0,1651023940700883.0
-1.0,5.0,19.0,-2.0,-8.0,-44.0,-22.0,-2.0,1651023940700883.0
-3.0,-10.0,-34.0,-6.0,5.0,48.0,6.0,0.0,1651023940717315.0
7.0,7.0,-4.0,-19.0,-6.0,18.0,29.0,0.0,1651023940717315.0
8.0,-4.0,20.0,26.0,10.0,-23.0,-49.0,6.0,1651023940718869.0
-17.0,-2.0,14.0,-5.0,-7.0,-17.0,-4.0,-7.0,1651023940718869.0
-23.0,-8.0,-24.0,-12.0,-8.0,-5.0,-4.0,-12.0,1651023940739878.0
14.0,3.0,10.0,-1.0,3.0,5.0,4.0,5.0,1651023940739878.0
0.0,27.0,-3.0,-6.0,8.0,-5.0,6.0,5.0,1651023940740877.0
-4.0,-2.0,-16.0,-14.0,-8.0,-24.0,-14.0,-4.0,1651023940740877.0
8.0,1.0,30.0,29.0,5.0,27.0,10.0,2.0,1651023940754561.0
-6.0,-10.0,-11.0,-10.0,-5.0,4.0,-8.0,-4.0,1651023940754561.0
6.0,0.0,36.0,42.0,18.0,13.0,60.0,15.0,1651023940755612.0
3.0,0.0,-67.0,-40.0,-6.0,-27.0,-34.0,-5.0,1651023940755612.0
-10.0,-2.0,-8.0,-17.0,-2.0,7.0,6.0,-1.0,1651023940777187.0
-6.0,-2.0,8.0,9.0,5.0,8.0,-33.0,-10.0,1651023940777187.0
8.0,2.0,14.0,10.0,-3.0,-9.0,4.0,-4.0,1651023940778792.0
-3.0,2.0,7.0,9.0,-3.0,26.0,36.0,5.0,1651023940778792.0
3.0,0.0,-10.0,-8.0,5.0,60.0,35.0,19.0,1651023940799857.0
2.0,6.0,3.0,11.0,16.0,-13.0,-5.0,23.0,1651023940799857.0
-13.0,-18.0,-36.0,-22.0,-17.0,-24.0,-11.0,-15.0,1651023940800858.0
12.0,6.0,18.0,3.0,-1.0,-28.0,9.0,7.0,1651023940800858.0
18.0,10.0,-7.0,-24.0,-16.0,-9.0,37.0,6.0,1651023940813876.0
-28.0,5.0,33.0,70.0,23.0,-17.0,-99.0,-27.0,1651023940813876.0
-1.0,-23.0,-14.0,-26.0,-11.0,6.0,31.0,3.0,1651023940820883.0
0.0,-6.0,-21.0,-26.0,-6.0,9.0,-10.0,-12.0,1651023940820883.0
6.0,8.0,47.0,20.0,5.0,-10.0,16.0,10.0,1651023940836779.0
10.0,-12.0,-43.0,-31.0,-8.0,8.0,37.0,10.0,1651023940836779.0
-10.0,11.0,9.0,27.0,-5.0,-16.0,-17.0,-3.0,1651023940838780.0
-14.0,-9.0,-20.0,-21.0,15.0,19.0,3.0,-10.0,1651023940838780.0
10.0,2.0,18.0,-16.0,-14.0,-20.0,-8.0,6.0,1651023940859856.0
-5.0,11.0,57.0,28.0,-2.0,1.0,-2.0,-5.0,1651023940859856.0
-13.0,-15.0,-73.0,-38.0,-3.0,5.0,-34.0,-34.0,1651023940860856.0
9.0,4.0,32.0,12.0,1.0,37.0,18.0,35.0,1651023940860856.0
0.0,-12.0,-19.0,5.0,2.0,-30.0,-4.0,-6.0,1651023940874311.0
-3.0,-10.0,-22.0,-40.0,-13.0,33.0,7.0,-3.0,1651023940874311.0
9.0,1.0,-1.0,1.0,16.0,2.0,0.0,16.0,1651023940876265.0
-2.0,8.0,21.0,36.0,8.0,-19.0,-13.0,-15.0,1651023940876265.0
-7.0,0.0,44.0,31.0,8.0,8.0,-13.0,-8.0,1651023940897250.0
-2.0,-19.0,-68.0,-39.0,-23.0,-19.0,28.0,5.0,1651023940897250.0
0.0,12.0,33.0,25.0,7.0,22.0,41.0,10.0,1651023940898185.0
-11.0,-8.0,-30.0,-8.0,-4.0,-12.0,-12.0,-15.0,1651023940898185.0
1.0,-7.0,-20.0,-17.0,-4.0,-16.0,-60.0,-11.0,1651023940919898.0
13.0,16.0,64.0,39.0,8.0,-2.0,25.0,3.0,1651023940919898.0
-2.0,0.0,-40.0,-15.0,-6.0,-16.0,-1.0,11.0,1651023940920875.0
2.0,1.0,12.0,9.0,11.0,21.0,-11.0,-11.0,1651023940920875.0
-11.0,-21.0,-19.0,-12.0,-9.0,-2.0,5.0,-9.0,1651023940933835.0
-15.0,1.0,13.0,1.0,-6.0,-3.0,-11.0,-12.0,1651023940933835.0
26.0,12.0,27.0,7.0,-5.0,-42.0,11.0,11.0,1651023940940816.0
-2.0,7.0,-2.0,3.0,2.0,35.0,17.0,2.0,1651023940940816.0
-12.0,-7.0,-33.0,-21.0,2.0,13.0,-18.0,-9.0,1651023940956877.0
18.0,-3.0,9.0,2.0,-3.0,-6.0,32.0,12.0,1651023940956877.0
10.0,2.0,7.0,13.0,5.0,3.0,-23.0,-1.0,1651023940958920.0
-5.0,-13.0,-6.0,-7.0,-7.0,-9.0,7.0,-21.0,1651023940958920.0
5.0,13.0,-10.0,-13.0,6.0,0.0,-42.0,3.0,1651023940979879.0
8.0,-2.0,28.0,20.0,1.0,-14.0,3.0,2.0,1651023940979879.0
-16.0,6.0,-9.0,11.0,4.0,-1.0,5.0,-8.0,1651023940980838.0
1.0,-5.0,-5.0,-42.0,-14.0,-8.0,-16.0,4.0,1651023940980838.0
-4.0,-3.0,-23.0,23.0,10.0,15.0,49.0,8.0,1651023940993979.0
2.0,2.0,-18.0,-21.0,-6.0,-11.0,-20.0,-12.0,1651023940993979.0
-5.0,-4.0,33.0,18.0,9.0,18.0,53.0,16.0,1651023941001001.0
-13.0,-6.0,2.0,1.0,-7.0,-25.0,-86.0,-19.0,1651023941001001.0
-2.0,-5.0,24.0,2.0,-9.0,-4.0,17.0,1.0,1651023941016791.0
0.0,-4.0,-51.0,-27.0,-1.0,-15.0,6.0,-1.0,1651023941016791.0
1.0,3.0,-4.0,2.0,2.0,26.0,-18.0,-5.0,1651023941018538.0
5.0,-2.0,7.0,8.0,1.0,-6.0,24.0,17.0,1651023941018538.0
10.0,14.0,14.0,1.0,-4.0,64.0,5.0,5.0,1651023941039071.0
-4.0,-6.0,1.0,8.0,5.0,-17.0,-9.0,0.0,1651023941039071.0
-7.0,-5.0,1.0,-1.0,13.0,30.0,16.0,-3.0,1651023941041066.0
7.0,7.0,16.0,12.0,-3.0,-28.0,22.0,9.0,1651023941041066.0
-7.0,-6.0,-41.0,-20.0,-11.0,-34.0,-44.0,-15.0,1651023941054145.0
4.0,3.0,27.0,9.0,1.0,16.0,26.0,10.0,1651023941054145.0
17.0,5.0,-24.0,-21.0,-9.0,-14.0,-8.0,16.0,1651023941060760.0
-6.0,3.0,-6.0,-4.0,-3.0,1.0,-4.0,-17.0,1651023941060760.0
8.0,-1.0,4.0,-11.0,-11.0,-21.0,19.0,11.0,1651023941077207.0
-7.0,10.0,12.0,41.0,18.0,17.0,-3.0,2.0,1651023941077207.0
2.0,5.0,26.0,11.0,3.0,-13.0,9.0,1.0,1651023941078180.0
7.0,-6.0,-29.0,7.0,16.0,36.0,4.0,16.0,1651023941078180.0
-5.0,7.0,1.0,-23.0,-5.0,-9.0,-9.0,-17.0,1651023941099104.0
-13.0,-5.0,-7.0,-12.0,-14.0,-43.0,-30.0,-9.0,1651023941099104.0
-1.0,-1.0,16.0,1.0,-4.0,39.0,28.0,7.0,1651023941101076.0
2.0,1.0,10.0,18.0,4.0,18.0,4.0,-8.0,1651023941101076.0
-3.0,-2.0,-6.0,-2.0,7.0,26.0,11.0,13.0,1651023941114041.0
1.0,-3.0,16.0,1.0,-1.0,14.0,-6.0,-5.0,1651023941114041.0
3.0,4.0,-16.0,-10.0,-13.0,-39.0,-13.0,3.0,1651023941121088.0
0.0,-9.0,-11.0,0.0,8.0,18.0,19.0,7.0,1651023941121088.0
7.0,8.0,16.0,27.0,11.0,-13.0,-13.0,-8.0,1651023941137025.0
3.0,8.0,-20.0,-38.0,-13.0,1.0,8.0,0.0,1651023941137025.0
5.0,-1.0,18.0,18.0,5.0,6.0,10.0,12.0,1651023941138957.0
-6.0,1.0,0.0,-9.0,-11.0,-26.0,-40.0,-4.0,1651023941138957.0
11.0,5.0,20.0,16.0,6.0,-8.0,16.0,1.0,1651023941159908.0
-2.0,-5.0,-36.0,-12.0,0.0,8.0,-12.0,-2.0,1651023941159908.0
-10.0,8.0,23.0,6.0,-4.0,-14.0,-13.0,-10.0,1651023941160899.0
7.0,4.0,0.0,-21.0,-7.0,-1.0,12.0,4.0,1651023941160899.0
-26.0,-1.0,-12.0,8.0,5.0,-5.0,15.0,9.0,1651023941173932.0
34.0,-9.0,21.0,3.0,-4.0,-2.0,-32.0,-15.0,1651023941173932.0
-18.0,4.0,-29.0,-12.0,-7.0,-26.0,-13.0,-1.0,1651023941180847.0
3.0,-8.0,8.0,-7.0,-6.0,21.0,15.0,4.0,1651023941180847.0
2.0,-5.0,0.0,-11.0,-8.0,-17.0,7.0,-1.0,1651023941196865.0
-7.0,2.0,33.0,17.0,5.0,1.0,-7.0,-2.0,1651023941196865.0
-2.0,0.0,-12.0,0.0,11.0,55.0,7.0,-1.0,1651023941198797.0
8.0,-10.0,-40.0,-23.0,-13.0,-36.0,11.0,1.0,1651023941198797.0
6.0,1.0,-11.0,-10.0,-4.0,6.0,28.0,11.0,1651023941219879.0
-5.0,2.0,2.0,3.0,4.0,3.0,-19.0,4.0,1651023941219879.0
-11.0,0.0,78.0,38.0,-3.0,-26.0,-38.0,-18.0,1651023941220890.0
10.0,-11.0,-67.0,-2.0,13.0,3.0,3.0,1.0,1651023941220890.0
-7.0,1.0,16.0,-1.0,-7.0,-8.0,-2.0,0.0,1651023941233228.0
2.0,3.0,-32.0,-26.0,-11.0,-11.0,1.0,-3.0,1651023941233228.0
-29.0,-18.0,0.0,11.0,12.0,13.0,7.0,-11.0,1651023941242207.0
4.0,5.0,18.0,19.0,3.0,-2.0,10.0,6.0,1651023941242207.0
4.0,3.0,3.0,7.0,0.0,-8.0,-25.0,-6.0,1651023941257168.0
-16.0,8.0,12.0,12.0,7.0,16.0,28.0,9.0,1651023941257168.0
16.0,-15.0,-24.0,-32.0,-23.0,-26.0,-9.0,5.0,1651023941258184.0
-10.0,6.0,0.0,-6.0,-3.0,-15.0,-9.0,-11.0,1651023941258184.0
16.0,6.0,7.0,16.0,21.0,50.0,15.0,7.0,1651023941279108.0
-14.0,6.0,12.0,3.0,6.0,17.0,10.0,0.0,1651023941279108.0
6.0,-7.0,-20.0,-13.0,-3.0,-4.0,10.0,4.0,1651023941281129.0
1.0,3.0,28.0,15.0,-5.0,-23.0,-38.0,-13.0,1651023941281129.0
-2.0,5.0,50.0,4.0,-10.0,-9.0,-11.0,-6.0,1651023941293133.0
31.0,-12.0,-105.0,-60.0,-12.0,-4.0,12.0,-2.0,1651023941293133.0
-34.0,-3.0,-5.0,-17.0,8.0,12.0,13.0,8.0,1651023941302047.0
3.0,10.0,53.0,68.0,19.0,2.0,2.0,7.0,1651023941302047.0
-11.0,-4.0,-16.0,-3.0,-9.0,-13.0,-23.0,-15.0,1651023941317068.0
0.0,-3.0,17.0,-2.0,-1.0,-6.0,-2.0,2.0,1651023941317068.0
15.0,-4.0,7.0,14.0,12.0,2.0,7.0,5.0,1651023941318027.0
-1.0,2.0,20.0,-14.0,-9.0,14.0,4.0,-2.0,1651023941318027.0
-12.0,-4.0,-31.0,-9.0,4.0,-7.0,4.0,3.0,1651023941339115.0
18.0,8.0,28.0,24.0,-3.0,-19.0,-20.0,3.0,1651023941339115.0
28.0,9.0,-16.0,-15.0,-13.0,-4.0,-11.0,-6.0,1651023941341097.0
-19.0,-1.0,-9.0,-24.0,3.0,37.0,53.0,14.0,1651023941341097.0
1.0,1.0,19.0,43.0,16.0,-6.0,-28.0,-8.0,1651023941353102.0
-8.0,-11.0,-11.0,-13.0,-6.0,-6.0,-29.0,-17.0,1651023941353102.0
9.0,-2.0,-22.0,-20.0,-5.0,8.0,18.0,12.0,1651023941362011.0
4.0,1.0,1.0,1.0,-7.0,-12.0,-15.0,-2.0,1651023941362011.0
6.0,3.0,-4.0,-18.0,-9.0,-5.0,25.0,4.0,1651023941376971.0
-22.0,3.0,-10.0,-5.0,-6.0,-37.0,-6.0,-5.0,1651023941376971.0
-1.0,2.0,46.0,20.0,13.0,45.0,7.0,2.0,1651023941378967.0
1.0,7.0,41.0,59.0,14.0,8.0,9.0,5.0,1651023941378967.0
-6.0,-33.0,-121.0,-91.0,-23.0,-6.0,1.0,2.0,1651023941398912.0
-8.0,-7.0,50.0,21.0,10.0,5.0,2.0,-1.0,1651023941398912.0
0.0,7.0,-3.0,-15.0,-14.0,-26.0,-10.0,-5.0,1651023941400907.0
12.0,6.0,33.0,14.0,-1.0,2.0,31.0,12.0,1651023941400907.0
-17.0,-3.0,-43.0,-22.0,2.0,4.0,-29.0,-10.0,1651023941412875.0
8.0,-18.0,-3.0,14.0,-4.0,-15.0,-17.0,-8.0,1651023941412875.0
12.0,13.0,-5.0,-6.0,0.0,8.0,17.0,-3.0,1651023941421851.0
-47.0,-11.0,-7.0,6.0,5.0,-17.0,-30.0,-13.0,1651023941421851.0
21.0,0.0,29.0,23.0,-3.0,14.0,19.0,0.0,1651023941436812.0
-1.0,1.0,-22.0,-22.0,-9.0,5.0,21.0,2.0,1651023941436812.0
-2.0,9.0,29.0,19.0,-5.0,-36.0,-45.0,4.0,1651023941438806.0
18.0,-2.0,-18.0,-13.0,10.0,59.0,25.0,10.0,1651023941438806.0
-4.0,-2.0,-6.0,-2.0,1.0,-6.0,3.0,-7.0,1651023941459750.0
-6.0,-4.0,-13.0,-44.0,-16.0,10.0,13.0,4.0,1651023941459750.0
-4.0,2.0,22.0,60.0,16.0,-8.0,5.0,-8.0,1651023941460747.0
1.0,-4.0,-1.0,-22.0,-19.0,-24.0,-4.0,2.0,1651023941460747.0
-7.0,-5.0,1.0,-4.0,-2.0,-6.0,-35.0,-11.0,1651023941472714.0
7.0,17.0,30.0,22.0,14.0,21.0,14.0,9.0,1651023941472714.0
-1.0,-7.0,-37.0,-24.0,-11.0,-19.0,-15.0,-2.0,1651023941489670.0
3.0,-10.0,-16.0,-27.0,-10.0,-3.0,5.0,-6.0,1651023941489670.0
-6.0,6.0,17.0,24.0,7.0,8.0,12.0,-1.0,1651023941496652.0
-4.0,-3.0,-20.0,-5.0,-4.0,-2.0,2.0,3.0,1651023941496652.0
0.0,-2.0,-1.0,-15.0,-13.0,-37.0,-13.0,-1.0,1651023941498675.0
-1.0,4.0,-7.0,6.0,6.0,32.0,-12.0,-14.0,1651023941498675.0
-1.0,4.0,49.0,19.0,4.0,-28.0,-2.0,0.0,1651023941519815.0
-3.0,-2.0,5.0,8.0,-1.0,28.0,6.0,-4.0,1651023941519815.0
-2.0,2.0,-4.0,3.0,9.0,32.0,49.0,15.0,1651023941520747.0
5.0,-2.0,-8.0,-10.0,-7.0,-25.0,-43.0,-8.0,1651023941520747.0
-5.0,2.0,-9.0,-7.0,-10.0,-28.0,-42.0,-1.0,1651023941542237.0
-11.0,-2.0,-1.0,7.0,8.0,-3.0,6.0,-1.0,1651023941542237.0
-4.0,7.0,-9.0,-8.0,-6.0,-10.0,-4.0,-1.0,1651023941543236.0
7.0,-9.0,53.0,24.0,2.0,15.0,34.0,9.0,1651023941543236.0
-6.0,-8.0,-43.0,-44.0,-15.0,4.0,9.0,-3.0,1651023941557200.0
3.0,5.0,33.0,64.0,28.0,30.0,10.0,6.0,1651023941557200.0
3.0,-11.0,-65.0,-55.0,-11.0,-2.0,-13.0,-11.0,1651023941558220.0
-15.0,2.0,15.0,13.0,-2.0,-21.0,-18.0,-1.0,1651023941558220.0
-14.0,-8.0,-4.0,-13.0,-5.0,4.0,16.0,-5.0,1651023941579320.0
11.0,15.0,18.0,0.0,-2.0,-1.0,18.0,7.0,1651023941579320.0
-6.0,5.0,36.0,35.0,17.0,7.0,-30.0,-10.0,1651023941581300.0
-6.0,-11.0,-64.0,-35.0,-12.0,-28.0,-10.0,-1.0,1651023941581300.0
5.0,-7.0,8.0,1.0,-4.0,0.0,-2.0,-3.0,1651023941593346.0
-10.0,-6.0,9.0,2.0,-6.0,0.0,11.0,4.0,1651023941593346.0
14.0,7.0,48.0,28.0,14.0,45.0,18.0,7.0,1651023941602324.0
-21.0,-3.0,-92.0,-51.0,-15.0,-9.0,7.0,7.0,1651023941602324.0
8.0,8.0,39.0,26.0,11.0,-12.0,-12.0,-13.0,1651023941616970.0
-16.0,-9.0,37.0,19.0,-2.0,-12.0,-26.0,-8.0,1651023941616970.0
-16.0,-22.0,-27.0,-12.0,-14.0,-11.0,-18.0,-15.0,1651023941618923.0
6.0,-9.0,-38.0,-79.0,-18.0,-11.0,-1.0,2.0,1651023941618923.0
-1.0,10.0,33.0,31.0,16.0,16.0,38.0,14.0,1651023941639033.0
-4.0,3.0,-2.0,-7.0,-5.0,2.0,-15.0,1.0,1651023941639033.0
8.0,4.0,29.0,-3.0,-2.0,0.0,-9.0,-9.0,1651023941645948.0
15.0,7.0,20.0,53.0,19.0,11.0,16.0,13.0,1651023941645948.0
7.0,4.0,-2.0,-2.0,1.0,4.0,-3.0,3.0,1651023941652999.0
2.0,-2.0,-11.0,-1.0,5.0,1.0,3.0,0.0,1651023941652999.0
-5.0,-2.0,-17.0,-9.0,-14.0,-16.0,-11.0,-1.0,1651023941661905.0
3.0,-2.0,-19.0,-9.0,-3.0,-16.0,-7.0,-7.0,1651023941661905.0
3.0,-5.0,4.0,-9.0,-5.0,-2.0,16.0,6.0,1651023941675984.0
5.0,14.0,29.0,25.0,6.0,30.0,-5.0,3.0,1651023941675984.0
-5.0,-15.0,-33.0,-29.0,-4.0,-10.0,2.0,-6.0,1651023941684823.0
4.0,8.0,27.0,23.0,18.0,35.0,14.0,2.0,1651023941684823.0
17.0,17.0,64.0,44.0,6.0,-15.0,3.0,6.0,1651023941699836.0
-2.0,-10.0,-68.0,-25.0,-9.0,-23.0,-21.0,-5.0,1651023941699836.0
-1.0,12.0,7.0,-18.0,-2.0,-4.0,1.0,1.0,1651023941700783.0
-6.0,-11.0,39.0,16.0,14.0,11.0,-10.0,-4.0,1651023941700783.0
-3.0,0.0,-1.0,-3.0,-8.0,8.0,13.0,6.0,1651023941729706.0
5.0,2.0,6.0,-14.0,-25.0,-10.0,7.0,-2.0,1651023941729706.0
5.0,3.0,-29.0,12.0,19.0,6.0,6.0,7.0,1651023941730704.0
-3.0,4.0,45.0,24.0,3.0,-4.0,1.0,-8.0,1651023941730704.0
-1.0,-3.0,-16.0,1.0,15.0,9.0,-14.0,-2.0,1651023941736710.0
5.0,0.0,-37.0,-24.0,-4.0,-10.0,15.0,3.0,1651023941736710.0
1.0,-3.0,-7.0,-4.0,-19.0,-22.0,-18.0,0.0,1651023941738705.0
0.0,-2.0,12.0,-4.0,-10.0,11.0,7.0,-2.0,1651023941738705.0
-5.0,-7.0,-9.0,-2.0,-9.0,-6.0,-9.0,-1.0,1651023941759768.0
1.0,3.0,1.0,-4.0,6.0,-5.0,0.0,-3.0,1651023941759768.0
-2.0,-3.0,9.0,7.0,9.0,32.0,21.0,2.0,1651023941760744.0
8.0,8.0,6.0,16.0,10.0,-8.0,-2.0,-2.0,1651023941760744.0
-9.0,-11.0,-57.0,-34.0,-15.0,-1.0,-2.0,2.0,1651023941782428.0
-3.0,0.0,4.0,-4.0,-10.0,-14.0,-2.0,-1.0,1651023941782428.0
-3.0,-5.0,5.0,1.0,-5.0,-9.0,-3.0,-3.0,1651023941783429.0
2.0,6.0,26.0,12.0,6.0,-5.0,-7.0,0.0,1651023941783429.0
2.0,-2.0,-25.0,-2.0,0.0,3.0,-2.0,0.0,1651023941797330.0
-1.0,9.0,37.0,11.0,16.0,6.0,5.0,2.0,1651023941797330.0
2.0,8.0,-5.0,-1.0,-5.0,1.0,0.0,-1.0,1651023941798272.0
2.0,-11.0,-7.0,-8.0,-10.0,-4.0,-6.0,-2.0,1651023941798272.0
-2.0,-2.0,4.0,-2.0,2.0,3.0,3.0,0.0,1651023941819740.0
0.0,-8.0,-19.0,-4.0,-6.0,4.0,1.0,-1.0,1651023941819740.0
-3.0,-5.0,11.0,-9.0,-8.0,-4.0,-1.0,-2.0,1651023941820681.0
-6.0,-3.0,-27.0,-7.0,-4.0,-10.0,-3.0,-4.0,1651023941820681.0
-2.0,-6.0,11.0,5.0,-5.0,7.0,1.0,2.0,1651023941842319.0
0.0,-1.0,4.0,-1.0,1.0,-3.0,0.0,0.0,1651023941842319.0
0.0,8.0,3.0,10.0,15.0,4.0,1.0,-1.0,1651023941843320.0
4.0,9.0,11.0,6.0,3.0,0.0,1.0,3.0,1651023941843320.0
3.0,5.0,6.0,3.0,8.0,3.0,1.0,0.0,1651023941856319.0
-4.0,-31.0,-2.0,16.0,4.0,5.0,1.0,-2.0,1651023941856319.0
-4.0,0.0,-58.0,-25.0,-13.0,-7.0,1.0,1.0,1651023941863496.0
-4.0,1.0,27.0,-3.0,-9.0,-3.0,-4.0,-3.0,1651023941863496.0
10.0,16.0,9.0,9.0,2.0,2.0,3.0,3.0,1651023941879521.0
6.0,33.0,12.0,-4.0,-2.0,-3.0,0.0,0.0,1651023941879521.0
-4.0,-24.0,15.0,11.0,4.0,2.0,0.0,-2.0,1651023941881452.0
-10.0,-19.0,-26.0,-13.0,-2.0,-2.0,-2.0,-4.0,1651023941881452.0
3.0,2.0,-3.0,0.0,0.0,-3.0,-2.0,0.0,1651023941902394.0
-3.0,-12.0,-10.0,-11.0,-1.0,-1.0,-3.0,-4.0,1651023941902394.0
5.0,10.0,12.0,8.0,0.0,2.0,1.0,2.0,1651023941903390.0
3.0,13.0,2.0,4.0,4.0,4.0,2.0,3.0,1651023941903390.0
1.0,4.0,20.0,3.0,2.0,-2.0,0.0,0.0,1651023941916422.0
0.0,11.0,1.0,8.0,2.0,3.0,6.0,4.0,1651023941916422.0
1.0,-5.0,3.0,6.0,6.0,-1.0,-7.0,-3.0,1651023941924335.0
-4.0,-3.0,-18.0,-16.0,-19.0,-9.0,-6.0,-8.0,1651023941924335.0
4.0,7.0,4.0,5.0,16.0,2.0,2.0,2.0,1651023941938922.0
-11.0,-36.0,-18.0,-9.0,-9.0,-4.0,-7.0,-10.0,1651023941938922.0
-5.0,-2.0,28.0,3.0,-5.0,-4.0,-3.0,-6.0,1651023941940891.0
3.0,8.0,-8.0,12.0,-5.0,-3.0,3.0,9.0,1651023941940891.0
-8.0,-15.0,0.0,-16.0,-3.0,2.0,-4.0,-6.0,1651023941961916.0
2.0,34.0,9.0,9.0,20.0,3.0,4.0,1.0,1651023941961916.0
8.0,-8.0,-17.0,-11.0,-13.0,-5.0,-7.0,-11.0,1651023941963836.0
-14.0,-40.0,-1.0,-5.0,-13.0,-6.0,7.0,13.0,1651023941963836.0
-3.0,1.0,-10.0,4.0,16.0,11.0,4.0,1.0,1651023941975985.0
6.0,14.0,16.0,4.0,-1.0,2.0,1.0,3.0,1651023941975985.0
-1.0,4.0,-6.0,3.0,8.0,0.0,6.0,-1.0,1651023941983534.0
2.0,17.0,-10.0,-2.0,-12.0,-12.0,-16.0,-10.0,1651023941983534.0
1.0,-22.0,4.0,-2.0,-6.0,-31.0,-6.0,0.0,1651023941999617.0
-10.0,1.0,8.0,-1.0,12.0,54.0,5.0,-16.0,1651023941999617.0
4.0,16.0,-11.0,-7.0,-14.0,-4.0,1.0,1.0,1651023942000546.0
-1.0,1.0,3.0,2.0,9.0,7.0,0.0,-4.0,1651023942000546.0
4.0,-5.0,17.0,5.0,-7.0,-7.0,7.0,9.0,1651023942021647.0
0.0,-1.0,-34.0,-8.0,-4.0,-22.0,-13.0,2.0,1651023942021647.0
6.0,19.0,19.0,8.0,7.0,6.0,5.0,9.0,1651023942023576.0
7.0,40.0,48.0,6.0,-13.0,-7.0,-2.0,-2.0,1651023942023576.0
-4.0,-27.0,-9.0,1.0,14.0,9.0,-3.0,-4.0,1651023942044587.0
-9.0,-13.0,-5.0,-5.0,-11.0,-10.0,-1.0,0.0,1651023942044587.0
5.0,5.0,-10.0,3.0,5.0,6.0,5.0,5.0,1651023942045517.0
-16.0,-43.0,-38.0,-11.0,6.0,-5.0,-2.0,-7.0,1651023942045517.0
9.0,26.0,19.0,4.0,-12.0,5.0,1.0,0.0,1651023942059547.0
2.0,-8.0,-8.0,-1.0,-9.0,-1.0,2.0,2.0,1651023942059547.0
-13.0,-2.0,-5.0,-6.0,2.0,-7.0,-3.0,-2.0,1651023942061476.0
11.0,-2.0,24.0,10.0,19.0,6.0,1.0,-1.0,1651023942061476.0
-6.0,5.0,-23.0,-13.0,-15.0,3.0,-4.0,-7.0,1651023942081770.0
-3.0,-16.0,-2.0,-3.0,0.0,-5.0,0.0,1.0,1651023942081770.0
4.0,-11.0,15.0,2.0,-9.0,-6.0,-2.0,4.0,1651023942083732.0
-16.0,-16.0,-36.0,-9.0,13.0,3.0,0.0,-6.0,1651023942083732.0
-3.0,11.0,19.0,3.0,-2.0,5.0,-2.0,-4.0,1651023942095884.0
9.0,-1.0,-4.0,-2.0,-10.0,-12.0,2.0,7.0,1651023942095884.0
-14.0,-38.0,2.0,4.0,11.0,3.0,2.0,-4.0,1651023942104824.0
4.0,7.0,-19.0,-10.0,0.0,0.0,-4.0,-2.0,1651023942104824.0
-4.0,26.0,-11.0,-6.0,-12.0,-4.0,-2.0,-4.0,1651023942118921.0
-1.0,-6.0,6.0,-1.0,-4.0,-4.0,-2.0,-1.0,1651023942118921.0
1.0,5.0,0.0,-2.0,1.0,1.0,-1.0,-1.0,1651023942120908.0
7.0,19.0,13.0,9.0,0.0,4.0,4.0,2.0,1651023942120908.0
-7.0,-36.0,-14.0,-4.0,-1.0,0.0,-2.0,-4.0,1651023942142356.0
7.0,14.0,10.0,5.0,9.0,0.0,0.0,6.0,1651023942142356.0
7.0,34.0,-9.0,-6.0,-2.0,0.0,0.0,0.0,1651023942143355.0
7.0,-29.0,7.0,3.0,1.0,2.0,2.0,5.0,1651023942143355.0
-5.0,38.0,-8.0,-6.0,-6.0,-3.0,-5.0,-6.0,1651023942155510.0
5.0,24.0,1.0,-18.0,-6.0,-4.0,1.0,-1.0,1651023942155510.0
-5.0,-18.0,0.0,17.0,-5.0,-1.0,-1.0,-1.0,1651023942170983.0
11.0,31.0,16.0,15.0,24.0,7.0,1.0,2.0,1651023942170983.0
1.0,-21.0,6.0,13.0,4.0,3.0,4.0,4.0,1651023942178993.0
4.0,23.0,-3.0,-2.0,1.0,-2.0,-2.0,1.0,1651023942178993.0
-6.0,-22.0,-25.0,-10.0,-12.0,-1.0,-2.0,-2.0,1651023942180921.0
2.0,7.0,29.0,-2.0,5.0,0.0,0.0,-1.0,1651023942180921.0
12.0,22.0,-1.0,-1.0,0.0,2.0,-1.0,1.0,1651023942201929.0
-8.0,-27.0,-2.0,-1.0,-1.0,-3.0,-2.0,-2.0,1651023942201929.0
7.0,-7.0,-16.0,-5.0,-3.0,0.0,1.0,2.0,1651023942203884.0
-10.0,32.0,-1.0,1.0,-7.0,-2.0,-1.0,-1.0,1651023942203884.0
-4.0,-14.0,-1.0,-2.0,1.0,0.0,-3.0,1.0,1651023942215970.0
0.0,-11.0,7.0,2.0,3.0,0.0,-2.0,-2.0,1651023942215970.0
1.0,24.0,10.0,2.0,2.0,2.0,0.0,-1.0,1651023942224846.0
4.0,0.0,-20.0,-6.0,-4.0,-2.0,-2.0,0.0,1651023942224846.0
-9.0,-35.0,-4.0,-2.0,0.0,-3.0,0.0,0.0,1651023942239951.0
0.0,24.0,4.0,4.0,-4.0,1.0,0.0,0.0,1651023942239951.0
7.0,19.0,20.0,3.0,9.0,4.0,1.0,3.0,1651023942240948.0
-11.0,-49.0,-10.0,-2.0,-2.0,-1.0,-2.0,-3.0,1651023942240948.0
12.0,16.0,4.0,-1.0,-3.0,-1.0,0.0,1.0,1651023942262070.0
3.0,15.0,1.0,2.0,0.0,0.0,-1.0,0.0,1651023942262070.0
-13.0,-9.0,-2.0,-4.0,2.0,0.0,-2.0,-5.0,1651023942263000.0
2.0,9.0,4.0,0.0,-7.0,1.0,1.0,0.0,1651023942263000.0
-3.0,-16.0,-6.0,0.0,3.0,0.0,1.0,2.0,1651023942275989.0
-12.0,-25.0,-5.0,0.0,2.0,-1.0,0.0,-2.0,1651023942275989.0
-3.0,-12.0,16.0,2.0,0.0,2.0,0.0,1.0,1651023942284942.0
4.0,39.0,-18.0,-5.0,-8.0,-2.0,-2.0,-3.0,1651023942284942.0
-8.0,-17.0,-4.0,-3.0,0.0,-2.0,1.0,-2.0,1651023942299932.0
3.0,19.0,11.0,-2.0,-1.0,-5.0,-1.0,0.0,1651023942299932.0
6.0,20.0,-1.0,-1.0,-7.0,1.0,0.0,1.0,1651023942300930.0
-28.0,-60.0,-4.0,-2.0,11.0,-2.0,-2.0,-9.0,1651023942300930.0
3.0,-10.0,-8.0,-1.0,2.0,4.0,1.0,1.0,1651023942321996.0
3.0,13.0,-1.0,6.0,1.0,-1.0,0.0,0.0,1651023942321996.0
5.0,28.0,11.0,-3.0,-4.0,-3.0,-1.0,-1.0,1651023942323966.0
0.0,9.0,2.0,-2.0,-9.0,-2.0,0.0,1.0,1651023942323966.0
-1.0,26.0,-1.0,-4.0,-2.0,-2.0,-2.0,-3.0,1651023942335972.0
-7.0,-22.0,-8.0,0.0,1.0,0.0,-1.0,-1.0,1651023942335972.0
-4.0,-30.0,-16.0,-6.0,-4.0,-3.0,-1.0,-2.0,1651023942344835.0
10.0,-1.0,3.0,0.0,1.0,2.0,1.0,2.0,1651023942344835.0
-3.0,19.0,5.0,1.0,1.0,1.0,-1.0,0.0,1651023942359842.0
-14.0,-61.0,-9.0,-2.0,-5.0,0.0,-2.0,-4.0,1651023942359842.0
8.0,37.0,7.0,5.0,8.0,3.0,0.0,3.0,1651023942360795.0
-1.0,-34.0,-5.0,-1.0,-4.0,-2.0,0.0,0.0,1651023942360795.0
4.0,35.0,8.0,2.0,0.0,0.0,0.0,-1.0,1651023942381972.0
-3.0,-30.0,-7.0,-1.0,0.0,0.0,0.0,-1.0,1651023942381972.0
-13.0,-28.0,-12.0,-4.0,-1.0,-5.0,-2.0,-5.0,1651023942383939.0
6.0,-11.0,11.0,6.0,2.0,2.0,2.0,5.0,1651023942383939.0
6.0,10.0,-9.0,-5.0,-7.0,-4.0,-3.0,-4.0,1651023942395945.0
1.0,10.0,-1.0,-4.0,-2.0,0.0,-1.0,0.0,1651023942395945.0
-2.0,-15.0,-3.0,-2.0,1.0,-1.0,-2.0,-3.0,1651023942404836.0
15.0,43.0,8.0,2.0,1.0,2.0,2.0,5.0,1651023942404836.0
-6.0,-21.0,2.0,0.0,-2.0,0.0,-1.0,1.0,1651023942419924.0
0.0,-6.0,-2.0,0.0,3.0,0.0,-2.0,-2.0,1651023942419924.0
0.0,2.0,-1.0,0.0,-1.0,0.0,-2.0,-1.0,1651023942420920.0
5.0,24.0,0.0,-2.0,-2.0,-2.0,1.0,-1.0,1651023942420920.0
5.0,4.0,5.0,2.0,-1.0,-2.0,1.0,2.0,1651023942442207.0
-11.0,10.0,3.0,2.0,-8.0,-1.0,0.0,-1.0,1651023942442207.0
-6.0,-18.0,-12.0,-1.0,16.0,1.0,-2.0,-2.0,1651023942443199.0
-3.0,-17.0,-5.0,-1.0,-5.0,0.0,0.0,-1.0,1651023942443199.0
-6.0,-6.0,-3.0,-1.0,0.0,0.0,-2.0,-1.0,1651023942455231.0
3.0,-23.0,2.0,0.0,-1.0,0.0,1.0,2.0,1651023942455231.0
-3.0,-24.0,-1.0,-1.0,-6.0,-3.0,-1.0,0.0,1651023942464198.0
-9.0,-6.0,-10.0,-2.0,0.0,-3.0,-2.0,-4.0,1651023942464198.0
-8.0,-32.0,1.0,0.0,1.0,1.0,1.0,-2.0,1651023942479839.0
10.0,28.0,4.0,0.0,-1.0,0.0,0.0,0.0,1651023942479839.0
-1.0,3.0,2.0,1.0,-1.0,-1.0,1.0,0.0,1651023942480824.0
3.0,3.0,-2.0,-3.0,-1.0,-1.0,-2.0,-1.0,1651023942480824.0
2.0,2.0,0.0,2.0,-1.0,-2.0,1.0,0.0,1651023942502192.0
11.0,1.0,1.0,-1.0,5.0,0.0,1.0,1.0,1651023942502192.0
0.0,7.0,-2.0,-4.0,-2.0,-3.0,-2.0,-1.0,1651023942503129.0
-8.0,-28.0,-2.0,-1.0,-4.0,1.0,0.0,-1.0,1651023942503129.0
4.0,12.0,6.0,1.0,0.0,1.0,1.0,2.0,1651023942515230.0
-4.0,-30.0,-7.0,0.0,1.0,-2.0,-2.0,-3.0,1651023942515230.0
9.0,30.0,9.0,2.0,-2.0,1.0,2.0,2.0,1651023942524317.0
2.0,6.0,3.0,2.0,0.0,2.0,-1.0,1.0,1651023942524317.0
4.0,8.0,-1.0,-1.0,1.0,-1.0,1.0,-2.0,1651023942539906.0
-1.0,4.0,0.0,-1.0,2.0,-1.0,0.0,0.0,1651023942539906.0
-5.0,-17.0,-4.0,-3.0,-6.0,1.0,-3.0,0.0,1651023942540888.0
-1.0,0.0,-4.0,-2.0,-2.0,-2.0,-2.0,-2.0,1651023942540888.0
0.0,-7.0,-5.0,1.0,2.0,1.0,-1.0,-2.0,1651023942561898.0
5.0,12.0,4.0,0.0,-2.0,0.0,0.0,1.0,1651023942561898.0
-8.0,-16.0,3.0,0.0,-2.0,-1.0,0.0,-4.0,1651023942563853.0
2.0,22.0,3.0,2.0,-1.0,1.0,2.0,1.0,1651023942563853.0
8.0,22.0,2.0,0.0,0.0,0.0,0.0,0.0,1651023942575832.0
1.0,41.0,5.0,0.0,-1.0,-1.0,0.0,0.0,1651023942575832.0
3.0,3.0,6.0,0.0,-2.0,0.0,0.0,2.0,1651023942584834.0
-15.0,4.0,-8.0,-6.0,-5.0,-5.0,-6.0,-7.0,1651023942584834.0
-1.0,2.0,1.0,1.0,1.0,0.0,1.0,1.0,1651023942599898.0
1.0,4.0,-1.0,1.0,2.0,1.0,-2.0,0.0,1651023942599898.0
-2.0,9.0,0.0,0.0,2.0,-1.0,1.0,0.0,1651023942600889.0
7.0,7.0,5.0,0.0,-2.0,-2.0,1.0,-1.0,1651023942600889.0
-5.0,-17.0,-6.0,-3.0,-2.0,0.0,-1.0,-1.0,1651023942622014.0
-2.0,14.0,-4.0,-2.0,-2.0,-1.0,0.0,-3.0,1651023942622014.0
-12.0,-13.0,-5.0,-2.0,-2.0,-1.0,0.0,-3.0,1651023942623942.0
1.0,-25.0,-1.0,0.0,2.0,1.0,-2.0,2.0,1651023942623942.0
-3.0,-5.0,-3.0,-2.0,-3.0,-1.0,-1.0,-1.0,1651023942644871.0
1.0,-7.0,0.0,1.0,-1.0,1.0,0.0,0.0,1651023942644871.0
8.0,19.0,1.0,1.0,0.0,-1.0,-1.0,1.0,1651023942645905.0
3.0,22.0,6.0,3.0,2.0,1.0,0.0,2.0,1651023942645905.0
2.0,-6.0,0.0,-1.0,-2.0,-1.0,-2.0,-2.0,1651023942659836.0
1.0,-23.0,-5.0,0.0,1.0,-1.0,-1.0,-1.0,1651023942659836.0
2.0,-46.0,-6.0,-1.0,-2.0,0.0,-1.0,1.0,1651023942660831.0
0.0,16.0,6.0,0.0,0.0,-1.0,0.0,-2.0,1651023942660831.0
-3.0,-10.0,-1.0,-1.0,-1.0,-2.0,-1.0,1.0,1651023942682004.0
2.0,14.0,4.0,1.0,2.0,-1.0,1.0,0.0,1651023942682004.0
6.0,12.0,-4.0,-2.0,-2.0,0.0,-1.0,3.0,1651023942683930.0
0.0,1.0,0.0,-1.0,2.0,1.0,0.0,-1.0,1651023942683930.0
-8.0,-24.0,-1.0,-1.0,-1.0,0.0,0.0,-2.0,1651023942704874.0
-1.0,3.0,-4.0,-5.0,-6.0,-3.0,-2.0,-2.0,1651023942704874.0
-7.0,-2.0,2.0,1.0,1.0,-1.0,-1.0,-2.0,1651023942705895.0
-3.0,-19.0,-5.0,1.0,4.0,1.0,1.0,0.0,1651023942705895.0
-2.0,2.0,-4.0,-1.0,-3.0,-2.0,-3.0,1.0,1651023942719946.0
-2.0,-20.0,-2.0,-1.0,0.0,1.0,-1.0,-1.0,1651023942719946.0
0.0,-1.0,-1.0,0.0,-2.0,1.0,1.0,-1.0,1651023942720944.0
1.0,1.0,-1.0,-2.0,-3.0,-1.0,-1.0,0.0,1651023942720944.0
1.0,3.0,1.0,0.0,2.0,-1.0,-1.0,1.0,1651023942741819.0
-6.0,-15.0,0.0,1.0,-1.0,-1.0,-1.0,-3.0,1651023942741819.0
1.0,8.0,0.0,0.0,0.0,-2.0,-2.0,-2.0,1651023942743841.0
1.0,9.0,1.0,0.0,-1.0,0.0,2.0,0.0,1651023942743841.0
0.0,-7.0,-5.0,-2.0,-1.0,1.0,1.0,0.0,1651023942764758.0
-3.0,-8.0,0.0,1.0,1.0,0.0,-1.0,-1.0,1651023942764758.0
-10.0,-18.0,-7.0,-1.0,1.0,-1.0,-3.0,-3.0,1651023942765758.0
-12.0,-58.0,-7.0,0.0,0.0,-1.0,-2.0,-3.0,1651023942765758.0
1.0,7.0,-2.0,-3.0,-4.0,0.0,-1.0,-2.0,1651023942779785.0
1.0,-14.0,-1.0,0.0,0.0,0.0,1.0,1.0,1651023942779785.0
-5.0,-11.0,-3.0,-1.0,-3.0,-3.0,-3.0,-5.0,1651023942780715.0
3.0,1.0,0.0,0.0,0.0,0.0,0.0,2.0,1651023942780715.0
-1.0,17.0,4.0,0.0,-2.0,-1.0,-1.0,-1.0,1651023942802323.0
-4.0,-3.0,-3.0,0.0,0.0,0.0,-1.0,-2.0,1651023942802323.0
6.0,19.0,6.0,2.0,-1.0,1.0,2.0,1.0,1651023942803324.0
2.0,-5.0,-2.0,-1.0,-1.0,-1.0,0.0,0.0,1651023942803324.0
-5.0,-4.0,2.0,-2.0,-1.0,-1.0,-2.0,-3.0,1651023942824415.0
1.0,14.0,0.0,-1.0,2.0,-1.0,-1.0,-1.0,1651023942824415.0
1.0,1.0,0.0,-1.0,-2.0,0.0,0.0,2.0,1651023942826386.0
2.0,28.0,-2.0,-3.0,-3.0,-2.0,-1.0,-1.0,1651023942826386.0
-3.0,-24.0,-3.0,2.0,0.0,1.0,0.0,0.0,1651023942838379.0
5.0,16.0,3.0,1.0,-2.0,0.0,0.0,0.0,1651023942838379.0
-6.0,-36.0,-8.0,-3.0,-1.0,1.0,-1.0,-3.0,1651023942845403.0
3.0,7.0,3.0,-1.0,-3.0,-2.0,0.0,-1.0,1651023942845403.0
-5.0,-2.0,0.0,-1.0,3.0,-1.0,-1.0,-2.0,1651023942861996.0
-1.0,3.0,-3.0,-1.0,-1.0,-2.0,-2.0,-1.0,1651023942861996.0
6.0,7.0,3.0,1.0,0.0,1.0,2.0,1.0,1651023942863939.0
0.0,19.0,3.0,-2.0,-3.0,0.0,0.0,0.0,1651023942863939.0
4.0,27.0,0.0,-2.0,-4.0,-3.0,-2.0,0.0,1651023942884114.0
-6.0,-13.0,-1.0,-1.0,-1.0,0.0,-3.0,-1.0,1651023942884114.0
0.0,7.0,1.0,1.0,3.0,1.0,2.0,1.0,1651023942886048.0
1.0,-15.0,0.0,1.0,1.0,-1.0,-1.0,0.0,1651023942886048.0
3.0,11.0,1.0,0.0,-1.0,1.0,1.0,1.0,1651023942899012.0
3.0,2.0,-2.0,0.0,-1.0,-2.0,2.0,2.0,1651023942899012.0
-4.0,16.0,4.0,-1.0,-2.0,-2.0,-3.0,-2.0,1651023942906022.0
-9.0,5.0,-2.0,-2.0,-2.0,-1.0,-2.0,-3.0,1651023942906022.0
-3.0,-25.0,-7.0,-1.0,-1.0,0.0,-1.0,-1.0,1651023942922042.0
-1.0,-2.0,-1.0,0.0,0.0,0.0,1.0,1.0,1651023942922042.0
14.0,42.0,13.0,3.0,1.0,1.0,2.0,5.0,1651023942923969.0
0.0,-2.0,2.0,2.0,0.0,2.0,2.0,-2.0,1651023942923969.0
2.0,11.0,3.0,0.0,-2.0,0.0,0.0,-2.0,1651023942943939.0
-1.0,-5.0,-1.0,-1.0,-2.0,-1.0,-1.0,-1.0,1651023942943939.0
3.0,5.0,-2.0,-1.0,0.0,0.0,-1.0,0.0,1651023942945911.0
-4.0,-23.0,-2.0,-2.0,0.0,0.0,-2.0,-2.0,1651023942945911.0
1.0,-2.0,-2.0,0.0,-1.0,-1.0,-1.0,0.0,1651023942958962.0
2.0,5.0,-2.0,0.0,-3.0,1.0,-1.0,-1.0,1651023942958962.0
3.0,9.0,0.0,-1.0,-2.0,-2.0,1.0,1.0,1651023942965915.0
3.0,5.0,-1.0,0.0,-1.0,0.0,-1.0,3.0,1651023942965915.0
0.0,-3.0,-1.0,-1.0,-2.0,1.0,-1.0,0.0,1651023942981941.0
0.0,2.0,0.0,-1.0,-3.0,-2.0,-1.0,0.0,1651023942981941.0
0.0,-14.0,-5.0,0.0,0.0,1.0,-3.0,-2.0,1651023942983893.0
1.0,7.0,3.0,2.0,4.0,1.0,1.0,1.0,1651023942983893.0
-2.0,2.0,-3.0,1.0,1.0,1.0,-1.0,-2.0,1651023943004854.0
1.0,-8.0,1.0,2.0,0.0,0.0,1.0,2.0,1651023943004854.0
-1.0,-7.0,-2.0,-1.0,-4.0,-1.0,0.0,-1.0,1651023943005807.0
-1.0,17.0,4.0,-1.0,0.0,0.0,1.0,1.0,1651023943005807.0
1.0,-2.0,-1.0,0.0,1.0,0.0,1.0,-1.0,1651023943019003.0
-2.0,-1.0,-2.0,0.0,1.0,1.0,1.0,-2.0,1651023943019003.0
-4.0,-8.0,-3.0,-1.0,0.0,-1.0,-1.0,-4.0,1651023943025926.0
1.0,-5.0,-4.0,-1.0,0.0,0.0,-2.0,0.0,1651023943025926.0
12.0,34.0,4.0,-1.0,-2.0,-1.0,2.0,3.0,1651023943041995.0
-11.0,-7.0,2.0,-3.0,-3.0,-4.0,-4.0,-5.0,1651023943041995.0
2.0,1.0,-1.0,-1.0,0.0,-2.0,-1.0,0.0,1651023943043949.0
-6.0,-21.0,-4.0,1.0,0.0,1.0,0.0,-2.0,1651023943043949.0
1.0,1.0,0.0,0.0,0.0,-1.0,2.0,1.0,1651023943064917.0
0.0,6.0,0.0,-2.0,1.0,1.0,1.0,0.0,1651023943064917.0
-6.0,-3.0,-2.0,-1.0,-1.0,-1.0,-1.0,-2.0,1651023943065876.0
5.0,9.0,1.0,-1.0,-6.0,-3.0,0.0,2.0,1651023943065876.0
-6.0,-44.0,-11.0,-2.0,-5.0,-3.0,-4.0,-3.0,1651023943078896.0
-10.0,-41.0,-8.0,5.0,17.0,2.0,0.0,-2.0,1651023943078896.0
2.0,-7.0,2.0,0.0,-3.0,0.0,-1.0,1.0,1651023943085874.0
3.0,4.0,-1.0,0.0,1.0,-2.0,1.0,-1.0,1651023943085874.0
-3.0,-1.0,2.0,0.0,-5.0,0.0,1.0,0.0,1651023943101834.0
2.0,12.0,1.0,-3.0,-7.0,-1.0,-1.0,1.0,1651023943101834.0
-2.0,-5.0,-3.0,-2.0,2.0,0.0,-2.0,-2.0,1651023943103762.0
-3.0,4.0,-1.0,-1.0,-4.0,1.0,0.0,1.0,1651023943103762.0
2.0,13.0,1.0,0.0,4.0,0.0,-1.0,0.0,1651023943124996.0
0.0,8.0,5.0,3.0,2.0,2.0,1.0,-3.0,1651023943124996.0
-1.0,1.0,-1.0,-2.0,-11.0,-1.0,-1.0,1.0,1651023943125840.0
1.0,2.0,-1.0,1.0,13.0,-1.0,-2.0,0.0,1651023943125840.0
0.0,1.0,1.0,0.0,-1.0,0.0,-1.0,1.0,1651023943138406.0
4.0,13.0,-7.0,-5.0,-4.0,-3.0,-3.0,-2.0,1651023943138406.0
-2.0,-4.0,1.0,-2.0,-1.0,-1.0,-1.0,2.0,1651023943147318.0
4.0,9.0,3.0,-1.0,-7.0,-3.0,0.0,-1.0,1651023943147318.0
-4.0,6.0,1.0,-1.0,0.0,-1.0,-1.0,-3.0,1651023943169936.0
-1.0,-3.0,0.0,0.0,-2.0,1.0,0.0,1.0,1651023943169936.0
9.0,19.0,4.0,-2.0,2.0,-1.0,0.0,0.0,1651023943170945.0
-5.0,-8.0,-5.0,-2.0,-2.0,2.0,-2.0,-2.0,1651023943170945.0
0.0,7.0,2.0,0.0,2.0,-1.0,-2.0,1.0,1651023943184063.0
2.0,4.0,1.0,-2.0,-6.0,-3.0,2.0,2.0,1651023943184063.0
-4.0,0.0,-3.0,0.0,0.0,0.0,1.0,1.0,1651023943191024.0
-2.0,-12.0,2.0,4.0,5.0,2.0,2.0,2.0,1651023943191024.0
-2.0,-8.0,0.0,0.0,-1.0,-1.0,-1.0,0.0,1651023943197985.0
-1.0,3.0,-1.0,-1.0,-2.0,0.0,0.0,0.0,1651023943197985.0
0.0,-9.0,-4.0,-3.0,2.0,0.0,-3.0,-2.0,1651023943206707.0
3.0,-2.0,-1.0,-1.0,-2.0,0.0,1.0,0.0,1651023943206707.0
-8.0,-21.0,-4.0,-4.0,-2.0,-3.0,-3.0,-3.0,1651023943221735.0
6.0,-15.0,-1.0,1.0,1.0,1.0,2.0,3.0,1651023943221735.0
-5.0,38.0,6.0,1.0,2.0,-1.0,-2.0,-4.0,1651023943223690.0
-10.0,-26.0,-2.0,-2.0,-5.0,-2.0,-1.0,-2.0,1651023943223690.0
1.0,-22.0,-4.0,1.0,2.0,0.0,2.0,1.0,1651023943244790.0
3.0,19.0,3.0,-2.0,1.0,0.0,-1.0,0.0,1651023943244790.0
-1.0,-9.0,0.0,1.0,-2.0,-1.0,0.0,-2.0,1651023943245859.0
0.0,19.0,0.0,-2.0,-2.0,-2.0,-1.0,0.0,1651023943245859.0
1.0,-9.0,-4.0,-2.0,-2.0,-1.0,-1.0,-1.0,1651023943257755.0
3.0,-7.0,0.0,1.0,0.0,1.0,1.0,1.0,1651023943257755.0
-7.0,-14.0,10.0,1.0,-1.0,1.0,-1.0,-3.0,1651023943266709.0
6.0,53.0,-9.0,0.0,-1.0,-1.0,-1.0,0.0,1651023943266709.0
1.0,-14.0,5.0,0.0,2.0,0.0,2.0,1.0,1651023943282240.0
-1.0,-7.0,-7.0,-2.0,-5.0,-1.0,-4.0,-3.0,1651023943282240.0
3.0,6.0,6.0,-2.0,-3.0,-2.0,1.0,2.0,1651023943283238.0
0.0,-3.0,14.0,4.0,-2.0,0.0,0.0,0.0,1651023943283238.0
3.0,18.0,-7.0,-2.0,1.0,1.0,1.0,-1.0,1651023943311954.0
-2.0,-5.0,-9.0,-3.0,-1.0,0.0,2.0,-2.0,1651023943311954.0
-3.0,-26.0,-2.0,1.0,0.0,0.0,-1.0,-1.0,1651023943327906.0
-4.0,-11.0,1.0,0.0,0.0,0.0,-2.0,-2.0,1651023943327906.0
-7.0,-14.0,-4.0,-8.0,-13.0,-2.0,0.0,-2.0,1651023943327906.0
6.0,26.0,26.0,10.0,13.0,-1.0,-3.0,1.0,1651023943327906.0
4.0,-23.0,-46.0,-17.0,-7.0,-3.0,-1.0,-1.0,1651023943329849.0
-7.0,-14.0,0.0,7.0,-1.0,1.0,0.0,0.0,1651023943329849.0
-8.0,3.0,8.0,17.0,6.0,0.0,-3.0,-7.0,1651023943341872.0
-3.0,4.0,-12.0,-12.0,-11.0,-2.0,-2.0,0.0,1651023943341872.0
3.0,4.0,10.0,5.0,6.0,5.0,4.0,6.0,1651023943343802.0
-3.0,3.0,-7.0,-7.0,2.0,-1.0,-3.0,-5.0,1651023943343802.0
12.0,15.0,7.0,0.0,12.0,5.0,2.0,4.0,1651023943364866.0
-1.0,-1.0,-3.0,-1.0,-11.0,-1.0,0.0,-2.0,1651023943364866.0
5.0,1.0,-13.0,-8.0,-2.0,-1.0,-2.0,-3.0,1651023943365864.0
-16.0,-3.0,-4.0,-10.0,-19.0,-9.0,-1.0,0.0,1651023943365864.0
2.0,3.0,5.0,1.0,7.0,-1.0,-6.0,-2.0,1651023943377832.0
-8.0,-4.0,3.0,-7.0,-7.0,-1.0,1.0,-4.0,1651023943377832.0
6.0,-4.0,-6.0,-3.0,-10.0,-6.0,1.0,2.0,1651023943386809.0
8.0,0.0,0.0,14.0,28.0,10.0,1.0,1.0,1651023943386809.0
-1.0,13.0,18.0,30.0,-19.0,-3.0,3.0,-2.0,1651023943401830.0
-6.0,-23.0,-22.0,-15.0,34.0,4.0,-4.0,-5.0,1651023943401830.0
-5.0,2.0,8.0,2.0,-11.0,-5.0,-4.0,-4.0,1651023943403787.0
20.0,0.0,1.0,-15.0,-19.0,-4.0,0.0,2.0,1651023943403787.0
-8.0,15.0,-7.0,-54.0,-11.0,0.0,-2.0,4.0,1651023943423928.0
-6.0,-29.0,-1.0,56.0,-2.0,-10.0,-5.0,-4.0,1651023943423928.0
-13.0,4.0,13.0,1.0,20.0,17.0,-4.0,-3.0,1651023943425925.0
36.0,5.0,-17.0,-26.0,-6.0,-4.0,5.0,4.0,1651023943425925.0
-21.0,7.0,5.0,42.0,17.0,1.0,-20.0,-2.0,1651023943437960.0
2.0,-1.0,3.0,0.0,-9.0,11.0,14.0,6.0,1651023943437960.0
28.0,-3.0,7.0,-2.0,-2.0,-3.0,10.0,5.0,1651023943446868.0
-67.0,14.0,-31.0,-51.0,-9.0,-14.0,-56.0,-32.0,1651023943446868.0
24.0,19.0,0.0,-14.0,-12.0,-7.0,57.0,13.0,1651023943461887.0
-6.0,6.0,27.0,50.0,31.0,10.0,-3.0,5.0,1651023943461887.0
11.0,19.0,20.0,10.0,-12.0,-3.0,-1.0,3.0,1651023943463850.0
1.0,-20.0,-6.0,-6.0,2.0,1.0,2.0,6.0,1651023943463850.0
-7.0,-45.0,-29.0,-54.0,-16.0,4.0,3.0,3.0,1651023943484912.0
-6.0,20.0,28.0,13.0,-5.0,-13.0,15.0,4.0,1651023943484912.0
-52.0,-2.0,-11.0,0.0,-9.0,-11.0,-26.0,-13.0,1651023943485877.0
29.0,-11.0,-27.0,21.0,8.0,0.0,30.0,-1.0,1651023943485877.0
25.0,7.0,11.0,24.0,6.0,-32.0,-48.0,2.0,1651023943497911.0
-41.0,-16.0,-31.0,-70.0,-26.0,-30.0,-28.0,-26.0,1651023943497911.0
10.0,-15.0,3.0,-12.0,10.0,64.0,73.0,8.0,1651023943506927.0
-9.0,15.0,43.0,85.0,38.0,90.0,-26.0,9.0,1651023943506927.0
-3.0,11.0,55.0,54.0,28.0,16.0,22.0,6.0,1651023943520959.0
26.0,-8.0,-15.0,-19.0,-11.0,2.0,36.0,16.0,1651023943520959.0
-1.0,16.0,-36.0,-37.0,-14.0,-121.0,-118.0,-35.0,1651023943527944.0
4.0,0.0,34.0,6.0,-26.0,-73.0,31.0,8.0,1651023943527944.0
-6.0,-20.0,-80.0,-29.0,3.0,109.0,78.0,8.0,1651023943544873.0
-4.0,16.0,71.0,22.0,6.0,-17.0,-89.0,-28.0,1651023943544873.0
-13.0,-18.0,-10.0,0.0,-4.0,3.0,58.0,13.0,1651023943545825.0
21.0,9.0,22.0,13.0,-1.0,-25.0,49.0,28.0,1651023943545825.0
-6.0,-3.0,-31.0,-25.0,-17.0,-52.0,-72.0,-21.0,1651023943557858.0
10.0,1.0,-32.0,-25.0,3.0,23.0,41.0,15.0,1651023943557858.0
-2.0,-9.0,8.0,18.0,12.0,12.0,-12.0,-2.0,1651023943566760.0
8.0,21.0,60.0,33.0,9.0,-1.0,-5.0,-5.0,1651023943566760.0
-6.0,-3.0,20.0,31.0,5.0,-18.0,-5.0,1.0,1651023943581733.0
-4.0,-23.0,-126.0,-105.0,-40.0,0.0,0.0,1.0,1651023943581733.0
13.0,16.0,78.0,39.0,6.0,-24.0,-36.0,-4.0,1651023943587773.0
-12.0,-10.0,6.0,0.0,-12.0,-25.0,5.0,-6.0,1651023943587773.0
-5.0,-12.0,-62.0,-10.0,5.0,25.0,-9.0,-8.0,1651023943611822.0
20.0,22.0,56.0,32.0,20.0,66.0,42.0,14.0,1651023943611822.0
5.0,-1.0,17.0,36.0,24.0,0.0,0.0,11.0,1651023943613779.0
-22.0,-24.0,-43.0,-30.0,0.0,-7.0,-32.0,-18.0,1651023943613779.0
-1.0,4.0,-41.0,-24.0,-23.0,-47.0,-9.0,-13.0,1651023943626720.0
6.0,-1.0,9.0,1.0,-5.0,-11.0,-15.0,1.0,1651023943626720.0
23.0,18.0,28.0,12.0,10.0,39.0,72.0,25.0,1651023943628716.0
-5.0,-17.0,-13.0,-4.0,-2.0,-5.0,-77.0,-23.0,1651023943628716.0
11.0,8.0,24.0,10.0,1.0,-50.0,-13.0,0.0,1651023943640745.0
-10.0,4.0,30.0,12.0,-9.0,4.0,6.0,-1.0,1651023943640745.0
-4.0,-6.0,-56.0,-37.0,-13.0,29.0,30.0,1.0,1651023943649663.0
3.0,-11.0,-36.0,-14.0,6.0,44.0,5.0,8.0,1651023943649663.0
-3.0,5.0,51.0,38.0,10.0,-2.0,38.0,9.0,1651023943664739.0
0.0,-12.0,-8.0,-6.0,7.0,-2.0,-11.0,1.0,1651023943664739.0
3.0,5.0,14.0,12.0,-11.0,-53.0,-57.0,-11.0,1651023943665749.0
-10.0,17.0,18.0,-7.0,5.0,29.0,29.0,2.0,1651023943665749.0
2.0,-8.0,0.0,5.0,17.0,24.0,21.0,8.0,1651023943687313.0
-12.0,-3.0,-1.0,28.0,7.0,-37.0,-40.0,-15.0,1651023943687313.0
1.0,-13.0,-22.0,-11.0,-10.0,4.0,8.0,5.0,1651023943688866.0
4.0,-9.0,-21.0,-30.0,-17.0,2.0,-4.0,-4.0,1651023943688866.0
5.0,11.0,48.0,15.0,-8.0,-42.0,16.0,11.0,1651023943700861.0
-1.0,-4.0,-4.0,0.0,3.0,14.0,5.0,-5.0,1651023943700861.0
-1.0,1.0,-34.0,-21.0,-7.0,-5.0,-1.0,3.0,1651023943707883.0
14.0,3.0,42.0,5.0,-6.0,15.0,16.0,-3.0,1651023943707883.0
-9.0,11.0,27.0,8.0,8.0,7.0,-9.0,0.0,1651023943724770.0
15.0,-14.0,-83.0,-18.0,-3.0,-26.0,10.0,3.0,1651023943724770.0
-5.0,4.0,7.0,-14.0,-1.0,98.0,24.0,-5.0,1651023943725768.0
2.0,9.0,-18.0,-8.0,-2.0,-6.0,0.0,8.0,1651023943725768.0
14.0,-6.0,4.0,-18.0,-7.0,-4.0,-37.0,-2.0,1651023943747337.0
-18.0,3.0,33.0,26.0,4.0,-19.0,-8.0,-11.0,1651023943747337.0
-6.0,-3.0,31.0,27.0,12.0,-36.0,6.0,2.0,1651023943748901.0
11.0,0.0,-20.0,-14.0,2.0,-15.0,-5.0,2.0,1651023943748901.0
-11.0,16.0,-13.0,21.0,5.0,21.0,19.0,0.0,1651023943760848.0
16.0,11.0,23.0,7.0,-2.0,-8.0,0.0,5.0,1651023943760848.0
-6.0,-6.0,3.0,-6.0,-6.0,-6.0,-12.0,-4.0,1651023943767823.0
-11.0,-4.0,-13.0,9.0,-1.0,-7.0,-9.0,-6.0,1651023943767823.0
6.0,-13.0,3.0,-9.0,-5.0,-20.0,-18.0,-7.0,1651023943784847.0
6.0,13.0,0.0,-4.0,2.0,2.0,23.0,7.0,1651023943784847.0
-40.0,-3.0,22.0,28.0,12.0,16.0,12.0,3.0,1651023943785775.0
20.0,-6.0,-20.0,-10.0,-3.0,-1.0,-26.0,-2.0,1651023943785775.0
-1.0,-8.0,-36.0,-47.0,-27.0,-30.0,2.0,-5.0,1651023943806786.0
5.0,8.0,14.0,20.0,24.0,99.0,32.0,14.0,1651023943806786.0
9.0,1.0,-23.0,-24.0,-7.0,-23.0,7.0,-3.0,1651023943808741.0
-17.0,4.0,26.0,12.0,-1.0,-17.0,-4.0,1.0,1651023943808741.0
0.0,-12.0,1.0,-3.0,-5.0,-9.0,-27.0,-9.0,1651023943820682.0
3.0,3.0,17.0,-6.0,-14.0,-33.0,-12.0,-1.0,1651023943820682.0
2.0,-5.0,-39.0,1.0,6.0,-9.0,-12.0,-2.0,1651023943829659.0
-5.0,-2.0,6.0,0.0,3.0,11.0,33.0,7.0,1651023943829659.0
5.0,7.0,-8.0,-7.0,9.0,12.0,-3.0,0.0,1651023943844664.0
-5.0,13.0,33.0,7.0,-8.0,-6.0,-11.0,0.0,1651023943844664.0
3.0,-15.0,-15.0,8.0,10.0,15.0,8.0,3.0,1651023943845811.0
-8.0,0.0,-10.0,-6.0,-7.0,-19.0,3.0,-3.0,1651023943845811.0
2.0,-5.0,-4.0,-2.0,5.0,29.0,7.0,5.0,1651023943866972.0
-19.0,14.0,10.0,-5.0,-10.0,-26.0,-7.0,-6.0,1651023943866972.0
6.0,-17.0,-13.0,-9.0,-12.0,-32.0,-20.0,-10.0,1651023943868896.0
2.0,-3.0,6.0,2.0,1.0,33.0,2.0,0.0,1651023943868896.0
0.0,5.0,10.0,-3.0,-8.0,-35.0,-21.0,-3.0,1651023943880931.0
-8.0,0.0,0.0,1.0,5.0,52.0,12.0,1.0,1651023943880931.0
-28.0,-14.0,-9.0,-6.0,-2.0,-30.0,-21.0,-13.0,1651023943889839.0
18.0,3.0,-13.0,-11.0,6.0,52.0,30.0,4.0,1651023943889839.0
-3.0,0.0,33.0,27.0,8.0,10.0,6.0,3.0,1651023943904853.0
16.0,2.0,-32.0,-13.0,-6.0,-26.0,53.0,10.0,1651023943904853.0
23.0,20.0,10.0,8.0,-15.0,-37.0,-99.0,-11.0,1651023943905820.0
-12.0,-14.0,-2.0,-17.0,0.0,-18.0,-7.0,-13.0,1651023943905820.0
-3.0,-11.0,-33.0,-19.0,-4.0,0.0,-8.0,1.0,1651023943926936.0
-2.0,14.0,-2.0,2.0,7.0,6.0,13.0,6.0,1651023943926936.0
-8.0,-8.0,15.0,-14.0,-5.0,25.0,32.0,4.0,1651023943928890.0
13.0,19.0,51.0,52.0,13.0,-11.0,3.0,3.0,1651023943928890.0
-13.0,-15.0,-49.0,-22.0,-8.0,-3.0,2.0,-7.0,1651023943949823.0
-2.0,-25.0,-7.0,-1.0,-14.0,-18.0,-28.0,-8.0,1651023943949823.0
17.0,17.0,27.0,0.0,4.0,15.0,30.0,10.0,1651023943950805.0
-20.0,-22.0,-70.0,-39.0,-25.0,-80.0,-41.0,-6.0,1651023943950805.0
3.0,8.0,41.0,12.0,11.0,90.0,55.0,0.0,1651023943964837.0
4.0,-2.0,-26.0,-10.0,-5.0,-24.0,-19.0,-4.0,1651023943964837.0
-10.0,-5.0,16.0,8.0,0.0,2.0,-19.0,-8.0,1651023943965774.0
6.0,15.0,50.0,35.0,4.0,-17.0,22.0,9.0,1651023943965774.0
-12.0,-26.0,-74.0,-50.0,-21.0,-18.0,-16.0,-8.0,1651023943987293.0
15.0,3.0,25.0,0.0,16.0,37.0,10.0,5.0,1651023943987293.0
-6.0,3.0,-23.0,12.0,10.0,9.0,15.0,-2.0,1651023943988868.0
-10.0,-4.0,21.0,5.0,-5.0,-16.0,-13.0,-4.0,1651023943988868.0
2.0,-10.0,-15.0,-32.0,-21.0,-15.0,1.0,-1.0,1651023944000904.0
5.0,9.0,21.0,35.0,8.0,-5.0,-11.0,1.0,1651023944000904.0
1.0,-5.0,-41.0,-58.0,-13.0,-17.0,11.0,5.0,1651023944007884.0
-4.0,15.0,40.0,38.0,7.0,17.0,21.0,5.0,1651023944007884.0
-6.0,-10.0,-43.0,-16.0,2.0,-5.0,-35.0,-17.0,1651023944024923.0
4.0,2.0,17.0,7.0,3.0,11.0,-19.0,-5.0,1651023944024923.0
1.0,-11.0,14.0,20.0,0.0,-4.0,-1.0,2.0,1651023944025922.0
0.0,-5.0,2.0,-9.0,-3.0,-19.0,9.0,2.0,1651023944025922.0
19.0,32.0,12.0,-6.0,-7.0,-6.0,20.0,12.0,1651023944046932.0
-2.0,-9.0,0.0,16.0,10.0,39.0,2.0,-2.0,1651023944046932.0
-16.0,4.0,4.0,3.0,1.0,27.0,9.0,-3.0,1651023944048860.0
-10.0,-23.0,-43.0,-32.0,-2.0,25.0,7.0,0.0,1651023944048860.0
-4.0,7.0,37.0,37.0,9.0,-26.0,-12.0,0.0,1651023944060895.0
8.0,4.0,14.0,-7.0,-12.0,-47.0,-5.0,0.0,1651023944060895.0
13.0,16.0,16.0,17.0,8.0,19.0,9.0,7.0,1651023944067817.0
-11.0,-20.0,-48.0,-31.0,-3.0,5.0,24.0,-2.0,1651023944067817.0
1.0,12.0,51.0,51.0,23.0,-31.0,-28.0,1.0,1651023944083941.0
0.0,-1.0,-13.0,-17.0,-6.0,36.0,0.0,-4.0,1651023944083941.0
0.0,-21.0,-38.0,-18.0,-7.0,-2.0,1.0,0.0,1651023944085947.0
5.0,14.0,64.0,44.0,14.0,4.0,-14.0,0.0,1651023944085947.0
-4.0,-6.0,-68.0,-36.0,-15.0,4.0,19.0,5.0,1651023944106519.0
-7.0,1.0,11.0,17.0,17.0,-8.0,-2.0,-4.0,1651023944106519.0
16.0,5.0,22.0,21.0,-6.0,-10.0,-5.0,3.0,1651023944108451.0
-3.0,4.0,-15.0,-12.0,5.0,-1.0,-4.0,-2.0,1651023944108451.0
-4.0,0.0,42.0,19.0,1.0,-20.0,25.0,10.0,1651023944120485.0
-12.0,-15.0,-49.0,-25.0,-5.0,32.0,-43.0,-14.0,1651023944120485.0
-5.0,6.0,-7.0,-14.0,3.0,62.0,17.0,0.0,1651023944129394.0
2.0,2.0,-3.0,-4.0,-8.0,0.0,-9.0,-1.0,1651023944129394.0
2.0,8.0,42.0,19.0,-2.0,-27.0,-12.0,-7.0,1651023944143928.0
-7.0,-11.0,-24.0,-12.0,-5.0,7.0,48.0,4.0,1651023944143928.0
10.0,4.0,17.0,18.0,1.0,-32.0,-43.0,-11.0,1651023944145918.0
-30.0,-12.0,-18.0,-21.0,-2.0,11.0,-5.0,-6.0,1651023944145918.0
-2.0,-5.0,1.0,-1.0,2.0,8.0,10.0,-7.0,1651023944166979.0
-9.0,-3.0,-21.0,-18.0,-13.0,-40.0,-22.0,-8.0,1651023944166979.0
6.0,3.0,26.0,30.0,7.0,-1.0,8.0,2.0,1651023944168907.0
21.0,15.0,-8.0,5.0,6.0,8.0,16.0,12.0,1651023944168907.0
-6.0,-10.0,28.0,20.0,8.0,7.0,-21.0,-8.0,1651023944180938.0
4.0,10.0,7.0,-7.0,-12.0,-24.0,2.0,2.0,1651023944180938.0
-7.0,3.0,-17.0,8.0,14.0,9.0,17.0,3.0,1651023944195903.0
14.0,15.0,14.0,0.0,-8.0,-39.0,-23.0,-5.0,1651023944195903.0
-10.0,-15.0,-19.0,-12.0,2.0,55.0,13.0,1.0,1651023944204811.0
17.0,0.0,15.0,9.0,6.0,14.0,4.0,5.0,1651023944204811.0
7.0,8.0,12.0,-8.0,0.0,-14.0,24.0,8.0,1651023944205809.0
1.0,-2.0,17.0,15.0,4.0,32.0,7.0,0.0,1651023944205809.0
-6.0,-5.0,-56.0,-37.0,-14.0,-11.0,-36.0,-8.0,1651023944227312.0
2.0,9.0,23.0,12.0,-8.0,-31.0,-18.0,-3.0,1651023944227312.0
-2.0,-12.0,-5.0,-9.0,-9.0,-16.0,10.0,0.0,1651023944228829.0
1.0,1.0,-27.0,-17.0,0.0,-3.0,-18.0,-9.0,1651023944228829.0
4.0,10.0,46.0,19.0,7.0,-7.0,15.0,13.0,1651023944240863.0
-6.0,-19.0,-8.0,10.0,10.0,6.0,3.0,3.0,1651023944240863.0
1.0,0.0,-42.0,-40.0,-21.0,-14.0,12.0,-2.0,1651023944249935.0
-12.0,5.0,17.0,30.0,21.0,12.0,-14.0,5.0,1651023944249935.0
-1.0,14.0,31.0,23.0,7.0,10.0,2.0,3.0,1651023944264989.0
-4.0,-2.0,-29.0,-43.0,-19.0,-38.0,-5.0,3.0,1651023944264989.0
5.0,6.0,12.0,29.0,19.0,-12.0,-6.0,-1.0,1651023944266917.0
5.0,-2.0,6.0,2.0,-11.0,9.0,13.0,3.0,1651023944266917.0
2.0,-1.0,-3.0,-12.0,2.0,30.0,4.0,-4.0,1651023944287013.0
-12.0,0.0,-2.0,8.0,-2.0,-26.0,-8.0,-3.0,1651023944287013.0
-5.0,-6.0,-18.0,-20.0,-5.0,38.0,4.0,-4.0,1651023944288043.0
-4.0,-16.0,-15.0,-7.0,-14.0,-32.0,0.0,-4.0,1651023944288043.0
-1.0,1.0,10.0,9.0,7.0,23.0,6.0,2.0,1651023944300996.0
1.0,-1.0,12.0,8.0,-1.0,-3.0,6.0,1.0,1651023944300996.0
-2.0,2.0,15.0,0.0,-7.0,-19.0,-5.0,-8.0,1651023944309956.0
10.0,5.0,-7.0,-10.0,6.0,47.0,17.0,25.0,1651023944309956.0
-3.0,-7.0,-20.0,1.0,1.0,12.0,8.0,-19.0,1651023944324914.0
6.0,-2.0,-26.0,10.0,3.0,-16.0,18.0,12.0,1651023944324914.0
-17.0,2.0,4.0,-53.0,-20.0,-15.0,-48.0,-23.0,1651023944325911.0
-3.0,0.0,29.0,81.0,25.0,-1.0,26.0,12.0,1651023944325911.0
4.0,1.0,32.0,-12.0,-10.0,-20.0,-42.0,-24.0,1651023944346992.0
-5.0,-14.0,-65.0,-30.0,6.0,-6.0,-13.0,-6.0,1651023944346992.0
2.0,1.0,1.0,23.0,6.0,6.0,3.0,-1.0,1651023944348960.0
4.0,0.0,0.0,-41.0,-23.0,-14.0,16.0,-1.0,1651023944348960.0
1.0,7.0,25.0,54.0,19.0,-9.0,0.0,13.0,1651023944360971.0
5.0,10.0,21.0,13.0,4.0,17.0,13.0,6.0,1651023944360971.0
-9.0,-27.0,-30.0,-17.0,-3.0,0.0,-11.0,-14.0,1651023944369864.0
2.0,-1.0,-9.0,-20.0,-11.0,-25.0,-31.0,-14.0,1651023944369864.0
1.0,3.0,-7.0,-12.0,0.0,52.0,46.0,16.0,1651023944384824.0
-6.0,5.0,37.0,-1.0,-5.0,-18.0,11.0,1.0,1651023944384824.0
-2.0,-2.0,-40.0,-24.0,-7.0,-25.0,-30.0,-3.0,1651023944385820.0
-11.0,-3.0,-1.0,-5.0,4.0,4.0,8.0,2.0,1651023944385820.0
-6.0,-8.0,-16.0,-20.0,-9.0,6.0,-21.0,6.0,1651023944406968.0
7.0,15.0,16.0,20.0,-2.0,-9.0,-6.0,-3.0,1651023944406968.0
4.0,-9.0,-1.0,-8.0,9.0,25.0,19.0,3.0,1651023944408924.0
13.0,-2.0,-22.0,-17.0,0.0,-18.0,-5.0,2.0,1651023944408924.0
-6.0,-7.0,2.0,9.0,2.0,-6.0,11.0,0.0,1651023944420931.0
-3.0,7.0,48.0,37.0,7.0,23.0,-3.0,-4.0,1651023944420931.0
2.0,-2.0,-27.0,-8.0,-9.0,-18.0,29.0,3.0,1651023944429942.0
4.0,-5.0,-19.0,-19.0,-3.0,3.0,-19.0,-4.0,1651023944429942.0
2.0,13.0,0.0,-6.0,12.0,-8.0,19.0,6.0,1651023944444019.0
-1.0,-13.0,0.0,2.0,-8.0,22.0,-30.0,-7.0,1651023944444019.0
0.0,10.0,37.0,26.0,-1.0,-9.0,-11.0,0.0,1651023944446018.0
-3.0,1.0,-10.0,-2.0,-3.0,10.0,10.0,-7.0,1651023944446018.0
-2.0,-3.0,-19.0,-21.0,-15.0,-50.0,-5.0,6.0,1651023944467089.0
3.0,0.0,5.0,0.0,11.0,15.0,-3.0,0.0,1651023944467089.0
3.0,6.0,17.0,11.0,10.0,42.0,5.0,6.0,1651023944469016.0
1.0,-2.0,-5.0,-5.0,-1.0,14.0,13.0,1.0,1651023944469016.0
0.0,3.0,10.0,-4.0,-12.0,-37.0,-21.0,-7.0,1651023944480994.0
6.0,7.0,-12.0,-16.0,2.0,14.0,2.0,-11.0,1651023944480994.0
-13.0,-14.0,0.0,33.0,12.0,2.0,19.0,23.0,1651023944489901.0
4.0,7.0,12.0,3.0,-3.0,-15.0,-3.0,6.0,1651023944489901.0
1.0,-10.0,-26.0,-18.0,-9.0,-12.0,-4.0,-4.0,1651023944511871.0
14.0,8.0,24.0,12.0,14.0,31.0,0.0,0.0,1651023944511871.0
-5.0,3.0,6.0,26.0,3.0,-19.0,-8.0,8.0,1651023944513866.0
-8.0,5.0,13.0,0.0,-5.0,-37.0,-16.0,-13.0,1651023944513866.0
15.0,-6.0,-34.0,-9.0,6.0,77.0,36.0,13.0,1651023944526815.0
-1.0,3.0,11.0,-1.0,-13.0,-31.0,-10.0,-5.0,1651023944526815.0
-4.0,-3.0,4.0,-4.0,-7.0,-40.0,21.0,-2.0,1651023944528798.0
-4.0,-2.0,0.0,7.0,22.0,86.0,-1.0,0.0,1651023944528798.0
-1.0,1.0,-5.0,2.0,-7.0,-23.0,-10.0,-11.0,1651023944549879.0
0.0,-14.0,-16.0,-31.0,0.0,44.0,28.0,18.0,1651023944549879.0
6.0,14.0,35.0,23.0,3.0,-17.0,-12.0,-5.0,1651023944550787.0
-5.0,-9.0,-24.0,-17.0,-10.0,-19.0,0.0,3.0,1651023944550787.0
4.0,7.0,14.0,0.0,-2.0,8.0,6.0,-8.0,1651023944564816.0
-9.0,-7.0,-17.0,1.0,0.0,-26.0,-1.0,5.0,1651023944564816.0
-7.0,11.0,28.0,28.0,17.0,-2.0,-10.0,-1.0,1651023944565745.0
9.0,-3.0,-22.0,-26.0,-3.0,28.0,-5.0,-1.0,1651023944565745.0
-9.0,-2.0,-3.0,-2.0,5.0,-5.0,-22.0,-13.0,1651023944586870.0
-7.0,-5.0,-19.0,-12.0,-18.0,-21.0,3.0,0.0,1651023944586870.0
5.0,4.0,6.0,-15.0,-12.0,-22.0,-2.0,7.0,1651023944588830.0
-5.0,9.0,32.0,8.0,-6.0,13.0,0.0,-9.0,1651023944588830.0
-2.0,0.0,-12.0,0.0,-2.0,-18.0,-9.0,4.0,1651023944609234.0
-4.0,-3.0,10.0,10.0,10.0,5.0,22.0,3.0,1651023944609234.0
9.0,4.0,-35.0,-43.0,-9.0,17.0,-3.0,4.0,1651023944611187.0
0.0,-3.0,27.0,65.0,20.0,-4.0,2.0,0.0,1651023944611187.0
-9.0,-11.0,-5.0,-22.0,-16.0,-28.0,-23.0,-9.0,1651023944624184.0
1.0,6.0,12.0,-6.0,-2.0,11.0,6.0,3.0,1651023944624184.0
-5.0,-10.0,-15.0,14.0,-4.0,-14.0,-40.0,-22.0,1651023944626144.0
-3.0,-3.0,-14.0,-19.0,-7.0,-30.0,-4.0,1.0,1651023944626144.0
4.0,0.0,-1.0,5.0,4.0,6.0,29.0,17.0,1651023944646820.0
-12.0,4.0,7.0,-3.0,3.0,-13.0,-9.0,-3.0,1651023944646820.0
2.0,-9.0,2.0,-10.0,-3.0,27.0,-1.0,-13.0,1651023944648842.0
2.0,2.0,-5.0,-1.0,-10.0,-40.0,4.0,11.0,1651023944648842.0
3.0,4.0,25.0,13.0,11.0,5.0,6.0,2.0,1651023944669941.0
-5.0,-25.0,-4.0,-14.0,-10.0,-2.0,-12.0,-8.0,1651023944669941.0
6.0,6.0,-19.0,6.0,1.0,7.0,4.0,0.0,1651023944670886.0
-9.0,-9.0,-55.0,-41.0,-13.0,-17.0,-11.0,-12.0,1651023944670886.0
-1.0,-2.0,4.0,4.0,0.0,15.0,5.0,1.0,1651023944683920.0
-2.0,4.0,21.0,10.0,-7.0,-27.0,-2.0,7.0,1651023944683920.0
1.0,1.0,-5.0,-15.0,1.0,3.0,-1.0,-1.0,1651023944690952.0
-3.0,-11.0,9.0,8.0,3.0,9.0,21.0,0.0,1651023944690952.0
0.0,3.0,-20.0,-14.0,-4.0,-5.0,-17.0,-2.0,1651023944705922.0
-1.0,7.0,26.0,18.0,2.0,-17.0,-38.0,-14.0,1651023944705922.0
0.0,-3.0,8.0,17.0,12.0,-1.0,0.0,7.0,1651023944714950.0
3.0,-3.0,-45.0,-27.0,-5.0,26.0,13.0,3.0,1651023944714950.0
-2.0,-2.0,18.0,12.0,3.0,29.0,18.0,5.0,1651023944729062.0
2.0,-4.0,-27.0,-22.0,-2.0,11.0,9.0,-3.0,1651023944729062.0
-1.0,0.0,18.0,26.0,6.0,-14.0,10.0,12.0,1651023944731056.0
-1.0,2.0,16.0,1.0,1.0,-10.0,-16.0,-12.0,1651023944731056.0
1.0,2.0,13.0,12.0,-2.0,-5.0,-4.0,7.0,1651023944744143.0
-1.0,-7.0,-32.0,-13.0,-5.0,9.0,5.0,-2.0,1651023944744143.0
-1.0,-1.0,-8.0,-16.0,-6.0,6.0,6.0,2.0,1651023944750849.0
1.0,4.0,20.0,10.0,5.0,3.0,-2.0,-2.0,1651023944750849.0
-1.0,1.0,2.0,7.0,3.0,0.0,-10.0,-4.0,1651023944766873.0
1.0,2.0,-9.0,6.0,0.0,-8.0,4.0,2.0,1651023944766873.0
-3.0,-1.0,1.0,-13.0,-5.0,12.0,6.0,0.0,1651023944768828.0
-2.0,-7.0,4.0,1.0,-5.0,1.0,-6.0,-4.0,1651023944768828.0
-1.0,0.0,-3.0,0.0,-1.0,-9.0,-4.0,-3.0,1651023944789811.0
4.0,8.0,-1.0,5.0,5.0,-2.0,4.0,1.0,1651023944789811.0
-2.0,-4.0,-6.0,-4.0,4.0,17.0,4.0,-2.0,1651023944790743.0
2.0,4.0,17.0,15.0,5.0,-9.0,-3.0,1.0,1651023944790743.0
0.0,0.0,-8.0,-7.0,-5.0,-1.0,-1.0,0.0,1651023944804162.0
-1.0,-4.0,-9.0,3.0,-1.0,-1.0,0.0,-2.0,1651023944804162.0
0.0,2.0,1.0,-10.0,-8.0,8.0,3.0,-3.0,1651023944810885.0
6.0,5.0,-2.0,1.0,-6.0,-8.0,-4.0,6.0,1651023944810885.0
-9.0,-25.0,5.0,8.0,20.0,0.0,-1.0,-1.0,1651023944827287.0
-2.0,4.0,-3.0,-3.0,-6.0,4.0,6.0,0.0,1651023944827287.0
-4.0,-4.0,-5.0,-9.0,-11.0,-11.0,-11.0,-6.0,1651023944828868.0
4.0,4.0,6.0,-1.0,3.0,7.0,6.0,4.0,1651023944828868.0
4.0,18.0,20.0,6.0,-3.0,4.0,-2.0,-1.0,1651023944849922.0
4.0,0.0,-1.0,4.0,-5.0,-8.0,-2.0,6.0,1651023944849922.0
-2.0,8.0,-12.0,-10.0,-16.0,-20.0,-7.0,-13.0,1651023944850900.0
-9.0,-41.0,-17.0,0.0,14.0,2.0,5.0,11.0,1651023944850900.0
0.0,0.0,2.0,3.0,6.0,44.0,11.0,1.0,1651023944863930.0
-6.0,6.0,6.0,6.0,7.0,6.0,1.0,-3.0,1651023944863930.0
6.0,0.0,2.0,-1.0,-4.0,-8.0,1.0,2.0,1651023944870905.0
-1.0,40.0,21.0,5.0,-5.0,-11.0,-4.0,-10.0,1651023944870905.0
13.0,-18.0,-4.0,2.0,6.0,-2.0,1.0,15.0,1651023944887318.0
-6.0,14.0,-29.0,-17.0,-11.0,-11.0,4.0,7.0,1651023944887318.0
-3.0,3.0,17.0,-1.0,-4.0,8.0,1.0,3.0,1651023944888870.0
-2.0,-3.0,4.0,-2.0,-10.0,-15.0,-7.0,-8.0,1651023944888870.0
3.0,-1.0,2.0,0.0,2.0,-7.0,-2.0,-4.0,1651023944909938.0
13.0,0.0,10.0,5.0,6.0,7.0,-3.0,6.0,1651023944909938.0
-9.0,15.0,-20.0,2.0,10.0,7.0,24.0,9.0,1651023944910935.0
-7.0,-2.0,7.0,-12.0,-8.0,-2.0,-38.0,-13.0,1651023944910935.0
1.0,18.0,8.0,-6.0,-22.0,-14.0,-8.0,-14.0,1651023944922903.0
-18.0,-36.0,-35.0,-7.0,9.0,-1.0,-4.0,-12.0,1651023944922903.0
11.0,-27.0,4.0,0.0,3.0,8.0,-2.0,9.0,1651023944931969.0
4.0,26.0,1.0,10.0,4.0,7.0,36.0,25.0,1651023944931969.0
-5.0,-11.0,-4.0,1.0,-6.0,-10.0,-11.0,-5.0,1651023944945968.0
10.0,-22.0,6.0,3.0,22.0,10.0,16.0,7.0,1651023944945968.0
-4.0,23.0,51.0,11.0,10.0,4.0,2.0,-12.0,1651023944954910.0
7.0,69.0,17.0,6.0,2.0,0.0,-3.0,6.0,1651023944954910.0
-15.0,-52.0,-72.0,-18.0,-18.0,-8.0,-17.0,-43.0,1651023944977364.0
16.0,19.0,30.0,7.0,-17.0,-5.0,8.0,23.0,1651023944977364.0
37.0,-3.0,12.0,4.0,23.0,10.0,1.0,7.0,1651023944978921.0
-12.0,-50.0,15.0,1.0,-10.0,1.0,4.0,10.0,1651023944978921.0
8.0,49.0,21.0,23.0,22.0,8.0,23.0,29.0,1651023944992359.0
-20.0,2.0,-14.0,-1.0,0.0,-2.0,-18.0,-32.0,1651023944992359.0
-21.0,9.0,-33.0,-25.0,-17.0,1.0,13.0,-14.0,1651023944999342.0
25.0,-22.0,3.0,-4.0,-10.0,-12.0,-25.0,8.0,1651023944999342.0
-8.0,-19.0,-13.0,-5.0,-4.0,0.0,-5.0,-6.0,1651023945007347.0
-13.0,-6.0,23.0,1.0,-5.0,-2.0,0.0,-38.0,1651023945007347.0
-8.0,-14.0,-7.0,7.0,9.0,0.0,3.0,3.0,1651023945008323.0
5.0,8.0,-13.0,0.0,3.0,7.0,8.0,-1.0,1651023945008323.0
2.0,-4.0,13.0,-4.0,-1.0,-2.0,-4.0,7.0,1651023945029005.0
-21.0,8.0,-24.0,-8.0,-10.0,-8.0,2.0,18.0,1651023945029005.0
-6.0,-47.0,-11.0,-4.0,-9.0,0.0,-7.0,3.0,1651023945030933.0
-2.0,2.0,-4.0,-2.0,5.0,2.0,-4.0,-24.0,1651023945030933.0
9.0,1.0,9.0,2.0,3.0,-1.0,10.0,29.0,1651023945042967.0
-8.0,-14.0,-1.0,0.0,-1.0,-4.0,-5.0,-6.0,1651023945042967.0
1.0,-17.0,-10.0,0.0,-3.0,1.0,-6.0,5.0,1651023945051883.0
-4.0,8.0,-2.0,-2.0,1.0,1.0,-1.0,-10.0,1651023945051883.0
-12.0,-23.0,4.0,-3.0,-3.0,-4.0,-3.0,-6.0,1651023945066903.0
15.0,12.0,-4.0,2.0,4.0,0.0,-2.0,9.0,1651023945066903.0
-9.0,18.0,3.0,-2.0,-3.0,-1.0,-14.0,-19.0,1651023945068858.0
4.0,-3.0,-4.0,2.0,-19.0,-3.0,16.0,19.0,1651023945068858.0
1.0,15.0,-7.0,-3.0,24.0,4.0,0.0,-6.0,1651023945089869.0
8.0,-28.0,9.0,5.0,-1.0,2.0,8.0,10.0,1651023945089869.0
5.0,33.0,-5.0,2.0,-2.0,0.0,-5.0,8.0,1651023945090772.0
-13.0,-49.0,-15.0,-5.0,-2.0,0.0,-4.0,-13.0,1651023945090772.0
11.0,25.0,-4.0,-3.0,-12.0,-4.0,-1.0,3.0,1651023945111783.0
-7.0,-14.0,14.0,-1.0,3.0,-2.0,-4.0,-5.0,1651023945111783.0
0.0,-7.0,-1.0,2.0,0.0,1.0,2.0,-4.0,1651023945113721.0
1.0,-2.0,-2.0,-2.0,3.0,1.0,1.0,9.0,1651023945113721.0
-1.0,11.0,-1.0,-2.0,-1.0,-3.0,-4.0,-4.0,1651023945127363.0
-1.0,11.0,-5.0,-3.0,0.0,-3.0,-4.0,-2.0,1651023945127363.0
-3.0,5.0,5.0,5.0,-3.0,1.0,1.0,3.0,1651023945128826.0
-11.0,-6.0,-3.0,-3.0,1.0,0.0,-4.0,-13.0,1651023945128826.0
5.0,-13.0,9.0,3.0,-1.0,1.0,1.0,4.0,1651023945149763.0
19.0,41.0,2.0,2.0,-6.0,-4.0,-2.0,5.0,1651023945149763.0
-10.0,-18.0,-12.0,-6.0,3.0,1.0,-4.0,0.0,1651023945150708.0
0.0,26.0,4.0,-1.0,9.0,2.0,0.0,-7.0,1651023945150708.0
-11.0,-35.0,-5.0,-1.0,-8.0,-4.0,-2.0,-3.0,1651023945162854.0
8.0,6.0,3.0,0.0,-3.0,-2.0,-2.0,1.0,1651023945162854.0
3.0,9.0,5.0,2.0,0.0,-1.0,1.0,3.0,1651023945171776.0
1.0,-26.0,-7.0,1.0,6.0,3.0,1.0,-1.0,1651023945171776.0
-7.0,18.0,1.0,-4.0,-5.0,-1.0,-2.0,-3.0,1651023945186722.0
-3.0,-1.0,-4.0,0.0,-1.0,2.0,-2.0,-3.0,1651023945186722.0
1.0,-6.0,4.0,1.0,5.0,3.0,-4.0,-2.0,1651023945188744.0
6.0,7.0,-1.0,1.0,-3.0,-1.0,7.0,4.0,1651023945188744.0
-11.0,-3.0,-3.0,-1.0,-2.0,0.0,-1.0,-2.0,1651023945209688.0
10.0,-13.0,2.0,-1.0,1.0,3.0,0.0,2.0,1651023945209688.0
-9.0,4.0,-6.0,-6.0,-12.0,-4.0,-1.0,0.0,1651023945210665.0
-2.0,14.0,8.0,1.0,7.0,-1.0,-4.0,-5.0,1651023945210665.0
6.0,-32.0,-7.0,4.0,6.0,1.0,1.0,2.0,1651023945222997.0
-8.0,2.0,4.0,2.0,-1.0,2.0,0.0,0.0,1651023945222997.0
3.0,8.0,1.0,-1.0,-1.0,-3.0,0.0,1.0,1651023945231698.0
-6.0,-15.0,-8.0,-4.0,-8.0,-3.0,-3.0,-3.0,1651023945231698.0
-3.0,11.0,3.0,-5.0,-4.0,-1.0,-2.0,0.0,1651023945246631.0
-2.0,-7.0,-2.0,1.0,5.0,1.0,-2.0,-1.0,1651023945246631.0
-5.0,-29.0,-5.0,1.0,-2.0,-1.0,0.0,-1.0,1651023945248627.0
6.0,31.0,5.0,2.0,2.0,2.0,2.0,1.0,1651023945248627.0
-3.0,-12.0,-2.0,-1.0,-2.0,-4.0,-2.0,-2.0,1651023945269571.0
6.0,11.0,-5.0,-3.0,1.0,-2.0,0.0,2.0,1651023945269571.0
0.0,1.0,2.0,-1.0,0.0,0.0,0.0,2.0,1651023945270568.0
2.0,-3.0,0.0,1.0,1.0,-1.0,-1.0,-1.0,1651023945270568.0
0.0,24.0,5.0,0.0,0.0,0.0,-2.0,-2.0,1651023945283533.0
-5.0,11.0,-3.0,-1.0,-1.0,0.0,-2.0,-3.0,1651023945283533.0
4.0,8.0,5.0,0.0,2.0,-2.0,1.0,4.0,1651023945292515.0
-3.0,-18.0,-2.0,1.0,-2.0,0.0,-2.0,-1.0,1651023945292515.0
5.0,25.0,5.0,0.0,-1.0,0.0,1.0,1.0,1651023945306663.0
-1.0,-13.0,-3.0,-2.0,1.0,1.0,-1.0,0.0,1651023945306663.0
4.0,8.0,1.0,0.0,-1.0,1.0,-1.0,2.0,1651023945308592.0
-5.0,-7.0,-2.0,-1.0,-2.0,0.0,-2.0,-3.0,1651023945308592.0
5.0,8.0,1.0,-1.0,0.0,0.0,0.0,1.0,1651023945345492.0
-3.0,11.0,-1.0,-2.0,-1.0,-2.0,0.0,-1.0,1651023945345492.0
-7.0,-10.0,3.0,0.0,-1.0,-1.0,-2.0,-3.0,1651023945346422.0
-3.0,-8.0,-3.0,-2.0,-4.0,0.0,-2.0,-3.0,1651023945346422.0
0.0,6.0,-1.0,1.0,4.0,0.0,0.0,-1.0,1651023945347419.0
-2.0,-13.0,0.0,3.0,2.0,2.0,-1.0,0.0,1651023945347419.0
5.0,11.0,2.0,0.0,-2.0,0.0,-1.0,0.0,1651023945352425.0
-3.0,9.0,-1.0,-3.0,-3.0,0.0,-1.0,-3.0,1651023945352425.0
-4.0,-5.0,-5.0,-2.0,-4.0,-1.0,-1.0,0.0,1651023945374346.0
3.0,5.0,1.0,-1.0,-1.0,0.0,0.0,0.0,1651023945374346.0
-9.0,-2.0,-2.0,0.0,0.0,-1.0,1.0,0.0,1651023945376341.0
-9.0,-12.0,-8.0,-1.0,-1.0,-1.0,-3.0,-4.0,1651023945376341.0
-1.0,-15.0,0.0,-1.0,-2.0,-1.0,0.0,-1.0,1651023945389306.0
5.0,33.0,-1.0,-3.0,-3.0,-1.0,-1.0,1.0,1651023945389306.0
-1.0,-1.0,-2.0,-2.0,-1.0,-1.0,0.0,1.0,1651023945391302.0
-1.0,0.0,0.0,-2.0,1.0,-1.0,0.0,-1.0,1651023945391302.0
0.0,-3.0,-2.0,0.0,-4.0,-2.0,0.0,-1.0,1651023945403281.0
1.0,-17.0,-1.0,2.0,0.0,0.0,0.0,0.0,1651023945403281.0
-3.0,-15.0,-3.0,-2.0,0.0,-2.0,-1.0,-2.0,1651023945412246.0
0.0,-16.0,-2.0,-2.0,2.0,-2.0,1.0,-1.0,1651023945412246.0
-3.0,-3.0,-1.0,-2.0,-2.0,-2.0,-1.0,-3.0,1651023945426236.0
-2.0,3.0,-2.0,-1.0,-2.0,0.0,0.0,0.0,1651023945426236.0
7.0,10.0,2.0,2.0,0.0,0.0,-1.0,2.0,1651023945427205.0
0.0,-3.0,1.0,0.0,1.0,1.0,-1.0,-1.0,1651023945427205.0
-8.0,-11.0,0.0,1.0,1.0,1.0,-1.0,0.0,1651023945448364.0
-4.0,-18.0,1.0,1.0,0.0,-1.0,0.0,-1.0,1651023945448364.0
2.0,8.0,1.0,-2.0,-1.0,-1.0,1.0,0.0,1651023945449294.0
1.0,13.0,-1.0,0.0,0.0,-1.0,0.0,1.0,1651023945449294.0
2.0,-23.0,-1.0,0.0,2.0,0.0,1.0,1.0,1651023945471300.0
-4.0,13.0,2.0,-3.0,-2.0,-1.0,1.0,-1.0,1651023945471300.0
1.0,1.0,-2.0,0.0,2.0,1.0,-1.0,0.0,1651023945472233.0
4.0,2.0,0.0,1.0,1.0,-1.0,0.0,3.0,1651023945472233.0
-1.0,2.0,-2.0,-2.0,-11.0,-2.0,0.0,0.0,1651023945494294.0
-2.0,-21.0,-3.0,1.0,8.0,-2.0,1.0,-2.0,1651023945494294.0
8.0,44.0,7.0,3.0,2.0,0.0,1.0,-1.0,1651023945495246.0
-2.0,-24.0,-2.0,0.0,-4.0,-1.0,0.0,1.0,1651023945495246.0
1.0,20.0,1.0,1.0,1.0,1.0,-2.0,0.0,1651023945509022.0
3.0,4.0,-2.0,-2.0,-8.0,-2.0,0.0,0.0,1651023945509022.0
-3.0,-3.0,2.0,-1.0,-1.0,-1.0,-2.0,-1.0,1651023945509022.0
3.0,29.0,0.0,0.0,1.0,0.0,0.0,0.0,1651023945509022.0
-1.0,-9.0,-1.0,-2.0,-3.0,0.0,0.0,-2.0,1651023945530927.0
-6.0,-16.0,-2.0,0.0,-1.0,0.0,-3.0,-2.0,1651023945530927.0
4.0,-21.0,-3.0,2.0,2.0,1.0,-1.0,2.0,1651023945531925.0
-2.0,3.0,-1.0,-2.0,-3.0,-1.0,-3.0,-3.0,1651023945531925.0
-2.0,1.0,0.0,0.0,2.0,-1.0,2.0,2.0,1651023945547868.0
3.0,14.0,1.0,-2.0,-1.0,-2.0,-4.0,-1.0,1651023945547868.0
0.0,-14.0,-4.0,0.0,-1.0,-1.0,0.0,-1.0,1651023945548896.0
2.0,2.0,1.0,0.0,0.0,-1.0,-1.0,-2.0,1651023945548896.0
-1.0,21.0,3.0,-1.0,2.0,0.0,0.0,-1.0,1651023945569123.0
-3.0,-22.0,-4.0,0.0,2.0,-1.0,0.0,-1.0,1651023945569123.0
1.0,9.0,1.0,-2.0,-4.0,-3.0,0.0,0.0,1651023945569123.0
0.0,-4.0,-3.0,-1.0,0.0,1.0,-1.0,0.0,1651023945569123.0
1.0,2.0,1.0,0.0,1.0,0.0,-1.0,-2.0,1651023945591066.0
-2.0,-29.0,-5.0,-1.0,0.0,0.0,1.0,0.0,1651023945591066.0
-3.0,9.0,-3.0,0.0,-1.0,-3.0,-2.0,-1.0,1651023945591995.0
3.0,2.0,1.0,2.0,3.0,2.0,2.0,1.0,1651023945591995.0
0.0,0.0,0.0,-4.0,1.0,1.0,-1.0,0.0,1651023945606021.0
2.0,13.0,4.0,-2.0,-1.0,1.0,0.0,0.0,1651023945606021.0
-3.0,-19.0,-8.0,0.0,1.0,1.0,0.0,2.0,1651023945606954.0
0.0,1.0,2.0,1.0,0.0,-2.0,0.0,0.0,1651023945606954.0
-2.0,3.0,-1.0,-1.0,-2.0,-1.0,0.0,-1.0,1651023945629002.0
4.0,3.0,0.0,-1.0,1.0,-2.0,0.0,0.0,1651023945629002.0
-3.0,-2.0,-1.0,-3.0,-2.0,-3.0,-2.0,-1.0,1651023945629933.0
-3.0,-3.0,-1.0,2.0,1.0,0.0,-1.0,-2.0,1651023945629933.0
3.0,-5.0,1.0,1.0,-1.0,-1.0,1.0,4.0,1651023945668123.0
-1.0,22.0,-6.0,-4.0,-3.0,-2.0,-2.0,-4.0,1651023945668123.0
-4.0,-6.0,2.0,-2.0,-3.0,0.0,1.0,-2.0,1651023945669053.0
-4.0,-6.0,-2.0,-2.0,2.0,1.0,0.0,0.0,1651023945669053.0
3.0,6.0,1.0,3.0,3.0,0.0,0.0,1.0,1651023945671074.0
0.0,-6.0,0.0,1.0,-2.0,-1.0,1.0,1.0,1651023945671074.0
0.0,0.0,-1.0,-2.0,-1.0,-1.0,0.0,-1.0,1651023945674040.0
2.0,5.0,0.0,-2.0,-3.0,0.0,0.0,0.0,1651023945674040.0
-1.0,0.0,-3.0,-1.0,0.0,-1.0,0.0,-3.0,1651023945689067.0
1.0,-2.0,0.0,0.0,0.0,0.0,0.0,-1.0,1651023945689067.0
0.0,2.0,-1.0,-2.0,-1.0,-1.0,0.0,-2.0,1651023945689067.0
1.0,-7.0,3.0,2.0,0.0,0.0,-1.0,0.0,1651023945689067.0
-1.0,9.0,-3.0,0.0,1.0,-2.0,-2.0,-2.0,1651023945710941.0
-11.0,-30.0,-5.0,0.0,-1.0,-1.0,-2.0,-2.0,1651023945710941.0
1.0,-1.0,0.0,-2.0,-9.0,0.0,0.0,0.0,1651023945711938.0
-1.0,3.0,-1.0,0.0,14.0,0.0,0.0,-1.0,1651023945711938.0
1.0,-2.0,-1.0,0.0,-4.0,0.0,-2.0,-1.0,1651023945726707.0
3.0,9.0,2.0,0.0,0.0,2.0,0.0,2.0,1651023945726707.0
-2.0,-3.0,-2.0,1.0,-2.0,-1.0,-1.0,-1.0,1651023945726707.0
-3.0,-7.0,-2.0,-3.0,-7.0,-2.0,-2.0,-1.0,1651023945726707.0
5.0,2.0,5.0,1.0,4.0,2.0,3.0,2.0,1651023945748731.0
4.0,17.0,2.0,-4.0,-5.0,-7.0,-5.0,-7.0,1651023945748731.0
3.0,-3.0,3.0,5.0,5.0,0.0,-2.0,-1.0,1651023945749728.0
-1.0,15.0,0.0,-1.0,-4.0,-1.0,0.0,0.0,1651023945749728.0
-2.0,-1.0,0.0,-2.0,2.0,-2.0,0.0,0.0,1651023945770856.0
0.0,-11.0,-1.0,1.0,-2.0,1.0,0.0,3.0,1651023945770856.0
-1.0,9.0,0.0,-2.0,1.0,-2.0,0.0,-2.0,1651023945778895.0
0.0,16.0,-1.0,-3.0,-3.0,-1.0,-3.0,-1.0,1651023945778895.0
-1.0,-12.0,-4.0,-3.0,-6.0,-1.0,-1.0,0.0,1651023945785877.0
-1.0,4.0,0.0,1.0,6.0,3.0,1.0,0.0,1651023945785877.0
-3.0,-9.0,-2.0,1.0,1.0,1.0,0.0,-1.0,1651023945786810.0
-6.0,-20.0,-6.0,-2.0,-2.0,-1.0,0.0,-2.0,1651023945786810.0
-5.0,0.0,-3.0,-3.0,-3.0,-1.0,-2.0,-3.0,1651023945824920.0
8.0,13.0,-1.0,2.0,1.0,1.0,0.0,2.0,1651023945824920.0
1.0,6.0,2.0,-1.0,0.0,1.0,-1.0,0.0,1651023945824920.0
-3.0,-12.0,-2.0,0.0,-4.0,-1.0,-1.0,-2.0,1651023945824920.0
-2.0,0.0,-1.0,1.0,1.0,-2.0,-1.0,-2.0,1651023945831153.0
3.0,5.0,0.0,1.0,1.0,-1.0,1.0,1.0,1651023945831153.0
0.0,-12.0,-4.0,-1.0,0.0,0.0,-1.0,1.0,1651023945832151.0
0.0,2.0,0.0,-1.0,-1.0,-1.0,-1.0,2.0,1651023945832151.0
2.0,4.0,0.0,-2.0,-1.0,0.0,0.0,-1.0,1651023945846140.0
-6.0,-13.0,-2.0,-1.0,-6.0,0.0,-1.0,0.0,1651023945846140.0
-1.0,-4.0,-5.0,0.0,4.0,0.0,-1.0,-1.0,1651023945847131.0
-1.0,1.0,0.0,3.0,8.0,1.0,-1.0,-1.0,1651023945847131.0
-1.0,0.0,-2.0,1.0,-5.0,1.0,0.0,-1.0,1651023945869051.0
-2.0,1.0,2.0,-1.0,-1.0,0.0,1.0,1.0,1651023945869051.0
-1.0,-1.0,-3.0,-3.0,-7.0,-1.0,-3.0,-1.0,1651023945869051.0
1.0,-4.0,0.0,-2.0,-2.0,0.0,-2.0,-2.0,1651023945869051.0
2.0,10.0,1.0,0.0,3.0,-1.0,0.0,-1.0,1651023945898971.0
2.0,-24.0,0.0,-1.0,-2.0,-2.0,1.0,0.0,1651023945898971.0
-1.0,2.0,-1.0,-2.0,0.0,-1.0,0.0,0.0,1651023945899969.0
1.0,-3.0,-2.0,0.0,-3.0,0.0,3.0,-1.0,1651023945899969.0
-6.0,-25.0,-6.0,-2.0,0.0,0.0,-2.0,-2.0,1651023945914430.0
-1.0,-10.0,-1.0,0.0,-1.0,-1.0,0.0,-1.0,1651023945914430.0
3.0,12.0,4.0,1.0,0.0,0.0,1.0,1.0,1651023945915544.0
-1.0,1.0,0.0,0.0,2.0,-2.0,-1.0,-1.0,1651023945915544.0
1.0,-9.0,2.0,1.0,-3.0,1.0,1.0,1.0,1651023945928965.0
0.0,6.0,-1.0,0.0,1.0,0.0,-1.0,-3.0,1651023945928965.0
-4.0,-17.0,-1.0,1.0,1.0,1.0,0.0,2.0,1651023945944266.0
3.0,14.0,0.0,-3.0,-6.0,-1.0,0.0,-1.0,1651023945944266.0
1.0,2.0,-2.0,-1.0,0.0,-2.0,-2.0,-1.0,1651023945951308.0
-8.0,8.0,0.0,-2.0,3.0,2.0,-1.0,-1.0,1651023945951308.0
3.0,6.0,1.0,-2.0,-3.0,-2.0,0.0,0.0,1651023945952239.0
2.0,6.0,0.0,-1.0,-3.0,-1.0,0.0,0.0,1651023945952239.0
0.0,-2.0,-2.0,0.0,1.0,0.0,0.0,1.0,1651023945965205.0
4.0,0.0,0.0,0.0,-1.0,-1.0,0.0,0.0,1651023945965205.0
-5.0,-11.0,-3.0,1.0,0.0,0.0,-1.0,-3.0,1651023945973197.0
-2.0,-4.0,1.0,0.0,0.0,-2.0,0.0,-3.0,1651023945973197.0
0.0,8.0,0.0,-2.0,2.0,-1.0,-1.0,-1.0,1651023945988395.0
1.0,8.0,1.0,1.0,-1.0,-1.0,0.0,1.0,1651023945988395.0
-1.0,-8.0,-4.0,0.0,0.0,-1.0,1.0,0.0,1651023945989323.0
0.0,3.0,-2.0,-1.0,-1.0,-2.0,-2.0,0.0,1651023945989323.0
-7.0,-10.0,-1.0,-1.0,-1.0,-1.0,-1.0,-2.0,1651023946011014.0
-1.0,-1.0,-1.0,-2.0,-2.0,-1.0,1.0,-2.0,1651023946011014.0
1.0,-2.0,0.0,-1.0,-1.0,-2.0,-3.0,0.0,1651023946011993.0
-4.0,-2.0,-1.0,-2.0,-13.0,-2.0,-2.0,-4.0,1651023946011993.0
2.0,5.0,4.0,2.0,14.0,0.0,0.0,1.0,1651023946026011.0
-3.0,-1.0,-2.0,1.0,-2.0,1.0,0.0,-1.0,1651023946026011.0
-5.0,-2.0,-9.0,-2.0,1.0,1.0,1.0,-2.0,1651023946033876.0
5.0,1.0,1.0,0.0,-5.0,-1.0,-2.0,1.0,1651023946033876.0
-1.0,15.0,2.0,-1.0,-5.0,0.0,-2.0,1.0,1651023946048837.0
3.0,-9.0,-4.0,-1.0,1.0,-1.0,0.0,-2.0,1651023946048837.0
2.0,4.0,2.0,-2.0,-3.0,0.0,-1.0,0.0,1651023946049834.0
-1.0,10.0,0.0,-1.0,1.0,1.0,1.0,1.0,1651023946049834.0
-1.0,4.0,-1.0,0.0,-2.0,-2.0,2.0,1.0,1651023946070856.0
2.0,-1.0,2.0,1.0,1.0,0.0,0.0,-1.0,1651023946070856.0
-1.0,1.0,0.0,0.0,-4.0,-1.0,2.0,0.0,1651023946071826.0
-1.0,-9.0,-2.0,0.0,3.0,-1.0,1.0,1.0,1651023946071826.0
-1.0,-10.0,-2.0,-2.0,-2.0,-1.0,-1.0,-1.0,1651023946085855.0
-3.0,8.0,0.0,-1.0,-1.0,0.0,0.0,-1.0,1651023946085855.0
4.0,39.0,3.0,-2.0,-1.0,0.0,-1.0,-2.0,1651023946093766.0
-3.0,0.0,-1.0,4.0,1.0,0.0,-1.0,0.0,1651023946093766.0
-1.0,-9.0,-5.0,-5.0,-14.0,-2.0,0.0,-1.0,1651023946108727.0
0.0,3.0,-1.0,2.0,15.0,-1.0,-1.0,0.0,1651023946108727.0
5.0,9.0,2.0,2.0,0.0,1.0,1.0,0.0,1651023946109725.0
-2.0,-7.0,-3.0,-2.0,0.0,-1.0,0.0,0.0,1651023946109725.0
2.0,-1.0,-2.0,0.0,2.0,1.0,-1.0,-2.0,1651023946131665.0
-1.0,0.0,0.0,0.0,-8.0,-3.0,-2.0,0.0,1651023946131665.0
0.0,-14.0,1.0,1.0,1.0,-1.0,-1.0,1.0,1651023946131665.0
0.0,-5.0,-4.0,-1.0,0.0,0.0,0.0,-1.0,1651023946131665.0
1.0,-5.0,0.0,-1.0,-3.0,-2.0,-1.0,-1.0,1651023946145692.0
-3.0,0.0,-1.0,-2.0,-1.0,1.0,2.0,0.0,1651023946145692.0
-2.0,-6.0,2.0,-1.0,-8.0,-3.0,-1.0,-2.0,1651023946153634.0
0.0,-7.0,-2.0,0.0,12.0,1.0,0.0,0.0,1651023946153634.0
0.0,2.0,-16.0,-2.0,2.0,1.0,-3.0,1.0,1651023946168635.0
1.0,1.0,11.0,4.0,-5.0,-7.0,-2.0,0.0,1651023946168635.0
-2.0,-5.0,0.0,-6.0,-4.0,1.0,-2.0,-2.0,1651023946169564.0
1.0,-3.0,2.0,1.0,-4.0,2.0,3.0,1.0,1651023946169564.0
-2.0,7.0,8.0,9.0,4.0,-2.0,-2.0,-2.0,1651023946191566.0
-7.0,-22.0,-46.0,-18.0,-5.0,-3.0,-3.0,-3.0,1651023946191566.0
-5.0,-19.0,-2.0,-5.0,-7.0,-3.0,-3.0,-2.0,1651023946191566.0
8.0,6.0,6.0,-9.0,-5.0,-2.0,-2.0,-2.0,1651023946191566.0
1.0,6.0,-2.0,0.0,5.0,5.0,6.0,4.0,1651023946214509.0
-1.0,6.0,20.0,10.0,-4.0,1.0,0.0,-1.0,1651023946214509.0
3.0,2.0,-6.0,-3.0,2.0,-1.0,-1.0,1.0,1651023946214509.0
-1.0,-6.0,-11.0,-16.0,-3.0,0.0,1.0,2.0,1651023946214509.0
-6.0,-4.0,1.0,8.0,-8.0,-2.0,1.0,-1.0,1651023946228470.0
3.0,14.0,42.0,18.0,0.0,0.0,-3.0,-1.0,1651023946228470.0
9.0,0.0,-5.0,-8.0,17.0,2.0,3.0,10.0,1651023946229404.0
-1.0,5.0,4.0,17.0,5.0,2.0,-2.0,-2.0,1651023946229404.0
-9.0,6.0,14.0,11.0,3.0,-4.0,0.0,-6.0,1651023946259123.0
3.0,-14.0,-31.0,-26.0,-17.0,8.0,3.0,-1.0,1651023946259123.0
16.0,-3.0,-2.0,8.0,-2.0,-5.0,-7.0,-1.0,1651023946260055.0
16.0,1.0,-17.0,-20.0,-11.0,-7.0,3.0,9.0,1651023946260055.0
-38.0,-13.0,-18.0,-23.0,-7.0,4.0,-2.0,-7.0,1651023946265041.0
9.0,5.0,14.0,13.0,13.0,-1.0,-3.0,-8.0,1651023946265041.0
-22.0,15.0,47.0,23.0,6.0,7.0,9.0,2.0,1651023946274017.0
19.0,1.0,-1.0,6.0,-1.0,0.0,5.0,-1.0,1651023946274017.0
51.0,32.0,69.0,22.0,3.0,-1.0,0.0,11.0,1651023946287980.0
-30.0,-7.0,-58.0,11.0,5.0,-3.0,-24.0,-3.0,1651023946287980.0
-35.0,-40.0,-17.0,-55.0,-16.0,-5.0,5.0,-12.0,1651023946296724.0
11.0,-2.0,-16.0,25.0,15.0,12.0,82.0,6.0,1651023946296724.0
-39.0,8.0,-17.0,-93.0,-31.0,-4.0,-37.0,7.0,1651023946311714.0
39.0,4.0,44.0,46.0,-4.0,-34.0,-86.0,-35.0,1651023946311714.0
0.0,-1.0,21.0,96.0,41.0,3.0,28.0,12.0,1651023946311714.0
-32.0,-16.0,-59.0,-74.0,-21.0,14.0,22.0,-17.0,1651023946311714.0
43.0,-8.0,-23.0,-16.0,-2.0,-4.0,38.0,22.0,1651023946334812.0
-13.0,15.0,41.0,7.0,-1.0,-14.0,9.0,18.0,1651023946334812.0
-18.0,-16.0,-69.0,-67.0,-37.0,7.0,28.0,-9.0,1651023946334812.0
-18.0,-6.0,36.0,7.0,-5.0,-5.0,-108.0,-31.0,1651023946334812.0
47.0,18.0,27.0,60.0,29.0,7.0,18.0,1.0,1651023946348825.0
-20.0,10.0,44.0,3.0,-2.0,-5.0,-21.0,4.0,1651023946348825.0
-1.0,-16.0,-54.0,35.0,18.0,-2.0,86.0,11.0,1651023946349824.0
3.0,32.0,50.0,-1.0,-12.0,-23.0,-21.0,13.0,1651023946349824.0
-20.0,-13.0,-9.0,-4.0,-9.0,-16.0,1.0,-20.0,1651023946370998.0
-14.0,-11.0,-40.0,30.0,38.0,56.0,-46.0,5.0,1651023946370998.0
11.0,18.0,84.0,22.0,-6.0,-19.0,-63.0,-32.0,1651023946371929.0
11.0,0.0,-58.0,-9.0,-1.0,13.0,91.0,25.0,1651023946371929.0
-16.0,-5.0,62.0,34.0,1.0,-25.0,-51.0,-18.0,1651023946393900.0
3.0,2.0,-13.0,-36.0,-26.0,-21.0,52.0,6.0,1651023946393900.0
20.0,4.0,-65.0,-35.0,9.0,31.0,-5.0,19.0,1651023946394894.0
-10.0,-16.0,10.0,9.0,5.0,-8.0,-21.0,-1.0,1651023946394894.0
-3.0,2.0,22.0,15.0,-1.0,-29.0,10.0,-4.0,1651023946408897.0
-7.0,-9.0,-33.0,-20.0,1.0,26.0,82.0,13.0,1651023946408897.0
20.0,9.0,-1.0,-11.0,-9.0,14.0,-46.0,4.0,1651023946409856.0
-23.0,-11.0,40.0,-13.0,-9.0,-11.0,-35.0,-18.0,1651023946409856.0
-8.0,5.0,-1.0,33.0,21.0,17.0,-3.0,0.0,1651023946430957.0
5.0,-19.0,-92.0,-67.0,-19.0,-8.0,1.0,-3.0,1651023946430957.0
7.0,-4.0,51.0,47.0,7.0,-34.0,-32.0,-6.0,1651023946431887.0
-4.0,14.0,76.0,37.0,12.0,17.0,49.0,16.0,1651023946431887.0
1.0,-26.0,-116.0,-59.0,-16.0,21.0,15.0,12.0,1651023946454007.0
-4.0,35.0,59.0,0.0,-24.0,-39.0,-22.0,-19.0,1651023946454007.0
-1.0,-23.0,-1.0,-6.0,18.0,6.0,20.0,4.0,1651023946454007.0
11.0,0.0,-21.0,15.0,16.0,21.0,-7.0,-3.0,1651023946454007.0
-7.0,2.0,30.0,13.0,2.0,-30.0,-38.0,-8.0,1651023946469001.0
10.0,0.0,-4.0,-6.0,-4.0,5.0,16.0,2.0,1651023946469001.0
-6.0,15.0,-13.0,-14.0,-4.0,17.0,4.0,3.0,1651023946469932.0
7.0,-11.0,25.0,24.0,1.0,-50.0,18.0,11.0,1651023946469932.0
-17.0,-3.0,-47.0,-35.0,2.0,97.0,9.0,-10.0,1651023946492063.0
18.0,8.0,27.0,9.0,-2.0,-31.0,15.0,-4.0,1651023946492063.0
-5.0,-15.0,12.0,-11.0,-11.0,9.0,1.0,-1.0,1651023946499047.0
2.0,0.0,-37.0,-6.0,2.0,-24.0,1.0,7.0,1651023946499047.0
-13.0,4.0,32.0,27.0,2.0,-30.0,-32.0,-9.0,1651023946514201.0
1.0,-11.0,4.0,2.0,10.0,17.0,1.0,6.0,1651023946514201.0
8.0,11.0,-55.0,-102.0,-49.0,-9.0,2.0,-2.0,1651023946514201.0
-5.0,8.0,36.0,87.0,48.0,20.0,-13.0,-1.0,1651023946514201.0
7.0,-8.0,7.0,12.0,-7.0,-26.0,-8.0,3.0,1651023946537192.0
8.0,-5.0,3.0,15.0,5.0,15.0,-2.0,0.0,1651023946537192.0
-13.0,7.0,18.0,-2.0,-9.0,-93.0,-13.0,-6.0,1651023946538124.0
-9.0,-13.0,-31.0,-48.0,-20.0,86.0,18.0,-6.0,1651023946538124.0
11.0,-1.0,9.0,3.0,3.0,-57.0,7.0,7.0,1651023946551151.0
0.0,19.0,45.0,38.0,27.0,62.0,21.0,1.0,1651023946551151.0
-15.0,-1.0,-9.0,9.0,-7.0,-67.0,-41.0,-2.0,1651023946552085.0
1.0,-5.0,-15.0,-24.0,-15.0,30.0,-14.0,-13.0,1651023946552085.0
8.0,-1.0,9.0,16.0,10.0,16.0,4.0,5.0,1651023946573946.0
-2.0,-14.0,-42.0,-34.0,-3.0,1.0,45.0,11.0,1651023946573946.0
-16.0,1.0,23.0,25.0,13.0,-12.0,-21.0,-6.0,1651023946574904.0
15.0,-2.0,-21.0,-30.0,-25.0,-68.0,-45.0,-4.0,1651023946574904.0
-17.0,10.0,16.0,5.0,0.0,2.0,44.0,5.0,1651023946588907.0
1.0,2.0,28.0,25.0,7.0,-4.0,11.0,6.0,1651023946588907.0
6.0,-9.0,-13.0,28.0,2.0,23.0,-44.0,-12.0,1651023946589865.0
-16.0,4.0,7.0,-13.0,6.0,-12.0,-25.0,-7.0,1651023946589865.0
3.0,-8.0,-31.0,-26.0,-15.0,7.0,30.0,3.0,1651023946610999.0
10.0,6.0,-1.0,-4.0,1.0,-5.0,-8.0,5.0,1651023946610999.0
10.0,8.0,31.0,31.0,18.0,2.0,20.0,5.0,1651023946611935.0
-7.0,-4.0,-4.0,1.0,-4.0,59.0,37.0,-3.0,1651023946611935.0
8.0,0.0,-15.0,-22.0,-7.0,0.0,-15.0,0.0,1651023946634037.0
1.0,1.0,6.0,3.0,-6.0,-56.0,-13.0,-3.0,1651023946634037.0
19.0,-1.0,14.0,7.0,-5.0,10.0,-1.0,-1.0,1651023946634037.0
-8.0,-13.0,-50.0,-37.0,-2.0,52.0,29.0,5.0,1651023946634037.0
-4.0,-4.0,0.0,0.0,-5.0,-32.0,-48.0,-13.0,1651023946649052.0
-3.0,3.0,28.0,15.0,10.0,51.0,5.0,0.0,1651023946649052.0
2.0,1.0,5.0,-7.0,0.0,7.0,-1.0,1.0,1651023946649984.0
-2.0,-6.0,-28.0,-7.0,-2.0,-55.0,5.0,7.0,1651023946649984.0
6.0,15.0,61.0,37.0,15.0,32.0,4.0,0.0,1651023946670989.0
-6.0,-17.0,-64.0,-44.0,-9.0,-46.0,-5.0,-8.0,1651023946670989.0
-4.0,0.0,5.0,15.0,-11.0,4.0,8.0,-1.0,1651023946671928.0
4.0,8.0,13.0,-4.0,4.0,-2.0,-29.0,0.0,1651023946671928.0
-6.0,-5.0,16.0,-5.0,-5.0,-26.0,-15.0,-10.0,1651023946694937.0
-1.0,0.0,-10.0,3.0,-2.0,-21.0,-7.0,-2.0,1651023946694937.0
16.0,8.0,-24.0,-24.0,9.0,65.0,43.0,7.0,1651023946694937.0
-14.0,-2.0,28.0,19.0,-6.0,-44.0,-17.0,-4.0,1651023946694937.0
6.0,-6.0,-9.0,5.0,-3.0,16.0,29.0,2.0,1651023946708895.0
-7.0,-5.0,-38.0,-22.0,5.0,75.0,-3.0,6.0,1651023946708895.0
7.0,4.0,-32.0,-27.0,-7.0,-22.0,-6.0,4.0,1651023946709901.0
-8.0,13.0,56.0,39.0,8.0,-8.0,-13.0,-17.0,1651023946709901.0
-5.0,-5.0,-40.0,-23.0,-5.0,-23.0,19.0,10.0,1651023946730900.0
-1.0,-11.0,17.0,9.0,-1.0,16.0,5.0,-2.0,1651023946730900.0
9.0,4.0,59.0,24.0,-2.0,0.0,4.0,5.0,1651023946731843.0
1.0,-17.0,-73.0,-24.0,-5.0,-23.0,-15.0,-3.0,1651023946731843.0
-8.0,-7.0,-20.0,-38.0,-9.0,-8.0,4.0,-5.0,1651023946761937.0
-5.0,2.0,49.0,55.0,25.0,21.0,24.0,4.0,1651023946761937.0
-22.0,-11.0,-45.0,-13.0,4.0,7.0,-28.0,-11.0,1651023946762868.0
20.0,11.0,28.0,-5.0,-14.0,-26.0,-10.0,4.0,1651023946762868.0
-2.0,-1.0,-8.0,-13.0,-18.0,5.0,0.0,0.0,1651023946768879.0
9.0,-2.0,21.0,9.0,4.0,-14.0,-5.0,3.0,1651023946768879.0
-2.0,5.0,10.0,3.0,13.0,44.0,18.0,2.0,1651023946769878.0
6.0,7.0,-12.0,5.0,-4.0,-46.0,-2.0,9.0,1651023946769878.0
2.0,-7.0,-14.0,-5.0,-2.0,46.0,13.0,-9.0,1651023946790943.0
-17.0,-1.0,-6.0,-9.0,2.0,-24.0,-9.0,-5.0,1651023946790943.0
5.0,0.0,8.0,7.0,3.0,33.0,26.0,14.0,1651023946791946.0
-6.0,-4.0,2.0,5.0,1.0,14.0,-27.0,-9.0,1651023946791946.0
0.0,1.0,-6.0,1.0,-7.0,-7.0,5.0,8.0,1651023946815134.0
1.0,-8.0,-5.0,-20.0,-9.0,-9.0,10.0,-5.0,1651023946815134.0
-12.0,-3.0,-14.0,-16.0,-2.0,-33.0,-22.0,-10.0,1651023946816111.0
3.0,-6.0,21.0,-1.0,2.0,8.0,-9.0,2.0,1651023946816111.0
-18.0,0.0,-20.0,-1.0,1.0,-13.0,-21.0,-14.0,1651023946829029.0
-7.0,-3.0,17.0,-2.0,-3.0,0.0,9.0,-1.0,1651023946829029.0
6.0,-3.0,-28.0,11.0,2.0,-2.0,-22.0,-7.0,1651023946829960.0
3.0,3.0,14.0,7.0,3.0,-1.0,20.0,4.0,1651023946829960.0
3.0,3.0,27.0,39.0,17.0,8.0,12.0,9.0,1651023946850893.0
4.0,6.0,-44.0,-56.0,-22.0,-23.0,-18.0,-4.0,1651023946850893.0
-2.0,-10.0,11.0,-2.0,-4.0,5.0,14.0,-2.0,1651023946851883.0
-10.0,7.0,-3.0,6.0,10.0,21.0,15.0,4.0,1651023946851883.0
-2.0,0.0,35.0,37.0,14.0,-35.0,-54.0,-18.0,1651023946874099.0
2.0,-16.0,-14.0,-7.0,-7.0,13.0,0.0,-2.0,1651023946874099.0
4.0,5.0,-27.0,-16.0,-3.0,24.0,24.0,10.0,1651023946875099.0
10.0,-1.0,7.0,8.0,2.0,24.0,-7.0,-2.0,1651023946875099.0
0.0,1.0,5.0,-13.0,-8.0,17.0,61.0,19.0,1651023946889102.0
-7.0,10.0,6.0,11.0,-3.0,-45.0,-57.0,-16.0,1651023946889102.0
-13.0,-2.0,-2.0,-19.0,-6.0,-40.0,19.0,-9.0,1651023946889102.0
3.0,-6.0,-9.0,-2.0,2.0,16.0,-25.0,-16.0,1651023946889102.0
2.0,7.0,-1.0,-15.0,-6.0,0.0,15.0,16.0,1651023946919043.0
-2.0,4.0,24.0,19.0,13.0,4.0,33.0,9.0,1651023946919043.0
5.0,4.0,9.0,23.0,8.0,-3.0,-41.0,-7.0,1651023946919978.0
-1.0,-6.0,-37.0,-26.0,-12.0,-3.0,18.0,2.0,1651023946919978.0
-2.0,-6.0,20.0,11.0,2.0,-3.0,-27.0,-12.0,1651023946934026.0
13.0,14.0,13.0,4.0,-4.0,-3.0,32.0,12.0,1651023946934026.0
-12.0,-12.0,-13.0,-15.0,-2.0,12.0,-4.0,4.0,1651023946935025.0
3.0,5.0,17.0,10.0,-2.0,-78.0,-28.0,-11.0,1651023946935025.0
9.0,-1.0,-11.0,6.0,23.0,103.0,18.0,1.0,1651023946948986.0
-6.0,-3.0,3.0,4.0,-2.0,1.0,-6.0,-8.0,1651023946948986.0
3.0,5.0,26.0,3.0,-14.0,-24.0,11.0,7.0,1651023946948986.0
13.0,-7.0,-32.0,-13.0,-4.0,-19.0,14.0,9.0,1651023946948986.0
-5.0,-5.0,-19.0,-27.0,-5.0,9.0,32.0,3.0,1651023946970995.0
-2.0,-3.0,0.0,16.0,6.0,-5.0,-40.0,-6.0,1651023946970995.0
9.0,8.0,19.0,6.0,-7.0,-6.0,13.0,3.0,1651023946971925.0
1.0,6.0,10.0,-8.0,9.0,3.0,3.0,2.0,1651023946971925.0
-26.0,-2.0,-13.0,2.0,-3.0,-19.0,-19.0,-16.0,1651023947002131.0
3.0,2.0,-43.0,-31.0,-4.0,10.0,-14.0,0.0,1651023947002131.0
-5.0,-11.0,43.0,30.0,3.0,-7.0,38.0,0.0,1651023947003096.0
-12.0,-4.0,-14.0,-15.0,-3.0,15.0,-18.0,-8.0,1651023947003096.0
19.0,0.0,-42.0,-31.0,-10.0,-31.0,-3.0,2.0,1651023947008049.0
2.0,6.0,19.0,12.0,-5.0,0.0,-13.0,2.0,1651023947008049.0
-6.0,-1.0,17.0,6.0,-2.0,1.0,-23.0,-4.0,1651023947016071.0
19.0,13.0,-19.0,1.0,2.0,34.0,60.0,21.0,1651023947016071.0
-4.0,-8.0,2.0,4.0,7.0,6.0,-27.0,-12.0,1651023947031006.0
0.0,-3.0,-1.0,-3.0,3.0,29.0,24.0,10.0,1651023947031006.0
6.0,4.0,-5.0,-7.0,-1.0,-14.0,1.0,-1.0,1651023947031958.0
-9.0,-3.0,38.0,19.0,-4.0,-8.0,8.0,4.0,1651023947031958.0
11.0,18.0,28.0,42.0,10.0,-27.0,-11.0,4.0,1651023947054066.0
-2.0,-12.0,-48.0,-17.0,3.0,10.0,4.0,1.0,1651023947054066.0
-18.0,0.0,0.0,-29.0,-10.0,-2.0,-6.0,-11.0,1651023947054066.0
3.0,-5.0,-23.0,-17.0,3.0,26.0,2.0,4.0,1651023947054066.0
-5.0,-3.0,7.0,15.0,-3.0,-14.0,38.0,16.0,1651023947067966.0
2.0,13.0,63.0,21.0,5.0,2.0,-52.0,-16.0,1651023947067966.0
0.0,-11.0,-47.0,2.0,8.0,6.0,-7.0,-7.0,1651023947076004.0
-10.0,-5.0,7.0,1.0,-18.0,-28.0,-27.0,-5.0,1651023947076004.0
0.0,0.0,7.0,-23.0,-10.0,-26.0,1.0,4.0,1651023947090971.0
15.0,-17.0,-26.0,-7.0,8.0,55.0,45.0,8.0,1651023947090971.0
-1.0,10.0,8.0,6.0,1.0,-45.0,15.0,8.0,1651023947091969.0
15.0,16.0,55.0,36.0,15.0,45.0,14.0,-5.0,1651023947091969.0
-2.0,-9.0,-44.0,-22.0,-1.0,3.0,-13.0,4.0,1651023947113632.0
-2.0,1.0,-12.0,-12.0,-15.0,-29.0,-12.0,-2.0,1651023947113632.0
3.0,-4.0,-17.0,-18.0,-6.0,28.0,1.0,0.0,1651023947114603.0
-13.0,-2.0,13.0,12.0,13.0,3.0,29.0,-10.0,1651023947114603.0
14.0,7.0,55.0,35.0,7.0,-13.0,-22.0,1.0,1651023947127935.0
-1.0,-6.0,-60.0,-38.0,-21.0,-11.0,-4.0,-1.0,1651023947127935.0
3.0,-1.0,-10.0,-19.0,3.0,-13.0,6.0,9.0,1651023947136752.0
10.0,10.0,34.0,45.0,13.0,-5.0,24.0,16.0,1651023947136752.0
-14.0,2.0,12.0,6.0,-6.0,10.0,-48.0,-24.0,1651023947150887.0
-5.0,-10.0,8.0,20.0,4.0,-27.0,-1.0,-4.0,1651023947150887.0
9.0,9.0,63.0,29.0,10.0,8.0,0.0,1.0,1651023947151889.0
-8.0,-20.0,-101.0,-70.0,-23.0,-14.0,-6.0,-3.0,1651023947151889.0
7.0,10.0,16.0,-4.0,-1.0,0.0,29.0,13.0,1651023947174118.0
-1.0,-11.0,-10.0,-8.0,-12.0,-28.0,-23.0,-12.0,1651023947174118.0
15.0,6.0,12.0,13.0,14.0,62.0,4.0,5.0,1651023947174863.0
-3.0,-6.0,13.0,-7.0,-5.0,-11.0,-14.0,-6.0,1651023947174863.0
-1.0,-6.0,-11.0,23.0,5.0,-17.0,9.0,-2.0,1651023947187898.0
2.0,15.0,23.0,-1.0,-6.0,-3.0,14.0,10.0,1651023947187898.0
8.0,6.0,3.0,12.0,4.0,0.0,-11.0,-6.0,1651023947195873.0
-9.0,5.0,-10.0,-3.0,-4.0,15.0,-3.0,1.0,1651023947195873.0
-2.0,-15.0,-24.0,-16.0,-4.0,-10.0,7.0,3.0,1651023947210770.0
-1.0,-2.0,-18.0,-26.0,-1.0,-9.0,15.0,2.0,1651023947210770.0
-8.0,7.0,6.0,17.0,8.0,8.0,-40.0,-14.0,1651023947211771.0
-8.0,-5.0,-6.0,-22.0,-13.0,-12.0,-5.0,-1.0,1651023947211771.0
12.0,1.0,28.0,32.0,4.0,10.0,1.0,9.0,1651023947233775.0
10.0,9.0,12.0,-3.0,5.0,6.0,19.0,8.0,1651023947233775.0
-15.0,-11.0,-37.0,-7.0,-2.0,-3.0,-8.0,-7.0,1651023947234773.0
-5.0,5.0,44.0,25.0,6.0,-22.0,-15.0,-2.0,1651023947234773.0
3.0,-3.0,-35.0,-14.0,1.0,23.0,12.0,-2.0,1651023947247926.0
10.0,7.0,-15.0,-18.0,-3.0,12.0,38.0,7.0,1651023947247926.0
-8.0,-8.0,-1.0,-17.0,-11.0,-19.0,-14.0,4.0,1651023947256725.0
3.0,0.0,6.0,22.0,-3.0,-7.0,-28.0,-7.0,1651023947256725.0
1.0,4.0,-4.0,-17.0,-3.0,-8.0,-27.0,-11.0,1651023947270756.0
-23.0,4.0,29.0,35.0,12.0,-10.0,6.0,3.0,1651023947270756.0
4.0,0.0,0.0,-2.0,-5.0,10.0,10.0,-5.0,1651023947278735.0
-11.0,-11.0,-21.0,-11.0,0.0,24.0,41.0,12.0,1651023947278735.0
-3.0,-13.0,-19.0,-21.0,-9.0,-13.0,-27.0,-12.0,1651023947294170.0
0.0,5.0,17.0,21.0,17.0,41.0,-6.0,-11.0,1651023947294170.0
0.0,0.0,1.0,-9.0,-10.0,-17.0,8.0,16.0,1651023947294861.0
5.0,6.0,39.0,19.0,6.0,-33.0,-20.0,3.0,1651023947294861.0
-2.0,0.0,-36.0,-9.0,7.0,38.0,34.0,9.0,1651023947307844.0
-7.0,-9.0,-15.0,-18.0,-18.0,-16.0,-5.0,-8.0,1651023947307844.0
-2.0,-2.0,22.0,17.0,3.0,-10.0,-18.0,-12.0,1651023947316805.0
7.0,13.0,43.0,37.0,19.0,16.0,24.0,8.0,1651023947316805.0
-17.0,-18.0,-63.0,-42.0,-17.0,-20.0,-43.0,-23.0,1651023947331012.0
-6.0,-10.0,-14.0,-12.0,-12.0,-24.0,-18.0,-6.0,1651023947331012.0
4.0,-2.0,-17.0,-23.0,-12.0,0.0,8.0,3.0,1651023947331943.0
-16.0,7.0,18.0,2.0,-2.0,1.0,-19.0,-1.0,1651023947331943.0
8.0,11.0,37.0,32.0,20.0,13.0,48.0,15.0,1651023947353884.0
7.0,5.0,-5.0,2.0,2.0,-2.0,13.0,15.0,1651023947353884.0
-31.0,-8.0,-10.0,-11.0,-13.0,-44.0,-59.0,-40.0,1651023947354881.0
22.0,5.0,-10.0,-9.0,7.0,66.0,22.0,7.0,1651023947354881.0
-10.0,4.0,56.0,32.0,8.0,1.0,4.0,2.0,1651023947376776.0
1.0,-10.0,-66.0,-36.0,-20.0,-19.0,7.0,6.0,1651023947376776.0
12.0,6.0,2.0,10.0,12.0,-8.0,22.0,10.0,1651023947377704.0
-6.0,-4.0,5.0,13.0,-2.0,-18.0,-6.0,1.0,1651023947377704.0
2.0,9.0,12.0,-1.0,6.0,27.0,15.0,1.0,1651023947391668.0
2.0,0.0,8.0,0.0,-1.0,-21.0,-69.0,-16.0,1651023947391668.0
1.0,-2.0,12.0,38.0,20.0,-1.0,21.0,7.0,1651023947391668.0
-7.0,-10.0,-2.0,-8.0,-9.0,-5.0,-37.0,-17.0,1651023947391668.0
12.0,-4.0,-42.0,-30.0,-17.0,-3.0,31.0,13.0,1651023947413960.0
-2.0,4.0,19.0,13.0,7.0,-1.0,-3.0,0.0,1651023947413960.0
14.0,6.0,1.0,-5.0,-4.0,12.0,39.0,13.0,1651023947414904.0
-25.0,-12.0,-20.0,-24.0,-11.0,-11.0,-39.0,-23.0,1651023947414904.0
9.0,-3.0,6.0,10.0,12.0,20.0,10.0,5.0,1651023947436899.0
4.0,5.0,14.0,9.0,-2.0,-21.0,-11.0,-3.0,1651023947436899.0
1.0,0.0,7.0,-3.0,-4.0,15.0,16.0,10.0,1651023947437842.0
18.0,4.0,-15.0,1.0,1.0,-25.0,8.0,14.0,1651023947437842.0
-11.0,-5.0,-42.0,-52.0,-14.0,40.0,26.0,-6.0,1651023947450801.0
-4.0,-3.0,25.0,32.0,11.0,32.0,-2.0,0.0,1651023947450801.0
0.0,0.0,3.0,9.0,8.0,-11.0,-5.0,-1.0,1651023947451803.0
1.0,-1.0,18.0,13.0,4.0,-16.0,5.0,-2.0,1651023947451803.0
0.0,2.0,-14.0,-8.0,-10.0,-41.0,-30.0,-6.0,1651023947474731.0
5.0,-4.0,-5.0,-14.0,3.0,43.0,37.0,7.0,1651023947474731.0
9.0,5.0,4.0,6.0,-5.0,-6.0,-2.0,2.0,1651023947474731.0
-7.0,-6.0,-18.0,-4.0,-7.0,4.0,-2.0,-5.0,1651023947474731.0
-2.0,-4.0,6.0,4.0,-2.0,0.0,-9.0,-3.0,1651023947496735.0
-10.0,0.0,11.0,-1.0,7.0,-14.0,-1.0,-6.0,1651023947496735.0
9.0,7.0,49.0,43.0,6.0,13.0,4.0,1.0,1651023947497669.0
-11.0,-20.0,-109.0,-78.0,-18.0,-6.0,6.0,-6.0,1651023947497669.0
5.0,11.0,35.0,18.0,-4.0,-21.0,-35.0,-4.0,1651023947511675.0
-7.0,-1.0,4.0,-10.0,-17.0,-25.0,-68.0,-24.0,1651023947511675.0
2.0,-6.0,-6.0,8.0,14.0,16.0,14.0,10.0,1651023947511675.0
4.0,6.0,22.0,13.0,4.0,12.0,27.0,9.0,1651023947511675.0
0.0,7.0,27.0,14.0,4.0,-4.0,16.0,-5.0,1651023947533988.0
5.0,6.0,-13.0,-1.0,4.0,21.0,30.0,16.0,1651023947533988.0
-5.0,-9.0,-22.0,-20.0,-11.0,-1.0,-7.0,-4.0,1651023947534920.0
2.0,5.0,17.0,21.0,4.0,-13.0,-22.0,-5.0,1651023947534920.0
-2.0,-9.0,-23.0,-14.0,6.0,6.0,-23.0,-4.0,1651023947556887.0
2.0,9.0,27.0,15.0,-2.0,-6.0,10.0,1.0,1651023947556887.0
-6.0,-2.0,-8.0,-15.0,-10.0,-15.0,27.0,3.0,1651023947557885.0
4.0,3.0,-16.0,-5.0,-2.0,21.0,-12.0,-2.0,1651023947557885.0
-4.0,3.0,46.0,11.0,-4.0,-12.0,-13.0,-1.0,1651023947570890.0
-1.0,-10.0,-39.0,1.0,10.0,11.0,29.0,14.0,1651023947570890.0
-9.0,-4.0,-15.0,-27.0,-13.0,-18.0,-43.0,-18.0,1651023947571833.0
2.0,0.0,16.0,0.0,-11.0,-11.0,13.0,3.0,1651023947571833.0
-2.0,-1.0,22.0,17.0,13.0,12.0,-13.0,-3.0,1651023947593784.0
-2.0,-9.0,-25.0,-20.0,-8.0,-11.0,-2.0,-3.0,1651023947593784.0
-5.0,-2.0,1.0,1.0,5.0,16.0,15.0,5.0,1651023947594782.0
4.0,0.0,-18.0,-18.0,-9.0,-11.0,-18.0,-3.0,1651023947594782.0
0.0,1.0,15.0,20.0,6.0,8.0,22.0,7.0,1651023947616767.0
-1.0,-2.0,16.0,7.0,-4.0,-33.0,0.0,-2.0,1651023947616767.0
-1.0,2.0,-19.0,-21.0,-12.0,17.0,-6.0,-4.0,1651023947617709.0
6.0,1.0,5.0,13.0,13.0,26.0,44.0,10.0,1651023947617709.0
-1.0,2.0,3.0,-8.0,-3.0,9.0,-28.0,-5.0,1651023947631687.0
-2.0,-5.0,2.0,7.0,2.0,-4.0,-18.0,-10.0,1651023947631687.0
0.0,-1.0,-13.0,-2.0,-1.0,2.0,4.0,1.0,1651023947631687.0
-4.0,0.0,20.0,2.0,-4.0,-23.0,-8.0,-4.0,1651023947631687.0
0.0,-8.0,-30.0,-28.0,-12.0,0.0,15.0,-1.0,1651023947653899.0
-1.0,4.0,12.0,6.0,3.0,6.0,6.0,0.0,1651023947653899.0
-4.0,-1.0,12.0,-1.0,-3.0,0.0,-11.0,-1.0,1651023947654830.0
1.0,2.0,16.0,15.0,7.0,8.0,5.0,-1.0,1651023947654830.0
0.0,-3.0,-20.0,0.0,0.0,-16.0,8.0,4.0,1651023947683978.0
0.0,0.0,15.0,-2.0,-13.0,2.0,-7.0,-2.0,1651023947683978.0
0.0,-3.0,-6.0,-3.0,7.0,3.0,5.0,0.0,1651023947684978.0
3.0,1.0,1.0,3.0,7.0,-2.0,-4.0,-2.0,1651023947684978.0
1.0,-1.0,-23.0,-12.0,-9.0,-8.0,-2.0,-4.0,1651023947690989.0
0.0,6.0,48.0,27.0,3.0,4.0,5.0,4.0,1651023947690989.0
-2.0,-7.0,-58.0,-31.0,-17.0,-7.0,-1.0,1.0,1651023947691965.0
-1.0,-4.0,-19.0,-17.0,0.0,-11.0,-5.0,-2.0,1651023947691965.0
1.0,0.0,13.0,7.0,1.0,24.0,3.0,1.0,1651023947713120.0
2.0,6.0,15.0,9.0,6.0,2.0,6.0,1.0,1651023947713120.0
3.0,4.0,13.0,11.0,10.0,12.0,-3.0,1.0,1651023947714093.0
-1.0,-2.0,8.0,-3.0,-3.0,5.0,-4.0,-2.0,1651023947714093.0
0.0,7.0,-11.0,-1.0,-2.0,-13.0,3.0,1.0,1651023947737089.0
3.0,1.0,1.0,3.0,-1.0,0.0,3.0,3.0,1651023947737089.0
-12.0,-23.0,-14.0,-9.0,-5.0,-13.0,-7.0,-7.0,1651023947738045.0
-4.0,-7.0,-5.0,-2.0,-5.0,3.0,-6.0,-3.0,1651023947738045.0
6.0,8.0,20.0,10.0,7.0,-2.0,4.0,3.0,1651023947751993.0
4.0,-11.0,-16.0,-7.0,1.0,3.0,0.0,1.0,1651023947751993.0
-4.0,16.0,-2.0,3.0,1.0,1.0,-3.0,-3.0,1651023947751993.0
-2.0,4.0,1.0,8.0,1.0,4.0,1.0,0.0,1651023947751993.0
-2.0,-3.0,3.0,-4.0,-5.0,-9.0,-3.0,1.0,1651023947773944.0
5.0,3.0,4.0,-3.0,1.0,0.0,-1.0,0.0,1651023947773944.0
2.0,-10.0,-1.0,-2.0,2.0,4.0,2.0,2.0,1651023947774872.0
1.0,-2.0,-7.0,-1.0,-2.0,-2.0,-3.0,-4.0,1651023947774872.0
0.0,2.0,0.0,-3.0,-5.0,-7.0,-1.0,4.0,1651023947796964.0
-3.0,-8.0,-3.0,3.0,5.0,4.0,-3.0,-4.0,1651023947796964.0
3.0,11.0,12.0,7.0,3.0,2.0,1.0,1.0,1651023947797921.0
5.0,-8.0,-14.0,-7.0,-2.0,0.0,-2.0,4.0,1651023947797921.0
0.0,-20.0,-33.0,-10.0,-2.0,-6.0,-3.0,-2.0,1651023947810926.0
-17.0,-7.0,2.0,-1.0,-1.0,-1.0,1.0,-12.0,1651023947810926.0
15.0,31.0,0.0,4.0,2.0,3.0,2.0,12.0,1651023947811857.0
-12.0,-29.0,14.0,-2.0,-5.0,-4.0,-7.0,-6.0,1651023947811857.0
2.0,11.0,2.0,3.0,-9.0,1.0,6.0,4.0,1651023947834043.0
4.0,17.0,-8.0,1.0,12.0,2.0,-2.0,6.0,1651023947834043.0
3.0,-9.0,8.0,3.0,1.0,-4.0,-1.0,-5.0,1651023947834043.0
0.0,12.0,11.0,-2.0,-2.0,5.0,0.0,7.0,1651023947834043.0
3.0,17.0,13.0,7.0,2.0,-2.0,1.0,2.0,1651023947856988.0
-9.0,-6.0,2.0,-9.0,-15.0,-3.0,-2.0,-17.0,1651023947856988.0
-6.0,-5.0,-23.0,-2.0,1.0,1.0,-2.0,-6.0,1651023947857914.0
3.0,-22.0,0.0,9.0,6.0,-2.0,0.0,18.0,1651023947857914.0
-1.0,4.0,-5.0,-1.0,14.0,3.0,-1.0,-1.0,1651023947870947.0
10.0,8.0,30.0,3.0,-6.0,-1.0,2.0,8.0,1651023947870947.0
-5.0,3.0,3.0,0.0,-4.0,-4.0,-2.0,-6.0,1651023947871877.0
-6.0,-13.0,-16.0,-2.0,-4.0,1.0,-1.0,-11.0,1651023947871877.0
-3.0,1.0,-7.0,-7.0,-11.0,-9.0,-4.0,-1.0,1651023947893885.0
1.0,-6.0,-11.0,1.0,13.0,5.0,0.0,3.0,1651023947893885.0
1.0,10.0,7.0,3.0,-6.0,1.0,2.0,-2.0,1651023947894816.0
2.0,22.0,21.0,5.0,1.0,2.0,2.0,0.0,1651023947894816.0
-1.0,-7.0,9.0,9.0,7.0,0.0,4.0,1.0,1651023947915949.0
-8.0,-38.0,-12.0,-8.0,-1.0,-3.0,0.0,2.0,1651023947915949.0
-7.0,-13.0,-46.0,-11.0,-8.0,-5.0,-10.0,-14.0,1651023947924006.0
8.0,17.0,12.0,-1.0,-2.0,-3.0,-2.0,-4.0,1651023947924006.0
4.0,8.0,4.0,1.0,0.0,1.0,-3.0,-1.0,1651023947930990.0
-16.0,-17.0,0.0,6.0,7.0,2.0,2.0,-3.0,1651023947930990.0
3.0,18.0,12.0,3.0,2.0,1.0,3.0,9.0,1651023947939003.0
-1.0,11.0,-5.0,-7.0,-22.0,-6.0,-2.0,-4.0,1651023947939003.0
-7.0,-25.0,-3.0,-3.0,9.0,1.0,-4.0,-10.0,1651023947954021.0
0.0,18.0,4.0,7.0,5.0,3.0,2.0,5.0,1651023947954021.0
-4.0,-9.0,-7.0,-4.0,4.0,-1.0,-2.0,-3.0,1651023947954021.0
-2.0,4.0,2.0,5.0,4.0,1.0,2.0,3.0,1651023947954021.0
11.0,-10.0,-24.0,-11.0,-17.0,-4.0,1.0,3.0,1651023947976980.0
7.0,32.0,12.0,-1.0,-2.0,-1.0,3.0,7.0,1651023947976980.0
-8.0,-20.0,3.0,2.0,5.0,3.0,4.0,3.0,1651023947977914.0
-1.0,30.0,38.0,9.0,2.0,1.0,-2.0,-7.0,1651023947977914.0
-9.0,-11.0,-10.0,-8.0,-5.0,-5.0,-4.0,-4.0,1651023947990943.0
-11.0,-23.0,-20.0,-7.0,-2.0,-2.0,-1.0,-5.0,1651023947990943.0
0.0,6.0,32.0,4.0,-8.0,-2.0,1.0,0.0,1651023947998922.0
12.0,21.0,-22.0,2.0,0.0,0.0,2.0,5.0,1651023947998922.0
-1.0,1.0,29.0,11.0,20.0,1.0,-3.0,-3.0,1651023948014109.0
2.0,-5.0,-13.0,-3.0,-12.0,-1.0,0.0,-1.0,1651023948014109.0
2.0,0.0,6.0,1.0,0.0,0.0,-1.0,4.0,1651023948014837.0
-28.0,0.0,-8.0,-2.0,8.0,5.0,1.0,-7.0,1651023948014837.0
-10.0,-22.0,2.0,4.0,-1.0,0.0,-1.0,-1.0,1651023948036930.0
25.0,41.0,-6.0,-6.0,-8.0,-3.0,-4.0,-1.0,1651023948036930.0
-8.0,5.0,7.0,-2.0,3.0,-2.0,0.0,0.0,1651023948037915.0
1.0,-46.0,-8.0,-2.0,1.0,0.0,0.0,2.0,1651023948037915.0
2.0,-26.0,-6.0,0.0,-2.0,0.0,1.0,2.0,1651023948050929.0
4.0,41.0,10.0,0.0,1.0,1.0,1.0,0.0,1651023948050929.0
-8.0,-36.0,-9.0,-2.0,-1.0,2.0,6.0,0.0,1651023948058912.0
-8.0,-10.0,-4.0,-3.0,3.0,0.0,2.0,-6.0,1651023948058912.0
9.0,16.0,-2.0,0.0,-8.0,-6.0,-17.0,-3.0,1651023948073928.0
-3.0,-24.0,-8.0,-1.0,-1.0,-3.0,-4.0,1.0,1651023948073928.0
8.0,6.0,8.0,0.0,1.0,0.0,-2.0,3.0,1651023948074906.0
-4.0,-12.0,-11.0,-6.0,-7.0,-3.0,9.0,3.0,1651023948074906.0
-14.0,20.0,-1.0,-4.0,4.0,3.0,7.0,1.0,1651023948096853.0
-20.0,5.0,17.0,3.0,2.0,3.0,-5.0,-7.0,1651023948096853.0
2.0,-12.0,5.0,4.0,5.0,0.0,2.0,2.0,1651023948097845.0
-8.0,-4.0,-12.0,-3.0,-4.0,-3.0,-6.0,-6.0,1651023948097845.0
3.0,2.0,-1.0,-3.0,-10.0,-3.0,1.0,2.0,1651023948118947.0
-2.0,-17.0,-15.0,0.0,10.0,-1.0,-4.0,-3.0,1651023948118947.0
4.0,18.0,13.0,3.0,-4.0,1.0,1.0,-1.0,1651023948119960.0
7.0,-10.0,-3.0,1.0,6.0,-1.0,-3.0,0.0,1651023948119960.0
-9.0,-30.0,-10.0,-6.0,-12.0,-4.0,-2.0,-4.0,1651023948133963.0
2.0,-5.0,-2.0,-2.0,-4.0,-3.0,4.0,0.0,1651023948133963.0
3.0,-7.0,1.0,-1.0,1.0,-1.0,-3.0,0.0,1651023948134936.0
7.0,-13.0,-3.0,1.0,2.0,-1.0,-6.0,-1.0,1651023948134936.0
7.0,48.0,8.0,0.0,-1.0,1.0,2.0,1.0,1651023948156902.0
9.0,-28.0,-9.0,-2.0,-5.0,0.0,2.0,5.0,1651023948156902.0
-5.0,12.0,2.0,1.0,6.0,1.0,-4.0,-6.0,1651023948157841.0
2.0,12.0,-2.0,-1.0,-2.0,-1.0,-2.0,0.0,1651023948157841.0
4.0,15.0,7.0,3.0,2.0,1.0,2.0,-1.0,1651023948170797.0
-5.0,-16.0,-3.0,0.0,-2.0,0.0,0.0,-2.0,1651023948170797.0
2.0,-9.0,-8.0,-6.0,-5.0,-3.0,-3.0,0.0,1651023948178890.0
0.0,17.0,7.0,1.0,2.0,0.0,-1.0,-2.0,1651023948178890.0
-5.0,-5.0,-2.0,1.0,-1.0,1.0,1.0,0.0,1651023948193863.0
6.0,20.0,2.0,-1.0,-3.0,-1.0,0.0,2.0,1651023948193863.0
-1.0,2.0,0.0,0.0,0.0,1.0,-1.0,1.0,1651023948194887.0
7.0,5.0,-3.0,1.0,0.0,-2.0,-2.0,2.0,1651023948194887.0
-2.0,-24.0,-4.0,-1.0,-2.0,-2.0,0.0,-2.0,1651023948216827.0
-5.0,-8.0,-1.0,-2.0,-11.0,-3.0,-1.0,-3.0,1651023948216827.0
0.0,45.0,3.0,2.0,7.0,-1.0,-1.0,-1.0,1651023948217802.0
-2.0,-28.0,-1.0,3.0,6.0,1.0,0.0,-1.0,1651023948217802.0
6.0,36.0,9.0,-4.0,-6.0,-2.0,-1.0,0.0,1651023948230777.0
0.0,-9.0,-4.0,-1.0,2.0,-1.0,0.0,0.0,1651023948230777.0
8.0,3.0,3.0,-1.0,-7.0,-2.0,0.0,1.0,1651023948238745.0
8.0,13.0,1.0,-1.0,-1.0,-1.0,1.0,4.0,1651023948238745.0
1.0,-4.0,-1.0,1.0,5.0,1.0,2.0,0.0,1651023948253288.0
1.0,4.0,2.0,-1.0,-3.0,1.0,-1.0,-1.0,1651023948253288.0
-3.0,-21.0,-5.0,-1.0,-2.0,0.0,-1.0,0.0,1651023948254283.0
3.0,16.0,2.0,-1.0,0.0,0.0,-1.0,0.0,1651023948254283.0
-6.0,-24.0,-6.0,-4.0,-7.0,-6.0,-1.0,-1.0,1651023948277285.0
-3.0,8.0,-5.0,-3.0,4.0,0.0,-3.0,-2.0,1651023948277285.0
5.0,1.0,0.0,3.0,5.0,4.0,-2.0,-2.0,1651023948277285.0
-6.0,0.0,1.0,2.0,0.0,2.0,0.0,-2.0,1651023948277285.0
-1.0,-13.0,-1.0,-1.0,-9.0,-1.0,-2.0,0.0,1651023948290256.0
0.0,-2.0,-3.0,-2.0,6.0,-1.0,1.0,0.0,1651023948290256.0
-2.0,-15.0,-2.0,-2.0,-4.0,-1.0,0.0,-1.0,1651023948299193.0
7.0,20.0,4.0,2.0,9.0,-1.0,2.0,2.0,1651023948299193.0
-9.0,-36.0,-7.0,-3.0,-4.0,0.0,-2.0,-3.0,1651023948314136.0
-5.0,18.0,-1.0,3.0,-1.0,-2.0,-1.0,0.0,1651023948314136.0
-5.0,-7.0,-1.0,-3.0,-5.0,-1.0,-2.0,0.0,1651023948314136.0
-1.0,-11.0,-3.0,-3.0,-2.0,3.0,-2.0,-1.0,1651023948314136.0
-2.0,25.0,0.0,-1.0,4.0,1.0,2.0,-3.0,1651023948336903.0
22.0,13.0,0.0,-3.0,-5.0,-2.0,0.0,5.0,1651023948336903.0
-15.0,-35.0,-7.0,0.0,2.0,0.0,3.0,-2.0,1651023948337910.0
8.0,22.0,5.0,1.0,-1.0,-1.0,-1.0,2.0,1651023948337910.0
-1.0,10.0,1.0,-1.0,1.0,1.0,-1.0,-1.0,1651023948359841.0
-6.0,-17.0,-1.0,-2.0,-3.0,1.0,-2.0,-3.0,1651023948359841.0
2.0,6.0,0.0,1.0,-1.0,-1.0,0.0,-1.0,1651023948359841.0
-4.0,-1.0,0.0,-3.0,-1.0,-2.0,-1.0,0.0,1651023948359841.0
-2.0,-3.0,1.0,1.0,3.0,1.0,-2.0,1.0,1651023948373866.0
2.0,2.0,1.0,-4.0,-8.0,-2.0,-1.0,-1.0,1651023948373866.0
-8.0,-29.0,-4.0,-1.0,0.0,0.0,-1.0,-2.0,1651023948374801.0
-2.0,10.0,2.0,-1.0,6.0,0.0,-1.0,-3.0,1651023948374801.0
3.0,4.0,-1.0,0.0,-2.0,0.0,0.0,0.0,1651023948397090.0
-7.0,-4.0,-2.0,2.0,1.0,1.0,0.0,-1.0,1651023948397090.0
7.0,11.0,3.0,-2.0,-10.0,-7.0,-2.0,1.0,1651023948398048.0
-2.0,-11.0,-1.0,0.0,-1.0,4.0,-2.0,-1.0,1651023948398048.0
0.0,11.0,-1.0,2.0,7.0,0.0,0.0,-1.0,1651023948418965.0
-3.0,4.0,3.0,1.0,2.0,2.0,-1.0,0.0,1651023948418965.0
4.0,7.0,-2.0,-1.0,-1.0,-1.0,-1.0,-1.0,1651023948419900.0
-5.0,-3.0,-3.0,-3.0,-5.0,-2.0,-1.0,-2.0,1651023948419900.0
4.0,8.0,1.0,0.0,-7.0,-2.0,0.0,2.0,1651023948433889.0
-3.0,-5.0,1.0,4.0,10.0,4.0,0.0,-2.0,1651023948433889.0
6.0,-8.0,-1.0,2.0,4.0,1.0,2.0,3.0,1651023948434886.0
-7.0,-1.0,1.0,-4.0,-6.0,-3.0,-4.0,-6.0,1651023948434886.0
1.0,-5.0,-2.0,-2.0,-3.0,-2.0,-1.0,2.0,1651023948457095.0
-1.0,0.0,-2.0,-1.0,0.0,-1.0,0.0,-1.0,1651023948457095.0
-2.0,4.0,3.0,1.0,4.0,2.0,-2.0,0.0,1651023948458124.0
4.0,-4.0,-2.0,-1.0,-5.0,1.0,1.0,2.0,1651023948458124.0
0.0,-4.0,0.0,0.0,-1.0,-1.0,0.0,-1.0,1651023948479046.0
-3.0,-1.0,-1.0,-3.0,-3.0,-3.0,0.0,-1.0,1651023948479046.0
0.0,14.0,0.0,-5.0,-8.0,-2.0,-2.0,-3.0,1651023948480034.0
2.0,-19.0,-1.0,5.0,12.0,-1.0,0.0,0.0,1651023948480034.0
-6.0,18.0,-4.0,0.0,-2.0,2.0,-5.0,-6.0,1651023948494059.0
2.0,11.0,4.0,2.0,0.0,0.0,2.0,2.0,1651023948494059.0
-4.0,-13.0,-4.0,-2.0,0.0,1.0,0.0,0.0,1651023948494059.0
3.0,2.0,-1.0,-3.0,-9.0,-2.0,1.0,2.0,1651023948494059.0
-3.0,-15.0,-1.0,1.0,6.0,3.0,0.0,1.0,1651023948516744.0
0.0,1.0,1.0,-1.0,-3.0,0.0,-1.0,-2.0,1651023948516744.0
0.0,11.0,1.0,-3.0,-3.0,-3.0,0.0,-2.0,1651023948517740.0
-4.0,-5.0,-3.0,-2.0,-1.0,0.0,1.0,-1.0,1651023948517740.0
9.0,3.0,-1.0,-2.0,-3.0,-3.0,1.0,1.0,1651023948546781.0
-11.0,1.0,-4.0,-3.0,-2.0,0.0,-3.0,-3.0,1651023948546781.0
-1.0,29.0,7.0,4.0,4.0,-1.0,-2.0,-2.0,1651023948547786.0
1.0,-3.0,-2.0,2.0,-2.0,-1.0,-1.0,0.0,1651023948547786.0
2.0,1.0,1.0,-1.0,-2.0,-2.0,1.0,0.0,1651023948553774.0
3.0,-10.0,-3.0,-1.0,-2.0,-1.0,-1.0,2.0,1651023948553774.0
-2.0,-8.0,-2.0,-1.0,2.0,1.0,0.0,-2.0,1651023948554791.0
-3.0,3.0,0.0,-2.0,-2.0,-1.0,-3.0,0.0,1651023948554791.0
-4.0,-11.0,-2.0,-2.0,-3.0,-1.0,-2.0,-1.0,1651023948577349.0
0.0,2.0,1.0,0.0,-1.0,0.0,1.0,0.0,1651023948577349.0
-3.0,-15.0,-3.0,2.0,17.0,2.0,0.0,1.0,1651023948577870.0
3.0,1.0,-1.0,-1.0,-7.0,-1.0,1.0,1.0,1651023948577870.0
-1.0,-4.0,2.0,0.0,2.0,0.0,1.0,0.0,1651023948599888.0
-1.0,-8.0,-4.0,-2.0,-3.0,-3.0,0.0,-2.0,1651023948599888.0
3.0,8.0,-2.0,-2.0,-6.0,-3.0,0.0,-1.0,1651023948599888.0
-1.0,-6.0,-3.0,-3.0,-2.0,-2.0,0.0,0.0,1651023948599888.0
3.0,12.0,2.0,1.0,3.0,1.0,-1.0,0.0,1651023948614032.0
-3.0,23.0,2.0,4.0,0.0,-1.0,0.0,-4.0,1651023948614032.0
-2.0,2.0,0.0,-1.0,-1.0,0.0,0.0,-3.0,1651023948614964.0
-1.0,-9.0,-3.0,0.0,2.0,0.0,0.0,-1.0,1651023948614964.0
4.0,9.0,3.0,2.0,1.0,-1.0,0.0,1.0,1651023948636901.0
1.0,0.0,0.0,-4.0,-4.0,-4.0,-2.0,0.0,1651023948636901.0
1.0,3.0,0.0,-4.0,-5.0,-1.0,0.0,0.0,1651023948637904.0
-3.0,-1.0,-2.0,-3.0,0.0,0.0,1.0,0.0,1651023948637904.0
-1.0,0.0,4.0,1.0,0.0,2.0,0.0,0.0,1651023948659867.0
-4.0,-20.0,-1.0,2.0,1.0,-1.0,0.0,-1.0,1651023948659867.0
-1.0,-5.0,-1.0,0.0,-2.0,0.0,-1.0,0.0,1651023948659867.0
1.0,2.0,0.0,-5.0,-14.0,-4.0,-2.0,-3.0,1651023948659867.0
-4.0,-4.0,-4.0,-1.0,14.0,2.0,-1.0,-1.0,1651023948673802.0
-1.0,-3.0,5.0,4.0,10.0,5.0,1.0,1.0,1651023948673802.0
6.0,41.0,6.0,2.0,-6.0,0.0,-1.0,0.0,1651023948674823.0
5.0,0.0,2.0,1.0,3.0,2.0,1.0,1.0,1651023948674823.0
-9.0,-11.0,-4.0,-2.0,-7.0,-4.0,-2.0,-1.0,1651023948696852.0
6.0,9.0,-2.0,-2.0,-2.0,-2.0,-1.0,-1.0,1651023948696852.0
-5.0,-18.0,-2.0,-1.0,1.0,-1.0,0.0,-3.0,1651023948697852.0
-1.0,16.0,3.0,0.0,-2.0,-1.0,-2.0,-1.0,1651023948697852.0
3.0,-3.0,1.0,-1.0,-2.0,0.0,-1.0,-1.0,1651023948719795.0
-3.0,-4.0,-3.0,-1.0,-2.0,0.0,0.0,-1.0,1651023948719795.0
1.0,1.0,-1.0,-2.0,-2.0,-2.0,2.0,0.0,1651023948719795.0
-5.0,-6.0,-4.0,-4.0,-1.0,-3.0,0.0,-4.0,1651023948719795.0
-1.0,-10.0,-2.0,4.0,1.0,1.0,-1.0,-3.0,1651023948741803.0
-2.0,-5.0,3.0,0.0,1.0,-1.0,0.0,2.0,1651023948741803.0
2.0,4.0,-1.0,1.0,-3.0,-1.0,-1.0,1.0,1651023948742733.0
-3.0,-9.0,-10.0,-4.0,0.0,1.0,-1.0,-3.0,1651023948742733.0
0.0,8.0,1.0,0.0,0.0,-1.0,1.0,-1.0,1651023948756701.0
0.0,-9.0,-7.0,-3.0,-4.0,-3.0,1.0,-1.0,1651023948756701.0
-3.0,-15.0,-3.0,-5.0,-8.0,-1.0,0.0,0.0,1651023948757692.0
1.0,17.0,2.0,-3.0,16.0,0.0,-2.0,-1.0,1651023948757692.0
1.0,0.0,6.0,14.0,1.0,2.0,2.0,-1.0,1651023948779819.0
-9.0,-18.0,-6.0,-2.0,-1.0,-1.0,-1.0,-3.0,1651023948779819.0
2.0,8.0,0.0,-2.0,-4.0,-2.0,-2.0,-1.0,1651023948779819.0
-1.0,-2.0,-2.0,1.0,-2.0,-1.0,0.0,1.0,1651023948779819.0
4.0,6.0,-1.0,-7.0,-2.0,-2.0,-2.0,0.0,1651023948793824.0
4.0,6.0,1.0,0.0,0.0,0.0,-1.0,-1.0,1651023948793824.0
0.0,0.0,-2.0,-1.0,0.0,-1.0,-1.0,0.0,1651023948794823.0
0.0,-2.0,1.0,1.0,-2.0,-3.0,-1.0,-1.0,1651023948794823.0
-1.0,-9.0,-3.0,-2.0,2.0,4.0,1.0,1.0,1651023948816871.0
3.0,16.0,4.0,-3.0,-1.0,-1.0,0.0,1.0,1651023948816871.0
-3.0,-16.0,-4.0,2.0,1.0,0.0,-2.0,-1.0,1651023948817869.0
1.0,-9.0,-2.0,5.0,1.0,-2.0,0.0,0.0,1651023948817869.0
1.0,1.0,2.0,-5.0,-7.0,0.0,-1.0,1.0,1651023948839812.0
0.0,-9.0,-5.0,-1.0,1.0,-1.0,-1.0,-1.0,1651023948839812.0
0.0,2.0,1.0,0.0,2.0,0.0,2.0,0.0,1651023948839812.0
1.0,23.0,5.0,1.0,-12.0,-1.0,-1.0,-1.0,1651023948839812.0
-11.0,-38.0,-6.0,-3.0,9.0,-2.0,-1.0,1.0,1651023948853776.0
6.0,11.0,20.0,0.0,-3.0,0.0,-1.0,1.0,1651023948853776.0
-7.0,-13.0,-16.0,4.0,2.0,-1.0,0.0,-3.0,1651023948861753.0
2.0,2.0,5.0,-2.0,-1.0,0.0,-1.0,1.0,1651023948861753.0
1.0,-1.0,-11.0,-4.0,-6.0,-2.0,-1.0,-1.0,1651023948876715.0
3.0,21.0,6.0,3.0,1.0,0.0,-1.0,-1.0,1651023948876715.0
-1.0,-6.0,3.0,0.0,2.0,1.0,-1.0,-1.0,1651023948877712.0
-2.0,-8.0,0.0,0.0,-3.0,0.0,1.0,0.0,1651023948877712.0
3.0,5.0,1.0,-4.0,-2.0,-3.0,-4.0,0.0,1651023948899814.0
-8.0,-16.0,-11.0,-3.0,-2.0,-3.0,0.0,1.0,1651023948899814.0
2.0,13.0,4.0,-3.0,-1.0,-1.0,1.0,0.0,1651023948899814.0
-2.0,-10.0,-5.0,0.0,3.0,4.0,4.0,1.0,1651023948899814.0
-1.0,10.0,4.0,4.0,2.0,1.0,1.0,1.0,1651023948913199.0
2.0,-9.0,-3.0,-5.0,-1.0,-2.0,0.0,-1.0,1651023948913199.0
0.0,3.0,7.0,14.0,1.0,0.0,0.0,-2.0,1651023948921697.0
-2.0,-6.0,-12.0,-6.0,-9.0,-2.0,-3.0,0.0,1651023948921697.0
-2.0,-1.0,-5.0,0.0,13.0,-1.0,0.0,-4.0,1651023948936724.0
-1.0,7.0,-2.0,-5.0,-6.0,-1.0,-1.0,0.0,1651023948936724.0
2.0,1.0,6.0,12.0,8.0,3.0,0.0,1.0,1651023948937653.0
2.0,1.0,4.0,-2.0,-1.0,0.0,0.0,1.0,1651023948937653.0
-1.0,3.0,-1.0,2.0,-5.0,0.0,2.0,0.0,1651023948959719.0
-4.0,-5.0,3.0,4.0,-2.0,0.0,-1.0,-1.0,1651023948959719.0
0.0,-16.0,13.0,-11.0,-7.0,-4.0,-1.0,-2.0,1651023948960653.0
-2.0,0.0,-18.0,0.0,5.0,2.0,0.0,-1.0,1651023948960653.0
-7.0,-4.0,1.0,0.0,1.0,1.0,1.0,-1.0,1651023948972634.0
6.0,-2.0,-3.0,0.0,-1.0,0.0,-1.0,-1.0,1651023948972634.0
-2.0,-2.0,-5.0,1.0,0.0,1.0,0.0,1.0,1651023948981671.0
-1.0,2.0,9.0,0.0,-2.0,0.0,-2.0,0.0,1651023948981671.0
-1.0,-4.0,-6.0,-8.0,-4.0,-2.0,-1.0,-2.0,1651023948996625.0
-2.0,-5.0,-5.0,3.0,2.0,0.0,-1.0,-1.0,1651023948996625.0
9.0,-2.0,-4.0,-13.0,-14.0,-3.0,-1.0,2.0,1651023948997556.0
-12.0,1.0,-1.0,5.0,18.0,2.0,-1.0,-2.0,1651023948997556.0
2.0,4.0,9.0,8.0,-5.0,3.0,1.0,1.0,1651023949019564.0
0.0,1.0,25.0,10.0,1.0,-1.0,3.0,2.0,1651023949019564.0
-2.0,-11.0,-32.0,-7.0,-2.0,1.0,1.0,0.0,1651023949020494.0
1.0,-5.0,1.0,-4.0,-6.0,-2.0,-2.0,-1.0,1651023949020494.0
1.0,-1.0,-3.0,5.0,-4.0,-1.0,-5.0,-1.0,1651023949042435.0
-5.0,-5.0,1.0,-1.0,4.0,0.0,0.0,-3.0,1651023949042435.0
5.0,8.0,3.0,3.0,-1.0,-2.0,-2.0,-1.0,1651023949042435.0
-4.0,-20.0,-17.0,-1.0,-4.0,-2.0,1.0,3.0,1651023949042435.0
-17.0,1.0,-1.0,-5.0,-5.0,-1.0,-2.0,-12.0,1651023949057395.0
6.0,5.0,-3.0,-9.0,-2.0,1.0,0.0,3.0,1651023949057395.0
3.0,3.0,5.0,-1.0,4.0,2.0,-1.0,-1.0,1651023949057395.0
0.0,11.0,18.0,3.0,0.0,-1.0,0.0,0.0,1651023949057395.0
5.0,1.0,-17.0,-14.0,-7.0,-2.0,-1.0,2.0,1651023949079403.0
-6.0,-1.0,-7.0,3.0,3.0,0.0,2.0,0.0,1651023949079403.0
-2.0,-4.0,15.0,17.0,10.0,2.0,1.0,0.0,1651023949080334.0
4.0,7.0,7.0,2.0,2.0,2.0,2.0,0.0,1651023949080334.0
3.0,11.0,15.0,-2.0,-3.0,-2.0,1.0,3.0,1651023949093312.0
-1.0,-5.0,-13.0,-2.0,-2.0,-1.0,-2.0,-4.0,1651023949093312.0
-2.0,-4.0,-30.0,-11.0,2.0,2.0,-1.0,1.0,1651023949101345.0
7.0,3.0,14.0,-5.0,-5.0,-3.0,-3.0,-3.0,1651023949101345.0
-4.0,6.0,26.0,20.0,9.0,3.0,5.0,4.0,1651023949117305.0
5.0,14.0,-5.0,10.0,-1.0,0.0,-5.0,-2.0,1651023949117305.0
-4.0,11.0,23.0,-3.0,-4.0,-2.0,0.0,0.0,1651023949117305.0
2.0,-12.0,-18.0,-4.0,0.0,-1.0,-1.0,-2.0,1651023949117305.0
4.0,-3.0,-29.0,-14.0,-2.0,-1.0,-1.0,-1.0,1651023949139327.0
1.0,-3.0,12.0,2.0,-1.0,1.0,1.0,-1.0,1651023949139327.0
-1.0,8.0,1.0,-5.0,0.0,0.0,0.0,1.0,1651023949140262.0
-4.0,-16.0,-33.0,-8.0,-3.0,-2.0,-2.0,-3.0,1651023949140262.0
6.0,7.0,9.0,-1.0,-3.0,-2.0,-2.0,1.0,1651023949153253.0
-6.0,-14.0,-1.0,-3.0,2.0,-1.0,-2.0,1.0,1651023949153253.0
3.0,2.0,-10.0,-16.0,-10.0,-5.0,-2.0,0.0,1651023949161298.0
-9.0,4.0,18.0,33.0,19.0,5.0,0.0,-3.0,1651023949161298.0
-1.0,-3.0,2.0,-12.0,-9.0,-3.0,-4.0,-3.0,1651023949176956.0
7.0,-1.0,0.0,0.0,-10.0,-3.0,-2.0,0.0,1651023949176956.0
-11.0,-9.0,-23.0,-14.0,18.0,4.0,5.0,1.0,1651023949177890.0
5.0,9.0,25.0,-6.0,-17.0,-6.0,-3.0,-2.0,1651023949177890.0
0.0,2.0,-2.0,14.0,8.0,3.0,1.0,0.0,1651023949199079.0
12.0,7.0,17.0,-24.0,-17.0,-1.0,2.0,10.0,1651023949199079.0
-13.0,-9.0,-3.0,20.0,-4.0,-4.0,-7.0,-11.0,1651023949200016.0
4.0,-12.0,-20.0,2.0,12.0,3.0,1.0,1.0,1651023949200016.0
0.0,14.0,35.0,20.0,5.0,2.0,7.0,3.0,1651023949212668.0
29.0,-13.0,-12.0,-26.0,-1.0,4.0,20.0,23.0,1651023949212668.0
-9.0,22.0,50.0,9.0,-6.0,5.0,16.0,2.0,1651023949221678.0
7.0,0.0,27.0,85.0,47.0,8.0,-9.0,9.0,1651023949221678.0
-33.0,-20.0,-40.0,-13.0,-19.0,-28.0,-35.0,-36.0,1651023949237371.0
60.0,22.0,-20.0,-25.0,8.0,34.0,96.0,45.0,1651023949237371.0
-58.0,-6.0,-13.0,-26.0,7.0,13.0,-84.0,-9.0,1651023949237371.0
-7.0,-8.0,29.0,-12.0,-32.0,-67.0,-65.0,-65.0,1651023949237371.0
40.0,26.0,44.0,19.0,12.0,-4.0,14.0,32.0,1651023949259030.0
-4.0,-30.0,-10.0,36.0,20.0,14.0,31.0,-2.0,1651023949259030.0
51.0,-3.0,-32.0,7.0,6.0,22.0,127.0,60.0,1651023949259960.0
-15.0,13.0,-79.0,-53.0,10.0,66.0,97.0,59.0,1651023949259960.0
-46.0,-8.0,26.0,8.0,-4.0,-37.0,-106.0,-80.0,1651023949282054.0
-9.0,25.0,0.0,-20.0,-30.0,-54.0,-42.0,-46.0,1651023949282054.0
-10.0,-31.0,28.0,51.0,-3.0,-29.0,53.0,-4.0,1651023949282980.0
41.0,19.0,104.0,38.0,1.0,-12.0,47.0,6.0,1651023949282980.0
7.0,24.0,-35.0,-21.0,1.0,-79.0,45.0,51.0,1651023949296707.0
-11.0,17.0,31.0,17.0,14.0,73.0,-4.0,6.0,1651023949296707.0
5.0,8.0,-66.0,-67.0,3.0,77.0,24.0,-5.0,1651023949296707.0
2.0,-5.0,2.0,2.0,-3.0,1.0,-12.0,-6.0,1651023949296707.0
-7.0,-25.0,-9.0,-21.0,-13.0,-5.0,-24.0,-1.0,1651023949319816.0
-14.0,12.0,80.0,77.0,3.0,-102.0,-14.0,-13.0,1651023949319816.0
-10.0,-16.0,-85.0,-56.0,-21.0,-20.0,-97.0,-8.0,1651023949319816.0
8.0,38.0,-14.0,-27.0,-13.0,-50.0,19.0,11.0,1651023949319816.0
-7.0,-41.0,-46.0,-35.0,-8.0,84.0,28.0,4.0,1651023949341751.0
-18.0,-9.0,-27.0,-21.0,-6.0,7.0,-34.0,-18.0,1651023949341751.0
17.0,10.0,108.0,73.0,4.0,-37.0,6.0,-6.0,1651023949342686.0
-4.0,-14.0,-46.0,5.0,18.0,51.0,30.0,17.0,1651023949342686.0
-8.0,11.0,-33.0,-33.0,-25.0,-58.0,-49.0,-28.0,1651023949356677.0
-7.0,-1.0,-4.0,-6.0,2.0,5.0,25.0,7.0,1651023949356677.0
10.0,17.0,-2.0,-12.0,5.0,32.0,3.0,-4.0,1651023949356677.0
-5.0,1.0,28.0,9.0,-1.0,-24.0,-49.0,-9.0,1651023949356677.0
15.0,-25.0,-18.0,14.0,5.0,25.0,66.0,20.0,1651023949379639.0
-7.0,-14.0,-38.0,-29.0,-8.0,32.0,-22.0,-3.0,1651023949379639.0
-16.0,14.0,32.0,16.0,1.0,-63.0,-40.0,-26.0,1651023949380637.0
-12.0,-20.0,-26.0,-21.0,-16.0,-9.0,-7.0,0.0,1651023949380637.0
22.0,11.0,15.0,-18.0,3.0,48.0,41.0,15.0,1651023949401609.0
-8.0,6.0,30.0,37.0,32.0,57.0,21.0,12.0,1651023949401609.0
1.0,-18.0,-21.0,10.0,0.0,-42.0,-41.0,-6.0,1651023949402578.0
-5.0,-13.0,-42.0,-61.0,-23.0,23.0,-16.0,-25.0,1651023949402578.0
-4.0,4.0,18.0,6.0,1.0,-51.0,-18.0,-8.0,1651023949415571.0
-6.0,-14.0,-25.0,-31.0,-32.0,-16.0,2.0,2.0,1651023949415571.0
20.0,21.0,47.0,16.0,7.0,-11.0,17.0,20.0,1651023949424520.0
-14.0,-12.0,36.0,46.0,26.0,41.0,14.0,-2.0,1651023949424520.0
-2.0,-8.0,-54.0,-34.0,-15.0,-26.0,-7.0,-8.0,1651023949439549.0
-14.0,-11.0,-32.0,-18.0,5.0,-70.0,-10.0,4.0,1651023949439549.0
13.0,12.0,-9.0,-25.0,16.0,103.0,54.0,3.0,1651023949440504.0
5.0,1.0,-14.0,-22.0,-19.0,-66.0,-25.0,5.0,1651023949440504.0
-6.0,-9.0,41.0,50.0,24.0,26.0,11.0,-1.0,1651023949462291.0
-7.0,-16.0,-20.0,6.0,-7.0,-8.0,0.0,-11.0,1651023949462291.0
-2.0,25.0,-5.0,-20.0,-24.0,-47.0,-24.0,-3.0,1651023949463294.0
-25.0,-55.0,-14.0,-3.0,-6.0,-12.0,-16.0,-15.0,1651023949463294.0
18.0,15.0,1.0,5.0,0.0,15.0,13.0,14.0,1651023949475260.0
-18.0,3.0,18.0,2.0,-5.0,1.0,-10.0,-10.0,1651023949475260.0
14.0,-42.0,-41.0,-23.0,2.0,-4.0,-3.0,-5.0,1651023949484836.0
-23.0,31.0,46.0,34.0,17.0,12.0,16.0,5.0,1651023949484836.0
-4.0,-10.0,-39.0,-33.0,-6.0,-6.0,16.0,6.0,1651023949499951.0
7.0,22.0,3.0,-33.0,-22.0,-9.0,-46.0,-17.0,1651023949499951.0
-11.0,-13.0,38.0,69.0,32.0,7.0,8.0,3.0,1651023949500949.0
17.0,1.0,-18.0,-32.0,-17.0,-18.0,-1.0,7.0,1651023949500949.0
9.0,11.0,12.0,0.0,4.0,26.0,12.0,10.0,1651023949521893.0
5.0,4.0,-4.0,0.0,2.0,11.0,24.0,2.0,1651023949521893.0
-10.0,-6.0,-2.0,-6.0,-12.0,-21.0,-15.0,-10.0,1651023949523914.0
5.0,-10.0,-13.0,-11.0,-11.0,-36.0,-14.0,-1.0,1651023949523914.0
4.0,27.0,5.0,18.0,11.0,27.0,18.0,11.0,1651023949535924.0
6.0,-8.0,3.0,2.0,-1.0,-28.0,-21.0,-10.0,1651023949535924.0
