,EMG_s0,EMG_s1,EMG_s2,EMG_s3,EMG_s4,EMG_s5,EMG_s6,EMG_s7,timestamp,signal
0,1.0,0.0,0.0,-1.0,-4.0,-2.0,-1.0,-1.0,1651072023695604.0,0
1,1.0,1.0,-1.0,-2.0,0.0,0.0,0.0,-2.0,1651072023695604.0,0
2,-2.0,1.0,1.0,0.0,0.0,-2.0,1.0,-2.0,1651072023697531.0,0
3,-2.0,0.0,-2.0,-1.0,3.0,1.0,-1.0,-1.0,1651072023697531.0,0
4,2.0,-2.0,0.0,0.0,3.0,1.0,0.0,0.0,1651072023710624.0,0
5,-1.0,-1.0,-3.0,0.0,2.0,0.0,-2.0,1.0,1651072023710624.0,0
6,0.0,-1.0,-1.0,-3.0,-1.0,-2.0,-1.0,-2.0,1651072023716599.0,0
7,-2.0,0.0,-1.0,-2.0,-5.0,-4.0,-1.0,-1.0,1651072023716599.0,0
8,0.0,-2.0,-1.0,0.0,-3.0,-1.0,0.0,0.0,1651072023733091.0,0
9,-1.0,0.0,-3.0,1.0,1.0,1.0,-1.0,0.0,1651072023733091.0,0
10,0.0,-2.0,-2.0,0.0,-1.0,0.0,0.0,-1.0,1651072023735101.0,0
11,0.0,-3.0,-1.0,-1.0,-3.0,-3.0,-1.0,-1.0,1651072023735101.0,0
12,-2.0,0.0,-1.0,0.0,-1.0,0.0,2.0,1.0,1651072023756208.0,0
13,0.0,-1.0,0.0,0.0,1.0,-1.0,-1.0,-1.0,1651072023756208.0,0
14,0.0,1.0,0.0,-1.0,0.0,1.0,-2.0,0.0,1651072023757205.0,0
15,-1.0,-2.0,-2.0,-1.0,-1.0,-1.0,-1.0,1.0,1651072023757205.0,0
16,-1.0,-2.0,-2.0,-1.0,0.0,-1.0,-1.0,-1.0,1651072023770358.0,0
17,-2.0,0.0,0.0,1.0,-1.0,-2.0,-2.0,-2.0,1651072023770358.0,0
18,-1.0,-1.0,0.0,-1.0,-5.0,-1.0,0.0,-1.0,1651072023777339.0,0
19,0.0,0.0,-3.0,1.0,-2.0,-1.0,-1.0,1.0,1651072023777339.0,0
20,-1.0,-1.0,0.0,1.0,1.0,-2.0,-1.0,-1.0,1651072023793614.0,0
21,-1.0,0.0,0.0,2.0,5.0,2.0,1.0,1.0,1651072023793614.0,0
22,0.0,-2.0,-1.0,-2.0,2.0,1.0,0.0,0.0,1651072023795457.0,0
23,1.0,1.0,-1.0,-1.0,-1.0,0.0,0.0,-2.0,1651072023795457.0,0
24,-2.0,0.0,-5.0,-2.0,-6.0,-1.0,-2.0,1.0,1651072023815641.0,0
25,-2.0,-3.0,-1.0,-2.0,-4.0,-3.0,0.0,-1.0,1651072023815641.0,0
26,-1.0,-1.0,-1.0,-1.0,-6.0,-2.0,-1.0,0.0,1651072023817572.0,0
27,-2.0,1.0,0.0,0.0,4.0,-1.0,1.0,-1.0,1651072023817572.0,0
28,0.0,0.0,0.0,2.0,1.0,1.0,-2.0,-2.0,1651072023830644.0,0
29,2.0,-2.0,1.0,-3.0,-2.0,0.0,0.0,-2.0,1651072023830644.0,0
30,-2.0,-2.0,-2.0,0.0,0.0,-1.0,2.0,1.0,1651072023837630.0,0
31,0.0,-1.0,-1.0,-1.0,-4.0,-4.0,1.0,0.0,1651072023837630.0,0
32,0.0,-1.0,1.0,0.0,-2.0,0.0,-1.0,1.0,1651072023853858.0,0
33,-1.0,0.0,0.0,-1.0,-1.0,-3.0,-1.0,0.0,1651072023853858.0,0
34,-1.0,0.0,0.0,-1.0,-4.0,-2.0,-2.0,-3.0,1651072023854857.0,0
35,-2.0,-2.0,0.0,-1.0,2.0,6.0,0.0,1.0,1651072023854857.0,0
36,0.0,-1.0,-2.0,-1.0,0.0,0.0,0.0,-1.0,1651072023875807.0,0
37,-1.0,-1.0,0.0,-1.0,-2.0,0.0,-3.0,0.0,1651072023875807.0,0
38,1.0,1.0,-1.0,-1.0,-1.0,-1.0,-1.0,-1.0,1651072023877758.0,0
39,-1.0,1.0,-1.0,-1.0,-1.0,-1.0,-2.0,-1.0,1651072023877758.0,0
40,-1.0,-1.0,1.0,0.0,-1.0,-1.0,-1.0,-1.0,1651072023889766.0,0
41,-1.0,0.0,-2.0,-1.0,-3.0,-1.0,0.0,-1.0,1651072023889766.0,0
42,0.0,1.0,0.0,1.0,3.0,0.0,0.0,-3.0,1651072023898675.0,0
43,1.0,-1.0,1.0,-1.0,-2.0,1.0,-1.0,0.0,1651072023898675.0,0
44,-1.0,-2.0,-1.0,-2.0,-2.0,-2.0,-1.0,-1.0,1651072023913718.0,0
45,1.0,-1.0,-1.0,1.0,6.0,1.0,0.0,0.0,1651072023913718.0,0
46,-1.0,0.0,-2.0,2.0,6.0,3.0,2.0,1.0,1651072023914725.0,0
47,-1.0,0.0,0.0,-1.0,-1.0,-1.0,1.0,-1.0,1651072023914725.0,0
48,-1.0,0.0,0.0,-2.0,-3.0,-2.0,-1.0,0.0,1651072023935591.0,0
49,-2.0,0.0,0.0,0.0,-1.0,-3.0,0.0,-1.0,1651072023935591.0,0
50,0.0,1.0,-1.0,-1.0,1.0,0.0,-2.0,2.0,1651072023937589.0,0
51,0.0,-1.0,2.0,1.0,-2.0,-3.0,0.0,0.0,1651072023937589.0,0
52,0.0,-4.0,0.0,1.0,0.0,-1.0,-1.0,-2.0,1651072023949623.0,0
53,0.0,-2.0,-1.0,-2.0,-1.0,0.0,-2.0,0.0,1651072023949623.0,0
54,-1.0,-2.0,-1.0,-2.0,-3.0,-2.0,0.0,-2.0,1651072023958533.0,0
55,1.0,0.0,-2.0,1.0,11.0,4.0,0.0,1.0,1651072023958533.0,0
56,-1.0,-1.0,-1.0,0.0,-1.0,-2.0,0.0,1.0,1651072023972737.0,0
57,0.0,1.0,-1.0,-1.0,-1.0,1.0,1.0,0.0,1651072023972737.0,0
58,1.0,-1.0,-1.0,0.0,-3.0,-1.0,0.0,0.0,1651072023980745.0,0
59,-1.0,0.0,0.0,-1.0,-4.0,-3.0,-3.0,-3.0,1651072023980745.0,0
60,0.0,1.0,0.0,1.0,-1.0,1.0,0.0,0.0,1651072023995737.0,0
61,-2.0,-1.0,-1.0,0.0,-4.0,-1.0,0.0,1.0,1651072023995737.0,0
62,-1.0,0.0,1.0,-1.0,-1.0,0.0,-1.0,0.0,1651072023997663.0,0
63,0.0,1.0,-2.0,1.0,4.0,1.0,0.0,0.0,1651072023997663.0,0
64,-1.0,1.0,0.0,-1.0,2.0,2.0,0.0,0.0,1651072024009698.0,0
65,1.0,-1.0,-1.0,-1.0,-2.0,-1.0,-2.0,-3.0,1651072024009698.0,0
66,0.0,-1.0,-1.0,-1.0,-4.0,0.0,0.0,-1.0,1651072024018606.0,0
67,-3.0,0.0,-1.0,1.0,-5.0,-2.0,0.0,0.0,1651072024018606.0,0
68,-1.0,-2.0,-2.0,0.0,1.0,0.0,-1.0,-1.0,1651072024033681.0,0
69,-1.0,0.0,0.0,-1.0,-3.0,-2.0,-2.0,-2.0,1651072024033681.0,0
70,-1.0,-1.0,-1.0,0.0,-3.0,-3.0,-1.0,1.0,1651072024034679.0,0
71,-2.0,-2.0,-2.0,1.0,4.0,0.0,-1.0,0.0,1651072024034679.0,0
72,1.0,0.0,2.0,0.0,-1.0,1.0,1.0,0.0,1651072024055686.0,0
73,0.0,0.0,1.0,0.0,1.0,1.0,0.0,0.0,1651072024055686.0,0
74,-1.0,-2.0,-1.0,0.0,2.0,0.0,-1.0,-2.0,1651072024057620.0,0
75,1.0,0.0,-2.0,-2.0,-5.0,-3.0,-2.0,0.0,1651072024057620.0,0
76,1.0,0.0,-2.0,-1.0,-2.0,-2.0,-2.0,-1.0,1651072024070087.0,0
77,0.0,-1.0,-1.0,-1.0,-4.0,0.0,0.0,-1.0,1651072024070087.0,0
78,-1.0,-2.0,0.0,-2.0,1.0,0.0,-1.0,-1.0,1651072024079065.0,0
79,-2.0,-1.0,1.0,-1.0,-2.0,0.0,-1.0,-1.0,1651072024079065.0,0
80,0.0,-1.0,-1.0,-1.0,8.0,1.0,1.0,0.0,1651072024093114.0,0
81,-1.0,2.0,-1.0,0.0,2.0,1.0,2.0,0.0,1651072024093114.0,0
82,0.0,1.0,0.0,0.0,-1.0,0.0,0.0,-1.0,1651072024095124.0,0
83,-1.0,-2.0,0.0,0.0,-4.0,-2.0,-2.0,0.0,1651072024095124.0,0
84,-1.0,0.0,-1.0,-1.0,-4.0,-2.0,1.0,1.0,1651072024116482.0,0
85,-1.0,-3.0,0.0,-2.0,0.0,-2.0,-1.0,1.0,1651072024116482.0,0
86,0.0,-1.0,0.0,0.0,-2.0,0.0,-2.0,-1.0,1651072024117422.0,0
87,0.0,0.0,-1.0,-1.0,-2.0,-2.0,-2.0,-2.0,1651072024117422.0,0
88,0.0,-1.0,-1.0,1.0,-1.0,-2.0,-2.0,-1.0,1651072024130093.0,0
89,0.0,-1.0,-2.0,0.0,0.0,1.0,-1.0,0.0,1651072024130093.0,0
90,-1.0,1.0,1.0,0.0,0.0,1.0,-1.0,1.0,1651072024138140.0,0
91,1.0,-1.0,-1.0,0.0,-2.0,-2.0,0.0,-1.0,1651072024138140.0,0
92,-3.0,-1.0,1.0,-1.0,-1.0,-2.0,0.0,0.0,1651072024153621.0,0
93,-2.0,-2.0,0.0,0.0,1.0,-1.0,-1.0,-3.0,1651072024153621.0,0
94,-2.0,0.0,0.0,0.0,3.0,1.0,0.0,0.0,1651072024155122.0,0
95,1.0,2.0,1.0,-2.0,-3.0,-2.0,1.0,1.0,1651072024155122.0,0
96,1.0,1.0,0.0,0.0,-1.0,1.0,0.0,1.0,1651072024176093.0,0
97,0.0,-1.0,0.0,-2.0,-4.0,0.0,-1.0,1.0,1651072024176093.0,0
98,-1.0,-1.0,-1.0,0.0,7.0,0.0,-1.0,0.0,1651072024178021.0,0
99,-1.0,-3.0,1.0,-2.0,-1.0,-2.0,-1.0,-2.0,1651072024178021.0,0
100,-1.0,0.0,-1.0,0.0,1.0,0.0,-2.0,-1.0,1651072024190001.0,0
101,-1.0,0.0,0.0,-2.0,-2.0,1.0,-1.0,0.0,1651072024190001.0,0
102,1.0,-2.0,-2.0,0.0,-1.0,-1.0,-1.0,-1.0,1651072024198965.0,0
103,-1.0,1.0,-1.0,0.0,-2.0,-2.0,0.0,0.0,1651072024198965.0,0
104,0.0,-1.0,0.0,-1.0,-4.0,-1.0,0.0,-1.0,1651072024213685.0,0
105,1.0,0.0,1.0,1.0,7.0,-1.0,-1.0,-1.0,1651072024213685.0,0
106,0.0,-2.0,-2.0,0.0,-3.0,0.0,-1.0,-1.0,1651072024214697.0,0
107,-1.0,1.0,1.0,0.0,0.0,-1.0,-1.0,0.0,1651072024214697.0,0
108,-2.0,0.0,0.0,-1.0,-4.0,-1.0,-2.0,-3.0,1651072024235743.0,0
109,-1.0,1.0,-3.0,-1.0,-1.0,-1.0,0.0,-2.0,1651072024235743.0,0
110,0.0,-2.0,0.0,-2.0,1.0,0.0,0.0,0.0,1651072024237694.0,0
111,1.0,-1.0,-1.0,-3.0,-1.0,-1.0,1.0,-1.0,1651072024237694.0,0
112,0.0,1.0,2.0,-3.0,-1.0,-1.0,-1.0,0.0,1651072024250004.0,0
113,3.0,-1.0,-1.0,1.0,0.0,1.0,-1.0,1.0,1651072024250004.0,0
114,-1.0,1.0,-1.0,-2.0,-4.0,-3.0,-2.0,-2.0,1651072024258696.0,0
115,0.0,-1.0,-1.0,0.0,-2.0,1.0,0.0,-1.0,1651072024258696.0,0
116,-1.0,0.0,-1.0,0.0,0.0,1.0,-1.0,0.0,1651072024273683.0,0
117,-1.0,-1.0,-1.0,-1.0,0.0,-2.0,0.0,-1.0,1651072024273683.0,0
118,-1.0,0.0,0.0,0.0,-5.0,-1.0,0.0,0.0,1651072024274697.0,0
119,-1.0,-1.0,-1.0,1.0,-1.0,2.0,1.0,0.0,1651072024274697.0,0
120,-2.0,-4.0,-2.0,0.0,-3.0,-2.0,-2.0,-2.0,1651072024295781.0,0
121,2.0,-1.0,1.0,-1.0,-5.0,-1.0,-1.0,1.0,1651072024295781.0,0
122,-1.0,-1.0,-2.0,1.0,8.0,1.0,1.0,-1.0,1651072024302565.0,0
123,-2.0,-1.0,-2.0,-2.0,0.0,1.0,-1.0,-1.0,1651072024302565.0,0
124,0.0,0.0,-1.0,1.0,-1.0,-1.0,0.0,0.0,1651072024318441.0,0
125,-1.0,-2.0,0.0,-1.0,-6.0,-4.0,-1.0,0.0,1651072024318441.0,0
126,-1.0,0.0,-1.0,-1.0,-1.0,1.0,0.0,0.0,1651072024320436.0,0
127,1.0,0.0,-2.0,0.0,4.0,-2.0,0.0,0.0,1651072024320436.0,0
128,0.0,-3.0,-5.0,-1.0,-2.0,0.0,1.0,1.0,1651072024341425.0,0
129,0.0,-1.0,0.0,-2.0,-1.0,-2.0,0.0,-2.0,1651072024341425.0,0
130,1.0,0.0,1.0,1.0,7.0,4.0,0.0,-1.0,1651072024342389.0,0
131,-1.0,-1.0,1.0,0.0,-5.0,-2.0,-2.0,0.0,1651072024342389.0,0
132,-1.0,0.0,-1.0,0.0,3.0,0.0,-2.0,2.0,1651072024355409.0,0
133,-2.0,2.0,-1.0,1.0,4.0,1.0,0.0,-1.0,1651072024355409.0,0
134,2.0,-1.0,-2.0,0.0,-7.0,-4.0,0.0,1.0,1651072024362391.0,0
135,-1.0,-1.0,-1.0,-4.0,-4.0,-1.0,0.0,-1.0,1651072024362391.0,0
136,1.0,0.0,0.0,-1.0,3.0,0.0,1.0,-1.0,1651072024378606.0,0
137,-2.0,-2.0,0.0,0.0,3.0,-1.0,0.0,0.0,1651072024378606.0,0
138,-2.0,-1.0,-1.0,-1.0,-2.0,-1.0,-1.0,-2.0,1651072024379574.0,0
139,-2.0,-1.0,0.0,-1.0,-1.0,1.0,0.0,0.0,1651072024379574.0,0
140,-2.0,-1.0,-1.0,-2.0,-2.0,-2.0,1.0,-1.0,1651072024400624.0,0
141,0.0,-1.0,-2.0,-1.0,1.0,0.0,0.0,-1.0,1651072024400624.0,0
142,-1.0,0.0,1.0,-1.0,-3.0,0.0,0.0,-1.0,1651072024402621.0,0
143,1.0,-1.0,-3.0,0.0,1.0,-1.0,0.0,-2.0,1651072024402621.0,0
144,-1.0,0.0,0.0,2.0,-1.0,2.0,0.0,-2.0,1651072024414648.0,0
145,-2.0,0.0,-1.0,-1.0,-1.0,0.0,-2.0,-1.0,1651072024414648.0,0
146,0.0,-1.0,-1.0,1.0,5.0,3.0,0.0,1.0,1651072024423565.0,0
147,0.0,-2.0,-1.0,0.0,0.0,0.0,-2.0,-2.0,1651072024423565.0,0
148,-2.0,-1.0,-1.0,-1.0,-1.0,-2.0,0.0,1.0,1651072024438584.0,0
149,-1.0,-1.0,-2.0,-3.0,-2.0,1.0,0.0,0.0,1651072024438584.0,0
150,1.0,0.0,1.0,-2.0,-5.0,-3.0,-2.0,-2.0,1651072024440520.0,0
151,-1.0,-2.0,2.0,-1.0,-1.0,-1.0,2.0,0.0,1651072024440520.0,0
152,-2.0,0.0,0.0,0.0,-4.0,-1.0,-1.0,-2.0,1651072024460466.0,0
153,-1.0,0.0,0.0,-2.0,-2.0,-1.0,0.0,0.0,1651072024460466.0,0
154,-2.0,1.0,-2.0,-1.0,2.0,-1.0,0.0,0.0,1651072024462464.0,0
155,2.0,1.0,1.0,0.0,2.0,1.0,0.0,-1.0,1651072024462464.0,0
156,1.0,0.0,-1.0,-1.0,-1.0,-4.0,-2.0,-2.0,1651072024474503.0,0
157,0.0,-1.0,-2.0,-1.0,-3.0,-1.0,1.0,1.0,1651072024474503.0,0
158,0.0,-3.0,-1.0,-1.0,-4.0,1.0,1.0,0.0,1651072024483254.0,0
159,-1.0,0.0,2.0,-2.0,0.0,-2.0,-2.0,-2.0,1651072024483254.0,0
160,-1.0,0.0,0.0,1.0,2.0,2.0,-2.0,1.0,1651072024498359.0,0
161,0.0,0.0,0.0,1.0,5.0,2.0,-1.0,0.0,1651072024498359.0,0
162,-3.0,-1.0,0.0,-3.0,-4.0,-2.0,-1.0,0.0,1651072024500316.0,0
163,0.0,-1.0,-4.0,-1.0,4.0,0.0,0.0,0.0,1651072024500316.0,0
164,-1.0,-3.0,-1.0,-2.0,-3.0,0.0,0.0,-1.0,1651072024520520.0,0
165,-2.0,-1.0,-1.0,1.0,-5.0,-4.0,1.0,-1.0,1651072024520520.0,0
166,0.0,-2.0,0.0,-1.0,1.0,-1.0,0.0,0.0,1651072024522517.0,0
167,-4.0,0.0,-2.0,0.0,-1.0,-2.0,-1.0,1.0,1651072024522517.0,0
168,0.0,-1.0,-1.0,0.0,2.0,-3.0,0.0,0.0,1651072024534393.0,0
169,0.0,0.0,-2.0,-1.0,1.0,0.0,0.0,0.0,1651072024534393.0,0
170,0.0,0.0,0.0,-2.0,-1.0,2.0,0.0,-1.0,1651072024543267.0,0
171,0.0,1.0,-1.0,-1.0,-2.0,-3.0,1.0,0.0,1651072024543267.0,0
172,-3.0,0.0,-1.0,-1.0,1.0,0.0,2.0,1.0,1651072024566405.0,0
173,-1.0,1.0,1.0,-1.0,0.0,-1.0,0.0,-1.0,1651072024566405.0,0
174,0.0,1.0,1.0,-1.0,-1.0,-3.0,-3.0,-2.0,1651072024567325.0,0
175,0.0,-2.0,-3.0,-1.0,0.0,0.0,-2.0,0.0,1651072024567325.0,0
176,0.0,-2.0,-3.0,0.0,3.0,1.0,0.0,-1.0,1651072024581399.0,0
177,0.0,-2.0,-1.0,-1.0,-1.0,-1.0,-2.0,0.0,1651072024581399.0,0
178,0.0,0.0,0.0,-2.0,1.0,0.0,0.0,1.0,1651072024582411.0,0
179,0.0,0.0,-1.0,-1.0,0.0,-1.0,-1.0,-1.0,1651072024582411.0,0
180,1.0,0.0,1.0,1.0,-3.0,-1.0,-1.0,-1.0,1651072024594435.0,0
181,-1.0,-1.0,0.0,0.0,-1.0,2.0,0.0,0.0,1651072024594435.0,0
182,-1.0,-3.0,-1.0,2.0,-1.0,-1.0,0.0,0.0,1651072024603343.0,0
183,-1.0,0.0,0.0,-1.0,3.0,0.0,-1.0,0.0,1651072024603343.0,0
184,-2.0,-1.0,1.0,-1.0,2.0,2.0,0.0,-1.0,1651072024618694.0,0
185,0.0,2.0,-2.0,-3.0,0.0,-1.0,0.0,0.0,1651072024618694.0,0
186,-1.0,-1.0,-4.0,0.0,-6.0,-1.0,0.0,-1.0,1651072024619663.0,0
187,-1.0,-1.0,2.0,1.0,-2.0,-1.0,1.0,-1.0,1651072024619663.0,0
188,-1.0,-2.0,-8.0,-2.0,-1.0,0.0,0.0,0.0,1651072024640519.0,0
189,-1.0,1.0,5.0,2.0,-3.0,-1.0,0.0,0.0,1651072024640519.0,0
190,0.0,2.0,-2.0,-6.0,-2.0,-3.0,-1.0,0.0,1651072024642511.0,0
191,0.0,2.0,1.0,0.0,-3.0,0.0,-1.0,1.0,1651072024642511.0,0
192,-1.0,-5.0,-4.0,2.0,1.0,-3.0,-1.0,-1.0,1651072024654610.0,0
193,-10.0,0.0,-7.0,-1.0,2.0,1.0,-1.0,-1.0,1651072024654610.0,0
194,9.0,14.0,17.0,5.0,0.0,-1.0,0.0,2.0,1651072024663672.0,0
195,1.0,-11.0,-40.0,-8.0,-4.0,0.0,0.0,-3.0,1651072024663672.0,0
196,2.0,-5.0,-2.0,-10.0,-7.0,-4.0,-2.0,-2.0,1651072024678826.0,1
197,7.0,2.0,5.0,11.0,2.0,0.0,-2.0,2.0,1651072024678826.0,1
198,-23.0,-12.0,-14.0,-1.0,3.0,0.0,-2.0,-4.0,1651072024679761.0,1
199,23.0,20.0,59.0,19.0,0.0,-1.0,-3.0,8.0,1651072024679761.0,1
200,-2.0,1.0,10.0,5.0,6.0,7.0,3.0,-5.0,1651072024701338.0,1
201,-9.0,-36.0,-92.0,-52.0,-19.0,-10.0,-2.0,0.0,1651072024701338.0,1
202,18.0,2.0,4.0,4.0,-2.0,-5.0,-5.0,-8.0,1651072024702635.0,1
203,-51.0,13.0,18.0,4.0,-5.0,-6.0,-7.0,-12.0,1651072024702635.0,1
204,79.0,-13.0,26.0,8.0,2.0,0.0,1.0,14.0,1651072024714762.0,1
205,36.0,11.0,24.0,-28.0,18.0,9.0,3.0,12.0,1651072024714762.0,1
206,-75.0,-18.0,-31.0,34.0,-7.0,0.0,2.0,-15.0,1651072024730703.0,1
207,-51.0,-14.0,-17.0,-51.0,-25.0,-13.0,-5.0,-10.0,1651072024730703.0,1
208,54.0,-12.0,-4.0,43.0,9.0,0.0,1.0,9.0,1651072024738666.0,1
209,36.0,-1.0,13.0,25.0,11.0,6.0,1.0,1.0,1651072024738666.0,1
210,85.0,6.0,28.0,2.0,10.0,2.0,-2.0,3.0,1651072024739604.0,1
211,-78.0,-12.0,-36.0,-1.0,0.0,-2.0,0.0,-9.0,1651072024739604.0,1
212,-30.0,13.0,59.0,3.0,-19.0,-10.0,-7.0,-12.0,1651072024761387.0,1
213,-40.0,-37.0,6.0,-6.0,-12.0,-2.0,5.0,11.0,1651072024761387.0,1
214,40.0,-7.0,-37.0,2.0,5.0,3.0,-1.0,-6.0,1651072024762392.0,1
215,34.0,-32.0,23.0,19.0,23.0,8.0,3.0,8.0,1651072024762392.0,1
216,-34.0,-10.0,-7.0,-5.0,-14.0,-11.0,-3.0,-1.0,1651072024774356.0,1
217,-42.0,-21.0,-9.0,11.0,10.0,3.0,1.0,-5.0,1651072024774356.0,1
218,20.0,12.0,-16.0,-63.0,-10.0,-1.0,1.0,9.0,1651072024783354.0,1
219,28.0,-1.0,24.0,-10.0,7.0,5.0,-3.0,-1.0,1651072024783354.0,1
220,-26.0,16.0,-32.0,60.0,0.0,7.0,4.0,0.0,1651072024797424.0,1
221,19.0,14.0,18.0,-34.0,5.0,0.0,4.0,12.0,1651072024797424.0,1
222,-35.0,-27.0,-49.0,-25.0,-9.0,-5.0,-3.0,-7.0,1651072024804407.0,1
223,43.0,5.0,33.0,48.0,7.0,2.0,2.0,-4.0,1651072024804407.0,1
224,-34.0,35.0,16.0,10.0,9.0,-2.0,-2.0,-6.0,1651072024820510.0,1
225,-1.0,-12.0,-28.0,27.0,-16.0,-9.0,-5.0,-9.0,1651072024820510.0,1
226,-16.0,19.0,32.0,13.0,20.0,1.0,1.0,8.0,1651072024822520.0,1
227,32.0,5.0,-22.0,-43.0,-7.0,-1.0,-1.0,-2.0,1651072024822520.0,1
228,3.0,11.0,-3.0,17.0,-16.0,-4.0,-2.0,-3.0,1651072024843714.0,1
229,-17.0,19.0,19.0,27.0,10.0,-3.0,-3.0,-10.0,1651072024843714.0,1
230,49.0,3.0,20.0,-12.0,-10.0,1.0,1.0,5.0,1651072024844714.0,1
231,-28.0,1.0,-24.0,17.0,4.0,-1.0,-4.0,1.0,1651072024844714.0,1
232,16.0,-35.0,-24.0,-36.0,12.0,6.0,1.0,-10.0,1651072024857738.0,1
233,11.0,-3.0,-40.0,-31.0,-16.0,-7.0,-6.0,-5.0,1651072024857738.0,1
234,28.0,-18.0,37.0,49.0,8.0,4.0,3.0,10.0,1651072024864720.0,1
235,-10.0,19.0,16.0,81.0,6.0,6.0,4.0,2.0,1651072024864720.0,1
236,51.0,-18.0,-42.0,-124.0,-2.0,-1.0,-1.0,5.0,1651072024880617.0,1
237,-21.0,16.0,29.0,65.0,-2.0,-4.0,-5.0,-5.0,1651072024880617.0,1
238,-57.0,-3.0,-2.0,-18.0,-12.0,0.0,0.0,-5.0,1651072024882554.0,1
239,9.0,7.0,15.0,73.0,8.0,4.0,3.0,-1.0,1651072024882554.0,1
240,-9.0,-10.0,-33.0,-41.0,4.0,-2.0,-6.0,-2.0,1651072024903930.0,1
241,-16.0,2.0,-5.0,-31.0,-6.0,0.0,0.0,-5.0,1651072024903930.0,1
242,16.0,4.0,-25.0,8.0,-2.0,-3.0,-1.0,4.0,1651072024904926.0,1
243,15.0,-6.0,50.0,-17.0,-14.0,-2.0,6.0,14.0,1651072024904926.0,1
244,-46.0,-1.0,-1.0,32.0,14.0,4.0,-1.0,-9.0,1651072024917958.0,1
245,-82.0,16.0,20.0,31.0,1.0,0.0,0.0,-5.0,1651072024917958.0,1
246,20.0,0.0,5.0,-36.0,-2.0,1.0,3.0,4.0,1651072024925016.0,1
247,-3.0,-25.0,-41.0,-49.0,-17.0,-9.0,-4.0,0.0,1651072024925016.0,1
248,-17.0,-17.0,11.0,37.0,10.0,4.0,2.0,9.0,1651072024940970.0,1
249,22.0,21.0,32.0,-36.0,3.0,3.0,1.0,-11.0,1651072024940970.0,1
250,32.0,11.0,25.0,59.0,2.0,-3.0,-3.0,-3.0,1651072024942904.0,1
251,27.0,-8.0,-51.0,-19.0,-2.0,-4.0,-4.0,1.0,1651072024942904.0,1
252,5.0,11.0,-35.0,-74.0,-17.0,-3.0,-1.0,-4.0,1651072024963883.0,1
253,25.0,20.0,35.0,5.0,8.0,4.0,1.0,3.0,1651072024963883.0,1
254,-38.0,-18.0,-5.0,35.0,0.0,-4.0,-3.0,-4.0,1651072024964885.0,1
255,9.0,8.0,-9.0,-1.0,2.0,-1.0,-3.0,-4.0,1651072024964885.0,1
256,-33.0,-21.0,0.0,4.0,-3.0,0.0,3.0,4.0,1651072024978847.0,1
257,46.0,11.0,9.0,40.0,1.0,1.0,1.0,3.0,1651072024978847.0,1
258,-29.0,-4.0,-29.0,-73.0,-13.0,-4.0,0.0,-1.0,1651072024985835.0,1
259,38.0,15.0,6.0,36.0,15.0,5.0,2.0,1.0,1651072024985835.0,1
260,-12.0,8.0,20.0,-10.0,-4.0,1.0,0.0,-1.0,1651072025000975.0,1
261,22.0,-5.0,-4.0,18.0,6.0,1.0,1.0,9.0,1651072025000975.0,1
262,-19.0,9.0,29.0,-21.0,6.0,5.0,4.0,5.0,1651072025006963.0,1
263,-32.0,-6.0,-27.0,14.0,-2.0,-4.0,-3.0,-4.0,1651072025006963.0,1
264,6.0,7.0,-15.0,-23.0,-5.0,-6.0,-7.0,-11.0,1651072025023854.0,1
265,3.0,-13.0,-30.0,-58.0,-12.0,-4.0,-4.0,-1.0,1651072025023854.0,1
266,55.0,6.0,5.0,-4.0,-1.0,0.0,-2.0,7.0,1651072025024869.0,1
267,64.0,21.0,24.0,20.0,9.0,5.0,3.0,-3.0,1651072025024869.0,1
268,23.0,-2.0,-10.0,-70.0,-17.0,-5.0,-3.0,5.0,1651072025037880.0,1
269,-45.0,-8.0,18.0,23.0,6.0,-3.0,0.0,-1.0,1651072025037880.0,1
270,-32.0,11.0,17.0,-8.0,7.0,1.0,1.0,-2.0,1651072025044861.0,1
271,23.0,-14.0,-14.0,-21.0,-13.0,-4.0,-2.0,2.0,1651072025044861.0,1
272,28.0,19.0,3.0,33.0,-1.0,2.0,2.0,4.0,1651072025061376.0,1
273,30.0,8.0,6.0,-17.0,-12.0,-4.0,-3.0,0.0,1651072025061376.0,1
274,-8.0,12.0,-6.0,55.0,9.0,-2.0,-1.0,-7.0,1651072025062626.0,1
275,-29.0,11.0,11.0,-29.0,0.0,3.0,-1.0,3.0,1651072025062626.0,1
276,-2.0,12.0,19.0,30.0,5.0,3.0,1.0,4.0,1651072025083680.0,1
277,-21.0,-26.0,-14.0,-19.0,2.0,2.0,-1.0,-8.0,1651072025083680.0,1
278,-21.0,3.0,-44.0,30.0,-12.0,-5.0,-2.0,-2.0,1651072025084727.0,1
279,-33.0,-3.0,-11.0,-91.0,-4.0,3.0,5.0,6.0,1651072025084727.0,1
280,-25.0,-12.0,0.0,27.0,-7.0,-6.0,-3.0,-3.0,1651072025097708.0,1
281,-16.0,4.0,-9.0,-10.0,2.0,-1.0,-3.0,-2.0,1651072025097708.0,1
282,-20.0,-1.0,30.0,44.0,0.0,-8.0,-6.0,-2.0,1651072025104693.0,1
283,2.0,-1.0,-3.0,-4.0,-3.0,2.0,0.0,-1.0,1651072025104693.0,1
284,-49.0,5.0,-3.0,-36.0,1.0,2.0,2.0,-3.0,1651072025121328.0,1
285,19.0,-17.0,-11.0,56.0,1.0,-3.0,-4.0,4.0,1651072025121328.0,1
286,15.0,17.0,-9.0,-31.0,-2.0,2.0,1.0,-10.0,1651072025122615.0,1
287,-36.0,-8.0,33.0,40.0,5.0,2.0,2.0,4.0,1651072025122615.0,1
288,28.0,10.0,2.0,-6.0,-9.0,-4.0,-2.0,-2.0,1651072025143583.0,1
289,83.0,-5.0,-14.0,-5.0,1.0,0.0,-1.0,3.0,1651072025143583.0,1
290,-14.0,-9.0,-3.0,13.0,1.0,2.0,-1.0,1.0,1651072025144539.0,1
291,-6.0,2.0,9.0,-1.0,3.0,0.0,0.0,-2.0,1651072025144539.0,1
292,27.0,10.0,-7.0,-10.0,-7.0,1.0,-2.0,1.0,1651072025157592.0,1
293,14.0,-7.0,-6.0,-10.0,2.0,2.0,4.0,3.0,1651072025157592.0,1
294,-18.0,-7.0,5.0,0.0,0.0,-2.0,-2.0,1.0,1651072025172528.0,1
295,31.0,5.0,3.0,-9.0,-3.0,-3.0,-2.0,-7.0,1651072025172528.0,1
296,11.0,-6.0,-4.0,6.0,6.0,0.0,1.0,4.0,1651072025180551.0,1
297,-6.0,1.0,2.0,20.0,0.0,1.0,-1.0,-5.0,1651072025180551.0,1
298,-55.0,1.0,-1.0,15.0,1.0,1.0,1.0,0.0,1651072025182484.0,1
299,17.0,-1.0,-8.0,-28.0,-6.0,-4.0,-1.0,-1.0,1651072025182484.0,1
300,19.0,-9.0,-7.0,-10.0,7.0,1.0,2.0,7.0,1651072025203423.0,1
301,9.0,17.0,28.0,17.0,2.0,3.0,1.0,-3.0,1651072025203423.0,1
302,5.0,-14.0,-9.0,-34.0,-2.0,5.0,2.0,10.0,1651072025205418.0,1
303,-60.0,0.0,-2.0,17.0,10.0,1.0,3.0,-6.0,1651072025205418.0,1
304,-2.0,19.0,-3.0,17.0,-11.0,-5.0,-1.0,-3.0,1651072025217452.0,1
305,-43.0,-6.0,6.0,-22.0,-3.0,-1.0,0.0,-1.0,1651072025217452.0,1
306,19.0,-22.0,-7.0,21.0,-7.0,-6.0,-2.0,-2.0,1651072025224433.0,1
307,48.0,23.0,-15.0,-32.0,3.0,4.0,3.0,1.0,1651072025224433.0,1
308,-41.0,-15.0,19.0,11.0,6.0,1.0,-2.0,-4.0,1651072025241349.0,1
309,-43.0,-10.0,-20.0,16.0,-3.0,0.0,-1.0,0.0,1651072025241349.0,1
310,-15.0,2.0,-5.0,-24.0,9.0,0.0,-1.0,-3.0,1651072025242656.0,1
311,-66.0,-25.0,-5.0,-9.0,-12.0,-2.0,-2.0,-2.0,1651072025242656.0,1
312,-34.0,3.0,13.0,19.0,1.0,3.0,1.0,-7.0,1651072025263619.0,1
313,-4.0,-6.0,1.0,10.0,4.0,-2.0,-4.0,-4.0,1651072025263619.0,1
314,15.0,-4.0,-2.0,-19.0,-4.0,0.0,3.0,4.0,1651072025264572.0,1
315,31.0,6.0,-25.0,-20.0,-7.0,-3.0,-4.0,-10.0,1651072025264572.0,1
316,2.0,1.0,27.0,13.0,10.0,4.0,0.0,4.0,1651072025277612.0,1
317,-6.0,28.0,-11.0,-18.0,-3.0,-1.0,0.0,4.0,1651072025277612.0,1
318,19.0,4.0,24.0,16.0,4.0,0.0,0.0,-3.0,1651072025286535.0,1
319,14.0,-2.0,-36.0,-37.0,-8.0,-4.0,-2.0,0.0,1651072025286535.0,1
320,0.0,-3.0,27.0,45.0,10.0,3.0,4.0,0.0,1651072025300605.0,1
321,-30.0,-2.0,7.0,34.0,-3.0,-6.0,-5.0,-6.0,1651072025300605.0,1
322,24.0,-6.0,-17.0,8.0,4.0,-1.0,-1.0,-1.0,1651072025302603.0,1
323,-15.0,7.0,13.0,-25.0,-9.0,1.0,-1.0,7.0,1651072025302603.0,1
324,26.0,-16.0,-29.0,-11.0,-12.0,-3.0,-2.0,2.0,1651072025323707.0,1
325,-1.0,11.0,2.0,-8.0,2.0,1.0,1.0,-2.0,1651072025323707.0,1
326,-38.0,11.0,-5.0,-30.0,-4.0,-1.0,-1.0,-3.0,1651072025324702.0,1
327,18.0,-15.0,44.0,55.0,7.0,-1.0,0.0,3.0,1651072025324702.0,1
328,-31.0,-6.0,-31.0,0.0,5.0,-1.0,-2.0,-8.0,1651072025336661.0,1
329,-3.0,10.0,3.0,-14.0,-7.0,-3.0,-1.0,-2.0,1651072025336661.0,1
330,10.0,15.0,7.0,-1.0,-6.0,1.0,-1.0,-1.0,1651072025345704.0,1
331,8.0,-11.0,-6.0,33.0,10.0,1.0,0.0,3.0,1651072025345704.0,1
332,-11.0,8.0,18.0,1.0,8.0,-3.0,-1.0,-7.0,1651072025359599.0,1
333,0.0,-18.0,-37.0,-14.0,-8.0,-1.0,0.0,1.0,1651072025359599.0,1
334,-2.0,14.0,23.0,-56.0,-4.0,1.0,-1.0,-2.0,1651072025368575.0,1
335,39.0,0.0,-9.0,58.0,8.0,1.0,-1.0,1.0,1651072025368575.0,1
336,3.0,23.0,10.0,-31.0,-6.0,0.0,2.0,7.0,1651072025383601.0,1
337,-3.0,-10.0,-5.0,27.0,9.0,1.0,0.0,-3.0,1651072025383601.0,1
338,-5.0,-8.0,-4.0,-40.0,-9.0,1.0,0.0,0.0,1651072025385536.0,1
339,-51.0,-17.0,-4.0,19.0,-7.0,-5.0,-4.0,-6.0,1651072025385536.0,1
340,34.0,7.0,-9.0,18.0,5.0,3.0,1.0,5.0,1651072025397536.0,1
341,-14.0,1.0,25.0,-35.0,0.0,2.0,0.0,1.0,1651072025397536.0,1
342,21.0,1.0,-7.0,6.0,2.0,0.0,2.0,3.0,1651072025406563.0,1
343,1.0,11.0,-20.0,-42.0,-6.0,-2.0,-3.0,-4.0,1651072025406563.0,1
344,4.0,-4.0,-1.0,-5.0,-2.0,1.0,-1.0,-1.0,1651072025420576.0,1
345,-13.0,5.0,3.0,9.0,3.0,2.0,1.0,-1.0,1651072025420576.0,1
346,29.0,3.0,4.0,27.0,-1.0,-4.0,-2.0,0.0,1651072025422573.0,1
347,5.0,12.0,-3.0,-19.0,-5.0,-3.0,0.0,-1.0,1651072025422573.0,1
348,-34.0,-20.0,-4.0,8.0,1.0,0.0,0.0,-1.0,1651072025451374.0,1
349,13.0,0.0,2.0,-12.0,0.0,1.0,-1.0,-1.0,1651072025451374.0,1
350,-6.0,4.0,-26.0,5.0,3.0,1.0,1.0,1.0,1651072025452627.0,1
351,11.0,-20.0,4.0,17.0,7.0,-2.0,0.0,-3.0,1651072025452627.0,1
352,7.0,-3.0,13.0,-27.0,-11.0,-1.0,1.0,2.0,1651072025456644.0,1
353,15.0,10.0,-12.0,16.0,-3.0,-5.0,-2.0,-3.0,1651072025456644.0,1
354,-54.0,-11.0,11.0,1.0,-7.0,-3.0,-4.0,-2.0,1651072025466645.0,1
355,-5.0,-3.0,-29.0,-18.0,-2.0,1.0,0.0,0.0,1651072025466645.0,1
356,13.0,-1.0,8.0,29.0,5.0,0.0,-2.0,-1.0,1651072025481685.0,1
357,-4.0,0.0,-3.0,-37.0,-2.0,0.0,1.0,1.0,1651072025481685.0,1
358,15.0,-6.0,4.0,5.0,-1.0,1.0,-1.0,-3.0,1651072025482697.0,1
359,19.0,18.0,5.0,31.0,8.0,2.0,2.0,5.0,1651072025482697.0,1
360,-17.0,-4.0,2.0,0.0,-2.0,-3.0,0.0,-2.0,1651072025503802.0,1
361,6.0,4.0,3.0,-6.0,-6.0,-2.0,-1.0,1.0,1651072025503802.0,1
362,3.0,-16.0,-18.0,1.0,-3.0,-2.0,-1.0,-4.0,1651072025504796.0,1
363,-5.0,6.0,-1.0,-27.0,-1.0,0.0,0.0,1.0,1651072025504796.0,1
364,-1.0,13.0,2.0,54.0,14.0,-2.0,-3.0,-7.0,1651072025516831.0,1
365,21.0,-9.0,7.0,-20.0,-5.0,-3.0,0.0,5.0,1651072025516831.0,1
366,-24.0,0.0,11.0,4.0,-3.0,-2.0,-1.0,-2.0,1651072025533286.0,1
367,15.0,-8.0,-25.0,-16.0,-8.0,-1.0,-3.0,-5.0,1651072025533286.0,1
368,-8.0,-3.0,-3.0,-10.0,-2.0,1.0,2.0,5.0,1651072025541340.0,1
369,-5.0,-1.0,0.0,20.0,2.0,-3.0,-1.0,-4.0,1651072025541340.0,1
370,48.0,15.0,13.0,-12.0,2.0,1.0,-2.0,2.0,1651072025542267.0,1
371,-53.0,-4.0,1.0,-4.0,-9.0,-4.0,0.0,0.0,1651072025542267.0,1
372,9.0,-1.0,12.0,-11.0,0.0,-1.0,1.0,1.0,1651072025563622.0,1
373,19.0,-4.0,-7.0,13.0,0.0,1.0,1.0,2.0,1651072025563622.0,1
374,14.0,-6.0,0.0,9.0,8.0,3.0,2.0,2.0,1651072025565501.0,1
375,-13.0,2.0,21.0,-2.0,4.0,-3.0,-1.0,-1.0,1651072025565501.0,1
376,10.0,-8.0,2.0,19.0,0.0,1.0,-3.0,-1.0,1651072025577548.0,1
377,-13.0,-22.0,-23.0,-47.0,-2.0,2.0,2.0,-2.0,1651072025577548.0,1
378,0.0,4.0,7.0,47.0,0.0,-4.0,-1.0,2.0,1651072025586569.0,1
379,-7.0,4.0,1.0,-17.0,0.0,1.0,0.0,-1.0,1651072025586569.0,1
380,-7.0,5.0,-2.0,-12.0,-5.0,-4.0,-2.0,-3.0,1651072025600654.0,1
381,72.0,8.0,-4.0,15.0,0.0,1.0,1.0,4.0,1651072025600654.0,1
382,-23.0,-7.0,-2.0,-11.0,-4.0,-4.0,-2.0,-3.0,1651072025602652.0,1
383,-11.0,-5.0,1.0,10.0,-3.0,-1.0,0.0,0.0,1651072025602652.0,1
384,27.0,4.0,8.0,2.0,6.0,2.0,1.0,2.0,1651072025623904.0,1
385,-2.0,4.0,-6.0,-12.0,-7.0,-2.0,-3.0,-2.0,1651072025623904.0,1
386,-9.0,-5.0,10.0,-5.0,1.0,0.0,1.0,-4.0,1651072025624899.0,1
387,-7.0,-2.0,-5.0,-5.0,-3.0,0.0,-1.0,-3.0,1651072025624899.0,1
388,-6.0,4.0,-7.0,17.0,0.0,-2.0,-3.0,-2.0,1651072025636868.0,1
389,11.0,8.0,42.0,18.0,8.0,2.0,2.0,3.0,1651072025636868.0,1
390,-8.0,-7.0,-36.0,-22.0,-11.0,-5.0,-2.0,-3.0,1651072025645851.0,1
391,5.0,8.0,42.0,28.0,9.0,1.0,-1.0,-2.0,1651072025645851.0,1
392,-10.0,-21.0,-38.0,-10.0,-10.0,-3.0,-1.0,0.0,1651072025661337.0,1
393,-35.0,4.0,13.0,-9.0,6.0,-2.0,-2.0,-4.0,1651072025661337.0,1
394,14.0,0.0,5.0,33.0,3.0,0.0,1.0,1.0,1651072025662325.0,1
395,1.0,3.0,-13.0,-20.0,-3.0,-1.0,-1.0,-2.0,1651072025662325.0,1
396,-34.0,7.0,9.0,-40.0,-8.0,0.0,0.0,-1.0,1651072025683621.0,1
397,-40.0,-8.0,-8.0,23.0,-3.0,-3.0,-2.0,-3.0,1651072025683621.0,1
398,2.0,22.0,16.0,19.0,9.0,4.0,3.0,3.0,1651072025685485.0,1
399,3.0,-17.0,-19.0,-32.0,-9.0,-1.0,-1.0,0.0,1651072025685485.0,1
400,6.0,4.0,14.0,16.0,4.0,-1.0,0.0,-3.0,1651072025697495.0,1
401,-30.0,-11.0,3.0,4.0,2.0,0.0,-2.0,-4.0,1651072025697495.0,1
402,-25.0,5.0,-18.0,-27.0,-5.0,-1.0,0.0,0.0,1651072025706424.0,1
403,1.0,9.0,11.0,-2.0,3.0,0.0,0.0,-1.0,1651072025706424.0,1
404,33.0,4.0,-15.0,5.0,-2.0,-4.0,-3.0,-1.0,1651072025720529.0,1
405,-16.0,7.0,13.0,7.0,3.0,4.0,3.0,4.0,1651072025720529.0,1
406,8.0,0.0,8.0,-16.0,3.0,0.0,-1.0,-1.0,1651072025722504.0,1
407,-18.0,-7.0,-39.0,26.0,-8.0,-5.0,-4.0,0.0,1651072025722504.0,1
408,41.0,4.0,26.0,5.0,4.0,2.0,-1.0,-2.0,1651072025743610.0,1
409,-22.0,-8.0,-14.0,-22.0,-9.0,-3.0,-1.0,-1.0,1651072025743610.0,1
410,-21.0,-9.0,-3.0,13.0,6.0,-2.0,-4.0,-7.0,1651072025745489.0,1
411,24.0,14.0,7.0,-21.0,-7.0,0.0,2.0,4.0,1651072025745489.0,1
412,25.0,3.0,-7.0,9.0,3.0,-1.0,0.0,0.0,1651072025765470.0,1
413,-8.0,-2.0,8.0,28.0,4.0,0.0,-1.0,2.0,1651072025765470.0,1
414,8.0,7.0,-9.0,-58.0,-9.0,-1.0,-1.0,-2.0,1651072025767468.0,1
415,10.0,9.0,11.0,28.0,9.0,2.0,-1.0,-2.0,1651072025767468.0,1
416,-38.0,-1.0,-1.0,-10.0,0.0,2.0,1.0,1.0,1651072025780624.0,1
417,28.0,14.0,2.0,-22.0,-2.0,0.0,-1.0,-1.0,1651072025780624.0,1
418,6.0,2.0,-37.0,19.0,-9.0,-5.0,-3.0,2.0,1651072025782552.0,1
419,-5.0,-17.0,3.0,-19.0,-6.0,-2.0,-2.0,-4.0,1651072025782552.0,1
420,-12.0,-15.0,-10.0,0.0,0.0,-1.0,-2.0,1.0,1651072025803709.0,1
421,41.0,-4.0,-11.0,-11.0,-3.0,-1.0,1.0,1.0,1651072025803709.0,1
422,-4.0,1.0,19.0,17.0,5.0,0.0,1.0,5.0,1651072025809695.0,1
423,-17.0,2.0,10.0,2.0,3.0,0.0,-1.0,-4.0,1651072025809695.0,1
424,-2.0,-10.0,-38.0,-15.0,-7.0,-2.0,-1.0,-1.0,1651072025825940.0,1
425,30.0,-3.0,-9.0,-6.0,-5.0,-2.0,0.0,5.0,1651072025825940.0,1
426,-2.0,-8.0,2.0,-3.0,-3.0,-1.0,-2.0,-4.0,1651072025827869.0,1
427,12.0,-2.0,10.0,22.0,6.0,4.0,2.0,2.0,1651072025827869.0,1
428,-75.0,-2.0,12.0,-2.0,0.0,2.0,0.0,-1.0,1651072025841017.0,1
429,-6.0,-2.0,-3.0,-1.0,0.0,-4.0,-3.0,-2.0,1651072025841017.0,1
430,-20.0,3.0,11.0,-8.0,-11.0,-2.0,-1.0,-1.0,1651072025842946.0,1
431,-20.0,-22.0,-50.0,-11.0,1.0,0.0,0.0,1.0,1651072025842946.0,1
432,20.0,11.0,17.0,7.0,4.0,-1.0,-1.0,3.0,1651072025863647.0,1
433,-13.0,11.0,0.0,-12.0,4.0,4.0,1.0,-4.0,1651072025863647.0,1
434,0.0,-8.0,9.0,15.0,3.0,0.0,-1.0,-2.0,1651072025864577.0,1
435,-18.0,-8.0,25.0,7.0,-3.0,-1.0,-2.0,-3.0,1651072025864577.0,1
436,-6.0,-10.0,-12.0,-1.0,-4.0,-1.0,0.0,2.0,1651072025885588.0,1
437,-28.0,-30.0,-7.0,4.0,3.0,3.0,2.0,4.0,1651072025885588.0,1
438,17.0,5.0,17.0,-7.0,4.0,3.0,1.0,1.0,1651072025887516.0,1
439,12.0,8.0,-2.0,-6.0,-2.0,-2.0,0.0,4.0,1651072025887516.0,1
440,9.0,3.0,1.0,25.0,-2.0,-4.0,-2.0,-5.0,1651072025901380.0,1
441,-49.0,-11.0,4.0,18.0,-1.0,0.0,-1.0,-5.0,1651072025901380.0,1
442,0.0,3.0,-9.0,-29.0,0.0,1.0,0.0,-3.0,1651072025902327.0,1
443,11.0,8.0,5.0,-4.0,4.0,3.0,1.0,2.0,1651072025902327.0,1
444,2.0,9.0,12.0,0.0,3.0,-3.0,0.0,1.0,1651072025923338.0,1
445,28.0,15.0,11.0,7.0,-1.0,-1.0,-1.0,1.0,1651072025923338.0,1
446,29.0,-3.0,-30.0,2.0,0.0,1.0,2.0,4.0,1651072025925298.0,1
447,-2.0,5.0,4.0,1.0,-5.0,1.0,1.0,0.0,1651072025925298.0,1
448,20.0,3.0,6.0,1.0,6.0,4.0,1.0,0.0,1651072025945435.0,1
449,-7.0,-3.0,0.0,-14.0,2.0,0.0,-2.0,-6.0,1651072025945435.0,1
450,22.0,4.0,9.0,7.0,-5.0,-1.0,0.0,3.0,1651072025953347.0,1
451,-10.0,-17.0,-18.0,-28.0,-4.0,0.0,0.0,1.0,1651072025953347.0,1
452,2.0,-1.0,10.0,47.0,9.0,0.0,-1.0,-2.0,1651072025960397.0,1
453,32.0,11.0,7.0,-4.0,-4.0,3.0,2.0,4.0,1651072025960397.0,1
454,18.0,-30.0,-20.0,-7.0,-9.0,-8.0,-6.0,-3.0,1651072025967377.0,1
455,-13.0,-2.0,3.0,7.0,4.0,-2.0,-2.0,-3.0,1651072025967377.0,1
456,-2.0,-5.0,-11.0,-27.0,-12.0,-2.0,-1.0,1.0,1651072025983452.0,1
457,10.0,5.0,-5.0,20.0,5.0,-1.0,-1.0,-1.0,1651072025983452.0,1
458,5.0,3.0,4.0,-10.0,2.0,2.0,3.0,0.0,1651072025985380.0,1
459,0.0,5.0,14.0,13.0,-1.0,0.0,-1.0,0.0,1651072025985380.0,1
460,-3.0,2.0,-6.0,-8.0,2.0,0.0,0.0,-1.0,1651072026013412.0,1
461,7.0,-13.0,11.0,-1.0,-4.0,-2.0,-1.0,1.0,1651072026013412.0,1
462,-34.0,-11.0,-21.0,7.0,-3.0,-2.0,-1.0,-2.0,1651072026015341.0,1
463,-2.0,4.0,6.0,0.0,6.0,0.0,1.0,-2.0,1651072026015341.0,1
464,-5.0,-5.0,-5.0,-7.0,-7.0,-3.0,0.0,-1.0,1651072026020355.0,1
465,6.0,6.0,15.0,-18.0,-9.0,-2.0,-1.0,-1.0,1651072026020355.0,1
466,-18.0,9.0,-16.0,11.0,4.0,1.0,-1.0,-5.0,1651072026027336.0,1
467,4.0,17.0,20.0,31.0,4.0,-1.0,-1.0,-1.0,1651072026027336.0,1
468,14.0,-2.0,-1.0,-33.0,-4.0,0.0,-1.0,3.0,1651072026043513.0,1
469,-23.0,-8.0,-3.0,7.0,0.0,-2.0,-2.0,-6.0,1651072026043513.0,1
470,-13.0,2.0,13.0,-4.0,5.0,2.0,-2.0,-2.0,1651072026045441.0,1
471,13.0,2.0,3.0,5.0,-1.0,-1.0,-1.0,2.0,1651072026045441.0,1
472,33.0,4.0,-3.0,2.0,-1.0,2.0,-1.0,0.0,1651072026065500.0,1
473,-11.0,0.0,-15.0,-13.0,0.0,0.0,0.0,1.0,1651072026065500.0,1
474,-4.0,1.0,13.0,8.0,3.0,0.0,1.0,-1.0,1651072026067483.0,1
475,0.0,-7.0,-7.0,-18.0,-6.0,-2.0,1.0,-1.0,1651072026067483.0,1
476,6.0,-2.0,0.0,-8.0,-4.0,-1.0,0.0,-1.0,1651072026080591.0,1
477,9.0,-4.0,-12.0,-1.0,-1.0,-1.0,1.0,1.0,1651072026080591.0,1
478,3.0,0.0,3.0,24.0,-2.0,-2.0,-3.0,0.0,1651072026087576.0,1
479,1.0,-2.0,7.0,1.0,0.0,0.0,-2.0,1.0,1651072026087576.0,1
480,-15.0,4.0,11.0,-5.0,0.0,0.0,1.0,-1.0,1651072026103599.0,1
481,3.0,-7.0,-30.0,-4.0,-1.0,3.0,-2.0,-3.0,1651072026103599.0,1
482,-10.0,0.0,13.0,8.0,-2.0,-2.0,-1.0,1.0,1651072026105530.0,1
483,2.0,-1.0,-2.0,1.0,2.0,4.0,0.0,0.0,1651072026105530.0,1
484,-6.0,2.0,3.0,1.0,3.0,-1.0,0.0,-1.0,1651072026125814.0,1
485,-11.0,0.0,-4.0,-14.0,-4.0,-2.0,-1.0,0.0,1651072026125814.0,1
486,7.0,-1.0,7.0,-7.0,1.0,0.0,2.0,0.0,1651072026127743.0,1
487,2.0,-4.0,-19.0,-8.0,-4.0,-2.0,-4.0,-4.0,1651072026127743.0,1
488,1.0,-4.0,2.0,3.0,-1.0,2.0,0.0,-1.0,1651072026140734.0,1
489,7.0,9.0,3.0,17.0,2.0,-1.0,0.0,0.0,1651072026140734.0,1
490,-8.0,-3.0,-4.0,-1.0,-2.0,-4.0,-2.0,-4.0,1651072026146758.0,1
491,1.0,-5.0,-5.0,-7.0,-5.0,-1.0,0.0,0.0,1651072026146758.0,1
492,-12.0,-2.0,12.0,32.0,5.0,-1.0,-1.0,-2.0,1651072026163822.0,1
493,0.0,0.0,-7.0,-4.0,0.0,0.0,-1.0,-2.0,1651072026163822.0,1
494,-2.0,-3.0,0.0,-5.0,1.0,3.0,1.0,3.0,1651072026164822.0,1
495,1.0,1.0,1.0,-7.0,-1.0,-4.0,1.0,-2.0,1651072026164822.0,1
496,0.0,-3.0,-7.0,-9.0,-4.0,-3.0,-1.0,-1.0,1651072026185766.0,1
497,5.0,3.0,2.0,-4.0,1.0,1.0,2.0,0.0,1651072026185766.0,1
498,0.0,0.0,-4.0,-3.0,1.0,0.0,0.0,0.0,1651072026187693.0,1
499,0.0,-2.0,2.0,10.0,-1.0,0.0,2.0,1.0,1651072026187693.0,1
500,-5.0,-3.0,-11.0,-17.0,-4.0,-1.0,-2.0,-1.0,1651072026200681.0,1
501,4.0,2.0,1.0,3.0,1.0,-1.0,3.0,2.0,1651072026200681.0,1
502,-6.0,-3.0,3.0,10.0,3.0,-3.0,-2.0,-2.0,1651072026207601.0,1
503,-1.0,0.0,-2.0,-4.0,-2.0,-2.0,-1.0,-1.0,1651072026207601.0,1
504,0.0,-1.0,1.0,5.0,-2.0,-3.0,-2.0,-1.0,1651072026223719.0,1
505,1.0,2.0,-1.0,-5.0,5.0,3.0,-2.0,-1.0,1651072026223719.0,1
506,3.0,0.0,-5.0,-15.0,-4.0,0.0,1.0,1.0,1651072026230039.0,1
507,0.0,-1.0,8.0,13.0,3.0,-2.0,-2.0,0.0,1651072026230039.0,1
508,0.0,0.0,-4.0,-5.0,-7.0,1.0,1.0,0.0,1651072026246242.0,1
509,0.0,0.0,-1.0,-5.0,-4.0,-4.0,-1.0,-1.0,1651072026246242.0,1
510,-2.0,-1.0,-1.0,1.0,-9.0,-3.0,-2.0,0.0,1651072026247173.0,1
511,0.0,-1.0,1.0,8.0,5.0,-2.0,-1.0,-2.0,1651072026247173.0,1
512,-5.0,-2.0,-7.0,-7.0,-2.0,1.0,-2.0,0.0,1651072026261494.0,1
513,1.0,2.0,-1.0,0.0,-1.0,-7.0,-2.0,1.0,1651072026261494.0,1
514,-1.0,-4.0,-3.0,-5.0,8.0,6.0,3.0,-3.0,1651072026268418.0,1
515,2.0,2.0,1.0,8.0,-2.0,1.0,0.0,2.0,1651072026268418.0,1
516,1.0,-1.0,0.0,3.0,13.0,5.0,0.0,4.0,1651072026284374.0,1
517,-1.0,0.0,3.0,9.0,5.0,0.0,-2.0,-3.0,1651072026284374.0,1
518,0.0,2.0,-2.0,-12.0,-7.0,-5.0,-3.0,0.0,1651072026285376.0,1
519,-2.0,-3.0,2.0,7.0,0.0,0.0,-1.0,-1.0,1651072026285376.0,1
520,-3.0,-1.0,2.0,-7.0,-5.0,0.0,2.0,-2.0,1651072026305486.0,1
521,-1.0,-1.0,-2.0,-9.0,0.0,2.0,0.0,0.0,1651072026305486.0,1
522,-2.0,0.0,6.0,-7.0,1.0,-1.0,-1.0,-1.0,1651072026307483.0,1
523,-2.0,-3.0,-13.0,-5.0,-2.0,0.0,-2.0,-2.0,1651072026307483.0,1
524,0.0,1.0,3.0,7.0,-4.0,-3.0,-1.0,-1.0,1651072026319517.0,1
525,3.0,-3.0,-3.0,3.0,-2.0,-1.0,-1.0,-1.0,1651072026319517.0,1
526,-1.0,1.0,-3.0,-8.0,-3.0,0.0,1.0,2.0,1651072026328426.0,1
527,1.0,1.0,-1.0,-7.0,0.0,-2.0,0.0,1.0,1651072026328426.0,1
528,-2.0,-3.0,-3.0,6.0,4.0,-2.0,-2.0,-2.0,1651072026343712.0,1
529,-3.0,0.0,-2.0,-7.0,-3.0,4.0,0.0,-1.0,1651072026343712.0,1
530,2.0,2.0,0.0,5.0,-1.0,-2.0,2.0,0.0,1651072026344678.0,1
531,2.0,0.0,1.0,-6.0,0.0,0.0,-1.0,-1.0,1651072026344678.0,1
532,-1.0,-1.0,-3.0,-6.0,-8.0,-3.0,-1.0,-3.0,1651072026365595.0,1
533,-3.0,0.0,3.0,3.0,-3.0,2.0,1.0,0.0,1651072026365595.0,1
534,0.0,1.0,-8.0,-4.0,3.0,-1.0,-3.0,0.0,1651072026367563.0,1
535,-2.0,-1.0,4.0,4.0,1.0,-2.0,0.0,-1.0,1651072026367563.0,1
536,2.0,0.0,4.0,9.0,-3.0,0.0,1.0,0.0,1651072026380022.0,1
537,0.0,0.0,0.0,-11.0,-17.0,-6.0,-2.0,-2.0,1651072026380022.0,1
538,0.0,-3.0,3.0,0.0,4.0,1.0,1.0,-2.0,1651072026388594.0,1
539,0.0,-1.0,-4.0,-6.0,1.0,3.0,0.0,1.0,1651072026388594.0,1
540,0.0,-2.0,-10.0,-7.0,-4.0,-2.0,-2.0,-1.0,1651072026403704.0,1
541,-2.0,0.0,1.0,19.0,3.0,-1.0,0.0,-1.0,1651072026403704.0,1
542,0.0,0.0,-2.0,1.0,3.0,3.0,-1.0,-1.0,1651072026404712.0,1
543,0.0,0.0,3.0,-1.0,-4.0,-4.0,0.0,-1.0,1651072026404712.0,1
544,1.0,-1.0,-2.0,-11.0,0.0,-3.0,0.0,-2.0,1651072026425681.0,1
545,1.0,2.0,2.0,-1.0,-1.0,-2.0,-1.0,-1.0,1651072026425681.0,1
546,0.0,-3.0,5.0,4.0,4.0,-1.0,-2.0,-2.0,1651072026427608.0,1
547,-1.0,4.0,-7.0,-7.0,-3.0,-2.0,1.0,-1.0,1651072026427608.0,1
548,-3.0,-7.0,-7.0,1.0,3.0,4.0,-1.0,-2.0,1651072026439640.0,1
549,0.0,-2.0,1.0,5.0,-1.0,-3.0,-2.0,0.0,1651072026439640.0,1
550,-1.0,-2.0,-4.0,-2.0,-3.0,0.0,0.0,0.0,1651072026448601.0,1
551,-1.0,0.0,7.0,-7.0,-2.0,1.0,0.0,-1.0,1651072026448601.0,1
552,-1.0,0.0,-2.0,0.0,-3.0,-3.0,-1.0,-1.0,1651072026463650.0,1
553,-2.0,-1.0,0.0,-4.0,8.0,1.0,0.0,-2.0,1651072026463650.0,1
554,0.0,-1.0,-3.0,15.0,7.0,3.0,1.0,-1.0,1651072026464586.0,1
555,1.0,-2.0,-1.0,-5.0,-4.0,-2.0,-1.0,-1.0,1651072026464586.0,1
556,1.0,1.0,-3.0,-6.0,-1.0,0.0,-1.0,2.0,1651072026485570.0,1
557,0.0,-1.0,-3.0,-1.0,2.0,3.0,0.0,1.0,1651072026485570.0,1
558,0.0,1.0,2.0,-3.0,-9.0,-6.0,-1.0,-2.0,1651072026487498.0,1
559,-2.0,-1.0,-3.0,0.0,3.0,3.0,-1.0,-1.0,1651072026487498.0,1
560,-1.0,2.0,1.0,-2.0,-5.0,-2.0,-2.0,1.0,1651072026499533.0,1
561,2.0,0.0,0.0,-1.0,0.0,0.0,1.0,-1.0,1651072026499533.0,1
562,0.0,5.0,7.0,4.0,15.0,6.0,1.0,1.0,1651072026508455.0,1
563,-2.0,-6.0,-9.0,-1.0,-2.0,0.0,-1.0,-2.0,1651072026508455.0,1
564,0.0,2.0,3.0,-3.0,-1.0,1.0,-1.0,1.0,1651072026523706.0,1
565,-2.0,1.0,1.0,1.0,-1.0,-2.0,-2.0,1.0,1651072026523706.0,1
566,0.0,-1.0,-4.0,-2.0,-8.0,-3.0,0.0,1.0,1651072026524688.0,1
567,0.0,-1.0,11.0,7.0,-1.0,-3.0,-1.0,-1.0,1651072026524688.0,1
568,-3.0,0.0,-5.0,-7.0,-1.0,0.0,0.0,-3.0,1651072026545663.0,1
569,1.0,-2.0,3.0,17.0,2.0,-1.0,0.0,-2.0,1651072026545663.0,1
570,-2.0,0.0,-3.0,-7.0,-5.0,-1.0,-1.0,0.0,1651072026547686.0,1
571,0.0,0.0,2.0,-3.0,3.0,2.0,-2.0,-1.0,1651072026547686.0,1
572,-1.0,-3.0,0.0,-3.0,-15.0,-4.0,-1.0,-1.0,1651072026559740.0,1
573,-2.0,2.0,0.0,-3.0,8.0,0.0,0.0,0.0,1651072026559740.0,1
574,-1.0,-3.0,-2.0,1.0,-1.0,0.0,0.0,0.0,1651072026568706.0,1
575,0.0,1.0,-2.0,-2.0,-1.0,-1.0,1.0,0.0,1651072026568706.0,1
576,2.0,1.0,1.0,2.0,4.0,2.0,2.0,0.0,1651072026583742.0,1
577,0.0,-2.0,-2.0,-6.0,-5.0,-2.0,0.0,0.0,1651072026583742.0,1
578,-1.0,-2.0,0.0,3.0,0.0,0.0,-2.0,0.0,1651072026585731.0,1
579,-1.0,-1.0,-4.0,-10.0,-4.0,-1.0,1.0,-1.0,1651072026585731.0,1
580,-1.0,-1.0,1.0,13.0,7.0,0.0,-1.0,0.0,1651072026605677.0,1
581,0.0,1.0,2.0,-2.0,-1.0,0.0,-1.0,0.0,1651072026605677.0,1
582,0.0,-2.0,-5.0,-4.0,-3.0,-3.0,0.0,0.0,1651072026607672.0,1
583,0.0,-1.0,-1.0,-3.0,0.0,-1.0,0.0,0.0,1651072026607672.0,1
584,2.0,1.0,-1.0,-4.0,2.0,3.0,1.0,1.0,1651072026620080.0,1
585,0.0,-3.0,-4.0,7.0,-4.0,-2.0,-1.0,-3.0,1651072026620080.0,1
586,0.0,-1.0,-2.0,0.0,4.0,2.0,-1.0,-3.0,1651072026628061.0,1
587,-1.0,1.0,-3.0,0.0,-6.0,-1.0,-1.0,0.0,1651072026628061.0,1
588,-1.0,-1.0,-2.0,-6.0,5.0,1.0,1.0,0.0,1651072026644085.0,1
589,0.0,-1.0,10.0,-2.0,-2.0,0.0,-1.0,0.0,1651072026644085.0,1
590,-2.0,-4.0,-13.0,-4.0,-7.0,-3.0,1.0,-1.0,1651072026645019.0,1
591,-1.0,0.0,-4.0,1.0,-6.0,-3.0,-1.0,-1.0,1651072026645019.0,1
592,-2.0,1.0,10.0,5.0,5.0,-3.0,-3.0,0.0,1651072026666030.0,1
593,0.0,1.0,-4.0,-4.0,-4.0,-1.0,-3.0,1.0,1651072026666030.0,1
594,0.0,2.0,7.0,-4.0,-1.0,-1.0,-1.0,1.0,1651072026667954.0,1
595,-2.0,-3.0,-3.0,1.0,5.0,0.0,-1.0,-1.0,1651072026667954.0,1
596,1.0,-1.0,-1.0,1.0,-3.0,-1.0,0.0,-1.0,1651072026680004.0,1
597,0.0,-1.0,-4.0,-2.0,-2.0,-1.0,-3.0,-2.0,1651072026680004.0,1
598,1.0,-1.0,2.0,-2.0,0.0,4.0,0.0,1.0,1651072026688898.0,1
599,1.0,-1.0,0.0,-2.0,-2.0,0.0,-1.0,-1.0,1651072026688898.0,1
600,-2.0,-1.0,0.0,7.0,-3.0,-4.0,1.0,-1.0,1651072026703860.0,1
601,-1.0,0.0,-2.0,-2.0,6.0,0.0,0.0,-2.0,1651072026703860.0,1
602,-1.0,0.0,-2.0,-3.0,1.0,1.0,-1.0,-1.0,1651072026704863.0,1
603,0.0,0.0,-2.0,-2.0,0.0,1.0,0.0,0.0,1651072026704863.0,1
604,-1.0,-2.0,-1.0,7.0,2.0,0.0,-1.0,-1.0,1651072026725643.0,1
605,0.0,-2.0,-3.0,-5.0,-9.0,-3.0,-3.0,0.0,1651072026725643.0,1
606,-1.0,1.0,-1.0,3.0,11.0,0.0,-1.0,-1.0,1651072026727570.0,1
607,0.0,0.0,-2.0,1.0,2.0,1.0,1.0,0.0,1651072026727570.0,1
608,-1.0,0.0,2.0,-7.0,-2.0,-1.0,-2.0,-1.0,1651072026748541.0,1
609,0.0,0.0,-1.0,-1.0,-4.0,-1.0,2.0,0.0,1651072026748541.0,1
610,-1.0,-2.0,-1.0,-1.0,-6.0,-3.0,-1.0,-1.0,1651072026750508.0,1
611,1.0,-1.0,8.0,-1.0,1.0,-3.0,0.0,0.0,1651072026750508.0,1
612,0.0,-1.0,-4.0,-2.0,-1.0,1.0,0.0,2.0,1651072026763501.0,1
613,0.0,0.0,-3.0,-12.0,-1.0,-1.0,-1.0,1.0,1651072026763501.0,1
614,0.0,1.0,3.0,10.0,2.0,0.0,0.0,0.0,1651072026765479.0,1
615,-2.0,-1.0,3.0,5.0,2.0,0.0,-2.0,0.0,1651072026765479.0,1
616,1.0,0.0,0.0,-6.0,0.0,0.0,-2.0,-2.0,1651072026785450.0,1
617,-2.0,-2.0,2.0,3.0,-1.0,-1.0,2.0,-2.0,1651072026785450.0,1
618,-2.0,3.0,0.0,-13.0,-4.0,-1.0,-2.0,-1.0,1651072026787410.0,1
619,-1.0,-4.0,-9.0,-2.0,7.0,4.0,1.0,0.0,1651072026787410.0,1
620,-1.0,-1.0,3.0,2.0,0.0,1.0,-1.0,-1.0,1651072026808353.0,1
621,0.0,1.0,0.0,-4.0,-1.0,-1.0,0.0,-1.0,1651072026808353.0,1
622,-1.0,0.0,0.0,1.0,-7.0,-3.0,-1.0,-2.0,1651072026810348.0,1
623,-1.0,2.0,3.0,0.0,-5.0,-3.0,-1.0,-1.0,1651072026810348.0,1
624,0.0,0.0,-6.0,-1.0,1.0,-1.0,-2.0,-1.0,1651072026822316.0,1
625,0.0,-2.0,-1.0,3.0,0.0,-1.0,0.0,1.0,1651072026822316.0,1
626,0.0,1.0,4.0,-5.0,-1.0,-1.0,0.0,0.0,1651072026829297.0,1
627,-1.0,0.0,1.0,9.0,2.0,2.0,0.0,0.0,1651072026829297.0,1
628,0.0,0.0,4.0,0.0,0.0,-1.0,0.0,0.0,1651072026846251.0,1
629,0.0,-2.0,-3.0,1.0,0.0,0.0,-2.0,0.0,1651072026846251.0,1
630,-1.0,0.0,-1.0,-2.0,0.0,-1.0,-2.0,-2.0,1651072026847250.0,1
631,0.0,0.0,-6.0,-6.0,-2.0,0.0,-2.0,0.0,1651072026847250.0,1
632,0.0,0.0,-3.0,-1.0,-1.0,0.0,-1.0,-2.0,1651072026868743.0,1
633,0.0,-1.0,2.0,0.0,-10.0,-2.0,0.0,0.0,1651072026868743.0,1
634,0.0,-3.0,-10.0,2.0,5.0,0.0,0.0,0.0,1651072026869712.0,1
635,0.0,-1.0,3.0,-2.0,1.0,1.0,0.0,-1.0,1651072026869712.0,1
636,-1.0,0.0,6.0,1.0,8.0,6.0,4.0,0.0,1651072026882705.0,1
637,0.0,0.0,-6.0,-5.0,1.0,1.0,0.0,-1.0,1651072026882705.0,1
638,0.0,-1.0,3.0,2.0,-5.0,-2.0,-1.0,-1.0,1651072026889686.0,1
639,1.0,1.0,-3.0,-9.0,-8.0,-4.0,0.0,-1.0,1651072026889686.0,1
640,-1.0,-2.0,-5.0,1.0,-2.0,-3.0,-1.0,-2.0,1651072026905684.0,1
641,-1.0,0.0,1.0,0.0,5.0,1.0,0.0,1.0,1651072026905684.0,1
642,-1.0,0.0,-1.0,-3.0,-5.0,-2.0,-1.0,0.0,1651072026907638.0,1
643,-1.0,0.0,-4.0,1.0,0.0,-1.0,-1.0,2.0,1651072026907638.0,1
644,0.0,-1.0,-1.0,-10.0,-7.0,-2.0,1.0,-1.0,1651072026928708.0,1
645,0.0,0.0,0.0,3.0,2.0,0.0,1.0,-2.0,1651072026928708.0,1
646,1.0,-1.0,0.0,1.0,-2.0,-2.0,0.0,-1.0,1651072026929726.0,1
647,-2.0,1.0,6.0,5.0,4.0,0.0,-1.0,0.0,1651072026929726.0,1
648,-1.0,1.0,1.0,0.0,0.0,0.0,-1.0,-2.0,1651072026950718.0,1
649,1.0,-3.0,-7.0,2.0,-2.0,0.0,-2.0,0.0,1651072026950718.0,1
650,-1.0,0.0,0.0,-3.0,-3.0,-1.0,1.0,0.0,1651072026952644.0,1
651,0.0,-1.0,-4.0,-3.0,-2.0,-3.0,-2.0,0.0,1651072026952644.0,1
652,-1.0,0.0,1.0,0.0,-2.0,-2.0,-1.0,0.0,1651072026965677.0,1
653,0.0,2.0,2.0,2.0,3.0,0.0,-1.0,0.0,1651072026965677.0,1
654,-2.0,-2.0,1.0,-7.0,-13.0,-4.0,-1.0,-2.0,1651072026967604.0,1
655,0.0,0.0,1.0,0.0,8.0,3.0,0.0,0.0,1651072026967604.0,1
656,-2.0,-3.0,-3.0,0.0,8.0,0.0,2.0,1.0,1651072026988614.0,1
657,-1.0,-2.0,3.0,6.0,-1.0,1.0,1.0,0.0,1651072026988614.0,1
658,0.0,0.0,-2.0,0.0,3.0,-1.0,-1.0,-1.0,1651072026989559.0,1
659,-2.0,-1.0,-2.0,-2.0,-9.0,-3.0,0.0,-1.0,1651072026989559.0,1
660,-1.0,0.0,-3.0,-3.0,-4.0,-1.0,-2.0,0.0,1651072027002539.0,1
661,0.0,-1.0,-1.0,-3.0,6.0,1.0,0.0,0.0,1651072027002539.0,1
662,-1.0,0.0,4.0,1.0,-2.0,-1.0,0.0,-1.0,1651072027009559.0,1
663,0.0,-2.0,-2.0,-2.0,-8.0,-1.0,-1.0,-2.0,1651072027009559.0,1
664,1.0,-2.0,-4.0,-1.0,8.0,0.0,-1.0,-1.0,1651072027025541.0,1
665,-2.0,-1.0,-5.0,-2.0,-2.0,-5.0,-1.0,-1.0,1651072027025541.0,1
666,-1.0,-3.0,-2.0,0.0,1.0,2.0,-3.0,0.0,1651072027032498.0,1
667,1.0,1.0,1.0,2.0,5.0,1.0,1.0,1.0,1651072027032498.0,1
668,-1.0,-3.0,-2.0,-6.0,-8.0,-3.0,0.0,0.0,1651072027048566.0,1
669,0.0,1.0,2.0,-1.0,-4.0,1.0,0.0,0.0,1651072027048566.0,1
670,0.0,0.0,1.0,2.0,0.0,0.0,-1.0,-1.0,1651072027050494.0,1
671,-1.0,-1.0,0.0,-2.0,0.0,-1.0,-1.0,-1.0,1651072027050494.0,1
672,0.0,0.0,0.0,2.0,-4.0,0.0,-1.0,-1.0,1651072027062491.0,1
673,-1.0,0.0,-2.0,-3.0,-1.0,-2.0,0.0,-1.0,1651072027062491.0,1
674,1.0,0.0,-2.0,-1.0,1.0,2.0,0.0,-1.0,1651072027070078.0,1
675,-1.0,1.0,1.0,2.0,2.0,-1.0,-1.0,-1.0,1651072027070078.0,1
676,-1.0,0.0,0.0,-6.0,-3.0,1.0,1.0,1.0,1651072027086104.0,1
677,0.0,-2.0,0.0,1.0,0.0,2.0,0.0,-1.0,1651072027086104.0,1
678,0.0,-1.0,1.0,5.0,4.0,0.0,0.0,-1.0,1651072027088032.0,1
679,1.0,-3.0,-2.0,0.0,-2.0,2.0,0.0,-1.0,1651072027088032.0,1
680,1.0,0.0,-2.0,-3.0,-8.0,-3.0,-1.0,-1.0,1651072027108705.0,1
681,1.0,-1.0,-3.0,-12.0,-6.0,-3.0,-2.0,0.0,1651072027108705.0,1
682,0.0,1.0,2.0,1.0,5.0,3.0,0.0,0.0,1651072027109669.0,1
683,0.0,-3.0,-2.0,3.0,4.0,1.0,1.0,-2.0,1651072027109669.0,1
684,0.0,0.0,-1.0,1.0,-2.0,0.0,-2.0,0.0,1651072027122704.0,1
685,-1.0,2.0,3.0,-3.0,-3.0,-1.0,0.0,-1.0,1651072027122704.0,1
686,-2.0,-1.0,-3.0,-4.0,-2.0,-2.0,1.0,-1.0,1651072027129619.0,1
687,2.0,1.0,1.0,-3.0,-3.0,-1.0,-1.0,0.0,1651072027129619.0,1
688,-2.0,-1.0,-1.0,3.0,3.0,-1.0,-1.0,0.0,1651072027145645.0,1
689,0.0,-3.0,-2.0,-2.0,-1.0,-2.0,-2.0,-1.0,1651072027145645.0,1
690,-2.0,0.0,3.0,14.0,-3.0,-1.0,-3.0,0.0,1651072027147571.0,1
691,0.0,-1.0,-4.0,-7.0,3.0,2.0,0.0,-1.0,1651072027147571.0,1
692,-1.0,0.0,1.0,-2.0,-5.0,-3.0,-1.0,-1.0,1651072027168581.0,1
693,-2.0,0.0,2.0,7.0,12.0,2.0,1.0,0.0,1651072027168581.0,1
694,-1.0,-2.0,-4.0,-7.0,3.0,1.0,0.0,1.0,1651072027169512.0,1
695,-1.0,-1.0,-2.0,0.0,-7.0,-5.0,-2.0,-2.0,1651072027169512.0,1
696,0.0,-3.0,-3.0,-1.0,1.0,3.0,-1.0,-1.0,1651072027183262.0,1
697,-1.0,0.0,1.0,-1.0,-2.0,0.0,-1.0,-2.0,1651072027183262.0,1
698,0.0,0.0,0.0,-3.0,1.0,-2.0,0.0,-1.0,1651072027197600.0,1
699,-1.0,-1.0,-3.0,0.0,-3.0,-1.0,-1.0,0.0,1651072027197600.0,1
700,1.0,-1.0,2.0,0.0,4.0,0.0,0.0,0.0,1651072027205639.0,1
701,-2.0,-1.0,-2.0,4.0,0.0,-1.0,1.0,-1.0,1651072027205639.0,1
702,0.0,-1.0,-1.0,0.0,2.0,2.0,0.0,-1.0,1651072027207568.0,1
703,-2.0,1.0,0.0,-1.0,-2.0,-1.0,-2.0,-1.0,1651072027207568.0,1
704,0.0,-1.0,0.0,0.0,0.0,-3.0,-1.0,-1.0,1651072027229391.0,1
705,0.0,-1.0,2.0,-6.0,1.0,-1.0,-1.0,1.0,1651072027229391.0,1
706,-1.0,-4.0,-4.0,6.0,-13.0,-5.0,0.0,-2.0,1651072027230389.0,1
707,-1.0,-1.0,0.0,1.0,13.0,3.0,2.0,0.0,1651072027230389.0,1
708,-1.0,1.0,1.0,7.0,8.0,4.0,0.0,0.0,1651072027242359.0,1
709,0.0,-1.0,-3.0,-2.0,-2.0,0.0,1.0,-1.0,1651072027242359.0,1
710,0.0,2.0,-2.0,-9.0,-3.0,-2.0,-2.0,-1.0,1651072027257318.0,1
711,-1.0,0.0,0.0,-1.0,-11.0,-3.0,0.0,0.0,1651072027257318.0,1
712,0.0,-3.0,1.0,-1.0,0.0,-1.0,0.0,-2.0,1651072027266102.0,1
713,0.0,-1.0,-1.0,0.0,0.0,-1.0,-2.0,0.0,1651072027266102.0,1
714,0.0,-3.0,-2.0,-8.0,-4.0,1.0,-1.0,-1.0,1651072027267060.0,1
715,1.0,0.0,2.0,5.0,4.0,1.0,0.0,-1.0,1651072027267060.0,1
716,-1.0,0.0,2.0,5.0,3.0,-1.0,-2.0,-2.0,1651072027288678.0,1
717,0.0,0.0,-2.0,0.0,-2.0,-2.0,-1.0,-1.0,1651072027288678.0,1
718,-2.0,1.0,0.0,0.0,3.0,-1.0,0.0,1.0,1651072027289664.0,1
719,0.0,0.0,-1.0,-9.0,-5.0,-2.0,-3.0,0.0,1651072027289664.0,1
720,0.0,-1.0,-2.0,7.0,-4.0,0.0,0.0,1.0,1651072027302632.0,1
721,-2.0,-1.0,2.0,7.0,-4.0,-2.0,-2.0,-2.0,1651072027302632.0,1
722,0.0,0.0,-3.0,-2.0,3.0,1.0,0.0,0.0,1651072027310752.0,1
723,0.0,-1.0,2.0,-3.0,2.0,3.0,1.0,-1.0,1651072027310752.0,1
724,0.0,0.0,-4.0,-5.0,3.0,-1.0,-3.0,1.0,1651072027326260.0,1
725,-2.0,0.0,0.0,-2.0,-6.0,0.0,-1.0,-3.0,1651072027326260.0,1
726,-2.0,-2.0,1.0,1.0,4.0,-3.0,-2.0,0.0,1651072027327190.0,1
727,-1.0,0.0,-1.0,3.0,-6.0,-3.0,-2.0,1.0,1651072027327190.0,1
728,-3.0,-1.0,1.0,-2.0,-3.0,-3.0,0.0,0.0,1651072027348659.0,1
729,0.0,-1.0,2.0,-3.0,-1.0,1.0,1.0,0.0,1651072027348659.0,1
730,-1.0,0.0,2.0,-2.0,-2.0,0.0,-1.0,0.0,1651072027349616.0,1
731,-2.0,-1.0,1.0,2.0,-4.0,-2.0,0.0,-1.0,1651072027349616.0,1
732,0.0,1.0,-4.0,-4.0,-2.0,-1.0,0.0,-1.0,1651072027362563.0,1
733,-2.0,-1.0,1.0,1.0,3.0,1.0,0.0,-1.0,1651072027362563.0,1
734,0.0,1.0,2.0,-6.0,4.0,-1.0,0.0,0.0,1651072027370560.0,1
735,0.0,-2.0,-3.0,9.0,1.0,-1.0,-2.0,-2.0,1651072027370560.0,1
736,1.0,-2.0,0.0,-4.0,-4.0,-1.0,0.0,-1.0,1651072027385608.0,1
737,-2.0,-2.0,-3.0,-1.0,-2.0,-2.0,-2.0,-1.0,1651072027385608.0,1
738,1.0,-1.0,-3.0,-2.0,-2.0,0.0,-1.0,0.0,1651072027387629.0,1
739,-1.0,1.0,-1.0,-3.0,-2.0,-2.0,0.0,-1.0,1651072027387629.0,1
740,1.0,-1.0,1.0,1.0,5.0,3.0,0.0,-1.0,1651072027408561.0,1
741,0.0,-3.0,-2.0,-2.0,1.0,-1.0,1.0,-1.0,1651072027408561.0,1
742,1.0,-2.0,-1.0,1.0,-2.0,0.0,-1.0,1.0,1651072027410495.0,1
743,0.0,0.0,0.0,-4.0,0.0,-2.0,-1.0,0.0,1651072027410495.0,1
744,0.0,-1.0,1.0,3.0,-4.0,-3.0,-4.0,0.0,1651072027422577.0,1
745,1.0,0.0,2.0,-1.0,3.0,0.0,1.0,1.0,1651072027422577.0,1
746,-2.0,0.0,-3.0,-5.0,0.0,-1.0,-1.0,-1.0,1651072027431617.0,1
747,-1.0,-2.0,0.0,0.0,-8.0,-2.0,0.0,-1.0,1651072027431617.0,1
748,-2.0,0.0,1.0,-8.0,4.0,0.0,-1.0,1.0,1651072027445746.0,1
749,1.0,0.0,-1.0,16.0,3.0,1.0,-1.0,0.0,1651072027445746.0,1
750,-1.0,0.0,3.0,1.0,-5.0,-2.0,-1.0,-1.0,1651072027447769.0,1
751,-2.0,-1.0,-3.0,-4.0,8.0,4.0,0.0,-1.0,1651072027447769.0,1
752,-1.0,0.0,1.0,-4.0,-7.0,-2.0,0.0,-1.0,1651072027476027.0,1
753,-2.0,-2.0,3.0,0.0,2.0,0.0,-1.0,0.0,1651072027476027.0,1
754,-2.0,-2.0,-6.0,6.0,3.0,2.0,-2.0,1.0,1651072027477956.0,1
755,-1.0,0.0,1.0,-1.0,-11.0,-2.0,-3.0,0.0,1651072027477956.0,1
756,-1.0,-1.0,-4.0,-6.0,4.0,1.0,0.0,1.0,1651072027481945.0,1
757,0.0,-1.0,-3.0,-1.0,2.0,0.0,3.0,-2.0,1651072027481945.0,1
758,-2.0,0.0,1.0,1.0,-1.0,-2.0,2.0,-2.0,1651072027490921.0,1
759,-2.0,-1.0,0.0,-4.0,0.0,0.0,1.0,0.0,1651072027490921.0,1
760,-1.0,0.0,-3.0,2.0,-5.0,0.0,2.0,0.0,1651072027505679.0,1
761,-2.0,-1.0,-2.0,-11.0,-6.0,-2.0,1.0,1.0,1651072027505679.0,1
762,0.0,-2.0,2.0,10.0,2.0,0.0,0.0,-1.0,1651072027507610.0,1
763,-1.0,0.0,-4.0,-1.0,1.0,-1.0,1.0,-1.0,1651072027507610.0,1
764,-1.0,0.0,1.0,1.0,1.0,-1.0,-1.0,-1.0,1651072027528666.0,1
765,-1.0,0.0,-2.0,-4.0,2.0,0.0,-2.0,-1.0,1651072027528666.0,1
766,3.0,1.0,-1.0,0.0,-4.0,-2.0,0.0,-1.0,1651072027529659.0,1
767,-3.0,-5.0,-5.0,-6.0,-5.0,-2.0,-2.0,-2.0,1651072027529659.0,1
768,-3.0,-1.0,2.0,-4.0,-8.0,-3.0,-3.0,-4.0,1651072027541748.0,1
769,-1.0,-5.0,-4.0,3.0,8.0,2.0,-2.0,0.0,1651072027541748.0,1
770,1.0,-2.0,-5.0,4.0,2.0,0.0,0.0,1.0,1651072027550750.0,1
771,2.0,5.0,12.0,-1.0,0.0,-1.0,1.0,1.0,1651072027550750.0,1
772,1.0,-2.0,-5.0,1.0,1.0,-1.0,1.0,0.0,1651072027565637.0,1
773,-1.0,-2.0,6.0,8.0,-5.0,-3.0,-3.0,-1.0,1651072027565637.0,1
774,-1.0,-2.0,-8.0,-6.0,-1.0,1.0,-1.0,-2.0,1651072027567567.0,1
775,0.0,-1.0,5.0,1.0,5.0,1.0,0.0,0.0,1651072027567567.0,1
776,-1.0,-2.0,-5.0,7.0,1.0,2.0,3.0,1.0,1651072027588721.0,1
777,1.0,-3.0,7.0,32.0,-6.0,-3.0,-1.0,1.0,1651072027588721.0,1
778,-6.0,7.0,7.0,-37.0,3.0,2.0,1.0,1.0,1651072027589724.0,1
779,11.0,-10.0,-12.0,28.0,-3.0,-3.0,-2.0,0.0,1651072027589724.0,1
780,1.0,2.0,-15.0,-25.0,2.0,1.0,-2.0,-4.0,1651072027601762.0,1
781,1.0,2.0,14.0,19.0,-1.0,-4.0,-3.0,0.0,1651072027601762.0,1
782,-6.0,-3.0,2.0,2.0,1.0,-1.0,0.0,1.0,1651072027617570.0,1
783,10.0,0.0,-11.0,-19.0,-5.0,-1.0,-1.0,-3.0,1651072027617570.0,1
784,-6.0,-6.0,5.0,20.0,2.0,1.0,1.0,2.0,1651072027625642.0,1
785,-11.0,8.0,-6.0,-26.0,1.0,1.0,-2.0,-6.0,1651072027625642.0,1
786,56.0,3.0,-14.0,-2.0,3.0,3.0,1.0,9.0,1651072027627600.0,1
787,-54.0,-10.0,19.0,-3.0,-1.0,1.0,-1.0,1.0,1651072027627600.0,1
788,17.0,-7.0,10.0,22.0,5.0,2.0,0.0,-7.0,1651072027648794.0,1
789,-35.0,-6.0,-26.0,-7.0,-2.0,-2.0,-1.0,-3.0,1651072027648794.0,1
790,12.0,-10.0,2.0,-5.0,-14.0,-7.0,-4.0,-1.0,1651072027649724.0,1
791,6.0,4.0,4.0,9.0,6.0,1.0,1.0,2.0,1651072027649724.0,1
792,-13.0,4.0,-9.0,-9.0,-1.0,0.0,-2.0,1.0,1651072027670969.0,1
793,20.0,2.0,-2.0,-40.0,-6.0,0.0,3.0,5.0,1651072027670969.0,1
794,-19.0,2.0,7.0,33.0,12.0,8.0,4.0,-2.0,1651072027672924.0,1
795,0.0,-9.0,-12.0,2.0,-3.0,-3.0,-2.0,2.0,1651072027672924.0,1
796,7.0,11.0,39.0,-7.0,-2.0,-2.0,0.0,-1.0,1651072027685993.0,1
797,-16.0,-17.0,-67.0,-26.0,-8.0,-4.0,-6.0,-6.0,1651072027685993.0,0
798,-6.0,2.0,8.0,-7.0,-9.0,-7.0,-3.0,-1.0,1651072027687934.0,2
799,-12.0,3.0,0.0,-1.0,4.0,2.0,-1.0,-7.0,1651072027687934.0,2
800,-8.0,-1.0,18.0,0.0,10.0,4.0,1.0,2.0,1651072027708444.0,2
801,9.0,-15.0,-11.0,-1.0,-12.0,-7.0,1.0,3.0,1651072027708444.0,2
802,1.0,-3.0,-10.0,-3.0,-1.0,1.0,-2.0,-2.0,1651072027710458.0,2
803,-27.0,3.0,16.0,41.0,5.0,1.0,-1.0,-7.0,1651072027710458.0,2
804,12.0,1.0,-20.0,-11.0,-7.0,-5.0,-2.0,-2.0,1651072027731346.0,2
805,44.0,3.0,1.0,-36.0,8.0,5.0,1.0,4.0,1651072027731346.0,2
806,-101.0,-18.0,18.0,-8.0,-6.0,0.0,2.0,-3.0,1651072027732618.0,2
807,79.0,8.0,-1.0,17.0,14.0,4.0,3.0,8.0,1651072027732618.0,2
808,-4.0,-7.0,-20.0,-11.0,-18.0,-3.0,1.0,0.0,1651072027753667.0,2
809,-13.0,15.0,17.0,12.0,2.0,-2.0,-2.0,-3.0,1651072027753667.0,2
810,46.0,2.0,-1.0,22.0,5.0,1.0,-1.0,2.0,1651072027754680.0,2
811,-40.0,10.0,8.0,-26.0,-4.0,0.0,-3.0,-3.0,1651072027754680.0,2
812,25.0,5.0,16.0,18.0,6.0,1.0,0.0,-2.0,1651072027768696.0,2
813,27.0,-16.0,-19.0,-38.0,-6.0,-1.0,3.0,4.0,1651072027768696.0,2
814,-6.0,11.0,2.0,16.0,-2.0,-1.0,-6.0,-10.0,1651072027769660.0,2
815,-19.0,-11.0,11.0,-13.0,-2.0,-4.0,0.0,3.0,1651072027769660.0,2
816,-42.0,-4.0,-20.0,26.0,12.0,2.0,-5.0,-5.0,1651072027790722.0,2
817,29.0,13.0,13.0,-18.0,-6.0,-1.0,0.0,0.0,1651072027790722.0,2
818,0.0,1.0,-7.0,-13.0,-4.0,-2.0,-1.0,0.0,1651072027792747.0,2
819,-3.0,-3.0,-6.0,-16.0,4.0,1.0,-1.0,-1.0,1651072027792747.0,2
820,34.0,26.0,25.0,45.0,3.0,1.0,1.0,3.0,1651072027804754.0,2
821,-22.0,-15.0,-4.0,14.0,4.0,3.0,6.0,9.0,1651072027804754.0,2
822,8.0,1.0,-12.0,-26.0,0.0,0.0,1.0,0.0,1651072027813837.0,2
823,-22.0,-13.0,-13.0,-24.0,-9.0,-3.0,1.0,-3.0,1651072027813837.0,2
824,7.0,-4.0,-9.0,-10.0,1.0,-1.0,-1.0,2.0,1651072027828918.0,2
825,-12.0,13.0,48.0,107.0,29.0,8.0,-1.0,-6.0,1651072027828918.0,2
826,69.0,7.0,2.0,-45.0,-11.0,-4.0,-3.0,-1.0,1651072027829878.0,2
827,-2.0,7.0,-23.0,8.0,-15.0,-6.0,0.0,3.0,1651072027829878.0,2
828,3.0,-6.0,10.0,-19.0,-6.0,-3.0,1.0,8.0,1651072027850976.0,2
829,26.0,1.0,30.0,3.0,3.0,1.0,-2.0,-4.0,1651072027850976.0,2
830,-24.0,-23.0,-24.0,-16.0,-2.0,-3.0,0.0,11.0,1651072027852953.0,2
831,32.0,16.0,29.0,38.0,16.0,5.0,-1.0,-2.0,1651072027852953.0,2
832,22.0,-19.0,-33.0,10.0,-16.0,-6.0,1.0,10.0,1651072027872968.0,2
833,-18.0,8.0,9.0,24.0,-3.0,1.0,-4.0,-8.0,1651072027872968.0,2
834,3.0,-17.0,-8.0,-6.0,9.0,3.0,2.0,8.0,1651072027874964.0,2
835,14.0,20.0,3.0,-80.0,-9.0,0.0,-1.0,-3.0,1651072027874964.0,2
836,-14.0,-19.0,-10.0,48.0,15.0,6.0,2.0,1.0,1651072027887957.0,2
837,20.0,34.0,18.0,16.0,-11.0,-2.0,-1.0,-2.0,1651072027887957.0,2
838,2.0,0.0,-2.0,25.0,11.0,-2.0,-3.0,-4.0,1651072027903886.0,2
839,-40.0,-17.0,-20.0,1.0,-10.0,-7.0,-5.0,-7.0,1651072027903886.0,2
840,-33.0,-1.0,10.0,-25.0,2.0,1.0,-2.0,-8.0,1651072027910866.0,2
841,37.0,0.0,3.0,-30.0,0.0,3.0,3.0,9.0,1651072027910866.0,2
842,-4.0,0.0,-15.0,6.0,-1.0,-1.0,0.0,-2.0,1651072027912862.0,2
843,21.0,3.0,21.0,7.0,-12.0,-4.0,-2.0,2.0,1651072027912862.0,2
844,-1.0,-12.0,-36.0,-53.0,-11.0,-10.0,-4.0,1.0,1651072027924830.0,2
845,21.0,-5.0,-11.0,-5.0,1.0,-3.0,1.0,-2.0,1651072027924830.0,2
846,1.0,5.0,14.0,7.0,-6.0,-3.0,-2.0,2.0,1651072027931838.0,2
847,8.0,-2.0,-13.0,0.0,6.0,3.0,2.0,-5.0,1651072027931838.0,2
848,-18.0,20.0,34.0,56.0,20.0,8.0,3.0,-1.0,1651072027947797.0,2
849,-89.0,-35.0,-53.0,-81.0,-21.0,-7.0,-5.0,-12.0,1651072027947797.0,2
850,4.0,6.0,28.0,23.0,9.0,6.0,4.0,-2.0,1651072027955746.0,2
851,42.0,-21.0,-55.0,-56.0,-12.0,-10.0,-5.0,1.0,1651072027955746.0,2
852,1.0,21.0,17.0,52.0,0.0,-1.0,-3.0,-6.0,1651072027972887.0,2
853,-22.0,8.0,-1.0,9.0,6.0,1.0,1.0,1.0,1651072027972887.0,2
854,-17.0,-6.0,-34.0,-26.0,-9.0,0.0,-1.0,0.0,1651072027973890.0,2
855,-29.0,-12.0,1.0,16.0,3.0,4.0,2.0,-1.0,1651072027973890.0,2
856,-12.0,-15.0,-1.0,-38.0,-15.0,-4.0,-1.0,0.0,1651072027984924.0,2
857,0.0,17.0,7.0,38.0,14.0,4.0,-2.0,1.0,1651072027984924.0,2
858,-11.0,0.0,31.0,32.0,15.0,2.0,0.0,-4.0,1651072027991843.0,2
859,4.0,12.0,-2.0,-26.0,7.0,5.0,2.0,4.0,1651072027991843.0,2
860,7.0,-14.0,-18.0,-3.0,-4.0,-3.0,0.0,2.0,1651072028008943.0,2
861,65.0,12.0,39.0,21.0,-8.0,0.0,0.0,4.0,1651072028008943.0,2
862,-59.0,7.0,-1.0,-25.0,6.0,-2.0,-4.0,-4.0,1651072028009929.0,2
863,2.0,-7.0,-17.0,-10.0,-2.0,-2.0,1.0,2.0,1651072028009929.0,2
864,7.0,20.0,20.0,36.0,8.0,4.0,3.0,5.0,1651072028031183.0,2
865,11.0,1.0,4.0,-23.0,-4.0,-6.0,-3.0,-6.0,1651072028031183.0,2
866,12.0,-3.0,6.0,31.0,-10.0,-5.0,-3.0,-5.0,1651072028032183.0,2
867,13.0,-12.0,9.0,6.0,0.0,-2.0,0.0,2.0,1651072028032183.0,2
868,-3.0,7.0,-10.0,-31.0,2.0,1.0,-2.0,-4.0,1651072028045611.0,2
869,-8.0,8.0,-3.0,12.0,-2.0,3.0,2.0,2.0,1651072028045611.0,2
870,35.0,21.0,65.0,-14.0,-6.0,1.0,5.0,4.0,1651072028051708.0,2
871,-24.0,-27.0,-91.0,0.0,-6.0,-8.0,-9.0,-11.0,1651072028051708.0,2
872,-3.0,-6.0,6.0,-16.0,-4.0,-1.0,-2.0,0.0,1651072028068580.0,2
873,-79.0,0.0,20.0,23.0,-4.0,-2.0,-2.0,-11.0,1651072028068580.0,2
874,70.0,-2.0,-10.0,-1.0,15.0,6.0,2.0,6.0,1651072028070508.0,2
875,0.0,32.0,31.0,28.0,-1.0,2.0,3.0,2.0,1651072028070508.0,2
876,-1.0,-6.0,9.0,-6.0,-7.0,-6.0,-4.0,-2.0,1651072028091313.0,2
877,-30.0,-1.0,-21.0,-26.0,4.0,-2.0,-1.0,-3.0,1651072028091313.0,2
878,-5.0,-14.0,-9.0,-7.0,-4.0,-4.0,-1.0,-3.0,1651072028092618.0,2
879,-20.0,0.0,7.0,8.0,4.0,3.0,2.0,-2.0,1651072028092618.0,2
880,2.0,2.0,-10.0,-1.0,4.0,0.0,0.0,-4.0,1651072028105651.0,2
881,-2.0,-3.0,-2.0,2.0,-2.0,2.0,1.0,6.0,1651072028105651.0,2
882,-15.0,0.0,-15.0,-46.0,-13.0,-3.0,-1.0,-8.0,1651072028112599.0,2
883,23.0,-11.0,2.0,2.0,-4.0,-2.0,-1.0,3.0,1651072028112599.0,2
884,-17.0,2.0,-6.0,-63.0,-8.0,0.0,-1.0,-1.0,1651072028128481.0,2
885,52.0,-3.0,-19.0,-19.0,2.0,-4.0,-3.0,4.0,1651072028128481.0,2
886,-96.0,15.0,28.0,50.0,13.0,7.0,2.0,-11.0,1651072028130409.0,2
887,24.0,10.0,6.0,29.0,5.0,3.0,3.0,10.0,1651072028130409.0,2
888,-5.0,-8.0,-20.0,21.0,-6.0,0.0,-2.0,-2.0,1651072028151393.0,2
889,23.0,1.0,6.0,-16.0,0.0,0.0,1.0,3.0,1651072028151393.0,2
890,22.0,-15.0,-30.0,-13.0,-10.0,-6.0,-5.0,2.0,1651072028152392.0,2
891,4.0,4.0,43.0,12.0,-3.0,1.0,-2.0,-11.0,1651072028152392.0,2
892,17.0,-19.0,-23.0,-31.0,-1.0,-4.0,1.0,-3.0,1651072028173606.0,2
893,-31.0,-11.0,-1.0,29.0,7.0,3.0,1.0,3.0,1651072028173606.0,2
894,17.0,-1.0,-2.0,-7.0,-16.0,-10.0,-2.0,3.0,1651072028175495.0,2
895,-22.0,-5.0,7.0,14.0,5.0,0.0,-4.0,1.0,1651072028175495.0,2
896,6.0,21.0,15.0,9.0,-2.0,1.0,0.0,-3.0,1651072028188670.0,2
897,-17.0,-13.0,5.0,5.0,-3.0,1.0,2.0,-1.0,1651072028188670.0,2
898,-26.0,-2.0,-5.0,12.0,0.0,0.0,0.0,2.0,1651072028189638.0,2
899,3.0,4.0,-9.0,-12.0,12.0,7.0,6.0,5.0,1651072028189638.0,2
900,-15.0,-9.0,-17.0,-24.0,-16.0,-8.0,-4.0,-3.0,1651072028211344.0,2
901,32.0,-7.0,-5.0,28.0,4.0,-3.0,-4.0,-2.0,1651072028211344.0,2
902,-11.0,-1.0,-31.0,-25.0,-10.0,-5.0,-2.0,-7.0,1651072028212615.0,2
903,25.0,8.0,-9.0,-2.0,1.0,1.0,-1.0,3.0,1651072028212615.0,2
904,-15.0,-5.0,44.0,6.0,4.0,2.0,1.0,2.0,1651072028224714.0,2
905,-10.0,6.0,9.0,23.0,-4.0,-2.0,-3.0,-10.0,1651072028224714.0,2
906,31.0,-26.0,-14.0,-31.0,-11.0,-3.0,-3.0,1.0,1651072028233621.0,2
907,-22.0,-20.0,-15.0,-1.0,-9.0,-5.0,-4.0,-5.0,1651072028233621.0,2
908,66.0,7.0,9.0,-15.0,6.0,4.0,3.0,7.0,1651072028248695.0,2
909,-31.0,13.0,-8.0,-9.0,4.0,2.0,3.0,6.0,1651072028248695.0,2
910,-16.0,6.0,-5.0,11.0,5.0,1.0,-1.0,-5.0,1651072028249664.0,2
911,11.0,16.0,22.0,6.0,3.0,3.0,2.0,3.0,1651072028249664.0,2
912,-16.0,-16.0,-30.0,-38.0,-12.0,-5.0,-3.0,-5.0,1651072028270618.0,2
913,9.0,3.0,6.0,21.0,5.0,-1.0,-3.0,2.0,1651072028270618.0,2
914,18.0,0.0,-7.0,0.0,-2.0,1.0,5.0,4.0,1651072028272546.0,2
915,-30.0,6.0,14.0,32.0,3.0,1.0,1.0,-2.0,1651072028272546.0,2
916,2.0,1.0,-4.0,-18.0,3.0,-2.0,0.0,-1.0,1651072028284668.0,2
917,-39.0,-18.0,4.0,-7.0,-3.0,0.0,0.0,-3.0,1651072028284668.0,2
918,-21.0,16.0,-8.0,2.0,-8.0,-3.0,-3.0,-4.0,1651072028293703.0,2
919,8.0,-21.0,-11.0,-6.0,-3.0,-3.0,-5.0,-2.0,1651072028293703.0,2
920,-7.0,16.0,16.0,18.0,9.0,4.0,-1.0,-9.0,1651072028307846.0,2
921,-55.0,-1.0,11.0,7.0,-7.0,0.0,0.0,-1.0,1651072028307846.0,2
922,67.0,14.0,12.0,-22.0,2.0,4.0,4.0,6.0,1651072028308778.0,2
923,12.0,-1.0,17.0,37.0,1.0,-3.0,-2.0,-4.0,1651072028308778.0,2
924,-9.0,18.0,-8.0,-12.0,-10.0,-2.0,-2.0,4.0,1651072028329737.0,2
925,8.0,4.0,7.0,13.0,6.0,1.0,-1.0,1.0,1651072028329737.0,2
926,-10.0,-4.0,20.0,37.0,7.0,3.0,3.0,5.0,1651072028337717.0,2
927,9.0,13.0,-8.0,-46.0,4.0,1.0,2.0,-6.0,1651072028337717.0,2
928,2.0,-1.0,13.0,33.0,1.0,-4.0,-1.0,-4.0,1651072028353144.0,2
929,19.0,-1.0,-26.0,-53.0,-11.0,-5.0,0.0,3.0,1651072028353144.0,2
930,6.0,11.0,9.0,19.0,4.0,5.0,0.0,2.0,1651072028353630.0,2
931,-12.0,-20.0,-7.0,9.0,-6.0,-2.0,-3.0,-2.0,1651072028353630.0,2
932,0.0,-8.0,-11.0,9.0,12.0,7.0,5.0,8.0,1651072028367722.0,2
933,-18.0,1.0,35.0,-26.0,-5.0,-3.0,-1.0,-4.0,1651072028367722.0,2
934,-50.0,-7.0,-25.0,37.0,3.0,1.0,1.0,-2.0,1651072028368651.0,2
935,-33.0,-16.0,-25.0,-9.0,-1.0,-6.0,-1.0,1.0,1651072028368651.0,2
936,0.0,-8.0,13.0,-8.0,-3.0,1.0,-2.0,-4.0,1651072028390747.0,2
937,21.0,-4.0,-2.0,5.0,-8.0,-1.0,-2.0,3.0,1651072028390747.0,2
938,18.0,0.0,3.0,-13.0,4.0,1.0,-1.0,1.0,1651072028390747.0,2
939,-18.0,12.0,24.0,7.0,0.0,-4.0,0.0,-1.0,1651072028390747.0,2
940,-26.0,-17.0,-16.0,-3.0,-14.0,-5.0,-1.0,5.0,1651072028412943.0,2
941,39.0,-3.0,-19.0,-12.0,0.0,0.0,1.0,1.0,1651072028412943.0,2
942,1.0,3.0,14.0,-1.0,1.0,0.0,-1.0,-2.0,1651072028420683.0,2
943,-3.0,3.0,-20.0,-12.0,7.0,4.0,4.0,-1.0,1651072028420683.0,2
944,52.0,10.0,8.0,9.0,5.0,-1.0,-1.0,4.0,1651072028427692.0,2
945,7.0,-4.0,4.0,26.0,3.0,1.0,2.0,-1.0,1651072028427692.0,2
946,20.0,-9.0,-14.0,-29.0,-2.0,-1.0,-1.0,1.0,1651072028428663.0,2
947,35.0,-2.0,-2.0,-18.0,-8.0,-3.0,0.0,8.0,1651072028428663.0,2
948,-41.0,8.0,27.0,36.0,12.0,4.0,2.0,-7.0,1651072028450023.0,2
949,-26.0,10.0,7.0,-7.0,-4.0,-2.0,-2.0,-6.0,1651072028450023.0,2
950,12.0,0.0,-11.0,30.0,-1.0,-1.0,-1.0,2.0,1651072028450956.0,2
951,2.0,10.0,14.0,-60.0,-14.0,-2.0,0.0,1.0,1651072028450956.0,2
952,-2.0,-21.0,-24.0,11.0,3.0,-1.0,-1.0,-3.0,1651072028472513.0,2
953,3.0,5.0,8.0,10.0,6.0,2.0,-3.0,0.0,1651072028472513.0,2
954,-18.0,-3.0,-1.0,-2.0,-1.0,-3.0,-2.0,-3.0,1651072028473444.0,2
955,3.0,13.0,17.0,-6.0,2.0,2.0,0.0,-3.0,1651072028473444.0,2
956,-5.0,15.0,-5.0,25.0,8.0,2.0,2.0,1.0,1651072028487543.0,2
957,12.0,-17.0,-6.0,-47.0,-7.0,-1.0,2.0,4.0,1651072028487543.0,2
958,22.0,0.0,6.0,36.0,-7.0,-6.0,-1.0,-1.0,1651072028488472.0,2
959,7.0,6.0,-13.0,45.0,3.0,1.0,-1.0,-2.0,1651072028488472.0,2
960,11.0,-10.0,-5.0,-44.0,-13.0,-5.0,-1.0,-2.0,1651072028510480.0,2
961,20.0,10.0,-7.0,-2.0,9.0,6.0,2.0,0.0,1651072028510480.0,2
962,-40.0,5.0,34.0,34.0,11.0,3.0,1.0,-1.0,1651072028511411.0,2
963,-4.0,2.0,-8.0,-21.0,0.0,-2.0,-3.0,2.0,1651072028511411.0,2
964,0.0,-3.0,-12.0,-33.0,-12.0,-2.0,0.0,-4.0,1651072028532536.0,2
965,7.0,2.0,1.0,13.0,-7.0,-8.0,-3.0,-1.0,1651072028532536.0,2
966,-20.0,4.0,18.0,15.0,12.0,3.0,0.0,-2.0,1651072028533469.0,2
967,31.0,-12.0,-7.0,-9.0,-7.0,-3.0,-2.0,-2.0,1651072028533469.0,2
968,-10.0,4.0,5.0,4.0,-3.0,-3.0,-1.0,-1.0,1651072028547500.0,2
969,6.0,-4.0,-9.0,-1.0,1.0,2.0,1.0,1.0,1651072028547500.0,2
970,-29.0,-7.0,13.0,-1.0,2.0,0.0,-1.0,-1.0,1651072028548427.0,2
971,21.0,-14.0,-14.0,-15.0,-5.0,-2.0,-2.0,-2.0,1651072028548427.0,2
972,-1.0,-5.0,12.0,-16.0,-5.0,-1.0,-3.0,-3.0,1651072028570694.0,2
973,-10.0,-13.0,-42.0,-8.0,-1.0,-1.0,0.0,2.0,1651072028570694.0,2
974,37.0,10.0,4.0,22.0,4.0,-5.0,-3.0,-10.0,1651072028570694.0,2
975,-1.0,16.0,26.0,34.0,7.0,1.0,-1.0,-1.0,1651072028570694.0,2
976,-13.0,0.0,1.0,-15.0,-18.0,-5.0,-5.0,0.0,1651072028592568.0,2
977,-17.0,-3.0,-3.0,0.0,5.0,0.0,-1.0,-9.0,1651072028592568.0,2
978,9.0,-5.0,-20.0,-58.0,-7.0,1.0,2.0,4.0,1651072028593558.0,2
979,-8.0,4.0,13.0,14.0,2.0,3.0,-1.0,0.0,1651072028593558.0,2
980,-15.0,-2.0,-18.0,21.0,8.0,-1.0,0.0,1.0,1651072028615498.0,2
981,-16.0,6.0,7.0,15.0,9.0,0.0,-2.0,3.0,1651072028615498.0,2
982,22.0,-10.0,-6.0,-33.0,-16.0,-7.0,-4.0,-4.0,1651072028616497.0,2
983,-51.0,-1.0,-12.0,-3.0,-9.0,-1.0,-1.0,-3.0,1651072028616497.0,2
984,-8.0,9.0,-17.0,-28.0,5.0,3.0,1.0,0.0,1651072028630642.0,2
985,5.0,1.0,4.0,-8.0,-12.0,-2.0,1.0,1.0,1651072028630642.0,2
986,-8.0,-4.0,-13.0,30.0,11.0,3.0,1.0,2.0,1651072028631405.0,2
987,11.0,-12.0,6.0,-17.0,-3.0,-4.0,-1.0,3.0,1651072028631405.0,2
988,21.0,-3.0,11.0,13.0,-2.0,-1.0,-1.0,1.0,1651072028652639.0,2
989,7.0,-3.0,-9.0,-18.0,-1.0,-3.0,-1.0,-1.0,1651072028652639.0,2
990,-10.0,-5.0,-8.0,8.0,-1.0,1.0,1.0,3.0,1651072028653569.0,2
991,-3.0,16.0,46.0,11.0,10.0,5.0,3.0,1.0,1651072028653569.0,2
992,-71.0,-29.0,-31.0,-4.0,-6.0,-4.0,-4.0,-5.0,1651072028667599.0,2
993,5.0,-16.0,-15.0,-18.0,-3.0,-3.0,-3.0,-1.0,1651072028667599.0,2
994,-9.0,7.0,11.0,-8.0,-3.0,0.0,-1.0,-1.0,1651072028668530.0,2
995,14.0,-14.0,-32.0,-6.0,-4.0,0.0,3.0,2.0,1651072028668530.0,2
996,-18.0,14.0,34.0,21.0,6.0,2.0,1.0,-3.0,1651072028690537.0,2
997,-7.0,-2.0,7.0,15.0,2.0,0.0,0.0,-1.0,1651072028690537.0,2
998,-18.0,0.0,-17.0,-38.0,-5.0,2.0,1.0,-1.0,1651072028691481.0,2
999,-19.0,-7.0,9.0,39.0,5.0,1.0,0.0,-4.0,1651072028691481.0,2
1000,40.0,3.0,7.0,7.0,3.0,-2.0,-1.0,-3.0,1651072028712432.0,2
1001,0.0,-3.0,-15.0,-34.0,-7.0,0.0,0.0,-3.0,1651072028712432.0,2
1002,15.0,-10.0,-19.0,17.0,-1.0,-1.0,-3.0,-4.0,1651072028713409.0,2
1003,10.0,6.0,6.0,-10.0,5.0,-1.0,-2.0,0.0,1651072028713409.0,2
1004,6.0,11.0,3.0,15.0,0.0,1.0,1.0,1.0,1651072028727400.0,2
1005,-3.0,0.0,12.0,-2.0,-6.0,-2.0,-1.0,-5.0,1651072028727400.0,2
1006,3.0,7.0,-17.0,-27.0,-6.0,-2.0,-1.0,-3.0,1651072028728370.0,2
1007,-36.0,-3.0,0.0,58.0,9.0,0.0,-4.0,-10.0,1651072028728370.0,2
1008,4.0,-2.0,-1.0,-13.0,4.0,4.0,0.0,1.0,1651072028750355.0,2
1009,-95.0,-19.0,-4.0,41.0,1.0,0.0,-1.0,-1.0,1651072028750355.0,2
1010,18.0,1.0,-7.0,-42.0,-10.0,-6.0,-2.0,4.0,1651072028751308.0,2
1011,6.0,11.0,6.0,-17.0,-2.0,0.0,2.0,0.0,1651072028751308.0,2
1012,9.0,8.0,9.0,34.0,4.0,1.0,1.0,3.0,1651072028772361.0,2
1013,33.0,12.0,3.0,-28.0,6.0,5.0,2.0,0.0,1651072028772361.0,2
1014,-25.0,-14.0,25.0,33.0,-1.0,-2.0,-2.0,-2.0,1651072028773332.0,2
1015,9.0,1.0,-21.0,-1.0,-3.0,-2.0,0.0,3.0,1651072028773332.0,2
1016,18.0,7.0,-9.0,-12.0,0.0,-1.0,0.0,-2.0,1651072028787355.0,2
1017,24.0,12.0,4.0,-18.0,-4.0,-1.0,-1.0,1.0,1651072028787355.0,2
1018,-5.0,-8.0,-13.0,1.0,-1.0,-3.0,-2.0,-4.0,1651072028788293.0,2
1019,23.0,7.0,-2.0,-19.0,-2.0,-3.0,-4.0,-2.0,1651072028788293.0,2
1020,5.0,3.0,-1.0,-8.0,-6.0,-1.0,-1.0,1.0,1651072028810311.0,2
1021,22.0,-9.0,-3.0,14.0,-1.0,-2.0,3.0,-1.0,1651072028810311.0,2
1022,-2.0,11.0,7.0,12.0,5.0,2.0,0.0,0.0,1651072028811306.0,2
1023,-5.0,-4.0,-8.0,-19.0,-4.0,0.0,-1.0,1.0,1651072028811306.0,2
1024,-3.0,-4.0,-13.0,6.0,-5.0,-6.0,-2.0,-1.0,1651072028833261.0,2
1025,5.0,14.0,16.0,-12.0,-1.0,0.0,-1.0,2.0,1651072028833261.0,2
1026,-1.0,-17.0,-11.0,-12.0,-2.0,-2.0,-1.0,0.0,1651072028833261.0,2
1027,0.0,8.0,8.0,29.0,7.0,4.0,0.0,2.0,1651072028833261.0,2
1028,3.0,-3.0,-4.0,-21.0,0.0,1.0,-2.0,0.0,1651072028848217.0,2
1029,13.0,2.0,6.0,19.0,3.0,4.0,0.0,0.0,1651072028848217.0,2
1030,1.0,10.0,19.0,10.0,3.0,0.0,1.0,0.0,1651072028848217.0,2
1031,-3.0,-5.0,-9.0,-22.0,-6.0,-2.0,0.0,0.0,1651072028848217.0,2
1032,3.0,-3.0,7.0,10.0,2.0,0.0,0.0,0.0,1651072028870320.0,2
1033,-1.0,-9.0,-22.0,6.0,-4.0,-3.0,-4.0,-3.0,1651072028870320.0,2
1034,-1.0,1.0,1.0,6.0,-2.0,-1.0,-1.0,1.0,1651072028871259.0,2
1035,-4.0,-6.0,1.0,-4.0,-2.0,0.0,1.0,2.0,1651072028871259.0,2
1036,2.0,1.0,1.0,-11.0,0.0,0.0,-3.0,-1.0,1651072028893200.0,2
1037,4.0,1.0,-2.0,7.0,-1.0,-2.0,0.0,-1.0,1651072028893200.0,2
1038,2.0,4.0,-5.0,-1.0,-1.0,-1.0,-2.0,-2.0,1651072028894198.0,2
1039,0.0,-5.0,7.0,-5.0,-4.0,-5.0,0.0,0.0,1651072028894198.0,2
1040,1.0,0.0,3.0,3.0,-3.0,0.0,1.0,0.0,1651072028908160.0,2
1041,2.0,1.0,1.0,5.0,0.0,0.0,1.0,1.0,1651072028908160.0,2
1042,-3.0,3.0,-1.0,-10.0,5.0,2.0,-1.0,-1.0,1651072028908160.0,2
1043,-6.0,-6.0,-2.0,12.0,-4.0,-5.0,-3.0,-3.0,1651072028908160.0,2
1044,-1.0,-4.0,-11.0,-6.0,2.0,-4.0,-2.0,-2.0,1651072028930168.0,2
1045,2.0,3.0,-1.0,1.0,0.0,2.0,-2.0,3.0,1651072028930168.0,2
1046,2.0,7.0,6.0,-1.0,4.0,2.0,2.0,0.0,1651072028931108.0,2
1047,-2.0,-3.0,-8.0,-6.0,2.0,2.0,1.0,-1.0,1651072028931108.0,2
1048,2.0,1.0,2.0,4.0,-19.0,-14.0,-2.0,-1.0,1651072028954038.0,2
1049,4.0,-2.0,-6.0,2.0,29.0,15.0,4.0,0.0,1651072028954038.0,2
1050,0.0,3.0,15.0,-8.0,6.0,8.0,2.0,1.0,1651072028955035.0,2
1051,-3.0,-6.0,-6.0,3.0,-3.0,-8.0,-4.0,-3.0,1651072028955035.0,2
1052,1.0,-4.0,-8.0,4.0,6.0,1.0,-1.0,-1.0,1651072028967069.0,2
1053,0.0,6.0,11.0,1.0,-11.0,-5.0,1.0,1.0,1651072028967069.0,2
1054,0.0,-3.0,1.0,-1.0,-5.0,-3.0,0.0,-1.0,1651072028975069.0,2
1055,0.0,0.0,-3.0,-10.0,-6.0,-4.0,1.0,2.0,1651072028975069.0,2
1056,0.0,-1.0,-2.0,-5.0,1.0,5.0,0.0,0.0,1651072028990029.0,2
1057,-1.0,-4.0,-2.0,6.0,5.0,-4.0,-1.0,-1.0,1651072028990029.0,2
1058,-3.0,-1.0,-5.0,3.0,8.0,6.0,4.0,0.0,1651072028990959.0,2
1059,1.0,1.0,0.0,-6.0,-6.0,0.0,-1.0,0.0,1651072028990959.0,2
1060,0.0,-3.0,4.0,6.0,1.0,-3.0,0.0,-2.0,1651072029013052.0,2
1061,-1.0,-1.0,-2.0,-2.0,-15.0,-2.0,-4.0,-3.0,1651072029013052.0,2
1062,0.0,-1.0,-4.0,-1.0,-1.0,-4.0,-2.0,0.0,1651072029013052.0,2
1063,0.0,0.0,2.0,-2.0,-3.0,2.0,0.0,-1.0,1651072029013052.0,2
1064,1.0,0.0,-4.0,-5.0,-5.0,1.0,0.0,1.0,1651072029027061.0,2
1065,-1.0,-1.0,-1.0,3.0,3.0,-1.0,-1.0,0.0,1651072029027061.0,2
1066,-2.0,-2.0,4.0,-3.0,-4.0,-4.0,-3.0,-2.0,1651072029035108.0,2
1067,-1.0,-2.0,-2.0,-3.0,3.0,3.0,1.0,-1.0,1651072029035108.0,2
1068,-2.0,2.0,6.0,2.0,7.0,2.0,2.0,-1.0,1651072029058250.0,2
1069,-1.0,-1.0,-15.0,0.0,-8.0,-6.0,-3.0,-1.0,1651072029058250.0,2
1070,1.0,2.0,1.0,-1.0,-10.0,-6.0,-1.0,0.0,1651072029059181.0,2
1071,-1.0,-2.0,0.0,1.0,2.0,2.0,0.0,-3.0,1651072029059181.0,2
1072,-2.0,-1.0,-1.0,-2.0,-4.0,-2.0,-1.0,1.0,1651072029073277.0,2
1073,1.0,-2.0,-1.0,-4.0,-3.0,-1.0,1.0,-1.0,1651072029073277.0,2
1074,-1.0,0.0,-1.0,14.0,4.0,3.0,0.0,-2.0,1651072029073277.0,2
1075,0.0,4.0,2.0,-3.0,-1.0,0.0,-3.0,-1.0,1651072029073277.0,2
1076,-1.0,-1.0,-1.0,-8.0,-8.0,-3.0,0.0,0.0,1651072029095686.0,2
1077,1.0,1.0,6.0,4.0,4.0,-5.0,-2.0,0.0,1651072029095686.0,2
1078,-1.0,-4.0,-1.0,14.0,8.0,8.0,-1.0,2.0,1651072029096488.0,2
1079,-1.0,0.0,-24.0,-13.0,7.0,0.0,-1.0,0.0,1651072029096488.0,2
1080,1.0,3.0,20.0,2.0,-1.0,0.0,-2.0,0.0,1651072029110445.0,2
1081,0.0,4.0,1.0,-3.0,-11.0,-2.0,-1.0,-1.0,1651072029110445.0,2
1082,-1.0,-11.0,-12.0,-8.0,-9.0,-5.0,-1.0,-2.0,1651072029117426.0,2
1083,0.0,6.0,23.0,10.0,5.0,3.0,0.0,-1.0,1651072029117426.0,2
1084,-1.0,-4.0,-6.0,-2.0,11.0,5.0,1.0,0.0,1651072029140728.0,2
1085,-2.0,2.0,4.0,3.0,-7.0,-2.0,-1.0,-3.0,1651072029140728.0,2
1086,-1.0,-2.0,-4.0,-5.0,-3.0,-2.0,-1.0,-2.0,1651072029141659.0,2
1087,-1.0,-2.0,1.0,0.0,-7.0,-2.0,-2.0,-1.0,1651072029141659.0,2
1088,-1.0,-2.0,-7.0,0.0,3.0,4.0,2.0,0.0,1651072029147669.0,2
1089,-2.0,-1.0,6.0,4.0,-1.0,-1.0,0.0,0.0,1651072029147669.0,2
1090,-1.0,4.0,-3.0,-3.0,1.0,-4.0,0.0,-1.0,1651072029148643.0,2
1091,1.0,2.0,1.0,-1.0,2.0,-1.0,1.0,0.0,1651072029148643.0,2
1092,-1.0,1.0,15.0,1.0,-1.0,-2.0,-1.0,-1.0,1651072029170733.0,2
1093,-1.0,-5.0,-23.0,-5.0,5.0,2.0,-1.0,-1.0,1651072029170733.0,2
1094,0.0,1.0,5.0,10.0,-4.0,-3.0,-5.0,-2.0,1651072029171702.0,2
1095,-1.0,1.0,-2.0,-1.0,1.0,1.0,-1.0,0.0,1651072029171702.0,2
1096,0.0,-3.0,11.0,1.0,-20.0,-7.0,-1.0,-1.0,1651072029193657.0,2
1097,-1.0,-1.0,-5.0,-3.0,11.0,0.0,1.0,-1.0,1651072029193657.0,2
1098,0.0,5.0,20.0,-17.0,-6.0,0.0,1.0,0.0,1651072029193657.0,2
1099,-2.0,-19.0,-27.0,4.0,-7.0,-3.0,-2.0,0.0,1651072029193657.0,2
1100,0.0,2.0,-11.0,9.0,13.0,2.0,-1.0,0.0,1651072029206675.0,2
1101,-1.0,-1.0,5.0,-6.0,3.0,3.0,-1.0,-1.0,1651072029206675.0,2
1102,-1.0,0.0,-10.0,-7.0,-4.0,-1.0,-1.0,-2.0,1651072029215584.0,2
1103,1.0,5.0,6.0,5.0,-17.0,-10.0,-1.0,-1.0,1651072029215584.0,2
1104,-1.0,1.0,-6.0,-3.0,8.0,9.0,1.0,-1.0,1651072029230300.0,2
1105,0.0,-5.0,-5.0,7.0,2.0,0.0,0.0,-1.0,1651072029230300.0,2
1106,-1.0,-1.0,-10.0,0.0,2.0,-2.0,0.0,0.0,1651072029231228.0,2
1107,2.0,-2.0,8.0,-4.0,3.0,3.0,2.0,-2.0,1651072029231228.0,2
1108,0.0,-1.0,-17.0,0.0,-4.0,-4.0,-1.0,0.0,1651072029253435.0,2
1109,1.0,4.0,7.0,2.0,-1.0,0.0,-1.0,-1.0,1651072029253435.0,2
1110,0.0,-2.0,-3.0,-4.0,-6.0,0.0,0.0,-1.0,1651072029254431.0,2
1111,-1.0,-2.0,-3.0,-3.0,2.0,-4.0,-2.0,1.0,1651072029254431.0,2
1112,1.0,2.0,4.0,3.0,16.0,4.0,1.0,-1.0,1651072029267438.0,2
1113,0.0,2.0,10.0,2.0,-7.0,-4.0,-2.0,-2.0,1651072029267438.0,2
1114,-2.0,-1.0,-3.0,-11.0,-6.0,-5.0,-1.0,0.0,1651072029275489.0,2
1115,1.0,3.0,9.0,11.0,7.0,4.0,1.0,-1.0,1651072029275489.0,2
1116,-1.0,-8.0,-12.0,0.0,-1.0,-3.0,-1.0,-1.0,1651072029290126.0,2
1117,-1.0,0.0,16.0,-1.0,-6.0,1.0,0.0,1.0,1651072029290126.0,2
1118,-1.0,-1.0,-26.0,-2.0,-1.0,0.0,1.0,0.0,1651072029291124.0,2
1119,-1.0,7.0,9.0,-3.0,8.0,3.0,1.0,-1.0,1651072029291124.0,2
1120,1.0,0.0,8.0,0.0,1.0,0.0,1.0,0.0,1651072029313166.0,2
1121,0.0,-11.0,-22.0,0.0,-9.0,-5.0,-2.0,-2.0,1651072029313166.0,2
1122,0.0,5.0,9.0,2.0,1.0,0.0,-2.0,-1.0,1651072029313166.0,2
1123,-3.0,-2.0,5.0,-3.0,0.0,-1.0,-2.0,-2.0,1651072029313166.0,2
1124,-1.0,-5.0,-10.0,-3.0,-7.0,-2.0,-2.0,0.0,1651072029327114.0,2
1125,2.0,4.0,2.0,1.0,-2.0,-1.0,-1.0,2.0,1651072029327114.0,2
1126,-1.0,2.0,28.0,4.0,15.0,1.0,-1.0,-2.0,1651072029335610.0,2
1127,0.0,-1.0,-6.0,-1.0,4.0,7.0,3.0,1.0,1651072029335610.0,2
1128,-3.0,-6.0,-7.0,-2.0,-10.0,-4.0,-2.0,-1.0,1651072029350440.0,2
1129,1.0,0.0,3.0,-2.0,-2.0,-3.0,-1.0,0.0,1651072029350440.0,2
1130,1.0,1.0,4.0,1.0,-5.0,-2.0,-2.0,0.0,1651072029351449.0,2
1131,-1.0,3.0,3.0,-2.0,-1.0,-1.0,0.0,-1.0,1651072029351449.0,2
1132,-3.0,2.0,-2.0,-5.0,-2.0,-2.0,-3.0,-2.0,1651072029373227.0,2
1133,1.0,-1.0,-2.0,9.0,1.0,1.0,-2.0,-3.0,1651072029373227.0,2
1134,1.0,-1.0,7.0,-2.0,-6.0,-1.0,0.0,-1.0,1651072029373227.0,2
1135,0.0,-5.0,-19.0,-4.0,3.0,-1.0,-1.0,-1.0,1651072029373227.0,2
1136,1.0,-2.0,-9.0,-1.0,3.0,0.0,-1.0,-1.0,1651072029387262.0,2
1137,0.0,1.0,1.0,-5.0,0.0,-1.0,0.0,1.0,1651072029387262.0,2
1138,1.0,-1.0,-2.0,-6.0,3.0,0.0,-1.0,0.0,1651072029395226.0,2
1139,-2.0,0.0,2.0,-2.0,-12.0,-3.0,-1.0,0.0,1651072029395226.0,2
1140,-2.0,4.0,6.0,1.0,6.0,1.0,0.0,-1.0,1651072029418367.0,2
1141,-3.0,-3.0,2.0,8.0,15.0,6.0,-1.0,0.0,1651072029418367.0,2
1142,0.0,0.0,-5.0,3.0,-14.0,0.0,1.0,0.0,1651072029419296.0,2
1143,0.0,-3.0,-12.0,-8.0,8.0,-1.0,-2.0,0.0,1651072029419296.0,2
1144,1.0,1.0,-5.0,1.0,-7.0,-2.0,1.0,0.0,1651072029433258.0,2
1145,0.0,0.0,17.0,2.0,-5.0,-4.0,0.0,-3.0,1651072029433258.0,2
1146,-1.0,-4.0,1.0,5.0,3.0,1.0,0.0,-1.0,1651072029433258.0,2
1147,-2.0,1.0,7.0,-2.0,-5.0,-2.0,-1.0,-1.0,1651072029433258.0,2
1148,1.0,0.0,1.0,-1.0,-4.0,-1.0,0.0,-1.0,1651072029447287.0,2
1149,-2.0,0.0,-1.0,-4.0,7.0,0.0,2.0,1.0,1651072029447287.0,2
1150,0.0,1.0,-2.0,-2.0,-6.0,-5.0,-1.0,0.0,1651072029455266.0,2
1151,-1.0,-6.0,-10.0,-2.0,3.0,0.0,-1.0,1.0,1651072029455266.0,2
1152,1.0,4.0,15.0,17.0,7.0,0.0,-1.0,0.0,1651072029470346.0,2
1153,-1.0,-4.0,-13.0,-5.0,-9.0,-3.0,0.0,-2.0,1651072029470346.0,2
1154,-2.0,-1.0,-4.0,-1.0,3.0,-1.0,-1.0,-2.0,1651072029471276.0,2
1155,0.0,0.0,3.0,1.0,-5.0,-2.0,-1.0,0.0,1651072029471276.0,2
1156,-1.0,-2.0,-1.0,-6.0,3.0,1.0,0.0,1.0,1651072029492346.0,2
1157,1.0,-2.0,-5.0,-1.0,-2.0,0.0,-2.0,-1.0,1651072029492346.0,2
1158,1.0,2.0,9.0,0.0,2.0,1.0,1.0,-2.0,1651072029493299.0,2
1159,-2.0,-10.0,-26.0,-1.0,2.0,1.0,-1.0,0.0,1651072029493299.0,2
1160,0.0,0.0,-1.0,-3.0,-1.0,-1.0,-1.0,0.0,1651072029507528.0,2
1161,1.0,1.0,2.0,-1.0,0.0,0.0,0.0,1.0,1651072029507528.0,2
1162,0.0,-2.0,-4.0,-5.0,1.0,0.0,-1.0,1.0,1651072029515485.0,2
1163,1.0,4.0,16.0,4.0,0.0,-1.0,1.0,-2.0,1651072029515485.0,2
1164,-2.0,-2.0,-1.0,1.0,-1.0,-2.0,0.0,-1.0,1651072029530389.0,2
1165,-1.0,-1.0,-9.0,-5.0,-3.0,-2.0,0.0,-2.0,1651072029530389.0,2
1166,-2.0,-4.0,-1.0,2.0,0.0,-1.0,-3.0,0.0,1651072029531320.0,2
1167,1.0,4.0,11.0,-1.0,-16.0,-4.0,-1.0,-1.0,1651072029531320.0,2
1168,-1.0,-3.0,-10.0,-5.0,12.0,1.0,-1.0,0.0,1651072029552541.0,2
1169,1.0,-2.0,4.0,3.0,7.0,4.0,2.0,2.0,1651072029552541.0,2
1170,-2.0,-7.0,-8.0,3.0,-1.0,-1.0,0.0,-1.0,1651072029553481.0,2
1171,0.0,3.0,8.0,-6.0,0.0,0.0,-1.0,1.0,1651072029553481.0,2
1172,0.0,0.0,-2.0,3.0,-11.0,-2.0,-1.0,-1.0,1651072029575723.0,2
1173,0.0,1.0,0.0,0.0,-4.0,-2.0,-1.0,1.0,1651072029575723.0,2
1174,-1.0,0.0,-5.0,-3.0,3.0,-1.0,0.0,0.0,1651072029576566.0,2
1175,1.0,-1.0,2.0,0.0,-2.0,0.0,-1.0,0.0,1651072029576566.0,2
1176,2.0,0.0,2.0,-8.0,-3.0,1.0,0.0,-1.0,1651072029590572.0,2
1177,-1.0,-1.0,-1.0,1.0,-3.0,-2.0,-2.0,-1.0,1651072029590572.0,2
1178,0.0,-2.0,1.0,2.0,2.0,4.0,0.0,0.0,1651072029590572.0,2
1179,0.0,1.0,2.0,1.0,-2.0,0.0,1.0,0.0,1651072029590572.0,2
1180,-1.0,1.0,3.0,1.0,2.0,2.0,3.0,0.0,1651072029613495.0,2
1181,-2.0,-1.0,-3.0,-1.0,-2.0,-4.0,-1.0,0.0,1651072029613495.0,2
1182,1.0,-2.0,-2.0,-3.0,1.0,-3.0,0.0,0.0,1651072029614455.0,2
1183,0.0,-1.0,0.0,-1.0,2.0,0.0,-1.0,1.0,1651072029614455.0,2
1184,-1.0,0.0,1.0,-2.0,0.0,0.0,-1.0,-1.0,1651072029635793.0,2
1185,-1.0,-1.0,-1.0,-3.0,-7.0,-2.0,-1.0,0.0,1651072029635793.0,2
1186,1.0,-1.0,-3.0,0.0,-2.0,0.0,1.0,0.0,1651072029636573.0,2
1187,0.0,-1.0,1.0,4.0,2.0,0.0,-2.0,-2.0,1651072029636573.0,2
1188,1.0,-1.0,-1.0,-1.0,-10.0,-2.0,1.0,1.0,1651072029650602.0,2
1189,-1.0,-1.0,-5.0,-6.0,-2.0,-2.0,-1.0,-2.0,1651072029650602.0,2
1190,-1.0,1.0,9.0,2.0,4.0,2.0,1.0,1.0,1651072029650602.0,2
1191,-1.0,-3.0,-13.0,-2.0,4.0,1.0,1.0,1.0,1651072029650602.0,2
1192,0.0,0.0,2.0,1.0,-6.0,-3.0,-1.0,0.0,1651072029672626.0,2
1193,-1.0,-1.0,-2.0,1.0,1.0,-2.0,-2.0,-1.0,1651072029672626.0,2
1194,0.0,0.0,-2.0,0.0,8.0,2.0,0.0,0.0,1651072029673638.0,2
1195,0.0,2.0,10.0,2.0,-1.0,0.0,0.0,-3.0,1651072029673638.0,2
1196,-2.0,-9.0,-14.0,-7.0,-1.0,1.0,-2.0,0.0,1651072029696384.0,2
1197,-1.0,-1.0,-1.0,-8.0,-6.0,-1.0,2.0,-2.0,1651072029696384.0,2
1198,-2.0,-1.0,-3.0,2.0,-5.0,-3.0,-2.0,-2.0,1651072029696384.0,2
1199,-1.0,3.0,12.0,11.0,14.0,2.0,1.0,-1.0,1651072029696384.0,2
1200,0.0,2.0,-9.0,-3.0,-2.0,-1.0,-1.0,-1.0,1651072029710380.0,2
1201,-1.0,-2.0,6.0,2.0,4.0,-1.0,0.0,0.0,1651072029710380.0,2
1202,2.0,1.0,-6.0,-11.0,-8.0,-1.0,0.0,-3.0,1651072029711310.0,2
1203,0.0,-1.0,-1.0,-4.0,-5.0,-3.0,2.0,-1.0,1651072029711310.0,2
1204,0.0,2.0,7.0,9.0,10.0,6.0,0.0,-2.0,1651072029732549.0,2
1205,-2.0,1.0,-5.0,-3.0,0.0,0.0,1.0,0.0,1651072029732549.0,2
1206,1.0,2.0,7.0,2.0,-1.0,-3.0,0.0,0.0,1651072029733480.0,2
1207,0.0,-5.0,-9.0,-1.0,-3.0,-1.0,-1.0,-1.0,1651072029733480.0,2
1208,1.0,2.0,4.0,-6.0,-6.0,-3.0,1.0,0.0,1651072029755843.0,2
1209,-1.0,1.0,0.0,2.0,8.0,-1.0,0.0,0.0,1651072029755843.0,2
1210,-1.0,-4.0,-2.0,0.0,0.0,2.0,0.0,0.0,1651072029756623.0,2
1211,-2.0,0.0,-1.0,1.0,-2.0,-3.0,-3.0,0.0,1651072029756623.0,2
1212,0.0,-1.0,-1.0,-2.0,-4.0,-2.0,-1.0,-1.0,1651072029770727.0,2
1213,0.0,0.0,-1.0,-1.0,-3.0,0.0,-3.0,0.0,1651072029770727.0,2
1214,-2.0,1.0,2.0,3.0,-2.0,-3.0,-2.0,0.0,1651072029770727.0,2
1215,-1.0,-1.0,-4.0,-4.0,-1.0,1.0,0.0,-2.0,1651072029770727.0,2
1216,1.0,1.0,-2.0,-2.0,0.0,-2.0,-2.0,-2.0,1651072029792870.0,2
1217,1.0,1.0,4.0,0.0,-1.0,-2.0,0.0,-1.0,1651072029792870.0,2
1218,1.0,-1.0,-3.0,2.0,6.0,3.0,1.0,-1.0,1651072029793801.0,2
1219,-1.0,0.0,-2.0,-1.0,-1.0,1.0,-1.0,-2.0,1651072029793801.0,2
1220,-2.0,-1.0,3.0,0.0,0.0,-2.0,-1.0,3.0,1651072029815789.0,2
1221,0.0,-2.0,-1.0,-2.0,-7.0,-3.0,0.0,-2.0,1651072029815789.0,2
1222,-2.0,0.0,-1.0,1.0,11.0,7.0,1.0,0.0,1651072029816606.0,2
1223,0.0,-2.0,-2.0,-1.0,0.0,3.0,-1.0,2.0,1651072029816606.0,2
1224,-1.0,-3.0,-3.0,0.0,-4.0,-6.0,-2.0,-2.0,1651072029830636.0,2
1225,-1.0,1.0,2.0,2.0,4.0,1.0,1.0,1.0,1651072029830636.0,2
1226,0.0,-4.0,-4.0,-4.0,-4.0,-2.0,0.0,-1.0,1651072029830636.0,2
1227,0.0,1.0,4.0,2.0,-2.0,-3.0,-4.0,-1.0,1651072029830636.0,2
1228,-1.0,1.0,4.0,-2.0,2.0,1.0,0.0,0.0,1651072029852692.0,2
1229,-2.0,-2.0,-8.0,-3.0,-5.0,-2.0,-1.0,-2.0,1651072029852692.0,2
1230,-2.0,3.0,12.0,2.0,-10.0,-5.0,-3.0,-3.0,1651072029853621.0,2
1231,0.0,4.0,0.0,-1.0,8.0,4.0,2.0,0.0,1651072029853621.0,2
1232,0.0,-8.0,3.0,-5.0,0.0,-2.0,1.0,-1.0,1651072029875686.0,2
1233,1.0,3.0,3.0,5.0,2.0,0.0,-1.0,-2.0,1651072029875686.0,2
1234,-2.0,-7.0,-26.0,-1.0,-2.0,0.0,-1.0,-1.0,1651072029876561.0,2
1235,0.0,-3.0,0.0,-4.0,-8.0,-3.0,1.0,0.0,1651072029876561.0,2
1236,-1.0,3.0,2.0,1.0,0.0,1.0,0.0,-1.0,1651072029890590.0,2
1237,0.0,-1.0,1.0,-5.0,1.0,2.0,1.0,1.0,1651072029890590.0,2
1238,-1.0,-1.0,2.0,-2.0,-1.0,-2.0,-2.0,-1.0,1651072029891520.0,2
1239,0.0,0.0,0.0,1.0,-1.0,0.0,0.0,0.0,1651072029891520.0,2
1240,-1.0,0.0,-5.0,-3.0,4.0,1.0,-2.0,0.0,1651072029913574.0,2
1241,0.0,-3.0,3.0,1.0,-1.0,-2.0,-3.0,0.0,1651072029913574.0,2
1242,0.0,0.0,0.0,-3.0,-2.0,-3.0,0.0,0.0,1651072029914580.0,2
1243,-1.0,-2.0,-1.0,4.0,-10.0,-4.0,0.0,-1.0,1651072029914580.0,2
1244,-3.0,-2.0,4.0,3.0,14.0,4.0,1.0,0.0,1651072029935706.0,2
1245,1.0,-1.0,-2.0,3.0,-2.0,1.0,-2.0,0.0,1651072029935706.0,2
1246,0.0,1.0,4.0,-3.0,-4.0,-1.0,-1.0,0.0,1651072029936677.0,2
1247,-2.0,-1.0,0.0,-4.0,-4.0,-1.0,-2.0,-1.0,1651072029936677.0,2
1248,-1.0,1.0,-5.0,1.0,-5.0,-2.0,1.0,-1.0,1651072029950732.0,2
1249,0.0,1.0,-3.0,-2.0,-2.0,0.0,0.0,-3.0,1651072029950732.0,2
1250,-1.0,-3.0,0.0,-2.0,-5.0,-3.0,0.0,-1.0,1651072029950732.0,2
1251,0.0,-1.0,1.0,1.0,7.0,3.0,0.0,-1.0,1651072029950732.0,2
1252,-1.0,2.0,-2.0,-3.0,-5.0,-2.0,-1.0,0.0,1651072029973758.0,2
1253,-1.0,-1.0,0.0,0.0,3.0,1.0,0.0,1.0,1651072029973758.0,2
1254,0.0,1.0,0.0,0.0,-2.0,-1.0,-2.0,-1.0,1651072029973758.0,2
1255,1.0,0.0,2.0,-1.0,6.0,0.0,0.0,-1.0,1651072029973758.0,2
1256,-1.0,0.0,0.0,0.0,-2.0,-1.0,-1.0,-2.0,1651072030003661.0,2
1257,0.0,0.0,0.0,-6.0,-11.0,-2.0,-2.0,0.0,1651072030003661.0,2
1258,0.0,1.0,-2.0,5.0,8.0,-1.0,0.0,-1.0,1651072030004631.0,2
1259,0.0,-4.0,-3.0,1.0,2.0,4.0,1.0,1.0,1651072030004631.0,2
1260,0.0,-3.0,-3.0,0.0,0.0,1.0,-1.0,0.0,1651072030010655.0,2
1261,0.0,-1.0,1.0,-1.0,-3.0,0.0,1.0,0.0,1651072030010655.0,2
1262,0.0,1.0,0.0,-2.0,-5.0,-2.0,-1.0,1.0,1651072030010655.0,2
1263,-1.0,2.0,-1.0,-3.0,4.0,-1.0,1.0,-2.0,1651072030010655.0,2
1264,2.0,2.0,10.0,0.0,-2.0,0.0,-1.0,0.0,1651072030032488.0,2
1265,-2.0,-3.0,-12.0,0.0,3.0,-1.0,1.0,0.0,1651072030032488.0,2
1266,-2.0,-1.0,6.0,0.0,1.0,1.0,-1.0,1.0,1651072030033419.0,2
1267,-1.0,0.0,-3.0,-4.0,-1.0,0.0,-1.0,-1.0,1651072030033419.0,2
1268,-3.0,-2.0,1.0,-4.0,-1.0,-2.0,0.0,-1.0,1651072030056090.0,2
1269,-3.0,-2.0,2.0,9.0,-1.0,-1.0,-3.0,-1.0,1651072030056090.0,2
1270,-1.0,-1.0,-1.0,-2.0,-5.0,-1.0,0.0,0.0,1651072030057054.0,2
1271,-1.0,-1.0,2.0,1.0,4.0,0.0,0.0,1.0,1651072030057054.0,2
1272,0.0,1.0,-7.0,-3.0,7.0,4.0,1.0,0.0,1651072030070052.0,2
1273,0.0,5.0,10.0,-5.0,-1.0,2.0,1.0,-1.0,1651072030070052.0,2
1274,-1.0,-5.0,-12.0,-1.0,7.0,0.0,0.0,0.0,1651072030070984.0,2
1275,-1.0,0.0,5.0,1.0,-8.0,-4.0,-2.0,0.0,1651072030070984.0,2
1276,1.0,-1.0,-3.0,-1.0,-1.0,0.0,0.0,-1.0,1651072030093102.0,2
1277,1.0,0.0,-3.0,-3.0,4.0,1.0,1.0,-1.0,1651072030093102.0,2
1278,-2.0,1.0,3.0,0.0,-6.0,-1.0,-2.0,0.0,1651072030093102.0,2
1279,-1.0,-1.0,1.0,-1.0,-2.0,-3.0,0.0,-1.0,1651072030093102.0,2
1280,0.0,-3.0,-7.0,3.0,0.0,-2.0,-1.0,-1.0,1651072030116315.0,2
1281,-2.0,-2.0,2.0,-1.0,-1.0,-1.0,-1.0,0.0,1651072030116315.0,2
1282,1.0,0.0,5.0,2.0,2.0,1.0,2.0,1.0,1651072030116315.0,2
1283,0.0,-4.0,-6.0,-2.0,-4.0,-1.0,0.0,0.0,1651072030116315.0,2
1284,0.0,0.0,0.0,-4.0,-3.0,-1.0,-1.0,0.0,1651072030130051.0,2
1285,0.0,-4.0,-6.0,-4.0,2.0,3.0,-1.0,0.0,1651072030130051.0,2
1286,0.0,0.0,0.0,6.0,1.0,1.0,0.0,-2.0,1651072030138099.0,2
1287,0.0,1.0,1.0,1.0,1.0,-2.0,0.0,0.0,1651072030138099.0,2
1288,-1.0,1.0,2.0,0.0,-7.0,-1.0,-1.0,0.0,1651072030153142.0,2
1289,-1.0,0.0,-2.0,-4.0,-1.0,-2.0,0.0,0.0,1651072030153142.0,2
1290,-2.0,-1.0,1.0,-4.0,-1.0,-1.0,-1.0,0.0,1651072030153142.0,2
1291,1.0,0.0,-5.0,3.0,6.0,2.0,1.0,0.0,1651072030153142.0,2
1292,0.0,3.0,6.0,-3.0,-15.0,-5.0,-1.0,-1.0,1651072030176230.0,2
1293,-2.0,-6.0,-7.0,7.0,16.0,0.0,-1.0,-2.0,1651072030176230.0,2
1294,0.0,1.0,-4.0,-5.0,0.0,0.0,1.0,1.0,1651072030177023.0,2
1295,0.0,1.0,0.0,-1.0,-5.0,-3.0,-2.0,-1.0,1651072030177023.0,2
1296,-3.0,0.0,0.0,2.0,1.0,0.0,0.0,1.0,1651072030189086.0,2
1297,1.0,1.0,1.0,0.0,-9.0,-2.0,0.0,0.0,1651072030189086.0,2
1298,-2.0,-1.0,-3.0,-1.0,-8.0,-4.0,0.0,-2.0,1651072030198138.0,2
1299,-1.0,0.0,-1.0,-4.0,6.0,4.0,0.0,-1.0,1651072030198138.0,2
1300,1.0,-2.0,-2.0,-7.0,3.0,-1.0,0.0,-2.0,1651072030213142.0,2
1301,0.0,1.0,1.0,11.0,-8.0,-3.0,1.0,0.0,1651072030213142.0,2
1302,-1.0,0.0,-6.0,-3.0,-4.0,-2.0,-1.0,-1.0,1651072030213142.0,2
1303,1.0,1.0,5.0,-1.0,-4.0,-3.0,-2.0,-1.0,1651072030213142.0,2
1304,1.0,-1.0,-3.0,2.0,3.0,1.0,-1.0,-1.0,1651072030236210.0,2
1305,-2.0,-2.0,-4.0,-8.0,-1.0,0.0,1.0,-1.0,1651072030236210.0,2
1306,2.0,0.0,1.0,0.0,-7.0,-3.0,-3.0,-2.0,1651072030237025.0,2
1307,0.0,0.0,0.0,0.0,-2.0,-1.0,-2.0,0.0,1651072030237025.0,2
1308,0.0,0.0,4.0,4.0,5.0,1.0,0.0,-2.0,1651072030250029.0,2
1309,1.0,0.0,-4.0,-4.0,-3.0,-2.0,-1.0,1.0,1651072030250029.0,2
1310,-1.0,-1.0,0.0,1.0,-6.0,1.0,0.0,0.0,1651072030258009.0,2
1311,-1.0,-2.0,-6.0,1.0,8.0,2.0,0.0,-1.0,1651072030258009.0,2
1312,1.0,0.0,0.0,8.0,6.0,1.0,-2.0,-1.0,1651072030281096.0,2
1313,0.0,2.0,4.0,-5.0,0.0,1.0,0.0,-3.0,1651072030281096.0,2
1314,0.0,-1.0,-1.0,-7.0,-3.0,-3.0,0.0,-2.0,1651072030282057.0,2
1315,-1.0,-1.0,-2.0,0.0,-3.0,2.0,-1.0,0.0,1651072030282057.0,2
1316,-2.0,-2.0,-1.0,0.0,-1.0,0.0,0.0,1.0,1651072030295661.0,2
1317,1.0,2.0,6.0,15.0,1.0,1.0,-2.0,1.0,1651072030295661.0,2
1318,1.0,0.0,5.0,-2.0,6.0,2.0,-1.0,0.0,1651072030296658.0,2
1319,-1.0,-6.0,-8.0,-2.0,-5.0,-3.0,0.0,-2.0,1651072030296658.0,2
1320,0.0,-1.0,-2.0,-8.0,-2.0,-2.0,0.0,0.0,1651072030310074.0,2
1321,-1.0,-1.0,-1.0,0.0,-7.0,-3.0,-1.0,-1.0,1651072030310074.0,2
1322,-1.0,1.0,1.0,-6.0,7.0,1.0,0.0,0.0,1651072030318058.0,2
1323,0.0,3.0,2.0,4.0,0.0,-1.0,0.0,1.0,1651072030318058.0,2
1324,1.0,-2.0,-10.0,-14.0,-10.0,-1.0,0.0,-3.0,1651072030332427.0,2
1325,-1.0,1.0,13.0,8.0,12.0,4.0,1.0,-2.0,1651072030332427.0,2
1326,0.0,-4.0,-16.0,2.0,2.0,-2.0,-1.0,0.0,1651072030333357.0,2
1327,-1.0,1.0,8.0,13.0,-1.0,1.0,-1.0,1.0,1651072030333357.0,2
1328,-2.0,-1.0,-10.0,-16.0,-4.0,0.0,-1.0,1.0,1651072030363231.0,2
1329,-3.0,0.0,2.0,5.0,-9.0,-4.0,-1.0,-1.0,1651072030363231.0,2
1330,0.0,1.0,5.0,5.0,10.0,3.0,0.0,1.0,1651072030364202.0,2
1331,0.0,2.0,1.0,-10.0,1.0,1.0,2.0,1.0,1651072030364202.0,2
1332,-2.0,-3.0,-1.0,20.0,-5.0,-4.0,-3.0,-1.0,1651072030369203.0,2
1333,0.0,-3.0,-6.0,-25.0,-2.0,1.0,0.0,1.0,1651072030369203.0,2
1334,-4.0,-4.0,-7.0,-8.0,-5.0,-2.0,-4.0,-2.0,1651072030378241.0,2
1335,0.0,1.0,0.0,1.0,1.0,-1.0,0.0,-1.0,1651072030378241.0,2
1336,-1.0,1.0,6.0,5.0,3.0,1.0,-1.0,-1.0,1651072030393169.0,2
1337,12.0,3.0,2.0,3.0,4.0,0.0,-1.0,0.0,1651072030393169.0,2
1338,-2.0,3.0,4.0,4.0,-4.0,0.0,1.0,0.0,1651072030393169.0,2
1339,0.0,2.0,1.0,42.0,7.0,0.0,0.0,-1.0,1651072030393169.0,2
1340,12.0,-1.0,2.0,-40.0,-4.0,0.0,3.0,6.0,1651072030415299.0,2
1341,-15.0,-3.0,-1.0,3.0,-6.0,-7.0,-4.0,-8.0,1651072030415299.0,2
1342,9.0,-9.0,-1.0,-7.0,-1.0,-1.0,-4.0,-6.0,1651072030416229.0,2
1343,2.0,-2.0,-1.0,-12.0,0.0,1.0,4.0,6.0,1651072030416229.0,2
1344,7.0,11.0,15.0,35.0,10.0,2.0,1.0,0.0,1651072030429193.0,2
1345,0.0,-2.0,-2.0,-6.0,-4.0,-1.0,1.0,4.0,1651072030429193.0,2
1346,5.0,2.0,-6.0,-10.0,0.0,2.0,0.0,2.0,1651072030445811.0,2
1347,27.0,8.0,4.0,-8.0,-5.0,-2.0,-1.0,-6.0,1651072030445811.0,2
1348,13.0,-7.0,-44.0,-53.0,-19.0,-12.0,-8.0,1.0,1651072030452932.0,2
1349,-24.0,14.0,18.0,4.0,3.0,1.0,0.0,-4.0,1651072030452932.0,2
1350,-41.0,-9.0,-4.0,8.0,0.0,-2.0,-4.0,-8.0,1651072030453917.0,2
1351,53.0,-9.0,13.0,11.0,-4.0,-5.0,-3.0,8.0,1651072030453917.0,2
1352,-17.0,4.0,6.0,13.0,9.0,5.0,2.0,-2.0,1651072030474927.0,2
1353,26.0,-15.0,-21.0,-17.0,-11.0,-5.0,-1.0,-1.0,1651072030474927.0,2
1354,-35.0,7.0,11.0,-6.0,7.0,4.0,3.0,6.0,1651072030475857.0,2
1355,-53.0,-4.0,-19.0,-52.0,-5.0,0.0,-2.0,-7.0,1651072030475857.0,2
1356,19.0,1.0,12.0,63.0,0.0,-7.0,-4.0,-10.0,1651072030498871.0,2
1357,-12.0,-9.0,-9.0,-18.0,-3.0,-4.0,-4.0,0.0,1651072030498871.0,2
1358,5.0,1.0,19.0,63.0,0.0,-3.0,4.0,6.0,1651072030498871.0,2
1359,-19.0,1.0,-14.0,-56.0,2.0,4.0,0.0,1.0,1651072030498871.0,2
1360,-1.0,-6.0,5.0,14.0,3.0,1.0,0.0,-1.0,1651072030512759.0,2
1361,51.0,-10.0,-16.0,-57.0,-1.0,1.0,3.0,7.0,1651072030512759.0,2
1362,-29.0,-4.0,21.0,46.0,-3.0,-1.0,1.0,-4.0,1651072030513762.0,2
1363,-2.0,-9.0,2.0,28.0,-1.0,-3.0,-2.0,-4.0,1651072030513762.0,2
1364,-7.0,13.0,-3.0,-23.0,7.0,2.0,0.0,-1.0,1651072030535731.0,2
1365,-59.0,-1.0,11.0,31.0,7.0,6.0,1.0,1.0,1651072030535731.0,2
1366,68.0,7.0,13.0,-28.0,4.0,1.0,2.0,3.0,1651072030535731.0,2
1367,-5.0,-10.0,-43.0,-13.0,-20.0,-7.0,0.0,-1.0,1651072030535731.0,2
1368,-90.0,-32.0,-7.0,27.0,1.0,-2.0,0.0,-5.0,1651072030558843.0,2
1369,95.0,25.0,10.0,-26.0,9.0,6.0,0.0,13.0,1651072030558843.0,2
1370,-31.0,-13.0,-20.0,-12.0,-7.0,-4.0,-2.0,-4.0,1651072030558843.0,2
1371,33.0,-7.0,17.0,-7.0,6.0,2.0,-2.0,2.0,1651072030558843.0,2
1372,-30.0,9.0,-18.0,-19.0,-17.0,-7.0,-4.0,-5.0,1651072030573200.0,2
1373,73.0,2.0,-13.0,20.0,0.0,-2.0,-5.0,3.0,1651072030573200.0,2
1374,-23.0,-20.0,-3.0,-5.0,-2.0,4.0,3.0,-11.0,1651072030573200.0,2
1375,-15.0,3.0,23.0,40.0,-7.0,-9.0,-6.0,4.0,1651072030573200.0,2
1376,-36.0,-1.0,-22.0,-94.0,-3.0,0.0,5.0,5.0,1651072030595640.0,2
1377,-6.0,14.0,-10.0,16.0,-4.0,-6.0,-6.0,-11.0,1651072030595640.0,2
1378,38.0,17.0,19.0,29.0,4.0,-1.0,-5.0,2.0,1651072030595640.0,2
1379,-83.0,-16.0,-10.0,34.0,4.0,1.0,-2.0,-6.0,1651072030595640.0,2
1380,-63.0,-5.0,37.0,44.0,9.0,6.0,-3.0,-9.0,1651072030618734.0,2
1381,26.0,-12.0,-20.0,-47.0,-16.0,2.0,7.0,14.0,1651072030618734.0,2
1382,-14.0,-7.0,-2.0,15.0,0.0,-9.0,-7.0,2.0,1651072030619664.0,2
1383,-77.0,9.0,-7.0,-54.0,-8.0,-6.0,-6.0,-16.0,1651072030619664.0,2
1384,77.0,3.0,22.0,72.0,8.0,2.0,2.0,8.0,1651072030633292.0,2
1385,-12.0,-44.0,-57.0,-83.0,2.0,4.0,2.0,3.0,1651072030633292.0,2
1386,24.0,21.0,-16.0,-70.0,-21.0,-3.0,1.0,3.0,1651072030633292.0,2
1387,26.0,0.0,24.0,76.0,13.0,4.0,1.0,3.0,1651072030633292.0,2
1388,24.0,9.0,14.0,2.0,9.0,4.0,2.0,-1.0,1651072030655233.0,2
1389,-33.0,-11.0,20.0,20.0,-1.0,-2.0,0.0,-4.0,1651072030655233.0,2
1390,83.0,7.0,16.0,-13.0,13.0,9.0,2.0,1.0,1651072030656253.0,2
1391,-16.0,5.0,-18.0,6.0,-9.0,-1.0,5.0,5.0,1651072030656253.0,2
1392,25.0,-22.0,-45.0,-4.0,-26.0,-19.0,-14.0,-10.0,1651072030679646.0,2
1393,-77.0,5.0,64.0,51.0,17.0,1.0,-4.0,-3.0,1651072030679646.0,2
1394,60.0,24.0,-69.0,17.0,8.0,7.0,2.0,5.0,1651072030680645.0,2
1395,9.0,-8.0,-19.0,-62.0,-8.0,-4.0,-1.0,-1.0,1651072030680645.0,2
1396,-16.0,-19.0,8.0,-28.0,-7.0,1.0,2.0,6.0,1651072030693228.0,2
1397,-23.0,-1.0,-10.0,30.0,9.0,-1.0,1.0,-2.0,1651072030693228.0,2
1398,-9.0,-8.0,25.0,17.0,-6.0,-6.0,-3.0,0.0,1651072030693228.0,2
1399,-2.0,7.0,19.0,42.0,19.0,13.0,6.0,5.0,1651072030693228.0,0
1400,26.0,20.0,21.0,35.0,3.0,3.0,3.0,2.0,1651072030723657.0,3
1401,-62.0,-2.0,1.0,-30.0,-1.0,1.0,4.0,0.0,1651072030723657.0,3
1402,-13.0,-3.0,-23.0,-77.0,1.0,-4.0,-2.0,6.0,1651072030724657.0,3
1403,-36.0,-16.0,21.0,69.0,2.0,0.0,-1.0,-10.0,1651072030724657.0,3
1404,5.0,32.0,-32.0,-71.0,-8.0,-7.0,-7.0,-8.0,1651072030738685.0,3
1405,-33.0,9.0,34.0,84.0,3.0,1.0,1.0,-5.0,1651072030738685.0,3
1406,20.0,-21.0,-10.0,-59.0,-18.0,-3.0,3.0,1.0,1651072030739628.0,3
1407,60.0,11.0,-5.0,17.0,-3.0,0.0,-3.0,3.0,1651072030739628.0,3
1408,-20.0,15.0,50.0,7.0,3.0,6.0,7.0,4.0,1651072030752872.0,3
1409,-7.0,-16.0,-53.0,-68.0,-13.0,-10.0,-4.0,-1.0,1651072030752872.0,3
1410,-63.0,0.0,24.0,110.0,8.0,-3.0,-3.0,-8.0,1651072030753866.0,3
1411,85.0,6.0,-23.0,-88.0,2.0,2.0,-1.0,-6.0,1651072030753866.0,3
1412,7.0,-6.0,39.0,16.0,5.0,3.0,1.0,2.0,1651072030776062.0,3
1413,2.0,18.0,-2.0,-74.0,6.0,4.0,-2.0,-9.0,1651072030776062.0,3
1414,-33.0,-10.0,14.0,83.0,7.0,1.0,0.0,-3.0,1651072030783043.0,3
1415,-4.0,2.0,-10.0,-64.0,-11.0,-8.0,-3.0,-1.0,1651072030783043.0,3
1416,47.0,2.0,7.0,45.0,21.0,10.0,6.0,9.0,1651072030798763.0,3
1417,3.0,4.0,3.0,21.0,-4.0,1.0,-2.0,-2.0,1651072030798763.0,3
1418,25.0,2.0,-21.0,-32.0,1.0,5.0,1.0,-8.0,1651072030798763.0,3
1419,-25.0,-6.0,22.0,28.0,-16.0,-8.0,-4.0,-4.0,1651072030798763.0,3
1420,-2.0,-8.0,-35.0,-57.0,0.0,-4.0,-3.0,-2.0,1651072030813115.0,3
1421,8.0,1.0,12.0,14.0,1.0,-1.0,-2.0,-1.0,1651072030813115.0,3
1422,-11.0,3.0,0.0,-17.0,-2.0,0.0,0.0,2.0,1651072030813828.0,3
1423,-6.0,-5.0,-18.0,9.0,-2.0,1.0,1.0,-1.0,1651072030813828.0,3
1424,94.0,11.0,31.0,48.0,12.0,7.0,3.0,8.0,1651072030835855.0,3
1425,-26.0,9.0,-18.0,64.0,-12.0,-3.0,0.0,-5.0,1651072030835855.0,3
1426,-24.0,5.0,-12.0,-23.0,4.0,-2.0,0.0,-2.0,1651072030836875.0,3
1427,42.0,-1.0,-12.0,-52.0,-6.0,-6.0,-5.0,-1.0,1651072030836875.0,3
1428,-28.0,-8.0,0.0,43.0,2.0,-6.0,-8.0,-15.0,1651072030859170.0,3
1429,62.0,20.0,54.0,54.0,18.0,13.0,10.0,8.0,1651072030859170.0,3
1430,-32.0,-30.0,-56.0,-77.0,-30.0,-13.0,-8.0,-11.0,1651072030859170.0,3
1431,4.0,2.0,-8.0,18.0,-11.0,-6.0,-1.0,4.0,1651072030859170.0,3
1432,-59.0,-8.0,-22.0,11.0,10.0,2.0,1.0,-3.0,1651072030873131.0,3
1433,64.0,8.0,25.0,62.0,7.0,5.0,3.0,5.0,1651072030873131.0,3
1434,-22.0,-6.0,12.0,0.0,-2.0,-7.0,-6.0,-3.0,1651072030873131.0,3
1435,-77.0,-9.0,-1.0,14.0,10.0,2.0,-1.0,-7.0,1651072030873131.0,3
1436,-26.0,-33.0,-60.0,-126.0,-29.0,-9.0,-2.0,-3.0,1651072030895361.0,3
1437,-9.0,-2.0,1.0,3.0,-2.0,-3.0,-1.0,-2.0,1651072030895361.0,3
1438,-28.0,9.0,43.0,45.0,21.0,7.0,5.0,8.0,1651072030896360.0,3
1439,21.0,22.0,-30.0,-62.0,-9.0,-4.0,-2.0,-7.0,1651072030896360.0,3
1440,22.0,8.0,2.0,-17.0,-16.0,-5.0,-4.0,-6.0,1651072030926404.0,3
1441,-17.0,-5.0,-42.0,-37.0,-5.0,-3.0,-1.0,0.0,1651072030926404.0,3
1442,70.0,16.0,3.0,33.0,10.0,4.0,0.0,6.0,1651072030926404.0,3
1443,1.0,-5.0,34.0,51.0,5.0,-1.0,2.0,7.0,1651072030926404.0,3
1444,-8.0,1.0,12.0,-7.0,-3.0,2.0,2.0,2.0,1651072030932380.0,3
1445,32.0,-7.0,7.0,-28.0,-3.0,-4.0,-3.0,1.0,1651072030932380.0,3
1446,-20.0,4.0,-32.0,3.0,-4.0,0.0,0.0,-3.0,1651072030933351.0,3
1447,16.0,3.0,14.0,-29.0,-3.0,2.0,2.0,4.0,1651072030933351.0,3
1448,-18.0,1.0,-16.0,-20.0,-4.0,2.0,2.0,3.0,1651072030955423.0,3
1449,22.0,-17.0,-10.0,59.0,-1.0,-8.0,-6.0,-4.0,1651072030955423.0,3
1450,40.0,1.0,31.0,-9.0,9.0,1.0,0.0,2.0,1651072030956352.0,3
1451,10.0,-5.0,-14.0,-44.0,-12.0,-2.0,2.0,3.0,1651072030956352.0,3
1452,14.0,10.0,1.0,6.0,5.0,1.0,2.0,5.0,1651072030978731.0,3
1453,-26.0,14.0,36.0,45.0,11.0,6.0,3.0,2.0,1651072030978731.0,3
1454,-34.0,2.0,-10.0,-58.0,-11.0,-1.0,1.0,1.0,1651072030979683.0,3
1455,13.0,-40.0,-17.0,-10.0,-11.0,-4.0,-3.0,4.0,1651072030979683.0,3
1456,21.0,3.0,10.0,5.0,2.0,1.0,4.0,1.0,1651072030993202.0,3
1457,-14.0,1.0,-15.0,7.0,8.0,4.0,0.0,0.0,1651072030993202.0,3
1458,-9.0,9.0,43.0,61.0,3.0,-4.0,-5.0,-8.0,1651072030993202.0,3
1459,40.0,21.0,13.0,6.0,11.0,4.0,5.0,13.0,1651072030993202.0,3
1460,-37.0,-9.0,-14.0,0.0,-12.0,-5.0,-4.0,-8.0,1651072031015483.0,3
1461,68.0,-12.0,-4.0,-24.0,-12.0,-7.0,-5.0,-5.0,1651072031015483.0,3
1462,-33.0,12.0,18.0,7.0,-4.0,0.0,0.0,-7.0,1651072031016414.0,3
1463,-21.0,12.0,-7.0,12.0,11.0,5.0,3.0,-4.0,1651072031016414.0,3
1464,13.0,1.0,7.0,-15.0,4.0,1.0,2.0,4.0,1651072031038653.0,3
1465,-20.0,-6.0,-2.0,42.0,-6.0,-5.0,-5.0,-12.0,1651072031038653.0,3
1466,-25.0,-5.0,-25.0,-47.0,0.0,3.0,1.0,0.0,1651072031038653.0,3
1467,25.0,9.0,0.0,-19.0,-2.0,-1.0,0.0,2.0,1651072031038653.0,3
1468,-7.0,-5.0,23.0,38.0,6.0,-2.0,-3.0,-1.0,1651072031052897.0,3
1469,-64.0,4.0,12.0,3.0,4.0,0.0,0.0,0.0,1651072031052897.0,3
1470,36.0,-15.0,-47.0,-61.0,-31.0,-8.0,-4.0,1.0,1651072031053901.0,3
1471,-36.0,3.0,10.0,32.0,20.0,4.0,0.0,-2.0,1651072031053901.0,3
1472,11.0,9.0,2.0,-5.0,-4.0,0.0,3.0,3.0,1651072031075238.0,3
1473,-25.0,-1.0,6.0,36.0,3.0,-1.0,-1.0,3.0,1651072031075238.0,3
1474,61.0,-6.0,-1.0,-15.0,1.0,-2.0,-1.0,-1.0,1651072031076167.0,3
1475,-19.0,1.0,0.0,2.0,-11.0,-2.0,0.0,-3.0,1651072031076167.0,3
1476,-4.0,0.0,18.0,16.0,4.0,0.0,0.0,2.0,1651072031098423.0,3
1477,8.0,-11.0,-15.0,5.0,-4.0,-2.0,0.0,3.0,1651072031098423.0,3
1478,-2.0,-6.0,9.0,26.0,9.0,1.0,1.0,3.0,1651072031099354.0,3
1479,-9.0,-1.0,-4.0,14.0,1.0,1.0,-4.0,-6.0,1651072031099354.0,3
1480,26.0,6.0,2.0,3.0,6.0,2.0,0.0,5.0,1651072031112998.0,3
1481,29.0,2.0,-6.0,-56.0,-12.0,0.0,1.0,2.0,1651072031112998.0,3
1482,-25.0,-4.0,31.0,56.0,8.0,1.0,2.0,2.0,1651072031119981.0,3
1483,12.0,15.0,1.0,-4.0,6.0,3.0,3.0,1.0,1651072031119981.0,3
1484,-9.0,-12.0,-20.0,12.0,-7.0,-6.0,-7.0,-6.0,1651072031135156.0,3
1485,-20.0,10.0,8.0,-23.0,2.0,4.0,0.0,-3.0,1651072031135156.0,3
1486,-27.0,-10.0,-18.0,9.0,-4.0,-2.0,-3.0,-2.0,1651072031136156.0,3
1487,-2.0,10.0,32.0,7.0,8.0,0.0,-1.0,-2.0,1651072031136156.0,3
1488,-30.0,-6.0,-10.0,-3.0,-13.0,-4.0,-1.0,-8.0,1651072031158461.0,3
1489,25.0,12.0,-6.0,-9.0,-4.0,-1.0,-1.0,-4.0,1651072031158461.0,3
1490,10.0,3.0,25.0,37.0,6.0,0.0,-1.0,-3.0,1651072031159392.0,3
1491,-24.0,-1.0,26.0,57.0,8.0,3.0,-1.0,1.0,1651072031159392.0,3
1492,22.0,-9.0,-44.0,-80.0,-7.0,0.0,0.0,6.0,1651072031172579.0,3
1493,2.0,8.0,-6.0,-25.0,-11.0,-4.0,-5.0,-9.0,1651072031172579.0,3
1494,15.0,15.0,-1.0,10.0,-5.0,-1.0,-1.0,-3.0,1651072031180686.0,3
1495,-3.0,8.0,18.0,-13.0,9.0,3.0,3.0,7.0,1651072031180686.0,3
1496,4.0,0.0,0.0,21.0,-5.0,-6.0,-6.0,-3.0,1651072031195762.0,3
1497,-3.0,-7.0,-12.0,-25.0,-3.0,-2.0,0.0,-3.0,1651072031195762.0,3
1498,18.0,-1.0,-29.0,-63.0,-14.0,-4.0,-4.0,2.0,1651072031195762.0,3
1499,-30.0,-2.0,5.0,28.0,2.0,-1.0,-1.0,-8.0,1651072031195762.0,3
1500,-26.0,15.0,10.0,36.0,8.0,8.0,5.0,4.0,1651072031218758.0,3
1501,-11.0,-4.0,-8.0,-34.0,-7.0,-5.0,-2.0,-1.0,1651072031218758.0,3
1502,-5.0,-2.0,-3.0,-1.0,12.0,3.0,2.0,7.0,1651072031219731.0,3
1503,-25.0,-20.0,-24.0,-43.0,-19.0,-6.0,-4.0,-5.0,1651072031219731.0,3
1504,-35.0,5.0,1.0,11.0,5.0,3.0,-3.0,-3.0,1651072031231743.0,3
1505,-2.0,2.0,19.0,47.0,13.0,5.0,1.0,0.0,1651072031231743.0,3
1506,-2.0,6.0,2.0,-35.0,-6.0,2.0,2.0,0.0,1651072031240745.0,3
1507,-12.0,-10.0,-12.0,26.0,-7.0,-7.0,-7.0,-5.0,1651072031240745.0,3
1508,17.0,-15.0,-27.0,-89.0,-11.0,-2.0,-1.0,4.0,1651072031254861.0,3
1509,10.0,-3.0,-6.0,2.0,-2.0,0.0,0.0,1.0,1651072031254861.0,3
1510,-8.0,-4.0,13.0,5.0,11.0,6.0,5.0,3.0,1651072031255828.0,3
1511,19.0,-9.0,7.0,31.0,1.0,0.0,0.0,2.0,1651072031255828.0,3
1512,15.0,-1.0,-3.0,-2.0,12.0,1.0,-1.0,0.0,1651072031278939.0,3
1513,-16.0,-4.0,-5.0,-7.0,-5.0,-5.0,-1.0,4.0,1651072031278939.0,3
1514,-28.0,-9.0,-2.0,-2.0,-4.0,0.0,0.0,-3.0,1651072031278939.0,3
1515,66.0,15.0,10.0,-8.0,2.0,3.0,0.0,2.0,1651072031278939.0,3
1516,-53.0,1.0,14.0,59.0,7.0,-1.0,-1.0,-2.0,1651072031291927.0,3
1517,5.0,3.0,1.0,-35.0,-7.0,1.0,3.0,3.0,1651072031291927.0,3
1518,-6.0,-13.0,-37.0,-38.0,-11.0,-7.0,-4.0,-5.0,1651072031299905.0,3
1519,-24.0,11.0,5.0,24.0,12.0,-1.0,-1.0,-4.0,1651072031299905.0,3
1520,16.0,9.0,-2.0,-38.0,-2.0,3.0,1.0,0.0,1651072031315078.0,3
1521,-13.0,-20.0,14.0,56.0,6.0,0.0,-3.0,4.0,1651072031315078.0,3
1522,-10.0,7.0,14.0,24.0,5.0,6.0,2.0,-4.0,1651072031316084.0,3
1523,24.0,-17.0,-14.0,-43.0,-12.0,-4.0,-3.0,-1.0,1651072031316084.0,3
1524,16.0,-1.0,17.0,61.0,14.0,-1.0,0.0,2.0,1651072031338369.0,3
1525,-5.0,-3.0,-46.0,-73.0,-16.0,-6.0,-4.0,-6.0,1651072031338369.0,3
1526,-10.0,-4.0,33.0,-18.0,10.0,2.0,-1.0,2.0,1651072031339299.0,3
1527,23.0,-3.0,-38.0,-6.0,-5.0,-4.0,-5.0,-2.0,1651072031339299.0,3
1528,-31.0,1.0,9.0,23.0,4.0,2.0,4.0,-5.0,1651072031352452.0,3
1529,3.0,15.0,27.0,-29.0,-6.0,-2.0,-2.0,1.0,1651072031352452.0,3
1530,41.0,-6.0,11.0,66.0,2.0,-1.0,1.0,2.0,1651072031360432.0,3
1531,-19.0,6.0,-14.0,-40.0,0.0,0.0,1.0,2.0,1651072031360432.0,3
1532,22.0,8.0,9.0,-3.0,-5.0,-2.0,1.0,1.0,1651072031375328.0,3
1533,-8.0,10.0,19.0,33.0,15.0,8.0,4.0,3.0,1651072031375328.0,3
1534,25.0,-16.0,-43.0,-38.0,-19.0,-7.0,-4.0,-2.0,1651072031376322.0,3
1535,15.0,-11.0,7.0,15.0,-10.0,-2.0,0.0,-2.0,1651072031376322.0,3
1536,15.0,-2.0,-12.0,-9.0,5.0,-1.0,-3.0,1.0,1651072031398331.0,3
1537,-15.0,3.0,-4.0,-23.0,-5.0,-1.0,1.0,-1.0,1651072031398331.0,3
1538,7.0,11.0,29.0,71.0,7.0,1.0,0.0,1.0,1651072031399325.0,3
1539,-27.0,-9.0,-26.0,-41.0,-9.0,-3.0,0.0,-2.0,1651072031399325.0,3
1540,10.0,-12.0,-2.0,28.0,-6.0,-4.0,-2.0,0.0,1651072031411682.0,3
1541,-12.0,-25.0,-13.0,7.0,-1.0,-2.0,-3.0,-4.0,1651072031411682.0,3
1542,-33.0,12.0,15.0,1.0,2.0,2.0,1.0,-1.0,1651072031420719.0,3
1543,73.0,1.0,29.0,47.0,16.0,4.0,2.0,9.0,1651072031420719.0,3
1544,-64.0,-23.0,-15.0,-1.0,0.0,-3.0,-1.0,-3.0,1651072031435774.0,3
1545,0.0,11.0,-27.0,-61.0,3.0,-2.0,-2.0,1.0,1651072031435774.0,3
1546,-28.0,-13.0,-6.0,-12.0,-8.0,0.0,1.0,-6.0,1651072031435774.0,3
1547,-19.0,2.0,4.0,14.0,-4.0,2.0,3.0,4.0,1651072031435774.0,3
1548,35.0,25.0,28.0,48.0,-6.0,-4.0,-3.0,-5.0,1651072031458814.0,3
1549,53.0,10.0,37.0,46.0,12.0,4.0,2.0,6.0,1651072031458814.0,3
1550,12.0,-22.0,-39.0,-22.0,0.0,-2.0,-3.0,10.0,1651072031458814.0,3
1551,-47.0,-5.0,-32.0,-53.0,-13.0,-8.0,-4.0,-7.0,1651072031458814.0,3
1552,30.0,-10.0,5.0,20.0,4.0,0.0,-3.0,1.0,1651072031480710.0,3
1553,-26.0,-7.0,-3.0,-24.0,-8.0,-2.0,-1.0,-3.0,1651072031480710.0,3
1554,5.0,16.0,16.0,46.0,7.0,-1.0,-1.0,0.0,1651072031481642.0,3
1555,8.0,-21.0,-9.0,-5.0,-4.0,-2.0,-2.0,-1.0,1651072031481642.0,3
1556,-73.0,-7.0,3.0,-36.0,-10.0,-1.0,-2.0,-2.0,1651072031495673.0,3
1557,1.0,0.0,2.0,75.0,15.0,2.0,-1.0,0.0,1651072031495673.0,3
1558,11.0,18.0,11.0,-31.0,-7.0,1.0,0.0,0.0,1651072031495673.0,3
1559,-16.0,-6.0,-9.0,-13.0,0.0,-1.0,-2.0,0.0,1651072031495673.0,3
1560,-17.0,23.0,11.0,-22.0,-4.0,1.0,0.0,-9.0,1651072031518721.0,3
1561,-11.0,-16.0,-22.0,10.0,-10.0,-8.0,-5.0,-7.0,1651072031518721.0,3
1562,24.0,7.0,-6.0,-36.0,1.0,2.0,2.0,7.0,1651072031519661.0,3
1563,12.0,4.0,19.0,40.0,0.0,-1.0,1.0,6.0,1651072031519661.0,3
1564,40.0,-2.0,-5.0,-38.0,7.0,4.0,0.0,1.0,1651072031541370.0,3
1565,-17.0,-1.0,3.0,7.0,-7.0,-1.0,-1.0,-4.0,1651072031541370.0,3
1566,0.0,7.0,-11.0,45.0,-6.0,-5.0,-3.0,-2.0,1651072031541370.0,3
1567,-3.0,10.0,15.0,-23.0,1.0,1.0,-2.0,-3.0,1651072031541370.0,3
1568,8.0,0.0,0.0,12.0,10.0,1.0,1.0,5.0,1651072031555618.0,3
1569,-42.0,4.0,6.0,38.0,-6.0,-2.0,-2.0,-7.0,1651072031555618.0,3
1570,92.0,6.0,-2.0,-25.0,-6.0,-3.0,-1.0,3.0,1651072031555618.0,3
1571,-60.0,11.0,15.0,-9.0,0.0,-2.0,0.0,-3.0,1651072031555618.0,3
1572,14.0,-13.0,-35.0,18.0,0.0,-3.0,-6.0,-5.0,1651072031578749.0,3
1573,-7.0,0.0,-9.0,-52.0,-5.0,0.0,1.0,2.0,1651072031578749.0,3
1574,-23.0,6.0,14.0,20.0,8.0,3.0,1.0,-4.0,1651072031578749.0,3
1575,22.0,-5.0,4.0,27.0,-2.0,1.0,0.0,0.0,1651072031578749.0,3
1576,37.0,13.0,10.0,-36.0,-4.0,3.0,4.0,8.0,1651072031600690.0,3
1577,2.0,-14.0,-19.0,-24.0,-1.0,0.0,-3.0,-3.0,1651072031600690.0,3
1578,-20.0,-11.0,12.0,88.0,5.0,-4.0,-5.0,-6.0,1651072031601621.0,3
1579,22.0,7.0,-19.0,-62.0,4.0,0.0,-2.0,-3.0,1651072031601621.0,3
1580,-30.0,-22.0,9.0,54.0,-8.0,-5.0,-4.0,-3.0,1651072031615697.0,3
1581,12.0,-2.0,-2.0,-91.0,-1.0,3.0,3.0,4.0,1651072031615697.0,3
1582,-43.0,-8.0,-37.0,-43.0,-23.0,-9.0,-5.0,-8.0,1651072031615697.0,3
1583,-83.0,0.0,-4.0,14.0,10.0,2.0,1.0,-3.0,1651072031615697.0,3
1584,17.0,3.0,11.0,19.0,7.0,1.0,1.0,-5.0,1651072031638670.0,3
1585,7.0,11.0,5.0,-14.0,-2.0,0.0,2.0,3.0,1651072031638670.0,3
1586,1.0,10.0,4.0,-11.0,7.0,5.0,3.0,2.0,1651072031639621.0,3
1587,19.0,7.0,3.0,-9.0,-4.0,-1.0,0.0,3.0,1651072031639621.0,3
1588,-6.0,-2.0,-11.0,-22.0,-8.0,-3.0,-2.0,-5.0,1651072031660834.0,3
1589,-14.0,7.0,10.0,41.0,12.0,4.0,1.0,2.0,1651072031660834.0,3
1590,-2.0,-23.0,5.0,-22.0,2.0,1.0,2.0,11.0,1651072031661834.0,3
1591,-37.0,19.0,-3.0,49.0,9.0,7.0,3.0,-2.0,1651072031661834.0,3
1592,-9.0,-7.0,-6.0,-29.0,-8.0,-10.0,-5.0,-3.0,1651072031674918.0,3
1593,-4.0,-9.0,2.0,-1.0,-3.0,-1.0,-2.0,-8.0,1651072031674918.0,3
1594,-11.0,-8.0,-30.0,-45.0,-8.0,-2.0,-2.0,0.0,1651072031675861.0,3
1595,53.0,2.0,25.0,62.0,15.0,4.0,2.0,6.0,1651072031675861.0,3
1596,-18.0,6.0,-21.0,-30.0,-6.0,-1.0,0.0,-6.0,1651072031698025.0,3
1597,-5.0,-1.0,4.0,24.0,2.0,-5.0,-3.0,-4.0,1651072031698025.0,3
1598,-15.0,-6.0,1.0,-31.0,7.0,0.0,-1.0,-2.0,1651072031698955.0,3
1599,79.0,-3.0,21.0,5.0,-2.0,5.0,4.0,8.0,1651072031698955.0,3
1600,-4.0,-10.0,-26.0,-22.0,2.0,-2.0,-1.0,0.0,1651072031721168.0,3
1601,73.0,12.0,-3.0,-9.0,-13.0,-2.0,1.0,2.0,1651072031721168.0,3
1602,19.0,-3.0,5.0,22.0,-2.0,0.0,-2.0,-5.0,1651072031722123.0,3
1603,-15.0,-12.0,-22.0,-15.0,-3.0,-6.0,-4.0,-4.0,1651072031722123.0,3
1604,-11.0,3.0,20.0,16.0,-3.0,-1.0,0.0,0.0,1651072031735228.0,3
1605,16.0,3.0,-21.0,-57.0,4.0,0.0,-1.0,2.0,1651072031735228.0,3
1606,1.0,-4.0,15.0,66.0,9.0,3.0,1.0,0.0,1651072031736228.0,3
1607,-40.0,-6.0,9.0,-11.0,-5.0,-4.0,-4.0,-7.0,1651072031736228.0,3
1608,64.0,-2.0,-9.0,7.0,-3.0,0.0,2.0,14.0,1651072031758586.0,3
1609,-33.0,6.0,-1.0,-4.0,5.0,0.0,-1.0,-6.0,1651072031758586.0,3
1610,-11.0,2.0,6.0,8.0,0.0,-1.0,-1.0,0.0,1651072031759512.0,3
1611,41.0,-6.0,-4.0,-7.0,0.0,-2.0,-2.0,3.0,1651072031759512.0,3
1612,-51.0,19.0,1.0,-20.0,-8.0,2.0,3.0,-9.0,1651072031780568.0,3
1613,7.0,-8.0,8.0,32.0,-4.0,-2.0,-3.0,0.0,1651072031780568.0,3
1614,-7.0,-3.0,1.0,-25.0,-2.0,-2.0,-2.0,-4.0,1651072031781534.0,3
1615,30.0,4.0,1.0,3.0,2.0,-2.0,1.0,-1.0,1651072031781534.0,3
1616,9.0,2.0,16.0,16.0,11.0,5.0,1.0,5.0,1651072031795366.0,3
1617,-4.0,1.0,-3.0,22.0,1.0,2.0,0.0,2.0,1651072031795366.0,3
1618,-6.0,8.0,3.0,-23.0,-3.0,0.0,-2.0,-5.0,1651072031796393.0,3
1619,-7.0,0.0,0.0,4.0,-10.0,-3.0,-3.0,-4.0,1651072031796393.0,3
1620,6.0,-3.0,2.0,0.0,3.0,3.0,0.0,2.0,1651072031818727.0,3
1621,-6.0,-5.0,2.0,-9.0,0.0,0.0,1.0,1.0,1651072031818727.0,3
1622,4.0,3.0,-5.0,16.0,1.0,-5.0,0.0,0.0,1651072031819656.0,3
1623,-12.0,-2.0,-6.0,-6.0,0.0,-4.0,0.0,0.0,1651072031819656.0,3
1624,4.0,-3.0,2.0,5.0,0.0,1.0,-1.0,1.0,1651072031841336.0,3
1625,-1.0,-5.0,-5.0,7.0,0.0,0.0,0.0,1.0,1651072031841336.0,3
1626,-3.0,8.0,-4.0,-17.0,-6.0,1.0,0.0,1.0,1651072031841617.0,3
1627,-6.0,-6.0,-5.0,-13.0,-4.0,2.0,0.0,-1.0,1651072031841617.0,3
1628,-1.0,-7.0,3.0,9.0,0.0,-2.0,-3.0,-2.0,1651072031855660.0,3
1629,-3.0,-2.0,-3.0,28.0,1.0,-1.0,-1.0,0.0,1651072031855660.0,3
1630,-3.0,6.0,14.0,-7.0,-1.0,-1.0,0.0,0.0,1651072031855660.0,3
1631,-3.0,1.0,-6.0,-9.0,-2.0,1.0,2.0,-1.0,1651072031855660.0,3
1632,5.0,-6.0,-5.0,7.0,-2.0,-5.0,-1.0,-1.0,1651072031878649.0,3
1633,-2.0,-1.0,2.0,-5.0,0.0,1.0,-1.0,1.0,1651072031878649.0,3
1634,0.0,1.0,2.0,-11.0,-2.0,-1.0,-1.0,-1.0,1651072031879577.0,3
1635,-1.0,2.0,3.0,20.0,1.0,2.0,-1.0,-1.0,1651072031879577.0,3
1636,2.0,-3.0,-4.0,-10.0,2.0,0.0,2.0,1.0,1651072031900698.0,3
1637,-4.0,-2.0,-3.0,-13.0,-2.0,0.0,1.0,-1.0,1651072031900698.0,3
1638,0.0,1.0,8.0,9.0,4.0,1.0,0.0,-2.0,1651072031901627.0,3
1639,-6.0,-4.0,-2.0,15.0,0.0,-4.0,-2.0,-1.0,1651072031901627.0,3
1640,10.0,-7.0,3.0,9.0,-2.0,0.0,0.0,0.0,1651072031923869.0,3
1641,-4.0,11.0,-3.0,-1.0,3.0,-2.0,-1.0,-3.0,1651072031923869.0,3
1642,-5.0,0.0,-3.0,-24.0,-10.0,-3.0,-1.0,-1.0,1651072031923869.0,3
1643,5.0,-3.0,-1.0,-2.0,-4.0,0.0,0.0,-1.0,1651072031923869.0,3
1644,-3.0,-2.0,-2.0,-5.0,-5.0,-2.0,-1.0,1.0,1651072031945569.0,3
1645,-17.0,-5.0,5.0,18.0,10.0,1.0,0.0,-1.0,1651072031945569.0,3
1646,43.0,-1.0,0.0,11.0,1.0,1.0,1.0,4.0,1651072031946570.0,3
1647,-23.0,0.0,-2.0,-17.0,-4.0,-2.0,-2.0,-2.0,1651072031946570.0,3
1648,-8.0,2.0,-2.0,-5.0,-2.0,-2.0,-2.0,-2.0,1651072031960599.0,3
1649,66.0,6.0,-5.0,-11.0,-4.0,-1.0,-1.0,0.0,1651072031960599.0,3
1650,-29.0,26.0,8.0,25.0,6.0,4.0,2.0,0.0,1651072031961543.0,3
1651,7.0,-4.0,4.0,-8.0,-1.0,-1.0,1.0,1.0,1651072031961543.0,3
1652,1.0,0.0,6.0,26.0,8.0,4.0,1.0,0.0,1651072031975365.0,3
1653,12.0,-4.0,2.0,3.0,3.0,0.0,1.0,0.0,1651072031975365.0,3
1654,-37.0,-18.0,-7.0,-27.0,-12.0,-5.0,-3.0,-7.0,1651072031976392.0,3
1655,1.0,-5.0,-3.0,-19.0,-1.0,-1.0,-1.0,-2.0,1651072031976392.0,3
1656,2.0,6.0,1.0,21.0,-2.0,-3.0,-2.0,-3.0,1651072031998528.0,3
1657,-9.0,-2.0,-1.0,3.0,1.0,3.0,0.0,2.0,1651072031998528.0,3
1658,2.0,-5.0,-8.0,-2.0,1.0,-1.0,0.0,0.0,1651072031999458.0,3
1659,-10.0,0.0,-5.0,-25.0,-5.0,-1.0,-1.0,-2.0,1651072031999458.0,3
1660,-2.0,-2.0,2.0,-9.0,2.0,0.0,-1.0,-1.0,1651072032020419.0,3
1661,-15.0,-6.0,1.0,8.0,-3.0,-2.0,0.0,-1.0,1651072032020419.0,3
1662,5.0,-2.0,-4.0,-4.0,3.0,2.0,-1.0,0.0,1651072032027401.0,3
1663,8.0,5.0,3.0,11.0,-1.0,0.0,-1.0,-1.0,1651072032027401.0,3
1664,4.0,1.0,-1.0,3.0,-5.0,-3.0,-1.0,0.0,1651072032034411.0,3
1665,-12.0,-1.0,2.0,-6.0,-5.0,-2.0,-1.0,-1.0,1651072032034411.0,3
1666,0.0,-1.0,-5.0,-9.0,-2.0,-1.0,0.0,2.0,1651072032042459.0,3
1667,1.0,3.0,1.0,0.0,3.0,0.0,0.0,-1.0,1651072032042459.0,3
1668,-1.0,2.0,3.0,-1.0,0.0,0.0,1.0,2.0,1651072032059370.0,3
1669,-12.0,-4.0,-4.0,6.0,0.0,2.0,-2.0,-1.0,1651072032059370.0,3
1670,-1.0,-4.0,-4.0,-18.0,-3.0,-2.0,0.0,-2.0,1651072032059370.0,3
1671,-3.0,-4.0,2.0,23.0,-4.0,-2.0,-3.0,-2.0,1651072032059370.0,3
1672,1.0,2.0,-6.0,-18.0,-2.0,1.0,-2.0,-1.0,1651072032081373.0,3
1673,-3.0,1.0,1.0,-4.0,-3.0,0.0,-1.0,0.0,1651072032081373.0,3
1674,4.0,-2.0,-2.0,7.0,4.0,-1.0,0.0,-1.0,1651072032081373.0,3
1675,3.0,2.0,1.0,2.0,-1.0,0.0,0.0,0.0,1651072032081373.0,3
1676,0.0,0.0,3.0,-6.0,0.0,1.0,1.0,1.0,1651072032094661.0,3
1677,-6.0,-3.0,-2.0,1.0,-4.0,-3.0,-2.0,0.0,1651072032094661.0,3
1678,0.0,0.0,-2.0,2.0,-2.0,0.0,-1.0,-1.0,1651072032102705.0,3
1679,-2.0,-2.0,0.0,-1.0,1.0,1.0,1.0,0.0,1651072032102705.0,3
1680,-4.0,-4.0,2.0,10.0,4.0,1.0,-3.0,-1.0,1651072032118719.0,3
1681,-3.0,-1.0,4.0,3.0,3.0,-1.0,1.0,-2.0,1651072032118719.0,3
1682,-1.0,-2.0,0.0,3.0,0.0,2.0,-1.0,-3.0,1651072032119657.0,3
1683,0.0,2.0,0.0,2.0,-2.0,-1.0,-3.0,0.0,1651072032119657.0,3
1684,1.0,3.0,-4.0,-10.0,-3.0,-1.0,-2.0,1.0,1651072032142708.0,3
1685,-2.0,-1.0,-3.0,-3.0,-9.0,-6.0,-3.0,-1.0,1651072032142708.0,3
1686,2.0,-2.0,0.0,5.0,10.0,-2.0,1.0,-2.0,1651072032142708.0,3
1687,1.0,2.0,0.0,-1.0,0.0,0.0,0.0,0.0,1651072032142708.0,3
1688,-1.0,-3.0,-3.0,-3.0,-8.0,-4.0,-1.0,-2.0,1651072032154726.0,3
1689,-4.0,0.0,0.0,-4.0,4.0,-2.0,0.0,0.0,1651072032154726.0,3
1690,1.0,-2.0,-1.0,2.0,0.0,4.0,1.0,-1.0,1651072032163225.0,3
1691,0.0,-1.0,0.0,1.0,1.0,-2.0,0.0,0.0,1651072032163225.0,3
1692,-2.0,-1.0,-3.0,-6.0,8.0,2.0,0.0,1.0,1651072032178357.0,3
1693,-3.0,2.0,0.0,-3.0,-8.0,-1.0,-1.0,-2.0,1651072032178357.0,3
1694,0.0,-1.0,-1.0,-1.0,-11.0,-3.0,0.0,1.0,1651072032179288.0,3
1695,-1.0,1.0,-2.0,1.0,4.0,-1.0,-1.0,-2.0,1651072032179288.0,3
1696,0.0,0.0,-1.0,-2.0,10.0,4.0,1.0,0.0,1651072032200707.0,3
1697,-1.0,0.0,-2.0,1.0,0.0,-2.0,0.0,-2.0,1651072032200707.0,3
1698,-1.0,-1.0,2.0,-5.0,0.0,1.0,-2.0,-1.0,1651072032201638.0,3
1699,-1.0,0.0,1.0,6.0,-12.0,-2.0,-1.0,0.0,1651072032201638.0,3
1700,0.0,0.0,-1.0,-9.0,-8.0,-5.0,1.0,0.0,1651072032223621.0,3
1701,-3.0,-2.0,1.0,7.0,9.0,5.0,0.0,0.0,1651072032223621.0,3
1702,0.0,1.0,0.0,-2.0,-7.0,-4.0,-1.0,-1.0,1651072032224589.0,3
1703,1.0,0.0,-1.0,-4.0,3.0,-4.0,-2.0,-3.0,1651072032224589.0,3
1704,0.0,-3.0,-2.0,-2.0,2.0,1.0,-1.0,0.0,1651072032238566.0,3
1705,2.0,1.0,-3.0,-6.0,-4.0,0.0,-1.0,1.0,1651072032238566.0,3
1706,-3.0,-2.0,-3.0,2.0,-7.0,-5.0,-2.0,-1.0,1651072032239564.0,3
1707,0.0,1.0,-1.0,-4.0,10.0,7.0,3.0,1.0,1651072032239564.0,3
1708,-1.0,0.0,2.0,10.0,-5.0,-2.0,-1.0,-1.0,1651072032260821.0,3
1709,0.0,-1.0,-1.0,-4.0,-1.0,0.0,1.0,0.0,1651072032260821.0,3
1710,0.0,0.0,-1.0,4.0,11.0,4.0,-1.0,1.0,1651072032261775.0,3
1711,-1.0,2.0,2.0,-2.0,-5.0,-1.0,-1.0,1.0,1651072032261775.0,3
1712,-1.0,-2.0,-2.0,-5.0,-3.0,0.0,-1.0,-1.0,1651072032274809.0,3
1713,0.0,1.0,-1.0,-1.0,0.0,1.0,-1.0,1.0,1651072032274809.0,3
1714,0.0,-2.0,0.0,2.0,-2.0,-4.0,-1.0,-1.0,1651072032282434.0,3
1715,0.0,-2.0,-1.0,0.0,2.0,1.0,1.0,0.0,1651072032282434.0,3
1716,0.0,-1.0,-4.0,-2.0,-5.0,-3.0,0.0,-1.0,1651072032298420.0,3
1717,0.0,0.0,-2.0,-1.0,-5.0,-2.0,0.0,-1.0,1651072032298420.0,3
1718,0.0,1.0,-1.0,-2.0,-7.0,2.0,-1.0,1.0,1651072032299352.0,3
1719,0.0,-1.0,-3.0,3.0,14.0,0.0,-2.0,0.0,1651072032299352.0,3
1720,-2.0,0.0,-2.0,-4.0,-7.0,-1.0,1.0,1.0,1651072032320615.0,3
1721,-1.0,0.0,-1.0,2.0,6.0,0.0,0.0,0.0,1651072032320615.0,3
1722,-1.0,1.0,-2.0,0.0,-4.0,0.0,-2.0,-2.0,1651072032321616.0,3
1723,0.0,0.0,3.0,1.0,-10.0,-4.0,-1.0,-1.0,1651072032321616.0,3
1724,0.0,3.0,-2.0,-3.0,0.0,-3.0,-1.0,1.0,1651072032334713.0,3
1725,0.0,-6.0,4.0,-1.0,5.0,4.0,1.0,0.0,1651072032334713.0,3
1726,1.0,4.0,-4.0,-1.0,0.0,-2.0,-1.0,0.0,1651072032343186.0,3
1727,-3.0,-4.0,0.0,2.0,6.0,2.0,-2.0,-2.0,1651072032343186.0,3
1728,-1.0,0.0,5.0,-1.0,0.0,1.0,-1.0,-1.0,1651072032358436.0,3
1729,-2.0,1.0,-1.0,0.0,-2.0,1.0,-1.0,-1.0,1651072032358436.0,3
1730,-3.0,-3.0,0.0,0.0,1.0,-1.0,0.0,-1.0,1651072032359366.0,3
1731,-1.0,1.0,-3.0,-4.0,-4.0,-2.0,0.0,1.0,1651072032359366.0,3
1732,-1.0,1.0,0.0,1.0,3.0,0.0,1.0,-1.0,1651072032380575.0,3
1733,-1.0,-1.0,5.0,-2.0,-8.0,-2.0,-2.0,0.0,1651072032380575.0,3
1734,-1.0,-8.0,-16.0,-6.0,-1.0,-1.0,0.0,-2.0,1651072032381575.0,3
1735,-1.0,2.0,4.0,1.0,-9.0,-5.0,-3.0,-1.0,1651072032381575.0,3
1736,1.0,0.0,4.0,4.0,32.0,15.0,4.0,3.0,1651072032403494.0,3
1737,-2.0,3.0,10.0,2.0,-15.0,-6.0,-4.0,-3.0,1651072032403494.0,3
1738,-1.0,-5.0,-11.0,9.0,5.0,-1.0,0.0,1.0,1651072032404424.0,3
1739,-1.0,1.0,0.0,0.0,-5.0,1.0,0.0,-2.0,1651072032404424.0,3
1740,-4.0,-7.0,-11.0,-6.0,-9.0,-6.0,-2.0,-2.0,1651072032417455.0,3
1741,0.0,3.0,-1.0,-4.0,5.0,2.0,2.0,1.0,1651072032417455.0,3
1742,1.0,4.0,5.0,0.0,-4.0,0.0,0.0,1.0,1651072032426390.0,3
1743,-1.0,-4.0,-1.0,1.0,6.0,2.0,-1.0,0.0,1651072032426390.0,3
1744,0.0,7.0,7.0,0.0,-6.0,-3.0,-1.0,0.0,1651072032441310.0,3
1745,0.0,-13.0,-7.0,-4.0,7.0,2.0,-1.0,-1.0,1651072032441310.0,3
1746,0.0,8.0,5.0,-2.0,-1.0,-2.0,0.0,0.0,1651072032441615.0,3
1747,-1.0,1.0,-5.0,0.0,-2.0,1.0,0.0,1.0,1651072032441615.0,3
1748,-1.0,3.0,6.0,-2.0,1.0,-5.0,-1.0,-1.0,1651072032463659.0,3
1749,0.0,-1.0,-2.0,0.0,-6.0,-1.0,-1.0,-2.0,1651072032463659.0,3
1750,-1.0,1.0,6.0,1.0,4.0,2.0,-1.0,-2.0,1651072032464629.0,3
1751,-2.0,-1.0,-2.0,-1.0,-2.0,-3.0,-3.0,-2.0,1651072032464629.0,3
1752,1.0,-6.0,-14.0,-7.0,-16.0,2.0,-1.0,0.0,1651072032477598.0,3
1753,0.0,-3.0,-3.0,1.0,8.0,0.0,0.0,-1.0,1651072032477598.0,3
1754,1.0,3.0,1.0,-1.0,17.0,6.0,2.0,-1.0,1651072032485720.0,3
1755,-2.0,-5.0,-4.0,-1.0,-13.0,-4.0,-2.0,-1.0,1651072032485720.0,3
1756,-1.0,1.0,2.0,-1.0,5.0,-1.0,-3.0,0.0,1651072032501582.0,3
1757,-1.0,4.0,7.0,-4.0,-12.0,-4.0,0.0,1.0,1651072032501582.0,3
1758,-5.0,-9.0,-19.0,-1.0,3.0,-2.0,0.0,-1.0,1651072032502578.0,3
1759,1.0,5.0,4.0,-1.0,3.0,1.0,0.0,-1.0,1651072032502578.0,3
1760,2.0,9.0,10.0,-1.0,-8.0,-4.0,-1.0,-1.0,1651072032523521.0,3
1761,0.0,-15.0,-8.0,-1.0,-2.0,2.0,0.0,0.0,1651072032523521.0,3
1762,1.0,-2.0,2.0,-2.0,-7.0,-4.0,-3.0,-1.0,1651072032524519.0,3
1763,0.0,0.0,-9.0,-2.0,0.0,0.0,0.0,0.0,1651072032524519.0,3
1764,0.0,0.0,2.0,0.0,4.0,1.0,-1.0,0.0,1651072032537410.0,3
1765,-2.0,6.0,-1.0,3.0,2.0,-3.0,1.0,0.0,1651072032537410.0,3
1766,-1.0,-3.0,4.0,2.0,-4.0,-1.0,-1.0,0.0,1651072032546441.0,3
1767,-2.0,-1.0,5.0,3.0,-3.0,-3.0,-1.0,-2.0,1651072032546441.0,3
1768,0.0,3.0,-5.0,-4.0,-5.0,-1.0,1.0,0.0,1651072032560461.0,3
1769,1.0,10.0,13.0,-3.0,-3.0,-2.0,-1.0,0.0,1651072032560461.0,3
1770,-2.0,-12.0,-2.0,-3.0,9.0,4.0,0.0,0.0,1651072032562394.0,3
1771,1.0,15.0,8.0,1.0,7.0,1.0,0.0,0.0,1651072032562394.0,3
1772,-3.0,-20.0,-6.0,-2.0,-4.0,-3.0,-2.0,-2.0,1651072032583768.0,3
1773,-4.0,-3.0,0.0,-2.0,-6.0,-3.0,0.0,-1.0,1651072032583768.0,3
1774,1.0,10.0,6.0,-3.0,-10.0,-3.0,-3.0,0.0,1651072032584767.0,3
1775,2.0,-8.0,0.0,0.0,3.0,1.0,1.0,-1.0,1651072032584767.0,3
1776,-1.0,9.0,12.0,3.0,5.0,3.0,0.0,-1.0,1651072032596791.0,3
1777,-1.0,3.0,-9.0,-1.0,0.0,-2.0,0.0,1.0,1651072032596791.0,3
1778,-3.0,-25.0,-12.0,-2.0,-3.0,0.0,-1.0,-3.0,1651072032606698.0,3
1779,-2.0,-1.0,-2.0,1.0,0.0,1.0,0.0,0.0,1651072032606698.0,3
1780,1.0,1.0,1.0,1.0,-3.0,-5.0,-2.0,-2.0,1651072032621359.0,3
1781,0.0,2.0,-4.0,4.0,10.0,3.0,1.0,1.0,1651072032621359.0,3
1782,0.0,2.0,4.0,1.0,-2.0,-1.0,-1.0,0.0,1651072032622627.0,3
1783,2.0,4.0,-4.0,-3.0,-3.0,-1.0,-1.0,0.0,1651072032622627.0,3
1784,-1.0,-3.0,6.0,1.0,-1.0,-2.0,-1.0,-2.0,1651072032643608.0,3
1785,-1.0,5.0,-6.0,-4.0,-8.0,-3.0,-1.0,-1.0,1651072032643608.0,3
1786,2.0,1.0,2.0,4.0,17.0,3.0,0.0,1.0,1651072032644624.0,3
1787,0.0,-9.0,-6.0,-6.0,-6.0,-2.0,-3.0,0.0,1651072032644624.0,3
1788,1.0,3.0,2.0,-1.0,-6.0,0.0,-1.0,-1.0,1651072032657589.0,3
1789,-3.0,-5.0,-7.0,-2.0,2.0,-1.0,1.0,-3.0,1651072032657589.0,3
1790,-2.0,7.0,-24.0,-3.0,-8.0,-1.0,0.0,2.0,1651072032666564.0,3
1791,0.0,0.0,14.0,3.0,-2.0,-1.0,0.0,0.0,1651072032666564.0,3
1792,-2.0,-8.0,-12.0,-2.0,2.0,-2.0,0.0,-1.0,1651072032681360.0,3
1793,0.0,-2.0,0.0,-2.0,0.0,-2.0,-2.0,-1.0,1651072032681360.0,3
1794,0.0,5.0,12.0,1.0,-2.0,-1.0,0.0,-3.0,1651072032682618.0,3
1795,0.0,-4.0,-7.0,0.0,5.0,0.0,-1.0,1.0,1651072032682618.0,3
1796,-3.0,1.0,6.0,0.0,-1.0,0.0,1.0,0.0,1651072032703597.0,3
1797,1.0,2.0,-18.0,1.0,1.0,2.0,1.0,-1.0,1651072032703597.0,3
1798,0.0,-5.0,-2.0,-1.0,-6.0,-5.0,-1.0,0.0,1651072032705383.0,3
1799,0.0,1.0,4.0,-1.0,2.0,2.0,2.0,-3.0,1651072032705383.0,3
1800,-4.0,-3.0,3.0,0.0,4.0,3.0,-1.0,1.0,1651072032717324.0,3
1801,-1.0,-1.0,-4.0,-3.0,-4.0,0.0,-3.0,-1.0,1651072032717324.0,3
1802,-1.0,5.0,11.0,0.0,0.0,-1.0,0.0,1.0,1651072032726418.0,3
1803,-1.0,4.0,5.0,2.0,0.0,0.0,0.0,0.0,1651072032726418.0,3
1804,-2.0,-10.0,-3.0,-2.0,-1.0,-3.0,-1.0,-2.0,1651072032748460.0,3
1805,1.0,0.0,10.0,0.0,-6.0,-4.0,-1.0,-1.0,1651072032748460.0,3
1806,-2.0,0.0,1.0,2.0,6.0,0.0,-2.0,-2.0,1651072032750396.0,3
1807,-1.0,4.0,2.0,-1.0,-6.0,0.0,0.0,0.0,1651072032750396.0,3
1808,1.0,-1.0,-8.0,3.0,3.0,0.0,1.0,-1.0,1651072032763609.0,3
1809,-3.0,-1.0,1.0,-4.0,-5.0,-2.0,0.0,0.0,1651072032763609.0,3
1810,1.0,1.0,4.0,-1.0,-8.0,-1.0,1.0,0.0,1651072032765373.0,3
1811,-2.0,0.0,4.0,0.0,2.0,-1.0,-2.0,0.0,1651072032765373.0,3
1812,-2.0,-3.0,-22.0,-5.0,-5.0,-2.0,-1.0,0.0,1651072032777382.0,3
1813,-1.0,-2.0,-4.0,1.0,7.0,3.0,1.0,-1.0,1651072032777382.0,3
1814,-1.0,-2.0,7.0,-1.0,-5.0,-3.0,-1.0,-1.0,1651072032786602.0,3
1815,-1.0,-3.0,-4.0,0.0,0.0,-3.0,-1.0,0.0,1651072032786602.0,3
1816,0.0,7.0,1.0,-1.0,-8.0,-2.0,-2.0,-1.0,1651072032801211.0,3
1817,1.0,-8.0,-8.0,1.0,6.0,2.0,-1.0,0.0,1651072032801211.0,3
1818,1.0,4.0,8.0,-1.0,0.0,2.0,0.0,-1.0,1651072032802200.0,3
1819,1.0,-4.0,-12.0,-2.0,-2.0,0.0,-1.0,0.0,1651072032802200.0,3
1820,1.0,1.0,13.0,0.0,-9.0,-2.0,0.0,-2.0,1651072032823692.0,3
1821,-1.0,1.0,-5.0,1.0,17.0,3.0,-1.0,-1.0,1651072032823692.0,3
1822,-2.0,-1.0,27.0,-1.0,-3.0,-3.0,0.0,1.0,1651072032824688.0,3
1823,1.0,-5.0,-32.0,-4.0,-5.0,0.0,-3.0,-1.0,1651072032824688.0,3
1824,1.0,2.0,-1.0,1.0,-4.0,-1.0,-1.0,0.0,1651072032836722.0,3
1825,-2.0,-5.0,-5.0,1.0,-1.0,0.0,-1.0,-1.0,1651072032836722.0,3
1826,0.0,1.0,-6.0,-3.0,-2.0,0.0,-1.0,0.0,1651072032845698.0,3
1827,-1.0,1.0,14.0,1.0,1.0,-1.0,0.0,-2.0,1651072032845698.0,3
1828,0.0,0.0,-2.0,-1.0,3.0,0.0,-2.0,1.0,1651072032860618.0,3
1829,0.0,0.0,0.0,0.0,-4.0,-1.0,0.0,1.0,1651072032860618.0,3
1830,0.0,0.0,-2.0,1.0,-1.0,-1.0,-1.0,-1.0,1651072032862546.0,3
1831,-2.0,-2.0,-2.0,0.0,4.0,0.0,0.0,-1.0,1651072032862546.0,3
1832,-1.0,-2.0,-5.0,0.0,6.0,4.0,0.0,-1.0,1651072032883556.0,3
1833,1.0,1.0,11.0,-1.0,-4.0,-1.0,-1.0,-1.0,1651072032883556.0,3
1834,0.0,0.0,-8.0,-3.0,-3.0,-2.0,-1.0,-1.0,1651072032885489.0,3
1835,-1.0,-1.0,-1.0,-2.0,-1.0,-2.0,0.0,0.0,1651072032885489.0,3
1836,-1.0,-4.0,-1.0,3.0,1.0,-4.0,-3.0,-1.0,1651072032897584.0,3
1837,1.0,3.0,14.0,-3.0,-6.0,-3.0,-1.0,-1.0,1651072032897584.0,3
1838,-2.0,-6.0,-26.0,-2.0,0.0,-1.0,2.0,-1.0,1651072032906548.0,3
1839,-2.0,-6.0,-19.0,-2.0,-1.0,0.0,-2.0,-1.0,1651072032906548.0,3
1840,1.0,5.0,7.0,2.0,7.0,4.0,2.0,2.0,1651072032920701.0,3
1841,0.0,-3.0,-5.0,-3.0,-8.0,-4.0,0.0,-2.0,1651072032920701.0,3
1842,1.0,2.0,-1.0,-1.0,-3.0,-1.0,-1.0,0.0,1651072032922656.0,3
1843,0.0,1.0,10.0,-1.0,-3.0,-2.0,0.0,-1.0,1651072032922656.0,3
1844,-2.0,-3.0,-4.0,0.0,-1.0,0.0,0.0,0.0,1651072032943844.0,3
1845,-3.0,-2.0,-6.0,4.0,12.0,4.0,0.0,-1.0,1651072032943844.0,3
1846,-2.0,0.0,8.0,0.0,-2.0,1.0,0.0,-1.0,1651072032944836.0,3
1847,0.0,-1.0,3.0,0.0,0.0,1.0,0.0,0.0,1651072032944836.0,3
1848,1.0,0.0,-3.0,-2.0,-5.0,-2.0,0.0,-2.0,1651072032956869.0,3
1849,-1.0,1.0,4.0,-1.0,-7.0,-2.0,0.0,0.0,1651072032956869.0,3
1850,0.0,1.0,10.0,-1.0,-3.0,-2.0,0.0,0.0,1651072032965779.0,3
1851,-1.0,0.0,2.0,2.0,8.0,0.0,0.0,1.0,1651072032965779.0,3
1852,-1.0,-1.0,0.0,-1.0,4.0,0.0,1.0,0.0,1651072032981445.0,3
1853,0.0,0.0,-3.0,-3.0,-2.0,0.0,-2.0,-1.0,1651072032981445.0,3
1854,0.0,-1.0,-7.0,-4.0,0.0,-2.0,-1.0,-1.0,1651072032982458.0,3
1855,-1.0,2.0,2.0,0.0,-7.0,1.0,0.0,0.0,1651072032982458.0,3
1856,1.0,1.0,4.0,-2.0,-8.0,-5.0,-3.0,-1.0,1651072033003441.0,3
1857,0.0,3.0,0.0,1.0,7.0,0.0,-1.0,0.0,1651072033003441.0,3
1858,0.0,-9.0,-7.0,4.0,7.0,10.0,3.0,1.0,1651072033005404.0,3
1859,0.0,1.0,6.0,-1.0,-2.0,-3.0,-1.0,-2.0,1651072033005404.0,3
1860,-1.0,0.0,-3.0,0.0,2.0,-1.0,-1.0,0.0,1651072033026126.0,3
1861,1.0,3.0,1.0,-4.0,-9.0,-4.0,-1.0,0.0,1651072033026126.0,3
1862,1.0,3.0,0.0,-2.0,-1.0,-2.0,0.0,-2.0,1651072033027057.0,3
1863,0.0,1.0,3.0,-1.0,3.0,-1.0,1.0,1.0,1651072033027057.0,3
1864,-1.0,-2.0,-2.0,1.0,-2.0,0.0,-1.0,1.0,1651072033041201.0,3
1865,0.0,-2.0,3.0,-1.0,-2.0,-1.0,-1.0,0.0,1651072033041201.0,3
1866,-1.0,0.0,-4.0,-2.0,1.0,-1.0,0.0,2.0,1651072033042174.0,3
1867,-1.0,-2.0,-3.0,-2.0,-3.0,-3.0,-2.0,1.0,1651072033042174.0,3
1868,-1.0,2.0,-2.0,4.0,6.0,5.0,1.0,-1.0,1651072033063762.0,3
1869,-1.0,-2.0,-1.0,-1.0,-3.0,1.0,0.0,1.0,1651072033063762.0,3
1870,-1.0,2.0,0.0,0.0,0.0,-1.0,-1.0,-1.0,1651072033064758.0,3
1871,1.0,-1.0,1.0,-3.0,-7.0,-2.0,-1.0,-2.0,1651072033064758.0,3
1872,-1.0,-3.0,-1.0,-2.0,-1.0,-4.0,-1.0,0.0,1651072033076794.0,3
1873,-3.0,-3.0,-2.0,1.0,1.0,1.0,2.0,1.0,1651072033076794.0,3
1874,-1.0,0.0,-5.0,-3.0,-4.0,-3.0,-1.0,-1.0,1651072033085825.0,3
1875,0.0,0.0,3.0,2.0,4.0,4.0,1.0,-1.0,1651072033085825.0,3
1876,-1.0,0.0,1.0,-1.0,2.0,-1.0,-2.0,-1.0,1651072033100813.0,3
1877,1.0,-1.0,0.0,0.0,2.0,0.0,0.0,0.0,1651072033100813.0,3
1878,0.0,-1.0,1.0,2.0,2.0,-4.0,-4.0,0.0,1651072033102780.0,3
1879,-2.0,-1.0,-4.0,1.0,0.0,0.0,-1.0,-2.0,1651072033102780.0,3
1880,1.0,-2.0,1.0,-1.0,1.0,-2.0,1.0,0.0,1651072033123668.0,3
1881,0.0,-1.0,1.0,0.0,-3.0,-3.0,-1.0,0.0,1651072033123668.0,3
1882,-2.0,1.0,1.0,-3.0,-2.0,0.0,2.0,0.0,1651072033124662.0,3
1883,-1.0,-1.0,1.0,-3.0,3.0,1.0,-1.0,0.0,1651072033124662.0,3
1884,-2.0,0.0,-3.0,-1.0,-3.0,1.0,0.0,-2.0,1651072033137500.0,3
1885,0.0,1.0,-1.0,-2.0,1.0,1.0,-2.0,0.0,1651072033137500.0,3
1886,-1.0,-1.0,0.0,0.0,-2.0,-1.0,-1.0,-1.0,1651072033146423.0,3
1887,-2.0,0.0,0.0,3.0,5.0,5.0,0.0,0.0,1651072033146423.0,3
1888,0.0,0.0,-3.0,-5.0,-11.0,-2.0,-1.0,-1.0,1651072033160871.0,3
1889,-1.0,0.0,0.0,1.0,5.0,-1.0,-1.0,-1.0,1651072033160871.0,3
1890,-1.0,-4.0,1.0,-1.0,2.0,0.0,-1.0,1.0,1651072033162641.0,3
1891,-3.0,-3.0,-9.0,2.0,-6.0,-4.0,-1.0,-1.0,1651072033162641.0,3
1892,0.0,-1.0,8.0,1.0,-1.0,-1.0,-2.0,0.0,1651072033183606.0,3
1893,-1.0,-1.0,-1.0,-2.0,-10.0,-3.0,-1.0,0.0,1651072033183606.0,3
1894,1.0,2.0,4.0,-1.0,5.0,0.0,-1.0,0.0,1651072033184475.0,3
1895,1.0,0.0,-4.0,-3.0,3.0,1.0,1.0,-1.0,1651072033184475.0,3
1896,0.0,-1.0,-4.0,0.0,5.0,0.0,-1.0,-1.0,1651072033197514.0,3
1897,-1.0,-2.0,-2.0,0.0,-4.0,-1.0,-1.0,-1.0,1651072033197514.0,3
1898,-1.0,0.0,1.0,1.0,-5.0,-3.0,-1.0,0.0,1651072033206420.0,3
1899,-1.0,2.0,9.0,-1.0,-5.0,-3.0,-1.0,-1.0,1651072033206420.0,3
1900,-2.0,-7.0,-9.0,1.0,5.0,1.0,0.0,-1.0,1651072033221617.0,3
1901,1.0,2.0,4.0,0.0,-3.0,-1.0,0.0,-1.0,1651072033221617.0,3
1902,0.0,0.0,-4.0,-1.0,0.0,5.0,2.0,0.0,1651072033227560.0,3
1903,-1.0,0.0,1.0,-3.0,-2.0,-3.0,-1.0,0.0,1651072033227560.0,3
1904,0.0,1.0,2.0,-3.0,-3.0,0.0,0.0,0.0,1651072033243603.0,3
1905,-1.0,-1.0,-4.0,1.0,1.0,-2.0,-2.0,-3.0,1651072033243603.0,3
1906,-3.0,2.0,6.0,2.0,2.0,0.0,-3.0,0.0,1651072033245414.0,3
1907,0.0,0.0,-5.0,0.0,3.0,2.0,-1.0,1.0,1651072033245414.0,3
1908,-1.0,-2.0,-2.0,1.0,1.0,1.0,0.0,-1.0,1651072033257449.0,3
1909,0.0,-2.0,-1.0,-2.0,-3.0,1.0,-1.0,-1.0,1651072033257449.0,3
1910,0.0,1.0,-1.0,0.0,-4.0,-3.0,-1.0,-1.0,1651072033266474.0,3
