,EMG_s0,EMG_s1,EMG_s2,EMG_s3,EMG_s4,EMG_s5,EMG_s6,EMG_s7,timestamp,signal
0,-1.0,-1.0,0.0,-1.0,0.0,0.0,0.0,-2.0,1651071932241681.0,0
1,0.0,0.0,-2.0,-1.0,-1.0,0.0,0.0,-1.0,1651071932241681.0,0
2,0.0,-2.0,-1.0,-2.0,1.0,0.0,1.0,0.0,1651071932263422.0,0
3,2.0,1.0,-1.0,1.0,-2.0,-1.0,0.0,-2.0,1651071932263422.0,0
4,0.0,0.0,1.0,-1.0,-2.0,-2.0,-1.0,-3.0,1651071932263422.0,0
5,0.0,-1.0,1.0,-2.0,2.0,4.0,0.0,0.0,1651071932263422.0,0
6,-2.0,-4.0,-1.0,-1.0,-1.0,-3.0,-1.0,-1.0,1651071932285519.0,0
7,1.0,2.0,-1.0,-2.0,-3.0,-1.0,0.0,0.0,1651071932285519.0,0
8,-2.0,-1.0,-2.0,0.0,2.0,0.0,-1.0,0.0,1651071932286517.0,0
9,-1.0,-2.0,0.0,1.0,0.0,0.0,-2.0,-1.0,1651071932286517.0,0
10,0.0,2.0,0.0,-1.0,-1.0,-1.0,0.0,-1.0,1651071932300631.0,0
11,-2.0,-1.0,0.0,-1.0,1.0,0.0,-1.0,1.0,1651071932300631.0,0
12,0.0,1.0,0.0,-1.0,-1.0,0.0,-1.0,0.0,1651071932301636.0,0
13,0.0,-1.0,-1.0,-2.0,-3.0,-3.0,-1.0,0.0,1651071932301636.0,0
14,-2.0,1.0,0.0,0.0,1.0,1.0,0.0,-1.0,1651071932323376.0,0
15,-2.0,-2.0,1.0,1.0,-2.0,-1.0,-2.0,-1.0,1651071932323376.0,0
16,2.0,0.0,-1.0,1.0,5.0,1.0,1.0,-1.0,1651071932323839.0,0
17,-1.0,0.0,0.0,1.0,-2.0,-3.0,-1.0,-2.0,1651071932323839.0,0
18,1.0,1.0,-1.0,-1.0,-4.0,-2.0,0.0,-1.0,1651071932345728.0,0
19,0.0,-1.0,-1.0,-2.0,2.0,1.0,-2.0,1.0,1651071932345728.0,0
20,0.0,-1.0,-1.0,-1.0,2.0,3.0,-1.0,0.0,1651071932346671.0,0
21,0.0,-1.0,-4.0,-2.0,-7.0,-1.0,0.0,-1.0,1651071932346671.0,0
22,-1.0,-1.0,0.0,-1.0,1.0,-3.0,-3.0,0.0,1651071932360705.0,0
23,-3.0,0.0,1.0,0.0,3.0,3.0,0.0,1.0,1651071932360705.0,0
24,-2.0,-2.0,-2.0,-2.0,-6.0,-4.0,-2.0,-1.0,1651071932361615.0,0
25,-1.0,1.0,-1.0,1.0,-1.0,-1.0,-1.0,-1.0,1651071932361615.0,0
26,1.0,0.0,2.0,1.0,-2.0,-2.0,0.0,1.0,1651071932382748.0,0
27,-1.0,-2.0,0.0,-1.0,-2.0,-1.0,-1.0,-3.0,1651071932382748.0,0
28,0.0,0.0,0.0,1.0,-1.0,-1.0,0.0,1.0,1651071932383698.0,0
29,2.0,0.0,0.0,1.0,3.0,2.0,1.0,0.0,1651071932383698.0,0
30,-1.0,-2.0,-1.0,-1.0,-1.0,0.0,1.0,-3.0,1651071932405859.0,0
31,-1.0,-1.0,-3.0,0.0,-4.0,-1.0,0.0,1.0,1651071932405859.0,0
32,1.0,-1.0,-1.0,-2.0,-2.0,-1.0,-2.0,-2.0,1651071932406632.0,0
33,-2.0,-2.0,-2.0,-2.0,3.0,1.0,-1.0,1.0,1651071932406632.0,0
34,-1.0,1.0,-1.0,0.0,5.0,2.0,-1.0,-1.0,1651071932420883.0,0
35,1.0,-1.0,1.0,-1.0,1.0,0.0,0.0,-1.0,1651071932420883.0,0
36,-1.0,-1.0,0.0,-1.0,-4.0,-3.0,-1.0,-2.0,1651071932421643.0,0
37,0.0,-1.0,0.0,0.0,-2.0,-1.0,-1.0,-1.0,1651071932421643.0,0
38,-1.0,0.0,-2.0,0.0,-2.0,-4.0,0.0,0.0,1651071932444794.0,0
39,-1.0,1.0,-2.0,-2.0,-2.0,4.0,1.0,0.0,1651071932444794.0,0
40,0.0,1.0,1.0,0.0,-1.0,0.0,-2.0,0.0,1651071932445792.0,0
41,0.0,1.0,1.0,0.0,4.0,-1.0,0.0,-1.0,1651071932445792.0,0
42,0.0,0.0,-2.0,-1.0,-1.0,0.0,0.0,-1.0,1651071932465045.0,0
43,1.0,0.0,0.0,1.0,-1.0,-3.0,-1.0,-1.0,1651071932465045.0,0
44,1.0,-1.0,-3.0,-2.0,0.0,-1.0,-1.0,0.0,1651071932466045.0,0
45,-1.0,-1.0,0.0,0.0,-2.0,-1.0,-2.0,-1.0,1651071932466045.0,0
46,-1.0,-3.0,0.0,-1.0,-2.0,0.0,-2.0,-2.0,1651071932480834.0,0
47,-1.0,-2.0,-2.0,-1.0,-1.0,-1.0,-2.0,0.0,1651071932480834.0,0
48,-3.0,-3.0,0.0,1.0,3.0,1.0,-1.0,1.0,1651071932481092.0,0
49,0.0,2.0,-1.0,0.0,-2.0,-2.0,0.0,-1.0,1651071932481092.0,0
50,0.0,0.0,-1.0,-1.0,-3.0,-1.0,-1.0,1.0,1651071932503229.0,0
51,1.0,0.0,-1.0,-1.0,0.0,0.0,1.0,-2.0,1651071932503229.0,0
52,0.0,0.0,0.0,-1.0,-2.0,0.0,0.0,0.0,1651071932504157.0,0
53,-1.0,-3.0,0.0,-1.0,0.0,0.0,0.0,-1.0,1651071932504157.0,0
54,-3.0,-3.0,-2.0,0.0,-3.0,-1.0,-1.0,1.0,1651071932525833.0,0
55,0.0,-1.0,0.0,0.0,1.0,2.0,0.0,-2.0,1651071932525833.0,0
56,-1.0,0.0,-1.0,0.0,-1.0,-1.0,-2.0,-1.0,1651071932525833.0,0
57,0.0,1.0,-1.0,-2.0,-3.0,1.0,-2.0,-2.0,1651071932525833.0,0
58,0.0,2.0,-1.0,0.0,0.0,0.0,1.0,0.0,1651071932540793.0,0
59,1.0,-2.0,-4.0,-1.0,0.0,0.0,2.0,0.0,1651071932540793.0,0
60,1.0,2.0,2.0,-1.0,-2.0,-3.0,0.0,1.0,1651071932540793.0,0
61,-1.0,0.0,2.0,2.0,3.0,-1.0,2.0,0.0,1651071932540793.0,0
62,0.0,0.0,-2.0,0.0,0.0,0.0,-1.0,0.0,1651071932563383.0,0
63,-1.0,-2.0,-3.0,1.0,3.0,-1.0,-2.0,1.0,1651071932563383.0,0
64,-1.0,-1.0,-1.0,-1.0,-2.0,0.0,-1.0,0.0,1651071932563929.0,0
65,-1.0,0.0,0.0,-3.0,-1.0,0.0,-2.0,0.0,1651071932563929.0,0
66,1.0,0.0,0.0,0.0,7.0,5.0,0.0,0.0,1651071932585983.0,0
67,-1.0,-1.0,1.0,1.0,0.0,-2.0,-1.0,1.0,1651071932585983.0,0
68,-2.0,-1.0,-1.0,-1.0,-1.0,1.0,0.0,0.0,1651071932585983.0,0
69,-1.0,-1.0,-1.0,1.0,-5.0,-5.0,-1.0,0.0,1651071932585983.0,0
70,-1.0,3.0,1.0,-1.0,-3.0,-2.0,-2.0,0.0,1651071932600990.0,0
71,0.0,2.0,-1.0,-4.0,-5.0,0.0,1.0,-1.0,1651071932600990.0,0
72,0.0,-1.0,-3.0,3.0,5.0,0.0,2.0,-3.0,1651071932600990.0,0
73,-1.0,-1.0,0.0,0.0,2.0,3.0,0.0,0.0,1651071932600990.0,0
74,0.0,-2.0,0.0,1.0,-4.0,-2.0,-1.0,-1.0,1651071932623383.0,0
75,-2.0,0.0,0.0,1.0,-1.0,0.0,0.0,-1.0,1651071932623383.0,0
76,0.0,-1.0,0.0,-2.0,-5.0,-5.0,1.0,0.0,1651071932624045.0,0
77,0.0,0.0,-4.0,0.0,-1.0,0.0,0.0,0.0,1651071932624045.0,0
78,1.0,1.0,-1.0,1.0,6.0,2.0,0.0,-1.0,1651071932645074.0,0
79,0.0,2.0,2.0,0.0,-1.0,-2.0,-2.0,0.0,1651071932645074.0,0
80,-2.0,0.0,-2.0,0.0,0.0,0.0,-1.0,0.0,1651071932646058.0,0
81,0.0,-1.0,0.0,-1.0,-4.0,-3.0,-1.0,0.0,1651071932646058.0,0
82,-2.0,-2.0,0.0,-2.0,-2.0,-1.0,-2.0,2.0,1651071932660153.0,0
83,0.0,-1.0,0.0,-1.0,-2.0,-2.0,-3.0,-2.0,1651071932660153.0,0
84,0.0,-1.0,1.0,0.0,-2.0,0.0,0.0,-1.0,1651071932661153.0,0
85,-1.0,-3.0,-2.0,0.0,-7.0,-2.0,0.0,-1.0,1651071932661153.0,0
86,0.0,0.0,-3.0,-2.0,3.0,-2.0,0.0,0.0,1651071932683309.0,0
87,-1.0,0.0,-2.0,2.0,6.0,2.0,1.0,1.0,1651071932683309.0,0
88,2.0,0.0,-2.0,-2.0,-3.0,-1.0,-3.0,-1.0,1651071932683309.0,0
89,1.0,-1.0,-1.0,-2.0,-3.0,-2.0,-5.0,-1.0,1651071932683309.0,0
90,-1.0,0.0,2.0,2.0,6.0,5.0,0.0,0.0,1651071932705789.0,0
91,-2.0,-2.0,-2.0,-1.0,-1.0,-2.0,-1.0,-2.0,1651071932705789.0,0
92,-1.0,0.0,-3.0,-1.0,0.0,0.0,0.0,-1.0,1651071932705936.0,0
93,0.0,0.0,0.0,0.0,-3.0,-1.0,-1.0,1.0,1651071932705936.0,0
94,-2.0,-1.0,-1.0,-3.0,-3.0,-1.0,-1.0,0.0,1651071932720886.0,0
95,-1.0,1.0,0.0,0.0,-1.0,-1.0,-2.0,-1.0,1651071932720886.0,0
96,0.0,0.0,1.0,-1.0,0.0,-1.0,0.0,1.0,1651071932720886.0,0
97,-1.0,0.0,-1.0,0.0,3.0,2.0,-1.0,-2.0,1651071932720886.0,0
98,1.0,-2.0,-2.0,1.0,1.0,-1.0,-2.0,-1.0,1651071932742963.0,0
99,-1.0,-1.0,-2.0,-4.0,-2.0,-2.0,0.0,-1.0,1651071932742963.0,0
100,1.0,-1.0,0.0,0.0,-3.0,-1.0,-1.0,-2.0,1651071932743906.0,0
101,0.0,1.0,1.0,-3.0,8.0,4.0,1.0,0.0,1651071932743906.0,0
102,-1.0,-1.0,-1.0,1.0,-1.0,-4.0,0.0,0.0,1651071932765920.0,0
103,-1.0,-1.0,-2.0,1.0,-2.0,-1.0,-1.0,0.0,1651071932765920.0,0
104,-1.0,-1.0,1.0,-1.0,0.0,-2.0,-2.0,0.0,1651071932765920.0,0
105,0.0,-2.0,-3.0,-1.0,1.0,-1.0,-1.0,0.0,1651071932765920.0,0
106,2.0,1.0,0.0,0.0,-1.0,1.0,1.0,-1.0,1651071932780901.0,0
107,1.0,1.0,1.0,1.0,-1.0,0.0,0.0,1.0,1651071932780901.0,0
108,-3.0,0.0,-1.0,0.0,0.0,0.0,0.0,0.0,1651071932780901.0,0
109,0.0,-1.0,-1.0,0.0,-2.0,1.0,-2.0,1.0,1651071932780901.0,0
110,-1.0,-2.0,-1.0,-3.0,-4.0,-3.0,-1.0,-2.0,1651071932802874.0,0
111,2.0,0.0,2.0,0.0,-3.0,0.0,-1.0,0.0,1651071932802874.0,0
112,1.0,0.0,0.0,-1.0,-1.0,-1.0,-2.0,-1.0,1651071932803816.0,0
113,-2.0,-1.0,0.0,0.0,1.0,-1.0,-2.0,-3.0,1651071932803816.0,0
114,-2.0,1.0,-2.0,-1.0,-3.0,-1.0,-1.0,1.0,1651071932825878.0,0
115,0.0,-1.0,0.0,2.0,-4.0,-3.0,1.0,-2.0,1651071932825878.0,0
116,-1.0,0.0,-1.0,0.0,10.0,2.0,0.0,-2.0,1651071932826643.0,0
117,0.0,1.0,1.0,0.0,-5.0,-3.0,-1.0,-3.0,1651071932826643.0,0
118,-3.0,-2.0,0.0,-2.0,-4.0,-2.0,-3.0,-2.0,1651071932840674.0,0
119,-1.0,0.0,0.0,-1.0,0.0,1.0,-1.0,-1.0,1651071932840674.0,0
120,-1.0,-1.0,0.0,0.0,-4.0,-3.0,-1.0,1.0,1651071932841602.0,0
121,-1.0,-1.0,-1.0,0.0,0.0,-2.0,0.0,1.0,1651071932841602.0,0
122,1.0,0.0,0.0,-1.0,-2.0,-3.0,0.0,-2.0,1651071932870725.0,0
123,0.0,0.0,0.0,-2.0,1.0,-1.0,0.0,-3.0,1651071932870725.0,0
124,-1.0,1.0,-1.0,-1.0,1.0,2.0,-2.0,-3.0,1651071932877775.0,0
125,0.0,0.0,-1.0,-3.0,1.0,0.0,0.0,0.0,1651071932877775.0,0
126,-1.0,-1.0,-1.0,0.0,-3.0,0.0,-1.0,-1.0,1651071932885769.0,0
127,1.0,-1.0,0.0,0.0,1.0,0.0,-1.0,-2.0,1651071932885769.0,0
128,0.0,-1.0,-1.0,0.0,-1.0,0.0,3.0,1.0,1651071932885769.0,0
129,0.0,0.0,-3.0,-1.0,1.0,-2.0,2.0,-1.0,1651071932885769.0,0
130,1.0,0.0,-1.0,-2.0,-1.0,0.0,0.0,0.0,1651071932907779.0,0
131,-2.0,-2.0,-1.0,-2.0,2.0,-1.0,-1.0,0.0,1651071932907779.0,0
132,-1.0,-2.0,0.0,-1.0,-1.0,1.0,0.0,-1.0,1651071932908710.0,0
133,-2.0,-2.0,0.0,0.0,-1.0,1.0,0.0,-1.0,1651071932908710.0,0
134,1.0,1.0,-1.0,0.0,-4.0,-1.0,0.0,1.0,1651071932930805.0,0
135,0.0,-2.0,0.0,0.0,6.0,2.0,0.0,0.0,1651071932930805.0,0
136,1.0,0.0,1.0,-1.0,-1.0,-1.0,-1.0,-1.0,1651071932931738.0,0
137,0.0,0.0,1.0,-1.0,1.0,1.0,-2.0,-1.0,1651071932931738.0,0
138,-1.0,-2.0,-1.0,0.0,-5.0,-3.0,-2.0,0.0,1651071932945836.0,0
139,1.0,0.0,-1.0,0.0,0.0,-3.0,-1.0,0.0,1651071932945836.0,0
140,-2.0,-3.0,-5.0,-3.0,1.0,0.0,0.0,1.0,1651071932945836.0,0
141,-1.0,-2.0,0.0,1.0,3.0,2.0,0.0,0.0,1651071932945836.0,0
142,-1.0,-1.0,-1.0,-1.0,2.0,1.0,0.0,-1.0,1651071932967957.0,0
143,0.0,0.0,-1.0,-4.0,-5.0,-2.0,-1.0,2.0,1651071932967957.0,0
144,-1.0,-2.0,0.0,0.0,-2.0,-1.0,1.0,0.0,1651071932968954.0,0
145,-2.0,-1.0,0.0,-1.0,-3.0,-3.0,1.0,-1.0,1651071932968954.0,0
146,0.0,-1.0,0.0,1.0,1.0,2.0,0.0,0.0,1651071932991156.0,0
147,-1.0,1.0,-1.0,1.0,-1.0,1.0,1.0,0.0,1651071932991156.0,0
148,-2.0,0.0,-1.0,-1.0,-1.0,-1.0,-2.0,1.0,1651071932992156.0,0
149,0.0,0.0,-2.0,-2.0,-2.0,3.0,-2.0,-1.0,1651071932992156.0,0
150,-1.0,-1.0,1.0,-2.0,1.0,-1.0,1.0,-3.0,1651071933005234.0,0
151,0.0,0.0,0.0,0.0,-3.0,-1.0,-3.0,0.0,1651071933005234.0,0
152,1.0,0.0,-1.0,-3.0,-1.0,1.0,-3.0,-1.0,1651071933006232.0,0
153,-2.0,-1.0,-2.0,-1.0,0.0,-2.0,1.0,1.0,1651071933006232.0,0
154,1.0,-2.0,0.0,-1.0,2.0,0.0,-1.0,1.0,1651071933027921.0,0
155,-1.0,1.0,0.0,0.0,-2.0,0.0,0.0,-1.0,1651071933027921.0,0
156,-1.0,0.0,-2.0,0.0,-2.0,0.0,1.0,-1.0,1651071933028851.0,0
157,-1.0,0.0,1.0,0.0,0.0,1.0,0.0,-2.0,1651071933028851.0,0
158,2.0,1.0,-1.0,0.0,-1.0,-1.0,0.0,-1.0,1651071933051000.0,0
159,-1.0,-1.0,-2.0,-1.0,-1.0,-2.0,0.0,0.0,1651071933051000.0,0
160,0.0,0.0,0.0,-1.0,-1.0,1.0,0.0,-3.0,1651071933052016.0,0
161,-1.0,-1.0,0.0,-1.0,0.0,-1.0,-2.0,0.0,1651071933052016.0,0
162,-2.0,-3.0,0.0,0.0,-1.0,-2.0,-2.0,-1.0,1651071933065359.0,0
163,-1.0,0.0,1.0,-1.0,-2.0,0.0,-2.0,0.0,1651071933065359.0,0
164,2.0,-2.0,-1.0,0.0,2.0,1.0,-1.0,0.0,1651071933066360.0,0
165,-1.0,0.0,-1.0,2.0,0.0,0.0,0.0,0.0,1651071933066360.0,0
166,-2.0,0.0,-1.0,0.0,-1.0,-1.0,0.0,-2.0,1651071933088415.0,0
167,-1.0,-2.0,-1.0,1.0,0.0,1.0,0.0,-1.0,1651071933088415.0,0
168,-1.0,-1.0,1.0,0.0,-1.0,-3.0,0.0,-1.0,1651071933088415.0,0
169,1.0,-1.0,1.0,-3.0,-2.0,-4.0,-1.0,0.0,1651071933088415.0,0
170,0.0,2.0,0.0,-1.0,-2.0,1.0,0.0,-1.0,1651071933111472.0,0
171,0.0,-2.0,-2.0,-1.0,-1.0,2.0,2.0,1.0,1651071933111472.0,0
172,-2.0,-1.0,0.0,-1.0,-2.0,-2.0,0.0,-1.0,1651071933111472.0,0
173,0.0,-2.0,-1.0,-2.0,-1.0,0.0,-3.0,-1.0,1651071933111472.0,0
174,-1.0,-2.0,-2.0,-1.0,0.0,-2.0,0.0,1.0,1651071933125553.0,0
175,-1.0,0.0,-1.0,-2.0,0.0,-1.0,0.0,0.0,1651071933125553.0,0
176,1.0,-1.0,0.0,-1.0,1.0,-2.0,-1.0,-1.0,1651071933126581.0,0
177,-1.0,2.0,2.0,-2.0,-5.0,-3.0,1.0,0.0,1651071933126581.0,0
178,-1.0,-1.0,-1.0,0.0,2.0,1.0,1.0,-2.0,1651071933156436.0,0
179,-1.0,-2.0,-1.0,0.0,1.0,1.0,-1.0,-1.0,1651071933156436.0,0
180,-2.0,2.0,-1.0,0.0,-1.0,-2.0,-1.0,0.0,1651071933157367.0,0
181,-2.0,-3.0,1.0,-1.0,-1.0,1.0,1.0,-3.0,1651071933157367.0,0
182,0.0,0.0,0.0,-1.0,0.0,2.0,1.0,0.0,1651071933171480.0,0
183,-3.0,-1.0,-2.0,0.0,-1.0,-2.0,-1.0,0.0,1651071933171480.0,0
184,1.0,0.0,0.0,-1.0,-2.0,0.0,-2.0,-1.0,1651071933171480.0,0
185,1.0,-1.0,-2.0,0.0,-3.0,-3.0,-2.0,-2.0,1651071933171480.0,0
186,0.0,-1.0,2.0,-2.0,-2.0,2.0,-2.0,0.0,1651071933185538.0,0
187,0.0,1.0,-1.0,-1.0,2.0,-1.0,2.0,-1.0,1651071933185538.0,0
188,-2.0,-2.0,0.0,0.0,2.0,0.0,-1.0,1.0,1651071933186532.0,0
189,1.0,1.0,-1.0,0.0,1.0,-1.0,1.0,0.0,1651071933186532.0,0
190,2.0,1.0,-1.0,-2.0,-2.0,0.0,1.0,1.0,1651071933207629.0,0
191,0.0,-1.0,1.0,-1.0,-2.0,0.0,-1.0,-1.0,1651071933207629.0,0
192,-2.0,-3.0,-1.0,0.0,-2.0,0.0,1.0,-1.0,1651071933208625.0,0
193,-1.0,-1.0,0.0,2.0,0.0,0.0,-1.0,0.0,1651071933208625.0,0
194,0.0,-2.0,-2.0,1.0,-3.0,-4.0,-2.0,-2.0,1651071933231658.0,0
195,0.0,-3.0,1.0,-3.0,-8.0,-1.0,-1.0,0.0,1651071933231658.0,0
196,0.0,0.0,0.0,0.0,10.0,4.0,2.0,1.0,1651071933231658.0,0
197,-1.0,-4.0,-2.0,-1.0,3.0,2.0,-1.0,2.0,1651071933231658.0,0
198,-2.0,1.0,0.0,-1.0,0.0,1.0,1.0,0.0,1651071933245367.0,0
199,0.0,-2.0,-2.0,-2.0,-1.0,-2.0,2.0,-1.0,1651071933245367.0,0
200,2.0,0.0,-2.0,-2.0,-6.0,-3.0,0.0,-1.0,1651071933246379.0,0
201,0.0,5.0,-1.0,-1.0,-2.0,0.0,-1.0,0.0,1651071933246379.0,0
202,-1.0,0.0,0.0,1.0,2.0,-1.0,-2.0,-1.0,1651071933268540.0,0
203,1.0,0.0,0.0,1.0,-2.0,-1.0,-1.0,-1.0,1651071933268540.0,0
204,-2.0,0.0,0.0,3.0,-1.0,1.0,0.0,-1.0,1651071933269533.0,0
205,0.0,-3.0,-1.0,0.0,1.0,-1.0,0.0,-2.0,1651071933269533.0,0
206,0.0,0.0,-2.0,0.0,-1.0,-1.0,0.0,1.0,1651071933291615.0,0
207,-3.0,2.0,1.0,1.0,1.0,-1.0,-4.0,0.0,1651071933291615.0,0
208,-1.0,1.0,-1.0,-1.0,-2.0,-1.0,-1.0,-1.0,1651071933291615.0,0
209,1.0,1.0,-1.0,1.0,-1.0,0.0,0.0,-1.0,1651071933291615.0,0
210,0.0,-1.0,0.0,1.0,-2.0,-1.0,0.0,-1.0,1651071933305796.0,0
211,0.0,-1.0,-1.0,1.0,1.0,1.0,1.0,-1.0,1651071933305796.0,0
212,0.0,1.0,-1.0,-3.0,-2.0,2.0,-1.0,0.0,1651071933305796.0,0
213,-2.0,-1.0,0.0,-1.0,-2.0,-1.0,-2.0,-1.0,1651071933305796.0,0
214,1.0,0.0,0.0,0.0,3.0,3.0,1.0,-1.0,1651071933327739.0,0
215,0.0,1.0,-1.0,0.0,1.0,0.0,-1.0,0.0,1651071933327739.0,0
216,-2.0,-2.0,-3.0,0.0,-5.0,-6.0,-1.0,-1.0,1651071933328669.0,0
217,0.0,2.0,1.0,-1.0,-1.0,0.0,1.0,-1.0,1651071933328669.0,0
218,0.0,-1.0,0.0,-1.0,0.0,1.0,0.0,1.0,1651071933350848.0,0
219,-2.0,-1.0,-1.0,-3.0,1.0,-1.0,-1.0,1.0,1651071933350848.0,0
220,-1.0,-1.0,0.0,-1.0,-1.0,-2.0,0.0,0.0,1651071933351860.0,0
221,-2.0,-1.0,0.0,-1.0,-1.0,1.0,-1.0,-1.0,1651071933351860.0,0
222,-2.0,-1.0,0.0,-1.0,0.0,-3.0,-1.0,0.0,1651071933365361.0,0
223,1.0,0.0,-1.0,-1.0,-2.0,0.0,-1.0,-1.0,1651071933365361.0,0
224,2.0,2.0,4.0,0.0,-1.0,-2.0,0.0,0.0,1651071933366373.0,0
225,-1.0,-2.0,-3.0,0.0,2.0,1.0,-1.0,0.0,1651071933366373.0,0
226,0.0,1.0,-2.0,0.0,-2.0,-3.0,0.0,-1.0,1651071933387918.0,0
227,-2.0,-3.0,-2.0,-1.0,1.0,-1.0,1.0,-1.0,1651071933387918.0,0
228,0.0,-1.0,0.0,-1.0,0.0,1.0,-1.0,0.0,1651071933388848.0,0
229,1.0,-1.0,0.0,-2.0,-3.0,0.0,-1.0,-1.0,1651071933388848.0,0
230,0.0,-2.0,0.0,0.0,3.0,-1.0,-1.0,-1.0,1651071933411532.0,0
231,-1.0,-3.0,-4.0,1.0,2.0,-1.0,1.0,-1.0,1651071933411532.0,0
232,2.0,-1.0,-2.0,1.0,1.0,2.0,1.0,-1.0,1651071933411646.0,0
233,-2.0,2.0,3.0,0.0,-3.0,0.0,0.0,0.0,1651071933411646.0,0
234,-2.0,-1.0,-2.0,1.0,11.0,0.0,0.0,1.0,1651071933433575.0,0
235,0.0,1.0,0.0,2.0,3.0,0.0,-1.0,-2.0,1651071933433575.0,0
236,-1.0,-2.0,-2.0,-2.0,-3.0,-2.0,0.0,-2.0,1651071933434533.0,0
237,0.0,-1.0,-1.0,-4.0,-10.0,-4.0,-2.0,1.0,1651071933434533.0,0
238,0.0,-1.0,2.0,-2.0,-6.0,1.0,0.0,0.0,1651071933447649.0,0
239,0.0,1.0,-1.0,-1.0,-3.0,0.0,0.0,2.0,1651071933447649.0,0
240,-1.0,-2.0,-1.0,1.0,1.0,-3.0,-2.0,-1.0,1651071933448588.0,0
241,0.0,-1.0,-2.0,-3.0,0.0,-2.0,0.0,-1.0,1651071933448588.0,0
242,-2.0,-1.0,-3.0,-2.0,-6.0,0.0,1.0,-2.0,1651071933471429.0,0
243,-2.0,0.0,4.0,-1.0,0.0,-1.0,-2.0,-1.0,1651071933471429.0,0
244,-3.0,-5.0,-2.0,0.0,-8.0,-5.0,-1.0,0.0,1651071933472380.0,0
245,-2.0,0.0,-2.0,2.0,18.0,8.0,3.0,0.0,1651071933472380.0,0
246,-1.0,-13.0,-1.0,6.0,3.0,2.0,1.0,3.0,1651071933485096.0,0
247,0.0,-1.0,0.0,1.0,2.0,2.0,-1.0,1.0,1651071933485096.0,0
248,1.0,2.0,1.0,-2.0,-2.0,-1.0,-2.0,0.0,1651071933493406.0,0
249,0.0,-4.0,-1.0,-2.0,-4.0,-5.0,-1.0,-2.0,1651071933493406.0,0
250,0.0,-6.0,-10.0,-1.0,0.0,0.0,2.0,-1.0,1651071933508210.0,0
251,0.0,1.0,1.0,0.0,-3.0,-1.0,-1.0,0.0,1651071933508210.0,0
252,-3.0,-2.0,-1.0,0.0,-1.0,-1.0,1.0,0.0,1651071933509147.0,0
253,1.0,1.0,3.0,0.0,-1.0,1.0,0.0,0.0,1651071933509147.0,0
254,0.0,7.0,1.0,-2.0,-4.0,-2.0,-1.0,-3.0,1651071933531573.0,0
255,1.0,-4.0,2.0,-2.0,-1.0,0.0,1.0,1.0,1651071933531573.0,0
256,-6.0,2.0,1.0,13.0,3.0,2.0,-1.0,-2.0,1651071933531573.0,0
257,-9.0,0.0,-7.0,5.0,5.0,1.0,-1.0,0.0,1651071933531573.0,0
258,-18.0,-13.0,-8.0,-30.0,-6.0,0.0,2.0,0.0,1651071933545603.0,0
259,71.0,3.0,11.0,-9.0,-1.0,0.0,6.0,22.0,1651071933545603.0,1
260,1.0,23.0,47.0,23.0,7.0,-2.0,-8.0,-24.0,1651071933552517.0,1
261,-22.0,-9.0,-27.0,-8.0,-14.0,-2.0,5.0,18.0,1651071933552517.0,1
262,-17.0,-42.0,5.0,78.0,19.0,6.0,0.0,-1.0,1651071933567737.0,1
263,59.0,7.0,10.0,-31.0,33.0,17.0,6.0,-9.0,1651071933567737.0,1
264,-27.0,4.0,1.0,-79.0,-39.0,-11.0,-4.0,-5.0,1651071933568735.0,1
265,-2.0,42.0,53.0,54.0,6.0,-10.0,-6.0,0.0,1651071933568735.0,1
266,-22.0,-33.0,-21.0,8.0,-35.0,-11.0,-8.0,4.0,1651071933590886.0,1
267,35.0,-19.0,-18.0,65.0,-2.0,-4.0,-5.0,-23.0,1651071933590886.0,1
268,-50.0,47.0,-19.0,-49.0,24.0,12.0,2.0,0.0,1651071933590886.0,1
269,115.0,-51.0,10.0,6.0,-9.0,4.0,8.0,10.0,1651071933590886.0,1
270,100.0,5.0,-25.0,24.0,2.0,-5.0,0.0,5.0,1651071933605252.0,1
271,-55.0,19.0,42.0,-16.0,4.0,5.0,4.0,5.0,1651071933605252.0,1
272,-62.0,-4.0,-38.0,2.0,-6.0,0.0,-4.0,-5.0,1651071933613206.0,1
273,-85.0,-65.0,-4.0,-8.0,17.0,2.0,-2.0,10.0,1651071933613206.0,1
274,46.0,25.0,25.0,-10.0,-23.0,-7.0,-2.0,-2.0,1651071933628230.0,1
275,69.0,11.0,-3.0,16.0,-5.0,-7.0,-5.0,12.0,1651071933628230.0,1
276,6.0,14.0,22.0,30.0,4.0,7.0,6.0,0.0,1651071933629160.0,1
277,90.0,0.0,-25.0,-24.0,-13.0,-1.0,-1.0,1.0,1651071933629160.0,1
278,-53.0,-8.0,29.0,5.0,31.0,5.0,-1.0,-6.0,1651071933650855.0,1
279,-60.0,-8.0,-10.0,-5.0,-26.0,-9.0,-2.0,1.0,1651071933650855.0,1
280,51.0,-49.0,39.0,78.0,17.0,5.0,1.0,10.0,1651071933651188.0,1
281,-14.0,35.0,-14.0,-68.0,-29.0,-12.0,-14.0,-22.0,1651071933651188.0,1
282,-25.0,14.0,19.0,-8.0,2.0,0.0,-2.0,-10.0,1651071933665235.0,1
283,35.0,-11.0,-51.0,-25.0,-15.0,0.0,4.0,7.0,1651071933665235.0,1
284,14.0,-20.0,-19.0,-18.0,1.0,-2.0,-1.0,-3.0,1651071933673105.0,1
285,-15.0,15.0,-10.0,76.0,16.0,4.0,3.0,-8.0,1651071933673105.0,1
286,-4.0,31.0,27.0,1.0,4.0,0.0,1.0,6.0,1651071933688226.0,1
287,-60.0,-30.0,-23.0,-38.0,3.0,3.0,-2.0,-4.0,1651071933688226.0,1
288,109.0,16.0,19.0,-10.0,-1.0,0.0,2.0,3.0,1651071933689173.0,1
289,54.0,5.0,-49.0,-24.0,-4.0,-1.0,-4.0,-8.0,1651071933689173.0,1
290,-20.0,3.0,-37.0,16.0,1.0,1.0,4.0,10.0,1651071933711331.0,1
291,-12.0,9.0,-8.0,-20.0,-9.0,-5.0,-5.0,-8.0,1651071933711331.0,1
292,-5.0,18.0,9.0,57.0,-9.0,1.0,5.0,14.0,1651071933711613.0,1
293,-69.0,16.0,19.0,25.0,2.0,-4.0,-3.0,-16.0,1651071933711613.0,1
294,61.0,-1.0,-43.0,-63.0,1.0,-1.0,-1.0,1.0,1651071933724748.0,1
295,-8.0,6.0,-5.0,69.0,6.0,-3.0,-3.0,-5.0,1651071933724748.0,1
296,58.0,-12.0,30.0,-5.0,-15.0,-10.0,-7.0,3.0,1651071933733355.0,1
297,-83.0,4.0,15.0,-2.0,12.0,9.0,2.0,-3.0,1651071933733355.0,1
298,-24.0,-5.0,-4.0,-17.0,4.0,7.0,2.0,-1.0,1651071933748275.0,1
299,-31.0,18.0,2.0,-72.0,0.0,3.0,3.0,-2.0,1651071933748275.0,1
300,-6.0,-16.0,-10.0,82.0,-4.0,-6.0,-5.0,-2.0,1651071933748275.0,1
301,-16.0,-26.0,0.0,-1.0,7.0,2.0,0.0,1.0,1651071933748275.0,1
302,71.0,36.0,41.0,-58.0,-6.0,2.0,0.0,2.0,1651071933772333.0,1
303,-48.0,-33.0,-4.0,35.0,6.0,0.0,-1.0,1.0,1651071933772333.0,1
304,15.0,11.0,7.0,48.0,11.0,2.0,-1.0,2.0,1651071933772333.0,1
305,-28.0,-16.0,-49.0,-35.0,-15.0,0.0,4.0,13.0,1651071933772333.0,1
306,-41.0,19.0,28.0,11.0,-5.0,-3.0,-1.0,-4.0,1651071933793853.0,1
307,47.0,27.0,50.0,24.0,-3.0,-3.0,-2.0,2.0,1651071933793853.0,1
308,-41.0,-11.0,-36.0,-32.0,4.0,3.0,4.0,2.0,1651071933794853.0,1
309,46.0,-2.0,-4.0,4.0,27.0,7.0,5.0,11.0,1651071933794853.0,1
310,-38.0,3.0,0.0,-19.0,-37.0,-10.0,-10.0,-16.0,1651071933807884.0,1
311,-5.0,-6.0,29.0,13.0,-3.0,-4.0,-3.0,-2.0,1651071933807884.0,1
312,-19.0,-16.0,-14.0,-25.0,1.0,0.0,-1.0,-5.0,1651071933808816.0,1
313,13.0,14.0,10.0,-46.0,13.0,3.0,0.0,-5.0,1651071933808816.0,1
314,-29.0,-4.0,12.0,33.0,3.0,3.0,2.0,5.0,1651071933830143.0,1
315,-101.0,-9.0,-8.0,-10.0,-11.0,-2.0,-6.0,-15.0,1651071933830143.0,1
316,15.0,-22.0,-33.0,-15.0,-8.0,-5.0,-2.0,5.0,1651071933831155.0,1
317,5.0,3.0,3.0,-22.0,-4.0,0.0,2.0,6.0,1651071933831155.0,1
318,52.0,17.0,15.0,29.0,17.0,6.0,5.0,1.0,1651071933853665.0,1
319,-23.0,1.0,-21.0,-1.0,10.0,0.0,-1.0,-3.0,1651071933853665.0,1
320,12.0,-19.0,-19.0,-22.0,-7.0,-1.0,0.0,0.0,1651071933854655.0,1
321,-35.0,9.0,12.0,-35.0,-17.0,-6.0,-4.0,-12.0,1651071933854655.0,1
322,-9.0,-21.0,-36.0,-10.0,4.0,0.0,-3.0,-2.0,1651071933867687.0,1
323,22.0,22.0,14.0,-4.0,-10.0,-5.0,-4.0,1.0,1651071933867687.0,1
324,46.0,7.0,22.0,-11.0,12.0,6.0,2.0,4.0,1651071933868617.0,1
325,22.0,6.0,13.0,33.0,1.0,-1.0,0.0,-3.0,1651071933868617.0,1
326,-49.0,-22.0,-20.0,-6.0,-11.0,-5.0,-3.0,1.0,1651071933890855.0,1
327,27.0,18.0,62.0,93.0,34.0,6.0,1.0,3.0,1651071933890855.0,1
328,-3.0,5.0,-60.0,-39.0,-13.0,-1.0,3.0,0.0,1651071933891618.0,1
329,-11.0,-13.0,-21.0,-32.0,-18.0,-4.0,0.0,-5.0,1651071933891618.0,1
330,-50.0,-3.0,5.0,-10.0,11.0,3.0,0.0,0.0,1651071933913738.0,1
331,34.0,10.0,-8.0,24.0,-7.0,-5.0,-2.0,-4.0,1651071933913738.0,1
332,-29.0,-2.0,-9.0,-7.0,4.0,3.0,2.0,6.0,1651071933914713.0,1
333,17.0,-8.0,12.0,11.0,-2.0,-3.0,-3.0,2.0,1651071933914713.0,1
334,3.0,-20.0,-14.0,16.0,-6.0,-9.0,-7.0,-12.0,1651071933928387.0,1
335,-14.0,-7.0,-3.0,-47.0,-12.0,-2.0,2.0,5.0,1651071933928387.0,1
336,-11.0,14.0,38.0,0.0,4.0,1.0,2.0,1.0,1651071933928387.0,1
337,-24.0,3.0,-24.0,23.0,6.0,2.0,0.0,0.0,1651071933928387.0,1
338,22.0,3.0,-3.0,14.0,8.0,6.0,6.0,4.0,1651071933950880.0,1
339,-50.0,-19.0,-5.0,15.0,2.0,-4.0,-3.0,-4.0,1651071933950880.0,1
340,-50.0,-20.0,-20.0,-66.0,-36.0,-12.0,-4.0,-4.0,1651071933951661.0,1
341,35.0,-2.0,21.0,29.0,-2.0,-3.0,-7.0,-14.0,1651071933951661.0,1
342,-8.0,12.0,13.0,10.0,14.0,6.0,1.0,5.0,1651071933973755.0,1
343,23.0,-16.0,-27.0,-35.0,7.0,3.0,2.0,2.0,1651071933973755.0,1
344,-34.0,4.0,-9.0,-14.0,4.0,1.0,-2.0,-6.0,1651071933974763.0,1
345,14.0,20.0,39.0,22.0,-5.0,-3.0,1.0,4.0,1651071933974763.0,1
346,43.0,-7.0,-11.0,-13.0,-7.0,-5.0,0.0,0.0,1651071933988877.0,1
347,-49.0,-3.0,10.0,26.0,3.0,2.0,2.0,-3.0,1651071933988877.0,1
348,24.0,-6.0,-6.0,8.0,5.0,1.0,-4.0,-4.0,1651071933988877.0,1
349,-50.0,9.0,10.0,29.0,4.0,-2.0,-2.0,-2.0,1651071933988877.0,1
350,18.0,-8.0,-10.0,-6.0,-15.0,-7.0,-4.0,-4.0,1651071934010855.0,1
351,21.0,0.0,6.0,-1.0,-7.0,-4.0,0.0,2.0,1651071934010855.0,1
352,1.0,14.0,-19.0,-31.0,-2.0,-3.0,-2.0,-1.0,1651071934011613.0,1
353,-19.0,8.0,-5.0,-16.0,0.0,1.0,0.0,0.0,1651071934011613.0,1
354,-65.0,-23.0,-8.0,-2.0,-1.0,-1.0,-2.0,8.0,1651071934033684.0,1
355,8.0,0.0,-13.0,-40.0,-15.0,-4.0,-4.0,-5.0,1651071934033684.0,1
356,43.0,-17.0,12.0,28.0,7.0,1.0,2.0,10.0,1651071934034613.0,1
357,29.0,23.0,43.0,19.0,3.0,3.0,4.0,5.0,1651071934034613.0,1
358,23.0,2.0,6.0,9.0,2.0,-5.0,-2.0,0.0,1651071934047578.0,1
359,-15.0,-3.0,-20.0,-55.0,-10.0,1.0,3.0,-2.0,1651071934047578.0,1
360,39.0,4.0,35.0,95.0,18.0,2.0,0.0,7.0,1651071934048576.0,1
361,-16.0,-29.0,-59.0,-46.0,-6.0,-1.0,-3.0,-8.0,1651071934048576.0,1
362,57.0,24.0,48.0,-26.0,-12.0,-1.0,0.0,2.0,1651071934070638.0,1
363,2.0,8.0,26.0,36.0,17.0,1.0,-4.0,1.0,1651071934070638.0,1
364,-26.0,-10.0,-58.0,-24.0,1.0,-3.0,-2.0,-9.0,1651071934071609.0,1
365,-20.0,4.0,40.0,30.0,13.0,2.0,0.0,-4.0,1651071934071609.0,1
366,1.0,2.0,-34.0,-23.0,-10.0,0.0,3.0,2.0,1651071934093767.0,1
367,33.0,-8.0,-14.0,-57.0,-12.0,-1.0,2.0,5.0,1651071934093767.0,1
368,-4.0,1.0,28.0,20.0,8.0,3.0,2.0,-2.0,1651071934094794.0,1
369,-14.0,-38.0,-11.0,-4.0,2.0,-5.0,-4.0,-3.0,1651071934094794.0,1
370,-22.0,-8.0,-16.0,10.0,3.0,1.0,-3.0,-9.0,1651071934107800.0,1
371,6.0,-1.0,-16.0,28.0,-2.0,0.0,0.0,0.0,1651071934107800.0,1
372,4.0,7.0,-7.0,-72.0,-7.0,1.0,3.0,2.0,1651071934108743.0,1
373,0.0,11.0,29.0,38.0,6.0,3.0,1.0,6.0,1651071934108743.0,1
374,-20.0,-2.0,-12.0,-9.0,0.0,-1.0,-1.0,-6.0,1651071934130952.0,1
375,36.0,5.0,19.0,11.0,1.0,-3.0,-1.0,1.0,1651071934130952.0,1
376,-21.0,-12.0,-8.0,-5.0,-1.0,1.0,-2.0,-3.0,1651071934130952.0,1
377,27.0,9.0,5.0,4.0,-16.0,-9.0,-3.0,-1.0,1651071934130952.0,1
378,4.0,-3.0,16.0,-16.0,9.0,5.0,-1.0,0.0,1651071934154033.0,1
379,-64.0,-13.0,-8.0,14.0,2.0,2.0,-1.0,2.0,1651071934154033.0,1
380,36.0,15.0,33.0,42.0,1.0,2.0,2.0,3.0,1651071934154033.0,1
381,-16.0,10.0,-32.0,-37.0,0.0,1.0,1.0,3.0,1651071934154033.0,1
382,-15.0,-6.0,3.0,-31.0,-8.0,-5.0,-3.0,-4.0,1651071934168057.0,1
383,20.0,-6.0,-12.0,1.0,-4.0,-3.0,-3.0,-1.0,1651071934168057.0,1
384,-17.0,28.0,36.0,15.0,3.0,0.0,-3.0,-4.0,1651071934169022.0,1
385,18.0,13.0,-5.0,-18.0,-5.0,3.0,2.0,-1.0,1651071934169022.0,1
386,-4.0,10.0,0.0,17.0,-6.0,-6.0,-2.0,-1.0,1651071934190345.0,1
387,22.0,22.0,15.0,-18.0,18.0,5.0,2.0,0.0,1651071934190345.0,1
388,-90.0,-17.0,-9.0,4.0,-5.0,-6.0,-1.0,-6.0,1651071934191342.0,1
389,42.0,-9.0,-23.0,-6.0,-8.0,0.0,-3.0,-5.0,1651071934191342.0,1
390,-36.0,-2.0,30.0,18.0,13.0,3.0,2.0,4.0,1651071934214079.0,1
391,14.0,5.0,-40.0,-10.0,-19.0,-6.0,-2.0,0.0,1651071934214079.0,1
392,40.0,6.0,1.0,-8.0,12.0,5.0,1.0,8.0,1651071934214079.0,1
393,-9.0,10.0,1.0,1.0,4.0,-2.0,-1.0,-2.0,1651071934214079.0,1
394,4.0,8.0,17.0,38.0,11.0,11.0,5.0,6.0,1651071934227844.0,1
395,17.0,-23.0,-25.0,-34.0,1.0,-3.0,-3.0,-4.0,1651071934227844.0,1
396,5.0,20.0,27.0,-21.0,-15.0,-2.0,1.0,2.0,1651071934228842.0,1
397,-7.0,-1.0,-16.0,23.0,5.0,-3.0,-2.0,-3.0,1651071934228842.0,1
398,7.0,-5.0,-28.0,-8.0,2.0,0.0,-1.0,-4.0,1651071934250921.0,1
399,16.0,15.0,29.0,-10.0,-6.0,0.0,0.0,1.0,1651071934250921.0,1
400,9.0,-44.0,-33.0,17.0,3.0,-6.0,-3.0,-7.0,1651071934250921.0,1
401,-31.0,9.0,9.0,-11.0,1.0,1.0,2.0,6.0,1651071934250921.0,1
402,40.0,19.0,23.0,7.0,1.0,0.0,3.0,8.0,1651071934273888.0,1
403,-3.0,-6.0,-8.0,13.0,-5.0,1.0,0.0,-1.0,1651071934273888.0,1
404,-23.0,0.0,-28.0,-23.0,-31.0,-11.0,-7.0,-8.0,1651071934274825.0,1
405,-2.0,-29.0,-52.0,-38.0,10.0,3.0,-2.0,2.0,1651071934274825.0,1
406,-27.0,11.0,27.0,28.0,2.0,0.0,-3.0,-10.0,1651071934288365.0,1
407,-57.0,-17.0,1.0,14.0,-4.0,0.0,0.0,3.0,1651071934288365.0,1
408,-6.0,13.0,7.0,3.0,8.0,3.0,0.0,-3.0,1651071934288365.0,1
409,-8.0,-15.0,42.0,24.0,-10.0,-4.0,-2.0,-3.0,1651071934288365.0,1
410,22.0,21.0,-93.0,-25.0,-2.0,3.0,2.0,1.0,1651071934310516.0,1
411,-10.0,-4.0,8.0,-7.0,9.0,0.0,4.0,3.0,1651071934310516.0,1
412,-13.0,1.0,37.0,31.0,4.0,-2.0,-1.0,-5.0,1651071934311447.0,1
413,35.0,-5.0,-34.0,-55.0,-21.0,-4.0,-3.0,-1.0,1651071934311447.0,1
414,-40.0,-19.0,46.0,18.0,12.0,2.0,-2.0,-5.0,1651071934334088.0,1
415,-20.0,-1.0,-48.0,2.0,0.0,2.0,2.0,-7.0,1651071934334088.0,1
416,7.0,5.0,8.0,23.0,10.0,1.0,0.0,3.0,1651071934334088.0,1
417,33.0,-6.0,24.0,28.0,6.0,0.0,1.0,0.0,1651071934334088.0,1
418,29.0,12.0,5.0,-25.0,-10.0,-1.0,-2.0,2.0,1651071934347122.0,1
419,-11.0,-45.0,-64.0,8.0,-8.0,-6.0,-2.0,-1.0,1651071934347122.0,1
420,-48.0,-9.0,1.0,-33.0,-3.0,1.0,0.0,-3.0,1651071934355219.0,1
421,1.0,-1.0,-2.0,7.0,7.0,3.0,1.0,0.0,1651071934355219.0,1
422,17.0,-5.0,12.0,2.0,-14.0,-10.0,-5.0,2.0,1651071934370348.0,1
423,17.0,15.0,32.0,20.0,10.0,5.0,3.0,1.0,1651071934370348.0,1
424,18.0,-3.0,-5.0,-18.0,0.0,2.0,1.0,4.0,1651071934371280.0,1
425,-14.0,7.0,-14.0,18.0,3.0,0.0,3.0,-2.0,1651071934371280.0,1
426,-17.0,-17.0,-30.0,-19.0,2.0,-1.0,1.0,0.0,1651071934393790.0,1
427,17.0,18.0,14.0,-13.0,-12.0,0.0,2.0,1.0,1651071934393790.0,1
428,66.0,-17.0,1.0,14.0,2.0,-2.0,-4.0,0.0,1651071934394343.0,1
429,-46.0,17.0,25.0,20.0,10.0,1.0,0.0,-1.0,1651071934394343.0,1
430,1.0,-4.0,0.0,-8.0,1.0,2.0,2.0,5.0,1651071934407734.0,1
431,7.0,-2.0,-6.0,26.0,6.0,-6.0,-7.0,-11.0,1651071934407734.0,1
432,14.0,-32.0,-15.0,8.0,-1.0,2.0,0.0,0.0,1651071934415852.0,1
433,33.0,26.0,35.0,-24.0,-3.0,2.0,4.0,5.0,1651071934415852.0,1
434,2.0,-11.0,-17.0,14.0,14.0,3.0,-1.0,-2.0,1651071934430731.0,1
435,9.0,10.0,20.0,12.0,-11.0,-5.0,-5.0,-2.0,1651071934430731.0,1
436,-23.0,19.0,1.0,-12.0,-2.0,1.0,2.0,-3.0,1651071934431661.0,1
437,-5.0,-4.0,20.0,10.0,3.0,1.0,-1.0,1.0,1651071934431661.0,1
438,-16.0,16.0,-21.0,21.0,-6.0,-2.0,-3.0,-6.0,1651071934453762.0,1
439,6.0,-2.0,11.0,-37.0,-4.0,0.0,2.0,2.0,1651071934453762.0,1
440,-31.0,5.0,-38.0,-16.0,-1.0,-1.0,-2.0,2.0,1651071934454747.0,1
441,12.0,-17.0,-17.0,35.0,-7.0,-9.0,-8.0,-8.0,1651071934454747.0,1
442,-22.0,9.0,4.0,-20.0,8.0,2.0,-2.0,-2.0,1651071934467719.0,1
443,12.0,4.0,4.0,2.0,3.0,1.0,-1.0,4.0,1651071934467719.0,1
444,7.0,19.0,5.0,-17.0,-6.0,0.0,3.0,2.0,1651071934475742.0,1
445,4.0,-5.0,-8.0,-24.0,-13.0,-1.0,0.0,3.0,1651071934475742.0,1
446,9.0,-2.0,17.0,29.0,6.0,1.0,0.0,-4.0,1651071934490879.0,1
447,-22.0,-23.0,-32.0,-46.0,-3.0,-2.0,-2.0,2.0,1651071934490879.0,1
448,0.0,6.0,22.0,37.0,13.0,4.0,1.0,1.0,1651071934491649.0,1
449,-7.0,-1.0,4.0,-4.0,-2.0,1.0,2.0,-1.0,1651071934491649.0,1
450,4.0,-14.0,-37.0,40.0,0.0,-2.0,1.0,1.0,1651071934513746.0,1
451,-6.0,-19.0,-33.0,-65.0,-14.0,-4.0,0.0,-3.0,1651071934513746.0,1
452,-10.0,5.0,17.0,35.0,11.0,-3.0,-6.0,-8.0,1651071934514707.0,1
453,-48.0,-27.0,2.0,-4.0,1.0,-1.0,-3.0,-4.0,1651071934514707.0,1
454,-1.0,5.0,19.0,-12.0,-9.0,-3.0,-1.0,-1.0,1651071934527731.0,1
455,4.0,19.0,22.0,20.0,9.0,4.0,1.0,2.0,1651071934527731.0,1
456,-4.0,-5.0,-21.0,-21.0,-7.0,0.0,0.0,0.0,1651071934543465.0,1
457,13.0,10.0,4.0,-17.0,2.0,3.0,1.0,2.0,1651071934543465.0,1
458,6.0,-12.0,-2.0,-13.0,-14.0,-4.0,1.0,-1.0,1651071934550078.0,1
459,5.0,9.0,30.0,45.0,16.0,4.0,3.0,2.0,1651071934550078.0,1
460,6.0,-1.0,-3.0,-16.0,-7.0,-4.0,-1.0,0.0,1651071934551089.0,1
461,1.0,1.0,-7.0,5.0,5.0,2.0,1.0,3.0,1651071934551089.0,1
462,-17.0,10.0,13.0,57.0,3.0,-6.0,-7.0,-13.0,1651071934574099.0,1
463,-4.0,-7.0,2.0,17.0,0.0,-3.0,-3.0,-4.0,1651071934574099.0,1
464,-1.0,4.0,-5.0,-12.0,1.0,0.0,1.0,2.0,1651071934574099.0,1
465,3.0,3.0,20.0,-10.0,-7.0,2.0,3.0,3.0,1651071934574099.0,1
466,0.0,-7.0,-24.0,-46.0,-3.0,1.0,2.0,2.0,1651071934587131.0,1
467,5.0,6.0,12.0,21.0,4.0,1.0,-2.0,1.0,1651071934587131.0,1
468,-7.0,6.0,9.0,6.0,2.0,0.0,-1.0,-3.0,1651071934595376.0,1
469,1.0,-3.0,-5.0,-6.0,-2.0,-1.0,-2.0,0.0,1651071934595376.0,1
470,7.0,-5.0,11.0,-3.0,-2.0,-1.0,0.0,1.0,1651071934610605.0,1
471,0.0,8.0,3.0,-3.0,1.0,0.0,-3.0,-1.0,1651071934610605.0,1
472,4.0,-2.0,0.0,-11.0,-5.0,-1.0,1.0,0.0,1651071934611605.0,1
473,-2.0,-3.0,-18.0,0.0,-2.0,-1.0,0.0,-1.0,1651071934611605.0,1
474,2.0,1.0,2.0,-8.0,0.0,1.0,-2.0,0.0,1651071934633851.0,1
475,0.0,6.0,4.0,9.0,-5.0,-2.0,0.0,1.0,1651071934633851.0,1
476,-4.0,-5.0,-10.0,-6.0,-1.0,1.0,-1.0,-3.0,1651071934634874.0,1
477,1.0,-1.0,-4.0,10.0,1.0,-6.0,-2.0,-1.0,1651071934634874.0,1
478,-2.0,1.0,3.0,1.0,2.0,1.0,0.0,0.0,1651071934647426.0,1
479,1.0,2.0,4.0,-12.0,-1.0,1.0,0.0,0.0,1651071934647426.0,1
480,2.0,-3.0,-4.0,5.0,0.0,-1.0,-1.0,0.0,1651071934655429.0,1
481,0.0,1.0,-2.0,11.0,-5.0,-2.0,-1.0,-1.0,1651071934655429.0,1
482,3.0,-4.0,2.0,-17.0,-4.0,-2.0,0.0,2.0,1651071934670456.0,1
483,-1.0,0.0,-3.0,1.0,1.0,-1.0,-2.0,-2.0,1651071934670456.0,1
484,-5.0,-1.0,0.0,6.0,1.0,1.0,-1.0,0.0,1651071934671405.0,1
485,0.0,2.0,-3.0,-3.0,2.0,0.0,1.0,-1.0,1651071934671405.0,1
486,-1.0,-4.0,-2.0,-10.0,-5.0,-2.0,-3.0,-3.0,1651071934693790.0,1
487,5.0,6.0,1.0,2.0,2.0,-1.0,1.0,0.0,1651071934693790.0,1
488,-1.0,0.0,1.0,0.0,2.0,2.0,1.0,0.0,1651071934694604.0,1
489,-5.0,-4.0,-1.0,-7.0,-4.0,-5.0,-2.0,-3.0,1651071934694604.0,1
490,0.0,-1.0,1.0,3.0,8.0,1.0,0.0,0.0,1651071934717659.0,1
491,3.0,4.0,6.0,23.0,-11.0,2.0,2.0,1.0,1651071934717659.0,1
492,-1.0,-3.0,-3.0,-13.0,10.0,2.0,0.0,2.0,1651071934718677.0,1
493,2.0,3.0,1.0,6.0,-5.0,2.0,0.0,0.0,1651071934718677.0,1
494,3.0,1.0,-3.0,-13.0,-18.0,-6.0,-1.0,-2.0,1651071934730624.0,1
495,-4.0,-4.0,-5.0,-7.0,22.0,13.0,3.0,0.0,1651071934730624.0,1
496,3.0,0.0,1.0,1.0,-19.0,-8.0,-2.0,0.0,1651071934731625.0,1
497,0.0,-2.0,-6.0,0.0,17.0,2.0,0.0,1.0,1651071934731625.0,1
498,-2.0,-1.0,2.0,-6.0,0.0,2.0,3.0,1.0,1651071934753590.0,1
499,1.0,0.0,1.0,3.0,-20.0,-9.0,-3.0,-1.0,1651071934753590.0,1
500,-1.0,-8.0,-4.0,-9.0,-2.0,-5.0,-3.0,-1.0,1651071934754560.0,1
501,-2.0,-2.0,-3.0,1.0,0.0,0.0,-1.0,-3.0,1651071934754560.0,1
502,-1.0,1.0,-2.0,-16.0,-7.0,-2.0,-2.0,0.0,1651071934776510.0,1
503,-4.0,-3.0,0.0,7.0,4.0,-1.0,-1.0,-3.0,1651071934776510.0,1
504,-2.0,1.0,-1.0,-4.0,2.0,2.0,0.0,0.0,1651071934776510.0,1
505,4.0,3.0,-3.0,0.0,-2.0,-5.0,-1.0,3.0,1651071934776510.0,1
506,0.0,0.0,-2.0,-3.0,7.0,2.0,1.0,3.0,1651071934790528.0,1
507,-4.0,0.0,2.0,-2.0,-8.0,-3.0,0.0,-1.0,1651071934790528.0,1
508,-4.0,0.0,-1.0,4.0,8.0,2.0,-1.0,-3.0,1651071934791462.0,1
509,1.0,-3.0,-4.0,-1.0,-2.0,4.0,0.0,-1.0,1651071934791462.0,1
510,2.0,1.0,3.0,7.0,13.0,9.0,2.0,0.0,1651071934821597.0,1
511,-1.0,-1.0,3.0,-3.0,-2.0,-3.0,0.0,-2.0,1651071934821597.0,1
512,1.0,3.0,-3.0,0.0,-4.0,-1.0,2.0,-1.0,1651071934821597.0,1
513,0.0,-3.0,2.0,-4.0,-20.0,-6.0,-1.0,0.0,1651071934821597.0,1
514,1.0,-3.0,-3.0,8.0,16.0,3.0,-1.0,-1.0,1651071934836617.0,1
515,-1.0,3.0,-5.0,-3.0,2.0,0.0,0.0,1.0,1651071934836617.0,1
516,0.0,-1.0,0.0,-7.0,-4.0,-4.0,-2.0,-2.0,1651071934836617.0,1
517,-1.0,1.0,-4.0,-6.0,-2.0,2.0,-1.0,-2.0,1651071934836617.0,1
518,-3.0,-6.0,4.0,-1.0,-3.0,-3.0,-2.0,0.0,1651071934850829.0,1
519,2.0,-1.0,1.0,3.0,7.0,2.0,-1.0,0.0,1651071934850829.0,1
520,0.0,3.0,-1.0,-4.0,-5.0,-4.0,-2.0,0.0,1651071934851618.0,1
521,-1.0,-5.0,-4.0,-2.0,-7.0,-3.0,-1.0,-1.0,1651071934851618.0,1
522,1.0,2.0,1.0,5.0,-3.0,-1.0,-1.0,1.0,1651071934873840.0,1
523,-2.0,-1.0,2.0,3.0,20.0,2.0,-1.0,0.0,1651071934873840.0,1
524,1.0,-1.0,-3.0,0.0,-1.0,0.0,1.0,0.0,1651071934874805.0,1
525,0.0,3.0,2.0,-8.0,-15.0,-6.0,-2.0,-2.0,1651071934874805.0,1
526,-1.0,-1.0,4.0,-6.0,3.0,-1.0,-1.0,-1.0,1651071934894963.0,1
527,0.0,2.0,-4.0,-2.0,-13.0,-5.0,-2.0,1.0,1651071934894963.0,1
528,-4.0,-21.0,-56.0,-11.0,11.0,3.0,-1.0,-2.0,1651071934902941.0,1
529,2.0,9.0,29.0,17.0,8.0,3.0,1.0,1.0,1651071934902941.0,1
530,-2.0,3.0,-28.0,4.0,-8.0,-7.0,1.0,-3.0,1651071934910856.0,1
531,-3.0,-6.0,14.0,-8.0,-6.0,-1.0,-2.0,-3.0,1651071934910856.0,1
532,-1.0,-1.0,8.0,6.0,-2.0,0.0,1.0,-1.0,1651071934911631.0,1
533,-1.0,-2.0,-4.0,-9.0,2.0,-2.0,1.0,-2.0,1651071934911631.0,1
534,2.0,6.0,13.0,3.0,-3.0,4.0,1.0,2.0,1651071934934478.0,1
535,0.0,-2.0,-8.0,5.0,1.0,-2.0,-1.0,-2.0,1651071934934478.0,1
536,-1.0,2.0,9.0,1.0,-14.0,-3.0,0.0,-1.0,1651071934935307.0,1
537,-1.0,-2.0,13.0,7.0,21.0,7.0,0.0,1.0,1651071934935307.0,1
538,2.0,3.0,-21.0,0.0,-3.0,-1.0,-1.0,1.0,1651071934955919.0,1
539,1.0,-12.0,-3.0,-9.0,-1.0,1.0,2.0,0.0,1651071934955919.0,1
540,-3.0,-3.0,-5.0,2.0,5.0,1.0,-2.0,-3.0,1651071934956856.0,1
541,-1.0,4.0,-1.0,-3.0,-2.0,0.0,-2.0,-2.0,1651071934956856.0,1
542,-1.0,8.0,8.0,2.0,-7.0,-5.0,-4.0,-1.0,1651071934970873.0,1
543,-2.0,-17.0,-38.0,-7.0,2.0,5.0,-1.0,-2.0,1651071934970873.0,1
544,2.0,1.0,18.0,4.0,-5.0,-4.0,-1.0,-1.0,1651071934970873.0,1
545,1.0,0.0,-5.0,-2.0,2.0,0.0,2.0,0.0,1651071934970873.0,1
546,1.0,-1.0,0.0,-6.0,-7.0,-5.0,-1.0,1.0,1651071934993886.0,1
547,0.0,4.0,11.0,3.0,9.0,1.0,2.0,0.0,1651071934993886.0,1
548,1.0,3.0,9.0,1.0,-5.0,-3.0,-1.0,0.0,1651071934993886.0,1
549,-4.0,-7.0,-11.0,-2.0,-12.0,-5.0,-2.0,-1.0,1651071934993886.0,1
550,0.0,-1.0,12.0,-1.0,11.0,6.0,3.0,2.0,1651071935015985.0,1
551,-2.0,-5.0,-25.0,-4.0,-7.0,-3.0,-2.0,-1.0,1651071935015985.0,1
552,1.0,5.0,10.0,2.0,10.0,1.0,1.0,2.0,1651071935016982.0,1
553,2.0,2.0,14.0,2.0,1.0,2.0,2.0,1.0,1651071935016982.0,1
554,-5.0,-11.0,-9.0,-5.0,-14.0,-6.0,-2.0,-3.0,1651071935030825.0,1
555,2.0,10.0,6.0,3.0,-9.0,-1.0,1.0,1.0,1651071935030825.0,1
556,-2.0,-12.0,-24.0,-7.0,1.0,4.0,0.0,-1.0,1651071935031382.0,1
557,-1.0,0.0,-1.0,0.0,2.0,-2.0,-1.0,-1.0,1651071935031382.0,1
558,1.0,0.0,16.0,0.0,2.0,0.0,-1.0,1.0,1651071935053802.0,1
559,2.0,5.0,-12.0,0.0,2.0,-2.0,-2.0,-1.0,1651071935053802.0,1
560,1.0,-4.0,-1.0,0.0,-5.0,-3.0,-1.0,1.0,1651071935054378.0,1
561,-1.0,1.0,-1.0,2.0,3.0,1.0,-2.0,1.0,1651071935054378.0,1
562,-1.0,-10.0,-4.0,-5.0,-2.0,-1.0,0.0,-2.0,1651071935076103.0,1
563,-1.0,1.0,2.0,-1.0,3.0,-1.0,-1.0,-2.0,1651071935076103.0,1
564,1.0,10.0,9.0,5.0,6.0,5.0,-1.0,0.0,1651071935077060.0,1
565,3.0,1.0,-26.0,-1.0,3.0,1.0,-1.0,1.0,1651071935077060.0,1
566,-3.0,-7.0,15.0,1.0,-7.0,-2.0,-3.0,-2.0,1651071935090066.0,1
567,1.0,4.0,24.0,2.0,-2.0,-3.0,-2.0,0.0,1651071935090066.0,1
568,0.0,3.0,-12.0,-5.0,-12.0,-4.0,1.0,-1.0,1651071935090996.0,1
569,-2.0,-14.0,-7.0,3.0,15.0,6.0,1.0,-3.0,1651071935090996.0,1
570,1.0,-6.0,-3.0,-2.0,-1.0,0.0,-1.0,-1.0,1651071935113848.0,1
571,0.0,10.0,6.0,1.0,-7.0,-2.0,0.0,0.0,1651071935113848.0,1
572,-2.0,-1.0,-1.0,-4.0,3.0,-1.0,-1.0,-1.0,1651071935114892.0,1
573,1.0,3.0,8.0,-1.0,-5.0,-3.0,-1.0,0.0,1651071935114892.0,1
574,1.0,1.0,-8.0,-1.0,-2.0,-3.0,1.0,-1.0,1651071935135859.0,1
575,0.0,-2.0,4.0,2.0,1.0,1.0,0.0,1.0,1651071935135859.0,1
576,-3.0,0.0,5.0,-1.0,-2.0,-1.0,-2.0,-1.0,1651071935136789.0,1
577,-3.0,-4.0,-10.0,-3.0,-6.0,-5.0,-3.0,-1.0,1651071935136789.0,1
578,-1.0,-1.0,-6.0,3.0,10.0,5.0,1.0,0.0,1651071935150821.0,1
579,2.0,3.0,24.0,-4.0,-7.0,-3.0,-1.0,-1.0,1651071935150821.0,1
580,0.0,-4.0,-6.0,1.0,2.0,-1.0,0.0,0.0,1651071935150821.0,1
581,0.0,-6.0,-13.0,-3.0,-2.0,-2.0,-1.0,-2.0,1651071935150821.0,1
582,-1.0,6.0,-5.0,1.0,0.0,-1.0,-1.0,0.0,1651071935173877.0,1
583,-1.0,-5.0,15.0,2.0,-2.0,0.0,-1.0,-2.0,1651071935173877.0,1
584,2.0,1.0,-2.0,-1.0,-1.0,-1.0,2.0,-1.0,1651071935174857.0,1
585,0.0,5.0,8.0,5.0,7.0,1.0,0.0,-1.0,1651071935174857.0,1
586,0.0,14.0,45.0,3.0,6.0,4.0,2.0,0.0,1651071935195908.0,1
587,-1.0,-8.0,-35.0,-7.0,-8.0,-2.0,-1.0,-2.0,1651071935195908.0,1
588,0.0,10.0,14.0,2.0,4.0,2.0,-2.0,-1.0,1651071935196839.0,1
589,-1.0,-9.0,-12.0,-2.0,-2.0,0.0,-1.0,-1.0,1651071935196839.0,1
590,-1.0,5.0,10.0,-1.0,0.0,-3.0,-2.0,0.0,1651071935210932.0,1
591,0.0,4.0,8.0,1.0,4.0,0.0,-1.0,1.0,1651071935210932.0,1
592,-3.0,-5.0,-3.0,2.0,-1.0,-2.0,0.0,-2.0,1651071935210932.0,1
593,-1.0,7.0,14.0,-2.0,2.0,3.0,0.0,0.0,1651071935210932.0,1
594,0.0,-7.0,-21.0,-2.0,-2.0,0.0,0.0,1.0,1651071935233679.0,1
595,-1.0,-4.0,-9.0,2.0,-1.0,-3.0,0.0,-1.0,1651071935233679.0,1
596,-1.0,1.0,-1.0,-2.0,1.0,1.0,-3.0,1.0,1651071935234676.0,1
597,-2.0,-5.0,-27.0,-6.0,-2.0,-1.0,-2.0,-2.0,1651071935234676.0,1
598,1.0,1.0,7.0,0.0,-1.0,-1.0,-2.0,0.0,1651071935256636.0,1
599,-2.0,-12.0,-40.0,-4.0,2.0,-1.0,0.0,-1.0,1651071935256636.0,1
600,-1.0,-3.0,10.0,1.0,-6.0,-5.0,-2.0,-1.0,1651071935256636.0,1
601,0.0,2.0,-1.0,-2.0,4.0,1.0,-1.0,-1.0,1651071935256636.0,1
602,-2.0,-2.0,-5.0,-1.0,3.0,-1.0,-2.0,-1.0,1651071935270878.0,1
603,-2.0,4.0,7.0,-1.0,-3.0,-1.0,1.0,-2.0,1651071935270878.0,1
604,2.0,1.0,16.0,4.0,1.0,0.0,2.0,0.0,1651071935271382.0,1
605,-1.0,-5.0,-18.0,0.0,-1.0,0.0,1.0,0.0,1651071935271382.0,1
606,-1.0,-2.0,-13.0,-6.0,-6.0,-1.0,-2.0,-2.0,1651071935293545.0,1
607,-1.0,7.0,40.0,5.0,0.0,1.0,-2.0,0.0,1651071935293545.0,1
608,-3.0,-12.0,-22.0,-3.0,-2.0,-1.0,-1.0,-2.0,1651071935294476.0,1
609,0.0,11.0,8.0,1.0,-1.0,-4.0,0.0,1.0,1651071935294476.0,1
610,0.0,-10.0,3.0,1.0,2.0,1.0,-1.0,-1.0,1651071935316425.0,1
611,0.0,8.0,6.0,4.0,5.0,3.0,1.0,2.0,1651071935316425.0,1
612,-1.0,-15.0,-8.0,-2.0,-6.0,-3.0,-2.0,-2.0,1651071935317414.0,1
613,0.0,4.0,11.0,1.0,1.0,1.0,0.0,0.0,1651071935317414.0,1
614,-2.0,-4.0,-24.0,-3.0,-5.0,-3.0,2.0,-1.0,1651071935329440.0,1
615,-2.0,-3.0,6.0,-1.0,0.0,-1.0,-1.0,0.0,1651071935329440.0,1
616,0.0,8.0,3.0,-2.0,1.0,2.0,0.0,1.0,1651071935338383.0,1
617,-3.0,-9.0,-16.0,-1.0,-4.0,-3.0,-1.0,-1.0,1651071935338383.0,1
618,0.0,1.0,1.0,0.0,-3.0,-2.0,-4.0,-2.0,1651071935353385.0,1
619,1.0,-2.0,-3.0,-1.0,4.0,3.0,0.0,2.0,1651071935353385.0,1
620,2.0,1.0,-2.0,0.0,6.0,2.0,0.0,0.0,1651071935354316.0,1
621,1.0,4.0,17.0,-1.0,-4.0,-2.0,0.0,0.0,1651071935354316.0,1
622,-3.0,-6.0,3.0,-1.0,0.0,-1.0,0.0,-1.0,1651071935376747.0,1
623,-2.0,3.0,-2.0,0.0,1.0,-3.0,-1.0,1.0,1651071935376747.0,1
624,-2.0,-10.0,-26.0,-10.0,-6.0,0.0,-2.0,0.0,1651071935377678.0,1
625,2.0,1.0,5.0,0.0,-1.0,-2.0,-1.0,-1.0,1651071935377678.0,1
626,1.0,1.0,-3.0,2.0,3.0,2.0,-1.0,2.0,1651071935389645.0,1
627,1.0,2.0,-2.0,0.0,2.0,0.0,0.0,-2.0,1651071935389645.0,1
628,1.0,9.0,28.0,3.0,2.0,0.0,2.0,0.0,1651071935397691.0,1
629,0.0,2.0,3.0,0.0,2.0,3.0,1.0,-1.0,1651071935397691.0,1
630,-1.0,-3.0,-5.0,-3.0,-6.0,-3.0,0.0,2.0,1651071935413827.0,1
631,-1.0,-6.0,-2.0,-3.0,-4.0,-3.0,-2.0,-1.0,1651071935413827.0,1
632,3.0,8.0,16.0,1.0,-1.0,-2.0,1.0,-1.0,1651071935414736.0,1
633,-3.0,-2.0,-6.0,-1.0,-3.0,-4.0,-2.0,-1.0,1651071935414736.0,1
634,-1.0,6.0,18.0,4.0,6.0,1.0,-1.0,0.0,1651071935436230.0,1
635,-1.0,-7.0,-9.0,-1.0,2.0,2.0,0.0,0.0,1651071935436230.0,1
636,1.0,1.0,5.0,4.0,4.0,0.0,-1.0,-1.0,1651071935437189.0,1
637,1.0,0.0,12.0,-1.0,-3.0,-1.0,-2.0,-1.0,1651071935437189.0,1
638,-1.0,-3.0,-13.0,-3.0,-5.0,-3.0,-1.0,-1.0,1651071935450205.0,1
639,0.0,3.0,11.0,2.0,3.0,2.0,1.0,-1.0,1651071935450205.0,1
640,0.0,5.0,7.0,2.0,-3.0,0.0,0.0,2.0,1651071935458186.0,1
641,-2.0,-3.0,-3.0,-1.0,1.0,-1.0,-1.0,-1.0,1651071935458186.0,1
642,-1.0,-1.0,-7.0,-2.0,1.0,-2.0,-1.0,0.0,1651071935473208.0,1
643,-1.0,5.0,11.0,-1.0,-2.0,-4.0,0.0,0.0,1651071935473208.0,1
644,0.0,-3.0,-7.0,1.0,3.0,0.0,1.0,-2.0,1651071935474148.0,1
645,-1.0,1.0,3.0,-1.0,-2.0,-3.0,-1.0,1.0,1651071935474148.0,1
646,1.0,0.0,17.0,1.0,1.0,1.0,2.0,2.0,1651071935496137.0,1
647,0.0,-3.0,-35.0,-3.0,-3.0,-1.0,0.0,-1.0,1651071935496137.0,1
648,-3.0,-1.0,10.0,1.0,1.0,-1.0,0.0,-3.0,1651071935497082.0,1
649,0.0,-2.0,-2.0,-3.0,-7.0,0.0,0.0,0.0,1651071935497082.0,1
650,1.0,1.0,0.0,2.0,7.0,2.0,1.0,-1.0,1651071935510259.0,1
651,-1.0,1.0,5.0,0.0,-1.0,0.0,-1.0,-1.0,1651071935510259.0,1
652,0.0,1.0,-6.0,0.0,1.0,2.0,1.0,1.0,1651071935518307.0,1
653,-1.0,-3.0,-3.0,1.0,-4.0,0.0,-1.0,0.0,1651071935518307.0,1
654,-1.0,2.0,-1.0,1.0,-5.0,-1.0,-1.0,0.0,1651071935533402.0,1
655,-2.0,-6.0,-5.0,-6.0,-8.0,-2.0,-1.0,-1.0,1651071935533402.0,1
656,-2.0,-3.0,-12.0,-1.0,5.0,-3.0,-2.0,0.0,1651071935534379.0,1
657,1.0,0.0,9.0,1.0,3.0,2.0,2.0,1.0,1651071935534379.0,1
658,0.0,0.0,-7.0,-2.0,-2.0,0.0,-1.0,0.0,1651071935555731.0,1
659,0.0,-1.0,0.0,1.0,3.0,0.0,-2.0,-2.0,1651071935555731.0,1
660,1.0,2.0,2.0,0.0,-4.0,1.0,-1.0,-1.0,1651071935556682.0,1
661,-2.0,-2.0,-1.0,0.0,0.0,-2.0,0.0,-2.0,1651071935556682.0,1
662,-2.0,-2.0,-2.0,-1.0,-2.0,-3.0,0.0,-3.0,1651071935570219.0,1
663,1.0,2.0,-10.0,-3.0,1.0,0.0,0.0,-1.0,1651071935570219.0,1
664,-4.0,-12.0,-6.0,-1.0,-8.0,-3.0,-2.0,-3.0,1651071935577758.0,1
665,1.0,6.0,16.0,4.0,3.0,4.0,-1.0,0.0,1651071935577758.0,1
666,-1.0,-1.0,-10.0,-1.0,7.0,1.0,-1.0,-1.0,1651071935593369.0,1
667,1.0,1.0,13.0,0.0,-1.0,0.0,-1.0,1.0,1651071935593369.0,1
668,-1.0,0.0,-9.0,-3.0,-2.0,-1.0,2.0,0.0,1651071935593823.0,1
669,-1.0,0.0,4.0,-2.0,-5.0,-2.0,-2.0,1.0,1651071935593823.0,1
670,-3.0,-9.0,-17.0,-9.0,-8.0,-4.0,-1.0,-1.0,1651071935615972.0,1
671,0.0,3.0,-2.0,0.0,-2.0,-3.0,-2.0,0.0,1651071935615972.0,1
672,1.0,6.0,4.0,0.0,4.0,1.0,1.0,0.0,1651071935616915.0,1
673,-1.0,-5.0,-6.0,-2.0,-1.0,0.0,1.0,-1.0,1651071935616915.0,1
674,2.0,5.0,7.0,2.0,2.0,1.0,1.0,-1.0,1651071935629935.0,1
675,1.0,-5.0,-4.0,1.0,-1.0,-1.0,0.0,-1.0,1651071935629935.0,1
676,-1.0,-1.0,0.0,-1.0,-2.0,0.0,-2.0,-1.0,1651071935637913.0,1
677,-1.0,1.0,4.0,0.0,0.0,-2.0,0.0,0.0,1651071935637913.0,1
678,-2.0,-4.0,-18.0,-1.0,-4.0,-1.0,-1.0,0.0,1651071935654626.0,1
679,-2.0,-8.0,-10.0,0.0,0.0,3.0,0.0,-1.0,1651071935654626.0,1
680,-1.0,-1.0,-8.0,-3.0,1.0,1.0,-2.0,-1.0,1651071935654626.0,1
681,0.0,1.0,-5.0,0.0,3.0,-2.0,0.0,-2.0,1651071935654626.0,1
682,-1.0,4.0,10.0,2.0,-1.0,-2.0,-1.0,-1.0,1651071935676570.0,1
683,-2.0,1.0,6.0,-2.0,-3.0,-3.0,-1.0,1.0,1651071935676570.0,1
684,0.0,3.0,3.0,0.0,-6.0,-3.0,-2.0,-2.0,1651071935676570.0,1
685,-3.0,-3.0,-6.0,-4.0,-1.0,-2.0,-1.0,-1.0,1651071935676570.0,1
686,0.0,0.0,-8.0,1.0,2.0,5.0,0.0,0.0,1651071935698663.0,1
687,0.0,0.0,9.0,0.0,1.0,-1.0,0.0,-1.0,1651071935698663.0,1
688,-1.0,-2.0,2.0,0.0,2.0,-1.0,0.0,1.0,1651071935699593.0,1
689,1.0,-1.0,-3.0,-3.0,-4.0,-1.0,1.0,0.0,1651071935699593.0,1
690,0.0,-2.0,7.0,-1.0,-1.0,-2.0,-1.0,-2.0,1651071935713772.0,1
691,0.0,1.0,-3.0,-1.0,-3.0,2.0,0.0,-1.0,1651071935713772.0,1
692,1.0,0.0,2.0,1.0,9.0,3.0,1.0,-1.0,1651071935714800.0,1
693,-1.0,-1.0,2.0,4.0,5.0,1.0,0.0,1.0,1651071935714800.0,1
694,-1.0,-1.0,1.0,1.0,2.0,-1.0,0.0,0.0,1651071935736607.0,1
695,0.0,0.0,1.0,0.0,-3.0,-3.0,-1.0,-3.0,1651071935736607.0,1
696,0.0,0.0,-4.0,-2.0,-7.0,-2.0,-1.0,1.0,1651071935736607.0,1
697,0.0,0.0,-2.0,-2.0,-1.0,1.0,-2.0,-2.0,1651071935736607.0,1
698,2.0,5.0,16.0,1.0,0.0,1.0,1.0,-1.0,1651071935757626.0,1
699,-1.0,-4.0,-13.0,-1.0,-1.0,-2.0,1.0,-2.0,1651071935757626.0,1
700,-1.0,0.0,7.0,1.0,-4.0,0.0,-1.0,0.0,1651071935765672.0,1
701,-2.0,-6.0,-8.0,-1.0,7.0,-2.0,0.0,-1.0,1651071935765672.0,1
702,2.0,2.0,-1.0,-3.0,-3.0,3.0,0.0,0.0,1651071935773595.0,1
703,1.0,1.0,18.0,1.0,-2.0,-1.0,-1.0,-2.0,1651071935773595.0,1
704,0.0,0.0,1.0,1.0,1.0,-2.0,-1.0,-1.0,1651071935774582.0,1
705,1.0,4.0,-6.0,-5.0,-8.0,0.0,-1.0,-2.0,1651071935774582.0,1
706,-3.0,-5.0,9.0,-1.0,-3.0,-4.0,-1.0,0.0,1651071935796655.0,1
707,0.0,-1.0,-8.0,1.0,6.0,-1.0,-1.0,-1.0,1651071935796655.0,1
708,0.0,-1.0,1.0,0.0,2.0,3.0,0.0,0.0,1651071935796655.0,1
709,-1.0,0.0,2.0,-1.0,-2.0,0.0,-2.0,0.0,1651071935796655.0,1
710,-2.0,-1.0,-7.0,-1.0,-5.0,-2.0,-2.0,-1.0,1651071935819128.0,1
711,-1.0,0.0,-4.0,-3.0,-4.0,0.0,-1.0,0.0,1651071935819128.0,1
712,1.0,8.0,11.0,1.0,-2.0,-2.0,1.0,0.0,1651071935820128.0,1
713,-1.0,-8.0,2.0,0.0,-6.0,-3.0,-2.0,-1.0,1651071935820128.0,1
714,2.0,1.0,-3.0,0.0,3.0,2.0,1.0,-1.0,1651071935832162.0,1
715,-1.0,-5.0,-5.0,1.0,9.0,1.0,0.0,0.0,1651071935832162.0,1
716,-1.0,1.0,4.0,0.0,-2.0,-2.0,-1.0,0.0,1651071935841438.0,1
717,-1.0,-1.0,-10.0,1.0,1.0,3.0,1.0,0.0,1651071935841438.0,1
718,-2.0,-1.0,-2.0,-1.0,-5.0,-3.0,-1.0,0.0,1651071935856623.0,1
719,0.0,2.0,5.0,-1.0,-1.0,-3.0,0.0,0.0,1651071935856623.0,1
720,-2.0,-3.0,-2.0,0.0,1.0,-1.0,-1.0,-3.0,1651071935857620.0,1
721,1.0,2.0,1.0,-1.0,-2.0,-1.0,0.0,-1.0,1651071935857620.0,1
722,1.0,-3.0,-6.0,-5.0,-5.0,-2.0,1.0,0.0,1651071935878892.0,1
723,-1.0,2.0,12.0,2.0,-3.0,2.0,1.0,0.0,1651071935878892.0,1
724,0.0,-1.0,-7.0,0.0,13.0,4.0,1.0,0.0,1651071935879822.0,1
725,-1.0,-2.0,0.0,-1.0,1.0,-3.0,0.0,-1.0,1651071935879822.0,1
726,-1.0,-2.0,-4.0,0.0,0.0,0.0,-2.0,-2.0,1651071935892787.0,1
727,1.0,4.0,5.0,0.0,-5.0,-1.0,0.0,-2.0,1651071935892787.0,1
728,-1.0,0.0,2.0,-2.0,-8.0,-2.0,0.0,-1.0,1651071935900794.0,1
729,-2.0,-3.0,-7.0,1.0,0.0,-1.0,0.0,-1.0,1651071935900794.0,1
730,0.0,1.0,6.0,0.0,0.0,-2.0,0.0,-2.0,1651071935915911.0,1
731,-2.0,0.0,-14.0,0.0,5.0,3.0,0.0,-1.0,1651071935915911.0,1
732,-1.0,-10.0,-12.0,-2.0,-1.0,-2.0,-2.0,-1.0,1651071935917837.0,1
733,1.0,0.0,-3.0,-1.0,2.0,-1.0,0.0,-1.0,1651071935917837.0,1
734,-1.0,2.0,-2.0,-1.0,-1.0,0.0,-5.0,0.0,1651071935938980.0,1
735,-3.0,0.0,-1.0,-1.0,-1.0,0.0,0.0,0.0,1651071935938980.0,1
736,0.0,0.0,-3.0,-3.0,-2.0,-1.0,-1.0,0.0,1651071935939910.0,1
737,2.0,3.0,9.0,0.0,-1.0,1.0,0.0,1.0,1651071935939910.0,1
738,-1.0,0.0,-8.0,-2.0,-6.0,-2.0,2.0,0.0,1651071935951937.0,1
739,0.0,-2.0,9.0,0.0,7.0,3.0,-1.0,0.0,1651071935951937.0,1
740,1.0,-2.0,-7.0,-1.0,-2.0,-3.0,-3.0,-1.0,1651071935961614.0,1
741,-1.0,-1.0,-2.0,-2.0,-2.0,-1.0,-1.0,0.0,1651071935961614.0,1
742,-1.0,0.0,2.0,0.0,-1.0,-1.0,-1.0,-1.0,1651071935976676.0,1
743,0.0,1.0,-5.0,-3.0,-5.0,-1.0,0.0,0.0,1651071935976676.0,1
744,-1.0,-2.0,8.0,-1.0,-5.0,-3.0,-1.0,0.0,1651071935977663.0,1
745,0.0,5.0,4.0,3.0,7.0,1.0,0.0,1.0,1651071935977663.0,1
746,-2.0,-2.0,10.0,1.0,3.0,0.0,0.0,-1.0,1651071935998498.0,1
747,0.0,-2.0,-11.0,-2.0,-4.0,-3.0,-2.0,0.0,1651071935998498.0,1
748,0.0,1.0,4.0,0.0,-3.0,0.0,-1.0,-1.0,1651071936000427.0,1
749,0.0,-2.0,-4.0,-2.0,-4.0,0.0,-1.0,-2.0,1651071936000427.0,1
750,2.0,-1.0,1.0,1.0,6.0,3.0,0.0,0.0,1651071936012624.0,1
751,0.0,-3.0,1.0,0.0,2.0,-3.0,0.0,0.0,1651071936012624.0,1
752,-1.0,1.0,-2.0,0.0,-4.0,-2.0,-1.0,0.0,1651071936021623.0,1
753,1.0,1.0,-3.0,-1.0,3.0,-2.0,1.0,1.0,1651071936021623.0,1
754,-2.0,-11.0,-20.0,0.0,2.0,0.0,-1.0,1.0,1651071936036074.0,1
755,-1.0,0.0,8.0,-5.0,-6.0,-1.0,-3.0,0.0,1651071936036074.0,1
756,-2.0,0.0,1.0,0.0,-1.0,0.0,-2.0,-3.0,1651071936038029.0,1
757,1.0,-1.0,8.0,0.0,2.0,1.0,-1.0,-3.0,1651071936038029.0,1
758,2.0,3.0,6.0,1.0,-1.0,-1.0,0.0,-2.0,1651071936058249.0,1
759,0.0,0.0,-11.0,1.0,3.0,-2.0,0.0,-1.0,1651071936058249.0,1
760,-1.0,0.0,1.0,0.0,3.0,2.0,1.0,1.0,1651071936060171.0,1
761,-2.0,-1.0,7.0,-2.0,-2.0,0.0,0.0,-1.0,1651071936060171.0,1
762,-2.0,1.0,-5.0,-2.0,0.0,0.0,-2.0,0.0,1651071936072518.0,1
763,-1.0,0.0,4.0,2.0,-3.0,-1.0,0.0,0.0,1651071936072518.0,1
764,0.0,3.0,2.0,1.0,4.0,2.0,1.0,0.0,1651071936081437.0,1
765,-1.0,-4.0,-7.0,-1.0,-3.0,-1.0,-2.0,1.0,1651071936081437.0,1
766,-1.0,-2.0,-5.0,0.0,-6.0,1.0,0.0,1.0,1651071936095687.0,1
767,0.0,0.0,2.0,0.0,-1.0,-1.0,0.0,-1.0,1651071936095687.0,1
768,1.0,1.0,3.0,0.0,-2.0,-1.0,2.0,1.0,1651071936102676.0,1
769,-2.0,2.0,-5.0,2.0,-2.0,-1.0,0.0,2.0,1651071936102676.0,1
770,-1.0,-2.0,-3.0,1.0,3.0,4.0,0.0,1.0,1651071936118526.0,1
771,2.0,0.0,-3.0,-1.0,0.0,-1.0,-1.0,-2.0,1651071936118526.0,1
772,0.0,0.0,4.0,-3.0,-3.0,-1.0,-2.0,-2.0,1651071936120549.0,1
773,0.0,-1.0,3.0,0.0,2.0,0.0,2.0,0.0,1651071936120549.0,1
774,0.0,1.0,-1.0,-1.0,-5.0,-1.0,1.0,-1.0,1651071936132764.0,1
775,-1.0,3.0,14.0,1.0,2.0,2.0,2.0,0.0,1651071936132764.0,1
776,-2.0,-7.0,0.0,2.0,0.0,-3.0,-1.0,-1.0,1651071936141777.0,1
777,-2.0,-3.0,-18.0,-1.0,-3.0,-3.0,-1.0,-3.0,1651071936141777.0,1
778,0.0,2.0,1.0,-1.0,3.0,-2.0,0.0,-2.0,1651071936156659.0,1
779,1.0,-1.0,-4.0,-2.0,0.0,0.0,0.0,0.0,1651071936156659.0,1
780,0.0,3.0,1.0,0.0,-2.0,1.0,-2.0,0.0,1651071936157638.0,1
781,-1.0,1.0,6.0,-1.0,-4.0,0.0,0.0,1.0,1651071936157638.0,1
782,0.0,-1.0,4.0,-2.0,-1.0,-3.0,-2.0,-1.0,1651071936178807.0,1
783,-2.0,-5.0,4.0,0.0,-4.0,-1.0,-1.0,-1.0,1651071936178807.0,1
784,1.0,1.0,-7.0,-1.0,3.0,2.0,0.0,1.0,1651071936179765.0,1
785,1.0,-2.0,-5.0,1.0,4.0,0.0,0.0,0.0,1651071936179765.0,1
786,-1.0,4.0,3.0,0.0,3.0,0.0,0.0,1.0,1651071936192732.0,1
787,-2.0,3.0,-2.0,0.0,-2.0,-1.0,-1.0,1.0,1651071936192732.0,1
788,-1.0,-4.0,-15.0,-5.0,-5.0,-4.0,-1.0,-1.0,1651071936208827.0,1
789,-1.0,0.0,10.0,0.0,-1.0,0.0,-1.0,-1.0,1651071936208827.0,1
790,-2.0,-1.0,1.0,-1.0,-5.0,-2.0,0.0,-2.0,1651071936215875.0,1
791,0.0,-2.0,-7.0,-4.0,-2.0,1.0,-1.0,0.0,1651071936215875.0,1
792,-3.0,-2.0,-7.0,-1.0,-2.0,-2.0,1.0,-1.0,1651071936217829.0,1
793,-2.0,-1.0,-4.0,-3.0,-2.0,0.0,-2.0,-1.0,1651071936217829.0,1
794,1.0,-1.0,1.0,1.0,4.0,1.0,-3.0,-1.0,1651071936238739.0,1
795,-3.0,-2.0,-4.0,3.0,-1.0,-2.0,0.0,-1.0,1651071936238739.0,1
796,4.0,1.0,6.0,4.0,2.0,0.0,1.0,1.0,1651071936240666.0,1
797,-3.0,2.0,2.0,-8.0,-5.0,-2.0,0.0,-1.0,1651071936240666.0,1
798,-1.0,-2.0,-4.0,4.0,-1.0,-1.0,-1.0,-1.0,1651071936252636.0,1
799,-2.0,-13.0,-25.0,-1.0,0.0,0.0,1.0,-1.0,1651071936252636.0,1
800,-1.0,-2.0,-3.0,-3.0,-3.0,-3.0,-2.0,-1.0,1651071936261640.0,1
801,0.0,-3.0,-1.0,3.0,-1.0,-2.0,1.0,-1.0,1651071936261640.0,1
802,1.0,2.0,20.0,-1.0,-2.0,-2.0,0.0,0.0,1651071936275753.0,1
803,1.0,0.0,-29.0,-14.0,-4.0,-1.0,-2.0,-2.0,1651071936275753.0,1
804,-1.0,2.0,-4.0,7.0,3.0,0.0,-1.0,-2.0,1651071936277693.0,1
805,-4.0,-1.0,-2.0,-6.0,0.0,1.0,-1.0,-1.0,1651071936277693.0,1
806,5.0,1.0,5.0,14.0,2.0,-1.0,0.0,0.0,1651071936298850.0,1
807,6.0,-1.0,8.0,0.0,-2.0,-1.0,-1.0,5.0,1651071936298850.0,1
808,5.0,4.0,2.0,-2.0,-3.0,1.0,1.0,-3.0,1651071936299804.0,1
809,5.0,5.0,2.0,2.0,-1.0,0.0,-2.0,2.0,1651071936299804.0,1
810,-10.0,-4.0,-7.0,-9.0,-2.0,-2.0,-1.0,-4.0,1651071936321581.0,1
811,-12.0,7.0,9.0,-4.0,0.0,-2.0,-1.0,-7.0,1651071936321581.0,1
812,-15.0,-10.0,-4.0,-2.0,-3.0,0.0,-1.0,1.0,1651071936322580.0,1
813,50.0,-3.0,8.0,6.0,2.0,-1.0,-3.0,-1.0,1651071936322580.0,1
814,12.0,10.0,14.0,14.0,1.0,3.0,3.0,9.0,1651071936335663.0,1
815,19.0,-1.0,-8.0,-9.0,0.0,-3.0,-3.0,-3.0,1651071936335663.0,1
816,-5.0,-4.0,13.0,-3.0,-4.0,-2.0,-3.0,4.0,1651071936337671.0,1
817,-54.0,-4.0,-1.0,13.0,-2.0,-2.0,0.0,-14.0,1651071936337671.0,1
818,-10.0,-17.0,-16.0,-34.0,1.0,0.0,-1.0,0.0,1651071936358664.0,1
819,21.0,7.0,21.0,40.0,4.0,2.0,3.0,4.0,1651071936358664.0,1
820,24.0,2.0,1.0,-23.0,0.0,0.0,-1.0,-1.0,1651071936360686.0,1
821,2.0,5.0,-17.0,1.0,-9.0,-1.0,2.0,9.0,1651071936360686.0,1
822,32.0,-14.0,11.0,23.0,-1.0,-5.0,-5.0,2.0,1651071936372763.0,1
823,-28.0,-5.0,-29.0,-51.0,-6.0,1.0,0.0,-4.0,1651071936372763.0,1
824,-2.0,14.0,25.0,-9.0,3.0,5.0,2.0,-6.0,1651071936380901.0,1
825,10.0,1.0,-28.0,9.0,4.0,1.0,1.0,7.0,1651071936380901.0,1
826,-32.0,26.0,18.0,34.0,2.0,-1.0,-1.0,-9.0,1651071936396858.0,1
827,-7.0,-21.0,-31.0,-27.0,-2.0,-6.0,-6.0,-2.0,1651071936396858.0,1
828,29.0,3.0,-9.0,-24.0,-6.0,1.0,5.0,5.0,1651071936398785.0,1
829,-11.0,3.0,0.0,27.0,21.0,6.0,2.0,5.0,1651071936398785.0,1
830,24.0,15.0,-8.0,-20.0,-11.0,1.0,5.0,11.0,1651071936418669.0,1
831,-3.0,7.0,41.0,52.0,12.0,1.0,-3.0,-14.0,1651071936418669.0,1
832,-17.0,-1.0,0.0,-21.0,-5.0,-3.0,0.0,3.0,1651071936420663.0,1
833,-24.0,-10.0,-2.0,-9.0,2.0,-3.0,-4.0,-6.0,1651071936420663.0,1
834,-6.0,3.0,-44.0,-25.0,-11.0,-2.0,1.0,2.0,1651071936432675.0,1
835,12.0,6.0,13.0,-51.0,-5.0,1.0,2.0,1.0,1651071936432675.0,1
836,12.0,-6.0,15.0,80.0,11.0,-1.0,-4.0,1.0,1651071936441654.0,1
837,71.0,-22.0,-21.0,-34.0,-17.0,-3.0,0.0,-6.0,1651071936441654.0,1
838,-77.0,-4.0,51.0,-5.0,1.0,-5.0,-4.0,-13.0,1651071936456630.0,1
839,-30.0,13.0,-12.0,48.0,9.0,1.0,0.0,3.0,1651071936456630.0,1
840,26.0,23.0,8.0,-13.0,0.0,4.0,4.0,7.0,1651071936457610.0,1
841,-50.0,2.0,85.0,5.0,-2.0,-2.0,-2.0,-1.0,1651071936457610.0,1
842,30.0,-19.0,-100.0,1.0,2.0,4.0,2.0,9.0,1651071936478603.0,1
843,-1.0,-4.0,-22.0,-67.0,-11.0,4.0,5.0,-3.0,1651071936478603.0,1
844,-37.0,-44.0,-25.0,-7.0,-6.0,-8.0,-3.0,-4.0,1651071936484593.0,1
845,18.0,6.0,-1.0,18.0,5.0,-1.0,0.0,5.0,1651071936484593.0,1
846,-1.0,2.0,18.0,22.0,3.0,-1.0,-1.0,-4.0,1651071936492632.0,1
847,-54.0,2.0,-20.0,11.0,-3.0,-7.0,0.0,7.0,1651071936492632.0,1
848,-15.0,14.0,-35.0,-40.0,0.0,2.0,-2.0,-11.0,1651071936501541.0,1
849,9.0,0.0,9.0,-10.0,-2.0,1.0,2.0,8.0,1651071936501541.0,1
850,2.0,2.0,16.0,20.0,8.0,2.0,1.0,0.0,1651071936515571.0,1
851,-16.0,13.0,-6.0,-20.0,-3.0,0.0,-3.0,-3.0,1651071936515571.0,1
852,29.0,3.0,7.0,-5.0,-8.0,-3.0,-2.0,2.0,1651071936522553.0,1
853,-12.0,22.0,-20.0,35.0,-2.0,-2.0,-2.0,-5.0,1651071936522553.0,1
854,29.0,-8.0,43.0,-4.0,-1.0,0.0,-1.0,1.0,1651071936538442.0,1
855,5.0,-12.0,16.0,1.0,1.0,2.0,2.0,2.0,1651071936538442.0,1
856,-21.0,-6.0,-21.0,-12.0,1.0,-3.0,-5.0,-1.0,1651071936540464.0,1
857,71.0,2.0,20.0,43.0,4.0,1.0,0.0,-2.0,1651071936540464.0,1
858,-9.0,7.0,-21.0,-51.0,-9.0,0.0,0.0,-3.0,1651071936569511.0,1
859,38.0,-3.0,42.0,4.0,11.0,-1.0,-3.0,1.0,1651071936569511.0,1
860,-17.0,-7.0,-20.0,25.0,-8.0,-4.0,-1.0,2.0,1651071936571508.0,0
861,3.0,12.0,29.0,-6.0,9.0,1.0,-2.0,0.0,1651071936571508.0,2
862,-24.0,-26.0,-36.0,-8.0,-15.0,-7.0,-6.0,-9.0,1651071936575498.0,2
863,51.0,15.0,36.0,-9.0,-4.0,-3.0,-2.0,-11.0,1651071936575498.0,2
864,-33.0,-6.0,-57.0,24.0,3.0,2.0,0.0,-5.0,1651071936585476.0,2
865,-23.0,6.0,25.0,-34.0,0.0,2.0,2.0,1.0,1651071936585476.0,2
866,-33.0,-6.0,-57.0,24.0,3.0,2.0,0.0,-5.0,1651071936585476.0,2
867,-23.0,6.0,25.0,-34.0,0.0,2.0,2.0,1.0,1651071936585476.0,2
868,-32.0,26.0,18.0,34.0,2.0,-1.0,-1.0,-9.0,1651071936586468.0,2
869,-7.0,-21.0,-31.0,-27.0,-2.0,-6.0,-6.0,-2.0,1651071936586468.0,2
870,29.0,3.0,-9.0,-24.0,-6.0,1.0,5.0,5.0,1651071936590485.0,2
871,-11.0,3.0,0.0,27.0,21.0,6.0,2.0,5.0,1651071936590485.0,2
872,24.0,15.0,-8.0,-20.0,-11.0,1.0,5.0,11.0,1651071936599460.0,2
873,-3.0,7.0,41.0,52.0,12.0,1.0,-3.0,-14.0,1651071936599460.0,2
874,39.0,-6.0,-23.0,-21.0,1.0,-4.0,-4.0,-1.0,1651071936601456.0,2
875,13.0,-16.0,-15.0,24.0,-5.0,0.0,-3.0,-4.0,1651071936601456.0,2
876,-12.0,10.0,51.0,28.0,2.0,2.0,3.0,-1.0,1651071936604420.0,2
877,58.0,-10.0,-38.0,-10.0,-6.0,1.0,-1.0,-1.0,1651071936604420.0,2
878,-16.0,24.0,82.0,14.0,11.0,4.0,3.0,7.0,1651071936621442.0,2
879,-8.0,-20.0,-40.0,-9.0,-3.0,-5.0,-4.0,-5.0,1651071936621442.0,2
880,19.0,-7.0,-2.0,-7.0,9.0,2.0,0.0,1.0,1651071936622372.0,2
881,-29.0,-20.0,-9.0,-12.0,-10.0,-2.0,0.0,-2.0,1651071936622372.0,2
882,50.0,12.0,17.0,24.0,7.0,-1.0,0.0,-1.0,1651071936635405.0,2
883,-22.0,-3.0,-28.0,13.0,-4.0,-2.0,0.0,3.0,1651071936635405.0,2
884,-16.0,16.0,74.0,-4.0,-6.0,-1.0,-4.0,-4.0,1651071936649484.0,2
885,-27.0,-15.0,-89.0,-49.0,0.0,0.0,0.0,-2.0,1651071936649484.0,2
886,-1.0,-2.0,-16.0,15.0,2.0,1.0,-1.0,-2.0,1651071936658457.0,2
887,5.0,12.0,3.0,-8.0,1.0,1.0,3.0,7.0,1651071936658457.0,2
888,33.0,15.0,27.0,21.0,5.0,-1.0,-4.0,-6.0,1651071936660411.0,2
889,-10.0,13.0,12.0,-18.0,-14.0,-5.0,0.0,2.0,1651071936660411.0,2
890,18.0,6.0,-24.0,-26.0,-10.0,-1.0,-1.0,-4.0,1651071936681633.0,2
891,13.0,-20.0,-20.0,50.0,1.0,0.0,0.0,7.0,1651071936681633.0,2
892,39.0,-1.0,-6.0,0.0,2.0,2.0,1.0,1.0,1651071936682633.0,2
893,36.0,10.0,30.0,11.0,11.0,0.0,-1.0,-5.0,1651071936682633.0,2
894,-49.0,0.0,-17.0,-13.0,-7.0,-2.0,3.0,7.0,1651071936696647.0,2
895,-28.0,6.0,65.0,28.0,-3.0,-1.0,-1.0,-4.0,1651071936696647.0,2
896,35.0,-1.0,-37.0,-6.0,8.0,4.0,6.0,18.0,1651071936697595.0,2
897,-44.0,2.0,-4.0,-1.0,-7.0,-4.0,-4.0,-11.0,1651071936697595.0,2
898,1.0,-8.0,-1.0,27.0,6.0,0.0,0.0,-3.0,1651071936718800.0,2
899,19.0,14.0,32.0,6.0,3.0,2.0,0.0,0.0,1651071936718800.0,2
900,-56.0,-31.0,-38.0,-14.0,-1.0,-3.0,-1.0,-7.0,1651071936719731.0,2
901,-10.0,-14.0,-13.0,17.0,-11.0,-5.0,1.0,0.0,1651071936719731.0,2
902,-28.0,-15.0,-19.0,-9.0,9.0,1.0,-4.0,-6.0,1651071936740860.0,2
903,-13.0,-4.0,26.0,-28.0,-22.0,-6.0,-3.0,-5.0,1651071936740860.0,2
904,-8.0,-6.0,-31.0,-41.0,-3.0,0.0,-3.0,-2.0,1651071936742789.0,2
905,-5.0,-3.0,10.0,36.0,8.0,-1.0,-5.0,-1.0,1651071936742789.0,2
906,14.0,-2.0,10.0,11.0,-1.0,-2.0,1.0,5.0,1651071936763890.0,2
907,-6.0,5.0,11.0,14.0,16.0,5.0,1.0,2.0,1651071936763890.0,2
908,12.0,2.0,-3.0,7.0,-6.0,2.0,2.0,4.0,1651071936764890.0,2
909,-9.0,1.0,-17.0,-22.0,6.0,4.0,1.0,6.0,1651071936764890.0,2
910,1.0,5.0,40.0,15.0,-2.0,-5.0,-5.0,-4.0,1651071936778879.0,2
911,8.0,-32.0,-19.0,-45.0,-6.0,1.0,3.0,4.0,1651071936778879.0,2
912,1.0,15.0,0.0,59.0,11.0,2.0,-1.0,-2.0,1651071936779863.0,2
913,-2.0,27.0,91.0,-4.0,-9.0,1.0,3.0,7.0,1651071936779863.0,2
914,-6.0,-14.0,-76.0,-28.0,-13.0,-4.0,-3.0,-2.0,1651071936800937.0,2
915,0.0,7.0,47.0,26.0,18.0,6.0,3.0,2.0,1651071936800937.0,2
916,21.0,-23.0,-29.0,-7.0,-15.0,-6.0,1.0,1.0,1651071936802934.0,2
917,-41.0,1.0,-36.0,-44.0,1.0,2.0,-2.0,-5.0,1651071936802934.0,2
918,-14.0,6.0,14.0,-23.0,-2.0,-4.0,-3.0,-8.0,1651071936815700.0,2
919,6.0,-20.0,-28.0,-7.0,-9.0,-4.0,-2.0,0.0,1651071936815700.0,2
920,29.0,16.0,29.0,9.0,0.0,1.0,0.0,0.0,1651071936822674.0,2
921,-20.0,-7.0,6.0,-3.0,3.0,3.0,1.0,0.0,1651071936822674.0,2
922,12.0,25.0,16.0,13.0,-4.0,2.0,1.0,0.0,1651071936838558.0,2
923,-36.0,1.0,-30.0,12.0,8.0,-3.0,-6.0,-5.0,1651071936838558.0,2
924,12.0,-28.0,29.0,32.0,3.0,-1.0,-3.0,1.0,1651071936840487.0,2
925,-19.0,-8.0,-46.0,-17.0,-9.0,-2.0,-1.0,-5.0,1651071936840487.0,2
926,19.0,-30.0,-52.0,-3.0,6.0,4.0,1.0,4.0,1651071936861497.0,2
927,38.0,18.0,-19.0,17.0,6.0,2.0,2.0,3.0,1651071936861497.0,2
928,-32.0,22.0,36.0,-3.0,-6.0,-2.0,-3.0,-12.0,1651071936862428.0,2
929,5.0,-7.0,-47.0,-48.0,-3.0,-8.0,-4.0,-1.0,1651071936862428.0,2
930,-34.0,-15.0,4.0,18.0,-10.0,-6.0,-5.0,-2.0,1651071936875729.0,2
931,6.0,-3.0,24.0,8.0,-1.0,1.0,0.0,2.0,1651071936875729.0,2
932,2.0,5.0,-37.0,-40.0,-1.0,-1.0,0.0,-6.0,1651071936882701.0,2
933,-28.0,14.0,84.0,33.0,8.0,7.0,5.0,9.0,1651071936882701.0,2
934,30.0,9.0,-14.0,-17.0,5.0,3.0,2.0,0.0,1651071936898918.0,2
935,-19.0,-6.0,-12.0,10.0,-14.0,-5.0,-2.0,-2.0,1651071936898918.0,2
936,-38.0,2.0,-25.0,-40.0,-3.0,-3.0,-3.0,-6.0,1651071936899852.0,2
937,51.0,4.0,25.0,41.0,2.0,0.0,1.0,2.0,1651071936899852.0,2
938,30.0,15.0,35.0,1.0,17.0,7.0,5.0,9.0,1651071936920859.0,2
939,18.0,8.0,-5.0,29.0,-4.0,-3.0,-4.0,-1.0,1651071936920859.0,2
940,-36.0,-35.0,-2.0,-31.0,-9.0,-1.0,0.0,0.0,1651071936922786.0,2
941,38.0,-17.0,-36.0,-27.0,-4.0,-3.0,-4.0,0.0,1651071936922786.0,2
942,3.0,-4.0,1.0,6.0,-3.0,-3.0,-2.0,-2.0,1651071936935691.0,2
943,-43.0,-1.0,-12.0,15.0,5.0,0.0,2.0,-5.0,1651071936935691.0,2
944,6.0,2.0,24.0,21.0,10.0,1.0,0.0,2.0,1651071936942619.0,2
945,-16.0,-12.0,-13.0,11.0,0.0,-1.0,-2.0,-6.0,1651071936942619.0,2
946,62.0,24.0,59.0,2.0,5.0,2.0,4.0,1.0,1651071936958737.0,2
947,-20.0,-21.0,-23.0,-42.0,-12.0,-2.0,-1.0,-5.0,1651071936958737.0,2
948,2.0,10.0,-31.0,34.0,9.0,-1.0,-1.0,-3.0,1651071936960715.0,2
949,-6.0,-6.0,1.0,-6.0,-12.0,-5.0,-2.0,-1.0,1651071936960715.0,2
950,2.0,14.0,37.0,27.0,18.0,4.0,0.0,2.0,1651071936980918.0,2
951,4.0,-3.0,-13.0,-5.0,1.0,3.0,2.0,4.0,1651071936980918.0,2
952,-24.0,6.0,21.0,-24.0,-17.0,-6.0,-1.0,3.0,1651071936982842.0,2
953,40.0,9.0,70.0,15.0,12.0,5.0,2.0,3.0,1651071936982842.0,2
954,-18.0,-19.0,-56.0,1.0,-13.0,-5.0,-2.0,-2.0,1651071936995874.0,2
955,-39.0,2.0,8.0,8.0,1.0,-1.0,0.0,0.0,1651071936995874.0,2
956,-27.0,-33.0,7.0,-39.0,0.0,-1.0,-3.0,-3.0,1651071937002724.0,2
957,3.0,6.0,-13.0,36.0,-5.0,-2.0,-1.0,-3.0,1651071937002724.0,2
958,-12.0,-3.0,19.0,13.0,5.0,1.0,-1.0,0.0,1651071937018715.0,2
959,-14.0,16.0,10.0,-23.0,1.0,-1.0,-2.0,-4.0,1651071937018715.0,2
960,8.0,-8.0,-25.0,29.0,-10.0,-8.0,-2.0,0.0,1651071937020702.0,2
961,-17.0,-8.0,-10.0,-24.0,-1.0,-2.0,0.0,-3.0,1651071937020702.0,2
962,-44.0,-7.0,-11.0,2.0,-2.0,1.0,-1.0,-5.0,1651071937041650.0,2
963,65.0,18.0,-2.0,-21.0,12.0,2.0,-1.0,2.0,1651071937041650.0,2
964,-17.0,19.0,34.0,52.0,2.0,-2.0,-2.0,-3.0,1651071937042628.0,2
965,-27.0,5.0,-19.0,-20.0,2.0,-3.0,-3.0,-7.0,1651071937042628.0,2
966,1.0,-17.0,-23.0,-11.0,-10.0,-5.0,0.0,1.0,1651071937055740.0,2
967,-2.0,14.0,58.0,8.0,5.0,4.0,0.0,1.0,1651071937055740.0,2
968,31.0,19.0,-37.0,-33.0,-5.0,1.0,5.0,10.0,1651071937062704.0,2
969,14.0,7.0,-20.0,20.0,6.0,3.0,0.0,0.0,1651071937062704.0,2
970,4.0,4.0,-16.0,-40.0,-18.0,-4.0,1.0,3.0,1651071937078635.0,2
971,-27.0,24.0,73.0,21.0,6.0,-2.0,-1.0,-5.0,1651071937078635.0,2
972,19.0,13.0,11.0,3.0,4.0,1.0,-1.0,-1.0,1651071937080589.0,2
973,-20.0,-20.0,-41.0,0.0,0.0,0.0,0.0,0.0,1651071937080589.0,2
974,-16.0,18.0,13.0,-15.0,-1.0,2.0,2.0,-2.0,1651071937101627.0,2
975,15.0,1.0,16.0,35.0,-7.0,-3.0,-1.0,1.0,1651071937101627.0,2
976,-30.0,-15.0,-70.0,-18.0,-6.0,-1.0,-3.0,-4.0,1651071937102627.0,2
977,27.0,-1.0,-7.0,-15.0,-11.0,-6.0,-3.0,1.0,1651071937102627.0,2
978,-6.0,-10.0,19.0,21.0,22.0,5.0,0.0,-2.0,1651071937114662.0,2
979,12.0,-1.0,-3.0,-35.0,-14.0,-4.0,0.0,6.0,1651071937114662.0,2
980,9.0,-8.0,19.0,9.0,-19.0,-8.0,-4.0,-3.0,1651071937123618.0,2
981,-9.0,-17.0,-2.0,9.0,4.0,2.0,-2.0,-5.0,1651071937123618.0,2
982,-25.0,-11.0,-14.0,-38.0,-12.0,-4.0,-1.0,-5.0,1651071937138845.0,2
983,-23.0,-46.0,-64.0,28.0,15.0,3.0,0.0,-2.0,1651071937138845.0,2
984,62.0,19.0,18.0,-26.0,8.0,2.0,2.0,0.0,1651071937139802.0,2
985,-42.0,7.0,39.0,8.0,-14.0,-5.0,-3.0,-4.0,1651071937139802.0,2
986,7.0,-12.0,-9.0,15.0,-5.0,1.0,-3.0,0.0,1651071937161715.0,2
987,24.0,8.0,-10.0,-24.0,-6.0,0.0,0.0,3.0,1651071937161715.0,2
988,1.0,-8.0,9.0,20.0,9.0,2.0,-1.0,-1.0,1651071937162750.0,2
989,-5.0,4.0,5.0,-23.0,-2.0,-3.0,0.0,1.0,1651071937162750.0,2
990,31.0,3.0,-19.0,-19.0,4.0,-2.0,-2.0,-1.0,1651071937174662.0,2
991,-13.0,4.0,16.0,38.0,-5.0,-3.0,0.0,0.0,1651071937174662.0,2
992,-39.0,-21.0,-13.0,-65.0,-6.0,-2.0,1.0,-1.0,1651071937183488.0,2
993,15.0,8.0,17.0,14.0,5.0,2.0,-1.0,0.0,1651071937183488.0,2
994,9.0,4.0,6.0,16.0,13.0,3.0,1.0,-3.0,1651071937199108.0,2
995,12.0,26.0,-4.0,-30.0,-28.0,-4.0,-1.0,-1.0,1651071937199108.0,2
996,14.0,16.0,41.0,66.0,39.0,8.0,0.0,-2.0,1651071937200108.0,2
997,13.0,-20.0,-17.0,-11.0,-13.0,0.0,1.0,2.0,1651071937200108.0,2
998,-17.0,10.0,2.0,-1.0,-13.0,-6.0,-3.0,2.0,1651071937221245.0,2
999,-10.0,-16.0,-40.0,-11.0,10.0,0.0,-1.0,-11.0,1651071937221245.0,2
1000,-27.0,-7.0,8.0,-1.0,1.0,1.0,-3.0,-1.0,1651071937223173.0,2
1001,-8.0,38.0,8.0,19.0,-1.0,-2.0,1.0,-4.0,1651071937223173.0,2
1002,36.0,-43.0,-31.0,-6.0,-1.0,1.0,-2.0,-3.0,1651071937235282.0,2
1003,-5.0,-3.0,-4.0,-3.0,-9.0,-7.0,-4.0,0.0,1651071937235282.0,2
1004,-11.0,6.0,-40.0,5.0,6.0,-3.0,-1.0,-2.0,1651071937244117.0,2
1005,-9.0,-3.0,32.0,4.0,0.0,1.0,1.0,2.0,1651071937244117.0,2
1006,-15.0,2.0,20.0,-21.0,-5.0,-1.0,2.0,0.0,1651071937259133.0,2
1007,10.0,1.0,-44.0,35.0,16.0,4.0,0.0,1.0,1651071937259133.0,2
1008,0.0,-10.0,15.0,-8.0,-11.0,0.0,-1.0,-2.0,1651071937260108.0,2
1009,29.0,-21.0,-33.0,-28.0,3.0,1.0,1.0,7.0,1651071937260108.0,2
1010,-32.0,11.0,33.0,33.0,-5.0,-1.0,3.0,4.0,1651071937280986.0,2
1011,16.0,-8.0,-31.0,-34.0,-7.0,-3.0,0.0,4.0,1651071937280986.0,2
1012,1.0,10.0,2.0,-2.0,0.0,0.0,1.0,1.0,1651071937282915.0,2
1013,35.0,22.0,-12.0,3.0,5.0,1.0,1.0,2.0,1651071937282915.0,2
1014,-13.0,-8.0,-4.0,15.0,-3.0,1.0,-2.0,-2.0,1651071937294900.0,2
1015,1.0,-5.0,7.0,-23.0,-3.0,-1.0,-2.0,-2.0,1651071937294900.0,2
1016,-24.0,-2.0,12.0,18.0,-2.0,0.0,-1.0,1.0,1651071937303406.0,2
1017,-9.0,7.0,2.0,-9.0,-12.0,-4.0,-2.0,-1.0,1651071937303406.0,2
1018,31.0,15.0,-5.0,-10.0,3.0,1.0,-1.0,-1.0,1651071937319544.0,2
1019,-54.0,21.0,23.0,39.0,9.0,4.0,0.0,-2.0,1651071937319544.0,2
1020,44.0,-11.0,24.0,-29.0,-16.0,-7.0,-1.0,1.0,1651071937320514.0,2
1021,-36.0,-11.0,27.0,0.0,6.0,1.0,-2.0,-5.0,1651071937320514.0,2
1022,-11.0,-5.0,-16.0,12.0,5.0,-1.0,-4.0,-3.0,1651071937341596.0,2
1023,19.0,-28.0,-42.0,-58.0,-17.0,-6.0,-2.0,2.0,1651071937341596.0,2
1024,4.0,26.0,76.0,41.0,20.0,11.0,3.0,5.0,1651071937342567.0,2
1025,-3.0,-2.0,-67.0,-1.0,-5.0,-4.0,-3.0,-2.0,1651071937342567.0,2
1026,8.0,11.0,56.0,14.0,-17.0,-9.0,-3.0,-1.0,1651071937354463.0,2
1027,16.0,-3.0,27.0,7.0,12.0,3.0,-1.0,0.0,1651071937354463.0,2
1028,18.0,-2.0,-17.0,-16.0,-1.0,-1.0,-1.0,-3.0,1651071937363558.0,2
1029,-20.0,-23.0,0.0,-23.0,-10.0,0.0,2.0,2.0,1651071937363558.0,2
1030,-4.0,10.0,21.0,40.0,17.0,4.0,1.0,-2.0,1651071937378741.0,2
1031,-2.0,-12.0,-35.0,-57.0,-30.0,-11.0,-3.0,-4.0,1651071937378741.0,2
1032,-7.0,-4.0,2.0,19.0,-2.0,-3.0,-2.0,1.0,1651071937380667.0,2
1033,-19.0,-1.0,-28.0,3.0,7.0,2.0,0.0,-3.0,1651071937380667.0,2
1034,0.0,3.0,-14.0,-21.0,4.0,1.0,2.0,0.0,1651071937401677.0,2
1035,-1.0,8.0,32.0,31.0,5.0,2.0,1.0,-1.0,1651071937401677.0,2
1036,-13.0,4.0,-12.0,7.0,-4.0,-2.0,-1.0,-3.0,1651071937403610.0,2
1037,74.0,11.0,-1.0,-13.0,-6.0,-4.0,-1.0,8.0,1651071937403610.0,2
1038,-29.0,-6.0,-16.0,-6.0,-3.0,-2.0,1.0,-5.0,1651071937414602.0,2
1039,8.0,9.0,12.0,-1.0,1.0,-3.0,-3.0,0.0,1651071937414602.0,2
1040,-27.0,-7.0,-8.0,-3.0,-3.0,-1.0,-3.0,-3.0,1651071937423463.0,2
1041,-3.0,-1.0,5.0,17.0,10.0,0.0,-1.0,-2.0,1651071937423463.0,2
1042,4.0,0.0,-7.0,-21.0,-6.0,-1.0,1.0,1.0,1651071937438493.0,2
1043,-3.0,-14.0,-8.0,3.0,10.0,4.0,0.0,0.0,1651071937438493.0,2
1044,2.0,14.0,45.0,-1.0,-14.0,-5.0,-1.0,0.0,1651071937440446.0,2
1045,-19.0,-42.0,-46.0,7.0,17.0,4.0,-1.0,-3.0,1651071937440446.0,2
1046,0.0,13.0,0.0,-9.0,-9.0,-4.0,-1.0,0.0,1651071937461535.0,2
1047,16.0,5.0,-10.0,3.0,-12.0,-6.0,-1.0,-5.0,1651071937461535.0,2
1048,-24.0,-12.0,26.0,10.0,10.0,4.0,5.0,5.0,1651071937462531.0,2
1049,-5.0,-23.0,-47.0,-2.0,3.0,0.0,0.0,-1.0,1651071937462531.0,2
1050,9.0,3.0,19.0,54.0,-3.0,-3.0,-3.0,0.0,1651071937474631.0,2
1051,47.0,6.0,-32.0,-50.0,-7.0,-3.0,-2.0,4.0,1651071937474631.0,2
1052,21.0,-5.0,-49.0,-15.0,-10.0,-4.0,-2.0,-4.0,1651071937483488.0,2
1053,-14.0,6.0,17.0,-2.0,4.0,-1.0,-2.0,-3.0,1651071937483488.0,2
1054,-3.0,-14.0,-10.0,6.0,8.0,6.0,1.0,4.0,1651071937499078.0,2
1055,-3.0,1.0,16.0,19.0,3.0,1.0,1.0,1.0,1651071937499078.0,2
1056,-12.0,0.0,1.0,-12.0,-7.0,0.0,0.0,-3.0,1651071937500015.0,2
1057,10.0,18.0,30.0,1.0,-3.0,-3.0,-2.0,0.0,1651071937500015.0,2
1058,-9.0,-36.0,-42.0,6.0,6.0,3.0,1.0,0.0,1651071937520727.0,2
1059,-17.0,2.0,19.0,-3.0,-4.0,-3.0,-1.0,-4.0,1651071937520727.0,2
1060,5.0,1.0,4.0,0.0,4.0,2.0,0.0,1.0,1651071937522717.0,2
1061,-3.0,4.0,34.0,10.0,-5.0,0.0,-1.0,-1.0,1651071937522717.0,2
1062,4.0,10.0,35.0,-33.0,2.0,0.0,1.0,1.0,1651071937534882.0,2
1063,-13.0,-24.0,-43.0,30.0,16.0,7.0,0.0,1.0,1651071937534882.0,2
1064,0.0,-4.0,-32.0,-6.0,-10.0,-3.0,-1.0,-1.0,1651071937543795.0,2
1065,3.0,11.0,14.0,-11.0,-6.0,-4.0,-3.0,-2.0,1651071937543795.0,2
1066,13.0,-8.0,-18.0,-13.0,-2.0,-3.0,-2.0,0.0,1651071937558969.0,2
1067,-12.0,5.0,2.0,-16.0,-6.0,0.0,1.0,1.0,1651071937558969.0,2
1068,-6.0,2.0,-15.0,1.0,6.0,2.0,-1.0,-2.0,1651071937559912.0,2
1069,-3.0,5.0,12.0,18.0,1.0,2.0,2.0,1.0,1651071937559912.0,2
1070,9.0,7.0,17.0,5.0,8.0,0.0,0.0,1.0,1651071937581472.0,2
1071,-20.0,5.0,50.0,12.0,8.0,3.0,2.0,1.0,1651071937581472.0,2
1072,24.0,-17.0,-49.0,-10.0,-10.0,-4.0,-1.0,2.0,1651071937582402.0,2
1073,0.0,9.0,15.0,18.0,5.0,1.0,1.0,3.0,1651071937582402.0,2
1074,-17.0,-6.0,-19.0,-35.0,-3.0,1.0,0.0,-2.0,1651071937603804.0,2
1075,7.0,7.0,29.0,16.0,-2.0,-2.0,-1.0,-1.0,1651071937603804.0,2
1076,7.0,10.0,19.0,-10.0,3.0,-1.0,-2.0,-1.0,1651071937605550.0,2
1077,2.0,-19.0,-30.0,2.0,-9.0,-1.0,-2.0,-2.0,1651071937605550.0,2
1078,-2.0,7.0,-4.0,4.0,-1.0,0.0,-1.0,0.0,1651071937618556.0,2
1079,10.0,3.0,-20.0,-19.0,8.0,0.0,0.0,-1.0,1651071937618556.0,2
1080,-1.0,1.0,1.0,-2.0,5.0,-2.0,-3.0,1.0,1651071937620511.0,2
1081,-1.0,13.0,6.0,2.0,-6.0,2.0,2.0,1.0,1651071937620511.0,2
1082,18.0,12.0,43.0,28.0,-5.0,-2.0,1.0,-1.0,1651071937641585.0,2
1083,1.0,8.0,-13.0,-2.0,15.0,3.0,2.0,-3.0,1651071937641585.0,2
1084,-6.0,-9.0,-9.0,10.0,-16.0,-7.0,-3.0,-3.0,1651071937642589.0,2
1085,8.0,11.0,34.0,-9.0,12.0,4.0,2.0,4.0,1651071937642589.0,2
1086,-4.0,4.0,-63.0,-6.0,-5.0,-1.0,0.0,0.0,1651071937663740.0,2
1087,17.0,-1.0,12.0,-4.0,-5.0,-2.0,0.0,-1.0,1651071937663740.0,2
1088,-6.0,8.0,15.0,19.0,18.0,7.0,4.0,0.0,1651071937665687.0,2
1089,4.0,6.0,1.0,-8.0,-9.0,-1.0,-1.0,1.0,1651071937665687.0,2
1090,6.0,-6.0,18.0,-8.0,0.0,0.0,-1.0,0.0,1651071937679109.0,2
1091,11.0,1.0,-16.0,22.0,8.0,1.0,0.0,-1.0,1651071937679109.0,2
1092,-7.0,-4.0,-9.0,-4.0,-12.0,-5.0,-3.0,-2.0,1651071937680121.0,2
1093,5.0,4.0,-2.0,4.0,2.0,-4.0,-2.0,-1.0,1651071937680121.0,2
1094,-15.0,-1.0,3.0,-6.0,4.0,1.0,-1.0,-2.0,1651071937701523.0,2
1095,6.0,0.0,24.0,0.0,-6.0,0.0,-1.0,0.0,1651071937701523.0,2
1096,9.0,-2.0,-9.0,-4.0,4.0,2.0,0.0,0.0,1651071937702650.0,2
1097,-2.0,-7.0,-6.0,7.0,2.0,0.0,2.0,-2.0,1651071937702650.0,2
1098,2.0,3.0,5.0,0.0,1.0,0.0,-2.0,0.0,1651071937723888.0,2
1099,-10.0,-13.0,-9.0,1.0,-6.0,-2.0,-4.0,-2.0,1651071937723888.0,2
1100,1.0,6.0,3.0,18.0,6.0,3.0,1.0,4.0,1651071937724897.0,2
1101,-7.0,-12.0,-10.0,-36.0,-2.0,2.0,1.0,1.0,1651071937724897.0,2
1102,-7.0,0.0,-8.0,1.0,-5.0,-3.0,-1.0,-3.0,1651071937737853.0,2
1103,-10.0,1.0,10.0,3.0,-7.0,-3.0,-1.0,-1.0,1651071937737853.0,2
1104,0.0,-3.0,10.0,2.0,5.0,-1.0,0.0,-1.0,1651071937744905.0,2
1105,-4.0,4.0,-3.0,16.0,1.0,1.0,-2.0,-3.0,1651071937744905.0,2
1106,-5.0,-2.0,3.0,-12.0,0.0,-1.0,-1.0,-3.0,1651071937760911.0,2
1107,-2.0,-2.0,-8.0,-3.0,1.0,0.0,0.0,1.0,1651071937760911.0,2
1108,4.0,3.0,7.0,3.0,-3.0,-1.0,0.0,0.0,1651071937762927.0,2
1109,-4.0,-4.0,1.0,-7.0,-2.0,-3.0,-1.0,-1.0,1651071937762927.0,2
1110,-5.0,-10.0,-1.0,-5.0,-1.0,-2.0,1.0,1.0,1651071937783172.0,2
1111,-4.0,1.0,2.0,7.0,1.0,0.0,0.0,-1.0,1651071937783172.0,2
1112,-4.0,-6.0,-12.0,-12.0,1.0,1.0,-1.0,-1.0,1651071937785165.0,2
1113,5.0,-6.0,11.0,25.0,1.0,-3.0,-3.0,-2.0,1651071937785165.0,2
1114,-8.0,-1.0,-17.0,-24.0,-8.0,-5.0,-5.0,-3.0,1651071937798197.0,2
1115,3.0,-2.0,-6.0,-3.0,-1.0,0.0,-1.0,1.0,1651071937798197.0,2
1116,0.0,0.0,-2.0,-24.0,1.0,0.0,2.0,-1.0,1651071937804571.0,2
1117,-3.0,-4.0,0.0,18.0,-4.0,-1.0,-1.0,-1.0,1651071937804571.0,2
1118,1.0,2.0,4.0,6.0,2.0,0.0,-1.0,-2.0,1651071937820645.0,2
1119,0.0,-2.0,-1.0,-1.0,1.0,-2.0,0.0,0.0,1651071937820645.0,2
1120,1.0,-2.0,-2.0,-9.0,-8.0,0.0,-3.0,-2.0,1651071937822624.0,2
1121,-6.0,2.0,2.0,2.0,-1.0,-2.0,0.0,-2.0,1651071937822624.0,2
1122,-3.0,-2.0,-3.0,1.0,-3.0,2.0,2.0,0.0,1651071937843681.0,2
1123,-3.0,1.0,0.0,-8.0,-2.0,1.0,0.0,-1.0,1651071937843681.0,2
1124,-2.0,3.0,16.0,11.0,-9.0,-5.0,-2.0,1.0,1651071937845609.0,2
1125,-2.0,-6.0,-22.0,11.0,18.0,9.0,2.0,0.0,1651071937845609.0,2
1126,0.0,0.0,8.0,22.0,8.0,1.0,-1.0,1.0,1651071937857643.0,2
1127,-1.0,0.0,-9.0,-14.0,-15.0,-5.0,-1.0,0.0,1651071937857643.0,2
1128,1.0,-3.0,0.0,-2.0,0.0,-3.0,1.0,-2.0,1651071937872732.0,2
1129,-3.0,-1.0,5.0,-16.0,4.0,6.0,2.0,1.0,1651071937872732.0,2
1130,-1.0,3.0,3.0,1.0,0.0,-2.0,0.0,1.0,1651071937880747.0,2
1131,0.0,-3.0,-5.0,4.0,-8.0,-4.0,-1.0,1.0,1651071937880747.0,2
1132,1.0,0.0,-5.0,-7.0,8.0,7.0,1.0,0.0,1651071937882687.0,2
1133,-2.0,2.0,0.0,-3.0,-10.0,-9.0,-2.0,-1.0,1651071937882687.0,2
1134,-1.0,-1.0,2.0,-1.0,-2.0,2.0,0.0,0.0,1651071937904783.0,2
1135,-1.0,-1.0,1.0,3.0,-10.0,-2.0,-1.0,-2.0,1651071937904783.0,2
1136,-3.0,-1.0,0.0,-4.0,-5.0,-1.0,0.0,-1.0,1651071937906792.0,2
1137,1.0,-1.0,4.0,2.0,-8.0,-2.0,-2.0,-1.0,1651071937906792.0,2
1138,0.0,0.0,-4.0,-4.0,17.0,3.0,3.0,0.0,1651071937917795.0,2
1139,-3.0,-5.0,-4.0,0.0,3.0,-6.0,0.0,-3.0,1651071937917795.0,2
1140,-3.0,-3.0,-1.0,0.0,0.0,-1.0,-2.0,-1.0,1651071937926728.0,2
1141,-1.0,3.0,-3.0,-3.0,-9.0,-2.0,-2.0,0.0,1651071937926728.0,2
1142,-3.0,-3.0,4.0,-1.0,-5.0,-1.0,-1.0,-1.0,1651071937941674.0,2
1143,-3.0,5.0,-1.0,1.0,-7.0,-5.0,-2.0,-2.0,1651071937941674.0,2
1144,2.0,2.0,-4.0,-3.0,9.0,1.0,0.0,1.0,1651071937942674.0,2
1145,0.0,-7.0,-4.0,-8.0,-1.0,-2.0,1.0,1.0,1651071937942674.0,2
1146,-3.0,-9.0,-23.0,-9.0,-9.0,-2.0,-1.0,-1.0,1651071937963820.0,2
1147,-1.0,-2.0,-2.0,5.0,8.0,3.0,1.0,-1.0,1651071937963820.0,2
1148,1.0,5.0,29.0,8.0,-7.0,-2.0,-3.0,-2.0,1651071937964766.0,2
1149,-4.0,-5.0,-62.0,-15.0,-4.0,-4.0,-4.0,-4.0,1651071937964766.0,2
1150,2.0,2.0,29.0,15.0,7.0,8.0,-2.0,-1.0,1651071937986625.0,2
1151,1.0,1.0,-4.0,-6.0,8.0,5.0,2.0,4.0,1651071937986625.0,2
1152,-2.0,-3.0,3.0,-6.0,-9.0,-6.0,-1.0,-1.0,1651071937987609.0,2
1153,-1.0,3.0,16.0,6.0,20.0,6.0,0.0,-1.0,1651071937987609.0,2
1154,0.0,6.0,1.0,-4.0,-14.0,-2.0,1.0,1.0,1651071938000756.0,2
1155,0.0,-1.0,1.0,-3.0,6.0,1.0,-2.0,0.0,1651071938000756.0,2
1156,2.0,2.0,-5.0,1.0,-9.0,-2.0,0.0,-1.0,1651071938002780.0,2
1157,-1.0,1.0,18.0,-1.0,1.0,-1.0,-1.0,0.0,1651071938002780.0,2
1158,2.0,1.0,-5.0,1.0,9.0,-2.0,-1.0,3.0,1651071938023680.0,2
1159,2.0,3.0,3.0,2.0,-3.0,-2.0,0.0,0.0,1651071938023680.0,2
1160,-3.0,-1.0,12.0,-3.0,-3.0,2.0,0.0,-1.0,1651071938025635.0,2
1161,-1.0,-1.0,-23.0,-4.0,-10.0,-4.0,-1.0,-3.0,1651071938025635.0,2
1162,-2.0,8.0,32.0,1.0,-2.0,-2.0,0.0,-1.0,1651071938046567.0,2
1163,-1.0,-15.0,-18.0,-4.0,-2.0,-1.0,-2.0,0.0,1651071938046567.0,2
1164,2.0,-3.0,-5.0,-1.0,10.0,1.0,1.0,2.0,1651071938047561.0,2
1165,-2.0,-1.0,2.0,6.0,-2.0,0.0,0.0,-1.0,1651071938047561.0,2
1166,-1.0,-1.0,-1.0,-1.0,-4.0,-4.0,-1.0,-2.0,1651071938060637.0,2
1167,-2.0,5.0,27.0,-3.0,2.0,-2.0,-1.0,-2.0,1651071938060637.0,2
1168,-2.0,-6.0,-22.0,-6.0,1.0,3.0,2.0,-1.0,1651071938062620.0,2
1169,-1.0,0.0,6.0,-7.0,-14.0,-2.0,-3.0,1.0,1651071938062620.0,2
1170,2.0,5.0,-17.0,3.0,8.0,-1.0,1.0,1.0,1651071938083713.0,2
1171,-2.0,-8.0,4.0,-4.0,-8.0,1.0,0.0,0.0,1651071938083713.0,2
1172,-2.0,-1.0,-5.0,3.0,1.0,-11.0,-1.0,-2.0,1651071938085678.0,2
1173,3.0,7.0,47.0,4.0,29.0,15.0,4.0,3.0,1651071938085678.0,2
1174,-4.0,-16.0,-73.0,-18.0,-18.0,-9.0,-4.0,-4.0,1651071938097729.0,2
1175,1.0,6.0,-12.0,6.0,0.0,4.0,1.0,-1.0,1651071938097729.0,2
1176,1.0,12.0,28.0,-4.0,-2.0,-1.0,1.0,1.0,1651071938106213.0,2
1177,-1.0,1.0,8.0,10.0,-5.0,-5.0,-1.0,-1.0,1651071938106213.0,2
1178,3.0,1.0,46.0,8.0,5.0,-3.0,1.0,3.0,1651071938121615.0,2
1179,-1.0,3.0,-21.0,-4.0,1.0,2.0,-2.0,0.0,1651071938121615.0,2
1180,2.0,-6.0,-16.0,-1.0,0.0,2.0,-1.0,-1.0,1651071938122614.0,2
1181,-3.0,3.0,33.0,-5.0,-9.0,-8.0,-1.0,-3.0,1651071938122614.0,2
1182,-2.0,-3.0,1.0,-1.0,-2.0,5.0,1.0,0.0,1651071938150732.0,2
1183,-4.0,-7.0,17.0,-5.0,-4.0,-1.0,0.0,-2.0,1651071938150732.0,2
1184,-1.0,5.0,17.0,3.0,-6.0,1.0,0.0,1.0,1651071938152657.0,2
1185,0.0,-8.0,-23.0,-2.0,3.0,-2.0,-3.0,0.0,1651071938152657.0,2
1186,2.0,9.0,13.0,2.0,3.0,2.0,-2.0,-1.0,1651071938157643.0,2
1187,-3.0,-12.0,-7.0,3.0,1.0,0.0,0.0,0.0,1651071938157643.0,2
1188,-1.0,0.0,-40.0,-7.0,3.0,-1.0,-1.0,-1.0,1651071938166624.0,2
1189,2.0,-2.0,17.0,5.0,0.0,1.0,1.0,0.0,1651071938166624.0,2
1190,-3.0,-9.0,-20.0,-4.0,-10.0,-6.0,-2.0,-1.0,1651071938181620.0,2
1191,4.0,14.0,22.0,0.0,9.0,6.0,3.0,2.0,1651071938181620.0,2
1192,-2.0,-6.0,-23.0,-5.0,-8.0,-4.0,1.0,-3.0,1651071938182620.0,2
1193,-1.0,-5.0,-15.0,1.0,-1.0,-2.0,-1.0,-1.0,1651071938182620.0,2
1194,2.0,12.0,24.0,3.0,5.0,1.0,2.0,1.0,1651071938203824.0,2
1195,-3.0,-21.0,-73.0,-9.0,-3.0,-2.0,-2.0,-1.0,1651071938203824.0,2
1196,-1.0,-7.0,15.0,6.0,2.0,2.0,-1.0,-1.0,1651071938204790.0,2
1197,-3.0,1.0,-9.0,-6.0,-1.0,0.0,-1.0,-1.0,1651071938204790.0,2
1198,0.0,-3.0,-3.0,-5.0,-11.0,-4.0,-2.0,-2.0,1651071938217762.0,2
1199,4.0,10.0,21.0,16.0,12.0,7.0,3.0,2.0,1651071938217762.0,2
1200,1.0,0.0,12.0,3.0,-8.0,-2.0,-3.0,-3.0,1651071938226717.0,2
1201,0.0,-3.0,-9.0,0.0,6.0,-2.0,1.0,1.0,1651071938226717.0,2
1202,-3.0,1.0,3.0,-7.0,-1.0,1.0,-2.0,-1.0,1651071938240734.0,2
1203,-1.0,1.0,-1.0,-3.0,-8.0,-6.0,-2.0,-2.0,1651071938240734.0,2
1204,3.0,8.0,24.0,4.0,2.0,3.0,1.0,2.0,1651071938242662.0,2
1205,1.0,2.0,-13.0,-3.0,3.0,2.0,1.0,0.0,1651071938242662.0,2
1206,0.0,-16.0,-22.0,-6.0,3.0,-2.0,-2.0,-1.0,1651071938263786.0,2
1207,-1.0,5.0,20.0,2.0,5.0,0.0,-3.0,0.0,1651071938263786.0,2
1208,-1.0,-2.0,-26.0,-2.0,1.0,1.0,0.0,-1.0,1651071938264717.0,2
1209,-3.0,2.0,12.0,0.0,-11.0,-4.0,-1.0,-1.0,1651071938264717.0,2
1210,-3.0,-9.0,-16.0,-7.0,-2.0,3.0,1.0,0.0,1651071938277694.0,2
1211,0.0,0.0,-1.0,1.0,3.0,0.0,0.0,-3.0,1651071938277694.0,2
1212,-1.0,-2.0,11.0,-1.0,-3.0,-2.0,0.0,-1.0,1651071938286662.0,2
1213,0.0,-2.0,5.0,13.0,3.0,5.0,1.0,-2.0,1651071938286662.0,2
1214,0.0,12.0,12.0,3.0,2.0,1.0,0.0,1.0,1651071938301655.0,2
1215,0.0,-7.0,22.0,-1.0,0.0,-4.0,-3.0,0.0,1651071938301655.0,2
1216,-3.0,1.0,8.0,3.0,5.0,-2.0,-1.0,1.0,1651071938302654.0,2
1217,4.0,6.0,-7.0,-8.0,-2.0,0.0,-1.0,1.0,1651071938302654.0,2
1218,0.0,6.0,34.0,6.0,-5.0,-3.0,-1.0,-2.0,1651071938323786.0,2
1219,-1.0,-7.0,-37.0,-2.0,13.0,4.0,2.0,2.0,1651071938323786.0,2
1220,-3.0,-8.0,-15.0,-9.0,-6.0,-3.0,0.0,-2.0,1651071938325445.0,2
1221,2.0,2.0,33.0,3.0,-6.0,-3.0,0.0,0.0,1651071938325445.0,2
1222,0.0,-4.0,-21.0,-3.0,-4.0,-2.0,0.0,-1.0,1651071938337471.0,2
1223,0.0,2.0,2.0,2.0,-2.0,-2.0,-1.0,-1.0,1651071938337471.0,2
1224,0.0,1.0,29.0,5.0,11.0,5.0,0.0,1.0,1651071938346401.0,2
1225,1.0,6.0,-14.0,-1.0,-3.0,0.0,1.0,1.0,1651071938346401.0,2
1226,-5.0,-20.0,-15.0,-8.0,-1.0,-1.0,0.0,-1.0,1651071938361410.0,2
1227,1.0,2.0,7.0,0.0,-7.0,-3.0,-1.0,-1.0,1651071938361410.0,2
1228,0.0,2.0,3.0,1.0,5.0,2.0,1.0,2.0,1651071938362346.0,2
1229,-3.0,-5.0,-2.0,-3.0,-4.0,-4.0,0.0,-2.0,1651071938362346.0,2
1230,0.0,3.0,-23.0,-2.0,-5.0,-4.0,0.0,1.0,1651071938383478.0,2
1231,0.0,0.0,11.0,-2.0,7.0,4.0,0.0,0.0,1651071938383478.0,2
1232,-2.0,-4.0,-9.0,9.0,-5.0,-5.0,-1.0,-3.0,1651071938385414.0,2
1233,-1.0,-4.0,-8.0,0.0,-2.0,-4.0,-2.0,-1.0,1651071938385414.0,2
1234,1.0,1.0,-2.0,2.0,10.0,3.0,2.0,1.0,1651071938397382.0,2
1235,1.0,8.0,6.0,-7.0,-7.0,-3.0,0.0,-1.0,1651071938397382.0,2
1236,0.0,-4.0,-10.0,0.0,-4.0,-1.0,-4.0,-1.0,1651071938406359.0,2
1237,0.0,1.0,-8.0,-5.0,-9.0,-4.0,-1.0,-1.0,1651071938406359.0,2
1238,0.0,0.0,10.0,0.0,-5.0,-3.0,-2.0,0.0,1651071938428367.0,2
1239,-3.0,-1.0,-8.0,6.0,20.0,5.0,1.0,-1.0,1651071938428367.0,2
1240,-1.0,4.0,4.0,-8.0,-2.0,1.0,-1.0,-1.0,1651071938430294.0,2
1241,0.0,-2.0,-4.0,0.0,-1.0,0.0,-1.0,-2.0,1651071938430294.0,2
1242,1.0,6.0,7.0,-3.0,-4.0,0.0,-1.0,0.0,1651071938443822.0,2
1243,1.0,-6.0,-14.0,-2.0,-9.0,-1.0,-1.0,1.0,1651071938443822.0,2
1244,-1.0,-1.0,0.0,-5.0,0.0,-3.0,-1.0,-2.0,1651071938444822.0,2
1245,-2.0,-11.0,-11.0,-1.0,5.0,2.0,0.0,0.0,1651071938444822.0,2
1246,-2.0,-9.0,-26.0,8.0,-1.0,0.0,1.0,-2.0,1651071938457666.0,2
1247,1.0,7.0,18.0,2.0,-4.0,-2.0,0.0,-1.0,1651071938457666.0,2
1248,-1.0,-1.0,-15.0,-6.0,4.0,0.0,0.0,0.0,1651071938466616.0,2
1249,0.0,0.0,-6.0,-8.0,-5.0,0.0,1.0,0.0,1651071938466616.0,2
1250,0.0,6.0,26.0,1.0,3.0,-1.0,-1.0,-2.0,1651071938481583.0,2
1251,-2.0,-6.0,-9.0,4.0,-7.0,-4.0,-1.0,-1.0,1651071938481583.0,2
1252,1.0,1.0,0.0,-5.0,-2.0,-2.0,1.0,-1.0,1651071938482559.0,2
1253,0.0,1.0,8.0,7.0,0.0,-1.0,0.0,-1.0,1651071938482559.0,2
1254,-1.0,-2.0,4.0,-1.0,13.0,5.0,0.0,-1.0,1651071938503500.0,2
1255,-2.0,-1.0,2.0,-2.0,-6.0,-2.0,-2.0,-2.0,1651071938503500.0,2
1256,-1.0,1.0,-5.0,-3.0,3.0,3.0,0.0,0.0,1651071938505531.0,2
1257,0.0,3.0,3.0,-3.0,-6.0,-3.0,-1.0,-1.0,1651071938505531.0,2
1258,-3.0,-1.0,-18.0,-2.0,-4.0,-2.0,-2.0,-3.0,1651071938526622.0,2
1259,0.0,-8.0,13.0,-2.0,3.0,-2.0,-1.0,-1.0,1651071938526622.0,2
1260,4.0,3.0,-11.0,1.0,-7.0,1.0,0.0,2.0,1651071938527599.0,2
1261,-4.0,-2.0,1.0,2.0,9.0,-3.0,-4.0,0.0,1651071938527599.0,2
1262,0.0,-1.0,3.0,-1.0,-4.0,-2.0,-1.0,1.0,1651071938541579.0,2
1263,0.0,5.0,5.0,-3.0,-7.0,-3.0,0.0,-2.0,1651071938541579.0,2
1264,0.0,-3.0,-5.0,2.0,0.0,-2.0,-1.0,-1.0,1651071938542553.0,2
1265,1.0,1.0,-13.0,-1.0,-7.0,3.0,1.0,1.0,1651071938542553.0,2
1266,1.0,7.0,23.0,0.0,14.0,3.0,0.0,1.0,1651071938563791.0,2
1267,-2.0,-5.0,-10.0,0.0,5.0,0.0,-1.0,0.0,1651071938563791.0,2
1268,1.0,-5.0,-10.0,-4.0,0.0,1.0,-2.0,0.0,1651071938564820.0,2
1269,3.0,1.0,2.0,10.0,0.0,0.0,-2.0,-2.0,1651071938564820.0,2
1270,1.0,4.0,10.0,-5.0,-5.0,-3.0,0.0,1.0,1651071938585901.0,2
1271,0.0,-1.0,-9.0,2.0,-5.0,-2.0,1.0,0.0,1651071938585901.0,2
1272,-4.0,-2.0,6.0,-1.0,1.0,3.0,1.0,-1.0,1651071938587835.0,2
1273,-1.0,0.0,-5.0,-7.0,4.0,-1.0,0.0,0.0,1651071938587835.0,2
1274,0.0,0.0,20.0,1.0,-12.0,-2.0,-1.0,-1.0,1651071938600867.0,2
1275,-2.0,-9.0,-13.0,2.0,6.0,6.0,-1.0,0.0,1651071938600867.0,2
1276,-1.0,-4.0,0.0,-2.0,7.0,0.0,0.0,-1.0,1651071938602795.0,2
1277,0.0,-3.0,-4.0,-5.0,-3.0,-2.0,0.0,0.0,1651071938602795.0,2
1278,-1.0,-4.0,-11.0,8.0,-4.0,-2.0,-1.0,0.0,1651071938623522.0,2
1279,0.0,3.0,1.0,-8.0,-11.0,-4.0,-1.0,0.0,1651071938623522.0,2
1280,-2.0,-3.0,-3.0,5.0,0.0,-2.0,-1.0,0.0,1651071938625542.0,2
1281,-1.0,-1.0,-6.0,-2.0,4.0,3.0,0.0,0.0,1651071938625542.0,2
1282,0.0,-1.0,-6.0,-3.0,-1.0,-1.0,-1.0,-3.0,1651071938646355.0,2
1283,2.0,6.0,14.0,3.0,-2.0,-3.0,0.0,0.0,1651071938646355.0,2
1284,0.0,-4.0,-17.0,2.0,-1.0,-2.0,-1.0,-2.0,1651071938647284.0,2
1285,-2.0,2.0,25.0,-1.0,5.0,5.0,1.0,-1.0,1651071938647284.0,2
1286,-1.0,-5.0,-33.0,-4.0,0.0,1.0,1.0,0.0,1651071938660316.0,2
1287,0.0,1.0,10.0,-7.0,-2.0,1.0,0.0,1.0,1651071938660316.0,2
1288,0.0,3.0,6.0,8.0,-3.0,-1.0,0.0,1.0,1651071938667297.0,2
1289,-2.0,-7.0,-4.0,10.0,1.0,-3.0,-2.0,-1.0,1651071938667297.0,2
1290,-1.0,0.0,1.0,-3.0,0.0,1.0,0.0,0.0,1651071938683461.0,2
1291,1.0,1.0,-1.0,-2.0,-2.0,0.0,-1.0,-1.0,1651071938683461.0,2
1292,1.0,1.0,-3.0,-8.0,-2.0,-2.0,-1.0,0.0,1651071938685562.0,2
1293,0.0,-1.0,4.0,-4.0,-2.0,-2.0,0.0,0.0,1651071938685562.0,2
1294,-2.0,-1.0,1.0,1.0,-1.0,1.0,0.0,-1.0,1651071938706388.0,2
1295,-1.0,2.0,-8.0,-6.0,0.0,-3.0,1.0,-2.0,1651071938706388.0,2
1296,0.0,-3.0,11.0,3.0,3.0,1.0,0.0,0.0,1651071938708363.0,2
1297,-3.0,-6.0,-24.0,-2.0,6.0,2.0,-1.0,-1.0,1651071938708363.0,2
1298,1.0,1.0,9.0,0.0,2.0,-3.0,-1.0,-2.0,1651071938720400.0,2
1299,0.0,2.0,-3.0,0.0,-1.0,3.0,0.0,0.0,1651071938720400.0,2
1300,-1.0,2.0,2.0,-1.0,-3.0,-1.0,-1.0,-1.0,1651071938727373.0,2
1301,0.0,2.0,0.0,-4.0,-1.0,-3.0,-1.0,1.0,1651071938727373.0,2
1302,-1.0,-2.0,-11.0,-3.0,-1.0,-2.0,-1.0,2.0,1651071938743337.0,2
1303,-1.0,-1.0,8.0,2.0,-4.0,-1.0,-2.0,-1.0,1651071938743337.0,2
1304,-1.0,1.0,11.0,0.0,-2.0,-1.0,0.0,-2.0,1651071938745264.0,2
1305,-2.0,-6.0,-22.0,-7.0,-15.0,-2.0,1.0,-1.0,1651071938745264.0,2
1306,-1.0,5.0,33.0,10.0,18.0,3.0,0.0,0.0,1651071938766462.0,2
1307,-2.0,-4.0,-13.0,-1.0,1.0,0.0,-2.0,1.0,1651071938766462.0,2
1308,-2.0,-6.0,-10.0,-1.0,-1.0,0.0,0.0,0.0,1651071938767400.0,2
1309,0.0,2.0,1.0,-4.0,-5.0,-2.0,-3.0,0.0,1651071938767400.0,2
1310,1.0,1.0,0.0,-4.0,-11.0,-3.0,-1.0,-1.0,1651071938780503.0,2
1311,1.0,2.0,5.0,2.0,7.0,3.0,-1.0,0.0,1651071938780503.0,2
1312,-1.0,-2.0,-5.0,2.0,1.0,0.0,0.0,-1.0,1651071938787543.0,2
1313,0.0,4.0,12.0,-1.0,-2.0,-1.0,0.0,-1.0,1651071938787543.0,2
1314,-3.0,-6.0,-7.0,3.0,3.0,2.0,0.0,1.0,1651071938803790.0,2
1315,-1.0,3.0,1.0,-1.0,-6.0,-6.0,-1.0,0.0,1651071938803790.0,2
1316,1.0,-6.0,-12.0,0.0,9.0,8.0,2.0,1.0,1651071938805609.0,2
1317,-1.0,3.0,7.0,-1.0,5.0,0.0,0.0,-1.0,1651071938805609.0,2
1318,-1.0,-2.0,-6.0,-4.0,-3.0,-2.0,0.0,-2.0,1651071938826031.0,2
1319,-1.0,1.0,-2.0,-7.0,-4.0,-4.0,0.0,-1.0,1651071938826031.0,2
1320,0.0,-5.0,-11.0,-3.0,-6.0,-5.0,-3.0,-2.0,1651071938827866.0,2
1321,2.0,-2.0,6.0,1.0,4.0,4.0,1.0,0.0,1651071938827866.0,2
1322,0.0,1.0,-7.0,-2.0,-1.0,1.0,-1.0,0.0,1651071938840872.0,2
1323,-1.0,-3.0,-12.0,4.0,-3.0,-1.0,-1.0,-2.0,1651071938840872.0,2
1324,-2.0,2.0,9.0,1.0,0.0,-2.0,2.0,0.0,1651071938846801.0,2
1325,0.0,2.0,0.0,1.0,-3.0,-2.0,-1.0,-1.0,1651071938846801.0,2
1326,0.0,0.0,-7.0,1.0,5.0,1.0,-1.0,-1.0,1651071938863809.0,2
1327,0.0,-2.0,4.0,-2.0,-1.0,1.0,-2.0,-2.0,1651071938863809.0,2
1328,-1.0,6.0,6.0,-3.0,-5.0,-2.0,-2.0,-1.0,1651071938864741.0,2
1329,-1.0,-3.0,-3.0,-2.0,-4.0,-4.0,0.0,-2.0,1651071938864741.0,2
1330,1.0,1.0,13.0,3.0,3.0,1.0,0.0,-1.0,1651071938885951.0,2
1331,-1.0,-1.0,-14.0,1.0,-1.0,-1.0,-1.0,-2.0,1651071938885951.0,2
1332,-1.0,0.0,4.0,-5.0,-8.0,-4.0,-2.0,-1.0,1651071938887789.0,2
1333,-2.0,3.0,8.0,0.0,7.0,0.0,-1.0,2.0,1651071938887789.0,2
1334,-1.0,-7.0,-23.0,-8.0,-11.0,-3.0,-2.0,-3.0,1651071938900756.0,2
1335,-2.0,-2.0,7.0,3.0,9.0,2.0,2.0,-1.0,1651071938900756.0,2
1336,1.0,3.0,7.0,4.0,-2.0,0.0,0.0,0.0,1651071938907775.0,2
1337,-1.0,3.0,24.0,0.0,-12.0,-6.0,-1.0,-2.0,1651071938907775.0,2
1338,-4.0,-5.0,-18.0,-10.0,4.0,6.0,2.0,1.0,1651071938923334.0,2
1339,-1.0,-9.0,-14.0,0.0,-4.0,-3.0,-1.0,-2.0,1651071938923334.0,2
1340,0.0,1.0,3.0,-2.0,3.0,0.0,-1.0,-1.0,1651071938925392.0,2
1341,1.0,4.0,4.0,9.0,0.0,1.0,0.0,-1.0,1651071938925392.0,2
1342,-1.0,1.0,9.0,2.0,2.0,0.0,-2.0,-1.0,1651071938946464.0,2
1343,1.0,4.0,10.0,0.0,-1.0,1.0,0.0,1.0,1651071938946464.0,2
1344,0.0,-1.0,-8.0,-3.0,3.0,-1.0,1.0,1.0,1651071938947417.0,2
1345,1.0,-3.0,5.0,-1.0,-1.0,1.0,-1.0,-2.0,1651071938947417.0,2
1346,0.0,-7.0,-34.0,-6.0,-8.0,-3.0,-2.0,1.0,1651071938960545.0,2
1347,-3.0,-3.0,-2.0,1.0,-2.0,1.0,0.0,0.0,1651071938960545.0,2
1348,2.0,4.0,13.0,9.0,5.0,-1.0,-3.0,0.0,1651071938967502.0,2
1349,-2.0,-2.0,-2.0,-9.0,0.0,-1.0,-1.0,1.0,1651071938967502.0,2
1350,0.0,0.0,22.0,7.0,3.0,3.0,2.0,1.0,1651071938984438.0,2
1351,-2.0,4.0,10.0,5.0,0.0,2.0,1.0,-1.0,1651071938984438.0,2
1352,1.0,-1.0,-6.0,-6.0,-2.0,0.0,0.0,1.0,1651071938985559.0,2
1353,-2.0,-6.0,-13.0,-2.0,-2.0,-2.0,-2.0,-3.0,1651071938985559.0,2
1354,0.0,3.0,5.0,-2.0,-15.0,-6.0,0.0,0.0,1651071939006686.0,2
1355,1.0,1.0,2.0,2.0,13.0,1.0,-1.0,0.0,1651071939006686.0,2
1356,-1.0,1.0,16.0,1.0,-5.0,-1.0,-1.0,-1.0,1651071939007694.0,2
1357,-2.0,-7.0,-27.0,-4.0,5.0,1.0,1.0,-1.0,1651071939007694.0,2
1358,1.0,3.0,2.0,-3.0,-3.0,-2.0,0.0,0.0,1651071939019718.0,2
1359,-1.0,-1.0,1.0,-1.0,-9.0,-4.0,-1.0,0.0,1651071939019718.0,2
1360,-1.0,0.0,-1.0,2.0,-1.0,-1.0,-1.0,-2.0,1651071939028627.0,2
1361,1.0,-2.0,11.0,1.0,1.0,3.0,1.0,1.0,1651071939028627.0,2
1362,-2.0,-2.0,-3.0,3.0,-2.0,-2.0,0.0,0.0,1651071939043757.0,2
1363,0.0,2.0,-4.0,-10.0,-4.0,-2.0,-2.0,-1.0,1651071939043757.0,2
1364,-2.0,-14.0,-25.0,0.0,3.0,1.0,-1.0,-2.0,1651071939045753.0,2
1365,1.0,8.0,10.0,1.0,0.0,-1.0,-1.0,0.0,1651071939045753.0,2
1366,0.0,-1.0,-19.0,4.0,4.0,0.0,0.0,0.0,1651071939064949.0,2
1367,0.0,5.0,9.0,4.0,-3.0,-3.0,0.0,1.0,1651071939064949.0,2
1368,-2.0,-8.0,-6.0,-5.0,-6.0,-2.0,0.0,0.0,1651071939073858.0,2
1369,-1.0,-1.0,1.0,-7.0,-1.0,0.0,0.0,-1.0,1651071939073858.0,2
1370,0.0,-1.0,-4.0,-7.0,-2.0,-3.0,-2.0,-2.0,1651071939079842.0,2
1371,1.0,1.0,9.0,2.0,-1.0,0.0,0.0,1.0,1651071939079842.0,2
1372,-1.0,-4.0,-10.0,-5.0,-4.0,0.0,-1.0,0.0,1651071939094969.0,2
1373,-1.0,5.0,-2.0,7.0,11.0,3.0,1.0,0.0,1651071939094969.0,2
1374,-2.0,-11.0,-28.0,-1.0,-1.0,0.0,-1.0,-3.0,1651071939103878.0,2
1375,-6.0,-8.0,-7.0,-4.0,-3.0,-1.0,1.0,-1.0,1651071939103878.0,2
1376,0.0,6.0,52.0,1.0,-1.0,-3.0,0.0,-2.0,1651071939104886.0,2
1377,5.0,3.0,-21.0,-13.0,-3.0,-5.0,-3.0,0.0,1651071939104886.0,2
1378,-1.0,5.0,28.0,11.0,1.0,-1.0,0.0,1.0,1651071939126522.0,2
1379,3.0,12.0,21.0,-7.0,1.0,3.0,0.0,1.0,1651071939126522.0,2
1380,-36.0,-13.0,-12.0,23.0,12.0,0.0,1.0,-5.0,1651071939127456.0,2
1381,33.0,32.0,23.0,-9.0,-6.0,-1.0,1.0,6.0,1651071939127456.0,2
1382,33.0,-13.0,-13.0,28.0,-3.0,-2.0,1.0,-6.0,1651071939140158.0,2
1383,-35.0,2.0,-28.0,-16.0,0.0,0.0,-2.0,-6.0,1651071939140158.0,2
1384,42.0,21.0,39.0,-22.0,-14.0,-3.0,-1.0,1.0,1651071939148966.0,2
1385,-58.0,-8.0,-23.0,23.0,6.0,2.0,0.0,-4.0,1651071939148966.0,2
1386,18.0,11.0,9.0,6.0,15.0,4.0,-2.0,-5.0,1651071939163780.0,2
1387,110.0,2.0,-5.0,-10.0,-7.0,-4.0,2.0,12.0,1651071939163780.0,2
1388,-99.0,-40.0,-1.0,-15.0,-19.0,-11.0,-6.0,-6.0,1651071939165720.0,2
1389,61.0,-11.0,-2.0,-24.0,-4.0,1.0,-3.0,-4.0,1651071939165720.0,2
1390,-23.0,-14.0,7.0,16.0,3.0,2.0,-1.0,-3.0,1651071939185871.0,2
1391,60.0,45.0,5.0,18.0,17.0,12.0,6.0,1.0,1651071939185871.0,2
1392,-41.0,5.0,-4.0,20.0,4.0,-2.0,0.0,3.0,1651071939187799.0,2
1393,66.0,-37.0,-73.0,-4.0,-18.0,-11.0,-5.0,-3.0,1651071939187799.0,2
1394,-52.0,12.0,47.0,8.0,9.0,3.0,2.0,10.0,1651071939200280.0,2
1395,-43.0,4.0,12.0,-76.0,-21.0,-7.0,-3.0,-14.0,1651071939200280.0,2
1396,48.0,-24.0,-72.0,-3.0,6.0,8.0,2.0,11.0,1651071939209269.0,2
1397,23.0,-4.0,61.0,29.0,11.0,-1.0,-5.0,-13.0,1651071939209269.0,2
1398,76.0,38.0,-24.0,-49.0,-8.0,-2.0,0.0,5.0,1651071939223548.0,2
1399,-107.0,-26.0,89.0,100.0,13.0,-1.0,0.0,2.0,1651071939223548.0,2
1400,48.0,19.0,-43.0,-47.0,-14.0,-5.0,-1.0,3.0,1651071939225546.0,2
1401,-128.0,-42.0,3.0,11.0,-1.0,-4.0,-7.0,-8.0,1651071939225546.0,2
1402,80.0,15.0,42.0,2.0,15.0,6.0,3.0,2.0,1651071939246490.0,2
1403,2.0,-65.0,-58.0,-53.0,-31.0,-7.0,-4.0,4.0,1651071939246490.0,2
1404,32.0,71.0,7.0,45.0,32.0,7.0,-2.0,-11.0,1651071939247487.0,2
1405,6.0,-19.0,11.0,26.0,-5.0,-5.0,1.0,3.0,1651071939247487.0,2
1406,-38.0,-8.0,56.0,-20.0,-2.0,2.0,1.0,-4.0,1651071939260519.0,2
1407,-27.0,3.0,-64.0,2.0,7.0,6.0,4.0,2.0,1651071939260519.0,2
1408,25.0,12.0,47.0,33.0,-6.0,-5.0,-3.0,0.0,1651071939268458.0,2
1409,16.0,25.0,-21.0,-42.0,-3.0,4.0,3.0,4.0,1651071939268458.0,2
1410,-41.0,0.0,20.0,-4.0,-17.0,-8.0,-2.0,1.0,1651071939283461.0,2
1411,15.0,3.0,-27.0,-11.0,3.0,-1.0,-4.0,-5.0,1651071939283461.0,2
1412,-13.0,-4.0,0.0,-39.0,0.0,4.0,2.0,2.0,1651071939285386.0,2
1413,14.0,24.0,30.0,73.0,8.0,0.0,1.0,3.0,1651071939285386.0,2
1414,-38.0,-14.0,-31.0,-47.0,3.0,4.0,1.0,-1.0,1651071939306519.0,2
1415,-4.0,20.0,88.0,-1.0,5.0,3.0,4.0,3.0,1651071939306519.0,2
1416,74.0,6.0,-24.0,25.0,-18.0,-4.0,2.0,8.0,1651071939307449.0,2
1417,-65.0,26.0,-14.0,-21.0,-12.0,-4.0,0.0,-1.0,1651071939307449.0,2
1418,15.0,-12.0,-10.0,40.0,12.0,0.0,-2.0,6.0,1651071939319416.0,2
1419,-2.0,28.0,-6.0,-3.0,5.0,0.0,-2.0,-14.0,1651071939319416.0,2
1420,-42.0,-13.0,38.0,-6.0,4.0,2.0,-1.0,1.0,1651071939328424.0,2
1421,16.0,1.0,-99.0,-81.0,-4.0,6.0,3.0,2.0,1651071939328424.0,2
1422,-51.0,-1.0,34.0,47.0,-5.0,-6.0,-4.0,-4.0,1651071939343397.0,2
1423,17.0,-3.0,1.0,-22.0,-14.0,-9.0,-4.0,3.0,1651071939343397.0,2
1424,-34.0,-31.0,-47.0,27.0,1.0,-1.0,-2.0,-6.0,1651071939350232.0,2
1425,0.0,-3.0,11.0,15.0,12.0,7.0,3.0,4.0,1651071939350232.0,2
1426,-23.0,-15.0,-14.0,33.0,20.0,-2.0,-5.0,-5.0,1651071939366294.0,2
1427,-22.0,-6.0,-18.0,-29.0,-15.0,3.0,5.0,3.0,1651071939366294.0,2
1428,36.0,21.0,45.0,28.0,-10.0,-4.0,-2.0,-4.0,1651071939380569.0,2
1429,-24.0,-5.0,-12.0,-51.0,-13.0,-6.0,-4.0,-10.0,1651071939380569.0,2
1430,21.0,10.0,15.0,-24.0,0.0,3.0,1.0,6.0,1651071939381567.0,2
1431,41.0,-18.0,-27.0,53.0,13.0,-2.0,-2.0,0.0,1651071939381567.0,2
1432,6.0,18.0,92.0,-26.0,2.0,4.0,3.0,-1.0,1651071939388549.0,2
1433,-8.0,10.0,22.0,15.0,8.0,3.0,4.0,9.0,1651071939388549.0,2
1434,76.0,-22.0,-72.0,-7.0,-19.0,-12.0,-6.0,-8.0,1651071939402577.0,2
1435,-72.0,-21.0,-18.0,7.0,-10.0,-5.0,-4.0,2.0,1651071939402577.0,2
1436,-27.0,2.0,-28.0,-13.0,8.0,0.0,1.0,-1.0,1651071939409603.0,2
1437,16.0,-20.0,33.0,34.0,5.0,1.0,-1.0,-2.0,1651071939409603.0,2
1438,13.0,-3.0,17.0,-58.0,-21.0,-4.0,-4.0,-3.0,1651071939425768.0,2
1439,-4.0,-2.0,-52.0,-41.0,0.0,-1.0,0.0,5.0,1651071939425768.0,2
1440,73.0,-18.0,-45.0,16.0,12.0,5.0,2.0,14.0,1651071939427704.0,2
1441,-35.0,14.0,68.0,31.0,9.0,5.0,-2.0,-10.0,1651071939427704.0,2
1442,1.0,19.0,11.0,17.0,-1.0,5.0,7.0,9.0,1651071939448427.0,2
1443,40.0,-17.0,3.0,-54.0,-8.0,-3.0,-3.0,-6.0,1651071939448427.0,2
1444,-42.0,-13.0,19.0,22.0,-2.0,-5.0,-2.0,-4.0,1651071939450361.0,2
1445,10.0,7.0,-48.0,-20.0,0.0,0.0,2.0,3.0,1651071939450361.0,2
1446,8.0,11.0,24.0,42.0,10.0,4.0,0.0,-2.0,1651071939463318.0,2
1447,43.0,18.0,6.0,4.0,-5.0,-5.0,0.0,2.0,1651071939463318.0,2
1448,-40.0,-5.0,-19.0,-9.0,5.0,2.0,-2.0,-9.0,1651071939469371.0,2
1449,44.0,12.0,28.0,-39.0,-9.0,-3.0,-3.0,4.0,1651071939469371.0,2
1450,-17.0,-18.0,-63.0,-7.0,0.0,1.0,2.0,-4.0,1651071939486409.0,2
1451,-30.0,-10.0,-54.0,12.0,8.0,4.0,2.0,2.0,1651071939486409.0,2
1452,23.0,-7.0,13.0,7.0,-3.0,1.0,0.0,0.0,1651071939487359.0,2
1453,-31.0,1.0,32.0,35.0,12.0,1.0,0.0,-2.0,1651071939487359.0,2
1454,11.0,12.0,-56.0,-33.0,-10.0,-2.0,-3.0,4.0,1651071939508280.0,2
1455,10.0,18.0,91.0,33.0,-8.0,-3.0,1.0,-11.0,1651071939508280.0,2
1456,-1.0,-11.0,-34.0,-23.0,-10.0,-4.0,-1.0,-1.0,1651071939510276.0,2
1457,-37.0,-11.0,-20.0,-33.0,0.0,0.0,0.0,0.0,1651071939510276.0,2
1458,11.0,14.0,29.0,6.0,5.0,1.0,2.0,1.0,1651071939523369.0,2
1459,-6.0,-22.0,-15.0,28.0,3.0,-3.0,-3.0,-4.0,1651071939523369.0,2
1460,-50.0,13.0,16.0,-22.0,12.0,7.0,2.0,-1.0,1651071939537539.0,2
1461,50.0,-11.0,9.0,36.0,-10.0,-5.0,-2.0,0.0,1651071939537539.0,2
1462,-3.0,13.0,16.0,-2.0,-5.0,-2.0,-2.0,-1.0,1651071939546515.0,0
1463,20.0,-21.0,31.0,-3.0,10.0,1.0,-3.0,3.0,1651071939546515.0,3
1464,-4.0,12.0,44.0,-12.0,-6.0,-1.0,1.0,-5.0,1651071939547453.0,3
1465,21.0,-5.0,-23.0,-14.0,6.0,3.0,5.0,8.0,1651071939547453.0,3
1466,-8.0,-22.0,28.0,4.0,-13.0,-6.0,-1.0,0.0,1651071939569131.0,3
1467,-24.0,17.0,7.0,1.0,2.0,-2.0,-3.0,-2.0,1651071939569131.0,3
1468,-9.0,-11.0,5.0,28.0,8.0,2.0,-2.0,-2.0,1651071939570135.0,3
1469,11.0,-4.0,1.0,1.0,4.0,2.0,0.0,2.0,1651071939570135.0,3
1470,7.0,4.0,6.0,23.0,-9.0,0.0,0.0,4.0,1651071939583096.0,3
1471,2.0,11.0,66.0,-34.0,-5.0,5.0,3.0,7.0,1651071939583096.0,3
1472,25.0,-39.0,-110.0,22.0,-8.0,-13.0,-8.0,-9.0,1651071939585092.0,3
1473,6.0,13.0,-1.0,-15.0,3.0,1.0,-4.0,-4.0,1651071939585092.0,3
1474,-23.0,7.0,8.0,-17.0,0.0,-1.0,0.0,1.0,1651071939606449.0,3
1475,46.0,7.0,2.0,8.0,8.0,5.0,3.0,0.0,1651071939606449.0,3
1476,-29.0,21.0,38.0,1.0,4.0,0.0,-1.0,-1.0,1651071939607395.0,3
1477,29.0,-9.0,-2.0,2.0,0.0,2.0,1.0,5.0,1651071939607395.0,3
1478,-26.0,-2.0,-28.0,-18.0,-14.0,-9.0,-7.0,-9.0,1651071939628544.0,3
1479,9.0,-4.0,-3.0,15.0,2.0,1.0,0.0,3.0,1651071939628544.0,3
1480,-6.0,7.0,20.0,-4.0,5.0,4.0,1.0,2.0,1651071939630469.0,3
1481,-20.0,2.0,1.0,25.0,3.0,2.0,0.0,-3.0,1651071939630469.0,3
1482,1.0,8.0,30.0,-9.0,9.0,6.0,3.0,0.0,1651071939643456.0,3
1483,-30.0,1.0,17.0,67.0,4.0,0.0,1.0,-2.0,1651071939643456.0,3
1484,5.0,-24.0,-60.0,-86.0,-12.0,-6.0,-3.0,1.0,1651071939649509.0,3
1485,-17.0,-27.0,-18.0,-1.0,-21.0,-6.0,-5.0,-1.0,1651071939649509.0,3
1486,29.0,-5.0,-18.0,2.0,12.0,3.0,1.0,1.0,1651071939666549.0,3
1487,-16.0,8.0,26.0,-1.0,-2.0,1.0,0.0,0.0,1651071939666549.0,3
1488,27.0,3.0,20.0,15.0,10.0,2.0,1.0,6.0,1651071939667572.0,3
1489,12.0,11.0,29.0,35.0,4.0,-1.0,0.0,-2.0,1651071939667572.0,3
1490,-13.0,-10.0,-18.0,-22.0,-4.0,-1.0,0.0,-4.0,1651071939688288.0,3
1491,14.0,-21.0,-49.0,-26.0,-6.0,-2.0,-1.0,2.0,1651071939688288.0,3
1492,-13.0,-11.0,-26.0,31.0,-4.0,3.0,1.0,0.0,1651071939690214.0,3
1493,-18.0,43.0,82.0,-36.0,-6.0,1.0,2.0,0.0,1651071939690214.0,3
1494,-38.0,-26.0,-13.0,49.0,18.0,2.0,1.0,0.0,1651071939703356.0,3
1495,-32.0,5.0,18.0,-25.0,-5.0,-3.0,-5.0,-2.0,1651071939703356.0,3
1496,35.0,14.0,-11.0,3.0,-1.0,4.0,4.0,9.0,1651071939710255.0,3
1497,-12.0,7.0,28.0,-32.0,-5.0,-6.0,0.0,-1.0,1651071939710255.0,3
1498,2.0,-12.0,-11.0,58.0,13.0,4.0,2.0,-1.0,1651071939727295.0,3
1499,5.0,-5.0,-23.0,-31.0,-15.0,-7.0,-2.0,-2.0,1651071939727295.0,3
1500,-27.0,-10.0,-2.0,-21.0,-5.0,0.0,-1.0,-3.0,1651071939728266.0,3
1501,-6.0,-11.0,-44.0,12.0,1.0,1.0,-1.0,-6.0,1651071939728266.0,3
1502,24.0,4.0,9.0,-12.0,-17.0,-3.0,0.0,7.0,1651071939748388.0,3
1503,-9.0,-12.0,-15.0,20.0,14.0,2.0,-1.0,-3.0,1651071939748388.0,3
1504,12.0,11.0,1.0,-15.0,0.0,0.0,-3.0,-4.0,1651071939750317.0,3
1505,22.0,-16.0,-37.0,-3.0,1.0,-2.0,1.0,4.0,1651071939750317.0,3
1506,-57.0,2.0,4.0,-42.0,-7.0,-3.0,-3.0,-4.0,1651071939762757.0,3
1507,14.0,13.0,40.0,42.0,8.0,2.0,1.0,3.0,1651071939762757.0,3
1508,22.0,13.0,-11.0,12.0,-4.0,-2.0,-1.0,-4.0,1651071939770255.0,3
1509,-30.0,-16.0,9.0,-6.0,-9.0,-2.0,0.0,4.0,1651071939770255.0,3
1510,-6.0,9.0,-32.0,-32.0,1.0,-1.0,-5.0,-7.0,1651071939786667.0,3
1511,4.0,8.0,33.0,15.0,1.0,-1.0,-3.0,-2.0,1651071939786667.0,3
1512,-18.0,-25.0,-26.0,-32.0,-3.0,-5.0,-1.0,-7.0,1651071939787674.0,3
1513,27.0,2.0,-16.0,7.0,9.0,2.0,-2.0,-3.0,1651071939787674.0,3
1514,-18.0,-9.0,-20.0,32.0,-11.0,-4.0,0.0,-3.0,1651071939808357.0,3
1515,-5.0,5.0,-17.0,3.0,5.0,2.0,1.0,1.0,1651071939808357.0,3
1516,-18.0,0.0,1.0,-19.0,-3.0,1.0,3.0,4.0,1651071939810377.0,3
1517,-2.0,15.0,15.0,-4.0,-4.0,-1.0,0.0,-4.0,1651071939810377.0,3
1518,18.0,-15.0,7.0,15.0,11.0,2.0,0.0,1.0,1651071939823430.0,3
1519,0.0,0.0,-20.0,-24.0,-5.0,-1.0,-2.0,-2.0,1651071939823430.0,3
1520,-4.0,4.0,53.0,58.0,-8.0,-1.0,-2.0,-1.0,1651071939830414.0,3
1521,2.0,8.0,-35.0,-30.0,1.0,1.0,3.0,4.0,1651071939830414.0,3
1522,2.0,-10.0,-10.0,-17.0,-3.0,-2.0,-1.0,0.0,1651071939846444.0,3
1523,-5.0,-5.0,-21.0,-11.0,-2.0,1.0,1.0,-2.0,1651071939846444.0,3
1524,-11.0,5.0,44.0,41.0,8.0,-1.0,0.0,1.0,1651071939847372.0,3
1525,-33.0,-11.0,-6.0,6.0,-2.0,0.0,-1.0,-6.0,1651071939847372.0,3
1526,62.0,16.0,-18.0,-24.0,-13.0,-2.0,1.0,4.0,1651071939868616.0,3
1527,-23.0,11.0,-1.0,1.0,1.0,0.0,-1.0,0.0,1651071939868616.0,3
1528,-39.0,-23.0,-12.0,-25.0,-6.0,-3.0,-2.0,-2.0,1651071939870570.0,3
1529,-37.0,-12.0,1.0,13.0,9.0,1.0,1.0,1.0,1651071939870570.0,3
1530,-1.0,6.0,23.0,27.0,5.0,1.0,-2.0,-4.0,1651071939883221.0,3
1531,-7.0,6.0,-2.0,-6.0,-3.0,-2.0,0.0,-1.0,1651071939883221.0,3
1532,25.0,3.0,1.0,-5.0,2.0,1.0,3.0,2.0,1651071939890269.0,3
1533,-21.0,-3.0,-17.0,-10.0,-1.0,1.0,-1.0,0.0,1651071939890269.0,3
1534,-4.0,23.0,31.0,-5.0,-2.0,-1.0,1.0,-3.0,1651071939906432.0,3
1535,21.0,-26.0,1.0,12.0,-8.0,-2.0,-1.0,4.0,1651071939906432.0,3
1536,-12.0,12.0,22.0,-6.0,6.0,-1.0,-4.0,-12.0,1651071939907390.0,3
1537,9.0,-6.0,4.0,8.0,0.0,-2.0,-2.0,0.0,1651071939907390.0,3
1538,-21.0,-5.0,-27.0,-22.0,-1.0,-2.0,-3.0,-5.0,1651071939928563.0,3
1539,5.0,16.0,17.0,18.0,17.0,3.0,0.0,-1.0,1651071939928563.0,3
1540,1.0,0.0,-36.0,-12.0,-6.0,-2.0,-1.0,1.0,1651071939930514.0,3
1541,22.0,-5.0,-1.0,10.0,-15.0,-6.0,0.0,6.0,1651071939930514.0,3
1542,-31.0,3.0,12.0,-13.0,0.0,2.0,2.0,0.0,1651071939942466.0,3
1543,3.0,7.0,2.0,-19.0,-1.0,0.0,-1.0,-1.0,1651071939942466.0,3
1544,10.0,-7.0,-12.0,16.0,10.0,3.0,0.0,2.0,1651071939951435.0,3
1545,27.0,3.0,-13.0,4.0,4.0,3.0,0.0,2.0,1651071939951435.0,3
1546,-7.0,-13.0,12.0,-5.0,-13.0,-6.0,-4.0,-3.0,1651071939966490.0,3
1547,-20.0,-13.0,-39.0,-19.0,-2.0,1.0,-2.0,-3.0,1651071939966490.0,3
1548,0.0,10.0,15.0,10.0,8.0,3.0,1.0,3.0,1651071939967481.0,3
1549,19.0,3.0,-8.0,0.0,-4.0,-2.0,-1.0,-2.0,1651071939967481.0,3
1550,2.0,-2.0,22.0,18.0,0.0,-1.0,0.0,1.0,1651071939988958.0,3
1551,-3.0,-10.0,-30.0,-16.0,0.0,0.0,0.0,0.0,1651071939988958.0,3
1552,3.0,20.0,53.0,24.0,10.0,-2.0,-3.0,-1.0,1651071939989959.0,3
1553,14.0,9.0,19.0,-8.0,-10.0,-1.0,0.0,-3.0,1651071939989959.0,3
1554,5.0,-1.0,1.0,2.0,-1.0,3.0,0.0,0.0,1651071940002724.0,3
1555,-34.0,3.0,15.0,52.0,6.0,-4.0,-4.0,-4.0,1651071940002724.0,3
1556,9.0,-15.0,-45.0,-71.0,-19.0,-4.0,1.0,2.0,1651071940011615.0,3
1557,5.0,2.0,9.0,10.0,-1.0,-3.0,-4.0,0.0,1651071940011615.0,3
1558,18.0,1.0,-1.0,-15.0,9.0,4.0,2.0,3.0,1651071940026313.0,3
1559,-13.0,-31.0,12.0,2.0,-4.0,-1.0,0.0,-2.0,1651071940026313.0,3
1560,7.0,19.0,46.0,24.0,3.0,3.0,1.0,0.0,1651071940027332.0,3
1561,-8.0,-16.0,-25.0,5.0,3.0,0.0,0.0,-1.0,1651071940027332.0,3
1562,-1.0,-5.0,-14.0,-32.0,-9.0,-3.0,0.0,1.0,1651071940048249.0,3
1563,15.0,10.0,-4.0,7.0,1.0,1.0,0.0,0.0,1651071940048249.0,3
1564,12.0,1.0,20.0,-22.0,-1.0,0.0,0.0,0.0,1651071940050243.0,3
1565,0.0,1.0,5.0,21.0,0.0,0.0,-1.0,1.0,1651071940050243.0,3
1566,0.0,11.0,-30.0,-5.0,2.0,1.0,0.0,2.0,1651071940062696.0,3
1567,12.0,10.0,40.0,25.0,2.0,-2.0,-1.0,-1.0,1651071940062696.0,3
1568,-8.0,-15.0,-44.0,-37.0,-12.0,-6.0,-2.0,-3.0,1651071940071379.0,3
1569,12.0,11.0,30.0,24.0,8.0,3.0,1.0,0.0,1651071940071379.0,3
1570,21.0,1.0,14.0,11.0,4.0,0.0,-2.0,4.0,1651071940087382.0,3
1571,-19.0,11.0,-14.0,-6.0,-1.0,1.0,1.0,-1.0,1651071940087382.0,3
1572,-3.0,-16.0,-79.0,-36.0,-14.0,-5.0,-1.0,2.0,1651071940092386.0,3
1573,-5.0,-36.0,-55.0,-13.0,-1.0,-2.0,-3.0,-2.0,1651071940092386.0,3
1574,7.0,13.0,60.0,70.0,5.0,-3.0,-1.0,-2.0,1651071940108847.0,3
1575,33.0,-2.0,-18.0,-52.0,4.0,2.0,3.0,0.0,1651071940108847.0,3
1576,16.0,4.0,35.0,20.0,6.0,3.0,0.0,3.0,1651071940109881.0,3
1577,-35.0,20.0,31.0,11.0,-7.0,-3.0,-2.0,-4.0,1651071940109881.0,3
1578,-5.0,-15.0,-51.0,-34.0,-2.0,-1.0,-1.0,-5.0,1651071940122694.0,3
1579,7.0,-3.0,15.0,28.0,2.0,1.0,-1.0,-4.0,1651071940122694.0,3
1580,0.0,2.0,-36.0,-8.0,2.0,1.0,0.0,0.0,1651071940130847.0,3
1581,-9.0,7.0,9.0,-26.0,-3.0,-1.0,-2.0,-1.0,1651071940130847.0,3
1582,-17.0,-9.0,-22.0,30.0,3.0,4.0,3.0,0.0,1651071940146130.0,3
1583,2.0,-7.0,-13.0,9.0,-5.0,-4.0,-2.0,1.0,1651071940146130.0,3
1584,13.0,-5.0,-1.0,-34.0,-12.0,-3.0,-3.0,-2.0,1651071940147926.0,3
1585,1.0,5.0,4.0,47.0,14.0,3.0,1.0,1.0,1651071940147926.0,3
1586,-16.0,13.0,14.0,-55.0,-10.0,-2.0,-2.0,-6.0,1651071940167974.0,3
1587,-7.0,-15.0,-53.0,-12.0,-12.0,-6.0,0.0,-2.0,1651071940167974.0,3
1588,4.0,5.0,20.0,2.0,7.0,4.0,2.0,-1.0,1651071940176322.0,3
1589,14.0,4.0,21.0,8.0,-6.0,-4.0,-2.0,-1.0,1651071940176322.0,3
1590,-42.0,0.0,37.0,9.0,5.0,-2.0,1.0,2.0,1651071940182307.0,3
1591,4.0,13.0,4.0,-14.0,-3.0,-2.0,-3.0,-1.0,1651071940182307.0,3
1592,-14.0,3.0,23.0,19.0,-2.0,0.0,-2.0,-3.0,1651071940191282.0,3
1593,16.0,8.0,56.0,14.0,7.0,2.0,2.0,2.0,1651071940191282.0,3
1594,2.0,-33.0,-71.0,-54.0,-5.0,0.0,1.0,-1.0,1651071940206450.0,3
1595,-3.0,21.0,35.0,53.0,-5.0,-2.0,-1.0,-2.0,1651071940206450.0,3
1596,-15.0,3.0,-36.0,-14.0,-2.0,-1.0,2.0,1.0,1651071940207420.0,3
1597,5.0,-3.0,-3.0,-28.0,4.0,2.0,1.0,0.0,1651071940207420.0,3
1598,10.0,10.0,9.0,37.0,0.0,0.0,-2.0,-2.0,1651071940228479.0,3
1599,-8.0,4.0,-17.0,-34.0,4.0,3.0,1.0,3.0,1651071940228479.0,3
1600,4.0,-4.0,13.0,35.0,-2.0,-3.0,-4.0,-2.0,1651071940230431.0,3
1601,1.0,-9.0,-13.0,-11.0,-3.0,-2.0,0.0,-1.0,1651071940230431.0,3
1602,1.0,16.0,36.0,-4.0,0.0,0.0,0.0,1.0,1651071940242372.0,3
1603,3.0,-14.0,-38.0,-6.0,1.0,3.0,-1.0,0.0,1651071940242372.0,3
1604,8.0,6.0,32.0,6.0,4.0,2.0,2.0,4.0,1651071940251630.0,3
1605,-15.0,-18.0,-39.0,2.0,-2.0,-4.0,-3.0,-5.0,1651071940251630.0,3
1606,3.0,-9.0,12.0,0.0,-2.0,-1.0,-1.0,2.0,1651071940266508.0,3
1607,-6.0,-5.0,1.0,4.0,-5.0,-2.0,-1.0,-6.0,1651071940266508.0,3
1608,-1.0,-1.0,5.0,15.0,1.0,0.0,-1.0,-2.0,1651071940267439.0,3
1609,10.0,1.0,-21.0,-25.0,-7.0,2.0,1.0,-1.0,1651071940267439.0,3
1610,14.0,16.0,52.0,32.0,8.0,3.0,2.0,-1.0,1651071940288449.0,3
1611,-8.0,-9.0,1.0,-10.0,-3.0,-2.0,-1.0,1.0,1651071940288449.0,3
1612,6.0,-7.0,7.0,12.0,-6.0,-3.0,-3.0,-5.0,1651071940290377.0,3
1613,4.0,13.0,-25.0,-2.0,-1.0,-2.0,-1.0,1.0,1651071940290377.0,3
1614,8.0,-7.0,-24.0,-19.0,-3.0,-2.0,-2.0,-1.0,1651071940302171.0,3
1615,0.0,-2.0,37.0,3.0,-1.0,-2.0,-3.0,-3.0,1651071940302171.0,3
1616,1.0,7.0,-1.0,26.0,11.0,5.0,2.0,-2.0,1651071940311174.0,3
1617,0.0,0.0,-3.0,-12.0,-8.0,-2.0,-3.0,1.0,1651071940311174.0,3
1618,-8.0,5.0,-15.0,0.0,-2.0,-4.0,-4.0,-1.0,1651071940326628.0,3
1619,12.0,1.0,2.0,15.0,3.0,-1.0,0.0,1.0,1651071940326628.0,3
1620,-4.0,-8.0,-10.0,-23.0,-3.0,0.0,0.0,-1.0,1651071940327495.0,3
1621,-13.0,-8.0,-12.0,-25.0,-3.0,1.0,0.0,-2.0,1651071940327495.0,3
1622,-2.0,5.0,-18.0,20.0,8.0,-1.0,-2.0,-1.0,1651071940348483.0,3
1623,-36.0,-19.0,-4.0,-7.0,3.0,0.0,-1.0,1.0,1651071940348483.0,3
1624,-8.0,9.0,29.0,23.0,0.0,-3.0,1.0,-2.0,1651071940350438.0,3
1625,3.0,-2.0,-33.0,-27.0,-7.0,-3.0,-2.0,0.0,1651071940350438.0,3
1626,0.0,3.0,-2.0,-10.0,-7.0,2.0,0.0,2.0,1651071940371422.0,3
1627,12.0,5.0,0.0,0.0,-2.0,-1.0,0.0,1.0,1651071940371422.0,3
1628,4.0,0.0,16.0,-10.0,4.0,2.0,0.0,0.0,1651071940372390.0,3
1629,-5.0,-7.0,-15.0,23.0,4.0,3.0,3.0,4.0,1651071940372390.0,3
1630,-9.0,-12.0,1.0,16.0,2.0,-1.0,1.0,-4.0,1651071940386496.0,3
1631,22.0,0.0,-18.0,7.0,-5.0,-3.0,-1.0,1.0,1651071940386496.0,3
1632,-26.0,-24.0,-58.0,-36.0,-14.0,-2.0,-1.0,-2.0,1651071940387425.0,3
1633,49.0,-1.0,1.0,-11.0,9.0,0.0,-3.0,-3.0,1651071940387425.0,3
1634,4.0,7.0,7.0,37.0,1.0,-3.0,-3.0,-2.0,1651071940409128.0,3
1635,-13.0,5.0,21.0,-10.0,-4.0,-1.0,-2.0,-1.0,1651071940409128.0,3
1636,10.0,4.0,-13.0,-1.0,-1.0,-2.0,-1.0,2.0,1651071940410128.0,3
1637,-3.0,6.0,17.0,11.0,5.0,3.0,2.0,-3.0,1651071940410128.0,3
1638,3.0,-10.0,-18.0,-29.0,-5.0,2.0,0.0,1.0,1651071940430883.0,3
1639,31.0,11.0,13.0,20.0,6.0,-1.0,1.0,0.0,1651071940430883.0,3
1640,5.0,-4.0,-21.0,7.0,-8.0,-3.0,-3.0,-2.0,1651071940432908.0,3
1641,-12.0,-2.0,18.0,-3.0,-4.0,-3.0,-2.0,-4.0,1651071940432908.0,3
1642,-11.0,3.0,-3.0,-39.0,3.0,1.0,2.0,2.0,1651071940446179.0,3
1643,5.0,8.0,14.0,8.0,-7.0,-2.0,-1.0,-1.0,1651071940446179.0,3
1644,-5.0,0.0,-41.0,6.0,4.0,0.0,-2.0,0.0,1651071940447986.0,3
1645,-14.0,-3.0,21.0,6.0,0.0,0.0,0.0,0.0,1651071940447986.0,3
1646,2.0,-19.0,-35.0,-21.0,-4.0,-1.0,-1.0,1.0,1651071940469053.0,3
1647,1.0,-1.0,-7.0,2.0,5.0,2.0,0.0,-1.0,1651071940469053.0,3
1648,1.0,1.0,17.0,-2.0,1.0,4.0,2.0,1.0,1651071940470064.0,3
1649,-10.0,3.0,-25.0,-7.0,-6.0,-1.0,-1.0,1.0,1651071940470064.0,3
1650,4.0,3.0,28.0,34.0,0.0,-4.0,0.0,-1.0,1651071940491613.0,3
1651,-8.0,-3.0,12.0,-31.0,-7.0,-4.0,-4.0,-2.0,1651071940491613.0,3
1652,-7.0,-8.0,-19.0,-4.0,0.0,-3.0,-1.0,-1.0,1651071940492613.0,3
1653,-4.0,-1.0,7.0,-9.0,4.0,0.0,1.0,0.0,1651071940492613.0,3
1654,0.0,-3.0,-1.0,12.0,-3.0,1.0,4.0,0.0,1651071940505778.0,3
1655,-3.0,0.0,-17.0,17.0,4.0,2.0,1.0,0.0,1651071940505778.0,3
1656,6.0,25.0,54.0,-4.0,-2.0,-1.0,-3.0,-2.0,1651071940508171.0,3
1657,-9.0,-8.0,-8.0,6.0,0.0,1.0,-1.0,-1.0,1651071940508171.0,3
1658,-7.0,-10.0,-27.0,-16.0,-3.0,0.0,-2.0,-1.0,1651071940528460.0,3
1659,-1.0,-9.0,0.0,-5.0,-1.0,2.0,0.0,1.0,1651071940528460.0,3
1660,0.0,-1.0,15.0,-1.0,0.0,1.0,-2.0,-1.0,1651071940535293.0,3
1661,-1.0,5.0,0.0,-5.0,-3.0,-2.0,-2.0,-1.0,1651071940535293.0,3
1662,-7.0,-8.0,-3.0,10.0,0.0,-1.0,-3.0,-2.0,1651071940551412.0,3
1663,-2.0,0.0,-10.0,-7.0,-1.0,-3.0,0.0,0.0,1651071940551412.0,3
1664,-2.0,-1.0,15.0,17.0,2.0,1.0,0.0,-2.0,1651071940552362.0,3
1665,-4.0,-7.0,9.0,2.0,4.0,3.0,1.0,-1.0,1651071940552362.0,3
1666,2.0,2.0,-11.0,-29.0,-8.0,-2.0,0.0,0.0,1651071940565497.0,3
1667,0.0,-2.0,-6.0,34.0,-2.0,-1.0,0.0,-1.0,1651071940565497.0,3
1668,-1.0,-7.0,1.0,-29.0,-3.0,-5.0,-3.0,-4.0,1651071940572726.0,3
1669,0.0,5.0,20.0,21.0,0.0,-2.0,-2.0,1.0,1651071940572726.0,3
1670,3.0,2.0,3.0,-6.0,-1.0,2.0,0.0,-1.0,1651071940588793.0,3
1671,3.0,2.0,-14.0,-21.0,-1.0,2.0,0.0,0.0,1651071940588793.0,3
1672,-5.0,6.0,16.0,31.0,-1.0,0.0,1.0,2.0,1651071940589723.0,3
1673,2.0,-2.0,1.0,1.0,-2.0,-1.0,-1.0,-1.0,1651071940589723.0,3
1674,-7.0,-31.0,-67.0,-32.0,-3.0,-1.0,0.0,0.0,1651071940610788.0,3
1675,-3.0,4.0,1.0,5.0,-1.0,-2.0,-2.0,-2.0,1651071940610788.0,3
1676,3.0,9.0,29.0,14.0,3.0,0.0,1.0,3.0,1651071940612782.0,3
1677,1.0,2.0,-23.0,-25.0,-4.0,-2.0,0.0,1.0,1651071940612782.0,3
1678,3.0,9.0,24.0,32.0,1.0,-1.0,-4.0,-2.0,1651071940625892.0,3
1679,-4.0,-5.0,0.0,-12.0,0.0,2.0,-1.0,-1.0,1651071940625892.0,3
1680,-5.0,-7.0,-10.0,-13.0,-4.0,-3.0,-1.0,-3.0,1651071940632589.0,3
1681,2.0,4.0,18.0,28.0,-2.0,-1.0,0.0,1.0,1651071940632589.0,3
1682,-2.0,8.0,19.0,0.0,-1.0,-2.0,0.0,-1.0,1651071940650692.0,3
1683,-1.0,-1.0,0.0,-15.0,-2.0,0.0,-2.0,-1.0,1651071940650692.0,3
1684,3.0,-1.0,-3.0,-8.0,1.0,2.0,-1.0,1.0,1651071940652667.0,3
1685,-3.0,-2.0,-3.0,5.0,-1.0,-1.0,-2.0,-2.0,1651071940652667.0,3
1686,-2.0,5.0,25.0,6.0,-4.0,-2.0,-1.0,-2.0,1651071940670733.0,3
1687,2.0,-1.0,-2.0,-2.0,-7.0,-5.0,1.0,-1.0,1651071940670733.0,3
1688,1.0,-4.0,-17.0,-1.0,16.0,8.0,3.0,0.0,1651071940672728.0,3
1689,2.0,-5.0,4.0,-11.0,-6.0,-1.0,-2.0,-2.0,1651071940672728.0,3
1690,2.0,0.0,9.0,8.0,6.0,6.0,0.0,0.0,1651071940685806.0,3
1691,-3.0,0.0,2.0,6.0,-1.0,-3.0,-2.0,-1.0,1651071940685806.0,3
1692,-2.0,0.0,-10.0,-8.0,-7.0,-3.0,-1.0,0.0,1651071940692795.0,3
1693,-2.0,-3.0,-11.0,-9.0,-2.0,-3.0,-1.0,0.0,1651071940692795.0,3
1694,5.0,9.0,4.0,-12.0,-3.0,0.0,1.0,0.0,1651071940708881.0,3
1695,-2.0,-3.0,3.0,12.0,1.0,2.0,-1.0,-1.0,1651071940708881.0,3
1696,0.0,3.0,1.0,5.0,-1.0,-1.0,-1.0,2.0,1651071940709873.0,3
1697,-3.0,-2.0,-3.0,-6.0,-1.0,0.0,-1.0,-2.0,1651071940709873.0,3
1698,-3.0,-1.0,-5.0,-9.0,-2.0,-4.0,-2.0,-1.0,1651071940731517.0,3
1699,2.0,3.0,-2.0,-12.0,1.0,0.0,2.0,-1.0,1651071940731517.0,3
1700,2.0,-5.0,-12.0,2.0,-6.0,-2.0,1.0,0.0,1651071940732645.0,3
1701,-2.0,2.0,8.0,13.0,6.0,2.0,-2.0,0.0,1651071940732645.0,3
1702,0.0,1.0,4.0,5.0,2.0,-1.0,0.0,1.0,1651071940745441.0,3
1703,-1.0,-1.0,-8.0,-5.0,-6.0,-3.0,-2.0,0.0,1651071940745441.0,3
1704,-2.0,-4.0,-4.0,-1.0,11.0,4.0,2.0,0.0,1651071940752424.0,3
1705,-2.0,-3.0,-3.0,-9.0,-8.0,-2.0,0.0,0.0,1651071940752424.0,3
1706,0.0,2.0,1.0,0.0,6.0,5.0,1.0,-1.0,1651071940768893.0,3
1707,-1.0,-2.0,-3.0,0.0,3.0,1.0,0.0,2.0,1651071940768893.0,3
1708,-2.0,-2.0,1.0,8.0,-27.0,-8.0,-2.0,-3.0,1651071940769823.0,3
1709,0.0,-2.0,-8.0,-13.0,11.0,-1.0,-1.0,0.0,1651071940769823.0,3
1710,-1.0,-2.0,6.0,13.0,5.0,3.0,-1.0,-3.0,1651071940790833.0,3
1711,-2.0,2.0,5.0,-11.0,-5.0,-2.0,0.0,1.0,1651071940790833.0,3
1712,0.0,0.0,-2.0,2.0,1.0,1.0,0.0,0.0,1651071940792761.0,3
1713,-1.0,1.0,-3.0,3.0,-12.0,-7.0,-2.0,-2.0,1651071940792761.0,3
1714,-1.0,-2.0,-1.0,-13.0,4.0,6.0,0.0,-2.0,1651071940805861.0,3
1715,1.0,0.0,-2.0,-3.0,6.0,1.0,-1.0,0.0,1651071940805861.0,3
1716,-3.0,-3.0,5.0,20.0,-12.0,-8.0,-1.0,-1.0,1651071940812796.0,3
1717,-3.0,-4.0,0.0,3.0,0.0,-1.0,-1.0,-1.0,1651071940812796.0,3
1718,3.0,5.0,6.0,1.0,7.0,-4.0,0.0,2.0,1651071940828827.0,3
1719,0.0,-2.0,-6.0,-2.0,-2.0,-1.0,-2.0,-2.0,1651071940828827.0,3
1720,1.0,-2.0,-2.0,-4.0,6.0,3.0,3.0,2.0,1651071940829758.0,3
1721,1.0,1.0,-2.0,1.0,-5.0,1.0,1.0,1.0,1651071940829758.0,3
1722,-1.0,2.0,1.0,1.0,-9.0,-4.0,-1.0,-2.0,1651071940850883.0,3
1723,0.0,-2.0,5.0,-4.0,-9.0,0.0,2.0,-1.0,1651071940850883.0,3
1724,-1.0,-3.0,-4.0,-3.0,-5.0,-7.0,-5.0,-2.0,1651071940852851.0,3
1725,0.0,6.0,14.0,1.0,10.0,4.0,0.0,-1.0,1651071940852851.0,3
1726,-2.0,-10.0,-24.0,3.0,-3.0,-9.0,0.0,-2.0,1651071940864902.0,3
1727,-1.0,0.0,-9.0,1.0,2.0,6.0,2.0,-1.0,1651071940864902.0,3
1728,-2.0,2.0,11.0,2.0,14.0,7.0,0.0,-1.0,1651071940871885.0,3
1729,2.0,2.0,22.0,-3.0,1.0,6.0,3.0,2.0,1651071940871885.0,3
1730,0.0,-1.0,-18.0,-6.0,-14.0,-2.0,-2.0,1.0,1651071940888938.0,3
1731,-5.0,-2.0,-10.0,-2.0,-14.0,-15.0,-4.0,-4.0,1651071940888938.0,3
1732,0.0,-4.0,26.0,2.0,24.0,14.0,2.0,2.0,1651071940889939.0,3
1733,2.0,-2.0,-11.0,4.0,9.0,0.0,1.0,3.0,1651071940889939.0,3
1734,1.0,0.0,15.0,-4.0,-15.0,-7.0,-3.0,-2.0,1651071940911177.0,3
1735,3.0,2.0,-36.0,-3.0,-1.0,-3.0,0.0,1.0,1651071940911177.0,3
1736,-5.0,-3.0,12.0,0.0,-3.0,-4.0,-1.0,-3.0,1651071940913162.0,3
1737,-3.0,-4.0,2.0,1.0,-5.0,-2.0,-3.0,-4.0,1651071940913162.0,3
1738,-1.0,-1.0,-3.0,1.0,3.0,1.0,1.0,1.0,1651071940925198.0,3
1739,-2.0,0.0,15.0,1.0,2.0,2.0,0.0,-1.0,1651071940925198.0,3
1740,3.0,7.0,-10.0,8.0,-2.0,0.0,0.0,-1.0,1651071940934107.0,3
1741,2.0,1.0,-20.0,-4.0,-3.0,2.0,0.0,-1.0,1651071940934107.0,3
1742,-3.0,-6.0,6.0,-7.0,-3.0,-3.0,0.0,-2.0,1651071940948720.0,3
1743,-2.0,-2.0,-4.0,-2.0,5.0,-1.0,-1.0,0.0,1651071940948720.0,3
1744,-1.0,1.0,-16.0,-11.0,-8.0,-3.0,0.0,0.0,1651071940950657.0,3
1745,-1.0,1.0,4.0,10.0,-11.0,-4.0,0.0,-1.0,1651071940950657.0,3
1746,-2.0,3.0,-2.0,3.0,17.0,4.0,0.0,0.0,1651071940971616.0,3
1747,1.0,4.0,6.0,-7.0,-21.0,-3.0,-2.0,0.0,1651071940971616.0,3
1748,0.0,-6.0,-5.0,-2.0,8.0,-1.0,-1.0,-1.0,1651071940972621.0,3
1749,-3.0,-4.0,-17.0,-6.0,-12.0,-5.0,-3.0,-2.0,1651071940972621.0,3
1750,-1.0,5.0,40.0,8.0,21.0,6.0,-1.0,1.0,1651071940985168.0,3
1751,0.0,3.0,14.0,2.0,-1.0,4.0,1.0,1.0,1651071940985168.0,3
1752,3.0,9.0,24.0,5.0,-11.0,-3.0,-1.0,1.0,1651071940993449.0,3
1753,-6.0,-17.0,-56.0,-15.0,-2.0,-5.0,-1.0,-2.0,1651071940993449.0,3
1754,2.0,10.0,41.0,3.0,-3.0,3.0,4.0,2.0,1651071941008357.0,3
1755,-3.0,-20.0,-13.0,6.0,12.0,1.0,1.0,-2.0,1651071941008357.0,3
1756,4.0,8.0,-37.0,-7.0,2.0,2.0,2.0,1.0,1651071941010371.0,3
1757,-3.0,3.0,26.0,1.0,4.0,-2.0,-2.0,-2.0,1651071941010371.0,3
1758,4.0,10.0,11.0,1.0,-9.0,-3.0,0.0,0.0,1651071941031412.0,3
1759,-3.0,-9.0,12.0,4.0,12.0,2.0,-1.0,0.0,1651071941031412.0,3
1760,-3.0,-13.0,-44.0,-19.0,-21.0,-9.0,-3.0,-2.0,1651071941032343.0,3
1761,4.0,0.0,-2.0,6.0,18.0,11.0,4.0,4.0,1651071941032343.0,3
1762,-3.0,-3.0,-15.0,2.0,-7.0,-4.0,-2.0,-1.0,1651071941044771.0,3
1763,0.0,11.0,15.0,-7.0,-5.0,0.0,-2.0,0.0,1651071941044771.0,3
1764,-1.0,0.0,23.0,6.0,2.0,-1.0,-2.0,-1.0,1651071941053731.0,3
1765,-2.0,3.0,4.0,-7.0,-5.0,-2.0,0.0,-1.0,1651071941053731.0,3
1766,-2.0,1.0,4.0,-3.0,-1.0,0.0,-1.0,0.0,1651071941068508.0,3
1767,-1.0,-7.0,-28.0,-1.0,3.0,-1.0,-1.0,0.0,1651071941068508.0,3
1768,-6.0,-8.0,14.0,2.0,-4.0,-5.0,-3.0,-3.0,1651071941070434.0,3
1769,1.0,5.0,-1.0,4.0,6.0,1.0,-2.0,-1.0,1651071941070434.0,3
1770,5.0,-4.0,-12.0,-3.0,0.0,0.0,2.0,3.0,1651071941091444.0,3
1771,0.0,7.0,27.0,0.0,0.0,0.0,-2.0,-1.0,1651071941091444.0,3
1772,-2.0,-3.0,-23.0,-3.0,-12.0,-6.0,0.0,-1.0,1651071941092375.0,3
1773,-3.0,-9.0,8.0,-3.0,6.0,2.0,-1.0,0.0,1651071941092375.0,3
1774,-2.0,2.0,-26.0,-5.0,-7.0,-4.0,-3.0,-3.0,1651071941104410.0,3
1775,1.0,2.0,-6.0,0.0,4.0,2.0,-1.0,0.0,1651071941104410.0,3
1776,2.0,1.0,11.0,-1.0,-2.0,0.0,-1.0,-1.0,1651071941113435.0,3
1777,2.0,7.0,5.0,0.0,1.0,-2.0,-1.0,0.0,1651071941113435.0,3
1778,0.0,0.0,8.0,4.0,-3.0,-1.0,0.0,-1.0,1651071941128629.0,3
1779,0.0,-3.0,3.0,-5.0,-17.0,-4.0,0.0,0.0,1651071941128629.0,3
1780,-3.0,-1.0,7.0,1.0,23.0,3.0,-3.0,-1.0,1651071941130587.0,3
1781,2.0,4.0,-10.0,-4.0,-12.0,-3.0,0.0,2.0,1651071941130587.0,3
1782,-2.0,-4.0,-17.0,-2.0,2.0,0.0,-2.0,-1.0,1651071941151428.0,3
1783,2.0,2.0,14.0,4.0,1.0,-1.0,-1.0,0.0,1651071941151428.0,3
1784,-4.0,-3.0,-5.0,0.0,-1.0,-1.0,0.0,0.0,1651071941152424.0,3
1785,-1.0,-18.0,-10.0,4.0,-2.0,-5.0,-1.0,-2.0,1651071941152424.0,3
1786,2.0,-1.0,-24.0,-3.0,7.0,7.0,0.0,-1.0,1651071941164541.0,3
1787,-2.0,-5.0,-52.0,-9.0,-4.0,-6.0,0.0,-1.0,1651071941164541.0,3
1788,0.0,1.0,8.0,6.0,7.0,7.0,1.0,2.0,1651071941173460.0,3
1789,-2.0,9.0,12.0,-12.0,-6.0,-3.0,-1.0,-3.0,1651071941173460.0,3
1790,-1.0,-8.0,-18.0,2.0,-1.0,-1.0,0.0,1.0,1651071941188489.0,3
1791,-1.0,-2.0,-7.0,-10.0,0.0,-1.0,0.0,0.0,1651071941188489.0,3
1792,0.0,6.0,-1.0,3.0,-3.0,0.0,0.0,-1.0,1651071941190444.0,3
1793,-3.0,-2.0,7.0,9.0,1.0,-1.0,-2.0,-4.0,1651071941190444.0,3
1794,0.0,1.0,14.0,-1.0,-9.0,-3.0,-1.0,-1.0,1651071941211516.0,3
1795,-1.0,0.0,17.0,3.0,9.0,1.0,0.0,-1.0,1651071941211516.0,3
1796,1.0,2.0,7.0,-6.0,-4.0,-2.0,1.0,0.0,1651071941212515.0,3
1797,3.0,6.0,-10.0,1.0,-1.0,0.0,-1.0,2.0,1651071941212515.0,3
1798,-2.0,-8.0,-4.0,1.0,-4.0,-3.0,0.0,-2.0,1651071941224508.0,3
1799,1.0,5.0,8.0,4.0,8.0,3.0,1.0,1.0,1651071941224508.0,3
1800,0.0,-3.0,-3.0,-1.0,-2.0,-1.0,-2.0,-1.0,1651071941233814.0,3
1801,-2.0,3.0,18.0,0.0,-6.0,-2.0,-2.0,-1.0,1651071941233814.0,3
1802,-4.0,-3.0,-16.0,-10.0,-15.0,-3.0,-1.0,-1.0,1651071941249122.0,3
1803,0.0,-9.0,2.0,3.0,20.0,2.0,0.0,2.0,1651071941249122.0,3
1804,2.0,8.0,5.0,-1.0,-8.0,-3.0,0.0,2.0,1651071941250101.0,3
1805,-3.0,-19.0,-19.0,-3.0,2.0,1.0,-1.0,0.0,1651071941250101.0,3
1806,-5.0,3.0,11.0,1.0,2.0,-1.0,-1.0,-1.0,1651071941271428.0,3
1807,1.0,2.0,2.0,-2.0,-9.0,0.0,1.0,0.0,1651071941271428.0,3
1808,1.0,0.0,8.0,5.0,-4.0,0.0,-1.0,-1.0,1651071941272405.0,3
1809,-1.0,-2.0,-9.0,-6.0,-3.0,0.0,-1.0,-2.0,1651071941272405.0,3
1810,-2.0,-3.0,12.0,-7.0,6.0,0.0,-1.0,-1.0,1651071941284398.0,3
1811,0.0,6.0,10.0,15.0,3.0,5.0,-1.0,-1.0,1651071941284398.0,3
1812,2.0,-14.0,-66.0,-11.0,-1.0,-4.0,0.0,1.0,1651071941294423.0,3
1813,2.0,6.0,2.0,0.0,2.0,1.0,1.0,3.0,1651071941294423.0,3
1814,-1.0,-3.0,7.0,3.0,-2.0,-1.0,-2.0,0.0,1651071941307499.0,3
1815,-2.0,-2.0,2.0,-5.0,-4.0,0.0,-3.0,-1.0,1651071941307499.0,3
1816,-2.0,3.0,14.0,-2.0,-6.0,-1.0,-2.0,-3.0,1651071941316486.0,3
1817,-3.0,1.0,-7.0,1.0,0.0,-1.0,-1.0,-1.0,1651071941316486.0,3
1818,-2.0,-17.0,-37.0,-10.0,3.0,4.0,1.0,1.0,1651071941330683.0,3
1819,1.0,7.0,28.0,6.0,-10.0,-4.0,0.0,-1.0,1651071941330683.0,3
1820,-2.0,-9.0,-27.0,-4.0,4.0,2.0,1.0,-1.0,1651071941332683.0,3
1821,2.0,1.0,8.0,-3.0,-3.0,-3.0,-3.0,0.0,1651071941332683.0,3
1822,0.0,5.0,12.0,4.0,1.0,-1.0,0.0,-1.0,1651071941353784.0,3
1823,0.0,-2.0,-4.0,1.0,-3.0,1.0,1.0,0.0,1651071941353784.0,3
1824,-1.0,-2.0,11.0,-2.0,-5.0,-1.0,-2.0,0.0,1651071941354707.0,3
1825,-1.0,7.0,19.0,1.0,-3.0,-1.0,0.0,-1.0,1651071941354707.0,3
1826,-2.0,-3.0,-9.0,5.0,-2.0,-3.0,-1.0,0.0,1651071941368739.0,3
1827,-2.0,1.0,-31.0,-8.0,27.0,11.0,2.0,0.0,1651071941368739.0,3
1828,0.0,1.0,-5.0,6.0,1.0,1.0,1.0,0.0,1651071941370677.0,3
1829,4.0,5.0,0.0,12.0,7.0,3.0,2.0,1.0,1651071941370677.0,3
1830,-1.0,-1.0,9.0,2.0,-14.0,-4.0,-5.0,-4.0,1651071941391620.0,3
1831,-1.0,-3.0,-3.0,-2.0,-6.0,-4.0,-2.0,-1.0,1651071941391620.0,3
1832,0.0,2.0,13.0,-3.0,5.0,2.0,0.0,1.0,1651071941392620.0,3
1833,-1.0,-2.0,2.0,-3.0,-2.0,-1.0,-1.0,-2.0,1651071941392620.0,3
1834,1.0,1.0,-4.0,1.0,3.0,0.0,0.0,1.0,1651071941413779.0,3
1835,-1.0,2.0,6.0,-1.0,-3.0,-3.0,-2.0,-1.0,1651071941413779.0,3
1836,0.0,2.0,3.0,1.0,3.0,2.0,-1.0,0.0,1651071941415483.0,3
1837,0.0,-2.0,16.0,1.0,-9.0,-5.0,-1.0,-1.0,1651071941415483.0,3
1838,0.0,1.0,-29.0,-2.0,3.0,0.0,0.0,-1.0,1651071941428542.0,3
1839,-1.0,0.0,-1.0,-1.0,0.0,-3.0,-1.0,0.0,1651071941428542.0,3
1840,0.0,-2.0,-1.0,3.0,5.0,1.0,2.0,0.0,1651071941430521.0,3
1841,-3.0,-2.0,13.0,-3.0,-4.0,-2.0,-2.0,0.0,1651071941430521.0,3
1842,-2.0,-10.0,-19.0,1.0,6.0,2.0,-2.0,1.0,1651071941451468.0,3
1843,0.0,1.0,7.0,-2.0,-15.0,-4.0,-1.0,-1.0,1651071941451468.0,3
1844,1.0,5.0,4.0,5.0,4.0,0.0,0.0,0.0,1651071941452462.0,3
1845,-2.0,-4.0,-11.0,-7.0,-9.0,-2.0,-1.0,0.0,1651071941452462.0,3
1846,0.0,0.0,4.0,-1.0,9.0,2.0,0.0,0.0,1651071941473571.0,3
1847,-2.0,-4.0,-7.0,0.0,-1.0,-4.0,-1.0,0.0,1651071941473571.0,3
1848,1.0,7.0,19.0,0.0,4.0,2.0,1.0,0.0,1651071941475499.0,3
1849,-4.0,-15.0,-23.0,-1.0,1.0,0.0,-2.0,-2.0,1651071941475499.0,3
1850,2.0,5.0,11.0,0.0,-2.0,0.0,1.0,0.0,1651071941488472.0,3
1851,-2.0,-5.0,-1.0,-4.0,-8.0,-4.0,-2.0,-4.0,1651071941488472.0,3
1852,-3.0,1.0,-1.0,-1.0,-1.0,-1.0,-2.0,-2.0,1651071941495206.0,3
1853,0.0,5.0,10.0,7.0,0.0,1.0,1.0,0.0,1651071941495206.0,3
1854,0.0,6.0,2.0,-4.0,2.0,-3.0,-2.0,0.0,1651071941511402.0,3
1855,-1.0,-4.0,2.0,0.0,2.0,0.0,1.0,0.0,1651071941511402.0,3
1856,-2.0,-1.0,6.0,0.0,-5.0,0.0,1.0,-1.0,1651071941512409.0,3
1857,-1.0,2.0,-2.0,-1.0,2.0,1.0,-2.0,0.0,1651071941512409.0,3
1858,-1.0,-2.0,7.0,3.0,-3.0,-1.0,-1.0,0.0,1651071941533558.0,3
1859,2.0,6.0,5.0,0.0,1.0,2.0,-1.0,-1.0,1651071941533558.0,3
1860,-2.0,-6.0,-5.0,-4.0,-5.0,-3.0,-2.0,0.0,1651071941535553.0,3
1861,0.0,0.0,-4.0,-1.0,-1.0,-5.0,-3.0,-2.0,1651071941535553.0,3
1862,3.0,10.0,28.0,1.0,1.0,4.0,3.0,0.0,1651071941547587.0,3
1863,-3.0,-9.0,-12.0,1.0,5.0,-1.0,-1.0,-1.0,1651071941547587.0,3
1864,1.0,-3.0,5.0,-1.0,-3.0,-1.0,0.0,-1.0,1651071941554569.0,3
1865,1.0,2.0,-11.0,-4.0,-1.0,0.0,1.0,1.0,1651071941554569.0,3
1866,-2.0,4.0,9.0,2.0,-2.0,-2.0,-2.0,-3.0,1651071941571620.0,3
1867,-2.0,1.0,3.0,-3.0,-11.0,-1.0,-2.0,0.0,1651071941571620.0,3
1868,0.0,0.0,-6.0,-1.0,9.0,3.0,0.0,0.0,1651071941572626.0,3
1869,-1.0,0.0,38.0,6.0,-6.0,-2.0,0.0,-2.0,1651071941572626.0,3
1870,0.0,-3.0,-18.0,-1.0,1.0,1.0,0.0,1.0,1651071941593965.0,3
1871,0.0,-5.0,-10.0,-2.0,7.0,-1.0,1.0,1.0,1651071941593965.0,3
1872,-2.0,-4.0,-9.0,-4.0,-4.0,-1.0,-1.0,-1.0,1651071941594964.0,3
1873,4.0,4.0,4.0,-3.0,-1.0,1.0,1.0,0.0,1651071941594964.0,3
1874,-2.0,-1.0,3.0,0.0,-7.0,-3.0,-2.0,0.0,1651071941607607.0,3
1875,0.0,2.0,7.0,-2.0,-7.0,-1.0,1.0,0.0,1651071941607607.0,3
1876,1.0,-1.0,2.0,2.0,6.0,-1.0,0.0,1.0,1651071941614631.0,3
1877,0.0,-2.0,-4.0,-2.0,1.0,1.0,1.0,1.0,1651071941614631.0,3
1878,0.0,-1.0,-3.0,1.0,0.0,0.0,-2.0,-1.0,1651071941631595.0,3
1879,1.0,4.0,5.0,0.0,-3.0,0.0,-2.0,-1.0,1651071941631595.0,3
1880,-2.0,0.0,-2.0,0.0,4.0,0.0,-2.0,1.0,1651071941632514.0,3
1881,-1.0,-2.0,-13.0,-2.0,-2.0,-3.0,0.0,-1.0,1651071941632514.0,3
1882,1.0,2.0,-10.0,-3.0,-2.0,-5.0,1.0,0.0,1651071941653525.0,3
1883,-4.0,-3.0,23.0,5.0,6.0,5.0,-1.0,0.0,1651071941653525.0,3
1884,0.0,-2.0,8.0,1.0,-4.0,-1.0,0.0,0.0,1651071941655476.0,3
1885,1.0,5.0,-11.0,-1.0,2.0,1.0,0.0,1.0,1651071941655476.0,3
1886,0.0,-5.0,-3.0,-4.0,-4.0,0.0,-1.0,-1.0,1651071941668428.0,3
1887,-1.0,3.0,-4.0,-3.0,-4.0,-1.0,-1.0,2.0,1651071941668428.0,3
1888,-2.0,-3.0,-1.0,-3.0,-4.0,-3.0,0.0,-1.0,1651071941674401.0,3
1889,-3.0,-2.0,2.0,-1.0,4.0,0.0,0.0,1.0,1651071941674401.0,3
1890,1.0,1.0,9.0,2.0,-2.0,-2.0,0.0,1.0,1651071941691594.0,3
1891,0.0,-1.0,-11.0,-2.0,-3.0,0.0,1.0,0.0,1651071941691594.0,3
1892,-2.0,2.0,40.0,4.0,-6.0,-3.0,0.0,-2.0,1651071941692595.0,3
1893,-2.0,-3.0,-36.0,-3.0,10.0,2.0,0.0,-1.0,1651071941692595.0,3
1894,-2.0,1.0,2.0,1.0,9.0,4.0,0.0,0.0,1651071941713709.0,3
1895,1.0,-1.0,-5.0,2.0,1.0,0.0,0.0,1.0,1651071941713709.0,3
1896,0.0,1.0,-5.0,-3.0,-5.0,-2.0,0.0,0.0,1651071941715652.0,3
1897,1.0,0.0,7.0,0.0,-8.0,-2.0,-1.0,-2.0,1651071941715652.0,3
1898,-3.0,-3.0,3.0,0.0,-1.0,0.0,-2.0,-2.0,1651071941727671.0,3
1899,0.0,2.0,-4.0,-1.0,2.0,0.0,-1.0,-2.0,1651071941727671.0,3
1900,-1.0,-1.0,-9.0,-2.0,-7.0,-1.0,0.0,0.0,1651071941736582.0,3
1901,-1.0,2.0,1.0,0.0,4.0,3.0,0.0,0.0,1651071941736582.0,3
1902,-2.0,-7.0,9.0,0.0,-2.0,0.0,0.0,-1.0,1651071941751671.0,3
1903,3.0,6.0,0.0,1.0,7.0,0.0,1.0,0.0,1651071941751671.0,3
1904,-2.0,-14.0,-15.0,-3.0,-1.0,-3.0,-2.0,-1.0,1651071941752675.0,3
