,EMG_s0,EMG_s1,EMG_s2,EMG_s3,EMG_s4,EMG_s5,EMG_s6,EMG_s7,timestamp,signal
0,1.0,-1.0,1.0,2.0,4.0,-1.0,0.0,-3.0,1651071984688331.0,0
1,0.0,-1.0,0.0,0.0,1.0,4.0,1.0,0.0,1651071984688331.0,0
2,1.0,0.0,2.0,0.0,-4.0,-2.0,-1.0,-1.0,1651071984703270.0,0
3,-1.0,1.0,0.0,-1.0,-2.0,-3.0,-2.0,0.0,1651071984703270.0,0
4,0.0,-1.0,-3.0,-2.0,-6.0,-1.0,-1.0,-1.0,1651071984703270.0,0
5,0.0,0.0,1.0,-1.0,-4.0,-3.0,-2.0,-1.0,1651071984703270.0,0
6,-1.0,-3.0,-2.0,-1.0,6.0,3.0,2.0,-2.0,1651071984724898.0,0
7,0.0,2.0,5.0,0.0,2.0,0.0,0.0,0.0,1651071984724898.0,0
8,-1.0,-2.0,-10.0,-3.0,-5.0,-1.0,0.0,-2.0,1651071984725849.0,0
9,-1.0,1.0,-2.0,0.0,4.0,1.0,-1.0,-1.0,1651071984725849.0,0
10,-1.0,-1.0,-1.0,1.0,5.0,1.0,0.0,2.0,1651071984740055.0,0
11,-1.0,-1.0,3.0,-1.0,-2.0,-2.0,-1.0,-2.0,1651071984740055.0,0
12,0.0,2.0,2.0,-2.0,-3.0,-2.0,-1.0,0.0,1651071984747958.0,0
13,0.0,0.0,-1.0,-2.0,-5.0,-1.0,-1.0,1.0,1651071984747958.0,0
14,0.0,-2.0,0.0,1.0,1.0,-2.0,-1.0,-1.0,1651071984763343.0,0
15,0.0,1.0,-2.0,-1.0,-1.0,1.0,0.0,0.0,1651071984763343.0,0
16,-1.0,-1.0,2.0,1.0,-4.0,-3.0,-1.0,-2.0,1651071984763343.0,0
17,0.0,-1.0,-1.0,-2.0,-6.0,-2.0,0.0,0.0,1651071984763343.0,0
18,0.0,-1.0,-1.0,-2.0,0.0,-2.0,-2.0,-1.0,1651071984785351.0,0
19,1.0,-1.0,2.0,2.0,7.0,2.0,0.0,0.0,1651071984785351.0,0
20,1.0,0.0,1.0,-1.0,0.0,1.0,1.0,0.0,1651071984786351.0,0
21,-1.0,-2.0,-3.0,-1.0,4.0,-2.0,-1.0,0.0,1651071984786351.0,0
22,0.0,0.0,0.0,2.0,2.0,3.0,-1.0,-1.0,1651071984808351.0,0
23,0.0,0.0,-2.0,-1.0,-1.0,-1.0,1.0,0.0,1651071984808351.0,0
24,-1.0,1.0,0.0,0.0,1.0,0.0,1.0,-1.0,1651071984809289.0,0
25,-1.0,0.0,1.0,-1.0,-4.0,-1.0,0.0,0.0,1651071984809289.0,0
26,-1.0,0.0,-1.0,-2.0,-3.0,-2.0,-2.0,-1.0,1651071984823356.0,0
27,-1.0,-3.0,-3.0,-1.0,0.0,-1.0,-2.0,-2.0,1651071984823356.0,0
28,-1.0,-2.0,-1.0,2.0,6.0,3.0,0.0,-1.0,1651071984823356.0,0
29,1.0,-1.0,-2.0,-1.0,-3.0,-1.0,-2.0,-1.0,1651071984823356.0,0
30,0.0,-1.0,-3.0,1.0,3.0,0.0,0.0,1.0,1651071984845521.0,0
31,1.0,2.0,6.0,0.0,-3.0,-2.0,0.0,-1.0,1651071984845521.0,0
32,-2.0,-5.0,-5.0,-1.0,0.0,0.0,0.0,0.0,1651071984846407.0,0
33,0.0,0.0,-2.0,2.0,2.0,1.0,0.0,-1.0,1651071984846407.0,0
34,-1.0,1.0,3.0,-2.0,-5.0,-1.0,0.0,-1.0,1651071984868493.0,0
35,-1.0,-1.0,-4.0,-1.0,-4.0,-2.0,-2.0,0.0,1651071984868493.0,0
36,-1.0,-1.0,1.0,0.0,0.0,-1.0,-1.0,1.0,1651071984869424.0,0
37,-2.0,-1.0,-1.0,0.0,4.0,0.0,0.0,0.0,1651071984869424.0,0
38,1.0,0.0,0.0,0.0,0.0,-1.0,-2.0,-1.0,1651071984882390.0,0
39,1.0,-3.0,-1.0,0.0,-8.0,-3.0,-1.0,0.0,1651071984882390.0,0
40,-1.0,1.0,3.0,-2.0,-5.0,-4.0,-1.0,0.0,1651071984883386.0,0
41,1.0,0.0,-1.0,1.0,11.0,3.0,1.0,-1.0,1651071984883386.0,0
42,0.0,1.0,0.0,-3.0,-4.0,-2.0,-1.0,0.0,1651071984905518.0,0
43,-1.0,-2.0,-3.0,1.0,2.0,0.0,0.0,-1.0,1651071984905518.0,0
44,-2.0,0.0,-1.0,0.0,-5.0,-4.0,0.0,0.0,1651071984906448.0,0
45,-1.0,-1.0,-1.0,-2.0,-4.0,-2.0,1.0,-1.0,1651071984906448.0,0
46,0.0,-2.0,0.0,-2.0,3.0,2.0,1.0,1.0,1651071984945257.0,0
47,0.0,-1.0,-2.0,-2.0,0.0,0.0,1.0,-1.0,1651071984945257.0,0
48,0.0,0.0,0.0,1.0,4.0,1.0,0.0,0.0,1651071984945257.0,0
49,0.0,1.0,4.0,0.0,-2.0,-2.0,0.0,-2.0,1651071984945257.0,0
50,-1.0,-1.0,-2.0,2.0,7.0,5.0,2.0,-1.0,1651071984947234.0,0
51,-3.0,-2.0,-3.0,0.0,-1.0,-2.0,2.0,1.0,1651071984947234.0,0
52,1.0,3.0,7.0,1.0,1.0,-1.0,0.0,0.0,1651071984950225.0,0
53,-1.0,-6.0,-13.0,-3.0,-2.0,-3.0,-1.0,-1.0,1651071984950225.0,0
54,-1.0,-1.0,-1.0,1.0,-9.0,-1.0,-1.0,-2.0,1651071984965308.0,0
55,0.0,2.0,2.0,1.0,11.0,4.0,-1.0,0.0,1651071984965308.0,0
56,0.0,0.0,0.0,0.0,0.0,-1.0,-2.0,0.0,1651071984966302.0,0
57,2.0,-1.0,0.0,-1.0,-5.0,-1.0,-3.0,-1.0,1651071984966302.0,0
58,0.0,-2.0,-1.0,0.0,-1.0,0.0,0.0,-1.0,1651071984988310.0,0
59,-1.0,-2.0,-2.0,-3.0,-6.0,-2.0,-1.0,-2.0,1651071984988310.0,0
60,-1.0,-1.0,1.0,0.0,1.0,0.0,1.0,-1.0,1651071984989240.0,0
61,-1.0,1.0,0.0,0.0,-1.0,-3.0,-1.0,0.0,1651071984989240.0,0
62,-2.0,-2.0,-2.0,0.0,6.0,2.0,0.0,0.0,1651071985002939.0,0
63,-1.0,-1.0,0.0,-3.0,-3.0,-1.0,-2.0,-1.0,1651071985002939.0,0
64,-2.0,-3.0,-2.0,-1.0,2.0,0.0,-1.0,-2.0,1651071985003844.0,0
65,0.0,-1.0,3.0,-2.0,-6.0,-1.0,-1.0,1.0,1651071985003844.0,0
66,1.0,0.0,1.0,-1.0,-3.0,-2.0,-2.0,0.0,1651071985025833.0,0
67,1.0,-1.0,-1.0,1.0,-1.0,-1.0,-1.0,-1.0,1651071985025833.0,0
68,1.0,0.0,-1.0,-1.0,-5.0,-2.0,0.0,-2.0,1651071985025833.0,0
69,-1.0,-1.0,0.0,1.0,-1.0,1.0,-1.0,0.0,1651071985025833.0,0
70,-1.0,-1.0,0.0,0.0,-3.0,-2.0,0.0,-1.0,1651071985048976.0,0
71,-1.0,-1.0,0.0,-3.0,-4.0,0.0,-1.0,0.0,1651071985048976.0,0
72,-1.0,-1.0,-2.0,0.0,1.0,2.0,-3.0,-2.0,1651071985048976.0,0
73,-1.0,0.0,-1.0,1.0,2.0,0.0,-2.0,-1.0,1651071985048976.0,0
74,1.0,1.0,0.0,-1.0,3.0,-1.0,-1.0,-2.0,1651071985063138.0,0
75,0.0,-1.0,-2.0,-1.0,-5.0,-1.0,0.0,-1.0,1651071985063138.0,0
76,1.0,-1.0,-2.0,0.0,0.0,-1.0,3.0,-1.0,1651071985064072.0,0
77,-1.0,-3.0,0.0,-2.0,-1.0,0.0,0.0,0.0,1651071985064072.0,0
78,0.0,-1.0,2.0,-2.0,-4.0,-3.0,-4.0,-1.0,1651071985085734.0,0
79,-1.0,0.0,-1.0,-2.0,-3.0,-1.0,0.0,0.0,1651071985085734.0,0
80,-2.0,-2.0,-5.0,2.0,2.0,1.0,-1.0,1.0,1651071985085734.0,0
81,0.0,0.0,1.0,0.0,-1.0,-3.0,-1.0,-1.0,1651071985085734.0,0
82,-1.0,0.0,-1.0,-1.0,-1.0,0.0,-1.0,-1.0,1651071985108826.0,0
83,-1.0,1.0,2.0,0.0,0.0,1.0,-2.0,-1.0,1651071985108826.0,0
84,0.0,0.0,0.0,-2.0,-2.0,-2.0,-2.0,0.0,1651071985109776.0,0
85,-2.0,0.0,-1.0,-1.0,-2.0,-1.0,-2.0,0.0,1651071985109776.0,0
86,-3.0,-2.0,-1.0,-2.0,-5.0,-3.0,-1.0,-1.0,1651071985122775.0,0
87,-1.0,0.0,0.0,0.0,3.0,-1.0,0.0,1.0,1651071985122775.0,0
88,0.0,1.0,3.0,0.0,-8.0,-2.0,-1.0,0.0,1651071985130882.0,0
89,-2.0,-2.0,-9.0,-1.0,1.0,-1.0,0.0,0.0,1651071985130882.0,0
90,1.0,1.0,1.0,2.0,2.0,1.0,1.0,0.0,1651071985145653.0,0
91,0.0,-1.0,-2.0,1.0,2.0,-2.0,1.0,0.0,1651071985145653.0,0
92,1.0,2.0,-2.0,-2.0,-1.0,-2.0,-1.0,0.0,1651071985146582.0,0
93,1.0,0.0,2.0,-2.0,-4.0,0.0,0.0,0.0,1651071985146582.0,0
94,-3.0,-1.0,-1.0,-1.0,0.0,0.0,-1.0,0.0,1651071985168635.0,0
95,-1.0,-2.0,-4.0,0.0,-3.0,-1.0,-1.0,0.0,1651071985168635.0,0
96,0.0,0.0,0.0,0.0,3.0,-1.0,-1.0,0.0,1651071985169572.0,0
97,1.0,0.0,3.0,-1.0,-10.0,0.0,1.0,-1.0,1651071985169572.0,0
98,2.0,0.0,1.0,0.0,10.0,2.0,-1.0,0.0,1651071985182538.0,0
99,0.0,0.0,0.0,0.0,-2.0,0.0,-2.0,-3.0,1651071985182538.0,0
100,-3.0,-3.0,-2.0,0.0,1.0,0.0,0.0,0.0,1651071985183549.0,0
101,-2.0,1.0,-2.0,0.0,-2.0,0.0,-1.0,0.0,1651071985183549.0,0
102,-1.0,-1.0,-2.0,-2.0,1.0,-2.0,1.0,-2.0,1651071985205800.0,0
103,0.0,0.0,5.0,-1.0,-3.0,-1.0,0.0,0.0,1651071985205800.0,0
104,0.0,0.0,-1.0,-2.0,-2.0,-2.0,0.0,1.0,1651071985205800.0,0
105,-1.0,0.0,1.0,0.0,1.0,0.0,-1.0,-1.0,1651071985205800.0,0
106,0.0,0.0,3.0,0.0,-5.0,-3.0,-1.0,0.0,1651071985228928.0,0
107,-2.0,-1.0,-3.0,0.0,4.0,0.0,-1.0,0.0,1651071985228928.0,0
108,0.0,-1.0,-2.0,1.0,-2.0,0.0,-2.0,-1.0,1651071985228928.0,0
109,0.0,0.0,1.0,1.0,3.0,1.0,0.0,0.0,1651071985228928.0,0
110,0.0,0.0,0.0,-3.0,-4.0,0.0,-1.0,0.0,1651071985242890.0,0
111,-1.0,-1.0,-5.0,1.0,9.0,6.0,1.0,-1.0,1651071985242890.0,0
112,-1.0,-2.0,0.0,-2.0,-5.0,-1.0,1.0,0.0,1651071985243829.0,0
113,-2.0,2.0,2.0,1.0,5.0,-1.0,-1.0,-1.0,1651071985243829.0,0
114,-1.0,-1.0,-4.0,-1.0,-1.0,-2.0,0.0,0.0,1651071985265857.0,0
115,0.0,0.0,0.0,-1.0,1.0,-1.0,0.0,2.0,1651071985265857.0,0
116,0.0,1.0,2.0,-1.0,-1.0,-1.0,-1.0,-1.0,1651071985265857.0,0
117,1.0,0.0,-1.0,-2.0,-4.0,-1.0,-1.0,0.0,1651071985265857.0,0
118,0.0,-3.0,-2.0,0.0,2.0,-2.0,-1.0,-1.0,1651071985289024.0,0
119,-1.0,0.0,2.0,-2.0,1.0,-1.0,0.0,-2.0,1651071985289024.0,0
120,0.0,0.0,2.0,-2.0,-1.0,-2.0,-1.0,-1.0,1651071985289024.0,0
121,-1.0,-7.0,-6.0,-1.0,0.0,0.0,-1.0,2.0,1651071985289024.0,0
122,0.0,1.0,0.0,1.0,-4.0,-2.0,-2.0,0.0,1651071985311608.0,0
123,-1.0,0.0,-1.0,-1.0,-3.0,-1.0,-1.0,1.0,1651071985311608.0,0
124,-2.0,-1.0,-1.0,-2.0,-1.0,1.0,0.0,0.0,1651071985312600.0,0
125,0.0,1.0,2.0,-1.0,1.0,2.0,1.0,-2.0,1651071985312600.0,0
126,0.0,-1.0,1.0,-1.0,-2.0,2.0,1.0,1.0,1651071985333709.0,0
127,0.0,-2.0,-3.0,0.0,-1.0,0.0,0.0,-1.0,1651071985333709.0,0
128,0.0,-2.0,0.0,0.0,-1.0,-1.0,2.0,1.0,1651071985334754.0,0
129,0.0,0.0,-2.0,0.0,4.0,0.0,0.0,-3.0,1651071985334754.0,0
130,0.0,0.0,-2.0,-2.0,0.0,-1.0,0.0,-1.0,1651071985348778.0,0
131,1.0,0.0,-3.0,-1.0,-4.0,-3.0,-2.0,-1.0,1651071985348778.0,0
132,-1.0,-3.0,-1.0,1.0,1.0,-1.0,-1.0,-2.0,1651071985349739.0,0
133,0.0,-1.0,1.0,-1.0,-1.0,2.0,-1.0,-1.0,1651071985349739.0,0
134,-3.0,-1.0,-1.0,2.0,-1.0,1.0,-1.0,-1.0,1651071985371512.0,0
135,0.0,0.0,2.0,-2.0,-5.0,-2.0,-1.0,-3.0,1651071985371512.0,0
136,-1.0,-1.0,-3.0,-2.0,-1.0,-1.0,0.0,-1.0,1651071985372483.0,0
137,-1.0,0.0,0.0,1.0,6.0,1.0,1.0,-2.0,1651071985372483.0,0
138,-1.0,-2.0,0.0,0.0,-1.0,-1.0,-1.0,-1.0,1651071985393692.0,0
139,0.0,0.0,1.0,0.0,2.0,3.0,0.0,0.0,1651071985393692.0,0
140,0.0,1.0,-1.0,1.0,-2.0,-1.0,-1.0,0.0,1651071985395629.0,0
141,-2.0,0.0,0.0,0.0,1.0,0.0,-1.0,-2.0,1651071985395629.0,0
142,-2.0,-1.0,-1.0,-3.0,-2.0,-3.0,-2.0,-2.0,1651071985408654.0,0
143,-1.0,-3.0,-2.0,0.0,-2.0,-2.0,0.0,0.0,1651071985408654.0,0
144,-2.0,-1.0,-1.0,1.0,-2.0,0.0,-2.0,-1.0,1651071985410592.0,0
145,1.0,-1.0,1.0,-1.0,-4.0,-3.0,0.0,-1.0,1651071985410592.0,0
146,-1.0,0.0,-2.0,-2.0,-5.0,-3.0,0.0,-1.0,1651071985431431.0,0
147,-3.0,-2.0,-1.0,-1.0,11.0,2.0,2.0,0.0,1651071985431431.0,0
148,-1.0,0.0,-3.0,-2.0,-2.0,-1.0,0.0,1.0,1651071985432388.0,0
149,0.0,0.0,3.0,1.0,4.0,-1.0,0.0,0.0,1651071985432388.0,0
150,1.0,-1.0,-2.0,0.0,-2.0,1.0,2.0,1.0,1651071985453388.0,0
151,2.0,-1.0,0.0,0.0,-6.0,-1.0,-1.0,-2.0,1651071985453388.0,0
152,2.0,-1.0,-2.0,0.0,1.0,0.0,-1.0,0.0,1651071985455316.0,0
153,-1.0,1.0,-1.0,0.0,0.0,1.0,0.0,0.0,1651071985455316.0,0
154,-1.0,2.0,4.0,-2.0,-12.0,-2.0,-1.0,-2.0,1651071985468405.0,0
155,1.0,-1.0,-4.0,-1.0,6.0,1.0,-2.0,0.0,1651071985468405.0,0
156,-1.0,1.0,1.0,0.0,0.0,3.0,-2.0,-2.0,1651071985474456.0,0
157,-2.0,1.0,-1.0,-2.0,-4.0,-3.0,-2.0,-1.0,1651071985474456.0,0
158,-2.0,-3.0,-2.0,-2.0,-1.0,0.0,1.0,1.0,1651071985491607.0,0
159,0.0,-1.0,1.0,-3.0,-7.0,-4.0,0.0,-1.0,1651071985491607.0,0
160,0.0,-2.0,-1.0,0.0,0.0,-2.0,0.0,0.0,1651071985492625.0,0
161,0.0,1.0,3.0,0.0,5.0,2.0,1.0,-1.0,1651071985492625.0,0
162,-1.0,-3.0,-9.0,0.0,-2.0,0.0,1.0,1.0,1651071985513750.0,0
163,-2.0,0.0,0.0,0.0,-1.0,-1.0,0.0,-2.0,1651071985513750.0,0
164,1.0,-1.0,0.0,0.0,5.0,1.0,1.0,1.0,1651071985514774.0,0
165,0.0,-1.0,-2.0,-4.0,-7.0,-3.0,-1.0,0.0,1651071985514774.0,0
166,-2.0,-1.0,0.0,-1.0,0.0,-1.0,-2.0,-2.0,1651071985527742.0,0
167,0.0,0.0,0.0,0.0,0.0,0.0,0.0,-1.0,1651071985527742.0,0
168,-1.0,-1.0,-2.0,-2.0,-2.0,-1.0,-1.0,-1.0,1651071985534723.0,0
169,0.0,-2.0,1.0,2.0,-1.0,-2.0,-3.0,0.0,1651071985534723.0,0
170,-1.0,0.0,1.0,-2.0,-4.0,-2.0,-2.0,0.0,1651071985550661.0,0
171,-1.0,0.0,-5.0,-1.0,-1.0,-1.0,0.0,0.0,1651071985550661.0,0
172,0.0,2.0,1.0,0.0,3.0,1.0,-1.0,1.0,1651071985552649.0,0
173,0.0,-1.0,-2.0,-1.0,-4.0,1.0,1.0,0.0,1651071985552649.0,0
174,1.0,-1.0,0.0,-1.0,3.0,1.0,-1.0,-2.0,1651071985573727.0,0
175,0.0,-2.0,0.0,1.0,-5.0,-1.0,-1.0,0.0,1651071985573727.0,0
176,-2.0,-1.0,-2.0,-2.0,-1.0,-1.0,0.0,1.0,1651071985574697.0,0
177,-3.0,-1.0,-3.0,0.0,-8.0,-4.0,-1.0,0.0,1651071985574697.0,0
178,-2.0,1.0,-1.0,2.0,12.0,3.0,1.0,-2.0,1651071985587703.0,0
179,0.0,1.0,0.0,-1.0,-5.0,-3.0,-1.0,-1.0,1651071985587703.0,0
180,0.0,-3.0,1.0,0.0,-1.0,-3.0,-2.0,-2.0,1651071985594626.0,0
181,1.0,-2.0,0.0,-1.0,5.0,4.0,0.0,-1.0,1651071985594626.0,0
182,1.0,2.0,3.0,-1.0,-3.0,-2.0,0.0,-2.0,1651071985611171.0,0
183,0.0,0.0,0.0,0.0,4.0,2.0,0.0,-1.0,1651071985611171.0,0
184,-2.0,-5.0,-8.0,-1.0,-4.0,-3.0,1.0,-1.0,1651071985612615.0,0
185,-1.0,-2.0,-5.0,-2.0,-4.0,-3.0,-1.0,-2.0,1651071985612615.0,0
186,-1.0,1.0,2.0,0.0,2.0,0.0,0.0,1.0,1651071985633684.0,0
187,-1.0,-1.0,4.0,0.0,-5.0,-3.0,0.0,1.0,1651071985633684.0,0
188,0.0,3.0,-1.0,-1.0,1.0,-1.0,-1.0,0.0,1651071985634680.0,0
189,0.0,0.0,-1.0,0.0,2.0,-2.0,0.0,1.0,1651071985634680.0,0
190,-1.0,-2.0,-5.0,1.0,3.0,-1.0,-2.0,0.0,1651071985648357.0,0
191,-2.0,0.0,1.0,0.0,2.0,1.0,1.0,0.0,1651071985648357.0,0
192,1.0,0.0,0.0,-1.0,-2.0,0.0,-2.0,-1.0,1651071985654394.0,0
193,-1.0,-2.0,0.0,1.0,-4.0,-3.0,-2.0,1.0,1651071985654394.0,0
194,0.0,-2.0,0.0,-3.0,-8.0,-1.0,-1.0,-1.0,1651071985671471.0,0
195,-1.0,1.0,1.0,0.0,7.0,0.0,0.0,-1.0,1651071985671471.0,0
196,-1.0,0.0,-1.0,-1.0,1.0,2.0,-1.0,1.0,1651071985672480.0,0
197,0.0,-2.0,-2.0,0.0,1.0,1.0,-2.0,-1.0,1651071985672480.0,0
198,0.0,0.0,0.0,-2.0,-5.0,-2.0,-1.0,0.0,1651071985693980.0,0
199,0.0,-3.0,-3.0,-2.0,-5.0,-1.0,-1.0,0.0,1651071985693980.0,0
200,-1.0,0.0,0.0,-1.0,-2.0,-1.0,0.0,1.0,1651071985694980.0,0
201,0.0,1.0,-2.0,0.0,-1.0,1.0,-1.0,0.0,1651071985694980.0,0
202,0.0,0.0,-1.0,0.0,1.0,-2.0,0.0,1.0,1651071985708012.0,0
203,0.0,0.0,-3.0,0.0,6.0,3.0,1.0,-2.0,1651071985708012.0,0
204,-1.0,2.0,4.0,1.0,1.0,1.0,0.0,-1.0,1651071985715077.0,0
205,-2.0,0.0,1.0,0.0,3.0,1.0,1.0,0.0,1651071985715077.0,0
206,0.0,0.0,-2.0,0.0,-3.0,2.0,-2.0,-1.0,1651071985731468.0,0
207,0.0,0.0,1.0,-1.0,-6.0,-3.0,-2.0,0.0,1651071985731468.0,0
208,0.0,-3.0,-2.0,-3.0,-7.0,-4.0,-1.0,-1.0,1651071985732426.0,0
209,0.0,0.0,0.0,-3.0,4.0,-1.0,0.0,0.0,1651071985732426.0,0
210,-1.0,-1.0,2.0,1.0,2.0,0.0,-1.0,0.0,1651071985753431.0,0
211,-1.0,-1.0,-2.0,2.0,-3.0,-2.0,-1.0,0.0,1651071985753431.0,0
212,-1.0,0.0,2.0,-2.0,-2.0,1.0,0.0,0.0,1651071985755359.0,0
213,-1.0,0.0,0.0,-1.0,-3.0,-1.0,-1.0,-2.0,1651071985755359.0,0
214,0.0,-1.0,-3.0,1.0,-1.0,-1.0,0.0,1.0,1651071985768354.0,0
215,-1.0,-1.0,-2.0,0.0,3.0,-1.0,-1.0,-1.0,1651071985768354.0,0
216,-1.0,1.0,2.0,-1.0,-13.0,-4.0,-2.0,-1.0,1651071985774378.0,0
217,-1.0,-1.0,-2.0,0.0,8.0,-1.0,1.0,-1.0,1651071985774378.0,0
218,-1.0,1.0,1.0,1.0,5.0,1.0,2.0,-2.0,1651071985791444.0,0
219,0.0,0.0,-1.0,0.0,-2.0,-2.0,-2.0,1.0,1651071985791444.0,0
220,0.0,-2.0,-2.0,0.0,3.0,1.0,0.0,-1.0,1651071985792623.0,0
221,0.0,-5.0,-7.0,-6.0,-11.0,-3.0,-4.0,-1.0,1651071985792623.0,0
222,0.0,2.0,5.0,3.0,-2.0,-1.0,-2.0,0.0,1651071985813721.0,0
223,-1.0,0.0,-2.0,9.0,2.0,1.0,-1.0,0.0,1651071985813721.0,0
224,-4.0,-1.0,0.0,-17.0,-4.0,-2.0,0.0,1.0,1651071985814645.0,0
225,8.0,-1.0,-13.0,-16.0,-3.0,1.0,0.0,1.0,1651071985814645.0,0
226,-4.0,-2.0,2.0,17.0,5.0,1.0,-2.0,-3.0,1651071985827680.0,0
227,27.0,0.0,12.0,6.0,0.0,0.0,1.0,6.0,1651071985827680.0,0
228,-53.0,11.0,1.0,4.0,6.0,1.0,-3.0,-13.0,1651071985836631.0,1
229,-25.0,2.0,2.0,15.0,0.0,-3.0,-2.0,-6.0,1651071985836631.0,1
230,39.0,4.0,-6.0,-41.0,-10.0,-1.0,1.0,4.0,1651071985850837.0,1
231,15.0,-8.0,2.0,31.0,11.0,1.0,-3.0,-1.0,1651071985850837.0,1
232,-5.0,-7.0,20.0,48.0,3.0,4.0,7.0,19.0,1651071985852765.0,1
233,-95.0,-8.0,1.0,-71.0,-3.0,-2.0,-5.0,-25.0,1651071985852765.0,1
234,36.0,-21.0,-53.0,15.0,-4.0,-7.0,-3.0,4.0,1651071985872491.0,1
235,85.0,9.0,47.0,20.0,16.0,7.0,3.0,-2.0,1651071985872491.0,1
236,-65.0,-12.0,-55.0,-34.0,-7.0,-4.0,-1.0,1.0,1651071985881519.0,1
237,11.0,1.0,17.0,26.0,1.0,-1.0,-3.0,-1.0,1651071985881519.0,1
238,8.0,-1.0,-5.0,-23.0,-15.0,-7.0,-2.0,-16.0,1651071985887569.0,1
239,-84.0,7.0,-5.0,-9.0,1.0,0.0,-1.0,-2.0,1651071985887569.0,1
240,62.0,1.0,44.0,17.0,18.0,6.0,-1.0,-13.0,1651071985896620.0,1
241,1.0,-19.0,-25.0,9.0,-10.0,-2.0,5.0,31.0,1651071985896620.0,1
242,-125.0,-26.0,-10.0,-48.0,-4.0,2.0,2.0,1.0,1651071985911425.0,1
243,40.0,11.0,-7.0,-1.0,10.0,1.0,-1.0,-10.0,1651071985911425.0,1
244,3.0,13.0,12.0,-13.0,-3.0,-3.0,-3.0,2.0,1651071985912439.0,1
245,-6.0,13.0,-12.0,-5.0,-30.0,-11.0,-5.0,-8.0,1651071985912439.0,1
246,20.0,31.0,54.0,109.0,45.0,17.0,4.0,10.0,1651071985933610.0,1
247,-32.0,-22.0,-28.0,-111.0,-52.0,-18.0,-6.0,-6.0,1651071985933610.0,1
248,-26.0,-25.0,-42.0,0.0,-17.0,-7.0,-3.0,-5.0,1651071985935588.0,1
249,127.0,-7.0,37.0,-33.0,17.0,6.0,8.0,16.0,1651071985935588.0,1
250,-63.0,-18.0,9.0,66.0,-12.0,-10.0,-7.0,-15.0,1651071985947607.0,1
251,24.0,27.0,-40.0,-58.0,-18.0,-3.0,-3.0,-15.0,1651071985947607.0,1
252,100.0,11.0,30.0,27.0,14.0,6.0,2.0,6.0,1651071985956605.0,1
253,-2.0,19.0,6.0,20.0,7.0,0.0,-2.0,7.0,1651071985956605.0,1
254,-28.0,31.0,20.0,-39.0,7.0,6.0,5.0,-1.0,1651071985971566.0,1
255,38.0,-7.0,12.0,40.0,30.0,14.0,10.0,22.0,1651071985971566.0,1
256,9.0,-8.0,-13.0,-13.0,-24.0,-8.0,-3.0,-3.0,1651071985972573.0,1
257,-37.0,-5.0,27.0,71.0,23.0,10.0,2.0,-11.0,1651071985972573.0,1
258,29.0,-24.0,-22.0,6.0,0.0,-3.0,-4.0,5.0,1651071985993573.0,1
259,-16.0,37.0,-3.0,-40.0,-11.0,3.0,-4.0,-4.0,1651071985993573.0,1
260,-12.0,-19.0,-14.0,-5.0,-4.0,-2.0,6.0,23.0,1651071985995511.0,1
261,53.0,7.0,-5.0,38.0,3.0,-3.0,-6.0,-19.0,1651071985995511.0,1
262,-45.0,18.0,32.0,10.0,0.0,-1.0,-1.0,-1.0,1651071986007536.0,1
263,-69.0,-39.0,-14.0,12.0,-14.0,-11.0,-4.0,-3.0,1651071986007536.0,1
264,53.0,11.0,6.0,-11.0,22.0,7.0,4.0,2.0,1651071986016617.0,1
265,-31.0,-35.0,-93.0,-61.0,0.0,0.0,-4.0,-5.0,1651071986016617.0,1
266,46.0,8.0,21.0,18.0,-9.0,-6.0,0.0,4.0,1651071986030726.0,1
267,-27.0,16.0,84.0,77.0,11.0,-3.0,-1.0,-1.0,1651071986030726.0,1
268,-34.0,-19.0,-51.0,-47.0,-5.0,-2.0,-5.0,-9.0,1651071986032654.0,1
269,-67.0,-13.0,9.0,3.0,-12.0,-2.0,4.0,4.0,1651071986032654.0,1
270,63.0,18.0,-14.0,-19.0,3.0,4.0,3.0,3.0,1651071986053695.0,1
271,69.0,-9.0,-24.0,-5.0,-3.0,-6.0,-3.0,3.0,1651071986053695.0,1
272,-21.0,23.0,74.0,14.0,3.0,-3.0,-5.0,-12.0,1651071986055450.0,1
273,9.0,-50.0,-62.0,-35.0,-17.0,-7.0,-4.0,1.0,1651071986055450.0,1
274,29.0,5.0,-16.0,-17.0,18.0,7.0,9.0,11.0,1651071986076532.0,1
275,-43.0,-24.0,0.0,-34.0,-10.0,-9.0,-6.0,-6.0,1651071986076532.0,1
276,12.0,-3.0,-26.0,25.0,-6.0,-1.0,-1.0,-4.0,1651071986077516.0,1
277,37.0,19.0,39.0,-8.0,2.0,0.0,0.0,4.0,1651071986077516.0,1
278,-29.0,-13.0,-13.0,5.0,-7.0,-2.0,-2.0,-5.0,1651071986091559.0,1
279,-15.0,-1.0,-21.0,20.0,9.0,1.0,-2.0,-5.0,1651071986091559.0,1
280,-29.0,-7.0,21.0,50.0,14.0,1.0,-1.0,-2.0,1651071986092559.0,1
281,-64.0,-8.0,-23.0,-58.0,-15.0,-1.0,0.0,-2.0,1651071986092559.0,1
282,-8.0,7.0,1.0,26.0,-14.0,-7.0,-1.0,-5.0,1651071986113688.0,1
283,6.0,-3.0,-5.0,-14.0,-3.0,2.0,4.0,3.0,1651071986113688.0,1
284,-57.0,5.0,-10.0,-7.0,-2.0,-5.0,-6.0,-5.0,1651071986114652.0,1
285,-21.0,24.0,46.0,33.0,8.0,0.0,0.0,-1.0,1651071986114652.0,1
286,10.0,-25.0,-26.0,-37.0,-8.0,-1.0,-2.0,-5.0,1651071986127708.0,1
287,-8.0,12.0,47.0,54.0,10.0,6.0,-1.0,5.0,1651071986127708.0,1
288,3.0,-2.0,-43.0,-16.0,-4.0,2.0,2.0,-1.0,1651071986135820.0,1
289,22.0,23.0,49.0,-35.0,-3.0,-3.0,1.0,3.0,1651071986135820.0,1
290,17.0,5.0,-3.0,43.0,11.0,-2.0,-3.0,-1.0,1651071986158876.0,1
291,20.0,-7.0,9.0,25.0,-2.0,4.0,4.0,3.0,1651071986158876.0,1
292,20.0,21.0,-8.0,-40.0,-10.0,-1.0,2.0,4.0,1651071986159817.0,1
293,18.0,12.0,32.0,28.0,2.0,-1.0,-2.0,-2.0,1651071986159817.0,1
294,3.0,-5.0,-4.0,-11.0,-5.0,-1.0,-2.0,7.0,1651071986173801.0,1
295,9.0,20.0,48.0,8.0,5.0,0.0,1.0,-8.0,1651071986173801.0,1
296,5.0,-5.0,-12.0,30.0,3.0,-2.0,-1.0,0.0,1651071986174769.0,1
297,-7.0,6.0,-9.0,18.0,10.0,6.0,4.0,4.0,1651071986174769.0,1
298,39.0,21.0,-1.0,-41.0,-8.0,-2.0,-3.0,2.0,1651071986186804.0,1
299,1.0,2.0,-14.0,16.0,13.0,0.0,1.0,2.0,1651071986186804.0,1
300,16.0,-1.0,20.0,15.0,-2.0,2.0,0.0,0.0,1651071986196384.0,1
301,-3.0,16.0,-10.0,-46.0,4.0,1.0,1.0,-2.0,1651071986196384.0,1
302,-29.0,-17.0,2.0,-14.0,3.0,3.0,-2.0,-4.0,1651071986211507.0,1
303,2.0,-4.0,-10.0,-15.0,-3.0,1.0,3.0,4.0,1651071986211507.0,1
304,-5.0,16.0,8.0,-41.0,-10.0,-4.0,-2.0,-4.0,1651071986212493.0,1
305,54.0,-40.0,-13.0,55.0,5.0,-2.0,0.0,4.0,1651071986212493.0,1
306,-28.0,7.0,25.0,-24.0,0.0,0.0,1.0,-5.0,1651071986233503.0,1
307,19.0,-2.0,-19.0,5.0,9.0,3.0,-2.0,1.0,1651071986233503.0,1
308,-24.0,1.0,9.0,-22.0,-5.0,-1.0,2.0,3.0,1651071986235458.0,1
309,-37.0,17.0,3.0,4.0,1.0,-1.0,-1.0,-5.0,1651071986235458.0,1
310,-7.0,-22.0,-13.0,-11.0,-1.0,-1.0,1.0,1.0,1651071986255871.0,1
311,-2.0,4.0,5.0,4.0,3.0,2.0,2.0,0.0,1651071986255871.0,1
312,15.0,25.0,57.0,32.0,3.0,2.0,0.0,0.0,1651071986257797.0,1
313,-24.0,-10.0,-57.0,27.0,5.0,-2.0,-1.0,1.0,1651071986257797.0,1
314,-2.0,7.0,-8.0,-20.0,-3.0,-2.0,-3.0,-8.0,1651071986270765.0,1
315,-8.0,-15.0,-32.0,-18.0,1.0,0.0,1.0,7.0,1651071986270765.0,1
316,-31.0,15.0,9.0,-11.0,2.0,2.0,0.0,-4.0,1651071986272756.0,1
317,3.0,-2.0,13.0,40.0,-5.0,-2.0,0.0,3.0,1651071986272756.0,1
318,-3.0,8.0,8.0,-6.0,-5.0,0.0,1.0,1.0,1651071986293909.0,1
319,-10.0,-14.0,-13.0,-7.0,-3.0,-2.0,-3.0,-3.0,1651071986293909.0,1
320,18.0,-24.0,-44.0,-1.0,5.0,-1.0,-3.0,-1.0,1651071986294910.0,1
321,-1.0,13.0,14.0,26.0,13.0,6.0,2.0,1.0,1651071986294910.0,1
322,6.0,3.0,13.0,27.0,-7.0,-3.0,-1.0,2.0,1651071986316444.0,1
323,-11.0,-3.0,-10.0,8.0,-1.0,-4.0,-2.0,4.0,1651071986316444.0,1
324,26.0,-13.0,-6.0,-22.0,-4.0,1.0,1.0,2.0,1651071986317398.0,1
325,16.0,3.0,-16.0,-3.0,-1.0,-2.0,-2.0,-8.0,1651071986317398.0,1
326,15.0,9.0,7.0,6.0,2.0,0.0,-1.0,2.0,1651071986331519.0,1
327,-39.0,7.0,-17.0,-55.0,-24.0,-7.0,0.0,0.0,1651071986331519.0,1
328,-4.0,-21.0,2.0,35.0,15.0,0.0,-2.0,1.0,1651071986332521.0,1
329,19.0,6.0,17.0,-13.0,-7.0,-2.0,-4.0,-2.0,1651071986332521.0,1
330,-29.0,-20.0,-24.0,-38.0,-8.0,-3.0,-1.0,-3.0,1651071986353749.0,1
331,-26.0,-4.0,5.0,20.0,5.0,1.0,-1.0,-5.0,1651071986353749.0,1
332,36.0,6.0,27.0,24.0,3.0,-1.0,3.0,10.0,1651071986354741.0,1
333,-44.0,0.0,3.0,-7.0,-1.0,-1.0,1.0,-4.0,1651071986354741.0,1
334,-30.0,-16.0,-24.0,40.0,7.0,3.0,0.0,-4.0,1651071986377840.0,1
335,-13.0,3.0,11.0,6.0,3.0,1.0,-2.0,-3.0,1651071986377840.0,1
336,12.0,1.0,5.0,-4.0,5.0,3.0,0.0,4.0,1651071986378771.0,1
337,12.0,-2.0,-38.0,-39.0,-14.0,-2.0,2.0,2.0,1651071986378771.0,1
338,1.0,-16.0,-7.0,-46.0,-10.0,-4.0,-1.0,3.0,1651071986390906.0,1
339,87.0,22.0,3.0,-2.0,-2.0,1.0,0.0,-2.0,1651071986390906.0,1
340,-22.0,-5.0,-9.0,20.0,6.0,1.0,-2.0,-5.0,1651071986396843.0,1
341,58.0,2.0,23.0,13.0,3.0,1.0,-1.0,4.0,1651071986396843.0,1
342,-20.0,-9.0,11.0,21.0,4.0,0.0,-1.0,-4.0,1651071986413681.0,1
343,-1.0,-20.0,-22.0,-11.0,-1.0,-3.0,-1.0,-2.0,1651071986413681.0,1
344,-4.0,0.0,-8.0,-14.0,-14.0,-5.0,-3.0,-9.0,1651071986414705.0,1
345,17.0,-9.0,6.0,-27.0,10.0,0.0,-3.0,-3.0,1651071986414705.0,1
346,34.0,23.0,38.0,24.0,-1.0,1.0,0.0,2.0,1651071986436686.0,1
347,-34.0,-10.0,-34.0,-19.0,-24.0,-6.0,-1.0,2.0,1651071986436686.0,1
348,0.0,-15.0,-15.0,8.0,-1.0,0.0,-1.0,-5.0,1651071986437643.0,1
349,-11.0,-1.0,20.0,23.0,-7.0,-4.0,-2.0,-5.0,1651071986437643.0,1
350,-1.0,5.0,-36.0,9.0,16.0,3.0,-1.0,-7.0,1651071986450721.0,1
351,-13.0,9.0,16.0,-2.0,2.0,2.0,-3.0,-5.0,1651071986450721.0,1
352,20.0,13.0,13.0,4.0,-3.0,0.0,1.0,1.0,1651071986457705.0,1
353,31.0,6.0,-6.0,-31.0,-7.0,-3.0,1.0,4.0,1651071986457705.0,1
354,-13.0,-10.0,-8.0,-12.0,0.0,0.0,1.0,0.0,1651071986473700.0,1
355,-10.0,-14.0,19.0,33.0,9.0,0.0,0.0,-1.0,1651071986473700.0,1
356,5.0,-1.0,-37.0,-18.0,2.0,-2.0,0.0,-2.0,1651071986474727.0,1
357,-37.0,18.0,69.0,26.0,2.0,3.0,-1.0,4.0,1651071986474727.0,1
358,11.0,-11.0,-71.0,-32.0,-21.0,-11.0,-5.0,-3.0,1651071986495813.0,1
359,11.0,-7.0,-21.0,-12.0,-2.0,1.0,0.0,3.0,1651071986495813.0,1
360,-22.0,2.0,20.0,-29.0,-3.0,-1.0,0.0,-1.0,1651071986497742.0,1
361,10.0,-5.0,2.0,43.0,15.0,3.0,1.0,0.0,1651071986497742.0,1
362,12.0,-5.0,-3.0,-20.0,-2.0,3.0,3.0,3.0,1651071986509780.0,1
363,-42.0,2.0,20.0,23.0,2.0,-3.0,-4.0,-8.0,1651071986509780.0,1
364,-25.0,-8.0,2.0,-36.0,-10.0,-2.0,-2.0,-3.0,1651071986518686.0,1
365,-28.0,14.0,-13.0,56.0,14.0,4.0,2.0,2.0,1651071986518686.0,1
366,29.0,-6.0,29.0,-5.0,-1.0,1.0,-1.0,1.0,1651071986533731.0,1
367,-32.0,-15.0,-27.0,-11.0,-1.0,0.0,1.0,5.0,1651071986533731.0,1
368,-23.0,13.0,13.0,24.0,10.0,3.0,3.0,2.0,1651071986534745.0,1
369,12.0,-19.0,-22.0,-27.0,-12.0,-3.0,-4.0,-4.0,1651071986534745.0,1
370,31.0,16.0,44.0,40.0,7.0,-1.0,-2.0,3.0,1651071986556431.0,1
371,1.0,21.0,21.0,1.0,1.0,-2.0,-3.0,-8.0,1651071986556431.0,1
372,16.0,-9.0,-27.0,-7.0,-10.0,-3.0,-2.0,1.0,1651071986557370.0,1
373,7.0,7.0,1.0,-27.0,-5.0,-4.0,-1.0,1.0,1651071986557370.0,1
374,-10.0,6.0,18.0,43.0,3.0,-4.0,-1.0,-5.0,1651071986570393.0,1
375,31.0,-30.0,-54.0,-51.0,-18.0,-2.0,-2.0,-1.0,1651071986570393.0,1
376,-3.0,6.0,10.0,3.0,-8.0,-4.0,-3.0,-2.0,1651071986577374.0,1
377,-51.0,-8.0,-23.0,-11.0,11.0,1.0,-1.0,-10.0,1651071986577374.0,1
378,-17.0,-2.0,39.0,30.0,-21.0,-3.0,0.0,6.0,1651071986593794.0,1
379,-9.0,4.0,-18.0,-5.0,17.0,2.0,-1.0,0.0,1651071986593794.0,1
380,52.0,-15.0,-12.0,-33.0,-9.0,-1.0,0.0,5.0,1651071986594787.0,1
381,1.0,12.0,-9.0,21.0,-5.0,0.0,0.0,-6.0,1651071986594787.0,1
382,-16.0,5.0,22.0,-2.0,15.0,4.0,1.0,-4.0,1651071986615890.0,1
383,66.0,-2.0,-19.0,-14.0,-21.0,-6.0,0.0,3.0,1651071986615890.0,1
384,-7.0,9.0,6.0,8.0,9.0,-2.0,0.0,3.0,1651071986617843.0,1
385,-2.0,0.0,27.0,-6.0,-4.0,0.0,-1.0,-5.0,1651071986617843.0,1
386,-4.0,2.0,-32.0,-24.0,5.0,3.0,3.0,1.0,1651071986629912.0,1
387,18.0,7.0,12.0,7.0,-7.0,-3.0,-1.0,1.0,1651071986629912.0,1
388,21.0,2.0,11.0,27.0,13.0,3.0,0.0,-1.0,1651071986636955.0,1
389,-54.0,-5.0,-6.0,-35.0,-13.0,-3.0,-1.0,-1.0,1651071986636955.0,1
390,2.0,12.0,22.0,11.0,10.0,3.0,-3.0,0.0,1651071986653847.0,1
391,61.0,12.0,-27.0,3.0,-8.0,-1.0,1.0,5.0,1651071986653847.0,1
392,-11.0,-4.0,4.0,11.0,-1.0,-3.0,-3.0,0.0,1651071986654839.0,1
393,41.0,13.0,-1.0,14.0,3.0,4.0,3.0,4.0,1651071986654839.0,1
394,-63.0,3.0,-13.0,-48.0,-5.0,-6.0,-5.0,-6.0,1651071986675852.0,1
395,29.0,4.0,15.0,32.0,8.0,4.0,6.0,9.0,1651071986675852.0,1
396,-15.0,13.0,30.0,0.0,-4.0,0.0,-1.0,-3.0,1651071986677806.0,1
397,26.0,-6.0,-31.0,-40.0,-1.0,1.0,3.0,6.0,1651071986677806.0,1
398,37.0,-14.0,0.0,32.0,0.0,-2.0,-2.0,0.0,1651071986690801.0,1
399,-44.0,4.0,18.0,-31.0,-3.0,2.0,-2.0,-6.0,1651071986690801.0,1
400,-5.0,-4.0,9.0,48.0,9.0,0.0,-2.0,-2.0,1651071986697606.0,1
401,35.0,-13.0,-1.0,10.0,-15.0,-5.0,0.0,4.0,1651071986697606.0,1
402,34.0,-7.0,-51.0,-53.0,-8.0,0.0,2.0,1.0,1651071986713444.0,1
403,-43.0,-4.0,13.0,25.0,15.0,3.0,0.0,-5.0,1651071986713444.0,1
404,-5.0,0.0,10.0,-17.0,-8.0,-2.0,-2.0,-3.0,1651071986715466.0,1
405,2.0,-15.0,5.0,34.0,4.0,2.0,-1.0,3.0,1651071986715466.0,1
406,0.0,-9.0,-46.0,-54.0,-1.0,1.0,3.0,3.0,1651071986736073.0,1
407,-17.0,-3.0,47.0,28.0,-10.0,-7.0,-5.0,-1.0,1651071986736073.0,1
408,-31.0,4.0,-24.0,-1.0,14.0,8.0,5.0,-2.0,1651071986738051.0,1
409,-8.0,12.0,-22.0,-22.0,-15.0,-6.0,-4.0,-5.0,1651071986738051.0,1
410,3.0,-9.0,6.0,35.0,17.0,6.0,2.0,-5.0,1651071986750098.0,1
411,-54.0,-17.0,-6.0,-17.0,-6.0,-3.0,1.0,-2.0,1651071986750098.0,1
412,14.0,-11.0,-4.0,-6.0,-2.0,-1.0,0.0,-3.0,1651071986759121.0,1
413,-32.0,9.0,21.0,16.0,9.0,1.0,1.0,4.0,1651071986759121.0,1
414,-7.0,-18.0,-30.0,-11.0,-14.0,-4.0,-4.0,-4.0,1651071986773699.0,1
415,-2.0,14.0,4.0,7.0,6.0,-2.0,-2.0,-4.0,1651071986773699.0,1
416,6.0,-7.0,-11.0,-16.0,-9.0,-1.0,0.0,2.0,1651071986775112.0,1
417,18.0,-19.0,-2.0,-3.0,-13.0,-2.0,0.0,2.0,1651071986775112.0,1
418,-17.0,11.0,2.0,0.0,12.0,-1.0,-3.0,-6.0,1651071986795583.0,1
419,29.0,-2.0,-23.0,-46.0,2.0,5.0,2.0,4.0,1651071986795583.0,1
420,-28.0,1.0,11.0,53.0,-10.0,-5.0,-3.0,0.0,1651071986797586.0,1
421,-1.0,-9.0,-10.0,-23.0,12.0,4.0,-2.0,0.0,1651071986797586.0,1
422,22.0,-13.0,20.0,-18.0,-15.0,1.0,2.0,-2.0,1651071986809616.0,1
423,-18.0,-2.0,14.0,19.0,-3.0,-1.0,-2.0,-3.0,1651071986809616.0,1
424,32.0,-10.0,-18.0,-1.0,3.0,2.0,-1.0,-2.0,1651071986818525.0,1
425,-36.0,7.0,-1.0,-36.0,-3.0,-3.0,-1.0,-8.0,1651071986818525.0,1
426,-4.0,-6.0,-32.0,0.0,-5.0,-4.0,-2.0,2.0,1651071986833197.0,1
427,-14.0,2.0,-18.0,17.0,10.0,1.0,2.0,0.0,1651071986833197.0,1
428,10.0,9.0,-18.0,-20.0,10.0,7.0,3.0,0.0,1651071986835125.0,1
429,-10.0,-3.0,10.0,24.0,-9.0,-5.0,-2.0,-4.0,1651071986835125.0,1
430,-41.0,13.0,30.0,-1.0,-15.0,-6.0,-3.0,-6.0,1651071986855525.0,1
431,16.0,-5.0,-17.0,7.0,1.0,0.0,-1.0,-4.0,1651071986855525.0,1
432,15.0,-5.0,-11.0,-8.0,-3.0,-3.0,-1.0,2.0,1651071986857522.0,1
433,5.0,14.0,-14.0,-24.0,11.0,-1.0,-3.0,-2.0,1651071986857522.0,1
434,-19.0,10.0,17.0,15.0,-1.0,4.0,4.0,4.0,1651071986869664.0,1
435,-13.0,18.0,-13.0,8.0,0.0,-1.0,-1.0,-1.0,1651071986869664.0,1
436,-1.0,-5.0,2.0,-23.0,-2.0,1.0,2.0,2.0,1651071986878641.0,1
437,7.0,-1.0,-2.0,4.0,-5.0,-2.0,-1.0,-2.0,1651071986878641.0,1
438,29.0,-3.0,10.0,19.0,12.0,3.0,-2.0,-2.0,1651071986893813.0,1
439,3.0,-21.0,-19.0,0.0,-1.0,-3.0,2.0,3.0,1651071986893813.0,1
440,-3.0,8.0,72.0,-38.0,-15.0,-8.0,-3.0,-1.0,1651071986894815.0,1
441,-19.0,-37.0,-45.0,0.0,-6.0,2.0,2.0,-2.0,1651071986894815.0,1
442,62.0,5.0,32.0,73.0,3.0,-4.0,-1.0,2.0,1651071986915673.0,1
443,-21.0,27.0,16.0,-41.0,10.0,6.0,-1.0,-5.0,1651071986915673.0,1
444,-23.0,-8.0,-19.0,31.0,4.0,1.0,-1.0,-3.0,1651071986917609.0,1
445,17.0,-19.0,35.0,-5.0,-7.0,-3.0,1.0,7.0,1651071986917609.0,1
446,12.0,4.0,-22.0,-25.0,4.0,2.0,2.0,2.0,1651071986930135.0,1
447,-9.0,-2.0,-15.0,12.0,19.0,8.0,3.0,-2.0,1651071986930135.0,1
448,12.0,19.0,23.0,-4.0,-21.0,-1.0,2.0,4.0,1651071986939113.0,1
449,22.0,23.0,26.0,12.0,-17.0,-9.0,-4.0,-3.0,1651071986939113.0,1
450,-31.0,13.0,16.0,5.0,14.0,5.0,0.0,0.0,1651071986953690.0,1
451,-1.0,-10.0,-1.0,21.0,2.0,-3.0,-1.0,6.0,1651071986953690.0,1
452,20.0,7.0,-10.0,-43.0,9.0,2.0,0.0,0.0,1651071986959599.0,1
453,48.0,13.0,13.0,21.0,8.0,2.0,-3.0,-2.0,1651071986959599.0,1
454,-37.0,-13.0,-7.0,4.0,-8.0,-4.0,0.0,0.0,1651071986975716.0,1
455,7.0,20.0,23.0,-25.0,-4.0,-2.0,1.0,2.0,1651071986975716.0,1
456,1.0,-7.0,4.0,20.0,12.0,3.0,0.0,-2.0,1651071986977644.0,1
457,12.0,-5.0,-32.0,-30.0,-9.0,1.0,0.0,0.0,1651071986977644.0,1
458,-27.0,-6.0,-23.0,12.0,-13.0,-8.0,-4.0,-6.0,1651071986998810.0,1
459,9.0,-8.0,45.0,-6.0,-1.0,1.0,1.0,2.0,1651071986998810.0,1
460,-20.0,-7.0,-69.0,-11.0,2.0,0.0,0.0,-4.0,1651071987000765.0,1
461,-2.0,7.0,21.0,49.0,18.0,7.0,4.0,3.0,1651071987000765.0,1
462,-4.0,-18.0,24.0,-39.0,-3.0,-3.0,-7.0,-3.0,1651071987014444.0,1
463,56.0,-7.0,-23.0,13.0,-1.0,0.0,3.0,2.0,1651071987014444.0,1
464,-30.0,-3.0,-1.0,-26.0,-18.0,-5.0,-2.0,-1.0,1651071987015415.0,1
465,-11.0,10.0,-15.0,-3.0,18.0,2.0,-1.0,-3.0,1651071987015415.0,1
466,40.0,13.0,20.0,10.0,-1.0,2.0,1.0,6.0,1651071987035670.0,1
467,-25.0,2.0,24.0,12.0,1.0,0.0,-5.0,-4.0,1651071987035670.0,1
468,-14.0,-11.0,-20.0,-12.0,-3.0,-3.0,-3.0,-3.0,1651071987037599.0,1
469,0.0,-5.0,0.0,27.0,17.0,3.0,0.0,2.0,1651071987037599.0,1
470,5.0,8.0,7.0,-29.0,-17.0,-1.0,3.0,3.0,1651071987050101.0,1
471,5.0,-1.0,7.0,22.0,5.0,-1.0,2.0,2.0,1651071987050101.0,1
472,-1.0,5.0,5.0,-7.0,-27.0,-10.0,-4.0,-3.0,1651071987058664.0,1
473,-27.0,-15.0,-1.0,-5.0,3.0,0.0,0.0,-2.0,1651071987058664.0,1
474,4.0,1.0,-22.0,-5.0,6.0,3.0,2.0,1.0,1651071987073702.0,1
475,-14.0,-11.0,-7.0,-34.0,0.0,0.0,0.0,-2.0,1651071987073702.0,1
476,7.0,-2.0,9.0,46.0,11.0,0.0,0.0,-1.0,1651071987075639.0,1
477,7.0,15.0,18.0,-5.0,-16.0,-2.0,0.0,0.0,1651071987075639.0,1
478,52.0,-4.0,-30.0,-14.0,6.0,4.0,1.0,1.0,1651071987096524.0,1
479,-20.0,10.0,32.0,29.0,-2.0,-2.0,-2.0,1.0,1651071987096524.0,1
480,-10.0,-17.0,-19.0,-14.0,-1.0,-3.0,1.0,1.0,1651071987097487.0,1
481,0.0,17.0,7.0,17.0,0.0,1.0,2.0,3.0,1651071987097487.0,1
482,36.0,-8.0,11.0,-6.0,1.0,0.0,-1.0,6.0,1651071987109454.0,1
483,13.0,1.0,-2.0,10.0,-4.0,-6.0,-6.0,-5.0,1651071987109454.0,1
484,8.0,10.0,7.0,-8.0,3.0,2.0,1.0,0.0,1651071987118448.0,1
485,-10.0,-2.0,-16.0,-45.0,-2.0,-1.0,-2.0,-1.0,1651071987118448.0,1
486,-23.0,8.0,6.0,18.0,3.0,1.0,0.0,-1.0,1651071987133679.0,1
487,8.0,-8.0,-8.0,4.0,-3.0,2.0,-1.0,-1.0,1651071987133679.0,1
488,-7.0,0.0,-2.0,15.0,8.0,6.0,0.0,1.0,1651071987134635.0,1
489,16.0,-5.0,-6.0,-15.0,-5.0,-2.0,1.0,0.0,1651071987134635.0,1
490,-21.0,-5.0,-22.0,-7.0,-4.0,-1.0,-1.0,-2.0,1651071987156074.0,1
491,0.0,-7.0,-9.0,-9.0,-11.0,-5.0,-2.0,1.0,1651071987156074.0,1
492,5.0,4.0,2.0,16.0,14.0,1.0,0.0,-1.0,1651071987158090.0,1
493,5.0,2.0,0.0,6.0,6.0,3.0,0.0,0.0,1651071987158090.0,1
494,-76.0,-1.0,25.0,17.0,-1.0,-5.0,-2.0,-3.0,1651071987169153.0,1
495,-4.0,-7.0,3.0,-39.0,-27.0,-6.0,-3.0,-1.0,1651071987169153.0,1
496,3.0,-13.0,-5.0,28.0,1.0,-6.0,-3.0,-2.0,1651071987179196.0,1
497,19.0,1.0,-2.0,-41.0,0.0,1.0,1.0,4.0,1651071987179196.0,1
498,-2.0,4.0,-3.0,39.0,-1.0,-8.0,-5.0,-5.0,1651071987193416.0,1
499,7.0,1.0,-5.0,-1.0,10.0,4.0,1.0,3.0,1651071987193416.0,1
500,-6.0,16.0,37.0,-3.0,-5.0,0.0,0.0,-3.0,1651071987195414.0,1
501,-13.0,-28.0,-39.0,12.0,-5.0,-1.0,-2.0,-2.0,1651071987195414.0,1
502,22.0,12.0,16.0,-7.0,4.0,2.0,0.0,3.0,1651071987216915.0,1
503,-15.0,-14.0,-16.0,-7.0,-4.0,-1.0,0.0,-3.0,1651071987216915.0,1
504,7.0,2.0,-5.0,5.0,3.0,0.0,-2.0,-1.0,1651071987217884.0,1
505,-5.0,10.0,15.0,5.0,-6.0,-3.0,2.0,2.0,1651071987217884.0,1
506,4.0,-9.0,-11.0,-16.0,2.0,1.0,2.0,1.0,1651071987239029.0,1
507,5.0,2.0,1.0,10.0,-1.0,0.0,1.0,1.0,1651071987239029.0,1
508,-7.0,-7.0,2.0,-2.0,7.0,1.0,-1.0,-1.0,1651071987239969.0,1
509,-8.0,-3.0,-3.0,-9.0,-4.0,-4.0,-1.0,-3.0,1651071987239969.0,1
510,-7.0,5.0,-6.0,5.0,6.0,2.0,1.0,-1.0,1651071987253696.0,1
511,4.0,3.0,11.0,7.0,-1.0,-3.0,-3.0,-3.0,1651071987253696.0,1
512,2.0,-11.0,-16.0,-2.0,-1.0,4.0,3.0,2.0,1651071987254680.0,1
513,-4.0,10.0,2.0,-12.0,-12.0,-6.0,-2.0,1.0,1651071987254680.0,1
514,2.0,8.0,3.0,-10.0,4.0,1.0,-3.0,-1.0,1651071987275774.0,1
515,-3.0,-9.0,-7.0,2.0,3.0,1.0,1.0,-1.0,1651071987275774.0,1
516,0.0,1.0,1.0,0.0,-6.0,-4.0,-3.0,-4.0,1651071987277701.0,1
517,-4.0,-6.0,4.0,13.0,2.0,2.0,-1.0,-1.0,1651071987277701.0,1
518,-1.0,6.0,4.0,3.0,2.0,1.0,1.0,-1.0,1651071987305837.0,1
519,-4.0,3.0,-2.0,-3.0,-2.0,-1.0,-1.0,-3.0,1651071987305837.0,1
520,4.0,2.0,-5.0,-10.0,-4.0,-3.0,1.0,0.0,1651071987307730.0,1
521,-5.0,1.0,4.0,-1.0,-3.0,-3.0,0.0,-1.0,1651071987307730.0,1
522,-4.0,-2.0,-5.0,13.0,-3.0,-4.0,-3.0,-3.0,1651071987313754.0,1
523,3.0,7.0,-3.0,-8.0,0.0,5.0,0.0,2.0,1651071987313754.0,1
524,2.0,-1.0,2.0,4.0,2.0,2.0,1.0,0.0,1651071987314711.0,1
525,-2.0,0.0,3.0,7.0,-5.0,-1.0,-3.0,-3.0,1651071987314711.0,1
526,-2.0,-1.0,-4.0,-14.0,-3.0,-3.0,-2.0,-3.0,1651071987335676.0,1
527,-7.0,-9.0,-3.0,5.0,11.0,5.0,1.0,0.0,1651071987335676.0,1
528,1.0,5.0,2.0,-1.0,-9.0,-3.0,-1.0,0.0,1651071987337601.0,1
529,-3.0,1.0,0.0,-3.0,-3.0,-10.0,-3.0,0.0,1651071987337601.0,1
530,-1.0,-20.0,-6.0,-13.0,10.0,10.0,3.0,2.0,1651071987358497.0,1
531,5.0,13.0,5.0,21.0,-3.0,-8.0,-3.0,-1.0,1651071987358497.0,1
532,-3.0,0.0,1.0,6.0,2.0,-7.0,-3.0,-3.0,1651071987360450.0,1
533,-4.0,-1.0,4.0,-1.0,-22.0,1.0,-2.0,-4.0,1651071987360450.0,1
534,1.0,4.0,4.0,14.0,10.0,-6.0,-2.0,0.0,1651071987381175.0,1
535,2.0,2.0,-7.0,-21.0,7.0,8.0,2.0,2.0,1651071987381175.0,1
536,-1.0,-8.0,-3.0,0.0,1.0,-2.0,-2.0,0.0,1651071987382618.0,1
537,0.0,0.0,2.0,-2.0,4.0,0.0,0.0,-1.0,1651071987382618.0,1
538,-3.0,1.0,-3.0,-7.0,-8.0,-4.0,-1.0,-3.0,1651071987395650.0,1
539,1.0,-3.0,-1.0,-1.0,-5.0,-3.0,0.0,-1.0,1651071987395650.0,1
540,-3.0,1.0,-1.0,-1.0,2.0,3.0,-1.0,1.0,1651071987397579.0,1
541,-2.0,-1.0,-2.0,-6.0,-1.0,-1.0,0.0,-1.0,1651071987397579.0,1
542,0.0,1.0,4.0,-3.0,-4.0,0.0,1.0,2.0,1651071987418931.0,1
543,-5.0,-7.0,-5.0,7.0,-5.0,-3.0,0.0,1.0,1651071987418931.0,1
544,3.0,5.0,-2.0,-11.0,6.0,1.0,0.0,-2.0,1651071987419943.0,1
545,-2.0,-9.0,4.0,16.0,20.0,8.0,2.0,0.0,1651071987419943.0,1
546,1.0,5.0,1.0,-3.0,-7.0,-1.0,-1.0,0.0,1651071987434542.0,1
547,0.0,7.0,7.0,-7.0,-11.0,-5.0,-3.0,-2.0,1651071987434542.0,1
548,-2.0,-6.0,-17.0,9.0,-4.0,-1.0,-1.0,0.0,1651071987439531.0,1
549,-2.0,4.0,4.0,7.0,1.0,0.0,-1.0,-1.0,1651071987439531.0,1
550,-2.0,-6.0,-2.0,-4.0,0.0,2.0,-1.0,0.0,1651071987456551.0,1
551,-1.0,-5.0,-5.0,-11.0,6.0,-3.0,0.0,-1.0,1651071987456551.0,1
552,1.0,1.0,-1.0,-12.0,2.0,3.0,0.0,1.0,1651071987457482.0,1
553,-1.0,-4.0,-25.0,-3.0,6.0,0.0,1.0,0.0,1651071987457482.0,1
554,-4.0,-1.0,-3.0,6.0,-9.0,-7.0,-4.0,-3.0,1651071987478666.0,1
555,-5.0,-1.0,11.0,-1.0,-1.0,3.0,0.0,-1.0,1651071987478666.0,1
556,0.0,-3.0,4.0,-1.0,2.0,2.0,1.0,1.0,1651071987479625.0,1
557,5.0,0.0,-8.0,-15.0,6.0,0.0,0.0,1.0,1651071987479625.0,1
558,-1.0,0.0,5.0,16.0,-7.0,-1.0,-1.0,-1.0,1651071987492562.0,1
559,-2.0,-3.0,-21.0,0.0,1.0,-4.0,-3.0,-3.0,1651071987492562.0,1
560,0.0,-1.0,3.0,-6.0,-2.0,2.0,0.0,0.0,1651071987499570.0,1
561,-2.0,3.0,10.0,0.0,-13.0,-3.0,0.0,-2.0,1651071987499570.0,1
562,0.0,-3.0,-8.0,-4.0,13.0,0.0,0.0,1.0,1651071987515501.0,1
563,-2.0,1.0,6.0,8.0,-2.0,-3.0,0.0,0.0,1651071987515501.0,1
564,-3.0,-2.0,-17.0,-5.0,-6.0,-3.0,-1.0,-1.0,1651071987517503.0,1
565,-4.0,0.0,13.0,2.0,-5.0,0.0,-2.0,-2.0,1651071987517503.0,1
566,5.0,9.0,8.0,-3.0,1.0,0.0,-1.0,0.0,1651071987538443.0,1
567,-2.0,-8.0,5.0,0.0,-4.0,0.0,0.0,-2.0,1651071987538443.0,1
568,-4.0,0.0,-15.0,-7.0,-1.0,-1.0,-1.0,-1.0,1651071987540460.0,1
569,-3.0,-2.0,3.0,8.0,2.0,-1.0,-2.0,-1.0,1651071987540460.0,1
570,-1.0,2.0,4.0,-4.0,-8.0,-4.0,-1.0,-1.0,1651071987553399.0,1
571,4.0,3.0,7.0,0.0,7.0,-1.0,0.0,2.0,1651071987553399.0,1
572,-1.0,0.0,5.0,-3.0,-4.0,-1.0,-2.0,-1.0,1651071987559444.0,1
573,-1.0,-3.0,2.0,4.0,0.0,-2.0,0.0,0.0,1651071987559444.0,1
574,-1.0,-11.0,-23.0,-9.0,-5.0,0.0,1.0,1.0,1651071987575635.0,1
575,2.0,4.0,-18.0,-3.0,-4.0,2.0,-2.0,0.0,1651071987575635.0,1
576,-1.0,2.0,8.0,2.0,6.0,-5.0,-1.0,0.0,1651071987577563.0,1
577,-4.0,-4.0,2.0,15.0,5.0,1.0,-1.0,-2.0,1651071987577563.0,1
578,0.0,-4.0,10.0,-6.0,-1.0,1.0,0.0,-2.0,1651071987598629.0,1
579,1.0,8.0,0.0,-4.0,-7.0,-3.0,0.0,0.0,1651071987598629.0,1
580,-2.0,-3.0,-2.0,2.0,-12.0,-3.0,-2.0,-3.0,1651071987599657.0,1
581,3.0,3.0,6.0,0.0,4.0,1.0,0.0,1.0,1651071987599657.0,1
582,0.0,3.0,-5.0,-3.0,0.0,0.0,2.0,1.0,1651071987613362.0,1
583,-4.0,-2.0,8.0,-3.0,-13.0,-3.0,-2.0,-3.0,1651071987613362.0,1
584,1.0,-2.0,-3.0,1.0,10.0,-1.0,2.0,-1.0,1651071987619516.0,1
585,3.0,1.0,0.0,-6.0,-8.0,0.0,1.0,1.0,1651071987619516.0,1
586,0.0,1.0,-6.0,-4.0,11.0,7.0,2.0,0.0,1651071987636560.0,1
587,-3.0,-7.0,-1.0,16.0,1.0,-1.0,-2.0,0.0,1651071987636560.0,1
588,0.0,6.0,16.0,-1.0,-4.0,2.0,-1.0,0.0,1651071987637557.0,1
589,-3.0,-9.0,-16.0,-3.0,-4.0,-5.0,0.0,-2.0,1651071987637557.0,1
590,0.0,-2.0,-9.0,-11.0,-11.0,-4.0,-2.0,-1.0,1651071987658781.0,1
591,-2.0,3.0,8.0,2.0,17.0,10.0,0.0,-1.0,1651071987658781.0,1
592,-1.0,7.0,9.0,4.0,-4.0,-3.0,-1.0,0.0,1651071987659781.0,1
593,2.0,-7.0,-3.0,-2.0,2.0,-3.0,-1.0,-1.0,1651071987659781.0,1
594,4.0,3.0,6.0,-2.0,-5.0,-2.0,-1.0,1.0,1651071987672813.0,1
595,-1.0,-5.0,-6.0,1.0,-1.0,-2.0,1.0,-1.0,1651071987672813.0,1
596,0.0,-2.0,-5.0,-1.0,-7.0,-1.0,-1.0,-1.0,1651071987680093.0,1
597,-3.0,1.0,1.0,-5.0,6.0,1.0,-1.0,0.0,1651071987680093.0,1
598,-2.0,-3.0,11.0,3.0,-2.0,-3.0,0.0,-1.0,1651071987695972.0,1
599,-3.0,-3.0,-7.0,-3.0,0.0,-1.0,0.0,-1.0,1651071987695972.0,1
600,0.0,-2.0,8.0,-4.0,4.0,2.0,0.0,0.0,1651071987697933.0,1
601,1.0,0.0,0.0,2.0,0.0,3.0,2.0,1.0,1651071987697933.0,1
602,-1.0,-1.0,16.0,3.0,-2.0,-2.0,-2.0,-1.0,1651071987718953.0,1
603,-1.0,-6.0,-29.0,-8.0,0.0,-2.0,0.0,1.0,1651071987718953.0,1
604,0.0,0.0,8.0,14.0,-6.0,-1.0,-2.0,-1.0,1651071987719883.0,1
605,-1.0,-1.0,6.0,-1.0,3.0,0.0,0.0,0.0,1651071987719883.0,1
606,-1.0,0.0,10.0,5.0,3.0,1.0,0.0,1.0,1651071987731802.0,1
607,1.0,-1.0,4.0,-6.0,-2.0,-1.0,1.0,0.0,1651071987731802.0,1
608,2.0,0.0,-4.0,-7.0,-2.0,-1.0,-3.0,-1.0,1651071987741614.0,1
609,0.0,3.0,5.0,5.0,0.0,-1.0,-1.0,-2.0,1651071987741614.0,1
610,-3.0,-8.0,-17.0,-4.0,-2.0,1.0,0.0,0.0,1651071987755652.0,1
611,3.0,4.0,1.0,-3.0,-9.0,-4.0,0.0,0.0,1651071987755652.0,1
612,0.0,0.0,9.0,-3.0,7.0,0.0,0.0,1.0,1651071987757581.0,1
613,1.0,0.0,-2.0,17.0,4.0,3.0,1.0,-1.0,1651071987757581.0,1
614,0.0,2.0,-2.0,-4.0,1.0,-1.0,-1.0,-2.0,1651071987778752.0,1
615,-2.0,-1.0,-4.0,2.0,1.0,1.0,0.0,0.0,1651071987778752.0,1
616,-2.0,-3.0,6.0,-8.0,-6.0,-2.0,-1.0,1.0,1651071987779760.0,1
617,0.0,2.0,0.0,-4.0,3.0,1.0,0.0,1.0,1651071987779760.0,1
618,-4.0,-10.0,-24.0,0.0,0.0,0.0,-2.0,-1.0,1651071987792637.0,1
619,0.0,-1.0,5.0,0.0,-1.0,-1.0,-1.0,-1.0,1651071987792637.0,1
620,-2.0,2.0,-1.0,0.0,2.0,-1.0,0.0,-2.0,1651071987801616.0,1
621,-4.0,-4.0,-14.0,0.0,-3.0,-2.0,-1.0,-3.0,1651071987801616.0,1
622,0.0,2.0,-3.0,-1.0,-2.0,1.0,1.0,-1.0,1651071987814783.0,1
623,1.0,5.0,5.0,1.0,5.0,2.0,0.0,2.0,1651071987814783.0,1
624,-2.0,-5.0,-8.0,-3.0,-1.0,0.0,1.0,0.0,1651071987823364.0,1
625,1.0,4.0,3.0,-4.0,-5.0,-3.0,0.0,0.0,1651071987823364.0,1
626,0.0,5.0,9.0,-2.0,-3.0,-2.0,-2.0,-1.0,1651071987838612.0,1
627,0.0,-2.0,1.0,-8.0,-7.0,1.0,2.0,1.0,1651071987838612.0,1
628,1.0,2.0,-4.0,19.0,10.0,2.0,0.0,0.0,1651071987839582.0,1
629,-1.0,-5.0,-1.0,-8.0,1.0,0.0,-2.0,-1.0,1651071987839582.0,1
630,2.0,3.0,-3.0,-8.0,-5.0,-1.0,0.0,0.0,1651071987852628.0,1
631,-1.0,1.0,9.0,4.0,2.0,0.0,-2.0,-2.0,1651071987852628.0,1
632,-1.0,-3.0,-3.0,-3.0,-2.0,-2.0,-1.0,-2.0,1651071987861525.0,1
633,-1.0,3.0,1.0,0.0,-3.0,-2.0,-1.0,1.0,1651071987861525.0,1
634,-2.0,-2.0,12.0,3.0,3.0,1.0,0.0,0.0,1651071987876491.0,1
635,1.0,1.0,2.0,-5.0,-5.0,-1.0,-1.0,0.0,1651071987876491.0,1
636,2.0,-2.0,-17.0,-1.0,-3.0,0.0,0.0,1.0,1651071987877482.0,1
637,-2.0,-6.0,-8.0,-3.0,4.0,1.0,-5.0,0.0,1651071987877482.0,1
638,1.0,3.0,7.0,3.0,-1.0,1.0,1.0,-2.0,1651071987898575.0,1
639,-3.0,-2.0,-3.0,1.0,1.0,-1.0,-2.0,-3.0,1651071987898575.0,1
640,5.0,-2.0,1.0,0.0,-4.0,2.0,3.0,3.0,1651071987900503.0,1
641,-1.0,-1.0,1.0,-6.0,-6.0,0.0,1.0,1.0,1651071987900503.0,1
642,-1.0,-1.0,-7.0,3.0,0.0,-2.0,0.0,1.0,1651071987912498.0,1
643,-4.0,-2.0,1.0,2.0,0.0,-1.0,-1.0,-2.0,1651071987912498.0,1
644,0.0,2.0,7.0,-10.0,-2.0,0.0,0.0,-1.0,1651071987921532.0,1
645,-1.0,-6.0,-18.0,4.0,6.0,2.0,-1.0,0.0,1651071987921532.0,1
646,1.0,1.0,2.0,8.0,5.0,1.0,0.0,0.0,1651071987935712.0,1
647,-1.0,-5.0,0.0,5.0,-1.0,-1.0,-1.0,-3.0,1651071987935712.0,1
648,0.0,5.0,-1.0,-3.0,-1.0,-1.0,-2.0,-1.0,1651071987937640.0,1
649,1.0,3.0,5.0,-5.0,-12.0,-1.0,1.0,-1.0,1651071987937640.0,1
650,-3.0,0.0,-3.0,-8.0,1.0,-1.0,1.0,0.0,1651071987958591.0,1
651,0.0,-2.0,-5.0,6.0,3.0,0.0,-1.0,3.0,1651071987958591.0,1
652,0.0,-5.0,-7.0,-5.0,-3.0,-1.0,-1.0,1.0,1651071987960519.0,1
653,0.0,4.0,10.0,2.0,3.0,0.0,-1.0,-1.0,1651071987960519.0,1
654,-1.0,-4.0,-11.0,-2.0,-3.0,-1.0,-2.0,-3.0,1651071987972555.0,1
655,1.0,1.0,3.0,-1.0,-4.0,0.0,-2.0,-1.0,1651071987972555.0,1
656,-2.0,-1.0,-3.0,-1.0,-2.0,-3.0,0.0,-2.0,1651071987988540.0,1
657,-1.0,3.0,27.0,-4.0,-5.0,3.0,1.0,0.0,1651071987988540.0,1
658,-2.0,-5.0,-13.0,16.0,7.0,3.0,1.0,-1.0,1651071987995622.0,1
659,2.0,-2.0,2.0,-7.0,8.0,-2.0,-1.0,0.0,1651071987995622.0,1
660,-1.0,-3.0,-4.0,4.0,5.0,1.0,-1.0,1.0,1651071987997604.0,1
661,0.0,3.0,0.0,-2.0,-7.0,-3.0,-4.0,-1.0,1651071987997604.0,1
662,1.0,2.0,0.0,-5.0,-7.0,-2.0,0.0,1.0,1651071988018770.0,1
663,-3.0,-2.0,-3.0,-2.0,-6.0,0.0,-2.0,-2.0,1651071988018770.0,1
664,-1.0,-3.0,-1.0,-2.0,-1.0,-2.0,0.0,-1.0,1651071988019701.0,1
665,1.0,0.0,-4.0,-3.0,2.0,-1.0,1.0,0.0,1651071988019701.0,1
666,0.0,0.0,5.0,-3.0,-9.0,-2.0,0.0,-2.0,1651071988031833.0,1
667,0.0,-7.0,-18.0,3.0,2.0,1.0,2.0,-1.0,1651071988031833.0,1
668,-2.0,5.0,20.0,1.0,5.0,3.0,1.0,-1.0,1651071988040803.0,1
669,-1.0,-4.0,-8.0,-5.0,-1.0,0.0,2.0,-1.0,1651071988040803.0,1
670,1.0,0.0,4.0,8.0,-3.0,-3.0,-2.0,0.0,1651071988055990.0,1
671,0.0,2.0,6.0,7.0,-4.0,-2.0,-2.0,-1.0,1651071988055990.0,1
672,0.0,-1.0,-4.0,-5.0,-4.0,-1.0,-1.0,-2.0,1651071988057972.0,1
673,0.0,1.0,2.0,3.0,1.0,0.0,-3.0,0.0,1651071988057972.0,1
674,-1.0,-3.0,-3.0,-14.0,-13.0,-6.0,-2.0,-1.0,1651071988078611.0,1
675,-2.0,2.0,1.0,-1.0,10.0,2.0,0.0,-2.0,1651071988078611.0,1
676,1.0,-2.0,-2.0,3.0,2.0,-1.0,2.0,0.0,1651071988080588.0,1
677,0.0,1.0,-1.0,-3.0,-1.0,1.0,1.0,0.0,1651071988080588.0,1
678,-1.0,1.0,3.0,-1.0,3.0,1.0,-2.0,0.0,1651071988092660.0,1
679,-2.0,0.0,-1.0,1.0,-7.0,-2.0,-2.0,0.0,1651071988092660.0,1
680,-4.0,-2.0,-2.0,1.0,0.0,-1.0,-1.0,-2.0,1651071988101616.0,1
681,-1.0,-2.0,-7.0,-2.0,-1.0,-2.0,-2.0,0.0,1651071988101616.0,1
682,4.0,7.0,5.0,-3.0,-7.0,-3.0,-2.0,0.0,1651071988115765.0,1
683,0.0,-6.0,-3.0,3.0,10.0,2.0,0.0,0.0,1651071988115765.0,1
684,1.0,2.0,4.0,-3.0,-1.0,3.0,0.0,-1.0,1651071988117702.0,1
685,-1.0,-2.0,6.0,4.0,-2.0,-3.0,0.0,-1.0,1651071988117702.0,1
686,-1.0,2.0,0.0,-4.0,6.0,4.0,1.0,0.0,1651071988138797.0,1
687,0.0,-4.0,-1.0,3.0,-7.0,-5.0,0.0,-1.0,1651071988138797.0,1
688,1.0,-1.0,-2.0,-3.0,-2.0,-1.0,0.0,-2.0,1651071988139739.0,1
689,-2.0,-2.0,-4.0,1.0,1.0,0.0,-1.0,-1.0,1651071988139739.0,1
690,-1.0,-2.0,-2.0,-2.0,5.0,1.0,0.0,0.0,1651071988160653.0,1
691,1.0,4.0,8.0,-4.0,-5.0,-2.0,0.0,0.0,1651071988160653.0,1
692,-1.0,-4.0,-4.0,0.0,-15.0,-4.0,-2.0,0.0,1651071988162580.0,1
693,0.0,0.0,-5.0,3.0,14.0,3.0,2.0,-1.0,1651071988162580.0,1
694,-2.0,-1.0,-2.0,-4.0,2.0,1.0,1.0,0.0,1651071988175794.0,1
695,0.0,0.0,1.0,-5.0,-3.0,3.0,0.0,-1.0,1651071988175794.0,1
696,-1.0,1.0,0.0,7.0,1.0,-1.0,-2.0,0.0,1651071988177721.0,1
697,-2.0,-2.0,-10.0,-2.0,-5.0,-3.0,-2.0,-2.0,1651071988177721.0,1
698,0.0,-2.0,-1.0,-3.0,-5.0,0.0,-1.0,0.0,1651071988198658.0,1
699,-1.0,2.0,1.0,-2.0,6.0,-2.0,-1.0,1.0,1651071988198658.0,1
700,-1.0,-3.0,-4.0,-12.0,-4.0,-1.0,-1.0,0.0,1651071988199598.0,1
701,-1.0,-3.0,-2.0,13.0,-1.0,0.0,0.0,-1.0,1651071988199598.0,1
702,1.0,1.0,2.0,3.0,1.0,0.0,0.0,-1.0,1651071988220764.0,1
703,1.0,3.0,7.0,-4.0,-8.0,-2.0,1.0,0.0,1651071988220764.0,1
704,-1.0,-3.0,-11.0,-2.0,3.0,0.0,-1.0,-2.0,1651071988222692.0,1
705,-1.0,-1.0,-5.0,-4.0,0.0,-1.0,0.0,0.0,1651071988222692.0,1
706,-1.0,-2.0,3.0,3.0,0.0,0.0,0.0,-1.0,1651071988235843.0,1
707,-2.0,1.0,-1.0,-1.0,-2.0,-1.0,-1.0,-2.0,1651071988235843.0,1
708,0.0,-1.0,-1.0,0.0,0.0,0.0,0.0,-1.0,1651071988237798.0,1
709,0.0,-1.0,-1.0,-3.0,-4.0,-3.0,-1.0,0.0,1651071988237798.0,1
710,0.0,0.0,-2.0,1.0,-4.0,-3.0,-3.0,2.0,1651071988257970.0,1
711,0.0,0.0,-2.0,-3.0,6.0,2.0,2.0,1.0,1651071988257970.0,1
712,1.0,-1.0,-1.0,3.0,10.0,3.0,0.0,2.0,1651071988266444.0,1
713,0.0,-2.0,-1.0,-1.0,-7.0,0.0,-1.0,-1.0,1651071988266444.0,1
714,0.0,-2.0,0.0,-2.0,4.0,-3.0,-1.0,-2.0,1651071988281505.0,1
715,-1.0,1.0,2.0,4.0,-1.0,-3.0,-2.0,-1.0,1651071988281505.0,1
716,0.0,-5.0,-7.0,-2.0,-2.0,2.0,1.0,1.0,1651071988282511.0,1
717,2.0,2.0,2.0,-4.0,2.0,0.0,0.0,1.0,1651071988282511.0,1
718,-2.0,-3.0,-9.0,-2.0,-4.0,-3.0,1.0,-1.0,1651071988295537.0,1
719,-1.0,-3.0,-8.0,-11.0,-3.0,3.0,-2.0,0.0,1651071988295537.0,1
720,-1.0,2.0,1.0,2.0,0.0,-2.0,-2.0,-3.0,1651071988302570.0,1
721,-1.0,3.0,7.0,0.0,0.0,1.0,0.0,1.0,1651071988302570.0,1
722,-2.0,0.0,1.0,1.0,3.0,0.0,-2.0,1.0,1651071988318515.0,1
723,0.0,-1.0,-5.0,2.0,-4.0,-3.0,1.0,0.0,1651071988318515.0,1
724,0.0,-2.0,-1.0,3.0,2.0,2.0,-1.0,-1.0,1651071988320442.0,1
725,-1.0,-4.0,-3.0,-3.0,0.0,-1.0,-1.0,-1.0,1651071988320442.0,1
726,2.0,1.0,0.0,-1.0,-1.0,-2.0,-2.0,0.0,1651071988341422.0,1
727,-1.0,0.0,1.0,10.0,3.0,0.0,-1.0,-2.0,1651071988341422.0,1
728,-1.0,-1.0,12.0,3.0,-4.0,-2.0,-1.0,0.0,1651071988342667.0,1
729,-2.0,-3.0,-7.0,1.0,4.0,2.0,0.0,-4.0,1651071988342667.0,1
730,-3.0,2.0,4.0,-5.0,2.0,3.0,0.0,-1.0,1651071988355646.0,1
731,0.0,-5.0,-10.0,-5.0,-7.0,-4.0,-2.0,0.0,1651071988355646.0,1
732,-1.0,0.0,7.0,3.0,-2.0,0.0,-2.0,-1.0,1651071988362657.0,1
733,-1.0,1.0,0.0,-7.0,-1.0,-1.0,-1.0,0.0,1651071988362657.0,1
734,0.0,0.0,1.0,3.0,5.0,0.0,-1.0,-1.0,1651071988378640.0,1
735,-1.0,-1.0,3.0,2.0,-3.0,-2.0,-1.0,0.0,1651071988378640.0,1
736,-1.0,0.0,-3.0,-3.0,-2.0,-4.0,-2.0,0.0,1651071988380568.0,1
737,0.0,0.0,-2.0,-1.0,0.0,2.0,-1.0,2.0,1651071988380568.0,1
738,-2.0,-4.0,-4.0,-5.0,-2.0,-1.0,-1.0,0.0,1651071988400732.0,1
739,1.0,3.0,1.0,0.0,2.0,3.0,0.0,0.0,1651071988400732.0,1
740,0.0,-3.0,-7.0,-4.0,11.0,3.0,-2.0,-1.0,1651071988402741.0,1
741,1.0,0.0,3.0,11.0,-5.0,-3.0,-2.0,1.0,1651071988402741.0,1
742,-1.0,-2.0,0.0,-1.0,-4.0,-4.0,0.0,-1.0,1651071988415750.0,1
743,-2.0,0.0,-2.0,-4.0,-2.0,-1.0,-3.0,-2.0,1651071988415750.0,1
744,-1.0,-2.0,-2.0,-3.0,3.0,2.0,2.0,1.0,1651071988421806.0,1
745,-1.0,-2.0,0.0,0.0,1.0,-1.0,0.0,-1.0,1651071988421806.0,1
746,0.0,0.0,2.0,1.0,-1.0,1.0,-1.0,0.0,1651071988438216.0,1
747,0.0,5.0,0.0,-3.0,-1.0,2.0,0.0,-1.0,1651071988438216.0,1
748,-1.0,-8.0,-18.0,-3.0,-6.0,-3.0,-2.0,0.0,1651071988440143.0,1
749,-1.0,1.0,1.0,-2.0,-2.0,-2.0,0.0,0.0,1651071988440143.0,1
750,1.0,0.0,1.0,0.0,5.0,2.0,2.0,0.0,1651071988461154.0,1
751,-1.0,0.0,1.0,2.0,2.0,-1.0,0.0,0.0,1651071988461154.0,1
752,0.0,0.0,3.0,-2.0,3.0,1.0,0.0,-1.0,1651071988462111.0,1
753,-1.0,-2.0,4.0,0.0,-7.0,-3.0,-1.0,-1.0,1651071988462111.0,1
754,-2.0,-2.0,-5.0,-10.0,-7.0,0.0,-1.0,0.0,1651071988475238.0,1
755,-3.0,-1.0,6.0,5.0,3.0,1.0,-2.0,0.0,1651071988475238.0,1
756,0.0,-1.0,-3.0,9.0,0.0,-1.0,-1.0,0.0,1651071988482219.0,1
757,1.0,-2.0,-3.0,-7.0,-1.0,1.0,1.0,0.0,1651071988482219.0,1
758,-1.0,1.0,-2.0,-4.0,7.0,3.0,3.0,0.0,1651071988498262.0,1
759,2.0,-1.0,-7.0,-3.0,-5.0,-6.0,-1.0,-1.0,1651071988498262.0,1
760,1.0,5.0,9.0,6.0,1.0,2.0,1.0,-2.0,1651071988500190.0,1
761,-1.0,0.0,0.0,0.0,-1.0,-2.0,-2.0,-2.0,1651071988500190.0,1
762,2.0,-1.0,-5.0,0.0,0.0,-2.0,-1.0,0.0,1651071988520693.0,1
763,-2.0,-5.0,-7.0,-9.0,-5.0,1.0,0.0,-2.0,1651071988520693.0,1
764,0.0,4.0,2.0,-1.0,-2.0,0.0,1.0,0.0,1651071988522618.0,1
765,0.0,2.0,1.0,1.0,5.0,3.0,0.0,-1.0,1651071988522618.0,1
766,-2.0,-8.0,-11.0,-2.0,0.0,1.0,-2.0,-1.0,1651071988535682.0,1
767,0.0,-4.0,1.0,-1.0,-3.0,-2.0,-1.0,0.0,1651071988535682.0,1
768,2.0,1.0,3.0,3.0,-4.0,-3.0,-3.0,0.0,1651071988541713.0,1
769,0.0,1.0,0.0,-3.0,-4.0,-2.0,0.0,0.0,1651071988541713.0,1
770,-1.0,3.0,17.0,6.0,4.0,1.0,0.0,1.0,1651071988558098.0,1
771,-3.0,-5.0,-25.0,-4.0,2.0,0.0,-1.0,0.0,1651071988558098.0,1
772,-2.0,-3.0,-6.0,-2.0,10.0,7.0,2.0,1.0,1651071988560026.0,1
773,-1.0,-2.0,10.0,3.0,-4.0,-4.0,-2.0,-3.0,1651071988560026.0,1
774,0.0,4.0,-10.0,1.0,-1.0,-1.0,1.0,1.0,1651071988581472.0,1
775,-1.0,-8.0,8.0,0.0,-1.0,-1.0,0.0,-2.0,1651071988581472.0,1
776,0.0,5.0,-5.0,-5.0,-4.0,-3.0,-1.0,1.0,1651071988582663.0,1
777,-4.0,-4.0,-1.0,2.0,2.0,0.0,0.0,-2.0,1651071988582663.0,1
778,1.0,9.0,19.0,-9.0,-5.0,-2.0,-1.0,-2.0,1651071988595827.0,1
779,-1.0,-3.0,2.0,8.0,0.0,0.0,-1.0,-3.0,1651071988595827.0,1
780,-1.0,-4.0,-11.0,-1.0,-4.0,0.0,-1.0,0.0,1651071988601797.0,1
781,1.0,8.0,21.0,0.0,-2.0,-4.0,2.0,0.0,1651071988601797.0,1
782,-3.0,-13.0,-4.0,0.0,3.0,2.0,0.0,0.0,1651071988618731.0,1
783,-2.0,1.0,-10.0,-11.0,-1.0,-2.0,0.0,-1.0,1651071988618731.0,1
784,1.0,-4.0,-2.0,-2.0,-2.0,-3.0,-1.0,-2.0,1651071988624664.0,1
785,5.0,-5.0,2.0,3.0,1.0,1.0,1.0,1.0,1651071988624664.0,1
786,-6.0,18.0,20.0,9.0,-5.0,-2.0,-3.0,-4.0,1651071988641526.0,1
787,-11.0,-2.0,14.0,0.0,2.0,0.0,2.0,1.0,1651071988641526.0,1
788,-1.0,8.0,15.0,-4.0,-6.0,-3.0,0.0,-1.0,1651071988642504.0,1
789,-4.0,-24.0,-61.0,-6.0,0.0,0.0,-2.0,-2.0,1651071988642504.0,1
790,6.0,3.0,-9.0,5.0,2.0,0.0,0.0,1.0,1651071988655619.0,1
791,2.0,5.0,27.0,4.0,2.0,1.0,-2.0,-1.0,1651071988655619.0,1
792,7.0,6.0,-8.0,-9.0,-6.0,-7.0,-3.0,-1.0,1651071988663679.0,1
793,-10.0,4.0,10.0,-5.0,1.0,1.0,3.0,4.0,1651071988663679.0,1
794,-5.0,-8.0,-1.0,4.0,0.0,2.0,1.0,-2.0,1651071988678734.0,1
795,5.0,-5.0,-14.0,0.0,-2.0,0.0,-1.0,-1.0,1651071988678734.0,1
796,-8.0,-6.0,4.0,-6.0,4.0,1.0,0.0,0.0,1651071988679670.0,1
797,9.0,-1.0,3.0,13.0,3.0,1.0,-2.0,1.0,1651071988679670.0,1
798,-19.0,-3.0,-10.0,-6.0,-6.0,-3.0,-2.0,-1.0,1651071988701332.0,1
799,15.0,-15.0,-19.0,-5.0,-7.0,1.0,-1.0,0.0,1651071988701332.0,1
800,5.0,4.0,8.0,0.0,-3.0,-6.0,-2.0,-1.0,1651071988702329.0,1
801,-4.0,1.0,-2.0,-2.0,6.0,2.0,-1.0,0.0,1651071988702329.0,1
802,12.0,-3.0,3.0,1.0,4.0,3.0,2.0,3.0,1651071988714871.0,1
803,-3.0,9.0,9.0,-1.0,-1.0,2.0,2.0,1.0,1651071988714871.0,1
804,-7.0,-9.0,7.0,0.0,-7.0,-2.0,-2.0,-3.0,1651071988723896.0,1
805,-5.0,2.0,-23.0,-7.0,-4.0,-3.0,0.0,-1.0,1651071988723896.0,1
806,6.0,2.0,15.0,12.0,1.0,-1.0,-1.0,-2.0,1651071988739024.0,1
807,-7.0,1.0,-13.0,-10.0,-3.0,-2.0,-1.0,0.0,1651071988739024.0,1
808,-6.0,-3.0,11.0,4.0,3.0,-1.0,-1.0,0.0,1651071988739965.0,1
809,9.0,9.0,12.0,2.0,-2.0,0.0,0.0,1.0,1651071988739965.0,1
810,-1.0,-7.0,-18.0,-10.0,-2.0,-3.0,-2.0,-1.0,1651071988760124.0,1
811,-2.0,4.0,18.0,5.0,4.0,2.0,-1.0,1.0,1651071988760124.0,1
812,2.0,3.0,-6.0,0.0,2.0,4.0,1.0,2.0,1651071988769033.0,1
813,5.0,-9.0,8.0,7.0,1.0,1.0,-1.0,-1.0,1651071988769033.0,1
814,-6.0,6.0,-8.0,4.0,-4.0,0.0,-2.0,-2.0,1651071988775084.0,1
815,6.0,6.0,9.0,16.0,-2.0,1.0,0.0,0.0,1651071988775084.0,1
816,-2.0,-4.0,-9.0,-5.0,2.0,-1.0,-1.0,-1.0,1651071988783274.0,1
817,1.0,4.0,5.0,-30.0,-11.0,-3.0,-1.0,-1.0,1651071988783274.0,1
818,-8.0,-1.0,2.0,0.0,1.0,1.0,-1.0,-2.0,1651071988798262.0,1
819,8.0,4.0,-1.0,-13.0,6.0,2.0,1.0,-1.0,1651071988798262.0,1
820,-8.0,-15.0,-19.0,14.0,-2.0,1.0,1.0,-1.0,1651071988800191.0,1
821,7.0,2.0,33.0,0.0,0.0,-2.0,-2.0,-2.0,1651071988800191.0,1
822,-17.0,-20.0,-49.0,1.0,-3.0,-4.0,-2.0,-1.0,1651071988821354.0,1
823,2.0,17.0,25.0,13.0,3.0,0.0,1.0,2.0,1651071988821354.0,1
824,1.0,-3.0,-4.0,-7.0,3.0,2.0,-1.0,0.0,1651071988822285.0,1
825,25.0,1.0,-6.0,2.0,0.0,4.0,0.0,2.0,1651071988822285.0,1
826,16.0,0.0,8.0,-1.0,-5.0,-1.0,1.0,9.0,1651071988834644.0,1
827,-39.0,-7.0,-2.0,5.0,-2.0,-3.0,-3.0,-7.0,1651071988834644.0,1
828,2.0,3.0,7.0,-6.0,-4.0,-2.0,0.0,3.0,1651071988843340.0,1
829,-18.0,-13.0,-18.0,-6.0,3.0,1.0,0.0,-5.0,1651071988843340.0,0
830,22.0,1.0,-34.0,-2.0,7.0,2.0,2.0,2.0,1651071988858369.0,2
831,0.0,0.0,7.0,24.0,4.0,1.0,1.0,-1.0,1651071988858369.0,2
832,2.0,18.0,16.0,-10.0,1.0,3.0,1.0,1.0,1651071988860327.0,2
833,-11.0,-7.0,2.0,11.0,1.0,1.0,1.0,2.0,1651071988860327.0,2
834,11.0,-7.0,26.0,-5.0,-4.0,-5.0,-4.0,-6.0,1651071988881471.0,2
835,7.0,-13.0,-30.0,20.0,2.0,-5.0,-3.0,1.0,1651071988881471.0,2
836,3.0,-19.0,7.0,4.0,0.0,-2.0,-1.0,-1.0,1651071988882474.0,2
837,-52.0,10.0,-4.0,-44.0,-17.0,-2.0,-2.0,3.0,1651071988882474.0,2
838,-14.0,3.0,-12.0,-9.0,1.0,3.0,0.0,-6.0,1651071988894506.0,2
839,43.0,-12.0,6.0,10.0,10.0,6.0,3.0,7.0,1651071988894506.0,2
840,-73.0,6.0,34.0,33.0,-15.0,-15.0,-10.0,-22.0,1651071988903540.0,2
841,69.0,10.0,22.0,10.0,26.0,8.0,7.0,18.0,1651071988903540.0,2
842,-40.0,-18.0,-29.0,-17.0,-19.0,-8.0,-5.0,-15.0,1651071988918503.0,2
843,-25.0,7.0,-24.0,-14.0,-13.0,-7.0,-4.0,1.0,1651071988918503.0,2
844,91.0,-8.0,32.0,-2.0,16.0,10.0,6.0,10.0,1651071988920495.0,2
845,-80.0,9.0,29.0,53.0,8.0,5.0,3.0,5.0,1651071988920495.0,2
846,33.0,7.0,-25.0,-56.0,-6.0,-2.0,-1.0,-1.0,1651071988941557.0,2
847,13.0,-4.0,-7.0,32.0,-3.0,-4.0,-1.0,-12.0,1651071988941557.0,2
848,23.0,-7.0,-9.0,-35.0,-8.0,-3.0,0.0,4.0,1651071988942550.0,2
849,23.0,-28.0,-25.0,-5.0,-5.0,-3.0,-7.0,-9.0,1651071988942550.0,2
850,34.0,45.0,26.0,-17.0,25.0,12.0,5.0,6.0,1651071988954622.0,2
851,-97.0,-13.0,37.0,44.0,5.0,1.0,-3.0,-2.0,1651071988954622.0,2
852,27.0,4.0,-35.0,-49.0,-17.0,-5.0,-2.0,2.0,1651071988964235.0,2
853,-20.0,-28.0,-18.0,-21.0,-5.0,-2.0,0.0,-6.0,1651071988964235.0,2
854,-13.0,-31.0,24.0,73.0,2.0,-5.0,-5.0,1.0,1651071988978699.0,2
855,31.0,22.0,-1.0,-42.0,-11.0,-2.0,-2.0,-4.0,1651071988978699.0,2
856,-68.0,-2.0,12.0,-1.0,1.0,0.0,-4.0,-1.0,1651071988979637.0,2
857,25.0,38.0,-7.0,-40.0,-3.0,-6.0,0.0,-4.0,1651071988979637.0,2
858,52.0,-39.0,-31.0,-3.0,-5.0,-1.0,-1.0,-1.0,1651071989000649.0,2
859,-34.0,5.0,34.0,11.0,0.0,-4.0,-3.0,7.0,1651071989000649.0,2
860,25.0,-9.0,-39.0,82.0,7.0,6.0,3.0,8.0,1651071989002585.0,2
861,-82.0,-9.0,-21.0,26.0,13.0,7.0,0.0,-11.0,1651071989002585.0,2
862,61.0,47.0,87.0,-39.0,-18.0,-10.0,-3.0,-1.0,1651071989014617.0,2
863,71.0,-21.0,-9.0,-14.0,0.0,1.0,2.0,8.0,1651071989014617.0,2
864,8.0,18.0,6.0,-8.0,-3.0,-1.0,1.0,-7.0,1651071989023596.0,2
865,1.0,30.0,94.0,19.0,-3.0,0.0,1.0,1.0,1651071989023596.0,2
866,-22.0,-11.0,-42.0,47.0,15.0,2.0,0.0,4.0,1651071989037625.0,2
867,-5.0,-3.0,11.0,-26.0,-9.0,0.0,-2.0,-5.0,1651071989037625.0,2
868,-106.0,-13.0,-19.0,-14.0,-7.0,-3.0,0.0,-10.0,1651071989044606.0,2
869,82.0,-10.0,6.0,29.0,8.0,0.0,3.0,11.0,1651071989044606.0,2
870,-17.0,22.0,38.0,25.0,-7.0,2.0,2.0,4.0,1651071989061438.0,2
871,14.0,34.0,-2.0,-16.0,6.0,2.0,1.0,-3.0,1651071989061438.0,2
872,-10.0,-10.0,5.0,45.0,2.0,-4.0,-3.0,2.0,1651071989062630.0,2
873,9.0,7.0,-53.0,-48.0,-8.0,-6.0,-4.0,-4.0,1651071989062630.0,2
874,-24.0,-22.0,-9.0,-12.0,8.0,4.0,0.0,-2.0,1651071989083681.0,2
875,9.0,15.0,10.0,-3.0,0.0,6.0,6.0,3.0,1651071989083681.0,2
876,5.0,25.0,-6.0,36.0,1.0,-1.0,-1.0,-1.0,1651071989084702.0,2
877,-19.0,-8.0,-53.0,-34.0,-17.0,-6.0,-4.0,-4.0,1651071989084702.0,2
878,-109.0,-8.0,22.0,34.0,7.0,2.0,1.0,-6.0,1651071989097707.0,2
879,-11.0,-29.0,-29.0,-6.0,14.0,4.0,-3.0,-18.0,1651071989097707.0,2
880,11.0,-2.0,9.0,-52.0,-1.0,4.0,5.0,5.0,1651071989104688.0,2
881,-11.0,-7.0,-13.0,13.0,-11.0,-9.0,-6.0,-9.0,1651071989104688.0,2
882,1.0,11.0,-14.0,32.0,3.0,2.0,3.0,1.0,1651071989122674.0,2
883,-4.0,-36.0,-42.0,-63.0,-7.0,-1.0,0.0,9.0,1651071989122674.0,2
884,-32.0,16.0,-1.0,3.0,6.0,3.0,1.0,-2.0,1651071989123686.0,2
885,21.0,-8.0,-34.0,-15.0,-7.0,-1.0,-1.0,-2.0,1651071989123686.0,2
886,58.0,-1.0,54.0,27.0,-1.0,-1.0,2.0,5.0,1651071989143787.0,2
887,-11.0,3.0,51.0,-12.0,10.0,4.0,5.0,8.0,1651071989143787.0,2
888,38.0,9.0,-13.0,-14.0,-9.0,-4.0,-3.0,-4.0,1651071989144797.0,2
889,20.0,-19.0,-39.0,-25.0,-2.0,2.0,-1.0,0.0,1651071989144797.0,2
890,1.0,4.0,-29.0,-31.0,-2.0,0.0,-2.0,1.0,1651071989158635.0,2
891,7.0,11.0,19.0,31.0,-2.0,1.0,0.0,0.0,1651071989158635.0,2
892,6.0,-27.0,31.0,71.0,16.0,4.0,-1.0,1.0,1651071989159632.0,2
893,7.0,26.0,34.0,-32.0,3.0,3.0,5.0,3.0,1651071989159632.0,2
894,11.0,-14.0,-11.0,-20.0,-3.0,-1.0,0.0,2.0,1651071989180932.0,2
895,-8.0,-2.0,-103.0,-10.0,5.0,-2.0,-4.0,-7.0,1651071989180932.0,2
896,32.0,-4.0,2.0,-13.0,-7.0,-4.0,-1.0,4.0,1651071989182958.0,2
897,-7.0,-4.0,8.0,7.0,-3.0,-1.0,-2.0,-2.0,1651071989182958.0,2
898,46.0,10.0,4.0,25.0,-3.0,-3.0,-1.0,-1.0,1651071989211262.0,2
899,-36.0,0.0,20.0,48.0,-4.0,-3.0,-2.0,1.0,1651071989211262.0,2
900,6.0,-6.0,-40.0,-62.0,-12.0,-4.0,-5.0,-4.0,1651071989212261.0,2
901,1.0,3.0,0.0,7.0,9.0,4.0,1.0,0.0,1651071989212261.0,2
902,-26.0,-8.0,14.0,-25.0,-3.0,0.0,1.0,-1.0,1651071989218246.0,2
903,9.0,10.0,79.0,56.0,0.0,0.0,0.0,3.0,1651071989218246.0,2
904,-16.0,-2.0,-42.0,-35.0,-2.0,0.0,-2.0,-9.0,1651071989220268.0,2
905,-60.0,-20.0,-22.0,21.0,5.0,0.0,-4.0,-3.0,1651071989220268.0,2
906,26.0,-11.0,50.0,-32.0,6.0,5.0,3.0,5.0,1651071989240600.0,2
907,-3.0,-14.0,-5.0,36.0,-7.0,-8.0,-1.0,-4.0,1651071989240600.0,2
908,-11.0,-10.0,-11.0,-55.0,-6.0,-4.0,0.0,4.0,1651071989247590.0,2
909,-26.0,25.0,39.0,39.0,1.0,-3.0,-3.0,-7.0,1651071989247590.0,2
910,-20.0,8.0,-40.0,-36.0,-2.0,0.0,0.0,-3.0,1651071989263676.0,2
911,3.0,17.0,32.0,-9.0,8.0,3.0,-1.0,-1.0,1651071989263676.0,2
912,33.0,28.0,64.0,50.0,13.0,2.0,1.0,7.0,1651071989264599.0,2
913,12.0,-18.0,-7.0,-21.0,-8.0,0.0,1.0,4.0,1651071989264599.0,2
914,7.0,27.0,9.0,6.0,0.0,0.0,0.0,-3.0,1651071989277567.0,2
915,51.0,6.0,21.0,13.0,0.0,0.0,1.0,2.0,1651071989277567.0,2
916,-50.0,-4.0,-29.0,6.0,2.0,1.0,1.0,-5.0,1651071989284615.0,2
917,16.0,1.0,51.0,-40.0,-14.0,-5.0,-2.0,2.0,1651071989284615.0,2
918,-36.0,-8.0,-19.0,25.0,4.0,-1.0,-1.0,-3.0,1651071989301618.0,2
919,25.0,11.0,11.0,-50.0,0.0,-1.0,0.0,1.0,1651071989301618.0,2
920,5.0,-3.0,43.0,2.0,-8.0,-5.0,1.0,1.0,1651071989302626.0,2
921,5.0,-15.0,1.0,66.0,5.0,0.0,-1.0,-2.0,1651071989302626.0,2
922,0.0,8.0,9.0,-6.0,-5.0,0.0,-2.0,0.0,1651071989323685.0,2
923,-17.0,-7.0,-17.0,-66.0,-11.0,-1.0,-2.0,-6.0,1651071989323685.0,2
924,16.0,1.0,-6.0,19.0,4.0,3.0,0.0,-1.0,1651071989325608.0,2
925,-23.0,21.0,27.0,25.0,3.0,-2.0,-3.0,-6.0,1651071989325608.0,2
926,-1.0,-16.0,-4.0,40.0,0.0,-2.0,0.0,2.0,1651071989337634.0,2
927,-12.0,-20.0,-46.0,-12.0,-4.0,2.0,1.0,3.0,1651071989337634.0,2
928,-15.0,10.0,60.0,-7.0,9.0,4.0,4.0,5.0,1651071989344615.0,2
929,66.0,-34.0,-35.0,7.0,-8.0,-4.0,1.0,3.0,1651071989344615.0,2
930,-63.0,-2.0,-75.0,-7.0,5.0,0.0,-2.0,0.0,1651071989360616.0,2
931,5.0,-7.0,-18.0,-48.0,-22.0,-5.0,1.0,1.0,1651071989360616.0,2
932,-7.0,-16.0,-7.0,70.0,4.0,-7.0,-7.0,-4.0,1651071989362615.0,2
933,6.0,8.0,34.0,38.0,12.0,6.0,3.0,2.0,1651071989362615.0,2
934,9.0,17.0,53.0,4.0,1.0,1.0,0.0,-1.0,1651071989383630.0,2
935,3.0,-11.0,-20.0,-31.0,-3.0,0.0,-2.0,-5.0,1651071989383630.0,2
936,4.0,-7.0,-27.0,2.0,3.0,5.0,2.0,5.0,1651071989385554.0,2
937,-15.0,3.0,1.0,3.0,3.0,0.0,2.0,1.0,1651071989385554.0,2
938,19.0,1.0,-1.0,-17.0,-6.0,-2.0,-2.0,-2.0,1651071989397588.0,2
939,-33.0,12.0,15.0,13.0,0.0,0.0,0.0,-3.0,1651071989397588.0,2
940,35.0,-22.0,-29.0,15.0,10.0,2.0,0.0,1.0,1651071989404570.0,2
941,17.0,-17.0,-29.0,-46.0,-12.0,-5.0,-2.0,-5.0,1651071989404570.0,2
942,-59.0,-20.0,-92.0,-23.0,-10.0,-2.0,-2.0,-9.0,1651071989421445.0,2
943,16.0,-20.0,35.0,61.0,17.0,2.0,0.0,11.0,1651071989421445.0,2
944,-13.0,15.0,-30.0,-80.0,-19.0,-7.0,-2.0,-5.0,1651071989422617.0,2
945,-13.0,-1.0,12.0,23.0,7.0,1.0,0.0,0.0,1651071989422617.0,2
946,17.0,-12.0,12.0,-19.0,-11.0,-5.0,-3.0,-4.0,1651071989443677.0,2
947,13.0,16.0,-23.0,16.0,5.0,-3.0,-2.0,-1.0,1651071989443677.0,2
948,10.0,0.0,4.0,1.0,4.0,2.0,1.0,-1.0,1651071989444653.0,2
949,-26.0,5.0,8.0,9.0,5.0,3.0,0.0,0.0,1651071989444653.0,2
950,64.0,12.0,0.0,-12.0,-10.0,-4.0,-2.0,-1.0,1651071989457657.0,2
951,-5.0,17.0,-27.0,-18.0,-6.0,-6.0,-3.0,0.0,1651071989457657.0,2
952,6.0,10.0,71.0,-15.0,7.0,5.0,5.0,1.0,1651071989464639.0,2
953,-28.0,1.0,-40.0,8.0,-8.0,-1.0,1.0,1.0,1651071989464639.0,2
954,-18.0,-27.0,-11.0,-4.0,2.0,-2.0,-2.0,0.0,1651071989481543.0,2
955,4.0,-3.0,-40.0,-7.0,-2.0,2.0,1.0,1.0,1651071989481543.0,2
956,-74.0,13.0,-1.0,-33.0,-15.0,-3.0,-5.0,-9.0,1651071989482541.0,2
957,11.0,8.0,14.0,22.0,-2.0,-4.0,-6.0,-7.0,1651071989482541.0,2
958,-23.0,-9.0,12.0,-5.0,6.0,1.0,0.0,-1.0,1651071989503725.0,2
959,1.0,-10.0,-4.0,12.0,2.0,1.0,0.0,0.0,1651071989503725.0,2
960,8.0,4.0,-6.0,-13.0,9.0,4.0,1.0,-1.0,1651071989504788.0,2
961,24.0,17.0,18.0,-1.0,-7.0,2.0,2.0,6.0,1651071989504788.0,2
962,-19.0,0.0,-20.0,-10.0,-11.0,-12.0,-6.0,-5.0,1651071989517668.0,2
963,40.0,-5.0,11.0,-8.0,-6.0,-3.0,-1.0,-3.0,1651071989517668.0,2
964,-15.0,-11.0,-68.0,16.0,4.0,-1.0,-1.0,-3.0,1651071989524592.0,2
965,-35.0,9.0,13.0,-11.0,5.0,7.0,2.0,-1.0,1651071989524592.0,2
966,10.0,4.0,17.0,27.0,8.0,4.0,3.0,9.0,1651071989540723.0,2
967,35.0,28.0,13.0,-32.0,-4.0,2.0,1.0,3.0,1651071989540723.0,2
968,42.0,16.0,29.0,25.0,-11.0,1.0,3.0,8.0,1651071989542717.0,2
969,-71.0,1.0,-11.0,-2.0,2.0,-6.0,-5.0,-14.0,1651071989542717.0,2
970,25.0,14.0,3.0,-8.0,7.0,4.0,0.0,4.0,1651071989562835.0,2
971,-43.0,-11.0,14.0,8.0,3.0,0.0,-2.0,-1.0,1651071989562835.0,2
972,3.0,-7.0,-9.0,29.0,10.0,5.0,0.0,0.0,1651071989570133.0,2
973,15.0,11.0,15.0,-37.0,-12.0,-6.0,-1.0,0.0,1651071989570133.0,2
974,47.0,-10.0,-20.0,17.0,-6.0,-2.0,0.0,0.0,1651071989577177.0,2
975,-24.0,1.0,11.0,-12.0,1.0,1.0,0.0,-2.0,1651071989577177.0,2
976,17.0,2.0,14.0,13.0,2.0,-3.0,-3.0,-2.0,1651071989586214.0,2
977,10.0,-4.0,8.0,4.0,9.0,5.0,3.0,3.0,1651071989586214.0,2
978,15.0,3.0,-22.0,-17.0,-10.0,-6.0,-4.0,-4.0,1651071989601445.0,2
979,-78.0,-24.0,4.0,-18.0,-17.0,-7.0,-4.0,-7.0,1651071989601445.0,2
980,-14.0,-23.0,-35.0,1.0,-16.0,-6.0,-4.0,-5.0,1651071989602615.0,2
981,34.0,13.0,-27.0,-25.0,5.0,-1.0,-2.0,3.0,1651071989602615.0,2
982,-10.0,2.0,36.0,-4.0,7.0,6.0,6.0,7.0,1651071989623629.0,2
983,-11.0,3.0,14.0,30.0,9.0,4.0,1.0,-2.0,1651071989623629.0,2
984,-3.0,5.0,35.0,3.0,14.0,3.0,1.0,2.0,1651071989625553.0,2
985,39.0,-8.0,5.0,-78.0,-8.0,0.0,2.0,4.0,1651071989625553.0,2
986,-15.0,-35.0,-52.0,40.0,-5.0,-1.0,-1.0,-1.0,1651071989637597.0,2
987,-17.0,-13.0,-33.0,10.0,-7.0,-8.0,-5.0,-4.0,1651071989637597.0,2
988,26.0,4.0,0.0,-5.0,2.0,2.0,-1.0,0.0,1651071989662860.0,2
989,18.0,0.0,3.0,23.0,-1.0,3.0,1.0,4.0,1651071989662860.0,2
990,-53.0,-36.0,41.0,-4.0,6.0,2.0,2.0,-1.0,1651071989663871.0,2
991,30.0,6.0,4.0,21.0,8.0,3.0,2.0,3.0,1651071989663871.0,2
992,-1.0,-11.0,-7.0,-22.0,-16.0,-8.0,-2.0,0.0,1651071989666879.0,2
993,-13.0,-16.0,-14.0,11.0,3.0,-4.0,-2.0,0.0,1651071989666879.0,2
994,-3.0,27.0,35.0,-25.0,-6.0,0.0,0.0,-5.0,1651071989683684.0,2
995,-20.0,-20.0,-9.0,31.0,6.0,4.0,0.0,0.0,1651071989683684.0,2
996,10.0,-13.0,-2.0,12.0,8.0,-2.0,-5.0,0.0,1651071989685612.0,2
997,-3.0,15.0,23.0,6.0,-3.0,3.0,4.0,2.0,1651071989685612.0,2
998,4.0,-9.0,-2.0,-22.0,5.0,-2.0,-2.0,0.0,1651071989697628.0,2
999,20.0,1.0,20.0,4.0,0.0,2.0,-3.0,0.0,1651071989697628.0,2
1000,-20.0,-1.0,-15.0,-23.0,-4.0,-2.0,1.0,-1.0,1651071989706557.0,2
1001,55.0,-1.0,27.0,51.0,2.0,-1.0,-1.0,0.0,1651071989706557.0,2
1002,-9.0,18.0,-30.0,-68.0,-9.0,-1.0,-2.0,1.0,1651071989721470.0,2
1003,6.0,1.0,4.0,-14.0,-3.0,-4.0,-1.0,-2.0,1651071989721470.0,2
1004,9.0,4.0,26.0,25.0,15.0,6.0,1.0,2.0,1651071989722671.0,2
1005,-41.0,5.0,-44.0,-15.0,-9.0,-1.0,-4.0,-9.0,1651071989722671.0,2
1006,41.0,12.0,9.0,61.0,2.0,0.0,2.0,4.0,1651071989743780.0,2
1007,15.0,-9.0,-46.0,-50.0,-10.0,-4.0,-3.0,0.0,1651071989743780.0,2
1008,-44.0,-12.0,52.0,5.0,1.0,-1.0,1.0,1.0,1651071989744780.0,2
1009,-12.0,-5.0,-35.0,3.0,7.0,0.0,1.0,-2.0,1651071989744780.0,2
1010,26.0,3.0,50.0,63.0,12.0,6.0,5.0,6.0,1651071989756815.0,2
1011,-29.0,37.0,-5.0,-23.0,4.0,2.0,1.0,-3.0,1651071989756815.0,2
1012,12.0,-18.0,-72.0,-61.0,-22.0,-8.0,-5.0,-6.0,1651071989765802.0,2
1013,0.0,-16.0,48.0,34.0,0.0,-4.0,-3.0,1.0,1651071989765802.0,2
1014,-21.0,-14.0,-45.0,-45.0,-16.0,-5.0,-2.0,-4.0,1651071989780750.0,2
1015,16.0,5.0,27.0,31.0,4.0,0.0,1.0,1.0,1651071989780750.0,2
1016,26.0,17.0,24.0,40.0,13.0,5.0,2.0,3.0,1651071989782678.0,2
1017,-57.0,-5.0,-32.0,-14.0,-1.0,-1.0,-3.0,-7.0,1651071989782678.0,2
1018,-3.0,15.0,60.0,-34.0,-16.0,-8.0,-7.0,-5.0,1651071989803417.0,2
1019,-23.0,-8.0,-38.0,-16.0,0.0,-1.0,-2.0,-1.0,1651071989803417.0,2
1020,18.0,7.0,-3.0,5.0,-9.0,0.0,-1.0,-1.0,1651071989805431.0,2
1021,13.0,-24.0,-14.0,52.0,15.0,-1.0,-2.0,0.0,1651071989805431.0,2
1022,2.0,28.0,69.0,14.0,8.0,4.0,2.0,0.0,1651071989817554.0,2
1023,18.0,5.0,-56.0,-15.0,-1.0,-2.0,-1.0,-2.0,1651071989817554.0,2
1024,14.0,1.0,55.0,8.0,-2.0,0.0,3.0,5.0,1651071989826477.0,2
1025,4.0,0.0,-41.0,-49.0,-8.0,0.0,0.0,0.0,1651071989826477.0,2
1026,-24.0,-10.0,-10.0,5.0,1.0,-1.0,0.0,0.0,1651071989841522.0,2
1027,5.0,-5.0,25.0,22.0,-3.0,-1.0,-3.0,-1.0,1651071989841522.0,2
1028,-20.0,20.0,-13.0,-13.0,4.0,0.0,0.0,-3.0,1651071989842507.0,2
1029,49.0,13.0,27.0,2.0,-3.0,-1.0,-2.0,0.0,1651071989842507.0,2
1030,-17.0,-5.0,-21.0,7.0,-4.0,-2.0,-1.0,-3.0,1651071989863491.0,2
1031,-40.0,-14.0,-45.0,-16.0,-6.0,-6.0,-3.0,-3.0,1651071989863491.0,2
1032,3.0,-15.0,-19.0,26.0,3.0,-1.0,-3.0,0.0,1651071989865516.0,2
1033,-8.0,6.0,26.0,-7.0,-2.0,0.0,1.0,0.0,1651071989865516.0,2
1034,-12.0,7.0,2.0,7.0,3.0,4.0,2.0,1.0,1651071989877486.0,2
1035,53.0,-10.0,34.0,25.0,7.0,2.0,3.0,2.0,1651071989877486.0,2
1036,-18.0,2.0,-9.0,-35.0,-16.0,-5.0,-3.0,-3.0,1651071989886546.0,2
1037,-9.0,-18.0,13.0,-9.0,16.0,2.0,0.0,1.0,1651071989886546.0,2
1038,9.0,10.0,6.0,13.0,-1.0,-1.0,-2.0,-3.0,1651071989900705.0,2
1039,22.0,-11.0,27.0,19.0,7.0,4.0,1.0,6.0,1651071989900705.0,2
1040,22.0,10.0,-5.0,-23.0,-14.0,-4.0,-1.0,1.0,1651071989902629.0,2
1041,-19.0,-13.0,-19.0,-23.0,-9.0,-4.0,-3.0,1.0,1651071989902629.0,2
1042,-29.0,-3.0,-21.0,-16.0,10.0,5.0,1.0,-2.0,1651071989923812.0,2
1043,4.0,9.0,65.0,54.0,2.0,-3.0,-2.0,-4.0,1651071989923812.0,2
1044,-20.0,-10.0,-35.0,-21.0,5.0,4.0,-1.0,-2.0,1651071989924809.0,2
1045,1.0,-7.0,14.0,7.0,-7.0,-4.0,-5.0,-2.0,1651071989924809.0,2
1046,-9.0,-8.0,-5.0,-16.0,-7.0,-5.0,-5.0,0.0,1651071989936783.0,2
1047,-14.0,10.0,5.0,-21.0,1.0,6.0,3.0,2.0,1651071989936783.0,2
1048,20.0,-6.0,33.0,42.0,11.0,-1.0,-1.0,-3.0,1651071989945815.0,2
1049,-6.0,-11.0,-94.0,-23.0,-3.0,0.0,2.0,1.0,1651071989945815.0,2
1050,23.0,-9.0,-3.0,6.0,-8.0,-8.0,-3.0,4.0,1651071989968787.0,2
1051,25.0,21.0,-9.0,-6.0,-1.0,0.0,-2.0,1.0,1651071989968787.0,2
1052,6.0,15.0,7.0,-44.0,-6.0,0.0,-1.0,-3.0,1651071989969717.0,2
1053,3.0,1.0,13.0,13.0,3.0,0.0,-1.0,1.0,1651071989969717.0,2
1054,13.0,4.0,-21.0,-12.0,2.0,0.0,0.0,0.0,1651071989983808.0,2
1055,-13.0,1.0,-4.0,-23.0,-1.0,0.0,2.0,3.0,1651071989983808.0,2
1056,-7.0,1.0,12.0,21.0,0.0,-3.0,-1.0,1.0,1651071989984808.0,2
1057,-7.0,16.0,26.0,18.0,3.0,1.0,-1.0,-6.0,1651071989984808.0,2
1058,16.0,2.0,-9.0,8.0,9.0,5.0,2.0,0.0,1651071989996840.0,2
1059,-22.0,6.0,3.0,-26.0,-17.0,-6.0,-1.0,-2.0,1651071989996840.0,2
1060,-10.0,-15.0,-14.0,7.0,0.0,0.0,0.0,0.0,1651071990005802.0,2
1061,22.0,2.0,17.0,12.0,-1.0,1.0,1.0,2.0,1651071990005802.0,2
1062,3.0,3.0,-4.0,-59.0,3.0,2.0,-1.0,-2.0,1651071990021338.0,2
1063,35.0,-5.0,9.0,38.0,9.0,0.0,-1.0,-1.0,1651071990021338.0,2
1064,-6.0,13.0,15.0,13.0,-1.0,-1.0,0.0,0.0,1651071990022615.0,2
1065,-3.0,-4.0,-5.0,-5.0,1.0,1.0,1.0,0.0,1651071990022615.0,2
1066,-1.0,2.0,-3.0,22.0,-1.0,-3.0,1.0,3.0,1651071990043686.0,2
1067,-3.0,-5.0,15.0,-6.0,2.0,1.0,0.0,-3.0,1651071990043686.0,2
1068,-13.0,-18.0,-37.0,-23.0,-12.0,-3.0,-1.0,-1.0,1651071990044599.0,2
1069,13.0,5.0,33.0,1.0,0.0,0.0,1.0,2.0,1651071990044599.0,2
1070,-19.0,-3.0,13.0,8.0,-1.0,-2.0,-1.0,-5.0,1651071990066070.0,2
1071,-10.0,-2.0,5.0,-6.0,-1.0,-3.0,-2.0,-1.0,1651071990066070.0,2
1072,-1.0,0.0,-18.0,15.0,9.0,5.0,-1.0,-1.0,1651071990072054.0,2
1073,-10.0,3.0,0.0,-7.0,2.0,2.0,1.0,-1.0,1651071990072054.0,2
1074,3.0,3.0,16.0,16.0,-3.0,-2.0,-3.0,-2.0,1651071990081030.0,2
1075,-15.0,-8.0,-25.0,-22.0,-5.0,-2.0,-1.0,-1.0,1651071990081030.0,2
1076,-6.0,-2.0,7.0,4.0,-1.0,0.0,0.0,0.0,1651071990082958.0,2
1077,5.0,0.0,-18.0,-7.0,-2.0,-2.0,-2.0,-1.0,1651071990082958.0,2
1078,-2.0,-7.0,-20.0,-6.0,-2.0,0.0,1.0,0.0,1651071990104028.0,2
1079,-3.0,3.0,9.0,18.0,-3.0,-5.0,-2.0,-5.0,1651071990104028.0,2
1080,4.0,1.0,11.0,1.0,1.0,1.0,2.0,1.0,1651071990105020.0,2
1081,-1.0,-5.0,6.0,3.0,1.0,1.0,0.0,-1.0,1651071990105020.0,2
1082,0.0,0.0,-10.0,-1.0,0.0,-4.0,-2.0,-5.0,1651071990125964.0,2
1083,-6.0,-3.0,-17.0,-13.0,0.0,2.0,0.0,0.0,1651071990125964.0,2
1084,0.0,0.0,1.0,-1.0,-8.0,-5.0,-1.0,-3.0,1651071990127958.0,2
1085,-5.0,0.0,-2.0,-3.0,2.0,0.0,0.0,1.0,1651071990127958.0,2
1086,-4.0,2.0,8.0,8.0,6.0,4.0,0.0,-1.0,1651071990140990.0,2
1087,0.0,0.0,-8.0,0.0,-3.0,-1.0,-1.0,-1.0,1651071990140990.0,2
1088,-2.0,-5.0,-13.0,-11.0,-1.0,-2.0,-2.0,-2.0,1651071990142930.0,2
1089,1.0,7.0,6.0,0.0,-7.0,-2.0,-2.0,-2.0,1651071990142930.0,2
1090,0.0,-6.0,4.0,13.0,-5.0,-3.0,-2.0,0.0,1651071990163870.0,2
1091,-8.0,-1.0,-2.0,1.0,1.0,0.0,-1.0,-4.0,1651071990163870.0,2
1092,-1.0,0.0,-1.0,-5.0,7.0,3.0,1.0,0.0,1651071990164866.0,2
1093,0.0,1.0,3.0,19.0,-1.0,-4.0,-1.0,0.0,1651071990164866.0,2
1094,3.0,-1.0,0.0,-4.0,-6.0,0.0,1.0,2.0,1651071990186605.0,2
1095,-3.0,-3.0,-10.0,-8.0,5.0,5.0,3.0,0.0,1651071990186605.0,2
1096,-3.0,3.0,5.0,-3.0,-6.0,-5.0,-2.0,-3.0,1651071990187615.0,2
1097,-2.0,-6.0,-18.0,-9.0,-7.0,-3.0,-3.0,-3.0,1651071990187615.0,2
1098,-3.0,-1.0,-9.0,8.0,-8.0,-11.0,-2.0,-4.0,1651071990200571.0,2
1099,5.0,6.0,2.0,0.0,18.0,12.0,3.0,4.0,1651071990200571.0,2
1100,7.0,-2.0,-7.0,-3.0,3.0,12.0,4.0,4.0,1651071990208555.0,2
1101,0.0,-1.0,1.0,-5.0,-4.0,-5.0,0.0,0.0,1651071990208555.0,2
1102,-2.0,3.0,4.0,3.0,-3.0,1.0,0.0,1.0,1651071990223691.0,2
1103,-8.0,-15.0,-12.0,-6.0,-4.0,-12.0,-4.0,-5.0,1651071990223691.0,2
1104,-2.0,-2.0,-12.0,-6.0,4.0,-4.0,-3.0,-2.0,1651071990225602.0,2
1105,-1.0,3.0,14.0,8.0,-2.0,0.0,1.0,-1.0,1651071990225602.0,2
1106,-1.0,0.0,-12.0,12.0,7.0,-1.0,-1.0,0.0,1651071990245737.0,2
1107,-1.0,0.0,7.0,11.0,29.0,16.0,4.0,2.0,1651071990245737.0,2
1108,1.0,1.0,-5.0,4.0,-10.0,-2.0,2.0,1.0,1651071990247665.0,2
1109,-5.0,0.0,-10.0,-7.0,-5.0,-3.0,1.0,0.0,1651071990247665.0,2
1110,-2.0,-8.0,-14.0,-20.0,-8.0,-4.0,-3.0,-2.0,1651071990260630.0,2
1111,5.0,10.0,7.0,-7.0,-13.0,-7.0,-1.0,3.0,1651071990260630.0,2
1112,-3.0,-8.0,-3.0,8.0,2.0,-4.0,-1.0,-1.0,1651071990274661.0,2
1113,-6.0,1.0,-1.0,-12.0,1.0,2.0,-1.0,-2.0,1651071990274661.0,2
1114,-2.0,-4.0,19.0,12.0,3.0,4.0,1.0,-1.0,1651071990283679.0,2
1115,8.0,5.0,-6.0,0.0,-12.0,-6.0,-1.0,2.0,1651071990283679.0,2
1116,-2.0,0.0,6.0,-7.0,1.0,2.0,0.0,0.0,1651071990284605.0,2
1117,1.0,-2.0,1.0,-1.0,3.0,0.0,-1.0,-1.0,1651071990284605.0,2
1118,-4.0,-2.0,4.0,6.0,4.0,3.0,0.0,-1.0,1651071990306423.0,2
1119,-2.0,-1.0,5.0,-1.0,-15.0,-6.0,-1.0,-2.0,1651071990306423.0,2
1120,3.0,5.0,2.0,-2.0,3.0,-2.0,-1.0,-1.0,1651071990307356.0,2
1121,-1.0,1.0,-4.0,-2.0,-4.0,2.0,0.0,1.0,1651071990307356.0,2
1122,0.0,-3.0,-3.0,0.0,12.0,5.0,1.0,1.0,1651071990319436.0,2
1123,-3.0,2.0,0.0,-7.0,-18.0,-8.0,-2.0,-2.0,1651071990319436.0,2
1124,-1.0,2.0,13.0,7.0,14.0,5.0,-2.0,-1.0,1651071990328399.0,2
1125,4.0,-5.0,-1.0,-2.0,4.0,2.0,2.0,0.0,1651071990328399.0,2
1126,2.0,4.0,-18.0,-4.0,-3.0,0.0,0.0,1.0,1651071990343572.0,2
1127,-6.0,-15.0,-22.0,2.0,-13.0,-4.0,-3.0,-5.0,1651071990343572.0,2
1128,-1.0,4.0,11.0,-4.0,8.0,-2.0,-1.0,0.0,1651071990345500.0,2
1129,5.0,6.0,8.0,-5.0,-4.0,1.0,-1.0,1.0,1651071990345500.0,2
1130,1.0,0.0,2.0,5.0,1.0,1.0,0.0,-1.0,1651071990365637.0,2
1131,-3.0,1.0,-3.0,-7.0,1.0,1.0,0.0,-2.0,1651071990365637.0,2
1132,-4.0,-4.0,-1.0,7.0,-2.0,0.0,-1.0,-2.0,1651071990367566.0,2
1133,1.0,6.0,7.0,4.0,5.0,1.0,-1.0,1.0,1651071990367566.0,2
1134,2.0,2.0,5.0,-8.0,-3.0,-2.0,1.0,1.0,1651071990380639.0,2
1135,-3.0,2.0,9.0,7.0,-5.0,-2.0,-1.0,-1.0,1651071990380639.0,2
1136,-2.0,-2.0,-6.0,2.0,1.0,-1.0,0.0,0.0,1651071990387614.0,2
1137,2.0,-3.0,-10.0,-1.0,1.0,-2.0,0.0,0.0,1651071990387614.0,2
1138,0.0,2.0,-3.0,-3.0,-9.0,-3.0,-1.0,0.0,1651071990404715.0,2
1139,0.0,-6.0,10.0,-3.0,8.0,-2.0,-2.0,-2.0,1651071990404715.0,2
1140,-2.0,-4.0,-4.0,-6.0,-1.0,3.0,0.0,-3.0,1651071990406710.0,2
1141,0.0,0.0,-8.0,1.0,0.0,0.0,-1.0,-1.0,1651071990406710.0,2
1142,-3.0,1.0,-11.0,6.0,1.0,-2.0,-1.0,-3.0,1651071990425527.0,2
1143,0.0,1.0,9.0,6.0,-4.0,-3.0,-3.0,0.0,1651071990425527.0,2
1144,0.0,-3.0,-17.0,-4.0,-6.0,-2.0,-1.0,-1.0,1651071990433390.0,2
1145,-4.0,-5.0,-3.0,-2.0,-2.0,-3.0,-1.0,-2.0,1651071990433390.0,2
1146,-2.0,-2.0,6.0,0.0,8.0,4.0,0.0,0.0,1651071990440556.0,2
1147,-1.0,3.0,-6.0,-6.0,-9.0,-6.0,-2.0,-1.0,1651071990440556.0,2
1148,-3.0,-10.0,-4.0,0.0,3.0,0.0,-1.0,-2.0,1651071990447536.0,2
1149,2.0,2.0,-3.0,0.0,7.0,3.0,1.0,0.0,1651071990447536.0,2
1150,1.0,0.0,21.0,-9.0,-7.0,-3.0,-2.0,-1.0,1651071990463680.0,2
1151,-2.0,-1.0,8.0,19.0,-8.0,-1.0,0.0,0.0,1651071990463680.0,2
1152,0.0,4.0,-2.0,-8.0,-1.0,-4.0,0.0,0.0,1651071990465558.0,2
1153,-4.0,-11.0,-9.0,-5.0,-2.0,-3.0,-3.0,-1.0,1651071990465558.0,2
1154,-1.0,-1.0,13.0,4.0,-3.0,-3.0,-1.0,-4.0,1651071990485668.0,2
1155,1.0,-1.0,-29.0,-9.0,11.0,8.0,1.0,0.0,1651071990485668.0,2
1156,1.0,5.0,13.0,-3.0,-14.0,-5.0,0.0,1.0,1651071990487597.0,2
1157,-2.0,-1.0,0.0,3.0,0.0,0.0,0.0,-1.0,1651071990487597.0,2
1158,-1.0,-7.0,-3.0,-2.0,2.0,-2.0,-1.0,-1.0,1651071990500769.0,2
1159,2.0,4.0,17.0,-1.0,2.0,2.0,-2.0,-1.0,1651071990500769.0,2
1160,0.0,0.0,-21.0,5.0,-1.0,-1.0,1.0,0.0,1651071990507615.0,2
1161,1.0,1.0,10.0,-9.0,-2.0,-1.0,0.0,-2.0,1651071990507615.0,2
1162,0.0,-2.0,-19.0,3.0,-6.0,-1.0,-3.0,0.0,1651071990523691.0,2
1163,-3.0,-10.0,-16.0,-7.0,8.0,-1.0,0.0,0.0,1651071990523691.0,2
1164,0.0,0.0,12.0,8.0,9.0,3.0,-1.0,0.0,1651071990524656.0,2
1165,1.0,2.0,7.0,2.0,-17.0,-1.0,0.0,1.0,1651071990524656.0,2
1166,0.0,-1.0,-6.0,1.0,11.0,-1.0,0.0,-2.0,1651071990545870.0,2
1167,0.0,2.0,7.0,1.0,-4.0,1.0,0.0,-1.0,1651071990545870.0,2
1168,-2.0,0.0,-3.0,-8.0,-14.0,-6.0,-3.0,0.0,1651071990547797.0,2
1169,-2.0,-2.0,-1.0,0.0,1.0,-2.0,-2.0,0.0,1651071990547797.0,2
1170,3.0,1.0,9.0,3.0,1.0,3.0,1.0,0.0,1651071990559765.0,2
1171,2.0,0.0,-4.0,0.0,3.0,0.0,0.0,-1.0,1651071990559765.0,2
1172,0.0,10.0,14.0,5.0,3.0,4.0,0.0,-1.0,1651071990568741.0,2
1173,-7.0,-19.0,-17.0,-7.0,-10.0,-7.0,-4.0,-4.0,1651071990568741.0,2
1174,-2.0,4.0,3.0,-3.0,-1.0,2.0,0.0,0.0,1651071990583733.0,2
1175,0.0,0.0,-5.0,2.0,6.0,0.0,0.0,-1.0,1651071990583733.0,2
1176,1.0,4.0,15.0,-3.0,-9.0,-3.0,-1.0,0.0,1651071990584703.0,2
1177,-1.0,4.0,1.0,-2.0,3.0,0.0,-1.0,0.0,1651071990584703.0,2
1178,1.0,-3.0,7.0,6.0,4.0,-1.0,-3.0,0.0,1651071990605790.0,2
1179,-1.0,-2.0,-19.0,-6.0,-4.0,-1.0,-1.0,0.0,1651071990605790.0,2
1180,-1.0,2.0,15.0,-2.0,-6.0,-3.0,0.0,0.0,1651071990607730.0,2
1181,1.0,-2.0,-22.0,-1.0,4.0,4.0,2.0,-1.0,1651071990607730.0,2
1182,-1.0,-3.0,-7.0,2.0,8.0,1.0,1.0,1.0,1651071990619795.0,2
1183,-2.0,4.0,7.0,-3.0,3.0,3.0,-1.0,0.0,1651071990619795.0,2
1184,2.0,2.0,17.0,0.0,-6.0,-6.0,-2.0,0.0,1651071990628775.0,2
1185,1.0,-3.0,-1.0,8.0,16.0,4.0,-1.0,1.0,1651071990628775.0,2
1186,-2.0,6.0,15.0,-2.0,-2.0,0.0,0.0,-1.0,1651071990644008.0,2
1187,-1.0,-1.0,-3.0,-6.0,-6.0,-1.0,-1.0,-1.0,1651071990644008.0,2
1188,-2.0,-8.0,-16.0,0.0,3.0,0.0,-4.0,0.0,1651071990644999.0,2
1189,1.0,4.0,4.0,1.0,-7.0,-3.0,-1.0,0.0,1651071990644999.0,2
1190,-2.0,-1.0,10.0,2.0,-4.0,-1.0,-1.0,1.0,1651071990666469.0,2
1191,1.0,0.0,-4.0,-1.0,6.0,-1.0,-1.0,0.0,1651071990666469.0,2
1192,-1.0,-5.0,-17.0,-2.0,2.0,4.0,1.0,-1.0,1651071990667451.0,2
1193,1.0,7.0,21.0,1.0,0.0,-1.0,-1.0,0.0,1651071990667451.0,2
1194,0.0,-6.0,-18.0,-1.0,-1.0,-1.0,1.0,-2.0,1651071990680445.0,2
1195,-2.0,3.0,4.0,-4.0,-11.0,-1.0,1.0,-1.0,1651071990680445.0,2
1196,2.0,1.0,10.0,1.0,5.0,3.0,2.0,1.0,1651071990688404.0,2
1197,-2.0,-6.0,-14.0,-1.0,4.0,-2.0,-2.0,0.0,1651071990688404.0,2
1198,-2.0,-7.0,-28.0,0.0,2.0,1.0,-1.0,-1.0,1651071990703409.0,2
1199,-1.0,-7.0,-5.0,-2.0,-4.0,-4.0,-1.0,0.0,1651071990703409.0,2
1200,-2.0,-3.0,-7.0,-1.0,-1.0,1.0,-1.0,-2.0,1651071990705337.0,2
1201,-1.0,5.0,9.0,-5.0,-5.0,-4.0,-3.0,-1.0,1651071990705337.0,2
1202,0.0,3.0,1.0,3.0,-10.0,-1.0,-2.0,-3.0,1651071990726450.0,2
1203,2.0,8.0,6.0,3.0,14.0,3.0,1.0,1.0,1651071990726450.0,2
1204,-2.0,-6.0,-2.0,-6.0,-5.0,-1.0,0.0,1.0,1651071990727361.0,2
1205,0.0,-1.0,8.0,-2.0,2.0,-2.0,2.0,-1.0,1651071990727361.0,2
1206,0.0,3.0,-3.0,-8.0,-4.0,2.0,1.0,2.0,1651071990739397.0,2
1207,0.0,-1.0,-2.0,3.0,-1.0,-1.0,0.0,-1.0,1651071990739397.0,2
1208,-2.0,0.0,6.0,0.0,-2.0,-2.0,-2.0,-1.0,1651071990748333.0,2
1209,1.0,4.0,9.0,0.0,-1.0,0.0,0.0,0.0,1651071990748333.0,2
1210,-3.0,-10.0,-17.0,-4.0,-1.0,-1.0,-1.0,-2.0,1651071990763463.0,2
1211,-1.0,0.0,0.0,7.0,6.0,1.0,-1.0,1.0,1651071990763463.0,2
1212,-3.0,-2.0,4.0,-5.0,1.0,0.0,0.0,-1.0,1651071990765487.0,2
1213,1.0,0.0,5.0,17.0,0.0,0.0,-1.0,0.0,1651071990765487.0,2
1214,1.0,4.0,-2.0,-5.0,1.0,0.0,-1.0,-1.0,1651071990786525.0,2
1215,0.0,-3.0,-3.0,-3.0,-8.0,0.0,-1.0,-1.0,1651071990786525.0,2
1216,-2.0,-3.0,-10.0,-4.0,-3.0,-2.0,-1.0,-1.0,1651071990787512.0,2
1217,-1.0,2.0,-2.0,-3.0,0.0,0.0,-1.0,1.0,1651071990787512.0,2
1218,0.0,-2.0,10.0,4.0,3.0,-1.0,-1.0,-1.0,1651071990799547.0,2
1219,1.0,1.0,-2.0,-8.0,-14.0,-5.0,0.0,1.0,1651071990799547.0,2
1220,1.0,0.0,-4.0,9.0,13.0,4.0,1.0,-1.0,1651071990808457.0,2
1221,-3.0,-4.0,5.0,-7.0,-7.0,0.0,0.0,-1.0,1651071990808457.0,2
1222,0.0,2.0,-6.0,3.0,0.0,-2.0,0.0,1.0,1651071990823523.0,2
1223,-2.0,-2.0,1.0,-1.0,-7.0,-2.0,-1.0,-1.0,1651071990823523.0,2
1224,2.0,-2.0,-5.0,2.0,4.0,-2.0,-2.0,0.0,1651071990825517.0,2
1225,0.0,1.0,3.0,-2.0,-5.0,-2.0,-1.0,-2.0,1651071990825517.0,2
1226,1.0,6.0,3.0,-2.0,-4.0,-1.0,-1.0,-1.0,1651071990845636.0,2
1227,-1.0,-1.0,3.0,-1.0,1.0,0.0,0.0,-1.0,1651071990845636.0,2
1228,1.0,5.0,7.0,2.0,-1.0,-2.0,0.0,0.0,1651071990847631.0,2
1229,-1.0,-4.0,-13.0,1.0,11.0,4.0,2.0,0.0,1651071990847631.0,2
1230,-2.0,-10.0,5.0,0.0,-6.0,-6.0,-2.0,1.0,1651071990859666.0,2
1231,-1.0,-1.0,6.0,3.0,5.0,1.0,1.0,-2.0,1651071990859666.0,2
1232,-2.0,-1.0,-10.0,-1.0,-6.0,-2.0,0.0,0.0,1651071990874751.0,2
1233,1.0,2.0,-2.0,-2.0,-5.0,-3.0,-2.0,-1.0,1651071990874751.0,2
1234,2.0,13.0,0.0,-1.0,2.0,0.0,1.0,0.0,1651071990883781.0,2
1235,-3.0,-26.0,5.0,0.0,-2.0,1.0,-1.0,1.0,1651071990883781.0,2
1236,2.0,5.0,-11.0,-3.0,-1.0,-2.0,-1.0,-1.0,1651071990884767.0,2
1237,-2.0,5.0,-7.0,1.0,-1.0,-2.0,0.0,0.0,1651071990884767.0,2
1238,-1.0,-6.0,-2.0,-6.0,-5.0,-1.0,0.0,-1.0,1651071990905968.0,2
1239,0.0,11.0,1.0,-5.0,1.0,-3.0,-1.0,-1.0,1651071990905968.0,2
1240,-1.0,-4.0,-9.0,9.0,5.0,8.0,2.0,2.0,1651071990907920.0,2
1241,-2.0,-10.0,-1.0,5.0,4.0,0.0,-1.0,-1.0,1651071990907920.0,2
1242,-2.0,2.0,4.0,-1.0,2.0,-1.0,-2.0,1.0,1651071990919927.0,2
1243,-1.0,1.0,2.0,-2.0,5.0,0.0,-3.0,0.0,1651071990919927.0,2
1244,-1.0,-4.0,-8.0,-1.0,-4.0,-4.0,-1.0,-2.0,1651071990928846.0,2
1245,1.0,5.0,2.0,-6.0,-4.0,0.0,0.0,2.0,1651071990928846.0,2
1246,1.0,1.0,4.0,2.0,-4.0,1.0,-1.0,0.0,1651071990943132.0,2
1247,0.0,6.0,13.0,-3.0,0.0,0.0,0.0,-2.0,1651071990943132.0,2
1248,-4.0,-14.0,-39.0,-5.0,-6.0,-5.0,0.0,-2.0,1651071990945130.0,2
1249,0.0,1.0,-7.0,2.0,7.0,6.0,1.0,-2.0,1651071990945130.0,2
1250,-1.0,-9.0,-9.0,-5.0,-1.0,-2.0,-2.0,-2.0,1651071990966552.0,2
1251,2.0,5.0,3.0,18.0,7.0,-1.0,0.0,1.0,1651071990966552.0,2
1252,0.0,1.0,8.0,-12.0,-10.0,-5.0,-2.0,-1.0,1651071990967550.0,2
1253,-3.0,1.0,-18.0,-6.0,-19.0,-7.0,-3.0,-1.0,1651071990967550.0,2
1254,-2.0,-8.0,-9.0,-3.0,33.0,12.0,2.0,2.0,1651071990988700.0,2
1255,-1.0,6.0,1.0,-1.0,-3.0,0.0,-1.0,0.0,1651071990988700.0,2
1256,0.0,2.0,8.0,4.0,4.0,-3.0,-1.0,-1.0,1651071990989668.0,2
1257,1.0,-1.0,5.0,-2.0,-1.0,2.0,2.0,1.0,1651071990989668.0,2
1258,-2.0,1.0,9.0,3.0,-10.0,-3.0,-2.0,-2.0,1651071991003724.0,2
1259,0.0,-1.0,-7.0,-2.0,-2.0,1.0,0.0,0.0,1651071991003724.0,2
1260,1.0,3.0,5.0,3.0,1.0,-1.0,0.0,1.0,1651071991005625.0,2
1261,0.0,1.0,16.0,-3.0,-2.0,-2.0,-1.0,1.0,1651071991005625.0,2
1262,-1.0,-4.0,-9.0,1.0,-1.0,-3.0,1.0,-2.0,1651071991025621.0,2
1263,1.0,-7.0,-1.0,-2.0,4.0,2.0,1.0,-1.0,1651071991025621.0,2
1264,-2.0,5.0,3.0,-4.0,-6.0,-2.0,-1.0,-1.0,1651071991027549.0,2
1265,2.0,-2.0,12.0,4.0,8.0,2.0,1.0,-2.0,1651071991027549.0,2
1266,2.0,5.0,0.0,-1.0,-2.0,-1.0,0.0,2.0,1651071991048560.0,2
1267,-4.0,-5.0,-3.0,-4.0,-6.0,-3.0,-1.0,-1.0,1651071991048560.0,2
1268,2.0,-1.0,-2.0,2.0,3.0,2.0,1.0,0.0,1651071991050487.0,2
1269,0.0,3.0,18.0,-4.0,-7.0,-3.0,1.0,1.0,1651071991050487.0,2
1270,-3.0,-1.0,6.0,-1.0,3.0,0.0,-1.0,0.0,1651071991063520.0,2
1271,1.0,-4.0,-11.0,-2.0,6.0,6.0,0.0,2.0,1651071991063520.0,2
1272,-2.0,1.0,24.0,9.0,2.0,-1.0,-1.0,0.0,1651071991065447.0,2
1273,-1.0,-4.0,-32.0,-9.0,-7.0,-5.0,-2.0,-2.0,1651071991065447.0,2
1274,1.0,1.0,4.0,0.0,-11.0,-5.0,-1.0,0.0,1651071991086070.0,2
1275,1.0,5.0,3.0,-3.0,-2.0,-2.0,-1.0,-2.0,1651071991086070.0,2
1276,0.0,-5.0,-31.0,-4.0,-2.0,0.0,-1.0,-1.0,1651071991088051.0,2
1277,-3.0,-5.0,-3.0,-2.0,-3.0,-4.0,-1.0,-1.0,1651071991088051.0,2
1278,-2.0,-6.0,-5.0,9.0,10.0,5.0,2.0,-1.0,1651071991108567.0,2
1279,0.0,4.0,4.0,-5.0,-17.0,-3.0,0.0,0.0,1651071991108567.0,2
1280,-2.0,2.0,3.0,1.0,18.0,1.0,0.0,0.0,1651071991110529.0,2
1281,0.0,-1.0,3.0,3.0,2.0,1.0,-1.0,0.0,1651071991110529.0,2
1282,1.0,2.0,-6.0,-1.0,-5.0,-5.0,0.0,-1.0,1651071991122587.0,2
1283,0.0,-1.0,-1.0,0.0,1.0,4.0,1.0,1.0,1651071991122587.0,2
1284,2.0,-4.0,16.0,-5.0,-16.0,-3.0,-2.0,-1.0,1651071991129678.0,2
1285,-2.0,-2.0,-12.0,-1.0,4.0,0.0,0.0,0.0,1651071991129678.0,2
1286,-1.0,0.0,5.0,-7.0,-1.0,3.0,-1.0,1.0,1651071991153504.0,2
1287,-1.0,1.0,-6.0,11.0,-1.0,-5.0,-4.0,-1.0,1651071991153504.0,2
1288,0.0,2.0,3.0,-2.0,0.0,0.0,0.0,0.0,1651071991155522.0,2
1289,-1.0,-2.0,3.0,2.0,4.0,1.0,-2.0,-2.0,1651071991155522.0,2
1290,-1.0,-2.0,1.0,-1.0,-7.0,-2.0,0.0,0.0,1651071991168534.0,2
1291,-2.0,-2.0,3.0,-7.0,-3.0,-3.0,0.0,-1.0,1651071991168534.0,2
1292,1.0,4.0,13.0,1.0,-7.0,-1.0,1.0,-1.0,1651071991170488.0,2
1293,0.0,-1.0,13.0,3.0,8.0,3.0,-2.0,-2.0,1651071991170488.0,2
1294,-2.0,-5.0,-12.0,-4.0,6.0,0.0,-1.0,-1.0,1651071991182614.0,2
1295,1.0,0.0,2.0,2.0,1.0,-2.0,0.0,0.0,1651071991182614.0,2
1296,0.0,-2.0,-6.0,1.0,1.0,-1.0,-2.0,0.0,1651071991189582.0,2
1297,-1.0,3.0,5.0,-2.0,-10.0,-4.0,-1.0,0.0,1651071991189582.0,2
1298,2.0,6.0,5.0,1.0,-6.0,-4.0,0.0,-1.0,1651071991205788.0,2
1299,-2.0,-2.0,3.0,-2.0,5.0,1.0,0.0,0.0,1651071991205788.0,2
1300,-1.0,-4.0,-23.0,0.0,-1.0,0.0,0.0,-2.0,1651071991207771.0,2
1301,-1.0,-2.0,-5.0,-4.0,0.0,-1.0,1.0,-2.0,1651071991207771.0,2
1302,-1.0,2.0,4.0,2.0,5.0,5.0,0.0,-1.0,1651071991235886.0,2
1303,0.0,-5.0,-4.0,-1.0,-2.0,-1.0,-1.0,-1.0,1651071991235886.0,2
1304,0.0,0.0,3.0,-1.0,-2.0,-1.0,-1.0,1.0,1651071991237815.0,2
1305,0.0,2.0,-5.0,2.0,0.0,1.0,-2.0,0.0,1651071991237815.0,2
1306,0.0,0.0,1.0,1.0,-3.0,-2.0,0.0,0.0,1651071991242835.0,2
1307,0.0,2.0,0.0,-2.0,-2.0,-1.0,0.0,-1.0,1651071991242835.0,2
1308,-2.0,-4.0,-3.0,-2.0,1.0,1.0,-1.0,-1.0,1651071991249810.0,2
1309,1.0,-2.0,3.0,1.0,-9.0,-2.0,-1.0,-1.0,1651071991249810.0,2
1310,2.0,10.0,14.0,-1.0,5.0,2.0,-1.0,1.0,1651071991266630.0,2
1311,-4.0,-9.0,6.0,0.0,9.0,2.0,-1.0,-1.0,1651071991266630.0,2
1312,0.0,0.0,-13.0,4.0,1.0,1.0,-1.0,0.0,1651071991268559.0,2
1313,1.0,2.0,0.0,4.0,2.0,-3.0,-1.0,1.0,1651071991268559.0,2
1314,-1.0,0.0,3.0,-3.0,-14.0,-5.0,-1.0,-2.0,1651071991288671.0,2
1315,0.0,2.0,1.0,-5.0,-2.0,-1.0,-2.0,-1.0,1651071991288671.0,2
1316,-2.0,1.0,5.0,-2.0,0.0,-2.0,0.0,0.0,1651071991289664.0,2
1317,-1.0,3.0,5.0,-1.0,-1.0,-1.0,1.0,2.0,1651071991289664.0,2
1318,-1.0,-8.0,-28.0,-4.0,-9.0,-5.0,-1.0,-1.0,1651071991302767.0,2
1319,0.0,-4.0,-1.0,2.0,19.0,9.0,2.0,0.0,1651071991302767.0,2
1320,-1.0,-2.0,0.0,6.0,1.0,0.0,-4.0,-2.0,1651071991310052.0,2
1321,0.0,3.0,-3.0,-9.0,-3.0,-2.0,-2.0,0.0,1651071991310052.0,2
1322,2.0,2.0,0.0,-2.0,-7.0,-4.0,-3.0,0.0,1651071991326094.0,2
1323,-3.0,-8.0,-6.0,10.0,-4.0,-4.0,-4.0,-1.0,1651071991326094.0,2
1324,0.0,5.0,0.0,-6.0,-1.0,2.0,1.0,0.0,1651071991328030.0,2
1325,-1.0,0.0,0.0,1.0,1.0,1.0,1.0,-1.0,1651071991328030.0,2
1326,-3.0,2.0,23.0,-2.0,-4.0,0.0,0.0,-1.0,1651071991348191.0,2
1327,0.0,-8.0,-31.0,-6.0,-1.0,-3.0,-2.0,-2.0,1651071991348191.0,2
1328,-2.0,-5.0,10.0,-1.0,1.0,2.0,0.0,-1.0,1651071991350118.0,2
1329,-1.0,-2.0,-2.0,2.0,1.0,-2.0,0.0,-1.0,1651071991350118.0,2
1330,1.0,2.0,7.0,1.0,4.0,2.0,0.0,2.0,1651071991363194.0,2
1331,1.0,6.0,2.0,0.0,-6.0,-2.0,0.0,1.0,1651071991363194.0,2
1332,-3.0,0.0,2.0,-3.0,-2.0,-2.0,0.0,-2.0,1651071991369304.0,2
1333,-2.0,-1.0,-8.0,-2.0,1.0,1.0,1.0,-1.0,1651071991369304.0,2
1334,-1.0,-2.0,-5.0,0.0,-4.0,-2.0,-2.0,-2.0,1651071991386270.0,2
1335,-1.0,0.0,2.0,0.0,-4.0,-3.0,-2.0,-2.0,1651071991386270.0,2
1336,-1.0,-1.0,-1.0,1.0,7.0,3.0,0.0,-1.0,1651071991387261.0,2
1337,0.0,2.0,5.0,2.0,-1.0,-1.0,1.0,1.0,1651071991387261.0,2
1338,-2.0,-3.0,2.0,1.0,3.0,4.0,2.0,0.0,1651071991408409.0,2
1339,-1.0,-2.0,-8.0,-4.0,-3.0,-2.0,0.0,-1.0,1651071991408409.0,2
1340,0.0,2.0,3.0,-4.0,-4.0,0.0,0.0,-2.0,1651071991410367.0,2
1341,0.0,0.0,-2.0,1.0,0.0,-1.0,0.0,-1.0,1651071991410367.0,2
1342,-1.0,-1.0,1.0,-2.0,-8.0,-4.0,-1.0,-1.0,1651071991430658.0,2
1343,2.0,9.0,5.0,-4.0,1.0,-3.0,1.0,-1.0,1651071991430658.0,2
1344,-1.0,-5.0,-5.0,4.0,3.0,0.0,-1.0,-1.0,1651071991432586.0,2
1345,-3.0,-12.0,3.0,5.0,3.0,-1.0,-2.0,-2.0,1651071991432586.0,2
1346,-1.0,-7.0,-14.0,-2.0,6.0,6.0,1.0,-1.0,1651071991445550.0,2
1347,0.0,2.0,10.0,-6.0,-8.0,-1.0,-3.0,1.0,1651071991445550.0,2
1348,1.0,3.0,2.0,-2.0,-4.0,-1.0,0.0,0.0,1651071991447546.0,2
1349,0.0,2.0,0.0,-2.0,-1.0,0.0,0.0,-1.0,1651071991447546.0,2
1350,-1.0,-2.0,-5.0,1.0,-1.0,-3.0,1.0,0.0,1651071991468556.0,2
1351,0.0,3.0,-1.0,1.0,-2.0,0.0,-1.0,0.0,1651071991468556.0,2
1352,-1.0,-2.0,-3.0,-8.0,0.0,-1.0,-1.0,0.0,1651071991470484.0,2
1353,-2.0,1.0,10.0,11.0,-4.0,-3.0,-2.0,-1.0,1651071991470484.0,2
1354,0.0,2.0,1.0,5.0,3.0,2.0,1.0,1.0,1651071991482519.0,2
1355,0.0,-2.0,-8.0,-7.0,14.0,2.0,0.0,0.0,1651071991482519.0,2
1356,0.0,-2.0,5.0,7.0,3.0,5.0,1.0,-1.0,1651071991491428.0,2
1357,2.0,-1.0,-6.0,-13.0,-3.0,-1.0,-1.0,-1.0,1651071991491428.0,2
1358,-2.0,-1.0,-1.0,1.0,-5.0,-3.0,-1.0,-1.0,1651071991505592.0,2
1359,-2.0,1.0,7.0,1.0,-8.0,-4.0,-1.0,-1.0,1651071991505592.0,2
1360,0.0,3.0,8.0,-1.0,5.0,2.0,1.0,-1.0,1651071991513586.0,2
1361,0.0,-5.0,-19.0,-1.0,-3.0,2.0,1.0,-2.0,1651071991513586.0,2
1362,-1.0,-4.0,-3.0,3.0,7.0,0.0,-1.0,-1.0,1651071991528956.0,2
1363,0.0,0.0,2.0,1.0,3.0,3.0,0.0,-1.0,1651071991528956.0,2
1364,-1.0,0.0,-1.0,-3.0,-13.0,-7.0,-2.0,-2.0,1651071991529958.0,2
1365,-1.0,0.0,0.0,0.0,6.0,-1.0,-2.0,-2.0,1651071991529958.0,2
1366,0.0,0.0,0.0,-1.0,5.0,-1.0,-1.0,-1.0,1651071991542591.0,2
1367,0.0,-1.0,-12.0,-7.0,-12.0,1.0,0.0,-1.0,1651071991542591.0,2
1368,1.0,1.0,-6.0,7.0,7.0,2.0,-1.0,0.0,1651071991551358.0,2
1369,-3.0,-8.0,6.0,3.0,-1.0,-2.0,-1.0,-2.0,1651071991551358.0,2
1370,-4.0,-3.0,-15.0,-16.0,-6.0,-3.0,-1.0,-1.0,1651071991566576.0,2
1371,0.0,3.0,5.0,3.0,0.0,-3.0,-1.0,-1.0,1651071991566576.0,2
1372,0.0,1.0,3.0,-3.0,-5.0,-1.0,1.0,3.0,1651071991567573.0,2
1373,1.0,6.0,-5.0,-3.0,0.0,-1.0,1.0,0.0,1651071991567573.0,2
1374,-1.0,-3.0,3.0,5.0,1.0,-1.0,0.0,-2.0,1651071991588957.0,2
1375,0.0,2.0,-1.0,-1.0,-9.0,-2.0,-1.0,-1.0,1651071991588957.0,2
1376,-2.0,-3.0,1.0,1.0,15.0,6.0,-1.0,0.0,1651071991589911.0,2
1377,1.0,2.0,3.0,0.0,-10.0,-1.0,0.0,1.0,1651071991589911.0,2
1378,1.0,0.0,1.0,1.0,15.0,3.0,-1.0,1.0,1651071991601950.0,2
1379,-1.0,0.0,-4.0,9.0,-4.0,-4.0,-2.0,-1.0,1651071991601950.0,2
1380,-1.0,1.0,-1.0,7.0,5.0,1.0,-1.0,0.0,1651071991610872.0,2
1381,-2.0,-2.0,-8.0,-8.0,0.0,1.0,0.0,0.0,1651071991610872.0,2
1382,-2.0,7.0,20.0,2.0,-13.0,-6.0,-2.0,-1.0,1651071991626446.0,2
1383,-2.0,-16.0,-38.0,-16.0,-3.0,1.0,0.0,0.0,1651071991626446.0,2
1384,-1.0,0.0,5.0,18.0,-7.0,-6.0,-2.0,-1.0,1651071991627376.0,2
1385,1.0,-1.0,-6.0,-17.0,1.0,1.0,0.0,0.0,1651071991627376.0,2
1386,-1.0,4.0,-3.0,0.0,0.0,1.0,0.0,-1.0,1651071991648581.0,2
1387,-2.0,1.0,15.0,11.0,0.0,-5.0,-1.0,-2.0,1651071991648581.0,2
1388,2.0,1.0,1.0,-8.0,-7.0,-1.0,1.0,0.0,1651071991654633.0,2
1389,2.0,-6.0,-11.0,5.0,0.0,4.0,0.0,0.0,1651071991654633.0,2
1390,0.0,-1.0,-6.0,-2.0,-5.0,-3.0,0.0,-1.0,1651071991662596.0,2
1391,-3.0,-1.0,5.0,-5.0,2.0,2.0,-2.0,-1.0,1651071991662596.0,2
1392,0.0,1.0,-5.0,3.0,1.0,-4.0,-2.0,0.0,1651071991671492.0,2
1393,1.0,4.0,6.0,6.0,4.0,0.0,0.0,1.0,1651071991671492.0,2
1394,-2.0,-5.0,0.0,-5.0,-5.0,-3.0,-3.0,0.0,1651071991685626.0,2
1395,-1.0,-3.0,3.0,-1.0,-4.0,5.0,1.0,-1.0,1651071991685626.0,2
1396,-2.0,0.0,0.0,-6.0,4.0,1.0,1.0,0.0,1651071991687554.0,2
1397,4.0,5.0,4.0,13.0,2.0,1.0,0.0,2.0,1651071991687554.0,2
1398,2.0,-7.0,-8.0,-4.0,-2.0,-1.0,1.0,0.0,1651071991708556.0,2
1399,0.0,7.0,10.0,12.0,-6.0,-3.0,-1.0,1.0,1651071991708556.0,2
1400,-4.0,-8.0,-14.0,-34.0,-6.0,-5.0,-4.0,-1.0,1651071991710510.0,2
1401,-4.0,0.0,2.0,13.0,1.0,-3.0,-3.0,-1.0,1651071991710510.0,2
1402,-2.0,1.0,-4.0,-2.0,-3.0,-2.0,-3.0,-2.0,1651071991722550.0,2
1403,2.0,0.0,3.0,-5.0,7.0,5.0,1.0,0.0,1651071991722550.0,2
1404,3.0,6.0,-3.0,0.0,-6.0,0.0,0.0,-1.0,1651071991731459.0,2
1405,-2.0,-1.0,0.0,-6.0,-2.0,1.0,1.0,2.0,1651071991731459.0,2
1406,-1.0,-1.0,5.0,18.0,-1.0,-3.0,-2.0,-2.0,1651071991746418.0,2
1407,-2.0,2.0,1.0,-1.0,6.0,-3.0,0.0,-3.0,1651071991746418.0,2
1408,-4.0,-3.0,1.0,4.0,0.0,1.0,0.0,-3.0,1651071991747416.0,2
1409,0.0,0.0,-15.0,-22.0,-9.0,0.0,-2.0,-1.0,1651071991747416.0,2
1410,1.0,3.0,12.0,26.0,2.0,1.0,1.0,0.0,1651071991768734.0,2
1411,2.0,0.0,3.0,-21.0,3.0,0.0,1.0,0.0,1651071991768734.0,2
1412,-6.0,-5.0,-7.0,1.0,-9.0,-4.0,-3.0,-1.0,1651071991769661.0,2
1413,2.0,3.0,8.0,8.0,7.0,1.0,0.0,-1.0,1651071991769661.0,2
1414,19.0,-3.0,-13.0,-3.0,0.0,3.0,0.0,2.0,1651071991781736.0,2
1415,-20.0,0.0,21.0,3.0,2.0,-1.0,1.0,1.0,1651071991781736.0,2
1416,-15.0,2.0,-3.0,1.0,0.0,-1.0,-3.0,-6.0,1651071991790798.0,2
1417,21.0,-17.0,-6.0,-7.0,1.0,-1.0,0.0,6.0,1651071991790798.0,2
1418,-3.0,16.0,8.0,13.0,2.0,-1.0,-4.0,-13.0,1651071991806010.0,2
1419,96.0,13.0,22.0,11.0,-5.0,0.0,2.0,12.0,1651071991806010.0,2
1420,-75.0,-32.0,-48.0,-84.0,-17.0,-6.0,-2.0,-10.0,1651071991807963.0,2
1421,13.0,20.0,-1.0,32.0,6.0,2.0,-2.0,-5.0,1651071991807963.0,2
1422,-8.0,-17.0,0.0,-8.0,1.0,0.0,1.0,2.0,1651071991828872.0,2
1423,5.0,7.0,-6.0,1.0,9.0,6.0,1.0,1.0,1651071991828872.0,2
1424,10.0,15.0,43.0,40.0,6.0,4.0,1.0,-1.0,1651071991829870.0,2
1425,6.0,14.0,-33.0,-22.0,4.0,2.0,3.0,1.0,1651071991829870.0,2
1426,19.0,-7.0,10.0,-5.0,-12.0,-5.0,0.0,6.0,1651071991841908.0,2
1427,-2.0,-10.0,-30.0,-10.0,-17.0,-11.0,-7.0,0.0,1651071991841908.0,2
1428,12.0,1.0,0.0,-27.0,-1.0,2.0,0.0,4.0,1651071991850818.0,2
1429,-64.0,15.0,35.0,7.0,7.0,2.0,-4.0,-22.0,1651071991850818.0,2
1430,32.0,-4.0,-26.0,-3.0,5.0,1.0,1.0,9.0,1651071991865504.0,2
1431,56.0,44.0,17.0,20.0,0.0,2.0,0.0,0.0,1651071991865504.0,0
1432,-13.0,-20.0,-12.0,31.0,-2.0,-1.0,-2.0,-3.0,1651071991872414.0,3
1433,92.0,-47.0,-10.0,-31.0,-14.0,-6.0,-6.0,-7.0,1651071991872414.0,3
1434,-68.0,-21.0,-27.0,-25.0,0.0,3.0,1.0,-2.0,1651071991888488.0,3
1435,-37.0,13.0,18.0,34.0,14.0,1.0,0.0,-3.0,1651071991888488.0,3
1436,39.0,4.0,-11.0,9.0,7.0,-3.0,-1.0,4.0,1651071991890444.0,3
1437,23.0,42.0,118.0,-38.0,-12.0,0.0,1.0,4.0,1651071991890444.0,3
1438,-36.0,-49.0,-89.0,-7.0,-12.0,-6.0,-3.0,3.0,1651071991911543.0,3
1439,-37.0,-22.0,33.0,54.0,16.0,2.0,2.0,-10.0,1651071991911543.0,3
1440,-5.0,9.0,29.0,3.0,-1.0,0.0,-2.0,-2.0,1651071991912521.0,3
1441,-57.0,4.0,-16.0,1.0,9.0,7.0,7.0,15.0,1651071991912521.0,3
1442,84.0,44.0,41.0,-46.0,-1.0,5.0,5.0,-3.0,1651071991925494.0,3
1443,-25.0,-31.0,-85.0,-84.0,-38.0,-14.0,-4.0,-5.0,1651071991925494.0,3
1444,-19.0,7.0,39.0,79.0,10.0,0.0,-1.0,-1.0,1651071991932350.0,3
1445,8.0,21.0,-18.0,-36.0,1.0,0.0,-1.0,0.0,1651071991932350.0,3
1446,52.0,-17.0,-23.0,62.0,4.0,-1.0,-3.0,2.0,1651071991948372.0,3
1447,-25.0,-44.0,6.0,-25.0,2.0,5.0,6.0,1.0,1651071991948372.0,3
1448,47.0,29.0,-24.0,-5.0,-8.0,-4.0,0.0,2.0,1651071991950300.0,3
1449,31.0,-39.0,-27.0,-22.0,-12.0,-6.0,-3.0,-1.0,1651071991950300.0,3
1450,-14.0,18.0,45.0,38.0,17.0,4.0,0.0,-3.0,1651071991970700.0,3
1451,-17.0,-2.0,-9.0,-9.0,11.0,3.0,1.0,-2.0,1651071991970700.0,3
1452,3.0,4.0,-9.0,-29.0,-16.0,-2.0,2.0,-1.0,1651071991972712.0,3
1453,34.0,11.0,-4.0,41.0,4.0,-4.0,-2.0,-4.0,1651071991972712.0,3
1454,-77.0,17.0,13.0,-15.0,6.0,-1.0,-3.0,-8.0,1651071991985851.0,3
1455,39.0,-14.0,-2.0,-10.0,0.0,-1.0,-2.0,0.0,1651071991985851.0,3
1456,27.0,-1.0,12.0,-7.0,2.0,3.0,2.0,3.0,1651071991992692.0,3
1457,-41.0,-7.0,-11.0,34.0,4.0,-1.0,-2.0,-3.0,1651071991992692.0,3
1458,11.0,-15.0,2.0,-65.0,-5.0,5.0,4.0,7.0,1651071992008799.0,3
1459,43.0,12.0,41.0,19.0,-11.0,-10.0,-9.0,1.0,1651071992008799.0,3
1460,-48.0,8.0,18.0,10.0,17.0,6.0,3.0,2.0,1651071992009730.0,3
1461,31.0,-18.0,-38.0,-4.0,-2.0,-2.0,0.0,-1.0,1651071992009730.0,3
1462,-19.0,5.0,26.0,43.0,-2.0,-3.0,-3.0,-4.0,1651071992032651.0,3
1463,-37.0,-22.0,-24.0,0.0,-2.0,2.0,1.0,7.0,1651071992032651.0,3
1464,-30.0,42.0,74.0,-57.0,10.0,3.0,0.0,-2.0,1651071992033644.0,3
1465,13.0,-35.0,-82.0,-29.0,-19.0,-8.0,-1.0,7.0,1651071992033644.0,3
1466,-22.0,17.0,31.0,15.0,-4.0,-3.0,-5.0,-6.0,1651071992045507.0,3
1467,24.0,21.0,-2.0,-13.0,-2.0,2.0,4.0,2.0,1651071992045507.0,3
1468,-55.0,-7.0,12.0,34.0,-1.0,-1.0,-3.0,-4.0,1651071992052396.0,3
1469,-3.0,32.0,36.0,38.0,12.0,2.0,1.0,4.0,1651071992052396.0,3
1470,0.0,-7.0,-28.0,-31.0,2.0,0.0,-1.0,-3.0,1651071992068978.0,3
1471,14.0,-13.0,-24.0,1.0,-13.0,-9.0,-4.0,-5.0,1651071992068978.0,3
1472,-6.0,6.0,0.0,-7.0,5.0,-1.0,2.0,1.0,1651071992069983.0,3
1473,-11.0,-24.0,-3.0,-38.0,-5.0,1.0,3.0,3.0,1651071992069983.0,3
1474,-3.0,18.0,36.0,27.0,4.0,0.0,-2.0,2.0,1651071992098933.0,3
1475,-86.0,-5.0,-14.0,40.0,8.0,2.0,-1.0,-13.0,1651071992098933.0,3
1476,17.0,-27.0,-40.0,-16.0,-21.0,-4.0,0.0,5.0,1651071992099897.0,3
1477,-48.0,-8.0,-1.0,-14.0,7.0,0.0,-2.0,-6.0,1651071992099897.0,3
1478,16.0,2.0,13.0,6.0,7.0,1.0,0.0,-4.0,1651071992104912.0,3
1479,-20.0,11.0,-24.0,-34.0,9.0,5.0,3.0,5.0,1651071992104912.0,3
1480,72.0,-31.0,48.0,46.0,-5.0,-6.0,-2.0,-2.0,1651071992111894.0,3
1481,14.0,15.0,-3.0,12.0,-1.0,1.0,-1.0,1.0,1651071992111894.0,3
1482,5.0,-8.0,51.0,-33.0,-11.0,-1.0,4.0,6.0,1651071992128729.0,3
1483,-30.0,40.0,-2.0,53.0,16.0,6.0,2.0,4.0,1651071992128729.0,3
1484,42.0,-12.0,-48.0,-5.0,2.0,0.0,2.0,6.0,1651071992129660.0,3
1485,55.0,12.0,16.0,-22.0,-7.0,-2.0,-2.0,2.0,1651071992129660.0,3
1486,-13.0,-9.0,-26.0,-24.0,2.0,-1.0,-1.0,-5.0,1651071992151255.0,3
1487,-17.0,5.0,50.0,20.0,-4.0,-1.0,0.0,0.0,1651071992151255.0,3
1488,-23.0,19.0,-22.0,0.0,13.0,6.0,3.0,-2.0,1651071992152208.0,3
1489,-37.0,-20.0,32.0,42.0,-4.0,1.0,2.0,11.0,1651071992152208.0,3
1490,-18.0,19.0,-35.0,-28.0,-10.0,-3.0,-2.0,-6.0,1651071992165515.0,3
1491,20.0,-17.0,9.0,14.0,6.0,-2.0,-3.0,-1.0,1651071992165515.0,3
1492,26.0,-23.0,-66.0,-42.0,-6.0,-1.0,-4.0,-3.0,1651071992172346.0,3
1493,-10.0,12.0,23.0,23.0,12.0,0.0,0.0,0.0,1651071992172346.0,3
1494,0.0,-13.0,-23.0,14.0,-16.0,-9.0,-5.0,-3.0,1651071992188424.0,3
1495,-10.0,-10.0,-8.0,-26.0,0.0,1.0,-1.0,-2.0,1651071992188424.0,3
1496,21.0,-11.0,-27.0,-35.0,-6.0,-1.0,-1.0,3.0,1651071992190351.0,3
1497,-39.0,3.0,33.0,15.0,10.0,2.0,-3.0,-8.0,1651071992190351.0,3
1498,28.0,-2.0,-10.0,-19.0,-1.0,-1.0,1.0,2.0,1651071992210760.0,3
1499,-20.0,-13.0,16.0,-4.0,-7.0,-4.0,-3.0,-2.0,1651071992210760.0,3
1500,19.0,14.0,11.0,-9.0,-3.0,2.0,-1.0,-1.0,1651071992217284.0,3
1501,-58.0,30.0,-73.0,5.0,4.0,4.0,3.0,-5.0,1651071992217284.0,3
1502,13.0,-18.0,-2.0,17.0,-10.0,-5.0,-2.0,-5.0,1651071992225285.0,3
1503,78.0,-28.0,-2.0,-19.0,-1.0,-4.0,-2.0,4.0,1651071992225285.0,3
1504,-3.0,24.0,36.0,13.0,5.0,1.0,-1.0,1.0,1651071992232653.0,3
1505,-32.0,-33.0,-18.0,-23.0,-16.0,-7.0,-5.0,-11.0,1651071992232653.0,3
1506,30.0,-3.0,-17.0,61.0,16.0,0.0,1.0,3.0,1651071992248806.0,3
1507,-23.0,27.0,27.0,-25.0,-2.0,6.0,5.0,3.0,1651071992248806.0,3
1508,-4.0,0.0,0.0,35.0,-5.0,-5.0,-4.0,-5.0,1651071992249735.0,3
1509,11.0,-5.0,9.0,-12.0,-4.0,-2.0,0.0,-1.0,1651071992249735.0,3
1510,20.0,6.0,16.0,28.0,4.0,6.0,4.0,9.0,1651071992271518.0,3
1511,-7.0,-9.0,-11.0,-44.0,-18.0,-8.0,-4.0,-6.0,1651071992271518.0,3
1512,-2.0,5.0,5.0,57.0,9.0,1.0,-2.0,-4.0,1651071992272508.0,3
1513,-4.0,-1.0,47.0,25.0,2.0,0.0,1.0,2.0,1651071992272508.0,3
1514,-12.0,-2.0,-41.0,-67.0,-13.0,-4.0,-6.0,-4.0,1651071992285527.0,3
1515,60.0,-1.0,-36.0,32.0,8.0,6.0,5.0,3.0,1651071992285527.0,3
1516,-23.0,16.0,-1.0,-27.0,-11.0,-5.0,0.0,2.0,1651071992292445.0,3
1517,21.0,3.0,39.0,9.0,2.0,-3.0,-4.0,-8.0,1651071992292445.0,3
1518,-33.0,17.0,35.0,-5.0,12.0,4.0,2.0,-1.0,1651071992308555.0,3
1519,35.0,-10.0,-47.0,-6.0,-7.0,-5.0,-1.0,6.0,1651071992308555.0,3
1520,-13.0,-14.0,29.0,8.0,1.0,0.0,0.0,-3.0,1651071992310512.0,3
1521,21.0,-7.0,8.0,23.0,9.0,2.0,-1.0,-5.0,1651071992310512.0,3
1522,-25.0,10.0,-8.0,3.0,-5.0,-1.0,-2.0,-1.0,1651071992331442.0,3
1523,39.0,6.0,21.0,-38.0,0.0,1.0,2.0,5.0,1651071992331442.0,3
1524,-27.0,-15.0,15.0,33.0,18.0,3.0,-2.0,-3.0,1651071992332427.0,3
1525,2.0,5.0,-51.0,17.0,-8.0,-3.0,-1.0,5.0,1651071992332427.0,3
1526,-21.0,-8.0,-6.0,-61.0,-13.0,-6.0,-1.0,-2.0,1651071992345456.0,3
1527,-15.0,-5.0,7.0,54.0,10.0,-1.0,-2.0,-5.0,1651071992345456.0,3
1528,23.0,-6.0,10.0,-8.0,-3.0,2.0,1.0,7.0,1651071992352487.0,3
1529,12.0,0.0,4.0,-30.0,11.0,4.0,0.0,-3.0,1651071992352487.0,3
1530,22.0,10.0,-3.0,25.0,-6.0,0.0,-1.0,1.0,1651071992368744.0,3
1531,-23.0,10.0,6.0,19.0,-11.0,-4.0,-3.0,-6.0,1651071992368744.0,3
1532,8.0,4.0,-33.0,-20.0,2.0,0.0,1.0,-1.0,1651071992374665.0,3
1533,-1.0,8.0,51.0,31.0,-2.0,-4.0,-5.0,-3.0,1651071992374665.0,3
1534,-3.0,-18.0,-16.0,-16.0,3.0,1.0,0.0,1.0,1651071992390808.0,3
1535,-22.0,18.0,10.0,-5.0,1.0,5.0,1.0,-1.0,1651071992390808.0,3
1536,-41.0,-19.0,-75.0,-21.0,-9.0,-7.0,-1.0,-5.0,1651071992392832.0,3
1537,63.0,30.0,29.0,1.0,-3.0,-1.0,1.0,1.0,1651071992392832.0,3
1538,-26.0,-3.0,20.0,64.0,1.0,-1.0,0.0,-3.0,1651071992405361.0,3
1539,-16.0,5.0,-11.0,-34.0,2.0,1.0,-4.0,-6.0,1651071992405361.0,3
1540,-9.0,6.0,50.0,7.0,6.0,2.0,2.0,5.0,1651071992412411.0,3
1541,-18.0,-22.0,-28.0,-26.0,-6.0,3.0,1.0,0.0,1651071992412411.0,3
1542,-5.0,-1.0,-17.0,1.0,7.0,-1.0,-1.0,-10.0,1651071992428658.0,3
1543,-3.0,-4.0,13.0,-14.0,-11.0,-2.0,-3.0,-1.0,1651071992428658.0,3
1544,-43.0,5.0,-12.0,0.0,-2.0,-2.0,0.0,-2.0,1651071992430586.0,3
1545,-21.0,-3.0,-5.0,2.0,1.0,2.0,4.0,2.0,1651071992430586.0,3
1546,-8.0,18.0,30.0,37.0,23.0,9.0,4.0,1.0,1651071992451414.0,3
1547,9.0,-20.0,0.0,-77.0,-25.0,-7.0,-4.0,-4.0,1651071992451414.0,3
1548,26.0,-2.0,-24.0,20.0,-10.0,-4.0,0.0,-1.0,1651071992452561.0,3
1549,23.0,-9.0,2.0,41.0,1.0,-5.0,-6.0,-3.0,1651071992452561.0,3
1550,-23.0,-1.0,-2.0,0.0,-7.0,-1.0,0.0,-1.0,1651071992464630.0,3
1551,13.0,-12.0,17.0,24.0,12.0,4.0,2.0,1.0,1651071992464630.0,3
1552,52.0,-2.0,-3.0,-44.0,-7.0,-1.0,0.0,1.0,1651071992473484.0,3
1553,-2.0,11.0,14.0,22.0,-2.0,1.0,1.0,0.0,1651071992473484.0,3
1554,22.0,-18.0,-24.0,-44.0,-11.0,-3.0,-1.0,3.0,1651071992488572.0,3
1555,-3.0,6.0,32.0,45.0,14.0,2.0,1.0,1.0,1651071992488572.0,3
1556,65.0,-16.0,17.0,-34.0,-7.0,1.0,0.0,3.0,1651071992490500.0,3
1557,-53.0,-22.0,2.0,34.0,-1.0,0.0,0.0,2.0,1651071992490500.0,3
1558,14.0,10.0,27.0,2.0,5.0,1.0,-2.0,-4.0,1651071992511417.0,3
1559,-22.0,-8.0,-7.0,46.0,2.0,-4.0,-3.0,-3.0,1651071992511417.0,3
1560,-33.0,-2.0,-31.0,-37.0,-3.0,0.0,0.0,0.0,1651071992512371.0,3
1561,14.0,4.0,2.0,-16.0,7.0,4.0,0.0,-1.0,1651071992512371.0,3
1562,32.0,-1.0,29.0,-5.0,-6.0,0.0,-1.0,0.0,1651071992524330.0,3
1563,-6.0,-1.0,-8.0,13.0,5.0,0.0,1.0,2.0,1651071992524330.0,3
1564,-7.0,-11.0,-23.0,-9.0,-3.0,-4.0,0.0,-4.0,1651071992541618.0,3
1565,-35.0,8.0,-25.0,-21.0,-5.0,-2.0,0.0,1.0,1651071992541618.0,3
1566,-5.0,-3.0,-3.0,-15.0,2.0,2.0,1.0,0.0,1651071992548668.0,3
1567,-12.0,15.0,4.0,-18.0,5.0,5.0,1.0,1.0,1651071992548668.0,3
1568,17.0,7.0,33.0,79.0,14.0,3.0,0.0,5.0,1651071992549599.0,3
1569,-3.0,-33.0,-70.0,-61.0,-25.0,-10.0,-5.0,-7.0,1651071992549599.0,3
1570,-29.0,14.0,-6.0,6.0,2.0,-1.0,-1.0,-2.0,1651071992571543.0,3
1571,2.0,-1.0,-4.0,1.0,0.0,2.0,2.0,2.0,1651071992571543.0,3
1572,3.0,17.0,3.0,-22.0,1.0,0.0,-2.0,-4.0,1651071992572538.0,3
1573,16.0,4.0,-11.0,-38.0,-1.0,1.0,-1.0,4.0,1651071992572538.0,3
1574,29.0,15.0,62.0,70.0,2.0,-4.0,0.0,1.0,1651071992585114.0,3
1575,-14.0,-42.0,-82.0,-28.0,-8.0,-4.0,0.0,-2.0,1651071992585114.0,3
1576,-26.0,-19.0,6.0,17.0,1.0,-2.0,-3.0,-4.0,1651071992593635.0,3
1577,-4.0,5.0,-25.0,-21.0,-13.0,-6.0,-2.0,-2.0,1651071992593635.0,3
1578,-4.0,-16.0,3.0,5.0,3.0,0.0,-1.0,0.0,1651071992608625.0,3
1579,-21.0,22.0,38.0,20.0,4.0,1.0,2.0,3.0,1651071992608625.0,3
1580,2.0,7.0,-5.0,-33.0,-8.0,-2.0,0.0,0.0,1651071992609595.0,3
1581,13.0,-18.0,19.0,1.0,4.0,4.0,1.0,1.0,1651071992609595.0,3
1582,-36.0,-24.0,-35.0,-15.0,-2.0,0.0,-1.0,-2.0,1651071992630769.0,3
1583,7.0,14.0,-15.0,5.0,2.0,2.0,-1.0,-1.0,1651071992630769.0,3
1584,-23.0,7.0,30.0,29.0,10.0,5.0,0.0,-8.0,1651071992632767.0,3
1585,11.0,14.0,7.0,19.0,-1.0,1.0,1.0,3.0,1651071992632767.0,3
1586,-1.0,3.0,4.0,2.0,-2.0,-2.0,0.0,-5.0,1651071992644868.0,3
1587,35.0,-8.0,-10.0,-26.0,-11.0,-8.0,-5.0,-3.0,1651071992644868.0,3
1588,0.0,-20.0,-9.0,-23.0,-7.0,-2.0,-2.0,1.0,1651071992653793.0,3
1589,-19.0,-6.0,-51.0,20.0,9.0,0.0,-1.0,-3.0,1651071992653793.0,3
1590,1.0,-16.0,4.0,-33.0,-6.0,2.0,2.0,4.0,1651071992668952.0,3
1591,-12.0,12.0,10.0,47.0,16.0,5.0,0.0,0.0,1651071992668952.0,3
1592,35.0,6.0,33.0,-28.0,-14.0,-5.0,-2.0,1.0,1651071992669951.0,3
1593,-24.0,-31.0,-86.0,-34.0,1.0,2.0,3.0,6.0,1651071992669951.0,3
1594,17.0,8.0,7.0,13.0,0.0,-1.0,1.0,5.0,1651071992691193.0,3
1595,-14.0,8.0,34.0,18.0,6.0,0.0,-1.0,-4.0,1651071992691193.0,3
1596,47.0,-19.0,-4.0,11.0,-6.0,-4.0,0.0,16.0,1651071992692618.0,3
1597,-48.0,25.0,43.0,11.0,7.0,2.0,-2.0,-16.0,1651071992692618.0,3
1598,5.0,-2.0,-24.0,-17.0,-3.0,1.0,1.0,0.0,1651071992704770.0,3
1599,67.0,3.0,-20.0,-19.0,-9.0,-2.0,1.0,7.0,1651071992704770.0,3
1600,-21.0,21.0,11.0,37.0,12.0,4.0,-1.0,-3.0,1651071992713450.0,3
1601,9.0,10.0,34.0,-15.0,-7.0,-4.0,-1.0,3.0,1651071992713450.0,3
1602,41.0,3.0,-4.0,27.0,12.0,3.0,0.0,4.0,1651071992728742.0,3
1603,-59.0,1.0,19.0,-5.0,-3.0,0.0,-1.0,-1.0,1651071992728742.0,3
1604,-10.0,-3.0,-62.0,-56.0,-14.0,-5.0,-1.0,0.0,1651071992729699.0,3
1605,21.0,3.0,30.0,34.0,9.0,3.0,2.0,6.0,1651071992729699.0,3
1606,-15.0,14.0,-11.0,-16.0,-15.0,-4.0,-2.0,-6.0,1651071992750769.0,3
1607,13.0,4.0,22.0,-5.0,7.0,1.0,4.0,5.0,1651071992750769.0,3
1608,-23.0,9.0,2.0,43.0,3.0,-1.0,-1.0,-2.0,1651071992752757.0,3
1609,-8.0,17.0,31.0,11.0,2.0,0.0,-1.0,0.0,1651071992752757.0,3
1610,-6.0,-12.0,-62.0,-41.0,-9.0,-3.0,-3.0,-1.0,1651071992764802.0,3
1611,-29.0,-6.0,12.0,3.0,-4.0,-1.0,-3.0,-4.0,1651071992764802.0,3
1612,-3.0,2.0,12.0,-1.0,3.0,1.0,1.0,0.0,1651071992773329.0,3
1613,22.0,12.0,-3.0,-29.0,-8.0,-1.0,1.0,2.0,1651071992773329.0,3
1614,-29.0,-13.0,16.0,33.0,3.0,-5.0,-3.0,-5.0,1651071992789023.0,3
1615,-11.0,-14.0,-10.0,-27.0,-14.0,-6.0,-3.0,-5.0,1651071992789023.0,3
1616,-2.0,5.0,28.0,18.0,11.0,4.0,2.0,-4.0,1651071992790034.0,3
1617,11.0,2.0,-21.0,12.0,7.0,-4.0,-3.0,0.0,1651071992790034.0,3
1618,3.0,4.0,2.0,-28.0,-8.0,1.0,0.0,1.0,1651071992811519.0,3
1619,-45.0,-20.0,-9.0,19.0,1.0,0.0,1.0,-3.0,1651071992811519.0,3
1620,27.0,3.0,19.0,-8.0,-2.0,2.0,2.0,2.0,1651071992812499.0,3
1621,17.0,-9.0,4.0,6.0,0.0,-2.0,2.0,1.0,1651071992812499.0,3
1622,-4.0,-6.0,0.0,-16.0,-2.0,-2.0,-1.0,2.0,1651071992824534.0,3
1623,23.0,10.0,12.0,11.0,3.0,1.0,-1.0,-2.0,1651071992824534.0,3
1624,-5.0,1.0,-13.0,8.0,2.0,-2.0,-2.0,-3.0,1651071992833330.0,3
1625,-13.0,-2.0,10.0,-6.0,-4.0,-3.0,-2.0,-2.0,1651071992833330.0,3
1626,5.0,-1.0,-6.0,0.0,5.0,0.0,-1.0,0.0,1651071992848293.0,3
1627,13.0,1.0,-7.0,-13.0,-3.0,1.0,0.0,1.0,1651071992848293.0,3
1628,-2.0,-1.0,-23.0,5.0,3.0,3.0,-2.0,-2.0,1651071992850314.0,3
1629,2.0,0.0,44.0,6.0,-6.0,-5.0,-1.0,-3.0,1651071992850314.0,3
1630,5.0,1.0,0.0,-4.0,2.0,-2.0,-1.0,1.0,1651071992870835.0,3
1631,15.0,3.0,-12.0,10.0,-4.0,-2.0,-2.0,-2.0,1651071992870835.0,3
1632,-11.0,2.0,-27.0,-27.0,-4.0,-1.0,0.0,-2.0,1651071992872832.0,3
1633,1.0,0.0,2.0,14.0,2.0,3.0,0.0,2.0,1651071992872832.0,3
1634,3.0,7.0,18.0,13.0,-1.0,1.0,-1.0,0.0,1651071992893708.0,3
1635,7.0,10.0,8.0,-5.0,2.0,-1.0,1.0,1.0,1651071992893708.0,3
1636,-2.0,-12.0,-4.0,15.0,1.0,-1.0,-2.0,-1.0,1651071992894637.0,3
1637,-3.0,-11.0,-24.0,-9.0,-3.0,-1.0,0.0,0.0,1651071992894637.0,3
1638,1.0,-2.0,10.0,5.0,0.0,-1.0,0.0,-3.0,1651071992908599.0,3
1639,3.0,-3.0,-15.0,-17.0,-1.0,-2.0,-1.0,-3.0,1651071992908599.0,3
1640,-3.0,-1.0,9.0,3.0,-2.0,-3.0,-1.0,-2.0,1651071992909624.0,3
1641,-3.0,-3.0,1.0,-5.0,-2.0,-1.0,-2.0,0.0,1651071992909624.0,3
1642,1.0,4.0,-3.0,-8.0,4.0,5.0,0.0,2.0,1651071992931306.0,3
1643,3.0,2.0,1.0,7.0,0.0,1.0,-1.0,-1.0,1651071992931306.0,3
1644,-3.0,2.0,8.0,4.0,-2.0,-1.0,0.0,0.0,1651071992932304.0,3
1645,-6.0,-1.0,3.0,-2.0,-2.0,0.0,-3.0,-1.0,1651071992932304.0,3
1646,0.0,-4.0,-7.0,6.0,0.0,-3.0,0.0,0.0,1651071992953461.0,3
1647,3.0,8.0,4.0,-3.0,-4.0,-2.0,-2.0,-1.0,1651071992953461.0,3
1648,1.0,0.0,4.0,-16.0,6.0,1.0,1.0,1.0,1651071992955389.0,3
1649,2.0,-5.0,-6.0,22.0,-2.0,-1.0,1.0,-1.0,1651071992955389.0,3
1650,-1.0,0.0,-3.0,-7.0,2.0,1.0,-1.0,-1.0,1651071992968421.0,3
1651,-1.0,0.0,-2.0,3.0,-1.0,-2.0,-3.0,-1.0,1651071992968421.0,3
1652,-3.0,1.0,0.0,-1.0,-3.0,-3.0,1.0,0.0,1651071992970349.0,3
1653,1.0,-1.0,-1.0,-2.0,-6.0,-4.0,-2.0,-1.0,1651071992970349.0,3
1654,0.0,-1.0,0.0,-2.0,12.0,6.0,2.0,0.0,1651071992992414.0,3
1655,1.0,11.0,2.0,-4.0,6.0,-3.0,-1.0,0.0,1651071992992414.0,3
1656,-4.0,-23.0,-32.0,0.0,-17.0,-4.0,-3.0,-5.0,1651071992994410.0,3
1657,1.0,6.0,3.0,-4.0,5.0,0.0,2.0,1.0,1651071992994410.0,3
1658,-2.0,-5.0,17.0,6.0,-3.0,-5.0,0.0,-2.0,1651071993013679.0,3
1659,1.0,-5.0,-17.0,-3.0,23.0,7.0,1.0,0.0,1651071993013679.0,3
1660,0.0,-1.0,7.0,-10.0,-5.0,-3.0,0.0,-1.0,1651071993014675.0,3
1661,-4.0,-2.0,-4.0,-2.0,-12.0,-1.0,-3.0,-3.0,1651071993014675.0,3
1662,-1.0,0.0,-1.0,11.0,-11.0,-6.0,-1.0,-1.0,1651071993027708.0,3
1663,2.0,0.0,-6.0,-5.0,6.0,8.0,3.0,1.0,1651071993027708.0,3
1664,-2.0,2.0,17.0,-8.0,5.0,-2.0,-1.0,-1.0,1651071993034694.0,3
1665,0.0,1.0,-14.0,8.0,-6.0,-3.0,-1.0,-1.0,1651071993034694.0,3
1666,-2.0,-7.0,-25.0,-9.0,13.0,0.0,0.0,0.0,1651071993050666.0,3
1667,-3.0,-2.0,6.0,-4.0,-14.0,-3.0,-2.0,-1.0,1651071993050666.0,3
1668,2.0,0.0,-2.0,9.0,2.0,0.0,0.0,2.0,1651071993052600.0,3
1669,3.0,7.0,20.0,-11.0,-10.0,-3.0,-1.0,0.0,1651071993052600.0,3
1670,-2.0,-13.0,-13.0,-1.0,5.0,2.0,-1.0,1.0,1651071993073701.0,3
1671,-2.0,3.0,16.0,2.0,-14.0,-8.0,-3.0,0.0,1651071993073701.0,3
1672,-2.0,-4.0,-23.0,1.0,12.0,7.0,1.0,-1.0,1651071993074627.0,3
1673,-1.0,0.0,2.0,-5.0,9.0,4.0,1.0,0.0,1651071993074627.0,3
1674,0.0,5.0,6.0,0.0,-8.0,-1.0,0.0,-1.0,1651071993087659.0,3
1675,1.0,-1.0,1.0,2.0,-6.0,-2.0,1.0,1.0,1651071993087659.0,3
1676,0.0,2.0,4.0,13.0,0.0,-5.0,-2.0,0.0,1651071993094641.0,3
1677,0.0,-1.0,-11.0,-7.0,1.0,1.0,1.0,-1.0,1651071993094641.0,3
1678,0.0,0.0,4.0,-10.0,-18.0,-7.0,-4.0,-2.0,1651071993111564.0,3
1679,0.0,-3.0,-8.0,1.0,4.0,1.0,2.0,0.0,1651071993111564.0,3
1680,-1.0,0.0,-6.0,2.0,1.0,2.0,-1.0,-1.0,1651071993112526.0,3
1681,1.0,2.0,1.0,-4.0,5.0,0.0,-1.0,1.0,1651071993112526.0,3
1682,0.0,5.0,10.0,2.0,8.0,1.0,1.0,2.0,1651071993133843.0,3
1683,-3.0,-9.0,14.0,-7.0,-22.0,-8.0,-2.0,-1.0,1651071993133843.0,3
1684,-3.0,-11.0,-15.0,7.0,3.0,-1.0,-3.0,-1.0,1651071993134840.0,3
1685,-1.0,-4.0,-25.0,-13.0,6.0,6.0,0.0,0.0,1651071993134840.0,3
1686,2.0,12.0,18.0,6.0,-8.0,-2.0,-1.0,1.0,1651071993146875.0,3
1687,-1.0,-6.0,12.0,5.0,13.0,7.0,1.0,0.0,1651071993146875.0,3
1688,5.0,18.0,26.0,-2.0,-3.0,1.0,2.0,0.0,1651071993156365.0,3
1689,-5.0,-10.0,4.0,-4.0,-4.0,-3.0,-1.0,1.0,1651071993156365.0,3
1690,-2.0,-17.0,-60.0,-5.0,-5.0,-2.0,-1.0,-3.0,1651071993170688.0,3
1691,-3.0,2.0,10.0,6.0,-3.0,-4.0,-3.0,-1.0,1651071993170688.0,3
1692,-1.0,2.0,10.0,0.0,-5.0,-2.0,-2.0,0.0,1651071993172683.0,3
1693,5.0,13.0,54.0,12.0,4.0,3.0,0.0,3.0,1651071993172683.0,3
1694,-2.0,-5.0,-39.0,-11.0,-4.0,-1.0,-1.0,-1.0,1651071993193674.0,3
1695,0.0,-2.0,-17.0,-5.0,-1.0,-3.0,1.0,0.0,1651071993193674.0,3
1696,-2.0,-3.0,29.0,-2.0,-8.0,0.0,-1.0,-2.0,1651071993195499.0,3
1697,0.0,9.0,43.0,11.0,13.0,6.0,2.0,-2.0,1651071993195499.0,3
1698,2.0,1.0,-44.0,-9.0,18.0,5.0,2.0,0.0,1651071993208530.0,3
1699,-1.0,-2.0,45.0,18.0,-2.0,1.0,-2.0,-2.0,1651071993208530.0,3
1700,5.0,1.0,-19.0,1.0,3.0,-2.0,1.0,0.0,1651071993214514.0,3
1701,-3.0,-26.0,-45.0,-7.0,-9.0,-5.0,-1.0,-3.0,1651071993214514.0,3
1702,-3.0,2.0,17.0,-5.0,-5.0,-1.0,-2.0,-2.0,1651071993230780.0,3
1703,-2.0,-2.0,-12.0,-4.0,0.0,-1.0,-2.0,0.0,1651071993230780.0,3
1704,-6.0,-4.0,-12.0,-1.0,-6.0,-2.0,-2.0,-5.0,1651071993232804.0,3
1705,0.0,7.0,28.0,-1.0,-1.0,-2.0,-2.0,-1.0,1651071993232804.0,3
1706,2.0,-9.0,2.0,1.0,-1.0,-1.0,2.0,3.0,1651071993253738.0,3
1707,4.0,10.0,-8.0,-2.0,2.0,-1.0,0.0,3.0,1651071993253738.0,3
1708,-8.0,-16.0,23.0,2.0,-1.0,1.0,-4.0,-3.0,1651071993254736.0,3
1709,3.0,23.0,40.0,-1.0,2.0,0.0,1.0,-1.0,1651071993254736.0,3
1710,-12.0,-48.0,-88.0,-11.0,-5.0,-4.0,-5.0,-5.0,1651071993267714.0,3
1711,0.0,5.0,37.0,-4.0,-1.0,-1.0,-1.0,-2.0,1651071993267714.0,3
1712,0.0,-9.0,-7.0,1.0,2.0,-1.0,0.0,1.0,1651071993274742.0,3
1713,-1.0,-3.0,1.0,-4.0,0.0,-2.0,0.0,1.0,1651071993274742.0,3
1714,3.0,23.0,68.0,13.0,-2.0,0.0,2.0,1.0,1651071993290714.0,3
1715,2.0,-3.0,-46.0,-6.0,3.0,2.0,1.0,0.0,1651071993290714.0,3
1716,-4.0,-19.0,-45.0,-6.0,2.0,2.0,-1.0,0.0,1651071993292649.0,3
1717,-4.0,1.0,-17.0,-2.0,-2.0,-2.0,-1.0,1.0,1651071993292649.0,3
1718,8.0,13.0,43.0,3.0,0.0,-1.0,1.0,2.0,1651071993313724.0,3
1719,4.0,-9.0,-5.0,3.0,8.0,2.0,2.0,2.0,1651071993313724.0,3
1720,0.0,20.0,-35.0,-18.0,-6.0,-4.0,-1.0,-2.0,1651071993314692.0,3
1721,1.0,6.0,-27.0,12.0,1.0,1.0,0.0,0.0,1651071993314692.0,3
1722,-3.0,-7.0,51.0,9.0,4.0,0.0,-2.0,0.0,1651071993326926.0,3
1723,-5.0,11.0,-6.0,-12.0,-11.0,-3.0,-1.0,-1.0,1651071993326926.0,3
1724,1.0,-1.0,12.0,7.0,5.0,0.0,0.0,2.0,1651071993335929.0,3
1725,0.0,-2.0,-4.0,0.0,-1.0,-2.0,-1.0,2.0,1651071993335929.0,3
1726,1.0,19.0,32.0,7.0,-1.0,-1.0,1.0,-2.0,1651071993351440.0,3
1727,-1.0,-5.0,-8.0,1.0,-1.0,-2.0,0.0,-1.0,1651071993351440.0,3
1728,2.0,7.0,29.0,1.0,-3.0,1.0,1.0,3.0,1651071993352398.0,3
1729,-3.0,-10.0,-40.0,-10.0,-8.0,-6.0,-4.0,-1.0,1651071993352398.0,3
1730,0.0,11.0,49.0,7.0,4.0,5.0,0.0,1.0,1651071993373680.0,3
1731,3.0,0.0,-11.0,-2.0,2.0,-2.0,-1.0,0.0,1651071993373680.0,3
1732,-1.0,11.0,55.0,8.0,2.0,0.0,-3.0,-2.0,1651071993373850.0,3
1733,-3.0,-18.0,-27.0,-6.0,4.0,1.0,-1.0,-2.0,1651071993373850.0,3
1734,1.0,4.0,-5.0,-1.0,-5.0,-2.0,-1.0,-2.0,1651071993396437.0,3
1735,0.0,15.0,37.0,3.0,-3.0,0.0,2.0,0.0,1651071993396437.0,3
1736,-2.0,-7.0,-37.0,-4.0,-5.0,-1.0,0.0,-2.0,1651071993396637.0,3
1737,-1.0,4.0,38.0,6.0,4.0,2.0,0.0,-1.0,1651071993396637.0,3
1738,-2.0,-14.0,-47.0,-11.0,0.0,-1.0,-1.0,-2.0,1651071993410714.0,3
1739,-1.0,-3.0,1.0,0.0,-2.0,-1.0,-1.0,-1.0,1651071993410714.0,3
1740,-2.0,10.0,16.0,3.0,-2.0,0.0,-1.0,-1.0,1651071993410714.0,3
1741,-1.0,-22.0,-56.0,-6.0,1.0,0.0,-1.0,-1.0,1651071993410714.0,3
1742,0.0,11.0,-8.0,-1.0,0.0,-1.0,0.0,1.0,1651071993432976.0,3
1743,-5.0,-15.0,6.0,2.0,-1.0,1.0,-1.0,-1.0,1651071993432976.0,3
1744,4.0,4.0,-8.0,-4.0,-1.0,1.0,0.0,1.0,1651071993433973.0,3
1745,-3.0,-15.0,-47.0,-8.0,-3.0,-1.0,-1.0,-3.0,1651071993433973.0,3
1746,-3.0,-1.0,25.0,9.0,-4.0,-3.0,-3.0,-1.0,1651071993456029.0,3
1747,1.0,-3.0,-7.0,1.0,7.0,1.0,-1.0,-3.0,1651071993456029.0,3
1748,3.0,7.0,20.0,3.0,2.0,-1.0,0.0,1.0,1651071993456986.0,3
1749,-2.0,1.0,66.0,6.0,-7.0,-3.0,-2.0,-2.0,1651071993456986.0,3
1750,1.0,4.0,-44.0,-7.0,6.0,1.0,-1.0,0.0,1651071993470115.0,3
1751,-2.0,-7.0,-20.0,-4.0,-1.0,0.0,0.0,-1.0,1651071993470115.0,3
1752,-1.0,-5.0,2.0,4.0,6.0,6.0,0.0,-2.0,1651071993471045.0,3
1753,3.0,11.0,-16.0,-2.0,-2.0,-4.0,0.0,0.0,1651071993471045.0,3
1754,-1.0,-3.0,21.0,3.0,-7.0,0.0,0.0,-1.0,1651071993493251.0,3
1755,1.0,2.0,-24.0,-6.0,-1.0,1.0,-3.0,1.0,1651071993493251.0,3
1756,1.0,-4.0,6.0,-2.0,2.0,-2.0,1.0,0.0,1651071993493251.0,3
1757,3.0,20.0,18.0,1.0,-2.0,0.0,-2.0,-1.0,1651071993493251.0,3
1758,-7.0,-39.0,-66.0,-8.0,-4.0,-5.0,-1.0,-1.0,1651071993516426.0,3
1759,-2.0,-5.0,-28.0,-6.0,-4.0,-2.0,-2.0,-2.0,1651071993516426.0,3
1760,1.0,1.0,11.0,2.0,13.0,4.0,2.0,1.0,1651071993516426.0,3
1761,-1.0,1.0,-8.0,-1.0,1.0,-1.0,-1.0,0.0,1651071993516426.0,3
1762,2.0,11.0,12.0,3.0,0.0,0.0,0.0,0.0,1651071993530712.0,3
1763,0.0,-2.0,21.0,3.0,-4.0,-2.0,-1.0,-1.0,1651071993530712.0,3
1764,-2.0,-11.0,-22.0,-3.0,-7.0,-3.0,0.0,-1.0,1651071993531400.0,3
1765,2.0,9.0,48.0,1.0,-4.0,-2.0,1.0,2.0,1651071993531400.0,3
1766,-2.0,-3.0,-22.0,-1.0,1.0,-3.0,-3.0,-3.0,1651071993552570.0,3
1767,3.0,1.0,-1.0,3.0,2.0,5.0,1.0,1.0,1651071993552570.0,3
1768,1.0,16.0,10.0,-5.0,-2.0,-3.0,-1.0,-3.0,1651071993553502.0,3
1769,-4.0,-23.0,-11.0,-1.0,-2.0,-1.0,-3.0,-2.0,1651071993553502.0,3
1770,-2.0,6.0,-6.0,-4.0,-7.0,-4.0,0.0,0.0,1651071993575588.0,3
1771,-5.0,0.0,8.0,-3.0,-4.0,-3.0,-1.0,-3.0,1651071993575588.0,3
1772,-2.0,-1.0,-3.0,0.0,2.0,-2.0,0.0,1.0,1651071993576593.0,3
1773,0.0,0.0,1.0,-3.0,0.0,2.0,1.0,-1.0,1651071993576593.0,3
1774,2.0,8.0,35.0,5.0,-3.0,0.0,-2.0,-1.0,1651071993590723.0,3
1775,-5.0,-21.0,-26.0,-5.0,-6.0,-4.0,-1.0,-2.0,1651071993590723.0,3
1776,-1.0,-8.0,-28.0,5.0,5.0,1.0,-2.0,-1.0,1651071993590723.0,3
1777,1.0,2.0,-8.0,0.0,3.0,1.0,1.0,1.0,1651071993590723.0,3
1778,3.0,12.0,15.0,1.0,1.0,1.0,2.0,1.0,1651071993612501.0,3
1779,-1.0,5.0,23.0,-3.0,1.0,-2.0,0.0,1.0,1651071993612501.0,3
1780,-2.0,-3.0,15.0,2.0,-9.0,-4.0,-2.0,0.0,1651071993613444.0,3
1781,-2.0,-2.0,-10.0,-2.0,-1.0,2.0,-1.0,-1.0,1651071993613444.0,3
1782,2.0,7.0,16.0,3.0,4.0,2.0,-1.0,0.0,1651071993635779.0,3
1783,1.0,3.0,2.0,2.0,0.0,-1.0,0.0,1.0,1651071993635779.0,3
1784,-1.0,-3.0,-10.0,-4.0,-3.0,-2.0,1.0,0.0,1651071993635779.0,3
1785,-1.0,1.0,-6.0,0.0,-2.0,-2.0,0.0,0.0,1651071993635779.0,3
1786,-1.0,2.0,14.0,-1.0,8.0,4.0,-1.0,-1.0,1651071993651693.0,3
1787,-1.0,1.0,2.0,3.0,11.0,2.0,-1.0,0.0,1651071993651693.0,3
1788,-1.0,1.0,-15.0,-1.0,-7.0,-2.0,-1.0,-2.0,1651071993652694.0,3
1789,1.0,0.0,11.0,3.0,5.0,1.0,1.0,0.0,1651071993652694.0,3
1790,1.0,3.0,8.0,-2.0,-10.0,-1.0,1.0,1.0,1651071993673237.0,3
1791,-1.0,-1.0,-5.0,-3.0,-4.0,-2.0,0.0,-1.0,1651071993673237.0,3
1792,3.0,3.0,11.0,3.0,4.0,0.0,0.0,2.0,1651071993673805.0,3
1793,-1.0,0.0,-2.0,-2.0,-6.0,0.0,-1.0,0.0,1651071993673805.0,3
1794,0.0,-6.0,-9.0,-2.0,3.0,1.0,0.0,-2.0,1651071993695149.0,3
1795,0.0,1.0,-3.0,1.0,-1.0,0.0,0.0,-2.0,1651071993695149.0,3
1796,-1.0,-2.0,-1.0,-1.0,-2.0,2.0,-3.0,0.0,1651071993696079.0,3
1797,-1.0,-3.0,-7.0,-2.0,-1.0,-2.0,-1.0,-1.0,1651071993696079.0,3
1798,-3.0,-4.0,-1.0,-2.0,-4.0,-2.0,-2.0,0.0,1651071993710143.0,3
1799,1.0,2.0,5.0,1.0,7.0,-1.0,-1.0,0.0,1651071993710143.0,3
1800,-3.0,-6.0,-46.0,-2.0,-7.0,-1.0,-2.0,0.0,1651071993711143.0,3
1801,1.0,0.0,5.0,-3.0,-10.0,-4.0,-2.0,0.0,1651071993711143.0,3
1802,0.0,8.0,36.0,4.0,15.0,8.0,0.0,0.0,1651071993733458.0,3
1803,-2.0,-1.0,-9.0,-3.0,0.0,-4.0,-1.0,-1.0,1651071993733458.0,3
1804,1.0,6.0,7.0,-2.0,2.0,2.0,2.0,2.0,1651071993734428.0,3
1805,-3.0,-3.0,-10.0,2.0,1.0,-3.0,-1.0,-3.0,1651071993734428.0,3
1806,-1.0,1.0,-8.0,-2.0,-9.0,-5.0,-1.0,0.0,1651071993755562.0,3
1807,1.0,10.0,12.0,3.0,-5.0,-2.0,-3.0,0.0,1651071993755562.0,3
1808,-1.0,-3.0,21.0,-2.0,6.0,0.0,-2.0,-2.0,1651071993756562.0,3
1809,0.0,1.0,-5.0,-1.0,1.0,4.0,0.0,-1.0,1651071993756562.0,3
1810,1.0,-2.0,29.0,3.0,1.0,1.0,4.0,-1.0,1651071993770525.0,3
1811,2.0,8.0,-16.0,0.0,-6.0,2.0,0.0,2.0,1651071993770525.0,3
1812,-2.0,0.0,8.0,2.0,9.0,-5.0,-2.0,-2.0,1651071993771522.0,3
1813,0.0,0.0,-9.0,4.0,14.0,11.0,2.0,0.0,1651071993771522.0,3
1814,-4.0,1.0,-2.0,1.0,-4.0,-3.0,-1.0,-1.0,1651071993792751.0,3
1815,0.0,1.0,9.0,-3.0,-4.0,-1.0,-2.0,-1.0,1651071993792751.0,3
1816,-4.0,-14.0,-28.0,-5.0,-13.0,-5.0,-2.0,-3.0,1651071993793679.0,3
1817,3.0,15.0,36.0,-1.0,-1.0,-2.0,0.0,0.0,1651071993793679.0,3
1818,-3.0,-22.0,-55.0,-3.0,1.0,-2.0,-3.0,1.0,1651071993815042.0,3
1819,-1.0,-4.0,-7.0,-7.0,-5.0,-2.0,0.0,-2.0,1651071993815042.0,3
1820,-2.0,6.0,16.0,-4.0,-5.0,-1.0,-1.0,0.0,1651071993816150.0,3
1821,-4.0,-2.0,8.0,13.0,5.0,-6.0,-4.0,-2.0,1651071993816150.0,3
1822,1.0,3.0,-2.0,0.0,0.0,1.0,1.0,0.0,1651071993830712.0,3
1823,-1.0,-5.0,-6.0,-2.0,-1.0,-1.0,0.0,0.0,1651071993830712.0,3
1824,2.0,2.0,2.0,-8.0,-2.0,2.0,2.0,-2.0,1651071993831409.0,3
1825,-1.0,-3.0,-20.0,-4.0,-4.0,-1.0,0.0,-2.0,1651071993831409.0,3
1826,-2.0,-7.0,8.0,5.0,-5.0,-5.0,-3.0,0.0,1651071993852650.0,3
1827,1.0,1.0,-13.0,-2.0,7.0,4.0,-1.0,0.0,1651071993852650.0,3
1828,-4.0,-7.0,14.0,4.0,3.0,-1.0,-1.0,0.0,1651071993853580.0,3
1829,0.0,-2.0,3.0,-5.0,-2.0,-1.0,1.0,-2.0,1651071993853580.0,3
1830,3.0,3.0,-22.0,-2.0,-3.0,-3.0,-3.0,-1.0,1651071993875736.0,3
1831,2.0,-1.0,4.0,3.0,2.0,1.0,0.0,2.0,1651071993875736.0,3
1832,1.0,3.0,9.0,1.0,-6.0,-2.0,-2.0,-1.0,1651071993875736.0,3
1833,0.0,-1.0,1.0,-1.0,-1.0,0.0,0.0,0.0,1651071993875736.0,3
1834,-2.0,0.0,-7.0,-6.0,1.0,-1.0,-2.0,-1.0,1651071993890712.0,3
1835,-2.0,-2.0,10.0,5.0,8.0,4.0,-1.0,1.0,1651071993890712.0,3
1836,0.0,0.0,-5.0,1.0,-3.0,0.0,0.0,0.0,1651071993890712.0,3
1837,-2.0,-3.0,9.0,-2.0,-2.0,-1.0,-1.0,-1.0,1651071993890712.0,3
1838,1.0,8.0,15.0,0.0,-4.0,-1.0,0.0,0.0,1651071993912710.0,3
1839,-3.0,-3.0,-10.0,-1.0,-3.0,0.0,-2.0,0.0,1651071993912710.0,3
1840,1.0,3.0,-3.0,1.0,1.0,-1.0,0.0,0.0,1651071993913684.0,3
1841,0.0,0.0,3.0,-1.0,-1.0,2.0,-1.0,0.0,1651071993913684.0,3
1842,0.0,0.0,-9.0,-1.0,0.0,0.0,0.0,-2.0,1651071993935767.0,3
1843,-1.0,-8.0,-7.0,0.0,-6.0,-4.0,-2.0,-2.0,1651071993935767.0,3
1844,1.0,0.0,-1.0,2.0,4.0,3.0,0.0,0.0,1651071993935895.0,3
1845,-1.0,-2.0,-6.0,-3.0,-2.0,0.0,-1.0,0.0,1651071993935895.0,3
1846,-1.0,1.0,-1.0,-8.0,0.0,-1.0,-2.0,0.0,1651071993950671.0,3
1847,-2.0,-2.0,-24.0,-1.0,-1.0,-2.0,-2.0,-3.0,1651071993950671.0,3
1848,0.0,1.0,4.0,9.0,-2.0,-1.0,0.0,-1.0,1651071993950671.0,3
1849,1.0,-1.0,-7.0,-4.0,0.0,2.0,0.0,0.0,1651071993950671.0,3
1850,1.0,3.0,3.0,0.0,1.0,0.0,0.0,1.0,1651071993972706.0,3
1851,-2.0,0.0,20.0,-4.0,-4.0,-3.0,0.0,-1.0,1651071993972706.0,3
1852,0.0,0.0,10.0,-1.0,0.0,-2.0,-1.0,0.0,1651071993973695.0,3
1853,1.0,9.0,-14.0,1.0,1.0,-1.0,-1.0,0.0,1651071993973695.0,3
1854,-2.0,-12.0,-6.0,-7.0,-4.0,2.0,0.0,-1.0,1651071993995831.0,3
1855,1.0,7.0,10.0,7.0,12.0,3.0,1.0,1.0,1651071993995831.0,3
1856,0.0,-7.0,-19.0,0.0,-3.0,-2.0,-1.0,0.0,1651071993995831.0,3
1857,-1.0,-2.0,10.0,-3.0,-6.0,-6.0,-4.0,-1.0,1651071993995831.0,3
1858,0.0,3.0,11.0,2.0,-5.0,-1.0,0.0,-2.0,1651071994010597.0,3
1859,-1.0,0.0,9.0,1.0,-4.0,-2.0,-2.0,-1.0,1651071994010597.0,3
1860,1.0,5.0,8.0,-7.0,-1.0,2.0,1.0,-1.0,1651071994011603.0,3
1861,0.0,-3.0,0.0,14.0,0.0,-2.0,1.0,-1.0,1651071994011603.0,3
1862,-1.0,-3.0,-6.0,-4.0,0.0,0.0,0.0,0.0,1651071994032391.0,3
1863,1.0,2.0,34.0,-3.0,-2.0,-1.0,1.0,0.0,1651071994032391.0,3
1864,-1.0,-1.0,-25.0,-6.0,-1.0,-3.0,-2.0,1.0,1651071994033330.0,3
1865,-2.0,-1.0,5.0,-6.0,0.0,5.0,0.0,-1.0,1651071994033330.0,3
1866,0.0,1.0,-2.0,4.0,-1.0,-2.0,-2.0,-1.0,1651071994055530.0,3
1867,-2.0,2.0,4.0,0.0,-3.0,2.0,-1.0,-1.0,1651071994055530.0,3
1868,-1.0,-1.0,10.0,-2.0,-1.0,-1.0,-2.0,0.0,1651071994056461.0,3
1869,-1.0,-2.0,-5.0,-1.0,0.0,-2.0,0.0,-1.0,1651071994056461.0,3
1870,1.0,-2.0,4.0,6.0,4.0,1.0,-1.0,-1.0,1651071994070468.0,3
1871,-1.0,2.0,-7.0,-6.0,-11.0,-3.0,-1.0,-1.0,1651071994070468.0,3
1872,-3.0,-4.0,8.0,5.0,1.0,-1.0,-1.0,-2.0,1651071994071421.0,3
1873,2.0,4.0,-3.0,3.0,12.0,3.0,0.0,0.0,1651071994071421.0,3
1874,-1.0,0.0,7.0,0.0,0.0,-3.0,-1.0,-2.0,1651071994092431.0,3
1875,0.0,-3.0,-12.0,-3.0,-3.0,-2.0,-2.0,0.0,1651071994092431.0,3
1876,-3.0,-3.0,-3.0,-1.0,-7.0,-1.0,-1.0,0.0,1651071994093362.0,3
1877,1.0,-2.0,3.0,-3.0,-8.0,-5.0,-2.0,1.0,1651071994093362.0,3
1878,1.0,1.0,1.0,4.0,9.0,3.0,1.0,1.0,1651071994115572.0,3
1879,-3.0,-18.0,-10.0,-1.0,-3.0,0.0,0.0,-5.0,1651071994115572.0,3
1880,1.0,7.0,23.0,3.0,-1.0,-2.0,0.0,1.0,1651071994116500.0,3
1881,-2.0,0.0,-2.0,0.0,-4.0,0.0,0.0,1.0,1651071994116500.0,3
1882,-2.0,0.0,1.0,-1.0,3.0,1.0,0.0,0.0,1651071994130096.0,3
1883,-3.0,-4.0,-38.0,-13.0,-5.0,-1.0,-1.0,-1.0,1651071994130096.0,3
1884,-1.0,0.0,1.0,5.0,3.0,0.0,0.0,-2.0,1651071994131025.0,3
1885,-1.0,-2.0,9.0,4.0,5.0,0.0,0.0,0.0,1651071994131025.0,3
1886,0.0,3.0,-3.0,-2.0,-5.0,-1.0,-2.0,0.0,1651071994153303.0,3
1887,1.0,-4.0,19.0,2.0,2.0,-1.0,0.0,1.0,1651071994153303.0,3
1888,0.0,-1.0,-13.0,-11.0,-4.0,3.0,-1.0,-1.0,1651071994153303.0,3
1889,-2.0,-4.0,-10.0,1.0,-3.0,-2.0,-1.0,1.0,1651071994153303.0,3
1890,1.0,-1.0,-1.0,1.0,-1.0,1.0,1.0,-1.0,1651071994175364.0,3
1891,0.0,8.0,5.0,5.0,3.0,0.0,1.0,-1.0,1651071994175364.0,3
1892,0.0,-1.0,-6.0,-3.0,-11.0,-3.0,-1.0,-1.0,1651071994176391.0,3
1893,-1.0,6.0,19.0,-2.0,-2.0,-1.0,0.0,0.0,1651071994176391.0,3
1894,-1.0,-12.0,-19.0,-5.0,2.0,1.0,0.0,-1.0,1651071994190505.0,3
1895,-2.0,-4.0,-3.0,3.0,-2.0,-2.0,-2.0,-3.0,1651071994190505.0,3
1896,0.0,-1.0,-9.0,-5.0,5.0,2.0,3.0,1.0,1651071994191541.0,3
1897,-2.0,-4.0,-9.0,-4.0,-8.0,-2.0,-1.0,-3.0,1651071994191541.0,3
1898,1.0,2.0,8.0,5.0,10.0,3.0,0.0,-1.0,1651071994212449.0,3
1899,-1.0,-2.0,-7.0,-2.0,-3.0,-2.0,-1.0,0.0,1651071994212449.0,3
1900,-1.0,0.0,1.0,5.0,2.0,0.0,0.0,0.0,1651071994213446.0,3
1901,1.0,-3.0,-14.0,-7.0,-4.0,0.0,-2.0,-1.0,1651071994213446.0,3
1902,1.0,1.0,15.0,1.0,-10.0,-6.0,-2.0,-1.0,1651071994235359.0,3
1903,-2.0,-6.0,-30.0,-8.0,7.0,1.0,0.0,0.0,1651071994235359.0,3
