EMG_s0,EMG_s1,EMG_s2,EMG_s3,EMG_s4,EMG_s5,EMG_s6,EMG_s7,timestamp
-1.0,0.0,0.0,-2.0,-3.0,1.0,0.0,-1.0,1651070632705865.0
-1.0,1.0,-1.0,-3.0,0.0,0.0,0.0,-2.0,1651070632705865.0
-1.0,-2.0,0.0,-2.0,-4.0,-7.0,-3.0,-3.0,1651070632706842.0
0.0,1.0,-2.0,-2.0,2.0,1.0,-1.0,-3.0,1651070632706842.0
-2.0,-2.0,1.0,0.0,-1.0,-5.0,-2.0,-2.0,1651070632707836.0
-2.0,-2.0,-2.0,-1.0,1.0,2.0,-2.0,-1.0,1651070632707836.0
-2.0,-1.0,-2.0,1.0,2.0,-1.0,0.0,0.0,1651070632711824.0
-3.0,-2.0,1.0,-2.0,-1.0,-2.0,0.0,-1.0,1651070632711824.0
-2.0,-2.0,-3.0,-4.0,-11.0,-5.0,-3.0,1.0,1651070632717807.0
0.0,-1.0,-2.0,3.0,9.0,0.0,-2.0,1.0,1651070632717807.0
-3.0,-1.0,0.0,-1.0,-5.0,0.0,2.0,-1.0,1651070632727808.0
0.0,-2.0,-1.0,3.0,3.0,-1.0,-1.0,-1.0,1651070632727808.0
0.0,-2.0,-3.0,0.0,3.0,2.0,-2.0,-1.0,1651070632734762.0
-1.0,0.0,-1.0,-3.0,-8.0,-3.0,1.0,0.0,1651070632734762.0
-1.0,-1.0,-2.0,-3.0,-3.0,0.0,0.0,-1.0,1651070632747776.0
-2.0,-3.0,-3.0,1.0,-1.0,-2.0,0.0,-1.0,1651070632747776.0
0.0,-1.0,-1.0,0.0,-1.0,2.0,-1.0,-2.0,1651070632759676.0
-1.0,-1.0,-3.0,-4.0,0.0,-1.0,0.0,-1.0,1651070632759676.0
0.0,1.0,0.0,4.0,3.0,1.0,-1.0,-2.0,1651070632771756.0
-1.0,0.0,1.0,-1.0,-6.0,-3.0,-1.0,0.0,1651070632771756.0
-1.0,-1.0,2.0,4.0,9.0,5.0,1.0,0.0,1651070632779747.0
2.0,-1.0,-1.0,-1.0,-1.0,-2.0,0.0,-2.0,1651070632779747.0
-1.0,-1.0,-3.0,-4.0,-1.0,0.0,1.0,0.0,1651070632794310.0
-1.0,0.0,-2.0,2.0,1.0,-1.0,-2.0,1.0,1651070632794310.0
-1.0,0.0,0.0,-1.0,-2.0,-3.0,-1.0,-2.0,1651070632834481.0
-1.0,2.0,0.0,-3.0,-5.0,0.0,0.0,-2.0,1651070632834481.0
-1.0,-3.0,-3.0,-2.0,2.0,-2.0,0.0,-1.0,1651070632835479.0
-1.0,-2.0,-1.0,2.0,-1.0,-3.0,0.0,0.0,1651070632835479.0
0.0,-1.0,-1.0,-2.0,0.0,0.0,0.0,1.0,1651070632839469.0
0.0,-2.0,0.0,-2.0,-2.0,-1.0,-1.0,-1.0,1651070632839469.0
0.0,0.0,-1.0,-1.0,-5.0,-3.0,-3.0,-3.0,1651070632840467.0
0.0,0.0,1.0,1.0,1.0,1.0,-1.0,0.0,1651070632840467.0
-1.0,-3.0,0.0,-1.0,4.0,4.0,0.0,-1.0,1651070632845453.0
-1.0,-2.0,-1.0,1.0,-2.0,-4.0,0.0,-1.0,1651070632845453.0
-1.0,-2.0,-1.0,-2.0,0.0,1.0,0.0,1.0,1651070632854428.0
-2.0,1.0,0.0,3.0,1.0,1.0,0.0,0.0,1651070632854428.0
-1.0,0.0,-3.0,-2.0,-2.0,-3.0,0.0,0.0,1651070632860413.0
0.0,0.0,1.0,2.0,1.0,-2.0,-1.0,-2.0,1651070632860413.0
0.0,1.0,0.0,2.0,4.0,5.0,2.0,1.0,1651070632876588.0
-1.0,-1.0,-1.0,-6.0,-14.0,-4.0,0.0,-2.0,1651070632876588.0
1.0,0.0,-1.0,3.0,6.0,2.0,0.0,0.0,1651070632882572.0
-1.0,0.0,0.0,0.0,3.0,1.0,0.0,1.0,1651070632882572.0
-2.0,1.0,2.0,-3.0,-3.0,-3.0,-1.0,0.0,1651070632905738.0
-1.0,-1.0,-2.0,-3.0,-3.0,0.0,-1.0,1.0,1651070632905738.0
-2.0,0.0,-1.0,-1.0,-1.0,-2.0,-1.0,0.0,1651070632906677.0
1.0,0.0,-1.0,-1.0,-1.0,0.0,0.0,0.0,1651070632906677.0
0.0,-1.0,0.0,3.0,3.0,0.0,-1.0,-1.0,1651070632921257.0
-1.0,-1.0,-1.0,-2.0,0.0,-1.0,-3.0,-2.0,1651070632921257.0
1.0,-2.0,0.0,0.0,-4.0,-1.0,-1.0,0.0,1651070632921615.0
0.0,-1.0,0.0,0.0,2.0,0.0,0.0,1.0,1651070632921615.0
-1.0,-1.0,-1.0,0.0,-6.0,-1.0,-2.0,-1.0,1651070632943694.0
-1.0,2.0,1.0,-2.0,3.0,2.0,-1.0,-1.0,1651070632943694.0
-2.0,1.0,0.0,-1.0,-5.0,-2.0,-1.0,-1.0,1651070632943694.0
-2.0,0.0,0.0,2.0,2.0,0.0,-2.0,-2.0,1651070632943694.0
0.0,-1.0,0.0,1.0,2.0,3.0,-1.0,0.0,1651070632965634.0
0.0,-2.0,-1.0,-1.0,0.0,-3.0,-3.0,-2.0,1651070632965634.0
0.0,0.0,-1.0,-2.0,-3.0,-2.0,2.0,0.0,1651070632966632.0
-1.0,-1.0,-3.0,-4.0,-3.0,1.0,1.0,-1.0,1651070632966632.0
0.0,0.0,2.0,0.0,-3.0,-2.0,1.0,-2.0,1651070632980750.0
1.0,0.0,-1.0,0.0,4.0,2.0,0.0,-1.0,1651070632980750.0
0.0,0.0,0.0,-2.0,-12.0,-3.0,-2.0,0.0,1651070632981750.0
-1.0,1.0,0.0,4.0,14.0,6.0,2.0,0.0,1651070632981750.0
1.0,0.0,-2.0,-4.0,-2.0,-3.0,1.0,-1.0,1651070633003736.0
1.0,1.0,0.0,-1.0,0.0,0.0,-1.0,-1.0,1651070633003736.0
0.0,-2.0,0.0,0.0,-4.0,0.0,0.0,-2.0,1651070633003736.0
-2.0,0.0,-2.0,-3.0,-11.0,-4.0,-1.0,-1.0,1651070633003736.0
-1.0,-1.0,-2.0,0.0,0.0,1.0,-2.0,-1.0,1651070633026008.0
1.0,-3.0,-1.0,1.0,2.0,0.0,1.0,-1.0,1651070633026008.0
0.0,-1.0,-1.0,-2.0,1.0,1.0,0.0,-1.0,1651070633026938.0
1.0,0.0,1.0,2.0,3.0,-2.0,1.0,-1.0,1651070633026938.0
0.0,-2.0,0.0,-1.0,-1.0,-2.0,0.0,-1.0,1651070633039970.0
-1.0,-1.0,-2.0,-4.0,-5.0,-1.0,-1.0,-2.0,1651070633039970.0
-1.0,-1.0,4.0,2.0,0.0,0.0,0.0,0.0,1651070633047943.0
0.0,-3.0,-1.0,1.0,-7.0,-3.0,-3.0,0.0,1651070633047943.0
0.0,-1.0,-1.0,0.0,5.0,0.0,0.0,0.0,1651070633071964.0
0.0,-1.0,-1.0,2.0,5.0,2.0,0.0,0.0,1651070633071964.0
1.0,-4.0,1.0,2.0,5.0,3.0,-1.0,0.0,1651070633071964.0
0.0,-1.0,-2.0,-2.0,-5.0,-1.0,-2.0,-2.0,1651070633071964.0
0.0,-1.0,0.0,1.0,-3.0,-1.0,-1.0,-1.0,1651070633085929.0
0.0,-1.0,-1.0,0.0,1.0,0.0,1.0,-1.0,1651070633085929.0
0.0,1.0,0.0,1.0,2.0,1.0,1.0,0.0,1651070633086953.0
0.0,1.0,0.0,-3.0,0.0,-2.0,1.0,0.0,1651070633086953.0
1.0,0.0,-2.0,-1.0,4.0,4.0,2.0,0.0,1651070633099974.0
-1.0,-1.0,-1.0,-1.0,-6.0,-2.0,-2.0,1.0,1651070633099974.0
0.0,1.0,0.0,1.0,-2.0,-1.0,-1.0,0.0,1651070633108035.0
0.0,-2.0,-1.0,1.0,8.0,2.0,1.0,0.0,1651070633108035.0
-3.0,0.0,-1.0,-5.0,-6.0,-2.0,-1.0,0.0,1651070633123722.0
0.0,0.0,1.0,2.0,7.0,1.0,1.0,0.0,1651070633123722.0
0.0,0.0,0.0,2.0,-4.0,-2.0,-3.0,0.0,1651070633123722.0
-1.0,-1.0,-2.0,-1.0,-1.0,0.0,-2.0,1.0,1651070633123722.0
-3.0,-1.0,-1.0,0.0,-2.0,-1.0,-1.0,0.0,1651070633154412.0
1.0,0.0,-1.0,-2.0,-4.0,-2.0,-1.0,1.0,1651070633154412.0
0.0,1.0,0.0,-2.0,0.0,-1.0,-1.0,-2.0,1651070633154412.0
1.0,-1.0,-1.0,-4.0,-2.0,-3.0,-1.0,-1.0,1651070633154412.0
1.0,0.0,-1.0,-4.0,-4.0,-3.0,-1.0,0.0,1651070633160399.0
0.0,-1.0,2.0,2.0,1.0,0.0,-1.0,-2.0,1651070633160399.0
0.0,-1.0,-1.0,1.0,7.0,3.0,0.0,-1.0,1651070633167407.0
0.0,0.0,2.0,1.0,-2.0,0.0,-2.0,1.0,1651070633167407.0
-1.0,0.0,-1.0,-2.0,1.0,-2.0,-1.0,0.0,1651070633183494.0
0.0,-1.0,-4.0,-3.0,-6.0,-1.0,0.0,-1.0,1651070633183494.0
-1.0,0.0,-1.0,-1.0,1.0,0.0,0.0,0.0,1651070633184460.0
-1.0,0.0,0.0,0.0,1.0,1.0,2.0,0.0,1651070633184460.0
0.0,0.0,0.0,0.0,-3.0,-3.0,-1.0,-1.0,1651070633205707.0
-3.0,-1.0,-2.0,-1.0,-1.0,-2.0,0.0,0.0,1651070633205707.0
-2.0,-1.0,0.0,-2.0,-6.0,-1.0,0.0,-1.0,1651070633206638.0
0.0,-1.0,0.0,4.0,3.0,0.0,-1.0,-1.0,1651070633206638.0
0.0,-1.0,-1.0,2.0,8.0,3.0,-1.0,-1.0,1651070633220610.0
-1.0,-2.0,0.0,-2.0,-1.0,-2.0,-1.0,0.0,1651070633220610.0
0.0,-1.0,-3.0,-1.0,-1.0,0.0,1.0,0.0,1651070633235783.0
0.0,-1.0,-1.0,-2.0,-1.0,0.0,-2.0,0.0,1651070633235783.0
-1.0,0.0,-2.0,2.0,-2.0,-3.0,-1.0,0.0,1651070633243133.0
0.0,-1.0,2.0,1.0,5.0,2.0,0.0,0.0,1651070633243133.0
0.0,0.0,0.0,-2.0,-3.0,-1.0,0.0,-2.0,1651070633243722.0
0.0,-1.0,-1.0,-1.0,3.0,1.0,0.0,0.0,1651070633243722.0
1.0,-2.0,-2.0,-2.0,0.0,0.0,1.0,-1.0,1651070633265737.0
1.0,-1.0,-2.0,0.0,-2.0,-1.0,-1.0,-1.0,1651070633265737.0
-1.0,0.0,0.0,-2.0,-5.0,-3.0,0.0,-1.0,1651070633266678.0
-2.0,-1.0,-1.0,-2.0,-7.0,-1.0,-1.0,0.0,1651070633266678.0
1.0,0.0,2.0,-1.0,8.0,1.0,-2.0,-3.0,1651070633280563.0
0.0,0.0,2.0,7.0,-1.0,1.0,0.0,-1.0,1651070633280563.0
-1.0,0.0,0.0,-3.0,3.0,-1.0,0.0,2.0,1651070633287613.0
0.0,-1.0,-3.0,-4.0,-5.0,-2.0,-1.0,0.0,1651070633287613.0
-2.0,-3.0,-4.0,-2.0,-8.0,-4.0,-2.0,0.0,1651070633303570.0
-2.0,0.0,-1.0,-3.0,-3.0,-4.0,1.0,-1.0,1651070633303570.0
-3.0,0.0,0.0,3.0,6.0,0.0,1.0,-1.0,1651070633304501.0
-1.0,1.0,0.0,-2.0,-4.0,-4.0,1.0,-2.0,1651070633304501.0
0.0,0.0,-1.0,0.0,2.0,2.0,-1.0,1.0,1651070633325699.0
0.0,-1.0,1.0,-1.0,1.0,3.0,-2.0,0.0,1651070633325699.0
0.0,-2.0,-1.0,1.0,2.0,0.0,-2.0,-1.0,1651070633326630.0
1.0,0.0,0.0,0.0,1.0,1.0,-2.0,-1.0,1651070633326630.0
-1.0,1.0,3.0,0.0,-8.0,-3.0,2.0,1.0,1651070633348696.0
-1.0,-2.0,-3.0,-3.0,-4.0,-1.0,-1.0,0.0,1651070633348696.0
0.0,1.0,-1.0,-1.0,7.0,-1.0,-2.0,1.0,1651070633348696.0
-2.0,-1.0,2.0,3.0,3.0,0.0,-2.0,-1.0,1651070633348696.0
0.0,1.0,-1.0,-1.0,-5.0,-1.0,0.0,-2.0,1651070633363679.0
0.0,0.0,1.0,1.0,-3.0,1.0,-1.0,-1.0,1651070633363679.0
1.0,-1.0,-3.0,-4.0,-4.0,-1.0,-2.0,-1.0,1651070633363679.0
-1.0,1.0,-2.0,-4.0,-4.0,-2.0,0.0,0.0,1651070633363679.0
0.0,-1.0,-1.0,2.0,0.0,3.0,0.0,-1.0,1651070633385750.0
0.0,1.0,0.0,-2.0,-1.0,-2.0,-2.0,1.0,1651070633385750.0
1.0,-1.0,0.0,-1.0,-9.0,-1.0,-2.0,-1.0,1651070633386680.0
-1.0,-1.0,1.0,2.0,6.0,2.0,2.0,0.0,1651070633386680.0
1.0,0.0,0.0,-1.0,-1.0,-2.0,-1.0,-1.0,1651070633408709.0
-1.0,-1.0,-2.0,-2.0,-3.0,-2.0,-1.0,-2.0,1651070633408709.0
-1.0,1.0,0.0,2.0,8.0,1.0,-1.0,-1.0,1651070633408709.0
-1.0,-1.0,-1.0,1.0,3.0,1.0,-1.0,0.0,1651070633408709.0
1.0,-1.0,-1.0,0.0,-1.0,-3.0,-2.0,0.0,1651070633423655.0
-1.0,-1.0,-1.0,0.0,3.0,-1.0,0.0,-1.0,1651070633423655.0
-2.0,-2.0,-1.0,-1.0,-2.0,0.0,0.0,0.0,1651070633423778.0
0.0,-2.0,0.0,-2.0,-5.0,-1.0,0.0,-2.0,1651070633423778.0
-2.0,-3.0,1.0,1.0,3.0,1.0,0.0,-2.0,1651070633445589.0
-2.0,-2.0,0.0,-4.0,-4.0,-2.0,-3.0,-1.0,1651070633445589.0
-1.0,0.0,-3.0,-1.0,-3.0,-2.0,0.0,0.0,1651070633446519.0
2.0,1.0,0.0,2.0,4.0,2.0,0.0,-1.0,1651070633446519.0
0.0,1.0,0.0,1.0,0.0,-2.0,-1.0,0.0,1651070633468527.0
1.0,-1.0,0.0,-2.0,-1.0,-1.0,-1.0,-1.0,1651070633468527.0
-2.0,0.0,-2.0,0.0,0.0,-1.0,0.0,-2.0,1651070633469458.0
1.0,1.0,-2.0,-3.0,-5.0,-3.0,1.0,-1.0,1651070633469458.0
-1.0,-1.0,0.0,-1.0,-4.0,-1.0,-1.0,-1.0,1651070633484448.0
1.0,-1.0,-1.0,0.0,1.0,0.0,0.0,0.0,1651070633484448.0
1.0,1.0,0.0,3.0,6.0,4.0,-2.0,1.0,1651070633485415.0
0.0,-2.0,0.0,1.0,-1.0,-1.0,-2.0,0.0,1651070633485415.0
0.0,-1.0,0.0,-1.0,-1.0,-1.0,-1.0,0.0,1651070633505516.0
-1.0,0.0,0.0,3.0,7.0,-1.0,0.0,-2.0,1651070633505516.0
-2.0,-1.0,0.0,2.0,-4.0,-3.0,-2.0,-2.0,1651070633506518.0
-1.0,-1.0,-1.0,-4.0,-5.0,-4.0,-1.0,-1.0,1651070633506518.0
-1.0,0.0,-2.0,-4.0,-8.0,1.0,0.0,0.0,1651070633528663.0
0.0,0.0,-3.0,-2.0,4.0,1.0,-2.0,-1.0,1651070633528663.0
2.0,0.0,1.0,-3.0,-4.0,0.0,2.0,-1.0,1651070633528663.0
-2.0,0.0,2.0,0.0,1.0,-2.0,-2.0,0.0,1651070633528663.0
-2.0,1.0,0.0,-1.0,-2.0,-3.0,-1.0,-1.0,1651070633543758.0
0.0,0.0,-1.0,3.0,-1.0,1.0,-1.0,-1.0,1651070633543758.0
-1.0,-2.0,-2.0,0.0,2.0,1.0,0.0,-1.0,1651070633543758.0
-1.0,0.0,1.0,-1.0,-4.0,-2.0,0.0,0.0,1651070633543758.0
0.0,0.0,-2.0,-2.0,2.0,1.0,1.0,0.0,1651070633565984.0
-1.0,1.0,1.0,-2.0,-2.0,1.0,0.0,0.0,1651070633565984.0
0.0,0.0,-2.0,-1.0,4.0,-2.0,1.0,-1.0,1651070633566915.0
-1.0,-1.0,-1.0,2.0,3.0,5.0,0.0,0.0,1651070633566915.0
-2.0,-1.0,-2.0,1.0,3.0,-2.0,-2.0,0.0,1651070633587944.0
0.0,1.0,1.0,0.0,0.0,-1.0,-1.0,0.0,1651070633587944.0
-1.0,-1.0,-2.0,-3.0,-5.0,0.0,-1.0,0.0,1651070633588941.0
-2.0,2.0,0.0,-4.0,3.0,-2.0,-1.0,-1.0,1651070633588941.0
1.0,2.0,-2.0,-1.0,0.0,2.0,1.0,-1.0,1651070633603679.0
-1.0,-1.0,1.0,2.0,-2.0,-1.0,0.0,0.0,1651070633603679.0
-1.0,2.0,0.0,0.0,-5.0,-3.0,-3.0,-1.0,1651070633603679.0
0.0,0.0,-1.0,-3.0,-7.0,-2.0,-1.0,0.0,1651070633603679.0
0.0,-1.0,-1.0,0.0,4.0,4.0,1.0,1.0,1651070633625652.0
-1.0,0.0,-1.0,-4.0,0.0,-3.0,0.0,0.0,1651070633625652.0
-1.0,-1.0,-1.0,-1.0,0.0,1.0,1.0,-1.0,1651070633626582.0
-1.0,-4.0,-1.0,1.0,-7.0,-5.0,-1.0,-1.0,1651070633626582.0
-1.0,-2.0,0.0,1.0,4.0,-3.0,-2.0,-1.0,1651070633648733.0
-1.0,0.0,0.0,3.0,8.0,2.0,0.0,-1.0,1651070633648733.0
-1.0,0.0,2.0,-1.0,-1.0,-1.0,-1.0,0.0,1651070633648733.0
-1.0,-1.0,-4.0,-2.0,2.0,1.0,1.0,-1.0,1651070633648733.0
-2.0,-2.0,0.0,0.0,-4.0,-3.0,0.0,0.0,1651070633663681.0
-1.0,0.0,-3.0,-6.0,-9.0,-2.0,-1.0,0.0,1651070633663681.0
0.0,1.0,-2.0,1.0,5.0,0.0,0.0,1.0,1651070633663681.0
0.0,-1.0,-1.0,1.0,-3.0,0.0,-1.0,-1.0,1651070633663681.0
1.0,-1.0,0.0,0.0,-3.0,-2.0,-2.0,-2.0,1651070633685814.0
-1.0,-1.0,0.0,-1.0,0.0,-1.0,0.0,-1.0,1651070633685814.0
-1.0,-1.0,-1.0,-3.0,0.0,-2.0,0.0,-1.0,1651070633686775.0
-1.0,0.0,-1.0,-3.0,-4.0,-1.0,0.0,0.0,1651070633686775.0
0.0,-1.0,1.0,6.0,-1.0,-5.0,-1.0,0.0,1651070633708712.0
0.0,-3.0,-1.0,-1.0,0.0,2.0,2.0,2.0,1651070633708712.0
0.0,-1.0,1.0,-2.0,-11.0,-2.0,0.0,-1.0,1651070633708712.0
-2.0,-2.0,-1.0,1.0,5.0,-2.0,-2.0,0.0,1651070633708712.0
1.0,0.0,0.0,3.0,22.0,10.0,2.0,0.0,1651070633723612.0
-1.0,1.0,-2.0,0.0,-7.0,-3.0,-3.0,-1.0,1651070633723612.0
0.0,-1.0,1.0,-2.0,3.0,-1.0,-1.0,1.0,1651070633723612.0
2.0,-1.0,-1.0,-1.0,-11.0,-3.0,0.0,0.0,1651070633723612.0
0.0,0.0,-2.0,-3.0,-6.0,-3.0,-1.0,-1.0,1651070633745677.0
-2.0,-2.0,2.0,-2.0,-1.0,1.0,0.0,-1.0,1651070633745677.0
-1.0,0.0,1.0,6.0,8.0,5.0,0.0,0.0,1651070633746674.0
-2.0,0.0,-1.0,-2.0,-3.0,1.0,-1.0,-1.0,1651070633746674.0
-1.0,-1.0,0.0,-3.0,1.0,-2.0,1.0,-1.0,1651070633768784.0
-1.0,0.0,-1.0,4.0,5.0,1.0,1.0,-2.0,1651070633768784.0
-2.0,2.0,-1.0,-4.0,-8.0,-5.0,-1.0,0.0,1651070633768784.0
-1.0,-2.0,1.0,0.0,1.0,2.0,0.0,0.0,1651070633768784.0
-3.0,0.0,0.0,-3.0,-4.0,-3.0,-2.0,-2.0,1651070633782899.0
0.0,0.0,0.0,-3.0,-5.0,-3.0,-1.0,-1.0,1651070633782899.0
0.0,-3.0,2.0,3.0,2.0,-1.0,0.0,0.0,1651070633783903.0
1.0,2.0,-2.0,1.0,9.0,1.0,1.0,-1.0,1651070633783903.0
-1.0,-1.0,0.0,-2.0,-3.0,-1.0,-3.0,0.0,1651070633804857.0
0.0,0.0,-1.0,0.0,-3.0,0.0,-1.0,1.0,1651070633804857.0
1.0,-3.0,-1.0,1.0,-2.0,-1.0,0.0,0.0,1651070633812815.0
-1.0,-2.0,-1.0,-1.0,-2.0,-3.0,-2.0,0.0,1651070633812815.0
0.0,-1.0,2.0,-2.0,-2.0,2.0,2.0,-2.0,1651070633827824.0
-1.0,0.0,0.0,0.0,-3.0,0.0,0.0,0.0,1651070633827824.0
0.0,-1.0,-3.0,0.0,0.0,0.0,-1.0,-2.0,1651070633828802.0
0.0,0.0,-1.0,0.0,2.0,0.0,1.0,0.0,1651070633828802.0
0.0,1.0,-2.0,-1.0,-3.0,2.0,-2.0,1.0,1651070633851978.0
-1.0,-1.0,0.0,0.0,0.0,-1.0,0.0,-1.0,1651070633851978.0
0.0,-2.0,-2.0,-2.0,0.0,-1.0,0.0,0.0,1651070633851978.0
-1.0,-1.0,-1.0,2.0,-1.0,-1.0,-1.0,-1.0,1651070633851978.0
-3.0,0.0,0.0,-2.0,-5.0,-2.0,-1.0,-2.0,1651070633865075.0
0.0,1.0,-1.0,0.0,3.0,0.0,2.0,-1.0,1651070633865075.0
-2.0,0.0,-1.0,-5.0,-7.0,-4.0,-1.0,-1.0,1651070633873703.0
1.0,2.0,0.0,1.0,12.0,7.0,2.0,2.0,1651070633873703.0
0.0,0.0,1.0,6.0,-3.0,-2.0,0.0,-1.0,1651070633888064.0
-1.0,-2.0,-1.0,-2.0,-4.0,-2.0,-2.0,-1.0,1651070633888064.0
0.0,2.0,0.0,-1.0,-2.0,1.0,0.0,-1.0,1651070633889003.0
0.0,0.0,0.0,-4.0,-3.0,-4.0,-1.0,-2.0,1651070633889003.0
1.0,-1.0,1.0,0.0,0.0,1.0,1.0,0.0,1651070633911061.0
0.0,-2.0,-2.0,0.0,1.0,1.0,1.0,1.0,1651070633911061.0
-1.0,-2.0,-1.0,-4.0,1.0,0.0,-1.0,-1.0,1651070633912058.0
0.0,0.0,-2.0,-1.0,-4.0,1.0,-2.0,-1.0,1651070633912058.0
0.0,0.0,-1.0,-2.0,2.0,1.0,0.0,0.0,1651070633934193.0
0.0,-1.0,0.0,1.0,-2.0,-2.0,-2.0,-2.0,1651070633934193.0
0.0,0.0,-1.0,-3.0,-9.0,-2.0,0.0,1.0,1651070633935193.0
-1.0,0.0,-1.0,2.0,14.0,0.0,-1.0,-2.0,1651070633935193.0
0.0,0.0,-1.0,0.0,-6.0,-3.0,0.0,0.0,1651070633948227.0
1.0,1.0,-1.0,-2.0,-3.0,-2.0,-1.0,0.0,1651070633948227.0
0.0,2.0,2.0,4.0,13.0,7.0,3.0,0.0,1651070633949156.0
-1.0,-2.0,2.0,-1.0,-6.0,-3.0,0.0,-3.0,1651070633949156.0
0.0,-1.0,-2.0,-3.0,-3.0,-2.0,-2.0,-3.0,1651070633971916.0
-2.0,-2.0,-4.0,-1.0,3.0,-1.0,-1.0,0.0,1651070633971916.0
1.0,-1.0,1.0,0.0,-5.0,-3.0,-3.0,0.0,1651070633971916.0
-1.0,0.0,0.0,0.0,0.0,0.0,-3.0,-1.0,1651070633971916.0
0.0,-1.0,-2.0,-1.0,1.0,0.0,-2.0,1.0,1651070633994378.0
-2.0,-1.0,0.0,-1.0,2.0,2.0,2.0,0.0,1651070633994378.0
-1.0,-2.0,-2.0,-2.0,2.0,-2.0,0.0,-2.0,1651070633994647.0
1.0,0.0,-1.0,-1.0,2.0,4.0,1.0,1.0,1651070633994647.0
1.0,1.0,2.0,1.0,-12.0,-6.0,-1.0,-2.0,1651070634008683.0
0.0,0.0,0.0,-2.0,4.0,0.0,-1.0,0.0,1651070634008683.0
-4.0,-2.0,-1.0,2.0,0.0,0.0,0.0,1.0,1651070634008683.0
-1.0,0.0,0.0,-2.0,-10.0,-6.0,0.0,0.0,1651070634008683.0
-1.0,-1.0,-2.0,-2.0,5.0,2.0,-1.0,1.0,1651070634031618.0
1.0,-2.0,2.0,2.0,3.0,-1.0,-2.0,0.0,1651070634031618.0
-1.0,-1.0,-1.0,-1.0,-2.0,-1.0,-2.0,-1.0,1651070634032575.0
-1.0,0.0,-4.0,-2.0,-6.0,1.0,0.0,0.0,1651070634032575.0
-1.0,-1.0,0.0,-1.0,-1.0,0.0,2.0,0.0,1651070634054503.0
-1.0,0.0,-1.0,-2.0,-6.0,1.0,1.0,-2.0,1651070634054503.0
0.0,-2.0,0.0,0.0,-1.0,-2.0,-2.0,0.0,1651070634054503.0
-1.0,0.0,0.0,1.0,0.0,-1.0,-1.0,1.0,1651070634054503.0
1.0,0.0,-1.0,0.0,1.0,1.0,0.0,-2.0,1651070634068592.0
1.0,0.0,-1.0,-1.0,-3.0,1.0,0.0,1.0,1651070634068592.0
1.0,0.0,-1.0,-2.0,-1.0,-1.0,-1.0,-1.0,1651070634068592.0
-2.0,-2.0,-2.0,1.0,0.0,4.0,0.0,-2.0,1651070634068592.0
-2.0,-2.0,-1.0,-1.0,1.0,0.0,-1.0,0.0,1651070634091906.0
-2.0,1.0,0.0,0.0,2.0,-2.0,0.0,-2.0,1651070634091906.0
-1.0,-1.0,-1.0,-1.0,-3.0,-1.0,-1.0,0.0,1651070634091906.0
-1.0,0.0,0.0,-4.0,-5.0,-4.0,0.0,0.0,1651070634091906.0
-1.0,1.0,0.0,1.0,6.0,-2.0,0.0,-1.0,1651070634113916.0
-1.0,-1.0,1.0,5.0,-2.0,-2.0,-1.0,1.0,1651070634113916.0
1.0,-1.0,1.0,0.0,1.0,-1.0,0.0,0.0,1651070634114847.0
0.0,-1.0,0.0,0.0,-3.0,-2.0,-1.0,-1.0,1651070634114847.0
-1.0,-2.0,-3.0,-3.0,4.0,1.0,-2.0,-2.0,1651070634127878.0
-2.0,-2.0,-2.0,-5.0,-4.0,-1.0,-1.0,2.0,1651070634127878.0
-1.0,-2.0,-2.0,-1.0,1.0,-1.0,0.0,-1.0,1651070634128810.0
0.0,-1.0,-2.0,2.0,4.0,-1.0,1.0,-2.0,1651070634128810.0
0.0,0.0,-1.0,-2.0,0.0,2.0,2.0,1.0,1651070634150656.0
-1.0,-3.0,1.0,2.0,2.0,0.0,-2.0,-2.0,1651070634150656.0
0.0,1.0,-2.0,-3.0,-4.0,-1.0,0.0,-1.0,1651070634151654.0
2.0,-1.0,-2.0,-2.0,-3.0,-2.0,-1.0,0.0,1651070634151654.0
0.0,1.0,-1.0,0.0,-6.0,-3.0,-1.0,0.0,1651070634172762.0
-2.0,-2.0,-3.0,0.0,-2.0,-2.0,1.0,0.0,1651070634172762.0
-1.0,-3.0,1.0,-3.0,4.0,-2.0,0.0,0.0,1651070634181253.0
2.0,1.0,3.0,6.0,17.0,13.0,0.0,2.0,1651070634181253.0
0.0,0.0,-1.0,1.0,1.0,-2.0,-1.0,-1.0,1651070634188677.0
1.0,2.0,-1.0,-1.0,-6.0,0.0,-1.0,0.0,1651070634188677.0
-2.0,2.0,-1.0,-1.0,-8.0,-2.0,-2.0,-1.0,1651070634188677.0
-3.0,0.0,-3.0,-2.0,-3.0,-4.0,-1.0,0.0,1651070634188677.0
-1.0,-5.0,0.0,1.0,-5.0,-2.0,0.0,0.0,1651070634211756.0
0.0,0.0,0.0,-4.0,-2.0,2.0,0.0,-1.0,1651070634211756.0
1.0,-1.0,-2.0,3.0,6.0,0.0,1.0,1.0,1651070634211756.0
2.0,-1.0,0.0,1.0,-2.0,-1.0,-1.0,0.0,1651070634211756.0
-1.0,1.0,0.0,-3.0,-2.0,-1.0,0.0,0.0,1651070634233796.0
-1.0,-1.0,-2.0,-6.0,-13.0,-4.0,-1.0,-1.0,1651070634233796.0
0.0,0.0,-2.0,1.0,5.0,-3.0,0.0,-1.0,1651070634234809.0
-2.0,-4.0,1.0,3.0,6.0,3.0,-1.0,1.0,1651070634234809.0
-1.0,-1.0,0.0,2.0,-6.0,0.0,-1.0,-1.0,1651070634248759.0
1.0,1.0,-1.0,6.0,16.0,0.0,-1.0,0.0,1651070634248759.0
-2.0,-2.0,1.0,-4.0,-9.0,-2.0,0.0,-1.0,1651070634248759.0
0.0,1.0,0.0,-2.0,9.0,2.0,-1.0,-1.0,1651070634248759.0
-1.0,0.0,-1.0,-2.0,-2.0,-3.0,-1.0,-1.0,1651070634271872.0
2.0,-1.0,0.0,0.0,-5.0,-1.0,-1.0,1.0,1651070634271872.0
0.0,0.0,-2.0,0.0,0.0,-1.0,-1.0,-1.0,1651070634271872.0
0.0,-1.0,-2.0,-4.0,-9.0,-6.0,0.0,-2.0,1651070634271872.0
-1.0,-1.0,-1.0,-2.0,2.0,3.0,0.0,-1.0,1651070634301628.0
-2.0,3.0,3.0,1.0,3.0,0.0,0.0,-1.0,1651070634301628.0
-2.0,0.0,1.0,-2.0,-4.0,-2.0,-1.0,-2.0,1651070634302646.0
0.0,2.0,-2.0,-4.0,-8.0,-2.0,-2.0,-2.0,1651070634302646.0
2.0,6.0,-1.0,-2.0,0.0,-3.0,-2.0,0.0,1651070634308609.0
-3.0,-3.0,4.0,9.0,13.0,5.0,2.0,-2.0,1651070634308609.0
-1.0,-6.0,2.0,2.0,12.0,10.0,2.0,3.0,1651070634308609.0
1.0,-3.0,1.0,-2.0,-5.0,0.0,0.0,0.0,1651070634308609.0
-3.0,-2.0,-1.0,3.0,-1.0,-2.0,1.0,-1.0,1651070634331616.0
-2.0,-5.0,-2.0,-6.0,-13.0,-7.0,-2.0,-2.0,1651070634331616.0
0.0,-1.0,3.0,3.0,-4.0,0.0,0.0,-1.0,1651070634332546.0
0.0,4.0,1.0,3.0,3.0,-4.0,-2.0,0.0,1651070634332546.0
-1.0,-7.0,-12.0,-4.0,3.0,1.0,-2.0,-3.0,1651070634354486.0
0.0,2.0,0.0,-1.0,-11.0,-7.0,-1.0,0.0,1651070634354486.0
0.0,1.0,-17.0,-19.0,5.0,4.0,-2.0,-3.0,1651070634354486.0
0.0,1.0,2.0,5.0,-2.0,-1.0,0.0,0.0,1651070634354486.0
-2.0,0.0,8.0,12.0,10.0,7.0,1.0,-3.0,1651070634368450.0
-3.0,-11.0,-6.0,-9.0,0.0,-1.0,-1.0,-2.0,1651070634368450.0
1.0,2.0,1.0,-6.0,-11.0,-4.0,-2.0,-2.0,1651070634369468.0
1.0,1.0,-7.0,-5.0,-6.0,-4.0,-2.0,0.0,1651070634369468.0
0.0,2.0,4.0,4.0,-4.0,-3.0,-1.0,1.0,1651070634390583.0
-1.0,4.0,3.0,3.0,-2.0,-4.0,-1.0,0.0,1651070634390583.0
3.0,23.0,5.0,-4.0,-15.0,-7.0,-2.0,-2.0,1651070634391513.0
-9.0,-45.0,-24.0,4.0,29.0,15.0,2.0,-2.0,1651070634391513.0
3.0,8.0,16.0,2.0,-3.0,-2.0,0.0,1.0,1651070634414352.0
1.0,-10.0,-17.0,1.0,25.0,7.0,0.0,1.0,1651070634414352.0
0.0,-3.0,-7.0,-6.0,-17.0,-12.0,-1.0,1.0,1651070634414545.0
-1.0,16.0,23.0,-2.0,-11.0,-4.0,-2.0,-4.0,1651070634414545.0
-6.0,-5.0,-3.0,-1.0,6.0,7.0,1.0,-3.0,1651070634428576.0
4.0,4.0,-1.0,0.0,-2.0,-1.0,0.0,7.0,1651070634428576.0
4.0,5.0,-8.0,2.0,-16.0,-7.0,-1.0,2.0,1651070634429519.0
4.0,7.0,-10.0,-19.0,-15.0,-10.0,0.0,-2.0,1651070634429519.0
-3.0,-16.0,1.0,5.0,3.0,3.0,6.0,1.0,1651070634450651.0
-18.0,1.0,47.0,5.0,1.0,-4.0,-11.0,-36.0,1651070634450651.0
-7.0,-25.0,-6.0,9.0,29.0,22.0,10.0,25.0,1651070634451582.0
14.0,30.0,-2.0,-5.0,13.0,15.0,12.0,19.0,1651070634451582.0
14.0,16.0,-5.0,-4.0,1.0,-6.0,-14.0,-24.0,1651070634474402.0
23.0,-4.0,-9.0,10.0,2.0,-2.0,3.0,59.0,1651070634474402.0
-12.0,24.0,54.0,19.0,-19.0,-14.0,-5.0,-20.0,1651070634474528.0
-45.0,-24.0,-56.0,-10.0,-8.0,-2.0,-6.0,-44.0,1651070634474528.0
10.0,20.0,18.0,-34.0,-17.0,-7.0,3.0,2.0,1651070634488562.0
30.0,-8.0,8.0,3.0,-10.0,-1.0,11.0,62.0,1651070634488562.0
-14.0,-4.0,-13.0,-5.0,11.0,0.0,-13.0,-4.0,1651070634488562.0
3.0,20.0,19.0,11.0,4.0,2.0,2.0,-6.0,1651070634488562.0
-1.0,74.0,-10.0,22.0,0.0,-9.0,-8.0,-3.0,1651070634510558.0
-8.0,-105.0,-18.0,-7.0,-1.0,1.0,-3.0,-14.0,1651070634510558.0
-37.0,-12.0,-14.0,-10.0,0.0,2.0,8.0,-36.0,1651070634511507.0
-45.0,-3.0,5.0,-8.0,-25.0,-15.0,-29.0,-100.0,1651070634511507.0
22.0,-65.0,-34.0,-8.0,18.0,13.0,10.0,71.0,1651070634533768.0
76.0,127.0,34.0,18.0,15.0,12.0,31.0,97.0,1651070634533768.0
20.0,-66.0,-16.0,-9.0,-17.0,-9.0,-1.0,41.0,1651070634534767.0
-14.0,-60.0,48.0,-3.0,11.0,-8.0,-6.0,-14.0,1651070634534767.0
-26.0,-1.0,-14.0,15.0,-2.0,-2.0,-5.0,-48.0,1651070634547657.0
-51.0,-85.0,2.0,9.0,9.0,11.0,-6.0,-47.0,1651070634547657.0
15.0,72.0,18.0,11.0,22.0,16.0,9.0,-9.0,1651070634555636.0
3.0,-30.0,-14.0,-15.0,-20.0,-9.0,0.0,20.0,1651070634555636.0
34.0,17.0,-61.0,-8.0,-13.0,-8.0,-5.0,0.0,1651070634571593.0
-22.0,27.0,-2.0,-37.0,-38.0,-16.0,-4.0,-33.0,1651070634571593.0
9.0,56.0,61.0,21.0,37.0,21.0,6.0,-1.0,1651070634571593.0
19.0,-38.0,-79.0,0.0,5.0,5.0,9.0,35.0,1651070634571593.0
-15.0,-34.0,45.0,2.0,11.0,-4.0,-6.0,9.0,1651070634594500.0
-22.0,-34.0,-37.0,-4.0,-12.0,-8.0,-11.0,-36.0,1651070634594500.0
-5.0,-35.0,5.0,-1.0,-7.0,-5.0,1.0,-1.0,1651070634594500.0
13.0,76.0,24.0,-1.0,-7.0,-3.0,2.0,24.0,1651070634594500.0
3.0,-9.0,45.0,7.0,5.0,9.0,5.0,4.0,1651070634607612.0
-14.0,3.0,-24.0,-5.0,-4.0,-3.0,-6.0,-29.0,1651070634607612.0
-11.0,-61.0,2.0,-5.0,-7.0,-11.0,-16.0,-5.0,1651070634615649.0
38.0,41.0,50.0,16.0,15.0,17.0,23.0,20.0,1651070634615649.0
-30.0,-39.0,-88.0,-23.0,-19.0,-12.0,-9.0,-1.0,1651070634631152.0
0.0,50.0,22.0,-1.0,-2.0,8.0,1.0,-15.0,1651070634631152.0
34.0,42.0,-34.0,17.0,28.0,11.0,7.0,25.0,1651070634631379.0
-15.0,-47.0,-15.0,2.0,-1.0,0.0,-6.0,1.0,1651070634631379.0
20.0,65.0,41.0,8.0,-7.0,-1.0,18.0,32.0,1651070634653749.0
-6.0,26.0,14.0,-6.0,-14.0,-14.0,-14.0,-25.0,1651070634653749.0
-10.0,-38.0,-57.0,-4.0,13.0,15.0,2.0,-9.0,1651070634654679.0
6.0,6.0,44.0,7.0,14.0,-2.0,-4.0,4.0,1651070634654679.0
-8.0,10.0,35.0,2.0,15.0,1.0,0.0,-6.0,1651070634667714.0
-18.0,-39.0,-88.0,-18.0,1.0,3.0,-1.0,-8.0,1651070634667714.0
9.0,18.0,18.0,-2.0,-18.0,-6.0,-3.0,-11.0,1651070634675690.0
7.0,-22.0,31.0,1.0,1.0,-1.0,-1.0,28.0,1651070634675690.0
-15.0,-26.0,-53.0,-17.0,-4.0,3.0,5.0,-7.0,1651070634691176.0
14.0,27.0,31.0,11.0,6.0,0.0,0.0,8.0,1651070634691176.0
6.0,35.0,14.0,-7.0,-10.0,-6.0,-5.0,-11.0,1651070634691617.0
9.0,13.0,-40.0,5.0,1.0,5.0,9.0,6.0,1651070634691617.0
-4.0,-11.0,-17.0,-3.0,-9.0,-5.0,-11.0,-14.0,1651070634715487.0
-7.0,-1.0,22.0,19.0,10.0,6.0,5.0,-32.0,1651070634715487.0
-1.0,-31.0,3.0,7.0,5.0,-2.0,-2.0,40.0,1651070634716477.0
10.0,33.0,3.0,0.0,-14.0,-8.0,2.0,4.0,1651070634716477.0
-2.0,29.0,23.0,-4.0,-6.0,3.0,7.0,10.0,1651070634736516.0
-15.0,-38.0,-22.0,5.0,28.0,9.0,-6.0,-18.0,1651070634736516.0
-4.0,-3.0,27.0,18.0,-11.0,-1.0,1.0,-12.0,1651070634737505.0
-5.0,31.0,24.0,-36.0,-14.0,-11.0,-8.0,7.0,1651070634737505.0
12.0,-42.0,-76.0,10.0,-19.0,0.0,-1.0,-7.0,1651070634750483.0
-8.0,-10.0,-28.0,-22.0,0.0,-11.0,-10.0,-7.0,1651070634750483.0
7.0,1.0,-34.0,-39.0,8.0,10.0,6.0,2.0,1651070634751467.0
-10.0,1.0,45.0,41.0,1.0,-7.0,-6.0,-6.0,1651070634751467.0
-8.0,16.0,62.0,16.0,7.0,6.0,-3.0,-23.0,1651070634774413.0
31.0,22.0,-45.0,-2.0,-38.0,-13.0,5.0,28.0,1651070634774413.0
-5.0,-27.0,-3.0,-7.0,3.0,2.0,2.0,-7.0,1651070634774413.0
-3.0,-34.0,-50.0,3.0,17.0,6.0,0.0,4.0,1651070634774413.0
0.0,11.0,32.0,-14.0,-3.0,-9.0,0.0,-2.0,1651070634787442.0
3.0,-1.0,8.0,-14.0,-2.0,-3.0,-10.0,-10.0,1651070634787442.0
-12.0,3.0,9.0,-11.0,-32.0,-15.0,0.0,8.0,1651070634795420.0
5.0,1.0,2.0,7.0,15.0,11.0,5.0,10.0,1651070634795420.0
-8.0,-27.0,-9.0,5.0,-1.0,-3.0,0.0,-13.0,1651070634810463.0
8.0,14.0,52.0,10.0,12.0,2.0,3.0,21.0,1651070634810463.0
3.0,14.0,11.0,4.0,-10.0,-1.0,2.0,-3.0,1651070634811394.0
-15.0,-4.0,20.0,1.0,-13.0,-8.0,-9.0,-12.0,1651070634811394.0
0.0,-4.0,-11.0,-13.0,1.0,2.0,3.0,-6.0,1651070634834438.0
4.0,31.0,-9.0,2.0,7.0,8.0,3.0,6.0,1651070634834438.0
5.0,-40.0,4.0,11.0,9.0,0.0,2.0,-4.0,1651070634834438.0
0.0,6.0,-12.0,12.0,-6.0,-2.0,3.0,23.0,1651070634834438.0
-16.0,-22.0,8.0,-24.0,-20.0,-11.0,-17.0,-26.0,1651070634856483.0
6.0,21.0,43.0,21.0,19.0,2.0,-5.0,-26.0,1651070634856483.0
5.0,18.0,-64.0,-6.0,-23.0,-9.0,-1.0,24.0,1651070634857508.0
1.0,-12.0,46.0,6.0,33.0,14.0,1.0,-12.0,1651070634857508.0
13.0,11.0,26.0,11.0,19.0,16.0,7.0,22.0,1651070634871176.0
-17.0,-16.0,15.0,-18.0,-19.0,-8.0,-3.0,-1.0,1651070634871176.0
6.0,40.0,7.0,14.0,6.0,-4.0,-4.0,-13.0,1651070634871381.0
3.0,5.0,-11.0,1.0,-11.0,-3.0,0.0,-3.0,1651070634871381.0
-17.0,4.0,0.0,-2.0,-5.0,-7.0,-6.0,-4.0,1651070634894388.0
1.0,3.0,-12.0,18.0,8.0,6.0,2.0,5.0,1651070634894388.0
-3.0,-6.0,-7.0,-27.0,-8.0,-6.0,-4.0,-9.0,1651070634894388.0
-6.0,16.0,2.0,6.0,-10.0,-3.0,-4.0,-39.0,1651070634894388.0
3.0,-48.0,12.0,-15.0,-3.0,0.0,2.0,43.0,1651070634916940.0
14.0,-13.0,-22.0,13.0,3.0,-2.0,8.0,22.0,1651070634916940.0
-14.0,-7.0,-14.0,20.0,18.0,-1.0,-10.0,-18.0,1651070634916940.0
4.0,17.0,-22.0,-29.0,-12.0,-10.0,-6.0,-3.0,1651070634916940.0
4.0,6.0,35.0,12.0,5.0,5.0,5.0,-6.0,1651070634930556.0
-13.0,-15.0,-21.0,-20.0,-27.0,-6.0,-3.0,0.0,1651070634930556.0
-5.0,21.0,84.0,15.0,26.0,3.0,-4.0,-24.0,1651070634931557.0
6.0,-4.0,-63.0,-20.0,-11.0,-3.0,5.0,20.0,1651070634931557.0
-2.0,23.0,24.0,22.0,12.0,5.0,-7.0,-21.0,1651070634953490.0
5.0,-14.0,5.0,7.0,-2.0,-1.0,5.0,18.0,1651070634953490.0
-9.0,12.0,35.0,-1.0,-4.0,-4.0,-6.0,-13.0,1651070634954461.0
17.0,36.0,-19.0,-12.0,-11.0,-4.0,-2.0,8.0,1651070634954461.0
-4.0,-61.0,-49.0,-14.0,-1.0,-5.0,1.0,2.0,1651070634976611.0
-13.0,11.0,21.0,8.0,4.0,-1.0,-5.0,-16.0,1651070634976611.0
2.0,-14.0,-11.0,-12.0,-4.0,1.0,3.0,1.0,1651070634976611.0
-11.0,-19.0,-40.0,-17.0,16.0,8.0,0.0,3.0,1651070634976611.0
2.0,3.0,20.0,41.0,13.0,5.0,1.0,-1.0,1651070634991176.0
12.0,29.0,8.0,1.0,-22.0,-2.0,1.0,-3.0,1651070634991176.0
-7.0,-7.0,-2.0,11.0,10.0,5.0,6.0,12.0,1651070634991617.0
-11.0,3.0,-5.0,-12.0,-7.0,-5.0,-14.0,-56.0,1651070634991617.0
21.0,14.0,49.0,-3.0,1.0,0.0,15.0,67.0,1651070635014148.0
-17.0,-29.0,-15.0,11.0,6.0,0.0,-6.0,-16.0,1651070635014148.0
30.0,28.0,-22.0,-14.0,-9.0,-4.0,1.0,15.0,1651070635015214.0
-3.0,8.0,27.0,12.0,-9.0,-5.0,-2.0,2.0,1651070635015214.0
-24.0,-37.0,-9.0,9.0,11.0,4.0,-4.0,-45.0,1651070635036546.0
19.0,14.0,9.0,-39.0,-7.0,1.0,4.0,32.0,1651070635036546.0
-1.0,-5.0,-63.0,-4.0,-6.0,-1.0,0.0,2.0,1651070635037538.0
3.0,-28.0,-12.0,7.0,6.0,4.0,1.0,-3.0,1651070635037538.0
-4.0,25.0,-5.0,-25.0,0.0,2.0,-4.0,-10.0,1651070635051176.0
-6.0,-33.0,16.0,14.0,-5.0,-1.0,1.0,13.0,1651070635051176.0
-6.0,-2.0,18.0,3.0,-2.0,-11.0,-10.0,-18.0,1651070635051525.0
-14.0,-23.0,-5.0,16.0,18.0,13.0,3.0,5.0,1651070635051525.0
14.0,23.0,-32.0,-32.0,-30.0,-19.0,-6.0,-8.0,1651070635074511.0
2.0,17.0,48.0,6.0,38.0,19.0,8.0,8.0,1651070635074511.0
-4.0,-18.0,-8.0,1.0,-12.0,-3.0,-4.0,-4.0,1651070635074511.0
-7.0,7.0,35.0,13.0,-8.0,-7.0,-5.0,-11.0,1651070635074511.0
-3.0,-11.0,-10.0,-6.0,-7.0,-3.0,-4.0,-23.0,1651070635096563.0
25.0,19.0,-11.0,-32.0,-13.0,-3.0,6.0,30.0,1651070635096563.0
-7.0,1.0,12.0,19.0,-4.0,3.0,5.0,5.0,1651070635097580.0
12.0,28.0,21.0,-1.0,11.0,-1.0,5.0,19.0,1651070635097580.0
4.0,16.0,-36.0,-15.0,-2.0,0.0,1.0,0.0,1651070635110592.0
-15.0,-18.0,-46.0,16.0,-8.0,-6.0,-7.0,-21.0,1651070635110592.0
-5.0,-67.0,-7.0,-18.0,-2.0,10.0,5.0,8.0,1651070635111523.0
8.0,38.0,31.0,23.0,21.0,4.0,2.0,9.0,1651070635111523.0
0.0,15.0,14.0,10.0,5.0,2.0,-1.0,-21.0,1651070635134462.0
-8.0,5.0,-7.0,-11.0,-5.0,-7.0,-7.0,6.0,1651070635134462.0
2.0,20.0,-27.0,-14.0,-23.0,-9.0,-6.0,2.0,1651070635134462.0
-5.0,-22.0,11.0,-17.0,-5.0,-3.0,-2.0,-5.0,1651070635134462.0
-6.0,32.0,-6.0,-6.0,8.0,4.0,1.0,1.0,1651070635156322.0
-12.0,-32.0,-22.0,14.0,-1.0,0.0,-1.0,-11.0,1651070635156322.0
3.0,0.0,35.0,0.0,1.0,1.0,-1.0,-1.0,1651070635157252.0
2.0,-27.0,-14.0,-4.0,-11.0,-6.0,-5.0,-9.0,1651070635157252.0
12.0,78.0,33.0,21.0,7.0,1.0,8.0,45.0,1651070635171280.0
2.0,-15.0,-11.0,5.0,-9.0,-2.0,0.0,-9.0,1651070635171280.0
5.0,18.0,19.0,-7.0,12.0,-2.0,0.0,3.0,1651070635171280.0
-14.0,-34.0,-47.0,5.0,-2.0,-1.0,-1.0,0.0,1651070635171280.0
15.0,8.0,12.0,-9.0,-4.0,9.0,0.0,-16.0,1651070635194351.0
-2.0,-9.0,5.0,-6.0,9.0,-1.0,2.0,7.0,1651070635194351.0
0.0,30.0,-16.0,-8.0,-2.0,6.0,0.0,-8.0,1651070635194351.0
14.0,-34.0,1.0,2.0,-6.0,-3.0,-1.0,9.0,1651070635194351.0
-15.0,-44.0,14.0,14.0,-7.0,-10.0,-9.0,-17.0,1651070635216376.0
1.0,-1.0,18.0,-13.0,-4.0,1.0,2.0,-8.0,1651070635216376.0
7.0,-12.0,32.0,22.0,14.0,0.0,1.0,29.0,1651070635217357.0
5.0,47.0,-8.0,-3.0,-10.0,0.0,3.0,-2.0,1651070635217357.0
6.0,33.0,-43.0,-19.0,0.0,-3.0,-2.0,5.0,1651070635230340.0
-16.0,18.0,-13.0,-17.0,-14.0,0.0,-6.0,-26.0,1651070635230340.0
-11.0,-2.0,-8.0,8.0,5.0,-5.0,-7.0,-21.0,1651070635231322.0
7.0,-18.0,-11.0,-6.0,8.0,4.0,7.0,21.0,1651070635231322.0
-1.0,-42.0,0.0,13.0,2.0,-1.0,-3.0,10.0,1651070635254376.0
9.0,44.0,27.0,1.0,6.0,-1.0,3.0,-3.0,1651070635254376.0
-7.0,-37.0,-30.0,-6.0,-5.0,1.0,4.0,-4.0,1651070635254376.0
0.0,17.0,18.0,-12.0,-24.0,-7.0,-1.0,-1.0,1651070635254376.0
6.0,38.0,26.0,51.0,32.0,6.0,1.0,-4.0,1651070635276741.0
-8.0,-40.0,13.0,-12.0,7.0,8.0,0.0,-2.0,1651070635276741.0
-7.0,-2.0,-28.0,-9.0,21.0,9.0,3.0,-7.0,1651070635277729.0
13.0,0.0,-20.0,-14.0,-16.0,-11.0,2.0,15.0,1651070635277729.0
-9.0,22.0,-40.0,-48.0,-10.0,-3.0,-8.0,-29.0,1651070635290866.0
6.0,-26.0,36.0,35.0,5.0,-1.0,-2.0,25.0,1651070635290866.0
2.0,9.0,4.0,15.0,5.0,1.0,12.0,34.0,1651070635291809.0
-18.0,11.0,20.0,-1.0,1.0,-2.0,-6.0,-22.0,1651070635291809.0
-4.0,-21.0,-7.0,6.0,-12.0,-3.0,4.0,26.0,1651070635314101.0
-9.0,45.0,5.0,-1.0,7.0,2.0,-6.0,-28.0,1651070635314101.0
11.0,-28.0,8.0,19.0,-9.0,-1.0,0.0,-13.0,1651070635315133.0
2.0,41.0,23.0,0.0,13.0,4.0,1.0,14.0,1651070635315133.0
6.0,-39.0,-22.0,-10.0,-13.0,-2.0,4.0,5.0,1651070635336408.0
-9.0,-18.0,-28.0,2.0,0.0,-1.0,0.0,-4.0,1651070635336408.0
-3.0,34.0,4.0,-6.0,-2.0,-2.0,-5.0,-7.0,1651070635337377.0
13.0,5.0,11.0,7.0,-17.0,-3.0,-2.0,2.0,1651070635337377.0
14.0,-2.0,64.0,26.0,36.0,14.0,6.0,7.0,1651070635350354.0
-8.0,8.0,-37.0,-25.0,-11.0,-3.0,3.0,0.0,1651070635350354.0
-16.0,-19.0,-18.0,-18.0,-16.0,-8.0,-4.0,-4.0,1651070635351345.0
-4.0,-31.0,5.0,-1.0,7.0,5.0,1.0,-1.0,1651070635351345.0
3.0,26.0,42.0,16.0,-21.0,-6.0,-3.0,8.0,1651070635374695.0
3.0,-43.0,-32.0,-1.0,24.0,10.0,3.0,10.0,1651070635374695.0
4.0,10.0,-5.0,-10.0,-2.0,-7.0,-1.0,3.0,1651070635375625.0
-16.0,-24.0,-33.0,-15.0,-2.0,0.0,-2.0,-13.0,1651070635375625.0
-23.0,-27.0,1.0,32.0,2.0,6.0,-1.0,-10.0,1651070635404355.0
4.0,27.0,-23.0,-50.0,-8.0,-2.0,-3.0,-10.0,1651070635404355.0
10.0,25.0,16.0,34.0,-2.0,-3.0,-6.0,-10.0,1651070635404545.0
25.0,4.0,-6.0,5.0,3.0,-2.0,4.0,26.0,1651070635404545.0
-8.0,-27.0,-19.0,-25.0,-6.0,-7.0,-3.0,3.0,1651070635410556.0
-2.0,-9.0,3.0,18.0,-6.0,-3.0,-2.0,6.0,1651070635410556.0
-15.0,-23.0,-10.0,-33.0,-5.0,1.0,-5.0,-38.0,1651070635411528.0
6.0,34.0,33.0,34.0,6.0,6.0,0.0,12.0,1651070635411528.0
17.0,37.0,14.0,15.0,12.0,-3.0,-4.0,12.0,1651070635434350.0
-10.0,-58.0,-26.0,-42.0,-18.0,-14.0,-7.0,-3.0,1651070635434350.0
9.0,26.0,-15.0,16.0,-6.0,-3.0,0.0,-2.0,1651070635434350.0
-34.0,-21.0,-6.0,-10.0,-8.0,-2.0,-9.0,-21.0,1651070635434350.0
8.0,-4.0,-5.0,-17.0,-18.0,-4.0,6.0,13.0,1651070635456677.0
-4.0,2.0,26.0,76.0,47.0,16.0,4.0,0.0,1651070635456677.0
22.0,9.0,32.0,-32.0,3.0,-1.0,6.0,14.0,1651070635457670.0
1.0,8.0,-35.0,-1.0,-2.0,-3.0,-1.0,-3.0,1651070635457670.0
-4.0,-21.0,-34.0,-25.0,-18.0,-8.0,-4.0,-2.0,1651070635470637.0
-26.0,7.0,40.0,5.0,-22.0,-11.0,-10.0,-19.0,1651070635470637.0
-6.0,-25.0,-42.0,-18.0,13.0,5.0,-3.0,-15.0,1651070635478681.0
4.0,18.0,33.0,26.0,10.0,3.0,2.0,6.0,1651070635478681.0
-2.0,-45.0,-49.0,-16.0,1.0,0.0,4.0,12.0,1651070635494350.0
18.0,42.0,48.0,-2.0,-4.0,2.0,5.0,4.0,1651070635494350.0
9.0,-13.0,-9.0,34.0,-8.0,-6.0,-5.0,3.0,1651070635494350.0
-52.0,-12.0,-14.0,-28.0,-5.0,-4.0,-3.0,-12.0,1651070635494350.0
-11.0,-5.0,7.0,15.0,8.0,0.0,-5.0,-24.0,1651070635516320.0
6.0,16.0,7.0,1.0,1.0,1.0,-1.0,11.0,1651070635516320.0
-2.0,-17.0,-4.0,-7.0,-19.0,-2.0,3.0,9.0,1651070635518129.0
21.0,6.0,34.0,14.0,28.0,14.0,14.0,12.0,1651070635518129.0
19.0,4.0,-18.0,30.0,26.0,10.0,4.0,14.0,1651070635530559.0
-18.0,-10.0,-36.0,-65.0,-13.0,-6.0,-1.0,3.0,1651070635530559.0
-11.0,-4.0,-39.0,-20.0,-24.0,-12.0,-8.0,-5.0,1651070635539541.0
-8.0,-27.0,23.0,10.0,-6.0,-5.0,-4.0,-11.0,1651070635539541.0
0.0,31.0,15.0,-33.0,-12.0,-6.0,-4.0,1.0,1651070635553500.0
19.0,-11.0,-3.0,39.0,10.0,5.0,4.0,-1.0,1651070635553500.0
-4.0,24.0,39.0,6.0,12.0,6.0,4.0,6.0,1651070635555495.0
5.0,-8.0,14.0,-10.0,-10.0,-5.0,-5.0,-8.0,1651070635555495.0
-5.0,-6.0,-63.0,2.0,-5.0,0.0,-1.0,-5.0,1651070635576917.0
1.0,9.0,7.0,7.0,1.0,0.0,-1.0,-16.0,1651070635576917.0
20.0,32.0,-3.0,-19.0,8.0,7.0,8.0,21.0,1651070635577945.0
-1.0,-17.0,13.0,37.0,-3.0,-6.0,-2.0,-6.0,1651070635577945.0
9.0,-10.0,3.0,-37.0,-5.0,-2.0,0.0,21.0,1651070635590031.0
1.0,6.0,-6.0,14.0,-8.0,-5.0,3.0,3.0,1651070635590031.0
-13.0,-19.0,6.0,8.0,8.0,3.0,-3.0,0.0,1651070635599010.0
12.0,14.0,-10.0,-5.0,-4.0,0.0,0.0,0.0,1651070635599010.0
-8.0,-12.0,6.0,3.0,-3.0,-1.0,-4.0,-19.0,1651070635614233.0
32.0,15.0,0.0,-16.0,-7.0,-2.0,-1.0,-2.0,1651070635614233.0
-19.0,-4.0,20.0,17.0,7.0,1.0,0.0,9.0,1651070635615198.0
-18.0,-15.0,-16.0,-3.0,0.0,-2.0,-2.0,-1.0,1651070635615198.0
-24.0,-9.0,22.0,1.0,-2.0,-1.0,0.0,-11.0,1651070635636614.0
6.0,-3.0,-6.0,44.0,6.0,0.0,-2.0,6.0,1651070635636614.0
16.0,21.0,3.0,-44.0,-3.0,1.0,0.0,0.0,1651070635637610.0
2.0,-17.0,-15.0,23.0,-4.0,0.0,0.0,-2.0,1651070635637610.0
-8.0,-16.0,-2.0,-21.0,-2.0,-1.0,0.0,1.0,1651070635650578.0
5.0,2.0,-5.0,-19.0,-6.0,-3.0,-4.0,-19.0,1651070635650578.0
10.0,8.0,-2.0,29.0,4.0,-1.0,-1.0,11.0,1651070635659577.0
0.0,9.0,-1.0,-9.0,4.0,3.0,3.0,2.0,1651070635659577.0
8.0,5.0,7.0,4.0,-1.0,-1.0,-2.0,-3.0,1651070635673340.0
-19.0,-10.0,3.0,11.0,-4.0,-4.0,0.0,2.0,1651070635673340.0
-16.0,-18.0,6.0,-5.0,-1.0,4.0,-1.0,-6.0,1651070635681333.0
13.0,3.0,-20.0,-36.0,-2.0,-1.0,1.0,4.0,1651070635681333.0
-2.0,7.0,10.0,30.0,0.0,-1.0,-2.0,-8.0,1651070635696402.0
-11.0,2.0,9.0,15.0,7.0,3.0,3.0,3.0,1651070635696402.0
0.0,-2.0,-2.0,-9.0,-4.0,-1.0,-1.0,-4.0,1651070635698353.0
-3.0,3.0,-17.0,-14.0,-6.0,-3.0,0.0,-2.0,1651070635698353.0
2.0,5.0,15.0,-2.0,-1.0,2.0,1.0,-3.0,1651070635710499.0
3.0,1.0,-4.0,8.0,-1.0,0.0,-1.0,2.0,1651070635710499.0
0.0,1.0,-1.0,2.0,0.0,-2.0,0.0,2.0,1651070635719414.0
7.0,-12.0,-11.0,-9.0,8.0,4.0,1.0,2.0,1651070635719414.0
-11.0,0.0,4.0,-7.0,-4.0,-5.0,0.0,-5.0,1651070635734491.0
9.0,2.0,-18.0,-18.0,-1.0,0.0,0.0,4.0,1651070635734491.0
-16.0,-5.0,24.0,14.0,-1.0,-3.0,-4.0,-7.0,1651070635735491.0
0.0,1.0,1.0,-4.0,-5.0,-2.0,-4.0,-2.0,1651070635735491.0
4.0,7.0,6.0,22.0,6.0,3.0,4.0,2.0,1651070635756396.0
-2.0,-5.0,2.0,-12.0,0.0,0.0,2.0,5.0,1651070635756396.0
-3.0,-5.0,-3.0,28.0,-1.0,-3.0,-2.0,-5.0,1651070635758339.0
3.0,3.0,-5.0,-44.0,-3.0,-2.0,-1.0,2.0,1651070635758339.0
-13.0,-17.0,-12.0,7.0,-7.0,-4.0,-2.0,-2.0,1651070635769929.0
32.0,27.0,-4.0,-26.0,-9.0,-2.0,-3.0,-1.0,1651070635769929.0
1.0,5.0,14.0,29.0,8.0,4.0,1.0,0.0,1651070635778853.0
1.0,-1.0,13.0,28.0,7.0,1.0,1.0,3.0,1651070635778853.0
-20.0,-4.0,-18.0,-14.0,-12.0,-7.0,-7.0,-14.0,1651070635793748.0
4.0,-3.0,-4.0,-15.0,0.0,2.0,0.0,11.0,1651070635793748.0
7.0,-5.0,0.0,19.0,-2.0,-2.0,1.0,2.0,1651070635795676.0
4.0,9.0,1.0,-36.0,5.0,8.0,6.0,4.0,1651070635795676.0
16.0,11.0,12.0,18.0,3.0,1.0,-1.0,-1.0,1651070635816680.0
-11.0,-5.0,-8.0,8.0,-2.0,-4.0,-3.0,-6.0,1651070635816680.0
-1.0,-5.0,2.0,-2.0,-3.0,-3.0,-2.0,-1.0,1651070635817671.0
-3.0,-10.0,-7.0,7.0,-2.0,0.0,-2.0,-1.0,1651070635817671.0
2.0,4.0,-7.0,-3.0,6.0,3.0,0.0,0.0,1651070635839402.0
-6.0,-7.0,3.0,8.0,6.0,8.0,3.0,2.0,1651070635839402.0
-11.0,-8.0,-21.0,-31.0,-12.0,-4.0,-1.0,-1.0,1651070635840352.0
9.0,12.0,12.0,21.0,1.0,-3.0,-4.0,-7.0,1651070635840352.0
2.0,-13.0,-6.0,-6.0,-1.0,-1.0,0.0,1.0,1651070635854328.0
-11.0,8.0,12.0,2.0,-3.0,0.0,-2.0,0.0,1651070635854328.0
11.0,7.0,-4.0,1.0,-2.0,-2.0,0.0,-2.0,1651070635855312.0
-1.0,3.0,4.0,33.0,-1.0,0.0,0.0,-1.0,1651070635855312.0
-10.0,2.0,6.0,-35.0,-4.0,1.0,2.0,-1.0,1651070635876406.0
-8.0,1.0,-1.0,3.0,-5.0,-4.0,-2.0,0.0,1651070635876406.0
-16.0,-6.0,-14.0,-10.0,1.0,0.0,0.0,-2.0,1651070635878384.0
9.0,2.0,-3.0,8.0,2.0,-3.0,-2.0,0.0,1651070635878384.0
-1.0,13.0,21.0,23.0,9.0,1.0,-2.0,6.0,1651070635899352.0
7.0,-9.0,-6.0,37.0,3.0,3.0,0.0,0.0,1651070635899352.0
-3.0,4.0,13.0,-28.0,0.0,4.0,1.0,2.0,1651070635900353.0
-11.0,-2.0,-5.0,-35.0,-12.0,-2.0,1.0,3.0,1651070635900353.0
5.0,3.0,-28.0,-7.0,-8.0,-3.0,-2.0,-8.0,1651070635914377.0
4.0,9.0,25.0,-14.0,0.0,0.0,0.0,-1.0,1651070635914377.0
3.0,-27.0,-46.0,5.0,9.0,4.0,2.0,0.0,1651070635915313.0
-3.0,-6.0,7.0,34.0,5.0,-1.0,0.0,-1.0,1651070635915313.0
5.0,11.0,-3.0,-36.0,-14.0,-7.0,0.0,1.0,1651070635936325.0
-11.0,-11.0,-16.0,-6.0,-3.0,-3.0,-2.0,-4.0,1651070635936325.0
1.0,21.0,36.0,38.0,12.0,3.0,1.0,-1.0,1651070635938251.0
0.0,-22.0,-19.0,-5.0,5.0,3.0,1.0,0.0,1651070635938251.0
2.0,0.0,16.0,59.0,2.0,0.0,1.0,1.0,1651070635959404.0
-5.0,-14.0,-6.0,-59.0,-13.0,-5.0,0.0,-1.0,1651070635959404.0
8.0,10.0,-7.0,-5.0,-14.0,-4.0,-2.0,0.0,1651070635960308.0
1.0,8.0,22.0,-24.0,-6.0,-1.0,-2.0,-2.0,1651070635960308.0
5.0,1.0,-12.0,8.0,10.0,5.0,4.0,3.0,1651070635973340.0
-2.0,-6.0,22.0,33.0,14.0,0.0,-1.0,-3.0,1651070635973340.0
2.0,6.0,7.0,5.0,0.0,2.0,1.0,1.0,1651070635980321.0
-2.0,-7.0,-18.0,-12.0,3.0,4.0,1.0,1.0,1651070635980321.0
-10.0,-7.0,0.0,-5.0,-5.0,-2.0,-3.0,-1.0,1651070635996162.0
2.0,22.0,32.0,-12.0,-5.0,-1.0,1.0,-1.0,1651070635996162.0
2.0,-8.0,-28.0,-19.0,-6.0,-5.0,-2.0,-3.0,1651070635998118.0
1.0,10.0,13.0,28.0,-5.0,-6.0,-2.0,-1.0,1651070635998118.0
-1.0,-6.0,-20.0,-18.0,-1.0,3.0,0.0,0.0,1651070636018756.0
0.0,9.0,4.0,22.0,3.0,2.0,2.0,1.0,1651070636018756.0
0.0,-5.0,12.0,-11.0,1.0,1.0,-3.0,1.0,1651070636020700.0
-3.0,-6.0,-12.0,-9.0,-5.0,-3.0,-1.0,-2.0,1651070636020700.0
-1.0,-3.0,10.0,8.0,0.0,1.0,-2.0,-5.0,1651070636033710.0
3.0,3.0,1.0,-2.0,-8.0,-2.0,1.0,-2.0,1651070636033710.0
1.0,-3.0,16.0,1.0,14.0,2.0,1.0,7.0,1651070636039745.0
-3.0,-4.0,-16.0,0.0,-5.0,-3.0,-1.0,-3.0,1651070636039745.0
2.0,1.0,2.0,-4.0,14.0,5.0,0.0,0.0,1651070636056699.0
-4.0,-7.0,-11.0,8.0,-8.0,0.0,-1.0,-2.0,1651070636056699.0
-1.0,-6.0,-7.0,1.0,2.0,-3.0,-1.0,-3.0,1651070636057692.0
1.0,4.0,5.0,-14.0,1.0,-3.0,1.0,3.0,1651070636057692.0
2.0,0.0,18.0,34.0,7.0,6.0,0.0,0.0,1651070636079460.0
-13.0,-6.0,-23.0,-12.0,-3.0,-3.0,-4.0,-2.0,1651070636079460.0
0.0,2.0,-3.0,-33.0,-10.0,-1.0,-3.0,-3.0,1651070636080461.0
0.0,-4.0,20.0,38.0,-4.0,-5.0,-3.0,-1.0,1651070636080461.0
-3.0,-10.0,-12.0,-27.0,-13.0,-5.0,1.0,-2.0,1651070636093063.0
1.0,-2.0,-20.0,-5.0,5.0,1.0,-2.0,-1.0,1651070636093063.0
-1.0,-6.0,4.0,11.0,-1.0,-1.0,-3.0,-1.0,1651070636102046.0
-4.0,6.0,-8.0,-10.0,0.0,2.0,0.0,-2.0,1651070636102046.0
2.0,-3.0,10.0,16.0,3.0,0.0,-2.0,-1.0,1651070636124186.0
-1.0,-6.0,-30.0,-23.0,-1.0,-2.0,-1.0,1.0,1651070636124186.0
0.0,4.0,14.0,0.0,-2.0,-3.0,1.0,-1.0,1651070636125143.0
3.0,4.0,17.0,7.0,0.0,0.0,-1.0,-1.0,1651070636125143.0
-2.0,-8.0,-18.0,-11.0,-5.0,-2.0,-1.0,2.0,1651070636139198.0
1.0,-3.0,1.0,24.0,5.0,-2.0,0.0,1.0,1651070636139198.0
-1.0,3.0,0.0,0.0,-1.0,2.0,0.0,-1.0,1651070636140214.0
-1.0,-7.0,-38.0,-19.0,-1.0,0.0,-2.0,-2.0,1651070636140214.0
2.0,10.0,8.0,2.0,0.0,-1.0,0.0,1.0,1651070636153057.0
-1.0,-8.0,2.0,-1.0,2.0,-3.0,0.0,0.0,1651070636153057.0
0.0,5.0,9.0,3.0,-10.0,-3.0,-3.0,-1.0,1651070636162039.0
0.0,2.0,14.0,7.0,14.0,4.0,1.0,3.0,1651070636162039.0
-1.0,3.0,-15.0,-41.0,-11.0,-2.0,-1.0,-4.0,1651070636176227.0
0.0,-2.0,0.0,39.0,0.0,-4.0,-2.0,-1.0,1651070636176227.0
0.0,-1.0,-16.0,-15.0,-11.0,1.0,0.0,-2.0,1651070636178155.0
-1.0,0.0,-1.0,-25.0,0.0,-1.0,-2.0,0.0,1651070636178155.0
-3.0,1.0,16.0,25.0,22.0,3.0,-1.0,-1.0,1651070636198765.0
5.0,11.0,5.0,-3.0,4.0,7.0,3.0,-1.0,1651070636198765.0
-3.0,-4.0,-3.0,-5.0,-3.0,-4.0,1.0,-2.0,1651070636204819.0
1.0,5.0,9.0,25.0,-12.0,-4.0,-1.0,0.0,1651070636204819.0
2.0,-1.0,-9.0,-32.0,-6.0,-1.0,2.0,1.0,1651070636213045.0
2.0,-4.0,-1.0,-7.0,-1.0,-2.0,-5.0,0.0,1651070636213045.0
-1.0,-4.0,1.0,11.0,5.0,1.0,0.0,2.0,1651070636221753.0
0.0,-1.0,-8.0,-3.0,-2.0,-1.0,-2.0,-3.0,1651070636221753.0
-4.0,-5.0,-14.0,-12.0,-9.0,-8.0,-3.0,-7.0,1651070636244172.0
5.0,5.0,8.0,-3.0,0.0,2.0,3.0,4.0,1651070636244172.0
-1.0,-5.0,-5.0,-3.0,1.0,1.0,-2.0,0.0,1651070636245173.0
-2.0,1.0,13.0,2.0,-1.0,0.0,-2.0,-2.0,1651070636245173.0
-1.0,-4.0,-22.0,4.0,1.0,1.0,-2.0,-7.0,1651070636259351.0
0.0,-3.0,1.0,0.0,-4.0,-2.0,-2.0,1.0,1651070636259351.0
2.0,-2.0,-2.0,-8.0,1.0,-3.0,-1.0,4.0,1651070636260335.0
-1.0,-5.0,-8.0,-2.0,-5.0,-2.0,0.0,-1.0,1651070636260335.0
1.0,-3.0,27.0,25.0,1.0,-1.0,-2.0,5.0,1651070636273789.0
-1.0,6.0,-11.0,9.0,3.0,0.0,3.0,-3.0,1651070636273789.0
-1.0,3.0,16.0,7.0,17.0,11.0,3.0,1.0,1651070636279845.0
-2.0,-8.0,-10.0,-17.0,-10.0,-4.0,-2.0,-2.0,1651070636279845.0
-1.0,2.0,0.0,-7.0,0.0,-3.0,-2.0,-2.0,1651070636296918.0
-1.0,5.0,1.0,5.0,-5.0,-1.0,0.0,0.0,1651070636296918.0
1.0,2.0,4.0,-29.0,-6.0,-1.0,-1.0,0.0,1651070636297883.0
-1.0,-1.0,-10.0,17.0,1.0,0.0,0.0,-2.0,1651070636297883.0
1.0,0.0,8.0,6.0,-5.0,0.0,-2.0,3.0,1651070636318625.0
-3.0,-2.0,6.0,-12.0,1.0,-1.0,-2.0,-1.0,1651070636318625.0
-3.0,-5.0,-3.0,19.0,-3.0,0.0,0.0,-4.0,1651070636320553.0
0.0,-2.0,2.0,-1.0,1.0,2.0,0.0,0.0,1651070636320553.0
2.0,2.0,-11.0,-11.0,-8.0,-4.0,-2.0,2.0,1651070636332667.0
0.0,2.0,11.0,-1.0,6.0,1.0,0.0,-1.0,1651070636332667.0
-2.0,-4.0,-2.0,8.0,-2.0,-2.0,0.0,-1.0,1651070636341608.0
1.0,1.0,0.0,-2.0,2.0,0.0,0.0,1.0,1651070636341608.0
1.0,1.0,1.0,-2.0,-1.0,-2.0,-1.0,-1.0,1651070636356567.0
3.0,6.0,-22.0,-24.0,-28.0,-9.0,-2.0,-3.0,1651070636356567.0
-1.0,1.0,10.0,15.0,46.0,15.0,2.0,-5.0,1651070636357592.0
-2.0,-1.0,7.0,20.0,3.0,0.0,-1.0,1.0,1651070636357592.0
-1.0,-5.0,11.0,5.0,-2.0,0.0,0.0,3.0,1651070636378536.0
-2.0,-5.0,-8.0,-12.0,0.0,4.0,-1.0,-2.0,1651070636378536.0
-1.0,1.0,-11.0,-6.0,-18.0,-11.0,-5.0,-2.0,1651070636380504.0
0.0,0.0,-9.0,-18.0,-5.0,0.0,0.0,-2.0,1651070636380504.0
1.0,5.0,14.0,18.0,6.0,0.0,-1.0,4.0,1651070636392539.0
-1.0,-8.0,-11.0,5.0,5.0,3.0,1.0,1.0,1651070636392539.0
0.0,-3.0,0.0,-1.0,-10.0,-5.0,-2.0,-2.0,1651070636401565.0
-3.0,-6.0,-4.0,-10.0,6.0,4.0,0.0,-1.0,1651070636401565.0
1.0,0.0,-6.0,-8.0,-12.0,-3.0,1.0,0.0,1651070636416950.0
-3.0,-3.0,10.0,9.0,3.0,-1.0,1.0,2.0,1651070636416950.0
0.0,4.0,6.0,2.0,1.0,0.0,-1.0,-1.0,1651070636417954.0
2.0,3.0,-4.0,-12.0,-4.0,-2.0,-2.0,-1.0,1651070636417954.0
-2.0,-2.0,-3.0,8.0,-14.0,-2.0,0.0,-1.0,1651070636438612.0
-2.0,-5.0,-14.0,-9.0,18.0,3.0,-1.0,-1.0,1651070636438612.0
-1.0,-4.0,8.0,14.0,-7.0,-3.0,1.0,-1.0,1651070636440580.0
0.0,-5.0,1.0,-7.0,-3.0,-3.0,2.0,1.0,1651070636440580.0
1.0,2.0,8.0,-9.0,3.0,3.0,1.0,0.0,1651070636453048.0
-2.0,5.0,11.0,3.0,-6.0,-4.0,0.0,-2.0,1651070636453048.0
0.0,-3.0,-13.0,2.0,-5.0,-2.0,0.0,0.0,1651070636461611.0
-1.0,1.0,-4.0,-6.0,3.0,1.0,-1.0,0.0,1651070636461611.0
0.0,2.0,7.0,13.0,-17.0,-3.0,-1.0,-1.0,1651070636476572.0
-2.0,-5.0,-8.0,-11.0,5.0,-2.0,-1.0,0.0,1651070636476572.0
-1.0,0.0,-6.0,-10.0,7.0,4.0,1.0,1.0,1651070636477569.0
0.0,4.0,3.0,2.0,-5.0,-3.0,-1.0,-2.0,1651070636477569.0
-1.0,-4.0,-1.0,-5.0,10.0,2.0,0.0,-2.0,1651070636499275.0
-1.0,2.0,13.0,11.0,-12.0,-2.0,-1.0,-4.0,1651070636499275.0
-1.0,4.0,-9.0,-4.0,-10.0,-6.0,-2.0,2.0,1651070636500288.0
-4.0,-15.0,2.0,3.0,5.0,1.0,-1.0,-2.0,1651070636500288.0
1.0,1.0,2.0,-2.0,-1.0,1.0,0.0,3.0,1651070636512719.0
1.0,0.0,4.0,-5.0,4.0,0.0,0.0,-1.0,1651070636512719.0
-1.0,1.0,-4.0,4.0,2.0,0.0,-1.0,-3.0,1651070636521627.0
1.0,2.0,3.0,8.0,-5.0,-2.0,1.0,-3.0,1651070636521627.0
-2.0,-2.0,-3.0,-6.0,4.0,0.0,0.0,-1.0,1651070636536357.0
1.0,-4.0,-6.0,3.0,-7.0,-3.0,0.0,1.0,1651070636536357.0
3.0,18.0,21.0,-7.0,4.0,2.0,-1.0,2.0,1651070636538312.0
-1.0,-10.0,-27.0,-2.0,-4.0,-5.0,-3.0,1.0,1651070636538312.0
1.0,-4.0,-2.0,3.0,16.0,9.0,1.0,-4.0,1651070636559228.0
0.0,-5.0,0.0,4.0,8.0,4.0,2.0,2.0,1651070636559228.0
0.0,-5.0,-7.0,-2.0,-10.0,-5.0,-1.0,0.0,1651070636560225.0
2.0,4.0,2.0,1.0,-4.0,-1.0,0.0,-1.0,1651070636560225.0
-2.0,1.0,-5.0,-11.0,2.0,-1.0,-1.0,-1.0,1651070636572261.0
1.0,3.0,1.0,4.0,-4.0,0.0,-3.0,0.0,1651070636572261.0
-1.0,2.0,17.0,-4.0,-18.0,-3.0,-2.0,-1.0,1651070636581237.0
-3.0,-8.0,-4.0,2.0,30.0,6.0,2.0,0.0,1651070636581237.0
1.0,-5.0,-1.0,8.0,12.0,7.0,3.0,1.0,1651070636596418.0
0.0,2.0,9.0,4.0,-1.0,-1.0,2.0,0.0,1651070636596418.0
0.0,-4.0,-3.0,0.0,-5.0,-3.0,-1.0,-3.0,1651070636598381.0
1.0,11.0,17.0,-2.0,-17.0,-5.0,-2.0,-1.0,1651070636598381.0
-3.0,-7.0,-29.0,-15.0,-7.0,-4.0,-5.0,-4.0,1651070636619461.0
1.0,-3.0,5.0,6.0,10.0,4.0,0.0,0.0,1651070636619461.0
-1.0,-8.0,-9.0,5.0,1.0,0.0,0.0,0.0,1651070636620467.0
0.0,4.0,3.0,2.0,-3.0,1.0,0.0,1.0,1651070636620467.0
0.0,1.0,4.0,-2.0,-4.0,-2.0,-1.0,-1.0,1651070636632493.0
-1.0,-1.0,-1.0,-6.0,-4.0,-2.0,-4.0,-1.0,1651070636632493.0
-2.0,-9.0,-5.0,2.0,4.0,0.0,1.0,0.0,1651070636647453.0
0.0,-1.0,-4.0,-10.0,-2.0,1.0,0.0,-1.0,1651070636647453.0
-2.0,2.0,-3.0,21.0,0.0,-2.0,0.0,0.0,1651070636656404.0
0.0,-3.0,1.0,-6.0,-1.0,-1.0,1.0,1.0,1651070636656404.0
1.0,0.0,0.0,-3.0,1.0,0.0,0.0,-1.0,1651070636658356.0
-1.0,2.0,8.0,12.0,-5.0,0.0,0.0,-1.0,1651070636658356.0
0.0,5.0,-15.0,-29.0,-11.0,-6.0,-4.0,-1.0,1651070636679899.0
-2.0,-1.0,-1.0,4.0,8.0,2.0,0.0,-1.0,1651070636679899.0
-2.0,0.0,3.0,21.0,2.0,-1.0,0.0,-1.0,1651070636680898.0
0.0,0.0,-4.0,-22.0,-3.0,0.0,1.0,0.0,1651070636680898.0
0.0,4.0,10.0,13.0,-2.0,-4.0,0.0,-1.0,1651070636692984.0
-2.0,0.0,-4.0,-7.0,-12.0,-6.0,-1.0,-3.0,1651070636692984.0
0.0,-2.0,0.0,-10.0,12.0,5.0,0.0,0.0,1651070636701902.0
0.0,2.0,-2.0,7.0,-2.0,3.0,-2.0,0.0,1651070636701902.0
-2.0,-2.0,7.0,-3.0,2.0,0.0,0.0,1.0,1651070636716604.0
0.0,0.0,-1.0,1.0,1.0,2.0,-1.0,1.0,1651070636716604.0
0.0,-1.0,-4.0,-3.0,-14.0,-5.0,0.0,-1.0,1651070636717605.0
-2.0,-8.0,-12.0,1.0,10.0,2.0,0.0,0.0,1651070636717605.0
0.0,7.0,13.0,2.0,-1.0,2.0,1.0,1.0,1651070636738761.0
-3.0,-13.0,-3.0,-7.0,-3.0,-2.0,0.0,0.0,1651070636738761.0
3.0,1.0,-11.0,10.0,7.0,2.0,0.0,-2.0,1651070636740697.0
-2.0,3.0,11.0,-4.0,-11.0,-6.0,-2.0,-2.0,1651070636740697.0
-1.0,-3.0,-4.0,1.0,1.0,-2.0,-4.0,-2.0,1651070636761973.0
4.0,6.0,8.0,7.0,3.0,0.0,0.0,0.0,1651070636761973.0
-2.0,-3.0,-11.0,-18.0,0.0,0.0,-1.0,0.0,1651070636762910.0
-2.0,-2.0,-2.0,1.0,5.0,2.0,0.0,0.0,1651070636762910.0
0.0,-2.0,-4.0,-1.0,-9.0,-2.0,1.0,0.0,1651070636776421.0
0.0,8.0,13.0,6.0,1.0,0.0,-1.0,-3.0,1651070636776421.0
-2.0,-8.0,-7.0,-4.0,4.0,0.0,-1.0,0.0,1651070636778413.0
2.0,2.0,0.0,1.0,6.0,2.0,2.0,0.0,1651070636778413.0
0.0,3.0,11.0,2.0,-7.0,-5.0,-1.0,-1.0,1651070636799405.0
0.0,-2.0,-10.0,-9.0,1.0,-1.0,1.0,0.0,1651070636799405.0
-1.0,-1.0,2.0,3.0,-5.0,2.0,1.0,-1.0,1651070636800369.0
1.0,3.0,-1.0,-2.0,2.0,3.0,-1.0,0.0,1651070636800369.0
-3.0,-10.0,-4.0,-4.0,6.0,0.0,-1.0,1.0,1651070636821681.0
-2.0,1.0,-3.0,2.0,-2.0,3.0,0.0,2.0,1651070636821681.0
1.0,-1.0,-7.0,-6.0,5.0,-3.0,0.0,-1.0,1651070636822687.0
-2.0,-4.0,-6.0,-6.0,-9.0,-5.0,-3.0,-1.0,1651070636822687.0
0.0,1.0,-5.0,-1.0,0.0,0.0,-2.0,-2.0,1651070636836709.0
-2.0,-1.0,1.0,-2.0,-4.0,-2.0,-2.0,-1.0,1651070636836709.0
0.0,0.0,0.0,2.0,-8.0,-4.0,-3.0,0.0,1651070636837707.0
0.0,3.0,6.0,2.0,4.0,1.0,-1.0,-1.0,1651070636837707.0
1.0,1.0,0.0,-1.0,6.0,5.0,3.0,-1.0,1651070636859432.0
0.0,-1.0,-5.0,0.0,-2.0,-1.0,0.0,-1.0,1651070636859432.0
1.0,5.0,4.0,-3.0,-3.0,-2.0,0.0,-1.0,1651070636860433.0
1.0,-1.0,-5.0,2.0,-1.0,-2.0,0.0,-2.0,1651070636860433.0
-1.0,4.0,8.0,3.0,-10.0,-6.0,-3.0,-2.0,1651070636881500.0
-1.0,-5.0,1.0,-1.0,8.0,0.0,0.0,0.0,1651070636881500.0
0.0,0.0,4.0,2.0,-3.0,-1.0,0.0,0.0,1651070636882527.0
0.0,1.0,-1.0,4.0,7.0,2.0,-1.0,1.0,1651070636882527.0
0.0,-4.0,-6.0,-12.0,-9.0,-4.0,2.0,-1.0,1651070636896603.0
0.0,4.0,-2.0,4.0,-1.0,-2.0,-1.0,-2.0,1651070636896603.0
-1.0,-3.0,2.0,-3.0,1.0,-1.0,-1.0,0.0,1651070636897630.0
-2.0,-1.0,-2.0,-3.0,5.0,3.0,-2.0,-1.0,1651070636897630.0
-1.0,3.0,7.0,14.0,8.0,8.0,2.0,1.0,1651070636918882.0
-3.0,-5.0,-6.0,-14.0,-6.0,-3.0,-1.0,-1.0,1651070636918882.0
-1.0,3.0,10.0,14.0,-2.0,0.0,0.0,1.0,1651070636920838.0
-3.0,-4.0,-10.0,-12.0,-15.0,-8.0,-5.0,-6.0,1651070636920838.0
0.0,0.0,-4.0,-4.0,5.0,-1.0,-2.0,-1.0,1651070636941909.0
-1.0,-4.0,1.0,1.0,-4.0,1.0,0.0,-2.0,1651070636941909.0
1.0,2.0,-3.0,1.0,4.0,-1.0,2.0,0.0,1651070636942906.0
0.0,3.0,5.0,-1.0,-6.0,0.0,-2.0,0.0,1651070636942906.0
-2.0,-10.0,1.0,12.0,12.0,1.0,0.0,1.0,1651070636956247.0
0.0,-2.0,1.0,1.0,-3.0,1.0,1.0,1.0,1651070636956247.0
-1.0,-2.0,-4.0,-8.0,-4.0,-2.0,-2.0,0.0,1651070636962655.0
1.0,1.0,1.0,2.0,-1.0,-2.0,0.0,2.0,1651070636962655.0
-1.0,2.0,1.0,-2.0,-2.0,3.0,-1.0,-1.0,1651070636978863.0
-1.0,4.0,-3.0,4.0,2.0,-1.0,1.0,1.0,1651070636978863.0
0.0,1.0,-2.0,-5.0,11.0,1.0,-1.0,-2.0,1651070636980853.0
1.0,-4.0,3.0,3.0,-10.0,0.0,1.0,1.0,1651070636980853.0
-1.0,-3.0,1.0,-3.0,-6.0,-4.0,-3.0,0.0,1651070637001203.0
1.0,0.0,0.0,-10.0,-8.0,-2.0,1.0,1.0,1651070637001203.0
0.0,-5.0,-12.0,-11.0,1.0,-1.0,-1.0,-1.0,1651070637003217.0
0.0,3.0,5.0,7.0,5.0,0.0,-1.0,-1.0,1651070637003217.0
1.0,3.0,3.0,-1.0,2.0,1.0,-1.0,-2.0,1651070637016305.0
2.0,1.0,2.0,5.0,-2.0,-2.0,-2.0,-1.0,1651070637016305.0
-1.0,1.0,-4.0,-6.0,-5.0,-1.0,0.0,1.0,1651070637022270.0
-2.0,-11.0,10.0,7.0,4.0,0.0,-1.0,-1.0,1651070637022270.0
-2.0,3.0,2.0,-3.0,-4.0,1.0,3.0,-1.0,1651070637039400.0
-1.0,-3.0,-21.0,-7.0,-4.0,-6.0,-3.0,-1.0,1651070637039400.0
-1.0,2.0,12.0,12.0,18.0,9.0,0.0,-1.0,1651070637040347.0
1.0,3.0,-1.0,1.0,-4.0,-3.0,-1.0,0.0,1651070637040347.0
-1.0,-2.0,1.0,4.0,14.0,-1.0,-2.0,1.0,1651070637062382.0
1.0,4.0,-1.0,-5.0,-5.0,-4.0,-1.0,-1.0,1651070637062382.0
-1.0,-5.0,-1.0,12.0,-8.0,1.0,1.0,-1.0,1651070637067384.0
0.0,-1.0,-4.0,-2.0,0.0,0.0,-1.0,-1.0,1651070637067384.0
2.0,4.0,9.0,-3.0,-13.0,-3.0,-2.0,0.0,1651070637075500.0
-1.0,1.0,-1.0,-2.0,6.0,1.0,1.0,-1.0,1651070637075500.0
-2.0,-6.0,-9.0,-16.0,-8.0,-3.0,0.0,-3.0,1651070637082532.0
-3.0,-8.0,-6.0,5.0,7.0,5.0,1.0,-1.0,1651070637082532.0
2.0,10.0,19.0,-7.0,-9.0,-3.0,0.0,0.0,1651070637099404.0
-5.0,-6.0,-28.0,2.0,0.0,-2.0,-3.0,-3.0,1651070637099404.0
0.0,-2.0,0.0,-2.0,0.0,0.0,-1.0,5.0,1651070637100366.0
-1.0,4.0,6.0,0.0,-1.0,-5.0,-1.0,-10.0,1651070637100366.0
-3.0,-12.0,-12.0,-1.0,4.0,2.0,0.0,4.0,1651070637121412.0
0.0,13.0,13.0,9.0,-13.0,-3.0,-3.0,1.0,1651070637121412.0
-3.0,-5.0,10.0,8.0,21.0,2.0,0.0,-1.0,1651070637123367.0
11.0,7.0,-10.0,-10.0,-5.0,2.0,2.0,6.0,1651070637123367.0
5.0,2.0,-8.0,-6.0,8.0,-1.0,1.0,-2.0,1651070637135871.0
-1.0,2.0,0.0,-3.0,-8.0,-1.0,-2.0,-5.0,1651070637135871.0
-4.0,-7.0,-19.0,7.0,-19.0,-13.0,-3.0,1.0,1651070637143022.0
-10.0,-7.0,28.0,16.0,12.0,10.0,4.0,-1.0,1651070637143022.0
-4.0,4.0,-15.0,-8.0,-1.0,-2.0,-4.0,-2.0,1651070637158561.0
7.0,-10.0,5.0,-8.0,7.0,5.0,1.0,8.0,1651070637158561.0
-1.0,-9.0,6.0,3.0,-3.0,1.0,-4.0,-9.0,1651070637160489.0
5.0,7.0,-16.0,-8.0,-9.0,-6.0,0.0,3.0,1651070637160489.0
-5.0,3.0,3.0,5.0,0.0,4.0,0.0,0.0,1651070637181679.0
-7.0,-8.0,8.0,7.0,5.0,0.0,-1.0,-5.0,1651070637181679.0
6.0,23.0,-6.0,-24.0,-6.0,0.0,1.0,1.0,1651070637182688.0
5.0,-1.0,-5.0,7.0,-3.0,-2.0,1.0,2.0,1651070637182688.0
-3.0,16.0,21.0,12.0,9.0,1.0,-1.0,-4.0,1651070637195714.0
-1.0,-20.0,-33.0,-15.0,4.0,1.0,-3.0,-1.0,1651070637195714.0
-5.0,17.0,30.0,14.0,-9.0,1.0,3.0,2.0,1651070637202692.0
0.0,-1.0,37.0,-8.0,13.0,11.0,2.0,5.0,1651070637202692.0
7.0,-36.0,-72.0,-17.0,-11.0,-6.0,0.0,1.0,1651070637219426.0
12.0,22.0,29.0,8.0,-1.0,0.0,4.0,3.0,1651070637219426.0
4.0,0.0,-30.0,10.0,7.0,-1.0,-2.0,0.0,1651070637220355.0
-13.0,27.0,-28.0,-11.0,5.0,-3.0,-6.0,-11.0,1651070637220355.0
-13.0,-35.0,77.0,23.0,-8.0,-5.0,1.0,-11.0,1651070637241399.0
10.0,3.0,-24.0,-14.0,-7.0,2.0,4.0,16.0,1651070637241399.0
3.0,36.0,-14.0,2.0,2.0,-2.0,-4.0,1.0,1651070637243327.0
-30.0,-6.0,51.0,5.0,-3.0,-5.0,-4.0,-4.0,1651070637243327.0
-18.0,-48.0,-3.0,-7.0,-1.0,5.0,-5.0,-15.0,1651070637255362.0
56.0,-48.0,-49.0,2.0,0.0,11.0,16.0,18.0,1651070637255362.0
-4.0,-7.0,-38.0,-38.0,-16.0,-18.0,-6.0,1.0,1651070637264271.0
1.0,-39.0,-4.0,14.0,11.0,1.0,-1.0,2.0,1651070637264271.0
-36.0,12.0,10.0,2.0,3.0,-1.0,-5.0,-21.0,1651070637279447.0
18.0,60.0,15.0,10.0,9.0,4.0,0.0,4.0,1651070637279447.0
21.0,-27.0,-16.0,-26.0,-30.0,-11.0,3.0,11.0,1651070637280403.0
40.0,-31.0,72.0,14.0,16.0,1.0,-2.0,-1.0,1651070637280403.0
-61.0,73.0,7.0,9.0,0.0,-2.0,-3.0,-3.0,1651070637301689.0
-7.0,-21.0,48.0,9.0,7.0,7.0,5.0,0.0,1651070637301689.0
-30.0,-116.0,-37.0,-1.0,4.0,5.0,-6.0,-14.0,1651070637302689.0
26.0,81.0,-27.0,3.0,-14.0,-8.0,2.0,7.0,1651070637302689.0
16.0,28.0,-24.0,-9.0,7.0,2.0,1.0,6.0,1651070637315372.0
-9.0,-10.0,31.0,12.0,3.0,3.0,-1.0,-3.0,1651070637315372.0
12.0,60.0,2.0,-7.0,-4.0,1.0,3.0,4.0,1651070637324395.0
-10.0,-23.0,18.0,10.0,6.0,5.0,5.0,0.0,1651070637324395.0
25.0,-24.0,-43.0,-11.0,-7.0,-3.0,-4.0,-4.0,1651070637346189.0
-95.0,-18.0,61.0,3.0,-16.0,-17.0,-19.0,-25.0,1651070637346189.0
-9.0,-15.0,12.0,11.0,24.0,13.0,7.0,-2.0,1651070637348118.0
69.0,81.0,-7.0,-6.0,14.0,13.0,11.0,26.0,1651070637348118.0
16.0,39.0,-2.0,1.0,4.0,0.0,-3.0,-8.0,1651070637361149.0
-30.0,-34.0,-21.0,-10.0,-13.0,-14.0,-12.0,-12.0,1651070637361149.0
52.0,33.0,34.0,27.0,-3.0,8.0,10.0,20.0,1651070637363077.0
-31.0,-21.0,-65.0,-22.0,-5.0,-7.0,-4.0,-4.0,1651070637363077.0
7.0,-13.0,-16.0,-33.0,-17.0,-7.0,2.0,14.0,1651070637375223.0
2.0,5.0,9.0,6.0,6.0,-1.0,-7.0,-20.0,1651070637375223.0
-26.0,35.0,67.0,29.0,10.0,1.0,-9.0,-26.0,1651070637384146.0
-10.0,-30.0,-50.0,-17.0,-8.0,-2.0,3.0,13.0,1651070637384146.0
47.0,24.0,48.0,7.0,2.0,5.0,7.0,21.0,1651070637399254.0
9.0,-20.0,-10.0,-19.0,-16.0,-8.0,-4.0,-5.0,1651070637399254.0
-55.0,21.0,6.0,-6.0,-4.0,-1.0,2.0,8.0,1651070637400232.0
12.0,-60.0,-31.0,-11.0,-8.0,-3.0,2.0,-1.0,1651070637400232.0
5.0,35.0,19.0,8.0,0.0,-3.0,-6.0,-12.0,1651070637421386.0
2.0,-5.0,0.0,23.0,21.0,2.0,3.0,9.0,1651070637421386.0
7.0,32.0,-4.0,-9.0,2.0,0.0,-1.0,-13.0,1651070637423383.0
-49.0,68.0,2.0,0.0,-30.0,-8.0,-6.0,-10.0,1651070637423383.0
83.0,-49.0,-17.0,0.0,38.0,25.0,23.0,41.0,1651070637435295.0
13.0,60.0,1.0,0.0,-13.0,-5.0,1.0,3.0,1651070637435295.0
-2.0,-84.0,38.0,12.0,13.0,4.0,0.0,0.0,1651070637443814.0
-31.0,9.0,-15.0,-37.0,-20.0,-8.0,-11.0,-23.0,1651070637443814.0
7.0,0.0,-36.0,5.0,-18.0,-10.0,-3.0,-10.0,1651070637458837.0
-2.0,4.0,15.0,27.0,-5.0,-1.0,-1.0,11.0,1651070637458837.0
7.0,-17.0,-11.0,-31.0,5.0,-3.0,-2.0,-1.0,1651070637460772.0
-25.0,-4.0,19.0,-6.0,-11.0,-7.0,-5.0,-4.0,1651070637460772.0
-17.0,54.0,-6.0,19.0,-1.0,1.0,-1.0,-11.0,1651070637481678.0
-50.0,-50.0,24.0,0.0,26.0,8.0,-7.0,-20.0,1651070637481678.0
36.0,33.0,-26.0,-8.0,-19.0,-8.0,1.0,14.0,1651070637482690.0
31.0,-34.0,-16.0,-5.0,-12.0,-3.0,1.0,-5.0,1651070637482690.0
-26.0,24.0,-3.0,-9.0,-7.0,-6.0,-7.0,-8.0,1651070637495348.0
29.0,82.0,-25.0,3.0,27.0,9.0,15.0,34.0,1651070637495348.0
1.0,-18.0,2.0,4.0,2.0,2.0,-8.0,-6.0,1651070637504452.0
-26.0,29.0,-7.0,-14.0,-7.0,-9.0,-11.0,-15.0,1651070637504452.0
-3.0,7.0,4.0,10.0,-3.0,-1.0,1.0,7.0,1651070637519457.0
-3.0,-68.0,6.0,-12.0,-14.0,-1.0,-2.0,-9.0,1651070637519457.0
-1.0,-13.0,2.0,8.0,4.0,1.0,2.0,-12.0,1651070637520465.0
2.0,-7.0,-10.0,25.0,7.0,4.0,6.0,9.0,1651070637520465.0
13.0,2.0,33.0,-4.0,1.0,1.0,3.0,14.0,1651070637541309.0
-11.0,-28.0,-40.0,-24.0,-15.0,-2.0,0.0,-9.0,1651070637541309.0
10.0,24.0,-7.0,-3.0,12.0,4.0,2.0,2.0,1651070637543338.0
-7.0,-17.0,31.0,20.0,2.0,-4.0,-8.0,-11.0,1651070637543338.0
-32.0,17.0,30.0,9.0,-1.0,-5.0,-6.0,-8.0,1651070637555272.0
36.0,0.0,-27.0,-22.0,-7.0,2.0,6.0,12.0,1651070637555272.0
23.0,25.0,48.0,53.0,32.0,10.0,3.0,3.0,1651070637564248.0
-72.0,-75.0,-24.0,-30.0,1.0,1.0,-4.0,-14.0,1651070637564248.0
75.0,21.0,-18.0,-17.0,8.0,5.0,11.0,31.0,1651070637579274.0
11.0,39.0,17.0,3.0,-11.0,-4.0,-1.0,-3.0,1651070637579274.0
-34.0,-30.0,-22.0,-16.0,-21.0,-9.0,-6.0,-17.0,1651070637580205.0
30.0,-14.0,71.0,28.0,5.0,6.0,7.0,15.0,1651070637580205.0
-10.0,43.0,-41.0,-3.0,3.0,0.0,-3.0,2.0,1651070637601474.0
-4.0,19.0,-20.0,15.0,2.0,-6.0,-7.0,-21.0,1651070637601474.0
-17.0,1.0,11.0,-4.0,-2.0,-2.0,-6.0,-1.0,1651070637603489.0
21.0,-4.0,17.0,15.0,15.0,7.0,7.0,20.0,1651070637603489.0
-29.0,-53.0,-9.0,-17.0,-13.0,-1.0,-5.0,-29.0,1651070637615361.0
11.0,4.0,-9.0,-2.0,7.0,1.0,0.0,19.0,1651070637615361.0
3.0,-12.0,3.0,-12.0,-7.0,0.0,6.0,12.0,1651070637624339.0
12.0,38.0,-33.0,-6.0,-4.0,-4.0,-2.0,1.0,1651070637624339.0
-33.0,-43.0,7.0,-4.0,1.0,-3.0,-5.0,-6.0,1651070637638487.0
1.0,3.0,-35.0,4.0,-3.0,-4.0,-6.0,-17.0,1651070637638487.0
-5.0,2.0,18.0,-3.0,2.0,3.0,0.0,1.0,1651070637645364.0
21.0,-9.0,13.0,-14.0,-22.0,-6.0,-4.0,1.0,1651070637645364.0
-12.0,-13.0,-85.0,-7.0,-6.0,-11.0,-5.0,-3.0,1651070637661467.0
-5.0,20.0,13.0,21.0,50.0,20.0,4.0,3.0,1651070637661467.0
-14.0,15.0,-53.0,-21.0,-24.0,-5.0,6.0,5.0,1651070637663465.0
7.0,-1.0,11.0,19.0,-1.0,-6.0,-5.0,-10.0,1651070637663465.0
-19.0,-11.0,41.0,-8.0,6.0,5.0,-1.0,1.0,1651070637675395.0
15.0,-50.0,-23.0,-10.0,-17.0,-4.0,6.0,14.0,1651070637675395.0
14.0,-28.0,-3.0,9.0,7.0,3.0,0.0,5.0,1651070637684429.0
1.0,56.0,1.0,4.0,-11.0,-9.0,-10.0,-27.0,1651070637684429.0
60.0,-29.0,23.0,-10.0,-4.0,6.0,9.0,37.0,1651070637698849.0
-29.0,12.0,0.0,2.0,-1.0,-4.0,-2.0,-2.0,1651070637698849.0
7.0,-3.0,-7.0,-12.0,0.0,-1.0,-4.0,-2.0,1651070637700777.0
-16.0,-18.0,-2.0,8.0,3.0,1.0,-2.0,-12.0,1651070637700777.0
49.0,-37.0,22.0,7.0,4.0,1.0,0.0,3.0,1651070637721998.0
-16.0,28.0,-2.0,-11.0,-8.0,-5.0,-5.0,-7.0,1651070637721998.0
5.0,6.0,-10.0,-2.0,-7.0,-5.0,-4.0,-11.0,1651070637722958.0
-15.0,-4.0,9.0,-3.0,9.0,2.0,-2.0,-13.0,1651070637722958.0
-24.0,-76.0,-44.0,1.0,2.0,3.0,0.0,3.0,1651070637744340.0
31.0,46.0,-1.0,-9.0,-36.0,-11.0,4.0,3.0,1651070637744340.0
-23.0,-31.0,16.0,8.0,28.0,4.0,-2.0,-8.0,1651070637745295.0
21.0,45.0,-5.0,-8.0,6.0,3.0,0.0,15.0,1651070637745295.0
-11.0,1.0,23.0,23.0,1.0,-6.0,-7.0,-30.0,1651070637758359.0
-31.0,13.0,40.0,-2.0,-8.0,1.0,-4.0,-1.0,1651070637758359.0
10.0,-23.0,-27.0,-24.0,-9.0,-4.0,2.0,4.0,1651070637765340.0
9.0,6.0,23.0,18.0,14.0,7.0,6.0,9.0,1651070637765340.0
-28.0,-1.0,-20.0,-19.0,-16.0,-4.0,-2.0,-7.0,1651070637781569.0
12.0,-29.0,-13.0,-3.0,-10.0,-6.0,-4.0,-7.0,1651070637781569.0
1.0,31.0,34.0,8.0,-1.0,-4.0,-5.0,-1.0,1651070637782525.0
-3.0,-45.0,-26.0,4.0,6.0,6.0,4.0,11.0,1651070637782525.0
-9.0,74.0,42.0,2.0,-5.0,-3.0,-6.0,-24.0,1651070637804371.0
38.0,-18.0,16.0,5.0,13.0,6.0,14.0,32.0,1651070637804371.0
-15.0,3.0,12.0,-4.0,-7.0,-2.0,0.0,4.0,1651070637805334.0
-10.0,9.0,-33.0,-23.0,-7.0,-5.0,-6.0,-13.0,1651070637805334.0
-21.0,-30.0,57.0,25.0,0.0,2.0,5.0,9.0,1651070637819301.0
32.0,18.0,-79.0,-22.0,11.0,3.0,-1.0,-8.0,1651070637819301.0
-19.0,11.0,-1.0,6.0,-2.0,-4.0,-2.0,-1.0,1651070637820301.0
-2.0,-26.0,26.0,13.0,6.0,3.0,6.0,8.0,1651070637820301.0
11.0,10.0,-15.0,4.0,1.0,-1.0,1.0,9.0,1651070637841241.0
-22.0,-38.0,35.0,3.0,0.0,-1.0,-11.0,-32.0,1651070637841241.0
3.0,12.0,-15.0,1.0,-15.0,1.0,9.0,24.0,1651070637843236.0
6.0,17.0,-8.0,-7.0,9.0,3.0,1.0,-5.0,1651070637843236.0
-1.0,15.0,-13.0,-10.0,5.0,-1.0,-2.0,16.0,1651070637864371.0
-14.0,8.0,19.0,19.0,0.0,-2.0,-4.0,-19.0,1651070637864371.0
-20.0,-37.0,-19.0,22.0,-8.0,-3.0,-7.0,-10.0,1651070637865319.0
19.0,24.0,-4.0,-33.0,-9.0,1.0,0.0,1.0,1651070637865319.0
-10.0,18.0,11.0,-2.0,-4.0,-4.0,-2.0,-3.0,1651070637878355.0
3.0,-12.0,3.0,-17.0,-4.0,-1.0,1.0,4.0,1651070637878355.0
8.0,30.0,21.0,13.0,7.0,-1.0,-1.0,-7.0,1651070637885296.0
-1.0,-13.0,-29.0,5.0,-6.0,-5.0,-2.0,-7.0,1651070637885296.0
-26.0,-21.0,1.0,7.0,8.0,3.0,-3.0,12.0,1651070637901444.0
6.0,-26.0,4.0,0.0,-2.0,3.0,3.0,-6.0,1651070637901444.0
13.0,54.0,24.0,-5.0,1.0,-1.0,-2.0,-3.0,1651070637903399.0
13.0,14.0,12.0,11.0,-7.0,1.0,7.0,10.0,1651070637903399.0
-9.0,-26.0,-10.0,14.0,15.0,1.0,-3.0,-20.0,1651070637923516.0
-31.0,-12.0,-1.0,-5.0,11.0,-1.0,-5.0,-2.0,1651070637923516.0
20.0,19.0,-22.0,-25.0,-12.0,-2.0,0.0,2.0,1651070637925480.0
20.0,-50.0,-13.0,-2.0,-1.0,-2.0,0.0,11.0,1651070637925480.0
-23.0,0.0,22.0,7.0,-16.0,-8.0,2.0,16.0,1651070637938513.0
-1.0,50.0,-11.0,-4.0,-4.0,2.0,3.0,2.0,1651070637938513.0
-9.0,-57.0,17.0,27.0,9.0,5.0,-4.0,-16.0,1651070637945506.0
36.0,53.0,11.0,-14.0,5.0,-3.0,0.0,13.0,1651070637945506.0
-34.0,-13.0,-64.0,-1.0,-1.0,-1.0,-5.0,-24.0,1651070637961903.0
-14.0,-19.0,13.0,0.0,-2.0,-1.0,-1.0,3.0,1651070637961903.0
16.0,46.0,71.0,1.0,6.0,6.0,4.0,17.0,1651070637962903.0
-13.0,-32.0,-31.0,3.0,-2.0,1.0,3.0,2.0,1651070637962903.0
16.0,-12.0,16.0,11.0,3.0,-1.0,1.0,1.0,1651070637984395.0
1.0,41.0,0.0,-23.0,-4.0,0.0,-6.0,-12.0,1651070637984395.0
-9.0,-46.0,-15.0,-22.0,-6.0,-3.0,1.0,5.0,1651070637985058.0
-8.0,19.0,8.0,8.0,7.0,1.0,-1.0,-4.0,1651070637985058.0
29.0,10.0,26.0,4.0,-1.0,0.0,0.0,-5.0,1651070637998426.0
-5.0,13.0,-27.0,9.0,-7.0,-4.0,0.0,16.0,1651070637998426.0
-5.0,-39.0,-11.0,9.0,10.0,2.0,3.0,-2.0,1651070638005360.0
-35.0,-28.0,7.0,17.0,9.0,-1.0,-2.0,16.0,1651070638005360.0
10.0,-26.0,-66.0,-42.0,-31.0,-5.0,-2.0,-17.0,1651070638021577.0
18.0,13.0,26.0,3.0,9.0,-6.0,-7.0,-7.0,1651070638021577.0
-21.0,-8.0,-20.0,13.0,16.0,8.0,-1.0,-7.0,1651070638022576.0
16.0,25.0,11.0,-19.0,-5.0,3.0,-1.0,6.0,1651070638022576.0
8.0,-11.0,26.0,1.0,-1.0,2.0,5.0,10.0,1651070638044345.0
-9.0,1.0,2.0,-3.0,-8.0,-2.0,2.0,-1.0,1651070638044345.0
34.0,29.0,-29.0,-33.0,-26.0,-9.0,-3.0,-12.0,1651070638045497.0
-36.0,-29.0,14.0,19.0,15.0,-4.0,-10.0,-15.0,1651070638045497.0
19.0,47.0,14.0,1.0,23.0,14.0,7.0,11.0,1651070638058453.0
3.0,-17.0,-36.0,-12.0,-4.0,2.0,-2.0,-2.0,1651070638058453.0
-21.0,2.0,5.0,19.0,3.0,-1.0,-3.0,-11.0,1651070638066426.0
3.0,-3.0,-29.0,-9.0,-12.0,-5.0,-4.0,1.0,1651070638066426.0
1.0,22.0,12.0,-2.0,-16.0,-6.0,-4.0,-11.0,1651070638081683.0
28.0,6.0,8.0,2.0,-1.0,-1.0,1.0,17.0,1651070638081683.0
-17.0,-17.0,-20.0,-4.0,31.0,12.0,-2.0,-15.0,1651070638082714.0
7.0,26.0,5.0,16.0,-3.0,5.0,6.0,-1.0,1651070638082714.0
-32.0,0.0,-6.0,-30.0,-12.0,-8.0,-2.0,14.0,1651070638104345.0
-9.0,-9.0,15.0,14.0,11.0,4.0,-3.0,-3.0,1651070638104345.0
13.0,-25.0,12.0,21.0,-7.0,-7.0,1.0,-8.0,1651070638105308.0
-44.0,17.0,-5.0,-3.0,2.0,0.0,2.0,1.0,1651070638105308.0
12.0,1.0,-7.0,17.0,5.0,-3.0,-5.0,-8.0,1651070638118663.0
-27.0,-40.0,37.0,-9.0,-10.0,-2.0,1.0,-12.0,1651070638118663.0
6.0,34.0,-31.0,-15.0,-7.0,-1.0,-5.0,5.0,1651070638125596.0
16.0,-31.0,11.0,-9.0,1.0,-2.0,0.0,5.0,1651070638125596.0
14.0,16.0,0.0,4.0,1.0,1.0,2.0,5.0,1651070638149400.0
-12.0,-21.0,-14.0,0.0,-6.0,-3.0,0.0,5.0,1651070638149400.0
-4.0,4.0,7.0,12.0,0.0,-5.0,-3.0,-2.0,1651070638150340.0
7.0,-23.0,-4.0,-4.0,-5.0,4.0,5.0,8.0,1651070638150340.0
6.0,30.0,-11.0,-3.0,1.0,-3.0,-1.0,1.0,1651070638164414.0
7.0,3.0,24.0,9.0,8.0,3.0,2.0,-10.0,1651070638164414.0
-7.0,25.0,40.0,-4.0,-28.0,-5.0,-4.0,6.0,1651070638165390.0
1.0,-26.0,-69.0,-8.0,10.0,-4.0,-2.0,-7.0,1651070638165390.0
9.0,-36.0,-9.0,45.0,18.0,7.0,5.0,3.0,1651070638178416.0
5.0,36.0,-22.0,-32.0,-1.0,-1.0,1.0,13.0,1651070638178416.0
-6.0,1.0,-5.0,-11.0,-13.0,-8.0,-2.0,3.0,1651070638185397.0
24.0,13.0,23.0,-14.0,-7.0,4.0,4.0,-2.0,1651070638185397.0
-10.0,6.0,23.0,5.0,7.0,2.0,1.0,3.0,1651070638201354.0
-11.0,-1.0,-3.0,26.0,1.0,-2.0,-7.0,-23.0,1651070638201354.0
11.0,-22.0,-31.0,-1.0,-3.0,1.0,4.0,15.0,1651070638203283.0
-1.0,-20.0,25.0,-2.0,1.0,0.0,0.0,1.0,1651070638203283.0
0.0,1.0,-26.0,-21.0,5.0,2.0,2.0,-2.0,1651070638224120.0
3.0,44.0,27.0,-18.0,-12.0,-3.0,4.0,6.0,1651070638224120.0
5.0,-15.0,-2.0,24.0,9.0,1.0,-3.0,-23.0,1651070638230324.0
-4.0,-2.0,19.0,6.0,5.0,-3.0,-3.0,7.0,1651070638230324.0
-13.0,-24.0,-8.0,-23.0,-11.0,-3.0,1.0,-12.0,1651070638237671.0
7.0,-17.0,-23.0,2.0,-1.0,-2.0,-5.0,-1.0,1651070638237671.0
-12.0,2.0,1.0,-3.0,4.0,3.0,7.0,13.0,1651070638246580.0
-2.0,15.0,-25.0,-5.0,-3.0,-1.0,1.0,5.0,1651070638246580.0
2.0,41.0,11.0,3.0,-9.0,-7.0,-4.0,-3.0,1651070638261608.0
-7.0,-50.0,-4.0,-4.0,-7.0,-2.0,-1.0,2.0,1651070638261608.0
0.0,16.0,17.0,8.0,17.0,5.0,0.0,-5.0,1651070638262630.0
-12.0,-4.0,-22.0,-24.0,-2.0,-5.0,-6.0,-12.0,1651070638262630.0
2.0,-30.0,43.0,15.0,8.0,3.0,-2.0,2.0,1651070638284349.0
-11.0,-26.0,-35.0,24.0,-4.0,-6.0,1.0,-1.0,1651070638284349.0
3.0,-14.0,-13.0,-22.0,-10.0,-1.0,3.0,6.0,1651070638285376.0
11.0,21.0,2.0,-7.0,-13.0,-7.0,-3.0,-7.0,1651070638285376.0
-56.0,-25.0,-1.0,-12.0,-10.0,-1.0,-4.0,-8.0,1651070638297332.0
22.0,37.0,34.0,19.0,18.0,7.0,5.0,19.0,1651070638297332.0
-11.0,-18.0,-12.0,-11.0,-7.0,-1.0,-4.0,-4.0,1651070638306612.0
11.0,15.0,-1.0,9.0,-4.0,0.0,2.0,0.0,1651070638306612.0
-7.0,-18.0,-9.0,-4.0,2.0,1.0,-2.0,-5.0,1651070638321642.0
-8.0,-4.0,21.0,10.0,2.0,1.0,0.0,-2.0,1651070638321642.0
7.0,20.0,1.0,6.0,5.0,-3.0,-1.0,-2.0,1651070638322598.0
-7.0,4.0,22.0,6.0,2.0,5.0,3.0,6.0,1651070638322598.0
6.0,25.0,-6.0,-16.0,-10.0,-5.0,-3.0,-6.0,1651070638343583.0
-8.0,-51.0,-10.0,-6.0,0.0,2.0,-2.0,-8.0,1651070638343583.0
33.0,74.0,-3.0,-23.0,1.0,-3.0,1.0,10.0,1651070638345610.0
-6.0,-27.0,0.0,27.0,0.0,1.0,-3.0,-6.0,1651070638345610.0
35.0,20.0,-2.0,-23.0,2.0,2.0,10.0,32.0,1651070638357480.0
-13.0,-11.0,-3.0,10.0,-3.0,-4.0,-2.0,-5.0,1651070638357480.0
5.0,-1.0,-9.0,19.0,-1.0,-1.0,-2.0,2.0,1651070638366453.0
-35.0,-34.0,-6.0,-33.0,-6.0,-5.0,-7.0,-32.0,1651070638366453.0
6.0,12.0,-24.0,-4.0,-9.0,-2.0,-5.0,3.0,1651070638381589.0
15.0,15.0,2.0,-14.0,-4.0,2.0,3.0,11.0,1651070638381589.0
-8.0,-14.0,23.0,31.0,17.0,1.0,-1.0,-2.0,1651070638383515.0
-5.0,16.0,18.0,12.0,2.0,-2.0,0.0,-4.0,1651070638383515.0
0.0,-26.0,-11.0,5.0,-4.0,-3.0,-7.0,-13.0,1651070638403473.0
4.0,0.0,3.0,12.0,-1.0,0.0,3.0,4.0,1651070638403473.0
-1.0,12.0,2.0,-39.0,-9.0,-1.0,4.0,2.0,1651070638405561.0
4.0,-5.0,5.0,7.0,-7.0,-1.0,-3.0,1.0,1651070638405561.0
5.0,11.0,15.0,21.0,14.0,0.0,0.0,-2.0,1651070638417426.0
-11.0,-1.0,-6.0,3.0,2.0,0.0,-3.0,-5.0,1651070638417426.0
4.0,-24.0,-30.0,-18.0,-3.0,-3.0,0.0,2.0,1651070638426400.0
-2.0,5.0,-1.0,6.0,3.0,1.0,0.0,0.0,1651070638426400.0
0.0,2.0,10.0,-1.0,-4.0,-1.0,1.0,-3.0,1651070638441689.0
6.0,13.0,-4.0,-7.0,-2.0,-1.0,-5.0,-2.0,1651070638441689.0
-17.0,-9.0,-9.0,9.0,3.0,2.0,0.0,-3.0,1651070638442707.0
20.0,26.0,21.0,-5.0,-2.0,2.0,4.0,9.0,1651070638442707.0
10.0,-10.0,-1.0,5.0,-3.0,-1.0,1.0,-1.0,1651070638463629.0
3.0,13.0,22.0,-14.0,6.0,0.0,4.0,3.0,1651070638463629.0
0.0,-18.0,-28.0,-5.0,-2.0,2.0,-1.0,-2.0,1651070638465639.0
-9.0,-5.0,7.0,20.0,3.0,0.0,-5.0,-14.0,1651070638465639.0
-8.0,-17.0,-27.0,-20.0,1.0,4.0,2.0,11.0,1651070638477652.0
8.0,13.0,-2.0,-7.0,-2.0,1.0,3.0,5.0,1651070638477652.0
5.0,10.0,29.0,11.0,-1.0,-1.0,-1.0,0.0,1651070638486568.0
-32.0,-21.0,-4.0,5.0,1.0,0.0,-2.0,-2.0,1651070638486568.0
-10.0,-6.0,-7.0,-16.0,-1.0,-2.0,-4.0,-10.0,1651070638501711.0
0.0,-9.0,-10.0,-14.0,-10.0,-2.0,-1.0,1.0,1651070638501711.0
-4.0,-4.0,-2.0,2.0,5.0,2.0,0.0,-1.0,1651070638502674.0
11.0,5.0,-5.0,3.0,2.0,0.0,0.0,4.0,1651070638502674.0
2.0,-2.0,16.0,17.0,5.0,-2.0,1.0,-4.0,1651070638523846.0
-5.0,-2.0,-11.0,-8.0,2.0,-2.0,-4.0,-2.0,1651070638523846.0
13.0,13.0,-1.0,4.0,-10.0,-4.0,-1.0,0.0,1651070638525843.0
6.0,13.0,10.0,-10.0,5.0,3.0,2.0,3.0,1651070638525843.0
-7.0,-15.0,-19.0,-4.0,1.0,-1.0,-1.0,-1.0,1651070638537813.0
1.0,5.0,3.0,13.0,1.0,-3.0,-3.0,-5.0,1651070638537813.0
-9.0,-18.0,1.0,0.0,-6.0,-6.0,-4.0,-7.0,1651070638546602.0
4.0,3.0,-5.0,4.0,-2.0,-2.0,-3.0,3.0,1651070638546602.0
4.0,4.0,2.0,-10.0,-1.0,1.0,4.0,2.0,1651070638561623.0
8.0,4.0,1.0,-1.0,5.0,4.0,4.0,2.0,1651070638561623.0
-3.0,-7.0,-2.0,-7.0,1.0,1.0,1.0,2.0,1651070638562562.0
27.0,9.0,0.0,25.0,-2.0,-3.0,0.0,-1.0,1651070638562562.0
-27.0,0.0,-13.0,-30.0,-1.0,0.0,-2.0,-6.0,1651070638584503.0
-37.0,-7.0,-2.0,10.0,-5.0,-1.0,-3.0,-4.0,1651070638584503.0
14.0,8.0,17.0,12.0,0.0,1.0,-2.0,1.0,1651070638585500.0
-23.0,-10.0,-9.0,-18.0,4.0,0.0,2.0,0.0,1651070638585500.0
17.0,-2.0,5.0,15.0,-5.0,-1.0,-3.0,-3.0,1651070638597528.0
10.0,5.0,-3.0,-3.0,-2.0,-1.0,-1.0,0.0,1651070638597528.0
-10.0,-3.0,-1.0,-11.0,2.0,2.0,2.0,0.0,1651070638606448.0
2.0,6.0,3.0,2.0,-1.0,0.0,0.0,0.0,1651070638606448.0
1.0,10.0,4.0,1.0,-5.0,-2.0,-1.0,-4.0,1651070638621412.0
2.0,5.0,-3.0,-13.0,-6.0,0.0,2.0,1.0,1651070638621412.0
1.0,-9.0,7.0,21.0,0.0,-2.0,-3.0,-3.0,1651070638627387.0
1.0,-2.0,-15.0,-2.0,2.0,0.0,-1.0,-2.0,1651070638627387.0
1.0,4.0,23.0,15.0,9.0,2.0,0.0,4.0,1651070638644430.0
10.0,-7.0,-6.0,-1.0,-3.0,-4.0,-3.0,-4.0,1651070638644430.0
-3.0,-6.0,-13.0,-11.0,-7.0,-4.0,-3.0,-1.0,1651070638645353.0
4.0,3.0,-9.0,-13.0,-5.0,-1.0,1.0,2.0,1651070638645353.0
-4.0,-6.0,-4.0,-29.0,-1.0,-1.0,-1.0,0.0,1651070638666324.0
-1.0,7.0,5.0,54.0,13.0,5.0,1.0,-1.0,1651070638666324.0
-5.0,-3.0,14.0,-2.0,12.0,4.0,1.0,0.0,1651070638668319.0
-10.0,1.0,0.0,15.0,-12.0,-5.0,-1.0,-2.0,1651070638668319.0
17.0,-3.0,-5.0,0.0,5.0,4.0,2.0,1.0,1651070638681288.0
5.0,-3.0,-3.0,-13.0,-3.0,0.0,-2.0,1.0,1651070638681288.0
-5.0,3.0,5.0,5.0,-5.0,-4.0,-3.0,-3.0,1651070638687240.0
0.0,2.0,-7.0,10.0,6.0,1.0,2.0,2.0,1651070638687240.0
0.0,2.0,10.0,-11.0,8.0,2.0,1.0,2.0,1651070638704286.0
7.0,-12.0,-26.0,-26.0,-16.0,-7.0,-4.0,-3.0,1651070638704286.0
-18.0,4.0,2.0,17.0,-7.0,1.0,-1.0,2.0,1651070638705285.0
0.0,-18.0,13.0,0.0,-9.0,-7.0,-2.0,-2.0,1651070638705285.0
0.0,0.0,-7.0,11.0,3.0,0.0,0.0,-3.0,1651070638726257.0
5.0,4.0,5.0,-10.0,13.0,3.0,2.0,2.0,1651070638726257.0
6.0,11.0,12.0,-3.0,7.0,5.0,-1.0,-1.0,1651070638728225.0
6.0,-1.0,15.0,42.0,8.0,0.0,-2.0,2.0,1651070638728225.0
-5.0,0.0,-23.0,-28.0,-23.0,-10.0,-4.0,-2.0,1651070638741243.0
-4.0,-3.0,12.0,-17.0,3.0,2.0,1.0,2.0,1651070638741243.0
3.0,-2.0,-31.0,-13.0,1.0,4.0,3.0,2.0,1651070638747663.0
-1.0,15.0,-1.0,34.0,11.0,2.0,1.0,-1.0,1651070638747663.0
-5.0,3.0,37.0,19.0,5.0,-1.0,0.0,-2.0,1651070638763730.0
1.0,2.0,-8.0,-54.0,-25.0,-7.0,1.0,2.0,1651070638763730.0
1.0,-10.0,19.0,17.0,4.0,-1.0,0.0,0.0,1651070638765666.0
4.0,5.0,-36.0,-29.0,7.0,2.0,0.0,0.0,1651070638765666.0
-4.0,0.0,-9.0,26.0,-7.0,-8.0,-5.0,-4.0,1651070638786614.0
2.0,13.0,28.0,17.0,7.0,1.0,-2.0,0.0,1651070638786614.0
0.0,-1.0,-5.0,-29.0,-6.0,-4.0,-2.0,-4.0,1651070638787615.0
-1.0,4.0,16.0,-6.0,-3.0,0.0,-1.0,0.0,1651070638787615.0
1.0,-6.0,-1.0,11.0,-1.0,0.0,1.0,-1.0,1651070638801244.0
-1.0,3.0,4.0,-4.0,-5.0,-4.0,-1.0,-1.0,1651070638801244.0
-1.0,-11.0,-33.0,-7.0,-7.0,-3.0,-1.0,-2.0,1651070638807680.0
2.0,0.0,-5.0,-18.0,6.0,4.0,1.0,2.0,1651070638807680.0
-1.0,-1.0,-3.0,16.0,5.0,0.0,-3.0,-3.0,1651070638824371.0
-1.0,10.0,14.0,32.0,13.0,6.0,1.0,-2.0,1651070638824371.0
-1.0,-8.0,-2.0,-10.0,-17.0,-8.0,-1.0,-2.0,1651070638825309.0
0.0,-14.0,-33.0,-42.0,-10.0,0.0,2.0,0.0,1651070638825309.0
-1.0,-11.0,0.0,10.0,3.0,1.0,2.0,2.0,1651070638846313.0
-1.0,11.0,9.0,12.0,19.0,5.0,0.0,-1.0,1651070638846313.0
-3.0,-27.0,-9.0,1.0,-4.0,-5.0,-2.0,-5.0,1651070638848275.0
-1.0,-2.0,5.0,-15.0,-3.0,1.0,-1.0,-1.0,1651070638848275.0
0.0,2.0,5.0,10.0,-10.0,-3.0,-3.0,-1.0,1651070638861303.0
0.0,-7.0,-5.0,4.0,8.0,5.0,2.0,1.0,1651070638861303.0
-1.0,-7.0,-8.0,-18.0,-3.0,3.0,2.0,0.0,1651070638867356.0
-1.0,-3.0,-17.0,-3.0,-4.0,-3.0,-2.0,0.0,1651070638867356.0
0.0,-1.0,19.0,4.0,1.0,1.0,-1.0,1.0,1651070638885018.0
-4.0,-7.0,-9.0,5.0,-8.0,-6.0,-2.0,-2.0,1651070638885018.0
0.0,12.0,2.0,-14.0,3.0,-2.0,-1.0,2.0,1651070638886293.0
-1.0,1.0,26.0,18.0,0.0,-4.0,-3.0,-1.0,1651070638886293.0
11.0,7.0,-31.0,-21.0,-2.0,1.0,-1.0,-1.0,1651070638906585.0
-10.0,-12.0,-9.0,4.0,-8.0,-2.0,-1.0,0.0,1651070638906585.0
2.0,14.0,14.0,7.0,13.0,4.0,0.0,0.0,1651070638907570.0
-4.0,-8.0,15.0,6.0,-4.0,-5.0,-3.0,-2.0,1651070638907570.0
-1.0,-12.0,-27.0,-14.0,-2.0,-1.0,-2.0,0.0,1651070638920569.0
2.0,7.0,-13.0,-11.0,-5.0,-1.0,1.0,2.0,1651070638920569.0
-1.0,-5.0,12.0,7.0,-5.0,-4.0,-1.0,0.0,1651070638927546.0
-1.0,1.0,-11.0,-4.0,5.0,3.0,0.0,0.0,1651070638927546.0
-3.0,-7.0,17.0,23.0,-1.0,1.0,0.0,-1.0,1651070638943796.0
1.0,-12.0,10.0,-12.0,28.0,11.0,2.0,0.0,1651070638943796.0
-6.0,6.0,-14.0,20.0,-11.0,-5.0,-5.0,-4.0,1651070638945888.0
3.0,12.0,32.0,-5.0,2.0,-3.0,0.0,-1.0,1651070638945888.0
-5.0,-4.0,-26.0,-8.0,-6.0,-2.0,1.0,1.0,1651070638966907.0
1.0,6.0,-4.0,9.0,-8.0,-7.0,-3.0,0.0,1651070638966907.0
2.0,3.0,6.0,-6.0,3.0,0.0,0.0,-1.0,1651070638967867.0
-1.0,0.0,-3.0,-11.0,-5.0,-1.0,-1.0,-2.0,1651070638967867.0
-2.0,2.0,11.0,10.0,5.0,0.0,-1.0,-2.0,1651070638980980.0
-1.0,-4.0,-9.0,6.0,0.0,-4.0,0.0,-2.0,1651070638980980.0
1.0,7.0,12.0,3.0,3.0,0.0,1.0,-1.0,1651070638987964.0
-1.0,-3.0,-11.0,-2.0,-4.0,0.0,0.0,-1.0,1651070638987964.0
-2.0,2.0,4.0,-21.0,-3.0,0.0,1.0,0.0,1651070639005069.0
3.0,1.0,-15.0,5.0,-8.0,-5.0,-2.0,-2.0,1651070639005069.0
-1.0,-8.0,10.0,-21.0,-3.0,-2.0,-2.0,-1.0,1651070639006158.0
-2.0,1.0,-9.0,2.0,-3.0,0.0,-1.0,0.0,1651070639006158.0
-1.0,-2.0,-1.0,16.0,6.0,0.0,-1.0,-1.0,1651070639026203.0
-1.0,-2.0,7.0,2.0,-3.0,-1.0,-1.0,0.0,1651070639026203.0
1.0,4.0,-5.0,-5.0,0.0,-2.0,0.0,0.0,1651070639028003.0
2.0,11.0,30.0,0.0,-14.0,-3.0,3.0,2.0,1651070639028003.0
-1.0,-10.0,-33.0,-31.0,17.0,7.0,1.0,-2.0,1651070639040536.0
-5.0,-9.0,3.0,34.0,-7.0,-3.0,-3.0,-5.0,1651070639040536.0
1.0,7.0,0.0,3.0,9.0,5.0,2.0,0.0,1651070639049533.0
2.0,0.0,7.0,-6.0,-1.0,-3.0,-1.0,0.0,1651070639049533.0
-1.0,-4.0,11.0,0.0,-8.0,-1.0,2.0,1.0,1651070639063542.0
-2.0,0.0,-8.0,-19.0,-11.0,-2.0,0.0,0.0,1651070639063542.0
0.0,1.0,0.0,12.0,0.0,-3.0,0.0,1.0,1651070639065615.0
-2.0,-5.0,-8.0,5.0,-8.0,-5.0,-2.0,-2.0,1651070639065615.0
0.0,7.0,12.0,-21.0,4.0,1.0,-2.0,-3.0,1651070639086684.0
-1.0,-9.0,-13.0,4.0,0.0,-2.0,-4.0,1.0,1651070639086684.0
-1.0,2.0,10.0,3.0,-4.0,-1.0,-1.0,4.0,1651070639087674.0
-2.0,-5.0,-12.0,-2.0,2.0,-2.0,-1.0,-2.0,1651070639087674.0
-1.0,4.0,4.0,6.0,-3.0,-2.0,0.0,0.0,1651070639100700.0
0.0,4.0,6.0,-7.0,-1.0,1.0,0.0,-1.0,1651070639100700.0
2.0,5.0,-12.0,-4.0,-4.0,-3.0,0.0,-2.0,1651070639107681.0
-1.0,-11.0,7.0,0.0,-1.0,1.0,0.0,0.0,1651070639107681.0
2.0,6.0,-6.0,0.0,1.0,-1.0,0.0,1.0,1651070639123737.0
-1.0,-12.0,8.0,19.0,26.0,11.0,4.0,0.0,1651070639123737.0
0.0,4.0,26.0,24.0,4.0,1.0,2.0,0.0,1651070639125780.0
-2.0,1.0,-23.0,-4.0,3.0,1.0,-2.0,-3.0,1651070639125780.0
-2.0,4.0,8.0,-12.0,-10.0,-6.0,-2.0,-2.0,1651070639146672.0
-1.0,5.0,-5.0,-8.0,-9.0,-3.0,-1.0,-1.0,1651070639146672.0
-1.0,0.0,-11.0,-5.0,4.0,1.0,1.0,0.0,1651070639147689.0
-1.0,-1.0,12.0,6.0,2.0,1.0,1.0,-3.0,1651070639147689.0
0.0,-2.0,3.0,14.0,-1.0,-2.0,-2.0,0.0,1651070639160633.0
1.0,3.0,-6.0,-12.0,-4.0,-1.0,0.0,-1.0,1651070639160633.0
-2.0,-5.0,-2.0,-2.0,0.0,0.0,0.0,-2.0,1651070639168679.0
-1.0,-2.0,-4.0,-3.0,1.0,0.0,0.0,1.0,1651070639168679.0
-1.0,-2.0,-3.0,4.0,1.0,1.0,-2.0,-1.0,1651070639183640.0
1.0,2.0,0.0,-16.0,-7.0,-2.0,-1.0,-1.0,1651070639183640.0
3.0,-3.0,-9.0,-7.0,-3.0,0.0,0.0,0.0,1651070639185634.0
-1.0,4.0,12.0,24.0,11.0,0.0,-1.0,-1.0,1651070639185634.0
-2.0,3.0,2.0,-6.0,-19.0,-2.0,-1.0,-2.0,1651070639205612.0
-2.0,-10.0,-15.0,-4.0,6.0,-2.0,-1.0,0.0,1651070639205612.0
-2.0,-6.0,-5.0,-10.0,4.0,6.0,2.0,0.0,1651070639214613.0
3.0,2.0,-11.0,-17.0,2.0,-2.0,0.0,2.0,1651070639214613.0
1.0,5.0,12.0,22.0,8.0,2.0,-1.0,2.0,1651070639220590.0
1.0,7.0,2.0,-8.0,-16.0,-8.0,-2.0,-1.0,1651070639220590.0
-1.0,-1.0,-9.0,-6.0,-6.0,-5.0,-2.0,-1.0,1651070639229543.0
-1.0,0.0,-8.0,-10.0,0.0,3.0,-1.0,-1.0,1651070639229543.0
1.0,-2.0,11.0,18.0,-3.0,-6.0,0.0,0.0,1651070639244347.0
0.0,8.0,4.0,3.0,8.0,4.0,1.0,-1.0,1651070639244347.0
-2.0,-11.0,-19.0,-1.0,0.0,-2.0,-1.0,-2.0,1651070639245595.0
0.0,2.0,7.0,6.0,4.0,3.0,-2.0,-1.0,1651070639245595.0
-2.0,-5.0,-14.0,-18.0,-8.0,-2.0,-2.0,-1.0,1651070639266402.0
0.0,6.0,7.0,-5.0,-4.0,-2.0,0.0,-1.0,1651070639266402.0
-1.0,-5.0,8.0,14.0,3.0,-1.0,-3.0,0.0,1651070639268353.0
-1.0,0.0,-9.0,-20.0,-17.0,-4.0,-1.0,0.0,1651070639268353.0
3.0,3.0,-5.0,12.0,20.0,4.0,3.0,0.0,1651070639280388.0
0.0,-4.0,7.0,5.0,0.0,1.0,1.0,0.0,1651070639280388.0
0.0,4.0,-4.0,-10.0,-6.0,-2.0,0.0,5.0,1651070639289296.0
-1.0,-2.0,7.0,11.0,-4.0,-1.0,0.0,-2.0,1651070639289296.0
-2.0,-3.0,-2.0,-3.0,0.0,-4.0,-2.0,-2.0,1651070639303688.0
0.0,3.0,-4.0,-13.0,-3.0,-3.0,-2.0,-2.0,1651070639303688.0
0.0,1.0,4.0,5.0,0.0,1.0,0.0,-5.0,1651070639305685.0
0.0,-5.0,-2.0,5.0,1.0,-1.0,1.0,-1.0,1651070639305685.0
-3.0,-4.0,-1.0,-9.0,-6.0,-1.0,0.0,-2.0,1651070639326400.0
-1.0,-3.0,-2.0,1.0,2.0,1.0,-1.0,0.0,1651070639326400.0
0.0,4.0,-3.0,-10.0,-10.0,-3.0,-2.0,-1.0,1651070639328359.0
2.0,-3.0,-2.0,6.0,6.0,3.0,0.0,-1.0,1651070639328359.0
-1.0,0.0,3.0,2.0,9.0,2.0,0.0,-2.0,1651070639340518.0
-2.0,-5.0,-10.0,-6.0,-3.0,-3.0,-1.0,1.0,1651070639340518.0
0.0,4.0,16.0,10.0,-3.0,-2.0,-1.0,-2.0,1651070639349557.0
0.0,-1.0,-8.0,-9.0,-3.0,-3.0,-1.0,2.0,1651070639349557.0
0.0,2.0,12.0,12.0,4.0,1.0,-2.0,-1.0,1651070639364338.0
0.0,-2.0,-6.0,7.0,-1.0,-2.0,-2.0,-1.0,1651070639364338.0
0.0,2.0,3.0,-14.0,-4.0,1.0,0.0,-3.0,1651070639365292.0
-2.0,-12.0,-4.0,2.0,6.0,1.0,-1.0,1.0,1651070639365292.0
2.0,-1.0,-7.0,-8.0,-8.0,-1.0,1.0,0.0,1651070639386279.0
-2.0,4.0,12.0,17.0,6.0,1.0,-1.0,-1.0,1651070639386279.0
-4.0,2.0,-3.0,6.0,0.0,1.0,-2.0,-1.0,1651070639388207.0
-2.0,-4.0,-19.0,-25.0,-6.0,-2.0,-1.0,-5.0,1651070639388207.0
1.0,8.0,0.0,-10.0,-13.0,-3.0,-2.0,7.0,1651070639400546.0
1.0,-4.0,1.0,3.0,7.0,4.0,2.0,-2.0,1651070639400546.0
-2.0,-3.0,-1.0,7.0,3.0,-4.0,-1.0,1.0,1651070639409538.0
-1.0,8.0,5.0,-2.0,1.0,3.0,-1.0,0.0,1651070639409538.0
0.0,2.0,14.0,-1.0,5.0,1.0,-1.0,-2.0,1651070639424327.0
1.0,-3.0,-22.0,2.0,-9.0,-5.0,-3.0,-2.0,1651070639424327.0
-1.0,-2.0,5.0,-4.0,4.0,0.0,0.0,1.0,1651070639425257.0
0.0,4.0,-4.0,-4.0,0.0,-1.0,-1.0,-1.0,1651070639425257.0
0.0,-3.0,-1.0,2.0,-2.0,-1.0,1.0,-3.0,1651070639454355.0
-1.0,0.0,13.0,1.0,-2.0,-1.0,-3.0,0.0,1651070639454355.0
0.0,-1.0,-11.0,-5.0,0.0,0.0,0.0,0.0,1651070639455417.0
-2.0,0.0,9.0,2.0,-2.0,-3.0,0.0,-1.0,1651070639455417.0
-2.0,2.0,-1.0,1.0,3.0,1.0,-1.0,-1.0,1651070639460341.0
-2.0,-5.0,-13.0,-16.0,-11.0,-4.0,-1.0,1.0,1651070639460341.0
1.0,-4.0,-5.0,9.0,5.0,1.0,1.0,0.0,1651070639469318.0
1.0,2.0,10.0,5.0,0.0,6.0,0.0,0.0,1651070639469318.0
-2.0,-3.0,-9.0,-10.0,14.0,0.0,-3.0,-3.0,1651070639484348.0
2.0,3.0,6.0,4.0,3.0,0.0,-1.0,0.0,1651070639484348.0
0.0,-2.0,4.0,4.0,-7.0,-4.0,-2.0,-2.0,1651070639485401.0
1.0,6.0,9.0,3.0,-3.0,-3.0,-1.0,0.0,1651070639485401.0
-2.0,-13.0,-21.0,-8.0,-15.0,-5.0,1.0,-2.0,1651070639506564.0
-3.0,2.0,-3.0,-5.0,3.0,-3.0,0.0,-2.0,1651070639506564.0
1.0,1.0,3.0,-2.0,4.0,6.0,2.0,4.0,1651070639507548.0
-1.0,4.0,-1.0,5.0,-3.0,-1.0,-1.0,4.0,1651070639507548.0
-3.0,-1.0,9.0,0.0,-3.0,-1.0,-1.0,-1.0,1651070639520541.0
-3.0,1.0,4.0,-4.0,-4.0,-2.0,-2.0,0.0,1651070639520541.0
1.0,2.0,-5.0,-2.0,-3.0,-3.0,1.0,-6.0,1651070639529490.0
-2.0,-8.0,-6.0,-1.0,-2.0,-1.0,-1.0,-2.0,1651070639529490.0
2.0,3.0,-7.0,-5.0,-1.0,-4.0,-2.0,1.0,1651070639543563.0
-2.0,0.0,22.0,22.0,8.0,4.0,2.0,-1.0,1651070639543563.0
-3.0,-2.0,5.0,12.0,11.0,3.0,-2.0,-2.0,1651070639550552.0
0.0,-4.0,0.0,-14.0,-2.0,-2.0,-3.0,-1.0,1651070639550552.0
1.0,-2.0,-7.0,0.0,-2.0,-1.0,0.0,0.0,1651070639566488.0
1.0,0.0,-1.0,-9.0,-6.0,1.0,-1.0,-1.0,1651070639566488.0
0.0,0.0,-2.0,-7.0,-2.0,-1.0,0.0,-2.0,1651070639568477.0
-2.0,0.0,-2.0,8.0,2.0,-2.0,0.0,-1.0,1651070639568477.0
0.0,3.0,5.0,4.0,0.0,1.0,-1.0,-1.0,1651070639588619.0
0.0,-6.0,-2.0,-7.0,-6.0,-1.0,0.0,-1.0,1651070639588619.0
-1.0,-1.0,-15.0,-5.0,0.0,-2.0,0.0,-1.0,1651070639590615.0
1.0,3.0,3.0,4.0,4.0,-1.0,0.0,0.0,1651070639590615.0
-2.0,-6.0,-1.0,5.0,1.0,4.0,-1.0,-1.0,1651070639604639.0
-1.0,0.0,-5.0,-3.0,-4.0,-2.0,0.0,0.0,1651070639604639.0
-1.0,-1.0,1.0,-7.0,-6.0,-4.0,-3.0,-2.0,1651070639609654.0
-1.0,-1.0,-1.0,-5.0,-2.0,0.0,-1.0,-1.0,1651070639609654.0
1.0,2.0,1.0,4.0,5.0,1.0,0.0,1.0,1651070639626727.0
-1.0,-6.0,1.0,5.0,2.0,1.0,2.0,2.0,1651070639626727.0
-2.0,-10.0,-4.0,-7.0,-5.0,-3.0,-2.0,-1.0,1651070639627720.0
-2.0,-4.0,-11.0,1.0,8.0,4.0,0.0,-2.0,1651070639627720.0
-1.0,4.0,24.0,-4.0,-17.0,-1.0,-1.0,1.0,1651070639648989.0
-1.0,-9.0,-9.0,10.0,17.0,2.0,-1.0,-2.0,1651070639648989.0
-1.0,4.0,6.0,6.0,2.0,-3.0,0.0,-1.0,1651070639651019.0
1.0,-5.0,2.0,7.0,1.0,-3.0,-1.0,-1.0,1651070639651019.0
1.0,2.0,-4.0,-10.0,1.0,-1.0,0.0,-4.0,1651070639664392.0
0.0,6.0,-2.0,-13.0,-9.0,0.0,1.0,4.0,1651070639664392.0
0.0,2.0,0.0,-3.0,0.0,4.0,0.0,0.0,1651070639665445.0
-1.0,2.0,2.0,5.0,-1.0,-3.0,-1.0,1.0,1651070639665445.0
0.0,-3.0,-4.0,2.0,2.0,1.0,1.0,-2.0,1651070639686412.0
3.0,2.0,-7.0,-7.0,-3.0,3.0,-2.0,-1.0,1651070639686412.0
-2.0,0.0,9.0,-2.0,0.0,2.0,0.0,0.0,1651070639688418.0
0.0,-3.0,7.0,29.0,3.0,-2.0,-1.0,-2.0,1651070639688418.0
0.0,-6.0,-2.0,-7.0,12.0,8.0,2.0,0.0,1651070639709424.0
-1.0,-2.0,1.0,5.0,0.0,-3.0,-1.0,-2.0,1651070639709424.0
1.0,3.0,-3.0,-13.0,-4.0,0.0,0.0,1.0,1651070639710343.0
-2.0,1.0,-3.0,-9.0,-7.0,-1.0,1.0,0.0,1651070639710343.0
-2.0,0.0,-3.0,7.0,0.0,-5.0,-2.0,0.0,1651070639723377.0
0.0,3.0,-2.0,-3.0,1.0,-2.0,0.0,-1.0,1651070639723377.0
0.0,1.0,-4.0,-2.0,-3.0,-2.0,-1.0,-1.0,1651070639730356.0
2.0,-1.0,1.0,-8.0,1.0,-1.0,-1.0,-1.0,1651070639730356.0
-1.0,-5.0,-4.0,9.0,-1.0,-1.0,0.0,0.0,1651070639746483.0
-1.0,-7.0,10.0,0.0,-11.0,-2.0,1.0,-1.0,1651070639746483.0
-1.0,2.0,-7.0,-1.0,0.0,-5.0,-3.0,0.0,1651070639748241.0
-1.0,-3.0,-6.0,7.0,36.0,13.0,1.0,1.0,1651070639748241.0
-1.0,3.0,-1.0,-4.0,-5.0,-1.0,-1.0,2.0,1651070639769298.0
-2.0,2.0,-3.0,-2.0,-1.0,-2.0,0.0,-2.0,1651070639769298.0
-1.0,-2.0,5.0,-2.0,-11.0,-3.0,-1.0,1.0,1651070639770298.0
-2.0,2.0,4.0,3.0,-16.0,-6.0,-2.0,-3.0,1651070639770298.0
0.0,0.0,-3.0,-1.0,7.0,3.0,-1.0,-3.0,1651070639783331.0
1.0,4.0,9.0,3.0,-4.0,-2.0,-1.0,0.0,1651070639783331.0
-2.0,-5.0,-2.0,3.0,0.0,-1.0,1.0,-2.0,1651070639790558.0
-1.0,0.0,-17.0,-25.0,-9.0,-1.0,0.0,0.0,1651070639790558.0
-1.0,2.0,6.0,-2.0,-2.0,-3.0,-1.0,2.0,1651070639806421.0
-1.0,-3.0,-1.0,-1.0,-1.0,-2.0,-2.0,-3.0,1651070639806421.0
0.0,0.0,4.0,4.0,4.0,1.0,0.0,-2.0,1651070639808416.0
-2.0,-1.0,0.0,-3.0,-5.0,-2.0,-1.0,-2.0,1651070639808416.0
0.0,0.0,-10.0,0.0,-5.0,-3.0,-1.0,5.0,1651070639828484.0
0.0,-3.0,1.0,-6.0,-6.0,-2.0,1.0,-2.0,1651070639828484.0
-3.0,-7.0,-1.0,5.0,19.0,8.0,1.0,3.0,1651070639830416.0
-1.0,1.0,7.0,-4.0,-5.0,0.0,0.0,-1.0,1651070639830416.0
0.0,1.0,-4.0,-2.0,-1.0,-2.0,-1.0,-2.0,1651070639843491.0
0.0,4.0,-5.0,3.0,3.0,0.0,0.0,2.0,1651070639843491.0
0.0,-8.0,-10.0,-7.0,-8.0,-3.0,-3.0,-3.0,1651070639850543.0
0.0,0.0,4.0,0.0,-11.0,-2.0,-1.0,0.0,1651070639850543.0
-2.0,-5.0,0.0,-1.0,7.0,0.0,-1.0,-1.0,1651070639866602.0
-1.0,1.0,-1.0,22.0,10.0,-3.0,0.0,1.0,1651070639866602.0
-1.0,4.0,3.0,-5.0,6.0,3.0,1.0,0.0,1651070639867609.0
0.0,-3.0,0.0,0.0,-2.0,0.0,2.0,2.0,1651070639867609.0
2.0,0.0,1.0,-1.0,-7.0,-2.0,-1.0,-2.0,1651070639889080.0
0.0,3.0,0.0,-8.0,-5.0,0.0,-1.0,-2.0,1651070639889080.0
2.0,-1.0,3.0,3.0,0.0,-3.0,-3.0,-1.0,1651070639890050.0
0.0,-9.0,-19.0,-14.0,-1.0,-1.0,0.0,1.0,1651070639890050.0
-1.0,1.0,6.0,11.0,2.0,4.0,-1.0,-1.0,1651070639903757.0
-3.0,-3.0,0.0,-5.0,0.0,-1.0,-2.0,-1.0,1651070639903757.0
0.0,5.0,2.0,4.0,0.0,-1.0,-1.0,-1.0,1651070639909811.0
-1.0,-1.0,-16.0,-5.0,-2.0,-3.0,1.0,-1.0,1651070639909811.0
-2.0,0.0,9.0,1.0,-2.0,-3.0,1.0,-2.0,1651070639926614.0
0.0,0.0,-8.0,-5.0,1.0,2.0,0.0,0.0,1651070639926614.0
-2.0,1.0,1.0,1.0,-6.0,1.0,1.0,-2.0,1651070639927601.0
1.0,3.0,-2.0,2.0,-1.0,-2.0,-4.0,-1.0,1651070639927601.0
-1.0,5.0,4.0,2.0,5.0,1.0,0.0,0.0,1651070639949144.0
-1.0,-8.0,-3.0,-9.0,2.0,4.0,0.0,-1.0,1651070639949144.0
-1.0,1.0,4.0,18.0,1.0,-1.0,-1.0,1.0,1651070639950163.0
-1.0,4.0,11.0,3.0,0.0,-3.0,0.0,1.0,1651070639950163.0
2.0,1.0,-6.0,2.0,1.0,-1.0,0.0,-1.0,1651070639963737.0
-1.0,1.0,-1.0,-8.0,-4.0,-2.0,-2.0,0.0,1651070639963737.0
1.0,0.0,-9.0,-8.0,-12.0,-4.0,0.0,1.0,1651070639969732.0
0.0,-2.0,10.0,5.0,15.0,3.0,-1.0,-1.0,1651070639969732.0
0.0,-1.0,1.0,0.0,-2.0,2.0,-1.0,0.0,1651070639986409.0
0.0,2.0,3.0,3.0,-3.0,-1.0,-1.0,0.0,1651070639986409.0
0.0,-2.0,-7.0,-11.0,-1.0,1.0,0.0,-2.0,1651070639988427.0
-2.0,0.0,2.0,9.0,-7.0,-2.0,-1.0,0.0,1651070639988427.0
-1.0,-2.0,4.0,-7.0,-7.0,-4.0,-1.0,-1.0,1651070640009356.0
1.0,1.0,-11.0,-4.0,6.0,2.0,-1.0,-1.0,1651070640009356.0
1.0,6.0,-1.0,0.0,-3.0,-3.0,-1.0,0.0,1651070640010360.0
-1.0,1.0,6.0,-2.0,-3.0,-2.0,-1.0,-1.0,1651070640010360.0
-2.0,-4.0,6.0,3.0,-2.0,-2.0,-1.0,-1.0,1651070640023420.0
0.0,-4.0,-12.0,-5.0,-3.0,-1.0,0.0,0.0,1651070640023420.0
0.0,2.0,11.0,0.0,-2.0,0.0,-1.0,1.0,1651070640029580.0
0.0,-2.0,-5.0,1.0,5.0,1.0,-1.0,0.0,1651070640029580.0
-2.0,-1.0,-10.0,0.0,-1.0,-2.0,-1.0,1.0,1651070640046539.0
2.0,5.0,7.0,0.0,-2.0,-2.0,-2.0,0.0,1651070640046539.0
-3.0,-10.0,-4.0,-7.0,1.0,2.0,0.0,-1.0,1651070640048532.0
-2.0,2.0,-10.0,-5.0,-5.0,-1.0,1.0,0.0,1651070640048532.0
-2.0,-2.0,17.0,6.0,4.0,0.0,-1.0,-2.0,1651070640068546.0
-1.0,-1.0,-9.0,-4.0,-2.0,-2.0,-2.0,0.0,1651070640068546.0
0.0,3.0,11.0,3.0,11.0,-1.0,-1.0,0.0,1651070640070473.0
-3.0,-18.0,-11.0,4.0,1.0,2.0,-2.0,0.0,1651070640070473.0
0.0,0.0,-10.0,-5.0,-4.0,-5.0,0.0,-1.0,1651070640083079.0
-2.0,-1.0,5.0,-1.0,3.0,1.0,0.0,0.0,1651070640083079.0
1.0,-3.0,-10.0,-9.0,-3.0,2.0,-1.0,0.0,1651070640092057.0
2.0,5.0,2.0,-2.0,-8.0,-1.0,0.0,-1.0,1651070640092057.0
-1.0,2.0,-13.0,-4.0,1.0,-2.0,1.0,1.0,1651070640106257.0
-1.0,0.0,24.0,7.0,5.0,0.0,-1.0,0.0,1651070640106257.0
-2.0,-2.0,-4.0,3.0,-12.0,-5.0,-3.0,-3.0,1651070640108156.0
1.0,4.0,16.0,6.0,6.0,-1.0,0.0,0.0,1651070640108156.0
0.0,-3.0,-23.0,-3.0,5.0,5.0,1.0,-1.0,1651070640129224.0
1.0,2.0,-10.0,2.0,-2.0,-3.0,3.0,1.0,1651070640129224.0
-1.0,4.0,1.0,-8.0,1.0,-5.0,-1.0,-6.0,1651070640130184.0
-2.0,-4.0,-16.0,-11.0,-7.0,4.0,1.0,4.0,1651070640130184.0
-4.0,-3.0,18.0,4.0,-5.0,-1.0,-1.0,-4.0,1651070640142751.0
1.0,3.0,2.0,5.0,-9.0,3.0,1.0,2.0,1651070640142751.0
7.0,8.0,-4.0,-8.0,24.0,3.0,4.0,4.0,1651070640151378.0
-1.0,-1.0,3.0,4.0,12.0,7.0,3.0,-4.0,1651070640151378.0
0.0,1.0,3.0,-8.0,-14.0,-6.0,-4.0,-2.0,1651070640166552.0
-7.0,-12.0,-10.0,1.0,-2.0,1.0,-2.0,-4.0,1651070640166552.0
-1.0,13.0,38.0,19.0,-12.0,-6.0,-3.0,-2.0,1651070640168559.0
4.0,-24.0,-42.0,-12.0,-16.0,-12.0,-1.0,2.0,1651070640168559.0
-1.0,-4.0,-18.0,-20.0,7.0,7.0,1.0,2.0,1651070640188560.0
-1.0,3.0,14.0,-7.0,-4.0,-3.0,-3.0,-1.0,1651070640188560.0
-1.0,-5.0,-17.0,18.0,4.0,2.0,-4.0,1.0,1651070640190487.0
-12.0,10.0,30.0,19.0,6.0,0.0,-4.0,-5.0,1651070640190487.0
1.0,2.0,8.0,-14.0,-16.0,-3.0,-2.0,-5.0,1651070640202456.0
15.0,11.0,-20.0,-12.0,-7.0,2.0,5.0,8.0,1651070640202456.0
5.0,0.0,4.0,-25.0,3.0,5.0,6.0,5.0,1651070640211443.0
8.0,-8.0,-3.0,9.0,12.0,9.0,2.0,3.0,1651070640211443.0
-8.0,0.0,3.0,20.0,-3.0,-10.0,-5.0,-4.0,1651070640226531.0
-16.0,-16.0,25.0,8.0,8.0,0.0,-4.0,-13.0,1651070640226531.0
-11.0,-1.0,32.0,16.0,-4.0,4.0,1.0,-3.0,1651070640227549.0
15.0,19.0,-38.0,-23.0,-10.0,-6.0,-4.0,3.0,1651070640227549.0
13.0,-5.0,-6.0,-15.0,6.0,6.0,4.0,16.0,1651070640249425.0
-21.0,1.0,-10.0,-11.0,-7.0,-5.0,-2.0,-7.0,1651070640249425.0
-5.0,-3.0,-12.0,14.0,-12.0,-5.0,-4.0,-10.0,1651070640250427.0
-1.0,-44.0,28.0,-9.0,4.0,3.0,-1.0,-4.0,1651070640250427.0
19.0,47.0,-1.0,11.0,14.0,2.0,2.0,9.0,1651070640262496.0
8.0,6.0,11.0,10.0,2.0,0.0,1.0,16.0,1651070640262496.0
-12.0,-9.0,-5.0,4.0,-1.0,0.0,0.0,-7.0,1651070640271590.0
-27.0,59.0,-20.0,-15.0,-25.0,-16.0,-13.0,-17.0,1651070640271590.0
-10.0,-86.0,35.0,23.0,10.0,7.0,0.0,-14.0,1651070640286503.0
58.0,63.0,-3.0,-3.0,-14.0,-3.0,8.0,21.0,1651070640286503.0
13.0,-83.0,-17.0,4.0,47.0,29.0,18.0,34.0,1651070640288488.0
14.0,99.0,-22.0,-25.0,-17.0,-13.0,-10.0,-7.0,1651070640288488.0
-12.0,34.0,0.0,2.0,8.0,-1.0,-1.0,1.0,1651070640309420.0
26.0,23.0,13.0,13.0,-2.0,-6.0,-1.0,-1.0,1651070640309420.0
-15.0,-30.0,63.0,-6.0,-14.0,-10.0,-6.0,-14.0,1651070640310344.0
-57.0,-18.0,61.0,36.0,19.0,13.0,3.0,-12.0,1651070640310344.0
8.0,-40.0,-51.0,-3.0,-10.0,1.0,-3.0,-9.0,1651070640323047.0
-35.0,-14.0,-5.0,8.0,15.0,6.0,4.0,9.0,1651070640323047.0
66.0,58.0,-43.0,-32.0,-6.0,-4.0,4.0,25.0,1651070640331584.0
4.0,8.0,14.0,-9.0,-10.0,-5.0,0.0,-5.0,1651070640331584.0
-37.0,49.0,35.0,13.0,-10.0,-12.0,-7.0,-10.0,1651070640346085.0
5.0,-44.0,31.0,14.0,45.0,33.0,15.0,10.0,1651070640346085.0
1.0,67.0,-3.0,9.0,-12.0,-11.0,-9.0,-11.0,1651070640352658.0
42.0,3.0,-6.0,4.0,-1.0,3.0,9.0,18.0,1651070640352658.0
-7.0,-35.0,-23.0,-4.0,-4.0,-6.0,-6.0,-6.0,1651070640368712.0
5.0,-64.0,-22.0,11.0,15.0,2.0,3.0,8.0,1651070640368712.0
-35.0,-8.0,-15.0,0.0,-7.0,-8.0,-4.0,-11.0,1651070640370649.0
-16.0,-62.0,6.0,-32.0,-18.0,-4.0,-6.0,-6.0,1651070640370649.0
-4.0,86.0,0.0,-6.0,-9.0,-3.0,-1.0,-5.0,1651070640383041.0
-34.0,-77.0,-62.0,-11.0,-12.0,-12.0,-13.0,-18.0,1651070640383041.0
-26.0,-5.0,13.0,-13.0,-8.0,-6.0,-9.0,-18.0,1651070640392036.0
67.0,68.0,-9.0,19.0,24.0,17.0,21.0,34.0,1651070640392036.0
12.0,-67.0,-25.0,-7.0,-6.0,-5.0,2.0,6.0,1651070640406407.0
-28.0,-34.0,74.0,12.0,0.0,-8.0,-17.0,-26.0,1651070640406407.0
9.0,22.0,-62.0,-3.0,-7.0,9.0,6.0,6.0,1651070640408427.0
-44.0,37.0,4.0,-7.0,-12.0,-12.0,-13.0,-22.0,1651070640408427.0
52.0,-49.0,26.0,-8.0,12.0,13.0,14.0,36.0,1651070640429246.0
-48.0,-10.0,-46.0,3.0,-4.0,-1.0,0.0,-15.0,1651070640429246.0
10.0,18.0,35.0,9.0,-2.0,1.0,-5.0,-18.0,1651070640430241.0
53.0,-76.0,37.0,-2.0,-5.0,0.0,10.0,37.0,1651070640430241.0
-8.0,-2.0,-38.0,-18.0,-10.0,-10.0,-10.0,-12.0,1651070640442330.0
7.0,6.0,0.0,-10.0,-28.0,-12.0,-5.0,-13.0,1651070640442330.0
52.0,-26.0,-5.0,2.0,36.0,16.0,12.0,25.0,1651070640451421.0
-46.0,67.0,11.0,27.0,4.0,0.0,0.0,-3.0,1651070640451421.0
-19.0,28.0,19.0,6.0,13.0,1.0,-3.0,-11.0,1651070640465541.0
-6.0,-36.0,21.0,-21.0,-14.0,-6.0,-2.0,-4.0,1651070640465541.0
4.0,29.0,-25.0,-1.0,-15.0,-8.0,-9.0,-5.0,1651070640472534.0
-20.0,-38.0,38.0,-10.0,-8.0,1.0,-1.0,-3.0,1651070640472534.0
46.0,72.0,-29.0,8.0,6.0,5.0,5.0,11.0,1651070640489439.0
-22.0,23.0,-1.0,0.0,8.0,2.0,-2.0,-7.0,1651070640489439.0
14.0,-10.0,13.0,6.0,2.0,2.0,7.0,11.0,1651070640490428.0
9.0,-37.0,-27.0,7.0,7.0,-1.0,-1.0,-6.0,1651070640490428.0
-23.0,8.0,3.0,-9.0,-4.0,-2.0,-4.0,-11.0,1651070640502454.0
13.0,15.0,16.0,-8.0,-4.0,2.0,2.0,4.0,1651070640502454.0
-18.0,-10.0,-10.0,0.0,-5.0,-1.0,2.0,2.0,1651070640511488.0
-3.0,-14.0,8.0,19.0,12.0,6.0,0.0,1.0,1651070640511488.0
-10.0,-35.0,45.0,3.0,-4.0,1.0,5.0,7.0,1651070640525600.0
48.0,30.0,-52.0,-2.0,2.0,1.0,2.0,4.0,1651070640525600.0
-27.0,13.0,11.0,3.0,-12.0,-11.0,-6.0,0.0,1651070640533079.0
7.0,-37.0,-7.0,-14.0,11.0,4.0,-1.0,-18.0,1651070640533079.0
-3.0,34.0,33.0,21.0,14.0,9.0,0.0,-1.0,1651070640549299.0
5.0,-28.0,-48.0,-20.0,1.0,-4.0,-1.0,3.0,1651070640549299.0
8.0,39.0,-25.0,-4.0,4.0,4.0,3.0,-2.0,1651070640550267.0
-14.0,-63.0,35.0,23.0,0.0,-5.0,-7.0,-6.0,1651070640550267.0
3.0,18.0,1.0,2.0,-7.0,-3.0,1.0,4.0,1651070640571683.0
-1.0,9.0,10.0,-1.0,-8.0,-2.0,1.0,-12.0,1651070640571683.0
-23.0,-3.0,-27.0,-18.0,-5.0,-3.0,-6.0,5.0,1651070640572694.0
5.0,19.0,3.0,-1.0,-3.0,-1.0,4.0,11.0,1651070640572694.0
7.0,-1.0,13.0,-4.0,-4.0,0.0,-6.0,-10.0,1651070640586646.0
-10.0,0.0,24.0,12.0,0.0,-2.0,-5.0,-6.0,1651070640586646.0
-10.0,5.0,37.0,10.0,-5.0,-1.0,-1.0,-2.0,1651070640587663.0
31.0,56.0,4.0,-9.0,11.0,5.0,6.0,12.0,1651070640587663.0
-12.0,-73.0,-44.0,-5.0,0.0,1.0,-1.0,0.0,1651070640608735.0
25.0,112.0,2.0,1.0,-15.0,-5.0,-1.0,-1.0,1651070640608735.0
-19.0,-49.0,-29.0,-14.0,-9.0,-8.0,-4.0,-1.0,1651070640610664.0
-21.0,30.0,1.0,1.0,6.0,1.0,-4.0,-15.0,1651070640610664.0
5.0,2.0,-9.0,-17.0,0.0,5.0,-4.0,-3.0,1651070640631771.0
5.0,-17.0,37.0,28.0,9.0,0.0,1.0,8.0,1651070640631771.0
13.0,74.0,-11.0,-23.0,3.0,5.0,6.0,14.0,1651070640632707.0
-24.0,-30.0,-46.0,-36.0,-42.0,-19.0,-9.0,-16.0,1651070640632707.0
14.0,-16.0,14.0,2.0,30.0,8.0,9.0,0.0,1651070640645369.0
-2.0,21.0,-6.0,-9.0,-17.0,-7.0,0.0,7.0,1651070640645369.0
-7.0,-29.0,39.0,21.0,11.0,0.0,1.0,-6.0,1651070640652355.0
-22.0,7.0,-37.0,6.0,9.0,4.0,0.0,-14.0,1651070640652355.0
28.0,59.0,8.0,0.0,-11.0,-4.0,-2.0,10.0,1651070640669392.0
-3.0,-43.0,-14.0,-12.0,-3.0,-1.0,3.0,12.0,1651070640669392.0
9.0,23.0,-5.0,8.0,1.0,1.0,3.0,-2.0,1651070640670404.0
2.0,-1.0,14.0,6.0,2.0,3.0,-2.0,-10.0,1651070640670404.0
-19.0,27.0,-5.0,4.0,-10.0,-7.0,0.0,5.0,1651070640691606.0
11.0,-84.0,5.0,3.0,14.0,8.0,5.0,3.0,1651070640691606.0
8.0,-39.0,17.0,-4.0,-2.0,2.0,0.0,-2.0,1651070640692603.0
1.0,5.0,-20.0,-9.0,-10.0,-9.0,-4.0,-1.0,1651070640692603.0
-20.0,3.0,-8.0,-1.0,3.0,2.0,-1.0,-3.0,1651070640705638.0
-19.0,12.0,-8.0,-13.0,3.0,2.0,-5.0,-14.0,1651070640705638.0
1.0,-15.0,-3.0,1.0,-20.0,-3.0,-2.0,-3.0,1651070640712616.0
8.0,-31.0,-20.0,-10.0,11.0,5.0,0.0,11.0,1651070640712616.0
-11.0,13.0,23.0,12.0,9.0,3.0,2.0,-2.0,1651070640728773.0
5.0,18.0,-4.0,-22.0,7.0,3.0,2.0,6.0,1651070640728773.0
6.0,-29.0,-48.0,9.0,0.0,0.0,-2.0,-8.0,1651070640730702.0
9.0,1.0,12.0,18.0,-3.0,-1.0,-4.0,-12.0,1651070640730702.0
-1.0,16.0,-14.0,-6.0,-20.0,-8.0,2.0,13.0,1651070640751894.0
5.0,27.0,22.0,-4.0,3.0,1.0,2.0,7.0,1651070640751894.0
-15.0,-6.0,1.0,-15.0,-11.0,-9.0,-5.0,-7.0,1651070640752813.0
9.0,-1.0,24.0,21.0,15.0,14.0,4.0,1.0,1651070640752813.0
-19.0,-65.0,-15.0,3.0,2.0,-2.0,0.0,-6.0,1651070640765881.0
14.0,64.0,-7.0,-1.0,-10.0,-5.0,-5.0,-6.0,1651070640765881.0
-15.0,-5.0,16.0,9.0,3.0,-2.0,-3.0,-3.0,1651070640773049.0
6.0,-40.0,-37.0,-18.0,-5.0,-3.0,1.0,13.0,1651070640773049.0
-12.0,-14.0,17.0,4.0,-4.0,-1.0,1.0,10.0,1651070640789229.0
11.0,5.0,-23.0,-4.0,-2.0,0.0,-2.0,3.0,1651070640789229.0
-9.0,15.0,5.0,-9.0,-3.0,-4.0,-5.0,-24.0,1651070640790206.0
-6.0,-11.0,10.0,-8.0,-17.0,-7.0,-2.0,4.0,1651070640790206.0
0.0,-31.0,-18.0,-3.0,12.0,4.0,-1.0,-9.0,1651070640811319.0
-1.0,51.0,-11.0,2.0,2.0,-3.0,-2.0,5.0,1651070640811319.0
-5.0,-10.0,4.0,6.0,-8.0,-4.0,-2.0,-18.0,1651070640813247.0
2.0,12.0,-5.0,1.0,25.0,7.0,2.0,14.0,1651070640813247.0
-9.0,2.0,10.0,-1.0,-15.0,-9.0,-6.0,-18.0,1651070640826272.0
-14.0,-49.0,9.0,22.0,-5.0,-5.0,-2.0,-6.0,1651070640826272.0
19.0,30.0,-7.0,-22.0,-2.0,-2.0,-1.0,13.0,1651070640833080.0
5.0,31.0,-9.0,-6.0,-9.0,-2.0,2.0,3.0,1651070640833080.0
-3.0,-19.0,-1.0,-6.0,-11.0,-6.0,-5.0,-4.0,1651070640849301.0
-13.0,7.0,13.0,2.0,11.0,10.0,2.0,-8.0,1651070640849301.0
11.0,26.0,37.0,18.0,4.0,4.0,3.0,10.0,1651070640850232.0
11.0,0.0,-44.0,-6.0,2.0,0.0,2.0,9.0,1651070640850232.0
-8.0,-63.0,-33.0,-13.0,0.0,-2.0,-2.0,-10.0,1651070640871326.0
2.0,28.0,-10.0,1.0,-8.0,-3.0,-2.0,-1.0,1651070640871326.0
-22.0,-46.0,49.0,10.0,5.0,-1.0,1.0,5.0,1651070640873280.0
-4.0,38.0,-16.0,1.0,5.0,1.0,-5.0,-23.0,1651070640873280.0
4.0,-34.0,-26.0,-3.0,-4.0,0.0,0.0,-16.0,1651070640886269.0
22.0,4.0,21.0,8.0,0.0,-3.0,5.0,29.0,1651070640886269.0
-5.0,2.0,-36.0,-2.0,14.0,4.0,3.0,15.0,1651070640892203.0
-3.0,-17.0,30.0,-16.0,-10.0,-5.0,0.0,0.0,1651070640892203.0
6.0,67.0,71.0,15.0,-1.0,5.0,2.0,-2.0,1651070640909409.0
-1.0,-24.0,-68.0,-12.0,-4.0,-5.0,-5.0,-14.0,1651070640909409.0
-22.0,4.0,-13.0,-16.0,0.0,0.0,-1.0,1.0,1651070640910369.0
3.0,-27.0,20.0,12.0,2.0,0.0,2.0,5.0,1651070640910369.0
2.0,19.0,6.0,-1.0,5.0,4.0,0.0,-1.0,1651070640931643.0
-18.0,-17.0,43.0,20.0,0.0,-2.0,-2.0,-2.0,1651070640931643.0
19.0,22.0,18.0,4.0,2.0,1.0,1.0,6.0,1651070640932612.0
-11.0,-16.0,-43.0,-10.0,-7.0,-3.0,-2.0,-9.0,1651070640932612.0
10.0,42.0,-14.0,-10.0,-11.0,-4.0,0.0,11.0,1651070640945377.0
-3.0,5.0,24.0,6.0,5.0,4.0,3.0,-1.0,1651070640945377.0
-13.0,-8.0,-30.0,-17.0,-10.0,-9.0,-9.0,-21.0,1651070640953755.0
1.0,-13.0,29.0,22.0,-7.0,2.0,2.0,8.0,1651070640953755.0
21.0,21.0,-43.0,2.0,14.0,2.0,4.0,20.0,1651070640968734.0
-7.0,50.0,18.0,3.0,2.0,-2.0,-3.0,-7.0,1651070640968734.0
-6.0,-22.0,-4.0,-8.0,-5.0,-2.0,-6.0,-8.0,1651070640970663.0
1.0,23.0,-4.0,-6.0,6.0,0.0,-3.0,1.0,1651070640970663.0
-4.0,-47.0,1.0,-1.0,-4.0,0.0,0.0,0.0,1651070640990978.0
4.0,33.0,-9.0,-9.0,-10.0,-1.0,-2.0,-7.0,1651070640990978.0
3.0,2.0,-5.0,7.0,12.0,5.0,-1.0,-4.0,1651070640992976.0
-27.0,-1.0,13.0,0.0,-13.0,-4.0,-2.0,-1.0,1651070640992976.0
-6.0,-3.0,13.0,8.0,0.0,-3.0,-3.0,-18.0,1651070641005370.0
21.0,-28.0,11.0,13.0,10.0,2.0,10.0,38.0,1651070641005370.0
-12.0,-36.0,-4.0,-6.0,-17.0,-1.0,-2.0,-9.0,1651070641012420.0
-9.0,-7.0,-16.0,-14.0,0.0,-6.0,-6.0,-11.0,1651070641012420.0
16.0,-6.0,-27.0,-10.0,-13.0,-1.0,-2.0,4.0,1651070641028552.0
-34.0,-67.0,19.0,2.0,11.0,10.0,3.0,-15.0,1651070641028552.0
29.0,66.0,20.0,35.0,5.0,2.0,5.0,-4.0,1651070641030483.0
14.0,3.0,-54.0,-16.0,4.0,-4.0,3.0,26.0,1651070641030483.0
-25.0,-1.0,-7.0,-16.0,-8.0,-10.0,-6.0,-11.0,1651070641051731.0
-2.0,-8.0,6.0,-2.0,0.0,-1.0,-3.0,-4.0,1651070641051731.0
9.0,0.0,11.0,0.0,1.0,4.0,5.0,5.0,1651070641052661.0
-5.0,-13.0,29.0,10.0,0.0,1.0,-1.0,-10.0,1651070641052661.0
13.0,18.0,5.0,2.0,8.0,5.0,2.0,5.0,1651070641064695.0
3.0,10.0,-12.0,-9.0,-6.0,-3.0,-2.0,-2.0,1651070641064695.0
-4.0,-9.0,-7.0,-14.0,-4.0,-5.0,-7.0,4.0,1651070641074636.0
0.0,30.0,14.0,11.0,2.0,1.0,-2.0,-21.0,1651070641074636.0
0.0,-26.0,-6.0,-1.0,-12.0,-1.0,2.0,18.0,1651070641088631.0
0.0,20.0,-3.0,-2.0,2.0,-8.0,-5.0,-5.0,1651070641088631.0
4.0,-12.0,-14.0,-10.0,21.0,6.0,7.0,9.0,1651070641090559.0
14.0,21.0,3.0,4.0,-4.0,-2.0,1.0,-9.0,1651070641090559.0
-15.0,-28.0,4.0,-13.0,-5.0,-4.0,-5.0,4.0,1651070641118572.0
-12.0,-24.0,-13.0,-6.0,-6.0,0.0,-3.0,-14.0,1651070641118572.0
-3.0,33.0,11.0,15.0,-4.0,-3.0,-5.0,2.0,1651070641120513.0
4.0,-7.0,18.0,1.0,-10.0,-1.0,4.0,14.0,1651070641120513.0
-3.0,-15.0,-2.0,-7.0,26.0,8.0,-4.0,-19.0,1651070641125506.0
5.0,30.0,-20.0,-1.0,-4.0,2.0,1.0,8.0,1651070641125506.0
10.0,-10.0,-3.0,3.0,2.0,-5.0,1.0,6.0,1651070641134463.0
-1.0,-1.0,18.0,8.0,-5.0,-2.0,-3.0,-2.0,1651070641134463.0
-21.0,-6.0,-17.0,-1.0,-10.0,-4.0,-3.0,-25.0,1651070641149407.0
23.0,1.0,14.0,-7.0,-3.0,-3.0,0.0,12.0,1651070641149407.0
-4.0,-28.0,-4.0,-6.0,-4.0,0.0,1.0,-1.0,1651070641150367.0
11.0,-11.0,-8.0,-1.0,7.0,3.0,1.0,1.0,1651070641150367.0
-28.0,19.0,12.0,11.0,2.0,0.0,-4.0,-9.0,1651070641171663.0
26.0,13.0,-7.0,-1.0,3.0,3.0,3.0,4.0,1651070641171663.0
4.0,-5.0,-10.0,-5.0,11.0,10.0,9.0,13.0,1651070641172677.0
9.0,28.0,6.0,10.0,8.0,6.0,5.0,6.0,1651070641172677.0
4.0,16.0,-25.0,-6.0,-2.0,-3.0,1.0,7.0,1651070641184698.0
-20.0,-19.0,-1.0,-17.0,-4.0,-5.0,-3.0,-1.0,1651070641184698.0
-7.0,-14.0,5.0,0.0,-7.0,-4.0,-5.0,-24.0,1651070641200506.0
9.0,24.0,6.0,-3.0,-12.0,-3.0,-1.0,15.0,1651070641200506.0
14.0,-20.0,17.0,18.0,11.0,1.0,2.0,0.0,1651070641208706.0
-14.0,34.0,7.0,4.0,3.0,1.0,-2.0,-4.0,1651070641208706.0
20.0,-52.0,-11.0,-8.0,-9.0,-4.0,0.0,5.0,1651070641210674.0
-21.0,-11.0,-3.0,-5.0,-1.0,-3.0,-4.0,-10.0,1651070641210674.0
-1.0,14.0,15.0,6.0,-13.0,-5.0,-5.0,-7.0,1651070641231661.0
3.0,-19.0,3.0,-8.0,-7.0,-3.0,4.0,20.0,1651070641231661.0
6.0,29.0,-18.0,2.0,4.0,0.0,-1.0,-2.0,1651070641232659.0
-9.0,-21.0,5.0,18.0,0.0,-1.0,-1.0,-8.0,1651070641232659.0
-6.0,-22.0,-9.0,-32.0,0.0,1.0,0.0,0.0,1651070641244778.0
12.0,15.0,-7.0,9.0,-5.0,0.0,1.0,-9.0,1651070641244778.0
-3.0,37.0,34.0,3.0,1.0,5.0,4.0,10.0,1651070641253787.0
7.0,-43.0,-28.0,1.0,4.0,-1.0,2.0,4.0,1651070641253787.0
11.0,31.0,12.0,5.0,0.0,-2.0,1.0,10.0,1651070641268816.0
-13.0,-36.0,-21.0,-2.0,7.0,3.0,0.0,-7.0,1651070641268816.0
-27.0,15.0,-10.0,-11.0,-10.0,-7.0,-8.0,-14.0,1651070641270772.0
-3.0,14.0,30.0,-7.0,-1.0,-3.0,-5.0,-5.0,1651070641270772.0
6.0,-3.0,-6.0,13.0,2.0,4.0,6.0,7.0,1651070641291653.0
6.0,1.0,-9.0,2.0,1.0,-6.0,-5.0,-5.0,1651070641291653.0
-5.0,-20.0,15.0,12.0,3.0,1.0,2.0,0.0,1651070641292672.0
-9.0,12.0,12.0,8.0,5.0,5.0,0.0,2.0,1651070641292672.0
12.0,3.0,-39.0,-30.0,-11.0,-6.0,-2.0,4.0,1651070641305335.0
-9.0,-9.0,14.0,11.0,3.0,1.0,-4.0,-9.0,1651070641305335.0
-10.0,-12.0,-25.0,-25.0,-3.0,-1.0,-2.0,6.0,1651070641314314.0
-6.0,-16.0,0.0,2.0,2.0,-1.0,-2.0,-6.0,1651070641314314.0
9.0,34.0,19.0,8.0,-8.0,-5.0,-1.0,-9.0,1651070641329419.0
-1.0,-13.0,18.0,9.0,5.0,7.0,2.0,9.0,1651070641329419.0
-10.0,-54.0,-32.0,-1.0,-2.0,-3.0,0.0,-2.0,1651070641330398.0
4.0,60.0,-12.0,-19.0,-11.0,-2.0,1.0,-2.0,1651070641330398.0
-4.0,-49.0,8.0,16.0,7.0,2.0,-2.0,-17.0,1651070641351447.0
12.0,18.0,8.0,11.0,17.0,3.0,0.0,2.0,1651070641351447.0
4.0,35.0,14.0,-8.0,-7.0,-1.0,5.0,17.0,1651070641353454.0
4.0,-22.0,-12.0,-13.0,8.0,0.0,-1.0,-2.0,1651070641353454.0
15.0,44.0,14.0,5.0,-9.0,-1.0,7.0,24.0,1651070641365414.0
-30.0,-13.0,-10.0,-18.0,-8.0,-3.0,-9.0,-25.0,1651070641365414.0
17.0,4.0,5.0,21.0,-1.0,2.0,1.0,1.0,1651070641374388.0
-5.0,-32.0,4.0,-1.0,-1.0,0.0,0.0,4.0,1651070641374388.0
-10.0,12.0,9.0,-3.0,7.0,3.0,-1.0,-4.0,1651070641396453.0
-1.0,-6.0,-11.0,2.0,-6.0,-2.0,-1.0,-2.0,1651070641396453.0
15.0,18.0,16.0,5.0,5.0,-2.0,0.0,8.0,1651070641398386.0
-3.0,-8.0,-27.0,-1.0,-8.0,1.0,2.0,-8.0,1651070641398386.0
16.0,-11.0,32.0,18.0,20.0,11.0,5.0,12.0,1651070641411503.0
-27.0,-26.0,-59.0,-19.0,-11.0,-9.0,-2.0,-2.0,1651070641411503.0
-8.0,-3.0,-10.0,-29.0,1.0,-3.0,-5.0,-12.0,1651070641412530.0
-4.0,10.0,18.0,21.0,-1.0,-5.0,-7.0,-8.0,1651070641412530.0
-5.0,17.0,17.0,0.0,-10.0,-1.0,1.0,0.0,1651070641425468.0
7.0,-17.0,-30.0,6.0,-2.0,-3.0,-1.0,-1.0,1651070641425468.0
-1.0,3.0,14.0,3.0,-3.0,2.0,0.0,-2.0,1651070641434609.0
9.0,5.0,2.0,-1.0,8.0,4.0,1.0,4.0,1651070641434609.0
-5.0,12.0,-13.0,-3.0,1.0,-2.0,-1.0,2.0,1651070641449418.0
-25.0,-21.0,21.0,-6.0,-8.0,-7.0,-3.0,-11.0,1651070641449418.0
33.0,-3.0,-21.0,-8.0,-2.0,1.0,3.0,5.0,1651070641450368.0
-1.0,-5.0,-6.0,7.0,0.0,0.0,2.0,6.0,1651070641450368.0
4.0,14.0,3.0,10.0,1.0,-1.0,-1.0,-1.0,1651070641471488.0
-5.0,-9.0,21.0,-7.0,-3.0,-1.0,-1.0,-3.0,1651070641471488.0
-9.0,-21.0,-8.0,-10.0,-6.0,-3.0,-7.0,-7.0,1651070641473416.0
-13.0,-6.0,11.0,-10.0,-1.0,-1.0,-2.0,-11.0,1651070641473416.0
3.0,-16.0,-22.0,-4.0,1.0,1.0,1.0,14.0,1651070641494388.0
10.0,67.0,9.0,7.0,3.0,3.0,1.0,1.0,1651070641494388.0
3.0,1.0,-2.0,6.0,-4.0,-3.0,0.0,-10.0,1651070641495521.0
9.0,-17.0,9.0,-4.0,0.0,-2.0,1.0,15.0,1651070641495521.0
-9.0,2.0,-15.0,-14.0,-4.0,-1.0,-4.0,-6.0,1651070641509399.0
9.0,3.0,14.0,-2.0,4.0,1.0,1.0,5.0,1651070641509399.0
-14.0,0.0,-2.0,13.0,-3.0,-1.0,-3.0,-4.0,1651070641510399.0
-1.0,0.0,-12.0,-15.0,-1.0,1.0,-5.0,-7.0,1651070641510399.0
0.0,-4.0,3.0,10.0,-2.0,0.0,1.0,1.0,1651070641531444.0
5.0,-4.0,-5.0,-7.0,-4.0,-1.0,0.0,1.0,1651070641531444.0
-20.0,-8.0,-12.0,-12.0,-7.0,-7.0,-4.0,-5.0,1651070641533398.0
-2.0,-11.0,-1.0,-11.0,-7.0,-2.0,0.0,-5.0,1651070641533398.0
-4.0,7.0,13.0,14.0,24.0,3.0,0.0,-5.0,1651070641554428.0
36.0,10.0,5.0,5.0,4.0,5.0,6.0,5.0,1651070641554428.0
-2.0,-5.0,-8.0,4.0,6.0,0.0,0.0,10.0,1651070641555406.0
-13.0,11.0,4.0,7.0,-7.0,-3.0,0.0,4.0,1651070641555406.0
-3.0,-4.0,-7.0,-13.0,-13.0,-4.0,-5.0,-1.0,1651070641569402.0
-13.0,-13.0,1.0,3.0,-2.0,-5.0,-4.0,-13.0,1651070641569402.0
-6.0,-39.0,10.0,12.0,-2.0,10.0,2.0,-13.0,1651070641570362.0
11.0,17.0,-8.0,-18.0,4.0,-7.0,1.0,21.0,1651070641570362.0
7.0,8.0,-2.0,16.0,1.0,-1.0,3.0,2.0,1651070641591413.0
1.0,-5.0,-6.0,-4.0,-1.0,0.0,0.0,6.0,1651070641591413.0
-12.0,-9.0,6.0,-11.0,-3.0,-2.0,-3.0,-4.0,1651070641593342.0
4.0,7.0,4.0,9.0,-3.0,1.0,-2.0,-6.0,1651070641593342.0
-2.0,-20.0,-2.0,7.0,-3.0,-1.0,-1.0,-2.0,1651070641613723.0
1.0,8.0,-5.0,-13.0,-3.0,0.0,-1.0,5.0,1651070641613723.0
-4.0,14.0,1.0,2.0,1.0,-2.0,-2.0,-4.0,1651070641615721.0
-4.0,-4.0,0.0,-7.0,-2.0,1.0,-2.0,-5.0,1651070641615721.0
-4.0,1.0,-2.0,-15.0,-7.0,-8.0,-1.0,4.0,1651070641629426.0
21.0,12.0,9.0,24.0,3.0,7.0,5.0,6.0,1651070641629426.0
-4.0,6.0,-3.0,-4.0,13.0,0.0,-1.0,-1.0,1651070641630435.0
-14.0,12.0,-1.0,-3.0,0.0,0.0,-2.0,-6.0,1651070641630435.0
17.0,-23.0,8.0,14.0,-4.0,-3.0,-4.0,4.0,1651070641651682.0
-4.0,4.0,-1.0,-4.0,-4.0,-2.0,2.0,3.0,1651070641651682.0
-1.0,4.0,-5.0,-5.0,-8.0,-2.0,-3.0,-9.0,1651070641652692.0
11.0,-2.0,-4.0,-4.0,-3.0,-1.0,2.0,1.0,1651070641652692.0
5.0,1.0,-8.0,-15.0,-5.0,1.0,2.0,-4.0,1651070641674773.0
-18.0,-2.0,2.0,-4.0,2.0,-2.0,-2.0,-4.0,1651070641674773.0
2.0,1.0,8.0,12.0,6.0,1.0,0.0,5.0,1651070641675773.0
-8.0,-14.0,0.0,12.0,7.0,5.0,-1.0,-1.0,1651070641675773.0
-1.0,16.0,-7.0,-4.0,-2.0,0.0,-4.0,-15.0,1651070641687807.0
30.0,9.0,-1.0,-4.0,0.0,0.0,9.0,31.0,1651070641687807.0
-1.0,13.0,2.0,6.0,-2.0,-4.0,1.0,0.0,1651070641694789.0
1.0,2.0,3.0,-2.0,0.0,0.0,-3.0,0.0,1651070641694789.0
-14.0,-2.0,2.0,13.0,2.0,2.0,0.0,-7.0,1651070641711682.0
-20.0,-13.0,-8.0,4.0,-2.0,-1.0,-5.0,-12.0,1651070641711682.0
3.0,7.0,3.0,-26.0,-3.0,2.0,2.0,2.0,1651070641712682.0
8.0,-1.0,-1.0,11.0,1.0,-2.0,0.0,-3.0,1651070641712682.0
-23.0,-15.0,-1.0,-12.0,-3.0,0.0,-4.0,-2.0,1651070641733950.0
16.0,7.0,-1.0,5.0,-5.0,-5.0,-3.0,-12.0,1651070641733950.0
6.0,0.0,9.0,10.0,-1.0,1.0,2.0,17.0,1651070641735974.0
1.0,0.0,4.0,4.0,10.0,5.0,2.0,-2.0,1651070641735974.0
7.0,-5.0,-8.0,-13.0,-2.0,-2.0,0.0,3.0,1651070641747673.0
-25.0,-11.0,1.0,-1.0,-4.0,-3.0,-5.0,-3.0,1651070641747673.0
3.0,2.0,-2.0,10.0,-2.0,-1.0,-1.0,-5.0,1651070641756597.0
2.0,2.0,-1.0,-2.0,-4.0,-1.0,-1.0,1.0,1651070641756597.0
3.0,2.0,-8.0,-9.0,-2.0,0.0,0.0,4.0,1651070641771772.0
-4.0,-5.0,2.0,-5.0,1.0,-1.0,-5.0,-5.0,1651070641771772.0
2.0,-3.0,-7.0,-11.0,-3.0,-2.0,-3.0,-4.0,1651070641772702.0
2.0,2.0,4.0,22.0,0.0,1.0,1.0,2.0,1651070641772702.0
2.0,0.0,-1.0,-15.0,3.0,2.0,4.0,2.0,1651070641793595.0
-1.0,3.0,2.0,-2.0,-1.0,-1.0,2.0,-1.0,1651070641793595.0
4.0,3.0,2.0,-10.0,-2.0,1.0,2.0,1.0,1651070641795590.0
-11.0,-13.0,-4.0,18.0,-4.0,-3.0,-1.0,-3.0,1651070641795590.0
2.0,5.0,1.0,-8.0,3.0,-1.0,0.0,-2.0,1651070641808621.0
-3.0,-3.0,-8.0,3.0,-2.0,-1.0,0.0,0.0,1651070641808621.0
0.0,-3.0,0.0,11.0,3.0,0.0,-1.0,-1.0,1651070641814605.0
3.0,-1.0,2.0,-9.0,0.0,-1.0,-1.0,0.0,1651070641814605.0
-1.0,-9.0,-4.0,17.0,-2.0,1.0,0.0,2.0,1651070641831361.0
-14.0,-3.0,5.0,-21.0,-2.0,-2.0,-3.0,-2.0,1651070641831361.0
9.0,-1.0,1.0,9.0,-1.0,1.0,1.0,-2.0,1651070641833356.0
2.0,-2.0,-6.0,-1.0,2.0,-1.0,1.0,0.0,1651070641833356.0
-1.0,3.0,4.0,8.0,2.0,-2.0,-1.0,2.0,1651070641853647.0
-2.0,-4.0,8.0,-10.0,2.0,2.0,0.0,0.0,1651070641853647.0
-7.0,-3.0,-10.0,-1.0,-7.0,-5.0,-3.0,-3.0,1651070641855614.0
-1.0,1.0,-5.0,-18.0,-4.0,-3.0,0.0,0.0,1651070641855614.0
3.0,5.0,11.0,16.0,1.0,1.0,3.0,0.0,1651070641876654.0
2.0,5.0,6.0,6.0,5.0,2.0,-1.0,-3.0,1651070641876654.0
-6.0,-4.0,-5.0,4.0,2.0,0.0,-2.0,-1.0,1651070641877674.0
9.0,5.0,5.0,-2.0,1.0,0.0,-2.0,-1.0,1651070641877674.0
-3.0,-9.0,-14.0,-6.0,-4.0,-1.0,-1.0,-1.0,1651070641891685.0
2.0,5.0,4.0,8.0,-2.0,-3.0,0.0,0.0,1651070641891685.0
4.0,5.0,7.0,-23.0,4.0,5.0,3.0,0.0,1651070641892684.0
3.0,1.0,-14.0,-23.0,-10.0,-3.0,-2.0,0.0,1651070641892684.0
-16.0,-9.0,4.0,25.0,-7.0,-5.0,-4.0,-2.0,1651070641914339.0
1.0,0.0,11.0,13.0,8.0,2.0,-1.0,0.0,1651070641914339.0
3.0,0.0,-5.0,14.0,-6.0,-4.0,-1.0,0.0,1651070641915310.0
-7.0,-2.0,-12.0,-29.0,3.0,-2.0,-1.0,-3.0,1651070641915310.0
2.0,-4.0,6.0,-4.0,1.0,2.0,0.0,1.0,1651070641927281.0
3.0,0.0,-17.0,22.0,-5.0,-1.0,0.0,0.0,1651070641927281.0
-3.0,-4.0,9.0,-7.0,-3.0,0.0,2.0,0.0,1651070641936284.0
2.0,9.0,4.0,10.0,0.0,0.0,-1.0,-2.0,1651070641936284.0
0.0,-3.0,-11.0,-24.0,-2.0,0.0,-1.0,-1.0,1651070641952338.0
2.0,0.0,-3.0,-4.0,2.0,0.0,-2.0,-2.0,1651070641952338.0
0.0,4.0,17.0,30.0,16.0,5.0,1.0,1.0,1651070641953343.0
0.0,1.0,-1.0,9.0,4.0,0.0,2.0,1.0,1651070641953343.0
3.0,0.0,2.0,18.0,21.0,5.0,1.0,0.0,1651070641974337.0
0.0,-1.0,-19.0,-48.0,-16.0,-2.0,-1.0,0.0,1651070641974337.0
-7.0,0.0,-1.0,-8.0,-7.0,-2.0,-3.0,-2.0,1651070641975524.0
0.0,-7.0,-8.0,10.0,-6.0,-1.0,-3.0,-2.0,1651070641975524.0
3.0,12.0,5.0,-14.0,1.0,0.0,2.0,2.0,1651070641987683.0
1.0,-6.0,-2.0,5.0,-14.0,-5.0,-1.0,-2.0,1651070641987683.0
-2.0,5.0,9.0,0.0,0.0,-1.0,-1.0,-2.0,1651070641996372.0
-2.0,5.0,16.0,14.0,4.0,4.0,1.0,1.0,1651070641996372.0
1.0,-5.0,6.0,17.0,3.0,0.0,-1.0,0.0,1651070642011416.0
8.0,2.0,-3.0,-15.0,12.0,7.0,3.0,2.0,1651070642011416.0
-1.0,-2.0,-2.0,-15.0,-2.0,-1.0,-2.0,-2.0,1651070642013371.0
-4.0,-9.0,-4.0,6.0,-8.0,-5.0,-2.0,-2.0,1651070642013371.0
-1.0,1.0,-13.0,-18.0,-1.0,-3.0,-3.0,-1.0,1651070642034362.0
6.0,6.0,19.0,3.0,-7.0,-6.0,-3.0,1.0,1651070642034362.0
-10.0,-6.0,-8.0,13.0,-2.0,-2.0,-1.0,-1.0,1651070642035294.0
1.0,-1.0,0.0,-34.0,0.0,2.0,-1.0,-2.0,1651070642035294.0
3.0,5.0,6.0,21.0,-5.0,0.0,1.0,-2.0,1651070642047325.0
-4.0,-6.0,-11.0,1.0,0.0,1.0,0.0,-1.0,1651070642047325.0
1.0,1.0,-1.0,-9.0,-1.0,-2.0,-2.0,0.0,1651070642056370.0
-2.0,-1.0,5.0,16.0,-3.0,-4.0,0.0,-1.0,1651070642056370.0
-2.0,-5.0,-6.0,-10.0,-1.0,1.0,0.0,0.0,1651070642071381.0
-4.0,4.0,-6.0,-11.0,7.0,2.0,-1.0,-2.0,1651070642071381.0
-4.0,-9.0,-5.0,7.0,2.0,-2.0,-1.0,-1.0,1651070642073332.0
-1.0,0.0,1.0,-13.0,-7.0,-2.0,-2.0,0.0,1651070642073332.0
1.0,4.0,4.0,7.0,-16.0,-7.0,-3.0,-3.0,1651070642094379.0
-3.0,-7.0,-15.0,-15.0,-11.0,-1.0,2.0,0.0,1651070642094379.0
2.0,1.0,-21.0,-8.0,12.0,1.0,2.0,0.0,1651070642095376.0
1.0,2.0,10.0,22.0,15.0,3.0,1.0,2.0,1651070642095376.0
0.0,7.0,3.0,3.0,-3.0,0.0,-1.0,-2.0,1651070642107405.0
-6.0,-6.0,12.0,9.0,4.0,0.0,-2.0,-1.0,1651070642107405.0
1.0,1.0,-10.0,-18.0,-12.0,-2.0,0.0,0.0,1651070642116329.0
0.0,4.0,4.0,7.0,-3.0,1.0,0.0,2.0,1651070642116329.0
-3.0,-8.0,-4.0,-24.0,0.0,1.0,1.0,-1.0,1651070642131472.0
-2.0,-2.0,3.0,7.0,-3.0,-5.0,-2.0,-1.0,1651070642131472.0
1.0,3.0,7.0,4.0,-1.0,-1.0,-1.0,0.0,1651070642133401.0
0.0,1.0,1.0,3.0,1.0,1.0,0.0,1.0,1651070642133401.0
-2.0,-3.0,-6.0,-10.0,-5.0,-1.0,-3.0,-1.0,1651070642153585.0
-3.0,0.0,1.0,17.0,8.0,0.0,-3.0,-3.0,1651070642153585.0
3.0,1.0,6.0,16.0,0.0,5.0,1.0,2.0,1651070642155562.0
-1.0,0.0,-4.0,-34.0,-6.0,-2.0,0.0,-2.0,1651070642155562.0
0.0,1.0,1.0,-9.0,-9.0,-1.0,-2.0,-1.0,1651070642167598.0
0.0,-3.0,-12.0,-12.0,-5.0,-4.0,1.0,0.0,1651070642167598.0
1.0,4.0,13.0,20.0,4.0,1.0,0.0,0.0,1651070642183629.0
-1.0,-3.0,-15.0,1.0,16.0,3.0,0.0,0.0,1651070642183629.0
0.0,2.0,2.0,8.0,-2.0,-2.0,0.0,0.0,1651070642191682.0
0.0,0.0,5.0,-12.0,2.0,-1.0,-2.0,-2.0,1651070642191682.0
-1.0,-1.0,-9.0,-23.0,-11.0,-1.0,1.0,0.0,1651070642192682.0
-3.0,-7.0,-4.0,10.0,-11.0,-6.0,-2.0,-1.0,1651070642192682.0
0.0,0.0,-3.0,2.0,6.0,0.0,0.0,0.0,1651070642214387.0
2.0,8.0,19.0,10.0,-5.0,2.0,-1.0,0.0,1651070642214387.0
-3.0,-12.0,-16.0,1.0,-5.0,-8.0,-4.0,-3.0,1651070642215358.0
-2.0,-3.0,1.0,-4.0,4.0,2.0,0.0,-1.0,1651070642215358.0
0.0,2.0,8.0,6.0,9.0,0.0,1.0,0.0,1651070642228604.0
-1.0,-2.0,-3.0,-3.0,0.0,2.0,2.0,0.0,1651070642228604.0
-2.0,5.0,-16.0,1.0,4.0,2.0,-1.0,0.0,1651070642236601.0
-1.0,-8.0,3.0,0.0,-3.0,-4.0,-1.0,-2.0,1651070642236601.0
-2.0,-5.0,8.0,-8.0,-7.0,-1.0,-1.0,-2.0,1651070642251749.0
-1.0,-3.0,-16.0,-2.0,8.0,4.0,-1.0,-2.0,1651070642251749.0
0.0,-1.0,9.0,-6.0,1.0,2.0,0.0,0.0,1651070642252679.0
-2.0,1.0,1.0,12.0,-1.0,3.0,-1.0,2.0,1651070642252679.0
1.0,4.0,-2.0,-1.0,0.0,0.0,0.0,1.0,1651070642273801.0
0.0,-1.0,-2.0,2.0,0.0,-3.0,-1.0,-2.0,1651070642273801.0
0.0,1.0,9.0,10.0,0.0,-2.0,-2.0,-1.0,1651070642275799.0
1.0,8.0,1.0,-8.0,-14.0,-4.0,-1.0,-2.0,1651070642275799.0
0.0,-15.0,-8.0,-10.0,9.0,6.0,1.0,-1.0,1651070642287833.0
0.0,0.0,3.0,14.0,-3.0,0.0,-1.0,0.0,1651070642287833.0
0.0,-3.0,2.0,11.0,7.0,2.0,2.0,-1.0,1651070642296546.0
-1.0,0.0,10.0,10.0,1.0,-2.0,-1.0,-2.0,1651070642296546.0
-1.0,1.0,-14.0,-23.0,-11.0,-5.0,-1.0,0.0,1651070642311502.0
-1.0,-3.0,-7.0,-2.0,0.0,-1.0,-2.0,-3.0,1651070642311502.0
-1.0,4.0,5.0,-8.0,-4.0,-2.0,0.0,-1.0,1651070642313499.0
0.0,-3.0,-2.0,-2.0,2.0,1.0,-1.0,1.0,1651070642313499.0
-1.0,4.0,6.0,14.0,2.0,0.0,-1.0,-2.0,1651070642332754.0
1.0,-1.0,-3.0,-4.0,-2.0,-1.0,1.0,0.0,1651070642332754.0
-2.0,-2.0,1.0,-2.0,-4.0,-3.0,0.0,1.0,1651070642341960.0
0.0,-2.0,-4.0,-5.0,0.0,-1.0,0.0,-2.0,1651070642341960.0
1.0,5.0,6.0,11.0,8.0,5.0,0.0,2.0,1651070642347989.0
-3.0,-10.0,-22.0,-14.0,-6.0,-1.0,0.0,-1.0,1651070642347989.0
0.0,1.0,10.0,12.0,19.0,7.0,0.0,0.0,1651070642356372.0
0.0,-2.0,-17.0,-10.0,-10.0,-5.0,-2.0,0.0,1651070642356372.0
-2.0,3.0,6.0,-7.0,-5.0,-4.0,-3.0,-1.0,1651070642371323.0
0.0,1.0,7.0,17.0,2.0,0.0,-1.0,-1.0,1651070642371323.0
0.0,2.0,3.0,-5.0,-5.0,-1.0,-1.0,-1.0,1651070642373344.0
-2.0,-1.0,-7.0,-6.0,-1.0,1.0,-1.0,0.0,1651070642373344.0
1.0,1.0,-8.0,-19.0,-4.0,-2.0,1.0,1.0,1651070642393774.0
2.0,6.0,5.0,-12.0,-5.0,0.0,1.0,1.0,1651070642393774.0
-4.0,-11.0,-4.0,22.0,-4.0,-9.0,-4.0,-3.0,1651070642395798.0
0.0,-4.0,8.0,4.0,4.0,6.0,1.0,-1.0,1651070642395798.0
0.0,0.0,4.0,4.0,9.0,2.0,-1.0,-1.0,1651070642407450.0
0.0,3.0,-1.0,-2.0,1.0,0.0,0.0,1.0,1651070642407450.0
1.0,3.0,3.0,-15.0,-1.0,0.0,1.0,-1.0,1651070642416359.0
1.0,-1.0,-1.0,1.0,1.0,-2.0,3.0,0.0,1651070642416359.0
-5.0,-4.0,-9.0,0.0,-5.0,-3.0,-1.0,-2.0,1651070642431417.0
0.0,0.0,6.0,2.0,3.0,2.0,-1.0,1.0,1651070642431417.0
0.0,-1.0,4.0,6.0,-4.0,-2.0,-1.0,-1.0,1651070642433375.0
0.0,3.0,-1.0,-10.0,1.0,-1.0,-2.0,1.0,1651070642433375.0
1.0,-1.0,-4.0,0.0,0.0,-1.0,-1.0,-3.0,1651070642454331.0
0.0,-1.0,2.0,5.0,0.0,-3.0,-2.0,-1.0,1651070642454331.0
0.0,0.0,-6.0,0.0,-4.0,-1.0,-2.0,1.0,1651070642455864.0
-1.0,0.0,3.0,-10.0,-1.0,0.0,0.0,1.0,1651070642455864.0
-1.0,-2.0,-4.0,0.0,0.0,0.0,1.0,-2.0,1651070642476939.0
-2.0,-1.0,11.0,25.0,2.0,-4.0,-2.0,-1.0,1651070642476939.0
0.0,-1.0,-1.0,-9.0,-3.0,-2.0,-2.0,0.0,1651070642477932.0
1.0,2.0,2.0,1.0,6.0,1.0,0.0,0.0,1651070642477932.0
-1.0,-2.0,-6.0,-3.0,3.0,1.0,-1.0,-7.0,1651070642491919.0
-2.0,-4.0,0.0,-8.0,-3.0,-4.0,0.0,3.0,1651070642491919.0
-2.0,4.0,-1.0,18.0,-10.0,-1.0,-1.0,-1.0,1651070642492919.0
0.0,4.0,6.0,-16.0,18.0,4.0,2.0,-1.0,1651070642492919.0
-3.0,-8.0,-6.0,4.0,4.0,7.0,1.0,0.0,1651070642513612.0
1.0,-1.0,-5.0,-1.0,3.0,0.0,2.0,-2.0,1651070642513612.0
1.0,1.0,7.0,4.0,3.0,-1.0,0.0,-1.0,1651070642515540.0
2.0,-2.0,-10.0,-4.0,-18.0,-5.0,0.0,0.0,1651070642515540.0
-1.0,7.0,6.0,-3.0,-3.0,-2.0,1.0,1.0,1651070642536716.0
-1.0,-3.0,-5.0,9.0,7.0,4.0,-1.0,-1.0,1651070642536716.0
0.0,-1.0,-10.0,-14.0,-7.0,-2.0,-1.0,1.0,1651070642537723.0
-3.0,-5.0,9.0,14.0,2.0,0.0,-2.0,-2.0,1651070642537723.0
-1.0,2.0,4.0,-5.0,-7.0,-4.0,0.0,1.0,1651070642551817.0
-1.0,0.0,1.0,-8.0,-4.0,-2.0,-1.0,-2.0,1651070642551817.0
2.0,-1.0,-1.0,-4.0,0.0,-1.0,-1.0,0.0,1651070642552754.0
0.0,-3.0,-5.0,1.0,-5.0,2.0,-1.0,-2.0,1651070642552754.0
-1.0,-1.0,-1.0,4.0,2.0,-2.0,-2.0,1.0,1651070642574494.0
0.0,2.0,1.0,0.0,-3.0,-3.0,-1.0,-2.0,1651070642574494.0
2.0,-1.0,7.0,1.0,9.0,5.0,2.0,-1.0,1651070642575495.0
-3.0,3.0,-6.0,-2.0,-6.0,-1.0,-2.0,-1.0,1651070642575495.0
2.0,-1.0,1.0,2.0,-2.0,-3.0,-1.0,1.0,1651070642596570.0
0.0,-2.0,-1.0,0.0,1.0,3.0,1.0,1.0,1651070642596570.0
-2.0,-2.0,-3.0,-10.0,-2.0,-2.0,-1.0,-1.0,1651070642597568.0
1.0,-1.0,-2.0,1.0,-2.0,-3.0,-1.0,-2.0,1651070642597568.0
0.0,1.0,0.0,4.0,-10.0,-3.0,-1.0,-1.0,1651070642610805.0
-2.0,-4.0,-3.0,-9.0,-1.0,-2.0,-2.0,-6.0,1651070642610805.0
0.0,8.0,13.0,6.0,-12.0,-4.0,2.0,1.0,1651070642617615.0
-3.0,-7.0,-7.0,-9.0,16.0,7.0,0.0,3.0,1651070642617615.0
-1.0,-5.0,-5.0,1.0,4.0,3.0,1.0,-1.0,1651070642634336.0
-1.0,-5.0,-9.0,-2.0,-6.0,-6.0,-3.0,-2.0,1651070642634336.0
0.0,-2.0,-2.0,-20.0,-1.0,0.0,-2.0,-2.0,1651070642635651.0
1.0,3.0,2.0,5.0,-10.0,-6.0,1.0,2.0,1651070642635651.0
0.0,3.0,3.0,5.0,6.0,1.0,-1.0,2.0,1651070642656527.0
0.0,-3.0,-5.0,-5.0,-2.0,1.0,1.0,-1.0,1651070642656527.0
-1.0,0.0,-1.0,4.0,-1.0,0.0,-2.0,-2.0,1651070642658527.0
0.0,-2.0,0.0,4.0,0.0,1.0,-3.0,-1.0,1651070642658527.0
-2.0,5.0,3.0,-14.0,-5.0,-3.0,-1.0,-2.0,1651070642671486.0
2.0,1.0,3.0,22.0,4.0,1.0,2.0,-1.0,1651070642671486.0
-2.0,-3.0,-4.0,-9.0,1.0,-2.0,-2.0,0.0,1651070642677534.0
0.0,-3.0,1.0,13.0,3.0,-1.0,0.0,0.0,1651070642677534.0
0.0,0.0,-2.0,-3.0,-4.0,-1.0,0.0,0.0,1651070642693620.0
-1.0,3.0,4.0,-1.0,-1.0,0.0,0.0,0.0,1651070642693620.0
-2.0,-2.0,-6.0,-4.0,3.0,2.0,2.0,0.0,1651070642695550.0
-1.0,0.0,-5.0,-8.0,-5.0,-1.0,-2.0,-1.0,1651070642695550.0
1.0,-1.0,2.0,7.0,-1.0,-1.0,-2.0,-1.0,1651070642716552.0
-1.0,-1.0,0.0,-3.0,0.0,-1.0,-2.0,0.0,1651070642716552.0
-1.0,-4.0,-3.0,0.0,2.0,-1.0,0.0,-1.0,1651070642718550.0
0.0,-1.0,3.0,3.0,0.0,0.0,0.0,-1.0,1651070642718550.0
0.0,-4.0,-2.0,4.0,-1.0,-2.0,0.0,1.0,1651070642730636.0
-2.0,-1.0,1.0,-4.0,3.0,5.0,0.0,1.0,1651070642730636.0
1.0,2.0,-1.0,-3.0,2.0,2.0,1.0,0.0,1651070642737668.0
-1.0,-4.0,1.0,8.0,3.0,-1.0,-1.0,-2.0,1651070642737668.0
0.0,-3.0,-6.0,-12.0,-8.0,-2.0,-1.0,0.0,1651070642753676.0
-1.0,-1.0,-3.0,-10.0,-3.0,-2.0,-3.0,0.0,1651070642753676.0
0.0,-2.0,3.0,9.0,-1.0,3.0,-1.0,-2.0,1651070642755698.0
0.0,1.0,1.0,9.0,0.0,-3.0,1.0,-1.0,1651070642755698.0
1.0,-1.0,-3.0,-1.0,-3.0,0.0,0.0,-1.0,1651070642775741.0
-2.0,0.0,-1.0,1.0,-8.0,-5.0,-1.0,1.0,1651070642775741.0
-1.0,4.0,-3.0,-6.0,3.0,-3.0,-1.0,0.0,1651070642782722.0
-2.0,-7.0,-4.0,-1.0,-3.0,1.0,2.0,1.0,1651070642782722.0
1.0,5.0,8.0,5.0,5.0,-2.0,-1.0,-1.0,1651070642790701.0
-2.0,-3.0,9.0,-7.0,-3.0,1.0,0.0,1.0,1651070642790701.0
0.0,-3.0,-10.0,0.0,5.0,2.0,0.0,1.0,1651070642797684.0
-2.0,1.0,3.0,0.0,-8.0,-5.0,-3.0,-1.0,1651070642797684.0
-2.0,1.0,-3.0,3.0,1.0,0.0,-1.0,1.0,1651070642814308.0
-1.0,0.0,3.0,-4.0,-2.0,-2.0,-1.0,1.0,1651070642814308.0
0.0,-1.0,3.0,8.0,-4.0,-3.0,0.0,-1.0,1651070642815298.0
0.0,1.0,-2.0,-5.0,3.0,7.0,3.0,0.0,1651070642815298.0
-1.0,-1.0,0.0,-1.0,-1.0,-1.0,1.0,-2.0,1651070642836390.0
0.0,1.0,1.0,3.0,4.0,-1.0,1.0,-2.0,1651070642836390.0
0.0,-4.0,-3.0,-2.0,-1.0,1.0,0.0,2.0,1651070642838357.0
1.0,3.0,3.0,-5.0,-3.0,-3.0,-2.0,0.0,1651070642838357.0
-2.0,-3.0,-5.0,-4.0,-5.0,0.0,-1.0,0.0,1651070642851322.0
1.0,-4.0,-14.0,2.0,4.0,0.0,1.0,0.0,1651070642851322.0
0.0,-2.0,11.0,0.0,-1.0,-1.0,-1.0,-1.0,1651070642865643.0
0.0,5.0,-2.0,-7.0,-3.0,-4.0,-1.0,-1.0,1651070642865643.0
0.0,-1.0,5.0,3.0,0.0,-1.0,0.0,1.0,1651070642874361.0
-1.0,-4.0,-2.0,-3.0,1.0,1.0,-1.0,1.0,1651070642874361.0
0.0,1.0,0.0,-2.0,-1.0,-1.0,-1.0,-1.0,1651070642875295.0
-1.0,-6.0,-9.0,-5.0,2.0,1.0,0.0,2.0,1651070642875295.0
0.0,3.0,12.0,3.0,1.0,-2.0,0.0,1.0,1651070642897391.0
-2.0,-9.0,-18.0,-4.0,-4.0,0.0,-1.0,-2.0,1651070642897391.0
0.0,-1.0,-4.0,11.0,-3.0,1.0,0.0,-1.0,1651070642898389.0
0.0,4.0,13.0,6.0,12.0,-1.0,0.0,0.0,1651070642898389.0
1.0,-2.0,-3.0,2.0,2.0,0.0,-1.0,-1.0,1651070642911236.0
2.0,7.0,18.0,-17.0,-12.0,0.0,2.0,-2.0,1651070642911236.0
-3.0,-9.0,-30.0,-8.0,0.0,-3.0,-2.0,-1.0,1651070642917682.0
-1.0,-4.0,-29.0,-8.0,-4.0,0.0,-1.0,-2.0,1651070642917682.0
1.0,7.0,-1.0,2.0,-7.0,0.0,0.0,0.0,1651070642933767.0
-3.0,-9.0,3.0,8.0,11.0,1.0,0.0,1.0,1651070642933767.0
-1.0,4.0,8.0,-2.0,-7.0,-3.0,-2.0,0.0,1651070642935797.0
-2.0,-4.0,0.0,0.0,-2.0,-1.0,-1.0,-2.0,1651070642935797.0
2.0,2.0,-2.0,-2.0,5.0,0.0,0.0,2.0,1651070642956370.0
0.0,2.0,10.0,12.0,8.0,6.0,-1.0,1.0,1651070642956370.0
0.0,-2.0,3.0,-1.0,-5.0,-2.0,-1.0,2.0,1651070642958382.0
-2.0,0.0,5.0,1.0,3.0,-1.0,-1.0,-1.0,1651070642958382.0
0.0,1.0,-5.0,-7.0,-11.0,-1.0,-2.0,-3.0,1651070642970424.0
-1.0,2.0,-7.0,-2.0,7.0,-2.0,-1.0,-2.0,1651070642970424.0
0.0,0.0,1.0,2.0,1.0,-1.0,1.0,-1.0,1651070642979335.0
2.0,8.0,25.0,2.0,-10.0,-1.0,2.0,1.0,1651070642979335.0
-3.0,-17.0,-34.0,-4.0,8.0,-1.0,-1.0,-1.0,1651070642994386.0
0.0,2.0,-4.0,-10.0,-5.0,-4.0,-3.0,0.0,1651070642994386.0
0.0,3.0,8.0,13.0,0.0,2.0,1.0,-1.0,1651070642995295.0
0.0,1.0,-6.0,-4.0,-3.0,-1.0,0.0,-3.0,1651070642995295.0
0.0,4.0,15.0,-3.0,-5.0,-4.0,0.0,-2.0,1651070643016455.0
2.0,5.0,4.0,5.0,0.0,0.0,0.0,1.0,1651070643016455.0
0.0,-6.0,-4.0,-5.0,9.0,6.0,0.0,-1.0,1651070643018402.0
1.0,2.0,1.0,6.0,0.0,0.0,-3.0,0.0,1651070643018402.0
-1.0,3.0,9.0,-2.0,-1.0,-2.0,-2.0,-1.0,1651070643030462.0
-1.0,1.0,2.0,7.0,-1.0,-5.0,-1.0,0.0,1651070643030462.0
-1.0,-3.0,1.0,-13.0,-9.0,-4.0,1.0,0.0,1651070643039442.0
-1.0,-3.0,-8.0,11.0,3.0,0.0,1.0,0.0,1651070643039442.0
-2.0,-1.0,-2.0,-1.0,2.0,6.0,2.0,-1.0,1651070643053590.0
2.0,2.0,-1.0,-6.0,2.0,-3.0,-1.0,0.0,1651070643053590.0
0.0,4.0,5.0,-2.0,-2.0,-1.0,-3.0,-1.0,1651070643059660.0
-3.0,-10.0,-10.0,-4.0,-7.0,-4.0,-2.0,-1.0,1651070643059660.0
0.0,0.0,0.0,6.0,10.0,4.0,0.0,-1.0,1651070643076604.0
-1.0,-1.0,0.0,8.0,-9.0,-3.0,0.0,-1.0,1651070643076604.0
2.0,3.0,7.0,-9.0,6.0,5.0,1.0,1.0,1651070643077604.0
-1.0,2.0,-4.0,-11.0,-1.0,-1.0,0.0,0.0,1651070643077604.0
-2.0,-11.0,-3.0,-1.0,-1.0,-2.0,-1.0,-3.0,1651070643090546.0
-1.0,6.0,5.0,5.0,-2.0,-3.0,-2.0,-1.0,1651070643090546.0
-3.0,-4.0,-6.0,5.0,-6.0,-4.0,-3.0,-1.0,1651070643099531.0
-1.0,2.0,7.0,4.0,-3.0,-1.0,-2.0,-3.0,1651070643099531.0
0.0,8.0,2.0,-7.0,-2.0,-2.0,0.0,-2.0,1651070643114360.0
1.0,-12.0,-15.0,-3.0,7.0,2.0,0.0,2.0,1651070643114360.0
1.0,0.0,-15.0,-11.0,2.0,2.0,-1.0,0.0,1651070643115292.0
0.0,1.0,15.0,2.0,-2.0,0.0,0.0,0.0,1651070643115292.0
-3.0,-3.0,1.0,-2.0,-4.0,-3.0,-3.0,-2.0,1651070643136306.0
0.0,8.0,-4.0,-1.0,-5.0,1.0,2.0,-2.0,1651070643136306.0
4.0,-1.0,0.0,-7.0,-6.0,-3.0,0.0,1.0,1651070643138260.0
0.0,-7.0,-7.0,4.0,2.0,1.0,0.0,-1.0,1651070643138260.0
1.0,2.0,8.0,15.0,2.0,-1.0,0.0,-2.0,1651070643150268.0
0.0,-2.0,4.0,7.0,10.0,2.0,0.0,-2.0,1651070643150268.0
-5.0,-8.0,-12.0,-5.0,-1.0,-1.0,1.0,-1.0,1651070643159176.0
-3.0,6.0,-5.0,-12.0,-6.0,-4.0,-6.0,-5.0,1651070643159176.0
-1.0,2.0,25.0,0.0,-3.0,-1.0,0.0,5.0,1651070643174275.0
-4.0,-11.0,-22.0,-1.0,-7.0,-1.0,-3.0,-2.0,1651070643174275.0
4.0,-4.0,16.0,17.0,3.0,0.0,-3.0,-2.0,1651070643175282.0
9.0,8.0,-4.0,-8.0,0.0,1.0,1.0,6.0,1651070643175282.0
-3.0,3.0,-31.0,-14.0,-5.0,-1.0,-4.0,-3.0,1651070643196865.0
0.0,20.0,34.0,11.0,7.0,6.0,1.0,1.0,1651070643196865.0
-11.0,-6.0,-3.0,-11.0,4.0,1.0,1.0,-2.0,1651070643197791.0
-1.0,-28.0,-11.0,0.0,-8.0,-6.0,-2.0,0.0,1651070643197791.0
7.0,-12.0,-2.0,7.0,1.0,-1.0,-1.0,0.0,1651070643209898.0
-10.0,14.0,-12.0,-11.0,-5.0,-4.0,-2.0,-3.0,1651070643209898.0
-7.0,-1.0,33.0,19.0,7.0,2.0,-2.0,-5.0,1651070643218812.0
2.0,1.0,-5.0,3.0,4.0,4.0,6.0,6.0,1651070643218812.0
-2.0,-14.0,-8.0,8.0,6.0,4.0,2.0,0.0,1651070643233851.0
8.0,1.0,0.0,-34.0,-15.0,-9.0,-4.0,1.0,1651070643233851.0
9.0,9.0,-8.0,11.0,-1.0,-3.0,-2.0,2.0,1651070643236015.0
-10.0,1.0,-3.0,-4.0,5.0,-1.0,-4.0,-8.0,1651070643236015.0
-27.0,18.0,-2.0,0.0,-5.0,-3.0,-5.0,-13.0,1651070643256960.0
15.0,-29.0,12.0,3.0,-6.0,0.0,1.0,-1.0,1651070643256960.0
15.0,17.0,-24.0,-12.0,6.0,7.0,8.0,12.0,1651070643257947.0
18.0,0.0,-22.0,7.0,-2.0,1.0,5.0,11.0,1651070643257947.0
