,EMG_s0,EMG_s1,EMG_s2,EMG_s3,EMG_s4,EMG_s5,EMG_s6,EMG_s7,timestamp,signal
0,1.0,1.0,0.0,-1.0,-1.0,0.0,0.0,0.0,1651025740679906.0,0
1,1.0,0.0,1.0,0.0,-1.0,-2.0,-1.0,-1.0,1651025740679906.0,0
2,0.0,-2.0,-1.0,-2.0,1.0,0.0,0.0,-2.0,1651025740701912.0,0
3,-2.0,-3.0,-3.0,0.0,3.0,1.0,0.0,-2.0,1651025740701912.0,0
4,0.0,2.0,0.0,-1.0,-1.0,-2.0,-2.0,0.0,1651025740702845.0,0
5,-1.0,7.0,1.0,0.0,14.0,2.0,-1.0,1.0,1651025740702845.0,0
6,-2.0,-10.0,-3.0,-1.0,-22.0,-4.0,0.0,0.0,1651025740716827.0,0
7,-2.0,-2.0,-2.0,1.0,18.0,3.0,0.0,-1.0,1651025740716827.0,0
8,1.0,3.0,-4.0,-3.0,-8.0,-3.0,0.0,-1.0,1651025740716827.0,0
9,-1.0,0.0,4.0,0.0,-5.0,-4.0,1.0,-1.0,1651025740716827.0,0
10,-3.0,-9.0,-2.0,3.0,8.0,3.0,-1.0,-4.0,1651025740738749.0,0
11,0.0,2.0,1.0,1.0,-8.0,-3.0,-1.0,0.0,1651025740738749.0,0
12,0.0,4.0,-1.0,-3.0,-3.0,0.0,-1.0,-1.0,1651025740739746.0,0
13,1.0,-1.0,-3.0,-3.0,2.0,1.0,-2.0,0.0,1651025740739746.0,0
14,-1.0,5.0,-2.0,-3.0,0.0,-3.0,-1.0,0.0,1651025740762751.0,0
15,0.0,4.0,1.0,-2.0,-8.0,-4.0,-2.0,-1.0,1651025740762751.0,0
16,-3.0,-5.0,-1.0,0.0,4.0,1.0,0.0,1.0,1651025740763683.0,0
17,-1.0,1.0,-1.0,0.0,-3.0,-3.0,0.0,0.0,1651025740763683.0,0
18,1.0,3.0,1.0,0.0,6.0,2.0,-1.0,0.0,1651025740776715.0,0
19,0.0,0.0,-1.0,-1.0,-1.0,-2.0,0.0,0.0,1651025740776715.0,0
20,-1.0,4.0,2.0,1.0,-10.0,-4.0,-1.0,-1.0,1651025740777665.0,0
21,-6.0,-15.0,-3.0,-4.0,-7.0,-1.0,-2.0,-1.0,1651025740777665.0,0
22,-1.0,1.0,1.0,5.0,23.0,7.0,-1.0,1.0,1651025740798998.0,0
23,0.0,5.0,-1.0,-1.0,-6.0,-3.0,1.0,0.0,1651025740798998.0,0
24,3.0,0.0,2.0,0.0,-4.0,1.0,0.0,-1.0,1651025740799933.0,0
25,1.0,2.0,-2.0,-4.0,-21.0,-7.0,-2.0,-2.0,1651025740799933.0,0
26,0.0,1.0,0.0,-2.0,7.0,2.0,-1.0,-1.0,1651025740821886.0,0
27,-2.0,-2.0,-1.0,-4.0,-3.0,-2.0,-1.0,0.0,1651025740821886.0,0
28,-1.0,4.0,3.0,3.0,1.0,-1.0,0.0,-1.0,1651025740822881.0,0
29,-3.0,-4.0,-3.0,1.0,-4.0,-3.0,-1.0,-2.0,1651025740822881.0,0
30,-1.0,1.0,-1.0,0.0,2.0,0.0,0.0,-2.0,1651025740835987.0,0
31,1.0,-1.0,-2.0,-3.0,1.0,1.0,1.0,-1.0,1651025740835987.0,0
32,1.0,0.0,-2.0,-4.0,-6.0,-2.0,-1.0,-1.0,1651025740836946.0,0
33,-1.0,-1.0,-1.0,-1.0,4.0,0.0,-1.0,0.0,1651025740836946.0,0
34,1.0,-1.0,1.0,0.0,-9.0,-4.0,-1.0,1.0,1651025740858583.0,0
35,0.0,3.0,1.0,2.0,8.0,-2.0,0.0,0.0,1651025740858583.0,0
36,-4.0,-10.0,-2.0,0.0,-1.0,0.0,-1.0,0.0,1651025740859580.0,0
37,1.0,6.0,0.0,0.0,3.0,4.0,1.0,0.0,1651025740859580.0,0
38,1.0,-8.0,-3.0,-2.0,-3.0,-3.0,0.0,-1.0,1651025740882530.0,0
39,-2.0,-4.0,-1.0,-2.0,-9.0,-3.0,-2.0,-2.0,1651025740882530.0,0
40,-1.0,0.0,-2.0,-1.0,5.0,0.0,0.0,1.0,1651025740882530.0,0
41,-1.0,2.0,0.0,-1.0,0.0,0.0,-2.0,-2.0,1651025740882530.0,0
42,-2.0,3.0,-1.0,-2.0,3.0,-1.0,-1.0,0.0,1651025740896863.0,0
43,1.0,0.0,0.0,2.0,8.0,4.0,0.0,0.0,1651025740896863.0,0
44,0.0,-1.0,1.0,0.0,6.0,5.0,0.0,-1.0,1651025740896863.0,0
45,0.0,-1.0,0.0,2.0,0.0,-1.0,2.0,2.0,1651025740896863.0,0
46,2.0,3.0,-1.0,2.0,-2.0,-3.0,1.0,-1.0,1651025740918809.0,0
47,0.0,-1.0,-2.0,-3.0,-8.0,-3.0,-1.0,-2.0,1651025740918809.0,0
48,-1.0,-4.0,-1.0,-3.0,-15.0,-4.0,-3.0,-2.0,1651025740919805.0,0
49,1.0,-1.0,0.0,0.0,22.0,4.0,0.0,0.0,1651025740919805.0,0
50,-1.0,1.0,1.0,-1.0,-6.0,-1.0,-1.0,0.0,1651025740941745.0,0
51,2.0,5.0,2.0,-2.0,-12.0,-3.0,-1.0,0.0,1651025740941745.0,0
52,-7.0,-19.0,-4.0,2.0,0.0,1.0,-1.0,0.0,1651025740942742.0,0
53,2.0,14.0,3.0,3.0,9.0,0.0,0.0,-1.0,1651025740942742.0,0
54,-3.0,-11.0,-3.0,0.0,-3.0,-2.0,0.0,0.0,1651025740955730.0,0
55,1.0,-3.0,-4.0,-2.0,3.0,1.0,1.0,1.0,1651025740955730.0,0
56,1.0,5.0,-1.0,-3.0,-3.0,-3.0,-2.0,0.0,1651025740963687.0,0
57,0.0,-1.0,-1.0,-3.0,-9.0,-5.0,-3.0,-3.0,1651025740963687.0,0
58,-4.0,-6.0,2.0,1.0,4.0,2.0,0.0,-2.0,1651025740978770.0,0
59,0.0,-2.0,1.0,1.0,10.0,3.0,0.0,0.0,1651025740978770.0,0
60,0.0,4.0,1.0,0.0,12.0,0.0,0.0,-2.0,1651025740979766.0,0
61,1.0,0.0,1.0,-1.0,3.0,2.0,0.0,0.0,1651025740979766.0,0
62,1.0,4.0,-1.0,-3.0,-10.0,-3.0,-2.0,1.0,1651025741002468.0,0
63,-2.0,-7.0,-4.0,-6.0,-11.0,-5.0,-2.0,-2.0,1651025741002468.0,0
64,1.0,5.0,0.0,2.0,16.0,3.0,0.0,-3.0,1651025741002468.0,0
65,-2.0,-4.0,1.0,3.0,2.0,0.0,-1.0,-1.0,1651025741002468.0,0
66,1.0,5.0,2.0,3.0,-1.0,0.0,0.0,0.0,1651025741015500.0,0
67,-2.0,-2.0,-1.0,-1.0,-10.0,-4.0,-1.0,-1.0,1651025741015500.0,0
68,0.0,-1.0,-4.0,-3.0,-3.0,-1.0,-1.0,-1.0,1651025741024413.0,0
69,-1.0,1.0,-1.0,0.0,-4.0,0.0,0.0,0.0,1651025741024413.0,0
70,-3.0,-8.0,-6.0,-3.0,-11.0,-3.0,-1.0,-2.0,1651025741038959.0,0
71,-6.0,-9.0,-3.0,0.0,7.0,0.0,-3.0,-2.0,1651025741038959.0,0
72,2.0,6.0,2.0,2.0,-2.0,1.0,-1.0,0.0,1651025741039930.0,0
73,0.0,-3.0,0.0,-1.0,-5.0,-1.0,0.0,0.0,1651025741039930.0,0
74,0.0,7.0,1.0,-1.0,2.0,1.0,-1.0,-1.0,1651025741062015.0,0
75,1.0,3.0,1.0,-2.0,-2.0,-1.0,1.0,0.0,1651025741062015.0,0
76,1.0,-2.0,-2.0,-3.0,9.0,0.0,-1.0,0.0,1651025741063016.0,0
77,-1.0,-4.0,-1.0,2.0,2.0,4.0,0.0,2.0,1651025741063016.0,0
78,1.0,4.0,1.0,0.0,1.0,0.0,0.0,-1.0,1651025741075607.0,0
79,-2.0,0.0,-2.0,-3.0,-25.0,-6.0,-2.0,-1.0,1651025741075607.0,0
80,-1.0,-2.0,-1.0,1.0,17.0,2.0,2.0,-2.0,1651025741083586.0,0
81,-1.0,-7.0,-2.0,-1.0,-6.0,-6.0,0.0,-1.0,1651025741083586.0,0
82,1.0,6.0,3.0,3.0,13.0,5.0,0.0,-2.0,1651025741098614.0,0
83,0.0,2.0,0.0,1.0,-7.0,-1.0,-1.0,0.0,1651025741098614.0,0
84,-1.0,1.0,-1.0,-3.0,-14.0,-3.0,-1.0,1.0,1651025741099547.0,0
85,0.0,-6.0,-3.0,-6.0,-8.0,-3.0,-2.0,-3.0,1651025741099547.0,0
86,-2.0,-10.0,-3.0,1.0,1.0,-1.0,0.0,-1.0,1651025741122481.0,0
87,2.0,0.0,-1.0,0.0,6.0,2.0,1.0,-1.0,1651025741122481.0,0
88,0.0,-4.0,-1.0,-2.0,-11.0,-2.0,0.0,0.0,1651025741122481.0,0
89,-2.0,1.0,-1.0,-2.0,2.0,-1.0,2.0,0.0,1651025741122481.0,0
90,2.0,2.0,-1.0,-2.0,-10.0,-5.0,-1.0,0.0,1651025741135446.0,0
91,-3.0,-4.0,-1.0,-4.0,3.0,1.0,-1.0,-2.0,1651025741135446.0,0
92,1.0,0.0,0.0,3.0,4.0,-2.0,0.0,0.0,1651025741144284.0,0
93,-1.0,1.0,2.0,7.0,12.0,7.0,0.0,-1.0,1651025741144284.0,0
94,-2.0,-2.0,-1.0,-1.0,-4.0,0.0,2.0,0.0,1651025741159251.0,0
95,1.0,5.0,0.0,-2.0,2.0,0.0,-1.0,1.0,1651025741159251.0,0
96,-1.0,-1.0,-4.0,-7.0,-28.0,-8.0,-2.0,-1.0,1651025741159251.0,0
97,1.0,1.0,-1.0,-2.0,5.0,2.0,-1.0,-1.0,1651025741159251.0,0
98,-2.0,-1.0,-1.0,2.0,7.0,0.0,0.0,0.0,1651025741182192.0,0
99,0.0,3.0,0.0,2.0,5.0,-1.0,0.0,-1.0,1651025741182192.0,0
100,0.0,5.0,3.0,-1.0,-18.0,-5.0,0.0,0.0,1651025741183183.0,0
101,-1.0,-6.0,-1.0,0.0,6.0,3.0,0.0,-1.0,1651025741183183.0,0
102,1.0,7.0,1.0,-2.0,0.0,-1.0,1.0,1.0,1651025741196149.0,0
103,-2.0,-3.0,1.0,1.0,1.0,-2.0,-1.0,0.0,1651025741196149.0,0
104,1.0,7.0,1.0,-1.0,2.0,1.0,0.0,0.0,1651025741204137.0,0
105,-6.0,-7.0,-1.0,-3.0,-13.0,-5.0,-1.0,-1.0,1651025741204137.0,0
106,-1.0,-6.0,-2.0,-5.0,-7.0,2.0,0.0,-1.0,1651025741218931.0,0
107,0.0,2.0,3.0,9.0,18.0,1.0,0.0,2.0,1651025741218931.0,0
108,-1.0,1.0,1.0,3.0,3.0,2.0,0.0,-1.0,1651025741219929.0,0
109,2.0,5.0,-1.0,-2.0,-5.0,0.0,1.0,1.0,1651025741219929.0,0
110,-2.0,1.0,1.0,-3.0,-17.0,-5.0,-2.0,0.0,1651025741241870.0,0
111,-1.0,-5.0,-4.0,-5.0,11.0,3.0,-1.0,-1.0,1651025741241870.0,0
112,1.0,0.0,0.0,1.0,8.0,4.0,0.0,2.0,1651025741242867.0,0
113,-2.0,-2.0,1.0,2.0,-4.0,-5.0,-1.0,-1.0,1651025741242867.0,0
114,-1.0,0.0,-1.0,-3.0,-16.0,-6.0,-2.0,-1.0,1651025741255833.0,0
115,1.0,-3.0,0.0,-2.0,-9.0,-2.0,0.0,0.0,1651025741255833.0,0
116,-1.0,-1.0,0.0,0.0,22.0,6.0,0.0,1.0,1651025741263824.0,0
117,1.0,10.0,2.0,1.0,-8.0,-3.0,-1.0,0.0,1651025741263824.0,0
118,3.0,-2.0,-2.0,2.0,5.0,-1.0,-1.0,-2.0,1651025741278770.0,0
119,-9.0,-9.0,-4.0,-2.0,-14.0,-2.0,-1.0,-3.0,1651025741278770.0,0
120,0.0,0.0,-1.0,-1.0,7.0,-1.0,-1.0,-2.0,1651025741279768.0,0
121,0.0,3.0,0.0,0.0,1.0,2.0,1.0,-1.0,1651025741279768.0,0
122,0.0,-2.0,-1.0,-2.0,7.0,2.0,-1.0,0.0,1651025741301824.0,0
123,3.0,3.0,-1.0,-2.0,-6.0,-2.0,1.0,0.0,1651025741301824.0,0
124,-3.0,0.0,2.0,3.0,-7.0,-2.0,-1.0,-3.0,1651025741302795.0,0
125,0.0,-2.0,1.0,0.0,4.0,0.0,0.0,-2.0,1651025741302795.0,0
126,-1.0,4.0,0.0,0.0,4.0,-1.0,0.0,0.0,1651025741315764.0,0
127,-2.0,-2.0,-1.0,0.0,11.0,5.0,-2.0,-1.0,1651025741315764.0,0
128,-3.0,-5.0,-4.0,-5.0,-8.0,-4.0,-1.0,-1.0,1651025741323742.0,0
129,1.0,1.0,-1.0,-3.0,-7.0,-2.0,-1.0,0.0,1651025741323742.0,0
130,-4.0,-5.0,-1.0,0.0,2.0,1.0,0.0,-1.0,1651025741338978.0,0
131,3.0,4.0,1.0,0.0,-8.0,-2.0,0.0,-2.0,1651025741338978.0,0
132,-1.0,-3.0,-3.0,-1.0,9.0,3.0,0.0,-1.0,1651025741339932.0,0
133,-2.0,-1.0,-2.0,3.0,2.0,0.0,-1.0,-1.0,1651025741339932.0,0
134,0.0,6.0,1.0,-1.0,13.0,2.0,-1.0,-2.0,1651025741361872.0,0
135,1.0,-10.0,-1.0,0.0,-1.0,2.0,0.0,1.0,1651025741361872.0,0
136,2.0,6.0,4.0,2.0,-8.0,-2.0,1.0,-1.0,1651025741362870.0,0
137,-1.0,-7.0,-3.0,-4.0,-8.0,-2.0,-1.0,1.0,1651025741362870.0,0
138,-3.0,-1.0,0.0,0.0,5.0,2.0,-1.0,-1.0,1651025741384874.0,0
139,2.0,6.0,0.0,0.0,0.0,-2.0,1.0,1.0,1651025741384874.0,0
140,0.0,-1.0,-1.0,-4.0,-4.0,0.0,-1.0,2.0,1651025741384874.0,0
141,-2.0,-2.0,-3.0,-2.0,-11.0,-5.0,-1.0,0.0,1651025741384874.0,0
142,-2.0,-1.0,1.0,2.0,9.0,3.0,0.0,-1.0,1651025741398777.0,0
143,1.0,2.0,3.0,2.0,-3.0,0.0,0.0,1.0,1651025741398777.0,0
144,-1.0,4.0,2.0,1.0,1.0,1.0,1.0,0.0,1651025741399771.0,0
145,-3.0,-1.0,-2.0,-2.0,-6.0,-1.0,-1.0,-1.0,1651025741399771.0,0
146,1.0,-2.0,-2.0,-2.0,9.0,-2.0,-3.0,-2.0,1651025741421772.0,0
147,1.0,1.0,2.0,-1.0,-4.0,0.0,0.0,1.0,1651025741421772.0,0
148,-2.0,-4.0,-1.0,0.0,-5.0,-2.0,-2.0,-1.0,1651025741422710.0,0
149,0.0,0.0,-1.0,0.0,-21.0,-5.0,-3.0,0.0,1651025741422710.0,0
150,0.0,0.0,-2.0,0.0,35.0,7.0,0.0,-2.0,1651025741444651.0,0
151,-1.0,-2.0,-2.0,1.0,2.0,-2.0,1.0,0.0,1651025741444651.0,0
152,0.0,-6.0,-3.0,-4.0,-9.0,-4.0,0.0,-1.0,1651025741445650.0,0
153,-1.0,0.0,1.0,1.0,4.0,2.0,2.0,0.0,1651025741445650.0,0
154,0.0,-2.0,-2.0,-1.0,-15.0,-5.0,1.0,0.0,1651025741458678.0,0
155,-2.0,2.0,0.0,-2.0,0.0,1.0,-2.0,-2.0,1651025741458678.0,0
156,-1.0,-6.0,-3.0,-2.0,3.0,1.0,1.0,-1.0,1651025741459625.0,0
157,0.0,-4.0,-1.0,1.0,5.0,-2.0,-1.0,-1.0,1651025741459625.0,0
158,-1.0,3.0,1.0,0.0,-12.0,-1.0,1.0,2.0,1651025741481782.0,0
159,-3.0,1.0,-1.0,-3.0,1.0,-1.0,0.0,-2.0,1651025741481782.0,0
160,2.0,1.0,0.0,5.0,13.0,1.0,-1.0,0.0,1651025741482746.0,0
161,-3.0,0.0,2.0,0.0,5.0,4.0,-1.0,-1.0,1651025741482746.0,0
162,-1.0,-6.0,-2.0,0.0,-6.0,1.0,0.0,2.0,1651025741504687.0,0
163,-1.0,-5.0,-2.0,-1.0,-5.0,-3.0,-2.0,0.0,1651025741504687.0,0
164,2.0,8.0,0.0,-3.0,-7.0,-2.0,-3.0,-1.0,1651025741505617.0,0
165,-1.0,-7.0,-2.0,1.0,11.0,1.0,-1.0,0.0,1651025741505617.0,0
166,0.0,1.0,-1.0,-4.0,-32.0,-8.0,-2.0,-1.0,1651025741518939.0,0
167,-2.0,-3.0,-3.0,0.0,29.0,5.0,-3.0,0.0,1651025741518939.0,0
168,-1.0,-2.0,3.0,4.0,10.0,2.0,1.0,1.0,1651025741519933.0,0
169,2.0,1.0,-1.0,-2.0,-3.0,2.0,2.0,1.0,1651025741519933.0,0
170,0.0,-1.0,-1.0,0.0,-6.0,2.0,1.0,-1.0,1651025741540991.0,0
171,2.0,5.0,-1.0,1.0,-5.0,-4.0,0.0,0.0,1651025741540991.0,0
172,0.0,-3.0,-3.0,1.0,3.0,-1.0,1.0,-1.0,1651025741555955.0,0
173,-3.0,0.0,2.0,-4.0,-3.0,-1.0,-2.0,-3.0,1651025741555955.0,0
174,2.0,-2.0,2.0,1.0,-5.0,-5.0,-2.0,0.0,1651025741564931.0,0
175,-2.0,-1.0,-2.0,-2.0,0.0,4.0,-2.0,-1.0,1651025741564931.0,0
176,-2.0,-8.0,-2.0,-3.0,-6.0,-3.0,-2.0,0.0,1651025741565857.0,0
177,2.0,-6.0,-3.0,0.0,6.0,1.0,1.0,1.0,1651025741565857.0,0
178,1.0,9.0,0.0,0.0,0.0,1.0,0.0,-1.0,1651025741594374.0,0
179,-1.0,-6.0,-1.0,-1.0,-9.0,-5.0,-1.0,-1.0,1651025741594374.0,0
180,1.0,6.0,-3.0,-7.0,-24.0,-6.0,-1.0,-1.0,1651025741596382.0,0
181,3.0,11.0,4.0,4.0,11.0,-2.0,-2.0,0.0,1651025741596382.0,0
182,-9.0,-19.0,1.0,5.0,24.0,8.0,-1.0,-2.0,1651025741600388.0,0
183,1.0,3.0,0.0,-2.0,-25.0,-9.0,0.0,0.0,1651025741600388.0,0
184,0.0,-6.0,-2.0,-3.0,8.0,4.0,0.0,-2.0,1651025741609337.0,0
185,1.0,6.0,8.0,-1.0,-2.0,-1.0,-1.0,2.0,1651025741609337.0,0
186,0.0,6.0,-6.0,-3.0,0.0,-1.0,-1.0,0.0,1651025741624358.0,0
187,-1.0,-5.0,-5.0,5.0,0.0,-3.0,-1.0,0.0,1651025741624358.0,0
188,-2.0,-7.0,-2.0,-3.0,-12.0,-4.0,-2.0,-2.0,1651025741631278.0,0
189,0.0,-1.0,-2.0,-9.0,-3.0,-4.0,-2.0,-3.0,1651025741631278.0,0
190,-4.0,-6.0,29.0,5.0,13.0,2.0,1.0,-2.0,1651025741647424.0,0
191,2.0,4.0,-14.0,1.0,1.0,4.0,0.0,1.0,1651025741647424.0,0
192,1.0,4.0,1.0,2.0,4.0,1.0,0.0,0.0,1651025741648355.0,0
193,1.0,-1.0,-9.0,1.0,-10.0,-2.0,0.0,0.0,1651025741648355.0,0
194,2.0,-8.0,-10.0,-11.0,-26.0,-4.0,0.0,0.0,1651025741661320.0,0
195,-1.0,14.0,7.0,-5.0,27.0,3.0,-1.0,-1.0,1651025741661320.0,0
196,0.0,15.0,31.0,21.0,10.0,5.0,0.0,1.0,1651025741669834.0,0
197,0.0,4.0,-11.0,0.0,-9.0,-6.0,-1.0,0.0,1651025741669834.0,0
198,0.0,0.0,-8.0,-2.0,-14.0,-2.0,-1.0,0.0,1651025741684877.0,0
199,1.0,-3.0,-9.0,-4.0,9.0,2.0,-1.0,2.0,1651025741684877.0,0
200,-1.0,-8.0,-4.0,-2.0,0.0,0.0,4.0,-2.0,1651025741685791.0,0
201,4.0,4.0,16.0,-5.0,-17.0,-6.0,-1.0,-1.0,1651025741685791.0,0
202,-1.0,-1.0,-8.0,-9.0,7.0,-5.0,-4.0,-1.0,1651025741706894.0,0
203,-1.0,6.0,-9.0,-9.0,5.0,6.0,-2.0,-5.0,1651025741706894.0,0
204,7.0,18.0,34.0,2.0,4.0,0.0,2.0,4.0,1651025741708913.0,0
205,2.0,6.0,-2.0,17.0,14.0,2.0,0.0,-1.0,1651025741708913.0,0
206,4.0,-9.0,-29.0,2.0,-12.0,-10.0,-1.0,1.0,1651025741720916.0,0
207,2.0,-4.0,25.0,-7.0,-14.0,-1.0,10.0,-3.0,1651025741720916.0,0
208,-17.0,-12.0,-11.0,-5.0,-3.0,0.0,-16.0,-3.0,1651025741729833.0,0
209,0.0,-1.0,28.0,6.0,7.0,6.0,5.0,1.0,1651025741729833.0,0
210,33.0,41.0,32.0,44.0,19.0,4.0,7.0,14.0,1651025741745143.0,0
211,-21.0,-14.0,-29.0,-29.0,-15.0,-8.0,-20.0,-7.0,1651025741745143.0,1
212,-6.0,-27.0,-65.0,-53.0,-21.0,-2.0,14.0,-4.0,1651025741746032.0,1
213,49.0,-17.0,-44.0,1.0,-1.0,7.0,22.0,9.0,1651025741746032.0,1
214,14.0,4.0,18.0,5.0,7.0,13.0,22.0,16.0,1651025741767502.0,1
215,-65.0,-6.0,53.0,-15.0,-7.0,-16.0,-52.0,-36.0,1651025741767502.0,1
216,4.0,14.0,40.0,103.0,44.0,-12.0,-61.0,-31.0,1651025741768894.0,1
217,60.0,-16.0,-58.0,-35.0,5.0,23.0,67.0,33.0,1651025741768894.0,1
218,-54.0,0.0,-6.0,1.0,-18.0,5.0,-19.0,13.0,1651025741780903.0,1
219,83.0,-2.0,14.0,16.0,18.0,-26.0,-29.0,16.0,1651025741780903.0,1
220,9.0,18.0,-14.0,-56.0,-34.0,-15.0,30.0,-9.0,1651025741789815.0,1
221,-40.0,12.0,24.0,29.0,23.0,4.0,31.0,-28.0,1651025741789815.0,1
222,-54.0,-8.0,23.0,50.0,18.0,-9.0,-78.0,-36.0,1651025741803547.0,1
223,-14.0,29.0,-44.0,-20.0,-24.0,3.0,115.0,36.0,1651025741803547.0,1
224,27.0,-71.0,6.0,39.0,23.0,12.0,9.0,-12.0,1651025741810604.0,1
225,-14.0,31.0,-6.0,-67.0,-20.0,20.0,-15.0,48.0,1651025741810604.0,1
226,-50.0,-53.0,-24.0,-37.0,-48.0,-73.0,-54.0,-76.0,1651025741827535.0,1
227,30.0,18.0,-15.0,-23.0,-15.0,27.0,56.0,55.0,1651025741827535.0,1
228,22.0,20.0,-28.0,-30.0,-17.0,-66.0,-86.0,-48.0,1651025741828482.0,1
229,-122.0,41.0,66.0,98.0,56.0,49.0,126.0,-23.0,1651025741828482.0,1
230,37.0,-12.0,6.0,-54.0,12.0,32.0,73.0,19.0,1651025741849951.0,1
231,-21.0,-4.0,-8.0,21.0,6.0,-33.0,-64.0,-44.0,1651025741849951.0,1
232,-3.0,-31.0,-37.0,-51.0,-8.0,50.0,108.0,32.0,1651025741850885.0,1
233,-31.0,-7.0,34.0,54.0,2.0,-32.0,-108.0,-5.0,1651025741850885.0,1
234,-46.0,3.0,-22.0,-59.0,13.0,10.0,35.0,18.0,1651025741871896.0,1
235,75.0,20.0,54.0,115.0,13.0,30.0,38.0,21.0,1651025741871896.0,1
236,11.0,7.0,-10.0,-41.0,-12.0,16.0,2.0,39.0,1651025741873824.0,1
237,-19.0,-3.0,-5.0,-6.0,20.0,-20.0,-92.0,-51.0,1651025741873824.0,1
238,14.0,10.0,33.0,73.0,20.0,-10.0,-30.0,-26.0,1651025741886857.0,1
239,-24.0,-39.0,-52.0,-72.0,-23.0,-19.0,-27.0,1.0,1651025741886857.0,1
240,-21.0,12.0,6.0,-21.0,-16.0,-4.0,50.0,14.0,1651025741888810.0,1
241,38.0,-8.0,-6.0,-8.0,-20.0,-35.0,-57.0,-2.0,1651025741888810.0,1
242,15.0,22.0,-25.0,-26.0,-6.0,42.0,58.0,14.0,1651025741909948.0,1
243,9.0,-10.0,9.0,14.0,19.0,17.0,-15.0,-4.0,1651025741909948.0,1
244,-29.0,10.0,-26.0,-9.0,11.0,1.0,-24.0,19.0,1651025741910890.0,1
245,17.0,-34.0,32.0,0.0,-26.0,-15.0,26.0,-4.0,1651025741910890.0,1
246,31.0,30.0,30.0,48.0,6.0,-36.0,-26.0,18.0,1651025741923854.0,1
247,-6.0,-11.0,-4.0,2.0,16.0,50.0,14.0,-22.0,1651025741923854.0,1
248,10.0,9.0,8.0,-4.0,-8.0,-15.0,29.0,0.0,1651025741930893.0,1
249,-22.0,-17.0,-24.0,-32.0,-14.0,-29.0,-1.0,6.0,1651025741930893.0,1
250,32.0,9.0,-4.0,-18.0,4.0,87.0,12.0,34.0,1651025741946808.0,1
251,-70.0,-9.0,-3.0,-4.0,2.0,-50.0,1.0,-43.0,1651025741946808.0,1
252,-57.0,1.0,-13.0,-7.0,25.0,80.0,2.0,-3.0,1651025741948776.0,1
253,50.0,-39.0,-8.0,-15.0,-17.0,-57.0,-97.0,-44.0,1651025741948776.0,1
254,16.0,23.0,0.0,-11.0,-14.0,-19.0,53.0,12.0,1651025741969920.0,1
255,27.0,3.0,-13.0,-3.0,-4.0,5.0,12.0,23.0,1651025741969920.0,1
256,-53.0,11.0,56.0,74.0,23.0,3.0,-8.0,-9.0,1651025741970853.0,1
257,-70.0,-2.0,-17.0,-25.0,-15.0,-11.0,30.0,12.0,1651025741970853.0,1
258,77.0,-39.0,-21.0,-8.0,-7.0,-6.0,-54.0,-17.0,1651025741983899.0,1
259,-17.0,-1.0,2.0,-29.0,-6.0,1.0,37.0,3.0,1651025741983899.0,1
260,33.0,12.0,-7.0,-12.0,-1.0,10.0,-36.0,10.0,1651025741990884.0,1
261,32.0,17.0,-3.0,24.0,12.0,-4.0,38.0,1.0,1651025741990884.0,1
262,-32.0,-36.0,-20.0,-28.0,-18.0,-19.0,11.0,-17.0,1651025742006998.0,1
263,13.0,5.0,-11.0,-23.0,-9.0,-19.0,-33.0,12.0,1651025742006998.0,1
264,2.0,8.0,34.0,51.0,29.0,26.0,67.0,-2.0,1651025742008985.0,1
265,15.0,-10.0,-2.0,-15.0,-10.0,25.0,33.0,13.0,1651025742008985.0,1
266,-35.0,3.0,-17.0,-13.0,-1.0,-20.0,-53.0,-18.0,1651025742036670.0,1
267,2.0,7.0,11.0,38.0,-5.0,-11.0,-4.0,-11.0,1651025742036670.0,1
268,72.0,23.0,-10.0,-21.0,-21.0,-16.0,11.0,15.0,1651025742038668.0,1
269,-13.0,-33.0,3.0,16.0,46.0,78.0,-11.0,25.0,1651025742038668.0,1
270,-5.0,7.0,-19.0,-32.0,-15.0,-32.0,-1.0,-20.0,1651025742043659.0,1
271,-1.0,3.0,48.0,66.0,13.0,15.0,12.0,9.0,1651025742043659.0,1
272,-3.0,-11.0,-18.0,-29.0,-18.0,-44.0,-69.0,-21.0,1651025742050635.0,1
273,15.0,28.0,8.0,21.0,9.0,-4.0,13.0,11.0,1651025742050635.0,1
274,-23.0,-1.0,14.0,15.0,21.0,31.0,62.0,17.0,1651025742066838.0,1
275,10.0,-7.0,-45.0,-72.0,-25.0,-5.0,-43.0,1.0,1651025742066838.0,1
276,-7.0,1.0,24.0,45.0,28.0,-3.0,15.0,4.0,1651025742068766.0,1
277,27.0,23.0,6.0,-34.0,-19.0,14.0,37.0,-4.0,1651025742068766.0,1
278,-12.0,-3.0,-10.0,-18.0,-3.0,0.0,4.0,10.0,1651025742089601.0,1
279,-27.0,7.0,11.0,3.0,-1.0,-16.0,-51.0,-11.0,1651025742089601.0,1
280,-11.0,-8.0,-16.0,-17.0,-24.0,-15.0,48.0,-9.0,1651025742091525.0,1
281,-44.0,-13.0,-30.0,-39.0,-6.0,-6.0,-74.0,-19.0,1651025742091525.0,1
282,74.0,9.0,26.0,61.0,22.0,-35.0,-3.0,13.0,1651025742104380.0,1
283,-43.0,15.0,-15.0,-41.0,-1.0,54.0,48.0,-3.0,1651025742104380.0,1
284,9.0,2.0,-2.0,-4.0,-3.0,-5.0,-39.0,3.0,1651025742110891.0,1
285,-26.0,-22.0,-1.0,-3.0,-12.0,-3.0,25.0,-19.0,1651025742110891.0,1
286,-9.0,9.0,-4.0,-41.0,-10.0,9.0,3.0,4.0,1651025742126848.0,1
287,-15.0,-14.0,1.0,16.0,15.0,1.0,16.0,10.0,1651025742126848.0,1
288,13.0,5.0,35.0,51.0,14.0,-20.0,-28.0,-12.0,1651025742128776.0,1
289,9.0,9.0,0.0,-1.0,-5.0,2.0,37.0,21.0,1651025742128776.0,1
290,27.0,7.0,-27.0,-36.0,-19.0,-9.0,-18.0,-8.0,1651025742149724.0,1
291,-24.0,-3.0,16.0,24.0,-3.0,9.0,36.0,12.0,1651025742149724.0,1
292,26.0,-27.0,-37.0,-64.0,-29.0,-5.0,-22.0,-11.0,1651025742150718.0,1
293,-31.0,8.0,-9.0,-6.0,3.0,-14.0,-21.0,-13.0,1651025742150718.0,1
294,-25.0,1.0,25.0,35.0,12.0,8.0,18.0,-5.0,1651025742163683.0,1
295,66.0,22.0,-3.0,-22.0,-1.0,7.0,39.0,16.0,1651025742163683.0,1
296,-24.0,3.0,-9.0,-11.0,-9.0,-9.0,-36.0,14.0,1651025742170738.0,1
297,51.0,-2.0,25.0,51.0,8.0,-15.0,-14.0,-4.0,1651025742170738.0,1
298,-23.0,-2.0,-6.0,-7.0,-7.0,29.0,32.0,22.0,1651025742186668.0,1
299,-2.0,7.0,20.0,21.0,12.0,-5.0,-27.0,-31.0,1651025742186668.0,1
300,-25.0,-13.0,-26.0,-35.0,-9.0,39.0,124.0,20.0,1651025742188664.0,1
301,-31.0,15.0,-16.0,-31.0,-21.0,-29.0,-88.0,-43.0,1651025742188664.0,1
302,57.0,-4.0,-8.0,-27.0,8.0,7.0,44.0,19.0,1651025742209607.0,1
303,32.0,-4.0,3.0,39.0,23.0,-6.0,5.0,33.0,1651025742209607.0,1
304,-23.0,-29.0,44.0,53.0,12.0,-17.0,-30.0,-38.0,1651025742211602.0,1
305,7.0,-2.0,-28.0,8.0,9.0,22.0,60.0,19.0,1651025742211602.0,1
306,-28.0,-2.0,9.0,4.0,-19.0,-14.0,-61.0,-26.0,1651025742224567.0,1
307,16.0,-9.0,-11.0,-38.0,-2.0,-6.0,13.0,11.0,1651025742224567.0,1
308,-9.0,0.0,3.0,15.0,7.0,14.0,5.0,8.0,1651025742230579.0,1
309,-20.0,0.0,-4.0,-4.0,2.0,16.0,40.0,12.0,1651025742230579.0,1
310,-4.0,15.0,-17.0,-31.0,-17.0,-20.0,-26.0,5.0,1651025742248503.0,1
311,-2.0,-42.0,3.0,16.0,-11.0,-13.0,-32.0,-27.0,1651025742248503.0,1
312,-31.0,16.0,0.0,7.0,-4.0,-25.0,-32.0,-4.0,1651025742250497.0,1
313,34.0,-6.0,-1.0,-28.0,-5.0,26.0,9.0,0.0,1651025742250497.0,1
314,-38.0,-18.0,-1.0,33.0,17.0,11.0,31.0,-9.0,1651025742269510.0,1
315,-24.0,9.0,2.0,-5.0,-4.0,-8.0,-63.0,-2.0,1651025742269510.0,1
316,32.0,11.0,-2.0,-9.0,-1.0,-11.0,-58.0,-10.0,1651025742271469.0,1
317,40.0,-5.0,14.0,20.0,3.0,-1.0,61.0,24.0,1651025742271469.0,1
318,-1.0,-7.0,-18.0,-23.0,-2.0,-8.0,-20.0,-3.0,1651025742284434.0,1
319,0.0,8.0,12.0,38.0,0.0,18.0,58.0,9.0,1651025742284434.0,1
320,14.0,5.0,-13.0,-26.0,-2.0,-16.0,-55.0,-3.0,1651025742290458.0,1
321,5.0,5.0,-35.0,-72.0,-5.0,12.0,16.0,3.0,1651025742290458.0,1
322,-13.0,7.0,50.0,64.0,1.0,3.0,17.0,10.0,1651025742307474.0,1
323,-24.0,13.0,10.0,26.0,18.0,-12.0,-36.0,-22.0,1651025742307474.0,1
324,32.0,-18.0,-34.0,-72.0,-20.0,11.0,37.0,15.0,1651025742308474.0,1
325,4.0,-4.0,12.0,83.0,30.0,-6.0,-5.0,-3.0,1651025742308474.0,1
326,-24.0,-2.0,5.0,9.0,8.0,27.0,43.0,20.0,1651025742329496.0,1
327,-63.0,-12.0,-16.0,-60.0,-38.0,-38.0,-60.0,-44.0,1651025742329496.0,1
328,3.0,-9.0,15.0,38.0,5.0,-5.0,13.0,-14.0,1651025742331492.0,1
329,-4.0,8.0,-4.0,-25.0,0.0,0.0,-7.0,2.0,1651025742331492.0,1
330,-32.0,-7.0,-34.0,-36.0,-11.0,-22.0,13.0,-29.0,1651025742343503.0,1
331,3.0,4.0,7.0,21.0,2.0,7.0,-45.0,12.0,1651025742343503.0,1
332,45.0,15.0,-4.0,-15.0,-2.0,34.0,4.0,20.0,1651025742352482.0,1
333,-10.0,-14.0,15.0,6.0,-16.0,-17.0,55.0,23.0,1651025742352482.0,1
334,-37.0,8.0,12.0,21.0,23.0,17.0,-86.0,-28.0,1651025742367609.0,1
335,17.0,-44.0,-21.0,-40.0,-10.0,-17.0,16.0,-27.0,1651025742367609.0,1
336,-12.0,0.0,-2.0,3.0,3.0,2.0,31.0,3.0,1651025742368606.0,1
337,26.0,36.0,44.0,23.0,15.0,-1.0,-23.0,27.0,1651025742368606.0,1
338,68.0,-1.0,-14.0,-13.0,2.0,15.0,48.0,22.0,1651025742389940.0,1
339,-13.0,-16.0,-28.0,-28.0,-28.0,-26.0,-39.0,-8.0,1651025742389940.0,1
340,-11.0,14.0,39.0,48.0,-5.0,-5.0,3.0,-9.0,1651025742390881.0,1
341,-1.0,2.0,1.0,-9.0,17.0,19.0,36.0,2.0,1651025742390881.0,1
342,-10.0,-5.0,4.0,13.0,9.0,-19.0,-36.0,-6.0,1651025742402905.0,1
343,-18.0,-2.0,-24.0,-48.0,-12.0,44.0,84.0,34.0,1651025742402905.0,1
344,6.0,13.0,-15.0,-24.0,-16.0,-33.0,-59.0,-18.0,1651025742411875.0,1
345,-23.0,6.0,17.0,35.0,-12.0,-1.0,76.0,8.0,1651025742411875.0,1
346,44.0,-7.0,2.0,-13.0,-1.0,-14.0,-122.0,-28.0,1651025742426882.0,1
347,-32.0,18.0,-2.0,-9.0,-2.0,0.0,73.0,-13.0,1651025742426882.0,1
348,-44.0,-7.0,4.0,4.0,-10.0,-53.0,25.0,0.0,1651025742428808.0,1
349,16.0,-14.0,-22.0,-17.0,23.0,74.0,-33.0,-6.0,1651025742428808.0,1
350,-37.0,-18.0,-15.0,-19.0,-12.0,8.0,-7.0,-16.0,1651025742449779.0,1
351,47.0,44.0,30.0,52.0,20.0,-10.0,-42.0,1.0,1651025742449779.0,1
352,4.0,-47.0,-16.0,-21.0,15.0,63.0,83.0,28.0,1651025742450777.0,1
353,-13.0,4.0,-3.0,-57.0,-50.0,-68.0,-113.0,-37.0,1651025742450777.0,1
354,-4.0,0.0,12.0,88.0,33.0,22.0,72.0,23.0,1651025742462781.0,1
355,21.0,-4.0,15.0,7.0,35.0,-8.0,-53.0,-13.0,1651025742462781.0,1
356,28.0,3.0,16.0,34.0,5.0,-3.0,22.0,12.0,1651025742472702.0,1
357,-41.0,-5.0,-9.0,31.0,-4.0,0.0,20.0,14.0,1651025742472702.0,1
358,-9.0,-35.0,-44.0,-99.0,-36.0,-18.0,-66.0,-34.0,1651025742486714.0,1
359,-18.0,22.0,58.0,68.0,21.0,12.0,102.0,19.0,1651025742486714.0,1
360,-52.0,3.0,-8.0,-10.0,-29.0,-30.0,-94.0,-19.0,1651025742488647.0,1
361,65.0,-31.0,-20.0,-18.0,17.0,12.0,-23.0,-8.0,1651025742488647.0,1
362,42.0,16.0,7.0,-9.0,-18.0,-36.0,16.0,14.0,1651025742508901.0,1
363,40.0,-6.0,-36.0,-44.0,-8.0,-9.0,45.0,16.0,1651025742508901.0,1
364,-32.0,3.0,-2.0,-23.0,4.0,55.0,11.0,-4.0,1651025742516890.0,1
365,19.0,6.0,8.0,19.0,-8.0,5.0,-9.0,16.0,1651025742516890.0,1
366,5.0,5.0,5.0,-4.0,13.0,19.0,-37.0,14.0,1651025742523500.0,1
367,-10.0,-1.0,-40.0,-94.0,-44.0,-10.0,41.0,10.0,1651025742523500.0,1
368,33.0,27.0,71.0,91.0,41.0,5.0,-19.0,9.0,1651025742532479.0,1
369,-10.0,7.0,10.0,52.0,25.0,-6.0,20.0,5.0,1651025742532479.0,1
370,0.0,18.0,22.0,48.0,20.0,-2.0,62.0,13.0,1651025742546618.0,1
371,-29.0,-21.0,20.0,11.0,-4.0,14.0,-42.0,-6.0,1651025742546618.0,1
372,45.0,14.0,-36.0,-66.0,-18.0,-14.0,-26.0,6.0,1651025742548615.0,1
373,-54.0,12.0,13.0,5.0,15.0,2.0,9.0,-20.0,1651025742548615.0,1
374,-1.0,-8.0,21.0,66.0,25.0,-14.0,-21.0,6.0,1651025742569562.0,1
375,-13.0,24.0,20.0,35.0,6.0,4.0,-15.0,-30.0,1651025742569562.0,1
376,-95.0,-29.0,-63.0,-56.0,-40.0,-38.0,-16.0,-7.0,1651025742571553.0,1
377,22.0,-32.0,-26.0,-54.0,-30.0,31.0,29.0,-19.0,1651025742571553.0,1
378,32.0,17.0,0.0,-39.0,-22.0,2.0,-3.0,12.0,1651025742582696.0,1
379,52.0,-10.0,-12.0,13.0,8.0,-84.0,-57.0,5.0,1651025742582696.0,1
380,-71.0,-5.0,-1.0,10.0,22.0,97.0,52.0,-12.0,1651025742592672.0,1
381,30.0,32.0,-37.0,-104.0,-35.0,-40.0,4.0,18.0,1651025742592672.0,1
382,-34.0,-19.0,67.0,79.0,32.0,4.0,-9.0,-22.0,1651025742606701.0,1
383,24.0,25.0,1.0,-46.0,-2.0,16.0,-2.0,7.0,1651025742606701.0,1
384,28.0,6.0,18.0,39.0,-1.0,-51.0,3.0,2.0,1651025742608629.0,1
385,-22.0,-4.0,-15.0,16.0,8.0,-4.0,-19.0,10.0,1651025742608629.0,1
386,-17.0,-26.0,-8.0,-25.0,-15.0,-3.0,-51.0,-29.0,1651025742629898.0,1
387,86.0,0.0,41.0,61.0,17.0,10.0,22.0,33.0,1651025742629898.0,1
388,-66.0,20.0,-19.0,-42.0,9.0,3.0,9.0,-15.0,1651025742630842.0,1
389,67.0,11.0,-4.0,-20.0,-24.0,-9.0,-22.0,13.0,1651025742630842.0,1
390,-10.0,-14.0,-32.0,-70.0,-24.0,-9.0,68.0,4.0,1651025742642796.0,1
391,-38.0,-7.0,-3.0,21.0,8.0,43.0,0.0,-1.0,1651025742642796.0,1
392,78.0,18.0,12.0,2.0,-7.0,-42.0,-38.0,-15.0,1651025742651781.0,1
393,-14.0,-28.0,1.0,-2.0,-1.0,58.0,54.0,29.0,1651025742651781.0,1
394,-9.0,36.0,-12.0,-30.0,-6.0,-38.0,-55.0,-20.0,1651025742666881.0,1
395,21.0,2.0,-40.0,-47.0,-22.0,-11.0,39.0,18.0,1651025742666881.0,1
396,-93.0,15.0,48.0,81.0,45.0,91.0,44.0,2.0,1651025742668808.0,1
397,66.0,-10.0,14.0,-2.0,-11.0,-50.0,-8.0,-3.0,1651025742668808.0,1
398,5.0,-23.0,-16.0,-14.0,-12.0,-4.0,-29.0,-17.0,1651025742689868.0,1
399,30.0,6.0,11.0,29.0,32.0,23.0,-23.0,21.0,1651025742689868.0,1
400,-31.0,-5.0,-11.0,17.0,-4.0,-31.0,55.0,-21.0,1651025742690895.0,1
401,-72.0,15.0,35.0,63.0,-1.0,-8.0,-71.0,-19.0,1651025742690895.0,1
402,-19.0,19.0,-29.0,-61.0,-9.0,18.0,57.0,31.0,1651025742702899.0,1
403,49.0,-39.0,14.0,29.0,-1.0,-19.0,-95.0,-25.0,1651025742702899.0,1
404,17.0,31.0,-35.0,-62.0,-13.0,-16.0,-13.0,39.0,1651025742711814.0,1
405,-45.0,-38.0,29.0,64.0,31.0,5.0,43.0,-24.0,1651025742711814.0,1
406,-46.0,-17.0,-26.0,-29.0,-31.0,-35.0,-38.0,-22.0,1651025742726885.0,1
407,-74.0,-5.0,-21.0,-36.0,-25.0,12.0,2.0,-2.0,1651025742726885.0,1
408,61.0,-19.0,-8.0,-15.0,7.0,39.0,66.0,43.0,1651025742728840.0,1
409,-45.0,59.0,0.0,-21.0,-7.0,-26.0,-34.0,-25.0,1651025742728840.0,1
410,32.0,-22.0,21.0,46.0,20.0,-11.0,-23.0,-23.0,1651025742749927.0,1
411,-93.0,2.0,-24.0,-35.0,2.0,-3.0,30.0,-12.0,1651025742749927.0,1
412,70.0,-10.0,37.0,-3.0,-13.0,-14.0,-40.0,26.0,1651025742750872.0,1
413,-40.0,13.0,-45.0,-57.0,1.0,1.0,45.0,-21.0,1651025742750872.0,1
414,42.0,23.0,16.0,1.0,13.0,8.0,-37.0,15.0,1651025742762892.0,1
415,-41.0,3.0,52.0,60.0,23.0,6.0,3.0,-18.0,1651025742762892.0,1
416,60.0,9.0,-37.0,-63.0,-15.0,-5.0,73.0,29.0,1651025742771868.0,1
417,8.0,-49.0,-8.0,9.0,-7.0,-18.0,-69.0,-29.0,1651025742771868.0,1
418,-7.0,15.0,-15.0,-10.0,0.0,6.0,39.0,6.0,1651025742787505.0,1
419,-28.0,-1.0,-27.0,-46.0,-21.0,21.0,23.0,10.0,1651025742787505.0,1
420,94.0,16.0,-9.0,-6.0,10.0,-2.0,-31.0,26.0,1651025742788799.0,1
421,-27.0,11.0,42.0,55.0,14.0,-14.0,73.0,22.0,1651025742788799.0,1
422,33.0,-23.0,-7.0,-21.0,-23.0,16.0,-62.0,-18.0,1651025742809809.0,1
423,26.0,8.0,-9.0,-1.0,-35.0,-43.0,-9.0,-3.0,1651025742809809.0,1
424,-73.0,-26.0,-11.0,1.0,37.0,8.0,-37.0,-35.0,1651025742810767.0,1
425,111.0,-1.0,-14.0,-64.0,-4.0,29.0,-3.0,14.0,1651025742810767.0,1
426,0.0,-1.0,-49.0,-36.0,-10.0,6.0,94.0,28.0,1651025742831996.0,1
427,-27.0,17.0,57.0,48.0,13.0,10.0,-13.0,-18.0,1651025742831996.0,1
428,44.0,6.0,15.0,-15.0,-2.0,-20.0,-33.0,-7.0,1651025742833923.0,1
429,-24.0,37.0,-1.0,2.0,6.0,5.0,-33.0,2.0,1651025742833923.0,1
430,-24.0,-27.0,14.0,55.0,11.0,-8.0,4.0,-7.0,1651025742847064.0,1
431,20.0,-34.0,-57.0,-81.0,-30.0,-16.0,-20.0,-24.0,1651025742847064.0,1
432,-63.0,-5.0,-16.0,-19.0,-15.0,16.0,84.0,7.0,1651025742849007.0,1
433,-7.0,0.0,4.0,-3.0,-21.0,-36.0,-87.0,-38.0,1651025742849007.0,1
434,0.0,13.0,-32.0,-38.0,8.0,3.0,27.0,6.0,1651025742869766.0,1
435,87.0,23.0,26.0,24.0,11.0,45.0,82.0,58.0,1651025742869766.0,1
436,-37.0,-34.0,41.0,97.0,37.0,-55.0,-107.0,-54.0,1651025742870696.0,1
437,-30.0,-5.0,-1.0,-8.0,-15.0,-7.0,-46.0,6.0,1651025742870696.0,1
438,-39.0,47.0,-4.0,-34.0,-26.0,25.0,36.0,-20.0,1651025742899723.0,1
439,89.0,-50.0,-17.0,7.0,9.0,-57.0,-45.0,-6.0,1651025742899723.0,1
440,-10.0,3.0,10.0,6.0,-6.0,46.0,54.0,-4.0,1651025742900679.0,1
441,-8.0,-17.0,-27.0,-25.0,-1.0,-16.0,3.0,5.0,1651025742900679.0,1
442,-37.0,23.0,49.0,19.0,1.0,-3.0,91.0,5.0,1651025742906665.0,1
443,-39.0,-3.0,-34.0,-64.0,-11.0,21.0,-35.0,-2.0,1651025742906665.0,1
444,-17.0,9.0,-4.0,-20.0,11.0,-14.0,-50.0,-3.0,1651025742913617.0,1
445,-25.0,-5.0,52.0,69.0,12.0,-14.0,-34.0,-25.0,1651025742913617.0,1
446,71.0,14.0,55.0,83.0,30.0,17.0,63.0,44.0,1651025742929672.0,1
447,-60.0,-36.0,2.0,6.0,2.0,12.0,70.0,14.0,1651025742929672.0,1
448,-14.0,-30.0,-40.0,-54.0,-45.0,-23.0,-48.0,-37.0,1651025742931619.0,1
449,-60.0,45.0,-51.0,-114.0,-24.0,36.0,127.0,39.0,1651025742931619.0,1
450,93.0,0.0,18.0,40.0,31.0,-33.0,-103.0,24.0,1651025742952542.0,1
451,0.0,24.0,24.0,39.0,11.0,-44.0,-47.0,-7.0,1651025742952542.0,1
452,39.0,10.0,-5.0,1.0,6.0,67.0,34.0,0.0,1651025742953540.0,1
453,4.0,23.0,4.0,-9.0,6.0,58.0,65.0,18.0,1651025742953540.0,1
454,-108.0,-54.0,-19.0,-10.0,-13.0,-3.0,-87.0,-25.0,1651025742966505.0,1
455,84.0,-3.0,-22.0,-80.0,-18.0,-24.0,-31.0,-39.0,1651025742966505.0,1
456,-55.0,-22.0,-51.0,-66.0,-37.0,-43.0,17.0,-2.0,1651025742973527.0,1
457,68.0,32.0,95.0,109.0,49.0,-4.0,-45.0,3.0,1651025742973527.0,1
458,-34.0,1.0,-19.0,-32.0,-11.0,18.0,84.0,21.0,1651025742989962.0,1
459,1.0,15.0,-35.0,-62.0,6.0,9.0,-31.0,-4.0,1651025742989962.0,1
460,67.0,26.0,17.0,21.0,-5.0,2.0,34.0,10.0,1651025742990894.0,1
461,4.0,-55.0,-32.0,-10.0,-11.0,10.0,-4.0,8.0,1651025742990894.0,1
462,-30.0,-29.0,2.0,-28.0,-3.0,-17.0,18.0,17.0,1651025743019534.0,1
463,20.0,-10.0,13.0,64.0,10.0,8.0,28.0,-3.0,1651025743019534.0,1
464,18.0,40.0,24.0,1.0,2.0,4.0,-30.0,-35.0,1651025743021529.0,1
465,3.0,-7.0,-13.0,-9.0,-2.0,-56.0,-84.0,-24.0,1651025743021529.0,1
466,-64.0,6.0,-13.0,-41.0,-17.0,26.0,30.0,-3.0,1651025743026516.0,1
467,70.0,7.0,-7.0,12.0,-11.0,15.0,-20.0,30.0,1651025743026516.0,1
468,-15.0,-18.0,11.0,-5.0,8.0,-5.0,112.0,23.0,1651025743033522.0,1
469,-7.0,17.0,-2.0,14.0,10.0,6.0,-124.0,-24.0,1651025743033522.0,1
470,15.0,39.0,8.0,-47.0,-20.0,-29.0,23.0,14.0,1651025743049686.0,1
471,-48.0,-14.0,67.0,70.0,71.0,28.0,36.0,-26.0,1651025743049686.0,1
472,6.0,-41.0,-66.0,-78.0,-33.0,-23.0,-25.0,5.0,1651025743051629.0,1
473,2.0,-9.0,81.0,102.0,40.0,14.0,83.0,24.0,1651025743051629.0,1
474,55.0,46.0,-27.0,-36.0,-9.0,4.0,-14.0,5.0,1651025743071694.0,1
475,-74.0,-21.0,-24.0,2.0,-18.0,-2.0,-26.0,-37.0,1651025743071694.0,1
476,-13.0,-15.0,-14.0,-14.0,-18.0,-16.0,-18.0,9.0,1651025743073639.0,1
477,-16.0,-18.0,-54.0,-76.0,-6.0,-13.0,87.0,-1.0,1651025743073639.0,1
478,-34.0,12.0,20.0,43.0,26.0,77.0,69.0,23.0,1651025743086790.0,1
479,-50.0,47.0,-17.0,-45.0,-18.0,-70.0,-85.0,-55.0,1651025743086790.0,1
480,90.0,-12.0,49.0,99.0,19.0,-20.0,79.0,42.0,1651025743092777.0,1
481,-57.0,-52.0,-20.0,-24.0,-28.0,-39.0,-16.0,-29.0,1651025743092777.0,1
482,-42.0,16.0,20.0,26.0,16.0,26.0,25.0,-13.0,1651025743109780.0,1
483,67.0,2.0,-45.0,-50.0,-10.0,59.0,127.0,71.0,1651025743109780.0,1
484,-126.0,-6.0,51.0,12.0,1.0,22.0,-128.0,-64.0,1651025743110777.0,1
485,79.0,36.0,-8.0,-54.0,-10.0,-10.0,30.0,4.0,1651025743110777.0,1
486,0.0,-12.0,-14.0,-3.0,34.0,9.0,54.0,12.0,1651025743131888.0,1
487,51.0,5.0,39.0,50.0,6.0,-30.0,-55.0,-2.0,1651025743131888.0,1
488,-17.0,3.0,-29.0,-37.0,2.0,1.0,12.0,9.0,1651025743133883.0,1
489,3.0,14.0,28.0,45.0,17.0,29.0,29.0,41.0,1651025743133883.0,1
490,12.0,-34.0,-17.0,-43.0,-28.0,-24.0,-49.0,-51.0,1651025743145962.0,1
491,-24.0,56.0,7.0,-2.0,21.0,45.0,67.0,58.0,1651025743145962.0,1
492,-8.0,-10.0,1.0,15.0,5.0,-5.0,-32.0,11.0,1651025743153504.0,1
493,-8.0,-23.0,-30.0,-27.0,-8.0,-4.0,-30.0,-28.0,1651025743153504.0,1
494,33.0,2.0,-10.0,-4.0,-14.0,8.0,92.0,42.0,1651025743168634.0,1
495,-32.0,-23.0,-16.0,-18.0,-15.0,-20.0,-60.0,-35.0,1651025743168634.0,1
496,-74.0,-4.0,-19.0,-24.0,-21.0,-40.0,-100.0,-65.0,1651025743177549.0,1
497,34.0,21.0,30.0,28.0,12.0,24.0,71.0,21.0,1651025743177549.0,1
498,-35.0,-42.0,-37.0,-46.0,-12.0,-19.0,-101.0,-42.0,1651025743192503.0,1
499,-9.0,14.0,0.0,-13.0,-3.0,26.0,101.0,30.0,1651025743192503.0,1
500,-5.0,-5.0,55.0,38.0,47.0,-14.0,-58.0,-2.0,1651025743193500.0,1
501,21.0,-13.0,-76.0,-128.0,-53.0,-24.0,-22.0,-46.0,1651025743193500.0,1
502,3.0,24.0,86.0,127.0,74.0,5.0,-1.0,11.0,1651025743206530.0,1
503,4.0,-12.0,-23.0,-40.0,-5.0,14.0,-6.0,-9.0,1651025743206530.0,1
504,-18.0,1.0,-30.0,-23.0,-10.0,8.0,5.0,4.0,1651025743213493.0,1
505,11.0,17.0,17.0,7.0,0.0,6.0,26.0,29.0,1651025743213493.0,1
506,-52.0,9.0,-32.0,-46.0,-44.0,-33.0,-14.0,-32.0,1651025743229946.0,1
507,52.0,-14.0,46.0,93.0,30.0,11.0,19.0,44.0,1651025743229946.0,1
508,51.0,53.0,11.0,-8.0,-6.0,14.0,66.0,49.0,1651025743230885.0,1
509,-66.0,-49.0,1.0,40.0,26.0,9.0,-11.0,-34.0,1651025743230885.0,1
510,72.0,-8.0,-28.0,-30.0,-20.0,-24.0,65.0,15.0,1651025743252020.0,1
511,-60.0,38.0,6.0,-1.0,-14.0,1.0,-101.0,-28.0,1651025743252020.0,1
512,70.0,11.0,-22.0,-53.0,-19.0,18.0,78.0,24.0,1651025743253968.0,1
513,-34.0,-43.0,-23.0,-44.0,3.0,15.0,-25.0,12.0,1651025743253968.0,1
514,74.0,35.0,33.0,-15.0,-19.0,-79.0,-67.0,14.0,1651025743266913.0,1
515,-30.0,-17.0,21.0,76.0,69.0,10.0,17.0,-37.0,1651025743266913.0,1
516,9.0,-25.0,22.0,63.0,9.0,-3.0,27.0,1.0,1651025743272964.0,1
517,-25.0,28.0,-46.0,-47.0,-17.0,10.0,10.0,8.0,1651025743272964.0,1
518,-5.0,-17.0,25.0,9.0,7.0,11.0,-48.0,-4.0,1651025743289015.0,1
519,-32.0,-8.0,-55.0,-93.0,-50.0,-28.0,-30.0,-6.0,1651025743289015.0,1
520,4.0,6.0,15.0,4.0,-4.0,7.0,-3.0,-15.0,1651025743296002.0,1
521,-48.0,-12.0,-26.0,13.0,-8.0,-18.0,7.0,24.0,1651025743296002.0,1
522,14.0,-16.0,42.0,55.0,14.0,22.0,-5.0,-9.0,1651025743311961.0,1
523,-28.0,-14.0,1.0,-31.0,-23.0,-25.0,-7.0,-11.0,1651025743311961.0,1
524,-18.0,-3.0,-3.0,14.0,28.0,7.0,-17.0,-28.0,1651025743313893.0,1
525,57.0,18.0,26.0,-29.0,-10.0,-28.0,63.0,35.0,1651025743313893.0,1
526,16.0,-33.0,-7.0,-11.0,0.0,67.0,-107.0,13.0,1651025743325985.0,1
527,-21.0,37.0,-13.0,3.0,21.0,44.0,-12.0,-7.0,1651025743325985.0,1
528,24.0,-44.0,13.0,47.0,3.0,-6.0,20.0,11.0,1651025743334893.0,1
529,-36.0,12.0,3.0,-9.0,-14.0,-31.0,-66.0,-43.0,1651025743334893.0,1
530,9.0,26.0,-26.0,-25.0,-2.0,0.0,68.0,27.0,1651025743349881.0,1
531,-19.0,-26.0,12.0,-11.0,-28.0,-44.0,26.0,3.0,1651025743349881.0,1
532,-22.0,13.0,-3.0,-33.0,18.0,43.0,-17.0,3.0,1651025743350851.0,1
533,46.0,10.0,14.0,52.0,19.0,-30.0,-5.0,5.0,1651025743350851.0,1
534,8.0,4.0,-15.0,-15.0,-3.0,75.0,18.0,-7.0,1651025743371863.0,1
535,-5.0,-17.0,-12.0,-9.0,-33.0,-58.0,-27.0,-12.0,1651025743371863.0,1
536,-1.0,12.0,-1.0,-9.0,8.0,-30.0,-4.0,-10.0,1651025743373790.0,1
537,8.0,-5.0,18.0,6.0,4.0,72.0,32.0,37.0,1651025743373790.0,1
538,-10.0,-8.0,-20.0,22.0,27.0,-78.0,15.0,14.0,1651025743385824.0,1
539,3.0,14.0,4.0,-6.0,3.0,65.0,5.0,-17.0,1651025743385824.0,1
540,-9.0,-17.0,-13.0,-14.0,-24.0,-19.0,-7.0,1.0,1651025743394733.0,1
541,10.0,15.0,40.0,6.0,-8.0,-13.0,-15.0,-7.0,1651025743394733.0,1
542,-18.0,-9.0,-17.0,-9.0,7.0,-20.0,-27.0,-25.0,1651025743409932.0,1
543,14.0,11.0,-1.0,-3.0,-6.0,-24.0,7.0,2.0,1651025743409932.0,1
544,11.0,24.0,-5.0,9.0,1.0,-11.0,10.0,12.0,1651025743410930.0,1
545,-4.0,-6.0,23.0,13.0,7.0,3.0,-30.0,-23.0,1651025743410930.0,1
546,-1.0,-37.0,-51.0,-14.0,-24.0,8.0,24.0,13.0,1651025743432525.0,1
547,-26.0,-27.0,-21.0,-27.0,-8.0,-70.0,-20.0,-12.0,1651025743432525.0,1
548,-33.0,-47.0,-21.0,-11.0,11.0,73.0,7.0,-30.0,1651025743433524.0,1
549,25.0,32.0,12.0,-2.0,-1.0,1.0,1.0,16.0,1651025743433524.0,1
550,4.0,17.0,16.0,20.0,14.0,-26.0,-29.0,-21.0,1651025743454495.0,1
551,15.0,-11.0,23.0,16.0,24.0,66.0,27.0,13.0,1651025743454495.0,1
552,-2.0,11.0,-17.0,-1.0,-17.0,-20.0,-8.0,1.0,1651025743456473.0,1
553,-5.0,-33.0,-38.0,-22.0,-12.0,-56.0,-43.0,-10.0,1651025743456473.0,1
554,-11.0,14.0,9.0,-10.0,-14.0,36.0,9.0,-23.0,1651025743469491.0,1
555,11.0,-6.0,-1.0,-1.0,-9.0,3.0,11.0,35.0,1651025743469491.0,1
556,-3.0,33.0,23.0,5.0,-1.0,-15.0,11.0,6.0,1651025743471423.0,1
557,5.0,-7.0,8.0,11.0,27.0,19.0,-1.0,0.0,1651025743471423.0,1
558,7.0,10.0,-3.0,6.0,8.0,-17.0,-5.0,-8.0,1651025743492558.0,1
559,-5.0,13.0,20.0,6.0,1.0,11.0,15.0,9.0,1651025743492558.0,1
560,6.0,8.0,-7.0,-1.0,-6.0,-1.0,3.0,-8.0,1651025743493558.0,1
561,-9.0,-30.0,-38.0,-16.0,-18.0,-6.0,-4.0,-11.0,1651025743493558.0,1
562,-5.0,20.0,10.0,-11.0,-11.0,-9.0,-7.0,-12.0,1651025743505593.0,1
563,11.0,34.0,14.0,5.0,13.0,13.0,25.0,28.0,1651025743505593.0,1
564,6.0,-4.0,11.0,4.0,-12.0,-14.0,11.0,8.0,1651025743514835.0,1
565,-7.0,-75.0,-14.0,2.0,1.0,4.0,-20.0,-26.0,1651025743514835.0,1
566,-19.0,-11.0,20.0,4.0,9.0,7.0,-1.0,-1.0,1651025743537486.0,1
567,11.0,-15.0,-12.0,-3.0,11.0,0.0,-5.0,-29.0,1651025743537486.0,1
568,25.0,79.0,15.0,11.0,4.0,-7.0,-13.0,39.0,1651025743538866.0,1
569,1.0,39.0,12.0,-2.0,-17.0,4.0,9.0,17.0,1651025743538866.0,1
570,1.0,-14.0,-15.0,2.0,2.0,0.0,13.0,12.0,1651025743551898.0,1
571,-11.0,-1.0,-16.0,-13.0,-25.0,-9.0,-9.0,-29.0,1651025743551898.0,1
572,-21.0,-26.0,-10.0,-16.0,3.0,-6.0,1.0,-2.0,1651025743553828.0,1
573,-7.0,-39.0,16.0,20.0,3.0,12.0,16.0,-2.0,1651025743553828.0,1
574,-6.0,14.0,-17.0,-3.0,3.0,-9.0,-27.0,-10.0,1651025743565806.0,1
575,-3.0,-2.0,-2.0,-10.0,2.0,0.0,4.0,23.0,1651025743565806.0,1
576,-2.0,-25.0,-1.0,0.0,-2.0,0.0,0.0,-20.0,1651025743574769.0,1
577,14.0,49.0,6.0,-9.0,-11.0,-6.0,-7.0,-3.0,1651025743574769.0,1
578,0.0,-15.0,-2.0,0.0,0.0,-6.0,12.0,19.0,1651025743589798.0,1
579,3.0,34.0,3.0,6.0,-20.0,-1.0,11.0,-8.0,1651025743589798.0,1
580,-28.0,-78.0,-12.0,-6.0,25.0,-1.0,-8.0,-23.0,1651025743590727.0,1
581,-2.0,21.0,-1.0,2.0,10.0,9.0,13.0,16.0,1651025743590727.0,1
582,-5.0,-43.0,-16.0,-7.0,-15.0,-3.0,-9.0,-16.0,1651025743612050.0,1
583,2.0,-4.0,-5.0,-2.0,13.0,-1.0,-1.0,-7.0,1651025743612050.0,1
584,5.0,41.0,29.0,10.0,-11.0,-6.0,-3.0,-2.0,1651025743614015.0,1
585,4.0,11.0,-14.0,-1.0,6.0,3.0,5.0,7.0,1651025743614015.0,1
586,-22.0,-26.0,-24.0,-19.0,-21.0,-5.0,28.0,-12.0,1651025743626052.0,1
587,18.0,-14.0,4.0,1.0,0.0,0.0,-16.0,28.0,1651025743626052.0,1
588,-8.0,-2.0,-7.0,-8.0,3.0,-10.0,-15.0,6.0,1651025743634960.0,1
589,5.0,-23.0,-1.0,10.0,9.0,5.0,16.0,12.0,1651025743634960.0,1
590,-10.0,-14.0,-10.0,0.0,-6.0,4.0,-3.0,-17.0,1651025743649100.0,1
591,-7.0,-3.0,-8.0,-6.0,0.0,-3.0,-2.0,25.0,1651025743649100.0,1
592,11.0,3.0,3.0,1.0,-22.0,-2.0,-8.0,2.0,1651025743651085.0,1
593,-6.0,10.0,-4.0,-4.0,18.0,-4.0,1.0,6.0,1651025743651085.0,1
594,3.0,-3.0,37.0,9.0,0.0,0.0,-5.0,-4.0,1651025743672097.0,1
595,-3.0,-12.0,-35.0,-6.0,6.0,3.0,0.0,-20.0,1651025743672097.0,1
596,-1.0,-8.0,4.0,1.0,3.0,0.0,13.0,25.0,1651025743674050.0,1
597,-12.0,0.0,-3.0,-5.0,-16.0,-2.0,-11.0,-25.0,1651025743674050.0,1
598,13.0,26.0,31.0,12.0,9.0,3.0,4.0,18.0,1651025743695360.0,1
599,-4.0,8.0,4.0,6.0,4.0,3.0,-5.0,-28.0,1651025743695360.0,1
600,5.0,7.0,-21.0,-13.0,-7.0,0.0,9.0,3.0,1651025743697354.0,1
601,-7.0,-21.0,-9.0,-8.0,-9.0,-3.0,-6.0,-20.0,1651025743697354.0,1
602,14.0,31.0,14.0,5.0,9.0,4.0,-6.0,18.0,1651025743709408.0,1
603,-8.0,4.0,3.0,1.0,-10.0,-5.0,3.0,10.0,1651025743709408.0,1
604,0.0,-15.0,-2.0,1.0,-12.0,-1.0,2.0,-5.0,1651025743715333.0,1
605,-2.0,-36.0,-3.0,12.0,45.0,9.0,1.0,-5.0,1651025743715333.0,1
606,-10.0,28.0,-6.0,-7.0,-4.0,-2.0,-3.0,0.0,1651025743732483.0,1
607,-5.0,-27.0,8.0,4.0,-5.0,0.0,1.0,-4.0,1651025743732483.0,1
608,3.0,27.0,-3.0,-2.0,-4.0,1.0,3.0,-2.0,1651025743733479.0,1
609,11.0,23.0,-5.0,-9.0,-24.0,-4.0,-9.0,-5.0,1651025743733479.0,1
610,-2.0,2.0,10.0,8.0,10.0,2.0,1.0,4.0,1651025743754899.0,1
611,-1.0,-5.0,-5.0,-3.0,7.0,1.0,0.0,-4.0,1651025743754899.0,1
612,-10.0,-45.0,-15.0,-2.0,-12.0,-2.0,-3.0,-4.0,1651025743755905.0,1
613,7.0,31.0,3.0,-3.0,6.0,0.0,2.0,8.0,1651025743755905.0,1
614,10.0,3.0,5.0,2.0,7.0,2.0,0.0,-1.0,1651025743768893.0,1
615,-8.0,-6.0,10.0,5.0,-8.0,-1.0,2.0,3.0,1651025743768893.0,1
616,19.0,38.0,9.0,6.0,18.0,0.0,6.0,9.0,1651025743775846.0,1
617,-20.0,3.0,-15.0,-9.0,-11.0,-4.0,-7.0,-13.0,1651025743775846.0,1
618,22.0,19.0,9.0,4.0,-7.0,-1.0,3.0,8.0,1651025743792542.0,1
619,-16.0,-37.0,1.0,1.0,9.0,4.0,0.0,0.0,1651025743792542.0,1
620,2.0,9.0,-3.0,-1.0,-1.0,-2.0,-2.0,-1.0,1651025743793544.0,1
621,-5.0,-19.0,-5.0,0.0,-4.0,-1.0,-1.0,-1.0,1651025743793544.0,1
622,8.0,28.0,2.0,-2.0,-1.0,-1.0,-5.0,-1.0,1651025743814996.0,1
623,11.0,18.0,2.0,0.0,-14.0,-4.0,0.0,4.0,1651025743814996.0,1
624,-14.0,-19.0,-10.0,0.0,12.0,2.0,-1.0,-6.0,1651025743815944.0,1
625,12.0,38.0,14.0,2.0,4.0,2.0,-3.0,2.0,1651025743815944.0,1
626,-11.0,-7.0,-13.0,-4.0,-12.0,-2.0,0.0,-2.0,1651025743829933.0,1
627,-6.0,-24.0,-6.0,-2.0,1.0,-1.0,-2.0,-4.0,1651025743829933.0,1
628,3.0,8.0,9.0,3.0,-3.0,2.0,1.0,-2.0,1651025743830880.0,1
629,-2.0,-4.0,-10.0,-2.0,-4.0,-1.0,-1.0,3.0,1651025743830880.0,1
630,-5.0,-1.0,5.0,-2.0,-3.0,-4.0,-2.0,-4.0,1651025743851878.0,1
631,-6.0,-18.0,-1.0,0.0,-1.0,2.0,-1.0,0.0,1651025743851878.0,1
632,10.0,15.0,8.0,5.0,6.0,3.0,2.0,1.0,1651025743853827.0,1
633,6.0,6.0,-1.0,-4.0,-28.0,-5.0,1.0,4.0,1651025743853827.0,1
634,-1.0,-30.0,-8.0,-1.0,17.0,2.0,0.0,-1.0,1651025743875751.0,1
635,5.0,28.0,10.0,4.0,4.0,1.0,0.0,0.0,1651025743875751.0,1
636,-9.0,-42.0,-3.0,0.0,0.0,0.0,2.0,1.0,1651025743877742.0,1
637,4.0,62.0,2.0,-1.0,-7.0,-2.0,-2.0,-1.0,1651025743877742.0,1
638,-6.0,-44.0,-10.0,-4.0,-5.0,-3.0,0.0,-1.0,1651025743888779.0,1
639,9.0,-7.0,5.0,-1.0,5.0,5.0,0.0,2.0,1651025743888779.0,1
640,12.0,32.0,8.0,4.0,3.0,0.0,-1.0,2.0,1651025743895761.0,1
641,-19.0,-44.0,-5.0,1.0,2.0,1.0,-2.0,-6.0,1651025743895761.0,1
642,-1.0,-3.0,2.0,0.0,-5.0,-1.0,0.0,1.0,1651025743912484.0,1
643,4.0,25.0,1.0,0.0,-9.0,-3.0,1.0,2.0,1651025743912484.0,1
644,-12.0,-32.0,-15.0,-12.0,-20.0,-9.0,-5.0,-9.0,1651025743913420.0,1
645,-11.0,-26.0,-5.0,2.0,34.0,5.0,-3.0,-2.0,1651025743913420.0,1
646,13.0,29.0,10.0,7.0,-1.0,2.0,4.0,6.0,1651025743934519.0,1
647,-17.0,-72.0,-12.0,-1.0,-4.0,-1.0,-1.0,-7.0,1651025743934519.0,1
648,12.0,42.0,3.0,-1.0,-9.0,-1.0,-1.0,2.0,1651025743936475.0,1
649,10.0,16.0,3.0,-2.0,-12.0,-4.0,0.0,3.0,1651025743936475.0,1
650,-6.0,0.0,-3.0,-6.0,3.0,0.0,-4.0,-4.0,1651025743949415.0,1
651,11.0,41.0,8.0,1.0,3.0,-1.0,-1.0,1.0,1651025743949415.0,1
652,9.0,4.0,-2.0,1.0,2.0,1.0,0.0,1.0,1651025743955398.0,1
653,-13.0,-21.0,-8.0,-5.0,-2.0,-1.0,0.0,-5.0,1651025743955398.0,1
654,1.0,-7.0,1.0,2.0,1.0,0.0,-1.0,1.0,1651025743971819.0,1
655,1.0,3.0,-2.0,0.0,-3.0,-1.0,-1.0,-1.0,1651025743971819.0,1
656,-5.0,-1.0,-1.0,3.0,9.0,3.0,1.0,-1.0,1651025743973746.0,1
657,0.0,-8.0,-1.0,-4.0,-4.0,-1.0,-4.0,-2.0,1651025743973746.0,1
658,-1.0,-10.0,-6.0,-6.0,-9.0,-3.0,0.0,-3.0,1651025743994806.0,1
659,9.0,15.0,3.0,1.0,-3.0,-2.0,2.0,3.0,1651025743994806.0,1
660,-7.0,-17.0,-5.0,2.0,20.0,3.0,1.0,0.0,1651025743995804.0,1
661,7.0,37.0,7.0,3.0,0.0,2.0,0.0,0.0,1651025743995804.0,1
662,-11.0,17.0,3.0,-1.0,-5.0,-4.0,-1.0,-2.0,1651025744009810.0,1
663,-1.0,2.0,0.0,-2.0,6.0,2.0,0.0,0.0,1651025744009810.0,1
664,-3.0,-15.0,3.0,3.0,-4.0,1.0,1.0,4.0,1651025744015818.0,1
665,4.0,1.0,5.0,0.0,-6.0,-3.0,0.0,1.0,1651025744015818.0,1
666,2.0,-5.0,-8.0,-1.0,4.0,1.0,-2.0,0.0,1651025744031775.0,1
667,-4.0,-8.0,-6.0,-1.0,0.0,-1.0,0.0,0.0,1651025744031775.0,1
668,-14.0,4.0,1.0,-1.0,-5.0,-2.0,-3.0,-5.0,1651025744033702.0,1
669,4.0,-20.0,-2.0,1.0,-1.0,1.0,0.0,1.0,1651025744033702.0,1
670,6.0,3.0,-2.0,1.0,-1.0,3.0,1.0,2.0,1651025744054809.0,1
671,-3.0,-11.0,-4.0,-2.0,1.0,-1.0,-2.0,-2.0,1651025744054809.0,1
672,-6.0,-27.0,-2.0,0.0,-2.0,2.0,1.0,0.0,1651025744055742.0,1
673,9.0,26.0,0.0,-1.0,-3.0,-1.0,0.0,-1.0,1651025744055742.0,1
674,-3.0,-9.0,-3.0,-2.0,-8.0,-2.0,-1.0,-2.0,1651025744068775.0,1
675,-5.0,-15.0,-3.0,-1.0,3.0,2.0,-3.0,-2.0,1651025744068775.0,1
676,12.0,12.0,3.0,3.0,-17.0,-7.0,3.0,6.0,1651025744075756.0,1
677,2.0,5.0,2.0,4.0,24.0,7.0,0.0,0.0,1651025744075756.0,1
678,-4.0,-2.0,4.0,2.0,-1.0,2.0,1.0,1.0,1651025744092051.0,1
679,6.0,43.0,6.0,1.0,-6.0,-4.0,0.0,1.0,1651025744092051.0,1
680,-6.0,-5.0,-2.0,-5.0,-5.0,-1.0,-1.0,-3.0,1651025744094037.0,1
681,2.0,0.0,-2.0,-2.0,-11.0,-5.0,0.0,2.0,1651025744094037.0,1
682,-4.0,-17.0,-4.0,-4.0,0.0,-1.0,-1.0,-4.0,1651025744114327.0,1
683,7.0,27.0,4.0,-1.0,3.0,0.0,0.0,1.0,1651025744114327.0,1
684,-10.0,5.0,-1.0,-2.0,8.0,2.0,-2.0,-5.0,1651025744116255.0,1
685,3.0,-29.0,-2.0,3.0,-5.0,-2.0,0.0,2.0,1651025744116255.0,1
686,-7.0,10.0,-2.0,-1.0,6.0,1.0,-2.0,-2.0,1651025744128940.0,1
687,2.0,-2.0,-2.0,-3.0,-6.0,-1.0,-1.0,-2.0,1651025744128940.0,1
688,1.0,-17.0,2.0,0.0,2.0,0.0,1.0,0.0,1651025744135918.0,1
689,-6.0,-5.0,-1.0,-5.0,-10.0,-1.0,-1.0,-1.0,1651025744135918.0,1
690,19.0,25.0,7.0,8.0,16.0,0.0,4.0,5.0,1651025744152379.0,1
691,-17.0,-13.0,-2.0,0.0,-4.0,1.0,-3.0,-4.0,1651025744152379.0,1
692,4.0,14.0,0.0,-3.0,-2.0,0.0,-2.0,-3.0,1651025744153363.0,1
693,-14.0,-39.0,-4.0,-1.0,-2.0,2.0,-2.0,-4.0,1651025744153363.0,1
694,6.0,1.0,-2.0,0.0,-8.0,-2.0,1.0,2.0,1651025744174517.0,1
695,-2.0,-9.0,2.0,1.0,5.0,-1.0,1.0,1.0,1651025744174517.0,1
696,0.0,29.0,5.0,-1.0,7.0,1.0,0.0,-1.0,1651025744176473.0,1
697,7.0,-9.0,-5.0,-3.0,-9.0,-2.0,1.0,1.0,1651025744176473.0,1
698,-21.0,-47.0,-12.0,-5.0,-5.0,-4.0,-4.0,-7.0,1651025744189442.0,1
699,0.0,3.0,0.0,-1.0,4.0,1.0,0.0,0.0,1651025744189442.0,1
700,-4.0,-20.0,-2.0,0.0,-5.0,0.0,-2.0,-1.0,1651025744195399.0,1
701,4.0,37.0,3.0,2.0,2.0,-2.0,1.0,2.0,1651025744195399.0,1
702,-7.0,-16.0,-4.0,-3.0,-1.0,0.0,-2.0,-2.0,1651025744212355.0,1
703,0.0,-20.0,0.0,-1.0,1.0,0.0,-2.0,-1.0,1651025744212355.0,1
704,2.0,3.0,1.0,1.0,2.0,0.0,1.0,1.0,1651025744213377.0,1
705,-6.0,2.0,2.0,3.0,2.0,0.0,-1.0,-4.0,1651025744213377.0,1
706,5.0,10.0,6.0,1.0,-7.0,0.0,4.0,1.0,1651025744234896.0,1
707,-1.0,-11.0,-3.0,-1.0,11.0,1.0,0.0,-1.0,1651025744234896.0,1
708,5.0,8.0,2.0,0.0,-7.0,-2.0,-1.0,1.0,1651025744235823.0,1
709,1.0,12.0,0.0,-1.0,11.0,5.0,0.0,2.0,1651025744235823.0,1
710,2.0,-12.0,-3.0,-2.0,-6.0,-2.0,-1.0,0.0,1651025744247861.0,1
711,-5.0,-13.0,-4.0,-1.0,-5.0,-4.0,-1.0,-2.0,1651025744247861.0,1
712,0.0,-10.0,-1.0,1.0,-1.0,0.0,1.0,1.0,1651025744256836.0,1
713,-5.0,-23.0,-3.0,-2.0,-4.0,-2.0,0.0,-2.0,1651025744256836.0,1
714,1.0,9.0,0.0,-1.0,1.0,1.0,0.0,0.0,1651025744271792.0,1
715,4.0,11.0,-3.0,-2.0,-5.0,1.0,0.0,0.0,1651025744271792.0,1
716,-1.0,5.0,1.0,0.0,4.0,1.0,-2.0,-2.0,1651025744273723.0,1
717,0.0,-5.0,2.0,-2.0,-15.0,-3.0,0.0,0.0,1651025744273723.0,1
718,5.0,24.0,5.0,3.0,17.0,0.0,-4.0,0.0,1651025744294668.0,1
719,2.0,8.0,2.0,3.0,3.0,0.0,-1.0,0.0,1651025744294668.0,1
720,1.0,0.0,0.0,0.0,1.0,0.0,0.0,0.0,1651025744295748.0,1
721,-1.0,-2.0,-3.0,-3.0,-2.0,-2.0,-1.0,-1.0,1651025744295748.0,1
722,3.0,34.0,10.0,0.0,-7.0,-1.0,-1.0,0.0,1651025744307933.0,1
723,-5.0,0.0,-5.0,0.0,1.0,2.0,-3.0,-2.0,1651025744307933.0,1
724,-2.0,-9.0,-6.0,1.0,4.0,1.0,0.0,-1.0,1651025744316911.0,1
725,1.0,22.0,0.0,-1.0,-1.0,-2.0,-2.0,-1.0,1651025744316911.0,1
726,-2.0,26.0,-3.0,-5.0,-4.0,-3.0,-1.0,-3.0,1651025744332016.0,1
727,3.0,16.0,3.0,-1.0,-5.0,-3.0,0.0,1.0,1651025744332016.0,1
728,-5.0,-10.0,-3.0,-1.0,6.0,4.0,0.0,0.0,1651025744333942.0,1
729,4.0,12.0,1.0,1.0,-2.0,-1.0,-1.0,-2.0,1651025744333942.0,1
730,-2.0,-20.0,-4.0,2.0,3.0,1.0,0.0,2.0,1651025744354954.0,1
731,-2.0,8.0,5.0,2.0,-5.0,0.0,1.0,-1.0,1651025744354954.0,1
732,2.0,9.0,-7.0,-4.0,-18.0,-6.0,-2.0,-1.0,1651025744355905.0,1
733,-9.0,-26.0,-1.0,0.0,22.0,2.0,1.0,-2.0,1651025744355905.0,1
734,-7.0,-52.0,-7.0,0.0,-2.0,2.0,0.0,0.0,1651025744367921.0,1
735,-8.0,-31.0,-3.0,-5.0,-19.0,-2.0,0.0,-3.0,1651025744367921.0,1
736,2.0,5.0,6.0,5.0,23.0,0.0,0.0,-2.0,1651025744376834.0,1
737,0.0,5.0,1.0,3.0,-4.0,2.0,-1.0,1.0,1651025744376834.0,1
738,1.0,4.0,3.0,0.0,-2.0,-1.0,-1.0,0.0,1651025744391912.0,1
739,-4.0,-18.0,-10.0,-3.0,4.0,1.0,-1.0,-2.0,1651025744391912.0,1
740,-4.0,-10.0,1.0,-2.0,-7.0,-1.0,0.0,-1.0,1651025744393902.0,1
741,-2.0,10.0,-4.0,-3.0,-8.0,-4.0,-2.0,-1.0,1651025744393902.0,1
742,-12.0,-22.0,-9.0,-5.0,5.0,0.0,-2.0,-4.0,1651025744415161.0,1
743,1.0,1.0,3.0,1.0,2.0,1.0,3.0,1.0,1651025744415161.0,1
744,4.0,7.0,0.0,-4.0,-20.0,-5.0,-2.0,1.0,1651025744415938.0,1
745,-1.0,-6.0,-1.0,1.0,16.0,6.0,2.0,0.0,1651025744415938.0,1
746,7.0,16.0,1.0,-1.0,-3.0,2.0,0.0,1.0,1651025744427973.0,1
747,-9.0,-32.0,-9.0,-2.0,-7.0,-8.0,-4.0,-3.0,1651025744427973.0,1
748,-1.0,0.0,-1.0,1.0,12.0,5.0,-1.0,1.0,1651025744443387.0,1
749,-1.0,-1.0,0.0,0.0,-8.0,-3.0,0.0,0.0,1651025744443387.0,1
750,6.0,9.0,3.0,1.0,-2.0,-3.0,0.0,0.0,1651025744452330.0,1
751,4.0,22.0,1.0,-4.0,-9.0,-2.0,-1.0,-1.0,1651025744452330.0,1
752,3.0,2.0,-1.0,0.0,24.0,2.0,0.0,1.0,1651025744453294.0,1
753,1.0,15.0,2.0,-1.0,-1.0,2.0,0.0,0.0,1651025744453294.0,1
754,-3.0,10.0,0.0,0.0,2.0,-1.0,-1.0,-3.0,1651025744475041.0,1
755,1.0,4.0,-4.0,0.0,4.0,0.0,0.0,0.0,1651025744475041.0,1
756,2.0,-8.0,0.0,-1.0,-15.0,-3.0,1.0,2.0,1651025744475945.0,1
757,3.0,28.0,-2.0,-3.0,-5.0,-4.0,-2.0,-1.0,1651025744475945.0,1
758,-1.0,-2.0,-2.0,-1.0,4.0,1.0,-1.0,0.0,1651025744487923.0,1
759,-3.0,5.0,4.0,-2.0,0.0,1.0,1.0,-1.0,1651025744487923.0,1
760,0.0,-12.0,1.0,-1.0,3.0,2.0,1.0,-2.0,1651025744496889.0,1
761,-7.0,-2.0,3.0,4.0,2.0,1.0,1.0,-1.0,1651025744496889.0,1
762,4.0,19.0,1.0,-2.0,-6.0,-3.0,-2.0,-1.0,1651025744511849.0,1
763,3.0,4.0,-1.0,-2.0,-13.0,-4.0,-1.0,2.0,1651025744511849.0,1
764,0.0,12.0,-1.0,-1.0,11.0,2.0,1.0,-3.0,1651025744513871.0,1
765,4.0,-2.0,1.0,0.0,1.0,1.0,-1.0,-2.0,1651025744513871.0,1
766,-5.0,4.0,-2.0,-1.0,-14.0,-2.0,-1.0,-2.0,1651025744534800.0,1
767,0.0,4.0,2.0,3.0,23.0,3.0,0.0,2.0,1651025744534800.0,1
768,-4.0,-1.0,2.0,-1.0,-15.0,-6.0,-1.0,-3.0,1651025744535931.0,1
769,3.0,10.0,3.0,-1.0,9.0,-1.0,0.0,2.0,1651025744535931.0,1
770,-2.0,-14.0,0.0,2.0,12.0,9.0,0.0,0.0,1651025744548765.0,1
771,3.0,8.0,1.0,0.0,-6.0,-4.0,1.0,2.0,1651025744548765.0,1
772,-4.0,6.0,-2.0,-3.0,-7.0,-3.0,-2.0,-1.0,1651025744556728.0,1
773,-7.0,-29.0,-7.0,-1.0,-6.0,-1.0,-2.0,-1.0,1651025744556728.0,1
774,-4.0,-31.0,-8.0,-1.0,-1.0,-1.0,0.0,-1.0,1651025744571716.0,1
775,-3.0,-4.0,-2.0,1.0,6.0,2.0,0.0,-2.0,1651025744571716.0,1
776,2.0,4.0,0.0,2.0,-2.0,0.0,0.0,1.0,1651025744573683.0,1
777,0.0,-13.0,-5.0,-1.0,1.0,-2.0,-1.0,-2.0,1651025744573683.0,1
778,-1.0,-3.0,-2.0,-6.0,-14.0,-4.0,-1.0,0.0,1651025744594796.0,1
779,0.0,11.0,0.0,2.0,13.0,5.0,-2.0,-2.0,1651025744594796.0,1
780,-2.0,-19.0,-3.0,2.0,6.0,1.0,-2.0,-1.0,1651025744595792.0,1
781,6.0,16.0,4.0,1.0,-3.0,-1.0,0.0,0.0,1651025744595792.0,1
782,2.0,6.0,-1.0,1.0,-5.0,-6.0,-3.0,0.0,1651025744608544.0,1
783,1.0,0.0,-1.0,-5.0,2.0,2.0,0.0,0.0,1651025744608544.0,1
784,-1.0,10.0,0.0,1.0,5.0,3.0,1.0,0.0,1651025744617181.0,1
785,2.0,21.0,4.0,2.0,-3.0,-2.0,0.0,1.0,1651025744617181.0,1
786,1.0,-16.0,-3.0,-4.0,-7.0,2.0,3.0,1.0,1651025744632483.0,1
787,1.0,-5.0,-1.0,1.0,3.0,-2.0,0.0,-1.0,1651025744632483.0,1
788,-1.0,12.0,4.0,-2.0,2.0,-4.0,-2.0,0.0,1651025744633445.0,1
789,-1.0,-18.0,-6.0,3.0,5.0,6.0,0.0,-2.0,1651025744633445.0,1
790,0.0,1.0,-5.0,-12.0,-15.0,-9.0,-3.0,-1.0,1651025744655025.0,1
791,1.0,1.0,2.0,2.0,33.0,12.0,1.0,0.0,1651025744655025.0,1
792,4.0,18.0,9.0,11.0,0.0,0.0,1.0,3.0,1651025744655999.0,1
793,-7.0,-33.0,-2.0,-5.0,-52.0,-14.0,-2.0,-2.0,1651025744655999.0,1
794,4.0,-8.0,-1.0,7.0,45.0,15.0,1.0,2.0,1651025744676994.0,1
795,-4.0,9.0,-1.0,-11.0,-40.0,-8.0,-2.0,-2.0,1651025744676994.0,1
796,-2.0,-5.0,-5.0,-13.0,-10.0,-4.0,-3.0,-1.0,1651025744682921.0,1
797,-1.0,-2.0,2.0,24.0,84.0,16.0,2.0,0.0,1651025744682921.0,1
798,0.0,-5.0,-1.0,-12.0,-57.0,-10.0,0.0,0.0,1651025744691952.0,1
799,2.0,-1.0,6.0,23.0,31.0,5.0,4.0,2.0,1651025744691952.0,1
800,-4.0,7.0,1.0,-13.0,-42.0,-2.0,1.0,-3.0,1651025744693879.0,1
801,-3.0,-15.0,-10.0,-11.0,-22.0,-9.0,-2.0,-2.0,1651025744693879.0,1
802,3.0,25.0,5.0,19.0,37.0,8.0,0.0,-1.0,1651025744714891.0,1
803,-4.0,-19.0,-6.0,-10.0,-8.0,-4.0,-2.0,0.0,1651025744714891.0,1
804,-4.0,-8.0,-5.0,-5.0,-11.0,-4.0,-4.0,-3.0,1651025744715820.0,1
805,4.0,0.0,3.0,-10.0,-13.0,-3.0,2.0,2.0,1651025744715820.0,1
806,9.0,23.0,7.0,-2.0,14.0,1.0,0.0,0.0,1651025744736898.0,1
807,1.0,1.0,4.0,1.0,-28.0,-7.0,1.0,0.0,1651025744736898.0,1
808,2.0,-8.0,8.0,6.0,15.0,3.0,1.0,-2.0,1651025744738825.0,1
809,-6.0,-11.0,-8.0,1.0,7.0,2.0,-2.0,-2.0,1651025744738825.0,1
810,-3.0,-6.0,-7.0,-2.0,-9.0,-1.0,0.0,-2.0,1651025744751019.0,1
811,0.0,4.0,-3.0,-1.0,-10.0,-4.0,-3.0,-1.0,1651025744751019.0,1
812,3.0,-1.0,5.0,3.0,19.0,6.0,0.0,1.0,1651025744757966.0,0
813,0.0,3.0,6.0,-6.0,-16.0,-1.0,0.0,0.0,1651025744757966.0,2
814,-3.0,-1.0,-13.0,-17.0,-17.0,-12.0,-2.0,-1.0,1651025744775001.0,2
815,-3.0,2.0,14.0,7.0,19.0,12.0,-2.0,-5.0,1651025744775001.0,2
816,0.0,0.0,-6.0,34.0,17.0,4.0,5.0,2.0,1651025744775832.0,2
817,0.0,-4.0,8.0,14.0,8.0,6.0,-1.0,0.0,1651025744775832.0,2
818,4.0,10.0,12.0,7.0,-8.0,-5.0,1.0,1.0,1651025744796982.0,2
819,0.0,10.0,-7.0,-25.0,-17.0,-6.0,-3.0,0.0,1651025744796982.0,2
820,-5.0,-13.0,-26.0,-27.0,-8.0,-5.0,-5.0,-5.0,1651025744798937.0,2
821,0.0,10.0,7.0,-9.0,-26.0,-8.0,-2.0,-3.0,1651025744798937.0,2
822,-3.0,-4.0,13.0,11.0,24.0,2.0,-3.0,-2.0,1651025744811901.0,2
823,4.0,-1.0,8.0,-21.0,-12.0,0.0,0.0,1.0,1651025744811901.0,2
824,0.0,-6.0,-15.0,67.0,28.0,5.0,0.0,1.0,1651025744817923.0,2
825,3.0,16.0,39.0,14.0,6.0,-3.0,-3.0,-5.0,1651025744817923.0,2
826,4.0,7.0,16.0,17.0,13.0,11.0,4.0,3.0,1651025744834920.0,2
827,-1.0,5.0,-55.0,-42.0,-19.0,-6.0,-2.0,-1.0,1651025744834920.0,2
828,-12.0,-24.0,-36.0,-55.0,-29.0,-8.0,-4.0,2.0,1651025744835918.0,2
829,-26.0,-14.0,46.0,35.0,29.0,5.0,-4.0,-13.0,1651025744835918.0,2
830,21.0,28.0,7.0,-6.0,-15.0,-1.0,8.0,12.0,1651025744857526.0,2
831,-20.0,-11.0,3.0,3.0,9.0,-6.0,-1.0,-21.0,1651025744857526.0,2
832,31.0,19.0,14.0,35.0,7.0,7.0,3.0,5.0,1651025744858897.0,2
833,-22.0,-9.0,-39.0,-12.0,-18.0,-6.0,13.0,3.0,1651025744858897.0,2
834,-12.0,-59.0,-9.0,-63.0,-12.0,-5.0,0.0,9.0,1651025744871856.0,2
835,85.0,23.0,16.0,100.0,36.0,27.0,39.0,37.0,1651025744871856.0,2
836,-75.0,-9.0,1.0,-31.0,-15.0,-21.0,-87.0,-30.0,1651025744877888.0,2
837,34.0,5.0,33.0,22.0,-1.0,-8.0,36.0,-25.0,1651025744877888.0,2
838,-38.0,28.0,0.0,5.0,10.0,-6.0,-52.0,1.0,1651025744894620.0,2
839,-7.0,-57.0,-63.0,-65.0,-47.0,-21.0,7.0,-45.0,1651025744894620.0,2
840,104.0,35.0,65.0,74.0,58.0,66.0,99.0,76.0,1651025744896549.0,2
841,-46.0,3.0,5.0,51.0,15.0,-43.0,-116.0,-20.0,1651025744896549.0,2
842,8.0,-9.0,-17.0,-12.0,-8.0,-5.0,-68.0,-15.0,1651025744916567.0,2
843,17.0,12.0,5.0,-33.0,3.0,12.0,-22.0,3.0,1651025744916567.0,2
844,38.0,8.0,-14.0,-38.0,-44.0,-49.0,74.0,-13.0,1651025744924833.0,2
845,-73.0,22.0,-38.0,-96.0,-30.0,50.0,17.0,4.0,1651025744924833.0,2
846,-59.0,-73.0,-26.0,77.0,42.0,-29.0,-55.0,-74.0,1651025744931861.0,2
847,-3.0,24.0,59.0,55.0,-8.0,-96.0,-12.0,8.0,1651025744931861.0,2
848,-1.0,10.0,-5.0,-55.0,3.0,99.0,94.0,53.0,1651025744937868.0,2
849,72.0,-9.0,-34.0,-15.0,-20.0,-85.0,-77.0,8.0,1651025744937868.0,2
850,12.0,16.0,27.0,36.0,-1.0,-10.0,-10.0,-32.0,1651025744954755.0,2
851,-20.0,-27.0,-28.0,-11.0,13.0,15.0,33.0,6.0,1651025744954755.0,2
852,-26.0,-28.0,-8.0,-23.0,-18.0,-65.0,68.0,11.0,1651025744955761.0,2
853,30.0,22.0,-18.0,-30.0,-18.0,27.0,34.0,14.0,1651025744955761.0,2
854,11.0,-7.0,-22.0,-47.0,-32.0,19.0,39.0,17.0,1651025744976993.0,2
855,-23.0,-15.0,-35.0,-17.0,5.0,-21.0,-25.0,-9.0,1651025744976993.0,2
856,-1.0,16.0,24.0,1.0,0.0,-14.0,-107.0,-23.0,1651025744978946.0,2
857,-12.0,0.0,14.0,-2.0,8.0,11.0,-9.0,-9.0,1651025744978946.0,2
858,20.0,-54.0,-45.0,-25.0,-33.0,-40.0,-6.0,-12.0,1651025744990955.0,2
859,-63.0,49.0,9.0,-23.0,15.0,40.0,37.0,25.0,1651025744990955.0,2
860,17.0,-38.0,-33.0,-15.0,-12.0,-14.0,-69.0,-38.0,1651025744999864.0,2
861,-11.0,3.0,-3.0,9.0,23.0,9.0,-79.0,-32.0,1651025744999864.0,2
862,22.0,89.0,71.0,54.0,21.0,6.0,83.0,80.0,1651025745014973.0,2
863,-25.0,-57.0,-18.0,-4.0,3.0,59.0,-21.0,-22.0,1651025745014973.0,2
864,45.0,36.0,-2.0,-16.0,-4.0,-7.0,-36.0,11.0,1651025745015907.0,2
865,49.0,-59.0,5.0,44.0,6.0,-31.0,13.0,5.0,1651025745015907.0,2
866,-23.0,35.0,0.0,-42.0,-22.0,16.0,-7.0,1.0,1651025745037098.0,2
867,110.0,17.0,32.0,39.0,5.0,21.0,16.0,35.0,1651025745037098.0,2
868,-58.0,-27.0,-12.0,43.0,22.0,5.0,-21.0,-34.0,1651025745039026.0,2
869,13.0,21.0,-3.0,-62.0,1.0,26.0,88.0,48.0,1651025745039026.0,2
870,25.0,1.0,9.0,62.0,15.0,-17.0,-74.0,-46.0,1651025745051062.0,2
871,-2.0,4.0,-7.0,-22.0,-7.0,-31.0,-5.0,7.0,1651025745051062.0,2
872,-19.0,-1.0,26.0,26.0,2.0,-5.0,-13.0,-11.0,1651025745059970.0,2
873,-19.0,7.0,-50.0,-55.0,-1.0,23.0,84.0,3.0,1651025745059970.0,2
874,17.0,-6.0,40.0,53.0,29.0,38.0,42.0,44.0,1651025745075102.0,2
875,-6.0,22.0,22.0,6.0,-9.0,-39.0,-58.0,-24.0,1651025745075102.0,2
876,33.0,-17.0,-6.0,-54.0,-26.0,5.0,51.0,24.0,1651025745076086.0,2
877,-51.0,33.0,28.0,84.0,33.0,24.0,-22.0,7.0,1651025745076086.0,2
878,-14.0,-9.0,-14.0,-23.0,-5.0,-46.0,8.0,-30.0,1651025745097535.0,2
879,-11.0,-3.0,0.0,5.0,2.0,22.0,-23.0,-18.0,1651025745097535.0,2
880,-35.0,16.0,12.0,5.0,0.0,27.0,26.0,7.0,1651025745098504.0,2
881,20.0,-17.0,-26.0,-45.0,-16.0,-11.0,-28.0,-14.0,1651025745098504.0,2
882,2.0,16.0,-5.0,11.0,19.0,46.0,19.0,6.0,1651025745119677.0,2
883,0.0,10.0,17.0,-24.0,-43.0,-32.0,-19.0,13.0,1651025745119677.0,2
884,-49.0,-17.0,1.0,9.0,34.0,13.0,-5.0,-24.0,1651025745121648.0,2
885,-19.0,2.0,-17.0,-39.0,-24.0,-23.0,22.0,-3.0,1651025745121648.0,2
886,34.0,-1.0,66.0,84.0,29.0,-7.0,12.0,12.0,1651025745134574.0,2
887,18.0,-11.0,-24.0,-23.0,-2.0,22.0,32.0,20.0,1651025745134574.0,2
888,8.0,9.0,-23.0,-36.0,-16.0,-20.0,-57.0,-4.0,1651025745136560.0,2
889,42.0,16.0,32.0,46.0,13.0,22.0,43.0,8.0,1651025745136560.0,2
890,-39.0,-21.0,-61.0,-92.0,-29.0,2.0,13.0,-4.0,1651025745157509.0,2
891,-30.0,7.0,41.0,51.0,1.0,-24.0,-62.0,-18.0,1651025745157509.0,2
892,-13.0,13.0,10.0,9.0,4.0,-14.0,-8.0,-9.0,1651025745158506.0,2
893,27.0,-24.0,-22.0,-15.0,-11.0,0.0,-12.0,17.0,1651025745158506.0,2
894,19.0,-9.0,-12.0,-47.0,-20.0,-25.0,-20.0,-16.0,1651025745170537.0,2
895,-35.0,-2.0,-1.0,22.0,40.0,110.0,97.0,9.0,1651025745170537.0,2
896,-24.0,2.0,-15.0,-22.0,-7.0,11.0,-22.0,-14.0,1651025745179940.0,2
897,-6.0,-6.0,20.0,15.0,4.0,-8.0,-18.0,10.0,1651025745179940.0,2
898,-41.0,14.0,-53.0,-98.0,-19.0,-6.0,-2.0,-8.0,1651025745201915.0,2
899,33.0,-14.0,46.0,71.0,29.0,-39.0,-31.0,-1.0,1651025745201915.0,2
900,6.0,-5.0,8.0,13.0,17.0,15.0,19.0,4.0,1651025745207912.0,2
901,41.0,14.0,-14.0,-58.0,-37.0,-8.0,11.0,15.0,1651025745207912.0,2
902,-17.0,-30.0,8.0,31.0,26.0,37.0,26.0,1.0,1651025745216861.0,2
903,-2.0,9.0,-1.0,8.0,-3.0,-19.0,-8.0,-1.0,1651025745216861.0,2
904,0.0,2.0,-10.0,-23.0,-16.0,-14.0,-3.0,-5.0,1651025745218883.0,2
905,-11.0,7.0,31.0,39.0,1.0,6.0,2.0,-4.0,1651025745218883.0,2
906,-13.0,-10.0,-15.0,-20.0,-1.0,3.0,-6.0,1.0,1651025745239935.0,2
907,-47.0,7.0,-19.0,-44.0,-28.0,21.0,96.0,36.0,1651025745239935.0,2
908,72.0,-11.0,5.0,17.0,14.0,-48.0,-76.0,-32.0,1651025745240881.0,2
909,-10.0,-3.0,-23.0,-19.0,-2.0,-14.0,-6.0,-5.0,1651025745240881.0,2
910,11.0,5.0,10.0,29.0,-8.0,40.0,59.0,10.0,1651025745254899.0,2
911,33.0,-1.0,-12.0,-13.0,2.0,6.0,-31.0,9.0,1651025745254899.0,2
912,-63.0,13.0,6.0,-5.0,-16.0,-7.0,9.0,-5.0,1651025745255840.0,2
913,-4.0,-34.0,-55.0,-53.0,-12.0,-38.0,-1.0,-7.0,1651025745255840.0,2
914,24.0,4.0,43.0,52.0,13.0,51.0,32.0,14.0,1651025745276966.0,2
915,1.0,-3.0,-14.0,-16.0,4.0,-10.0,-15.0,-9.0,1651025745276966.0,2
916,14.0,26.0,1.0,-28.0,9.0,26.0,51.0,28.0,1651025745278894.0,2
917,-57.0,10.0,56.0,126.0,38.0,-15.0,-91.0,-33.0,1651025745278894.0,2
918,56.0,-26.0,-26.0,-36.0,-24.0,-50.0,-17.0,-8.0,1651025745290930.0,2
919,-4.0,-5.0,-19.0,-34.0,-17.0,-10.0,-18.0,-9.0,1651025745290930.0,2
920,21.0,-25.0,-27.0,-13.0,-23.0,-4.0,20.0,19.0,1651025745299839.0,2
921,-68.0,14.0,15.0,2.0,10.0,12.0,23.0,-11.0,1651025745299839.0,2
922,3.0,4.0,-8.0,-7.0,0.0,-1.0,-12.0,7.0,1651025745314925.0,2
923,25.0,8.0,36.0,45.0,13.0,-6.0,-16.0,-3.0,1651025745314925.0,2
924,-39.0,-13.0,-9.0,4.0,2.0,-13.0,-5.0,-7.0,1651025745315863.0,2
925,13.0,-6.0,-6.0,-3.0,-11.0,40.0,24.0,3.0,1651025745315863.0,2
926,5.0,9.0,-8.0,-17.0,0.0,-11.0,-44.0,3.0,1651025745337505.0,2
927,15.0,-20.0,-32.0,-35.0,-8.0,-10.0,-12.0,-32.0,1651025745337505.0,2
928,12.0,11.0,14.0,2.0,-11.0,-4.0,10.0,15.0,1651025745338866.0,2
929,31.0,11.0,32.0,42.0,25.0,19.0,84.0,17.0,1651025745338866.0,2
930,-25.0,1.0,-4.0,7.0,22.0,10.0,-48.0,-10.0,1651025745359987.0,2
931,-13.0,-5.0,-68.0,-92.0,-17.0,0.0,21.0,5.0,1651025745359987.0,2
932,-16.0,0.0,74.0,78.0,12.0,4.0,-42.0,-17.0,1651025745360912.0,2
933,-8.0,-25.0,-18.0,-29.0,15.0,-5.0,13.0,-15.0,1651025745360912.0,2
934,-38.0,7.0,-22.0,-75.0,-14.0,-24.0,-11.0,-8.0,1651025745374929.0,2
935,10.0,7.0,35.0,69.0,20.0,7.0,-4.0,4.0,1651025745374929.0,2
936,-15.0,-5.0,-39.0,-24.0,0.0,7.0,17.0,-3.0,1651025745375864.0,2
937,-16.0,0.0,-6.0,-20.0,-25.0,-11.0,-23.0,-8.0,1651025745375864.0,2
938,-24.0,-3.0,18.0,46.0,10.0,-6.0,33.0,5.0,1651025745396908.0,2
939,48.0,-2.0,0.0,-13.0,3.0,27.0,17.0,18.0,1651025745396908.0,2
940,34.0,-2.0,-24.0,-39.0,-17.0,-13.0,-8.0,1.0,1651025745398896.0,2
941,-25.0,15.0,35.0,45.0,27.0,13.0,25.0,-3.0,1651025745398896.0,2
942,9.0,-21.0,-23.0,-20.0,-18.0,-2.0,-51.0,-6.0,1651025745410928.0,2
943,-22.0,7.0,20.0,25.0,5.0,-9.0,-5.0,5.0,1651025745410928.0,2
944,-71.0,-1.0,-10.0,-11.0,1.0,-11.0,49.0,-13.0,1651025745419840.0,2
945,75.0,-24.0,-25.0,-34.0,-27.0,-12.0,-68.0,5.0,1651025745419840.0,2
946,-10.0,10.0,8.0,26.0,32.0,39.0,45.0,8.0,1651025745433842.0,2
947,-2.0,15.0,18.0,6.0,6.0,14.0,20.0,-3.0,1651025745433842.0,2
948,-4.0,-21.0,-28.0,-25.0,-31.0,-40.0,-65.0,-11.0,1651025745441861.0,2
949,-14.0,7.0,30.0,46.0,11.0,-1.0,11.0,-2.0,1651025745441861.0,2
950,8.0,13.0,17.0,19.0,0.0,0.0,21.0,14.0,1651025745456810.0,2
951,-22.0,7.0,-6.0,-24.0,-4.0,3.0,52.0,6.0,1651025745456810.0,2
952,30.0,-10.0,8.0,36.0,15.0,-9.0,-37.0,-16.0,1651025745458778.0,2
953,27.0,13.0,-23.0,-47.0,-10.0,0.0,-4.0,20.0,1651025745458778.0,2
954,20.0,-24.0,-2.0,0.0,-22.0,-28.0,-22.0,-10.0,1651025745470811.0,2
955,-52.0,18.0,36.0,63.0,34.0,12.0,14.0,-9.0,1651025745470811.0,2
956,64.0,-9.0,-11.0,-24.0,-10.0,-2.0,32.0,17.0,1651025745479730.0,2
957,-16.0,6.0,-2.0,1.0,5.0,-10.0,4.0,-6.0,1651025745479730.0,2
958,20.0,-8.0,-18.0,-38.0,-18.0,19.0,-25.0,-22.0,1651025745494906.0,2
959,-19.0,-2.0,-13.0,-43.0,-30.0,-44.0,-23.0,6.0,1651025745494906.0,2
960,9.0,-5.0,11.0,32.0,14.0,29.0,7.0,9.0,1651025745495906.0,2
961,-49.0,5.0,-14.0,-32.0,11.0,1.0,-7.0,-9.0,1651025745495906.0,2
962,5.0,26.0,10.0,14.0,7.0,-1.0,81.0,23.0,1651025745517461.0,2
963,10.0,-13.0,-8.0,-10.0,-10.0,0.0,-44.0,-8.0,1651025745517461.0,2
964,6.0,19.0,21.0,32.0,2.0,-25.0,-70.0,-16.0,1651025745518877.0,2
965,23.0,-24.0,-11.0,-26.0,-14.0,8.0,29.0,6.0,1651025745518877.0,2
966,-15.0,-6.0,7.0,12.0,3.0,2.0,10.0,7.0,1651025745530846.0,2
967,49.0,18.0,-1.0,10.0,-22.0,-17.0,-55.0,9.0,1651025745530846.0,2
968,-30.0,-37.0,-24.0,-47.0,16.0,1.0,33.0,-11.0,1651025745539820.0,2
969,48.0,10.0,-6.0,-2.0,-3.0,5.0,-26.0,7.0,1651025745539820.0,2
970,-4.0,2.0,26.0,15.0,-8.0,-4.0,-13.0,-4.0,1651025745554780.0,2
971,-7.0,7.0,-19.0,-25.0,-10.0,-32.0,-22.0,-15.0,1651025745554780.0,2
972,37.0,5.0,-6.0,-8.0,-3.0,50.0,127.0,42.0,1651025745555779.0,2
973,-27.0,-6.0,-23.0,-45.0,-19.0,10.0,-85.0,-37.0,1651025745555779.0,2
974,-11.0,7.0,19.0,29.0,15.0,-17.0,-46.0,0.0,1651025745577011.0,2
975,35.0,-19.0,1.0,-1.0,6.0,1.0,33.0,16.0,1651025745577011.0,2
976,-20.0,1.0,1.0,-10.0,8.0,5.0,-20.0,-19.0,1651025745578965.0,2
977,9.0,7.0,38.0,60.0,13.0,7.0,35.0,15.0,1651025745578965.0,2
978,20.0,14.0,-13.0,-13.0,-11.0,-24.0,-113.0,-23.0,1651025745599950.0,2
979,-20.0,-15.0,-10.0,-34.0,-16.0,-14.0,-20.0,-18.0,1651025745599950.0,2
980,13.0,-1.0,-12.0,9.0,10.0,4.0,-15.0,13.0,1651025745600893.0,2
981,-48.0,6.0,-27.0,-52.0,-14.0,16.0,84.0,23.0,1651025745600893.0,2
982,27.0,-10.0,4.0,21.0,15.0,21.0,28.0,11.0,1651025745614896.0,2
983,-34.0,-10.0,18.0,47.0,21.0,-7.0,-66.0,-33.0,1651025745614896.0,2
984,-52.0,21.0,0.0,-8.0,-4.0,10.0,73.0,19.0,1651025745615885.0,2
985,87.0,-15.0,-13.0,-15.0,-23.0,-27.0,-20.0,-7.0,1651025745615885.0,2
986,-83.0,-4.0,-13.0,-21.0,-25.0,-43.0,-38.0,-29.0,1651025745636915.0,2
987,-7.0,-7.0,-5.0,-14.0,-5.0,59.0,57.0,5.0,1651025745636915.0,2
988,15.0,13.0,11.0,5.0,17.0,19.0,1.0,4.0,1651025745638933.0,2
989,-27.0,-20.0,-33.0,-31.0,8.0,-2.0,-25.0,4.0,1651025745638933.0,2
990,45.0,28.0,50.0,72.0,17.0,-4.0,53.0,10.0,1651025745660851.0,2
991,0.0,-14.0,-4.0,-31.0,-9.0,-13.0,-18.0,-12.0,1651025745660851.0,2
992,-3.0,9.0,13.0,39.0,2.0,4.0,-18.0,5.0,1651025745662869.0,2
993,-10.0,-12.0,10.0,17.0,-2.0,-4.0,30.0,15.0,1651025745662869.0,2
994,49.0,2.0,-8.0,-21.0,-4.0,6.0,35.0,15.0,1651025745674211.0,2
995,-98.0,10.0,-2.0,15.0,5.0,6.0,71.0,9.0,1651025745674211.0,2
996,-1.0,6.0,-6.0,-30.0,-9.0,-10.0,-103.0,-39.0,1651025745676209.0,2
997,55.0,-22.0,7.0,13.0,-19.0,-18.0,0.0,0.0,1651025745676209.0,2
998,-86.0,-13.0,-47.0,-69.0,-18.0,-7.0,40.0,6.0,1651025745697179.0,2
999,80.0,-1.0,11.0,5.0,13.0,1.0,18.0,-17.0,1651025745697179.0,2
1000,-21.0,-8.0,4.0,11.0,13.0,-4.0,-13.0,-4.0,1651025745698151.0,2
1001,4.0,19.0,-5.0,-20.0,-4.0,7.0,-26.0,-1.0,1651025745698151.0,2
1002,-16.0,-4.0,-1.0,7.0,1.0,7.0,-19.0,-12.0,1651025745720093.0,2
1003,44.0,3.0,-17.0,-2.0,1.0,-9.0,-24.0,0.0,1651025745720093.0,2
1004,-47.0,-18.0,20.0,6.0,-20.0,8.0,19.0,23.0,1651025745721089.0,2
1005,61.0,16.0,4.0,15.0,31.0,0.0,-9.0,-8.0,1651025745721089.0,2
1006,16.0,4.0,-17.0,-39.0,2.0,32.0,73.0,25.0,1651025745734210.0,2
1007,4.0,-1.0,6.0,7.0,5.0,-3.0,-2.0,-1.0,1651025745734210.0,2
1008,-27.0,-8.0,9.0,32.0,2.0,-21.0,-85.0,-34.0,1651025745741193.0,2
1009,-39.0,-2.0,-11.0,-23.0,-20.0,-12.0,5.0,2.0,1651025745741193.0,2
1010,18.0,7.0,14.0,13.0,-2.0,-5.0,16.0,8.0,1651025745757219.0,2
1011,-27.0,21.0,15.0,21.0,4.0,29.0,103.0,18.0,1651025745757219.0,2
1012,38.0,-6.0,-8.0,-1.0,-8.0,-24.0,-71.0,5.0,1651025745758175.0,2
1013,-8.0,-9.0,5.0,11.0,-4.0,-2.0,1.0,4.0,1651025745758175.0,2
1014,-18.0,8.0,-13.0,-33.0,8.0,0.0,6.0,-14.0,1651025745779271.0,2
1015,26.0,-5.0,-6.0,-17.0,6.0,-7.0,-36.0,-7.0,1651025745779271.0,2
1016,4.0,22.0,9.0,12.0,2.0,2.0,43.0,23.0,1651025745781206.0,2
1017,-21.0,-2.0,10.0,6.0,12.0,13.0,-34.0,-36.0,1651025745781206.0,2
1018,6.0,9.0,-9.0,1.0,-11.0,8.0,53.0,26.0,1651025745794092.0,2
1019,48.0,-21.0,5.0,16.0,-19.0,-32.0,-112.0,-6.0,1651025745794092.0,2
1020,2.0,-8.0,-6.0,-12.0,9.0,-6.0,32.0,-7.0,1651025745801861.0,2
1021,9.0,16.0,-1.0,-17.0,-21.0,8.0,55.0,18.0,1651025745801861.0,2
1022,-1.0,-15.0,14.0,19.0,27.0,-2.0,-35.0,1.0,1651025745816874.0,2
1023,-42.0,8.0,-7.0,2.0,1.0,-6.0,-8.0,15.0,1651025745816874.0,2
1024,16.0,-3.0,14.0,26.0,2.0,0.0,31.0,-9.0,1651025745818802.0,2
1025,-13.0,-4.0,-10.0,0.0,1.0,-5.0,-9.0,-7.0,1651025745818802.0,2
1026,-26.0,-4.0,-32.0,-49.0,-26.0,5.0,-31.0,-9.0,1651025745839963.0,2
1027,87.0,6.0,-1.0,18.0,4.0,-8.0,-43.0,11.0,1651025745839963.0,2
1028,-15.0,-23.0,7.0,17.0,3.0,7.0,5.0,-21.0,1651025745840892.0,2
1029,-14.0,14.0,8.0,15.0,10.0,1.0,9.0,13.0,1651025745840892.0,2
1030,-36.0,-12.0,-13.0,-23.0,2.0,13.0,38.0,9.0,1651025745853860.0,2
1031,-26.0,-22.0,-5.0,-4.0,-17.0,-13.0,-56.0,-35.0,1651025745853860.0,2
1032,-5.0,26.0,-13.0,-58.0,-17.0,-1.0,73.0,22.0,1651025745860910.0,2
1033,18.0,-8.0,34.0,99.0,28.0,-51.0,-90.0,-13.0,1651025745860910.0,2
1034,12.0,-11.0,8.0,12.0,5.0,42.0,6.0,0.0,1651025745876970.0,2
1035,3.0,-1.0,-28.0,-38.0,-10.0,8.0,61.0,15.0,1651025745876970.0,2
1036,-33.0,0.0,-15.0,-43.0,-21.0,-17.0,-83.0,-22.0,1651025745878925.0,2
1037,-1.0,-2.0,10.0,0.0,18.0,26.0,54.0,12.0,1651025745878925.0,2
1038,22.0,16.0,1.0,2.0,-13.0,-27.0,-43.0,6.0,1651025745899936.0,2
1039,-19.0,-6.0,16.0,10.0,-5.0,-39.0,-18.0,-33.0,1651025745899936.0,2
1040,25.0,3.0,-14.0,-23.0,26.0,61.0,122.0,50.0,1651025745900862.0,2
1041,53.0,17.0,-33.0,-65.0,-20.0,-8.0,-105.0,19.0,1651025745900862.0,2
1042,-75.0,-20.0,71.0,84.0,27.0,-33.0,-81.0,-92.0,1651025745913829.0,2
1043,-21.0,-11.0,-4.0,-14.0,-14.0,35.0,101.0,35.0,1651025745913829.0,2
1044,30.0,14.0,-12.0,-43.0,-16.0,-39.0,6.0,-10.0,1651025745920837.0,2
1045,-11.0,-3.0,-5.0,-16.0,12.0,1.0,-38.0,-1.0,1651025745920837.0,2
1046,64.0,4.0,-19.0,-34.0,-26.0,-2.0,-10.0,22.0,1651025745936856.0,2
1047,-34.0,8.0,10.0,30.0,28.0,-16.0,61.0,13.0,1651025745936856.0,2
1048,-17.0,-13.0,-7.0,4.0,2.0,60.0,-42.0,-13.0,1651025745938874.0,2
1049,-20.0,-5.0,6.0,7.0,-25.0,-83.0,43.0,-16.0,1651025745938874.0,2
1050,-1.0,2.0,1.0,7.0,12.0,72.0,70.0,29.0,1651025745959794.0,2
1051,-21.0,1.0,-10.0,-21.0,25.0,13.0,-86.0,-35.0,1651025745959794.0,2
1052,49.0,-3.0,-43.0,-59.0,-24.0,-69.0,35.0,28.0,1651025745960793.0,2
1053,-33.0,3.0,45.0,51.0,9.0,-8.0,-41.0,-20.0,1651025745960793.0,2
1054,54.0,15.0,35.0,67.0,31.0,-57.0,14.0,17.0,1651025745973761.0,2
1055,-16.0,-3.0,-27.0,-59.0,-20.0,-6.0,27.0,10.0,1651025745973761.0,2
1056,-10.0,8.0,18.0,53.0,14.0,23.0,-8.0,-11.0,1651025745980807.0,2
1057,-17.0,1.0,11.0,-25.0,-14.0,11.0,21.0,-1.0,1651025745980807.0,2
1058,-6.0,-2.0,-12.0,5.0,18.0,2.0,23.0,5.0,1651025745996970.0,2
1059,-2.0,-1.0,-9.0,-10.0,-9.0,9.0,-22.0,-1.0,1651025745996970.0,2
1060,0.0,7.0,6.0,0.0,-16.0,-45.0,-62.0,-20.0,1651025745998899.0,2
1061,3.0,7.0,-10.0,-30.0,-39.0,-98.0,5.0,6.0,1651025745998899.0,2
1062,6.0,-7.0,-22.0,-24.0,24.0,95.0,67.0,3.0,1651025746019936.0,2
1063,2.0,-30.0,-21.0,-12.0,16.0,18.0,-34.0,3.0,1651025746019936.0,2
1064,-11.0,-4.0,8.0,18.0,15.0,28.0,-12.0,-17.0,1651025746020935.0,2
1065,5.0,5.0,13.0,25.0,17.0,56.0,88.0,22.0,1651025746020935.0,2
1066,-4.0,9.0,-9.0,-28.0,-31.0,-87.0,-101.0,-16.0,1651025746034909.0,2
1067,-40.0,-10.0,-2.0,-19.0,-19.0,-46.0,-6.0,-8.0,1651025746034909.0,2
1068,-1.0,4.0,-12.0,-16.0,-19.0,-9.0,40.0,8.0,1651025746040944.0,2
1069,-37.0,6.0,86.0,93.0,84.0,57.0,-19.0,6.0,1651025746040944.0,2
1070,36.0,-22.0,-24.0,-56.0,-36.0,-42.0,-25.0,-21.0,1651025746057486.0,2
1071,-2.0,15.0,29.0,28.0,17.0,21.0,20.0,7.0,1651025746057486.0,2
1072,2.0,-13.0,-16.0,-8.0,-7.0,-15.0,-27.0,4.0,1651025746058929.0,2
1073,-29.0,-8.0,-39.0,-48.0,-22.0,33.0,32.0,-7.0,1651025746058929.0,2
1074,-8.0,9.0,-11.0,-6.0,-10.0,-14.0,-2.0,3.0,1651025746079916.0,2
1075,12.0,6.0,25.0,21.0,2.0,-7.0,-16.0,2.0,1651025746079916.0,2
1076,-10.0,1.0,3.0,3.0,1.0,-29.0,7.0,-8.0,1651025746080851.0,2
1077,15.0,-11.0,-18.0,-3.0,3.0,45.0,17.0,2.0,1651025746080851.0,2
1078,-12.0,-6.0,4.0,10.0,-5.0,-62.0,-7.0,1.0,1651025746093812.0,2
1079,9.0,6.0,-11.0,-18.0,2.0,100.0,18.0,6.0,1651025746093812.0,2
1080,7.0,11.0,-1.0,-23.0,-1.0,13.0,36.0,23.0,1651025746100884.0,2
1081,3.0,-12.0,32.0,77.0,29.0,-52.0,-37.0,-19.0,1651025746100884.0,2
1082,8.0,9.0,0.0,-11.0,-16.0,24.0,2.0,7.0,1651025746116860.0,2
1083,-10.0,3.0,0.0,8.0,-2.0,-25.0,4.0,-6.0,1651025746116860.0,2
1084,-1.0,-1.0,4.0,-7.0,-17.0,6.0,-10.0,-1.0,1651025746118869.0,2
1085,7.0,-2.0,-28.0,-32.0,12.0,2.0,10.0,1.0,1651025746118869.0,2
1086,-6.0,3.0,-5.0,-6.0,-16.0,15.0,12.0,2.0,1651025746139784.0,2
1087,0.0,2.0,4.0,5.0,12.0,-44.0,-7.0,-3.0,1651025746139784.0,2
1088,-1.0,-3.0,13.0,19.0,7.0,6.0,-22.0,-6.0,1651025746140782.0,2
1089,5.0,-9.0,-36.0,-54.0,-41.0,-8.0,7.0,-4.0,1651025746140782.0,2
1090,-2.0,4.0,16.0,28.0,29.0,10.0,-7.0,2.0,1651025746152778.0,2
1091,3.0,2.0,-11.0,-6.0,-22.0,3.0,6.0,3.0,1651025746152778.0,2
1092,1.0,0.0,9.0,16.0,23.0,-20.0,-21.0,-6.0,1651025746161726.0,2
1093,-5.0,-3.0,-12.0,-21.0,-11.0,-1.0,2.0,-4.0,1651025746161726.0,2
1094,0.0,1.0,1.0,-11.0,-15.0,7.0,8.0,3.0,1651025746176744.0,2
1095,2.0,-3.0,-4.0,11.0,11.0,3.0,-3.0,-1.0,1651025746176744.0,2
1096,4.0,2.0,9.0,19.0,12.0,5.0,-3.0,-2.0,1651025746178682.0,2
1097,-5.0,-14.0,-23.0,-16.0,-30.0,-22.0,4.0,-1.0,1651025746178682.0,2
1098,-5.0,1.0,-3.0,-5.0,19.0,-2.0,-13.0,0.0,1651025746199626.0,2
1099,4.0,8.0,26.0,7.0,-2.0,12.0,12.0,3.0,1651025746199626.0,2
1100,0.0,-10.0,-2.0,18.0,18.0,0.0,-13.0,-9.0,1651025746201621.0,2
1101,2.0,12.0,-10.0,-14.0,-4.0,32.0,9.0,5.0,1651025746201621.0,2
1102,1.0,4.0,9.0,-2.0,-12.0,-39.0,-9.0,-2.0,1651025746213587.0,2
1103,-7.0,-9.0,-8.0,-2.0,-13.0,-10.0,-4.0,-2.0,1651025746213587.0,2
1104,-4.0,-4.0,-1.0,2.0,-9.0,3.0,-4.0,-4.0,1651025746222591.0,2
1105,3.0,-8.0,-7.0,-10.0,9.0,6.0,-1.0,-1.0,1651025746222591.0,2
1106,-11.0,-18.0,-6.0,-12.0,12.0,5.0,-1.0,-6.0,1651025746236527.0,2
1107,17.0,47.0,14.0,25.0,3.0,-19.0,0.0,4.0,1651025746236527.0,2
1108,-15.0,-20.0,-3.0,-1.0,-11.0,7.0,-2.0,-5.0,1651025746238522.0,2
1109,4.0,6.0,-1.0,-13.0,-14.0,-7.0,-2.0,-1.0,1651025746238522.0,2
1110,-7.0,-18.0,11.0,4.0,0.0,0.0,0.0,-1.0,1651025746259466.0,2
1111,10.0,11.0,6.0,-9.0,-1.0,8.0,9.0,6.0,1651025746259466.0,2
1112,-10.0,-16.0,0.0,7.0,6.0,-27.0,-13.0,-7.0,1651025746261481.0,2
1113,-3.0,-16.0,-8.0,2.0,-9.0,26.0,3.0,-4.0,1651025746261481.0,2
1114,2.0,6.0,2.0,5.0,24.0,15.0,9.0,7.0,1651025746273428.0,2
1115,-3.0,-16.0,-19.0,-11.0,-10.0,-17.0,-10.0,-4.0,1651025746273428.0,2
1116,10.0,27.0,20.0,-3.0,-17.0,13.0,9.0,6.0,1651025746282403.0,2
1117,-2.0,28.0,12.0,-5.0,-4.0,-4.0,-7.0,-10.0,1651025746282403.0,2
1118,8.0,-7.0,-15.0,10.0,21.0,-3.0,11.0,13.0,1651025746297403.0,2
1119,-14.0,-16.0,-9.0,-9.0,-15.0,-5.0,2.0,-5.0,1651025746297403.0,2
1120,7.0,18.0,6.0,6.0,3.0,-4.0,-7.0,5.0,1651025746298368.0,2
1121,0.0,-17.0,-9.0,-13.0,-23.0,3.0,6.0,6.0,1651025746298368.0,2
1122,19.0,68.0,21.0,5.0,8.0,8.0,1.0,-5.0,1651025746319950.0,2
1123,-8.0,-17.0,29.0,10.0,11.0,-8.0,1.0,-3.0,1651025746319950.0,2
1124,3.0,6.0,-14.0,-5.0,-9.0,-1.0,1.0,-3.0,1651025746320906.0,2
1125,-5.0,-23.0,-15.0,5.0,5.0,-3.0,-3.0,-2.0,1651025746320906.0,2
1126,-5.0,-8.0,-9.0,-4.0,-13.0,-6.0,-3.0,-1.0,1651025746332875.0,2
1127,-1.0,8.0,-7.0,-10.0,-15.0,-12.0,-4.0,-4.0,1651025746332875.0,2
1128,6.0,13.0,29.0,4.0,17.0,17.0,8.0,3.0,1651025746341889.0,2
1129,1.0,-7.0,-5.0,6.0,10.0,12.0,3.0,1.0,1651025746341889.0,2
1130,-4.0,-17.0,-12.0,6.0,-5.0,-18.0,-8.0,-5.0,1651025746356872.0,2
1131,-5.0,-12.0,-12.0,-6.0,10.0,14.0,-4.0,-6.0,1651025746356872.0,2
1132,3.0,34.0,19.0,-5.0,-22.0,-8.0,3.0,5.0,1651025746358828.0,2
1133,-3.0,-31.0,-12.0,4.0,24.0,-1.0,2.0,0.0,1651025746358828.0,2
1134,-7.0,13.0,-2.0,-11.0,-18.0,2.0,-5.0,-9.0,1651025746386901.0,2
1135,6.0,2.0,12.0,13.0,6.0,-24.0,-2.0,10.0,1651025746386901.0,2
1136,-1.0,-5.0,-11.0,-2.0,1.0,16.0,-9.0,-8.0,1651025746388896.0,2
1137,0.0,2.0,20.0,5.0,2.0,-1.0,3.0,2.0,1651025746388896.0,2
1138,2.0,-19.0,-28.0,-16.0,-18.0,5.0,0.0,0.0,1651025746392885.0,2
1139,-9.0,-7.0,-9.0,-6.0,0.0,-3.0,-3.0,-6.0,1651025746392885.0,2
1140,-6.0,-10.0,-21.0,-6.0,-1.0,-7.0,3.0,1.0,1651025746401905.0,2
1141,4.0,11.0,4.0,-5.0,-17.0,2.0,4.0,2.0,1651025746401905.0,2
1142,2.0,1.0,23.0,6.0,16.0,1.0,-3.0,0.0,1651025746416971.0,2
1143,-2.0,-12.0,-7.0,1.0,-2.0,1.0,1.0,-1.0,1651025746416971.0,2
1144,-1.0,-16.0,-3.0,5.0,8.0,0.0,3.0,3.0,1651025746418925.0,2
1145,8.0,45.0,32.0,8.0,2.0,-3.0,-4.0,-3.0,1651025746418925.0,2
1146,-11.0,-25.0,-27.0,-11.0,-24.0,-4.0,2.0,-1.0,1651025746439909.0,2
1147,-2.0,-10.0,-13.0,-5.0,21.0,8.0,0.0,0.0,1651025746439909.0,2
1148,-2.0,13.0,10.0,5.0,-3.0,-3.0,-1.0,-1.0,1651025746440860.0,2
1149,-1.0,-13.0,-7.0,-2.0,12.0,-6.0,-2.0,1.0,1651025746440860.0,2
1150,3.0,26.0,14.0,3.0,-6.0,4.0,-1.0,0.0,1651025746452807.0,2
1151,4.0,0.0,5.0,3.0,-5.0,2.0,-1.0,0.0,1651025746452807.0,2
1152,3.0,-10.0,-19.0,-1.0,6.0,-3.0,0.0,0.0,1651025746462781.0,2
1153,-7.0,-29.0,4.0,1.0,3.0,-2.0,-1.0,-1.0,1651025746462781.0,2
1154,-2.0,18.0,1.0,-4.0,-5.0,1.0,0.0,-5.0,1651025746477172.0,2
1155,-1.0,19.0,-8.0,-4.0,-4.0,-2.0,-3.0,0.0,1651025746477172.0,2
1156,5.0,-15.0,18.0,6.0,0.0,-2.0,1.0,3.0,1651025746478170.0,2
1157,14.0,11.0,-10.0,4.0,10.0,4.0,1.0,4.0,1651025746478170.0,2
1158,-25.0,-31.0,-7.0,-6.0,-9.0,-3.0,-4.0,-9.0,1651025746499123.0,2
1159,6.0,17.0,-22.0,-12.0,-3.0,-2.0,-4.0,-2.0,1651025746499123.0,2
1160,-21.0,-51.0,16.0,8.0,-17.0,-7.0,-5.0,-7.0,1651025746501117.0,2
1161,7.0,39.0,-21.0,-11.0,15.0,2.0,3.0,3.0,1651025746501117.0,2
1162,-6.0,-35.0,-24.0,-8.0,-12.0,-1.0,-3.0,-1.0,1651025746523049.0,2
1163,11.0,66.0,46.0,16.0,16.0,1.0,1.0,2.0,1651025746523049.0,2
1164,1.0,-59.0,-51.0,-16.0,0.0,1.0,1.0,3.0,1651025746525118.0,2
1165,2.0,73.0,40.0,8.0,-7.0,0.0,-3.0,-2.0,1651025746525118.0,2
1166,5.0,4.0,26.0,15.0,1.0,-2.0,1.0,3.0,1651025746537253.0,2
1167,1.0,1.0,-36.0,-15.0,-10.0,-2.0,1.0,1.0,1651025746537253.0,2
1168,-8.0,-40.0,27.0,12.0,22.0,5.0,-1.0,-3.0,1651025746538213.0,2
1169,-8.0,-20.0,-21.0,-3.0,-9.0,-4.0,1.0,-2.0,1651025746538213.0,2
1170,10.0,39.0,4.0,-9.0,0.0,1.0,1.0,3.0,1651025746559988.0,2
1171,0.0,-20.0,22.0,9.0,-8.0,-1.0,-2.0,1.0,1651025746559988.0,2
1172,6.0,29.0,-8.0,0.0,6.0,0.0,1.0,-1.0,1651025746560927.0,2
1173,-1.0,7.0,8.0,-1.0,-5.0,-2.0,-2.0,-1.0,1651025746560927.0,2
1174,-1.0,-17.0,9.0,11.0,5.0,3.0,1.0,0.0,1651025746581995.0,2
1175,11.0,24.0,5.0,-1.0,-4.0,-1.0,4.0,10.0,1651025746581995.0,2
1176,-24.0,20.0,-12.0,-11.0,-5.0,-8.0,-7.0,-11.0,1651025746583923.0,2
1177,7.0,-11.0,-2.0,-2.0,-19.0,-2.0,-1.0,2.0,1651025746583923.0,2
1178,-9.0,-15.0,-1.0,1.0,24.0,3.0,-1.0,-1.0,1651025746596951.0,2
1179,6.0,-9.0,-3.0,0.0,-6.0,3.0,1.0,-1.0,1651025746596951.0,2
1180,2.0,8.0,-5.0,-1.0,5.0,-1.0,0.0,2.0,1651025746598882.0,2
1181,-6.0,-15.0,4.0,-2.0,-6.0,-2.0,0.0,-2.0,1651025746598882.0,2
1182,11.0,70.0,11.0,-3.0,-11.0,-2.0,-3.0,2.0,1651025746618890.0,2
1183,-23.0,-73.0,-11.0,1.0,3.0,-2.0,-4.0,-9.0,1651025746618890.0,2
1184,15.0,58.0,7.0,-2.0,-8.0,2.0,3.0,6.0,1651025746626869.0,2
1185,-23.0,-55.0,-27.0,-14.0,-7.0,-9.0,-8.0,-15.0,1651025746626869.0,2
1186,0.0,-12.0,-3.0,4.0,5.0,1.0,2.0,3.0,1651025746641880.0,2
1187,-5.0,12.0,9.0,2.0,3.0,2.0,-2.0,0.0,1651025746641880.0,2
1188,5.0,-36.0,-13.0,1.0,-12.0,-6.0,2.0,1.0,1651025746643807.0,2
1189,9.0,15.0,-12.0,-8.0,17.0,3.0,1.0,2.0,1651025746643807.0,2
1190,-2.0,-10.0,2.0,-1.0,3.0,3.0,0.0,0.0,1651025746656778.0,2
1191,-10.0,-33.0,-6.0,4.0,2.0,0.0,-1.0,-3.0,1651025746656778.0,2
1192,2.0,30.0,6.0,3.0,3.0,-1.0,1.0,2.0,1651025746658767.0,2
1193,16.0,16.0,6.0,0.0,-3.0,0.0,2.0,6.0,1651025746658767.0,2
1194,-17.0,-28.0,-13.0,-6.0,-11.0,-4.0,-3.0,-2.0,1651025746679480.0,2
1195,3.0,-27.0,-3.0,2.0,2.0,0.0,0.0,0.0,1651025746679480.0,2
1196,-6.0,-40.0,-1.0,0.0,1.0,1.0,1.0,-1.0,1651025746681408.0,2
1197,12.0,14.0,2.0,-2.0,-4.0,1.0,2.0,4.0,1651025746681408.0,2
1198,9.0,6.0,0.0,-2.0,-2.0,0.0,0.0,2.0,1651025746701980.0,2
1199,0.0,51.0,-3.0,-3.0,-2.0,-2.0,-1.0,-4.0,1651025746701980.0,2
1200,-6.0,10.0,5.0,-2.0,-1.0,1.0,0.0,-1.0,1651025746703974.0,2
1201,-6.0,-25.0,-6.0,0.0,-5.0,0.0,1.0,0.0,1651025746703974.0,2
1202,10.0,-10.0,-3.0,0.0,-11.0,-4.0,0.0,3.0,1651025746715942.0,2
1203,6.0,20.0,4.0,1.0,24.0,5.0,2.0,5.0,1651025746715942.0,2
1204,9.0,37.0,4.0,-2.0,0.0,1.0,-2.0,0.0,1651025746722991.0,2
1205,-5.0,-9.0,-1.0,1.0,-2.0,-1.0,0.0,0.0,1651025746722991.0,2
1206,-3.0,-17.0,-7.0,-2.0,-2.0,-2.0,0.0,-2.0,1651025746740050.0,2
1207,7.0,23.0,2.0,0.0,-13.0,-4.0,1.0,-1.0,1651025746740050.0,2
1208,-8.0,-9.0,1.0,-5.0,-4.0,-2.0,-2.0,-3.0,1651025746741036.0,2
1209,-3.0,-2.0,0.0,1.0,4.0,0.0,0.0,1.0,1651025746741036.0,2
1210,-8.0,-8.0,-2.0,3.0,5.0,0.0,2.0,-2.0,1651025746762465.0,2
1211,-3.0,-19.0,-3.0,-3.0,-12.0,-1.0,-1.0,-1.0,1651025746762465.0,2
1212,7.0,10.0,2.0,1.0,6.0,2.0,0.0,0.0,1651025746763476.0,2
1213,2.0,28.0,7.0,3.0,6.0,2.0,0.0,-1.0,1651025746763476.0,2
1214,-9.0,-50.0,-12.0,-3.0,-4.0,-1.0,0.0,-1.0,1651025746776543.0,2
1215,-5.0,-2.0,-3.0,-2.0,-1.0,-3.0,-3.0,-2.0,1651025746776543.0,2
1216,0.0,4.0,4.0,1.0,-5.0,2.0,3.0,-1.0,1651025746783528.0,2
1217,-2.0,31.0,-9.0,-3.0,-2.0,0.0,-2.0,-2.0,1651025746783528.0,2
1218,3.0,22.0,-1.0,-4.0,6.0,-1.0,-1.0,-1.0,1651025746799485.0,2
1219,-1.0,8.0,2.0,1.0,-2.0,-2.0,-1.0,2.0,1651025746799485.0,2
1220,-4.0,-8.0,-7.0,-3.0,-6.0,-4.0,-3.0,-3.0,1651025746801507.0,2
1221,-10.0,0.0,10.0,5.0,3.0,1.0,0.0,-3.0,1651025746801507.0,2
1222,9.0,10.0,2.0,2.0,5.0,3.0,3.0,1.0,1651025746822423.0,2
1223,0.0,-5.0,-1.0,-1.0,-6.0,0.0,-1.0,-3.0,1651025746822423.0,2
1224,4.0,-1.0,-1.0,0.0,2.0,0.0,-1.0,3.0,1651025746823422.0,2
1225,-3.0,-1.0,-1.0,-1.0,-2.0,-1.0,-2.0,-1.0,1651025746823422.0,2
1226,1.0,23.0,5.0,-2.0,-3.0,0.0,0.0,0.0,1651025746836386.0,2
1227,-5.0,-45.0,-3.0,0.0,0.0,-2.0,2.0,0.0,1651025746836386.0,2
1228,-3.0,1.0,-7.0,-1.0,4.0,0.0,0.0,-2.0,1651025746843489.0,2
1229,4.0,8.0,5.0,-1.0,-3.0,-1.0,-3.0,0.0,1651025746843489.0,2
1230,2.0,6.0,1.0,-2.0,-28.0,-6.0,-1.0,1.0,1651025746859635.0,2
1231,-6.0,-1.0,-3.0,0.0,27.0,5.0,-1.0,-2.0,1651025746859635.0,2
1232,0.0,-30.0,-6.0,6.0,29.0,7.0,2.0,2.0,1651025746861567.0,2
1233,-8.0,25.0,6.0,1.0,-7.0,-1.0,0.0,-2.0,1651025746861567.0,2
1234,0.0,0.0,-1.0,3.0,2.0,-1.0,-1.0,-3.0,1651025746882625.0,2
1235,7.0,15.0,5.0,2.0,-14.0,-1.0,2.0,2.0,1651025746882625.0,2
1236,-13.0,-8.0,-5.0,-5.0,-12.0,-3.0,-3.0,-5.0,1651025746883633.0,2
1237,-4.0,-31.0,-4.0,-1.0,8.0,2.0,1.0,0.0,1651025746883633.0,2
1238,-6.0,21.0,-1.0,0.0,4.0,-3.0,-1.0,0.0,1651025746896655.0,2
1239,-3.0,2.0,-2.0,-1.0,-6.0,0.0,-1.0,-2.0,1651025746896655.0,2
1240,13.0,54.0,11.0,-1.0,-2.0,1.0,1.0,4.0,1651025746903549.0,2
1241,-6.0,-35.0,-15.0,-4.0,-3.0,-2.0,-1.0,-1.0,1651025746903549.0,2
1242,-9.0,-18.0,0.0,-1.0,1.0,3.0,-1.0,-1.0,1651025746919569.0,2
1243,2.0,21.0,-1.0,1.0,0.0,-1.0,0.0,-1.0,1651025746919569.0,2
1244,-9.0,7.0,-1.0,-4.0,-8.0,-4.0,-5.0,-4.0,1651025746921531.0,2
1245,-1.0,-15.0,-3.0,-1.0,-3.0,-1.0,0.0,1.0,1651025746921531.0,2
1246,5.0,-9.0,0.0,0.0,5.0,-1.0,0.0,-1.0,1651025746942511.0,2
1247,-3.0,-28.0,-4.0,0.0,3.0,-1.0,-2.0,0.0,1651025746942511.0,2
1248,7.0,2.0,2.0,-2.0,-7.0,-3.0,-1.0,1.0,1651025746943443.0,2
1249,3.0,-4.0,-1.0,-2.0,-4.0,0.0,-2.0,0.0,1651025746943443.0,2
1250,-8.0,-25.0,-4.0,1.0,9.0,3.0,-2.0,-4.0,1651025746956436.0,2
1251,0.0,-1.0,1.0,1.0,-3.0,-1.0,0.0,1.0,1651025746956436.0,2
1252,4.0,-12.0,-1.0,0.0,-5.0,-1.0,2.0,1.0,1651025746963455.0,2
1253,-4.0,-44.0,0.0,-2.0,-2.0,-1.0,-1.0,-1.0,1651025746963455.0,2
1254,6.0,37.0,1.0,-5.0,-46.0,-13.0,-2.0,1.0,1651025746979538.0,2
1255,-5.0,-28.0,-2.0,3.0,52.0,12.0,0.0,-1.0,1651025746979538.0,2
1256,7.0,10.0,0.0,2.0,-9.0,2.0,2.0,1.0,1651025746981497.0,2
1257,3.0,6.0,2.0,0.0,-5.0,-4.0,-1.0,0.0,1651025746981497.0,2
1258,1.0,2.0,-4.0,-1.0,-1.0,1.0,1.0,0.0,1651025747001843.0,2
1259,3.0,18.0,3.0,-2.0,-18.0,-6.0,-1.0,1.0,1651025747001843.0,2
1260,-6.0,-28.0,-8.0,0.0,6.0,0.0,0.0,-2.0,1651025747003770.0,2
1261,-11.0,19.0,3.0,-1.0,-4.0,2.0,-2.0,-3.0,1651025747003770.0,2
1262,-6.0,-17.0,2.0,2.0,9.0,1.0,-2.0,-2.0,1651025747015961.0,2
1263,1.0,-23.0,-4.0,-2.0,-10.0,-2.0,-2.0,-1.0,1651025747015961.0,2
1264,0.0,-10.0,-6.0,-2.0,6.0,1.0,-1.0,0.0,1651025747022879.0,2
1265,-5.0,-31.0,-5.0,-3.0,-7.0,-4.0,0.0,-2.0,1651025747022879.0,2
1266,1.0,-9.0,2.0,2.0,13.0,4.0,-1.0,1.0,1651025747039842.0,2
1267,-3.0,14.0,2.0,-1.0,-2.0,-2.0,0.0,-2.0,1651025747039842.0,2
1268,0.0,5.0,5.0,-2.0,-10.0,-2.0,-2.0,-1.0,1651025747040831.0,2
1269,4.0,-12.0,-6.0,0.0,2.0,-1.0,0.0,1.0,1651025747040831.0,2
1270,0.0,-5.0,-1.0,1.0,8.0,2.0,2.0,1.0,1651025747062512.0,2
1271,-1.0,-9.0,0.0,-2.0,-18.0,-3.0,-1.0,1.0,1651025747062512.0,2
1272,1.0,12.0,4.0,4.0,12.0,-1.0,0.0,0.0,1651025747063511.0,2
1273,-1.0,27.0,2.0,4.0,10.0,1.0,-1.0,1.0,1651025747063511.0,2
1274,5.0,4.0,2.0,-1.0,3.0,3.0,1.0,1.0,1651025747075591.0,2
1275,1.0,2.0,-4.0,-6.0,-12.0,-3.0,-3.0,-2.0,1651025747075591.0,2
1276,-2.0,-12.0,-4.0,-7.0,-43.0,-13.0,-2.0,-2.0,1651025747084506.0,2
1277,0.0,32.0,4.0,0.0,45.0,11.0,0.0,-1.0,1651025747084506.0,2
1278,-5.0,-12.0,0.0,7.0,11.0,7.0,2.0,2.0,1651025747099943.0,2
1279,-7.0,-40.0,0.0,-1.0,-16.0,-6.0,-2.0,-3.0,1651025747099943.0,2
1280,3.0,-2.0,-1.0,-1.0,2.0,2.0,0.0,0.0,1651025747100927.0,2
1281,-6.0,-1.0,-1.0,-1.0,-13.0,-4.0,-1.0,-1.0,1651025747100927.0,2
1282,-4.0,-10.0,-4.0,-6.0,-2.0,-3.0,0.0,-1.0,1651025747121939.0,2
1283,3.0,8.0,-2.0,0.0,3.0,2.0,0.0,0.0,1651025747121939.0,2
1284,-4.0,-2.0,1.0,1.0,5.0,1.0,1.0,-1.0,1651025747123866.0,2
1285,3.0,-1.0,2.0,2.0,-9.0,-2.0,0.0,-1.0,1651025747123866.0,2
1286,2.0,-26.0,-7.0,-2.0,6.0,1.0,-1.0,0.0,1651025747135901.0,2
1287,-2.0,56.0,8.0,-1.0,-6.0,0.0,-1.0,2.0,1651025747135901.0,2
1288,2.0,-10.0,-8.0,-2.0,-6.0,-2.0,-2.0,0.0,1651025747144833.0,2
1289,0.0,9.0,2.0,5.0,20.0,2.0,-3.0,-1.0,1651025747144833.0,2
1290,-3.0,4.0,-1.0,1.0,-7.0,-1.0,-2.0,-2.0,1651025747159952.0,2
1291,-1.0,3.0,-4.0,0.0,-1.0,-1.0,0.0,0.0,1651025747159952.0,2
1292,0.0,6.0,4.0,-1.0,1.0,2.0,0.0,-1.0,1651025747160894.0,2
1293,2.0,-14.0,-1.0,-3.0,-9.0,-1.0,0.0,1.0,1651025747160894.0,2
1294,4.0,15.0,1.0,-1.0,0.0,-2.0,-1.0,1.0,1651025747181894.0,2
1295,5.0,12.0,2.0,3.0,4.0,1.0,3.0,4.0,1651025747181894.0,2
1296,-5.0,-8.0,-3.0,-1.0,9.0,2.0,0.0,-2.0,1651025747183822.0,2
1297,1.0,-9.0,-1.0,1.0,-8.0,-3.0,2.0,-2.0,1651025747183822.0,2
1298,2.0,24.0,3.0,-2.0,-2.0,-3.0,-1.0,-2.0,1651025747195837.0,2
1299,0.0,0.0,-3.0,-2.0,-4.0,-1.0,-1.0,0.0,1651025747195837.0,2
1300,-1.0,17.0,0.0,1.0,13.0,5.0,-1.0,-2.0,1651025747204812.0,2
1301,-3.0,-30.0,-8.0,-3.0,-10.0,-2.0,1.0,-1.0,1651025747204812.0,2
1302,-6.0,-8.0,-1.0,-2.0,-1.0,-1.0,-1.0,-2.0,1651025747219772.0,2
1303,0.0,-6.0,-1.0,-3.0,-27.0,-8.0,-2.0,-3.0,1651025747219772.0,2
1304,1.0,1.0,-1.0,-2.0,22.0,0.0,-1.0,0.0,1651025747220768.0,2
1305,8.0,-15.0,0.0,3.0,-6.0,8.0,3.0,5.0,1651025747220768.0,2
1306,5.0,46.0,5.0,4.0,15.0,-1.0,0.0,-1.0,1651025747241903.0,2
1307,-2.0,-17.0,-2.0,1.0,3.0,1.0,-1.0,-5.0,1651025747241903.0,2
1308,-2.0,18.0,0.0,-1.0,-8.0,-4.0,-1.0,0.0,1651025747243830.0,2
1309,4.0,14.0,1.0,-4.0,-11.0,-4.0,0.0,2.0,1651025747243830.0,2
1310,4.0,-6.0,-1.0,-4.0,-3.0,-3.0,-1.0,0.0,1651025747255866.0,2
1311,-1.0,3.0,1.0,1.0,9.0,3.0,-1.0,-1.0,1651025747255866.0,2
1312,1.0,-3.0,2.0,1.0,-1.0,1.0,0.0,0.0,1651025747264836.0,2
1313,1.0,2.0,-2.0,-6.0,-4.0,-4.0,-1.0,-2.0,1651025747264836.0,2
1314,3.0,34.0,4.0,0.0,-2.0,0.0,0.0,3.0,1651025747279927.0,2
1315,-6.0,-17.0,-9.0,-4.0,2.0,-2.0,-5.0,-2.0,1651025747279927.0,2
1316,1.0,-6.0,0.0,-1.0,-6.0,0.0,1.0,0.0,1651025747280859.0,2
1317,-2.0,2.0,-1.0,-2.0,-13.0,-5.0,-2.0,0.0,1651025747280859.0,2
1318,-1.0,-1.0,1.0,-1.0,7.0,5.0,0.0,0.0,1651025747301951.0,2
1319,2.0,2.0,0.0,6.0,17.0,4.0,2.0,2.0,1651025747301951.0,2
1320,1.0,-1.0,2.0,1.0,-8.0,-2.0,1.0,2.0,1651025747303905.0,2
1321,-2.0,2.0,-3.0,-1.0,-1.0,-3.0,-1.0,-3.0,1651025747303905.0,2
1322,-1.0,-19.0,-3.0,-5.0,-8.0,-3.0,-1.0,0.0,1651025747315913.0,2
1323,-2.0,1.0,0.0,-4.0,-14.0,-3.0,-1.0,-2.0,1651025747315913.0,2
1324,6.0,-7.0,2.0,0.0,0.0,-1.0,0.0,0.0,1651025747324822.0,2
1325,-9.0,5.0,-3.0,1.0,16.0,6.0,-2.0,-1.0,1651025747324822.0,2
1326,-8.0,-32.0,-4.0,2.0,-6.0,-2.0,0.0,-3.0,1651025747339897.0,2
1327,2.0,9.0,5.0,1.0,3.0,1.0,1.0,0.0,1651025747339897.0,2
1328,2.0,-1.0,0.0,1.0,-7.0,-2.0,-2.0,1.0,1651025747341919.0,2
1329,4.0,11.0,6.0,1.0,-3.0,-1.0,1.0,0.0,1651025747341919.0,2
1330,1.0,0.0,-2.0,-3.0,-1.0,0.0,0.0,-1.0,1651025747362056.0,2
1331,-1.0,-3.0,0.0,-1.0,0.0,-2.0,0.0,-1.0,1651025747362056.0,2
1332,-11.0,-19.0,-4.0,-3.0,-4.0,3.0,-2.0,-3.0,1651025747363988.0,2
1333,2.0,12.0,2.0,1.0,-1.0,-5.0,-1.0,0.0,1651025747363988.0,2
1334,-4.0,-2.0,-1.0,3.0,14.0,5.0,-1.0,-2.0,1651025747376168.0,2
1335,0.0,1.0,-4.0,-3.0,-6.0,-3.0,0.0,0.0,1651025747376168.0,2
1336,-1.0,0.0,5.0,1.0,-3.0,-4.0,0.0,0.0,1651025747384150.0,2
1337,-1.0,-9.0,-5.0,-2.0,-3.0,1.0,-1.0,0.0,1651025747384150.0,2
1338,3.0,2.0,1.0,-1.0,-8.0,-5.0,0.0,2.0,1651025747400111.0,2
1339,0.0,1.0,1.0,-1.0,4.0,2.0,-1.0,-1.0,1651025747400111.0,2
1340,-4.0,1.0,-1.0,-1.0,3.0,-1.0,-1.0,-3.0,1651025747401105.0,2
1341,-3.0,1.0,0.0,-2.0,-1.0,-2.0,-1.0,-3.0,1651025747401105.0,2
1342,2.0,0.0,1.0,-2.0,-9.0,-2.0,-1.0,0.0,1651025747423060.0,2
1343,-2.0,-5.0,-2.0,2.0,19.0,4.0,0.0,0.0,1651025747423060.0,2
1344,2.0,9.0,-2.0,0.0,-12.0,-3.0,-3.0,0.0,1651025747424043.0,2
1345,-1.0,-14.0,-4.0,0.0,11.0,1.0,0.0,-1.0,1651025747424043.0,2
1346,-2.0,-4.0,-3.0,-1.0,2.0,2.0,0.0,-1.0,1651025747436132.0,2
1347,1.0,1.0,-2.0,-4.0,-18.0,-4.0,0.0,-1.0,1651025747436132.0,2
1348,4.0,34.0,2.0,2.0,10.0,-3.0,-1.0,-1.0,1651025747445112.0,2
1349,5.0,5.0,1.0,-2.0,2.0,1.0,0.0,0.0,1651025747445112.0,2
1350,0.0,0.0,1.0,-1.0,-1.0,-3.0,-1.0,-2.0,1651025747460072.0,2
1351,2.0,12.0,0.0,0.0,-4.0,1.0,-2.0,-1.0,1651025747460072.0,2
1352,-6.0,-6.0,0.0,1.0,2.0,-1.0,-1.0,-1.0,1651025747462077.0,2
1353,3.0,13.0,1.0,-3.0,-21.0,-5.0,0.0,1.0,1651025747462077.0,2
1354,-3.0,-12.0,-5.0,3.0,25.0,5.0,0.0,-2.0,1651025747482230.0,2
1355,6.0,21.0,7.0,0.0,-3.0,-2.0,-1.0,0.0,1651025747482230.0,2
1356,-1.0,-8.0,-13.0,-2.0,-2.0,0.0,0.0,-1.0,1651025747483252.0,2
1357,-3.0,-8.0,-2.0,-2.0,-5.0,-1.0,0.0,0.0,1651025747483252.0,2
1358,-4.0,-10.0,-1.0,-5.0,-21.0,-4.0,-2.0,-2.0,1651025747496239.0,2
1359,-1.0,-18.0,2.0,1.0,5.0,-2.0,0.0,1.0,1651025747496239.0,2
1360,0.0,11.0,3.0,2.0,21.0,5.0,0.0,0.0,1651025747512326.0,2
1361,-3.0,-9.0,1.0,0.0,-8.0,-3.0,-1.0,1.0,1651025747512326.0,2
1362,6.0,32.0,2.0,2.0,4.0,3.0,0.0,2.0,1651025747519378.0,2
1363,-7.0,-6.0,-6.0,0.0,2.0,2.0,0.0,-4.0,1651025747519378.0,2
1364,-1.0,-9.0,4.0,-4.0,-10.0,-6.0,0.0,0.0,1651025747521332.0,2
1365,-4.0,-18.0,-6.0,-5.0,-8.0,1.0,-2.0,-2.0,1651025747521332.0,2
1366,2.0,5.0,3.0,5.0,14.0,-1.0,1.0,-1.0,1651025747542316.0,2
1367,-4.0,-4.0,-3.0,1.0,-1.0,0.0,-1.0,-2.0,1651025747542316.0,2
1368,3.0,-9.0,-1.0,2.0,2.0,2.0,1.0,0.0,1651025747543246.0,2
1369,0.0,8.0,-1.0,-1.0,-3.0,-3.0,1.0,1.0,1651025747543246.0,2
1370,-1.0,-4.0,5.0,1.0,9.0,1.0,-1.0,0.0,1651025747564257.0,2
1371,0.0,-17.0,-9.0,0.0,-3.0,1.0,2.0,-2.0,1651025747564257.0,2
1372,5.0,8.0,1.0,-2.0,-4.0,-1.0,1.0,0.0,1651025747566185.0,2
1373,-2.0,-7.0,1.0,-5.0,-8.0,-2.0,2.0,-1.0,1651025747566185.0,2
1374,0.0,8.0,-5.0,-7.0,-2.0,-4.0,-1.0,0.0,1651025747580215.0,2
1375,-2.0,-10.0,-5.0,1.0,17.0,4.0,1.0,1.0,1651025747580215.0,2
1376,2.0,17.0,4.0,-6.0,-3.0,4.0,-1.0,1.0,1651025747581145.0,2
1377,-3.0,-31.0,-10.0,0.0,8.0,1.0,-1.0,-2.0,1651025747581145.0,2
1378,-4.0,-9.0,1.0,4.0,-7.0,-4.0,-3.0,-3.0,1651025747602146.0,2
1379,3.0,15.0,9.0,-2.0,-12.0,-2.0,-1.0,1.0,1651025747602146.0,2
1380,-7.0,-38.0,-8.0,-2.0,9.0,0.0,-1.0,-1.0,1651025747604084.0,0
1381,2.0,28.0,4.0,0.0,4.0,4.0,-2.0,-3.0,1651025747604084.0,0
1382,7.0,2.0,-9.0,4.0,-5.0,4.0,10.0,7.0,1651025747625056.0,0
1383,-17.0,-46.0,-23.0,-13.0,-3.0,-9.0,-7.0,-11.0,1651025747625056.0,0
1384,-1.0,46.0,15.0,7.0,-5.0,0.0,-4.0,-6.0,1651025747626024.0,3
1385,15.0,-31.0,-5.0,11.0,22.0,5.0,3.0,7.0,1651025747626024.0,3
1386,-26.0,3.0,8.0,-7.0,-24.0,-4.0,6.0,5.0,1651025747640061.0,3
1387,4.0,15.0,16.0,-3.0,3.0,-2.0,0.0,-1.0,1651025747640061.0,3
1388,8.0,36.0,-11.0,8.0,20.0,5.0,0.0,2.0,1651025747640984.0,3
1389,-21.0,-50.0,-1.0,1.0,-2.0,0.0,-4.0,-3.0,1651025747640984.0,3
1390,9.0,6.0,16.0,19.0,17.0,6.0,-1.0,-1.0,1651025747669936.0,3
1391,-2.0,-14.0,-6.0,-5.0,-8.0,4.0,19.0,22.0,1651025747669936.0,3
1392,5.0,-20.0,5.0,-7.0,-28.0,-14.0,-22.0,-18.0,1651025747670869.0,3
1393,6.0,19.0,-13.0,2.0,13.0,-2.0,-1.0,2.0,1651025747670869.0,3
1394,8.0,-2.0,8.0,-1.0,-17.0,1.0,-9.0,-7.0,1651025747684910.0,3
1395,-10.0,2.0,-15.0,-9.0,4.0,-1.0,-4.0,-6.0,1651025747684910.0,3
1396,18.0,-5.0,-29.0,-5.0,1.0,6.0,1.0,-5.0,1651025747685897.0,3
1397,-12.0,22.0,3.0,-16.0,-7.0,-5.0,15.0,10.0,1651025747685897.0,3
1398,0.0,-1.0,18.0,4.0,-3.0,-36.0,-8.0,2.0,1651025747698927.0,3
1399,12.0,21.0,34.0,9.0,0.0,27.0,-1.0,-10.0,1651025747698927.0,3
1400,9.0,-2.0,9.0,-4.0,-1.0,2.0,-2.0,1.0,1651025747706838.0,3
1401,3.0,13.0,-7.0,-10.0,-8.0,-3.0,10.0,22.0,1651025747706838.0,3
1402,15.0,-16.0,-22.0,-7.0,3.0,12.0,-3.0,-13.0,1651025747721799.0,3
1403,-14.0,-5.0,19.0,33.0,11.0,-21.0,6.0,-5.0,1651025747721799.0,3
1404,32.0,5.0,15.0,3.0,-1.0,3.0,21.0,18.0,1651025747723793.0,3
1405,-53.0,18.0,-25.0,-14.0,-18.0,-14.0,-67.0,-29.0,1651025747723793.0,3
1406,37.0,-31.0,-14.0,-21.0,12.0,-4.0,30.0,38.0,1651025747744803.0,3
1407,-8.0,10.0,-17.0,6.0,13.0,16.0,-55.0,-35.0,1651025747744803.0,3
1408,6.0,-15.0,17.0,32.0,1.0,-4.0,6.0,0.0,1651025747745760.0,3
1409,-23.0,18.0,60.0,15.0,1.0,-3.0,15.0,-19.0,1651025747745760.0,3
1410,-8.0,-5.0,-49.0,-23.0,-7.0,25.0,29.0,4.0,1651025747758768.0,3
1411,-16.0,2.0,15.0,3.0,-10.0,-33.0,-85.0,-12.0,1651025747758768.0,3
1412,53.0,32.0,17.0,16.0,6.0,7.0,58.0,26.0,1651025747765749.0,3
1413,18.0,28.0,-19.0,-20.0,-22.0,-7.0,10.0,19.0,1651025747765749.0,3
1414,-26.0,-44.0,1.0,32.0,30.0,18.0,-74.0,-41.0,1651025747781705.0,3
1415,34.0,4.0,-28.0,-9.0,7.0,-25.0,47.0,8.0,1651025747781705.0,3
1416,-13.0,-12.0,-17.0,-36.0,-5.0,42.0,52.0,18.0,1651025747783632.0,3
1417,-6.0,-19.0,-3.0,18.0,-25.0,-19.0,-80.0,-36.0,1651025747783632.0,3
1418,-8.0,44.0,30.0,-49.0,-6.0,3.0,105.0,44.0,1651025747804644.0,3
1419,-91.0,-1.0,45.0,81.0,28.0,24.0,8.0,-20.0,1651025747804644.0,3
1420,64.0,-19.0,-10.0,-19.0,-20.0,-39.0,-52.0,3.0,1651025747806614.0,3
1421,34.0,-10.0,-17.0,-36.0,1.0,-10.0,105.0,15.0,1651025747806614.0,3
1422,-19.0,10.0,-37.0,-77.0,8.0,11.0,-65.0,15.0,1651025747817905.0,3
1423,15.0,27.0,62.0,64.0,47.0,36.0,-36.0,-7.0,1651025747817905.0,3
1424,-24.0,13.0,-7.0,-55.0,-10.0,35.0,127.0,44.0,1651025747826940.0,3
1425,-57.0,-36.0,-36.0,-37.0,-12.0,4.0,-31.0,-18.0,1651025747826940.0,3
1426,45.0,-1.0,39.0,59.0,-17.0,-55.0,-4.0,-18.0,1651025747842436.0,3
1427,43.0,14.0,-32.0,-47.0,-23.0,-23.0,75.0,28.0,1651025747842436.0,3
1428,-53.0,-26.0,11.0,35.0,26.0,6.0,-128.0,-42.0,1651025747843437.0,3
1429,76.0,32.0,5.0,-14.0,10.0,48.0,39.0,38.0,1651025747843437.0,3
1430,-2.0,6.0,0.0,39.0,14.0,17.0,46.0,11.0,1651025747864568.0,3
1431,-3.0,-18.0,-19.0,-39.0,-40.0,-3.0,19.0,5.0,1651025747864568.0,3
1432,-48.0,-25.0,-6.0,-18.0,-7.0,-47.0,-27.0,-30.0,1651025747866519.0,3
1433,39.0,24.0,38.0,58.0,34.0,63.0,2.0,4.0,1651025747866519.0,3
1434,-23.0,-1.0,1.0,35.0,-5.0,-43.0,29.0,-9.0,1651025747878532.0,3
1435,3.0,-4.0,-4.0,-7.0,5.0,3.0,10.0,35.0,1651025747878532.0,3
1436,-42.0,-23.0,-40.0,-55.0,-33.0,28.0,-52.0,-47.0,1651025747893487.0,3
1437,-40.0,2.0,23.0,30.0,28.0,-15.0,8.0,-7.0,1651025747893487.0,3
1438,-7.0,8.0,13.0,5.0,5.0,39.0,-2.0,-2.0,1651025747902398.0,3
1439,53.0,-8.0,8.0,45.0,27.0,-21.0,52.0,26.0,1651025747902398.0,3
1440,-52.0,0.0,-23.0,-29.0,-23.0,-51.0,-54.0,-5.0,1651025747903396.0,3
1441,25.0,5.0,4.0,15.0,-15.0,-6.0,18.0,-4.0,1651025747903396.0,3
1442,12.0,5.0,-3.0,-31.0,-32.0,-25.0,-76.0,-31.0,1651025747924379.0,3
1443,14.0,-3.0,-56.0,-97.0,-20.0,29.0,93.0,43.0,1651025747924379.0,3
1444,-22.0,0.0,44.0,83.0,28.0,-16.0,-74.0,-45.0,1651025747926406.0,3
1445,-35.0,-7.0,33.0,19.0,-7.0,-50.0,12.0,0.0,1651025747926406.0,3
1446,29.0,1.0,-18.0,-36.0,-11.0,26.0,-5.0,-5.0,1651025747938409.0,3
1447,-21.0,-22.0,-34.0,2.0,4.0,21.0,51.0,-3.0,1651025747938409.0,3
1448,-9.0,-3.0,-15.0,-44.0,-6.0,23.0,47.0,41.0,1651025747947317.0,3
1449,5.0,17.0,33.0,59.0,31.0,-30.0,-78.0,-26.0,1651025747947317.0,3
1450,-63.0,-14.0,-22.0,-33.0,-24.0,-21.0,-12.0,-34.0,1651025747962304.0,3
1451,16.0,14.0,23.0,27.0,10.0,25.0,-47.0,-10.0,1651025747962304.0,3
1452,26.0,-31.0,-38.0,-29.0,-13.0,-1.0,46.0,36.0,1651025747963275.0,3
1453,-22.0,-13.0,1.0,-11.0,-7.0,-20.0,-3.0,-19.0,1651025747963275.0,3
1454,-2.0,11.0,3.0,4.0,-4.0,-9.0,25.0,38.0,1651025747984515.0,3
1455,-15.0,-8.0,-7.0,-9.0,-5.0,22.0,-22.0,-45.0,1651025747984515.0,3
1456,-7.0,9.0,2.0,15.0,4.0,-4.0,41.0,20.0,1651025747986469.0,3
1457,60.0,0.0,-15.0,-14.0,0.0,33.0,-42.0,-4.0,1651025747986469.0,3
1458,10.0,1.0,7.0,4.0,-2.0,15.0,-14.0,-7.0,1651025747998471.0,3
1459,4.0,-3.0,-11.0,-5.0,-3.0,-29.0,-11.0,10.0,1651025747998471.0,3
1460,-19.0,11.0,20.0,24.0,0.0,-55.0,18.0,-14.0,1651025748006840.0,3
1461,-7.0,-29.0,-36.0,-47.0,1.0,61.0,32.0,8.0,1651025748006840.0,3
1462,-7.0,13.0,22.0,22.0,13.0,14.0,7.0,-5.0,1651025748021953.0,3
1463,-50.0,7.0,-1.0,-5.0,-26.0,-23.0,-60.0,-21.0,1651025748021953.0,3
1464,63.0,-14.0,-21.0,-6.0,15.0,-14.0,24.0,19.0,1651025748023908.0,3
1465,0.0,-9.0,5.0,7.0,8.0,27.0,8.0,-10.0,1651025748023908.0,3
1466,6.0,-10.0,-23.0,-12.0,0.0,-20.0,-33.0,-5.0,1651025748044356.0,3
1467,-2.0,3.0,14.0,-26.0,-13.0,-11.0,41.0,11.0,1651025748044356.0,3
1468,-69.0,12.0,39.0,78.0,26.0,6.0,-53.0,-31.0,1651025748046350.0,3
1469,25.0,7.0,-21.0,-36.0,-22.0,-18.0,38.0,23.0,1651025748046350.0,3
1470,-2.0,-9.0,-10.0,-9.0,-3.0,8.0,27.0,7.0,1651025748058352.0,3
1471,1.0,22.0,1.0,-21.0,-4.0,-8.0,-22.0,14.0,1651025748058352.0,3
1472,9.0,-4.0,13.0,9.0,1.0,9.0,14.0,-14.0,1651025748067890.0,3
1473,-47.0,-16.0,-22.0,-30.0,-3.0,11.0,42.0,-9.0,1651025748067890.0,3
1474,36.0,8.0,13.0,19.0,-10.0,-11.0,-48.0,0.0,1651025748081409.0,3
1475,-34.0,-13.0,-15.0,-17.0,-3.0,-3.0,-3.0,-7.0,1651025748081409.0,3
1476,39.0,5.0,15.0,11.0,3.0,39.0,30.0,23.0,1651025748082339.0,3
1477,-49.0,5.0,0.0,7.0,2.0,-40.0,-16.0,-1.0,1651025748082339.0,3
1478,-50.0,-10.0,-4.0,11.0,15.0,15.0,9.0,-13.0,1651025748104410.0,3
1479,46.0,0.0,-8.0,-30.0,-11.0,2.0,-12.0,14.0,1651025748104410.0,3
1480,-10.0,-5.0,-10.0,27.0,2.0,-5.0,9.0,-14.0,1651025748104410.0,3
1481,18.0,13.0,25.0,19.0,-13.0,-22.0,-31.0,15.0,1651025748104410.0,3
1482,-12.0,15.0,14.0,-7.0,7.0,1.0,-2.0,1.0,1651025748126867.0,3
1483,14.0,-11.0,-4.0,20.0,10.0,5.0,-7.0,-7.0,1651025748126867.0,3
1484,-9.0,-2.0,-2.0,-2.0,2.0,6.0,-4.0,-13.0,1651025748126867.0,3
1485,-39.0,10.0,-19.0,-29.0,1.0,11.0,33.0,1.0,1651025748126867.0,3
1486,88.0,-3.0,13.0,40.0,-4.0,-32.0,-28.0,22.0,1651025748141856.0,3
1487,8.0,-16.0,-2.0,-13.0,-13.0,0.0,-16.0,-14.0,1651025748141856.0,3
1488,4.0,-6.0,-23.0,-29.0,-7.0,-6.0,-21.0,-5.0,1651025748141856.0,3
1489,-1.0,-2.0,-1.0,14.0,8.0,6.0,3.0,-5.0,1651025748141856.0,3
1490,-8.0,-3.0,-6.0,-17.0,2.0,13.0,12.0,-2.0,1651025748163867.0,3
1491,-19.0,13.0,16.0,24.0,6.0,-15.0,49.0,4.0,1651025748163867.0,3
1492,50.0,10.0,7.0,-18.0,-4.0,25.0,-47.0,9.0,1651025748164867.0,3
1493,-12.0,-8.0,-19.0,9.0,0.0,-8.0,9.0,3.0,1651025748164867.0,3
1494,25.0,1.0,10.0,35.0,24.0,14.0,32.0,12.0,1651025748186854.0,3
1495,5.0,7.0,2.0,19.0,9.0,-8.0,-53.0,-3.0,1651025748186854.0,3
1496,-84.0,1.0,-4.0,-32.0,-20.0,-22.0,17.0,-17.0,1651025748186854.0,3
1497,25.0,-20.0,20.0,39.0,18.0,23.0,-2.0,-12.0,1651025748186854.0,3
1498,-22.0,-9.0,-17.0,-9.0,-9.0,1.0,2.0,-11.0,1651025748202767.0,3
1499,-5.0,3.0,3.0,5.0,9.0,3.0,27.0,4.0,1651025748202767.0,3
1500,8.0,21.0,3.0,6.0,6.0,5.0,22.0,16.0,1651025748203764.0,3
1501,-3.0,10.0,-5.0,-25.0,-19.0,-16.0,-50.0,-11.0,1651025748203764.0,3
1502,-16.0,-31.0,-9.0,-1.0,-11.0,-5.0,13.0,-13.0,1651025748223710.0,3
1503,-20.0,6.0,-5.0,-21.0,-15.0,-29.0,1.0,5.0,1651025748223710.0,3
1504,33.0,-20.0,-14.0,-6.0,-2.0,26.0,-8.0,1.0,1651025748224707.0,3
1505,-21.0,6.0,5.0,1.0,14.0,15.0,-11.0,4.0,1651025748224707.0,3
1506,-10.0,6.0,2.0,-6.0,-3.0,3.0,48.0,0.0,1651025748246808.0,3
1507,32.0,2.0,-41.0,-86.0,-33.0,-24.0,-45.0,7.0,1651025748246808.0,3
1508,15.0,7.0,76.0,99.0,41.0,4.0,7.0,6.0,1651025748246808.0,3
1509,-13.0,9.0,0.0,-23.0,2.0,10.0,48.0,10.0,1651025748246808.0,3
1510,-20.0,20.0,3.0,-5.0,-3.0,-14.0,14.0,-7.0,1651025748261756.0,3
1511,42.0,-55.0,-11.0,8.0,-2.0,-5.0,-74.0,-29.0,1651025748261756.0,3
1512,0.0,15.0,-19.0,-33.0,-10.0,-8.0,10.0,11.0,1651025748261756.0,3
1513,12.0,-2.0,8.0,4.0,3.0,11.0,39.0,7.0,1651025748261756.0,3
1514,-14.0,8.0,5.0,6.0,11.0,6.0,-22.0,-1.0,1651025748284382.0,3
1515,-17.0,7.0,-19.0,-29.0,-12.0,6.0,30.0,0.0,1651025748284382.0,3
1516,0.0,-7.0,15.0,30.0,11.0,7.0,31.0,0.0,1651025748284382.0,3
1517,16.0,0.0,-5.0,3.0,-9.0,-18.0,-30.0,-3.0,1651025748284382.0,3
1518,11.0,1.0,-19.0,-27.0,-7.0,-7.0,-5.0,21.0,1651025748306394.0,3
1519,-84.0,-8.0,24.0,35.0,5.0,-3.0,-8.0,-16.0,1651025748306394.0,3
1520,34.0,-20.0,-43.0,-44.0,-17.0,-30.0,3.0,-21.0,1651025748307344.0,3
1521,-5.0,4.0,-8.0,-8.0,-14.0,30.0,-15.0,14.0,1651025748307344.0,3
1522,-46.0,-11.0,-1.0,-3.0,18.0,20.0,51.0,-18.0,1651025748321344.0,3
1523,22.0,20.0,18.0,23.0,28.0,-8.0,-84.0,-3.0,1651025748321344.0,3
1524,-55.0,-3.0,-1.0,8.0,9.0,10.0,16.0,5.0,1651025748322283.0,3
1525,4.0,4.0,-3.0,-7.0,-6.0,-3.0,24.0,20.0,1651025748322283.0,3
1526,53.0,1.0,-14.0,-42.0,-38.0,-28.0,-83.0,-11.0,1651025748343932.0,3
1527,18.0,-2.0,27.0,49.0,-9.0,-7.0,17.0,-9.0,1651025748343932.0,3
1528,-12.0,9.0,-13.0,-29.0,-2.0,11.0,31.0,4.0,1651025748344938.0,3
1529,45.0,9.0,12.0,13.0,0.0,-25.0,7.0,14.0,1651025748344938.0,3
1530,3.0,-20.0,-7.0,11.0,9.0,10.0,-39.0,-18.0,1651025748366849.0,3
1531,16.0,-4.0,-14.0,-37.0,-14.0,-4.0,32.0,10.0,1651025748366849.0,3
1532,-7.0,9.0,28.0,27.0,9.0,-4.0,-42.0,3.0,1651025748366849.0,3
1533,-24.0,-4.0,-3.0,8.0,7.0,8.0,19.0,-15.0,1651025748366849.0,3
1534,10.0,5.0,11.0,13.0,1.0,-5.0,8.0,14.0,1651025748381838.0,3
1535,19.0,-5.0,-10.0,-10.0,-1.0,11.0,3.0,-6.0,1651025748381838.0,3
1536,-24.0,5.0,-5.0,-13.0,-7.0,4.0,16.0,-4.0,1651025748381838.0,3
1537,15.0,-7.0,-20.0,-41.0,-14.0,-47.0,-8.0,15.0,1651025748381838.0,3
1538,-23.0,-19.0,32.0,54.0,15.0,13.0,-39.0,-19.0,1651025748403754.0,3
1539,1.0,4.0,2.0,13.0,0.0,13.0,20.0,-3.0,1651025748403754.0,3
1540,-11.0,6.0,-3.0,-19.0,-12.0,-18.0,8.0,10.0,1651025748404766.0,3
1541,18.0,-18.0,-12.0,-12.0,1.0,8.0,-24.0,-12.0,1651025748404766.0,3
1542,12.0,14.0,-8.0,-10.0,-3.0,24.0,21.0,15.0,1651025748426156.0,3
1543,0.0,4.0,12.0,16.0,19.0,6.0,29.0,15.0,1651025748426156.0,3
1544,12.0,0.0,-5.0,-5.0,-1.0,26.0,-38.0,-8.0,1651025748427089.0,3
1545,-44.0,-5.0,0.0,6.0,0.0,-32.0,-13.0,-10.0,1651025748427089.0,3
1546,17.0,-13.0,-11.0,-19.0,-21.0,-19.0,0.0,-13.0,1651025748441107.0,3
1547,-5.0,2.0,5.0,-9.0,-1.0,13.0,2.0,-3.0,1651025748441107.0,3
1548,5.0,3.0,-1.0,2.0,11.0,-17.0,2.0,3.0,1651025748442055.0,3
1549,-22.0,-4.0,2.0,11.0,-1.0,8.0,-4.0,-2.0,1651025748442055.0,3
1550,-12.0,8.0,-11.0,-17.0,-2.0,3.0,21.0,5.0,1651025748463983.0,3
1551,-11.0,7.0,10.0,-1.0,0.0,2.0,-3.0,-6.0,1651025748463983.0,3
1552,18.0,3.0,12.0,23.0,6.0,-1.0,-29.0,1.0,1651025748464980.0,3
1553,2.0,-1.0,6.0,17.0,11.0,-2.0,14.0,2.0,1651025748464980.0,3
1554,-12.0,4.0,-13.0,-17.0,-9.0,8.0,3.0,1.0,1651025748485934.0,3
1555,-9.0,-14.0,-16.0,-25.0,-16.0,-1.0,20.0,4.0,1651025748485934.0,3
1556,-14.0,-1.0,-6.0,-16.0,-16.0,-20.0,22.0,-5.0,1651025748486921.0,3
1557,-15.0,9.0,-1.0,-6.0,-8.0,15.0,-49.0,-19.0,1651025748486921.0,3
1558,-4.0,-11.0,1.0,-3.0,6.0,-3.0,2.0,-1.0,1651025748501886.0,3
1559,-29.0,14.0,22.0,51.0,32.0,26.0,35.0,18.0,1651025748501886.0,3
1560,-9.0,-5.0,-7.0,-24.0,-22.0,-1.0,-32.0,-15.0,1651025748501886.0,3
1561,51.0,2.0,-1.0,5.0,7.0,-18.0,24.0,16.0,1651025748501886.0,3
1562,0.0,0.0,9.0,28.0,8.0,4.0,-25.0,3.0,1651025748532017.0,3
1563,-8.0,-5.0,-2.0,-3.0,-3.0,-5.0,-23.0,-9.0,1651025748532017.0,3
1564,-31.0,1.0,1.0,14.0,20.0,16.0,25.0,-3.0,1651025748532948.0,3
1565,39.0,-8.0,-7.0,-14.0,-12.0,-18.0,-15.0,6.0,1651025748532948.0,3
1566,-31.0,1.0,-8.0,-13.0,-8.0,5.0,9.0,-9.0,1651025748546915.0,3
1567,36.0,0.0,-8.0,-25.0,-16.0,-4.0,-1.0,-1.0,1651025748546915.0,3
1568,-5.0,3.0,-5.0,17.0,5.0,-2.0,8.0,22.0,1651025748546915.0,3
1569,-32.0,1.0,4.0,3.0,3.0,16.0,30.0,-23.0,1651025748546915.0,3
1570,-9.0,-12.0,4.0,10.0,10.0,-6.0,0.0,15.0,1651025748561877.0,3
1571,-5.0,-4.0,-3.0,-1.0,1.0,-9.0,-27.0,-17.0,1651025748561877.0,3
1572,9.0,4.0,-13.0,-38.0,-27.0,-26.0,-17.0,-10.0,1651025748561877.0,3
1573,-5.0,0.0,-7.0,8.0,19.0,21.0,-1.0,-5.0,1651025748561877.0,3
1574,-14.0,3.0,19.0,20.0,4.0,33.0,11.0,7.0,1651025748584030.0,3
1575,-4.0,5.0,-1.0,-5.0,-13.0,-8.0,0.0,1.0,1651025748584030.0,3
1576,31.0,-1.0,-5.0,1.0,5.0,5.0,-8.0,0.0,1651025748585096.0,3
1577,22.0,-5.0,2.0,-2.0,2.0,-10.0,8.0,-3.0,1651025748585096.0,3
1578,7.0,8.0,4.0,15.0,-3.0,-18.0,23.0,2.0,1651025748606018.0,3
1579,-15.0,8.0,-5.0,-5.0,5.0,5.0,-55.0,-9.0,1651025748606018.0,3
1580,36.0,-15.0,3.0,1.0,-5.0,2.0,10.0,0.0,1651025748606998.0,3
1581,-12.0,8.0,3.0,-11.0,1.0,-1.0,19.0,7.0,1651025748606998.0,3
1582,34.0,6.0,-4.0,-4.0,4.0,-10.0,-49.0,-2.0,1651025748621030.0,3
1583,7.0,-5.0,-7.0,-4.0,-10.0,0.0,16.0,5.0,1651025748621030.0,3
1584,-15.0,13.0,0.0,-7.0,-1.0,-1.0,18.0,2.0,1651025748621960.0,3
1585,39.0,-9.0,-8.0,-10.0,-6.0,-14.0,-4.0,7.0,1651025748621960.0,3
1586,-38.0,2.0,4.0,-2.0,1.0,24.0,27.0,-3.0,1651025748643902.0,3
1587,67.0,13.0,14.0,29.0,13.0,-2.0,-4.0,15.0,1651025748643902.0,3
1588,-9.0,-8.0,-31.0,-56.0,-19.0,-3.0,-5.0,5.0,1651025748644927.0,3
1589,7.0,18.0,51.0,74.0,14.0,6.0,18.0,21.0,1651025748644927.0,3
1590,-15.0,8.0,-6.0,-8.0,7.0,1.0,-5.0,-12.0,1651025748666024.0,3
1591,-14.0,-12.0,-14.0,-18.0,-18.0,-17.0,-8.0,3.0,1651025748666024.0,3
1592,-1.0,-12.0,-4.0,14.0,21.0,7.0,-7.0,-12.0,1651025748666970.0,3
1593,-1.0,6.0,2.0,-8.0,-14.0,-3.0,7.0,-2.0,1651025748666970.0,3
1594,-23.0,-1.0,-1.0,0.0,0.0,-5.0,59.0,5.0,1651025748681918.0,3
1595,52.0,-5.0,-3.0,-11.0,-22.0,5.0,-67.0,0.0,1651025748681918.0,3
1596,-6.0,-4.0,-11.0,-17.0,8.0,-26.0,-31.0,-14.0,1651025748681918.0,3
1597,-29.0,-11.0,1.0,12.0,-3.0,10.0,7.0,-12.0,1651025748681918.0,3
1598,-43.0,10.0,0.0,-15.0,0.0,-22.0,-6.0,3.0,1651025748703920.0,3
1599,4.0,-6.0,-8.0,-2.0,1.0,19.0,49.0,0.0,1651025748703920.0,3
1600,6.0,-9.0,9.0,14.0,-21.0,-39.0,6.0,2.0,1651025748704916.0,3
1601,8.0,0.0,-11.0,-24.0,7.0,84.0,-31.0,-11.0,1651025748704916.0,3
1602,38.0,19.0,7.0,11.0,7.0,3.0,18.0,29.0,1651025748727237.0,3
1603,-32.0,-27.0,-12.0,-12.0,0.0,-9.0,-15.0,-26.0,1651025748727237.0,3
1604,17.0,8.0,13.0,14.0,-4.0,-12.0,-12.0,9.0,1651025748727870.0,3
1605,-27.0,11.0,4.0,12.0,21.0,-15.0,5.0,-3.0,1651025748727870.0,3
1606,38.0,-14.0,-18.0,-29.0,-18.0,-4.0,-10.0,8.0,1651025748741834.0,3
1607,-57.0,10.0,26.0,31.0,14.0,3.0,16.0,9.0,1651025748741834.0,3
1608,36.0,1.0,6.0,37.0,24.0,17.0,1.0,-4.0,1651025748741834.0,3
1609,-17.0,-10.0,-15.0,-18.0,-16.0,-13.0,18.0,4.0,1651025748741834.0,3
1610,-15.0,-13.0,-8.0,-23.0,-9.0,-3.0,-40.0,-14.0,1651025748763895.0,3
1611,33.0,17.0,5.0,12.0,-13.0,-18.0,11.0,-9.0,1651025748763895.0,3
1612,-15.0,7.0,3.0,-4.0,16.0,27.0,8.0,10.0,1651025748764922.0,3
1613,72.0,-6.0,3.0,15.0,18.0,2.0,-9.0,15.0,1651025748764922.0,3
1614,-18.0,10.0,5.0,12.0,-2.0,-31.0,25.0,4.0,1651025748786120.0,3
1615,-5.0,3.0,-2.0,-11.0,-2.0,27.0,-4.0,-6.0,1651025748786120.0,3
1616,75.0,-8.0,-6.0,-17.0,-9.0,33.0,18.0,10.0,1651025748787049.0,3
1617,-30.0,16.0,-1.0,-11.0,-9.0,-14.0,-8.0,18.0,1651025748787049.0,3
1618,11.0,-10.0,-5.0,-10.0,-12.0,15.0,-3.0,-14.0,1651025748801043.0,3
1619,-23.0,11.0,-11.0,-22.0,1.0,-14.0,16.0,13.0,1651025748801043.0,3
1620,9.0,-2.0,38.0,62.0,24.0,9.0,5.0,-3.0,1651025748802046.0,3
1621,-70.0,5.0,-2.0,-1.0,-1.0,-11.0,-19.0,-6.0,1651025748802046.0,3
1622,92.0,-3.0,-4.0,-10.0,-1.0,-9.0,-4.0,6.0,1651025748824045.0,3
1623,-75.0,-12.0,4.0,18.0,6.0,6.0,50.0,1.0,1651025748824045.0,3
1624,-22.0,-5.0,-6.0,-9.0,-14.0,-13.0,-72.0,-22.0,1651025748825039.0,3
1625,10.0,-17.0,-12.0,-15.0,-10.0,-6.0,6.0,0.0,1651025748825039.0,3
1626,-57.0,7.0,8.0,3.0,3.0,-5.0,-16.0,-11.0,1651025748846040.0,3
1627,29.0,-3.0,-11.0,-10.0,-2.0,-1.0,9.0,10.0,1651025748846040.0,3
1628,21.0,0.0,-5.0,-3.0,12.0,-8.0,32.0,15.0,1651025748846981.0,3
1629,-30.0,-8.0,4.0,3.0,-21.0,-31.0,-18.0,-24.0,1651025748846981.0,3
1630,19.0,-1.0,-2.0,-14.0,1.0,52.0,-2.0,8.0,1651025748860964.0,3
1631,1.0,-5.0,-5.0,-1.0,12.0,43.0,14.0,-5.0,1651025748860964.0,3
1632,-22.0,8.0,3.0,9.0,4.0,10.0,14.0,15.0,1651025748861932.0,3
1633,37.0,-14.0,-11.0,-10.0,-14.0,-23.0,-21.0,-9.0,1651025748861932.0,3
1634,-4.0,-5.0,-4.0,4.0,-16.0,-37.0,-6.0,-14.0,1651025748883661.0,3
1635,16.0,8.0,4.0,0.0,14.0,-7.0,-3.0,-1.0,1651025748883661.0,3
1636,-11.0,10.0,-18.0,-36.0,-20.0,2.0,0.0,-1.0,1651025748884659.0,3
1637,-7.0,9.0,28.0,49.0,18.0,7.0,0.0,-1.0,1651025748884659.0,3
1638,-9.0,-13.0,1.0,3.0,8.0,-10.0,-6.0,-9.0,1651025748906774.0,3
1639,23.0,9.0,0.0,-5.0,-3.0,-8.0,7.0,10.0,1651025748906774.0,3
1640,-19.0,-13.0,-20.0,-30.0,-23.0,-6.0,0.0,-3.0,1651025748906774.0,3
1641,4.0,-2.0,-9.0,-15.0,-5.0,-15.0,-9.0,-7.0,1651025748906774.0,3
1642,-1.0,4.0,0.0,-4.0,3.0,5.0,4.0,-1.0,1651025748921804.0,3
1643,4.0,-2.0,9.0,23.0,13.0,-3.0,-10.0,-1.0,1651025748921804.0,3
1644,-6.0,1.0,1.0,-3.0,-2.0,-8.0,6.0,2.0,1651025748921804.0,3
1645,7.0,-3.0,-5.0,-10.0,-10.0,-5.0,-6.0,-3.0,1651025748921804.0,3
1646,4.0,4.0,5.0,11.0,-26.0,43.0,9.0,0.0,1651025748943679.0,3
1647,-7.0,1.0,-3.0,-12.0,1.0,-18.0,-5.0,1.0,1651025748943679.0,3
1648,-17.0,-10.0,-1.0,7.0,28.0,6.0,5.0,-9.0,1651025748944683.0,3
1649,8.0,6.0,5.0,0.0,1.0,-2.0,-4.0,4.0,1651025748944683.0,3
1650,-5.0,4.0,-2.0,5.0,12.0,-17.0,-1.0,1.0,1651025748966644.0,3
1651,-2.0,-4.0,2.0,5.0,-18.0,-5.0,-3.0,-4.0,1651025748966644.0,3
1652,-9.0,0.0,1.0,7.0,-8.0,-3.0,3.0,-5.0,1651025748967614.0,3
1653,-2.0,-2.0,-8.0,-14.0,-6.0,1.0,-4.0,-4.0,1651025748967614.0,3
1654,7.0,2.0,1.0,9.0,17.0,0.0,-4.0,2.0,1651025748981804.0,3
1655,-7.0,-2.0,-2.0,-5.0,-15.0,-11.0,-4.0,-4.0,1651025748981804.0,3
1656,-3.0,1.0,7.0,2.0,4.0,6.0,4.0,1.0,1651025748981804.0,3
1657,3.0,10.0,-3.0,-4.0,18.0,12.0,1.0,-1.0,1651025748981804.0,3
1658,-10.0,-15.0,-4.0,3.0,-10.0,-11.0,-2.0,-2.0,1651025749003965.0,3
1659,0.0,-5.0,0.0,3.0,-10.0,-2.0,-5.0,-1.0,1651025749003965.0,3
1660,-5.0,0.0,-3.0,-7.0,1.0,-7.0,-1.0,-1.0,1651025749004964.0,3
1661,2.0,-1.0,-1.0,-6.0,-4.0,1.0,1.0,-1.0,1651025749004964.0,3
1662,0.0,4.0,2.0,1.0,-10.0,7.0,4.0,0.0,1651025749026736.0,3
1663,2.0,-1.0,-1.0,5.0,27.0,-2.0,-5.0,0.0,1651025749026736.0,3
1664,-4.0,-2.0,-2.0,6.0,-7.0,7.0,2.0,-1.0,1651025749026736.0,3
1665,-3.0,-3.0,-2.0,-3.0,1.0,9.0,4.0,-1.0,1651025749026736.0,3
1666,3.0,5.0,1.0,-3.0,-4.0,-17.0,-5.0,2.0,1651025749041763.0,3
1667,-27.0,5.0,6.0,7.0,6.0,3.0,-3.0,-6.0,1651025749041763.0,3
1668,29.0,-12.0,-4.0,-8.0,-12.0,1.0,2.0,3.0,1651025749041763.0,3
1669,-8.0,8.0,8.0,8.0,6.0,5.0,2.0,5.0,1651025749041763.0,3
1670,2.0,-8.0,-13.0,-9.0,-1.0,-10.0,-3.0,-6.0,1651025749064084.0,3
1671,12.0,3.0,-3.0,-8.0,-16.0,0.0,-1.0,-3.0,1651025749064084.0,3
1672,-26.0,-2.0,1.0,2.0,-2.0,0.0,3.0,4.0,1651025749065013.0,3
1673,9.0,0.0,2.0,3.0,17.0,4.0,-3.0,-4.0,1651025749065013.0,3
1674,8.0,4.0,4.0,3.0,2.0,-5.0,1.0,3.0,1651025749087953.0,3
1675,-19.0,5.0,2.0,6.0,-1.0,0.0,0.0,-4.0,1651025749087953.0,3
1676,14.0,-2.0,0.0,2.0,10.0,2.0,1.0,1.0,1651025749088950.0,3
1677,3.0,-4.0,-1.0,-12.0,-22.0,-3.0,-8.0,-3.0,1651025749088950.0,3
1678,-11.0,-3.0,-7.0,0.0,10.0,-1.0,-1.0,-1.0,1651025749100982.0,3
1679,2.0,-1.0,-3.0,-1.0,-1.0,2.0,0.0,0.0,1651025749100982.0,3
1680,-5.0,4.0,3.0,-1.0,-5.0,-1.0,-2.0,-6.0,1651025749109003.0,3
1681,-7.0,-6.0,-4.0,-5.0,-10.0,-2.0,1.0,1.0,1651025749109003.0,3
1682,-1.0,1.0,2.0,-4.0,2.0,-3.0,-3.0,-3.0,1651025749124089.0,3
1683,8.0,-3.0,0.0,5.0,29.0,6.0,1.0,3.0,1651025749124089.0,3
1684,-5.0,2.0,3.0,3.0,-10.0,0.0,0.0,-2.0,1651025749125092.0,3
1685,10.0,-2.0,-6.0,1.0,12.0,5.0,4.0,2.0,1651025749125092.0,3
1686,-14.0,3.0,1.0,8.0,-14.0,-5.0,-1.0,0.0,1651025749146095.0,3
1687,6.0,-5.0,0.0,-7.0,-7.0,-4.0,-2.0,-2.0,1651025749146095.0,3
1688,-2.0,5.0,-6.0,-5.0,-10.0,-1.0,-6.0,-1.0,1651025749147029.0,3
1689,-2.0,-5.0,7.0,1.0,2.0,1.0,5.0,2.0,1651025749147029.0,3
1690,7.0,2.0,-8.0,-8.0,4.0,-1.0,-1.0,-1.0,1651025749161054.0,3
1691,-4.0,2.0,13.0,6.0,4.0,2.0,-2.0,-5.0,1651025749161054.0,3
1692,-1.0,8.0,-4.0,3.0,3.0,3.0,0.0,0.0,1651025749169039.0,3
1693,-5.0,-14.0,-16.0,-1.0,1.0,-4.0,0.0,2.0,1651025749169039.0,3
1694,1.0,9.0,25.0,-2.0,-2.0,-3.0,3.0,-7.0,1651025749184102.0,3
1695,7.0,0.0,-12.0,-5.0,-5.0,-7.0,-6.0,6.0,1651025749184102.0,3
1696,-8.0,-10.0,6.0,-7.0,-18.0,-1.0,1.0,1.0,1651025749185060.0,3
1697,3.0,7.0,-3.0,1.0,6.0,2.0,-7.0,-7.0,1651025749185060.0,3
1698,-7.0,-1.0,-13.0,9.0,30.0,3.0,1.0,-2.0,1651025749206031.0,3
1699,3.0,0.0,11.0,2.0,0.0,4.0,7.0,5.0,1651025749206031.0,3
1700,0.0,2.0,0.0,-2.0,-2.0,-4.0,5.0,2.0,1651025749207017.0,3
1701,-2.0,-1.0,-3.0,-8.0,-11.0,-4.0,-4.0,1.0,1651025749207017.0,3
1702,-5.0,-8.0,-6.0,-1.0,-7.0,-3.0,-8.0,-13.0,1651025749220980.0,3
1703,1.0,-1.0,4.0,-2.0,-9.0,0.0,4.0,7.0,1651025749220980.0,3
1704,-4.0,-2.0,-7.0,3.0,20.0,3.0,-2.0,-1.0,1651025749228969.0,3
1705,0.0,1.0,-1.0,1.0,-24.0,-3.0,7.0,1.0,1651025749228969.0,3
1706,4.0,7.0,12.0,5.0,18.0,1.0,-12.0,-1.0,1651025749243924.0,3
1707,-3.0,-22.0,-36.0,-14.0,-8.0,1.0,1.0,-1.0,1651025749243924.0,3
1708,2.0,2.0,12.0,1.0,-4.0,-1.0,0.0,0.0,1651025749244939.0,3
1709,-2.0,5.0,6.0,2.0,-4.0,2.0,0.0,1.0,1651025749244939.0,3
1710,1.0,3.0,3.0,-2.0,-6.0,-7.0,5.0,4.0,1651025749266843.0,3
1711,-4.0,-9.0,-5.0,2.0,1.0,0.0,-19.0,-14.0,1651025749266843.0,3
1712,-1.0,1.0,-1.0,-2.0,-1.0,0.0,7.0,13.0,1651025749266843.0,3
1713,-1.0,-5.0,-7.0,0.0,4.0,0.0,1.0,-5.0,1651025749266843.0,3
1714,5.0,6.0,3.0,-3.0,-4.0,2.0,1.0,6.0,1651025749280875.0,3
1715,-1.0,-6.0,-14.0,-4.0,-1.0,-2.0,-1.0,-5.0,1651025749280875.0,3
1716,-1.0,-4.0,1.0,-13.0,-18.0,-9.0,-3.0,2.0,1651025749288853.0,3
1717,-4.0,2.0,9.0,10.0,24.0,8.0,1.0,-2.0,1651025749288853.0,3
1718,0.0,0.0,1.0,5.0,18.0,2.0,6.0,9.0,1651025749303992.0,3
1719,4.0,19.0,23.0,10.0,-8.0,-1.0,2.0,-4.0,1651025749303992.0,3
1720,-3.0,-2.0,-20.0,-5.0,-6.0,-3.0,-3.0,-13.0,1651025749305006.0,3
1721,2.0,3.0,-3.0,-8.0,-8.0,-3.0,0.0,11.0,1651025749305006.0,3
1722,-2.0,-13.0,-15.0,-9.0,-10.0,-3.0,-5.0,-5.0,1651025749325981.0,3
1723,1.0,0.0,3.0,-3.0,-27.0,-11.0,1.0,-2.0,1651025749325981.0,3
1724,3.0,8.0,16.0,6.0,26.0,8.0,0.0,-1.0,1651025749326917.0,3
1725,4.0,6.0,27.0,18.0,14.0,6.0,0.0,1.0,1651025749326917.0,3
1726,-1.0,-14.0,-45.0,-13.0,-15.0,-2.0,1.0,-2.0,1651025749340946.0,3
1727,-8.0,0.0,-6.0,-10.0,0.0,-3.0,0.0,2.0,1651025749340946.0,3
1728,2.0,-3.0,0.0,-1.0,-4.0,0.0,-1.0,-1.0,1651025749348921.0,3
1729,-8.0,-2.0,-2.0,-7.0,-6.0,-3.0,-2.0,-5.0,1651025749348921.0,3
1730,1.0,4.0,25.0,13.0,-7.0,3.0,-1.0,1.0,1651025749364380.0,3
1731,10.0,18.0,18.0,13.0,11.0,3.0,4.0,7.0,1651025749364380.0,3
1732,-5.0,-10.0,-18.0,-5.0,2.0,-2.0,-2.0,-14.0,1651025749364971.0,3
1733,11.0,-8.0,0.0,-1.0,3.0,0.0,3.0,5.0,1651025749364971.0,3
1734,0.0,-3.0,3.0,-5.0,-19.0,-3.0,0.0,-2.0,1651025749386871.0,3
1735,7.0,0.0,-5.0,-1.0,16.0,-1.0,2.0,4.0,1651025749386871.0,3
1736,9.0,12.0,10.0,7.0,4.0,0.0,1.0,-1.0,1651025749386871.0,3
1737,-14.0,-3.0,11.0,3.0,-10.0,-1.0,-2.0,-4.0,1651025749386871.0,3
1738,-4.0,-1.0,-1.0,3.0,18.0,-1.0,0.0,2.0,1651025749409956.0,3
1739,0.0,-8.0,-37.0,-22.0,-2.0,3.0,0.0,1.0,1651025749409956.0,3
1740,-7.0,2.0,13.0,7.0,-6.0,-4.0,-2.0,3.0,1651025749409956.0,3
1741,0.0,-4.0,-18.0,-8.0,-4.0,-3.0,-1.0,-4.0,1651025749409956.0,3
1742,-2.0,4.0,19.0,7.0,-2.0,0.0,0.0,-1.0,1651025749424088.0,3
1743,2.0,1.0,2.0,0.0,3.0,1.0,1.0,-3.0,1651025749424088.0,3
1744,-5.0,-8.0,-6.0,-4.0,-1.0,0.0,-4.0,-1.0,1651025749425126.0,3
1745,-1.0,4.0,-5.0,-3.0,-5.0,-6.0,-2.0,-4.0,1651025749425126.0,3
1746,8.0,-2.0,16.0,10.0,11.0,5.0,2.0,3.0,1651025749446847.0,3
1747,-11.0,-10.0,-3.0,3.0,0.0,-1.0,0.0,-2.0,1651025749446847.0,3
1748,1.0,-6.0,-14.0,-7.0,0.0,-1.0,2.0,3.0,1651025749446847.0,3
1749,4.0,-1.0,-1.0,-4.0,-14.0,-4.0,-1.0,0.0,1651025749446847.0,3
1750,-3.0,0.0,0.0,-1.0,7.0,0.0,-2.0,1.0,1651025749469787.0,3
1751,-1.0,-1.0,6.0,0.0,-10.0,-1.0,1.0,-2.0,1651025749469787.0,3
1752,1.0,12.0,3.0,2.0,9.0,-2.0,-1.0,-1.0,1651025749470796.0,3
1753,-6.0,-9.0,-9.0,-2.0,5.0,4.0,-4.0,-5.0,1651025749470796.0,3
1754,0.0,-3.0,-2.0,-3.0,-15.0,-2.0,1.0,0.0,1651025749484289.0,3
1755,-7.0,-6.0,3.0,5.0,12.0,-1.0,-1.0,-2.0,1651025749484289.0,3
1756,0.0,17.0,1.0,-1.0,-14.0,-1.0,-2.0,-1.0,1651025749484950.0,3
1757,0.0,-3.0,-5.0,-3.0,5.0,-1.0,1.0,1.0,1651025749484950.0,3
1758,-1.0,-4.0,-7.0,-6.0,-3.0,-3.0,-2.0,-1.0,1651025749506922.0,3
1759,2.0,3.0,8.0,-1.0,-3.0,0.0,1.0,2.0,1651025749506922.0,3
1760,-5.0,-15.0,-5.0,2.0,0.0,0.0,-1.0,-2.0,1651025749506922.0,3
1761,0.0,1.0,-2.0,0.0,7.0,0.0,0.0,-2.0,1651025749506922.0,3
1762,-2.0,0.0,-7.0,-3.0,-3.0,0.0,0.0,0.0,1651025749529883.0,3
1763,3.0,3.0,13.0,5.0,-2.0,-4.0,-2.0,1.0,1651025749529883.0,3
1764,-3.0,-4.0,-9.0,-6.0,-3.0,-1.0,-2.0,-1.0,1651025749529883.0,3
1765,4.0,3.0,-2.0,-1.0,9.0,4.0,0.0,1.0,1651025749529883.0,3
1766,-1.0,-4.0,-1.0,2.0,-1.0,-3.0,0.0,0.0,1651025749543851.0,3
1767,-1.0,-5.0,-1.0,0.0,12.0,5.0,0.0,-1.0,1651025749543851.0,3
1768,2.0,12.0,16.0,6.0,-3.0,2.0,2.0,0.0,1651025749544961.0,3
1769,-1.0,-14.0,-20.0,-10.0,-7.0,-3.0,0.0,-1.0,1651025749544961.0,3
1770,-4.0,-6.0,-9.0,-6.0,-9.0,-2.0,-1.0,-1.0,1651025749566828.0,3
1771,-1.0,2.0,-2.0,-3.0,-9.0,-2.0,2.0,-1.0,1651025749566828.0,3
1772,-2.0,-2.0,3.0,-1.0,3.0,-2.0,-2.0,0.0,1651025749566828.0,3
1773,2.0,-10.0,2.0,2.0,-3.0,2.0,-1.0,2.0,1651025749566828.0,3
1774,7.0,25.0,4.0,6.0,31.0,4.0,0.0,0.0,1651025749588861.0,3
1775,0.0,-2.0,2.0,1.0,-12.0,0.0,-2.0,-2.0,1651025749588861.0,3
1776,5.0,7.0,1.0,1.0,-8.0,-3.0,1.0,1.0,1651025749596841.0,3
1777,-6.0,-9.0,-1.0,-3.0,-5.0,-2.0,0.0,-2.0,1651025749596841.0,3
1778,0.0,1.0,-3.0,-6.0,-11.0,-3.0,0.0,0.0,1651025749603823.0,3
1779,2.0,8.0,2.0,-1.0,6.0,-2.0,1.0,-1.0,1651025749603823.0,3
1780,1.0,-10.0,-5.0,-2.0,1.0,1.0,1.0,1.0,1651025749604819.0,3
1781,1.0,10.0,5.0,2.0,-1.0,-2.0,-2.0,0.0,1651025749604819.0,3
1782,-4.0,1.0,0.0,-4.0,-6.0,-1.0,-2.0,-2.0,1651025749625986.0,3
1783,-4.0,-8.0,-4.0,-2.0,-1.0,-4.0,-2.0,0.0,1651025749625986.0,3
1784,2.0,1.0,3.0,1.0,6.0,4.0,0.0,0.0,1651025749626925.0,3
1785,-2.0,-13.0,-2.0,1.0,4.0,1.0,2.0,-1.0,1651025749626925.0,3
1786,1.0,6.0,1.0,1.0,0.0,1.0,0.0,0.0,1651025749650002.0,3
1787,-1.0,-6.0,-2.0,-1.0,-8.0,-2.0,-1.0,-1.0,1651025749650002.0,3
1788,-7.0,2.0,-8.0,-7.0,0.0,-4.0,-3.0,-3.0,1651025749650002.0,3
1789,0.0,7.0,6.0,4.0,16.0,3.0,-1.0,-1.0,1651025749650002.0,3
1790,2.0,1.0,-3.0,4.0,-5.0,-1.0,1.0,0.0,1651025749664263.0,3
1791,-12.0,-42.0,-10.0,-7.0,-3.0,-3.0,-3.0,-5.0,1651025749664263.0,3
1792,6.0,20.0,0.0,-6.0,-23.0,-5.0,0.0,1.0,1651025749664925.0,3
1793,-5.0,-2.0,-1.0,-4.0,8.0,0.0,-2.0,-2.0,1651025749664925.0,3
1794,1.0,5.0,3.0,0.0,-3.0,0.0,-1.0,-1.0,1651025749686915.0,3
1795,2.0,-9.0,0.0,5.0,5.0,-3.0,0.0,1.0,1651025749686915.0,3
1796,1.0,-10.0,2.0,5.0,5.0,6.0,0.0,1.0,1651025749686915.0,3
1797,5.0,36.0,-1.0,2.0,0.0,0.0,-1.0,-1.0,1651025749686915.0,3
1798,-12.0,-33.0,-5.0,-3.0,-2.0,0.0,0.0,-4.0,1651025749708841.0,3
1799,3.0,14.0,2.0,-1.0,-4.0,1.0,-2.0,1.0,1651025749708841.0,3
1800,-2.0,-6.0,-2.0,-1.0,-1.0,-3.0,-1.0,-1.0,1651025749715918.0,3
1801,3.0,6.0,1.0,-1.0,-4.0,-2.0,-1.0,2.0,1651025749715918.0,3
1802,0.0,-6.0,-3.0,-1.0,-1.0,-2.0,0.0,1.0,1651025749723803.0,3
1803,4.0,18.0,1.0,0.0,1.0,0.0,-1.0,0.0,1651025749723803.0,3
1804,-8.0,-17.0,-3.0,3.0,6.0,0.0,0.0,-2.0,1651025749724799.0,3
1805,1.0,-4.0,-1.0,0.0,-7.0,0.0,0.0,-2.0,1651025749724799.0,3
1806,1.0,-4.0,3.0,0.0,-1.0,0.0,1.0,1.0,1651025749746933.0,3
1807,1.0,5.0,1.0,3.0,8.0,1.0,-2.0,-1.0,1651025749746933.0,3
1808,-1.0,-2.0,-3.0,-2.0,1.0,-1.0,-1.0,-1.0,1651025749746933.0,3
1809,-1.0,-3.0,-1.0,-6.0,-18.0,-7.0,-3.0,-3.0,1651025749746933.0,3
1810,0.0,5.0,1.0,-1.0,4.0,3.0,0.0,1.0,1651025749769933.0,3
1811,3.0,9.0,2.0,5.0,16.0,3.0,-1.0,1.0,1651025749769933.0,3
1812,-1.0,-6.0,-2.0,-1.0,-4.0,0.0,-1.0,-2.0,1651025749769933.0,3
1813,-3.0,-11.0,-3.0,1.0,2.0,1.0,1.0,1.0,1651025749769933.0,3
1814,4.0,13.0,0.0,-3.0,-8.0,-4.0,-2.0,-1.0,1651025749784175.0,3
1815,-3.0,0.0,-3.0,-3.0,-2.0,0.0,0.0,0.0,1651025749784175.0,3
1816,1.0,4.0,2.0,1.0,2.0,-1.0,-1.0,1.0,1651025749784175.0,3
1817,-3.0,-4.0,1.0,0.0,-4.0,-1.0,0.0,0.0,1651025749784175.0,3
1818,-3.0,-9.0,-4.0,-1.0,2.0,-2.0,-1.0,0.0,1651025749806587.0,3
1819,-3.0,5.0,-2.0,0.0,-1.0,0.0,1.0,0.0,1651025749806587.0,3
1820,4.0,9.0,1.0,0.0,1.0,0.0,1.0,0.0,1651025749807565.0,3
1821,-1.0,-4.0,0.0,-1.0,-1.0,0.0,0.0,-2.0,1651025749807565.0,3
1822,-2.0,-1.0,-1.0,-1.0,0.0,0.0,1.0,-1.0,1651025749829566.0,3
1823,0.0,3.0,1.0,-1.0,-3.0,0.0,-1.0,1.0,1651025749829566.0,3
1824,-1.0,-8.0,-2.0,0.0,0.0,-1.0,0.0,-2.0,1651025749830496.0,3
1825,0.0,7.0,1.0,1.0,-5.0,-2.0,-2.0,0.0,1651025749830496.0,3
1826,0.0,1.0,-2.0,0.0,13.0,5.0,-1.0,1.0,1651025749843528.0,0
1827,0.0,0.0,1.0,0.0,-5.0,-1.0,1.0,-1.0,1651025749843528.0,0
1828,-4.0,-26.0,-4.0,-1.0,0.0,0.0,-1.0,1.0,1651025749851507.0,0
1829,-4.0,-3.0,-2.0,-1.0,-2.0,-2.0,0.0,-1.0,1651025749851507.0,0
1830,-1.0,6.0,-1.0,-1.0,-7.0,-3.0,-1.0,-1.0,1651025749866872.0,0
1831,1.0,1.0,0.0,0.0,1.0,0.0,0.0,-1.0,1651025749866872.0,0
1832,-2.0,4.0,-1.0,-1.0,3.0,-1.0,-1.0,1.0,1651025749866872.0,0
1833,3.0,3.0,0.0,-5.0,-18.0,-4.0,-2.0,1.0,1651025749866872.0,0
1834,2.0,-5.0,1.0,6.0,22.0,6.0,1.0,0.0,1651025749889964.0,0
1835,-2.0,2.0,0.0,5.0,7.0,1.0,1.0,1.0,1651025749889964.0,0
1836,5.0,-7.0,2.0,4.0,-5.0,1.0,1.0,1.0,1651025749889964.0,0
1837,-8.0,-6.0,-2.0,1.0,3.0,0.0,1.0,-2.0,1651025749889964.0,0
1838,0.0,9.0,-2.0,-6.0,-16.0,-6.0,-4.0,0.0,1651025749904376.0,0
1839,-2.0,-12.0,-4.0,-4.0,-5.0,0.0,-2.0,-1.0,1651025749904376.0,0
1840,2.0,5.0,-1.0,0.0,4.0,1.0,1.0,-2.0,1651025749904971.0,0
1841,1.0,5.0,-1.0,1.0,1.0,1.0,0.0,0.0,1651025749904971.0,0
1842,0.0,6.0,0.0,1.0,-4.0,-1.0,1.0,0.0,1651025749926844.0,0
1843,2.0,9.0,0.0,-2.0,-15.0,-1.0,1.0,0.0,1651025749926844.0,0
1844,-7.0,-12.0,-5.0,-4.0,16.0,0.0,-3.0,-1.0,1651025749926844.0,0
1845,0.0,2.0,2.0,3.0,8.0,3.0,-2.0,-1.0,1651025749926844.0,0
1846,-2.0,3.0,1.0,-1.0,-7.0,-4.0,0.0,-2.0,1651025749957493.0,0
1847,0.0,0.0,-3.0,-8.0,-19.0,-6.0,-1.0,0.0,1651025749957493.0,0
1848,0.0,5.0,0.0,4.0,23.0,3.0,0.0,-1.0,1651025749957493.0,0
1849,1.0,-5.0,-1.0,4.0,16.0,6.0,0.0,0.0,1651025749957493.0,0
1850,4.0,10.0,4.0,3.0,-2.0,2.0,1.0,2.0,1651025749963477.0,0
1851,-7.0,-15.0,-6.0,-1.0,0.0,0.0,-1.0,-2.0,1651025749963477.0,0
1852,-2.0,1.0,-2.0,-7.0,-24.0,-6.0,-4.0,-3.0,1651025749964474.0,0
1853,0.0,-2.0,-1.0,-3.0,5.0,-2.0,-1.0,0.0,1651025749964474.0,0
1854,-2.0,-11.0,-2.0,-1.0,-1.0,0.0,0.0,-2.0,1651025749986813.0,0
1855,-1.0,7.0,1.0,0.0,-1.0,0.0,-2.0,-1.0,1651025749986813.0,0
1856,-1.0,4.0,-2.0,-2.0,-15.0,-6.0,-1.0,0.0,1651025749987444.0,0
1857,-1.0,-8.0,-2.0,0.0,15.0,4.0,1.0,-1.0,1651025749987444.0,0
