,EMG_s0,EMG_s1,EMG_s2,EMG_s3,EMG_s4,EMG_s5,EMG_s6,EMG_s7,timestamp,signal
0,1.0,4.0,0.0,1.0,31.0,6.0,-1.0,-3.0,1651025641334834.0,0
1,1.0,0.0,1.0,1.0,-8.0,0.0,-1.0,2.0,1651025641334834.0,0
2,0.0,4.0,1.0,0.0,3.0,1.0,0.0,1.0,1651025641356006.0,0
3,-4.0,-5.0,1.0,3.0,4.0,0.0,-1.0,-2.0,1651025641356006.0,0
4,1.0,-1.0,-3.0,-2.0,-13.0,-5.0,2.0,0.0,1651025641357006.0,0
5,-3.0,-6.0,-4.0,-7.0,-6.0,-3.0,-2.0,-2.0,1651025641357006.0,0
6,0.0,-1.0,-4.0,0.0,11.0,3.0,0.0,0.0,1651025641380004.0,0
7,-2.0,0.0,3.0,4.0,2.0,0.0,0.0,-2.0,1651025641380004.0,0
8,2.0,8.0,0.0,-4.0,-9.0,-3.0,-2.0,-2.0,1651025641380004.0,0
9,-3.0,-17.0,-6.0,-1.0,1.0,2.0,1.0,0.0,1651025641380004.0,0
10,-1.0,-1.0,0.0,4.0,5.0,0.0,-1.0,1.0,1651025641393583.0,0
11,1.0,-1.0,0.0,-2.0,-4.0,-2.0,0.0,0.0,1651025641393583.0,0
12,-2.0,-4.0,-3.0,-2.0,-5.0,0.0,-1.0,0.0,1651025641394588.0,0
13,-1.0,5.0,0.0,0.0,-1.0,2.0,1.0,0.0,1651025641394588.0,0
14,-1.0,-7.0,-1.0,-3.0,-10.0,-4.0,0.0,0.0,1651025641416587.0,0
15,-1.0,0.0,-2.0,2.0,21.0,0.0,-2.0,2.0,1651025641416587.0,0
16,3.0,12.0,6.0,2.0,-12.0,-2.0,0.0,0.0,1651025641417521.0,0
17,1.0,5.0,1.0,-1.0,12.0,4.0,-2.0,0.0,1651025641417521.0,0
18,-1.0,-8.0,-2.0,1.0,-5.0,0.0,0.0,-1.0,1651025641439618.0,0
19,0.0,3.0,-1.0,-4.0,-9.0,-6.0,0.0,0.0,1651025641439618.0,0
20,-2.0,-6.0,-3.0,-5.0,-6.0,-1.0,0.0,1.0,1651025641440603.0,0
21,0.0,4.0,0.0,-1.0,0.0,-1.0,1.0,-2.0,1651025641440603.0,0
22,-1.0,3.0,2.0,3.0,2.0,-3.0,-1.0,-2.0,1651025641453542.0,0
23,1.0,-2.0,0.0,0.0,1.0,4.0,0.0,0.0,1651025641453542.0,0
24,-1.0,-5.0,-1.0,2.0,6.0,2.0,0.0,0.0,1651025641454538.0,0
25,0.0,-1.0,0.0,1.0,-3.0,2.0,0.0,1.0,1651025641454538.0,0
26,2.0,1.0,-1.0,-5.0,-8.0,-3.0,0.0,0.0,1651025641476542.0,0
27,-2.0,4.0,-3.0,-3.0,8.0,-3.0,-1.0,-3.0,1651025641476542.0,0
28,1.0,-1.0,-1.0,-1.0,-4.0,1.0,0.0,-1.0,1651025641477501.0,0
29,-2.0,0.0,0.0,0.0,-1.0,-2.0,-1.0,0.0,1651025641477501.0,0
30,-2.0,3.0,2.0,2.0,-5.0,1.0,-1.0,-2.0,1651025641499487.0,0
31,-1.0,1.0,1.0,1.0,-7.0,-4.0,0.0,0.0,1651025641499487.0,0
32,-1.0,-6.0,-3.0,3.0,14.0,3.0,0.0,0.0,1651025641500456.0,0
33,2.0,4.0,1.0,2.0,-2.0,1.0,1.0,1.0,1651025641500456.0,0
34,1.0,2.0,0.0,-2.0,2.0,1.0,-1.0,-2.0,1651025641514379.0,0
35,2.0,5.0,3.0,-4.0,-9.0,1.0,0.0,0.0,1651025641514379.0,0
36,-5.0,-8.0,-4.0,-2.0,-10.0,-7.0,0.0,-2.0,1651025641514379.0,0
37,-1.0,-2.0,1.0,4.0,12.0,5.0,-1.0,-2.0,1651025641514379.0,0
38,-2.0,0.0,0.0,3.0,0.0,-1.0,-1.0,0.0,1651025641536334.0,0
39,3.0,-1.0,-3.0,-3.0,-7.0,-3.0,0.0,0.0,1651025641536334.0,0
40,1.0,2.0,0.0,-4.0,3.0,-1.0,-3.0,0.0,1651025641537326.0,0
41,-2.0,-2.0,0.0,-1.0,-4.0,-3.0,-1.0,-1.0,1651025641537326.0,0
42,-1.0,5.0,0.0,-1.0,1.0,-1.0,1.0,0.0,1651025641559292.0,0
43,-2.0,-3.0,-1.0,-1.0,-9.0,-5.0,-1.0,-1.0,1651025641559292.0,0
44,-1.0,-6.0,-3.0,-4.0,8.0,5.0,-1.0,0.0,1651025641560257.0,0
45,-1.0,2.0,0.0,0.0,-15.0,-7.0,-2.0,-1.0,1651025641560257.0,0
46,-1.0,-2.0,-2.0,-1.0,7.0,5.0,0.0,-1.0,1651025641582266.0,0
47,-1.0,0.0,-4.0,1.0,-10.0,-9.0,-2.0,0.0,1651025641582266.0,0
48,-4.0,-10.0,0.0,2.0,15.0,8.0,-1.0,-1.0,1651025641583195.0,0
49,1.0,2.0,1.0,3.0,6.0,3.0,1.0,2.0,1651025641583195.0,0
50,2.0,7.0,1.0,-3.0,-8.0,-4.0,0.0,0.0,1651025641596225.0,0
51,-2.0,-6.0,-1.0,-2.0,-1.0,3.0,-1.0,-1.0,1651025641596225.0,0
52,-2.0,-3.0,-1.0,-1.0,-9.0,-3.0,-1.0,-2.0,1651025641597158.0,0
53,0.0,1.0,-3.0,-5.0,0.0,-1.0,0.0,-1.0,1651025641597158.0,0
54,-1.0,-4.0,-3.0,-2.0,-11.0,-9.0,-2.0,0.0,1651025641619099.0,0
55,-2.0,-4.0,-2.0,0.0,9.0,6.0,0.0,-2.0,1651025641619099.0,0
56,0.0,7.0,2.0,5.0,2.0,-2.0,0.0,-2.0,1651025641620096.0,0
57,-1.0,-4.0,0.0,-4.0,-1.0,1.0,-1.0,-1.0,1651025641620096.0,0
58,0.0,-1.0,-1.0,-1.0,-2.0,-3.0,-1.0,2.0,1651025641633126.0,0
59,2.0,1.0,1.0,2.0,1.0,0.0,-3.0,0.0,1651025641633126.0,0
60,0.0,1.0,0.0,2.0,-14.0,-6.0,-1.0,-1.0,1651025641641104.0,0
61,0.0,-2.0,-2.0,-4.0,3.0,2.0,0.0,-1.0,1651025641641104.0,0
62,-3.0,-1.0,-1.0,-3.0,4.0,2.0,0.0,-2.0,1651025641655999.0,0
63,-1.0,-1.0,2.0,2.0,16.0,1.0,0.0,0.0,1651025641655999.0,0
64,1.0,-5.0,2.0,4.0,-7.0,0.0,0.0,0.0,1651025641657001.0,0
65,3.0,1.0,-2.0,-1.0,-7.0,-5.0,0.0,-2.0,1651025641657001.0,0
66,1.0,7.0,1.0,-5.0,-5.0,-2.0,-2.0,-1.0,1651025641679179.0,0
67,-2.0,-9.0,-5.0,-8.0,-6.0,0.0,-1.0,-2.0,1651025641679179.0,0
68,1.0,7.0,2.0,3.0,9.0,4.0,-1.0,0.0,1651025641679179.0,0
69,-1.0,-2.0,5.0,5.0,-1.0,-4.0,0.0,-1.0,1651025641679179.0,0
70,0.0,-7.0,-4.0,-1.0,1.0,2.0,-1.0,-1.0,1651025641693585.0,0
71,-3.0,1.0,2.0,2.0,-1.0,-1.0,-2.0,0.0,1651025641693585.0,0
72,-1.0,-6.0,-5.0,-9.0,-5.0,-2.0,-1.0,0.0,1651025641701567.0,0
73,0.0,1.0,-2.0,-3.0,0.0,0.0,-2.0,-1.0,1651025641701567.0,0
74,-1.0,0.0,-1.0,-2.0,-7.0,-4.0,-3.0,-1.0,1651025641716593.0,0
75,0.0,-1.0,-2.0,-2.0,5.0,3.0,-2.0,0.0,1651025641716593.0,0
76,-2.0,2.0,1.0,3.0,5.0,-1.0,-1.0,-2.0,1651025641717531.0,0
77,-1.0,1.0,1.0,-2.0,1.0,0.0,2.0,0.0,1651025641717531.0,0
78,-2.0,-3.0,0.0,6.0,1.0,-3.0,0.0,-1.0,1651025641739465.0,0
79,1.0,2.0,0.0,3.0,-21.0,-8.0,-1.0,0.0,1651025641739465.0,0
80,0.0,2.0,-4.0,-1.0,26.0,12.0,-3.0,0.0,1651025641739465.0,0
81,-1.0,-1.0,2.0,3.0,-2.0,-2.0,0.0,-1.0,1651025641739465.0,0
82,0.0,-2.0,-2.0,-1.0,4.0,-1.0,0.0,0.0,1651025641753440.0,0
83,-1.0,1.0,-1.0,0.0,-6.0,-1.0,-1.0,-1.0,1651025641753440.0,0
84,1.0,2.0,1.0,-2.0,-12.0,-7.0,0.0,0.0,1651025641761472.0,0
85,-2.0,-4.0,-6.0,-7.0,-6.0,-3.0,-2.0,0.0,1651025641761472.0,0
86,-2.0,2.0,4.0,3.0,10.0,4.0,-1.0,0.0,1651025641776487.0,0
87,-1.0,1.0,2.0,5.0,10.0,3.0,1.0,0.0,1651025641776487.0,0
88,1.0,-2.0,1.0,2.0,-8.0,-3.0,1.0,0.0,1651025641777485.0,0
89,-2.0,-3.0,-4.0,0.0,5.0,1.0,-1.0,-1.0,1651025641777485.0,0
90,-2.0,-12.0,-4.0,-2.0,-7.0,-2.0,0.0,-1.0,1651025641799432.0,0
91,1.0,4.0,-1.0,-1.0,3.0,0.0,0.0,-2.0,1651025641799432.0,0
92,0.0,0.0,0.0,-4.0,-3.0,-3.0,-2.0,-2.0,1651025641799432.0,0
93,0.0,-4.0,0.0,0.0,-12.0,-6.0,-2.0,-1.0,1651025641799432.0,0
94,4.0,16.0,1.0,2.0,12.0,6.0,0.0,-1.0,1651025641813712.0,0
95,-6.0,-9.0,-1.0,-2.0,2.0,0.0,1.0,-2.0,1651025641813712.0,0
96,0.0,-5.0,-2.0,0.0,-4.0,-4.0,1.0,0.0,1651025641821695.0,0
97,1.0,3.0,0.0,-3.0,3.0,4.0,0.0,1.0,1651025641821695.0,0
98,0.0,1.0,2.0,-1.0,-3.0,-3.0,-1.0,-1.0,1651025641836664.0,0
99,-1.0,-2.0,-1.0,2.0,1.0,1.0,0.0,0.0,1651025641836664.0,0
100,0.0,5.0,2.0,2.0,-8.0,-3.0,0.0,-1.0,1651025641837658.0,0
101,-1.0,-1.0,-2.0,3.0,8.0,-3.0,-2.0,0.0,1651025641837658.0,0
102,1.0,2.0,-2.0,-5.0,4.0,5.0,1.0,-1.0,1651025641858787.0,0
103,1.0,-1.0,0.0,-2.0,-1.0,-1.0,0.0,-1.0,1651025641858787.0,0
104,-2.0,1.0,3.0,1.0,-4.0,0.0,0.0,1.0,1651025641859716.0,0
105,0.0,1.0,0.0,2.0,-1.0,-2.0,-1.0,0.0,1651025641859716.0,0
106,-1.0,-2.0,2.0,3.0,-1.0,-2.0,-3.0,0.0,1651025641872803.0,0
107,-1.0,-2.0,-2.0,-5.0,-4.0,-2.0,-1.0,0.0,1651025641872803.0,0
108,-1.0,1.0,-2.0,-4.0,2.0,-2.0,0.0,0.0,1651025641881972.0,0
109,2.0,2.0,-1.0,-2.0,1.0,2.0,0.0,-1.0,1651025641881972.0,0
110,0.0,-1.0,-1.0,0.0,-4.0,-2.0,-1.0,0.0,1651025641895988.0,0
111,0.0,-1.0,0.0,1.0,1.0,0.0,1.0,0.0,1651025641895988.0,0
112,1.0,-1.0,-2.0,-4.0,-8.0,0.0,-2.0,0.0,1651025641896966.0,0
113,0.0,2.0,1.0,3.0,17.0,1.0,0.0,-1.0,1651025641896966.0,0
114,-1.0,-4.0,-3.0,0.0,-5.0,-2.0,0.0,0.0,1651025641919227.0,0
115,-1.0,2.0,-1.0,-4.0,-3.0,-2.0,-1.0,-1.0,1651025641919227.0,0
116,-2.0,1.0,1.0,-1.0,1.0,0.0,0.0,-1.0,1651025641919227.0,0
117,-2.0,-2.0,-1.0,-2.0,-8.0,-1.0,0.0,-2.0,1651025641919227.0,0
118,0.0,-3.0,-3.0,-1.0,0.0,1.0,-1.0,0.0,1651025641933377.0,0
119,1.0,4.0,2.0,4.0,3.0,2.0,0.0,0.0,1651025641933377.0,0
120,1.0,4.0,0.0,-4.0,-7.0,-2.0,0.0,-1.0,1651025641941285.0,0
121,-2.0,-11.0,-2.0,2.0,-7.0,-1.0,-1.0,-1.0,1651025641941285.0,0
122,1.0,10.0,2.0,0.0,20.0,-1.0,-1.0,1.0,1651025641956272.0,0
123,1.0,-2.0,-1.0,-1.0,-24.0,-10.0,0.0,0.0,1651025641956272.0,0
124,-1.0,-3.0,-4.0,-2.0,16.0,10.0,0.0,0.0,1651025641957242.0,0
125,-1.0,2.0,0.0,1.0,-2.0,1.0,0.0,2.0,1651025641957242.0,0
126,-1.0,-5.0,2.0,3.0,-3.0,-1.0,-1.0,-2.0,1651025641978754.0,0
127,1.0,2.0,-1.0,-2.0,3.0,-1.0,0.0,1.0,1651025641978754.0,0
128,2.0,6.0,1.0,0.0,-5.0,-5.0,-1.0,1.0,1651025641979688.0,0
129,-5.0,-15.0,-6.0,-5.0,-1.0,-1.0,-2.0,-1.0,1651025641979688.0,0
130,-2.0,-8.0,-3.0,-3.0,-5.0,-2.0,-1.0,-2.0,1651025642000695.0,0
131,0.0,6.0,1.0,-1.0,4.0,2.0,-1.0,0.0,1651025642000695.0,0
132,-1.0,-1.0,-1.0,-1.0,-1.0,0.0,-2.0,0.0,1651025642008675.0,0
133,1.0,0.0,-1.0,-1.0,2.0,2.0,-1.0,-1.0,1651025642008675.0,0
134,1.0,5.0,1.0,-2.0,-4.0,-4.0,0.0,-1.0,1651025642016647.0,0
135,0.0,7.0,-3.0,-3.0,3.0,1.0,-1.0,0.0,1651025642016647.0,0
136,-3.0,-9.0,-3.0,-3.0,-2.0,-1.0,0.0,1.0,1651025642017602.0,0
137,1.0,9.0,3.0,-2.0,-8.0,-4.0,-1.0,-2.0,1651025642017602.0,0
138,0.0,-4.0,-2.0,-1.0,1.0,0.0,1.0,-1.0,1651025642038605.0,0
139,-2.0,0.0,1.0,3.0,20.0,3.0,2.0,0.0,1651025642038605.0,0
140,0.0,0.0,3.0,4.0,-1.0,5.0,1.0,-2.0,1651025642039566.0,0
141,0.0,1.0,-1.0,-2.0,2.0,-1.0,-1.0,1.0,1651025642039566.0,0
142,1.0,3.0,-1.0,-2.0,-8.0,0.0,0.0,1.0,1651025642062529.0,0
143,-5.0,-13.0,-2.0,-2.0,-4.0,-3.0,-3.0,-2.0,1651025642062529.0,0
144,0.0,-3.0,-3.0,0.0,-4.0,-5.0,-1.0,-3.0,1651025642062529.0,0
145,1.0,5.0,1.0,-2.0,7.0,3.0,1.0,0.0,1651025642062529.0,0
146,-2.0,-12.0,-4.0,-1.0,4.0,3.0,1.0,-1.0,1651025642076481.0,0
147,2.0,1.0,2.0,4.0,-2.0,-2.0,1.0,1.0,1651025642076481.0,0
148,-1.0,4.0,1.0,-1.0,0.0,-1.0,-1.0,-1.0,1651025642077493.0,0
149,-3.0,-7.0,-1.0,0.0,-5.0,-3.0,0.0,-1.0,1651025642077493.0,0
150,0.0,1.0,1.0,-1.0,-3.0,-2.0,-1.0,1.0,1651025642099408.0,0
151,0.0,-6.0,-3.0,-1.0,1.0,2.0,-1.0,-2.0,1651025642099408.0,0
152,-2.0,-5.0,-4.0,-2.0,-2.0,0.0,0.0,1.0,1651025642099408.0,0
153,2.0,8.0,2.0,-1.0,-1.0,1.0,1.0,1.0,1651025642099408.0,0
154,-5.0,-6.0,-3.0,-2.0,0.0,0.0,-2.0,-2.0,1651025642121552.0,0
155,1.0,-1.0,-2.0,1.0,-3.0,0.0,-1.0,-1.0,1651025642121552.0,0
156,0.0,-5.0,-1.0,-8.0,-1.0,-3.0,0.0,0.0,1651025642128591.0,0
157,-2.0,5.0,-1.0,-2.0,-2.0,-3.0,-1.0,-3.0,1651025642128591.0,0
158,-1.0,-9.0,2.0,6.0,-1.0,1.0,0.0,1.0,1651025642136536.0,0
159,0.0,0.0,-1.0,-2.0,-11.0,-3.0,-2.0,0.0,1651025642136536.0,0
160,2.0,9.0,1.0,2.0,10.0,-2.0,0.0,-1.0,1651025642137523.0,0
161,-2.0,-7.0,1.0,3.0,5.0,2.0,0.0,1.0,1651025642137523.0,0
162,0.0,14.0,7.0,-1.0,5.0,0.0,0.0,0.0,1651025642166878.0,0
163,-2.0,-9.0,-4.0,-2.0,-6.0,1.0,0.0,0.0,1651025642166878.0,0
164,1.0,3.0,-1.0,-5.0,-9.0,-5.0,1.0,-2.0,1651025642167870.0,0
165,0.0,-4.0,-2.0,-1.0,2.0,1.0,1.0,-2.0,1651025642167870.0,0
166,2.0,7.0,-1.0,0.0,-6.0,-4.0,-1.0,0.0,1651025642181899.0,0
167,-3.0,-5.0,-2.0,-1.0,6.0,0.0,-1.0,-3.0,1651025642181899.0,0
168,0.0,-4.0,0.0,1.0,-4.0,-1.0,0.0,0.0,1651025642182833.0,0
169,0.0,7.0,2.0,3.0,-2.0,-3.0,-1.0,-1.0,1651025642182833.0,0
170,-1.0,-6.0,-2.0,1.0,8.0,6.0,1.0,-2.0,1651025642196823.0,0
171,2.0,4.0,0.0,-3.0,3.0,3.0,1.0,2.0,1651025642196823.0,0
172,-3.0,-12.0,-4.0,2.0,-2.0,-1.0,1.0,0.0,1651025642196823.0,0
173,0.0,5.0,1.0,0.0,0.0,-4.0,-1.0,1.0,1651025642196823.0,0
174,-2.0,-2.0,-2.0,-4.0,-12.0,-3.0,-1.0,-2.0,1651025642217803.0,0
175,0.0,2.0,2.0,2.0,6.0,1.0,-2.0,-1.0,1651025642217803.0,0
176,2.0,1.0,0.0,4.0,11.0,2.0,0.0,0.0,1651025642227713.0,0
177,0.0,0.0,-2.0,-4.0,-6.0,0.0,0.0,1.0,1651025642227713.0,0
178,-2.0,-2.0,-3.0,-4.0,-6.0,-3.0,-2.0,-2.0,1651025642240736.0,0
179,-1.0,2.0,3.0,1.0,0.0,1.0,-1.0,-3.0,1651025642240736.0,0
180,-3.0,-10.0,-7.0,-2.0,-6.0,-2.0,-1.0,-1.0,1651025642249665.0,0
181,-1.0,-1.0,0.0,1.0,0.0,1.0,1.0,-1.0,1651025642249665.0,0
182,2.0,-4.0,-4.0,-3.0,10.0,0.0,1.0,0.0,1651025642264613.0,0
183,-2.0,4.0,4.0,2.0,-3.0,-2.0,0.0,0.0,1651025642264613.0,0
184,-6.0,9.0,-1.0,1.0,1.0,-1.0,-2.0,-3.0,1651025642266608.0,0
185,1.0,-1.0,0.0,-1.0,-8.0,-4.0,-1.0,0.0,1651025642266608.0,0
186,-2.0,-1.0,-3.0,-5.0,0.0,4.0,-1.0,1.0,1651025642286576.0,0
187,1.0,5.0,1.0,2.0,0.0,-3.0,0.0,-1.0,1651025642286576.0,0
188,2.0,-2.0,1.0,-2.0,1.0,1.0,0.0,0.0,1651025642288570.0,0
189,-3.0,-1.0,-2.0,-1.0,-2.0,-1.0,-1.0,2.0,1651025642288570.0,0
190,-1.0,1.0,-1.0,-1.0,-10.0,-7.0,-1.0,0.0,1651025642302533.0,0
191,-1.0,-2.0,-3.0,-2.0,11.0,5.0,0.0,0.0,1651025642302533.0,0
192,-1.0,-1.0,0.0,0.0,-7.0,1.0,0.0,0.0,1651025642303531.0,0
193,-1.0,-1.0,-1.0,-1.0,16.0,0.0,-2.0,0.0,1651025642303531.0,0
194,0.0,3.0,7.0,9.0,1.0,1.0,0.0,2.0,1651025642324992.0,0
195,0.0,-6.0,-7.0,-3.0,-5.0,-3.0,0.0,-2.0,1651025642324992.0,0
196,2.0,5.0,1.0,-3.0,-14.0,-7.0,-1.0,0.0,1651025642325926.0,0
197,1.0,3.0,-1.0,-3.0,13.0,10.0,0.0,-2.0,1651025642325926.0,0
198,0.0,0.0,-2.0,4.0,2.0,1.0,2.0,1.0,1651025642337894.0,0
199,-2.0,-3.0,-1.0,-3.0,-13.0,-2.0,-2.0,-3.0,1651025642337894.0,0
200,0.0,6.0,3.0,2.0,14.0,0.0,0.0,-1.0,1651025642346896.0,0
201,-3.0,-8.0,-2.0,-1.0,-11.0,-4.0,-4.0,-1.0,1651025642346896.0,0
202,3.0,5.0,-3.0,-3.0,-2.0,1.0,-1.0,-2.0,1651025642361897.0,0
203,0.0,0.0,0.0,0.0,-2.0,-1.0,-1.0,2.0,1651025642361897.0,0
204,-2.0,-2.0,-1.0,-3.0,-2.0,-1.0,-1.0,-1.0,1651025642363824.0,0
205,1.0,2.0,2.0,-1.0,-15.0,-6.0,0.0,0.0,1651025642363824.0,0
206,-3.0,-5.0,-1.0,0.0,12.0,6.0,-1.0,-1.0,1651025642384875.0,0
207,-2.0,2.0,3.0,4.0,1.0,2.0,1.0,-2.0,1651025642384875.0,0
208,-1.0,-2.0,-3.0,0.0,-2.0,-2.0,-1.0,0.0,1651025642385876.0,0
209,2.0,1.0,-1.0,-1.0,1.0,-1.0,-1.0,1.0,1651025642385876.0,0
210,2.0,-2.0,-4.0,-5.0,-16.0,-6.0,-1.0,1.0,1651025642397911.0,0
211,-2.0,8.0,-1.0,1.0,9.0,-2.0,-2.0,-2.0,1651025642397911.0,0
212,-3.0,-15.0,-2.0,4.0,11.0,2.0,-1.0,-1.0,1651025642406873.0,0
213,-2.0,-3.0,-1.0,-2.0,-6.0,0.0,0.0,-1.0,1651025642406873.0,0
214,-3.0,-6.0,0.0,2.0,-5.0,-4.0,0.0,-1.0,1651025642421958.0,0
215,1.0,7.0,-3.0,-9.0,3.0,4.0,0.0,1.0,1651025642421958.0,0
216,2.0,0.0,-2.0,-6.0,-1.0,0.0,-1.0,-1.0,1651025642423920.0,0
217,0.0,2.0,2.0,6.0,3.0,-2.0,-1.0,0.0,1651025642423920.0,0
218,-2.0,-5.0,0.0,6.0,2.0,1.0,-1.0,-2.0,1651025642445039.0,0
219,-2.0,-13.0,-5.0,0.0,-4.0,-2.0,1.0,1.0,1651025642445039.0,0
220,-1.0,2.0,0.0,-3.0,-6.0,-1.0,-1.0,-1.0,1651025642446030.0,0
221,3.0,2.0,-2.0,-3.0,2.0,1.0,-1.0,0.0,1651025642446030.0,0
222,-6.0,-1.0,2.0,-1.0,3.0,0.0,-1.0,-1.0,1651025642457998.0,0
223,-1.0,-5.0,-2.0,2.0,-2.0,-2.0,0.0,-1.0,1651025642457998.0,0
224,0.0,4.0,0.0,-3.0,-8.0,-1.0,-2.0,-1.0,1651025642467109.0,0
225,-2.0,-1.0,-3.0,1.0,3.0,-1.0,-1.0,-1.0,1651025642467109.0,0
226,0.0,2.0,0.0,-2.0,4.0,-1.0,1.0,0.0,1651025642482115.0,0
227,3.0,-1.0,0.0,0.0,-1.0,1.0,-2.0,0.0,1651025642482115.0,0
228,-1.0,0.0,1.0,1.0,-4.0,-1.0,-1.0,0.0,1651025642484073.0,0
229,-2.0,-1.0,0.0,2.0,4.0,4.0,-1.0,0.0,1651025642484073.0,0
230,1.0,-3.0,-1.0,1.0,17.0,2.0,1.0,2.0,1651025642505071.0,0
231,1.0,5.0,-1.0,-5.0,-15.0,-7.0,0.0,0.0,1651025642505071.0,0
232,0.0,-5.0,-3.0,2.0,9.0,6.0,1.0,0.0,1651025642506068.0,0
233,0.0,5.0,-2.0,-5.0,-12.0,-4.0,-1.0,0.0,1651025642506068.0,0
234,-1.0,-5.0,-9.0,-7.0,0.0,-1.0,-2.0,-1.0,1651025642527119.0,0
235,0.0,2.0,3.0,3.0,5.0,3.0,2.0,1.0,1651025642527119.0,0
236,0.0,1.0,1.0,-2.0,-8.0,-6.0,-2.0,-2.0,1651025642529072.0,0
237,-2.0,1.0,0.0,0.0,6.0,4.0,0.0,-2.0,1651025642529072.0,0
238,2.0,-13.0,-1.0,-1.0,-8.0,-2.0,-1.0,-1.0,1651025642542078.0,0
239,-2.0,-4.0,3.0,0.0,2.0,1.0,0.0,0.0,1651025642542078.0,0
240,0.0,6.0,-6.0,-9.0,-5.0,-2.0,-2.0,-2.0,1651025642544004.0,0
241,1.0,-13.0,3.0,2.0,3.0,-1.0,1.0,2.0,1651025642544004.0,0
242,-2.0,11.0,2.0,8.0,-2.0,-2.0,-4.0,-1.0,1651025642564889.0,0
243,3.0,6.0,-3.0,-8.0,-4.0,-4.0,-1.0,-1.0,1651025642564889.0,0
244,-2.0,-5.0,-2.0,6.0,0.0,2.0,1.0,0.0,1651025642566902.0,0
245,0.0,-8.0,-6.0,-4.0,0.0,-2.0,-1.0,-1.0,1651025642566902.0,0
246,-4.0,-15.0,0.0,-6.0,9.0,0.0,-1.0,-2.0,1651025642586822.0,0
247,0.0,-10.0,-2.0,8.0,-3.0,-1.0,-1.0,1.0,1651025642586822.0,0
248,0.0,19.0,4.0,-4.0,2.0,-1.0,0.0,1.0,1651025642588817.0,0
249,-2.0,-8.0,-13.0,-6.0,0.0,-1.0,0.0,-2.0,1651025642588817.0,0
250,1.0,4.0,-1.0,-4.0,-11.0,-3.0,1.0,0.0,1651025642601782.0,0
251,-1.0,4.0,0.0,-3.0,2.0,-1.0,-2.0,-2.0,1651025642601782.0,0
252,3.0,-23.0,1.0,4.0,11.0,4.0,1.0,2.0,1651025642603786.0,0
253,-9.0,-8.0,4.0,4.0,-3.0,-3.0,-4.0,-4.0,1651025642603786.0,0
254,2.0,5.0,9.0,-2.0,-7.0,1.0,0.0,2.0,1651025642624973.0,0
255,-1.0,8.0,-9.0,-2.0,3.0,-1.0,-3.0,-1.0,1651025642624973.0,0
256,1.0,-1.0,0.0,6.0,-9.0,-2.0,2.0,2.0,1651025642625914.0,0
257,-2.0,13.0,3.0,1.0,-6.0,-6.0,-3.0,-4.0,1651025642625914.0,0
258,3.0,3.0,-2.0,5.0,17.0,11.0,1.0,0.0,1651025642647496.0,0
259,-4.0,-3.0,6.0,-4.0,-17.0,-2.0,0.0,-3.0,1651025642647496.0,0
260,1.0,-5.0,-7.0,-3.0,14.0,-3.0,-2.0,-1.0,1651025642648868.0,0
261,0.0,4.0,-1.0,-11.0,-5.0,0.0,0.0,1.0,1651025642648868.0,0
262,-3.0,5.0,4.0,18.0,-7.0,-3.0,-1.0,-1.0,1651025642661861.0,0
263,3.0,19.0,11.0,4.0,4.0,4.0,1.0,1.0,1651025642661861.0,0
264,-6.0,-2.0,-10.0,-5.0,-18.0,-5.0,-1.0,-5.0,1651025642667934.0,0
265,-1.0,-11.0,-21.0,-10.0,14.0,7.0,0.0,-1.0,1651025642667934.0,0
266,0.0,8.0,17.0,-1.0,9.0,-2.0,0.0,-1.0,1651025642684361.0,0
267,-1.0,-7.0,-4.0,4.0,-2.0,0.0,-2.0,1.0,1651025642684361.0,0
268,1.0,1.0,8.0,0.0,-1.0,-2.0,-1.0,-1.0,1651025642686359.0,0
269,1.0,4.0,5.0,0.0,-10.0,-3.0,0.0,1.0,1651025642686359.0,0
270,-1.0,-4.0,-17.0,-13.0,-13.0,-1.0,-1.0,-1.0,1651025642707330.0,0
271,1.0,3.0,20.0,2.0,-1.0,-3.0,0.0,0.0,1651025642707330.0,0
272,-1.0,8.0,-11.0,1.0,30.0,9.0,0.0,0.0,1651025642708301.0,0
273,8.0,10.0,-6.0,-1.0,-3.0,2.0,6.0,4.0,1651025642708301.0,0
274,-4.0,-20.0,-16.0,26.0,10.0,2.0,-1.0,0.0,1651025642722339.0,0
275,-8.0,-18.0,-15.0,-4.0,-15.0,-15.0,-8.0,-7.0,1651025642722339.0,0
276,7.0,17.0,18.0,-25.0,-14.0,2.0,1.0,2.0,1651025642728403.0,0
277,-4.0,0.0,0.0,46.0,22.0,7.0,3.0,-1.0,1651025642728403.0,0
278,4.0,2.0,16.0,-32.0,-55.0,-28.0,-3.0,2.0,1651025642744358.0,1
279,-14.0,1.0,33.0,23.0,54.0,26.0,-3.0,-8.0,1651025642744358.0,1
280,4.0,-11.0,-12.0,7.0,-4.0,5.0,7.0,7.0,1651025642746291.0,1
281,1.0,18.0,50.0,-11.0,6.0,-8.0,-14.0,-5.0,1651025642746291.0,1
282,3.0,3.0,-61.0,-8.0,-11.0,0.0,-1.0,-3.0,1651025642767464.0,1
283,9.0,-5.0,6.0,-32.0,-24.0,-28.0,-7.0,5.0,1651025642767464.0,1
284,-28.0,-40.0,-81.0,-20.0,-11.0,8.0,43.0,7.0,1651025642768894.0,1
285,29.0,15.0,28.0,-11.0,-15.0,-12.0,7.0,-4.0,1651025642768894.0,1
286,-44.0,0.0,29.0,-19.0,3.0,8.0,-71.0,-23.0,1651025642780897.0,1
287,-3.0,-2.0,14.0,52.0,-3.0,-16.0,-62.0,-48.0,1651025642780897.0,1
288,-9.0,54.0,65.0,77.0,48.0,5.0,15.0,19.0,1651025642789818.0,1
289,-1.0,-63.0,-108.0,-76.0,-43.0,17.0,59.0,13.0,1651025642789818.0,1
290,-81.0,-10.0,45.0,27.0,29.0,22.0,-58.0,-2.0,1651025642811813.0,1
291,84.0,25.0,11.0,36.0,37.0,13.0,61.0,23.0,1651025642811813.0,1
292,45.0,4.0,50.0,20.0,-15.0,5.0,24.0,22.0,1651025642813808.0,1
293,-62.0,-7.0,-13.0,116.0,55.0,-10.0,-58.0,-43.0,1651025642813808.0,1
294,80.0,21.0,-23.0,-77.0,-27.0,-31.0,-61.0,-12.0,1651025642826957.0,1
295,-18.0,-6.0,-49.0,-43.0,-42.0,-96.0,-105.0,-51.0,1651025642826957.0,1
296,7.0,61.0,38.0,6.0,16.0,59.0,84.0,43.0,1651025642828889.0,1
297,-99.0,-75.0,-1.0,-53.0,-8.0,33.0,22.0,11.0,1651025642828889.0,1
298,19.0,-1.0,19.0,96.0,35.0,23.0,63.0,2.0,1651025642840924.0,1
299,6.0,10.0,10.0,46.0,25.0,72.0,-46.0,14.0,1651025642840924.0,1
300,34.0,18.0,-44.0,-109.0,-60.0,-93.0,-72.0,-58.0,1651025642849939.0,1
301,107.0,72.0,39.0,40.0,11.0,6.0,51.0,49.0,1651025642849939.0,1
302,-83.0,-10.0,-20.0,-95.0,-23.0,-27.0,-6.0,-20.0,1651025642865116.0,1
303,-10.0,-25.0,-21.0,13.0,-8.0,-6.0,70.0,6.0,1651025642865116.0,1
304,-9.0,-7.0,25.0,26.0,29.0,38.0,54.0,26.0,1651025642866074.0,1
305,8.0,-6.0,-1.0,-28.0,-11.0,2.0,-86.0,-24.0,1651025642866074.0,1
306,34.0,1.0,19.0,46.0,16.0,9.0,66.0,17.0,1651025642887018.0,1
307,-30.0,8.0,-21.0,-71.0,-21.0,3.0,38.0,24.0,1651025642887018.0,1
308,-18.0,-32.0,-30.0,-20.0,-13.0,-7.0,-56.0,-20.0,1651025642889040.0,1
309,5.0,11.0,18.0,20.0,-4.0,-45.0,-15.0,-9.0,1651025642889040.0,1
310,43.0,2.0,-34.0,-11.0,-1.0,17.0,30.0,15.0,1651025642901048.0,1
311,-51.0,7.0,13.0,-11.0,14.0,38.0,6.0,4.0,1651025642901048.0,1
312,-12.0,-11.0,-22.0,-50.0,-32.0,-19.0,3.0,-13.0,1651025642909957.0,1
313,31.0,-16.0,16.0,54.0,15.0,-11.0,8.0,1.0,1651025642909957.0,1
314,2.0,22.0,6.0,18.0,2.0,-12.0,-15.0,19.0,1651025642924999.0,1
315,-41.0,-40.0,5.0,-31.0,-22.0,-4.0,7.0,-19.0,1651025642924999.0,1
316,-18.0,-12.0,-4.0,54.0,22.0,-52.0,-94.0,-40.0,1651025642925915.0,1
317,-23.0,31.0,0.0,-35.0,2.0,51.0,24.0,13.0,1651025642925915.0,1
318,8.0,-1.0,-1.0,2.0,0.0,-1.0,-11.0,-4.0,1651025642946885.0,1
319,-3.0,-6.0,-5.0,9.0,4.0,-2.0,52.0,14.0,1651025642946885.0,1
320,13.0,-12.0,-1.0,-21.0,-2.0,41.0,63.0,28.0,1651025642948873.0,1
321,-33.0,-6.0,-7.0,-17.0,-14.0,-63.0,-117.0,-41.0,1651025642948873.0,1
322,18.0,-10.0,-6.0,20.0,9.0,40.0,30.0,0.0,1651025642960820.0,1
323,0.0,-9.0,-20.0,-37.0,1.0,-9.0,-5.0,10.0,1651025642960820.0,1
324,-13.0,-3.0,35.0,94.0,42.0,-5.0,-29.0,-14.0,1651025642969796.0,1
325,54.0,16.0,-22.0,-27.0,-25.0,4.0,46.0,36.0,1651025642969796.0,1
326,-44.0,3.0,33.0,15.0,8.0,-9.0,18.0,-23.0,1651025642984783.0,1
327,27.0,-11.0,-23.0,-11.0,5.0,3.0,-33.0,9.0,1651025642984783.0,1
328,9.0,2.0,-9.0,12.0,4.0,3.0,-7.0,-5.0,1651025642985775.0,1
329,34.0,-8.0,-8.0,-32.0,-7.0,21.0,25.0,13.0,1651025642985775.0,1
330,-17.0,8.0,15.0,45.0,5.0,-16.0,38.0,14.0,1651025643006724.0,1
331,24.0,38.0,2.0,-34.0,-19.0,6.0,-40.0,4.0,1651025643006724.0,1
332,-40.0,-50.0,-2.0,8.0,-3.0,-41.0,14.0,-17.0,1651025643013679.0,1
333,-44.0,-12.0,-5.0,-1.0,11.0,33.0,-32.0,-17.0,1651025643013679.0,1
334,-10.0,-16.0,-15.0,-43.0,-17.0,-18.0,-1.0,-16.0,1651025643020661.0,1
335,29.0,13.0,-1.0,-8.0,1.0,69.0,26.0,24.0,1651025643020661.0,1
336,-27.0,31.0,4.0,-10.0,-20.0,-28.0,-23.0,-21.0,1651025643029637.0,1
337,73.0,17.0,22.0,40.0,27.0,0.0,19.0,13.0,1651025643029637.0,1
338,6.0,-11.0,-9.0,-36.0,-22.0,-32.0,-15.0,0.0,1651025643044776.0,1
339,-20.0,18.0,28.0,39.0,28.0,-11.0,40.0,12.0,1651025643044776.0,1
340,-2.0,-24.0,-38.0,-27.0,-14.0,11.0,-35.0,-8.0,1651025643045735.0,1
341,-32.0,7.0,-13.0,-14.0,-15.0,-9.0,20.0,-9.0,1651025643045735.0,1
342,41.0,11.0,26.0,65.0,29.0,10.0,1.0,19.0,1651025643066880.0,1
343,-26.0,-10.0,6.0,2.0,-10.0,-28.0,-20.0,-21.0,1651025643066880.0,1
344,43.0,4.0,10.0,-8.0,-9.0,11.0,20.0,18.0,1651025643068867.0,1
345,-6.0,17.0,-8.0,-32.0,-2.0,-3.0,-18.0,-8.0,1651025643068867.0,1
346,-1.0,-39.0,-13.0,1.0,-13.0,3.0,27.0,7.0,1651025643080902.0,1
347,-17.0,2.0,13.0,46.0,26.0,3.0,2.0,-9.0,1651025643080902.0,1
348,36.0,-10.0,3.0,8.0,-4.0,5.0,-39.0,9.0,1651025643089811.0,1
349,-48.0,0.0,-8.0,-20.0,-9.0,5.0,15.0,-12.0,1651025643089811.0,1
350,28.0,28.0,5.0,-7.0,9.0,15.0,-7.0,9.0,1651025643104771.0,1
351,18.0,2.0,-4.0,7.0,-21.0,-32.0,9.0,-4.0,1651025643104771.0,1
352,3.0,-2.0,-17.0,-48.0,-7.0,20.0,28.0,10.0,1651025643105768.0,1
353,-25.0,-11.0,15.0,43.0,6.0,-4.0,-2.0,3.0,1651025643105768.0,1
354,23.0,3.0,4.0,-34.0,18.0,8.0,-26.0,-7.0,1651025643127286.0,1
355,14.0,5.0,20.0,52.0,19.0,-6.0,-9.0,16.0,1651025643127286.0,1
356,-34.0,-16.0,-9.0,-24.0,-5.0,6.0,-8.0,-15.0,1651025643128241.0,1
357,5.0,1.0,-12.0,-40.0,-25.0,-1.0,2.0,0.0,1651025643128241.0,1
358,-36.0,-6.0,4.0,37.0,7.0,-3.0,-29.0,-10.0,1651025643141180.0,1
359,-20.0,5.0,-15.0,-30.0,-8.0,1.0,-7.0,-21.0,1651025643141180.0,1
360,51.0,6.0,3.0,10.0,-7.0,-7.0,-16.0,5.0,1651025643150166.0,1
361,4.0,-11.0,0.0,10.0,9.0,0.0,26.0,9.0,1651025643150166.0,1
362,-16.0,8.0,-6.0,-19.0,-8.0,-6.0,-1.0,-1.0,1651025643164209.0,1
363,12.0,-7.0,-10.0,-14.0,0.0,7.0,41.0,17.0,1651025643164209.0,1
364,-9.0,8.0,8.0,-6.0,-2.0,-4.0,-71.0,-22.0,1651025643166234.0,1
365,-7.0,-2.0,-3.0,-30.0,-12.0,-11.0,16.0,1.0,1651025643166234.0,1
366,27.0,1.0,10.0,57.0,13.0,1.0,4.0,9.0,1651025643187225.0,1
367,19.0,9.0,-5.0,-15.0,-9.0,7.0,29.0,5.0,1651025643187225.0,1
368,-47.0,-17.0,1.0,-3.0,-1.0,8.0,10.0,6.0,1651025643188219.0,1
369,35.0,0.0,-16.0,-39.0,-10.0,-9.0,-3.0,2.0,1651025643188219.0,1
370,-25.0,-3.0,9.0,28.0,8.0,1.0,-12.0,-10.0,1651025643200187.0,1
371,-12.0,-11.0,-6.0,-8.0,-4.0,3.0,36.0,-3.0,1651025643200187.0,1
372,18.0,19.0,-1.0,3.0,7.0,-3.0,-44.0,13.0,1651025643209162.0,1
373,-16.0,-5.0,17.0,40.0,5.0,-9.0,-30.0,-26.0,1651025643209162.0,1
374,-13.0,-5.0,-22.0,-54.0,-22.0,5.0,23.0,4.0,1651025643224124.0,1
375,-17.0,-7.0,-7.0,-19.0,-15.0,16.0,57.0,19.0,1651025643224124.0,1
376,33.0,7.0,11.0,21.0,29.0,-12.0,-28.0,-3.0,1651025643226118.0,1
377,2.0,24.0,12.0,17.0,6.0,-1.0,-1.0,-3.0,1651025643226118.0,1
378,-5.0,-11.0,-20.0,-68.0,-22.0,2.0,-11.0,0.0,1651025643247465.0,1
379,-6.0,0.0,34.0,103.0,28.0,-12.0,-28.0,-9.0,1651025643247465.0,1
380,-43.0,2.0,-10.0,-23.0,-10.0,17.0,49.0,-3.0,1651025643248897.0,1
381,1.0,-12.0,0.0,-6.0,5.0,-1.0,13.0,14.0,1651025643248897.0,1
382,25.0,9.0,6.0,20.0,9.0,3.0,-18.0,-3.0,1651025643260849.0,1
383,-2.0,-8.0,-26.0,-56.0,-21.0,-10.0,-41.0,-9.0,1651025643260849.0,1
384,-9.0,1.0,-2.0,7.0,-5.0,1.0,40.0,5.0,1651025643269814.0,1
385,16.0,-12.0,-9.0,-7.0,11.0,9.0,13.0,8.0,1651025643269814.0,1
386,3.0,23.0,23.0,35.0,3.0,-4.0,-16.0,6.0,1651025643284892.0,1
387,-39.0,-37.0,-10.0,-9.0,0.0,-9.0,-22.0,-8.0,1651025643284892.0,1
388,33.0,-2.0,8.0,12.0,5.0,4.0,17.0,-8.0,1651025643285819.0,1
389,-27.0,0.0,3.0,6.0,-4.0,13.0,14.0,6.0,1651025643285819.0,1
390,22.0,-6.0,-17.0,-26.0,-9.0,-28.0,-22.0,2.0,1651025643306832.0,1
391,17.0,10.0,6.0,0.0,5.0,10.0,17.0,-1.0,1651025643306832.0,1
392,-37.0,-5.0,-9.0,-1.0,-15.0,-14.0,-26.0,-15.0,1651025643308758.0,1
393,18.0,0.0,-11.0,-43.0,-13.0,5.0,13.0,5.0,1651025643308758.0,1
394,-7.0,8.0,20.0,60.0,39.0,4.0,5.0,-3.0,1651025643320726.0,1
395,21.0,1.0,5.0,8.0,-20.0,-13.0,-5.0,-10.0,1651025643320726.0,1
396,-2.0,0.0,-12.0,-36.0,5.0,17.0,27.0,19.0,1651025643329701.0,1
397,31.0,23.0,29.0,69.0,20.0,-15.0,-46.0,-7.0,1651025643329701.0,1
398,-28.0,-29.0,-24.0,-35.0,-19.0,-6.0,-4.0,-6.0,1651025643344986.0,1
399,26.0,7.0,6.0,-11.0,-3.0,1.0,11.0,5.0,1651025643344986.0,1
400,-23.0,4.0,14.0,36.0,17.0,14.0,5.0,-1.0,1651025643345995.0,1
401,5.0,-2.0,-1.0,-3.0,-5.0,-8.0,-10.0,-6.0,1651025643345995.0,1
402,6.0,24.0,-4.0,-27.0,-12.0,3.0,21.0,-1.0,1651025643367493.0,1
403,10.0,-8.0,4.0,43.0,30.0,11.0,20.0,19.0,1651025643367493.0,1
404,-9.0,-9.0,-6.0,-20.0,-22.0,-16.0,-28.0,-15.0,1651025643368725.0,1
405,-10.0,3.0,4.0,13.0,3.0,-1.0,-9.0,-1.0,1651025643368725.0,1
406,9.0,3.0,12.0,1.0,-1.0,4.0,20.0,6.0,1651025643380517.0,1
407,-15.0,-24.0,-28.0,-51.0,-15.0,2.0,-5.0,-5.0,1651025643380517.0,1
408,15.0,23.0,6.0,11.0,3.0,4.0,-3.0,5.0,1651025643389496.0,1
409,10.0,-15.0,-9.0,-3.0,1.0,-12.0,11.0,-5.0,1651025643389496.0,1
410,-37.0,-13.0,-8.0,-21.0,-11.0,-4.0,-14.0,-10.0,1651025643404456.0,1
411,68.0,17.0,2.0,4.0,7.0,13.0,-18.0,10.0,1651025643404456.0,1
412,-20.0,-10.0,-9.0,-20.0,-8.0,-15.0,4.0,-2.0,1651025643406475.0,1
413,-6.0,0.0,15.0,29.0,1.0,2.0,3.0,-3.0,1651025643406475.0,1
414,-30.0,-4.0,-25.0,-48.0,-20.0,-1.0,17.0,-5.0,1651025643427555.0,1
415,-4.0,-5.0,13.0,19.0,-3.0,-7.0,-39.0,-17.0,1651025643427555.0,1
416,7.0,-4.0,-2.0,-7.0,17.0,-4.0,9.0,3.0,1651025643428519.0,1
417,-8.0,8.0,-9.0,-31.0,-7.0,4.0,22.0,12.0,1651025643428519.0,1
418,9.0,-14.0,2.0,24.0,-2.0,-6.0,-35.0,-13.0,1651025643449998.0,1
419,-14.0,1.0,-9.0,-26.0,-8.0,-5.0,-7.0,5.0,1651025643449998.0,1
420,-6.0,9.0,-4.0,-26.0,-29.0,5.0,9.0,4.0,1651025643450936.0,1
421,-3.0,-6.0,11.0,45.0,31.0,-4.0,-17.0,-1.0,1651025643450936.0,1
422,4.0,2.0,-9.0,-22.0,-4.0,2.0,31.0,5.0,1651025643463902.0,1
423,-26.0,-1.0,5.0,2.0,-6.0,-1.0,-18.0,-8.0,1651025643463902.0,1
424,21.0,-4.0,21.0,55.0,21.0,11.0,16.0,1.0,1651025643470896.0,1
425,8.0,7.0,-7.0,-13.0,-5.0,-1.0,-3.0,-1.0,1651025643470896.0,1
426,7.0,0.0,-1.0,16.0,5.0,2.0,-11.0,-4.0,1651025643487061.0,1
427,-29.0,-1.0,-7.0,-21.0,0.0,-1.0,8.0,-2.0,1651025643487061.0,1
428,58.0,14.0,-4.0,-8.0,4.0,9.0,49.0,29.0,1651025643489015.0,1
429,-36.0,-19.0,2.0,15.0,-4.0,-1.0,-51.0,-19.0,1651025643489015.0,1
430,25.0,5.0,-3.0,-6.0,-3.0,-2.0,1.0,-2.0,1651025643509592.0,1
431,-12.0,-9.0,-25.0,-54.0,-18.0,-12.0,0.0,-3.0,1651025643509592.0,1
432,3.0,10.0,48.0,102.0,33.0,18.0,1.0,10.0,1651025643511551.0,1
433,4.0,4.0,-4.0,-20.0,4.0,2.0,2.0,-5.0,1651025643511551.0,1
434,22.0,-10.0,-5.0,-6.0,4.0,11.0,24.0,13.0,1651025643523546.0,1
435,-4.0,5.0,-12.0,-13.0,-6.0,-1.0,-24.0,-11.0,1651025643523546.0,1
436,-3.0,-4.0,-11.0,-25.0,-12.0,-17.0,-8.0,-13.0,1651025643532524.0,1
437,-4.0,-14.0,-16.0,-24.0,-1.0,3.0,12.0,4.0,1651025643532524.0,1
438,-5.0,5.0,27.0,60.0,-10.0,-6.0,-7.0,6.0,1651025643546557.0,1
439,8.0,20.0,3.0,-2.0,29.0,15.0,25.0,12.0,1651025643546557.0,1
440,-2.0,-4.0,-11.0,-17.0,-11.0,-10.0,-28.0,-11.0,1651025643554509.0,1
441,-7.0,-12.0,-6.0,-26.0,-15.0,-7.0,-13.0,-9.0,1651025643554509.0,1
442,-3.0,11.0,3.0,9.0,12.0,8.0,30.0,8.0,1651025643569533.0,1
443,4.0,-22.0,-2.0,1.0,-13.0,-7.0,-7.0,-6.0,1651025643569533.0,1
444,27.0,-5.0,5.0,25.0,8.0,-9.0,27.0,9.0,1651025643571465.0,1
445,-6.0,11.0,0.0,-13.0,-10.0,10.0,-11.0,-2.0,1651025643571465.0,1
446,6.0,-2.0,-9.0,-21.0,-5.0,1.0,-27.0,-5.0,1651025643583881.0,1
447,-1.0,7.0,-5.0,-11.0,-9.0,-7.0,-2.0,-1.0,1651025643583881.0,1
448,-4.0,2.0,25.0,62.0,25.0,11.0,34.0,5.0,1651025643590862.0,1
449,-3.0,0.0,-12.0,-35.0,-17.0,-19.0,-46.0,-15.0,1651025643590862.0,1
450,18.0,3.0,10.0,40.0,14.0,-5.0,4.0,2.0,1651025643606855.0,1
451,-45.0,-9.0,7.0,14.0,-4.0,-12.0,-19.0,-3.0,1651025643606855.0,1
452,-3.0,-7.0,-26.0,-67.0,-22.0,-12.0,7.0,-7.0,1651025643608834.0,1
453,29.0,12.0,13.0,50.0,15.0,22.0,31.0,17.0,1651025643608834.0,1
454,-14.0,2.0,-5.0,-16.0,-4.0,0.0,-1.0,-14.0,1651025643629962.0,1
455,23.0,4.0,-3.0,-15.0,-3.0,-11.0,-16.0,9.0,1651025643629962.0,1
456,3.0,4.0,1.0,-4.0,-3.0,7.0,-8.0,-3.0,1651025643630893.0,1
457,-24.0,-14.0,-22.0,-38.0,-8.0,-3.0,10.0,-1.0,1651025643630893.0,1
458,0.0,2.0,17.0,45.0,13.0,6.0,5.0,-7.0,1651025643644002.0,1
459,8.0,-1.0,1.0,6.0,-5.0,-4.0,-10.0,0.0,1651025643644002.0,1
460,-25.0,-9.0,-14.0,-29.0,-19.0,-9.0,-13.0,-4.0,1651025643651012.0,1
461,-4.0,11.0,-3.0,-12.0,-1.0,-4.0,-2.0,4.0,1651025643651012.0,1
462,16.0,16.0,-7.0,-41.0,-4.0,13.0,28.0,17.0,1651025643674523.0,1
463,11.0,-26.0,13.0,47.0,9.0,-7.0,-11.0,-13.0,1651025643674523.0,1
464,-25.0,2.0,-11.0,-43.0,-5.0,7.0,-20.0,0.0,1651025643676473.0,1
465,-5.0,-3.0,12.0,49.0,5.0,-7.0,-3.0,-14.0,1651025643676473.0,1
466,-21.0,-6.0,-10.0,-4.0,6.0,2.0,3.0,-1.0,1651025643689479.0,1
467,21.0,6.0,5.0,-2.0,-11.0,-7.0,-24.0,-3.0,1651025643689479.0,1
468,16.0,10.0,-1.0,1.0,16.0,1.0,13.0,18.0,1651025643691433.0,1
469,-29.0,-17.0,-2.0,-8.0,-10.0,-9.0,-9.0,-14.0,1651025643691433.0,1
470,-17.0,11.0,-12.0,-34.0,-17.0,-11.0,2.0,-5.0,1651025643704372.0,1
471,17.0,-11.0,15.0,44.0,17.0,8.0,9.0,7.0,1651025643704372.0,1
472,-8.0,-3.0,-2.0,-15.0,-10.0,2.0,22.0,9.0,1651025643710382.0,1
473,15.0,-3.0,-5.0,-7.0,-3.0,-3.0,-17.0,-2.0,1651025643710382.0,1
474,0.0,-2.0,-4.0,5.0,-2.0,-6.0,-14.0,-3.0,1651025643726653.0,1
475,-18.0,7.0,-10.0,-37.0,-9.0,8.0,9.0,-2.0,1651025643726653.0,1
476,39.0,5.0,2.0,12.0,-10.0,4.0,1.0,11.0,1651025643728649.0,1
477,-27.0,-9.0,20.0,36.0,28.0,-4.0,11.0,-2.0,1651025643728649.0,1
478,-6.0,2.0,-6.0,-22.0,-7.0,-7.0,-48.0,-21.0,1651025643749593.0,1
479,13.0,3.0,4.0,11.0,7.0,5.0,30.0,13.0,1651025643749593.0,1
480,-48.0,-20.0,-7.0,5.0,0.0,5.0,10.0,-11.0,1651025643751588.0,1
481,44.0,11.0,0.0,1.0,-13.0,1.0,31.0,18.0,1651025643751588.0,1
482,31.0,-9.0,-4.0,-20.0,2.0,9.0,-25.0,6.0,1651025643764360.0,1
483,-18.0,6.0,2.0,5.0,26.0,2.0,-7.0,-9.0,1651025643764360.0,1
484,-23.0,15.0,-8.0,-16.0,-18.0,-17.0,-39.0,-28.0,1651025643770447.0,1
485,4.0,-5.0,4.0,22.0,0.0,-1.0,-6.0,6.0,1651025643770447.0,1
486,-8.0,-16.0,-4.0,-1.0,-13.0,-5.0,46.0,12.0,1651025643787528.0,1
487,2.0,-6.0,-4.0,-3.0,4.0,3.0,-1.0,-10.0,1651025643787528.0,1
488,-3.0,-4.0,-7.0,-6.0,-8.0,-2.0,-9.0,-6.0,1651025643788499.0,1
489,-3.0,11.0,3.0,-18.0,6.0,5.0,31.0,9.0,1651025643788499.0,1
490,6.0,4.0,5.0,11.0,2.0,7.0,-18.0,6.0,1651025643810019.0,1
491,17.0,6.0,-7.0,9.0,4.0,-5.0,-3.0,-4.0,1651025643810019.0,1
492,-9.0,-11.0,-2.0,-9.0,-3.0,-15.0,-13.0,-8.0,1651025643810931.0,1
493,-1.0,6.0,2.0,4.0,-9.0,-8.0,10.0,9.0,1651025643810931.0,1
494,-9.0,-2.0,-3.0,-3.0,-5.0,29.0,19.0,-2.0,1651025643823900.0,1
495,-3.0,0.0,-1.0,-3.0,9.0,-4.0,-9.0,3.0,1651025643823900.0,1
496,5.0,-1.0,2.0,7.0,23.0,22.0,11.0,6.0,1651025643830946.0,1
497,5.0,0.0,3.0,2.0,4.0,10.0,10.0,3.0,1651025643830946.0,1
498,-10.0,-6.0,-3.0,-7.0,-34.0,-38.0,-23.0,-10.0,1651025643847062.0,1
499,-7.0,3.0,-9.0,-30.0,17.0,0.0,6.0,-3.0,1651025643847062.0,1
500,-3.0,-2.0,9.0,40.0,3.0,9.0,-3.0,-1.0,1651025643849014.0,1
501,14.0,0.0,6.0,13.0,6.0,-3.0,-2.0,3.0,1651025643849014.0,1
502,-2.0,0.0,5.0,-3.0,8.0,6.0,2.0,-2.0,1651025643869992.0,1
503,-5.0,3.0,-1.0,-5.0,-25.0,-11.0,7.0,1.0,1651025643869992.0,1
504,-1.0,-6.0,-7.0,-9.0,1.0,-16.0,-15.0,-5.0,1651025643870925.0,1
505,-3.0,4.0,-3.0,-9.0,4.0,6.0,-6.0,-3.0,1651025643870925.0,1
506,0.0,-5.0,0.0,4.0,-2.0,9.0,9.0,3.0,1651025643883899.0,1
507,-2.0,2.0,3.0,10.0,12.0,5.0,5.0,0.0,1651025643883899.0,1
508,1.0,0.0,1.0,-5.0,-9.0,0.0,-6.0,-1.0,1651025643890939.0,1
509,-1.0,-4.0,-3.0,-4.0,-12.0,-8.0,-2.0,-1.0,1651025643890939.0,1
510,4.0,1.0,0.0,-1.0,15.0,-8.0,6.0,4.0,1651025643906897.0,1
511,-6.0,0.0,-1.0,3.0,10.0,2.0,0.0,-2.0,1651025643906897.0,1
512,2.0,-2.0,-1.0,-3.0,0.0,33.0,1.0,0.0,1651025643908824.0,1
513,1.0,11.0,8.0,-1.0,-7.0,-5.0,1.0,2.0,1651025643908824.0,1
514,0.0,-10.0,-5.0,9.0,11.0,-1.0,-1.0,0.0,1651025643929898.0,1
515,-8.0,-3.0,1.0,-2.0,-13.0,-6.0,-7.0,-6.0,1651025643929898.0,1
516,2.0,-4.0,-6.0,-5.0,-7.0,-18.0,-1.0,-2.0,1651025643930842.0,1
517,1.0,-2.0,-3.0,-4.0,-2.0,6.0,1.0,-4.0,1651025643930842.0,1
518,-2.0,14.0,13.0,1.0,3.0,0.0,-2.0,7.0,1651025643943476.0,1
519,-6.0,-9.0,-15.0,-1.0,-21.0,-6.0,4.0,3.0,1651025643943476.0,1
520,0.0,1.0,0.0,-1.0,16.0,-7.0,-4.0,-2.0,1651025643951822.0,1
521,-4.0,-11.0,-8.0,-4.0,2.0,8.0,0.0,0.0,1651025643951822.0,1
522,2.0,-8.0,-11.0,-4.0,-14.0,-11.0,0.0,-1.0,1651025643966815.0,1
523,-1.0,8.0,7.0,2.0,12.0,10.0,2.0,-3.0,1651025643966815.0,1
524,-3.0,-12.0,-11.0,-2.0,-3.0,0.0,-2.0,-1.0,1651025643968805.0,1
525,0.0,2.0,-2.0,-1.0,-14.0,-4.0,-3.0,0.0,1651025643968805.0,1
526,-1.0,15.0,5.0,5.0,21.0,3.0,-1.0,-2.0,1651025643989893.0,1
527,-1.0,-34.0,-1.0,0.0,-17.0,2.0,2.0,2.0,1651025643989893.0,1
528,5.0,25.0,9.0,-3.0,-5.0,-5.0,-3.0,-3.0,1651025643990889.0,1
529,-4.0,-12.0,2.0,-3.0,3.0,-2.0,0.0,-1.0,1651025643990889.0,1
530,-2.0,-5.0,-22.0,-3.0,-4.0,0.0,-1.0,-3.0,1651025644003539.0,1
531,10.0,18.0,12.0,4.0,9.0,4.0,4.0,4.0,1651025644003539.0,1
532,-15.0,-10.0,13.0,-3.0,-4.0,-7.0,-5.0,-10.0,1651025644012518.0,1
533,3.0,-7.0,-16.0,5.0,-5.0,1.0,7.0,9.0,1651025644012518.0,1
534,-9.0,-17.0,3.0,-5.0,18.0,-5.0,-3.0,-7.0,1651025644027505.0,1
535,13.0,32.0,-10.0,5.0,12.0,14.0,-1.0,-1.0,1651025644027505.0,1
536,-6.0,-32.0,-11.0,2.0,-1.0,-6.0,-1.0,4.0,1651025644028474.0,1
537,0.0,24.0,17.0,-8.0,-22.0,-3.0,-2.0,-3.0,1651025644028474.0,1
538,-3.0,-89.0,-6.0,4.0,10.0,2.0,-2.0,-1.0,1651025644049632.0,1
539,-22.0,47.0,6.0,-12.0,-17.0,-12.0,-9.0,-13.0,1651025644049632.0,1
540,-5.0,-20.0,-14.0,-7.0,-16.0,-9.0,-2.0,-5.0,1651025644051583.0,1
541,6.0,-28.0,-18.0,10.0,24.0,11.0,1.0,1.0,1651025644051583.0,1
542,16.0,74.0,46.0,12.0,6.0,8.0,4.0,6.0,1651025644062813.0,1
543,1.0,-52.0,-34.0,8.0,-2.0,1.0,6.0,-4.0,1651025644062813.0,1
544,-2.0,33.0,9.0,-10.0,-6.0,-5.0,-4.0,1.0,1651025644071878.0,1
545,-9.0,-20.0,-6.0,-10.0,-3.0,-2.0,-3.0,-4.0,1651025644071878.0,1
546,1.0,-14.0,-10.0,-2.0,-4.0,-4.0,-1.0,2.0,1651025644086870.0,1
547,6.0,45.0,12.0,0.0,-1.0,-24.0,-23.0,-22.0,1651025644086870.0,1
548,15.0,-2.0,-2.0,7.0,0.0,10.0,17.0,31.0,1651025644088877.0,1
549,-4.0,25.0,10.0,1.0,11.0,26.0,3.0,-9.0,1651025644088877.0,1
550,-4.0,-9.0,-41.0,-9.0,-7.0,0.0,-2.0,7.0,1651025644109918.0,1
551,5.0,3.0,13.0,-3.0,-16.0,-14.0,1.0,11.0,1651025644109918.0,1
552,-19.0,-50.0,-23.0,-5.0,-5.0,-10.0,-19.0,-24.0,1651025644110922.0,1
553,16.0,25.0,12.0,-6.0,5.0,-9.0,2.0,10.0,1651025644110922.0,1
554,-4.0,-35.0,-11.0,-2.0,6.0,12.0,11.0,6.0,1651025644122985.0,1
555,-4.0,32.0,-2.0,-3.0,-6.0,-3.0,-6.0,-8.0,1651025644122985.0,1
556,10.0,1.0,2.0,0.0,5.0,-4.0,6.0,4.0,1651025644131951.0,1
557,-2.0,-10.0,9.0,1.0,-4.0,-6.0,4.0,7.0,1651025644131951.0,1
558,1.0,49.0,24.0,-1.0,-30.0,-13.0,-13.0,-11.0,1651025644146959.0,1
559,-4.0,-85.0,-6.0,7.0,34.0,20.0,4.0,6.0,1651025644146959.0,1
560,10.0,56.0,24.0,3.0,3.0,8.0,6.0,3.0,1651025644148915.0,1
561,-5.0,-15.0,-17.0,-4.0,-9.0,-6.0,-8.0,-3.0,1651025644148915.0,1
562,-13.0,11.0,-15.0,-4.0,4.0,-10.0,-3.0,-3.0,1651025644169960.0,1
563,5.0,-42.0,6.0,3.0,-9.0,3.0,12.0,0.0,1651025644169960.0,1
564,1.0,16.0,21.0,10.0,12.0,4.0,0.0,-5.0,1651025644170889.0,1
565,-7.0,-17.0,-45.0,-27.0,-13.0,-7.0,-6.0,-2.0,1651025644170889.0,1
566,5.0,-7.0,7.0,-2.0,-16.0,-6.0,-1.0,6.0,1651025644183535.0,1
567,-12.0,55.0,-2.0,3.0,13.0,6.0,3.0,5.0,1651025644183535.0,1
568,-3.0,-16.0,-12.0,0.0,8.0,5.0,-1.0,-6.0,1651025644192515.0,1
569,4.0,13.0,16.0,7.0,-6.0,-3.0,0.0,-5.0,1651025644192515.0,1
570,-6.0,-5.0,0.0,2.0,12.0,3.0,6.0,5.0,1651025644207520.0,1
571,-7.0,-27.0,0.0,1.0,-6.0,3.0,3.0,-6.0,1651025644207520.0,1
572,14.0,15.0,-3.0,0.0,0.0,-4.0,3.0,23.0,1651025644208471.0,1
573,-19.0,-18.0,-17.0,-18.0,-12.0,-8.0,-15.0,-17.0,1651025644208471.0,1
574,10.0,7.0,30.0,1.0,2.0,4.0,-3.0,1.0,1651025644230458.0,1
575,-6.0,-13.0,-32.0,8.0,19.0,6.0,3.0,-2.0,1651025644230458.0,1
576,6.0,4.0,-4.0,-6.0,-8.0,-2.0,1.0,-5.0,1651025644231412.0,1
577,8.0,4.0,27.0,19.0,6.0,3.0,9.0,12.0,1651025644231412.0,1
578,-12.0,6.0,-12.0,-8.0,-5.0,-3.0,-3.0,-16.0,1651025644243445.0,1
579,13.0,-6.0,23.0,4.0,-17.0,-3.0,-1.0,13.0,1651025644243445.0,1
580,-1.0,2.0,-28.0,-18.0,-3.0,0.0,-5.0,-2.0,1651025644252360.0,1
581,-8.0,-32.0,-10.0,2.0,8.0,-3.0,-2.0,1.0,1651025644252360.0,1
582,4.0,6.0,6.0,5.0,-2.0,-2.0,-5.0,-13.0,1651025644266961.0,1
583,-11.0,-21.0,14.0,3.0,2.0,4.0,2.0,-3.0,1651025644266961.0,1
584,-14.0,-23.0,-23.0,-10.0,-7.0,-4.0,-4.0,-8.0,1651025644268917.0,1
585,1.0,-2.0,2.0,-3.0,-6.0,-1.0,-1.0,-1.0,1651025644268917.0,1
586,6.0,24.0,1.0,1.0,5.0,2.0,4.0,2.0,1651025644289861.0,1
587,8.0,19.0,38.0,5.0,-1.0,1.0,1.0,6.0,1651025644289861.0,1
588,-1.0,-15.0,17.0,18.0,-4.0,-4.0,-2.0,-3.0,1651025644290831.0,1
589,-6.0,-1.0,-62.0,-29.0,0.0,2.0,-3.0,-5.0,1651025644290831.0,1
590,-17.0,-23.0,1.0,5.0,10.0,3.0,-2.0,-3.0,1651025644303395.0,1
591,6.0,14.0,-3.0,-8.0,-16.0,-6.0,0.0,2.0,1651025644303395.0,1
592,7.0,22.0,1.0,-6.0,3.0,-1.0,-1.0,0.0,1651025644312374.0,1
593,-8.0,7.0,26.0,20.0,8.0,-1.0,1.0,-2.0,1651025644312374.0,1
594,8.0,19.0,-14.0,-9.0,-19.0,-5.0,-1.0,5.0,1651025644327465.0,1
595,-5.0,-21.0,0.0,-4.0,8.0,2.0,-2.0,-2.0,1651025644327465.0,1
596,0.0,3.0,18.0,12.0,14.0,1.0,1.0,2.0,1651025644328895.0,1
597,6.0,3.0,16.0,14.0,-3.0,3.0,2.0,2.0,1651025644328895.0,1
598,4.0,-15.0,-22.0,-9.0,4.0,1.0,2.0,1.0,1651025644349880.0,1
599,0.0,23.0,-6.0,-9.0,-17.0,-4.0,0.0,0.0,1651025644349880.0,1
600,8.0,19.0,34.0,8.0,-8.0,0.0,1.0,2.0,1651025644350809.0,1
601,3.0,-6.0,-7.0,7.0,16.0,7.0,2.0,2.0,1651025644350809.0,1
602,-34.0,-38.0,-11.0,-2.0,9.0,-7.0,-6.0,-9.0,1651025644362845.0,1
603,-1.0,-15.0,-28.0,-9.0,-9.0,-4.0,0.0,1.0,1651025644362845.0,1
604,-4.0,-11.0,-14.0,-18.0,-2.0,1.0,-2.0,-2.0,1651025644371819.0,1
605,0.0,-10.0,27.0,11.0,-4.0,-3.0,1.0,-2.0,1651025644371819.0,1
606,7.0,16.0,13.0,9.0,5.0,2.0,3.0,0.0,1651025644386781.0,1
607,-3.0,-14.0,-4.0,1.0,3.0,2.0,2.0,1.0,1651025644386781.0,1
608,-4.0,3.0,-8.0,-5.0,-1.0,-2.0,-3.0,-5.0,1651025644388708.0,1
609,4.0,-2.0,-2.0,-1.0,-4.0,-2.0,2.0,2.0,1651025644388708.0,1
610,2.0,6.0,0.0,-5.0,-2.0,-2.0,-4.0,-3.0,1651025644409950.0,1
611,0.0,33.0,4.0,-4.0,-1.0,-2.0,-3.0,-1.0,1651025644409950.0,1
612,0.0,-6.0,2.0,3.0,-4.0,-2.0,-2.0,-1.0,1651025644410885.0,1
613,12.0,42.0,27.0,-1.0,3.0,1.0,1.0,2.0,1651025644410885.0,1
614,-5.0,-27.0,-38.0,-1.0,-1.0,1.0,0.0,-2.0,1651025644431899.0,1
615,4.0,7.0,13.0,3.0,-6.0,-2.0,-2.0,0.0,1651025644431899.0,1
616,-1.0,6.0,-1.0,0.0,-6.0,2.0,0.0,-1.0,1651025644433851.0,1
617,0.0,13.0,4.0,-2.0,10.0,2.0,0.0,-2.0,1651025644433851.0,1
618,9.0,6.0,9.0,6.0,2.0,0.0,0.0,4.0,1651025644446857.0,1
619,-11.0,-23.0,-5.0,-8.0,-17.0,-10.0,-4.0,-4.0,1651025644446857.0,1
620,3.0,-27.0,-9.0,4.0,6.0,9.0,2.0,3.0,1651025644448783.0,1
621,-1.0,89.0,19.0,-4.0,9.0,0.0,-2.0,-3.0,1651025644448783.0,1
622,7.0,4.0,11.0,9.0,13.0,4.0,4.0,3.0,1651025644469903.0,1
623,6.0,19.0,15.0,2.0,-4.0,-2.0,2.0,3.0,1651025644469903.0,1
624,0.0,-19.0,-15.0,1.0,-3.0,-5.0,0.0,-1.0,1651025644471833.0,1
625,-3.0,-5.0,-5.0,-8.0,-11.0,-3.0,-2.0,-1.0,1651025644471833.0,1
626,4.0,5.0,-6.0,-4.0,-9.0,-2.0,-3.0,1.0,1651025644491987.0,1
627,-7.0,-19.0,-7.0,-6.0,4.0,3.0,-1.0,-3.0,1651025644491987.0,1
628,-5.0,2.0,17.0,9.0,4.0,0.0,-2.0,-3.0,1651025644493961.0,1
629,0.0,-16.0,-13.0,-1.0,-2.0,0.0,-2.0,-1.0,1651025644493961.0,1
630,-4.0,-7.0,3.0,-9.0,-6.0,-1.0,-2.0,-2.0,1651025644506916.0,1
631,5.0,-6.0,-7.0,-2.0,-15.0,0.0,1.0,1.0,1651025644506916.0,1
632,-2.0,4.0,1.0,0.0,18.0,2.0,0.0,-1.0,1651025644512900.0,1
633,-1.0,-28.0,-12.0,5.0,1.0,-1.0,1.0,1.0,1651025644512900.0,1
634,1.0,3.0,9.0,4.0,-2.0,1.0,2.0,1.0,1651025644529876.0,1
635,0.0,-8.0,-1.0,0.0,6.0,4.0,0.0,2.0,1651025644529876.0,1
636,-5.0,-39.0,-9.0,-9.0,-6.0,-4.0,0.0,0.0,1651025644530852.0,1
637,8.0,38.0,5.0,-1.0,8.0,-3.0,-2.0,-1.0,1651025644530852.0,1
638,-1.0,-11.0,12.0,6.0,-2.0,7.0,0.0,-2.0,1651025644551680.0,1
639,-5.0,-16.0,-23.0,-2.0,17.0,0.0,-1.0,-2.0,1651025644551680.0,1
640,1.0,11.0,5.0,3.0,0.0,-1.0,-1.0,1.0,1651025644559600.0,1
641,-2.0,-16.0,2.0,1.0,-10.0,-3.0,0.0,1.0,1651025644559600.0,1
642,5.0,8.0,-8.0,-5.0,-10.0,-5.0,0.0,-1.0,1651025644566844.0,1
643,-2.0,9.0,-2.0,-2.0,1.0,1.0,-1.0,-2.0,1651025644566844.0,1
644,-5.0,4.0,5.0,-4.0,-8.0,-3.0,-2.0,-5.0,1651025644573615.0,1
645,0.0,-4.0,4.0,2.0,3.0,3.0,1.0,2.0,1651025644573615.0,1
646,6.0,6.0,7.0,2.0,-5.0,-1.0,0.0,3.0,1651025644589603.0,1
647,0.0,14.0,2.0,2.0,3.0,0.0,-1.0,-1.0,1651025644589603.0,1
648,-5.0,9.0,-16.0,-4.0,2.0,-2.0,-2.0,-2.0,1651025644591604.0,1
649,-7.0,-6.0,-6.0,-6.0,-18.0,-1.0,-1.0,-2.0,1651025644591604.0,1
650,0.0,-9.0,-3.0,-1.0,15.0,-3.0,-1.0,2.0,1651025644611886.0,1
651,4.0,0.0,7.0,5.0,2.0,0.0,0.0,-1.0,1651025644611886.0,1
652,0.0,29.0,9.0,5.0,-4.0,0.0,0.0,-1.0,1651025644613902.0,1
653,-1.0,-16.0,-4.0,-1.0,3.0,0.0,0.0,0.0,1651025644613902.0,1
654,0.0,15.0,-1.0,-2.0,-6.0,-1.0,-1.0,0.0,1651025644625916.0,1
655,-11.0,-26.0,-5.0,-4.0,-18.0,-8.0,-3.0,-4.0,1651025644625916.0,1
656,1.0,0.0,-2.0,-3.0,11.0,3.0,0.0,-3.0,1651025644634540.0,1
657,-1.0,-16.0,1.0,6.0,0.0,2.0,3.0,1.0,1651025644634540.0,1
658,-2.0,9.0,3.0,1.0,3.0,-2.0,-1.0,1.0,1651025644650026.0,1
659,2.0,7.0,2.0,0.0,3.0,2.0,0.0,3.0,1651025644650026.0,1
660,4.0,36.0,5.0,-7.0,-17.0,-9.0,-3.0,0.0,1651025644650958.0,1
661,-6.0,-20.0,0.0,-3.0,4.0,5.0,-2.0,-4.0,1651025644650958.0,1
662,-9.0,5.0,-20.0,-4.0,2.0,-4.0,-2.0,-3.0,1651025644672247.0,1
663,1.0,-6.0,3.0,3.0,11.0,2.0,0.0,-1.0,1651025644672247.0,1
664,0.0,-25.0,-10.0,0.0,-15.0,-2.0,2.0,2.0,1651025644673178.0,1
665,-1.0,14.0,0.0,-2.0,2.0,-6.0,-3.0,-2.0,1651025644673178.0,1
666,2.0,8.0,12.0,1.0,4.0,4.0,-1.0,0.0,1651025644686191.0,1
667,5.0,12.0,4.0,2.0,-4.0,1.0,1.0,1.0,1651025644686191.0,1
668,-6.0,-12.0,-9.0,-1.0,8.0,1.0,0.0,-2.0,1651025644694843.0,1
669,-3.0,-11.0,-8.0,-2.0,-10.0,-4.0,0.0,0.0,1651025644694843.0,1
670,-3.0,-33.0,-3.0,-1.0,-5.0,-2.0,0.0,-1.0,1651025644709805.0,1
671,7.0,49.0,4.0,-2.0,-6.0,-7.0,0.0,3.0,1651025644709805.0,1
672,-9.0,-24.0,8.0,7.0,15.0,9.0,-1.0,-1.0,1651025644710803.0,1
673,-5.0,-12.0,-7.0,-2.0,-4.0,-3.0,-2.0,-2.0,1651025644710803.0,1
674,12.0,30.0,11.0,3.0,2.0,-2.0,1.0,3.0,1651025644732536.0,1
675,-16.0,-55.0,-19.0,-5.0,-3.0,-2.0,-2.0,-4.0,1651025644732536.0,1
676,3.0,17.0,1.0,-4.0,-4.0,-3.0,0.0,-2.0,1651025644733548.0,1
677,0.0,-18.0,-4.0,-2.0,0.0,-1.0,1.0,1.0,1651025644733548.0,1
678,-8.0,-2.0,-6.0,-4.0,-9.0,-2.0,-1.0,-4.0,1651025644746605.0,1
679,6.0,9.0,7.0,2.0,7.0,2.0,-2.0,1.0,1651025644746605.0,1
680,1.0,-6.0,-4.0,-1.0,-10.0,-4.0,0.0,-1.0,1651025644753539.0,1
681,-1.0,17.0,0.0,0.0,13.0,4.0,0.0,-3.0,1651025644753539.0,1
682,2.0,-20.0,1.0,0.0,-2.0,1.0,1.0,1.0,1651025644769565.0,1
683,1.0,-3.0,0.0,-6.0,-12.0,-5.0,0.0,-2.0,1651025644769565.0,1
684,0.0,10.0,14.0,7.0,23.0,6.0,-1.0,1.0,1651025644771492.0,1
685,0.0,-5.0,-23.0,-3.0,-11.0,-4.0,-1.0,0.0,1651025644771492.0,1
686,3.0,19.0,9.0,3.0,10.0,2.0,1.0,0.0,1651025644792519.0,1
687,-4.0,2.0,-6.0,-3.0,-3.0,2.0,0.0,0.0,1651025644792519.0,1
688,1.0,-17.0,2.0,0.0,-11.0,-4.0,-2.0,-2.0,1651025644793434.0,1
689,3.0,2.0,12.0,1.0,-1.0,-2.0,0.0,1.0,1651025644793434.0,1
690,-2.0,12.0,-9.0,-2.0,-3.0,-3.0,-2.0,-1.0,1651025644805469.0,1
691,3.0,8.0,5.0,0.0,-3.0,-2.0,0.0,-1.0,1651025644805469.0,1
692,1.0,-20.0,1.0,0.0,9.0,-2.0,1.0,2.0,1651025644821054.0,1
693,-6.0,8.0,-9.0,0.0,3.0,5.0,0.0,-1.0,1651025644821054.0,1
694,0.0,-1.0,-3.0,-5.0,-11.0,-5.0,0.0,-1.0,1651025644830058.0,1
695,6.0,21.0,10.0,3.0,8.0,2.0,-1.0,2.0,1651025644830058.0,1
696,-5.0,-4.0,-7.0,-3.0,-6.0,-2.0,-1.0,-3.0,1651025644831033.0,1
697,3.0,11.0,10.0,1.0,0.0,0.0,-2.0,-1.0,1651025644831033.0,1
698,0.0,-43.0,0.0,0.0,3.0,2.0,-2.0,2.0,1651025644852040.0,1
699,-2.0,-5.0,-6.0,0.0,-1.0,0.0,0.0,-3.0,1651025644852040.0,1
700,1.0,6.0,-5.0,-2.0,-3.0,0.0,0.0,1.0,1651025644853997.0,1
701,2.0,-10.0,1.0,-1.0,-4.0,0.0,0.0,3.0,1651025644853997.0,1
702,-10.0,35.0,6.0,-3.0,-3.0,-3.0,-3.0,-7.0,1651025644866843.0,1
703,3.0,2.0,-2.0,0.0,0.0,1.0,1.0,1.0,1651025644866843.0,1
704,-2.0,0.0,-3.0,-4.0,-6.0,-5.0,-1.0,0.0,1651025644872897.0,1
705,5.0,30.0,10.0,9.0,31.0,9.0,4.0,3.0,1651025644872897.0,1
706,-6.0,-31.0,-8.0,-4.0,-14.0,-2.0,1.0,2.0,1651025644889851.0,1
707,-4.0,3.0,3.0,1.0,11.0,2.0,0.0,-2.0,1651025644889851.0,1
708,1.0,21.0,6.0,1.0,-8.0,-2.0,0.0,1.0,1651025644890790.0,1
709,1.0,-7.0,-9.0,-2.0,-11.0,-5.0,-1.0,-1.0,1651025644890790.0,1
710,4.0,4.0,5.0,2.0,6.0,-1.0,1.0,2.0,1651025644911857.0,1
711,-4.0,-27.0,-7.0,-2.0,-3.0,3.0,-1.0,-1.0,1651025644911857.0,1
712,4.0,16.0,1.0,-3.0,-11.0,-4.0,-1.0,-1.0,1651025644913815.0,1
713,-1.0,-5.0,2.0,-2.0,1.0,1.0,-3.0,-2.0,1651025644913815.0,1
714,4.0,4.0,-7.0,1.0,8.0,5.0,1.0,2.0,1651025644925820.0,1
715,-6.0,-9.0,1.0,1.0,-8.0,-4.0,0.0,-1.0,1651025644925820.0,1
716,3.0,2.0,4.0,2.0,16.0,1.0,1.0,1.0,1651025644934772.0,1
717,1.0,-24.0,1.0,1.0,-7.0,-2.0,1.0,1.0,1651025644934772.0,1
718,-5.0,-4.0,-9.0,-3.0,-8.0,-3.0,-3.0,-4.0,1651025644949944.0,1
719,2.0,13.0,1.0,-2.0,-1.0,2.0,-1.0,-1.0,1651025644949944.0,1
720,-2.0,-7.0,-5.0,-2.0,0.0,0.0,0.0,-1.0,1651025644950875.0,1
721,-1.0,-4.0,9.0,1.0,-4.0,-3.0,-1.0,-1.0,1651025644950875.0,1
722,-5.0,-44.0,-10.0,-5.0,-12.0,-1.0,-1.0,-3.0,1651025644971878.0,1
723,1.0,7.0,-6.0,0.0,11.0,-2.0,-1.0,0.0,1651025644971878.0,1
724,-5.0,-4.0,-2.0,1.0,6.0,2.0,-2.0,-3.0,1651025644973813.0,1
725,3.0,18.0,4.0,-1.0,-3.0,-1.0,0.0,3.0,1651025644973813.0,1
726,-7.0,-2.0,1.0,0.0,0.0,0.0,-1.0,0.0,1651025644985845.0,1
727,1.0,3.0,-3.0,-3.0,-6.0,-2.0,-1.0,0.0,1651025644985845.0,1
728,3.0,4.0,-2.0,-4.0,-5.0,-2.0,0.0,1.0,1651025644994758.0,1
729,-3.0,7.0,2.0,2.0,6.0,-3.0,-2.0,-2.0,1651025644994758.0,1
730,-2.0,25.0,9.0,6.0,2.0,2.0,-2.0,-3.0,1651025645009841.0,1
731,1.0,-3.0,-1.0,4.0,11.0,1.0,-1.0,0.0,1651025645009841.0,1
732,-1.0,-1.0,-3.0,-1.0,5.0,3.0,0.0,1.0,1651025645010769.0,1
733,-1.0,-3.0,-4.0,-4.0,-10.0,-4.0,-3.0,-2.0,1651025645010769.0,1
734,1.0,-14.0,-2.0,-1.0,0.0,0.0,3.0,4.0,1651025645031715.0,1
735,1.0,0.0,4.0,-1.0,-2.0,1.0,1.0,1.0,1651025645031715.0,1
736,-2.0,4.0,0.0,0.0,-5.0,-1.0,0.0,-1.0,1651025645033710.0,1
737,-1.0,-4.0,-2.0,-1.0,3.0,2.0,0.0,-1.0,1651025645033710.0,1
738,2.0,-4.0,2.0,-1.0,0.0,-1.0,-1.0,-1.0,1651025645045680.0,1
739,-2.0,-1.0,-9.0,-2.0,-3.0,-2.0,-1.0,1.0,1651025645045680.0,1
740,1.0,-2.0,-3.0,-6.0,-13.0,0.0,0.0,-1.0,1651025645054652.0,1
741,-1.0,-11.0,-4.0,0.0,4.0,-4.0,1.0,-1.0,1651025645054652.0,1
742,4.0,13.0,8.0,10.0,33.0,7.0,1.0,1.0,1651025645076594.0,1
743,2.0,-12.0,-4.0,-2.0,-13.0,-2.0,2.0,2.0,1651025645076594.0,1
744,-16.0,-48.0,-14.0,-5.0,-2.0,-3.0,-4.0,-5.0,1651025645078597.0,1
745,1.0,9.0,-2.0,-4.0,-10.0,-2.0,-2.0,-1.0,1651025645078597.0,1
746,8.0,23.0,4.0,-5.0,-11.0,-3.0,0.0,1.0,1651025645092552.0,1
747,-7.0,-16.0,-5.0,-3.0,5.0,-1.0,-1.0,-4.0,1651025645092552.0,1
748,5.0,19.0,4.0,-2.0,-30.0,-12.0,0.0,1.0,1651025645093549.0,1
749,-7.0,-4.0,0.0,3.0,24.0,11.0,-1.0,-3.0,1651025645093549.0,1
750,1.0,-15.0,0.0,2.0,-4.0,-2.0,0.0,1.0,1651025645105519.0,1
751,4.0,18.0,5.0,2.0,-2.0,-3.0,-1.0,1.0,1651025645105519.0,1
752,0.0,1.0,0.0,0.0,1.0,1.0,0.0,0.0,1651025645114495.0,1
753,-5.0,-7.0,-4.0,-3.0,-9.0,-6.0,-2.0,-2.0,1651025645114495.0,1
754,2.0,12.0,2.0,-1.0,1.0,-1.0,0.0,-1.0,1651025645129480.0,1
755,-1.0,-4.0,-2.0,-2.0,-5.0,2.0,0.0,0.0,1651025645129480.0,1
756,1.0,18.0,1.0,-2.0,2.0,-3.0,-2.0,-2.0,1651025645131476.0,1
757,5.0,6.0,-2.0,-3.0,-3.0,-4.0,0.0,1.0,1651025645131476.0,1
758,0.0,-3.0,1.0,2.0,14.0,1.0,0.0,-1.0,1651025645151957.0,1
759,0.0,7.0,5.0,3.0,-6.0,-1.0,3.0,2.0,1651025645151957.0,1
760,-5.0,-23.0,-4.0,-1.0,10.0,4.0,0.0,0.0,1651025645153883.0,1
761,2.0,-11.0,0.0,-1.0,-7.0,0.0,0.0,-1.0,1651025645153883.0,1
762,-7.0,3.0,-2.0,-2.0,-14.0,-6.0,-2.0,-1.0,1651025645165964.0,1
763,-2.0,-9.0,0.0,2.0,12.0,5.0,0.0,-1.0,1651025645165964.0,1
764,5.0,18.0,5.0,5.0,4.0,1.0,2.0,2.0,1651025645181927.0,1
765,-8.0,-24.0,-12.0,-6.0,-11.0,-4.0,-1.0,-2.0,1651025645181927.0,1
766,1.0,17.0,4.0,-2.0,-4.0,-1.0,-1.0,-1.0,1651025645190020.0,1
767,1.0,10.0,4.0,4.0,10.0,2.0,-1.0,-3.0,1651025645190020.0,1
768,-4.0,-32.0,-4.0,0.0,0.0,1.0,1.0,-1.0,1651025645190929.0,1
769,7.0,55.0,10.0,0.0,6.0,2.0,1.0,0.0,1651025645190929.0,1
770,3.0,1.0,-2.0,-2.0,-14.0,-4.0,0.0,3.0,1651025645210902.0,1
771,-3.0,0.0,1.0,-3.0,3.0,1.0,0.0,-2.0,1651025645210902.0,1
772,3.0,-2.0,1.0,2.0,1.0,2.0,0.0,-1.0,1651025645219852.0,1
773,1.0,4.0,0.0,-4.0,-7.0,-6.0,0.0,0.0,1651025645219852.0,1
774,-1.0,-11.0,-5.0,-4.0,10.0,4.0,-2.0,-1.0,1651025645225902.0,1
775,1.0,10.0,7.0,6.0,25.0,8.0,-1.0,-1.0,1651025645225902.0,1
776,1.0,2.0,-1.0,1.0,-6.0,-2.0,1.0,0.0,1651025645234980.0,1
777,-4.0,-9.0,-5.0,6.0,6.0,1.0,1.0,0.0,1651025645234980.0,1
778,2.0,19.0,4.0,-2.0,-12.0,-5.0,-1.0,0.0,1651025645250119.0,1
779,-5.0,-7.0,-4.0,-7.0,-15.0,-8.0,-2.0,-1.0,1651025645250119.0,1
780,2.0,9.0,2.0,0.0,9.0,2.0,-1.0,-1.0,1651025645251116.0,1
781,-4.0,4.0,1.0,0.0,-6.0,-1.0,-2.0,-1.0,1651025645251116.0,1
782,2.0,0.0,-2.0,-1.0,-28.0,-7.0,-1.0,-3.0,1651025645272129.0,1
783,-3.0,-7.0,3.0,2.0,27.0,9.0,-1.0,0.0,1651025645272129.0,1
784,-1.0,-4.0,0.0,0.0,3.0,1.0,1.0,1.0,1651025645274081.0,1
785,2.0,6.0,3.0,2.0,-9.0,-4.0,2.0,2.0,1651025645274081.0,1
786,-4.0,-24.0,-5.0,-2.0,5.0,2.0,1.0,0.0,1651025645286090.0,1
787,12.0,19.0,-5.0,-3.0,-15.0,-6.0,0.0,0.0,1651025645286090.0,1
788,-5.0,5.0,6.0,-2.0,-3.0,-2.0,-4.0,-1.0,1651025645302568.0,1
789,-4.0,-24.0,-9.0,-2.0,6.0,3.0,-2.0,-3.0,1651025645302568.0,1
790,1.0,5.0,-2.0,1.0,7.0,2.0,1.0,1.0,1651025645308562.0,1
791,0.0,-14.0,0.0,-2.0,-13.0,-2.0,2.0,0.0,1651025645308562.0,1
792,7.0,38.0,3.0,-3.0,3.0,0.0,-1.0,0.0,1651025645323512.0,1
793,0.0,9.0,4.0,7.0,-2.0,-1.0,1.0,0.0,1651025645323512.0,1
794,-6.0,-10.0,-4.0,1.0,14.0,2.0,-1.0,-1.0,1651025645331559.0,1
795,1.0,0.0,3.0,-5.0,-12.0,-2.0,-1.0,0.0,1651025645331559.0,1
796,-6.0,-21.0,-12.0,3.0,6.0,1.0,-1.0,-1.0,1651025645338540.0,1
797,-2.0,-16.0,-2.0,-1.0,0.0,1.0,-1.0,-1.0,1651025645338540.0,1
798,3.0,5.0,-1.0,-1.0,-2.0,2.0,-3.0,0.0,1651025645354490.0,1
799,-2.0,5.0,3.0,0.0,-5.0,-2.0,-1.0,-1.0,1651025645354490.0,1
800,2.0,0.0,-1.0,-5.0,-22.0,-6.0,0.0,0.0,1651025645356447.0,1
801,6.0,6.0,0.0,-3.0,7.0,5.0,1.0,1.0,1651025645356447.0,1
802,-9.0,-34.0,-3.0,5.0,28.0,4.0,-2.0,-3.0,1651025645369389.0,1
803,-3.0,-3.0,0.0,2.0,-5.0,1.0,0.0,-2.0,1651025645369389.0,1
804,0.0,9.0,3.0,2.0,-3.0,-3.0,-1.0,0.0,1651025645371412.0,1
805,3.0,-2.0,0.0,-3.0,-4.0,-4.0,0.0,2.0,1651025645371412.0,1
806,-5.0,-17.0,-13.0,-6.0,-7.0,-2.0,0.0,-1.0,1651025645392328.0,1
807,0.0,6.0,0.0,-2.0,-3.0,-4.0,-2.0,0.0,1651025645392328.0,1
808,0.0,-11.0,-1.0,1.0,7.0,-1.0,-1.0,0.0,1651025645393325.0,1
809,-2.0,31.0,6.0,-2.0,-10.0,-1.0,-3.0,-3.0,1651025645393325.0,1
810,2.0,9.0,6.0,2.0,16.0,3.0,1.0,1.0,1651025645414269.0,1
811,-1.0,-1.0,0.0,1.0,-1.0,0.0,-2.0,-1.0,1651025645414269.0,1
812,1.0,10.0,1.0,2.0,1.0,1.0,0.0,1.0,1651025645416264.0,1
813,-3.0,-2.0,3.0,-3.0,-4.0,-3.0,0.0,-1.0,1651025645416264.0,1
814,-3.0,-6.0,-6.0,-6.0,-14.0,-1.0,-1.0,0.0,1651025645429230.0,1
815,0.0,-2.0,-3.0,-5.0,-4.0,-2.0,0.0,-1.0,1651025645429230.0,1
816,0.0,-2.0,1.0,0.0,2.0,0.0,0.0,-1.0,1651025645431224.0,1
817,-3.0,-13.0,3.0,5.0,9.0,2.0,-1.0,1.0,1651025645431224.0,1
818,-2.0,6.0,1.0,-1.0,-2.0,0.0,0.0,-2.0,1651025645451832.0,1
819,-2.0,0.0,-4.0,-3.0,-3.0,-4.0,-1.0,0.0,1651025645451832.0,1
820,0.0,-4.0,2.0,0.0,0.0,1.0,-1.0,-2.0,1651025645453827.0,1
821,0.0,0.0,-3.0,-1.0,1.0,-2.0,0.0,0.0,1651025645453827.0,1
822,2.0,8.0,-3.0,-3.0,-27.0,-10.0,-1.0,0.0,1651025645482549.0,1
823,-1.0,-5.0,-4.0,-1.0,23.0,9.0,0.0,-2.0,1651025645482549.0,1
824,2.0,3.0,0.0,4.0,2.0,2.0,2.0,1.0,1651025645483520.0,1
825,-6.0,-16.0,-1.0,-3.0,-8.0,0.0,-1.0,-2.0,1651025645483520.0,1
826,4.0,-1.0,-4.0,-3.0,2.0,-1.0,0.0,0.0,1651025645488536.0,1
827,0.0,-6.0,-3.0,-3.0,-16.0,-8.0,-2.0,0.0,1651025645488536.0,1
828,0.0,15.0,-4.0,-3.0,18.0,5.0,-2.0,-2.0,1651025645495515.0,1
829,-1.0,-6.0,-1.0,1.0,-6.0,-1.0,-1.0,0.0,1651025645495515.0,1
830,-2.0,0.0,3.0,1.0,-3.0,1.0,0.0,0.0,1651025645512490.0,1
831,2.0,-5.0,-1.0,-1.0,-5.0,-3.0,-1.0,0.0,1651025645512490.0,1
832,-2.0,-4.0,-1.0,-2.0,2.0,-1.0,0.0,-2.0,1651025645513491.0,1
833,2.0,-4.0,-4.0,0.0,-2.0,-2.0,-2.0,1.0,1651025645513491.0,1
834,0.0,5.0,6.0,2.0,0.0,1.0,-1.0,-2.0,1651025645534936.0,1
835,-3.0,-3.0,-1.0,0.0,1.0,-1.0,-1.0,1.0,1651025645534936.0,1
836,1.0,-1.0,-3.0,-6.0,-6.0,-1.0,-1.0,1.0,1651025645535935.0,1
837,1.0,-2.0,2.0,0.0,4.0,2.0,-1.0,-1.0,1651025645535935.0,1
838,1.0,-3.0,-2.0,7.0,6.0,0.0,0.0,-2.0,1651025645549083.0,1
839,1.0,8.0,3.0,0.0,-8.0,-1.0,-1.0,-2.0,1651025645549083.0,1
840,-3.0,-10.0,0.0,0.0,3.0,-1.0,1.0,0.0,1651025645556063.0,1
841,1.0,0.0,-4.0,0.0,16.0,1.0,-1.0,0.0,1651025645556063.0,1
842,-1.0,7.0,8.0,3.0,6.0,2.0,1.0,-1.0,1651025645571953.0,1
843,1.0,3.0,0.0,0.0,-12.0,-1.0,-1.0,0.0,1651025645571953.0,1
844,4.0,6.0,0.0,-3.0,-4.0,-1.0,-1.0,2.0,1651025645577966.0,1
845,-3.0,-4.0,-3.0,-1.0,4.0,0.0,0.0,-3.0,1651025645577966.0,1
846,-1.0,13.0,0.0,0.0,-2.0,-4.0,-1.0,0.0,1651025645594652.0,1
847,0.0,1.0,2.0,-5.0,-4.0,-3.0,-1.0,1.0,1651025645594652.0,1
848,4.0,-1.0,12.0,6.0,6.0,2.0,0.0,1.0,1651025645596576.0,1
849,3.0,9.0,-3.0,1.0,-6.0,-1.0,0.0,-1.0,1651025645596576.0,1
850,-4.0,-13.0,-9.0,-6.0,-7.0,-3.0,-3.0,-1.0,1651025645608543.0,1
851,-4.0,-8.0,-2.0,0.0,3.0,0.0,-1.0,-1.0,1651025645608543.0,1
852,-1.0,3.0,-2.0,-1.0,-4.0,0.0,-2.0,-1.0,1651025645615529.0,1
853,-2.0,-3.0,8.0,-1.0,1.0,0.0,0.0,0.0,1651025645615529.0,1
854,1.0,4.0,1.0,3.0,-10.0,-2.0,0.0,0.0,1651025645631601.0,1
855,-3.0,-10.0,-13.0,-4.0,-12.0,-3.0,0.0,-2.0,1651025645631601.0,1
856,-3.0,-6.0,1.0,1.0,34.0,4.0,0.0,-1.0,1651025645633594.0,1
857,2.0,1.0,2.0,0.0,-11.0,-2.0,1.0,0.0,1651025645633594.0,1
858,0.0,-2.0,-2.0,-2.0,-2.0,-2.0,0.0,-1.0,1651025645654726.0,1
859,0.0,-4.0,1.0,0.0,-20.0,-4.0,-2.0,-1.0,1651025645654726.0,1
860,-4.0,-5.0,-8.0,-2.0,-10.0,-4.0,-1.0,-1.0,1651025645655656.0,1
861,-4.0,1.0,-1.0,-1.0,14.0,9.0,1.0,-1.0,1651025645655656.0,1
862,3.0,7.0,3.0,1.0,3.0,1.0,3.0,1.0,1651025645668655.0,1
863,-3.0,-2.0,-1.0,2.0,4.0,1.0,-1.0,1.0,1651025645668655.0,1
864,-2.0,-3.0,-12.0,-7.0,-15.0,-5.0,-1.0,-1.0,1651025645675609.0,1
865,1.0,-6.0,2.0,3.0,3.0,-2.0,-1.0,1.0,1651025645675609.0,1
866,-3.0,-10.0,5.0,3.0,0.0,3.0,1.0,-2.0,1651025645691559.0,1
867,-1.0,7.0,-3.0,-3.0,2.0,-4.0,1.0,-1.0,1651025645691559.0,1
868,4.0,14.0,4.0,-3.0,-4.0,-1.0,-1.0,0.0,1651025645693554.0,1
869,-2.0,-11.0,-8.0,-6.0,-10.0,-1.0,-2.0,0.0,1651025645693554.0,1
870,0.0,4.0,1.0,1.0,4.0,0.0,-1.0,-1.0,1651025645714508.0,1
871,-2.0,-9.0,-2.0,6.0,19.0,4.0,1.0,-1.0,1651025645714508.0,1
872,3.0,3.0,-1.0,-1.0,-8.0,0.0,1.0,2.0,1651025645716492.0,1
873,1.0,22.0,2.0,-2.0,-3.0,-5.0,-1.0,-2.0,1651025645716492.0,1
874,0.0,-9.0,-3.0,-4.0,-7.0,-1.0,-2.0,1.0,1651025645728525.0,1
875,-7.0,-10.0,-3.0,-2.0,2.0,1.0,1.0,-3.0,1651025645728525.0,1
876,0.0,8.0,4.0,1.0,1.0,0.0,-2.0,-2.0,1651025645737562.0,1
877,3.0,27.0,4.0,-2.0,-17.0,-6.0,-2.0,-1.0,1651025645737562.0,1
878,4.0,-5.0,-6.0,-3.0,10.0,5.0,0.0,1.0,1651025645751769.0,1
879,-2.0,16.0,0.0,-3.0,0.0,-3.0,-2.0,-5.0,1651025645751769.0,0
880,-3.0,-14.0,-2.0,0.0,-4.0,-2.0,-1.0,-2.0,1651025645753696.0,2
881,3.0,22.0,2.0,-2.0,6.0,-2.0,1.0,0.0,1651025645753696.0,2
882,-2.0,-14.0,-4.0,-6.0,-6.0,0.0,-1.0,-1.0,1651025645774933.0,2
883,8.0,13.0,5.0,5.0,13.0,1.0,1.0,3.0,1651025645774933.0,2
884,-6.0,3.0,8.0,4.0,-10.0,1.0,0.0,1.0,1651025645775920.0,2
885,2.0,-5.0,-16.0,-10.0,-5.0,-2.0,-1.0,-1.0,1651025645775920.0,2
886,-2.0,0.0,17.0,3.0,15.0,3.0,-3.0,1.0,1651025645788953.0,2
887,4.0,4.0,-13.0,4.0,2.0,4.0,1.0,0.0,1651025645788953.0,2
888,1.0,2.0,1.0,-3.0,-4.0,-2.0,0.0,-1.0,1651025645795934.0,2
889,-2.0,-26.0,-15.0,-3.0,-4.0,-2.0,-1.0,1.0,1651025645795934.0,2
890,-1.0,9.0,0.0,-10.0,-9.0,-1.0,1.0,-2.0,1651025645811956.0,2
891,-3.0,-9.0,14.0,6.0,2.0,0.0,2.0,0.0,1651025645811956.0,2
892,1.0,3.0,-2.0,2.0,4.0,-4.0,-1.0,-1.0,1651025645813911.0,2
893,-3.0,-13.0,2.0,-2.0,0.0,0.0,0.0,1.0,1651025645813911.0,2
894,3.0,6.0,0.0,3.0,-18.0,-7.0,0.0,0.0,1651025645834950.0,2
895,0.0,2.0,1.0,-11.0,6.0,2.0,-1.0,0.0,1651025645834950.0,2
896,-6.0,-33.0,-23.0,0.0,-1.0,-1.0,-2.0,-6.0,1651025645835878.0,2
897,-1.0,-17.0,-5.0,0.0,-1.0,-1.0,-1.0,0.0,1651025645835878.0,2
898,-2.0,6.0,-21.0,-14.0,-17.0,-5.0,-7.0,-3.0,1651025645847909.0,2
899,9.0,14.0,36.0,15.0,15.0,2.0,-4.0,-1.0,1651025645847909.0,2
900,10.0,27.0,15.0,13.0,9.0,8.0,9.0,13.0,1651025645856839.0,2
901,-23.0,-45.0,10.0,7.0,5.0,-1.0,1.0,-10.0,1651025645856839.0,2
902,51.0,20.0,-12.0,-27.0,-1.0,4.0,21.0,9.0,1651025645871961.0,2
903,-46.0,-25.0,-44.0,-33.0,-19.0,0.0,33.0,7.0,1651025645871961.0,2
904,2.0,0.0,-4.0,43.0,2.0,-6.0,-62.0,-22.0,1651025645873963.0,2
905,9.0,23.0,47.0,41.0,20.0,-11.0,-45.0,-12.0,1651025645873963.0,2
906,92.0,15.0,-39.0,-42.0,2.0,18.0,15.0,31.0,1651025645894898.0,2
907,-68.0,15.0,5.0,-1.0,-4.0,-30.0,-8.0,-15.0,1651025645894898.0,2
908,-53.0,-89.0,-56.0,-68.0,-30.0,1.0,28.0,-25.0,1651025645896918.0,2
909,15.0,-4.0,-3.0,-7.0,-22.0,-18.0,-20.0,-8.0,1651025645896918.0,2
910,-13.0,24.0,72.0,70.0,18.0,-91.0,-38.0,-12.0,1651025645907936.0,2
911,58.0,20.0,-1.0,5.0,-13.0,66.0,-7.0,18.0,1651025645907936.0,2
912,47.0,10.0,-28.0,-26.0,6.0,0.0,56.0,21.0,1651025645916851.0,2
913,62.0,43.0,-9.0,-5.0,6.0,-3.0,13.0,34.0,1651025645916851.0,2
914,-55.0,-28.0,-26.0,-76.0,-27.0,-44.0,-89.0,-31.0,1651025645931997.0,2
915,-69.0,-70.0,1.0,75.0,11.0,-25.0,60.0,-58.0,1651025645931997.0,2
916,-2.0,-4.0,38.0,41.0,5.0,9.0,30.0,24.0,1651025645933952.0,2
917,-42.0,-9.0,-20.0,-41.0,-22.0,-25.0,-26.0,-60.0,1651025645933952.0,2
918,-15.0,29.0,69.0,115.0,73.0,57.0,119.0,49.0,1651025645955072.0,2
919,73.0,25.0,6.0,-11.0,-13.0,-66.0,-128.0,-24.0,1651025645955072.0,2
920,-14.0,-44.0,-6.0,-33.0,-10.0,-30.0,127.0,3.0,1651025645956070.0,2
921,0.0,-14.0,-39.0,-24.0,15.0,-10.0,-18.0,15.0,1651025645956070.0,2
922,-46.0,-12.0,-11.0,-4.0,-30.0,55.0,18.0,-32.0,1651025645968067.0,2
923,2.0,19.0,-7.0,-83.0,-4.0,73.0,40.0,8.0,1651025645968067.0,2
924,82.0,48.0,47.0,88.0,60.0,-23.0,-45.0,20.0,1651025645983582.0,2
925,-26.0,-25.0,-17.0,-55.0,-49.0,-90.0,-14.0,-1.0,1651025645983582.0,2
926,-10.0,-16.0,-22.0,-24.0,0.0,83.0,-3.0,16.0,1651025645991630.0,2
927,10.0,11.0,15.0,8.0,12.0,13.0,22.0,-7.0,1651025645991630.0,2
928,13.0,43.0,-8.0,-74.0,-25.0,8.0,9.0,14.0,1651025645993558.0,2
929,-10.0,-14.0,8.0,63.0,15.0,-27.0,-64.0,-16.0,1651025645993558.0,2
930,-4.0,-16.0,-3.0,19.0,-4.0,-71.0,-35.0,-29.0,1651025646014721.0,2
931,34.0,9.0,-12.0,-16.0,-30.0,-114.0,-7.0,43.0,1651025646014721.0,2
932,-37.0,8.0,-4.0,-16.0,5.0,87.0,14.0,-12.0,1651025646016715.0,2
933,-4.0,-8.0,-4.0,-7.0,-6.0,21.0,62.0,14.0,1651025646016715.0,2
934,6.0,18.0,30.0,49.0,12.0,-5.0,-26.0,1.0,1651025646027918.0,2
935,2.0,-6.0,-15.0,-7.0,27.0,9.0,-20.0,6.0,1651025646027918.0,2
936,-12.0,-5.0,11.0,28.0,-7.0,-52.0,-38.0,-19.0,1651025646036876.0,2
937,2.0,-3.0,-15.0,-21.0,0.0,31.0,12.0,2.0,1651025646036876.0,2
938,-35.0,2.0,2.0,4.0,-11.0,-8.0,23.0,6.0,1651025646052891.0,2
939,35.0,9.0,7.0,-12.0,-37.0,6.0,11.0,9.0,1651025646052891.0,2
940,-20.0,-4.0,-6.0,-14.0,15.0,1.0,-48.0,-15.0,1651025646053831.0,2
941,18.0,4.0,-3.0,0.0,17.0,37.0,44.0,17.0,1651025646053831.0,2
942,-8.0,-3.0,-12.0,-46.0,-2.0,-17.0,7.0,-4.0,1651025646074951.0,2
943,-4.0,-4.0,0.0,35.0,3.0,4.0,-4.0,2.0,1651025646074951.0,2
944,-8.0,8.0,1.0,-8.0,-15.0,-9.0,-27.0,-2.0,1651025646075771.0,2
945,25.0,14.0,30.0,32.0,22.0,30.0,53.0,25.0,1651025646075771.0,2
946,13.0,-6.0,-14.0,3.0,-3.0,-10.0,-8.0,-11.0,1651025646087808.0,2
947,-26.0,-3.0,3.0,1.0,-3.0,-15.0,-6.0,-8.0,1651025646087808.0,2
948,34.0,10.0,5.0,10.0,-3.0,11.0,0.0,15.0,1651025646097715.0,2
949,-18.0,2.0,-5.0,-19.0,-3.0,-18.0,0.0,1.0,1651025646097715.0,2
950,4.0,-1.0,-1.0,0.0,-1.0,-13.0,8.0,0.0,1651025646112575.0,2
951,14.0,-1.0,15.0,37.0,24.0,66.0,37.0,4.0,1651025646112575.0,2
952,-8.0,9.0,-7.0,-18.0,-10.0,-23.0,-35.0,-3.0,1651025646113523.0,2
953,-40.0,-29.0,-16.0,-11.0,-11.0,-10.0,-23.0,-32.0,1651025646113523.0,2
954,23.0,7.0,8.0,2.0,5.0,-12.0,-7.0,11.0,1651025646134529.0,2
955,-28.0,-24.0,-21.0,-14.0,-6.0,-23.0,-10.0,-26.0,1651025646134529.0,2
956,22.0,-8.0,-4.0,-6.0,-4.0,18.0,27.0,23.0,1651025646136485.0,2
957,-14.0,13.0,6.0,-4.0,-5.0,35.0,29.0,8.0,1651025646136485.0,2
958,17.0,-2.0,-4.0,4.0,9.0,2.0,-1.0,1.0,1651025646157490.0,2
959,2.0,2.0,7.0,4.0,0.0,-22.0,1.0,3.0,1651025646157490.0,2
960,-17.0,-3.0,-12.0,-14.0,-5.0,-9.0,-8.0,-7.0,1651025646158814.0,2
961,22.0,19.0,8.0,5.0,0.0,19.0,30.0,13.0,1651025646158814.0,2
962,-15.0,-36.0,-26.0,-32.0,-24.0,-18.0,-55.0,-28.0,1651025646170984.0,2
963,10.0,14.0,15.0,13.0,19.0,10.0,25.0,20.0,1651025646170984.0,2
964,-30.0,-20.0,-2.0,16.0,1.0,-6.0,3.0,-22.0,1651025646178033.0,2
965,7.0,19.0,10.0,13.0,2.0,-27.0,-40.0,-10.0,1651025646178033.0,2
966,10.0,-3.0,-1.0,-7.0,-6.0,2.0,10.0,0.0,1651025646194742.0,2
967,4.0,-11.0,-15.0,-16.0,-3.0,15.0,-3.0,4.0,1651025646194742.0,2
968,24.0,7.0,-3.0,-12.0,-7.0,-16.0,3.0,1.0,1651025646195792.0,2
969,-23.0,-1.0,15.0,32.0,11.0,-4.0,1.0,-1.0,1651025646195792.0,2
970,-8.0,-5.0,-16.0,-29.0,-3.0,39.0,21.0,-2.0,1651025646207647.0,2
971,1.0,-5.0,3.0,-3.0,-7.0,3.0,50.0,10.0,1651025646207647.0,2
972,-13.0,12.0,0.0,3.0,11.0,-14.0,-17.0,-2.0,1651025646217640.0,2
973,-21.0,3.0,14.0,30.0,22.0,51.0,-2.0,6.0,1651025646217640.0,2
974,51.0,-3.0,-16.0,-40.0,-17.0,-27.0,-15.0,9.0,1651025646231575.0,2
975,-12.0,6.0,20.0,36.0,6.0,4.0,41.0,4.0,1651025646231575.0,2
976,8.0,-5.0,2.0,14.0,-1.0,-8.0,-70.0,-15.0,1651025646238595.0,2
977,6.0,-1.0,-9.0,-28.0,-2.0,0.0,11.0,5.0,1651025646238595.0,2
978,-8.0,7.0,8.0,6.0,-10.0,-1.0,11.0,0.0,1651025646254581.0,2
979,-20.0,-3.0,-2.0,3.0,6.0,-2.0,-22.0,-12.0,1651025646254581.0,2
980,-9.0,8.0,5.0,1.0,-9.0,-10.0,11.0,1.0,1651025646256538.0,2
981,26.0,-7.0,1.0,17.0,17.0,4.0,4.0,5.0,1651025646256538.0,2
982,-15.0,1.0,5.0,8.0,3.0,-6.0,9.0,-3.0,1651025646277534.0,2
983,13.0,-4.0,-7.0,-9.0,-9.0,-12.0,-9.0,5.0,1651025646277534.0,2
984,-25.0,7.0,-4.0,-17.0,-4.0,11.0,10.0,-4.0,1651025646278542.0,2
985,21.0,1.0,12.0,13.0,-8.0,-1.0,0.0,11.0,1651025646278542.0,2
986,2.0,0.0,-5.0,11.0,17.0,20.0,20.0,10.0,1651025646292572.0,2
987,-20.0,8.0,7.0,-9.0,4.0,30.0,29.0,0.0,1651025646292572.0,2
988,-19.0,-16.0,-5.0,-7.0,-4.0,-26.0,-32.0,-6.0,1651025646293572.0,2
989,-32.0,3.0,-8.0,-11.0,-7.0,-12.0,-6.0,-17.0,1651025646293572.0,2
990,-4.0,-2.0,3.0,12.0,1.0,-8.0,7.0,-4.0,1651025646314705.0,2
991,12.0,-8.0,-19.0,-32.0,-6.0,-7.0,-32.0,1.0,1651025646314705.0,2
992,-11.0,7.0,-8.0,-9.0,-10.0,-2.0,13.0,-2.0,1651025646315636.0,2
993,18.0,-25.0,-2.0,-15.0,-12.0,-15.0,5.0,-7.0,1651025646315636.0,2
994,-11.0,5.0,7.0,12.0,11.0,6.0,-3.0,3.0,1651025646336836.0,2
995,25.0,5.0,-20.0,-35.0,-8.0,-6.0,-8.0,10.0,1651025646336836.0,2
996,-5.0,-5.0,21.0,41.0,15.0,10.0,12.0,-7.0,1651025646338862.0,2
997,15.0,-1.0,-17.0,-24.0,-12.0,2.0,-7.0,6.0,1651025646338862.0,2
998,5.0,-6.0,-5.0,-2.0,5.0,-3.0,12.0,5.0,1651025646351867.0,2
999,-2.0,0.0,3.0,13.0,18.0,15.0,42.0,8.0,1651025646351867.0,2
1000,11.0,-3.0,-11.0,-26.0,-20.0,-24.0,-60.0,-8.0,1651025646353794.0,2
1001,16.0,1.0,20.0,35.0,7.0,3.0,9.0,1.0,1651025646353794.0,2
1002,-21.0,-1.0,2.0,3.0,-16.0,-26.0,1.0,-13.0,1651025646374904.0,2
1003,6.0,5.0,3.0,2.0,9.0,19.0,-25.0,-1.0,1651025646374904.0,2
1004,-15.0,-13.0,-7.0,-14.0,-6.0,21.0,30.0,-3.0,1651025646375905.0,2
1005,-10.0,4.0,-1.0,5.0,-5.0,-14.0,7.0,4.0,1651025646375905.0,2
1006,34.0,6.0,-2.0,-13.0,0.0,5.0,-1.0,8.0,1651025646396916.0,2
1007,-29.0,-5.0,-2.0,1.0,-8.0,-43.0,-62.0,-17.0,1651025646396916.0,2
1008,-17.0,-8.0,1.0,-2.0,4.0,30.0,22.0,-7.0,1651025646398873.0,2
1009,2.0,-9.0,-1.0,6.0,11.0,7.0,-32.0,-10.0,1651025646398873.0,2
1010,-14.0,7.0,1.0,2.0,-1.0,-3.0,8.0,3.0,1651025646411872.0,2
1011,19.0,-5.0,-3.0,-30.0,-17.0,-18.0,12.0,6.0,1651025646411872.0,2
1012,16.0,5.0,1.0,33.0,22.0,12.0,-3.0,7.0,1651025646413803.0,2
1013,-4.0,9.0,-5.0,-21.0,-10.0,-6.0,16.0,-8.0,1651025646413803.0,2
1014,-8.0,-5.0,-3.0,-1.0,-4.0,-3.0,-7.0,0.0,1651025646434938.0,2
1015,-36.0,3.0,8.0,19.0,7.0,14.0,-6.0,-5.0,1651025646434938.0,2
1016,22.0,-7.0,1.0,-7.0,-5.0,-10.0,14.0,10.0,1651025646435869.0,2
1017,7.0,-5.0,-6.0,-6.0,2.0,-4.0,8.0,2.0,1651025646435869.0,2
1018,-26.0,6.0,-7.0,-7.0,-2.0,4.0,-24.0,-16.0,1651025646456913.0,2
1019,-2.0,-10.0,-4.0,-1.0,-5.0,4.0,11.0,3.0,1651025646456913.0,2
1020,4.0,3.0,7.0,7.0,2.0,-4.0,-13.0,-2.0,1651025646458881.0,2
1021,3.0,4.0,-7.0,-12.0,-10.0,-36.0,-18.0,-1.0,1651025646458881.0,2
1022,-3.0,-11.0,3.0,9.0,4.0,24.0,10.0,4.0,1651025646471864.0,2
1023,-1.0,-1.0,5.0,16.0,-3.0,-3.0,4.0,-5.0,1651025646471864.0,2
1024,20.0,14.0,10.0,-1.0,4.0,14.0,21.0,19.0,1651025646485876.0,2
1025,-7.0,0.0,-15.0,-25.0,-3.0,8.0,5.0,-1.0,1651025646485876.0,2
1026,-12.0,-1.0,11.0,43.0,16.0,-14.0,-27.0,-8.0,1651025646494787.0,2
1027,-3.0,-1.0,13.0,19.0,4.0,-1.0,5.0,-8.0,1651025646494787.0,2
1028,8.0,8.0,-5.0,-10.0,-14.0,-9.0,12.0,7.0,1651025646495783.0,2
1029,6.0,4.0,-1.0,-7.0,-7.0,-3.0,-14.0,-11.0,1651025646495783.0,2
1030,6.0,-11.0,-2.0,7.0,23.0,4.0,20.0,11.0,1651025646516794.0,2
1031,7.0,4.0,-8.0,-7.0,-2.0,7.0,7.0,-1.0,1651025646516794.0,2
1032,-16.0,1.0,4.0,-6.0,-21.0,-13.0,-33.0,-5.0,1651025646518721.0,2
1033,-12.0,6.0,5.0,20.0,18.0,10.0,7.0,2.0,1651025646518721.0,2
1034,28.0,-8.0,-4.0,-16.0,-7.0,-1.0,1.0,2.0,1651025646531754.0,2
1035,-16.0,-4.0,-12.0,-24.0,-6.0,-5.0,0.0,2.0,1651025646531754.0,2
1036,3.0,-3.0,16.0,26.0,9.0,-5.0,17.0,0.0,1651025646538696.0,2
1037,-9.0,-2.0,-3.0,1.0,-6.0,5.0,1.0,-5.0,1651025646538696.0,2
1038,4.0,4.0,2.0,-1.0,-4.0,6.0,-9.0,0.0,1651025646554813.0,2
1039,4.0,1.0,-2.0,-12.0,-7.0,-18.0,-7.0,-3.0,1651025646554813.0,2
1040,16.0,-7.0,-11.0,-6.0,6.0,31.0,33.0,2.0,1651025646555769.0,2
1041,-20.0,-2.0,1.0,-4.0,1.0,1.0,-18.0,-7.0,1651025646555769.0,2
1042,29.0,7.0,5.0,24.0,6.0,7.0,22.0,13.0,1651025646576827.0,2
1043,-11.0,-10.0,-9.0,-19.0,-25.0,-22.0,-32.0,-15.0,1651025646576827.0,2
1044,-6.0,3.0,1.0,5.0,-4.0,-37.0,-39.0,-13.0,1651025646578823.0,2
1045,-21.0,-2.0,-2.0,18.0,39.0,32.0,0.0,-8.0,1651025646578823.0,2
1046,-21.0,-2.0,-1.0,-20.0,-11.0,-10.0,13.0,2.0,1651025646591829.0,2
1047,11.0,6.0,13.0,25.0,3.0,-2.0,16.0,11.0,1651025646591829.0,2
1048,11.0,-7.0,-1.0,15.0,7.0,11.0,42.0,5.0,1651025646597840.0,2
1049,4.0,-7.0,-7.0,-17.0,-19.0,-4.0,-18.0,2.0,1651025646597840.0,2
1050,-5.0,7.0,-2.0,-14.0,-7.0,1.0,11.0,-1.0,1651025646614795.0,2
1051,-2.0,5.0,-2.0,5.0,-1.0,3.0,-29.0,-5.0,1651025646614795.0,2
1052,-15.0,0.0,-2.0,-10.0,2.0,-18.0,1.0,-9.0,1651025646615753.0,2
1053,11.0,-7.0,-5.0,-7.0,-3.0,10.0,27.0,9.0,1651025646615753.0,2
1054,1.0,-2.0,0.0,-2.0,-8.0,-13.0,-4.0,-2.0,1651025646636668.0,2
1055,0.0,-4.0,6.0,18.0,10.0,-3.0,-22.0,-12.0,1651025646636668.0,2
1056,12.0,11.0,-11.0,-23.0,2.0,53.0,17.0,11.0,1651025646638669.0,2
1057,9.0,-4.0,6.0,16.0,-2.0,-41.0,-59.0,-32.0,1651025646638669.0,2
1058,-8.0,-3.0,-18.0,-23.0,-13.0,-5.0,-35.0,-18.0,1651025646651657.0,2
1059,-5.0,-5.0,-4.0,-7.0,-8.0,-3.0,9.0,2.0,1651025646651657.0,2
1060,-1.0,-7.0,-5.0,0.0,1.0,-16.0,6.0,5.0,1651025646657638.0,2
1061,2.0,5.0,-6.0,-31.0,-13.0,19.0,53.0,16.0,1651025646657638.0,2
1062,-9.0,7.0,15.0,42.0,7.0,-1.0,4.0,-3.0,1651025646674576.0,2
1063,50.0,6.0,3.0,10.0,13.0,-6.0,-61.0,-16.0,1651025646674576.0,2
1064,-6.0,-2.0,10.0,15.0,6.0,-4.0,8.0,-3.0,1651025646676584.0,2
1065,7.0,-2.0,-3.0,-8.0,-35.0,-6.0,-19.0,2.0,1651025646676584.0,2
1066,-10.0,-3.0,-8.0,-13.0,30.0,10.0,17.0,5.0,1651025646697527.0,2
1067,11.0,5.0,-1.0,-13.0,2.0,12.0,31.0,17.0,1651025646697527.0,2
1068,17.0,1.0,0.0,12.0,6.0,3.0,-16.0,-4.0,1651025646698485.0,2
1069,-2.0,5.0,2.0,-11.0,-3.0,0.0,8.0,6.0,1651025646698485.0,2
1070,-13.0,-4.0,-2.0,-19.0,-27.0,-4.0,-6.0,-4.0,1651025646711451.0,2
1071,-3.0,0.0,12.0,18.0,5.0,8.0,11.0,2.0,1651025646711451.0,2
1072,-8.0,-4.0,-19.0,-51.0,-10.0,-1.0,-7.0,4.0,1651025646718459.0,2
1073,9.0,10.0,18.0,61.0,27.0,-10.0,-5.0,-3.0,1651025646718459.0,2
1074,30.0,15.0,3.0,-14.0,-3.0,9.0,12.0,14.0,1651025646734612.0,2
1075,-41.0,-22.0,-2.0,4.0,-3.0,-22.0,6.0,-8.0,1651025646734612.0,2
1076,-32.0,-8.0,2.0,10.0,1.0,11.0,-33.0,-17.0,1651025646736537.0,2
1077,35.0,18.0,7.0,-8.0,13.0,10.0,10.0,19.0,1651025646736537.0,2
1078,-13.0,-14.0,-5.0,8.0,-2.0,3.0,-6.0,-5.0,1651025646757525.0,2
1079,24.0,2.0,-7.0,-14.0,-3.0,11.0,0.0,5.0,1651025646757525.0,2
1080,-3.0,3.0,-4.0,-6.0,-7.0,-16.0,-2.0,5.0,1651025646758479.0,2
1081,-21.0,-9.0,11.0,26.0,6.0,0.0,13.0,-2.0,1651025646758479.0,2
1082,8.0,-3.0,-8.0,-11.0,-6.0,-2.0,-26.0,-7.0,1651025646770474.0,2
1083,-14.0,5.0,3.0,-3.0,-1.0,-2.0,24.0,7.0,1651025646770474.0,2
1084,-3.0,-7.0,-7.0,-14.0,-11.0,-1.0,-32.0,-12.0,1651025646779422.0,2
1085,0.0,-1.0,-25.0,-59.0,-15.0,-10.0,6.0,6.0,1651025646779422.0,2
1086,-7.0,-5.0,45.0,90.0,30.0,1.0,7.0,-2.0,1651025646794940.0,2
1087,10.0,4.0,-3.0,-1.0,5.0,13.0,43.0,21.0,1651025646794940.0,2
1088,-8.0,0.0,5.0,4.0,1.0,-8.0,-10.0,-11.0,1651025646795935.0,2
1089,-5.0,-2.0,5.0,21.0,5.0,15.0,9.0,-11.0,1651025646795935.0,2
1090,-2.0,-3.0,-13.0,-32.0,-22.0,-19.0,-3.0,10.0,1651025646817019.0,2
1091,15.0,4.0,2.0,8.0,19.0,6.0,-27.0,0.0,1651025646817019.0,2
1092,-5.0,-4.0,-2.0,-16.0,-3.0,2.0,31.0,11.0,1651025646819040.0,2
1093,-8.0,-7.0,8.0,10.0,5.0,10.0,9.0,-3.0,1651025646819040.0,2
1094,-11.0,3.0,-12.0,-10.0,-5.0,-4.0,-38.0,-19.0,1651025646830987.0,2
1095,-20.0,3.0,-4.0,0.0,-5.0,-12.0,40.0,4.0,1651025646830987.0,2
1096,36.0,-4.0,-28.0,-42.0,-17.0,-5.0,-27.0,-8.0,1651025646839966.0,2
1097,12.0,0.0,36.0,72.0,-7.0,2.0,-19.0,4.0,1651025646839966.0,2
1098,-1.0,6.0,-2.0,-8.0,-2.0,4.0,12.0,-1.0,1651025646855093.0,2
1099,4.0,-6.0,-9.0,-10.0,23.0,-1.0,5.0,-3.0,1651025646855093.0,2
1100,0.0,-2.0,7.0,12.0,5.0,-10.0,16.0,6.0,1651025646856048.0,2
1101,2.0,7.0,-7.0,-16.0,-3.0,4.0,10.0,1.0,1651025646856048.0,2
1102,-1.0,1.0,2.0,-4.0,0.0,33.0,-24.0,-4.0,1651025646876628.0,2
1103,4.0,0.0,-10.0,-13.0,-26.0,-28.0,-10.0,-6.0,1651025646876628.0,2
1104,-4.0,6.0,4.0,13.0,15.0,27.0,16.0,4.0,1651025646884617.0,2
1105,0.0,-8.0,-4.0,-4.0,7.0,-4.0,-28.0,-3.0,1651025646884617.0,2
1106,13.0,3.0,1.0,-6.0,-1.0,-9.0,26.0,20.0,1651025646890661.0,2
1107,-8.0,-3.0,-14.0,-39.0,-27.0,13.0,-10.0,-5.0,1651025646890661.0,2
1108,-5.0,6.0,29.0,68.0,26.0,-11.0,-9.0,-4.0,1651025646899942.0,2
1109,-14.0,-1.0,-8.0,-13.0,-1.0,-8.0,3.0,-3.0,1651025646899942.0,2
1110,-5.0,-2.0,-3.0,-7.0,3.0,5.0,25.0,3.0,1651025646914601.0,2
1111,10.0,-6.0,-6.0,5.0,-10.0,7.0,-26.0,-6.0,1651025646914601.0,2
1112,-1.0,1.0,-3.0,-8.0,-5.0,-16.0,7.0,4.0,1651025646916555.0,2
1113,-2.0,-3.0,-11.0,-22.0,-20.0,-28.0,-11.0,-3.0,1651025646916555.0,2
1114,-7.0,-4.0,-2.0,5.0,17.0,-39.0,3.0,-4.0,1651025646937545.0,2
1115,-8.0,0.0,7.0,10.0,10.0,96.0,23.0,2.0,1651025646937545.0,2
1116,-1.0,-3.0,0.0,-1.0,-2.0,-2.0,4.0,2.0,1651025646938470.0,2
1117,-3.0,-4.0,-5.0,-11.0,6.0,12.0,6.0,0.0,1651025646938470.0,2
1118,0.0,-4.0,-6.0,-11.0,-18.0,-23.0,-13.0,-11.0,1651025646950506.0,2
1119,-3.0,-4.0,-3.0,6.0,-1.0,-40.0,-6.0,4.0,1651025646950506.0,2
1120,-4.0,3.0,2.0,-1.0,0.0,15.0,-9.0,0.0,1651025646959415.0,2
1121,1.0,2.0,0.0,-9.0,-9.0,-10.0,2.0,-1.0,1651025646959415.0,2
1122,0.0,3.0,4.0,2.0,-3.0,-5.0,2.0,-2.0,1651025646974898.0,2
1123,4.0,6.0,10.0,15.0,29.0,-1.0,-6.0,2.0,1651025646974898.0,2
1124,-2.0,1.0,-7.0,0.0,-8.0,1.0,5.0,-1.0,1651025646975897.0,2
1125,-7.0,-14.0,-31.0,-21.0,-7.0,-6.0,-2.0,-2.0,1651025646975897.0,2
1126,-3.0,0.0,1.0,-4.0,-15.0,12.0,3.0,-2.0,1651025646997129.0,2
1127,-2.0,2.0,3.0,4.0,2.0,-9.0,-5.0,-4.0,1651025646997129.0,2
1128,-3.0,5.0,13.0,0.0,-1.0,-5.0,-2.0,1.0,1651025646999075.0,2
1129,2.0,5.0,3.0,1.0,4.0,4.0,4.0,2.0,1651025646999075.0,2
1130,0.0,-5.0,-2.0,-10.0,-4.0,14.0,1.0,-1.0,1651025647011026.0,2
1131,0.0,-3.0,0.0,5.0,0.0,-10.0,-3.0,-1.0,1651025647011026.0,2
1132,-2.0,0.0,-1.0,1.0,1.0,-9.0,5.0,0.0,1651025647020113.0,2
1133,3.0,1.0,1.0,-4.0,-34.0,-3.0,-2.0,1.0,1651025647020113.0,2
1134,-2.0,9.0,3.0,1.0,33.0,18.0,1.0,-2.0,1651025647034104.0,2
1135,0.0,3.0,16.0,6.0,-24.0,-13.0,-3.0,-1.0,1651025647034104.0,2
1136,-7.0,2.0,15.0,6.0,6.0,-8.0,-4.0,0.0,1651025647036069.0,2
1137,0.0,-18.0,-38.0,-5.0,16.0,10.0,1.0,-6.0,1651025647036069.0,2
1138,-2.0,-9.0,-26.0,-10.0,-11.0,14.0,14.0,14.0,1651025647057040.0,2
1139,-12.0,2.0,-1.0,-8.0,-8.0,-12.0,-4.0,-5.0,1651025647057040.0,2
1140,24.0,1.0,9.0,8.0,-4.0,7.0,4.0,6.0,1651025647059007.0,2
1141,-15.0,13.0,28.0,7.0,14.0,12.0,5.0,-1.0,1651025647059007.0,2
1142,-4.0,-18.0,-3.0,3.0,7.0,-9.0,-9.0,-6.0,1651025647071001.0,2
1143,-11.0,6.0,-3.0,-4.0,-5.0,5.0,-8.0,-7.0,1651025647071001.0,2
1144,-2.0,-30.0,-23.0,-16.0,-10.0,0.0,2.0,-2.0,1651025647079950.0,2
1145,-2.0,23.0,3.0,1.0,10.0,-6.0,-1.0,4.0,1651025647079950.0,2
1146,-4.0,6.0,14.0,10.0,-1.0,-5.0,-3.0,-8.0,1651025647094917.0,2
1147,4.0,3.0,2.0,-4.0,-8.0,-6.0,-3.0,-3.0,1651025647094917.0,2
1148,-2.0,-4.0,5.0,0.0,11.0,-2.0,-8.0,-17.0,1651025647095920.0,2
1149,-1.0,-21.0,-15.0,3.0,3.0,3.0,19.0,32.0,1651025647095920.0,2
1150,-3.0,4.0,-4.0,-4.0,-49.0,-11.0,0.0,2.0,1651025647116878.0,2
1151,8.0,2.0,-3.0,0.0,43.0,8.0,4.0,4.0,1651025647116878.0,2
1152,-1.0,10.0,-4.0,3.0,2.0,4.0,-2.0,-7.0,1651025647118846.0,2
1153,3.0,-14.0,-2.0,-4.0,-6.0,-7.0,-6.0,-8.0,1651025647118846.0,2
1154,1.0,30.0,16.0,4.0,0.0,-2.0,-8.0,-15.0,1651025647130814.0,2
1155,3.0,-16.0,-26.0,-15.0,-28.0,-10.0,-4.0,12.0,1651025647130814.0,2
1156,-6.0,2.0,-1.0,-2.0,10.0,3.0,3.0,8.0,1651025647139793.0,2
1157,5.0,5.0,15.0,9.0,19.0,6.0,9.0,9.0,1651025647139793.0,2
1158,8.0,-2.0,-4.0,1.0,2.0,-2.0,-12.0,-9.0,1651025647161733.0,2
1159,-5.0,-3.0,10.0,5.0,1.0,-3.0,-6.0,-10.0,1651025647161733.0,2
1160,-13.0,1.0,-6.0,-5.0,-6.0,-4.0,-1.0,0.0,1651025647163727.0,2
1161,7.0,20.0,24.0,9.0,-9.0,-4.0,-2.0,1.0,1651025647163727.0,2
1162,-5.0,-17.0,-16.0,-8.0,4.0,4.0,0.0,-6.0,1651025647176809.0,2
1163,3.0,3.0,6.0,1.0,-1.0,-4.0,1.0,4.0,1651025647176809.0,2
1164,-1.0,-10.0,-7.0,1.0,-2.0,1.0,3.0,5.0,1651025647178847.0,2
1165,-5.0,-11.0,1.0,-3.0,11.0,3.0,2.0,-3.0,1651025647178847.0,2
1166,13.0,25.0,14.0,7.0,3.0,2.0,1.0,5.0,1651025647190882.0,2
1167,-5.0,-12.0,-19.0,-6.0,-2.0,-1.0,-2.0,-5.0,1651025647190882.0,2
1168,1.0,14.0,4.0,-3.0,-13.0,-8.0,-4.0,1.0,1651025647199814.0,2
1169,2.0,8.0,8.0,4.0,-7.0,-5.0,-4.0,-1.0,1651025647199814.0,2
1170,-5.0,-16.0,-3.0,-7.0,22.0,6.0,-1.0,-1.0,1651025647214777.0,2
1171,-4.0,-9.0,15.0,6.0,4.0,4.0,5.0,3.0,1651025647214777.0,2
1172,3.0,6.0,-24.0,-5.0,-6.0,-4.0,0.0,-4.0,1651025647215748.0,2
1173,-2.0,-19.0,-15.0,-9.0,-9.0,-3.0,-3.0,-2.0,1651025647215748.0,2
1174,3.0,7.0,9.0,3.0,-6.0,-1.0,1.0,7.0,1651025647236822.0,2
1175,0.0,-2.0,-7.0,5.0,6.0,-1.0,-1.0,-5.0,1651025647236822.0,2
1176,-2.0,7.0,20.0,5.0,-4.0,1.0,0.0,3.0,1651025647238749.0,2
1177,5.0,4.0,-2.0,-1.0,-2.0,-1.0,-6.0,-6.0,1651025647238749.0,2
1178,1.0,-4.0,-11.0,-10.0,-2.0,-1.0,3.0,3.0,1651025647259877.0,2
1179,0.0,-3.0,0.0,-2.0,-4.0,0.0,0.0,-1.0,1651025647259877.0,2
1180,-2.0,-3.0,-11.0,-8.0,-3.0,0.0,-3.0,0.0,1651025647260832.0,2
1181,-2.0,-10.0,3.0,3.0,-10.0,-2.0,-1.0,1.0,1651025647260832.0,2
1182,3.0,26.0,20.0,7.0,26.0,2.0,-14.0,-15.0,1651025647282047.0,2
1183,5.0,11.0,0.0,3.0,-6.0,1.0,2.0,0.0,1651025647282047.0,2
1184,-5.0,-18.0,-9.0,-6.0,-2.0,-3.0,-4.0,-3.0,1651025647283975.0,2
1185,-1.0,-6.0,-4.0,-5.0,-10.0,-4.0,-3.0,-3.0,1651025647283975.0,2
1186,-6.0,-18.0,-7.0,-3.0,-8.0,1.0,6.0,5.0,1651025647297498.0,2
1187,3.0,8.0,13.0,11.0,13.0,2.0,0.0,-2.0,1651025647297498.0,2
1188,-2.0,-1.0,21.0,5.0,-10.0,-3.0,-1.0,-6.0,1651025647298895.0,2
1189,-5.0,-10.0,-24.0,-10.0,9.0,0.0,8.0,22.0,1651025647298895.0,2
1190,-4.0,-6.0,1.0,0.0,5.0,4.0,4.0,5.0,1651025647319591.0,2
1191,7.0,16.0,0.0,-6.0,-14.0,-5.0,-1.0,1.0,1651025647319591.0,2
1192,2.0,-2.0,4.0,-1.0,-15.0,-4.0,1.0,4.0,1651025647321547.0,2
1193,4.0,9.0,9.0,5.0,23.0,2.0,-6.0,-14.0,1651025647321547.0,2
1194,-6.0,-10.0,5.0,10.0,-4.0,-1.0,3.0,-2.0,1651025647334552.0,2
1195,-5.0,-16.0,-27.0,-12.0,1.0,2.0,1.0,5.0,1651025647334552.0,2
1196,3.0,10.0,0.0,-1.0,-2.0,0.0,-1.0,-1.0,1651025647336507.0,2
1197,-1.0,6.0,11.0,0.0,-7.0,0.0,-4.0,-6.0,1651025647336507.0,2
1198,3.0,-5.0,-18.0,-12.0,-2.0,-3.0,0.0,4.0,1651025647357591.0,2
1199,1.0,2.0,18.0,9.0,4.0,1.0,4.0,-2.0,1651025647357591.0,2
1200,0.0,-9.0,4.0,3.0,3.0,-2.0,-2.0,-1.0,1651025647358524.0,2
1201,-4.0,-6.0,-52.0,-25.0,-14.0,-1.0,-3.0,-4.0,1651025647358524.0,2
1202,9.0,9.0,30.0,18.0,14.0,1.0,2.0,3.0,1651025647379989.0,2
1203,-7.0,3.0,-22.0,-15.0,-8.0,-4.0,-1.0,-2.0,1651025647379989.0,2
1204,1.0,-10.0,-5.0,0.0,-1.0,0.0,2.0,1.0,1651025647380957.0,2
1205,-1.0,-13.0,40.0,18.0,9.0,3.0,0.0,-1.0,1651025647380957.0,2
1206,14.0,34.0,4.0,6.0,-7.0,1.0,1.0,3.0,1651025647394031.0,2
1207,-17.0,-45.0,-24.0,-12.0,-3.0,-1.0,-3.0,-4.0,1651025647394031.0,2
1208,-4.0,-13.0,1.0,1.0,7.0,-1.0,-3.0,-4.0,1651025647401082.0,2
1209,4.0,18.0,2.0,-3.0,-11.0,-3.0,-1.0,0.0,1651025647401082.0,2
1210,-8.0,-17.0,-2.0,-1.0,-2.0,-1.0,-1.0,-1.0,1651025647417491.0,2
1211,9.0,19.0,38.0,25.0,15.0,5.0,0.0,-1.0,1651025647417491.0,2
1212,-10.0,-24.0,-34.0,-8.0,0.0,1.0,1.0,2.0,1651025647418900.0,2
1213,-3.0,1.0,-12.0,-7.0,-5.0,0.0,-2.0,-3.0,1651025647418900.0,2
1214,-1.0,-3.0,-6.0,-8.0,-9.0,-5.0,-1.0,1.0,1651025647440016.0,2
1215,2.0,4.0,-10.0,-3.0,1.0,0.0,0.0,1.0,1651025647440016.0,2
1216,3.0,9.0,18.0,8.0,-10.0,-2.0,-1.0,1.0,1651025647440986.0,2
1217,-4.0,-2.0,-1.0,3.0,17.0,5.0,0.0,-3.0,1651025647440986.0,2
1218,-6.0,-9.0,-10.0,-4.0,-5.0,-2.0,-1.0,-1.0,1651025647454361.0,2
1219,3.0,-2.0,-5.0,-4.0,-19.0,-6.0,-2.0,-1.0,1651025647454361.0,2
1220,0.0,-11.0,0.0,-2.0,4.0,3.0,0.0,1.0,1651025647460823.0,2
1221,-3.0,40.0,17.0,10.0,-1.0,-5.0,-4.0,-5.0,1651025647460823.0,2
1222,-1.0,-7.0,-28.0,-15.0,7.0,4.0,3.0,1.0,1651025647476847.0,2
1223,-2.0,-9.0,4.0,3.0,-5.0,0.0,2.0,0.0,1651025647476847.0,2
1224,3.0,25.0,-4.0,-3.0,2.0,-4.0,-3.0,-3.0,1651025647478774.0,2
1225,4.0,-7.0,5.0,-3.0,-9.0,-2.0,0.0,-1.0,1651025647478774.0,2
1226,-5.0,-15.0,3.0,2.0,-2.0,-2.0,0.0,0.0,1651025647499841.0,2
1227,-2.0,-17.0,-13.0,-3.0,2.0,-1.0,0.0,0.0,1651025647499841.0,2
1228,0.0,16.0,6.0,-1.0,2.0,2.0,1.0,1.0,1651025647500768.0,2
1229,-9.0,-38.0,-10.0,2.0,4.0,0.0,-1.0,-2.0,1651025647500768.0,2
1230,3.0,20.0,1.0,-2.0,-8.0,-4.0,-3.0,-4.0,1651025647514759.0,2
1231,0.0,-27.0,-6.0,1.0,4.0,1.0,-1.0,1.0,1651025647514759.0,2
1232,-20.0,-26.0,-8.0,-1.0,2.0,0.0,-5.0,-6.0,1651025647522737.0,2
1233,7.0,13.0,10.0,2.0,-1.0,2.0,3.0,3.0,1651025647522737.0,2
1234,1.0,-10.0,-6.0,-1.0,0.0,3.0,4.0,5.0,1651025647537465.0,2
1235,-6.0,-12.0,-7.0,-9.0,-7.0,-5.0,-5.0,-4.0,1651025647537465.0,2
1236,11.0,27.0,17.0,8.0,9.0,5.0,2.0,3.0,1651025647538897.0,2
1237,0.0,14.0,-2.0,0.0,0.0,0.0,-1.0,-1.0,1651025647538897.0,2
1238,-9.0,-55.0,-9.0,-2.0,-2.0,-2.0,1.0,-3.0,1651025647559881.0,2
1239,8.0,28.0,2.0,1.0,0.0,-1.0,0.0,-1.0,1651025647559881.0,2
1240,-2.0,-11.0,-2.0,1.0,2.0,0.0,0.0,2.0,1651025647560835.0,2
1241,-5.0,1.0,4.0,-2.0,-4.0,-3.0,-2.0,-3.0,1651025647560835.0,2
1242,0.0,7.0,-10.0,-5.0,1.0,-1.0,-2.0,-1.0,1651025647573485.0,2
1243,10.0,14.0,8.0,2.0,3.0,2.0,0.0,2.0,1651025647573485.0,2
1244,-8.0,-11.0,-8.0,-4.0,-1.0,-2.0,-1.0,-2.0,1651025647580537.0,2
1245,8.0,18.0,2.0,-1.0,-6.0,-1.0,-1.0,-1.0,1651025647580537.0,2
1246,-1.0,11.0,9.0,1.0,10.0,1.0,-2.0,-1.0,1651025647597017.0,2
1247,-4.0,3.0,-7.0,-2.0,3.0,2.0,-2.0,-3.0,1651025647597017.0,2
1248,2.0,-5.0,2.0,2.0,-2.0,-1.0,0.0,2.0,1651025647599005.0,2
1249,-6.0,-9.0,-5.0,-3.0,3.0,0.0,-2.0,-3.0,1651025647599005.0,2
1250,0.0,0.0,1.0,-1.0,-14.0,-6.0,-3.0,1.0,1651025647619998.0,2
1251,-5.0,-25.0,7.0,1.0,2.0,5.0,0.0,1.0,1651025647619998.0,2
1252,16.0,58.0,5.0,3.0,8.0,1.0,5.0,3.0,1651025647620932.0,2
1253,-4.0,-2.0,-5.0,1.0,9.0,0.0,-1.0,-3.0,1651025647620932.0,2
1254,-8.0,-25.0,-3.0,-2.0,-9.0,-1.0,1.0,-2.0,1651025647633918.0,2
1255,-4.0,-2.0,-1.0,-1.0,0.0,-2.0,-2.0,-1.0,1651025647633918.0,2
1256,4.0,2.0,-8.0,-7.0,-14.0,-2.0,-1.0,-1.0,1651025647640941.0,2
1257,1.0,-12.0,-3.0,0.0,7.0,0.0,0.0,0.0,1651025647640941.0,2
1258,4.0,20.0,8.0,4.0,-1.0,-1.0,1.0,0.0,1651025647656899.0,2
1259,2.0,6.0,1.0,0.0,4.0,0.0,0.0,1.0,1651025647656899.0,2
1260,0.0,-5.0,-5.0,-4.0,8.0,3.0,2.0,0.0,1651025647658825.0,2
1261,1.0,4.0,-1.0,-2.0,-11.0,-5.0,-1.0,-1.0,1651025647658825.0,2
1262,0.0,-3.0,-5.0,-1.0,3.0,2.0,1.0,2.0,1651025647679769.0,2
1263,-6.0,23.0,12.0,1.0,-5.0,-2.0,-3.0,-4.0,1651025647679769.0,2
1264,0.0,-20.0,-15.0,-5.0,-3.0,-4.0,-2.0,-2.0,1651025647680766.0,2
1265,1.0,0.0,1.0,-1.0,1.0,2.0,0.0,-1.0,1651025647680766.0,2
1266,-1.0,1.0,0.0,-2.0,-3.0,-1.0,-1.0,-1.0,1651025647693747.0,2
1267,-1.0,-5.0,0.0,3.0,-4.0,-2.0,-1.0,0.0,1651025647693747.0,2
1268,3.0,8.0,3.0,0.0,5.0,0.0,-1.0,1.0,1651025647700795.0,2
1269,4.0,8.0,3.0,-2.0,-2.0,0.0,0.0,1.0,1651025647700795.0,2
1270,-5.0,6.0,4.0,4.0,-6.0,-4.0,-2.0,-3.0,1651025647716808.0,2
1271,2.0,0.0,-1.0,2.0,10.0,6.0,0.0,1.0,1651025647716808.0,2
1272,-1.0,-5.0,5.0,2.0,1.0,0.0,2.0,-1.0,1651025647718803.0,2
1273,1.0,-14.0,-5.0,-3.0,-3.0,-1.0,0.0,0.0,1651025647718803.0,2
1274,6.0,9.0,-2.0,-6.0,-18.0,-4.0,-1.0,1.0,1651025647739958.0,2
1275,2.0,6.0,4.0,2.0,20.0,0.0,0.0,0.0,1651025647739958.0,2
1276,-2.0,28.0,7.0,0.0,-4.0,-2.0,-4.0,-4.0,1651025647740937.0,2
1277,-4.0,-12.0,-3.0,0.0,-6.0,-1.0,1.0,1.0,1651025647740937.0,2
1278,0.0,4.0,-2.0,-1.0,2.0,-1.0,-1.0,0.0,1651025647753073.0,2
1279,4.0,15.0,5.0,-2.0,-10.0,-2.0,-2.0,-2.0,1651025647753073.0,2
1280,-3.0,-20.0,-3.0,0.0,2.0,0.0,1.0,-1.0,1651025647761987.0,2
1281,0.0,7.0,1.0,0.0,-3.0,-2.0,0.0,-2.0,1651025647761987.0,2
1282,-7.0,-26.0,-2.0,0.0,8.0,2.0,-1.0,-2.0,1651025647777471.0,2
1283,2.0,19.0,2.0,0.0,-2.0,-1.0,1.0,2.0,1651025647777471.0,2
1284,-3.0,-14.0,-3.0,-3.0,-4.0,-3.0,-2.0,-1.0,1651025647778498.0,2
1285,0.0,4.0,1.0,0.0,-1.0,0.0,-1.0,1.0,1651025647778498.0,2
1286,1.0,-1.0,-2.0,1.0,0.0,1.0,0.0,1.0,1651025647799471.0,2
1287,-2.0,-6.0,-9.0,-5.0,-4.0,-3.0,0.0,-3.0,1651025647799471.0,2
1288,-19.0,-43.0,-2.0,1.0,-1.0,-1.0,-1.0,-4.0,1651025647801424.0,2
1289,-5.0,-19.0,-7.0,-1.0,5.0,0.0,-1.0,-3.0,1651025647801424.0,2
1290,7.0,23.0,5.0,1.0,7.0,3.0,1.0,2.0,1651025647813378.0,2
1291,-1.0,-13.0,-1.0,2.0,-5.0,-3.0,-1.0,-1.0,1651025647813378.0,2
1292,5.0,13.0,3.0,0.0,-1.0,1.0,0.0,2.0,1651025647822341.0,2
1293,-1.0,-2.0,-4.0,0.0,-1.0,0.0,-2.0,1.0,1651025647822341.0,2
1294,-4.0,-7.0,1.0,-2.0,1.0,-1.0,0.0,0.0,1651025647837471.0,2
1295,2.0,23.0,1.0,-2.0,-7.0,0.0,1.0,-1.0,1651025647837471.0,2
1296,9.0,-1.0,4.0,4.0,3.0,0.0,1.0,3.0,1651025647838924.0,2
1297,-2.0,13.0,3.0,3.0,9.0,4.0,0.0,-1.0,1651025647838924.0,2
1298,2.0,0.0,0.0,-1.0,-2.0,1.0,-2.0,-1.0,1651025647859993.0,2
1299,-2.0,-3.0,-9.0,-5.0,-17.0,-7.0,0.0,1.0,1651025647859993.0,2
1300,0.0,12.0,1.0,-4.0,4.0,4.0,-1.0,1.0,1651025647860957.0,2
1301,-1.0,-20.0,-3.0,7.0,11.0,0.0,2.0,0.0,1651025647860957.0,2
1302,0.0,9.0,8.0,4.0,0.0,1.0,1.0,2.0,1651025647873018.0,2
1303,2.0,10.0,6.0,2.0,0.0,0.0,-2.0,-4.0,1651025647873018.0,2
1304,-1.0,0.0,-2.0,-1.0,-4.0,-3.0,-1.0,-1.0,1651025647881997.0,2
1305,0.0,16.0,-1.0,-6.0,-5.0,-1.0,-2.0,-1.0,1651025647881997.0,2
1306,-3.0,-21.0,-2.0,2.0,0.0,-4.0,0.0,0.0,1651025647896959.0,2
1307,2.0,23.0,3.0,-1.0,5.0,4.0,-1.0,0.0,1651025647896959.0,2
1308,-4.0,-7.0,-1.0,-2.0,5.0,2.0,-1.0,-1.0,1651025647898952.0,2
1309,3.0,4.0,3.0,-1.0,-1.0,0.0,1.0,3.0,1651025647898952.0,2
1310,1.0,-3.0,-3.0,-2.0,-2.0,-1.0,-1.0,0.0,1651025647919950.0,2
1311,1.0,2.0,0.0,0.0,-8.0,-5.0,0.0,0.0,1651025647919950.0,2
1312,1.0,7.0,-1.0,3.0,4.0,-1.0,-1.0,-1.0,1651025647920951.0,2
1313,3.0,22.0,4.0,0.0,-2.0,1.0,0.0,-1.0,1651025647920951.0,2
1314,-8.0,-19.0,-6.0,-4.0,-1.0,-1.0,-1.0,-3.0,1651025647933345.0,2
1315,-9.0,-40.0,-4.0,-3.0,4.0,0.0,-1.0,0.0,1651025647933345.0,2
1316,2.0,36.0,2.0,-2.0,-3.0,-1.0,-1.0,-1.0,1651025647942259.0,2
1317,-3.0,-38.0,-6.0,-3.0,-13.0,-5.0,0.0,-1.0,1651025647942259.0,2
1318,2.0,12.0,-4.0,-3.0,6.0,4.0,-1.0,-3.0,1651025647957286.0,2
1319,0.0,-6.0,-3.0,2.0,3.0,0.0,0.0,0.0,1651025647957286.0,2
1320,-6.0,-12.0,-5.0,0.0,-2.0,-2.0,-2.0,-2.0,1651025647958243.0,2
1321,0.0,5.0,0.0,-1.0,-5.0,-1.0,-2.0,0.0,1651025647958243.0,2
1322,0.0,3.0,-1.0,-2.0,-2.0,0.0,0.0,-1.0,1651025647979186.0,2
1323,-1.0,4.0,0.0,-1.0,2.0,2.0,-1.0,0.0,1651025647979186.0,2
1324,0.0,-4.0,-2.0,-1.0,-10.0,-5.0,0.0,-1.0,1651025647981155.0,2
1325,2.0,4.0,-1.0,1.0,1.0,0.0,-1.0,-2.0,1651025647981155.0,2
1326,-4.0,-12.0,-3.0,2.0,13.0,1.0,-1.0,0.0,1651025647993187.0,2
1327,-4.0,26.0,2.0,0.0,-5.0,-2.0,0.0,-1.0,1651025647993187.0,2
1328,2.0,-24.0,-4.0,-3.0,-11.0,-5.0,-1.0,0.0,1651025648002193.0,2
1329,-1.0,-1.0,1.0,1.0,5.0,7.0,1.0,0.0,1651025648002193.0,2
1330,1.0,4.0,3.0,2.0,10.0,-3.0,1.0,-1.0,1651025648017223.0,2
1331,6.0,13.0,1.0,1.0,-2.0,-1.0,0.0,1.0,1651025648017223.0,2
1332,-1.0,-29.0,-8.0,-3.0,-6.0,-2.0,0.0,0.0,1651025648019150.0,2
1333,-2.0,27.0,-1.0,-5.0,-3.0,-3.0,-2.0,-2.0,1651025648019150.0,2
1334,3.0,18.0,1.0,-2.0,-4.0,-1.0,-3.0,0.0,1651025648040094.0,2
1335,-6.0,-25.0,-5.0,-2.0,-1.0,-2.0,-1.0,-1.0,1651025648040094.0,2
1336,1.0,6.0,3.0,1.0,5.0,2.0,2.0,-1.0,1651025648041091.0,2
1337,2.0,4.0,3.0,0.0,4.0,0.0,0.0,0.0,1651025648041091.0,2
1338,-1.0,0.0,-2.0,-2.0,-3.0,-3.0,-2.0,-4.0,1651025648053127.0,2
1339,-1.0,3.0,3.0,-2.0,-2.0,-2.0,-1.0,-2.0,1651025648053127.0,2
1340,-2.0,4.0,1.0,0.0,4.0,1.0,1.0,1.0,1651025648062140.0,2
1341,2.0,4.0,3.0,-1.0,1.0,-1.0,1.0,0.0,1651025648062140.0,2
1342,-3.0,2.0,2.0,-1.0,-3.0,1.0,0.0,0.0,1651025648076747.0,2
1343,-5.0,-19.0,-2.0,-6.0,-23.0,-6.0,-1.0,-2.0,1651025648076747.0,2
1344,3.0,19.0,2.0,0.0,13.0,0.0,-1.0,-1.0,1651025648078675.0,2
1345,-4.0,-11.0,-1.0,6.0,24.0,8.0,0.0,-2.0,1651025648078675.0,2
1346,2.0,5.0,1.0,0.0,-9.0,-1.0,1.0,3.0,1651025648099532.0,2
1347,3.0,5.0,0.0,1.0,2.0,0.0,-1.0,0.0,1651025648099532.0,2
1348,0.0,3.0,1.0,-1.0,-9.0,-4.0,-1.0,0.0,1651025648101482.0,2
1349,0.0,-17.0,-7.0,-3.0,-10.0,-5.0,-1.0,0.0,1651025648101482.0,2
1350,-8.0,13.0,-11.0,-4.0,1.0,1.0,-2.0,-4.0,1651025648113435.0,2
1351,-2.0,-14.0,-7.0,-2.0,5.0,0.0,0.0,-1.0,1651025648113435.0,2
1352,2.0,5.0,2.0,-1.0,0.0,-1.0,-1.0,-1.0,1651025648122403.0,2
1353,-3.0,-9.0,-1.0,-3.0,-4.0,-4.0,-3.0,0.0,1651025648122403.0,2
1354,2.0,-12.0,-1.0,-2.0,-2.0,-1.0,1.0,3.0,1651025648136817.0,2
1355,-2.0,3.0,0.0,2.0,4.0,1.0,0.0,-1.0,1651025648136817.0,2
1356,1.0,4.0,-1.0,-6.0,-14.0,-4.0,0.0,1.0,1651025648143532.0,2
1357,-2.0,-7.0,-1.0,5.0,12.0,4.0,1.0,-1.0,1651025648143532.0,2
1358,2.0,-1.0,1.0,2.0,-5.0,-1.0,-3.0,0.0,1651025648159560.0,2
1359,4.0,0.0,0.0,-3.0,-2.0,-1.0,0.0,0.0,1651025648159560.0,2
1360,5.0,12.0,3.0,3.0,6.0,4.0,0.0,1.0,1651025648161516.0,2
1361,-6.0,-15.0,-6.0,-8.0,-12.0,-5.0,-2.0,-1.0,1651025648161516.0,2
1362,-3.0,-19.0,-5.0,-1.0,-2.0,0.0,0.0,1.0,1651025648182525.0,2
1363,2.0,6.0,-1.0,-3.0,-3.0,0.0,-2.0,-1.0,1651025648182525.0,2
1364,0.0,-7.0,-3.0,3.0,15.0,1.0,0.0,-1.0,1651025648183524.0,2
1365,4.0,9.0,1.0,0.0,-8.0,-3.0,0.0,0.0,1651025648183524.0,2
1366,0.0,7.0,2.0,1.0,2.0,0.0,-1.0,-2.0,1651025648196900.0,2
1367,0.0,-13.0,0.0,0.0,0.0,0.0,0.0,-1.0,1651025648196900.0,2
1368,-3.0,-8.0,-1.0,-4.0,-9.0,-1.0,-1.0,-2.0,1651025648198895.0,2
1369,13.0,22.0,3.0,3.0,2.0,4.0,4.0,7.0,1651025648198895.0,2
1370,-11.0,-10.0,2.0,-1.0,14.0,-2.0,-5.0,-6.0,1651025648219838.0,2
1371,-7.0,3.0,2.0,3.0,1.0,2.0,-1.0,0.0,1651025648219838.0,2
1372,-3.0,4.0,1.0,2.0,-1.0,0.0,-1.0,-2.0,1651025648220837.0,2
1373,1.0,0.0,-1.0,-3.0,-7.0,-2.0,-1.0,-1.0,1651025648220837.0,2
1374,5.0,8.0,-2.0,-6.0,-9.0,-3.0,0.0,0.0,1651025648241862.0,2
1375,-1.0,-6.0,-1.0,-1.0,6.0,2.0,-1.0,-1.0,1651025648241862.0,2
1376,-1.0,3.0,0.0,-1.0,1.0,1.0,0.0,0.0,1651025648243793.0,2
1377,-6.0,-9.0,-2.0,-2.0,-5.0,-2.0,-2.0,-2.0,1651025648243793.0,2
1378,-1.0,-23.0,-1.0,2.0,-4.0,-5.0,1.0,2.0,1651025648256870.0,2
1379,2.0,-5.0,5.0,-1.0,5.0,1.0,-2.0,-2.0,1651025648256870.0,2
1380,4.0,4.0,1.0,1.0,0.0,1.0,1.0,0.0,1651025648258868.0,2
1381,-5.0,-21.0,-7.0,-2.0,-1.0,-2.0,-2.0,-3.0,1651025648258868.0,2
1382,1.0,4.0,1.0,0.0,2.0,3.0,0.0,1.0,1651025648279874.0,2
1383,5.0,2.0,-2.0,-1.0,2.0,1.0,1.0,3.0,1651025648279874.0,2
1384,-5.0,-14.0,-2.0,-3.0,-2.0,0.0,-2.0,-1.0,1651025648280836.0,2
1385,-1.0,7.0,2.0,1.0,1.0,0.0,0.0,-2.0,1651025648280836.0,2
1386,-1.0,10.0,1.0,-2.0,-17.0,-7.0,-1.0,-3.0,1651025648301935.0,2
1387,-1.0,-2.0,-4.0,0.0,16.0,9.0,1.0,-1.0,1651025648301935.0,2
1388,4.0,11.0,-2.0,-4.0,-5.0,-3.0,1.0,1.0,1651025648303958.0,2
1389,-5.0,-6.0,0.0,-2.0,-6.0,-3.0,0.0,-3.0,1651025648303958.0,2
1390,2.0,9.0,1.0,1.0,8.0,0.0,1.0,-1.0,1651025648316084.0,2
1391,2.0,1.0,0.0,-2.0,-14.0,-5.0,1.0,0.0,1651025648316084.0,2
1392,-6.0,-10.0,-2.0,-1.0,11.0,2.0,-1.0,-1.0,1651025648323359.0,2
1393,1.0,-6.0,1.0,3.0,-7.0,-1.0,-1.0,0.0,1651025648323359.0,2
1394,0.0,6.0,-2.0,-4.0,-2.0,1.0,0.0,1.0,1651025648339268.0,2
1395,0.0,4.0,-1.0,-2.0,3.0,-2.0,-1.0,0.0,1651025648339268.0,2
1396,4.0,13.0,3.0,0.0,0.0,1.0,0.0,1.0,1651025648341195.0,2
1397,-1.0,-6.0,2.0,-4.0,-3.0,-3.0,-1.0,-1.0,1651025648341195.0,2
1398,0.0,-23.0,-2.0,-2.0,2.0,3.0,0.0,-2.0,1651025648362283.0,2
1399,1.0,7.0,3.0,1.0,3.0,-2.0,1.0,-1.0,1651025648362283.0,2
1400,-2.0,-5.0,0.0,0.0,-6.0,-2.0,0.0,0.0,1651025648363283.0,2
1401,0.0,6.0,-1.0,-2.0,3.0,1.0,-1.0,-2.0,1651025648363283.0,2
1402,0.0,7.0,1.0,2.0,3.0,0.0,1.0,1.0,1651025648376654.0,2
1403,-1.0,-5.0,1.0,0.0,-5.0,-3.0,-1.0,-1.0,1651025648376654.0,2
1404,0.0,-8.0,-2.0,-1.0,0.0,0.0,-1.0,-1.0,1651025648383581.0,2
1405,1.0,6.0,-4.0,1.0,1.0,-2.0,-1.0,-1.0,1651025648383581.0,2
1406,-5.0,7.0,-4.0,-5.0,-4.0,-2.0,-3.0,-4.0,1651025648399601.0,2
1407,-6.0,-12.0,-3.0,-1.0,-2.0,-1.0,-1.0,-1.0,1651025648399601.0,2
1408,-3.0,-6.0,-4.0,1.0,0.0,-1.0,-1.0,0.0,1651025648401551.0,2
1409,-5.0,0.0,0.0,-1.0,1.0,1.0,0.0,0.0,1651025648401551.0,2
1410,3.0,5.0,0.0,-1.0,-2.0,1.0,-1.0,0.0,1651025648422009.0,2
1411,-2.0,0.0,-2.0,-1.0,-1.0,-1.0,1.0,0.0,1651025648422009.0,2
1412,-1.0,-5.0,-3.0,-2.0,-2.0,0.0,-1.0,-1.0,1651025648423937.0,2
1413,2.0,-1.0,-3.0,-1.0,0.0,-1.0,0.0,0.0,1651025648423937.0,2
1414,0.0,-5.0,0.0,0.0,-1.0,1.0,0.0,1.0,1651025648436943.0,2
1415,1.0,5.0,0.0,2.0,1.0,0.0,-1.0,0.0,1651025648436943.0,2
1416,0.0,4.0,2.0,1.0,0.0,0.0,1.0,0.0,1651025648443537.0,2
1417,0.0,4.0,-4.0,0.0,0.0,-1.0,1.0,-2.0,1651025648443537.0,2
1418,1.0,8.0,5.0,0.0,0.0,0.0,0.0,0.0,1651025648459563.0,2
1419,-1.0,6.0,-1.0,-1.0,-3.0,-3.0,-1.0,2.0,1651025648459563.0,2
1420,1.0,0.0,1.0,2.0,-2.0,0.0,0.0,0.0,1651025648461491.0,2
1421,0.0,-12.0,-8.0,-3.0,-8.0,1.0,-2.0,0.0,1651025648461491.0,2
1422,-2.0,-4.0,3.0,3.0,15.0,2.0,-1.0,-2.0,1651025648482496.0,2
1423,-1.0,-31.0,-8.0,-2.0,-2.0,0.0,-2.0,-1.0,1651025648482496.0,2
1424,6.0,22.0,4.0,1.0,2.0,-1.0,0.0,2.0,1651025648483432.0,2
1425,-1.0,-8.0,2.0,-1.0,-3.0,-1.0,-1.0,0.0,1651025648483432.0,2
1426,1.0,6.0,-2.0,-5.0,-2.0,0.0,-1.0,1.0,1651025648496462.0,2
1427,0.0,-1.0,2.0,2.0,8.0,2.0,-1.0,0.0,1651025648496462.0,2
1428,1.0,9.0,1.0,3.0,1.0,-3.0,-1.0,0.0,1651025648503442.0,2
1429,-5.0,-9.0,-3.0,-3.0,-2.0,0.0,-1.0,-2.0,1651025648503442.0,2
1430,2.0,4.0,3.0,1.0,-2.0,3.0,-1.0,0.0,1651025648519559.0,2
1431,-1.0,8.0,1.0,-1.0,-3.0,-2.0,1.0,-1.0,1651025648519559.0,2
1432,-3.0,-10.0,-6.0,-3.0,2.0,0.0,0.0,-4.0,1651025648521514.0,2
1433,-1.0,3.0,2.0,0.0,2.0,-5.0,-2.0,-1.0,1651025648521514.0,0
1434,1.0,-7.0,-4.0,-1.0,0.0,2.0,1.0,0.0,1651025648542495.0,0
1435,3.0,11.0,-1.0,-1.0,-3.0,0.0,-1.0,0.0,1651025648542495.0,0
1436,-9.0,-19.0,-1.0,-1.0,-5.0,-1.0,-1.0,-1.0,1651025648543440.0,0
1437,0.0,3.0,1.0,0.0,12.0,0.0,0.0,0.0,1651025648543440.0,0
1438,-4.0,1.0,-2.0,-2.0,-11.0,-3.0,-2.0,-2.0,1651025648556459.0,0
1439,2.0,11.0,5.0,5.0,4.0,1.0,0.0,-1.0,1651025648556459.0,0
1440,-5.0,-44.0,-7.0,1.0,-3.0,0.0,1.0,0.0,1651025648563441.0,0
1441,4.0,16.0,4.0,1.0,0.0,-1.0,-2.0,0.0,1651025648563441.0,0
1442,-1.0,-1.0,-2.0,0.0,1.0,-1.0,1.0,0.0,1651025648579945.0,0
1443,0.0,1.0,-3.0,-4.0,-6.0,-3.0,0.0,-2.0,1651025648579945.0,0
1444,-1.0,2.0,-1.0,-1.0,1.0,1.0,1.0,-2.0,1651025648580928.0,0
1445,-3.0,-5.0,-1.0,-2.0,-3.0,-2.0,-2.0,0.0,1651025648580928.0,0
1446,1.0,-3.0,2.0,4.0,-3.0,-2.0,1.0,-1.0,1651025648602454.0,0
1447,-1.0,-5.0,-1.0,1.0,7.0,-1.0,-2.0,-2.0,1651025648602454.0,0
1448,1.0,6.0,2.0,-4.0,3.0,0.0,-2.0,-1.0,1651025648603446.0,0
1449,-2.0,-8.0,-2.0,-1.0,-18.0,-5.0,-1.0,1.0,1651025648603446.0,0
1450,0.0,8.0,2.0,-1.0,8.0,2.0,-1.0,-1.0,1651025648616414.0,0
1451,0.0,-1.0,-1.0,0.0,-2.0,2.0,1.0,-1.0,1651025648616414.0,0
1452,1.0,1.0,-1.0,-4.0,0.0,0.0,-1.0,-1.0,1651025648623464.0,0
1453,1.0,12.0,0.0,0.0,-2.0,1.0,0.0,1.0,1651025648623464.0,0
1454,-1.0,-10.0,-1.0,-2.0,-7.0,-4.0,0.0,0.0,1651025648639566.0,0
1455,-2.0,0.0,-1.0,-5.0,-11.0,-2.0,0.0,1.0,1651025648639566.0,0
1456,2.0,14.0,6.0,8.0,20.0,1.0,0.0,-1.0,1651025648641513.0,0
1457,-2.0,-5.0,-4.0,0.0,-14.0,-2.0,-1.0,-1.0,1651025648641513.0,0
1458,-1.0,-2.0,0.0,2.0,16.0,2.0,0.0,-2.0,1651025648662520.0,0
1459,1.0,3.0,3.0,0.0,3.0,4.0,1.0,0.0,1651025648662520.0,0
1460,-4.0,1.0,-9.0,-8.0,-13.0,-3.0,-2.0,0.0,1651025648663437.0,0
1461,0.0,-7.0,0.0,0.0,5.0,0.0,0.0,-1.0,1651025648663437.0,0
1462,-4.0,-12.0,-6.0,-1.0,-1.0,-1.0,0.0,-1.0,1651025648675401.0,0
1463,1.0,8.0,-2.0,-4.0,-6.0,-5.0,-2.0,0.0,1651025648675401.0,0
1464,-1.0,1.0,0.0,-6.0,0.0,2.0,-1.0,-1.0,1651025648684413.0,0
1465,1.0,-5.0,4.0,0.0,12.0,5.0,0.0,0.0,1651025648684413.0,0
1466,3.0,1.0,-5.0,-7.0,-10.0,-3.0,0.0,0.0,1651025648699380.0,0
1467,3.0,2.0,3.0,1.0,2.0,-2.0,-1.0,0.0,1651025648699380.0,0
1468,-1.0,-8.0,0.0,18.0,0.0,-2.0,-1.0,0.0,1651025648701339.0,0
1469,3.0,18.0,1.0,-5.0,0.0,-2.0,0.0,1.0,1651025648701339.0,0
1470,-1.0,2.0,-3.0,-4.0,-4.0,2.0,-2.0,0.0,1651025648722284.0,0
1471,-2.0,3.0,4.0,4.0,9.0,-2.0,-4.0,-1.0,1651025648722284.0,0
1472,-1.0,-20.0,-10.0,-4.0,4.0,1.0,-1.0,-3.0,1651025648723253.0,0
1473,2.0,24.0,14.0,4.0,1.0,5.0,1.0,0.0,1651025648723253.0,0
1474,-1.0,1.0,0.0,5.0,8.0,-1.0,2.0,0.0,1651025648735284.0,0
1475,-5.0,-17.0,-33.0,-17.0,-14.0,-1.0,1.0,-1.0,1651025648735284.0,0
1476,0.0,-2.0,10.0,-2.0,-3.0,-2.0,-1.0,-1.0,1651025648744352.0,0
1477,-3.0,-8.0,-1.0,-2.0,-3.0,-2.0,-1.0,-1.0,1651025648744352.0,0
1478,0.0,0.0,19.0,-1.0,-8.0,-1.0,-2.0,1.0,1651025648760370.0,0
1479,-6.0,-3.0,-14.0,7.0,19.0,8.0,-1.0,-2.0,1651025648760370.0,0
1480,3.0,21.0,24.0,0.0,-7.0,-1.0,1.0,1.0,1651025648761309.0,0
1481,-2.0,-17.0,-18.0,3.0,3.0,0.0,2.0,1.0,1651025648761309.0,0
1482,-1.0,2.0,8.0,-8.0,-11.0,-5.0,-3.0,-2.0,1651025648782466.0,0
1483,0.0,-12.0,-17.0,2.0,-3.0,-3.0,2.0,0.0,1651025648782466.0,0
1484,-3.0,6.0,-8.0,-11.0,-10.0,-3.0,-2.0,-2.0,1651025648783396.0,0
1485,-3.0,-5.0,13.0,-1.0,5.0,-2.0,-2.0,-3.0,1651025648783396.0,0
1486,1.0,4.0,6.0,11.0,9.0,3.0,3.0,1.0,1651025648795962.0,0
1487,5.0,7.0,30.0,8.0,5.0,4.0,2.0,-4.0,1651025648795962.0,0
1488,-3.0,0.0,-23.0,-9.0,1.0,0.0,5.0,3.0,1651025648804835.0,0
1489,-3.0,-10.0,-11.0,3.0,-4.0,-1.0,-1.0,1.0,1651025648804835.0,0
1490,-2.0,-9.0,-6.0,-10.0,-11.0,-1.0,-2.0,1.0,1651025648826889.0,0
1491,-1.0,9.0,10.0,9.0,18.0,0.0,-2.0,-2.0,1651025648826889.0,0
1492,4.0,8.0,4.0,1.0,2.0,4.0,0.0,2.0,1651025648828846.0,0
1493,3.0,18.0,-20.0,14.0,7.0,4.0,5.0,1.0,1651025648828846.0,0
1494,-13.0,-21.0,-3.0,-12.0,-11.0,-7.0,-6.0,-9.0,1651025648842144.0,0
1495,-1.0,-6.0,-4.0,-17.0,-17.0,-5.0,1.0,2.0,1651025648842144.0,0
1496,-1.0,-6.0,-20.0,-6.0,-1.0,-3.0,-1.0,-2.0,1651025648843144.0,0
1497,2.0,7.0,81.0,-2.0,4.0,2.0,0.0,1.0,1651025648843144.0,0
1498,6.0,10.0,-63.0,22.0,11.0,5.0,1.0,4.0,1651025648855353.0,3
1499,0.0,18.0,60.0,25.0,3.0,2.0,5.0,-1.0,1651025648855353.0,3
1500,7.0,8.0,-17.0,-3.0,-5.0,2.0,6.0,7.0,1651025648864312.0,3
1501,2.0,-17.0,-30.0,-26.0,-11.0,-4.0,-16.0,-3.0,1651025648864312.0,3
1502,-3.0,-15.0,-10.0,-29.0,-1.0,-4.0,-8.0,-3.0,1651025648879283.0,3
1503,-10.0,0.0,1.0,-8.0,-4.0,0.0,10.0,-9.0,1651025648879283.0,3
1504,10.0,6.0,7.0,47.0,8.0,1.0,-7.0,0.0,1651025648881216.0,3
1505,-2.0,15.0,45.0,17.0,-2.0,-11.0,14.0,8.0,1651025648881216.0,3
1506,14.0,10.0,35.0,37.0,18.0,19.0,12.0,8.0,1651025648902223.0,3
1507,2.0,-11.0,-94.0,-52.0,-16.0,-3.0,5.0,7.0,1651025648902223.0,3
1508,-12.0,0.0,-5.0,-56.0,-25.0,-6.0,5.0,5.0,1651025648908144.0,3
1509,-26.0,-19.0,-37.0,7.0,5.0,-22.0,-96.0,-36.0,1651025648908144.0,3
1510,9.0,4.0,12.0,-61.0,-23.0,-11.0,17.0,1.0,1651025648916124.0,3
1511,-9.0,7.0,22.0,50.0,10.0,-9.0,-36.0,-24.0,1651025648916124.0,3
1512,9.0,7.0,-8.0,-3.0,-5.0,11.0,0.0,9.0,1651025648925110.0,3
1513,-45.0,-4.0,-11.0,-31.0,-9.0,-3.0,56.0,14.0,1651025648925110.0,3
1514,-49.0,-5.0,0.0,1.0,16.0,30.0,94.0,17.0,1651025648939929.0,3
1515,70.0,-11.0,9.0,-25.0,-29.0,-6.0,-26.0,33.0,1651025648939929.0,3
1516,4.0,2.0,10.0,31.0,-22.0,-109.0,-103.0,-76.0,1651025648940928.0,3
1517,22.0,18.0,1.0,-3.0,12.0,85.0,95.0,30.0,1651025648940928.0,3
1518,-1.0,-3.0,-27.0,-39.0,6.0,-2.0,-68.0,-11.0,1651025648962528.0,3
1519,9.0,26.0,12.0,27.0,9.0,-5.0,109.0,37.0,1651025648962528.0,3
1520,-28.0,-34.0,-12.0,-25.0,4.0,32.0,-32.0,31.0,1651025648963528.0,3
1521,-28.0,-51.0,-6.0,74.0,-8.0,-122.0,-122.0,-68.0,1651025648963528.0,3
1522,10.0,17.0,7.0,8.0,4.0,32.0,48.0,-19.0,1651025648975495.0,3
1523,-8.0,-8.0,-21.0,-81.0,-39.0,-48.0,-13.0,-6.0,1651025648975495.0,3
1524,11.0,18.0,38.0,64.0,48.0,38.0,93.0,33.0,1651025648984835.0,3
1525,16.0,30.0,-3.0,-22.0,2.0,27.0,5.0,6.0,1651025648984835.0,3
1526,-22.0,-16.0,19.0,33.0,9.0,19.0,-101.0,-25.0,1651025649000099.0,3
1527,20.0,0.0,-8.0,-16.0,-22.0,-25.0,-83.0,-20.0,1651025649000099.0,3
1528,-10.0,3.0,13.0,12.0,34.0,47.0,73.0,17.0,1651025649001097.0,3
1529,5.0,-6.0,-15.0,-27.0,-16.0,-15.0,-6.0,0.0,1651025649001097.0,3
1530,34.0,12.0,-11.0,-37.0,-34.0,-50.0,-2.0,7.0,1651025649022520.0,3
1531,-53.0,-1.0,20.0,20.0,10.0,8.0,5.0,-26.0,1651025649022520.0,3
1532,10.0,-17.0,-21.0,29.0,8.0,-5.0,3.0,6.0,1651025649023520.0,3
1533,18.0,0.0,-4.0,-2.0,14.0,29.0,-12.0,-4.0,1651025649023520.0,3
1534,0.0,18.0,31.0,-35.0,-29.0,-28.0,22.0,10.0,1651025649035501.0,3
1535,15.0,-13.0,-17.0,80.0,16.0,-29.0,-1.0,9.0,1651025649035501.0,3
1536,-63.0,-7.0,6.0,-33.0,-5.0,23.0,4.0,-32.0,1651025649044463.0,3
1537,25.0,1.0,-12.0,-35.0,2.0,-3.0,-14.0,7.0,1651025649044463.0,3
1538,1.0,11.0,15.0,93.0,9.0,15.0,56.0,10.0,1651025649058428.0,3
1539,19.0,10.0,15.0,-1.0,12.0,2.0,-43.0,5.0,1651025649058428.0,3
1540,-39.0,18.0,15.0,14.0,3.0,-19.0,-8.0,-10.0,1651025649067401.0,3
1541,33.0,-20.0,-4.0,1.0,-1.0,7.0,1.0,6.0,1651025649067401.0,3
1542,-22.0,1.0,-13.0,-36.0,-8.0,-30.0,2.0,0.0,1651025649082363.0,3
1543,16.0,23.0,2.0,-15.0,1.0,13.0,9.0,6.0,1651025649082363.0,3
1544,55.0,4.0,3.0,12.0,-5.0,5.0,-5.0,1.0,1651025649083362.0,3
1545,-40.0,0.0,16.0,-4.0,-18.0,-20.0,13.0,-3.0,1651025649083362.0,3
1546,15.0,-7.0,-10.0,27.0,10.0,-12.0,-18.0,5.0,1651025649104335.0,3
1547,-8.0,-19.0,-22.0,-34.0,6.0,51.0,38.0,0.0,1651025649104335.0,3
1548,17.0,9.0,-1.0,-23.0,8.0,-5.0,-10.0,3.0,1651025649106298.0,3
1549,7.0,7.0,16.0,46.0,14.0,17.0,42.0,7.0,1651025649106298.0,3
1550,29.0,-8.0,2.0,28.0,13.0,-15.0,-41.0,8.0,1651025649119290.0,3
1551,-42.0,-2.0,3.0,-8.0,-9.0,-9.0,11.0,-11.0,1651025649119290.0,3
1552,4.0,-7.0,-5.0,-20.0,-16.0,2.0,2.0,2.0,1651025649126246.0,3
1553,13.0,8.0,-13.0,-15.0,-7.0,6.0,25.0,19.0,1651025649126246.0,3
1554,-13.0,3.0,-6.0,0.0,9.0,21.0,28.0,5.0,1651025649142202.0,3
1555,-21.0,-20.0,0.0,12.0,-4.0,-29.0,-30.0,-16.0,1651025649142202.0,3
1556,0.0,-10.0,-14.0,-31.0,-6.0,59.0,51.0,3.0,1651025649143227.0,3
1557,-4.0,14.0,-13.0,-10.0,4.0,-9.0,-32.0,-1.0,1651025649143227.0,3
1558,-13.0,3.0,18.0,28.0,-5.0,0.0,-34.0,-3.0,1651025649164883.0,3
1559,-4.0,-14.0,-2.0,-9.0,14.0,13.0,8.0,0.0,1651025649164883.0,3
1560,-8.0,-11.0,-13.0,-19.0,-20.0,-44.0,-16.0,-9.0,1651025649165883.0,3
1561,-8.0,-4.0,16.0,27.0,7.0,11.0,40.0,9.0,1651025649165883.0,3
1562,6.0,9.0,-26.0,-43.0,-9.0,10.0,8.0,1.0,1651025649178887.0,3
1563,3.0,-1.0,5.0,16.0,8.0,3.0,0.0,-1.0,1651025649178887.0,3
1564,1.0,-4.0,9.0,1.0,-2.0,-10.0,-11.0,4.0,1651025649185870.0,3
1565,12.0,15.0,-5.0,-17.0,6.0,18.0,6.0,4.0,1651025649185870.0,3
1566,-18.0,-12.0,-4.0,-7.0,-1.0,-8.0,-12.0,-14.0,1651025649201939.0,3
1567,-17.0,-4.0,5.0,0.0,-5.0,-9.0,3.0,-4.0,1651025649201939.0,3
1568,2.0,3.0,-13.0,-30.0,-16.0,0.0,35.0,1.0,1651025649203915.0,3
1569,1.0,-6.0,-2.0,4.0,-2.0,-13.0,-87.0,-20.0,1651025649203915.0,3
1570,24.0,-5.0,15.0,37.0,16.0,-15.0,16.0,9.0,1651025649224855.0,3
1571,0.0,4.0,1.0,-11.0,1.0,31.0,1.0,4.0,1651025649224855.0,3
1572,-9.0,1.0,-19.0,-32.0,-4.0,-4.0,43.0,9.0,1651025649225854.0,3
1573,-16.0,17.0,36.0,60.0,4.0,4.0,-13.0,-6.0,1651025649225854.0,3
1574,32.0,-14.0,-23.0,-20.0,-13.0,-11.0,-11.0,-2.0,1651025649239814.0,3
1575,-21.0,3.0,16.0,-1.0,3.0,12.0,-8.0,-7.0,1651025649239814.0,3
1576,13.0,-2.0,2.0,20.0,11.0,-5.0,11.0,13.0,1651025649240812.0,3
1577,14.0,-7.0,-17.0,-31.0,-4.0,4.0,7.0,6.0,1651025649240812.0,3
1578,9.0,11.0,12.0,-13.0,-8.0,-18.0,-34.0,-13.0,1651025649262056.0,3
1579,-23.0,-13.0,-13.0,10.0,2.0,1.0,12.0,-8.0,1651025649262056.0,3
1580,21.0,8.0,14.0,14.0,-1.0,-7.0,-48.0,-4.0,1651025649264022.0,3
1581,-43.0,-2.0,-13.0,-21.0,5.0,12.0,69.0,9.0,1651025649264022.0,3
1582,-16.0,-3.0,16.0,21.0,5.0,-1.0,-3.0,3.0,1651025649284988.0,3
1583,31.0,7.0,-8.0,-20.0,-3.0,10.0,5.0,6.0,1651025649284988.0,3
1584,-19.0,3.0,2.0,7.0,0.0,10.0,60.0,3.0,1651025649285917.0,3
1585,16.0,-6.0,-13.0,-5.0,-10.0,-23.0,-86.0,-8.0,1651025649285917.0,3
1586,-22.0,-16.0,-9.0,-13.0,-18.0,1.0,6.0,-9.0,1651025649298883.0,3
1587,2.0,11.0,11.0,9.0,6.0,-3.0,15.0,8.0,1651025649298883.0,3
1588,-26.0,-6.0,-20.0,-9.0,11.0,9.0,1.0,-8.0,1651025649306033.0,3
1589,44.0,-3.0,29.0,27.0,3.0,-3.0,20.0,8.0,1651025649306033.0,3
1590,-22.0,-3.0,-25.0,-14.0,6.0,6.0,4.0,-5.0,1651025649322576.0,3
1591,-1.0,-3.0,2.0,2.0,-9.0,-3.0,-18.0,-3.0,1651025649322576.0,3
1592,22.0,8.0,3.0,10.0,4.0,7.0,-1.0,4.0,1651025649323512.0,3
1593,-55.0,-20.0,-25.0,-49.0,-22.0,-27.0,0.0,-23.0,1651025649323512.0,3
1594,25.0,4.0,32.0,37.0,19.0,9.0,4.0,15.0,1651025649343915.0,3
1595,3.0,-6.0,-11.0,19.0,9.0,7.0,9.0,-2.0,1651025649343915.0,3
1596,-1.0,3.0,2.0,-19.0,-4.0,-1.0,-18.0,4.0,1651025649350931.0,3
1597,-8.0,5.0,2.0,-6.0,-10.0,-7.0,45.0,-5.0,1651025649350931.0,3
1598,-3.0,-13.0,-10.0,-16.0,9.0,14.0,-65.0,4.0,1651025649358910.0,3
1599,-2.0,-3.0,-15.0,-40.0,-27.0,-31.0,-42.0,-21.0,1651025649358910.0,3
1600,11.0,-10.0,33.0,77.0,13.0,-9.0,-29.0,-5.0,1651025649365824.0,3
1601,-6.0,7.0,-7.0,-4.0,-1.0,4.0,21.0,-3.0,1651025649365824.0,3
1602,-3.0,8.0,5.0,6.0,-1.0,11.0,57.0,6.0,1651025649381965.0,3
1603,4.0,-8.0,-12.0,-3.0,0.0,-21.0,4.0,4.0,1651025649381965.0,3
1604,-14.0,-10.0,-2.0,-8.0,-11.0,-4.0,-51.0,-16.0,1651025649383919.0,3
1605,-12.0,5.0,8.0,28.0,14.0,14.0,17.0,-3.0,1651025649383919.0,3
1606,35.0,11.0,-3.0,-3.0,5.0,18.0,23.0,17.0,1651025649404930.0,3
1607,-13.0,4.0,2.0,-3.0,6.0,7.0,45.0,8.0,1651025649404930.0,3
1608,19.0,8.0,-1.0,-9.0,-17.0,-25.0,-56.0,-11.0,1651025649405874.0,3
1609,9.0,0.0,0.0,7.0,12.0,11.0,4.0,6.0,1651025649405874.0,3
1610,-7.0,13.0,0.0,-10.0,-5.0,-1.0,21.0,0.0,1651025649418852.0,3
1611,30.0,2.0,-3.0,-23.0,1.0,11.0,59.0,23.0,1651025649418852.0,3
1612,-9.0,-8.0,20.0,72.0,24.0,-1.0,-61.0,-6.0,1651025649425870.0,3
1613,8.0,-9.0,1.0,-1.0,4.0,15.0,27.0,7.0,1651025649425870.0,3
1614,4.0,-1.0,-32.0,-43.0,-29.0,-18.0,-40.0,-21.0,1651025649441831.0,3
1615,-13.0,8.0,24.0,19.0,9.0,-5.0,-10.0,-1.0,1651025649441831.0,3
1616,-7.0,-9.0,-2.0,-16.0,-2.0,2.0,13.0,-3.0,1651025649443759.0,3
1617,20.0,8.0,-6.0,-3.0,6.0,8.0,24.0,10.0,1651025649443759.0,3
1618,-7.0,1.0,0.0,17.0,10.0,1.0,-20.0,4.0,1651025649464906.0,3
1619,5.0,4.0,6.0,-3.0,-10.0,5.0,-8.0,-7.0,1651025649464906.0,3
1620,4.0,1.0,-6.0,-23.0,-4.0,-16.0,-4.0,-1.0,1651025649466930.0,3
1621,-3.0,-2.0,9.0,16.0,4.0,14.0,-8.0,-9.0,1651025649466930.0,3
1622,-17.0,13.0,-8.0,-8.0,7.0,2.0,36.0,0.0,1651025649478870.0,3
1623,54.0,-26.0,-6.0,-9.0,-9.0,8.0,-24.0,6.0,1651025649478870.0,3
1624,3.0,8.0,18.0,38.0,11.0,-2.0,9.0,5.0,1651025649485920.0,3
1625,11.0,2.0,-15.0,-35.0,-15.0,-2.0,11.0,8.0,1651025649485920.0,3
1626,-9.0,-4.0,-5.0,-4.0,0.0,4.0,3.0,2.0,1651025649502537.0,3
1627,-29.0,7.0,12.0,28.0,3.0,-25.0,-50.0,-19.0,1651025649502537.0,3
1628,14.0,-4.0,-16.0,-38.0,-24.0,-4.0,23.0,1.0,1651025649503536.0,3
1629,-10.0,-11.0,-13.0,-15.0,-2.0,5.0,32.0,2.0,1651025649503536.0,3
1630,8.0,-8.0,-1.0,3.0,2.0,-28.0,-70.0,-3.0,1651025649524571.0,3
1631,-49.0,-6.0,-1.0,21.0,0.0,8.0,21.0,-9.0,1651025649524571.0,3
1632,-5.0,-7.0,-13.0,-29.0,-10.0,-7.0,0.0,-11.0,1651025649526538.0,3
1633,-7.0,8.0,8.0,14.0,1.0,-16.0,-48.0,-14.0,1651025649526538.0,3
1634,20.0,-2.0,-3.0,-8.0,1.0,10.0,24.0,9.0,1651025649538758.0,3
1635,-44.0,0.0,1.0,11.0,-1.0,7.0,9.0,-4.0,1651025649538758.0,3
1636,3.0,-3.0,-11.0,-6.0,-9.0,-6.0,-10.0,-8.0,1651025649545736.0,3
1637,2.0,1.0,-14.0,-66.0,-8.0,-5.0,24.0,18.0,1651025649545736.0,3
1638,-9.0,0.0,32.0,88.0,30.0,15.0,-30.0,-15.0,1651025649561693.0,3
1639,19.0,0.0,-7.0,-13.0,6.0,11.0,7.0,13.0,1651025649561693.0,3
1640,8.0,2.0,-9.0,-14.0,-7.0,0.0,25.0,2.0,1651025649563625.0,3
1641,-2.0,-3.0,-4.0,0.0,-4.0,-12.0,-35.0,-4.0,1651025649563625.0,3
1642,-1.0,3.0,-15.0,-39.0,-22.0,-8.0,15.0,-1.0,1651025649584996.0,3
1643,18.0,18.0,22.0,12.0,5.0,6.0,44.0,19.0,1651025649584996.0,3
1644,-13.0,-9.0,7.0,22.0,10.0,0.0,-27.0,-4.0,1651025649585922.0,3
1645,5.0,4.0,2.0,8.0,0.0,-3.0,-9.0,0.0,1651025649585922.0,3
1646,-3.0,-7.0,-3.0,-9.0,-8.0,7.0,40.0,0.0,1651025649597933.0,3
1647,-14.0,20.0,-7.0,-7.0,21.0,13.0,-28.0,-7.0,1651025649597933.0,3
1648,37.0,-13.0,-10.0,-33.0,-14.0,-37.0,-1.0,11.0,1651025649606911.0,3
1649,6.0,-4.0,2.0,17.0,-4.0,1.0,-1.0,-1.0,1651025649606911.0,3
1650,13.0,-3.0,17.0,24.0,2.0,18.0,3.0,-8.0,1651025649622064.0,3
1651,-38.0,-5.0,-3.0,-12.0,1.0,4.0,-16.0,-8.0,1651025649622064.0,3
1652,-13.0,11.0,3.0,-5.0,12.0,11.0,12.0,3.0,1651025649624058.0,3
1653,15.0,-2.0,-4.0,-2.0,-7.0,-26.0,-1.0,2.0,1651025649624058.0,3
1654,-4.0,2.0,9.0,13.0,-4.0,10.0,0.0,3.0,1651025649645067.0,3
1655,17.0,-8.0,-14.0,-28.0,-4.0,0.0,6.0,6.0,1651025649645067.0,3
1656,-5.0,3.0,6.0,23.0,9.0,6.0,6.0,0.0,1651025649646056.0,3
1657,-16.0,1.0,10.0,18.0,3.0,3.0,1.0,-7.0,1651025649646056.0,3
1658,-9.0,-5.0,-13.0,-22.0,-9.0,-9.0,-6.0,-2.0,1651025649659006.0,3
1659,19.0,-9.0,2.0,6.0,-7.0,-5.0,-12.0,-4.0,1651025649659006.0,3
1660,-23.0,1.0,-11.0,-27.0,-8.0,3.0,-3.0,-11.0,1651025649666946.0,3
1661,20.0,8.0,5.0,4.0,5.0,14.0,49.0,18.0,1651025649666946.0,3
1662,-34.0,-16.0,1.0,5.0,9.0,-10.0,-2.0,-8.0,1651025649681928.0,3
1663,23.0,-8.0,-11.0,-8.0,-12.0,-20.0,-57.0,-12.0,1651025649681928.0,3
1664,7.0,5.0,2.0,-6.0,-1.0,-13.0,22.0,14.0,1651025649683923.0,3
1665,-24.0,4.0,3.0,8.0,-3.0,37.0,-15.0,-12.0,1651025649683923.0,3
1666,28.0,2.0,0.0,-12.0,5.0,2.0,14.0,16.0,1651025649704607.0,3
1667,-7.0,-9.0,-9.0,3.0,-11.0,-16.0,15.0,3.0,1651025649704607.0,3
1668,8.0,9.0,5.0,-8.0,-3.0,19.0,-2.0,3.0,1651025649706562.0,3
1669,-9.0,-2.0,1.0,16.0,3.0,-13.0,-21.0,-2.0,1651025649706562.0,3
1670,-10.0,-3.0,-14.0,-26.0,-8.0,-14.0,-25.0,-20.0,1651025649718501.0,3
1671,3.0,5.0,13.0,18.0,6.0,13.0,18.0,4.0,1651025649718501.0,3
1672,4.0,3.0,-10.0,-18.0,-11.0,3.0,-5.0,1.0,1651025649727507.0,3
1673,-19.0,-13.0,-9.0,0.0,9.0,-8.0,-3.0,-8.0,1651025649727507.0,3
1674,6.0,3.0,-4.0,-16.0,-14.0,-7.0,-26.0,-1.0,1651025649742550.0,3
1675,31.0,6.0,14.0,26.0,6.0,2.0,8.0,7.0,1651025649742550.0,3
1676,-31.0,-1.0,-5.0,-18.0,-9.0,-12.0,-12.0,-12.0,1651025649744589.0,3
1677,7.0,-1.0,-12.0,-6.0,2.0,-2.0,-13.0,-4.0,1651025649744589.0,3
1678,-5.0,4.0,2.0,14.0,-2.0,-11.0,7.0,7.0,1651025649764991.0,3
1679,-22.0,-10.0,-6.0,-16.0,-4.0,23.0,39.0,1.0,1651025649764991.0,3
1680,22.0,17.0,-3.0,-24.0,-10.0,6.0,-10.0,-7.0,1651025649765921.0,3
1681,-1.0,-11.0,9.0,22.0,8.0,-17.0,-42.0,-6.0,1651025649765921.0,3
1682,21.0,-7.0,-7.0,-7.0,0.0,-16.0,-22.0,-6.0,1651025649787899.0,3
1683,-43.0,-6.0,6.0,15.0,2.0,-5.0,-1.0,-16.0,1651025649787899.0,3
1684,-1.0,-6.0,0.0,2.0,3.0,21.0,16.0,1.0,1651025649788859.0,3
1685,-30.0,3.0,-16.0,-48.0,-17.0,-6.0,7.0,-3.0,1651025649788859.0,3
1686,28.0,10.0,30.0,56.0,17.0,17.0,22.0,13.0,1651025649801852.0,3
1687,17.0,5.0,-6.0,-14.0,2.0,-4.0,-7.0,5.0,1651025649801852.0,3
1688,-25.0,-5.0,15.0,29.0,8.0,0.0,1.0,-3.0,1651025649803829.0,3
1689,17.0,4.0,-11.0,-16.0,9.0,0.0,4.0,7.0,1651025649803829.0,3
1690,-22.0,4.0,10.0,31.0,5.0,2.0,7.0,1.0,1651025649824833.0,3
1691,-11.0,-6.0,-11.0,-21.0,-2.0,-2.0,1.0,-4.0,1651025649824833.0,3
1692,19.0,-1.0,2.0,8.0,-6.0,-8.0,-5.0,2.0,1651025649825761.0,3
1693,2.0,2.0,5.0,-7.0,-8.0,6.0,10.0,4.0,1651025649825761.0,3
1694,-13.0,-4.0,-10.0,-21.0,-7.0,-3.0,-12.0,-12.0,1651025649837796.0,3
1695,20.0,-1.0,4.0,17.0,3.0,-10.0,5.0,7.0,1651025649837796.0,3
1696,9.0,2.0,6.0,11.0,10.0,8.0,-20.0,0.0,1651025649846788.0,3
1697,-15.0,0.0,5.0,11.0,-1.0,-25.0,9.0,-1.0,1651025649846788.0,3
1698,-16.0,-5.0,-12.0,-25.0,3.0,65.0,46.0,7.0,1651025649862526.0,3
1699,15.0,0.0,6.0,20.0,1.0,-10.0,-58.0,-10.0,1651025649862526.0,3
1700,-1.0,-6.0,-11.0,-14.0,-6.0,-9.0,14.0,6.0,1651025649863533.0,3
1701,5.0,2.0,0.0,-4.0,-1.0,-16.0,-15.0,-3.0,1651025649863533.0,3
1702,-7.0,4.0,14.0,17.0,5.0,-9.0,6.0,-2.0,1651025649884484.0,3
1703,2.0,3.0,-8.0,-19.0,-7.0,3.0,5.0,3.0,1651025649884484.0,3
1704,-6.0,-3.0,-1.0,0.0,-3.0,4.0,1.0,0.0,1651025649886464.0,3
1705,9.0,-1.0,14.0,47.0,27.0,3.0,-11.0,-2.0,1651025649886464.0,3
1706,0.0,2.0,-3.0,-14.0,-7.0,-10.0,-3.0,-3.0,1651025649897942.0,3
1707,4.0,6.0,7.0,13.0,10.0,3.0,15.0,10.0,1651025649897942.0,3
1708,-5.0,-6.0,-11.0,-6.0,-7.0,-12.0,-11.0,-6.0,1651025649906849.0,3
1709,7.0,-1.0,-2.0,-11.0,-13.0,8.0,11.0,4.0,1651025649906849.0,3
1710,-1.0,-2.0,-5.0,-17.0,-11.0,-36.0,-3.0,-4.0,1651025649922002.0,3
1711,-5.0,-3.0,-2.0,7.0,9.0,44.0,-2.0,0.0,1651025649922002.0,3
1712,-9.0,-2.0,0.0,-5.0,-3.0,20.0,14.0,-1.0,1651025649923941.0,3
1713,10.0,0.0,2.0,5.0,7.0,4.0,-3.0,4.0,1651025649923941.0,3
1714,-7.0,-5.0,-4.0,-2.0,12.0,6.0,9.0,-6.0,1651025649945090.0,3
1715,-3.0,0.0,-4.0,-11.0,-14.0,-29.0,-6.0,-3.0,1651025649945090.0,3
1716,0.0,1.0,2.0,11.0,5.0,-7.0,-1.0,2.0,1651025649946028.0,3
1717,9.0,-2.0,-1.0,-14.0,-29.0,2.0,5.0,5.0,1651025649946028.0,3
1718,1.0,-1.0,-6.0,4.0,19.0,-15.0,-11.0,-4.0,1651025649958061.0,3
1719,-5.0,2.0,2.0,4.0,10.0,-4.0,3.0,-1.0,1651025649958061.0,3
1720,1.0,2.0,11.0,13.0,3.0,9.0,2.0,-6.0,1651025649966970.0,3
1721,1.0,-3.0,-7.0,-6.0,-2.0,1.0,-1.0,3.0,1651025649966970.0,3
1722,-5.0,-4.0,-7.0,-12.0,-21.0,-11.0,-3.0,1.0,1651025649981956.0,3
1723,1.0,0.0,-4.0,-8.0,-6.0,0.0,1.0,-1.0,1651025649981956.0,3
1724,0.0,-1.0,0.0,2.0,16.0,2.0,2.0,3.0,1651025649983925.0,3
1725,0.0,0.0,3.0,-1.0,-6.0,4.0,-4.0,-8.0,1651025649983925.0,3
1726,2.0,1.0,-1.0,-2.0,-17.0,-3.0,-1.0,3.0,1651025650004688.0,3
1727,1.0,1.0,2.0,1.0,12.0,5.0,3.0,-1.0,1651025650004688.0,3
1728,-3.0,-3.0,-2.0,-1.0,-5.0,-6.0,-2.0,-1.0,1651025650005713.0,3
1729,1.0,-2.0,-1.0,3.0,7.0,0.0,0.0,-1.0,1651025650005713.0,3
1730,-1.0,0.0,4.0,1.0,-2.0,6.0,1.0,-2.0,1651025650018719.0,3
1731,-1.0,1.0,-3.0,-6.0,-13.0,-10.0,2.0,0.0,1651025650018719.0,3
1732,-2.0,-5.0,3.0,3.0,-3.0,-6.0,-5.0,-3.0,1651025650027628.0,3
1733,0.0,-2.0,-12.0,-3.0,8.0,9.0,-1.0,-1.0,1651025650027628.0,3
1734,-1.0,-5.0,-9.0,-4.0,-6.0,-4.0,0.0,2.0,1651025650042604.0,3
1735,-1.0,1.0,2.0,-3.0,5.0,-1.0,-1.0,0.0,1651025650042604.0,3
1736,-2.0,-1.0,-1.0,-1.0,1.0,-2.0,-1.0,1.0,1651025650043584.0,3
1737,6.0,8.0,16.0,6.0,-1.0,4.0,0.0,2.0,1651025650043584.0,3
1738,1.0,3.0,7.0,3.0,7.0,3.0,0.0,2.0,1651025650064115.0,3
1739,-4.0,-10.0,-18.0,-9.0,-10.0,-7.0,-3.0,-5.0,1651025650064115.0,3
1740,1.0,2.0,-1.0,2.0,-2.0,-1.0,1.0,1.0,1651025650066112.0,3
1741,-1.0,-4.0,-11.0,-7.0,-4.0,-3.0,-2.0,-3.0,1651025650066112.0,3
1742,0.0,6.0,16.0,3.0,-4.0,-2.0,-2.0,0.0,1651025650087123.0,3
1743,4.0,5.0,3.0,8.0,13.0,4.0,2.0,4.0,1651025650087123.0,3
1744,-8.0,-17.0,-5.0,-1.0,-3.0,-4.0,-2.0,-3.0,1651025650089078.0,3
1745,-2.0,0.0,-17.0,-7.0,-7.0,-2.0,-4.0,-3.0,1651025650089078.0,3
1746,-1.0,-2.0,-2.0,-1.0,2.0,1.0,2.0,2.0,1651025650101774.0,3
1747,1.0,7.0,8.0,1.0,-14.0,-4.0,-1.0,-1.0,1651025650101774.0,3
1748,4.0,3.0,8.0,9.0,11.0,3.0,4.0,11.0,1651025650101774.0,3
1749,0.0,-20.0,-4.0,0.0,-15.0,-4.0,6.0,4.0,1651025650101774.0,3
1750,0.0,20.0,0.0,-5.0,16.0,1.0,-8.0,-3.0,1651025650124299.0,3
1751,0.0,3.0,2.0,-3.0,-2.0,4.0,-3.0,-9.0,1651025650124299.0,3
1752,-8.0,-21.0,1.0,6.0,4.0,-3.0,-3.0,-6.0,1651025650124299.0,3
1753,10.0,40.0,13.0,3.0,8.0,0.0,-2.0,5.0,1651025650124299.0,3
1754,-6.0,-8.0,-18.0,-11.0,-19.0,-5.0,3.0,-1.0,1651025650146856.0,3
1755,3.0,8.0,4.0,-5.0,-6.0,-3.0,2.0,5.0,1651025650146856.0,3
1756,6.0,13.0,14.0,9.0,7.0,1.0,0.0,2.0,1651025650146856.0,3
1757,-2.0,-19.0,-5.0,2.0,-6.0,-1.0,1.0,2.0,1651025650146856.0,3
1758,-8.0,-14.0,-19.0,-1.0,13.0,1.0,0.0,-14.0,1651025650161845.0,3
1759,5.0,17.0,-5.0,-5.0,6.0,2.0,-1.0,10.0,1651025650161845.0,3
1760,5.0,-8.0,2.0,-1.0,-7.0,-1.0,6.0,7.0,1651025650161845.0,3
1761,-5.0,2.0,8.0,-5.0,-7.0,-2.0,-7.0,-10.0,1651025650161845.0,3
1762,5.0,1.0,11.0,8.0,7.0,-4.0,-3.0,6.0,1651025650183760.0,3
1763,-11.0,-22.0,-25.0,-4.0,1.0,4.0,-1.0,-10.0,1651025650183760.0,3
1764,5.0,13.0,4.0,0.0,-4.0,-2.0,1.0,6.0,1651025650184756.0,3
1765,-1.0,1.0,5.0,-3.0,-3.0,0.0,1.0,-9.0,1651025650184756.0,3
1766,-5.0,-11.0,-1.0,-1.0,9.0,2.0,2.0,4.0,1651025650206716.0,3
1767,-2.0,-16.0,1.0,0.0,-1.0,-1.0,2.0,-8.0,1651025650206716.0,3
1768,-4.0,9.0,-6.0,-6.0,-8.0,-3.0,1.0,-11.0,1651025650206716.0,3
1769,0.0,11.0,11.0,-2.0,-9.0,0.0,-5.0,-6.0,1651025650206716.0,3
1770,6.0,-18.0,-10.0,0.0,-1.0,-2.0,0.0,13.0,1651025650220688.0,3
1771,-1.0,-8.0,-2.0,7.0,27.0,7.0,1.0,3.0,1651025650220688.0,3
1772,2.0,30.0,-3.0,-8.0,-7.0,-1.0,0.0,2.0,1651025650228639.0,3
1773,-1.0,-12.0,-4.0,4.0,6.0,4.0,3.0,-1.0,1651025650228639.0,3
1774,1.0,17.0,14.0,-2.0,-14.0,-1.0,-2.0,-1.0,1651025650244168.0,3
1775,4.0,2.0,13.0,1.0,-6.0,-3.0,1.0,7.0,1651025650244168.0,3
1776,-5.0,-8.0,-14.0,-4.0,0.0,0.0,-6.0,-4.0,1651025650244168.0,3
1777,-13.0,-9.0,2.0,-2.0,5.0,0.0,0.0,-5.0,1651025650244168.0,3
1778,12.0,11.0,-16.0,-1.0,-13.0,-6.0,-8.0,-8.0,1651025650266135.0,3
1779,-3.0,-4.0,-11.0,0.0,8.0,-3.0,-2.0,-1.0,1651025650266135.0,3
1780,-8.0,-9.0,-11.0,-23.0,-10.0,0.0,-5.0,-13.0,1651025650267064.0,3
1781,-1.0,2.0,4.0,21.0,9.0,4.0,3.0,13.0,1651025650267064.0,3
1782,2.0,4.0,17.0,6.0,-15.0,-2.0,4.0,5.0,1651025650281093.0,3
1783,9.0,19.0,22.0,7.0,8.0,3.0,0.0,19.0,1651025650281093.0,3
1784,-20.0,-26.0,-21.0,0.0,4.0,0.0,-1.0,-36.0,1651025650282024.0,3
1785,-10.0,-56.0,-35.0,-21.0,-7.0,-5.0,-8.0,-1.0,1651025650282024.0,3
1786,0.0,27.0,16.0,1.0,3.0,1.0,2.0,-12.0,1651025650303922.0,3
1787,14.0,8.0,-11.0,-1.0,-12.0,-4.0,-2.0,18.0,1651025650303922.0,3
1788,10.0,38.0,38.0,-7.0,4.0,1.0,0.0,6.0,1651025650304943.0,3
1789,10.0,-13.0,-4.0,14.0,-1.0,2.0,2.0,1.0,1651025650304943.0,3
1790,-7.0,-4.0,-12.0,-2.0,9.0,-2.0,-3.0,-6.0,1651025650326830.0,3
1791,-18.0,-5.0,9.0,-2.0,-10.0,-4.0,-5.0,-30.0,1651025650326830.0,3
1792,11.0,-2.0,-7.0,3.0,3.0,-1.0,-1.0,22.0,1651025650326830.0,3
1793,3.0,17.0,10.0,-7.0,-2.0,1.0,2.0,-7.0,1651025650326830.0,3
1794,5.0,4.0,10.0,5.0,1.0,2.0,2.0,11.0,1651025650341819.0,3
1795,0.0,-7.0,-3.0,0.0,-4.0,-1.0,1.0,-3.0,1651025650341819.0,3
1796,-9.0,-18.0,-10.0,-6.0,-5.0,-1.0,0.0,1.0,1651025650341819.0,3
1797,12.0,39.0,9.0,2.0,4.0,1.0,1.0,0.0,1651025650341819.0,3
1798,-12.0,-13.0,1.0,3.0,9.0,4.0,-1.0,-13.0,1651025650363860.0,3
1799,1.0,8.0,13.0,9.0,-1.0,0.0,2.0,4.0,1651025650363860.0,3
1800,-9.0,-44.0,-25.0,-4.0,-7.0,-6.0,-2.0,-3.0,1651025650364972.0,3
1801,-1.0,-4.0,-3.0,-5.0,3.0,-1.0,1.0,2.0,1651025650364972.0,3
1802,-5.0,3.0,-29.0,-14.0,-5.0,-2.0,-2.0,-15.0,1651025650386925.0,3
1803,0.0,7.0,18.0,-2.0,2.0,-3.0,-3.0,-3.0,1651025650386925.0,3
1804,15.0,49.0,13.0,13.0,6.0,2.0,-1.0,3.0,1651025650386925.0,3
1805,-9.0,-41.0,-15.0,-4.0,3.0,-1.0,0.0,1.0,1651025650386925.0,3
1806,1.0,25.0,8.0,1.0,-5.0,1.0,3.0,2.0,1651025650400920.0,3
1807,-2.0,-19.0,-3.0,1.0,6.0,-1.0,0.0,-2.0,1651025650400920.0,3
1808,6.0,22.0,13.0,1.0,-11.0,-6.0,-2.0,5.0,1651025650408950.0,3
1809,-8.0,-12.0,-4.0,-5.0,6.0,-1.0,-1.0,0.0,1651025650408950.0,3
1810,5.0,-12.0,2.0,4.0,-2.0,5.0,1.0,2.0,1651025650423856.0,3
1811,-2.0,-3.0,-14.0,-3.0,-5.0,-4.0,0.0,-1.0,1651025650423856.0,3
1812,1.0,-3.0,2.0,2.0,-2.0,-2.0,-1.0,3.0,1651025650424970.0,3
1813,-2.0,6.0,4.0,-1.0,-1.0,-1.0,-1.0,-4.0,1651025650424970.0,3
1814,-2.0,-5.0,-11.0,-6.0,-3.0,-1.0,-5.0,-7.0,1651025650445969.0,3
1815,-6.0,-5.0,-2.0,-2.0,-5.0,0.0,1.0,-3.0,1651025650445969.0,3
1816,2.0,-7.0,-1.0,3.0,8.0,2.0,1.0,4.0,1651025650454364.0,3
1817,-2.0,10.0,4.0,2.0,-2.0,0.0,-2.0,-6.0,1651025650454364.0,3
1818,-3.0,-10.0,6.0,-1.0,1.0,-1.0,-1.0,4.0,1651025650460900.0,3
1819,7.0,32.0,2.0,-2.0,-2.0,-1.0,0.0,2.0,1651025650460900.0,3
1820,-12.0,-56.0,0.0,1.0,5.0,1.0,-1.0,-7.0,1651025650469018.0,3
1821,8.0,15.0,-23.0,-5.0,-1.0,3.0,-1.0,6.0,1651025650469018.0,3
1822,-4.0,-24.0,-8.0,-1.0,2.0,1.0,0.0,5.0,1651025650483936.0,3
1823,1.0,-4.0,2.0,-1.0,-8.0,1.0,2.0,-1.0,1651025650483936.0,3
1824,-6.0,-1.0,6.0,3.0,-2.0,-3.0,0.0,4.0,1651025650485031.0,3
1825,6.0,47.0,16.0,-1.0,0.0,-4.0,-2.0,-2.0,1651025650485031.0,3
1826,-1.0,-10.0,-8.0,-9.0,-1.0,-2.0,1.0,3.0,1651025650506860.0,3
1827,-2.0,1.0,-3.0,-3.0,-6.0,-1.0,1.0,-4.0,1651025650506860.0,3
1828,3.0,10.0,-2.0,-6.0,0.0,1.0,0.0,0.0,1651025650506860.0,3
1829,-5.0,-5.0,7.0,1.0,0.0,0.0,0.0,0.0,1651025650506860.0,3
1830,3.0,1.0,3.0,7.0,-1.0,-1.0,1.0,0.0,1651025650529844.0,3
1831,2.0,6.0,-3.0,-2.0,-1.0,0.0,-1.0,1.0,1651025650529844.0,3
1832,-1.0,-9.0,-4.0,2.0,1.0,0.0,-1.0,0.0,1651025650530808.0,3
1833,4.0,10.0,2.0,2.0,-2.0,-1.0,1.0,1.0,1651025650530808.0,3
1834,-1.0,-1.0,6.0,-3.0,1.0,-2.0,0.0,2.0,1651025650543813.0,3
1835,-2.0,-20.0,-8.0,-3.0,0.0,2.0,-1.0,-2.0,1651025650543813.0,3
1836,-4.0,-14.0,-9.0,-4.0,-1.0,1.0,-1.0,-2.0,1651025650544896.0,3
1837,2.0,18.0,6.0,-2.0,0.0,-2.0,-1.0,0.0,1651025650544896.0,3
1838,6.0,-22.0,2.0,3.0,2.0,0.0,1.0,3.0,1651025650575001.0,3
1839,-5.0,1.0,-3.0,-1.0,-4.0,-4.0,-3.0,-3.0,1651025650575001.0,3
1840,3.0,0.0,-3.0,2.0,0.0,1.0,0.0,0.0,1651025650575113.0,3
1841,5.0,34.0,6.0,-2.0,-1.0,0.0,0.0,-1.0,1651025650575113.0,3
1842,-8.0,-17.0,0.0,2.0,2.0,0.0,0.0,-1.0,1651025650580937.0,3
1843,2.0,-3.0,-6.0,-4.0,-2.0,-2.0,0.0,-2.0,1651025650580937.0,3
1844,14.0,35.0,8.0,1.0,-2.0,-2.0,-1.0,-1.0,1651025650588958.0,3
1845,-15.0,-35.0,0.0,1.0,0.0,0.0,-2.0,0.0,1651025650588958.0,3
1846,-3.0,2.0,0.0,-1.0,0.0,0.0,0.0,0.0,1651025650604365.0,3
1847,-2.0,-24.0,-4.0,2.0,0.0,1.0,0.0,1.0,1651025650604365.0,3
1848,-2.0,10.0,-1.0,-1.0,-2.0,-1.0,-1.0,-2.0,1651025650604940.0,3
1849,11.0,28.0,7.0,1.0,1.0,0.0,1.0,2.0,1651025650604940.0,3
1850,-2.0,1.0,-2.0,-1.0,-2.0,-2.0,-3.0,-1.0,1651025650626852.0,3
1851,-4.0,-26.0,-4.0,2.0,1.0,1.0,3.0,0.0,1651025650626852.0,3
1852,-2.0,-20.0,-6.0,-1.0,1.0,1.0,0.0,-1.0,1651025650626852.0,3
1853,4.0,10.0,-1.0,-3.0,-1.0,0.0,-3.0,-2.0,1651025650626852.0,3
1854,-8.0,-23.0,-4.0,-2.0,-1.0,0.0,-2.0,-2.0,1651025650640885.0,3
1855,0.0,21.0,5.0,0.0,-2.0,-1.0,-2.0,-1.0,1651025650640885.0,3
1856,1.0,-1.0,-1.0,1.0,0.0,0.0,1.0,0.0,1651025650648860.0,3
1857,-17.0,-45.0,-12.0,-3.0,-6.0,-1.0,-3.0,-6.0,1651025650648860.0,3
1858,2.0,23.0,3.0,3.0,4.0,1.0,0.0,0.0,1651025650663758.0,3
1859,0.0,9.0,0.0,-1.0,-2.0,-1.0,-1.0,0.0,1651025650663758.0,3
1860,-6.0,-42.0,-5.0,3.0,0.0,1.0,0.0,-1.0,1651025650664753.0,3
1861,6.0,10.0,7.0,1.0,0.0,-1.0,1.0,2.0,1651025650664753.0,3
1862,12.0,28.0,2.0,0.0,-1.0,-1.0,1.0,3.0,1651025650686864.0,3
1863,-12.0,-4.0,-3.0,-5.0,-3.0,-4.0,-2.0,-6.0,1651025650686864.0,3
1864,-2.0,16.0,3.0,0.0,2.0,0.0,0.0,-1.0,1651025650686864.0,3
1865,5.0,-23.0,-6.0,1.0,1.0,-1.0,3.0,1.0,1651025650686864.0,3
1866,0.0,11.0,0.0,-3.0,-3.0,-1.0,-2.0,-2.0,1651025650700749.0,3
1867,3.0,-2.0,-2.0,1.0,1.0,0.0,0.0,-1.0,1651025650700749.0,3
1868,3.0,11.0,0.0,-1.0,-2.0,-2.0,-1.0,1.0,1651025650708730.0,3
1869,-3.0,-3.0,-1.0,-1.0,0.0,0.0,0.0,-1.0,1651025650708730.0,3
1870,-2.0,-1.0,-4.0,-4.0,-1.0,0.0,1.0,0.0,1651025650723625.0,3
1871,-8.0,8.0,-2.0,-9.0,-1.0,0.0,-3.0,-3.0,1651025650723625.0,3
1872,1.0,5.0,2.0,4.0,-1.0,-1.0,-2.0,0.0,1651025650731604.0,3
1873,-7.0,-22.0,2.0,16.0,4.0,1.0,0.0,1.0,1651025650731604.0,3
1874,0.0,8.0,3.0,2.0,1.0,1.0,2.0,1.0,1651025650746837.0,3
1875,2.0,-25.0,-4.0,0.0,-2.0,-1.0,1.0,1.0,1651025650746837.0,3
1876,-8.0,-17.0,-5.0,-7.0,-3.0,-1.0,-3.0,-3.0,1651025650746837.0,3
1877,5.0,13.0,1.0,-5.0,-4.0,-2.0,0.0,1.0,1651025650746837.0,3
1878,-10.0,-30.0,-8.0,-2.0,-7.0,0.0,-3.0,-3.0,1651025650760829.0,3
1879,-1.0,0.0,1.0,3.0,17.0,0.0,-1.0,-2.0,1651025650760829.0,3
1880,5.0,-1.0,2.0,-1.0,-2.0,2.0,3.0,1.0,1651025650768742.0,3
1881,5.0,5.0,1.0,0.0,-1.0,0.0,0.0,1.0,1651025650768742.0,3
1882,0.0,16.0,1.0,-2.0,-3.0,-2.0,-3.0,-2.0,1651025650783787.0,3
1883,-2.0,-9.0,-1.0,-3.0,-7.0,1.0,0.0,-1.0,1651025650783787.0,3
1884,3.0,-2.0,-1.0,1.0,2.0,0.0,-2.0,-1.0,1651025650784787.0,3
1885,-4.0,-8.0,-1.0,0.0,-1.0,1.0,-1.0,-3.0,1651025650784787.0,3
1886,4.0,-7.0,2.0,-2.0,-1.0,0.0,1.0,0.0,1651025650806787.0,3
1887,7.0,45.0,6.0,3.0,0.0,2.0,-1.0,1.0,1651025650806787.0,3
1888,-1.0,11.0,1.0,2.0,0.0,-1.0,0.0,0.0,1651025650806787.0,3
