,EMG_s0,EMG_s1,EMG_s2,EMG_s3,EMG_s4,EMG_s5,EMG_s6,EMG_s7,timestamp,signal
0,-2.0,18.0,0.0,1.0,7.0,1.0,-2.0,-1.0,1651025887401764.0,0
1,3.0,1.0,-1.0,-2.0,-4.0,0.0,1.0,1.0,1651025887401764.0,0
2,-3.0,-6.0,-2.0,-2.0,0.0,-2.0,-2.0,-2.0,1651025887423708.0,0
3,0.0,-3.0,3.0,1.0,-6.0,-2.0,0.0,0.0,1651025887423708.0,0
4,4.0,11.0,2.0,-2.0,-4.0,-2.0,-1.0,0.0,1651025887424713.0,0
5,-2.0,-3.0,-3.0,4.0,6.0,1.0,0.0,-1.0,1651025887424713.0,0
6,-4.0,-8.0,-2.0,1.0,2.0,0.0,-1.0,-1.0,1651025887440682.0,0
7,5.0,14.0,2.0,-4.0,-3.0,0.0,0.0,3.0,1651025887440682.0,0
8,-5.0,-11.0,-1.0,0.0,-1.0,1.0,1.0,-1.0,1651025887441654.0,0
9,-2.0,-7.0,-3.0,-1.0,-2.0,0.0,-1.0,-1.0,1651025887441654.0,0
10,1.0,-1.0,-2.0,2.0,1.0,-1.0,0.0,-2.0,1651025887461593.0,0
11,-7.0,-7.0,-2.0,-2.0,0.0,-1.0,0.0,-2.0,1651025887461593.0,0
12,-2.0,-7.0,0.0,-1.0,-1.0,1.0,0.0,0.0,1651025887462590.0,0
13,2.0,4.0,2.0,-1.0,-2.0,0.0,-1.0,0.0,1651025887462590.0,0
14,-6.0,-4.0,-5.0,-3.0,-1.0,0.0,0.0,-1.0,1651025887483578.0,0
15,1.0,1.0,1.0,-1.0,0.0,0.0,-1.0,1.0,1651025887483578.0,0
16,0.0,-8.0,3.0,2.0,-1.0,0.0,0.0,0.0,1651025887484531.0,0
17,-3.0,3.0,-3.0,-1.0,0.0,0.0,0.0,-2.0,1651025887484531.0,0
18,1.0,5.0,2.0,1.0,-1.0,-1.0,-1.0,-1.0,1651025887498913.0,0
19,-1.0,-9.0,-8.0,-4.0,-2.0,0.0,-1.0,-1.0,1651025887498913.0,0
20,-1.0,-7.0,-3.0,-1.0,-2.0,0.0,-2.0,0.0,1651025887499938.0,0
21,0.0,0.0,-1.0,1.0,1.0,2.0,-1.0,0.0,1651025887499938.0,0
22,0.0,10.0,2.0,-6.0,-1.0,-1.0,-1.0,-1.0,1651025887521852.0,0
23,-1.0,2.0,1.0,2.0,-1.0,0.0,1.0,0.0,1651025887521852.0,0
24,0.0,2.0,0.0,3.0,2.0,0.0,0.0,0.0,1651025887521852.0,0
25,-7.0,-1.0,2.0,0.0,1.0,-1.0,0.0,-1.0,1651025887521852.0,0
26,0.0,1.0,2.0,1.0,-3.0,0.0,0.0,0.0,1651025887543848.0,0
27,-1.0,-8.0,-5.0,-3.0,-1.0,-2.0,0.0,-2.0,1651025887543848.0,0
28,1.0,0.0,-1.0,0.0,-1.0,-1.0,1.0,0.0,1651025887544864.0,0
29,3.0,8.0,2.0,0.0,-1.0,0.0,-1.0,0.0,1651025887544864.0,0
30,-4.0,-4.0,-3.0,-1.0,-2.0,0.0,1.0,-1.0,1651025887558866.0,0
31,1.0,-2.0,2.0,-2.0,-2.0,0.0,-2.0,-2.0,1651025887558866.0,0
32,-2.0,-8.0,0.0,1.0,1.0,1.0,1.0,-1.0,1651025887559823.0,0
33,0.0,2.0,1.0,2.0,0.0,1.0,1.0,0.0,1651025887559823.0,0
34,-1.0,-10.0,-3.0,-1.0,0.0,-1.0,-1.0,-1.0,1651025887581738.0,0
35,5.0,19.0,1.0,1.0,1.0,-1.0,0.0,0.0,1651025887581738.0,0
36,-1.0,3.0,-3.0,0.0,-3.0,0.0,-2.0,-2.0,1651025887581738.0,0
37,0.0,-8.0,0.0,-1.0,-2.0,-1.0,-1.0,0.0,1651025887581738.0,0
38,-3.0,-7.0,-3.0,1.0,1.0,0.0,-1.0,1.0,1651025887603699.0,0
39,0.0,-3.0,1.0,2.0,1.0,2.0,2.0,-1.0,1651025887603699.0,0
40,-3.0,-25.0,0.0,-2.0,-1.0,0.0,0.0,1.0,1651025887604685.0,0
41,2.0,7.0,3.0,1.0,-1.0,-1.0,-1.0,0.0,1651025887604685.0,0
42,-2.0,-3.0,-3.0,0.0,-1.0,-2.0,-2.0,-2.0,1651025887618834.0,0
43,-1.0,-9.0,-1.0,-2.0,1.0,-2.0,-2.0,-2.0,1651025887618834.0,0
44,2.0,12.0,0.0,-4.0,-11.0,-3.0,0.0,-1.0,1651025887619828.0,0
45,-3.0,-17.0,1.0,3.0,12.0,1.0,0.0,-2.0,1651025887619828.0,0
46,1.0,8.0,3.0,4.0,4.0,1.0,-1.0,0.0,1651025887649749.0,0
47,0.0,9.0,1.0,0.0,-4.0,0.0,0.0,2.0,1651025887649749.0,0
48,-1.0,2.0,-4.0,-4.0,-3.0,-1.0,-2.0,-2.0,1651025887650746.0,0
49,1.0,1.0,-1.0,-4.0,-8.0,-3.0,-1.0,1.0,1651025887650746.0,0
50,-1.0,2.0,-1.0,-1.0,4.0,-1.0,0.0,-2.0,1651025887663710.0,0
51,-1.0,-3.0,1.0,0.0,1.0,1.0,-1.0,0.0,1651025887663710.0,0
52,1.0,5.0,5.0,4.0,1.0,-1.0,-3.0,1.0,1651025887664708.0,0
53,-2.0,-8.0,-6.0,-1.0,-2.0,-1.0,-1.0,0.0,1651025887664708.0,0
54,3.0,1.0,0.0,0.0,1.0,1.0,-1.0,0.0,1651025887678739.0,0
55,-2.0,-1.0,-3.0,-3.0,-2.0,-1.0,0.0,0.0,1651025887678739.0,0
56,0.0,-2.0,-3.0,-5.0,0.0,0.0,0.0,0.0,1651025887679673.0,0
57,-1.0,7.0,1.0,3.0,-1.0,0.0,-1.0,-2.0,1651025887679673.0,0
58,-7.0,-12.0,0.0,-1.0,-1.0,-1.0,-2.0,-2.0,1651025887701673.0,0
59,1.0,-16.0,2.0,2.0,-2.0,0.0,-1.0,0.0,1651025887701673.0,0
60,9.0,28.0,0.0,-1.0,3.0,-1.0,0.0,0.0,1651025887702638.0,0
61,0.0,-1.0,-2.0,-2.0,-1.0,0.0,-1.0,-1.0,1651025887702638.0,0
62,0.0,-1.0,0.0,0.0,-3.0,0.0,0.0,0.0,1651025887724181.0,0
63,-2.0,0.0,1.0,0.0,-2.0,-2.0,-1.0,-2.0,1651025887724181.0,0
64,-5.0,-20.0,-6.0,-2.0,-7.0,-2.0,0.0,-1.0,1651025887724181.0,0
65,1.0,4.0,2.0,-1.0,4.0,-1.0,0.0,-1.0,1651025887724181.0,0
66,4.0,24.0,2.0,1.0,7.0,1.0,1.0,1.0,1651025887739140.0,0
67,-10.0,-38.0,-6.0,-2.0,-2.0,0.0,-1.0,-1.0,1651025887739140.0,0
68,2.0,3.0,1.0,-1.0,3.0,0.0,-1.0,-1.0,1651025887739140.0,0
69,-5.0,-3.0,-3.0,-4.0,-8.0,-3.0,-2.0,-2.0,1651025887739140.0,0
70,0.0,-13.0,-2.0,-2.0,-3.0,-1.0,1.0,1.0,1651025887761171.0,0
71,5.0,14.0,-2.0,-2.0,0.0,-1.0,-1.0,1.0,1651025887761171.0,0
72,-2.0,-4.0,1.0,0.0,1.0,0.0,-1.0,-1.0,1651025887762100.0,0
73,0.0,-3.0,5.0,7.0,1.0,4.0,1.0,0.0,1651025887762100.0,0
74,0.0,-3.0,-1.0,-1.0,-1.0,0.0,-1.0,1.0,1651025887784311.0,0
75,2.0,7.0,0.0,0.0,-4.0,-1.0,-2.0,-1.0,1651025887784311.0,0
76,0.0,6.0,1.0,-5.0,0.0,-2.0,-1.0,-1.0,1651025887784978.0,0
77,-2.0,3.0,-2.0,-3.0,1.0,0.0,-1.0,0.0,1651025887784978.0,0
78,-1.0,0.0,-2.0,-1.0,-1.0,1.0,-1.0,-3.0,1651025887798866.0,0
79,-7.0,-4.0,-4.0,-3.0,-3.0,0.0,0.0,-3.0,1651025887798866.0,0
80,-4.0,-9.0,0.0,1.0,2.0,0.0,-1.0,-2.0,1651025887799799.0,0
81,2.0,5.0,-1.0,-1.0,2.0,-1.0,-2.0,1.0,1651025887799799.0,0
82,-3.0,-8.0,-3.0,-2.0,-5.0,-2.0,0.0,-1.0,1651025887821741.0,0
83,3.0,11.0,7.0,2.0,0.0,0.0,1.0,2.0,1651025887821741.0,0
84,-2.0,-3.0,-2.0,-1.0,0.0,0.0,-1.0,-2.0,1651025887821741.0,0
85,2.0,3.0,1.0,-1.0,-1.0,-2.0,0.0,-1.0,1651025887821741.0,0
86,-1.0,-4.0,-4.0,-1.0,-1.0,1.0,0.0,1.0,1651025887843682.0,0
87,2.0,3.0,0.0,0.0,1.0,-1.0,-2.0,-2.0,1651025887843682.0,0
88,-2.0,1.0,-1.0,3.0,3.0,1.0,0.0,1.0,1651025887844678.0,0
89,2.0,4.0,1.0,-2.0,-1.0,0.0,-1.0,-1.0,1651025887844678.0,0
90,0.0,-1.0,-3.0,-1.0,-5.0,-2.0,-1.0,0.0,1651025887858659.0,0
91,2.0,7.0,3.0,2.0,3.0,2.0,0.0,-1.0,1651025887858659.0,0
92,-5.0,-3.0,-2.0,0.0,-2.0,0.0,-1.0,-2.0,1651025887873792.0,0
93,-2.0,-7.0,-3.0,-3.0,-3.0,-2.0,0.0,0.0,1651025887873792.0,0
94,3.0,3.0,1.0,-1.0,0.0,-2.0,2.0,-2.0,1651025887881841.0,0
95,-7.0,-8.0,-1.0,-3.0,-2.0,-2.0,-2.0,-3.0,1651025887881841.0,0
96,4.0,6.0,-6.0,-8.0,-11.0,0.0,-1.0,-1.0,1651025887881841.0,0
97,0.0,0.0,0.0,3.0,12.0,1.0,-1.0,1.0,1651025887881841.0,0
98,-1.0,-2.0,1.0,2.0,4.0,-2.0,-1.0,0.0,1651025887903701.0,0
99,2.0,5.0,0.0,2.0,0.0,1.0,0.0,0.0,1651025887903701.0,0
100,0.0,4.0,3.0,0.0,2.0,-1.0,-1.0,1.0,1651025887904698.0,0
101,-1.0,-10.0,-2.0,-5.0,-9.0,0.0,1.0,0.0,1651025887904698.0,0
102,-1.0,4.0,-4.0,-5.0,-4.0,0.0,-2.0,0.0,1651025887918703.0,0
103,0.0,2.0,-2.0,3.0,3.0,0.0,0.0,1.0,1651025887918703.0,0
104,-3.0,-9.0,1.0,2.0,1.0,-3.0,-1.0,-1.0,1651025887925868.0,0
105,4.0,11.0,4.0,-1.0,-1.0,0.0,1.0,1.0,1651025887925868.0,0
106,0.0,0.0,0.0,-1.0,2.0,0.0,-2.0,0.0,1651025887941666.0,0
107,0.0,-4.0,-1.0,1.0,0.0,0.0,0.0,-1.0,1651025887941666.0,0
108,-2.0,-5.0,-2.0,0.0,1.0,-1.0,-2.0,1.0,1651025887942616.0,0
109,-2.0,-4.0,-4.0,-2.0,-5.0,-2.0,0.0,0.0,1651025887942616.0,0
110,4.0,11.0,-1.0,-1.0,1.0,0.0,-1.0,-2.0,1651025887963571.0,0
111,-2.0,3.0,0.0,-2.0,-1.0,-1.0,-1.0,-1.0,1651025887963571.0,0
112,2.0,6.0,0.0,3.0,3.0,1.0,0.0,1.0,1651025887964537.0,0
113,0.0,-1.0,1.0,-3.0,0.0,2.0,-2.0,0.0,1651025887964537.0,0
114,0.0,4.0,1.0,2.0,-3.0,0.0,-1.0,1.0,1651025887977939.0,0
115,-6.0,-16.0,-6.0,-2.0,0.0,-2.0,-1.0,-2.0,1651025887977939.0,0
116,0.0,-1.0,1.0,2.0,0.0,1.0,-1.0,-1.0,1651025887993909.0,0
117,-3.0,1.0,-4.0,-1.0,-3.0,-3.0,-2.0,-2.0,1651025887993909.0,0
118,0.0,-3.0,2.0,-3.0,-2.0,0.0,-1.0,-1.0,1651025888001002.0,0
119,3.0,3.0,-3.0,-6.0,0.0,-1.0,-2.0,1.0,1651025888001002.0,0
120,-2.0,-3.0,-1.0,1.0,1.0,-1.0,0.0,-1.0,1651025888001990.0,0
121,0.0,-2.0,0.0,5.0,-2.0,-1.0,-2.0,-1.0,1651025888001990.0,0
122,-2.0,-4.0,1.0,0.0,0.0,-2.0,0.0,0.0,1651025888024452.0,0
123,1.0,-4.0,-1.0,0.0,-3.0,0.0,-2.0,-1.0,1651025888024452.0,0
124,-1.0,2.0,-1.0,-2.0,0.0,-1.0,1.0,0.0,1651025888024452.0,0
125,-1.0,-2.0,-1.0,2.0,2.0,1.0,1.0,-1.0,1651025888024452.0,0
126,3.0,5.0,2.0,1.0,-1.0,0.0,0.0,-2.0,1651025888038414.0,0
127,-1.0,0.0,-1.0,-3.0,-4.0,0.0,-1.0,1.0,1651025888038414.0,0
128,-2.0,-5.0,-4.0,-4.0,-9.0,-2.0,-2.0,-2.0,1651025888045464.0,0
129,0.0,-1.0,2.0,6.0,11.0,1.0,-1.0,-1.0,1651025888045464.0,0
130,0.0,4.0,-3.0,1.0,1.0,-1.0,2.0,1.0,1651025888061478.0,0
131,-1.0,-5.0,-1.0,0.0,-3.0,2.0,3.0,1.0,1651025888061478.0,0
132,1.0,1.0,3.0,1.0,-1.0,0.0,-3.0,-1.0,1651025888062478.0,0
133,-1.0,3.0,1.0,-2.0,-8.0,-2.0,1.0,0.0,1651025888062478.0,0
134,-1.0,-2.0,-1.0,-4.0,-2.0,1.0,-1.0,0.0,1651025888084029.0,0
135,0.0,3.0,1.0,-3.0,1.0,-1.0,0.0,-1.0,1651025888084029.0,0
136,0.0,-8.0,1.0,6.0,2.0,0.0,-1.0,1.0,1651025888085018.0,0
137,0.0,-2.0,-1.0,-3.0,-1.0,-1.0,-1.0,-2.0,1651025888085018.0,0
138,3.0,9.0,0.0,1.0,1.0,-2.0,-1.0,1.0,1651025888097983.0,0
139,-5.0,-5.0,-2.0,-3.0,-2.0,-3.0,-1.0,-3.0,1651025888097983.0,0
140,1.0,-2.0,0.0,0.0,2.0,-1.0,0.0,-2.0,1651025888114183.0,0
141,-4.0,-2.0,0.0,-4.0,-4.0,0.0,-1.0,1.0,1651025888114183.0,0
142,-1.0,-3.0,-1.0,1.0,0.0,0.0,1.0,0.0,1651025888121164.0,0
143,5.0,13.0,7.0,5.0,4.0,2.0,0.0,-1.0,1651025888121164.0,0
144,-1.0,0.0,-3.0,-4.0,-1.0,-1.0,0.0,-2.0,1651025888122106.0,0
145,0.0,3.0,0.0,-2.0,0.0,-1.0,1.0,0.0,1651025888122106.0,0
146,-4.0,-7.0,-3.0,-3.0,-2.0,1.0,-2.0,-1.0,1651025888144104.0,0
147,3.0,7.0,-1.0,1.0,1.0,1.0,-2.0,-1.0,1651025888144104.0,0
148,-5.0,-8.0,-5.0,-2.0,-1.0,-1.0,1.0,0.0,1651025888145033.0,0
149,2.0,4.0,1.0,-4.0,-7.0,-2.0,0.0,0.0,1651025888145033.0,0
150,-4.0,-7.0,0.0,-2.0,-4.0,-2.0,-2.0,-3.0,1651025888157939.0,0
151,1.0,-1.0,1.0,2.0,13.0,1.0,0.0,-2.0,1651025888157939.0,0
152,3.0,-5.0,-1.0,3.0,-3.0,0.0,1.0,-2.0,1651025888165992.0,0
153,1.0,18.0,2.0,2.0,-1.0,0.0,0.0,-2.0,1651025888165992.0,0
154,-2.0,-1.0,-6.0,-6.0,-7.0,-3.0,2.0,0.0,1651025888181942.0,0
155,-4.0,-9.0,-7.0,-4.0,-5.0,-2.0,1.0,0.0,1651025888181942.0,0
156,1.0,4.0,2.0,-4.0,2.0,1.0,-2.0,0.0,1651025888181942.0,0
157,-2.0,-7.0,-2.0,-4.0,-4.0,-1.0,-1.0,-2.0,1651025888181942.0,0
158,0.0,2.0,4.0,8.0,4.0,1.0,0.0,1.0,1651025888203884.0,0
159,4.0,-1.0,-1.0,-3.0,1.0,1.0,1.0,2.0,1651025888203884.0,0
160,-1.0,0.0,-4.0,-2.0,-1.0,0.0,2.0,-1.0,1651025888204880.0,0
161,-1.0,-9.0,-7.0,-3.0,-2.0,0.0,0.0,-2.0,1651025888204880.0,0
162,1.0,3.0,2.0,-5.0,-2.0,-1.0,-3.0,-3.0,1651025888217863.0,0
163,-8.0,-7.0,0.0,1.0,-5.0,-2.0,0.0,-2.0,1651025888217863.0,0
164,1.0,-1.0,4.0,3.0,2.0,0.0,-1.0,-1.0,1651025888226245.0,0
165,0.0,-4.0,-1.0,-1.0,1.0,-2.0,-1.0,-1.0,1651025888226245.0,0
166,-2.0,-7.0,-3.0,1.0,2.0,-1.0,-1.0,0.0,1651025888241941.0,0
167,3.0,7.0,-4.0,-4.0,-4.0,-2.0,-1.0,0.0,1651025888241941.0,0
168,-8.0,-8.0,-2.0,-4.0,-5.0,-1.0,-2.0,-2.0,1651025888241941.0,0
169,0.0,2.0,-1.0,1.0,-1.0,1.0,0.0,0.0,1651025888241941.0,0
170,-2.0,-3.0,3.0,3.0,12.0,3.0,1.0,0.0,1651025888262932.0,0
171,3.0,5.0,0.0,0.0,-7.0,0.0,-1.0,1.0,1651025888262932.0,0
172,2.0,7.0,2.0,-1.0,1.0,0.0,0.0,0.0,1651025888271856.0,0
173,-3.0,-14.0,-4.0,-3.0,-4.0,-2.0,-3.0,-1.0,1651025888271856.0,0
174,0.0,0.0,1.0,1.0,-4.0,-2.0,-1.0,-1.0,1651025888286850.0,0
175,0.0,4.0,2.0,3.0,1.0,1.0,-2.0,0.0,1651025888286850.0,0
176,-2.0,-2.0,-3.0,-4.0,-2.0,-2.0,-1.0,0.0,1651025888286850.0,0
177,-2.0,0.0,-1.0,1.0,3.0,0.0,-1.0,1.0,1651025888286850.0,0
178,-1.0,-6.0,-3.0,-2.0,-1.0,-2.0,0.0,-1.0,1651025888309812.0,0
179,0.0,-3.0,0.0,-1.0,-2.0,-1.0,-1.0,0.0,1651025888309812.0,0
180,-2.0,0.0,-1.0,0.0,4.0,0.0,-1.0,-2.0,1651025888310741.0,0
181,0.0,-1.0,-2.0,-2.0,-1.0,-1.0,0.0,1.0,1651025888310741.0,0
182,-3.0,-2.0,0.0,-1.0,-1.0,0.0,-1.0,-2.0,1651025888323756.0,0
183,-2.0,-4.0,-6.0,-3.0,-1.0,0.0,1.0,-1.0,1651025888323756.0,0
184,-1.0,2.0,2.0,7.0,-1.0,-2.0,1.0,0.0,1651025888324785.0,0
185,7.0,6.0,2.0,-2.0,0.0,-1.0,0.0,1.0,1651025888324785.0,0
186,-7.0,-17.0,-5.0,-1.0,-3.0,-1.0,-2.0,0.0,1651025888346727.0,0
187,-3.0,3.0,2.0,-1.0,0.0,-2.0,-1.0,-1.0,1651025888346727.0,0
188,1.0,-1.0,-3.0,-3.0,0.0,2.0,-1.0,-1.0,1651025888346727.0,0
189,-2.0,7.0,-2.0,-1.0,1.0,-1.0,-3.0,-3.0,1651025888346727.0,0
190,4.0,4.0,-1.0,-2.0,-3.0,-1.0,0.0,1.0,1651025888369159.0,0
191,-1.0,7.0,-1.0,-1.0,0.0,-2.0,-2.0,0.0,1651025888369159.0,0
192,1.0,-1.0,3.0,2.0,-1.0,0.0,0.0,1.0,1651025888370094.0,0
193,-1.0,-4.0,-2.0,0.0,-1.0,-1.0,2.0,0.0,1651025888370094.0,0
194,1.0,-3.0,-4.0,-8.0,-15.0,-2.0,0.0,-1.0,1651025888384060.0,0
195,1.0,-3.0,2.0,7.0,17.0,1.0,0.0,0.0,1651025888384060.0,0
196,-4.0,1.0,-1.0,0.0,1.0,2.0,0.0,1.0,1651025888391107.0,0
197,-1.0,-2.0,0.0,-1.0,-4.0,0.0,0.0,-3.0,1651025888391107.0,0
198,1.0,3.0,-1.0,-4.0,-4.0,-1.0,-1.0,1.0,1651025888406060.0,0
199,-2.0,-4.0,-4.0,1.0,-3.0,-1.0,-3.0,-2.0,1651025888406060.0,0
200,1.0,1.0,1.0,0.0,0.0,-2.0,0.0,0.0,1651025888407008.0,0
201,-3.0,-3.0,-1.0,-1.0,0.0,-1.0,1.0,-1.0,1651025888407008.0,0
202,0.0,-2.0,-4.0,-2.0,-1.0,0.0,-1.0,-1.0,1651025888429780.0,0
203,1.0,1.0,3.0,0.0,-5.0,0.0,-1.0,-1.0,1651025888429780.0,0
204,1.0,5.0,-5.0,-5.0,-1.0,-4.0,-1.0,0.0,1651025888430715.0,0
205,1.0,5.0,1.0,2.0,-1.0,-2.0,-1.0,0.0,1651025888430715.0,0
206,1.0,4.0,3.0,6.0,4.0,0.0,-1.0,0.0,1651025888443680.0,0
207,-1.0,-1.0,-2.0,1.0,0.0,-1.0,0.0,-1.0,1651025888443680.0,0
208,1.0,-7.0,0.0,-1.0,-1.0,0.0,-1.0,-1.0,1651025888451721.0,0
209,-3.0,-2.0,0.0,-1.0,-1.0,-1.0,-1.0,1.0,1651025888451721.0,0
210,0.0,6.0,-2.0,-3.0,0.0,-1.0,0.0,-2.0,1651025888466887.0,0
211,-2.0,-4.0,-3.0,-5.0,-3.0,-1.0,0.0,0.0,1651025888466887.0,0
212,0.0,-1.0,5.0,1.0,-1.0,0.0,-2.0,0.0,1651025888466887.0,0
213,1.0,-3.0,5.0,7.0,4.0,2.0,1.0,1.0,1651025888466887.0,0
214,-2.0,3.0,-1.0,-1.0,0.0,-2.0,-3.0,-2.0,1651025888490041.0,0
215,-4.0,-11.0,-6.0,-1.0,-5.0,-1.0,1.0,0.0,1651025888490041.0,0
216,1.0,-4.0,-6.0,-6.0,-3.0,-2.0,0.0,-2.0,1651025888490041.0,0
217,-3.0,-12.0,-9.0,-6.0,-2.0,0.0,0.0,0.0,1651025888490041.0,0
218,3.0,6.0,0.0,-1.0,-2.0,0.0,0.0,0.0,1651025888503515.0,0
219,0.0,4.0,7.0,0.0,2.0,0.0,2.0,2.0,1651025888503515.0,0
220,-2.0,1.0,0.0,-2.0,-9.0,-1.0,-2.0,-1.0,1651025888511265.0,0
221,4.0,4.0,5.0,8.0,9.0,2.0,0.0,1.0,1651025888511265.0,0
222,0.0,-4.0,2.0,-1.0,8.0,0.0,-1.0,-2.0,1651025888526227.0,0
223,-4.0,1.0,-2.0,0.0,-5.0,0.0,-1.0,-1.0,1651025888526227.0,0
224,0.0,2.0,0.0,4.0,6.0,1.0,-1.0,0.0,1651025888527154.0,0
225,-1.0,1.0,-2.0,-4.0,-6.0,-2.0,-1.0,0.0,1651025888527154.0,0
226,0.0,-1.0,-1.0,0.0,-3.0,0.0,0.0,0.0,1651025888550092.0,0
227,0.0,2.0,4.0,-2.0,1.0,-1.0,-1.0,1.0,1651025888550092.0,0
228,-1.0,-3.0,-3.0,1.0,0.0,0.0,0.0,-2.0,1651025888550092.0,0
229,-2.0,-4.0,-6.0,-5.0,-4.0,-2.0,-3.0,-1.0,1651025888550092.0,0
230,-1.0,0.0,1.0,6.0,0.0,-1.0,0.0,1.0,1651025888563527.0,0
231,-1.0,-3.0,-5.0,0.0,-2.0,0.0,-1.0,-1.0,1651025888563527.0,0
232,-2.0,-4.0,4.0,0.0,-3.0,-1.0,1.0,0.0,1651025888571213.0,0
233,1.0,7.0,-2.0,-1.0,0.0,-1.0,-1.0,0.0,1651025888571213.0,0
234,-1.0,-8.0,3.0,4.0,5.0,-1.0,-1.0,-1.0,1651025888586169.0,0
235,1.0,0.0,-7.0,-2.0,-2.0,-1.0,0.0,-1.0,1651025888586169.0,0
236,1.0,2.0,-2.0,-6.0,-3.0,-2.0,0.0,0.0,1651025888587101.0,0
237,-3.0,0.0,-1.0,-3.0,2.0,-2.0,-2.0,-1.0,1651025888587101.0,0
238,0.0,-3.0,11.0,-1.0,-3.0,-1.0,-2.0,0.0,1651025888610040.0,0
239,3.0,1.0,-7.0,4.0,-7.0,1.0,0.0,1.0,1651025888610040.0,0
240,1.0,12.0,2.0,-1.0,14.0,0.0,-3.0,-3.0,1651025888610040.0,0
241,-1.0,-8.0,1.0,5.0,-2.0,-1.0,0.0,-2.0,1651025888610040.0,0
242,-3.0,3.0,-1.0,-1.0,-6.0,-1.0,0.0,0.0,1651025888623019.0,0
243,1.0,-1.0,7.0,-5.0,1.0,-1.0,1.0,0.0,1651025888623019.0,0
244,-2.0,-7.0,-7.0,0.0,-6.0,0.0,1.0,2.0,1651025888631105.0,0
245,0.0,1.0,6.0,-2.0,-2.0,-1.0,0.0,0.0,1651025888631105.0,0
246,0.0,1.0,-4.0,-5.0,1.0,1.0,0.0,0.0,1651025888646836.0,0
247,-3.0,-2.0,-2.0,7.0,-4.0,-2.0,-2.0,-1.0,1651025888646836.0,0
248,0.0,-2.0,-2.0,-3.0,3.0,-1.0,0.0,0.0,1651025888646836.0,0
249,1.0,11.0,3.0,0.0,2.0,0.0,-1.0,-2.0,1651025888646836.0,0
250,-1.0,-23.0,-13.0,-2.0,-9.0,-3.0,-1.0,-1.0,1651025888669959.0,0
251,-1.0,4.0,-1.0,-4.0,8.0,7.0,-1.0,1.0,1651025888669959.0,0
252,0.0,2.0,5.0,8.0,16.0,4.0,-1.0,0.0,1651025888670889.0,0
253,-2.0,-4.0,-4.0,0.0,-4.0,1.0,0.0,1.0,1651025888670889.0,0
254,1.0,9.0,5.0,-6.0,-5.0,-4.0,-2.0,0.0,1651025888682921.0,0
255,-2.0,-3.0,-3.0,0.0,-8.0,-6.0,-2.0,-3.0,1651025888682921.0,0
256,0.0,-2.0,4.0,7.0,1.0,2.0,1.0,0.0,1651025888691890.0,0
257,-2.0,-6.0,-14.0,-11.0,0.0,0.0,0.0,-2.0,1651025888691890.0,0
258,-1.0,-3.0,-7.0,-3.0,1.0,3.0,0.0,-1.0,1651025888705992.0,0
259,-1.0,-4.0,-1.0,-1.0,2.0,-3.0,-1.0,1.0,1651025888705992.0,0
260,1.0,7.0,3.0,5.0,2.0,2.0,1.0,0.0,1651025888706920.0,0
261,-3.0,-4.0,16.0,-1.0,-7.0,-6.0,-2.0,-4.0,1651025888706920.0,0
262,-1.0,-6.0,-18.0,-3.0,-3.0,1.0,-1.0,0.0,1651025888729933.0,0
263,1.0,4.0,-2.0,-2.0,7.0,4.0,0.0,1.0,1651025888729933.0,0
264,-4.0,-7.0,-6.0,-14.0,-10.0,-3.0,-2.0,-2.0,1651025888729933.0,0
265,4.0,10.0,3.0,8.0,1.0,0.0,-1.0,1.0,1651025888729933.0,0
266,0.0,7.0,12.0,4.0,8.0,3.0,2.0,4.0,1651025888751950.0,0
267,2.0,-1.0,-4.0,-11.0,-21.0,-7.0,-1.0,1.0,1651025888751950.0,0
268,-9.0,-7.0,26.0,-3.0,0.0,-5.0,-6.0,-6.0,1651025888752935.0,0
269,1.0,5.0,16.0,10.0,15.0,4.0,2.0,3.0,1651025888752935.0,0
270,1.0,0.0,-32.0,-16.0,-2.0,1.0,3.0,1.0,1651025888766911.0,0
271,5.0,14.0,15.0,8.0,5.0,1.0,3.0,3.0,1651025888766911.0,0
272,-2.0,-4.0,-18.0,-24.0,-19.0,-5.0,-4.0,-6.0,1651025888766911.0,0
273,-4.0,-1.0,41.0,45.0,14.0,2.0,-4.0,-5.0,1651025888766911.0,0
274,19.0,8.0,15.0,-11.0,-2.0,1.0,5.0,11.0,1651025888789907.0,1
275,-8.0,5.0,0.0,-1.0,4.0,5.0,8.0,6.0,1651025888789907.0,1
276,-26.0,-18.0,-38.0,-17.0,-11.0,-6.0,-9.0,-15.0,1651025888790836.0,1
277,11.0,9.0,18.0,19.0,8.0,9.0,7.0,0.0,1651025888790836.0,1
278,-17.0,0.0,-14.0,-11.0,2.0,-4.0,-4.0,-4.0,1651025888812574.0,1
279,11.0,-8.0,36.0,-10.0,-9.0,-11.0,-14.0,2.0,1651025888812574.0,1
280,31.0,5.0,-13.0,12.0,4.0,5.0,18.0,13.0,1651025888812574.0,1
281,-8.0,-1.0,1.0,37.0,18.0,-10.0,-12.0,3.0,1651025888812574.0,1
282,-7.0,-24.0,-13.0,-19.0,-17.0,8.0,7.0,-7.0,1651025888826726.0,1
283,18.0,30.0,21.0,-6.0,-5.0,4.0,20.0,0.0,1651025888826726.0,1
284,-29.0,16.0,17.0,-17.0,5.0,27.0,16.0,11.0,1651025888826726.0,1
285,9.0,-20.0,-47.0,-79.0,-43.0,-25.0,-67.0,-31.0,1651025888826726.0,1
286,-76.0,-10.0,34.0,95.0,49.0,2.0,55.0,10.0,1651025888848697.0,1
287,37.0,-26.0,-31.0,-20.0,3.0,-16.0,-104.0,-32.0,1651025888848697.0,1
288,-28.0,5.0,21.0,69.0,20.0,-2.0,90.0,-3.0,1651025888849667.0,1
289,13.0,22.0,-11.0,-35.0,-7.0,38.0,79.0,60.0,1651025888849667.0,1
290,89.0,12.0,-19.0,-97.0,-80.0,-84.0,-121.0,-52.0,1651025888879758.0,1
291,-24.0,0.0,4.0,74.0,31.0,-33.0,0.0,-7.0,1651025888879758.0,1
292,-4.0,-13.0,-33.0,-51.0,-16.0,33.0,-8.0,-10.0,1651025888880714.0,1
293,28.0,27.0,4.0,37.0,14.0,-60.0,44.0,25.0,1651025888880714.0,1
294,-49.0,-13.0,-13.0,-44.0,25.0,127.0,72.0,23.0,1651025888886699.0,1
295,21.0,-9.0,8.0,0.0,-10.0,8.0,33.0,2.0,1651025888886699.0,1
296,-20.0,6.0,10.0,-17.0,-11.0,-20.0,-98.0,-39.0,1651025888886699.0,1
297,6.0,-17.0,-5.0,4.0,-1.0,-2.0,61.0,29.0,1651025888886699.0,1
298,36.0,12.0,-29.0,-67.0,-40.0,-59.0,32.0,33.0,1651025888908680.0,1
299,-93.0,-3.0,4.0,33.0,13.0,5.0,-59.0,-46.0,1651025888908680.0,1
300,82.0,-14.0,3.0,-2.0,-1.0,-6.0,43.0,48.0,1651025888909610.0,1
301,-39.0,-17.0,-56.0,-64.0,-26.0,7.0,-11.0,-31.0,1651025888909610.0,1
302,25.0,18.0,55.0,84.0,38.0,18.0,43.0,12.0,1651025888931578.0,1
303,-21.0,-25.0,-19.0,-21.0,-2.0,-9.0,-73.0,-9.0,1651025888931578.0,1
304,7.0,0.0,-12.0,-57.0,-30.0,-38.0,-22.0,-4.0,1651025888932569.0,1
305,-6.0,15.0,48.0,101.0,36.0,32.0,2.0,2.0,1651025888932569.0,1
306,10.0,-10.0,-28.0,-9.0,-13.0,-10.0,-16.0,-16.0,1651025888946534.0,1
307,2.0,9.0,-14.0,-39.0,-22.0,-3.0,69.0,26.0,1651025888946534.0,1
308,-8.0,5.0,5.0,15.0,6.0,2.0,-21.0,1.0,1651025888947522.0,1
309,22.0,-10.0,-5.0,-51.0,-13.0,-11.0,-5.0,-7.0,1651025888947522.0,1
310,-26.0,15.0,9.0,27.0,11.0,5.0,-2.0,-9.0,1651025888968535.0,1
311,-3.0,-9.0,-4.0,8.0,2.0,11.0,17.0,16.0,1651025888968535.0,1
312,30.0,4.0,-1.0,0.0,-3.0,-25.0,-57.0,-5.0,1651025888969528.0,1
313,-27.0,-1.0,11.0,18.0,18.0,42.0,1.0,-8.0,1651025888969528.0,1
314,7.0,11.0,13.0,20.0,8.0,-26.0,-26.0,10.0,1651025888991946.0,1
315,30.0,1.0,2.0,13.0,3.0,2.0,28.0,7.0,1651025888991946.0,1
316,-6.0,-12.0,-28.0,-50.0,-10.0,-9.0,37.0,11.0,1651025888992939.0,1
317,-44.0,-9.0,13.0,43.0,3.0,-14.0,-7.0,-11.0,1651025888992939.0,1
318,32.0,14.0,47.0,102.0,24.0,16.0,-50.0,-10.0,1651025889006585.0,1
319,2.0,-18.0,-31.0,-53.0,-21.0,-10.0,40.0,12.0,1651025889006585.0,1
320,-12.0,13.0,18.0,43.0,13.0,-3.0,-20.0,-12.0,1651025889007513.0,1
321,-20.0,-17.0,-23.0,-38.0,-11.0,-1.0,-16.0,-22.0,1651025889007513.0,1
322,1.0,-24.0,-35.0,-78.0,-30.0,-14.0,-32.0,-2.0,1651025889028525.0,1
323,-27.0,16.0,25.0,65.0,27.0,15.0,55.0,19.0,1651025889028525.0,1
324,-28.0,-3.0,-3.0,18.0,-5.0,-32.0,-53.0,-30.0,1651025889029455.0,1
325,-6.0,4.0,-6.0,-41.0,-20.0,-32.0,-6.0,-11.0,1651025889029455.0,1
326,-7.0,-18.0,-11.0,-8.0,-1.0,12.0,-5.0,-9.0,1651025889051941.0,1
327,-13.0,-5.0,-1.0,-7.0,-3.0,-25.0,-11.0,-4.0,1651025889051941.0,1
328,22.0,14.0,11.0,-15.0,1.0,71.0,35.0,12.0,1651025889052936.0,1
329,28.0,-5.0,-5.0,20.0,16.0,13.0,17.0,19.0,1651025889052936.0,1
330,-10.0,6.0,6.0,21.0,-2.0,-14.0,9.0,-5.0,1651025889066015.0,1
331,18.0,-8.0,-28.0,-36.0,-6.0,-14.0,28.0,6.0,1651025889066015.0,1
332,-4.0,0.0,6.0,15.0,1.0,-26.0,-50.0,-10.0,1651025889067016.0,1
333,-6.0,-7.0,9.0,10.0,-2.0,-4.0,-38.0,-16.0,1651025889067016.0,1
334,20.0,11.0,-3.0,-61.0,-15.0,-9.0,12.0,13.0,1651025889088997.0,1
335,3.0,8.0,35.0,67.0,38.0,38.0,17.0,6.0,1651025889088997.0,1
336,13.0,-13.0,-39.0,-58.0,-30.0,-6.0,45.0,12.0,1651025889089943.0,1
337,25.0,-9.0,17.0,27.0,17.0,12.0,-20.0,3.0,1651025889089943.0,1
338,-67.0,-2.0,4.0,12.0,18.0,1.0,-20.0,-35.0,1651025889111937.0,1
339,33.0,13.0,2.0,-21.0,-14.0,-8.0,-1.0,12.0,1651025889111937.0,1
340,2.0,4.0,4.0,17.0,11.0,1.0,-5.0,3.0,1651025889112870.0,1
341,9.0,-4.0,-35.0,-51.0,-26.0,5.0,28.0,12.0,1651025889112870.0,1
342,-37.0,-9.0,-7.0,-17.0,-5.0,-9.0,-32.0,-16.0,1651025889126867.0,1
343,19.0,-7.0,-14.0,-17.0,-10.0,-12.0,-33.0,-17.0,1651025889126867.0,1
344,-10.0,3.0,20.0,34.0,20.0,42.0,36.0,14.0,1651025889126867.0,1
345,5.0,-10.0,-54.0,-78.0,-17.0,-23.0,-19.0,-2.0,1651025889126867.0,1
346,-19.0,-3.0,30.0,61.0,9.0,-6.0,61.0,10.0,1651025889148964.0,1
347,28.0,-3.0,-8.0,-15.0,-11.0,12.0,-57.0,-16.0,1651025889148964.0,1
348,-18.0,2.0,5.0,3.0,-3.0,-24.0,7.0,11.0,1651025889149920.0,1
349,14.0,14.0,38.0,50.0,23.0,14.0,1.0,-2.0,1651025889149920.0,1
350,26.0,-11.0,-29.0,-27.0,5.0,26.0,12.0,9.0,1651025889171957.0,1
351,-43.0,-11.0,-8.0,10.0,7.0,-4.0,12.0,-2.0,1651025889171957.0,1
352,20.0,6.0,28.0,5.0,1.0,3.0,16.0,5.0,1651025889172887.0,1
353,-25.0,-9.0,0.0,6.0,-9.0,-5.0,-29.0,-26.0,1651025889172887.0,1
354,-50.0,6.0,8.0,-3.0,-5.0,-2.0,0.0,-18.0,1651025889186870.0,1
355,14.0,10.0,5.0,-2.0,5.0,20.0,50.0,25.0,1651025889186870.0,1
356,-10.0,-24.0,-18.0,-22.0,-9.0,-27.0,-57.0,-22.0,1651025889186870.0,1
357,5.0,20.0,2.0,1.0,-2.0,-5.0,13.0,11.0,1651025889186870.0,1
358,1.0,-14.0,-8.0,9.0,-7.0,11.0,-7.0,7.0,1651025889208961.0,1
359,7.0,17.0,9.0,-35.0,-16.0,-45.0,-53.0,-27.0,1651025889208961.0,1
360,-27.0,-20.0,-26.0,-14.0,11.0,34.0,37.0,-3.0,1651025889209921.0,1
361,36.0,-5.0,34.0,65.0,27.0,34.0,27.0,22.0,1651025889209921.0,1
362,22.0,20.0,-17.0,-9.0,0.0,-10.0,25.0,18.0,1651025889231956.0,1
363,-5.0,0.0,17.0,18.0,-5.0,45.0,28.0,8.0,1651025889231956.0,1
364,13.0,-2.0,-4.0,7.0,-9.0,-48.0,-70.0,-12.0,1651025889232886.0,1
365,-5.0,-2.0,-13.0,-33.0,1.0,-18.0,-10.0,-7.0,1651025889232886.0,1
366,57.0,-3.0,-9.0,-4.0,2.0,4.0,-6.0,24.0,1651025889246088.0,1
367,-10.0,16.0,11.0,28.0,11.0,3.0,28.0,4.0,1651025889246088.0,1
368,17.0,15.0,1.0,22.0,12.0,17.0,24.0,7.0,1651025889247089.0,1
369,-26.0,-7.0,-8.0,-8.0,-19.0,-8.0,16.0,-3.0,1651025889247089.0,1
370,-19.0,-9.0,1.0,-7.0,-5.0,-10.0,-19.0,-15.0,1651025889268953.0,1
371,-25.0,-9.0,-31.0,-73.0,-22.0,-8.0,1.0,-3.0,1651025889268953.0,1
372,13.0,4.0,16.0,26.0,16.0,-4.0,20.0,10.0,1651025889269977.0,1
373,-6.0,15.0,19.0,31.0,13.0,12.0,-14.0,-4.0,1651025889269977.0,1
374,8.0,-4.0,7.0,1.0,11.0,17.0,9.0,1.0,1651025889291957.0,1
375,-63.0,-20.0,-19.0,-19.0,-16.0,-5.0,-35.0,-23.0,1651025889291957.0,1
376,31.0,7.0,15.0,26.0,16.0,39.0,73.0,21.0,1651025889292927.0,1
377,5.0,16.0,-14.0,-47.0,-36.0,-64.0,-78.0,-22.0,1651025889292927.0,1
378,15.0,-14.0,20.0,47.0,31.0,11.0,-19.0,-8.0,1651025889306913.0,1
379,49.0,-4.0,-3.0,18.0,7.0,2.0,15.0,21.0,1651025889306913.0,1
380,-11.0,16.0,19.0,15.0,-6.0,5.0,-20.0,-15.0,1651025889306913.0,1
381,-24.0,0.0,-28.0,-54.0,-20.0,-18.0,26.0,0.0,1651025889306913.0,1
382,-5.0,6.0,51.0,93.0,25.0,12.0,10.0,2.0,1651025889328927.0,1
383,-8.0,-28.0,-24.0,-18.0,5.0,6.0,-27.0,-4.0,1651025889328927.0,1
384,2.0,6.0,-8.0,-51.0,-19.0,-15.0,61.0,5.0,1651025889329862.0,1
385,55.0,16.0,31.0,81.0,32.0,32.0,-41.0,9.0,1651025889329862.0,1
386,-14.0,-6.0,-23.0,-55.0,-29.0,-30.0,-62.0,-15.0,1651025889351830.0,1
387,18.0,21.0,12.0,9.0,4.0,9.0,29.0,5.0,1651025889351830.0,1
388,-16.0,-6.0,22.0,18.0,0.0,-25.0,-22.0,-1.0,1651025889352805.0,1
389,-1.0,3.0,-16.0,-33.0,-12.0,-10.0,30.0,12.0,1651025889352805.0,1
390,27.0,-12.0,-48.0,-112.0,-39.0,-20.0,-14.0,-8.0,1651025889366210.0,1
391,13.0,13.0,72.0,108.0,62.0,59.0,23.0,7.0,1651025889366210.0,1
392,-21.0,11.0,-13.0,-8.0,9.0,9.0,-3.0,6.0,1651025889374195.0,1
393,-2.0,-22.0,-25.0,-63.0,-15.0,15.0,11.0,5.0,1651025889374195.0,1
394,-25.0,19.0,31.0,69.0,12.0,-34.0,10.0,-6.0,1651025889389437.0,1
395,5.0,-17.0,-37.0,-99.0,-42.0,-40.0,-27.0,-4.0,1651025889389437.0,1
396,4.0,-7.0,24.0,43.0,13.0,7.0,-39.0,-1.0,1651025889390393.0,1
397,-31.0,14.0,-13.0,-7.0,3.0,4.0,2.0,-2.0,1651025889390393.0,1
398,22.0,1.0,-2.0,-1.0,2.0,14.0,37.0,10.0,1651025889412379.0,1
399,-7.0,5.0,12.0,14.0,-4.0,-4.0,-21.0,-9.0,1651025889412379.0,1
400,-1.0,-5.0,-26.0,2.0,-9.0,-15.0,0.0,0.0,1651025889412379.0,1
401,3.0,0.0,19.0,-17.0,-2.0,9.0,-9.0,-2.0,1651025889412379.0,1
402,-27.0,-17.0,-55.0,-74.0,-20.0,6.0,22.0,-15.0,1651025889434489.0,1
403,3.0,12.0,64.0,100.0,37.0,4.0,27.0,19.0,1651025889434489.0,1
404,-16.0,-8.0,1.0,-29.0,-3.0,-2.0,-4.0,-5.0,1651025889435419.0,1
405,3.0,-17.0,-18.0,-12.0,-15.0,-12.0,-30.0,-9.0,1651025889435419.0,1
406,13.0,13.0,1.0,0.0,5.0,-8.0,-19.0,2.0,1651025889448996.0,1
407,-13.0,-4.0,-24.0,-37.0,-14.0,-4.0,18.0,1.0,1651025889448996.0,1
408,-50.0,-6.0,-3.0,2.0,-9.0,-26.0,10.0,-5.0,1651025889449930.0,1
409,43.0,9.0,19.0,14.0,17.0,75.0,-18.0,1.0,1651025889449930.0,1
410,8.0,-4.0,7.0,26.0,6.0,1.0,-12.0,0.0,1651025889472062.0,1
411,23.0,7.0,-7.0,-18.0,-15.0,-26.0,-2.0,-11.0,1651025889472062.0,1
412,-31.0,-20.0,-9.0,-1.0,7.0,20.0,34.0,5.0,1651025889472999.0,1
413,-18.0,2.0,1.0,15.0,4.0,-22.0,-11.0,-6.0,1651025889472999.0,1
414,35.0,13.0,5.0,-42.0,-12.0,-8.0,-8.0,8.0,1651025889485958.0,1
415,-14.0,2.0,-24.0,-44.0,-14.0,11.0,9.0,8.0,1651025889485958.0,1
416,-5.0,8.0,-8.0,-16.0,0.0,9.0,22.0,-8.0,1651025889493575.0,1
417,44.0,12.0,25.0,48.0,18.0,-12.0,-10.0,15.0,1651025889493575.0,1
418,-27.0,-33.0,-26.0,9.0,6.0,9.0,-7.0,-18.0,1651025889508960.0,1
419,-11.0,10.0,3.0,6.0,-6.0,-9.0,-8.0,-7.0,1651025889508960.0,1
420,29.0,-7.0,3.0,3.0,6.0,1.0,-15.0,7.0,1651025889509891.0,1
421,-44.0,-10.0,-22.0,-42.0,-18.0,-25.0,2.0,-15.0,1651025889509891.0,1
422,-20.0,9.0,11.0,16.0,10.0,33.0,45.0,20.0,1651025889531585.0,1
423,30.0,4.0,-7.0,-22.0,-9.0,-13.0,-23.0,1.0,1651025889531585.0,1
424,6.0,3.0,9.0,21.0,3.0,-4.0,-55.0,-13.0,1651025889539165.0,1
425,-15.0,-1.0,-15.0,-67.0,-15.0,5.0,14.0,-5.0,1651025889539165.0,1
426,10.0,9.0,59.0,91.0,46.0,-2.0,12.0,8.0,1651025889546146.0,1
427,-67.0,-17.0,-35.0,-28.0,-7.0,10.0,8.0,-4.0,1651025889546146.0,1
428,54.0,-7.0,-21.0,-59.0,-20.0,-1.0,-13.0,-12.0,1651025889554125.0,1
429,-10.0,-5.0,17.0,47.0,10.0,1.0,8.0,4.0,1651025889554125.0,1
430,6.0,-4.0,-24.0,-39.0,-16.0,-19.0,-36.0,-6.0,1651025889568960.0,1
431,-21.0,-20.0,3.0,-11.0,-3.0,0.0,-18.0,-15.0,1651025889568960.0,1
432,23.0,10.0,-17.0,-17.0,-9.0,-2.0,36.0,15.0,1651025889569931.0,1
433,-13.0,9.0,-3.0,-23.0,-10.0,-6.0,-21.0,-3.0,1651025889569931.0,1
434,-13.0,-10.0,20.0,26.0,7.0,0.0,-14.0,-14.0,1651025889592108.0,1
435,14.0,-6.0,-24.0,-25.0,-7.0,-1.0,28.0,11.0,1651025889592108.0,1
436,-20.0,6.0,-2.0,5.0,-5.0,3.0,-7.0,-3.0,1651025889593108.0,1
437,0.0,-45.0,0.0,30.0,-2.0,-18.0,-13.0,-14.0,1651025889593108.0,1
438,5.0,28.0,-24.0,-45.0,-13.0,7.0,19.0,20.0,1651025889606101.0,1
439,13.0,2.0,33.0,52.0,19.0,-10.0,-33.0,-3.0,1651025889606101.0,1
440,27.0,12.0,-11.0,-10.0,5.0,14.0,44.0,7.0,1651025889614093.0,1
441,-42.0,-12.0,-19.0,-6.0,-5.0,4.0,-14.0,-5.0,1651025889614093.0,1
442,1.0,9.0,35.0,38.0,32.0,21.0,33.0,6.0,1651025889629124.0,1
443,20.0,2.0,-15.0,-33.0,-24.0,-24.0,-24.0,-10.0,1651025889629124.0,1
444,-1.0,8.0,8.0,8.0,8.0,-1.0,-13.0,1.0,1651025889630053.0,1
445,-2.0,4.0,0.0,-6.0,-7.0,6.0,29.0,-3.0,1651025889630053.0,1
446,17.0,-7.0,-6.0,-17.0,-18.0,2.0,-18.0,-12.0,1651025889652144.0,1
447,17.0,2.0,1.0,34.0,9.0,-7.0,-33.0,1.0,1651025889652144.0,1
448,-29.0,-1.0,-19.0,-25.0,-5.0,8.0,7.0,5.0,1651025889653084.0,1
449,-15.0,-7.0,12.0,26.0,10.0,-4.0,13.0,-10.0,1651025889653084.0,1
450,-2.0,-4.0,-9.0,-26.0,-25.0,-7.0,8.0,13.0,1651025889674253.0,1
451,4.0,10.0,8.0,5.0,7.0,-20.0,0.0,-2.0,1651025889674253.0,1
452,-5.0,-17.0,-8.0,-21.0,-14.0,30.0,-23.0,-14.0,1651025889675254.0,1
453,4.0,14.0,12.0,24.0,34.0,32.0,70.0,39.0,1651025889675254.0,1
454,-27.0,-2.0,1.0,-1.0,1.0,13.0,10.0,-22.0,1651025889689284.0,1
455,0.0,-6.0,-19.0,-27.0,-6.0,-8.0,-62.0,-15.0,1651025889689284.0,1
456,-39.0,2.0,15.0,14.0,9.0,-2.0,16.0,3.0,1651025889689284.0,1
457,53.0,-2.0,-21.0,-44.0,-28.0,-25.0,-20.0,3.0,1651025889689284.0,1
458,-13.0,0.0,35.0,40.0,4.0,-9.0,21.0,6.0,1651025889712424.0,1
459,9.0,-2.0,-5.0,-9.0,7.0,11.0,-19.0,-4.0,1651025889712424.0,1
460,-12.0,-4.0,-3.0,-1.0,16.0,5.0,19.0,4.0,1651025889713395.0,1
461,-1.0,5.0,-1.0,-2.0,-6.0,0.0,5.0,-2.0,1651025889713395.0,1
462,11.0,13.0,-23.0,-44.0,-18.0,-19.0,-15.0,3.0,1651025889734583.0,1
463,-31.0,-14.0,5.0,-18.0,-22.0,-1.0,36.0,-3.0,1651025889734583.0,1
464,12.0,5.0,8.0,24.0,17.0,-2.0,-24.0,-2.0,1651025889735512.0,1
465,20.0,4.0,24.0,26.0,14.0,-7.0,9.0,4.0,1651025889735512.0,1
466,-4.0,-12.0,-29.0,-16.0,-18.0,-74.0,-48.0,-11.0,1651025889749483.0,1
467,-4.0,11.0,-14.0,-33.0,8.0,106.0,70.0,17.0,1651025889749483.0,1
468,19.0,-3.0,21.0,34.0,-12.0,-39.0,14.0,-4.0,1651025889749483.0,1
469,5.0,8.0,-7.0,-33.0,2.0,50.0,-46.0,15.0,1651025889749483.0,1
470,-16.0,-8.0,-3.0,11.0,1.0,-13.0,14.0,-20.0,1651025889772235.0,1
471,-6.0,4.0,25.0,42.0,2.0,-38.0,-10.0,-2.0,1651025889772235.0,1
472,1.0,-4.0,-13.0,-35.0,0.0,-8.0,-10.0,7.0,1651025889772509.0,1
473,-38.0,5.0,7.0,43.0,10.0,-4.0,13.0,-21.0,1651025889772509.0,1
474,16.0,-8.0,-32.0,-70.0,-17.0,19.0,2.0,17.0,1651025889794938.0,1
475,-3.0,-5.0,13.0,30.0,8.0,6.0,3.0,6.0,1651025889794938.0,1
476,-13.0,11.0,17.0,11.0,-1.0,-5.0,-16.0,-14.0,1651025889794938.0,1
477,-3.0,-4.0,-22.0,-11.0,-2.0,-14.0,7.0,-8.0,1651025889794938.0,1
478,6.0,10.0,15.0,31.0,10.0,12.0,2.0,12.0,1651025889817504.0,1
479,5.0,8.0,-11.0,-28.0,-11.0,-22.0,-4.0,-6.0,1651025889817504.0,1
480,18.0,-1.0,5.0,4.0,-2.0,-5.0,-22.0,4.0,1651025889817892.0,1
481,-4.0,-8.0,12.0,12.0,0.0,6.0,8.0,-9.0,1651025889817892.0,1
482,15.0,10.0,-13.0,-9.0,5.0,25.0,0.0,13.0,1651025889831977.0,1
483,4.0,-11.0,12.0,6.0,3.0,0.0,16.0,6.0,1651025889831977.0,1
484,-2.0,1.0,8.0,38.0,0.0,-28.0,-5.0,-2.0,1651025889832937.0,1
485,-4.0,-7.0,-8.0,-18.0,1.0,33.0,-2.0,-7.0,1651025889832937.0,1
486,-4.0,17.0,24.0,22.0,13.0,12.0,14.0,0.0,1651025889854910.0,1
487,1.0,0.0,-29.0,-31.0,-2.0,-12.0,-13.0,-6.0,1651025889854910.0,1
488,0.0,2.0,30.0,48.0,11.0,-2.0,-1.0,6.0,1651025889854910.0,1
489,6.0,-6.0,-11.0,-3.0,-8.0,-20.0,-2.0,-2.0,1651025889854910.0,1
490,-4.0,-8.0,2.0,2.0,-1.0,0.0,-2.0,0.0,1651025889868910.0,1
491,3.0,4.0,4.0,6.0,2.0,-15.0,7.0,3.0,1651025889868910.0,1
492,4.0,-6.0,-19.0,-21.0,-5.0,18.0,0.0,-4.0,1651025889869842.0,1
493,3.0,4.0,11.0,5.0,4.0,-12.0,-4.0,2.0,1651025889869842.0,1
494,-4.0,-10.0,-1.0,0.0,-6.0,11.0,2.0,-2.0,1651025889891951.0,1
495,2.0,0.0,-3.0,-6.0,-14.0,-48.0,-2.0,0.0,1651025889891951.0,1
496,-2.0,-4.0,-2.0,-5.0,-3.0,10.0,-19.0,-9.0,1651025889892882.0,1
497,-1.0,2.0,0.0,-2.0,-3.0,-1.0,11.0,0.0,1651025889892882.0,1
498,1.0,-4.0,4.0,0.0,12.0,29.0,-1.0,4.0,1651025889915131.0,1
499,1.0,-4.0,-15.0,4.0,4.0,15.0,3.0,-4.0,1651025889915131.0,1
500,0.0,4.0,8.0,-9.0,-14.0,-1.0,-2.0,0.0,1651025889915131.0,1
501,1.0,-6.0,-8.0,-3.0,6.0,-22.0,1.0,5.0,1651025889915131.0,1
502,-2.0,4.0,8.0,1.0,4.0,-22.0,-13.0,-5.0,1651025889929131.0,1
503,1.0,4.0,4.0,9.0,2.0,12.0,1.0,-2.0,1651025889929131.0,1
504,1.0,-4.0,-6.0,-4.0,-1.0,9.0,3.0,0.0,1651025889930084.0,1
505,1.0,2.0,23.0,-2.0,-9.0,-2.0,-2.0,1.0,1651025889930084.0,1
506,-1.0,-4.0,-26.0,9.0,3.0,1.0,1.0,2.0,1651025889951996.0,1
507,-2.0,-2.0,-3.0,-9.0,1.0,4.0,1.0,-2.0,1651025889951996.0,1
508,-3.0,-1.0,-1.0,-15.0,-7.0,-15.0,-3.0,-1.0,1651025889952926.0,1
509,2.0,-1.0,1.0,-3.0,1.0,13.0,3.0,2.0,1651025889952926.0,1
510,-2.0,3.0,6.0,5.0,-5.0,-9.0,-6.0,-1.0,1651025889974230.0,1
511,3.0,7.0,11.0,9.0,-2.0,15.0,8.0,3.0,1651025889974230.0,1
512,-3.0,-11.0,-16.0,-6.0,24.0,0.0,-5.0,-1.0,1651025889975239.0,1
513,7.0,13.0,9.0,5.0,-4.0,-13.0,5.0,7.0,1651025889975239.0,1
514,-5.0,-5.0,5.0,9.0,3.0,10.0,-7.0,-10.0,1651025889989255.0,1
515,-2.0,-10.0,-11.0,-13.0,-7.0,-3.0,-4.0,-4.0,1651025889989255.0,1
516,0.0,-15.0,-14.0,-7.0,-9.0,6.0,3.0,3.0,1651025889989255.0,1
517,-2.0,14.0,0.0,1.0,-13.0,-14.0,-5.0,-7.0,1651025889989255.0,1
518,-7.0,-17.0,1.0,1.0,15.0,9.0,5.0,2.0,1651025890011947.0,1
519,-2.0,10.0,11.0,4.0,2.0,4.0,0.0,-2.0,1651025890011947.0,1
520,-2.0,-12.0,-23.0,-13.0,-8.0,-2.0,-4.0,-6.0,1651025890012942.0,1
521,4.0,1.0,-4.0,1.0,0.0,-1.0,4.0,6.0,1651025890012942.0,1
522,0.0,0.0,8.0,0.0,-12.0,-11.0,0.0,1.0,1651025890035013.0,1
523,14.0,51.0,18.0,6.0,2.0,5.0,-4.0,-11.0,1651025890035013.0,1
524,-4.0,-28.0,-1.0,3.0,5.0,1.0,2.0,5.0,1651025890035013.0,1
525,-2.0,-27.0,-8.0,-1.0,-1.0,-3.0,0.0,0.0,1651025890035013.0,1
526,-3.0,24.0,11.0,-7.0,-26.0,-12.0,-5.0,-10.0,1651025890057476.0,1
527,-16.0,-25.0,-15.0,-1.0,23.0,16.0,12.0,6.0,1651025890057476.0,1
528,5.0,24.0,7.0,6.0,3.0,-1.0,-6.0,2.0,1651025890057869.0,1
529,7.0,35.0,21.0,13.0,20.0,5.0,-3.0,-20.0,1651025890057869.0,1
530,-7.0,-41.0,-23.0,0.0,11.0,11.0,3.0,4.0,1651025890071834.0,1
531,2.0,-36.0,-17.0,-6.0,-21.0,-8.0,-1.0,4.0,1651025890071834.0,1
532,-4.0,20.0,-9.0,-15.0,-19.0,-6.0,2.0,7.0,1651025890072831.0,1
533,7.0,8.0,10.0,-1.0,-4.0,-5.0,-7.0,3.0,1651025890072831.0,1
534,8.0,46.0,23.0,2.0,10.0,-3.0,-4.0,-2.0,1651025890094800.0,1
535,-3.0,-3.0,-2.0,1.0,-6.0,-3.0,-5.0,-1.0,1651025890094800.0,1
536,12.0,-2.0,14.0,10.0,7.0,6.0,5.0,11.0,1651025890095784.0,1
537,-17.0,-25.0,-8.0,0.0,3.0,4.0,4.0,4.0,1651025890095784.0,1
538,0.0,5.0,14.0,8.0,-4.0,-2.0,1.0,-9.0,1651025890108735.0,1
539,1.0,8.0,-9.0,-1.0,0.0,0.0,-4.0,0.0,1651025890108735.0,1
540,-2.0,-3.0,-25.0,-16.0,-3.0,0.0,0.0,10.0,1651025890109732.0,1
541,6.0,-26.0,-7.0,-5.0,-4.0,-2.0,-4.0,-7.0,1651025890109732.0,1
542,1.0,-14.0,-3.0,-1.0,-9.0,-4.0,-5.0,-5.0,1651025890132490.0,1
543,4.0,18.0,22.0,8.0,6.0,4.0,-3.0,3.0,1651025890132490.0,1
544,4.0,8.0,11.0,9.0,6.0,1.0,14.0,-3.0,1651025890132490.0,1
545,-10.0,-34.0,-42.0,-17.0,-6.0,0.0,-11.0,-6.0,1651025890132490.0,1
546,5.0,30.0,14.0,3.0,-5.0,-2.0,1.0,0.0,1651025890154739.0,1
547,5.0,-1.0,19.0,15.0,9.0,-3.0,0.0,2.0,1651025890154739.0,1
548,-2.0,-1.0,-8.0,-9.0,-3.0,2.0,2.0,1.0,1651025890155690.0,1
549,-6.0,-15.0,0.0,3.0,-11.0,-2.0,5.0,4.0,1651025890155690.0,1
550,10.0,11.0,3.0,-4.0,13.0,3.0,-1.0,6.0,1651025890168697.0,1
551,-11.0,-28.0,4.0,5.0,-4.0,-1.0,4.0,-7.0,1651025890168697.0,1
552,11.0,25.0,3.0,-4.0,-11.0,-2.0,-3.0,5.0,1651025890169632.0,1
553,-10.0,-48.0,-6.0,5.0,11.0,3.0,0.0,-5.0,1651025890169632.0,1
554,3.0,23.0,-16.0,-5.0,-9.0,-8.0,-5.0,3.0,1651025890192569.0,1
555,-1.0,-11.0,-39.0,-15.0,0.0,2.0,0.0,1.0,1651025890192569.0,1
556,-4.0,-2.0,8.0,-5.0,-4.0,-4.0,0.0,-12.0,1651025890192569.0,1
557,5.0,27.0,-11.0,-8.0,-4.0,-2.0,-3.0,-11.0,1651025890192569.0,1
558,-7.0,-2.0,33.0,13.0,4.0,0.0,5.0,11.0,1651025890215005.0,1
559,-3.0,-14.0,-27.0,-5.0,6.0,2.0,0.0,-16.0,1651025890215005.0,1
560,12.0,-2.0,16.0,8.0,-10.0,-3.0,-6.0,7.0,1651025890215005.0,1
561,-2.0,18.0,9.0,3.0,7.0,5.0,1.0,6.0,1651025890215005.0,1
562,-4.0,0.0,-11.0,-4.0,2.0,1.0,3.0,-5.0,1651025890228969.0,1
563,8.0,27.0,28.0,16.0,2.0,1.0,4.0,6.0,1651025890228969.0,1
564,-17.0,-43.0,-33.0,-17.0,-6.0,-6.0,-5.0,1.0,1651025890229896.0,1
565,7.0,3.0,12.0,-2.0,-3.0,-1.0,3.0,-5.0,1651025890229896.0,1
566,-4.0,-40.0,-10.0,3.0,1.0,0.0,3.0,3.0,1651025890253009.0,1
567,-2.0,28.0,1.0,-15.0,-20.0,-4.0,-3.0,-11.0,1651025890253009.0,1
568,5.0,15.0,8.0,15.0,22.0,3.0,3.0,3.0,1651025890253009.0,1
569,1.0,8.0,19.0,14.0,7.0,0.0,2.0,9.0,1651025890253009.0,1
570,-17.0,-20.0,-13.0,-7.0,-7.0,0.0,-3.0,-11.0,1651025890275089.0,1
571,5.0,11.0,-21.0,-13.0,-6.0,-2.0,-1.0,7.0,1651025890275089.0,1
572,-14.0,-38.0,17.0,1.0,-3.0,0.0,-2.0,-12.0,1651025890275089.0,1
573,13.0,30.0,-22.0,1.0,1.0,1.0,2.0,9.0,1651025890275089.0,1
574,5.0,5.0,-6.0,-10.0,-4.0,-3.0,-3.0,-2.0,1651025890287991.0,1
575,-4.0,-24.0,11.0,1.0,-1.0,0.0,0.0,5.0,1651025890287991.0,1
576,13.0,59.0,13.0,6.0,2.0,1.0,-1.0,-6.0,1651025890296861.0,1
577,-4.0,8.0,6.0,-1.0,-2.0,-2.0,0.0,-3.0,1651025890296861.0,1
578,2.0,-29.0,-20.0,-6.0,-4.0,-1.0,0.0,6.0,1651025890311891.0,1
579,4.0,14.0,7.0,6.0,5.0,1.0,-1.0,2.0,1651025890311891.0,1
580,3.0,-5.0,8.0,3.0,0.0,1.0,1.0,-4.0,1651025890312821.0,1
581,-14.0,-3.0,-10.0,-5.0,-7.0,-4.0,-4.0,-5.0,1651025890312821.0,1
582,14.0,19.0,10.0,-3.0,-3.0,-1.0,0.0,1.0,1651025890336539.0,1
583,-13.0,-5.0,1.0,-4.0,0.0,-3.0,-3.0,-4.0,1651025890336539.0,1
584,-5.0,6.0,6.0,8.0,4.0,5.0,4.0,-1.0,1651025890337539.0,1
585,14.0,15.0,-3.0,-3.0,-6.0,-5.0,-1.0,4.0,1651025890337539.0,1
586,-3.0,-11.0,-7.0,0.0,2.0,4.0,1.0,1.0,1651025890348520.0,1
587,-4.0,-15.0,8.0,4.0,2.0,-1.0,0.0,-3.0,1651025890348520.0,1
588,-15.0,-9.0,-3.0,3.0,-1.0,0.0,-2.0,-5.0,1651025890356514.0,1
589,-11.0,-38.0,-13.0,-6.0,-5.0,-2.0,-1.0,-1.0,1651025890356514.0,1
590,-6.0,40.0,-10.0,-8.0,-4.0,-7.0,-6.0,-8.0,1651025890372563.0,1
591,9.0,-34.0,-1.0,3.0,0.0,0.0,1.0,6.0,1651025890372563.0,1
592,-7.0,-13.0,-10.0,-2.0,-10.0,-2.0,-2.0,-4.0,1651025890373492.0,1
593,-2.0,-3.0,11.0,2.0,16.0,2.0,1.0,2.0,1651025890373492.0,1
594,1.0,25.0,1.0,3.0,1.0,0.0,-1.0,1.0,1651025890394499.0,1
595,3.0,21.0,5.0,0.0,-1.0,1.0,1.0,4.0,1651025890394499.0,1
596,8.0,25.0,5.0,-1.0,0.0,-2.0,-1.0,-2.0,1651025890395433.0,1
597,-5.0,3.0,-2.0,0.0,-5.0,3.0,0.0,0.0,1651025890395433.0,1
598,-3.0,-39.0,-3.0,1.0,2.0,-1.0,2.0,4.0,1651025890408461.0,1
599,3.0,52.0,22.0,3.0,1.0,-3.0,-4.0,-1.0,1651025890408461.0,1
600,-4.0,-35.0,-13.0,-5.0,-3.0,-2.0,0.0,-3.0,1651025890416379.0,1
601,-2.0,6.0,-10.0,-4.0,-2.0,0.0,0.0,1.0,1651025890416379.0,1
602,10.0,-33.0,-13.0,0.0,3.0,1.0,1.0,1.0,1651025890432482.0,1
603,-5.0,-5.0,4.0,1.0,0.0,-1.0,-1.0,-1.0,1651025890432482.0,1
604,5.0,-5.0,3.0,-2.0,-2.0,-1.0,-1.0,-1.0,1651025890433484.0,1
605,8.0,9.0,7.0,2.0,3.0,0.0,3.0,4.0,1651025890433484.0,1
606,9.0,9.0,2.0,0.0,-3.0,-2.0,-1.0,1.0,1651025890454927.0,1
607,-4.0,-31.0,-10.0,0.0,2.0,1.0,0.0,0.0,1651025890454927.0,1
608,0.0,13.0,-3.0,-2.0,0.0,1.0,-1.0,-1.0,1651025890455912.0,1
609,6.0,22.0,10.0,2.0,-1.0,2.0,3.0,6.0,1651025890455912.0,1
610,-6.0,45.0,3.0,-3.0,-5.0,-3.0,-5.0,-6.0,1651025890467951.0,1
611,0.0,-14.0,-14.0,1.0,-2.0,-1.0,-1.0,-1.0,1651025890467951.0,1
612,-1.0,10.0,4.0,3.0,5.0,-1.0,1.0,-1.0,1651025890476900.0,1
613,-9.0,-20.0,1.0,-1.0,-1.0,-1.0,-1.0,-2.0,1651025890476900.0,1
614,4.0,19.0,-2.0,-2.0,-1.0,-3.0,0.0,-1.0,1651025890491916.0,1
615,-8.0,-31.0,-1.0,-2.0,-1.0,0.0,-2.0,0.0,1651025890491916.0,1
616,-1.0,3.0,-2.0,-2.0,-3.0,-1.0,-3.0,-2.0,1651025890493845.0,1
617,2.0,-18.0,-4.0,0.0,-1.0,1.0,1.0,1.0,1651025890493845.0,1
618,-9.0,-11.0,-6.0,1.0,2.0,0.0,0.0,-2.0,1651025890514855.0,1
619,10.0,12.0,1.0,-1.0,0.0,1.0,0.0,1.0,1651025890514855.0,1
620,0.0,-11.0,0.0,0.0,2.0,1.0,1.0,1.0,1651025890515812.0,1
621,2.0,36.0,2.0,1.0,0.0,0.0,0.0,2.0,1651025890515812.0,1
622,-4.0,-22.0,2.0,-1.0,0.0,1.0,1.0,1.0,1651025890528751.0,1
623,6.0,32.0,6.0,-2.0,0.0,-2.0,-1.0,1.0,1651025890528751.0,1
624,-3.0,-13.0,0.0,1.0,0.0,1.0,-1.0,0.0,1651025890536899.0,1
625,-3.0,20.0,7.0,-3.0,-5.0,-3.0,-3.0,-2.0,1651025890536899.0,1
626,-6.0,-40.0,-15.0,-2.0,2.0,2.0,3.0,-2.0,1651025890552563.0,1
627,-6.0,-7.0,-2.0,2.0,-2.0,-1.0,-1.0,-3.0,1651025890552563.0,1
628,-5.0,-9.0,1.0,1.0,3.0,-1.0,-1.0,0.0,1651025890553563.0,1
629,5.0,2.0,-9.0,-2.0,-4.0,-2.0,-2.0,0.0,1651025890553563.0,1
630,-6.0,-20.0,6.0,1.0,-1.0,-2.0,0.0,1.0,1651025890574649.0,1
631,0.0,8.0,1.0,0.0,2.0,0.0,0.0,-1.0,1651025890574649.0,1
632,2.0,55.0,-1.0,-1.0,-3.0,-2.0,-1.0,-2.0,1651025890576619.0,1
633,4.0,-5.0,0.0,-4.0,-11.0,-3.0,1.0,-1.0,1651025890576619.0,1
634,-2.0,-8.0,3.0,2.0,9.0,-1.0,-3.0,1.0,1651025890588592.0,1
635,11.0,15.0,-14.0,-5.0,3.0,-2.0,-1.0,-2.0,1651025890588592.0,1
636,-5.0,-7.0,6.0,0.0,-2.0,1.0,-1.0,1.0,1651025890597541.0,1
637,0.0,-6.0,-4.0,-1.0,3.0,0.0,-1.0,0.0,1651025890597541.0,1
638,11.0,43.0,10.0,-2.0,-10.0,0.0,0.0,1.0,1651025890619924.0,1
639,-9.0,-45.0,-6.0,-2.0,-3.0,-2.0,0.0,-1.0,1651025890619924.0,1
640,10.0,-8.0,-2.0,1.0,6.0,1.0,-1.0,0.0,1651025890620922.0,1
641,2.0,46.0,7.0,-1.0,-2.0,-1.0,-1.0,0.0,1651025890620922.0,1
642,0.0,-19.0,4.0,0.0,-3.0,-2.0,0.0,0.0,1651025890635040.0,1
643,1.0,20.0,2.0,2.0,4.0,0.0,0.0,1.0,1651025890635040.0,1
644,-3.0,-6.0,-3.0,-1.0,-2.0,0.0,1.0,2.0,1651025890635888.0,1
645,2.0,-2.0,5.0,1.0,2.0,0.0,0.0,2.0,1651025890635888.0,1
646,-6.0,-22.0,-7.0,-6.0,-4.0,-2.0,-1.0,-2.0,1651025890656902.0,1
647,0.0,7.0,4.0,2.0,0.0,1.0,-2.0,1.0,1651025890656902.0,1
648,0.0,2.0,-1.0,0.0,0.0,-1.0,0.0,-3.0,1651025890658828.0,1
649,1.0,-12.0,2.0,0.0,4.0,1.0,-2.0,-2.0,1651025890658828.0,1
650,8.0,31.0,0.0,0.0,-3.0,1.0,2.0,4.0,1651025890671942.0,1
651,-5.0,-10.0,11.0,0.0,-4.0,-4.0,-1.0,-3.0,1651025890671942.0,1
652,-9.0,-18.0,-19.0,0.0,3.0,2.0,0.0,-3.0,1651025890673938.0,1
653,-7.0,-22.0,-1.0,-1.0,2.0,2.0,-1.0,-4.0,1651025890673938.0,1
654,1.0,-2.0,4.0,-1.0,1.0,1.0,1.0,2.0,1651025890694738.0,1
655,-4.0,11.0,1.0,-1.0,0.0,0.0,0.0,-1.0,1651025890694738.0,1
656,4.0,6.0,7.0,-1.0,-3.0,-3.0,0.0,2.0,1651025890695809.0,1
657,-3.0,-7.0,-5.0,-1.0,-7.0,-2.0,0.0,-2.0,1651025890695809.0,1
658,14.0,41.0,-4.0,3.0,17.0,4.0,1.0,2.0,1651025890717081.0,1
659,-7.0,-8.0,-3.0,-4.0,-10.0,-5.0,-5.0,-8.0,1651025890717081.0,1
660,-1.0,-8.0,1.0,-1.0,-4.0,-2.0,-1.0,-1.0,1651025890719105.0,1
661,-3.0,-9.0,-4.0,-4.0,-6.0,-1.0,-2.0,-2.0,1651025890719105.0,1
662,-2.0,-1.0,4.0,0.0,0.0,-2.0,-1.0,1.0,1651025890731118.0,1
663,0.0,-6.0,-1.0,-1.0,2.0,1.0,3.0,1.0,1651025890731118.0,1
664,1.0,-3.0,2.0,3.0,0.0,-1.0,1.0,-1.0,1651025890738029.0,1
665,-6.0,-1.0,0.0,0.0,3.0,-2.0,-1.0,-3.0,1651025890738029.0,1
666,-7.0,-10.0,-1.0,0.0,-4.0,0.0,-2.0,-2.0,1651025890754460.0,1
667,6.0,7.0,-4.0,-1.0,4.0,2.0,2.0,3.0,1651025890754460.0,1
668,-6.0,-8.0,-3.0,-6.0,-4.0,-1.0,-3.0,-4.0,1651025890756413.0,1
669,-8.0,-24.0,-12.0,-3.0,0.0,-1.0,-1.0,-3.0,1651025890756413.0,1
670,0.0,-3.0,1.0,-1.0,-2.0,-1.0,-1.0,-4.0,1651025890776726.0,1
671,-6.0,-26.0,-3.0,0.0,-3.0,0.0,-1.0,0.0,1651025890776726.0,1
672,-6.0,3.0,4.0,-1.0,-2.0,-1.0,0.0,0.0,1651025890778721.0,1
673,1.0,-15.0,-1.0,2.0,5.0,0.0,-1.0,0.0,1651025890778721.0,1
674,-2.0,-16.0,-5.0,-2.0,-5.0,-3.0,0.0,1.0,1651025890791751.0,1
675,-3.0,-10.0,-4.0,-3.0,-5.0,-1.0,-1.0,-1.0,1651025890791751.0,1
676,4.0,10.0,4.0,2.0,7.0,4.0,0.0,2.0,1651025890805701.0,1
677,-1.0,1.0,1.0,3.0,4.0,1.0,1.0,-1.0,1651025890805701.0,1
678,5.0,-1.0,-2.0,-1.0,-5.0,-2.0,-1.0,-1.0,1651025890814683.0,1
679,1.0,7.0,3.0,1.0,-1.0,-4.0,-1.0,0.0,1651025890814683.0,1
680,-1.0,-10.0,-11.0,-6.0,-14.0,-3.0,0.0,1.0,1651025890820669.0,1
681,2.0,11.0,1.0,0.0,12.0,1.0,-1.0,0.0,1651025890820669.0,1
682,0.0,-7.0,3.0,1.0,2.0,1.0,-2.0,0.0,1651025890836765.0,1
683,1.0,5.0,-1.0,1.0,-1.0,2.0,0.0,0.0,1651025890836765.0,1
684,10.0,32.0,2.0,1.0,-3.0,-1.0,1.0,3.0,1651025890838698.0,1
685,-2.0,-31.0,-2.0,-1.0,-4.0,-1.0,-1.0,-2.0,1651025890838698.0,1
686,-3.0,24.0,1.0,-3.0,-3.0,-4.0,-2.0,-2.0,1651025890851664.0,1
687,-1.0,-37.0,-12.0,-2.0,4.0,1.0,0.0,-2.0,1651025890851664.0,1
688,4.0,11.0,6.0,0.0,1.0,0.0,0.0,-1.0,1651025890858645.0,1
689,5.0,10.0,1.0,-2.0,-3.0,-1.0,0.0,2.0,1651025890858645.0,1
690,-4.0,7.0,0.0,-2.0,2.0,-1.0,-2.0,-1.0,1651025890874105.0,1
691,1.0,8.0,2.0,2.0,2.0,2.0,0.0,0.0,1651025890874105.0,1
692,5.0,-31.0,-4.0,-1.0,3.0,-2.0,-1.0,0.0,1651025890876103.0,1
693,0.0,15.0,2.0,-1.0,-5.0,-3.0,-2.0,-2.0,1651025890876103.0,1
694,-8.0,8.0,-3.0,-2.0,-2.0,0.0,-1.0,-2.0,1651025890897109.0,1
695,1.0,6.0,-3.0,-2.0,0.0,1.0,2.0,1.0,1651025890897109.0,1
696,-5.0,-7.0,-2.0,1.0,1.0,1.0,1.0,0.0,1651025890899065.0,1
697,0.0,9.0,2.0,-2.0,-3.0,-2.0,0.0,1.0,1651025890899065.0,1
698,-1.0,-4.0,2.0,-2.0,-4.0,0.0,1.0,1.0,1651025890911020.0,1
699,-3.0,12.0,-1.0,-1.0,0.0,-1.0,-2.0,-5.0,1651025890911020.0,1
700,-3.0,-2.0,-4.0,-1.0,1.0,-3.0,-3.0,0.0,1651025890918018.0,1
701,0.0,3.0,-1.0,-2.0,-3.0,0.0,0.0,-1.0,1651025890918018.0,1
702,-4.0,-13.0,4.0,1.0,0.0,0.0,-1.0,-2.0,1651025890934728.0,1
703,0.0,15.0,0.0,0.0,0.0,-2.0,0.0,1.0,1651025890934728.0,1
704,-2.0,-4.0,1.0,-1.0,0.0,-1.0,-1.0,-2.0,1651025890935685.0,1
705,-2.0,1.0,0.0,-4.0,-12.0,0.0,0.0,0.0,1651025890935685.0,1
706,7.0,10.0,1.0,4.0,17.0,2.0,2.0,2.0,1651025890957530.0,1
707,5.0,39.0,3.0,-3.0,-4.0,-1.0,-2.0,-3.0,1651025890957530.0,1
708,-3.0,-21.0,-7.0,-2.0,-2.0,0.0,0.0,0.0,1651025890958894.0,1
709,-1.0,0.0,1.0,-1.0,0.0,-2.0,-1.0,1.0,1651025890958894.0,1
710,2.0,-10.0,-1.0,-3.0,-6.0,-1.0,0.0,-1.0,1651025890971842.0,1
711,0.0,-8.0,6.0,3.0,3.0,0.0,-1.0,1.0,1651025890971842.0,1
712,0.0,18.0,-2.0,-1.0,2.0,-1.0,-1.0,-2.0,1651025890977884.0,1
713,-7.0,-8.0,-1.0,-2.0,-6.0,-4.0,-3.0,-1.0,1651025890977884.0,1
714,-8.0,-28.0,-4.0,-1.0,2.0,4.0,-2.0,0.0,1651025890994984.0,1
715,3.0,16.0,4.0,4.0,3.0,0.0,2.0,0.0,1651025890994984.0,1
716,-4.0,-14.0,-3.0,-2.0,-1.0,-1.0,1.0,0.0,1651025890995913.0,1
717,2.0,11.0,0.0,1.0,2.0,0.0,0.0,0.0,1651025890995913.0,1
718,-8.0,-12.0,-4.0,0.0,2.0,-3.0,-2.0,-1.0,1651025891017476.0,1
719,-10.0,2.0,-1.0,-1.0,-6.0,-1.0,-2.0,-2.0,1651025891017476.0,1
720,-4.0,-18.0,-4.0,-2.0,-2.0,0.0,-2.0,-1.0,1651025891018895.0,1
721,3.0,-1.0,8.0,3.0,3.0,0.0,0.0,-1.0,1651025891018895.0,1
722,-1.0,6.0,-8.0,-2.0,-3.0,0.0,1.0,0.0,1651025891031622.0,1
723,1.0,-20.0,-1.0,-2.0,0.0,0.0,0.0,0.0,1651025891031622.0,1
724,0.0,-3.0,1.0,1.0,2.0,0.0,0.0,-1.0,1651025891038591.0,1
725,7.0,20.0,-6.0,-2.0,-3.0,1.0,0.0,1.0,1651025891038591.0,1
726,1.0,-9.0,1.0,0.0,-4.0,-1.0,-2.0,-2.0,1651025891054549.0,1
727,-4.0,-12.0,0.0,0.0,2.0,0.0,0.0,0.0,1651025891054549.0,1
728,0.0,10.0,3.0,-1.0,-3.0,-1.0,-1.0,0.0,1651025891056543.0,1
729,-1.0,-10.0,-2.0,0.0,3.0,2.0,0.0,1.0,1651025891056543.0,1
730,11.0,35.0,4.0,0.0,-2.0,2.0,1.0,2.0,1651025891077498.0,1
731,-10.0,-25.0,-3.0,-2.0,-2.0,0.0,-1.0,-3.0,1651025891077498.0,1
732,0.0,6.0,-1.0,-4.0,-8.0,-3.0,-1.0,0.0,1651025891078484.0,1
733,-3.0,-14.0,-8.0,0.0,7.0,2.0,0.0,-2.0,1651025891078484.0,1
734,0.0,3.0,1.0,2.0,4.0,-1.0,0.0,-1.0,1651025891091450.0,1
735,-1.0,-28.0,2.0,1.0,-3.0,1.0,1.0,2.0,1651025891091450.0,1
736,4.0,1.0,-2.0,0.0,-1.0,0.0,0.0,0.0,1651025891098431.0,1
737,-5.0,-6.0,-5.0,-4.0,-7.0,-3.0,-1.0,-1.0,1651025891098431.0,1
738,-4.0,-7.0,1.0,-2.0,-3.0,-2.0,-1.0,0.0,1651025891114393.0,1
739,3.0,10.0,4.0,2.0,3.0,-3.0,-1.0,2.0,1651025891114393.0,1
740,3.0,-1.0,3.0,1.0,0.0,3.0,1.0,-1.0,1651025891116383.0,1
741,-1.0,2.0,2.0,1.0,5.0,-1.0,0.0,0.0,1651025891116383.0,1
742,-3.0,-10.0,-2.0,-2.0,-3.0,0.0,1.0,0.0,1651025891137326.0,1
743,8.0,14.0,2.0,1.0,-1.0,-2.0,1.0,3.0,1651025891137326.0,1
744,-13.0,-23.0,-9.0,-2.0,-2.0,0.0,-1.0,-4.0,1651025891138324.0,1
745,-2.0,1.0,0.0,0.0,1.0,0.0,-1.0,-2.0,1651025891138324.0,1
746,-3.0,-8.0,-2.0,0.0,-2.0,-1.0,-1.0,-3.0,1651025891150292.0,1
747,-1.0,-7.0,-2.0,-5.0,-4.0,0.0,-1.0,0.0,1651025891150292.0,1
748,1.0,-7.0,-4.0,-1.0,2.0,-1.0,-2.0,0.0,1651025891159269.0,1
749,1.0,13.0,1.0,0.0,-2.0,1.0,1.0,0.0,1651025891159269.0,1
750,0.0,-8.0,-4.0,-2.0,-3.0,-2.0,-2.0,-4.0,1651025891174228.0,1
751,5.0,19.0,-1.0,-2.0,-5.0,2.0,1.0,0.0,1651025891174228.0,1
752,0.0,5.0,12.0,7.0,18.0,0.0,-1.0,1.0,1651025891176224.0,1
753,1.0,-2.0,1.0,1.0,-1.0,0.0,0.0,0.0,1651025891176224.0,1
754,-2.0,-2.0,1.0,-1.0,-6.0,-2.0,0.0,2.0,1651025891197168.0,1
755,0.0,4.0,-3.0,-4.0,-1.0,-1.0,-1.0,-2.0,1651025891197168.0,1
756,-1.0,-3.0,-6.0,-3.0,-5.0,0.0,1.0,-1.0,1651025891198164.0,1
757,-5.0,2.0,0.0,-3.0,-3.0,-1.0,-1.0,-1.0,1651025891198164.0,1
758,0.0,2.0,9.0,0.0,2.0,-2.0,-1.0,0.0,1651025891211135.0,1
759,-3.0,-3.0,-4.0,0.0,0.0,-2.0,0.0,-3.0,1651025891211135.0,1
760,0.0,13.0,0.0,0.0,1.0,-1.0,-1.0,1.0,1651025891220105.0,1
761,1.0,-12.0,-3.0,-2.0,0.0,0.0,-1.0,0.0,1651025891220105.0,1
762,-12.0,-9.0,-6.0,-5.0,-9.0,-6.0,-2.0,-2.0,1651025891234876.0,1
763,-2.0,-32.0,-3.0,0.0,5.0,3.0,-2.0,0.0,1651025891234876.0,1
764,7.0,18.0,-1.0,-4.0,-2.0,-3.0,0.0,0.0,1651025891235877.0,1
765,-3.0,3.0,7.0,8.0,3.0,-1.0,-2.0,-3.0,1651025891235877.0,1
766,2.0,-4.0,-5.0,-3.0,-1.0,0.0,0.0,0.0,1651025891256861.0,1
767,-3.0,3.0,-2.0,-3.0,-2.0,-1.0,0.0,0.0,1651025891256861.0,1
768,2.0,13.0,1.0,-3.0,-4.0,-3.0,1.0,-2.0,1651025891258816.0,1
769,-4.0,-23.0,-2.0,0.0,3.0,3.0,1.0,0.0,1651025891258816.0,1
770,-2.0,3.0,0.0,1.0,0.0,-1.0,-2.0,-2.0,1651025891270823.0,1
771,-3.0,7.0,-3.0,-3.0,-2.0,-2.0,-2.0,-1.0,1651025891270823.0,1
772,3.0,7.0,3.0,-2.0,-1.0,1.0,0.0,0.0,1651025891279760.0,1
773,0.0,4.0,-3.0,-8.0,-13.0,-4.0,-1.0,2.0,1651025891279760.0,1
774,1.0,-12.0,-6.0,-1.0,5.0,1.0,-1.0,0.0,1651025891294787.0,1
775,-1.0,1.0,-2.0,0.0,13.0,3.0,0.0,0.0,1651025891294787.0,1
776,-2.0,-3.0,3.0,6.0,-5.0,-1.0,1.0,1.0,1651025891295717.0,1
777,-5.0,6.0,1.0,2.0,2.0,-1.0,1.0,-1.0,1651025891295717.0,1
778,11.0,-2.0,-1.0,-3.0,-8.0,1.0,1.0,0.0,1651025891316959.0,1
779,1.0,-3.0,0.0,-3.0,-4.0,-2.0,-1.0,-2.0,1651025891316959.0,1
780,-5.0,-5.0,-5.0,-1.0,3.0,1.0,0.0,-1.0,1651025891318890.0,1
781,3.0,5.0,0.0,0.0,-1.0,1.0,0.0,-1.0,1651025891318890.0,1
782,-6.0,3.0,5.0,0.0,-1.0,-1.0,-1.0,0.0,1651025891330857.0,1
783,0.0,0.0,-5.0,0.0,-4.0,-5.0,0.0,-1.0,1651025891330857.0,1
784,2.0,21.0,9.0,-1.0,1.0,4.0,0.0,-2.0,1651025891339834.0,1
785,4.0,6.0,-2.0,-1.0,2.0,0.0,-1.0,1.0,1651025891339834.0,1
786,-5.0,10.0,0.0,1.0,1.0,0.0,0.0,-1.0,1651025891354794.0,1
787,0.0,-10.0,1.0,-1.0,0.0,-2.0,-1.0,-1.0,1651025891354794.0,1
788,-4.0,-8.0,-3.0,-2.0,-4.0,-3.0,-1.0,0.0,1651025891355791.0,1
789,3.0,-5.0,-4.0,-4.0,-1.0,-1.0,-1.0,1.0,1651025891355791.0,1
790,-4.0,7.0,1.0,0.0,0.0,1.0,0.0,-1.0,1651025891376974.0,1
791,-2.0,-3.0,-4.0,1.0,-4.0,0.0,-1.0,2.0,1651025891376974.0,1
792,4.0,-5.0,-1.0,-1.0,0.0,-3.0,-2.0,-2.0,1651025891378919.0,1
793,-4.0,-6.0,1.0,2.0,1.0,1.0,0.0,-1.0,1651025891378919.0,1
794,5.0,3.0,4.0,3.0,1.0,-1.0,0.0,2.0,1651025891390909.0,1
795,4.0,14.0,-4.0,-3.0,-1.0,0.0,1.0,0.0,1651025891390909.0,1
796,-11.0,-15.0,-4.0,-2.0,-9.0,1.0,0.0,0.0,1651025891399856.0,1
797,-3.0,-33.0,-5.0,-1.0,14.0,1.0,1.0,0.0,1651025891399856.0,1
798,-8.0,-38.0,-7.0,-3.0,-3.0,-1.0,-2.0,-3.0,1651025891414658.0,1
799,2.0,12.0,2.0,-1.0,-3.0,0.0,0.0,-1.0,1651025891414658.0,1
800,0.0,6.0,0.0,2.0,0.0,-2.0,1.0,-1.0,1651025891416613.0,1
801,-5.0,-6.0,-2.0,-2.0,-8.0,-2.0,-2.0,-4.0,1651025891416613.0,1
802,2.0,3.0,-3.0,2.0,2.0,0.0,2.0,0.0,1651025891437555.0,1
803,-1.0,-12.0,-1.0,1.0,0.0,-2.0,-2.0,0.0,1651025891437555.0,1
804,2.0,-5.0,-6.0,-7.0,-3.0,1.0,-1.0,-1.0,1651025891438525.0,1
805,-4.0,2.0,2.0,2.0,3.0,2.0,0.0,-1.0,1651025891438525.0,1
806,2.0,8.0,1.0,-2.0,1.0,-1.0,0.0,-1.0,1651025891450561.0,1
807,-1.0,2.0,1.0,-1.0,-4.0,0.0,-1.0,-2.0,1651025891450561.0,1
808,1.0,7.0,2.0,0.0,-1.0,-3.0,1.0,1.0,1651025891459515.0,1
809,5.0,-3.0,-1.0,-1.0,0.0,-3.0,-2.0,0.0,1651025891459515.0,1
810,2.0,12.0,5.0,1.0,1.0,2.0,1.0,1.0,1651025891473432.0,1
811,0.0,4.0,-4.0,2.0,0.0,-1.0,1.0,1.0,1651025891473432.0,1
812,-3.0,-9.0,-2.0,-1.0,1.0,-1.0,0.0,1.0,1651025891482410.0,1
813,0.0,-14.0,-5.0,-1.0,-3.0,-1.0,-1.0,-1.0,1651025891482410.0,1
814,1.0,1.0,-2.0,-2.0,-2.0,-1.0,-1.0,1.0,1651025891497436.0,1
815,-4.0,-21.0,0.0,0.0,-1.0,0.0,1.0,-1.0,1651025891497436.0,1
816,10.0,20.0,7.0,3.0,1.0,1.0,1.0,0.0,1651025891498365.0,1
817,2.0,15.0,0.0,0.0,1.0,-2.0,-1.0,1.0,1651025891498365.0,1
818,0.0,3.0,1.0,2.0,-1.0,1.0,0.0,-1.0,1651025891510401.0,1
819,2.0,6.0,-2.0,-3.0,-9.0,0.0,-1.0,-1.0,1651025891510401.0,1
820,-2.0,-8.0,-4.0,-3.0,4.0,-1.0,-2.0,-1.0,1651025891519380.0,1
821,-2.0,-2.0,-1.0,2.0,6.0,-1.0,1.0,1.0,1651025891519380.0,1
822,7.0,-10.0,-3.0,-2.0,-6.0,-1.0,1.0,2.0,1651025891535100.0,1
823,4.0,-1.0,2.0,1.0,4.0,0.0,0.0,2.0,1651025891535100.0,1
824,-7.0,-2.0,2.0,6.0,0.0,0.0,-1.0,-1.0,1651025891535994.0,1
825,2.0,-10.0,1.0,-2.0,-3.0,1.0,-1.0,2.0,1651025891535994.0,1
826,2.0,29.0,0.0,2.0,6.0,-1.0,-1.0,0.0,1651025891556939.0,1
827,2.0,1.0,-1.0,-3.0,-3.0,1.0,-1.0,1.0,1651025891556939.0,1
828,0.0,-2.0,-1.0,0.0,-3.0,-2.0,0.0,0.0,1651025891558960.0,1
829,-3.0,-13.0,-10.0,-3.0,-1.0,2.0,1.0,-1.0,1651025891558960.0,1
830,-1.0,18.0,3.0,-1.0,-1.0,-1.0,-2.0,-1.0,1651025891580048.0,1
831,-2.0,4.0,0.0,0.0,0.0,1.0,0.0,0.0,1651025891580048.0,1
832,3.0,25.0,4.0,0.0,1.0,-1.0,-1.0,-1.0,1651025891581046.0,1
833,-3.0,5.0,1.0,-1.0,-1.0,-1.0,1.0,-1.0,1651025891581046.0,1
834,0.0,-7.0,-3.0,-1.0,-5.0,0.0,0.0,1.0,1651025891601741.0,1
835,-1.0,2.0,0.0,0.0,2.0,-3.0,-1.0,-2.0,1651025891601741.0,1
836,1.0,4.0,-3.0,-2.0,-1.0,-1.0,-2.0,1.0,1651025891603708.0,1
837,-3.0,-15.0,-2.0,-1.0,-2.0,-2.0,-1.0,-3.0,1651025891603708.0,1
838,2.0,18.0,-4.0,-3.0,0.0,-2.0,-2.0,-1.0,1651025891616737.0,1
839,-11.0,-19.0,-1.0,-1.0,-9.0,-3.0,-1.0,-3.0,1651025891616737.0,1
840,-4.0,-16.0,-3.0,-1.0,12.0,3.0,2.0,0.0,1651025891618679.0,1
841,7.0,22.0,4.0,4.0,3.0,0.0,1.0,0.0,1651025891618679.0,1
842,-2.0,-5.0,-6.0,-3.0,-1.0,-1.0,-2.0,-1.0,1651025891639809.0,1
843,3.0,7.0,-3.0,-4.0,-3.0,-1.0,-1.0,0.0,1651025891639809.0,1
844,-5.0,-25.0,-3.0,-4.0,-7.0,0.0,-2.0,-4.0,1651025891640807.0,1
845,-5.0,12.0,9.0,-1.0,-1.0,1.0,0.0,0.0,1651025891640807.0,1
846,3.0,12.0,-7.0,13.0,12.0,2.0,1.0,1.0,1651025891654803.0,1
847,-7.0,-12.0,-4.0,5.0,1.0,0.0,0.0,0.0,1651025891654803.0,1
848,-2.0,-4.0,-7.0,-2.0,-3.0,-3.0,0.0,-1.0,1651025891655786.0,1
849,4.0,16.0,7.0,-1.0,1.0,0.0,0.0,-1.0,1651025891655786.0,1
850,0.0,-12.0,2.0,-7.0,-12.0,-5.0,-2.0,-1.0,1651025891676779.0,1
851,-4.0,-6.0,4.0,-2.0,-4.0,1.0,-1.0,-2.0,1651025891676779.0,1
852,1.0,10.0,21.0,13.0,23.0,2.0,1.0,-1.0,1651025891678705.0,1
853,0.0,-8.0,-35.0,-11.0,-13.0,-2.0,0.0,1.0,1651025891678705.0,1
854,-6.0,-19.0,1.0,-1.0,5.0,1.0,1.0,1.0,1651025891699632.0,1
855,1.0,6.0,-7.0,-6.0,-15.0,-8.0,-1.0,0.0,1651025891699632.0,1
856,0.0,-1.0,4.0,-6.0,-12.0,-2.0,-1.0,0.0,1651025891701559.0,1
857,1.0,8.0,14.0,6.0,11.0,9.0,1.0,0.0,1651025891701559.0,1
858,1.0,-2.0,3.0,-10.0,-18.0,-6.0,0.0,-1.0,1651025891714902.0,1
859,1.0,2.0,4.0,7.0,20.0,1.0,1.0,0.0,1651025891714902.0,1
860,-1.0,-2.0,-7.0,11.0,0.0,-2.0,-2.0,-2.0,1651025891715914.0,1
861,6.0,-3.0,-7.0,2.0,2.0,1.0,3.0,5.0,1651025891715914.0,1
862,-5.0,5.0,27.0,3.0,-10.0,-4.0,-4.0,-5.0,1651025891737480.0,1
863,-10.0,-3.0,-12.0,-14.0,4.0,-4.0,-3.0,-4.0,1651025891737480.0,1
864,-2.0,-13.0,-20.0,-10.0,-17.0,-6.0,-4.0,-4.0,1651025891738927.0,1
865,3.0,9.0,16.0,-11.0,-19.0,0.0,7.0,6.0,1651025891738927.0,1
866,2.0,0.0,-6.0,-9.0,22.0,9.0,0.0,-1.0,1651025891759911.0,1
867,-4.0,-15.0,-19.0,-7.0,-3.0,-2.0,-1.0,-1.0,1651025891759911.0,1
868,8.0,4.0,-14.0,66.0,34.0,10.0,5.0,6.0,1651025891760882.0,1
869,-3.0,-8.0,18.0,-13.0,-6.0,-5.0,5.0,-8.0,1651025891760882.0,1
870,-11.0,-3.0,-33.0,-13.0,-16.0,-5.0,-1.0,8.0,1651025891773967.0,1
871,66.0,28.0,28.0,2.0,8.0,2.0,-4.0,0.0,1651025891773967.0,1
872,-38.0,-7.0,-28.0,-15.0,-13.0,-3.0,-16.0,-2.0,1651025891781017.0,1
873,-26.0,-18.0,48.0,13.0,-12.0,-17.0,-57.0,-30.0,1651025891781017.0,1
874,19.0,2.0,-5.0,-35.0,-9.0,-7.0,23.0,18.0,1651025891796974.0,1
875,34.0,4.0,-24.0,-5.0,-3.0,3.0,64.0,4.0,1651025891796974.0,0
876,59.0,25.0,22.0,78.0,17.0,10.0,-57.0,1.0,1651025891798932.0,2
877,-84.0,-24.0,-13.0,-14.0,-12.0,-18.0,36.0,-12.0,1651025891798932.0,2
878,-44.0,-53.0,-39.0,-47.0,-16.0,0.0,-79.0,-42.0,1651025891819958.0,2
879,45.0,-19.0,-69.0,-114.0,-26.0,9.0,94.0,45.0,1651025891819958.0,2
880,22.0,25.0,39.0,56.0,32.0,54.0,1.0,40.0,1651025891820888.0,2
881,-9.0,15.0,10.0,14.0,8.0,-78.0,-102.0,-93.0,1651025891820888.0,2
882,-10.0,24.0,60.0,-11.0,-7.0,-15.0,73.0,-2.0,1651025891833866.0,2
883,-16.0,16.0,-5.0,27.0,18.0,-9.0,1.0,2.0,1651025891833866.0,2
884,-10.0,-37.0,-77.0,-128.0,-55.0,-23.0,127.0,8.0,1651025891840835.0,2
885,0.0,-18.0,-63.0,-69.0,-23.0,51.0,-37.0,65.0,1651025891840835.0,2
886,-4.0,-15.0,72.0,115.0,55.0,-15.0,-84.0,-49.0,1651025891856791.0,2
887,-62.0,33.0,62.0,41.0,16.0,-11.0,22.0,-23.0,1651025891856791.0,2
888,25.0,8.0,15.0,-55.0,-30.0,0.0,-34.0,8.0,1651025891858786.0,2
889,41.0,14.0,-11.0,57.0,46.0,13.0,43.0,2.0,1651025891858786.0,2
890,21.0,7.0,-20.0,-77.0,-30.0,39.0,117.0,54.0,1651025891879459.0,2
891,-50.0,-31.0,4.0,45.0,-5.0,-76.0,-128.0,-40.0,1651025891879459.0,2
892,1.0,35.0,53.0,69.0,42.0,45.0,35.0,-11.0,1651025891881387.0,2
893,42.0,-33.0,-30.0,-41.0,-15.0,-15.0,9.0,6.0,1651025891881387.0,2
894,32.0,20.0,-7.0,19.0,-8.0,12.0,17.0,29.0,1651025891893418.0,2
895,-86.0,-17.0,1.0,-26.0,17.0,55.0,91.0,-10.0,1651025891893418.0,2
896,-35.0,-13.0,-16.0,-55.0,-23.0,-48.0,-89.0,-10.0,1651025891902397.0,2
897,-35.0,9.0,-17.0,21.0,-1.0,9.0,14.0,-14.0,1651025891902397.0,2
898,16.0,13.0,24.0,54.0,14.0,-19.0,-14.0,-1.0,1651025891917405.0,2
899,41.0,14.0,13.0,-9.0,-7.0,35.0,2.0,18.0,1651025891917405.0,2
900,-32.0,-4.0,4.0,-52.0,0.0,12.0,-14.0,1.0,1651025891918364.0,2
901,21.0,13.0,25.0,67.0,21.0,-1.0,5.0,4.0,1651025891918364.0,2
902,4.0,-29.0,-46.0,-34.0,-12.0,-57.0,-43.0,-28.0,1651025891939506.0,2
903,-16.0,7.0,15.0,24.0,-14.0,18.0,-24.0,-8.0,1651025891939506.0,2
904,-6.0,-9.0,13.0,35.0,22.0,19.0,14.0,7.0,1651025891941460.0,2
905,18.0,15.0,-34.0,-42.0,-23.0,6.0,28.0,-2.0,1651025891941460.0,2
906,0.0,4.0,8.0,3.0,-5.0,-10.0,22.0,9.0,1651025891953430.0,2
907,15.0,-24.0,-21.0,2.0,9.0,-17.0,-84.0,-22.0,1651025891953430.0,2
908,-18.0,13.0,-22.0,-18.0,-7.0,-26.0,31.0,2.0,1651025891962404.0,2
909,41.0,16.0,47.0,11.0,6.0,36.0,40.0,38.0,1651025891962404.0,2
910,-45.0,-18.0,-34.0,13.0,10.0,-2.0,7.0,-4.0,1651025891977526.0,2
911,-13.0,-2.0,-2.0,-5.0,-19.0,-32.0,-66.0,-33.0,1651025891977526.0,2
912,15.0,-25.0,-23.0,-54.0,-31.0,-28.0,1.0,-18.0,1651025891978870.0,2
913,-12.0,20.0,27.0,41.0,24.0,4.0,-10.0,1.0,1651025891978870.0,2
914,-14.0,-12.0,-5.0,6.0,4.0,18.0,12.0,-4.0,1651025892000033.0,2
915,1.0,6.0,-4.0,-4.0,8.0,24.0,62.0,26.0,1651025892000033.0,2
916,6.0,24.0,10.0,24.0,1.0,-29.0,-42.0,-18.0,1651025892001987.0,2
917,2.0,-42.0,-34.0,-54.0,-19.0,-3.0,44.0,19.0,1651025892001987.0,2
918,2.0,10.0,31.0,55.0,21.0,10.0,-58.0,-8.0,1651025892013566.0,2
919,-29.0,-10.0,-39.0,-37.0,-18.0,-17.0,-14.0,-9.0,1651025892013566.0,2
920,61.0,6.0,14.0,8.0,10.0,17.0,44.0,16.0,1651025892022602.0,2
921,-10.0,29.0,68.0,75.0,21.0,16.0,1.0,7.0,1651025892022602.0,2
922,-16.0,-18.0,-24.0,-26.0,-11.0,6.0,3.0,0.0,1651025892037579.0,2
923,20.0,3.0,0.0,-22.0,-4.0,4.0,2.0,6.0,1651025892037579.0,2
924,-71.0,-2.0,-3.0,-2.0,2.0,6.0,44.0,-8.0,1651025892038564.0,2
925,36.0,-8.0,-9.0,-35.0,-13.0,-17.0,-37.0,-2.0,1651025892038564.0,2
926,14.0,-6.0,-7.0,5.0,5.0,-7.0,-8.0,-3.0,1651025892059729.0,2
927,-1.0,40.0,23.0,9.0,4.0,14.0,39.0,24.0,1651025892059729.0,2
928,36.0,-43.0,-9.0,13.0,-8.0,-9.0,-11.0,4.0,1651025892060684.0,2
929,-40.0,-11.0,-28.0,-35.0,-15.0,-2.0,8.0,-15.0,1651025892060684.0,2
930,-16.0,7.0,10.0,-15.0,13.0,36.0,4.0,5.0,1651025892073744.0,2
931,11.0,-19.0,-6.0,-7.0,-11.0,-30.0,-44.0,-11.0,1651025892073744.0,2
932,30.0,12.0,27.0,10.0,-10.0,-20.0,1.0,9.0,1651025892081794.0,2
933,5.0,-11.0,-47.0,-41.0,-9.0,-5.0,-3.0,-2.0,1651025892081794.0,2
934,-21.0,6.0,-8.0,-11.0,3.0,22.0,34.0,8.0,1651025892096899.0,2
935,52.0,10.0,14.0,26.0,14.0,16.0,4.0,11.0,1651025892096899.0,2
936,-45.0,-20.0,-30.0,-44.0,-26.0,-21.0,-32.0,-22.0,1651025892098921.0,2
937,-4.0,16.0,35.0,43.0,13.0,-10.0,1.0,2.0,1651025892098921.0,2
938,17.0,12.0,-1.0,3.0,-1.0,6.0,17.0,5.0,1651025892119903.0,2
939,-20.0,-17.0,-13.0,-49.0,-22.0,-4.0,-1.0,-3.0,1651025892119903.0,2
940,3.0,2.0,47.0,84.0,33.0,9.0,21.0,-2.0,1651025892120873.0,2
941,-11.0,-4.0,-29.0,-16.0,8.0,12.0,9.0,4.0,1651025892120873.0,2
942,-21.0,11.0,4.0,-4.0,-12.0,-10.0,-64.0,-22.0,1651025892132870.0,2
943,20.0,-9.0,-5.0,8.0,3.0,-10.0,1.0,-1.0,1651025892132870.0,2
944,-38.0,-7.0,-10.0,-17.0,-9.0,8.0,7.0,-11.0,1651025892141780.0,2
945,22.0,7.0,10.0,13.0,15.0,17.0,3.0,10.0,1651025892141780.0,2
946,14.0,-1.0,-12.0,-23.0,-9.0,1.0,16.0,-3.0,1651025892156943.0,2
947,16.0,-5.0,-9.0,-6.0,-3.0,-7.0,-2.0,8.0,1651025892156943.0,2
948,-10.0,-9.0,8.0,6.0,-2.0,-1.0,-13.0,-13.0,1651025892158899.0,2
949,4.0,20.0,12.0,25.0,7.0,-2.0,11.0,0.0,1651025892158899.0,2
950,9.0,0.0,-3.0,3.0,5.0,3.0,8.0,12.0,1651025892179970.0,2
951,2.0,-29.0,-8.0,10.0,1.0,9.0,41.0,1.0,1651025892179970.0,2
952,0.0,10.0,23.0,37.0,17.0,13.0,-20.0,-4.0,1651025892180968.0,2
953,22.0,-3.0,-16.0,-31.0,-24.0,-42.0,-29.0,2.0,1651025892180968.0,2
954,-14.0,-1.0,-7.0,-15.0,3.0,35.0,5.0,-7.0,1651025892193587.0,2
955,-4.0,11.0,19.0,23.0,12.0,1.0,-30.0,-3.0,1651025892193587.0,2
956,22.0,7.0,-6.0,5.0,1.0,-2.0,5.0,8.0,1651025892202565.0,2
957,-13.0,-7.0,-26.0,-64.0,-21.0,15.0,25.0,-3.0,1651025892202565.0,2
958,-17.0,-1.0,43.0,77.0,15.0,-26.0,-19.0,-13.0,1651025892217507.0,2
959,14.0,12.0,-9.0,2.0,7.0,13.0,15.0,17.0,1651025892217507.0,2
960,-8.0,-10.0,-27.0,-70.0,-23.0,-11.0,-23.0,-8.0,1651025892218870.0,2
961,-7.0,3.0,17.0,63.0,23.0,2.0,8.0,3.0,1651025892218870.0,2
962,19.0,-5.0,-6.0,-30.0,-8.0,-7.0,11.0,3.0,1651025892239643.0,2
963,-32.0,-5.0,2.0,5.0,4.0,7.0,-17.0,-19.0,1651025892239643.0,2
964,17.0,-2.0,-10.0,-3.0,-6.0,-14.0,21.0,23.0,1651025892241580.0,2
965,11.0,2.0,15.0,6.0,-7.0,13.0,24.0,4.0,1651025892241580.0,2
966,-14.0,3.0,11.0,-14.0,-10.0,-15.0,-48.0,-6.0,1651025892253561.0,2
967,7.0,-8.0,-20.0,-15.0,-3.0,-16.0,-4.0,0.0,1651025892253561.0,2
968,37.0,-1.0,9.0,23.0,13.0,23.0,27.0,14.0,1651025892262563.0,2
969,-13.0,-4.0,-3.0,-8.0,-3.0,-12.0,-34.0,-14.0,1651025892262563.0,2
970,15.0,7.0,-2.0,-19.0,-14.0,-2.0,39.0,10.0,1651025892277567.0,2
971,-13.0,4.0,31.0,48.0,24.0,17.0,5.0,10.0,1651025892277567.0,2
972,-9.0,-7.0,-33.0,-56.0,-6.0,9.0,-1.0,-7.0,1651025892278523.0,2
973,4.0,19.0,50.0,69.0,16.0,-3.0,12.0,6.0,1651025892278523.0,2
974,18.0,1.0,-21.0,-27.0,-8.0,-4.0,-5.0,-2.0,1651025892299895.0,2
975,-34.0,-19.0,0.0,-4.0,-7.0,-4.0,12.0,-2.0,1651025892299895.0,2
976,11.0,-3.0,1.0,10.0,2.0,9.0,-4.0,2.0,1651025892300892.0,2
977,-3.0,-6.0,-11.0,-28.0,-10.0,-10.0,-21.0,-3.0,1651025892300892.0,2
978,-8.0,14.0,9.0,6.0,4.0,-12.0,7.0,4.0,1651025892312928.0,2
979,41.0,15.0,5.0,4.0,2.0,12.0,-26.0,6.0,1651025892312928.0,2
980,-23.0,-5.0,-1.0,8.0,9.0,4.0,7.0,-10.0,1651025892321888.0,2
981,14.0,-16.0,-21.0,-42.0,-30.0,-19.0,-19.0,-9.0,1651025892321888.0,2
982,-1.0,-8.0,1.0,28.0,6.0,6.0,12.0,1.0,1651025892336864.0,2
983,33.0,13.0,8.0,3.0,0.0,1.0,12.0,15.0,1651025892336864.0,2
984,-52.0,-5.0,7.0,1.0,-3.0,-15.0,-16.0,-16.0,1651025892338818.0,2
985,-3.0,-4.0,-18.0,-22.0,-5.0,9.0,6.0,-6.0,1651025892338818.0,2
986,10.0,5.0,-7.0,13.0,10.0,13.0,16.0,13.0,1651025892359734.0,2
987,-10.0,-8.0,18.0,35.0,9.0,-9.0,6.0,-10.0,1651025892359734.0,2
988,-1.0,2.0,-25.0,-69.0,-26.0,-11.0,-19.0,-14.0,1651025892360732.0,2
989,-2.0,0.0,35.0,54.0,27.0,17.0,-24.0,7.0,1651025892360732.0,2
990,1.0,-6.0,-16.0,-54.0,-22.0,-19.0,-5.0,6.0,1651025892372844.0,2
991,4.0,10.0,4.0,35.0,13.0,-2.0,-1.0,-17.0,1651025892372844.0,2
992,-2.0,-7.0,-8.0,2.0,-1.0,3.0,14.0,5.0,1651025892381861.0,2
993,-24.0,4.0,-21.0,-36.0,-6.0,22.0,13.0,-5.0,1651025892381861.0,2
994,11.0,-2.0,9.0,21.0,7.0,-4.0,5.0,-3.0,1651025892396930.0,2
995,-27.0,-14.0,14.0,-5.0,4.0,-2.0,-14.0,-7.0,1651025892396930.0,2
996,-5.0,5.0,-4.0,-1.0,-1.0,3.0,20.0,2.0,1651025892398926.0,2
997,-43.0,1.0,10.0,21.0,13.0,9.0,8.0,0.0,1651025892398926.0,2
998,42.0,-4.0,-17.0,-14.0,-15.0,-17.0,-34.0,3.0,1651025892419995.0,2
999,-3.0,0.0,-9.0,-26.0,-18.0,-7.0,5.0,-2.0,1651025892419995.0,2
1000,-14.0,1.0,20.0,29.0,19.0,19.0,37.0,1.0,1651025892420929.0,2
1001,7.0,-1.0,-18.0,-40.0,-12.0,-14.0,-32.0,1.0,1651025892420929.0,2
1002,-22.0,-11.0,15.0,54.0,12.0,-2.0,-5.0,-8.0,1651025892433003.0,2
1003,-2.0,6.0,-5.0,-19.0,-15.0,-1.0,0.0,0.0,1651025892433003.0,2
1004,29.0,-1.0,-7.0,1.0,-1.0,-8.0,-16.0,6.0,1651025892441994.0,2
1005,-21.0,-5.0,3.0,11.0,3.0,11.0,8.0,-18.0,1651025892441994.0,2
1006,-36.0,1.0,-22.0,-42.0,-12.0,6.0,-14.0,-4.0,1651025892457505.0,2
1007,31.0,-2.0,23.0,46.0,24.0,2.0,-2.0,5.0,1651025892457505.0,2
1008,-25.0,15.0,21.0,12.0,-2.0,-6.0,5.0,-3.0,1651025892458870.0,2
1009,43.0,-7.0,-22.0,-36.0,-19.0,-16.0,-5.0,13.0,1651025892458870.0,2
1010,-9.0,-4.0,-16.0,-16.0,-1.0,2.0,7.0,-10.0,1651025892480017.0,2
1011,-1.0,6.0,-1.0,-13.0,-5.0,7.0,-5.0,3.0,1651025892480017.0,2
1012,31.0,5.0,-8.0,-3.0,2.0,2.0,-16.0,-3.0,1651025892480931.0,2
1013,-20.0,-1.0,6.0,14.0,3.0,-6.0,4.0,1.0,1651025892480931.0,2
1014,10.0,-5.0,-3.0,-1.0,-4.0,12.0,23.0,1.0,1651025892493551.0,2
1015,-4.0,5.0,-30.0,-78.0,-25.0,-11.0,-7.0,2.0,1651025892493551.0,2
1016,3.0,4.0,46.0,73.0,25.0,12.0,33.0,14.0,1651025892502436.0,2
1017,12.0,10.0,1.0,-7.0,-7.0,-25.0,-40.0,-6.0,1651025892502436.0,2
1018,-5.0,-20.0,-4.0,14.0,10.0,12.0,25.0,-4.0,1651025892517395.0,2
1019,-8.0,4.0,-25.0,-61.0,-18.0,8.0,19.0,12.0,1651025892517395.0,2
1020,7.0,-15.0,4.0,39.0,-4.0,-21.0,-60.0,-17.0,1651025892518392.0,2
1021,-19.0,0.0,4.0,11.0,5.0,-8.0,6.0,-2.0,1651025892518392.0,2
1022,32.0,5.0,8.0,-4.0,-6.0,-7.0,-10.0,1.0,1651025892539395.0,2
1023,-11.0,4.0,-10.0,-2.0,6.0,-9.0,17.0,4.0,1651025892539395.0,2
1024,-9.0,-1.0,-21.0,-42.0,-18.0,10.0,-15.0,-7.0,1651025892541332.0,2
1025,6.0,0.0,13.0,32.0,16.0,1.0,2.0,2.0,1651025892541332.0,2
1026,0.0,-7.0,-15.0,-40.0,-8.0,-3.0,-4.0,2.0,1651025892562519.0,2
1027,-18.0,-1.0,14.0,31.0,5.0,10.0,24.0,-11.0,1651025892562519.0,2
1028,-5.0,8.0,4.0,-5.0,-3.0,-22.0,-18.0,8.0,1651025892563453.0,2
1029,8.0,-13.0,-19.0,-34.0,-12.0,5.0,9.0,-4.0,1651025892563453.0,2
1030,-3.0,3.0,17.0,22.0,0.0,-3.0,21.0,2.0,1651025892577479.0,2
1031,-22.0,-1.0,-7.0,26.0,4.0,3.0,-24.0,-2.0,1651025892577479.0,2
1032,2.0,7.0,-10.0,-20.0,9.0,6.0,-1.0,4.0,1651025892578409.0,2
1033,-3.0,-3.0,9.0,23.0,2.0,2.0,12.0,3.0,1651025892578409.0,2
1034,-8.0,-2.0,-8.0,-19.0,-1.0,-9.0,1.0,-5.0,1651025892599380.0,2
1035,17.0,4.0,-3.0,-14.0,-5.0,13.0,32.0,12.0,1651025892599380.0,2
1036,-34.0,-11.0,0.0,34.0,8.0,-13.0,-35.0,-21.0,1651025892601348.0,2
1037,34.0,-1.0,-2.0,-3.0,7.0,31.0,-6.0,19.0,1651025892601348.0,2
1038,-6.0,14.0,13.0,14.0,2.0,-23.0,-9.0,3.0,1651025892621321.0,2
1039,-7.0,-6.0,7.0,23.0,4.0,27.0,18.0,-6.0,1651025892621321.0,2
1040,28.0,1.0,-16.0,-34.0,-15.0,-8.0,6.0,1.0,1651025892628303.0,2
1041,-28.0,-8.0,-8.0,-10.0,-5.0,4.0,29.0,-3.0,1651025892628303.0,2
1042,-18.0,0.0,-3.0,-6.0,-4.0,-6.0,-21.0,-10.0,1651025892636282.0,2
1043,-13.0,2.0,34.0,46.0,13.0,-11.0,-29.0,-10.0,1651025892636282.0,2
1044,36.0,8.0,-17.0,-22.0,-5.0,4.0,28.0,21.0,1651025892643235.0,2
1045,-16.0,-5.0,13.0,29.0,5.0,-2.0,-34.0,-19.0,1651025892643235.0,2
1046,6.0,-5.0,-44.0,-38.0,-7.0,1.0,-12.0,-2.0,1651025892659311.0,2
1047,-15.0,-6.0,5.0,4.0,-6.0,-12.0,-2.0,0.0,1651025892659311.0,2
1048,7.0,0.0,12.0,16.0,7.0,6.0,16.0,-6.0,1651025892661331.0,2
1049,21.0,11.0,-1.0,-12.0,-9.0,-7.0,-13.0,18.0,1651025892661331.0,2
1050,-11.0,-5.0,3.0,7.0,-3.0,-17.0,-10.0,-7.0,1651025892681913.0,2
1051,8.0,2.0,-18.0,-27.0,-2.0,20.0,15.0,-4.0,1651025892681913.0,2
1052,12.0,-5.0,9.0,18.0,6.0,4.0,11.0,6.0,1651025892683846.0,2
1053,1.0,0.0,-12.0,-27.0,-11.0,-7.0,-1.0,0.0,1651025892683846.0,2
1054,-26.0,7.0,21.0,15.0,8.0,18.0,30.0,0.0,1651025892696858.0,2
1055,-10.0,-3.0,3.0,1.0,-6.0,-25.0,-48.0,-16.0,1651025892696858.0,2
1056,-2.0,-7.0,-8.0,4.0,6.0,14.0,9.0,3.0,1651025892702858.0,2
1057,-7.0,-1.0,-32.0,-49.0,-12.0,-8.0,19.0,-5.0,1651025892702858.0,2
1058,5.0,1.0,36.0,58.0,16.0,11.0,3.0,11.0,1651025892719806.0,2
1059,3.0,3.0,16.0,16.0,12.0,-5.0,10.0,10.0,1651025892719806.0,2
1060,14.0,-9.0,-10.0,6.0,0.0,-4.0,-3.0,0.0,1651025892720770.0,2
1061,4.0,2.0,18.0,14.0,-1.0,-1.0,-4.0,-10.0,1651025892720770.0,2
1062,-3.0,-1.0,-14.0,-21.0,-7.0,8.0,2.0,-8.0,1651025892742599.0,2
1063,-8.0,6.0,-10.0,-18.0,-7.0,-6.0,0.0,7.0,1651025892742599.0,2
1064,-34.0,8.0,5.0,-10.0,2.0,2.0,-23.0,-10.0,1651025892743597.0,2
1065,9.0,-1.0,0.0,7.0,-1.0,-10.0,9.0,15.0,1651025892743597.0,2
1066,0.0,-6.0,4.0,2.0,0.0,-6.0,-13.0,-8.0,1651025892756745.0,2
1067,44.0,-1.0,1.0,4.0,-3.0,3.0,24.0,13.0,1651025892756745.0,2
1068,-1.0,4.0,-18.0,-18.0,-13.0,-14.0,-3.0,6.0,1651025892762736.0,2
1069,-19.0,4.0,12.0,10.0,3.0,14.0,21.0,-6.0,1651025892762736.0,2
1070,-16.0,5.0,10.0,-15.0,4.0,17.0,1.0,1.0,1651025892779688.0,2
1071,34.0,-4.0,-4.0,7.0,6.0,-7.0,-20.0,-1.0,1651025892779688.0,2
1072,5.0,-3.0,-5.0,0.0,-1.0,-5.0,2.0,-2.0,1651025892781622.0,2
1073,-5.0,-1.0,-12.0,6.0,9.0,2.0,10.0,0.0,1651025892781622.0,2
1074,34.0,-4.0,-2.0,5.0,-9.0,-7.0,0.0,9.0,1651025892802569.0,2
1075,-15.0,6.0,15.0,-6.0,-13.0,-6.0,-10.0,-8.0,1651025892802569.0,2
1076,-12.0,10.0,-31.0,-32.0,-16.0,-5.0,7.0,7.0,1651025892803565.0,2
1077,4.0,-6.0,27.0,28.0,22.0,7.0,-2.0,-14.0,1651025892803565.0,2
1078,10.0,0.0,-4.0,15.0,14.0,3.0,0.0,9.0,1651025892816855.0,2
1079,-9.0,2.0,3.0,-20.0,-16.0,-5.0,-2.0,2.0,1651025892816855.0,2
1080,7.0,3.0,10.0,3.0,-6.0,-17.0,0.0,0.0,1651025892823534.0,2
1081,-5.0,1.0,-8.0,-9.0,-1.0,-8.0,5.0,-3.0,1651025892823534.0,2
1082,8.0,8.0,4.0,0.0,12.0,28.0,12.0,-3.0,1651025892839912.0,2
1083,-5.0,-1.0,6.0,12.0,8.0,1.0,15.0,22.0,1651025892839912.0,2
1084,1.0,-2.0,-7.0,-7.0,2.0,41.0,0.0,-2.0,1651025892840882.0,2
1085,6.0,-1.0,3.0,5.0,-3.0,-16.0,-1.0,6.0,1651025892840882.0,2
1086,-1.0,-5.0,9.0,3.0,-6.0,-20.0,-16.0,-14.0,1651025892861785.0,2
1087,-4.0,-8.0,-22.0,-13.0,-11.0,5.0,8.0,-1.0,1651025892861785.0,2
1088,-25.0,-1.0,20.0,0.0,1.0,-25.0,-8.0,-5.0,1651025892863781.0,2
1089,10.0,-1.0,-7.0,1.0,10.0,19.0,5.0,3.0,1651025892863781.0,2
1090,3.0,5.0,-2.0,7.0,5.0,-2.0,9.0,8.0,1651025892876964.0,2
1091,-5.0,-4.0,8.0,6.0,-2.0,-11.0,-15.0,-14.0,1651025892876964.0,2
1092,-2.0,2.0,-3.0,-4.0,-3.0,-2.0,-2.0,0.0,1651025892882955.0,2
1093,-8.0,-13.0,-37.0,-16.0,-14.0,-21.0,-8.0,-7.0,1651025892882955.0,2
1094,-4.0,-8.0,-5.0,-9.0,-6.0,26.0,1.0,1.0,1651025892899589.0,2
1095,10.0,6.0,6.0,7.0,8.0,0.0,-1.0,-2.0,1651025892899589.0,2
1096,0.0,0.0,22.0,8.0,-11.0,-4.0,-3.0,-2.0,1651025892901598.0,2
1097,-3.0,2.0,-3.0,-5.0,7.0,-13.0,1.0,0.0,1651025892901598.0,2
1098,8.0,2.0,-15.0,2.0,-4.0,-15.0,-11.0,-2.0,1651025892922541.0,2
1099,2.0,-2.0,-13.0,-11.0,-10.0,11.0,-1.0,-7.0,1651025892922541.0,2
1100,-5.0,-5.0,10.0,5.0,2.0,-22.0,2.0,6.0,1651025892923511.0,2
1101,1.0,7.0,15.0,6.0,0.0,24.0,5.0,-2.0,1651025892923511.0,2
1102,1.0,-6.0,-5.0,-1.0,7.0,-10.0,-2.0,3.0,1651025892936544.0,2
1103,-6.0,1.0,-2.0,-4.0,-8.0,-3.0,-6.0,-3.0,1651025892936544.0,2
1104,2.0,2.0,0.0,3.0,7.0,-5.0,-4.0,-7.0,1651025892943463.0,2
1105,0.0,5.0,16.0,5.0,0.0,-7.0,2.0,2.0,1651025892943463.0,2
1106,2.0,9.0,-13.0,10.0,5.0,4.0,1.0,2.0,1651025892959929.0,2
1107,-8.0,-25.0,-13.0,-14.0,-6.0,-4.0,-1.0,-3.0,1651025892959929.0,2
1108,2.0,-6.0,4.0,3.0,-10.0,4.0,-2.0,-3.0,1651025892960925.0,2
1109,6.0,24.0,-24.0,-17.0,8.0,0.0,0.0,6.0,1651025892960925.0,2
1110,1.0,12.0,40.0,12.0,-7.0,8.0,19.0,6.0,1651025892982067.0,2
1111,0.0,3.0,-14.0,-1.0,20.0,-4.0,-25.0,-10.0,1651025892982067.0,2
1112,0.0,8.0,-1.0,0.0,-7.0,-1.0,0.0,0.0,1651025892984065.0,2
1113,-3.0,-26.0,32.0,19.0,13.0,8.0,-3.0,-3.0,1651025892984065.0,2
1114,4.0,-9.0,-33.0,-27.0,-9.0,10.0,3.0,5.0,1651025892996101.0,2
1115,-14.0,-2.0,0.0,3.0,-5.0,2.0,7.0,0.0,1651025892996101.0,2
1116,-4.0,-5.0,6.0,6.0,7.0,7.0,3.0,0.0,1651025893003131.0,2
1117,8.0,26.0,32.0,6.0,2.0,-2.0,-6.0,-3.0,1651025893003131.0,2
1118,-3.0,-47.0,-13.0,4.0,-1.0,-13.0,-4.0,-1.0,1651025893019939.0,2
1119,15.0,40.0,-14.0,-8.0,1.0,-8.0,-2.0,-4.0,1651025893019939.0,2
1120,-3.0,1.0,-9.0,-4.0,-6.0,6.0,-2.0,-15.0,1651025893020938.0,2
1121,-7.0,7.0,4.0,-2.0,-9.0,-4.0,2.0,3.0,1651025893020938.0,2
1122,15.0,16.0,13.0,4.0,4.0,-3.0,-2.0,22.0,1651025893042006.0,2
1123,-25.0,-24.0,7.0,4.0,0.0,7.0,5.0,-11.0,1651025893042006.0,2
1124,5.0,-2.0,-24.0,-6.0,4.0,-2.0,-4.0,0.0,1651025893043956.0,2
1125,-2.0,-3.0,-14.0,-10.0,-18.0,-4.0,-8.0,-15.0,1651025893043956.0,2
1126,-2.0,1.0,-2.0,-5.0,10.0,2.0,0.0,-8.0,1651025893055907.0,2
1127,36.0,22.0,12.0,12.0,18.0,0.0,4.0,16.0,1651025893055907.0,2
1128,-23.0,-15.0,11.0,-2.0,-6.0,4.0,14.0,21.0,1651025893064582.0,2
1129,-11.0,-12.0,-4.0,8.0,-6.0,2.0,-14.0,-56.0,1651025893064582.0,2
1130,4.0,4.0,11.0,-1.0,-1.0,-2.0,26.0,75.0,1651025893079609.0,2
1131,-9.0,-29.0,-21.0,-1.0,-8.0,-7.0,-12.0,-32.0,1651025893079609.0,2
1132,7.0,-1.0,-20.0,-14.0,1.0,2.0,-11.0,1.0,1651025893081537.0,2
1133,-14.0,-2.0,-17.0,-14.0,-22.0,-7.0,-11.0,-21.0,1651025893081537.0,2
1134,11.0,23.0,14.0,-1.0,-13.0,-6.0,-10.0,15.0,1651025893109801.0,2
1135,0.0,22.0,7.0,2.0,19.0,2.0,5.0,12.0,1651025893109801.0,2
1136,-3.0,-27.0,-12.0,10.0,4.0,4.0,5.0,8.0,1651025893110798.0,2
1137,0.0,8.0,6.0,8.0,11.0,3.0,7.0,10.0,1651025893110798.0,2
1138,-2.0,16.0,14.0,5.0,10.0,-2.0,-5.0,-33.0,1651025893115784.0,2
1139,-14.0,-39.0,-29.0,-17.0,-26.0,-9.0,-7.0,5.0,1651025893115784.0,2
1140,6.0,22.0,18.0,-7.0,-12.0,-2.0,-1.0,-11.0,1651025893124769.0,2
1141,13.0,-23.0,7.0,2.0,-14.0,-5.0,11.0,28.0,1651025893124769.0,2
1142,-15.0,-10.0,-12.0,-10.0,22.0,2.0,-6.0,-20.0,1651025893146969.0,2
1143,20.0,55.0,23.0,20.0,9.0,3.0,-12.0,12.0,1651025893146969.0,2
1144,-6.0,-26.0,-24.0,-6.0,-8.0,-7.0,6.0,-10.0,1651025893148895.0,2
1145,-6.0,8.0,-11.0,-2.0,2.0,16.0,-7.0,5.0,1651025893148895.0,2
1146,1.0,-22.0,-9.0,-8.0,-34.0,-12.0,-15.0,-27.0,1651025893162604.0,2
1147,-15.0,-17.0,-1.0,-4.0,17.0,3.0,17.0,6.0,1651025893162604.0,2
1148,15.0,32.0,37.0,20.0,14.0,7.0,-6.0,-1.0,1651025893163604.0,2
1149,6.0,11.0,2.0,2.0,5.0,-4.0,10.0,23.0,1651025893163604.0,2
1150,-27.0,-39.0,-34.0,-7.0,-4.0,1.0,-9.0,-24.0,1651025893175638.0,2
1151,10.0,13.0,16.0,9.0,-10.0,0.0,7.0,18.0,1651025893175638.0,2
1152,-9.0,-21.0,8.0,-12.0,-6.0,-2.0,-2.0,-14.0,1651025893184547.0,2
1153,4.0,-5.0,4.0,-4.0,1.0,-2.0,3.0,9.0,1651025893184547.0,2
1154,3.0,20.0,12.0,2.0,-6.0,0.0,-1.0,-8.0,1651025893199695.0,2
1155,1.0,10.0,-3.0,2.0,8.0,-4.0,2.0,8.0,1651025893199695.0,2
1156,1.0,-5.0,-3.0,10.0,15.0,7.0,0.0,8.0,1651025893201623.0,2
1157,-7.0,-13.0,3.0,1.0,0.0,-2.0,0.0,-2.0,1651025893201623.0,2
1158,5.0,12.0,-13.0,-10.0,-16.0,-7.0,0.0,1.0,1651025893222545.0,2
1159,-12.0,-32.0,7.0,1.0,-4.0,1.0,-8.0,-15.0,1651025893222545.0,2
1160,7.0,52.0,7.0,1.0,3.0,0.0,-6.0,-2.0,1651025893223544.0,2
1161,21.0,19.0,-12.0,0.0,14.0,1.0,4.0,7.0,1651025893223544.0,2
1162,-40.0,-74.0,-11.0,1.0,3.0,0.0,-5.0,-13.0,1651025893235580.0,2
1163,-6.0,-22.0,0.0,-7.0,-12.0,-2.0,4.0,3.0,1651025893235580.0,2
1164,0.0,-10.0,8.0,4.0,-1.0,2.0,2.0,5.0,1651025893244489.0,2
1165,12.0,48.0,-2.0,-9.0,-9.0,-4.0,2.0,16.0,1651025893244489.0,2
1166,-5.0,-1.0,15.0,10.0,9.0,0.0,-4.0,-27.0,1651025893259930.0,2
1167,10.0,29.0,6.0,-3.0,-7.0,0.0,-5.0,-4.0,1651025893259930.0,2
1168,-8.0,-43.0,-6.0,1.0,4.0,-1.0,-1.0,-7.0,1651025893260927.0,2
1169,-9.0,9.0,-2.0,1.0,2.0,1.0,1.0,-2.0,1651025893260927.0,2
1170,13.0,61.0,-2.0,-6.0,-2.0,1.0,1.0,7.0,1651025893282104.0,2
1171,1.0,-15.0,8.0,3.0,-3.0,-1.0,0.0,1.0,1651025893282104.0,2
1172,7.0,11.0,2.0,1.0,-12.0,-3.0,0.0,1.0,1651025893283133.0,2
1173,-19.0,-82.0,-17.0,-7.0,13.0,0.0,-2.0,-7.0,1651025893283133.0,2
1174,-1.0,-5.0,-9.0,2.0,19.0,4.0,2.0,4.0,1651025893304902.0,2
1175,8.0,-3.0,0.0,-3.0,-31.0,-8.0,0.0,-1.0,1651025893304902.0,2
1176,4.0,-12.0,-1.0,3.0,19.0,6.0,2.0,8.0,1651025893305903.0,2
1177,-4.0,17.0,-2.0,-7.0,-17.0,-3.0,-3.0,-8.0,1651025893305903.0,2
1178,16.0,29.0,6.0,-2.0,-6.0,-4.0,-2.0,9.0,1651025893319933.0,2
1179,-3.0,-25.0,-7.0,4.0,27.0,5.0,1.0,-3.0,1651025893319933.0,2
1180,-5.0,26.0,3.0,0.0,-11.0,-3.0,-1.0,-3.0,1651025893320867.0,2
1181,-17.0,-42.0,-4.0,-1.0,-3.0,-2.0,-1.0,-2.0,1651025893320867.0,2
1182,-12.0,-19.0,2.0,-1.0,-5.0,-2.0,-2.0,-4.0,1651025893342584.0,2
1183,-5.0,-9.0,-11.0,-8.0,-8.0,-4.0,-2.0,-5.0,1651025893342584.0,2
1184,15.0,41.0,-2.0,-3.0,1.0,-1.0,0.0,-1.0,1651025893343556.0,2
1185,6.0,14.0,0.0,0.0,1.0,-1.0,-2.0,1.0,1651025893343556.0,2
1186,-3.0,-11.0,19.0,2.0,-4.0,2.0,1.0,6.0,1651025893355704.0,2
1187,0.0,38.0,-17.0,-2.0,3.0,-3.0,-3.0,-7.0,1651025893355704.0,2
1188,-2.0,-21.0,-2.0,-4.0,4.0,2.0,1.0,3.0,1651025893364612.0,2
1189,-3.0,-31.0,-6.0,7.0,4.0,3.0,2.0,3.0,1651025893364612.0,2
1190,10.0,61.0,7.0,-3.0,-5.0,-5.0,-2.0,3.0,1651025893379632.0,2
1191,3.0,10.0,20.0,1.0,-3.0,3.0,1.0,1.0,1651025893379632.0,2
1192,-3.0,-49.0,-14.0,-3.0,3.0,-1.0,-3.0,-5.0,1651025893385616.0,2
1193,5.0,72.0,-10.0,-5.0,-11.0,-6.0,-5.0,-4.0,1651025893385616.0,2
1194,-9.0,-34.0,-10.0,-5.0,1.0,0.0,-2.0,-3.0,1651025893402508.0,2
1195,-7.0,-20.0,-1.0,-1.0,-4.0,0.0,-2.0,-3.0,1651025893402508.0,2
1196,-3.0,-36.0,2.0,3.0,2.0,2.0,5.0,5.0,1651025893403501.0,2
1197,31.0,74.0,24.0,5.0,9.0,2.0,1.0,3.0,1651025893403501.0,2
1198,5.0,-13.0,0.0,11.0,10.0,1.0,2.0,2.0,1651025893415492.0,2
1199,-4.0,12.0,1.0,-6.0,-8.0,-3.0,-2.0,-2.0,1651025893415492.0,2
1200,0.0,-7.0,-3.0,-7.0,-3.0,-1.0,-2.0,1.0,1651025893424849.0,2
1201,1.0,-12.0,-1.0,0.0,4.0,-2.0,0.0,0.0,1651025893424849.0,2
1202,3.0,-11.0,3.0,2.0,-3.0,1.0,1.0,1.0,1651025893438682.0,2
1203,11.0,22.0,3.0,1.0,1.0,-3.0,-1.0,1.0,1651025893438682.0,2
1204,4.0,29.0,8.0,-2.0,-8.0,-2.0,-1.0,-1.0,1651025893445663.0,2
1205,-18.0,-53.0,-28.0,-3.0,-2.0,1.0,1.0,0.0,1651025893445663.0,2
1206,-3.0,-13.0,10.0,3.0,4.0,1.0,1.0,1.0,1651025893462550.0,2
1207,-9.0,-15.0,-5.0,-1.0,1.0,1.0,-1.0,-2.0,1651025893462550.0,2
1208,-10.0,1.0,-15.0,-3.0,-2.0,-4.0,-5.0,-5.0,1651025893463549.0,2
1209,-1.0,4.0,28.0,2.0,-4.0,0.0,1.0,0.0,1651025893463549.0,2
1210,11.0,-1.0,-14.0,-4.0,-2.0,-2.0,0.0,3.0,1651025893484615.0,2
1211,-3.0,-10.0,9.0,8.0,7.0,3.0,-1.0,0.0,1651025893484615.0,2
1212,-8.0,-2.0,-7.0,-5.0,4.0,1.0,3.0,-2.0,1651025893486570.0,2
1213,-5.0,8.0,0.0,3.0,-1.0,2.0,-7.0,-3.0,1651025893486570.0,2
1214,8.0,35.0,-9.0,0.0,-6.0,-3.0,1.0,3.0,1651025893498578.0,2
1215,-8.0,4.0,2.0,-6.0,-2.0,-4.0,-2.0,-5.0,1651025893498578.0,2
1216,6.0,4.0,-4.0,-1.0,0.0,1.0,1.0,7.0,1651025893505560.0,2
1217,-5.0,-18.0,2.0,0.0,-4.0,-4.0,0.0,-3.0,1651025893505560.0,2
1218,5.0,23.0,11.0,0.0,0.0,2.0,3.0,2.0,1651025893522535.0,2
1219,5.0,-2.0,-2.0,3.0,4.0,3.0,1.0,0.0,1651025893522535.0,2
1220,-6.0,-9.0,-1.0,2.0,-2.0,0.0,0.0,-2.0,1651025893523444.0,2
1221,5.0,16.0,4.0,-4.0,-11.0,-2.0,1.0,2.0,1651025893523444.0,2
1222,1.0,-5.0,1.0,-3.0,9.0,-3.0,-3.0,0.0,1651025893544389.0,2
1223,-7.0,-30.0,-11.0,3.0,0.0,2.0,0.0,0.0,1651025893544389.0,2
1224,-9.0,-1.0,-6.0,-7.0,-5.0,-4.0,-4.0,-6.0,1651025893546410.0,2
1225,-9.0,-31.0,-7.0,4.0,3.0,0.0,1.0,-1.0,1651025893546410.0,2
1226,-2.0,3.0,-1.0,0.0,-9.0,-6.0,-2.0,-3.0,1651025893559411.0,2
1227,1.0,11.0,11.0,-6.0,-1.0,1.0,-1.0,2.0,1651025893559411.0,2
1228,3.0,36.0,-5.0,2.0,-3.0,0.0,0.0,2.0,1651025893561343.0,2
1229,-3.0,5.0,-1.0,-2.0,-2.0,0.0,-1.0,0.0,1651025893561343.0,2
1230,1.0,-11.0,1.0,6.0,9.0,2.0,1.0,2.0,1651025893582287.0,2
1231,2.0,8.0,1.0,-2.0,-2.0,-2.0,-1.0,0.0,1651025893582287.0,2
1232,7.0,11.0,3.0,5.0,1.0,2.0,0.0,3.0,1651025893583284.0,2
1233,-9.0,-19.0,5.0,-4.0,-6.0,-2.0,2.0,-1.0,1651025893583284.0,2
1234,-4.0,-33.0,-15.0,-2.0,-3.0,0.0,-1.0,-2.0,1651025893604903.0,2
1235,4.0,-8.0,5.0,-1.0,3.0,1.0,0.0,1.0,1651025893604903.0,2
1236,-2.0,-1.0,0.0,-4.0,-15.0,-4.0,-1.0,-3.0,1651025893605916.0,2
1237,-3.0,-15.0,-10.0,3.0,16.0,0.0,1.0,0.0,1651025893605916.0,2
1238,0.0,-2.0,12.0,6.0,11.0,5.0,1.0,0.0,1651025893619865.0,2
1239,3.0,26.0,-6.0,-3.0,-6.0,-1.0,0.0,-1.0,1651025893619865.0,2
1240,2.0,7.0,-1.0,5.0,7.0,1.0,-2.0,-2.0,1651025893620877.0,2
1241,0.0,-17.0,-2.0,-6.0,-17.0,-6.0,-2.0,-1.0,1651025893620877.0,2
1242,-2.0,0.0,-6.0,-6.0,-12.0,2.0,0.0,1.0,1651025893642480.0,2
1243,2.0,-8.0,12.0,3.0,15.0,1.0,1.0,0.0,1651025893642480.0,2
1244,4.0,-9.0,-7.0,3.0,5.0,1.0,1.0,1.0,1651025893643480.0,2
1245,2.0,21.0,8.0,0.0,-1.0,-2.0,-1.0,-3.0,1651025893643480.0,2
1246,-7.0,3.0,-4.0,-5.0,-9.0,-5.0,-2.0,-2.0,1651025893664577.0,2
1247,-3.0,-12.0,-7.0,-2.0,-10.0,-2.0,-1.0,-2.0,1651025893664577.0,2
1248,-1.0,-5.0,13.0,3.0,5.0,0.0,-1.0,0.0,1651025893666574.0,2
1249,0.0,-25.0,-17.0,-4.0,0.0,0.0,0.0,2.0,1651025893666574.0,2
1250,-1.0,-3.0,-2.0,1.0,-2.0,-1.0,-1.0,0.0,1651025893678609.0,2
1251,-2.0,8.0,-7.0,-4.0,-4.0,-1.0,-3.0,-2.0,1651025893678609.0,2
1252,1.0,11.0,0.0,-5.0,-8.0,-4.0,-1.0,-1.0,1651025893685552.0,2
1253,-7.0,-25.0,-9.0,3.0,19.0,6.0,2.0,3.0,1651025893685552.0,2
1254,0.0,19.0,11.0,1.0,-1.0,0.0,-2.0,-3.0,1651025893702563.0,2
1255,-3.0,-16.0,-6.0,-2.0,-6.0,-3.0,-2.0,-2.0,1651025893702563.0,2
1256,-5.0,-3.0,-8.0,-1.0,0.0,-3.0,-1.0,-2.0,1651025893703483.0,2
1257,4.0,-7.0,0.0,-6.0,-7.0,0.0,0.0,0.0,1651025893703483.0,2
1258,-3.0,-8.0,-1.0,-1.0,1.0,0.0,0.0,-1.0,1651025893724649.0,2
1259,0.0,5.0,-5.0,2.0,5.0,0.0,-1.0,-2.0,1651025893724649.0,2
1260,1.0,-5.0,3.0,-9.0,-22.0,-2.0,0.0,2.0,1651025893726576.0,2
1261,1.0,2.0,1.0,1.0,3.0,-4.0,-2.0,-2.0,1651025893726576.0,2
1262,23.0,76.0,13.0,6.0,17.0,4.0,3.0,5.0,1651025893739018.0,2
1263,-8.0,13.0,1.0,1.0,-5.0,3.0,-1.0,-5.0,1651025893739018.0,2
1264,-1.0,1.0,0.0,10.0,14.0,5.0,-1.0,1.0,1651025893745932.0,2
1265,2.0,6.0,-2.0,-3.0,-10.0,-1.0,-1.0,0.0,1651025893745932.0,2
1266,0.0,-6.0,-8.0,-8.0,-9.0,-4.0,0.0,-1.0,1651025893761939.0,2
1267,1.0,-15.0,-4.0,-4.0,-5.0,-6.0,2.0,1.0,1651025893761939.0,2
1268,-5.0,-3.0,0.0,-7.0,-6.0,0.0,0.0,-5.0,1651025893763921.0,2
1269,5.0,27.0,20.0,2.0,1.0,-1.0,0.0,2.0,1651025893763921.0,2
1270,-8.0,-7.0,-12.0,14.0,15.0,4.0,-1.0,-1.0,1651025893783991.0,2
1271,-2.0,2.0,4.0,-3.0,-6.0,-2.0,-1.0,-2.0,1651025893783991.0,2
1272,-3.0,-3.0,1.0,5.0,10.0,2.0,-3.0,1.0,1651025893791964.0,2
1273,5.0,10.0,-1.0,-1.0,-2.0,-1.0,0.0,1.0,1651025893791964.0,2
1274,-9.0,-16.0,1.0,-8.0,-11.0,-2.0,-1.0,-1.0,1651025893798958.0,2
1275,1.0,-10.0,-6.0,-1.0,0.0,0.0,0.0,0.0,1651025893798958.0,2
1276,-2.0,-24.0,-3.0,-6.0,-2.0,-2.0,-1.0,0.0,1651025893806040.0,2
1277,-12.0,-14.0,-6.0,-2.0,-1.0,-1.0,-1.0,-5.0,1651025893806040.0,2
1278,0.0,-11.0,-2.0,1.0,-5.0,-1.0,-2.0,1.0,1651025893821969.0,2
1279,-3.0,-15.0,-2.0,6.0,11.0,3.0,2.0,0.0,1651025893821969.0,2
1280,0.0,1.0,2.0,0.0,5.0,1.0,0.0,0.0,1651025893823991.0,2
1281,-1.0,-4.0,-3.0,2.0,0.0,0.0,-1.0,-2.0,1651025893823991.0,2
1282,-3.0,-20.0,-3.0,-5.0,-5.0,-3.0,0.0,-2.0,1651025893844956.0,2
1283,7.0,37.0,0.0,-2.0,-9.0,-5.0,-2.0,4.0,1651025893844956.0,2
1284,-11.0,-14.0,-6.0,-5.0,-1.0,1.0,-2.0,-4.0,1651025893845938.0,2
1285,5.0,14.0,6.0,2.0,-1.0,-1.0,-1.0,0.0,1651025893845938.0,2
1286,-5.0,-23.0,-4.0,1.0,7.0,0.0,1.0,-1.0,1651025893858904.0,2
1287,13.0,30.0,7.0,5.0,2.0,1.0,2.0,4.0,1651025893858904.0,2
1288,-1.0,-18.0,-4.0,-4.0,-2.0,-1.0,-1.0,-1.0,1651025893865912.0,2
1289,2.0,0.0,2.0,8.0,1.0,-2.0,-2.0,-3.0,1651025893865912.0,2
1290,-5.0,10.0,-1.0,-7.0,-6.0,-2.0,-3.0,-3.0,1651025893881954.0,2
1291,10.0,-1.0,-2.0,-5.0,-7.0,-1.0,0.0,4.0,1651025893881954.0,2
1292,-9.0,25.0,6.0,9.0,10.0,0.0,0.0,0.0,1651025893883882.0,2
1293,0.0,3.0,-4.0,-3.0,2.0,3.0,1.0,0.0,1651025893883882.0,2
1294,-1.0,-12.0,-1.0,-1.0,-12.0,-4.0,-1.0,-2.0,1651025893904642.0,2
1295,-5.0,-22.0,-3.0,-1.0,8.0,-1.0,-2.0,-4.0,1651025893904642.0,2
1296,3.0,10.0,1.0,-2.0,-1.0,-4.0,0.0,-1.0,1651025893906569.0,2
1297,-1.0,-9.0,-5.0,-3.0,-4.0,1.0,-1.0,3.0,1651025893906569.0,2
1298,2.0,12.0,2.0,0.0,3.0,1.0,2.0,1.0,1651025893917834.0,2
1299,4.0,19.0,-2.0,-5.0,-8.0,-1.0,-1.0,-2.0,1651025893917834.0,2
1300,-5.0,7.0,8.0,-3.0,-4.0,-3.0,-1.0,-3.0,1651025893927560.0,2
1301,2.0,11.0,-3.0,1.0,3.0,-3.0,0.0,0.0,1651025893927560.0,2
1302,-1.0,-10.0,3.0,-2.0,-2.0,0.0,-1.0,-3.0,1651025893943036.0,2
1303,-4.0,-13.0,-3.0,3.0,2.0,1.0,-1.0,-1.0,1651025893943036.0,2
1304,1.0,-3.0,1.0,2.0,3.0,1.0,2.0,1.0,1651025893944036.0,2
1305,3.0,-8.0,2.0,-3.0,-3.0,-1.0,0.0,0.0,1651025893944036.0,2
1306,2.0,28.0,1.0,-5.0,-11.0,-1.0,-2.0,-1.0,1651025893965041.0,2
1307,-6.0,-12.0,-3.0,0.0,15.0,-2.0,-2.0,-4.0,1651025893965041.0,2
1308,8.0,9.0,1.0,2.0,-12.0,-1.0,1.0,1.0,1651025893965977.0,2
1309,-14.0,-13.0,-2.0,-5.0,1.0,1.0,1.0,-2.0,1651025893965977.0,2
1310,0.0,-6.0,13.0,5.0,9.0,4.0,1.0,0.0,1651025893977915.0,2
1311,2.0,29.0,-6.0,-1.0,-1.0,1.0,1.0,3.0,1651025893977915.0,2
1312,6.0,-21.0,-8.0,-2.0,-5.0,-4.0,-3.0,1.0,1651025893986918.0,2
1313,0.0,9.0,0.0,-1.0,-4.0,-2.0,0.0,0.0,1651025893986918.0,2
1314,3.0,20.0,7.0,-6.0,-4.0,-3.0,-1.0,0.0,1651025894001915.0,2
1315,-12.0,-27.0,-10.0,3.0,1.0,3.0,1.0,1.0,1651025894001915.0,2
1316,8.0,61.0,3.0,-3.0,-1.0,-1.0,-3.0,-2.0,1651025894003866.0,2
1317,-4.0,7.0,3.0,1.0,-4.0,-2.0,-2.0,-2.0,1651025894003866.0,2
1318,0.0,2.0,-7.0,-6.0,-1.0,-3.0,-1.0,0.0,1651025894024853.0,2
1319,2.0,1.0,8.0,5.0,0.0,1.0,1.0,0.0,1651025894024853.0,2
1320,-1.0,-17.0,-5.0,3.0,4.0,1.0,1.0,0.0,1651025894025790.0,2
1321,1.0,-7.0,-3.0,-1.0,2.0,1.0,1.0,1.0,1651025894025790.0,2
1322,-3.0,-21.0,-9.0,-2.0,-2.0,-4.0,-3.0,-2.0,1651025894038755.0,2
1323,-2.0,-9.0,2.0,-8.0,-22.0,-6.0,-2.0,0.0,1651025894038755.0,2
1324,-3.0,-10.0,-7.0,0.0,17.0,3.0,0.0,0.0,1651025894047734.0,2
1325,12.0,26.0,9.0,8.0,10.0,3.0,0.0,2.0,1651025894047734.0,2
1326,4.0,9.0,-2.0,2.0,-2.0,0.0,0.0,1.0,1651025894061972.0,2
1327,0.0,3.0,0.0,-4.0,-5.0,-3.0,-3.0,-2.0,1651025894061972.0,2
1328,-3.0,-14.0,-2.0,-5.0,-9.0,-3.0,-1.0,-1.0,1651025894063996.0,2
1329,0.0,-12.0,-1.0,-8.0,-20.0,-5.0,1.0,3.0,1651025894063996.0,2
1330,-4.0,12.0,-5.0,1.0,13.0,1.0,-1.0,-5.0,1651025894085063.0,2
1331,-2.0,-11.0,4.0,10.0,22.0,6.0,0.0,-2.0,1651025894085063.0,2
1332,2.0,19.0,22.0,3.0,-6.0,2.0,1.0,2.0,1651025894086026.0,2
1333,2.0,14.0,-20.0,-5.0,0.0,-1.0,-1.0,-2.0,1651025894086026.0,2
1334,-1.0,-12.0,1.0,-3.0,-15.0,-2.0,2.0,2.0,1651025894098827.0,2
1335,-4.0,-25.0,-6.0,-6.0,-3.0,-2.0,-2.0,-1.0,1651025894098827.0,2
1336,0.0,-10.0,-3.0,0.0,4.0,1.0,0.0,-1.0,1651025894106863.0,2
1337,3.0,-2.0,0.0,3.0,2.0,3.0,1.0,3.0,1651025894106863.0,2
1338,4.0,14.0,5.0,-3.0,-6.0,-1.0,-1.0,-1.0,1651025894121765.0,2
1339,5.0,24.0,6.0,1.0,-3.0,-2.0,-1.0,0.0,1651025894121765.0,2
1340,-2.0,-14.0,1.0,3.0,1.0,1.0,3.0,0.0,1651025894123760.0,2
1341,-5.0,-14.0,3.0,9.0,11.0,1.0,-1.0,-2.0,1651025894123760.0,2
1342,-2.0,-13.0,-8.0,1.0,2.0,1.0,0.0,1.0,1651025894144881.0,2
1343,-3.0,-5.0,-1.0,-4.0,-1.0,-2.0,-1.0,-1.0,1651025894144881.0,2
1344,1.0,10.0,-1.0,-7.0,-12.0,-4.0,-1.0,0.0,1651025894145878.0,2
1345,-10.0,-14.0,1.0,0.0,-1.0,-4.0,-3.0,-3.0,1651025894145878.0,2
1346,0.0,0.0,1.0,1.0,5.0,4.0,1.0,3.0,1651025894157906.0,2
1347,-10.0,-55.0,-8.0,-8.0,-6.0,-3.0,-1.0,-5.0,1651025894157906.0,2
1348,-1.0,-15.0,-12.0,0.0,0.0,1.0,-1.0,0.0,1651025894166890.0,2
1349,-2.0,4.0,12.0,16.0,12.0,3.0,0.0,-3.0,1651025894166890.0,2
1350,5.0,1.0,5.0,4.0,4.0,0.0,1.0,2.0,1651025894181815.0,2
1351,7.0,15.0,-1.0,-2.0,-7.0,0.0,3.0,2.0,1651025894181815.0,2
1352,3.0,9.0,-6.0,-6.0,-1.0,-2.0,-1.0,0.0,1651025894183788.0,2
1353,0.0,28.0,0.0,-11.0,-8.0,-4.0,-2.0,-4.0,1651025894183788.0,2
1354,0.0,-36.0,-16.0,-6.0,-10.0,-3.0,-1.0,0.0,1651025894204860.0,2
1355,-4.0,13.0,1.0,0.0,2.0,-3.0,-1.0,2.0,1651025894204860.0,2
1356,-5.0,-16.0,3.0,6.0,12.0,-1.0,-2.0,-3.0,1651025894205860.0,2
1357,1.0,7.0,2.0,-2.0,0.0,2.0,1.0,2.0,1651025894205860.0,2
1358,-4.0,5.0,7.0,8.0,8.0,1.0,0.0,0.0,1651025894217886.0,2
1359,4.0,36.0,-1.0,3.0,2.0,5.0,1.0,1.0,1651025894217886.0,2
1360,-11.0,-12.0,-2.0,-3.0,-7.0,-6.0,-2.0,-5.0,1651025894226837.0,2
1361,-4.0,-20.0,-8.0,-9.0,-12.0,-4.0,-2.0,-2.0,1651025894226837.0,2
1362,-2.0,7.0,2.0,-5.0,-2.0,-2.0,-1.0,-3.0,1651025894242582.0,2
1363,0.0,-9.0,0.0,5.0,7.0,0.0,0.0,-1.0,1651025894242582.0,2
1364,6.0,22.0,3.0,1.0,0.0,0.0,1.0,1.0,1651025894243586.0,2
1365,-1.0,-4.0,0.0,-2.0,0.0,-2.0,-1.0,-1.0,1651025894243586.0,2
1366,7.0,6.0,-3.0,-5.0,-10.0,-2.0,-1.0,2.0,1651025894265062.0,2
1367,-24.0,-45.0,-14.0,-6.0,-4.0,-2.0,-4.0,-7.0,1651025894265062.0,2
1368,4.0,6.0,0.0,8.0,10.0,2.0,3.0,0.0,1651025894265917.0,2
1369,-4.0,-20.0,-3.0,3.0,0.0,3.0,1.0,0.0,1651025894265917.0,2
1370,-2.0,-9.0,-1.0,4.0,7.0,1.0,1.0,1.0,1651025894277912.0,2
1371,3.0,6.0,2.0,-1.0,-1.0,0.0,1.0,3.0,1651025894277912.0,2
1372,1.0,5.0,1.0,0.0,-4.0,0.0,0.0,0.0,1651025894286869.0,2
1373,-3.0,-11.0,-7.0,-6.0,-5.0,-2.0,-1.0,0.0,1651025894286869.0,2
1374,-3.0,8.0,4.0,2.0,-6.0,-4.0,0.0,-3.0,1651025894301620.0,2
1375,4.0,7.0,1.0,-3.0,2.0,3.0,-2.0,0.0,1651025894301620.0,2
1376,-7.0,-12.0,-7.0,-8.0,-8.0,-3.0,-1.0,-2.0,1651025894303550.0,2
1377,7.0,24.0,9.0,2.0,5.0,-1.0,1.0,3.0,1651025894303550.0,2
1378,-1.0,-2.0,0.0,1.0,1.0,0.0,0.0,-4.0,1651025894325090.0,2
1379,4.0,9.0,6.0,8.0,4.0,1.0,2.0,-1.0,1651025894325090.0,2
1380,0.0,-7.0,2.0,8.0,4.0,1.0,-1.0,-1.0,1651025894325881.0,2
1381,0.0,-13.0,-5.0,-1.0,-2.0,2.0,0.0,0.0,1651025894325881.0,2
1382,-2.0,2.0,-4.0,-6.0,-4.0,-3.0,-3.0,-1.0,1651025894337918.0,2
1383,2.0,0.0,0.0,-3.0,-2.0,-3.0,-1.0,0.0,1651025894337918.0,2
1384,6.0,21.0,5.0,-2.0,-6.0,0.0,1.0,2.0,1651025894346891.0,2
1385,-9.0,-65.0,-10.0,-7.0,-5.0,-1.0,-2.0,-3.0,1651025894346891.0,2
1386,0.0,-5.0,-6.0,-2.0,-3.0,1.0,-1.0,-1.0,1651025894361886.0,2
1387,3.0,18.0,10.0,8.0,14.0,1.0,0.0,1.0,1651025894361886.0,2
1388,0.0,-4.0,-2.0,0.0,1.0,1.0,1.0,2.0,1651025894363882.0,2
1389,0.0,31.0,3.0,0.0,1.0,-2.0,-1.0,-1.0,1651025894363882.0,2
1390,-6.0,-8.0,4.0,-1.0,-3.0,0.0,-2.0,0.0,1651025894384825.0,2
1391,1.0,-9.0,-8.0,-6.0,-22.0,-3.0,1.0,-1.0,1651025894384825.0,2
1392,3.0,2.0,-8.0,-2.0,13.0,-1.0,0.0,1.0,1651025894385939.0,2
1393,1.0,-3.0,3.0,2.0,8.0,2.0,1.0,-2.0,1651025894385939.0,2
1394,4.0,12.0,7.0,8.0,0.0,-1.0,2.0,2.0,1651025894397858.0,2
1395,2.0,6.0,0.0,-1.0,1.0,-1.0,1.0,0.0,1651025894397858.0,2
1396,1.0,-5.0,1.0,-6.0,-10.0,-3.0,-2.0,0.0,1651025894406831.0,2
1397,-1.0,-1.0,1.0,-8.0,-17.0,-7.0,-3.0,-3.0,1651025894406831.0,2
1398,3.0,40.0,-1.0,2.0,20.0,3.0,-1.0,-1.0,1651025894421819.0,2
1399,3.0,2.0,5.0,0.0,-8.0,-1.0,1.0,0.0,1651025894421819.0,2
1400,-2.0,-5.0,0.0,5.0,7.0,3.0,1.0,1.0,1651025894427874.0,2
1401,-1.0,-5.0,0.0,11.0,10.0,5.0,2.0,0.0,1651025894427874.0,2
1402,-2.0,7.0,1.0,-3.0,-8.0,-2.0,-1.0,0.0,1651025894444922.0,2
1403,4.0,13.0,2.0,-6.0,-3.0,-2.0,-2.0,-1.0,1651025894444922.0,2
1404,-3.0,-9.0,-7.0,-5.0,-4.0,-2.0,-1.0,-2.0,1651025894445796.0,2
1405,-1.0,13.0,0.0,-5.0,-2.0,-1.0,0.0,0.0,1651025894445796.0,2
1406,8.0,1.0,2.0,-6.0,-16.0,-1.0,1.0,4.0,1651025894466858.0,2
1407,2.0,-9.0,-3.0,3.0,7.0,-6.0,-4.0,-4.0,1651025894466858.0,2
1408,-6.0,-40.0,-2.0,0.0,9.0,5.0,-1.0,-3.0,1651025894468785.0,2
1409,2.0,2.0,5.0,12.0,5.0,3.0,3.0,1.0,1651025894468785.0,2
1410,2.0,-4.0,1.0,7.0,11.0,3.0,3.0,0.0,1651025894481750.0,2
1411,-2.0,-11.0,0.0,-4.0,-9.0,0.0,0.0,0.0,1651025894481750.0,2
1412,-2.0,7.0,-2.0,-1.0,-11.0,-5.0,0.0,-3.0,1651025894483744.0,2
1413,0.0,5.0,-6.0,-7.0,-1.0,-3.0,-3.0,0.0,1651025894483744.0,2
1414,-7.0,-20.0,-5.0,-5.0,-4.0,-1.0,-2.0,-2.0,1651025894504813.0,2
1415,-2.0,7.0,1.0,-1.0,-5.0,-1.0,0.0,0.0,1651025894504813.0,2
1416,2.0,-6.0,0.0,-1.0,8.0,-2.0,-2.0,-1.0,1651025894505886.0,2
1417,4.0,19.0,-1.0,-1.0,-5.0,-1.0,-1.0,-1.0,1651025894505886.0,2
1418,-8.0,-10.0,4.0,2.0,4.0,3.0,-2.0,0.0,1651025894534721.0,2
1419,2.0,15.0,-1.0,4.0,9.0,2.0,0.0,1.0,1651025894534721.0,2
1420,0.0,-4.0,-6.0,-6.0,-9.0,-1.0,0.0,1.0,1651025894535880.0,2
1421,-7.0,-12.0,6.0,-4.0,-5.0,-2.0,0.0,-2.0,1651025894535880.0,2
1422,-4.0,-13.0,-10.0,2.0,3.0,-2.0,-3.0,-2.0,1651025894541702.0,2
1423,-1.0,2.0,3.0,-1.0,-1.0,0.0,0.0,1.0,1651025894541702.0,2
1424,7.0,37.0,6.0,0.0,-4.0,-2.0,-1.0,0.0,1651025894543697.0,2
1425,-2.0,-25.0,-7.0,-6.0,-10.0,-3.0,-1.0,0.0,1651025894543697.0,2
1426,-7.0,-1.0,-1.0,-5.0,5.0,1.0,0.0,-2.0,1651025894564642.0,2
1427,3.0,-3.0,0.0,-1.0,0.0,3.0,1.0,1.0,1651025894564642.0,2
1428,4.0,14.0,3.0,10.0,9.0,1.0,0.0,0.0,1651025894566636.0,2
1429,-4.0,-6.0,2.0,8.0,-1.0,1.0,-1.0,0.0,1651025894566636.0,2
1430,1.0,-4.0,0.0,3.0,17.0,1.0,-1.0,0.0,1651025894586651.0,2
1431,-4.0,-25.0,-7.0,-3.0,-6.0,0.0,-2.0,-1.0,1651025894586651.0,2
1432,-4.0,-2.0,0.0,-9.0,-13.0,-3.0,-1.0,-1.0,1651025894588590.0,2
1433,9.0,28.0,4.0,-2.0,-11.0,-3.0,0.0,3.0,1651025894588590.0,2
1434,-6.0,-6.0,2.0,0.0,2.0,-3.0,-2.0,-3.0,1651025894601611.0,2
1435,-8.0,-15.0,-11.0,-3.0,-1.0,-4.0,-1.0,-1.0,1651025894601611.0,2
1436,5.0,16.0,7.0,-1.0,-7.0,1.0,-1.0,-1.0,1651025894608588.0,2
1437,-2.0,2.0,-5.0,3.0,15.0,2.0,-1.0,-2.0,1651025894608588.0,2
1438,2.0,3.0,1.0,-2.0,-8.0,-2.0,-1.0,-2.0,1651025894624508.0,2
1439,-4.0,-9.0,0.0,0.0,2.0,0.0,-2.0,-2.0,1651025894624508.0,2
1440,0.0,16.0,-1.0,3.0,0.0,1.0,2.0,0.0,1651025894626503.0,2
1441,-5.0,-6.0,1.0,-7.0,-7.0,-2.0,-4.0,-2.0,1651025894626503.0,2
1442,0.0,-2.0,-6.0,1.0,5.0,1.0,1.0,1.0,1651025894646923.0,2
1443,1.0,5.0,-6.0,-5.0,-9.0,-5.0,-2.0,-1.0,1651025894646923.0,2
1444,-4.0,-14.0,0.0,-1.0,3.0,1.0,-2.0,-1.0,1651025894648903.0,2
1445,13.0,27.0,6.0,-4.0,-13.0,-2.0,0.0,2.0,1651025894648903.0,2
1446,-5.0,-35.0,0.0,-1.0,12.0,-4.0,-1.0,-2.0,1651025894661892.0,2
1447,0.0,-4.0,-1.0,4.0,6.0,6.0,0.0,2.0,1651025894661892.0,2
1448,-5.0,-9.0,-3.0,4.0,5.0,1.0,1.0,0.0,1651025894667866.0,2
1449,2.0,13.0,-2.0,3.0,-2.0,-2.0,1.0,0.0,1651025894667866.0,2
1450,0.0,-2.0,0.0,-6.0,-9.0,-4.0,-3.0,-4.0,1651025894685017.0,2
1451,5.0,12.0,-5.0,-7.0,-1.0,-3.0,1.0,-1.0,1651025894685017.0,2
1452,-13.0,-29.0,-1.0,0.0,1.0,-2.0,-4.0,-6.0,1651025894685791.0,2
1453,-1.0,-1.0,-3.0,4.0,9.0,1.0,1.0,-2.0,1651025894685791.0,2
1454,-1.0,5.0,2.0,-4.0,-16.0,-1.0,0.0,-1.0,1651025894706887.0,2
1455,-4.0,-7.0,-3.0,-2.0,6.0,0.0,-2.0,-2.0,1651025894706887.0,2
1456,-1.0,-15.0,-3.0,-3.0,-5.0,-1.0,0.0,1.0,1651025894708818.0,2
1457,-6.0,-22.0,-6.0,-5.0,0.0,0.0,-1.0,-1.0,1651025894708818.0,2
1458,0.0,-2.0,7.0,0.0,-10.0,-2.0,-1.0,-1.0,1651025894721851.0,2
1459,-3.0,-10.0,0.0,2.0,0.0,0.0,-1.0,-1.0,1651025894721851.0,2
1460,0.0,-11.0,-11.0,-1.0,9.0,1.0,0.0,1.0,1651025894728770.0,2
1461,8.0,30.0,12.0,8.0,8.0,3.0,0.0,2.0,1651025894728770.0,2
1462,-3.0,-7.0,-11.0,-1.0,3.0,2.0,1.0,-2.0,1651025894745028.0,2
1463,4.0,1.0,5.0,8.0,-3.0,1.0,2.0,0.0,1651025894745028.0,2
1464,2.0,7.0,-10.0,-5.0,-10.0,-5.0,0.0,-2.0,1651025894745905.0,2
1465,-6.0,-61.0,-3.0,-5.0,7.0,0.0,1.0,-1.0,1651025894745905.0,2
1466,8.0,31.0,4.0,4.0,1.0,3.0,3.0,3.0,1651025894766609.0,2
1467,-12.0,23.0,7.0,0.0,-1.0,0.0,-2.0,-2.0,1651025894766609.0,2
1468,-10.0,-5.0,-20.0,-7.0,-19.0,-5.0,0.0,-8.0,1651025894773592.0,2
1469,5.0,6.0,-8.0,-1.0,8.0,0.0,-1.0,1.0,1651025894773592.0,2
1470,2.0,1.0,3.0,1.0,2.0,-3.0,-2.0,-1.0,1651025894781586.0,2
1471,7.0,6.0,23.0,2.0,2.0,2.0,0.0,3.0,1651025894781586.0,2
1472,4.0,3.0,-4.0,-3.0,7.0,2.0,1.0,4.0,1651025894788268.0,2
1473,-4.0,1.0,-2.0,-8.0,-9.0,1.0,9.0,0.0,1651025894788268.0,2
1474,0.0,4.0,2.0,25.0,8.0,-1.0,-9.0,0.0,1651025894804464.0,2
1475,3.0,10.0,-1.0,1.0,3.0,-2.0,0.0,1.0,1651025894804464.0,2
1476,1.0,18.0,21.0,-3.0,-17.0,-3.0,2.0,1.0,1651025894806410.0,2
1477,-3.0,-1.0,-12.0,-6.0,9.0,3.0,1.0,0.0,1651025894806410.0,0
1478,-7.0,-6.0,-4.0,-1.0,8.0,-4.0,-6.0,-3.0,1651025894827527.0,3
1479,0.0,-11.0,-3.0,10.0,0.0,-1.0,2.0,1.0,1651025894827527.0,3
1480,-3.0,-8.0,-15.0,-23.0,-14.0,-5.0,-10.0,-6.0,1651025894828892.0,3
1481,-3.0,-6.0,-16.0,-15.0,-8.0,1.0,23.0,11.0,1651025894828892.0,3
1482,-2.0,-6.0,3.0,-10.0,-7.0,4.0,-4.0,-3.0,1651025894841888.0,3
1483,0.0,5.0,36.0,47.0,11.0,-8.0,-16.0,-8.0,1651025894841888.0,3
1484,9.0,18.0,11.0,-12.0,2.0,-2.0,3.0,1.0,1651025894847818.0,3
1485,15.0,4.0,2.0,47.0,19.0,-5.0,9.0,5.0,1651025894847818.0,3
1486,-18.0,16.0,2.0,-34.0,-14.0,14.0,18.0,6.0,1651025894864947.0,3
1487,21.0,-15.0,-42.0,-41.0,-17.0,-12.0,-2.0,-13.0,1651025894864947.0,3
1488,-85.0,3.0,51.0,74.0,40.0,19.0,31.0,8.0,1651025894865853.0,3
1489,51.0,-26.0,-3.0,-29.0,4.0,58.0,-31.0,2.0,1651025894865853.0,3
1490,-30.0,-20.0,-56.0,18.0,3.0,-54.0,-32.0,-21.0,1651025894886860.0,3
1491,41.0,31.0,30.0,-7.0,4.0,64.0,55.0,34.0,1651025894886860.0,3
1492,60.0,18.0,-14.0,-54.0,-25.0,-24.0,3.0,17.0,1651025894888814.0,3
1493,-78.0,1.0,20.0,17.0,-29.0,-56.0,-90.0,-76.0,1651025894888814.0,3
1494,-6.0,-16.0,-6.0,-18.0,-1.0,32.0,94.0,10.0,1651025894900827.0,3
1495,-41.0,-20.0,2.0,48.0,32.0,-5.0,-17.0,4.0,1651025894900827.0,3
1496,26.0,-21.0,-47.0,-36.0,-9.0,-16.0,-23.0,13.0,1651025894909735.0,3
1497,-18.0,36.0,48.0,17.0,-1.0,-2.0,11.0,23.0,1651025894909735.0,3
1498,87.0,26.0,11.0,30.0,11.0,19.0,43.0,4.0,1651025894931786.0,3
1499,-12.0,-4.0,-41.0,-28.0,-11.0,-24.0,-43.0,-30.0,1651025894931786.0,3
1500,-38.0,-12.0,80.0,107.0,51.0,43.0,60.0,17.0,1651025894933779.0,3
1501,-18.0,-33.0,-67.0,-99.0,-43.0,-63.0,-99.0,-53.0,1651025894933779.0,3
1502,-33.0,-5.0,13.0,30.0,-13.0,-53.0,-23.0,-15.0,1651025894946874.0,3
1503,28.0,18.0,-13.0,-75.0,-24.0,18.0,58.0,14.0,1651025894946874.0,3
1504,-9.0,-13.0,-71.0,-89.0,-34.0,24.0,16.0,-7.0,1651025894948858.0,3
1505,18.0,17.0,46.0,83.0,44.0,-23.0,-9.0,6.0,1651025894948858.0,3
1506,20.0,-15.0,-25.0,-77.0,5.0,61.0,-5.0,18.0,1651025894960888.0,3
1507,-45.0,16.0,67.0,114.0,32.0,-23.0,-1.0,-7.0,1651025894960888.0,3
1508,31.0,-8.0,3.0,-28.0,-26.0,-17.0,-75.0,-19.0,1651025894969804.0,3
1509,-44.0,-11.0,-42.0,-28.0,-10.0,33.0,86.0,-9.0,1651025894969804.0,3
1510,-33.0,-6.0,6.0,-11.0,-17.0,-29.0,-119.0,-18.0,1651025894984787.0,3
1511,76.0,-19.0,-17.0,-26.0,-5.0,-3.0,-6.0,14.0,1651025894984787.0,3
1512,2.0,9.0,1.0,4.0,-2.0,-12.0,33.0,1.0,1651025894985875.0,3
1513,22.0,26.0,24.0,29.0,17.0,23.0,54.0,26.0,1651025894985875.0,3
1514,-4.0,-17.0,-20.0,-34.0,-11.0,-3.0,-7.0,3.0,1651025895006766.0,3
1515,-24.0,8.0,2.0,29.0,0.0,-9.0,-11.0,-4.0,1651025895006766.0,3
1516,-23.0,-18.0,-16.0,-27.0,4.0,-5.0,-6.0,-18.0,1651025895008696.0,3
1517,15.0,9.0,8.0,-2.0,8.0,10.0,18.0,30.0,1651025895008696.0,3
1518,1.0,21.0,50.0,44.0,9.0,6.0,16.0,-4.0,1651025895020664.0,3
1519,-50.0,-6.0,-39.0,-53.0,-26.0,-18.0,-11.0,-9.0,1651025895020664.0,3
1520,88.0,1.0,3.0,18.0,4.0,-4.0,-4.0,12.0,1651025895029907.0,3
1521,-18.0,14.0,1.0,-13.0,6.0,18.0,8.0,-2.0,1651025895029907.0,3
1522,-4.0,-1.0,4.0,4.0,-11.0,-27.0,42.0,15.0,1651025895044958.0,3
1523,-44.0,-52.0,-37.0,-25.0,-7.0,22.0,-63.0,-34.0,1651025895044958.0,3
1524,-5.0,29.0,35.0,39.0,18.0,-3.0,-17.0,-3.0,1651025895045865.0,3
1525,30.0,-17.0,-18.0,-21.0,-11.0,9.0,-2.0,12.0,1651025895045865.0,3
1526,8.0,5.0,-15.0,-20.0,-4.0,-22.0,14.0,-15.0,1651025895066810.0,3
1527,44.0,-3.0,4.0,0.0,14.0,43.0,69.0,50.0,1651025895066810.0,3
1528,-7.0,11.0,3.0,9.0,-4.0,-7.0,-63.0,-17.0,1651025895068553.0,3
1529,28.0,6.0,-13.0,-37.0,-7.0,-8.0,46.0,24.0,1651025895068553.0,3
1530,-14.0,21.0,41.0,56.0,19.0,-4.0,-72.0,-5.0,1651025895081026.0,3
1531,22.0,-5.0,18.0,26.0,2.0,-22.0,-6.0,-7.0,1651025895081026.0,3
1532,-13.0,-9.0,-22.0,-10.0,-11.0,-4.0,-1.0,-9.0,1651025895090001.0,3
1533,-18.0,-8.0,-34.0,-55.0,-16.0,3.0,33.0,9.0,1651025895090001.0,3
1534,27.0,5.0,12.0,22.0,8.0,12.0,-9.0,6.0,1651025895105085.0,3
1535,10.0,10.0,-5.0,-31.0,-1.0,-5.0,15.0,10.0,1651025895105085.0,3
1536,-26.0,10.0,36.0,41.0,14.0,7.0,-9.0,-10.0,1651025895105959.0,3
1537,-21.0,-16.0,-13.0,1.0,-14.0,-13.0,-37.0,-19.0,1651025895105959.0,3
1538,5.0,12.0,-1.0,-9.0,2.0,19.0,30.0,17.0,1651025895126933.0,3
1539,-25.0,-6.0,-9.0,-18.0,-15.0,-15.0,0.0,-5.0,1651025895126933.0,3
1540,-17.0,-12.0,-21.0,-8.0,-7.0,-29.0,21.0,-15.0,1651025895128910.0,3
1541,3.0,0.0,8.0,18.0,17.0,39.0,-46.0,-1.0,1651025895128910.0,3
1542,-26.0,-4.0,-12.0,-25.0,-18.0,-29.0,-29.0,-11.0,1651025895140866.0,3
1543,-17.0,-2.0,10.0,2.0,16.0,28.0,45.0,-6.0,1651025895140866.0,3
1544,-35.0,-16.0,1.0,11.0,-6.0,13.0,-19.0,4.0,1651025895149847.0,3
1545,-3.0,-6.0,13.0,8.0,0.0,-7.0,7.0,-28.0,1651025895149847.0,3
1546,-46.0,1.0,7.0,40.0,15.0,16.0,15.0,5.0,1651025895164802.0,3
1547,53.0,-2.0,-8.0,-8.0,-15.0,-24.0,-38.0,-11.0,1651025895164802.0,3
1548,-1.0,17.0,2.0,-10.0,6.0,1.0,30.0,8.0,1651025895165903.0,3
1549,-25.0,6.0,13.0,16.0,6.0,1.0,-4.0,13.0,1651025895165903.0,3
1550,73.0,-17.0,-11.0,-16.0,-3.0,0.0,-6.0,2.0,1651025895186811.0,3
1551,-19.0,14.0,10.0,-19.0,-12.0,-6.0,4.0,-2.0,1651025895186811.0,3
1552,21.0,0.0,-5.0,7.0,3.0,5.0,-2.0,8.0,1651025895188738.0,3
1553,5.0,14.0,-18.0,-34.0,-3.0,5.0,66.0,30.0,1651025895188738.0,3
1554,-35.0,-19.0,-9.0,8.0,-6.0,-12.0,-63.0,-44.0,1651025895200774.0,3
1555,0.0,0.0,31.0,48.0,15.0,3.0,-12.0,7.0,1651025895200774.0,3
1556,-7.0,-8.0,-14.0,-30.0,-10.0,-3.0,7.0,-1.0,1651025895209701.0,3
1557,17.0,7.0,13.0,12.0,3.0,-1.0,2.0,9.0,1651025895209701.0,3
1558,12.0,7.0,5.0,-4.0,-2.0,9.0,24.0,19.0,1651025895225011.0,3
1559,-14.0,-9.0,-16.0,-16.0,-9.0,-2.0,1.0,-10.0,1651025895225011.0,3
1560,0.0,16.0,16.0,13.0,11.0,9.0,-17.0,8.0,1651025895225895.0,3
1561,5.0,-13.0,1.0,23.0,-3.0,-7.0,5.0,-7.0,1651025895225895.0,3
1562,-14.0,-19.0,-10.0,-19.0,-7.0,6.0,15.0,-9.0,1651025895246838.0,3
1563,1.0,3.0,-9.0,-8.0,0.0,3.0,-23.0,1.0,1651025895246838.0,3
1564,-18.0,-12.0,-22.0,-48.0,-9.0,5.0,2.0,-10.0,1651025895248834.0,3
1565,-12.0,-9.0,-2.0,8.0,7.0,-12.0,-30.0,-16.0,1651025895248834.0,3
1566,34.0,3.0,20.0,14.0,9.0,2.0,-2.0,8.0,1651025895260895.0,3
1567,-5.0,11.0,-9.0,-33.0,-11.0,-8.0,41.0,1.0,1651025895260895.0,3
1568,-18.0,3.0,22.0,42.0,10.0,-1.0,10.0,13.0,1651025895269614.0,3
1569,21.0,1.0,-5.0,-13.0,-14.0,-10.0,-28.0,-15.0,1651025895269614.0,3
1570,-11.0,-17.0,-13.0,-20.0,-10.0,10.0,42.0,-2.0,1651025895285152.0,3
1571,-20.0,9.0,0.0,6.0,-1.0,-5.0,4.0,8.0,1651025895285152.0,3
1572,30.0,7.0,-21.0,-32.0,-1.0,5.0,15.0,5.0,1651025895286038.0,3
1573,25.0,4.0,26.0,19.0,13.0,4.0,-29.0,10.0,1651025895286038.0,3
1574,-1.0,-5.0,-28.0,-23.0,-11.0,-9.0,33.0,11.0,1651025895306985.0,3
1575,-4.0,11.0,29.0,56.0,18.0,12.0,-51.0,-11.0,1651025895306985.0,3
1576,0.0,-13.0,6.0,-1.0,-13.0,-14.0,17.0,-11.0,1651025895308915.0,3
1577,-23.0,-10.0,-7.0,3.0,-5.0,-2.0,36.0,21.0,1651025895308915.0,3
1578,6.0,10.0,3.0,-6.0,2.0,7.0,-23.0,-15.0,1651025895320950.0,3
1579,22.0,-4.0,-19.0,-31.0,-2.0,-6.0,-24.0,-5.0,1651025895320950.0,3
1580,-29.0,5.0,13.0,28.0,4.0,17.0,103.0,40.0,1651025895329858.0,3
1581,60.0,-11.0,15.0,53.0,27.0,-9.0,-86.0,-17.0,1651025895329858.0,3
1582,-13.0,4.0,-26.0,-61.0,-20.0,-8.0,17.0,4.0,1651025895345016.0,3
1583,-32.0,-13.0,0.0,18.0,-7.0,-7.0,-2.0,-2.0,1651025895345016.0,3
1584,37.0,27.0,19.0,35.0,15.0,-2.0,9.0,-8.0,1651025895345896.0,3
1585,-50.0,-18.0,-11.0,-43.0,-16.0,-3.0,27.0,-2.0,1651025895345896.0,3
1586,4.0,4.0,-10.0,1.0,-3.0,10.0,-6.0,-5.0,1651025895366851.0,3
1587,20.0,19.0,34.0,51.0,16.0,-20.0,-55.0,-2.0,1651025895366851.0,3
1588,23.0,-5.0,0.0,-5.0,-3.0,-6.0,-17.0,-4.0,1651025895368835.0,3
1589,5.0,9.0,-13.0,-21.0,-6.0,1.0,18.0,8.0,1651025895368835.0,3
1590,-4.0,5.0,0.0,4.0,8.0,13.0,49.0,17.0,1651025895389929.0,3
1591,-29.0,-10.0,23.0,43.0,6.0,-3.0,6.0,-13.0,1651025895389929.0,3
1592,12.0,-25.0,-33.0,-31.0,-9.0,-2.0,-36.0,-10.0,1651025895390862.0,3
1593,6.0,8.0,9.0,6.0,-5.0,-34.0,-66.0,-16.0,1651025895390862.0,3
1594,16.0,-1.0,4.0,5.0,3.0,-1.0,49.0,19.0,1651025895405035.0,3
1595,-70.0,-1.0,-32.0,-51.0,-17.0,1.0,6.0,-8.0,1651025895405035.0,3
1596,65.0,-8.0,-7.0,-14.0,-1.0,-6.0,-58.0,2.0,1651025895406819.0,3
1597,-44.0,-4.0,13.0,48.0,-2.0,-2.0,23.0,-7.0,1651025895406819.0,3
1598,-2.0,8.0,7.0,0.0,7.0,26.0,33.0,6.0,1651025895427668.0,3
1599,17.0,-3.0,-1.0,-5.0,6.0,9.0,-12.0,0.0,1651025895427668.0,3
1600,-20.0,7.0,9.0,-10.0,0.0,-3.0,-24.0,-7.0,1651025895428665.0,3
1601,28.0,6.0,-3.0,-21.0,-12.0,1.0,30.0,18.0,1651025895428665.0,3
1602,-22.0,-25.0,-14.0,9.0,-9.0,-16.0,-27.0,-12.0,1651025895449608.0,3
1603,10.0,4.0,-5.0,-6.0,20.0,12.0,39.0,14.0,1651025895449608.0,3
1604,-3.0,1.0,2.0,-4.0,-5.0,-5.0,-19.0,-22.0,1651025895451631.0,3
1605,-4.0,2.0,4.0,-6.0,-3.0,-3.0,8.0,10.0,1651025895451631.0,3
1606,9.0,4.0,4.0,9.0,3.0,1.0,-37.0,-1.0,1651025895463570.0,3
1607,20.0,2.0,-12.0,-26.0,-7.0,5.0,21.0,-2.0,1651025895463570.0,3
1608,5.0,4.0,5.0,3.0,-5.0,-24.0,17.0,7.0,1651025895470553.0,3
1609,3.0,-5.0,4.0,7.0,3.0,16.0,29.0,-9.0,1651025895470553.0,3
1610,-14.0,-1.0,-2.0,1.0,3.0,26.0,-13.0,11.0,1651025895487544.0,3
1611,-10.0,-9.0,0.0,-18.0,-9.0,-8.0,-25.0,-14.0,1651025895487544.0,3
1612,40.0,5.0,1.0,11.0,9.0,8.0,26.0,24.0,1651025895488512.0,3
1613,-16.0,-8.0,-21.0,-22.0,-7.0,-11.0,36.0,-8.0,1651025895488512.0,3
1614,32.0,15.0,20.0,32.0,11.0,-11.0,-19.0,7.0,1651025895509979.0,3
1615,27.0,1.0,2.0,-1.0,-6.0,-8.0,22.0,-1.0,1651025895509979.0,3
1616,-30.0,-10.0,-10.0,-26.0,-16.0,-3.0,-14.0,-10.0,1651025895510940.0,3
1617,-2.0,-1.0,-11.0,-8.0,4.0,7.0,1.0,-4.0,1651025895510940.0,3
1618,-12.0,0.0,25.0,30.0,12.0,-4.0,13.0,-2.0,1651025895524140.0,3
1619,-7.0,2.0,-31.0,-33.0,-14.0,1.0,14.0,6.0,1651025895524140.0,3
1620,0.0,-1.0,10.0,34.0,16.0,8.0,-8.0,1.0,1651025895531132.0,3
1621,-7.0,3.0,8.0,14.0,3.0,7.0,27.0,10.0,1651025895531132.0,3
1622,-43.0,-8.0,-19.0,-40.0,-19.0,-7.0,-61.0,-21.0,1651025895546929.0,3
1623,29.0,-6.0,17.0,22.0,12.0,-11.0,-33.0,-5.0,1651025895546929.0,3
1624,-30.0,-7.0,-11.0,-4.0,5.0,6.0,0.0,-9.0,1651025895548896.0,3
1625,33.0,11.0,8.0,2.0,-2.0,6.0,-4.0,10.0,1651025895548896.0,3
1626,-18.0,-3.0,-13.0,-16.0,-13.0,-12.0,10.0,-13.0,1651025895570022.0,3
1627,11.0,-6.0,-9.0,-17.0,-14.0,3.0,31.0,11.0,1651025895570022.0,3
1628,-9.0,-7.0,11.0,25.0,13.0,5.0,-12.0,-8.0,1651025895570988.0,3
1629,-6.0,7.0,2.0,0.0,2.0,-2.0,-20.0,7.0,1651025895570988.0,3
1630,40.0,14.0,7.0,-4.0,-5.0,12.0,21.0,8.0,1651025895583623.0,3
1631,-6.0,-2.0,-12.0,-14.0,3.0,10.0,0.0,4.0,1651025895583623.0,3
1632,-11.0,7.0,22.0,36.0,9.0,1.0,52.0,9.0,1651025895590676.0,3
1633,7.0,1.0,0.0,9.0,3.0,-22.0,-99.0,-33.0,1651025895590676.0,3
1634,-17.0,0.0,-4.0,-21.0,-16.0,-15.0,-15.0,-4.0,1651025895607481.0,3
1635,16.0,5.0,-4.0,24.0,13.0,1.0,10.0,13.0,1651025895607481.0,3
1636,-42.0,-25.0,-7.0,-9.0,-7.0,6.0,12.0,-12.0,1651025895608858.0,3
1637,8.0,17.0,-10.0,-30.0,-5.0,9.0,29.0,6.0,1651025895608858.0,3
1638,-3.0,0.0,15.0,37.0,14.0,1.0,16.0,-1.0,1651025895629801.0,3
1639,-19.0,3.0,2.0,-5.0,-5.0,-10.0,-31.0,-3.0,1651025895629801.0,3
1640,9.0,0.0,-25.0,-53.0,-20.0,1.0,5.0,5.0,1651025895630800.0,3
1641,-5.0,-3.0,24.0,66.0,16.0,12.0,34.0,7.0,1651025895630800.0,3
1642,-29.0,0.0,21.0,1.0,9.0,-2.0,-11.0,-6.0,1651025895643764.0,3
1643,55.0,-29.0,-38.0,-8.0,-16.0,-12.0,20.0,0.0,1651025895643764.0,3
1644,-9.0,5.0,11.0,-13.0,10.0,7.0,-11.0,-9.0,1651025895650804.0,3
1645,2.0,-2.0,-5.0,-22.0,-8.0,18.0,14.0,2.0,1651025895650804.0,3
1646,11.0,9.0,-4.0,0.0,1.0,-3.0,-5.0,7.0,1651025895666771.0,3
1647,-33.0,6.0,9.0,-10.0,-4.0,13.0,30.0,2.0,1651025895666771.0,3
1648,13.0,1.0,6.0,19.0,-1.0,-18.0,-40.0,-6.0,1651025895668698.0,3
1649,-14.0,0.0,6.0,-1.0,-2.0,-3.0,-14.0,-2.0,1651025895668698.0,3
1650,-4.0,0.0,-20.0,-11.0,4.0,-1.0,-5.0,-5.0,1651025895690000.0,3
1651,30.0,3.0,6.0,-7.0,4.0,1.0,1.0,7.0,1651025895690000.0,3
1652,-39.0,-11.0,-18.0,-19.0,-5.0,6.0,38.0,-10.0,1651025895690937.0,3
1653,-6.0,2.0,-9.0,-14.0,-2.0,-3.0,-20.0,10.0,1651025895690937.0,3
1654,20.0,-3.0,10.0,13.0,3.0,-1.0,-6.0,10.0,1651025895704405.0,3
1655,-22.0,5.0,-9.0,-29.0,-15.0,-8.0,-2.0,-10.0,1651025895704405.0,3
1656,7.0,8.0,20.0,31.0,5.0,-2.0,-35.0,-12.0,1651025895710888.0,3
1657,5.0,1.0,2.0,9.0,0.0,2.0,21.0,0.0,1651025895710888.0,3
1658,3.0,-8.0,-30.0,-46.0,-12.0,-1.0,23.0,0.0,1651025895727001.0,3
1659,-22.0,17.0,27.0,13.0,-2.0,6.0,-16.0,-2.0,1651025895727001.0,3
1660,77.0,-2.0,15.0,31.0,25.0,0.0,9.0,26.0,1651025895728926.0,3
1661,-3.0,-13.0,-19.0,-26.0,-5.0,0.0,9.0,-12.0,1651025895728926.0,3
1662,13.0,2.0,8.0,21.0,7.0,-8.0,-19.0,-4.0,1651025895749931.0,3
1663,-36.0,5.0,-11.0,-37.0,-20.0,5.0,28.0,-2.0,1651025895749931.0,3
1664,-4.0,0.0,-4.0,0.0,-5.0,5.0,-2.0,4.0,1651025895750867.0,3
1665,0.0,-13.0,-8.0,-5.0,3.0,-2.0,9.0,3.0,1651025895750867.0,3
1666,-7.0,-1.0,2.0,5.0,11.0,7.0,-19.0,-6.0,1651025895763843.0,3
1667,21.0,-5.0,9.0,27.0,9.0,6.0,-6.0,-4.0,1651025895763843.0,3
1668,-5.0,1.0,-13.0,-29.0,-18.0,-12.0,-16.0,-8.0,1651025895770824.0,3
1669,9.0,-1.0,-13.0,3.0,-5.0,-7.0,15.0,4.0,1651025895770824.0,3
1670,-45.0,5.0,31.0,29.0,11.0,7.0,16.0,-2.0,1651025895786834.0,3
1671,65.0,-2.0,-8.0,-12.0,0.0,-12.0,-10.0,20.0,1651025895786834.0,3
1672,-8.0,-8.0,-17.0,-7.0,-18.0,-7.0,-6.0,-7.0,1651025895788766.0,3
1673,-20.0,-4.0,0.0,-13.0,9.0,16.0,11.0,1.0,1651025895788766.0,3
1674,20.0,6.0,-14.0,-19.0,1.0,5.0,17.0,7.0,1651025895810036.0,3
1675,-22.0,-2.0,16.0,27.0,12.0,-3.0,-35.0,-8.0,1651025895810036.0,3
1676,4.0,3.0,-4.0,2.0,0.0,-6.0,13.0,7.0,1651025895810972.0,3
1677,-6.0,-5.0,-9.0,-16.0,-23.0,-26.0,-24.0,-11.0,1651025895810972.0,3
1678,-8.0,-3.0,-3.0,-7.0,-16.0,22.0,18.0,-4.0,1651025895824006.0,3
1679,-6.0,-6.0,10.0,15.0,14.0,19.0,12.0,4.0,1651025895824006.0,3
1680,7.0,7.0,-12.0,-25.0,-6.0,-22.0,-53.0,-10.0,1651025895830919.0,3
1681,-11.0,0.0,2.0,-1.0,-1.0,-10.0,1.0,-6.0,1651025895830919.0,3
1682,13.0,-6.0,-7.0,-10.0,-5.0,-20.0,-31.0,-14.0,1651025895847099.0,3
1683,-42.0,2.0,13.0,30.0,14.0,11.0,54.0,24.0,1651025895847099.0,3
1684,3.0,6.0,-7.0,-8.0,-5.0,3.0,-12.0,-4.0,1651025895849053.0,3
1685,6.0,-3.0,7.0,2.0,0.0,-2.0,-7.0,0.0,1651025895849053.0,3
1686,8.0,2.0,1.0,10.0,-5.0,-4.0,20.0,10.0,1651025895869838.0,3
1687,-20.0,-5.0,11.0,27.0,11.0,8.0,5.0,-11.0,1651025895869838.0,3
1688,0.0,9.0,14.0,6.0,19.0,16.0,14.0,17.0,1651025895870835.0,3
1689,3.0,4.0,4.0,23.0,11.0,-2.0,-3.0,-10.0,1651025895870835.0,3
1690,0.0,-6.0,-21.0,-28.0,-14.0,-17.0,-9.0,-7.0,1651025895883573.0,3
1691,-9.0,-6.0,-13.0,-18.0,-18.0,-18.0,-29.0,-11.0,1651025895883573.0,3
1692,7.0,1.0,3.0,-3.0,-11.0,19.0,21.0,11.0,1651025895892551.0,3
1693,-1.0,1.0,0.0,2.0,14.0,14.0,3.0,5.0,1651025895892551.0,3
1694,0.0,-2.0,1.0,2.0,1.0,9.0,-1.0,7.0,1651025895907477.0,3
1695,11.0,-6.0,-7.0,-10.0,-8.0,-22.0,-17.0,-11.0,1651025895907477.0,3
1696,-17.0,4.0,7.0,7.0,-21.0,-16.0,3.0,-7.0,1651025895908868.0,3
1697,4.0,1.0,-21.0,-28.0,8.0,14.0,16.0,14.0,1651025895908868.0,3
1698,4.0,0.0,26.0,7.0,20.0,-6.0,-29.0,-9.0,1651025895929628.0,3
1699,4.0,3.0,4.0,2.0,2.0,-3.0,-2.0,-5.0,1651025895929628.0,3
1700,-11.0,-3.0,-4.0,1.0,-1.0,10.0,10.0,3.0,1651025895931557.0,3
1701,-10.0,-2.0,4.0,7.0,-7.0,-11.0,-15.0,-10.0,1651025895931557.0,3
1702,8.0,-7.0,-2.0,6.0,4.0,10.0,10.0,5.0,1651025895942897.0,3
1703,-6.0,4.0,-13.0,-17.0,-2.0,0.0,-5.0,-6.0,1651025895942897.0,3
1704,-9.0,-5.0,2.0,-5.0,-21.0,-4.0,-3.0,2.0,1651025895951907.0,3
1705,11.0,5.0,7.0,3.0,-2.0,-11.0,-7.0,1.0,1651025895951907.0,3
1706,1.0,-4.0,0.0,7.0,-2.0,-8.0,6.0,2.0,1651025895966992.0,3
1707,6.0,0.0,-1.0,-4.0,19.0,14.0,-7.0,-2.0,1651025895966992.0,3
1708,-5.0,-2.0,-8.0,-7.0,2.0,-5.0,17.0,5.0,1651025895968989.0,3
1709,-20.0,1.0,8.0,9.0,-5.0,8.0,-12.0,-11.0,1651025895968989.0,3
1710,-5.0,-7.0,-7.0,-13.0,-12.0,2.0,-3.0,3.0,1651025895989975.0,3
1711,-3.0,-3.0,-3.0,2.0,-3.0,-10.0,-3.0,-6.0,1651025895989975.0,3
1712,-6.0,-1.0,-7.0,-12.0,2.0,-6.0,1.0,1.0,1651025895990905.0,3
1713,12.0,5.0,4.0,-3.0,4.0,5.0,9.0,7.0,1651025895990905.0,3
1714,-6.0,-6.0,1.0,7.0,0.0,8.0,-5.0,-1.0,1651025896002940.0,3
1715,1.0,-1.0,2.0,22.0,5.0,-11.0,-1.0,-3.0,1651025896002940.0,3
1716,-1.0,-2.0,-4.0,-2.0,12.0,16.0,6.0,4.0,1651025896011891.0,3
1717,5.0,-1.0,4.0,3.0,-14.0,-13.0,-13.0,-5.0,1651025896011891.0,3
1718,2.0,8.0,-5.0,6.0,4.0,-3.0,7.0,3.0,1651025896027029.0,3
1719,1.0,-5.0,-8.0,-19.0,-10.0,-2.0,1.0,-1.0,1651025896027029.0,3
1720,-4.0,0.0,4.0,5.0,4.0,-3.0,-4.0,-5.0,1651025896028979.0,3
1721,4.0,0.0,-2.0,6.0,-14.0,1.0,6.0,3.0,1651025896028979.0,3
1722,-3.0,-4.0,-4.0,-10.0,14.0,3.0,9.0,1.0,1651025896049900.0,3
1723,3.0,-2.0,8.0,12.0,-2.0,-1.0,-22.0,0.0,1651025896049900.0,3
1724,-4.0,-3.0,-5.0,-9.0,-15.0,-25.0,-9.0,-9.0,1651025896050910.0,3
1725,-2.0,-2.0,4.0,0.0,12.0,21.0,4.0,1.0,1651025896050910.0,3
1726,-1.0,2.0,1.0,9.0,21.0,-2.0,6.0,1.0,1651025896072033.0,3
1727,1.0,8.0,-5.0,-14.0,-10.0,9.0,18.0,7.0,1651025896072033.0,3
1728,-3.0,-5.0,2.0,4.0,1.0,1.0,-10.0,-10.0,1651025896073962.0,3
1729,2.0,-1.0,2.0,9.0,0.0,-12.0,-8.0,-1.0,1651025896073962.0,3
1730,3.0,1.0,-8.0,-12.0,-14.0,-7.0,-2.0,1.0,1651025896086635.0,3
1731,2.0,0.0,-3.0,-12.0,-4.0,0.0,4.0,3.0,1651025896086635.0,3
1732,-14.0,-3.0,0.0,4.0,6.0,2.0,0.0,-5.0,1651025896088633.0,3
1733,0.0,-3.0,-5.0,-14.0,-10.0,-2.0,0.0,-3.0,1651025896088633.0,3
1734,-3.0,2.0,8.0,-4.0,3.0,-5.0,-4.0,-6.0,1651025896109738.0,3
1735,4.0,3.0,6.0,18.0,5.0,2.0,1.0,9.0,1651025896109738.0,3
1736,9.0,2.0,-5.0,7.0,4.0,9.0,8.0,5.0,1651025896110669.0,3
1737,-17.0,-3.0,-2.0,-4.0,-2.0,-7.0,-10.0,-12.0,1651025896110669.0,3
1738,-2.0,1.0,10.0,21.0,6.0,5.0,-3.0,2.0,1651025896123634.0,3
1739,3.0,-2.0,0.0,-4.0,-9.0,1.0,9.0,2.0,1651025896123634.0,3
1740,6.0,4.0,6.0,-1.0,5.0,0.0,-6.0,-2.0,1651025896132611.0,3
1741,4.0,2.0,-6.0,-1.0,10.0,1.0,5.0,5.0,1651025896132611.0,3
1742,-11.0,-2.0,-5.0,-12.0,-21.0,-8.0,-11.0,-10.0,1651025896147629.0,3
1743,6.0,-8.0,-9.0,-2.0,7.0,8.0,13.0,7.0,1651025896147629.0,3
1744,-4.0,-1.0,-1.0,-1.0,-3.0,-8.0,-3.0,-5.0,1651025896148629.0,3
1745,4.0,-1.0,1.0,2.0,-5.0,-6.0,-12.0,-2.0,1651025896148629.0,3
1746,2.0,-1.0,2.0,5.0,-6.0,-1.0,-4.0,-4.0,1651025896169515.0,3
1747,-7.0,-3.0,0.0,-5.0,6.0,-1.0,1.0,-3.0,1651025896169515.0,3
1748,4.0,1.0,2.0,5.0,3.0,3.0,5.0,5.0,1651025896171536.0,3
1749,1.0,5.0,4.0,5.0,4.0,2.0,2.0,-1.0,1651025896171536.0,3
1750,6.0,0.0,-2.0,8.0,0.0,-2.0,1.0,-3.0,1651025896183552.0,3
1751,-1.0,0.0,4.0,3.0,-20.0,2.0,-3.0,-2.0,1651025896183552.0,3
1752,2.0,0.0,-7.0,-11.0,26.0,5.0,1.0,2.0,1651025896198491.0,3
1753,-1.0,-1.0,-1.0,-11.0,-13.0,-1.0,2.0,2.0,1651025896198491.0,3
1754,3.0,3.0,5.0,11.0,17.0,1.0,3.0,4.0,1651025896207511.0,3
1755,0.0,1.0,-12.0,-19.0,-12.0,-11.0,-7.0,-6.0,1651025896207511.0,3
1756,-2.0,-5.0,4.0,25.0,8.0,7.0,4.0,3.0,1651025896208465.0,3
1757,1.0,0.0,5.0,-1.0,-19.0,-4.0,-1.0,1.0,1651025896208465.0,3
1758,4.0,2.0,-7.0,-14.0,1.0,3.0,4.0,4.0,1651025896230003.0,3
1759,-1.0,0.0,1.0,-1.0,-5.0,-4.0,-5.0,-3.0,1651025896230003.0,3
1760,3.0,10.0,4.0,-5.0,-3.0,-3.0,-2.0,-1.0,1651025896230937.0,3
1761,-2.0,-15.0,-17.0,4.0,17.0,1.0,-2.0,-3.0,1651025896230937.0,3
1762,0.0,-10.0,-4.0,-2.0,-10.0,6.0,5.0,6.0,1651025896252255.0,3
1763,-3.0,5.0,0.0,-7.0,0.0,1.0,-2.0,-5.0,1651025896252255.0,3
1764,-1.0,7.0,18.0,-1.0,-11.0,-7.0,7.0,4.0,1651025896253214.0,3
1765,4.0,6.0,-8.0,-5.0,-3.0,12.0,-14.0,-12.0,1651025896253214.0,3
1766,1.0,1.0,4.0,1.0,6.0,1.0,5.0,6.0,1651025896267487.0,3
1767,0.0,4.0,6.0,0.0,-20.0,-10.0,-5.0,-2.0,1651025896267487.0,3
1768,3.0,2.0,-6.0,-3.0,15.0,2.0,9.0,6.0,1651025896268892.0,3
1769,-2.0,-6.0,11.0,12.0,26.0,-3.0,-1.0,0.0,1651025896268892.0,3
1770,-1.0,-3.0,-3.0,-9.0,-12.0,2.0,-2.0,-5.0,1651025896289932.0,3
1771,2.0,3.0,-6.0,6.0,9.0,1.0,0.0,0.0,1651025896289932.0,3
1772,-5.0,-13.0,2.0,3.0,-11.0,-4.0,-3.0,-1.0,1651025896290873.0,3
1773,0.0,2.0,-5.0,-15.0,-21.0,-15.0,-5.0,-2.0,1651025896290873.0,3
1774,-3.0,8.0,-18.0,-4.0,2.0,6.0,3.0,-4.0,1651025896302898.0,3
1775,7.0,6.0,15.0,5.0,7.0,0.0,3.0,4.0,1651025896302898.0,3
1776,-3.0,-7.0,16.0,-2.0,-4.0,3.0,-4.0,-5.0,1651025896317857.0,3
1777,-6.0,-9.0,-24.0,3.0,9.0,5.0,5.0,0.0,1651025896317857.0,3
1778,-4.0,-15.0,-2.0,-15.0,-16.0,-9.0,-6.0,-12.0,1651025896326885.0,3
1779,-7.0,-15.0,-11.0,7.0,16.0,2.0,0.0,2.0,1651025896326885.0,3
1780,6.0,14.0,-9.0,-11.0,-10.0,4.0,5.0,9.0,1651025896328934.0,3
1781,2.0,-20.0,21.0,7.0,-1.0,3.0,1.0,5.0,1651025896328934.0,3
1782,2.0,14.0,-6.0,5.0,6.0,-2.0,5.0,5.0,1651025896356854.0,3
1783,-6.0,5.0,0.0,-4.0,3.0,2.0,-2.0,-1.0,1651025896356854.0,3
1784,3.0,10.0,6.0,2.0,-1.0,-1.0,-4.0,-11.0,1651025896358851.0,3
1785,-3.0,9.0,-2.0,-4.0,-43.0,-12.0,2.0,1.0,1651025896358851.0,3
1786,2.0,-38.0,2.0,7.0,42.0,7.0,0.0,-6.0,1651025896371788.0,3
1787,-15.0,-61.0,-31.0,-16.0,-2.0,1.0,-8.0,-17.0,1651025896371788.0,3
1788,-17.0,-20.0,-10.0,2.0,-12.0,-3.0,31.0,21.0,1651025896373783.0,3
1789,2.0,25.0,-3.0,-5.0,0.0,-9.0,-62.0,-48.0,1651025896373783.0,3
1790,16.0,41.0,17.0,-1.0,-22.0,2.0,-11.0,-12.0,1651025896386864.0,3
1791,4.0,12.0,14.0,7.0,17.0,5.0,1.0,14.0,1651025896386864.0,3
1792,1.0,-1.0,-5.0,-7.0,3.0,0.0,-7.0,10.0,1651025896388888.0,3
1793,30.0,20.0,15.0,14.0,9.0,8.0,24.0,22.0,1651025896388888.0,3
1794,-34.0,-57.0,-8.0,-1.0,-4.0,-10.0,1.0,14.0,1651025896409876.0,3
1795,10.0,19.0,-9.0,-11.0,-23.0,-13.0,-5.0,-17.0,1651025896409876.0,3
1796,-8.0,-19.0,-5.0,-1.0,8.0,5.0,-2.0,-7.0,1651025896410803.0,3
1797,-1.0,3.0,-1.0,-2.0,8.0,1.0,2.0,-5.0,1651025896410803.0,3
1798,17.0,21.0,24.0,10.0,-1.0,-6.0,3.0,16.0,1651025896431965.0,3
1799,-5.0,2.0,-17.0,8.0,23.0,18.0,26.0,17.0,1651025896431965.0,3
1800,8.0,7.0,8.0,2.0,-5.0,0.0,-14.0,-4.0,1651025896437929.0,3
1801,1.0,17.0,9.0,-8.0,-23.0,-3.0,24.0,14.0,1651025896437929.0,3
1802,4.0,1.0,-8.0,-4.0,9.0,0.0,-30.0,-29.0,1651025896446968.0,3
1803,-13.0,-21.0,-4.0,1.0,4.0,-5.0,10.0,12.0,1651025896446968.0,3
1804,1.0,8.0,-6.0,5.0,8.0,1.0,-2.0,-4.0,1651025896448899.0,3
1805,-12.0,-21.0,-2.0,-4.0,5.0,6.0,-1.0,2.0,1651025896448899.0,3
1806,9.0,29.0,3.0,1.0,-26.0,-9.0,8.0,9.0,1651025896469841.0,3
1807,4.0,26.0,25.0,2.0,-1.0,-5.0,-14.0,-17.0,1651025896469841.0,3
1808,4.0,-3.0,-8.0,-6.0,10.0,3.0,-3.0,12.0,1651025896475825.0,3
1809,-6.0,-13.0,-3.0,-1.0,-3.0,4.0,6.0,-4.0,1651025896475825.0,3
1810,1.0,-18.0,-9.0,3.0,3.0,6.0,8.0,14.0,1651025896492547.0,3
1811,8.0,15.0,12.0,3.0,1.0,2.0,-5.0,-7.0,1651025896492547.0,3
1812,1.0,-24.0,-7.0,2.0,-4.0,0.0,-5.0,-34.0,1651025896493546.0,3
1813,-15.0,-3.0,-10.0,-4.0,2.0,-8.0,10.0,35.0,1651025896493546.0,3
1814,6.0,12.0,-20.0,-16.0,-8.0,-5.0,7.0,8.0,1651025896506911.0,3
1815,-10.0,-27.0,3.0,-1.0,-3.0,2.0,-12.0,-1.0,1651025896506911.0,3
1816,25.0,49.0,21.0,9.0,-1.0,-1.0,4.0,5.0,1651025896513583.0,3
1817,-12.0,-22.0,-8.0,-2.0,4.0,1.0,0.0,-5.0,1651025896513583.0,3
1818,-7.0,3.0,1.0,-1.0,15.0,3.0,-5.0,-12.0,1651025896530010.0,3
1819,-2.0,-6.0,8.0,5.0,-2.0,-3.0,3.0,7.0,1651025896530010.0,3
1820,1.0,7.0,-10.0,-10.0,-38.0,-10.0,-8.0,-2.0,1651025896530952.0,3
1821,1.0,14.0,-8.0,-2.0,37.0,7.0,1.0,-9.0,1651025896530952.0,3
1822,0.0,-16.0,8.0,5.0,-5.0,4.0,5.0,7.0,1651025896552576.0,3
1823,1.0,4.0,4.0,4.0,-6.0,-5.0,-2.0,-7.0,1651025896552576.0,3
1824,-5.0,-17.0,-2.0,0.0,3.0,3.0,1.0,3.0,1651025896553575.0,3
1825,-2.0,-6.0,-3.0,1.0,-5.0,-3.0,2.0,0.0,1651025896553575.0,3
1826,3.0,13.0,14.0,3.0,-4.0,-3.0,2.0,-1.0,1651025896566874.0,3
1827,12.0,-28.0,-18.0,-4.0,-1.0,-1.0,2.0,6.0,1651025896566874.0,3
1828,-18.0,-15.0,4.0,-4.0,1.0,0.0,-9.0,-13.0,1651025896573584.0,3
1829,2.0,-7.0,7.0,3.0,-4.0,1.0,5.0,8.0,1651025896573584.0,3
1830,-4.0,4.0,-7.0,-5.0,-3.0,-2.0,-1.0,-3.0,1651025896588896.0,3
1831,2.0,-10.0,3.0,2.0,1.0,1.0,-5.0,-4.0,1651025896588896.0,3
1832,-3.0,-5.0,-4.0,5.0,18.0,3.0,1.0,3.0,1651025896596917.0,3
1833,14.0,34.0,10.0,0.0,-3.0,1.0,-2.0,-5.0,1651025896596917.0,3
1834,-12.0,-49.0,-11.0,-1.0,-7.0,-1.0,0.0,-1.0,1651025896611998.0,3
1835,4.0,14.0,1.0,-4.0,-6.0,-2.0,2.0,2.0,1651025896611998.0,3
1836,-2.0,2.0,-10.0,-4.0,3.0,2.0,0.0,0.0,1651025896613955.0,3
1837,1.0,9.0,9.0,-4.0,-6.0,-5.0,-4.0,-2.0,1651025896613955.0,3
1838,-6.0,-40.0,-10.0,1.0,2.0,0.0,3.0,0.0,1651025896625903.0,3
1839,2.0,42.0,5.0,-3.0,-14.0,-4.0,-5.0,-3.0,1651025896625903.0,3
1840,0.0,-19.0,0.0,-1.0,19.0,0.0,-1.0,-1.0,1651025896632888.0,3
1841,8.0,21.0,4.0,3.0,3.0,2.0,0.0,0.0,1651025896632888.0,3
1842,-4.0,9.0,2.0,-6.0,-21.0,-6.0,-2.0,-2.0,1651025896649931.0,3
1843,-3.0,5.0,3.0,0.0,10.0,1.0,1.0,-3.0,1651025896649931.0,3
1844,-4.0,0.0,-7.0,3.0,-5.0,-2.0,1.0,1.0,1651025896650941.0,3
1845,-2.0,2.0,-3.0,0.0,1.0,1.0,1.0,-3.0,1651025896650941.0,3
1846,10.0,23.0,-2.0,-1.0,6.0,-1.0,1.0,2.0,1651025896671901.0,3
1847,-4.0,-19.0,2.0,-3.0,-9.0,-2.0,0.0,0.0,1651025896671901.0,3
1848,13.0,32.0,1.0,-4.0,-4.0,0.0,-2.0,1.0,1651025896673924.0,3
1849,-22.0,-57.0,-11.0,-1.0,1.0,-1.0,0.0,-3.0,1651025896673924.0,3
1850,5.0,43.0,7.0,3.0,-1.0,-1.0,-1.0,-1.0,1651025896686911.0,3
1851,-9.0,-12.0,-6.0,-3.0,-1.0,-2.0,-2.0,-2.0,1651025896686911.0,3
1852,-5.0,-24.0,-10.0,-3.0,-4.0,-1.0,0.0,0.0,1651025896693585.0,3
1853,-1.0,-8.0,1.0,-2.0,3.0,1.0,-1.0,-4.0,1651025896693585.0,3
1854,6.0,38.0,9.0,2.0,1.0,0.0,-2.0,-1.0,1651025896709611.0,3
1855,0.0,3.0,-2.0,-3.0,-1.0,-2.0,-2.0,-2.0,1651025896709611.0,3
1856,-2.0,5.0,3.0,-2.0,-1.0,0.0,1.0,0.0,1651025896711569.0,3
1857,-5.0,-3.0,-2.0,-5.0,-10.0,-3.0,-2.0,2.0,1651025896711569.0,3
1858,-9.0,-41.0,-7.0,2.0,4.0,1.0,1.0,-1.0,1651025896731953.0,3
1859,0.0,-12.0,-2.0,1.0,9.0,-2.0,0.0,-3.0,1651025896731953.0,3
1860,-1.0,5.0,-1.0,-4.0,-7.0,1.0,0.0,-1.0,1651025896733908.0,3
1861,11.0,19.0,3.0,-3.0,-27.0,-9.0,1.0,5.0,1651025896733908.0,3
1862,-4.0,-11.0,-2.0,-1.0,24.0,4.0,-2.0,-3.0,1651025896754120.0,3
1863,3.0,14.0,13.0,9.0,11.0,7.0,1.0,1.0,1651025896754120.0,3
1864,2.0,7.0,2.0,1.0,-4.0,-1.0,1.0,1.0,1651025896756118.0,3
1865,-3.0,-34.0,-10.0,-1.0,3.0,2.0,-1.0,-1.0,1651025896756118.0,3
1866,-7.0,53.0,4.0,-5.0,-15.0,-7.0,-2.0,-4.0,1651025896770079.0,3
1867,-2.0,-35.0,-16.0,-1.0,-3.0,-2.0,0.0,0.0,1651025896770079.0,3
1868,-10.0,-7.0,-8.0,-3.0,4.0,1.0,-2.0,-4.0,1651025896771078.0,3
1869,1.0,3.0,4.0,4.0,1.0,1.0,1.0,1.0,1651025896771078.0,3
1870,-1.0,-16.0,-7.0,-1.0,-6.0,-3.0,-2.0,0.0,1651025896792089.0,3
1871,-11.0,11.0,-2.0,-4.0,1.0,-3.0,-3.0,-6.0,1651025896792089.0,3
1872,-3.0,-6.0,2.0,-2.0,-5.0,-3.0,-2.0,1.0,1651025896794045.0,3
1873,4.0,-14.0,-4.0,1.0,6.0,0.0,1.0,0.0,1651025896794045.0,3
1874,-2.0,-2.0,0.0,-4.0,-4.0,-3.0,-1.0,-3.0,1651025896806221.0,3
1875,0.0,5.0,2.0,2.0,8.0,5.0,0.0,1.0,1651025896806221.0,3
1876,4.0,4.0,1.0,1.0,-7.0,-2.0,1.0,-1.0,1651025896813530.0,3
1877,4.0,13.0,4.0,2.0,7.0,3.0,1.0,1.0,1651025896813530.0,3
1878,4.0,-20.0,1.0,3.0,6.0,2.0,1.0,2.0,1651025896830008.0,3
1879,7.0,70.0,13.0,1.0,-16.0,-4.0,0.0,1.0,1651025896830008.0,3
1880,26.0,1.0,4.0,1.0,2.0,1.0,0.0,4.0,1651025896830951.0,3
1881,-9.0,-10.0,-7.0,-2.0,3.0,2.0,-1.0,-3.0,1651025896830951.0,3
1882,0.0,5.0,-2.0,-1.0,-5.0,-3.0,-1.0,-2.0,1651025896852044.0,3
