EMG_s0,EMG_s1,EMG_s2,EMG_s3,EMG_s4,EMG_s5,EMG_s6,EMG_s7,timestamp
-1.0,0.0,1.0,-1.0,0.0,0.0,-1.0,-2.0,1651072231583273.0
-2.0,-2.0,-2.0,-2.0,1.0,1.0,-1.0,1.0,1651072231583273.0
-1.0,0.0,-1.0,-2.0,-3.0,-1.0,-2.0,-1.0,1651072231584270.0
-1.0,0.0,0.0,-1.0,1.0,-2.0,-1.0,-1.0,1651072231584270.0
0.0,0.0,-1.0,-1.0,2.0,0.0,0.0,1.0,1651072231588260.0
0.0,1.0,1.0,0.0,0.0,0.0,1.0,0.0,1651072231588260.0
1.0,0.0,-2.0,-2.0,2.0,-2.0,0.0,0.0,1651072231588260.0
0.0,-2.0,1.0,-2.0,-2.0,1.0,0.0,-1.0,1651072231588260.0
-2.0,0.0,-1.0,-1.0,-2.0,-1.0,1.0,-1.0,1651072231595241.0
1.0,-1.0,1.0,-2.0,-3.0,-2.0,-2.0,0.0,1651072231595241.0
-2.0,-1.0,-2.0,-1.0,0.0,1.0,1.0,-1.0,1651072231603224.0
0.0,1.0,-1.0,-2.0,-1.0,1.0,0.0,0.0,1651072231603224.0
0.0,0.0,0.0,1.0,0.0,0.0,-2.0,-2.0,1651072231609204.0
-2.0,0.0,1.0,-1.0,-2.0,-4.0,-3.0,-3.0,1651072231609204.0
0.0,0.0,2.0,-2.0,-4.0,-4.0,-3.0,-3.0,1651072231624195.0
-3.0,-3.0,-2.0,-4.0,-3.0,-4.0,-2.0,-2.0,1651072231624195.0
-3.0,0.0,-1.0,0.0,-3.0,-1.0,-1.0,-3.0,1651072231633206.0
0.0,0.0,-2.0,-1.0,1.0,1.0,0.0,-2.0,1651072231633206.0
-1.0,0.0,-2.0,2.0,-3.0,-3.0,0.0,1.0,1651072231656271.0
-1.0,1.0,-3.0,-2.0,-1.0,-1.0,0.0,-2.0,1651072231656271.0
0.0,0.0,0.0,-2.0,-1.0,0.0,1.0,1.0,1651072231656842.0
1.0,-1.0,-1.0,-1.0,1.0,-1.0,1.0,-1.0,1651072231656842.0
-1.0,-2.0,-1.0,0.0,2.0,0.0,-1.0,-1.0,1651072231668682.0
1.0,-1.0,-1.0,-1.0,-3.0,-3.0,-4.0,-2.0,1651072231668682.0
-1.0,-1.0,0.0,0.0,0.0,1.0,0.0,-2.0,1651072231710818.0
0.0,-2.0,1.0,0.0,3.0,2.0,1.0,-2.0,1651072231710818.0
-1.0,-1.0,-1.0,-2.0,0.0,1.0,2.0,1.0,1651072231711811.0
-2.0,0.0,-1.0,-1.0,-1.0,-1.0,-1.0,0.0,1651072231711811.0
-2.0,0.0,0.0,-1.0,-3.0,-1.0,0.0,0.0,1651072231715869.0
-2.0,0.0,0.0,-1.0,-1.0,0.0,0.0,0.0,1651072231715869.0
-1.0,1.0,1.0,0.0,-1.0,-2.0,-1.0,-2.0,1651072231715869.0
0.0,1.0,-1.0,-1.0,-1.0,-3.0,0.0,0.0,1651072231715869.0
0.0,0.0,1.0,-1.0,3.0,2.0,1.0,-1.0,1651072231721812.0
0.0,1.0,-1.0,-1.0,-1.0,0.0,-1.0,-1.0,1651072231721812.0
0.0,-2.0,0.0,-1.0,-2.0,-1.0,-2.0,-2.0,1651072231728765.0
-1.0,-1.0,-1.0,2.0,2.0,1.0,1.0,-2.0,1651072231728765.0
-3.0,-1.0,0.0,0.0,-2.0,-2.0,-1.0,-2.0,1651072231743840.0
-1.0,0.0,-1.0,0.0,-2.0,-2.0,-1.0,-2.0,1651072231743840.0
0.0,0.0,-1.0,-2.0,-2.0,1.0,0.0,-1.0,1651072231751818.0
1.0,-1.0,0.0,-1.0,0.0,1.0,-1.0,-1.0,1651072231751818.0
1.0,-2.0,-1.0,-1.0,-1.0,-1.0,0.0,-1.0,1651072231760728.0
-1.0,-1.0,0.0,-1.0,-1.0,-3.0,-1.0,0.0,1651072231760728.0
-1.0,0.0,0.0,0.0,0.0,-2.0,0.0,0.0,1651072231782888.0
0.0,-2.0,-1.0,-1.0,-1.0,0.0,0.0,0.0,1651072231782888.0
-2.0,1.0,0.0,0.0,0.0,1.0,-1.0,0.0,1651072231784841.0
0.0,0.0,0.0,-1.0,-2.0,-1.0,-1.0,1.0,1651072231784841.0
2.0,0.0,-1.0,-1.0,-1.0,0.0,-1.0,0.0,1651072231796985.0
0.0,-2.0,-1.0,-1.0,-2.0,-1.0,-1.0,-2.0,1651072231796985.0
-1.0,1.0,-1.0,-1.0,-3.0,-4.0,-2.0,-2.0,1651072231805338.0
0.0,0.0,-3.0,-1.0,0.0,1.0,2.0,0.0,1651072231805338.0
-2.0,0.0,-1.0,1.0,0.0,2.0,1.0,-1.0,1651072231819299.0
-2.0,0.0,2.0,1.0,0.0,-1.0,0.0,0.0,1651072231819299.0
1.0,-1.0,-3.0,-2.0,0.0,-1.0,0.0,1.0,1651072231835296.0
-1.0,-1.0,0.0,-2.0,-2.0,-1.0,-2.0,1.0,1651072231835296.0
-1.0,-2.0,2.0,1.0,0.0,-1.0,-2.0,0.0,1651072231843247.0
-1.0,1.0,1.0,-3.0,-3.0,-1.0,-2.0,-1.0,1651072231843247.0
0.0,-1.0,-1.0,0.0,-1.0,-3.0,0.0,-2.0,1651072231844233.0
-1.0,-1.0,-1.0,0.0,2.0,1.0,1.0,-1.0,1651072231844233.0
1.0,-1.0,-2.0,-2.0,-4.0,-3.0,0.0,-1.0,1651072231856263.0
-1.0,-1.0,-3.0,-1.0,0.0,0.0,-1.0,-1.0,1651072231856263.0
-1.0,0.0,-2.0,1.0,0.0,1.0,-1.0,0.0,1651072231865296.0
-1.0,0.0,0.0,1.0,0.0,-1.0,-1.0,0.0,1651072231865296.0
-1.0,1.0,-3.0,-2.0,-1.0,-2.0,-2.0,-1.0,1651072231880326.0
0.0,-2.0,0.0,0.0,-1.0,0.0,0.0,-1.0,1651072231880326.0
0.0,-2.0,-2.0,0.0,-3.0,-3.0,-1.0,1.0,1651072231882261.0
0.0,0.0,2.0,1.0,4.0,3.0,-1.0,0.0,1651072231882261.0
0.0,0.0,-1.0,0.0,3.0,2.0,-1.0,0.0,1651072231910179.0
-2.0,-1.0,0.0,0.0,-2.0,0.0,0.0,0.0,1651072231910179.0
1.0,-1.0,0.0,-1.0,0.0,2.0,0.0,0.0,1651072231912174.0
-1.0,-1.0,-2.0,-1.0,-4.0,-3.0,-1.0,-1.0,1651072231912174.0
-1.0,-1.0,-1.0,0.0,0.0,-1.0,0.0,0.0,1651072231916190.0
1.0,1.0,-1.0,0.0,0.0,-1.0,-1.0,0.0,1651072231916190.0
0.0,1.0,1.0,0.0,-2.0,1.0,0.0,1.0,1651072231925206.0
0.0,-2.0,-1.0,0.0,-2.0,-2.0,-2.0,-2.0,1651072231925206.0
0.0,-1.0,-4.0,-2.0,1.0,1.0,-1.0,-1.0,1651072231940940.0
-1.0,-1.0,0.0,1.0,-1.0,-2.0,-1.0,0.0,1651072231940940.0
1.0,-1.0,-2.0,-2.0,2.0,0.0,-1.0,-1.0,1651072231942630.0
-1.0,1.0,0.0,-2.0,-3.0,-2.0,-1.0,0.0,1651072231942630.0
-1.0,0.0,1.0,-1.0,0.0,0.0,0.0,0.0,1651072231962628.0
1.0,0.0,-1.0,-1.0,-1.0,0.0,0.0,0.0,1651072231962628.0
0.0,-3.0,-1.0,-1.0,0.0,0.0,-1.0,-1.0,1651072231964577.0
0.0,1.0,0.0,-2.0,1.0,-1.0,0.0,1.0,1651072231964577.0
-1.0,0.0,-1.0,-1.0,-4.0,-3.0,-1.0,-1.0,1651072231984894.0
-1.0,1.0,0.0,-1.0,1.0,-1.0,-1.0,-1.0,1651072231984894.0
-2.0,1.0,1.0,-1.0,-4.0,-1.0,0.0,-1.0,1651072231992820.0
-1.0,-1.0,-2.0,2.0,5.0,0.0,0.0,-4.0,1651072231992820.0
1.0,1.0,1.0,-1.0,-1.0,0.0,-2.0,-1.0,1651072232000140.0
0.0,0.0,-1.0,-2.0,-2.0,-2.0,1.0,-2.0,1651072232000140.0
-1.0,0.0,-1.0,0.0,-1.0,-1.0,1.0,1.0,1651072232002136.0
-1.0,-2.0,0.0,0.0,-5.0,0.0,-2.0,-1.0,1651072232002136.0
-1.0,0.0,1.0,-1.0,0.0,-2.0,0.0,-2.0,1651072232023360.0
1.0,0.0,-1.0,1.0,-1.0,1.0,-2.0,-1.0,1651072232023360.0
1.0,-1.0,0.0,-1.0,3.0,4.0,-1.0,-2.0,1651072232025383.0
1.0,0.0,-2.0,-1.0,1.0,-1.0,-1.0,-1.0,1651072232025383.0
-3.0,-1.0,0.0,-1.0,0.0,0.0,1.0,2.0,1651072232045535.0
0.0,-1.0,0.0,0.0,-3.0,-1.0,-1.0,-3.0,1651072232045535.0
-3.0,-2.0,0.0,0.0,3.0,1.0,1.0,3.0,1651072232047489.0
0.0,-1.0,-1.0,0.0,-1.0,0.0,0.0,-1.0,1651072232047489.0
-1.0,-1.0,-3.0,-1.0,1.0,-1.0,-2.0,-2.0,1651072232060438.0
-2.0,0.0,-1.0,-1.0,-2.0,-2.0,2.0,-1.0,1651072232060438.0
0.0,1.0,0.0,0.0,1.0,-1.0,-2.0,-1.0,1651072232062442.0
-1.0,-2.0,-1.0,-2.0,-3.0,-1.0,1.0,0.0,1651072232062442.0
-2.0,-1.0,0.0,0.0,-1.0,-1.0,0.0,1.0,1651072232083473.0
-3.0,-1.0,-2.0,0.0,2.0,2.0,-1.0,-1.0,1651072232083473.0
0.0,-1.0,-1.0,-2.0,0.0,-2.0,-2.0,-1.0,1651072232084465.0
1.0,-1.0,1.0,-3.0,-3.0,1.0,-1.0,-1.0,1651072232084465.0
0.0,-1.0,0.0,-1.0,0.0,1.0,-1.0,0.0,1651072232105890.0
1.0,-1.0,-1.0,-1.0,-1.0,-1.0,-1.0,0.0,1651072232105890.0
0.0,0.0,0.0,0.0,0.0,-3.0,0.0,-2.0,1651072232106600.0
-1.0,0.0,-1.0,2.0,1.0,1.0,-2.0,1.0,1651072232106600.0
-2.0,-2.0,-1.0,1.0,-2.0,-1.0,0.0,-2.0,1651072232119635.0
-1.0,-3.0,-1.0,0.0,-2.0,-2.0,0.0,1.0,1651072232119635.0
2.0,2.0,-3.0,-1.0,-2.0,0.0,1.0,-2.0,1651072232143504.0
0.0,-1.0,0.0,-3.0,0.0,2.0,1.0,0.0,1651072232143504.0
0.0,-1.0,-1.0,1.0,3.0,2.0,0.0,1.0,1651072232144508.0
-2.0,-2.0,0.0,-1.0,-2.0,-1.0,0.0,0.0,1651072232144508.0
-1.0,-3.0,-2.0,1.0,-2.0,-2.0,-2.0,-1.0,1651072232146534.0
-1.0,-1.0,-1.0,0.0,-1.0,-2.0,1.0,-1.0,1651072232146534.0
-1.0,-2.0,0.0,-2.0,-1.0,1.0,0.0,0.0,1651072232165550.0
-1.0,-2.0,0.0,0.0,2.0,0.0,0.0,-2.0,1651072232165550.0
-1.0,-1.0,1.0,1.0,1.0,-2.0,-2.0,0.0,1651072232167539.0
2.0,1.0,0.0,0.0,-4.0,-2.0,-1.0,-1.0,1651072232167539.0
1.0,-2.0,0.0,-1.0,-1.0,0.0,0.0,0.0,1651072232180330.0
0.0,1.0,-1.0,-2.0,-1.0,-1.0,-3.0,0.0,1651072232180330.0
-1.0,-1.0,0.0,-1.0,2.0,0.0,-2.0,1.0,1651072232186383.0
-1.0,0.0,-2.0,-2.0,0.0,0.0,-2.0,-1.0,1651072232186383.0
-1.0,1.0,-1.0,-1.0,0.0,-1.0,-2.0,-2.0,1651072232202753.0
-2.0,0.0,0.0,1.0,3.0,3.0,-1.0,1.0,1651072232202753.0
-2.0,0.0,1.0,-2.0,-1.0,0.0,0.0,-3.0,1651072232204707.0
0.0,0.0,0.0,-1.0,-1.0,-2.0,-1.0,0.0,1651072232204707.0
-1.0,0.0,-2.0,-2.0,-4.0,-2.0,-2.0,1.0,1651072232225841.0
1.0,-1.0,-1.0,1.0,1.0,-2.0,-2.0,-1.0,1651072232225841.0
0.0,-2.0,-1.0,0.0,-3.0,2.0,-2.0,-2.0,1651072232226773.0
0.0,0.0,0.0,1.0,-1.0,0.0,-1.0,1.0,1651072232226773.0
0.0,-1.0,1.0,1.0,2.0,3.0,0.0,-1.0,1651072232239805.0
0.0,0.0,-2.0,-1.0,0.0,0.0,0.0,1.0,1651072232239805.0
-3.0,-1.0,-1.0,-1.0,1.0,-8.0,-2.0,1.0,1651072232246785.0
-3.0,-2.0,-1.0,-1.0,-2.0,4.0,-1.0,0.0,1651072232246785.0
0.0,0.0,-1.0,-1.0,-2.0,3.0,0.0,-1.0,1651072232262602.0
1.0,-1.0,-2.0,0.0,1.0,-3.0,1.0,1.0,1651072232262602.0
0.0,0.0,0.0,0.0,-3.0,-1.0,0.0,-1.0,1651072232264598.0
-1.0,-1.0,0.0,1.0,3.0,-4.0,0.0,0.0,1651072232264598.0
0.0,1.0,-2.0,-1.0,0.0,-5.0,-1.0,-1.0,1651072232285651.0
-1.0,-1.0,-1.0,-2.0,-3.0,1.0,-1.0,-2.0,1651072232285651.0
-1.0,0.0,0.0,0.0,-6.0,-4.0,-1.0,0.0,1651072232287578.0
-1.0,-1.0,-1.0,-1.0,0.0,1.0,1.0,-3.0,1651072232287578.0
0.0,0.0,0.0,0.0,-1.0,0.0,-1.0,0.0,1651072232299613.0
0.0,-1.0,-1.0,-1.0,-4.0,-2.0,-1.0,1.0,1651072232299613.0
0.0,1.0,-1.0,-2.0,0.0,2.0,0.0,0.0,1651072232306595.0
0.0,-1.0,-1.0,-1.0,-1.0,-3.0,-2.0,-2.0,1651072232306595.0
0.0,-1.0,0.0,0.0,-1.0,0.0,1.0,-3.0,1651072232322635.0
-1.0,0.0,0.0,0.0,0.0,-1.0,-2.0,-1.0,1651072232322635.0
-1.0,-1.0,0.0,1.0,-2.0,2.0,1.0,0.0,1651072232324563.0
-3.0,-3.0,0.0,-1.0,-2.0,-1.0,-1.0,0.0,1651072232324563.0
-2.0,-2.0,-1.0,-1.0,0.0,0.0,1.0,-1.0,1651072232345576.0
-2.0,0.0,1.0,-1.0,-5.0,-2.0,0.0,-1.0,1651072232345576.0
0.0,-1.0,0.0,-1.0,-1.0,1.0,1.0,-1.0,1651072232347501.0
0.0,0.0,0.0,1.0,5.0,1.0,-2.0,-1.0,1651072232347501.0
-1.0,-1.0,1.0,1.0,5.0,0.0,-1.0,-2.0,1651072232359586.0
-2.0,-1.0,-1.0,-1.0,-4.0,-2.0,-1.0,-1.0,1651072232359586.0
-1.0,-2.0,0.0,0.0,0.0,-7.0,-1.0,-1.0,1651072232366539.0
-1.0,0.0,-1.0,-1.0,-2.0,10.0,1.0,-1.0,1651072232366539.0
1.0,0.0,1.0,0.0,1.0,-2.0,-2.0,-1.0,1651072232382498.0
1.0,-2.0,-2.0,0.0,-5.0,0.0,-1.0,-1.0,1651072232382498.0
0.0,0.0,-1.0,-1.0,0.0,-3.0,0.0,-1.0,1651072232384469.0
1.0,-1.0,-1.0,1.0,1.0,-2.0,-3.0,-1.0,1651072232384469.0
-3.0,0.0,-1.0,-1.0,-3.0,-1.0,-1.0,2.0,1651072232405594.0
0.0,0.0,-3.0,1.0,3.0,1.0,0.0,1.0,1651072232405594.0
0.0,0.0,0.0,-1.0,-4.0,-3.0,0.0,0.0,1651072232407551.0
-1.0,-1.0,-1.0,-2.0,-4.0,-6.0,-1.0,-1.0,1651072232407551.0
0.0,-1.0,-1.0,1.0,0.0,0.0,-2.0,0.0,1651072232419491.0
0.0,-2.0,0.0,-2.0,-2.0,-1.0,1.0,0.0,1651072232419491.0
1.0,-1.0,-1.0,0.0,2.0,3.0,-1.0,0.0,1651072232426538.0
-1.0,0.0,0.0,-1.0,1.0,-1.0,-1.0,-2.0,1651072232426538.0
-1.0,-1.0,2.0,-1.0,-2.0,-2.0,-2.0,-1.0,1651072232442673.0
-1.0,-1.0,-1.0,-2.0,2.0,1.0,-2.0,1.0,1651072232442673.0
-1.0,1.0,0.0,0.0,3.0,4.0,0.0,1.0,1651072232444601.0
1.0,-1.0,-3.0,1.0,-1.0,-3.0,0.0,1.0,1651072232444601.0
-1.0,1.0,0.0,-2.0,-3.0,-3.0,-2.0,0.0,1651072232465290.0
0.0,1.0,0.0,0.0,2.0,1.0,-1.0,0.0,1651072232465290.0
-1.0,-1.0,0.0,1.0,4.0,-1.0,1.0,-2.0,1651072232467288.0
-2.0,-2.0,-1.0,-1.0,-2.0,7.0,0.0,0.0,1651072232467288.0
-1.0,0.0,1.0,1.0,0.0,-1.0,0.0,0.0,1651072232479269.0
-1.0,-2.0,-3.0,-2.0,-4.0,-1.0,1.0,-1.0,1651072232479269.0
-3.0,0.0,-1.0,-1.0,0.0,-2.0,-2.0,-1.0,1651072232488666.0
-1.0,1.0,0.0,0.0,-1.0,-9.0,0.0,0.0,1651072232488666.0
1.0,-2.0,-2.0,1.0,-1.0,2.0,0.0,-1.0,1651072232503092.0
0.0,1.0,1.0,1.0,2.0,3.0,-1.0,-1.0,1651072232503092.0
-1.0,-1.0,-1.0,0.0,-2.0,1.0,-2.0,1.0,1651072232505045.0
-1.0,-2.0,-1.0,-1.0,-3.0,-2.0,-2.0,-1.0,1651072232505045.0
0.0,-1.0,-1.0,-1.0,-3.0,-2.0,0.0,-1.0,1651072232525400.0
0.0,-1.0,1.0,-1.0,0.0,-4.0,0.0,-1.0,1651072232525400.0
0.0,0.0,1.0,-1.0,-2.0,3.0,1.0,0.0,1651072232527398.0
-1.0,1.0,1.0,-2.0,-2.0,-1.0,3.0,1.0,1651072232527398.0
-1.0,-2.0,-3.0,-3.0,-2.0,-8.0,-2.0,-2.0,1651072232539392.0
0.0,-1.0,-1.0,1.0,2.0,12.0,0.0,-1.0,1651072232539392.0
-1.0,-1.0,-3.0,1.0,2.0,0.0,1.0,-1.0,1651072232548462.0
1.0,-1.0,-1.0,1.0,0.0,-1.0,-2.0,1.0,1651072232548462.0
-2.0,0.0,-1.0,1.0,-4.0,-1.0,-1.0,-1.0,1651072232563437.0
0.0,0.0,-1.0,-1.0,-2.0,-6.0,0.0,0.0,1651072232563437.0
-1.0,1.0,-2.0,1.0,-1.0,-1.0,-1.0,-1.0,1651072232564419.0
-1.0,2.0,-2.0,0.0,4.0,4.0,0.0,-1.0,1651072232564419.0
-1.0,0.0,0.0,0.0,0.0,-2.0,-2.0,-1.0,1651072232585889.0
0.0,2.0,-2.0,0.0,2.0,0.0,-1.0,0.0,1651072232585889.0
0.0,-1.0,0.0,-4.0,-2.0,-2.0,-1.0,-1.0,1651072232586629.0
-2.0,-2.0,-1.0,-1.0,-2.0,-3.0,-1.0,0.0,1651072232586629.0
-2.0,0.0,-1.0,-2.0,-2.0,-2.0,1.0,-1.0,1651072232599602.0
-1.0,-2.0,1.0,0.0,2.0,2.0,0.0,-2.0,1651072232599602.0
0.0,0.0,0.0,-3.0,-2.0,-1.0,-1.0,-1.0,1651072232608572.0
-2.0,1.0,0.0,0.0,3.0,-1.0,-1.0,-1.0,1651072232608572.0
-1.0,-2.0,-2.0,-2.0,-2.0,2.0,0.0,0.0,1651072232623204.0
-2.0,-1.0,-2.0,-1.0,-4.0,-13.0,-2.0,-2.0,1651072232623204.0
0.0,-1.0,-1.0,2.0,2.0,11.0,0.0,-1.0,1651072232624573.0
2.0,0.0,3.0,0.0,0.0,1.0,3.0,1.0,1651072232624573.0
-1.0,-2.0,-2.0,-1.0,2.0,-1.0,-1.0,-1.0,1651072232645840.0
-1.0,1.0,0.0,-2.0,-5.0,2.0,-2.0,-1.0,1651072232645840.0
-3.0,-1.0,-1.0,-1.0,-1.0,-7.0,-2.0,-2.0,1651072232646771.0
-1.0,-1.0,-2.0,0.0,-5.0,-5.0,-2.0,-1.0,1651072232646771.0
1.0,-2.0,-1.0,1.0,1.0,2.0,1.0,1.0,1651072232658806.0
1.0,-2.0,0.0,0.0,1.0,2.0,-1.0,-1.0,1651072232658806.0
0.0,-1.0,0.0,0.0,1.0,-1.0,0.0,-1.0,1651072232667797.0
-1.0,1.0,1.0,-3.0,-2.0,-1.0,-2.0,-2.0,1651072232667797.0
0.0,1.0,1.0,-1.0,-1.0,-3.0,-2.0,-1.0,1651072232690734.0
-2.0,0.0,0.0,-2.0,1.0,0.0,0.0,0.0,1651072232690734.0
0.0,1.0,-2.0,-1.0,-1.0,2.0,3.0,0.0,1651072232691754.0
-1.0,1.0,0.0,-1.0,-3.0,-2.0,-1.0,-1.0,1651072232691754.0
0.0,0.0,-2.0,1.0,7.0,2.0,-2.0,-1.0,1651072232705320.0
0.0,0.0,-2.0,-1.0,-3.0,0.0,0.0,-2.0,1651072232705320.0
-1.0,-2.0,-1.0,-1.0,-2.0,-3.0,-1.0,1.0,1651072232711334.0
1.0,-1.0,-2.0,0.0,-2.0,0.0,-1.0,-2.0,1651072232711334.0
0.0,0.0,0.0,1.0,-4.0,-2.0,1.0,-2.0,1651072232728289.0
-1.0,1.0,1.0,0.0,0.0,1.0,-1.0,-1.0,1651072232728289.0
0.0,-1.0,-3.0,0.0,-2.0,-5.0,-1.0,1.0,1651072232729260.0
1.0,0.0,-1.0,0.0,0.0,5.0,0.0,-2.0,1651072232729260.0
-2.0,-1.0,0.0,-1.0,3.0,2.0,1.0,1.0,1651072232750287.0
-1.0,0.0,0.0,0.0,2.0,-3.0,0.0,1.0,1651072232750287.0
1.0,-1.0,-1.0,-1.0,-9.0,-3.0,-2.0,-2.0,1651072232752284.0
0.0,-1.0,-1.0,-1.0,-1.0,-4.0,2.0,-2.0,1651072232752284.0
1.0,0.0,-1.0,0.0,8.0,6.0,0.0,-1.0,1651072232765286.0
1.0,0.0,0.0,0.0,-2.0,-3.0,1.0,-1.0,1651072232765286.0
-1.0,0.0,1.0,0.0,2.0,2.0,0.0,0.0,1651072232771261.0
-1.0,-1.0,-1.0,-1.0,-5.0,-2.0,-1.0,0.0,1651072232771261.0
-1.0,-2.0,-2.0,-3.0,-1.0,2.0,1.0,0.0,1651072232787876.0
-1.0,-2.0,-2.0,-2.0,-2.0,-3.0,0.0,0.0,1651072232787876.0
-4.0,-1.0,1.0,-1.0,1.0,3.0,-1.0,1.0,1651072232789808.0
0.0,-1.0,-2.0,-1.0,3.0,-2.0,-2.0,1.0,1651072232789808.0
0.0,-1.0,0.0,-2.0,-3.0,-5.0,-1.0,0.0,1651072232810932.0
-1.0,-2.0,0.0,1.0,1.0,5.0,-1.0,-1.0,1651072232810932.0
0.0,-2.0,1.0,0.0,-4.0,-2.0,-1.0,0.0,1651072232811902.0
-1.0,-1.0,1.0,-1.0,4.0,0.0,-1.0,-1.0,1651072232811902.0
-1.0,2.0,-2.0,0.0,-2.0,0.0,-2.0,0.0,1651072232824934.0
-1.0,0.0,0.0,1.0,-1.0,-7.0,-2.0,0.0,1651072232824934.0
1.0,2.0,2.0,-1.0,-1.0,7.0,0.0,-2.0,1651072232831915.0
-1.0,1.0,0.0,-2.0,2.0,-2.0,1.0,0.0,1651072232831915.0
-2.0,-1.0,-1.0,0.0,-4.0,-1.0,-1.0,0.0,1651072232847916.0
0.0,0.0,-1.0,1.0,0.0,-2.0,1.0,-3.0,1651072232847916.0
0.0,0.0,-2.0,0.0,2.0,-2.0,-2.0,-1.0,1651072232853861.0
0.0,0.0,2.0,1.0,-4.0,0.0,-1.0,0.0,1651072232853861.0
-1.0,-1.0,-1.0,0.0,5.0,-2.0,0.0,-1.0,1651072232870922.0
0.0,-1.0,0.0,-3.0,1.0,2.0,1.0,3.0,1651072232870922.0
0.0,-4.0,-3.0,1.0,4.0,0.0,0.0,-1.0,1651072232871865.0
1.0,0.0,0.0,0.0,-2.0,0.0,-2.0,0.0,1651072232871865.0
-2.0,-1.0,-1.0,-3.0,-5.0,-2.0,-2.0,-1.0,1651072232884887.0
0.0,0.0,-2.0,1.0,5.0,3.0,0.0,0.0,1651072232884887.0
0.0,0.0,1.0,0.0,3.0,0.0,0.0,1.0,1651072232891866.0
-1.0,-2.0,-1.0,-2.0,-4.0,-1.0,0.0,0.0,1651072232891866.0
1.0,0.0,1.0,0.0,-6.0,-5.0,-3.0,-1.0,1651072232907823.0
-2.0,-1.0,-2.0,0.0,2.0,2.0,2.0,-1.0,1651072232907823.0
-2.0,1.0,-1.0,-1.0,0.0,-2.0,0.0,-1.0,1651072232909779.0
-2.0,-1.0,-2.0,-1.0,0.0,2.0,-1.0,0.0,1651072232909779.0
-1.0,0.0,-2.0,-1.0,-3.0,-3.0,0.0,0.0,1651072232930688.0
0.0,0.0,0.0,0.0,-3.0,-1.0,-3.0,-1.0,1651072232930688.0
1.0,-1.0,-3.0,-2.0,0.0,-6.0,-2.0,-1.0,1651072232936674.0
-1.0,-1.0,0.0,0.0,-1.0,-8.0,0.0,-2.0,1651072232936674.0
-1.0,-1.0,-1.0,0.0,0.0,13.0,1.0,-2.0,1651072232944597.0
2.0,1.0,1.0,-1.0,0.0,0.0,-1.0,1.0,1651072232944597.0
-2.0,-2.0,-1.0,-1.0,-1.0,-3.0,-2.0,0.0,1651072232951566.0
1.0,0.0,0.0,-1.0,0.0,-1.0,0.0,0.0,1651072232951566.0
0.0,-1.0,1.0,-1.0,-4.0,-5.0,1.0,0.0,1651072232968672.0
-2.0,-2.0,-1.0,0.0,-3.0,-3.0,-2.0,-1.0,1651072232968672.0
0.0,-1.0,0.0,0.0,3.0,1.0,2.0,0.0,1651072232969601.0
0.0,-2.0,-3.0,0.0,2.0,3.0,-1.0,-1.0,1651072232969601.0
-2.0,1.0,-1.0,1.0,-2.0,-3.0,0.0,1.0,1651072232990612.0
0.0,0.0,-1.0,-1.0,2.0,4.0,-1.0,-1.0,1651072232990612.0
-1.0,-1.0,0.0,0.0,-2.0,1.0,-1.0,0.0,1651072232992554.0
0.0,0.0,0.0,2.0,5.0,-1.0,-1.0,0.0,1651072232992554.0
-1.0,-1.0,-1.0,-2.0,1.0,2.0,0.0,0.0,1651072233004425.0
-1.0,-1.0,-2.0,0.0,-3.0,-3.0,-1.0,0.0,1651072233004425.0
0.0,0.0,-1.0,-1.0,0.0,-2.0,-2.0,-1.0,1651072233013522.0
0.0,-1.0,-1.0,-2.0,0.0,1.0,0.0,1.0,1651072233013522.0
-1.0,-1.0,-1.0,2.0,1.0,-1.0,-1.0,-2.0,1651072233027734.0
-1.0,-1.0,0.0,-3.0,-1.0,0.0,0.0,-1.0,1651072233027734.0
-1.0,1.0,0.0,0.0,-1.0,0.0,0.0,0.0,1651072233029662.0
1.0,0.0,-2.0,-2.0,-4.0,-4.0,-1.0,-3.0,1651072233029662.0
0.0,-1.0,0.0,0.0,-1.0,-6.0,-2.0,-2.0,1651072233050777.0
-1.0,-1.0,-1.0,-1.0,2.0,5.0,0.0,-1.0,1651072233050777.0
0.0,-1.0,-1.0,-3.0,-11.0,-3.0,-2.0,1.0,1651072233051783.0
-2.0,-1.0,0.0,2.0,9.0,8.0,1.0,2.0,1651072233051783.0
1.0,1.0,1.0,0.0,3.0,1.0,1.0,0.0,1651072233063812.0
-1.0,0.0,0.0,-2.0,-6.0,-3.0,0.0,-3.0,1651072233063812.0
0.0,1.0,0.0,0.0,1.0,-1.0,0.0,-1.0,1651072233072853.0
1.0,0.0,-2.0,0.0,-3.0,-5.0,-1.0,0.0,1651072233072853.0
0.0,-1.0,-1.0,-1.0,-1.0,0.0,-1.0,-1.0,1651072233088269.0
1.0,-1.0,0.0,1.0,1.0,-1.0,-1.0,-1.0,1651072233088269.0
-1.0,0.0,-1.0,-1.0,-4.0,-2.0,-1.0,1.0,1651072233089286.0
-2.0,0.0,0.0,0.0,0.0,1.0,-1.0,0.0,1651072233089286.0
0.0,-2.0,0.0,1.0,-1.0,2.0,0.0,0.0,1651072233110938.0
1.0,0.0,1.0,-1.0,1.0,-1.0,0.0,0.0,1651072233110938.0
-1.0,-1.0,-3.0,-1.0,-2.0,-3.0,-1.0,-1.0,1651072233112385.0
1.0,-2.0,2.0,1.0,-1.0,-3.0,-1.0,-1.0,1651072233112385.0
-2.0,-4.0,-2.0,-4.0,-4.0,4.0,-1.0,1.0,1651072233133329.0
-2.0,0.0,-2.0,0.0,1.0,-3.0,1.0,0.0,1651072233133329.0
1.0,-2.0,-3.0,-2.0,3.0,5.0,1.0,0.0,1651072233134331.0
1.0,-1.0,-2.0,2.0,5.0,2.0,0.0,-1.0,1651072233134331.0
-2.0,1.0,0.0,2.0,0.0,-1.0,-1.0,-1.0,1651072233148310.0
5.0,-3.0,-2.0,-7.0,-6.0,-3.0,-2.0,-1.0,1651072233148310.0
-2.0,-3.0,-3.0,-3.0,-2.0,-2.0,0.0,-1.0,1651072233149278.0
-1.0,-1.0,-1.0,-4.0,-6.0,-2.0,0.0,-1.0,1651072233149278.0
-1.0,1.0,-2.0,-3.0,0.0,-2.0,1.0,0.0,1651072233170938.0
-13.0,0.0,0.0,6.0,4.0,3.0,0.0,-1.0,1651072233170938.0
18.0,-2.0,0.0,-1.0,1.0,3.0,2.0,8.0,1651072233171613.0
-17.0,8.0,6.0,-4.0,-5.0,-1.0,-2.0,-8.0,1651072233171613.0
2.0,1.0,-1.0,2.0,-4.0,-1.0,-1.0,-1.0,1651072233183682.0
-10.0,-3.0,-5.0,-12.0,-5.0,-2.0,-1.0,-2.0,1651072233183682.0
-20.0,-8.0,-2.0,2.0,2.0,-1.0,-2.0,-6.0,1651072233192851.0
52.0,9.0,10.0,38.0,10.0,6.0,2.0,15.0,1651072233192851.0
23.0,14.0,3.0,-18.0,11.0,3.0,2.0,-5.0,1651072233208313.0
6.0,-8.0,-24.0,-10.0,-20.0,-10.0,-8.0,-19.0,1651072233208313.0
-24.0,14.0,9.0,-13.0,-7.0,-3.0,2.0,10.0,1651072233209242.0
25.0,-35.0,-16.0,-5.0,3.0,3.0,3.0,21.0,1651072233209242.0
-37.0,-6.0,16.0,29.0,8.0,-2.0,-3.0,-19.0,1651072233230375.0
-35.0,-9.0,-3.0,1.0,-1.0,2.0,0.0,-1.0,1651072233230375.0
-14.0,-36.0,10.0,-18.0,1.0,-3.0,-2.0,-1.0,1651072233232330.0
71.0,-15.0,-34.0,-28.0,-20.0,-10.0,-1.0,2.0,1651072233232330.0
-32.0,34.0,4.0,-37.0,-1.0,2.0,-4.0,-18.0,1651072233244305.0
-103.0,45.0,59.0,114.0,43.0,11.0,2.0,17.0,1651072233244305.0
72.0,-33.0,-34.0,11.0,-16.0,-9.0,-1.0,-15.0,1651072233253250.0
-108.0,-12.0,-60.0,-102.0,-15.0,-5.0,-4.0,-4.0,1651072233253250.0
55.0,-38.0,35.0,91.0,2.0,-2.0,5.0,12.0,1651072233268384.0
91.0,-32.0,-48.0,-95.0,-12.0,-7.0,2.0,10.0,1651072233268384.0
-56.0,80.0,33.0,40.0,36.0,17.0,-2.0,-6.0,1651072233269385.0
-24.0,42.0,42.0,-33.0,-15.0,-5.0,-1.0,15.0,1651072233269385.0
-87.0,-2.0,-26.0,1.0,-4.0,-7.0,-4.0,-22.0,1651072233290380.0
-1.0,-39.0,-4.0,27.0,10.0,2.0,-4.0,-19.0,1651072233290380.0
127.0,15.0,-21.0,42.0,-11.0,-5.0,-3.0,27.0,1651072233292441.0
-127.0,10.0,29.0,-46.0,6.0,10.0,7.0,-29.0,1651072233292441.0
21.0,-71.0,-5.0,90.0,-14.0,-16.0,-9.0,33.0,1651072233304380.0
-51.0,7.0,36.0,-81.0,-8.0,8.0,11.0,1.0,1651072233304380.0
-124.0,-15.0,-67.0,-49.0,-58.0,-31.0,-4.0,-47.0,1651072233313179.0
38.0,24.0,9.0,47.0,15.0,6.0,-22.0,-19.0,1651072233313179.0
34.0,-10.0,22.0,-21.0,16.0,8.0,11.0,27.0,1651072233328162.0
25.0,29.0,-12.0,90.0,18.0,5.0,6.0,26.0,1651072233328162.0
-62.0,-32.0,28.0,-73.0,10.0,7.0,2.0,21.0,1651072233329133.0
-109.0,9.0,-29.0,15.0,-21.0,-11.0,-9.0,-40.0,1651072233329133.0
1.0,-59.0,-19.0,12.0,-3.0,-10.0,-13.0,14.0,1651072233350103.0
-33.0,-19.0,-41.0,-47.0,-24.0,-1.0,-3.0,-14.0,1651072233350103.0
5.0,32.0,31.0,33.0,17.0,10.0,7.0,-5.0,1651072233352083.0
-67.0,-4.0,11.0,3.0,-4.0,-7.0,-2.0,0.0,1651072233352083.0
24.0,34.0,-17.0,-23.0,19.0,11.0,2.0,-4.0,1651072233364103.0
28.0,-25.0,40.0,125.0,1.0,-6.0,0.0,16.0,1651072233364103.0
-14.0,31.0,4.0,-23.0,7.0,9.0,2.0,-7.0,1651072233373030.0
37.0,-51.0,7.0,25.0,7.0,0.0,3.0,7.0,1651072233373030.0
60.0,57.0,5.0,7.0,-2.0,3.0,3.0,-4.0,1651072233387059.0
-34.0,-35.0,-25.0,-111.0,-16.0,-6.0,-3.0,-2.0,1651072233387059.0
1.0,-34.0,-16.0,-7.0,-7.0,-10.0,-20.0,-1.0,1651072233394040.0
50.0,12.0,11.0,29.0,16.0,12.0,23.0,17.0,1651072233394040.0
13.0,29.0,6.0,-39.0,-30.0,-6.0,-2.0,-26.0,1651072233410887.0
-7.0,-28.0,-23.0,-3.0,18.0,5.0,7.0,7.0,1651072233410887.0
-67.0,-18.0,18.0,45.0,16.0,2.0,1.0,6.0,1651072233411666.0
-23.0,34.0,0.0,-14.0,8.0,-1.0,-6.0,2.0,1651072233411666.0
26.0,-23.0,-25.0,-45.0,-6.0,-1.0,-2.0,-4.0,1651072233433379.0
-110.0,27.0,27.0,6.0,4.0,4.0,-1.0,-5.0,1651072233433379.0
59.0,-25.0,15.0,30.0,-3.0,-4.0,-4.0,-4.0,1651072233434384.0
127.0,-49.0,-55.0,11.0,-5.0,-2.0,-5.0,2.0,1651072233434384.0
-128.0,-16.0,-20.0,-48.0,-37.0,-13.0,-6.0,-12.0,1651072233447409.0
91.0,6.0,7.0,21.0,12.0,3.0,-2.0,7.0,1651072233447409.0
-57.0,61.0,26.0,-31.0,14.0,13.0,18.0,-3.0,1651072233454323.0
82.0,-10.0,37.0,83.0,0.0,-9.0,-1.0,22.0,1651072233454323.0
-44.0,32.0,-11.0,-25.0,5.0,9.0,6.0,-7.0,1651072233470459.0
-19.0,-15.0,-17.0,-44.0,-19.0,-12.0,-12.0,-19.0,1651072233470459.0
-7.0,-1.0,-17.0,47.0,7.0,2.0,2.0,7.0,1651072233472386.0
36.0,0.0,14.0,50.0,9.0,-8.0,2.0,5.0,1651072233472386.0
-86.0,12.0,1.0,-45.0,9.0,17.0,1.0,-2.0,1651072233493683.0
-34.0,22.0,33.0,50.0,6.0,1.0,1.0,1.0,1651072233493683.0
-7.0,6.0,-30.0,-95.0,-15.0,2.0,2.0,3.0,1651072233494676.0
12.0,-32.0,-3.0,-16.0,-6.0,-4.0,-1.0,-2.0,1651072233494676.0
6.0,-14.0,7.0,38.0,8.0,-5.0,-3.0,-2.0,1651072233507708.0
10.0,14.0,-1.0,-28.0,-1.0,2.0,-1.0,-3.0,1651072233507708.0
37.0,-19.0,-15.0,7.0,-1.0,-1.0,-3.0,-2.0,1651072233514631.0
-128.0,33.0,29.0,7.0,-6.0,3.0,5.0,-6.0,1651072233514631.0
102.0,41.0,8.0,-38.0,-4.0,-8.0,10.0,11.0,1651072233530914.0
53.0,4.0,-21.0,32.0,3.0,2.0,0.0,0.0,1651072233530914.0
102.0,-11.0,8.0,-33.0,12.0,4.0,2.0,11.0,1651072233531617.0
-38.0,22.0,51.0,90.0,10.0,1.0,-9.0,-9.0,1651072233531617.0
44.0,17.0,-38.0,11.0,-10.0,1.0,1.0,-1.0,1651072233552725.0
-24.0,4.0,-2.0,-41.0,-16.0,-8.0,-4.0,-9.0,1651072233552725.0
-97.0,2.0,-7.0,17.0,-14.0,-10.0,-6.0,-1.0,1651072233554653.0
-25.0,8.0,6.0,-29.0,14.0,12.0,3.0,-3.0,1651072233554653.0
-81.0,-26.0,20.0,-1.0,2.0,-1.0,3.0,12.0,1651072233567622.0
55.0,25.0,-6.0,7.0,-10.0,-5.0,0.0,1.0,1651072233567622.0
-4.0,0.0,-18.0,-50.0,-7.0,-9.0,-5.0,-10.0,1651072233574608.0
78.0,-15.0,3.0,-28.0,-1.0,11.0,1.0,4.0,1651072233574608.0
48.0,-8.0,27.0,45.0,14.0,-2.0,0.0,8.0,1651072233590673.0
-17.0,-12.0,-2.0,28.0,10.0,5.0,0.0,5.0,1651072233590673.0
-15.0,12.0,43.0,46.0,10.0,8.0,4.0,2.0,1651072233591604.0
82.0,-10.0,-46.0,-54.0,-18.0,-9.0,3.0,10.0,1651072233591604.0
2.0,3.0,-1.0,-32.0,10.0,4.0,1.0,1.0,1651072233612529.0
-5.0,-18.0,7.0,-38.0,-6.0,-1.0,-1.0,3.0,1651072233612529.0
66.0,-1.0,-4.0,36.0,-9.0,-6.0,-4.0,-6.0,1651072233614515.0
-57.0,-5.0,2.0,-17.0,3.0,2.0,0.0,0.0,1651072233614515.0
-3.0,1.0,-13.0,3.0,-6.0,-5.0,-6.0,-4.0,1651072233627479.0
5.0,5.0,21.0,14.0,14.0,6.0,3.0,-1.0,1651072233627479.0
-24.0,-23.0,-20.0,-2.0,-25.0,-8.0,0.0,-1.0,1651072233634529.0
-36.0,19.0,7.0,-52.0,3.0,-1.0,-1.0,-9.0,1651072233634529.0
6.0,0.0,7.0,19.0,5.0,-2.0,-2.0,-3.0,1651072233650613.0
7.0,21.0,-26.0,-42.0,-7.0,-5.0,-1.0,-7.0,1651072233650613.0
74.0,-9.0,16.0,31.0,6.0,0.0,-3.0,-8.0,1651072233652541.0
3.0,14.0,-6.0,16.0,-5.0,-2.0,0.0,-7.0,1651072233652541.0
-15.0,-1.0,-12.0,-3.0,3.0,6.0,3.0,1.0,1651072233673448.0
-44.0,-1.0,-21.0,-48.0,-13.0,-3.0,0.0,9.0,1651072233673448.0
-1.0,18.0,19.0,48.0,19.0,9.0,5.0,6.0,1651072233674440.0
10.0,-33.0,-20.0,-3.0,-13.0,-4.0,2.0,4.0,1651072233674440.0
-18.0,-33.0,-25.0,19.0,3.0,0.0,3.0,5.0,1651072233689741.0
-2.0,11.0,26.0,34.0,-7.0,-5.0,-6.0,-12.0,1651072233689741.0
-24.0,-7.0,4.0,-47.0,8.0,0.0,-1.0,7.0,1651072233693732.0
44.0,8.0,-13.0,-35.0,-9.0,-1.0,-1.0,0.0,1651072233693732.0
-6.0,12.0,19.0,17.0,-8.0,-2.0,-3.0,4.0,1651072233710754.0
74.0,13.0,-10.0,18.0,-6.0,-4.0,1.0,1.0,1651072233710754.0
-33.0,16.0,2.0,-17.0,2.0,1.0,-1.0,-1.0,1651072233711708.0
5.0,1.0,11.0,10.0,9.0,6.0,2.0,2.0,1651072233711708.0
-50.0,-18.0,-21.0,-5.0,10.0,0.0,-3.0,-5.0,1651072233733204.0
44.0,10.0,6.0,-19.0,-9.0,-5.0,2.0,8.0,1651072233733204.0
-7.0,-10.0,8.0,14.0,2.0,0.0,2.0,2.0,1651072233734640.0
-64.0,-1.0,-20.0,-29.0,-9.0,-8.0,-5.0,-8.0,1651072233734640.0
-9.0,-6.0,2.0,10.0,-14.0,-4.0,-4.0,-8.0,1651072233747673.0
-24.0,14.0,9.0,-10.0,16.0,5.0,-1.0,-2.0,1651072233747673.0
27.0,-3.0,-13.0,-19.0,-12.0,-5.0,-3.0,1.0,1651072233754640.0
-21.0,-1.0,-5.0,-1.0,4.0,1.0,3.0,0.0,1651072233754640.0
81.0,-1.0,27.0,18.0,7.0,2.0,-2.0,0.0,1651072233770715.0
4.0,-7.0,-3.0,-9.0,-6.0,-5.0,-3.0,-7.0,1651072233770715.0
50.0,-6.0,1.0,22.0,-2.0,-1.0,-2.0,10.0,1651072233771672.0
41.0,28.0,24.0,30.0,0.0,-3.0,-1.0,2.0,1651072233771672.0
-14.0,-22.0,-33.0,-76.0,-6.0,-1.0,-2.0,-6.0,1651072233792266.0
-33.0,13.0,20.0,38.0,1.0,-3.0,-2.0,-8.0,1651072233792266.0
-7.0,-3.0,-17.0,-33.0,-16.0,-3.0,0.0,-5.0,1651072233801185.0
17.0,12.0,3.0,-20.0,8.0,3.0,-1.0,2.0,1651072233801185.0
8.0,5.0,48.0,78.0,26.0,7.0,6.0,15.0,1651072233807170.0
-1.0,-14.0,-53.0,-59.0,-24.0,-13.0,-6.0,-4.0,1651072233807170.0
-16.0,15.0,5.0,-9.0,8.0,7.0,1.0,-2.0,1651072233814142.0
-38.0,-14.0,-18.0,-11.0,-8.0,-6.0,-6.0,-4.0,1651072233814142.0
1.0,13.0,7.0,1.0,3.0,1.0,1.0,-4.0,1651072233830729.0
15.0,-23.0,2.0,17.0,10.0,15.0,3.0,-4.0,1651072233830729.0
0.0,7.0,8.0,-5.0,-3.0,-5.0,0.0,1.0,1651072233831688.0
-17.0,-15.0,-39.0,-33.0,-16.0,-6.0,-5.0,-7.0,1651072233831688.0
-6.0,-2.0,4.0,16.0,-1.0,-5.0,-1.0,12.0,1651072233852870.0
-4.0,9.0,30.0,39.0,6.0,-2.0,0.0,3.0,1651072233852870.0
-15.0,4.0,-7.0,-6.0,-4.0,-3.0,-2.0,-8.0,1651072233854827.0
-22.0,-7.0,16.0,21.0,5.0,2.0,1.0,-5.0,1651072233854827.0
6.0,11.0,-16.0,-56.0,-19.0,-6.0,2.0,0.0,1651072233866861.0
1.0,-14.0,-3.0,17.0,6.0,2.0,1.0,5.0,1651072233866861.0
18.0,1.0,5.0,-3.0,5.0,4.0,1.0,2.0,1651072233875771.0
50.0,-1.0,19.0,52.0,13.0,-3.0,-4.0,-1.0,1651072233875771.0
17.0,18.0,-15.0,-38.0,-21.0,-9.0,-4.0,-10.0,1651072233890886.0
-73.0,1.0,7.0,25.0,3.0,5.0,1.0,2.0,1651072233890886.0
17.0,21.0,8.0,35.0,11.0,1.0,3.0,5.0,1651072233891652.0
-7.0,5.0,-10.0,-6.0,-5.0,1.0,0.0,-1.0,1651072233891652.0
-30.0,-20.0,-21.0,-11.0,-3.0,-1.0,-2.0,-2.0,1651072233912666.0
19.0,5.0,-11.0,-42.0,-12.0,-6.0,-1.0,1.0,1651072233912666.0
-16.0,-11.0,-4.0,29.0,18.0,4.0,-2.0,-5.0,1651072233914594.0
-4.0,1.0,12.0,22.0,1.0,3.0,4.0,4.0,1651072233914594.0
-27.0,6.0,-23.0,-29.0,-6.0,-1.0,-2.0,-5.0,1651072233926634.0
3.0,-8.0,-14.0,-25.0,-5.0,-4.0,-1.0,4.0,1651072233926634.0
-38.0,-20.0,-15.0,1.0,-4.0,0.0,0.0,-4.0,1651072233935537.0
52.0,-18.0,5.0,34.0,4.0,-2.0,-1.0,-2.0,1651072233935537.0
-29.0,3.0,13.0,5.0,3.0,3.0,0.0,-1.0,1651072233950505.0
-6.0,-15.0,12.0,35.0,4.0,1.0,-3.0,-8.0,1651072233950505.0
-30.0,-5.0,-22.0,-20.0,-8.0,-1.0,-1.0,2.0,1651072233952501.0
-26.0,9.0,16.0,-4.0,2.0,2.0,3.0,4.0,1651072233952501.0
26.0,-23.0,-27.0,10.0,-3.0,-2.0,0.0,2.0,1651072233972611.0
14.0,0.0,3.0,-7.0,1.0,-2.0,2.0,5.0,1651072233972611.0
5.0,-3.0,18.0,5.0,3.0,3.0,0.0,0.0,1651072233974579.0
-56.0,-7.0,-2.0,14.0,-6.0,-4.0,-1.0,-3.0,1651072233974579.0
-13.0,27.0,23.0,-4.0,4.0,1.0,-5.0,-5.0,1651072233986431.0
3.0,11.0,1.0,-1.0,14.0,5.0,3.0,1.0,1651072233986431.0
-10.0,1.0,-6.0,-20.0,-12.0,-3.0,2.0,1.0,1651072233995548.0
-58.0,3.0,22.0,-29.0,-7.0,-5.0,0.0,-1.0,1651072233995548.0
11.0,-11.0,-12.0,31.0,8.0,-2.0,-4.0,-1.0,1651072234010563.0
-50.0,-2.0,7.0,-5.0,-2.0,-4.0,-1.0,-6.0,1651072234010563.0
27.0,11.0,9.0,24.0,4.0,0.0,-1.0,-1.0,1651072234012520.0
-21.0,3.0,3.0,-16.0,6.0,7.0,3.0,5.0,1651072234012520.0
39.0,-1.0,-3.0,-14.0,-4.0,1.0,5.0,4.0,1651072234033413.0
-53.0,-24.0,8.0,46.0,-3.0,-1.0,-1.0,-4.0,1651072234033413.0
-23.0,-4.0,-2.0,-23.0,0.0,-1.0,-1.0,0.0,1651072234034422.0
24.0,-3.0,-15.0,-25.0,-9.0,-4.0,0.0,9.0,1651072234034422.0
-9.0,15.0,14.0,4.0,-7.0,-1.0,0.0,1.0,1651072234046448.0
40.0,-1.0,-10.0,-11.0,6.0,2.0,1.0,0.0,1651072234046448.0
-38.0,-7.0,13.0,34.0,9.0,2.0,-2.0,-3.0,1651072234055367.0
38.0,7.0,-21.0,-15.0,-8.0,-5.0,-3.0,-6.0,1651072234055367.0
64.0,6.0,4.0,-23.0,15.0,9.0,5.0,11.0,1651072234070384.0
42.0,3.0,-15.0,-1.0,-5.0,-1.0,0.0,3.0,1651072234070384.0
35.0,17.0,13.0,-4.0,-2.0,-2.0,-3.0,-5.0,1651072234072338.0
-1.0,10.0,-8.0,-16.0,-6.0,-3.0,-4.0,-3.0,1651072234072338.0
13.0,-10.0,3.0,36.0,-5.0,-6.0,-3.0,-3.0,1651072234092503.0
-1.0,6.0,0.0,-20.0,10.0,5.0,-2.0,-6.0,1651072234092503.0
18.0,2.0,12.0,0.0,-7.0,-2.0,0.0,-3.0,1651072234094435.0
-20.0,-39.0,-27.0,6.0,-8.0,-4.0,0.0,2.0,1651072234094435.0
-27.0,25.0,20.0,17.0,3.0,5.0,-3.0,-13.0,1651072234106583.0
-3.0,-13.0,-1.0,0.0,4.0,-3.0,-2.0,3.0,1651072234106583.0
6.0,-9.0,-29.0,-24.0,-6.0,-4.0,-1.0,-6.0,1651072234115373.0
29.0,14.0,1.0,9.0,6.0,4.0,2.0,-3.0,1651072234115373.0
-30.0,-18.0,0.0,-48.0,-3.0,-3.0,2.0,1.0,1651072234130241.0
14.0,-9.0,14.0,45.0,5.0,5.0,1.0,2.0,1651072234130241.0
19.0,9.0,10.0,12.0,-5.0,-1.0,1.0,5.0,1651072234132235.0
26.0,-14.0,-16.0,-13.0,10.0,2.0,0.0,3.0,1651072234132235.0
11.0,7.0,6.0,-14.0,-2.0,1.0,0.0,1.0,1651072234153200.0
45.0,2.0,12.0,29.0,-7.0,-1.0,0.0,0.0,1651072234153200.0
-15.0,4.0,-1.0,-15.0,12.0,2.0,0.0,-1.0,1651072234154177.0
2.0,-12.0,-10.0,-2.0,-10.0,-3.0,-2.0,1.0,1651072234154177.0
-36.0,-7.0,2.0,26.0,1.0,-4.0,-5.0,-7.0,1651072234175321.0
13.0,10.0,-14.0,-35.0,-11.0,-2.0,-2.0,2.0,1651072234175321.0
-47.0,-8.0,-23.0,-19.0,-10.0,-1.0,-2.0,-1.0,1651072234177278.0
19.0,11.0,11.0,35.0,13.0,0.0,0.0,4.0,1651072234177278.0
-68.0,12.0,2.0,-17.0,-6.0,-5.0,-2.0,2.0,1651072234190935.0
-32.0,13.0,-2.0,-16.0,5.0,3.0,-1.0,-5.0,1651072234190935.0
-5.0,-7.0,17.0,41.0,5.0,-3.0,-2.0,-1.0,1651072234191618.0
-3.0,12.0,-18.0,-58.0,-18.0,2.0,1.0,1.0,1651072234191618.0
18.0,5.0,15.0,32.0,1.0,-1.0,2.0,4.0,1651072234213266.0
-10.0,21.0,3.0,-5.0,2.0,-3.0,-2.0,-3.0,1651072234213266.0
-28.0,-19.0,-12.0,-1.0,-10.0,-6.0,-5.0,-3.0,1651072234214271.0
66.0,-6.0,-1.0,-15.0,1.0,4.0,2.0,-1.0,1651072234214271.0
-22.0,-8.0,-1.0,22.0,7.0,0.0,0.0,1.0,1651072234226301.0
32.0,4.0,-9.0,-25.0,-3.0,1.0,-1.0,-2.0,1651072234226301.0
-28.0,-14.0,-3.0,8.0,-5.0,0.0,2.0,-7.0,1651072234241312.0
-21.0,12.0,22.0,28.0,8.0,2.0,-1.0,-3.0,1651072234241312.0
2.0,-1.0,-15.0,-19.0,-1.0,-1.0,0.0,-3.0,1651072234250911.0
1.0,-3.0,14.0,19.0,11.0,1.0,3.0,4.0,1651072234250911.0
28.0,-6.0,-12.0,-2.0,-2.0,0.0,-3.0,0.0,1651072234251650.0
-3.0,8.0,18.0,11.0,-5.0,2.0,-2.0,-1.0,1651072234251650.0
34.0,-13.0,-42.0,-9.0,-14.0,-7.0,-3.0,-3.0,1651072234272766.0
-62.0,-2.0,12.0,11.0,-1.0,-6.0,-4.0,0.0,1651072234272766.0
1.0,5.0,3.0,-1.0,-2.0,-2.0,-1.0,2.0,1651072234274701.0
37.0,15.0,19.0,-5.0,20.0,9.0,4.0,1.0,1651072234274701.0
-47.0,-13.0,-6.0,15.0,-7.0,1.0,-1.0,0.0,1651072234286739.0
24.0,-18.0,-4.0,-38.0,-23.0,-6.0,1.0,8.0,1651072234286739.0
11.0,27.0,10.0,6.0,5.0,3.0,-1.0,-2.0,1651072234295664.0
-10.0,2.0,-5.0,11.0,8.0,0.0,2.0,4.0,1651072234295664.0
-14.0,6.0,17.0,8.0,6.0,3.0,-1.0,-1.0,1651072234310910.0
5.0,3.0,3.0,0.0,-2.0,-1.0,-1.0,-3.0,1651072234310910.0
-13.0,-15.0,4.0,12.0,1.0,0.0,-1.0,-1.0,1651072234312380.0
-5.0,-14.0,-30.0,-23.0,-5.0,-3.0,-3.0,-4.0,1651072234312380.0
29.0,2.0,16.0,3.0,2.0,6.0,4.0,6.0,1651072234332580.0
-26.0,17.0,-5.0,45.0,11.0,-2.0,-3.0,-10.0,1651072234332580.0
24.0,11.0,38.0,27.0,-4.0,-3.0,1.0,1.0,1651072234334512.0
9.0,-11.0,-28.0,-4.0,-6.0,-3.0,-1.0,2.0,1651072234334512.0
-12.0,-2.0,-3.0,-43.0,-12.0,3.0,-1.0,-2.0,1651072234346543.0
84.0,16.0,-11.0,-51.0,0.0,1.0,1.0,0.0,1651072234346543.0
3.0,-10.0,-2.0,-16.0,3.0,-1.0,1.0,5.0,1651072234355451.0
-45.0,-4.0,2.0,21.0,2.0,-1.0,1.0,-7.0,1651072234355451.0
-18.0,-2.0,13.0,18.0,1.0,-4.0,-2.0,-1.0,1651072234371029.0
13.0,2.0,-13.0,-27.0,-7.0,1.0,2.0,2.0,1651072234371029.0
19.0,-14.0,-14.0,-13.0,-1.0,1.0,0.0,4.0,1651072234372013.0
12.0,4.0,11.0,17.0,5.0,-1.0,-6.0,-16.0,1651072234372013.0
37.0,1.0,-15.0,-15.0,-4.0,2.0,2.0,5.0,1651072234392823.0
26.0,-3.0,4.0,-8.0,-15.0,-5.0,-3.0,1.0,1651072234392823.0
1.0,-17.0,-23.0,-3.0,7.0,3.0,2.0,3.0,1651072234394820.0
-110.0,21.0,11.0,11.0,3.0,-1.0,-4.0,-4.0,1651072234394820.0
-9.0,-1.0,1.0,-18.0,11.0,4.0,1.0,-5.0,1651072234415968.0
4.0,24.0,13.0,2.0,-14.0,-5.0,-1.0,-8.0,1651072234415968.0
47.0,-17.0,-25.0,-10.0,-13.0,-5.0,-1.0,7.0,1651072234416897.0
17.0,3.0,13.0,13.0,-2.0,1.0,2.0,2.0,1651072234416897.0
22.0,3.0,4.0,11.0,8.0,-2.0,-5.0,-5.0,1651072234430863.0
-104.0,4.0,-26.0,-17.0,0.0,2.0,0.0,0.0,1651072234430863.0
-5.0,5.0,31.0,8.0,2.0,1.0,1.0,-3.0,1651072234431873.0
-15.0,-21.0,-34.0,-12.0,5.0,1.0,-2.0,-2.0,1651072234431873.0
3.0,0.0,26.0,21.0,-8.0,-4.0,-1.0,2.0,1651072234452954.0
18.0,-7.0,1.0,16.0,-2.0,4.0,0.0,0.0,1651072234452954.0
-30.0,-1.0,-26.0,-40.0,9.0,-2.0,1.0,-1.0,1651072234454882.0
-15.0,-5.0,25.0,33.0,-9.0,-7.0,-5.0,-4.0,1651072234454882.0
29.0,-12.0,-21.0,-16.0,1.0,-2.0,0.0,2.0,1651072234475650.0
-16.0,-49.0,-19.0,-9.0,2.0,2.0,0.0,4.0,1651072234475650.0
46.0,23.0,27.0,1.0,-9.0,-2.0,-1.0,-2.0,1651072234477586.0
-9.0,-15.0,-9.0,-20.0,-2.0,0.0,2.0,4.0,1651072234477586.0
-40.0,2.0,2.0,6.0,2.0,-1.0,-3.0,-10.0,1651072234497572.0
-24.0,-3.0,23.0,43.0,8.0,2.0,2.0,-1.0,1651072234497572.0
9.0,4.0,-12.0,-14.0,3.0,-1.0,0.0,1.0,1651072234499566.0
-25.0,-7.0,0.0,-33.0,-9.0,-2.0,-2.0,-2.0,1651072234499566.0
23.0,8.0,17.0,30.0,-1.0,6.0,2.0,6.0,1651072234520807.0
5.0,10.0,-20.0,0.0,3.0,-6.0,-1.0,-2.0,1651072234520807.0
-42.0,6.0,1.0,9.0,2.0,4.0,1.0,-11.0,1651072234521776.0
8.0,5.0,16.0,15.0,-2.0,1.0,2.0,5.0,1651072234521776.0
-25.0,18.0,24.0,-12.0,-11.0,-3.0,1.0,-1.0,1651072234535329.0
-7.0,-11.0,-51.0,-28.0,1.0,-2.0,0.0,4.0,1651072234535329.0
-3.0,-7.0,-6.0,10.0,2.0,-1.0,-1.0,2.0,1651072234537257.0
15.0,11.0,-3.0,-11.0,3.0,0.0,0.0,0.0,1651072234537257.0
28.0,-7.0,1.0,13.0,-1.0,-2.0,-3.0,1.0,1651072234549338.0
-13.0,9.0,47.0,32.0,14.0,5.0,0.0,-2.0,1651072234549338.0
14.0,-2.0,-9.0,-29.0,-5.0,-1.0,1.0,4.0,1651072234557353.0
18.0,-5.0,-9.0,11.0,13.0,6.0,5.0,9.0,1651072234557353.0
-107.0,45.0,13.0,15.0,2.0,-2.0,2.0,4.0,1651072234572712.0
-54.0,-37.0,-19.0,-23.0,-22.0,-11.0,-7.0,-13.0,1651072234572712.0
-48.0,-9.0,13.0,16.0,9.0,1.0,-2.0,-9.0,1651072234572712.0
17.0,7.0,4.0,-2.0,6.0,2.0,2.0,3.0,1651072234572712.0
43.0,-26.0,-31.0,-13.0,2.0,-1.0,-3.0,-2.0,1651072234595306.0
16.0,15.0,19.0,-5.0,2.0,4.0,3.0,8.0,1651072234595306.0
-31.0,16.0,-2.0,20.0,-4.0,-4.0,-2.0,-3.0,1651072234595415.0
-6.0,-21.0,-8.0,-25.0,-3.0,0.0,-1.0,-3.0,1651072234595415.0
32.0,6.0,1.0,8.0,9.0,4.0,2.0,2.0,1651072234609559.0
26.0,18.0,30.0,9.0,3.0,3.0,4.0,7.0,1651072234609559.0
-49.0,-32.0,-22.0,-26.0,-17.0,-4.0,0.0,4.0,1651072234617336.0
17.0,10.0,13.0,37.0,-5.0,-6.0,-5.0,-4.0,1651072234617336.0
14.0,-17.0,-30.0,-18.0,0.0,-3.0,-3.0,-3.0,1651072234632754.0
13.0,-1.0,8.0,11.0,5.0,2.0,-1.0,-1.0,1651072234632754.0
1.0,3.0,5.0,-1.0,0.0,1.0,1.0,1.0,1651072234632754.0
-5.0,4.0,3.0,-3.0,-4.0,-1.0,1.0,0.0,1651072234632754.0
-4.0,-6.0,1.0,-9.0,-3.0,-4.0,-1.0,-3.0,1651072234654924.0
13.0,0.0,-2.0,3.0,1.0,-2.0,-2.0,-2.0,1651072234654924.0
11.0,6.0,0.0,-2.0,3.0,4.0,0.0,-2.0,1651072234655975.0
-2.0,-7.0,-9.0,-1.0,-3.0,-3.0,-1.0,-3.0,1651072234655975.0
18.0,-8.0,3.0,25.0,6.0,1.0,-1.0,0.0,1651072234668887.0
-2.0,-5.0,-23.0,-20.0,-7.0,-5.0,-3.0,-3.0,1651072234668887.0
12.0,-2.0,-16.0,-16.0,-17.0,-4.0,-2.0,-3.0,1651072234677822.0
-15.0,-10.0,5.0,-10.0,-3.0,-3.0,-5.0,-2.0,1651072234677822.0
-6.0,-6.0,-8.0,-24.0,-2.0,1.0,1.0,-2.0,1651072234692414.0
-15.0,-1.0,-1.0,6.0,11.0,2.0,1.0,1.0,1651072234692414.0
4.0,0.0,3.0,13.0,9.0,0.0,-2.0,1.0,1651072234693361.0
10.0,-1.0,-1.0,-6.0,0.0,2.0,3.0,1.0,1651072234693361.0
-7.0,-11.0,-2.0,1.0,0.0,-1.0,-2.0,-4.0,1651072234714465.0
7.0,-1.0,0.0,-3.0,-1.0,0.0,1.0,-1.0,1651072234714465.0
11.0,-3.0,-2.0,-1.0,-2.0,-3.0,0.0,1.0,1651072234715515.0
0.0,4.0,0.0,2.0,-2.0,-2.0,-4.0,-3.0,1651072234715515.0
4.0,0.0,-2.0,-4.0,-5.0,-3.0,0.0,1.0,1651072234729438.0
14.0,11.0,5.0,3.0,-8.0,0.0,0.0,4.0,1651072234729438.0
0.0,-6.0,2.0,-1.0,1.0,0.0,1.0,4.0,1651072234737349.0
-1.0,-2.0,3.0,17.0,5.0,-4.0,2.0,-1.0,1651072234737349.0
-3.0,4.0,-1.0,4.0,-1.0,7.0,-3.0,-5.0,1651072234752726.0
-5.0,-3.0,-1.0,-15.0,1.0,-2.0,-1.0,-3.0,1651072234752726.0
1.0,4.0,2.0,20.0,-2.0,-1.0,-3.0,-3.0,1651072234752726.0
-8.0,-7.0,-6.0,-32.0,-6.0,-2.0,-2.0,-1.0,1651072234752726.0
-13.0,-8.0,8.0,-7.0,1.0,-2.0,2.0,3.0,1651072234775283.0
-15.0,6.0,6.0,30.0,-3.0,-1.0,-3.0,-7.0,1651072234775283.0
-7.0,6.0,8.0,4.0,1.0,0.0,1.0,-5.0,1651072234775283.0
-17.0,3.0,-12.0,-1.0,-1.0,2.0,1.0,5.0,1651072234775283.0
-6.0,-3.0,-3.0,-5.0,3.0,0.0,3.0,8.0,1651072234788990.0
-5.0,-2.0,-4.0,-26.0,-2.0,0.0,0.0,-3.0,1651072234788990.0
-10.0,-8.0,2.0,2.0,2.0,-2.0,-2.0,-2.0,1651072234805262.0
6.0,-2.0,3.0,6.0,-5.0,0.0,-1.0,-8.0,1651072234805262.0
9.0,9.0,-7.0,-12.0,-10.0,-6.0,-4.0,1.0,1651072234812692.0
6.0,-10.0,3.0,10.0,10.0,1.0,-1.0,1.0,1651072234812692.0
3.0,0.0,-1.0,13.0,7.0,8.0,0.0,-1.0,1651072234812692.0
10.0,-2.0,-5.0,-26.0,-4.0,3.0,5.0,4.0,1651072234812692.0
8.0,-1.0,7.0,29.0,1.0,-2.0,-1.0,-5.0,1651072234835340.0
-9.0,-2.0,14.0,65.0,-3.0,-7.0,-4.0,-3.0,1651072234835340.0
21.0,-7.0,-27.0,-60.0,-5.0,-5.0,-1.0,2.0,1651072234835444.0
12.0,25.0,2.0,-4.0,-1.0,4.0,-2.0,0.0,1651072234835444.0
-6.0,1.0,3.0,0.0,8.0,-4.0,-4.0,-10.0,1651072234857858.0
41.0,2.0,-4.0,16.0,5.0,1.0,1.0,4.0,1651072234857858.0
-9.0,2.0,14.0,-5.0,-4.0,5.0,13.0,6.0,1651072234858789.0
11.0,-15.0,-19.0,-23.0,-15.0,-5.0,-4.0,-1.0,1651072234858789.0
-32.0,0.0,4.0,-6.0,-1.0,4.0,3.0,0.0,1651072234872810.0
10.0,-6.0,2.0,9.0,4.0,-3.0,-7.0,-4.0,1651072234872810.0
13.0,3.0,-1.0,5.0,3.0,-2.0,-5.0,-2.0,1651072234872810.0
-3.0,5.0,-6.0,3.0,2.0,-1.0,-2.0,-2.0,1651072234872810.0
20.0,5.0,-3.0,-7.0,-7.0,1.0,4.0,0.0,1651072234894626.0
-6.0,-3.0,-6.0,-17.0,1.0,2.0,0.0,-1.0,1651072234894626.0
-10.0,3.0,-5.0,-1.0,-2.0,0.0,0.0,-3.0,1651072234895666.0
-7.0,1.0,15.0,17.0,1.0,-2.0,-2.0,-1.0,1651072234895666.0
3.0,-5.0,-8.0,-5.0,-2.0,-2.0,-3.0,-4.0,1651072234918511.0
3.0,1.0,-5.0,-18.0,-12.0,-2.0,1.0,1.0,1651072234918511.0
4.0,3.0,2.0,2.0,-4.0,-4.0,0.0,0.0,1651072234918511.0
5.0,-1.0,5.0,10.0,9.0,2.0,-1.0,-2.0,1651072234918511.0
6.0,-8.0,-4.0,6.0,0.0,-3.0,-3.0,0.0,1651072234932769.0
-3.0,3.0,1.0,-11.0,-4.0,2.0,1.0,1.0,1651072234932769.0
1.0,4.0,1.0,10.0,1.0,0.0,-3.0,-2.0,1651072234932769.0
-7.0,-5.0,0.0,6.0,-2.0,-3.0,-1.0,-2.0,1651072234932769.0
-5.0,-2.0,-6.0,-10.0,-6.0,-4.0,-5.0,-2.0,1651072234955335.0
-2.0,2.0,-4.0,-24.0,0.0,-3.0,1.0,0.0,1651072234955335.0
0.0,2.0,6.0,25.0,3.0,11.0,3.0,-1.0,1651072234955435.0
2.0,1.0,0.0,0.0,-5.0,-4.0,2.0,2.0,1651072234955435.0
5.0,-1.0,1.0,4.0,4.0,3.0,3.0,-1.0,1651072234969324.0
-4.0,1.0,-3.0,-11.0,3.0,1.0,-1.0,-1.0,1651072234969324.0
3.0,-4.0,-1.0,0.0,0.0,-2.0,-3.0,1.0,1651072234977303.0
-4.0,6.0,1.0,1.0,-3.0,3.0,0.0,2.0,1651072234977303.0
4.0,-12.0,0.0,-4.0,-4.0,-10.0,-2.0,-1.0,1651072234992263.0
-1.0,6.0,-4.0,0.0,9.0,6.0,3.0,2.0,1651072234992263.0
-8.0,-1.0,-2.0,-3.0,3.0,2.0,-1.0,-4.0,1651072234993202.0
-5.0,-9.0,0.0,-1.0,-3.0,1.0,-2.0,-3.0,1651072234993202.0
4.0,7.0,0.0,1.0,-1.0,0.0,-2.0,-1.0,1651072235015942.0
-2.0,-1.0,0.0,-3.0,0.0,-2.0,-2.0,-1.0,1651072235015942.0
-1.0,-3.0,0.0,9.0,-7.0,-7.0,-6.0,-1.0,1651072235016713.0
-2.0,-2.0,-1.0,0.0,2.0,-3.0,-1.0,-2.0,1651072235016713.0
5.0,1.0,-1.0,-8.0,-2.0,1.0,2.0,1.0,1651072235029688.0
-4.0,-5.0,0.0,-3.0,-15.0,-2.0,2.0,-2.0,1651072235029688.0
0.0,1.0,-4.0,-13.0,4.0,0.0,-1.0,0.0,1651072235037655.0
4.0,2.0,3.0,10.0,9.0,2.0,4.0,2.0,1651072235037655.0
1.0,-1.0,2.0,5.0,6.0,4.0,2.0,2.0,1651072235052764.0
-6.0,-3.0,-5.0,-5.0,-3.0,1.0,-3.0,-2.0,1651072235052764.0
2.0,1.0,-1.0,-5.0,-13.0,-9.0,-3.0,-1.0,1651072235052764.0
-1.0,-3.0,-2.0,-4.0,-5.0,-2.0,0.0,-1.0,1651072235052764.0
1.0,2.0,2.0,1.0,2.0,1.0,0.0,0.0,1651072235075316.0
-3.0,0.0,-1.0,-3.0,-5.0,-4.0,-2.0,-2.0,1651072235075316.0
1.0,-3.0,-1.0,1.0,4.0,-7.0,-2.0,-1.0,1651072235075423.0
3.0,2.0,4.0,13.0,6.0,10.0,1.0,3.0,1651072235075423.0
-2.0,-2.0,-1.0,1.0,1.0,2.0,0.0,-2.0,1651072235097328.0
0.0,-2.0,3.0,1.0,-1.0,-3.0,1.0,-1.0,1651072235097328.0
-2.0,-3.0,-5.0,-7.0,2.0,-3.0,1.0,-2.0,1651072235098258.0
0.0,2.0,-2.0,-5.0,0.0,-2.0,-1.0,-1.0,1651072235098258.0
2.0,6.0,1.0,2.0,-6.0,0.0,0.0,3.0,1651072235113447.0
-2.0,-2.0,0.0,0.0,5.0,4.0,0.0,-2.0,1651072235113447.0
1.0,-1.0,-2.0,-4.0,1.0,3.0,-2.0,1.0,1651072235114444.0
-2.0,-4.0,1.0,-2.0,-8.0,-8.0,-3.0,-3.0,1651072235114444.0
-2.0,-1.0,0.0,0.0,3.0,-4.0,-1.0,-3.0,1651072235135293.0
1.0,-1.0,0.0,-2.0,2.0,8.0,1.0,-1.0,1651072235135293.0
3.0,3.0,3.0,4.0,8.0,2.0,1.0,1.0,1651072235135424.0
-1.0,-1.0,-2.0,0.0,-6.0,-2.0,-1.0,-2.0,1651072235135424.0
2.0,-2.0,-6.0,-15.0,-2.0,-1.0,0.0,1.0,1651072235157447.0
-2.0,-2.0,2.0,12.0,-1.0,-5.0,0.0,0.0,1651072235157447.0
-5.0,-2.0,2.0,1.0,-4.0,1.0,-1.0,-4.0,1651072235158447.0
1.0,2.0,1.0,-3.0,-3.0,-2.0,-1.0,0.0,1651072235158447.0
0.0,2.0,-3.0,-5.0,-11.0,-3.0,1.0,-2.0,1651072235172417.0
-1.0,1.0,-4.0,-11.0,11.0,1.0,-2.0,1.0,1651072235172417.0
-3.0,-3.0,1.0,7.0,2.0,2.0,2.0,1.0,1651072235173408.0
-4.0,-2.0,-2.0,-2.0,-5.0,-3.0,-2.0,-2.0,1651072235173408.0
-2.0,0.0,-1.0,0.0,1.0,0.0,-2.0,-1.0,1651072235194538.0
5.0,0.0,-1.0,0.0,-5.0,-2.0,1.0,3.0,1651072235194538.0
-2.0,3.0,-1.0,-5.0,3.0,2.0,0.0,-1.0,1651072235195604.0
-1.0,-3.0,0.0,3.0,-1.0,-2.0,-2.0,-2.0,1651072235195604.0
-1.0,-1.0,1.0,4.0,0.0,0.0,-1.0,-1.0,1651072235209498.0
-4.0,-6.0,-4.0,-9.0,0.0,1.0,-1.0,-1.0,1651072235209498.0
4.0,3.0,-1.0,-2.0,-7.0,-5.0,1.0,0.0,1651072235217477.0
2.0,2.0,1.0,7.0,0.0,0.0,1.0,0.0,1651072235217477.0
-3.0,-10.0,3.0,7.0,4.0,2.0,-1.0,0.0,1651072235232626.0
2.0,3.0,1.0,-1.0,0.0,-1.0,0.0,0.0,1651072235232626.0
-4.0,-3.0,-3.0,-7.0,-4.0,1.0,-1.0,-2.0,1651072235233597.0
-4.0,1.0,-1.0,-4.0,2.0,-1.0,-1.0,-1.0,1651072235233597.0
-2.0,1.0,3.0,6.0,8.0,2.0,2.0,-2.0,1651072235254607.0
3.0,-6.0,0.0,0.0,-2.0,-2.0,0.0,0.0,1651072235254607.0
-1.0,4.0,-3.0,-2.0,-2.0,-2.0,2.0,0.0,1651072235255673.0
-1.0,0.0,-2.0,-3.0,-9.0,-1.0,1.0,-2.0,1651072235255673.0
1.0,2.0,-2.0,-4.0,-2.0,-3.0,-2.0,1.0,1651072235278436.0
-5.0,0.0,-3.0,1.0,-2.0,-2.0,-1.0,-2.0,1651072235278436.0
2.0,-1.0,0.0,7.0,8.0,2.0,0.0,0.0,1651072235278436.0
-2.0,-2.0,0.0,-9.0,0.0,-1.0,1.0,0.0,1651072235278436.0
-2.0,-3.0,-5.0,-1.0,-10.0,-2.0,0.0,-2.0,1651072235292101.0
-2.0,3.0,3.0,10.0,-2.0,-4.0,-3.0,-2.0,1651072235292101.0
-2.0,-1.0,-1.0,-3.0,-6.0,-3.0,-3.0,-1.0,1651072235293039.0
1.0,-6.0,1.0,0.0,4.0,-1.0,1.0,0.0,1651072235293039.0
0.0,0.0,-2.0,-6.0,3.0,-1.0,0.0,0.0,1651072235315211.0
2.0,4.0,0.0,-5.0,-2.0,0.0,2.0,0.0,1651072235315211.0
-3.0,-3.0,-1.0,2.0,5.0,0.0,-1.0,-1.0,1651072235315211.0
-2.0,-3.0,-2.0,-2.0,1.0,0.0,0.0,-2.0,1651072235315211.0
-2.0,-1.0,-1.0,-3.0,-1.0,2.0,0.0,-1.0,1651072235337735.0
-1.0,-2.0,2.0,9.0,1.0,-2.0,0.0,-1.0,1651072235337735.0
-1.0,-1.0,-1.0,-6.0,-4.0,-1.0,-1.0,-1.0,1651072235338665.0
0.0,1.0,-2.0,-1.0,1.0,3.0,1.0,1.0,1651072235338665.0
0.0,-1.0,-1.0,0.0,-3.0,-2.0,0.0,1.0,1651072235352538.0
-1.0,0.0,-3.0,-5.0,0.0,1.0,0.0,-1.0,1651072235352538.0
0.0,0.0,0.0,-2.0,-5.0,-3.0,-1.0,-1.0,1651072235353469.0
0.0,-1.0,-4.0,1.0,1.0,1.0,0.0,-1.0,1651072235353469.0
-2.0,2.0,1.0,-7.0,1.0,1.0,0.0,-1.0,1651072235374675.0
-4.0,-9.0,2.0,11.0,4.0,-1.0,-2.0,0.0,1651072235374675.0
1.0,2.0,1.0,6.0,-2.0,0.0,1.0,-1.0,1651072235375803.0
1.0,2.0,0.0,0.0,4.0,2.0,-1.0,-1.0,1651072235375803.0
-1.0,-1.0,0.0,-2.0,0.0,-1.0,0.0,-1.0,1651072235397765.0
-1.0,0.0,-2.0,-9.0,-4.0,-1.0,1.0,-2.0,1651072235397765.0
-2.0,-2.0,1.0,-4.0,-4.0,-3.0,-1.0,-2.0,1651072235398695.0
-1.0,-1.0,0.0,2.0,-3.0,0.0,1.0,1.0,1651072235398695.0
2.0,-3.0,-1.0,3.0,15.0,3.0,-2.0,0.0,1651072235412798.0
1.0,4.0,-4.0,-1.0,-11.0,-2.0,-1.0,1.0,1651072235412798.0
-1.0,-2.0,2.0,6.0,7.0,2.0,-2.0,-1.0,1651072235412798.0
1.0,3.0,1.0,-2.0,0.0,1.0,-1.0,0.0,1651072235412798.0
-2.0,-3.0,0.0,-2.0,-4.0,0.0,1.0,0.0,1651072235435032.0
-1.0,-2.0,-3.0,-3.0,2.0,1.0,-1.0,0.0,1651072235435032.0
0.0,1.0,-3.0,-5.0,-3.0,-1.0,0.0,0.0,1651072235436068.0
-2.0,0.0,-2.0,-2.0,-2.0,-4.0,-2.0,-1.0,1651072235436068.0
-1.0,1.0,-1.0,2.0,-5.0,-5.0,-3.0,-2.0,1651072235458041.0
1.0,-1.0,0.0,-2.0,5.0,2.0,1.0,0.0,1651072235458041.0
1.0,-1.0,0.0,1.0,26.0,9.0,1.0,0.0,1651072235458971.0
0.0,-3.0,4.0,2.0,-3.0,-1.0,0.0,-1.0,1651072235458971.0
1.0,-1.0,4.0,13.0,-1.0,-1.0,0.0,0.0,1651072235472060.0
-2.0,3.0,-5.0,-9.0,-13.0,-5.0,-1.0,-2.0,1651072235472060.0
-1.0,-3.0,-2.0,-3.0,-8.0,-5.0,-3.0,-1.0,1651072235473058.0
0.0,2.0,-1.0,-2.0,3.0,1.0,-1.0,0.0,1651072235473058.0
-2.0,-1.0,-3.0,-4.0,-5.0,-1.0,0.0,-2.0,1651072235495099.0
-2.0,-2.0,2.0,-1.0,3.0,1.0,-1.0,-1.0,1651072235495099.0
-2.0,-3.0,-2.0,-2.0,0.0,2.0,1.0,1.0,1651072235495294.0
1.0,0.0,-3.0,-2.0,1.0,-2.0,-1.0,0.0,1651072235495294.0
2.0,0.0,0.0,1.0,-7.0,-3.0,-2.0,-1.0,1651072235517486.0
-2.0,-2.0,-1.0,1.0,2.0,1.0,-1.0,0.0,1651072235517486.0
-2.0,1.0,-1.0,-3.0,-4.0,-1.0,-1.0,-2.0,1651072235524483.0
1.0,-4.0,1.0,1.0,-2.0,0.0,-1.0,-1.0,1651072235524483.0
-2.0,-1.0,-2.0,-2.0,1.0,-1.0,0.0,-1.0,1651072235532461.0
-1.0,2.0,0.0,-1.0,-3.0,-3.0,-1.0,-1.0,1651072235532461.0
-1.0,-3.0,-1.0,-1.0,-4.0,0.0,-2.0,0.0,1651072235533391.0
0.0,1.0,0.0,3.0,8.0,3.0,0.0,-1.0,1651072235533391.0
1.0,0.0,-2.0,-1.0,-1.0,-1.0,-2.0,0.0,1651072235555181.0
0.0,0.0,-2.0,0.0,-4.0,-2.0,-3.0,-1.0,1651072235555181.0
-1.0,-1.0,0.0,-1.0,-9.0,-3.0,0.0,-1.0,1651072235555181.0
-2.0,0.0,-1.0,0.0,1.0,0.0,-1.0,-1.0,1651072235555181.0
-1.0,-1.0,0.0,-2.0,1.0,1.0,0.0,1.0,1651072235578120.0
-2.0,-2.0,-1.0,-2.0,-9.0,-2.0,1.0,-1.0,1651072235578120.0
0.0,1.0,-1.0,2.0,5.0,1.0,0.0,-1.0,1651072235579063.0
0.0,-3.0,-1.0,0.0,1.0,0.0,0.0,-1.0,1651072235579063.0
-1.0,-1.0,-3.0,-6.0,-1.0,0.0,-2.0,1.0,1651072235592017.0
-1.0,1.0,1.0,4.0,-1.0,-3.0,0.0,-2.0,1651072235592017.0
-1.0,-1.0,-2.0,1.0,-4.0,-1.0,0.0,-1.0,1651072235593013.0
0.0,1.0,0.0,1.0,1.0,0.0,-2.0,0.0,1651072235593013.0
-1.0,1.0,2.0,1.0,-2.0,-4.0,0.0,-1.0,1651072235615286.0
0.0,-1.0,-1.0,-5.0,4.0,-1.0,-1.0,0.0,1651072235615286.0
0.0,-1.0,-1.0,-2.0,-4.0,-1.0,1.0,0.0,1651072235615286.0
-2.0,-1.0,-2.0,-1.0,-2.0,-1.0,0.0,1.0,1651072235615286.0
1.0,0.0,-3.0,-3.0,0.0,2.0,2.0,0.0,1651072235637788.0
1.0,-2.0,-2.0,2.0,4.0,2.0,-2.0,0.0,1651072235637788.0
-2.0,-2.0,0.0,-4.0,-3.0,0.0,0.0,1.0,1651072235637788.0
-2.0,1.0,0.0,-1.0,-4.0,-2.0,-2.0,-2.0,1651072235637788.0
-1.0,0.0,0.0,2.0,-3.0,-1.0,-1.0,-3.0,1651072235652626.0
-1.0,-1.0,-3.0,-10.0,-1.0,-3.0,1.0,0.0,1651072235652626.0
1.0,0.0,0.0,11.0,4.0,0.0,-1.0,-2.0,1651072235653565.0
0.0,1.0,2.0,2.0,-1.0,-3.0,-1.0,0.0,1651072235653565.0
-2.0,-3.0,0.0,-2.0,3.0,-2.0,-2.0,0.0,1651072235675208.0
-1.0,2.0,-1.0,0.0,1.0,3.0,-1.0,-2.0,1651072235675208.0
0.0,0.0,-3.0,-7.0,-5.0,-3.0,-1.0,0.0,1651072235675322.0
0.0,0.0,-1.0,-2.0,-2.0,-1.0,-1.0,-1.0,1651072235675322.0
-2.0,2.0,0.0,2.0,2.0,0.0,0.0,-1.0,1651072235697425.0
1.0,-1.0,-1.0,-4.0,-3.0,0.0,-2.0,0.0,1651072235697425.0
-1.0,-1.0,3.0,5.0,-1.0,1.0,2.0,-2.0,1651072235698356.0
-2.0,0.0,-1.0,0.0,-3.0,-2.0,-1.0,-1.0,1651072235698356.0
-1.0,-1.0,0.0,2.0,-2.0,-2.0,-1.0,0.0,1651072235712689.0
0.0,-1.0,1.0,0.0,-3.0,-1.0,-2.0,0.0,1651072235712689.0
0.0,-2.0,-3.0,-1.0,0.0,-1.0,0.0,0.0,1651072235712689.0
-3.0,-3.0,0.0,-1.0,3.0,-2.0,1.0,-2.0,1651072235712689.0
-1.0,1.0,-2.0,-1.0,-2.0,3.0,0.0,-2.0,1651072235742991.0
-3.0,-1.0,2.0,4.0,5.0,-2.0,1.0,0.0,1651072235742991.0
-1.0,-1.0,-2.0,-2.0,-7.0,-2.0,-1.0,1.0,1651072235744020.0
-2.0,-1.0,-1.0,-3.0,-6.0,-3.0,1.0,-1.0,1651072235744020.0
-2.0,-1.0,0.0,-3.0,-2.0,-2.0,0.0,0.0,1651072235757108.0
1.0,0.0,1.0,5.0,0.0,3.0,0.0,0.0,1651072235757108.0
0.0,0.0,0.0,-3.0,-1.0,-1.0,-3.0,0.0,1651072235758039.0
0.0,0.0,1.0,-4.0,0.0,-2.0,-1.0,-1.0,1651072235758039.0
1.0,-1.0,1.0,-4.0,-3.0,-1.0,1.0,1.0,1651072235772735.0
0.0,-2.0,3.0,14.0,5.0,2.0,1.0,0.0,1651072235772735.0
-1.0,-1.0,-1.0,-5.0,0.0,-1.0,0.0,0.0,1651072235772735.0
2.0,-1.0,-1.0,1.0,4.0,3.0,0.0,0.0,1651072235772735.0
0.0,1.0,-2.0,-2.0,0.0,-2.0,-2.0,0.0,1651072235795314.0
-1.0,-2.0,-2.0,-5.0,-3.0,0.0,-1.0,-2.0,1651072235795314.0
0.0,-1.0,-1.0,-1.0,0.0,2.0,0.0,-2.0,1651072235795314.0
0.0,1.0,0.0,2.0,1.0,0.0,1.0,0.0,1651072235795314.0
-1.0,-1.0,2.0,2.0,1.0,0.0,0.0,0.0,1651072235817425.0
-3.0,-2.0,-1.0,-2.0,-2.0,-2.0,-1.0,-2.0,1651072235817425.0
-2.0,-3.0,0.0,2.0,-2.0,-1.0,-2.0,-2.0,1651072235818447.0
0.0,-2.0,-3.0,-5.0,-6.0,0.0,-1.0,1.0,1651072235818447.0
0.0,1.0,-1.0,1.0,0.0,-3.0,-1.0,-2.0,1651072235832795.0
-1.0,1.0,0.0,2.0,9.0,2.0,0.0,-1.0,1651072235832795.0
-1.0,1.0,0.0,-2.0,3.0,4.0,2.0,0.0,1651072235832795.0
0.0,0.0,0.0,-3.0,-1.0,0.0,-2.0,0.0,1651072235832795.0
-1.0,0.0,0.0,12.0,-4.0,-1.0,-1.0,0.0,1651072235855058.0
-1.0,-1.0,-3.0,-6.0,-5.0,-4.0,0.0,-1.0,1651072235855058.0
-1.0,-2.0,0.0,1.0,-2.0,-4.0,-2.0,0.0,1651072235856058.0
-1.0,-1.0,-2.0,-3.0,2.0,2.0,0.0,2.0,1651072235856058.0
-1.0,-1.0,0.0,-3.0,1.0,1.0,0.0,1.0,1651072235877793.0
0.0,0.0,-1.0,-1.0,-1.0,0.0,1.0,-1.0,1651072235877793.0
1.0,1.0,-1.0,-1.0,-6.0,-4.0,-3.0,0.0,1651072235877793.0
-1.0,1.0,-2.0,3.0,2.0,0.0,-1.0,-1.0,1651072235877793.0
0.0,0.0,-2.0,-2.0,2.0,3.0,-1.0,-2.0,1651072235892421.0
-2.0,-1.0,0.0,0.0,-4.0,-3.0,-2.0,-3.0,1651072235892421.0
-2.0,-1.0,2.0,-1.0,-2.0,-3.0,-1.0,0.0,1651072235893356.0
0.0,0.0,-1.0,0.0,3.0,3.0,1.0,3.0,1651072235893356.0
0.0,1.0,-1.0,-2.0,-3.0,1.0,0.0,0.0,1651072235915335.0
1.0,-2.0,1.0,4.0,1.0,-1.0,-2.0,0.0,1651072235915335.0
-1.0,-1.0,-2.0,-2.0,-1.0,-1.0,-1.0,-2.0,1651072235915335.0
-3.0,-1.0,1.0,2.0,-4.0,-4.0,-2.0,-1.0,1651072235915335.0
-1.0,-1.0,-1.0,-9.0,-3.0,-1.0,0.0,-1.0,1651072235937741.0
0.0,-4.0,-1.0,2.0,-3.0,-2.0,0.0,0.0,1651072235937741.0
0.0,-3.0,0.0,3.0,3.0,2.0,2.0,-1.0,1651072235937741.0
-1.0,-2.0,-1.0,-2.0,-1.0,-3.0,-1.0,0.0,1651072235937741.0
-1.0,-1.0,-1.0,-1.0,1.0,-1.0,-1.0,0.0,1651072235951701.0
-3.0,1.0,0.0,-5.0,-6.0,-4.0,-2.0,-1.0,1651072235951701.0
-1.0,0.0,-2.0,-3.0,2.0,0.0,-1.0,1.0,1651072235959626.0
0.0,-1.0,1.0,2.0,4.0,2.0,1.0,0.0,1651072235959626.0
-2.0,1.0,2.0,1.0,-5.0,-2.0,-1.0,2.0,1651072235974572.0
-1.0,1.0,0.0,2.0,4.0,-2.0,0.0,0.0,1651072235974572.0
-1.0,-1.0,-5.0,-6.0,-8.0,-3.0,-1.0,1.0,1651072235975570.0
0.0,1.0,-1.0,4.0,-1.0,-2.0,0.0,0.0,1651072235975570.0
-1.0,-3.0,-1.0,-4.0,1.0,0.0,-1.0,1.0,1651072235997616.0
2.0,1.0,1.0,0.0,-2.0,2.0,-1.0,0.0,1651072235997616.0
0.0,0.0,2.0,2.0,2.0,0.0,-1.0,0.0,1651072235997616.0
-1.0,-3.0,-3.0,-10.0,-4.0,-2.0,-1.0,-1.0,1651072235997616.0
0.0,0.0,4.0,15.0,2.0,1.0,0.0,-1.0,1651072236011649.0
0.0,0.0,-5.0,-11.0,-2.0,-2.0,0.0,1.0,1651072236011649.0
-1.0,1.0,-5.0,-5.0,-2.0,0.0,-2.0,-1.0,1651072236020341.0
-1.0,0.0,-3.0,-14.0,-4.0,0.0,-2.0,-1.0,1651072236020341.0
0.0,-1.0,-4.0,-2.0,1.0,2.0,2.0,1.0,1651072236034631.0
3.0,3.0,10.0,14.0,5.0,4.0,1.0,0.0,1651072236034631.0
-1.0,-2.0,-2.0,8.0,2.0,1.0,-1.0,-1.0,1651072236035628.0
-3.0,1.0,-3.0,-4.0,-3.0,-4.0,-2.0,-3.0,1651072236035628.0
-2.0,-4.0,-5.0,-6.0,-4.0,-2.0,-3.0,-1.0,1651072236057491.0
3.0,1.0,-4.0,-10.0,-2.0,-1.0,-2.0,-1.0,1651072236057491.0
0.0,-1.0,10.0,20.0,6.0,1.0,1.0,-1.0,1651072236058441.0
0.0,4.0,-2.0,10.0,2.0,0.0,0.0,-3.0,1651072236058441.0
-1.0,-2.0,-9.0,-14.0,-3.0,0.0,3.0,0.0,1651072236071448.0
-18.0,-3.0,7.0,-1.0,-5.0,-5.0,-2.0,-4.0,1651072236071448.0
-1.0,-2.0,-11.0,12.0,-2.0,0.0,-2.0,-4.0,1651072236080318.0
-18.0,-3.0,-9.0,-26.0,1.0,1.0,2.0,0.0,1651072236080318.0
20.0,1.0,22.0,29.0,5.0,-2.0,1.0,16.0,1651072236094283.0
3.0,-2.0,-17.0,-42.0,-9.0,-2.0,-2.0,-5.0,1651072236094283.0
15.0,1.0,-13.0,4.0,-8.0,-4.0,-2.0,-3.0,1651072236095280.0
21.0,-1.0,34.0,-2.0,3.0,1.0,2.0,10.0,1651072236095280.0
-11.0,9.0,-38.0,2.0,-1.0,-1.0,-2.0,-12.0,1651072236125810.0
24.0,-3.0,-2.0,32.0,15.0,10.0,1.0,12.0,1651072236125810.0
21.0,34.0,26.0,18.0,10.0,7.0,1.0,-4.0,1651072236125810.0
27.0,-15.0,-26.0,-57.0,-10.0,-2.0,-1.0,9.0,1651072236125810.0
-50.0,-6.0,39.0,0.0,-15.0,-5.0,-2.0,-1.0,1651072236131759.0
26.0,9.0,57.0,37.0,-5.0,-2.0,-1.0,-11.0,1651072236131759.0
46.0,26.0,-69.0,10.0,7.0,-1.0,0.0,5.0,1651072236139741.0
-32.0,-20.0,-49.0,22.0,17.0,5.0,1.0,4.0,1651072236139741.0
-4.0,8.0,112.0,-22.0,-10.0,-5.0,-1.0,-10.0,1651072236154791.0
89.0,18.0,-99.0,-41.0,-9.0,-3.0,-1.0,9.0,1651072236154791.0
-68.0,-45.0,-7.0,6.0,-2.0,2.0,1.0,4.0,1651072236155793.0
38.0,28.0,23.0,10.0,12.0,2.0,0.0,-12.0,1651072236155793.0
-4.0,-33.0,3.0,3.0,0.0,3.0,-1.0,9.0,1651072236185912.0
-17.0,9.0,21.0,-9.0,-8.0,-6.0,-2.0,-10.0,1651072236185912.0
4.0,-19.0,-12.0,-5.0,4.0,-4.0,1.0,11.0,1651072236186636.0
47.0,10.0,-14.0,0.0,-8.0,2.0,0.0,0.0,1651072236186636.0
113.0,20.0,1.0,64.0,22.0,4.0,5.0,19.0,1651072236191625.0
-40.0,-25.0,-9.0,-84.0,-14.0,-1.0,0.0,-8.0,1651072236191625.0
-13.0,4.0,15.0,1.0,-4.0,-2.0,-3.0,-5.0,1651072236199672.0
-60.0,-28.0,0.0,23.0,-14.0,-8.0,-6.0,-1.0,1651072236199672.0
55.0,27.0,-29.0,9.0,25.0,8.0,-2.0,-11.0,1651072236214719.0
47.0,-5.0,23.0,-2.0,-1.0,2.0,7.0,15.0,1651072236214719.0
-20.0,-21.0,37.0,-15.0,-38.0,-16.0,-5.0,-6.0,1651072236215715.0
-13.0,-3.0,-8.0,38.0,3.0,-3.0,-4.0,-11.0,1651072236215715.0
-6.0,-19.0,-38.0,-24.0,-2.0,-4.0,-2.0,-2.0,1651072236237742.0
-16.0,-15.0,-27.0,40.0,22.0,5.0,1.0,6.0,1651072236237742.0
10.0,1.0,31.0,-74.0,0.0,5.0,3.0,7.0,1651072236237742.0
85.0,-9.0,3.0,11.0,-14.0,-3.0,1.0,1.0,1651072236237742.0
-59.0,17.0,21.0,18.0,-3.0,-5.0,-8.0,-13.0,1651072236260419.0
-53.0,-12.0,20.0,40.0,13.0,-3.0,-2.0,8.0,1651072236260419.0
4.0,-1.0,-3.0,-9.0,3.0,8.0,5.0,-4.0,1651072236261348.0
-111.0,-5.0,24.0,-13.0,3.0,-1.0,0.0,-11.0,1651072236261348.0
-45.0,5.0,-13.0,-25.0,-6.0,1.0,1.0,3.0,1651072236274458.0
-17.0,16.0,14.0,48.0,-6.0,-7.0,-6.0,-15.0,1651072236274458.0
68.0,14.0,30.0,15.0,10.0,1.0,-3.0,4.0,1651072236275434.0
-50.0,22.0,-23.0,-65.0,-16.0,0.0,3.0,5.0,1651072236275434.0
-41.0,-9.0,-32.0,24.0,2.0,-6.0,-4.0,-15.0,1651072236297525.0
-16.0,8.0,7.0,-56.0,-21.0,-5.0,-6.0,-5.0,1651072236297525.0
-62.0,1.0,-18.0,-21.0,14.0,2.0,0.0,-10.0,1651072236298488.0
35.0,23.0,23.0,76.0,12.0,-2.0,-7.0,-6.0,1651072236298488.0
-38.0,1.0,-16.0,-52.0,-6.0,1.0,3.0,-6.0,1651072236320339.0
20.0,-11.0,20.0,50.0,14.0,5.0,0.0,-3.0,1651072236320339.0
-10.0,-4.0,-15.0,1.0,-2.0,-3.0,-1.0,-3.0,1651072236321277.0
-88.0,-13.0,-9.0,-40.0,-4.0,-2.0,-2.0,-2.0,1651072236321277.0
-53.0,17.0,8.0,24.0,-12.0,-4.0,-1.0,0.0,1651072236336237.0
-34.0,23.0,-16.0,-15.0,15.0,2.0,0.0,-3.0,1651072236336237.0
-64.0,-20.0,10.0,12.0,-3.0,-5.0,-4.0,-8.0,1651072236337256.0
-24.0,-38.0,-2.0,12.0,0.0,-2.0,0.0,-1.0,1651072236337256.0
-4.0,-42.0,-32.0,-23.0,-2.0,1.0,2.0,7.0,1651072236357181.0
3.0,25.0,15.0,0.0,-10.0,-4.0,-3.0,-10.0,1651072236357181.0
38.0,-7.0,-18.0,-7.0,-19.0,-7.0,0.0,13.0,1651072236358179.0
-3.0,15.0,15.0,22.0,12.0,1.0,-2.0,-4.0,1651072236358179.0
32.0,11.0,21.0,0.0,6.0,2.0,-1.0,-3.0,1651072236380907.0
-31.0,-9.0,-13.0,-9.0,-1.0,2.0,5.0,9.0,1651072236380907.0
-15.0,5.0,-4.0,24.0,1.0,-1.0,-4.0,-10.0,1651072236381650.0
-13.0,8.0,-6.0,-2.0,4.0,1.0,-1.0,-1.0,1651072236381650.0
56.0,-11.0,2.0,-40.0,-14.0,-1.0,1.0,9.0,1651072236394685.0
-11.0,-5.0,10.0,26.0,13.0,1.0,0.0,-6.0,1651072236394685.0
70.0,7.0,-25.0,-30.0,-12.0,-3.0,0.0,0.0,1651072236395616.0
87.0,19.0,14.0,8.0,-3.0,-1.0,1.0,7.0,1651072236395616.0
33.0,-20.0,-7.0,3.0,9.0,2.0,2.0,7.0,1651072236417708.0
-6.0,-9.0,2.0,-4.0,10.0,3.0,1.0,7.0,1651072236417708.0
-42.0,4.0,4.0,-6.0,0.0,1.0,1.0,-3.0,1651072236417708.0
40.0,3.0,18.0,15.0,-3.0,0.0,1.0,-3.0,1651072236417708.0
-49.0,24.0,-14.0,-9.0,3.0,2.0,-1.0,-9.0,1651072236440917.0
-1.0,-18.0,-11.0,14.0,-5.0,-6.0,0.0,8.0,1651072236440917.0
2.0,1.0,-3.0,-13.0,1.0,-4.0,-5.0,-4.0,1651072236440917.0
-42.0,-5.0,5.0,33.0,-2.0,-1.0,-2.0,1.0,1651072236440917.0
-9.0,-2.0,9.0,22.0,-17.0,-10.0,-9.0,-2.0,1651072236454319.0
12.0,2.0,-20.0,-17.0,2.0,5.0,1.0,2.0,1651072236454319.0
22.0,-3.0,4.0,6.0,2.0,4.0,0.0,1.0,1651072236462297.0
2.0,6.0,19.0,-18.0,-4.0,-2.0,-4.0,-4.0,1651072236462297.0
1.0,-14.0,-34.0,-22.0,8.0,2.0,2.0,0.0,1651072236477375.0
-15.0,14.0,39.0,21.0,-7.0,-4.0,0.0,2.0,1651072236477375.0
8.0,-34.0,-23.0,6.0,-8.0,-6.0,-2.0,0.0,1651072236478306.0
15.0,-9.0,3.0,-10.0,6.0,6.0,6.0,11.0,1651072236478306.0
23.0,7.0,-12.0,24.0,5.0,2.0,1.0,-4.0,1651072236500315.0
-28.0,8.0,25.0,-4.0,4.0,1.0,-2.0,-8.0,1651072236500315.0
30.0,10.0,-56.0,-35.0,-3.0,1.0,5.0,16.0,1651072236501244.0
-27.0,11.0,7.0,6.0,-10.0,-4.0,0.0,-7.0,1651072236501244.0
71.0,-6.0,-21.0,-21.0,2.0,-2.0,2.0,9.0,1651072236515235.0
-45.0,-25.0,-26.0,-10.0,-3.0,0.0,-1.0,0.0,1651072236515235.0
2.0,18.0,35.0,11.0,4.0,3.0,-1.0,-3.0,1651072236515235.0
69.0,-10.0,-22.0,18.0,-1.0,1.0,1.0,10.0,1651072236515235.0
-42.0,-2.0,-16.0,-9.0,-2.0,-5.0,0.0,-8.0,1651072236537368.0
39.0,-5.0,7.0,-10.0,-2.0,4.0,3.0,4.0,1651072236537368.0
2.0,7.0,11.0,-5.0,2.0,0.0,0.0,-5.0,1651072236538297.0
36.0,-9.0,-24.0,-19.0,-3.0,-3.0,-1.0,1.0,1651072236538297.0
-64.0,2.0,26.0,27.0,-3.0,-1.0,-2.0,-3.0,1651072236560881.0
25.0,-12.0,-12.0,-8.0,-3.0,-2.0,-3.0,2.0,1651072236560881.0
-19.0,6.0,13.0,9.0,14.0,2.0,0.0,1.0,1651072236561478.0
-26.0,8.0,-36.0,-52.0,-6.0,-1.0,-4.0,-11.0,1651072236561478.0
-4.0,-20.0,0.0,3.0,-10.0,0.0,-1.0,-7.0,1651072236574691.0
30.0,23.0,-2.0,-1.0,-4.0,-5.0,-1.0,-3.0,1651072236574691.0
-28.0,2.0,29.0,28.0,8.0,5.0,3.0,6.0,1651072236575683.0
-3.0,3.0,18.0,22.0,18.0,4.0,0.0,5.0,1651072236575683.0
4.0,11.0,-2.0,-51.0,-12.0,-1.0,-3.0,-3.0,1651072236597229.0
-7.0,-7.0,-23.0,43.0,1.0,-3.0,-3.0,-6.0,1651072236597229.0
49.0,0.0,-11.0,-56.0,-10.0,0.0,3.0,5.0,1651072236598193.0
-28.0,5.0,34.0,76.0,19.0,1.0,1.0,-1.0,1651072236598193.0
7.0,-9.0,-2.0,-14.0,-10.0,-4.0,-1.0,4.0,1651072236619250.0
30.0,1.0,-21.0,-17.0,0.0,2.0,0.0,3.0,1651072236619250.0
-15.0,4.0,37.0,27.0,7.0,1.0,0.0,-7.0,1651072236627222.0
-11.0,-19.0,-43.0,-62.0,-15.0,-5.0,-1.0,3.0,1651072236627222.0
76.0,16.0,24.0,26.0,6.0,2.0,0.0,6.0,1651072236635201.0
-36.0,-11.0,-2.0,-12.0,-4.0,-1.0,-1.0,-6.0,1651072236635201.0
-4.0,17.0,37.0,8.0,8.0,2.0,0.0,5.0,1651072236635201.0
-55.0,-22.0,-16.0,36.0,-4.0,-3.0,-1.0,-8.0,1651072236635201.0
-24.0,5.0,8.0,-13.0,11.0,3.0,5.0,3.0,1651072236657209.0
-11.0,-9.0,-43.0,-50.0,-19.0,-7.0,-4.0,-1.0,1651072236657209.0
-1.0,-1.0,45.0,59.0,6.0,0.0,-2.0,-4.0,1651072236658146.0
-29.0,0.0,4.0,-12.0,-4.0,-2.0,-2.0,-4.0,1651072236658146.0
8.0,6.0,5.0,2.0,-9.0,-4.0,-3.0,-2.0,1651072236680147.0
35.0,-9.0,13.0,-3.0,3.0,2.0,0.0,-1.0,1651072236680147.0
-28.0,1.0,-39.0,-4.0,4.0,0.0,0.0,-2.0,1651072236681078.0
42.0,8.0,14.0,-9.0,-5.0,2.0,1.0,2.0,1651072236681078.0
9.0,-5.0,13.0,26.0,7.0,0.0,-3.0,-3.0,1651072236694798.0
1.0,18.0,-3.0,1.0,-3.0,-1.0,2.0,3.0,1651072236694798.0
-15.0,3.0,-6.0,2.0,-4.0,-4.0,-2.0,-1.0,1651072236695706.0
32.0,1.0,11.0,-7.0,9.0,1.0,0.0,-1.0,1651072236695706.0
-37.0,11.0,-17.0,-21.0,-8.0,0.0,1.0,0.0,1651072236717779.0
-18.0,0.0,3.0,32.0,11.0,4.0,4.0,2.0,1651072236717779.0
0.0,-14.0,-3.0,-19.0,4.0,0.0,-3.0,-3.0,1651072236717779.0
35.0,2.0,41.0,14.0,-12.0,-6.0,-3.0,7.0,1651072236717779.0
-27.0,-4.0,-49.0,-25.0,-6.0,-5.0,-2.0,-9.0,1651072236740611.0
-11.0,4.0,49.0,41.0,1.0,-2.0,-3.0,-6.0,1651072236740611.0
2.0,-8.0,-33.0,-30.0,0.0,0.0,2.0,4.0,1651072236741608.0
-22.0,-2.0,3.0,-35.0,-4.0,1.0,1.0,2.0,1651072236741608.0
27.0,8.0,18.0,41.0,13.0,2.0,1.0,5.0,1651072236754643.0
12.0,8.0,1.0,4.0,0.0,-2.0,-1.0,0.0,1651072236754643.0
22.0,-7.0,-23.0,-16.0,-4.0,-2.0,0.0,0.0,1651072236755643.0
19.0,-6.0,-18.0,3.0,-4.0,-3.0,-4.0,-6.0,1651072236755643.0
6.0,4.0,8.0,-14.0,-1.0,-4.0,1.0,2.0,1651072236777758.0
19.0,-1.0,-8.0,-19.0,1.0,5.0,2.0,1.0,1651072236777758.0
-16.0,20.0,14.0,43.0,-5.0,-3.0,-2.0,-4.0,1651072236777758.0
6.0,-14.0,-39.0,-53.0,-6.0,-4.0,-1.0,-7.0,1651072236777758.0
-5.0,20.0,15.0,36.0,11.0,3.0,-1.0,-3.0,1651072236800887.0
7.0,6.0,-3.0,-37.0,-13.0,3.0,3.0,5.0,1651072236800887.0
2.0,-2.0,-11.0,13.0,6.0,-2.0,-2.0,1.0,1651072236800887.0
4.0,3.0,16.0,-6.0,0.0,1.0,1.0,3.0,1651072236800887.0
-5.0,-13.0,-22.0,1.0,0.0,-3.0,-4.0,-3.0,1651072236814920.0
-17.0,0.0,-1.0,-2.0,6.0,3.0,1.0,-5.0,1651072236814920.0
24.0,9.0,25.0,2.0,-2.0,2.0,2.0,1.0,1651072236815877.0
-49.0,-16.0,-32.0,-11.0,-11.0,-8.0,-2.0,-4.0,1651072236815877.0
18.0,-7.0,8.0,-12.0,-3.0,1.0,0.0,5.0,1651072236837068.0
-15.0,-3.0,12.0,-3.0,1.0,0.0,0.0,0.0,1651072236837068.0
-23.0,-3.0,3.0,19.0,-3.0,-3.0,-3.0,-6.0,1651072236837999.0
46.0,14.0,9.0,14.0,12.0,2.0,2.0,3.0,1651072236837999.0
0.0,-14.0,11.0,-12.0,-6.0,-2.0,0.0,-1.0,1651072236860906.0
3.0,-15.0,-32.0,-4.0,-10.0,-5.0,-1.0,-3.0,1651072236860906.0
32.0,-17.0,-18.0,-34.0,-5.0,0.0,0.0,2.0,1651072236861166.0
8.0,8.0,-17.0,9.0,-2.0,-1.0,0.0,0.0,1651072236861166.0
-24.0,7.0,21.0,4.0,9.0,-1.0,-4.0,-7.0,1651072236874197.0
31.0,-7.0,-9.0,36.0,7.0,-2.0,-2.0,-3.0,1651072236874197.0
-11.0,-1.0,8.0,-14.0,-7.0,1.0,1.0,-4.0,1651072236882730.0
11.0,3.0,1.0,10.0,-5.0,0.0,-2.0,4.0,1651072236882730.0
-18.0,-25.0,-12.0,-13.0,0.0,2.0,1.0,3.0,1651072236897760.0
-4.0,10.0,-3.0,-33.0,-7.0,-3.0,-3.0,0.0,1651072236897760.0
-13.0,-6.0,6.0,39.0,9.0,1.0,-1.0,-2.0,1651072236897760.0
3.0,13.0,8.0,-61.0,-6.0,4.0,2.0,-2.0,1651072236897760.0
11.0,-1.0,-8.0,32.0,-8.0,-3.0,-1.0,-4.0,1651072236920730.0
9.0,-20.0,-22.0,-48.0,-4.0,-5.0,1.0,5.0,1651072236920730.0
-22.0,8.0,13.0,5.0,0.0,-1.0,-2.0,-4.0,1651072236921672.0
-25.0,17.0,11.0,42.0,18.0,3.0,-1.0,-3.0,1651072236921672.0
-21.0,6.0,2.0,-3.0,-2.0,2.0,3.0,5.0,1651072236934329.0
-30.0,10.0,36.0,43.0,-1.0,-3.0,-3.0,-4.0,1651072236934329.0
-7.0,-35.0,-69.0,-71.0,-9.0,-7.0,-5.0,-3.0,1651072236942331.0
-19.0,-15.0,0.0,5.0,-9.0,2.0,-1.0,0.0,1651072236942331.0
0.0,1.0,5.0,-7.0,7.0,2.0,-1.0,3.0,1651072236957354.0
0.0,10.0,11.0,19.0,3.0,1.0,0.0,2.0,1651072236957354.0
-10.0,8.0,1.0,-1.0,5.0,5.0,3.0,0.0,1651072236958285.0
19.0,-16.0,26.0,20.0,-2.0,-7.0,0.0,-1.0,1651072236958285.0
-6.0,-19.0,-30.0,-16.0,-5.0,-3.0,-2.0,1.0,1651072236980451.0
14.0,-9.0,-5.0,-21.0,-7.0,-4.0,-3.0,-4.0,1651072236980451.0
-6.0,11.0,-3.0,17.0,-4.0,-4.0,-2.0,1.0,1651072236981451.0
21.0,21.0,1.0,-44.0,-4.0,-1.0,-2.0,1.0,1651072236981451.0
16.0,2.0,11.0,43.0,3.0,-4.0,-2.0,-2.0,1651072236994584.0
-4.0,-1.0,-3.0,1.0,2.0,1.0,1.0,0.0,1651072236994584.0
28.0,-9.0,7.0,6.0,9.0,3.0,-1.0,-1.0,1651072237002545.0
-23.0,4.0,-15.0,-19.0,-10.0,-3.0,1.0,-4.0,1651072237002545.0
20.0,5.0,3.0,7.0,-9.0,-3.0,0.0,-2.0,1651072237017601.0
-4.0,-13.0,2.0,-13.0,2.0,1.0,-1.0,-6.0,1651072237017601.0
22.0,3.0,-14.0,-7.0,-2.0,1.0,1.0,3.0,1651072237018532.0
-10.0,-18.0,-1.0,26.0,4.0,0.0,-3.0,-1.0,1651072237018532.0
26.0,-4.0,19.0,32.0,5.0,0.0,-2.0,-7.0,1651072237040127.0
29.0,3.0,-13.0,-6.0,-9.0,-4.0,-1.0,0.0,1651072237040127.0
-20.0,33.0,15.0,-1.0,4.0,2.0,3.0,5.0,1651072237041090.0
-9.0,2.0,-2.0,2.0,5.0,1.0,1.0,-1.0,1651072237041090.0
2.0,-10.0,1.0,-20.0,-6.0,-2.0,-4.0,-2.0,1651072237054043.0
-18.0,23.0,-8.0,-6.0,3.0,2.0,1.0,-2.0,1651072237054043.0
2.0,-6.0,21.0,17.0,-4.0,-2.0,0.0,1.0,1651072237062780.0
4.0,12.0,9.0,-11.0,-2.0,0.0,0.0,1.0,1651072237062780.0
-23.0,4.0,4.0,48.0,1.0,-2.0,-3.0,-4.0,1651072237077735.0
-26.0,-7.0,11.0,-6.0,0.0,-2.0,-3.0,0.0,1651072237077735.0
48.0,8.0,-2.0,-5.0,-12.0,-6.0,-3.0,0.0,1651072237077735.0
-1.0,6.0,0.0,2.0,2.0,2.0,1.0,2.0,1651072237077735.0
-3.0,-6.0,2.0,-34.0,4.0,3.0,0.0,-2.0,1651072237100829.0
-9.0,-7.0,-5.0,2.0,3.0,-2.0,-4.0,-6.0,1651072237100829.0
42.0,14.0,8.0,3.0,-19.0,-5.0,0.0,-1.0,1651072237100829.0
2.0,-37.0,-34.0,20.0,5.0,-1.0,-3.0,-2.0,1651072237100829.0
-27.0,9.0,19.0,2.0,7.0,6.0,5.0,3.0,1651072237114557.0
-6.0,-9.0,-8.0,-25.0,2.0,1.0,1.0,-1.0,1651072237114557.0
-22.0,-8.0,-3.0,11.0,1.0,1.0,-3.0,-2.0,1651072237129641.0
15.0,20.0,11.0,13.0,-1.0,2.0,2.0,3.0,1651072237129641.0
-27.0,13.0,-17.0,-36.0,-6.0,1.0,2.0,5.0,1651072237137668.0
-55.0,-27.0,12.0,31.0,11.0,2.0,0.0,0.0,1651072237137668.0
-7.0,0.0,20.0,-2.0,1.0,2.0,1.0,-1.0,1651072237137668.0
-33.0,-7.0,-11.0,-1.0,-9.0,-7.0,-3.0,-6.0,1651072237137668.0
-1.0,14.0,14.0,2.0,5.0,3.0,0.0,-1.0,1651072237160249.0
26.0,8.0,19.0,44.0,3.0,0.0,0.0,3.0,1651072237160249.0
-50.0,-29.0,-40.0,-54.0,-4.0,-3.0,-3.0,-5.0,1651072237161178.0
-41.0,-9.0,-6.0,9.0,3.0,2.0,0.0,1.0,1651072237161178.0
13.0,2.0,-6.0,-29.0,-15.0,-3.0,1.0,-1.0,1651072237184355.0
22.0,17.0,2.0,-6.0,-1.0,-1.0,-2.0,3.0,1651072237184355.0
-36.0,1.0,17.0,46.0,19.0,6.0,1.0,4.0,1651072237185284.0
22.0,-11.0,-12.0,-8.0,-4.0,-2.0,-4.0,-4.0,1651072237185284.0
-24.0,-6.0,-13.0,-7.0,5.0,3.0,0.0,0.0,1651072237197321.0
10.0,0.0,4.0,-15.0,-7.0,1.0,3.0,5.0,1651072237197321.0
6.0,3.0,26.0,35.0,10.0,2.0,3.0,3.0,1651072237198249.0
5.0,-1.0,-11.0,-37.0,3.0,2.0,1.0,1.0,1651072237198249.0
46.0,0.0,-10.0,39.0,-2.0,-9.0,-4.0,-4.0,1651072237220905.0
-25.0,2.0,13.0,-5.0,-7.0,-1.0,-1.0,-1.0,1651072237220905.0
6.0,2.0,-25.0,0.0,4.0,2.0,0.0,0.0,1651072237221617.0
19.0,8.0,23.0,5.0,2.0,4.0,3.0,2.0,1651072237221617.0
-6.0,-12.0,-21.0,-25.0,3.0,-1.0,0.0,3.0,1651072237243232.0
-13.0,-13.0,-12.0,2.0,-10.0,-6.0,-5.0,-6.0,1651072237243232.0
-12.0,-1.0,6.0,-8.0,-7.0,-2.0,0.0,-3.0,1651072237244188.0
6.0,3.0,10.0,28.0,6.0,1.0,-1.0,2.0,1651072237244188.0
9.0,-2.0,-11.0,-48.0,-8.0,-1.0,0.0,2.0,1651072237257219.0
14.0,7.0,-4.0,-2.0,4.0,0.0,-1.0,-1.0,1651072237257219.0
-12.0,-1.0,-5.0,4.0,-4.0,-1.0,-3.0,-6.0,1651072237258151.0
5.0,10.0,11.0,15.0,5.0,1.0,1.0,0.0,1651072237258151.0
6.0,2.0,1.0,1.0,-4.0,0.0,0.0,0.0,1651072237281023.0
-1.0,5.0,11.0,10.0,6.0,-1.0,0.0,-2.0,1651072237281023.0
14.0,-15.0,-13.0,-8.0,3.0,-3.0,-5.0,-4.0,1651072237281023.0
0.0,4.0,14.0,-4.0,-16.0,-7.0,0.0,2.0,1651072237281023.0
-30.0,1.0,-6.0,-5.0,2.0,0.0,-4.0,-6.0,1651072237303385.0
11.0,5.0,-6.0,-8.0,-3.0,-2.0,1.0,5.0,1651072237303385.0
-1.0,-7.0,0.0,7.0,3.0,2.0,-1.0,-2.0,1651072237303385.0
10.0,4.0,0.0,-10.0,5.0,5.0,1.0,1.0,1651072237303385.0
-3.0,-4.0,4.0,18.0,-6.0,-1.0,0.0,-1.0,1651072237317417.0
32.0,-2.0,-13.0,-36.0,1.0,3.0,2.0,-2.0,1651072237317417.0
-70.0,1.0,5.0,30.0,0.0,-2.0,-1.0,-2.0,1651072237318374.0
4.0,-8.0,-9.0,-2.0,-4.0,-6.0,-3.0,-1.0,1651072237318374.0
19.0,-3.0,15.0,15.0,7.0,-2.0,-1.0,-1.0,1651072237340772.0
-8.0,-3.0,-3.0,-4.0,1.0,1.0,-1.0,0.0,1651072237340772.0
21.0,0.0,1.0,-22.0,-8.0,-2.0,-1.0,-1.0,1651072237340772.0
2.0,-2.0,-14.0,-6.0,-2.0,1.0,1.0,0.0,1651072237340772.0
-3.0,0.0,1.0,7.0,1.0,-1.0,-3.0,-1.0,1651072237362773.0
1.0,3.0,-1.0,14.0,1.0,0.0,-1.0,0.0,1651072237362773.0
10.0,1.0,-1.0,-16.0,-4.0,-3.0,0.0,2.0,1651072237363712.0
-7.0,2.0,1.0,7.0,0.0,-3.0,-2.0,-3.0,1651072237363712.0
11.0,-1.0,0.0,-1.0,1.0,1.0,-1.0,-1.0,1651072237377303.0
-6.0,-3.0,-3.0,2.0,1.0,3.0,-1.0,0.0,1651072237377303.0
7.0,-3.0,-5.0,-4.0,-10.0,-3.0,-2.0,-2.0,1651072237378242.0
-1.0,1.0,2.0,-8.0,2.0,-3.0,-1.0,-1.0,1651072237378242.0
5.0,1.0,2.0,6.0,6.0,3.0,1.0,2.0,1651072237407924.0
-3.0,-2.0,-2.0,2.0,1.0,2.0,0.0,1.0,1651072237407924.0
1.0,3.0,1.0,-3.0,-1.0,1.0,0.0,-1.0,1651072237408854.0
2.0,2.0,1.0,-6.0,-4.0,-2.0,-1.0,-1.0,1651072237408854.0
3.0,-1.0,0.0,-6.0,-2.0,-2.0,1.0,-1.0,1651072237422981.0
-8.0,0.0,-2.0,5.0,0.0,-2.0,0.0,-2.0,1651072237422981.0
5.0,0.0,0.0,-5.0,-1.0,-1.0,0.0,0.0,1651072237423924.0
2.0,1.0,2.0,0.0,0.0,-2.0,-2.0,-2.0,1651072237423924.0
4.0,-3.0,-2.0,-2.0,1.0,1.0,-1.0,1.0,1651072237436916.0
-1.0,-1.0,0.0,5.0,-1.0,-1.0,-1.0,-1.0,1651072237436916.0
5.0,0.0,-2.0,-5.0,2.0,1.0,2.0,0.0,1651072237437909.0
0.0,-2.0,-4.0,10.0,-3.0,-3.0,-2.0,-1.0,1651072237437909.0
-3.0,1.0,0.0,-11.0,5.0,5.0,1.0,1.0,1651072237469063.0
-2.0,-2.0,-3.0,6.0,-3.0,-2.0,-2.0,-3.0,1651072237469063.0
2.0,2.0,0.0,-2.0,-3.0,-3.0,1.0,1.0,1651072237470051.0
-2.0,0.0,-2.0,-4.0,-2.0,4.0,0.0,0.0,1651072237470051.0
2.0,-1.0,-2.0,-7.0,-13.0,-6.0,-2.0,-1.0,1651072237483443.0
-3.0,-2.0,3.0,17.0,12.0,-3.0,-3.0,-1.0,1651072237483443.0
2.0,0.0,-4.0,-2.0,-2.0,2.0,-1.0,0.0,1651072237483443.0
-1.0,0.0,5.0,14.0,-1.0,-1.0,-1.0,-2.0,1651072237483443.0
1.0,0.0,-6.0,-5.0,-1.0,0.0,1.0,1.0,1651072237497639.0
-1.0,-2.0,-5.0,-9.0,-10.0,-3.0,0.0,-1.0,1651072237497639.0
1.0,1.0,-1.0,-4.0,2.0,-1.0,-3.0,-1.0,1651072237497639.0
2.0,6.0,-1.0,1.0,-1.0,-3.0,-2.0,-1.0,1651072237497639.0
-1.0,-8.0,0.0,-1.0,-1.0,-4.0,-3.0,-2.0,1651072237519518.0
1.0,0.0,0.0,-3.0,-6.0,0.0,0.0,-1.0,1651072237519518.0
0.0,0.0,1.0,1.0,3.0,-1.0,0.0,0.0,1651072237520483.0
2.0,2.0,2.0,-2.0,0.0,4.0,1.0,2.0,1651072237520483.0
0.0,-3.0,-1.0,1.0,-1.0,-3.0,1.0,0.0,1651072237542664.0
-1.0,-1.0,-1.0,1.0,-1.0,-4.0,0.0,-1.0,1651072237542664.0
-1.0,-3.0,-1.0,1.0,1.0,3.0,0.0,0.0,1651072237543662.0
-1.0,0.0,1.0,-1.0,3.0,0.0,-1.0,0.0,1651072237543662.0
0.0,2.0,2.0,3.0,-8.0,-3.0,-1.0,1.0,1651072237557696.0
1.0,0.0,-1.0,-4.0,8.0,8.0,3.0,1.0,1651072237557696.0
1.0,1.0,-1.0,0.0,-2.0,-2.0,-2.0,-1.0,1651072237557696.0
-2.0,-1.0,-1.0,-1.0,-1.0,-1.0,-1.0,1.0,1651072237557696.0
3.0,-1.0,-1.0,5.0,9.0,2.0,1.0,0.0,1651072237579720.0
-1.0,1.0,-3.0,-4.0,-10.0,-7.0,-2.0,-1.0,1651072237579720.0
-1.0,-4.0,0.0,-1.0,5.0,0.0,0.0,-2.0,1651072237580650.0
0.0,2.0,0.0,0.0,1.0,0.0,-2.0,-1.0,1651072237580650.0
-1.0,-4.0,-1.0,-2.0,-2.0,-2.0,1.0,-1.0,1651072237603189.0
-3.0,1.0,-1.0,-2.0,-14.0,-6.0,-3.0,-2.0,1651072237603189.0
0.0,0.0,-1.0,1.0,5.0,1.0,-1.0,-1.0,1651072237604193.0
1.0,-2.0,-1.0,5.0,11.0,4.0,0.0,-1.0,1651072237604193.0
1.0,4.0,-1.0,-2.0,-1.0,0.0,0.0,0.0,1651072237617214.0
-2.0,-1.0,-1.0,0.0,-4.0,-2.0,-3.0,0.0,1651072237617214.0
-1.0,-1.0,-1.0,-4.0,-8.0,-4.0,0.0,-1.0,1651072237618163.0
-1.0,-2.0,0.0,-3.0,-2.0,2.0,1.0,-2.0,1651072237618163.0
2.0,3.0,0.0,1.0,0.0,3.0,-2.0,0.0,1651072237640503.0
-1.0,-5.0,-1.0,3.0,16.0,-2.0,-1.0,2.0,1651072237640503.0
2.0,0.0,1.0,3.0,2.0,2.0,-1.0,-1.0,1651072237641531.0
-1.0,1.0,-1.0,-1.0,1.0,-2.0,1.0,1.0,1651072237641531.0
0.0,-2.0,0.0,-1.0,-1.0,-1.0,-1.0,-1.0,1651072237663449.0
0.0,3.0,-1.0,-3.0,-6.0,0.0,0.0,-1.0,1651072237663449.0
1.0,2.0,1.0,0.0,-2.0,0.0,2.0,2.0,1651072237663449.0
0.0,-1.0,0.0,-1.0,5.0,-1.0,0.0,-1.0,1651072237663449.0
-2.0,-1.0,-1.0,-1.0,-7.0,-2.0,-2.0,-3.0,1651072237677406.0
1.0,0.0,0.0,-2.0,5.0,3.0,1.0,-2.0,1651072237677406.0
-1.0,0.0,-1.0,-4.0,-6.0,-3.0,-1.0,0.0,1651072237678404.0
-2.0,-1.0,-3.0,-2.0,-4.0,0.0,0.0,-1.0,1651072237678404.0
-2.0,-2.0,2.0,1.0,8.0,-1.0,0.0,1.0,1651072237700492.0
-1.0,0.0,1.0,2.0,4.0,1.0,-1.0,-1.0,1651072237700492.0
-1.0,-6.0,-2.0,-4.0,3.0,1.0,0.0,-1.0,1651072237701492.0
-1.0,0.0,-2.0,-1.0,-7.0,-1.0,0.0,-2.0,1651072237701492.0
-2.0,3.0,1.0,2.0,1.0,-1.0,-1.0,0.0,1651072237723192.0
-3.0,-6.0,-4.0,0.0,3.0,2.0,1.0,0.0,1651072237723192.0
3.0,0.0,4.0,-4.0,-19.0,-4.0,-1.0,0.0,1651072237724152.0
-1.0,1.0,-6.0,0.0,14.0,2.0,0.0,1.0,1651072237724152.0
0.0,2.0,-1.0,0.0,0.0,3.0,1.0,1.0,1651072237737090.0
0.0,1.0,6.0,1.0,-2.0,-1.0,0.0,1.0,1651072237737090.0
-2.0,0.0,0.0,1.0,-2.0,-2.0,-2.0,-1.0,1651072237738088.0
0.0,-3.0,1.0,-4.0,-6.0,0.0,-2.0,1.0,1651072237738088.0
1.0,0.0,-2.0,-1.0,-5.0,0.0,0.0,-1.0,1651072237761028.0
-2.0,1.0,-2.0,-2.0,7.0,3.0,1.0,-1.0,1651072237761028.0
1.0,5.0,-1.0,0.0,1.0,-1.0,0.0,0.0,1651072237761028.0
0.0,-14.0,-2.0,1.0,-3.0,-3.0,-1.0,-1.0,1651072237761028.0
-2.0,4.0,-3.0,-2.0,6.0,0.0,-2.0,-1.0,1651072237782748.0
0.0,-3.0,1.0,-3.0,-7.0,-4.0,0.0,0.0,1651072237782748.0
0.0,6.0,0.0,3.0,3.0,-1.0,1.0,0.0,1651072237783678.0
0.0,4.0,2.0,-2.0,-6.0,-3.0,-1.0,0.0,1651072237783678.0
-1.0,-9.0,-2.0,-6.0,0.0,1.0,-1.0,0.0,1651072237796711.0
1.0,0.0,-2.0,-1.0,-1.0,-1.0,1.0,1.0,1651072237796711.0
-1.0,-3.0,-4.0,9.0,1.0,0.0,-1.0,0.0,1651072237804624.0
-2.0,3.0,-1.0,-8.0,-3.0,-2.0,0.0,-1.0,1651072237804624.0
-2.0,-1.0,4.0,13.0,-6.0,-5.0,-2.0,-1.0,1651072237820729.0
0.0,1.0,-3.0,-6.0,2.0,2.0,-1.0,0.0,1651072237820729.0
0.0,2.0,-2.0,-5.0,2.0,-2.0,-1.0,0.0,1651072237820729.0
-1.0,-3.0,0.0,-4.0,-4.0,3.0,0.0,-1.0,1651072237820729.0
0.0,-7.0,-4.0,-4.0,6.0,0.0,0.0,1.0,1651072237843200.0
0.0,-14.0,-3.0,-5.0,-10.0,-5.0,0.0,-2.0,1651072237843200.0
-1.0,7.0,-1.0,-1.0,-5.0,-2.0,-1.0,0.0,1651072237843200.0
0.0,6.0,-3.0,-5.0,12.0,2.0,-1.0,-1.0,1651072237843200.0
0.0,8.0,4.0,4.0,-5.0,0.0,1.0,0.0,1651072237856781.0
-3.0,-4.0,0.0,6.0,2.0,0.0,-2.0,-2.0,1651072237856781.0
-2.0,-5.0,-3.0,-2.0,1.0,1.0,0.0,-2.0,1651072237864754.0
0.0,0.0,-3.0,-3.0,-3.0,0.0,0.0,0.0,1651072237864754.0
1.0,-2.0,-1.0,-7.0,-1.0,-1.0,0.0,0.0,1651072237879880.0
1.0,0.0,1.0,-3.0,-8.0,-3.0,-2.0,-1.0,1651072237879880.0
0.0,3.0,2.0,1.0,9.0,5.0,1.0,1.0,1651072237880810.0
-1.0,-4.0,2.0,2.0,1.0,1.0,-2.0,0.0,1651072237880810.0
1.0,-1.0,-2.0,-1.0,1.0,-2.0,1.0,-1.0,1651072237903195.0
-1.0,5.0,1.0,4.0,-2.0,0.0,-1.0,-2.0,1651072237903195.0
-1.0,0.0,1.0,-2.0,-1.0,-1.0,-2.0,-1.0,1651072237903515.0
-1.0,-7.0,-2.0,3.0,-1.0,0.0,-1.0,-2.0,1651072237903515.0
0.0,1.0,-1.0,0.0,-5.0,0.0,-1.0,1.0,1651072237916550.0
1.0,3.0,1.0,0.0,2.0,-1.0,0.0,0.0,1651072237916550.0
1.0,-5.0,-1.0,0.0,1.0,-1.0,0.0,-1.0,1651072237924528.0
0.0,1.0,1.0,5.0,4.0,0.0,0.0,1.0,1651072237924528.0
-2.0,1.0,-2.0,-3.0,-5.0,0.0,1.0,-2.0,1651072237939533.0
0.0,-1.0,-1.0,-2.0,-1.0,-3.0,-1.0,0.0,1651072237939533.0
0.0,-6.0,-1.0,-2.0,0.0,2.0,0.0,0.0,1651072237940505.0
-2.0,-1.0,0.0,3.0,-1.0,-3.0,1.0,-2.0,1651072237940505.0
-1.0,3.0,1.0,-5.0,-1.0,0.0,2.0,-1.0,1651072237963204.0
-2.0,-3.0,-1.0,1.0,4.0,-1.0,-1.0,-1.0,1651072237963204.0
-1.0,-1.0,-1.0,-2.0,-3.0,-2.0,0.0,1.0,1651072237963573.0
1.0,1.0,0.0,-1.0,-4.0,-3.0,-2.0,-1.0,1651072237963573.0
-2.0,-4.0,-1.0,-5.0,-4.0,1.0,0.0,0.0,1651072237976542.0
0.0,1.0,-4.0,2.0,9.0,5.0,0.0,1.0,1651072237976542.0
-2.0,-2.0,-2.0,0.0,1.0,-3.0,-1.0,-1.0,1651072237984603.0
1.0,3.0,2.0,2.0,0.0,1.0,1.0,0.0,1651072237984603.0
-1.0,0.0,-1.0,0.0,-2.0,-2.0,-2.0,2.0,1651072237999723.0
1.0,1.0,0.0,-2.0,-6.0,-1.0,-1.0,0.0,1651072237999723.0
1.0,-2.0,-1.0,0.0,-1.0,0.0,0.0,-1.0,1651072238000692.0
-1.0,-2.0,0.0,1.0,-2.0,0.0,0.0,0.0,1651072238000692.0
0.0,0.0,-2.0,-2.0,1.0,-1.0,-1.0,-1.0,1651072238022796.0
0.0,0.0,-1.0,-2.0,0.0,1.0,-1.0,0.0,1651072238022796.0
0.0,-2.0,-2.0,0.0,0.0,-1.0,-1.0,-3.0,1651072238023724.0
0.0,0.0,-1.0,0.0,-11.0,-5.0,-3.0,-1.0,1651072238023724.0
1.0,3.0,0.0,1.0,11.0,5.0,1.0,1.0,1651072238036867.0
-2.0,-3.0,0.0,-1.0,-1.0,0.0,1.0,0.0,1651072238036867.0
-1.0,-1.0,0.0,-2.0,0.0,1.0,-1.0,1.0,1651072238044936.0
-1.0,2.0,0.0,0.0,3.0,1.0,0.0,0.0,1651072238044936.0
1.0,0.0,1.0,4.0,-3.0,-4.0,-3.0,-2.0,1651072238059692.0
0.0,0.0,0.0,-2.0,-4.0,0.0,1.0,-1.0,1651072238059692.0
2.0,1.0,0.0,-1.0,-4.0,-3.0,3.0,0.0,1651072238060629.0
0.0,-1.0,-1.0,0.0,-1.0,-2.0,-1.0,-1.0,1651072238060629.0
-2.0,-2.0,-1.0,-1.0,3.0,-1.0,-2.0,-1.0,1651072238083395.0
0.0,0.0,0.0,-3.0,-1.0,0.0,-1.0,-1.0,1651072238083395.0
-1.0,-3.0,-3.0,0.0,-4.0,-1.0,-1.0,1.0,1651072238083395.0
1.0,-2.0,-3.0,-2.0,-3.0,0.0,-2.0,0.0,1651072238083395.0
1.0,0.0,-1.0,0.0,2.0,-1.0,-1.0,0.0,1651072238096476.0
-2.0,-1.0,-2.0,1.0,-2.0,-1.0,-1.0,0.0,1651072238096476.0
-3.0,-2.0,-1.0,1.0,6.0,0.0,-2.0,-1.0,1651072238104385.0
-2.0,-3.0,0.0,0.0,-1.0,-2.0,0.0,-1.0,1651072238104385.0
-1.0,0.0,0.0,-3.0,-5.0,-2.0,-1.0,0.0,1651072238128390.0
0.0,0.0,2.0,3.0,8.0,1.0,0.0,0.0,1651072238128390.0
0.0,-1.0,0.0,-3.0,-12.0,-1.0,0.0,0.0,1651072238128390.0
0.0,0.0,1.0,2.0,15.0,5.0,2.0,1.0,1651072238128390.0
-1.0,0.0,0.0,-2.0,-7.0,-2.0,-1.0,-2.0,1651072238143528.0
-1.0,1.0,-3.0,0.0,-4.0,-6.0,-2.0,-1.0,1651072238143528.0
0.0,0.0,-1.0,-1.0,1.0,0.0,0.0,0.0,1651072238143528.0
1.0,-2.0,0.0,-2.0,-2.0,1.0,-1.0,0.0,1651072238143528.0
0.0,-3.0,-1.0,1.0,-1.0,1.0,-1.0,-1.0,1651072238165645.0
-1.0,-2.0,-1.0,-1.0,0.0,-1.0,-2.0,0.0,1651072238165645.0
-1.0,-1.0,-2.0,-6.0,-2.0,-3.0,-1.0,0.0,1651072238166598.0
-1.0,2.0,-1.0,5.0,-4.0,-2.0,-1.0,-2.0,1651072238166598.0
-1.0,-4.0,2.0,4.0,6.0,1.0,-1.0,0.0,1651072238179604.0
0.0,1.0,0.0,-3.0,-6.0,-1.0,1.0,-2.0,1651072238179604.0
-1.0,0.0,-1.0,-2.0,-2.0,-2.0,0.0,-1.0,1651072238180542.0
1.0,-1.0,-2.0,-3.0,0.0,0.0,-1.0,0.0,1651072238180542.0
0.0,0.0,-1.0,-1.0,-2.0,-2.0,0.0,-1.0,1651072238203244.0
1.0,-3.0,-2.0,-1.0,-4.0,-2.0,1.0,1.0,1651072238203244.0
-1.0,1.0,0.0,0.0,3.0,-1.0,0.0,1.0,1651072238203244.0
-2.0,-4.0,1.0,6.0,-2.0,-2.0,1.0,0.0,1651072238203244.0
-1.0,-1.0,-1.0,1.0,6.0,-1.0,0.0,0.0,1651072238225499.0
0.0,-1.0,-1.0,-7.0,-1.0,2.0,0.0,0.0,1651072238225499.0
1.0,1.0,-1.0,5.0,0.0,1.0,-1.0,-2.0,1651072238226457.0
0.0,1.0,-2.0,-5.0,-6.0,-2.0,1.0,0.0,1651072238226457.0
0.0,0.0,0.0,-2.0,-6.0,-3.0,-3.0,-1.0,1651072238248084.0
-1.0,1.0,0.0,3.0,3.0,0.0,0.0,-1.0,1651072238248084.0
0.0,-1.0,-1.0,0.0,3.0,2.0,0.0,0.0,1651072238249015.0
-1.0,1.0,2.0,0.0,-1.0,-2.0,0.0,-1.0,1651072238249015.0
0.0,0.0,-1.0,-2.0,-4.0,0.0,1.0,1.0,1651072238262755.0
-1.0,3.0,2.0,-7.0,-13.0,-1.0,0.0,-1.0,1651072238262755.0
-2.0,4.0,0.0,2.0,11.0,-1.0,0.0,0.0,1651072238263698.0
0.0,-9.0,1.0,0.0,5.0,1.0,-1.0,0.0,1651072238263698.0
-1.0,4.0,-2.0,0.0,1.0,1.0,0.0,-2.0,1651072238285364.0
0.0,-1.0,0.0,-1.0,-2.0,-1.0,-1.0,-1.0,1651072238285364.0
-1.0,-2.0,2.0,2.0,-3.0,-1.0,-1.0,0.0,1651072238286364.0
-1.0,0.0,-2.0,-3.0,-4.0,-3.0,-2.0,-1.0,1651072238286364.0
0.0,-2.0,0.0,-1.0,4.0,2.0,2.0,0.0,1651072238300265.0
0.0,2.0,1.0,6.0,4.0,1.0,1.0,0.0,1651072238300265.0
-1.0,-3.0,-1.0,-3.0,-5.0,-2.0,-1.0,0.0,1651072238300265.0
-1.0,1.0,-1.0,-2.0,0.0,0.0,-1.0,-1.0,1651072238300265.0
2.0,-5.0,-3.0,-1.0,-2.0,-1.0,0.0,0.0,1651072238323244.0
0.0,-2.0,0.0,0.0,-2.0,0.0,-1.0,-1.0,1651072238323244.0
0.0,-2.0,0.0,-2.0,-6.0,1.0,0.0,-1.0,1651072238323244.0
-1.0,1.0,0.0,-2.0,-2.0,-1.0,0.0,-1.0,1651072238323244.0
-1.0,1.0,-1.0,1.0,2.0,1.0,-1.0,-1.0,1651072238345546.0
-4.0,-1.0,-1.0,2.0,3.0,2.0,1.0,0.0,1651072238345546.0
0.0,1.0,0.0,-1.0,-2.0,-1.0,-1.0,-2.0,1651072238346517.0
-3.0,-2.0,-1.0,-4.0,-3.0,0.0,0.0,-1.0,1651072238346517.0
-1.0,2.0,2.0,0.0,-4.0,-1.0,-2.0,0.0,1651072238360266.0
-1.0,-1.0,-4.0,-4.0,-1.0,-2.0,0.0,0.0,1651072238360266.0
0.0,-2.0,-2.0,-1.0,-6.0,-4.0,0.0,0.0,1651072238360266.0
0.0,0.0,-1.0,1.0,12.0,5.0,2.0,2.0,1651072238360266.0
1.0,-1.0,2.0,-1.0,0.0,0.0,-1.0,0.0,1651072238382678.0
-2.0,-2.0,0.0,-1.0,-3.0,0.0,-3.0,-1.0,1651072238382678.0
1.0,0.0,-1.0,-3.0,-4.0,-2.0,0.0,-1.0,1651072238383673.0
2.0,2.0,1.0,-2.0,-3.0,-3.0,-1.0,0.0,1651072238383673.0
0.0,-8.0,-1.0,1.0,-2.0,-1.0,0.0,0.0,1651072238406382.0
0.0,3.0,1.0,0.0,-2.0,0.0,1.0,1.0,1651072238406382.0
-2.0,-4.0,-2.0,3.0,4.0,0.0,-2.0,-3.0,1651072238406382.0
0.0,1.0,0.0,-2.0,-3.0,-1.0,-1.0,-1.0,1651072238406382.0
-1.0,2.0,-3.0,-2.0,-3.0,-1.0,-1.0,-1.0,1651072238420331.0
0.0,-3.0,-1.0,1.0,8.0,2.0,1.0,-1.0,1651072238420331.0
1.0,1.0,0.0,0.0,2.0,-1.0,0.0,2.0,1651072238420331.0
1.0,0.0,-2.0,-2.0,1.0,0.0,0.0,0.0,1651072238420331.0
0.0,0.0,1.0,-3.0,-5.0,-3.0,0.0,0.0,1651072238443249.0
-2.0,-1.0,0.0,-1.0,-2.0,-2.0,0.0,1.0,1651072238443249.0
-1.0,0.0,-1.0,0.0,2.0,2.0,0.0,0.0,1651072238444249.0
-2.0,-2.0,-2.0,0.0,-4.0,-1.0,-2.0,-2.0,1651072238444249.0
-1.0,-1.0,-4.0,-1.0,-3.0,-1.0,-3.0,0.0,1651072238465417.0
-1.0,-1.0,1.0,0.0,4.0,0.0,-2.0,0.0,1651072238465417.0
-1.0,-2.0,2.0,4.0,15.0,5.0,1.0,0.0,1651072238466348.0
0.0,3.0,0.0,0.0,-2.0,-1.0,2.0,-1.0,1651072238466348.0
0.0,3.0,0.0,-3.0,0.0,-2.0,3.0,2.0,1651072238480330.0
0.0,-5.0,-2.0,1.0,-6.0,-2.0,0.0,-3.0,1651072238480330.0
-1.0,0.0,-2.0,-2.0,-8.0,-4.0,-2.0,-1.0,1651072238480330.0
0.0,-1.0,-1.0,-1.0,1.0,0.0,0.0,0.0,1651072238480330.0
-2.0,2.0,-2.0,-1.0,0.0,-1.0,0.0,-2.0,1651072238503312.0
-1.0,1.0,0.0,-2.0,-1.0,0.0,-1.0,1.0,1651072238503312.0
-1.0,-2.0,-2.0,-2.0,-4.0,-3.0,0.0,2.0,1651072238503312.0
1.0,0.0,-1.0,2.0,7.0,3.0,-1.0,1.0,1651072238503312.0
-1.0,0.0,2.0,0.0,-1.0,0.0,-2.0,-1.0,1651072238525308.0
1.0,-2.0,-1.0,0.0,0.0,-2.0,-1.0,0.0,1651072238525308.0
0.0,-2.0,2.0,-2.0,0.0,0.0,1.0,-2.0,1651072238526238.0
-2.0,0.0,-1.0,-2.0,-5.0,-2.0,0.0,-1.0,1651072238526238.0
-2.0,-2.0,-1.0,-2.0,1.0,-1.0,-2.0,0.0,1651072238540229.0
0.0,-2.0,-2.0,0.0,-3.0,-3.0,-1.0,-1.0,1651072238540229.0
-3.0,-2.0,-1.0,1.0,-2.0,0.0,0.0,0.0,1651072238540229.0
0.0,-1.0,0.0,1.0,4.0,1.0,1.0,-1.0,1651072238540229.0
-1.0,-1.0,-2.0,-2.0,3.0,2.0,2.0,0.0,1651072238563297.0
0.0,2.0,0.0,1.0,0.0,-3.0,-1.0,-1.0,1651072238563297.0
1.0,-1.0,0.0,-2.0,-5.0,-4.0,-1.0,1.0,1651072238563297.0
0.0,-3.0,-1.0,-2.0,-3.0,-2.0,0.0,0.0,1651072238563297.0
-1.0,-1.0,0.0,1.0,2.0,1.0,-1.0,-1.0,1651072238585746.0
0.0,1.0,-2.0,-2.0,-3.0,-1.0,-2.0,-1.0,1651072238585746.0
2.0,-4.0,-2.0,-3.0,-5.0,0.0,-1.0,1.0,1651072238586689.0
-3.0,2.0,-2.0,1.0,3.0,-1.0,0.0,-1.0,1651072238586689.0
0.0,-1.0,0.0,-3.0,-6.0,-3.0,-2.0,0.0,1651072238600261.0
-2.0,0.0,1.0,2.0,0.0,1.0,0.0,-1.0,1651072238600261.0
0.0,-1.0,-1.0,2.0,8.0,1.0,0.0,0.0,1651072238600261.0
-1.0,-2.0,-1.0,-3.0,-6.0,-1.0,-2.0,-1.0,1651072238600261.0
0.0,1.0,-2.0,-2.0,-1.0,0.0,1.0,1.0,1651072238623290.0
-2.0,0.0,0.0,-2.0,-3.0,0.0,0.0,-1.0,1651072238623290.0
-2.0,1.0,-1.0,-4.0,-1.0,-2.0,-2.0,0.0,1651072238624286.0
-1.0,-1.0,0.0,0.0,-1.0,-1.0,0.0,-1.0,1651072238624286.0
0.0,0.0,0.0,1.0,1.0,-3.0,-1.0,0.0,1651072238645229.0
2.0,-1.0,1.0,-1.0,1.0,2.0,0.0,-1.0,1651072238645229.0
0.0,1.0,2.0,1.0,-2.0,-1.0,-2.0,-2.0,1651072238646226.0
-2.0,0.0,-2.0,-4.0,0.0,1.0,-2.0,0.0,1651072238646226.0
-1.0,0.0,0.0,2.0,3.0,0.0,0.0,-3.0,1651072238660262.0
1.0,-2.0,-2.0,1.0,1.0,-1.0,0.0,-1.0,1651072238660262.0
0.0,1.0,0.0,-3.0,-6.0,-3.0,-1.0,-2.0,1651072238660262.0
-1.0,0.0,0.0,-2.0,-4.0,-4.0,-1.0,-2.0,1651072238660262.0
-1.0,-2.0,1.0,1.0,-4.0,2.0,-1.0,0.0,1651072238683346.0
1.0,-1.0,0.0,-2.0,8.0,0.0,-2.0,0.0,1651072238683346.0
1.0,-1.0,-1.0,0.0,-6.0,-2.0,-1.0,-1.0,1651072238685338.0
0.0,-2.0,0.0,0.0,-2.0,0.0,-1.0,0.0,1651072238685338.0
0.0,0.0,1.0,1.0,3.0,-4.0,-1.0,-1.0,1651072238705406.0
0.0,1.0,-2.0,-1.0,-6.0,1.0,1.0,0.0,1651072238705406.0
0.0,1.0,-1.0,-2.0,1.0,3.0,-1.0,0.0,1651072238707407.0
0.0,-1.0,1.0,0.0,-3.0,-1.0,-1.0,-1.0,1651072238707407.0
1.0,1.0,-1.0,-1.0,3.0,3.0,0.0,0.0,1651072238719350.0
-2.0,-1.0,0.0,0.0,-1.0,-3.0,-1.0,-1.0,1651072238719350.0
-1.0,0.0,-2.0,0.0,-1.0,-3.0,-1.0,-2.0,1651072238728318.0
-1.0,3.0,1.0,0.0,-1.0,-2.0,-2.0,-1.0,1651072238728318.0
-1.0,-4.0,1.0,-1.0,-4.0,-2.0,1.0,-1.0,1651072238742753.0
1.0,-4.0,1.0,2.0,2.0,0.0,0.0,-1.0,1651072238742753.0
1.0,1.0,-1.0,0.0,3.0,4.0,2.0,1.0,1651072238744683.0
1.0,1.0,-1.0,0.0,0.0,-2.0,1.0,0.0,1651072238744683.0
2.0,0.0,-2.0,0.0,-2.0,1.0,-1.0,0.0,1651072238765691.0
-1.0,1.0,-1.0,-3.0,-6.0,-2.0,-2.0,-2.0,1651072238765691.0
-2.0,-3.0,0.0,2.0,-1.0,-1.0,-2.0,-2.0,1651072238766622.0
1.0,0.0,0.0,2.0,3.0,1.0,-2.0,1.0,1651072238766622.0
-2.0,0.0,-1.0,-3.0,-2.0,0.0,0.0,0.0,1651072238778673.0
-1.0,-2.0,-2.0,0.0,5.0,2.0,-1.0,0.0,1651072238778673.0
0.0,1.0,-1.0,-2.0,-2.0,-1.0,-1.0,0.0,1651072238793733.0
1.0,0.0,-2.0,2.0,-4.0,1.0,1.0,1.0,1651072238793733.0
1.0,-1.0,-1.0,0.0,-2.0,0.0,0.0,0.0,1651072238802780.0
-1.0,-1.0,-1.0,1.0,-1.0,-2.0,-2.0,-1.0,1651072238802780.0
0.0,-1.0,-2.0,-2.0,1.0,2.0,1.0,-3.0,1651072238804733.0
1.0,0.0,-1.0,-1.0,0.0,1.0,0.0,-1.0,1651072238804733.0
-1.0,-2.0,-1.0,-1.0,1.0,0.0,-1.0,-1.0,1651072238825377.0
0.0,-1.0,-1.0,-1.0,0.0,-2.0,-1.0,0.0,1651072238825377.0
0.0,-1.0,-1.0,-1.0,2.0,-1.0,-1.0,0.0,1651072238827401.0
-1.0,-3.0,-1.0,-3.0,-5.0,3.0,1.0,1.0,1651072238827401.0
-2.0,-1.0,-1.0,-1.0,0.0,-1.0,-1.0,-2.0,1651072238848459.0
-2.0,7.0,-3.0,0.0,-1.0,-1.0,0.0,0.0,1651072238848459.0
-3.0,-9.0,-1.0,-1.0,-2.0,-1.0,-1.0,-2.0,1651072238849370.0
-1.0,1.0,-3.0,-2.0,-2.0,-3.0,-1.0,-2.0,1651072238849370.0
-1.0,-2.0,-1.0,0.0,0.0,0.0,-1.0,0.0,1651072238863247.0
2.0,-1.0,-1.0,1.0,1.0,1.0,0.0,1.0,1651072238863247.0
1.0,2.0,0.0,-1.0,-1.0,-1.0,0.0,-1.0,1651072238864252.0
-3.0,-2.0,-2.0,-1.0,-1.0,-3.0,0.0,-1.0,1651072238864252.0
0.0,0.0,0.0,-1.0,-2.0,-3.0,1.0,-1.0,1651072238885361.0
0.0,0.0,2.0,0.0,0.0,1.0,2.0,0.0,1651072238885361.0
0.0,1.0,0.0,0.0,-2.0,-1.0,-1.0,-3.0,1651072238887388.0
-1.0,-3.0,1.0,-2.0,0.0,0.0,-3.0,-2.0,1651072238887388.0
0.0,1.0,-2.0,-1.0,-1.0,2.0,0.0,0.0,1651072238899583.0
-1.0,-2.0,0.0,1.0,-2.0,-2.0,-1.0,0.0,1651072238899583.0
1.0,0.0,-1.0,-1.0,7.0,2.0,-1.0,1.0,1651072238908357.0
0.0,0.0,1.0,2.0,0.0,-1.0,2.0,1.0,1651072238908357.0
-1.0,-1.0,-1.0,-2.0,-2.0,-3.0,-2.0,-2.0,1651072238923398.0
0.0,-1.0,-1.0,-5.0,-2.0,-1.0,-1.0,0.0,1651072238923398.0
0.0,1.0,-2.0,1.0,-7.0,-2.0,-1.0,-2.0,1651072238924412.0
-2.0,-4.0,-2.0,0.0,1.0,-3.0,-1.0,0.0,1651072238924412.0
1.0,-1.0,-2.0,1.0,1.0,-3.0,0.0,0.0,1651072238945408.0
1.0,-2.0,-1.0,-1.0,-6.0,0.0,-1.0,1.0,1651072238945408.0
-1.0,0.0,0.0,1.0,8.0,3.0,0.0,1.0,1651072238947363.0
-2.0,-1.0,-2.0,-2.0,0.0,-1.0,-1.0,0.0,1651072238947363.0
-1.0,-1.0,0.0,0.0,-2.0,0.0,-1.0,-1.0,1651072238959371.0
0.0,2.0,-1.0,-2.0,-2.0,-6.0,0.0,-1.0,1651072238959371.0
-2.0,-4.0,-1.0,1.0,-1.0,0.0,0.0,-1.0,1651072238968282.0
0.0,0.0,-1.0,-2.0,4.0,5.0,0.0,-1.0,1651072238968282.0
-1.0,-1.0,-1.0,1.0,2.0,0.0,-1.0,-2.0,1651072238983330.0
-1.0,0.0,1.0,0.0,-5.0,-2.0,-1.0,-2.0,1651072238983330.0
-1.0,1.0,0.0,0.0,2.0,0.0,0.0,0.0,1651072238985358.0
0.0,3.0,1.0,3.0,-1.0,0.0,0.0,-1.0,1651072238985358.0
-1.0,-6.0,-1.0,-2.0,-1.0,0.0,0.0,-1.0,1651072239005311.0
-1.0,1.0,-5.0,-4.0,-4.0,1.0,-1.0,0.0,1651072239005311.0
-1.0,-1.0,0.0,-1.0,-5.0,-3.0,0.0,-2.0,1651072239007268.0
0.0,-2.0,-2.0,-1.0,1.0,-1.0,-1.0,-1.0,1651072239007268.0
0.0,1.0,0.0,-1.0,-2.0,0.0,-1.0,1.0,1651072239019318.0
-1.0,-2.0,1.0,-1.0,-1.0,-1.0,-1.0,-2.0,1651072239019318.0
1.0,0.0,0.0,-2.0,-4.0,0.0,0.0,2.0,1651072239027700.0
2.0,0.0,-1.0,1.0,6.0,0.0,0.0,-1.0,1651072239027700.0
-2.0,1.0,0.0,1.0,-2.0,-1.0,0.0,-1.0,1651072239042763.0
-3.0,-1.0,-1.0,2.0,5.0,1.0,1.0,-1.0,1651072239042763.0
0.0,2.0,1.0,-1.0,3.0,2.0,0.0,-1.0,1651072239044702.0
-2.0,-1.0,0.0,0.0,-6.0,-4.0,-1.0,-1.0,1651072239044702.0
1.0,1.0,0.0,1.0,1.0,-1.0,1.0,-1.0,1651072239065234.0
1.0,0.0,0.0,3.0,3.0,2.0,0.0,0.0,1651072239065234.0
1.0,-2.0,-4.0,-1.0,-1.0,-2.0,0.0,0.0,1651072239067162.0
1.0,-2.0,0.0,-4.0,-2.0,2.0,0.0,0.0,1651072239067162.0
0.0,-1.0,0.0,1.0,-3.0,-2.0,0.0,-2.0,1651072239087734.0
-1.0,-1.0,0.0,-2.0,-3.0,-3.0,-2.0,-3.0,1651072239087734.0
-1.0,-2.0,0.0,-3.0,-2.0,0.0,-1.0,0.0,1651072239089662.0
-1.0,-1.0,0.0,0.0,-2.0,-2.0,0.0,-2.0,1651072239089662.0
-1.0,1.0,-2.0,0.0,-1.0,-2.0,-2.0,0.0,1651072239102759.0
1.0,-3.0,-1.0,1.0,4.0,3.0,0.0,0.0,1651072239102759.0
-1.0,-1.0,-1.0,1.0,-2.0,-4.0,-2.0,0.0,1651072239104753.0
0.0,2.0,0.0,-3.0,3.0,-1.0,0.0,-1.0,1651072239104753.0
1.0,0.0,0.0,1.0,2.0,1.0,1.0,0.0,1651072239125798.0
1.0,-1.0,-1.0,-1.0,0.0,-1.0,1.0,0.0,1651072239125798.0
-2.0,-1.0,-1.0,-1.0,-4.0,3.0,0.0,-1.0,1651072239127753.0
-2.0,-2.0,1.0,6.0,-3.0,-2.0,0.0,0.0,1651072239127753.0
0.0,-1.0,-1.0,-6.0,1.0,-1.0,-3.0,1.0,1651072239147858.0
-2.0,0.0,0.0,-3.0,-1.0,-1.0,1.0,2.0,1651072239147858.0
-3.0,-1.0,-4.0,0.0,-2.0,-1.0,-1.0,0.0,1651072239149813.0
-2.0,2.0,0.0,1.0,0.0,1.0,-1.0,0.0,1651072239149813.0
0.0,2.0,1.0,1.0,2.0,0.0,-1.0,-1.0,1651072239162107.0
1.0,1.0,5.0,10.0,-1.0,-1.0,-1.0,0.0,1651072239162107.0
-1.0,3.0,-6.0,-11.0,-2.0,-3.0,0.0,1.0,1651072239171124.0
2.0,-4.0,-3.0,21.0,7.0,-1.0,0.0,0.0,1651072239171124.0
-7.0,-6.0,-4.0,-30.0,-13.0,-5.0,-3.0,-4.0,1651072239186397.0
19.0,1.0,6.0,24.0,4.0,5.0,1.0,7.0,1651072239186397.0
-25.0,-3.0,7.0,-8.0,-5.0,-4.0,-2.0,-13.0,1651072239187367.0
10.0,-14.0,3.0,1.0,5.0,0.0,0.0,11.0,1651072239187367.0
2.0,35.0,14.0,14.0,-3.0,3.0,-1.0,-9.0,1651072239208377.0
10.0,-4.0,-20.0,-29.0,-4.0,-4.0,-2.0,4.0,1651072239208377.0
-2.0,7.0,25.0,53.0,3.0,-3.0,-1.0,-3.0,1651072239209320.0
-73.0,-7.0,14.0,-11.0,-5.0,-2.0,-1.0,-11.0,1651072239209320.0
10.0,-16.0,-14.0,2.0,1.0,-4.0,-1.0,2.0,1651072239223380.0
24.0,-5.0,-7.0,-34.0,-2.0,4.0,6.0,23.0,1651072239223380.0
28.0,8.0,-3.0,20.0,4.0,0.0,-2.0,-17.0,1651072239224393.0
2.0,7.0,-11.0,-63.0,-24.0,-7.0,-5.0,6.0,1651072239224393.0
12.0,-39.0,-13.0,30.0,-8.0,-9.0,-5.0,6.0,1651072239245822.0
-72.0,8.0,16.0,-15.0,8.0,0.0,-6.0,-26.0,1651072239245822.0
41.0,-10.0,-9.0,56.0,18.0,10.0,5.0,14.0,1651072239246834.0
110.0,10.0,-2.0,-65.0,-13.0,-4.0,1.0,24.0,1651072239246834.0
-95.0,-30.0,-34.0,-18.0,-23.0,-4.0,0.0,-26.0,1651072239267882.0
16.0,25.0,26.0,45.0,22.0,7.0,0.0,-12.0,1651072239267882.0
-33.0,-38.0,42.0,24.0,15.0,2.0,4.0,11.0,1651072239269840.0
38.0,-40.0,-91.0,-78.0,-36.0,-19.0,-11.0,-34.0,1651072239269840.0
69.0,20.0,42.0,82.0,5.0,-6.0,-2.0,9.0,1651072239282789.0
-20.0,-16.0,-41.0,-67.0,-9.0,-5.0,-4.0,9.0,1651072239282789.0
-58.0,-5.0,-52.0,-56.0,-17.0,-6.0,-7.0,-13.0,1651072239289575.0
7.0,17.0,73.0,13.0,28.0,18.0,11.0,17.0,1651072239289575.0
4.0,22.0,32.0,50.0,10.0,0.0,2.0,11.0,1651072239305267.0
12.0,-6.0,-26.0,39.0,-5.0,-4.0,0.0,6.0,1651072239305267.0
-5.0,7.0,2.0,-82.0,-19.0,-6.0,-7.0,-18.0,1651072239307195.0
-5.0,14.0,21.0,75.0,26.0,10.0,5.0,-2.0,1651072239307195.0
-15.0,9.0,-65.0,-54.0,-5.0,2.0,3.0,0.0,1651072239328165.0
8.0,-44.0,9.0,32.0,-12.0,-8.0,-2.0,7.0,1651072239328165.0
-2.0,54.0,-12.0,-40.0,-2.0,2.0,-3.0,-2.0,1651072239329135.0
-13.0,-2.0,3.0,47.0,-1.0,0.0,1.0,-5.0,1651072239329135.0
22.0,-7.0,34.0,-16.0,7.0,5.0,0.0,-1.0,1651072239342160.0
-2.0,23.0,106.0,86.0,24.0,7.0,0.0,-7.0,1651072239342160.0
-9.0,-26.0,-88.0,-92.0,-41.0,-13.0,-4.0,0.0,1651072239349141.0
-59.0,-9.0,-23.0,4.0,-1.0,-8.0,-8.0,-12.0,1651072239349141.0
-3.0,2.0,15.0,-5.0,8.0,5.0,-2.0,0.0,1651072239365275.0
12.0,9.0,-2.0,-51.0,-6.0,2.0,4.0,5.0,1651072239365275.0
79.0,8.0,65.0,94.0,28.0,9.0,6.0,4.0,1651072239367231.0
-29.0,21.0,12.0,12.0,6.0,2.0,3.0,5.0,1651072239367231.0
-8.0,-16.0,-16.0,-68.0,4.0,1.0,0.0,1.0,1651072239388368.0
-59.0,-26.0,-51.0,16.0,-20.0,-11.0,-8.0,-23.0,1651072239388368.0
14.0,12.0,11.0,18.0,16.0,7.0,0.0,3.0,1651072239389299.0
6.0,-7.0,0.0,68.0,6.0,1.0,3.0,3.0,1651072239389299.0
5.0,17.0,3.0,-43.0,-11.0,1.0,1.0,-7.0,1651072239402071.0
-33.0,-6.0,-23.0,-21.0,-3.0,-3.0,-1.0,-6.0,1651072239402071.0
-1.0,-15.0,-17.0,11.0,11.0,-1.0,-1.0,7.0,1651072239411070.0
-17.0,9.0,47.0,36.0,5.0,2.0,-2.0,-3.0,1651072239411070.0
-36.0,-14.0,-26.0,-32.0,-8.0,0.0,0.0,1.0,1651072239425254.0
31.0,22.0,2.0,53.0,0.0,2.0,2.0,9.0,1651072239425254.0
-50.0,35.0,43.0,22.0,39.0,10.0,4.0,-1.0,1651072239427181.0
40.0,-9.0,13.0,-99.0,-47.0,-10.0,1.0,3.0,1651072239427181.0
-32.0,-23.0,-47.0,6.0,0.0,-6.0,-4.0,-2.0,1651072239448349.0
-36.0,-9.0,-11.0,7.0,-7.0,-5.0,-3.0,-5.0,1651072239448349.0
4.0,6.0,29.0,21.0,10.0,4.0,2.0,7.0,1651072239449317.0
16.0,6.0,-6.0,-9.0,8.0,3.0,0.0,3.0,1651072239449317.0
-6.0,16.0,26.0,33.0,5.0,6.0,2.0,5.0,1651072239463241.0
31.0,-3.0,-15.0,-52.0,-14.0,-4.0,0.0,0.0,1651072239463241.0
-24.0,3.0,7.0,21.0,-1.0,-3.0,-2.0,-4.0,1651072239469293.0
26.0,6.0,13.0,5.0,3.0,3.0,-1.0,-3.0,1651072239469293.0
12.0,-8.0,6.0,2.0,-1.0,-2.0,-1.0,5.0,1651072239485218.0
-1.0,14.0,-12.0,19.0,31.0,9.0,1.0,-4.0,1651072239485218.0
45.0,-31.0,-12.0,-84.0,-38.0,-12.0,0.0,1.0,1651072239487187.0
-21.0,7.0,8.0,55.0,8.0,1.0,-6.0,-2.0,1651072239487187.0
33.0,13.0,35.0,54.0,27.0,10.0,3.0,5.0,1651072239508190.0
0.0,0.0,-11.0,-21.0,6.0,1.0,-1.0,-6.0,1651072239508190.0
89.0,23.0,-7.0,-22.0,-11.0,1.0,6.0,19.0,1651072239514175.0
-35.0,1.0,8.0,3.0,-3.0,-4.0,-3.0,-7.0,1651072239514175.0
-19.0,3.0,-11.0,13.0,1.0,-2.0,-2.0,-4.0,1651072239522783.0
-9.0,6.0,24.0,23.0,11.0,6.0,3.0,3.0,1651072239522783.0
21.0,-15.0,-37.0,-49.0,-8.0,-1.0,-2.0,1.0,1651072239528884.0
26.0,-1.0,22.0,71.0,4.0,-4.0,0.0,-3.0,1651072239528884.0
-3.0,12.0,-56.0,-67.0,-21.0,-6.0,-1.0,-1.0,1651072239545453.0
19.0,-17.0,-5.0,-11.0,-9.0,-5.0,-1.0,2.0,1651072239545453.0
-25.0,4.0,14.0,12.0,-4.0,0.0,3.0,5.0,1651072239547408.0
20.0,-9.0,-2.0,3.0,16.0,8.0,4.0,7.0,1651072239547408.0
6.0,-13.0,-3.0,11.0,-3.0,-7.0,-7.0,-16.0,1651072239567627.0
-40.0,0.0,-3.0,8.0,-16.0,-9.0,-5.0,-3.0,1651072239567627.0
-15.0,-15.0,-15.0,3.0,-5.0,-4.0,-5.0,-2.0,1651072239569562.0
-3.0,-4.0,-22.0,7.0,11.0,3.0,4.0,3.0,1651072239569562.0
46.0,7.0,46.0,0.0,-2.0,1.0,1.0,4.0,1651072239581530.0
6.0,-17.0,-25.0,-43.0,-15.0,-5.0,0.0,5.0,1651072239581530.0
-64.0,-9.0,30.0,52.0,2.0,-2.0,-4.0,-10.0,1651072239590506.0
-33.0,-12.0,-45.0,-49.0,-16.0,-9.0,-3.0,-2.0,1651072239590506.0
-2.0,7.0,15.0,7.0,18.0,9.0,2.0,1.0,1651072239605353.0
46.0,16.0,7.0,6.0,-6.0,2.0,3.0,3.0,1651072239605353.0
-14.0,-17.0,10.0,25.0,-1.0,-4.0,-5.0,-10.0,1651072239607371.0
24.0,16.0,-7.0,22.0,8.0,0.0,-2.0,1.0,1651072239607371.0
-4.0,-29.0,-29.0,-63.0,-11.0,-4.0,0.0,5.0,1651072239630324.0
28.0,1.0,32.0,64.0,10.0,2.0,2.0,-1.0,1651072239630324.0
-12.0,-11.0,-19.0,-15.0,-10.0,-6.0,-2.0,1.0,1651072239631321.0
-40.0,0.0,-26.0,-75.0,-9.0,-2.0,-3.0,-8.0,1651072239631321.0
78.0,6.0,18.0,31.0,-11.0,-3.0,0.0,3.0,1651072239641329.0
-21.0,11.0,-8.0,-60.0,4.0,0.0,-1.0,1.0,1651072239641329.0
26.0,7.0,15.0,42.0,-1.0,-1.0,3.0,4.0,1651072239650317.0
-20.0,-5.0,-15.0,-33.0,1.0,0.0,-2.0,-1.0,1651072239650317.0
-3.0,7.0,30.0,46.0,14.0,7.0,5.0,0.0,1651072239665540.0
-15.0,-23.0,-39.0,-102.0,-11.0,-3.0,-1.0,-1.0,1651072239665540.0
6.0,0.0,5.0,62.0,-5.0,-5.0,-7.0,-15.0,1651072239667537.0
0.0,6.0,17.0,24.0,1.0,0.0,1.0,1.0,1651072239667537.0
-38.0,-7.0,-32.0,-36.0,-7.0,-2.0,-2.0,-6.0,1651072239687863.0
18.0,11.0,16.0,17.0,12.0,4.0,0.0,0.0,1651072239687863.0
-40.0,27.0,28.0,-23.0,1.0,-3.0,1.0,0.0,1651072239689837.0
-19.0,-71.0,-42.0,20.0,-13.0,-9.0,-7.0,-10.0,1651072239689837.0
-35.0,-1.0,-12.0,-43.0,-12.0,-3.0,-3.0,-2.0,1651072239701686.0
51.0,11.0,35.0,58.0,4.0,1.0,1.0,0.0,1651072239701686.0
-19.0,-5.0,-36.0,-40.0,6.0,3.0,0.0,2.0,1651072239710292.0
29.0,16.0,47.0,20.0,7.0,7.0,3.0,12.0,1651072239710292.0
-55.0,-3.0,14.0,57.0,-2.0,-8.0,-9.0,-18.0,1651072239725378.0
-10.0,-10.0,-35.0,-43.0,-9.0,-1.0,-3.0,-3.0,1651072239725378.0
32.0,1.0,3.0,1.0,4.0,4.0,3.0,15.0,1651072239727276.0
-3.0,21.0,3.0,12.0,8.0,2.0,0.0,-13.0,1651072239727276.0
-3.0,12.0,1.0,4.0,3.0,2.0,2.0,5.0,1651072239748320.0
-24.0,10.0,26.0,27.0,-1.0,-1.0,1.0,2.0,1651072239748320.0
51.0,2.0,-13.0,-25.0,-5.0,1.0,1.0,2.0,1651072239749304.0
6.0,9.0,-18.0,25.0,3.0,-3.0,-1.0,-1.0,1651072239749304.0
9.0,3.0,25.0,13.0,-2.0,-5.0,-1.0,3.0,1651072239761276.0
-22.0,1.0,-3.0,-21.0,-12.0,-7.0,-4.0,-10.0,1651072239761276.0
0.0,-11.0,-13.0,-12.0,6.0,7.0,0.0,-1.0,1651072239770252.0
-28.0,0.0,6.0,19.0,3.0,4.0,2.0,1.0,1651072239770252.0
-7.0,29.0,-7.0,2.0,17.0,7.0,3.0,-2.0,1651072239785394.0
-41.0,0.0,18.0,4.0,-7.0,-5.0,1.0,5.0,1651072239785394.0
-18.0,-26.0,0.0,-27.0,-6.0,-5.0,0.0,-3.0,1651072239791340.0
8.0,10.0,-35.0,-78.0,-9.0,0.0,1.0,0.0,1651072239791340.0
45.0,6.0,-5.0,61.0,15.0,4.0,0.0,-1.0,1651072239807448.0
26.0,-3.0,27.0,22.0,8.0,-1.0,0.0,7.0,1651072239807448.0
-6.0,14.0,-15.0,-3.0,-7.0,-1.0,0.0,3.0,1651072239809405.0
1.0,7.0,9.0,-46.0,-7.0,-1.0,1.0,1.0,1651072239809405.0
42.0,-2.0,-17.0,-25.0,-16.0,-7.0,-3.0,3.0,1651072239821481.0
-15.0,-10.0,-5.0,3.0,10.0,6.0,1.0,-2.0,1651072239821481.0
-44.0,1.0,10.0,16.0,3.0,-2.0,-1.0,-2.0,1651072239830342.0
28.0,-7.0,11.0,26.0,4.0,4.0,5.0,7.0,1651072239830342.0
-19.0,0.0,13.0,-56.0,0.0,2.0,2.0,2.0,1651072239845519.0
-5.0,10.0,27.0,63.0,2.0,-3.0,-6.0,-6.0,1651072239845519.0
41.0,1.0,-3.0,4.0,6.0,3.0,2.0,4.0,1651072239847441.0
-35.0,-13.0,-16.0,5.0,-8.0,-3.0,-3.0,-7.0,1651072239847441.0
-18.0,-8.0,-6.0,-21.0,-3.0,3.0,2.0,2.0,1651072239867697.0
8.0,-7.0,-24.0,10.0,10.0,5.0,1.0,0.0,1651072239867697.0
-40.0,-2.0,45.0,22.0,-9.0,-5.0,-4.0,-9.0,1651072239869692.0
-23.0,-17.0,-40.0,-15.0,-3.0,-2.0,-2.0,4.0,1651072239869692.0
30.0,-7.0,-9.0,0.0,2.0,-3.0,-1.0,1.0,1651072239881746.0
14.0,18.0,3.0,-59.0,-8.0,2.0,2.0,1.0,1651072239881746.0
14.0,-15.0,-21.0,44.0,-7.0,-9.0,-7.0,4.0,1651072239890717.0
-6.0,38.0,61.0,61.0,19.0,9.0,4.0,-6.0,1651072239890717.0
-27.0,-13.0,-25.0,-17.0,-8.0,-5.0,-1.0,-3.0,1651072239905994.0
3.0,-2.0,-10.0,-32.0,-8.0,0.0,1.0,4.0,1651072239905994.0
-7.0,7.0,-1.0,-30.0,1.0,4.0,3.0,-1.0,1651072239906784.0
-26.0,6.0,0.0,-28.0,-2.0,-3.0,-4.0,-2.0,1651072239906784.0
-6.0,-12.0,-4.0,7.0,-2.0,-2.0,-2.0,-1.0,1651072239928432.0
-11.0,-2.0,-7.0,-27.0,-8.0,-2.0,1.0,-5.0,1651072239928432.0
59.0,5.0,13.0,41.0,11.0,5.0,4.0,-1.0,1651072239929354.0
-21.0,-6.0,-8.0,-14.0,2.0,-4.0,0.0,10.0,1651072239929354.0
15.0,9.0,29.0,25.0,-1.0,1.0,2.0,1.0,1651072239941393.0
15.0,-14.0,-37.0,10.0,-10.0,-5.0,-3.0,-1.0,1651072239941393.0
-24.0,4.0,-22.0,-36.0,0.0,-1.0,-2.0,-5.0,1651072239950374.0
42.0,0.0,-3.0,-14.0,3.0,2.0,0.0,-2.0,1651072239950374.0
-7.0,-17.0,8.0,-9.0,-13.0,-4.0,-3.0,2.0,1651072239965418.0
10.0,12.0,11.0,6.0,-3.0,-1.0,-2.0,3.0,1651072239965418.0
-7.0,-20.0,-10.0,6.0,-1.0,2.0,2.0,-3.0,1651072239967247.0
33.0,7.0,4.0,23.0,2.0,-2.0,1.0,-3.0,1651072239967247.0
-38.0,11.0,3.0,-15.0,2.0,0.0,-4.0,-5.0,1651072239988377.0
24.0,1.0,7.0,-1.0,0.0,-1.0,-1.0,-3.0,1651072239988377.0
-22.0,0.0,-14.0,12.0,-1.0,-3.0,-3.0,-3.0,1651072239989308.0
40.0,-3.0,6.0,-28.0,-10.0,-1.0,4.0,9.0,1651072239989308.0
-15.0,-1.0,-8.0,15.0,3.0,1.0,-1.0,-11.0,1651072240001689.0
13.0,-5.0,9.0,16.0,4.0,1.0,2.0,2.0,1651072240001689.0
-78.0,-5.0,-3.0,-37.0,-7.0,-3.0,-3.0,-3.0,1651072240010314.0
38.0,5.0,27.0,20.0,-5.0,-2.0,-2.0,-8.0,1651072240010314.0
16.0,-11.0,-21.0,-2.0,5.0,4.0,4.0,6.0,1651072240025554.0
-8.0,29.0,-12.0,-25.0,0.0,-1.0,-1.0,-2.0,1651072240025554.0
38.0,-14.0,9.0,33.0,-1.0,-1.0,0.0,-2.0,1651072240027428.0
-19.0,-3.0,-12.0,-39.0,-8.0,-2.0,-3.0,-4.0,1651072240027428.0
-28.0,5.0,-9.0,41.0,9.0,-2.0,0.0,5.0,1651072240048451.0
-39.0,-8.0,-6.0,-16.0,6.0,1.0,-1.0,-4.0,1651072240048451.0
-6.0,2.0,0.0,-23.0,-4.0,3.0,0.0,1.0,1651072240049369.0
0.0,-11.0,2.0,5.0,-9.0,-3.0,-2.0,-1.0,1651072240049369.0
1.0,-15.0,-29.0,0.0,14.0,5.0,0.0,1.0,1651072240070729.0
13.0,1.0,23.0,46.0,-6.0,-3.0,0.0,3.0,1651072240070729.0
-15.0,20.0,-3.0,-30.0,-1.0,-1.0,-1.0,-8.0,1651072240071660.0
-59.0,-18.0,-8.0,29.0,-3.0,-1.0,-3.0,-3.0,1651072240071660.0
-8.0,-7.0,-7.0,-35.0,-6.0,-2.0,0.0,5.0,1651072240085918.0
3.0,-5.0,9.0,26.0,11.0,3.0,-1.0,-4.0,1651072240085918.0
-60.0,-6.0,7.0,16.0,4.0,-1.0,-2.0,-3.0,1651072240086709.0
4.0,7.0,-27.0,-18.0,-4.0,1.0,0.0,5.0,1651072240086709.0
8.0,9.0,-6.0,-11.0,-6.0,-5.0,-4.0,-3.0,1651072240108440.0
-1.0,-3.0,8.0,-1.0,7.0,4.0,1.0,2.0,1651072240108440.0
37.0,18.0,16.0,16.0,1.0,2.0,2.0,4.0,1651072240109437.0
1.0,-5.0,-16.0,-15.0,-13.0,-7.0,-4.0,-1.0,1651072240109437.0
14.0,15.0,15.0,-10.0,-5.0,0.0,2.0,5.0,1651072240130577.0
-8.0,-15.0,-6.0,18.0,7.0,2.0,1.0,-3.0,1651072240130577.0
5.0,14.0,37.0,-5.0,6.0,1.0,-1.0,-2.0,1651072240131569.0
-26.0,13.0,10.0,29.0,8.0,4.0,2.0,0.0,1651072240131569.0
1.0,-16.0,-22.0,-19.0,-8.0,-5.0,-4.0,-12.0,1651072240144974.0
-21.0,-32.0,-17.0,-27.0,-11.0,-3.0,-5.0,-4.0,1651072240144974.0
-32.0,-4.0,-3.0,24.0,11.0,1.0,1.0,6.0,1651072240153288.0
-6.0,-5.0,-27.0,-48.0,-10.0,1.0,-1.0,-1.0,1651072240153288.0
-12.0,5.0,25.0,32.0,-2.0,2.0,1.0,2.0,1651072240168485.0
1.0,-4.0,6.0,11.0,4.0,-1.0,-3.0,1.0,1651072240168485.0
20.0,2.0,-6.0,10.0,-9.0,-3.0,0.0,2.0,1651072240169454.0
-19.0,1.0,-6.0,-44.0,1.0,-6.0,-3.0,-7.0,1651072240169454.0
69.0,-19.0,13.0,22.0,10.0,4.0,5.0,7.0,1651072240190498.0
-1.0,3.0,-45.0,-48.0,-11.0,-3.0,0.0,-4.0,1651072240190498.0
10.0,14.0,17.0,32.0,-2.0,-5.0,-4.0,1.0,1651072240192502.0
29.0,-1.0,21.0,22.0,-3.0,0.0,2.0,4.0,1651072240192502.0
5.0,2.0,-2.0,-12.0,-2.0,0.0,-3.0,-4.0,1651072240204531.0
-2.0,2.0,-18.0,-22.0,-2.0,-1.0,-1.0,-3.0,1651072240204531.0
-36.0,3.0,-27.0,-30.0,1.0,4.0,3.0,-1.0,1651072240211655.0
47.0,-1.0,7.0,9.0,6.0,0.0,2.0,5.0,1651072240211655.0
35.0,-5.0,13.0,4.0,-9.0,-2.0,-3.0,2.0,1651072240227670.0
-17.0,31.0,51.0,75.0,14.0,6.0,5.0,3.0,1651072240227670.0
22.0,-30.0,-24.0,-49.0,-7.0,-3.0,-1.0,-1.0,1651072240229598.0
-22.0,-15.0,-30.0,2.0,2.0,-2.0,0.0,-5.0,1651072240229598.0
29.0,15.0,6.0,11.0,2.0,0.0,0.0,4.0,1651072240250899.0
-9.0,-10.0,-16.0,-17.0,-10.0,-1.0,-2.0,-3.0,1651072240250899.0
33.0,-12.0,22.0,34.0,8.0,2.0,-1.0,-2.0,1651072240251647.0
-10.0,-2.0,2.0,-2.0,2.0,1.0,-2.0,4.0,1651072240251647.0
2.0,8.0,-14.0,-23.0,-5.0,0.0,2.0,2.0,1651072240264745.0
50.0,15.0,30.0,19.0,3.0,0.0,-2.0,0.0,1651072240264745.0
6.0,-5.0,-19.0,-16.0,-14.0,-7.0,-3.0,-1.0,1651072240271378.0
34.0,5.0,27.0,11.0,16.0,3.0,0.0,2.0,1651072240271378.0
-68.0,-6.0,-18.0,-27.0,6.0,-1.0,-3.0,-2.0,1651072240288070.0
24.0,20.0,-12.0,-14.0,-2.0,3.0,2.0,1.0,1651072240288070.0
5.0,4.0,7.0,-2.0,2.0,3.0,0.0,5.0,1651072240290025.0
27.0,10.0,-1.0,5.0,-13.0,-4.0,-2.0,-4.0,1651072240290025.0
-19.0,1.0,21.0,19.0,6.0,2.0,0.0,-3.0,1651072240310165.0
-12.0,-25.0,-22.0,-11.0,4.0,-1.0,2.0,2.0,1651072240310165.0
8.0,5.0,12.0,4.0,4.0,0.0,1.0,6.0,1651072240312093.0
-3.0,2.0,-12.0,7.0,4.0,3.0,2.0,3.0,1651072240312093.0
-18.0,3.0,-5.0,-8.0,-5.0,-2.0,1.0,-1.0,1651072240325169.0
13.0,-19.0,2.0,-13.0,-14.0,-7.0,-2.0,5.0,1651072240325169.0
12.0,5.0,-10.0,18.0,-5.0,-4.0,-3.0,-7.0,1651072240331196.0
-17.0,14.0,9.0,-27.0,-6.0,3.0,2.0,2.0,1651072240331196.0
-4.0,-5.0,-9.0,8.0,7.0,-2.0,-3.0,-2.0,1651072240348357.0
12.0,4.0,-11.0,9.0,7.0,2.0,0.0,-2.0,1651072240348357.0
23.0,-7.0,-15.0,-35.0,-14.0,-4.0,0.0,5.0,1651072240349365.0
34.0,-9.0,20.0,9.0,-4.0,1.0,-1.0,-1.0,1651072240349365.0
-4.0,7.0,0.0,6.0,-2.0,-1.0,-1.0,-5.0,1651072240370301.0
-33.0,-3.0,-8.0,2.0,4.0,2.0,0.0,2.0,1651072240370301.0
-14.0,7.0,8.0,-5.0,0.0,2.0,1.0,-3.0,1651072240372256.0
21.0,1.0,-16.0,19.0,13.0,1.0,1.0,-4.0,1651072240372256.0
19.0,-14.0,31.0,-21.0,-28.0,-11.0,-6.0,-6.0,1651072240385314.0
5.0,2.0,-58.0,-1.0,8.0,0.0,0.0,6.0,1651072240385314.0
-41.0,-4.0,-15.0,-6.0,-14.0,-6.0,-5.0,-16.0,1651072240391367.0
3.0,2.0,10.0,6.0,12.0,3.0,2.0,6.0,1651072240391367.0
-24.0,10.0,26.0,4.0,13.0,8.0,3.0,2.0,1651072240408322.0
-19.0,0.0,-2.0,-6.0,-11.0,-7.0,-4.0,-7.0,1651072240408322.0
8.0,5.0,11.0,17.0,12.0,3.0,1.0,1.0,1651072240409260.0
-12.0,-18.0,-9.0,-8.0,-9.0,-7.0,-3.0,-3.0,1651072240409260.0
-29.0,-5.0,-16.0,14.0,10.0,2.0,2.0,-1.0,1651072240438241.0
19.0,1.0,14.0,-27.0,-13.0,-2.0,2.0,3.0,1651072240438241.0
11.0,1.0,-25.0,-19.0,2.0,-1.0,-1.0,2.0,1651072240439193.0
-20.0,3.0,43.0,45.0,1.0,-2.0,-3.0,-5.0,1651072240439193.0
-9.0,-14.0,-16.0,9.0,-2.0,0.0,0.0,1.0,1651072240444186.0
5.0,1.0,-7.0,-6.0,1.0,-1.0,-2.0,-4.0,1651072240444186.0
59.0,2.0,10.0,-14.0,10.0,5.0,0.0,3.0,1651072240461114.0
-61.0,-13.0,1.0,-3.0,-9.0,-2.0,-1.0,-3.0,1651072240461114.0
34.0,11.0,32.0,49.0,11.0,2.0,-3.0,3.0,1651072240468161.0
-8.0,-20.0,3.0,-23.0,-10.0,-2.0,1.0,4.0,1651072240468161.0
-13.0,-13.0,-25.0,-16.0,-7.0,-7.0,-5.0,-4.0,1651072240469121.0
1.0,8.0,-3.0,35.0,13.0,3.0,2.0,-2.0,1651072240469121.0
20.0,3.0,2.0,-17.0,-5.0,-1.0,0.0,0.0,1651072240490898.0
41.0,-2.0,18.0,7.0,1.0,1.0,2.0,10.0,1651072240490898.0
-15.0,-1.0,-13.0,-17.0,-9.0,-1.0,-1.0,-1.0,1651072240492161.0
-7.0,-9.0,-11.0,-23.0,-4.0,-2.0,-3.0,-1.0,1651072240492161.0
-21.0,-5.0,-11.0,-2.0,-5.0,-4.0,-3.0,-3.0,1651072240513349.0
-5.0,0.0,12.0,17.0,5.0,2.0,-2.0,2.0,1651072240513349.0
-2.0,5.0,16.0,8.0,4.0,3.0,0.0,1.0,1651072240514351.0
0.0,-5.0,-27.0,-19.0,-9.0,-1.0,-1.0,1.0,1651072240514351.0
4.0,16.0,-3.0,-20.0,3.0,4.0,4.0,4.0,1651072240528411.0
1.0,-17.0,2.0,2.0,-9.0,-9.0,-6.0,-9.0,1651072240528411.0
-14.0,7.0,1.0,27.0,6.0,1.0,0.0,2.0,1651072240529350.0
-6.0,1.0,-1.0,-19.0,-2.0,1.0,0.0,-4.0,1651072240529350.0
6.0,3.0,9.0,1.0,6.0,0.0,0.0,1.0,1651072240550862.0
-10.0,0.0,-5.0,-1.0,-2.0,1.0,-2.0,-4.0,1651072240550862.0
-4.0,-4.0,1.0,-2.0,-4.0,-3.0,1.0,2.0,1651072240551792.0
2.0,-4.0,-8.0,-4.0,-4.0,-4.0,-4.0,-3.0,1651072240551792.0
0.0,4.0,-4.0,-4.0,-6.0,2.0,1.0,1.0,1651072240563827.0
-18.0,12.0,12.0,9.0,2.0,1.0,-1.0,-3.0,1651072240563827.0
0.0,-11.0,-2.0,16.0,4.0,0.0,-1.0,1.0,1651072240573549.0
-3.0,6.0,3.0,6.0,16.0,4.0,1.0,0.0,1651072240573549.0
-10.0,-12.0,2.0,17.0,-11.0,-4.0,-2.0,-4.0,1651072240587581.0
-16.0,10.0,-4.0,-9.0,-2.0,-4.0,-3.0,-6.0,1651072240587581.0
19.0,-2.0,-8.0,-14.0,-3.0,2.0,-1.0,3.0,1651072240589509.0
2.0,-1.0,3.0,-1.0,-1.0,-3.0,-1.0,-2.0,1651072240589509.0
-8.0,-2.0,-6.0,3.0,1.0,2.0,0.0,-3.0,1651072240610900.0
0.0,5.0,8.0,-8.0,0.0,1.0,0.0,-1.0,1651072240610900.0
-2.0,1.0,0.0,12.0,2.0,-2.0,0.0,2.0,1651072240611614.0
-8.0,1.0,-2.0,3.0,-2.0,-2.0,-1.0,-3.0,1651072240611614.0
2.0,-6.0,0.0,-6.0,1.0,-3.0,-2.0,0.0,1651072240624617.0
-6.0,4.0,-4.0,-3.0,-2.0,0.0,1.0,-1.0,1651072240624617.0
-6.0,2.0,6.0,0.0,-1.0,-5.0,1.0,-2.0,1651072240633569.0
-1.0,-1.0,0.0,4.0,-7.0,7.0,1.0,1.0,1651072240633569.0
-2.0,-2.0,-9.0,-10.0,-3.0,-7.0,0.0,-1.0,1651072240647744.0
-4.0,-1.0,5.0,8.0,8.0,9.0,2.0,-1.0,1651072240647744.0
-5.0,-2.0,0.0,3.0,-4.0,0.0,0.0,-2.0,1651072240649697.0
3.0,-2.0,-3.0,-6.0,-2.0,-1.0,-2.0,0.0,1651072240649697.0
2.0,2.0,-3.0,3.0,-2.0,-7.0,0.0,-1.0,1651072240670923.0
-6.0,0.0,2.0,-1.0,-7.0,0.0,-13.0,-2.0,1651072240670923.0
-1.0,-2.0,1.0,-3.0,4.0,5.0,17.0,2.0,1651072240671613.0
-2.0,-2.0,-1.0,-7.0,-4.0,-4.0,-5.0,0.0,1651072240671613.0
-2.0,-1.0,2.0,0.0,5.0,6.0,-2.0,-1.0,1651072240684624.0
-4.0,-3.0,1.0,8.0,3.0,4.0,6.0,1.0,1651072240684624.0
-2.0,-1.0,-4.0,-7.0,-2.0,6.0,-4.0,-1.0,1651072240693407.0
-2.0,-1.0,1.0,-2.0,-7.0,-11.0,0.0,-4.0,1651072240693407.0
-2.0,3.0,0.0,-2.0,3.0,0.0,-1.0,2.0,1651072240708250.0
-1.0,-7.0,-1.0,-2.0,0.0,-5.0,1.0,1.0,1651072240708250.0
-3.0,-3.0,-1.0,1.0,-12.0,-8.0,-6.0,-3.0,1651072240709181.0
1.0,1.0,-1.0,2.0,33.0,16.0,6.0,0.0,1651072240709181.0
1.0,0.0,-1.0,1.0,-13.0,-8.0,-4.0,-2.0,1651072240730873.0
-1.0,0.0,-3.0,-6.0,-1.0,-1.0,2.0,0.0,1651072240730873.0
2.0,0.0,1.0,0.0,6.0,0.0,0.0,2.0,1651072240731642.0
-2.0,0.0,1.0,1.0,-22.0,-13.0,-4.0,0.0,1651072240731642.0
-4.0,-3.0,-4.0,0.0,30.0,16.0,7.0,-1.0,1651072240753379.0
0.0,-2.0,2.0,2.0,-4.0,-4.0,-1.0,-2.0,1651072240753379.0
-1.0,0.0,0.0,-4.0,-11.0,-7.0,-4.0,0.0,1651072240754361.0
0.0,0.0,1.0,-1.0,-1.0,0.0,-2.0,-1.0,1651072240754361.0
-2.0,1.0,-1.0,6.0,-3.0,-6.0,0.0,0.0,1651072240768391.0
-5.0,0.0,1.0,-7.0,-8.0,-2.0,-2.0,-2.0,1651072240768391.0
2.0,1.0,0.0,5.0,14.0,7.0,-1.0,0.0,1651072240769322.0
-3.0,-2.0,-3.0,-4.0,0.0,1.0,2.0,1.0,1651072240769322.0
0.0,-6.0,-2.0,-3.0,-6.0,0.0,0.0,-1.0,1651072240791406.0
-3.0,1.0,-1.0,-1.0,-2.0,-9.0,-3.0,-2.0,1651072240791406.0
-3.0,-1.0,-2.0,-2.0,-3.0,-3.0,-3.0,-1.0,1651072240792406.0
0.0,0.0,2.0,7.0,-5.0,0.0,1.0,1.0,1651072240792406.0
0.0,-1.0,-1.0,-2.0,-5.0,-2.0,-3.0,-1.0,1651072240804443.0
2.0,2.0,0.0,3.0,3.0,1.0,2.0,-1.0,1651072240804443.0
0.0,-4.0,0.0,-4.0,2.0,0.0,-1.0,-3.0,1651072240813488.0
-3.0,-3.0,-3.0,-1.0,-4.0,-4.0,0.0,-1.0,1651072240813488.0
0.0,0.0,-3.0,-2.0,-6.0,1.0,-1.0,0.0,1651072240828467.0
-2.0,1.0,-2.0,1.0,-3.0,-2.0,-1.0,0.0,1651072240828467.0
-2.0,0.0,1.0,2.0,10.0,5.0,3.0,0.0,1651072240829431.0
-3.0,-2.0,-1.0,-1.0,0.0,0.0,-2.0,-1.0,1651072240829431.0
-2.0,0.0,2.0,-1.0,-3.0,0.0,0.0,-1.0,1651072240850890.0
-1.0,1.0,2.0,0.0,-6.0,0.0,1.0,-2.0,1651072240850890.0
-2.0,2.0,-1.0,0.0,4.0,-3.0,-3.0,0.0,1651072240851613.0
0.0,-1.0,3.0,6.0,3.0,0.0,-1.0,-2.0,1651072240851613.0
0.0,-2.0,-3.0,-13.0,-5.0,0.0,3.0,3.0,1651072240864568.0
0.0,2.0,0.0,2.0,-3.0,-3.0,2.0,-1.0,1651072240864568.0
1.0,-1.0,3.0,-3.0,7.0,5.0,1.0,-1.0,1651072240872783.0
0.0,2.0,-4.0,-2.0,-5.0,-1.0,0.0,0.0,1651072240872783.0
0.0,-2.0,3.0,2.0,-2.0,-1.0,-2.0,-2.0,1651072240887728.0
-3.0,-9.0,-2.0,2.0,-2.0,-3.0,-1.0,1.0,1651072240887728.0
-1.0,4.0,-5.0,-8.0,-11.0,-1.0,-2.0,0.0,1651072240889680.0
0.0,-3.0,0.0,5.0,13.0,3.0,3.0,-1.0,1651072240889680.0
0.0,4.0,2.0,1.0,-4.0,1.0,-1.0,-1.0,1651072240910590.0
0.0,0.0,1.0,1.0,3.0,1.0,-1.0,-1.0,1651072240910590.0
-1.0,-4.0,-2.0,-2.0,-3.0,0.0,0.0,-2.0,1651072240911619.0
0.0,0.0,-3.0,-10.0,-6.0,-2.0,-1.0,1.0,1651072240911619.0
1.0,1.0,1.0,12.0,0.0,-5.0,0.0,-1.0,1651072240924605.0
-1.0,-4.0,-5.0,-3.0,3.0,0.0,2.0,0.0,1651072240924605.0
-1.0,-1.0,0.0,2.0,0.0,-1.0,0.0,-1.0,1651072240933532.0
-2.0,-1.0,-1.0,-4.0,-6.0,-2.0,-1.0,-2.0,1651072240933532.0
0.0,-2.0,-3.0,-8.0,-4.0,0.0,-2.0,-1.0,1651072240947917.0
1.0,1.0,-3.0,2.0,9.0,2.0,-1.0,1.0,1651072240947917.0
0.0,-2.0,0.0,1.0,-5.0,-3.0,-1.0,0.0,1651072240949872.0
0.0,-1.0,5.0,1.0,-5.0,0.0,1.0,-1.0,1651072240949872.0
-1.0,-1.0,-2.0,-1.0,8.0,2.0,0.0,0.0,1651072240970665.0
0.0,-1.0,0.0,-1.0,-4.0,1.0,-2.0,0.0,1651072240970665.0
1.0,-2.0,-2.0,-2.0,-5.0,-5.0,-3.0,1.0,1651072240971662.0
0.0,-1.0,-2.0,2.0,2.0,3.0,-1.0,0.0,1651072240971662.0
0.0,1.0,1.0,2.0,5.0,1.0,0.0,0.0,1651072240992974.0
0.0,2.0,0.0,0.0,-2.0,-2.0,0.0,0.0,1651072240992974.0
-1.0,-1.0,-1.0,0.0,-2.0,1.0,0.0,-1.0,1651072240994721.0
0.0,0.0,-1.0,-2.0,-3.0,-2.0,-1.0,0.0,1651072240994721.0
0.0,-3.0,0.0,0.0,-5.0,-2.0,-1.0,-1.0,1651072241007752.0
0.0,-1.0,-2.0,0.0,4.0,1.0,-1.0,-3.0,1651072241007752.0
0.0,-2.0,0.0,-2.0,0.0,0.0,1.0,1.0,1651072241009680.0
0.0,1.0,0.0,-2.0,-3.0,-2.0,-1.0,0.0,1651072241009680.0
-1.0,-2.0,-6.0,-4.0,-6.0,-2.0,-2.0,-2.0,1651072241030698.0
0.0,1.0,3.0,1.0,8.0,5.0,1.0,1.0,1651072241030698.0
0.0,-1.0,-1.0,4.0,0.0,0.0,2.0,0.0,1651072241031711.0
-2.0,-2.0,2.0,0.0,0.0,-1.0,-2.0,-1.0,1651072241031711.0
-1.0,-1.0,0.0,-1.0,1.0,-1.0,-1.0,-2.0,1651072241052736.0
1.0,-1.0,-2.0,-1.0,-4.0,-1.0,-2.0,0.0,1651072241052736.0
1.0,1.0,1.0,-2.0,0.0,-1.0,0.0,-2.0,1651072241054689.0
1.0,-1.0,-2.0,0.0,2.0,0.0,0.0,-1.0,1651072241054689.0
-1.0,0.0,-1.0,0.0,-1.0,0.0,-1.0,1.0,1651072241067697.0
-2.0,-2.0,-1.0,-2.0,-3.0,-2.0,0.0,-2.0,1651072241067697.0
-2.0,-2.0,-4.0,-10.0,-3.0,0.0,0.0,-1.0,1651072241069623.0
0.0,-1.0,-2.0,1.0,-6.0,-2.0,-1.0,1.0,1651072241069623.0
0.0,3.0,5.0,16.0,17.0,5.0,1.0,-1.0,1651072241090915.0
0.0,-3.0,1.0,-3.0,-2.0,0.0,-1.0,-1.0,1651072241090915.0
-2.0,-1.0,-1.0,3.0,6.0,-2.0,-3.0,0.0,1651072241091916.0
-1.0,-1.0,-4.0,-9.0,-5.0,-2.0,-3.0,1.0,1651072241091916.0
0.0,-2.0,-3.0,-8.0,-8.0,-1.0,0.0,0.0,1651072241113186.0
0.0,1.0,-1.0,0.0,0.0,-2.0,1.0,0.0,1651072241113186.0
-1.0,-3.0,1.0,0.0,-7.0,-1.0,-1.0,0.0,1651072241114823.0
-2.0,-2.0,1.0,0.0,3.0,0.0,-2.0,-1.0,1651072241114823.0
0.0,0.0,-2.0,-4.0,-3.0,-5.0,-4.0,-1.0,1651072241127856.0
1.0,-1.0,2.0,2.0,7.0,4.0,1.0,0.0,1651072241127856.0
1.0,0.0,-3.0,-1.0,3.0,4.0,1.0,-1.0,1651072241129810.0
1.0,-1.0,-5.0,-6.0,-1.0,0.0,-2.0,-2.0,1651072241129810.0
0.0,-1.0,8.0,26.0,4.0,-1.0,-1.0,-2.0,1651072241150546.0
-1.0,0.0,-2.0,-5.0,-5.0,-4.0,-2.0,-1.0,1651072241150546.0
0.0,0.0,0.0,0.0,-1.0,-1.0,1.0,1.0,1651072241151545.0
-1.0,1.0,-2.0,-3.0,0.0,1.0,-1.0,-1.0,1651072241151545.0
-2.0,-1.0,-6.0,-13.0,-4.0,-2.0,0.0,-1.0,1651072241180759.0
1.0,0.0,-1.0,3.0,-2.0,-2.0,1.0,0.0,1651072241180759.0
-3.0,-1.0,1.0,1.0,1.0,0.0,-1.0,-2.0,1651072241181771.0
0.0,-2.0,-3.0,-1.0,2.0,-1.0,0.0,0.0,1651072241181771.0
0.0,-2.0,-4.0,-7.0,0.0,5.0,1.0,0.0,1651072241187767.0
-1.0,1.0,0.0,2.0,-2.0,-2.0,-1.0,-1.0,1651072241187767.0
1.0,1.0,0.0,-4.0,-1.0,0.0,-2.0,0.0,1651072241193726.0
1.0,0.0,-1.0,1.0,-1.0,0.0,0.0,-1.0,1651072241193726.0
-1.0,1.0,-2.0,0.0,-4.0,0.0,-2.0,1.0,1651072241211051.0
-2.0,2.0,-2.0,0.0,3.0,-4.0,-1.0,0.0,1651072241211051.0
-1.0,-2.0,-2.0,-2.0,2.0,0.0,0.0,-1.0,1651072241212048.0
0.0,0.0,7.0,14.0,3.0,0.0,-1.0,-1.0,1651072241212048.0
-1.0,-2.0,-2.0,-2.0,7.0,4.0,1.0,-1.0,1651072241232765.0
1.0,1.0,2.0,-4.0,-6.0,1.0,-1.0,0.0,1651072241232765.0
1.0,-2.0,-2.0,-1.0,-7.0,-3.0,-1.0,0.0,1651072241234693.0
0.0,-1.0,-3.0,-3.0,-3.0,-3.0,0.0,-1.0,1651072241234693.0
0.0,0.0,-3.0,-15.0,-13.0,-4.0,-1.0,-2.0,1651072241247740.0
-1.0,-3.0,-2.0,12.0,7.0,4.0,1.0,-1.0,1651072241247740.0
0.0,1.0,-2.0,0.0,2.0,3.0,-1.0,1.0,1651072241254680.0
0.0,1.0,1.0,-2.0,0.0,0.0,-1.0,1.0,1651072241254680.0
-1.0,-6.0,1.0,-1.0,0.0,-3.0,-1.0,0.0,1651072241270919.0
-1.0,0.0,-2.0,-7.0,-2.0,-1.0,-1.0,-1.0,1651072241270919.0
-1.0,1.0,1.0,1.0,1.0,-1.0,-2.0,-1.0,1651072241271945.0
-1.0,-2.0,-1.0,1.0,-1.0,0.0,0.0,-2.0,1651072241271945.0
-1.0,1.0,1.0,-3.0,-4.0,-3.0,-2.0,-2.0,1651072241293183.0
1.0,-2.0,-2.0,0.0,5.0,4.0,1.0,2.0,1651072241293183.0
1.0,-2.0,-2.0,1.0,-4.0,-6.0,0.0,-2.0,1651072241295016.0
0.0,1.0,3.0,9.0,20.0,8.0,-2.0,0.0,1651072241295016.0
-2.0,-2.0,-2.0,-1.0,-3.0,-1.0,-1.0,2.0,1651072241307050.0
-2.0,-1.0,1.0,-2.0,-4.0,-2.0,-1.0,-1.0,1651072241307050.0
-1.0,1.0,-1.0,-3.0,-7.0,-3.0,-2.0,0.0,1651072241314031.0
-1.0,-2.0,-2.0,-6.0,-4.0,-4.0,-1.0,0.0,1651072241314031.0
-1.0,0.0,-3.0,1.0,4.0,1.0,-1.0,0.0,1651072241330729.0
-2.0,0.0,2.0,-1.0,-2.0,0.0,-2.0,0.0,1651072241330729.0
-2.0,1.0,0.0,0.0,-1.0,-2.0,-3.0,0.0,1651072241331661.0
-1.0,1.0,2.0,1.0,0.0,-1.0,0.0,-2.0,1651072241331661.0
0.0,0.0,0.0,-1.0,3.0,1.0,1.0,0.0,1651072241353260.0
-2.0,-1.0,-1.0,-1.0,-3.0,-2.0,-1.0,-2.0,1651072241353260.0
0.0,-1.0,1.0,2.0,2.0,1.0,-1.0,-1.0,1651072241354259.0
-1.0,-1.0,-2.0,-2.0,-5.0,-1.0,0.0,-1.0,1651072241354259.0
1.0,0.0,-2.0,0.0,-4.0,-2.0,0.0,0.0,1651072241367261.0
0.0,-1.0,-1.0,-2.0,1.0,1.0,1.0,0.0,1651072241367261.0
-1.0,-3.0,0.0,0.0,3.0,2.0,-1.0,0.0,1651072241375279.0
0.0,0.0,-1.0,-2.0,-2.0,-3.0,0.0,0.0,1651072241375279.0
-1.0,-1.0,-1.0,-2.0,-6.0,-3.0,0.0,-1.0,1651072241390897.0
-1.0,-1.0,-2.0,-2.0,-8.0,-3.0,0.0,-1.0,1651072241390897.0
-1.0,0.0,1.0,5.0,15.0,5.0,1.0,2.0,1651072241392278.0
-1.0,0.0,-4.0,-2.0,-3.0,0.0,3.0,0.0,1651072241392278.0
2.0,-1.0,0.0,-3.0,3.0,1.0,0.0,0.0,1651072241413314.0
1.0,-1.0,0.0,1.0,-4.0,-3.0,-2.0,-2.0,1651072241413314.0
-1.0,-1.0,2.0,1.0,-5.0,-2.0,-1.0,-1.0,1651072241414308.0
-2.0,0.0,-1.0,-2.0,-3.0,0.0,-2.0,1.0,1651072241414308.0
-3.0,-1.0,-2.0,0.0,1.0,0.0,-2.0,-1.0,1651072241427272.0
0.0,0.0,-3.0,-4.0,1.0,2.0,0.0,0.0,1651072241427272.0
1.0,-1.0,-1.0,-2.0,-3.0,-3.0,-2.0,-1.0,1651072241434321.0
-1.0,-1.0,3.0,-1.0,-2.0,-3.0,-4.0,-2.0,1651072241434321.0
1.0,0.0,-1.0,-1.0,-5.0,1.0,1.0,-1.0,1651072241450659.0
-1.0,-1.0,-1.0,2.0,10.0,1.0,-1.0,-1.0,1651072241450659.0
-1.0,1.0,0.0,2.0,14.0,6.0,1.0,0.0,1651072241451657.0
1.0,-1.0,-1.0,-1.0,-4.0,-2.0,2.0,1.0,1651072241451657.0
-1.0,-1.0,0.0,-3.0,-5.0,-2.0,-2.0,-2.0,1651072241472783.0
-1.0,-1.0,1.0,0.0,-3.0,1.0,-1.0,0.0,1651072241472783.0
-1.0,-1.0,1.0,-3.0,-6.0,-2.0,1.0,-1.0,1651072241474711.0
-2.0,0.0,0.0,-1.0,-2.0,1.0,-1.0,0.0,1651072241474711.0
-1.0,0.0,0.0,0.0,0.0,0.0,-1.0,-1.0,1651072241486745.0
1.0,0.0,-4.0,0.0,1.0,-2.0,-1.0,1.0,1651072241486745.0
0.0,0.0,-2.0,-3.0,-4.0,-1.0,-1.0,0.0,1651072241495663.0
-1.0,-2.0,3.0,3.0,7.0,7.0,1.0,0.0,1651072241495663.0
-1.0,-2.0,1.0,9.0,0.0,-2.0,1.0,0.0,1651072241510658.0
-1.0,0.0,-1.0,-4.0,-2.0,0.0,-1.0,-2.0,1651072241510658.0
1.0,-1.0,1.0,0.0,-7.0,-5.0,-2.0,-1.0,1651072241511624.0
1.0,0.0,-2.0,-2.0,-3.0,-3.0,-2.0,0.0,1651072241511624.0
-2.0,1.0,-2.0,-2.0,2.0,-2.0,0.0,1.0,1651072241532773.0
-2.0,0.0,0.0,-1.0,-1.0,-2.0,-1.0,-1.0,1651072241532773.0
-2.0,0.0,-2.0,-4.0,-5.0,-1.0,-1.0,0.0,1651072241534701.0
-2.0,-2.0,-2.0,0.0,0.0,-2.0,1.0,1.0,1651072241534701.0
1.0,0.0,0.0,1.0,4.0,3.0,-2.0,-2.0,1651072241546735.0
0.0,-2.0,1.0,-2.0,-6.0,-3.0,-1.0,2.0,1651072241546735.0
-1.0,-3.0,-1.0,0.0,-1.0,-2.0,-2.0,-2.0,1651072241555743.0
1.0,-2.0,0.0,-1.0,-1.0,-1.0,-1.0,-2.0,1651072241555743.0
0.0,-1.0,0.0,1.0,1.0,-2.0,0.0,-2.0,1651072241570901.0
0.0,-1.0,-2.0,1.0,3.0,-1.0,0.0,0.0,1651072241570901.0
-1.0,1.0,-4.0,-2.0,-5.0,1.0,0.0,-1.0,1651072241571807.0
0.0,0.0,0.0,2.0,8.0,-1.0,-1.0,0.0,1651072241571807.0
-3.0,0.0,0.0,-1.0,2.0,3.0,1.0,-1.0,1651072241593240.0
-1.0,0.0,1.0,1.0,-2.0,0.0,-2.0,-1.0,1651072241593240.0
-2.0,-1.0,-2.0,-1.0,-2.0,-2.0,1.0,0.0,1651072241594240.0
-1.0,0.0,-3.0,-4.0,-7.0,-4.0,0.0,-2.0,1651072241594240.0
2.0,0.0,-2.0,-5.0,-2.0,-1.0,2.0,0.0,1651072241606256.0
0.0,0.0,1.0,1.0,1.0,2.0,1.0,-1.0,1651072241606256.0
1.0,-2.0,0.0,-1.0,-1.0,-2.0,0.0,1.0,1651072241616166.0
0.0,-2.0,0.0,4.0,3.0,2.0,-2.0,-1.0,1651072241616166.0
1.0,-1.0,1.0,-1.0,-5.0,-2.0,-1.0,-1.0,1651072241630872.0
-1.0,-1.0,-3.0,-4.0,-1.0,4.0,0.0,-1.0,1651072241630872.0
-1.0,0.0,1.0,-2.0,-1.0,0.0,0.0,-3.0,1651072241631641.0
-2.0,0.0,-3.0,-3.0,-5.0,-3.0,0.0,-1.0,1651072241631641.0
-1.0,-1.0,-2.0,1.0,-6.0,0.0,-3.0,1.0,1651072241653245.0
1.0,0.0,-2.0,3.0,10.0,1.0,0.0,0.0,1651072241653245.0
1.0,-3.0,-3.0,2.0,2.0,2.0,-1.0,2.0,1651072241654243.0
0.0,0.0,-1.0,-3.0,-5.0,-3.0,0.0,0.0,1651072241654243.0
1.0,0.0,-1.0,-4.0,4.0,-2.0,2.0,-1.0,1651072241666330.0
-1.0,0.0,-1.0,-4.0,-5.0,-1.0,1.0,-1.0,1651072241666330.0
0.0,-1.0,0.0,2.0,0.0,0.0,-2.0,-1.0,1651072241675425.0
-1.0,0.0,-1.0,3.0,-2.0,0.0,0.0,1.0,1651072241675425.0
-1.0,-2.0,-3.0,-2.0,-3.0,-1.0,-1.0,0.0,1651072241690338.0
-1.0,-1.0,0.0,-1.0,0.0,-1.0,-1.0,-1.0,1651072241690338.0
-1.0,0.0,0.0,-3.0,2.0,-2.0,0.0,-1.0,1651072241692266.0
1.0,-2.0,0.0,-5.0,-5.0,-3.0,-2.0,-2.0,1651072241692266.0
-1.0,1.0,1.0,0.0,-3.0,-1.0,0.0,-1.0,1651072241712711.0
-2.0,0.0,0.0,2.0,4.0,-1.0,1.0,0.0,1651072241712711.0
0.0,-2.0,-1.0,3.0,6.0,6.0,1.0,0.0,1651072241714639.0
-1.0,-2.0,-1.0,0.0,2.0,0.0,1.0,-1.0,1651072241714639.0
0.0,-1.0,-1.0,-3.0,0.0,-2.0,-2.0,-1.0,1651072241726611.0
0.0,-1.0,1.0,2.0,-6.0,-3.0,-2.0,-2.0,1651072241726611.0
-3.0,-1.0,0.0,-2.0,-7.0,-6.0,-3.0,-2.0,1651072241735788.0
0.0,0.0,-1.0,2.0,1.0,1.0,0.0,0.0,1651072241735788.0
-1.0,0.0,0.0,-2.0,2.0,1.0,-2.0,0.0,1651072241750347.0
1.0,-3.0,-2.0,-3.0,-7.0,-3.0,-1.0,0.0,1651072241750347.0
0.0,-1.0,1.0,3.0,2.0,-2.0,-1.0,0.0,1651072241752288.0
1.0,0.0,-1.0,0.0,2.0,0.0,-1.0,0.0,1651072241752288.0
-1.0,-1.0,0.0,3.0,3.0,1.0,1.0,0.0,1651072241773137.0
0.0,1.0,3.0,2.0,5.0,5.0,2.0,0.0,1651072241773137.0
2.0,-1.0,-1.0,0.0,-4.0,0.0,1.0,-1.0,1651072241775063.0
1.0,-1.0,0.0,-4.0,-4.0,-3.0,-1.0,-2.0,1651072241775063.0
-1.0,-1.0,0.0,-1.0,-1.0,-1.0,-1.0,-1.0,1651072241786459.0
-1.0,-1.0,0.0,-2.0,2.0,-2.0,-1.0,-1.0,1651072241786459.0
-2.0,0.0,0.0,-1.0,-5.0,-2.0,0.0,-1.0,1651072241795298.0
-1.0,-2.0,-2.0,2.0,2.0,1.0,0.0,-1.0,1651072241795298.0
2.0,-1.0,0.0,-1.0,-3.0,2.0,0.0,-1.0,1651072241809528.0
-1.0,0.0,0.0,1.0,8.0,1.0,0.0,-1.0,1651072241809528.0
0.0,0.0,-2.0,-1.0,-2.0,0.0,-1.0,1.0,1651072241818435.0
-1.0,-1.0,1.0,0.0,3.0,-1.0,-1.0,1.0,1651072241818435.0
-2.0,-1.0,-1.0,1.0,-2.0,0.0,0.0,0.0,1651072241833173.0
-1.0,0.0,-3.0,-3.0,-6.0,-3.0,-1.0,0.0,1651072241833173.0
1.0,-1.0,-1.0,-2.0,-1.0,-2.0,-1.0,0.0,1651072241834131.0
0.0,1.0,1.0,3.0,0.0,1.0,-1.0,0.0,1651072241834131.0
0.0,-3.0,-4.0,-1.0,2.0,0.0,1.0,0.0,1651072241846466.0
0.0,0.0,0.0,-1.0,-9.0,-5.0,-3.0,-1.0,1651072241846466.0
0.0,0.0,-1.0,-1.0,9.0,3.0,1.0,0.0,1651072241855246.0
-1.0,1.0,1.0,-2.0,0.0,0.0,-2.0,1.0,1651072241855246.0
0.0,0.0,-1.0,0.0,0.0,-1.0,-2.0,0.0,1651072241870274.0
0.0,1.0,0.0,0.0,-2.0,0.0,-1.0,0.0,1651072241870274.0
-1.0,0.0,2.0,-2.0,-5.0,-2.0,-3.0,-3.0,1651072241872201.0
0.0,-1.0,-2.0,-2.0,0.0,0.0,0.0,-2.0,1651072241872201.0
-1.0,1.0,1.0,-1.0,-2.0,0.0,1.0,-3.0,1651072241892962.0
-1.0,-3.0,-3.0,-2.0,-2.0,-1.0,-1.0,-1.0,1651072241892962.0
1.0,-1.0,0.0,2.0,5.0,0.0,0.0,-1.0,1651072241894890.0
-1.0,-1.0,-2.0,0.0,4.0,3.0,1.0,0.0,1651072241894890.0
-1.0,0.0,0.0,-2.0,-4.0,-5.0,-1.0,1.0,1651072241906431.0
0.0,-2.0,2.0,-1.0,2.0,2.0,0.0,0.0,1651072241906431.0
-1.0,1.0,-1.0,-1.0,-2.0,0.0,0.0,-2.0,1651072241915422.0
-1.0,-1.0,-2.0,-3.0,-2.0,0.0,0.0,-2.0,1651072241915422.0
-3.0,-1.0,-2.0,4.0,1.0,0.0,1.0,-1.0,1651072241930896.0
-2.0,-1.0,-2.0,-2.0,-9.0,-4.0,-1.0,-2.0,1651072241930896.0
0.0,-1.0,-2.0,-1.0,1.0,-1.0,-1.0,0.0,1651072241932374.0
-1.0,-1.0,-1.0,-1.0,2.0,0.0,0.0,-2.0,1651072241932374.0
0.0,-1.0,0.0,-3.0,-3.0,-3.0,-1.0,-2.0,1651072241952409.0
1.0,-2.0,0.0,-3.0,-2.0,-5.0,0.0,-2.0,1651072241952409.0
0.0,0.0,-1.0,-1.0,-3.0,2.0,1.0,0.0,1651072241954408.0
-1.0,-1.0,1.0,0.0,-1.0,0.0,1.0,-1.0,1651072241954408.0
1.0,-2.0,0.0,1.0,3.0,1.0,0.0,0.0,1651072241975625.0
-1.0,0.0,-3.0,0.0,-5.0,-2.0,1.0,1.0,1651072241975625.0
-1.0,-1.0,0.0,-1.0,2.0,0.0,1.0,-2.0,1651072241977428.0
0.0,0.0,-1.0,1.0,-1.0,-1.0,-2.0,-1.0,1651072241977428.0
-3.0,1.0,0.0,1.0,1.0,-3.0,0.0,-1.0,1651072241989465.0
-1.0,-2.0,-3.0,-5.0,2.0,5.0,1.0,0.0,1651072241989465.0
0.0,-1.0,0.0,5.0,0.0,-1.0,0.0,2.0,1651072241997162.0
-2.0,-1.0,0.0,-1.0,-2.0,-1.0,0.0,1.0,1651072241997162.0
-1.0,-2.0,-2.0,-2.0,-4.0,-1.0,-1.0,-1.0,1651072242013945.0
-1.0,-2.0,0.0,-2.0,0.0,-2.0,0.0,0.0,1651072242013945.0
-1.0,0.0,-1.0,1.0,10.0,2.0,0.0,1.0,1651072242014956.0
2.0,-1.0,1.0,-1.0,-7.0,-5.0,-1.0,2.0,1651072242014956.0
0.0,-1.0,0.0,-2.0,0.0,0.0,0.0,1.0,1651072242035750.0
-2.0,1.0,-3.0,1.0,2.0,2.0,1.0,0.0,1651072242035750.0
-1.0,1.0,-3.0,-5.0,-5.0,1.0,-1.0,-1.0,1651072242037547.0
0.0,1.0,-1.0,2.0,-2.0,-4.0,-2.0,-1.0,1651072242037547.0
0.0,-1.0,1.0,1.0,-2.0,1.0,-1.0,0.0,1651072242050512.0
-2.0,-1.0,-1.0,2.0,12.0,4.0,0.0,0.0,1651072242050512.0
-1.0,0.0,0.0,0.0,-6.0,-7.0,-2.0,-3.0,1651072242052540.0
-2.0,-3.0,-4.0,-5.0,0.0,0.0,0.0,-4.0,1651072242052540.0
-2.0,1.0,-2.0,-2.0,-4.0,1.0,1.0,-1.0,1651072242072512.0
-1.0,0.0,-2.0,-2.0,-1.0,-1.0,-1.0,0.0,1651072242072512.0
-1.0,0.0,1.0,-1.0,1.0,2.0,-1.0,-2.0,1651072242074440.0
1.0,1.0,0.0,0.0,0.0,0.0,0.0,1.0,1651072242074440.0
-1.0,0.0,1.0,0.0,0.0,-1.0,-2.0,-2.0,1651072242096360.0
-2.0,0.0,1.0,-1.0,-1.0,-2.0,-2.0,1.0,1651072242096360.0
-3.0,-3.0,-1.0,0.0,-3.0,-4.0,-1.0,-2.0,1651072242097292.0
-1.0,-1.0,-1.0,-2.0,-2.0,-1.0,-1.0,0.0,1651072242097292.0
0.0,-1.0,-2.0,-1.0,2.0,0.0,0.0,-1.0,1651072242110241.0
2.0,0.0,2.0,2.0,4.0,2.0,-1.0,0.0,1651072242110241.0
1.0,1.0,0.0,0.0,-2.0,1.0,0.0,0.0,1651072242124030.0
-1.0,2.0,-1.0,1.0,1.0,3.0,-2.0,-1.0,1651072242124030.0
0.0,1.0,-3.0,-2.0,-1.0,-4.0,-2.0,0.0,1651072242133004.0
-1.0,0.0,0.0,-1.0,-3.0,4.0,2.0,0.0,1651072242133004.0
0.0,1.0,1.0,-1.0,-2.0,-1.0,1.0,0.0,1651072242134932.0
0.0,-2.0,0.0,1.0,4.0,4.0,1.0,0.0,1651072242134932.0
0.0,0.0,2.0,1.0,-4.0,-1.0,-2.0,-2.0,1651072242155117.0
-1.0,0.0,-2.0,0.0,-3.0,-4.0,-2.0,-1.0,1651072242155117.0
-1.0,-1.0,-1.0,-3.0,-5.0,-1.0,0.0,1.0,1651072242157115.0
-2.0,0.0,-2.0,-1.0,-1.0,-1.0,-1.0,1.0,1651072242157115.0
0.0,0.0,-1.0,0.0,5.0,2.0,-2.0,-2.0,1651072242170193.0
0.0,1.0,1.0,0.0,0.0,-1.0,0.0,0.0,1651072242170193.0
-1.0,0.0,-1.0,2.0,-6.0,-4.0,-2.0,1.0,1651072242177178.0
1.0,0.0,0.0,-3.0,-2.0,-1.0,0.0,0.0,1651072242177178.0
0.0,-2.0,0.0,0.0,4.0,5.0,0.0,0.0,1651072242193255.0
0.0,-1.0,-3.0,0.0,0.0,-1.0,-1.0,-2.0,1651072242193255.0
0.0,2.0,-1.0,-1.0,0.0,1.0,0.0,0.0,1651072242194252.0
-2.0,0.0,-1.0,-3.0,-4.0,-3.0,0.0,-1.0,1651072242194252.0
-2.0,0.0,-1.0,5.0,2.0,0.0,-1.0,2.0,1651072242215916.0
0.0,-3.0,-2.0,-3.0,-3.0,-1.0,0.0,-2.0,1651072242215916.0
-2.0,-3.0,-2.0,-1.0,-4.0,-2.0,-1.0,-1.0,1651072242216887.0
-2.0,-3.0,-4.0,-1.0,3.0,2.0,0.0,1.0,1651072242216887.0
0.0,-2.0,3.0,1.0,5.0,2.0,0.0,0.0,1651072242229863.0
