,EMG_s0,EMG_s1,EMG_s2,EMG_s3,EMG_s4,EMG_s5,EMG_s6,EMG_s7,timestamp,signal
0,-1.0,-1.0,-1.0,-2.0,-2.0,-1.0,-2.0,-1.0,1651085816048249.0,0
1,0.0,0.0,-1.0,-2.0,-3.0,-1.0,-1.0,0.0,1651085816048249.0,0
2,1.0,-2.0,0.0,0.0,0.0,0.0,-1.0,-2.0,1651085816069425.0,0
3,-1.0,0.0,-1.0,3.0,1.0,-1.0,-1.0,-2.0,1651085816069425.0,0
4,-1.0,-1.0,-2.0,0.0,2.0,1.0,0.0,-1.0,1651085816070388.0,0
5,0.0,0.0,0.0,-2.0,0.0,-2.0,0.0,2.0,1651085816070388.0,0
6,1.0,-1.0,-1.0,-1.0,-2.0,-1.0,-2.0,1.0,1651085816083510.0,0
7,0.0,0.0,-2.0,-2.0,-3.0,-2.0,-3.0,0.0,1651085816083510.0,0
8,-1.0,-4.0,0.0,2.0,1.0,0.0,1.0,-1.0,1651085816090384.0,0
9,-1.0,0.0,-2.0,0.0,0.0,-1.0,-2.0,0.0,1651085816090384.0,0
10,0.0,0.0,0.0,0.0,1.0,1.0,1.0,-1.0,1651085816107379.0,0
11,0.0,0.0,1.0,0.0,1.0,1.0,-1.0,-1.0,1651085816107379.0,0
12,1.0,1.0,-1.0,-1.0,-1.0,0.0,1.0,0.0,1651085816108252.0,0
13,2.0,-2.0,-2.0,0.0,-1.0,0.0,0.0,0.0,1651085816108252.0,0
14,-2.0,-1.0,0.0,1.0,0.0,-1.0,1.0,1.0,1651085816129240.0,0
15,-1.0,-1.0,-1.0,-1.0,0.0,0.0,1.0,-1.0,1651085816129240.0,0
16,-2.0,0.0,0.0,-3.0,-1.0,0.0,-4.0,0.0,1651085816130240.0,0
17,0.0,0.0,-3.0,-2.0,-2.0,-2.0,-1.0,-1.0,1651085816130240.0,0
18,0.0,0.0,0.0,-1.0,-2.0,-1.0,-2.0,-2.0,1651085816144304.0,0
19,0.0,-2.0,1.0,3.0,1.0,1.0,0.0,-1.0,1651085816144304.0,0
20,-1.0,0.0,-3.0,-1.0,0.0,-1.0,0.0,0.0,1651085816150545.0,0
21,0.0,-1.0,0.0,-2.0,0.0,-1.0,1.0,1.0,1651085816150545.0,0
22,0.0,-1.0,-2.0,-2.0,-1.0,-1.0,-1.0,1.0,1651085816167351.0,0
23,0.0,-1.0,1.0,-3.0,-4.0,-2.0,0.0,0.0,1651085816167351.0,0
24,1.0,-1.0,0.0,0.0,-3.0,-3.0,-2.0,1.0,1651085816168207.0,0
25,-1.0,-1.0,2.0,4.0,4.0,1.0,1.0,-1.0,1651085816168207.0,0
26,-1.0,-1.0,1.0,-1.0,1.0,0.0,1.0,1.0,1651085816189074.0,0
27,0.0,0.0,-1.0,-3.0,-1.0,-2.0,-2.0,-1.0,1651085816189074.0,0
28,0.0,0.0,-1.0,-3.0,-4.0,-4.0,-1.0,1.0,1651085816190106.0,0
29,-2.0,0.0,-2.0,-1.0,0.0,-1.0,-2.0,-1.0,1651085816190106.0,0
30,0.0,-1.0,2.0,2.0,2.0,1.0,1.0,-1.0,1651085816204362.0,0
31,1.0,-1.0,-2.0,0.0,-2.0,0.0,0.0,0.0,1651085816204362.0,0
32,-1.0,-1.0,0.0,-1.0,-1.0,0.0,1.0,-1.0,1651085816210358.0,0
33,0.0,-1.0,0.0,0.0,-2.0,-1.0,-1.0,1.0,1651085816210358.0,0
34,0.0,-1.0,-1.0,0.0,0.0,-2.0,0.0,-1.0,1651085816227344.0,0
35,1.0,0.0,0.0,-3.0,-3.0,-2.0,-2.0,0.0,1651085816227344.0,0
36,-1.0,-1.0,0.0,1.0,2.0,2.0,0.0,0.0,1651085816228231.0,0
37,-2.0,-1.0,1.0,0.0,1.0,1.0,-2.0,-1.0,1651085816228231.0,0
38,0.0,0.0,0.0,-1.0,-2.0,-2.0,-1.0,-1.0,1651085816249300.0,0
39,-2.0,0.0,-2.0,-1.0,-1.0,-1.0,-1.0,-1.0,1651085816249300.0,0
40,1.0,-2.0,-1.0,-2.0,-2.0,-1.0,-1.0,-1.0,1651085816250180.0,0
41,0.0,-1.0,0.0,-2.0,-1.0,1.0,-1.0,-2.0,1651085816250180.0,0
42,-2.0,0.0,0.0,-2.0,-1.0,0.0,-1.0,-2.0,1651085816264274.0,0
43,1.0,-1.0,-1.0,-1.0,-3.0,-1.0,-1.0,-2.0,1651085816264274.0,0
44,0.0,0.0,-2.0,1.0,0.0,0.0,0.0,-1.0,1651085816270629.0,0
45,1.0,0.0,2.0,0.0,3.0,1.0,1.0,-2.0,1651085816270629.0,0
46,1.0,1.0,-2.0,-1.0,0.0,-1.0,0.0,0.0,1651085816287354.0,0
47,-2.0,-1.0,0.0,2.0,1.0,0.0,0.0,0.0,1651085816287354.0,0
48,0.0,0.0,1.0,-2.0,-2.0,-2.0,-1.0,-1.0,1651085816288245.0,0
49,0.0,0.0,-1.0,0.0,-1.0,0.0,-1.0,-1.0,1651085816288245.0,0
50,0.0,-1.0,-2.0,-2.0,-3.0,-1.0,0.0,0.0,1651085816308440.0,0
51,-1.0,-1.0,0.0,0.0,0.0,0.0,-2.0,1.0,1651085816308440.0,0
52,0.0,1.0,0.0,2.0,-1.0,0.0,-1.0,-1.0,1651085816317226.0,0
53,-1.0,0.0,-1.0,1.0,2.0,0.0,1.0,0.0,1651085816317226.0,0
54,-1.0,0.0,0.0,1.0,3.0,1.0,1.0,-1.0,1651085816323204.0,0
55,1.0,0.0,-2.0,-5.0,-1.0,1.0,2.0,0.0,1651085816323204.0,0
56,0.0,-2.0,0.0,0.0,1.0,1.0,0.0,0.0,1651085816331249.0,0
57,1.0,0.0,0.0,0.0,-3.0,-3.0,-1.0,-1.0,1651085816331249.0,0
58,-2.0,0.0,-1.0,-1.0,-5.0,-3.0,-2.0,0.0,1651085816347360.0,0
59,-1.0,-1.0,0.0,0.0,-1.0,-1.0,0.0,-1.0,1651085816347360.0,0
60,1.0,0.0,-2.0,-1.0,-2.0,-1.0,-1.0,-1.0,1651085816348251.0,0
61,-1.0,-2.0,0.0,-1.0,1.0,1.0,-1.0,-1.0,1651085816348251.0,0
62,0.0,-1.0,0.0,0.0,0.0,2.0,-1.0,0.0,1651085816369198.0,0
63,-2.0,0.0,-1.0,2.0,0.0,2.0,1.0,0.0,1651085816369198.0,0
64,-1.0,0.0,-1.0,0.0,-1.0,-1.0,1.0,0.0,1651085816370197.0,0
65,0.0,-1.0,-1.0,-3.0,0.0,-1.0,0.0,0.0,1651085816370197.0,0
66,-2.0,0.0,-2.0,0.0,-1.0,-2.0,-1.0,-1.0,1651085816384265.0,0
67,1.0,-1.0,1.0,2.0,0.0,0.0,-1.0,0.0,1651085816384265.0,0
68,-2.0,0.0,0.0,0.0,1.0,0.0,1.0,1.0,1651085816390370.0,0
69,-1.0,0.0,-1.0,0.0,-1.0,-2.0,1.0,0.0,1651085816390370.0,0
70,0.0,-1.0,0.0,-1.0,-1.0,-1.0,-1.0,0.0,1651085816407060.0,0
71,-1.0,-1.0,-3.0,0.0,0.0,-1.0,-1.0,1.0,1651085816407060.0,0
72,-1.0,0.0,0.0,0.0,0.0,-1.0,-2.0,-2.0,1651085816407916.0,0
73,1.0,0.0,-1.0,-4.0,-3.0,1.0,-1.0,0.0,1651085816407916.0,0
74,-2.0,-1.0,1.0,1.0,1.0,2.0,0.0,-1.0,1651085816429217.0,0
75,0.0,-1.0,-1.0,-2.0,0.0,-2.0,0.0,1.0,1651085816429217.0,0
76,0.0,0.0,-1.0,-1.0,1.0,1.0,-1.0,-1.0,1651085816430218.0,0
77,-1.0,0.0,-1.0,-2.0,-2.0,-1.0,-1.0,-1.0,1651085816430218.0,0
78,1.0,0.0,-1.0,1.0,0.0,-1.0,-1.0,0.0,1651085816443323.0,0
79,-2.0,2.0,3.0,0.0,3.0,0.0,0.0,-1.0,1651085816443323.0,0
80,-1.0,0.0,1.0,-2.0,0.0,-1.0,1.0,-2.0,1651085816451354.0,0
81,-2.0,0.0,-2.0,3.0,2.0,0.0,0.0,0.0,1651085816451354.0,0
82,0.0,0.0,-1.0,0.0,-2.0,-1.0,-1.0,1.0,1651085816467339.0,0
83,-2.0,-1.0,-1.0,-2.0,0.0,-1.0,-2.0,-1.0,1651085816467339.0,0
84,0.0,-2.0,-1.0,0.0,-3.0,0.0,0.0,0.0,1651085816468195.0,0
85,-1.0,-1.0,-1.0,-1.0,-2.0,-3.0,0.0,-1.0,1651085816468195.0,0
86,0.0,-1.0,-1.0,-1.0,-1.0,1.0,-1.0,-1.0,1651085816489224.0,0
87,-2.0,-1.0,0.0,-1.0,-1.0,-1.0,-1.0,0.0,1651085816489224.0,0
88,0.0,1.0,0.0,0.0,2.0,1.0,0.0,-1.0,1651085816490226.0,0
89,1.0,0.0,0.0,-1.0,-2.0,-1.0,-3.0,-3.0,1651085816490226.0,0
90,-1.0,-2.0,0.0,-2.0,0.0,1.0,2.0,-1.0,1651085816502214.0,0
91,0.0,-2.0,-1.0,-2.0,-2.0,-2.0,-1.0,-4.0,1651085816502214.0,0
92,1.0,-1.0,0.0,-1.0,0.0,-1.0,1.0,1.0,1651085816512078.0,0
93,0.0,0.0,-1.0,0.0,-6.0,-2.0,1.0,-1.0,1651085816512078.0,0
94,0.0,0.0,-2.0,-2.0,-3.0,-2.0,-1.0,0.0,1651085816527455.0,0
95,1.0,-1.0,0.0,4.0,1.0,3.0,2.0,-1.0,1651085816527455.0,0
96,-1.0,-2.0,0.0,0.0,0.0,-1.0,-1.0,0.0,1651085816528455.0,0
97,0.0,-3.0,-3.0,-1.0,-1.0,0.0,-1.0,1.0,1651085816528455.0,0
98,0.0,0.0,-2.0,-2.0,-2.0,0.0,-1.0,-1.0,1651085816549588.0,0
99,1.0,0.0,-3.0,-3.0,-3.0,-3.0,-2.0,-1.0,1651085816549588.0,0
100,-2.0,0.0,-1.0,2.0,4.0,4.0,0.0,0.0,1651085816550427.0,0
101,1.0,-1.0,2.0,-1.0,1.0,1.0,-1.0,0.0,1651085816550427.0,0
102,0.0,-1.0,-1.0,-2.0,-2.0,-1.0,-1.0,0.0,1651085816563364.0,0
103,-1.0,-1.0,0.0,0.0,-1.0,-2.0,-2.0,0.0,1651085816563364.0,0
104,-2.0,-2.0,0.0,-1.0,-2.0,-2.0,-1.0,-1.0,1651085816571674.0,0
105,-3.0,-1.0,1.0,-1.0,2.0,-2.0,0.0,-1.0,1651085816571674.0,0
106,-2.0,-1.0,-1.0,0.0,0.0,-1.0,0.0,-2.0,1651085816586323.0,0
107,0.0,0.0,-1.0,-3.0,-4.0,-1.0,-1.0,-1.0,1651085816586323.0,0
108,1.0,-1.0,-1.0,-2.0,-2.0,-2.0,-1.0,0.0,1651085816593203.0,0
109,0.0,-1.0,-1.0,0.0,-1.0,1.0,-2.0,1.0,1651085816593203.0,0
110,0.0,-1.0,-1.0,-2.0,-3.0,-1.0,0.0,0.0,1651085816608538.0,0
111,1.0,-1.0,0.0,0.0,0.0,1.0,0.0,-1.0,1651085816608538.0,0
112,-1.0,-2.0,-1.0,0.0,0.0,2.0,0.0,-1.0,1651085816610405.0,0
113,0.0,0.0,0.0,-2.0,1.0,-1.0,-2.0,-1.0,1651085816610405.0,0
114,0.0,-2.0,1.0,1.0,0.0,-1.0,0.0,0.0,1651085816623044.0,0
115,0.0,-3.0,-2.0,-1.0,-1.0,0.0,0.0,0.0,1651085816623044.0,0
116,-1.0,0.0,-2.0,-3.0,-2.0,-4.0,-1.0,1.0,1651085816632113.0,0
117,-1.0,-1.0,-2.0,0.0,-2.0,-1.0,0.0,1.0,1651085816632113.0,0
118,-2.0,-1.0,0.0,2.0,3.0,2.0,1.0,-1.0,1651085816647350.0,0
119,-2.0,0.0,-1.0,-1.0,0.0,0.0,-1.0,-1.0,1651085816647350.0,0
120,-1.0,-1.0,0.0,0.0,-1.0,-1.0,-1.0,-2.0,1651085816648240.0,0
121,2.0,-1.0,0.0,-1.0,-1.0,-1.0,-2.0,0.0,1651085816648240.0,0
122,0.0,-1.0,-1.0,0.0,0.0,-2.0,-1.0,-3.0,1651085816669236.0,0
123,-1.0,0.0,0.0,0.0,-1.0,2.0,0.0,-1.0,1651085816669236.0,0
124,1.0,0.0,-1.0,-1.0,-3.0,-1.0,0.0,1.0,1651085816670235.0,0
125,0.0,0.0,0.0,0.0,0.0,1.0,0.0,-1.0,1651085816670235.0,0
126,0.0,-1.0,2.0,0.0,1.0,-1.0,-1.0,0.0,1651085816682244.0,0
127,-1.0,0.0,0.0,0.0,0.0,1.0,1.0,0.0,1651085816682244.0,0
128,1.0,-1.0,0.0,0.0,-2.0,-2.0,-2.0,-1.0,1651085816691178.0,0
129,-2.0,0.0,1.0,0.0,0.0,-1.0,0.0,-1.0,1651085816691178.0,0
130,-2.0,-1.0,-2.0,-3.0,-3.0,0.0,-1.0,0.0,1651085816707206.0,0
131,0.0,1.0,1.0,-3.0,-1.0,-3.0,0.0,-1.0,1651085816707206.0,0
132,-2.0,-1.0,-1.0,-1.0,-2.0,0.0,-1.0,-1.0,1651085816708076.0,0
133,-1.0,0.0,0.0,2.0,0.0,1.0,0.0,-2.0,1651085816708076.0,0
134,0.0,-1.0,0.0,1.0,0.0,0.0,0.0,-3.0,1651085816729200.0,0
135,-1.0,-3.0,-1.0,-1.0,0.0,0.0,-1.0,0.0,1651085816729200.0,0
136,-1.0,-1.0,-1.0,-1.0,-1.0,0.0,-1.0,0.0,1651085816730201.0,0
137,-1.0,-1.0,-2.0,-3.0,-3.0,-1.0,-2.0,0.0,1651085816730201.0,0
138,-3.0,-1.0,1.0,1.0,-2.0,-1.0,-1.0,-1.0,1651085816743234.0,0
139,-1.0,-1.0,0.0,1.0,-2.0,-2.0,0.0,-1.0,1651085816743234.0,0
140,-2.0,2.0,0.0,0.0,3.0,0.0,0.0,0.0,1651085816751389.0,0
141,-2.0,-2.0,-1.0,-2.0,-2.0,-2.0,0.0,1.0,1651085816751389.0,0
142,2.0,0.0,0.0,0.0,2.0,0.0,-1.0,1.0,1651085816767388.0,0
143,1.0,-2.0,0.0,-1.0,-1.0,-1.0,-2.0,-1.0,1651085816767388.0,0
144,-1.0,-1.0,1.0,0.0,-1.0,1.0,-1.0,-2.0,1651085816768213.0,0
145,-1.0,1.0,1.0,1.0,-2.0,-1.0,0.0,-1.0,1651085816768213.0,0
146,-2.0,0.0,0.0,0.0,1.0,1.0,1.0,-2.0,1651085816789242.0,0
147,0.0,-1.0,0.0,-2.0,-2.0,-2.0,0.0,0.0,1651085816789242.0,0
148,1.0,-3.0,-1.0,0.0,0.0,-2.0,-1.0,-1.0,1651085816790243.0,0
149,1.0,-1.0,-1.0,3.0,1.0,1.0,2.0,0.0,1651085816790243.0,0
150,0.0,-2.0,-1.0,-2.0,-2.0,-1.0,0.0,-1.0,1651085816802398.0,0
151,0.0,0.0,-1.0,2.0,0.0,0.0,-1.0,0.0,1651085816802398.0,0
152,0.0,-1.0,-2.0,-2.0,-3.0,-2.0,0.0,0.0,1651085816811702.0,0
153,-1.0,-2.0,0.0,-1.0,-2.0,-2.0,-1.0,-1.0,1651085816811702.0,0
154,0.0,-1.0,0.0,2.0,0.0,2.0,0.0,0.0,1651085816826233.0,0
155,-2.0,0.0,2.0,1.0,2.0,3.0,-1.0,0.0,1651085816826233.0,0
156,-1.0,1.0,1.0,0.0,1.0,0.0,0.0,-1.0,1651085816828259.0,0
157,-1.0,1.0,-1.0,0.0,2.0,2.0,1.0,1.0,1651085816828259.0,0
158,1.0,2.0,-2.0,-5.0,-6.0,-4.0,-1.0,0.0,1651085816849233.0,0
159,-1.0,-2.0,-1.0,-2.0,0.0,0.0,0.0,-2.0,1651085816849233.0,0
160,1.0,-2.0,1.0,3.0,1.0,2.0,1.0,0.0,1651085816850233.0,0
161,-2.0,-1.0,0.0,0.0,-2.0,-1.0,0.0,0.0,1651085816850233.0,0
162,0.0,0.0,-1.0,0.0,1.0,1.0,-2.0,0.0,1651085816863226.0,0
163,0.0,-1.0,-1.0,-2.0,-1.0,-1.0,-1.0,-1.0,1651085816863226.0,0
164,0.0,0.0,-1.0,-2.0,-3.0,-2.0,0.0,0.0,1651085816872313.0,0
165,1.0,-3.0,0.0,-2.0,-1.0,-3.0,1.0,-1.0,1651085816872313.0,0
166,-1.0,-1.0,0.0,0.0,-2.0,-2.0,0.0,0.0,1651085816887372.0,0
167,1.0,1.0,1.0,1.0,0.0,0.0,1.0,1.0,1651085816887372.0,0
168,0.0,-1.0,-1.0,-1.0,-1.0,-1.0,2.0,-2.0,1651085816888245.0,0
169,0.0,0.0,0.0,-2.0,-2.0,0.0,-1.0,-1.0,1651085816888245.0,0
170,0.0,0.0,0.0,-1.0,-1.0,-3.0,0.0,-2.0,1651085816908701.0,0
171,0.0,0.0,-2.0,-1.0,-1.0,0.0,-1.0,1.0,1651085816908701.0,0
172,-1.0,0.0,-1.0,-2.0,-2.0,-1.0,-1.0,-2.0,1651085816915262.0,0
173,-1.0,1.0,-1.0,-1.0,-1.0,-1.0,0.0,1.0,1651085816915262.0,0
174,-1.0,0.0,0.0,2.0,2.0,3.0,1.0,-2.0,1651085816931291.0,0
175,0.0,0.0,-2.0,1.0,0.0,-1.0,0.0,-1.0,1651085816931291.0,0
176,-1.0,1.0,-2.0,-1.0,-3.0,-1.0,-2.0,0.0,1651085816933319.0,0
177,0.0,-2.0,-1.0,-2.0,-3.0,-3.0,-4.0,-2.0,1651085816933319.0,0
178,0.0,-1.0,-1.0,-1.0,2.0,0.0,0.0,-1.0,1651085816954379.0,0
179,-2.0,0.0,0.0,1.0,1.0,0.0,0.0,2.0,1651085816954379.0,0
180,-1.0,-1.0,0.0,-2.0,-1.0,0.0,0.0,0.0,1651085816955225.0,0
181,-1.0,0.0,-1.0,0.0,-2.0,-1.0,-1.0,0.0,1651085816955225.0,0
182,-1.0,-1.0,-2.0,-3.0,-3.0,0.0,-1.0,-3.0,1651085816968044.0,0
183,-1.0,-2.0,0.0,-3.0,-2.0,-1.0,0.0,-1.0,1651085816968044.0,0
184,1.0,0.0,0.0,0.0,0.0,-1.0,0.0,0.0,1651085816976361.0,0
185,-1.0,0.0,1.0,3.0,6.0,2.0,1.0,0.0,1651085816976361.0,0
186,-2.0,-2.0,1.0,0.0,3.0,0.0,0.0,2.0,1651085816991355.0,0
187,0.0,0.0,-1.0,1.0,0.0,0.0,-3.0,-1.0,1651085816991355.0,0
188,-2.0,-1.0,-2.0,-1.0,-4.0,-2.0,0.0,-1.0,1651085816993350.0,0
189,-1.0,-2.0,0.0,0.0,0.0,-1.0,0.0,0.0,1651085816993350.0,0
190,-1.0,-2.0,-2.0,-2.0,-1.0,1.0,1.0,0.0,1651085817014398.0,0
191,-1.0,1.0,-1.0,1.0,1.0,-1.0,1.0,-1.0,1651085817014398.0,0
192,-1.0,0.0,1.0,2.0,3.0,2.0,0.0,0.0,1651085817015232.0,0
193,-1.0,0.0,-1.0,-2.0,-2.0,0.0,1.0,-2.0,1651085817015232.0,0
194,0.0,0.0,0.0,0.0,-3.0,-1.0,-1.0,0.0,1651085817028376.0,0
195,-2.0,-3.0,-1.0,1.0,-2.0,-1.0,0.0,-2.0,1651085817028376.0,0
196,-1.0,-3.0,-1.0,0.0,-1.0,-1.0,0.0,-1.0,1651085817037348.0,0
197,0.0,-1.0,-2.0,1.0,-1.0,-1.0,-1.0,1.0,1651085817037348.0,0
198,0.0,1.0,-1.0,1.0,-3.0,-1.0,0.0,0.0,1651085817052393.0,0
199,0.0,-2.0,-1.0,-3.0,-2.0,0.0,-1.0,-1.0,1651085817052393.0,0
200,-1.0,-2.0,1.0,1.0,0.0,0.0,-1.0,-1.0,1651085817053397.0,0
201,0.0,0.0,-1.0,-2.0,1.0,0.0,0.0,0.0,1651085817053397.0,0
202,0.0,0.0,-3.0,0.0,-1.0,-4.0,-3.0,-2.0,1651085817074399.0,0
203,0.0,2.0,-2.0,0.0,-3.0,-2.0,-1.0,0.0,1651085817074399.0,0
204,-1.0,0.0,-1.0,-1.0,-1.0,0.0,0.0,-1.0,1651085817075260.0,0
205,-1.0,0.0,0.0,2.0,3.0,2.0,0.0,1.0,1651085817075260.0,0
206,0.0,-1.0,-2.0,-2.0,0.0,0.0,0.0,1.0,1651085817097367.0,0
207,0.0,-1.0,0.0,-1.0,-1.0,-3.0,-1.0,-1.0,1651085817097367.0,0
208,1.0,-2.0,-1.0,-3.0,-3.0,-1.0,0.0,0.0,1651085817098258.0,0
209,-1.0,-1.0,0.0,1.0,0.0,0.0,0.0,-1.0,1651085817098258.0,0
210,-2.0,0.0,1.0,3.0,2.0,2.0,0.0,1.0,1651085817119180.0,0
211,-2.0,-1.0,-1.0,2.0,0.0,0.0,0.0,1.0,1651085817119180.0,0
212,1.0,1.0,-2.0,-1.0,-1.0,-1.0,-1.0,0.0,1651085817120217.0,0
213,0.0,0.0,-2.0,-2.0,-2.0,-2.0,-1.0,0.0,1651085817120217.0,0
214,0.0,1.0,-1.0,0.0,1.0,-1.0,-1.0,0.0,1651085817134316.0,0
215,1.0,-1.0,-2.0,-2.0,-1.0,0.0,-2.0,0.0,1651085817134316.0,0
216,-1.0,0.0,-2.0,1.0,1.0,-1.0,0.0,-2.0,1651085817135185.0,0
217,-1.0,1.0,0.0,-1.0,-2.0,-2.0,-1.0,-2.0,1651085817135185.0,0
218,-1.0,-1.0,1.0,-2.0,-3.0,-1.0,1.0,1.0,1651085817148480.0,0
219,-1.0,-1.0,-2.0,-3.0,-1.0,1.0,-1.0,-2.0,1651085817148480.0,0
220,-2.0,0.0,0.0,2.0,1.0,1.0,0.0,1.0,1651085817156452.0,0
221,0.0,-1.0,-2.0,1.0,0.0,-1.0,-1.0,0.0,1651085817156452.0,0
222,0.0,-1.0,0.0,0.0,-1.0,-4.0,-2.0,-3.0,1651085817171899.0,0
223,-1.0,0.0,-1.0,0.0,2.0,0.0,1.0,0.0,1651085817171899.0,0
224,-1.0,-1.0,0.0,-3.0,-4.0,-3.0,-2.0,1.0,1651085817172900.0,0
225,0.0,-1.0,-1.0,1.0,-1.0,0.0,0.0,-1.0,1651085817172900.0,0
226,-1.0,-2.0,-2.0,0.0,-1.0,2.0,1.0,-1.0,1651085817194094.0,0
227,-1.0,-1.0,-1.0,-2.0,-1.0,0.0,0.0,0.0,1651085817194094.0,0
228,1.0,-1.0,-1.0,-1.0,-3.0,-1.0,-3.0,-1.0,1651085817194977.0,0
229,1.0,0.0,1.0,-3.0,0.0,0.0,-2.0,0.0,1651085817194977.0,0
230,0.0,0.0,-1.0,0.0,-6.0,-4.0,-2.0,0.0,1651085817208642.0,0
231,-1.0,1.0,0.0,-2.0,5.0,1.0,1.0,0.0,1651085817208642.0,0
232,0.0,0.0,0.0,-2.0,0.0,1.0,0.0,-1.0,1651085817217108.0,0
233,-1.0,-2.0,-2.0,-13.0,-17.0,-5.0,0.0,-1.0,1651085817217108.0,0
234,-3.0,-2.0,-2.0,6.0,2.0,0.0,1.0,-1.0,1651085817231159.0,0
235,1.0,-1.0,0.0,1.0,2.0,-1.0,1.0,0.0,1651085817231159.0,0
236,1.0,-1.0,0.0,9.0,15.0,6.0,0.0,1.0,1651085817233188.0,0
237,-2.0,-1.0,-2.0,-2.0,-8.0,-2.0,-1.0,-1.0,1651085817233188.0,1
238,0.0,0.0,-1.0,5.0,20.0,11.0,2.0,1.0,1651085817254193.0,1
239,-1.0,-1.0,9.0,-4.0,-11.0,-5.0,-4.0,1.0,1651085817254193.0,1
240,-2.0,1.0,-6.0,2.0,-7.0,-7.0,-1.0,-2.0,1651085817255089.0,1
241,0.0,-3.0,-4.0,-9.0,-2.0,-2.0,-1.0,-1.0,1651085817255089.0,1
242,1.0,0.0,4.0,1.0,-8.0,-2.0,0.0,2.0,1651085817267195.0,1
243,-1.0,0.0,-2.0,3.0,4.0,2.0,2.0,-1.0,1651085817267195.0,1
244,0.0,-1.0,3.0,-5.0,-4.0,-2.0,0.0,-1.0,1651085817276297.0,1
245,0.0,-1.0,-1.0,2.0,1.0,-2.0,-3.0,-2.0,1651085817276297.0,1
246,-2.0,0.0,-1.0,-2.0,1.0,3.0,0.0,0.0,1651085817291791.0,1
247,0.0,0.0,0.0,2.0,3.0,2.0,-2.0,0.0,1651085817291791.0,1
248,0.0,0.0,0.0,-5.0,-10.0,-6.0,-2.0,0.0,1651085817292791.0,1
249,0.0,0.0,-2.0,-2.0,-4.0,-3.0,0.0,0.0,1651085817292791.0,1
250,-1.0,-2.0,2.0,5.0,9.0,2.0,0.0,-1.0,1651085817314330.0,1
251,1.0,-1.0,-1.0,-6.0,-7.0,-3.0,-1.0,0.0,1651085817314330.0,1
252,-1.0,-1.0,-4.0,-10.0,-15.0,-6.0,-2.0,-1.0,1651085817315216.0,1
253,-1.0,-1.0,0.0,6.0,7.0,0.0,-1.0,-1.0,1651085817315216.0,1
254,0.0,0.0,4.0,4.0,4.0,2.0,-1.0,-2.0,1651085817328158.0,1
255,0.0,-4.0,-7.0,-1.0,-11.0,-6.0,-2.0,0.0,1651085817328158.0,1
256,0.0,-8.0,-8.0,3.0,28.0,18.0,3.0,1.0,1651085817344254.0,1
257,0.0,2.0,11.0,-7.0,-1.0,0.0,0.0,0.0,1651085817344254.0,1
258,-2.0,-8.0,-11.0,-11.0,-26.0,-11.0,-4.0,-1.0,1651085817351332.0,1
259,0.0,4.0,2.0,6.0,15.0,3.0,0.0,0.0,1651085817351332.0,1
260,-1.0,4.0,6.0,5.0,4.0,2.0,3.0,1.0,1651085817353362.0,1
261,-2.0,-3.0,-4.0,1.0,-1.0,0.0,-1.0,-1.0,1651085817353362.0,1
262,-1.0,3.0,1.0,6.0,8.0,3.0,2.0,0.0,1651085817374326.0,1
263,0.0,-6.0,-7.0,-13.0,-18.0,-8.0,-1.0,-2.0,1651085817374326.0,1
264,-1.0,-2.0,-1.0,7.0,5.0,-1.0,-4.0,0.0,1651085817375323.0,1
265,0.0,2.0,-4.0,7.0,12.0,6.0,3.0,0.0,1651085817375323.0,1
266,0.0,1.0,4.0,-7.0,-7.0,-3.0,0.0,-1.0,1651085817396865.0,1
267,0.0,-1.0,-3.0,1.0,1.0,2.0,-1.0,-3.0,1651085817396865.0,1
268,-2.0,3.0,5.0,-5.0,-6.0,-5.0,-1.0,0.0,1651085817397866.0,1
269,0.0,3.0,1.0,3.0,-3.0,-2.0,-2.0,1.0,1651085817397866.0,1
270,1.0,-3.0,-2.0,-10.0,-3.0,1.0,0.0,0.0,1651085817412008.0,1
271,0.0,2.0,2.0,6.0,8.0,3.0,2.0,-1.0,1651085817412008.0,1
272,1.0,-3.0,-2.0,7.0,6.0,2.0,-1.0,-1.0,1651085817412932.0,1
273,-3.0,0.0,0.0,-4.0,3.0,1.0,-3.0,0.0,1651085817412932.0,1
274,2.0,8.0,-4.0,-4.0,9.0,3.0,0.0,0.0,1651085817434152.0,1
275,-3.0,-7.0,7.0,14.0,15.0,4.0,0.0,1.0,1651085817434152.0,1
276,-2.0,12.0,6.0,1.0,-17.0,-9.0,-1.0,-2.0,1651085817435013.0,1
277,-1.0,5.0,33.0,22.0,-4.0,-3.0,-1.0,0.0,1651085817435013.0,1
278,0.0,-1.0,-30.0,-13.0,12.0,6.0,0.0,0.0,1651085817456990.0,1
279,3.0,-8.0,-6.0,-10.0,-9.0,1.0,0.0,2.0,1651085817456990.0,1
280,-3.0,9.0,5.0,16.0,21.0,6.0,1.0,-2.0,1651085817457857.0,1
281,0.0,1.0,7.0,5.0,-1.0,1.0,0.0,0.0,1651085817457857.0,1
282,-2.0,-1.0,6.0,-9.0,-19.0,-14.0,-6.0,-2.0,1651085817472082.0,1
283,0.0,2.0,-6.0,-11.0,-17.0,-7.0,-3.0,0.0,1651085817472082.0,1
284,1.0,-9.0,0.0,2.0,11.0,8.0,1.0,2.0,1651085817473095.0,1
285,2.0,1.0,-11.0,-20.0,-12.0,-4.0,1.0,-1.0,1651085817473095.0,1
286,-3.0,-3.0,10.0,23.0,9.0,0.0,0.0,0.0,1651085817494226.0,1
287,-1.0,0.0,2.0,15.0,12.0,4.0,0.0,1.0,1651085817494226.0,1
288,1.0,-3.0,-6.0,-25.0,-20.0,-5.0,0.0,-1.0,1651085817495085.0,1
289,-2.0,-1.0,2.0,-5.0,-2.0,1.0,-2.0,-1.0,1651085817495085.0,1
290,1.0,-3.0,-17.0,-10.0,-12.0,-10.0,-3.0,0.0,1651085817516952.0,1
291,1.0,1.0,5.0,10.0,21.0,7.0,2.0,1.0,1651085817516952.0,1
292,2.0,10.0,-15.0,6.0,1.0,1.0,2.0,3.0,1651085817517952.0,1
293,-1.0,-13.0,-18.0,-4.0,-12.0,-4.0,0.0,-1.0,1651085817517952.0,1
294,0.0,-8.0,0.0,-42.0,-16.0,2.0,0.0,0.0,1651085817531104.0,1
295,-1.0,19.0,14.0,14.0,-26.0,-7.0,-1.0,-1.0,1651085817531104.0,1
296,-1.0,-6.0,13.0,8.0,3.0,0.0,-1.0,0.0,1651085817538171.0,1
297,-1.0,-20.0,-36.0,-15.0,-1.0,0.0,1.0,-1.0,1651085817538171.0,1
298,-4.0,16.0,12.0,-3.0,-10.0,-4.0,-1.0,-1.0,1651085817555037.0,1
299,-1.0,-4.0,-21.0,-21.0,1.0,4.0,-1.0,1.0,1651085817555037.0,1
300,-1.0,-6.0,0.0,1.0,14.0,3.0,-1.0,-1.0,1651085817556876.0,1
301,1.0,5.0,30.0,11.0,2.0,0.0,0.0,0.0,1651085817556876.0,1
302,0.0,-6.0,-6.0,17.0,-8.0,-6.0,-2.0,-3.0,1651085817577202.0,1
303,0.0,-2.0,-3.0,-22.0,-10.0,-2.0,0.0,0.0,1651085817577202.0,1
304,0.0,1.0,-11.0,2.0,21.0,6.0,3.0,0.0,1651085817579104.0,1
305,-1.0,0.0,9.0,30.0,19.0,3.0,-1.0,0.0,1651085817579104.0,1
306,-1.0,-2.0,-14.0,-24.0,3.0,-2.0,-2.0,-2.0,1651085817591184.0,1
307,-2.0,1.0,9.0,5.0,-24.0,-7.0,-2.0,-2.0,1651085817591184.0,1
308,-2.0,-5.0,1.0,-12.0,5.0,5.0,-1.0,0.0,1651085817598021.0,1
309,2.0,7.0,-6.0,2.0,5.0,4.0,3.0,2.0,1651085817598021.0,1
310,-1.0,-2.0,-3.0,7.0,-3.0,-3.0,-1.0,0.0,1651085817614352.0,1
311,-3.0,0.0,12.0,17.0,10.0,-3.0,-2.0,-1.0,1651085817614352.0,1
312,-2.0,-8.0,-29.0,-26.0,-20.0,-9.0,-4.0,-1.0,1651085817615237.0,1
313,0.0,5.0,15.0,7.0,5.0,1.0,2.0,-1.0,1651085817615237.0,1
314,1.0,2.0,23.0,14.0,-4.0,3.0,3.0,1.0,1651085817644350.0,1
315,-1.0,-5.0,-7.0,-22.0,16.0,4.0,1.0,-2.0,1651085817644350.0,1
316,1.0,2.0,7.0,16.0,-16.0,-4.0,-2.0,0.0,1651085817645234.0,1
317,1.0,4.0,-2.0,4.0,16.0,3.0,0.0,0.0,1651085817645234.0,1
318,2.0,-1.0,16.0,12.0,8.0,5.0,0.0,1.0,1651085817651273.0,1
319,-2.0,1.0,-12.0,2.0,-1.0,1.0,4.0,0.0,1651085817651273.0,1
320,-2.0,-1.0,-1.0,-15.0,-21.0,-13.0,-8.0,-3.0,1651085817657371.0,1
321,1.0,0.0,-8.0,-16.0,1.0,5.0,1.0,2.0,1651085817657371.0,1
322,0.0,-3.0,8.0,6.0,-2.0,1.0,1.0,0.0,1651085817674334.0,1
323,0.0,-1.0,-16.0,-2.0,-5.0,-1.0,-1.0,0.0,1651085817674334.0,1
324,0.0,1.0,23.0,7.0,8.0,1.0,0.0,-1.0,1651085817675224.0,1
325,-2.0,-4.0,-20.0,-7.0,-10.0,-7.0,-2.0,0.0,1651085817675224.0,1
326,-1.0,-3.0,-9.0,0.0,8.0,3.0,2.0,-1.0,1651085817704293.0,1
327,0.0,0.0,20.0,10.0,-11.0,-2.0,-1.0,-3.0,1651085817704293.0,1
328,-2.0,-5.0,-38.0,-31.0,-3.0,-2.0,1.0,-2.0,1651085817705171.0,1
329,-1.0,0.0,15.0,21.0,4.0,1.0,-2.0,0.0,1651085817705171.0,1
330,0.0,0.0,-11.0,-18.0,-12.0,-3.0,-2.0,1.0,1651085817711131.0,1
331,-1.0,0.0,-4.0,11.0,11.0,-1.0,-1.0,0.0,1651085817711131.0,1
332,1.0,2.0,23.0,18.0,-1.0,-3.0,-1.0,-1.0,1651085817717977.0,1
333,-3.0,-8.0,-17.0,-20.0,2.0,5.0,2.0,-2.0,1651085817717977.0,1
334,-3.0,0.0,3.0,2.0,-9.0,-8.0,-6.0,-1.0,1651085817734354.0,1
335,0.0,-1.0,10.0,13.0,15.0,4.0,0.0,1.0,1651085817734354.0,1
336,-2.0,-2.0,-10.0,-23.0,-19.0,-5.0,-2.0,-2.0,1651085817735206.0,1
337,-1.0,1.0,-9.0,-15.0,0.0,-1.0,0.0,0.0,1651085817735206.0,1
338,-2.0,1.0,19.0,30.0,8.0,0.0,2.0,-1.0,1651085817755344.0,1
339,0.0,-2.0,-9.0,-20.0,-10.0,-1.0,-3.0,-1.0,1651085817755344.0,1
340,3.0,2.0,23.0,27.0,14.0,4.0,4.0,2.0,1651085817764178.0,1
341,-2.0,-2.0,-5.0,2.0,7.0,1.0,0.0,-1.0,1651085817764178.0,1
342,-1.0,1.0,12.0,-2.0,-18.0,-10.0,-3.0,-1.0,1651085817770314.0,1
343,-2.0,-3.0,-25.0,-14.0,-3.0,-2.0,0.0,-1.0,1651085817770314.0,1
344,-1.0,1.0,-1.0,5.0,8.0,1.0,0.0,-1.0,1651085817777678.0,1
345,1.0,-2.0,10.0,4.0,-17.0,-9.0,-5.0,-2.0,1651085817777678.0,1
346,0.0,1.0,3.0,12.0,22.0,10.0,5.0,1.0,1651085817801306.0,1
347,-2.0,-1.0,4.0,-4.0,-5.0,-3.0,-4.0,-3.0,1651085817801306.0,1
348,-1.0,-2.0,-22.0,-23.0,-16.0,-4.0,-2.0,-4.0,1651085817803241.0,1
349,-1.0,3.0,29.0,20.0,9.0,4.0,2.0,1.0,1651085817803241.0,1
350,2.0,5.0,0.0,0.0,-11.0,-5.0,-1.0,2.0,1651085817817185.0,1
351,-1.0,-5.0,-30.0,1.0,22.0,3.0,0.0,0.0,1651085817817185.0,1
352,-2.0,-1.0,-29.0,-16.0,-8.0,0.0,-1.0,-1.0,1651085817818054.0,1
353,1.0,5.0,24.0,3.0,-3.0,-2.0,0.0,1.0,1651085817818054.0,1
354,-2.0,-9.0,-50.0,-27.0,0.0,2.0,-1.0,-3.0,1651085817831220.0,1
355,3.0,5.0,47.0,11.0,1.0,3.0,2.0,2.0,1651085817831220.0,1
356,-3.0,-2.0,21.0,16.0,-2.0,-3.0,-3.0,-2.0,1651085817838120.0,1
357,2.0,0.0,-30.0,-17.0,0.0,-3.0,-2.0,0.0,1651085817838120.0,1
358,2.0,2.0,4.0,4.0,6.0,3.0,1.0,0.0,1651085817854333.0,1
359,0.0,3.0,14.0,18.0,2.0,1.0,1.0,1.0,1651085817854333.0,1
360,-2.0,-3.0,-10.0,-12.0,-5.0,-4.0,-2.0,0.0,1651085817855230.0,1
361,0.0,-2.0,-16.0,-8.0,-6.0,-3.0,-7.0,-2.0,1651085817855230.0,1
362,0.0,5.0,27.0,17.0,6.0,2.0,-3.0,0.0,1651085817877321.0,1
363,0.0,0.0,-7.0,8.0,8.0,5.0,6.0,1.0,1651085817877321.0,1
364,2.0,-2.0,-2.0,6.0,-5.0,-10.0,-7.0,-1.0,1651085817878227.0,1
365,-1.0,0.0,9.0,-10.0,-5.0,3.0,7.0,4.0,1651085817878227.0,1
366,-1.0,-2.0,-29.0,-15.0,-1.0,-3.0,-5.0,-2.0,1651085817890292.0,1
367,-2.0,0.0,19.0,-6.0,-11.0,-6.0,-4.0,-3.0,1651085817890292.0,1
368,3.0,7.0,44.0,25.0,7.0,9.0,13.0,5.0,1651085817899102.0,1
369,-4.0,-8.0,-63.0,-34.0,-3.0,-5.0,-2.0,-4.0,1651085817899102.0,1
370,0.0,3.0,-6.0,18.0,13.0,6.0,3.0,-2.0,1651085817914371.0,1
371,-2.0,-8.0,-4.0,-14.0,-18.0,-8.0,-7.0,-3.0,1651085817914371.0,1
372,2.0,3.0,8.0,2.0,12.0,3.0,0.0,1.0,1651085817915242.0,1
373,0.0,2.0,23.0,26.0,1.0,1.0,0.0,-1.0,1651085817915242.0,1
374,-3.0,-9.0,-24.0,-31.0,-11.0,-3.0,0.0,-1.0,1651085817936387.0,1
375,3.0,2.0,4.0,-8.0,-11.0,-6.0,-5.0,-3.0,1651085817936387.0,1
376,-2.0,0.0,-11.0,-5.0,5.0,0.0,-3.0,0.0,1651085817938414.0,1
377,0.0,1.0,29.0,25.0,-2.0,0.0,0.0,0.0,1651085817938414.0,1
378,0.0,-1.0,7.0,10.0,9.0,4.0,3.0,1.0,1651085817950774.0,1
379,-2.0,-2.0,-6.0,-3.0,-2.0,-3.0,1.0,1.0,1651085817950774.0,1
380,-2.0,-2.0,-8.0,-7.0,-7.0,-3.0,-5.0,-3.0,1651085817958932.0,1
381,0.0,3.0,-8.0,-2.0,0.0,0.0,1.0,-2.0,1651085817958932.0,1
382,-2.0,-2.0,2.0,-3.0,-4.0,-2.0,-4.0,-1.0,1651085817975019.0,1
383,-3.0,0.0,4.0,-2.0,-3.0,1.0,1.0,0.0,1651085817975019.0,1
384,0.0,-2.0,-14.0,-4.0,0.0,4.0,5.0,2.0,1651085817980036.0,1
385,-2.0,0.0,-1.0,-2.0,-3.0,-7.0,-4.0,-2.0,1651085817980036.0,1
386,1.0,-2.0,16.0,8.0,0.0,-1.0,-1.0,0.0,1651085817997452.0,1
387,-2.0,0.0,-27.0,-14.0,3.0,2.0,2.0,2.0,1651085817997452.0,1
388,0.0,-2.0,11.0,8.0,0.0,2.0,1.0,-1.0,1651085817998452.0,1
389,0.0,-2.0,2.0,-3.0,-4.0,-3.0,-3.0,-3.0,1651085817998452.0,1
390,1.0,-1.0,12.0,-5.0,-8.0,-7.0,-4.0,-2.0,1651085818010505.0,1
391,2.0,1.0,-4.0,7.0,14.0,5.0,1.0,1.0,1651085818010505.0,1
392,-1.0,1.0,4.0,11.0,-7.0,-2.0,-1.0,-1.0,1651085818019398.0,1
393,-1.0,-5.0,-31.0,-24.0,-1.0,2.0,1.0,0.0,1651085818019398.0,1
394,-1.0,4.0,31.0,23.0,2.0,1.0,0.0,0.0,1651085818034338.0,1
395,-3.0,-5.0,-29.0,-28.0,-6.0,-5.0,-1.0,-3.0,1651085818034338.0,1
396,-1.0,2.0,17.0,24.0,7.0,1.0,0.0,-1.0,1651085818035204.0,1
397,0.0,-2.0,7.0,-12.0,-1.0,-1.0,2.0,3.0,1651085818035204.0,1
398,-2.0,-2.0,-19.0,-7.0,-14.0,-4.0,-2.0,-3.0,1651085818056332.0,1
399,1.0,0.0,17.0,25.0,32.0,15.0,5.0,3.0,1651085818056332.0,1
400,1.0,-1.0,1.0,-4.0,1.0,0.0,-3.0,0.0,1651085818058190.0,1
401,-2.0,0.0,9.0,6.0,1.0,0.0,1.0,0.0,1651085818058190.0,1
402,0.0,2.0,-8.0,-19.0,-7.0,-4.0,-3.0,1.0,1651085818070723.0,1
403,-1.0,-2.0,-1.0,3.0,-9.0,-1.0,0.0,0.0,1651085818070723.0,1
404,-3.0,-5.0,-8.0,-6.0,-10.0,-9.0,-9.0,-2.0,1651085818079138.0,1
405,1.0,3.0,6.0,4.0,1.0,1.0,0.0,-3.0,1651085818079138.0,1
406,-1.0,-2.0,-14.0,-3.0,5.0,2.0,3.0,3.0,1651085818094333.0,1
407,0.0,1.0,26.0,9.0,-5.0,-3.0,-2.0,-2.0,1651085818094333.0,1
408,1.0,-5.0,-47.0,-27.0,-3.0,2.0,4.0,2.0,1651085818095225.0,1
409,2.0,0.0,4.0,6.0,-3.0,-4.0,-3.0,0.0,1651085818095225.0,1
410,0.0,-2.0,-12.0,-3.0,-1.0,-2.0,-2.0,-1.0,1651085818117387.0,1
411,-2.0,-3.0,-2.0,-12.0,0.0,1.0,-1.0,-2.0,1651085818117387.0,1
412,-1.0,2.0,10.0,12.0,5.0,6.0,5.0,1.0,1651085818118219.0,1
413,-1.0,2.0,20.0,5.0,-2.0,-5.0,-5.0,0.0,1651085818118219.0,1
414,2.0,-4.0,-49.0,-25.0,-8.0,-1.0,0.0,-1.0,1651085818131168.0,1
415,1.0,2.0,36.0,30.0,5.0,-1.0,2.0,0.0,1651085818131168.0,1
416,-1.0,-3.0,-19.0,-16.0,5.0,0.0,1.0,-2.0,1651085818139276.0,1
417,-3.0,1.0,5.0,7.0,-3.0,-1.0,-2.0,-2.0,1651085818139276.0,1
418,1.0,1.0,15.0,11.0,6.0,3.0,2.0,4.0,1651085818153941.0,1
419,0.0,-2.0,-18.0,-19.0,-13.0,-5.0,-3.0,-1.0,1651085818153941.0,1
420,0.0,1.0,7.0,3.0,0.0,1.0,1.0,1.0,1651085818155805.0,1
421,1.0,-4.0,-16.0,1.0,3.0,-1.0,-5.0,-2.0,1651085818155805.0,1
422,-7.0,0.0,22.0,3.0,0.0,-2.0,1.0,-1.0,1651085818177315.0,1
423,0.0,-4.0,-40.0,-21.0,-13.0,-6.0,1.0,1.0,1651085818177315.0,1
424,-1.0,2.0,37.0,27.0,3.0,0.0,-3.0,-2.0,1651085818178213.0,1
425,-2.0,-4.0,-23.0,-21.0,-4.0,0.0,-2.0,1.0,1651085818178213.0,1
426,-1.0,2.0,15.0,8.0,4.0,1.0,0.0,-1.0,1651085818199210.0,1
427,-1.0,0.0,1.0,12.0,-4.0,-6.0,-6.0,-2.0,1651085818199210.0,1
428,2.0,1.0,5.0,-5.0,-3.0,0.0,1.0,3.0,1651085818200211.0,1
429,0.0,-3.0,-39.0,-9.0,0.0,2.0,3.0,-2.0,1651085818200211.0,1
430,2.0,-1.0,14.0,0.0,1.0,-3.0,-1.0,-2.0,1651085818214215.0,1
431,-1.0,3.0,12.0,13.0,7.0,3.0,1.0,0.0,1651085818214215.0,1
432,-1.0,-3.0,-13.0,-17.0,-7.0,-3.0,-1.0,-1.0,1651085818215171.0,1
433,2.0,1.0,5.0,7.0,6.0,5.0,5.0,3.0,1651085818215171.0,1
434,1.0,1.0,28.0,12.0,7.0,-3.0,-5.0,-4.0,1651085818237524.0,1
435,1.0,-6.0,-23.0,-27.0,-6.0,-3.0,-4.0,-1.0,1651085818237524.0,1
436,-2.0,-1.0,7.0,-1.0,0.0,-4.0,-2.0,-2.0,1651085818237524.0,1
437,-1.0,2.0,12.0,8.0,-3.0,-3.0,1.0,3.0,1651085818237524.0,1
438,-1.0,-2.0,-13.0,-5.0,0.0,2.0,-2.0,-3.0,1651085818259204.0,1
439,3.0,4.0,-1.0,6.0,2.0,2.0,-1.0,1.0,1651085818259204.0,1
440,-9.0,2.0,40.0,10.0,3.0,-2.0,-3.0,-5.0,1651085818260204.0,1
441,-2.0,-5.0,-29.0,-17.0,-9.0,-4.0,0.0,-1.0,1651085818260204.0,1
442,1.0,-1.0,-16.0,-2.0,0.0,1.0,-2.0,0.0,1651085818274381.0,1
443,-1.0,-5.0,-19.0,-11.0,-5.0,-1.0,-2.0,-1.0,1651085818274381.0,1
444,4.0,1.0,2.0,-2.0,-8.0,-2.0,-4.0,-1.0,1651085818275243.0,1
445,-1.0,1.0,21.0,7.0,12.0,2.0,-1.0,-2.0,1651085818275243.0,1
446,-1.0,-3.0,-16.0,0.0,4.0,3.0,3.0,1.0,1651085818295851.0,1
447,-1.0,2.0,7.0,7.0,-2.0,-3.0,-1.0,1.0,1651085818295851.0,1
448,-1.0,1.0,-5.0,-3.0,-5.0,-2.0,1.0,0.0,1651085818297802.0,1
449,-3.0,-3.0,0.0,-8.0,-5.0,-2.0,-3.0,-2.0,1651085818297802.0,1
450,1.0,0.0,-8.0,-3.0,-1.0,2.0,2.0,0.0,1651085818309770.0,1
451,-2.0,0.0,15.0,9.0,3.0,-1.0,-2.0,-2.0,1651085818309770.0,1
452,-2.0,-2.0,-1.0,2.0,3.0,2.0,2.0,1.0,1651085818318747.0,1
453,1.0,2.0,2.0,4.0,-3.0,-1.0,-1.0,0.0,1651085818318747.0,1
454,-2.0,-1.0,9.0,-3.0,0.0,-1.0,0.0,0.0,1651085818333749.0,1
455,-2.0,1.0,5.0,0.0,-1.0,-2.0,-3.0,-2.0,1651085818333749.0,1
456,3.0,-1.0,-19.0,-10.0,-6.0,-4.0,-3.0,0.0,1651085818335744.0,1
457,-2.0,-1.0,-4.0,4.0,-1.0,1.0,0.0,0.0,1651085818335744.0,1
458,-4.0,0.0,0.0,-3.0,2.0,6.0,2.0,-1.0,1651085818356644.0,1
459,5.0,1.0,4.0,2.0,-1.0,-2.0,2.0,3.0,1651085818356644.0,1
460,0.0,-2.0,-9.0,3.0,-3.0,-2.0,-1.0,-3.0,1651085818357674.0,1
461,1.0,2.0,20.0,14.0,8.0,-1.0,0.0,-1.0,1651085818357674.0,1
462,-2.0,-2.0,-7.0,-11.0,-5.0,-2.0,-1.0,-1.0,1651085818378620.0,1
463,-2.0,-2.0,-17.0,2.0,1.0,0.0,0.0,-3.0,1651085818378620.0,1
464,0.0,-2.0,-18.0,-14.0,-2.0,-1.0,-1.0,0.0,1651085818380613.0,1
465,0.0,1.0,19.0,-7.0,-7.0,-2.0,2.0,0.0,1651085818380613.0,1
466,0.0,-2.0,0.0,16.0,6.0,0.0,-2.0,-1.0,1651085818393364.0,1
467,0.0,1.0,2.0,-4.0,2.0,3.0,3.0,1.0,1651085818393364.0,1
468,1.0,0.0,-6.0,2.0,1.0,3.0,3.0,2.0,1651085818400443.0,1
469,0.0,-4.0,-11.0,-11.0,-6.0,-4.0,-3.0,-1.0,1651085818400443.0,1
470,1.0,1.0,6.0,-3.0,-8.0,-5.0,0.0,-1.0,1651085818417387.0,1
471,1.0,4.0,23.0,12.0,10.0,3.0,0.0,0.0,1651085818417387.0,1
472,0.0,-3.0,-14.0,-6.0,0.0,-1.0,2.0,-1.0,1651085818418225.0,1
473,-2.0,-1.0,12.0,2.0,1.0,4.0,2.0,0.0,1651085818418225.0,1
474,-1.0,1.0,-17.0,-7.0,0.0,1.0,-1.0,-3.0,1651085818446639.0,1
475,0.0,3.0,19.0,2.0,-6.0,-1.0,0.0,0.0,1651085818446639.0,1
476,-2.0,-1.0,-3.0,1.0,-3.0,-1.0,-1.0,-1.0,1651085818447508.0,1
477,-1.0,1.0,-10.0,11.0,7.0,0.0,0.0,-3.0,1651085818447508.0,1
478,0.0,2.0,0.0,2.0,-5.0,-4.0,-4.0,2.0,1651085818454616.0,1
479,-2.0,-1.0,-8.0,-17.0,0.0,3.0,2.0,1.0,1651085818454616.0,1
480,-3.0,0.0,3.0,4.0,-3.0,-3.0,-2.0,-1.0,1651085818455455.0,1
481,-2.0,-1.0,-4.0,0.0,-1.0,-1.0,-3.0,-3.0,1651085818455455.0,1
482,-1.0,1.0,13.0,14.0,-1.0,-1.0,-2.0,-1.0,1651085818477208.0,1
483,-3.0,-5.0,1.0,-4.0,3.0,3.0,0.0,-3.0,1651085818477208.0,1
484,3.0,3.0,2.0,-1.0,0.0,-2.0,-2.0,0.0,1651085818478080.0,1
485,0.0,1.0,5.0,12.0,-2.0,-1.0,-2.0,0.0,1651085818478080.0,1
486,1.0,-1.0,1.0,-5.0,8.0,3.0,2.0,1.0,1651085818506255.0,1
487,0.0,-1.0,1.0,3.0,-4.0,-4.0,-2.0,-3.0,1651085818506255.0,1
488,-1.0,-2.0,-7.0,-3.0,0.0,-1.0,-2.0,-2.0,1651085818508093.0,1
489,0.0,0.0,3.0,-1.0,-5.0,-4.0,-4.0,-2.0,1651085818508093.0,1
490,1.0,-2.0,-15.0,-9.0,-3.0,-2.0,0.0,0.0,1651085818514231.0,1
491,-1.0,-1.0,3.0,8.0,-1.0,-3.0,-2.0,-1.0,1651085818514231.0,1
492,1.0,1.0,12.0,6.0,5.0,2.0,0.0,0.0,1651085818520224.0,1
493,0.0,0.0,-10.0,-12.0,-1.0,1.0,5.0,1.0,1651085818520224.0,1
494,1.0,-2.0,2.0,-16.0,-7.0,-4.0,-3.0,0.0,1651085818537382.0,1
495,-1.0,1.0,8.0,25.0,13.0,4.0,0.0,-1.0,1651085818537382.0,1
496,-1.0,-1.0,-4.0,-7.0,-5.0,-1.0,0.0,-1.0,1651085818538382.0,1
497,-1.0,1.0,20.0,16.0,-1.0,-3.0,-2.0,-1.0,1651085818538382.0,1
498,-1.0,-2.0,-6.0,-14.0,-4.0,-2.0,-3.0,-3.0,1651085818567501.0,1
499,-2.0,-3.0,-16.0,-11.0,-6.0,-1.0,0.0,1.0,1651085818567501.0,1
500,0.0,1.0,16.0,-3.0,0.0,-2.0,-4.0,1.0,1651085818568274.0,1
501,0.0,-4.0,-24.0,12.0,2.0,0.0,0.0,0.0,1651085818568274.0,1
502,-4.0,-2.0,13.0,4.0,2.0,3.0,2.0,-2.0,1651085818573264.0,1
503,-1.0,0.0,-6.0,-14.0,-5.0,0.0,-2.0,-1.0,1651085818573264.0,1
504,-1.0,-1.0,4.0,8.0,5.0,1.0,2.0,0.0,1651085818580373.0,1
505,-2.0,-3.0,-1.0,-6.0,-4.0,-1.0,0.0,5.0,1651085818580373.0,1
506,0.0,1.0,-7.0,-6.0,2.0,-1.0,-5.0,-9.0,1651085818597315.0,1
507,-1.0,1.0,12.0,7.0,-5.0,-4.0,-3.0,1.0,1651085818597315.0,1
508,-1.0,-4.0,-12.0,-4.0,-1.0,2.0,0.0,-1.0,1651085818598202.0,1
509,0.0,0.0,15.0,-2.0,8.0,4.0,2.0,0.0,1651085818598202.0,1
510,0.0,-3.0,-13.0,-7.0,-3.0,-2.0,3.0,-1.0,1651085818618202.0,1
511,1.0,4.0,15.0,13.0,2.0,0.0,2.0,-1.0,1651085818618202.0,1
512,2.0,-1.0,-15.0,-3.0,-1.0,2.0,1.0,2.0,1651085818625312.0,1
513,2.0,0.0,2.0,-3.0,-7.0,-1.0,-1.0,0.0,1651085818625312.0,1
514,-2.0,0.0,6.0,5.0,5.0,-5.0,-5.0,-2.0,1651085818634277.0,1
515,-3.0,0.0,-9.0,-12.0,-2.0,-1.0,1.0,-2.0,1651085818634277.0,1
516,0.0,2.0,7.0,12.0,1.0,-1.0,2.0,3.0,1651085818640521.0,1
517,-1.0,-4.0,-24.0,-8.0,0.0,-2.0,-3.0,-3.0,1651085818640521.0,1
518,1.0,1.0,5.0,-6.0,-1.0,1.0,2.0,1.0,1651085818656363.0,1
519,1.0,-4.0,5.0,1.0,-4.0,0.0,3.0,2.0,1651085818656363.0,1
520,-1.0,-2.0,-4.0,2.0,5.0,4.0,2.0,-1.0,1651085818658247.0,1
521,1.0,4.0,11.0,-3.0,0.0,1.0,1.0,-1.0,1651085818658247.0,1
522,1.0,-4.0,-4.0,-2.0,-4.0,-3.0,-2.0,2.0,1651085818679220.0,1
523,-1.0,-2.0,-10.0,1.0,-2.0,-1.0,0.0,0.0,1651085818679220.0,1
524,-1.0,1.0,5.0,-6.0,-3.0,-1.0,-2.0,-2.0,1651085818680221.0,1
525,-2.0,-1.0,-13.0,-5.0,-2.0,-2.0,-1.0,-1.0,1651085818680221.0,1
526,-3.0,-1.0,6.0,14.0,15.0,6.0,2.0,2.0,1651085818694340.0,1
527,3.0,1.0,-4.0,-13.0,-2.0,-2.0,1.0,0.0,1651085818694340.0,1
528,-2.0,-2.0,-18.0,-2.0,-2.0,-3.0,0.0,-3.0,1651085818700341.0,1
529,-1.0,1.0,7.0,3.0,-3.0,-5.0,-6.0,-1.0,1651085818700341.0,1
530,0.0,1.0,13.0,4.0,-2.0,2.0,0.0,-7.0,1651085818717416.0,1
531,-3.0,-3.0,-22.0,-7.0,-5.0,-5.0,-5.0,1.0,1651085818717416.0,1
532,1.0,5.0,25.0,13.0,11.0,3.0,2.0,1.0,1651085818718224.0,1
533,-2.0,-6.0,-42.0,-28.0,-10.0,-3.0,-2.0,-4.0,1651085818718224.0,1
534,1.0,1.0,1.0,15.0,1.0,-1.0,3.0,3.0,1651085818739219.0,1
535,-1.0,-2.0,-1.0,-10.0,1.0,-1.0,-2.0,-3.0,1651085818739219.0,1
536,-2.0,-1.0,5.0,3.0,-8.0,-2.0,-2.0,-4.0,1651085818740220.0,1
537,0.0,0.0,12.0,3.0,4.0,2.0,2.0,2.0,1651085818740220.0,1
538,2.0,0.0,2.0,-2.0,-1.0,1.0,1.0,3.0,1651085818754404.0,1
539,-3.0,0.0,-3.0,-7.0,-2.0,-1.0,-2.0,-2.0,1651085818754404.0,1
540,-2.0,0.0,9.0,-2.0,-6.0,-4.0,-3.0,1.0,1651085818760394.0,1
541,0.0,1.0,-4.0,0.0,10.0,4.0,1.0,-1.0,1651085818760394.0,1
542,-1.0,-3.0,-2.0,9.0,4.0,-4.0,-6.0,-1.0,1651085818784356.0,1
543,0.0,1.0,-13.0,-2.0,-3.0,-3.0,-3.0,-4.0,1651085818784356.0,1
544,0.0,-2.0,-6.0,-8.0,-3.0,1.0,0.0,1.0,1651085818785204.0,1
545,1.0,1.0,19.0,-5.0,-6.0,-2.0,-3.0,-2.0,1651085818785204.0,1
546,-2.0,3.0,17.0,14.0,-4.0,-1.0,1.0,2.0,1651085818799249.0,1
547,-2.0,-3.0,-54.0,-13.0,4.0,2.0,-1.0,2.0,1651085818799249.0,1
548,-1.0,-1.0,9.0,4.0,0.0,-2.0,-4.0,-5.0,1651085818800249.0,1
549,4.0,2.0,-3.0,-8.0,-4.0,0.0,2.0,-1.0,1651085818800249.0,1
550,-4.0,-1.0,-8.0,9.0,9.0,6.0,3.0,2.0,1651085818814344.0,1
551,-1.0,0.0,34.0,5.0,-4.0,-3.0,0.0,-3.0,1651085818814344.0,1
552,0.0,-4.0,-30.0,-19.0,1.0,2.0,1.0,1.0,1651085818820381.0,1
553,1.0,4.0,26.0,11.0,-9.0,-6.0,-2.0,2.0,1651085818820381.0,1
554,-1.0,-9.0,-15.0,2.0,12.0,2.0,0.0,0.0,1651085818844393.0,1
555,2.0,4.0,17.0,13.0,0.0,-2.0,-1.0,0.0,1651085818844393.0,1
556,-2.0,1.0,-24.0,-3.0,-3.0,-1.0,1.0,2.0,1651085818845229.0,1
557,-2.0,-1.0,10.0,3.0,1.0,2.0,2.0,-1.0,1651085818845229.0,1
558,0.0,-1.0,-3.0,-10.0,-13.0,-5.0,-4.0,-3.0,1651085818859425.0,1
559,-1.0,-3.0,-13.0,-6.0,3.0,1.0,2.0,-1.0,1651085818859425.0,1
560,0.0,0.0,21.0,10.0,-4.0,-6.0,-4.0,-2.0,1651085818860379.0,1
561,-1.0,-1.0,-37.0,-17.0,8.0,5.0,3.0,1.0,1651085818860379.0,1
562,1.0,1.0,-7.0,4.0,-2.0,0.0,1.0,-1.0,1651085818873225.0,1
563,1.0,1.0,7.0,-2.0,0.0,-1.0,0.0,3.0,1651085818873225.0,1
564,-2.0,-2.0,15.0,-12.0,-7.0,-2.0,0.0,-2.0,1651085818882145.0,1
565,-1.0,-6.0,5.0,14.0,-7.0,-7.0,-5.0,-2.0,1651085818882145.0,1
566,0.0,-3.0,-1.0,-16.0,-3.0,5.0,2.0,2.0,1651085818904407.0,1
567,0.0,9.0,21.0,23.0,17.0,3.0,-1.0,-2.0,1651085818904407.0,1
568,-2.0,-3.0,-9.0,-3.0,1.0,2.0,3.0,-1.0,1651085818905235.0,1
569,1.0,-4.0,12.0,8.0,-4.0,-5.0,-2.0,1.0,1651085818905235.0,1
570,-3.0,0.0,-33.0,-10.0,-4.0,-1.0,2.0,0.0,1651085818919359.0,1
571,0.0,-4.0,-4.0,-8.0,-9.0,-3.0,-4.0,-2.0,1651085818919359.0,1
572,-2.0,0.0,-2.0,-2.0,-3.0,-2.0,-1.0,-2.0,1651085818920237.0,1
573,-1.0,-10.0,-14.0,-12.0,4.0,3.0,2.0,-2.0,1651085818920237.0,1
574,3.0,17.0,35.0,19.0,-3.0,-1.0,3.0,2.0,1651085818933404.0,1
575,0.0,-9.0,-4.0,-2.0,-2.0,-2.0,0.0,1.0,1651085818933404.0,1
576,-3.0,7.0,-8.0,-9.0,-2.0,-2.0,-1.0,-1.0,1651085818941231.0,1
577,-1.0,1.0,0.0,-7.0,-5.0,-2.0,-3.0,-1.0,1651085818941231.0,1
578,-2.0,-5.0,21.0,11.0,3.0,0.0,1.0,-1.0,1651085818956350.0,1
579,2.0,0.0,-7.0,-6.0,-8.0,-1.0,0.0,-2.0,1651085818956350.0,1
580,1.0,-14.0,-24.0,-2.0,12.0,-1.0,-3.0,1.0,1651085818958217.0,1
581,-1.0,5.0,9.0,6.0,5.0,3.0,1.0,0.0,1651085818958217.0,1
582,2.0,-1.0,4.0,1.0,-8.0,-3.0,-5.0,-3.0,1651085818979367.0,1
583,-6.0,-3.0,-4.0,-1.0,7.0,7.0,5.0,-1.0,1651085818979367.0,1
584,2.0,1.0,21.0,4.0,-5.0,-2.0,-3.0,-1.0,1651085818981220.0,1
585,-2.0,3.0,-8.0,4.0,2.0,1.0,-1.0,-1.0,1651085818981220.0,1
586,0.0,-1.0,-10.0,-13.0,-2.0,-4.0,-2.0,-1.0,1651085819001296.0,1
587,-1.0,-2.0,-6.0,2.0,-3.0,0.0,2.0,2.0,1651085819001296.0,1
588,-1.0,-1.0,1.0,0.0,-1.0,-1.0,-3.0,-3.0,1651085819003240.0,1
589,-3.0,-1.0,3.0,0.0,-10.0,-2.0,1.0,-1.0,1651085819003240.0,1
590,-1.0,-2.0,-3.0,-2.0,16.0,6.0,0.0,1.0,1651085819016910.0,1
591,-1.0,-5.0,-8.0,-11.0,-6.0,-3.0,-1.0,-1.0,1651085819016910.0,1
592,0.0,6.0,23.0,5.0,-4.0,-2.0,0.0,1.0,1651085819017911.0,1
593,-1.0,-9.0,-15.0,7.0,7.0,-1.0,-2.0,-1.0,1651085819017911.0,1
594,-1.0,9.0,5.0,-4.0,-11.0,-5.0,-1.0,0.0,1651085819039215.0,1
595,0.0,3.0,1.0,-8.0,0.0,0.0,0.0,-1.0,1651085819039215.0,1
596,-2.0,-6.0,1.0,4.0,-2.0,1.0,0.0,1.0,1651085819040215.0,1
597,-1.0,-1.0,-3.0,-2.0,-5.0,-4.0,-2.0,-1.0,1651085819040215.0,1
598,1.0,-5.0,-11.0,-4.0,-1.0,-1.0,0.0,-1.0,1651085819052252.0,1
599,-3.0,-1.0,2.0,2.0,0.0,-2.0,-3.0,0.0,1651085819052252.0,1
600,0.0,1.0,-1.0,2.0,-1.0,1.0,0.0,0.0,1651085819067885.0,1
601,-1.0,4.0,4.0,0.0,7.0,1.0,0.0,0.0,1651085819067885.0,1
602,-2.0,1.0,3.0,3.0,2.0,1.0,2.0,0.0,1651085819077399.0,1
603,1.0,-1.0,5.0,4.0,-4.0,-3.0,-1.0,-1.0,1651085819077399.0,1
604,1.0,-2.0,-8.0,-5.0,1.0,-1.0,-2.0,-1.0,1651085819078267.0,1
605,-1.0,1.0,1.0,1.0,0.0,-1.0,-2.0,-1.0,1651085819078267.0,1
606,1.0,-2.0,0.0,-2.0,-1.0,-2.0,-1.0,0.0,1651085819099233.0,1
607,1.0,-3.0,3.0,-1.0,-3.0,0.0,0.0,-1.0,1651085819099233.0,1
608,-1.0,-2.0,-6.0,1.0,3.0,0.0,0.0,0.0,1651085819100235.0,1
609,2.0,0.0,5.0,2.0,4.0,2.0,2.0,0.0,1651085819100235.0,1
610,-4.0,-2.0,-2.0,-2.0,-6.0,-2.0,-2.0,0.0,1651085819113504.0,1
611,3.0,1.0,-1.0,0.0,0.0,1.0,1.0,7.0,1651085819113504.0,1
612,0.0,2.0,-2.0,0.0,0.0,-1.0,-2.0,-22.0,1651085819121734.0,1
613,-2.0,0.0,2.0,2.0,-1.0,2.0,-1.0,-1.0,1651085819121734.0,1
614,-1.0,0.0,-3.0,-5.0,-5.0,-3.0,-2.0,0.0,1651085819137440.0,1
615,-2.0,0.0,-3.0,1.0,1.0,-2.0,-2.0,-3.0,1651085819137440.0,1
616,1.0,4.0,4.0,0.0,-1.0,-1.0,1.0,8.0,1651085819139438.0,1
617,0.0,0.0,2.0,-4.0,-2.0,-2.0,-1.0,0.0,1651085819139438.0,1
618,-1.0,-5.0,-5.0,-3.0,-2.0,1.0,-1.0,-4.0,1651085819159231.0,1
619,0.0,0.0,1.0,2.0,4.0,2.0,1.0,2.0,1651085819159231.0,1
620,0.0,1.0,2.0,0.0,-1.0,-1.0,0.0,4.0,1651085819160231.0,1
621,0.0,-2.0,-3.0,-2.0,-2.0,-1.0,0.0,-1.0,1651085819160231.0,1
622,-2.0,-3.0,0.0,2.0,2.0,1.0,0.0,2.0,1651085819173176.0,1
623,-1.0,4.0,-2.0,1.0,-4.0,-2.0,-2.0,-4.0,1651085819173176.0,1
624,-1.0,2.0,8.0,-1.0,1.0,0.0,0.0,2.0,1651085819181496.0,1
625,-3.0,-3.0,-15.0,-1.0,0.0,-1.0,0.0,-1.0,1651085819181496.0,1
626,3.0,0.0,11.0,0.0,-1.0,-2.0,-1.0,0.0,1651085819196460.0,1
627,-1.0,12.0,8.0,1.0,-1.0,-1.0,-1.0,-2.0,1651085819196460.0,1
628,-2.0,-5.0,-13.0,-1.0,0.0,0.0,0.0,-1.0,1651085819198333.0,1
629,0.0,7.0,5.0,2.0,4.0,2.0,1.0,1.0,1651085819198333.0,1
630,-3.0,-18.0,-10.0,-5.0,-3.0,0.0,1.0,-1.0,1651085819219373.0,1
631,-1.0,7.0,4.0,-1.0,2.0,-1.0,-3.0,-2.0,1651085819219373.0,1
632,0.0,-4.0,0.0,0.0,-1.0,0.0,-1.0,3.0,1651085819220247.0,1
633,0.0,-2.0,1.0,0.0,-2.0,-2.0,-2.0,-1.0,1651085819220247.0,1
634,1.0,11.0,0.0,-1.0,1.0,1.0,0.0,1.0,1651085819233207.0,1
635,-1.0,-11.0,0.0,3.0,1.0,0.0,-1.0,-2.0,1651085819233207.0,1
636,-1.0,7.0,-3.0,0.0,1.0,1.0,1.0,0.0,1651085819241232.0,1
637,0.0,-3.0,0.0,-5.0,-6.0,-3.0,-2.0,0.0,1651085819241232.0,1
638,-1.0,-2.0,1.0,-6.0,-6.0,-1.0,0.0,-1.0,1651085819256962.0,1
639,-1.0,-3.0,-11.0,3.0,8.0,1.0,-1.0,0.0,1651085819256962.0,1
640,-1.0,-4.0,0.0,1.0,1.0,-2.0,-1.0,0.0,1651085819257812.0,1
641,1.0,4.0,3.0,-3.0,-2.0,-3.0,0.0,-1.0,1651085819257812.0,1
642,-1.0,-1.0,-1.0,4.0,2.0,2.0,1.0,0.0,1651085819280179.0,1
643,-1.0,-1.0,3.0,-2.0,-4.0,-1.0,2.0,-1.0,1651085819280179.0,1
644,-1.0,-3.0,-2.0,-3.0,-1.0,-1.0,-1.0,0.0,1651085819280361.0,1
645,1.0,0.0,2.0,1.0,5.0,0.0,-1.0,0.0,1651085819280361.0,1
646,0.0,0.0,-4.0,-1.0,-4.0,-4.0,-3.0,-2.0,1651085819309351.0,1
647,1.0,-4.0,2.0,-3.0,-3.0,-2.0,1.0,0.0,1651085819309351.0,1
648,1.0,0.0,-3.0,0.0,1.0,0.0,-1.0,0.0,1651085819310319.0,1
649,-2.0,-2.0,1.0,-1.0,2.0,0.0,-1.0,1.0,1651085819310319.0,1
650,-2.0,0.0,0.0,3.0,2.0,1.0,0.0,0.0,1651085819316322.0,1
651,-1.0,-3.0,-4.0,-1.0,-1.0,0.0,-1.0,-1.0,1651085819316322.0,1
652,-1.0,-3.0,-1.0,-2.0,-4.0,0.0,-1.0,2.0,1651085819318296.0,1
653,-1.0,0.0,-2.0,0.0,-1.0,0.0,-1.0,-2.0,1651085819318296.0,1
654,0.0,0.0,-2.0,0.0,0.0,-1.0,-2.0,-1.0,1651085819339302.0,1
655,0.0,-2.0,-1.0,-1.0,0.0,0.0,-1.0,-1.0,1651085819339302.0,1
656,-1.0,2.0,-1.0,1.0,1.0,1.0,0.0,1.0,1651085819340218.0,1
657,-2.0,-3.0,1.0,1.0,2.0,2.0,1.0,1.0,1651085819340218.0,1
658,-1.0,-1.0,-3.0,1.0,-1.0,-1.0,1.0,1.0,1651085819361313.0,1
659,0.0,-2.0,0.0,0.0,-6.0,-4.0,-2.0,-3.0,1651085819361313.0,1
660,-2.0,-1.0,0.0,0.0,4.0,1.0,0.0,1.0,1651085819369179.0,1
661,0.0,-3.0,-2.0,0.0,-2.0,0.0,-1.0,0.0,1651085819369179.0,1
662,0.0,1.0,-3.0,-3.0,-3.0,-1.0,-2.0,-2.0,1651085819377273.0,1
663,0.0,1.0,2.0,3.0,2.0,1.0,1.0,1.0,1651085819377273.0,1
664,-2.0,-2.0,0.0,-1.0,-2.0,-2.0,2.0,0.0,1651085819378183.0,1
665,1.0,1.0,0.0,-1.0,-2.0,-3.0,0.0,-1.0,1651085819378183.0,1
666,0.0,-1.0,0.0,-1.0,0.0,-2.0,-2.0,-2.0,1651085819399234.0,1
667,0.0,-3.0,0.0,-1.0,-3.0,1.0,1.0,-1.0,1651085819399234.0,1
668,1.0,-1.0,-2.0,0.0,-2.0,-2.0,-2.0,0.0,1651085819400234.0,1
669,-1.0,-1.0,1.0,2.0,2.0,0.0,0.0,0.0,1651085819400234.0,1
670,0.0,1.0,-3.0,-1.0,0.0,-2.0,-1.0,2.0,1651085819422559.0,1
671,-2.0,1.0,-1.0,-2.0,0.0,0.0,0.0,-2.0,1651085819422559.0,1
672,-2.0,0.0,1.0,0.0,2.0,0.0,0.0,0.0,1651085819423093.0,1
673,-1.0,0.0,-1.0,-2.0,-3.0,-3.0,-3.0,-1.0,1651085819423093.0,1
674,0.0,0.0,2.0,-1.0,0.0,0.0,-1.0,-1.0,1651085819436102.0,1
675,-1.0,-2.0,-2.0,-2.0,0.0,0.0,-2.0,-1.0,1651085819436102.0,1
676,1.0,0.0,-2.0,0.0,0.0,0.0,-1.0,-1.0,1651085819443197.0,1
677,0.0,1.0,-1.0,-1.0,-1.0,-2.0,0.0,0.0,1651085819443197.0,1
678,1.0,0.0,1.0,-1.0,-1.0,-1.0,0.0,0.0,1651085819459237.0,1
679,0.0,1.0,1.0,-1.0,0.0,0.0,-1.0,0.0,1651085819459237.0,1
680,-1.0,0.0,-1.0,-2.0,-3.0,-2.0,-2.0,-3.0,1651085819465391.0,1
681,-1.0,-3.0,-1.0,0.0,1.0,1.0,-2.0,-1.0,1651085819465391.0,1
682,-2.0,-1.0,-2.0,0.0,2.0,0.0,1.0,-1.0,1651085819481887.0,1
683,0.0,1.0,-3.0,-1.0,-2.0,-2.0,-2.0,2.0,1651085819481887.0,1
684,-1.0,-2.0,0.0,2.0,1.0,3.0,2.0,-1.0,1651085819482887.0,1
685,0.0,-1.0,-2.0,0.0,0.0,1.0,0.0,1.0,1651085819482887.0,1
686,0.0,2.0,-2.0,-1.0,-2.0,-1.0,0.0,0.0,1651085819495948.0,1
687,0.0,0.0,-1.0,0.0,-1.0,-1.0,1.0,-1.0,1651085819495948.0,1
688,1.0,1.0,-2.0,0.0,-4.0,-2.0,-2.0,2.0,1651085819504372.0,1
689,-1.0,-1.0,-1.0,-1.0,-3.0,-2.0,-2.0,-1.0,1651085819504372.0,1
690,-3.0,-4.0,1.0,3.0,5.0,4.0,-1.0,0.0,1651085819518394.0,1
691,0.0,-3.0,2.0,0.0,3.0,0.0,1.0,1.0,1651085819518394.0,1
692,0.0,-1.0,-1.0,-2.0,-1.0,-2.0,-1.0,-1.0,1651085819520389.0,1
693,0.0,-1.0,0.0,-3.0,-4.0,-2.0,1.0,-1.0,1651085819520389.0,1
694,2.0,1.0,-2.0,-3.0,-3.0,-3.0,-2.0,-1.0,1651085819541726.0,1
695,-2.0,-1.0,-1.0,-2.0,1.0,-1.0,1.0,-1.0,1651085819541726.0,1
696,-1.0,0.0,0.0,1.0,3.0,1.0,0.0,-1.0,1651085819542726.0,1
697,-1.0,1.0,-1.0,-1.0,-1.0,-1.0,-1.0,-1.0,1651085819542726.0,1
698,-2.0,-2.0,-2.0,-1.0,-1.0,-1.0,0.0,0.0,1651085819556368.0,1
699,-1.0,0.0,0.0,-1.0,-3.0,-2.0,0.0,0.0,1651085819556368.0,1
700,1.0,-2.0,-2.0,1.0,2.0,1.0,2.0,0.0,1651085819562530.0,1
701,0.0,1.0,1.0,0.0,2.0,0.0,-1.0,-1.0,1651085819562530.0,1
702,-1.0,-2.0,1.0,-1.0,0.0,-1.0,-1.0,0.0,1651085819587380.0,1
703,0.0,0.0,-3.0,-2.0,-5.0,-4.0,-2.0,-1.0,1651085819587380.0,1
704,-2.0,0.0,0.0,1.0,0.0,0.0,-1.0,-3.0,1651085819588254.0,1
705,-1.0,0.0,0.0,1.0,2.0,2.0,2.0,0.0,1651085819588254.0,1
706,-1.0,0.0,0.0,-1.0,-1.0,-3.0,-1.0,-1.0,1651085819601233.0,1
707,0.0,0.0,2.0,-1.0,-2.0,0.0,-1.0,0.0,1651085819601233.0,1
708,0.0,-1.0,0.0,-3.0,-4.0,-4.0,-3.0,-1.0,1651085819603252.0,1
709,0.0,0.0,-1.0,0.0,2.0,0.0,-1.0,-1.0,1651085819603252.0,1
710,0.0,-2.0,-1.0,0.0,0.0,0.0,-1.0,0.0,1651085819616366.0,1
711,0.0,-2.0,-2.0,-1.0,0.0,0.0,-1.0,-2.0,1651085819616366.0,1
712,0.0,-1.0,-3.0,-3.0,-2.0,-1.0,1.0,-1.0,1651085819623349.0,1
713,-2.0,0.0,-2.0,-1.0,-2.0,-2.0,0.0,-1.0,1651085819623349.0,1
714,-2.0,-1.0,-1.0,-1.0,-1.0,0.0,-1.0,0.0,1651085819647346.0,1
715,-1.0,-1.0,-2.0,1.0,1.0,-1.0,0.0,0.0,1651085819647346.0,1
716,-1.0,-1.0,0.0,0.0,0.0,0.0,-1.0,1.0,1651085819648221.0,1
717,0.0,-3.0,0.0,1.0,0.0,1.0,-1.0,0.0,1651085819648221.0,1
718,-1.0,2.0,1.0,0.0,-3.0,-1.0,1.0,-1.0,1651085819662472.0,1
719,-1.0,0.0,-1.0,0.0,0.0,-1.0,-1.0,-1.0,1651085819662472.0,1
720,-1.0,1.0,0.0,-2.0,-2.0,-1.0,-1.0,-1.0,1651085819663098.0,1
721,-2.0,0.0,-1.0,3.0,3.0,5.0,1.0,1.0,1651085819663098.0,1
722,-2.0,-3.0,-2.0,2.0,0.0,0.0,-1.0,0.0,1651085819675254.0,1
723,-1.0,1.0,-3.0,-1.0,-1.0,-1.0,-1.0,0.0,1651085819675254.0,1
724,2.0,-1.0,1.0,-1.0,-1.0,-2.0,-1.0,1.0,1651085819684107.0,1
725,0.0,3.0,1.0,-3.0,0.0,-3.0,-1.0,-2.0,1651085819684107.0,1
726,0.0,2.0,-1.0,-2.0,-2.0,-1.0,0.0,1.0,1651085819699338.0,1
727,-2.0,-1.0,-1.0,-1.0,-1.0,-1.0,0.0,0.0,1651085819699338.0,1
728,0.0,-2.0,-1.0,-2.0,-1.0,-1.0,0.0,-2.0,1651085819700211.0,1
729,1.0,-1.0,0.0,0.0,-2.0,0.0,0.0,0.0,1651085819700211.0,1
730,0.0,-2.0,1.0,-1.0,0.0,-1.0,-2.0,-2.0,1651085819722464.0,1
731,1.0,-2.0,0.0,-1.0,-2.0,-2.0,-2.0,1.0,1651085819722464.0,1
732,-1.0,0.0,1.0,1.0,2.0,2.0,2.0,-1.0,1651085819723093.0,1
733,0.0,-1.0,-2.0,-3.0,-3.0,-2.0,-2.0,-1.0,1651085819723093.0,1
734,0.0,1.0,0.0,0.0,1.0,0.0,0.0,0.0,1651085819736105.0,1
735,-1.0,0.0,0.0,2.0,3.0,3.0,-1.0,0.0,1651085819736105.0,1
736,-1.0,0.0,0.0,-3.0,-1.0,-1.0,-2.0,0.0,1651085819742086.0,1
737,-1.0,-2.0,-1.0,-2.0,-2.0,-2.0,0.0,-1.0,1651085819742086.0,1
738,0.0,-2.0,0.0,-1.0,-1.0,-1.0,0.0,-1.0,1651085819759209.0,1
739,1.0,1.0,0.0,1.0,1.0,0.0,0.0,0.0,1651085819759209.0,1
740,0.0,-1.0,-2.0,0.0,-2.0,-2.0,0.0,0.0,1651085819760209.0,0
741,0.0,0.0,-1.0,-1.0,-3.0,-2.0,-1.0,-1.0,1651085819760209.0,0
742,0.0,0.0,-2.0,-2.0,-2.0,-4.0,-2.0,0.0,1651085819781765.0,0
743,0.0,-2.0,1.0,0.0,1.0,2.0,1.0,-1.0,1651085819781765.0,0
744,0.0,-1.0,-2.0,1.0,-1.0,-1.0,0.0,0.0,1651085819782764.0,0
745,-1.0,-1.0,0.0,2.0,3.0,2.0,0.0,-1.0,1651085819782764.0,0
746,1.0,-1.0,-1.0,0.0,-3.0,-2.0,-2.0,1.0,1651085819795379.0,0
747,0.0,-1.0,-1.0,-4.0,-6.0,-4.0,-1.0,-1.0,1651085819795379.0,0
748,-2.0,0.0,-2.0,-1.0,-1.0,2.0,-2.0,-1.0,1651085819804091.0,0
749,0.0,-2.0,0.0,0.0,4.0,4.0,2.0,0.0,1651085819804091.0,0
750,-1.0,-1.0,-2.0,-1.0,2.0,0.0,2.0,-3.0,1651085819819083.0,0
751,1.0,-2.0,-2.0,0.0,0.0,0.0,0.0,-2.0,1651085819819083.0,0
752,-2.0,2.0,-1.0,-2.0,-4.0,-3.0,-2.0,-1.0,1651085819819981.0,0
753,-3.0,2.0,-1.0,1.0,-2.0,-3.0,-1.0,0.0,1651085819819981.0,0
754,0.0,0.0,-2.0,-1.0,-1.0,1.0,-1.0,-2.0,1651085819841205.0,0
755,-2.0,-1.0,1.0,1.0,-1.0,0.0,-1.0,-2.0,1651085819841205.0,0
756,-2.0,-1.0,-1.0,0.0,0.0,0.0,1.0,0.0,1651085819843234.0,0
757,-2.0,0.0,0.0,-1.0,-1.0,0.0,-2.0,-1.0,1651085819843234.0,0
758,-1.0,0.0,-2.0,0.0,-2.0,-1.0,-1.0,1.0,1651085819855335.0,0
759,0.0,-2.0,0.0,-2.0,0.0,-1.0,1.0,-1.0,1651085819855335.0,0
760,0.0,-2.0,1.0,3.0,4.0,2.0,1.0,-1.0,1651085819864329.0,0
761,0.0,-1.0,0.0,-2.0,-2.0,0.0,0.0,1.0,1651085819864329.0,0
762,-1.0,-1.0,-2.0,-3.0,-1.0,0.0,-1.0,0.0,1651085819879241.0,0
763,-1.0,0.0,-1.0,-1.0,-1.0,-1.0,-2.0,-1.0,1651085819879241.0,0
764,-1.0,-2.0,1.0,0.0,1.0,-1.0,-3.0,0.0,1651085819880243.0,0
765,-1.0,-1.0,-1.0,0.0,-1.0,0.0,0.0,-1.0,1651085819880243.0,0
766,-1.0,0.0,0.0,0.0,-1.0,1.0,0.0,-1.0,1651085819901243.0,0
767,-1.0,-1.0,-1.0,0.0,0.0,1.0,0.0,-1.0,1651085819901243.0,0
768,1.0,1.0,-1.0,-2.0,-5.0,-2.0,-1.0,-1.0,1651085819903248.0,0
769,0.0,0.0,-1.0,0.0,-1.0,-2.0,-3.0,-1.0,1651085819903248.0,0
770,-1.0,1.0,-1.0,1.0,2.0,1.0,1.0,0.0,1651085819924391.0,0
771,-1.0,1.0,-3.0,-1.0,-1.0,-2.0,0.0,0.0,1651085819924391.0,0
772,-2.0,-2.0,-1.0,1.0,-3.0,-3.0,0.0,0.0,1651085819925229.0,0
773,-1.0,0.0,-2.0,0.0,-2.0,0.0,0.0,-1.0,1651085819925229.0,0
774,-1.0,0.0,1.0,1.0,0.0,0.0,0.0,-1.0,1651085819939243.0,0
775,0.0,1.0,-1.0,-3.0,0.0,-1.0,0.0,0.0,1651085819939243.0,0
776,-2.0,-1.0,-1.0,-1.0,-2.0,-1.0,-1.0,0.0,1651085819940244.0,0
777,-1.0,0.0,0.0,3.0,1.0,1.0,1.0,-1.0,1651085819940244.0,0
778,1.0,-1.0,-1.0,-2.0,1.0,0.0,1.0,-2.0,1651085819961480.0,0
779,-1.0,-1.0,-1.0,-1.0,-2.0,-1.0,-1.0,-2.0,1651085819961480.0,0
780,0.0,-2.0,0.0,-1.0,-1.0,0.0,-1.0,-2.0,1651085819962512.0,0
781,-1.0,-2.0,0.0,-2.0,-2.0,-2.0,-1.0,0.0,1651085819962512.0,0
782,0.0,-1.0,0.0,1.0,0.0,1.0,-2.0,0.0,1651085819975371.0,0
783,0.0,-1.0,-1.0,-2.0,-2.0,-2.0,0.0,-1.0,1651085819975371.0,0
784,-1.0,-1.0,0.0,0.0,-3.0,-1.0,-2.0,0.0,1651085819984322.0,0
785,-1.0,1.0,-1.0,-1.0,0.0,0.0,0.0,-1.0,1651085819984322.0,0
786,-1.0,-1.0,0.0,0.0,-3.0,0.0,0.0,0.0,1651085819999244.0,0
787,1.0,1.0,-1.0,-3.0,-2.0,0.0,0.0,-1.0,1651085819999244.0,0
788,0.0,1.0,0.0,0.0,-1.0,-1.0,1.0,0.0,1651085820000210.0,0
789,0.0,0.0,-1.0,0.0,0.0,-2.0,-1.0,0.0,1651085820000210.0,0
790,0.0,-2.0,0.0,1.0,-1.0,-1.0,-1.0,-2.0,1651085820021197.0,0
791,0.0,-1.0,-2.0,0.0,0.0,0.0,-1.0,-1.0,1651085820021197.0,0
792,0.0,-1.0,-2.0,-4.0,-1.0,-2.0,0.0,-1.0,1651085820023148.0,0
793,-1.0,1.0,0.0,0.0,0.0,1.0,-1.0,-1.0,1651085820023148.0,0
794,-2.0,-1.0,1.0,1.0,3.0,0.0,0.0,2.0,1651085820035117.0,0
795,-3.0,0.0,0.0,1.0,1.0,-1.0,0.0,-1.0,1651085820035117.0,0
796,1.0,-1.0,-2.0,-1.0,-2.0,-1.0,0.0,0.0,1651085820045201.0,0
797,1.0,-3.0,-2.0,-2.0,-3.0,-4.0,-2.0,0.0,1651085820045201.0,0
798,-1.0,-1.0,-1.0,-2.0,-2.0,-1.0,-1.0,-1.0,1651085820058594.0,0
799,0.0,0.0,1.0,1.0,0.0,0.0,0.0,-1.0,1651085820058594.0,0
800,-2.0,0.0,0.0,-2.0,-1.0,-3.0,-1.0,1.0,1651085820060642.0,0
801,0.0,-1.0,-1.0,-2.0,-3.0,1.0,0.0,-1.0,1651085820060642.0,0
802,0.0,1.0,-3.0,0.0,1.0,-1.0,0.0,-1.0,1651085820081951.0,0
803,-3.0,-2.0,-3.0,-1.0,-1.0,-1.0,-1.0,0.0,1651085820081951.0,0
804,-1.0,0.0,2.0,4.0,5.0,3.0,0.0,-2.0,1651085820082951.0,0
805,0.0,-3.0,-3.0,0.0,1.0,-2.0,0.0,1.0,1651085820082951.0,0
806,0.0,-1.0,0.0,-3.0,-3.0,-3.0,0.0,-1.0,1651085820096072.0,0
807,-1.0,2.0,0.0,-1.0,-1.0,-2.0,-2.0,0.0,1651085820096072.0,0
808,-1.0,1.0,-1.0,0.0,-1.0,0.0,-1.0,0.0,1651085820103895.0,0
809,-1.0,-2.0,-1.0,-3.0,-3.0,-1.0,-1.0,-2.0,1651085820103895.0,0
810,-1.0,-1.0,-2.0,-2.0,-3.0,-1.0,0.0,-1.0,1651085820119281.0,0
811,-1.0,0.0,2.0,-1.0,-1.0,0.0,-1.0,-1.0,1651085820119281.0,0
812,-1.0,-1.0,1.0,2.0,4.0,1.0,1.0,-1.0,1651085820120280.0,0
813,1.0,3.0,0.0,0.0,0.0,1.0,0.0,0.0,1651085820120280.0,0
814,-1.0,2.0,-3.0,-2.0,-2.0,-2.0,-2.0,0.0,1651085820141714.0,0
815,-1.0,-2.0,-1.0,2.0,-2.0,2.0,0.0,0.0,1651085820141714.0,0
816,1.0,0.0,0.0,-2.0,0.0,1.0,0.0,0.0,1651085820142715.0,0
817,0.0,-1.0,-2.0,-1.0,0.0,-2.0,0.0,-1.0,1651085820142715.0,0
818,-1.0,-2.0,-3.0,-3.0,-6.0,-4.0,-2.0,1.0,1651085820155386.0,0
819,-1.0,-1.0,-1.0,3.0,2.0,2.0,1.0,-1.0,1651085820155386.0,0
820,-2.0,-1.0,0.0,2.0,4.0,5.0,1.0,1.0,1651085820164231.0,0
821,-1.0,-1.0,-3.0,-2.0,-2.0,-3.0,-1.0,0.0,1651085820164231.0,0
822,0.0,0.0,3.0,-1.0,2.0,1.0,-1.0,-2.0,1651085820179719.0,0
823,1.0,0.0,-1.0,-2.0,-2.0,-1.0,-2.0,-1.0,1651085820179719.0,0
824,0.0,-1.0,-3.0,-2.0,-3.0,-2.0,0.0,0.0,1651085820180593.0,0
825,-1.0,-3.0,0.0,-1.0,-3.0,-1.0,0.0,-2.0,1651085820180593.0,0
826,-1.0,-2.0,-2.0,1.0,0.0,-1.0,-1.0,-2.0,1651085820201698.0,0
827,1.0,0.0,-1.0,2.0,0.0,1.0,-1.0,0.0,1651085820201698.0,0
828,0.0,2.0,-1.0,-1.0,-4.0,-2.0,-1.0,-1.0,1651085820203729.0,0
829,0.0,-1.0,0.0,-1.0,-2.0,0.0,-3.0,0.0,1651085820203729.0,0
830,-2.0,-1.0,1.0,2.0,3.0,0.0,1.0,-1.0,1651085820214815.0,0
831,1.0,0.0,0.0,-1.0,-1.0,-2.0,0.0,1.0,1651085820214815.0,0
832,0.0,-1.0,-1.0,-4.0,-1.0,-1.0,0.0,-1.0,1651085820230977.0,0
833,-1.0,0.0,-1.0,-2.0,1.0,1.0,0.0,-2.0,1651085820230977.0,0
834,-2.0,-1.0,0.0,-1.0,0.0,2.0,0.0,0.0,1651085820239159.0,0
835,-2.0,0.0,-1.0,0.0,-1.0,-1.0,0.0,1.0,1651085820239159.0,0
836,-1.0,-2.0,1.0,0.0,1.0,1.0,-2.0,0.0,1651085820240159.0,0
837,0.0,-2.0,-2.0,-3.0,-2.0,-2.0,-1.0,0.0,1651085820240159.0,0
838,-1.0,-1.0,-1.0,1.0,0.0,0.0,2.0,1.0,1651085820262558.0,0
839,-1.0,-1.0,-1.0,0.0,1.0,0.0,0.0,2.0,1651085820262558.0,0
840,0.0,-1.0,-1.0,0.0,0.0,-1.0,0.0,1.0,1651085820263094.0,0
841,0.0,1.0,0.0,0.0,1.0,-1.0,-1.0,0.0,1651085820263094.0,0
842,2.0,0.0,-1.0,-2.0,-3.0,-1.0,-1.0,-2.0,1651085820284381.0,0
843,0.0,-3.0,-2.0,-2.0,-3.0,-2.0,-1.0,-3.0,1651085820284381.0,0
844,0.0,-2.0,-1.0,-3.0,-1.0,-2.0,-2.0,0.0,1651085820285223.0,0
845,-1.0,-1.0,1.0,3.0,4.0,4.0,0.0,0.0,1651085820285223.0,0
846,-1.0,0.0,0.0,0.0,2.0,0.0,1.0,-1.0,1651085820299244.0,0
847,0.0,0.0,0.0,-1.0,-2.0,-1.0,-2.0,-1.0,1651085820299244.0,0
848,-1.0,0.0,0.0,-1.0,-1.0,-2.0,0.0,-1.0,1651085820300245.0,0
849,-1.0,-1.0,-1.0,-2.0,-2.0,-3.0,0.0,0.0,1651085820300245.0,0
850,-1.0,1.0,-1.0,-1.0,0.0,0.0,-1.0,2.0,1651085820322439.0,0
851,-1.0,0.0,0.0,-2.0,1.0,0.0,-1.0,0.0,1651085820322439.0,0
852,-1.0,-1.0,-1.0,1.0,-1.0,-1.0,0.0,-1.0,1651085820323093.0,0
853,0.0,-1.0,-1.0,0.0,-4.0,-2.0,0.0,-1.0,1651085820323093.0,0
854,0.0,0.0,0.0,0.0,-3.0,-3.0,-2.0,0.0,1651085820344384.0,0
855,-1.0,0.0,2.0,3.0,5.0,4.0,2.0,0.0,1651085820344384.0,0
856,-1.0,-1.0,-1.0,-1.0,-1.0,2.0,-1.0,1.0,1651085820345230.0,0
857,-1.0,2.0,-1.0,1.0,0.0,0.0,0.0,0.0,1651085820345230.0,0
858,-1.0,-3.0,-2.0,-3.0,-3.0,-1.0,-1.0,-1.0,1651085820359244.0,0
859,0.0,0.0,1.0,-1.0,0.0,-1.0,1.0,0.0,1651085820359244.0,0
860,-2.0,0.0,-1.0,-2.0,-1.0,-2.0,-1.0,2.0,1651085820360243.0,0
861,-2.0,0.0,-1.0,-1.0,1.0,1.0,0.0,-1.0,1651085820360243.0,0
862,1.0,-1.0,-2.0,-2.0,-1.0,1.0,0.0,0.0,1651085820381411.0,0
863,-2.0,-1.0,-2.0,-1.0,0.0,-2.0,-2.0,1.0,1651085820381411.0,0
864,0.0,-1.0,0.0,2.0,0.0,0.0,0.0,-3.0,1651085820383272.0,0
865,-1.0,0.0,-2.0,-1.0,-2.0,-1.0,-2.0,1.0,1651085820383272.0,0
866,-1.0,-2.0,0.0,0.0,1.0,-1.0,-2.0,0.0,1651085820404382.0,0
867,-2.0,-4.0,-3.0,-1.0,-1.0,0.0,0.0,1.0,1651085820404382.0,0
868,1.0,-1.0,-2.0,-3.0,-2.0,-2.0,-2.0,0.0,1651085820405222.0,0
869,-1.0,-4.0,1.0,2.0,0.0,1.0,2.0,-1.0,1651085820405222.0,0
870,0.0,0.0,-1.0,0.0,-1.0,1.0,0.0,-2.0,1651085820418422.0,0
871,-1.0,-2.0,-1.0,-1.0,2.0,2.0,0.0,-1.0,1651085820418422.0,0
872,0.0,1.0,-2.0,-2.0,-3.0,-3.0,-1.0,0.0,1651085820425371.0,0
873,1.0,0.0,0.0,-1.0,3.0,1.0,0.0,0.0,1651085820425371.0,0
874,0.0,-2.0,0.0,1.0,1.0,-2.0,-1.0,0.0,1651085820442335.0,0
875,1.0,-1.0,-1.0,0.0,-3.0,-2.0,-1.0,-1.0,1651085820442335.0,0
876,0.0,0.0,-1.0,-2.0,-2.0,-1.0,0.0,-1.0,1651085820444091.0,0
877,0.0,0.0,0.0,-4.0,-3.0,-2.0,-4.0,1.0,1651085820444091.0,0
878,-1.0,1.0,0.0,1.0,-1.0,2.0,1.0,-1.0,1651085820464343.0,0
879,-1.0,-1.0,1.0,-3.0,1.0,1.0,2.0,0.0,1651085820464343.0,0
880,-1.0,0.0,0.0,0.0,0.0,0.0,0.0,1.0,1651085820464343.0,0
881,0.0,-1.0,0.0,-2.0,-2.0,-1.0,-2.0,-2.0,1651085820464343.0,0
882,1.0,0.0,-1.0,0.0,-3.0,-1.0,-1.0,0.0,1651085820479108.0,0
883,-1.0,-1.0,-1.0,1.0,0.0,-2.0,0.0,2.0,1651085820479108.0,0
884,-1.0,-2.0,0.0,0.0,-2.0,-1.0,0.0,0.0,1651085820486092.0,0
885,-2.0,-1.0,-2.0,-4.0,-3.0,-3.0,-2.0,-1.0,1651085820486092.0,0
886,-1.0,-1.0,0.0,1.0,2.0,0.0,2.0,2.0,1651085820500408.0,0
887,-2.0,-1.0,1.0,2.0,-3.0,-1.0,-1.0,-1.0,1651085820500408.0,0
888,-2.0,-1.0,-2.0,-3.0,-3.0,-2.0,-2.0,-1.0,1651085820501240.0,0
889,2.0,1.0,2.0,9.0,16.0,5.0,3.0,1.0,1651085820501240.0,0
890,0.0,-1.0,-6.0,-15.0,-22.0,-9.0,-4.0,-3.0,1651085820523224.0,0
891,-2.0,-4.0,1.0,16.0,34.0,13.0,5.0,2.0,1651085820523224.0,0
892,-1.0,3.0,5.0,18.0,16.0,3.0,1.0,1.0,1651085820524255.0,2
893,0.0,-10.0,-10.0,-11.0,-18.0,-8.0,-3.0,-2.0,1651085820524255.0,2
894,1.0,15.0,14.0,15.0,12.0,3.0,1.0,2.0,1651085820538382.0,2
895,1.0,-3.0,2.0,-19.0,-25.0,-14.0,-7.0,-3.0,1651085820538382.0,2
896,-1.0,9.0,-15.0,4.0,32.0,20.0,5.0,1.0,1651085820546374.0,2
897,-3.0,-14.0,-3.0,-4.0,-13.0,-5.0,-1.0,-2.0,1651085820546374.0,2
898,-1.0,-2.0,-7.0,-6.0,4.0,0.0,0.0,-1.0,1651085820561385.0,2
899,0.0,-3.0,-6.0,9.0,5.0,4.0,-2.0,-1.0,1651085820561385.0,2
900,1.0,5.0,4.0,13.0,13.0,-1.0,-1.0,-2.0,1651085820561385.0,2
901,3.0,8.0,6.0,0.0,25.0,19.0,4.0,1.0,1651085820561385.0,2
902,-1.0,-14.0,-1.0,-11.0,-23.0,-7.0,0.0,-2.0,1651085820584275.0,2
903,-1.0,0.0,-12.0,-5.0,18.0,6.0,1.0,-1.0,1651085820584275.0,2
904,-1.0,-5.0,-2.0,-3.0,-18.0,-12.0,-4.0,-3.0,1651085820584275.0,2
905,-2.0,3.0,-1.0,2.0,1.0,-2.0,-1.0,0.0,1651085820584275.0,2
906,1.0,1.0,2.0,4.0,2.0,1.0,0.0,2.0,1651085820598250.0,2
907,1.0,2.0,-7.0,-5.0,-4.0,5.0,0.0,-1.0,1651085820598250.0,2
908,1.0,-3.0,0.0,-5.0,-27.0,-10.0,-3.0,-2.0,1651085820606241.0,2
909,-2.0,4.0,8.0,-2.0,5.0,-6.0,-1.0,-2.0,1651085820606241.0,2
910,0.0,-1.0,0.0,14.0,35.0,18.0,1.0,1.0,1651085820620581.0,2
911,0.0,-3.0,-29.0,-18.0,-18.0,-12.0,-4.0,-1.0,1651085820620581.0,2
912,2.0,-1.0,11.0,-8.0,-20.0,-1.0,1.0,0.0,1651085820621272.0,2
913,0.0,5.0,18.0,10.0,8.0,-2.0,0.0,-2.0,1651085820621272.0,2
914,-1.0,-4.0,-32.0,-4.0,23.0,12.0,1.0,-1.0,1651085820644272.0,2
915,0.0,1.0,17.0,3.0,-7.0,-2.0,0.0,-2.0,1651085820644272.0,2
916,-1.0,-5.0,-30.0,-18.0,0.0,1.0,-1.0,-1.0,1651085820644272.0,2
917,-1.0,4.0,18.0,26.0,-23.0,-11.0,-1.0,-1.0,1651085820644272.0,2
918,1.0,8.0,15.0,5.0,12.0,-1.0,-2.0,-2.0,1651085820667380.0,2
919,-3.0,-9.0,-6.0,-9.0,-17.0,-7.0,-2.0,-2.0,1651085820667380.0,2
920,-1.0,-12.0,-5.0,-10.0,-5.0,-3.0,-1.0,-1.0,1651085820667380.0,2
921,-1.0,8.0,-9.0,-17.0,-8.0,-2.0,0.0,1.0,1651085820667380.0,2
922,-1.0,-2.0,-17.0,-8.0,-19.0,-7.0,-3.0,-1.0,1651085820680221.0,2
923,0.0,6.0,17.0,15.0,8.0,-1.0,1.0,0.0,1651085820680221.0,2
924,-4.0,-4.0,-7.0,-10.0,-1.0,2.0,-1.0,-3.0,1651085820681196.0,2
925,2.0,-1.0,-5.0,-2.0,-4.0,0.0,-2.0,1.0,1651085820681196.0,2
926,-3.0,-6.0,-13.0,2.0,-9.0,-5.0,-1.0,-3.0,1651085820703368.0,2
927,1.0,4.0,14.0,4.0,5.0,-2.0,-1.0,-1.0,1651085820703368.0,2
928,-2.0,-3.0,21.0,2.0,1.0,2.0,1.0,0.0,1651085820704228.0,2
929,-1.0,-6.0,-55.0,-22.0,-5.0,-2.0,-2.0,-2.0,1651085820704228.0,2
930,2.0,5.0,25.0,0.0,-11.0,-4.0,-1.0,0.0,1651085820717760.0,2
931,-1.0,-2.0,-8.0,6.0,13.0,5.0,0.0,-1.0,1651085820717760.0,2
932,0.0,3.0,5.0,24.0,25.0,7.0,1.0,2.0,1651085820726343.0,2
933,-1.0,-4.0,-5.0,-13.0,-16.0,-5.0,-2.0,-1.0,1651085820726343.0,2
934,0.0,-3.0,30.0,16.0,11.0,2.0,-2.0,0.0,1651085820741647.0,2
935,2.0,2.0,-14.0,-2.0,-13.0,-8.0,-4.0,-2.0,1651085820741647.0,2
936,-3.0,-3.0,-10.0,-8.0,0.0,1.0,-1.0,-1.0,1651085820742658.0,2
937,-2.0,-2.0,38.0,8.0,-7.0,-6.0,-3.0,-3.0,1651085820742658.0,2
938,-2.0,-5.0,-35.0,-26.0,-16.0,-7.0,-3.0,-3.0,1651085820764331.0,2
939,3.0,3.0,26.0,12.0,4.0,4.0,2.0,3.0,1651085820764331.0,2
940,0.0,4.0,-3.0,-6.0,-3.0,-4.0,-2.0,-2.0,1651085820764331.0,2
941,-3.0,-6.0,-19.0,-9.0,4.0,0.0,0.0,-1.0,1651085820764331.0,2
942,-1.0,4.0,10.0,-4.0,-12.0,-6.0,-2.0,-2.0,1651085820777436.0,2
943,0.0,0.0,9.0,-15.0,-23.0,-1.0,-1.0,0.0,1651085820777436.0,2
944,2.0,2.0,-1.0,-4.0,2.0,3.0,1.0,1.0,1651085820785255.0,2
945,-4.0,-2.0,8.0,3.0,6.0,1.0,0.0,-1.0,1651085820785255.0,2
946,3.0,1.0,14.0,29.0,14.0,5.0,1.0,2.0,1651085820800409.0,2
947,-3.0,-5.0,-10.0,-18.0,-17.0,-9.0,-3.0,-2.0,1651085820800409.0,2
948,-1.0,0.0,-17.0,-11.0,-10.0,-5.0,-1.0,-1.0,1651085820801242.0,2
949,0.0,1.0,20.0,16.0,5.0,3.0,0.0,0.0,1651085820801242.0,2
950,0.0,1.0,-2.0,0.0,-2.0,3.0,2.0,2.0,1651085820823413.0,2
951,-1.0,-3.0,-7.0,-2.0,8.0,2.0,0.0,-1.0,1651085820823413.0,2
952,0.0,3.0,16.0,15.0,15.0,5.0,3.0,0.0,1651085820824300.0,2
953,2.0,-3.0,-31.0,-28.0,-11.0,-4.0,-3.0,-1.0,1651085820824300.0,2
954,-2.0,-3.0,25.0,2.0,-12.0,-7.0,-2.0,-2.0,1651085820837317.0,2
955,2.0,3.0,-25.0,3.0,25.0,13.0,8.0,4.0,1651085820837317.0,2
956,-2.0,2.0,33.0,7.0,5.0,-6.0,-5.0,0.0,1651085820846230.0,2
957,-1.0,-6.0,-29.0,2.0,7.0,9.0,3.0,0.0,1651085820846230.0,2
958,0.0,0.0,-6.0,-12.0,-10.0,-6.0,-2.0,0.0,1651085820860327.0,2
959,0.0,2.0,8.0,-8.0,-4.0,1.0,0.0,-3.0,1651085820860327.0,2
960,-2.0,-5.0,-18.0,10.0,-6.0,-7.0,-4.0,-2.0,1651085820861231.0,2
961,0.0,1.0,13.0,3.0,-16.0,-1.0,2.0,-2.0,1651085820861231.0,2
962,-1.0,-2.0,-20.0,-7.0,28.0,5.0,-1.0,0.0,1651085820883194.0,2
963,1.0,-2.0,-2.0,-8.0,0.0,-2.0,0.0,0.0,1651085820883194.0,2
964,0.0,-1.0,-1.0,-8.0,-8.0,-2.0,0.0,-1.0,1651085820884193.0,2
965,3.0,2.0,19.0,6.0,9.0,1.0,1.0,2.0,1651085820884193.0,2
966,-4.0,-1.0,-21.0,-17.0,-18.0,-7.0,-3.0,-4.0,1651085820897989.0,2
967,-1.0,1.0,18.0,29.0,7.0,1.0,-2.0,0.0,1651085820897989.0,2
968,1.0,0.0,1.0,-6.0,-2.0,1.0,2.0,0.0,1651085820906099.0,2
969,0.0,0.0,2.0,-8.0,1.0,-1.0,-2.0,0.0,1651085820906099.0,2
970,-1.0,1.0,24.0,28.0,7.0,6.0,4.0,0.0,1651085820920159.0,2
971,0.0,-4.0,3.0,-8.0,-3.0,-6.0,-3.0,-1.0,1651085820920159.0,2
972,0.0,1.0,-2.0,-2.0,-17.0,-4.0,0.0,0.0,1651085820921191.0,2
973,2.0,1.0,-3.0,-13.0,-7.0,-3.0,-1.0,-1.0,1651085820921191.0,2
974,1.0,-1.0,-21.0,0.0,20.0,5.0,1.0,2.0,1651085820951596.0,2
975,-3.0,-1.0,8.0,17.0,9.0,2.0,0.0,-2.0,1651085820951596.0,2
976,1.0,-1.0,5.0,0.0,-1.0,4.0,4.0,3.0,1651085820951596.0,2
977,0.0,0.0,3.0,5.0,4.0,3.0,2.0,0.0,1651085820951596.0,2
978,-1.0,-2.0,7.0,-15.0,-15.0,-9.0,-7.0,-1.0,1651085820965690.0,2
979,-2.0,2.0,7.0,11.0,-7.0,-5.0,0.0,-2.0,1651085820965690.0,2
980,0.0,1.0,-12.0,-8.0,0.0,0.0,1.0,0.0,1651085820973199.0,2
981,-2.0,-4.0,-6.0,11.0,11.0,3.0,1.0,0.0,1651085820973199.0,2
982,-1.0,0.0,19.0,4.0,-10.0,1.0,1.0,-1.0,1651085820980224.0,2
983,0.0,2.0,-21.0,-15.0,-2.0,-1.0,-3.0,1.0,1651085820980224.0,2
984,-3.0,-2.0,26.0,14.0,-1.0,-8.0,-6.0,-3.0,1651085820981222.0,2
985,1.0,2.0,8.0,9.0,8.0,10.0,5.0,1.0,1651085820981222.0,2
986,0.0,-2.0,-16.0,-9.0,0.0,0.0,-2.0,0.0,1651085821003338.0,2
987,0.0,-2.0,20.0,-3.0,-3.0,2.0,7.0,2.0,1651085821003338.0,2
988,-5.0,-1.0,-32.0,-11.0,-7.0,-9.0,-11.0,-5.0,1651085821004194.0,2
989,0.0,0.0,-2.0,0.0,-5.0,-7.0,-2.0,-1.0,1651085821004194.0,2
990,-3.0,-2.0,-2.0,-6.0,-1.0,-1.0,-3.0,-3.0,1651085821026330.0,2
991,1.0,2.0,14.0,6.0,-1.0,3.0,-1.0,0.0,1651085821026330.0,2
992,2.0,1.0,25.0,-3.0,2.0,0.0,-1.0,3.0,1651085821027235.0,2
993,-3.0,-1.0,-3.0,5.0,4.0,0.0,1.0,-1.0,1651085821027235.0,2
994,-2.0,-1.0,-3.0,-12.0,-14.0,-6.0,-5.0,-2.0,1651085821040501.0,2
995,-1.0,-5.0,-17.0,0.0,-7.0,-5.0,-2.0,-2.0,1651085821040501.0,2
996,1.0,-3.0,2.0,-2.0,3.0,3.0,1.0,0.0,1651085821041344.0,2
997,1.0,3.0,16.0,3.0,6.0,3.0,-1.0,1.0,1651085821041344.0,2
998,0.0,-6.0,-44.0,-11.0,4.0,5.0,7.0,3.0,1651085821064301.0,2
999,-1.0,3.0,22.0,4.0,-11.0,-7.0,-5.0,0.0,1651085821064301.0,2
1000,0.0,1.0,-4.0,4.0,-3.0,-1.0,-3.0,-1.0,1651085821064301.0,2
1001,-2.0,0.0,-29.0,0.0,7.0,3.0,0.0,-2.0,1651085821064301.0,2
1002,0.0,0.0,24.0,5.0,-4.0,-2.0,-3.0,-4.0,1651085821086227.0,2
1003,0.0,-4.0,-28.0,-15.0,-2.0,1.0,2.0,-1.0,1651085821086227.0,2
1004,1.0,-1.0,28.0,12.0,3.0,-1.0,-1.0,-1.0,1651085821087224.0,2
1005,-1.0,-3.0,-9.0,4.0,1.0,-3.0,-3.0,-2.0,1651085821087224.0,2
1006,1.0,3.0,4.0,8.0,3.0,0.0,2.0,0.0,1651085821109235.0,2
1007,-1.0,-8.0,-33.0,-35.0,-12.0,-5.0,0.0,0.0,1651085821109235.0,2
1008,-5.0,-6.0,-18.0,-21.0,9.0,10.0,6.0,-2.0,1651085821109235.0,2
1009,5.0,0.0,19.0,7.0,-1.0,2.0,1.0,3.0,1651085821109235.0,2
1010,-4.0,1.0,-2.0,-1.0,-2.0,-4.0,-2.0,0.0,1651085821123230.0,2
1011,-1.0,1.0,8.0,8.0,-1.0,-5.0,-7.0,-3.0,1651085821123230.0,2
1012,0.0,-1.0,-13.0,2.0,2.0,4.0,9.0,2.0,1651085821124264.0,2
1013,-2.0,0.0,12.0,5.0,-6.0,-9.0,-7.0,-3.0,1651085821124264.0,2
1014,2.0,-4.0,-37.0,-18.0,-5.0,-1.0,2.0,2.0,1651085821147388.0,2
1015,2.0,3.0,30.0,14.0,3.0,4.0,2.0,2.0,1651085821147388.0,2
1016,-1.0,1.0,-10.0,-2.0,1.0,0.0,-1.0,-1.0,1651085821147388.0,2
1017,-1.0,-1.0,-9.0,3.0,-4.0,-3.0,-2.0,-2.0,1651085821147388.0,2
1018,1.0,1.0,21.0,5.0,2.0,3.0,2.0,1.0,1651085821160477.0,2
1019,-1.0,-1.0,-7.0,-8.0,1.0,3.0,4.0,1.0,1651085821160477.0,2
1020,1.0,-2.0,-17.0,11.0,-2.0,-1.0,-1.0,-1.0,1651085821161314.0,2
1021,-1.0,-3.0,-1.0,-13.0,-3.0,-3.0,-2.0,-2.0,1651085821161314.0,2
1022,2.0,-2.0,15.0,10.0,7.0,2.0,3.0,1.0,1651085821183558.0,2
1023,3.0,2.0,-9.0,0.0,0.0,-1.0,0.0,1.0,1651085821183558.0,2
1024,-3.0,-3.0,-7.0,-9.0,-6.0,-4.0,-4.0,-3.0,1651085821184388.0,2
1025,-3.0,-1.0,11.0,5.0,3.0,1.0,2.0,-1.0,1651085821184388.0,2
1026,-2.0,-3.0,-5.0,-8.0,-7.0,-4.0,-5.0,-4.0,1651085821207382.0,2
1027,-2.0,-2.0,-5.0,5.0,0.0,1.0,-1.0,-1.0,1651085821207382.0,2
1028,3.0,4.0,10.0,7.0,15.0,6.0,1.0,4.0,1651085821207382.0,2
1029,-1.0,1.0,-4.0,-1.0,-2.0,1.0,0.0,0.0,1651085821207382.0,2
1030,0.0,-5.0,2.0,5.0,-1.0,0.0,-1.0,-1.0,1651085821221318.0,2
1031,2.0,0.0,-9.0,-4.0,1.0,2.0,2.0,0.0,1651085821221318.0,2
1032,0.0,1.0,15.0,1.0,-9.0,-7.0,-5.0,-2.0,1651085821221318.0,2
1033,-2.0,-6.0,-20.0,-14.0,0.0,1.0,-4.0,-2.0,1651085821221318.0,2
1034,1.0,3.0,14.0,10.0,0.0,0.0,2.0,2.0,1651085821243387.0,2
1035,-1.0,0.0,1.0,-9.0,-1.0,-2.0,-1.0,1.0,1651085821243387.0,2
1036,0.0,-2.0,-1.0,3.0,-1.0,0.0,1.0,-1.0,1651085821244222.0,2
1037,2.0,1.0,5.0,6.0,6.0,2.0,1.0,0.0,1651085821244222.0,2
1038,-1.0,1.0,3.0,0.0,-4.0,-1.0,0.0,-1.0,1651085821266209.0,2
1039,-3.0,-1.0,-1.0,-2.0,11.0,1.0,-1.0,0.0,1651085821266209.0,2
1040,-2.0,1.0,-2.0,-3.0,-5.0,-3.0,-4.0,-1.0,1651085821267161.0,2
1041,-2.0,-3.0,5.0,0.0,1.0,2.0,1.0,-3.0,1651085821267161.0,2
1042,1.0,-1.0,-23.0,-5.0,-6.0,-3.0,-4.0,-2.0,1651085821281253.0,2
1043,-4.0,-1.0,8.0,-2.0,0.0,1.0,-2.0,-3.0,1651085821281253.0,2
1044,-1.0,1.0,4.0,13.0,2.0,0.0,1.0,-2.0,1651085821281253.0,2
1045,2.0,1.0,-16.0,-19.0,-9.0,-3.0,-1.0,3.0,1651085821281253.0,2
1046,-2.0,-1.0,18.0,12.0,2.0,-2.0,-3.0,-2.0,1651085821303391.0,2
1047,-1.0,-1.0,0.0,-2.0,-7.0,-3.0,-2.0,-2.0,1651085821303391.0,2
1048,2.0,1.0,11.0,2.0,2.0,-1.0,-3.0,-1.0,1651085821311410.0,2
1049,-2.0,0.0,-6.0,2.0,-4.0,-2.0,-2.0,0.0,1651085821311410.0,2
1050,1.0,0.0,-5.0,-12.0,1.0,4.0,3.0,0.0,1651085821327382.0,2
1051,-1.0,-2.0,1.0,7.0,0.0,1.0,-3.0,-3.0,1651085821327382.0,2
1052,-2.0,-2.0,13.0,3.0,-1.0,0.0,0.0,-1.0,1651085821327382.0,2
1053,2.0,1.0,-12.0,-9.0,-5.0,-3.0,-2.0,0.0,1651085821327382.0,2
1054,-2.0,3.0,8.0,5.0,5.0,0.0,-3.0,-3.0,1651085821340409.0,2
1055,0.0,2.0,0.0,13.0,11.0,7.0,6.0,1.0,1651085821340409.0,2
1056,0.0,-5.0,-15.0,-18.0,-10.0,-9.0,-7.0,-2.0,1651085821341246.0,2
1057,0.0,0.0,20.0,7.0,-6.0,2.0,6.0,1.0,1651085821341246.0,2
1058,-1.0,-2.0,-24.0,-9.0,-2.0,0.0,0.0,1.0,1651085821364337.0,2
1059,-1.0,2.0,34.0,11.0,2.0,-2.0,-1.0,0.0,1651085821364337.0,2
1060,1.0,-2.0,-33.0,-17.0,-6.0,2.0,1.0,0.0,1651085821364337.0,2
1061,0.0,-1.0,-3.0,3.0,-4.0,-2.0,0.0,0.0,1651085821364337.0,2
1062,-1.0,-1.0,3.0,-7.0,2.0,2.0,-2.0,-2.0,1651085821385228.0,2
1063,-1.0,-3.0,13.0,14.0,7.0,5.0,3.0,2.0,1651085821385228.0,2
1064,3.0,1.0,17.0,-5.0,-3.0,-2.0,2.0,5.0,1651085821386226.0,2
1065,1.0,-1.0,3.0,-4.0,-2.0,-5.0,-6.0,-1.0,1651085821386226.0,2
1066,1.0,0.0,3.0,4.0,2.0,1.0,4.0,1.0,1651085821400413.0,2
1067,2.0,2.0,-3.0,-9.0,-3.0,-3.0,-2.0,0.0,1651085821400413.0,2
1068,-2.0,1.0,5.0,17.0,4.0,0.0,-1.0,-2.0,1651085821401241.0,2
1069,-3.0,-5.0,-2.0,-14.0,-13.0,-7.0,-3.0,-3.0,1651085821401241.0,2
1070,1.0,-1.0,12.0,2.0,10.0,2.0,-2.0,3.0,1651085821424337.0,2
1071,-1.0,1.0,-5.0,-1.0,-8.0,-4.0,-3.0,-1.0,1651085821424337.0,2
1072,-1.0,-1.0,-9.0,5.0,13.0,8.0,4.0,-2.0,1651085821424337.0,2
1073,-1.0,2.0,6.0,8.0,6.0,2.0,2.0,0.0,1651085821424337.0,2
1074,1.0,0.0,-3.0,2.0,-3.0,-1.0,2.0,0.0,1651085821446188.0,2
1075,-1.0,-5.0,-3.0,-12.0,-7.0,-7.0,-7.0,-2.0,1651085821446188.0,2
1076,-1.0,-1.0,-12.0,-3.0,-6.0,-5.0,-4.0,-4.0,1651085821446188.0,2
1077,-3.0,-1.0,10.0,-3.0,1.0,1.0,0.0,1.0,1651085821446188.0,2
1078,-2.0,-3.0,13.0,1.0,-2.0,-2.0,-1.0,-2.0,1651085821461227.0,2
1079,2.0,1.0,-3.0,8.0,4.0,2.0,0.0,-1.0,1651085821461227.0,2
1080,0.0,1.0,5.0,-5.0,-2.0,0.0,2.0,-2.0,1651085821461227.0,2
1081,0.0,-2.0,0.0,1.0,7.0,2.0,0.0,-3.0,1651085821461227.0,2
1082,-2.0,-1.0,-6.0,-5.0,-4.0,-4.0,-3.0,1.0,1651085821484332.0,2
1083,-1.0,0.0,1.0,5.0,-3.0,0.0,0.0,-2.0,1651085821484332.0,2
1084,1.0,-2.0,-24.0,-13.0,0.0,1.0,2.0,0.0,1651085821484332.0,2
1085,-1.0,0.0,12.0,14.0,5.0,2.0,-2.0,-1.0,1651085821484332.0,2
1086,0.0,-2.0,-3.0,-8.0,-11.0,-6.0,-3.0,-1.0,1651085821506311.0,2
1087,-1.0,-1.0,-14.0,-5.0,3.0,-1.0,-1.0,-1.0,1651085821506311.0,2
1088,-2.0,1.0,3.0,1.0,2.0,2.0,2.0,2.0,1651085821506311.0,2
1089,3.0,4.0,5.0,12.0,8.0,1.0,-1.0,-1.0,1651085821506311.0,2
1090,-3.0,-1.0,11.0,5.0,3.0,1.0,0.0,-1.0,1651085821521306.0,2
1091,-1.0,-1.0,-28.0,-16.0,-5.0,0.0,0.0,1.0,1651085821521306.0,2
1092,-4.0,-1.0,20.0,16.0,0.0,-3.0,-2.0,-1.0,1651085821521306.0,2
1093,2.0,-3.0,-17.0,-17.0,-2.0,0.0,3.0,1.0,1651085821521306.0,2
1094,-1.0,0.0,9.0,10.0,-2.0,-3.0,-2.0,-1.0,1651085821543231.0,2
1095,2.0,1.0,3.0,-1.0,-3.0,-6.0,-3.0,1.0,1651085821543231.0,2
1096,-1.0,2.0,-1.0,-2.0,4.0,5.0,1.0,0.0,1651085821544263.0,2
1097,-1.0,1.0,-7.0,-1.0,1.0,2.0,0.0,0.0,1651085821544263.0,2
1098,1.0,0.0,-1.0,3.0,1.0,2.0,-1.0,1.0,1651085821566379.0,2
1099,-1.0,-2.0,1.0,13.0,7.0,-1.0,0.0,1.0,1651085821566379.0,2
1100,1.0,1.0,1.0,-9.0,-12.0,-6.0,-4.0,-2.0,1651085821566379.0,2
1101,-5.0,-4.0,-16.0,-11.0,7.0,4.0,0.0,-1.0,1651085821566379.0,2
1102,-2.0,1.0,-5.0,-2.0,1.0,-1.0,2.0,1.0,1651085821589235.0,2
1103,-1.0,-2.0,6.0,-4.0,-7.0,-3.0,-4.0,-3.0,1651085821589235.0,2
1104,0.0,1.0,16.0,9.0,3.0,1.0,0.0,2.0,1651085821589235.0,2
1105,-1.0,0.0,-15.0,-6.0,-3.0,-3.0,-2.0,-1.0,1651085821589235.0,2
1106,2.0,0.0,-9.0,9.0,1.0,1.0,0.0,-2.0,1651085821604367.0,2
1107,-2.0,-5.0,-14.0,-32.0,-7.0,-3.0,-2.0,1.0,1651085821604367.0,2
1108,-4.0,1.0,33.0,23.0,3.0,1.0,1.0,0.0,1651085821604367.0,2
1109,4.0,-1.0,-10.0,5.0,-4.0,-3.0,-3.0,-1.0,1651085821604367.0,2
1110,-1.0,-1.0,-18.0,-18.0,-4.0,-2.0,-2.0,-3.0,1651085821625383.0,2
1111,0.0,1.0,7.0,8.0,3.0,6.0,4.0,-1.0,1651085821625383.0,2
1112,3.0,0.0,-12.0,0.0,8.0,5.0,2.0,0.0,1651085821626225.0,2
1113,-2.0,-2.0,-1.0,-9.0,-3.0,-2.0,-4.0,0.0,1651085821626225.0,2
1114,-1.0,3.0,9.0,7.0,-1.0,1.0,1.0,-1.0,1651085821640400.0,2
1115,0.0,-1.0,-5.0,1.0,0.0,0.0,-3.0,-1.0,1651085821640400.0,2
1116,2.0,0.0,-11.0,-12.0,-4.0,-1.0,1.0,1.0,1651085821641238.0,2
1117,0.0,2.0,39.0,33.0,-1.0,-2.0,-1.0,-1.0,1651085821641238.0,2
1118,-1.0,-9.0,-35.0,-47.0,-12.0,-4.0,0.0,-4.0,1651085821664321.0,2
1119,-1.0,-2.0,-19.0,2.0,0.0,3.0,0.0,-1.0,1651085821664321.0,2
1120,-1.0,0.0,5.0,-1.0,9.0,2.0,2.0,-1.0,1651085821664321.0,2
1121,2.0,-1.0,-2.0,0.0,-2.0,-2.0,-2.0,-1.0,1651085821664321.0,2
1122,0.0,3.0,20.0,18.0,-2.0,-2.0,-3.0,-1.0,1651085821685562.0,2
1123,-1.0,0.0,6.0,-1.0,-1.0,-1.0,1.0,-1.0,1651085821685562.0,2
1124,-1.0,0.0,-9.0,-17.0,-3.0,-2.0,-2.0,0.0,1651085821686418.0,2
1125,-1.0,0.0,14.0,23.0,5.0,2.0,0.0,0.0,1651085821686418.0,2
1126,-2.0,-1.0,-7.0,-3.0,-1.0,0.0,0.0,0.0,1651085821700407.0,2
1127,0.0,2.0,10.0,9.0,1.0,0.0,-2.0,-1.0,1651085821700407.0,2
1128,-1.0,-3.0,-12.0,-9.0,-4.0,-2.0,-2.0,0.0,1651085821701240.0,2
1129,-2.0,0.0,-16.0,-8.0,-1.0,-1.0,-1.0,-1.0,1651085821701240.0,2
1130,0.0,-3.0,12.0,6.0,1.0,4.0,1.0,1.0,1651085821723234.0,2
1131,1.0,0.0,10.0,-10.0,-8.0,-7.0,-5.0,1.0,1651085821723234.0,2
1132,1.0,-1.0,0.0,16.0,1.0,1.0,-1.0,0.0,1651085821724234.0,2
1133,-3.0,-2.0,-2.0,-16.0,-5.0,0.0,0.0,-1.0,1651085821724234.0,2
1134,0.0,0.0,-14.0,6.0,0.0,-2.0,-1.0,1.0,1651085821746392.0,2
1135,1.0,3.0,1.0,1.0,2.0,5.0,4.0,0.0,1651085821746392.0,2
1136,-4.0,-2.0,18.0,2.0,-3.0,0.0,0.0,-2.0,1651085821747255.0,2
1137,1.0,0.0,-3.0,-2.0,-4.0,-3.0,-3.0,-2.0,1651085821747255.0,2
1138,-1.0,-1.0,6.0,6.0,0.0,-2.0,-1.0,-2.0,1651085821761276.0,2
1139,1.0,1.0,2.0,1.0,-1.0,0.0,2.0,-1.0,1651085821761276.0,2
1140,-3.0,-5.0,-17.0,-10.0,-1.0,-2.0,-1.0,-1.0,1651085821761276.0,2
1141,-1.0,1.0,-1.0,-2.0,2.0,1.0,0.0,1.0,1651085821761276.0,2
1142,-2.0,1.0,-1.0,-9.0,6.0,3.0,0.0,2.0,1651085821784348.0,2
1143,-2.0,-2.0,-5.0,11.0,-1.0,-3.0,-4.0,-4.0,1651085821784348.0,2
1144,0.0,0.0,7.0,2.0,-4.0,-4.0,-2.0,-1.0,1651085821785312.0,2
1145,-1.0,-1.0,-8.0,-9.0,2.0,-1.0,0.0,-1.0,1651085821785312.0,2
1146,-2.0,-6.0,-7.0,-17.0,-5.0,-2.0,-3.0,0.0,1651085821814382.0,2
1147,-1.0,-1.0,-20.0,-17.0,-2.0,1.0,2.0,0.0,1651085821814382.0,2
1148,0.0,0.0,6.0,22.0,1.0,-3.0,-3.0,-1.0,1651085821815245.0,2
1149,-1.0,-2.0,8.0,-3.0,-3.0,-1.0,0.0,1.0,1651085821815245.0,2
1150,1.0,2.0,0.0,-1.0,-3.0,0.0,2.0,0.0,1651085821820235.0,2
1151,-2.0,-6.0,6.0,5.0,5.0,1.0,1.0,0.0,1651085821820235.0,2
1152,0.0,-1.0,-5.0,-3.0,-3.0,-1.0,-1.0,-2.0,1651085821828340.0,2
1153,-2.0,1.0,-3.0,1.0,0.0,-1.0,0.0,2.0,1651085821828340.0,2
1154,0.0,1.0,-7.0,-1.0,3.0,3.0,-1.0,-2.0,1651085821843858.0,2
1155,-2.0,-2.0,-7.0,-10.0,-5.0,-2.0,-1.0,-2.0,1651085821843858.0,2
1156,-3.0,0.0,19.0,9.0,2.0,0.0,1.0,0.0,1651085821843858.0,2
1157,-1.0,0.0,-1.0,1.0,-2.0,-3.0,-1.0,-2.0,1651085821843858.0,2
1158,1.0,-1.0,-19.0,-16.0,-2.0,-4.0,1.0,0.0,1651085821866428.0,2
1159,-1.0,3.0,19.0,26.0,-2.0,-1.0,-1.0,-1.0,1651085821866428.0,2
1160,-1.0,-1.0,-18.0,-17.0,8.0,4.0,1.0,0.0,1651085821866428.0,2
1161,-1.0,0.0,1.0,1.0,-1.0,2.0,2.0,0.0,1651085821866428.0,2
1162,1.0,-1.0,6.0,-2.0,-6.0,-2.0,-2.0,0.0,1651085821880406.0,2
1163,-4.0,-3.0,-1.0,10.0,16.0,2.0,2.0,2.0,1651085821880406.0,2
1164,2.0,2.0,-12.0,-8.0,-9.0,-5.0,-5.0,-2.0,1651085821888384.0,2
1165,-3.0,-1.0,-2.0,-1.0,1.0,0.0,-1.0,-1.0,1651085821888384.0,2
1166,4.0,-1.0,13.0,6.0,1.0,0.0,-1.0,0.0,1651085821903395.0,2
1167,-1.0,1.0,-20.0,-9.0,-4.0,-2.0,-1.0,1.0,1651085821903395.0,2
1168,-1.0,-2.0,4.0,6.0,-2.0,-1.0,1.0,-1.0,1651085821904264.0,2
1169,1.0,0.0,-7.0,-6.0,2.0,0.0,0.0,0.0,1651085821904264.0,2
1170,-4.0,3.0,7.0,13.0,1.0,1.0,-1.0,-2.0,1651085821925234.0,2
1171,-1.0,-4.0,-10.0,-13.0,-6.0,-2.0,-1.0,0.0,1651085821925234.0,2
1172,0.0,0.0,19.0,-3.0,-5.0,-3.0,-1.0,1.0,1651085821926268.0,2
1173,0.0,-5.0,-35.0,-9.0,1.0,0.0,-1.0,0.0,1651085821926268.0,2
1174,1.0,0.0,1.0,4.0,6.0,5.0,6.0,2.0,1651085821940416.0,2
1175,0.0,1.0,15.0,-2.0,-3.0,-4.0,-7.0,-3.0,1651085821940416.0,2
1176,-3.0,-2.0,-9.0,-1.0,3.0,3.0,1.0,-1.0,1651085821948794.0,2
1177,2.0,0.0,17.0,1.0,-2.0,-2.0,1.0,2.0,1651085821948794.0,2
1178,-3.0,-2.0,1.0,4.0,-3.0,-3.0,-1.0,0.0,1651085821964358.0,2
1179,0.0,-1.0,-1.0,-3.0,-1.0,0.0,2.0,1.0,1651085821964358.0,2
1180,1.0,0.0,-15.0,-2.0,-5.0,-3.0,-1.0,-2.0,1651085821964358.0,2
1181,0.0,1.0,17.0,7.0,7.0,-2.0,-4.0,-3.0,1651085821964358.0,2
1182,-1.0,0.0,6.0,7.0,2.0,1.0,0.0,-1.0,1651085821985174.0,2
1183,-1.0,1.0,-7.0,-4.0,-1.0,1.0,0.0,-2.0,1651085821985174.0,2
1184,-1.0,2.0,12.0,2.0,-3.0,0.0,1.0,1.0,1651085821986172.0,2
1185,1.0,-1.0,-23.0,-3.0,5.0,2.0,0.0,-1.0,1651085821986172.0,2
1186,-1.0,1.0,29.0,14.0,-1.0,-1.0,0.0,1.0,1651085822000935.0,2
1187,-3.0,-2.0,-18.0,-5.0,-2.0,0.0,-4.0,-3.0,1651085822000935.0,2
1188,1.0,1.0,4.0,-8.0,2.0,2.0,0.0,0.0,1651085822008338.0,2
1189,-2.0,1.0,3.0,-1.0,-8.0,-1.0,0.0,-3.0,1651085822008338.0,2
1190,1.0,0.0,-4.0,7.0,8.0,2.0,1.0,0.0,1651085822024292.0,2
1191,1.0,0.0,5.0,-8.0,-3.0,0.0,1.0,1.0,1651085822024292.0,2
1192,-2.0,-7.0,-9.0,-1.0,-5.0,-3.0,0.0,0.0,1651085822024292.0,2
1193,-2.0,0.0,18.0,6.0,5.0,-1.0,-1.0,1.0,1651085822024292.0,2
1194,-2.0,-3.0,-20.0,-9.0,-5.0,-4.0,-3.0,-3.0,1651085822046281.0,2
1195,1.0,1.0,6.0,5.0,0.0,0.0,-1.0,-1.0,1651085822046281.0,2
1196,0.0,-4.0,-32.0,-21.0,-6.0,-2.0,-1.0,-1.0,1651085822054264.0,2
1197,0.0,3.0,19.0,4.0,-10.0,-3.0,0.0,0.0,1651085822054264.0,2
1198,-1.0,-2.0,-7.0,6.0,17.0,2.0,1.0,1.0,1651085822060250.0,2
1199,1.0,-4.0,8.0,19.0,4.0,2.0,0.0,-1.0,1651085822060250.0,2
1200,1.0,2.0,7.0,-11.0,-2.0,0.0,-1.0,0.0,1651085822068111.0,2
1201,-2.0,-3.0,-16.0,-10.0,-7.0,-1.0,-1.0,-1.0,1651085822068111.0,2
1202,-1.0,0.0,1.0,-3.0,-6.0,-2.0,1.0,-2.0,1651085822084346.0,2
1203,0.0,2.0,-5.0,-7.0,-4.0,-1.0,0.0,-1.0,1651085822084346.0,2
1204,-1.0,-2.0,1.0,4.0,0.0,0.0,0.0,-1.0,1651085822084346.0,2
1205,-1.0,-1.0,6.0,2.0,-1.0,0.0,1.0,1.0,1651085822084346.0,2
1206,-1.0,-1.0,-9.0,-4.0,-2.0,1.0,-2.0,-1.0,1651085822106374.0,2
1207,-1.0,-3.0,5.0,0.0,-1.0,3.0,1.0,1.0,1651085822106374.0,2
1208,1.0,-1.0,-5.0,2.0,-1.0,0.0,-1.0,-2.0,1651085822106374.0,2
1209,0.0,-2.0,1.0,0.0,-2.0,-3.0,-2.0,-3.0,1651085822106374.0,2
1210,-1.0,2.0,7.0,0.0,0.0,-1.0,-2.0,-1.0,1651085822129238.0,2
1211,-1.0,-4.0,-2.0,-1.0,0.0,-1.0,-1.0,1.0,1651085822129238.0,2
1212,-2.0,3.0,3.0,4.0,-1.0,-1.0,-1.0,-1.0,1651085822129238.0,2
1213,0.0,0.0,-4.0,3.0,4.0,4.0,2.0,0.0,1651085822129238.0,2
1214,-1.0,-1.0,1.0,-4.0,-2.0,-1.0,-1.0,-2.0,1651085822143236.0,2
1215,1.0,2.0,0.0,-3.0,-4.0,-4.0,-1.0,1.0,1651085822143236.0,2
1216,-1.0,4.0,-1.0,3.0,5.0,1.0,-1.0,0.0,1651085822144236.0,2
1217,-1.0,-11.0,-2.0,2.0,4.0,2.0,1.0,-1.0,1651085822144236.0,2
1218,0.0,-3.0,-8.0,-4.0,-5.0,-3.0,0.0,-1.0,1651085822166373.0,2
1219,1.0,2.0,3.0,0.0,-2.0,-3.0,0.0,0.0,1651085822166373.0,2
1220,-2.0,-1.0,-2.0,1.0,3.0,1.0,0.0,-1.0,1651085822166373.0,2
1221,5.0,3.0,4.0,0.0,-2.0,-2.0,-2.0,0.0,1651085822166373.0,2
1222,-8.0,-2.0,3.0,0.0,-1.0,0.0,0.0,0.0,1651085822189535.0,2
1223,1.0,-6.0,-1.0,-1.0,0.0,0.0,0.0,-6.0,1651085822189535.0,2
1224,4.0,3.0,5.0,0.0,-5.0,-4.0,-1.0,9.0,1651085822189535.0,2
1225,-5.0,2.0,-10.0,2.0,2.0,1.0,0.0,-1.0,1651085822189535.0,2
1226,-1.0,-2.0,0.0,-3.0,-2.0,2.0,-1.0,-3.0,1651085822203733.0,2
1227,-1.0,1.0,-2.0,-3.0,-2.0,-2.0,-1.0,1.0,1651085822203733.0,2
1228,0.0,-11.0,-2.0,-2.0,0.0,1.0,0.0,-2.0,1651085822203733.0,2
1229,0.0,8.0,7.0,-1.0,-2.0,-1.0,-1.0,-2.0,1651085822203733.0,2
1230,2.0,6.0,0.0,0.0,-2.0,-2.0,1.0,5.0,1651085822226301.0,2
1231,-3.0,-1.0,3.0,2.0,0.0,-2.0,-1.0,-2.0,1651085822226301.0,2
1232,0.0,-3.0,-9.0,2.0,3.0,4.0,1.0,-1.0,1651085822226301.0,2
1233,-1.0,-5.0,5.0,-2.0,-2.0,-3.0,-3.0,1.0,1651085822226301.0,2
1234,0.0,-2.0,-1.0,1.0,2.0,-2.0,0.0,-1.0,1651085822249237.0,2
1235,1.0,1.0,2.0,-1.0,1.0,-1.0,-1.0,0.0,1651085822249237.0,2
1236,0.0,5.0,2.0,0.0,-1.0,-1.0,0.0,-3.0,1651085822249237.0,2
1237,-2.0,-7.0,-1.0,0.0,0.0,1.0,-1.0,-3.0,1651085822249237.0,2
1238,2.0,-1.0,7.0,0.0,-1.0,0.0,0.0,-1.0,1651085822272413.0,2
1239,2.0,1.0,-8.0,-3.0,0.0,1.0,0.0,0.0,1651085822272413.0,2
1240,-1.0,1.0,-2.0,2.0,8.0,1.0,0.0,3.0,1651085822272413.0,2
1241,-3.0,3.0,3.0,0.0,0.0,-1.0,-1.0,-2.0,1651085822272413.0,2
1242,1.0,-1.0,1.0,-3.0,-5.0,0.0,-2.0,-2.0,1651085822285724.0,2
1243,2.0,2.0,1.0,1.0,-1.0,1.0,0.0,1.0,1651085822285724.0,2
1244,-3.0,-12.0,-4.0,-2.0,-2.0,-2.0,1.0,-1.0,1651085822286575.0,2
1245,-3.0,8.0,1.0,-2.0,-4.0,0.0,0.0,1.0,1651085822286575.0,2
1246,1.0,-5.0,-7.0,-1.0,5.0,1.0,0.0,0.0,1651085822308556.0,2
1247,-2.0,-1.0,2.0,0.0,-2.0,-2.0,-2.0,-1.0,1651085822308556.0,2
1248,-1.0,-1.0,-4.0,-1.0,1.0,2.0,1.0,-3.0,1651085822309437.0,2
1249,0.0,-6.0,-5.0,-2.0,-3.0,-3.0,-1.0,0.0,1651085822309437.0,2
1250,2.0,0.0,-4.0,-2.0,-4.0,-3.0,0.0,0.0,1651085822324330.0,2
1251,-2.0,1.0,-1.0,-2.0,0.0,-1.0,0.0,1.0,1651085822324330.0,2
1252,1.0,-2.0,4.0,1.0,-3.0,-1.0,-2.0,-2.0,1651085822324330.0,2
1253,0.0,0.0,-1.0,3.0,4.0,3.0,2.0,1.0,1651085822324330.0,2
1254,-1.0,1.0,1.0,-1.0,-2.0,0.0,-1.0,-2.0,1651085822346534.0,2
1255,-1.0,-3.0,5.0,-1.0,0.0,1.0,2.0,0.0,1651085822346534.0,2
1256,-1.0,2.0,-4.0,-5.0,-6.0,-4.0,-2.0,-1.0,1651085822346534.0,2
1257,1.0,0.0,-1.0,-1.0,-1.0,-3.0,-1.0,0.0,1651085822346534.0,2
1258,-3.0,0.0,1.0,4.0,6.0,2.0,1.0,0.0,1651085822369574.0,2
1259,-2.0,-1.0,0.0,2.0,0.0,1.0,1.0,-1.0,1651085822369574.0,2
1260,-1.0,2.0,1.0,-1.0,-3.0,-1.0,-2.0,-1.0,1651085822369574.0,2
1261,2.0,-2.0,-4.0,1.0,0.0,-1.0,-1.0,-1.0,1651085822369574.0,2
1262,0.0,0.0,1.0,0.0,-1.0,-1.0,-1.0,1.0,1651085822384320.0,2
1263,-2.0,-1.0,-1.0,-1.0,1.0,1.0,0.0,1.0,1651085822384320.0,2
1264,-1.0,0.0,-1.0,-3.0,0.0,-1.0,-1.0,-1.0,1651085822384320.0,2
1265,0.0,-1.0,-1.0,-2.0,-2.0,-3.0,-2.0,1.0,1651085822384320.0,2
1266,0.0,-1.0,-1.0,0.0,-2.0,-2.0,-1.0,-1.0,1651085822406381.0,2
1267,-1.0,-2.0,-1.0,1.0,1.0,0.0,1.0,0.0,1651085822406381.0,2
1268,-1.0,0.0,1.0,0.0,-1.0,-1.0,-1.0,0.0,1651085822406381.0,2
1269,0.0,-2.0,0.0,-1.0,-3.0,-1.0,-2.0,0.0,1651085822406381.0,2
1270,-1.0,0.0,0.0,-1.0,3.0,1.0,2.0,0.0,1651085822429247.0,2
1271,0.0,-1.0,-2.0,-4.0,1.0,-1.0,-1.0,-2.0,1651085822429247.0,2
1272,-1.0,-1.0,0.0,1.0,-1.0,0.0,1.0,-1.0,1651085822429247.0,2
1273,-1.0,-1.0,0.0,-1.0,1.0,2.0,2.0,-3.0,1651085822429247.0,2
1274,-1.0,-2.0,-1.0,-1.0,-2.0,-2.0,-2.0,-1.0,1651085822443364.0,2
1275,-1.0,0.0,-2.0,-1.0,0.0,-1.0,-1.0,-1.0,1651085822443364.0,2
1276,0.0,0.0,0.0,0.0,-1.0,-1.0,0.0,-1.0,1651085822444229.0,2
1277,0.0,-1.0,-1.0,-1.0,-3.0,-1.0,-1.0,1.0,1651085822444229.0,2
1278,0.0,0.0,0.0,-1.0,0.0,-3.0,-2.0,-1.0,1651085822466373.0,2
1279,-1.0,0.0,0.0,0.0,3.0,1.0,0.0,-1.0,1651085822466373.0,2
1280,0.0,0.0,0.0,2.0,-1.0,1.0,-1.0,-1.0,1651085822466373.0,2
1281,-1.0,0.0,-3.0,-2.0,-1.0,-1.0,1.0,-1.0,1651085822466373.0,2
1282,1.0,-2.0,0.0,-1.0,-1.0,1.0,0.0,1.0,1651085822489238.0,2
1283,2.0,0.0,-1.0,-2.0,-3.0,-3.0,-2.0,0.0,1651085822489238.0,2
1284,0.0,1.0,-1.0,0.0,0.0,-1.0,-1.0,1.0,1651085822489238.0,2
1285,0.0,-1.0,1.0,3.0,5.0,0.0,-1.0,-2.0,1651085822489238.0,2
1286,-1.0,-1.0,-1.0,1.0,0.0,1.0,1.0,1.0,1651085822504365.0,2
1287,0.0,0.0,-1.0,-3.0,-2.0,-1.0,-2.0,-1.0,1651085822504365.0,2
1288,-2.0,-2.0,1.0,-2.0,-2.0,-2.0,-1.0,-2.0,1651085822504365.0,2
1289,0.0,0.0,-1.0,-3.0,-1.0,0.0,-2.0,0.0,1651085822504365.0,2
1290,-1.0,1.0,-2.0,1.0,0.0,1.0,0.0,-1.0,1651085822526219.0,2
1291,-1.0,-2.0,1.0,1.0,1.0,1.0,1.0,1.0,1651085822526219.0,2
1292,0.0,0.0,-1.0,-2.0,0.0,1.0,0.0,1.0,1651085822526219.0,2
1293,1.0,-1.0,-2.0,-1.0,-3.0,-2.0,0.0,1.0,1651085822526219.0,2
1294,1.0,0.0,-1.0,0.0,0.0,-2.0,0.0,-2.0,1651085822549072.0,2
1295,1.0,0.0,0.0,2.0,0.0,2.0,0.0,0.0,1651085822549072.0,2
1296,-1.0,-1.0,1.0,1.0,0.0,1.0,-3.0,0.0,1651085822550111.0,2
1297,0.0,0.0,0.0,-1.0,-1.0,0.0,1.0,0.0,1651085822550111.0,2
1298,1.0,0.0,0.0,-3.0,-5.0,0.0,-1.0,0.0,1651085822564312.0,2
1299,0.0,-2.0,-1.0,-2.0,-2.0,-3.0,-1.0,-1.0,1651085822564312.0,2
1300,-1.0,-2.0,-1.0,-1.0,-2.0,-1.0,-1.0,0.0,1651085822564312.0,2
1301,0.0,0.0,0.0,0.0,0.0,-2.0,-3.0,0.0,1651085822564312.0,2
1302,-3.0,0.0,2.0,0.0,4.0,2.0,0.0,-1.0,1651085822585223.0,2
1303,-1.0,1.0,1.0,2.0,0.0,0.0,-2.0,1.0,1651085822585223.0,2
1304,-2.0,-1.0,0.0,-1.0,0.0,1.0,2.0,0.0,1651085822586220.0,2
1305,-1.0,-1.0,-2.0,-3.0,0.0,-2.0,0.0,0.0,1651085822586220.0,2
1306,-2.0,-2.0,-2.0,-1.0,1.0,-1.0,0.0,-1.0,1651085822616374.0,2
1307,-1.0,-3.0,-1.0,-3.0,-3.0,-3.0,0.0,-1.0,1651085822616374.0,2
1308,-1.0,1.0,-2.0,0.0,0.0,-2.0,1.0,-1.0,1651085822617391.0,2
1309,0.0,-2.0,1.0,1.0,1.0,1.0,0.0,-1.0,1651085822617391.0,2
1310,0.0,-2.0,0.0,0.0,-3.0,-1.0,-3.0,-2.0,1651085822623378.0,2
1311,-1.0,-1.0,-2.0,-1.0,1.0,0.0,-1.0,0.0,1651085822623378.0,2
1312,-1.0,1.0,-1.0,1.0,-2.0,-1.0,-2.0,-3.0,1651085822624409.0,2
1313,-1.0,-1.0,1.0,0.0,2.0,2.0,1.0,1.0,1651085822624409.0,2
1314,-1.0,0.0,-2.0,-1.0,-2.0,-1.0,0.0,0.0,1651085822646102.0,2
1315,-1.0,-1.0,0.0,1.0,-1.0,-1.0,-1.0,0.0,1651085822646102.0,2
1316,0.0,-1.0,-1.0,-2.0,1.0,-1.0,0.0,-1.0,1651085822646102.0,2
1317,-1.0,1.0,0.0,0.0,-1.0,-1.0,0.0,0.0,1651085822646102.0,2
1318,0.0,0.0,-1.0,-1.0,-3.0,-4.0,-1.0,1.0,1651085822669211.0,2
1319,0.0,0.0,-2.0,0.0,0.0,-1.0,0.0,-1.0,1651085822669211.0,2
1320,-1.0,0.0,0.0,3.0,2.0,2.0,1.0,-1.0,1651085822670119.0,2
1321,-1.0,-1.0,-1.0,1.0,0.0,0.0,-1.0,-1.0,1651085822670119.0,2
1322,-1.0,0.0,-1.0,0.0,-2.0,-1.0,0.0,2.0,1651085822682700.0,2
1323,0.0,1.0,2.0,-3.0,-1.0,-2.0,-3.0,-2.0,1651085822682700.0,2
1324,0.0,0.0,-1.0,0.0,0.0,0.0,-1.0,-2.0,1651085822683736.0,2
1325,-1.0,-2.0,-1.0,2.0,3.0,2.0,1.0,-1.0,1651085822683736.0,2
1326,0.0,-1.0,-2.0,-2.0,-4.0,-2.0,0.0,-1.0,1651085822705352.0,2
1327,0.0,1.0,-5.0,-3.0,-3.0,-1.0,-1.0,-1.0,1651085822705352.0,2
1328,0.0,-1.0,0.0,2.0,2.0,1.0,-1.0,1.0,1651085822706249.0,2
1329,-1.0,-1.0,-1.0,0.0,0.0,-1.0,0.0,-1.0,1651085822706249.0,2
1330,1.0,0.0,0.0,0.0,1.0,2.0,-1.0,1.0,1651085822729223.0,2
1331,-1.0,0.0,0.0,2.0,-2.0,1.0,1.0,2.0,1651085822729223.0,2
1332,-1.0,-2.0,-1.0,-2.0,-5.0,-3.0,-3.0,0.0,1651085822729223.0,2
1333,-1.0,-1.0,-1.0,-3.0,-3.0,-1.0,-1.0,-1.0,1651085822729223.0,0
1334,-2.0,-1.0,1.0,2.0,5.0,3.0,0.0,-1.0,1651085822742352.0,0
1335,0.0,-1.0,1.0,-2.0,-1.0,-2.0,-1.0,-1.0,1651085822742352.0,0
1336,0.0,1.0,-3.0,-1.0,-2.0,-4.0,-1.0,0.0,1651085822750364.0,0
1337,0.0,-1.0,0.0,4.0,3.0,-1.0,0.0,0.0,1651085822750364.0,0
1338,-1.0,-1.0,-1.0,-1.0,0.0,0.0,0.0,-1.0,1651085822765343.0,0
1339,0.0,-2.0,-3.0,1.0,0.0,-2.0,-1.0,-1.0,1651085822765343.0,0
1340,1.0,-1.0,-2.0,-3.0,1.0,0.0,-1.0,0.0,1651085822766228.0,0
1341,0.0,0.0,-1.0,0.0,1.0,-1.0,0.0,-1.0,1651085822766228.0,0
1342,0.0,-1.0,-1.0,-2.0,-2.0,-2.0,-3.0,-1.0,1651085822796254.0,0
1343,-1.0,-1.0,0.0,1.0,-1.0,-1.0,0.0,-1.0,1651085822796254.0,0
1344,-3.0,-1.0,-1.0,1.0,1.0,0.0,-1.0,0.0,1651085822797113.0,0
1345,-1.0,-1.0,-1.0,-3.0,-2.0,-1.0,-3.0,0.0,1651085822797113.0,0
1346,1.0,-1.0,-2.0,-1.0,-1.0,0.0,0.0,1.0,1651085822802102.0,0
1347,0.0,1.0,0.0,1.0,2.0,0.0,-1.0,-1.0,1651085822802102.0,0
1348,0.0,-1.0,1.0,0.0,0.0,2.0,0.0,-1.0,1651085822811245.0,0
1349,0.0,-1.0,-1.0,-1.0,-1.0,0.0,-1.0,-1.0,1651085822811245.0,0
1350,-2.0,-1.0,-1.0,1.0,0.0,-2.0,1.0,-2.0,1651085822825234.0,0
1351,-1.0,0.0,-1.0,-2.0,-2.0,1.0,0.0,0.0,1651085822825234.0,0
1352,0.0,1.0,0.0,-1.0,-2.0,-2.0,0.0,-1.0,1651085822826232.0,0
1353,0.0,-2.0,1.0,1.0,1.0,-2.0,0.0,0.0,1651085822826232.0,0
1354,0.0,1.0,0.0,-3.0,-4.0,-3.0,-1.0,0.0,1651085822849249.0,0
1355,-1.0,-1.0,0.0,1.0,-1.0,-2.0,0.0,-1.0,1651085822849249.0,0
1356,0.0,1.0,1.0,1.0,4.0,5.0,-1.0,1.0,1651085822849249.0,0
1357,0.0,1.0,-1.0,-1.0,-1.0,0.0,-1.0,0.0,1651085822849249.0,0
1358,0.0,-1.0,-1.0,-2.0,-3.0,-3.0,-2.0,-1.0,1651085822863222.0,0
1359,-1.0,-2.0,0.0,1.0,0.0,2.0,0.0,0.0,1651085822863222.0,0
1360,-1.0,-1.0,1.0,0.0,-3.0,-3.0,2.0,-1.0,1651085822871719.0,0
1361,0.0,0.0,-3.0,-2.0,-5.0,0.0,-1.0,-1.0,1651085822871719.0,0
1362,0.0,0.0,-1.0,-1.0,0.0,1.0,-1.0,-1.0,1651085822886543.0,0
1363,-2.0,0.0,-2.0,-1.0,0.0,-3.0,-2.0,0.0,1651085822886543.0,0
1364,1.0,-1.0,-1.0,-1.0,-1.0,-4.0,-1.0,-1.0,1651085822886543.0,0
1365,-1.0,0.0,0.0,1.0,-2.0,-1.0,-1.0,0.0,1651085822886543.0,0
1366,-2.0,-3.0,3.0,3.0,3.0,1.0,3.0,0.0,1651085822909094.0,0
1367,-1.0,0.0,0.0,-4.0,-2.0,1.0,0.0,-2.0,1651085822909094.0,0
1368,2.0,-2.0,-1.0,-2.0,-3.0,-2.0,-1.0,0.0,1651085822909094.0,0
1369,-1.0,-1.0,2.0,-3.0,-2.0,-2.0,0.0,-1.0,1651085822909094.0,0
1370,0.0,-1.0,-1.0,-2.0,0.0,1.0,0.0,0.0,1651085822923094.0,0
1371,-1.0,-1.0,2.0,1.0,5.0,3.0,1.0,0.0,1651085822923094.0,0
1372,-3.0,0.0,0.0,-1.0,-1.0,1.0,0.0,0.0,1651085822931414.0,0
1373,0.0,0.0,-1.0,0.0,-1.0,-1.0,0.0,-2.0,1651085822931414.0,0
1374,-1.0,1.0,0.0,-1.0,-2.0,-1.0,-1.0,0.0,1651085822946384.0,0
1375,1.0,-1.0,0.0,2.0,-2.0,0.0,-1.0,-1.0,1651085822946384.0,0
1376,-1.0,-2.0,0.0,-3.0,-2.0,-4.0,0.0,0.0,1651085822946384.0,0
1377,-3.0,-1.0,-1.0,0.0,3.0,2.0,1.0,2.0,1651085822946384.0,0
1378,0.0,-1.0,1.0,0.0,2.0,0.0,0.0,0.0,1651085822977375.0,0
1379,1.0,1.0,0.0,-2.0,-1.0,0.0,0.0,1.0,1651085822977375.0,0
1380,0.0,0.0,-1.0,1.0,0.0,-2.0,-2.0,-1.0,1651085822977375.0,0
1381,0.0,-1.0,-2.0,0.0,-3.0,-2.0,-2.0,0.0,1651085822977375.0,0
1382,-1.0,-1.0,-1.0,0.0,0.0,-1.0,1.0,-1.0,1651085822982237.0,0
1383,-2.0,-1.0,-1.0,-1.0,1.0,1.0,1.0,-1.0,1651085822982237.0,0
1384,0.0,0.0,-1.0,-2.0,-2.0,-2.0,0.0,-2.0,1651085822990391.0,0
1385,-1.0,-1.0,-1.0,-3.0,-1.0,0.0,-1.0,0.0,1651085822990391.0,0
1386,-1.0,0.0,1.0,2.0,-1.0,0.0,-1.0,-3.0,1651085823006390.0,0
1387,-1.0,-1.0,-1.0,-1.0,0.0,0.0,-1.0,0.0,1651085823006390.0,0
1388,-2.0,0.0,1.0,1.0,2.0,0.0,-1.0,-2.0,1651085823007253.0,0
1389,1.0,1.0,0.0,-2.0,-1.0,-4.0,0.0,1.0,1651085823007253.0,0
1390,0.0,0.0,-2.0,-3.0,-3.0,-1.0,0.0,-3.0,1651085823029196.0,0
1391,-1.0,-1.0,-2.0,-4.0,-4.0,-2.0,0.0,-2.0,1651085823029196.0,0
1392,-2.0,-1.0,1.0,1.0,3.0,1.0,0.0,0.0,1651085823029196.0,0
1393,-1.0,0.0,0.0,4.0,3.0,2.0,1.0,-2.0,1651085823029196.0,0
1394,-2.0,-1.0,-1.0,-2.0,0.0,-1.0,-2.0,1.0,1651085823043217.0,0
1395,-1.0,-1.0,-1.0,-2.0,-2.0,-2.0,-1.0,-1.0,1651085823043217.0,0
1396,-1.0,0.0,-2.0,-1.0,-4.0,-1.0,-2.0,0.0,1651085823050364.0,0
1397,1.0,0.0,0.0,0.0,0.0,-1.0,-1.0,-1.0,1651085823050364.0,0
1398,0.0,1.0,-1.0,-1.0,1.0,2.0,-1.0,-1.0,1651085823073405.0,0
1399,0.0,0.0,-2.0,-2.0,-2.0,-2.0,-1.0,0.0,1651085823073405.0,0
1400,1.0,1.0,-2.0,-2.0,-3.0,-1.0,0.0,0.0,1651085823074434.0,0
1401,0.0,0.0,-1.0,3.0,5.0,2.0,0.0,0.0,1651085823074434.0,0
1402,-2.0,-1.0,0.0,1.0,0.0,-2.0,1.0,1.0,1651085823089375.0,0
1403,1.0,-1.0,-2.0,-1.0,-2.0,-1.0,0.0,0.0,1651085823089375.0,0
1404,0.0,0.0,-1.0,0.0,-2.0,2.0,-1.0,-1.0,1651085823089375.0,0
1405,-1.0,-1.0,-1.0,-2.0,-3.0,-1.0,-1.0,-2.0,1651085823089375.0,0
1406,0.0,0.0,-3.0,-3.0,-4.0,-3.0,-2.0,0.0,1651085823112534.0,0
1407,-2.0,-3.0,0.0,2.0,2.0,1.0,-2.0,-2.0,1651085823112534.0,0
1408,0.0,-1.0,0.0,3.0,5.0,4.0,2.0,0.0,1651085823112534.0,0
1409,0.0,0.0,-2.0,-1.0,-5.0,-2.0,-1.0,0.0,1651085823112534.0,0
1410,1.0,0.0,0.0,4.0,1.0,-1.0,-2.0,-2.0,1651085823126376.0,0
1411,0.0,1.0,-1.0,-2.0,-1.0,0.0,1.0,1.0,1651085823126376.0,0
1412,0.0,0.0,-2.0,-3.0,-2.0,-3.0,1.0,1.0,1651085823126376.0,0
1413,-1.0,0.0,-1.0,-3.0,-3.0,-3.0,-1.0,0.0,1651085823126376.0,0
1414,-1.0,-2.0,0.0,-1.0,0.0,0.0,0.0,0.0,1651085823148653.0,0
1415,0.0,-2.0,1.0,4.0,3.0,1.0,1.0,0.0,1651085823148653.0,0
1416,-2.0,-1.0,1.0,1.0,4.0,3.0,0.0,-1.0,1651085823149488.0,0
1417,0.0,-1.0,-1.0,-3.0,-4.0,-1.0,2.0,-2.0,1651085823149488.0,0
1418,-1.0,0.0,-2.0,-1.0,-1.0,1.0,0.0,1.0,1651085823171898.0,0
1419,1.0,1.0,-2.0,-3.0,-2.0,-2.0,-1.0,0.0,1651085823171898.0,0
1420,0.0,-3.0,-1.0,-2.0,-1.0,-1.0,-2.0,1.0,1651085823171898.0,0
1421,-1.0,0.0,-1.0,-1.0,-2.0,-1.0,-3.0,-2.0,1651085823171898.0,0
1422,-1.0,1.0,0.0,-3.0,-5.0,-2.0,-1.0,-1.0,1651085823185786.0,0
1423,-1.0,-1.0,1.0,1.0,1.0,0.0,-1.0,-1.0,1651085823185786.0,0
1424,-2.0,0.0,-1.0,-1.0,-3.0,-3.0,-1.0,0.0,1651085823192859.0,0
1425,0.0,-1.0,-2.0,0.0,1.0,0.0,-1.0,1.0,1651085823192859.0,0
1426,-1.0,0.0,0.0,2.0,0.0,2.0,0.0,-1.0,1651085823209624.0,0
1427,-1.0,0.0,-2.0,0.0,-1.0,-1.0,-2.0,-1.0,1651085823209624.0,0
1428,0.0,0.0,0.0,-3.0,-4.0,-1.0,0.0,-1.0,1651085823209624.0,0
1429,-1.0,-2.0,2.0,2.0,2.0,1.0,-2.0,0.0,1651085823209624.0,0
1430,0.0,-2.0,0.0,1.0,1.0,0.0,0.0,-1.0,1651085823232345.0,0
1431,0.0,0.0,-1.0,-1.0,-2.0,0.0,0.0,0.0,1651085823232345.0,0
1432,-1.0,-1.0,-1.0,1.0,3.0,0.0,0.0,-2.0,1651085823232345.0,0
1433,0.0,-2.0,-2.0,-1.0,0.0,0.0,-1.0,1.0,1651085823232345.0,0
1434,0.0,0.0,-1.0,-3.0,0.0,0.0,-1.0,0.0,1651085823254201.0,0
1435,-2.0,2.0,-1.0,0.0,-4.0,-2.0,-1.0,1.0,1651085823254201.0,0
1436,0.0,0.0,-1.0,-2.0,-3.0,0.0,-1.0,-1.0,1651085823255104.0,0
1437,-3.0,0.0,1.0,4.0,4.0,3.0,1.0,-1.0,1651085823255104.0,0
1438,1.0,-2.0,-2.0,-2.0,-1.0,-2.0,-2.0,2.0,1651085823269042.0,0
1439,0.0,-1.0,0.0,0.0,1.0,-1.0,1.0,-2.0,1651085823269042.0,0
1440,1.0,-2.0,0.0,-1.0,-3.0,-1.0,-2.0,0.0,1651085823270086.0,0
1441,-1.0,0.0,0.0,-1.0,-3.0,-2.0,-1.0,-1.0,1651085823270086.0,0
1442,-2.0,0.0,-1.0,1.0,1.0,4.0,0.0,0.0,1651085823290923.0,0
1443,0.0,0.0,-2.0,0.0,0.0,0.0,1.0,-1.0,1651085823290923.0,0
1444,-1.0,0.0,-1.0,-2.0,-2.0,-3.0,0.0,1.0,1651085823291814.0,0
1445,-1.0,-3.0,0.0,0.0,0.0,-1.0,0.0,1.0,1651085823291814.0,0
1446,-1.0,-3.0,-2.0,-1.0,-3.0,-4.0,-2.0,0.0,1651085823306373.0,0
1447,-1.0,0.0,-1.0,0.0,0.0,0.0,2.0,-1.0,1651085823306373.0,0
1448,0.0,-2.0,0.0,-1.0,-2.0,-2.0,-1.0,-2.0,1651085823306373.0,0
1449,-1.0,0.0,-1.0,-1.0,-1.0,-1.0,0.0,0.0,1651085823306373.0,0
1450,1.0,0.0,-1.0,0.0,0.0,0.0,-1.0,-2.0,1651085823329071.0,0
1451,0.0,1.0,-3.0,0.0,0.0,0.0,-2.0,0.0,1651085823329071.0,0
1452,-1.0,0.0,-1.0,1.0,0.0,-1.0,2.0,0.0,1651085823329071.0,0
1453,-1.0,0.0,-2.0,-2.0,-2.0,-1.0,-1.0,1.0,1651085823329071.0,0
1454,-1.0,1.0,-1.0,-1.0,-1.0,-2.0,-1.0,0.0,1651085823351233.0,0
1455,0.0,-2.0,1.0,0.0,1.0,0.0,-1.0,1.0,1651085823351233.0,0
1456,0.0,1.0,2.0,3.0,3.0,1.0,-1.0,0.0,1651085823352231.0,0
1457,0.0,-1.0,-1.0,-1.0,-1.0,0.0,0.0,0.0,1651085823352231.0,0
1458,0.0,-1.0,-2.0,-2.0,-2.0,-3.0,0.0,-1.0,1651085823366352.0,0
1459,1.0,-1.0,1.0,-4.0,-3.0,-2.0,-1.0,1.0,1651085823366352.0,0
1460,0.0,1.0,0.0,-3.0,-8.0,-5.0,-2.0,0.0,1651085823366352.0,0
1461,0.0,0.0,-6.0,5.0,4.0,2.0,0.0,-1.0,1651085823366352.0,0
1462,-1.0,-4.0,-3.0,0.0,-3.0,0.0,-1.0,-1.0,1651085823389246.0,0
1463,-1.0,1.0,3.0,-8.0,-12.0,-5.0,-2.0,-2.0,1651085823389246.0,0
1464,2.0,0.0,1.0,7.0,26.0,11.0,1.0,2.0,1651085823389246.0,0
1465,1.0,7.0,0.0,9.0,14.0,1.0,1.0,1.0,1651085823389246.0,3
1466,-2.0,-8.0,1.0,-2.0,1.0,-1.0,-1.0,-2.0,1651085823412389.0,3
1467,-3.0,-1.0,0.0,-1.0,-1.0,1.0,1.0,-1.0,1651085823412389.0,3
1468,0.0,0.0,-5.0,-7.0,-14.0,-4.0,0.0,-2.0,1651085823412389.0,3
1469,-3.0,-3.0,-1.0,-6.0,-7.0,-4.0,-1.0,0.0,1651085823412389.0,3
1470,0.0,1.0,-1.0,-1.0,0.0,-1.0,1.0,1.0,1651085823426338.0,3
1471,0.0,-1.0,-1.0,1.0,2.0,2.0,0.0,1.0,1651085823426338.0,3
1472,-2.0,-2.0,0.0,-2.0,-2.0,-1.0,-1.0,1.0,1651085823426338.0,3
1473,0.0,-1.0,-2.0,-3.0,-5.0,-3.0,0.0,-1.0,1651085823426338.0,3
1474,1.0,2.0,2.0,-3.0,-4.0,-5.0,-1.0,0.0,1651085823449209.0,3
1475,-2.0,-2.0,0.0,3.0,6.0,0.0,1.0,-1.0,1651085823449209.0,3
1476,-2.0,0.0,3.0,5.0,4.0,2.0,2.0,1.0,1651085823449209.0,3
1477,0.0,-2.0,-2.0,-7.0,-8.0,-2.0,-3.0,-2.0,1651085823449209.0,3
1478,-1.0,-2.0,0.0,3.0,2.0,1.0,0.0,0.0,1651085823471811.0,3
1479,0.0,0.0,-3.0,-2.0,-6.0,-5.0,-1.0,0.0,1651085823471811.0,3
1480,0.0,1.0,-3.0,-7.0,1.0,5.0,0.0,-1.0,1651085823471811.0,3
1481,1.0,3.0,6.0,4.0,-2.0,1.0,0.0,0.0,1651085823471811.0,3
1482,0.0,-1.0,-3.0,8.0,22.0,8.0,0.0,-1.0,1651085823485219.0,3
1483,0.0,1.0,4.0,6.0,4.0,2.0,0.0,0.0,1651085823485219.0,3
1484,-2.0,-15.0,-1.0,-2.0,-10.0,-10.0,-3.0,-3.0,1651085823486217.0,3
1485,1.0,23.0,2.0,-2.0,3.0,2.0,1.0,-1.0,1651085823486217.0,3
1486,2.0,-6.0,2.0,-19.0,-26.0,-7.0,-1.0,-1.0,1651085823509295.0,3
1487,-1.0,-4.0,-4.0,15.0,17.0,2.0,2.0,-2.0,1651085823509295.0,3
1488,-1.0,7.0,-3.0,-7.0,-5.0,0.0,1.0,0.0,1651085823509295.0,3
1489,-1.0,-4.0,7.0,10.0,4.0,-1.0,0.0,-2.0,1651085823509295.0,3
1490,-1.0,-7.0,1.0,5.0,13.0,5.0,1.0,0.0,1651085823539231.0,3
1491,-1.0,6.0,-3.0,-4.0,2.0,-1.0,-3.0,-2.0,1651085823539231.0,3
1492,-1.0,-8.0,-11.0,-16.0,-20.0,-7.0,-3.0,-1.0,1651085823540231.0,3
1493,-2.0,-11.0,-6.0,-14.0,-8.0,-6.0,-1.0,-1.0,1651085823540231.0,3
1494,1.0,10.0,13.0,27.0,23.0,17.0,5.0,2.0,1651085823554362.0,3
1495,-2.0,-9.0,-9.0,-3.0,3.0,-3.0,-3.0,-1.0,1651085823554362.0,3
1496,-1.0,2.0,-4.0,-3.0,5.0,2.0,0.0,0.0,1651085823554362.0,3
1497,0.0,-2.0,-1.0,-1.0,-20.0,-11.0,-2.0,-1.0,1651085823554362.0,3
1498,-2.0,1.0,0.0,-10.0,-14.0,-11.0,-4.0,-2.0,1651085823568523.0,3
1499,0.0,-2.0,-7.0,-5.0,2.0,5.0,1.0,0.0,1651085823568523.0,3
1500,-1.0,4.0,0.0,0.0,-5.0,-6.0,-2.0,-1.0,1651085823569526.0,3
1501,-1.0,-5.0,11.0,-4.0,-6.0,-3.0,0.0,0.0,1651085823569526.0,3
1502,0.0,-3.0,-6.0,8.0,9.0,5.0,0.0,-1.0,1651085823591544.0,3
1503,1.0,4.0,-4.0,-38.0,-37.0,-13.0,-3.0,-1.0,1651085823591544.0,3
1504,-1.0,-3.0,3.0,45.0,31.0,10.0,4.0,0.0,1651085823592429.0,3
1505,0.0,-7.0,-15.0,-31.0,-10.0,-3.0,-1.0,1.0,1651085823592429.0,3
1506,-1.0,-1.0,-19.0,1.0,-3.0,-4.0,-1.0,0.0,1651085823605511.0,3
1507,1.0,6.0,10.0,0.0,-8.0,-4.0,-3.0,-1.0,1651085823605511.0,3
1508,-2.0,-1.0,11.0,-14.0,-23.0,-5.0,-3.0,-3.0,1651085823606361.0,3
1509,-1.0,-3.0,-13.0,-4.0,8.0,1.0,-2.0,0.0,1651085823606361.0,3
1510,1.0,11.0,-4.0,-19.0,-4.0,5.0,3.0,1.0,1651085823628678.0,3
1511,0.0,-11.0,5.0,17.0,0.0,-5.0,0.0,-1.0,1651085823628678.0,3
1512,-1.0,2.0,-3.0,-18.0,-4.0,-3.0,-3.0,-1.0,1651085823629073.0,3
1513,-3.0,-6.0,-21.0,-1.0,-10.0,-6.0,-3.0,-4.0,1651085823629073.0,3
1514,0.0,2.0,-15.0,-6.0,-1.0,1.0,3.0,1.0,1651085823651724.0,3
1515,2.0,2.0,0.0,-5.0,2.0,1.0,1.0,2.0,1651085823651724.0,3
1516,2.0,4.0,11.0,7.0,13.0,7.0,2.0,1.0,1651085823651724.0,3
1517,1.0,0.0,14.0,13.0,14.0,6.0,4.0,1.0,1651085823651724.0,3
1518,-4.0,0.0,-13.0,-16.0,-23.0,-14.0,-7.0,-3.0,1651085823665350.0,3
1519,-1.0,-2.0,9.0,10.0,-6.0,2.0,-1.0,-2.0,1651085823665350.0,3
1520,3.0,4.0,11.0,15.0,21.0,7.0,4.0,2.0,1651085823673204.0,3
1521,0.0,1.0,-18.0,-31.0,-14.0,-6.0,-2.0,-1.0,1651085823673204.0,3
1522,-1.0,0.0,32.0,23.0,20.0,9.0,3.0,1.0,1651085823689223.0,3
1523,-2.0,-3.0,-13.0,2.0,9.0,2.0,0.0,0.0,1651085823689223.0,3
1524,-3.0,-1.0,9.0,-4.0,-21.0,-11.0,-6.0,-3.0,1651085823689223.0,3
1525,-2.0,-4.0,5.0,28.0,31.0,14.0,0.0,0.0,1651085823689223.0,3
1526,2.0,0.0,11.0,-15.0,-22.0,-10.0,-1.0,-1.0,1651085823719198.0,3
1527,0.0,1.0,19.0,43.0,46.0,11.0,1.0,1.0,1651085823719198.0,3
1528,0.0,4.0,-38.0,-36.0,-21.0,-9.0,-2.0,-3.0,1651085823719198.0,3
1529,2.0,0.0,-8.0,2.0,15.0,6.0,-1.0,0.0,1651085823719198.0,3
1530,-3.0,2.0,30.0,1.0,-17.0,-5.0,0.0,0.0,1651085823725182.0,3
1531,1.0,-2.0,-35.0,-34.0,1.0,7.0,2.0,2.0,1651085823725182.0,3
1532,-3.0,-4.0,18.0,19.0,-15.0,-9.0,-2.0,-2.0,1651085823734262.0,3
1533,0.0,-1.0,1.0,16.0,17.0,2.0,0.0,0.0,1651085823734262.0,3
1534,1.0,0.0,1.0,-12.0,-4.0,-1.0,-1.0,-1.0,1651085823750274.0,3
1535,1.0,0.0,16.0,1.0,-15.0,-8.0,-1.0,-1.0,1651085823750274.0,3
1536,-1.0,-1.0,-24.0,-3.0,-3.0,4.0,4.0,1.0,1651085823751265.0,3
1537,-4.0,3.0,27.0,8.0,-21.0,-7.0,-2.0,-2.0,1651085823751265.0,3
1538,0.0,-7.0,-43.0,9.0,34.0,4.0,-3.0,1.0,1651085823779196.0,3
1539,0.0,1.0,17.0,-3.0,-4.0,3.0,1.0,0.0,1651085823779196.0,3
1540,0.0,-2.0,-12.0,-12.0,-11.0,-4.0,-2.0,-2.0,1651085823779196.0,3
1541,-1.0,-2.0,-13.0,3.0,23.0,10.0,5.0,1.0,1651085823779196.0,3
1542,-2.0,-4.0,33.0,18.0,0.0,-4.0,-4.0,-3.0,1651085823785184.0,3
1543,0.0,-3.0,-41.0,-26.0,-15.0,-6.0,-3.0,0.0,1651085823785184.0,3
1544,2.0,-1.0,10.0,7.0,10.0,3.0,0.0,1.0,1651085823794273.0,3
1545,0.0,1.0,12.0,-14.0,-14.0,-2.0,2.0,0.0,1651085823794273.0,3
1546,-1.0,1.0,-9.0,20.0,10.0,3.0,3.0,0.0,1651085823809191.0,3
1547,-1.0,1.0,11.0,-10.0,2.0,1.0,3.0,0.0,1651085823809191.0,3
1548,-4.0,-4.0,-11.0,7.0,-2.0,-7.0,-10.0,-5.0,1651085823809191.0,3
1549,2.0,1.0,8.0,1.0,-9.0,-9.0,-4.0,-1.0,1651085823809191.0,3
1550,0.0,0.0,-2.0,-3.0,-3.0,1.0,0.0,-1.0,1651085823839213.0,3
1551,-3.0,-1.0,-20.0,-9.0,-6.0,-5.0,-2.0,-1.0,1651085823839213.0,3
1552,1.0,-2.0,-15.0,-9.0,15.0,13.0,4.0,0.0,1651085823839213.0,3
1553,-1.0,2.0,16.0,9.0,2.0,0.0,7.0,3.0,1651085823839213.0,3
1554,2.0,-1.0,-12.0,-15.0,-13.0,-4.0,-1.0,2.0,1651085823845231.0,3
1555,1.0,1.0,4.0,14.0,0.0,-1.0,-6.0,-2.0,1651085823845231.0,3
1556,0.0,-1.0,-1.0,-12.0,-5.0,-13.0,-2.0,-5.0,1651085823853958.0,3
1557,-3.0,-7.0,3.0,0.0,0.0,2.0,8.0,3.0,1651085823853958.0,3
1558,-1.0,-3.0,-3.0,-4.0,0.0,7.0,0.0,2.0,1651085823868189.0,3
1559,-2.0,-1.0,-8.0,7.0,6.0,12.0,14.0,5.0,1651085823868189.0,3
1560,-5.0,1.0,24.0,18.0,11.0,4.0,-11.0,-7.0,1651085823869187.0,3
1561,7.0,1.0,11.0,-10.0,-4.0,11.0,13.0,8.0,1651085823869187.0,3
1562,-2.0,-2.0,-7.0,-7.0,-4.0,2.0,11.0,-1.0,1651085823891774.0,3
1563,1.0,-1.0,-23.0,-13.0,-3.0,1.0,-2.0,2.0,1651085823891774.0,3
1564,-2.0,-1.0,38.0,13.0,5.0,-1.0,1.0,3.0,1651085823891774.0,3
1565,-2.0,-2.0,-27.0,-1.0,-5.0,-5.0,-6.0,-8.0,1651085823891774.0,3
1566,-1.0,0.0,-3.0,-16.0,1.0,-4.0,-3.0,-2.0,1651085823905287.0,3
1567,1.0,0.0,42.0,30.0,5.0,0.0,-3.0,-3.0,1651085823905287.0,3
1568,1.0,-2.0,-22.0,-14.0,-3.0,-1.0,2.0,1.0,1651085823914252.0,3
1569,-3.0,-1.0,-1.0,5.0,-4.0,-7.0,-11.0,-5.0,1651085823914252.0,3
1570,2.0,6.0,-4.0,2.0,1.0,-1.0,-2.0,0.0,1651085823928820.0,3
1571,-3.0,-2.0,-15.0,-31.0,-10.0,-14.0,-7.0,-5.0,1651085823928820.0,3
1572,3.0,-1.0,14.0,22.0,14.0,8.0,4.0,6.0,1651085823929107.0,3
1573,-6.0,-7.0,-28.0,-22.0,-8.0,-9.0,-21.0,-11.0,1651085823929107.0,3
1574,2.0,2.0,8.0,8.0,-2.0,8.0,16.0,5.0,1651085823951208.0,3
1575,1.0,1.0,1.0,-14.0,-23.0,-22.0,-13.0,-1.0,1651085823951208.0,3
1576,0.0,1.0,-5.0,-10.0,10.0,6.0,0.0,2.0,1651085823952205.0,3
1577,-1.0,1.0,30.0,25.0,5.0,-4.0,3.0,1.0,1651085823952205.0,3
1578,-7.0,-7.0,12.0,9.0,-3.0,6.0,-14.0,-12.0,1651085823965314.0,3
1579,4.0,2.0,15.0,9.0,3.0,11.0,15.0,9.0,1651085823965314.0,3
1580,-1.0,-2.0,-17.0,-10.0,-6.0,3.0,0.0,-2.0,1651085823973188.0,3
1581,0.0,0.0,-10.0,-9.0,-1.0,-4.0,-1.0,2.0,1651085823973188.0,3
1582,-2.0,-1.0,-2.0,-9.0,-1.0,-5.0,1.0,-2.0,1651085823989202.0,3
1583,-1.0,1.0,13.0,10.0,-2.0,-5.0,-5.0,-2.0,1651085823989202.0,3
1584,1.0,-1.0,-13.0,0.0,9.0,2.0,2.0,1.0,1651085823989202.0,3
1585,0.0,2.0,14.0,12.0,0.0,1.0,0.0,-2.0,1651085823989202.0,3
1586,0.0,-3.0,-11.0,-8.0,0.0,-4.0,-1.0,2.0,1651085824012445.0,3
1587,-5.0,-3.0,-14.0,-16.0,3.0,5.0,1.0,-3.0,1651085824012445.0,3
1588,2.0,2.0,49.0,45.0,2.0,-3.0,3.0,3.0,1651085824012445.0,3
1589,2.0,0.0,-9.0,-6.0,1.0,2.0,-2.0,-1.0,1651085824012445.0,3
1590,0.0,3.0,-9.0,-1.0,-4.0,-4.0,3.0,2.0,1651085824034228.0,3
1591,1.0,-1.0,14.0,7.0,11.0,3.0,-1.0,1.0,1651085824034228.0,3
1592,-6.0,-3.0,-46.0,-19.0,-2.0,-1.0,-1.0,-4.0,1651085824034228.0,3
1593,1.0,-1.0,13.0,-3.0,-3.0,3.0,8.0,4.0,1651085824034228.0,3
1594,-1.0,0.0,-9.0,-9.0,-13.0,-14.0,-13.0,-8.0,1651085824049210.0,3
1595,-2.0,-3.0,-1.0,6.0,24.0,12.0,3.0,-2.0,1651085824049210.0,3
1596,3.0,2.0,16.0,16.0,1.0,5.0,4.0,5.0,1651085824049210.0,3
1597,-1.0,-2.0,-12.0,-17.0,0.0,-1.0,-6.0,-4.0,1651085824049210.0,3
1598,2.0,3.0,27.0,21.0,0.0,-3.0,2.0,2.0,1651085824072082.0,3
1599,-3.0,-4.0,-18.0,-5.0,-12.0,-10.0,-2.0,-3.0,1651085824072082.0,3
1600,3.0,0.0,-12.0,-19.0,3.0,-1.0,-3.0,1.0,1651085824072082.0,3
1601,-3.0,2.0,17.0,3.0,-2.0,-1.0,0.0,-1.0,1651085824072082.0,3
1602,4.0,0.0,0.0,12.0,9.0,4.0,5.0,6.0,1651085824094336.0,3
1603,-3.0,-2.0,12.0,10.0,-1.0,9.0,2.0,-4.0,1651085824094336.0,3
1604,-2.0,1.0,13.0,-5.0,-8.0,-2.0,-1.0,0.0,1651085824094336.0,3
1605,4.0,4.0,-8.0,6.0,11.0,5.0,8.0,5.0,1651085824094336.0,3
1606,-3.0,-3.0,-20.0,-16.0,-2.0,-2.0,-3.0,-1.0,1651085824108456.0,3
1607,-1.0,0.0,5.0,-4.0,-10.0,-6.0,-9.0,-4.0,1651085824108456.0,3
1608,-1.0,-2.0,-13.0,14.0,6.0,-1.0,-1.0,-2.0,1651085824109107.0,3
1609,-2.0,-1.0,4.0,3.0,-2.0,0.0,-1.0,-2.0,1651085824109107.0,3
1610,0.0,-1.0,-1.0,3.0,1.0,-3.0,-7.0,-3.0,1651085824131290.0,3
1611,2.0,4.0,-23.0,-13.0,1.0,-1.0,4.0,2.0,1651085824131290.0,3
1612,0.0,-2.0,6.0,-13.0,-15.0,-12.0,-6.0,-3.0,1651085824132178.0,3
1613,1.0,2.0,11.0,18.0,5.0,2.0,-2.0,0.0,1651085824132178.0,3
1614,-1.0,0.0,-10.0,-8.0,1.0,-4.0,-5.0,-5.0,1651085824154291.0,3
1615,-2.0,-3.0,-14.0,2.0,0.0,9.0,12.0,2.0,1651085824154291.0,3
1616,-2.0,-4.0,-20.0,-23.0,-11.0,-7.0,-8.0,-3.0,1651085824154291.0,3
1617,-1.0,1.0,17.0,12.0,-5.0,-2.0,-1.0,-3.0,1651085824154291.0,3
1618,-1.0,-1.0,11.0,5.0,16.0,5.0,-3.0,-2.0,1651085824168141.0,3
1619,2.0,3.0,11.0,10.0,4.0,11.0,19.0,6.0,1651085824168141.0,3
1620,-1.0,-5.0,-21.0,-19.0,-5.0,-8.0,-8.0,-5.0,1651085824169165.0,3
1621,0.0,-1.0,0.0,-3.0,-7.0,8.0,0.0,-3.0,1651085824169165.0,3
1622,0.0,1.0,6.0,5.0,-4.0,3.0,5.0,1.0,1651085824191215.0,3
1623,-3.0,-5.0,0.0,-11.0,-4.0,-10.0,-12.0,-5.0,1651085824191215.0,3
1624,0.0,3.0,11.0,14.0,4.0,3.0,8.0,5.0,1651085824192214.0,3
1625,-2.0,-3.0,-34.0,-26.0,-8.0,-7.0,-4.0,-2.0,1651085824192214.0,3
1626,6.0,1.0,8.0,-8.0,-6.0,-7.0,-4.0,0.0,1651085824214290.0,3
1627,-1.0,2.0,1.0,25.0,5.0,-1.0,-5.0,-2.0,1651085824214290.0,3
1628,0.0,3.0,13.0,2.0,-1.0,8.0,8.0,2.0,1651085824214290.0,3
1629,0.0,0.0,-8.0,7.0,9.0,2.0,-1.0,1.0,1651085824214290.0,3
1630,-1.0,2.0,2.0,3.0,2.0,-2.0,2.0,2.0,1651085824228219.0,3
1631,1.0,-1.0,4.0,-9.0,-7.0,-6.0,-6.0,-2.0,1651085824228219.0,3
1632,-3.0,-1.0,2.0,18.0,4.0,1.0,1.0,-3.0,1651085824229070.0,3
1633,-3.0,-7.0,-40.0,-48.0,-9.0,-2.0,-6.0,-5.0,1651085824229070.0,3
1634,0.0,0.0,38.0,17.0,1.0,3.0,1.0,0.0,1651085824252242.0,3
1635,0.0,0.0,-19.0,-18.0,-12.0,-7.0,-4.0,-3.0,1651085824252242.0,3
1636,-2.0,-1.0,17.0,9.0,2.0,2.0,2.0,-1.0,1651085824252242.0,3
1637,5.0,0.0,-10.0,13.0,17.0,-5.0,-8.0,3.0,1651085824252242.0,3
1638,-4.0,-4.0,-11.0,2.0,-2.0,-7.0,-6.0,-5.0,1651085824274348.0,3
1639,-1.0,0.0,8.0,-7.0,4.0,-1.0,-4.0,-1.0,1651085824274348.0,3
1640,4.0,4.0,3.0,1.0,-5.0,2.0,5.0,1.0,1651085824274348.0,3
1641,0.0,3.0,6.0,2.0,-5.0,-3.0,3.0,1.0,1651085824274348.0,3
1642,-3.0,-7.0,-35.0,-23.0,-6.0,3.0,2.0,-3.0,1651085824289000.0,3
1643,-2.0,2.0,41.0,22.0,0.0,-8.0,-14.0,-4.0,1651085824289000.0,3
1644,1.0,-1.0,-25.0,-2.0,3.0,3.0,0.0,2.0,1651085824289096.0,3
1645,3.0,2.0,17.0,-1.0,-6.0,-7.0,-4.0,-1.0,1651085824289096.0,3
1646,-3.0,-5.0,-10.0,-2.0,3.0,1.0,-3.0,-1.0,1651085824311239.0,3
1647,2.0,2.0,-19.0,-4.0,5.0,7.0,7.0,3.0,1651085824311239.0,3
1648,2.0,-1.0,11.0,12.0,4.0,4.0,1.0,3.0,1651085824312196.0,3
1649,-1.0,1.0,-1.0,-2.0,-3.0,-3.0,-1.0,0.0,1651085824312196.0,3
1650,2.0,4.0,38.0,12.0,-5.0,-2.0,1.0,1.0,1651085824334232.0,3
1651,0.0,-3.0,-38.0,-13.0,-5.0,-2.0,4.0,2.0,1651085824334232.0,3
1652,-2.0,-1.0,1.0,-3.0,-1.0,-5.0,-7.0,-3.0,1651085824335227.0,3
1653,-1.0,-1.0,13.0,5.0,-4.0,5.0,7.0,1.0,1651085824335227.0,3
1654,-2.0,-3.0,-32.0,-21.0,-7.0,-5.0,-5.0,-3.0,1651085824349231.0,3
1655,-2.0,-1.0,25.0,15.0,6.0,1.0,0.0,-2.0,1651085824349231.0,3
1656,0.0,-1.0,3.0,-2.0,2.0,-2.0,1.0,-1.0,1651085824349231.0,3
1657,-3.0,0.0,14.0,4.0,-3.0,-1.0,-2.0,-2.0,1651085824349231.0,3
1658,-1.0,-2.0,-33.0,-22.0,-5.0,0.0,1.0,0.0,1651085824371841.0,3
1659,1.0,1.0,19.0,13.0,-3.0,-8.0,-6.0,-1.0,1651085824371841.0,3
1660,-1.0,-4.0,-23.0,-7.0,3.0,4.0,5.0,0.0,1651085824371841.0,3
1661,1.0,-4.0,-3.0,-6.0,-1.0,1.0,5.0,2.0,1651085824371841.0,3
1662,4.0,2.0,12.0,-2.0,1.0,0.0,2.0,3.0,1651085824402324.0,3
1663,-2.0,2.0,-14.0,-6.0,-1.0,-9.0,-13.0,-7.0,1651085824402324.0,3
1664,-5.0,-1.0,23.0,4.0,4.0,3.0,2.0,0.0,1651085824402324.0,3
1665,1.0,-1.0,-34.0,-8.0,-6.0,-4.0,-4.0,0.0,1651085824402324.0,3
1666,-6.0,1.0,27.0,13.0,-1.0,2.0,0.0,-2.0,1651085824408200.0,3
1667,-1.0,-2.0,9.0,7.0,3.0,0.0,3.0,-2.0,1651085824408200.0,3
1668,-1.0,-1.0,-1.0,-19.0,-8.0,-4.0,-3.0,-2.0,1651085824409210.0,3
1669,1.0,0.0,-4.0,-3.0,3.0,-1.0,-1.0,0.0,1651085824409210.0,3
1670,0.0,-1.0,1.0,7.0,1.0,2.0,1.0,0.0,1651085824431578.0,3
1671,-3.0,-3.0,-21.0,-1.0,-2.0,-1.0,-1.0,-3.0,1651085824431578.0,3
1672,1.0,0.0,-2.0,-5.0,0.0,-3.0,-1.0,2.0,1651085824432465.0,3
1673,-4.0,-3.0,-16.0,-4.0,0.0,2.0,1.0,-3.0,1651085824432465.0,3
1674,3.0,-1.0,-5.0,3.0,2.0,-1.0,2.0,0.0,1651085824454352.0,3
1675,-1.0,2.0,17.0,-3.0,-2.0,4.0,1.0,1.0,1651085824454352.0,3
1676,3.0,0.0,-4.0,6.0,0.0,0.0,-1.0,-1.0,1651085824454352.0,3
1677,-5.0,-1.0,6.0,10.0,1.0,-1.0,0.0,-2.0,1651085824454352.0,3
1678,-1.0,0.0,-8.0,-8.0,0.0,-1.0,-1.0,1.0,1651085824468172.0,3
1679,3.0,0.0,8.0,3.0,2.0,4.0,4.0,5.0,1651085824468172.0,3
1680,-1.0,-1.0,5.0,-8.0,-7.0,-6.0,-9.0,-5.0,1651085824469169.0,3
1681,1.0,-2.0,-11.0,8.0,2.0,3.0,3.0,2.0,1651085824469169.0,3
1682,-4.0,-1.0,-1.0,20.0,2.0,-4.0,-5.0,-4.0,1651085824492362.0,3
1683,-1.0,-4.0,-19.0,-24.0,-8.0,-1.0,0.0,1.0,1651085824492362.0,3
1684,-1.0,0.0,13.0,11.0,5.0,5.0,5.0,1.0,1651085824493096.0,3
1685,0.0,3.0,30.0,9.0,-1.0,2.0,2.0,0.0,1651085824493096.0,3
1686,2.0,-2.0,-19.0,-11.0,3.0,1.0,5.0,4.0,1651085824514358.0,3
1687,-2.0,0.0,1.0,-3.0,1.0,3.0,0.0,-1.0,1651085824514358.0,3
1688,3.0,-1.0,-8.0,-1.0,-1.0,0.0,1.0,2.0,1651085824515211.0,3
1689,-3.0,-4.0,4.0,-6.0,-3.0,-3.0,-5.0,-4.0,1651085824515211.0,3
1690,2.0,2.0,14.0,17.0,-2.0,2.0,4.0,0.0,1651085824528239.0,3
1691,-3.0,-5.0,-29.0,-33.0,-7.0,-3.0,-7.0,-4.0,1651085824528239.0,3
1692,-1.0,3.0,6.0,14.0,2.0,2.0,3.0,1.0,1651085824536250.0,3
1693,-2.0,-3.0,4.0,5.0,1.0,0.0,-2.0,-2.0,1651085824536250.0,3
1694,-5.0,-4.0,-9.0,-11.0,-3.0,-6.0,-6.0,-4.0,1651085824551219.0,3
1695,1.0,4.0,24.0,18.0,6.0,1.0,2.0,2.0,1651085824551219.0,3
1696,-4.0,-1.0,-25.0,-14.0,-6.0,-5.0,-7.0,-5.0,1651085824557892.0,3
1697,0.0,-2.0,-9.0,-7.0,0.0,5.0,7.0,3.0,1651085824557892.0,3
1698,-2.0,-2.0,-3.0,-8.0,-1.0,0.0,-4.0,-2.0,1651085824574358.0,3
1699,5.0,4.0,16.0,20.0,1.0,-1.0,2.0,4.0,1651085824574358.0,3
1700,0.0,0.0,11.0,3.0,-3.0,-2.0,2.0,1.0,1651085824575220.0,3
1701,0.0,1.0,3.0,3.0,6.0,-2.0,0.0,0.0,1651085824575220.0,3
1702,-2.0,2.0,6.0,-4.0,1.0,4.0,4.0,-1.0,1651085824588246.0,3
1703,0.0,0.0,-24.0,-7.0,2.0,-1.0,1.0,-2.0,1651085824588246.0,3
1704,0.0,-2.0,12.0,11.0,-3.0,-2.0,-2.0,2.0,1651085824596234.0,3
1705,-5.0,-1.0,4.0,-6.0,0.0,1.0,-1.0,-2.0,1651085824596234.0,3
1706,2.0,-1.0,-21.0,-5.0,-4.0,-6.0,-6.0,-1.0,1651085824612435.0,3
1707,0.0,-1.0,2.0,2.0,-8.0,-1.0,3.0,1.0,1651085824612435.0,3
1708,0.0,-1.0,-6.0,-12.0,-3.0,1.0,1.0,0.0,1651085824613062.0,3
1709,0.0,1.0,13.0,15.0,9.0,2.0,-2.0,-2.0,1651085824613062.0,3
1710,1.0,-1.0,-5.0,-1.0,1.0,3.0,7.0,4.0,1651085824633178.0,3
1711,-3.0,-2.0,-8.0,3.0,-1.0,-4.0,-6.0,-3.0,1651085824633178.0,3
1712,1.0,0.0,3.0,-10.0,-5.0,1.0,3.0,3.0,1651085824641160.0,3
1713,0.0,1.0,-4.0,-6.0,-4.0,-2.0,-3.0,3.0,1651085824641160.0,3
1714,1.0,5.0,4.0,21.0,4.0,2.0,4.0,1.0,1651085824648138.0,3
1715,-1.0,-3.0,7.0,-7.0,-3.0,-4.0,-6.0,-4.0,1651085824648138.0,3
1716,2.0,-1.0,-16.0,-4.0,-4.0,0.0,2.0,1.0,1651085824656210.0,3
1717,0.0,2.0,10.0,4.0,0.0,1.0,0.0,-2.0,1651085824656210.0,3
1718,-1.0,-3.0,-1.0,-5.0,8.0,3.0,2.0,0.0,1651085824672476.0,3
1719,2.0,2.0,-6.0,-5.0,-1.0,0.0,1.0,2.0,1651085824672476.0,3
1720,-3.0,-4.0,7.0,8.0,-1.0,1.0,0.0,-5.0,1651085824673422.0,3
1721,5.0,4.0,10.0,-1.0,-5.0,-3.0,-2.0,2.0,1651085824673422.0,3
1722,-1.0,-1.0,-33.0,-14.0,-3.0,-5.0,-3.0,0.0,1651085824694352.0,3
1723,-8.0,-2.0,25.0,4.0,-6.0,-4.0,-3.0,-5.0,1651085824694352.0,3
1724,1.0,5.0,16.0,-4.0,4.0,1.0,4.0,3.0,1651085824695208.0,3
1725,-1.0,-3.0,-40.0,8.0,1.0,-1.0,-1.0,-2.0,1651085824695208.0,3
1726,0.0,5.0,41.0,9.0,4.0,2.0,1.0,-2.0,1651085824707984.0,3
1727,5.0,0.0,-2.0,3.0,4.0,5.0,7.0,5.0,1651085824707984.0,3
1728,-3.0,-4.0,-3.0,-3.0,-2.0,-3.0,-5.0,-3.0,1651085824716338.0,3
1729,1.0,0.0,12.0,-2.0,-3.0,-1.0,1.0,0.0,1651085824716338.0,3
1730,2.0,-4.0,-19.0,-13.0,-9.0,-2.0,-2.0,1.0,1651085824731366.0,3
1731,-1.0,0.0,9.0,9.0,4.0,3.0,2.0,1.0,1651085824731366.0,3
1732,-4.0,-6.0,-31.0,-14.0,-6.0,-5.0,-7.0,-5.0,1651085824733247.0,3
1733,1.0,1.0,-5.0,-12.0,-1.0,0.0,2.0,1.0,1651085824733247.0,3
1734,-3.0,0.0,24.0,19.0,2.0,-3.0,-4.0,-2.0,1651085824754337.0,3
1735,1.0,1.0,16.0,9.0,3.0,4.0,6.0,3.0,1651085824754337.0,3
1736,-2.0,1.0,-19.0,-12.0,-3.0,-5.0,-7.0,-2.0,1651085824755203.0,3
1737,-2.0,-2.0,6.0,5.0,5.0,2.0,0.0,0.0,1651085824755203.0,3
1738,0.0,-3.0,-10.0,-17.0,-7.0,-5.0,-7.0,-2.0,1651085824767319.0,3
1739,-1.0,0.0,12.0,13.0,-1.0,-2.0,2.0,-1.0,1651085824767319.0,3
1740,3.0,1.0,15.0,13.0,-1.0,-1.0,2.0,1.0,1651085824776286.0,3
1741,-3.0,-4.0,-25.0,-13.0,-4.0,-1.0,-1.0,-2.0,1651085824776286.0,3
1742,-4.0,-2.0,31.0,-8.0,-1.0,-1.0,-2.0,-3.0,1651085824791454.0,3
1743,1.0,-1.0,-34.0,-1.0,2.0,3.0,1.0,0.0,1651085824791454.0,3
1744,3.0,0.0,-5.0,1.0,3.0,3.0,2.0,1.0,1651085824792487.0,3
1745,-8.0,-1.0,24.0,15.0,-3.0,-4.0,-2.0,-4.0,1651085824792487.0,3
1746,1.0,-1.0,-7.0,2.0,-3.0,1.0,3.0,1.0,1651085824814764.0,3
1747,0.0,1.0,1.0,-21.0,-9.0,-7.0,-6.0,-1.0,1651085824814764.0,3
1748,-2.0,-3.0,-14.0,5.0,13.0,4.0,3.0,0.0,1651085824815734.0,3
1749,0.0,-1.0,4.0,3.0,-4.0,-1.0,1.0,2.0,1651085824815734.0,3
1750,-2.0,0.0,-14.0,-2.0,-4.0,-4.0,-4.0,-2.0,1651085824828581.0,3
1751,1.0,2.0,-2.0,-6.0,4.0,2.0,3.0,2.0,1651085824828581.0,3
1752,-1.0,3.0,26.0,10.0,0.0,0.0,0.0,1.0,1651085824836905.0,3
1753,3.0,-1.0,-4.0,2.0,-3.0,-2.0,-1.0,0.0,1651085824836905.0,3
1754,-2.0,-1.0,-8.0,1.0,2.0,1.0,-2.0,-3.0,1651085824867329.0,3
1755,1.0,-2.0,-8.0,-3.0,-2.0,-2.0,-2.0,-1.0,1651085824867329.0,3
1756,-1.0,1.0,-1.0,-15.0,-1.0,-1.0,-2.0,-2.0,1651085824868186.0,3
1757,2.0,1.0,9.0,-1.0,-1.0,0.0,2.0,1.0,1651085824868186.0,3
1758,1.0,-3.0,-33.0,-7.0,-2.0,0.0,3.0,1.0,1651085824874170.0,3
1759,-1.0,2.0,20.0,10.0,-1.0,-1.0,-3.0,-2.0,1651085824874170.0,3
1760,-2.0,-7.0,-16.0,-3.0,-5.0,0.0,1.0,0.0,1651085824875168.0,3
1761,-3.0,0.0,-5.0,-7.0,-1.0,2.0,0.0,-1.0,1651085824875168.0,3
1762,1.0,1.0,7.0,14.0,5.0,6.0,8.0,4.0,1651085824888252.0,3
1763,-1.0,0.0,-16.0,-12.0,0.0,0.0,-1.0,1.0,1651085824888252.0,3
1764,-4.0,0.0,-3.0,2.0,-3.0,-4.0,-2.0,-3.0,1651085824896362.0,3
1765,2.0,-1.0,-6.0,3.0,-2.0,-2.0,-2.0,1.0,1651085824896362.0,3
1766,-3.0,-2.0,22.0,-9.0,-4.0,-3.0,-2.0,0.0,1651085824918406.0,3
1767,-2.0,-2.0,-24.0,6.0,2.0,-1.0,-3.0,-3.0,1651085824918406.0,3
1768,-2.0,-3.0,9.0,-5.0,-2.0,-3.0,-5.0,-2.0,1651085824920400.0,3
1769,3.0,1.0,-14.0,-8.0,1.0,5.0,6.0,4.0,1651085824920400.0,3
1770,-3.0,2.0,10.0,14.0,1.0,-4.0,-3.0,-2.0,1651085824934240.0,3
1771,-1.0,0.0,11.0,8.0,-3.0,-1.0,-1.0,0.0,1651085824934240.0,3
1772,3.0,2.0,2.0,-13.0,-2.0,-1.0,-4.0,-3.0,1651085824935236.0,3
1773,-1.0,-2.0,-8.0,3.0,1.0,2.0,1.0,-2.0,1651085824935236.0,3
1774,0.0,-2.0,-3.0,1.0,1.0,3.0,5.0,2.0,1651085824948176.0,3
1775,-1.0,-4.0,1.0,-8.0,-3.0,-5.0,-6.0,-5.0,1651085824948176.0,3
1776,-1.0,-2.0,-13.0,4.0,-5.0,-1.0,1.0,1.0,1651085824956218.0,3
1777,0.0,5.0,15.0,13.0,16.0,7.0,5.0,1.0,1651085824956218.0,3
1778,0.0,0.0,-4.0,-8.0,-1.0,-3.0,-5.0,0.0,1651085824972517.0,3
1779,-3.0,-3.0,-3.0,3.0,-1.0,-1.0,-1.0,-1.0,1651085824972517.0,3
1780,2.0,0.0,-8.0,-17.0,-3.0,2.0,5.0,5.0,1651085824973094.0,3
1781,1.0,1.0,7.0,0.0,-7.0,-5.0,-5.0,-4.0,1651085824973094.0,3
1782,-1.0,-1.0,-14.0,-8.0,6.0,7.0,3.0,-1.0,1651085824994371.0,3
1783,0.0,0.0,17.0,23.0,1.0,-1.0,-3.0,-3.0,1651085824994371.0,3
1784,0.0,5.0,9.0,15.0,20.0,4.0,3.0,1.0,1651085824995228.0,3
1785,-1.0,-11.0,-36.0,-24.0,-11.0,-4.0,-2.0,1.0,1651085824995228.0,3
1786,1.0,0.0,9.0,1.0,-5.0,-3.0,-4.0,-2.0,1651085825017386.0,3
1787,-1.0,-1.0,5.0,2.0,2.0,4.0,4.0,2.0,1651085825017386.0,3
1788,2.0,4.0,15.0,14.0,-1.0,0.0,2.0,0.0,1651085825018223.0,3
1789,-5.0,-1.0,1.0,-3.0,-5.0,-4.0,-6.0,-3.0,1651085825018223.0,3
1790,2.0,-11.0,-16.0,-10.0,-2.0,3.0,2.0,2.0,1651085825031883.0,3
1791,0.0,17.0,17.0,5.0,3.0,-2.0,-2.0,-2.0,1651085825031883.0,3
1792,-3.0,-8.0,9.0,3.0,-6.0,-3.0,-2.0,-1.0,1651085825032885.0,3
1793,-1.0,-1.0,-4.0,2.0,-7.0,-4.0,-2.0,-3.0,1651085825032885.0,3
1794,-1.0,-2.0,-2.0,-5.0,-6.0,-1.0,-2.0,0.0,1651085825062509.0,3
1795,1.0,1.0,-1.0,9.0,24.0,10.0,5.0,2.0,1651085825062509.0,3
1796,-2.0,-5.0,-1.0,-9.0,-6.0,-4.0,-3.0,-4.0,1651085825063094.0,3
1797,-1.0,-6.0,16.0,7.0,5.0,0.0,1.0,1.0,1651085825063094.0,3
1798,0.0,8.0,5.0,11.0,4.0,0.0,0.0,0.0,1651085825076390.0,3
1799,-2.0,-2.0,-12.0,-10.0,-5.0,-2.0,-1.0,0.0,1651085825076390.0,3
1800,-1.0,3.0,-13.0,-4.0,-3.0,-1.0,1.0,-1.0,1651085825078252.0,3
1801,2.0,3.0,16.0,-2.0,-3.0,0.0,-2.0,1.0,1651085825078252.0,3
1802,-2.0,-8.0,-23.0,-2.0,-3.0,-4.0,-5.0,-2.0,1651085825091241.0,3
1803,-2.0,-5.0,-4.0,-6.0,-8.0,-2.0,-2.0,0.0,1651085825091241.0,3
1804,-3.0,6.0,-3.0,-2.0,0.0,1.0,-2.0,-2.0,1651085825093268.0,3
1805,0.0,0.0,-3.0,-8.0,-9.0,-2.0,-2.0,-2.0,1651085825093268.0,3
1806,1.0,3.0,16.0,10.0,5.0,2.0,1.0,1.0,1651085825114217.0,3
1807,1.0,-7.0,-14.0,-6.0,-5.0,-2.0,0.0,1.0,1651085825114217.0,3
1808,-1.0,-2.0,2.0,-5.0,-4.0,-1.0,-1.0,-2.0,1651085825116086.0,3
1809,0.0,-2.0,-1.0,6.0,5.0,0.0,0.0,-1.0,1651085825116086.0,3
1810,0.0,2.0,5.0,0.0,2.0,-1.0,0.0,-1.0,1651085825136267.0,3
1811,-1.0,-7.0,-9.0,-8.0,-4.0,-2.0,-2.0,-2.0,1651085825136267.0,3
1812,0.0,-2.0,1.0,1.0,0.0,-1.0,0.0,-1.0,1651085825138298.0,3
1813,0.0,5.0,-5.0,-2.0,3.0,1.0,-2.0,0.0,1651085825138298.0,3
1814,0.0,1.0,2.0,0.0,0.0,-1.0,1.0,0.0,1651085825150403.0,3
1815,0.0,-1.0,-1.0,-5.0,-7.0,-3.0,0.0,0.0,1651085825150403.0,3
1816,1.0,0.0,0.0,1.0,1.0,2.0,-1.0,1.0,1651085825157956.0,3
1817,0.0,1.0,-1.0,0.0,3.0,1.0,-1.0,-2.0,1651085825157956.0,3
1818,-2.0,-1.0,2.0,0.0,-3.0,-1.0,-1.0,-2.0,1651085825174386.0,3
1819,-2.0,-3.0,1.0,0.0,-1.0,1.0,-1.0,-1.0,1651085825174386.0,3
1820,2.0,-2.0,-3.0,1.0,0.0,-2.0,0.0,-1.0,1651085825175228.0,3
1821,-3.0,-4.0,-7.0,0.0,3.0,1.0,-1.0,-3.0,1651085825175228.0,3
1822,2.0,2.0,5.0,-1.0,-3.0,0.0,-1.0,1.0,1651085825197392.0,3
1823,1.0,1.0,-1.0,0.0,-3.0,-1.0,-1.0,0.0,1651085825197392.0,3
1824,-1.0,-2.0,-2.0,-1.0,-1.0,-2.0,-1.0,0.0,1651085825198393.0,3
1825,0.0,-1.0,-3.0,-4.0,-3.0,-3.0,-1.0,-1.0,1651085825198393.0,3
1826,-1.0,-1.0,0.0,0.0,1.0,-1.0,2.0,-1.0,1651085825212940.0,3
1827,-2.0,2.0,-1.0,-1.0,0.0,-1.0,0.0,-1.0,1651085825212940.0,3
1828,-1.0,1.0,3.0,-4.0,-3.0,-1.0,-1.0,0.0,1651085825225369.0,3
1829,0.0,6.0,5.0,0.0,3.0,2.0,1.0,0.0,1651085825225369.0,3
1830,-3.0,-9.0,-2.0,1.0,0.0,-1.0,1.0,-1.0,1651085825233713.0,3
1831,0.0,0.0,0.0,-1.0,0.0,0.0,1.0,0.0,1651085825233713.0,3
1832,-1.0,-4.0,4.0,2.0,2.0,0.0,-1.0,-1.0,1651085825235572.0,3
1833,-1.0,-1.0,-9.0,1.0,-3.0,-2.0,-2.0,-1.0,1651085825235572.0,3
1834,0.0,9.0,10.0,-2.0,-3.0,-3.0,-3.0,-1.0,1651085825257180.0,3
1835,-2.0,1.0,-6.0,-2.0,0.0,2.0,0.0,0.0,1651085825257180.0,3
1836,0.0,1.0,2.0,0.0,0.0,-1.0,1.0,0.0,1651085825258019.0,3
1837,1.0,0.0,0.0,-1.0,-2.0,-3.0,-2.0,-1.0,1651085825258019.0,3
1838,1.0,-3.0,-4.0,-1.0,-2.0,-1.0,-2.0,0.0,1651085825271160.0,3
1839,-1.0,-7.0,-1.0,-2.0,-1.0,0.0,0.0,-2.0,1651085825271160.0,3
1840,-1.0,1.0,-1.0,-2.0,-1.0,0.0,0.0,-2.0,1651085825278233.0,3
1841,-2.0,-6.0,-5.0,1.0,-1.0,1.0,1.0,0.0,1651085825278233.0,3
1842,0.0,1.0,-2.0,-2.0,-1.0,0.0,-1.0,-2.0,1651085825294378.0,3
1843,1.0,-1.0,1.0,0.0,3.0,0.0,-1.0,1.0,1651085825294378.0,3
1844,1.0,-1.0,1.0,0.0,-1.0,0.0,0.0,1.0,1651085825295222.0,3
1845,0.0,-2.0,-13.0,-1.0,-2.0,0.0,0.0,-1.0,1651085825295222.0,3
1846,-1.0,-2.0,1.0,0.0,-2.0,-1.0,0.0,0.0,1651085825316376.0,3
1847,-2.0,0.0,-4.0,-1.0,-2.0,-1.0,0.0,-2.0,1651085825316376.0,3
1848,-2.0,3.0,4.0,0.0,-5.0,-3.0,-1.0,-1.0,1651085825318213.0,3
1849,1.0,-3.0,4.0,2.0,2.0,-1.0,1.0,1.0,1651085825318213.0,3
1850,0.0,1.0,-3.0,0.0,3.0,4.0,1.0,-2.0,1651085825331296.0,3
1851,1.0,-2.0,-4.0,-1.0,-3.0,-3.0,-3.0,0.0,1651085825331296.0,3
1852,-1.0,-2.0,-6.0,0.0,1.0,2.0,-1.0,1.0,1651085825338563.0,3
1853,1.0,1.0,6.0,0.0,-5.0,-4.0,-1.0,-1.0,1651085825338563.0,3
1854,1.0,-2.0,-2.0,-1.0,-1.0,-2.0,-1.0,-2.0,1651085825355374.0,3
1855,2.0,-2.0,0.0,-3.0,-1.0,0.0,-1.0,0.0,1651085825355374.0,3
1856,-1.0,-3.0,-3.0,2.0,0.0,0.0,1.0,-3.0,1651085825356216.0,3
1857,-1.0,1.0,3.0,0.0,1.0,-1.0,1.0,-1.0,1651085825356216.0,3
1858,-1.0,-2.0,-1.0,-1.0,1.0,1.0,0.0,-1.0,1651085825377378.0,3
1859,2.0,-1.0,0.0,-2.0,-3.0,-5.0,-1.0,1.0,1651085825377378.0,3
1860,-1.0,-1.0,0.0,3.0,2.0,0.0,-1.0,1.0,1651085825378216.0,3
1861,-1.0,-3.0,1.0,3.0,4.0,5.0,1.0,0.0,1651085825378216.0,3
1862,0.0,0.0,0.0,-1.0,-3.0,-4.0,-1.0,0.0,1651085825390767.0,3
1863,-2.0,1.0,1.0,-2.0,-2.0,0.0,-1.0,0.0,1651085825390767.0,3
1864,1.0,-1.0,-3.0,-1.0,2.0,2.0,0.0,-1.0,1651085825398149.0,3
1865,-1.0,1.0,0.0,-2.0,-3.0,-1.0,0.0,0.0,1651085825398149.0,3
1866,-1.0,1.0,-1.0,0.0,0.0,2.0,-1.0,0.0,1651085825414200.0,3
1867,0.0,-1.0,-2.0,0.0,0.0,1.0,-2.0,-1.0,1651085825414200.0,3
1868,0.0,1.0,-1.0,-2.0,-2.0,-1.0,-1.0,-1.0,1651085825415035.0,3
1869,0.0,0.0,0.0,0.0,-1.0,-1.0,-2.0,0.0,1651085825415035.0,3
1870,-2.0,-1.0,-1.0,-2.0,-1.0,-3.0,2.0,-2.0,1651085825437387.0,3
1871,-1.0,1.0,-2.0,0.0,1.0,-2.0,1.0,0.0,1651085825437387.0,3
1872,-1.0,-1.0,-1.0,1.0,-2.0,0.0,0.0,-2.0,1651085825438393.0,3
1873,-1.0,1.0,-2.0,-1.0,-1.0,-1.0,0.0,-1.0,1651085825438393.0,3
1874,-1.0,0.0,-2.0,-1.0,-3.0,-1.0,-1.0,0.0,1651085825450515.0,3
1875,0.0,0.0,1.0,-2.0,-1.0,-1.0,1.0,-1.0,1651085825450515.0,3
1876,-1.0,0.0,-3.0,0.0,1.0,0.0,0.0,-2.0,1651085825460231.0,3
1877,1.0,-1.0,-1.0,2.0,0.0,0.0,-2.0,0.0,1651085825460231.0,3
1878,0.0,-1.0,0.0,2.0,0.0,0.0,0.0,-2.0,1651085825481529.0,3
1879,-1.0,-2.0,0.0,0.0,-1.0,1.0,0.0,0.0,1651085825481529.0,3
1880,0.0,-2.0,-3.0,-3.0,-4.0,-1.0,-1.0,2.0,1651085825482560.0,3
1881,-1.0,-2.0,-1.0,-2.0,0.0,0.0,0.0,-1.0,1651085825482560.0,3
1882,-1.0,0.0,1.0,-1.0,-1.0,-2.0,-2.0,1.0,1651085825504321.0,3
1883,1.0,0.0,0.0,2.0,0.0,0.0,-1.0,-2.0,1651085825504321.0,3
1884,0.0,0.0,1.0,-2.0,-1.0,-1.0,2.0,-2.0,1651085825505198.0,3
1885,0.0,0.0,0.0,-2.0,2.0,3.0,0.0,-1.0,1651085825505198.0,3
1886,1.0,-2.0,0.0,0.0,-1.0,-3.0,1.0,0.0,1651085825510185.0,3
1887,0.0,0.0,0.0,-1.0,1.0,1.0,-1.0,-1.0,1651085825510185.0,3
1888,-1.0,-1.0,-1.0,0.0,0.0,0.0,-2.0,1.0,1651085825519160.0,3
1889,0.0,1.0,-2.0,-1.0,-3.0,-2.0,-2.0,-2.0,1651085825519160.0,3
1890,-1.0,-1.0,0.0,-2.0,-1.0,0.0,-1.0,2.0,1651085825534221.0,3
1891,-2.0,0.0,0.0,-1.0,-1.0,0.0,-1.0,0.0,1651085825534221.0,3
1892,0.0,-2.0,-1.0,-1.0,-2.0,-1.0,0.0,0.0,1651085825535219.0,3
1893,-2.0,-1.0,1.0,3.0,2.0,2.0,2.0,0.0,1651085825535219.0,3
1894,-1.0,-1.0,-1.0,1.0,1.0,2.0,0.0,-1.0,1651085825557466.0,3
1895,0.0,0.0,-4.0,0.0,-1.0,-1.0,0.0,-1.0,1651085825557466.0,3
1896,0.0,0.0,-1.0,-1.0,1.0,-2.0,0.0,1.0,1651085825557466.0,3
1897,0.0,-1.0,-1.0,-3.0,-4.0,-1.0,-1.0,0.0,1651085825557466.0,3
1898,-1.0,0.0,1.0,-2.0,-3.0,-3.0,-1.0,-1.0,1651085825570581.0,3
1899,1.0,-2.0,0.0,-1.0,0.0,1.0,0.0,0.0,1651085825570581.0,3
1900,-1.0,-1.0,-2.0,1.0,0.0,1.0,0.0,0.0,1651085825579125.0,3
1901,0.0,1.0,-1.0,-1.0,0.0,-1.0,-1.0,-1.0,1651085825579125.0,3
1902,-1.0,1.0,-2.0,-1.0,-1.0,-1.0,-2.0,-1.0,1651085825594359.0,3
1903,-1.0,0.0,0.0,0.0,0.0,-1.0,-1.0,-2.0,1651085825594359.0,3
1904,-2.0,0.0,-1.0,-1.0,-1.0,-1.0,-1.0,-1.0,1651085825595304.0,3
1905,0.0,-3.0,1.0,0.0,-1.0,-5.0,0.0,1.0,1651085825595304.0,3
1906,1.0,-2.0,-1.0,-1.0,0.0,1.0,1.0,0.0,1651085825616565.0,3
1907,1.0,-1.0,-1.0,-1.0,-2.0,-1.0,0.0,1.0,1651085825616565.0,3
1908,0.0,-1.0,-1.0,-1.0,0.0,-1.0,0.0,-2.0,1651085825617409.0,3
1909,0.0,0.0,0.0,-1.0,0.0,0.0,1.0,0.0,1651085825617409.0,3
1910,-2.0,1.0,-1.0,-1.0,-1.0,-1.0,-1.0,1.0,1651085825630390.0,3
1911,-1.0,-1.0,-1.0,1.0,0.0,0.0,0.0,-1.0,1651085825630390.0,3
1912,-1.0,0.0,-1.0,0.0,-1.0,-1.0,-1.0,-1.0,1651085825639202.0,0
1913,-1.0,0.0,0.0,-2.0,-2.0,1.0,-2.0,-1.0,1651085825639202.0,0
1914,1.0,-3.0,0.0,0.0,0.0,-1.0,-1.0,0.0,1651085825654278.0,0
1915,1.0,-2.0,-1.0,-1.0,1.0,0.0,1.0,0.0,1651085825654278.0,0
1916,-1.0,-1.0,-1.0,-1.0,-1.0,-1.0,-1.0,1.0,1651085825655121.0,0
1917,2.0,-2.0,-1.0,-3.0,-2.0,-2.0,-1.0,0.0,1651085825655121.0,0
1918,-1.0,-2.0,-2.0,-2.0,-2.0,-2.0,-1.0,-1.0,1651085825677338.0,0
1919,-1.0,1.0,-1.0,2.0,-1.0,-1.0,0.0,0.0,1651085825677338.0,0
1920,0.0,-1.0,1.0,0.0,2.0,2.0,0.0,1.0,1651085825678215.0,0
1921,-1.0,-1.0,0.0,1.0,3.0,3.0,0.0,-1.0,1651085825678215.0,0
1922,-1.0,1.0,-1.0,-1.0,-2.0,-2.0,0.0,-1.0,1651085825690358.0,0
1923,-2.0,-2.0,-1.0,-2.0,-2.0,-4.0,-1.0,0.0,1651085825690358.0,0
1924,0.0,-2.0,0.0,-1.0,-2.0,-3.0,-2.0,-1.0,1651085825699333.0,0
1925,-1.0,0.0,-1.0,-2.0,-3.0,-2.0,-1.0,-1.0,1651085825699333.0,0
1926,0.0,-1.0,0.0,1.0,1.0,2.0,1.0,2.0,1651085825714369.0,0
1927,-2.0,0.0,0.0,-1.0,-2.0,0.0,-1.0,0.0,1651085825714369.0,0
1928,0.0,0.0,-1.0,0.0,-2.0,0.0,2.0,0.0,1651085825715229.0,0
