,EMG_s0,EMG_s1,EMG_s2,EMG_s3,EMG_s4,EMG_s5,EMG_s6,EMG_s7,timestamp,signal
0,-2.0,-1.0,1.0,-9.0,-5.0,-4.0,1.0,-1.0,1651086270064115.0,0
1,-1.0,-2.0,0.0,-4.0,0.0,2.0,-1.0,-2.0,1651086270064115.0,0
2,-1.0,1.0,6.0,1.0,1.0,2.0,0.0,1.0,1651086270065038.0,0
3,-1.0,0.0,-2.0,-8.0,-6.0,-2.0,-2.0,-1.0,1651086270065038.0,0
4,1.0,-1.0,-5.0,-6.0,-6.0,-2.0,-3.0,-3.0,1651086270066037.0,0
5,-1.0,-3.0,1.0,2.0,-4.0,-3.0,-1.0,0.0,1651086270066037.0,0
6,-2.0,1.0,-2.0,4.0,2.0,0.0,1.0,0.0,1651086270067058.0,0
7,0.0,-6.0,-7.0,-2.0,0.0,2.0,-1.0,0.0,1651086270067058.0,0
8,1.0,1.0,9.0,8.0,1.0,-3.0,-3.0,-3.0,1651086270077029.0,0
9,-2.0,1.0,1.0,-2.0,-2.0,-1.0,0.0,-1.0,1651086270077029.0,0
10,0.0,-4.0,-4.0,-5.0,-9.0,-1.0,-2.0,-4.0,1651086270085981.0,0
11,0.0,-2.0,-4.0,0.0,5.0,1.0,0.0,0.0,1651086270085981.0,0
12,-3.0,-10.0,-7.0,-2.0,-4.0,0.0,0.0,1.0,1651086270094171.0,0
13,1.0,6.0,2.0,-2.0,-3.0,-3.0,-1.0,-2.0,1651086270094171.0,0
14,-2.0,-5.0,6.0,10.0,6.0,-3.0,-2.0,-1.0,1651086270101281.0,0
15,-1.0,4.0,3.0,0.0,1.0,1.0,1.0,-1.0,1651086270101281.0,0
16,0.0,-4.0,-15.0,-1.0,5.0,0.0,-1.0,0.0,1651086270119096.0,0
17,0.0,-10.0,4.0,2.0,3.0,1.0,1.0,0.0,1651086270119096.0,0
18,0.0,11.0,-13.0,-15.0,-9.0,-3.0,0.0,0.0,1651086270133370.0,0
19,-2.0,-1.0,8.0,2.0,-6.0,-3.0,-2.0,-5.0,1651086270133370.0,0
20,0.0,-2.0,-4.0,2.0,6.0,2.0,0.0,-1.0,1651086270137221.0,0
21,-2.0,-2.0,-2.0,0.0,2.0,2.0,1.0,1.0,1651086270137221.0,0
22,1.0,0.0,0.0,-5.0,-5.0,-1.0,-4.0,-3.0,1651086270152456.0,0
23,1.0,2.0,2.0,7.0,4.0,-3.0,-2.0,-1.0,1651086270152456.0,0
24,-2.0,-1.0,7.0,12.0,13.0,6.0,1.0,1.0,1651086270192562.0,0
25,0.0,3.0,2.0,-4.0,-3.0,0.0,-2.0,-1.0,1651086270192562.0,0
26,-2.0,-2.0,-5.0,-1.0,-5.0,-3.0,0.0,-1.0,1651086270193059.0,0
27,0.0,2.0,-7.0,-2.0,2.0,2.0,1.0,-2.0,1651086270193059.0,0
28,0.0,-5.0,-7.0,0.0,0.0,-4.0,-1.0,-1.0,1651086270194093.0,0
29,-1.0,3.0,4.0,-2.0,-3.0,2.0,-1.0,0.0,1651086270194093.0,0
30,-1.0,2.0,3.0,6.0,11.0,5.0,1.0,-1.0,1651086270195087.0,0
31,1.0,0.0,5.0,-3.0,-11.0,-5.0,0.0,-2.0,1651086270195087.0,0
32,0.0,9.0,2.0,-1.0,2.0,-2.0,-1.0,1.0,1651086270205167.0,0
33,0.0,-2.0,-1.0,3.0,1.0,-1.0,0.0,1.0,1651086270205167.0,0
34,1.0,0.0,0.0,-6.0,-4.0,-2.0,-3.0,-1.0,1651086270213203.0,0
35,0.0,-8.0,0.0,0.0,-5.0,-1.0,-1.0,0.0,1651086270213203.0,0
36,-1.0,-4.0,-1.0,-1.0,2.0,-1.0,-1.0,-1.0,1651086270220218.0,0
37,-1.0,2.0,2.0,1.0,0.0,-2.0,-1.0,0.0,1651086270220218.0,0
38,-2.0,-1.0,-1.0,8.0,10.0,2.0,1.0,-1.0,1651086270235386.0,0
39,0.0,3.0,-3.0,-8.0,-3.0,-1.0,-1.0,-2.0,1651086270235386.0,0
40,0.0,-1.0,-3.0,-1.0,-6.0,-2.0,0.0,0.0,1651086270242202.0,0
41,-2.0,-4.0,-1.0,3.0,2.0,1.0,0.0,-1.0,1651086270242202.0,0
42,0.0,-3.0,-3.0,-4.0,-5.0,-2.0,-2.0,-2.0,1651086270257596.0,0
43,1.0,0.0,-4.0,-3.0,5.0,1.0,0.0,0.0,1651086270257596.0,0
44,0.0,0.0,0.0,-10.0,-13.0,-3.0,-1.0,-2.0,1651086270266369.0,0
45,0.0,-7.0,1.0,6.0,4.0,0.0,1.0,1.0,1651086270266369.0,0
46,0.0,12.0,1.0,7.0,8.0,3.0,1.0,1.0,1651086270281490.0,0
47,-1.0,-1.0,4.0,4.0,0.0,-3.0,-1.0,0.0,1651086270281490.0,0
48,-1.0,1.0,9.0,-1.0,-6.0,-2.0,-1.0,-2.0,1651086270282490.0,0
49,1.0,-5.0,-3.0,-6.0,-4.0,0.0,0.0,0.0,1651086270282490.0,0
50,-1.0,-3.0,-7.0,-1.0,-5.0,-1.0,-1.0,-1.0,1651086270311447.0,0
51,-2.0,-2.0,5.0,7.0,7.0,2.0,-1.0,-1.0,1651086270311447.0,0
52,1.0,2.0,-3.0,4.0,1.0,0.0,0.0,-1.0,1651086270312449.0,0
53,-2.0,-2.0,5.0,-1.0,-2.0,-2.0,0.0,-1.0,1651086270312449.0,0
54,0.0,-2.0,0.0,-18.0,-3.0,-2.0,-2.0,-1.0,1651086270317469.0,0
55,-1.0,2.0,2.0,9.0,4.0,1.0,1.0,-1.0,1651086270317469.0,0
56,0.0,1.0,-3.0,1.0,1.0,0.0,-2.0,-1.0,1651086270326410.0,0
57,-2.0,-5.0,-2.0,-1.0,-8.0,-3.0,0.0,-1.0,1651086270326410.0,0
58,0.0,1.0,-1.0,-6.0,-8.0,1.0,0.0,0.0,1651086270341447.0,0
59,-1.0,-5.0,-5.0,9.0,16.0,4.0,1.0,2.0,1651086270341447.0,0
60,1.0,1.0,5.0,1.0,2.0,0.0,0.0,-1.0,1651086270342447.0,0
61,-2.0,-2.0,-15.0,-3.0,1.0,0.0,0.0,-1.0,1651086270342447.0,0
62,0.0,-1.0,-2.0,-3.0,-7.0,-5.0,-2.0,-1.0,1651086270364355.0,0
63,-3.0,-7.0,2.0,-4.0,-5.0,-3.0,-1.0,-1.0,1651086270364355.0,0
64,-1.0,0.0,-6.0,-3.0,-9.0,-1.0,-1.0,-1.0,1651086270365212.0,0
65,1.0,4.0,7.0,4.0,7.0,-1.0,-2.0,0.0,1651086270365212.0,0
66,0.0,-5.0,6.0,8.0,5.0,5.0,1.0,2.0,1651086270377180.0,0
67,-1.0,1.0,-4.0,-1.0,-1.0,-4.0,-2.0,0.0,1651086270377180.0,0
68,-2.0,-4.0,-9.0,-9.0,-5.0,-1.0,1.0,-2.0,1651086270386205.0,0
69,0.0,3.0,-1.0,-13.0,-11.0,-3.0,-2.0,-1.0,1651086270386205.0,0
70,1.0,-2.0,6.0,8.0,2.0,-3.0,-1.0,-2.0,1651086270401591.0,0
71,-1.0,0.0,0.0,-2.0,0.0,3.0,0.0,-1.0,1651086270401591.0,0
72,-1.0,-17.0,-4.0,-7.0,-4.0,-1.0,-2.0,1.0,1651086270402358.0,0
73,2.0,25.0,12.0,11.0,12.0,7.0,2.0,2.0,1651086270402358.0,0
74,-1.0,-4.0,-7.0,-4.0,-8.0,-5.0,-1.0,-1.0,1651086270424199.0,0
75,2.0,3.0,6.0,-2.0,3.0,0.0,-1.0,-1.0,1651086270424199.0,0
76,-1.0,3.0,-5.0,1.0,0.0,0.0,0.0,-1.0,1651086270425060.0,0
77,-3.0,-10.0,-14.0,-5.0,-3.0,-2.0,-1.0,-2.0,1651086270425060.0,0
78,-1.0,-4.0,5.0,-2.0,-3.0,-2.0,-1.0,-1.0,1651086270438161.0,0
79,0.0,0.0,-6.0,5.0,-5.0,-5.0,-2.0,0.0,1651086270438161.0,0
80,1.0,-2.0,2.0,9.0,14.0,8.0,2.0,1.0,1651086270446177.0,0
81,0.0,2.0,2.0,-2.0,1.0,-2.0,-2.0,-2.0,1651086270446177.0,0
82,0.0,2.0,-2.0,-4.0,-2.0,-2.0,0.0,-2.0,1651086270461397.0,0
83,-2.0,-3.0,0.0,-4.0,-9.0,-5.0,-2.0,-2.0,1651086270461397.0,0
84,-2.0,1.0,0.0,2.0,0.0,-2.0,-1.0,-1.0,1651086270462398.0,0
85,1.0,-4.0,0.0,0.0,0.0,2.0,-1.0,1.0,1651086270462398.0,0
86,-2.0,-3.0,-2.0,0.0,-4.0,-1.0,0.0,0.0,1651086270484347.0,0
87,-1.0,-2.0,-8.0,-13.0,-13.0,-4.0,-1.0,-1.0,1651086270484347.0,0
88,0.0,6.0,9.0,15.0,23.0,6.0,1.0,-1.0,1651086270485208.0,0
89,-1.0,-6.0,5.0,0.0,-1.0,-1.0,0.0,-1.0,1651086270485208.0,0
90,-1.0,-16.0,-22.0,-7.0,-10.0,-4.0,-2.0,-1.0,1651086270498159.0,0
91,0.0,24.0,1.0,-4.0,0.0,1.0,2.0,-1.0,1651086270498159.0,0
92,-2.0,-9.0,6.0,-18.0,-21.0,-7.0,-3.0,-2.0,1651086270506222.0,0
93,0.0,-4.0,15.0,18.0,19.0,4.0,2.0,1.0,1651086270506222.0,0
94,-1.0,-2.0,-16.0,-6.0,-1.0,-3.0,-1.0,-1.0,1651086270521612.0,0
95,1.0,-5.0,0.0,14.0,18.0,8.0,2.0,1.0,1651086270521612.0,0
96,-2.0,5.0,0.0,-11.0,-14.0,-6.0,-3.0,-1.0,1651086270522612.0,0
97,0.0,5.0,5.0,-3.0,-8.0,2.0,1.0,-1.0,1651086270522612.0,0
98,0.0,-2.0,3.0,-14.0,-28.0,-12.0,-3.0,-2.0,1651086270544307.0,0
99,-2.0,-6.0,-12.0,-6.0,1.0,4.0,-1.0,0.0,1651086270544307.0,0
100,-2.0,3.0,4.0,5.0,0.0,-2.0,-1.0,-1.0,1651086270545228.0,0
101,1.0,-9.0,-19.0,-8.0,2.0,0.0,-1.0,-1.0,1651086270545228.0,0
102,3.0,11.0,16.0,29.0,32.0,12.0,4.0,3.0,1651086270566517.0,0
103,2.0,-1.0,8.0,-22.0,-51.0,-21.0,-6.0,-4.0,1651086270566517.0,0
104,0.0,1.0,5.0,-1.0,-2.0,1.0,2.0,2.0,1651086270567517.0,0
105,-2.0,-11.0,-15.0,-13.0,-1.0,5.0,1.0,-1.0,1651086270567517.0,0
106,-1.0,11.0,12.0,35.0,41.0,10.0,4.0,0.0,1651086270580864.0,0
107,-1.0,-6.0,-2.0,-5.0,-10.0,-5.0,-3.0,-2.0,1651086270580864.0,0
108,1.0,-3.0,8.0,13.0,35.0,13.0,5.0,3.0,1651086270588156.0,0
109,-3.0,1.0,1.0,0.0,-29.0,-12.0,-4.0,-2.0,1651086270588156.0,0
110,0.0,2.0,17.0,12.0,44.0,18.0,3.0,2.0,1651086270603277.0,0
111,-2.0,-6.0,-3.0,-17.0,-30.0,-14.0,-4.0,-1.0,1651086270603277.0,0
112,-1.0,2.0,-19.0,2.0,-3.0,-4.0,-2.0,-3.0,1651086270605305.0,0
113,0.0,-4.0,-7.0,-27.0,3.0,0.0,1.0,1.0,1651086270605305.0,0
114,1.0,-1.0,4.0,6.0,-18.0,-2.0,-2.0,0.0,1651086270626206.0,0
115,-1.0,2.0,11.0,11.0,2.0,-3.0,-2.0,-1.0,1651086270626206.0,0
116,-2.0,-4.0,-14.0,-22.0,-21.0,-9.0,-4.0,-2.0,1651086270627203.0,0
117,0.0,-7.0,2.0,-2.0,-17.0,-8.0,-3.0,-2.0,1651086270627203.0,0
118,0.0,15.0,15.0,26.0,14.0,2.0,-2.0,0.0,1651086270641434.0,0
119,-2.0,-13.0,4.0,1.0,21.0,8.0,4.0,-1.0,1651086270641434.0,0
120,0.0,-2.0,-25.0,-16.0,-22.0,-8.0,-1.0,1.0,1651086270642447.0,0
121,2.0,8.0,16.0,45.0,72.0,25.0,7.0,3.0,1651086270642447.0,0
122,-1.0,-2.0,-3.0,-42.0,-38.0,-15.0,-4.0,-2.0,1651086270664314.0,0
123,-1.0,-2.0,7.0,25.0,19.0,3.0,1.0,-1.0,1651086270664314.0,0
124,0.0,-1.0,3.0,-9.0,13.0,10.0,2.0,1.0,1651086270665248.0,0
125,-1.0,-1.0,8.0,5.0,-21.0,-12.0,-5.0,-2.0,1651086270665248.0,0
126,-1.0,-3.0,-21.0,-21.0,-16.0,-4.0,-1.0,0.0,1651086270686604.0,0
127,0.0,-2.0,-4.0,7.0,18.0,5.0,2.0,2.0,1651086270686604.0,0
128,-3.0,-14.0,3.0,-26.0,-43.0,-21.0,-10.0,-7.0,1651086270687512.0,0
129,-3.0,9.0,-13.0,13.0,18.0,5.0,0.0,1.0,1651086270687512.0,0
130,2.0,-2.0,-1.0,-6.0,-12.0,2.0,2.0,1.0,1651086270700310.0,0
131,-2.0,4.0,-12.0,0.0,4.0,3.0,1.0,-1.0,1651086270700310.0,0
132,3.0,4.0,17.0,18.0,15.0,6.0,1.0,3.0,1651086270707676.0,0
133,-1.0,-12.0,13.0,-10.0,-2.0,-3.0,-1.0,2.0,1651086270707676.0,0
134,-1.0,9.0,19.0,11.0,-9.0,-7.0,-4.0,-3.0,1651086270724396.0,0
135,0.0,-3.0,11.0,26.0,28.0,10.0,3.0,2.0,1651086270724396.0,0
136,-2.0,-4.0,-23.0,-19.0,-18.0,-4.0,0.0,-1.0,1651086270725234.0,0
137,1.0,2.0,-5.0,5.0,-12.0,-3.0,-1.0,-1.0,1651086270725234.0,0
138,-2.0,3.0,4.0,5.0,0.0,-2.0,-1.0,-1.0,1651086270741301.0,0
139,1.0,-9.0,-19.0,-8.0,2.0,0.0,-1.0,-1.0,1651086270741301.0,0
140,3.0,11.0,16.0,29.0,32.0,12.0,4.0,3.0,1651086270742236.0,0
141,2.0,-1.0,8.0,-22.0,-51.0,-21.0,-6.0,-4.0,1651086270742236.0,0
142,0.0,1.0,5.0,-1.0,-2.0,1.0,2.0,2.0,1651086270749355.0,0
143,-2.0,-11.0,-15.0,-13.0,-1.0,5.0,1.0,-1.0,1651086270749355.0,0
144,-1.0,11.0,12.0,35.0,41.0,10.0,4.0,0.0,1651086270749355.0,0
145,-1.0,-6.0,-2.0,-5.0,-10.0,-5.0,-3.0,-2.0,1651086270749355.0,0
146,0.0,-5.0,-17.0,-13.0,5.0,-1.0,0.0,0.0,1651086270753210.0,0
147,2.0,10.0,9.0,-11.0,-14.0,-3.0,-2.0,1.0,1651086270753210.0,0
148,-3.0,2.0,14.0,6.0,-8.0,-3.0,1.0,-3.0,1651086270754207.0,0
149,2.0,8.0,28.0,40.0,31.0,9.0,2.0,2.0,1651086270754207.0,0
150,-2.0,-4.0,-10.0,-14.0,-6.0,-1.0,1.0,-1.0,1651086270768807.0,0
151,-1.0,-2.0,-26.0,-27.0,-22.0,-10.0,-4.0,-3.0,1651086270768807.0,0
152,1.0,-1.0,-6.0,3.0,23.0,9.0,3.0,0.0,1651086270769072.0,0
153,-1.0,0.0,8.0,-20.0,-31.0,-9.0,-3.0,-2.0,1651086270769072.0,0
154,-2.0,-7.0,-30.0,-5.0,12.0,4.0,2.0,1.0,1651086270783058.0,0
155,1.0,1.0,-2.0,-3.0,-4.0,2.0,3.0,1.0,1651086270783058.0,0
156,-1.0,1.0,2.0,18.0,9.0,2.0,-1.0,-1.0,1651086270784057.0,0
157,-2.0,-3.0,-20.0,-22.0,-6.0,-5.0,-1.0,-2.0,1651086270784057.0,0
158,0.0,0.0,23.0,8.0,4.0,1.0,2.0,0.0,1651086270805645.0,0
159,-3.0,-1.0,3.0,2.0,-9.0,0.0,1.0,0.0,1651086270805645.0,0
160,-2.0,2.0,-4.0,7.0,8.0,-3.0,-4.0,-3.0,1651086270806493.0,0
161,-1.0,2.0,13.0,4.0,-10.0,1.0,-1.0,0.0,1651086270806493.0,0
162,1.0,-1.0,-15.0,-12.0,-6.0,0.0,1.0,-1.0,1651086270827437.0,0
163,-2.0,0.0,-6.0,2.0,5.0,-1.0,-5.0,-3.0,1651086270827437.0,0
164,1.0,2.0,3.0,2.0,-3.0,1.0,0.0,3.0,1651086270828433.0,0
165,2.0,0.0,-13.0,0.0,-3.0,-4.0,-4.0,0.0,1651086270828433.0,0
166,0.0,-4.0,-33.0,-27.0,-1.0,-1.0,-1.0,-1.0,1651086270842397.0,0
167,3.0,2.0,49.0,31.0,8.0,7.0,4.0,3.0,1651086270842397.0,0
168,0.0,4.0,25.0,23.0,6.0,2.0,-1.0,-1.0,1651086270843394.0,0
169,-3.0,-4.0,-38.0,-21.0,-8.0,-4.0,1.0,-1.0,1651086270843394.0,0
170,-2.0,1.0,12.0,5.0,-5.0,-3.0,-6.0,-4.0,1651086270865360.0,0
171,0.0,1.0,16.0,0.0,5.0,1.0,0.0,-2.0,1651086270865360.0,0
172,0.0,0.0,-17.0,-3.0,4.0,1.0,0.0,3.0,1651086270866356.0,0
173,-1.0,-4.0,7.0,9.0,-5.0,-6.0,-5.0,-1.0,1651086270866356.0,0
174,-1.0,6.0,17.0,11.0,4.0,8.0,7.0,-2.0,1651086270888357.0,0
175,2.0,-1.0,-30.0,-33.0,-3.0,0.0,1.0,2.0,1651086270888357.0,0
176,0.0,0.0,23.0,22.0,4.0,1.0,4.0,12.0,1651086270888357.0,0
177,-4.0,-2.0,-21.0,-8.0,-5.0,0.0,-2.0,-21.0,1651086270888357.0,0
178,-3.0,-4.0,16.0,9.0,-2.0,-4.0,-5.0,-1.0,1651086270902361.0,0
179,-1.0,-1.0,-7.0,6.0,1.0,-3.0,-3.0,-1.0,1651086270902361.0,0
180,3.0,6.0,8.0,-1.0,0.0,0.0,1.0,0.0,1651086270903410.0,0
181,3.0,1.0,19.0,-27.0,-3.0,-5.0,-4.0,4.0,1651086270903410.0,0
182,-15.0,-3.0,-42.0,-6.0,-5.0,-7.0,-4.0,-7.0,1651086270927297.0,0
183,7.0,-1.0,21.0,15.0,9.0,3.0,2.0,2.0,1651086270927297.0,0
184,3.0,-5.0,-18.0,-9.0,-1.0,4.0,4.0,-2.0,1651086270927297.0,0
185,-6.0,1.0,8.0,-4.0,-2.0,-3.0,-1.0,3.0,1651086270927297.0,0
186,0.0,0.0,34.0,17.0,0.0,-5.0,-4.0,-4.0,1651086270947914.0,0
187,-1.0,2.0,-9.0,-7.0,-1.0,-8.0,-4.0,2.0,1651086270947914.0,0
188,2.0,3.0,7.0,-10.0,-3.0,13.0,4.0,0.0,1651086270948915.0,0
189,17.0,-3.0,-13.0,-11.0,-4.0,1.0,4.0,9.0,1651086270948915.0,0
190,-6.0,-3.0,-41.0,-2.0,4.0,0.0,-3.0,-7.0,1651086270963211.0,0
191,0.0,-2.0,-20.0,-22.0,-2.0,14.0,8.0,10.0,1651086270963211.0,0
192,-5.0,1.0,19.0,12.0,8.0,-2.0,1.0,-6.0,1651086270963211.0,0
193,6.0,7.0,-3.0,8.0,3.0,9.0,9.0,0.0,1651086270963211.0,0
194,8.0,-7.0,16.0,-27.0,-14.0,-4.0,-4.0,6.0,1651086270985763.0,0
195,-10.0,-3.0,-7.0,21.0,-3.0,-6.0,-1.0,0.0,1651086270985763.0,0
196,-4.0,-2.0,-39.0,-18.0,-9.0,-10.0,-12.0,-7.0,1651086270985763.0,0
197,-5.0,1.0,-6.0,-5.0,3.0,-2.0,-1.0,10.0,1651086270985763.0,0
198,2.0,-1.0,12.0,14.0,1.0,0.0,2.0,-3.0,1651086270999883.0,0
199,3.0,5.0,19.0,-9.0,-3.0,2.0,4.0,1.0,1651086270999883.0,0
200,-3.0,-5.0,-22.0,-8.0,1.0,-3.0,-5.0,-1.0,1651086271007855.0,0
201,-7.0,-1.0,-6.0,9.0,4.0,-2.0,0.0,-6.0,1651086271007855.0,0
202,4.0,3.0,-2.0,-11.0,-6.0,-2.0,0.0,10.0,1651086271023230.0,0
203,0.0,3.0,29.0,25.0,5.0,0.0,-1.0,-11.0,1651086271023230.0,0
204,-2.0,-3.0,-15.0,-7.0,-7.0,-4.0,-2.0,-3.0,1651086271023230.0,0
205,-4.0,-3.0,-6.0,-4.0,2.0,0.0,-4.0,-4.0,1651086271023230.0,0
206,9.0,6.0,17.0,2.0,4.0,-1.0,1.0,9.0,1651086271045490.0,0
207,1.0,1.0,-6.0,28.0,11.0,6.0,1.0,3.0,1651086271045490.0,0
208,1.0,3.0,23.0,-2.0,-5.0,-5.0,-2.0,7.0,1651086271046343.0,0
209,-8.0,-5.0,-8.0,-9.0,-4.0,4.0,4.0,-7.0,1651086271046343.0,0
210,2.0,3.0,14.0,11.0,-3.0,-5.0,-2.0,6.0,1651086271068350.0,0
211,-3.0,-3.0,-5.0,-24.0,-10.0,-10.0,-9.0,-10.0,1651086271068350.0,0
212,1.0,5.0,17.0,4.0,8.0,5.0,6.0,2.0,1651086271068350.0,0
213,-14.0,-9.0,-13.0,-4.0,-3.0,-2.0,0.0,12.0,1651086271068350.0,0
214,4.0,-2.0,-14.0,-12.0,-3.0,6.0,1.0,-16.0,1651086271083205.0,0
215,-2.0,-1.0,11.0,14.0,3.0,-1.0,-1.0,-3.0,1651086271083205.0,0
216,-7.0,-2.0,-1.0,-6.0,-6.0,-4.0,-1.0,-1.0,1651086271083205.0,0
217,12.0,7.0,14.0,1.0,-3.0,5.0,6.0,-2.0,1651086271083205.0,0
218,1.0,-2.0,-8.0,4.0,-2.0,-7.0,-6.0,3.0,1651086271105580.0,0
219,-10.0,1.0,-32.0,-19.0,-4.0,-3.0,-2.0,-6.0,1651086271105580.0,0
220,-2.0,-4.0,12.0,26.0,6.0,0.0,-1.0,-5.0,1651086271106475.0,0
221,7.0,3.0,14.0,-8.0,-3.0,-2.0,-3.0,1.0,1651086271106475.0,0
222,-3.0,2.0,-18.0,-11.0,-3.0,1.0,2.0,-2.0,1651086271128129.0,0
223,5.0,-9.0,4.0,6.0,-1.0,-3.0,0.0,6.0,1651086271128129.0,0
224,2.0,2.0,-6.0,2.0,5.0,1.0,0.0,-2.0,1651086271135352.0,0
225,8.0,2.0,8.0,5.0,2.0,-1.0,0.0,7.0,1651086271135352.0,0
226,-11.0,-1.0,14.0,19.0,3.0,2.0,-1.0,-16.0,1651086271143206.0,0
227,3.0,2.0,-22.0,-20.0,3.0,1.0,-2.0,-2.0,1651086271143206.0,0
228,15.0,1.0,-8.0,9.0,-3.0,-2.0,0.0,5.0,1651086271143206.0,0
229,-12.0,0.0,13.0,-1.0,-8.0,-5.0,-5.0,-8.0,1651086271143206.0,0
230,6.0,-1.0,2.0,-6.0,-3.0,-2.0,1.0,10.0,1651086271165203.0,0
231,1.0,5.0,-10.0,1.0,10.0,3.0,1.0,4.0,1651086271165203.0,0
232,-3.0,-3.0,9.0,-6.0,-3.0,0.0,0.0,-4.0,1651086271173208.0,0
233,1.0,2.0,-6.0,10.0,0.0,-1.0,-2.0,1.0,1651086271173208.0,0
234,-3.0,0.0,27.0,5.0,0.0,3.0,6.0,-1.0,1651086271188092.0,0
235,4.0,-3.0,-39.0,-6.0,-7.0,-1.0,0.0,-1.0,1651086271188092.0,0
236,-5.0,-5.0,-8.0,-20.0,0.0,-1.0,-2.0,-5.0,1651086271189073.0,0
237,-5.0,-2.0,-4.0,7.0,-6.0,-9.0,-9.0,-2.0,1651086271189073.0,0
238,-3.0,1.0,-37.0,-8.0,0.0,1.0,1.0,0.0,1651086271210603.0,0
239,-2.0,1.0,33.0,6.0,5.0,-2.0,-1.0,-6.0,1651086271210603.0,0
240,-2.0,0.0,-35.0,-38.0,-6.0,1.0,1.0,2.0,1651086271211351.0,0
241,-7.0,3.0,0.0,-2.0,3.0,4.0,4.0,-3.0,1651086271211351.0,0
242,15.0,-2.0,-2.0,7.0,7.0,3.0,-1.0,10.0,1651086271224339.0,0
243,-2.0,1.0,16.0,-4.0,-9.0,-4.0,-5.0,-8.0,1651086271224339.0,0
244,-1.0,-3.0,-15.0,-5.0,-1.0,0.0,0.0,0.0,1651086271233222.0,0
245,9.0,-3.0,-22.0,0.0,1.0,2.0,0.0,-9.0,1651086271233222.0,0
246,-10.0,4.0,15.0,30.0,3.0,-1.0,-3.0,8.0,1651086271248960.0,0
247,4.0,-1.0,5.0,-14.0,2.0,4.0,6.0,16.0,1651086271248960.0,0
248,-7.0,7.0,-5.0,12.0,1.0,-4.0,-8.0,-9.0,1651086271249086.0,0
249,5.0,-6.0,11.0,-9.0,0.0,3.0,4.0,6.0,1651086271249086.0,0
250,-6.0,-5.0,13.0,-3.0,3.0,0.0,-2.0,-4.0,1651086271271225.0,0
251,3.0,1.0,-13.0,-4.0,-7.0,-1.0,1.0,5.0,1651086271271225.0,0
252,8.0,2.0,19.0,17.0,1.0,1.0,1.0,0.0,1651086271271225.0,0
253,-1.0,3.0,-7.0,2.0,-1.0,-6.0,-2.0,2.0,1651086271271225.0,0
254,-7.0,-4.0,7.0,-7.0,-3.0,1.0,1.0,-5.0,1651086271285388.0,0
255,-6.0,-2.0,-9.0,-7.0,-3.0,-3.0,-4.0,-3.0,1651086271285388.0,0
256,-5.0,-5.0,6.0,5.0,1.0,-1.0,0.0,-4.0,1651086271286216.0,0
257,3.0,3.0,-12.0,-5.0,-5.0,-3.0,0.0,2.0,1651086271286216.0,0
258,0.0,-1.0,32.0,11.0,0.0,-1.0,-4.0,-5.0,1651086271308514.0,0
259,-5.0,-5.0,-7.0,-15.0,-2.0,3.0,2.0,-5.0,1651086271308514.0,0
260,-2.0,-1.0,-11.0,2.0,2.0,3.0,1.0,-5.0,1651086271308514.0,0
261,-6.0,-2.0,17.0,19.0,2.0,-2.0,-10.0,-5.0,1651086271308514.0,0
262,5.0,-1.0,-37.0,-28.0,-4.0,-1.0,2.0,5.0,1651086271332395.0,0
263,-2.0,2.0,17.0,7.0,0.0,-6.0,-2.0,-2.0,1651086271332395.0,0
264,1.0,2.0,35.0,37.0,4.0,4.0,3.0,4.0,1651086271332395.0,0
265,-4.0,-13.0,-40.0,-22.0,-6.0,-5.0,-3.0,-6.0,1651086271332395.0,0
266,-6.0,-2.0,-4.0,-2.0,0.0,0.0,2.0,3.0,1651086271345361.0,0
267,-5.0,-2.0,-13.0,-4.0,0.0,0.0,1.0,-3.0,1651086271345361.0,0
268,5.0,-1.0,6.0,-3.0,-2.0,-1.0,-3.0,-9.0,1651086271353306.0,0
269,3.0,1.0,5.0,2.0,3.0,2.0,-1.0,-1.0,1651086271353306.0,0
270,4.0,-7.0,-19.0,-4.0,-5.0,-3.0,-2.0,-6.0,1651086271368432.0,0
271,5.0,0.0,-3.0,0.0,-1.0,0.0,1.0,4.0,1651086271368432.0,0
272,-2.0,-2.0,14.0,17.0,1.0,-1.0,-1.0,-10.0,1651086271369070.0,0
273,-4.0,6.0,19.0,-3.0,1.0,2.0,4.0,-5.0,1651086271369070.0,0
274,8.0,1.0,-1.0,0.0,2.0,3.0,0.0,-1.0,1651086271390358.0,0
275,-4.0,-1.0,16.0,9.0,-1.0,-1.0,-4.0,-3.0,1651086271390358.0,0
276,0.0,-2.0,-25.0,-15.0,3.0,0.0,6.0,15.0,1651086271391210.0,0
277,1.0,-5.0,-11.0,-3.0,-6.0,-3.0,-2.0,-14.0,1651086271391210.0,0
278,-4.0,-3.0,-1.0,-15.0,-6.0,-3.0,3.0,8.0,1651086271413211.0,0
279,1.0,-4.0,-4.0,6.0,2.0,0.0,-1.0,-2.0,1651086271413211.0,0
280,-1.0,6.0,22.0,6.0,0.0,1.0,-1.0,4.0,1651086271414211.0,0
281,-7.0,-1.0,-21.0,-19.0,-3.0,-2.0,0.0,1.0,1651086271414211.0,0
282,1.0,-1.0,9.0,18.0,10.0,-1.0,0.0,-6.0,1651086271428173.0,0
283,0.0,4.0,-13.0,-15.0,-3.0,-1.0,-3.0,-2.0,1651086271428173.0,0
284,-9.0,-6.0,8.0,-15.0,-8.0,-3.0,0.0,0.0,1651086271428173.0,0
285,1.0,10.0,37.0,50.0,10.0,4.0,1.0,4.0,1651086271428173.0,0
286,7.0,-2.0,-9.0,-34.0,-6.0,-2.0,0.0,1.0,1651086271450360.0,0
287,1.0,-1.0,-10.0,1.0,-1.0,0.0,2.0,-6.0,1651086271450360.0,0
288,-11.0,-5.0,23.0,-1.0,-1.0,-2.0,-6.0,-32.0,1651086271451212.0,0
289,0.0,-3.0,-41.0,-8.0,-6.0,-5.0,-7.0,2.0,1651086271451212.0,0
290,-7.0,0.0,23.0,17.0,3.0,3.0,3.0,0.0,1651086271465320.0,0
291,-4.0,-4.0,4.0,-16.0,-3.0,-2.0,-1.0,4.0,1651086271465320.0,0
292,2.0,2.0,-31.0,5.0,0.0,-2.0,0.0,7.0,1651086271466172.0,0
293,-1.0,-6.0,-1.0,-12.0,-1.0,1.0,2.0,1.0,1651086271466172.0,0
294,-1.0,1.0,1.0,-1.0,-4.0,-5.0,-3.0,-4.0,1651086271488377.0,0
295,0.0,3.0,17.0,0.0,-3.0,-2.0,-3.0,-3.0,1651086271488377.0,0
296,-7.0,-3.0,-5.0,-9.0,0.0,-2.0,-3.0,1.0,1651086271489111.0,0
297,8.0,7.0,9.0,5.0,2.0,2.0,4.0,15.0,1651086271489111.0,0
298,-6.0,-2.0,-11.0,1.0,0.0,0.0,-3.0,-9.0,1651086271510342.0,0
299,1.0,5.0,7.0,25.0,-3.0,1.0,3.0,1.0,1651086271510342.0,0
300,0.0,-6.0,-8.0,-7.0,6.0,0.0,1.0,3.0,1651086271511210.0,0
301,1.0,-5.0,-11.0,-27.0,-7.0,-4.0,0.0,4.0,1651086271511210.0,0
302,-3.0,-1.0,23.0,30.0,5.0,2.0,5.0,12.0,1651086271525327.0,0
303,-2.0,3.0,36.0,39.0,7.0,0.0,-5.0,-10.0,1651086271525327.0,0
304,0.0,-1.0,-42.0,-34.0,-9.0,0.0,1.0,3.0,1651086271526193.0,0
305,0.0,1.0,9.0,-15.0,0.0,-1.0,0.0,-2.0,1651086271526193.0,0
306,-1.0,-2.0,7.0,14.0,3.0,1.0,1.0,3.0,1651086271548374.0,0
307,2.0,1.0,8.0,-8.0,-7.0,-5.0,-2.0,1.0,1651086271548374.0,0
308,1.0,-1.0,4.0,2.0,-1.0,-1.0,-1.0,4.0,1651086271548374.0,0
309,-3.0,0.0,24.0,11.0,-2.0,-2.0,-1.0,-1.0,1651086271548374.0,0
310,-5.0,-1.0,-17.0,-15.0,-1.0,3.0,-2.0,-4.0,1651086271571225.0,0
311,5.0,-1.0,-5.0,1.0,0.0,-2.0,0.0,5.0,1651086271571225.0,0
312,3.0,-2.0,-6.0,-13.0,-7.0,-3.0,-2.0,0.0,1651086271571225.0,0
313,-6.0,-3.0,-9.0,6.0,0.0,-1.0,0.0,2.0,1651086271571225.0,0
314,3.0,2.0,21.0,0.0,-1.0,-2.0,-4.0,-4.0,1651086271585194.0,0
315,-4.0,-3.0,-28.0,-19.0,-1.0,1.0,1.0,-1.0,1651086271585194.0,0
316,4.0,4.0,19.0,15.0,-2.0,-1.0,-2.0,2.0,1651086271586027.0,0
317,0.0,-1.0,10.0,4.0,8.0,4.0,4.0,-4.0,1651086271586027.0,0
318,-1.0,2.0,-11.0,-2.0,-1.0,-6.0,-4.0,4.0,1651086271608679.0,0
319,8.0,-4.0,-24.0,-17.0,-3.0,1.0,-1.0,-20.0,1651086271608679.0,0
320,1.0,4.0,9.0,4.0,-7.0,-2.0,-2.0,7.0,1651086271608838.0,0
321,-3.0,2.0,27.0,12.0,6.0,3.0,-1.0,-2.0,1651086271608838.0,0
322,6.0,8.0,0.0,1.0,1.0,2.0,5.0,-1.0,1651086271632445.0,0
323,0.0,-8.0,-5.0,-23.0,-2.0,-5.0,-4.0,17.0,1651086271632445.0,0
324,-5.0,-6.0,-9.0,11.0,-7.0,-6.0,-4.0,-21.0,1651086271632445.0,0
325,-1.0,1.0,42.0,18.0,-1.0,0.0,-1.0,1.0,1651086271632445.0,0
326,-4.0,-6.0,-65.0,-14.0,-1.0,-1.0,-2.0,-18.0,1651086271645324.0,0
327,-5.0,2.0,11.0,8.0,-3.0,0.0,-1.0,4.0,1651086271645324.0,0
328,4.0,1.0,-5.0,10.0,4.0,0.0,2.0,7.0,1651086271653231.0,0
329,-3.0,1.0,19.0,0.0,1.0,0.0,1.0,-2.0,1651086271653231.0,0
330,-5.0,-5.0,-14.0,-2.0,-2.0,0.0,-6.0,-4.0,1651086271668408.0,0
331,7.0,3.0,1.0,8.0,-5.0,2.0,2.0,2.0,1651086271668408.0,0
332,4.0,-2.0,-30.0,-28.0,1.0,4.0,3.0,-1.0,1651086271669071.0,0
333,-3.0,-7.0,67.0,38.0,0.0,-5.0,-4.0,1.0,1651086271669071.0,0
334,-4.0,13.0,-8.0,-19.0,-8.0,-3.0,-4.0,2.0,1651086271691398.0,0
335,-8.0,-8.0,-14.0,-5.0,-1.0,-4.0,-1.0,-9.0,1651086271691398.0,0
336,5.0,7.0,16.0,7.0,2.0,1.0,2.0,3.0,1651086271691398.0,0
337,-3.0,-3.0,-30.0,-10.0,3.0,0.0,-2.0,2.0,1651086271691398.0,0
338,1.0,-10.0,17.0,30.0,5.0,-2.0,-2.0,-3.0,1651086271705362.0,0
339,-5.0,1.0,-28.0,-18.0,-3.0,1.0,1.0,2.0,1651086271705362.0,0
340,1.0,0.0,18.0,6.0,-3.0,1.0,2.0,7.0,1651086271714337.0,0
341,-4.0,-2.0,-34.0,-22.0,-6.0,1.0,3.0,6.0,1651086271714337.0,0
342,9.0,-1.0,4.0,1.0,-6.0,-4.0,-4.0,-7.0,1651086271728378.0,0
343,-8.0,0.0,6.0,-3.0,0.0,-2.0,-4.0,-36.0,1651086271728378.0,0
344,-3.0,-5.0,-3.0,18.0,14.0,5.0,5.0,12.0,1651086271728378.0,0
345,5.0,3.0,-5.0,-13.0,-5.0,-4.0,-5.0,-12.0,1651086271728378.0,0
346,-8.0,-3.0,-3.0,5.0,0.0,0.0,0.0,7.0,1651086271751558.0,0
347,3.0,2.0,-9.0,-9.0,0.0,2.0,3.0,9.0,1651086271751558.0,0
348,-1.0,6.0,11.0,6.0,-1.0,-2.0,-2.0,0.0,1651086271751558.0,0
349,7.0,-3.0,-30.0,-18.0,-7.0,-2.0,-2.0,-8.0,1651086271751558.0,0
350,3.0,5.0,32.0,5.0,14.0,9.0,6.0,3.0,1651086271765376.0,0
351,-2.0,-5.0,-7.0,21.0,5.0,-1.0,-1.0,1.0,1651086271765376.0,0
352,-2.0,5.0,-3.0,-27.0,-7.0,-2.0,-2.0,0.0,1651086271773182.0,0
353,-6.0,-4.0,-7.0,10.0,-2.0,-1.0,-2.0,-3.0,1651086271773182.0,0
354,3.0,-1.0,7.0,6.0,-4.0,-6.0,-3.0,-2.0,1651086271788386.0,0
355,3.0,-8.0,-31.0,-31.0,-5.0,0.0,6.0,6.0,1651086271788386.0,0
356,2.0,3.0,3.0,6.0,4.0,1.0,-5.0,-4.0,1651086271788386.0,0
357,-5.0,9.0,15.0,18.0,1.0,-1.0,1.0,-5.0,1651086271788386.0,0
358,2.0,-3.0,-1.0,-18.0,-6.0,-2.0,0.0,-1.0,1651086271811434.0,0
359,2.0,-5.0,25.0,42.0,8.0,-1.0,-3.0,3.0,1651086271811434.0,0
360,7.0,8.0,-2.0,-17.0,-3.0,6.0,4.0,-2.0,1651086271811434.0,0
361,4.0,7.0,-19.0,-16.0,-3.0,-2.0,5.0,13.0,1651086271811434.0,0
362,-7.0,-10.0,17.0,47.0,3.0,-2.0,-5.0,-1.0,1651086271824407.0,0
363,-4.0,-4.0,-7.0,-32.0,-11.0,-6.0,-7.0,-1.0,1651086271824407.0,0
364,-1.0,-2.0,27.0,16.0,2.0,0.0,0.0,-3.0,1651086271833217.0,0
365,-4.0,-16.0,-10.0,-2.0,-3.0,5.0,2.0,6.0,1651086271833217.0,0
366,11.0,17.0,-10.0,-24.0,4.0,0.0,1.0,-7.0,1651086271848975.0,0
367,-3.0,3.0,-2.0,-2.0,-2.0,1.0,1.0,1.0,1651086271848975.0,0
368,-2.0,-15.0,-33.0,-8.0,0.0,-1.0,2.0,4.0,1651086271849070.0,0
369,-4.0,9.0,28.0,23.0,-2.0,-6.0,-9.0,-15.0,1651086271849070.0,0
370,0.0,8.0,-8.0,-26.0,-9.0,-2.0,-1.0,1.0,1651086271870214.0,0
371,2.0,-11.0,9.0,16.0,3.0,4.0,2.0,4.0,1651086271870214.0,0
372,-2.0,4.0,-1.0,-11.0,3.0,-1.0,-1.0,-5.0,1651086271871211.0,0
373,2.0,5.0,3.0,33.0,8.0,2.0,0.0,-3.0,1651086271871211.0,0
374,-2.0,5.0,-12.0,-26.0,-12.0,0.0,2.0,0.0,1651086271886183.0,0
375,3.0,4.0,8.0,0.0,-1.0,-1.0,-1.0,7.0,1651086271886183.0,0
376,-4.0,-6.0,22.0,21.0,3.0,2.0,0.0,-1.0,1651086271893153.0,0
377,2.0,-20.0,-77.0,-25.0,-4.0,-6.0,-6.0,-1.0,1651086271893153.0,0
378,-5.0,-12.0,-7.0,-1.0,-1.0,-4.0,-4.0,-1.0,1651086271908263.0,0
379,2.0,18.0,4.0,-23.0,-10.0,-5.0,0.0,-1.0,1651086271908263.0,0
380,0.0,-2.0,24.0,46.0,5.0,1.0,1.0,-4.0,1651086271909109.0,0
381,3.0,4.0,-9.0,-27.0,0.0,0.0,2.0,13.0,1651086271909109.0,0
382,-1.0,-12.0,-18.0,-3.0,-4.0,-3.0,-3.0,-23.0,1651086271931377.0,0
383,-1.0,0.0,-18.0,-21.0,-5.0,-1.0,-3.0,-5.0,1651086271931377.0,0
384,-5.0,0.0,23.0,22.0,4.0,-2.0,1.0,0.0,1651086271931377.0,0
385,6.0,0.0,9.0,3.0,5.0,1.0,0.0,-4.0,1651086271931377.0,0
386,3.0,0.0,24.0,17.0,-4.0,-5.0,-3.0,12.0,1651086271944361.0,0
387,-2.0,-7.0,-48.0,-24.0,-4.0,0.0,0.0,6.0,1651086271944361.0,0
388,5.0,9.0,9.0,14.0,3.0,3.0,2.0,-17.0,1651086271953339.0,0
389,-3.0,0.0,10.0,-13.0,-6.0,0.0,-1.0,-3.0,1651086271953339.0,0
390,-3.0,-16.0,-22.0,-12.0,0.0,0.0,-1.0,2.0,1651086271968552.0,0
391,1.0,12.0,31.0,29.0,7.0,2.0,0.0,1.0,1651086271968552.0,0
392,0.0,-2.0,-32.0,-43.0,-11.0,-2.0,1.0,9.0,1651086271969073.0,0
393,-2.0,1.0,22.0,14.0,1.0,-2.0,-4.0,-5.0,1651086271969073.0,0
394,0.0,-4.0,0.0,-6.0,1.0,5.0,1.0,2.0,1651086271990398.0,0
395,-3.0,-6.0,22.0,16.0,-2.0,-4.0,-2.0,-3.0,1651086271990398.0,0
396,7.0,4.0,-39.0,-28.0,-7.0,-1.0,-3.0,3.0,1651086271998556.0,0
397,-7.0,3.0,26.0,-1.0,-3.0,-1.0,1.0,-2.0,1651086271998556.0,0
398,0.0,8.0,-10.0,14.0,12.0,5.0,2.0,4.0,1651086272014184.0,0
399,-3.0,-24.0,0.0,2.0,-1.0,-3.0,-1.0,-3.0,1651086272014184.0,0
400,-3.0,-7.0,-6.0,-7.0,-5.0,-8.0,-7.0,1.0,1651086272014184.0,0
401,2.0,13.0,9.0,-2.0,-20.0,-4.0,-1.0,-1.0,1651086272014184.0,0
402,-1.0,2.0,10.0,18.0,27.0,6.0,1.0,6.0,1651086272028542.0,0
403,-5.0,-6.0,7.0,11.0,18.0,6.0,-1.0,0.0,1651086272028542.0,0
404,0.0,-5.0,-9.0,-5.0,-2.0,-1.0,-3.0,-2.0,1651086272029053.0,0
405,3.0,-5.0,-6.0,-8.0,1.0,3.0,1.0,2.0,1651086272029053.0,0
406,2.0,-1.0,8.0,-8.0,-15.0,-2.0,0.0,2.0,1651086272050683.0,0
407,1.0,24.0,7.0,4.0,-2.0,-3.0,-2.0,-2.0,1651086272050683.0,0
408,-5.0,-13.0,1.0,-2.0,-1.0,2.0,-3.0,-1.0,1651086272050683.0,0
409,-3.0,4.0,-16.0,-5.0,-1.0,0.0,-1.0,-2.0,1651086272050683.0,0
410,0.0,-7.0,1.0,6.0,12.0,2.0,0.0,1.0,1651086272073621.0,0
411,5.0,-5.0,8.0,6.0,2.0,0.0,1.0,0.0,1651086272073621.0,0
412,-5.0,7.0,2.0,-19.0,-14.0,-4.0,-3.0,-1.0,1651086272074651.0,0
413,4.0,4.0,-14.0,6.0,8.0,3.0,1.0,-1.0,1651086272074651.0,0
414,-5.0,-12.0,12.0,5.0,-8.0,-4.0,1.0,-1.0,1651086272087585.0,0
415,0.0,-1.0,-4.0,4.0,4.0,3.0,1.0,0.0,1651086272087585.0,0
416,-2.0,12.0,0.0,-2.0,-1.0,-3.0,-2.0,-1.0,1651086272088581.0,0
417,-10.0,-15.0,4.0,-15.0,-7.0,-2.0,-3.0,-3.0,1651086272088581.0,0
418,5.0,22.0,2.0,-4.0,-12.0,-5.0,0.0,-2.0,1651086272110566.0,0
419,-2.0,-5.0,3.0,8.0,13.0,1.0,0.0,1.0,1651086272110566.0,0
420,9.0,-18.0,-9.0,1.0,3.0,0.0,1.0,-1.0,1651086272111521.0,0
421,1.0,12.0,6.0,-1.0,2.0,-1.0,0.0,0.0,1651086272111521.0,0
422,-1.0,-11.0,-27.0,-15.0,-12.0,-4.0,-3.0,0.0,1651086272133233.0,0
423,-5.0,6.0,16.0,3.0,-6.0,-3.0,-1.0,-1.0,1651086272133233.0,0
424,2.0,6.0,-4.0,0.0,4.0,1.0,-2.0,0.0,1651086272133233.0,0
425,1.0,-14.0,-4.0,1.0,0.0,-1.0,0.0,0.0,1651086272133233.0,0
426,-6.0,11.0,3.0,-2.0,-3.0,1.0,2.0,2.0,1651086272149232.0,0
427,5.0,5.0,0.0,5.0,5.0,4.0,-1.0,1.0,1651086272149232.0,0
428,-4.0,-15.0,4.0,2.0,0.0,-1.0,-1.0,-2.0,1651086272150233.0,0
429,1.0,10.0,-13.0,-9.0,0.0,-1.0,1.0,0.0,1651086272150233.0,0
430,-2.0,-2.0,-2.0,4.0,2.0,0.0,-1.0,-1.0,1651086272171360.0,0
431,0.0,1.0,0.0,-1.0,-7.0,-4.0,-2.0,-1.0,1651086272171360.0,0
432,-2.0,3.0,5.0,3.0,-3.0,-3.0,-1.0,0.0,1651086272171360.0,0
433,-2.0,-1.0,1.0,-3.0,-1.0,0.0,-1.0,0.0,1651086272171360.0,0
434,1.0,1.0,3.0,-3.0,3.0,2.0,2.0,-3.0,1651086272192578.0,0
435,0.0,-11.0,-8.0,-3.0,-1.0,0.0,2.0,1.0,1651086272192578.0,0
436,-2.0,-1.0,-1.0,0.0,-1.0,-3.0,-2.0,-1.0,1651086272193490.0,0
437,2.0,8.0,2.0,-1.0,-4.0,0.0,-1.0,1.0,1651086272193490.0,0
438,-3.0,0.0,3.0,-3.0,0.0,-2.0,0.0,0.0,1651086272207400.0,0
439,4.0,-8.0,-7.0,-1.0,-4.0,1.0,0.0,7.0,1651086272207400.0,0
440,-5.0,10.0,10.0,5.0,4.0,-1.0,-2.0,-19.0,1651086272208399.0,0
441,-1.0,-20.0,-21.0,2.0,4.0,-2.0,-2.0,2.0,1651086272208399.0,0
442,-2.0,7.0,0.0,-3.0,-6.0,-1.0,-1.0,4.0,1651086272230929.0,0
443,-6.0,6.0,6.0,-1.0,-2.0,0.0,-1.0,-4.0,1651086272230929.0,0
444,2.0,-15.0,-16.0,-2.0,0.0,-1.0,-1.0,6.0,1651086272230929.0,0
445,5.0,-8.0,7.0,4.0,4.0,0.0,0.0,1.0,1651086272230929.0,0
446,-9.0,12.0,14.0,7.0,3.0,-1.0,2.0,-5.0,1651086272253369.0,0
447,-7.0,-1.0,-3.0,-9.0,-3.0,-4.0,-2.0,3.0,1651086272253369.0,0
448,3.0,5.0,-8.0,-5.0,-3.0,-2.0,-1.0,5.0,1651086272253369.0,0
449,-1.0,-6.0,5.0,0.0,0.0,1.0,-2.0,-9.0,1651086272253369.0,0
450,4.0,-8.0,-3.0,2.0,-1.0,-1.0,-1.0,2.0,1651086272268706.0,0
451,-3.0,15.0,14.0,2.0,-4.0,-2.0,-3.0,-6.0,1651086272268706.0,0
452,-3.0,-1.0,3.0,1.0,3.0,3.0,3.0,2.0,1651086272269073.0,0
453,4.0,2.0,-13.0,3.0,3.0,-1.0,0.0,-1.0,1651086272269073.0,0
454,3.0,-4.0,4.0,-5.0,-4.0,-3.0,-4.0,0.0,1651086272291396.0,0
455,-2.0,7.0,-10.0,-7.0,-1.0,-1.0,-2.0,-5.0,1651086272291396.0,0
456,0.0,0.0,3.0,0.0,-5.0,0.0,-1.0,2.0,1651086272291396.0,0
457,-1.0,19.0,11.0,6.0,5.0,2.0,1.0,3.0,1651086272291396.0,0
458,3.0,0.0,-7.0,-7.0,-1.0,-1.0,0.0,-1.0,1651086272312627.0,0
459,1.0,-10.0,-13.0,1.0,-1.0,3.0,-1.0,0.0,1651086272312627.0,0
460,-1.0,-7.0,2.0,-7.0,-2.0,-2.0,0.0,0.0,1651086272313627.0,0
461,0.0,9.0,15.0,2.0,-1.0,0.0,0.0,-1.0,1651086272313627.0,0
462,-1.0,1.0,-10.0,-4.0,0.0,-1.0,-1.0,-3.0,1651086272328824.0,0
463,4.0,-5.0,1.0,0.0,-4.0,-2.0,0.0,0.0,1651086272328824.0,0
464,-4.0,-13.0,-14.0,-2.0,-3.0,-1.0,-2.0,0.0,1651086272328961.0,0
465,0.0,7.0,7.0,4.0,6.0,3.0,0.0,-2.0,1651086272328961.0,0
466,0.0,1.0,-14.0,-4.0,2.0,2.0,1.0,2.0,1651086272351414.0,0
467,1.0,-7.0,-7.0,-6.0,-1.0,-2.0,0.0,1.0,1651086272351414.0,0
468,-1.0,0.0,0.0,-1.0,-3.0,-3.0,-2.0,0.0,1651086272351414.0,0
469,-1.0,7.0,8.0,-4.0,-6.0,-4.0,-2.0,0.0,1651086272351414.0,0
470,0.0,-19.0,-13.0,6.0,2.0,-2.0,-3.0,-1.0,1651086272373224.0,0
471,0.0,16.0,16.0,6.0,4.0,2.0,-1.0,-1.0,1651086272373224.0,0
472,-3.0,0.0,-4.0,-1.0,-4.0,-2.0,-2.0,-1.0,1651086272373224.0,0
473,-1.0,-11.0,-15.0,-11.0,-7.0,-2.0,0.0,0.0,1651086272373224.0,0
474,1.0,0.0,11.0,12.0,10.0,4.0,1.0,-1.0,1651086272389062.0,0
475,-2.0,-10.0,-9.0,-5.0,-8.0,-5.0,-2.0,-2.0,1651086272389062.0,0
476,-3.0,10.0,6.0,7.0,7.0,3.0,0.0,0.0,1651086272389106.0,0
477,-1.0,-10.0,-7.0,-6.0,-1.0,1.0,-1.0,1.0,1651086272389106.0,0
478,1.0,3.0,10.0,-4.0,-6.0,0.0,-3.0,-1.0,1651086272411422.0,0
479,-1.0,4.0,-11.0,0.0,3.0,-1.0,-1.0,-2.0,1651086272411422.0,0
480,2.0,5.0,9.0,4.0,2.0,-1.0,1.0,1.0,1651086272411422.0,0
481,0.0,-8.0,-2.0,3.0,2.0,1.0,-1.0,0.0,1651086272411422.0,0
482,-2.0,3.0,8.0,-2.0,0.0,-1.0,1.0,-1.0,1651086272433234.0,0
483,2.0,-3.0,-1.0,-1.0,-1.0,-1.0,-1.0,0.0,1651086272433234.0,0
484,0.0,5.0,1.0,-3.0,-2.0,1.0,0.0,-1.0,1651086272433234.0,0
485,-3.0,-3.0,-3.0,4.0,1.0,-1.0,-1.0,0.0,1651086272433234.0,0
486,-1.0,-6.0,-2.0,-2.0,0.0,0.0,-1.0,1.0,1651086272448238.0,0
487,0.0,-1.0,0.0,0.0,-1.0,1.0,1.0,0.0,1651086272448238.0,0
488,0.0,-1.0,-4.0,-3.0,-3.0,-3.0,0.0,0.0,1651086272448238.0,0
489,1.0,-16.0,-7.0,0.0,0.0,-2.0,-1.0,0.0,1651086272448238.0,0
490,0.0,26.0,6.0,-1.0,-2.0,-1.0,-1.0,-2.0,1651086272471366.0,0
491,-2.0,-15.0,0.0,1.0,1.0,1.0,-1.0,-1.0,1651086272471366.0,0
492,0.0,4.0,-5.0,-1.0,1.0,-1.0,1.0,-1.0,1651086272471366.0,0
493,0.0,-1.0,-1.0,1.0,-1.0,-2.0,-2.0,-2.0,1651086272471366.0,0
494,1.0,-6.0,-2.0,-2.0,1.0,1.0,-1.0,-1.0,1651086272494191.0,0
495,1.0,3.0,2.0,1.0,0.0,-1.0,-1.0,0.0,1651086272494191.0,0
496,0.0,-6.0,-6.0,-2.0,-2.0,0.0,-1.0,-1.0,1651086272495058.0,0
497,0.0,1.0,5.0,-1.0,-2.0,-1.0,-1.0,-1.0,1651086272495058.0,0
498,-1.0,-4.0,-9.0,-3.0,-3.0,0.0,-1.0,-2.0,1651086272508181.0,0
499,0.0,6.0,5.0,1.0,-1.0,0.0,-1.0,0.0,1651086272508181.0,0
500,0.0,-3.0,-2.0,-3.0,-1.0,-1.0,-1.0,-1.0,1651086272509029.0,0
501,1.0,2.0,0.0,0.0,-3.0,-3.0,-1.0,0.0,1651086272509029.0,0
502,-2.0,-4.0,3.0,-1.0,0.0,1.0,1.0,0.0,1651086272531078.0,0
503,-2.0,-2.0,-4.0,-3.0,-1.0,-3.0,-1.0,-1.0,1651086272531078.0,0
504,-1.0,9.0,5.0,1.0,0.0,0.0,-2.0,0.0,1651086272531177.0,0
505,-1.0,-1.0,-4.0,-2.0,-1.0,-1.0,0.0,-1.0,1651086272531177.0,0
506,0.0,-6.0,0.0,-1.0,-4.0,-2.0,-1.0,0.0,1651086272553363.0,0
507,1.0,4.0,1.0,0.0,3.0,2.0,1.0,-2.0,1651086272553363.0,0
508,1.0,-5.0,-1.0,-1.0,-2.0,-2.0,-1.0,0.0,1651086272554224.0,0
509,-1.0,2.0,2.0,1.0,2.0,1.0,-1.0,0.0,1651086272554224.0,0
510,-1.0,-1.0,1.0,0.0,-1.0,-1.0,2.0,0.0,1651086272567915.0,0
511,-1.0,-12.0,-1.0,1.0,-1.0,-2.0,-2.0,0.0,1651086272567915.0,0
512,0.0,15.0,3.0,3.0,0.0,-1.0,-1.0,-2.0,1651086272575225.0,0
513,0.0,-2.0,-8.0,-2.0,-1.0,0.0,1.0,-1.0,1651086272575225.0,0
514,-1.0,-8.0,2.0,-2.0,-2.0,-1.0,0.0,-2.0,1651086272590408.0,0
515,1.0,11.0,4.0,-1.0,-1.0,-1.0,-2.0,-2.0,1651086272590408.0,0
516,-1.0,-5.0,2.0,3.0,3.0,2.0,0.0,-1.0,1651086272591240.0,0
517,-1.0,0.0,0.0,0.0,-1.0,-2.0,0.0,1.0,1651086272591240.0,0
518,1.0,-1.0,-7.0,-4.0,0.0,0.0,0.0,0.0,1651086272614323.0,0
519,0.0,-1.0,3.0,-1.0,-2.0,-1.0,0.0,-1.0,1651086272614323.0,0
520,0.0,1.0,1.0,-2.0,0.0,0.0,0.0,1.0,1651086272614323.0,0
521,-1.0,-1.0,1.0,1.0,-1.0,-1.0,-2.0,-1.0,1651086272614323.0,0
522,-3.0,-2.0,0.0,4.0,2.0,0.0,-1.0,0.0,1651086272628400.0,0
523,-1.0,-2.0,-4.0,-1.0,-5.0,-5.0,-1.0,0.0,1651086272628400.0,0
524,-2.0,-13.0,-7.0,-3.0,3.0,4.0,-1.0,0.0,1651086272635221.0,0
525,0.0,13.0,9.0,2.0,2.0,0.0,1.0,0.0,1651086272635221.0,0
526,1.0,1.0,1.0,0.0,-2.0,0.0,-1.0,-1.0,1651086272651420.0,0
527,-1.0,-4.0,-5.0,-3.0,-4.0,-3.0,1.0,-1.0,1651086272651420.0,0
528,0.0,0.0,3.0,-1.0,-5.0,-2.0,-1.0,-2.0,1651086272651420.0,0
529,-1.0,-6.0,0.0,1.0,5.0,2.0,1.0,1.0,1651086272651420.0,0
530,-1.0,4.0,5.0,1.0,1.0,1.0,-1.0,1.0,1651086272674349.0,0
531,-1.0,0.0,0.0,0.0,1.0,1.0,1.0,2.0,1651086272674349.0,0
532,1.0,-2.0,-5.0,-4.0,-5.0,-4.0,-2.0,-1.0,1651086272674349.0,0
533,0.0,-5.0,0.0,-2.0,0.0,0.0,1.0,0.0,1651086272674349.0,0
534,-1.0,-4.0,-16.0,-1.0,2.0,0.0,0.0,1.0,1651086272688262.0,0
535,-1.0,6.0,-1.0,-2.0,-2.0,0.0,-2.0,-1.0,1651086272688262.0,0
536,-1.0,-3.0,3.0,-1.0,-3.0,-1.0,-2.0,1.0,1651086272696374.0,0
537,-2.0,-9.0,-3.0,0.0,0.0,0.0,-1.0,0.0,1651086272696374.0,0
538,1.0,1.0,3.0,-3.0,-4.0,-3.0,-1.0,1.0,1651086272711344.0,0
539,1.0,-3.0,-5.0,-1.0,0.0,0.0,0.0,0.0,1651086272711344.0,0
540,0.0,4.0,5.0,0.0,0.0,0.0,0.0,-1.0,1651086272711344.0,0
541,-1.0,5.0,-2.0,-1.0,-2.0,-1.0,0.0,0.0,1651086272711344.0,0
542,0.0,-2.0,4.0,1.0,-1.0,-1.0,-1.0,-2.0,1651086272733062.0,0
543,-1.0,-5.0,-4.0,2.0,3.0,-1.0,0.0,-1.0,1651086272733062.0,0
544,-2.0,1.0,2.0,0.0,0.0,0.0,-1.0,-2.0,1651086272734054.0,0
545,-1.0,1.0,-4.0,-3.0,-8.0,-3.0,0.0,-1.0,1651086272734054.0,0
546,-1.0,-2.0,5.0,4.0,5.0,4.0,0.0,-1.0,1651086272747721.0,0
547,-1.0,-1.0,0.0,-1.0,3.0,0.0,-1.0,1.0,1651086272747721.0,0
548,-1.0,-3.0,-4.0,-1.0,3.0,-1.0,1.0,0.0,1651086272755705.0,0
549,0.0,1.0,-2.0,-2.0,-4.0,-2.0,-1.0,0.0,1651086272755705.0,0
550,-1.0,-3.0,-1.0,-4.0,-9.0,-5.0,-1.0,0.0,1651086272770872.0,0
551,1.0,2.0,-4.0,-2.0,-3.0,-3.0,0.0,-1.0,1651086272770872.0,0
552,-3.0,-2.0,1.0,-1.0,1.0,1.0,0.0,0.0,1651086272770872.0,0
553,-2.0,-2.0,1.0,4.0,6.0,2.0,2.0,1.0,1651086272770872.0,0
554,-1.0,4.0,3.0,-1.0,1.0,0.0,-1.0,0.0,1651086272801438.0,0
555,2.0,-8.0,-3.0,1.0,2.0,1.0,-1.0,-2.0,1651086272801438.0,0
556,-1.0,-1.0,3.0,-1.0,-3.0,-3.0,-1.0,0.0,1651086272801438.0,0
557,0.0,-1.0,-4.0,-1.0,-1.0,-2.0,-3.0,-2.0,1651086272801438.0,0
558,0.0,-5.0,0.0,-1.0,3.0,-1.0,1.0,0.0,1651086272807424.0,0
559,-1.0,-1.0,-3.0,-2.0,-4.0,-2.0,1.0,-1.0,1651086272807424.0,0
560,0.0,4.0,-1.0,-1.0,-1.0,-1.0,-1.0,-1.0,1651086272815523.0,0
561,0.0,0.0,0.0,3.0,2.0,0.0,1.0,1.0,1651086272815523.0,0
562,-1.0,-3.0,-2.0,0.0,-1.0,0.0,-1.0,-1.0,1651086272830199.0,0
563,1.0,8.0,4.0,-1.0,-3.0,-1.0,0.0,0.0,1651086272830199.0,0
564,-2.0,-5.0,0.0,1.0,0.0,1.0,0.0,-1.0,1651086272831114.0,0
565,-1.0,-2.0,-1.0,0.0,2.0,2.0,1.0,0.0,1651086272831114.0,0
566,0.0,2.0,1.0,-4.0,-2.0,-4.0,-3.0,0.0,1651086272853337.0,0
567,-1.0,1.0,0.0,-2.0,-2.0,0.0,-1.0,0.0,1651086272853337.0,0
568,0.0,0.0,4.0,1.0,-2.0,-3.0,0.0,0.0,1651086272854272.0,0
569,0.0,1.0,-8.0,-4.0,-1.0,0.0,-2.0,-1.0,1651086272854272.0,0
570,-2.0,-5.0,-3.0,-6.0,-4.0,-2.0,0.0,-1.0,1651086272867343.0,0
571,-1.0,3.0,-1.0,0.0,-4.0,-1.0,0.0,-2.0,1651086272867343.0,0
572,0.0,-3.0,-1.0,10.0,7.0,3.0,3.0,0.0,1651086272875200.0,0
573,1.0,2.0,3.0,-3.0,1.0,2.0,0.0,0.0,1651086272875200.0,0
574,0.0,2.0,2.0,0.0,0.0,-3.0,2.0,1.0,1651086272890587.0,0
575,-2.0,-6.0,1.0,-4.0,-1.0,-2.0,-2.0,-1.0,1651086272890587.0,0
576,-1.0,-22.0,-7.0,-2.0,-4.0,-3.0,-2.0,0.0,1651086272891657.0,0
577,0.0,26.0,3.0,-3.0,-5.0,-2.0,-2.0,1.0,1651086272891657.0,0
578,-2.0,-11.0,-5.0,-3.0,0.0,1.0,0.0,-2.0,1651086272913212.0,0
579,-1.0,10.0,4.0,4.0,3.0,0.0,0.0,-1.0,1651086272913212.0,0
580,-1.0,-1.0,-4.0,-5.0,-4.0,-2.0,-2.0,-1.0,1651086272914235.0,0
581,1.0,-6.0,-2.0,5.0,8.0,5.0,0.0,1.0,1651086272914235.0,0
582,1.0,6.0,2.0,-1.0,-4.0,0.0,0.0,0.0,1651086272936205.0,0
583,-3.0,-12.0,-5.0,-2.0,1.0,1.0,0.0,-2.0,1651086272936205.0,0
584,0.0,2.0,5.0,-2.0,-2.0,-2.0,1.0,-1.0,1651086272937203.0,0
585,1.0,-9.0,-14.0,-6.0,-8.0,-6.0,-2.0,-2.0,1651086272937203.0,0
586,-3.0,13.0,7.0,2.0,4.0,1.0,1.0,0.0,1651086272950168.0,0
587,0.0,-5.0,0.0,0.0,5.0,3.0,1.0,-1.0,1651086272950168.0,0
588,0.0,6.0,-5.0,-2.0,1.0,2.0,0.0,1.0,1651086272951165.0,0
589,1.0,-9.0,7.0,1.0,-2.0,1.0,-1.0,0.0,1651086272951165.0,0
590,0.0,-3.0,-5.0,0.0,-2.0,1.0,0.0,0.0,1651086272974378.0,0
591,-1.0,-1.0,2.0,-1.0,-3.0,-3.0,-2.0,0.0,1651086272974378.0,0
592,-1.0,0.0,-6.0,-5.0,-2.0,-3.0,-1.0,-1.0,1651086272974378.0,0
593,-1.0,1.0,-2.0,-4.0,-5.0,-3.0,-2.0,0.0,1651086272974378.0,0
594,0.0,-4.0,0.0,9.0,5.0,0.0,0.0,0.0,1651086272997521.0,0
595,-2.0,0.0,0.0,-1.0,1.0,3.0,2.0,2.0,1651086272997521.0,0
596,1.0,2.0,-5.0,-3.0,2.0,2.0,2.0,0.0,1651086272997521.0,0
597,0.0,-1.0,0.0,-3.0,-6.0,-3.0,0.0,-4.0,1651086272997521.0,0
598,0.0,-1.0,5.0,3.0,8.0,1.0,-2.0,-1.0,1651086273010647.0,0
599,-1.0,0.0,-1.0,-8.0,-9.0,-4.0,0.0,-1.0,1651086273010647.0,0
600,1.0,2.0,5.0,11.0,11.0,2.0,0.0,2.0,1651086273011521.0,0
601,-1.0,-12.0,-12.0,3.0,5.0,3.0,0.0,1.0,1651086273011521.0,0
602,-2.0,7.0,8.0,-1.0,-4.0,-1.0,0.0,-1.0,1651086273033095.0,0
603,-2.0,-3.0,-3.0,-1.0,2.0,1.0,1.0,0.0,1651086273033095.0,0
604,-2.0,-3.0,1.0,-8.0,-7.0,-1.0,0.0,-1.0,1651086273034134.0,0
605,-2.0,-1.0,-2.0,-1.0,-3.0,-3.0,-1.0,-1.0,1651086273034134.0,0
606,0.0,-2.0,-6.0,-6.0,-2.0,-4.0,2.0,1.0,1651086273056572.0,0
607,0.0,2.0,1.0,2.0,-3.0,-3.0,-2.0,2.0,1651086273056572.0,0
608,0.0,2.0,-1.0,-2.0,-1.0,-2.0,-2.0,-2.0,1651086273056572.0,0
609,-1.0,1.0,7.0,2.0,2.0,0.0,1.0,1.0,1651086273056572.0,0
610,0.0,4.0,-10.0,-6.0,-3.0,1.0,0.0,-1.0,1651086273079245.0,0
611,-1.0,-3.0,5.0,2.0,2.0,1.0,-1.0,0.0,1651086273079245.0,0
612,-2.0,2.0,-7.0,-1.0,-3.0,-2.0,-1.0,-1.0,1651086273079245.0,0
613,-1.0,-7.0,-3.0,1.0,6.0,3.0,-1.0,1.0,1651086273079245.0,0
614,1.0,-8.0,-7.0,-9.0,-8.0,-3.0,-2.0,0.0,1651086273093380.0,0
615,1.0,-7.0,-5.0,-7.0,-4.0,0.0,-2.0,0.0,1651086273093380.0,0
616,0.0,31.0,22.0,8.0,1.0,-1.0,-1.0,-1.0,1651086273093380.0,0
617,-2.0,1.0,0.0,-3.0,-4.0,-2.0,-1.0,-2.0,1651086273093380.0,0
618,-3.0,-12.0,-1.0,5.0,0.0,2.0,0.0,1.0,1651086273116513.0,0
619,1.0,-2.0,-1.0,0.0,5.0,2.0,0.0,-2.0,1651086273116513.0,0
620,-1.0,-7.0,-4.0,2.0,-2.0,-2.0,0.0,1.0,1651086273116513.0,0
621,0.0,-3.0,10.0,-6.0,-5.0,0.0,-1.0,0.0,1651086273116513.0,0
622,-1.0,0.0,-12.0,-9.0,-4.0,-2.0,-1.0,0.0,1651086273146306.0,0
623,1.0,2.0,-4.0,8.0,0.0,1.0,0.0,0.0,1651086273146306.0,0
624,-1.0,-3.0,2.0,2.0,3.0,3.0,0.0,-1.0,1651086273147230.0,0
625,-1.0,3.0,8.0,5.0,0.0,-3.0,-1.0,-2.0,1651086273147230.0,0
626,0.0,-3.0,-4.0,-5.0,-4.0,1.0,-1.0,-1.0,1651086273153219.0,0
627,0.0,4.0,5.0,2.0,2.0,-3.0,0.0,0.0,1651086273153219.0,0
628,2.0,2.0,-6.0,-5.0,-3.0,0.0,-1.0,-1.0,1651086273153219.0,0
629,-1.0,-5.0,-6.0,0.0,-3.0,-1.0,1.0,-1.0,1651086273153219.0,0
630,1.0,2.0,1.0,0.0,-4.0,-3.0,-2.0,-2.0,1651086273176449.0,0
631,0.0,12.0,0.0,-5.0,1.0,2.0,0.0,-2.0,1651086273176449.0,0
632,-1.0,-14.0,0.0,1.0,2.0,1.0,1.0,-1.0,1651086273176449.0,0
633,-1.0,9.0,2.0,-7.0,-5.0,-4.0,0.0,-1.0,1651086273176449.0,0
634,2.0,3.0,0.0,4.0,4.0,7.0,1.0,0.0,1651086273191350.0,0
635,-1.0,-7.0,9.0,6.0,3.0,-3.0,-1.0,0.0,1651086273191350.0,0
636,-1.0,-13.0,0.0,-3.0,-3.0,-1.0,-3.0,-1.0,1651086273191350.0,0
637,0.0,10.0,7.0,1.0,0.0,0.0,-1.0,-1.0,1651086273191350.0,0
638,1.0,1.0,1.0,3.0,3.0,-2.0,0.0,-1.0,1651086273213176.0,0
639,-1.0,4.0,-7.0,-8.0,-3.0,-1.0,0.0,-1.0,1651086273213176.0,0
640,1.0,-6.0,-6.0,-1.0,0.0,1.0,0.0,0.0,1651086273213176.0,0
641,-1.0,-4.0,-2.0,2.0,-1.0,0.0,0.0,-1.0,1651086273213176.0,0
642,0.0,2.0,6.0,5.0,3.0,-1.0,-1.0,-1.0,1651086273235607.0,0
643,-1.0,-3.0,-2.0,4.0,4.0,1.0,0.0,1.0,1651086273235607.0,0
644,1.0,5.0,-4.0,-7.0,-5.0,-3.0,-2.0,0.0,1651086273236605.0,0
645,1.0,-5.0,1.0,-2.0,-6.0,-2.0,-2.0,1.0,1651086273236605.0,0
646,-2.0,6.0,-8.0,0.0,-2.0,-3.0,-1.0,-3.0,1651086273251324.0,0
647,0.0,-1.0,-2.0,-13.0,-12.0,1.0,0.0,-1.0,1651086273251324.0,0
648,-1.0,-4.0,1.0,4.0,1.0,-2.0,0.0,-1.0,1651086273251324.0,0
649,1.0,-8.0,-8.0,-1.0,5.0,1.0,-1.0,-1.0,1651086273251324.0,0
650,-2.0,-3.0,0.0,-2.0,0.0,-3.0,0.0,1.0,1651086273273356.0,0
651,1.0,-1.0,-2.0,0.0,-1.0,-3.0,-3.0,-2.0,1651086273273356.0,0
652,-3.0,2.0,3.0,-1.0,-8.0,-2.0,1.0,-1.0,1651086273273356.0,0
653,1.0,-17.0,3.0,1.0,2.0,3.0,1.0,0.0,1651086273273356.0,0
654,1.0,24.0,7.0,-4.0,-7.0,-4.0,-2.0,-1.0,1651086273297336.0,0
655,0.0,-1.0,-1.0,0.0,-4.0,-1.0,0.0,0.0,1651086273297336.0,0
656,-1.0,-3.0,-9.0,-4.0,3.0,-1.0,1.0,-1.0,1651086273297336.0,0
657,-2.0,-1.0,-7.0,-5.0,0.0,-1.0,-2.0,-2.0,1651086273297336.0,0
658,0.0,-3.0,4.0,8.0,2.0,0.0,0.0,1.0,1651086273311334.0,0
659,-1.0,-5.0,4.0,2.0,3.0,1.0,0.0,1.0,1651086273311334.0,0
660,1.0,-1.0,0.0,-3.0,-1.0,-1.0,0.0,-2.0,1651086273311334.0,0
661,-1.0,8.0,-2.0,0.0,-2.0,-3.0,-1.0,0.0,1651086273311334.0,0
662,-1.0,-7.0,-1.0,-7.0,-7.0,-3.0,-1.0,-3.0,1651086273333600.0,0
663,0.0,5.0,-10.0,-1.0,0.0,-2.0,-2.0,0.0,1651086273333600.0,0
664,-1.0,-8.0,3.0,3.0,4.0,1.0,-1.0,-1.0,1651086273333600.0,0
665,-2.0,0.0,2.0,5.0,9.0,2.0,0.0,-1.0,1651086273333600.0,0
666,1.0,-10.0,-16.0,-8.0,-6.0,-3.0,0.0,0.0,1651086273356605.0,0
667,2.0,7.0,19.0,11.0,5.0,-2.0,-1.0,-3.0,1651086273356605.0,0
668,0.0,-15.0,-22.0,-3.0,0.0,1.0,1.0,1.0,1651086273357435.0,0
669,0.0,29.0,20.0,5.0,1.0,0.0,1.0,1.0,1651086273357435.0,0
670,-1.0,-6.0,5.0,5.0,3.0,4.0,0.0,-1.0,1651086273371210.0,0
671,-1.0,-4.0,-10.0,-11.0,-9.0,-4.0,0.0,0.0,1651086273371210.0,0
672,0.0,6.0,5.0,-7.0,-7.0,-5.0,-2.0,-1.0,1651086273371210.0,0
673,-1.0,-17.0,-7.0,-2.0,-11.0,-3.0,-2.0,-1.0,1651086273371210.0,0
674,1.0,4.0,5.0,9.0,19.0,6.0,1.0,0.0,1651086273393395.0,0
675,-1.0,-6.0,-3.0,7.0,7.0,2.0,1.0,0.0,1651086273393395.0,0
676,1.0,12.0,8.0,7.0,8.0,3.0,0.0,0.0,1651086273393395.0,0
677,0.0,-1.0,-2.0,-6.0,-11.0,-5.0,0.0,0.0,1651086273393395.0,0
678,-2.0,-6.0,7.0,-7.0,-3.0,-2.0,0.0,-1.0,1651086273416354.0,0
679,-3.0,-5.0,-12.0,-1.0,-5.0,0.0,0.0,0.0,1651086273416354.0,0
680,2.0,5.0,-2.0,8.0,9.0,-1.0,-1.0,-1.0,1651086273417202.0,0
681,0.0,-2.0,-4.0,1.0,2.0,2.0,0.0,-1.0,1651086273417202.0,0
682,0.0,-13.0,-7.0,-5.0,-5.0,-2.0,0.0,0.0,1651086273431039.0,0
683,-1.0,14.0,9.0,1.0,-2.0,-2.0,-5.0,-2.0,1651086273431039.0,0
684,0.0,-6.0,1.0,1.0,-8.0,0.0,-1.0,1.0,1651086273431227.0,0
685,0.0,8.0,10.0,4.0,3.0,-1.0,0.0,1.0,1651086273431227.0,0
686,-1.0,0.0,-13.0,0.0,0.0,-1.0,-3.0,-2.0,1651086273453454.0,0
687,-2.0,-9.0,-6.0,-17.0,-21.0,-6.0,-2.0,0.0,1651086273453454.0,0
688,0.0,1.0,-2.0,17.0,27.0,8.0,2.0,0.0,1651086273453454.0,0
689,0.0,4.0,0.0,-4.0,2.0,5.0,1.0,-1.0,1651086273453454.0,0
690,0.0,-5.0,6.0,8.0,6.0,2.0,3.0,3.0,1651086273484386.0,0
691,-1.0,-4.0,-11.0,-17.0,-23.0,-11.0,-1.0,-2.0,1651086273484386.0,0
692,0.0,6.0,1.0,-8.0,-11.0,-3.0,-4.0,-2.0,1651086273484386.0,0
693,0.0,-5.0,-12.0,7.0,10.0,2.0,2.0,1.0,1651086273484386.0,0
694,-1.0,4.0,6.0,3.0,-1.0,0.0,-2.0,-1.0,1651086273490215.0,0
695,-1.0,0.0,15.0,9.0,8.0,3.0,2.0,0.0,1651086273490215.0,0
696,-2.0,-4.0,-14.0,-33.0,-40.0,-16.0,-4.0,-4.0,1651086273491212.0,0
697,1.0,6.0,3.0,-1.0,15.0,8.0,3.0,3.0,1651086273491212.0,0
698,2.0,1.0,11.0,24.0,31.0,17.0,5.0,3.0,1651086273513231.0,0
699,0.0,-3.0,2.0,7.0,11.0,-3.0,-2.0,0.0,1651086273513231.0,0
700,-3.0,-11.0,8.0,-18.0,-31.0,-11.0,-3.0,-2.0,1651086273513231.0,0
701,1.0,18.0,-2.0,20.0,33.0,14.0,3.0,2.0,1651086273513231.0,0
702,-2.0,1.0,-6.0,-1.0,-4.0,-6.0,-2.0,-1.0,1651086273536217.0,0
703,3.0,10.0,-8.0,-3.0,-23.0,-4.0,0.0,-1.0,1651086273536217.0,0
704,-3.0,-6.0,-1.0,-32.0,-3.0,-3.0,-2.0,0.0,1651086273537247.0,0
705,1.0,-9.0,11.0,33.0,11.0,2.0,0.0,1.0,1651086273537247.0,0
706,-1.0,0.0,-2.0,-18.0,-20.0,-6.0,-2.0,0.0,1651086273550571.0,0
707,-1.0,3.0,-20.0,-7.0,7.0,4.0,0.0,0.0,1651086273550571.0,0
708,-3.0,1.0,6.0,4.0,-20.0,-7.0,-3.0,-1.0,1651086273558558.0,0
709,0.0,-8.0,-8.0,-9.0,-6.0,-5.0,-3.0,-3.0,1651086273558558.0,0
710,0.0,6.0,-2.0,-10.0,-2.0,1.0,2.0,0.0,1651086273574387.0,0
711,1.0,-7.0,24.0,19.0,2.0,-1.0,-2.0,-2.0,1651086273574387.0,0
712,2.0,2.0,4.0,1.0,22.0,9.0,1.0,3.0,1651086273575226.0,0
713,-2.0,-11.0,-27.0,-12.0,-17.0,-9.0,-3.0,-3.0,1651086273575226.0,0
714,-2.0,1.0,-5.0,-8.0,0.0,1.0,-4.0,-3.0,1651086273596568.0,0
715,-1.0,1.0,1.0,7.0,-2.0,1.0,0.0,2.0,1651086273596568.0,0
716,-1.0,1.0,5.0,34.0,31.0,11.0,2.0,0.0,1651086273596568.0,0
717,-1.0,2.0,-17.0,-11.0,3.0,-2.0,1.0,0.0,1651086273596568.0,0
718,-2.0,-6.0,-16.0,-20.0,-31.0,-13.0,-3.0,-3.0,1651086273609863.0,0
719,0.0,-4.0,-1.0,-17.0,-13.0,-4.0,-3.0,-3.0,1651086273609863.0,0
720,-2.0,1.0,-2.0,13.0,4.0,-2.0,0.0,-1.0,1651086273618632.0,0
721,2.0,-2.0,15.0,-1.0,1.0,6.0,2.0,2.0,1651086273618632.0,0
722,0.0,-4.0,-35.0,-30.0,-18.0,-8.0,-2.0,0.0,1651086273633233.0,0
723,-2.0,-1.0,24.0,15.0,22.0,7.0,2.0,0.0,1651086273633233.0,1
724,2.0,7.0,2.0,23.0,38.0,16.0,8.0,3.0,1651086273634234.0,1
725,-2.0,-4.0,11.0,-2.0,-16.0,-9.0,-1.0,1.0,1651086273634234.0,1
726,1.0,0.0,4.0,-8.0,-2.0,-5.0,-4.0,-1.0,1651086273656388.0,1
727,1.0,2.0,3.0,-4.0,3.0,2.0,0.0,1.0,1651086273656388.0,1
728,-1.0,1.0,9.0,-6.0,-26.0,-12.0,-5.0,-4.0,1651086273657252.0,1
729,-2.0,-2.0,-4.0,14.0,21.0,5.0,0.0,0.0,1651086273657252.0,1
730,2.0,5.0,6.0,-10.0,-3.0,5.0,2.0,2.0,1651086273670239.0,1
731,-1.0,-5.0,-35.0,6.0,-16.0,-8.0,-2.0,2.0,1651086273670239.0,1
732,-4.0,2.0,28.0,14.0,25.0,7.0,0.0,-2.0,1651086273679105.0,1
733,0.0,-5.0,4.0,-9.0,-13.0,-4.0,-3.0,-2.0,1651086273679105.0,1
734,0.0,3.0,31.0,27.0,4.0,-4.0,0.0,-1.0,1651086273693196.0,1
735,1.0,3.0,-12.0,-12.0,9.0,10.0,3.0,-2.0,1651086273693196.0,1
736,-2.0,-5.0,4.0,0.0,0.0,-1.0,-3.0,-1.0,1651086273693196.0,1
737,1.0,2.0,4.0,-6.0,-11.0,-3.0,-1.0,-1.0,1651086273693196.0,1
738,0.0,-5.0,-27.0,-12.0,3.0,-2.0,-2.0,-1.0,1651086273716518.0,1
739,-1.0,2.0,17.0,18.0,-2.0,-1.0,1.0,-1.0,1651086273716518.0,1
740,-1.0,-3.0,-15.0,5.0,-7.0,-4.0,-2.0,-1.0,1651086273716518.0,1
741,-4.0,-4.0,7.0,-34.0,-18.0,-7.0,-3.0,-3.0,1651086273716518.0,1
742,2.0,1.0,-15.0,-4.0,4.0,2.0,3.0,2.0,1651086273730286.0,1
743,-3.0,-10.0,-22.0,-9.0,-6.0,-5.0,-2.0,-2.0,1651086273730286.0,1
744,1.0,4.0,22.0,22.0,12.0,5.0,3.0,0.0,1651086273738485.0,1
745,-5.0,-7.0,-18.0,1.0,-4.0,-1.0,0.0,-5.0,1651086273738485.0,1
746,2.0,4.0,28.0,15.0,2.0,-2.0,-4.0,-1.0,1651086273753253.0,1
747,-3.0,-6.0,-46.0,-35.0,8.0,5.0,3.0,1.0,1651086273753253.0,1
748,1.0,0.0,-14.0,-7.0,-21.0,-8.0,-6.0,-1.0,1651086273753253.0,1
749,0.0,1.0,10.0,0.0,19.0,13.0,6.0,1.0,1651086273753253.0,1
750,0.0,-3.0,-37.0,-13.0,-1.0,1.0,1.0,0.0,1651086273776347.0,1
751,-4.0,2.0,55.0,24.0,7.0,-4.0,-6.0,-5.0,1651086273776347.0,1
752,2.0,-2.0,-48.0,-34.0,-11.0,-1.0,2.0,2.0,1651086273777236.0,1
753,0.0,3.0,20.0,-1.0,-3.0,-5.0,-2.0,1.0,1651086273777236.0,1
754,-1.0,-1.0,17.0,29.0,-4.0,-8.0,-8.0,-2.0,1651086273790443.0,1
755,3.0,1.0,-3.0,-5.0,7.0,3.0,1.0,3.0,1651086273790443.0,1
756,0.0,3.0,16.0,0.0,-2.0,-1.0,2.0,-1.0,1651086273798420.0,1
757,-4.0,0.0,-16.0,-3.0,-9.0,-7.0,-4.0,0.0,1651086273798420.0,1
758,1.0,-1.0,9.0,26.0,8.0,4.0,3.0,1.0,1651086273821576.0,1
759,1.0,1.0,10.0,-9.0,-1.0,0.0,-5.0,-3.0,1651086273821576.0,1
760,1.0,3.0,-1.0,7.0,4.0,8.0,7.0,2.0,1651086273821576.0,1
761,0.0,-3.0,-11.0,2.0,-1.0,-3.0,0.0,1.0,1651086273821576.0,1
762,-2.0,0.0,-4.0,-16.0,-2.0,-1.0,-3.0,0.0,1651086273836260.0,1
763,-2.0,-3.0,11.0,19.0,4.0,2.0,2.0,1.0,1651086273836260.0,1
764,0.0,2.0,11.0,7.0,-5.0,-2.0,-3.0,-1.0,1651086273837250.0,1
765,0.0,-2.0,-33.0,-20.0,4.0,0.0,-2.0,-1.0,1651086273837250.0,1
766,-4.0,-2.0,18.0,12.0,3.0,2.0,-1.0,-2.0,1651086273850346.0,1
767,1.0,-3.0,-18.0,-11.0,-2.0,-4.0,-2.0,-2.0,1651086273850346.0,1
768,0.0,-4.0,-12.0,-12.0,-2.0,-7.0,-5.0,-1.0,1651086273858434.0,1
769,3.0,3.0,40.0,6.0,-9.0,-3.0,1.0,0.0,1651086273858434.0,1
770,2.0,1.0,-37.0,-20.0,-1.0,2.0,1.0,0.0,1651086273873233.0,1
771,-7.0,-6.0,-4.0,-3.0,2.0,3.0,3.0,-1.0,1651086273873233.0,1
772,-2.0,-4.0,-9.0,-1.0,-8.0,-3.0,-4.0,-2.0,1651086273873233.0,1
773,10.0,6.0,11.0,2.0,1.0,1.0,1.0,3.0,1651086273873233.0,1
774,1.0,1.0,18.0,5.0,3.0,1.0,3.0,-1.0,1651086273911442.0,1
775,1.0,-4.0,4.0,-5.0,-1.0,-1.0,0.0,1.0,1651086273911442.0,1
776,-2.0,1.0,5.0,8.0,-2.0,-4.0,-2.0,2.0,1651086273911442.0,1
777,0.0,-2.0,-10.0,-7.0,1.0,0.0,-2.0,-10.0,1651086273911442.0,1
778,-1.0,1.0,9.0,5.0,2.0,3.0,4.0,4.0,1651086273918425.0,1
779,1.0,1.0,0.0,4.0,0.0,1.0,1.0,2.0,1651086273918425.0,1
780,-6.0,-2.0,14.0,9.0,3.0,-1.0,-3.0,-9.0,1651086273919455.0,1
781,-5.0,-3.0,-2.0,14.0,-9.0,-12.0,-11.0,5.0,1651086273919455.0,1
782,3.0,-4.0,-14.0,-33.0,1.0,4.0,-1.0,-2.0,1651086273933213.0,1
783,1.0,5.0,-3.0,13.0,8.0,8.0,9.0,2.0,1651086273933213.0,1
784,-12.0,-3.0,5.0,10.0,-1.0,6.0,8.0,9.0,1651086273933213.0,1
785,12.0,1.0,-1.0,15.0,1.0,1.0,-2.0,-1.0,1651086273933213.0,1
786,-6.0,-2.0,5.0,3.0,-1.0,-1.0,2.0,5.0,1651086273956608.0,1
787,-3.0,0.0,14.0,1.0,-3.0,-2.0,-6.0,2.0,1651086273956608.0,1
788,8.0,3.0,-26.0,-30.0,-4.0,0.0,1.0,3.0,1651086273956608.0,1
789,-5.0,0.0,10.0,29.0,12.0,1.0,1.0,-3.0,1651086273956608.0,1
790,2.0,1.0,-11.0,-4.0,1.0,-5.0,-3.0,-1.0,1651086273978521.0,1
791,5.0,-1.0,14.0,-6.0,-3.0,1.0,1.0,-3.0,1651086273978521.0,1
792,3.0,0.0,-2.0,-17.0,-6.0,-5.0,0.0,0.0,1651086273979390.0,1
793,-5.0,-6.0,-42.0,-3.0,-5.0,-2.0,-2.0,-5.0,1651086273979390.0,1
794,-2.0,-2.0,-4.0,3.0,0.0,-4.0,-4.0,-1.0,1651086273992599.0,1
795,1.0,5.0,22.0,21.0,8.0,1.0,4.0,15.0,1651086273992599.0,1
796,-4.0,-7.0,-42.0,-34.0,-10.0,-6.0,-12.0,-29.0,1651086273993432.0,1
797,8.0,4.0,21.0,-18.0,-7.0,-2.0,0.0,8.0,1651086273993432.0,1
798,-3.0,-1.0,13.0,31.0,8.0,2.0,0.0,-4.0,1651086274016387.0,1
799,-1.0,1.0,-6.0,0.0,-2.0,-3.0,-5.0,-2.0,1651086274016387.0,1
800,-1.0,-2.0,20.0,7.0,3.0,6.0,6.0,3.0,1651086274017260.0,1
801,-3.0,1.0,4.0,-5.0,-3.0,-1.0,2.0,2.0,1651086274017260.0,1
802,2.0,0.0,6.0,19.0,0.0,-3.0,-2.0,-6.0,1651086274039235.0,1
803,2.0,0.0,5.0,-6.0,-3.0,-1.0,3.0,3.0,1651086274039235.0,1
804,3.0,-2.0,-20.0,-2.0,9.0,3.0,3.0,10.0,1651086274039235.0,1
805,-6.0,1.0,-8.0,-9.0,2.0,6.0,2.0,-9.0,1651086274039235.0,1
806,4.0,1.0,28.0,32.0,13.0,4.0,1.0,3.0,1651086274053200.0,1
807,-7.0,-2.0,-14.0,5.0,2.0,-2.0,-1.0,-8.0,1651086274053200.0,1
808,0.0,0.0,-8.0,-25.0,-3.0,-2.0,-4.0,2.0,1651086274053200.0,1
809,-2.0,-1.0,14.0,9.0,-10.0,-9.0,-5.0,3.0,1651086274053200.0,1
810,10.0,-4.0,-28.0,-52.0,-10.0,-2.0,2.0,6.0,1651086274076280.0,1
811,-9.0,-3.0,-4.0,25.0,-2.0,-3.0,-3.0,-10.0,1651086274076280.0,1
812,4.0,4.0,6.0,0.0,1.0,-3.0,-3.0,-3.0,1651086274077261.0,1
813,-2.0,-7.0,-8.0,-12.0,-4.0,-2.0,-2.0,-2.0,1651086274077261.0,1
814,-9.0,2.0,20.0,12.0,-2.0,-2.0,-2.0,-6.0,1651086274098644.0,1
815,2.0,-3.0,-16.0,-11.0,1.0,-3.0,-4.0,-1.0,1651086274098644.0,1
816,-1.0,-4.0,-3.0,-5.0,-6.0,-1.0,4.0,-2.0,1651086274099117.0,1
817,0.0,0.0,0.0,-1.0,5.0,1.0,2.0,16.0,1651086274099117.0,1
818,-5.0,-2.0,-10.0,-10.0,-4.0,-2.0,0.0,-6.0,1651086274113213.0,1
819,9.0,-5.0,-13.0,-18.0,-4.0,-3.0,-2.0,5.0,1651086274113213.0,1
820,-7.0,-1.0,-2.0,18.0,4.0,-2.0,-5.0,-19.0,1651086274113213.0,1
821,5.0,2.0,-2.0,-20.0,-2.0,3.0,3.0,3.0,1651086274113213.0,1
822,-5.0,-3.0,-20.0,-9.0,-4.0,-1.0,0.0,-1.0,1651086274136432.0,1
823,1.0,4.0,8.0,5.0,-4.0,1.0,0.0,-3.0,1651086274136432.0,1
824,3.0,1.0,5.0,4.0,2.0,3.0,3.0,9.0,1651086274136432.0,1
825,4.0,-7.0,-28.0,-24.0,-10.0,-4.0,1.0,-6.0,1651086274136432.0,1
826,-4.0,1.0,6.0,14.0,8.0,0.0,-1.0,6.0,1651086274159111.0,1
827,-5.0,1.0,25.0,12.0,3.0,2.0,-1.0,-14.0,1651086274159111.0,1
828,1.0,-3.0,-3.0,-3.0,-7.0,-4.0,-2.0,10.0,1651086274159111.0,1
829,5.0,1.0,-2.0,10.0,2.0,0.0,1.0,-17.0,1651086274159111.0,1
830,-7.0,-1.0,11.0,-6.0,-8.0,-3.0,-6.0,7.0,1651086274173396.0,1
831,12.0,1.0,-35.0,-27.0,0.0,1.0,3.0,6.0,1651086274173396.0,1
832,-3.0,-3.0,8.0,12.0,2.0,-4.0,-5.0,1.0,1651086274173396.0,1
833,-4.0,2.0,16.0,22.0,5.0,0.0,-4.0,-5.0,1651086274173396.0,1
834,-4.0,-5.0,-19.0,-32.0,-5.0,0.0,2.0,1.0,1651086274196548.0,1
835,-2.0,1.0,22.0,20.0,1.0,-3.0,-3.0,-6.0,1651086274196548.0,1
836,3.0,3.0,-9.0,-7.0,1.0,2.0,4.0,5.0,1651086274196548.0,1
837,-1.0,1.0,16.0,10.0,-4.0,-4.0,-3.0,0.0,1651086274196548.0,1
838,-6.0,2.0,14.0,18.0,1.0,0.0,-1.0,-2.0,1651086274218346.0,1
839,-5.0,-3.0,-15.0,-24.0,-2.0,2.0,0.0,3.0,1651086274218346.0,1
840,-3.0,-3.0,-16.0,-6.0,-4.0,-2.0,-3.0,-4.0,1651086274219198.0,1
841,-2.0,-1.0,1.0,2.0,2.0,2.0,1.0,5.0,1651086274219198.0,1
842,-1.0,-2.0,12.0,8.0,-2.0,0.0,0.0,-6.0,1651086274232630.0,1
843,1.0,2.0,-12.0,-15.0,-9.0,-1.0,-1.0,2.0,1651086274232630.0,1
844,1.0,-3.0,30.0,34.0,10.0,2.0,1.0,6.0,1651086274233480.0,1
845,2.0,0.0,-23.0,-16.0,1.0,0.0,-3.0,-6.0,1651086274233480.0,1
846,-4.0,-3.0,-6.0,-2.0,-1.0,-1.0,-3.0,-5.0,1651086274255741.0,1
847,2.0,-1.0,12.0,26.0,-2.0,-1.0,3.0,13.0,1651086274255741.0,1
848,1.0,-3.0,-24.0,-27.0,-1.0,2.0,1.0,-1.0,1651086274256593.0,1
849,-6.0,6.0,27.0,16.0,1.0,2.0,1.0,-17.0,1651086274256593.0,1
850,10.0,-1.0,4.0,-1.0,-4.0,-5.0,-6.0,-4.0,1651086274278919.0,1
851,-1.0,-2.0,-6.0,-4.0,4.0,-2.0,-2.0,2.0,1651086274278919.0,1
852,-7.0,-3.0,3.0,10.0,1.0,0.0,0.0,-4.0,1651086274278919.0,1
853,-2.0,1.0,13.0,0.0,-2.0,-1.0,1.0,8.0,1651086274278919.0,1
854,2.0,-2.0,-11.0,-19.0,-6.0,-1.0,1.0,-2.0,1651086274293206.0,1
855,-3.0,0.0,9.0,3.0,-4.0,-3.0,-6.0,-8.0,1651086274293206.0,1
856,6.0,3.0,1.0,3.0,-5.0,0.0,4.0,6.0,1651086274293206.0,1
857,-8.0,-4.0,-9.0,22.0,12.0,1.0,-4.0,0.0,1651086274293206.0,1
858,0.0,2.0,-5.0,-11.0,0.0,2.0,0.0,-3.0,1651086274316447.0,1
859,0.0,2.0,7.0,8.0,7.0,0.0,1.0,3.0,1651086274316447.0,1
860,4.0,-3.0,-21.0,-25.0,-11.0,-4.0,2.0,11.0,1651086274316447.0,1
861,-1.0,-3.0,-5.0,-2.0,-6.0,-2.0,-4.0,-27.0,1651086274316447.0,1
862,-3.0,5.0,8.0,16.0,8.0,1.0,2.0,-1.0,1651086274338430.0,1
863,3.0,-2.0,4.0,-7.0,-3.0,1.0,0.0,-1.0,1651086274338430.0,1
864,-10.0,2.0,24.0,6.0,3.0,1.0,-3.0,-4.0,1651086274339427.0,1
865,0.0,0.0,6.0,9.0,1.0,2.0,1.0,11.0,1651086274339427.0,1
866,0.0,-4.0,4.0,1.0,2.0,-2.0,-1.0,-1.0,1651086274353356.0,1
867,-5.0,0.0,-18.0,-3.0,-7.0,-3.0,0.0,-6.0,1651086274353356.0,1
868,6.0,1.0,-5.0,-8.0,14.0,7.0,4.0,2.0,1651086274353356.0,1
869,-6.0,-2.0,-2.0,-7.0,-4.0,-1.0,0.0,1.0,1651086274353356.0,1
870,-3.0,0.0,15.0,8.0,-1.0,-2.0,-2.0,3.0,1651086274376445.0,1
871,6.0,-5.0,-41.0,-29.0,-5.0,-2.0,-3.0,-8.0,1651086274376445.0,1
872,-4.0,2.0,0.0,-3.0,-9.0,-7.0,-5.0,-13.0,1651086274377508.0,1
873,1.0,2.0,6.0,-2.0,2.0,3.0,4.0,7.0,1651086274377508.0,1
874,5.0,3.0,1.0,-1.0,5.0,4.0,2.0,2.0,1651086274399241.0,1
875,-1.0,1.0,19.0,29.0,4.0,0.0,-1.0,-3.0,1651086274399241.0,1
876,1.0,-4.0,-15.0,-7.0,-5.0,0.0,0.0,1.0,1651086274399241.0,1
877,3.0,1.0,-8.0,-6.0,1.0,-2.0,0.0,1.0,1651086274399241.0,1
878,5.0,-2.0,-10.0,-13.0,-6.0,-2.0,1.0,-1.0,1651086274413236.0,1
879,-5.0,2.0,32.0,3.0,5.0,3.0,-3.0,-3.0,1651086274413236.0,1
880,7.0,0.0,-11.0,3.0,-4.0,-4.0,0.0,9.0,1651086274413236.0,1
881,-13.0,-5.0,-10.0,-11.0,-11.0,-6.0,-4.0,-26.0,1651086274413236.0,1
882,-3.0,-1.0,-1.0,12.0,3.0,2.0,3.0,0.0,1651086274436345.0,1
883,2.0,1.0,14.0,-10.0,5.0,4.0,3.0,18.0,1651086274436345.0,1
884,5.0,1.0,-8.0,-2.0,6.0,1.0,-2.0,-1.0,1651086274437248.0,1
885,3.0,0.0,15.0,18.0,2.0,1.0,0.0,7.0,1651086274437248.0,1
886,-7.0,-2.0,-22.0,-9.0,-3.0,-1.0,1.0,1.0,1651086274457443.0,1
887,-11.0,1.0,-4.0,-7.0,-5.0,-2.0,-3.0,-4.0,1651086274457443.0,1
888,19.0,4.0,41.0,20.0,3.0,3.0,4.0,-3.0,1651086274466377.0,1
889,-5.0,-12.0,-16.0,-12.0,-9.0,-6.0,-7.0,14.0,1651086274466377.0,1
890,1.0,0.0,11.0,12.0,3.0,3.0,2.0,-14.0,1651086274472235.0,1
891,-3.0,-4.0,-13.0,-20.0,-2.0,1.0,2.0,7.0,1651086274472235.0,1
892,-4.0,1.0,18.0,23.0,5.0,0.0,-2.0,-2.0,1651086274480223.0,1
893,3.0,1.0,-13.0,7.0,2.0,-1.0,-1.0,-1.0,1651086274480223.0,1
894,-1.0,6.0,15.0,-6.0,-4.0,1.0,1.0,4.0,1651086274496388.0,1
895,3.0,-5.0,-20.0,-10.0,1.0,-3.0,-3.0,-1.0,1651086274496388.0,1
896,-17.0,-13.0,-21.0,-5.0,-9.0,-5.0,-4.0,-10.0,1651086274497270.0,1
897,6.0,4.0,-1.0,-10.0,-3.0,0.0,0.0,0.0,1651086274497270.0,1
898,-6.0,0.0,-19.0,-1.0,7.0,1.0,1.0,1.0,1651086274518437.0,1
899,9.0,2.0,29.0,9.0,1.0,0.0,-1.0,-6.0,1651086274518437.0,1
900,1.0,0.0,3.0,-9.0,-3.0,-4.0,2.0,17.0,1651086274519438.0,1
901,-5.0,-1.0,-6.0,-6.0,4.0,3.0,-1.0,-26.0,1651086274519438.0,1
902,2.0,0.0,-11.0,-3.0,-5.0,-2.0,1.0,3.0,1651086274533205.0,1
903,-5.0,0.0,14.0,15.0,6.0,-1.0,-1.0,-4.0,1651086274533205.0,1
904,-2.0,-3.0,0.0,9.0,-7.0,-1.0,-4.0,-2.0,1651086274540442.0,1
905,4.0,6.0,4.0,-9.0,-3.0,-1.0,2.0,7.0,1651086274540442.0,1
906,4.0,-7.0,17.0,9.0,4.0,0.0,-4.0,-4.0,1651086274556348.0,1
907,1.0,-2.0,-32.0,-17.0,-5.0,-4.0,1.0,-6.0,1651086274556348.0,1
908,-3.0,1.0,8.0,-3.0,-3.0,-1.0,-5.0,-5.0,1651086274557217.0,1
909,-2.0,2.0,0.0,0.0,0.0,0.0,4.0,12.0,1651086274557217.0,1
910,-4.0,-1.0,3.0,5.0,-8.0,-3.0,-1.0,5.0,1651086274579208.0,1
911,7.0,0.0,-6.0,-8.0,-3.0,-1.0,-1.0,6.0,1651086274579208.0,1
912,-3.0,-7.0,-4.0,2.0,1.0,-3.0,-3.0,-12.0,1651086274579208.0,1
913,-2.0,12.0,-15.0,-8.0,-1.0,0.0,-1.0,3.0,1651086274579208.0,1
914,4.0,-6.0,6.0,11.0,2.0,3.0,1.0,10.0,1651086274592310.0,1
915,0.0,-2.0,-11.0,-6.0,-3.0,1.0,0.0,0.0,1651086274592310.0,1
916,-1.0,6.0,15.0,6.0,6.0,3.0,2.0,-3.0,1651086274601330.0,1
917,3.0,-13.0,3.0,10.0,-4.0,-4.0,-2.0,5.0,1651086274601330.0,1
918,-1.0,-2.0,-27.0,-13.0,0.0,-1.0,-4.0,-6.0,1651086274616298.0,1
919,-3.0,-2.0,-5.0,2.0,-5.0,-3.0,-1.0,0.0,1651086274616298.0,1
920,0.0,4.0,-1.0,2.0,2.0,4.0,3.0,12.0,1651086274617193.0,1
921,0.0,-1.0,12.0,-13.0,1.0,0.0,-1.0,-1.0,1651086274617193.0,1
922,1.0,2.0,-13.0,-18.0,-8.0,-3.0,-4.0,-3.0,1651086274639185.0,1
923,-10.0,-2.0,10.0,19.0,2.0,-3.0,-1.0,-6.0,1651086274639185.0,1
924,5.0,7.0,1.0,8.0,1.0,1.0,0.0,-2.0,1651086274639185.0,1
925,1.0,-4.0,9.0,-3.0,11.0,3.0,3.0,10.0,1651086274639185.0,1
926,4.0,-13.0,-16.0,3.0,-4.0,-5.0,-5.0,-6.0,1651086274652320.0,1
927,-8.0,8.0,29.0,-3.0,-3.0,-2.0,-3.0,2.0,1651086274652320.0,1
928,0.0,-2.0,-30.0,-11.0,2.0,0.0,5.0,-2.0,1651086274661423.0,1
929,-4.0,-1.0,-7.0,-3.0,-3.0,0.0,-3.0,0.0,1651086274661423.0,1
930,7.0,0.0,32.0,18.0,3.0,4.0,4.0,7.0,1651086274676368.0,1
931,0.0,-2.0,-22.0,-16.0,-1.0,2.0,2.0,1.0,1651086274676368.0,1
932,-7.0,2.0,-1.0,1.0,-6.0,-2.0,-5.0,-5.0,1651086274677279.0,1
933,-1.0,-3.0,5.0,-3.0,1.0,-1.0,-1.0,-4.0,1651086274677279.0,1
934,-4.0,4.0,7.0,-6.0,4.0,-1.0,2.0,3.0,1651086274699120.0,1
935,2.0,-3.0,-24.0,12.0,-2.0,0.0,-3.0,-1.0,1651086274699120.0,1
936,-8.0,0.0,16.0,-6.0,4.0,2.0,1.0,-3.0,1651086274699120.0,1
937,-2.0,0.0,-15.0,8.0,3.0,1.0,1.0,-3.0,1651086274699120.0,1
938,-3.0,-7.0,6.0,-4.0,-5.0,0.0,3.0,6.0,1651086274712420.0,1
939,3.0,17.0,-2.0,-1.0,3.0,0.0,-2.0,-13.0,1651086274712420.0,1
940,-1.0,-4.0,-17.0,-27.0,-2.0,-3.0,-4.0,-13.0,1651086274720394.0,1
941,1.0,-1.0,0.0,14.0,1.0,-3.0,-1.0,1.0,1651086274720394.0,1
942,0.0,4.0,-20.0,-20.0,-7.0,0.0,2.0,15.0,1651086274736198.0,1
943,0.0,-1.0,8.0,9.0,3.0,2.0,2.0,-23.0,1651086274736198.0,1
944,-2.0,-9.0,19.0,13.0,0.0,0.0,-4.0,3.0,1651086274737197.0,1
945,7.0,-4.0,11.0,-5.0,2.0,1.0,0.0,6.0,1651086274737197.0,1
946,0.0,11.0,30.0,26.0,3.0,-3.0,-5.0,-10.0,1651086274759066.0,1
947,-3.0,-10.0,-31.0,-33.0,-4.0,0.0,1.0,17.0,1651086274759066.0,1
948,4.0,3.0,6.0,1.0,-3.0,2.0,3.0,-6.0,1651086274760068.0,1
949,-2.0,1.0,2.0,-1.0,5.0,4.0,1.0,7.0,1651086274760068.0,1
950,-2.0,-4.0,9.0,14.0,7.0,1.0,0.0,-12.0,1651086274773129.0,1
951,3.0,3.0,19.0,8.0,-2.0,0.0,-2.0,-1.0,1651086274773129.0,1
952,5.0,-3.0,-54.0,-40.0,-8.0,-3.0,0.0,1.0,1651086274781472.0,1
953,0.0,-1.0,26.0,54.0,-2.0,-3.0,-4.0,-3.0,1651086274781472.0,1
954,-5.0,-8.0,-15.0,-12.0,0.0,0.0,-1.0,-3.0,1651086274795862.0,1
955,4.0,19.0,22.0,1.0,0.0,2.0,5.0,3.0,1651086274795862.0,1
956,-2.0,-6.0,-1.0,-11.0,-7.0,-4.0,-3.0,-3.0,1651086274803412.0,1
957,3.0,0.0,-39.0,-27.0,-3.0,1.0,2.0,5.0,1651086274803412.0,1
958,-4.0,-10.0,16.0,30.0,5.0,-1.0,-3.0,-4.0,1651086274818863.0,1
959,5.0,-2.0,2.0,-2.0,2.0,1.0,2.0,0.0,1651086274818863.0,1
960,-2.0,0.0,-2.0,4.0,0.0,0.0,0.0,6.0,1651086274819865.0,1
961,-1.0,-1.0,18.0,6.0,-3.0,-2.0,0.0,8.0,1651086274819865.0,1
962,-5.0,2.0,-10.0,-34.0,-11.0,-5.0,-9.0,-33.0,1651086274841190.0,1
963,-6.0,-13.0,-40.0,-8.0,-6.0,-4.0,-4.0,-1.0,1651086274841190.0,1
964,3.0,6.0,27.0,19.0,15.0,4.0,0.0,5.0,1651086274842189.0,1
965,-2.0,1.0,17.0,10.0,-6.0,-6.0,-4.0,-5.0,1651086274842189.0,1
966,-3.0,2.0,-22.0,-24.0,-4.0,0.0,1.0,3.0,1651086274855450.0,1
967,6.0,-2.0,7.0,9.0,6.0,5.0,5.0,5.0,1651086274855450.0,1
968,-11.0,-1.0,-1.0,-12.0,-13.0,-11.0,-7.0,-6.0,1651086274862427.0,1
969,6.0,0.0,-4.0,4.0,3.0,5.0,4.0,-5.0,1651086274862427.0,1
970,-3.0,6.0,-12.0,-13.0,-4.0,0.0,3.0,5.0,1651086274879238.0,1
971,3.0,-8.0,-39.0,-19.0,-2.0,-3.0,-7.0,-15.0,1651086274879238.0,1
972,1.0,-2.0,28.0,34.0,4.0,6.0,5.0,4.0,1651086274880269.0,1
973,0.0,1.0,-14.0,-13.0,-6.0,-2.0,2.0,3.0,1651086274880269.0,1
974,0.0,-4.0,29.0,17.0,10.0,1.0,0.0,2.0,1651086274901614.0,1
975,-5.0,3.0,29.0,9.0,-5.0,-6.0,-2.0,1.0,1651086274901614.0,1
976,2.0,-1.0,-46.0,-5.0,5.0,4.0,6.0,2.0,1651086274902450.0,1
977,-9.0,0.0,-13.0,-29.0,-7.0,-4.0,-5.0,-8.0,1651086274902450.0,1
978,3.0,4.0,7.0,15.0,-7.0,1.0,2.0,5.0,1651086274915394.0,1
979,-7.0,-6.0,11.0,15.0,-1.0,-4.0,-2.0,-3.0,1651086274915394.0,1
980,4.0,-1.0,37.0,1.0,4.0,-1.0,-1.0,2.0,1651086274924392.0,1
981,-9.0,-6.0,-9.0,-11.0,-6.0,0.0,3.0,-6.0,1651086274924392.0,1
982,0.0,3.0,-5.0,-15.0,-4.0,-1.0,-2.0,5.0,1651086274939133.0,1
983,0.0,-1.0,3.0,12.0,5.0,5.0,5.0,10.0,1651086274939133.0,1
984,-2.0,6.0,2.0,6.0,-6.0,-5.0,-6.0,-6.0,1651086274940133.0,1
985,2.0,1.0,6.0,-18.0,-10.0,-3.0,3.0,1.0,1651086274940133.0,1
986,1.0,1.0,-21.0,11.0,8.0,3.0,1.0,1.0,1651086274968536.0,1
987,-1.0,-12.0,-6.0,4.0,12.0,4.0,0.0,4.0,1651086274968536.0,1
988,2.0,15.0,1.0,-5.0,5.0,3.0,1.0,-1.0,1651086274970565.0,1
989,-1.0,-15.0,-6.0,8.0,-4.0,-3.0,-4.0,-3.0,1651086274970565.0,1
990,-1.0,5.0,-13.0,-8.0,-5.0,-5.0,-3.0,-2.0,1651086274974555.0,1
991,-2.0,-10.0,26.0,11.0,-8.0,-4.0,-2.0,0.0,1651086274974555.0,1
992,2.0,-15.0,-11.0,1.0,4.0,2.0,0.0,2.0,1651086274983579.0,1
993,-1.0,12.0,8.0,-9.0,-3.0,-3.0,0.0,-1.0,1651086274983579.0,1
994,1.0,-1.0,4.0,10.0,9.0,6.0,1.0,2.0,1651086275006358.0,1
995,-3.0,-3.0,-8.0,-12.0,-3.0,-4.0,-4.0,-3.0,1651086275006358.0,1
996,0.0,1.0,5.0,-3.0,-9.0,-3.0,-3.0,-1.0,1651086275007206.0,1
997,0.0,0.0,0.0,7.0,-3.0,-4.0,-2.0,-1.0,1651086275007206.0,1
998,0.0,-5.0,10.0,3.0,8.0,6.0,2.0,1.0,1651086275021344.0,1
999,0.0,19.0,-19.0,-5.0,8.0,0.0,-1.0,2.0,1651086275021344.0,1
1000,-2.0,-2.0,2.0,1.0,-10.0,-5.0,-3.0,-3.0,1651086275022222.0,1
1001,0.0,7.0,-12.0,8.0,15.0,4.0,2.0,3.0,1651086275022222.0,1
1002,-1.0,-18.0,4.0,-15.0,-14.0,-8.0,-3.0,-2.0,1651086275035228.0,1
1003,1.0,4.0,3.0,-2.0,-7.0,-2.0,-1.0,-1.0,1651086275035228.0,1
1004,-3.0,1.0,0.0,-3.0,-8.0,-5.0,-2.0,-1.0,1651086275042189.0,1
1005,0.0,-3.0,-7.0,-4.0,-3.0,1.0,-1.0,-1.0,1651086275042189.0,1
1006,4.0,16.0,9.0,-1.0,-4.0,-1.0,0.0,0.0,1651086275058200.0,1
1007,-1.0,-13.0,-5.0,0.0,3.0,2.0,1.0,0.0,1651086275058200.0,1
1008,-1.0,7.0,4.0,0.0,1.0,1.0,0.0,-1.0,1651086275060194.0,1
1009,-1.0,4.0,5.0,-6.0,-4.0,-2.0,-1.0,-1.0,1651086275060194.0,1
1010,-1.0,6.0,-4.0,4.0,2.0,2.0,-1.0,-1.0,1651086275081441.0,1
1011,-2.0,-6.0,3.0,1.0,-3.0,-2.0,2.0,3.0,1651086275081441.0,1
1012,1.0,-10.0,-5.0,-5.0,-6.0,-2.0,-3.0,-4.0,1651086275082441.0,1
1013,-1.0,2.0,8.0,-2.0,3.0,3.0,-2.0,0.0,1651086275082441.0,1
1014,-2.0,-13.0,-14.0,7.0,10.0,4.0,3.0,-1.0,1651086275095737.0,1
1015,0.0,6.0,0.0,-9.0,-6.0,-3.0,-2.0,3.0,1651086275095737.0,1
1016,0.0,0.0,8.0,-3.0,-4.0,-3.0,-1.0,-2.0,1651086275103744.0,1
1017,-3.0,-3.0,-6.0,-3.0,0.0,-1.0,0.0,0.0,1651086275103744.0,1
1018,-1.0,-6.0,-10.0,2.0,0.0,0.0,3.0,6.0,1651086275118752.0,1
1019,-1.0,1.0,4.0,7.0,-2.0,-1.0,-3.0,-18.0,1651086275118752.0,1
1020,-3.0,25.0,0.0,1.0,3.0,2.0,5.0,12.0,1651086275119754.0,1
1021,3.0,27.0,18.0,0.0,-8.0,-4.0,2.0,0.0,1651086275119754.0,1
1022,0.0,-45.0,-19.0,-11.0,-9.0,-3.0,-13.0,-20.0,1651086275141442.0,1
1023,-4.0,13.0,23.0,9.0,14.0,7.0,8.0,17.0,1651086275141442.0,1
1024,3.0,-5.0,1.0,3.0,3.0,1.0,2.0,3.0,1651086275142443.0,1
1025,2.0,-7.0,-19.0,1.0,-1.0,2.0,-1.0,-1.0,1651086275142443.0,1
1026,1.0,44.0,21.0,-1.0,-10.0,-7.0,4.0,3.0,1651086275155745.0,1
1027,2.0,-14.0,-16.0,-6.0,-6.0,-3.0,-3.0,-3.0,1651086275155745.0,1
1028,0.0,-4.0,1.0,4.0,5.0,1.0,-3.0,-4.0,1651086275163575.0,1
1029,-1.0,-17.0,-1.0,-1.0,4.0,3.0,4.0,3.0,1651086275163575.0,1
1030,2.0,-7.0,1.0,-1.0,-2.0,-3.0,-1.0,0.0,1651086275178554.0,1
1031,0.0,-1.0,-5.0,-3.0,-2.0,-2.0,-4.0,-3.0,1651086275178554.0,1
1032,2.0,0.0,-1.0,0.0,6.0,3.0,2.0,2.0,1651086275180413.0,1
1033,-1.0,-11.0,2.0,0.0,-2.0,-3.0,-2.0,-2.0,1651086275180413.0,1
1034,-4.0,6.0,-2.0,2.0,1.0,-2.0,1.0,3.0,1651086275201839.0,1
1035,6.0,11.0,2.0,-2.0,-4.0,0.0,-1.0,-2.0,1651086275201839.0,1
1036,-3.0,-15.0,-1.0,0.0,0.0,-1.0,0.0,0.0,1651086275202785.0,1
1037,4.0,-4.0,-6.0,-2.0,-1.0,-2.0,1.0,10.0,1651086275202785.0,1
1038,-3.0,9.0,3.0,1.0,-1.0,-1.0,-2.0,-4.0,1651086275216217.0,1
1039,-1.0,-4.0,-5.0,0.0,2.0,1.0,2.0,2.0,1651086275216217.0,1
1040,0.0,2.0,0.0,2.0,-1.0,1.0,0.0,-8.0,1651086275239212.0,1
1041,0.0,-2.0,2.0,1.0,0.0,0.0,-2.0,14.0,1651086275239212.0,1
1042,0.0,8.0,7.0,0.0,3.0,1.0,3.0,5.0,1651086275240178.0,1
1043,-5.0,-12.0,-9.0,-3.0,-1.0,-2.0,-4.0,-15.0,1651086275240178.0,1
1044,1.0,6.0,-10.0,-7.0,-2.0,-1.0,-1.0,5.0,1651086275241210.0,1
1045,-3.0,-4.0,-1.0,1.0,2.0,-2.0,-1.0,-5.0,1651086275241210.0,1
1046,-2.0,10.0,10.0,9.0,-2.0,1.0,0.0,-3.0,1651086275270210.0,1
1047,8.0,4.0,6.0,-6.0,3.0,0.0,0.0,5.0,1651086275270210.0,1
1048,-5.0,-17.0,-22.0,-11.0,-1.0,-3.0,-2.0,-2.0,1651086275271208.0,1
1049,-1.0,12.0,-8.0,2.0,1.0,0.0,-1.0,-7.0,1651086275271208.0,1
1050,-1.0,-9.0,23.0,14.0,1.0,2.0,-1.0,8.0,1651086275275222.0,1
1051,1.0,5.0,12.0,6.0,-1.0,-1.0,-1.0,0.0,1651086275275222.0,1
1052,-3.0,-3.0,10.0,6.0,1.0,-2.0,-1.0,0.0,1651086275284372.0,1
1053,1.0,-2.0,-11.0,-14.0,1.0,1.0,2.0,-4.0,1651086275284372.0,1
1054,-1.0,-4.0,-17.0,-3.0,0.0,-1.0,1.0,1.0,1651086275299409.0,1
1055,-5.0,-1.0,14.0,4.0,-4.0,-4.0,0.0,2.0,1651086275299409.0,1
1056,0.0,-8.0,-11.0,-6.0,-2.0,-1.0,0.0,-3.0,1651086275300409.0,1
1057,-3.0,2.0,-2.0,0.0,-1.0,1.0,-2.0,-4.0,1651086275300409.0,1
1058,1.0,17.0,9.0,0.0,0.0,-3.0,-1.0,-3.0,1651086275321378.0,1
1059,-4.0,-19.0,-9.0,-3.0,0.0,3.0,0.0,0.0,1651086275321378.0,1
1060,4.0,8.0,1.0,-4.0,-3.0,0.0,-2.0,0.0,1651086275322253.0,1
1061,-4.0,-12.0,5.0,14.0,8.0,2.0,0.0,-1.0,1651086275322253.0,1
1062,7.0,3.0,0.0,-5.0,-3.0,-1.0,-2.0,-1.0,1651086275334709.0,1
1063,-1.0,-4.0,-5.0,-6.0,-12.0,-5.0,-4.0,-17.0,1651086275334709.0,1
1064,-2.0,-8.0,5.0,7.0,8.0,3.0,0.0,4.0,1651086275343515.0,1
1065,0.0,12.0,-2.0,-2.0,1.0,-2.0,-1.0,-1.0,1651086275343515.0,1
1066,-1.0,-17.0,-13.0,-10.0,-2.0,-1.0,-1.0,-5.0,1651086275358971.0,1
1067,-2.0,7.0,2.0,-3.0,-3.0,-1.0,0.0,7.0,1651086275358971.0,1
1068,-1.0,-18.0,0.0,4.0,0.0,-1.0,0.0,-2.0,1651086275359972.0,1
1069,0.0,-3.0,-8.0,-11.0,-12.0,-3.0,1.0,-6.0,1651086275359972.0,1
1070,-1.0,5.0,-1.0,2.0,6.0,3.0,1.0,7.0,1651086275389119.0,1
1071,-1.0,0.0,4.0,14.0,5.0,-1.0,0.0,2.0,1651086275389119.0,1
1072,3.0,3.0,-5.0,-2.0,-4.0,-1.0,0.0,-2.0,1651086275390120.0,1
1073,-4.0,6.0,5.0,0.0,4.0,1.0,0.0,-1.0,1651086275390120.0,1
1074,-1.0,-16.0,-7.0,-8.0,-4.0,0.0,1.0,0.0,1651086275394132.0,1
1075,-2.0,10.0,-3.0,-4.0,-3.0,-3.0,-3.0,2.0,1651086275394132.0,1
1076,1.0,-2.0,4.0,6.0,4.0,2.0,0.0,-3.0,1651086275404082.0,1
1077,0.0,-2.0,1.0,-5.0,-3.0,-1.0,-3.0,-1.0,1651086275404082.0,1
1078,1.0,-14.0,-13.0,-3.0,-1.0,-2.0,0.0,0.0,1651086275418384.0,0
1079,-5.0,11.0,9.0,8.0,8.0,2.0,0.0,-1.0,1651086275418384.0,0
1080,8.0,15.0,6.0,-2.0,-2.0,-2.0,0.0,3.0,1651086275420416.0,0
1081,-2.0,-16.0,6.0,3.0,-2.0,-1.0,0.0,-1.0,1651086275420416.0,0
1082,-2.0,12.0,-3.0,-4.0,-3.0,-2.0,-1.0,-2.0,1651086275441478.0,0
1083,0.0,-15.0,-13.0,-2.0,0.0,0.0,2.0,3.0,1651086275441478.0,0
1084,-3.0,13.0,2.0,-1.0,0.0,-1.0,0.0,-1.0,1651086275442477.0,0
1085,-2.0,-5.0,7.0,3.0,-2.0,0.0,-1.0,-1.0,1651086275442477.0,0
1086,1.0,-1.0,2.0,1.0,-2.0,-1.0,-2.0,-2.0,1651086275455228.0,0
1087,3.0,10.0,-3.0,-8.0,-2.0,-1.0,1.0,-1.0,1651086275455228.0,0
1088,-6.0,1.0,-9.0,4.0,-1.0,-1.0,0.0,-3.0,1651086275464203.0,0
1089,2.0,-15.0,-4.0,-3.0,1.0,-1.0,-3.0,-2.0,1651086275464203.0,0
1090,-3.0,4.0,4.0,1.0,-3.0,-3.0,0.0,0.0,1651086275486326.0,0
1091,-1.0,0.0,-1.0,-4.0,-5.0,0.0,-1.0,0.0,1651086275486326.0,0
1092,-1.0,-9.0,3.0,0.0,6.0,5.0,0.0,-1.0,1651086275487222.0,0
1093,-2.0,7.0,5.0,1.0,3.0,0.0,0.0,-1.0,1651086275487222.0,0
1094,-3.0,-9.0,-9.0,-2.0,1.0,0.0,-1.0,-1.0,1651086275501362.0,0
1095,0.0,0.0,2.0,-1.0,-5.0,-2.0,0.0,-1.0,1651086275501362.0,0
1096,4.0,-5.0,4.0,-5.0,-9.0,-5.0,-1.0,2.0,1651086275502362.0,0
1097,2.0,2.0,-3.0,2.0,3.0,1.0,-1.0,-1.0,1651086275502362.0,0
1098,-1.0,0.0,-16.0,-5.0,2.0,3.0,0.0,-2.0,1651086275523973.0,0
1099,0.0,-7.0,0.0,-1.0,-1.0,1.0,0.0,0.0,1651086275523973.0,0
1100,-3.0,-4.0,-2.0,-2.0,0.0,-2.0,-1.0,0.0,1651086275525823.0,0
1101,0.0,6.0,-2.0,-4.0,-3.0,1.0,-1.0,1.0,1651086275525823.0,0
1102,-2.0,-2.0,6.0,4.0,-2.0,-3.0,-1.0,-3.0,1651086275546205.0,0
1103,3.0,-8.0,-4.0,1.0,2.0,0.0,-1.0,0.0,1651086275546205.0,0
1104,-3.0,2.0,-5.0,-1.0,0.0,0.0,0.0,-1.0,1651086275547234.0,0
1105,0.0,0.0,2.0,-1.0,-2.0,0.0,-2.0,1.0,1651086275547234.0,0
1106,-2.0,8.0,1.0,0.0,2.0,-1.0,-2.0,-4.0,1651086275561441.0,0
1107,-3.0,-12.0,-4.0,0.0,3.0,0.0,0.0,-1.0,1651086275561441.0,0
1108,-2.0,12.0,2.0,-2.0,-1.0,-1.0,-1.0,-1.0,1651086275562442.0,0
1109,-1.0,-5.0,1.0,3.0,0.0,0.0,1.0,0.0,1651086275562442.0,0
1110,1.0,-6.0,1.0,0.0,-2.0,0.0,-1.0,0.0,1651086275575344.0,0
1111,0.0,-3.0,-3.0,-3.0,-3.0,-2.0,0.0,1.0,1651086275575344.0,0
1112,-3.0,6.0,2.0,-1.0,-2.0,0.0,-2.0,-2.0,1651086275583213.0,0
1113,-4.0,-1.0,0.0,5.0,4.0,3.0,0.0,0.0,1651086275583213.0,0
1114,5.0,4.0,-2.0,-1.0,-2.0,-3.0,-1.0,0.0,1651086275606347.0,0
1115,-1.0,2.0,0.0,-2.0,-1.0,-1.0,-2.0,0.0,1651086275606347.0,0
1116,-1.0,-9.0,-2.0,0.0,-4.0,-3.0,0.0,1.0,1651086275607229.0,0
1117,-2.0,2.0,0.0,0.0,-3.0,-2.0,1.0,-3.0,1651086275607229.0,0
1118,-2.0,1.0,6.0,2.0,5.0,3.0,1.0,0.0,1651086275621390.0,0
1119,0.0,-4.0,-7.0,-2.0,-3.0,-2.0,-1.0,0.0,1651086275621390.0,0
1120,4.0,-1.0,5.0,-1.0,-1.0,-2.0,0.0,0.0,1651086275622390.0,0
1121,-1.0,4.0,-2.0,-1.0,1.0,3.0,-2.0,-3.0,1651086275622390.0,0
1122,1.0,-4.0,2.0,-1.0,0.0,-1.0,0.0,1.0,1651086275634683.0,0
1123,0.0,5.0,-2.0,-1.0,2.0,1.0,0.0,1.0,1651086275634683.0,0
1124,-5.0,-5.0,0.0,1.0,0.0,-1.0,-1.0,-3.0,1651086275644242.0,0
1125,-1.0,0.0,9.0,-1.0,-2.0,-1.0,2.0,-1.0,1651086275644242.0,0
1126,-1.0,-1.0,-7.0,1.0,-2.0,0.0,-1.0,0.0,1651086275657391.0,0
1127,0.0,5.0,0.0,0.0,-2.0,0.0,1.0,0.0,1651086275657391.0,0
1128,-1.0,-12.0,-2.0,0.0,2.0,2.0,0.0,-1.0,1651086275666356.0,0
1129,-1.0,7.0,-1.0,-2.0,1.0,-1.0,-3.0,0.0,1651086275666356.0,0
1130,-2.0,1.0,2.0,-2.0,-1.0,0.0,0.0,-1.0,1651086275681420.0,0
1131,1.0,4.0,6.0,1.0,-1.0,-1.0,0.0,-1.0,1651086275681420.0,0
1132,-2.0,-4.0,-1.0,0.0,1.0,-3.0,0.0,-2.0,1651086275682419.0,0
1133,-1.0,-8.0,-1.0,-2.0,-3.0,0.0,0.0,0.0,1651086275682419.0,0
1134,1.0,4.0,-10.0,-3.0,-4.0,-4.0,0.0,0.0,1651086275695011.0,0
1135,-3.0,-6.0,-1.0,2.0,4.0,-1.0,-1.0,0.0,1651086275695011.0,0
1136,-1.0,2.0,0.0,-1.0,0.0,1.0,-1.0,0.0,1651086275704617.0,0
1137,-1.0,-4.0,-8.0,-1.0,0.0,-1.0,-1.0,-1.0,1651086275704617.0,0
1138,-1.0,1.0,4.0,0.0,2.0,2.0,-2.0,-3.0,1651086275718502.0,0
1139,-1.0,-1.0,3.0,-1.0,-3.0,-1.0,-1.0,-1.0,1651086275718502.0,0
1140,-1.0,0.0,-11.0,-3.0,-3.0,-1.0,-1.0,-2.0,1651086275720533.0,0
1141,2.0,3.0,-3.0,-2.0,-4.0,-4.0,-2.0,-2.0,1651086275720533.0,0
1142,-1.0,-11.0,3.0,2.0,-2.0,-1.0,0.0,-1.0,1651086275741458.0,0
1143,-3.0,-1.0,-2.0,-1.0,2.0,1.0,0.0,-1.0,1651086275741458.0,0
1144,0.0,6.0,4.0,2.0,3.0,4.0,-2.0,0.0,1651086275742459.0,0
1145,-3.0,-10.0,-8.0,-2.0,-3.0,-2.0,0.0,0.0,1651086275742459.0,0
1146,-1.0,6.0,-4.0,-2.0,0.0,-1.0,-1.0,0.0,1651086275772065.0,0
1147,1.0,6.0,7.0,0.0,-1.0,-1.0,1.0,1.0,1651086275772065.0,0
1148,0.0,2.0,-3.0,0.0,-3.0,-2.0,-2.0,0.0,1651086275773110.0,0
1149,2.0,-5.0,-2.0,-1.0,-3.0,0.0,-1.0,1.0,1651086275773110.0,0
1150,0.0,-4.0,0.0,-5.0,-5.0,-2.0,-2.0,1.0,1651086275778130.0,0
1151,-2.0,9.0,-13.0,-1.0,0.0,-2.0,-2.0,-1.0,1651086275778130.0,0
1152,1.0,-2.0,5.0,2.0,5.0,1.0,2.0,0.0,1651086275780095.0,0
1153,-2.0,-2.0,-3.0,0.0,1.0,-1.0,0.0,0.0,1651086275780095.0,0
1154,-2.0,-5.0,-3.0,2.0,-1.0,5.0,1.0,0.0,1651086275801529.0,0
1155,1.0,-2.0,2.0,-2.0,-2.0,1.0,-2.0,0.0,1651086275801529.0,0
1156,-1.0,2.0,0.0,0.0,0.0,-1.0,0.0,-1.0,1651086275802459.0,0
1157,1.0,-2.0,0.0,0.0,0.0,0.0,0.0,-2.0,1651086275802459.0,0
1158,0.0,2.0,1.0,-4.0,-4.0,-2.0,-1.0,0.0,1651086275824305.0,0
1159,1.0,-5.0,-3.0,-3.0,-3.0,-1.0,1.0,0.0,1651086275824305.0,0
1160,-1.0,6.0,2.0,1.0,-1.0,-2.0,-2.0,-2.0,1651086275825185.0,0
1161,-2.0,0.0,3.0,4.0,5.0,4.0,1.0,-1.0,1651086275825185.0,0
1162,1.0,3.0,2.0,0.0,1.0,1.0,-2.0,0.0,1651086275839107.0,0
1163,0.0,-3.0,3.0,-1.0,0.0,-3.0,-1.0,-1.0,1651086275839107.0,0
1164,-1.0,-6.0,-9.0,-2.0,-2.0,1.0,-1.0,0.0,1651086275840107.0,0
1165,1.0,2.0,-2.0,-1.0,0.0,1.0,0.0,-1.0,1651086275840107.0,0
1166,1.0,2.0,6.0,2.0,1.0,1.0,0.0,-1.0,1651086275861449.0,0
1167,0.0,-7.0,-8.0,-1.0,-2.0,-1.0,-1.0,0.0,1651086275861449.0,0
1168,0.0,5.0,3.0,-2.0,-1.0,-2.0,1.0,0.0,1651086275862448.0,0
1169,2.0,4.0,-3.0,-4.0,-3.0,-3.0,-1.0,-1.0,1651086275862448.0,0
1170,-1.0,-19.0,-6.0,-1.0,-5.0,-2.0,0.0,-1.0,1651086275884392.0,0
1171,-2.0,17.0,1.0,4.0,8.0,3.0,0.0,-2.0,1651086275884392.0,0
1172,-1.0,-7.0,-5.0,1.0,2.0,2.0,0.0,-1.0,1651086275885232.0,0
1173,0.0,8.0,11.0,1.0,-2.0,-1.0,-2.0,-1.0,1651086275885232.0,0
1174,-1.0,1.0,-2.0,-4.0,-3.0,-2.0,-1.0,0.0,1651086275898569.0,0
1175,1.0,-6.0,-3.0,-3.0,-3.0,-1.0,-2.0,1.0,1651086275898569.0,0
1176,0.0,0.0,1.0,0.0,0.0,1.0,0.0,0.0,1651086275900597.0,0
1177,-1.0,-5.0,-7.0,-2.0,-1.0,-1.0,0.0,-2.0,1651086275900597.0,0
1178,0.0,1.0,0.0,1.0,0.0,-2.0,-1.0,-1.0,1651086275921463.0,0
1179,-1.0,0.0,7.0,2.0,0.0,1.0,1.0,-1.0,1651086275921463.0,0
1180,-3.0,-2.0,-19.0,-2.0,-1.0,-2.0,-1.0,-2.0,1651086275922463.0,0
1181,2.0,5.0,10.0,-3.0,0.0,3.0,-1.0,-1.0,1651086275922463.0,0
1182,-2.0,1.0,0.0,2.0,3.0,1.0,1.0,0.0,1651086275943213.0,0
1183,1.0,-1.0,2.0,-3.0,-3.0,-2.0,0.0,0.0,1651086275943213.0,0
1184,-1.0,-3.0,3.0,-1.0,-2.0,-2.0,0.0,1.0,1651086275945242.0,0
1185,-1.0,-1.0,-4.0,-2.0,-2.0,-3.0,-1.0,-1.0,1651086275945242.0,0
1186,1.0,5.0,-1.0,-2.0,-3.0,-3.0,-1.0,-1.0,1651086275958377.0,0
1187,-2.0,0.0,-1.0,2.0,0.0,-1.0,-1.0,-1.0,1651086275958377.0,0
1188,0.0,-3.0,1.0,-2.0,-3.0,-2.0,-1.0,-1.0,1651086275965178.0,0
1189,-1.0,-5.0,-6.0,1.0,0.0,-2.0,-1.0,1.0,1651086275965178.0,0
1190,0.0,11.0,5.0,4.0,4.0,3.0,0.0,-1.0,1651086275981397.0,0
1191,-1.0,-28.0,-9.0,-2.0,-3.0,-3.0,-1.0,-1.0,1651086275981397.0,0
1192,2.0,24.0,9.0,-1.0,-1.0,0.0,0.0,0.0,1651086275982396.0,0
1193,0.0,-3.0,-2.0,-1.0,-1.0,-1.0,0.0,1.0,1651086275982396.0,0
1194,0.0,0.0,6.0,-2.0,-2.0,-3.0,-1.0,0.0,1651086276003205.0,0
1195,0.0,-1.0,-16.0,-2.0,-1.0,0.0,1.0,0.0,1651086276003205.0,0
1196,-1.0,-6.0,0.0,2.0,2.0,0.0,0.0,0.0,1651086276005167.0,0
1197,1.0,-3.0,4.0,1.0,1.0,1.0,0.0,0.0,1651086276005167.0,0
1198,0.0,1.0,-2.0,0.0,2.0,0.0,-1.0,-1.0,1651086276018374.0,0
1199,-1.0,5.0,1.0,-4.0,-2.0,0.0,0.0,0.0,1651086276018374.0,0
1200,0.0,-8.0,3.0,1.0,0.0,-1.0,-1.0,0.0,1651086276024496.0,0
1201,-2.0,4.0,-6.0,0.0,-1.0,-2.0,0.0,-1.0,1651086276024496.0,0
1202,-1.0,-4.0,-2.0,-1.0,0.0,1.0,-2.0,-1.0,1651086276048501.0,0
1203,3.0,4.0,4.0,-2.0,-1.0,0.0,0.0,0.0,1651086276048501.0,0
1204,-2.0,-5.0,-6.0,1.0,0.0,0.0,-2.0,-2.0,1651086276050530.0,0
1205,-2.0,-3.0,4.0,2.0,0.0,1.0,0.0,-2.0,1651086276050530.0,0
1206,0.0,4.0,-1.0,0.0,1.0,1.0,0.0,1.0,1651086276063199.0,0
1207,-1.0,4.0,-2.0,1.0,2.0,2.0,0.0,1.0,1651086276063199.0,0
1208,0.0,-1.0,0.0,-1.0,-2.0,-1.0,-1.0,-1.0,1651086276069184.0,0
1209,-1.0,-3.0,-2.0,0.0,-2.0,-4.0,-1.0,-2.0,1651086276069184.0,0
1210,0.0,-5.0,-8.0,-4.0,-3.0,-2.0,1.0,-1.0,1651086276078367.0,0
1211,-3.0,0.0,6.0,-2.0,-2.0,-3.0,-2.0,-3.0,1651086276078367.0,0
1212,-1.0,1.0,0.0,3.0,5.0,2.0,0.0,-1.0,1651086276085133.0,0
1213,-2.0,-12.0,-3.0,2.0,3.0,2.0,1.0,0.0,1651086276085133.0,0
1214,1.0,6.0,0.0,-1.0,0.0,-1.0,-1.0,-1.0,1651086276101096.0,0
1215,0.0,6.0,1.0,-2.0,-4.0,-2.0,-2.0,-1.0,1651086276101096.0,0
1216,-1.0,-4.0,0.0,-2.0,-4.0,-4.0,-1.0,1.0,1651086276103096.0,0
1217,0.0,4.0,-4.0,-2.0,1.0,-1.0,0.0,0.0,1651086276103096.0,0
1218,1.0,-3.0,8.0,0.0,-1.0,-1.0,-1.0,1.0,1651086276123229.0,0
1219,-3.0,-17.0,-17.0,-3.0,-2.0,0.0,-2.0,-1.0,1651086276123229.0,0
1220,-1.0,6.0,3.0,-3.0,0.0,0.0,-2.0,-3.0,1651086276131695.0,0
1221,-1.0,4.0,-1.0,-1.0,0.0,1.0,1.0,0.0,1651086276131695.0,0
1222,-2.0,-6.0,-5.0,-1.0,1.0,0.0,0.0,1.0,1651086276138551.0,0
1223,3.0,-1.0,-1.0,-2.0,-5.0,-1.0,-2.0,1.0,1651086276138551.0,0
1224,3.0,9.0,17.0,-2.0,-6.0,-6.0,-1.0,0.0,1651086276145212.0,0
1225,-1.0,-2.0,-23.0,-3.0,3.0,3.0,-1.0,-2.0,1651086276145212.0,0
1226,-3.0,-3.0,3.0,1.0,1.0,-1.0,-1.0,-2.0,1651086276161423.0,0
1227,-2.0,1.0,10.0,4.0,5.0,2.0,2.0,0.0,1651086276161423.0,0
1228,-1.0,-16.0,-12.0,0.0,0.0,0.0,0.0,1.0,1651086276162424.0,0
1229,-1.0,31.0,13.0,-2.0,-5.0,-5.0,-2.0,-1.0,1651086276162424.0,0
1230,0.0,-4.0,-1.0,0.0,-1.0,-1.0,-1.0,-1.0,1651086276183732.0,0
1231,0.0,-5.0,-3.0,0.0,1.0,0.0,0.0,0.0,1651086276183732.0,0
1232,-2.0,-4.0,-12.0,-1.0,-3.0,0.0,-2.0,0.0,1651086276185555.0,0
1233,0.0,-12.0,-1.0,-2.0,-1.0,-1.0,-1.0,-1.0,1651086276185555.0,0
1234,1.0,-1.0,-8.0,-2.0,1.0,1.0,-2.0,0.0,1651086276198605.0,0
1235,-3.0,-3.0,8.0,3.0,3.0,3.0,1.0,0.0,1651086276198605.0,0
1236,-1.0,-4.0,2.0,1.0,2.0,2.0,-1.0,-1.0,1651086276205216.0,0
1237,-1.0,-2.0,-2.0,-1.0,0.0,-2.0,-1.0,1.0,1651086276205216.0,0
1238,1.0,10.0,10.0,-1.0,-1.0,-2.0,-1.0,0.0,1651086276221546.0,0
1239,1.0,0.0,-15.0,-2.0,0.0,1.0,-1.0,-1.0,1651086276221546.0,0
1240,0.0,-6.0,-9.0,-3.0,-3.0,-1.0,-1.0,-1.0,1651086276222546.0,0
1241,-1.0,2.0,6.0,-2.0,-3.0,-1.0,-1.0,0.0,1651086276222546.0,0
1242,-1.0,-5.0,-1.0,0.0,-1.0,-1.0,0.0,-2.0,1651086276244284.0,0
1243,0.0,-6.0,-1.0,0.0,1.0,-1.0,0.0,0.0,1651086276244284.0,0
1244,0.0,12.0,5.0,0.0,2.0,-1.0,1.0,1.0,1651086276245240.0,0
1245,2.0,-8.0,-7.0,-2.0,-4.0,-2.0,-2.0,1.0,1651086276245240.0,0
1246,-4.0,5.0,4.0,1.0,1.0,0.0,0.0,0.0,1651086276257429.0,0
1247,2.0,4.0,4.0,0.0,-2.0,-2.0,0.0,1.0,1651086276257429.0,0
1248,-2.0,-6.0,-3.0,1.0,0.0,-1.0,0.0,-1.0,1651086276266391.0,0
1249,0.0,4.0,7.0,3.0,4.0,2.0,1.0,-1.0,1651086276266391.0,0
1250,-4.0,-10.0,-9.0,-1.0,-1.0,1.0,0.0,0.0,1651086276281459.0,0
1251,-1.0,1.0,0.0,0.0,-1.0,0.0,-1.0,1.0,1651086276281459.0,0
1252,-1.0,-1.0,9.0,-1.0,-3.0,-1.0,-3.0,-3.0,1651086276282459.0,0
1253,0.0,-3.0,-13.0,-4.0,-3.0,-2.0,-1.0,0.0,1651086276282459.0,0
1254,0.0,-3.0,0.0,4.0,3.0,-1.0,-1.0,-1.0,1651086276303327.0,0
1255,-3.0,4.0,3.0,0.0,1.0,0.0,1.0,-2.0,1651086276303327.0,0
1256,1.0,4.0,-7.0,-3.0,1.0,0.0,1.0,-1.0,1651086276305234.0,0
1257,-2.0,0.0,18.0,3.0,-1.0,1.0,-1.0,-3.0,1651086276305234.0,0
1258,1.0,2.0,-6.0,-3.0,-3.0,-1.0,1.0,-1.0,1651086276318419.0,0
1259,0.0,-4.0,7.0,0.0,-1.0,-4.0,0.0,0.0,1651086276318419.0,0
1260,-1.0,6.0,-4.0,-1.0,0.0,0.0,-1.0,1.0,1651086276326380.0,0
1261,0.0,-2.0,-4.0,2.0,3.0,0.0,0.0,2.0,1651086276326380.0,0
1262,1.0,-5.0,0.0,1.0,-2.0,1.0,0.0,0.0,1651086276341420.0,0
1263,-2.0,-10.0,-3.0,-2.0,-2.0,1.0,-2.0,-1.0,1651086276341420.0,0
1264,-2.0,12.0,4.0,0.0,1.0,0.0,0.0,1.0,1651086276342420.0,0
1265,0.0,8.0,7.0,-1.0,-3.0,-4.0,-2.0,-2.0,1651086276342420.0,0
1266,2.0,-2.0,-2.0,-2.0,-3.0,-3.0,-2.0,-4.0,1651086276364419.0,0
1267,-1.0,-3.0,-17.0,0.0,1.0,2.0,1.0,1.0,1651086276364419.0,0
1268,-1.0,-7.0,5.0,5.0,4.0,3.0,1.0,0.0,1651086276365286.0,0
1269,-2.0,-5.0,-3.0,-4.0,-3.0,-1.0,0.0,0.0,1651086276365286.0,0
1270,2.0,7.0,-6.0,-13.0,-13.0,-6.0,-2.0,1.0,1651086276377383.0,0
1271,-2.0,-6.0,4.0,-1.0,-11.0,-4.0,-3.0,0.0,1651086276377383.0,0
1272,1.0,0.0,10.0,25.0,29.0,9.0,4.0,1.0,1651086276392571.0,0
1273,0.0,-2.0,-3.0,0.0,4.0,4.0,-2.0,-1.0,1651086276392571.0,0
1274,0.0,-1.0,3.0,2.0,-1.0,-3.0,0.0,0.0,1651086276408383.0,0
1275,0.0,3.0,3.0,-12.0,-11.0,-4.0,-2.0,-1.0,1651086276408383.0,0
1276,-2.0,-10.0,-3.0,5.0,8.0,2.0,1.0,1.0,1651086276410213.0,0
1277,0.0,15.0,13.0,5.0,5.0,2.0,2.0,-1.0,1651086276410213.0,0
1278,-2.0,-6.0,-12.0,-3.0,0.0,1.0,0.0,1.0,1651086276424375.0,0
1279,0.0,4.0,3.0,-5.0,-1.0,-2.0,0.0,0.0,1651086276424375.0,0
1280,-1.0,-2.0,1.0,-5.0,-6.0,-3.0,0.0,-2.0,1651086276425225.0,0
1281,-1.0,-14.0,0.0,-1.0,-5.0,-2.0,-1.0,0.0,1651086276425225.0,0
1282,1.0,4.0,3.0,8.0,13.0,3.0,-3.0,-1.0,1651086276437701.0,0
1283,-2.0,-1.0,1.0,-2.0,-2.0,-2.0,1.0,-1.0,1651086276437701.0,0
1284,2.0,-3.0,-2.0,-6.0,-5.0,-1.0,-2.0,-1.0,1651086276446201.0,0
1285,-1.0,-5.0,-7.0,-9.0,-8.0,-6.0,-1.0,-1.0,1651086276446201.0,0
1286,-2.0,-1.0,2.0,8.0,-2.0,2.0,1.0,0.0,1651086276461438.0,0
1287,-1.0,-19.0,-4.0,-5.0,-14.0,-5.0,-4.0,-2.0,1651086276461438.0,0
1288,0.0,28.0,7.0,-1.0,6.0,-4.0,-1.0,0.0,1651086276462441.0,0
1289,3.0,12.0,-6.0,14.0,15.0,11.0,2.0,2.0,1651086276462441.0,0
1290,-3.0,-6.0,-2.0,-4.0,-5.0,-1.0,-1.0,-1.0,1651086276483218.0,0
1291,0.0,6.0,5.0,-5.0,5.0,0.0,-1.0,0.0,1651086276483218.0,0
1292,-1.0,-15.0,17.0,5.0,-26.0,-8.0,-1.0,0.0,1651086276485230.0,0
1293,-3.0,-6.0,-2.0,-2.0,4.0,-2.0,-2.0,0.0,1651086276485230.0,0
1294,2.0,7.0,-2.0,3.0,10.0,1.0,1.0,1.0,1651086276506348.0,0
1295,0.0,3.0,-3.0,-1.0,9.0,1.0,-3.0,0.0,1651086276506348.0,0
1296,-1.0,-13.0,-16.0,-17.0,-22.0,-8.0,-3.0,-1.0,1651086276507228.0,0
1297,-3.0,13.0,3.0,0.0,-2.0,0.0,-1.0,-2.0,1651086276507228.0,0
1298,-1.0,-20.0,-5.0,-7.0,-2.0,-5.0,-1.0,0.0,1651086276521433.0,0
1299,-2.0,22.0,1.0,-12.0,-6.0,-1.0,0.0,-1.0,1651086276521433.0,0
1300,0.0,3.0,5.0,10.0,13.0,3.0,1.0,-1.0,1651086276522433.0,0
1301,0.0,5.0,5.0,5.0,-2.0,-1.0,2.0,0.0,1651086276522433.0,0
1302,-2.0,-10.0,-23.0,-17.0,-17.0,-7.0,-3.0,-1.0,1651086276543534.0,0
1303,0.0,14.0,16.0,-6.0,-10.0,-3.0,-1.0,0.0,1651086276543534.0,0
1304,-1.0,-14.0,-10.0,23.0,60.0,25.0,5.0,3.0,1651086276545415.0,0
1305,-1.0,-11.0,-12.0,-21.0,-35.0,-11.0,-3.0,-2.0,1651086276545415.0,0
1306,-2.0,13.0,8.0,14.0,9.0,0.0,-3.0,0.0,1651086276556949.0,0
1307,-1.0,-13.0,6.0,5.0,3.0,2.0,1.0,0.0,1651086276556949.0,0
1308,0.0,9.0,-8.0,-17.0,-18.0,-2.0,-2.0,1.0,1651086276566754.0,0
1309,1.0,-15.0,0.0,5.0,13.0,0.0,-1.0,0.0,1651086276566754.0,0
1310,-1.0,-3.0,1.0,-4.0,-9.0,-4.0,1.0,-1.0,1651086276581571.0,0
1311,1.0,6.0,2.0,3.0,-2.0,-1.0,1.0,1.0,1651086276581571.0,0
1312,0.0,0.0,1.0,6.0,18.0,5.0,1.0,0.0,1651086276582571.0,0
1313,0.0,-3.0,2.0,1.0,-8.0,-3.0,-1.0,0.0,1651086276582571.0,0
1314,0.0,2.0,7.0,-6.0,-6.0,0.0,-3.0,0.0,1651086276604344.0,0
1315,0.0,-19.0,-12.0,-7.0,-2.0,-3.0,-1.0,0.0,1651086276604344.0,0
1316,1.0,33.0,-1.0,-1.0,-14.0,-4.0,-1.0,0.0,1651086276605231.0,0
1317,-2.0,-1.0,2.0,-17.0,-14.0,-7.0,-3.0,-2.0,1651086276605231.0,0
1318,1.0,8.0,14.0,38.0,48.0,21.0,5.0,2.0,1651086276626336.0,0
1319,-1.0,-6.0,-10.0,10.0,9.0,-1.0,-2.0,-1.0,1651086276626336.0,2
1320,-2.0,-18.0,-17.0,-40.0,-48.0,-19.0,-5.0,-4.0,1651086276627201.0,2
1321,1.0,3.0,19.0,39.0,39.0,14.0,4.0,4.0,1651086276627201.0,2
1322,1.0,-2.0,15.0,-3.0,-3.0,3.0,1.0,-2.0,1651086276641244.0,2
1323,-1.0,-2.0,-42.0,-17.0,-7.0,-2.0,-5.0,-1.0,1651086276641244.0,2
1324,1.0,3.0,2.0,-8.0,-11.0,-4.0,-4.0,1.0,1651086276642242.0,2
1325,-3.0,1.0,9.0,-4.0,-24.0,-7.0,-2.0,-5.0,1651086276642242.0,2
1326,-3.0,-8.0,3.0,16.0,18.0,4.0,1.0,0.0,1651086276665396.0,2
1327,0.0,3.0,7.0,11.0,9.0,2.0,2.0,0.0,1651086276665396.0,2
1328,-1.0,-5.0,-8.0,-10.0,-21.0,-13.0,-6.0,-1.0,1651086276666225.0,2
1329,0.0,-2.0,9.0,12.0,23.0,10.0,1.0,0.0,1651086276666225.0,2
1330,-1.0,0.0,-22.0,-14.0,-9.0,-3.0,-2.0,-1.0,1651086276687102.0,2
1331,-2.0,7.0,12.0,3.0,-11.0,-2.0,1.0,-2.0,1651086276687102.0,2
1332,0.0,-4.0,-6.0,13.0,29.0,12.0,4.0,-1.0,1651086276688102.0,2
1333,-2.0,-5.0,-6.0,-15.0,-15.0,-6.0,-4.0,-5.0,1651086276688102.0,2
1334,-1.0,0.0,-6.0,-2.0,-10.0,-8.0,-3.0,-2.0,1651086276701297.0,2
1335,2.0,3.0,1.0,-12.0,-5.0,1.0,2.0,0.0,1651086276701297.0,2
1336,-1.0,-6.0,2.0,4.0,-5.0,-2.0,0.0,-2.0,1651086276702297.0,2
1337,-1.0,-1.0,9.0,9.0,5.0,-2.0,-1.0,-1.0,1651086276702297.0,2
1338,-2.0,0.0,-7.0,-8.0,5.0,6.0,2.0,1.0,1651086276724400.0,2
1339,-1.0,-2.0,4.0,1.0,9.0,0.0,-1.0,0.0,1651086276724400.0,2
1340,2.0,6.0,24.0,19.0,33.0,13.0,5.0,1.0,1651086276725246.0,2
1341,1.0,1.0,-32.0,-24.0,-21.0,-9.0,-4.0,-4.0,1651086276725246.0,2
1342,-1.0,4.0,11.0,-18.0,-16.0,-6.0,-1.0,0.0,1651086276746351.0,2
1343,-1.0,0.0,-3.0,28.0,5.0,-3.0,-1.0,-1.0,1651086276746351.0,2
1344,-3.0,-9.0,15.0,-17.0,-13.0,-6.0,-3.0,-1.0,1651086276747248.0,2
1345,1.0,-6.0,-37.0,-4.0,14.0,4.0,1.0,0.0,1651086276747248.0,2
1346,-2.0,-1.0,8.0,4.0,-7.0,-4.0,-2.0,-3.0,1651086276761224.0,2
1347,0.0,3.0,-17.0,-14.0,7.0,5.0,0.0,-1.0,1651086276761224.0,2
1348,1.0,-8.0,-16.0,-23.0,-13.0,-6.0,-3.0,-1.0,1651086276762282.0,2
1349,-2.0,0.0,42.0,30.0,-6.0,-4.0,-3.0,-3.0,1651086276762282.0,2
1350,0.0,-4.0,-4.0,-15.0,6.0,3.0,1.0,-1.0,1651086276784285.0,2
1351,3.0,4.0,-12.0,-1.0,-1.0,2.0,-1.0,2.0,1651086276784285.0,2
1352,-3.0,-3.0,18.0,20.0,-4.0,-1.0,0.0,-2.0,1651086276785219.0,2
1353,2.0,-1.0,-3.0,-15.0,-2.0,2.0,-1.0,2.0,1651086276785219.0,2
1354,-2.0,0.0,9.0,23.0,0.0,1.0,1.0,-3.0,1651086276813849.0,2
1355,-1.0,-3.0,-26.0,-21.0,-8.0,-4.0,-3.0,-1.0,1651086276813849.0,2
1356,0.0,0.0,-4.0,14.0,-1.0,-1.0,-1.0,-1.0,1651086276814746.0,2
1357,-1.0,-2.0,2.0,-4.0,1.0,0.0,0.0,0.0,1651086276814746.0,2
1358,0.0,1.0,13.0,5.0,-5.0,-1.0,1.0,-1.0,1651086276820710.0,2
1359,-2.0,-1.0,5.0,-10.0,-5.0,-2.0,0.0,-2.0,1651086276820710.0,2
1360,0.0,-4.0,-20.0,-9.0,-2.0,-1.0,-1.0,1.0,1651086276827677.0,2
1361,-1.0,-1.0,8.0,14.0,6.0,2.0,2.0,1.0,1651086276827677.0,2
1362,-1.0,-1.0,-8.0,-7.0,-13.0,-4.0,-5.0,-2.0,1651086276843698.0,2
1363,-1.0,1.0,15.0,10.0,12.0,3.0,1.0,0.0,1651086276843698.0,2
1364,-2.0,-1.0,-15.0,-26.0,-16.0,-5.0,-3.0,-3.0,1651086276844668.0,2
1365,3.0,-1.0,6.0,12.0,13.0,4.0,2.0,1.0,1651086276844668.0,2
1366,-6.0,-1.0,-11.0,-4.0,-3.0,-3.0,-2.0,-2.0,1651086276873222.0,2
1367,-1.0,-1.0,5.0,2.0,-6.0,-7.0,-3.0,-2.0,1651086276873222.0,2
1368,-5.0,0.0,-1.0,1.0,5.0,3.0,-1.0,-3.0,1651086276880170.0,2
1369,1.0,-1.0,-10.0,-5.0,-1.0,-1.0,1.0,0.0,1651086276880170.0,2
1370,3.0,-1.0,-21.0,-12.0,-3.0,-1.0,0.0,0.0,1651086276881024.0,2
1371,1.0,3.0,30.0,25.0,4.0,1.0,2.0,1.0,1651086276881024.0,2
1372,-2.0,0.0,6.0,-3.0,-7.0,-2.0,-3.0,-2.0,1651086276889031.0,2
1373,-2.0,-1.0,0.0,6.0,-2.0,-1.0,-2.0,-1.0,1651086276889031.0,2
1374,2.0,-3.0,-29.0,-39.0,-2.0,-1.0,3.0,2.0,1651086276903343.0,2
1375,-4.0,-5.0,-4.0,35.0,7.0,2.0,-2.0,-2.0,1651086276903343.0,2
1376,-3.0,-5.0,2.0,-3.0,-3.0,-3.0,-3.0,-4.0,1651086276905197.0,2
1377,3.0,2.0,-9.0,-8.0,-1.0,1.0,1.0,3.0,1651086276905197.0,2
1378,2.0,3.0,3.0,-2.0,-1.0,-3.0,-4.0,-1.0,1651086276927138.0,2
1379,1.0,2.0,16.0,17.0,2.0,3.0,1.0,-1.0,1651086276927138.0,2
1380,-1.0,0.0,-1.0,3.0,6.0,3.0,2.0,0.0,1651086276928001.0,2
1381,-4.0,-1.0,-3.0,-3.0,-2.0,0.0,1.0,1.0,1651086276928001.0,2
1382,7.0,-1.0,-7.0,12.0,0.0,3.0,5.0,17.0,1651086276940104.0,2
1383,-7.0,1.0,15.0,4.0,-1.0,-2.0,-5.0,-30.0,1651086276940104.0,2
1384,-6.0,-2.0,9.0,9.0,5.0,-4.0,-2.0,-4.0,1651086276948944.0,2
1385,2.0,-1.0,-33.0,-35.0,-5.0,1.0,-1.0,-1.0,1651086276948944.0,2
1386,4.0,0.0,47.0,30.0,2.0,0.0,2.0,-2.0,1651086276964339.0,2
1387,3.0,-5.0,-39.0,-16.0,-3.0,-1.0,-4.0,8.0,1651086276964339.0,2
1388,-4.0,0.0,-15.0,7.0,1.0,0.0,3.0,11.0,1651086276965222.0,2
1389,-4.0,-2.0,7.0,-16.0,-5.0,0.0,0.0,-4.0,1651086276965222.0,2
1390,-4.0,0.0,12.0,15.0,0.0,-3.0,-2.0,-1.0,1651086276986325.0,2
1391,2.0,4.0,23.0,1.0,7.0,5.0,3.0,5.0,1651086276986325.0,2
1392,4.0,-1.0,-13.0,-15.0,-8.0,-2.0,-1.0,-2.0,1651086276987228.0,2
1393,1.0,-6.0,-27.0,3.0,-3.0,-1.0,0.0,5.0,1651086276987228.0,2
1394,-8.0,0.0,4.0,4.0,-1.0,-3.0,-4.0,-2.0,1651086277000235.0,2
1395,5.0,2.0,5.0,-14.0,2.0,0.0,2.0,0.0,1651086277000235.0,2
1396,1.0,0.0,15.0,19.0,4.0,1.0,-1.0,-3.0,1651086277008432.0,2
1397,-5.0,-3.0,-14.0,-5.0,1.0,1.0,3.0,-5.0,1651086277008432.0,2
1398,-4.0,1.0,13.0,-6.0,-8.0,-4.0,-6.0,-1.0,1651086277024076.0,2
1399,3.0,1.0,5.0,6.0,3.0,1.0,-1.0,3.0,1651086277024076.0,2
1400,3.0,0.0,-12.0,-14.0,-5.0,-4.0,0.0,0.0,1651086277025014.0,2
1401,-3.0,0.0,26.0,16.0,8.0,3.0,-1.0,-3.0,1651086277025014.0,2
1402,3.0,0.0,-2.0,-5.0,1.0,1.0,0.0,4.0,1651086277046314.0,2
1403,-3.0,-2.0,9.0,11.0,1.0,0.0,-1.0,7.0,1651086277046314.0,2
1404,1.0,-2.0,-39.0,-10.0,-7.0,0.0,-1.0,-9.0,1651086277047216.0,2
1405,0.0,-1.0,8.0,-10.0,-5.0,-3.0,-1.0,9.0,1651086277047216.0,2
1406,8.0,4.0,-1.0,-1.0,-2.0,-2.0,-2.0,-5.0,1651086277060191.0,2
1407,-3.0,-5.0,-1.0,-16.0,3.0,2.0,2.0,-2.0,1651086277060191.0,2
1408,-1.0,2.0,9.0,9.0,2.0,3.0,3.0,8.0,1651086277068349.0,2
1409,10.0,1.0,19.0,6.0,-1.0,-3.0,-5.0,4.0,1651086277068349.0,2
1410,0.0,0.0,-16.0,9.0,5.0,1.0,-1.0,-15.0,1651086277084287.0,2
1411,-8.0,-2.0,-10.0,-7.0,-7.0,-1.0,0.0,-1.0,1651086277084287.0,2
1412,5.0,1.0,12.0,-7.0,-1.0,-1.0,-1.0,2.0,1651086277085204.0,2
1413,1.0,2.0,-6.0,-3.0,-6.0,-7.0,-4.0,-5.0,1651086277085204.0,2
1414,1.0,-4.0,6.0,-3.0,0.0,2.0,1.0,0.0,1651086277106296.0,2
1415,-2.0,-5.0,-21.0,-4.0,1.0,-4.0,-3.0,1.0,1651086277106296.0,2
1416,-4.0,0.0,6.0,5.0,3.0,2.0,0.0,3.0,1651086277107177.0,2
1417,-1.0,1.0,12.0,9.0,1.0,1.0,-1.0,-7.0,1651086277107177.0,2
1418,-5.0,-8.0,-35.0,-17.0,-5.0,0.0,3.0,0.0,1651086277121156.0,2
1419,4.0,2.0,2.0,7.0,-2.0,-2.0,0.0,-2.0,1651086277121156.0,2
1420,1.0,0.0,-7.0,-20.0,-8.0,-1.0,-1.0,2.0,1651086277128240.0,2
1421,-3.0,-2.0,-7.0,-2.0,6.0,-1.0,-3.0,3.0,1651086277128240.0,2
1422,0.0,1.0,-2.0,9.0,5.0,0.0,-1.0,-1.0,1651086277144407.0,2
1423,1.0,-1.0,12.0,3.0,-2.0,0.0,1.0,0.0,1651086277144407.0,2
1424,-7.0,-2.0,-15.0,-4.0,-3.0,-2.0,-2.0,-5.0,1651086277145239.0,2
1425,9.0,4.0,19.0,-2.0,1.0,0.0,2.0,5.0,1651086277145239.0,2
1426,-3.0,-1.0,-15.0,3.0,-2.0,-1.0,-1.0,2.0,1651086277166218.0,2
1427,-1.0,1.0,-4.0,-16.0,2.0,1.0,0.0,-11.0,1651086277166218.0,2
1428,-2.0,-1.0,19.0,8.0,7.0,0.0,-1.0,1.0,1651086277168081.0,2
1429,-1.0,1.0,-3.0,18.0,3.0,2.0,0.0,-2.0,1651086277168081.0,2
1430,-5.0,-5.0,-3.0,-23.0,-9.0,-3.0,0.0,-8.0,1651086277181229.0,2
1431,4.0,3.0,5.0,17.0,-4.0,-2.0,-2.0,8.0,1651086277181229.0,2
1432,2.0,-1.0,2.0,-4.0,-4.0,0.0,2.0,0.0,1651086277189074.0,2
1433,-8.0,-1.0,-6.0,1.0,0.0,0.0,-3.0,-5.0,1651086277189074.0,2
1434,6.0,-2.0,17.0,0.0,5.0,2.0,3.0,4.0,1651086277204375.0,2
1435,-11.0,-1.0,5.0,1.0,-3.0,-1.0,-1.0,4.0,1651086277204375.0,2
1436,-7.0,0.0,7.0,14.0,1.0,-2.0,-5.0,-16.0,1651086277205258.0,2
1437,1.0,0.0,-20.0,-14.0,-8.0,-3.0,0.0,-4.0,1651086277205258.0,2
1438,-4.0,-2.0,-23.0,-14.0,-2.0,0.0,-2.0,-2.0,1651086277226345.0,2
1439,5.0,0.0,-7.0,-6.0,0.0,0.0,-1.0,4.0,1651086277226345.0,2
1440,-2.0,-2.0,19.0,12.0,1.0,-1.0,-1.0,2.0,1651086277227230.0,2
1441,-2.0,1.0,8.0,-11.0,-3.0,-2.0,0.0,4.0,1651086277227230.0,2
1442,-1.0,0.0,21.0,30.0,0.0,-1.0,0.0,-2.0,1651086277239229.0,2
1443,-2.0,-3.0,-22.0,-17.0,1.0,0.0,-1.0,-3.0,1651086277239229.0,2
1444,0.0,3.0,16.0,7.0,-4.0,-1.0,3.0,4.0,1651086277249261.0,2
1445,6.0,-6.0,-9.0,-7.0,-3.0,-1.0,-1.0,-2.0,1651086277249261.0,2
1446,-4.0,1.0,-7.0,7.0,2.0,0.0,-3.0,0.0,1651086277264307.0,2
1447,1.0,0.0,8.0,-3.0,0.0,3.0,3.0,1.0,1651086277264307.0,2
1448,2.0,0.0,1.0,5.0,4.0,0.0,3.0,18.0,1651086277270229.0,2
1449,2.0,-2.0,-22.0,-12.0,-7.0,1.0,-3.0,-18.0,1651086277270229.0,2
1450,-4.0,0.0,23.0,6.0,3.0,1.0,-1.0,-1.0,1651086277286053.0,2
1451,-6.0,-2.0,-22.0,5.0,-1.0,-1.0,0.0,-1.0,1651086277286053.0,2
1452,3.0,0.0,-16.0,-25.0,-2.0,1.0,-1.0,5.0,1651086277288079.0,2
1453,-5.0,1.0,27.0,24.0,-4.0,-3.0,0.0,6.0,1651086277288079.0,2
1454,-2.0,2.0,-15.0,4.0,12.0,4.0,1.0,-10.0,1651086277300242.0,2
1455,8.0,1.0,7.0,-10.0,0.0,1.0,1.0,0.0,1651086277300242.0,2
1456,1.0,-3.0,-1.0,7.0,2.0,0.0,-2.0,-7.0,1651086277309071.0,2
1457,-3.0,-4.0,-16.0,-3.0,1.0,-1.0,1.0,-3.0,1651086277309071.0,2
1458,0.0,0.0,5.0,-2.0,0.0,-1.0,-5.0,4.0,1651086277323215.0,2
1459,1.0,0.0,-13.0,-7.0,-5.0,0.0,3.0,6.0,1651086277323215.0,2
1460,6.0,0.0,30.0,19.0,1.0,-1.0,-3.0,-8.0,1651086277325244.0,2
1461,-1.0,2.0,-18.0,-9.0,1.0,-2.0,-1.0,4.0,1651086277325244.0,2
1462,-3.0,-2.0,-11.0,-10.0,-4.0,-3.0,-2.0,1.0,1651086277346383.0,2
1463,4.0,-2.0,-7.0,-14.0,-6.0,-2.0,0.0,2.0,1651086277346383.0,2
1464,-1.0,-2.0,1.0,3.0,6.0,-3.0,-4.0,0.0,1651086277347255.0,2
1465,-3.0,-6.0,-10.0,11.0,4.0,4.0,1.0,2.0,1651086277347255.0,2
1466,-3.0,-3.0,4.0,-22.0,-7.0,-1.0,1.0,-3.0,1651086277360711.0,2
1467,-5.0,-1.0,10.0,18.0,-4.0,-5.0,-3.0,-1.0,1651086277360711.0,2
1468,-1.0,-1.0,8.0,-3.0,-4.0,-1.0,1.0,-4.0,1651086277368353.0,2
1469,0.0,1.0,3.0,17.0,4.0,1.0,-1.0,2.0,1651086277368353.0,2
1470,-1.0,2.0,-5.0,-8.0,0.0,1.0,-2.0,2.0,1651086277384300.0,2
1471,-4.0,-3.0,2.0,-2.0,2.0,0.0,-1.0,-4.0,1651086277384300.0,2
1472,2.0,0.0,3.0,0.0,-4.0,-2.0,-1.0,2.0,1651086277385222.0,2
1473,-12.0,3.0,-6.0,-9.0,3.0,0.0,-2.0,-1.0,1651086277385222.0,2
1474,11.0,1.0,23.0,13.0,-2.0,1.0,5.0,16.0,1651086277407348.0,2
1475,-4.0,-2.0,-11.0,0.0,2.0,-1.0,-5.0,-16.0,1651086277407348.0,2
1476,5.0,-1.0,-18.0,-6.0,-1.0,0.0,0.0,-1.0,1651086277409202.0,2
1477,-4.0,0.0,14.0,-9.0,-3.0,0.0,2.0,0.0,1651086277409202.0,2
1478,4.0,-3.0,-3.0,6.0,-3.0,-1.0,2.0,7.0,1651086277419176.0,2
1479,2.0,-1.0,34.0,27.0,0.0,-2.0,-4.0,-3.0,1651086277419176.0,2
1480,-8.0,-1.0,-55.0,-23.0,-1.0,-1.0,-2.0,2.0,1651086277429070.0,2
1481,4.0,1.0,6.0,4.0,3.0,4.0,1.0,-12.0,1651086277429070.0,2
1482,-12.0,-1.0,5.0,3.0,-4.0,-2.0,-1.0,-5.0,1651086277444297.0,2
1483,-1.0,-3.0,1.0,-15.0,7.0,1.0,1.0,2.0,1651086277444297.0,2
1484,2.0,4.0,13.0,10.0,0.0,0.0,-1.0,-14.0,1651086277445245.0,2
1485,1.0,0.0,-8.0,-9.0,-2.0,0.0,-3.0,7.0,1651086277445245.0,2
1486,0.0,-5.0,-24.0,-16.0,-9.0,-4.0,-2.0,-4.0,1651086277466197.0,2
1487,-1.0,0.0,19.0,10.0,5.0,4.0,1.0,-2.0,1651086277466197.0,2
1488,-3.0,-2.0,-9.0,-5.0,-5.0,0.0,2.0,4.0,1651086277467184.0,2
1489,-2.0,-6.0,-2.0,-11.0,3.0,0.0,-2.0,-2.0,1651086277467184.0,2
1490,2.0,4.0,12.0,13.0,0.0,-1.0,-2.0,-4.0,1651086277480407.0,2
1491,-1.0,0.0,-3.0,-1.0,0.0,1.0,1.0,7.0,1651086277480407.0,2
1492,0.0,-4.0,-8.0,-6.0,0.0,-1.0,-2.0,-1.0,1651086277489069.0,2
1493,-5.0,2.0,9.0,8.0,-3.0,0.0,0.0,-2.0,1651086277489069.0,2
1494,2.0,-2.0,10.0,2.0,1.0,-2.0,-2.0,-6.0,1651086277504386.0,2
1495,3.0,-2.0,-25.0,-15.0,-1.0,2.0,-1.0,3.0,1651086277504386.0,2
1496,-13.0,-4.0,18.0,19.0,4.0,2.0,0.0,0.0,1651086277505222.0,2
1497,9.0,-2.0,-2.0,-2.0,-6.0,-6.0,-3.0,3.0,1651086277505222.0,2
1498,-5.0,-2.0,-28.0,-15.0,0.0,-1.0,-1.0,-5.0,1651086277526209.0,2
1499,7.0,3.0,2.0,-12.0,-6.0,-2.0,4.0,15.0,1651086277526209.0,2
1500,-3.0,3.0,5.0,7.0,2.0,0.0,-4.0,-12.0,1651086277527165.0,2
1501,-2.0,-2.0,2.0,9.0,2.0,2.0,2.0,5.0,1651086277527165.0,2
1502,0.0,-2.0,0.0,-14.0,10.0,1.0,-1.0,-3.0,1651086277540409.0,2
1503,-5.0,-1.0,15.0,16.0,-3.0,-4.0,0.0,4.0,1651086277540409.0,2
1504,1.0,2.0,-10.0,-7.0,-4.0,-1.0,1.0,4.0,1651086277549108.0,2
1505,4.0,1.0,7.0,4.0,1.0,1.0,2.0,1.0,1651086277549108.0,2
1506,1.0,2.0,-1.0,10.0,4.0,4.0,2.0,1.0,1651086277564257.0,2
1507,-3.0,2.0,2.0,1.0,-3.0,-2.0,-2.0,3.0,1651086277564257.0,2
1508,-2.0,-5.0,9.0,-3.0,2.0,0.0,-3.0,-13.0,1651086277565223.0,2
1509,-9.0,0.0,6.0,-4.0,-4.0,1.0,0.0,-2.0,1651086277565223.0,2
1510,-2.0,1.0,-3.0,7.0,0.0,-1.0,1.0,1.0,1651086277586361.0,2
1511,1.0,0.0,7.0,1.0,-1.0,-2.0,0.0,-4.0,1651086277586361.0,2
1512,1.0,-2.0,-2.0,-5.0,-1.0,-2.0,-1.0,3.0,1651086277587257.0,2
1513,0.0,3.0,7.0,0.0,1.0,0.0,1.0,5.0,1651086277587257.0,2
1514,1.0,-2.0,9.0,10.0,4.0,1.0,-2.0,-2.0,1651086277600407.0,2
1515,-4.0,1.0,-11.0,-13.0,-5.0,-4.0,-2.0,1.0,1651086277600407.0,2
1516,11.0,1.0,-12.0,4.0,4.0,0.0,1.0,4.0,1651086277608392.0,2
1517,-7.0,-8.0,-25.0,-16.0,2.0,-1.0,0.0,-6.0,1651086277608392.0,2
1518,-5.0,3.0,33.0,16.0,-5.0,-1.0,1.0,2.0,1651086277624391.0,2
1519,5.0,-1.0,-37.0,-23.0,-6.0,0.0,-2.0,-7.0,1651086277624391.0,2
1520,0.0,2.0,25.0,29.0,6.0,2.0,0.0,2.0,1651086277625267.0,2
1521,2.0,2.0,-10.0,-24.0,-12.0,-7.0,1.0,12.0,1651086277625267.0,2
1522,-8.0,-9.0,-13.0,-3.0,-2.0,-2.0,-5.0,-35.0,1651086277647375.0,2
1523,5.0,-2.0,-9.0,-19.0,0.0,2.0,0.0,-3.0,1651086277647375.0,2
1524,3.0,2.0,39.0,36.0,2.0,0.0,1.0,7.0,1651086277649242.0,2
1525,-7.0,1.0,-44.0,-23.0,-4.0,-2.0,-2.0,-4.0,1651086277649242.0,2
1526,3.0,-2.0,-23.0,-6.0,-1.0,-1.0,1.0,10.0,1651086277668335.0,2
1527,-3.0,-1.0,0.0,-4.0,3.0,1.0,2.0,-3.0,1651086277668335.0,2
1528,-2.0,-3.0,-3.0,-5.0,-1.0,0.0,-2.0,-3.0,1651086277670214.0,2
1529,1.0,-2.0,12.0,8.0,1.0,2.0,1.0,0.0,1651086277670214.0,2
1530,6.0,3.0,9.0,-4.0,-6.0,-5.0,0.0,16.0,1651086277684581.0,2
1531,-6.0,-5.0,-5.0,4.0,0.0,-3.0,-4.0,-7.0,1651086277684581.0,2
1532,-5.0,-1.0,-19.0,-5.0,-2.0,2.0,2.0,3.0,1651086277685411.0,2
1533,5.0,-4.0,7.0,3.0,9.0,1.0,-1.0,0.0,1651086277685411.0,2
1534,-2.0,4.0,18.0,8.0,-2.0,0.0,-1.0,3.0,1651086277706380.0,2
1535,5.0,-2.0,5.0,17.0,7.0,-1.0,1.0,-2.0,1651086277706380.0,2
1536,-10.0,-4.0,-7.0,-40.0,-10.0,-2.0,0.0,-3.0,1651086277707245.0,2
1537,3.0,2.0,19.0,21.0,4.0,1.0,-1.0,-1.0,1651086277707245.0,2
1538,0.0,-4.0,-30.0,-13.0,1.0,0.0,0.0,0.0,1651086277729241.0,2
1539,-7.0,1.0,19.0,20.0,-2.0,-3.0,-5.0,-2.0,1651086277729241.0,2
1540,5.0,-2.0,-8.0,-15.0,-7.0,-4.0,-2.0,-2.0,1651086277746270.0,2
1541,4.0,9.0,-42.0,-10.0,2.0,2.0,3.0,-1.0,1651086277746270.0,2
1542,-2.0,-3.0,17.0,0.0,2.0,2.0,0.0,5.0,1651086277746270.0,2
1543,0.0,1.0,17.0,5.0,1.0,4.0,5.0,12.0,1651086277746270.0,2
1544,4.0,4.0,-5.0,3.0,0.0,0.0,1.0,-2.0,1651086277749262.0,2
1545,-2.0,-2.0,0.0,-1.0,-5.0,-5.0,-3.0,-2.0,1651086277749262.0,2
1546,0.0,-6.0,16.0,-2.0,-3.0,1.0,1.0,-6.0,1651086277766419.0,2
1547,0.0,-9.0,-23.0,-14.0,-7.0,-3.0,-2.0,4.0,1651086277766419.0,2
1548,1.0,-2.0,13.0,-1.0,1.0,2.0,-1.0,1.0,1651086277767419.0,2
1549,0.0,0.0,12.0,7.0,-2.0,-2.0,0.0,-1.0,1651086277767419.0,2
1550,-7.0,8.0,-5.0,-2.0,8.0,3.0,4.0,0.0,1651086277796394.0,2
1551,-2.0,-1.0,-1.0,-1.0,-6.0,-1.0,0.0,-3.0,1651086277796394.0,2
1552,1.0,2.0,11.0,3.0,1.0,-2.0,-3.0,-3.0,1651086277797260.0,2
1553,-2.0,-8.0,-14.0,-3.0,-3.0,-1.0,-3.0,-3.0,1651086277797260.0,2
1554,2.0,-3.0,-24.0,-5.0,-3.0,-1.0,2.0,14.0,1651086277804370.0,2
1555,8.0,6.0,24.0,6.0,0.0,0.0,-1.0,-6.0,1651086277804370.0,2
1556,-1.0,0.0,-14.0,-16.0,-6.0,-3.0,0.0,3.0,1651086277805205.0,2
1557,1.0,-2.0,8.0,13.0,2.0,1.0,-1.0,2.0,1651086277805205.0,2
1558,-2.0,-2.0,17.0,6.0,-5.0,-4.0,-2.0,-2.0,1651086277826366.0,2
1559,-7.0,0.0,-12.0,-2.0,2.0,0.0,-2.0,-1.0,1651086277826366.0,2
1560,-1.0,-6.0,-1.0,0.0,-2.0,0.0,3.0,4.0,1651086277827253.0,2
1561,1.0,-7.0,10.0,5.0,-3.0,-1.0,-1.0,-1.0,1651086277827253.0,2
1562,4.0,8.0,-6.0,-2.0,2.0,-2.0,-3.0,-3.0,1651086277849228.0,2
1563,-4.0,-2.0,-3.0,-6.0,-3.0,1.0,1.0,-5.0,1651086277849228.0,2
1564,1.0,3.0,7.0,5.0,1.0,-1.0,-2.0,12.0,1651086277850261.0,2
1565,-2.0,-4.0,-7.0,-5.0,-7.0,0.0,-1.0,-17.0,1651086277850261.0,2
1566,0.0,-2.0,-4.0,5.0,3.0,0.0,-1.0,-4.0,1651086277863521.0,2
1567,0.0,-3.0,-8.0,-10.0,8.0,-1.0,0.0,7.0,1651086277863521.0,2
1568,-4.0,11.0,18.0,17.0,1.0,3.0,3.0,5.0,1651086277869359.0,2
1569,0.0,-2.0,-2.0,-15.0,-4.0,-7.0,-4.0,4.0,1651086277869359.0,2
1570,3.0,5.0,27.0,11.0,-1.0,-1.0,-3.0,5.0,1651086277886280.0,2
1571,-3.0,-3.0,-25.0,1.0,-2.0,-3.0,-3.0,-9.0,1651086277886280.0,2
1572,7.0,-3.0,-18.0,-3.0,3.0,3.0,6.0,-4.0,1651086277887178.0,2
1573,-7.0,5.0,32.0,14.0,6.0,1.0,-3.0,8.0,1651086277887178.0,2
1574,-1.0,-4.0,-31.0,-12.0,-5.0,-3.0,-3.0,-12.0,1651086277909244.0,2
1575,-2.0,-1.0,10.0,3.0,-1.0,1.0,2.0,3.0,1651086277909244.0,2
1576,0.0,-3.0,-6.0,4.0,1.0,-2.0,-4.0,-6.0,1651086277910245.0,2
1577,4.0,7.0,3.0,-8.0,-3.0,0.0,1.0,1.0,1651086277910245.0,2
1578,1.0,1.0,0.0,-1.0,-1.0,-1.0,0.0,4.0,1651086277923239.0,2
1579,4.0,4.0,20.0,12.0,3.0,1.0,3.0,4.0,1651086277923239.0,2
1580,-6.0,-3.0,-19.0,-18.0,-12.0,-2.0,0.0,6.0,1651086277930501.0,2
1581,-5.0,-3.0,18.0,5.0,17.0,4.0,-1.0,-10.0,1651086277930501.0,2
1582,6.0,-1.0,-44.0,-27.0,-10.0,-4.0,-1.0,2.0,1651086277946373.0,2
1583,-3.0,0.0,4.0,18.0,-2.0,-1.0,-1.0,-3.0,1651086277946373.0,2
1584,-2.0,-2.0,-8.0,-9.0,7.0,3.0,0.0,3.0,1651086277947268.0,2
1585,-2.0,5.0,40.0,19.0,1.0,2.0,3.0,4.0,1651086277947268.0,2
1586,-4.0,-2.0,-7.0,-9.0,-3.0,5.0,2.0,2.0,1651086277968323.0,2
1587,-1.0,-1.0,-5.0,3.0,-1.0,-2.0,-2.0,-4.0,1651086277968323.0,2
1588,0.0,3.0,12.0,-11.0,1.0,0.0,0.0,-6.0,1651086277970208.0,2
1589,2.0,1.0,2.0,12.0,-4.0,-2.0,-2.0,0.0,1651086277970208.0,2
1590,4.0,0.0,22.0,-6.0,-2.0,-3.0,-1.0,-4.0,1651086277991422.0,2
1591,-5.0,-2.0,-9.0,-4.0,-6.0,1.0,0.0,-2.0,1651086277991422.0,2
1592,-12.0,-12.0,-5.0,13.0,3.0,-5.0,-5.0,-6.0,1651086277992422.0,2
1593,-1.0,-17.0,-13.0,0.0,-3.0,0.0,2.0,-2.0,1651086277992422.0,2
1594,4.0,21.0,16.0,7.0,1.0,-3.0,-1.0,-3.0,1651086278006537.0,2
1595,-5.0,-4.0,1.0,-9.0,-6.0,-3.0,-3.0,6.0,1651086278006537.0,2
1596,2.0,-6.0,-16.0,4.0,5.0,4.0,2.0,-3.0,1651086278007383.0,2
1597,0.0,1.0,-3.0,-2.0,2.0,-3.0,-2.0,0.0,1651086278007383.0,2
1598,0.0,-7.0,-1.0,-3.0,-7.0,-5.0,-3.0,-1.0,1651086278028836.0,2
1599,2.0,2.0,14.0,4.0,-1.0,3.0,1.0,-3.0,1651086278028836.0,2
1600,0.0,2.0,2.0,1.0,0.0,-1.0,-2.0,-2.0,1651086278029862.0,2
1601,2.0,7.0,-6.0,-10.0,-10.0,0.0,1.0,6.0,1651086278029862.0,2
1602,-2.0,-11.0,-10.0,14.0,7.0,-1.0,-2.0,0.0,1651086278043123.0,2
1603,1.0,4.0,-2.0,-6.0,1.0,-2.0,-1.0,-3.0,1651086278043123.0,2
1604,1.0,0.0,-3.0,1.0,-8.0,-4.0,-1.0,-1.0,1651086278050419.0,2
1605,-1.0,5.0,-2.0,-6.0,1.0,-2.0,-1.0,-1.0,1651086278050419.0,2
1606,-2.0,-2.0,8.0,4.0,1.0,2.0,3.0,-2.0,1651086278066370.0,2
1607,3.0,-2.0,-11.0,-14.0,-2.0,0.0,0.0,0.0,1651086278066370.0,2
1608,-2.0,-12.0,-11.0,14.0,6.0,-1.0,2.0,-1.0,1651086278067257.0,2
1609,1.0,21.0,8.0,-5.0,-3.0,0.0,0.0,1.0,1651086278067257.0,2
1610,-1.0,-2.0,-8.0,-9.0,-4.0,-2.0,-1.0,-2.0,1651086278090229.0,2
1611,1.0,-1.0,2.0,-3.0,-5.0,-4.0,-3.0,-4.0,1651086278090229.0,2
1612,1.0,2.0,5.0,-8.0,-3.0,-1.0,1.0,-1.0,1651086278091226.0,2
1613,-2.0,-8.0,-6.0,3.0,-3.0,-3.0,-1.0,-2.0,1651086278091226.0,2
1614,-1.0,-1.0,0.0,2.0,3.0,4.0,2.0,0.0,1651086278102393.0,2
1615,-1.0,-3.0,-5.0,8.0,18.0,5.0,2.0,-2.0,1651086278102393.0,2
1616,1.0,10.0,14.0,-7.0,-4.0,-4.0,-2.0,-1.0,1651086278110332.0,2
1617,-2.0,-9.0,-31.0,-4.0,0.0,-1.0,1.0,-1.0,1651086278110332.0,2
1618,-1.0,7.0,24.0,6.0,1.0,0.0,0.0,1.0,1651086278126421.0,2
1619,-3.0,4.0,-2.0,-2.0,2.0,-3.0,-2.0,-1.0,1651086278126421.0,2
1620,-1.0,10.0,11.0,5.0,1.0,3.0,-1.0,-1.0,1651086278127422.0,2
1621,0.0,-13.0,-12.0,-2.0,-1.0,1.0,-2.0,-1.0,1651086278127422.0,2
1622,-1.0,-4.0,-6.0,-2.0,-4.0,0.0,0.0,2.0,1651086278149246.0,2
1623,2.0,10.0,10.0,0.0,-6.0,-4.0,-1.0,-4.0,1651086278149246.0,2
1624,0.0,-18.0,-1.0,-1.0,0.0,-4.0,-2.0,1.0,1651086278150281.0,2
1625,-2.0,3.0,-14.0,-1.0,-3.0,-2.0,0.0,0.0,1651086278150281.0,2
1626,-1.0,13.0,7.0,1.0,3.0,3.0,1.0,1.0,1651086278162576.0,2
1627,0.0,-18.0,-11.0,-4.0,-5.0,0.0,-2.0,2.0,1651086278162576.0,2
1628,-2.0,14.0,-1.0,0.0,1.0,-1.0,-2.0,-1.0,1651086278170973.0,2
1629,1.0,2.0,20.0,0.0,-4.0,-4.0,-2.0,0.0,1651086278170973.0,2
1630,-3.0,-10.0,-9.0,-1.0,7.0,2.0,0.0,-1.0,1651086278186319.0,2
1631,0.0,5.0,1.0,13.0,10.0,2.0,-1.0,1.0,1651086278186319.0,2
1632,2.0,-18.0,-13.0,-6.0,-7.0,-3.0,-1.0,0.0,1651086278187319.0,2
1633,-4.0,-3.0,17.0,-1.0,-6.0,-2.0,-2.0,0.0,1651086278187319.0,2
1634,0.0,1.0,-30.0,-7.0,-4.0,-3.0,-2.0,-1.0,1651086278208511.0,2
1635,2.0,-16.0,8.0,-3.0,-2.0,1.0,-1.0,-3.0,1651086278208511.0,2
1636,0.0,-4.0,-10.0,-5.0,2.0,1.0,-2.0,5.0,1651086278210370.0,2
1637,-7.0,24.0,14.0,6.0,7.0,3.0,0.0,-20.0,1651086278210370.0,2
1638,-3.0,-26.0,17.0,-2.0,-4.0,-2.0,-2.0,-8.0,1651086278222701.0,2
1639,9.0,23.0,-15.0,-4.0,-1.0,-3.0,-3.0,-7.0,1651086278222701.0,2
1640,2.0,-21.0,-13.0,-3.0,-1.0,1.0,-2.0,13.0,1651086278231665.0,2
1641,3.0,12.0,12.0,-2.0,-5.0,-1.0,7.0,-1.0,1651086278231665.0,2
1642,-6.0,-3.0,1.0,3.0,2.0,3.0,-1.0,12.0,1651086278246235.0,2
1643,-5.0,13.0,4.0,5.0,2.0,0.0,0.0,-1.0,1651086278246235.0,2
1644,7.0,7.0,-1.0,-2.0,0.0,0.0,-2.0,-2.0,1651086278247228.0,2
1645,-8.0,-13.0,-12.0,2.0,1.0,0.0,-2.0,10.0,1651086278247228.0,2
1646,0.0,6.0,-4.0,-8.0,-4.0,-4.0,-2.0,-5.0,1651086278269417.0,2
1647,-3.0,-5.0,15.0,5.0,-3.0,2.0,4.0,17.0,1651086278269417.0,2
1648,4.0,1.0,-7.0,-6.0,-6.0,-2.0,0.0,7.0,1651086278270287.0,2
1649,-1.0,5.0,10.0,2.0,7.0,2.0,-1.0,4.0,1651086278270287.0,2
1650,-4.0,-3.0,-24.0,4.0,2.0,1.0,-1.0,-2.0,1651086278282699.0,2
1651,15.0,4.0,0.0,1.0,-2.0,1.0,-1.0,-2.0,1651086278282699.0,2
1652,-10.0,-7.0,9.0,-1.0,-2.0,0.0,-1.0,-4.0,1651086278299073.0,2
1653,4.0,-7.0,-1.0,7.0,-1.0,-1.0,-2.0,-7.0,1651086278299073.0,2
1654,5.0,8.0,13.0,-6.0,-2.0,-1.0,1.0,19.0,1651086278306194.0,2
1655,-4.0,-18.0,-49.0,-7.0,-7.0,-5.0,-4.0,-8.0,1651086278306194.0,2
1656,-3.0,19.0,6.0,1.0,0.0,0.0,-1.0,-8.0,1651086278307078.0,2
1657,2.0,-28.0,-32.0,-7.0,-5.0,-3.0,-1.0,5.0,1651086278307078.0,2
1658,-4.0,-2.0,3.0,2.0,1.0,3.0,0.0,-3.0,1651086278328285.0,2
1659,-2.0,7.0,27.0,11.0,0.0,4.0,0.0,-5.0,1651086278328285.0,2
1660,-6.0,-19.0,-5.0,0.0,2.0,-3.0,-1.0,-8.0,1651086278330092.0,2
1661,2.0,-8.0,-8.0,0.0,0.0,-1.0,-1.0,5.0,1651086278330092.0,2
1662,-8.0,15.0,-3.0,-4.0,-2.0,-2.0,-1.0,-5.0,1651086278351418.0,2
1663,6.0,9.0,11.0,-4.0,-1.0,0.0,1.0,6.0,1651086278351418.0,2
1664,-1.0,-1.0,-7.0,-4.0,-1.0,0.0,0.0,-2.0,1651086278352418.0,2
1665,2.0,4.0,3.0,-1.0,0.0,0.0,0.0,2.0,1651086278352418.0,2
1666,10.0,-9.0,13.0,0.0,-2.0,0.0,-3.0,-7.0,1651086278366340.0,2
1667,-7.0,-13.0,-17.0,-7.0,0.0,-1.0,0.0,-1.0,1651086278366340.0,2
1668,-1.0,18.0,6.0,6.0,3.0,-1.0,0.0,-1.0,1651086278367192.0,2
1669,-3.0,-5.0,-2.0,-1.0,-4.0,-4.0,-4.0,-32.0,1651086278367192.0,2
1670,6.0,13.0,14.0,5.0,-3.0,-2.0,-1.0,2.0,1651086278389048.0,2
1671,-8.0,-20.0,3.0,-4.0,6.0,4.0,0.0,2.0,1651086278389048.0,2
1672,4.0,2.0,-8.0,-3.0,-4.0,-2.0,-1.0,-7.0,1651086278390116.0,2
1673,-2.0,-6.0,-4.0,-1.0,1.0,0.0,-1.0,5.0,1651086278390116.0,2
1674,-2.0,1.0,-1.0,-2.0,-1.0,-2.0,1.0,-9.0,1651086278402291.0,2
1675,-3.0,5.0,3.0,-3.0,-6.0,-3.0,-2.0,-5.0,1651086278402291.0,2
1676,1.0,10.0,3.0,-2.0,-2.0,1.0,0.0,2.0,1651086278411293.0,2
1677,2.0,3.0,9.0,3.0,6.0,0.0,0.0,5.0,1651086278411293.0,2
1678,0.0,-4.0,-5.0,-1.0,1.0,1.0,-1.0,0.0,1651086278425233.0,2
1679,-3.0,-2.0,-6.0,-4.0,-2.0,-4.0,-2.0,3.0,1651086278425233.0,2
1680,1.0,0.0,4.0,4.0,-1.0,-1.0,0.0,-2.0,1651086278433217.0,2
1681,2.0,2.0,-1.0,-6.0,-1.0,1.0,0.0,7.0,1651086278433217.0,2
1682,-1.0,0.0,-1.0,6.0,4.0,0.0,1.0,-2.0,1651086278449228.0,2
1683,-2.0,-1.0,4.0,3.0,0.0,0.0,0.0,-4.0,1651086278449228.0,2
1684,0.0,5.0,-4.0,-6.0,-3.0,-3.0,0.0,0.0,1651086278450260.0,2
1685,-1.0,-3.0,3.0,-1.0,-3.0,-1.0,-1.0,1.0,1651086278450260.0,2
1686,-1.0,-7.0,-3.0,1.0,3.0,2.0,2.0,2.0,1651086278463217.0,2
1687,-3.0,4.0,1.0,-4.0,-2.0,-1.0,-1.0,-1.0,1651086278463217.0,2
1688,2.0,-5.0,2.0,0.0,0.0,0.0,-1.0,-4.0,1651086278471328.0,2
1689,2.0,3.0,-2.0,0.0,-1.0,0.0,0.0,1.0,1651086278471328.0,2
1690,3.0,-1.0,0.0,-1.0,-3.0,-1.0,-1.0,1.0,1651086278485221.0,2
1691,-2.0,6.0,4.0,0.0,-1.0,-3.0,-1.0,-1.0,1651086278485221.0,2
1692,-1.0,1.0,4.0,2.0,3.0,2.0,3.0,-1.0,1651086278492537.0,2
1693,-2.0,-1.0,-6.0,-2.0,0.0,0.0,1.0,2.0,1651086278492537.0,2
1694,-9.0,-2.0,-4.0,-1.0,-2.0,-1.0,-1.0,-1.0,1651086278509235.0,0
1695,0.0,-7.0,-3.0,-1.0,-2.0,-2.0,-1.0,-1.0,1651086278509235.0,0
1696,-1.0,-7.0,-2.0,-1.0,2.0,0.0,-1.0,-1.0,1651086278510266.0,0
1697,-2.0,12.0,11.0,2.0,-1.0,2.0,-1.0,0.0,1651086278510266.0,0
1698,1.0,-2.0,-6.0,-1.0,1.0,0.0,0.0,0.0,1651086278522905.0,0
1699,0.0,9.0,3.0,-1.0,-2.0,0.0,1.0,1.0,1651086278522905.0,0
1700,-4.0,-23.0,-2.0,-2.0,-3.0,0.0,0.0,-2.0,1651086278539072.0,0
1701,1.0,16.0,-7.0,-1.0,-1.0,0.0,-1.0,3.0,1651086278539072.0,0
1702,2.0,-3.0,13.0,1.0,0.0,-1.0,-2.0,-3.0,1651086278546215.0,0
1703,-3.0,-6.0,-9.0,-1.0,-1.0,0.0,-2.0,-3.0,1651086278546215.0,0
1704,2.0,12.0,10.0,1.0,-1.0,0.0,0.0,1.0,1651086278552057.0,0
1705,0.0,-11.0,-8.0,-3.0,-2.0,-1.0,0.0,-1.0,1651086278552057.0,0
1706,0.0,-4.0,0.0,0.0,-1.0,-2.0,-1.0,0.0,1651086278576350.0,0
1707,-3.0,0.0,0.0,-1.0,0.0,1.0,0.0,-1.0,1651086278576350.0,0
1708,0.0,4.0,0.0,-2.0,-5.0,-3.0,-1.0,-2.0,1651086278577248.0,0
1709,-3.0,-17.0,-3.0,2.0,4.0,2.0,1.0,0.0,1651086278577248.0,0
1710,-1.0,8.0,-2.0,-1.0,-1.0,1.0,0.0,1.0,1651086278591214.0,0
1711,0.0,0.0,2.0,-1.0,-1.0,-2.0,0.0,0.0,1651086278591214.0,0
1712,-1.0,-1.0,-1.0,-2.0,-1.0,-1.0,-1.0,-1.0,1651086278606326.0,0
1713,-2.0,1.0,-8.0,1.0,0.0,0.0,1.0,0.0,1651086278606326.0,0
1714,1.0,-4.0,0.0,-1.0,0.0,-2.0,1.0,0.0,1651086278607172.0,0
1715,0.0,3.0,3.0,-1.0,-1.0,-2.0,-1.0,-1.0,1651086278607172.0,0
1716,-1.0,-9.0,-2.0,0.0,-1.0,0.0,0.0,-1.0,1651086278612159.0,0
1717,1.0,-2.0,2.0,3.0,6.0,5.0,1.0,0.0,1651086278612159.0,0
1718,-3.0,-2.0,-4.0,-2.0,-3.0,-3.0,-1.0,-1.0,1651086278629225.0,0
1719,2.0,-4.0,-2.0,-1.0,-1.0,-2.0,1.0,1.0,1651086278629225.0,0
1720,-2.0,3.0,1.0,-1.0,-1.0,-2.0,-2.0,0.0,1651086278630224.0,0
1721,-9.0,-9.0,-8.0,-2.0,-1.0,0.0,0.0,-1.0,1651086278630224.0,0
1722,6.0,1.0,-8.0,-1.0,-1.0,0.0,-2.0,-1.0,1651086278651406.0,0
1723,-1.0,-1.0,3.0,3.0,2.0,0.0,-1.0,-2.0,1651086278651406.0,0
1724,-1.0,4.0,-2.0,2.0,0.0,0.0,0.0,0.0,1651086278653404.0,0
1725,0.0,-6.0,2.0,-2.0,-2.0,-1.0,0.0,0.0,1651086278653404.0,0
1726,-1.0,-2.0,1.0,-1.0,-1.0,0.0,2.0,-1.0,1651086278666380.0,0
1727,0.0,2.0,-2.0,0.0,-1.0,-2.0,-1.0,-2.0,1651086278666380.0,0
1728,-1.0,-5.0,-7.0,1.0,2.0,3.0,-1.0,0.0,1651086278667248.0,0
1729,2.0,8.0,8.0,0.0,-2.0,-2.0,-2.0,-1.0,1651086278667248.0,0
1730,-1.0,3.0,-8.0,-4.0,-4.0,-1.0,0.0,2.0,1651086278689222.0,0
1731,0.0,2.0,3.0,-2.0,-3.0,-1.0,-1.0,0.0,1651086278689222.0,0
1732,-3.0,-8.0,-7.0,-1.0,2.0,0.0,0.0,-1.0,1651086278690223.0,0
1733,2.0,8.0,0.0,-3.0,-2.0,-2.0,-3.0,-1.0,1651086278690223.0,0
1734,-2.0,-5.0,1.0,0.0,0.0,1.0,1.0,-1.0,1651086278711332.0,0
1735,-1.0,-3.0,-5.0,0.0,2.0,1.0,0.0,0.0,1651086278711332.0,0
1736,0.0,5.0,6.0,-1.0,-2.0,-3.0,-3.0,-1.0,1651086278712259.0,0
1737,1.0,2.0,4.0,-3.0,-4.0,-3.0,0.0,1.0,1651086278712259.0,0
1738,-1.0,-3.0,-18.0,-4.0,0.0,-3.0,-2.0,-1.0,1651086278726289.0,0
1739,-2.0,2.0,9.0,3.0,-1.0,-1.0,-1.0,-2.0,1651086278726289.0,0
1740,1.0,2.0,0.0,1.0,1.0,-1.0,-1.0,0.0,1651086278732706.0,0
1741,0.0,-3.0,-4.0,-1.0,5.0,4.0,0.0,-1.0,1651086278732706.0,0
1742,0.0,-23.0,-2.0,1.0,-2.0,-3.0,-1.0,-1.0,1651086278749176.0,0
1743,0.0,25.0,6.0,-3.0,1.0,2.0,0.0,0.0,1651086278749176.0,0
1744,-1.0,2.0,-1.0,1.0,-1.0,-2.0,-1.0,0.0,1651086278750180.0,0
1745,0.0,3.0,3.0,-2.0,-2.0,-1.0,-1.0,-1.0,1651086278750180.0,0
1746,1.0,-8.0,1.0,-1.0,-2.0,-2.0,-1.0,2.0,1651086278771246.0,0
1747,1.0,-7.0,3.0,-1.0,-3.0,-1.0,1.0,-1.0,1651086278771246.0,0
1748,-7.0,-2.0,-5.0,1.0,2.0,2.0,1.0,-2.0,1651086278772246.0,0
1749,10.0,7.0,2.0,1.0,-2.0,0.0,0.0,0.0,1651086278772246.0,0
1750,-3.0,7.0,5.0,1.0,1.0,0.0,0.0,-1.0,1651086278786187.0,0
1751,0.0,-9.0,-5.0,0.0,0.0,-2.0,1.0,1.0,1651086278786187.0,0
1752,3.0,11.0,7.0,-1.0,-2.0,-2.0,-1.0,-1.0,1651086278792316.0,0
1753,-2.0,-6.0,-4.0,0.0,-2.0,-4.0,-1.0,0.0,1651086278792316.0,0
1754,-1.0,0.0,4.0,3.0,0.0,0.0,-2.0,0.0,1651086278808770.0,0
1755,1.0,-1.0,1.0,-2.0,-2.0,-1.0,-1.0,-1.0,1651086278808770.0,0
1756,-2.0,-10.0,-15.0,-4.0,-1.0,2.0,0.0,-1.0,1651086278809813.0,0
1757,-1.0,0.0,-2.0,-1.0,-3.0,-3.0,-2.0,0.0,1651086278809813.0,0
1758,-2.0,3.0,2.0,1.0,3.0,2.0,-1.0,0.0,1651086278831418.0,0
1759,-4.0,-4.0,-1.0,0.0,2.0,1.0,2.0,1.0,1651086278831418.0,0
1760,3.0,-11.0,2.0,0.0,0.0,-1.0,1.0,0.0,1651086278832247.0,0
1761,-2.0,13.0,5.0,-1.0,-3.0,-2.0,-1.0,-1.0,1651086278832247.0,0
1762,-2.0,9.0,0.0,-2.0,0.0,1.0,-1.0,-1.0,1651086278846382.0,0
1763,-2.0,-8.0,0.0,-1.0,2.0,1.0,0.0,-3.0,1651086278846382.0,0
1764,0.0,-1.0,0.0,1.0,-3.0,-1.0,0.0,0.0,1651086278852209.0,0
1765,-1.0,-8.0,-15.0,-3.0,-4.0,-2.0,1.0,-1.0,1651086278852209.0,0
1766,1.0,-6.0,-4.0,-2.0,-1.0,-2.0,-1.0,0.0,1651086278868362.0,0
1767,0.0,5.0,4.0,1.0,0.0,0.0,0.0,1.0,1651086278868362.0,0
1768,-1.0,12.0,5.0,-2.0,-2.0,-3.0,-1.0,0.0,1651086278870388.0,0
1769,-1.0,-3.0,-1.0,2.0,2.0,0.0,2.0,0.0,1651086278870388.0,0
1770,-1.0,1.0,2.0,1.0,0.0,1.0,-1.0,-1.0,1651086278891385.0,0
1771,-4.0,-16.0,-17.0,-5.0,-1.0,-2.0,-2.0,0.0,1651086278891385.0,0
1772,0.0,0.0,2.0,-2.0,-4.0,-1.0,-1.0,-1.0,1651086278892385.0,0
1773,0.0,0.0,3.0,0.0,0.0,-1.0,-1.0,0.0,1651086278892385.0,0
1774,-3.0,1.0,2.0,2.0,1.0,2.0,0.0,1.0,1651086278905579.0,0
1775,0.0,1.0,-1.0,0.0,-1.0,-1.0,-2.0,0.0,1651086278905579.0,0
1776,0.0,-4.0,-3.0,-1.0,0.0,0.0,0.0,2.0,1651086278913221.0,0
1777,0.0,-4.0,0.0,0.0,1.0,-1.0,-1.0,-1.0,1651086278913221.0,0
1778,-1.0,0.0,-2.0,-3.0,-2.0,-2.0,0.0,-1.0,1651086278929227.0,0
1779,0.0,1.0,-1.0,2.0,0.0,1.0,-1.0,-1.0,1651086278929227.0,0
1780,-2.0,3.0,4.0,-1.0,-1.0,1.0,1.0,-1.0,1651086278942367.0,0
1781,0.0,-1.0,6.0,-1.0,-2.0,-1.0,-2.0,1.0,1651086278942367.0,0
1782,-1.0,-16.0,-10.0,-3.0,0.0,-1.0,1.0,0.0,1651086278951413.0,0
1783,-1.0,20.0,-7.0,-3.0,-1.0,-1.0,-1.0,-2.0,1651086278951413.0,0
1784,0.0,6.0,12.0,1.0,-1.0,-1.0,0.0,-2.0,1651086278952413.0,0
1785,0.0,-4.0,-15.0,-7.0,-5.0,-2.0,-1.0,-1.0,1651086278952413.0,0
1786,-1.0,0.0,4.0,2.0,2.0,1.0,2.0,-2.0,1651086278966379.0,0
1787,0.0,0.0,3.0,1.0,1.0,2.0,0.0,-1.0,1651086278966379.0,0
1788,-1.0,-11.0,-8.0,-3.0,-3.0,-2.0,-1.0,1.0,1651086278973184.0,0
1789,-1.0,-1.0,4.0,0.0,-1.0,0.0,-1.0,-1.0,1651086278973184.0,0
1790,1.0,-1.0,1.0,-2.0,1.0,2.0,-2.0,2.0,1651086278989234.0,0
1791,0.0,-17.0,-10.0,-4.0,-4.0,-4.0,0.0,0.0,1651086278989234.0,0
1792,1.0,26.0,11.0,6.0,1.0,-1.0,-1.0,-1.0,1651086279002262.0,0
1793,-2.0,-5.0,3.0,3.0,0.0,-1.0,-1.0,-1.0,1651086279002262.0,0
1794,0.0,3.0,-2.0,1.0,-2.0,-1.0,0.0,-1.0,1651086279011439.0,0
1795,0.0,-5.0,-1.0,-1.0,1.0,-1.0,0.0,-1.0,1651086279011439.0,0
1796,-1.0,-8.0,-6.0,-3.0,0.0,1.0,0.0,0.0,1651086279012439.0,0
1797,-2.0,-3.0,-3.0,-1.0,-1.0,0.0,2.0,0.0,1651086279012439.0,0
1798,-1.0,12.0,12.0,1.0,1.0,-1.0,0.0,0.0,1651086279025208.0,0
1799,1.0,4.0,-4.0,-7.0,-5.0,-3.0,-1.0,0.0,1651086279025208.0,0
1800,-2.0,-7.0,-7.0,-3.0,-4.0,-1.0,-1.0,0.0,1651086279033200.0,0
1801,-2.0,3.0,1.0,-1.0,3.0,3.0,1.0,-1.0,1651086279033200.0,0
1802,-1.0,-5.0,2.0,4.0,3.0,2.0,0.0,2.0,1651086279048205.0,0
1803,0.0,-6.0,2.0,4.0,-1.0,-2.0,-1.0,0.0,1651086279048205.0,0
1804,0.0,-8.0,-8.0,-1.0,0.0,0.0,-1.0,-1.0,1651086279050171.0,0
1805,0.0,14.0,0.0,1.0,2.0,2.0,0.0,0.0,1651086279050171.0,0
1806,-2.0,-16.0,-3.0,-7.0,-7.0,-4.0,-1.0,-2.0,1651086279071597.0,0
1807,-1.0,-2.0,0.0,3.0,-1.0,-1.0,-1.0,-1.0,1651086279071597.0,0
1808,1.0,2.0,-3.0,2.0,2.0,1.0,-1.0,0.0,1651086279072597.0,0
1809,1.0,-2.0,2.0,1.0,-1.0,2.0,-1.0,0.0,1651086279072597.0,0
1810,0.0,3.0,-6.0,-1.0,-2.0,-2.0,-3.0,-3.0,1651086279094388.0,0
1811,0.0,3.0,1.0,0.0,-2.0,-1.0,1.0,0.0,1651086279094388.0,0
1812,-2.0,-3.0,-3.0,-3.0,-2.0,-2.0,0.0,0.0,1651086279095260.0,0
1813,0.0,-4.0,0.0,-1.0,2.0,0.0,-1.0,-1.0,1651086279095260.0,0
1814,1.0,6.0,-3.0,1.0,-2.0,-1.0,-1.0,0.0,1651086279108389.0,0
1815,-2.0,-9.0,-3.0,-1.0,-3.0,-1.0,-1.0,-1.0,1651086279108389.0,0
1816,1.0,10.0,14.0,2.0,2.0,-2.0,0.0,-1.0,1651086279110385.0,0
1817,-3.0,-6.0,-13.0,2.0,5.0,1.0,0.0,0.0,1651086279110385.0,0
1818,0.0,1.0,0.0,-1.0,-2.0,-1.0,0.0,1.0,1651086279130554.0,0
1819,-1.0,3.0,1.0,-1.0,1.0,0.0,0.0,-1.0,1651086279130554.0,0
1820,-1.0,-5.0,-2.0,-2.0,0.0,0.0,1.0,-1.0,1651086279132548.0,0
1821,0.0,-5.0,2.0,-3.0,-4.0,-3.0,-3.0,-1.0,1651086279132548.0,0
1822,0.0,3.0,-4.0,-1.0,0.0,0.0,-1.0,0.0,1651086279153183.0,0
1823,-3.0,18.0,15.0,6.0,2.0,2.0,0.0,-2.0,1651086279153183.0,0
1824,-2.0,-5.0,1.0,0.0,1.0,0.0,0.0,-1.0,1651086279155051.0,0
1825,0.0,-4.0,4.0,-1.0,-1.0,1.0,1.0,0.0,1651086279155051.0,0
1826,1.0,-6.0,-8.0,-4.0,-2.0,-5.0,0.0,-1.0,1651086279168100.0,0
1827,0.0,-3.0,2.0,5.0,5.0,6.0,1.0,1.0,1651086279168100.0,0
1828,0.0,3.0,-2.0,1.0,-2.0,-3.0,-2.0,-1.0,1651086279170097.0,0
1829,0.0,-2.0,1.0,0.0,-2.0,-1.0,0.0,0.0,1651086279170097.0,0
1830,-1.0,2.0,2.0,-1.0,-3.0,-1.0,0.0,-1.0,1651086279191043.0,0
1831,0.0,-2.0,-5.0,-4.0,-4.0,-4.0,0.0,0.0,1651086279191043.0,0
1832,-1.0,-3.0,-4.0,-1.0,3.0,3.0,0.0,-1.0,1651086279193083.0,0
1833,-3.0,-10.0,-6.0,0.0,2.0,0.0,1.0,-1.0,1651086279193083.0,0
1834,0.0,17.0,9.0,3.0,1.0,0.0,-1.0,0.0,1651086279205221.0,0
1835,-1.0,-3.0,-5.0,0.0,3.0,0.0,-1.0,1.0,1651086279205221.0,0
1836,-1.0,-1.0,-3.0,0.0,1.0,2.0,-1.0,0.0,1651086279213213.0,0
1837,1.0,-2.0,4.0,-3.0,-1.0,-2.0,-1.0,0.0,1651086279213213.0,0
1838,-1.0,1.0,-4.0,-5.0,-4.0,-3.0,-1.0,-2.0,1651086279229021.0,0
1839,0.0,-2.0,-1.0,-1.0,-5.0,-2.0,-1.0,0.0,1651086279229021.0,0
1840,1.0,-18.0,-4.0,-2.0,-1.0,-1.0,-1.0,1.0,1651086279230074.0,0
1841,-2.0,24.0,4.0,5.0,8.0,4.0,2.0,0.0,1651086279230074.0,0
1842,-2.0,-4.0,-1.0,0.0,-3.0,-2.0,0.0,-3.0,1651086279251269.0,0
1843,0.0,0.0,8.0,-2.0,-6.0,-3.0,0.0,-2.0,1651086279251269.0,0
1844,-3.0,-5.0,-8.0,0.0,-1.0,-1.0,-2.0,-1.0,1651086279252271.0,0
1845,0.0,-7.0,-1.0,7.0,5.0,0.0,-1.0,2.0,1651086279252271.0,0
1846,-1.0,1.0,-10.0,-7.0,-6.0,-1.0,0.0,-2.0,1651086279265240.0,0
1847,-1.0,-5.0,-1.0,-2.0,-6.0,-4.0,-1.0,0.0,1651086279265240.0,0
1848,-1.0,7.0,4.0,-2.0,0.0,2.0,0.0,0.0,1651086279273210.0,0
1849,-1.0,-4.0,-1.0,0.0,4.0,3.0,1.0,-1.0,1651086279273210.0,0
1850,0.0,-1.0,1.0,3.0,6.0,2.0,1.0,0.0,1651086279289026.0,0
1851,-2.0,0.0,1.0,-5.0,-5.0,-5.0,-2.0,-1.0,1651086279289026.0,0
1852,-1.0,-3.0,-14.0,-6.0,-7.0,-4.0,0.0,-1.0,1651086279290120.0,0
1853,-1.0,9.0,4.0,0.0,-2.0,-2.0,-3.0,0.0,1651086279290120.0,0
1854,0.0,-4.0,4.0,-2.0,-3.0,-1.0,0.0,2.0,1651086279311406.0,0
1855,-1.0,-1.0,-6.0,-1.0,3.0,3.0,0.0,0.0,1651086279311406.0,0
1856,1.0,4.0,2.0,0.0,2.0,0.0,1.0,1.0,1651086279312406.0,0
1857,0.0,-22.0,-4.0,-3.0,-5.0,-2.0,1.0,-1.0,1651086279312406.0,0
1858,-2.0,20.0,5.0,-2.0,-1.0,1.0,0.0,-1.0,1651086279324350.0,0
1859,-2.0,-9.0,3.0,-9.0,-11.0,-6.0,-1.0,-1.0,1651086279324350.0,0
1860,0.0,5.0,-7.0,8.0,11.0,8.0,2.0,1.0,1651086279333211.0,0
1861,-1.0,-5.0,-2.0,11.0,22.0,8.0,1.0,0.0,1651086279333211.0,0
1862,-1.0,-6.0,7.0,5.0,-1.0,-2.0,0.0,-1.0,1651086279348334.0,0
1863,0.0,-8.0,-12.0,-11.0,0.0,2.0,-1.0,1.0,1651086279348334.0,0
1864,-1.0,5.0,4.0,-2.0,-17.0,-9.0,-3.0,-3.0,1651086279350212.0,0
1865,-2.0,2.0,-2.0,-9.0,-11.0,-4.0,-2.0,-2.0,1651086279350212.0,0
1866,0.0,-11.0,-4.0,5.0,2.0,-2.0,-1.0,-1.0,1651086279371521.0,0
1867,1.0,15.0,4.0,1.0,5.0,5.0,0.0,-2.0,1651086279371521.0,0
1868,-2.0,-10.0,5.0,-2.0,-2.0,-1.0,-1.0,-1.0,1651086279372445.0,0
1869,-1.0,1.0,5.0,0.0,-4.0,-2.0,-2.0,0.0,1651086279372445.0,0
1870,-1.0,-21.0,-17.0,-3.0,0.0,1.0,-1.0,1.0,1651086279384352.0,0
1871,1.0,26.0,-2.0,-1.0,-6.0,-5.0,-2.0,-3.0,1651086279384352.0,0
1872,-2.0,-10.0,2.0,8.0,11.0,2.0,1.0,-1.0,1651086279410376.0,0
1873,1.0,11.0,6.0,0.0,2.0,1.0,-1.0,-2.0,1651086279410376.0,0
1874,1.0,-1.0,2.0,-2.0,-7.0,0.0,-1.0,0.0,1651086279411225.0,0
1875,-3.0,-10.0,-7.0,0.0,8.0,0.0,-2.0,0.0,1651086279411225.0,0
1876,0.0,0.0,3.0,-3.0,2.0,0.0,1.0,0.0,1651086279414217.0,0
1877,-1.0,-5.0,-10.0,-12.0,-9.0,-3.0,0.0,-1.0,1651086279414217.0,0
1878,0.0,2.0,-6.0,2.0,-5.0,-2.0,0.0,-1.0,1651086279431397.0,0
1879,0.0,-4.0,1.0,4.0,5.0,3.0,0.0,1.0,1651086279431397.0,0
1880,-1.0,6.0,-4.0,-6.0,-3.0,-3.0,-2.0,-1.0,1651086279432398.0,0
1881,0.0,-3.0,0.0,-5.0,-8.0,-5.0,-1.0,1.0,1651086279432398.0,0
1882,0.0,3.0,11.0,1.0,6.0,7.0,-2.0,1.0,1651086279445622.0,0
1883,0.0,-9.0,1.0,0.0,-13.0,-6.0,-1.0,0.0,1651086279445622.0,0
1884,2.0,3.0,-17.0,4.0,15.0,2.0,0.0,1.0,1651086279453516.0,0
1885,-5.0,-1.0,4.0,-11.0,-18.0,-2.0,-1.0,-1.0,1651086279453516.0,0
1886,0.0,-11.0,-5.0,-7.0,-11.0,-8.0,-1.0,-1.0,1651086279468560.0,0
1887,0.0,4.0,-5.0,20.0,29.0,10.0,3.0,1.0,1651086279468560.0,0
1888,1.0,4.0,8.0,-15.0,-14.0,-4.0,-2.0,0.0,1651086279470596.0,0
1889,0.0,3.0,13.0,6.0,-4.0,-1.0,-2.0,-1.0,1651086279470596.0,0
1890,-1.0,-3.0,-10.0,5.0,11.0,0.0,1.0,-1.0,1651086279491418.0,0
1891,0.0,-6.0,1.0,-13.0,-29.0,-10.0,-4.0,-3.0,1651086279491418.0,0
1892,-2.0,-8.0,0.0,-12.0,-6.0,-3.0,-1.0,-1.0,1651086279492418.0,0
1893,1.0,12.0,-2.0,10.0,6.0,7.0,-1.0,-1.0,1651086279492418.0,0
1894,-2.0,7.0,-7.0,-5.0,14.0,-3.0,-3.0,-1.0,1651086279505368.0,0
1895,1.0,-5.0,-6.0,3.0,-1.0,-6.0,-3.0,-1.0,1651086279505368.0,0
1896,-1.0,10.0,11.0,0.0,6.0,10.0,2.0,1.0,1651086279514225.0,0
1897,0.0,-2.0,-7.0,-20.0,-29.0,-10.0,-4.0,-2.0,1651086279514225.0,0
1898,0.0,2.0,8.0,22.0,46.0,19.0,3.0,2.0,1651086279529032.0,0
1899,0.0,3.0,-10.0,5.0,2.0,-2.0,0.0,-1.0,1651086279529032.0,0
1900,-3.0,-5.0,12.0,-20.0,-18.0,-8.0,-4.0,-3.0,1651086279530104.0,0
1901,-1.0,-4.0,-4.0,8.0,4.0,-3.0,-1.0,-1.0,1651086279530104.0,0
1902,0.0,7.0,4.0,6.0,-9.0,0.0,-1.0,0.0,1651086279551299.0,0
1903,-1.0,-8.0,-2.0,-13.0,9.0,4.0,1.0,0.0,1651086279551299.0,0
1904,1.0,-15.0,-4.0,9.0,-17.0,-7.0,-1.0,-1.0,1651086279552301.0,0
1905,1.0,12.0,-17.0,-15.0,3.0,1.0,-1.0,0.0,1651086279552301.0,0
1906,-2.0,-4.0,12.0,-13.0,-31.0,-13.0,-4.0,-3.0,1651086279573188.0,0
1907,-2.0,-5.0,-1.0,13.0,12.0,7.0,1.0,1.0,1651086279573188.0,0
1908,0.0,-4.0,-17.0,1.0,13.0,9.0,4.0,2.0,1651086279575049.0,0
1909,1.0,-5.0,10.0,13.0,13.0,-3.0,0.0,-2.0,1651086279575049.0,0
1910,1.0,-5.0,-21.0,-47.0,-32.0,-6.0,-1.0,0.0,1651086279589037.0,0
1911,0.0,11.0,22.0,17.0,5.0,6.0,1.0,0.0,1651086279589037.0,0
1912,0.0,3.0,2.0,15.0,7.0,-1.0,-2.0,-1.0,1651086279590104.0,3
1913,3.0,-6.0,-3.0,2.0,21.0,9.0,2.0,0.0,1651086279590104.0,3
1914,-3.0,-2.0,1.0,-2.0,-11.0,-6.0,-2.0,-2.0,1651086279611404.0,3
1915,0.0,-1.0,3.0,-9.0,-19.0,-7.0,-1.0,-2.0,1651086279611404.0,3
1916,1.0,5.0,1.0,-11.0,-15.0,-8.0,-1.0,-3.0,1651086279612404.0,3
1917,-3.0,-5.0,2.0,0.0,-3.0,-5.0,-1.0,0.0,1651086279612404.0,3
