,EMG_s0,EMG_s1,EMG_s2,EMG_s3,EMG_s4,EMG_s5,EMG_s6,EMG_s7,timestamp,signal
0,-1.0,-1.0,2.0,1.0,0.0,1.0,0.0,1.0,1651086316553015.0,0
1,1.0,5.0,1.0,-1.0,-1.0,1.0,0.0,0.0,1651086316553015.0,0
2,2.0,1.0,1.0,-1.0,1.0,-1.0,-1.0,0.0,1651086316554012.0,0
3,3.0,1.0,-1.0,-1.0,-1.0,-1.0,-1.0,0.0,1651086316554012.0,0
4,3.0,2.0,1.0,0.0,0.0,0.0,-1.0,-1.0,1651086316555008.0,0
5,-1.0,0.0,0.0,-1.0,-1.0,0.0,0.0,0.0,1651086316555008.0,0
6,0.0,1.0,1.0,0.0,0.0,-1.0,2.0,0.0,1651086316556006.0,0
7,-1.0,-1.0,0.0,-3.0,0.0,-1.0,-1.0,1.0,1651086316556006.0,0
8,-1.0,0.0,-1.0,-2.0,-2.0,-1.0,0.0,-1.0,1651086316565018.0,0
9,0.0,-3.0,4.0,3.0,3.0,-2.0,0.0,0.0,1651086316565018.0,0
10,0.0,-1.0,-5.0,-1.0,-1.0,1.0,-2.0,0.0,1651086316570002.0,0
11,1.0,0.0,-2.0,0.0,-1.0,0.0,1.0,0.0,1651086316570002.0,0
12,0.0,0.0,-2.0,-2.0,-3.0,-2.0,0.0,-1.0,1651086316586087.0,0
13,0.0,-2.0,0.0,-3.0,0.0,1.0,0.0,-2.0,1651086316586087.0,0
14,-1.0,0.0,1.0,-2.0,1.0,1.0,1.0,0.0,1651086316594200.0,0
15,0.0,-1.0,2.0,0.0,1.0,-1.0,-2.0,2.0,1651086316594200.0,0
16,0.0,-1.0,-1.0,0.0,3.0,2.0,0.0,-1.0,1651086316600525.0,0
17,-1.0,0.0,0.0,0.0,0.0,-2.0,0.0,-2.0,1651086316600525.0,0
18,-1.0,0.0,-1.0,-2.0,-4.0,-2.0,-1.0,1.0,1651086316624600.0,0
19,-2.0,-1.0,0.0,-2.0,-1.0,-2.0,-1.0,-2.0,1651086316624600.0,0
20,-1.0,1.0,2.0,3.0,4.0,0.0,-1.0,1.0,1651086316625439.0,0
21,1.0,1.0,0.0,0.0,-1.0,-1.0,-1.0,0.0,1651086316625439.0,0
22,0.0,-2.0,-2.0,-1.0,-3.0,-3.0,1.0,-1.0,1651086316662903.0,0
23,1.0,1.0,-1.0,3.0,2.0,0.0,0.0,0.0,1651086316662903.0,0
24,-1.0,1.0,0.0,0.0,1.0,0.0,0.0,0.0,1651086316663090.0,0
25,0.0,-2.0,-2.0,0.0,-1.0,-2.0,-2.0,-1.0,1651086316663090.0,0
26,-1.0,-1.0,0.0,2.0,4.0,2.0,1.0,1.0,1651086316664124.0,0
27,-1.0,1.0,-1.0,-1.0,0.0,0.0,-1.0,-1.0,1651086316664124.0,0
28,0.0,-1.0,-2.0,-2.0,-3.0,-3.0,1.0,-2.0,1651086316667119.0,0
29,-2.0,-2.0,-1.0,1.0,4.0,-1.0,0.0,-1.0,1651086316667119.0,0
30,0.0,2.0,-2.0,-2.0,-3.0,-2.0,0.0,0.0,1651086316674096.0,0
31,-2.0,1.0,1.0,0.0,0.0,-1.0,0.0,-2.0,1651086316674096.0,0
32,0.0,-3.0,-1.0,-1.0,0.0,-1.0,-1.0,0.0,1651086316683277.0,0
33,0.0,0.0,0.0,-2.0,-3.0,-2.0,0.0,-1.0,1651086316683277.0,0
34,-1.0,-1.0,-3.0,-1.0,0.0,2.0,0.0,-1.0,1651086316689296.0,0
35,-1.0,0.0,-1.0,0.0,-2.0,0.0,0.0,1.0,1651086316689296.0,0
36,0.0,0.0,-1.0,-1.0,-1.0,-2.0,-2.0,0.0,1651086316706216.0,0
37,-1.0,1.0,2.0,1.0,1.0,-1.0,2.0,0.0,1651086316706216.0,0
38,0.0,0.0,-1.0,0.0,2.0,0.0,-2.0,-1.0,1651086316712363.0,0
39,2.0,-3.0,0.0,-2.0,-3.0,-2.0,0.0,-1.0,1651086316712363.0,0
40,0.0,0.0,0.0,2.0,0.0,1.0,0.0,-1.0,1651086316735400.0,0
41,0.0,1.0,-2.0,-1.0,-1.0,0.0,1.0,-1.0,1651086316735400.0,0
42,0.0,-1.0,0.0,-1.0,-2.0,-2.0,-1.0,0.0,1651086316736256.0,0
43,-1.0,-1.0,-3.0,-3.0,-3.0,-3.0,-2.0,0.0,1651086316736256.0,0
44,-2.0,0.0,0.0,2.0,3.0,2.0,1.0,0.0,1651086316750198.0,0
45,-1.0,-1.0,1.0,0.0,1.0,2.0,0.0,0.0,1651086316750198.0,0
46,0.0,-1.0,-1.0,-2.0,-3.0,-1.0,1.0,-1.0,1651086316751068.0,0
47,-1.0,-1.0,0.0,-1.0,0.0,-2.0,-1.0,0.0,1651086316751068.0,0
48,1.0,2.0,-2.0,0.0,1.0,1.0,0.0,-1.0,1651086316773113.0,0
49,-1.0,-1.0,0.0,-2.0,-3.0,-2.0,-2.0,1.0,1651086316773113.0,0
50,-1.0,-1.0,0.0,-1.0,0.0,0.0,-1.0,0.0,1651086316773113.0,0
51,-1.0,-2.0,-1.0,-2.0,-3.0,-1.0,-2.0,-1.0,1651086316773113.0,0
52,-1.0,0.0,0.0,-1.0,-1.0,0.0,0.0,-2.0,1651086316794854.0,0
53,-1.0,-1.0,-1.0,1.0,0.0,2.0,0.0,0.0,1651086316794854.0,0
54,1.0,-1.0,2.0,-1.0,-1.0,-4.0,-2.0,0.0,1651086316795852.0,0
55,0.0,-1.0,-4.0,-1.0,2.0,2.0,0.0,0.0,1651086316795852.0,0
56,1.0,-2.0,0.0,1.0,2.0,2.0,0.0,0.0,1651086316810060.0,0
57,0.0,0.0,-1.0,-2.0,-1.0,0.0,-2.0,-1.0,1651086316810060.0,0
58,0.0,-1.0,-2.0,-3.0,-3.0,-2.0,-1.0,-1.0,1651086316810986.0,0
59,0.0,1.0,1.0,1.0,1.0,0.0,1.0,-1.0,1651086316810986.0,0
60,-1.0,0.0,-1.0,0.0,0.0,-1.0,0.0,-1.0,1651086316832191.0,0
61,-1.0,2.0,-2.0,0.0,-3.0,-2.0,0.0,-2.0,1651086316832191.0,0
62,-1.0,-2.0,1.0,0.0,-2.0,0.0,0.0,-2.0,1651086316833186.0,0
63,1.0,-1.0,0.0,-2.0,0.0,-1.0,0.0,-1.0,1651086316833186.0,0
64,0.0,0.0,-1.0,2.0,-2.0,-2.0,-3.0,0.0,1651086316855166.0,0
65,0.0,-1.0,1.0,1.0,1.0,1.0,1.0,-1.0,1651086316855166.0,0
66,-1.0,0.0,0.0,2.0,2.0,-2.0,2.0,-2.0,1651086316856055.0,0
67,0.0,-1.0,0.0,-1.0,-3.0,-1.0,1.0,-2.0,1651086316856055.0,0
68,0.0,0.0,-3.0,-5.0,-5.0,-3.0,-2.0,-1.0,1651086316870566.0,0
69,0.0,-2.0,-3.0,0.0,0.0,2.0,-2.0,0.0,1651086316870566.0,0
70,-3.0,-2.0,1.0,0.0,3.0,1.0,-2.0,0.0,1651086316871068.0,0
71,0.0,-2.0,-1.0,-1.0,-3.0,-1.0,0.0,-1.0,1651086316871068.0,0
72,-1.0,-1.0,1.0,-1.0,-1.0,-3.0,-1.0,0.0,1651086316893301.0,0
73,1.0,-1.0,-1.0,-1.0,-3.0,-2.0,-2.0,-1.0,1651086316893301.0,0
74,0.0,0.0,-3.0,-3.0,0.0,-1.0,0.0,-1.0,1651086316900193.0,0
75,-2.0,-1.0,-1.0,1.0,2.0,0.0,0.0,0.0,1651086316900193.0,0
76,-2.0,-1.0,-1.0,1.0,1.0,0.0,-1.0,0.0,1651086316923303.0,0
77,-1.0,0.0,0.0,-2.0,-1.0,0.0,1.0,0.0,1651086316923303.0,0
78,-1.0,-1.0,1.0,0.0,-1.0,1.0,0.0,-2.0,1651086316924332.0,0
79,-1.0,0.0,2.0,-1.0,3.0,0.0,-1.0,1.0,1651086316924332.0,0
80,1.0,1.0,0.0,-1.0,-4.0,-2.0,-2.0,1.0,1651086316930284.0,0
81,-2.0,-5.0,-7.0,-2.0,0.0,-1.0,0.0,-1.0,1651086316930284.0,0
82,-1.0,-2.0,-1.0,2.0,0.0,1.0,0.0,1.0,1651086316931313.0,0
83,0.0,-1.0,-1.0,-2.0,-3.0,-2.0,-1.0,-1.0,1651086316931313.0,0
84,-1.0,-2.0,0.0,-1.0,3.0,0.0,1.0,-1.0,1651086316952395.0,0
85,0.0,0.0,2.0,1.0,0.0,-2.0,-2.0,-1.0,1651086316952395.0,0
86,-2.0,0.0,-2.0,1.0,-2.0,-1.0,-3.0,-1.0,1651086316953247.0,0
87,-1.0,0.0,-1.0,2.0,0.0,0.0,0.0,-1.0,1651086316953247.0,0
88,-3.0,-1.0,-1.0,-1.0,-3.0,0.0,-1.0,0.0,1651086316975187.0,0
89,-1.0,0.0,-1.0,-2.0,0.0,-1.0,0.0,0.0,1651086316975187.0,0
90,-1.0,-1.0,-2.0,-4.0,-1.0,1.0,0.0,0.0,1651086316976048.0,0
91,-1.0,-1.0,0.0,3.0,-1.0,0.0,1.0,1.0,1651086316976048.0,0
92,-2.0,-2.0,0.0,-1.0,-2.0,1.0,0.0,-1.0,1651086316990480.0,0
93,-1.0,-1.0,0.0,-1.0,0.0,0.0,1.0,2.0,1651086316990480.0,0
94,-1.0,-1.0,1.0,0.0,-1.0,-1.0,0.0,-2.0,1651086316991096.0,0
95,-2.0,1.0,-2.0,-3.0,-1.0,0.0,-2.0,0.0,1651086316991096.0,0
96,0.0,1.0,1.0,-1.0,-2.0,-1.0,0.0,1.0,1651086317012699.0,0
97,0.0,-1.0,0.0,-1.0,-4.0,0.0,-1.0,-2.0,1651086317012699.0,0
98,-1.0,0.0,-1.0,1.0,6.0,0.0,0.0,1.0,1651086317013696.0,0
99,-1.0,1.0,0.0,-1.0,0.0,-1.0,0.0,-1.0,1651086317013696.0,0
100,0.0,-2.0,0.0,0.0,-1.0,-3.0,-1.0,1.0,1651086317034664.0,0
101,0.0,0.0,-6.0,-3.0,-3.0,-1.0,-1.0,1.0,1651086317034664.0,0
102,-1.0,-2.0,0.0,1.0,-2.0,1.0,0.0,0.0,1651086317035651.0,0
103,0.0,-1.0,0.0,2.0,2.0,0.0,-1.0,-2.0,1651086317035651.0,0
104,0.0,-1.0,1.0,-2.0,-2.0,-2.0,0.0,-2.0,1651086317050061.0,0
105,1.0,-1.0,0.0,-2.0,-3.0,-3.0,-3.0,0.0,1651086317050061.0,0
106,-1.0,2.0,-3.0,-3.0,-1.0,1.0,-1.0,-2.0,1651086317051062.0,0
107,0.0,-2.0,-3.0,6.0,4.0,1.0,0.0,3.0,1651086317051062.0,0
108,0.0,3.0,2.0,-8.0,-4.0,-3.0,-1.0,-2.0,1651086317072982.0,0
109,0.0,1.0,6.0,-2.0,-7.0,-3.0,-1.0,-1.0,1651086317072982.0,0
110,0.0,-2.0,-4.0,-5.0,-2.0,4.0,-1.0,-1.0,1651086317072982.0,0
111,-2.0,-23.0,-7.0,8.0,4.0,0.0,-1.0,0.0,1651086317072982.0,0
112,-2.0,11.0,2.0,-1.0,6.0,-1.0,-1.0,-2.0,1651086317094954.0,0
113,-3.0,3.0,7.0,9.0,-1.0,-1.0,1.0,-1.0,1651086317094954.0,0
114,0.0,6.0,-11.0,4.0,16.0,8.0,1.0,0.0,1651086317095954.0,0
115,0.0,3.0,-3.0,-31.0,-27.0,-11.0,-3.0,-1.0,1651086317095954.0,0
116,1.0,-5.0,-2.0,22.0,36.0,20.0,6.0,3.0,1651086317112255.0,0
117,1.0,1.0,7.0,-11.0,-7.0,-10.0,0.0,1.0,1651086317112255.0,0
118,-1.0,6.0,-6.0,-1.0,-9.0,-8.0,-3.0,-1.0,1651086317112255.0,0
119,0.0,4.0,-3.0,24.0,30.0,15.0,4.0,0.0,1651086317112255.0,0
120,0.0,-5.0,17.0,1.0,-16.0,-4.0,0.0,2.0,1651086317132228.0,0
121,-3.0,1.0,-3.0,1.0,3.0,-3.0,-1.0,-2.0,1651086317132228.0,0
122,0.0,-6.0,-3.0,-14.0,-8.0,0.0,-2.0,-1.0,1651086317133226.0,0
123,-2.0,1.0,-13.0,-21.0,-13.0,-7.0,-4.0,-2.0,1651086317133226.0,0
124,0.0,-3.0,-7.0,13.0,2.0,-3.0,-1.0,0.0,1651086317155226.0,0
125,0.0,2.0,-3.0,-8.0,-11.0,-1.0,-2.0,0.0,1651086317155226.0,0
126,0.0,-5.0,1.0,6.0,28.0,4.0,0.0,0.0,1651086317156256.0,0
127,-2.0,-2.0,4.0,5.0,-10.0,0.0,2.0,0.0,1651086317156256.0,0
128,-3.0,2.0,3.0,12.0,15.0,2.0,-1.0,-3.0,1651086317169230.0,0
129,-1.0,4.0,-3.0,-24.0,-30.0,-14.0,-6.0,-4.0,1651086317169230.0,0
130,-1.0,-10.0,4.0,3.0,-3.0,-2.0,0.0,-1.0,1651086317177368.0,0
131,-2.0,2.0,-3.0,31.0,18.0,9.0,1.0,0.0,1651086317177368.0,0
132,0.0,-4.0,-26.0,-20.0,-10.0,0.0,0.0,-1.0,1651086317200073.0,1
133,1.0,0.0,-1.0,-15.0,-9.0,-1.0,0.0,-1.0,1651086317200073.0,1
134,-1.0,-3.0,-16.0,-14.0,-24.0,-13.0,-4.0,-3.0,1651086317208360.0,1
135,0.0,-6.0,19.0,-24.0,-14.0,-7.0,0.0,-1.0,1651086317208360.0,1
136,0.0,13.0,-3.0,10.0,7.0,8.0,1.0,2.0,1651086317215377.0,1
137,1.0,-10.0,-15.0,10.0,6.0,3.0,-1.0,-1.0,1651086317215377.0,1
138,-1.0,-4.0,-17.0,-32.0,-12.0,-4.0,-1.0,-1.0,1651086317216211.0,1
139,1.0,6.0,12.0,7.0,-12.0,-11.0,-2.0,0.0,1651086317216211.0,1
140,-2.0,-6.0,-7.0,-22.0,-30.0,-8.0,-3.0,-2.0,1651086317230365.0,1
141,-2.0,-3.0,32.0,36.0,23.0,7.0,1.0,-1.0,1651086317230365.0,1
142,0.0,6.0,18.0,19.0,7.0,2.0,2.0,2.0,1651086317237564.0,1
143,0.0,1.0,6.0,-18.0,-19.0,-10.0,-4.0,-1.0,1651086317237564.0,1
144,3.0,1.0,-16.0,1.0,39.0,26.0,6.0,5.0,1651086317253224.0,1
145,-2.0,-4.0,-7.0,-3.0,-7.0,-4.0,-1.0,0.0,1651086317253224.0,1
146,2.0,5.0,28.0,32.0,28.0,9.0,4.0,3.0,1651086317253224.0,1
147,0.0,4.0,-11.0,-12.0,-2.0,-6.0,-4.0,-1.0,1651086317253224.0,1
148,-3.0,-7.0,3.0,-13.0,-25.0,-15.0,-4.0,-3.0,1651086317275643.0,1
149,-1.0,0.0,-32.0,-21.0,-17.0,-4.0,0.0,0.0,1651086317275643.0,1
150,-2.0,6.0,9.0,6.0,-11.0,-5.0,-2.0,-1.0,1651086317275643.0,1
151,0.0,3.0,9.0,0.0,10.0,8.0,3.0,1.0,1651086317275643.0,1
152,-1.0,-7.0,-13.0,7.0,4.0,-4.0,-1.0,-3.0,1651086317298681.0,1
153,-1.0,-6.0,4.0,3.0,14.0,6.0,1.0,-1.0,1651086317298681.0,1
154,-3.0,-3.0,-24.0,-30.0,-24.0,-12.0,-4.0,-3.0,1651086317299681.0,1
155,3.0,7.0,29.0,6.0,-15.0,-2.0,4.0,0.0,1651086317299681.0,1
156,-5.0,-10.0,-32.0,-24.0,-23.0,-13.0,-8.0,-5.0,1651086317313223.0,1
157,1.0,-5.0,-9.0,-9.0,11.0,7.0,2.0,3.0,1651086317313223.0,1
158,-1.0,2.0,4.0,16.0,-2.0,-5.0,-3.0,-3.0,1651086317313223.0,1
159,-1.0,-1.0,-19.0,-13.0,4.0,2.0,0.0,0.0,1651086317313223.0,1
160,-2.0,1.0,47.0,27.0,10.0,3.0,1.0,-1.0,1651086317335385.0,1
161,1.0,5.0,-5.0,-21.0,-8.0,-6.0,-3.0,-1.0,1651086317335385.0,1
162,1.0,-2.0,-8.0,15.0,14.0,6.0,-1.0,0.0,1651086317336219.0,1
163,-2.0,-7.0,-5.0,-4.0,1.0,1.0,-2.0,-2.0,1651086317336219.0,1
164,1.0,0.0,22.0,11.0,-6.0,-2.0,1.0,1.0,1651086317349070.0,1
165,-2.0,5.0,12.0,-2.0,-13.0,-2.0,0.0,-2.0,1651086317349070.0,1
166,-1.0,-1.0,-1.0,-12.0,-17.0,-6.0,-2.0,-1.0,1651086317357366.0,1
167,2.0,0.0,-16.0,18.0,58.0,23.0,3.0,3.0,1651086317357366.0,1
168,3.0,1.0,-9.0,-21.0,-28.0,-11.0,-4.0,0.0,1651086317372371.0,1
169,3.0,4.0,40.0,52.0,41.0,15.0,4.0,3.0,1651086317372371.0,1
170,-1.0,-1.0,0.0,9.0,0.0,5.0,3.0,0.0,1651086317373234.0,1
171,-4.0,-7.0,-46.0,-20.0,-19.0,-11.0,-8.0,-5.0,1651086317373234.0,1
172,1.0,1.0,-4.0,-14.0,-10.0,-6.0,-1.0,0.0,1651086317395272.0,1
173,-2.0,-5.0,-23.0,-14.0,-9.0,-5.0,-6.0,-1.0,1651086317395272.0,1
174,1.0,4.0,25.0,18.0,26.0,10.0,4.0,2.0,1651086317396105.0,1
175,2.0,3.0,-19.0,-2.0,-5.0,-1.0,4.0,0.0,1651086317396105.0,1
176,-1.0,2.0,29.0,19.0,13.0,5.0,-3.0,-4.0,1651086317410405.0,1
177,-1.0,-5.0,-13.0,-3.0,-12.0,-6.0,-2.0,-1.0,1651086317410405.0,1
178,4.0,5.0,20.0,5.0,-5.0,1.0,1.0,2.0,1651086317417142.0,1
179,0.0,3.0,-7.0,9.0,4.0,1.0,-1.0,-2.0,1651086317417142.0,1
180,-2.0,0.0,45.0,18.0,-3.0,-4.0,-1.0,-1.0,1651086317432526.0,1
181,1.0,1.0,-18.0,7.0,10.0,4.0,3.0,1.0,1651086317432526.0,1
182,0.0,-6.0,-8.0,-27.0,-4.0,1.0,-1.0,0.0,1651086317433523.0,1
183,4.0,5.0,11.0,21.0,6.0,0.0,2.0,3.0,1651086317433523.0,1
184,1.0,2.0,-9.0,-18.0,-4.0,0.0,-1.0,-1.0,1651086317455222.0,1
185,-4.0,1.0,4.0,7.0,17.0,5.0,0.0,-4.0,1651086317455222.0,1
186,0.0,-4.0,-19.0,-17.0,-9.0,-3.0,-1.0,0.0,1651086317456243.0,1
187,-4.0,-6.0,14.0,-10.0,-20.0,-12.0,-12.0,-8.0,1651086317456243.0,1
188,0.0,-4.0,-24.0,-14.0,-1.0,3.0,7.0,4.0,1651086317470424.0,1
189,-3.0,0.0,14.0,-2.0,-1.0,-6.0,-7.0,-2.0,1651086317470424.0,1
190,-1.0,1.0,2.0,-7.0,-3.0,-12.0,-10.0,-2.0,1651086317477491.0,1
191,-5.0,-10.0,-27.0,3.0,1.0,16.0,10.0,1.0,1651086317477491.0,1
192,-3.0,2.0,16.0,0.0,0.0,-16.0,-14.0,-7.0,1651086317493224.0,1
193,4.0,3.0,-9.0,-5.0,10.0,27.0,17.0,6.0,1651086317493224.0,1
194,-1.0,-1.0,35.0,19.0,-5.0,-7.0,-6.0,-2.0,1651086317493224.0,1
195,-2.0,-4.0,-24.0,-16.0,-6.0,-5.0,-3.0,-1.0,1651086317493224.0,1
196,-1.0,-1.0,-16.0,19.0,10.0,2.0,1.0,1.0,1651086317515389.0,1
197,-1.0,-1.0,1.0,5.0,-6.0,-8.0,-3.0,-1.0,1651086317515389.0,1
198,2.0,1.0,9.0,-6.0,-2.0,2.0,1.0,2.0,1651086317516222.0,1
199,2.0,3.0,1.0,5.0,3.0,0.0,3.0,1.0,1651086317516222.0,1
200,7.0,1.0,-31.0,-17.0,2.0,1.0,-2.0,1.0,1651086317529220.0,1
201,-13.0,-4.0,22.0,-10.0,-2.0,-6.0,-5.0,-6.0,1651086317529220.0,1
202,0.0,-1.0,-22.0,15.0,4.0,1.0,3.0,11.0,1651086317537197.0,1
203,4.0,4.0,19.0,7.0,1.0,-5.0,-6.0,-21.0,1651086317537197.0,1
204,-1.0,-2.0,-19.0,-11.0,-4.0,6.0,4.0,3.0,1651086317552126.0,1
205,5.0,0.0,9.0,10.0,-3.0,-3.0,3.0,-3.0,1651086317552126.0,1
206,-8.0,-2.0,-1.0,-3.0,3.0,5.0,-1.0,-4.0,1651086317553122.0,1
207,15.0,0.0,-3.0,-4.0,0.0,-7.0,-4.0,4.0,1651086317553122.0,1
208,-7.0,-1.0,3.0,11.0,2.0,-17.0,-13.0,-4.0,1651086317575356.0,1
209,5.0,1.0,5.0,-14.0,-6.0,9.0,8.0,7.0,1651086317575356.0,1
210,-2.0,-7.0,-5.0,4.0,-1.0,-6.0,1.0,-4.0,1651086317576209.0,1
211,-2.0,-2.0,6.0,2.0,-11.0,5.0,6.0,5.0,1651086317576209.0,1
212,-1.0,2.0,14.0,8.0,22.0,5.0,1.0,-3.0,1651086317598080.0,1
213,-2.0,-5.0,-19.0,0.0,5.0,-2.0,-2.0,1.0,1651086317598080.0,1
214,-6.0,-4.0,10.0,-8.0,-3.0,-1.0,3.0,-8.0,1651086317598080.0,1
215,-6.0,-4.0,-48.0,-11.0,-2.0,-4.0,-3.0,2.0,1651086317598080.0,1
216,3.0,0.0,21.0,5.0,-12.0,-2.0,3.0,2.0,1651086317613122.0,1
217,1.0,-1.0,-14.0,-5.0,-2.0,-6.0,-2.0,-1.0,1651086317613122.0,1
218,-4.0,0.0,-12.0,-3.0,-1.0,6.0,2.0,-3.0,1651086317613122.0,1
219,-9.0,2.0,28.0,2.0,3.0,-3.0,-1.0,-2.0,1651086317613122.0,1
220,5.0,-2.0,-5.0,-12.0,-3.0,6.0,6.0,4.0,1651086317635543.0,1
221,2.0,-2.0,3.0,14.0,1.0,-4.0,-1.0,-1.0,1651086317635543.0,1
222,1.0,1.0,6.0,-8.0,-3.0,2.0,-1.0,-2.0,1651086317635543.0,1
223,-1.0,2.0,14.0,-2.0,3.0,0.0,1.0,4.0,1651086317635543.0,1
224,-2.0,0.0,-2.0,10.0,4.0,5.0,2.0,-1.0,1651086317658029.0,1
225,0.0,0.0,-11.0,-14.0,0.0,0.0,-1.0,0.0,1651086317658029.0,1
226,3.0,-3.0,-8.0,-3.0,-5.0,-1.0,2.0,1.0,1651086317658029.0,1
227,-6.0,2.0,21.0,13.0,1.0,-7.0,-10.0,-1.0,1651086317658029.0,1
228,2.0,-3.0,-22.0,-17.0,-5.0,0.0,0.0,-3.0,1651086317680188.0,1
229,-1.0,0.0,-3.0,0.0,-3.0,-1.0,-2.0,-1.0,1651086317680188.0,1
230,2.0,3.0,11.0,25.0,7.0,1.0,4.0,1.0,1651086317681042.0,1
231,0.0,0.0,15.0,-3.0,2.0,1.0,4.0,-1.0,1651086317681042.0,1
232,2.0,4.0,4.0,-1.0,-1.0,3.0,3.0,5.0,1651086317695352.0,1
233,-5.0,-3.0,2.0,-12.0,-7.0,-7.0,-6.0,-7.0,1651086317695352.0,1
234,-2.0,-3.0,-20.0,-2.0,0.0,2.0,-2.0,-4.0,1651086317703141.0,1
235,-3.0,-2.0,9.0,-10.0,-3.0,-4.0,-3.0,-3.0,1651086317703141.0,1
236,5.0,2.0,1.0,1.0,3.0,11.0,10.0,5.0,1651086317717991.0,1
237,0.0,-1.0,1.0,12.0,-2.0,-2.0,-3.0,0.0,1651086317717991.0,1
238,4.0,-2.0,-15.0,-23.0,-1.0,0.0,1.0,1.0,1651086317717991.0,1
239,-1.0,4.0,33.0,26.0,1.0,2.0,0.0,-5.0,1651086317717991.0,1
240,-3.0,1.0,14.0,8.0,-1.0,-3.0,0.0,-3.0,1651086317740627.0,1
241,5.0,-1.0,-7.0,-10.0,0.0,3.0,2.0,5.0,1651086317740627.0,1
242,-3.0,0.0,7.0,7.0,-1.0,-1.0,0.0,-2.0,1651086317740627.0,1
243,7.0,1.0,-11.0,-5.0,7.0,4.0,3.0,16.0,1651086317740627.0,1
244,-14.0,-3.0,-1.0,5.0,-2.0,-5.0,-7.0,-31.0,1651086317754356.0,1
245,-4.0,4.0,22.0,23.0,0.0,-2.0,0.0,0.0,1651086317754356.0,1
246,-1.0,-4.0,-15.0,-9.0,0.0,-2.0,-2.0,-4.0,1651086317762236.0,1
247,-1.0,0.0,-2.0,-16.0,-4.0,1.0,2.0,1.0,1651086317762236.0,1
248,2.0,-4.0,-19.0,9.0,0.0,-6.0,-7.0,2.0,1651086317778127.0,1
249,0.0,-2.0,-4.0,-19.0,0.0,-1.0,-4.0,0.0,1651086317778127.0,1
250,-1.0,-1.0,-21.0,3.0,-1.0,1.0,8.0,-6.0,1651086317778127.0,1
251,-2.0,-1.0,-1.0,-1.0,-5.0,4.0,1.0,8.0,1651086317778127.0,1
252,-2.0,-4.0,-7.0,-13.0,-8.0,-2.0,-1.0,2.0,1651086317800294.0,1
253,4.0,2.0,4.0,-4.0,3.0,5.0,3.0,0.0,1651086317800294.0,1
254,0.0,-2.0,-4.0,-10.0,-7.0,-6.0,-6.0,2.0,1651086317801328.0,1
255,-3.0,0.0,-5.0,16.0,5.0,0.0,2.0,3.0,1651086317801328.0,1
256,0.0,-3.0,4.0,-30.0,-5.0,-3.0,-3.0,-14.0,1651086317823350.0,1
257,-5.0,1.0,9.0,6.0,5.0,-1.0,-1.0,0.0,1651086317823350.0,1
258,5.0,2.0,13.0,8.0,3.0,3.0,3.0,1.0,1651086317824215.0,1
259,0.0,-2.0,-42.0,-20.0,-10.0,-5.0,-7.0,-8.0,1651086317824215.0,1
260,-2.0,1.0,30.0,16.0,13.0,-2.0,-2.0,9.0,1651086317837741.0,1
261,2.0,-2.0,-13.0,-2.0,-7.0,-6.0,0.0,-2.0,1651086317837741.0,1
262,1.0,-4.0,-29.0,-6.0,1.0,-1.0,-3.0,0.0,1651086317838741.0,1
263,-3.0,-1.0,18.0,-7.0,-6.0,0.0,-1.0,-4.0,1651086317838741.0,1
264,-2.0,-1.0,-21.0,5.0,1.0,2.0,1.0,2.0,1651086317861108.0,1
265,-1.0,-6.0,0.0,-13.0,-5.0,-3.0,-1.0,-3.0,1651086317861108.0,1
266,0.0,3.0,16.0,15.0,1.0,3.0,-2.0,3.0,1651086317861108.0,1
267,3.0,0.0,6.0,2.0,3.0,4.0,1.0,-3.0,1651086317861108.0,1
268,-7.0,-6.0,-16.0,3.0,-1.0,-3.0,-4.0,0.0,1651086317874337.0,1
269,1.0,3.0,-2.0,-4.0,1.0,1.0,3.0,0.0,1651086317874337.0,1
270,-6.0,3.0,-2.0,-5.0,-4.0,-3.0,-2.0,-3.0,1651086317882178.0,1
271,3.0,-2.0,7.0,12.0,0.0,-1.0,3.0,4.0,1651086317882178.0,1
272,2.0,-2.0,-7.0,-6.0,-3.0,-2.0,-2.0,-2.0,1651086317897276.0,1
273,-1.0,1.0,-9.0,10.0,3.0,2.0,1.0,1.0,1651086317897276.0,1
274,-4.0,-2.0,22.0,-4.0,0.0,-1.0,0.0,0.0,1651086317898160.0,1
275,0.0,-1.0,0.0,-5.0,-2.0,-3.0,-4.0,3.0,1651086317898160.0,1
276,8.0,-1.0,7.0,-12.0,-1.0,3.0,5.0,11.0,1651086317921344.0,1
277,-5.0,-2.0,-17.0,-8.0,-7.0,-5.0,-3.0,-8.0,1651086317921344.0,1
278,-1.0,-2.0,-9.0,3.0,-6.0,-5.0,-8.0,3.0,1651086317921344.0,1
279,-5.0,-2.0,3.0,6.0,7.0,-2.0,-5.0,-5.0,1651086317921344.0,1
280,-1.0,-1.0,1.0,-5.0,-2.0,0.0,2.0,-2.0,1651086317935353.0,1
281,13.0,1.0,-1.0,-2.0,-1.0,1.0,0.0,4.0,1651086317935353.0,1
282,-4.0,0.0,-5.0,-9.0,-7.0,-2.0,0.0,-1.0,1651086317943226.0,1
283,2.0,-1.0,27.0,31.0,-1.0,-2.0,-2.0,-10.0,1651086317943226.0,1
284,-1.0,2.0,-10.0,5.0,6.0,3.0,3.0,13.0,1651086317958225.0,1
285,2.0,0.0,-11.0,-7.0,4.0,1.0,4.0,2.0,1651086317958225.0,1
286,1.0,0.0,30.0,10.0,1.0,0.0,-1.0,-4.0,1651086317958225.0,1
287,-1.0,1.0,-6.0,-3.0,0.0,1.0,0.0,3.0,1651086317958225.0,1
288,2.0,-5.0,-37.0,-20.0,-1.0,1.0,3.0,-1.0,1651086317981402.0,1
289,-5.0,-1.0,30.0,27.0,7.0,2.0,1.0,0.0,1651086317981402.0,1
290,-1.0,3.0,7.0,3.0,2.0,0.0,1.0,-1.0,1651086317981402.0,1
291,-3.0,0.0,-19.0,-28.0,-3.0,-3.0,-3.0,-5.0,1651086317981402.0,1
292,1.0,1.0,17.0,10.0,-2.0,0.0,1.0,-2.0,1651086317995366.0,1
293,0.0,-2.0,-7.0,-15.0,-6.0,-2.0,-2.0,-3.0,1651086317995366.0,1
294,-6.0,0.0,13.0,14.0,5.0,0.0,-1.0,3.0,1651086318003228.0,1
295,-2.0,-4.0,-14.0,-13.0,1.0,1.0,3.0,-3.0,1651086318003228.0,1
296,2.0,3.0,-2.0,-11.0,-2.0,1.0,2.0,3.0,1651086318018402.0,1
297,-4.0,2.0,14.0,3.0,0.0,-1.0,-4.0,-2.0,1651086318018402.0,1
298,1.0,-4.0,11.0,-4.0,-3.0,-2.0,0.0,-2.0,1651086318018402.0,1
299,-1.0,2.0,-9.0,0.0,-3.0,-2.0,1.0,-2.0,1651086318018402.0,1
300,2.0,-2.0,-16.0,4.0,-1.0,-3.0,-3.0,3.0,1651086318042067.0,1
301,-4.0,-2.0,1.0,9.0,-1.0,-3.0,-3.0,-2.0,1651086318042067.0,1
302,10.0,1.0,-7.0,-7.0,4.0,8.0,4.0,4.0,1651086318043078.0,1
303,-3.0,-5.0,-23.0,-2.0,5.0,-1.0,-4.0,-3.0,1651086318043078.0,1
304,-4.0,3.0,36.0,16.0,-1.0,6.0,5.0,2.0,1651086318063217.0,1
305,6.0,-3.0,-19.0,-7.0,-2.0,4.0,2.0,11.0,1651086318063217.0,1
306,2.0,-4.0,-38.0,-14.0,0.0,-3.0,-6.0,-26.0,1651086318064217.0,1
307,3.0,4.0,24.0,9.0,-3.0,3.0,4.0,5.0,1651086318064217.0,1
308,0.0,2.0,7.0,-6.0,-1.0,-1.0,2.0,0.0,1651086318078577.0,1
309,1.0,-4.0,-12.0,1.0,3.0,-1.0,1.0,0.0,1651086318078577.0,1
310,-3.0,1.0,-4.0,-5.0,0.0,2.0,2.0,4.0,1651086318078577.0,1
311,0.0,0.0,17.0,13.0,-7.0,-2.0,-1.0,0.0,1651086318078577.0,1
312,4.0,2.0,0.0,-1.0,-4.0,-4.0,-2.0,-3.0,1651086318101430.0,1
313,0.0,0.0,13.0,3.0,0.0,-2.0,1.0,-1.0,1651086318101430.0,1
314,-1.0,-2.0,-21.0,15.0,2.0,0.0,2.0,6.0,1651086318101430.0,1
315,-1.0,0.0,1.0,-20.0,-1.0,0.0,-1.0,-4.0,1651086318101430.0,1
316,-5.0,-1.0,18.0,3.0,-4.0,-3.0,-7.0,-1.0,1651086318131398.0,1
317,-4.0,3.0,17.0,28.0,5.0,1.0,0.0,-5.0,1651086318131398.0,1
318,2.0,-5.0,-33.0,-42.0,-2.0,-1.0,-1.0,5.0,1651086318131398.0,1
319,-5.0,1.0,-10.0,11.0,-1.0,-1.0,-2.0,0.0,1651086318131398.0,1
320,-2.0,-4.0,8.0,3.0,-1.0,0.0,1.0,3.0,1651086318137256.0,1
321,3.0,3.0,4.0,6.0,0.0,1.0,0.0,-2.0,1651086318137256.0,1
322,-1.0,2.0,13.0,-11.0,-6.0,-1.0,0.0,-1.0,1651086318138222.0,1
323,0.0,-3.0,-5.0,2.0,3.0,2.0,0.0,-1.0,1651086318138222.0,1
324,0.0,-3.0,1.0,4.0,-3.0,-3.0,-2.0,2.0,1651086318161393.0,1
325,-3.0,-3.0,-1.0,-17.0,-4.0,1.0,0.0,-1.0,1651086318161393.0,1
326,-1.0,1.0,-1.0,10.0,1.0,-3.0,1.0,3.0,1651086318161393.0,1
327,1.0,-3.0,7.0,-3.0,1.0,-1.0,-1.0,3.0,1651086318161393.0,1
328,3.0,0.0,-20.0,-9.0,-2.0,-3.0,3.0,8.0,1651086318183362.0,1
329,-1.0,2.0,23.0,14.0,2.0,0.0,-2.0,-5.0,1651086318183362.0,1
330,0.0,-5.0,-13.0,-1.0,-11.0,-3.0,-1.0,0.0,1651086318184225.0,1
331,0.0,-3.0,-9.0,-13.0,4.0,2.0,2.0,-3.0,1651086318184225.0,1
332,-14.0,3.0,6.0,15.0,9.0,1.0,-5.0,-8.0,1651086318198329.0,1
333,-3.0,-2.0,-21.0,-29.0,-5.0,-1.0,0.0,-1.0,1651086318198329.0,1
334,1.0,4.0,20.0,29.0,1.0,-3.0,-2.0,0.0,1651086318198329.0,1
335,-1.0,-6.0,-11.0,-30.0,-7.0,-1.0,-1.0,-3.0,1651086318198329.0,1
336,0.0,-4.0,-9.0,9.0,-1.0,-2.0,-2.0,-3.0,1651086318221890.0,1
337,-3.0,-2.0,-14.0,-5.0,-4.0,-4.0,-3.0,-6.0,1651086318221890.0,1
338,0.0,-5.0,8.0,-5.0,5.0,3.0,4.0,0.0,1651086318221890.0,1
339,1.0,4.0,-13.0,6.0,-2.0,-3.0,-2.0,3.0,1651086318221890.0,1
340,-1.0,0.0,20.0,-3.0,2.0,0.0,3.0,-1.0,1651086318244322.0,1
341,-2.0,-4.0,-9.0,6.0,-3.0,-4.0,-2.0,-8.0,1651086318244322.0,1
342,-1.0,0.0,2.0,2.0,7.0,2.0,-1.0,4.0,1651086318244322.0,1
343,0.0,2.0,0.0,5.0,-4.0,0.0,0.0,2.0,1651086318244322.0,1
344,1.0,-2.0,-12.0,-26.0,-5.0,-1.0,-3.0,-8.0,1651086318258382.0,1
345,3.0,1.0,17.0,18.0,1.0,2.0,0.0,3.0,1651086318258382.0,1
346,0.0,1.0,0.0,2.0,-1.0,-2.0,0.0,4.0,1651086318258382.0,1
347,-2.0,0.0,9.0,11.0,1.0,-2.0,-1.0,-6.0,1651086318258382.0,1
348,4.0,2.0,-2.0,-4.0,-1.0,-1.0,0.0,2.0,1651086318281406.0,1
349,-5.0,-4.0,-22.0,-9.0,-4.0,0.0,0.0,-1.0,1651086318281406.0,1
350,-7.0,3.0,17.0,11.0,12.0,6.0,1.0,-6.0,1651086318281406.0,1
351,10.0,0.0,10.0,-12.0,-4.0,0.0,2.0,5.0,1651086318281406.0,1
352,0.0,1.0,24.0,29.0,-1.0,-3.0,-2.0,-1.0,1651086318303201.0,1
353,-1.0,-3.0,-30.0,-15.0,-6.0,-5.0,-3.0,-2.0,1651086318303201.0,1
354,2.0,1.0,13.0,2.0,2.0,1.0,-2.0,0.0,1651086318310657.0,1
355,-7.0,-4.0,-38.0,-18.0,-5.0,-5.0,-1.0,6.0,1651086318310657.0,1
356,-4.0,-3.0,6.0,7.0,2.0,4.0,-1.0,-7.0,1651086318318246.0,1
357,1.0,4.0,21.0,7.0,3.0,1.0,1.0,3.0,1651086318318246.0,1
358,1.0,-1.0,-3.0,-12.0,0.0,-2.0,-1.0,-1.0,1651086318318246.0,1
359,1.0,3.0,12.0,4.0,0.0,-1.0,1.0,0.0,1651086318318246.0,1
360,-1.0,-2.0,-9.0,2.0,-1.0,0.0,2.0,-1.0,1651086318341860.0,1
361,8.0,2.0,4.0,5.0,3.0,0.0,-2.0,3.0,1651086318341860.0,1
362,-7.0,-2.0,23.0,9.0,-9.0,-5.0,1.0,-3.0,1651086318341860.0,1
363,-1.0,-1.0,0.0,-2.0,-1.0,1.0,-5.0,1.0,1651086318341860.0,1
364,0.0,0.0,-24.0,-7.0,-2.0,-1.0,0.0,0.0,1651086318363213.0,1
365,-4.0,-1.0,1.0,-6.0,-3.0,0.0,-1.0,-1.0,1651086318363213.0,1
366,2.0,3.0,-3.0,8.0,2.0,-1.0,2.0,12.0,1651086318364213.0,1
367,14.0,0.0,9.0,-3.0,2.0,0.0,-1.0,-9.0,1651086318364213.0,1
368,-14.0,-4.0,6.0,25.0,-2.0,-2.0,0.0,2.0,1651086318379137.0,1
369,2.0,1.0,-3.0,-3.0,2.0,0.0,0.0,-2.0,1651086318379137.0,1
370,-11.0,-3.0,8.0,1.0,-4.0,-1.0,0.0,4.0,1651086318380169.0,1
371,4.0,4.0,9.0,10.0,1.0,1.0,2.0,6.0,1651086318380169.0,1
372,7.0,2.0,-4.0,-12.0,3.0,1.0,3.0,23.0,1651086318401340.0,1
373,-6.0,-2.0,13.0,8.0,-5.0,-8.0,-10.0,-38.0,1651086318401340.0,1
374,1.0,-2.0,9.0,8.0,5.0,0.0,0.0,-6.0,1651086318401340.0,1
375,-8.0,-1.0,-4.0,-3.0,4.0,4.0,3.0,-4.0,1651086318401340.0,1
376,14.0,3.0,-2.0,-10.0,-1.0,-2.0,-1.0,-2.0,1651086318424324.0,1
377,-4.0,1.0,-10.0,5.0,-5.0,0.0,2.0,13.0,1651086318424324.0,1
378,6.0,-9.0,-11.0,-25.0,-12.0,-5.0,-4.0,-3.0,1651086318424324.0,1
379,-5.0,2.0,-6.0,9.0,7.0,-1.0,-3.0,-9.0,1651086318424324.0,1
380,0.0,-3.0,-10.0,-10.0,2.0,1.0,0.0,0.0,1651086318438009.0,1
381,0.0,3.0,4.0,-6.0,0.0,1.0,3.0,8.0,1651086318438009.0,1
382,-1.0,0.0,-14.0,-7.0,-4.0,-4.0,-4.0,-7.0,1651086318438009.0,1
383,-2.0,-4.0,-20.0,-10.0,-4.0,0.0,4.0,6.0,1651086318438009.0,1
384,3.0,5.0,18.0,18.0,1.0,-2.0,-3.0,-6.0,1651086318461369.0,1
385,-3.0,-6.0,9.0,-3.0,1.0,4.0,0.0,6.0,1651086318461369.0,1
386,-2.0,3.0,-13.0,-4.0,-3.0,-2.0,-2.0,-8.0,1651086318461369.0,1
387,-5.0,-5.0,13.0,6.0,-3.0,-1.0,0.0,2.0,1651086318461369.0,1
388,3.0,-3.0,-20.0,-16.0,2.0,-1.0,-2.0,-8.0,1651086318483348.0,1
389,0.0,2.0,11.0,21.0,0.0,-1.0,1.0,5.0,1651086318483348.0,1
390,3.0,-4.0,-18.0,-13.0,1.0,-2.0,-4.0,-3.0,1651086318484217.0,1
391,-3.0,7.0,23.0,17.0,1.0,-1.0,-3.0,-4.0,1651086318484217.0,1
392,-2.0,-2.0,-13.0,-8.0,-1.0,1.0,-2.0,-3.0,1651086318498295.0,1
393,0.0,-7.0,37.0,13.0,4.0,1.0,2.0,5.0,1651086318498295.0,1
394,-4.0,-3.0,-22.0,-25.0,-8.0,-2.0,1.0,0.0,1651086318498295.0,1
395,2.0,0.0,-3.0,4.0,-1.0,-4.0,-1.0,-1.0,1651086318498295.0,1
396,-2.0,2.0,0.0,-6.0,-8.0,1.0,0.0,-3.0,1651086318520392.0,1
397,3.0,3.0,5.0,11.0,15.0,4.0,1.0,2.0,1651086318520392.0,1
398,1.0,-5.0,-9.0,-3.0,-6.0,-5.0,-2.0,2.0,1651086318521238.0,1
399,-1.0,12.0,11.0,0.0,7.0,5.0,0.0,0.0,1651086318521238.0,1
400,-4.0,3.0,9.0,0.0,0.0,-1.0,0.0,-4.0,1651086318544287.0,1
401,0.0,-3.0,-34.0,-17.0,-7.0,1.0,-2.0,0.0,1651086318544287.0,1
402,2.0,11.0,11.0,12.0,-2.0,-4.0,-1.0,0.0,1651086318544287.0,1
403,-2.0,-7.0,0.0,-13.0,-10.0,-4.0,0.0,-2.0,1651086318544287.0,1
404,-3.0,2.0,2.0,8.0,1.0,3.0,1.0,-2.0,1651086318558534.0,1
405,-1.0,-19.0,-6.0,12.0,5.0,1.0,0.0,0.0,1651086318558534.0,1
406,-1.0,-2.0,-5.0,0.0,4.0,1.0,-2.0,1.0,1651086318558534.0,1
407,1.0,-7.0,5.0,1.0,-5.0,-2.0,0.0,1.0,1651086318558534.0,1
408,-4.0,6.0,5.0,-4.0,-8.0,-4.0,-5.0,-2.0,1651086318588417.0,1
409,5.0,11.0,-32.0,-20.0,-5.0,-1.0,0.0,-1.0,1651086318588417.0,1
410,-3.0,-9.0,8.0,8.0,2.0,1.0,1.0,2.0,1651086318589016.0,1
411,-1.0,5.0,3.0,4.0,3.0,2.0,-2.0,-2.0,1651086318589016.0,1
412,1.0,-12.0,0.0,-3.0,6.0,3.0,2.0,2.0,1651086318604353.0,1
413,-2.0,-3.0,-9.0,-7.0,-2.0,-2.0,0.0,2.0,1651086318604353.0,1
414,0.0,-7.0,-6.0,0.0,-4.0,-2.0,0.0,1.0,1651086318604353.0,1
415,-1.0,-5.0,-2.0,3.0,4.0,3.0,0.0,-1.0,1651086318604353.0,1
416,0.0,2.0,21.0,-3.0,-4.0,-3.0,1.0,0.0,1651086318618353.0,1
417,-4.0,-12.0,-21.0,-9.0,-5.0,-2.0,-1.0,-2.0,1651086318618353.0,1
418,2.0,1.0,6.0,8.0,-1.0,1.0,-1.0,2.0,1651086318618353.0,1
419,-3.0,-6.0,-15.0,-6.0,-3.0,-4.0,-2.0,-1.0,1651086318618353.0,1
420,4.0,11.0,-14.0,1.0,-1.0,1.0,-1.0,0.0,1651086318648702.0,1
421,-2.0,4.0,29.0,4.0,5.0,2.0,3.0,2.0,1651086318648702.0,1
422,7.0,8.0,6.0,-8.0,-6.0,-3.0,-3.0,0.0,1651086318649076.0,1
423,-7.0,-6.0,6.0,13.0,6.0,6.0,4.0,0.0,1651086318649076.0,1
424,-5.0,-10.0,-16.0,-2.0,-2.0,-3.0,-2.0,-4.0,1651086318663233.0,1
425,2.0,-5.0,3.0,-6.0,-2.0,-4.0,-4.0,-9.0,1651086318663233.0,1
426,1.0,20.0,22.0,7.0,5.0,1.0,2.0,3.0,1651086318664265.0,1
427,-1.0,-10.0,-35.0,-3.0,-8.0,-2.0,-2.0,2.0,1651086318664265.0,1
428,-3.0,-7.0,-2.0,4.0,0.0,0.0,-1.0,-7.0,1651086318677360.0,1
429,6.0,14.0,8.0,-11.0,-8.0,-4.0,-2.0,-1.0,1651086318677360.0,1
430,-1.0,-15.0,-10.0,1.0,3.0,2.0,4.0,7.0,1651086318685219.0,1
431,11.0,9.0,18.0,2.0,0.0,-3.0,-3.0,-6.0,1651086318685219.0,1
432,2.0,-27.0,4.0,-2.0,-2.0,-3.0,2.0,9.0,1651086318700211.0,1
433,-5.0,19.0,-9.0,-1.0,4.0,3.0,0.0,-1.0,1651086318700211.0,1
434,-4.0,-3.0,14.0,4.0,1.0,3.0,1.0,-3.0,1651086318701069.0,1
435,4.0,-4.0,-19.0,-8.0,-6.0,-3.0,0.0,4.0,1651086318701069.0,1
436,-3.0,1.0,3.0,-1.0,0.0,2.0,-2.0,1.0,1651086318723515.0,1
437,0.0,-26.0,-2.0,3.0,2.0,-1.0,-1.0,1.0,1651086318723515.0,1
438,-1.0,4.0,-13.0,-3.0,-1.0,-1.0,-1.0,-4.0,1651086318724514.0,1
439,-7.0,11.0,18.0,0.0,-2.0,-3.0,-3.0,-4.0,1651086318724514.0,1
440,-1.0,2.0,-7.0,-5.0,-3.0,-2.0,-3.0,-2.0,1651086318737547.0,1
441,-2.0,5.0,-3.0,-3.0,-1.0,2.0,1.0,-1.0,1651086318737547.0,1
442,-4.0,7.0,-1.0,2.0,0.0,-2.0,0.0,-1.0,1651086318745522.0,1
443,0.0,-11.0,1.0,-1.0,0.0,-1.0,-1.0,-2.0,1651086318745522.0,1
444,-1.0,12.0,8.0,-1.0,-3.0,-2.0,-2.0,-2.0,1651086318760792.0,1
445,2.0,-3.0,-18.0,-1.0,-1.0,0.0,3.0,4.0,1651086318760792.0,1
446,-3.0,-3.0,0.0,-1.0,0.0,3.0,-3.0,-4.0,1651086318760792.0,1
447,1.0,-16.0,7.0,2.0,4.0,3.0,2.0,1.0,1651086318760792.0,1
448,2.0,4.0,-1.0,-1.0,0.0,-1.0,-2.0,-3.0,1651086318784392.0,1
449,-2.0,16.0,-1.0,0.0,-4.0,-2.0,0.0,-1.0,1651086318784392.0,1
450,-1.0,-5.0,17.0,1.0,-1.0,0.0,-1.0,-1.0,1651086318785235.0,1
451,-4.0,-11.0,-31.0,-6.0,-2.0,-3.0,-2.0,-3.0,1651086318785235.0,1
452,-3.0,-4.0,-12.0,-3.0,-2.0,1.0,1.0,0.0,1651086318806379.0,1
453,0.0,-9.0,13.0,-1.0,1.0,-2.0,-2.0,-1.0,1651086318806379.0,1
454,-2.0,0.0,-10.0,-3.0,-3.0,-1.0,0.0,-2.0,1651086318806379.0,1
455,2.0,6.0,10.0,2.0,0.0,-1.0,1.0,1.0,1651086318806379.0,1
456,-1.0,-2.0,-5.0,-4.0,-2.0,-1.0,0.0,-1.0,1651086318820428.0,1
457,0.0,-3.0,0.0,0.0,-2.0,-1.0,-1.0,2.0,1651086318820428.0,1
458,-2.0,-4.0,-1.0,5.0,3.0,-1.0,0.0,-2.0,1651086318821247.0,1
459,-6.0,5.0,0.0,-3.0,2.0,1.0,-1.0,-5.0,1651086318821247.0,1
460,9.0,1.0,-3.0,-6.0,-7.0,-3.0,-1.0,1.0,1651086318843396.0,1
461,-1.0,-2.0,11.0,11.0,2.0,2.0,0.0,9.0,1651086318843396.0,1
462,1.0,-1.0,-13.0,-11.0,-1.0,2.0,-1.0,-30.0,1651086318844416.0,1
463,-2.0,0.0,5.0,5.0,-5.0,-3.0,-2.0,12.0,1651086318844416.0,1
464,-2.0,-3.0,-6.0,-5.0,-1.0,0.0,-2.0,-6.0,1651086318857363.0,1
465,2.0,-4.0,0.0,4.0,1.0,-2.0,0.0,-5.0,1651086318857363.0,1
466,6.0,2.0,-6.0,-8.0,1.0,1.0,1.0,7.0,1651086318865355.0,1
467,0.0,5.0,4.0,3.0,0.0,2.0,1.0,-2.0,1651086318865355.0,1
468,-2.0,0.0,4.0,3.0,6.0,0.0,0.0,-5.0,1651086318880403.0,1
469,1.0,2.0,-3.0,-2.0,-1.0,0.0,0.0,6.0,1651086318880403.0,1
470,5.0,-2.0,-6.0,1.0,-3.0,-3.0,1.0,0.0,1651086318881270.0,1
471,-3.0,0.0,2.0,0.0,1.0,0.0,0.0,-5.0,1651086318881270.0,1
472,0.0,-1.0,1.0,-1.0,-3.0,0.0,2.0,12.0,1651086318904364.0,1
473,-3.0,2.0,-1.0,-3.0,-2.0,-4.0,-3.0,-6.0,1651086318904364.0,1
474,2.0,0.0,2.0,4.0,3.0,5.0,0.0,5.0,1651086318904364.0,1
475,0.0,4.0,-1.0,-4.0,-3.0,-1.0,0.0,-1.0,1651086318904364.0,1
476,-8.0,-1.0,1.0,3.0,0.0,-1.0,1.0,-2.0,1651086318917384.0,1
477,0.0,1.0,-2.0,-5.0,-2.0,-4.0,-3.0,-2.0,1651086318917384.0,1
478,-4.0,1.0,5.0,3.0,-1.0,1.0,-1.0,0.0,1651086318925721.0,1
479,0.0,0.0,1.0,1.0,2.0,0.0,0.0,2.0,1651086318925721.0,1
480,-5.0,-1.0,-2.0,-2.0,2.0,0.0,0.0,-2.0,1651086318940898.0,1
481,-3.0,2.0,-1.0,-5.0,-3.0,0.0,-1.0,-4.0,1651086318940898.0,1
482,-2.0,-1.0,-6.0,1.0,-2.0,-1.0,0.0,8.0,1651086318940898.0,1
483,3.0,3.0,5.0,0.0,-1.0,-1.0,-1.0,-1.0,1651086318940898.0,1
484,1.0,0.0,-2.0,0.0,1.0,1.0,0.0,-1.0,1651086318963535.0,1
485,0.0,0.0,3.0,-1.0,1.0,3.0,1.0,1.0,1651086318963535.0,1
486,-4.0,-6.0,-10.0,0.0,-1.0,-2.0,-1.0,1.0,1651086318964400.0,1
487,1.0,3.0,0.0,-4.0,-3.0,-3.0,1.0,-2.0,1651086318964400.0,1
488,2.0,-1.0,2.0,1.0,-3.0,-2.0,-1.0,-2.0,1651086318977694.0,1
489,-3.0,2.0,-3.0,1.0,3.0,1.0,1.0,0.0,1651086318977694.0,1
490,2.0,1.0,2.0,3.0,2.0,1.0,2.0,2.0,1651086318985530.0,1
491,0.0,-5.0,-1.0,-5.0,-2.0,1.0,-1.0,-1.0,1651086318985530.0,1
492,2.0,8.0,0.0,-3.0,-3.0,-1.0,-2.0,1.0,1651086319000159.0,1
493,1.0,-2.0,-1.0,-1.0,-3.0,0.0,0.0,-2.0,1651086319000159.0,1
494,0.0,1.0,0.0,0.0,-1.0,-1.0,-1.0,0.0,1651086319001023.0,1
495,0.0,-2.0,-1.0,1.0,3.0,1.0,0.0,0.0,1651086319001023.0,1
496,0.0,-4.0,-2.0,2.0,1.0,1.0,1.0,-1.0,1651086319024388.0,1
497,-1.0,0.0,-1.0,-3.0,-2.0,-1.0,-1.0,-1.0,1651086319024388.0,1
498,-1.0,0.0,1.0,0.0,-4.0,-2.0,0.0,-1.0,1651086319024388.0,1
499,-1.0,-2.0,0.0,0.0,-2.0,0.0,-3.0,0.0,1651086319024388.0,1
500,-2.0,-3.0,-2.0,-1.0,1.0,-1.0,-1.0,0.0,1651086319046296.0,1
501,-3.0,1.0,-1.0,-2.0,3.0,2.0,-1.0,-1.0,1651086319046296.0,1
502,-4.0,-2.0,-1.0,-2.0,-1.0,-1.0,1.0,0.0,1651086319047130.0,1
503,-1.0,-1.0,-1.0,1.0,2.0,0.0,0.0,-1.0,1651086319047130.0,1
504,0.0,-1.0,2.0,-1.0,-2.0,0.0,0.0,-2.0,1651086319061122.0,1
505,-9.0,-5.0,-1.0,0.0,-2.0,-2.0,-1.0,-2.0,1651086319061122.0,1
506,8.0,0.0,0.0,0.0,-3.0,0.0,-4.0,0.0,1651086319061248.0,1
507,-2.0,1.0,-2.0,-2.0,0.0,0.0,-2.0,-1.0,1651086319061248.0,1
508,0.0,-1.0,0.0,-2.0,-2.0,-2.0,-1.0,-1.0,1651086319084312.0,1
509,-1.0,-2.0,-2.0,1.0,0.0,0.0,-1.0,1.0,1651086319084312.0,1
510,-5.0,0.0,0.0,1.0,1.0,-1.0,1.0,0.0,1651086319084312.0,1
511,-2.0,1.0,-1.0,-1.0,-2.0,-3.0,-1.0,-1.0,1651086319084312.0,1
512,-1.0,0.0,-1.0,-2.0,0.0,0.0,0.0,-1.0,1651086319105219.0,1
513,2.0,-1.0,-2.0,-3.0,-3.0,-3.0,0.0,-1.0,1651086319105219.0,1
514,-2.0,2.0,3.0,1.0,3.0,1.0,0.0,0.0,1651086319107518.0,1
515,0.0,1.0,1.0,0.0,2.0,1.0,1.0,0.0,1651086319107518.0,1
516,-2.0,-1.0,5.0,1.0,-1.0,-2.0,-1.0,-1.0,1651086319120177.0,1
517,-1.0,0.0,-4.0,-2.0,-4.0,0.0,-2.0,-2.0,1651086319120177.0,1
518,-3.0,1.0,-1.0,-2.0,-2.0,-3.0,-2.0,-1.0,1651086319121524.0,1
519,0.0,-2.0,1.0,-1.0,0.0,-1.0,-1.0,-1.0,1651086319121524.0,1
520,-1.0,-2.0,-5.0,-2.0,-5.0,-1.0,0.0,1.0,1651086319144275.0,1
521,0.0,-3.0,2.0,-1.0,0.0,-1.0,-2.0,0.0,1651086319144275.0,1
522,-1.0,7.0,6.0,4.0,7.0,2.0,2.0,-2.0,1651086319144275.0,1
523,0.0,-2.0,-2.0,-2.0,-2.0,3.0,-1.0,-1.0,1651086319144275.0,1
524,-1.0,-1.0,0.0,0.0,0.0,-2.0,1.0,-1.0,1651086319166211.0,1
525,0.0,-1.0,-2.0,-2.0,-1.0,0.0,0.0,0.0,1651086319166211.0,1
526,-1.0,-2.0,-3.0,-1.0,3.0,3.0,1.0,-1.0,1651086319166211.0,1
527,-1.0,1.0,0.0,-1.0,0.0,-3.0,-1.0,0.0,1651086319166211.0,1
528,-1.0,-8.0,-2.0,0.0,0.0,1.0,0.0,-2.0,1651086319180599.0,0
529,2.0,8.0,-1.0,-1.0,-5.0,-2.0,0.0,0.0,1651086319180599.0,0
530,-2.0,-3.0,-3.0,-2.0,-6.0,-3.0,-2.0,3.0,1651086319181276.0,0
531,2.0,-2.0,-2.0,-2.0,-4.0,-2.0,-1.0,-1.0,1651086319181276.0,0
532,1.0,0.0,1.0,3.0,4.0,1.0,-1.0,0.0,1651086319203220.0,0
533,-2.0,-4.0,0.0,4.0,6.0,2.0,1.0,-1.0,1651086319203220.0,0
534,0.0,-3.0,1.0,-2.0,-1.0,0.0,-2.0,-1.0,1651086319204252.0,0
535,0.0,1.0,-2.0,-1.0,-1.0,-3.0,-1.0,0.0,1651086319204252.0,0
536,-1.0,0.0,1.0,-1.0,-2.0,0.0,-1.0,-1.0,1651086319226290.0,0
537,0.0,-1.0,-2.0,-2.0,-2.0,-1.0,-1.0,-1.0,1651086319226290.0,0
538,-2.0,-1.0,-2.0,-3.0,-3.0,0.0,-1.0,-1.0,1651086319226290.0,0
539,-2.0,-3.0,1.0,0.0,-2.0,-1.0,0.0,-1.0,1651086319226290.0,0
540,-2.0,3.0,-2.0,-1.0,2.0,-1.0,0.0,0.0,1651086319240355.0,0
541,-1.0,2.0,4.0,1.0,3.0,4.0,1.0,1.0,1651086319240355.0,0
542,0.0,-2.0,-2.0,-3.0,-2.0,-1.0,1.0,-1.0,1651086319241212.0,0
543,0.0,-7.0,0.0,0.0,-1.0,0.0,-1.0,-1.0,1651086319241212.0,0
544,0.0,-1.0,0.0,-1.0,-2.0,-1.0,-1.0,-3.0,1651086319263331.0,0
545,1.0,0.0,1.0,-2.0,-2.0,0.0,-1.0,0.0,1651086319263331.0,0
546,0.0,-3.0,0.0,0.0,-2.0,-2.0,0.0,-2.0,1651086319264185.0,0
547,0.0,1.0,-1.0,0.0,1.0,-1.0,-1.0,1.0,1651086319264185.0,0
548,1.0,1.0,0.0,1.0,0.0,-1.0,-2.0,-1.0,1651086319285603.0,0
549,1.0,-2.0,-1.0,-2.0,-1.0,-2.0,0.0,1.0,1651086319285603.0,0
550,1.0,-1.0,8.0,4.0,2.0,1.0,-1.0,0.0,1651086319286460.0,0
551,-2.0,4.0,-8.0,0.0,0.0,-1.0,1.0,0.0,1651086319286460.0,0
552,-2.0,-2.0,-1.0,0.0,-1.0,-2.0,-1.0,0.0,1651086319299624.0,0
553,0.0,0.0,-1.0,-2.0,-2.0,2.0,0.0,0.0,1651086319299624.0,0
554,0.0,-1.0,-2.0,-1.0,-4.0,-4.0,-1.0,0.0,1651086319300635.0,0
555,-1.0,-1.0,2.0,1.0,-2.0,1.0,0.0,-2.0,1651086319300635.0,0
556,0.0,-1.0,-1.0,-1.0,1.0,0.0,0.0,0.0,1651086319323127.0,0
557,1.0,-2.0,-2.0,-2.0,0.0,-2.0,-1.0,-3.0,1651086319323127.0,0
558,0.0,-1.0,-3.0,-1.0,-2.0,-2.0,0.0,-1.0,1651086319324125.0,0
559,-1.0,-1.0,-1.0,0.0,3.0,1.0,0.0,-1.0,1651086319324125.0,0
560,0.0,1.0,1.0,-1.0,-5.0,0.0,0.0,0.0,1651086319346388.0,0
561,0.0,-1.0,1.0,1.0,1.0,-1.0,0.0,0.0,1651086319346388.0,0
562,0.0,-2.0,-3.0,-1.0,0.0,3.0,-1.0,0.0,1651086319346388.0,0
563,2.0,1.0,-2.0,-5.0,-6.0,-7.0,-2.0,0.0,1651086319346388.0,0
564,1.0,-2.0,1.0,2.0,5.0,0.0,-4.0,-1.0,1651086319369121.0,0
565,-1.0,1.0,-1.0,2.0,3.0,0.0,0.0,-1.0,1651086319369121.0,0
566,-2.0,1.0,0.0,1.0,-2.0,-1.0,-2.0,-1.0,1651086319369121.0,0
567,0.0,-2.0,-4.0,-2.0,-2.0,2.0,1.0,0.0,1651086319369121.0,0
568,0.0,-1.0,-2.0,-3.0,-3.0,-2.0,-1.0,1.0,1651086319383451.0,0
569,1.0,-3.0,-4.0,-2.0,-1.0,-2.0,-2.0,-2.0,1651086319383451.0,0
570,-1.0,1.0,-1.0,0.0,2.0,-2.0,0.0,-1.0,1651086319384338.0,0
571,-1.0,-2.0,2.0,0.0,1.0,2.0,0.0,-1.0,1651086319384338.0,0
572,0.0,1.0,-1.0,1.0,0.0,1.0,0.0,0.0,1651086319406384.0,0
573,-2.0,1.0,-1.0,-1.0,0.0,0.0,1.0,0.0,1651086319406384.0,0
574,0.0,-1.0,-2.0,-1.0,-1.0,0.0,-1.0,-1.0,1651086319406384.0,0
575,1.0,0.0,3.0,-2.0,-1.0,-2.0,-2.0,-3.0,1651086319406384.0,0
576,1.0,0.0,-1.0,-1.0,-2.0,-1.0,-1.0,-2.0,1651086319421397.0,0
577,1.0,-1.0,1.0,-1.0,-2.0,0.0,-3.0,-1.0,1651086319421397.0,0
578,0.0,0.0,0.0,-1.0,0.0,-1.0,0.0,-2.0,1651086319421397.0,0
579,-1.0,-1.0,-1.0,0.0,-3.0,-1.0,0.0,2.0,1651086319421397.0,0
580,-1.0,-2.0,3.0,-3.0,-3.0,-2.0,-1.0,-2.0,1651086319444339.0,0
581,-1.0,-2.0,-5.0,3.0,4.0,1.0,2.0,0.0,1651086319444339.0,0
582,-2.0,-1.0,-5.0,-2.0,1.0,1.0,1.0,-1.0,1651086319444339.0,0
583,1.0,4.0,1.0,2.0,2.0,-1.0,-1.0,-1.0,1651086319444339.0,0
584,0.0,0.0,-2.0,1.0,-2.0,-2.0,0.0,1.0,1651086319466208.0,0
585,-2.0,-2.0,3.0,-2.0,-5.0,-4.0,-3.0,-1.0,1651086319466208.0,0
586,1.0,-3.0,-7.0,-4.0,-2.0,-3.0,-1.0,0.0,1651086319466208.0,0
587,0.0,-1.0,0.0,-2.0,-1.0,-1.0,-1.0,1.0,1651086319466208.0,0
588,-1.0,-2.0,-2.0,-3.0,-2.0,-2.0,-3.0,-1.0,1651086319480536.0,0
589,1.0,-3.0,0.0,1.0,0.0,0.0,0.0,0.0,1651086319480536.0,0
590,0.0,3.0,3.0,-1.0,-3.0,-4.0,-1.0,-1.0,1651086319481264.0,0
591,-1.0,-3.0,1.0,1.0,2.0,3.0,0.0,-1.0,1651086319481264.0,0
592,1.0,0.0,1.0,1.0,3.0,3.0,-1.0,0.0,1651086319504307.0,0
593,2.0,0.0,0.0,-2.0,-2.0,-2.0,-2.0,-1.0,1651086319504307.0,0
594,-2.0,-2.0,0.0,1.0,0.0,-1.0,-2.0,-1.0,1651086319504307.0,0
595,-1.0,0.0,2.0,1.0,-2.0,-2.0,0.0,-1.0,1651086319504307.0,0
596,-2.0,0.0,1.0,1.0,1.0,0.0,-1.0,-3.0,1651086319526502.0,0
597,0.0,0.0,-1.0,-4.0,-2.0,-1.0,-1.0,0.0,1651086319526502.0,0
598,-1.0,0.0,0.0,-1.0,-3.0,-1.0,0.0,0.0,1651086319526502.0,0
599,-1.0,0.0,-1.0,2.0,2.0,0.0,1.0,1.0,1651086319526502.0,0
600,-1.0,0.0,-3.0,1.0,2.0,1.0,-1.0,1.0,1651086319540651.0,0
601,-1.0,1.0,0.0,1.0,1.0,-1.0,0.0,-1.0,1651086319540651.0,0
602,0.0,0.0,3.0,1.0,-1.0,0.0,-1.0,0.0,1651086319540651.0,0
603,-2.0,-2.0,-1.0,0.0,1.0,1.0,0.0,1.0,1651086319540651.0,0
604,-1.0,0.0,-3.0,2.0,-2.0,1.0,0.0,0.0,1651086319563215.0,0
605,-1.0,0.0,-1.0,-3.0,-5.0,-2.0,-1.0,1.0,1651086319563215.0,0
606,1.0,0.0,-2.0,-4.0,-2.0,-1.0,0.0,0.0,1651086319564216.0,0
607,0.0,-1.0,1.0,0.0,-2.0,-3.0,-4.0,-1.0,1651086319564216.0,0
608,-1.0,-4.0,6.0,2.0,4.0,2.0,3.0,0.0,1651086319585458.0,0
609,-2.0,2.0,-13.0,0.0,0.0,2.0,0.0,1.0,1651086319585458.0,0
610,0.0,-2.0,-2.0,-1.0,-2.0,1.0,1.0,0.0,1651086319586357.0,0
611,-1.0,0.0,-3.0,-1.0,-2.0,-1.0,-1.0,-1.0,1651086319586357.0,0
612,1.0,2.0,0.0,-3.0,-3.0,-3.0,-1.0,-2.0,1651086319599297.0,0
613,-1.0,-1.0,3.0,1.0,-1.0,-1.0,0.0,-1.0,1651086319599297.0,0
614,0.0,-2.0,-2.0,0.0,2.0,-2.0,0.0,0.0,1651086319608279.0,0
615,0.0,0.0,-1.0,0.0,-1.0,2.0,1.0,-1.0,1651086319608279.0,0
616,0.0,-3.0,-5.0,-1.0,-2.0,-2.0,-2.0,0.0,1651086319623198.0,0
617,0.0,-3.0,4.0,0.0,1.0,0.0,0.0,-1.0,1651086319623198.0,0
618,-1.0,0.0,-4.0,0.0,2.0,3.0,0.0,-1.0,1651086319625196.0,0
619,0.0,-2.0,1.0,0.0,0.0,-2.0,-2.0,-2.0,1651086319625196.0,0
620,-1.0,1.0,1.0,0.0,0.0,0.0,3.0,0.0,1651086319645489.0,0
621,0.0,-1.0,0.0,1.0,-2.0,-2.0,-1.0,0.0,1651086319645489.0,0
622,0.0,-2.0,-2.0,0.0,-5.0,-3.0,-3.0,-1.0,1651086319647418.0,0
623,-1.0,0.0,1.0,-2.0,0.0,-2.0,-1.0,-3.0,1651086319647418.0,0
624,-1.0,-3.0,-3.0,3.0,5.0,3.0,1.0,0.0,1651086319668764.0,0
625,1.0,1.0,0.0,-1.0,-1.0,0.0,-1.0,2.0,1651086319668764.0,0
626,-1.0,0.0,2.0,-1.0,0.0,-1.0,1.0,-1.0,1651086319670074.0,0
627,-1.0,-1.0,-4.0,-3.0,-2.0,-2.0,-1.0,-1.0,1651086319670074.0,0
628,-1.0,0.0,0.0,-3.0,-3.0,-4.0,-2.0,0.0,1651086319683370.0,0
629,-1.0,-1.0,-2.0,0.0,1.0,0.0,0.0,-2.0,1651086319683370.0,0
630,0.0,0.0,3.0,1.0,1.0,1.0,0.0,0.0,1651086319685272.0,0
631,2.0,1.0,2.0,-2.0,-4.0,-2.0,-2.0,0.0,1651086319685272.0,0
632,-2.0,0.0,-11.0,-2.0,-3.0,-2.0,-1.0,-1.0,1651086319706198.0,0
633,-2.0,2.0,3.0,0.0,4.0,1.0,0.0,-2.0,1651086319706198.0,0
634,0.0,-5.0,0.0,2.0,5.0,4.0,1.0,1.0,1651086319707195.0,0
635,0.0,2.0,3.0,1.0,0.0,-2.0,2.0,0.0,1651086319707195.0,0
636,0.0,-2.0,-3.0,-4.0,-4.0,-3.0,0.0,1.0,1651086319719208.0,0
637,1.0,-2.0,-5.0,-2.0,-3.0,-4.0,-1.0,-1.0,1651086319719208.0,0
638,-1.0,3.0,1.0,0.0,0.0,-1.0,0.0,-1.0,1651086319728141.0,0
639,0.0,-7.0,3.0,0.0,-2.0,2.0,1.0,1.0,1651086319728141.0,0
640,-2.0,-1.0,3.0,0.0,2.0,-1.0,-2.0,-1.0,1651086319743192.0,0
641,-1.0,2.0,0.0,1.0,0.0,0.0,-2.0,-2.0,1651086319743192.0,0
642,1.0,0.0,-2.0,0.0,1.0,-1.0,-1.0,-2.0,1651086319745221.0,0
643,-1.0,2.0,2.0,0.0,2.0,3.0,-1.0,0.0,1651086319745221.0,0
644,0.0,2.0,1.0,-1.0,-3.0,-2.0,0.0,-1.0,1651086319766192.0,0
645,-2.0,-2.0,2.0,-1.0,-1.0,-1.0,-1.0,-1.0,1651086319766192.0,0
646,-1.0,-2.0,-3.0,-3.0,-3.0,-3.0,-2.0,-2.0,1651086319767194.0,0
647,-1.0,-3.0,-12.0,-1.0,-2.0,-1.0,-2.0,-2.0,1651086319767194.0,0
648,-1.0,0.0,9.0,-3.0,1.0,4.0,0.0,-4.0,1651086319780403.0,0
649,-1.0,-5.0,-14.0,6.0,3.0,1.0,-1.0,-1.0,1651086319780403.0,0
650,0.0,2.0,3.0,-2.0,-4.0,-1.0,1.0,0.0,1651086319788172.0,0
651,0.0,-2.0,-7.0,1.0,0.0,-3.0,-1.0,0.0,1651086319788172.0,0
652,1.0,0.0,0.0,-3.0,-1.0,-1.0,-1.0,0.0,1651086319803144.0,0
653,0.0,-2.0,2.0,-1.0,-6.0,-3.0,0.0,-1.0,1651086319803144.0,0
654,-1.0,0.0,1.0,1.0,-2.0,-2.0,-1.0,-1.0,1651086319805127.0,0
655,-2.0,-2.0,-1.0,-1.0,2.0,4.0,1.0,-1.0,1651086319805127.0,0
656,-2.0,1.0,1.0,1.0,2.0,0.0,-1.0,0.0,1651086319826423.0,0
657,0.0,-3.0,-1.0,-4.0,-1.0,-2.0,-2.0,-1.0,1651086319826423.0,0
658,-1.0,-1.0,-2.0,2.0,1.0,0.0,-2.0,-2.0,1651086319827256.0,0
659,-1.0,-2.0,-3.0,-3.0,-2.0,-2.0,-1.0,-1.0,1651086319827256.0,0
660,-2.0,-3.0,0.0,-1.0,0.0,1.0,0.0,0.0,1651086319839956.0,0
661,0.0,2.0,3.0,-2.0,-2.0,1.0,-1.0,-1.0,1651086319839956.0,0
662,-2.0,-2.0,-1.0,-1.0,-3.0,-4.0,-2.0,-1.0,1651086319848267.0,0
663,0.0,-3.0,-3.0,0.0,-3.0,-1.0,-1.0,1.0,1651086319848267.0,0
664,1.0,-7.0,-1.0,-5.0,2.0,4.0,1.0,0.0,1651086319863234.0,0
665,0.0,10.0,11.0,9.0,3.0,-1.0,0.0,0.0,1651086319863234.0,0
666,0.0,2.0,-9.0,0.0,-1.0,1.0,0.0,0.0,1651086319865243.0,0
667,0.0,-8.0,9.0,-1.0,-7.0,-5.0,-2.0,-2.0,1651086319865243.0,0
668,0.0,8.0,-3.0,1.0,-4.0,-3.0,-1.0,-1.0,1651086319886274.0,0
669,-3.0,-4.0,-13.0,-14.0,-6.0,1.0,0.0,0.0,1651086319886274.0,0
670,0.0,-5.0,-13.0,-2.0,-2.0,-2.0,0.0,1.0,1651086319887102.0,0
671,-2.0,3.0,6.0,17.0,19.0,5.0,1.0,-1.0,1651086319887102.0,0
672,1.0,-8.0,-3.0,-2.0,-7.0,-6.0,-1.0,-2.0,1651086319899070.0,0
673,-2.0,-1.0,9.0,3.0,4.0,-2.0,0.0,-1.0,1651086319899070.0,0
674,0.0,3.0,-3.0,-9.0,-7.0,-3.0,-2.0,-1.0,1651086319908327.0,0
675,1.0,2.0,0.0,-3.0,-1.0,4.0,0.0,-1.0,1651086319908327.0,0
676,-1.0,-5.0,-5.0,-5.0,-3.0,-3.0,-1.0,-1.0,1651086319924167.0,0
677,0.0,-3.0,2.0,2.0,0.0,-3.0,-2.0,1.0,1651086319924167.0,0
678,-2.0,1.0,8.0,6.0,11.0,4.0,-1.0,-2.0,1651086319925093.0,0
679,-2.0,1.0,1.0,-4.0,-4.0,-2.0,0.0,0.0,1651086319925093.0,0
680,0.0,0.0,1.0,3.0,2.0,2.0,0.0,0.0,1651086319946349.0,0
681,0.0,-1.0,-8.0,-5.0,-10.0,-5.0,-2.0,-3.0,1651086319946349.0,0
682,1.0,-15.0,-2.0,-6.0,-9.0,-4.0,-1.0,-1.0,1651086319947212.0,0
683,-1.0,0.0,-4.0,2.0,6.0,2.0,1.0,1.0,1651086319947212.0,0
684,1.0,19.0,-3.0,9.0,19.0,11.0,1.0,1.0,1651086319969010.0,0
685,-1.0,-2.0,6.0,7.0,6.0,0.0,0.0,-2.0,1651086319969010.0,0
686,-2.0,5.0,10.0,20.0,25.0,11.0,0.0,-1.0,1651086319970139.0,0
687,0.0,-13.0,-5.0,-5.0,-18.0,-7.0,-2.0,-2.0,1651086319970139.0,0
688,0.0,1.0,6.0,-1.0,-2.0,-3.0,1.0,2.0,1651086319983313.0,0
689,-1.0,3.0,-12.0,-5.0,-10.0,-6.0,-4.0,-1.0,1651086319983313.0,0
690,-1.0,-6.0,-6.0,0.0,8.0,1.0,-1.0,0.0,1651086319985307.0,0
691,1.0,5.0,12.0,6.0,19.0,14.0,3.0,1.0,1651086319985307.0,0
692,0.0,-2.0,-14.0,-18.0,-20.0,-10.0,-2.0,-2.0,1651086320006344.0,2
693,0.0,-1.0,8.0,3.0,-7.0,1.0,0.0,0.0,1651086320006344.0,2
694,2.0,2.0,-1.0,-7.0,-3.0,0.0,2.0,0.0,1651086320008230.0,2
695,-2.0,-1.0,-8.0,-2.0,-3.0,-11.0,-4.0,-2.0,1651086320008230.0,2
696,1.0,-8.0,3.0,1.0,-2.0,1.0,-3.0,-2.0,1651086320029142.0,2
697,-1.0,4.0,-5.0,-6.0,1.0,6.0,-1.0,0.0,1651086320029142.0,2
698,-2.0,0.0,8.0,16.0,-3.0,-5.0,-1.0,0.0,1651086320030143.0,2
699,0.0,4.0,-9.0,-19.0,-18.0,-8.0,-2.0,-1.0,1651086320030143.0,2
700,0.0,5.0,5.0,3.0,9.0,7.0,2.0,2.0,1651086320044336.0,2
701,-3.0,-23.0,1.0,-10.0,-9.0,-2.0,-1.0,-1.0,1651086320044336.0,2
702,2.0,27.0,11.0,26.0,25.0,9.0,2.0,-1.0,1651086320045259.0,2
703,0.0,-9.0,3.0,-8.0,-14.0,-5.0,-4.0,-2.0,1651086320045259.0,2
704,0.0,2.0,7.0,15.0,-6.0,-11.0,-1.0,-2.0,1651086320065300.0,2
705,0.0,4.0,14.0,18.0,33.0,16.0,3.0,2.0,1651086320065300.0,2
706,-1.0,-17.0,-39.0,-24.0,-13.0,-8.0,-2.0,0.0,1651086320067217.0,2
707,1.0,6.0,17.0,-2.0,-3.0,0.0,0.0,-3.0,1651086320067217.0,2
708,-4.0,-9.0,-11.0,-25.0,-16.0,-5.0,-1.0,0.0,1651086320088356.0,2
709,0.0,1.0,-8.0,12.0,4.0,-1.0,-2.0,0.0,1651086320088356.0,2
710,-1.0,-1.0,25.0,-6.0,-27.0,-12.0,-1.0,-3.0,1651086320090217.0,2
711,1.0,3.0,-18.0,17.0,44.0,20.0,4.0,3.0,1651086320090217.0,2
712,-1.0,-4.0,-7.0,-7.0,4.0,3.0,0.0,-1.0,1651086320103222.0,2
713,-1.0,1.0,-2.0,14.0,22.0,7.0,2.0,0.0,1651086320103222.0,2
714,-1.0,1.0,8.0,-2.0,-11.0,-6.0,-1.0,-2.0,1651086320110233.0,2
715,0.0,0.0,-5.0,-20.0,-24.0,-9.0,-2.0,-1.0,1651086320110233.0,2
716,-2.0,2.0,14.0,13.0,5.0,-1.0,-2.0,-1.0,1651086320126352.0,2
717,1.0,-1.0,3.0,-11.0,-16.0,-6.0,-2.0,-1.0,1651086320126352.0,2
718,0.0,-1.0,-17.0,-10.0,-1.0,3.0,0.0,1.0,1651086320127189.0,2
719,-2.0,-9.0,5.0,-1.0,-2.0,-2.0,0.0,-1.0,1651086320127189.0,2
720,-1.0,1.0,-10.0,-6.0,-8.0,-2.0,-1.0,0.0,1651086320150116.0,2
721,1.0,2.0,17.0,15.0,20.0,6.0,2.0,3.0,1651086320150116.0,2
722,0.0,3.0,7.0,-18.0,-11.0,-2.0,-1.0,-1.0,1651086320151115.0,2
723,1.0,5.0,5.0,17.0,22.0,11.0,2.0,2.0,1651086320151115.0,2
724,1.0,4.0,11.0,7.0,6.0,-1.0,-1.0,0.0,1651086320163189.0,2
725,-3.0,-7.0,-23.0,-18.0,-24.0,-7.0,-1.0,-3.0,1651086320163189.0,2
726,1.0,-3.0,6.0,-2.0,3.0,3.0,1.0,1.0,1651086320170384.0,2
727,-2.0,0.0,-5.0,7.0,-13.0,-9.0,-2.0,-1.0,1651086320170384.0,2
728,0.0,-7.0,1.0,10.0,15.0,9.0,0.0,1.0,1651086320194333.0,2
729,1.0,2.0,-10.0,-9.0,-7.0,-6.0,-2.0,0.0,1651086320194333.0,2
730,-1.0,1.0,15.0,6.0,6.0,4.0,0.0,0.0,1651086320195267.0,2
731,-1.0,0.0,-15.0,-13.0,-13.0,-6.0,-2.0,-3.0,1651086320195267.0,2
732,-1.0,-4.0,5.0,-13.0,-13.0,-2.0,0.0,-2.0,1651086320208251.0,2
733,0.0,1.0,-9.0,15.0,10.0,-2.0,-2.0,-1.0,1651086320208251.0,2
734,-3.0,-6.0,-22.0,-13.0,-18.0,-7.0,-4.0,-1.0,1651086320210237.0,2
735,-2.0,0.0,3.0,9.0,7.0,1.0,0.0,-1.0,1651086320210237.0,2
736,-4.0,2.0,36.0,32.0,5.0,1.0,0.0,-4.0,1651086320222306.0,2
737,-1.0,0.0,-15.0,-21.0,-14.0,-6.0,-2.0,-1.0,1651086320222306.0,2
738,0.0,0.0,10.0,-8.0,-7.0,-2.0,-1.0,-2.0,1651086320230387.0,2
739,1.0,1.0,-14.0,12.0,10.0,0.0,-2.0,-1.0,1651086320230387.0,2
740,-3.0,-4.0,-22.0,-16.0,-2.0,2.0,-1.0,-2.0,1651086320246373.0,2
741,-1.0,-1.0,16.0,3.0,-2.0,-1.0,0.0,0.0,1651086320246373.0,2
742,-4.0,-1.0,14.0,14.0,-5.0,-5.0,-2.0,-1.0,1651086320247217.0,2
743,-1.0,0.0,-8.0,-35.0,-18.0,-8.0,-4.0,-1.0,1651086320247217.0,2
744,0.0,-4.0,-15.0,18.0,12.0,0.0,0.0,1.0,1651086320269237.0,2
745,0.0,4.0,-3.0,-5.0,-10.0,-3.0,-4.0,-2.0,1651086320269237.0,2
746,-2.0,-5.0,-7.0,-34.0,-11.0,-3.0,-2.0,0.0,1651086320270269.0,2
747,-1.0,-1.0,10.0,30.0,21.0,11.0,5.0,1.0,1651086320270269.0,2
748,0.0,4.0,3.0,6.0,5.0,-4.0,-2.0,0.0,1651086320281440.0,2
749,-2.0,-3.0,-12.0,-15.0,-8.0,-3.0,-2.0,-2.0,1651086320281440.0,2
750,1.0,-3.0,6.0,11.0,6.0,1.0,3.0,1.0,1651086320290837.0,2
751,-1.0,1.0,-3.0,-2.0,-16.0,-8.0,-6.0,-2.0,1651086320290837.0,2
752,0.0,0.0,5.0,-13.0,-7.0,-4.0,-2.0,-2.0,1651086320306309.0,2
753,2.0,-4.0,-22.0,-16.0,-3.0,-1.0,-2.0,-1.0,1651086320306309.0,2
754,1.0,5.0,9.0,12.0,-1.0,1.0,0.0,0.0,1651086320307238.0,2
755,-1.0,-2.0,1.0,2.0,15.0,6.0,2.0,0.0,1651086320307238.0,2
756,3.0,1.0,-5.0,-2.0,2.0,3.0,1.0,3.0,1651086320328831.0,2
757,-1.0,6.0,35.0,4.0,1.0,2.0,3.0,0.0,1651086320328831.0,2
758,-3.0,-6.0,-37.0,-2.0,2.0,-2.0,-4.0,-2.0,1651086320330137.0,2
759,0.0,1.0,9.0,5.0,-10.0,-2.0,1.0,1.0,1651086320330137.0,2
760,0.0,-1.0,-20.0,-4.0,16.0,3.0,-1.0,-2.0,1651086320342460.0,2
761,2.0,1.0,3.0,1.0,3.0,3.0,1.0,1.0,1651086320342460.0,2
762,-2.0,2.0,19.0,-3.0,7.0,1.0,0.0,-2.0,1651086320351520.0,2
763,-1.0,2.0,-12.0,-1.0,-1.0,-1.0,-1.0,-1.0,1651086320351520.0,2
764,-2.0,-5.0,0.0,-6.0,-16.0,-2.0,-1.0,-2.0,1651086320365270.0,2
765,1.0,1.0,2.0,5.0,-6.0,-2.0,0.0,1.0,1651086320365270.0,2
766,-2.0,-7.0,-39.0,-10.0,17.0,3.0,2.0,-2.0,1651086320367232.0,2
767,1.0,2.0,19.0,-2.0,-6.0,-4.0,-1.0,-1.0,1651086320367232.0,2
768,-1.0,-1.0,-3.0,0.0,-2.0,1.0,3.0,2.0,1651086320389243.0,2
769,-2.0,-2.0,-3.0,2.0,-1.0,0.0,-3.0,-2.0,1651086320389243.0,2
770,1.0,2.0,22.0,20.0,-5.0,-1.0,-4.0,-1.0,1651086320390274.0,2
771,-1.0,-2.0,-12.0,-15.0,3.0,1.0,-2.0,0.0,1651086320390274.0,2
772,0.0,2.0,-12.0,-9.0,-1.0,-4.0,0.0,-1.0,1651086320402577.0,2
773,2.0,0.0,1.0,-5.0,-4.0,0.0,2.0,3.0,1651086320402577.0,2
774,0.0,2.0,22.0,21.0,7.0,2.0,2.0,-3.0,1651086320411419.0,2
775,-2.0,-3.0,-11.0,-24.0,-6.0,-3.0,-1.0,-2.0,1651086320411419.0,2
776,0.0,0.0,23.0,21.0,-2.0,-1.0,-2.0,0.0,1651086320426278.0,2
777,1.0,-2.0,-31.0,-10.0,2.0,-3.0,-4.0,-2.0,1651086320426278.0,2
778,-4.0,2.0,-3.0,-4.0,0.0,0.0,1.0,3.0,1651086320427235.0,2
779,0.0,4.0,23.0,22.0,4.0,-2.0,-2.0,-2.0,1651086320427235.0,2
780,-4.0,-5.0,-19.0,-10.0,-3.0,0.0,-2.0,-3.0,1651086320448359.0,2
781,0.0,3.0,43.0,8.0,2.0,2.0,5.0,1.0,1651086320448359.0,2
782,3.0,-1.0,-17.0,2.0,7.0,-4.0,-3.0,-1.0,1651086320450253.0,2
783,-8.0,-1.0,16.0,3.0,-4.0,2.0,1.0,-2.0,1651086320450253.0,2
784,-6.0,3.0,12.0,-5.0,-3.0,-3.0,-2.0,0.0,1651086320462363.0,2
785,4.0,-4.0,-14.0,-3.0,-2.0,-1.0,-1.0,-4.0,1651086320462363.0,2
786,2.0,0.0,6.0,12.0,-2.0,-2.0,-1.0,3.0,1651086320471198.0,2
787,-2.0,5.0,8.0,1.0,3.0,0.0,1.0,-2.0,1651086320471198.0,2
788,8.0,-2.0,-15.0,-5.0,-11.0,-4.0,-1.0,-2.0,1651086320486235.0,2
789,-6.0,-2.0,-10.0,3.0,16.0,3.0,0.0,3.0,1651086320486235.0,2
790,4.0,-2.0,13.0,-2.0,-1.0,4.0,4.0,-10.0,1651086320487202.0,2
791,3.0,-1.0,-8.0,-10.0,1.0,0.0,-2.0,9.0,1651086320487202.0,2
792,-5.0,-3.0,-9.0,6.0,-6.0,1.0,-1.0,-1.0,1651086320508774.0,2
793,2.0,4.0,19.0,-1.0,-9.0,-4.0,-2.0,-3.0,1651086320508774.0,2
794,-3.0,-2.0,-26.0,-27.0,-2.0,1.0,1.0,5.0,1651086320510141.0,2
795,2.0,-1.0,1.0,5.0,-1.0,1.0,2.0,-2.0,1651086320510141.0,2
796,-2.0,0.0,-20.0,-27.0,1.0,-2.0,-1.0,-4.0,1651086320538388.0,2
797,0.0,-1.0,16.0,29.0,0.0,-1.0,2.0,12.0,1651086320538388.0,2
798,2.0,3.0,13.0,-8.0,-3.0,0.0,-5.0,-1.0,1651086320539385.0,2
799,6.0,-1.0,0.0,-1.0,1.0,1.0,0.0,6.0,1651086320539385.0,2
800,-8.0,4.0,10.0,17.0,8.0,4.0,-2.0,-13.0,1651086320545369.0,2
801,-15.0,-3.0,-16.0,-17.0,-5.0,-4.0,-3.0,-11.0,1651086320545369.0,2
802,-4.0,3.0,-8.0,11.0,5.0,1.0,2.0,7.0,1651086320547365.0,2
803,2.0,-3.0,-14.0,-9.0,-6.0,-6.0,-4.0,-6.0,1651086320547365.0,2
804,2.0,3.0,1.0,0.0,-5.0,-4.0,-1.0,8.0,1651086320568772.0,2
805,4.0,-1.0,20.0,-4.0,-4.0,-3.0,-4.0,-2.0,1651086320568772.0,2
806,-4.0,-3.0,-11.0,-6.0,-2.0,0.0,-1.0,-5.0,1651086320570105.0,2
807,0.0,-1.0,0.0,0.0,-2.0,1.0,2.0,10.0,1651086320570105.0,2
808,-1.0,1.0,0.0,-7.0,5.0,4.0,5.0,-14.0,1651086320582275.0,2
809,1.0,0.0,-1.0,15.0,3.0,2.0,-1.0,-2.0,1651086320582275.0,2
810,1.0,-4.0,-14.0,-10.0,-6.0,-4.0,-2.0,3.0,1651086320591406.0,2
811,-1.0,-1.0,-4.0,-7.0,-3.0,0.0,5.0,-3.0,1651086320591406.0,2
812,2.0,0.0,22.0,11.0,-3.0,-6.0,-4.0,1.0,1651086320606255.0,2
813,2.0,-1.0,-29.0,-19.0,4.0,2.0,1.0,0.0,1651086320606255.0,2
814,0.0,-1.0,14.0,3.0,-3.0,-1.0,-2.0,-5.0,1651086320612500.0,2
815,-2.0,0.0,16.0,8.0,4.0,-4.0,-1.0,-1.0,1651086320612500.0,2
816,-1.0,-9.0,-15.0,3.0,2.0,2.0,-2.0,1.0,1651086320628796.0,2
817,-1.0,1.0,-27.0,-8.0,1.0,0.0,0.0,1.0,1651086320628796.0,2
818,1.0,1.0,33.0,17.0,1.0,0.0,1.0,-1.0,1651086320630074.0,2
819,-4.0,-2.0,-16.0,-9.0,-4.0,-3.0,-5.0,-7.0,1651086320630074.0,2
820,1.0,-2.0,-4.0,-2.0,0.0,-1.0,4.0,6.0,1651086320642397.0,2
821,1.0,2.0,2.0,-2.0,-1.0,0.0,0.0,0.0,1651086320642397.0,2
822,-1.0,0.0,9.0,8.0,1.0,1.0,1.0,-1.0,1651086320651223.0,2
823,-4.0,0.0,-8.0,-4.0,-1.0,-2.0,-4.0,-5.0,1651086320651223.0,2
824,7.0,-2.0,0.0,-1.0,0.0,1.0,2.0,5.0,1651086320666227.0,2
825,-1.0,-1.0,3.0,8.0,-1.0,0.0,3.0,-1.0,1651086320666227.0,2
826,2.0,-2.0,-2.0,-13.0,-2.0,-3.0,-4.0,-4.0,1651086320667224.0,2
827,0.0,0.0,1.0,2.0,4.0,1.0,-2.0,-1.0,1651086320667224.0,2
828,-1.0,0.0,17.0,27.0,2.0,0.0,4.0,4.0,1651086320688712.0,2
829,0.0,-2.0,8.0,-14.0,0.0,0.0,-3.0,-1.0,1651086320688712.0,2
830,-1.0,-1.0,-26.0,-13.0,-3.0,1.0,0.0,1.0,1651086320689639.0,2
831,1.0,0.0,12.0,21.0,-1.0,0.0,-2.0,-2.0,1651086320689639.0,2
832,-2.0,0.0,-6.0,15.0,8.0,-1.0,-1.0,1.0,1651086320702727.0,2
833,2.0,0.0,23.0,-5.0,-1.0,-2.0,-1.0,-1.0,1651086320702727.0,2
834,6.0,-3.0,-4.0,13.0,2.0,3.0,1.0,6.0,1651086320711098.0,2
835,2.0,-1.0,-3.0,-16.0,-4.0,0.0,2.0,-1.0,1651086320711098.0,2
836,1.0,-1.0,-12.0,-6.0,-2.0,0.0,0.0,13.0,1651086320726246.0,2
837,-5.0,-4.0,8.0,-8.0,-7.0,-5.0,-5.0,-16.0,1651086320726246.0,2
838,-2.0,0.0,-5.0,-7.0,-1.0,-1.0,2.0,6.0,1651086320727246.0,2
839,1.0,-3.0,-4.0,-3.0,-1.0,1.0,1.0,-6.0,1651086320727246.0,2
840,-2.0,-2.0,5.0,-3.0,-1.0,-1.0,-1.0,0.0,1651086320749215.0,2
841,-1.0,1.0,-8.0,-7.0,-1.0,-3.0,-1.0,-4.0,1651086320749215.0,2
842,6.0,2.0,-22.0,-1.0,2.0,2.0,1.0,1.0,1651086320750242.0,2
843,-3.0,-2.0,13.0,4.0,0.0,0.0,-2.0,0.0,1651086320750242.0,2
844,0.0,-2.0,-16.0,0.0,-1.0,2.0,3.0,-5.0,1651086320762610.0,2
845,-1.0,0.0,-13.0,-19.0,-3.0,0.0,1.0,5.0,1651086320762610.0,2
846,-7.0,-6.0,15.0,-1.0,-7.0,-2.0,-1.0,-7.0,1651086320771393.0,2
847,1.0,3.0,-2.0,16.0,10.0,-1.0,-2.0,1.0,1651086320771393.0,2
848,0.0,2.0,-2.0,-12.0,2.0,2.0,-1.0,-2.0,1651086320786338.0,2
849,2.0,-2.0,11.0,16.0,3.0,2.0,0.0,1.0,1651086320786338.0,2
850,-9.0,1.0,6.0,0.0,-2.0,-4.0,-2.0,2.0,1651086320787209.0,2
851,4.0,-5.0,-31.0,-18.0,-4.0,2.0,-4.0,-2.0,1651086320787209.0,2
852,-4.0,-1.0,28.0,9.0,-1.0,0.0,-1.0,-5.0,1651086320808575.0,2
853,5.0,-4.0,2.0,-4.0,-11.0,-2.0,-1.0,6.0,1651086320808575.0,2
854,-4.0,-4.0,-34.0,-10.0,-2.0,-5.0,-2.0,-6.0,1651086320809576.0,2
855,-3.0,3.0,27.0,-1.0,0.0,1.0,0.0,1.0,1651086320809576.0,2
856,-5.0,-1.0,-8.0,-4.0,-2.0,-1.0,-2.0,-2.0,1651086320822488.0,2
857,6.0,0.0,-4.0,5.0,0.0,0.0,3.0,1.0,1651086320822488.0,2
858,0.0,1.0,6.0,8.0,6.0,-1.0,-2.0,-3.0,1651086320838258.0,2
859,0.0,-1.0,-2.0,-5.0,-8.0,-3.0,1.0,0.0,1651086320838258.0,2
860,7.0,-3.0,1.0,-6.0,-3.0,-1.0,0.0,2.0,1651086320846221.0,2
861,-6.0,2.0,-7.0,3.0,2.0,2.0,1.0,-1.0,1651086320846221.0,2
862,-2.0,0.0,6.0,2.0,-5.0,-1.0,-5.0,0.0,1651086320847053.0,2
863,3.0,0.0,-5.0,-3.0,-1.0,0.0,2.0,0.0,1651086320847053.0,2
864,-2.0,-1.0,-1.0,-15.0,-6.0,-3.0,-3.0,-2.0,1651086320869229.0,2
865,-2.0,0.0,3.0,14.0,7.0,1.0,-3.0,0.0,1651086320869229.0,2
866,2.0,0.0,-6.0,-2.0,1.0,1.0,3.0,7.0,1651086320870261.0,2
867,-3.0,2.0,5.0,22.0,9.0,4.0,-1.0,-2.0,1651086320870261.0,2
868,0.0,-5.0,-26.0,-31.0,-10.0,-4.0,-3.0,-3.0,1651086320882236.0,2
869,3.0,-2.0,-1.0,4.0,0.0,1.0,-1.0,1.0,1651086320882236.0,2
870,-5.0,2.0,35.0,10.0,0.0,-2.0,0.0,1.0,1651086320891386.0,2
871,0.0,-3.0,-36.0,-23.0,-8.0,-3.0,3.0,3.0,1651086320891386.0,2
872,1.0,5.0,19.0,18.0,6.0,0.0,-3.0,-1.0,1651086320905397.0,2
873,-5.0,-5.0,-8.0,-10.0,-1.0,-2.0,-2.0,0.0,1651086320905397.0,2
874,-1.0,1.0,14.0,8.0,1.0,5.0,3.0,-4.0,1651086320912641.0,2
875,2.0,-1.0,3.0,6.0,-2.0,-5.0,-3.0,7.0,1651086320912641.0,2
876,-5.0,-2.0,-7.0,-7.0,-2.0,-2.0,-2.0,-12.0,1651086320928891.0,2
877,-1.0,3.0,18.0,0.0,-5.0,-1.0,1.0,1.0,1651086320928891.0,2
878,1.0,-4.0,-49.0,-15.0,6.0,2.0,-2.0,-7.0,1651086320930105.0,2
879,8.0,4.0,24.0,9.0,-4.0,-2.0,-3.0,-1.0,1651086320930105.0,2
880,-1.0,-4.0,-1.0,6.0,-1.0,-4.0,-2.0,3.0,1651086320951374.0,2
881,-3.0,2.0,17.0,8.0,3.0,7.0,3.0,-2.0,1651086320951374.0,2
882,0.0,-3.0,-15.0,-22.0,-3.0,-2.0,-1.0,-3.0,1651086320952375.0,2
883,-7.0,-1.0,3.0,6.0,3.0,2.0,2.0,0.0,1651086320952375.0,2
884,4.0,0.0,-5.0,7.0,-3.0,-5.0,0.0,2.0,1651086320966215.0,2
885,-3.0,-4.0,-24.0,-44.0,-7.0,-2.0,-1.0,-5.0,1651086320966215.0,2
886,-3.0,1.0,37.0,36.0,4.0,0.0,-2.0,3.0,1651086320967212.0,2
887,-3.0,-5.0,-26.0,-18.0,-5.0,-2.0,0.0,-5.0,1651086320967212.0,2
888,0.0,5.0,19.0,3.0,-1.0,-1.0,-1.0,2.0,1651086320988428.0,2
889,1.0,-1.0,-26.0,0.0,0.0,-2.0,-2.0,2.0,1651086320988428.0,2
890,-1.0,0.0,-9.0,-11.0,-1.0,1.0,1.0,-3.0,1651086320989392.0,2
891,-3.0,-1.0,24.0,19.0,0.0,-2.0,1.0,0.0,1651086320989392.0,2
892,-1.0,-1.0,-16.0,-2.0,3.0,2.0,1.0,1.0,1651086321012518.0,2
893,0.0,0.0,-1.0,7.0,1.0,2.0,1.0,0.0,1651086321012518.0,2
894,-2.0,-5.0,-2.0,-12.0,-8.0,-2.0,-2.0,8.0,1651086321014126.0,2
895,-4.0,-1.0,-17.0,-15.0,-4.0,-3.0,-3.0,-8.0,1651086321014126.0,2
896,2.0,1.0,11.0,-5.0,0.0,1.0,-3.0,0.0,1651086321026651.0,2
897,-5.0,0.0,13.0,13.0,1.0,-3.0,1.0,-1.0,1651086321026651.0,2
898,4.0,-2.0,-7.0,10.0,2.0,3.0,2.0,2.0,1651086321027534.0,2
899,-1.0,-2.0,11.0,-12.0,-4.0,0.0,-1.0,1.0,1651086321027534.0,2
900,1.0,1.0,22.0,14.0,3.0,2.0,2.0,2.0,1651086321048563.0,2
901,4.0,-2.0,-45.0,-30.0,-5.0,-3.0,-1.0,4.0,1651086321048563.0,2
902,-4.0,-1.0,30.0,30.0,-1.0,-4.0,-2.0,-6.0,1651086321049532.0,2
903,-5.0,-4.0,5.0,5.0,2.0,2.0,-2.0,-3.0,1651086321049532.0,2
904,3.0,2.0,-1.0,-4.0,3.0,5.0,3.0,-1.0,1651086321071191.0,2
905,-1.0,0.0,13.0,17.0,2.0,1.0,2.0,5.0,1651086321071191.0,2
906,7.0,1.0,7.0,-11.0,-6.0,-4.0,-5.0,-3.0,1651086321072060.0,2
907,-1.0,2.0,-6.0,8.0,4.0,1.0,3.0,0.0,1651086321072060.0,2
908,-6.0,-4.0,-16.0,-6.0,-4.0,-4.0,-3.0,-5.0,1651086321086528.0,2
909,-2.0,-2.0,18.0,1.0,2.0,0.0,-1.0,4.0,1651086321086528.0,2
910,2.0,2.0,5.0,24.0,0.0,-1.0,1.0,0.0,1651086321092646.0,2
911,-3.0,-1.0,7.0,-12.0,-4.0,-3.0,1.0,3.0,1651086321092646.0,2
912,1.0,1.0,-9.0,-6.0,-1.0,0.0,-2.0,-1.0,1651086321108554.0,2
913,0.0,0.0,-2.0,15.0,6.0,1.0,1.0,-3.0,1651086321108554.0,2
914,4.0,1.0,0.0,-23.0,-3.0,-3.0,-4.0,-2.0,1651086321114539.0,2
915,-1.0,1.0,14.0,25.0,4.0,0.0,0.0,2.0,1651086321114539.0,2
916,-9.0,-1.0,-3.0,-7.0,-2.0,0.0,0.0,1.0,1651086321131425.0,2
917,1.0,0.0,-3.0,3.0,-3.0,-4.0,-3.0,-4.0,1651086321131425.0,2
918,1.0,3.0,7.0,10.0,-1.0,1.0,3.0,3.0,1651086321132253.0,2
919,-4.0,-3.0,-19.0,-18.0,-2.0,1.0,-1.0,-2.0,1651086321132253.0,2
920,1.0,-1.0,12.0,5.0,-2.0,-2.0,-3.0,1.0,1651086321145384.0,2
921,-4.0,-2.0,-20.0,-5.0,5.0,2.0,-2.0,-2.0,1651086321145384.0,2
922,1.0,-1.0,-16.0,-12.0,-3.0,-1.0,-2.0,-4.0,1651086321152363.0,2
923,2.0,1.0,4.0,-5.0,-2.0,2.0,-1.0,-2.0,1651086321152363.0,2
924,-2.0,1.0,20.0,28.0,-2.0,-4.0,-1.0,-1.0,1651086321169231.0,2
925,-1.0,-1.0,3.0,-6.0,-7.0,-2.0,-4.0,-2.0,1651086321169231.0,2
926,-4.0,-1.0,-22.0,-13.0,3.0,0.0,-3.0,-3.0,1651086321170231.0,2
927,-1.0,-3.0,-13.0,6.0,1.0,-3.0,-1.0,1.0,1651086321170231.0,2
928,0.0,0.0,-2.0,-7.0,3.0,3.0,-1.0,-1.0,1651086321191384.0,2
929,-2.0,0.0,11.0,8.0,-3.0,-3.0,-1.0,-2.0,1651086321191384.0,2
930,-1.0,0.0,4.0,-2.0,1.0,-2.0,-1.0,-1.0,1651086321192227.0,2
931,1.0,-2.0,-6.0,2.0,0.0,0.0,-1.0,-1.0,1651086321192227.0,2
932,0.0,-1.0,-13.0,-10.0,-4.0,-1.0,2.0,1.0,1651086321205225.0,2
933,-1.0,0.0,26.0,26.0,3.0,0.0,-1.0,-3.0,1651086321205225.0,2
934,-3.0,-1.0,-5.0,-12.0,-2.0,0.0,-2.0,2.0,1651086321212578.0,2
935,1.0,-1.0,-4.0,-8.0,1.0,1.0,0.0,0.0,1651086321212578.0,2
936,-2.0,-3.0,15.0,9.0,-3.0,-1.0,0.0,-2.0,1651086321229236.0,2
937,-1.0,-1.0,3.0,-16.0,-6.0,0.0,0.0,0.0,1651086321229236.0,2
938,-1.0,-3.0,-11.0,-2.0,8.0,3.0,2.0,-1.0,1651086321230273.0,2
939,2.0,0.0,3.0,-5.0,-1.0,-2.0,-4.0,-1.0,1651086321230273.0,2
940,1.0,-1.0,-3.0,-1.0,3.0,0.0,-1.0,2.0,1651086321251364.0,2
941,0.0,-1.0,-13.0,-9.0,-4.0,0.0,-1.0,-2.0,1651086321251364.0,2
942,-2.0,0.0,-12.0,4.0,-2.0,1.0,0.0,-2.0,1651086321252202.0,2
943,-3.0,-1.0,9.0,-8.0,-2.0,2.0,2.0,-1.0,1651086321252202.0,2
944,5.0,0.0,-12.0,-9.0,0.0,-1.0,-1.0,0.0,1651086321265192.0,2
945,-2.0,-1.0,5.0,7.0,-2.0,-3.0,0.0,-10.0,1651086321265192.0,2
946,4.0,-5.0,-1.0,5.0,0.0,-2.0,-1.0,3.0,1651086321272312.0,2
947,-3.0,-1.0,-4.0,-7.0,1.0,-1.0,0.0,-4.0,1651086321272312.0,2
948,-2.0,-2.0,-13.0,-14.0,-2.0,-2.0,-3.0,-1.0,1651086321288533.0,2
949,0.0,0.0,21.0,12.0,3.0,5.0,4.0,3.0,1651086321288533.0,2
950,-2.0,0.0,-15.0,-8.0,-1.0,-4.0,-4.0,-3.0,1651086321289534.0,2
951,1.0,0.0,-15.0,-15.0,-8.0,-1.0,2.0,-1.0,1651086321289534.0,2
952,-3.0,-1.0,28.0,27.0,0.0,-2.0,0.0,2.0,1651086321311320.0,2
953,0.0,0.0,-11.0,-11.0,0.0,-1.0,-1.0,-1.0,1651086321311320.0,2
954,-1.0,1.0,8.0,-6.0,1.0,5.0,5.0,1.0,1651086321312320.0,2
955,0.0,-2.0,-3.0,6.0,0.0,-3.0,-3.0,0.0,1651086321312320.0,2
956,-3.0,-3.0,-6.0,-23.0,-10.0,-3.0,0.0,-1.0,1651086321326204.0,2
957,-2.0,0.0,-7.0,19.0,4.0,-1.0,-2.0,2.0,1651086321326204.0,2
958,0.0,2.0,24.0,11.0,4.0,4.0,3.0,-2.0,1651086321332126.0,2
959,0.0,-2.0,-2.0,9.0,-1.0,-1.0,-1.0,0.0,1651086321332126.0,2
960,-3.0,-4.0,-29.0,-21.0,-1.0,-1.0,0.0,-1.0,1651086321348261.0,2
961,-1.0,-4.0,-8.0,0.0,-5.0,-3.0,-1.0,1.0,1651086321348261.0,2
962,0.0,-2.0,14.0,3.0,-1.0,-3.0,-2.0,-1.0,1651086321350091.0,2
963,0.0,1.0,2.0,8.0,4.0,2.0,1.0,0.0,1651086321350091.0,2
964,1.0,0.0,5.0,-5.0,-2.0,0.0,0.0,-1.0,1651086321371206.0,2
965,0.0,1.0,-23.0,-12.0,1.0,-1.0,0.0,5.0,1651086321371206.0,2
966,-4.0,1.0,12.0,17.0,0.0,0.0,-1.0,-7.0,1651086321372204.0,2
967,-2.0,-1.0,11.0,6.0,1.0,-1.0,-4.0,0.0,1651086321372204.0,2
968,0.0,0.0,-15.0,-12.0,-1.0,-4.0,-2.0,-1.0,1651086321385372.0,2
969,2.0,0.0,5.0,-1.0,0.0,0.0,-1.0,0.0,1651086321385372.0,2
970,-2.0,-2.0,-11.0,-7.0,1.0,2.0,2.0,1.0,1651086321393211.0,2
971,1.0,3.0,10.0,9.0,-2.0,0.0,-1.0,-1.0,1651086321393211.0,2
972,-1.0,4.0,10.0,11.0,-3.0,1.0,2.0,2.0,1651086321408990.0,2
973,-4.0,-7.0,-7.0,-1.0,10.0,-1.0,-1.0,-4.0,1651086321408990.0,2
974,4.0,-2.0,5.0,3.0,0.0,-1.0,0.0,4.0,1651086321410148.0,2
975,-2.0,-1.0,-26.0,-10.0,-4.0,-2.0,-4.0,0.0,1651086321410148.0,2
976,1.0,-1.0,-1.0,-9.0,4.0,1.0,3.0,2.0,1651086321431411.0,2
977,-1.0,0.0,-1.0,2.0,-4.0,-1.0,2.0,-1.0,1651086321431411.0,2
978,-1.0,3.0,4.0,19.0,0.0,-1.0,2.0,0.0,1651086321432411.0,2
979,-2.0,-3.0,10.0,-9.0,-4.0,-2.0,-3.0,-1.0,1651086321432411.0,2
980,2.0,1.0,-7.0,11.0,2.0,3.0,3.0,1.0,1651086321454382.0,2
981,0.0,3.0,0.0,-8.0,-5.0,-1.0,-3.0,0.0,1651086321454382.0,2
982,-2.0,-3.0,-4.0,-21.0,-3.0,0.0,-2.0,3.0,1651086321455255.0,2
983,-3.0,3.0,8.0,21.0,2.0,0.0,2.0,-7.0,1651086321455255.0,2
984,-1.0,1.0,18.0,3.0,-1.0,0.0,-4.0,-3.0,1651086321469234.0,2
985,-1.0,-5.0,-6.0,-2.0,-2.0,-5.0,-6.0,-2.0,1651086321469234.0,2
986,0.0,3.0,-11.0,-13.0,-2.0,1.0,3.0,1.0,1651086321470268.0,2
987,0.0,-1.0,-5.0,-11.0,-4.0,-5.0,-2.0,2.0,1651086321470268.0,2
988,2.0,-1.0,5.0,10.0,3.0,0.0,1.0,-2.0,1651086321491823.0,2
989,1.0,1.0,7.0,-1.0,-5.0,-1.0,-3.0,-1.0,1651086321491823.0,2
990,-3.0,-3.0,-5.0,-4.0,-5.0,0.0,-1.0,-1.0,1651086321492663.0,2
991,4.0,1.0,-4.0,-11.0,9.0,7.0,4.0,4.0,1651086321492663.0,2
992,0.0,1.0,3.0,9.0,1.0,-3.0,-2.0,-2.0,1651086321504190.0,2
993,0.0,-1.0,-2.0,2.0,-7.0,-1.0,1.0,2.0,1651086321504190.0,2
994,0.0,0.0,-4.0,-5.0,-5.0,-3.0,-2.0,-1.0,1651086321514255.0,2
995,-1.0,-3.0,10.0,2.0,-3.0,-3.0,0.0,-3.0,1651086321514255.0,2
996,-2.0,-1.0,-12.0,-12.0,-2.0,1.0,-1.0,0.0,1651086321528919.0,2
997,2.0,5.0,21.0,22.0,6.0,4.0,2.0,3.0,1651086321528919.0,2
998,2.0,-1.0,-9.0,-13.0,-5.0,-6.0,-6.0,-2.0,1651086321530104.0,2
999,1.0,3.0,13.0,4.0,-2.0,-1.0,1.0,1.0,1651086321530104.0,2
1000,-3.0,-4.0,-8.0,7.0,-4.0,-1.0,0.0,0.0,1651086321551713.0,2
1001,0.0,-2.0,-18.0,-11.0,4.0,-2.0,2.0,1.0,1651086321551713.0,2
1002,2.0,5.0,6.0,5.0,10.0,6.0,1.0,-1.0,1651086321552712.0,2
1003,-1.0,-2.0,2.0,-1.0,2.0,4.0,-2.0,0.0,1651086321552712.0,2
1004,-1.0,-1.0,-3.0,-11.0,-8.0,-3.0,-2.0,0.0,1651086321565223.0,2
1005,3.0,1.0,12.0,-2.0,-10.0,-2.0,3.0,-1.0,1651086321565223.0,2
1006,-1.0,7.0,13.0,18.0,17.0,1.0,-2.0,-1.0,1651086321580301.0,2
1007,-4.0,-4.0,-4.0,8.0,-1.0,-2.0,-2.0,0.0,1651086321580301.0,2
1008,-1.0,-4.0,-18.0,-5.0,2.0,1.0,-1.0,-2.0,1651086321589232.0,2
1009,-2.0,3.0,11.0,1.0,-10.0,-4.0,-1.0,0.0,1651086321589232.0,2
1010,0.0,-3.0,2.0,-8.0,-9.0,-1.0,-2.0,0.0,1651086321590263.0,2
1011,-1.0,0.0,-8.0,0.0,-1.0,0.0,1.0,1.0,1651086321590263.0,2
1012,0.0,0.0,5.0,2.0,2.0,-2.0,-2.0,0.0,1651086321611771.0,2
1013,0.0,-2.0,1.0,0.0,11.0,4.0,1.0,-1.0,1651086321611771.0,2
1014,-1.0,-2.0,-6.0,-3.0,-10.0,-4.0,-1.0,0.0,1651086321612802.0,2
1015,0.0,0.0,-6.0,3.0,6.0,0.0,0.0,0.0,1651086321612802.0,2
1016,2.0,0.0,0.0,0.0,5.0,0.0,0.0,0.0,1651086321625208.0,2
1017,1.0,0.0,0.0,-2.0,-1.0,0.0,-2.0,-4.0,1651086321625208.0,2
1018,-1.0,-23.0,-17.0,-2.0,1.0,1.0,2.0,2.0,1651086321641314.0,2
1019,0.0,22.0,14.0,-12.0,-14.0,-2.0,-1.0,0.0,1651086321641314.0,2
1020,-2.0,0.0,11.0,14.0,4.0,-2.0,0.0,-1.0,1651086321648526.0,2
1021,0.0,2.0,5.0,-8.0,-3.0,0.0,-2.0,-1.0,1651086321648526.0,2
1022,-2.0,-6.0,-18.0,8.0,12.0,1.0,-2.0,-1.0,1651086321649529.0,2
1023,2.0,-15.0,-16.0,-16.0,-11.0,-5.0,-1.0,1.0,1651086321649529.0,2
1024,-4.0,-1.0,7.0,13.0,1.0,0.0,-1.0,0.0,1651086321671297.0,2
1025,-2.0,8.0,7.0,5.0,4.0,-1.0,0.0,-1.0,1651086321671297.0,2
1026,-2.0,2.0,0.0,-5.0,-7.0,-4.0,0.0,1.0,1651086321672209.0,2
1027,0.0,7.0,-9.0,-1.0,0.0,2.0,0.0,0.0,1651086321672209.0,2
1028,0.0,-15.0,8.0,-4.0,2.0,1.0,-1.0,0.0,1651086321685311.0,2
1029,0.0,-11.0,-19.0,-2.0,-4.0,1.0,0.0,0.0,1651086321685311.0,2
1030,-2.0,15.0,11.0,-4.0,-1.0,-1.0,0.0,-1.0,1651086321693176.0,2
1031,-1.0,8.0,-8.0,4.0,0.0,-3.0,-1.0,-2.0,1651086321693176.0,2
1032,1.0,-5.0,-4.0,-6.0,-2.0,-2.0,-2.0,-2.0,1651086321708173.0,2
1033,-4.0,-11.0,-6.0,-2.0,0.0,1.0,0.0,1.0,1651086321708173.0,2
1034,0.0,-3.0,-2.0,-5.0,-5.0,-1.0,0.0,-1.0,1651086321715156.0,2
1035,0.0,-5.0,3.0,6.0,2.0,1.0,-1.0,-1.0,1651086321715156.0,2
1036,1.0,3.0,-7.0,-4.0,-2.0,-2.0,-1.0,0.0,1651086321731063.0,2
1037,-1.0,-2.0,2.0,2.0,1.0,1.0,0.0,1.0,1651086321731063.0,2
1038,-1.0,5.0,-1.0,1.0,1.0,1.0,-1.0,-1.0,1651086321732020.0,2
1039,-2.0,-8.0,3.0,3.0,3.0,1.0,-1.0,0.0,1651086321732020.0,2
1040,0.0,6.0,-3.0,-8.0,-5.0,0.0,-1.0,1.0,1651086321744026.0,2
1041,-2.0,-21.0,-11.0,0.0,1.0,1.0,0.0,-1.0,1651086321744026.0,2
1042,-1.0,16.0,5.0,2.0,-5.0,-5.0,-1.0,0.0,1651086321753235.0,2
1043,0.0,-1.0,5.0,8.0,5.0,0.0,-1.0,-1.0,1651086321753235.0,2
1044,1.0,-9.0,-17.0,-16.0,-1.0,1.0,0.0,-1.0,1651086321768549.0,2
1045,1.0,15.0,12.0,6.0,1.0,-1.0,0.0,-1.0,1651086321768549.0,2
1046,1.0,-12.0,1.0,-2.0,-4.0,-1.0,0.0,0.0,1651086321775229.0,2
1047,-1.0,6.0,-4.0,1.0,0.0,-2.0,-1.0,0.0,1651086321775229.0,2
1048,-1.0,-4.0,0.0,6.0,1.0,-2.0,-2.0,-1.0,1651086321790521.0,2
1049,-2.0,9.0,2.0,-2.0,-1.0,-2.0,-2.0,0.0,1651086321790521.0,2
1050,0.0,-8.0,-4.0,-6.0,-5.0,-2.0,-1.0,-2.0,1651086321792472.0,2
1051,-4.0,-3.0,-6.0,5.0,2.0,1.0,1.0,1.0,1651086321792472.0,2
1052,0.0,10.0,9.0,-4.0,-1.0,2.0,1.0,2.0,1651086321804361.0,2
1053,7.0,-8.0,-9.0,-8.0,0.0,-2.0,-1.0,0.0,1651086321804361.0,2
1054,0.0,3.0,4.0,1.0,1.0,-3.0,-1.0,0.0,1651086321813170.0,2
1055,-1.0,-14.0,-4.0,3.0,1.0,-1.0,0.0,1.0,1651086321813170.0,2
1056,-3.0,14.0,6.0,-3.0,-1.0,0.0,0.0,-6.0,1651086321828129.0,2
1057,-1.0,-1.0,6.0,3.0,-3.0,-2.0,0.0,5.0,1651086321828129.0,2
1058,1.0,-2.0,-16.0,-1.0,-2.0,-2.0,-2.0,-1.0,1651086321834206.0,2
1059,0.0,-13.0,-3.0,-2.0,4.0,4.0,0.0,-4.0,1651086321834206.0,2
1060,-1.0,-2.0,13.0,13.0,-1.0,-4.0,-2.0,0.0,1651086321858747.0,2
1061,1.0,15.0,3.0,-3.0,0.0,0.0,0.0,-3.0,1651086321858747.0,2
1062,-2.0,-7.0,-3.0,-6.0,-3.0,0.0,-1.0,-2.0,1651086321860103.0,2
1063,-2.0,-1.0,-1.0,0.0,-3.0,-3.0,-3.0,1.0,1651086321860103.0,2
1064,0.0,-6.0,2.0,7.0,0.0,1.0,0.0,1.0,1651086321873072.0,2
1065,0.0,2.0,0.0,-2.0,-3.0,0.0,1.0,0.0,1651086321873072.0,2
1066,-1.0,18.0,7.0,7.0,6.0,1.0,0.0,-2.0,1651086321875062.0,2
1067,1.0,3.0,-1.0,-11.0,-2.0,-1.0,0.0,-1.0,1651086321875062.0,2
1068,0.0,-1.0,-6.0,-3.0,4.0,2.0,2.0,1.0,1651086321888105.0,2
1069,-3.0,-11.0,-7.0,0.0,-4.0,-3.0,-4.0,-1.0,1651086321888105.0,2
1070,-3.0,-7.0,2.0,-2.0,1.0,3.0,1.0,-1.0,1651086321894180.0,2
1071,-1.0,-7.0,1.0,0.0,-4.0,-1.0,0.0,-1.0,1651086321894180.0,2
1072,2.0,17.0,-9.0,-4.0,0.0,-1.0,-1.0,-1.0,1651086321911447.0,2
1073,-2.0,-4.0,-2.0,0.0,0.0,-1.0,-1.0,-1.0,1651086321911447.0,2
1074,0.0,-7.0,0.0,2.0,2.0,2.0,-1.0,0.0,1651086321917411.0,2
1075,1.0,21.0,11.0,3.0,1.0,0.0,0.0,1.0,1651086321917411.0,2
1076,-4.0,-13.0,-2.0,-2.0,-7.0,-4.0,-1.0,0.0,1651086321933766.0,2
1077,-1.0,4.0,-6.0,-4.0,-2.0,-2.0,-1.0,0.0,1651086321933766.0,2
1078,2.0,-9.0,6.0,-1.0,0.0,4.0,-1.0,0.0,1651086321934690.0,2
1079,-1.0,7.0,1.0,1.0,0.0,-1.0,-2.0,0.0,1651086321934690.0,2
1080,1.0,-4.0,-4.0,-4.0,1.0,1.0,0.0,0.0,1651086321948090.0,2
1081,1.0,10.0,4.0,2.0,-2.0,0.0,-2.0,-2.0,1651086321948090.0,2
1082,0.0,-8.0,0.0,1.0,0.0,-1.0,0.0,-1.0,1651086321954338.0,2
1083,-2.0,0.0,-5.0,-4.0,-2.0,0.0,-1.0,-2.0,1651086321954338.0,2
1084,-1.0,0.0,-9.0,0.0,0.0,0.0,-1.0,-1.0,1651086321971208.0,2
1085,-1.0,-4.0,3.0,0.0,-1.0,-1.0,-2.0,1.0,1651086321971208.0,2
1086,0.0,3.0,-1.0,-2.0,-3.0,-3.0,-1.0,-1.0,1651086321977329.0,2
1087,0.0,-6.0,3.0,-3.0,0.0,-1.0,0.0,-1.0,1651086321977329.0,2
1088,0.0,-2.0,1.0,-2.0,-2.0,-1.0,-1.0,-1.0,1651086321995232.0,2
1089,-3.0,2.0,4.0,1.0,-2.0,-1.0,0.0,-3.0,1651086321995232.0,2
1090,-2.0,-4.0,-16.0,-3.0,0.0,-1.0,-1.0,0.0,1651086321996189.0,2
1091,0.0,-2.0,4.0,2.0,-2.0,-3.0,-1.0,1.0,1651086321996189.0,2
1092,-2.0,2.0,6.0,1.0,3.0,3.0,0.0,-1.0,1651086322007431.0,2
1093,-1.0,-3.0,-10.0,-5.0,-1.0,0.0,-1.0,0.0,1651086322007431.0,2
1094,-1.0,3.0,6.0,1.0,-3.0,-2.0,-1.0,-2.0,1651086322016198.0,2
1095,-1.0,-6.0,-4.0,2.0,1.0,0.0,0.0,-1.0,1651086322016198.0,2
1096,-1.0,-7.0,-1.0,-1.0,-1.0,0.0,1.0,0.0,1651086322030433.0,2
1097,-2.0,3.0,4.0,1.0,0.0,0.0,0.0,-1.0,1651086322030433.0,2
1098,-2.0,2.0,-2.0,-4.0,-5.0,-2.0,-3.0,0.0,1651086322032430.0,2
1099,2.0,-2.0,-6.0,-2.0,0.0,1.0,0.0,0.0,1651086322032430.0,2
1100,-1.0,-1.0,1.0,0.0,-4.0,0.0,-2.0,2.0,1651086322053199.0,2
1101,-1.0,-3.0,-2.0,1.0,5.0,0.0,0.0,-2.0,1651086322053199.0,2
1102,-2.0,2.0,1.0,0.0,1.0,1.0,2.0,-1.0,1651086322055197.0,2
1103,-2.0,0.0,1.0,-1.0,-4.0,0.0,-2.0,-1.0,1651086322055197.0,2
1104,0.0,1.0,-2.0,-1.0,1.0,-1.0,-2.0,0.0,1651086322067266.0,2
1105,-1.0,-4.0,-1.0,-1.0,0.0,-1.0,1.0,-2.0,1651086322067266.0,2
1106,-2.0,3.0,-1.0,-1.0,3.0,0.0,0.0,0.0,1651086322076245.0,2
1107,-1.0,-2.0,1.0,-1.0,-2.0,-1.0,-1.0,-1.0,1651086322076245.0,2
1108,0.0,2.0,-2.0,-1.0,-4.0,-3.0,-1.0,0.0,1651086322091669.0,2
1109,1.0,-1.0,-2.0,-1.0,0.0,-1.0,-1.0,1.0,1651086322091669.0,2
1110,0.0,0.0,2.0,0.0,-2.0,0.0,0.0,0.0,1651086322092701.0,2
1111,0.0,-4.0,-2.0,0.0,-1.0,-1.0,1.0,0.0,1651086322092701.0,2
1112,1.0,-2.0,-1.0,0.0,0.0,0.0,-1.0,0.0,1651086322113242.0,2
1113,-1.0,4.0,6.0,1.0,1.0,-1.0,0.0,-1.0,1651086322113242.0,2
1114,0.0,-1.0,-1.0,0.0,-1.0,0.0,0.0,0.0,1651086322115241.0,2
1115,1.0,-1.0,-3.0,-2.0,-3.0,0.0,0.0,0.0,1651086322115241.0,2
1116,0.0,0.0,-2.0,-2.0,-1.0,-2.0,0.0,0.0,1651086322128937.0,2
1117,-1.0,-2.0,0.0,-3.0,-2.0,1.0,1.0,1.0,1651086322128937.0,2
1118,1.0,-1.0,-2.0,0.0,-5.0,-2.0,0.0,0.0,1651086322143118.0,2
1119,-1.0,0.0,3.0,4.0,7.0,0.0,0.0,-1.0,1651086322143118.0,2
1120,0.0,0.0,1.0,1.0,5.0,3.0,0.0,-1.0,1651086322151299.0,2
1121,0.0,-4.0,-3.0,0.0,-1.0,-3.0,0.0,-1.0,1651086322151299.0,2
1122,0.0,1.0,-3.0,-3.0,-3.0,-5.0,-1.0,0.0,1651086322152427.0,2
1123,0.0,0.0,-1.0,-1.0,-2.0,-3.0,0.0,0.0,1651086322152427.0,2
1124,-2.0,-1.0,1.0,1.0,2.0,1.0,0.0,0.0,1651086322173397.0,2
1125,-1.0,-2.0,1.0,1.0,1.0,1.0,0.0,0.0,1651086322173397.0,2
1126,1.0,1.0,-3.0,-4.0,-3.0,-2.0,0.0,-1.0,1651086322174395.0,2
1127,0.0,0.0,-2.0,0.0,1.0,-3.0,0.0,-1.0,1651086322174395.0,2
1128,-1.0,0.0,0.0,-1.0,-2.0,-1.0,0.0,-2.0,1651086322196262.0,2
1129,0.0,-1.0,-2.0,0.0,2.0,0.0,-1.0,-1.0,1651086322196262.0,2
1130,1.0,-2.0,3.0,0.0,1.0,1.0,-1.0,-1.0,1651086322197211.0,2
1131,-1.0,-1.0,-1.0,-1.0,0.0,0.0,-1.0,0.0,1651086322197211.0,2
1132,-1.0,-1.0,-1.0,-2.0,-5.0,-3.0,-2.0,0.0,1651086322211262.0,2
1133,-2.0,0.0,0.0,3.0,-3.0,-2.0,-1.0,1.0,1651086322211262.0,2
1134,1.0,-1.0,0.0,-3.0,4.0,4.0,0.0,-1.0,1651086322212225.0,2
1135,1.0,0.0,-1.0,0.0,-2.0,-3.0,-2.0,0.0,1651086322212225.0,2
1136,0.0,0.0,0.0,0.0,1.0,-3.0,-2.0,-1.0,1651086322233344.0,2
1137,0.0,0.0,1.0,-1.0,2.0,3.0,0.0,-1.0,1651086322233344.0,2
1138,-2.0,0.0,0.0,0.0,-1.0,-3.0,-1.0,-1.0,1651086322235199.0,2
1139,-1.0,0.0,0.0,-1.0,-2.0,0.0,0.0,-1.0,1651086322235199.0,2
1140,-1.0,1.0,-2.0,-2.0,-1.0,-1.0,0.0,-1.0,1651086322248097.0,2
1141,0.0,0.0,0.0,0.0,-3.0,-2.0,-1.0,-1.0,1651086322248097.0,2
1142,-1.0,-1.0,0.0,2.0,2.0,3.0,-1.0,0.0,1651086322254342.0,2
1143,0.0,-1.0,0.0,-1.0,-1.0,-1.0,0.0,-1.0,1651086322254342.0,2
1144,-2.0,-1.0,-2.0,0.0,1.0,0.0,0.0,0.0,1651086322270455.0,2
1145,0.0,-1.0,0.0,-2.0,-1.0,-1.0,-1.0,0.0,1651086322270455.0,2
1146,0.0,-1.0,-2.0,-1.0,-4.0,-2.0,0.0,0.0,1651086322272486.0,0
1147,-1.0,-1.0,-1.0,-1.0,1.0,-2.0,-1.0,0.0,1651086322272486.0,0
1148,-1.0,-1.0,-2.0,1.0,-1.0,1.0,1.0,0.0,1651086322293321.0,0
1149,0.0,0.0,-3.0,-1.0,-2.0,0.0,0.0,-1.0,1651086322293321.0,0
1150,-1.0,-1.0,0.0,-1.0,-3.0,-2.0,0.0,-3.0,1651086322295205.0,0
1151,-2.0,-3.0,-1.0,1.0,-1.0,-1.0,0.0,0.0,1651086322295205.0,0
1152,0.0,0.0,1.0,-1.0,2.0,-1.0,-1.0,-1.0,1651086322307352.0,0
1153,0.0,-2.0,-1.0,2.0,1.0,2.0,0.0,0.0,1651086322307352.0,0
1154,0.0,0.0,0.0,0.0,0.0,-1.0,0.0,-1.0,1651086322316204.0,0
1155,-1.0,1.0,-1.0,0.0,-1.0,1.0,-1.0,-2.0,1651086322316204.0,0
1156,-1.0,-1.0,-1.0,-3.0,0.0,0.0,0.0,0.0,1651086322330682.0,0
1157,-1.0,0.0,2.0,-1.0,-2.0,-1.0,-1.0,-2.0,1651086322330682.0,0
1158,0.0,-1.0,-2.0,-2.0,-1.0,-2.0,-2.0,0.0,1651086322332381.0,0
1159,0.0,-1.0,-2.0,1.0,2.0,2.0,0.0,0.0,1651086322332381.0,0
1160,1.0,-2.0,2.0,3.0,2.0,2.0,1.0,2.0,1651086322353215.0,0
1161,-2.0,-1.0,-2.0,-1.0,-1.0,-3.0,0.0,0.0,1651086322353215.0,0
1162,-2.0,-1.0,-1.0,0.0,-1.0,-3.0,0.0,-1.0,1651086322355212.0,0
1163,1.0,0.0,0.0,-3.0,-4.0,-2.0,-1.0,-1.0,1651086322355212.0,0
1164,0.0,-2.0,0.0,0.0,-1.0,0.0,-1.0,-2.0,1651086322367378.0,0
1165,0.0,-3.0,-1.0,0.0,2.0,2.0,0.0,-1.0,1651086322367378.0,0
1166,-1.0,-1.0,-2.0,-1.0,0.0,0.0,-1.0,-1.0,1651086322383234.0,0
1167,0.0,1.0,-1.0,-2.0,-5.0,-3.0,-1.0,-1.0,1651086322383234.0,0
1168,-1.0,0.0,0.0,1.0,-5.0,-5.0,0.0,-2.0,1651086322391376.0,0
1169,-1.0,0.0,1.0,1.0,-1.0,6.0,1.0,1.0,1651086322391376.0,0
1170,-2.0,-2.0,0.0,2.0,7.0,-1.0,0.0,0.0,1651086322392210.0,0
1171,-1.0,-1.0,1.0,0.0,3.0,3.0,-2.0,-2.0,1651086322392210.0,0
1172,-1.0,0.0,-2.0,-2.0,1.0,1.0,0.0,1.0,1651086322413569.0,0
1173,-1.0,-3.0,-2.0,-3.0,-6.0,-7.0,-1.0,-1.0,1651086322413569.0,0
1174,1.0,-2.0,-4.0,-1.0,-4.0,-2.0,1.0,1.0,1651086322414438.0,0
1175,0.0,13.0,5.0,0.0,-1.0,-1.0,-1.0,-1.0,1651086322414438.0,0
1176,-2.0,-6.0,1.0,-1.0,0.0,0.0,0.0,0.0,1651086322427366.0,0
1177,0.0,-11.0,-7.0,-2.0,1.0,1.0,-2.0,0.0,1651086322427366.0,0
1178,0.0,17.0,5.0,0.0,-1.0,1.0,0.0,-2.0,1651086322436204.0,0
1179,-1.0,-11.0,-8.0,-2.0,0.0,-1.0,0.0,-1.0,1651086322436204.0,0
1180,-1.0,17.0,0.0,-1.0,-3.0,-1.0,-2.0,-1.0,1651086322451284.0,0
1181,0.0,-5.0,1.0,0.0,1.0,-1.0,-1.0,-2.0,1651086322451284.0,0
1182,-1.0,-4.0,1.0,-2.0,0.0,-1.0,0.0,1.0,1651086322452284.0,0
1183,-2.0,-4.0,-1.0,-3.0,-2.0,0.0,0.0,0.0,1651086322452284.0,0
1184,-1.0,-5.0,-2.0,-1.0,0.0,-1.0,-1.0,0.0,1651086322473775.0,0
1185,-3.0,0.0,-2.0,0.0,1.0,-2.0,0.0,-1.0,1651086322473775.0,0
1186,1.0,-3.0,0.0,0.0,-2.0,-1.0,-1.0,-2.0,1651086322475662.0,0
1187,-1.0,3.0,2.0,3.0,2.0,1.0,0.0,-3.0,1651086322475662.0,0
1188,1.0,-5.0,-2.0,1.0,0.0,1.0,-1.0,-1.0,1651086322487385.0,0
1189,1.0,6.0,2.0,0.0,-2.0,-1.0,0.0,1.0,1651086322487385.0,0
1190,-1.0,-2.0,-1.0,-1.0,-3.0,-2.0,-2.0,0.0,1651086322503224.0,0
1191,0.0,-4.0,-2.0,-3.0,-3.0,-3.0,0.0,0.0,1651086322503224.0,0
1192,0.0,0.0,-1.0,-3.0,-1.0,-1.0,0.0,-2.0,1651086322511947.0,0
1193,-1.0,1.0,0.0,0.0,1.0,-1.0,0.0,-1.0,1651086322511947.0,0
1194,0.0,-3.0,1.0,0.0,1.0,2.0,0.0,1.0,1651086322511947.0,0
1195,-1.0,2.0,2.0,3.0,-1.0,1.0,-2.0,-1.0,1651086322511947.0,0
1196,-1.0,0.0,1.0,1.0,0.0,-1.0,0.0,0.0,1651086322534421.0,0
1197,0.0,1.0,-1.0,0.0,-1.0,-3.0,-1.0,-1.0,1651086322534421.0,0
1198,-2.0,-4.0,-3.0,-3.0,-2.0,-1.0,0.0,-2.0,1651086322535260.0,0
1199,-3.0,-1.0,5.0,-1.0,1.0,0.0,0.0,-3.0,1651086322535260.0,0
1200,0.0,-2.0,-12.0,-1.0,-2.0,0.0,0.0,0.0,1651086322547392.0,0
1201,-1.0,0.0,2.0,-2.0,-1.0,-2.0,-1.0,0.0,1651086322547392.0,0
1202,0.0,-1.0,-3.0,-1.0,0.0,-1.0,-1.0,0.0,1651086322556200.0,0
1203,0.0,-1.0,-1.0,-2.0,-2.0,-1.0,-1.0,0.0,1651086322556200.0,0
1204,0.0,-2.0,3.0,-4.0,-4.0,-2.0,-2.0,-1.0,1651086322571160.0,0
1205,-1.0,-1.0,2.0,4.0,7.0,2.0,1.0,0.0,1651086322571160.0,0
1206,-2.0,0.0,0.0,0.0,3.0,2.0,1.0,-1.0,1651086322572157.0,0
1207,0.0,-1.0,-3.0,-1.0,-1.0,-1.0,-1.0,-2.0,1651086322572157.0,0
1208,-1.0,-2.0,-2.0,-3.0,-3.0,-3.0,-2.0,-1.0,1651086322594329.0,0
1209,0.0,2.0,-1.0,-1.0,-3.0,-2.0,-2.0,-1.0,1651086322594329.0,0
1210,-1.0,-1.0,1.0,0.0,1.0,-1.0,0.0,1.0,1651086322595259.0,0
1211,-1.0,-1.0,-3.0,0.0,-1.0,-1.0,-2.0,2.0,1651086322595259.0,0
1212,-1.0,-1.0,0.0,-1.0,-1.0,0.0,0.0,-2.0,1651086322616258.0,0
1213,-1.0,-1.0,-1.0,-2.0,-2.0,-1.0,0.0,0.0,1651086322616258.0,0
1214,0.0,-2.0,-2.0,2.0,0.0,0.0,-2.0,-1.0,1651086322617226.0,0
1215,0.0,-2.0,0.0,-1.0,2.0,2.0,1.0,0.0,1651086322617226.0,0
1216,0.0,-1.0,0.0,0.0,-1.0,-2.0,0.0,0.0,1651086322631376.0,0
1217,1.0,0.0,0.0,1.0,-2.0,-1.0,1.0,-1.0,1651086322631376.0,0
1218,1.0,-2.0,-1.0,-1.0,-3.0,0.0,0.0,1.0,1651086322632229.0,0
1219,0.0,0.0,-2.0,-2.0,-4.0,-2.0,-1.0,2.0,1651086322632229.0,0
1220,-1.0,-2.0,2.0,1.0,2.0,0.0,0.0,-1.0,1651086322653224.0,0
1221,-1.0,-1.0,-1.0,-2.0,1.0,-1.0,0.0,0.0,1651086322653224.0,0
1222,0.0,1.0,2.0,1.0,-1.0,-1.0,-2.0,-1.0,1651086322668498.0,0
1223,0.0,-1.0,-7.0,1.0,1.0,2.0,0.0,1.0,1651086322668498.0,0
1224,0.0,0.0,2.0,0.0,0.0,0.0,0.0,0.0,1651086322668498.0,0
1225,0.0,0.0,-3.0,-3.0,-6.0,-2.0,0.0,0.0,1651086322668498.0,0
1226,-1.0,-1.0,1.0,-2.0,-2.0,-1.0,-1.0,0.0,1651086322676209.0,0
1227,-2.0,-2.0,1.0,5.0,7.0,2.0,2.0,0.0,1651086322676209.0,0
1228,-1.0,-2.0,-3.0,1.0,1.0,1.0,2.0,-1.0,1651086322699148.0,0
1229,-2.0,0.0,0.0,-1.0,-1.0,0.0,-1.0,-1.0,1651086322699148.0,0
1230,-1.0,0.0,-2.0,-2.0,-2.0,-2.0,-2.0,0.0,1651086322700146.0,0
1231,4.0,0.0,0.0,-3.0,-3.0,-3.0,-2.0,-1.0,1651086322700146.0,0
1232,0.0,-1.0,-2.0,0.0,-1.0,-1.0,1.0,0.0,1651086322713195.0,0
1233,0.0,-3.0,-1.0,-1.0,-1.0,-2.0,0.0,-1.0,1651086322713195.0,0
1234,-1.0,0.0,-1.0,0.0,-1.0,0.0,-2.0,0.0,1651086322715194.0,0
1235,-1.0,-1.0,0.0,3.0,4.0,2.0,2.0,0.0,1651086322715194.0,0
1236,-2.0,-1.0,2.0,3.0,1.0,-1.0,-1.0,0.0,1651086322727679.0,0
1237,0.0,2.0,2.0,-1.0,-2.0,-1.0,-2.0,0.0,1651086322727679.0,0
1238,0.0,-2.0,-8.0,-3.0,-2.0,-2.0,0.0,-3.0,1651086322735793.0,0
1239,0.0,-1.0,6.0,0.0,-2.0,-2.0,-1.0,-1.0,1651086322735793.0,0
1240,0.0,0.0,-2.0,-2.0,-2.0,0.0,-1.0,1.0,1651086322758994.0,0
1241,0.0,1.0,-3.0,0.0,2.0,1.0,1.0,0.0,1651086322758994.0,0
1242,0.0,-1.0,-1.0,-2.0,0.0,-1.0,1.0,0.0,1651086322760019.0,0
1243,-2.0,2.0,1.0,1.0,4.0,2.0,1.0,0.0,1651086322760019.0,0
1244,0.0,1.0,3.0,0.0,0.0,0.0,0.0,0.0,1651086322774239.0,0
1245,-1.0,-1.0,0.0,-1.0,0.0,0.0,0.0,-1.0,1651086322774239.0,0
1246,-1.0,-1.0,-1.0,-2.0,0.0,-1.0,0.0,-1.0,1651086322775122.0,0
1247,1.0,-2.0,-2.0,-5.0,-4.0,-2.0,-3.0,-2.0,1651086322775122.0,0
1248,0.0,-1.0,-2.0,-1.0,0.0,0.0,-2.0,0.0,1651086322796379.0,0
1249,1.0,-2.0,-1.0,1.0,0.0,-1.0,-1.0,-1.0,1651086322796379.0,0
1250,0.0,0.0,-1.0,-1.0,-2.0,0.0,0.0,-1.0,1651086322797246.0,0
1251,-1.0,-1.0,-2.0,-3.0,-3.0,-2.0,-2.0,0.0,1651086322797246.0,0
1252,-2.0,1.0,1.0,1.0,3.0,2.0,0.0,0.0,1651086322811322.0,0
1253,1.0,-2.0,-3.0,-3.0,-1.0,0.0,1.0,-1.0,1651086322811322.0,0
1254,0.0,0.0,4.0,2.0,4.0,0.0,0.0,-3.0,1651086322812192.0,0
1255,1.0,2.0,4.0,-1.0,-4.0,-2.0,-1.0,-1.0,1651086322812192.0,0
1256,-1.0,-2.0,-2.0,-3.0,-6.0,-3.0,-2.0,-1.0,1651086322833373.0,0
1257,-2.0,-3.0,-2.0,1.0,-1.0,0.0,-1.0,0.0,1651086322833373.0,0
1258,-1.0,0.0,0.0,2.0,0.0,0.0,0.0,-1.0,1651086322835252.0,0
1259,0.0,-2.0,-4.0,1.0,3.0,1.0,1.0,0.0,1651086322835252.0,0
1260,0.0,1.0,3.0,-1.0,-1.0,0.0,1.0,-2.0,1651086322856357.0,0
1261,0.0,1.0,-1.0,-2.0,-3.0,-3.0,-2.0,-1.0,1651086322856357.0,0
1262,0.0,-1.0,-4.0,-4.0,-3.0,-1.0,-1.0,1.0,1651086322857209.0,0
1263,-2.0,-1.0,0.0,0.0,-3.0,-1.0,0.0,0.0,1651086322857209.0,0
1264,1.0,-5.0,-2.0,0.0,-3.0,-1.0,-2.0,0.0,1651086322871270.0,0
1265,-1.0,1.0,2.0,1.0,1.0,1.0,0.0,0.0,1651086322871270.0,0
1266,-1.0,-3.0,-9.0,1.0,3.0,3.0,1.0,-1.0,1651086322872225.0,0
1267,0.0,5.0,0.0,0.0,0.0,0.0,0.0,0.0,1651086322872225.0,0
1268,-2.0,-6.0,0.0,-2.0,1.0,0.0,-2.0,-2.0,1651086322894305.0,0
1269,0.0,0.0,-3.0,-1.0,-1.0,-1.0,-1.0,-1.0,1651086322894305.0,0
1270,1.0,0.0,2.0,1.0,-1.0,-2.0,0.0,-2.0,1651086322895254.0,0
1271,0.0,2.0,3.0,-3.0,-3.0,-3.0,-1.0,1.0,1651086322895254.0,0
1272,0.0,-2.0,-19.0,-3.0,-2.0,-3.0,1.0,-2.0,1651086322916260.0,0
1273,-3.0,1.0,5.0,2.0,0.0,1.0,1.0,0.0,1651086322916260.0,0
1274,-1.0,0.0,1.0,2.0,0.0,-2.0,-2.0,-2.0,1651086322917215.0,0
1275,-2.0,-4.0,0.0,2.0,2.0,1.0,-1.0,-1.0,1651086322917215.0,0
1276,-1.0,3.0,2.0,1.0,3.0,-1.0,0.0,1.0,1651086322938586.0,0
1277,0.0,-2.0,0.0,-1.0,-1.0,-1.0,-2.0,0.0,1651086322938586.0,0
1278,-2.0,0.0,-2.0,0.0,-4.0,1.0,0.0,-1.0,1651086322939483.0,0
1279,1.0,-1.0,-3.0,-5.0,-5.0,-4.0,-2.0,0.0,1651086322939483.0,0
1280,-1.0,-1.0,4.0,3.0,0.0,-1.0,1.0,0.0,1651086322954345.0,0
1281,-1.0,1.0,-2.0,2.0,2.0,0.0,0.0,-1.0,1651086322954345.0,0
1282,0.0,-1.0,2.0,2.0,1.0,-2.0,-1.0,0.0,1651086322955214.0,0
1283,0.0,-3.0,-3.0,-2.0,-1.0,0.0,1.0,0.0,1651086322955214.0,0
1284,-1.0,0.0,1.0,-3.0,-4.0,-1.0,0.0,-1.0,1651086322976800.0,0
1285,0.0,0.0,-10.0,-2.0,-5.0,-1.0,-1.0,0.0,1651086322976800.0,0
1286,0.0,3.0,4.0,3.0,3.0,0.0,0.0,-1.0,1651086322977651.0,0
1287,0.0,-4.0,-1.0,-1.0,1.0,2.0,0.0,0.0,1651086322977651.0,0
1288,3.0,10.0,-1.0,-4.0,-3.0,-3.0,-1.0,0.0,1651086322990762.0,0
1289,-2.0,-7.0,6.0,-2.0,1.0,-1.0,-1.0,-2.0,1651086322990762.0,0
1290,1.0,1.0,-10.0,-5.0,0.0,0.0,0.0,-1.0,1651086322997851.0,0
1291,0.0,2.0,11.0,2.0,-4.0,0.0,-1.0,-2.0,1651086322997851.0,0
1292,-1.0,-5.0,-8.0,4.0,5.0,4.0,0.0,-1.0,1651086323014211.0,0
1293,-2.0,10.0,7.0,0.0,-1.0,-1.0,-1.0,-1.0,1651086323014211.0,0
1294,1.0,4.0,2.0,1.0,9.0,4.0,1.0,1.0,1651086323015063.0,0
1295,2.0,-3.0,-8.0,-7.0,-5.0,-3.0,-2.0,0.0,1651086323015063.0,0
1296,-1.0,4.0,3.0,-4.0,-12.0,-6.0,-3.0,0.0,1651086323036611.0,0
1297,0.0,-10.0,-5.0,4.0,9.0,1.0,0.0,0.0,1651086323036611.0,0
1298,-2.0,0.0,1.0,-6.0,-5.0,-2.0,0.0,-1.0,1651086323037509.0,0
1299,-3.0,-2.0,-13.0,4.0,-5.0,-4.0,-3.0,-1.0,1651086323037509.0,0
1300,-1.0,-2.0,8.0,5.0,4.0,-3.0,0.0,-2.0,1651086323059238.0,0
1301,-1.0,9.0,1.0,5.0,14.0,7.0,2.0,1.0,1651086323059238.0,0
1302,2.0,-19.0,-9.0,-22.0,-21.0,-9.0,-3.0,-1.0,1651086323060271.0,0
1303,-2.0,5.0,3.0,-8.0,-12.0,-4.0,-2.0,-2.0,1651086323060271.0,0
1304,-1.0,1.0,8.0,1.0,5.0,2.0,2.0,0.0,1651086323074347.0,0
1305,1.0,2.0,-8.0,7.0,3.0,3.0,2.0,0.0,1651086323074347.0,0
1306,2.0,2.0,4.0,8.0,4.0,1.0,-1.0,-1.0,1651086323075237.0,0
1307,-3.0,-5.0,-5.0,-13.0,-14.0,-4.0,0.0,-2.0,1651086323075237.0,0
1308,0.0,-23.0,-19.0,-13.0,-2.0,-1.0,-1.0,-1.0,1651086323096420.0,0
1309,-3.0,14.0,13.0,-2.0,-14.0,-8.0,-2.0,-3.0,1651086323096420.0,3
1310,-2.0,0.0,0.0,15.0,-2.0,-2.0,-1.0,1.0,1651086323097273.0,3
1311,-1.0,-5.0,-9.0,-14.0,-5.0,1.0,-1.0,0.0,1651086323097273.0,3
1312,1.0,11.0,19.0,18.0,20.0,11.0,3.0,1.0,1651086323110384.0,3
1313,1.0,-9.0,-11.0,-19.0,-15.0,-7.0,-3.0,-1.0,1651086323110384.0,3
1314,-3.0,-5.0,5.0,-9.0,-8.0,-5.0,-2.0,-2.0,1651086323117374.0,3
1315,0.0,-4.0,6.0,-3.0,-5.0,0.0,1.0,0.0,1651086323117374.0,3
1316,1.0,9.0,0.0,17.0,41.0,17.0,6.0,2.0,1651086323134320.0,3
1317,3.0,-3.0,8.0,24.0,16.0,3.0,-2.0,0.0,1651086323134320.0,3
1318,-3.0,6.0,2.0,-7.0,-3.0,0.0,1.0,-1.0,1651086323135204.0,3
1319,-2.0,-13.0,-26.0,-15.0,-2.0,-4.0,-1.0,-2.0,1651086323135204.0,3
1320,1.0,9.0,4.0,-10.0,-25.0,-8.0,-4.0,-2.0,1651086323156368.0,3
1321,0.0,-6.0,9.0,11.0,11.0,3.0,2.0,2.0,1651086323156368.0,3
1322,0.0,8.0,-9.0,4.0,-15.0,-6.0,-3.0,-2.0,1651086323158246.0,3
1323,-2.0,0.0,7.0,6.0,13.0,3.0,1.0,-2.0,1651086323158246.0,3
1324,-1.0,-7.0,-14.0,-15.0,-18.0,-6.0,0.0,-1.0,1651086323170365.0,3
1325,-1.0,1.0,9.0,5.0,1.0,-4.0,-2.0,-3.0,1651086323170365.0,3
1326,1.0,1.0,11.0,12.0,21.0,11.0,3.0,0.0,1651086323177361.0,3
1327,1.0,2.0,8.0,20.0,15.0,1.0,0.0,1.0,1651086323177361.0,3
1328,1.0,-5.0,-4.0,17.0,27.0,6.0,0.0,1.0,1651086323193211.0,3
1329,-1.0,-2.0,-11.0,-28.0,-29.0,-8.0,-1.0,-2.0,1651086323193211.0,3
1330,0.0,-3.0,5.0,-2.0,-9.0,-6.0,-2.0,0.0,1651086323195243.0,3
1331,1.0,5.0,12.0,16.0,25.0,10.0,2.0,0.0,1651086323195243.0,3
1332,-1.0,0.0,-2.0,7.0,-7.0,-6.0,-2.0,-1.0,1651086323223191.0,3
1333,-1.0,-7.0,-19.0,-32.0,-9.0,-4.0,-3.0,-2.0,1651086323223191.0,3
1334,-1.0,-4.0,6.0,5.0,1.0,4.0,0.0,0.0,1651086323225220.0,3
1335,0.0,7.0,2.0,-2.0,-9.0,-6.0,0.0,-3.0,1651086323225220.0,3
1336,-3.0,-1.0,6.0,4.0,-3.0,-1.0,-1.0,-2.0,1651086323230207.0,3
1337,0.0,-3.0,3.0,11.0,2.0,2.0,2.0,-2.0,1651086323230207.0,3
1338,0.0,-2.0,-12.0,-15.0,-17.0,-6.0,-2.0,0.0,1651086323237286.0,3
1339,1.0,2.0,-1.0,14.0,32.0,15.0,3.0,3.0,1651086323237286.0,3
1340,0.0,-2.0,13.0,-15.0,-30.0,-13.0,-2.0,-2.0,1651086323254936.0,3
1341,-1.0,-6.0,-30.0,-16.0,-11.0,-3.0,0.0,-2.0,1651086323254936.0,3
1342,-1.0,1.0,8.0,8.0,10.0,3.0,0.0,-2.0,1651086323255909.0,3
1343,0.0,2.0,-3.0,8.0,7.0,-2.0,0.0,0.0,1651086323255909.0,3
1344,0.0,-2.0,-2.0,0.0,13.0,8.0,1.0,0.0,1651086323276215.0,3
1345,-2.0,-1.0,9.0,18.0,9.0,1.0,1.0,-1.0,1651086323276215.0,3
1346,-1.0,-3.0,-16.0,-30.0,-21.0,-5.0,-1.0,-1.0,1651086323277248.0,3
1347,-4.0,3.0,8.0,-5.0,-26.0,-11.0,-5.0,-2.0,1651086323277248.0,3
1348,-2.0,-4.0,-1.0,20.0,22.0,4.0,-1.0,-1.0,1651086323290354.0,3
1349,1.0,1.0,-1.0,-11.0,-13.0,-5.0,-1.0,1.0,1651086323290354.0,3
1350,-1.0,0.0,-9.0,-10.0,-18.0,-13.0,-2.0,-2.0,1651086323304357.0,3
1351,0.0,-4.0,-17.0,-16.0,9.0,15.0,4.0,2.0,1651086323304357.0,3
1352,-3.0,1.0,8.0,-7.0,-20.0,-9.0,-2.0,-5.0,1651086323313209.0,3
1353,1.0,-3.0,-20.0,-6.0,12.0,6.0,1.0,1.0,1651086323313209.0,3
1354,-1.0,-1.0,-2.0,4.0,0.0,-1.0,-2.0,-1.0,1651086323315208.0,3
1355,-2.0,-2.0,23.0,29.0,0.0,-8.0,-3.0,-2.0,1651086323315208.0,3
1356,0.0,-2.0,5.0,-7.0,-9.0,-5.0,-3.0,-1.0,1651086323336341.0,3
1357,1.0,-1.0,-8.0,-15.0,-15.0,-2.0,-2.0,-1.0,1651086323336341.0,3
1358,0.0,-2.0,14.0,31.0,40.0,12.0,3.0,2.0,1651086323338192.0,3
1359,2.0,3.0,-13.0,1.0,6.0,2.0,2.0,0.0,1651086323338192.0,3
1360,0.0,2.0,26.0,6.0,13.0,4.0,0.0,1.0,1651086323349161.0,3
1361,-1.0,-5.0,-23.0,-12.0,-7.0,-3.0,-2.0,-3.0,1651086323349161.0,3
1362,1.0,2.0,8.0,1.0,-4.0,0.0,-1.0,1.0,1651086323358150.0,3
1363,-2.0,-5.0,-13.0,-21.0,-14.0,-6.0,-2.0,-2.0,1651086323358150.0,3
1364,-1.0,3.0,6.0,-7.0,-10.0,-2.0,-1.0,-1.0,1651086323373204.0,3
1365,-2.0,1.0,29.0,27.0,5.0,1.0,1.0,1.0,1651086323373204.0,3
1366,1.0,-2.0,-13.0,-16.0,6.0,3.0,-1.0,0.0,1651086323375233.0,3
1367,2.0,-1.0,11.0,26.0,10.0,4.0,3.0,0.0,1651086323375233.0,3
1368,-1.0,-3.0,-22.0,-29.0,-26.0,-9.0,-5.0,-2.0,1651086323396001.0,3
1369,-1.0,1.0,10.0,2.0,0.0,0.0,-2.0,-1.0,1651086323396001.0,3
1370,-3.0,1.0,1.0,2.0,-1.0,-1.0,1.0,-2.0,1651086323396863.0,3
1371,-1.0,-2.0,-26.0,-15.0,-10.0,-7.0,-2.0,-1.0,1651086323396863.0,3
1372,1.0,-1.0,-13.0,-14.0,-11.0,-4.0,-1.0,0.0,1651086323409954.0,3
1373,-2.0,-2.0,-5.0,16.0,18.0,7.0,3.0,2.0,1651086323409954.0,3
1374,0.0,1.0,8.0,16.0,13.0,4.0,0.0,0.0,1651086323418748.0,3
1375,0.0,-1.0,-19.0,-35.0,-23.0,-10.0,-5.0,-2.0,1651086323418748.0,3
1376,-1.0,-1.0,7.0,20.0,4.0,2.0,4.0,1.0,1651086323434322.0,3
1377,-2.0,-1.0,14.0,3.0,3.0,-3.0,-2.0,-2.0,1651086323434322.0,3
1378,-1.0,3.0,11.0,13.0,9.0,5.0,2.0,1.0,1651086323435200.0,3
1379,0.0,-1.0,-17.0,-14.0,-2.0,2.0,0.0,0.0,1651086323435200.0,3
1380,-2.0,-3.0,-20.0,-6.0,-7.0,-4.0,-3.0,-3.0,1651086323456252.0,3
1381,1.0,1.0,18.0,-4.0,7.0,1.0,0.0,1.0,1651086323456252.0,3
1382,-3.0,-2.0,-9.0,10.0,0.0,-3.0,-2.0,-2.0,1651086323457217.0,3
1383,2.0,7.0,39.0,15.0,-5.0,-1.0,4.0,1.0,1651086323457217.0,3
1384,-1.0,-1.0,-2.0,9.0,9.0,1.0,-1.0,-2.0,1651086323470334.0,3
1385,-1.0,-3.0,-17.0,-16.0,-8.0,-2.0,-3.0,1.0,1651086323470334.0,3
1386,-1.0,-2.0,5.0,-13.0,-12.0,-4.0,-2.0,-1.0,1651086323478472.0,3
1387,0.0,0.0,-6.0,21.0,26.0,9.0,3.0,0.0,1651086323478472.0,3
1388,-2.0,0.0,10.0,1.0,-11.0,-5.0,-4.0,0.0,1651086323494317.0,3
1389,-1.0,-2.0,-9.0,-2.0,9.0,3.0,3.0,0.0,1651086323494317.0,3
1390,1.0,-3.0,1.0,-4.0,1.0,1.0,1.0,0.0,1651086323495242.0,3
1391,-1.0,1.0,8.0,-2.0,-3.0,-2.0,-2.0,-1.0,1651086323495242.0,3
1392,1.0,0.0,-15.0,0.0,1.0,0.0,4.0,2.0,1651086323523206.0,3
1393,-1.0,0.0,-7.0,-15.0,-13.0,-6.0,-6.0,-2.0,1651086323523206.0,3
1394,2.0,1.0,29.0,17.0,6.0,3.0,2.0,2.0,1651086323525235.0,3
1395,-2.0,-5.0,-20.0,-7.0,-2.0,1.0,-2.0,-2.0,1651086323525235.0,3
1396,-2.0,4.0,13.0,6.0,4.0,4.0,0.0,0.0,1651086323529228.0,3
1397,0.0,4.0,15.0,11.0,-13.0,-6.0,-2.0,-1.0,1651086323529228.0,3
1398,0.0,-3.0,-36.0,-16.0,19.0,4.0,1.0,1.0,1651086323538168.0,3
1399,0.0,-1.0,36.0,21.0,-5.0,-5.0,-5.0,-1.0,1651086323538168.0,3
1400,-1.0,-2.0,-5.0,-20.0,-3.0,0.0,-2.0,-1.0,1651086323553200.0,3
1401,-1.0,-3.0,10.0,10.0,7.0,2.0,1.0,-1.0,1651086323553200.0,3
1402,-2.0,-2.0,-30.0,-18.0,-11.0,-3.0,-1.0,-3.0,1651086323560399.0,3
1403,0.0,2.0,34.0,24.0,8.0,-1.0,-1.0,0.0,1651086323560399.0,3
1404,-1.0,-2.0,-26.0,-16.0,8.0,3.0,3.0,0.0,1651086323574366.0,3
1405,-2.0,0.0,11.0,8.0,-1.0,-2.0,-4.0,-4.0,1651086323574366.0,3
1406,1.0,-1.0,5.0,-8.0,-10.0,-1.0,1.0,0.0,1651086323583341.0,3
1407,-1.0,-6.0,-28.0,-15.0,-7.0,-3.0,0.0,-1.0,1651086323583341.0,3
1408,-1.0,1.0,19.0,9.0,-2.0,-1.0,-3.0,-2.0,1651086323590389.0,3
1409,-3.0,-3.0,-2.0,5.0,2.0,4.0,3.0,-1.0,1651086323590389.0,3
1410,2.0,-1.0,-8.0,-2.0,4.0,0.0,-2.0,-2.0,1651086323598446.0,3
1411,-6.0,-2.0,-2.0,0.0,-8.0,-4.0,0.0,-1.0,1651086323598446.0,3
1412,0.0,1.0,-4.0,-1.0,2.0,-2.0,0.0,0.0,1651086323613226.0,3
1413,-2.0,1.0,7.0,-9.0,-5.0,-1.0,0.0,-1.0,1651086323613226.0,3
1414,1.0,-3.0,-23.0,-3.0,-4.0,-2.0,-2.0,0.0,1651086323620235.0,3
1415,2.0,2.0,7.0,7.0,2.0,1.0,0.0,0.0,1651086323620235.0,3
1416,-1.0,-1.0,13.0,3.0,-1.0,-3.0,0.0,-1.0,1651086323636525.0,3
1417,0.0,-1.0,-9.0,3.0,4.0,1.0,1.0,1.0,1651086323636525.0,3
1418,-1.0,2.0,29.0,17.0,-4.0,-3.0,-2.0,0.0,1651086323641515.0,3
1419,-1.0,-3.0,-24.0,-13.0,-4.0,-2.0,-4.0,-4.0,1651086323641515.0,3
1420,0.0,0.0,-4.0,13.0,8.0,4.0,4.0,3.0,1651086323649372.0,3
1421,2.0,2.0,-8.0,-9.0,-3.0,1.0,3.0,0.0,1651086323649372.0,3
1422,1.0,1.0,0.0,-15.0,-8.0,-2.0,-1.0,1.0,1651086323658347.0,3
1423,0.0,-1.0,3.0,5.0,0.0,0.0,-3.0,0.0,1651086323658347.0,3
1424,-3.0,-6.0,-15.0,-7.0,-10.0,-7.0,-3.0,-4.0,1651086323672568.0,3
1425,3.0,0.0,-13.0,-14.0,12.0,6.0,-1.0,3.0,1651086323672568.0,3
1426,-2.0,0.0,17.0,18.0,-3.0,-2.0,1.0,-2.0,1651086323679236.0,3
1427,2.0,1.0,1.0,-6.0,1.0,-2.0,2.0,1.0,1651086323679236.0,3
1428,0.0,2.0,-12.0,-9.0,-5.0,-2.0,-3.0,-3.0,1651086323696371.0,3
1429,1.0,-2.0,17.0,8.0,-1.0,-2.0,-1.0,-1.0,1651086323696371.0,3
1430,-1.0,0.0,-21.0,-11.0,-2.0,0.0,1.0,0.0,1651086323697211.0,3
1431,-1.0,0.0,7.0,-5.0,-4.0,-3.0,-1.0,-1.0,1651086323697211.0,3
1432,2.0,-1.0,-2.0,8.0,4.0,2.0,1.0,0.0,1651086323718711.0,3
1433,-1.0,0.0,5.0,-1.0,-8.0,-7.0,-4.0,-1.0,1651086323718711.0,3
1434,-2.0,-2.0,-23.0,-3.0,2.0,1.0,-1.0,-1.0,1651086323719711.0,3
1435,3.0,-1.0,6.0,-12.0,3.0,3.0,-1.0,1.0,1651086323719711.0,3
1436,-3.0,-2.0,-15.0,-5.0,-1.0,0.0,-2.0,-1.0,1651086323733013.0,3
1437,1.0,2.0,15.0,14.0,1.0,-1.0,0.0,-3.0,1651086323733013.0,3
1438,-2.0,-1.0,9.0,-3.0,-2.0,-1.0,1.0,-2.0,1651086323740174.0,3
1439,1.0,1.0,-9.0,-11.0,-7.0,0.0,0.0,1.0,1651086323740174.0,3
1440,2.0,-4.0,-10.0,-15.0,-4.0,-1.0,0.0,2.0,1651086323756256.0,3
1441,-2.0,-4.0,16.0,8.0,-4.0,-3.0,-1.0,0.0,1651086323756256.0,3
1442,-1.0,0.0,-13.0,5.0,3.0,0.0,-2.0,-1.0,1651086323757218.0,3
1443,-1.0,-1.0,0.0,-3.0,-4.0,0.0,1.0,0.0,1651086323757218.0,3
1444,1.0,2.0,9.0,4.0,4.0,0.0,1.0,2.0,1651086323779060.0,3
1445,-2.0,-1.0,-14.0,-19.0,-9.0,0.0,0.0,0.0,1651086323779060.0,3
1446,0.0,-1.0,17.0,16.0,2.0,3.0,1.0,1.0,1651086323780152.0,3
1447,2.0,-1.0,-14.0,-12.0,-1.0,-1.0,-1.0,0.0,1651086323780152.0,3
1448,0.0,-1.0,18.0,16.0,-7.0,-5.0,-3.0,-2.0,1651086323793235.0,3
1449,-3.0,-2.0,-17.0,-6.0,5.0,1.0,-2.0,-3.0,1651086323793235.0,3
1450,0.0,-2.0,-6.0,-8.0,4.0,1.0,-1.0,-2.0,1651086323799221.0,3
1451,-2.0,3.0,21.0,12.0,-3.0,-1.0,3.0,0.0,1651086323799221.0,3
1452,1.0,1.0,-19.0,-13.0,7.0,2.0,-1.0,1.0,1651086323815281.0,3
1453,-4.0,-1.0,16.0,3.0,-7.0,-6.0,-4.0,-2.0,1651086323815281.0,3
1454,2.0,-2.0,-5.0,-2.0,-1.0,1.0,-1.0,1.0,1651086323817275.0,3
1455,0.0,-1.0,-12.0,-5.0,1.0,2.0,0.0,-2.0,1651086323817275.0,3
1456,-2.0,-2.0,8.0,1.0,1.0,-1.0,-2.0,-3.0,1651086323838576.0,3
1457,-2.0,0.0,1.0,-2.0,-2.0,2.0,3.0,3.0,1651086323838576.0,3
1458,-2.0,-3.0,4.0,-8.0,-9.0,-8.0,-7.0,-2.0,1651086323839483.0,3
1459,2.0,-2.0,11.0,9.0,9.0,-1.0,-1.0,1.0,1651086323839483.0,3
1460,0.0,-2.0,-20.0,-10.0,1.0,2.0,-1.0,-1.0,1651086323853106.0,3
1461,3.0,5.0,9.0,16.0,8.0,3.0,2.0,2.0,1651086323853106.0,3
1462,-3.0,-1.0,9.0,11.0,0.0,0.0,0.0,0.0,1651086323861220.0,3
1463,-1.0,-3.0,-6.0,-4.0,-1.0,2.0,1.0,0.0,1651086323861220.0,3
1464,-1.0,-1.0,1.0,-5.0,-4.0,-2.0,1.0,-1.0,1651086323876174.0,3
1465,-3.0,-3.0,-24.0,-19.0,-4.0,-3.0,0.0,-2.0,1651086323876174.0,3
1466,0.0,3.0,16.0,17.0,2.0,1.0,2.0,-1.0,1651086323877028.0,3
1467,-3.0,-2.0,-6.0,-10.0,-5.0,-6.0,-5.0,-3.0,1651086323877028.0,3
1468,1.0,0.0,0.0,6.0,1.0,1.0,-1.0,2.0,1651086323898201.0,3
1469,-1.0,-1.0,0.0,-5.0,-6.0,-1.0,-2.0,-2.0,1651086323898201.0,3
1470,0.0,0.0,9.0,-2.0,10.0,4.0,3.0,0.0,1651086323900200.0,3
1471,-3.0,-3.0,-18.0,9.0,4.0,2.0,0.0,-1.0,1651086323900200.0,3
1472,1.0,4.0,11.0,-12.0,-2.0,-1.0,2.0,2.0,1651086323913148.0,3
1473,-1.0,-3.0,14.0,32.0,4.0,-1.0,-3.0,0.0,1651086323913148.0,3
1474,-1.0,-4.0,-16.0,-27.0,-8.0,-5.0,-4.0,-2.0,1651086323921216.0,3
1475,-4.0,-1.0,-10.0,-3.0,-1.0,2.0,4.0,1.0,1651086323921216.0,3
1476,-1.0,0.0,12.0,2.0,-6.0,-3.0,-4.0,-2.0,1651086323936321.0,3
1477,3.0,1.0,-10.0,-9.0,4.0,2.0,2.0,1.0,1651086323936321.0,3
1478,-1.0,2.0,9.0,22.0,5.0,1.0,0.0,0.0,1651086323937188.0,3
1479,1.0,2.0,17.0,4.0,1.0,1.0,1.0,1.0,1651086323937188.0,3
1480,-1.0,-3.0,-20.0,-5.0,-1.0,-2.0,0.0,-1.0,1651086323959195.0,3
1481,0.0,1.0,1.0,4.0,1.0,0.0,2.0,2.0,1651086323959195.0,3
1482,-1.0,-4.0,-18.0,-22.0,-8.0,-3.0,0.0,-3.0,1651086323964328.0,3
1483,0.0,-2.0,-4.0,-8.0,-7.0,-6.0,-10.0,-3.0,1651086323964328.0,3
1484,-3.0,0.0,1.0,0.0,-1.0,-1.0,-2.0,-2.0,1651086323973294.0,3
1485,3.0,-1.0,2.0,5.0,0.0,1.0,2.0,2.0,1651086323973294.0,3
1486,0.0,2.0,11.0,9.0,4.0,1.0,4.0,0.0,1651086323987290.0,3
1487,-4.0,-2.0,-7.0,10.0,9.0,2.0,1.0,-3.0,1651086323987290.0,3
1488,0.0,-2.0,5.0,-10.0,-4.0,1.0,2.0,-1.0,1651086323996332.0,3
1489,1.0,1.0,-19.0,-9.0,-1.0,-4.0,-2.0,0.0,1651086323996332.0,3
1490,1.0,1.0,15.0,-3.0,-5.0,-2.0,-1.0,0.0,1651086323997198.0,3
1491,2.0,-1.0,-5.0,-1.0,-4.0,-1.0,-2.0,-2.0,1651086323997198.0,3
1492,-6.0,0.0,20.0,15.0,3.0,2.0,1.0,0.0,1651086324019040.0,3
1493,3.0,-2.0,-23.0,-16.0,-1.0,-2.0,-1.0,-1.0,1651086324019040.0,3
1494,-3.0,0.0,4.0,7.0,2.0,0.0,-3.0,-1.0,1651086324020140.0,3
1495,0.0,0.0,-7.0,-11.0,0.0,-3.0,-2.0,1.0,1651086324020140.0,3
1496,0.0,0.0,29.0,23.0,4.0,1.0,3.0,2.0,1651086324032235.0,3
1497,-2.0,-1.0,2.0,2.0,-1.0,0.0,-6.0,-4.0,1651086324032235.0,3
1498,1.0,0.0,-12.0,10.0,0.0,1.0,-2.0,1.0,1651086324047387.0,3
1499,-2.0,-2.0,17.0,-16.0,-6.0,-1.0,1.0,-1.0,1651086324047387.0,3
1500,-1.0,-3.0,-45.0,-1.0,0.0,0.0,1.0,0.0,1651086324055385.0,3
1501,3.0,2.0,-8.0,-2.0,-8.0,-3.0,-2.0,1.0,1651086324055385.0,3
1502,1.0,0.0,8.0,9.0,11.0,2.0,-1.0,-1.0,1651086324057219.0,3
1503,0.0,3.0,13.0,12.0,4.0,1.0,0.0,-1.0,1651086324057219.0,3
1504,0.0,2.0,13.0,3.0,5.0,3.0,3.0,-1.0,1651086324078853.0,3
1505,-5.0,-5.0,0.0,-6.0,-6.0,-2.0,1.0,-3.0,1651086324078853.0,3
1506,-3.0,-2.0,-10.0,-14.0,-8.0,-6.0,-7.0,-2.0,1651086324080136.0,3
1507,0.0,1.0,10.0,5.0,-3.0,-1.0,2.0,0.0,1651086324080136.0,3
1508,1.0,-1.0,-25.0,-11.0,-1.0,-1.0,-2.0,-2.0,1651086324093453.0,3
1509,-5.0,-2.0,7.0,3.0,0.0,-1.0,0.0,1.0,1651086324093453.0,3
1510,-1.0,-2.0,-13.0,-10.0,-7.0,0.0,1.0,-2.0,1651086324107545.0,3
1511,-2.0,-2.0,-13.0,-13.0,0.0,3.0,0.0,-1.0,1651086324107545.0,3
1512,2.0,0.0,6.0,14.0,2.0,-1.0,-2.0,0.0,1651086324116249.0,3
1513,0.0,-2.0,4.0,-11.0,0.0,0.0,1.0,1.0,1651086324116249.0,3
1514,-1.0,-2.0,-11.0,3.0,-1.0,1.0,1.0,0.0,1651086324117213.0,3
1515,1.0,0.0,16.0,12.0,-3.0,-1.0,-2.0,-2.0,1651086324117213.0,3
1516,1.0,-1.0,-13.0,-16.0,-4.0,1.0,0.0,0.0,1651086324138648.0,3
1517,-1.0,-2.0,-9.0,-5.0,0.0,-2.0,-1.0,-1.0,1651086324138648.0,3
1518,-3.0,-3.0,8.0,-6.0,-4.0,-1.0,0.0,1.0,1651086324140138.0,3
1519,2.0,0.0,5.0,5.0,0.0,-1.0,-1.0,0.0,1651086324140138.0,3
1520,0.0,0.0,11.0,3.0,1.0,-1.0,0.0,1.0,1651086324153210.0,3
1521,-1.0,0.0,-5.0,3.0,5.0,2.0,-2.0,-2.0,1651086324153210.0,3
1522,1.0,3.0,24.0,-1.0,1.0,-1.0,1.0,-1.0,1651086324160360.0,3
1523,-1.0,-5.0,-32.0,3.0,-1.0,-2.0,-3.0,-2.0,1651086324160360.0,3
1524,0.0,-3.0,6.0,1.0,-7.0,0.0,-1.0,0.0,1651086324176604.0,3
1525,-3.0,1.0,-6.0,3.0,7.0,2.0,0.0,-2.0,1651086324176604.0,3
1526,1.0,-3.0,-30.0,-17.0,-4.0,-1.0,0.0,1.0,1651086324177482.0,3
1527,-1.0,2.0,32.0,20.0,3.0,0.0,1.0,0.0,1651086324177482.0,3
1528,0.0,-1.0,0.0,-9.0,0.0,-2.0,-2.0,-1.0,1651086324198475.0,3
1529,-1.0,-4.0,-10.0,-1.0,-3.0,0.0,-1.0,1.0,1651086324198475.0,3
1530,0.0,3.0,13.0,-1.0,0.0,2.0,1.0,-2.0,1651086324199511.0,3
1531,-1.0,0.0,-18.0,-5.0,-5.0,-3.0,-5.0,-1.0,1651086324199511.0,3
1532,-1.0,-9.0,-11.0,-13.0,-7.0,-2.0,-1.0,-3.0,1651086324212831.0,3
1533,0.0,3.0,16.0,7.0,1.0,0.0,0.0,0.0,1651086324212831.0,3
1534,2.0,-1.0,-4.0,-8.0,-5.0,-1.0,-1.0,3.0,1651086324227376.0,3
1535,1.0,-1.0,-14.0,-12.0,1.0,3.0,3.0,0.0,1651086324227376.0,3
1536,-2.0,4.0,16.0,22.0,9.0,4.0,2.0,0.0,1651086324236504.0,3
1537,-2.0,-3.0,0.0,12.0,-2.0,-1.0,-1.0,-2.0,1651086324236504.0,3
1538,-2.0,-4.0,3.0,-4.0,-4.0,-4.0,-2.0,1.0,1651086324237352.0,3
1539,-1.0,-1.0,6.0,-12.0,-7.0,-2.0,-2.0,-2.0,1651086324237352.0,3
1540,2.0,-1.0,-23.0,5.0,0.0,-2.0,0.0,1.0,1651086324259143.0,3
1541,1.0,1.0,9.0,-6.0,1.0,0.0,1.0,1.0,1651086324259143.0,3
1542,-4.0,0.0,0.0,6.0,0.0,-4.0,-3.0,-1.0,1651086324260145.0,3
1543,-3.0,0.0,9.0,4.0,3.0,2.0,3.0,1.0,1651086324260145.0,3
1544,2.0,3.0,1.0,-12.0,1.0,0.0,-2.0,0.0,1651086324272408.0,3
1545,0.0,1.0,6.0,13.0,1.0,1.0,-1.0,0.0,1651086324272408.0,3
1546,-1.0,-2.0,-20.0,-19.0,-3.0,-2.0,-1.0,-2.0,1651086324281210.0,3
1547,0.0,3.0,17.0,18.0,3.0,2.0,1.0,1.0,1651086324281210.0,3
1548,-3.0,-4.0,-18.0,-17.0,-9.0,-3.0,-3.0,-2.0,1651086324296330.0,3
1549,0.0,1.0,9.0,2.0,2.0,-1.0,-1.0,-1.0,1651086324296330.0,3
1550,-2.0,1.0,-4.0,8.0,0.0,0.0,-3.0,-2.0,1651086324297204.0,3
1551,-1.0,-3.0,-9.0,-8.0,-1.0,0.0,-1.0,1.0,1651086324297204.0,3
1552,0.0,1.0,16.0,5.0,0.0,-3.0,-4.0,-1.0,1651086324318988.0,3
1553,0.0,-1.0,3.0,-2.0,-2.0,2.0,2.0,3.0,1651086324318988.0,3
1554,1.0,-1.0,14.0,9.0,0.0,0.0,1.0,-1.0,1651086324320096.0,3
1555,1.0,0.0,-8.0,-13.0,-6.0,-5.0,-3.0,0.0,1651086324320096.0,3
1556,-4.0,-2.0,-8.0,1.0,-1.0,-2.0,-1.0,-1.0,1651086324333231.0,3
1557,1.0,2.0,3.0,-6.0,0.0,0.0,0.0,-1.0,1651086324333231.0,3
1558,2.0,-2.0,-25.0,-3.0,3.0,-2.0,-1.0,0.0,1651086324341204.0,3
1559,1.0,1.0,5.0,8.0,-1.0,-1.0,-2.0,0.0,1651086324341204.0,3
1560,-3.0,0.0,11.0,-4.0,3.0,2.0,0.0,0.0,1651086324355202.0,3
1561,-4.0,-3.0,-6.0,-4.0,-2.0,0.0,2.0,1.0,1651086324355202.0,3
1562,5.0,1.0,1.0,2.0,-1.0,0.0,-3.0,0.0,1651086324362460.0,3
1563,0.0,0.0,4.0,4.0,3.0,0.0,1.0,0.0,1651086324362460.0,3
1564,-3.0,-2.0,4.0,1.0,1.0,-3.0,-1.0,-1.0,1651086324379123.0,3
1565,-2.0,1.0,-2.0,5.0,-5.0,-2.0,-1.0,-1.0,1651086324379123.0,3
1566,-2.0,-2.0,-4.0,-17.0,-4.0,-3.0,-1.0,0.0,1651086324380125.0,3
1567,1.0,-3.0,6.0,21.0,1.0,-1.0,0.0,-2.0,1651086324380125.0,3
1568,1.0,1.0,2.0,-12.0,-2.0,2.0,0.0,0.0,1651086324392231.0,3
1569,-1.0,-4.0,-7.0,2.0,0.0,-2.0,-2.0,-3.0,1651086324392231.0,3
1570,0.0,-2.0,-7.0,2.0,3.0,5.0,3.0,1.0,1651086324401372.0,3
1571,3.0,1.0,12.0,1.0,0.0,1.0,3.0,1.0,1651086324401372.0,3
1572,-3.0,-2.0,0.0,-3.0,-2.0,-3.0,-4.0,-1.0,1651086324416284.0,3
1573,0.0,2.0,3.0,-1.0,-3.0,0.0,-2.0,-2.0,1651086324416284.0,3
1574,-3.0,-4.0,-7.0,-5.0,-5.0,-4.0,-5.0,-4.0,1651086324417187.0,3
1575,-1.0,-1.0,-3.0,-3.0,7.0,-1.0,-2.0,-1.0,1651086324417187.0,3
1576,-1.0,1.0,13.0,10.0,0.0,3.0,3.0,1.0,1651086324439004.0,3
1577,0.0,-1.0,5.0,-22.0,-4.0,-1.0,-1.0,-1.0,1651086324439004.0,3
1578,1.0,-1.0,1.0,18.0,-1.0,-2.0,-2.0,-1.0,1651086324440146.0,3
1579,-2.0,-1.0,8.0,5.0,-1.0,-2.0,0.0,-1.0,1651086324440146.0,3
1580,0.0,-3.0,-6.0,-6.0,-2.0,0.0,2.0,-1.0,1651086324452612.0,3
1581,-1.0,-1.0,-7.0,-2.0,4.0,0.0,-2.0,-2.0,1651086324452612.0,3
1582,-3.0,2.0,19.0,5.0,5.0,4.0,4.0,0.0,1651086324461298.0,3
1583,-2.0,-1.0,-20.0,-8.0,-5.0,-4.0,-3.0,-1.0,1651086324461298.0,3
1584,3.0,1.0,3.0,9.0,0.0,1.0,0.0,-1.0,1651086324476326.0,3
1585,-2.0,-3.0,11.0,1.0,2.0,-3.0,-2.0,-3.0,1651086324476326.0,3
1586,-2.0,0.0,-6.0,-12.0,-2.0,-1.0,1.0,-1.0,1651086324477198.0,3
1587,-1.0,-2.0,-9.0,-3.0,-2.0,1.0,-3.0,0.0,1651086324477198.0,3
1588,-1.0,1.0,0.0,1.0,1.0,-2.0,0.0,1.0,1651086324498280.0,3
1589,1.0,1.0,-11.0,5.0,0.0,-1.0,1.0,0.0,1651086324498280.0,3
1590,-1.0,-1.0,-3.0,-9.0,1.0,0.0,-1.0,-3.0,1651086324500174.0,3
1591,-1.0,-4.0,6.0,6.0,-4.0,1.0,0.0,-1.0,1651086324500174.0,3
1592,-1.0,2.0,0.0,-11.0,-2.0,-1.0,-2.0,-1.0,1651086324512469.0,3
1593,1.0,2.0,20.0,30.0,2.0,-3.0,-1.0,1.0,1651086324512469.0,3
1594,-1.0,-7.0,-24.0,-11.0,-3.0,-1.0,0.0,-1.0,1651086324521226.0,3
1595,-1.0,1.0,-10.0,-14.0,-3.0,2.0,1.0,-1.0,1651086324521226.0,3
1596,-1.0,-4.0,-6.0,-4.0,0.0,4.0,0.0,0.0,1651086324536259.0,3
1597,0.0,5.0,17.0,6.0,-2.0,-1.0,-1.0,0.0,1651086324536259.0,3
1598,2.0,2.0,27.0,25.0,2.0,-2.0,-2.0,0.0,1651086324537183.0,3
1599,-2.0,-6.0,-25.0,-19.0,-8.0,-4.0,0.0,-1.0,1651086324537183.0,3
1600,1.0,-1.0,-3.0,-4.0,-1.0,-3.0,-1.0,-2.0,1651086324558513.0,3
1601,-1.0,-3.0,-19.0,-10.0,-5.0,-2.0,-3.0,0.0,1651086324558513.0,3
1602,-1.0,1.0,15.0,20.0,6.0,0.0,1.0,-1.0,1651086324559513.0,3
1603,-1.0,0.0,-17.0,-9.0,-2.0,-3.0,-3.0,-1.0,1651086324559513.0,3
1604,1.0,-3.0,6.0,4.0,0.0,-1.0,-1.0,-1.0,1651086324572370.0,3
1605,1.0,-3.0,-17.0,-11.0,6.0,2.0,1.0,2.0,1651086324572370.0,3
1606,-1.0,-1.0,-5.0,-5.0,-4.0,0.0,-1.0,0.0,1651086324581215.0,3
1607,0.0,-1.0,10.0,2.0,-2.0,-3.0,-1.0,-2.0,1651086324581215.0,3
1608,-1.0,-2.0,-9.0,0.0,0.0,-2.0,-2.0,-2.0,1651086324596259.0,3
1609,-1.0,-2.0,0.0,0.0,0.0,3.0,1.0,0.0,1651086324596259.0,3
1610,0.0,0.0,9.0,1.0,2.0,3.0,2.0,1.0,1651086324597206.0,3
1611,-3.0,-17.0,-7.0,-5.0,1.0,1.0,0.0,-1.0,1651086324597206.0,3
1612,0.0,-2.0,-1.0,5.0,-5.0,-3.0,-2.0,-2.0,1651086324618769.0,3
1613,0.0,5.0,-3.0,-2.0,2.0,1.0,-1.0,-1.0,1651086324618769.0,3
1614,0.0,20.0,1.0,-2.0,3.0,3.0,0.0,1.0,1651086324620102.0,3
1615,1.0,-7.0,-6.0,-3.0,-2.0,-1.0,0.0,-2.0,1651086324620102.0,3
1616,-2.0,-11.0,-6.0,3.0,-2.0,-2.0,-1.0,-1.0,1651086324632280.0,3
1617,1.0,-6.0,4.0,-1.0,-2.0,-1.0,-1.0,0.0,1651086324632280.0,3
1618,-3.0,-12.0,-10.0,-7.0,-3.0,-2.0,0.0,-2.0,1651086324641434.0,3
1619,0.0,17.0,9.0,1.0,0.0,-1.0,0.0,2.0,1651086324641434.0,3
1620,-1.0,-4.0,9.0,3.0,3.0,1.0,2.0,-1.0,1651086324655482.0,3
1621,-2.0,-17.0,-30.0,-11.0,-7.0,-5.0,-3.0,-3.0,1651086324655482.0,3
1622,-1.0,7.0,5.0,0.0,-2.0,-1.0,0.0,-1.0,1651086324662410.0,3
1623,1.0,6.0,4.0,3.0,4.0,4.0,1.0,0.0,1651086324662410.0,3
1624,-1.0,-2.0,4.0,-3.0,0.0,0.0,0.0,0.0,1651086324678417.0,3
1625,1.0,-2.0,-1.0,3.0,-1.0,0.0,0.0,0.0,1651086324678417.0,3
1626,5.0,-1.0,-3.0,-1.0,-1.0,-1.0,-1.0,1.0,1651086324680073.0,3
1627,-3.0,-19.0,7.0,3.0,0.0,1.0,0.0,-3.0,1651086324680073.0,3
1628,-2.0,21.0,3.0,0.0,0.0,1.0,0.0,-1.0,1651086324701114.0,3
1629,-2.0,-6.0,-3.0,2.0,5.0,0.0,0.0,0.0,1651086324701114.0,3
1630,-1.0,-13.0,-4.0,-9.0,-5.0,-2.0,-3.0,-1.0,1651086324702070.0,3
1631,2.0,25.0,12.0,1.0,4.0,2.0,1.0,1.0,1651086324702070.0,3
1632,-2.0,-16.0,-1.0,0.0,-3.0,-3.0,-3.0,0.0,1651086324723365.0,3
1633,-1.0,2.0,-10.0,-4.0,-4.0,0.0,1.0,0.0,1651086324723365.0,3
1634,-2.0,1.0,3.0,3.0,0.0,-2.0,-1.0,-1.0,1651086324725215.0,3
1635,0.0,-4.0,3.0,-4.0,0.0,-2.0,-1.0,-2.0,1651086324725215.0,3
1636,-3.0,-3.0,-11.0,-1.0,2.0,1.0,0.0,0.0,1651086324738638.0,3
1637,1.0,7.0,13.0,-2.0,-3.0,-2.0,0.0,-2.0,1651086324738638.0,3
1638,0.0,-11.0,4.0,-1.0,-2.0,-2.0,-3.0,1.0,1651086324740135.0,3
1639,-1.0,8.0,-7.0,-3.0,-3.0,0.0,-1.0,0.0,1651086324740135.0,3
1640,1.0,5.0,0.0,0.0,1.0,0.0,0.0,-1.0,1651086324761406.0,3
1641,0.0,-10.0,-1.0,1.0,0.0,0.0,0.0,-1.0,1651086324761406.0,3
1642,-2.0,18.0,1.0,0.0,0.0,1.0,0.0,0.0,1651086324762248.0,3
1643,-4.0,-11.0,1.0,-1.0,-2.0,-3.0,-2.0,-2.0,1651086324762248.0,3
1644,1.0,1.0,-5.0,-2.0,-1.0,-1.0,-1.0,0.0,1651086324783232.0,3
1645,-2.0,3.0,1.0,-3.0,-3.0,-1.0,-1.0,0.0,1651086324783232.0,3
1646,-2.0,2.0,0.0,-1.0,0.0,0.0,0.0,-1.0,1651086324785215.0,3
1647,0.0,-17.0,-9.0,3.0,2.0,0.0,1.0,0.0,1651086324785215.0,3
1648,1.0,7.0,-1.0,-1.0,-2.0,-2.0,-1.0,0.0,1651086324798299.0,3
1649,-1.0,12.0,7.0,-1.0,-3.0,0.0,0.0,-2.0,1651086324798299.0,3
1650,0.0,1.0,5.0,-2.0,0.0,0.0,1.0,0.0,1651086324799301.0,3
1651,0.0,0.0,-7.0,0.0,3.0,-2.0,0.0,0.0,1651086324799301.0,3
1652,0.0,-10.0,-5.0,0.0,0.0,-1.0,-1.0,1.0,1651086324821406.0,3
1653,2.0,0.0,-1.0,0.0,1.0,2.0,-1.0,1.0,1651086324821406.0,3
1654,-1.0,0.0,-4.0,-1.0,-2.0,-3.0,-1.0,1.0,1651086324822242.0,3
1655,2.0,4.0,4.0,-1.0,-2.0,-1.0,-1.0,-1.0,1651086324822242.0,3
1656,-1.0,-3.0,2.0,2.0,1.0,2.0,0.0,-2.0,1651086324834384.0,3
1657,1.0,2.0,-1.0,-2.0,0.0,-2.0,0.0,0.0,1651086324834384.0,3
1658,-1.0,-15.0,-4.0,0.0,1.0,0.0,2.0,1.0,1651086324843233.0,3
1659,-2.0,-1.0,-7.0,-1.0,-1.0,3.0,-1.0,-2.0,1651086324843233.0,3
1660,3.0,11.0,3.0,-1.0,-3.0,-4.0,0.0,-2.0,1651086324859232.0,3
1661,0.0,-4.0,0.0,-1.0,-2.0,1.0,0.0,3.0,1651086324859232.0,3
1662,2.0,-5.0,-13.0,-3.0,2.0,1.0,0.0,0.0,1651086324860274.0,3
1663,0.0,4.0,-1.0,1.0,2.0,-1.0,1.0,1.0,1651086324860274.0,3
1664,2.0,-4.0,2.0,-2.0,-2.0,-2.0,-1.0,0.0,1651086324888710.0,3
1665,-5.0,-12.0,-3.0,-1.0,2.0,2.0,-2.0,-2.0,1651086324888710.0,3
1666,-1.0,-1.0,1.0,4.0,-2.0,-2.0,-2.0,-1.0,1651086324889712.0,3
1667,0.0,4.0,3.0,-3.0,-2.0,0.0,-2.0,0.0,1651086324889712.0,3
1668,-1.0,-6.0,-7.0,-1.0,-2.0,-1.0,1.0,-1.0,1651086324894698.0,3
1669,0.0,2.0,2.0,0.0,-3.0,-2.0,0.0,-1.0,1651086324894698.0,3
1670,-2.0,4.0,2.0,-2.0,0.0,0.0,-2.0,0.0,1651086324910947.0,3
1671,0.0,0.0,-1.0,-2.0,-3.0,-1.0,-2.0,0.0,1651086324910947.0,3
1672,-1.0,3.0,3.0,0.0,-2.0,-1.0,0.0,-1.0,1651086324918772.0,3
1673,-1.0,4.0,-4.0,0.0,0.0,-1.0,-2.0,-2.0,1651086324918772.0,3
1674,1.0,-7.0,-1.0,2.0,2.0,0.0,1.0,-1.0,1651086324919863.0,3
1675,-2.0,0.0,0.0,-1.0,0.0,-1.0,1.0,-1.0,1651086324919863.0,3
1676,-2.0,2.0,0.0,1.0,3.0,1.0,-1.0,1.0,1651086324941293.0,3
1677,-1.0,-3.0,-1.0,-2.0,-2.0,-1.0,1.0,0.0,1651086324941293.0,3
1678,1.0,0.0,-2.0,-3.0,-4.0,-1.0,0.0,-1.0,1651086324942294.0,3
1679,0.0,4.0,6.0,-2.0,-2.0,-4.0,-1.0,-1.0,1651086324942294.0,3
1680,-1.0,1.0,-1.0,-1.0,-2.0,0.0,1.0,-1.0,1651086324954334.0,3
1681,-1.0,-1.0,0.0,-1.0,1.0,0.0,-2.0,0.0,1651086324954334.0,3
1682,0.0,0.0,1.0,3.0,2.0,2.0,2.0,-1.0,1651086324971206.0,3
1683,-1.0,-1.0,-3.0,0.0,-2.0,-1.0,-1.0,1.0,1651086324971206.0,3
1684,0.0,-4.0,1.0,1.0,-2.0,-3.0,0.0,1.0,1651086324979143.0,3
1685,0.0,3.0,0.0,-1.0,-1.0,0.0,0.0,-1.0,1651086324979143.0,3
1686,0.0,-1.0,-2.0,-2.0,-2.0,-2.0,0.0,-1.0,1651086324980144.0,3
1687,0.0,-5.0,-1.0,2.0,2.0,1.0,2.0,0.0,1651086324980144.0,3
1688,-1.0,0.0,1.0,0.0,1.0,3.0,0.0,-2.0,1651086325001273.0,3
1689,1.0,0.0,-2.0,-2.0,-2.0,-2.0,-2.0,0.0,1651086325001273.0,3
1690,-2.0,-1.0,0.0,-2.0,-2.0,-2.0,0.0,-1.0,1651086325002144.0,3
1691,0.0,-1.0,-2.0,0.0,0.0,0.0,-1.0,-2.0,1651086325002144.0,3
1692,-1.0,2.0,3.0,1.0,2.0,-1.0,-2.0,0.0,1651086325014258.0,3
1693,-1.0,0.0,0.0,0.0,-1.0,0.0,0.0,-1.0,1651086325014258.0,3
1694,-2.0,-1.0,0.0,1.0,3.0,1.0,0.0,-2.0,1651086325023297.0,3
1695,-1.0,0.0,-1.0,-3.0,-3.0,-1.0,-1.0,-1.0,1651086325023297.0,3
1696,0.0,-1.0,-1.0,-2.0,-5.0,0.0,1.0,0.0,1651086325038513.0,3
1697,-1.0,-1.0,-2.0,0.0,3.0,2.0,0.0,1.0,1651086325038513.0,3
1698,0.0,-1.0,-3.0,-3.0,-1.0,-1.0,-1.0,0.0,1651086325039429.0,3
1699,-1.0,0.0,-1.0,1.0,-1.0,-2.0,-1.0,-2.0,1651086325039429.0,3
1700,-2.0,-1.0,0.0,-1.0,-1.0,0.0,2.0,0.0,1651086325061338.0,3
1701,0.0,-1.0,-1.0,1.0,-1.0,2.0,1.0,-2.0,1651086325061338.0,3
1702,-1.0,0.0,1.0,-2.0,-3.0,-3.0,0.0,-1.0,1651086325062209.0,3
1703,-1.0,-1.0,-1.0,-1.0,0.0,-1.0,-2.0,0.0,1651086325062209.0,3
1704,-1.0,-2.0,-3.0,2.0,1.0,0.0,1.0,-2.0,1651086325075118.0,3
1705,0.0,-1.0,-1.0,-1.0,-4.0,-2.0,-1.0,-2.0,1651086325075118.0,3
1706,0.0,-1.0,1.0,0.0,-1.0,0.0,-2.0,0.0,1651086325083414.0,3
1707,0.0,-1.0,-1.0,0.0,-1.0,0.0,-1.0,0.0,1651086325083414.0,3
1708,-3.0,1.0,-1.0,-2.0,0.0,-1.0,-2.0,0.0,1651086325098416.0,3
1709,-1.0,0.0,-1.0,-2.0,-1.0,-1.0,0.0,0.0,1651086325098416.0,3
1710,0.0,0.0,-1.0,0.0,0.0,1.0,-1.0,-1.0,1651086325099445.0,3
1711,0.0,0.0,1.0,-1.0,-2.0,0.0,-1.0,0.0,1651086325099445.0,3
1712,0.0,0.0,0.0,0.0,-1.0,-4.0,-2.0,0.0,1651086325120384.0,3
1713,0.0,0.0,-2.0,-3.0,0.0,2.0,-2.0,-1.0,1651086325120384.0,3
1714,-2.0,-1.0,-2.0,1.0,0.0,1.0,0.0,-1.0,1651086325122217.0,3
1715,1.0,0.0,-2.0,1.0,-2.0,-2.0,0.0,-1.0,1651086325122217.0,3
1716,0.0,-2.0,0.0,1.0,3.0,1.0,0.0,0.0,1651086325135560.0,3
1717,-1.0,-1.0,-1.0,0.0,-2.0,0.0,1.0,0.0,1651086325135560.0,3
1718,-1.0,1.0,1.0,0.0,-3.0,-3.0,-2.0,0.0,1651086325142452.0,3
1719,-1.0,-1.0,0.0,0.0,-3.0,0.0,1.0,-2.0,1651086325142452.0,3
1720,1.0,1.0,0.0,-4.0,-2.0,-2.0,-2.0,-1.0,1651086325159233.0,3
1721,0.0,-1.0,-1.0,-2.0,-4.0,-5.0,-2.0,-1.0,1651086325159233.0,3
1722,0.0,1.0,1.0,-2.0,-2.0,-1.0,-1.0,-1.0,1651086325160234.0,3
1723,-2.0,-3.0,0.0,3.0,7.0,3.0,3.0,0.0,1651086325160234.0,3
1724,0.0,-2.0,-1.0,2.0,2.0,1.0,-1.0,2.0,1651086325181403.0,3
1725,1.0,1.0,2.0,1.0,0.0,2.0,-1.0,-2.0,1651086325181403.0,3
1726,0.0,1.0,-3.0,-2.0,-2.0,-4.0,0.0,0.0,1651086325182241.0,3
1727,-1.0,-2.0,-2.0,-2.0,-3.0,-1.0,-2.0,1.0,1651086325182241.0,3
1728,0.0,0.0,-3.0,0.0,-1.0,0.0,-1.0,-2.0,1651086325195368.0,3
1729,-1.0,-1.0,0.0,0.0,0.0,-1.0,0.0,0.0,1651086325195368.0,0
1730,-1.0,-2.0,-1.0,-1.0,-2.0,-1.0,0.0,-1.0,1651086325203228.0,0
1731,0.0,1.0,0.0,-2.0,-2.0,-2.0,-2.0,-1.0,1651086325203228.0,0
1732,0.0,0.0,-2.0,-2.0,1.0,-1.0,-2.0,-1.0,1651086325219226.0,0
1733,-2.0,0.0,-1.0,0.0,2.0,-2.0,-1.0,-1.0,1651086325219226.0,0
1734,0.0,-1.0,-1.0,1.0,1.0,1.0,-1.0,-1.0,1651086325220258.0,0
1735,0.0,1.0,1.0,3.0,3.0,1.0,1.0,-1.0,1651086325220258.0,0
1736,-1.0,0.0,0.0,0.0,2.0,1.0,0.0,-1.0,1651086325241390.0,0
1737,0.0,0.0,1.0,-1.0,-2.0,-1.0,-1.0,0.0,1651086325241390.0,0
1738,-2.0,-1.0,0.0,0.0,0.0,1.0,-1.0,2.0,1651086325242239.0,0
1739,1.0,-1.0,-1.0,-3.0,-3.0,-1.0,-1.0,0.0,1651086325242239.0,0
1740,0.0,1.0,0.0,-2.0,-4.0,-2.0,-2.0,0.0,1651086325255359.0,0
1741,-1.0,0.0,-1.0,2.0,-1.0,-3.0,0.0,-1.0,1651086325255359.0,0
1742,0.0,0.0,1.0,2.0,3.0,3.0,0.0,0.0,1651086325263186.0,0
1743,-1.0,-1.0,-2.0,-2.0,-1.0,-2.0,-1.0,-1.0,1651086325263186.0,0
1744,-1.0,-3.0,0.0,0.0,-3.0,-3.0,-2.0,-1.0,1651086325279231.0,0
1745,0.0,-1.0,-3.0,-1.0,-2.0,-2.0,1.0,0.0,1651086325279231.0,0
1746,1.0,0.0,-1.0,0.0,-1.0,3.0,-2.0,-1.0,1651086325280232.0,0
1747,0.0,-1.0,-1.0,-1.0,3.0,-1.0,-2.0,1.0,1651086325280232.0,0
1748,0.0,0.0,-1.0,-2.0,0.0,0.0,0.0,-1.0,1651086325301472.0,0
1749,0.0,-3.0,-2.0,-2.0,-1.0,-2.0,1.0,0.0,1651086325301472.0,0
1750,-1.0,5.0,4.0,0.0,-1.0,-2.0,0.0,0.0,1651086325302465.0,0
1751,0.0,-2.0,-2.0,-1.0,-2.0,-1.0,-2.0,0.0,1651086325302465.0,0
1752,-1.0,-1.0,2.0,1.0,3.0,1.0,-1.0,0.0,1651086325314372.0,0
1753,0.0,-1.0,0.0,0.0,2.0,3.0,0.0,1.0,1651086325314372.0,0
1754,0.0,-3.0,-3.0,-3.0,-2.0,-3.0,-2.0,-1.0,1651086325323211.0,0
1755,1.0,1.0,-2.0,-2.0,-2.0,-1.0,-2.0,-2.0,1651086325323211.0,0
1756,0.0,-1.0,-2.0,-2.0,-1.0,-1.0,1.0,-1.0,1651086325338587.0,0
1757,0.0,1.0,-1.0,-2.0,-2.0,0.0,0.0,-2.0,1651086325338587.0,0
1758,-1.0,-2.0,0.0,-3.0,-1.0,2.0,0.0,-3.0,1651086325339490.0,0
1759,-1.0,0.0,-1.0,0.0,-1.0,-1.0,-2.0,0.0,1651086325339490.0,0
1760,-2.0,-1.0,-2.0,0.0,-1.0,-1.0,0.0,-1.0,1651086325361366.0,0
1761,-1.0,-2.0,1.0,0.0,0.0,-2.0,-1.0,0.0,1651086325361366.0,0
1762,1.0,-1.0,-1.0,0.0,2.0,-1.0,0.0,-1.0,1651086325362215.0,0
1763,0.0,-2.0,-1.0,0.0,-2.0,-2.0,1.0,0.0,1651086325362215.0,0
1764,0.0,-1.0,-3.0,-1.0,-2.0,1.0,0.0,0.0,1651086325375496.0,0
1765,-1.0,1.0,-1.0,-3.0,-5.0,-1.0,-1.0,2.0,1651086325375496.0,0
1766,-3.0,-2.0,-2.0,1.0,-1.0,-3.0,-2.0,-1.0,1651086325383351.0,0
1767,-1.0,0.0,2.0,0.0,1.0,2.0,0.0,0.0,1651086325383351.0,0
1768,1.0,-1.0,-1.0,2.0,0.0,1.0,-1.0,-1.0,1651086325398313.0,0
1769,-1.0,0.0,0.0,0.0,0.0,-1.0,-1.0,-1.0,1651086325398313.0,0
1770,2.0,0.0,-1.0,-3.0,-2.0,-2.0,-2.0,0.0,1651086325399341.0,0
1771,-1.0,0.0,-1.0,0.0,-1.0,-1.0,0.0,-1.0,1651086325399341.0,0
1772,-3.0,0.0,1.0,1.0,0.0,1.0,1.0,-1.0,1651086325420404.0,0
1773,-1.0,0.0,-2.0,1.0,1.0,2.0,-1.0,1.0,1651086325420404.0,0
1774,-1.0,-2.0,-2.0,0.0,-2.0,1.0,-1.0,-2.0,1651086325422247.0,0
1775,-1.0,1.0,0.0,0.0,-1.0,-2.0,0.0,-1.0,1651086325422247.0,0
1776,1.0,0.0,0.0,-2.0,-4.0,-2.0,0.0,-1.0,1651086325435137.0,0
1777,-1.0,-1.0,-2.0,-1.0,0.0,-1.0,0.0,-1.0,1651086325435137.0,0
1778,0.0,0.0,0.0,0.0,-2.0,0.0,1.0,0.0,1651086325443213.0,0
1779,-1.0,-1.0,-1.0,-1.0,0.0,-1.0,0.0,1.0,1651086325443213.0,0
1780,-1.0,0.0,-2.0,-3.0,-2.0,-2.0,0.0,0.0,1651086325458930.0,0
1781,-2.0,-1.0,0.0,-1.0,-2.0,1.0,-2.0,-1.0,1651086325458930.0,0
1782,-2.0,-2.0,1.0,3.0,5.0,2.0,0.0,0.0,1651086325460071.0,0
1783,-2.0,-3.0,0.0,3.0,3.0,1.0,1.0,-2.0,1651086325460071.0,0
1784,0.0,-3.0,2.0,0.0,1.0,0.0,1.0,-1.0,1651086325481377.0,0
1785,-1.0,5.0,2.0,0.0,-2.0,-1.0,0.0,-2.0,1651086325481377.0,0
1786,0.0,-1.0,-1.0,-2.0,-6.0,-2.0,-2.0,0.0,1651086325482229.0,0
1787,0.0,-1.0,-2.0,-3.0,-3.0,-1.0,-1.0,0.0,1651086325482229.0,0
1788,-1.0,-2.0,-1.0,1.0,3.0,1.0,0.0,1.0,1651086325504369.0,0
1789,1.0,-2.0,-1.0,1.0,0.0,0.0,-1.0,-2.0,1651086325504369.0,0
1790,0.0,-2.0,-1.0,1.0,1.0,0.0,1.0,-1.0,1651086325505259.0,0
1791,-1.0,-1.0,0.0,-2.0,-2.0,1.0,-1.0,-1.0,1651086325505259.0,0
1792,0.0,-1.0,-1.0,-1.0,-4.0,-3.0,-2.0,0.0,1651086325518318.0,0
1793,0.0,-3.0,-2.0,-1.0,-3.0,-1.0,-1.0,1.0,1651086325518318.0,0
1794,0.0,-2.0,-2.0,-3.0,-3.0,-4.0,-2.0,1.0,1651086325526054.0,0
1795,-2.0,-1.0,1.0,1.0,-1.0,0.0,-2.0,-1.0,1651086325526054.0,0
1796,-1.0,0.0,0.0,3.0,5.0,2.0,1.0,-1.0,1651086325541311.0,0
1797,0.0,-1.0,-2.0,0.0,2.0,0.0,1.0,-1.0,1651086325541311.0,0
1798,-1.0,1.0,0.0,-3.0,-1.0,-1.0,0.0,-1.0,1651086325542311.0,0
1799,1.0,0.0,-1.0,-3.0,-5.0,-2.0,-3.0,1.0,1651086325542311.0,0
1800,2.0,-1.0,1.0,-2.0,-3.0,0.0,-3.0,-1.0,1651086325554337.0,0
1801,-1.0,1.0,1.0,0.0,0.0,-1.0,0.0,-1.0,1651086325554337.0,0
1802,0.0,-1.0,-2.0,1.0,0.0,1.0,0.0,0.0,1651086325563150.0,0
1803,-2.0,-1.0,-2.0,-3.0,-3.0,-3.0,1.0,0.0,1651086325563150.0,0
1804,-2.0,1.0,-1.0,1.0,0.0,0.0,-2.0,-1.0,1651086325578844.0,0
1805,0.0,-3.0,2.0,-1.0,3.0,0.0,1.0,-1.0,1651086325578844.0,0
1806,-1.0,0.0,0.0,-1.0,0.0,1.0,-1.0,0.0,1651086325580101.0,0
1807,1.0,0.0,-1.0,0.0,0.0,0.0,0.0,-1.0,1651086325580101.0,0
1808,0.0,1.0,-2.0,-2.0,-5.0,-2.0,-2.0,-1.0,1651086325601229.0,0
1809,2.0,0.0,-3.0,-4.0,-5.0,-4.0,-4.0,0.0,1651086325601229.0,0
1810,-1.0,1.0,3.0,3.0,6.0,2.0,0.0,1.0,1651086325602181.0,0
1811,-1.0,0.0,-1.0,1.0,3.0,3.0,2.0,1.0,1651086325602181.0,0
1812,0.0,3.0,2.0,-4.0,-1.0,-1.0,-1.0,0.0,1651086325623591.0,0
1813,1.0,-2.0,-3.0,-1.0,-3.0,-2.0,0.0,-1.0,1651086325623591.0,0
1814,-1.0,0.0,-3.0,-2.0,-3.0,-4.0,-3.0,0.0,1651086325624427.0,0
1815,0.0,-1.0,1.0,1.0,-2.0,0.0,-1.0,-3.0,1651086325624427.0,0
1816,-1.0,-2.0,2.0,1.0,0.0,-2.0,-1.0,1.0,1651086325639232.0,0
1817,-1.0,1.0,0.0,-1.0,1.0,1.0,0.0,-2.0,1651086325639232.0,0
1818,0.0,0.0,0.0,-1.0,0.0,0.0,0.0,-2.0,1651086325640263.0,0
1819,-1.0,1.0,-1.0,-1.0,-1.0,0.0,0.0,-2.0,1651086325640263.0,0
1820,0.0,-1.0,-1.0,1.0,-2.0,0.0,-2.0,-3.0,1651086325661777.0,0
1821,-2.0,-2.0,1.0,0.0,0.0,1.0,0.0,1.0,1651086325661777.0,0
1822,0.0,-2.0,-2.0,-1.0,-1.0,0.0,0.0,-1.0,1651086325661777.0,0
1823,-1.0,-1.0,1.0,-1.0,0.0,-1.0,-2.0,0.0,1651086325661777.0,0
1824,0.0,-2.0,-5.0,-3.0,-3.0,-2.0,0.0,0.0,1651086325683360.0,0
1825,-1.0,0.0,-3.0,0.0,-1.0,-1.0,0.0,-1.0,1651086325683360.0,0
1826,-1.0,-2.0,3.0,4.0,4.0,2.0,1.0,-1.0,1651086325685224.0,0
1827,-1.0,-1.0,1.0,1.0,2.0,1.0,0.0,0.0,1651086325685224.0,0
1828,-1.0,-2.0,0.0,-2.0,-2.0,-1.0,-2.0,1.0,1651086325698265.0,0
1829,0.0,-3.0,-2.0,-2.0,-1.0,0.0,0.0,1.0,1651086325698265.0,0
1830,0.0,-1.0,-4.0,-4.0,-4.0,-4.0,-1.0,0.0,1651086325700264.0,0
1831,-1.0,0.0,-2.0,1.0,-1.0,-1.0,-1.0,-1.0,1651086325700264.0,0
1832,-1.0,-1.0,-2.0,0.0,2.0,0.0,0.0,0.0,1651086325721211.0,0
1833,0.0,-3.0,-1.0,-2.0,-1.0,0.0,0.0,0.0,1651086325721211.0,0
1834,0.0,0.0,0.0,-1.0,-1.0,1.0,1.0,1.0,1651086325722208.0,0
1835,0.0,-3.0,0.0,0.0,-2.0,-2.0,0.0,-1.0,1651086325722208.0,0
1836,-1.0,-1.0,-2.0,0.0,0.0,-3.0,1.0,-1.0,1651086325744328.0,0
1837,0.0,-1.0,-2.0,1.0,0.0,-1.0,-2.0,0.0,1651086325744328.0,0
1838,-1.0,0.0,0.0,-2.0,-2.0,-1.0,-1.0,-1.0,1651086325745229.0,0
1839,0.0,1.0,-1.0,-1.0,1.0,1.0,-1.0,0.0,1651086325745229.0,0
1840,-1.0,-1.0,3.0,-2.0,-2.0,0.0,0.0,-2.0,1651086325758471.0,0
1841,-2.0,-2.0,-4.0,0.0,0.0,0.0,0.0,1.0,1651086325758471.0,0
1842,-3.0,-1.0,-8.0,-1.0,-3.0,-1.0,1.0,0.0,1651086325759471.0,0
1843,-1.0,0.0,1.0,1.0,-1.0,0.0,-1.0,0.0,1651086325759471.0,0
1844,0.0,-1.0,3.0,0.0,-2.0,-1.0,-2.0,-1.0,1651086325781513.0,0
1845,1.0,-2.0,1.0,-1.0,-2.0,-1.0,-2.0,-3.0,1651086325781513.0,0
1846,1.0,1.0,0.0,-1.0,1.0,0.0,0.0,-1.0,1651086325782382.0,0
1847,-1.0,0.0,-3.0,-1.0,-2.0,-2.0,-1.0,-1.0,1651086325782382.0,0
1848,0.0,-3.0,-3.0,1.0,3.0,3.0,0.0,1.0,1651086325811319.0,0
1849,-1.0,-2.0,0.0,-1.0,-3.0,-2.0,0.0,0.0,1651086325811319.0,0
1850,0.0,4.0,0.0,-3.0,-2.0,-1.0,0.0,-1.0,1651086325812200.0,0
1851,0.0,0.0,-2.0,1.0,5.0,3.0,1.0,0.0,1651086325812200.0,0
1852,2.0,0.0,1.0,-1.0,0.0,-1.0,-1.0,-2.0,1651086325817217.0,0
1853,-2.0,4.0,3.0,0.0,1.0,1.0,1.0,0.0,1651086325817217.0,0
1854,-2.0,-3.0,0.0,-2.0,-2.0,-2.0,-3.0,-1.0,1651086325825197.0,0
1855,0.0,-1.0,2.0,-1.0,-1.0,-2.0,-2.0,1.0,1651086325825197.0,0
1856,-4.0,-2.0,-8.0,0.0,-1.0,-1.0,0.0,-2.0,1651086325841410.0,0
1857,0.0,0.0,-4.0,-1.0,-1.0,-3.0,-2.0,0.0,1651086325841410.0,0
1858,0.0,2.0,3.0,1.0,0.0,-2.0,-1.0,-1.0,1651086325842292.0,0
1859,-1.0,-10.0,-2.0,-4.0,1.0,5.0,0.0,0.0,1651086325842292.0,0
1860,-3.0,1.0,0.0,1.0,1.0,0.0,0.0,2.0,1651086325864261.0,0
1861,-2.0,1.0,0.0,0.0,1.0,2.0,0.0,-1.0,1651086325864261.0,0
1862,-2.0,-7.0,-2.0,0.0,0.0,-1.0,-1.0,-1.0,1651086325865217.0,0
1863,1.0,2.0,-2.0,-2.0,-5.0,-3.0,-2.0,-1.0,1651086325865217.0,0
1864,1.0,-4.0,-2.0,-5.0,-1.0,-1.0,-2.0,-2.0,1651086325878179.0,0
1865,-1.0,5.0,2.0,0.0,-2.0,-1.0,-1.0,-1.0,1651086325878179.0,0
1866,1.0,9.0,1.0,-2.0,-7.0,-2.0,-1.0,0.0,1651086325884204.0,0
1867,0.0,0.0,2.0,5.0,9.0,4.0,1.0,1.0,1651086325884204.0,0
1868,1.0,4.0,1.0,1.0,1.0,2.0,0.0,-2.0,1651086325901248.0,0
1869,0.0,-5.0,-3.0,-1.0,-1.0,0.0,-1.0,0.0,1651086325901248.0,0
1870,0.0,-3.0,-2.0,-1.0,-3.0,-2.0,0.0,-1.0,1651086325902184.0,0
1871,-2.0,1.0,-1.0,-2.0,-6.0,-5.0,0.0,-2.0,1651086325902184.0,0
1872,0.0,2.0,-1.0,0.0,-2.0,-1.0,1.0,0.0,1651086325923189.0,0
1873,-1.0,-2.0,6.0,5.0,3.0,1.0,-1.0,0.0,1651086325923189.0,0
1874,-1.0,-2.0,5.0,-4.0,0.0,2.0,1.0,0.0,1651086325925186.0,0
1875,0.0,-1.0,-4.0,-5.0,-6.0,-3.0,0.0,-1.0,1651086325925186.0,0
1876,0.0,1.0,0.0,6.0,7.0,1.0,1.0,0.0,1651086325937335.0,0
1877,-1.0,-2.0,-1.0,-6.0,-10.0,-8.0,0.0,-2.0,1651086325937335.0,0
1878,-1.0,-1.0,2.0,4.0,0.0,1.0,0.0,1.0,1651086325944449.0,0
1879,-1.0,-6.0,-1.0,4.0,8.0,5.0,0.0,1.0,1651086325944449.0,0
1880,-1.0,5.0,3.0,-6.0,-8.0,-4.0,-2.0,-1.0,1651086325961244.0,0
1881,-1.0,1.0,-1.0,-7.0,1.0,1.0,0.0,-1.0,1651086325961244.0,0
1882,-3.0,-1.0,-6.0,-4.0,-17.0,-6.0,-2.0,-1.0,1651086325962202.0,0
1883,1.0,4.0,7.0,12.0,15.0,1.0,0.0,-1.0,1651086325962202.0,0
1884,2.0,4.0,-12.0,-11.0,-12.0,-5.0,0.0,1.0,1651086325991238.0,0
1885,0.0,3.0,5.0,4.0,4.0,4.0,0.0,1.0,1651086325991238.0,0
1886,-2.0,-3.0,2.0,8.0,8.0,4.0,0.0,0.0,1651086325992191.0,0
1887,-3.0,-4.0,2.0,-11.0,-18.0,-4.0,-1.0,-1.0,1651086325992191.0,0
1888,-2.0,-4.0,-4.0,-5.0,-1.0,-2.0,-1.0,-1.0,1651086325997178.0,0
1889,3.0,-1.0,-4.0,-2.0,-1.0,1.0,0.0,1.0,1651086325997178.0,0
1890,0.0,-2.0,-2.0,-7.0,-16.0,-7.0,-3.0,0.0,1651086326004160.0,0
1891,1.0,-2.0,-5.0,12.0,1.0,-3.0,-2.0,-1.0,1651086326004160.0,0
1892,0.0,-5.0,12.0,18.0,33.0,15.0,3.0,0.0,1651086326028725.0,0
1893,-2.0,17.0,4.0,5.0,-5.0,-3.0,-1.0,-1.0,1651086326028725.0,4
1894,1.0,-5.0,-24.0,-11.0,12.0,6.0,1.0,1.0,1651086326030073.0,4
1895,0.0,3.0,11.0,-2.0,0.0,-3.0,0.0,-1.0,1651086326030073.0,4
1896,1.0,-10.0,-6.0,-1.0,2.0,1.0,0.0,1.0,1651086326043166.0,4
1897,-3.0,-4.0,12.0,9.0,-20.0,-9.0,-2.0,-3.0,1651086326043166.0,4
1898,1.0,2.0,-2.0,5.0,23.0,11.0,4.0,2.0,1651086326045185.0,4
1899,-1.0,4.0,-13.0,-19.0,-17.0,-6.0,-2.0,-2.0,1651086326045185.0,4
1900,-3.0,-1.0,-8.0,-14.0,-13.0,-7.0,-2.0,1.0,1651086326058038.0,4
1901,1.0,-2.0,26.0,11.0,7.0,9.0,2.0,2.0,1651086326058038.0,4
1902,-1.0,0.0,12.0,12.0,6.0,-4.0,0.0,0.0,1651086326064134.0,4
1903,-1.0,-1.0,-8.0,4.0,-1.0,0.0,0.0,-3.0,1651086326064134.0,4
1904,0.0,0.0,2.0,8.0,0.0,-1.0,-1.0,-1.0,1651086326081126.0,4
1905,1.0,-1.0,-24.0,-9.0,5.0,3.0,-2.0,-1.0,1651086326081126.0,4
1906,0.0,0.0,14.0,1.0,-4.0,-3.0,-1.0,0.0,1651086326083038.0,4
1907,-1.0,1.0,11.0,-2.0,3.0,5.0,-1.0,0.0,1651086326083038.0,4
1908,0.0,-1.0,2.0,-15.0,-15.0,-6.0,-4.0,-1.0,1651086326119156.0,4
1909,0.0,-3.0,-9.0,1.0,16.0,5.0,2.0,1.0,1651086326119156.0,4
1910,0.0,-1.0,0.0,8.0,2.0,-2.0,1.0,-1.0,1651086326120191.0,4
1911,0.0,-4.0,-11.0,-6.0,-12.0,-4.0,1.0,1.0,1651086326120191.0,4
1912,-2.0,10.0,20.0,11.0,-17.0,-10.0,-2.0,-3.0,1651086326121154.0,4
1913,0.0,-3.0,-4.0,3.0,8.0,1.0,0.0,0.0,1651086326121154.0,4
1914,0.0,4.0,-6.0,-10.0,14.0,8.0,1.0,0.0,1651086326126141.0,4
1915,0.0,-8.0,-7.0,-8.0,-14.0,-7.0,-2.0,-1.0,1651086326126141.0,4
1916,-2.0,-5.0,-6.0,21.0,49.0,18.0,2.0,0.0,1651086326141210.0,4
1917,-1.0,-6.0,3.0,0.0,-8.0,-6.0,-4.0,-3.0,1651086326141210.0,4
1918,0.0,6.0,23.0,30.0,35.0,12.0,1.0,0.0,1651086326142111.0,4
1919,-4.0,-3.0,-33.0,-33.0,-16.0,-10.0,-4.0,-2.0,1651086326142111.0,4
1920,0.0,-1.0,-18.0,-14.0,1.0,3.0,2.0,1.0,1651086326163352.0,4
1921,0.0,1.0,33.0,37.0,14.0,3.0,1.0,0.0,1651086326163352.0,4
1922,-1.0,-6.0,-20.0,-11.0,-18.0,-10.0,-5.0,-2.0,1651086326165201.0,4
1923,0.0,1.0,7.0,3.0,1.0,3.0,1.0,0.0,1651086326165201.0,4
1924,0.0,0.0,7.0,-5.0,-8.0,-6.0,-2.0,-1.0,1651086326177397.0,4
1925,0.0,1.0,-24.0,-7.0,6.0,1.0,1.0,0.0,1651086326177397.0,4
