,EMG_s0,EMG_s1,EMG_s2,EMG_s3,EMG_s4,EMG_s5,EMG_s6,EMG_s7,timestamp,signal
0,0.0,0.0,-3.0,-1.0,-4.0,-3.0,-1.0,-1.0,1651086371035198.0,0
1,-1.0,0.0,0.0,0.0,1.0,1.0,0.0,1.0,1651086371035198.0,0
2,-1.0,-2.0,0.0,2.0,2.0,2.0,0.0,-1.0,1651086371036195.0,0
3,-2.0,0.0,1.0,-1.0,0.0,1.0,1.0,-1.0,1651086371036195.0,0
4,0.0,-1.0,-2.0,-1.0,1.0,-3.0,-4.0,0.0,1651086371058473.0,0
5,1.0,-1.0,-1.0,-1.0,0.0,-1.0,-3.0,0.0,1651086371058473.0,0
6,-1.0,3.0,-2.0,1.0,-1.0,-1.0,-2.0,-1.0,1651086371059071.0,0
7,-1.0,-1.0,-1.0,-1.0,-1.0,-1.0,0.0,1.0,1651086371059071.0,0
8,0.0,-1.0,-1.0,-1.0,1.0,2.0,0.0,-2.0,1651086371072336.0,0
9,-1.0,-1.0,0.0,-2.0,2.0,-1.0,0.0,-2.0,1651086371072336.0,0
10,1.0,-1.0,-1.0,-1.0,0.0,0.0,1.0,0.0,1651086371073204.0,0
11,1.0,0.0,-1.0,-2.0,-4.0,-1.0,-3.0,-1.0,1651086371073204.0,0
12,-2.0,0.0,-8.0,-4.0,-7.0,-4.0,-1.0,0.0,1651086371095211.0,0
13,1.0,-2.0,2.0,3.0,1.0,-3.0,-1.0,-1.0,1651086371095211.0,0
14,-2.0,-1.0,3.0,3.0,4.0,5.0,0.0,0.0,1651086371096206.0,0
15,-1.0,0.0,-4.0,-3.0,1.0,0.0,1.0,-1.0,1651086371096206.0,0
16,1.0,1.0,2.0,-3.0,-3.0,-2.0,-3.0,0.0,1651086371117354.0,0
17,0.0,-2.0,-1.0,-1.0,-3.0,0.0,0.0,0.0,1651086371117354.0,0
18,0.0,-3.0,0.0,-4.0,-4.0,-2.0,1.0,1.0,1651086371118204.0,0
19,-2.0,1.0,2.0,7.0,3.0,3.0,0.0,0.0,1651086371118204.0,0
20,-1.0,7.0,-4.0,-2.0,2.0,0.0,1.0,0.0,1651086371132648.0,0
21,-1.0,-2.0,1.0,2.0,3.0,2.0,0.0,-3.0,1651086371132648.0,0
22,-1.0,-2.0,-4.0,-3.0,-2.0,-3.0,-2.0,-1.0,1651086371132648.0,0
23,1.0,-2.0,1.0,-5.0,-5.0,-1.0,0.0,0.0,1651086371132648.0,0
24,-3.0,-3.0,-1.0,0.0,-2.0,-2.0,0.0,0.0,1651086371156378.0,0
25,-2.0,2.0,0.0,0.0,-1.0,0.0,0.0,0.0,1651086371156378.0,0
26,0.0,-1.0,-1.0,-2.0,-2.0,-1.0,-1.0,0.0,1651086371156378.0,0
27,0.0,-3.0,-4.0,0.0,2.0,-1.0,0.0,0.0,1651086371156378.0,0
28,1.0,-2.0,1.0,1.0,1.0,0.0,1.0,1.0,1651086371178285.0,0
29,-1.0,-1.0,-1.0,-1.0,-1.0,0.0,0.0,-1.0,1651086371178285.0,0
30,0.0,-2.0,-1.0,0.0,2.0,0.0,0.0,-3.0,1651086371178285.0,0
31,-1.0,-1.0,0.0,-2.0,-4.0,-1.0,0.0,-1.0,1651086371178285.0,0
32,1.0,-1.0,2.0,-1.0,-4.0,-2.0,0.0,0.0,1651086371193191.0,0
33,-1.0,-2.0,-5.0,0.0,-2.0,0.0,-2.0,-3.0,1651086371193191.0,0
34,-2.0,1.0,2.0,4.0,3.0,3.0,1.0,1.0,1651086371193191.0,0
35,2.0,-1.0,0.0,0.0,1.0,-1.0,-1.0,-1.0,1651086371193191.0,0
36,-1.0,-2.0,0.0,-2.0,-1.0,2.0,1.0,-1.0,1651086371216507.0,0
37,-1.0,0.0,0.0,-3.0,-4.0,-4.0,-1.0,-1.0,1651086371216507.0,0
38,0.0,0.0,-2.0,-1.0,-2.0,-3.0,-3.0,0.0,1651086371216507.0,0
39,0.0,-1.0,-1.0,0.0,-1.0,1.0,1.0,0.0,1651086371216507.0,0
40,-1.0,-1.0,0.0,2.0,4.0,2.0,1.0,-1.0,1651086371238441.0,0
41,1.0,-1.0,-1.0,-1.0,-1.0,-1.0,1.0,0.0,1651086371238441.0,0
42,-1.0,1.0,0.0,-3.0,-2.0,-1.0,-1.0,-1.0,1651086371238441.0,0
43,-2.0,0.0,0.0,0.0,-1.0,-1.0,-3.0,1.0,1651086371238441.0,0
44,-2.0,-2.0,2.0,2.0,3.0,2.0,1.0,0.0,1651086371252307.0,0
45,0.0,-1.0,-4.0,0.0,0.0,2.0,2.0,1.0,1651086371252307.0,0
46,0.0,0.0,-1.0,-1.0,-5.0,-3.0,1.0,-1.0,1651086371253151.0,0
47,-1.0,-1.0,-3.0,-3.0,1.0,1.0,-1.0,0.0,1651086371253151.0,0
48,-1.0,1.0,0.0,1.0,2.0,-1.0,-1.0,-2.0,1651086371276446.0,0
49,-1.0,-1.0,1.0,-2.0,-1.0,-2.0,0.0,-1.0,1651086371276446.0,0
50,0.0,0.0,-6.0,-2.0,-2.0,-1.0,-1.0,0.0,1651086371276446.0,0
51,-1.0,0.0,0.0,-1.0,-2.0,-5.0,0.0,0.0,1651086371276446.0,0
52,1.0,0.0,-1.0,0.0,-2.0,4.0,0.0,-1.0,1651086371298561.0,0
53,-1.0,0.0,0.0,0.0,0.0,-1.0,-1.0,0.0,1651086371298561.0,0
54,0.0,-2.0,-1.0,-1.0,-1.0,-1.0,-1.0,-1.0,1651086371299075.0,0
55,-3.0,0.0,0.0,0.0,1.0,2.0,1.0,-1.0,1651086371299075.0,0
56,-1.0,0.0,-1.0,0.0,0.0,-1.0,-2.0,1.0,1651086371312274.0,0
57,-2.0,1.0,-1.0,-2.0,-1.0,-1.0,-1.0,0.0,1651086371312274.0,0
58,-1.0,-1.0,-2.0,-3.0,-2.0,1.0,-3.0,0.0,1651086371313283.0,0
59,-1.0,-1.0,-1.0,0.0,1.0,-1.0,-1.0,-1.0,1651086371313283.0,0
60,0.0,0.0,0.0,1.0,2.0,0.0,0.0,-2.0,1651086371336384.0,0
61,-1.0,0.0,0.0,-1.0,0.0,1.0,-1.0,-1.0,1651086371336384.0,0
62,-1.0,-2.0,0.0,1.0,1.0,1.0,2.0,-1.0,1651086371337218.0,0
63,0.0,0.0,0.0,-1.0,-1.0,0.0,0.0,0.0,1651086371337218.0,0
64,1.0,-1.0,-5.0,-4.0,-7.0,-3.0,-2.0,-3.0,1651086371358532.0,0
65,-1.0,0.0,-1.0,1.0,-2.0,0.0,-1.0,-1.0,1651086371358532.0,0
66,0.0,0.0,1.0,1.0,0.0,-1.0,1.0,0.0,1651086371359070.0,0
67,2.0,-1.0,0.0,1.0,1.0,-2.0,0.0,-1.0,1651086371359070.0,0
68,-3.0,-2.0,1.0,1.0,7.0,2.0,2.0,1.0,1651086371380404.0,0
69,0.0,1.0,0.0,-1.0,-1.0,4.0,0.0,0.0,1651086371380404.0,0
70,0.0,-1.0,1.0,-2.0,-3.0,-1.0,0.0,0.0,1651086371381253.0,0
71,-1.0,-1.0,-1.0,-2.0,-6.0,-3.0,-2.0,0.0,1651086371381253.0,0
72,-1.0,-1.0,-2.0,1.0,-1.0,-3.0,-2.0,-1.0,1651086371395211.0,0
73,1.0,2.0,2.0,2.0,2.0,0.0,1.0,1.0,1651086371395211.0,0
74,1.0,-1.0,-1.0,0.0,-1.0,-2.0,1.0,-1.0,1651086371395211.0,0
75,-2.0,0.0,-1.0,-1.0,-2.0,2.0,-1.0,-1.0,1651086371395211.0,0
76,1.0,-2.0,-2.0,-2.0,0.0,-1.0,-1.0,0.0,1651086371417523.0,0
77,0.0,0.0,-1.0,0.0,-1.0,-1.0,-1.0,-2.0,1651086371417523.0,0
78,0.0,1.0,0.0,-2.0,-2.0,-1.0,-1.0,-1.0,1651086371418524.0,0
79,-2.0,-1.0,-1.0,0.0,-4.0,-2.0,0.0,0.0,1651086371418524.0,0
80,-2.0,-1.0,3.0,-1.0,2.0,4.0,0.0,0.0,1651086371432543.0,0
81,1.0,0.0,0.0,0.0,4.0,-1.0,1.0,1.0,1651086371432543.0,0
82,0.0,1.0,-1.0,-1.0,1.0,-1.0,-2.0,-1.0,1651086371440332.0,0
83,1.0,-1.0,-3.0,0.0,-3.0,1.0,2.0,-2.0,1651086371440332.0,0
84,1.0,1.0,3.0,-1.0,-6.0,-6.0,-1.0,-1.0,1651086371455321.0,0
85,1.0,-1.0,-1.0,0.0,1.0,3.0,-1.0,0.0,1651086371455321.0,0
86,-2.0,0.0,0.0,0.0,0.0,-1.0,1.0,0.0,1651086371455321.0,0
87,0.0,0.0,-2.0,0.0,0.0,-3.0,-1.0,0.0,1651086371455321.0,0
88,-2.0,-1.0,-1.0,-2.0,0.0,0.0,0.0,-1.0,1651086371478267.0,0
89,-2.0,-2.0,0.0,-2.0,-1.0,-2.0,-1.0,0.0,1651086371478267.0,0
90,0.0,-1.0,-1.0,0.0,0.0,0.0,0.0,-2.0,1651086371478267.0,0
91,1.0,0.0,-1.0,1.0,1.0,0.0,-1.0,0.0,1651086371478267.0,0
92,0.0,0.0,-1.0,-1.0,-3.0,-1.0,0.0,-1.0,1651086371492416.0,0
93,-2.0,-1.0,-1.0,1.0,0.0,0.0,-2.0,-2.0,1651086371492416.0,0
94,-2.0,-1.0,0.0,1.0,3.0,2.0,2.0,-1.0,1651086371508424.0,0
95,-1.0,-1.0,2.0,-1.0,-2.0,1.0,-1.0,-1.0,1651086371508424.0,0
96,1.0,-1.0,-3.0,-1.0,-1.0,-4.0,-2.0,-1.0,1651086371515223.0,0
97,0.0,0.0,0.0,-3.0,-1.0,0.0,-1.0,-1.0,1651086371515223.0,0
98,-1.0,1.0,0.0,2.0,5.0,1.0,-1.0,-2.0,1651086371515223.0,0
99,-1.0,0.0,0.0,-1.0,1.0,-1.0,0.0,0.0,1651086371515223.0,0
100,-1.0,1.0,-1.0,-3.0,-1.0,-1.0,-1.0,0.0,1651086371538473.0,0
101,0.0,-4.0,-2.0,-4.0,-6.0,-1.0,-1.0,0.0,1651086371538473.0,0
102,-1.0,-2.0,3.0,3.0,1.0,-1.0,0.0,-1.0,1651086371539103.0,0
103,-1.0,-1.0,-6.0,0.0,4.0,4.0,0.0,0.0,1651086371539103.0,0
104,0.0,0.0,0.0,-1.0,-3.0,-2.0,0.0,0.0,1651086371552117.0,0
105,-2.0,0.0,-3.0,-1.0,-4.0,-4.0,-1.0,1.0,1651086371552117.0,0
106,0.0,-2.0,1.0,-3.0,-2.0,0.0,-1.0,1.0,1651086371560745.0,0
107,0.0,-2.0,2.0,0.0,0.0,-1.0,-1.0,-1.0,1651086371560745.0,0
108,-1.0,0.0,-4.0,2.0,-4.0,-2.0,0.0,0.0,1651086371575374.0,0
109,-1.0,-3.0,2.0,-1.0,3.0,3.0,-1.0,-2.0,1651086371575374.0,0
110,0.0,-1.0,-4.0,-1.0,0.0,0.0,0.0,0.0,1651086371575374.0,0
111,-1.0,0.0,0.0,-2.0,-3.0,0.0,0.0,-2.0,1651086371575374.0,0
112,0.0,-2.0,-1.0,-1.0,3.0,2.0,-2.0,0.0,1651086371598537.0,0
113,-1.0,0.0,0.0,0.0,1.0,-2.0,1.0,0.0,1651086371598537.0,0
114,-1.0,0.0,-1.0,1.0,-3.0,-1.0,-2.0,0.0,1651086371598537.0,0
115,0.0,-1.0,0.0,0.0,2.0,-1.0,0.0,-1.0,1651086371598537.0,0
116,-2.0,-1.0,2.0,1.0,0.0,1.0,1.0,0.0,1651086371611570.0,0
117,0.0,-1.0,0.0,0.0,-2.0,-2.0,-2.0,-2.0,1651086371611570.0,0
118,-1.0,0.0,-1.0,0.0,-1.0,2.0,1.0,1.0,1651086371619639.0,0
119,-1.0,1.0,-2.0,-3.0,-1.0,-1.0,0.0,1.0,1651086371619639.0,0
120,0.0,-2.0,-1.0,-1.0,0.0,1.0,0.0,-1.0,1651086371635231.0,0
121,0.0,-1.0,0.0,0.0,-1.0,-2.0,-1.0,1.0,1651086371635231.0,0
122,-1.0,0.0,-9.0,-2.0,1.0,-2.0,0.0,-3.0,1651086371635231.0,0
123,-1.0,0.0,1.0,-1.0,-1.0,0.0,1.0,-2.0,1651086371635231.0,0
124,0.0,-1.0,-2.0,-1.0,0.0,1.0,-1.0,0.0,1651086371659109.0,0
125,-2.0,-1.0,-2.0,0.0,-1.0,0.0,-2.0,0.0,1651086371659109.0,0
126,0.0,-2.0,0.0,-1.0,-5.0,-3.0,0.0,0.0,1651086371659109.0,0
127,0.0,-1.0,1.0,-1.0,1.0,-1.0,-3.0,0.0,1651086371659109.0,0
128,1.0,1.0,0.0,-1.0,0.0,-2.0,0.0,-1.0,1651086371672404.0,0
129,0.0,0.0,-2.0,-1.0,0.0,0.0,0.0,-1.0,1651086371672404.0,0
130,-1.0,-1.0,0.0,1.0,-1.0,1.0,1.0,1.0,1651086371687879.0,0
131,2.0,1.0,-1.0,1.0,-2.0,-2.0,0.0,-1.0,1651086371687879.0,0
132,-3.0,0.0,-1.0,2.0,2.0,0.0,2.0,-1.0,1651086371694907.0,0
133,-3.0,2.0,7.0,0.0,-2.0,-2.0,1.0,0.0,1651086371694907.0,0
134,-2.0,-2.0,-13.0,-5.0,-6.0,-5.0,-1.0,-1.0,1651086371695861.0,0
135,-2.0,-1.0,4.0,0.0,0.0,4.0,-1.0,-1.0,1651086371695861.0,0
136,0.0,-1.0,0.0,-2.0,0.0,1.0,-2.0,-1.0,1651086371719031.0,0
137,0.0,0.0,-1.0,1.0,3.0,0.0,1.0,-1.0,1651086371719031.0,0
138,0.0,1.0,4.0,-1.0,1.0,-1.0,0.0,0.0,1651086371719109.0,0
139,-1.0,-2.0,-3.0,-1.0,-1.0,-2.0,-1.0,0.0,1651086371719109.0,0
140,-2.0,-2.0,-3.0,-1.0,-6.0,-2.0,0.0,1.0,1651086371732388.0,0
141,-1.0,-1.0,-6.0,1.0,1.0,-1.0,-1.0,0.0,1651086371732388.0,0
142,1.0,1.0,5.0,0.0,1.0,-2.0,-1.0,0.0,1651086371740338.0,0
143,0.0,1.0,-1.0,-1.0,-1.0,1.0,1.0,0.0,1651086371740338.0,0
144,0.0,0.0,1.0,1.0,0.0,-1.0,-1.0,-2.0,1651086371755417.0,0
145,0.0,0.0,-3.0,-3.0,-3.0,-2.0,0.0,0.0,1651086371755417.0,0
146,-1.0,1.0,-2.0,-1.0,-1.0,2.0,-1.0,-2.0,1651086371755417.0,0
147,-1.0,-2.0,2.0,2.0,1.0,-1.0,1.0,-1.0,1651086371755417.0,0
148,-2.0,-3.0,0.0,-1.0,0.0,0.0,0.0,-1.0,1651086371778307.0,0
149,-1.0,0.0,-1.0,0.0,-1.0,-2.0,1.0,0.0,1651086371778307.0,0
150,0.0,0.0,1.0,-2.0,-2.0,0.0,-3.0,-1.0,1651086371778307.0,0
151,-1.0,-1.0,1.0,0.0,-1.0,-3.0,-1.0,0.0,1651086371778307.0,0
152,-2.0,0.0,-1.0,-1.0,-1.0,-1.0,1.0,1.0,1651086371808453.0,0
153,0.0,0.0,0.0,0.0,4.0,3.0,0.0,-2.0,1651086371808453.0,0
154,0.0,0.0,1.0,1.0,0.0,-1.0,0.0,-1.0,1651086371809105.0,0
155,1.0,0.0,-1.0,-2.0,-2.0,-1.0,0.0,-1.0,1651086371809105.0,0
156,0.0,-1.0,1.0,0.0,-5.0,-3.0,-2.0,0.0,1651086371815123.0,0
157,-1.0,-1.0,-3.0,0.0,1.0,0.0,0.0,-2.0,1651086371815123.0,0
158,-1.0,0.0,0.0,1.0,1.0,2.0,0.0,-1.0,1651086371815123.0,0
159,0.0,1.0,4.0,1.0,1.0,-1.0,-2.0,-1.0,1651086371815123.0,0
160,0.0,-3.0,-9.0,-4.0,-2.0,-2.0,-1.0,-2.0,1651086371838985.0,0
161,0.0,-2.0,2.0,-2.0,-4.0,0.0,-1.0,0.0,1651086371838985.0,0
162,1.0,-3.0,1.0,-1.0,2.0,-1.0,0.0,-1.0,1651086371839099.0,0
163,0.0,4.0,-1.0,-3.0,-3.0,-2.0,0.0,-1.0,1651086371839099.0,0
164,0.0,-2.0,-1.0,0.0,1.0,1.0,0.0,0.0,1651086371868267.0,0
165,-1.0,0.0,-1.0,2.0,2.0,-1.0,-1.0,1.0,1651086371868267.0,0
166,-2.0,-3.0,-3.0,-2.0,-2.0,-1.0,-1.0,-1.0,1651086371869108.0,0
167,-1.0,-1.0,1.0,2.0,0.0,-3.0,-1.0,0.0,1651086371869108.0,0
168,0.0,0.0,2.0,1.0,4.0,5.0,0.0,1.0,1651086371875128.0,0
169,0.0,-1.0,-3.0,-2.0,-3.0,-3.0,-1.0,0.0,1651086371875128.0,0
170,-1.0,1.0,3.0,1.0,1.0,-1.0,-1.0,1.0,1651086371875128.0,0
171,0.0,-2.0,-4.0,-4.0,-4.0,-3.0,-1.0,-3.0,1651086371875128.0,0
172,0.0,0.0,0.0,-2.0,-2.0,-2.0,-2.0,-1.0,1651086371897565.0,0
173,0.0,0.0,-1.0,-2.0,-2.0,-1.0,0.0,1.0,1651086371897565.0,0
174,0.0,-1.0,2.0,-1.0,-2.0,-2.0,-1.0,0.0,1651086371905547.0,0
175,0.0,-1.0,-1.0,-1.0,0.0,1.0,-1.0,-1.0,1651086371905547.0,0
176,0.0,1.0,0.0,-1.0,-1.0,-2.0,-1.0,-1.0,1651086371920667.0,0
177,-1.0,-1.0,5.0,2.0,2.0,1.0,-2.0,0.0,1651086371920667.0,0
178,-1.0,-3.0,-10.0,-2.0,-1.0,2.0,-1.0,0.0,1651086371922506.0,0
179,-2.0,-1.0,-2.0,-1.0,2.0,-1.0,-2.0,-1.0,1651086371922506.0,0
180,-1.0,0.0,-4.0,-3.0,-3.0,-1.0,-1.0,-2.0,1651086371942818.0,0
181,-1.0,0.0,2.0,-2.0,-3.0,-5.0,-1.0,-2.0,1651086371942818.0,0
182,-2.0,-1.0,1.0,1.0,2.0,1.0,1.0,1.0,1651086371944689.0,0
183,-1.0,-3.0,-2.0,0.0,-1.0,1.0,-2.0,1.0,1651086371944689.0,0
184,1.0,5.0,3.0,-2.0,-2.0,-2.0,-1.0,0.0,1651086371957213.0,0
185,-3.0,-5.0,-5.0,-2.0,-1.0,1.0,1.0,-2.0,1651086371957213.0,0
186,0.0,2.0,2.0,-2.0,-3.0,-2.0,0.0,-1.0,1651086371966177.0,0
187,-1.0,-1.0,-4.0,-1.0,0.0,-1.0,-1.0,1.0,1651086371966177.0,0
188,-2.0,0.0,2.0,-1.0,4.0,4.0,0.0,-1.0,1651086371981039.0,0
189,0.0,0.0,-2.0,1.0,2.0,-2.0,0.0,1.0,1651086371981039.0,0
190,0.0,-1.0,1.0,-2.0,2.0,0.0,-1.0,-2.0,1651086371982447.0,0
191,-1.0,0.0,-3.0,0.0,-4.0,-2.0,-1.0,-1.0,1651086371982447.0,0
192,0.0,5.0,0.0,-6.0,-5.0,-2.0,-1.0,0.0,1651086372003814.0,0
193,-2.0,-1.0,6.0,3.0,-1.0,1.0,-1.0,-1.0,1651086372003814.0,0
194,-2.0,-10.0,-4.0,3.0,6.0,1.0,2.0,1.0,1651086372004653.0,0
195,-2.0,1.0,1.0,-1.0,-3.0,-2.0,0.0,-1.0,1651086372004653.0,0
196,-2.0,-1.0,-2.0,0.0,-2.0,-2.0,-1.0,-2.0,1651086372016840.0,0
197,0.0,2.0,3.0,-1.0,2.0,3.0,0.0,2.0,1651086372016840.0,0
198,-1.0,1.0,-8.0,-5.0,-5.0,-2.0,-3.0,-2.0,1651086372025370.0,0
199,0.0,0.0,-2.0,0.0,2.0,0.0,0.0,0.0,1651086372025370.0,0
200,0.0,-3.0,0.0,0.0,-1.0,-3.0,1.0,-1.0,1651086372040238.0,0
201,1.0,3.0,0.0,-3.0,-4.0,2.0,-1.0,-1.0,1651086372040238.0,0
202,-1.0,0.0,3.0,2.0,-1.0,0.0,-1.0,0.0,1651086372042190.0,0
203,-1.0,-2.0,-5.0,-1.0,-1.0,0.0,0.0,0.0,1651086372042190.0,0
204,-1.0,-2.0,-2.0,-1.0,2.0,3.0,-1.0,-2.0,1651086372063490.0,0
205,0.0,-2.0,-2.0,-1.0,-2.0,-4.0,-1.0,0.0,1651086372063490.0,0
206,-1.0,2.0,0.0,0.0,0.0,0.0,0.0,0.0,1651086372064399.0,0
207,-1.0,0.0,3.0,0.0,1.0,3.0,0.0,-1.0,1651086372064399.0,0
208,-1.0,-2.0,2.0,1.0,-1.0,-2.0,1.0,0.0,1651086372077522.0,0
209,-1.0,-1.0,-8.0,-3.0,-4.0,-2.0,0.0,-3.0,1651086372077522.0,0
210,-1.0,1.0,6.0,-1.0,-6.0,-3.0,-2.0,1.0,1651086372085501.0,0
211,-1.0,0.0,-3.0,-1.0,-12.0,-2.0,-1.0,1.0,1651086372085501.0,0
212,0.0,-4.0,-1.0,0.0,3.0,1.0,-1.0,0.0,1651086372100400.0,0
213,1.0,0.0,-2.0,5.0,17.0,8.0,2.0,3.0,1651086372100400.0,0
214,-1.0,0.0,-1.0,0.0,1.0,0.0,0.0,-2.0,1651086372102232.0,0
215,-2.0,-4.0,3.0,-2.0,2.0,0.0,-2.0,-3.0,1651086372102232.0,0
216,-2.0,-1.0,-4.0,-1.0,-7.0,-3.0,-1.0,0.0,1651086372123226.0,0
217,-2.0,4.0,5.0,-6.0,-9.0,-5.0,-1.0,-3.0,1651086372123226.0,0
218,1.0,2.0,-5.0,0.0,-2.0,-2.0,-1.0,-1.0,1651086372124274.0,0
219,-1.0,-2.0,-4.0,-1.0,4.0,4.0,0.0,-1.0,1651086372124274.0,0
220,0.0,0.0,-1.0,1.0,-2.0,-2.0,-1.0,2.0,1651086372145538.0,0
221,1.0,-3.0,-1.0,-3.0,-1.0,-3.0,0.0,0.0,1651086372145538.0,0
222,-1.0,5.0,0.0,2.0,3.0,3.0,0.0,0.0,1651086372146535.0,0
223,-1.0,-4.0,-2.0,1.0,-1.0,-2.0,-1.0,-1.0,1651086372146535.0,0
224,0.0,-1.0,-2.0,-4.0,-2.0,-2.0,-1.0,-1.0,1651086372160868.0,0
225,-1.0,-2.0,0.0,2.0,-1.0,0.0,-1.0,-1.0,1651086372160868.0,0
226,-1.0,0.0,3.0,0.0,0.0,0.0,0.0,-1.0,1651086372161698.0,0
227,0.0,-1.0,-7.0,-1.0,2.0,0.0,1.0,0.0,1651086372161698.0,0
228,-1.0,2.0,3.0,1.0,-2.0,1.0,1.0,0.0,1651086372183375.0,0
229,1.0,0.0,0.0,0.0,1.0,0.0,0.0,2.0,1651086372183375.0,0
230,1.0,0.0,0.0,-2.0,-6.0,-5.0,-1.0,-2.0,1651086372184244.0,0
231,-1.0,-1.0,1.0,-4.0,-2.0,-1.0,-1.0,-2.0,1651086372184244.0,0
232,1.0,-9.0,-5.0,8.0,11.0,2.0,1.0,1.0,1651086372197544.0,0
233,-2.0,10.0,10.0,-1.0,-3.0,-2.0,-1.0,-1.0,1651086372197544.0,0
234,-1.0,7.0,2.0,0.0,2.0,4.0,-1.0,1.0,1651086372206379.0,0
235,0.0,3.0,3.0,-2.0,-4.0,-5.0,0.0,0.0,1651086372206379.0,0
236,-2.0,-1.0,-7.0,-7.0,-5.0,-3.0,-3.0,-2.0,1651086372220991.0,0
237,-1.0,-10.0,-7.0,-1.0,-3.0,-1.0,-1.0,-1.0,1651086372220991.0,0
238,-1.0,-5.0,-1.0,-1.0,1.0,0.0,0.0,0.0,1651086372221991.0,0
239,1.0,0.0,-4.0,-2.0,-3.0,0.0,1.0,0.0,1651086372221991.0,0
240,0.0,-1.0,4.0,-1.0,-4.0,-2.0,0.0,0.0,1651086372243200.0,0
241,-1.0,-1.0,3.0,0.0,6.0,6.0,1.0,-1.0,1651086372243200.0,0
242,1.0,-4.0,-13.0,-4.0,-1.0,-4.0,0.0,-2.0,1651086372244231.0,0
243,0.0,2.0,1.0,3.0,7.0,3.0,1.0,0.0,1651086372244231.0,0
244,-1.0,5.0,-3.0,-4.0,-9.0,-1.0,-2.0,1.0,1651086372257075.0,0
245,0.0,-5.0,-2.0,-5.0,-6.0,-5.0,-1.0,-1.0,1651086372257075.0,0
246,-1.0,-5.0,8.0,9.0,5.0,-5.0,-1.0,-1.0,1651086372265059.0,0
247,-1.0,3.0,4.0,15.0,28.0,12.0,5.0,2.0,1651086372265059.0,0
248,0.0,6.0,-3.0,2.0,-6.0,-1.0,1.0,-3.0,1651086372280940.0,1
249,-3.0,-16.0,-2.0,4.0,6.0,4.0,-2.0,-1.0,1651086372280940.0,1
250,0.0,-19.0,-10.0,-9.0,-8.0,-3.0,-1.0,0.0,1651086372282429.0,1
251,0.0,11.0,8.0,-1.0,-8.0,-6.0,-3.0,-1.0,1651086372282429.0,1
252,0.0,2.0,6.0,-2.0,2.0,-2.0,-1.0,1.0,1651086372303204.0,1
253,0.0,5.0,-8.0,-13.0,-10.0,0.0,-3.0,0.0,1651086372303204.0,1
254,-2.0,-4.0,-2.0,1.0,-1.0,-2.0,0.0,-1.0,1651086372304237.0,1
255,-1.0,-5.0,-2.0,-1.0,-5.0,-3.0,-2.0,-1.0,1651086372304237.0,1
256,0.0,-5.0,-2.0,-1.0,1.0,-3.0,0.0,0.0,1651086372325356.0,1
257,0.0,-2.0,-3.0,3.0,-4.0,-1.0,0.0,-1.0,1651086372325356.0,1
258,-2.0,3.0,6.0,1.0,4.0,3.0,0.0,0.0,1651086372327242.0,1
259,-1.0,-1.0,-3.0,-5.0,-5.0,-3.0,-1.0,0.0,1651086372327242.0,1
260,-1.0,0.0,0.0,-1.0,1.0,0.0,-1.0,1.0,1651086372340370.0,1
261,0.0,-5.0,-2.0,3.0,3.0,-2.0,0.0,0.0,1651086372340370.0,1
262,0.0,5.0,5.0,-1.0,4.0,6.0,1.0,1.0,1651086372342225.0,1
263,-1.0,-11.0,-6.0,-9.0,-14.0,-5.0,-1.0,-1.0,1651086372342225.0,1
264,1.0,2.0,-2.0,4.0,17.0,4.0,-1.0,-1.0,1651086372363223.0,1
265,-3.0,1.0,-12.0,-6.0,-11.0,-7.0,-2.0,0.0,1651086372363223.0,1
266,1.0,0.0,0.0,12.0,10.0,6.0,-1.0,1.0,1651086372365252.0,1
267,-1.0,-1.0,-1.0,-5.0,-1.0,-5.0,-1.0,-1.0,1651086372365252.0,1
268,0.0,-8.0,3.0,14.0,33.0,14.0,1.0,1.0,1651086372385208.0,1
269,-1.0,4.0,-14.0,-19.0,-19.0,-9.0,-1.0,-3.0,1651086372385208.0,1
270,0.0,12.0,10.0,1.0,-6.0,1.0,-1.0,-1.0,1651086372387231.0,1
271,1.0,-4.0,1.0,7.0,3.0,0.0,0.0,0.0,1651086372387231.0,1
272,-3.0,-1.0,-1.0,-4.0,-10.0,-4.0,-3.0,-2.0,1651086372400350.0,1
273,0.0,-3.0,-2.0,1.0,8.0,3.0,2.0,2.0,1651086372400350.0,1
274,-2.0,-2.0,3.0,-6.0,-10.0,-6.0,-2.0,0.0,1651086372402239.0,1
275,0.0,2.0,-1.0,-5.0,-6.0,0.0,-3.0,-1.0,1651086372402239.0,1
276,-1.0,-3.0,-1.0,-1.0,-5.0,-5.0,1.0,-2.0,1651086372423509.0,1
277,0.0,3.0,3.0,5.0,1.0,1.0,-1.0,0.0,1651086372423509.0,1
278,-2.0,-4.0,-3.0,-4.0,-3.0,-2.0,0.0,-3.0,1651086372425398.0,1
279,0.0,1.0,1.0,4.0,-1.0,0.0,1.0,1.0,1651086372425398.0,1
280,-1.0,-3.0,-3.0,-5.0,-3.0,0.0,0.0,-1.0,1651086372453339.0,1
281,-1.0,3.0,8.0,8.0,3.0,3.0,1.0,1.0,1651086372453339.0,1
282,-1.0,1.0,1.0,-4.0,0.0,-6.0,-3.0,0.0,1651086372454234.0,1
283,-2.0,-2.0,-6.0,-4.0,-2.0,3.0,0.0,-3.0,1651086372454234.0,1
284,1.0,11.0,6.0,12.0,4.0,1.0,1.0,0.0,1651086372460186.0,1
285,-4.0,-12.0,-8.0,-1.0,0.0,-4.0,0.0,1.0,1651086372460186.0,1
286,0.0,3.0,-4.0,-10.0,1.0,0.0,1.0,-1.0,1651086372466317.0,1
287,0.0,4.0,10.0,4.0,-3.0,-1.0,0.0,2.0,1651086372466317.0,1
288,-1.0,3.0,2.0,-13.0,-11.0,-4.0,0.0,1.0,1651086372484189.0,1
289,-1.0,-16.0,0.0,-4.0,-19.0,-5.0,-2.0,-4.0,1651086372484189.0,1
290,0.0,16.0,-2.0,12.0,12.0,-1.0,-3.0,0.0,1651086372485036.0,1
291,-1.0,-8.0,-4.0,-5.0,-13.0,-7.0,-1.0,-1.0,1651086372485036.0,1
292,0.0,3.0,-4.0,8.0,23.0,16.0,2.0,0.0,1651086372513497.0,1
293,-2.0,7.0,10.0,-4.0,8.0,-5.0,-2.0,0.0,1651086372513497.0,1
294,-3.0,-12.0,-1.0,17.0,12.0,8.0,1.0,0.0,1651086372514377.0,1
295,0.0,-3.0,-10.0,-16.0,-9.0,-6.0,-1.0,-1.0,1651086372514377.0,1
296,-2.0,0.0,-1.0,-9.0,-27.0,-10.0,-3.0,0.0,1651086372519395.0,1
297,2.0,1.0,18.0,13.0,27.0,12.0,1.0,0.0,1651086372519395.0,1
298,0.0,-6.0,-6.0,-8.0,-18.0,-5.0,-1.0,1.0,1651086372527105.0,1
299,-1.0,4.0,16.0,-1.0,-10.0,-8.0,-4.0,-3.0,1651086372527105.0,1
300,2.0,-2.0,-23.0,10.0,18.0,8.0,2.0,1.0,1651086372550433.0,1
301,1.0,-13.0,-6.0,-10.0,3.0,2.0,0.0,0.0,1651086372550433.0,1
302,0.0,11.0,-9.0,-12.0,-13.0,-4.0,-1.0,-1.0,1651086372552430.0,1
303,0.0,1.0,-12.0,-15.0,-9.0,-7.0,-1.0,0.0,1651086372552430.0,1
304,-3.0,-9.0,10.0,8.0,1.0,-3.0,-1.0,-1.0,1651086372565327.0,1
305,1.0,9.0,9.0,19.0,-2.0,0.0,0.0,2.0,1651086372565327.0,1
306,-1.0,-8.0,-7.0,-4.0,-4.0,2.0,2.0,1.0,1651086372567187.0,1
307,0.0,-8.0,-12.0,-7.0,0.0,-1.0,0.0,-1.0,1651086372567187.0,1
308,0.0,3.0,-5.0,-17.0,-20.0,-8.0,-1.0,-2.0,1651086372580285.0,1
309,-1.0,5.0,9.0,11.0,6.0,3.0,2.0,-1.0,1651086372580285.0,1
310,0.0,-5.0,11.0,-13.0,-19.0,-9.0,-3.0,-1.0,1651086372586137.0,1
311,-1.0,0.0,-16.0,1.0,-10.0,-1.0,-3.0,0.0,1651086372586137.0,1
312,2.0,-8.0,9.0,10.0,23.0,1.0,1.0,0.0,1651086372604095.0,1
313,-1.0,4.0,-14.0,-11.0,-27.0,-13.0,-4.0,-4.0,1651086372604095.0,1
314,0.0,-4.0,-28.0,-38.0,-9.0,4.0,3.0,1.0,1651086372606080.0,1
315,1.0,4.0,30.0,50.0,40.0,20.0,7.0,3.0,1651086372606080.0,1
316,-1.0,-5.0,-5.0,-4.0,-7.0,-3.0,-1.0,0.0,1651086372625191.0,1
317,-2.0,7.0,15.0,-13.0,-24.0,-10.0,-3.0,-2.0,1651086372625191.0,1
318,-2.0,-6.0,-57.0,-29.0,4.0,0.0,-1.0,-1.0,1651086372627218.0,1
319,0.0,-6.0,-17.0,-8.0,19.0,9.0,3.0,1.0,1651086372627218.0,1
320,-2.0,4.0,29.0,15.0,-9.0,-4.0,-3.0,-5.0,1651086372640284.0,1
321,1.0,-2.0,-4.0,-10.0,2.0,4.0,2.0,1.0,1651086372640284.0,1
322,0.0,6.0,23.0,22.0,-2.0,-4.0,-1.0,0.0,1651086372646331.0,1
323,-1.0,-2.0,-13.0,-15.0,-15.0,-8.0,-6.0,-1.0,1651086372646331.0,1
324,-2.0,-3.0,1.0,-3.0,2.0,1.0,-1.0,-3.0,1651086372670911.0,1
325,0.0,0.0,-24.0,-13.0,-2.0,1.0,2.0,2.0,1651086372670911.0,1
326,-3.0,-7.0,32.0,14.0,8.0,4.0,1.0,-2.0,1651086372672264.0,1
327,1.0,1.0,-26.0,-26.0,-21.0,-5.0,-3.0,-1.0,1651086372672264.0,1
328,-2.0,0.0,17.0,48.0,27.0,1.0,-2.0,-2.0,1651086372685329.0,1
329,-1.0,-5.0,5.0,5.0,15.0,7.0,3.0,-1.0,1651086372685329.0,1
330,0.0,-2.0,-14.0,19.0,12.0,3.0,2.0,1.0,1651086372687193.0,1
331,0.0,4.0,15.0,-12.0,-13.0,-9.0,-3.0,-2.0,1651086372687193.0,1
332,3.0,4.0,-10.0,-27.0,-16.0,2.0,3.0,3.0,1651086372700199.0,1
333,-2.0,-5.0,-4.0,18.0,-2.0,-7.0,-3.0,-3.0,1651086372700199.0,1
334,0.0,2.0,29.0,9.0,31.0,8.0,1.0,0.0,1651086372706282.0,1
335,-3.0,-5.0,6.0,15.0,6.0,1.0,-2.0,-2.0,1651086372706282.0,1
336,-2.0,-7.0,-17.0,-14.0,-20.0,-7.0,-1.0,-2.0,1651086372723468.0,1
337,0.0,-1.0,-13.0,2.0,11.0,4.0,0.0,0.0,1651086372723468.0,1
338,1.0,4.0,31.0,16.0,1.0,-1.0,1.0,-1.0,1651086372724393.0,1
339,-1.0,-1.0,-14.0,-11.0,-6.0,-1.0,-2.0,-1.0,1651086372724393.0,1
340,-1.0,1.0,6.0,0.0,4.0,2.0,-1.0,1.0,1651086372745236.0,1
341,2.0,4.0,1.0,3.0,1.0,-2.0,-1.0,0.0,1651086372745236.0,1
342,-1.0,-2.0,-10.0,-5.0,-10.0,-2.0,-2.0,-1.0,1651086372747261.0,1
343,0.0,4.0,23.0,8.0,7.0,1.0,3.0,0.0,1651086372747261.0,1
344,-2.0,-6.0,-7.0,-4.0,-12.0,-3.0,-1.0,-1.0,1651086372760274.0,1
345,0.0,6.0,5.0,-9.0,-9.0,-3.0,-3.0,-1.0,1651086372760274.0,1
346,-2.0,-3.0,-4.0,12.0,8.0,3.0,0.0,0.0,1651086372767255.0,1
347,-3.0,-2.0,24.0,23.0,5.0,-1.0,0.0,-1.0,1651086372767255.0,1
348,-3.0,-4.0,-14.0,-40.0,-23.0,-13.0,-5.0,-3.0,1651086372783223.0,1
349,1.0,-1.0,-22.0,-10.0,2.0,3.0,-1.0,0.0,1651086372783223.0,1
350,1.0,-1.0,-18.0,-21.0,-7.0,-2.0,1.0,0.0,1651086372784222.0,1
351,-1.0,2.0,10.0,-1.0,-3.0,0.0,0.0,1.0,1651086372784222.0,1
352,-2.0,0.0,3.0,21.0,4.0,-1.0,0.0,-1.0,1651086372805354.0,1
353,-2.0,4.0,10.0,1.0,7.0,2.0,-1.0,-2.0,1651086372805354.0,1
354,0.0,1.0,15.0,-6.0,-23.0,-10.0,-3.0,-2.0,1651086372807187.0,1
355,-2.0,-2.0,-12.0,19.0,18.0,4.0,1.0,0.0,1651086372807187.0,1
356,-1.0,-2.0,-9.0,-13.0,4.0,4.0,2.0,0.0,1651086372819618.0,1
357,1.0,1.0,-8.0,-10.0,-3.0,-3.0,-2.0,1.0,1651086372819618.0,1
358,0.0,1.0,0.0,3.0,2.0,5.0,3.0,0.0,1651086372828182.0,1
359,-1.0,-3.0,2.0,5.0,-2.0,-5.0,-6.0,-3.0,1651086372828182.0,1
360,3.0,1.0,17.0,-4.0,-5.0,1.0,2.0,2.0,1651086372843512.0,1
361,0.0,-1.0,-4.0,18.0,11.0,2.0,1.0,2.0,1651086372843512.0,1
362,-1.0,1.0,1.0,-2.0,-1.0,-3.0,-4.0,-3.0,1651086372844345.0,1
363,0.0,0.0,-13.0,-10.0,3.0,3.0,0.0,-2.0,1651086372844345.0,1
364,0.0,0.0,5.0,4.0,3.0,2.0,1.0,1.0,1651086372866358.0,1
365,0.0,2.0,8.0,1.0,-6.0,-1.0,0.0,1.0,1651086372866358.0,1
366,0.0,-3.0,-3.0,17.0,5.0,1.0,1.0,2.0,1651086372867242.0,1
367,0.0,0.0,-14.0,-17.0,-6.0,-2.0,0.0,1.0,1651086372867242.0,1
368,-4.0,3.0,21.0,11.0,9.0,0.0,-2.0,-3.0,1651086372879529.0,1
369,0.0,-3.0,-26.0,-14.0,-4.0,-1.0,0.0,-1.0,1651086372879529.0,1
370,0.0,-2.0,4.0,4.0,0.0,0.0,1.0,1.0,1651086372888663.0,1
371,0.0,-1.0,-10.0,-10.0,-8.0,-3.0,1.0,0.0,1651086372888663.0,1
372,2.0,3.0,3.0,5.0,6.0,4.0,-1.0,2.0,1651086372903325.0,1
373,-2.0,2.0,10.0,4.0,6.0,1.0,3.0,0.0,1651086372903325.0,1
374,-3.0,-2.0,5.0,-3.0,-3.0,-1.0,-2.0,-3.0,1651086372904184.0,1
375,1.0,-1.0,-13.0,-13.0,-2.0,-3.0,-2.0,1.0,1651086372904184.0,1
376,-2.0,-4.0,-11.0,-13.0,-5.0,-2.0,-2.0,-1.0,1651086372926365.0,1
377,-3.0,-1.0,12.0,25.0,-1.0,0.0,-2.0,-1.0,1651086372926365.0,1
378,0.0,-2.0,-14.0,-15.0,-6.0,-1.0,-1.0,-1.0,1651086372927203.0,1
379,3.0,2.0,22.0,9.0,6.0,2.0,1.0,1.0,1651086372927203.0,1
380,-2.0,-2.0,-17.0,-1.0,-2.0,-2.0,-3.0,-1.0,1651086372948560.0,1
381,-1.0,-1.0,8.0,0.0,1.0,1.0,0.0,-2.0,1651086372948560.0,1
382,0.0,-1.0,-13.0,-6.0,-3.0,-3.0,-2.0,0.0,1651086372949071.0,1
383,-3.0,-5.0,-7.0,-5.0,-4.0,-2.0,0.0,-2.0,1651086372949071.0,1
384,1.0,1.0,-5.0,-5.0,-1.0,-3.0,-1.0,1.0,1651086372963271.0,1
385,-1.0,-1.0,4.0,-1.0,-1.0,1.0,0.0,-1.0,1651086372963271.0,1
386,1.0,1.0,23.0,20.0,1.0,-1.0,-2.0,1.0,1651086372964279.0,1
387,-3.0,3.0,-4.0,-15.0,-2.0,0.0,1.0,0.0,1651086372964279.0,1
388,2.0,0.0,8.0,6.0,9.0,2.0,1.0,1.0,1651086372985395.0,1
389,-3.0,-7.0,-27.0,-23.0,-6.0,-3.0,-3.0,-2.0,1651086372985395.0,1
390,0.0,0.0,-4.0,-6.0,-1.0,-3.0,-2.0,-2.0,1651086372987259.0,1
391,-1.0,-1.0,9.0,16.0,7.0,4.0,1.0,0.0,1651086372987259.0,1
392,0.0,-1.0,5.0,-8.0,-5.0,0.0,1.0,1.0,1651086372999224.0,1
393,-1.0,0.0,-4.0,2.0,4.0,-2.0,-3.0,-3.0,1651086372999224.0,1
394,2.0,2.0,-5.0,2.0,0.0,-2.0,-1.0,2.0,1651086373007849.0,1
395,0.0,-1.0,2.0,1.0,4.0,3.0,-1.0,-1.0,1651086373007849.0,1
396,-2.0,0.0,-1.0,-19.0,-14.0,-5.0,-1.0,-2.0,1651086373022839.0,1
397,0.0,-1.0,23.0,12.0,11.0,1.0,0.0,0.0,1651086373022839.0,1
398,-1.0,-3.0,-26.0,-10.0,-1.0,-2.0,-1.0,-2.0,1651086373029569.0,1
399,1.0,2.0,18.0,18.0,4.0,2.0,0.0,0.0,1651086373029569.0,1
400,1.0,-3.0,-19.0,-13.0,-5.0,-1.0,-1.0,1.0,1651086373045969.0,1
401,2.0,1.0,-11.0,10.0,-4.0,-1.0,0.0,1.0,1651086373045969.0,1
402,-3.0,-6.0,-1.0,-6.0,-1.0,-3.0,0.0,-1.0,1651086373046932.0,1
403,-2.0,-2.0,28.0,10.0,7.0,5.0,2.0,-1.0,1651086373046932.0,1
404,-3.0,0.0,-8.0,6.0,-2.0,-3.0,-4.0,-2.0,1651086373059448.0,1
405,-2.0,-1.0,5.0,-9.0,-9.0,-3.0,-1.0,0.0,1651086373059448.0,1
406,1.0,1.0,7.0,1.0,3.0,-1.0,-1.0,1.0,1651086373067792.0,1
407,0.0,-1.0,-10.0,6.0,3.0,1.0,2.0,1.0,1651086373067792.0,1
408,0.0,-3.0,-6.0,-3.0,-3.0,-3.0,-1.0,-2.0,1651086373082850.0,1
409,-1.0,3.0,15.0,-2.0,0.0,1.0,1.0,-1.0,1651086373082850.0,1
410,-2.0,-4.0,-23.0,-13.0,-4.0,1.0,0.0,0.0,1651086373089225.0,1
411,1.0,0.0,-3.0,10.0,-1.0,-4.0,-1.0,0.0,1651086373089225.0,1
412,-1.0,1.0,3.0,0.0,1.0,0.0,0.0,1.0,1651086373105351.0,1
413,1.0,-5.0,-6.0,-5.0,-9.0,-5.0,-2.0,-1.0,1651086373105351.0,1
414,-3.0,-4.0,-7.0,-16.0,-5.0,-1.0,1.0,-2.0,1651086373107231.0,1
415,-1.0,0.0,19.0,25.0,11.0,2.0,-2.0,-1.0,1651086373107231.0,1
416,0.0,1.0,-7.0,-1.0,-2.0,-1.0,-1.0,-1.0,1651086373119206.0,1
417,0.0,0.0,10.0,8.0,1.0,1.0,2.0,1.0,1651086373119206.0,1
418,0.0,0.0,3.0,-9.0,-8.0,0.0,1.0,8.0,1651086373128218.0,1
419,0.0,0.0,-16.0,-10.0,-1.0,-4.0,-9.0,-25.0,1651086373128218.0,1
420,-2.0,-2.0,7.0,4.0,3.0,-1.0,1.0,8.0,1651086373143212.0,1
421,1.0,2.0,15.0,9.0,0.0,0.0,2.0,8.0,1651086373143212.0,1
422,0.0,0.0,-20.0,-3.0,-1.0,-4.0,-1.0,-1.0,1651086373144247.0,1
423,0.0,-1.0,-8.0,-10.0,-2.0,-1.0,1.0,-8.0,1651086373144247.0,1
424,1.0,1.0,11.0,4.0,3.0,-1.0,7.0,25.0,1651086373165986.0,1
425,-2.0,0.0,-7.0,-8.0,-6.0,1.0,-15.0,-36.0,1651086373165986.0,1
426,-2.0,0.0,23.0,14.0,5.0,0.0,4.0,15.0,1651086373166888.0,1
427,0.0,-3.0,-18.0,-9.0,-3.0,-2.0,3.0,7.0,1651086373166888.0,1
428,0.0,0.0,16.0,13.0,-4.0,0.0,-6.0,-12.0,1651086373179508.0,1
429,0.0,1.0,-2.0,1.0,3.0,-1.0,3.0,8.0,1651086373179508.0,1
430,-1.0,3.0,1.0,1.0,0.0,0.0,-1.0,-7.0,1651086373187854.0,1
431,-4.0,-7.0,1.0,-17.0,-5.0,-2.0,-3.0,0.0,1651086373187854.0,1
432,1.0,3.0,-6.0,3.0,-2.0,0.0,3.0,0.0,1651086373202278.0,1
433,-3.0,-5.0,0.0,-26.0,-5.0,-3.0,-1.0,3.0,1651086373202278.0,1
434,0.0,-1.0,-3.0,15.0,6.0,-1.0,-4.0,-9.0,1651086373209470.0,1
435,0.0,0.0,7.0,-4.0,-1.0,1.0,4.0,7.0,1651086373209470.0,1
436,0.0,-4.0,-18.0,-12.0,-5.0,-1.0,-5.0,-6.0,1651086373226383.0,1
437,1.0,3.0,14.0,8.0,6.0,2.0,1.0,4.0,1651086373226383.0,1
438,-1.0,-4.0,-25.0,10.0,-1.0,-1.0,-1.0,-4.0,1651086373227258.0,1
439,-1.0,1.0,17.0,-3.0,-3.0,0.0,1.0,3.0,1651086373227258.0,1
440,-1.0,-4.0,-13.0,0.0,1.0,0.0,0.0,-5.0,1651086373247405.0,1
441,1.0,-1.0,-13.0,-11.0,8.0,1.0,1.0,1.0,1651086373247405.0,1
442,3.0,4.0,12.0,-1.0,-1.0,1.0,0.0,1.0,1651086373255303.0,1
443,0.0,-2.0,-13.0,-2.0,0.0,0.0,-2.0,1.0,1651086373255303.0,1
444,-2.0,-1.0,-10.0,4.0,1.0,-1.0,-3.0,-6.0,1651086373262165.0,1
445,-1.0,0.0,1.0,3.0,-1.0,1.0,4.0,5.0,1651086373262165.0,1
446,-1.0,3.0,20.0,15.0,0.0,-3.0,-4.0,-2.0,1651086373269145.0,1
447,0.0,-2.0,-15.0,-16.0,0.0,1.0,0.0,2.0,1651086373269145.0,1
448,-1.0,0.0,1.0,4.0,3.0,1.0,-1.0,-2.0,1651086373287340.0,1
449,-1.0,-3.0,-4.0,-2.0,-3.0,-1.0,-1.0,1.0,1651086373287340.0,1
450,2.0,1.0,21.0,-6.0,-2.0,0.0,-1.0,-1.0,1651086373288339.0,1
451,-1.0,-3.0,-21.0,7.0,0.0,1.0,1.0,0.0,1651086373288339.0,1
452,-1.0,0.0,16.0,0.0,0.0,-2.0,-1.0,-1.0,1651086373308303.0,1
453,1.0,-1.0,-11.0,-7.0,-4.0,-2.0,0.0,2.0,1651086373308303.0,1
454,-2.0,0.0,19.0,15.0,2.0,2.0,2.0,-2.0,1651086373309210.0,1
455,-1.0,-3.0,-15.0,-10.0,-5.0,-3.0,-3.0,0.0,1651086373309210.0,1
456,-1.0,-1.0,7.0,6.0,4.0,3.0,0.0,-1.0,1651086373323315.0,1
457,-1.0,-2.0,-5.0,4.0,-1.0,-1.0,1.0,0.0,1651086373323315.0,1
458,0.0,-4.0,1.0,-14.0,-7.0,0.0,-1.0,-3.0,1651086373329177.0,1
459,0.0,4.0,14.0,11.0,-1.0,-1.0,-4.0,0.0,1651086373329177.0,1
460,1.0,-2.0,-20.0,-3.0,7.0,3.0,2.0,0.0,1651086373345195.0,1
461,1.0,-3.0,10.0,-3.0,-5.0,-3.0,-3.0,-1.0,1651086373345195.0,1
462,-1.0,-1.0,-8.0,9.0,3.0,0.0,2.0,5.0,1651086373347221.0,1
463,-1.0,-1.0,5.0,-4.0,-2.0,-3.0,-6.0,-10.0,1651086373347221.0,1
464,0.0,-3.0,-5.0,4.0,-6.0,-4.0,-1.0,3.0,1651086373368321.0,1
465,-1.0,0.0,15.0,9.0,5.0,0.0,1.0,0.0,1651086373368321.0,1
466,0.0,2.0,0.0,-3.0,0.0,1.0,0.0,-1.0,1651086373369322.0,1
467,-2.0,-1.0,-8.0,-1.0,-1.0,-3.0,0.0,2.0,1651086373369322.0,1
468,-1.0,1.0,14.0,-4.0,-1.0,-1.0,0.0,-2.0,1651086373382657.0,1
469,0.0,-1.0,-28.0,-8.0,-4.0,0.0,0.0,-1.0,1651086373382657.0,1
470,-1.0,-1.0,7.0,0.0,-6.0,-4.0,-2.0,-1.0,1651086373391149.0,1
471,1.0,5.0,-1.0,10.0,4.0,1.0,2.0,3.0,1651086373391149.0,1
472,-1.0,-3.0,4.0,-5.0,0.0,-1.0,0.0,-4.0,1651086373406462.0,1
473,-2.0,0.0,-4.0,-1.0,-1.0,-1.0,-1.0,2.0,1651086373406462.0,1
474,-1.0,-1.0,4.0,-3.0,-1.0,-2.0,-2.0,-2.0,1651086373407367.0,1
475,-1.0,-3.0,7.0,-2.0,-5.0,-4.0,-2.0,1.0,1651086373407367.0,1
476,0.0,-1.0,-21.0,-15.0,-3.0,-1.0,-1.0,-1.0,1651086373428345.0,1
477,-2.0,0.0,12.0,11.0,2.0,-2.0,-2.0,0.0,1651086373428345.0,1
478,2.0,2.0,8.0,-3.0,2.0,2.0,0.0,1.0,1651086373429345.0,1
479,-2.0,-2.0,-9.0,-14.0,-1.0,1.0,2.0,0.0,1651086373429345.0,1
480,-1.0,2.0,12.0,5.0,-5.0,0.0,-1.0,0.0,1651086373443136.0,1
481,0.0,0.0,4.0,3.0,-3.0,0.0,0.0,-1.0,1651086373443136.0,1
482,0.0,0.0,-12.0,-6.0,0.0,0.0,0.0,-1.0,1651086373449192.0,1
483,-3.0,-1.0,2.0,4.0,2.0,3.0,1.0,3.0,1651086373449192.0,1
484,-1.0,0.0,5.0,6.0,5.0,3.0,1.0,-3.0,1651086373465441.0,1
485,-1.0,-2.0,-3.0,-9.0,-2.0,-2.0,-1.0,-1.0,1651086373465441.0,1
486,0.0,0.0,-5.0,-8.0,-2.0,-2.0,1.0,6.0,1651086373471312.0,1
487,2.0,1.0,-9.0,3.0,-3.0,-3.0,-5.0,-11.0,1651086373471312.0,1
488,-1.0,1.0,-9.0,-5.0,-4.0,-2.0,0.0,4.0,1651086373488424.0,1
489,-3.0,0.0,9.0,11.0,5.0,0.0,-2.0,-1.0,1651086373488424.0,1
490,-3.0,-3.0,-17.0,-11.0,1.0,0.0,-1.0,-2.0,1651086373489104.0,1
491,3.0,2.0,9.0,7.0,2.0,0.0,3.0,5.0,1651086373489104.0,1
492,1.0,0.0,9.0,-8.0,-5.0,-2.0,-1.0,-2.0,1651086373502096.0,1
493,-2.0,-2.0,-27.0,8.0,3.0,0.0,0.0,-1.0,1651086373502096.0,1
494,-2.0,-5.0,1.0,-9.0,-8.0,-2.0,-2.0,-2.0,1651086373510269.0,1
495,-1.0,0.0,-5.0,-8.0,-3.0,-1.0,0.0,2.0,1651086373510269.0,1
496,0.0,3.0,7.0,-1.0,0.0,0.0,0.0,0.0,1651086373525295.0,1
497,0.0,2.0,10.0,12.0,4.0,1.0,0.0,0.0,1651086373525295.0,1
498,1.0,0.0,3.0,0.0,-2.0,2.0,-1.0,-1.0,1651086373532047.0,1
499,0.0,-2.0,-14.0,-6.0,0.0,3.0,3.0,2.0,1651086373532047.0,1
500,1.0,0.0,4.0,0.0,-7.0,-3.0,-1.0,0.0,1651086373548397.0,1
501,-2.0,-2.0,-13.0,-1.0,8.0,0.0,-2.0,-6.0,1651086373548397.0,1
502,-1.0,-1.0,-6.0,-1.0,1.0,-2.0,-2.0,4.0,1651086373549075.0,1
503,-1.0,1.0,7.0,6.0,2.0,2.0,0.0,0.0,1651086373549075.0,1
504,0.0,-1.0,-6.0,1.0,6.0,1.0,1.0,0.0,1651086373561305.0,1
505,1.0,0.0,-2.0,-19.0,-7.0,0.0,5.0,7.0,1651086373561305.0,1
506,0.0,-3.0,12.0,6.0,-4.0,-3.0,-7.0,-14.0,1651086373570248.0,1
507,-2.0,1.0,-6.0,9.0,5.0,-1.0,0.0,5.0,1651086373570248.0,1
508,0.0,1.0,-2.0,6.0,4.0,2.0,-2.0,0.0,1651086373585202.0,1
509,3.0,-1.0,4.0,-6.0,-5.0,-1.0,1.0,3.0,1651086373585202.0,1
510,-8.0,-3.0,-1.0,4.0,3.0,0.0,1.0,-5.0,1651086373587230.0,1
511,2.0,0.0,16.0,-12.0,4.0,1.0,1.0,-1.0,1651086373587230.0,1
512,-1.0,0.0,-1.0,11.0,-2.0,-4.0,-3.0,-3.0,1651086373608445.0,1
513,-1.0,0.0,-8.0,-2.0,-3.0,-2.0,-1.0,-1.0,1651086373608445.0,1
514,1.0,-3.0,-18.0,-7.0,-2.0,-1.0,0.0,1.0,1651086373609104.0,1
515,-2.0,0.0,19.0,7.0,0.0,-1.0,-1.0,-3.0,1651086373609104.0,1
516,-2.0,-1.0,9.0,1.0,2.0,1.0,2.0,1.0,1651086373622120.0,1
517,0.0,-1.0,-1.0,-1.0,1.0,3.0,3.0,0.0,1651086373622120.0,1
518,0.0,0.0,-5.0,-8.0,-3.0,-5.0,-6.0,-1.0,1651086373631098.0,1
519,-1.0,-2.0,0.0,6.0,-5.0,0.0,-2.0,-1.0,1651086373631098.0,1
520,0.0,-1.0,6.0,-4.0,2.0,-1.0,2.0,-1.0,1651086373645197.0,1
521,1.0,1.0,-2.0,0.0,-1.0,1.0,0.0,-1.0,1651086373645197.0,1
522,-1.0,3.0,12.0,10.0,5.0,3.0,3.0,1.0,1651086373647217.0,1
523,-2.0,-3.0,0.0,-3.0,-5.0,-2.0,0.0,1.0,1651086373647217.0,1
524,-1.0,-2.0,-12.0,-19.0,-4.0,-4.0,-2.0,-5.0,1651086373668465.0,1
525,-3.0,-1.0,0.0,12.0,-3.0,-2.0,-2.0,-1.0,1651086373668465.0,1
526,-1.0,-1.0,-6.0,-1.0,-2.0,0.0,0.0,-1.0,1651086373669424.0,1
527,6.0,-1.0,3.0,3.0,6.0,3.0,0.0,-1.0,1651086373669424.0,1
528,-2.0,-3.0,-6.0,-13.0,-7.0,-4.0,0.0,1.0,1651086373681408.0,1
529,0.0,1.0,1.0,-6.0,1.0,0.0,-1.0,-2.0,1651086373681408.0,1
530,-1.0,0.0,-21.0,-8.0,-4.0,-2.0,1.0,-1.0,1651086373690307.0,1
531,-3.0,1.0,11.0,8.0,-3.0,0.0,0.0,3.0,1651086373690307.0,1
532,2.0,-2.0,-7.0,1.0,-2.0,1.0,-2.0,1.0,1651086373705345.0,1
533,-2.0,-3.0,-13.0,-16.0,-3.0,-1.0,-2.0,-1.0,1651086373705345.0,1
534,-2.0,-1.0,11.0,-1.0,0.0,-2.0,-2.0,1.0,1651086373707232.0,1
535,0.0,0.0,-3.0,-1.0,-2.0,-1.0,0.0,0.0,1651086373707232.0,1
536,-1.0,-1.0,-6.0,3.0,2.0,0.0,-2.0,-1.0,1651086373728194.0,1
537,-1.0,-2.0,16.0,2.0,-2.0,-1.0,-1.0,-1.0,1651086373728194.0,1
538,1.0,0.0,1.0,7.0,2.0,2.0,2.0,0.0,1651086373729225.0,1
539,-2.0,-2.0,-13.0,-1.0,-1.0,2.0,0.0,-1.0,1651086373729225.0,1
540,-2.0,2.0,12.0,7.0,-2.0,-1.0,-2.0,-2.0,1651086373742072.0,1
541,-2.0,0.0,0.0,-6.0,-3.0,-1.0,-2.0,4.0,1651086373742072.0,1
542,-2.0,-1.0,14.0,8.0,0.0,-2.0,-3.0,-10.0,1651086373751214.0,1
543,-1.0,-2.0,-29.0,-14.0,-6.0,-3.0,-2.0,6.0,1651086373751214.0,1
544,-1.0,2.0,20.0,12.0,7.0,4.0,1.0,1.0,1651086373765342.0,1
545,2.0,-1.0,-31.0,-1.0,3.0,1.0,1.0,-1.0,1651086373765342.0,1
546,3.0,-1.0,5.0,-4.0,-1.0,-1.0,2.0,3.0,1651086373767190.0,1
547,-3.0,0.0,9.0,1.0,-2.0,-2.0,-3.0,-7.0,1651086373767190.0,1
548,4.0,-3.0,-5.0,-11.0,-3.0,-1.0,1.0,0.0,1651086373788421.0,1
549,-4.0,0.0,-4.0,1.0,3.0,2.0,3.0,1.0,1651086373788421.0,1
550,-1.0,0.0,-9.0,-1.0,0.0,2.0,-1.0,1.0,1651086373789119.0,1
551,-1.0,1.0,7.0,-4.0,-1.0,-4.0,-1.0,-1.0,1651086373789119.0,1
552,-1.0,-2.0,-15.0,-9.0,-4.0,-2.0,2.0,-1.0,1651086373801366.0,1
553,2.0,2.0,2.0,-3.0,-3.0,-3.0,-3.0,-1.0,1651086373801366.0,1
554,-2.0,0.0,12.0,3.0,-1.0,0.0,2.0,1.0,1651086373810760.0,1
555,1.0,1.0,-6.0,-6.0,0.0,-1.0,-2.0,-1.0,1651086373810760.0,1
556,-1.0,1.0,-9.0,11.0,2.0,-2.0,-2.0,-1.0,1651086373826346.0,1
557,-1.0,-1.0,4.0,-3.0,-3.0,-2.0,-1.0,-2.0,1651086373826346.0,1
558,1.0,1.0,9.0,12.0,1.0,0.0,1.0,1.0,1651086373827187.0,1
559,-2.0,-2.0,-4.0,-6.0,-3.0,1.0,0.0,-2.0,1651086373827187.0,1
560,1.0,-1.0,-14.0,-7.0,2.0,2.0,-1.0,0.0,1651086373848498.0,1
561,0.0,-2.0,-2.0,-1.0,1.0,1.0,-2.0,4.0,1651086373848498.0,1
562,-5.0,0.0,-2.0,-3.0,-3.0,-1.0,-1.0,0.0,1651086373849074.0,1
563,4.0,-1.0,7.0,1.0,-1.0,-2.0,1.0,-3.0,1651086373849074.0,1
564,-2.0,-1.0,4.0,2.0,1.0,3.0,3.0,1.0,1651086373861281.0,1
565,-1.0,1.0,13.0,2.0,-1.0,-4.0,-4.0,-6.0,1651086373861281.0,1
566,-2.0,-2.0,-21.0,-3.0,5.0,0.0,0.0,-1.0,1651086373870397.0,1
567,-1.0,-4.0,10.0,-15.0,-6.0,-3.0,-2.0,1.0,1651086373870397.0,1
568,-2.0,1.0,-5.0,2.0,0.0,1.0,-1.0,-3.0,1651086373886367.0,1
569,1.0,-1.0,2.0,-23.0,-4.0,-1.0,0.0,1.0,1651086373886367.0,1
570,-1.0,0.0,17.0,36.0,3.0,-3.0,-3.0,-2.0,1651086373887259.0,1
571,0.0,2.0,7.0,5.0,3.0,-1.0,0.0,-1.0,1651086373887259.0,1
572,-1.0,-1.0,1.0,1.0,0.0,2.0,1.0,1.0,1651086373908480.0,1
573,-1.0,-8.0,15.0,6.0,-3.0,-2.0,-2.0,-2.0,1651086373908480.0,1
574,1.0,1.0,-2.0,-7.0,5.0,2.0,1.0,1.0,1651086373909072.0,1
575,-1.0,-2.0,-19.0,-4.0,6.0,4.0,1.0,-3.0,1651086373909072.0,1
576,-2.0,0.0,0.0,5.0,-4.0,-5.0,-3.0,0.0,1651086373922361.0,1
577,-2.0,0.0,-12.0,-1.0,-1.0,-3.0,1.0,-2.0,1651086373922361.0,1
578,1.0,-1.0,1.0,0.0,-2.0,2.0,2.0,1.0,1651086373937208.0,1
579,-4.0,0.0,2.0,11.0,2.0,2.0,3.0,2.0,1651086373937208.0,1
580,3.0,-1.0,2.0,-7.0,-2.0,-3.0,-4.0,-3.0,1651086373945036.0,1
581,-1.0,0.0,-5.0,-4.0,0.0,1.0,0.0,-4.0,1651086373945036.0,1
582,4.0,-3.0,-8.0,-14.0,-5.0,-6.0,-1.0,7.0,1651086373947030.0,1
583,-1.0,4.0,22.0,9.0,0.0,1.0,1.0,2.0,1651086373947030.0,1
584,-1.0,-3.0,-25.0,-8.0,-4.0,-4.0,-4.0,-2.0,1651086373967438.0,1
585,-3.0,-1.0,1.0,13.0,-1.0,-3.0,-2.0,-1.0,1651086373967438.0,1
586,0.0,4.0,13.0,3.0,1.0,2.0,0.0,-1.0,1651086373969436.0,1
587,0.0,-8.0,-35.0,-22.0,-3.0,-1.0,-2.0,-2.0,1651086373969436.0,1
588,-1.0,2.0,32.0,11.0,0.0,-2.0,0.0,0.0,1651086373982531.0,1
589,-1.0,3.0,6.0,0.0,-3.0,-1.0,0.0,-3.0,1651086373982531.0,1
590,-2.0,-4.0,-7.0,9.0,4.0,1.0,-1.0,0.0,1651086373990408.0,1
591,0.0,3.0,-1.0,-21.0,-8.0,-4.0,-3.0,0.0,1651086373990408.0,1
592,-1.0,-2.0,-19.0,-4.0,0.0,1.0,2.0,-3.0,1651086374006391.0,1
593,2.0,0.0,3.0,18.0,1.0,0.0,-1.0,3.0,1651086374006391.0,1
594,-5.0,4.0,18.0,-4.0,-1.0,3.0,2.0,-1.0,1651086374007259.0,1
595,-3.0,-2.0,10.0,20.0,2.0,-1.0,-2.0,-4.0,1651086374007259.0,1
596,4.0,-1.0,-1.0,1.0,4.0,2.0,3.0,2.0,1651086374036376.0,1
597,0.0,1.0,3.0,-10.0,1.0,5.0,3.0,0.0,1651086374036376.0,1
598,2.0,-4.0,-23.0,-6.0,-6.0,-1.0,1.0,5.0,1651086374037244.0,1
599,0.0,2.0,-2.0,3.0,8.0,2.0,-3.0,-6.0,1651086374037244.0,1
600,-3.0,-2.0,5.0,3.0,-3.0,0.0,0.0,1.0,1651086374041244.0,1
601,0.0,3.0,16.0,4.0,-2.0,0.0,0.0,-1.0,1651086374041244.0,1
602,-1.0,-6.0,-8.0,-24.0,-6.0,-5.0,-5.0,-1.0,1651086374051069.0,1
603,-3.0,-1.0,4.0,20.0,4.0,1.0,0.0,-1.0,1651086374051069.0,1
604,2.0,1.0,8.0,7.0,0.0,-2.0,-3.0,1.0,1651086374066433.0,1
605,1.0,0.0,-16.0,-17.0,-2.0,-2.0,2.0,3.0,1651086374066433.0,1
606,-2.0,-2.0,3.0,1.0,-5.0,1.0,-1.0,-5.0,1651086374067277.0,1
607,-1.0,-1.0,5.0,-5.0,-3.0,-4.0,-2.0,0.0,1651086374067277.0,1
608,-2.0,3.0,-2.0,-3.0,1.0,1.0,2.0,1.0,1651086374088449.0,1
609,-1.0,-7.0,-7.0,1.0,-2.0,1.0,-2.0,-1.0,1651086374088449.0,1
610,-1.0,-18.0,-11.0,-11.0,-9.0,-5.0,-5.0,-3.0,1651086374090453.0,1
611,2.0,23.0,24.0,8.0,6.0,2.0,0.0,-1.0,1651086374090453.0,1
612,-1.0,-3.0,11.0,9.0,2.0,1.0,-1.0,3.0,1651086374102150.0,1
613,-3.0,-4.0,-19.0,-10.0,-11.0,-4.0,-2.0,-2.0,1651086374102150.0,1
614,2.0,4.0,-3.0,7.0,10.0,3.0,3.0,0.0,1651086374111388.0,1
615,-1.0,-13.0,-22.0,-18.0,-7.0,0.0,0.0,2.0,1651086374111388.0,1
616,-2.0,0.0,21.0,19.0,2.0,-2.0,-1.0,-3.0,1651086374126371.0,1
617,0.0,1.0,3.0,-3.0,-2.0,-2.0,-1.0,0.0,1651086374126371.0,1
618,-1.0,2.0,-5.0,-3.0,0.0,1.0,0.0,-1.0,1651086374127250.0,1
619,1.0,-2.0,-10.0,-6.0,-5.0,-2.0,0.0,0.0,1651086374127250.0,1
620,-2.0,2.0,-6.0,-7.0,-1.0,0.0,-2.0,-1.0,1651086374148095.0,1
621,-3.0,-4.0,1.0,6.0,2.0,-1.0,-1.0,2.0,1651086374148095.0,1
622,1.0,6.0,2.0,2.0,3.0,2.0,1.0,-1.0,1651086374149074.0,1
623,0.0,0.0,1.0,0.0,0.0,-1.0,3.0,8.0,1651086374149074.0,1
624,-1.0,-6.0,-7.0,-9.0,-3.0,-2.0,-5.0,-13.0,1651086374161241.0,1
625,-3.0,-3.0,5.0,9.0,4.0,0.0,0.0,2.0,1651086374161241.0,1
626,-3.0,2.0,-5.0,-7.0,-2.0,0.0,0.0,-3.0,1651086374170289.0,1
627,3.0,-3.0,-5.0,2.0,-4.0,-1.0,0.0,0.0,1651086374170289.0,1
628,-1.0,-2.0,-4.0,-4.0,0.0,-1.0,1.0,2.0,1651086374185215.0,1
629,-1.0,15.0,8.0,2.0,4.0,2.0,2.0,0.0,1651086374185215.0,1
630,-2.0,-22.0,3.0,-1.0,-3.0,-1.0,-2.0,0.0,1651086374187244.0,1
631,0.0,14.0,-3.0,3.0,-1.0,-1.0,-1.0,-2.0,1651086374187244.0,1
632,-12.0,-1.0,0.0,2.0,2.0,1.0,1.0,-2.0,1651086374209148.0,1
633,14.0,21.0,16.0,0.0,-1.0,0.0,-1.0,21.0,1651086374209148.0,1
634,-16.0,-9.0,-7.0,1.0,1.0,2.0,-1.0,-27.0,1651086374209148.0,1
635,10.0,-7.0,-3.0,0.0,-4.0,-3.0,-2.0,2.0,1651086374209148.0,1
636,-1.0,-8.0,-7.0,-10.0,1.0,4.0,3.0,9.0,1651086374231521.0,1
637,-6.0,-4.0,3.0,4.0,-3.0,-4.0,-3.0,-7.0,1651086374231521.0,1
638,8.0,6.0,-6.0,-9.0,-4.0,-4.0,-2.0,15.0,1651086374231521.0,1
639,-7.0,-5.0,-3.0,7.0,2.0,-1.0,0.0,-6.0,1651086374231521.0,1
640,0.0,-10.0,-1.0,-1.0,3.0,2.0,0.0,-7.0,1651086374244386.0,1
641,-1.0,21.0,4.0,1.0,4.0,0.0,2.0,-1.0,1651086374244386.0,1
642,0.0,-5.0,-1.0,-1.0,2.0,2.0,-1.0,-1.0,1651086374253094.0,1
643,9.0,5.0,2.0,3.0,2.0,1.0,1.0,7.0,1651086374253094.0,1
644,1.0,1.0,-5.0,-5.0,-3.0,0.0,-1.0,5.0,1651086374268217.0,1
645,-3.0,-14.0,-4.0,-1.0,-1.0,-2.0,-1.0,-8.0,1651086374268217.0,1
646,2.0,10.0,-2.0,-2.0,-3.0,-4.0,-1.0,-2.0,1651086374282397.0,1
647,1.0,-4.0,1.0,0.0,-2.0,2.0,1.0,3.0,1651086374282397.0,1
648,0.0,1.0,1.0,-3.0,0.0,0.0,0.0,-3.0,1651086374291082.0,1
649,0.0,-7.0,-3.0,0.0,0.0,1.0,0.0,0.0,1651086374291082.0,1
650,1.0,2.0,-4.0,2.0,1.0,0.0,-1.0,1.0,1651086374292184.0,1
651,-8.0,-3.0,1.0,-2.0,0.0,-3.0,-1.0,-3.0,1651086374292184.0,1
652,1.0,6.0,2.0,-1.0,-2.0,2.0,-1.0,-2.0,1651086374304403.0,1
653,-4.0,-6.0,-6.0,-1.0,0.0,-1.0,-3.0,-4.0,1651086374304403.0,1
654,4.0,-4.0,-1.0,-1.0,-1.0,-2.0,1.0,5.0,1651086374312949.0,1
655,-5.0,-3.0,4.0,0.0,-1.0,1.0,-1.0,-6.0,1651086374312949.0,1
656,2.0,-1.0,-20.0,-1.0,-2.0,-1.0,-3.0,1.0,1651086374328118.0,1
657,0.0,-7.0,6.0,-1.0,1.0,1.0,-1.0,-2.0,1651086374328118.0,1
658,1.0,11.0,-1.0,1.0,-1.0,-2.0,-1.0,1.0,1651086374329120.0,1
659,-3.0,-17.0,-8.0,-1.0,-3.0,-1.0,0.0,-3.0,1651086374329120.0,1
660,1.0,12.0,14.0,-1.0,-2.0,-2.0,0.0,2.0,1651086374350371.0,1
661,1.0,0.0,-6.0,0.0,1.0,0.0,-1.0,-3.0,1651086374350371.0,1
662,0.0,6.0,3.0,-2.0,-3.0,0.0,-1.0,-2.0,1651086374352370.0,1
663,-3.0,-2.0,1.0,0.0,-2.0,0.0,1.0,-1.0,1651086374352370.0,1
664,-1.0,-3.0,-3.0,1.0,0.0,-2.0,0.0,-1.0,1651086374364334.0,1
665,-3.0,-8.0,-5.0,0.0,0.0,1.0,1.0,-3.0,1651086374364334.0,1
666,0.0,2.0,2.0,0.0,0.0,-1.0,0.0,1.0,1651086374373102.0,1
667,0.0,0.0,2.0,-2.0,2.0,1.0,0.0,2.0,1651086374373102.0,1
668,-2.0,-4.0,-10.0,-1.0,-2.0,-3.0,-1.0,-1.0,1651086374388459.0,1
669,0.0,3.0,3.0,0.0,0.0,-1.0,0.0,0.0,1651086374388459.0,1
670,-1.0,-1.0,-1.0,2.0,3.0,3.0,1.0,0.0,1651086374389070.0,1
671,1.0,0.0,0.0,-2.0,-2.0,-1.0,-2.0,-1.0,1651086374389070.0,1
672,0.0,1.0,3.0,-1.0,-2.0,0.0,-3.0,-1.0,1651086374410952.0,1
673,-1.0,-5.0,-4.0,2.0,-1.0,-1.0,-2.0,-2.0,1651086374410952.0,1
674,-1.0,-2.0,-3.0,-1.0,-2.0,0.0,-1.0,2.0,1651086374411882.0,1
675,-1.0,2.0,2.0,-2.0,0.0,-1.0,1.0,-1.0,1651086374411882.0,1
676,0.0,0.0,4.0,0.0,0.0,-1.0,0.0,2.0,1651086374424340.0,1
677,0.0,-3.0,-4.0,-2.0,-2.0,-1.0,1.0,-1.0,1651086374424340.0,1
678,-2.0,0.0,2.0,3.0,2.0,2.0,2.0,1.0,1651086374433060.0,1
679,-1.0,4.0,-1.0,-1.0,-1.0,-2.0,-1.0,-3.0,1651086374433060.0,1
680,1.0,-2.0,1.0,-1.0,-1.0,-2.0,-1.0,-2.0,1651086374448410.0,1
681,-2.0,-2.0,-1.0,0.0,1.0,0.0,-1.0,0.0,1651086374448410.0,1
682,0.0,1.0,-2.0,0.0,-1.0,-2.0,0.0,-3.0,1651086374449103.0,1
683,0.0,0.0,-2.0,1.0,-2.0,-1.0,-1.0,0.0,1651086374449103.0,1
684,-2.0,-1.0,0.0,1.0,0.0,-1.0,0.0,0.0,1651086374470296.0,1
685,0.0,-2.0,-1.0,0.0,-1.0,-1.0,1.0,0.0,1651086374470296.0,1
686,0.0,1.0,-1.0,-1.0,-3.0,0.0,-2.0,0.0,1651086374472313.0,1
687,0.0,1.0,1.0,-2.0,-1.0,-1.0,-1.0,-2.0,1651086374472313.0,1
688,1.0,0.0,-1.0,3.0,1.0,-1.0,0.0,0.0,1651086374484236.0,1
689,0.0,-3.0,-1.0,-1.0,1.0,1.0,1.0,0.0,1651086374484236.0,1
690,-1.0,-1.0,0.0,-1.0,1.0,-1.0,-1.0,1.0,1651086374493104.0,1
691,-2.0,-3.0,-1.0,-2.0,-5.0,-3.0,-1.0,0.0,1651086374493104.0,1
692,-1.0,-1.0,-2.0,-2.0,-2.0,-2.0,-1.0,0.0,1651086374508413.0,1
693,-1.0,-2.0,-2.0,0.0,0.0,1.0,0.0,-1.0,1651086374508413.0,1
694,1.0,-3.0,-2.0,-2.0,0.0,0.0,-2.0,-1.0,1651086374509104.0,1
695,-2.0,-2.0,0.0,3.0,3.0,4.0,0.0,-1.0,1651086374509104.0,1
696,-1.0,-1.0,1.0,0.0,-2.0,-1.0,1.0,0.0,1651086374531287.0,1
697,0.0,-1.0,-3.0,-2.0,-4.0,-3.0,-3.0,-1.0,1651086374531287.0,1
698,1.0,-1.0,0.0,-3.0,-4.0,-2.0,-2.0,-2.0,1651086374532288.0,1
699,-1.0,0.0,0.0,1.0,5.0,2.0,0.0,0.0,1651086374532288.0,1
700,-1.0,0.0,0.0,1.0,2.0,2.0,0.0,-1.0,1651086374544382.0,1
701,-1.0,1.0,-1.0,-2.0,-1.0,-1.0,-1.0,-1.0,1651086374544382.0,1
702,-1.0,1.0,0.0,-2.0,-2.0,-3.0,0.0,0.0,1651086374553203.0,1
703,0.0,-1.0,-2.0,-3.0,-4.0,-2.0,-2.0,0.0,1651086374553203.0,1
704,1.0,-1.0,0.0,-1.0,-1.0,0.0,-1.0,0.0,1651086374568538.0,1
705,-1.0,0.0,0.0,0.0,-1.0,1.0,0.0,-1.0,1651086374568538.0,1
706,-1.0,0.0,0.0,0.0,2.0,0.0,1.0,-1.0,1651086374569539.0,1
707,-1.0,2.0,-2.0,2.0,-1.0,-1.0,1.0,-2.0,1651086374569539.0,1
708,-1.0,-1.0,-1.0,0.0,-3.0,-3.0,-1.0,-1.0,1651086374591377.0,1
709,1.0,-1.0,0.0,-1.0,-4.0,-1.0,-2.0,-2.0,1651086374591377.0,1
710,-1.0,0.0,-2.0,1.0,2.0,-1.0,-2.0,0.0,1651086374592230.0,1
711,0.0,-1.0,2.0,0.0,3.0,0.0,1.0,-2.0,1651086374592230.0,1
712,1.0,0.0,-2.0,-4.0,-2.0,-1.0,-1.0,2.0,1651086374604372.0,1
713,1.0,-1.0,-3.0,-1.0,-4.0,-4.0,-1.0,-3.0,1651086374604372.0,1
714,-2.0,-1.0,0.0,2.0,4.0,5.0,2.0,0.0,1651086374612926.0,1
715,0.0,-1.0,0.0,0.0,0.0,0.0,-1.0,-1.0,1651086374612926.0,1
716,-2.0,-1.0,-1.0,-3.0,-1.0,-3.0,-2.0,0.0,1651086374628209.0,1
717,0.0,-1.0,0.0,-1.0,-1.0,-1.0,-2.0,2.0,1651086374628209.0,1
718,0.0,0.0,0.0,0.0,-2.0,1.0,0.0,-2.0,1651086374629242.0,1
719,-2.0,1.0,-1.0,0.0,-4.0,-2.0,-2.0,0.0,1651086374629242.0,1
720,-1.0,0.0,1.0,0.0,-1.0,0.0,-1.0,-1.0,1651086374650349.0,1
721,-1.0,-2.0,0.0,1.0,0.0,1.0,1.0,-1.0,1651086374650349.0,1
722,-1.0,-1.0,1.0,-2.0,0.0,0.0,-1.0,-1.0,1651086374652229.0,1
723,-1.0,-1.0,0.0,-2.0,1.0,0.0,-1.0,-1.0,1651086374652229.0,1
724,0.0,0.0,0.0,-2.0,0.0,0.0,-1.0,-1.0,1651086374664345.0,1
725,-3.0,0.0,-1.0,0.0,1.0,-1.0,1.0,-1.0,1651086374664345.0,1
726,-1.0,-1.0,-2.0,0.0,-2.0,-1.0,-1.0,0.0,1651086374680617.0,1
727,1.0,-1.0,-1.0,-2.0,-4.0,-4.0,0.0,1.0,1651086374680617.0,1
728,0.0,0.0,-2.0,-1.0,0.0,-2.0,0.0,-2.0,1651086374688954.0,1
729,0.0,-1.0,0.0,-1.0,3.0,1.0,0.0,0.0,1651086374688954.0,1
730,-1.0,-3.0,0.0,2.0,1.0,1.0,1.0,-1.0,1651086374689103.0,1
731,0.0,0.0,-1.0,-2.0,-2.0,-1.0,1.0,-1.0,1651086374689103.0,1
732,-1.0,0.0,-1.0,1.0,-2.0,-1.0,-1.0,-1.0,1651086374711277.0,1
733,-3.0,1.0,1.0,2.0,3.0,1.0,2.0,0.0,1651086374711277.0,1
734,0.0,0.0,-1.0,-1.0,-3.0,-2.0,-1.0,-1.0,1651086374712278.0,1
735,-1.0,0.0,-2.0,-1.0,-2.0,-1.0,-1.0,-1.0,1651086374712278.0,1
736,-1.0,-1.0,-1.0,-1.0,-1.0,0.0,0.0,-1.0,1651086374725307.0,0
737,0.0,-1.0,0.0,2.0,1.0,2.0,-1.0,-1.0,1651086374725307.0,0
738,-2.0,1.0,0.0,-1.0,-2.0,-2.0,-2.0,0.0,1651086374733129.0,0
739,1.0,0.0,-2.0,-2.0,-2.0,-3.0,-1.0,0.0,1651086374733129.0,0
740,0.0,-2.0,0.0,0.0,-2.0,0.0,1.0,1.0,1651086374748945.0,0
741,0.0,0.0,1.0,-2.0,0.0,-1.0,-1.0,0.0,1651086374748945.0,0
742,0.0,-2.0,0.0,0.0,0.0,0.0,1.0,0.0,1651086374749071.0,0
743,0.0,-2.0,1.0,1.0,0.0,1.0,0.0,-3.0,1651086374749071.0,0
744,2.0,-1.0,-1.0,-1.0,-3.0,-1.0,-1.0,-2.0,1651086374771342.0,0
745,0.0,0.0,-2.0,-1.0,-3.0,-2.0,-2.0,-2.0,1651086374771342.0,0
746,-1.0,-2.0,1.0,-3.0,0.0,0.0,0.0,1.0,1651086374772238.0,0
747,-2.0,2.0,-1.0,-3.0,-1.0,-1.0,-3.0,-1.0,1651086374772238.0,0
748,-1.0,-1.0,-1.0,0.0,1.0,0.0,1.0,0.0,1651086374784225.0,0
749,0.0,-1.0,-1.0,1.0,2.0,1.0,0.0,-2.0,1651086374784225.0,0
750,0.0,-1.0,-3.0,-2.0,-4.0,-4.0,-1.0,1.0,1651086374800380.0,0
751,0.0,1.0,1.0,1.0,2.0,2.0,1.0,-2.0,1651086374800380.0,0
752,-1.0,2.0,1.0,0.0,0.0,0.0,-1.0,1.0,1651086374808546.0,0
753,-2.0,-1.0,-2.0,-1.0,-3.0,-2.0,-1.0,-1.0,1651086374808546.0,0
754,1.0,1.0,-2.0,-1.0,-3.0,-1.0,-2.0,-2.0,1651086374809070.0,0
755,1.0,-2.0,-1.0,1.0,-1.0,0.0,1.0,-1.0,1651086374809070.0,0
756,-2.0,0.0,-1.0,2.0,2.0,0.0,-2.0,-1.0,1651086374831247.0,0
757,-2.0,0.0,0.0,-2.0,-1.0,-2.0,-1.0,0.0,1651086374831247.0,0
758,-1.0,0.0,-1.0,-1.0,-1.0,0.0,-2.0,-1.0,1651086374832101.0,0
759,1.0,0.0,0.0,3.0,2.0,0.0,0.0,0.0,1651086374832101.0,0
760,-1.0,-1.0,0.0,-1.0,-1.0,0.0,0.0,-2.0,1651086374844217.0,0
761,-1.0,-1.0,0.0,-3.0,-2.0,-2.0,0.0,0.0,1651086374844217.0,0
762,-1.0,-3.0,-1.0,0.0,-3.0,0.0,1.0,-1.0,1651086374860498.0,0
763,-1.0,-2.0,0.0,-2.0,-3.0,-1.0,0.0,-2.0,1651086374860498.0,0
764,0.0,0.0,0.0,1.0,1.0,2.0,1.0,-2.0,1651086374868406.0,0
765,1.0,0.0,-1.0,-1.0,-3.0,-2.0,0.0,2.0,1651086374868406.0,0
766,0.0,2.0,-1.0,-4.0,-3.0,-4.0,-2.0,-1.0,1651086374869105.0,0
767,-2.0,-1.0,1.0,3.0,6.0,4.0,1.0,1.0,1651086374869105.0,0
768,1.0,0.0,0.0,-2.0,1.0,-1.0,-1.0,-1.0,1651086374891373.0,0
769,0.0,-1.0,-3.0,-3.0,-3.0,-2.0,-2.0,-1.0,1651086374891373.0,0
770,-2.0,0.0,2.0,1.0,2.0,1.0,0.0,-3.0,1651086374892222.0,0
771,-1.0,0.0,-2.0,-3.0,-5.0,-2.0,-1.0,2.0,1651086374892222.0,0
772,-1.0,0.0,-1.0,0.0,-1.0,-1.0,0.0,0.0,1651086374904366.0,0
773,-1.0,0.0,-1.0,-1.0,0.0,-1.0,-1.0,0.0,1651086374904366.0,0
774,0.0,-1.0,-3.0,-2.0,-1.0,-1.0,-1.0,0.0,1651086374918672.0,0
775,-1.0,0.0,-3.0,-4.0,-5.0,-3.0,-2.0,-1.0,1651086374918672.0,0
776,-2.0,-1.0,-1.0,0.0,-1.0,0.0,0.0,0.0,1651086374927685.0,0
777,-1.0,1.0,1.0,3.0,3.0,2.0,2.0,1.0,1651086374927685.0,0
778,-1.0,-1.0,2.0,2.0,1.0,1.0,1.0,1.0,1651086374929649.0,0
779,0.0,-1.0,-2.0,0.0,1.0,-2.0,-1.0,0.0,1651086374929649.0,0
780,0.0,0.0,-2.0,0.0,-2.0,-2.0,-1.0,-1.0,1651086374950969.0,0
781,2.0,0.0,-2.0,-1.0,-3.0,-1.0,-2.0,-2.0,1651086374950969.0,0
782,-2.0,1.0,0.0,-1.0,0.0,0.0,-1.0,-1.0,1651086374951816.0,0
783,-1.0,-3.0,0.0,-2.0,-4.0,-3.0,-1.0,0.0,1651086374951816.0,0
784,0.0,-2.0,-6.0,-5.0,-6.0,-4.0,-3.0,-1.0,1651086374964103.0,0
785,-3.0,-1.0,2.0,4.0,3.0,3.0,1.0,-3.0,1651086374964103.0,0
786,-2.0,-1.0,1.0,4.0,7.0,5.0,2.0,1.0,1651086374973242.0,0
787,-2.0,-1.0,-1.0,-1.0,-1.0,0.0,1.0,-2.0,1651086374973242.0,0
788,-1.0,-3.0,-1.0,-2.0,-1.0,-1.0,1.0,-1.0,1651086374988187.0,0
789,0.0,-2.0,-3.0,-2.0,-3.0,-4.0,-1.0,-1.0,1651086374988187.0,0
790,0.0,2.0,-2.0,-1.0,-3.0,-2.0,0.0,-2.0,1651086374989074.0,0
791,-2.0,0.0,0.0,0.0,-1.0,-1.0,-1.0,-2.0,1651086374989074.0,0
792,-1.0,-1.0,0.0,2.0,3.0,3.0,0.0,0.0,1651086375010216.0,0
793,-1.0,0.0,-1.0,2.0,3.0,2.0,0.0,0.0,1651086375010216.0,0
794,1.0,-1.0,0.0,-1.0,-1.0,0.0,-2.0,0.0,1651086375012064.0,0
795,-1.0,-1.0,-1.0,-2.0,-2.0,0.0,-2.0,0.0,1651086375012064.0,0
796,0.0,0.0,0.0,-1.0,-2.0,-2.0,-1.0,-2.0,1651086375024356.0,0
797,-1.0,0.0,-3.0,0.0,-1.0,1.0,-1.0,0.0,1651086375024356.0,0
798,0.0,0.0,-2.0,-2.0,-4.0,-4.0,-1.0,0.0,1651086375033091.0,0
799,-2.0,1.0,-3.0,2.0,1.0,1.0,0.0,-1.0,1651086375033091.0,0
800,-1.0,0.0,1.0,2.0,3.0,0.0,0.0,-2.0,1651086375048411.0,0
801,0.0,-2.0,0.0,0.0,0.0,0.0,1.0,0.0,1651086375048411.0,0
802,-1.0,-2.0,0.0,0.0,-2.0,0.0,0.0,-1.0,1651086375049093.0,0
803,-1.0,0.0,-2.0,0.0,-2.0,0.0,-1.0,1.0,1651086375049093.0,0
804,0.0,0.0,0.0,-1.0,-1.0,-1.0,-1.0,0.0,1651086375071514.0,0
805,0.0,-1.0,1.0,-3.0,-4.0,-1.0,-1.0,0.0,1651086375071514.0,0
806,-1.0,-2.0,-7.0,-2.0,-1.0,-2.0,-2.0,-1.0,1651086375072514.0,0
807,-1.0,0.0,2.0,6.0,9.0,5.0,2.0,0.0,1651086375072514.0,0
808,-1.0,1.0,1.0,0.0,1.0,0.0,-1.0,-1.0,1651086375083666.0,0
809,1.0,-1.0,-2.0,-1.0,-3.0,0.0,-1.0,0.0,1651086375083666.0,0
810,-2.0,1.0,0.0,0.0,-4.0,-1.0,-2.0,0.0,1651086375092641.0,0
811,0.0,-1.0,0.0,-2.0,-4.0,-4.0,-1.0,0.0,1651086375092641.0,0
812,-2.0,-1.0,-2.0,-1.0,-2.0,-1.0,-1.0,0.0,1651086375108895.0,0
813,0.0,1.0,-1.0,-5.0,-5.0,-4.0,-1.0,1.0,1651086375108895.0,0
814,-1.0,-1.0,1.0,4.0,5.0,3.0,-1.0,-2.0,1651086375109896.0,0
815,-1.0,0.0,1.0,4.0,5.0,2.0,1.0,0.0,1651086375109896.0,0
816,1.0,0.0,-1.0,0.0,-1.0,-1.0,0.0,0.0,1651086375131414.0,0
817,0.0,-1.0,0.0,-2.0,-2.0,-1.0,1.0,-2.0,1651086375131414.0,0
818,-1.0,-1.0,0.0,-4.0,-4.0,-2.0,0.0,0.0,1651086375132414.0,0
819,1.0,-1.0,-1.0,-5.0,-3.0,-2.0,1.0,-1.0,1651086375132414.0,0
820,-1.0,-3.0,2.0,0.0,1.0,0.0,0.0,-1.0,1651086375153208.0,0
821,-1.0,-2.0,-1.0,0.0,0.0,-2.0,-2.0,-2.0,1651086375153208.0,0
822,-2.0,-1.0,1.0,0.0,1.0,-1.0,-1.0,0.0,1651086375154209.0,0
823,0.0,-2.0,2.0,0.0,3.0,-1.0,-1.0,1.0,1651086375154209.0,0
824,-1.0,0.0,-4.0,-3.0,-3.0,1.0,0.0,0.0,1651086375168437.0,0
825,-2.0,0.0,1.0,0.0,1.0,1.0,-1.0,-1.0,1651086375168437.0,0
826,-1.0,-1.0,3.0,1.0,-1.0,1.0,2.0,-1.0,1651086375169109.0,0
827,-1.0,-1.0,-1.0,-4.0,-5.0,-4.0,-1.0,-1.0,1651086375169109.0,0
828,0.0,-1.0,-7.0,-4.0,-3.0,-4.0,-1.0,0.0,1651086375198521.0,0
829,0.0,0.0,-2.0,1.0,0.0,-2.0,-1.0,-2.0,1651086375198521.0,0
830,0.0,-1.0,-2.0,0.0,2.0,3.0,2.0,-1.0,1651086375199070.0,0
831,-2.0,-1.0,-1.0,-1.0,-1.0,1.0,0.0,-1.0,1651086375199070.0,0
832,0.0,0.0,1.0,3.0,0.0,1.0,-2.0,-2.0,1651086375213437.0,0
833,-1.0,-1.0,1.0,1.0,1.0,-2.0,1.0,0.0,1651086375213437.0,0
834,1.0,-1.0,-4.0,-3.0,-2.0,-3.0,-2.0,0.0,1651086375214275.0,0
835,0.0,3.0,3.0,-5.0,-6.0,-2.0,0.0,-1.0,1651086375214275.0,0
836,0.0,-3.0,-9.0,0.0,1.0,1.0,2.0,2.0,1651086375228276.0,0
837,1.0,1.0,0.0,2.0,2.0,0.0,-1.0,-1.0,1651086375228276.0,0
838,0.0,0.0,-1.0,-1.0,0.0,1.0,-2.0,0.0,1651086375229278.0,0
839,0.0,3.0,-1.0,0.0,0.0,0.0,-2.0,-1.0,1651086375229278.0,0
840,0.0,-4.0,3.0,-2.0,-3.0,-4.0,-1.0,-1.0,1651086375250401.0,0
841,-1.0,3.0,1.0,-5.0,0.0,-1.0,0.0,0.0,1651086375250401.0,0
842,-1.0,0.0,7.0,10.0,5.0,2.0,2.0,1.0,1651086375252233.0,0
843,0.0,-5.0,-9.0,-1.0,-1.0,-2.0,-2.0,-1.0,1651086375252233.0,0
844,-2.0,2.0,9.0,-1.0,1.0,-1.0,0.0,-3.0,1651086375273230.0,0
845,0.0,-2.0,-2.0,-1.0,-1.0,0.0,-1.0,1.0,1651086375273230.0,0
846,-1.0,-2.0,0.0,-5.0,-3.0,-3.0,-1.0,-1.0,1651086375274261.0,0
847,-1.0,7.0,-5.0,-1.0,-2.0,0.0,0.0,0.0,1651086375274261.0,0
848,0.0,0.0,-2.0,1.0,-1.0,-1.0,-1.0,0.0,1651086375288366.0,0
849,-1.0,-1.0,-1.0,-1.0,-2.0,0.0,-1.0,-1.0,1651086375288366.0,0
850,0.0,1.0,1.0,-3.0,-3.0,-2.0,0.0,-1.0,1651086375294393.0,0
851,-1.0,-5.0,0.0,-1.0,-1.0,-2.0,0.0,-2.0,1651086375294393.0,0
852,-1.0,0.0,-5.0,0.0,0.0,1.0,1.0,-1.0,1651086375311329.0,0
853,-1.0,-16.0,1.0,1.0,1.0,2.0,1.0,0.0,1651086375311329.0,0
854,1.0,9.0,-3.0,-1.0,-1.0,-1.0,-2.0,-1.0,1651086375312259.0,0
855,-2.0,9.0,5.0,-2.0,-8.0,-2.0,-1.0,-2.0,1651086375312259.0,0
856,-3.0,-10.0,0.0,-11.0,0.0,-1.0,-2.0,-1.0,1651086375333230.0,0
857,1.0,2.0,-6.0,3.0,12.0,5.0,0.0,0.0,1651086375333230.0,0
858,-2.0,-6.0,-4.0,1.0,3.0,-1.0,-1.0,-1.0,1651086375334232.0,0
859,0.0,-5.0,4.0,9.0,6.0,0.0,1.0,1.0,1651086375334232.0,0
860,1.0,8.0,1.0,0.0,-11.0,-7.0,-1.0,-2.0,1651086375347802.0,0
861,0.0,-11.0,-1.0,-6.0,-5.0,0.0,-1.0,-2.0,1651086375347802.0,0
862,0.0,-1.0,-2.0,-13.0,-12.0,-7.0,-1.0,-1.0,1651086375353788.0,0
863,-1.0,1.0,4.0,4.0,3.0,3.0,1.0,-2.0,1651086375353788.0,0
864,1.0,0.0,0.0,7.0,10.0,7.0,1.0,1.0,1651086375370924.0,0
865,-1.0,5.0,2.0,-3.0,-3.0,-4.0,-4.0,0.0,1651086375370924.0,0
866,2.0,-12.0,-5.0,-6.0,-8.0,-2.0,0.0,1.0,1651086375371883.0,0
867,-1.0,-8.0,3.0,-9.0,-7.0,-8.0,-2.0,-2.0,1651086375371883.0,0
868,1.0,16.0,1.0,3.0,12.0,6.0,3.0,1.0,1651086375393330.0,2
869,-3.0,-6.0,-10.0,-1.0,-3.0,-3.0,0.0,-1.0,1651086375393330.0,2
870,-1.0,4.0,-1.0,-4.0,-3.0,-1.0,-1.0,-2.0,1651086375394326.0,2
871,-1.0,-6.0,-3.0,2.0,-3.0,-2.0,-1.0,0.0,1651086375394326.0,2
872,1.0,-6.0,-2.0,0.0,-9.0,-6.0,-2.0,-2.0,1651086375408315.0,2
873,0.0,-2.0,-3.0,-4.0,1.0,-1.0,-1.0,-1.0,1651086375408315.0,2
874,-1.0,3.0,2.0,-7.0,-14.0,-5.0,-2.0,0.0,1651086375414745.0,2
875,1.0,-1.0,1.0,12.0,23.0,11.0,2.0,2.0,1651086375414745.0,2
876,-1.0,-2.0,2.0,-9.0,-8.0,-2.0,-1.0,-1.0,1651086375431045.0,2
877,0.0,1.0,0.0,9.0,3.0,-6.0,-1.0,-1.0,1651086375431045.0,2
878,0.0,-4.0,-2.0,3.0,8.0,5.0,1.0,-2.0,1651086375432045.0,2
879,0.0,4.0,6.0,2.0,-3.0,-1.0,0.0,0.0,1651086375432045.0,2
880,-3.0,-1.0,-7.0,-1.0,0.0,-1.0,-1.0,-1.0,1651086375453217.0,2
881,-2.0,8.0,4.0,1.0,4.0,4.0,1.0,-2.0,1651086375453217.0,2
882,0.0,1.0,-2.0,4.0,19.0,0.0,1.0,-1.0,1651086375454249.0,2
883,-1.0,4.0,-4.0,-6.0,-7.0,-2.0,-3.0,-1.0,1651086375454249.0,2
884,0.0,-12.0,-2.0,-3.0,-7.0,-4.0,-2.0,0.0,1651086375468141.0,2
885,0.0,3.0,-8.0,2.0,6.0,2.0,2.0,0.0,1651086375468141.0,2
886,-2.0,8.0,9.0,4.0,-10.0,-2.0,-1.0,-2.0,1651086375476232.0,2
887,1.0,-5.0,-13.0,3.0,24.0,12.0,6.0,2.0,1651086375476232.0,2
888,-1.0,-3.0,-4.0,-12.0,-19.0,-9.0,-6.0,-2.0,1651086375491185.0,2
889,-1.0,0.0,3.0,-16.0,-26.0,-10.0,-2.0,-1.0,1651086375491185.0,2
890,0.0,-5.0,3.0,17.0,27.0,11.0,3.0,2.0,1651086375492043.0,2
891,-3.0,-7.0,-3.0,4.0,-24.0,-10.0,-3.0,-3.0,1651086375492043.0,2
892,-2.0,10.0,0.0,-18.0,-3.0,-1.0,0.0,-3.0,1651086375513367.0,2
893,0.0,-2.0,12.0,0.0,-19.0,-1.0,1.0,2.0,1651086375513367.0,2
894,-2.0,-7.0,-22.0,-6.0,3.0,0.0,-2.0,-3.0,1651086375514240.0,2
895,-1.0,1.0,5.0,-6.0,-21.0,-9.0,-2.0,-1.0,1651086375514240.0,2
896,0.0,-2.0,2.0,34.0,19.0,2.0,0.0,1.0,1651086375527953.0,2
897,-1.0,1.0,-8.0,-24.0,-13.0,-10.0,-3.0,-2.0,1651086375527953.0,2
898,1.0,5.0,15.0,-2.0,-2.0,5.0,2.0,3.0,1651086375534365.0,2
899,-2.0,-11.0,-2.0,-1.0,-12.0,-4.0,-3.0,-2.0,1651086375534365.0,2
900,0.0,0.0,-4.0,-15.0,-12.0,-4.0,-3.0,-2.0,1651086375550377.0,2
901,1.0,5.0,1.0,11.0,11.0,4.0,1.0,0.0,1651086375550377.0,2
902,0.0,-5.0,3.0,-6.0,-20.0,-9.0,-3.0,-2.0,1651086375552219.0,2
903,0.0,2.0,-8.0,-16.0,4.0,4.0,1.0,-1.0,1651086375552219.0,2
904,0.0,0.0,-4.0,27.0,15.0,2.0,1.0,0.0,1651086375573216.0,2
905,-1.0,4.0,7.0,4.0,-2.0,2.0,-2.0,-1.0,1651086375573216.0,2
906,-2.0,-6.0,-3.0,-7.0,-2.0,-9.0,-3.0,-1.0,1651086375574248.0,2
907,-2.0,-1.0,-13.0,-24.0,-18.0,-1.0,0.0,-1.0,1651086375574248.0,2
908,2.0,-5.0,16.0,6.0,-10.0,-4.0,1.0,2.0,1651086375588362.0,2
909,0.0,1.0,-10.0,30.0,54.0,20.0,2.0,0.0,1651086375588362.0,2
910,0.0,-3.0,-21.0,-26.0,-34.0,-8.0,0.0,-1.0,1651086375594213.0,2
911,0.0,8.0,24.0,19.0,7.0,-4.0,-2.0,1.0,1651086375594213.0,2
912,-5.0,-10.0,-22.0,-15.0,8.0,1.0,-1.0,-2.0,1651086375611099.0,2
913,-2.0,-3.0,7.0,-9.0,-23.0,-11.0,-3.0,-2.0,1651086375611099.0,2
914,-1.0,2.0,-7.0,-10.0,-1.0,-1.0,-2.0,1.0,1651086375612223.0,2
915,1.0,-3.0,-6.0,24.0,30.0,6.0,-1.0,-2.0,1651086375612223.0,2
916,1.0,2.0,11.0,-16.0,-9.0,2.0,3.0,2.0,1651086375634222.0,2
917,0.0,4.0,0.0,10.0,19.0,5.0,3.0,1.0,1651086375634222.0,2
918,-1.0,-2.0,2.0,-1.0,-7.0,-4.0,-2.0,-1.0,1651086375636249.0,2
919,1.0,1.0,4.0,-4.0,5.0,5.0,3.0,0.0,1651086375636249.0,2
920,0.0,4.0,18.0,20.0,1.0,-4.0,-5.0,-2.0,1651086375646189.0,2
921,1.0,-2.0,-12.0,-27.0,-9.0,4.0,3.0,0.0,1651086375646189.0,2
922,-1.0,3.0,5.0,12.0,7.0,1.0,-1.0,-1.0,1651086375655314.0,2
923,-2.0,-10.0,-9.0,-17.0,10.0,3.0,1.0,0.0,1651086375655314.0,2
924,1.0,3.0,17.0,4.0,-20.0,-4.0,-1.0,1.0,1651086375671251.0,2
925,0.0,-1.0,-18.0,-4.0,22.0,6.0,0.0,1.0,1651086375671251.0,2
926,-1.0,3.0,21.0,33.0,-2.0,-1.0,0.0,-1.0,1651086375672283.0,2
927,2.0,1.0,7.0,4.0,4.0,0.0,-4.0,-2.0,1651086375672283.0,2
928,-4.0,-3.0,7.0,1.0,-3.0,0.0,3.0,-1.0,1651086375693233.0,2
929,2.0,-2.0,-5.0,-5.0,-5.0,-8.0,-5.0,2.0,1651086375693233.0,2
930,-1.0,-1.0,-5.0,10.0,22.0,12.0,2.0,1.0,1651086375694272.0,2
931,1.0,6.0,15.0,-4.0,-8.0,-5.0,0.0,-2.0,1651086375694272.0,2
932,-2.0,-7.0,-36.0,-24.0,6.0,4.0,2.0,0.0,1651086375707377.0,2
933,-3.0,-1.0,11.0,21.0,-14.0,-7.0,-3.0,-2.0,1651086375707377.0,2
934,2.0,0.0,-25.0,-19.0,0.0,1.0,1.0,4.0,1651086375715356.0,2
935,-2.0,2.0,38.0,28.0,5.0,1.0,0.0,0.0,1651086375715356.0,2
936,0.0,2.0,-18.0,-17.0,1.0,1.0,-1.0,-1.0,1651086375731287.0,2
937,0.0,-3.0,10.0,8.0,0.0,2.0,2.0,-2.0,1651086375731287.0,2
938,-1.0,-2.0,-25.0,-22.0,-1.0,-1.0,-1.0,-2.0,1651086375732318.0,2
939,-1.0,-2.0,-21.0,-1.0,-5.0,-2.0,0.0,-2.0,1651086375732318.0,2
940,0.0,5.0,6.0,5.0,8.0,0.0,0.0,2.0,1651086375753402.0,2
941,-2.0,-2.0,34.0,26.0,-4.0,-6.0,-5.0,-2.0,1651086375753402.0,2
942,1.0,-3.0,-7.0,-21.0,0.0,4.0,7.0,-3.0,1651086375755238.0,2
943,-1.0,-1.0,-14.0,-12.0,-6.0,-2.0,5.0,17.0,1651086375755238.0,2
944,0.0,-4.0,-1.0,14.0,4.0,-12.0,-13.0,-14.0,1651086375767524.0,2
945,3.0,2.0,-16.0,-24.0,-3.0,0.0,-5.0,10.0,1651086375767524.0,2
946,-4.0,1.0,23.0,18.0,3.0,12.0,11.0,1.0,1651086375782494.0,2
947,9.0,0.0,5.0,5.0,0.0,4.0,1.0,3.0,1651086375782494.0,2
948,-6.0,0.0,11.0,4.0,1.0,3.0,3.0,1.0,1651086375791412.0,2
949,-9.0,-3.0,-24.0,-9.0,-10.0,-6.0,-2.0,-6.0,1651086375791412.0,2
950,-1.0,1.0,4.0,5.0,4.0,-8.0,-9.0,1.0,1651086375792280.0,2
951,-4.0,0.0,-8.0,-8.0,-8.0,-11.0,-5.0,-6.0,1651086375792280.0,2
952,4.0,1.0,-5.0,3.0,9.0,12.0,4.0,4.0,1651086375814022.0,2
953,4.0,-1.0,-5.0,-23.0,-11.0,-4.0,-3.0,-5.0,1651086375814022.0,2
954,-8.0,0.0,-3.0,3.0,1.0,1.0,-4.0,5.0,1651086375814905.0,2
955,-1.0,0.0,4.0,18.0,2.0,4.0,-2.0,-6.0,1651086375814905.0,2
956,-1.0,-2.0,12.0,5.0,0.0,-1.0,1.0,1.0,1651086375827375.0,2
957,-3.0,-3.0,5.0,1.0,-2.0,2.0,2.0,-2.0,1651086375827375.0,2
958,5.0,2.0,6.0,1.0,1.0,-1.0,-1.0,-2.0,1651086375835388.0,2
959,3.0,-2.0,-19.0,-33.0,-3.0,-4.0,-4.0,-7.0,1651086375835388.0,2
960,-4.0,3.0,22.0,26.0,-3.0,-4.0,-2.0,2.0,1651086375850393.0,2
961,1.0,1.0,13.0,12.0,15.0,9.0,6.0,-1.0,1651086375850393.0,2
962,0.0,-1.0,4.0,8.0,2.0,-4.0,-3.0,-2.0,1651086375857400.0,2
963,-3.0,-4.0,-22.0,-11.0,-1.0,1.0,2.0,-2.0,1651086375857400.0,2
964,-1.0,-4.0,6.0,10.0,5.0,4.0,0.0,-1.0,1651086375873408.0,2
965,10.0,0.0,-12.0,-8.0,-5.0,-1.0,1.0,-1.0,1651086375873408.0,2
966,-15.0,-1.0,7.0,13.0,0.0,-4.0,-2.0,-8.0,1651086375874250.0,2
967,-8.0,-5.0,-15.0,1.0,-4.0,-7.0,-7.0,-3.0,1651086375874250.0,2
968,4.0,1.0,-9.0,-31.0,-1.0,6.0,8.0,13.0,1651086375887516.0,2
969,-3.0,0.0,-9.0,12.0,0.0,0.0,-1.0,-8.0,1651086375887516.0,2
970,-2.0,-2.0,22.0,6.0,0.0,-8.0,-9.0,2.0,1651086375895498.0,2
971,-8.0,1.0,-10.0,-15.0,-7.0,2.0,4.0,3.0,1651086375895498.0,2
972,2.0,1.0,3.0,5.0,11.0,4.0,3.0,2.0,1651086375910183.0,2
973,5.0,1.0,-2.0,-7.0,-6.0,-3.0,-2.0,6.0,1651086375910183.0,2
974,5.0,2.0,2.0,-6.0,0.0,7.0,6.0,4.0,1651086375917147.0,2
975,1.0,-2.0,-4.0,8.0,5.0,2.0,-3.0,4.0,1651086375917147.0,2
976,1.0,3.0,3.0,-6.0,0.0,2.0,2.0,-2.0,1651086375933220.0,2
977,-2.0,5.0,5.0,2.0,4.0,1.0,-5.0,1.0,1651086375933220.0,2
978,5.0,-5.0,0.0,4.0,-3.0,-4.0,2.0,-1.0,1651086375934242.0,2
979,3.0,4.0,11.0,3.0,-4.0,-2.0,0.0,-1.0,1651086375934242.0,2
980,-3.0,-1.0,-2.0,0.0,-1.0,-1.0,-3.0,-9.0,1651086375947451.0,2
981,5.0,3.0,-1.0,8.0,-3.0,-4.0,-2.0,5.0,1651086375947451.0,2
982,-1.0,-4.0,-36.0,-23.0,-4.0,1.0,1.0,-4.0,1651086375955382.0,2
983,-10.0,-4.0,25.0,16.0,0.0,-3.0,-2.0,-5.0,1651086375955382.0,2
984,5.0,2.0,-5.0,2.0,-4.0,-1.0,-7.0,-3.0,1651086375970392.0,2
985,-5.0,-7.0,-10.0,-14.0,-3.0,-2.0,1.0,10.0,1651086375970392.0,2
986,6.0,4.0,-7.0,-16.0,0.0,-1.0,-5.0,-7.0,1651086375977372.0,2
987,0.0,-3.0,21.0,33.0,3.0,2.0,4.0,5.0,1651086375977372.0,2
988,5.0,-1.0,-26.0,-16.0,-7.0,-4.0,-1.0,3.0,1651086375993223.0,2
989,1.0,-4.0,12.0,2.0,-1.0,0.0,0.0,-1.0,1651086375993223.0,2
990,-3.0,-1.0,9.0,7.0,1.0,-3.0,-6.0,-26.0,1651086375994249.0,2
991,-4.0,-2.0,-10.0,-4.0,2.0,2.0,-3.0,-9.0,1651086375994249.0,2
992,6.0,5.0,15.0,-7.0,-5.0,-2.0,0.0,11.0,1651086376017210.0,2
993,-2.0,-1.0,-5.0,10.0,2.0,0.0,0.0,-10.0,1651086376017210.0,2
994,-5.0,-3.0,13.0,-5.0,-5.0,-5.0,-2.0,3.0,1651086376018209.0,2
995,7.0,3.0,-26.0,-33.0,-4.0,3.0,-1.0,-5.0,1651086376018209.0,2
996,-4.0,-4.0,16.0,31.0,5.0,3.0,4.0,1.0,1651086376031200.0,2
997,0.0,-1.0,-39.0,-18.0,-2.0,-3.0,-4.0,-2.0,1651086376031200.0,2
998,6.0,9.0,25.0,21.0,9.0,10.0,4.0,8.0,1651086376032250.0,2
999,-5.0,-7.0,15.0,-3.0,1.0,-1.0,-3.0,-3.0,1651086376032250.0,2
1000,-3.0,-8.0,-26.0,-11.0,-7.0,-3.0,2.0,8.0,1651086376053225.0,2
1001,-8.0,-4.0,-11.0,15.0,3.0,0.0,-1.0,-10.0,1651086376053225.0,2
1002,5.0,-5.0,2.0,-24.0,-6.0,1.0,4.0,11.0,1651086376054248.0,2
1003,-3.0,-14.0,4.0,15.0,6.0,2.0,0.0,11.0,1651086376054248.0,2
1004,-2.0,19.0,8.0,8.0,0.0,1.0,2.0,-17.0,1651086376076247.0,2
1005,-1.0,-2.0,6.0,-21.0,-6.0,-5.0,-4.0,-1.0,1651086376076247.0,2
1006,-2.0,-1.0,-2.0,23.0,-5.0,-1.0,-3.0,-2.0,1651086376077247.0,2
1007,5.0,-14.0,6.0,-2.0,2.0,7.0,5.0,4.0,1651086376077247.0,2
1008,-3.0,-26.0,-14.0,-11.0,-2.0,-5.0,-5.0,-2.0,1651086376091401.0,2
1009,-2.0,23.0,18.0,13.0,0.0,0.0,2.0,0.0,1651086376091401.0,2
1010,-1.0,-5.0,-5.0,-3.0,0.0,-2.0,0.0,1.0,1651086376092433.0,2
1011,8.0,6.0,-4.0,-10.0,-1.0,0.0,4.0,11.0,1651086376092433.0,2
1012,-2.0,6.0,-17.0,9.0,8.0,2.0,-1.0,-16.0,1651086376113589.0,2
1013,2.0,8.0,26.0,-16.0,-5.0,-1.0,1.0,13.0,1651086376113589.0,2
1014,-1.0,-6.0,-34.0,-1.0,3.0,-1.0,-2.0,4.0,1651086376114427.0,2
1015,-1.0,8.0,14.0,5.0,-9.0,-5.0,-4.0,-3.0,1651086376114427.0,2
1016,3.0,-5.0,-6.0,-4.0,7.0,-2.0,-6.0,2.0,1651086376136381.0,2
1017,-2.0,-5.0,53.0,46.0,9.0,8.0,8.0,19.0,1651086376136381.0,2
1018,1.0,6.0,-48.0,-41.0,-9.0,-2.0,-3.0,-22.0,1651086376137256.0,2
1019,3.0,-2.0,13.0,5.0,0.0,1.0,2.0,-1.0,1651086376137256.0,2
1020,-8.0,0.0,-13.0,-12.0,-5.0,-8.0,-7.0,1.0,1651086376150397.0,2
1021,0.0,-2.0,7.0,-5.0,2.0,4.0,2.0,-19.0,1651086376150397.0,2
1022,-1.0,0.0,8.0,8.0,4.0,2.0,2.0,18.0,1651086376152258.0,2
1023,3.0,-1.0,-2.0,-4.0,-4.0,1.0,4.0,-1.0,1651086376152258.0,2
1024,1.0,5.0,11.0,11.0,-6.0,-8.0,-5.0,-14.0,1651086376173225.0,2
1025,-8.0,-12.0,-7.0,1.0,3.0,-1.0,0.0,5.0,1651086376173225.0,2
1026,12.0,22.0,2.0,6.0,2.0,0.0,1.0,1.0,1651086376174226.0,2
1027,-2.0,0.0,-16.0,-22.0,-7.0,-9.0,-7.0,-8.0,1651086376174226.0,2
1028,2.0,-5.0,2.0,3.0,-1.0,2.0,2.0,17.0,1651086376195220.0,2
1029,-1.0,-10.0,-5.0,-8.0,-4.0,-2.0,-2.0,-6.0,1651086376195220.0,2
1030,-3.0,-4.0,3.0,6.0,-2.0,-9.0,-8.0,13.0,1651086376197246.0,2
1031,-5.0,13.0,-16.0,4.0,0.0,-1.0,-6.0,-26.0,1651086376197246.0,2
1032,4.0,-2.0,-1.0,-26.0,-4.0,2.0,2.0,-2.0,1651086376210389.0,2
1033,-7.0,2.0,21.0,27.0,-3.0,-5.0,-4.0,1.0,1651086376210389.0,2
1034,-3.0,-2.0,23.0,16.0,4.0,1.0,-2.0,-1.0,1651086376216383.0,2
1035,2.0,2.0,4.0,1.0,4.0,0.0,3.0,9.0,1651086376216383.0,2
1036,-5.0,-5.0,-9.0,-5.0,3.0,1.0,1.0,-1.0,1651086376233228.0,2
1037,13.0,1.0,-1.0,5.0,-5.0,2.0,4.0,-8.0,1651086376233228.0,2
1038,-5.0,-10.0,-15.0,-17.0,-1.0,0.0,-4.0,-10.0,1651086376234253.0,2
1039,-4.0,5.0,26.0,35.0,6.0,-2.0,-1.0,-6.0,1651086376234253.0,2
1040,5.0,0.0,-50.0,-53.0,-5.0,0.0,2.0,-2.0,1651086376256342.0,2
1041,-4.0,-1.0,29.0,10.0,-6.0,-2.0,1.0,3.0,1651086376256342.0,2
1042,-4.0,-6.0,11.0,22.0,4.0,-1.0,-1.0,1.0,1651086376257198.0,2
1043,3.0,-13.0,-28.0,-23.0,1.0,0.0,-1.0,0.0,1651086376257198.0,2
1044,0.0,10.0,19.0,18.0,2.0,3.0,4.0,-1.0,1651086376270276.0,2
1045,6.0,1.0,-17.0,-12.0,3.0,1.0,2.0,4.0,1651086376270276.0,2
1046,-12.0,0.0,11.0,-1.0,-2.0,-3.0,-3.0,-11.0,1651086376277475.0,2
1047,0.0,-2.0,-19.0,-17.0,1.0,2.0,2.0,14.0,1651086376277475.0,2
1048,-1.0,1.0,35.0,12.0,1.0,-1.0,-1.0,-1.0,1651086376293416.0,2
1049,-5.0,-3.0,-20.0,2.0,-1.0,-4.0,-5.0,3.0,1651086376293416.0,2
1050,4.0,-5.0,-12.0,-15.0,-5.0,1.0,2.0,0.0,1651086376294271.0,2
1051,2.0,5.0,25.0,24.0,6.0,1.0,2.0,9.0,1651086376294271.0,2
1052,-10.0,0.0,33.0,31.0,-4.0,-6.0,-10.0,-23.0,1651086376317202.0,2
1053,1.0,-2.0,-23.0,-34.0,-5.0,-2.0,-2.0,-6.0,1651086376317202.0,2
1054,1.0,-10.0,-13.0,-1.0,2.0,-1.0,3.0,10.0,1651086376318201.0,2
1055,-2.0,13.0,-5.0,2.0,-2.0,1.0,-3.0,-13.0,1651086376318201.0,2
1056,0.0,-3.0,-11.0,-8.0,-3.0,0.0,0.0,9.0,1651086376330257.0,2
1057,-7.0,-3.0,12.0,14.0,8.0,2.0,-3.0,2.0,1651086376330257.0,2
1058,-3.0,-10.0,-14.0,-17.0,2.0,2.0,2.0,-10.0,1651086376336370.0,2
1059,-1.0,-7.0,13.0,-6.0,-5.0,-4.0,-2.0,-1.0,1651086376336370.0,2
1060,-6.0,-1.0,2.0,20.0,0.0,-2.0,1.0,-1.0,1651086376353163.0,2
1061,-4.0,3.0,0.0,0.0,0.0,0.0,-2.0,-9.0,1651086376353163.0,2
1062,9.0,2.0,-4.0,-17.0,-8.0,-1.0,2.0,9.0,1651086376354195.0,2
1063,-9.0,-6.0,-26.0,26.0,7.0,2.0,0.0,-10.0,1651086376354195.0,2
1064,-1.0,-2.0,-17.0,-24.0,-8.0,-2.0,-2.0,6.0,1651086376375304.0,2
1065,-3.0,0.0,-6.0,-5.0,-1.0,-2.0,0.0,2.0,1651086376375304.0,2
1066,10.0,6.0,21.0,14.0,4.0,6.0,3.0,-14.0,1651086376377211.0,2
1067,-5.0,-4.0,0.0,-5.0,-3.0,-6.0,-4.0,-4.0,1651086376377211.0,2
1068,7.0,0.0,28.0,9.0,1.0,2.0,2.0,13.0,1651086376390279.0,2
1069,-1.0,0.0,-13.0,-5.0,-4.0,-2.0,0.0,-6.0,1651086376390279.0,2
1070,-2.0,4.0,7.0,2.0,-6.0,-5.0,-6.0,1.0,1651086376396195.0,2
1071,-1.0,0.0,9.0,8.0,12.0,13.0,10.0,6.0,1651086376396195.0,2
1072,3.0,-6.0,-27.0,-4.0,-2.0,-3.0,-1.0,2.0,1651086376413374.0,2
1073,4.0,-3.0,13.0,4.0,-1.0,0.0,3.0,9.0,1651086376413374.0,2
1074,-8.0,-25.0,-25.0,-19.0,1.0,1.0,-3.0,-5.0,1651086376414280.0,2
1075,6.0,27.0,-9.0,-6.0,-8.0,-7.0,-4.0,-8.0,1651086376414280.0,2
1076,-2.0,-4.0,-16.0,-3.0,7.0,2.0,0.0,0.0,1651086376435187.0,2
1077,1.0,-1.0,-4.0,-22.0,-6.0,-1.0,0.0,-2.0,1651086376435187.0,2
1078,-1.0,4.0,15.0,22.0,-1.0,-3.0,0.0,6.0,1651086376437214.0,2
1079,0.0,-5.0,-10.0,-11.0,-2.0,-2.0,-2.0,4.0,1651086376437214.0,2
1080,-4.0,-7.0,-15.0,-18.0,-4.0,-1.0,0.0,-4.0,1651086376450245.0,2
1081,6.0,8.0,-8.0,1.0,-1.0,-3.0,-4.0,1.0,1651086376450245.0,2
1082,-1.0,7.0,49.0,41.0,6.0,1.0,-1.0,1.0,1651086376456323.0,2
1083,-2.0,-12.0,-35.0,-47.0,-13.0,-4.0,-1.0,7.0,1651086376456323.0,2
1084,0.0,10.0,19.0,9.0,2.0,1.0,4.0,8.0,1651086376473196.0,2
1085,3.0,1.0,3.0,-7.0,0.0,-1.0,-4.0,-16.0,1651086376473196.0,2
1086,2.0,-2.0,-14.0,2.0,-2.0,-5.0,-1.0,-3.0,1651086376474227.0,2
1087,-3.0,-1.0,19.0,22.0,5.0,2.0,-1.0,-5.0,1651086376474227.0,2
1088,2.0,24.0,27.0,-4.0,2.0,2.0,2.0,0.0,1651086376495187.0,2
1089,-4.0,-18.0,-39.0,-24.0,-5.0,-2.0,0.0,4.0,1651086376495187.0,2
1090,-3.0,0.0,40.0,46.0,9.0,1.0,0.0,-6.0,1651086376497213.0,2
1091,0.0,4.0,-36.0,-42.0,-8.0,-4.0,1.0,5.0,1651086376497213.0,2
1092,-5.0,-9.0,-4.0,7.0,-5.0,-2.0,-3.0,1.0,1651086376510267.0,2
1093,-3.0,0.0,4.0,1.0,0.0,0.0,1.0,4.0,1651086376510267.0,2
1094,1.0,4.0,-10.0,-26.0,2.0,2.0,-1.0,4.0,1651086376516348.0,2
1095,2.0,-5.0,14.0,19.0,2.0,0.0,0.0,3.0,1651086376516348.0,2
1096,5.0,-2.0,4.0,8.0,-1.0,0.0,3.0,13.0,1651086376533325.0,2
1097,-10.0,-2.0,-9.0,-5.0,-2.0,-1.0,-3.0,-9.0,1651086376533325.0,2
1098,3.0,5.0,-18.0,-18.0,-4.0,3.0,4.0,9.0,1651086376534180.0,2
1099,1.0,-2.0,-4.0,35.0,-1.0,-4.0,-5.0,9.0,1651086376534180.0,2
1100,-1.0,-1.0,-3.0,-6.0,2.0,0.0,-2.0,-7.0,1651086376556353.0,2
1101,13.0,-8.0,-12.0,-20.0,-4.0,0.0,3.0,8.0,1651086376556353.0,2
1102,-1.0,-7.0,12.0,-7.0,-6.0,-3.0,-2.0,3.0,1651086376557241.0,2
1103,2.0,2.0,43.0,26.0,7.0,-1.0,-2.0,-10.0,1651086376557241.0,2
1104,-1.0,-5.0,-27.0,12.0,4.0,-1.0,-1.0,-8.0,1651086376570267.0,2
1105,0.0,-3.0,-8.0,-3.0,8.0,2.0,2.0,-4.0,1651086376570267.0,2
1106,-1.0,-10.0,4.0,-7.0,-8.0,-2.0,1.0,0.0,1651086376584352.0,2
1107,1.0,8.0,3.0,-11.0,-8.0,-3.0,-3.0,10.0,1651086376584352.0,2
1108,-6.0,-5.0,2.0,-5.0,-4.0,0.0,-5.0,-12.0,1651086376593202.0,2
1109,10.0,6.0,0.0,31.0,21.0,5.0,1.0,-3.0,1651086376593202.0,2
1110,-5.0,6.0,-1.0,7.0,-3.0,1.0,3.0,8.0,1651086376594226.0,2
1111,1.0,-5.0,-9.0,-12.0,0.0,-1.0,-5.0,-31.0,1651086376594226.0,2
1112,0.0,-3.0,2.0,-5.0,3.0,2.0,2.0,1.0,1651086376615284.0,2
1113,-7.0,6.0,38.0,22.0,-1.0,-2.0,-4.0,3.0,1651086376615284.0,2
1114,0.0,-2.0,-49.0,-15.0,-3.0,-2.0,0.0,1.0,1651086376617270.0,2
1115,5.0,-8.0,-8.0,-20.0,-5.0,-2.0,0.0,2.0,1651086376617270.0,2
1116,-1.0,11.0,18.0,-3.0,0.0,0.0,1.0,11.0,1651086376629379.0,2
1117,-5.0,-7.0,21.0,19.0,-4.0,-4.0,-7.0,-36.0,1651086376629379.0,2
1118,-9.0,-7.0,-26.0,-29.0,1.0,0.0,0.0,-15.0,1651086376638449.0,2
1119,2.0,-3.0,17.0,27.0,6.0,4.0,2.0,1.0,1651086376638449.0,2
1120,13.0,15.0,16.0,15.0,0.0,-3.0,2.0,6.0,1651086376653230.0,2
1121,-10.0,-1.0,-9.0,-8.0,-5.0,-2.0,0.0,3.0,1651086376653230.0,2
1122,8.0,13.0,9.0,-1.0,1.0,2.0,0.0,6.0,1651086376654263.0,2
1123,1.0,-8.0,-17.0,-20.0,-6.0,-4.0,1.0,2.0,1651086376654263.0,2
1124,-7.0,-14.0,-11.0,14.0,-3.0,-3.0,-9.0,-15.0,1651086376675388.0,2
1125,0.0,5.0,-2.0,-5.0,-2.0,0.0,5.0,16.0,1651086376675388.0,2
1126,0.0,7.0,7.0,1.0,-5.0,-4.0,-3.0,-4.0,1651086376677257.0,2
1127,6.0,-2.0,-16.0,3.0,5.0,4.0,1.0,6.0,1651086376677257.0,2
1128,0.0,-5.0,18.0,2.0,4.0,2.0,5.0,9.0,1651086376689550.0,2
1129,-1.0,11.0,-8.0,-10.0,-13.0,-8.0,-6.0,-9.0,1651086376689550.0,2
1130,-4.0,-16.0,8.0,5.0,3.0,-1.0,-3.0,-4.0,1651086376697756.0,2
1131,-4.0,2.0,4.0,-2.0,-1.0,-4.0,-1.0,3.0,1651086376697756.0,2
1132,0.0,12.0,10.0,-7.0,-4.0,-2.0,-2.0,-6.0,1651086376712804.0,2
1133,2.0,5.0,5.0,23.0,7.0,3.0,4.0,4.0,1651086376712804.0,2
1134,3.0,-10.0,23.0,8.0,-3.0,1.0,1.0,3.0,1651086376714800.0,2
1135,-4.0,6.0,13.0,1.0,10.0,5.0,2.0,-13.0,1651086376714800.0,2
1136,0.0,-8.0,-25.0,-26.0,-8.0,-4.0,0.0,9.0,1651086376736331.0,2
1137,2.0,-1.0,4.0,4.0,-2.0,0.0,2.0,9.0,1651086376736331.0,2
1138,-1.0,20.0,5.0,14.0,4.0,1.0,0.0,-4.0,1651086376737228.0,2
1139,-9.0,-8.0,19.0,-6.0,-8.0,-3.0,-1.0,4.0,1651086376737228.0,2
1140,1.0,-8.0,-20.0,3.0,-3.0,0.0,-4.0,-14.0,1651086376749212.0,2
1141,-5.0,1.0,3.0,-14.0,3.0,2.0,2.0,10.0,1651086376749212.0,2
1142,5.0,0.0,-28.0,2.0,3.0,1.0,2.0,0.0,1651086376757762.0,2
1143,-9.0,-19.0,-22.0,-12.0,-5.0,-4.0,-5.0,7.0,1651086376757762.0,2
1144,-5.0,12.0,-16.0,-12.0,-4.0,-4.0,-2.0,-22.0,1651086376773069.0,2
1145,-1.0,-2.0,28.0,4.0,-1.0,1.0,1.0,5.0,1651086376773069.0,2
1146,6.0,0.0,-7.0,-4.0,-5.0,-4.0,-4.0,7.0,1651086376774962.0,2
1147,-9.0,4.0,13.0,-2.0,-2.0,-3.0,-4.0,-8.0,1651086376774962.0,2
1148,7.0,-2.0,8.0,4.0,5.0,2.0,6.0,15.0,1651086376796187.0,2
1149,-3.0,-10.0,-23.0,-12.0,2.0,4.0,1.0,-5.0,1651086376796187.0,2
1150,-3.0,3.0,-13.0,3.0,0.0,-1.0,-3.0,-7.0,1651086376797218.0,2
1151,-4.0,-7.0,3.0,-1.0,-1.0,1.0,2.0,9.0,1651086376797218.0,2
1152,-1.0,-1.0,6.0,4.0,-7.0,-2.0,-3.0,-5.0,1651086376809582.0,2
1153,6.0,0.0,-17.0,-12.0,-1.0,-1.0,-1.0,-6.0,1651086376809582.0,2
1154,-8.0,-2.0,-22.0,-18.0,2.0,-2.0,0.0,4.0,1651086376817761.0,2
1155,7.0,5.0,22.0,28.0,2.0,0.0,5.0,0.0,1651086376817761.0,2
1156,-9.0,-1.0,8.0,3.0,1.0,1.0,-4.0,-1.0,1651086376833203.0,2
1157,2.0,-2.0,-12.0,2.0,-2.0,-3.0,0.0,3.0,1651086376833203.0,2
1158,-5.0,6.0,-27.0,-22.0,-12.0,-6.0,-6.0,-5.0,1651086376834230.0,2
1159,6.0,15.0,30.0,1.0,0.0,1.0,-2.0,-7.0,1651086376834230.0,2
1160,-1.0,-12.0,-26.0,-1.0,1.0,0.0,1.0,1.0,1651086376854337.0,2
1161,-6.0,-3.0,0.0,-9.0,-5.0,-4.0,-2.0,-1.0,1651086376854337.0,2
1162,-1.0,-4.0,15.0,3.0,5.0,4.0,4.0,0.0,1651086376863180.0,2
1163,-1.0,-11.0,-17.0,-8.0,-6.0,-2.0,0.0,1.0,1651086376863180.0,2
1164,2.0,11.0,4.0,4.0,-1.0,1.0,1.0,-1.0,1651086376869202.0,2
1165,-2.0,-3.0,-4.0,8.0,-1.0,-2.0,-3.0,3.0,1651086376869202.0,2
1166,2.0,4.0,20.0,7.0,5.0,4.0,6.0,13.0,1651086376878181.0,2
1167,0.0,-12.0,-13.0,1.0,-2.0,-4.0,-5.0,-1.0,1651086376878181.0,2
1168,-3.0,-5.0,-15.0,-34.0,-7.0,-1.0,-2.0,-5.0,1651086376893510.0,2
1169,-9.0,-1.0,-3.0,8.0,-2.0,-3.0,-3.0,-5.0,1651086376893510.0,2
1170,6.0,6.0,-1.0,-6.0,-3.0,-1.0,1.0,6.0,1651086376894362.0,2
1171,4.0,-3.0,-21.0,-5.0,0.0,1.0,-3.0,-5.0,1651086376894362.0,2
1172,4.0,-12.0,4.0,1.0,2.0,3.0,4.0,15.0,1651086376916358.0,2
1173,-4.0,-4.0,27.0,18.0,-3.0,-5.0,-6.0,-6.0,1651086376916358.0,2
1174,-5.0,-6.0,-9.0,-5.0,-3.0,0.0,-1.0,-6.0,1651086376917234.0,2
1175,0.0,13.0,2.0,4.0,1.0,-2.0,-4.0,-4.0,1651086376917234.0,2
1176,0.0,-5.0,-17.0,-9.0,-2.0,-2.0,1.0,-6.0,1651086376929553.0,2
1177,4.0,3.0,2.0,2.0,6.0,3.0,0.0,1.0,1651086376929553.0,2
1178,-4.0,-9.0,-1.0,-3.0,-6.0,-5.0,-6.0,-7.0,1651086376938607.0,2
1179,1.0,6.0,-2.0,-3.0,-4.0,-4.0,1.0,5.0,1651086376938607.0,2
1180,-8.0,-4.0,4.0,11.0,-3.0,-3.0,-5.0,-2.0,1651086376952878.0,2
1181,7.0,10.0,-25.0,-35.0,0.0,3.0,3.0,4.0,1651086376952878.0,2
1182,-4.0,6.0,14.0,35.0,-3.0,0.0,2.0,-2.0,1651086376954875.0,2
1183,-3.0,5.0,-4.0,-1.0,1.0,-1.0,-5.0,-7.0,1651086376954875.0,2
1184,1.0,-2.0,7.0,-7.0,-7.0,-5.0,-2.0,0.0,1651086376975375.0,2
1185,-3.0,-17.0,-16.0,-5.0,2.0,1.0,2.0,7.0,1651086376975375.0,2
1186,4.0,0.0,48.0,23.0,10.0,3.0,-1.0,-11.0,1651086376977298.0,2
1187,-3.0,-8.0,-18.0,-8.0,0.0,1.0,1.0,1.0,1651086376977298.0,2
1188,2.0,20.0,6.0,9.0,5.0,0.0,0.0,1.0,1651086376990331.0,2
1189,3.0,-8.0,-5.0,-3.0,-3.0,0.0,0.0,-2.0,1651086376990331.0,2
1190,0.0,3.0,6.0,-4.0,9.0,1.0,2.0,3.0,1651086376997799.0,2
1191,0.0,3.0,-6.0,-11.0,-7.0,0.0,1.0,-5.0,1651086376997799.0,2
1192,-2.0,-22.0,-5.0,6.0,2.0,1.0,1.0,5.0,1651086377013215.0,2
1193,-1.0,2.0,-1.0,-19.0,-1.0,2.0,0.0,-3.0,1651086377013215.0,2
1194,0.0,11.0,13.0,28.0,-2.0,-3.0,-1.0,-3.0,1651086377014216.0,2
1195,-1.0,-8.0,6.0,-4.0,2.0,0.0,1.0,4.0,1651086377014216.0,2
1196,-1.0,4.0,8.0,4.0,-1.0,-4.0,-5.0,-6.0,1651086377035159.0,2
1197,1.0,0.0,-10.0,-2.0,-2.0,-1.0,-2.0,-2.0,1651086377035159.0,2
1198,-4.0,-10.0,-7.0,-6.0,-7.0,-1.0,-3.0,-1.0,1651086377037154.0,2
1199,3.0,2.0,-3.0,-2.0,0.0,1.0,6.0,5.0,1651086377037154.0,2
1200,0.0,2.0,-7.0,-8.0,-5.0,0.0,1.0,-1.0,1651086377058508.0,2
1201,-2.0,2.0,14.0,3.0,-4.0,-3.0,-4.0,0.0,1651086377058508.0,2
1202,1.0,-1.0,-9.0,-9.0,5.0,4.0,-1.0,1.0,1651086377059072.0,2
1203,-2.0,-5.0,0.0,3.0,4.0,3.0,1.0,1.0,1651086377059072.0,2
1204,0.0,-3.0,-4.0,4.0,1.0,0.0,-2.0,-2.0,1651086377074357.0,2
1205,-1.0,8.0,11.0,2.0,-5.0,-6.0,-2.0,-5.0,1651086377074357.0,2
1206,-1.0,-16.0,-16.0,-16.0,-9.0,-4.0,-1.0,-2.0,1651086377075260.0,2
1207,1.0,15.0,8.0,6.0,0.0,0.0,-1.0,0.0,1651086377075260.0,2
1208,0.0,-8.0,2.0,7.0,5.0,0.0,1.0,0.0,1651086377095238.0,2
1209,0.0,3.0,0.0,0.0,-2.0,3.0,1.0,-1.0,1651086377095238.0,2
1210,-1.0,4.0,-4.0,-7.0,-1.0,0.0,0.0,1.0,1651086377097257.0,2
1211,2.0,-2.0,0.0,0.0,0.0,0.0,1.0,1.0,1651086377097257.0,2
1212,0.0,-4.0,4.0,2.0,-2.0,-1.0,-1.0,-2.0,1651086377125215.0,2
1213,-1.0,10.0,-6.0,5.0,-1.0,-4.0,0.0,2.0,1651086377125215.0,2
1214,-3.0,1.0,4.0,-5.0,3.0,2.0,-2.0,-2.0,1651086377127245.0,2
1215,0.0,0.0,3.0,1.0,-1.0,1.0,-1.0,-1.0,1651086377127245.0,2
1216,0.0,-3.0,1.0,-2.0,0.0,-3.0,-1.0,1.0,1651086377132231.0,2
1217,0.0,3.0,2.0,-1.0,-8.0,0.0,-1.0,-2.0,1651086377132231.0,2
1218,0.0,-2.0,-10.0,-5.0,3.0,-2.0,-1.0,-1.0,1651086377140804.0,2
1219,0.0,7.0,9.0,1.0,3.0,0.0,1.0,0.0,1651086377140804.0,2
1220,-2.0,1.0,5.0,-5.0,-2.0,1.0,-1.0,-1.0,1651086377156347.0,2
1221,0.0,-8.0,-13.0,-1.0,-1.0,-1.0,-3.0,-1.0,1651086377156347.0,2
1222,1.0,10.0,3.0,-2.0,-3.0,-3.0,-1.0,-2.0,1651086377157233.0,2
1223,-3.0,-8.0,-3.0,-3.0,-2.0,-1.0,0.0,1.0,1651086377157233.0,2
1224,0.0,1.0,5.0,5.0,3.0,2.0,2.0,0.0,1651086377178200.0,2
1225,0.0,6.0,4.0,3.0,2.0,1.0,1.0,0.0,1651086377178200.0,2
1226,-1.0,-4.0,-6.0,-3.0,0.0,-1.0,0.0,1.0,1651086377179236.0,2
1227,1.0,-7.0,-6.0,1.0,-3.0,-3.0,-2.0,0.0,1651086377179236.0,2
1228,1.0,19.0,17.0,6.0,2.0,1.0,0.0,0.0,1651086377192533.0,2
1229,1.0,-12.0,-15.0,-10.0,0.0,0.0,0.0,0.0,1651086377192533.0,2
1230,-4.0,-9.0,-5.0,-7.0,-5.0,-1.0,0.0,0.0,1651086377200342.0,2
1231,-2.0,15.0,3.0,-1.0,-3.0,0.0,-2.0,-1.0,1651086377200342.0,2
1232,1.0,-11.0,0.0,6.0,2.0,-1.0,-3.0,1.0,1651086377216309.0,2
1233,8.0,0.0,-1.0,3.0,6.0,3.0,2.0,6.0,1651086377216309.0,2
1234,-8.0,-2.0,7.0,4.0,-1.0,-1.0,2.0,13.0,1651086377217167.0,2
1235,6.0,-5.0,-6.0,-3.0,-1.0,0.0,1.0,6.0,1651086377217167.0,2
1236,-33.0,-6.0,3.0,1.0,4.0,-2.0,-7.0,-60.0,1651086377239024.0,2
1237,8.0,-6.0,-9.0,-19.0,-11.0,-4.0,2.0,-6.0,1651086377239024.0,2
1238,5.0,11.0,8.0,4.0,3.0,1.0,-2.0,-2.0,1651086377239104.0,2
1239,-8.0,-4.0,2.0,-1.0,-5.0,-4.0,1.0,-2.0,1651086377239104.0,2
1240,11.0,0.0,-14.0,-5.0,0.0,-1.0,3.0,15.0,1651086377252107.0,2
1241,-1.0,-3.0,7.0,8.0,3.0,4.0,1.0,14.0,1651086377252107.0,2
1242,-3.0,-8.0,0.0,1.0,1.0,1.0,-3.0,-45.0,1651086377260343.0,2
1243,-11.0,9.0,6.0,-1.0,-2.0,1.0,3.0,17.0,1651086377260343.0,2
1244,-4.0,5.0,2.0,0.0,-1.0,-1.0,-5.0,7.0,1651086377275354.0,2
1245,-7.0,5.0,2.0,3.0,0.0,-1.0,-1.0,-7.0,1651086377275354.0,2
1246,3.0,-2.0,-7.0,-5.0,-5.0,-2.0,0.0,12.0,1651086377277231.0,2
1247,2.0,-7.0,-4.0,-1.0,-1.0,-2.0,-2.0,-3.0,1651086377277231.0,2
1248,6.0,3.0,1.0,-2.0,-4.0,-1.0,3.0,10.0,1651086377298473.0,2
1249,-3.0,11.0,8.0,3.0,3.0,0.0,-2.0,-2.0,1651086377298473.0,2
1250,-1.0,12.0,3.0,-2.0,-5.0,-3.0,-3.0,6.0,1651086377299073.0,2
1251,5.0,-22.0,3.0,-4.0,-2.0,0.0,-1.0,-7.0,1651086377299073.0,2
1252,2.0,3.0,-4.0,-3.0,-2.0,0.0,0.0,7.0,1651086377311183.0,2
1253,-2.0,-8.0,-7.0,2.0,0.0,-1.0,-1.0,-5.0,1651086377311183.0,2
1254,2.0,4.0,1.0,1.0,0.0,-1.0,1.0,0.0,1651086377320365.0,2
1255,1.0,5.0,-5.0,-2.0,-2.0,1.0,-1.0,-6.0,1651086377320365.0,2
1256,5.0,-3.0,-6.0,0.0,1.0,2.0,3.0,5.0,1651086377335237.0,2
1257,-5.0,3.0,9.0,7.0,3.0,0.0,0.0,-3.0,1651086377335237.0,2
1258,2.0,-7.0,-7.0,-1.0,-2.0,0.0,1.0,4.0,1651086377337232.0,2
1259,1.0,3.0,3.0,-1.0,-2.0,0.0,0.0,-1.0,1651086377337232.0,2
1260,1.0,-2.0,1.0,-2.0,-3.0,-2.0,-1.0,2.0,1651086377367210.0,2
1261,2.0,-7.0,-5.0,2.0,-1.0,-2.0,-1.0,0.0,1651086377367210.0,2
1262,-3.0,4.0,3.0,-1.0,-1.0,-1.0,-2.0,-1.0,1651086377368207.0,2
1263,0.0,5.0,-3.0,1.0,2.0,1.0,-1.0,-3.0,1651086377368207.0,2
1264,2.0,-4.0,-1.0,0.0,1.0,2.0,2.0,1.0,1651086377371205.0,2
1265,-4.0,-7.0,1.0,-1.0,-3.0,-1.0,-1.0,-1.0,1651086377371205.0,2
1266,-1.0,-5.0,1.0,-1.0,-1.0,-1.0,-2.0,3.0,1651086377380297.0,2
1267,-1.0,0.0,-10.0,0.0,0.0,0.0,-1.0,-2.0,1651086377380297.0,2
1268,4.0,-2.0,-2.0,-2.0,0.0,1.0,1.0,3.0,1651086377395213.0,2
1269,0.0,0.0,-1.0,-1.0,-1.0,-1.0,0.0,2.0,1651086377395213.0,2
1270,-4.0,-2.0,-2.0,-2.0,1.0,-1.0,0.0,-2.0,1651086377397242.0,2
1271,0.0,-3.0,-1.0,-1.0,1.0,-1.0,0.0,-3.0,1651086377397242.0,2
1272,-2.0,4.0,8.0,2.0,0.0,0.0,0.0,1.0,1651086377418648.0,2
1273,1.0,1.0,-2.0,-1.0,-2.0,-1.0,-2.0,-1.0,1651086377418648.0,2
1274,7.0,-2.0,-1.0,-3.0,-3.0,0.0,-2.0,2.0,1651086377420109.0,2
1275,-3.0,1.0,-1.0,-3.0,1.0,-2.0,-2.0,-2.0,1651086377420109.0,2
1276,1.0,0.0,-3.0,0.0,-1.0,0.0,0.0,0.0,1651086377432065.0,2
1277,0.0,-3.0,2.0,-1.0,-1.0,0.0,1.0,0.0,1651086377432065.0,2
1278,0.0,-2.0,-2.0,1.0,0.0,3.0,0.0,1.0,1651086377447842.0,2
1279,1.0,1.0,-2.0,0.0,-3.0,-1.0,-2.0,0.0,1651086377447842.0,2
1280,0.0,-2.0,-2.0,-1.0,-2.0,1.0,0.0,1.0,1651086377455933.0,2
1281,0.0,1.0,-1.0,-2.0,-1.0,-2.0,-2.0,-1.0,1651086377455933.0,2
1282,-3.0,-3.0,-1.0,0.0,-1.0,-1.0,1.0,0.0,1651086377456820.0,2
1283,-1.0,0.0,2.0,1.0,1.0,3.0,0.0,-2.0,1651086377456820.0,2
1284,-6.0,-3.0,-1.0,-1.0,-1.0,0.0,-1.0,0.0,1651086377478192.0,2
1285,1.0,0.0,-1.0,0.0,-1.0,-1.0,-2.0,-3.0,1651086377478192.0,2
1286,-2.0,0.0,0.0,-3.0,-4.0,-2.0,0.0,-1.0,1651086377479227.0,2
1287,-1.0,2.0,1.0,0.0,3.0,2.0,0.0,0.0,1651086377479227.0,2
1288,-1.0,-2.0,-2.0,0.0,1.0,-1.0,-1.0,-1.0,1651086377492094.0,2
1289,-2.0,-2.0,0.0,2.0,1.0,1.0,0.0,-1.0,1651086377492094.0,2
1290,0.0,0.0,-2.0,-2.0,-2.0,-2.0,0.0,0.0,1651086377500286.0,2
1291,1.0,-1.0,0.0,0.0,-2.0,-3.0,-3.0,-1.0,1651086377500286.0,2
1292,0.0,-2.0,-3.0,1.0,0.0,-1.0,1.0,1.0,1651086377515346.0,2
1293,-1.0,0.0,-1.0,0.0,1.0,-1.0,-1.0,0.0,1651086377515346.0,2
1294,1.0,-1.0,0.0,-2.0,-1.0,0.0,1.0,1.0,1651086377517228.0,2
1295,-1.0,0.0,-1.0,-2.0,-2.0,-2.0,-1.0,-1.0,1651086377517228.0,2
1296,2.0,-1.0,-2.0,0.0,1.0,-1.0,-2.0,-1.0,1651086377545197.0,2
1297,-1.0,-1.0,0.0,2.0,2.0,0.0,0.0,0.0,1651086377545197.0,2
1298,-1.0,-2.0,2.0,1.0,3.0,2.0,0.0,0.0,1651086377547224.0,2
1299,0.0,0.0,-2.0,-3.0,-4.0,-2.0,-2.0,-1.0,1651086377547224.0,2
1300,1.0,-1.0,-1.0,-2.0,-4.0,0.0,-1.0,1.0,1651086377551212.0,2
1301,-1.0,1.0,-1.0,-1.0,0.0,-1.0,-2.0,0.0,1651086377551212.0,2
1302,-1.0,0.0,-1.0,1.0,3.0,1.0,0.0,-2.0,1651086377560268.0,2
1303,0.0,0.0,0.0,0.0,1.0,-1.0,-1.0,0.0,1651086377560268.0,2
1304,1.0,0.0,-1.0,-1.0,-2.0,-1.0,0.0,-1.0,1651086377575336.0,2
1305,0.0,0.0,-1.0,-1.0,-3.0,2.0,-1.0,1.0,1651086377575336.0,2
1306,-1.0,-1.0,-1.0,0.0,0.0,-2.0,-1.0,-1.0,1651086377577223.0,2
1307,0.0,-1.0,-1.0,-1.0,-1.0,-2.0,0.0,0.0,1651086377577223.0,2
1308,1.0,0.0,-1.0,-1.0,-2.0,-1.0,0.0,0.0,1651086377599236.0,2
1309,-1.0,-1.0,0.0,-1.0,0.0,-1.0,0.0,-1.0,1651086377599236.0,2
1310,-2.0,-1.0,-1.0,1.0,2.0,0.0,-1.0,1.0,1651086377612247.0,2
1311,-1.0,0.0,3.0,0.0,-2.0,-1.0,0.0,-1.0,1651086377612247.0,2
1312,-1.0,-3.0,-2.0,0.0,1.0,0.0,0.0,0.0,1651086377613240.0,2
1313,0.0,1.0,0.0,-1.0,-1.0,0.0,0.0,-1.0,1651086377613240.0,2
1314,-1.0,-1.0,-2.0,-1.0,-1.0,1.0,0.0,0.0,1651086377620364.0,2
1315,-2.0,-2.0,0.0,0.0,0.0,1.0,1.0,-1.0,1651086377620364.0,2
1316,0.0,-1.0,-1.0,-5.0,-4.0,0.0,-1.0,0.0,1651086377635218.0,2
1317,0.0,-3.0,0.0,-2.0,0.0,-1.0,-2.0,-1.0,1651086377635218.0,2
1318,0.0,-1.0,0.0,0.0,2.0,1.0,0.0,0.0,1651086377637253.0,2
1319,0.0,-1.0,-2.0,1.0,2.0,1.0,0.0,-1.0,1651086377637253.0,2
1320,-2.0,1.0,0.0,0.0,1.0,0.0,-1.0,-1.0,1651086377666344.0,2
1321,0.0,-2.0,-1.0,-1.0,-3.0,-2.0,-1.0,0.0,1651086377666344.0,2
1322,-2.0,0.0,0.0,0.0,-3.0,-3.0,-2.0,0.0,1651086377667213.0,2
1323,-1.0,-2.0,-1.0,-1.0,-1.0,-1.0,-2.0,0.0,1651086377667213.0,2
1324,-1.0,0.0,0.0,0.0,1.0,-1.0,-2.0,-1.0,1651086377671237.0,2
1325,-1.0,-1.0,-1.0,0.0,1.0,0.0,0.0,-2.0,1651086377671237.0,2
1326,1.0,-1.0,-2.0,-4.0,-3.0,-3.0,-1.0,1.0,1651086377680604.0,2
1327,-1.0,0.0,0.0,1.0,1.0,1.0,-2.0,-1.0,1651086377680604.0,2
1328,0.0,-1.0,1.0,2.0,1.0,-1.0,0.0,-1.0,1651086377695226.0,2
1329,1.0,0.0,-2.0,-2.0,-1.0,-1.0,-2.0,-1.0,1651086377695226.0,2
1330,1.0,-1.0,-1.0,-1.0,-4.0,-2.0,-1.0,0.0,1651086377697221.0,2
1331,0.0,1.0,-1.0,-2.0,3.0,2.0,2.0,0.0,1651086377697221.0,2
1332,-2.0,0.0,0.0,1.0,1.0,0.0,-1.0,-1.0,1651086377718208.0,2
1333,-2.0,0.0,1.0,-1.0,1.0,-1.0,-1.0,1.0,1651086377718208.0,2
1334,-1.0,1.0,-1.0,-1.0,0.0,0.0,1.0,-2.0,1651086377719189.0,2
1335,1.0,-2.0,0.0,-3.0,-3.0,-2.0,0.0,0.0,1651086377719189.0,2
1336,1.0,-1.0,-1.0,-3.0,-3.0,-1.0,-1.0,-1.0,1651086377732097.0,2
1337,0.0,-1.0,-2.0,0.0,-3.0,-1.0,0.0,1.0,1651086377732097.0,2
1338,0.0,0.0,0.0,-3.0,-2.0,-2.0,-1.0,0.0,1651086377740282.0,2
1339,-2.0,0.0,0.0,2.0,3.0,4.0,-1.0,-2.0,1651086377740282.0,2
1340,-1.0,-1.0,-2.0,1.0,1.0,1.0,-2.0,0.0,1651086377755659.0,2
1341,0.0,-1.0,0.0,-2.0,-1.0,1.0,0.0,-1.0,1651086377755659.0,2
1342,-1.0,-1.0,0.0,-1.0,0.0,0.0,-1.0,-1.0,1651086377756512.0,2
1343,0.0,-2.0,0.0,-1.0,-1.0,-4.0,-2.0,2.0,1651086377756512.0,2
1344,0.0,0.0,-1.0,-2.0,-2.0,-2.0,-2.0,-1.0,1651086377778205.0,0
1345,0.0,-2.0,-3.0,0.0,0.0,-1.0,-1.0,-2.0,1651086377778205.0,0
1346,-2.0,0.0,1.0,2.0,3.0,0.0,0.0,-1.0,1651086377779237.0,0
1347,1.0,0.0,-2.0,-3.0,-4.0,1.0,2.0,-1.0,1651086377779237.0,0
1348,0.0,0.0,-1.0,-2.0,-3.0,-3.0,1.0,-3.0,1651086377792045.0,0
1349,1.0,-1.0,-1.0,1.0,0.0,0.0,0.0,0.0,1651086377792045.0,0
1350,1.0,0.0,0.0,1.0,1.0,1.0,0.0,-1.0,1651086377800877.0,0
1351,0.0,-1.0,1.0,1.0,-1.0,-3.0,-1.0,0.0,1651086377800877.0,0
1352,-1.0,-1.0,0.0,-1.0,-2.0,1.0,0.0,-1.0,1651086377815349.0,0
1353,-2.0,-1.0,1.0,-1.0,1.0,1.0,-1.0,1.0,1651086377815349.0,0
1354,-1.0,-2.0,0.0,0.0,-1.0,-1.0,0.0,0.0,1651086377817228.0,0
1355,10.0,0.0,-1.0,-2.0,-3.0,0.0,-1.0,2.0,1651086377817228.0,0
1356,-5.0,-2.0,-2.0,-1.0,-5.0,-2.0,-1.0,-2.0,1651086377838347.0,0
1357,1.0,-2.0,0.0,2.0,4.0,1.0,-3.0,0.0,1651086377838347.0,0
1358,3.0,0.0,0.0,3.0,3.0,1.0,2.0,-1.0,1651086377839347.0,0
1359,-1.0,-1.0,-1.0,0.0,0.0,0.0,0.0,-1.0,1651086377839347.0,0
1360,-1.0,0.0,0.0,-1.0,-1.0,-1.0,0.0,0.0,1651086377851946.0,0
1361,1.0,0.0,-1.0,-2.0,-2.0,-2.0,0.0,-2.0,1651086377851946.0,0
1362,-2.0,1.0,-1.0,-2.0,-4.0,-1.0,-1.0,-1.0,1651086377861073.0,0
1363,-3.0,-1.0,-2.0,-3.0,-2.0,-1.0,0.0,-1.0,1651086377861073.0,0
1364,0.0,0.0,2.0,5.0,6.0,2.0,1.0,1.0,1651086377890729.0,0
1365,-3.0,1.0,-2.0,-1.0,-2.0,1.0,1.0,0.0,1651086377890729.0,0
1366,1.0,0.0,-1.0,-4.0,-5.0,-3.0,-2.0,0.0,1651086377891730.0,0
1367,-3.0,0.0,-2.0,-2.0,-2.0,-1.0,0.0,2.0,1651086377891730.0,0
1368,1.0,-1.0,-1.0,-3.0,-3.0,-1.0,-1.0,0.0,1651086377897714.0,0
1369,-1.0,1.0,1.0,1.0,2.0,1.0,-1.0,0.0,1651086377897714.0,0
1370,-2.0,-1.0,0.0,0.0,3.0,0.0,-1.0,1.0,1651086377899709.0,0
1371,-2.0,-1.0,-1.0,-2.0,-2.0,-1.0,-2.0,-1.0,1651086377899709.0,0
1372,1.0,0.0,-2.0,-4.0,-6.0,-3.0,-1.0,-1.0,1651086377911677.0,0
1373,-3.0,-1.0,-3.0,-1.0,2.0,2.0,0.0,0.0,1651086377911677.0,0
1374,-2.0,1.0,2.0,2.0,1.0,1.0,1.0,1.0,1651086377920809.0,0
1375,-3.0,-1.0,0.0,1.0,0.0,-1.0,-1.0,0.0,1651086377920809.0,0
1376,2.0,0.0,-2.0,0.0,-1.0,1.0,0.0,1.0,1651086377943808.0,0
1377,-1.0,1.0,-1.0,-2.0,-3.0,-3.0,0.0,-1.0,1651086377943808.0,0
1378,0.0,0.0,-3.0,-2.0,-1.0,-2.0,-1.0,-2.0,1651086377944774.0,0
1379,-10.0,-2.0,0.0,0.0,2.0,0.0,0.0,-2.0,1651086377944774.0,0
1380,-1.0,-1.0,-1.0,-1.0,1.0,-1.0,-1.0,0.0,1651086377957739.0,0
1381,2.0,-1.0,0.0,-3.0,-3.0,-2.0,-1.0,0.0,1651086377957739.0,0
1382,-2.0,-3.0,-2.0,-2.0,-2.0,-2.0,-2.0,0.0,1651086377959734.0,0
1383,1.0,1.0,-1.0,3.0,3.0,-2.0,-2.0,-2.0,1651086377959734.0,0
1384,1.0,0.0,-1.0,2.0,3.0,1.0,0.0,0.0,1651086377981033.0,0
1385,-4.0,-2.0,0.0,1.0,0.0,1.0,0.0,-1.0,1651086377981033.0,0
1386,-7.0,-2.0,-1.0,0.0,-1.0,0.0,0.0,0.0,1651086377982034.0,0
1387,1.0,0.0,-2.0,-2.0,-3.0,-2.0,-2.0,-1.0,1651086377982034.0,0
1388,-1.0,-1.0,1.0,-2.0,-1.0,-1.0,-1.0,0.0,1651086378003224.0,0
1389,2.0,-1.0,-2.0,-3.0,-4.0,-2.0,-2.0,1.0,1651086378003224.0,0
1390,0.0,0.0,0.0,0.0,2.0,1.0,0.0,-1.0,1651086378004250.0,0
1391,0.0,-1.0,1.0,5.0,6.0,4.0,1.0,0.0,1651086378004250.0,0
1392,-3.0,-2.0,-2.0,-2.0,0.0,-1.0,2.0,-2.0,1651086378018392.0,0
1393,1.0,-1.0,-1.0,-2.0,-3.0,-2.0,-1.0,0.0,1651086378018392.0,0
1394,1.0,1.0,-3.0,-2.0,-5.0,-2.0,-2.0,0.0,1651086378019106.0,0
1395,-2.0,-1.0,0.0,-3.0,-2.0,-1.0,0.0,-3.0,1651086378019106.0,0
1396,0.0,-3.0,1.0,0.0,2.0,1.0,2.0,0.0,1651086378041397.0,0
1397,0.0,-1.0,-3.0,-2.0,0.0,-2.0,0.0,0.0,1651086378041397.0,0
1398,1.0,-2.0,0.0,-2.0,-2.0,-3.0,0.0,-1.0,1651086378042263.0,0
1399,1.0,3.0,0.0,2.0,1.0,0.0,0.0,0.0,1651086378042263.0,0
1400,-1.0,-1.0,1.0,1.0,2.0,1.0,0.0,0.0,1651086378055304.0,0
1401,-1.0,0.0,1.0,-1.0,1.0,0.0,0.0,0.0,1651086378055304.0,0
1402,-1.0,-1.0,2.0,0.0,1.0,-2.0,0.0,0.0,1651086378064274.0,0
1403,7.0,0.0,-3.0,-1.0,-1.0,1.0,0.0,0.0,1651086378064274.0,0
1404,0.0,1.0,-2.0,-1.0,-3.0,-3.0,-2.0,-1.0,1651086378078161.0,0
1405,-1.0,1.0,-2.0,0.0,-2.0,0.0,-1.0,1.0,1651086378078161.0,0
1406,2.0,-2.0,1.0,0.0,-1.0,1.0,-1.0,-1.0,1651086378079193.0,0
1407,-1.0,-1.0,0.0,0.0,1.0,0.0,-1.0,1.0,1651086378079193.0,0
1408,0.0,0.0,0.0,0.0,1.0,0.0,0.0,-2.0,1651086378101407.0,0
1409,0.0,0.0,-2.0,-1.0,0.0,-1.0,0.0,0.0,1651086378101407.0,0
1410,-2.0,1.0,-1.0,-1.0,-2.0,-1.0,-1.0,0.0,1651086378102245.0,0
1411,-3.0,-2.0,0.0,-2.0,-2.0,-2.0,-2.0,-1.0,1651086378102245.0,0
1412,1.0,1.0,1.0,1.0,-2.0,-2.0,0.0,0.0,1651086378115328.0,0
1413,-2.0,-1.0,1.0,-1.0,-1.0,-1.0,0.0,-1.0,1651086378115328.0,0
1414,1.0,-1.0,-2.0,1.0,2.0,1.0,-1.0,0.0,1651086378121193.0,0
1415,0.0,-2.0,0.0,-3.0,-1.0,-1.0,-1.0,-1.0,1651086378121193.0,0
1416,-1.0,0.0,0.0,-2.0,2.0,1.0,0.0,1.0,1651086378138257.0,0
1417,-1.0,0.0,1.0,1.0,0.0,-1.0,0.0,-2.0,1651086378138257.0,0
1418,0.0,-2.0,0.0,0.0,-1.0,-1.0,-1.0,0.0,1651086378139232.0,0
1419,0.0,1.0,-1.0,-1.0,-2.0,-1.0,-3.0,-1.0,1651086378139232.0,0
1420,-2.0,0.0,-2.0,-1.0,-3.0,-2.0,-3.0,0.0,1651086378160383.0,0
1421,-1.0,0.0,-1.0,0.0,1.0,-1.0,0.0,-2.0,1651086378160383.0,0
1422,-1.0,0.0,-2.0,-2.0,-1.0,0.0,1.0,0.0,1651086378162224.0,0
1423,-2.0,0.0,1.0,0.0,0.0,-2.0,0.0,-1.0,1651086378162224.0,0
1424,0.0,0.0,1.0,-1.0,-1.0,-1.0,-1.0,-1.0,1651086378175391.0,0
1425,0.0,0.0,1.0,-1.0,0.0,0.0,0.0,0.0,1651086378175391.0,0
1426,-1.0,1.0,-1.0,1.0,0.0,2.0,-1.0,-1.0,1651086378182475.0,0
1427,1.0,-1.0,-2.0,-1.0,-1.0,0.0,1.0,-1.0,1651086378182475.0,0
1428,1.0,-1.0,-3.0,0.0,-1.0,-2.0,-1.0,-2.0,1651086378199244.0,0
1429,-1.0,0.0,-2.0,0.0,2.0,-2.0,0.0,-1.0,1651086378199244.0,0
1430,-1.0,-1.0,-1.0,-2.0,-3.0,-2.0,-2.0,0.0,1651086378200276.0,0
1431,-1.0,0.0,-2.0,-2.0,-1.0,-1.0,0.0,-2.0,1651086378200276.0,0
1432,-1.0,-1.0,0.0,0.0,0.0,0.0,0.0,-2.0,1651086378221518.0,0
1433,1.0,-1.0,2.0,2.0,1.0,1.0,0.0,-1.0,1651086378221518.0,0
1434,-3.0,-1.0,-1.0,-2.0,1.0,-2.0,2.0,-2.0,1651086378222518.0,0
1435,1.0,2.0,0.0,0.0,1.0,-2.0,0.0,0.0,1651086378222518.0,0
1436,1.0,0.0,-3.0,-3.0,-3.0,-3.0,-2.0,2.0,1651086378235817.0,0
1437,-4.0,0.0,-1.0,-1.0,-1.0,2.0,1.0,0.0,1651086378235817.0,0
1438,8.0,-1.0,-1.0,0.0,1.0,0.0,-1.0,-1.0,1651086378250164.0,0
1439,-2.0,-1.0,-2.0,-2.0,-1.0,-2.0,-1.0,2.0,1651086378250164.0,0
1440,-1.0,-2.0,-2.0,-1.0,-1.0,-1.0,-1.0,-2.0,1651086378258598.0,0
1441,0.0,2.0,0.0,-2.0,-3.0,-3.0,-2.0,0.0,1651086378258598.0,0
1442,-2.0,-2.0,-2.0,1.0,3.0,2.0,-1.0,0.0,1651086378259067.0,0
1443,-2.0,0.0,10.0,2.0,-3.0,-1.0,-1.0,0.0,1651086378259067.0,0
1444,1.0,-5.0,-15.0,-5.0,-4.0,-1.0,-2.0,0.0,1651086378281121.0,0
1445,-1.0,1.0,1.0,-2.0,-1.0,-1.0,-2.0,-1.0,1651086378281121.0,0
1446,0.0,1.0,-8.0,-3.0,-3.0,-2.0,0.0,0.0,1651086378282381.0,0
1447,-1.0,-8.0,4.0,0.0,-5.0,-3.0,-3.0,-2.0,1651086378282381.0,0
1448,-3.0,11.0,8.0,2.0,10.0,7.0,0.0,-2.0,1651086378294397.0,0
1449,0.0,-4.0,-5.0,-5.0,-8.0,-2.0,2.0,-1.0,1651086378294397.0,0
1450,-1.0,0.0,1.0,11.0,21.0,6.0,0.0,0.0,1651086378301929.0,0
1451,-3.0,7.0,-2.0,-4.0,-6.0,-2.0,-1.0,-1.0,1651086378301929.0,0
1452,0.0,-4.0,6.0,2.0,-6.0,-4.0,-1.0,1.0,1651086378318354.0,0
1453,-1.0,1.0,-4.0,-3.0,-3.0,-2.0,-1.0,-1.0,1651086378318354.0,0
1454,0.0,-5.0,-3.0,-5.0,-7.0,-3.0,0.0,-1.0,1651086378319249.0,0
1455,0.0,-1.0,-6.0,-3.0,0.0,1.0,0.0,-1.0,1651086378319249.0,0
1456,-1.0,1.0,3.0,-4.0,-2.0,-2.0,-1.0,-1.0,1651086378340187.0,0
1457,3.0,-1.0,1.0,-2.0,3.0,0.0,0.0,1.0,1651086378340187.0,0
1458,-4.0,-3.0,1.0,-2.0,-5.0,-3.0,0.0,0.0,1651086378342146.0,0
1459,1.0,0.0,-4.0,-6.0,-4.0,-2.0,0.0,-2.0,1651086378342146.0,0
1460,-1.0,-1.0,-3.0,-3.0,-6.0,0.0,-1.0,2.0,1651086378355278.0,0
1461,0.0,-3.0,-1.0,-10.0,-7.0,-7.0,-3.0,-1.0,1651086378355278.0,0
1462,2.0,4.0,6.0,9.0,21.0,11.0,1.0,1.0,1651086378361128.0,0
1463,-2.0,-3.0,-4.0,-1.0,-2.0,-2.0,2.0,0.0,1651086378361128.0,0
1464,0.0,-13.0,3.0,15.0,36.0,13.0,5.0,1.0,1651086378378134.0,0
1465,-1.0,3.0,-5.0,10.0,-9.0,-4.0,0.0,-1.0,1651086378378134.0,0
1466,-2.0,16.0,6.0,-7.0,-7.0,-5.0,-3.0,-2.0,1651086378379185.0,3
1467,1.0,-1.0,2.0,-1.0,9.0,3.0,1.0,2.0,1651086378379185.0,3
1468,0.0,-2.0,-5.0,8.0,0.0,0.0,-1.0,1.0,1651086378400385.0,3
1469,-1.0,-18.0,-6.0,4.0,0.0,0.0,0.0,0.0,1651086378400385.0,3
1470,-2.0,16.0,2.0,-8.0,-9.0,-4.0,0.0,-1.0,1651086378402228.0,3
1471,0.0,-2.0,-7.0,-8.0,-1.0,2.0,0.0,-2.0,1651086378402228.0,3
1472,-2.0,-3.0,-7.0,-7.0,-6.0,-5.0,-1.0,-2.0,1651086378415359.0,3
1473,0.0,8.0,10.0,0.0,6.0,3.0,-1.0,0.0,1651086378415359.0,3
1474,0.0,-7.0,-4.0,-4.0,-13.0,-4.0,-2.0,0.0,1651086378422503.0,3
1475,-3.0,-1.0,0.0,2.0,-7.0,-2.0,-3.0,-1.0,1651086378422503.0,3
1476,1.0,2.0,-5.0,-1.0,1.0,-2.0,-2.0,0.0,1651086378445213.0,3
1477,-1.0,1.0,2.0,1.0,-2.0,0.0,1.0,0.0,1651086378445213.0,3
1478,-1.0,-5.0,3.0,0.0,5.0,1.0,-1.0,-1.0,1651086378447239.0,3
1479,0.0,-8.0,-17.0,-2.0,-7.0,-6.0,-4.0,-2.0,1651086378447239.0,3
1480,-1.0,1.0,-4.0,-15.0,-15.0,-5.0,-2.0,-3.0,1651086378460339.0,3
1481,-1.0,-6.0,13.0,15.0,16.0,12.0,2.0,1.0,1651086378460339.0,3
1482,-2.0,2.0,-4.0,-4.0,-8.0,-5.0,-1.0,-1.0,1651086378462199.0,3
1483,2.0,-9.0,-1.0,1.0,-12.0,-8.0,0.0,0.0,1651086378462199.0,3
1484,-1.0,16.0,9.0,14.0,25.0,11.0,0.0,0.0,1651086378474299.0,3
1485,-1.0,-1.0,-12.0,-15.0,-13.0,-5.0,-2.0,0.0,1651086378474299.0,3
1486,-2.0,-17.0,-9.0,-15.0,-19.0,-6.0,-1.0,-1.0,1651086378483176.0,3
1487,0.0,17.0,11.0,10.0,16.0,5.0,-1.0,0.0,1651086378483176.0,3
1488,-2.0,-6.0,-6.0,-7.0,-27.0,-8.0,-1.0,-1.0,1651086378499217.0,3
1489,2.0,2.0,1.0,1.0,4.0,1.0,0.0,0.0,1651086378499217.0,3
1490,-2.0,-8.0,-1.0,0.0,-3.0,-4.0,-3.0,-1.0,1651086378504337.0,3
1491,-3.0,-5.0,-3.0,-11.0,-19.0,-13.0,-4.0,-3.0,1651086378504337.0,3
1492,0.0,0.0,15.0,14.0,22.0,14.0,5.0,2.0,1651086378528176.0,3
1493,-1.0,6.0,-4.0,3.0,14.0,2.0,0.0,0.0,1651086378528176.0,3
1494,-1.0,-7.0,-18.0,-15.0,-21.0,-8.0,-1.0,-2.0,1651086378530168.0,3
1495,1.0,4.0,11.0,5.0,14.0,5.0,1.0,-1.0,1651086378530168.0,3
1496,0.0,3.0,-2.0,-24.0,-47.0,-18.0,-4.0,0.0,1651086378543430.0,3
1497,-4.0,-12.0,-4.0,43.0,57.0,16.0,3.0,-2.0,1651086378543430.0,3
1498,0.0,-3.0,4.0,-4.0,-5.0,0.0,0.0,0.0,1651086378543430.0,3
1499,1.0,16.0,15.0,18.0,32.0,10.0,3.0,2.0,1651086378543430.0,3
1500,-1.0,-5.0,2.0,5.0,8.0,1.0,-2.0,-1.0,1651086378557400.0,3
1501,-1.0,2.0,-12.0,-25.0,-34.0,-16.0,-6.0,-1.0,1651086378557400.0,3
1502,-1.0,1.0,2.0,9.0,2.0,-1.0,1.0,0.0,1651086378565369.0,3
1503,-2.0,-8.0,-9.0,-17.0,-15.0,-4.0,-3.0,-2.0,1651086378565369.0,3
1504,-2.0,-1.0,-23.0,-14.0,5.0,1.0,-1.0,-1.0,1651086378579796.0,3
1505,0.0,0.0,2.0,-13.0,-19.0,-4.0,0.0,0.0,1651086378579796.0,3
1506,-1.0,3.0,12.0,20.0,20.0,3.0,-6.0,-1.0,1651086378580665.0,3
1507,1.0,-6.0,-12.0,-12.0,-12.0,-4.0,-1.0,1.0,1651086378580665.0,3
1508,0.0,-1.0,4.0,10.0,13.0,-1.0,0.0,0.0,1651086378602440.0,3
1509,2.0,5.0,3.0,-3.0,-8.0,5.0,2.0,0.0,1651086378602440.0,3
1510,0.0,-2.0,-7.0,-1.0,13.0,6.0,2.0,-2.0,1651086378603080.0,3
1511,-1.0,0.0,9.0,13.0,5.0,0.0,-1.0,-1.0,1651086378603080.0,3
1512,2.0,-2.0,6.0,4.0,1.0,2.0,1.0,1.0,1651086378617585.0,3
1513,-1.0,-2.0,-17.0,-14.0,-16.0,-9.0,-6.0,-2.0,1651086378617585.0,3
1514,0.0,1.0,-7.0,-3.0,-5.0,-5.0,0.0,1.0,1651086378617585.0,3
1515,-2.0,-4.0,0.0,-5.0,-1.0,5.0,-2.0,-1.0,1651086378617585.0,3
1516,-2.0,1.0,15.0,1.0,-7.0,-9.0,-5.0,-2.0,1651086378639983.0,3
1517,-2.0,1.0,1.0,-2.0,9.0,6.0,2.0,1.0,1651086378639983.0,3
1518,0.0,3.0,-3.0,4.0,14.0,8.0,3.0,2.0,1651086378640868.0,3
1519,-1.0,-1.0,-13.0,-2.0,2.0,-1.0,3.0,1.0,1651086378640868.0,3
1520,-1.0,-5.0,-7.0,-5.0,-4.0,-4.0,-5.0,-3.0,1651086378662698.0,3
1521,1.0,2.0,20.0,2.0,-8.0,-6.0,-1.0,0.0,1651086378662698.0,3
1522,0.0,-1.0,-14.0,0.0,5.0,-1.0,-2.0,-1.0,1651086378663063.0,3
1523,0.0,-3.0,-1.0,4.0,3.0,4.0,3.0,1.0,1651086378663063.0,3
1524,0.0,4.0,24.0,6.0,5.0,1.0,1.0,0.0,1651086378677712.0,3
1525,-3.0,-6.0,-12.0,-7.0,-4.0,-1.0,-1.0,-1.0,1651086378677712.0,3
1526,0.0,-1.0,-3.0,-3.0,-1.0,1.0,-2.0,-1.0,1651086378678143.0,3
1527,-2.0,0.0,-11.0,-2.0,-5.0,-2.0,-1.0,-1.0,1651086378678143.0,3
1528,-1.0,-5.0,8.0,0.0,-4.0,-3.0,1.0,0.0,1651086378700322.0,3
1529,1.0,0.0,-8.0,-2.0,7.0,0.0,-2.0,0.0,1651086378700322.0,3
1530,-1.0,0.0,17.0,4.0,-1.0,1.0,1.0,0.0,1651086378700322.0,3
1531,0.0,-6.0,10.0,1.0,4.0,2.0,0.0,-1.0,1651086378700322.0,3
1532,2.0,10.0,0.0,0.0,-5.0,-4.0,-1.0,-1.0,1651086378723217.0,3
1533,-1.0,-3.0,-30.0,-9.0,-6.0,-3.0,-1.0,0.0,1651086378723217.0,3
1534,-2.0,4.0,38.0,30.0,18.0,6.0,4.0,0.0,1651086378723217.0,3
1535,-1.0,-3.0,-14.0,-16.0,-10.0,-9.0,-7.0,0.0,1651086378723217.0,3
1536,0.0,-8.0,-12.0,-12.0,-6.0,-2.0,-1.0,0.0,1651086378738970.0,3
1537,-1.0,-1.0,1.0,-11.0,5.0,4.0,7.0,0.0,1651086378738970.0,3
1538,-2.0,0.0,2.0,9.0,-18.0,-12.0,-8.0,-6.0,1651086378739072.0,3
1539,-1.0,-2.0,-2.0,6.0,26.0,10.0,3.0,2.0,1651086378739072.0,3
1540,-2.0,2.0,4.0,16.0,6.0,3.0,1.0,-1.0,1651086378760294.0,3
1541,1.0,2.0,13.0,-4.0,-1.0,-2.0,0.0,2.0,1651086378760294.0,3
1542,1.0,-4.0,-29.0,-40.0,-14.0,-3.0,2.0,2.0,1651086378760294.0,3
1543,-2.0,3.0,22.0,18.0,-14.0,-6.0,-4.0,-3.0,1651086378760294.0,3
1544,-1.0,-8.0,-6.0,-9.0,-4.0,-1.0,-2.0,-2.0,1651086378782722.0,3
1545,1.0,7.0,-14.0,-18.0,-16.0,-5.0,-3.0,-2.0,1651086378782722.0,3
1546,0.0,-6.0,28.0,41.0,48.0,17.0,6.0,2.0,1651086378783058.0,3
1547,-2.0,7.0,0.0,-7.0,-10.0,-5.0,-5.0,-2.0,1651086378783058.0,3
1548,0.0,-2.0,-14.0,-5.0,-1.0,6.0,8.0,2.0,1651086378806357.0,3
1549,-2.0,-16.0,13.0,8.0,-12.0,-8.0,-7.0,-3.0,1651086378806357.0,3
1550,-1.0,24.0,-6.0,-23.0,-14.0,-3.0,-3.0,0.0,1651086378806357.0,3
1551,2.0,-3.0,-22.0,6.0,7.0,5.0,4.0,3.0,1651086378806357.0,3
1552,0.0,3.0,4.0,10.0,1.0,-1.0,1.0,-1.0,1651086378821293.0,3
1553,1.0,-4.0,11.0,4.0,6.0,1.0,-2.0,-2.0,1651086378821293.0,3
1554,0.0,-5.0,1.0,0.0,-4.0,-1.0,3.0,1.0,1651086378822325.0,3
1555,-1.0,-1.0,1.0,-10.0,-5.0,-6.0,-8.0,-3.0,1651086378822325.0,3
1556,-2.0,-1.0,0.0,-3.0,-6.0,-3.0,0.0,0.0,1651086378843103.0,3
1557,0.0,1.0,3.0,9.0,10.0,2.0,1.0,0.0,1651086378843103.0,3
1558,0.0,-6.0,-3.0,-6.0,-4.0,-3.0,-1.0,0.0,1651086378843103.0,3
1559,-1.0,3.0,8.0,-3.0,-13.0,1.0,6.0,0.0,1651086378843103.0,3
1560,1.0,-1.0,-2.0,5.0,18.0,6.0,-1.0,0.0,1651086378858257.0,3
1561,-2.0,0.0,-4.0,2.0,0.0,-2.0,-2.0,0.0,1651086378858257.0,3
1562,-2.0,6.0,15.0,-9.0,-15.0,-6.0,-3.0,-3.0,1651086378865254.0,3
1563,1.0,3.0,-13.0,-11.0,4.0,-1.0,1.0,-1.0,1651086378865254.0,3
1564,-2.0,-14.0,-6.0,17.0,22.0,8.0,-1.0,0.0,1651086378880637.0,3
1565,0.0,13.0,14.0,17.0,2.0,2.0,1.0,-1.0,1651086378880637.0,3
1566,-4.0,-9.0,-15.0,-18.0,-24.0,-13.0,-4.0,-2.0,1651086378880637.0,3
1567,0.0,-11.0,10.0,15.0,11.0,11.0,6.0,2.0,1651086378880637.0,3
1568,3.0,28.0,6.0,-14.0,-13.0,-4.0,2.0,2.0,1651086378903228.0,3
1569,-1.0,-5.0,-17.0,-16.0,0.0,4.0,2.0,1.0,1651086378903228.0,3
1570,1.0,7.0,5.0,11.0,-2.0,-3.0,-4.0,0.0,1651086378903228.0,3
1571,-3.0,-8.0,-4.0,-17.0,-15.0,-6.0,-5.0,-6.0,1651086378903228.0,3
1572,0.0,-7.0,-10.0,4.0,-4.0,-1.0,-1.0,-1.0,1651086378918370.0,3
1573,-4.0,0.0,14.0,2.0,2.0,-1.0,-1.0,-4.0,1651086378918370.0,3
1574,-1.0,2.0,-11.0,-15.0,-11.0,-3.0,-5.0,-4.0,1651086378918370.0,3
1575,2.0,-6.0,-11.0,-1.0,6.0,1.0,1.0,2.0,1651086378918370.0,3
1576,-2.0,-3.0,15.0,4.0,-4.0,-2.0,-4.0,-3.0,1651086378940510.0,3
1577,-2.0,-5.0,-22.0,0.0,-1.0,-5.0,-4.0,-4.0,1651086378940510.0,3
1578,6.0,0.0,-3.0,-1.0,12.0,9.0,8.0,5.0,1651086378940510.0,3
1579,-3.0,9.0,16.0,4.0,1.0,-4.0,-2.0,-2.0,1651086378940510.0,3
1580,1.0,-3.0,-7.0,-11.0,-4.0,-4.0,-1.0,0.0,1651086378962310.0,3
1581,0.0,-4.0,4.0,2.0,-3.0,-2.0,-2.0,-2.0,1651086378962310.0,3
1582,-1.0,-26.0,-24.0,-7.0,5.0,0.0,-4.0,-1.0,1651086378963060.0,3
1583,-1.0,17.0,19.0,3.0,2.0,4.0,4.0,1.0,1651086378963060.0,3
1584,-1.0,-3.0,1.0,2.0,-12.0,-4.0,0.0,-1.0,1651086378977406.0,3
1585,0.0,4.0,11.0,1.0,7.0,2.0,2.0,1.0,1651086378977406.0,3
1586,-3.0,-2.0,-11.0,-18.0,-18.0,-7.0,-4.0,-2.0,1651086378984365.0,3
1587,3.0,-9.0,-12.0,29.0,38.0,7.0,0.0,2.0,1651086378984365.0,3
1588,-1.0,-5.0,-13.0,-5.0,-4.0,0.0,0.0,0.0,1651086379000339.0,3
1589,-1.0,9.0,31.0,14.0,-1.0,-2.0,-2.0,0.0,1651086379000339.0,3
1590,-1.0,-3.0,-13.0,4.0,12.0,5.0,1.0,-1.0,1651086379000339.0,3
1591,-1.0,0.0,-2.0,-24.0,-23.0,-10.0,-4.0,-3.0,1651086379000339.0,3
1592,-1.0,2.0,2.0,-1.0,7.0,3.0,-1.0,-2.0,1651086379023198.0,3
1593,-1.0,-2.0,-5.0,12.0,3.0,3.0,5.0,1.0,1651086379023198.0,3
1594,0.0,5.0,17.0,7.0,-4.0,0.0,0.0,2.0,1651086379023198.0,3
1595,-4.0,-13.0,-14.0,-7.0,-3.0,-1.0,-1.0,-2.0,1651086379023198.0,3
1596,-1.0,4.0,4.0,1.0,-1.0,-3.0,0.0,0.0,1651086379037568.0,3
1597,-2.0,-5.0,-12.0,-23.0,-10.0,-5.0,-3.0,0.0,1651086379037568.0,3
1598,-3.0,3.0,2.0,7.0,6.0,-1.0,-2.0,-1.0,1651086379044551.0,3
1599,-2.0,3.0,-5.0,11.0,0.0,2.0,2.0,0.0,1651086379044551.0,3
1600,-1.0,-4.0,7.0,1.0,-5.0,-4.0,-1.0,-1.0,1651086379059908.0,3
1601,0.0,0.0,-29.0,-13.0,-1.0,-1.0,0.0,0.0,1651086379059908.0,3
1602,-1.0,4.0,3.0,0.0,-2.0,-3.0,-2.0,-3.0,1651086379060818.0,3
1603,1.0,-3.0,-8.0,-7.0,-6.0,-4.0,-2.0,-2.0,1651086379060818.0,3
1604,0.0,5.0,12.0,5.0,-1.0,1.0,-2.0,-2.0,1651086379083090.0,3
1605,-2.0,-3.0,10.0,3.0,5.0,2.0,3.0,2.0,1651086379083090.0,3
1606,-1.0,-6.0,-14.0,-3.0,1.0,1.0,4.0,2.0,1651086379083090.0,3
1607,0.0,4.0,4.0,0.0,-7.0,-2.0,-5.0,-1.0,1651086379083090.0,3
1608,-1.0,-4.0,1.0,-4.0,-7.0,-2.0,0.0,2.0,1651086379097693.0,3
1609,5.0,4.0,3.0,-3.0,6.0,3.0,1.0,2.0,1651086379097693.0,3
1610,1.0,-4.0,-4.0,3.0,2.0,-1.0,-3.0,0.0,1651086379097693.0,3
1611,0.0,0.0,25.0,8.0,-2.0,1.0,0.0,-1.0,1651086379097693.0,3
1612,-2.0,2.0,-29.0,-16.0,2.0,-2.0,-3.0,-2.0,1651086379120186.0,3
1613,0.0,1.0,22.0,4.0,-1.0,2.0,0.0,0.0,1651086379120186.0,3
1614,-2.0,-2.0,9.0,9.0,0.0,2.0,5.0,0.0,1651086379120186.0,3
1615,-2.0,2.0,-6.0,-2.0,2.0,1.0,-1.0,1.0,1651086379120186.0,3
1616,1.0,-3.0,-2.0,-12.0,-4.0,-2.0,-1.0,0.0,1651086379142693.0,3
1617,0.0,-3.0,-11.0,7.0,-4.0,-4.0,-4.0,-4.0,1651086379142693.0,3
1618,0.0,3.0,3.0,9.0,14.0,5.0,-1.0,1.0,1651086379143099.0,3
1619,-3.0,-6.0,-24.0,-14.0,-6.0,-2.0,-1.0,-1.0,1651086379143099.0,3
1620,-1.0,8.0,1.0,0.0,-2.0,-2.0,1.0,0.0,1651086379157693.0,3
1621,-1.0,-4.0,-6.0,-6.0,-4.0,-2.0,0.0,-4.0,1651086379157693.0,3
1622,-1.0,-2.0,8.0,5.0,-4.0,1.0,-1.0,0.0,1651086379157693.0,3
1623,3.0,6.0,9.0,1.0,6.0,2.0,2.0,2.0,1651086379157693.0,3
1624,-1.0,-4.0,-16.0,-9.0,-11.0,-4.0,-3.0,-2.0,1651086379179235.0,3
1625,-2.0,6.0,14.0,16.0,11.0,1.0,-1.0,-2.0,1651086379179235.0,3
1626,1.0,0.0,-13.0,-8.0,-3.0,-5.0,-3.0,-4.0,1651086379180270.0,3
1627,0.0,-8.0,-2.0,-6.0,-4.0,1.0,4.0,1.0,1651086379180270.0,3
1628,-1.0,-17.0,6.0,3.0,-1.0,1.0,-1.0,0.0,1651086379202489.0,3
1629,1.0,1.0,-13.0,-8.0,-2.0,-3.0,2.0,3.0,1651086379202489.0,3
1630,-5.0,3.0,14.0,-6.0,0.0,-1.0,-3.0,-5.0,1651086379203095.0,3
1631,1.0,1.0,7.0,8.0,-10.0,-5.0,-4.0,2.0,1651086379203095.0,3
1632,1.0,-1.0,-15.0,-7.0,1.0,1.0,0.0,-1.0,1651086379217714.0,3
1633,0.0,-7.0,11.0,18.0,18.0,8.0,6.0,1.0,1651086379217714.0,3
1634,-1.0,4.0,-9.0,-8.0,-6.0,-6.0,-3.0,-1.0,1651086379217714.0,3
1635,-1.0,6.0,6.0,0.0,0.0,-1.0,1.0,-1.0,1651086379217714.0,3
1636,-3.0,-2.0,-15.0,-26.0,-12.0,-7.0,-1.0,-2.0,1651086379240112.0,3
1637,1.0,5.0,20.0,29.0,6.0,2.0,1.0,2.0,1651086379240112.0,3
1638,3.0,-10.0,-5.0,-1.0,2.0,3.0,4.0,4.0,1651086379240112.0,3
1639,1.0,6.0,14.0,2.0,-3.0,-2.0,0.0,-1.0,1651086379240112.0,3
1640,3.0,-2.0,-5.0,5.0,4.0,1.0,3.0,0.0,1651086379262045.0,3
1641,-5.0,0.0,-9.0,-13.0,-8.0,-4.0,-5.0,-4.0,1651086379262045.0,3
1642,2.0,1.0,20.0,4.0,-5.0,-2.0,-1.0,0.0,1651086379263033.0,3
1643,1.0,-3.0,-4.0,1.0,1.0,2.0,1.0,2.0,1651086379263033.0,3
1644,-1.0,7.0,6.0,6.0,1.0,1.0,0.0,-1.0,1651086379277692.0,3
1645,-1.0,-6.0,-2.0,-9.0,1.0,0.0,-3.0,-1.0,1651086379277692.0,3
1646,1.0,-3.0,0.0,8.0,0.0,2.0,1.0,-1.0,1651086379278040.0,3
1647,-4.0,-7.0,-13.0,-10.0,1.0,-2.0,-5.0,-2.0,1651086379278040.0,3
1648,2.0,15.0,1.0,-2.0,1.0,2.0,2.0,2.0,1651086379300388.0,3
1649,0.0,3.0,12.0,8.0,-8.0,-2.0,-2.0,1.0,1651086379300388.0,3
1650,-1.0,3.0,-7.0,-4.0,0.0,-2.0,-1.0,-1.0,1651086379300388.0,3
1651,0.0,-8.0,-14.0,-8.0,7.0,6.0,4.0,0.0,1651086379300388.0,3
1652,-4.0,-6.0,18.0,20.0,6.0,3.0,0.0,-2.0,1651086379322489.0,3
1653,2.0,-3.0,-20.0,-18.0,-5.0,-7.0,-4.0,1.0,1651086379322489.0,3
1654,-1.0,3.0,3.0,6.0,1.0,1.0,0.0,1.0,1651086379323096.0,3
1655,0.0,7.0,3.0,8.0,0.0,0.0,-1.0,-4.0,1651086379323096.0,3
1656,0.0,-20.0,-35.0,-23.0,-4.0,2.0,1.0,-1.0,1651086379337300.0,3
1657,-7.0,3.0,20.0,17.0,-3.0,-3.0,-1.0,-3.0,1651086379337300.0,3
1658,1.0,1.0,0.0,-8.0,-2.0,2.0,2.0,0.0,1651086379338300.0,3
1659,2.0,0.0,-3.0,0.0,-1.0,-3.0,-3.0,2.0,1651086379338300.0,3
1660,0.0,5.0,1.0,-2.0,-3.0,-1.0,-2.0,2.0,1651086379368346.0,3
1661,0.0,-13.0,-8.0,2.0,11.0,1.0,-2.0,-3.0,1651086379368346.0,3
1662,0.0,1.0,-5.0,-10.0,-5.0,-4.0,-2.0,-1.0,1651086379369201.0,3
1663,-4.0,-10.0,-15.0,-7.0,-9.0,-2.0,-3.0,-2.0,1651086379369201.0,3
1664,2.0,21.0,23.0,21.0,14.0,6.0,3.0,1.0,1651086379383329.0,3
1665,0.0,6.0,-22.0,-15.0,-10.0,-1.0,-3.0,0.0,1651086379383329.0,3
1666,-1.0,4.0,10.0,12.0,3.0,0.0,-1.0,-2.0,1651086379383329.0,3
1667,-2.0,-3.0,-5.0,-12.0,-8.0,-5.0,-3.0,-5.0,1651086379383329.0,3
1668,-1.0,-9.0,9.0,2.0,-9.0,-6.0,-3.0,-1.0,1651086379397387.0,3
1669,2.0,4.0,-15.0,-8.0,2.0,1.0,0.0,-1.0,1651086379397387.0,3
1670,2.0,9.0,18.0,8.0,-7.0,-3.0,-1.0,1.0,1651086379398249.0,3
1671,-2.0,-7.0,6.0,9.0,6.0,-1.0,-1.0,-1.0,1651086379398249.0,3
1672,-2.0,0.0,12.0,7.0,8.0,3.0,0.0,-1.0,1651086379420332.0,3
1673,0.0,-3.0,1.0,-13.0,-5.0,1.0,3.0,-1.0,1651086379420332.0,3
1674,-1.0,-13.0,-35.0,-11.0,-5.0,-2.0,-3.0,0.0,1651086379420332.0,3
1675,2.0,11.0,18.0,6.0,1.0,-1.0,0.0,2.0,1651086379420332.0,3
1676,3.0,1.0,-9.0,10.0,1.0,1.0,0.0,3.0,1651086379442643.0,3
1677,2.0,-2.0,8.0,4.0,-1.0,1.0,0.0,-1.0,1651086379442643.0,3
1678,-1.0,0.0,29.0,5.0,5.0,2.0,1.0,-3.0,1651086379443474.0,3
1679,-1.0,2.0,-11.0,2.0,1.0,4.0,0.0,-1.0,1651086379443474.0,3
1680,0.0,-3.0,-3.0,-5.0,-3.0,-3.0,-4.0,-2.0,1651086379457377.0,3
1681,-1.0,2.0,-2.0,1.0,-4.0,-1.0,-1.0,1.0,1651086379457377.0,3
1682,1.0,-4.0,-7.0,-8.0,-3.0,-1.0,0.0,-1.0,1651086379458244.0,3
1683,-2.0,-11.0,3.0,0.0,5.0,-1.0,-1.0,-1.0,1651086379458244.0,3
1684,-2.0,4.0,-2.0,7.0,4.0,1.0,0.0,0.0,1651086379480592.0,3
1685,-2.0,-1.0,2.0,-4.0,-5.0,-4.0,-3.0,-2.0,1651086379480592.0,3
1686,-1.0,-1.0,2.0,-4.0,1.0,-1.0,1.0,2.0,1651086379480592.0,3
1687,0.0,1.0,8.0,9.0,3.0,2.0,-1.0,-1.0,1651086379480592.0,3
1688,-2.0,-8.0,-24.0,-21.0,-2.0,-4.0,-5.0,-2.0,1651086379502458.0,3
1689,0.0,3.0,31.0,22.0,5.0,1.0,0.0,1.0,1651086379502458.0,3
1690,-1.0,16.0,1.0,-5.0,-10.0,-3.0,-3.0,-1.0,1651086379503097.0,3
1691,3.0,-9.0,-24.0,-12.0,5.0,0.0,2.0,2.0,1651086379503097.0,3
1692,-2.0,-4.0,-1.0,5.0,1.0,-3.0,-3.0,-3.0,1651086379517319.0,3
1693,0.0,9.0,13.0,-1.0,3.0,1.0,1.0,1.0,1651086379517319.0,3
1694,2.0,-5.0,-15.0,-2.0,8.0,3.0,2.0,2.0,1651086379525322.0,3
1695,-2.0,10.0,16.0,2.0,-8.0,-4.0,-1.0,-4.0,1651086379525322.0,3
1696,-2.0,0.0,7.0,-7.0,-3.0,1.0,3.0,1.0,1651086379540281.0,3
1697,0.0,-5.0,-21.0,-6.0,2.0,-1.0,-3.0,-1.0,1651086379540281.0,3
1698,-1.0,-3.0,12.0,10.0,-3.0,-1.0,-2.0,1.0,1651086379540281.0,3
1699,-2.0,-2.0,-35.0,-16.0,-4.0,-3.0,-3.0,-3.0,1651086379540281.0,3
1700,-2.0,-4.0,6.0,-2.0,-2.0,-1.0,-4.0,-2.0,1651086379563317.0,3
1701,0.0,-4.0,-14.0,-4.0,-5.0,-2.0,3.0,2.0,1651086379563317.0,3
1702,-1.0,-2.0,19.0,11.0,2.0,1.0,0.0,-1.0,1651086379563317.0,3
1703,-3.0,4.0,-3.0,3.0,0.0,-4.0,-5.0,-3.0,1651086379563317.0,3
1704,1.0,-4.0,-5.0,-3.0,-8.0,-4.0,-5.0,-2.0,1651086379577404.0,3
1705,-1.0,3.0,-2.0,2.0,8.0,2.0,2.0,-1.0,1651086379577404.0,3
1706,-1.0,2.0,-13.0,-13.0,1.0,2.0,1.0,-1.0,1651086379585257.0,3
1707,-3.0,-5.0,26.0,1.0,-7.0,-5.0,-4.0,-1.0,1651086379585257.0,3
1708,-1.0,-1.0,-7.0,7.0,-1.0,-2.0,2.0,1.0,1651086379599553.0,3
1709,2.0,-6.0,-3.0,-6.0,-8.0,-3.0,-3.0,1.0,1651086379599553.0,3
1710,-1.0,-11.0,-8.0,-6.0,1.0,-1.0,-1.0,1.0,1651086379600554.0,3
1711,1.0,12.0,10.0,11.0,-1.0,1.0,3.0,1.0,1651086379600554.0,3
1712,-1.0,-2.0,-1.0,-9.0,-1.0,-1.0,-1.0,0.0,1651086379623189.0,3
1713,1.0,3.0,18.0,13.0,-3.0,-1.0,0.0,0.0,1651086379623189.0,3
1714,-4.0,-2.0,-10.0,-4.0,-5.0,-6.0,-6.0,-4.0,1651086379623189.0,3
1715,3.0,-4.0,6.0,-5.0,-1.0,2.0,4.0,2.0,1651086379623189.0,3
1716,3.0,5.0,16.0,14.0,13.0,3.0,1.0,2.0,1651086379638115.0,3
1717,-3.0,-4.0,-35.0,-16.0,-7.0,-1.0,0.0,-2.0,1651086379638115.0,3
1718,2.0,1.0,19.0,20.0,6.0,-1.0,-1.0,1.0,1651086379645132.0,3
1719,-2.0,-2.0,-8.0,-7.0,-1.0,-2.0,2.0,-1.0,1651086379645132.0,3
1720,1.0,4.0,-7.0,-31.0,-10.0,-2.0,1.0,1.0,1651086379675209.0,3
1721,-1.0,-5.0,-15.0,10.0,1.0,-2.0,-4.0,-4.0,1651086379675209.0,3
1722,-3.0,7.0,10.0,13.0,-1.0,1.0,1.0,-1.0,1651086379676163.0,3
1723,2.0,-1.0,16.0,-1.0,8.0,2.0,2.0,5.0,1651086379676163.0,3
1724,1.0,1.0,7.0,13.0,-4.0,-3.0,-3.0,-3.0,1651086379682148.0,3
1725,2.0,-2.0,-6.0,-9.0,-1.0,0.0,0.0,1.0,1651086379682148.0,3
1726,0.0,-4.0,-13.0,-7.0,-3.0,0.0,-1.0,-1.0,1651086379683146.0,3
1727,-6.0,1.0,-13.0,3.0,5.0,3.0,3.0,1.0,1651086379683146.0,3
1728,2.0,4.0,14.0,13.0,6.0,0.0,0.0,0.0,1651086379697252.0,3
1729,-3.0,0.0,11.0,-3.0,-7.0,-6.0,-4.0,-3.0,1651086379697252.0,3
1730,2.0,6.0,-2.0,-17.0,-6.0,1.0,4.0,2.0,1651086379705086.0,3
1731,1.0,2.0,-10.0,3.0,8.0,1.0,-1.0,-3.0,1651086379705086.0,3
1732,-2.0,-9.0,3.0,4.0,-1.0,0.0,1.0,-1.0,1651086379720394.0,3
1733,-2.0,0.0,4.0,15.0,-2.0,-1.0,-1.0,-1.0,1651086379720394.0,3
1734,1.0,-4.0,-15.0,-11.0,0.0,0.0,-1.0,1.0,1651086379720394.0,3
1735,2.0,3.0,15.0,6.0,-4.0,1.0,-2.0,0.0,1651086379720394.0,3
1736,-1.0,0.0,-13.0,-2.0,2.0,-2.0,0.0,-2.0,1651086379742885.0,3
1737,1.0,-1.0,15.0,-5.0,-2.0,0.0,0.0,-1.0,1651086379742885.0,3
1738,-2.0,-1.0,-12.0,-8.0,3.0,2.0,1.0,-1.0,1651086379743109.0,3
1739,0.0,2.0,-1.0,-8.0,-4.0,-3.0,-3.0,-1.0,1651086379743109.0,3
1740,-2.0,-7.0,1.0,10.0,2.0,0.0,-1.0,-2.0,1651086379757439.0,3
1741,1.0,2.0,13.0,0.0,2.0,4.0,5.0,5.0,1651086379757439.0,3
1742,0.0,-4.0,-19.0,-1.0,-3.0,-5.0,-5.0,-1.0,1651086379765384.0,3
1743,1.0,3.0,1.0,0.0,-7.0,-1.0,-1.0,-1.0,1651086379765384.0,3
1744,-1.0,2.0,1.0,-12.0,-8.0,-1.0,0.0,0.0,1651086379780298.0,3
1745,-3.0,-5.0,-6.0,7.0,9.0,-1.0,-3.0,-3.0,1651086379780298.0,3
1746,-2.0,-6.0,-3.0,-3.0,1.0,2.0,2.0,-1.0,1651086379780298.0,3
1747,3.0,6.0,-3.0,5.0,-3.0,-1.0,2.0,2.0,1651086379780298.0,3
1748,-2.0,-8.0,-26.0,-12.0,-4.0,-3.0,-4.0,-2.0,1651086379802041.0,3
1749,0.0,4.0,15.0,0.0,-2.0,0.0,2.0,0.0,1651086379802041.0,3
1750,-2.0,1.0,2.0,0.0,-5.0,-1.0,0.0,-3.0,1651086379803067.0,3
1751,0.0,-12.0,-17.0,-3.0,7.0,2.0,2.0,0.0,1651086379803067.0,3
1752,-2.0,3.0,19.0,-6.0,-5.0,-2.0,-1.0,0.0,1651086379817205.0,3
1753,0.0,-4.0,-13.0,-14.0,-2.0,2.0,2.0,1.0,1651086379817205.0,3
1754,-1.0,6.0,18.0,26.0,2.0,1.0,0.0,2.0,1651086379825172.0,3
1755,1.0,-1.0,7.0,-7.0,-5.0,-2.0,-2.0,-2.0,1651086379825172.0,3
1756,0.0,-6.0,3.0,9.0,-2.0,0.0,-4.0,0.0,1651086379840388.0,3
1757,-4.0,-4.0,0.0,-8.0,-3.0,0.0,-2.0,-4.0,1651086379840388.0,3
1758,1.0,2.0,-9.0,-13.0,-5.0,0.0,1.0,3.0,1651086379840388.0,3
1759,0.0,-1.0,-2.0,-24.0,-14.0,-4.0,-2.0,-1.0,1651086379840388.0,3
1760,-1.0,0.0,-11.0,34.0,24.0,6.0,1.0,1.0,1651086379862713.0,3
1761,-1.0,1.0,12.0,16.0,0.0,-4.0,-2.0,-2.0,1651086379862713.0,3
1762,3.0,2.0,7.0,0.0,2.0,-2.0,-1.0,1.0,1651086379863060.0,3
1763,-4.0,-7.0,-4.0,3.0,-1.0,1.0,1.0,-2.0,1651086379863060.0,3
1764,5.0,9.0,5.0,-9.0,-4.0,0.0,-2.0,-1.0,1651086379886401.0,3
1765,-5.0,-15.0,-18.0,-13.0,0.0,2.0,-2.0,-1.0,1651086379886401.0,3
1766,-2.0,11.0,12.0,26.0,6.0,0.0,2.0,0.0,1651086379886401.0,3
1767,-3.0,-8.0,3.0,-5.0,-8.0,-6.0,-4.0,1.0,1651086379886401.0,3
1768,2.0,1.0,7.0,-1.0,-7.0,-2.0,-1.0,-2.0,1651086379900314.0,3
1769,1.0,-3.0,-31.0,-17.0,-1.0,0.0,0.0,-1.0,1651086379900314.0,3
1770,-1.0,-5.0,0.0,-17.0,-5.0,-3.0,-3.0,0.0,1651086379900314.0,3
1771,1.0,4.0,3.0,8.0,-2.0,2.0,5.0,1.0,1651086379900314.0,3
1772,-2.0,-5.0,-3.0,14.0,16.0,1.0,-2.0,-2.0,1651086379922561.0,3
1773,0.0,7.0,3.0,-5.0,-1.0,-2.0,-4.0,-1.0,1651086379922561.0,3
1774,-2.0,-6.0,-2.0,-2.0,-1.0,0.0,-2.0,-3.0,1651086379923409.0,3
1775,-2.0,4.0,13.0,9.0,-1.0,4.0,1.0,1.0,1651086379923409.0,3
1776,-1.0,0.0,-16.0,-5.0,-3.0,2.0,2.0,-1.0,1651086379946363.0,3
1777,0.0,-5.0,6.0,1.0,-2.0,0.0,2.0,3.0,1651086379946363.0,3
1778,1.0,1.0,10.0,-3.0,-4.0,-4.0,-5.0,-4.0,1651086379946363.0,3
1779,0.0,-2.0,-8.0,7.0,3.0,-1.0,0.0,-2.0,1651086379946363.0,3
1780,-3.0,-9.0,3.0,-12.0,-4.0,1.0,1.0,-1.0,1651086379960370.0,3
1781,7.0,25.0,5.0,3.0,1.0,3.0,5.0,3.0,1651086379960370.0,3
1782,-5.0,-2.0,-1.0,-4.0,-11.0,-5.0,-5.0,-3.0,1651086379960370.0,3
1783,0.0,2.0,10.0,3.0,3.0,0.0,-3.0,-1.0,1651086379960370.0,3
1784,-2.0,-6.0,-9.0,-16.0,-15.0,-7.0,-2.0,-1.0,1651086379983182.0,3
1785,2.0,0.0,-3.0,16.0,12.0,4.0,0.0,0.0,1651086379983182.0,3
1786,1.0,-7.0,-11.0,-7.0,1.0,1.0,2.0,0.0,1651086379983182.0,3
1787,-1.0,-2.0,-3.0,-4.0,1.0,2.0,0.0,0.0,1651086379983182.0,3
1788,1.0,9.0,4.0,-5.0,-10.0,-4.0,-1.0,0.0,1651086380006384.0,3
1789,0.0,-4.0,6.0,1.0,-1.0,-4.0,-1.0,0.0,1651086380006384.0,3
1790,-2.0,-1.0,-8.0,-5.0,-6.0,-2.0,-1.0,-4.0,1651086380006384.0,3
1791,0.0,0.0,-2.0,2.0,2.0,3.0,-2.0,-4.0,1651086380006384.0,3
1792,1.0,0.0,1.0,2.0,7.0,4.0,1.0,1.0,1651086380020573.0,3
1793,-1.0,-2.0,1.0,-5.0,-4.0,-2.0,-2.0,0.0,1651086380020573.0,3
1794,-2.0,-2.0,2.0,6.0,9.0,2.0,2.0,2.0,1651086380020573.0,3
1795,-3.0,-4.0,-15.0,-3.0,0.0,-3.0,-4.0,-2.0,1651086380020573.0,3
1796,-1.0,13.0,22.0,0.0,-2.0,1.0,0.0,0.0,1651086380042630.0,3
1797,0.0,1.0,2.0,1.0,-8.0,-7.0,-3.0,-3.0,1651086380042630.0,3
1798,1.0,-1.0,-12.0,1.0,2.0,1.0,0.0,0.0,1651086380043059.0,3
1799,4.0,-5.0,-2.0,-8.0,-2.0,1.0,0.0,3.0,1651086380043059.0,3
1800,-15.0,-9.0,-6.0,-2.0,0.0,1.0,1.0,0.0,1651086380065378.0,3
1801,8.0,13.0,5.0,-1.0,-1.0,0.0,-3.0,-1.0,1651086380065378.0,3
1802,7.0,-5.0,0.0,2.0,0.0,-1.0,2.0,20.0,1651086380066215.0,3
1803,-5.0,-2.0,3.0,1.0,-1.0,-2.0,-2.0,1.0,1651086380066215.0,3
1804,13.0,-1.0,1.0,0.0,-3.0,-2.0,-3.0,-3.0,1651086380080213.0,3
1805,-10.0,-10.0,-16.0,-3.0,-2.0,1.0,1.0,-6.0,1651086380080213.0,3
1806,0.0,-2.0,2.0,2.0,2.0,0.0,1.0,-2.0,1651086380080213.0,3
1807,8.0,6.0,3.0,0.0,2.0,-1.0,1.0,7.0,1651086380080213.0,3
1808,-10.0,-5.0,-4.0,-1.0,-2.0,-3.0,1.0,-2.0,1651086380105325.0,3
1809,-1.0,-1.0,2.0,-1.0,-2.0,1.0,-1.0,-1.0,1651086380105325.0,3
1810,-2.0,2.0,-4.0,-1.0,1.0,0.0,-1.0,-1.0,1651086380105325.0,3
1811,1.0,1.0,4.0,0.0,-2.0,-2.0,1.0,-1.0,1651086380105325.0,3
1812,2.0,-2.0,0.0,2.0,0.0,-1.0,-2.0,-10.0,1651086380125391.0,3
1813,3.0,-2.0,-8.0,-3.0,-1.0,0.0,1.0,2.0,1651086380125391.0,3
1814,2.0,-26.0,-1.0,-2.0,-1.0,-2.0,-2.0,-1.0,1651086380125391.0,3
1815,-9.0,31.0,3.0,2.0,-2.0,-2.0,-4.0,-7.0,1651086380125391.0,3
1816,-1.0,-4.0,-4.0,0.0,2.0,2.0,0.0,1.0,1651086380140662.0,3
1817,-2.0,-6.0,1.0,0.0,0.0,1.0,0.0,3.0,1651086380140662.0,3
1818,-2.0,4.0,7.0,0.0,-1.0,-1.0,-1.0,-6.0,1651086380140662.0,3
1819,0.0,-6.0,-5.0,2.0,2.0,-1.0,2.0,-3.0,1651086380140662.0,3
1820,1.0,1.0,-2.0,-2.0,-1.0,1.0,0.0,4.0,1651086380162141.0,3
1821,0.0,3.0,4.0,-2.0,-2.0,-2.0,-2.0,0.0,1651086380162141.0,3
1822,-4.0,4.0,-6.0,-2.0,-3.0,-2.0,-1.0,-5.0,1651086380163065.0,3
1823,-1.0,-7.0,1.0,1.0,0.0,-2.0,0.0,-3.0,1651086380163065.0,3
1824,1.0,4.0,-2.0,-1.0,0.0,-1.0,-1.0,3.0,1651086380193360.0,3
1825,-3.0,-3.0,-2.0,3.0,3.0,0.0,-1.0,-3.0,1651086380193360.0,3
1826,-2.0,6.0,7.0,1.0,1.0,2.0,0.0,-5.0,1651086380193360.0,3
1827,-1.0,-5.0,-3.0,-2.0,0.0,-2.0,-3.0,0.0,1651086380193360.0,3
1828,4.0,-2.0,-1.0,-3.0,-3.0,-1.0,0.0,-1.0,1651086380199232.0,3
1829,-1.0,-3.0,-7.0,-2.0,-4.0,-2.0,-1.0,-2.0,1651086380199232.0,3
1830,-1.0,8.0,-1.0,0.0,0.0,0.0,-1.0,-1.0,1651086380200200.0,3
1831,1.0,-6.0,1.0,-2.0,-1.0,0.0,0.0,-1.0,1651086380200200.0,3
1832,1.0,-1.0,-3.0,-1.0,0.0,-2.0,0.0,-1.0,1651086380223306.0,3
1833,-3.0,-5.0,5.0,-2.0,-1.0,0.0,0.0,-2.0,1651086380223306.0,3
1834,0.0,22.0,3.0,1.0,2.0,0.0,-1.0,-2.0,1651086380223306.0,3
1835,1.0,-1.0,-7.0,-2.0,-1.0,-2.0,0.0,-1.0,1651086380223306.0,3
1836,-1.0,-5.0,10.0,2.0,1.0,2.0,1.0,0.0,1651086380244265.0,3
1837,0.0,0.0,-7.0,-1.0,0.0,0.0,1.0,-1.0,1651086380244265.0,3
1838,-1.0,-13.0,-8.0,-2.0,0.0,-1.0,0.0,0.0,1651086380245182.0,3
1839,2.0,2.0,5.0,2.0,-1.0,0.0,-2.0,1.0,1651086380245182.0,3
1840,0.0,5.0,0.0,-2.0,-4.0,-3.0,-1.0,1.0,1651086380260228.0,3
1841,-1.0,-3.0,-3.0,-3.0,-2.0,-2.0,-1.0,-2.0,1651086380260228.0,3
1842,-1.0,0.0,1.0,-1.0,-2.0,-2.0,-1.0,-2.0,1651086380260228.0,3
1843,0.0,-4.0,-3.0,-3.0,1.0,0.0,0.0,-1.0,1651086380260228.0,3
1844,1.0,1.0,0.0,0.0,-1.0,-2.0,0.0,0.0,1651086380282730.0,3
1845,0.0,-1.0,2.0,2.0,5.0,1.0,-2.0,-1.0,1651086380282730.0,3
1846,-1.0,0.0,-3.0,-2.0,-2.0,1.0,0.0,0.0,1651086380282730.0,3
1847,-2.0,-1.0,1.0,6.0,5.0,0.0,2.0,0.0,1651086380282730.0,3
1848,1.0,-4.0,-2.0,2.0,1.0,1.0,1.0,-1.0,1651086380305345.0,3
1849,1.0,3.0,-4.0,-7.0,-8.0,-3.0,-2.0,-1.0,1651086380305345.0,3
1850,-2.0,-3.0,-1.0,-1.0,-1.0,0.0,0.0,-2.0,1651086380305345.0,3
1851,1.0,-2.0,1.0,0.0,-2.0,0.0,-2.0,-1.0,1651086380305345.0,3
1852,0.0,1.0,-1.0,0.0,-1.0,-1.0,-2.0,0.0,1651086380320117.0,3
1853,1.0,1.0,0.0,0.0,-2.0,-1.0,0.0,-1.0,1651086380320117.0,3
1854,0.0,-2.0,2.0,2.0,2.0,1.0,-1.0,0.0,1651086380320117.0,3
1855,1.0,-1.0,-1.0,0.0,-2.0,0.0,-1.0,-2.0,1651086380320117.0,3
1856,-1.0,2.0,-2.0,0.0,0.0,0.0,0.0,0.0,1651086380343218.0,3
1857,-2.0,2.0,1.0,-3.0,-1.0,-2.0,0.0,0.0,1651086380343218.0,3
1858,-1.0,-1.0,-2.0,-1.0,-3.0,-4.0,-2.0,0.0,1651086380343218.0,3
1859,-1.0,-1.0,-2.0,1.0,1.0,1.0,1.0,-1.0,1651086380343218.0,3
1860,-2.0,-1.0,-1.0,0.0,3.0,2.0,0.0,-1.0,1651086380364837.0,3
1861,-1.0,-1.0,0.0,-2.0,-2.0,-2.0,0.0,2.0,1651086380364837.0,3
1862,0.0,-2.0,-1.0,0.0,1.0,0.0,-1.0,0.0,1651086380365665.0,3
1863,-2.0,-2.0,-1.0,2.0,2.0,0.0,2.0,0.0,1651086380365665.0,3
1864,0.0,0.0,-2.0,-4.0,-3.0,-1.0,-1.0,1.0,1651086380380782.0,3
1865,1.0,-1.0,-1.0,0.0,-1.0,-1.0,1.0,1.0,1651086380380782.0,3
1866,-1.0,0.0,-1.0,0.0,1.0,-3.0,-1.0,-1.0,1651086380380782.0,3
1867,0.0,-2.0,-2.0,-2.0,-4.0,-2.0,-1.0,0.0,1651086380380782.0,3
1868,1.0,-1.0,0.0,-5.0,-3.0,0.0,-1.0,-1.0,1651086380402283.0,3
1869,-1.0,-2.0,0.0,1.0,3.0,1.0,0.0,-1.0,1651086380402283.0,3
1870,1.0,-1.0,1.0,0.0,1.0,1.0,1.0,0.0,1651086380403143.0,3
1871,-1.0,-2.0,-1.0,0.0,0.0,-2.0,-1.0,-2.0,1651086380403143.0,3
1872,-2.0,0.0,-3.0,1.0,-2.0,-3.0,-1.0,1.0,1651086380425187.0,3
1873,-2.0,-1.0,-1.0,-1.0,-2.0,-1.0,-1.0,-1.0,1651086380425187.0,3
1874,-1.0,-1.0,0.0,0.0,1.0,0.0,0.0,-1.0,1651086380425187.0,3
1875,0.0,0.0,1.0,0.0,0.0,2.0,0.0,-1.0,1651086380425187.0,3
1876,0.0,1.0,-2.0,-2.0,-1.0,-3.0,-2.0,-1.0,1651086380440392.0,3
1877,0.0,0.0,1.0,1.0,-1.0,-1.0,-1.0,0.0,1651086380440392.0,3
1878,0.0,-3.0,-3.0,1.0,0.0,1.0,0.0,-1.0,1651086380448320.0,3
1879,-2.0,-1.0,1.0,-1.0,-1.0,0.0,0.0,0.0,1651086380448320.0,3
1880,1.0,-1.0,-1.0,-2.0,-1.0,0.0,1.0,0.0,1651086380471259.0,3
1881,-1.0,-1.0,0.0,0.0,1.0,-1.0,-2.0,-1.0,1651086380471259.0,3
1882,-1.0,-2.0,-3.0,-2.0,-2.0,-2.0,-1.0,-1.0,1651086380471259.0,3
1883,0.0,0.0,-1.0,-3.0,-4.0,-2.0,-1.0,-1.0,1651086380471259.0,3
1884,-1.0,0.0,-3.0,-1.0,-1.0,-1.0,0.0,0.0,1651086380484211.0,3
1885,-1.0,0.0,0.0,-1.0,-1.0,0.0,-1.0,1.0,1651086380484211.0,3
1886,-2.0,0.0,1.0,-1.0,-1.0,0.0,-1.0,0.0,1651086380485262.0,3
1887,-2.0,0.0,0.0,-2.0,-2.0,-2.0,-1.0,0.0,1651086380485262.0,3
1888,0.0,-1.0,-1.0,2.0,2.0,1.0,1.0,-1.0,1651086380499228.0,3
1889,-1.0,0.0,-1.0,1.0,2.0,0.0,1.0,-1.0,1651086380499228.0,3
1890,2.0,-1.0,-1.0,0.0,0.0,0.0,-1.0,2.0,1651086380507738.0,3
1891,-1.0,-2.0,0.0,-1.0,-2.0,0.0,2.0,1.0,1651086380507738.0,3
1892,1.0,-1.0,1.0,-1.0,-2.0,-1.0,-1.0,0.0,1651086380522516.0,3
1893,1.0,-1.0,-1.0,-2.0,-3.0,-1.0,-1.0,0.0,1651086380522516.0,3
1894,-1.0,0.0,-1.0,0.0,-1.0,-1.0,-2.0,-2.0,1651086380523384.0,3
1895,-2.0,1.0,3.0,2.0,5.0,4.0,1.0,0.0,1651086380523384.0,3
1896,-2.0,-1.0,0.0,1.0,1.0,0.0,-1.0,-1.0,1651086380544282.0,3
1897,0.0,-1.0,1.0,0.0,-2.0,-1.0,-2.0,-1.0,1651086380544282.0,3
1898,-1.0,-1.0,-1.0,-2.0,-3.0,-2.0,-2.0,-2.0,1651086380545222.0,3
1899,0.0,0.0,-3.0,-2.0,-2.0,-2.0,-2.0,-1.0,1651086380545222.0,3
1900,1.0,1.0,0.0,1.0,1.0,0.0,0.0,0.0,1651086380559231.0,3
1901,0.0,-1.0,-2.0,0.0,0.0,0.0,0.0,0.0,1651086380559231.0,3
1902,-1.0,-1.0,0.0,-1.0,1.0,0.0,-1.0,-1.0,1651086380567363.0,3
1903,0.0,-1.0,-1.0,0.0,0.0,-1.0,-2.0,1.0,1651086380567363.0,3
1904,-2.0,0.0,1.0,0.0,1.0,-1.0,0.0,0.0,1651086380583214.0,3
1905,0.0,-1.0,-1.0,-2.0,-3.0,-2.0,-1.0,-1.0,1651086380583214.0,3
1906,-1.0,-1.0,-1.0,2.0,-1.0,-1.0,1.0,-1.0,1651086380583214.0,3
1907,-2.0,0.0,1.0,0.0,2.0,0.0,0.0,-1.0,1651086380583214.0,3
1908,-1.0,-1.0,-1.0,-3.0,-3.0,-1.0,-1.0,0.0,1651086380606589.0,3
1909,1.0,-2.0,0.0,0.0,-2.0,-1.0,1.0,-1.0,1651086380606589.0,3
1910,1.0,-2.0,-1.0,-2.0,-1.0,-1.0,0.0,1.0,1651086380606589.0,3
1911,2.0,0.0,-2.0,0.0,-3.0,0.0,-2.0,-1.0,1651086380606589.0,3
1912,0.0,-1.0,-1.0,0.0,0.0,-2.0,0.0,0.0,1651086380619253.0,3
1913,-1.0,1.0,-1.0,0.0,2.0,0.0,-1.0,-2.0,1651086380619253.0,3
1914,-1.0,0.0,-1.0,-1.0,-1.0,1.0,0.0,0.0,1651086380627398.0,3
1915,1.0,0.0,0.0,-1.0,-3.0,-4.0,0.0,0.0,1651086380627398.0,3
1916,-1.0,0.0,1.0,-2.0,0.0,-2.0,-1.0,0.0,1651086380642889.0,0
1917,-1.0,1.0,-1.0,0.0,1.0,-1.0,-2.0,0.0,1651086380642889.0,0
1918,-1.0,1.0,1.0,1.0,2.0,-1.0,-1.0,-2.0,1651086380642889.0,0
1919,2.0,-2.0,-2.0,-1.0,0.0,0.0,0.0,2.0,1651086380642889.0,0
1920,-2.0,-1.0,-1.0,0.0,-1.0,-1.0,0.0,-4.0,1651086380666387.0,0
1921,-1.0,-2.0,-2.0,0.0,-1.0,0.0,0.0,-2.0,1651086380666387.0,0
1922,-2.0,1.0,-2.0,-3.0,-6.0,-3.0,-2.0,0.0,1651086380666387.0,0
1923,1.0,-3.0,-1.0,0.0,0.0,-2.0,0.0,-2.0,1651086380666387.0,0
1924,-1.0,-1.0,0.0,2.0,3.0,2.0,1.0,-1.0,1651086380679085.0,0
