EMG_s0,EMG_s1,EMG_s2,EMG_s3,EMG_s4,EMG_s5,EMG_s6,EMG_s7,timestamp
0.0,0.0,0.0,-1.0,-5.0,-11.0,0.0,-1.0,1651094073114161.0
-2.0,-2.0,-1.0,-4.0,5.0,2.0,-2.0,-1.0,1651094073114161.0
0.0,0.0,-1.0,1.0,0.0,3.0,2.0,1.0,1651094073114161.0
-1.0,1.0,5.0,-1.0,-8.0,0.0,-1.0,-1.0,1651094073114161.0
0.0,-1.0,-6.0,0.0,2.0,0.0,0.0,0.0,1651094073124067.0
0.0,-1.0,2.0,0.0,8.0,3.0,0.0,-1.0,1651094073124067.0
0.0,-2.0,-3.0,-6.0,3.0,-1.0,-2.0,0.0,1651094073125037.0
1.0,2.0,2.0,4.0,5.0,2.0,2.0,1.0,1651094073125037.0
-1.0,0.0,-1.0,2.0,-7.0,-5.0,-2.0,-1.0,1651094073128054.0
-1.0,1.0,-2.0,-1.0,-6.0,-30.0,-1.0,-1.0,1651094073128054.0
-1.0,-1.0,3.0,-1.0,-1.0,44.0,2.0,1.0,1651094073130022.0
-1.0,-2.0,-1.0,-4.0,-1.0,0.0,-2.0,0.0,1651094073130022.0
1.0,1.0,0.0,-1.0,7.0,4.0,0.0,-1.0,1651094073145238.0
0.0,2.0,0.0,-1.0,-5.0,-12.0,-1.0,1.0,1651094073145238.0
1.0,1.0,2.0,2.0,-2.0,-15.0,-3.0,0.0,1651094073152201.0
0.0,-2.0,-1.0,0.0,4.0,0.0,-1.0,-1.0,1651094073152201.0
-1.0,-2.0,1.0,-1.0,-12.0,-1.0,1.0,-2.0,1651094073171184.0
-1.0,-2.0,-2.0,-2.0,5.0,19.0,-2.0,-1.0,1651094073171184.0
-1.0,-2.0,-5.0,1.0,1.0,-11.0,-1.0,-2.0,1651094073184853.0
-2.0,1.0,3.0,2.0,3.0,3.0,-1.0,-2.0,1651094073184853.0
-1.0,2.0,11.0,-1.0,-9.0,-6.0,0.0,1.0,1651094073190844.0
1.0,0.0,-6.0,-6.0,-7.0,2.0,0.0,-1.0,1651094073190844.0
0.0,-2.0,-4.0,1.0,13.0,6.0,-1.0,-1.0,1651094073204988.0
-1.0,-3.0,-5.0,1.0,4.0,-15.0,-2.0,0.0,1651094073204988.0
-1.0,0.0,0.0,0.0,1.0,-4.0,0.0,0.0,1651094073239124.0
-2.0,-1.0,1.0,-2.0,-6.0,8.0,1.0,0.0,1651094073239124.0
0.0,0.0,1.0,0.0,6.0,5.0,-1.0,0.0,1651094073244075.0
1.0,-1.0,-1.0,-1.0,-2.0,0.0,-2.0,-1.0,1651094073244075.0
0.0,1.0,1.0,1.0,-4.0,-3.0,0.0,-1.0,1651094073244075.0
0.0,-1.0,0.0,0.0,-2.0,-14.0,-1.0,0.0,1651094073244075.0
-1.0,-4.0,-4.0,-2.0,7.0,8.0,1.0,0.0,1651094073250026.0
0.0,1.0,2.0,1.0,-29.0,1.0,2.0,0.0,1651094073250026.0
0.0,0.0,4.0,-1.0,-2.0,-2.0,0.0,0.0,1651094073251027.0
1.0,-1.0,-3.0,-4.0,4.0,-8.0,-2.0,-1.0,1651094073251027.0
-1.0,2.0,0.0,3.0,-5.0,-5.0,-2.0,-1.0,1651094073265150.0
-2.0,-1.0,-3.0,-1.0,6.0,-1.0,-2.0,-2.0,1651094073265150.0
-1.0,-1.0,-2.0,2.0,1.0,5.0,-1.0,-2.0,1651094073279811.0
2.0,0.0,0.0,1.0,7.0,8.0,0.0,1.0,1651094073279811.0
1.0,0.0,1.0,-4.0,-4.0,-5.0,-1.0,0.0,1651094073288658.0
-2.0,-1.0,-3.0,-2.0,1.0,-9.0,-1.0,-3.0,1651094073288658.0
-1.0,-1.0,-2.0,-2.0,-9.0,3.0,-2.0,0.0,1651094073294828.0
1.0,0.0,-3.0,-1.0,14.0,-6.0,-1.0,0.0,1651094073294828.0
-2.0,-3.0,-1.0,0.0,-5.0,1.0,-1.0,-1.0,1651094073310341.0
0.0,-2.0,-3.0,-2.0,2.0,-5.0,0.0,-1.0,1651094073310341.0
0.0,-1.0,-2.0,-2.0,5.0,-12.0,-1.0,0.0,1651094073310341.0
-1.0,0.0,2.0,2.0,-29.0,-3.0,-2.0,-2.0,1651094073310341.0
0.0,1.0,2.0,0.0,-2.0,25.0,-2.0,0.0,1651094073340772.0
0.0,1.0,1.0,-1.0,0.0,3.0,1.0,1.0,1651094073340772.0
0.0,-4.0,-7.0,-5.0,11.0,-2.0,-1.0,-1.0,1651094073341656.0
-1.0,1.0,4.0,1.0,-1.0,-9.0,0.0,0.0,1651094073341656.0
-1.0,1.0,2.0,0.0,-3.0,-10.0,0.0,-1.0,1651094073346610.0
-1.0,-1.0,1.0,-1.0,4.0,5.0,0.0,0.0,1651094073346610.0
0.0,-1.0,0.0,-1.0,-2.0,3.0,1.0,-1.0,1651094073355911.0
0.0,-1.0,-1.0,0.0,0.0,0.0,-1.0,0.0,1651094073355911.0
0.0,-1.0,-2.0,-1.0,-6.0,-11.0,-3.0,0.0,1651094073370043.0
2.0,-2.0,-1.0,-3.0,-1.0,-4.0,-3.0,0.0,1651094073370043.0
-2.0,0.0,-2.0,1.0,5.0,0.0,-1.0,1.0,1651094073370913.0
-3.0,0.0,-2.0,-2.0,0.0,5.0,0.0,1.0,1651094073370913.0
-1.0,1.0,1.0,0.0,0.0,-2.0,1.0,0.0,1651094073393618.0
1.0,2.0,1.0,0.0,-5.0,-11.0,-1.0,0.0,1651094073393618.0
-1.0,1.0,8.0,0.0,-1.0,10.0,0.0,0.0,1651094073394030.0
-1.0,-5.0,-8.0,-1.0,5.0,-9.0,-2.0,-2.0,1651094073394030.0
-1.0,-1.0,-2.0,-5.0,-22.0,10.0,1.0,0.0,1651094073407405.0
-1.0,-1.0,1.0,4.0,5.0,-2.0,0.0,0.0,1651094073407405.0
1.0,1.0,0.0,2.0,-6.0,-11.0,-2.0,-1.0,1651094073415384.0
-1.0,1.0,1.0,0.0,4.0,2.0,1.0,0.0,1651094073415384.0
-1.0,-2.0,-4.0,-1.0,17.0,-16.0,-1.0,0.0,1651094073429546.0
0.0,0.0,0.0,1.0,12.0,18.0,1.0,0.0,1651094073429546.0
-1.0,2.0,0.0,0.0,-17.0,-5.0,-1.0,0.0,1651094073430543.0
-1.0,-1.0,-1.0,-4.0,-16.0,-5.0,-1.0,-1.0,1651094073430543.0
0.0,-1.0,0.0,-1.0,0.0,-5.0,-1.0,-2.0,1651094073452848.0
-1.0,-2.0,-1.0,-1.0,14.0,2.0,0.0,0.0,1651094073452848.0
0.0,-3.0,-1.0,-2.0,3.0,-5.0,-2.0,0.0,1651094073452848.0
-1.0,-1.0,-2.0,0.0,2.0,4.0,0.0,-1.0,1651094073452848.0
0.0,-1.0,1.0,0.0,-3.0,8.0,3.0,-1.0,1651094073466802.0
0.0,0.0,1.0,-3.0,-3.0,-1.0,-1.0,1.0,1651094073466802.0
-1.0,-2.0,-8.0,-2.0,4.0,5.0,-1.0,-1.0,1651094073475133.0
0.0,1.0,8.0,2.0,1.0,4.0,0.0,0.0,1651094073475133.0
0.0,-2.0,0.0,3.0,7.0,-4.0,-3.0,-1.0,1651094073490333.0
-2.0,0.0,-2.0,0.0,-8.0,-10.0,-1.0,1.0,1651094073490333.0
-1.0,0.0,-3.0,-2.0,5.0,-3.0,-2.0,-3.0,1651094073490333.0
0.0,0.0,-3.0,-4.0,-3.0,-5.0,-2.0,-1.0,1651094073490333.0
-1.0,0.0,6.0,2.0,7.0,7.0,2.0,1.0,1651094073512844.0
1.0,-1.0,-4.0,2.0,3.0,0.0,0.0,0.0,1651094073512844.0
-2.0,-3.0,-2.0,0.0,-4.0,0.0,2.0,0.0,1651094073512844.0
0.0,0.0,-1.0,1.0,-2.0,-2.0,0.0,0.0,1651094073512844.0
1.0,0.0,-1.0,-3.0,-2.0,-14.0,-1.0,0.0,1651094073535894.0
0.0,-1.0,1.0,-2.0,-1.0,1.0,-1.0,-1.0,1651094073535894.0
1.0,1.0,2.0,1.0,-1.0,11.0,0.0,-1.0,1651094073535894.0
0.0,-1.0,0.0,-4.0,-1.0,2.0,-1.0,-1.0,1651094073535894.0
0.0,-1.0,-1.0,3.0,-4.0,-11.0,-1.0,-2.0,1651094073550009.0
-1.0,1.0,1.0,0.0,-18.0,4.0,1.0,-1.0,1651094073550009.0
-1.0,-2.0,1.0,1.0,3.0,-5.0,0.0,-1.0,1651094073550913.0
-1.0,-1.0,-3.0,0.0,0.0,11.0,-1.0,-1.0,1651094073550913.0
0.0,3.0,1.0,-5.0,2.0,1.0,1.0,1.0,1651094073572995.0
-1.0,0.0,1.0,-1.0,0.0,-6.0,-1.0,-1.0,1651094073572995.0
0.0,-1.0,1.0,-1.0,-5.0,-7.0,-1.0,0.0,1651094073572995.0
0.0,-1.0,0.0,1.0,-1.0,0.0,0.0,-2.0,1651094073572995.0
-2.0,-2.0,-3.0,-1.0,4.0,-1.0,-3.0,-2.0,1651094073595144.0
0.0,0.0,-2.0,0.0,4.0,3.0,1.0,-1.0,1651094073595144.0
1.0,-2.0,0.0,-1.0,4.0,-3.0,-2.0,0.0,1651094073596140.0
0.0,0.0,0.0,-2.0,4.0,-2.0,0.0,0.0,1651094073596140.0
-1.0,-1.0,2.0,0.0,-4.0,0.0,-1.0,-2.0,1651094073610452.0
-1.0,1.0,-3.0,-4.0,-1.0,-5.0,-1.0,-1.0,1651094073610452.0
1.0,-1.0,-3.0,0.0,0.0,5.0,0.0,1.0,1651094073610452.0
-1.0,-1.0,-1.0,1.0,7.0,-1.0,-1.0,0.0,1651094073610452.0
-1.0,-3.0,0.0,1.0,-1.0,-5.0,-1.0,-1.0,1651094073632670.0
0.0,-1.0,1.0,0.0,4.0,17.0,0.0,-1.0,1651094073632670.0
0.0,1.0,-1.0,0.0,-12.0,-11.0,-3.0,1.0,1651094073633532.0
-2.0,2.0,5.0,-1.0,-5.0,0.0,-1.0,-1.0,1651094073633532.0
0.0,-2.0,-6.0,-5.0,-1.0,6.0,0.0,1.0,1651094073656142.0
-1.0,-1.0,-1.0,-3.0,4.0,-15.0,-2.0,0.0,1651094073656142.0
-1.0,-2.0,-3.0,0.0,8.0,4.0,0.0,0.0,1651094073656142.0
1.0,2.0,0.0,2.0,-12.0,-5.0,0.0,1.0,1651094073656142.0
-1.0,0.0,0.0,0.0,-11.0,-2.0,-2.0,1.0,1651094073670323.0
-1.0,-3.0,-1.0,-1.0,2.0,0.0,-1.0,1.0,1651094073670323.0
-1.0,1.0,1.0,-4.0,2.0,5.0,0.0,-2.0,1651094073670323.0
-1.0,0.0,-1.0,0.0,-6.0,-10.0,-1.0,1.0,1651094073670323.0
1.0,-2.0,-1.0,0.0,4.0,-3.0,0.0,-2.0,1651094073693188.0
0.0,0.0,-1.0,1.0,2.0,3.0,0.0,0.0,1651094073693188.0
-1.0,0.0,2.0,-1.0,-23.0,13.0,-1.0,-2.0,1651094073693188.0
1.0,2.0,1.0,-2.0,5.0,5.0,2.0,0.0,1651094073693188.0
-1.0,0.0,-5.0,0.0,5.0,-5.0,-2.0,-1.0,1651094073715610.0
-1.0,-2.0,-3.0,-2.0,-7.0,-4.0,-2.0,-1.0,1651094073715610.0
-1.0,0.0,6.0,0.0,6.0,-2.0,-1.0,-1.0,1651094073716448.0
0.0,-1.0,-1.0,-2.0,1.0,-2.0,-2.0,-1.0,1651094073716448.0
-1.0,0.0,1.0,0.0,7.0,10.0,1.0,1.0,1651094073730539.0
-1.0,-1.0,-1.0,-1.0,-14.0,-6.0,-1.0,-2.0,1651094073730539.0
0.0,-1.0,0.0,1.0,14.0,1.0,1.0,2.0,1651094073730539.0
-3.0,-2.0,-1.0,3.0,5.0,8.0,-2.0,0.0,1651094073730539.0
0.0,0.0,0.0,1.0,-4.0,-16.0,1.0,-1.0,1651094073752581.0
0.0,3.0,1.0,-2.0,4.0,1.0,0.0,-1.0,1651094073752581.0
1.0,-2.0,-3.0,0.0,-7.0,-4.0,0.0,0.0,1651094073753578.0
-1.0,-2.0,-1.0,-2.0,-3.0,1.0,-1.0,-2.0,1651094073753578.0
0.0,-1.0,-2.0,1.0,0.0,8.0,1.0,1.0,1651094073776071.0
1.0,-2.0,-3.0,0.0,-4.0,-14.0,-1.0,0.0,1651094073776071.0
0.0,4.0,8.0,0.0,3.0,14.0,1.0,-1.0,1651094073776071.0
0.0,-2.0,-2.0,-4.0,0.0,-2.0,0.0,-1.0,1651094073776071.0
-3.0,-1.0,-2.0,-2.0,-1.0,12.0,0.0,-1.0,1651094073790340.0
1.0,0.0,0.0,1.0,-11.0,-6.0,0.0,-1.0,1651094073790340.0
-1.0,-1.0,-2.0,0.0,2.0,-6.0,-1.0,-1.0,1651094073790340.0
-2.0,-1.0,-3.0,0.0,11.0,-1.0,0.0,1.0,1651094073790340.0
1.0,0.0,1.0,0.0,-8.0,0.0,0.0,-1.0,1651094073812813.0
-2.0,-1.0,1.0,2.0,13.0,16.0,1.0,0.0,1651094073812813.0
-2.0,-3.0,-2.0,-1.0,-9.0,-6.0,-1.0,-2.0,1651094073812813.0
0.0,0.0,-3.0,0.0,-4.0,11.0,1.0,-1.0,1651094073812813.0
-1.0,-2.0,-4.0,-3.0,4.0,-3.0,-3.0,0.0,1651094073835842.0
0.0,0.0,0.0,2.0,-4.0,-1.0,-2.0,-1.0,1651094073835842.0
0.0,-1.0,-2.0,0.0,0.0,-7.0,0.0,-1.0,1651094073835842.0
-1.0,-2.0,0.0,-1.0,-7.0,5.0,-2.0,-1.0,1651094073835842.0
0.0,0.0,-2.0,-3.0,6.0,-11.0,-2.0,0.0,1651094073850960.0
1.0,4.0,7.0,0.0,1.0,-4.0,-3.0,0.0,1651094073850960.0
0.0,-1.0,-1.0,0.0,0.0,-11.0,-2.0,1.0,1651094073850960.0
0.0,-3.0,-3.0,0.0,-2.0,6.0,-2.0,-1.0,1651094073850960.0
1.0,-2.0,-2.0,2.0,-5.0,30.0,2.0,-1.0,1651094073873094.0
-2.0,-3.0,-1.0,-3.0,0.0,-2.0,0.0,-1.0,1651094073873094.0
-1.0,1.0,0.0,1.0,-2.0,0.0,1.0,0.0,1651094073873094.0
0.0,0.0,2.0,-1.0,2.0,-9.0,-3.0,-1.0,1651094073873094.0
-1.0,-1.0,-1.0,-1.0,-17.0,-11.0,-1.0,-1.0,1651094073903672.0
-1.0,-1.0,0.0,1.0,20.0,-5.0,-1.0,-2.0,1651094073903672.0
0.0,-1.0,-1.0,-1.0,-6.0,31.0,0.0,0.0,1651094073903672.0
1.0,-1.0,0.0,-2.0,0.0,-6.0,0.0,-2.0,1651094073903672.0
0.0,0.0,2.0,2.0,1.0,-9.0,0.0,0.0,1651094073909528.0
-2.0,0.0,2.0,1.0,-11.0,11.0,-1.0,-1.0,1651094073909528.0
-1.0,-3.0,-6.0,-2.0,4.0,-5.0,-1.0,0.0,1651094073910525.0
-1.0,2.0,-2.0,-3.0,-1.0,-8.0,1.0,-1.0,1651094073910525.0
-1.0,0.0,-1.0,-2.0,3.0,-11.0,0.0,0.0,1651094073932775.0
1.0,1.0,-3.0,0.0,7.0,7.0,0.0,1.0,1651094073932775.0
0.0,-3.0,1.0,1.0,-1.0,-7.0,-2.0,0.0,1651094073932775.0
-1.0,1.0,2.0,2.0,-1.0,2.0,-1.0,2.0,1651094073932775.0
-2.0,-1.0,0.0,-1.0,9.0,3.0,0.0,-1.0,1651094073956253.0
-1.0,-3.0,-4.0,-1.0,-2.0,-11.0,0.0,1.0,1651094073956253.0
0.0,0.0,-1.0,-2.0,1.0,17.0,1.0,-1.0,1651094073956253.0
0.0,-1.0,-1.0,0.0,-1.0,-3.0,-1.0,0.0,1651094073956253.0
0.0,2.0,2.0,2.0,11.0,2.0,-1.0,-1.0,1651094073970370.0
0.0,-3.0,1.0,-4.0,-10.0,-4.0,-1.0,0.0,1651094073970370.0
-1.0,0.0,-2.0,1.0,-2.0,-8.0,-1.0,-2.0,1651094073970370.0
0.0,0.0,2.0,3.0,2.0,2.0,0.0,-1.0,1651094073970370.0
-1.0,-2.0,-1.0,-3.0,3.0,-10.0,0.0,0.0,1651094073992450.0
1.0,-1.0,-3.0,1.0,6.0,20.0,0.0,-1.0,1651094073992450.0
-1.0,2.0,0.0,-3.0,-7.0,-6.0,0.0,1.0,1651094073993482.0
0.0,0.0,2.0,0.0,12.0,4.0,1.0,1.0,1651094073993482.0
0.0,-1.0,-3.0,1.0,-10.0,-7.0,-1.0,0.0,1651094074014880.0
-1.0,-2.0,-5.0,-3.0,-10.0,0.0,-1.0,-2.0,1651094074014880.0
-1.0,-2.0,-4.0,-1.0,2.0,-10.0,-2.0,-1.0,1651094074022859.0
-1.0,-1.0,-1.0,1.0,1.0,4.0,-1.0,-1.0,1651094074022859.0
1.0,1.0,3.0,0.0,0.0,9.0,1.0,2.0,1651094074030833.0
0.0,1.0,2.0,0.0,-1.0,-9.0,0.0,0.0,1651094074030833.0
-2.0,-2.0,0.0,1.0,2.0,-3.0,-1.0,0.0,1651094074030833.0
-1.0,-2.0,-4.0,-4.0,-2.0,1.0,-2.0,0.0,1651094074030833.0
-1.0,-2.0,-1.0,-1.0,2.0,-7.0,-2.0,-1.0,1651094074053375.0
-1.0,-1.0,-2.0,2.0,9.0,-10.0,0.0,1.0,1651094074053375.0
0.0,1.0,1.0,2.0,-1.0,-1.0,0.0,-1.0,1651094074053375.0
-1.0,-1.0,-4.0,0.0,-12.0,-17.0,-1.0,-1.0,1651094074053375.0
0.0,1.0,5.0,-1.0,-1.0,40.0,0.0,-1.0,1651094074076356.0
-2.0,-3.0,-1.0,-5.0,-6.0,-8.0,-1.0,-1.0,1651094074076356.0
1.0,2.0,3.0,-1.0,10.0,-3.0,0.0,-1.0,1651094074076356.0
1.0,-2.0,-6.0,-1.0,0.0,12.0,3.0,0.0,1651094074076356.0
-1.0,-2.0,-4.0,-1.0,-6.0,-32.0,-2.0,-1.0,1651094074089196.0
-1.0,0.0,0.0,-1.0,-3.0,17.0,-2.0,-1.0,1651094074089196.0
-1.0,-1.0,2.0,1.0,-13.0,0.0,-2.0,0.0,1651094074114308.0
-1.0,2.0,1.0,0.0,9.0,4.0,1.0,-1.0,1651094074114308.0
0.0,1.0,1.0,2.0,-15.0,-8.0,0.0,0.0,1651094074115147.0
1.0,1.0,1.0,-3.0,-3.0,4.0,-1.0,-1.0,1651094074115147.0
0.0,-1.0,-4.0,-1.0,-4.0,-4.0,0.0,-2.0,1651094074116144.0
0.0,-1.0,0.0,-1.0,5.0,-1.0,-2.0,-1.0,1651094074116144.0
-2.0,-1.0,-1.0,3.0,2.0,2.0,-1.0,-1.0,1651094074136341.0
-1.0,0.0,-2.0,-1.0,-6.0,-5.0,-2.0,-1.0,1651094074136341.0
-1.0,2.0,-3.0,-1.0,-1.0,0.0,-1.0,-2.0,1651094074136341.0
-1.0,-3.0,-1.0,-2.0,-7.0,-9.0,-1.0,0.0,1651094074136341.0
-1.0,-2.0,3.0,-3.0,2.0,1.0,1.0,-2.0,1651094074149361.0
-2.0,0.0,0.0,0.0,2.0,5.0,1.0,0.0,1651094074149361.0
1.0,-1.0,-3.0,1.0,17.0,-8.0,-3.0,1.0,1651094074158526.0
0.0,0.0,3.0,0.0,-13.0,2.0,-2.0,-1.0,1651094074158526.0
0.0,-3.0,-6.0,-2.0,-5.0,-11.0,-1.0,0.0,1651094074173708.0
0.0,1.0,2.0,2.0,-6.0,-1.0,-1.0,-2.0,1651094074173708.0
-2.0,0.0,0.0,-3.0,16.0,-6.0,0.0,-2.0,1651094074173708.0
-1.0,-1.0,0.0,0.0,-12.0,11.0,-1.0,0.0,1651094074173708.0
0.0,1.0,-6.0,-1.0,19.0,1.0,-1.0,0.0,1651094074195526.0
0.0,-3.0,-1.0,5.0,-7.0,-8.0,0.0,1.0,1651094074195526.0
-1.0,-1.0,0.0,-2.0,-1.0,-8.0,-1.0,-1.0,1651094074196523.0
1.0,-1.0,4.0,2.0,2.0,16.0,0.0,-1.0,1651094074196523.0
1.0,1.0,0.0,-2.0,-7.0,1.0,-1.0,0.0,1651094074217990.0
0.0,-2.0,-1.0,-2.0,2.0,0.0,-1.0,-2.0,1651094074217990.0
-2.0,-2.0,-6.0,-1.0,-2.0,9.0,1.0,-1.0,1651094074219987.0
-2.0,3.0,6.0,-1.0,0.0,-7.0,-1.0,-1.0,1651094074219987.0
0.0,-1.0,0.0,1.0,3.0,-1.0,0.0,-1.0,1651094074241247.0
-2.0,2.0,-2.0,0.0,1.0,8.0,0.0,2.0,1651094074241247.0
0.0,-2.0,0.0,-1.0,-8.0,-5.0,0.0,-1.0,1651094074242236.0
-1.0,-3.0,-4.0,0.0,5.0,-14.0,-3.0,-1.0,1651094074242236.0
-1.0,0.0,1.0,-1.0,-6.0,22.0,-1.0,0.0,1651094074254391.0
-2.0,-3.0,1.0,-1.0,9.0,-12.0,0.0,-1.0,1651094074254391.0
-1.0,0.0,-2.0,4.0,-1.0,3.0,-1.0,0.0,1651094074263220.0
-2.0,-1.0,-2.0,-1.0,-6.0,-3.0,-2.0,-1.0,1651094074263220.0
0.0,0.0,5.0,-1.0,-1.0,-1.0,-2.0,-1.0,1651094074278351.0
1.0,-1.0,-7.0,1.0,8.0,-5.0,-2.0,-1.0,1651094074278351.0
0.0,-1.0,-2.0,-6.0,-5.0,5.0,1.0,1.0,1651094074279349.0
0.0,-2.0,0.0,0.0,0.0,2.0,-1.0,-2.0,1651094074279349.0
0.0,-3.0,-1.0,0.0,9.0,22.0,2.0,0.0,1651094074300675.0
-1.0,-2.0,-3.0,0.0,-14.0,-9.0,-2.0,-1.0,1651094074300675.0
-1.0,3.0,8.0,2.0,3.0,3.0,-2.0,-1.0,1651094074301674.0
-1.0,-3.0,-4.0,0.0,-2.0,2.0,0.0,-1.0,1651094074301674.0
-2.0,0.0,0.0,0.0,-2.0,-7.0,0.0,-1.0,1651094074314605.0
1.0,1.0,1.0,0.0,-3.0,6.0,1.0,0.0,1651094074314605.0
1.0,-2.0,-3.0,0.0,-4.0,-7.0,1.0,1.0,1651094074321731.0
-1.0,-2.0,-1.0,-6.0,11.0,12.0,3.0,1.0,1651094074321731.0
0.0,-4.0,-4.0,4.0,-3.0,-3.0,-2.0,-1.0,1651094074338688.0
0.0,1.0,0.0,4.0,-1.0,-2.0,-1.0,0.0,1651094074338688.0
-1.0,-1.0,-3.0,-2.0,-9.0,-2.0,1.0,-1.0,1651094074339537.0
0.0,0.0,-1.0,-1.0,0.0,-9.0,0.0,0.0,1651094074339537.0
-1.0,0.0,-4.0,-4.0,4.0,-5.0,-1.0,0.0,1651094074360943.0
-2.0,-1.0,1.0,1.0,-24.0,7.0,2.0,0.0,1651094074360943.0
1.0,0.0,2.0,2.0,5.0,8.0,0.0,-1.0,1651094074361803.0
0.0,-2.0,0.0,1.0,1.0,-3.0,0.0,0.0,1651094074361803.0
-1.0,2.0,6.0,1.0,-6.0,-8.0,0.0,-2.0,1651094074374808.0
-1.0,0.0,-5.0,-3.0,2.0,-15.0,-2.0,-1.0,1651094074374808.0
-1.0,-4.0,-6.0,-1.0,12.0,1.0,1.0,0.0,1651094074382182.0
0.0,3.0,4.0,-1.0,-3.0,4.0,1.0,-1.0,1651094074382182.0
-1.0,-1.0,0.0,-5.0,-3.0,-5.0,-1.0,-1.0,1651094074399134.0
-1.0,-1.0,3.0,0.0,2.0,-15.0,0.0,-2.0,1651094074399134.0
0.0,-2.0,2.0,2.0,-4.0,9.0,-1.0,0.0,1651094074400167.0
0.0,-1.0,-4.0,2.0,0.0,-4.0,-2.0,0.0,1651094074400167.0
-1.0,-1.0,-1.0,5.0,2.0,-3.0,-3.0,0.0,1651094074421472.0
0.0,-2.0,0.0,-7.0,-6.0,2.0,-1.0,-1.0,1651094074421472.0
0.0,-3.0,-4.0,-4.0,-3.0,-7.0,-1.0,-1.0,1651094074422334.0
2.0,-2.0,1.0,-3.0,-18.0,10.0,-6.0,-3.0,1651094074422334.0
-1.0,0.0,-2.0,-1.0,-1.0,-7.0,-19.0,-4.0,1651094074434482.0
-3.0,-2.0,-2.0,6.0,0.0,5.0,14.0,-5.0,1651094074434482.0
-2.0,-3.0,-1.0,-5.0,-16.0,-5.0,-2.0,-2.0,1651094074450897.0
0.0,2.0,0.0,-3.0,36.0,-3.0,-3.0,2.0,1651094074450897.0
-2.0,-3.0,-3.0,2.0,-4.0,-5.0,-43.0,-4.0,1651094074458875.0
-3.0,-2.0,-1.0,-14.0,-3.0,1.0,71.0,-4.0,1651094074458875.0
0.0,0.0,-1.0,-29.0,-8.0,20.0,-55.0,-11.0,1651094074459730.0
-4.0,0.0,3.0,56.0,-18.0,-33.0,71.0,7.0,1651094074459730.0
8.0,2.0,1.0,9.0,29.0,49.0,25.0,20.0,1651094074481057.0
2.0,-1.0,-1.0,9.0,-2.0,-78.0,-68.0,-3.0,1651094074481057.0
-3.0,0.0,2.0,-3.0,23.0,-3.0,-37.0,3.0,1651094074482056.0
-11.0,-7.0,-3.0,-46.0,-23.0,9.0,-23.0,-15.0,1651094074482056.0
-14.0,-5.0,-11.0,-10.0,-51.0,-46.0,-4.0,-10.0,1651094074494210.0
24.0,12.0,12.0,35.0,43.0,95.0,89.0,14.0,1651094074494210.0
15.0,6.0,2.0,3.0,-4.0,-63.0,-88.0,-8.0,1651094074503311.0
14.0,6.0,1.0,1.0,4.0,20.0,-63.0,24.0,1651094074503311.0
6.0,-2.0,-3.0,-11.0,0.0,-8.0,100.0,19.0,1651094074520333.0
-35.0,-18.0,-11.0,-30.0,-19.0,-52.0,-79.0,-20.0,1651094074520333.0
-17.0,-1.0,2.0,7.0,-15.0,-57.0,97.0,-15.0,1651094074521227.0
6.0,-1.0,-2.0,5.0,24.0,-63.0,24.0,-13.0,1651094074521227.0
19.0,12.0,5.0,-3.0,9.0,53.0,-32.0,22.0,1651094074541462.0
7.0,2.0,-1.0,-6.0,9.0,59.0,-40.0,4.0,1651094074541462.0
-11.0,-3.0,-3.0,12.0,-15.0,-61.0,-98.0,-23.0,1651094074542382.0
-25.0,-13.0,-11.0,-34.0,-13.0,15.0,106.0,-7.0,1651094074542382.0
-3.0,-3.0,3.0,16.0,18.0,32.0,17.0,15.0,1651094074554510.0
-26.0,-11.0,-6.0,-4.0,4.0,20.0,-99.0,-46.0,1651094074554510.0
10.0,9.0,6.0,14.0,-4.0,82.0,125.0,7.0,1651094074563725.0
-5.0,10.0,4.0,4.0,18.0,7.0,30.0,2.0,1651094074563725.0
19.0,0.0,-2.0,-13.0,-3.0,-49.0,-81.0,-9.0,1651094074578039.0
5.0,-2.0,2.0,-13.0,4.0,16.0,91.0,44.0,1651094074578039.0
-2.0,-9.0,-5.0,-21.0,18.0,49.0,-3.0,-4.0,1651094074579908.0
23.0,4.0,-4.0,8.0,-2.0,-24.0,-36.0,-10.0,1651094074579908.0
3.0,4.0,9.0,50.0,-8.0,64.0,125.0,24.0,1651094074601211.0
9.0,9.0,9.0,12.0,-18.0,24.0,-43.0,-2.0,1651094074601211.0
-17.0,-14.0,-7.0,-13.0,11.0,-16.0,-94.0,0.0,1651094074603078.0
-27.0,-10.0,-3.0,-39.0,18.0,15.0,88.0,-22.0,1651094074603078.0
-6.0,3.0,-3.0,3.0,2.0,-28.0,-86.0,-6.0,1651094074624511.0
18.0,8.0,5.0,25.0,7.0,-54.0,85.0,15.0,1651094074624511.0
3.0,3.0,-1.0,-3.0,-44.0,4.0,34.0,1.0,1651094074625382.0
14.0,2.0,5.0,0.0,-1.0,-45.0,-128.0,14.0,1651094074625382.0
-39.0,-16.0,-8.0,-22.0,-42.0,-66.0,56.0,-60.0,1651094074645522.0
12.0,4.0,1.0,5.0,26.0,-3.0,-34.0,14.0,1651094074645522.0
22.0,10.0,7.0,0.0,9.0,91.0,127.0,55.0,1651094074647554.0
-24.0,-9.0,-7.0,28.0,-4.0,68.0,-29.0,-11.0,1651094074647554.0
4.0,9.0,6.0,6.0,-5.0,-104.0,-11.0,-9.0,1651094074661688.0
-6.0,1.0,-1.0,0.0,19.0,20.0,-74.0,-23.0,1651094074661688.0
6.0,7.0,2.0,-8.0,-7.0,52.0,21.0,41.0,1651094074663685.0
33.0,8.0,7.0,-3.0,-27.0,-49.0,10.0,32.0,1651094074663685.0
-15.0,0.0,-5.0,4.0,47.0,56.0,4.0,-4.0,1651094074683772.0
-20.0,-11.0,-5.0,-2.0,-4.0,-59.0,-23.0,-35.0,1651094074683772.0
9.0,-2.0,0.0,9.0,19.0,86.0,41.0,0.0,1651094074684630.0
23.0,10.0,9.0,-17.0,1.0,17.0,28.0,15.0,1651094074684630.0
-13.0,-10.0,-4.0,3.0,-9.0,16.0,-48.0,-26.0,1651094074699014.0
-40.0,-15.0,-16.0,33.0,9.0,26.0,-74.0,-61.0,1651094074699014.0
33.0,10.0,9.0,-7.0,3.0,-8.0,-56.0,26.0,1651094074699652.0
24.0,13.0,8.0,8.0,21.0,49.0,76.0,46.0,1651094074699652.0
-12.0,-6.0,-2.0,-25.0,-3.0,-2.0,14.0,0.0,1651094074728076.0
18.0,-1.0,0.0,-14.0,-17.0,49.0,42.0,17.0,1651094074728076.0
-6.0,3.0,-2.0,20.0,-35.0,-128.0,-30.0,-28.0,1651094074729977.0
-29.0,-12.0,-9.0,-4.0,-23.0,31.0,-63.0,-42.0,1651094074729977.0
6.0,0.0,2.0,-18.0,-3.0,-48.0,-33.0,17.0,1651094074733954.0
-29.0,-5.0,-8.0,-42.0,-21.0,12.0,-73.0,-8.0,1651094074733954.0
-16.0,-9.0,-3.0,21.0,-8.0,43.0,116.0,-12.0,1651094074743021.0
2.0,-3.0,-3.0,-30.0,5.0,12.0,-1.0,22.0,1651094074743021.0
-7.0,-3.0,-4.0,27.0,7.0,8.0,-66.0,-14.0,1651094074758861.0
5.0,14.0,12.0,-21.0,-13.0,68.0,82.0,-1.0,1651094074758861.0
53.0,3.0,5.0,47.0,36.0,-102.0,25.0,24.0,1651094074760059.0
1.0,-3.0,-7.0,17.0,0.0,59.0,5.0,-11.0,1651094074760059.0
75.0,18.0,9.0,22.0,-5.0,-72.0,-78.0,20.0,1651094074781318.0
-44.0,-13.0,-11.0,-28.0,-14.0,14.0,74.0,10.0,1651094074781318.0
0.0,-5.0,-4.0,-44.0,-1.0,-7.0,-70.0,-24.0,1651094074782224.0
-21.0,-4.0,-6.0,25.0,4.0,-41.0,58.0,-8.0,1651094074782224.0
15.0,7.0,9.0,-35.0,25.0,117.0,88.0,31.0,1651094074794244.0
0.0,-9.0,-11.0,36.0,-10.0,16.0,-81.0,-10.0,1651094074794244.0
-37.0,-5.0,6.0,9.0,-15.0,9.0,-28.0,1.0,1651094074803398.0
-15.0,-11.0,-16.0,-8.0,-15.0,54.0,-40.0,-23.0,1651094074803398.0
-8.0,8.0,14.0,1.0,24.0,77.0,-7.0,-31.0,1651094074818508.0
33.0,4.0,-3.0,-16.0,1.0,68.0,70.0,42.0,1651094074818508.0
3.0,0.0,-6.0,-9.0,11.0,23.0,-71.0,-9.0,1651094074819462.0
-28.0,-4.0,-6.0,-19.0,2.0,92.0,-78.0,-34.0,1651094074819462.0
11.0,-1.0,1.0,23.0,-22.0,-5.0,-28.0,24.0,1651094074841715.0
-1.0,1.0,13.0,31.0,1.0,-76.0,127.0,20.0,1651094074841715.0
11.0,4.0,4.0,23.0,13.0,59.0,17.0,23.0,1651094074841715.0
-37.0,5.0,2.0,4.0,16.0,33.0,29.0,-22.0,1651094074841715.0
29.0,-11.0,-10.0,-24.0,-7.0,56.0,27.0,-2.0,1651094074854739.0
20.0,1.0,0.0,-13.0,-5.0,-81.0,-38.0,22.0,1651094074854739.0
-26.0,-5.0,-12.0,-20.0,-13.0,42.0,16.0,-53.0,1651094074862756.0
26.0,4.0,6.0,22.0,8.0,-115.0,-38.0,27.0,1651094074862756.0
-46.0,0.0,-3.0,-7.0,-2.0,-14.0,84.0,16.0,1651094074877838.0
51.0,2.0,3.0,18.0,-5.0,-124.0,-94.0,-15.0,1651094074877838.0
-21.0,-13.0,-11.0,-59.0,0.0,-26.0,-47.0,-30.0,1651094074879710.0
11.0,4.0,4.0,25.0,-15.0,47.0,88.0,36.0,1651094074879710.0
-31.0,-5.0,5.0,13.0,7.0,-37.0,-109.0,-19.0,1651094074901073.0
10.0,-2.0,-7.0,-14.0,-18.0,67.0,47.0,15.0,1651094074901073.0
-66.0,7.0,14.0,10.0,19.0,-19.0,64.0,-3.0,1651094074902000.0
76.0,-5.0,-9.0,-35.0,-39.0,4.0,-69.0,-22.0,1651094074902000.0
13.0,4.0,-10.0,25.0,17.0,-82.0,64.0,28.0,1651094074915088.0
-27.0,-2.0,7.0,-33.0,-14.0,49.0,-18.0,-28.0,1651094074915088.0
-6.0,3.0,1.0,68.0,39.0,43.0,16.0,-1.0,1651094074922954.0
6.0,-8.0,-8.0,4.0,6.0,-72.0,-16.0,37.0,1651094074922954.0
-2.0,1.0,9.0,-27.0,-9.0,2.0,16.0,-10.0,1651094074938215.0
-34.0,-13.0,-13.0,-17.0,-11.0,62.0,-125.0,-39.0,1651094074938215.0
26.0,-7.0,11.0,19.0,-11.0,-128.0,73.0,44.0,1651094074940117.0
-5.0,21.0,-3.0,19.0,7.0,-15.0,68.0,8.0,1651094074940117.0
-46.0,-12.0,-9.0,-24.0,-12.0,63.0,-115.0,-49.0,1651094074961556.0
44.0,-1.0,-1.0,-9.0,0.0,71.0,124.0,38.0,1651094074961556.0
2.0,5.0,2.0,-24.0,-21.0,-34.0,-12.0,-12.0,1651094074962443.0
-30.0,-14.0,1.0,19.0,-8.0,-20.0,-46.0,-22.0,1651094074962443.0
7.0,-5.0,-9.0,11.0,12.0,76.0,29.0,9.0,1651094074983025.0
-28.0,9.0,5.0,-18.0,2.0,-57.0,-10.0,-6.0,1651094074983025.0
19.0,-9.0,-19.0,13.0,8.0,-24.0,-91.0,-3.0,1651094074984896.0
7.0,10.0,11.0,-43.0,-16.0,19.0,76.0,18.0,1651094074984896.0
43.0,-1.0,-14.0,29.0,-3.0,70.0,16.0,-6.0,1651094074998181.0
-41.0,-1.0,20.0,13.0,28.0,-6.0,-34.0,-21.0,1651094074998181.0
2.0,-9.0,-7.0,-74.0,-58.0,-57.0,-47.0,-4.0,1651094075000057.0
-46.0,-15.0,-11.0,23.0,-10.0,3.0,-128.0,-49.0,1651094075000057.0
30.0,12.0,12.0,-12.0,-2.0,37.0,110.0,60.0,1651094075020911.0
8.0,10.0,-4.0,28.0,0.0,-28.0,30.0,32.0,1651094075020911.0
-5.0,2.0,-1.0,-14.0,3.0,86.0,-7.0,-7.0,1651094075021911.0
-4.0,-9.0,8.0,-3.0,2.0,-74.0,-60.0,-14.0,1651094075021911.0
13.0,-2.0,-12.0,-25.0,-4.0,-39.0,48.0,-5.0,1651094075043463.0
38.0,3.0,8.0,46.0,14.0,80.0,-66.0,-4.0,1651094075043463.0
-31.0,0.0,-15.0,-24.0,-2.0,-30.0,20.0,5.0,1651094075044305.0
-23.0,-7.0,5.0,-18.0,0.0,94.0,59.0,-9.0,1651094075044305.0
-17.0,7.0,9.0,46.0,12.0,11.0,-12.0,10.0,1651094075058585.0
-10.0,-5.0,-12.0,-37.0,-13.0,-103.0,-19.0,-14.0,1651094075058585.0
34.0,-2.0,-25.0,4.0,47.0,127.0,33.0,27.0,1651094075059433.0
-5.0,20.0,43.0,37.0,16.0,-35.0,11.0,21.0,1651094075059433.0
83.0,-8.0,-17.0,-28.0,-30.0,-17.0,-108.0,-8.0,1651094075080720.0
-15.0,2.0,5.0,-16.0,-6.0,8.0,46.0,13.0,1651094075080720.0
5.0,0.0,-17.0,25.0,-4.0,21.0,-26.0,-19.0,1651094075082591.0
-3.0,-1.0,10.0,42.0,33.0,6.0,-56.0,-5.0,1651094075082591.0
-50.0,11.0,19.0,17.0,8.0,-30.0,67.0,-12.0,1651094075103686.0
10.0,-1.0,-7.0,-8.0,0.0,-5.0,15.0,15.0,1651094075103686.0
13.0,-11.0,5.0,9.0,17.0,21.0,-20.0,-14.0,1651094075104686.0
36.0,-2.0,-19.0,-18.0,-23.0,-34.0,-10.0,6.0,1651094075104686.0
-44.0,-11.0,-2.0,-38.0,-15.0,-40.0,-11.0,-9.0,1651094075117801.0
0.0,-4.0,-18.0,14.0,19.0,6.0,2.0,-19.0,1651094075117801.0
7.0,3.0,23.0,-23.0,-20.0,-39.0,-34.0,37.0,1651094075124941.0
-2.0,1.0,-18.0,-2.0,-25.0,-84.0,-74.0,-12.0,1651094075124941.0
-56.0,-19.0,5.0,3.0,15.0,-7.0,-18.0,-40.0,1651094075141367.0
85.0,29.0,9.0,-20.0,-13.0,-81.0,53.0,58.0,1651094075141367.0
-10.0,-7.0,-9.0,6.0,1.0,31.0,29.0,-6.0,1651094075141925.0
-2.0,6.0,25.0,14.0,16.0,44.0,-20.0,26.0,1651094075141925.0
25.0,3.0,-13.0,-24.0,-18.0,36.0,55.0,-11.0,1651094075163063.0
-94.0,-21.0,0.0,-35.0,4.0,114.0,-37.0,-55.0,1651094075163063.0
32.0,18.0,-27.0,70.0,35.0,23.0,-44.0,19.0,1651094075164953.0
17.0,3.0,54.0,-48.0,-1.0,40.0,62.0,-1.0,1651094075164953.0
-47.0,-10.0,-2.0,47.0,15.0,88.0,-79.0,-10.0,1651094075178036.0
7.0,-17.0,-43.0,9.0,-31.0,-75.0,112.0,18.0,1651094075178036.0
-61.0,22.0,5.0,-1.0,4.0,-7.0,-12.0,-12.0,1651094075183870.0
70.0,5.0,-19.0,-28.0,-17.0,36.0,-10.0,3.0,1651094075183870.0
-43.0,-3.0,-4.0,-11.0,13.0,52.0,-31.0,-9.0,1651094075200380.0
-27.0,-14.0,3.0,23.0,-5.0,-79.0,-62.0,-25.0,1651094075200380.0
74.0,7.0,-3.0,4.0,-6.0,69.0,-5.0,8.0,1651094075202377.0
-42.0,8.0,28.0,-1.0,2.0,-37.0,45.0,7.0,1651094075202377.0
36.0,3.0,-5.0,-36.0,-28.0,-41.0,44.0,37.0,1651094075223780.0
26.0,1.0,10.0,52.0,14.0,6.0,-48.0,-29.0,1651094075223780.0
-37.0,-11.0,22.0,6.0,4.0,-71.0,10.0,1.0,1651094075224630.0
-45.0,-6.0,-16.0,-15.0,8.0,-13.0,-10.0,-29.0,1651094075224630.0
42.0,-8.0,-19.0,-7.0,-1.0,-55.0,-43.0,16.0,1651094075237928.0
-56.0,7.0,-5.0,-30.0,6.0,7.0,0.0,-55.0,1651094075237928.0
55.0,3.0,2.0,-8.0,-24.0,-27.0,24.0,55.0,1651094075252169.0
20.0,-31.0,-62.0,32.0,12.0,49.0,-20.0,-2.0,1651094075252169.0
-69.0,0.0,63.0,5.0,-15.0,39.0,-25.0,-42.0,1651094075261361.0
55.0,15.0,-5.0,6.0,-9.0,-79.0,24.0,65.0,1651094075261361.0
-5.0,-2.0,12.0,-40.0,-25.0,101.0,-13.0,-57.0,1651094075261953.0
44.0,-8.0,-47.0,3.0,8.0,101.0,22.0,21.0,1651094075261953.0
-2.0,7.0,8.0,19.0,4.0,83.0,35.0,4.0,1651094075283627.0
-13.0,-7.0,20.0,-6.0,-9.0,29.0,3.0,0.0,1651094075283627.0
16.0,6.0,14.0,16.0,2.0,-11.0,11.0,-5.0,1651094075284123.0
20.0,-11.0,-63.0,-43.0,-30.0,-104.0,26.0,32.0,1651094075284123.0
-14.0,7.0,48.0,-10.0,0.0,8.0,-91.0,-20.0,1651094075297447.0
1.0,-3.0,10.0,55.0,19.0,96.0,61.0,-8.0,1651094075297447.0
-65.0,-2.0,13.0,-40.0,-2.0,15.0,-3.0,-10.0,1651094075304425.0
5.0,-1.0,-15.0,9.0,-4.0,-30.0,44.0,15.0,1651094075304425.0
3.0,-12.0,-48.0,4.0,-12.0,-31.0,-38.0,1.0,1651094075320924.0
-5.0,4.0,16.0,-27.0,1.0,-21.0,-41.0,0.0,1651094075320924.0
-1.0,-2.0,3.0,19.0,2.0,-49.0,44.0,3.0,1651094075321924.0
-73.0,21.0,47.0,-2.0,-2.0,-5.0,-39.0,-33.0,1651094075321924.0
34.0,-21.0,44.0,-15.0,-17.0,-85.0,76.0,20.0,1651094075343840.0
36.0,38.0,-45.0,-4.0,24.0,81.0,-29.0,3.0,1651094075343840.0
21.0,-35.0,-25.0,-5.0,-14.0,-17.0,-2.0,-14.0,1651094075344099.0
-43.0,3.0,-2.0,-6.0,1.0,-69.0,-15.0,-17.0,1651094075344099.0
24.0,8.0,-10.0,10.0,24.0,-40.0,66.0,44.0,1651094075357290.0
43.0,9.0,15.0,-3.0,-9.0,43.0,19.0,14.0,1651094075357290.0
-65.0,3.0,4.0,12.0,1.0,-31.0,-33.0,-13.0,1651094075366301.0
77.0,1.0,-2.0,14.0,0.0,116.0,13.0,23.0,1651094075366301.0
-54.0,-6.0,6.0,9.0,2.0,-5.0,-27.0,-59.0,1651094075381073.0
7.0,-4.0,0.0,-1.0,-12.0,-80.0,-9.0,34.0,1651094075381073.0
3.0,1.0,0.0,-24.0,-6.0,19.0,11.0,-6.0,1651094075382073.0
16.0,-12.0,-45.0,-26.0,-13.0,34.0,42.0,11.0,1651094075382073.0
10.0,15.0,15.0,36.0,7.0,27.0,-13.0,-1.0,1651094075403690.0
-43.0,-9.0,45.0,-9.0,-5.0,-32.0,-59.0,-18.0,1651094075403690.0
16.0,4.0,8.0,1.0,31.0,16.0,-5.0,-11.0,1651094075404533.0
4.0,-9.0,-14.0,-24.0,-29.0,-81.0,50.0,14.0,1651094075404533.0
9.0,14.0,-51.0,-6.0,-11.0,65.0,-23.0,-14.0,1651094075417891.0
10.0,-9.0,35.0,6.0,14.0,-67.0,40.0,37.0,1651094075417891.0
10.0,-3.0,-28.0,29.0,-13.0,-6.0,14.0,15.0,1651094075425084.0
-18.0,-11.0,38.0,6.0,-3.0,37.0,-33.0,-26.0,1651094075425084.0
13.0,15.0,-30.0,-7.0,3.0,-71.0,0.0,6.0,1651094075441413.0
-5.0,4.0,18.0,11.0,9.0,70.0,8.0,-1.0,1651094075441413.0
-4.0,5.0,13.0,-20.0,3.0,44.0,5.0,-8.0,1651094075442350.0
-1.0,-3.0,-13.0,-10.0,11.0,69.0,24.0,2.0,1651094075442350.0
-26.0,-8.0,9.0,16.0,-2.0,-11.0,-24.0,-14.0,1651094075463505.0
62.0,-10.0,-33.0,-13.0,-3.0,-6.0,12.0,-20.0,1651094075463505.0
29.0,-8.0,-1.0,8.0,-9.0,-18.0,-35.0,37.0,1651094075464469.0
-85.0,13.0,43.0,39.0,16.0,22.0,-1.0,-40.0,1651094075464469.0
63.0,-14.0,-47.0,-17.0,20.0,66.0,25.0,26.0,1651094075476435.0
-29.0,10.0,40.0,5.0,-34.0,-28.0,-1.0,9.0,1651094075476435.0
3.0,0.0,-18.0,7.0,19.0,20.0,12.0,1.0,1651094075485444.0
19.0,1.0,12.0,32.0,34.0,54.0,-10.0,-10.0,1651094075485444.0
-88.0,-7.0,-17.0,-52.0,-30.0,12.0,-5.0,-36.0,1651094075500371.0
6.0,-7.0,-33.0,-20.0,-9.0,-55.0,-16.0,2.0,1651094075500371.0
0.0,3.0,-10.0,31.0,2.0,-3.0,17.0,34.0,1651094075502366.0
-24.0,7.0,59.0,17.0,13.0,19.0,-34.0,-12.0,1651094075502366.0
-8.0,-3.0,-5.0,0.0,-2.0,-24.0,10.0,7.0,1651094075522313.0
14.0,-25.0,-44.0,-28.0,0.0,-7.0,-5.0,-7.0,1651094075522313.0
-21.0,12.0,32.0,3.0,-21.0,70.0,20.0,-18.0,1651094075530327.0
-39.0,6.0,-6.0,41.0,33.0,-62.0,13.0,3.0,1651094075530327.0
111.0,16.0,7.0,-13.0,-6.0,39.0,-34.0,38.0,1651094075536310.0
-41.0,-12.0,-10.0,12.0,7.0,4.0,-53.0,-21.0,1651094075536310.0
0.0,6.0,-8.0,-55.0,5.0,25.0,78.0,9.0,1651094075545252.0
11.0,-4.0,-11.0,-6.0,-30.0,12.0,17.0,13.0,1651094075545252.0
1.0,5.0,58.0,21.0,28.0,-41.0,31.0,-6.0,1651094075561240.0
-12.0,0.0,-30.0,23.0,-6.0,51.0,4.0,6.0,1651094075561240.0
-61.0,-11.0,-8.0,-9.0,-10.0,10.0,-70.0,-25.0,1651094075562207.0
46.0,0.0,6.0,-33.0,-6.0,16.0,-5.0,-8.0,1651094075562207.0
7.0,-8.0,-31.0,3.0,19.0,1.0,-48.0,29.0,1651094075583184.0
-10.0,8.0,-3.0,11.0,1.0,-48.0,57.0,-10.0,1651094075583184.0
-8.0,-2.0,14.0,-2.0,-3.0,76.0,-41.0,-7.0,1651094075584152.0
-46.0,5.0,46.0,3.0,-5.0,-49.0,-34.0,1.0,1651094075584152.0
16.0,-1.0,-41.0,-3.0,-12.0,-19.0,25.0,8.0,1651094075597112.0
-3.0,3.0,16.0,-4.0,14.0,109.0,5.0,-6.0,1651094075597112.0
51.0,-16.0,-7.0,12.0,-24.0,-84.0,-10.0,-3.0,1651094075606088.0
4.0,-7.0,-19.0,10.0,33.0,33.0,-1.0,-1.0,1651094075606088.0
-97.0,9.0,36.0,-6.0,-22.0,-9.0,-51.0,-34.0,1651094075620053.0
60.0,-1.0,-8.0,-11.0,13.0,43.0,2.0,30.0,1651094075620053.0
3.0,5.0,-3.0,-13.0,-6.0,-128.0,62.0,12.0,1651094075622047.0
17.0,3.0,-31.0,-20.0,-10.0,45.0,1.0,-10.0,1651094075622047.0
-29.0,-6.0,14.0,43.0,-7.0,30.0,38.0,-11.0,1651094075644162.0
-10.0,-28.0,-32.0,29.0,10.0,-40.0,-21.0,1.0,1651094075644162.0
-2.0,20.0,57.0,1.0,1.0,-57.0,-28.0,5.0,1651094075645163.0
16.0,10.0,-13.0,-47.0,-10.0,32.0,-22.0,-10.0,1651094075645163.0
-31.0,-6.0,-14.0,20.0,23.0,94.0,33.0,-14.0,1651094075657435.0
-10.0,6.0,10.0,17.0,2.0,-61.0,-12.0,12.0,1651094075657435.0
77.0,-8.0,-36.0,5.0,-6.0,42.0,43.0,29.0,1651094075665288.0
62.0,6.0,25.0,-18.0,-15.0,-25.0,9.0,-4.0,1651094075665288.0
-17.0,-14.0,-12.0,-4.0,-1.0,-6.0,0.0,-12.0,1651094075679413.0
11.0,6.0,12.0,15.0,30.0,127.0,-9.0,6.0,1651094075679413.0
-24.0,0.0,-4.0,24.0,-2.0,-49.0,-5.0,9.0,1651094075695595.0
6.0,5.0,4.0,-1.0,-2.0,24.0,-10.0,5.0,1651094075695595.0
25.0,9.0,59.0,-11.0,9.0,-87.0,23.0,7.0,1651094075703680.0
-30.0,12.0,-8.0,-33.0,-21.0,19.0,-26.0,-26.0,1651094075703680.0
-39.0,-16.0,-27.0,36.0,26.0,67.0,-29.0,-28.0,1651094075704680.0
-28.0,-12.0,-5.0,-14.0,0.0,-81.0,-1.0,5.0,1651094075704680.0
35.0,8.0,-20.0,18.0,-4.0,-9.0,-8.0,7.0,1651094075716809.0
16.0,6.0,0.0,-27.0,-6.0,19.0,-6.0,23.0,1651094075716809.0
-48.0,-8.0,30.0,-14.0,-5.0,-3.0,30.0,-47.0,1651094075725781.0
-20.0,-12.0,5.0,21.0,7.0,-35.0,8.0,30.0,1651094075725781.0
39.0,-14.0,-118.0,-15.0,-3.0,-11.0,-4.0,-1.0,1651094075740174.0
16.0,19.0,109.0,11.0,-4.0,-31.0,25.0,-4.0,1651094075740174.0
-8.0,5.0,-21.0,23.0,6.0,72.0,-61.0,-24.0,1651094075748537.0
-25.0,-6.0,-47.0,-45.0,-17.0,-31.0,1.0,-3.0,1651094075748537.0
41.0,-12.0,-32.0,-5.0,-18.0,-66.0,50.0,46.0,1651094075763891.0
-39.0,-12.0,-43.0,-10.0,-2.0,-15.0,0.0,-20.0,1651094075763891.0
-24.0,7.0,-6.0,-15.0,-6.0,-12.0,-29.0,-62.0,1651094075765096.0
30.0,13.0,33.0,26.0,7.0,-78.0,-4.0,28.0,1651094075765096.0
-42.0,14.0,25.0,-31.0,-4.0,82.0,0.0,14.0,1651094075777395.0
62.0,0.0,-28.0,23.0,9.0,24.0,-17.0,-1.0,1651094075777395.0
8.0,-12.0,20.0,-4.0,-17.0,-41.0,3.0,-13.0,1651094075785492.0
-34.0,1.0,3.0,25.0,23.0,37.0,16.0,-24.0,1651094075785492.0
-24.0,-1.0,8.0,-23.0,-7.0,-23.0,-38.0,-12.0,1651094075800800.0
20.0,-5.0,6.0,5.0,-11.0,43.0,9.0,23.0,1651094075800800.0
-24.0,13.0,-2.0,-37.0,-10.0,53.0,7.0,12.0,1651094075807775.0
30.0,-12.0,-52.0,11.0,1.0,30.0,-1.0,23.0,1651094075807775.0
-9.0,-4.0,90.0,5.0,7.0,-69.0,-3.0,-42.0,1651094075823819.0
-36.0,-6.0,-28.0,-12.0,-7.0,75.0,27.0,-25.0,1651094075823819.0
14.0,-5.0,-85.0,2.0,1.0,-74.0,-51.0,32.0,1651094075824850.0
-20.0,10.0,33.0,-9.0,-6.0,110.0,1.0,-20.0,1651094075824850.0
55.0,5.0,48.0,5.0,-4.0,-51.0,19.0,45.0,1651094075838120.0
5.0,-11.0,-62.0,3.0,13.0,-57.0,6.0,0.0,1651094075838120.0
-31.0,-11.0,58.0,-14.0,5.0,18.0,9.0,-18.0,1651094075845945.0
33.0,5.0,13.0,30.0,-10.0,-43.0,-17.0,21.0,1651094075845945.0
-16.0,9.0,-75.0,1.0,-17.0,58.0,-54.0,-42.0,1651094075861486.0
-47.0,0.0,71.0,-27.0,22.0,-63.0,14.0,-12.0,1651094075861486.0
64.0,-24.0,-59.0,-1.0,-7.0,-33.0,10.0,18.0,1651094075861953.0
11.0,-11.0,38.0,3.0,18.0,41.0,-29.0,-21.0,1651094075861953.0
-46.0,4.0,-42.0,25.0,0.0,-14.0,61.0,28.0,1651094075883599.0
86.0,11.0,36.0,-53.0,-20.0,-30.0,-30.0,-22.0,1651094075883599.0
10.0,3.0,7.0,58.0,6.0,-48.0,-15.0,6.0,1651094075884474.0
-38.0,9.0,-3.0,-7.0,6.0,-19.0,2.0,-19.0,1651094075884474.0
18.0,-10.0,-23.0,-16.0,-2.0,-48.0,0.0,41.0,1651094075906581.0
-73.0,-2.0,-49.0,-11.0,-20.0,-19.0,18.0,-19.0,1651094075906581.0
27.0,6.0,91.0,13.0,16.0,96.0,24.0,12.0,1651094075907411.0
12.0,4.0,-32.0,31.0,21.0,75.0,-78.0,-7.0,1651094075907411.0
-22.0,1.0,7.0,22.0,17.0,67.0,88.0,8.0,1651094075921109.0
-17.0,-13.0,9.0,-7.0,17.0,59.0,5.0,27.0,1651094075921109.0
1.0,9.0,-20.0,-36.0,-16.0,68.0,4.0,-12.0,1651094075922109.0
0.0,-6.0,-6.0,12.0,-2.0,-36.0,-2.0,11.0,1651094075922109.0
-4.0,-6.0,26.0,-17.0,1.0,42.0,-31.0,-45.0,1651094075943563.0
33.0,-6.0,-27.0,8.0,-3.0,9.0,3.0,18.0,1651094075943563.0
15.0,11.0,9.0,6.0,-3.0,-95.0,42.0,23.0,1651094075944404.0
-53.0,-7.0,16.0,-19.0,0.0,49.0,-20.0,-2.0,1651094075944404.0
31.0,2.0,-12.0,9.0,-12.0,-62.0,-17.0,4.0,1651094075965916.0
-13.0,10.0,-28.0,5.0,-2.0,39.0,4.0,-19.0,1651094075965916.0
3.0,-3.0,30.0,-5.0,26.0,-33.0,-18.0,-3.0,1651094075966770.0
-57.0,1.0,-32.0,-15.0,-43.0,-56.0,55.0,12.0,1651094075966770.0
44.0,0.0,31.0,-16.0,-1.0,37.0,-6.0,5.0,1651094075980874.0
-44.0,-4.0,-41.0,32.0,13.0,2.0,-55.0,-21.0,1651094075980874.0
43.0,-5.0,21.0,-18.0,-7.0,19.0,-32.0,-8.0,1651094075981739.0
-22.0,6.0,-9.0,11.0,3.0,10.0,8.0,-31.0,1651094075981739.0
7.0,-1.0,23.0,3.0,8.0,28.0,37.0,18.0,1651094076003328.0
19.0,11.0,-4.0,5.0,23.0,42.0,19.0,45.0,1651094076003328.0
-52.0,-7.0,0.0,-2.0,-5.0,35.0,-11.0,3.0,1651094076004201.0
31.0,-5.0,-17.0,-12.0,5.0,64.0,14.0,-6.0,1651094076004201.0
-26.0,-9.0,-1.0,-5.0,-18.0,-19.0,-25.0,-37.0,1651094076026300.0
-23.0,4.0,17.0,7.0,23.0,49.0,-18.0,2.0,1651094076026300.0
1.0,2.0,-19.0,-2.0,-3.0,-14.0,35.0,5.0,1651094076027220.0
24.0,-4.0,-47.0,0.0,-1.0,-30.0,5.0,4.0,1651094076027220.0
1.0,-2.0,77.0,0.0,11.0,-23.0,-18.0,-3.0,1651094076041570.0
-22.0,1.0,13.0,-3.0,-31.0,-49.0,-10.0,-5.0,1651094076041570.0
-10.0,-2.0,-28.0,-4.0,14.0,29.0,11.0,0.0,1651094076042237.0
19.0,3.0,0.0,-5.0,13.0,-37.0,0.0,-20.0,1651094076042237.0
-11.0,-3.0,-25.0,8.0,9.0,31.0,-21.0,-5.0,1651094076064031.0
8.0,0.0,15.0,-3.0,-18.0,-97.0,14.0,-4.0,1651094076064031.0
-9.0,-6.0,-8.0,-10.0,-91.0,-37.0,0.0,8.0,1651094076064916.0
24.0,-4.0,3.0,10.0,63.0,5.0,12.0,-2.0,1651094076064916.0
2.0,2.0,-6.0,2.0,16.0,-6.0,0.0,24.0,1651094076086267.0
-2.0,-4.0,11.0,0.0,-15.0,51.0,3.0,-9.0,1651094076086267.0
2.0,-7.0,-20.0,-5.0,29.0,-5.0,-5.0,12.0,1651094076087130.0
-3.0,5.0,28.0,-4.0,-91.0,-46.0,0.0,2.0,1651094076087130.0
5.0,3.0,-19.0,3.0,78.0,-1.0,-16.0,-11.0,1651094076099591.0
3.0,1.0,4.0,3.0,-36.0,-8.0,10.0,1.0,1651094076099591.0
-18.0,-4.0,-5.0,-3.0,-21.0,2.0,-1.0,1.0,1651094076115856.0
-1.0,-7.0,5.0,-9.0,57.0,-18.0,4.0,5.0,1651094076115856.0
1.0,-1.0,-8.0,-10.0,-62.0,1.0,-20.0,-10.0,1651094076123980.0
4.0,-1.0,6.0,13.0,14.0,-31.0,7.0,23.0,1651094076123980.0
-2.0,7.0,4.0,7.0,-4.0,9.0,6.0,-2.0,1651094076124887.0
9.0,-7.0,-11.0,-2.0,-80.0,-15.0,4.0,7.0,1651094076124887.0
-3.0,3.0,2.0,-11.0,10.0,-2.0,2.0,-4.0,1651094076146107.0
-1.0,-8.0,-13.0,2.0,-58.0,-20.0,-4.0,-6.0,1651094076146107.0
-2.0,3.0,17.0,-12.0,-40.0,-26.0,-1.0,-8.0,1651094076147105.0
2.0,-8.0,-8.0,-1.0,65.0,-1.0,1.0,8.0,1651094076147105.0
-5.0,7.0,0.0,8.0,-38.0,7.0,1.0,0.0,1651094076159276.0
1.0,-4.0,4.0,-10.0,24.0,-6.0,-1.0,2.0,1651094076159276.0
3.0,4.0,-4.0,15.0,-38.0,14.0,8.0,-4.0,1651094076168255.0
2.0,2.0,7.0,1.0,-11.0,-17.0,1.0,-9.0,1651094076168255.0
-1.0,-4.0,-19.0,-4.0,-5.0,-4.0,-2.0,-3.0,1651094076183255.0
3.0,-1.0,24.0,2.0,73.0,-1.0,-5.0,-5.0,1651094076183255.0
-5.0,0.0,-7.0,-4.0,-4.0,9.0,4.0,4.0,1651094076184243.0
-1.0,-2.0,2.0,-1.0,-11.0,-20.0,-2.0,3.0,1651094076184243.0
1.0,3.0,-4.0,2.0,-43.0,2.0,2.0,0.0,1651094076205918.0
-1.0,-1.0,-2.0,-1.0,-2.0,2.0,0.0,1.0,1651094076205918.0
-3.0,1.0,-8.0,-2.0,22.0,62.0,-4.0,-2.0,1651094076206753.0
2.0,-2.0,7.0,-4.0,6.0,-34.0,2.0,-1.0,1651094076206753.0
-1.0,-3.0,-4.0,-6.0,-52.0,-24.0,-7.0,1.0,1651094076220246.0
1.0,3.0,-1.0,0.0,20.0,16.0,5.0,-1.0,1651094076220246.0
-2.0,1.0,-3.0,11.0,31.0,-4.0,-1.0,-4.0,1651094076228232.0
0.0,-2.0,7.0,-6.0,25.0,15.0,-1.0,2.0,1651094076228232.0
-1.0,-2.0,-9.0,-4.0,-63.0,-3.0,3.0,3.0,1651094076244287.0
0.0,3.0,9.0,12.0,46.0,3.0,-2.0,-4.0,1651094076244287.0
-2.0,1.0,-7.0,-7.0,-30.0,-24.0,1.0,-2.0,1651094076245287.0
4.0,2.0,-1.0,5.0,28.0,19.0,2.0,6.0,1651094076245287.0
-5.0,-3.0,-3.0,-8.0,-14.0,-38.0,-2.0,-2.0,1651094076266388.0
0.0,-3.0,-1.0,1.0,-42.0,-22.0,1.0,-3.0,1651094076266388.0
-3.0,0.0,-2.0,-6.0,17.0,-19.0,-6.0,0.0,1651094076267265.0
2.0,1.0,3.0,5.0,-33.0,5.0,1.0,3.0,1651094076267265.0
1.0,-2.0,0.0,0.0,9.0,10.0,-3.0,-3.0,1651094076280800.0
1.0,2.0,-1.0,12.0,97.0,13.0,3.0,0.0,1651094076280800.0
-2.0,-5.0,-12.0,-8.0,-7.0,-5.0,0.0,-2.0,1651094076286940.0
0.0,3.0,17.0,-5.0,-79.0,2.0,2.0,0.0,1651094076286940.0
-1.0,-3.0,-3.0,6.0,81.0,-6.0,-8.0,-5.0,1651094076303329.0
3.0,2.0,2.0,-3.0,-30.0,0.0,-1.0,0.0,1651094076303329.0
0.0,-1.0,1.0,2.0,-25.0,-5.0,-1.0,-1.0,1651094076304165.0
-1.0,-3.0,-11.0,-6.0,29.0,-3.0,-1.0,-1.0,1651094076304165.0
-2.0,-3.0,-4.0,3.0,11.0,33.0,1.0,1.0,1651094076327466.0
-3.0,-1.0,5.0,-4.0,-9.0,-8.0,-1.0,-2.0,1651094076327466.0
1.0,3.0,11.0,7.0,2.0,2.0,0.0,0.0,1651094076328467.0
2.0,-3.0,-5.0,-4.0,-10.0,-2.0,-1.0,0.0,1651094076328467.0
-1.0,-4.0,-1.0,-6.0,16.0,-26.0,-2.0,0.0,1651094076340590.0
-1.0,-3.0,-9.0,5.0,-31.0,35.0,0.0,-1.0,1651094076340590.0
0.0,0.0,-4.0,-8.0,9.0,3.0,-1.0,-3.0,1651094076347566.0
-1.0,3.0,4.0,12.0,66.0,2.0,2.0,2.0,1651094076347566.0
-1.0,-1.0,-3.0,-4.0,0.0,5.0,0.0,1.0,1651094076363744.0
1.0,-1.0,1.0,-2.0,-24.0,-9.0,-2.0,-1.0,1651094076363744.0
0.0,1.0,1.0,1.0,4.0,-14.0,-4.0,-3.0,1651094076364584.0
1.0,1.0,-1.0,-2.0,0.0,8.0,1.0,0.0,1651094076364584.0
-1.0,0.0,-3.0,-3.0,1.0,9.0,-1.0,1.0,1651094076393742.0
-4.0,-3.0,3.0,-1.0,-1.0,-17.0,-3.0,-2.0,1651094076393742.0
-2.0,0.0,2.0,3.0,8.0,9.0,0.0,0.0,1651094076394605.0
0.0,0.0,-2.0,-1.0,-48.0,-9.0,-2.0,-2.0,1651094076394605.0
1.0,-1.0,-4.0,4.0,57.0,17.0,5.0,1.0,1651094076398628.0
0.0,5.0,8.0,-10.0,-28.0,-8.0,-1.0,-1.0,1651094076398628.0
0.0,0.0,-2.0,7.0,23.0,-8.0,0.0,-1.0,1651094076408950.0
-1.0,-2.0,-1.0,3.0,-25.0,10.0,1.0,0.0,1651094076408950.0
-2.0,0.0,-4.0,-10.0,-14.0,4.0,-2.0,-1.0,1651094076423757.0
0.0,-2.0,-7.0,-5.0,-14.0,-15.0,0.0,0.0,1651094076423757.0
0.0,1.0,2.0,5.0,3.0,10.0,1.0,0.0,1651094076424962.0
0.0,-2.0,-2.0,3.0,-13.0,-6.0,0.0,-1.0,1651094076424962.0
0.0,1.0,6.0,1.0,8.0,10.0,0.0,-1.0,1651094076445162.0
1.0,-1.0,-5.0,-2.0,5.0,-6.0,-3.0,-1.0,1651094076445162.0
-3.0,-4.0,-5.0,-4.0,-20.0,-8.0,-3.0,-2.0,1651094076447157.0
-1.0,1.0,3.0,-1.0,35.0,1.0,-1.0,0.0,1651094076447157.0
-1.0,0.0,5.0,8.0,30.0,4.0,0.0,-1.0,1651094076459622.0
-1.0,1.0,-2.0,-4.0,-10.0,2.0,-1.0,-2.0,1651094076459622.0
0.0,0.0,2.0,2.0,15.0,-3.0,-1.0,1.0,1651094076467897.0
-1.0,-3.0,-4.0,-7.0,-2.0,-11.0,-1.0,-2.0,1651094076467897.0
0.0,-1.0,2.0,-3.0,-25.0,-5.0,-1.0,-1.0,1651094076484130.0
-1.0,-3.0,-7.0,-2.0,-1.0,0.0,-1.0,1.0,1651094076484130.0
0.0,-1.0,-3.0,-2.0,30.0,4.0,-1.0,0.0,1651094076484130.0
-1.0,0.0,-2.0,3.0,-28.0,4.0,-2.0,-1.0,1651094076484130.0
1.0,3.0,3.0,-5.0,1.0,-4.0,-1.0,0.0,1651094076506526.0
-1.0,0.0,-4.0,-3.0,-16.0,0.0,0.0,-3.0,1651094076506526.0
-1.0,-2.0,0.0,-4.0,-6.0,-11.0,-1.0,-1.0,1651094076507395.0
-1.0,1.0,-2.0,0.0,18.0,9.0,1.0,0.0,1651094076507395.0
-1.0,-4.0,-4.0,5.0,1.0,-4.0,-1.0,0.0,1651094076519565.0
-1.0,-2.0,-3.0,0.0,0.0,-5.0,-1.0,1.0,1651094076519565.0
-1.0,3.0,13.0,-1.0,17.0,-13.0,-1.0,0.0,1651094076528567.0
0.0,0.0,-3.0,-1.0,22.0,17.0,0.0,-1.0,1651094076528567.0
0.0,0.0,-4.0,-3.0,-4.0,8.0,3.0,0.0,1651094076543869.0
-1.0,-1.0,-4.0,-2.0,-22.0,-4.0,-1.0,-2.0,1651094076543869.0
0.0,-3.0,1.0,2.0,11.0,2.0,0.0,0.0,1651094076544871.0
-2.0,-1.0,-2.0,-4.0,-1.0,-7.0,-3.0,0.0,1651094076544871.0
-1.0,-2.0,-4.0,2.0,-7.0,-6.0,1.0,1.0,1651094076565999.0
-2.0,-3.0,-5.0,-1.0,6.0,12.0,-1.0,0.0,1651094076565999.0
1.0,2.0,-1.0,-1.0,4.0,7.0,2.0,0.0,1651094076566844.0
0.0,1.0,2.0,2.0,-13.0,-10.0,1.0,-1.0,1651094076566844.0
0.0,3.0,0.0,-5.0,-11.0,-10.0,-1.0,-2.0,1651094076579452.0
-2.0,-5.0,1.0,-2.0,-7.0,-3.0,-2.0,-1.0,1651094076579452.0
-1.0,-3.0,-5.0,0.0,1.0,13.0,-2.0,-2.0,1651094076588467.0
-2.0,1.0,0.0,0.0,-3.0,0.0,0.0,0.0,1651094076588467.0
1.0,-2.0,-3.0,5.0,-5.0,-7.0,-2.0,1.0,1651094076602592.0
-1.0,2.0,2.0,2.0,1.0,0.0,1.0,1.0,1651094076602592.0
0.0,1.0,8.0,2.0,4.0,5.0,0.0,-1.0,1651094076610543.0
0.0,0.0,3.0,-3.0,-18.0,-5.0,-1.0,-2.0,1651094076610543.0
-1.0,0.0,1.0,-1.0,-6.0,-1.0,-2.0,-2.0,1651094076625736.0
0.0,1.0,-2.0,-8.0,27.0,0.0,0.0,0.0,1651094076625736.0
-1.0,-4.0,-10.0,-1.0,-39.0,0.0,-2.0,-3.0,1651094076627586.0
0.0,-2.0,-1.0,0.0,5.0,-13.0,0.0,-3.0,1651094076627586.0
-1.0,1.0,4.0,-4.0,27.0,16.0,1.0,0.0,1651094076639747.0
0.0,-2.0,-5.0,2.0,-11.0,-8.0,0.0,-1.0,1651094076639747.0
0.0,1.0,-3.0,-6.0,-17.0,-1.0,1.0,0.0,1651094076648726.0
-2.0,-1.0,-1.0,-1.0,8.0,-4.0,-3.0,0.0,1651094076648726.0
-1.0,-2.0,-3.0,-2.0,-5.0,9.0,0.0,0.0,1651094076670939.0
-1.0,0.0,1.0,0.0,2.0,2.0,0.0,-2.0,1651094076670939.0
0.0,1.0,0.0,-3.0,15.0,0.0,1.0,0.0,1651094076671938.0
1.0,-1.0,-1.0,4.0,-10.0,1.0,0.0,-1.0,1651094076671938.0
0.0,-2.0,-2.0,3.0,0.0,-1.0,0.0,-1.0,1651094076686231.0
-2.0,0.0,3.0,1.0,-3.0,2.0,-2.0,-1.0,1651094076686231.0
-1.0,-2.0,0.0,-2.0,2.0,-9.0,-3.0,-1.0,1651094076687085.0
-1.0,-1.0,0.0,-2.0,-2.0,16.0,0.0,2.0,1651094076687085.0
0.0,0.0,-3.0,-3.0,-22.0,-8.0,-1.0,0.0,1651094076699232.0
0.0,1.0,9.0,9.0,31.0,4.0,0.0,1.0,1651094076699232.0
-1.0,0.0,-4.0,-6.0,5.0,3.0,-1.0,0.0,1651094076708395.0
0.0,0.0,-2.0,-4.0,1.0,-2.0,-1.0,-1.0,1651094076708395.0
0.0,-2.0,0.0,-2.0,-21.0,-18.0,-1.0,0.0,1651094076723567.0
-1.0,-3.0,-2.0,-7.0,-3.0,23.0,0.0,1.0,1651094076723567.0
0.0,0.0,-3.0,9.0,-10.0,-3.0,2.0,1.0,1651094076724418.0
-1.0,-1.0,-2.0,3.0,9.0,3.0,1.0,1.0,1651094076724418.0
-1.0,0.0,0.0,2.0,-4.0,-5.0,-2.0,-2.0,1651094076745094.0
-1.0,1.0,-1.0,-1.0,-2.0,-9.0,1.0,0.0,1651094076745094.0
0.0,0.0,2.0,-1.0,11.0,7.0,1.0,0.0,1651094076747089.0
-1.0,-1.0,-3.0,-4.0,-16.0,-7.0,-3.0,0.0,1651094076747089.0
-1.0,1.0,1.0,-1.0,10.0,0.0,-1.0,0.0,1651094076759259.0
0.0,-2.0,-1.0,1.0,-33.0,10.0,-1.0,0.0,1651094076759259.0
-1.0,-1.0,-1.0,-2.0,3.0,4.0,-1.0,0.0,1651094076768715.0
0.0,-1.0,-7.0,-1.0,-7.0,-13.0,-1.0,-3.0,1651094076768715.0
2.0,0.0,3.0,-2.0,14.0,30.0,3.0,1.0,1651094076783824.0
-1.0,-1.0,0.0,-1.0,-11.0,-11.0,1.0,-1.0,1651094076783824.0
-1.0,0.0,1.0,-1.0,1.0,-3.0,-1.0,-1.0,1651094076784672.0
1.0,0.0,2.0,3.0,-9.0,-3.0,-1.0,0.0,1651094076784672.0
0.0,-1.0,-2.0,2.0,10.0,-5.0,-3.0,-1.0,1651094076806449.0
-1.0,-1.0,-3.0,-3.0,-16.0,-9.0,1.0,0.0,1651094076806449.0
-1.0,0.0,-2.0,-1.0,3.0,0.0,1.0,0.0,1651094076807329.0
0.0,1.0,2.0,-3.0,10.0,16.0,1.0,1.0,1651094076807329.0
1.0,-1.0,-1.0,3.0,-6.0,-6.0,-1.0,-1.0,1651094076819609.0
0.0,0.0,2.0,1.0,-4.0,-4.0,-1.0,1.0,1651094076819609.0
-1.0,-1.0,-1.0,0.0,9.0,-15.0,-4.0,-2.0,1651094076828434.0
0.0,0.0,1.0,-1.0,-20.0,-4.0,-2.0,-2.0,1651094076828434.0
-2.0,-2.0,-3.0,-3.0,7.0,10.0,0.0,-1.0,1651094076843752.0
-1.0,-3.0,-6.0,-6.0,6.0,-2.0,-2.0,-1.0,1651094076843752.0
1.0,0.0,0.0,1.0,-3.0,7.0,2.0,-1.0,1651094076844602.0
-1.0,-2.0,-4.0,0.0,4.0,-6.0,1.0,0.0,1651094076844602.0
-2.0,3.0,6.0,-1.0,-12.0,-20.0,-2.0,1.0,1651094076866203.0
-1.0,0.0,4.0,1.0,9.0,17.0,-1.0,-2.0,1651094076866203.0
2.0,-1.0,-2.0,1.0,-6.0,4.0,1.0,1.0,1651094076867056.0
0.0,-1.0,1.0,2.0,13.0,7.0,0.0,0.0,1651094076867056.0
-2.0,0.0,-3.0,-5.0,-10.0,-14.0,-1.0,-2.0,1651094076889357.0
0.0,2.0,7.0,-3.0,6.0,-12.0,-2.0,1.0,1651094076889357.0
0.0,-3.0,-4.0,3.0,-2.0,6.0,0.0,0.0,1651094076890208.0
-1.0,-2.0,-4.0,0.0,-11.0,-4.0,0.0,0.0,1651094076890208.0
-1.0,-1.0,-5.0,-4.0,-11.0,-7.0,-2.0,-3.0,1651094076902402.0
-1.0,-1.0,1.0,7.0,22.0,20.0,1.0,1.0,1651094076902402.0
-1.0,-2.0,2.0,-5.0,5.0,3.0,-1.0,-2.0,1651094076909666.0
0.0,0.0,0.0,-2.0,-3.0,-1.0,-1.0,-1.0,1651094076909666.0
0.0,1.0,-1.0,0.0,-25.0,4.0,0.0,-1.0,1651094076926106.0
0.0,0.0,-4.0,-6.0,5.0,-20.0,0.0,-1.0,1651094076926106.0
-1.0,-3.0,-4.0,2.0,4.0,1.0,-1.0,0.0,1651094076926956.0
-1.0,1.0,4.0,6.0,8.0,8.0,1.0,-1.0,1651094076926956.0
0.0,-1.0,3.0,-3.0,9.0,8.0,1.0,0.0,1651094076949233.0
0.0,-1.0,-6.0,-2.0,-14.0,-18.0,-2.0,1.0,1651094076949233.0
-1.0,1.0,-1.0,-3.0,10.0,12.0,0.0,-1.0,1651094076950232.0
-1.0,0.0,-3.0,-6.0,5.0,-18.0,-1.0,-1.0,1651094076950232.0
0.0,-2.0,0.0,7.0,-4.0,7.0,-1.0,1.0,1651094076963381.0
-1.0,0.0,-1.0,2.0,-41.0,-5.0,0.0,0.0,1651094076963381.0
-1.0,0.0,0.0,0.0,64.0,4.0,1.0,0.0,1651094076964379.0
1.0,1.0,0.0,-4.0,-7.0,-6.0,-2.0,1.0,1651094076964379.0
0.0,2.0,-3.0,0.0,10.0,25.0,0.0,0.0,1651094076985684.0
-2.0,-3.0,-4.0,-3.0,-16.0,-9.0,-1.0,-1.0,1651094076985684.0
-2.0,-5.0,-2.0,-5.0,-20.0,-5.0,-1.0,-1.0,1651094076986681.0
-1.0,0.0,-1.0,1.0,5.0,5.0,0.0,-1.0,1651094076986681.0
-1.0,-2.0,0.0,-3.0,-3.0,-42.0,-2.0,-1.0,1651094077008865.0
1.0,2.0,0.0,-1.0,6.0,28.0,-1.0,0.0,1651094077008865.0
0.0,2.0,-1.0,1.0,-15.0,-2.0,0.0,-1.0,1651094077009872.0
0.0,0.0,3.0,1.0,6.0,0.0,0.0,0.0,1651094077009872.0
0.0,0.0,-2.0,-3.0,-7.0,-8.0,0.0,-1.0,1651094077023156.0
-2.0,0.0,-2.0,0.0,11.0,-6.0,-1.0,-2.0,1651094077023156.0
-3.0,-2.0,-3.0,1.0,-10.0,-8.0,-2.0,-1.0,1651094077028870.0
-1.0,-4.0,-2.0,-7.0,6.0,1.0,0.0,-2.0,1651094077028870.0
-2.0,0.0,-3.0,1.0,0.0,6.0,0.0,0.0,1651094077045824.0
1.0,2.0,9.0,3.0,12.0,4.0,1.0,0.0,1651094077045824.0
1.0,0.0,-1.0,2.0,-3.0,-1.0,-1.0,0.0,1651094077046820.0
-1.0,0.0,-3.0,-3.0,-20.0,-4.0,-1.0,0.0,1651094077046820.0
0.0,-2.0,-4.0,-1.0,20.0,11.0,0.0,-1.0,1651094077067764.0
-1.0,0.0,-2.0,-1.0,0.0,-11.0,-1.0,-1.0,1651094077067764.0
1.0,1.0,2.0,-4.0,-12.0,-5.0,-2.0,-2.0,1651094077069759.0
0.0,-2.0,-1.0,2.0,-2.0,-4.0,-1.0,-1.0,1651094077069759.0
0.0,0.0,3.0,1.0,3.0,10.0,0.0,-2.0,1651094077082904.0
-1.0,0.0,-1.0,2.0,-7.0,-5.0,-2.0,-1.0,1651094077082904.0
0.0,3.0,4.0,0.0,-6.0,-7.0,-3.0,0.0,1651094077090171.0
-2.0,0.0,-7.0,-3.0,5.0,20.0,0.0,1.0,1651094077090171.0
0.0,-2.0,-1.0,0.0,3.0,-14.0,-1.0,0.0,1651094077105687.0
1.0,-2.0,-2.0,-2.0,4.0,5.0,0.0,-2.0,1651094077105687.0
-1.0,-1.0,-2.0,-7.0,-9.0,-2.0,1.0,1.0,1651094077107521.0
-2.0,1.0,1.0,8.0,2.0,-11.0,-2.0,0.0,1651094077107521.0
-2.0,2.0,8.0,1.0,-1.0,3.0,1.0,0.0,1651094077127829.0
0.0,-1.0,-4.0,0.0,7.0,-3.0,-1.0,0.0,1651094077127829.0
1.0,0.0,0.0,-1.0,-30.0,12.0,0.0,0.0,1651094077129664.0
-1.0,-1.0,2.0,-2.0,-5.0,-7.0,-1.0,-2.0,1651094077129664.0
1.0,1.0,1.0,4.0,11.0,8.0,1.0,0.0,1651094077142918.0
-2.0,-3.0,1.0,0.0,-9.0,21.0,2.0,-1.0,1651094077142918.0
-2.0,0.0,-3.0,-3.0,4.0,-7.0,-1.0,-2.0,1651094077149176.0
-1.0,-1.0,-3.0,-7.0,-34.0,-6.0,-1.0,0.0,1651094077149176.0
0.0,-2.0,1.0,6.0,41.0,12.0,1.0,0.0,1651094077165845.0
-1.0,0.0,0.0,-3.0,1.0,-7.0,1.0,1.0,1651094077165845.0
-2.0,-1.0,0.0,1.0,-6.0,-2.0,0.0,0.0,1651094077166714.0
0.0,-2.0,1.0,-4.0,5.0,-1.0,-1.0,-1.0,1651094077166714.0
0.0,0.0,0.0,-3.0,-22.0,7.0,1.0,-1.0,1651094077188906.0
1.0,1.0,1.0,0.0,-3.0,-3.0,-2.0,0.0,1651094077188906.0
1.0,1.0,2.0,3.0,13.0,-2.0,-2.0,0.0,1651094077190020.0
0.0,-2.0,1.0,3.0,4.0,2.0,1.0,0.0,1651094077190020.0
-3.0,-4.0,-6.0,-10.0,-5.0,-4.0,-1.0,-1.0,1651094077211412.0
-2.0,-3.0,-1.0,0.0,-3.0,-6.0,-1.0,1.0,1651094077211412.0
-2.0,-1.0,-2.0,2.0,9.0,5.0,-1.0,0.0,1651094077212315.0
2.0,0.0,1.0,-2.0,4.0,2.0,-1.0,-1.0,1651094077212315.0
-1.0,-1.0,-1.0,-3.0,0.0,12.0,-2.0,0.0,1651094077226279.0
0.0,-3.0,-5.0,0.0,5.0,-4.0,-2.0,-1.0,1651094077226279.0
-1.0,1.0,2.0,0.0,5.0,-11.0,-2.0,0.0,1651094077227278.0
-3.0,-1.0,-1.0,3.0,1.0,4.0,1.0,-1.0,1651094077227278.0
-1.0,-2.0,-3.0,-1.0,-4.0,-11.0,1.0,0.0,1651094077248845.0
0.0,1.0,1.0,-4.0,3.0,7.0,1.0,-2.0,1651094077248845.0
0.0,0.0,-1.0,3.0,0.0,-10.0,1.0,0.0,1651094077249464.0
0.0,0.0,2.0,-5.0,7.0,-5.0,0.0,0.0,1651094077249464.0
-2.0,1.0,-1.0,2.0,-20.0,-11.0,-2.0,-2.0,1651094077262028.0
-1.0,-2.0,-4.0,3.0,-23.0,4.0,0.0,0.0,1651094077262028.0
-1.0,1.0,5.0,0.0,12.0,0.0,1.0,0.0,1651094077269327.0
0.0,-1.0,-2.0,1.0,17.0,5.0,1.0,1.0,1651094077269327.0
0.0,1.0,1.0,-1.0,-3.0,-11.0,-2.0,-1.0,1651094077285479.0
0.0,0.0,-3.0,-3.0,0.0,-6.0,-1.0,0.0,1651094077285479.0
1.0,-2.0,-8.0,-6.0,-32.0,-2.0,-3.0,-2.0,1651094077287497.0
1.0,-2.0,-1.0,2.0,18.0,10.0,-2.0,0.0,1651094077287497.0
1.0,-2.0,-3.0,-6.0,-12.0,13.0,-3.0,1.0,1651094077308958.0
-2.0,-2.0,1.0,1.0,-17.0,-8.0,-7.0,-2.0,1651094077308958.0
0.0,1.0,0.0,-2.0,-4.0,2.0,6.0,-1.0,1651094077309611.0
-1.0,1.0,1.0,0.0,0.0,-7.0,0.0,0.0,1651094077309611.0
0.0,-3.0,0.0,1.0,2.0,-5.0,6.0,-1.0,1651094077322927.0
-1.0,-2.0,-3.0,1.0,15.0,3.0,-8.0,-1.0,1651094077322927.0
-3.0,-2.0,-6.0,-2.0,3.0,-6.0,-9.0,-2.0,1651094077328755.0
-1.0,2.0,11.0,1.0,-4.0,-12.0,-13.0,-3.0,1651094077328755.0
-1.0,3.0,1.0,0.0,1.0,10.0,23.0,0.0,1651094077346085.0
-1.0,0.0,-2.0,-4.0,-6.0,11.0,15.0,1.0,1651094077346085.0
-1.0,-3.0,-5.0,-14.0,-40.0,-5.0,1.0,1.0,1651094077347061.0
1.0,3.0,-7.0,15.0,60.0,15.0,-16.0,-2.0,1651094077347061.0
1.0,-1.0,-1.0,11.0,21.0,-1.0,-23.0,-5.0,1651094077368354.0
-2.0,-1.0,-1.0,-4.0,-21.0,-12.0,5.0,1.0,1651094077368354.0
0.0,-1.0,-2.0,3.0,40.0,9.0,23.0,2.0,1651094077369190.0
1.0,0.0,-1.0,-3.0,-14.0,3.0,3.0,0.0,1651094077369190.0
-3.0,-1.0,0.0,-6.0,-5.0,-12.0,-14.0,0.0,1651094077382367.0
-3.0,-2.0,-2.0,-6.0,-30.0,-12.0,10.0,-6.0,1651094077382367.0
0.0,2.0,6.0,12.0,58.0,12.0,-62.0,-6.0,1651094077390812.0
-3.0,-4.0,-3.0,-8.0,-18.0,-19.0,-14.0,-2.0,1651094077390812.0
2.0,-2.0,-6.0,7.0,-8.0,1.0,27.0,5.0,1651094077405935.0
2.0,2.0,5.0,-3.0,20.0,14.0,-11.0,1.0,1651094077405935.0
-3.0,0.0,0.0,0.0,-60.0,-14.0,52.0,-7.0,1651094077406771.0
0.0,2.0,3.0,2.0,6.0,14.0,-35.0,3.0,1651094077406771.0
2.0,1.0,-1.0,-6.0,6.0,21.0,44.0,14.0,1651094077427907.0
-3.0,-1.0,-2.0,-5.0,6.0,-23.0,4.0,-7.0,1651094077427907.0
5.0,3.0,1.0,10.0,3.0,19.0,-49.0,1.0,1651094077429892.0
-2.0,1.0,4.0,-2.0,-14.0,4.0,-51.0,-1.0,1651094077429892.0
-14.0,-5.0,-4.0,-1.0,-11.0,-23.0,-50.0,-16.0,1651094077442049.0
-18.0,-4.0,0.0,-1.0,1.0,8.0,76.0,-6.0,1651094077442049.0
0.0,-2.0,-4.0,-12.0,19.0,-49.0,-33.0,-2.0,1651094077450466.0
21.0,2.0,-6.0,-5.0,-24.0,3.0,56.0,25.0,1651094077450466.0
4.0,-3.0,-1.0,4.0,-13.0,-18.0,-107.0,-17.0,1651094077466424.0
-3.0,0.0,5.0,7.0,18.0,57.0,9.0,-32.0,1651094077466424.0
8.0,9.0,11.0,12.0,13.0,82.0,105.0,52.0,1651094077467263.0
5.0,-1.0,0.0,-14.0,-22.0,75.0,15.0,17.0,1651094077467263.0
14.0,2.0,-6.0,-6.0,10.0,-30.0,9.0,26.0,1651094077488589.0
-5.0,-8.0,-16.0,21.0,-3.0,-82.0,-117.0,-39.0,1651094077488589.0
5.0,1.0,4.0,-18.0,-23.0,53.0,14.0,2.0,1651094077489554.0
-28.0,-7.0,0.0,-4.0,-5.0,-24.0,24.0,-45.0,1651094077489554.0
-44.0,-4.0,-2.0,6.0,6.0,11.0,34.0,-33.0,1651094077502533.0
55.0,12.0,4.0,6.0,19.0,65.0,56.0,81.0,1651094077502533.0
-10.0,-2.0,-4.0,-4.0,-8.0,-59.0,-31.0,-50.0,1651094077510674.0
-15.0,-14.0,-10.0,-10.0,-7.0,-6.0,-15.0,-16.0,1651094077510674.0
10.0,2.0,2.0,15.0,-1.0,-20.0,-48.0,40.0,1651094077525625.0
36.0,13.0,3.0,-2.0,-11.0,-17.0,12.0,27.0,1651094077525625.0
-10.0,-4.0,-4.0,-11.0,-2.0,11.0,39.0,8.0,1651094077527499.0
-33.0,-2.0,0.0,10.0,11.0,-21.0,-24.0,-25.0,1651094077527499.0
7.0,-3.0,4.0,-3.0,-7.0,13.0,25.0,-39.0,1651094077548878.0
28.0,4.0,2.0,0.0,-4.0,21.0,0.0,77.0,1651094077548878.0
11.0,6.0,-1.0,-2.0,-15.0,-8.0,-23.0,-5.0,1651094077549593.0
-24.0,-14.0,5.0,-4.0,-6.0,-45.0,-13.0,-19.0,1651094077549593.0
-47.0,-5.0,-11.0,-10.0,-10.0,14.0,-33.0,-67.0,1651094077561974.0
75.0,19.0,1.0,-6.0,-3.0,-37.0,11.0,90.0,1651094077561974.0
10.0,-6.0,-5.0,-3.0,-6.0,4.0,-12.0,5.0,1651094077571354.0
-22.0,-8.0,-3.0,9.0,1.0,51.0,-22.0,-59.0,1651094077571354.0
-15.0,-3.0,7.0,-8.0,1.0,-86.0,52.0,-7.0,1651094077586511.0
-28.0,-4.0,-12.0,-8.0,-8.0,41.0,-11.0,-11.0,1651094077586511.0
-14.0,4.0,9.0,6.0,27.0,-15.0,-19.0,6.0,1651094077587348.0
28.0,13.0,6.0,8.0,-3.0,-5.0,2.0,20.0,1651094077587348.0
-18.0,-3.0,33.0,-16.0,-30.0,-10.0,15.0,-21.0,1651094077609512.0
-49.0,-12.0,-29.0,-11.0,13.0,97.0,-4.0,-49.0,1651094077609512.0
40.0,-10.0,-12.0,40.0,16.0,27.0,-3.0,61.0,1651094077610546.0
58.0,21.0,-13.0,-10.0,-9.0,-17.0,-35.0,76.0,1651094077610546.0
51.0,2.0,-6.0,-6.0,16.0,6.0,21.0,53.0,1651094077622632.0
-48.0,-5.0,34.0,1.0,-7.0,-42.0,-87.0,-61.0,1651094077622632.0
-21.0,-12.0,1.0,6.0,17.0,14.0,66.0,-19.0,1651094077631602.0
-11.0,17.0,-27.0,-5.0,-1.0,16.0,-15.0,-37.0,1651094077631602.0
-38.0,-2.0,3.0,0.0,-21.0,35.0,-17.0,-11.0,1651094077645630.0
3.0,-1.0,2.0,-13.0,2.0,-82.0,-8.0,-27.0,1651094077645630.0
29.0,7.0,3.0,-3.0,-23.0,-55.0,-54.0,11.0,1651094077646627.0
1.0,-16.0,-7.0,6.0,0.0,64.0,24.0,-13.0,1651094077646627.0
7.0,1.0,-7.0,1.0,7.0,-10.0,40.0,28.0,1651094077669092.0
-51.0,-3.0,17.0,19.0,18.0,7.0,51.0,-32.0,1651094077669092.0
-17.0,6.0,12.0,-9.0,-12.0,1.0,-58.0,-14.0,1651094077669967.0
-18.0,-15.0,-22.0,-7.0,-8.0,-31.0,25.0,-6.0,1651094077669967.0
-1.0,14.0,-28.0,-19.0,-8.0,82.0,-6.0,-28.0,1651094077682059.0
85.0,0.0,-6.0,-6.0,-6.0,-57.0,-104.0,78.0,1651094077682059.0
-18.0,6.0,-24.0,-1.0,1.0,0.0,88.0,-23.0,1651094077690385.0
12.0,0.0,37.0,14.0,-7.0,-56.0,34.0,44.0,1651094077690385.0
-9.0,4.0,63.0,8.0,7.0,-35.0,-31.0,-19.0,1651094077704593.0
-35.0,-8.0,-54.0,-5.0,-14.0,-29.0,-26.0,-30.0,1651094077704593.0
10.0,8.0,5.0,2.0,-3.0,71.0,-32.0,-1.0,1651094077711576.0
-16.0,-21.0,-3.0,-7.0,15.0,-32.0,14.0,-30.0,1651094077711576.0
8.0,9.0,-10.0,26.0,15.0,3.0,-38.0,18.0,1651094077727893.0
-9.0,1.0,27.0,-17.0,-1.0,15.0,95.0,6.0,1651094077727893.0
5.0,-12.0,-10.0,-6.0,6.0,76.0,-3.0,17.0,1651094077729730.0
6.0,10.0,7.0,11.0,7.0,-9.0,13.0,-15.0,1651094077729730.0
1.0,-22.0,-1.0,-1.0,-13.0,52.0,-15.0,-6.0,1651094077742501.0
-3.0,19.0,13.0,8.0,-5.0,70.0,41.0,24.0,1651094077742501.0
25.0,-22.0,-11.0,-4.0,-4.0,-16.0,24.0,7.0,1651094077751562.0
3.0,4.0,-61.0,-38.0,-17.0,-5.0,-4.0,14.0,1651094077751562.0
42.0,3.0,23.0,-12.0,-15.0,-15.0,6.0,23.0,1651094077766529.0
-49.0,-1.0,6.0,8.0,11.0,31.0,27.0,-57.0,1651094077766529.0
-10.0,12.0,21.0,-3.0,6.0,-29.0,-25.0,6.0,1651094077767392.0
11.0,4.0,-3.0,5.0,6.0,-9.0,-37.0,7.0,1651094077767392.0
-13.0,0.0,-22.0,11.0,-7.0,-39.0,-10.0,-35.0,1651094077796023.0
-45.0,2.0,27.0,22.0,-4.0,18.0,-35.0,-36.0,1651094077796023.0
66.0,1.0,-2.0,-39.0,-11.0,-83.0,-2.0,57.0,1651094077796970.0
-3.0,-7.0,2.0,16.0,-7.0,14.0,26.0,-7.0,1651094077796970.0
-3.0,0.0,-16.0,-8.0,-1.0,33.0,-38.0,4.0,1651094077811243.0
1.0,-15.0,-38.0,0.0,6.0,-43.0,58.0,-19.0,1651094077811243.0
-15.0,10.0,38.0,13.0,3.0,-16.0,-18.0,-24.0,1651094077812107.0
4.0,7.0,33.0,-13.0,-21.0,-1.0,-55.0,9.0,1651094077812107.0
1.0,-2.0,-6.0,-4.0,18.0,46.0,83.0,1.0,1651094077826398.0
27.0,-1.0,1.0,3.0,4.0,-16.0,-16.0,49.0,1651094077826398.0
-26.0,-9.0,-85.0,6.0,-18.0,12.0,-40.0,-31.0,1651094077827257.0
32.0,13.0,112.0,-1.0,21.0,25.0,46.0,19.0,1651094077827257.0
-95.0,-13.0,-34.0,-3.0,1.0,120.0,-33.0,-46.0,1651094077848661.0
65.0,1.0,-14.0,-17.0,-18.0,-81.0,11.0,48.0,1651094077848661.0
-21.0,-6.0,10.0,-6.0,22.0,50.0,35.0,-15.0,1651094077849533.0
9.0,17.0,-9.0,17.0,-2.0,-14.0,-53.0,-2.0,1651094077849533.0
30.0,-6.0,-19.0,3.0,3.0,-9.0,-12.0,21.0,1651094077870927.0
20.0,9.0,47.0,9.0,25.0,67.0,42.0,9.0,1651094077870927.0
-2.0,1.0,-18.0,-14.0,-1.0,-57.0,-7.0,11.0,1651094077871791.0
-21.0,-1.0,-15.0,-5.0,-8.0,12.0,15.0,-14.0,1651094077871791.0
-1.0,-10.0,22.0,23.0,-16.0,-83.0,-17.0,1.0,1651094077886889.0
-13.0,-6.0,-7.0,-27.0,16.0,30.0,-21.0,-10.0,1651094077886889.0
4.0,1.0,18.0,16.0,-7.0,5.0,-31.0,-2.0,1651094077887775.0
-8.0,-13.0,-30.0,-13.0,1.0,-6.0,32.0,20.0,1651094077887775.0
26.0,6.0,-1.0,-4.0,10.0,-21.0,67.0,41.0,1651094077908836.0
-3.0,1.0,5.0,20.0,-18.0,1.0,-59.0,-8.0,1651094077908836.0
-28.0,13.0,18.0,-7.0,-5.0,-47.0,13.0,-40.0,1651094077909731.0
-10.0,-45.0,-75.0,-8.0,9.0,30.0,-23.0,7.0,1651094077909731.0
4.0,20.0,60.0,-6.0,-12.0,12.0,-32.0,-19.0,1651094077930978.0
-42.0,-2.0,-29.0,2.0,-5.0,24.0,20.0,-58.0,1651094077930978.0
71.0,5.0,-1.0,1.0,14.0,15.0,5.0,78.0,1651094077931862.0
-10.0,-3.0,-11.0,7.0,0.0,8.0,30.0,5.0,1651094077931862.0
17.0,11.0,3.0,-10.0,12.0,65.0,25.0,4.0,1651094077945113.0
-21.0,-6.0,41.0,-3.0,-5.0,-19.0,-108.0,-49.0,1651094077945113.0
11.0,17.0,3.0,41.0,8.0,-34.0,28.0,-18.0,1651094077947106.0
-16.0,16.0,-26.0,-19.0,-18.0,-49.0,17.0,-5.0,1651094077947106.0
42.0,-23.0,-33.0,-6.0,5.0,19.0,26.0,43.0,1651094077968393.0
-58.0,-15.0,-14.0,-12.0,-3.0,-21.0,-13.0,-23.0,1651094077968393.0
26.0,-10.0,-5.0,-5.0,-15.0,80.0,31.0,1.0,1651094077969286.0
31.0,15.0,70.0,24.0,36.0,2.0,-29.0,17.0,1651094077969286.0
-20.0,-11.0,-48.0,-2.0,5.0,33.0,-1.0,-16.0,1651094077990657.0
7.0,-2.0,-6.0,-11.0,-13.0,-33.0,-17.0,16.0,1651094077990657.0
-47.0,-16.0,21.0,-5.0,-5.0,7.0,-16.0,-21.0,1651094077992546.0
-20.0,1.0,-21.0,1.0,6.0,-37.0,3.0,-28.0,1651094077992546.0
28.0,14.0,21.0,-3.0,1.0,43.0,16.0,35.0,1651094078005588.0
36.0,-11.0,-28.0,15.0,0.0,67.0,9.0,8.0,1651094078005588.0
-42.0,10.0,44.0,-6.0,27.0,-63.0,-20.0,-17.0,1651094078011439.0
15.0,3.0,-7.0,4.0,-9.0,97.0,16.0,17.0,1651094078011439.0
6.0,3.0,12.0,2.0,-8.0,-53.0,-27.0,-3.0,1651094078027691.0
4.0,1.0,-17.0,5.0,-11.0,-49.0,25.0,-23.0,1651094078027691.0
3.0,-3.0,-32.0,1.0,3.0,19.0,-45.0,31.0,1651094078029549.0
-31.0,-20.0,18.0,1.0,-9.0,78.0,14.0,-23.0,1651094078029549.0
8.0,-2.0,-39.0,-24.0,-5.0,-53.0,13.0,15.0,1651094078050925.0
26.0,14.0,73.0,2.0,28.0,87.0,15.0,18.0,1651094078050925.0
-30.0,-10.0,-5.0,-11.0,-38.0,-2.0,-23.0,-37.0,1651094078051806.0
5.0,3.0,-11.0,-1.0,2.0,-104.0,13.0,0.0,1651094078051806.0
-34.0,-7.0,-4.0,16.0,3.0,-36.0,-55.0,-28.0,1651094078065397.0
19.0,4.0,-17.0,-12.0,-6.0,24.0,4.0,27.0,1651094078065397.0
-9.0,9.0,2.0,9.0,1.0,-46.0,25.0,1.0,1651094078071250.0
14.0,-1.0,4.0,-15.0,-26.0,4.0,10.0,8.0,1651094078071250.0
35.0,6.0,2.0,5.0,-18.0,55.0,12.0,6.0,1651094078088842.0
-30.0,-14.0,-45.0,10.0,19.0,60.0,-41.0,-35.0,1651094078088842.0
-27.0,-4.0,44.0,-12.0,3.0,25.0,39.0,-20.0,1651094078090382.0
33.0,2.0,-68.0,-6.0,8.0,-112.0,28.0,37.0,1651094078090382.0
-20.0,7.0,44.0,-8.0,2.0,-1.0,-6.0,-2.0,1651094078110813.0
2.0,-14.0,1.0,-2.0,-21.0,-125.0,3.0,-33.0,1651094078110813.0
20.0,17.0,-23.0,20.0,1.0,14.0,-36.0,67.0,1651094078112654.0
-35.0,14.0,62.0,5.0,6.0,76.0,37.0,-36.0,1651094078112654.0
6.0,-24.0,-74.0,-12.0,-8.0,-72.0,4.0,38.0,1651094078125008.0
2.0,11.0,44.0,-4.0,-12.0,6.0,36.0,9.0,1651094078125008.0
-2.0,1.0,-21.0,1.0,15.0,-31.0,-3.0,-29.0,1651094078132042.0
4.0,-2.0,20.0,-1.0,-25.0,7.0,-70.0,-33.0,1651094078132042.0
13.0,3.0,-11.0,-12.0,11.0,-26.0,39.0,39.0,1651094078148539.0
-17.0,-10.0,-22.0,5.0,17.0,-100.0,8.0,-13.0,1651094078148539.0
-14.0,-20.0,-50.0,-9.0,-1.0,8.0,15.0,-13.0,1651094078149186.0
37.0,18.0,68.0,27.0,-6.0,18.0,-19.0,42.0,1651094078149186.0
-30.0,-4.0,0.0,-2.0,-4.0,27.0,-17.0,-56.0,1651094078171697.0
11.0,11.0,41.0,-9.0,0.0,-87.0,-27.0,40.0,1651094078171697.0
18.0,-14.0,-27.0,-4.0,-7.0,-25.0,32.0,3.0,1651094078172416.0
-59.0,-23.0,-70.0,-12.0,-8.0,-11.0,-27.0,-65.0,1651094078172416.0
45.0,30.0,74.0,7.0,19.0,-84.0,14.0,85.0,1651094078183835.0
24.0,15.0,13.0,0.0,-25.0,3.0,34.0,27.0,1651094078183835.0
-11.0,-8.0,-72.0,-7.0,-38.0,41.0,-13.0,-24.0,1651094078193755.0
-5.0,2.0,83.0,18.0,11.0,39.0,-16.0,-12.0,1651094078193755.0
-21.0,-14.0,-40.0,-37.0,-13.0,20.0,3.0,-30.0,1651094078207916.0
-59.0,8.0,1.0,19.0,11.0,93.0,-3.0,-22.0,1651094078207916.0
44.0,-1.0,40.0,-8.0,-21.0,-85.0,-5.0,-7.0,1651094078215052.0
7.0,0.0,-48.0,-15.0,7.0,-30.0,2.0,22.0,1651094078215052.0
4.0,2.0,3.0,6.0,-19.0,-23.0,-11.0,-23.0,1651094078231021.0
17.0,-15.0,-30.0,4.0,-11.0,-2.0,-2.0,14.0,1651094078231021.0
-58.0,-1.0,19.0,4.0,19.0,-11.0,-47.0,-47.0,1651094078232022.0
21.0,-1.0,-17.0,-5.0,13.0,-9.0,7.0,58.0,1651094078232022.0
37.0,13.0,21.0,5.0,-12.0,-63.0,25.0,7.0,1651094078245206.0
-3.0,-11.0,-11.0,-20.0,-12.0,0.0,-6.0,-23.0,1651094078245206.0
-25.0,-14.0,-39.0,23.0,14.0,16.0,-6.0,-10.0,1651094078252248.0
-12.0,24.0,71.0,15.0,9.0,18.0,46.0,-18.0,1651094078252248.0
-3.0,-11.0,-45.0,-54.0,-14.0,35.0,-83.0,20.0,1651094078267537.0
-24.0,-9.0,7.0,8.0,16.0,6.0,6.0,-28.0,1651094078267537.0
36.0,9.0,39.0,-8.0,-10.0,30.0,3.0,1.0,1651094078275674.0
9.0,-3.0,-28.0,23.0,6.0,-104.0,20.0,23.0,1651094078275674.0
-13.0,-5.0,34.0,8.0,-11.0,6.0,10.0,-6.0,1651094078290830.0
1.0,-11.0,-93.0,-13.0,2.0,116.0,9.0,-15.0,1651094078290830.0
8.0,13.0,95.0,21.0,7.0,53.0,-18.0,26.0,1651094078291695.0
-4.0,-6.0,-17.0,-41.0,3.0,11.0,-6.0,-11.0,1651094078291695.0
-13.0,-11.0,-20.0,20.0,-18.0,-32.0,13.0,-14.0,1651094078303640.0
-12.0,-1.0,-15.0,-2.0,17.0,-31.0,-72.0,-8.0,1651094078303640.0
7.0,1.0,-17.0,-2.0,-1.0,-24.0,22.0,5.0,1651094078320983.0
21.0,17.0,7.0,17.0,-3.0,11.0,39.0,18.0,1651094078320983.0
-9.0,-9.0,3.0,9.0,-10.0,7.0,19.0,-23.0,1651094078335141.0
-55.0,6.0,-42.0,-3.0,1.0,-10.0,3.0,3.0,1651094078335141.0
60.0,6.0,69.0,-5.0,12.0,27.0,18.0,8.0,1651094078342260.0
11.0,-27.0,-14.0,-13.0,-1.0,67.0,-46.0,8.0,1651094078342260.0
-6.0,10.0,-34.0,15.0,26.0,25.0,42.0,-9.0,1651094078350430.0
38.0,-37.0,-78.0,-6.0,-13.0,-97.0,0.0,35.0,1651094078350430.0
-31.0,41.0,100.0,-25.0,-24.0,-25.0,23.0,-13.0,1651094078352427.0
-41.0,3.0,75.0,38.0,14.0,76.0,-34.0,-28.0,1651094078352427.0
20.0,16.0,-26.0,44.0,3.0,18.0,10.0,-9.0,1651094078364510.0
19.0,37.0,22.0,-38.0,-1.0,34.0,20.0,18.0,1651094078364510.0
-8.0,-53.0,24.0,21.0,2.0,-70.0,-5.0,14.0,1651094078373831.0
25.0,-38.0,-83.0,-119.0,-9.0,-8.0,-4.0,35.0,1651094078373831.0
-23.0,51.0,71.0,114.0,-15.0,16.0,-45.0,-28.0,1651094078389017.0
7.0,-3.0,106.0,-13.0,-3.0,-12.0,10.0,-10.0,1651094078389017.0
-10.0,9.0,-127.0,15.0,-1.0,-7.0,-12.0,-18.0,1651094078389660.0
-16.0,29.0,127.0,2.0,-5.0,-48.0,-5.0,0.0,1651094078389660.0
-1.0,-52.0,-128.0,-32.0,1.0,75.0,4.0,-1.0,1651094078411298.0
9.0,11.0,13.0,-11.0,24.0,25.0,-19.0,-8.0,1651094078411298.0
-7.0,8.0,-11.0,23.0,-13.0,15.0,1.0,11.0,1651094078411652.0
25.0,-19.0,-128.0,23.0,-22.0,-16.0,20.0,32.0,1651094078411652.0
-7.0,15.0,127.0,-11.0,22.0,-26.0,-5.0,-15.0,1651094078424950.0
-18.0,-1.0,-44.0,-41.0,2.0,61.0,-7.0,-25.0,1651094078424950.0
-88.0,-9.0,44.0,26.0,32.0,3.0,26.0,-31.0,1651094078432993.0
76.0,16.0,-73.0,22.0,3.0,8.0,-9.0,19.0,1651094078432993.0
28.0,-18.0,-33.0,-29.0,-14.0,-29.0,10.0,24.0,1651094078448980.0
10.0,20.0,53.0,40.0,11.0,-7.0,6.0,14.0,1651094078448980.0
-14.0,-21.0,-67.0,-46.0,-21.0,-99.0,-21.0,-11.0,1651094078449157.0
-7.0,9.0,35.0,13.0,22.0,-8.0,10.0,12.0,1651094078449157.0
-15.0,-11.0,57.0,-24.0,7.0,39.0,-19.0,0.0,1651094078470614.0
9.0,-28.0,-64.0,77.0,-30.0,-74.0,5.0,3.0,1651094078470614.0
6.0,-18.0,-69.0,-54.0,15.0,55.0,5.0,-14.0,1651094078477574.0
-33.0,71.0,95.0,25.0,0.0,-69.0,-37.0,-42.0,1651094078477574.0
4.0,-18.0,-10.0,-32.0,3.0,-35.0,54.0,21.0,1651094078484615.0
16.0,30.0,-95.0,-3.0,-6.0,41.0,7.0,34.0,1651094078484615.0
5.0,-24.0,-39.0,-12.0,9.0,-18.0,-31.0,-6.0,1651094078493733.0
-2.0,-32.0,-49.0,-8.0,-2.0,86.0,43.0,7.0,1651094078493733.0
-5.0,-3.0,-69.0,-20.0,-4.0,-62.0,-26.0,-21.0,1651094078508679.0
-11.0,5.0,127.0,52.0,36.0,-9.0,15.0,-4.0,1651094078508679.0
23.0,35.0,-33.0,-14.0,-6.0,67.0,4.0,19.0,1651094078509560.0
-12.0,-8.0,67.0,23.0,-13.0,30.0,-18.0,-5.0,1651094078509560.0
-21.0,7.0,41.0,-7.0,32.0,76.0,10.0,-22.0,1651094078530996.0
-13.0,-26.0,-47.0,-52.0,-26.0,10.0,18.0,31.0,1651094078530996.0
55.0,-6.0,-21.0,9.0,-17.0,-12.0,-14.0,-34.0,1651094078531856.0
-23.0,-11.0,30.0,9.0,-1.0,14.0,-6.0,-20.0,1651094078531856.0
-11.0,19.0,-43.0,5.0,-5.0,1.0,35.0,8.0,1651094078553485.0
21.0,-2.0,-13.0,-12.0,5.0,-77.0,7.0,6.0,1651094078553485.0
-19.0,-1.0,70.0,0.0,4.0,-30.0,8.0,22.0,1651094078555044.0
25.0,-13.0,-109.0,20.0,-32.0,29.0,11.0,-2.0,1651094078555044.0
-21.0,-11.0,59.0,-28.0,-1.0,-32.0,-38.0,-31.0,1651094078568331.0
-2.0,-19.0,-69.0,-4.0,13.0,30.0,18.0,-3.0,1651094078568331.0
8.0,26.0,97.0,47.0,18.0,-13.0,44.0,54.0,1651094078569182.0
-11.0,-8.0,-99.0,-59.0,-27.0,-47.0,-28.0,-28.0,1651094078569182.0
24.0,-7.0,-105.0,20.0,-2.0,17.0,-21.0,18.0,1651094078591530.0
-3.0,-1.0,103.0,-22.0,-31.0,46.0,6.0,-12.0,1651094078591530.0
-20.0,-18.0,10.0,23.0,18.0,35.0,6.0,-24.0,1651094078592333.0
-48.0,3.0,31.0,27.0,71.0,51.0,54.0,-34.0,1651094078592333.0
47.0,19.0,-60.0,-15.0,-26.0,76.0,-1.0,48.0,1651094078612610.0
-13.0,-6.0,-50.0,-18.0,-26.0,2.0,-27.0,29.0,1651094078612610.0
-1.0,-15.0,-46.0,-23.0,-5.0,-20.0,-26.0,-25.0,1651094078614605.0
-42.0,5.0,56.0,13.0,36.0,-3.0,15.0,39.0,1651094078614605.0
42.0,0.0,1.0,7.0,4.0,0.0,-1.0,-33.0,1651094078627898.0
8.0,14.0,40.0,15.0,23.0,-35.0,-1.0,-4.0,1651094078627898.0
-3.0,-2.0,-33.0,-25.0,-40.0,-22.0,-3.0,2.0,1651094078629743.0
-36.0,-22.0,-99.0,-15.0,23.0,-16.0,-10.0,-8.0,1651094078629743.0
-34.0,-19.0,-4.0,15.0,1.0,-5.0,9.0,0.0,1651094078658341.0
10.0,26.0,99.0,36.0,-39.0,-50.0,-9.0,-17.0,1651094078658341.0
-32.0,17.0,-62.0,-53.0,-6.0,-15.0,-6.0,-12.0,1651094078659238.0
51.0,-36.0,-127.0,-18.0,12.0,-50.0,17.0,34.0,1651094078659238.0
-10.0,35.0,127.0,109.0,34.0,-31.0,-38.0,-2.0,1651094078664225.0
-5.0,-10.0,-106.0,-102.0,-8.0,30.0,34.0,-23.0,1651094078664225.0
-28.0,-16.0,-88.0,-25.0,-25.0,52.0,4.0,-24.0,1651094078673492.0
39.0,6.0,12.0,-5.0,7.0,-43.0,31.0,50.0,1651094078673492.0
35.0,-3.0,-65.0,11.0,13.0,10.0,-17.0,23.0,1651094078687516.0
-28.0,2.0,75.0,26.0,2.0,-93.0,-7.0,-22.0,1651094078687516.0
18.0,8.0,36.0,38.0,14.0,13.0,-17.0,9.0,1651094078694497.0
-5.0,8.0,11.0,-18.0,-38.0,-51.0,2.0,-26.0,1651094078694497.0
-20.0,-8.0,-1.0,-23.0,12.0,-12.0,7.0,-7.0,1651094078717993.0
20.0,3.0,29.0,26.0,8.0,5.0,-1.0,21.0,1651094078717993.0
-1.0,7.0,-6.0,-20.0,-24.0,-19.0,-40.0,5.0,1651094078725135.0
18.0,7.0,53.0,13.0,-12.0,-20.0,-6.0,-40.0,1651094078725135.0
-20.0,-6.0,-7.0,-17.0,-3.0,51.0,34.0,5.0,1651094078725974.0
-16.0,-6.0,-69.0,-5.0,34.0,24.0,-2.0,-22.0,1651094078725974.0
31.0,-2.0,72.0,35.0,-14.0,0.0,-1.0,64.0,1651094078733119.0
1.0,14.0,-50.0,-23.0,-27.0,1.0,1.0,-26.0,1651094078733119.0
1.0,7.0,71.0,-9.0,-37.0,-4.0,8.0,26.0,1651094078749034.0
-3.0,-12.0,-38.0,-8.0,12.0,58.0,-8.0,-9.0,1651094078749034.0
-15.0,-6.0,-27.0,-1.0,23.0,3.0,-14.0,-25.0,1651094078750178.0
-11.0,2.0,29.0,14.0,-25.0,0.0,-14.0,-1.0,1651094078750178.0
-3.0,-17.0,-17.0,-38.0,11.0,-11.0,-9.0,-18.0,1651094078770752.0
2.0,-6.0,-48.0,-9.0,3.0,18.0,5.0,3.0,1651094078770752.0
24.0,1.0,4.0,16.0,-6.0,24.0,17.0,34.0,1651094078777891.0
1.0,10.0,60.0,6.0,-15.0,-15.0,-17.0,-16.0,1651094078777891.0
-67.0,4.0,-18.0,20.0,6.0,-57.0,-4.0,-18.0,1651094078793541.0
59.0,19.0,19.0,9.0,-4.0,-1.0,-1.0,16.0,1651094078793541.0
-26.0,-8.0,33.0,-6.0,21.0,12.0,-19.0,-40.0,1651094078794890.0
3.0,-12.0,-33.0,4.0,29.0,38.0,-4.0,8.0,1651094078794890.0
-27.0,8.0,22.0,-13.0,-24.0,-72.0,-28.0,-17.0,1651094078809016.0
53.0,-9.0,-46.0,3.0,11.0,-56.0,58.0,38.0,1651094078809016.0
16.0,6.0,20.0,0.0,-12.0,-30.0,8.0,7.0,1651094078810047.0
-13.0,3.0,27.0,6.0,-5.0,-9.0,-10.0,0.0,1651094078810047.0
2.0,-11.0,-26.0,-7.0,0.0,-24.0,-12.0,-15.0,1651094078831452.0
-18.0,3.0,0.0,-5.0,4.0,80.0,-26.0,-6.0,1651094078831452.0
1.0,5.0,1.0,3.0,30.0,4.0,26.0,-4.0,1651094078832368.0
-6.0,-3.0,15.0,-10.0,-30.0,9.0,-37.0,-6.0,1651094078832368.0
13.0,1.0,-24.0,1.0,-2.0,23.0,21.0,10.0,1651094078853849.0
-12.0,-7.0,19.0,21.0,15.0,0.0,-10.0,0.0,1651094078853849.0
-1.0,2.0,2.0,-2.0,-11.0,35.0,12.0,2.0,1651094078854849.0
-1.0,9.0,-10.0,-4.0,-7.0,5.0,-16.0,-5.0,1651094078854849.0
12.0,-2.0,-10.0,-1.0,4.0,16.0,-11.0,3.0,1651094078868271.0
-18.0,-11.0,1.0,-12.0,-15.0,-13.0,-10.0,-6.0,1651094078868271.0
2.0,-2.0,-19.0,-10.0,16.0,57.0,15.0,4.0,1651094078873897.0
6.0,-4.0,-3.0,-4.0,4.0,20.0,11.0,7.0,1651094078873897.0
10.0,6.0,19.0,8.0,23.0,42.0,12.0,6.0,1651094078892034.0
-9.0,9.0,17.0,20.0,-11.0,-19.0,-11.0,-9.0,1651094078892034.0
-1.0,2.0,-9.0,-2.0,-28.0,-18.0,-2.0,-4.0,1651094078893035.0
2.0,4.0,6.0,4.0,17.0,8.0,4.0,1.0,1651094078893035.0
2.0,-5.0,3.0,-2.0,-6.0,11.0,6.0,2.0,1651094078913136.0
-9.0,-5.0,-5.0,-6.0,-8.0,0.0,-16.0,-6.0,1651094078913136.0
5.0,-6.0,-23.0,3.0,6.0,-3.0,-2.0,0.0,1651094078914160.0
1.0,6.0,39.0,2.0,-29.0,-4.0,1.0,2.0,1651094078914160.0
3.0,-3.0,-14.0,-14.0,-6.0,-16.0,2.0,-3.0,1651094078927913.0
-4.0,2.0,1.0,-1.0,-10.0,-17.0,-4.0,-2.0,1651094078927913.0
1.0,3.0,6.0,9.0,68.0,5.0,7.0,2.0,1651094078934347.0
-1.0,-7.0,-9.0,4.0,9.0,15.0,5.0,0.0,1651094078934347.0
3.0,0.0,-2.0,4.0,34.0,-5.0,1.0,5.0,1651094078950239.0
0.0,0.0,25.0,7.0,-12.0,2.0,-3.0,0.0,1651094078950239.0
1.0,-12.0,-71.0,-8.0,-14.0,5.0,0.0,0.0,1651094078952191.0
-2.0,9.0,73.0,-4.0,-3.0,-9.0,-6.0,-4.0,1651094078952191.0
1.0,-4.0,-28.0,-10.0,-78.0,-6.0,1.0,-1.0,1651094078973491.0
-4.0,4.0,18.0,9.0,97.0,15.0,3.0,1.0,1651094078973491.0
-3.0,-1.0,5.0,-1.0,-39.0,-7.0,-2.0,-3.0,1651094078974338.0
0.0,-9.0,-36.0,0.0,-25.0,-6.0,-1.0,-1.0,1651094078974338.0
4.0,6.0,19.0,3.0,10.0,-9.0,3.0,2.0,1651094078988890.0
-3.0,0.0,-2.0,-4.0,-49.0,7.0,-3.0,-4.0,1651094078988890.0
-1.0,4.0,1.0,-8.0,-29.0,-4.0,-2.0,-1.0,1651094078995708.0
-2.0,-13.0,-16.0,-5.0,2.0,5.0,-2.0,-2.0,1651094078995708.0
1.0,-1.0,8.0,-2.0,13.0,1.0,2.0,2.0,1651094079011300.0
-2.0,-1.0,-13.0,-2.0,14.0,10.0,-3.0,-1.0,1651094079011300.0
1.0,5.0,22.0,5.0,24.0,4.0,-1.0,0.0,1651094079012296.0
1.0,-1.0,0.0,7.0,9.0,-12.0,-1.0,0.0,1651094079012296.0
-3.0,-4.0,-18.0,-7.0,-96.0,-9.0,-4.0,-4.0,1651094079033415.0
-1.0,-6.0,5.0,-2.0,-25.0,-20.0,-5.0,-1.0,1651094079033415.0
0.0,4.0,10.0,-14.0,-125.0,-18.0,-2.0,-3.0,1651094079034258.0
2.0,6.0,-6.0,20.0,114.0,26.0,6.0,4.0,1651094079034258.0
1.0,3.0,5.0,12.0,-11.0,17.0,3.0,1.0,1651094079046479.0
-2.0,2.0,-3.0,-5.0,-85.0,-17.0,-1.0,0.0,1651094079046479.0
-2.0,-6.0,-2.0,-11.0,13.0,23.0,-2.0,-3.0,1651094079055786.0
-1.0,-1.0,-2.0,-11.0,-122.0,-4.0,-3.0,-2.0,1651094079055786.0
1.0,2.0,6.0,2.0,75.0,5.0,3.0,1.0,1651094079070727.0
-1.0,-2.0,0.0,-2.0,-74.0,-4.0,0.0,-1.0,1651094079070727.0
0.0,3.0,2.0,5.0,127.0,-9.0,3.0,1.0,1651094079071584.0
-2.0,-3.0,-16.0,-1.0,45.0,3.0,-1.0,0.0,1651094079071584.0
-2.0,-2.0,15.0,-1.0,10.0,2.0,0.0,-1.0,1651094079093465.0
-3.0,-2.0,-1.0,-6.0,-37.0,-3.0,-3.0,-2.0,1651094079093465.0
-1.0,0.0,-5.0,2.0,50.0,-13.0,-1.0,1.0,1651094079094314.0
3.0,2.0,-4.0,8.0,45.0,23.0,2.0,1.0,1651094079094314.0
1.0,4.0,13.0,-3.0,-91.0,-24.0,1.0,-1.0,1651094079108628.0
0.0,-4.0,-17.0,3.0,90.0,15.0,0.0,-1.0,1651094079108628.0
-2.0,-1.0,13.0,-1.0,-13.0,-6.0,-1.0,-1.0,1651094079114599.0
-2.0,-8.0,-15.0,-6.0,-22.0,3.0,-4.0,-3.0,1651094079114599.0
-1.0,-3.0,4.0,-2.0,-40.0,-24.0,-4.0,-1.0,1651094079130982.0
4.0,6.0,5.0,13.0,35.0,30.0,6.0,5.0,1651094079130982.0
0.0,-13.0,9.0,3.0,-40.0,-3.0,2.0,1.0,1651094079136968.0
-3.0,5.0,-8.0,-9.0,9.0,-17.0,-3.0,-2.0,1651094079136968.0
-3.0,-5.0,-12.0,-14.0,-19.0,-7.0,-5.0,-2.0,1651094079153577.0
-3.0,-1.0,-2.0,1.0,-1.0,-5.0,-3.0,-3.0,1651094079153577.0
-2.0,0.0,6.0,6.0,-8.0,11.0,3.0,3.0,1651094079155010.0
-1.0,-3.0,3.0,-2.0,-45.0,-12.0,-2.0,0.0,1651094079155010.0
2.0,0.0,-1.0,2.0,58.0,13.0,1.0,1.0,1651094079168361.0
1.0,-10.0,5.0,1.0,-27.0,-5.0,1.0,1.0,1651094079168361.0
-1.0,11.0,-7.0,-1.0,7.0,-9.0,0.0,-1.0,1651094079174272.0
-2.0,-1.0,18.0,-6.0,-32.0,-2.0,-2.0,0.0,1651094079174272.0
-1.0,1.0,-14.0,0.0,31.0,29.0,2.0,1.0,1651094079191674.0
-1.0,0.0,8.0,4.0,89.0,3.0,-1.0,0.0,1651094079191674.0
1.0,-4.0,-14.0,-1.0,-47.0,-12.0,1.0,-1.0,1651094079192566.0
0.0,1.0,-5.0,1.0,0.0,0.0,0.0,-1.0,1651094079192566.0
0.0,-1.0,6.0,9.0,10.0,-9.0,-1.0,0.0,1651094079221071.0
0.0,2.0,-3.0,-8.0,-75.0,-6.0,0.0,-1.0,1651094079221071.0
2.0,1.0,-8.0,6.0,76.0,17.0,2.0,1.0,1651094079221965.0
0.0,0.0,11.0,1.0,57.0,7.0,0.0,0.0,1651094079221965.0
-1.0,-6.0,-2.0,-2.0,2.0,-7.0,2.0,-1.0,1651094079227950.0
-3.0,1.0,-1.0,0.0,-32.0,-11.0,-3.0,0.0,1651094079227950.0
-3.0,1.0,-5.0,-4.0,-36.0,-10.0,-1.0,-2.0,1651094079233933.0
-1.0,1.0,4.0,-4.0,-34.0,-2.0,0.0,-2.0,1651094079233933.0
-1.0,-2.0,-5.0,4.0,56.0,5.0,0.0,-2.0,1651094079250233.0
-2.0,4.0,-2.0,-5.0,15.0,1.0,-2.0,-1.0,1651094079250233.0
-1.0,-1.0,7.0,2.0,-20.0,-6.0,-1.0,0.0,1651094079252075.0
-1.0,-4.0,-10.0,-3.0,-22.0,-4.0,-1.0,0.0,1651094079252075.0
-2.0,1.0,-2.0,-3.0,24.0,-1.0,2.0,0.0,1651094079273523.0
2.0,2.0,-3.0,-2.0,7.0,6.0,0.0,-2.0,1651094079273523.0
-1.0,-2.0,3.0,0.0,-22.0,-2.0,-3.0,-2.0,1651094079274383.0
0.0,0.0,-2.0,6.0,44.0,3.0,1.0,0.0,1651094079274383.0
1.0,0.0,-3.0,-5.0,2.0,3.0,0.0,0.0,1651094079287647.0
0.0,2.0,-3.0,-6.0,5.0,3.0,0.0,-1.0,1651094079287647.0
0.0,1.0,4.0,0.0,-20.0,-9.0,-3.0,-2.0,1651094079295667.0
1.0,-3.0,-8.0,-2.0,-3.0,-3.0,-3.0,-2.0,1651094079295667.0
-3.0,5.0,10.0,2.0,11.0,2.0,0.0,-1.0,1651094079309840.0
-1.0,-2.0,-7.0,1.0,-16.0,-15.0,-2.0,1.0,1651094079309840.0
-2.0,-2.0,3.0,-5.0,-38.0,25.0,1.0,1.0,1651094079316926.0
0.0,1.0,-2.0,2.0,-20.0,-7.0,0.0,0.0,1651094079316926.0
1.0,-4.0,-2.0,3.0,30.0,13.0,-2.0,-1.0,1651094079333633.0
0.0,2.0,1.0,3.0,-6.0,-12.0,-1.0,0.0,1651094079333633.0
0.0,0.0,3.0,-2.0,4.0,-4.0,-1.0,0.0,1651094079334946.0
-3.0,0.0,3.0,-6.0,-30.0,-5.0,1.0,-1.0,1651094079334946.0
-1.0,-1.0,-5.0,2.0,-14.0,1.0,-2.0,-2.0,1651094079346993.0
0.0,-1.0,-1.0,-11.0,-31.0,2.0,-1.0,1.0,1651094079346993.0
0.0,-2.0,-4.0,-2.0,9.0,-6.0,-2.0,-1.0,1651094079355857.0
0.0,-2.0,-9.0,-5.0,24.0,-7.0,0.0,0.0,1651094079355857.0
0.0,2.0,0.0,1.0,-21.0,-5.0,-3.0,-1.0,1651094079371248.0
-1.0,-1.0,2.0,4.0,-3.0,1.0,-1.0,0.0,1651094079371248.0
-1.0,-1.0,2.0,4.0,4.0,-7.0,1.0,1.0,1651094079371882.0
-2.0,-2.0,-6.0,-5.0,-8.0,15.0,0.0,0.0,1651094079371882.0
-1.0,3.0,7.0,-3.0,-13.0,-3.0,2.0,-1.0,1651094079393830.0
1.0,3.0,5.0,8.0,16.0,0.0,2.0,-1.0,1651094079393830.0
-2.0,0.0,-2.0,0.0,-11.0,6.0,-1.0,0.0,1651094079394993.0
-1.0,-2.0,-3.0,1.0,-17.0,-8.0,-1.0,-2.0,1651094079394993.0
2.0,0.0,-9.0,-5.0,37.0,12.0,3.0,1.0,1651094079407665.0
-1.0,2.0,12.0,-1.0,-1.0,22.0,0.0,0.0,1651094079407665.0
-1.0,-1.0,-6.0,-4.0,7.0,-8.0,-2.0,-3.0,1651094079415801.0
1.0,-1.0,-1.0,2.0,20.0,-3.0,1.0,2.0,1651094079415801.0
-2.0,-5.0,-2.0,-1.0,-42.0,-9.0,-2.0,0.0,1651094079431427.0
-1.0,-1.0,1.0,0.0,26.0,-7.0,-1.0,-2.0,1651094079431427.0
2.0,2.0,6.0,3.0,26.0,-1.0,0.0,0.0,1651094079431828.0
0.0,-6.0,-13.0,-8.0,-6.0,0.0,-4.0,-2.0,1651094079431828.0
1.0,3.0,9.0,2.0,-29.0,7.0,2.0,0.0,1651094079453742.0
-1.0,-6.0,-13.0,1.0,-1.0,5.0,1.0,-1.0,1651094079453742.0
-1.0,2.0,8.0,-1.0,8.0,0.0,-1.0,0.0,1651094079454123.0
-2.0,-2.0,2.0,0.0,-5.0,-9.0,-2.0,0.0,1651094079454123.0
-1.0,0.0,-2.0,-2.0,8.0,-9.0,-1.0,-1.0,1651094079467071.0
-1.0,3.0,0.0,0.0,-46.0,-2.0,-1.0,-2.0,1651094079467071.0
0.0,-3.0,-9.0,-4.0,8.0,11.0,-1.0,-1.0,1651094079476236.0
-2.0,-1.0,2.0,4.0,-3.0,-10.0,0.0,-1.0,1651094079476236.0
-2.0,-3.0,-4.0,-4.0,12.0,3.0,-1.0,0.0,1651094079491561.0
-2.0,-2.0,4.0,4.0,24.0,-3.0,-1.0,0.0,1651094079491561.0
-1.0,-2.0,-14.0,-5.0,-3.0,-6.0,-2.0,-2.0,1651094079492447.0
1.0,7.0,13.0,-1.0,-4.0,-11.0,1.0,0.0,1651094079492447.0
-1.0,-1.0,2.0,0.0,-3.0,13.0,0.0,-1.0,1651094079513865.0
1.0,-2.0,-6.0,-9.0,-18.0,9.0,-2.0,-1.0,1651094079513865.0
-2.0,-1.0,0.0,5.0,5.0,1.0,-1.0,0.0,1651094079514728.0
-1.0,0.0,1.0,1.0,-32.0,23.0,-1.0,-1.0,1651094079514728.0
-1.0,-3.0,-2.0,9.0,58.0,-11.0,-1.0,0.0,1651094079527166.0
-1.0,-1.0,-5.0,-9.0,-30.0,-5.0,0.0,-1.0,1651094079527166.0
0.0,0.0,0.0,-1.0,6.0,-11.0,0.0,0.0,1651094079535993.0
-1.0,-2.0,-3.0,-2.0,-9.0,11.0,0.0,0.0,1651094079535993.0
0.0,0.0,2.0,-1.0,-2.0,-8.0,-1.0,-1.0,1651094079550690.0
-1.0,1.0,2.0,3.0,-16.0,2.0,-1.0,0.0,1651094079550690.0
0.0,0.0,-2.0,0.0,1.0,-5.0,-1.0,0.0,1651094079552687.0
1.0,-14.0,-18.0,-2.0,-9.0,-3.0,0.0,-1.0,1651094079552687.0
-1.0,12.0,22.0,-3.0,-20.0,-3.0,-2.0,1.0,1651094079573615.0
0.0,2.0,-2.0,2.0,38.0,-1.0,-1.0,-1.0,1651094079573615.0
0.0,0.0,-1.0,-4.0,-40.0,-7.0,0.0,0.0,1651094079574851.0
-1.0,-5.0,-10.0,3.0,22.0,-4.0,-2.0,0.0,1651094079574851.0
0.0,-3.0,-5.0,-2.0,19.0,-3.0,0.0,0.0,1651094079586921.0
0.0,-1.0,1.0,-2.0,15.0,10.0,0.0,0.0,1651094079586921.0
-1.0,-1.0,3.0,4.0,5.0,7.0,0.0,-1.0,1651094079596239.0
0.0,4.0,7.0,3.0,16.0,13.0,1.0,0.0,1651094079596239.0
-1.0,-4.0,-13.0,-4.0,-49.0,-8.0,-3.0,-2.0,1651094079611280.0
0.0,-2.0,-4.0,-2.0,58.0,-7.0,-1.0,1.0,1651094079611280.0
1.0,1.0,10.0,-1.0,2.0,1.0,3.0,-1.0,1651094079612278.0
0.0,3.0,1.0,-3.0,-21.0,-18.0,-1.0,-1.0,1651094079612278.0
-2.0,1.0,-1.0,6.0,57.0,10.0,-1.0,-1.0,1651094079633704.0
1.0,-2.0,-1.0,-1.0,-47.0,-5.0,-1.0,1.0,1651094079633704.0
-2.0,-3.0,-3.0,0.0,36.0,5.0,-1.0,0.0,1651094079634563.0
-1.0,5.0,5.0,1.0,1.0,-12.0,-1.0,0.0,1651094079634563.0
1.0,-6.0,-4.0,1.0,-17.0,26.0,1.0,-1.0,1651094079646968.0
-2.0,-2.0,-4.0,-9.0,6.0,-3.0,0.0,-1.0,1651094079646968.0
-2.0,-2.0,-2.0,2.0,2.0,-4.0,-1.0,-1.0,1651094079655928.0
-1.0,0.0,5.0,-1.0,-6.0,1.0,-2.0,-1.0,1651094079655928.0
1.0,-1.0,-11.0,-2.0,-26.0,-26.0,-2.0,2.0,1651094079671203.0
1.0,-1.0,7.0,4.0,14.0,-3.0,1.0,0.0,1651094079671203.0
0.0,1.0,-1.0,-1.0,2.0,31.0,3.0,1.0,1651094079671955.0
-1.0,0.0,-2.0,-4.0,-2.0,3.0,0.0,-2.0,1651094079671955.0
-1.0,-2.0,-1.0,3.0,17.0,-6.0,0.0,0.0,1651094079694186.0
-1.0,-1.0,3.0,5.0,7.0,-2.0,-1.0,0.0,1651094079694186.0
-1.0,-4.0,-9.0,-5.0,-13.0,-15.0,-2.0,0.0,1651094079695187.0
-1.0,6.0,0.0,2.0,4.0,9.0,2.0,-1.0,1651094079695187.0
0.0,4.0,4.0,-6.0,-35.0,2.0,0.0,-1.0,1651094079716443.0
-1.0,-2.0,-2.0,2.0,21.0,-5.0,0.0,0.0,1651094079716443.0
-2.0,0.0,-1.0,0.0,-11.0,-8.0,-2.0,-2.0,1651094079717338.0
1.0,-1.0,-2.0,8.0,76.0,8.0,3.0,1.0,1651094079717338.0
0.0,-2.0,0.0,-4.0,-27.0,-3.0,-1.0,-2.0,1651094079731599.0
0.0,-2.0,-10.0,-1.0,-4.0,9.0,-1.0,1.0,1651094079731599.0
1.0,4.0,18.0,0.0,-23.0,-11.0,-1.0,0.0,1651094079732349.0
-2.0,-3.0,-4.0,-6.0,5.0,-6.0,-1.0,-1.0,1651094079732349.0
-1.0,-2.0,0.0,-1.0,11.0,4.0,1.0,-1.0,1651094079752749.0
0.0,0.0,1.0,1.0,4.0,-2.0,0.0,0.0,1651094079752749.0
1.0,-2.0,-5.0,-1.0,-11.0,-8.0,-2.0,0.0,1651094079754775.0
-2.0,4.0,4.0,0.0,6.0,19.0,0.0,0.0,1651094079754775.0
-1.0,-4.0,-3.0,1.0,1.0,-5.0,0.0,0.0,1651094079776075.0
-3.0,-5.0,-6.0,-2.0,-18.0,-6.0,-2.0,-2.0,1651094079776075.0
-1.0,-2.0,-1.0,-9.0,23.0,-1.0,1.0,-2.0,1651094079777036.0
-1.0,0.0,5.0,2.0,-1.0,-7.0,1.0,1.0,1651094079777036.0
-2.0,1.0,-2.0,3.0,-15.0,-5.0,0.0,-1.0,1651094079791332.0
0.0,3.0,5.0,0.0,-1.0,-2.0,0.0,-1.0,1651094079791332.0
-1.0,-1.0,-2.0,-1.0,0.0,-5.0,0.0,1.0,1651094079792193.0
-2.0,-5.0,-11.0,0.0,-1.0,18.0,-2.0,0.0,1651094079792193.0
-1.0,-1.0,0.0,-7.0,3.0,-11.0,-2.0,-2.0,1651094079813582.0
-1.0,1.0,3.0,2.0,-7.0,-5.0,0.0,-1.0,1651094079813582.0
0.0,1.0,1.0,5.0,-5.0,3.0,-1.0,1.0,1651094079814446.0
2.0,0.0,13.0,-3.0,-3.0,-13.0,1.0,0.0,1651094079814446.0
-1.0,0.0,-2.0,-4.0,-6.0,2.0,-1.0,1.0,1651094079835497.0
0.0,2.0,-2.0,8.0,73.0,11.0,2.0,-1.0,1651094079835497.0
-2.0,-7.0,-14.0,0.0,-11.0,12.0,0.0,0.0,1651094079837406.0
-2.0,0.0,9.0,-3.0,-39.0,-6.0,-3.0,-3.0,1651094079837406.0
-1.0,2.0,-3.0,-3.0,-16.0,-2.0,-1.0,-1.0,1651094079850729.0
-1.0,-2.0,2.0,-7.0,-36.0,-2.0,0.0,0.0,1651094079850729.0
-1.0,-2.0,-3.0,-2.0,13.0,-3.0,-1.0,1.0,1651094079857691.0
-2.0,-3.0,-7.0,-2.0,-40.0,-11.0,-2.0,1.0,1651094079857691.0
0.0,2.0,6.0,11.0,81.0,18.0,0.0,-1.0,1651094079873701.0
1.0,-3.0,-2.0,-6.0,-33.0,-12.0,-2.0,-1.0,1651094079873701.0
0.0,0.0,-2.0,0.0,-6.0,0.0,-1.0,-3.0,1651094079874701.0
0.0,-2.0,-1.0,0.0,5.0,-8.0,-2.0,0.0,1651094079874701.0
0.0,-3.0,-2.0,-6.0,-39.0,-8.0,-2.0,-1.0,1651094079896043.0
-1.0,1.0,-5.0,0.0,36.0,13.0,2.0,-1.0,1651094079896043.0
1.0,2.0,7.0,6.0,7.0,-7.0,1.0,1.0,1651094079897002.0
-1.0,1.0,-1.0,-3.0,1.0,7.0,0.0,-1.0,1651094079897002.0
-1.0,-2.0,-5.0,2.0,-28.0,-3.0,1.0,1.0,1651094079910289.0
-2.0,-1.0,3.0,-11.0,-38.0,-6.0,-2.0,-1.0,1651094079910289.0
0.0,0.0,-5.0,-4.0,-51.0,-16.0,-1.0,-2.0,1651094079916427.0
-1.0,-4.0,-8.0,1.0,27.0,-9.0,-2.0,-1.0,1651094079916427.0
0.0,-3.0,1.0,5.0,81.0,9.0,4.0,2.0,1651094079940975.0
0.0,1.0,5.0,3.0,-28.0,-3.0,0.0,-1.0,1651094079940975.0
-1.0,-2.0,-6.0,-5.0,11.0,0.0,-2.0,-2.0,1651094079941825.0
0.0,1.0,0.0,-6.0,-42.0,-6.0,-1.0,-1.0,1651094079941825.0
-1.0,-1.0,1.0,3.0,4.0,-1.0,-1.0,-1.0,1651094079956094.0
0.0,-1.0,-5.0,8.0,6.0,-1.0,0.0,-1.0,1651094079956094.0
1.0,3.0,11.0,6.0,10.0,8.0,-1.0,-1.0,1651094079956958.0
-2.0,-1.0,-6.0,-11.0,10.0,2.0,-1.0,-2.0,1651094079956958.0
-3.0,-7.0,-14.0,-12.0,-89.0,-13.0,-2.0,-3.0,1651094079970254.0
-2.0,3.0,10.0,4.0,-12.0,5.0,-1.0,-3.0,1651094079970254.0
1.0,-3.0,-6.0,0.0,9.0,5.0,1.0,0.0,1651094079977236.0
-1.0,1.0,1.0,3.0,23.0,-15.0,-1.0,-1.0,1651094079977236.0
-1.0,-2.0,0.0,-6.0,6.0,9.0,-2.0,-3.0,1651094080000651.0
-1.0,-3.0,-2.0,2.0,-56.0,0.0,0.0,0.0,1651094080000651.0
0.0,1.0,4.0,3.0,6.0,6.0,-1.0,-1.0,1651094080001685.0
0.0,2.0,-1.0,-2.0,12.0,0.0,1.0,-1.0,1651094080001685.0
1.0,0.0,-1.0,-3.0,-51.0,-7.0,-3.0,-1.0,1651094080015772.0
-1.0,-4.0,-8.0,-3.0,13.0,-3.0,-2.0,-1.0,1651094080015772.0
0.0,3.0,8.0,2.0,63.0,2.0,2.0,1.0,1651094080016610.0
1.0,2.0,0.0,3.0,-62.0,6.0,1.0,0.0,1651094080016610.0
0.0,-1.0,1.0,10.0,54.0,2.0,0.0,1.0,1651094080030622.0
-2.0,-2.0,-3.0,-7.0,6.0,-4.0,-1.0,-2.0,1651094080030622.0
-3.0,-4.0,-6.0,-4.0,-52.0,2.0,-2.0,0.0,1651094080036706.0
0.0,-4.0,-1.0,0.0,22.0,-1.0,-2.0,0.0,1651094080036706.0
-1.0,3.0,6.0,0.0,8.0,2.0,0.0,0.0,1651094080053759.0
0.0,2.0,-2.0,-3.0,8.0,9.0,-1.0,0.0,1651094080053759.0
-2.0,-2.0,-2.0,0.0,15.0,-5.0,-1.0,-3.0,1651094080054943.0
-2.0,-3.0,-2.0,-4.0,25.0,-5.0,0.0,-1.0,1651094080054943.0
0.0,-2.0,-2.0,1.0,48.0,-1.0,2.0,-2.0,1651094080075334.0
-1.0,-2.0,-14.0,-1.0,5.0,19.0,1.0,0.0,1651094080075334.0
-1.0,2.0,14.0,-4.0,-49.0,-8.0,0.0,0.0,1651094080077172.0
1.0,1.0,2.0,6.0,-6.0,6.0,-1.0,-1.0,1651094080077172.0
-2.0,1.0,3.0,3.0,-20.0,-6.0,0.0,1.0,1651094080089622.0
0.0,-2.0,-2.0,-1.0,7.0,-10.0,-1.0,0.0,1651094080089622.0
-1.0,-2.0,-1.0,-3.0,9.0,0.0,-2.0,-1.0,1651094080097624.0
0.0,-2.0,-5.0,0.0,-22.0,4.0,1.0,0.0,1651094080097624.0
0.0,-3.0,-7.0,-10.0,19.0,-3.0,-1.0,-1.0,1651094080113773.0
0.0,5.0,10.0,6.0,34.0,-3.0,0.0,1.0,1651094080113773.0
-1.0,-2.0,-4.0,-3.0,-54.0,1.0,-2.0,-1.0,1651094080114616.0
-1.0,-3.0,1.0,-5.0,-1.0,-14.0,-2.0,-3.0,1651094080114616.0
1.0,0.0,2.0,8.0,38.0,16.0,3.0,-1.0,1651094080135809.0
0.0,-2.0,-1.0,-4.0,-17.0,-7.0,-1.0,0.0,1651094080135809.0
-1.0,0.0,-3.0,-1.0,44.0,-1.0,1.0,-1.0,1651094080136718.0
0.0,-2.0,-2.0,-5.0,-82.0,-9.0,-2.0,-2.0,1651094080136718.0
-1.0,2.0,0.0,-2.0,16.0,4.0,-1.0,-1.0,1651094080150794.0
0.0,0.0,4.0,0.0,-17.0,-5.0,-2.0,0.0,1651094080150794.0
-1.0,0.0,-4.0,-2.0,2.0,0.0,0.0,-2.0,1651094080157773.0
0.0,0.0,6.0,7.0,26.0,4.0,2.0,1.0,1651094080157773.0
0.0,-1.0,-2.0,-8.0,-24.0,-3.0,-2.0,-1.0,1651094080173860.0
0.0,-1.0,-1.0,-4.0,-3.0,1.0,1.0,-1.0,1651094080173860.0
0.0,0.0,-3.0,5.0,55.0,7.0,0.0,2.0,1651094080174896.0
0.0,-2.0,-7.0,-5.0,-14.0,0.0,-2.0,-1.0,1651094080174896.0
-1.0,6.0,18.0,8.0,2.0,3.0,-1.0,0.0,1651094080195130.0
-2.0,1.0,-1.0,0.0,15.0,-8.0,-2.0,1.0,1651094080195130.0
0.0,-6.0,-9.0,-6.0,-66.0,-2.0,-1.0,-1.0,1651094080197125.0
-4.0,-3.0,-8.0,-2.0,-3.0,-1.0,-1.0,-1.0,1651094080197125.0
-1.0,-3.0,-5.0,-4.0,-3.0,-5.0,-1.0,-1.0,1651094080218504.0
1.0,-6.0,-5.0,-3.0,-45.0,0.0,2.0,0.0,1651094080218504.0
1.0,4.0,12.0,-9.0,50.0,-1.0,1.0,1.0,1651094080219304.0
-2.0,1.0,1.0,5.0,-5.0,2.0,-4.0,0.0,1651094080219304.0
0.0,0.0,-5.0,4.0,43.0,-5.0,-4.0,-2.0,1651094080233607.0
0.0,4.0,8.0,6.0,52.0,5.0,1.0,0.0,1651094080233607.0
0.0,-3.0,-2.0,10.0,59.0,3.0,1.0,0.0,1651094080234480.0
-1.0,-4.0,-1.0,-10.0,13.0,-3.0,0.0,1.0,1651094080234480.0
-1.0,-4.0,-4.0,-14.0,-89.0,-9.0,-1.0,-2.0,1651094080254810.0
0.0,1.0,-4.0,3.0,39.0,1.0,-4.0,-1.0,1651094080254810.0
0.0,2.0,0.0,-2.0,-87.0,-5.0,0.0,-2.0,1651094080263946.0
1.0,1.0,-3.0,0.0,9.0,2.0,0.0,-2.0,1651094080263946.0
2.0,0.0,0.0,0.0,1.0,3.0,2.0,-1.0,1651094080270184.0
-2.0,-5.0,-11.0,5.0,-41.0,-8.0,-1.0,-2.0,1651094080270184.0
-3.0,2.0,10.0,-2.0,-8.0,-5.0,-3.0,-4.0,1651094080278166.0
-2.0,-4.0,-3.0,7.0,-18.0,5.0,1.0,1.0,1651094080278166.0
-2.0,-2.0,-10.0,-11.0,-9.0,2.0,0.0,1.0,1651094080293519.0
-1.0,1.0,-3.0,-7.0,60.0,4.0,2.0,1.0,1651094080293519.0
-1.0,6.0,16.0,23.0,24.0,19.0,3.0,3.0,1651094080294359.0
12.0,6.0,8.0,5.0,-37.0,-7.0,1.0,0.0,1651094080294359.0
2.0,-1.0,-4.0,-4.0,9.0,-6.0,-2.0,-1.0,1651094080315913.0
-7.0,-10.0,-8.0,-6.0,17.0,3.0,-1.0,-3.0,1651094080315913.0
-1.0,-8.0,-25.0,-8.0,36.0,0.0,-1.0,-1.0,1651094080316753.0
2.0,2.0,3.0,-7.0,34.0,1.0,-3.0,0.0,1651094080316753.0
-3.0,8.0,7.0,12.0,-73.0,1.0,2.0,4.0,1651094080329214.0
0.0,7.0,20.0,7.0,-7.0,0.0,0.0,-1.0,1651094080329214.0
-2.0,-2.0,-6.0,-14.0,-25.0,-10.0,0.0,-2.0,1651094080338215.0
-2.0,2.0,3.0,11.0,1.0,9.0,3.0,0.0,1651094080338215.0
5.0,-3.0,-2.0,-10.0,-64.0,-1.0,-1.0,-1.0,1651094080353505.0
0.0,0.0,-1.0,2.0,12.0,3.0,1.0,0.0,1651094080353505.0
-3.0,1.0,-4.0,2.0,58.0,-6.0,-3.0,-2.0,1651094080354340.0
4.0,4.0,6.0,12.0,20.0,16.0,7.0,4.0,1651094080354340.0
-5.0,-2.0,2.0,0.0,3.0,-4.0,-2.0,-2.0,1651094080375786.0
-3.0,-3.0,3.0,-3.0,-39.0,-10.0,-2.0,0.0,1651094080375786.0
1.0,-6.0,-15.0,-12.0,-29.0,-2.0,0.0,1.0,1651094080376625.0
-4.0,-6.0,-12.0,-14.0,8.0,-8.0,-6.0,-6.0,1651094080376625.0
5.0,3.0,8.0,11.0,15.0,1.0,4.0,2.0,1651094080389787.0
-2.0,2.0,5.0,13.0,68.0,10.0,2.0,1.0,1651094080389787.0
5.0,3.0,10.0,-35.0,-59.0,-7.0,-4.0,-3.0,1651094080397923.0
-4.0,-6.0,-2.0,2.0,41.0,-15.0,-4.0,2.0,1651094080397923.0
-5.0,0.0,-1.0,32.0,-85.0,-2.0,-2.0,-3.0,1651094080414125.0
0.0,3.0,-5.0,-6.0,14.0,9.0,2.0,2.0,1651094080414125.0
4.0,0.0,-1.0,4.0,-40.0,-1.0,0.0,0.0,1651094080415156.0
-3.0,-2.0,-1.0,-20.0,68.0,8.0,0.0,0.0,1651094080415156.0
3.0,-5.0,-1.0,-57.0,-61.0,-18.0,-4.0,5.0,1651094080436444.0
-1.0,-3.0,-4.0,26.0,46.0,-19.0,-3.0,-8.0,1651094080436444.0
-5.0,0.0,0.0,51.0,2.0,24.0,3.0,2.0,1651094080437316.0
4.0,3.0,5.0,25.0,-34.0,-7.0,4.0,6.0,1651094080437316.0
-4.0,-5.0,-7.0,-1.0,-27.0,25.0,2.0,-4.0,1651094080449471.0
2.0,0.0,2.0,-26.0,41.0,-7.0,-5.0,-5.0,1651094080449471.0
-3.0,-2.0,2.0,-20.0,-27.0,-10.0,-3.0,-5.0,1651094080465620.0
-1.0,3.0,-4.0,-11.0,21.0,-26.0,-3.0,-4.0,1651094080465620.0
0.0,0.0,5.0,41.0,127.0,43.0,5.0,3.0,1651094080472643.0
-4.0,-5.0,-5.0,-35.0,-128.0,-24.0,-7.0,-3.0,1651094080472643.0
2.0,2.0,7.0,-21.0,43.0,29.0,2.0,1.0,1651094080479593.0
4.0,-2.0,-10.0,14.0,-64.0,-25.0,-6.0,3.0,1651094080479593.0
-2.0,8.0,16.0,17.0,50.0,2.0,-3.0,2.0,1651094080495851.0
3.0,-3.0,-10.0,9.0,-90.0,13.0,10.0,8.0,1651094080495851.0
-5.0,-11.0,-20.0,-36.0,101.0,-29.0,-6.0,-7.0,1651094080497712.0
-2.0,3.0,4.0,-9.0,-83.0,3.0,5.0,3.0,1651094080497712.0
-6.0,-6.0,-6.0,-26.0,-80.0,-20.0,-13.0,-14.0,1651094080509844.0
9.0,8.0,17.0,20.0,71.0,44.0,6.0,12.0,1651094080509844.0
-1.0,2.0,3.0,-9.0,-103.0,-45.0,-3.0,1.0,1651094080517836.0
-10.0,-9.0,-8.0,18.0,-82.0,2.0,-10.0,-13.0,1651094080517836.0
-3.0,-4.0,-8.0,4.0,23.0,-13.0,-4.0,-8.0,1651094080532910.0
4.0,2.0,-3.0,-19.0,-94.0,-7.0,2.0,6.0,1651094080532910.0
1.0,0.0,0.0,26.0,94.0,19.0,9.0,3.0,1651094080540047.0
0.0,0.0,1.0,-16.0,-43.0,-3.0,-3.0,-1.0,1651094080540047.0
3.0,2.0,5.0,-2.0,14.0,-2.0,1.0,3.0,1651094080563667.0
1.0,2.0,3.0,-3.0,-2.0,46.0,2.0,3.0,1651094080563667.0
-1.0,1.0,0.0,22.0,91.0,8.0,2.0,-1.0,1651094080565065.0
0.0,1.0,5.0,-9.0,-31.0,-5.0,5.0,-4.0,1651094080565065.0
-2.0,-7.0,-12.0,-1.0,41.0,3.0,-3.0,5.0,1651094080569044.0
-6.0,-4.0,-1.0,-6.0,2.0,-32.0,-12.0,-21.0,1651094080569044.0
0.0,-1.0,-3.0,-10.0,-123.0,6.0,-1.0,0.0,1651094080577985.0
0.0,4.0,-7.0,20.0,127.0,41.0,9.0,6.0,1651094080577985.0
2.0,6.0,16.0,5.0,-33.0,-4.0,6.0,3.0,1651094080593813.0
-8.0,-8.0,-11.0,-10.0,-75.0,-33.0,-4.0,-11.0,1651094080593813.0
1.0,-3.0,-3.0,19.0,38.0,28.0,-8.0,15.0,1651094080594098.0
2.0,-2.0,-3.0,-44.0,-44.0,-8.0,6.0,5.0,1651094080594098.0
4.0,2.0,-3.0,11.0,-44.0,-12.0,0.0,-2.0,1651094080615773.0
-3.0,0.0,2.0,25.0,71.0,-4.0,-3.0,-6.0,1651094080615773.0
-4.0,-5.0,-4.0,-6.0,-101.0,-29.0,-4.0,-9.0,1651094080616643.0
-3.0,-3.0,3.0,6.0,107.0,32.0,0.0,3.0,1651094080616643.0
-7.0,2.0,3.0,0.0,65.0,3.0,2.0,-9.0,1651094080638668.0
8.0,2.0,7.0,42.0,-5.0,1.0,0.0,4.0,1651094080638668.0
-3.0,-1.0,-6.0,4.0,-36.0,-14.0,1.0,4.0,1651094080639746.0
3.0,1.0,10.0,-7.0,-47.0,-9.0,-4.0,-20.0,1651094080639746.0
-11.0,-5.0,-7.0,-26.0,-9.0,19.0,-10.0,1.0,1651094080653806.0
-3.0,-6.0,-12.0,-5.0,-43.0,-10.0,2.0,2.0,1651094080653806.0
3.0,1.0,-2.0,9.0,56.0,17.0,7.0,15.0,1651094080660274.0
1.0,2.0,-2.0,12.0,35.0,-2.0,3.0,-2.0,1651094080660274.0
3.0,0.0,2.0,-34.0,-3.0,-14.0,-6.0,-4.0,1651094080675569.0
-1.0,2.0,-1.0,-15.0,-77.0,1.0,-3.0,-1.0,1651094080675569.0
-10.0,-8.0,2.0,9.0,-65.0,-23.0,-10.0,-15.0,1651094080677468.0
1.0,3.0,10.0,37.0,-1.0,19.0,4.0,5.0,1651094080677468.0
3.0,-1.0,-3.0,21.0,55.0,-1.0,6.0,6.0,1651094080698766.0
-1.0,-1.0,-2.0,-24.0,-12.0,4.0,0.0,7.0,1651094080698766.0
-1.0,-3.0,-6.0,-29.0,-60.0,1.0,0.0,-4.0,1651094080699534.0
-4.0,-3.0,-4.0,-7.0,-51.0,-9.0,-5.0,-1.0,1651094080699534.0
2.0,1.0,-1.0,12.0,-9.0,-3.0,4.0,-2.0,1651094080713658.0
2.0,0.0,-7.0,-18.0,1.0,-17.0,4.0,7.0,1651094080713658.0
-6.0,-2.0,2.0,31.0,16.0,0.0,-9.0,-7.0,1651094080715495.0
6.0,0.0,4.0,1.0,108.0,21.0,5.0,6.0,1651094080715495.0
-2.0,-9.0,-9.0,-7.0,-79.0,-20.0,-5.0,-8.0,1651094080735951.0
-14.0,5.0,5.0,-2.0,80.0,19.0,0.0,-2.0,1651094080735951.0
-4.0,8.0,5.0,-18.0,-90.0,9.0,7.0,-8.0,1651094080736785.0
6.0,-3.0,-9.0,-2.0,23.0,-25.0,-5.0,25.0,1651094080736785.0
1.0,-3.0,-14.0,-7.0,-11.0,-22.0,10.0,13.0,1651094080758095.0
8.0,0.0,17.0,35.0,-49.0,31.0,4.0,-1.0,1651094080758095.0
-1.0,-6.0,-5.0,-20.0,-46.0,-18.0,-9.0,0.0,1651094080759961.0
-9.0,-10.0,-15.0,-32.0,-97.0,-29.0,-2.0,7.0,1651094080759961.0
1.0,-4.0,-3.0,3.0,28.0,13.0,0.0,-4.0,1651094080774125.0
-9.0,1.0,1.0,9.0,11.0,-42.0,2.0,-15.0,1651094080774125.0
1.0,9.0,12.0,5.0,0.0,25.0,5.0,-3.0,1651094080774125.0
-3.0,0.0,3.0,8.0,-11.0,31.0,-4.0,-15.0,1651094080774125.0
1.0,-5.0,-10.0,-27.0,-25.0,-35.0,-4.0,6.0,1651094080795886.0
1.0,-5.0,-3.0,18.0,87.0,5.0,-1.0,-2.0,1651094080795886.0
3.0,3.0,9.0,6.0,-28.0,4.0,3.0,-1.0,1651094080796757.0
-2.0,0.0,-2.0,-14.0,8.0,-1.0,5.0,-2.0,1651094080796757.0
-3.0,2.0,3.0,-18.0,-9.0,11.0,-1.0,-4.0,1651094080817772.0
1.0,-1.0,-5.0,4.0,14.0,-14.0,-3.0,5.0,1651094080817772.0
8.0,4.0,5.0,4.0,19.0,-14.0,3.0,4.0,1651094080819764.0
-6.0,-1.0,3.0,-48.0,-36.0,-1.0,-7.0,-4.0,1651094080819764.0
2.0,5.0,4.0,96.0,47.0,35.0,3.0,-4.0,1651094080832863.0
2.0,4.0,2.0,-3.0,-49.0,-7.0,1.0,0.0,1651094080832863.0
0.0,-6.0,-13.0,-18.0,74.0,-23.0,-4.0,2.0,1651094080840145.0
3.0,0.0,-2.0,13.0,-50.0,-2.0,6.0,2.0,1651094080840145.0
-3.0,-2.0,0.0,-33.0,16.0,6.0,-6.0,-8.0,1651094080856476.0
3.0,0.0,0.0,-20.0,-6.0,-26.0,-3.0,4.0,1651094080856476.0
5.0,4.0,7.0,38.0,76.0,17.0,6.0,7.0,1651094080857338.0
-6.0,5.0,-1.0,8.0,61.0,16.0,-2.0,-7.0,1651094080857338.0
1.0,2.0,8.0,-11.0,-35.0,-48.0,0.0,3.0,1651094080879509.0
-4.0,-8.0,-10.0,24.0,0.0,19.0,-2.0,-1.0,1651094080879509.0
-2.0,-7.0,-16.0,-48.0,-63.0,-12.0,-1.0,-5.0,1651094080880506.0
-1.0,-4.0,2.0,42.0,87.0,3.0,-8.0,0.0,1651094080880506.0
1.0,11.0,20.0,11.0,4.0,-2.0,7.0,6.0,1651094080893866.0
6.0,6.0,2.0,-34.0,-62.0,31.0,-6.0,2.0,1651094080893866.0
0.0,0.0,1.0,18.0,111.0,48.0,-3.0,-23.0,1651094080899855.0
-10.0,-7.0,-9.0,-12.0,-121.0,-29.0,-4.0,-10.0,1651094080899855.0
-4.0,-5.0,-9.0,-4.0,-2.0,105.0,0.0,2.0,1651094080916182.0
8.0,7.0,12.0,28.0,0.0,-19.0,0.0,6.0,1651094080916182.0
18.0,3.0,-3.0,-7.0,-14.0,46.0,6.0,12.0,1651094080917012.0
3.0,8.0,20.0,32.0,109.0,3.0,5.0,-1.0,1651094080917012.0
-2.0,-4.0,-11.0,-5.0,-106.0,-2.0,-4.0,-2.0,1651094080939296.0
-9.0,-12.0,-14.0,-15.0,2.0,-6.0,0.0,-6.0,1651094080939296.0
-11.0,-4.0,-9.0,4.0,-103.0,-19.0,-2.0,1.0,1651094080940330.0
4.0,2.0,-3.0,-30.0,-1.0,-9.0,1.0,-1.0,1651094080940330.0
-2.0,-5.0,1.0,-6.0,41.0,-37.0,-4.0,4.0,1651094080952415.0
0.0,2.0,12.0,35.0,113.0,58.0,7.0,0.0,1651094080952415.0
2.0,5.0,3.0,-50.0,-41.0,-62.0,0.0,7.0,1651094080959583.0
-5.0,-4.0,-2.0,43.0,-64.0,-7.0,-10.0,-5.0,1651094080959583.0
3.0,-4.0,-9.0,-4.0,-71.0,21.0,-4.0,-7.0,1651094080975860.0
-3.0,-1.0,-10.0,-20.0,-19.0,-27.0,-3.0,0.0,1651094080975860.0
-1.0,-2.0,4.0,-17.0,-45.0,-9.0,0.0,1.0,1651094080976705.0
0.0,0.0,-1.0,-25.0,47.0,-11.0,-3.0,-3.0,1651094080976705.0
6.0,1.0,2.0,38.0,59.0,-13.0,2.0,0.0,1651094080998972.0
-8.0,-8.0,-4.0,-20.0,-58.0,-6.0,-9.0,-12.0,1651094080998972.0
-4.0,-2.0,-1.0,13.0,18.0,-1.0,-5.0,4.0,1651094080999855.0
-2.0,-5.0,-4.0,-26.0,-120.0,-33.0,-2.0,-3.0,1651094080999855.0
5.0,10.0,9.0,5.0,89.0,54.0,-1.0,11.0,1651094081012837.0
1.0,0.0,6.0,-12.0,-32.0,-19.0,0.0,-6.0,1651094081012837.0
1.0,-1.0,-5.0,-29.0,43.0,-29.0,-7.0,0.0,1651094081027169.0
-3.0,-3.0,-17.0,59.0,23.0,63.0,6.0,0.0,1651094081027169.0
0.0,-2.0,8.0,-15.0,-75.0,-21.0,5.0,-3.0,1651094081036145.0
-3.0,-7.0,-8.0,-22.0,-4.0,9.0,-5.0,-2.0,1651094081036145.0
-17.0,-1.0,11.0,8.0,-30.0,-16.0,1.0,-3.0,1651094081036996.0
26.0,9.0,2.0,-43.0,14.0,30.0,3.0,15.0,1651094081036996.0
-6.0,-8.0,-9.0,72.0,-48.0,-27.0,-1.0,-5.0,1651094081058312.0
2.0,-1.0,-1.0,-15.0,-38.0,6.0,2.0,9.0,1651094081058312.0
-5.0,-7.0,-10.0,11.0,77.0,1.0,0.0,-9.0,1651094081059158.0
-5.0,11.0,20.0,11.0,89.0,6.0,12.0,7.0,1651094081059158.0
-1.0,0.0,-4.0,-25.0,-29.0,-17.0,-8.0,-5.0,1651094081073442.0
0.0,-3.0,-2.0,-3.0,-41.0,-39.0,-4.0,4.0,1651094081073442.0
-7.0,-2.0,-1.0,8.0,51.0,24.0,-3.0,-11.0,1651094081079279.0
8.0,0.0,3.0,-15.0,-24.0,12.0,-1.0,-1.0,1651094081079279.0
2.0,3.0,5.0,6.0,102.0,-7.0,5.0,-2.0,1651094081095320.0
-8.0,5.0,-3.0,26.0,-44.0,-18.0,-3.0,-3.0,1651094081095320.0
4.0,2.0,2.0,-11.0,74.0,0.0,6.0,11.0,1651094081097346.0
-5.0,0.0,-11.0,-31.0,-124.0,-7.0,-5.0,-7.0,1651094081097346.0
-5.0,-9.0,-4.0,32.0,27.0,17.0,0.0,-6.0,1651094081118488.0
0.0,-2.0,-3.0,-8.0,-15.0,23.0,11.0,8.0,1651094081118488.0
0.0,-1.0,-4.0,26.0,-96.0,-19.0,3.0,-3.0,1651094081119488.0
-1.0,-1.0,6.0,-69.0,-14.0,6.0,-5.0,1.0,1651094081119488.0
3.0,5.0,4.0,14.0,-32.0,-71.0,-4.0,-3.0,1651094081131609.0
-2.0,-3.0,-4.0,14.0,2.0,-2.0,-3.0,-2.0,1651094081131609.0
8.0,1.0,6.0,18.0,-61.0,12.0,5.0,6.0,1651094081148748.0
-7.0,-9.0,-13.0,-28.0,-85.0,-16.0,-8.0,-10.0,1651094081148748.0
-5.0,1.0,3.0,-20.0,58.0,15.0,-1.0,-2.0,1651094081155735.0
5.0,4.0,6.0,16.0,124.0,-26.0,2.0,-11.0,1651094081155735.0
0.0,-4.0,-6.0,-13.0,-118.0,-16.0,-6.0,3.0,1651094081157581.0
-11.0,-4.0,-3.0,0.0,-34.0,-6.0,-6.0,-8.0,1651094081157581.0
9.0,13.0,17.0,59.0,74.0,43.0,23.0,11.0,1651094081177853.0
3.0,0.0,-4.0,-11.0,-100.0,-22.0,-1.0,-7.0,1651094081177853.0
2.0,-1.0,-4.0,-33.0,67.0,40.0,2.0,2.0,1651094081179879.0
-6.0,-6.0,-7.0,54.0,-57.0,-21.0,-5.0,1.0,1651094081179879.0
-5.0,-8.0,-28.0,-68.0,-47.0,-9.0,-6.0,-7.0,1651094081191849.0
7.0,-2.0,-3.0,1.0,38.0,-20.0,2.0,16.0,1651094081191849.0
4.0,13.0,24.0,-15.0,38.0,60.0,13.0,-3.0,1651094081200794.0
-4.0,-4.0,4.0,42.0,97.0,6.0,-2.0,-8.0,1651094081200794.0
-15.0,-1.0,5.0,-21.0,-35.0,-4.0,-4.0,6.0,1651094081215963.0
18.0,-3.0,-1.0,-6.0,-13.0,-4.0,-6.0,10.0,1651094081215963.0
-8.0,2.0,-2.0,-5.0,-45.0,12.0,-15.0,-12.0,1651094081216801.0
7.0,5.0,12.0,56.0,48.0,1.0,12.0,10.0,1651094081216801.0
-4.0,-5.0,-7.0,-25.0,-3.0,13.0,-4.0,1.0,1651094081239027.0
-14.0,-5.0,-9.0,-25.0,29.0,-5.0,-14.0,-25.0,1651094081239027.0
6.0,4.0,-5.0,4.0,18.0,-49.0,2.0,5.0,1651094081239264.0
0.0,2.0,8.0,-4.0,-8.0,51.0,8.0,9.0,1651094081239264.0
4.0,-3.0,-6.0,-8.0,-94.0,-59.0,-6.0,0.0,1651094081251816.0
-4.0,2.0,8.0,16.0,-41.0,33.0,1.0,2.0,1651094081251816.0
5.0,-6.0,-8.0,22.0,-16.0,-7.0,-1.0,3.0,1651094081260759.0
-4.0,0.0,0.0,-31.0,4.0,-33.0,-1.0,0.0,1651094081260759.0
-9.0,-6.0,-4.0,-34.0,57.0,19.0,1.0,-15.0,1651094081276123.0
9.0,5.0,3.0,26.0,40.0,-3.0,-1.0,-3.0,1651094081276123.0
2.0,2.0,6.0,20.0,18.0,-4.0,-1.0,-12.0,1651094081276971.0
10.0,4.0,1.0,32.0,78.0,39.0,4.0,25.0,1651094081276971.0
2.0,-2.0,2.0,-32.0,-128.0,4.0,3.0,-7.0,1651094081298478.0
0.0,-3.0,-3.0,-36.0,-42.0,47.0,8.0,15.0,1651094081298478.0
2.0,1.0,-7.0,31.0,-60.0,-22.0,-3.0,-3.0,1651094081299476.0
-3.0,0.0,-1.0,-17.0,15.0,-3.0,0.0,-9.0,1651094081299476.0
-4.0,-3.0,-9.0,0.0,-12.0,-20.0,-7.0,-5.0,1651094081311453.0
-15.0,2.0,14.0,22.0,34.0,12.0,0.0,1.0,1651094081311453.0
-23.0,-14.0,-21.0,-51.0,-82.0,-10.0,-11.0,-18.0,1651094081328399.0
21.0,3.0,14.0,18.0,23.0,-14.0,9.0,15.0,1651094081328399.0
11.0,5.0,10.0,22.0,42.0,14.0,2.0,11.0,1651094081343724.0
-5.0,1.0,-11.0,-12.0,-76.0,23.0,3.0,3.0,1651094081343724.0
4.0,-4.0,-5.0,10.0,17.0,-10.0,2.0,13.0,1651094081344581.0
-9.0,0.0,-9.0,-26.0,-94.0,5.0,0.0,-10.0,1651094081344581.0
-2.0,-2.0,0.0,-11.0,-41.0,-3.0,-3.0,4.0,1651094081358109.0
7.0,3.0,9.0,7.0,127.0,3.0,-9.0,0.0,1651094081358109.0
-10.0,-4.0,3.0,10.0,-47.0,-25.0,-6.0,-15.0,1651094081364251.0
-1.0,2.0,7.0,23.0,56.0,38.0,13.0,18.0,1651094081364251.0
9.0,2.0,-1.0,-9.0,28.0,-22.0,3.0,10.0,1651094081372074.0
-9.0,-7.0,-5.0,-30.0,-44.0,36.0,-15.0,-13.0,1651094081372074.0
-22.0,1.0,-7.0,-2.0,-64.0,43.0,12.0,5.0,1651094081387433.0
8.0,-5.0,6.0,46.0,-19.0,2.0,-13.0,-22.0,1651094081387433.0
2.0,-10.0,-3.0,-16.0,-90.0,-10.0,-5.0,4.0,1651094081395496.0
23.0,12.0,0.0,31.0,84.0,14.0,20.0,10.0,1651094081395496.0
12.0,5.0,13.0,-11.0,58.0,6.0,1.0,12.0,1651094081397533.0
-9.0,-4.0,-3.0,-22.0,-59.0,-38.0,-1.0,0.0,1651094081397533.0
-8.0,2.0,-8.0,-33.0,-21.0,18.0,-3.0,-9.0,1651094081418460.0
-13.0,-12.0,-11.0,42.0,56.0,-9.0,4.0,-8.0,1651094081418460.0
0.0,-2.0,-2.0,-37.0,-32.0,19.0,-11.0,-1.0,1651094081419459.0
-10.0,-8.0,-12.0,-42.0,56.0,-21.0,-9.0,-18.0,1651094081419459.0
6.0,6.0,8.0,56.0,-63.0,24.0,3.0,5.0,1651094081432548.0
-4.0,6.0,13.0,-54.0,-95.0,-17.0,3.0,-1.0,1651094081432548.0
4.0,2.0,-5.0,31.0,-18.0,8.0,2.0,3.0,1651094081441040.0
-12.0,-5.0,-5.0,1.0,-44.0,-43.0,-14.0,-12.0,1651094081441040.0
2.0,3.0,2.0,-20.0,46.0,-2.0,3.0,3.0,1651094081456283.0
-3.0,-3.0,-2.0,-7.0,3.0,12.0,2.0,12.0,1651094081456283.0
3.0,-4.0,6.0,-1.0,-10.0,-31.0,8.0,-37.0,1651094081457117.0
-16.0,7.0,4.0,13.0,-23.0,10.0,4.0,22.0,1651094081457117.0
23.0,-14.0,-11.0,-1.0,-20.0,-40.0,-7.0,-14.0,1651094081478395.0
-14.0,7.0,5.0,16.0,-61.0,-14.0,10.0,-14.0,1651094081478395.0
-14.0,3.0,11.0,6.0,44.0,-16.0,-1.0,3.0,1651094081479390.0
28.0,-3.0,-15.0,-22.0,-41.0,-3.0,3.0,15.0,1651094081479390.0
-8.0,-2.0,-1.0,11.0,-15.0,16.0,-2.0,-4.0,1651094081492227.0
12.0,3.0,-10.0,-20.0,-67.0,-4.0,-3.0,4.0,1651094081492227.0
-3.0,-7.0,5.0,6.0,57.0,20.0,2.0,0.0,1651094081501285.0
-8.0,-2.0,-5.0,23.0,32.0,-45.0,0.0,-4.0,1651094081501285.0
-1.0,5.0,6.0,15.0,-43.0,14.0,1.0,6.0,1651094081515893.0
5.0,1.0,1.0,-32.0,31.0,-15.0,-4.0,-4.0,1651094081515893.0
-3.0,0.0,-4.0,1.0,-63.0,16.0,2.0,10.0,1651094081516744.0
1.0,-2.0,-2.0,48.0,51.0,25.0,-2.0,-5.0,1651094081516744.0
1.0,-6.0,-11.0,-16.0,-29.0,-26.0,-4.0,-3.0,1651094081538480.0
-7.0,4.0,9.0,14.0,50.0,10.0,4.0,8.0,1651094081538480.0
4.0,3.0,6.0,-20.0,-52.0,18.0,-8.0,2.0,1651094081539480.0
1.0,-2.0,1.0,-7.0,-46.0,-14.0,3.0,-1.0,1651094081539480.0
-2.0,-3.0,0.0,1.0,36.0,8.0,4.0,-30.0,1651094081552584.0
3.0,1.0,-4.0,-17.0,-13.0,6.0,-7.0,4.0,1651094081552584.0
10.0,2.0,-2.0,14.0,18.0,-5.0,-2.0,32.0,1651094081560778.0
-6.0,-4.0,-1.0,-23.0,-26.0,-4.0,-6.0,-17.0,1651094081560778.0
-16.0,8.0,1.0,-2.0,4.0,13.0,0.0,3.0,1651094081583619.0
1.0,-7.0,-4.0,5.0,11.0,-32.0,-9.0,-17.0,1651094081583619.0
-21.0,4.0,6.0,27.0,-9.0,21.0,15.0,7.0,1651094081584579.0
24.0,-1.0,-6.0,-22.0,-44.0,-37.0,0.0,-2.0,1651094081584579.0
9.0,5.0,3.0,11.0,68.0,51.0,6.0,10.0,1651094081598706.0
3.0,-5.0,-2.0,0.0,-56.0,-17.0,-3.0,-3.0,1651094081598706.0
-15.0,-8.0,-7.0,7.0,69.0,-8.0,-4.0,-3.0,1651094081599563.0
-14.0,-3.0,-8.0,-31.0,-104.0,34.0,-5.0,-7.0,1651094081599563.0
1.0,9.0,20.0,22.0,98.0,57.0,11.0,11.0,1651094081620833.0
-2.0,1.0,-5.0,15.0,-84.0,-23.0,-3.0,-2.0,1651094081620833.0
14.0,3.0,8.0,4.0,-5.0,-14.0,2.0,-2.0,1651094081621731.0
-3.0,1.0,-1.0,-7.0,-14.0,12.0,1.0,7.0,1651094081621731.0
-1.0,-3.0,-9.0,-16.0,-60.0,-27.0,-8.0,-11.0,1651094081643925.0
0.0,-6.0,-6.0,0.0,15.0,6.0,1.0,1.0,1651094081643925.0
12.0,-4.0,7.0,11.0,63.0,7.0,2.0,11.0,1651094081644929.0
4.0,2.0,4.0,-6.0,-1.0,-6.0,-2.0,2.0,1651094081644929.0
-21.0,4.0,1.0,-5.0,0.0,1.0,-8.0,-12.0,1651094081666209.0
-9.0,-3.0,1.0,-4.0,17.0,13.0,2.0,-1.0,1651094081666209.0
11.0,2.0,-6.0,-3.0,-27.0,13.0,-8.0,-4.0,1651094081667138.0
8.0,3.0,4.0,5.0,51.0,8.0,3.0,-4.0,1651094081667138.0
-17.0,-5.0,0.0,3.0,7.0,-14.0,-2.0,6.0,1651094081681262.0
6.0,-3.0,-2.0,-1.0,-7.0,0.0,-2.0,-7.0,1651094081681262.0
9.0,2.0,-1.0,-4.0,-7.0,5.0,-1.0,-5.0,1651094081682140.0
-6.0,2.0,-1.0,7.0,29.0,-9.0,-4.0,3.0,1651094081682140.0
5.0,-7.0,4.0,-2.0,-18.0,8.0,3.0,5.0,1651094081695256.0
-3.0,0.0,-5.0,-2.0,-9.0,-5.0,-2.0,2.0,1651094081695256.0
-3.0,2.0,-4.0,2.0,30.0,-8.0,-2.0,-7.0,1651094081697282.0
-5.0,1.0,1.0,0.0,51.0,6.0,3.0,-5.0,1651094081697282.0
7.0,0.0,-5.0,-5.0,62.0,-17.0,-6.0,5.0,1651094081718193.0
-5.0,-3.0,5.0,4.0,2.0,2.0,1.0,-2.0,1651094081718193.0
9.0,0.0,0.0,0.0,-17.0,-7.0,2.0,-3.0,1651094081719190.0
-6.0,2.0,4.0,-2.0,-47.0,2.0,-3.0,-6.0,1651094081719190.0
1.0,-1.0,0.0,-2.0,-29.0,-4.0,1.0,5.0,1651094081740956.0
-1.0,2.0,3.0,5.0,2.0,-8.0,3.0,3.0,1651094081740956.0
-5.0,-3.0,-5.0,1.0,10.0,-17.0,-4.0,-14.0,1651094081741955.0
1.0,-2.0,0.0,1.0,32.0,9.0,1.0,21.0,1651094081741955.0
1.0,0.0,-1.0,0.0,-38.0,-3.0,4.0,-4.0,1651094081755273.0
3.0,-4.0,-7.0,-3.0,19.0,2.0,3.0,12.0,1651094081755273.0
-1.0,3.0,7.0,5.0,3.0,-10.0,-1.0,1.0,1651094081762150.0
-4.0,-5.0,-11.0,-2.0,3.0,1.0,-2.0,-10.0,1651094081762150.0
0.0,3.0,5.0,-6.0,3.0,-9.0,-1.0,2.0,1651094081778268.0
-3.0,-1.0,-9.0,3.0,-3.0,-1.0,1.0,0.0,1651094081778268.0
3.0,0.0,6.0,-2.0,15.0,4.0,0.0,0.0,1651094081780289.0
-1.0,0.0,-1.0,-2.0,-9.0,0.0,-2.0,-3.0,1651094081780289.0
2.0,-4.0,-7.0,0.0,9.0,-3.0,0.0,0.0,1651094081802551.0
0.0,1.0,4.0,-2.0,-7.0,6.0,1.0,-5.0,1651094081802551.0
0.0,0.0,-3.0,2.0,4.0,-6.0,-1.0,3.0,1651094081803406.0
-2.0,-2.0,0.0,-3.0,10.0,21.0,0.0,-5.0,1651094081803406.0
1.0,-4.0,-4.0,-2.0,-25.0,-11.0,0.0,3.0,1651094081815492.0
-2.0,0.0,2.0,-6.0,-5.0,1.0,0.0,0.0,1651094081815492.0
1.0,0.0,-5.0,1.0,20.0,3.0,1.0,5.0,1651094081822141.0
3.0,1.0,8.0,5.0,34.0,6.0,1.0,14.0,1651094081822141.0
0.0,-4.0,-13.0,-11.0,-2.0,-2.0,-1.0,-2.0,1651094081838667.0
1.0,6.0,10.0,5.0,-51.0,-3.0,-2.0,1.0,1651094081838667.0
1.0,-4.0,-3.0,2.0,-7.0,7.0,2.0,-2.0,1651094081839667.0
-3.0,-1.0,-1.0,-1.0,6.0,-10.0,-5.0,-8.0,1651094081839667.0
0.0,2.0,2.0,1.0,-12.0,6.0,1.0,2.0,1651094081860265.0
1.0,-2.0,0.0,-6.0,-19.0,-3.0,-4.0,-3.0,1651094081860265.0
0.0,-3.0,-5.0,-3.0,-20.0,0.0,-3.0,-4.0,1651094081862264.0
-1.0,-1.0,1.0,-2.0,-14.0,-10.0,0.0,-6.0,1651094081862264.0
1.0,-1.0,-1.0,1.0,20.0,-4.0,-4.0,-1.0,1651094081891563.0
-2.0,1.0,0.0,1.0,-5.0,-2.0,0.0,0.0,1651094081891563.0
0.0,1.0,5.0,2.0,9.0,2.0,2.0,1.0,1651094081892514.0
-1.0,-1.0,-2.0,2.0,-1.0,2.0,2.0,-3.0,1651094081892514.0
0.0,0.0,-4.0,-3.0,-5.0,-13.0,1.0,2.0,1651094081905734.0
-3.0,-5.0,-4.0,-7.0,15.0,19.0,-1.0,-1.0,1651094081905734.0
-1.0,-2.0,-6.0,3.0,12.0,-2.0,-1.0,-1.0,1651094081911621.0
-1.0,-2.0,-4.0,1.0,-82.0,-6.0,0.0,-2.0,1651094081911621.0
-2.0,1.0,6.0,-6.0,41.0,12.0,0.0,1.0,1651094081920874.0
-1.0,3.0,11.0,9.0,43.0,2.0,0.0,-3.0,1651094081920874.0
-1.0,-2.0,-7.0,-5.0,-2.0,-25.0,-4.0,-1.0,1651094081921747.0
-3.0,-2.0,-4.0,-7.0,-11.0,31.0,-1.0,-4.0,1651094081921747.0
-1.0,-1.0,-6.0,8.0,-11.0,-1.0,1.0,1.0,1651094081943998.0
-2.0,-2.0,-3.0,-7.0,-8.0,-4.0,1.0,-1.0,1651094081943998.0
-2.0,0.0,0.0,3.0,-14.0,-1.0,0.0,-1.0,1651094081944999.0
2.0,0.0,3.0,9.0,11.0,-13.0,-1.0,-1.0,1651094081944999.0
0.0,-1.0,1.0,2.0,-18.0,18.0,1.0,1.0,1651094081959121.0
0.0,1.0,0.0,-6.0,8.0,5.0,2.0,0.0,1651094081959121.0
-2.0,2.0,-1.0,-3.0,-20.0,-3.0,-3.0,-3.0,1651094081959121.0
0.0,2.0,0.0,-5.0,4.0,-8.0,0.0,-1.0,1651094081959121.0
-1.0,-2.0,0.0,-2.0,3.0,4.0,-3.0,-3.0,1651094081981427.0
2.0,1.0,2.0,6.0,11.0,-9.0,3.0,0.0,1651094081981427.0
0.0,-2.0,-6.0,-2.0,-4.0,4.0,0.0,0.0,1651094081982271.0
-2.0,-1.0,0.0,-7.0,20.0,-8.0,0.0,-1.0,1651094081982271.0
-1.0,-1.0,-4.0,1.0,3.0,-2.0,-2.0,-1.0,1651094081995237.0
-1.0,1.0,4.0,3.0,4.0,2.0,-1.0,1.0,1651094081995237.0
0.0,-1.0,2.0,-1.0,6.0,-5.0,0.0,0.0,1651094082001746.0
0.0,-2.0,0.0,-2.0,3.0,4.0,-1.0,-2.0,1651094082001746.0
1.0,-2.0,-2.0,-3.0,-30.0,-19.0,3.0,3.0,1651094082018565.0
0.0,-1.0,-2.0,0.0,4.0,0.0,-3.0,-1.0,1651094082018565.0
0.0,1.0,2.0,-3.0,12.0,-13.0,-2.0,1.0,1651094082019563.0
0.0,2.0,-1.0,2.0,16.0,31.0,1.0,1.0,1651094082019563.0
-1.0,-3.0,-5.0,-1.0,-50.0,-10.0,-1.0,-1.0,1651094082041352.0
0.0,2.0,12.0,-1.0,-14.0,3.0,-1.0,1.0,1651094082041352.0
1.0,3.0,6.0,-2.0,7.0,-6.0,0.0,1.0,1651094082041835.0
0.0,-1.0,-4.0,-3.0,-2.0,-11.0,0.0,-1.0,1651094082041835.0
0.0,-1.0,-2.0,0.0,6.0,0.0,-1.0,-1.0,1651094082055186.0
0.0,-3.0,-11.0,2.0,26.0,0.0,0.0,0.0,1651094082055186.0
-1.0,-3.0,-3.0,-5.0,-25.0,5.0,-1.0,-2.0,1651094082062039.0
0.0,1.0,3.0,0.0,14.0,-11.0,-2.0,-1.0,1651094082062039.0
0.0,-1.0,-1.0,3.0,22.0,4.0,-1.0,2.0,1651094082078368.0
0.0,-1.0,-4.0,0.0,-9.0,-9.0,-2.0,0.0,1651094082078368.0
0.0,-1.0,-1.0,-1.0,17.0,4.0,1.0,-1.0,1651094082079364.0
-1.0,-1.0,-2.0,-3.0,-29.0,-12.0,-2.0,-1.0,1651094082079364.0
0.0,1.0,4.0,-1.0,0.0,-3.0,-2.0,0.0,1651094082100652.0
-1.0,-2.0,-3.0,-4.0,6.0,-4.0,2.0,-1.0,1651094082100652.0
0.0,2.0,-1.0,5.0,-2.0,0.0,-1.0,0.0,1651094082102534.0
-1.0,-3.0,-1.0,0.0,-2.0,29.0,3.0,0.0,1651094082102534.0
0.0,1.0,2.0,0.0,5.0,-8.0,-2.0,-2.0,1651094082114671.0
0.0,-1.0,-1.0,0.0,-32.0,4.0,-1.0,-2.0,1651094082114671.0
0.0,-2.0,-7.0,-3.0,15.0,10.0,0.0,-1.0,1651094082123661.0
1.0,6.0,4.0,3.0,15.0,-13.0,1.0,2.0,1651094082123661.0
-1.0,-2.0,2.0,2.0,45.0,-3.0,0.0,1.0,1651094082138535.0
-3.0,-4.0,-6.0,-1.0,-5.0,-7.0,-2.0,-1.0,1651094082138535.0
0.0,-1.0,-1.0,-3.0,-8.0,13.0,1.0,1.0,1651094082139535.0
1.0,-1.0,1.0,0.0,12.0,-5.0,-2.0,-2.0,1651094082139535.0
0.0,0.0,-1.0,-1.0,-10.0,7.0,1.0,1.0,1651094082160969.0
1.0,2.0,0.0,0.0,-3.0,-15.0,-1.0,-1.0,1651094082160969.0
-1.0,-4.0,-1.0,0.0,3.0,-5.0,0.0,-1.0,1651094082161861.0
-3.0,-3.0,-3.0,-4.0,-23.0,-4.0,-1.0,-1.0,1651094082161861.0
-1.0,1.0,-2.0,-4.0,0.0,-8.0,-3.0,-2.0,1651094082174046.0
-1.0,-2.0,-1.0,3.0,3.0,22.0,0.0,-1.0,1651094082174046.0
0.0,0.0,0.0,1.0,1.0,4.0,0.0,0.0,1651094082183024.0
-1.0,-2.0,0.0,-3.0,-3.0,-10.0,-3.0,-2.0,1651094082183024.0
-2.0,-2.0,0.0,0.0,-9.0,-7.0,0.0,-1.0,1651094082198360.0
-1.0,1.0,-1.0,-2.0,12.0,6.0,2.0,0.0,1651094082198360.0
-1.0,1.0,0.0,0.0,-2.0,-3.0,0.0,1.0,1651094082199231.0
-1.0,-1.0,-1.0,0.0,-17.0,-11.0,-3.0,0.0,1651094082199231.0
-2.0,0.0,-1.0,-5.0,-8.0,6.0,-2.0,0.0,1651094082221734.0
-1.0,0.0,-4.0,5.0,28.0,2.0,0.0,1.0,1651094082221734.0
-1.0,-2.0,6.0,0.0,-8.0,21.0,3.0,2.0,1651094082222568.0
-1.0,0.0,-1.0,1.0,0.0,-2.0,0.0,0.0,1651094082222568.0
0.0,0.0,0.0,-1.0,-2.0,2.0,-1.0,-1.0,1651094082233892.0
-1.0,-2.0,-1.0,-1.0,-26.0,-9.0,-2.0,-1.0,1651094082233892.0
-2.0,-3.0,-4.0,0.0,-5.0,-1.0,0.0,0.0,1651094082243061.0
0.0,0.0,-1.0,1.0,17.0,0.0,0.0,1.0,1651094082243061.0
0.0,0.0,0.0,-2.0,-7.0,-2.0,0.0,-1.0,1651094082258387.0
2.0,-1.0,-2.0,-1.0,-10.0,2.0,-1.0,-1.0,1651094082258387.0
-1.0,-1.0,-2.0,-3.0,15.0,-9.0,-1.0,-1.0,1651094082259241.0
0.0,-2.0,0.0,1.0,5.0,-5.0,-2.0,-2.0,1651094082259241.0
1.0,0.0,-2.0,1.0,-9.0,-1.0,0.0,0.0,1651094082281634.0
0.0,-3.0,-2.0,-2.0,-25.0,-13.0,-3.0,1.0,1651094082281634.0
1.0,0.0,1.0,4.0,0.0,-3.0,1.0,-1.0,1651094082282354.0
0.0,-3.0,-3.0,-5.0,1.0,1.0,-1.0,0.0,1651094082282354.0
-1.0,-1.0,-2.0,1.0,12.0,1.0,0.0,0.0,1651094082294540.0
-2.0,0.0,1.0,-1.0,10.0,0.0,-1.0,0.0,1651094082294540.0
0.0,-1.0,-2.0,-1.0,-46.0,6.0,1.0,-3.0,1651094082303721.0
0.0,1.0,3.0,3.0,3.0,11.0,1.0,1.0,1651094082303721.0
0.0,1.0,-4.0,-2.0,-10.0,-3.0,-1.0,-1.0,1651094082317877.0
0.0,0.0,-1.0,-2.0,9.0,-3.0,-1.0,0.0,1651094082317877.0
-1.0,-1.0,-2.0,-1.0,22.0,10.0,-1.0,0.0,1651094082319905.0
0.0,-2.0,-2.0,-5.0,-39.0,-16.0,-2.0,-2.0,1651094082319905.0
0.0,0.0,2.0,1.0,36.0,3.0,1.0,-1.0,1651094082341735.0
-1.0,1.0,-1.0,0.0,1.0,-3.0,-1.0,-1.0,1651094082341735.0
0.0,-1.0,-2.0,-2.0,16.0,1.0,-2.0,-1.0,1651094082341735.0
0.0,2.0,-3.0,0.0,-11.0,0.0,0.0,-1.0,1651094082341735.0
-2.0,-2.0,0.0,2.0,6.0,0.0,0.0,1.0,1651094082355038.0
0.0,-1.0,0.0,0.0,-26.0,1.0,2.0,0.0,1651094082355038.0
-1.0,-2.0,-5.0,-2.0,-17.0,-12.0,-1.0,-1.0,1651094082363842.0
-1.0,0.0,-1.0,-4.0,53.0,-3.0,0.0,-2.0,1651094082363842.0
3.0,1.0,2.0,0.0,-54.0,17.0,1.0,0.0,1651094082377862.0
2.0,1.0,2.0,5.0,54.0,3.0,0.0,-1.0,1651094082377862.0
0.0,-3.0,-4.0,0.0,-31.0,-6.0,-2.0,0.0,1651094082379857.0
0.0,-1.0,0.0,1.0,5.0,3.0,-2.0,-1.0,1651094082379857.0
-2.0,-1.0,2.0,-2.0,-1.0,-6.0,-3.0,-1.0,1651094082400192.0
0.0,-1.0,-2.0,-2.0,-28.0,6.0,0.0,0.0,1651094082400192.0
1.0,0.0,4.0,-2.0,0.0,-3.0,0.0,1.0,1651094082408173.0
0.0,-2.0,-2.0,-1.0,0.0,-3.0,-1.0,-1.0,1651094082408173.0
-1.0,-1.0,-3.0,0.0,12.0,16.0,2.0,-1.0,1651094082414320.0
-2.0,-1.0,-1.0,-3.0,-6.0,-10.0,-2.0,1.0,1651094082414320.0
-2.0,-1.0,-1.0,-1.0,-1.0,-13.0,-1.0,0.0,1651094082423456.0
1.0,0.0,2.0,2.0,23.0,28.0,3.0,2.0,1651094082423456.0
0.0,0.0,-2.0,0.0,-5.0,-3.0,1.0,1.0,1651094082438792.0
-1.0,0.0,-3.0,0.0,-10.0,-5.0,-1.0,-1.0,1651094082438792.0
-1.0,0.0,-3.0,-1.0,3.0,7.0,0.0,-3.0,1651094082439597.0
-2.0,-2.0,0.0,-3.0,-27.0,-20.0,-2.0,-2.0,1651094082439597.0
0.0,1.0,-2.0,2.0,7.0,-9.0,-2.0,-1.0,1651094082460304.0
-2.0,-3.0,-4.0,-9.0,22.0,1.0,-3.0,-2.0,1651094082460304.0
-1.0,0.0,-3.0,5.0,-3.0,-2.0,0.0,0.0,1651094082462335.0
-2.0,-2.0,-5.0,1.0,-5.0,3.0,0.0,-1.0,1651094082462335.0
1.0,1.0,6.0,-1.0,26.0,-9.0,-2.0,-1.0,1651094082474366.0
0.0,1.0,2.0,0.0,-52.0,7.0,1.0,-3.0,1651094082474366.0
0.0,0.0,-1.0,-5.0,16.0,-6.0,-1.0,1.0,1651094082483646.0
-1.0,0.0,-1.0,-2.0,-40.0,-7.0,0.0,1.0,1651094082483646.0
0.0,-2.0,-2.0,1.0,26.0,-2.0,-1.0,-2.0,1651094082505115.0
-1.0,-2.0,-1.0,1.0,11.0,2.0,0.0,-2.0,1651094082505115.0
-1.0,0.0,2.0,1.0,3.0,1.0,0.0,-1.0,1651094082506967.0
-1.0,1.0,-1.0,1.0,-10.0,-7.0,1.0,1.0,1651094082506967.0
-3.0,-3.0,-2.0,-4.0,-8.0,12.0,0.0,-1.0,1651094082520397.0
1.0,1.0,0.0,2.0,17.0,11.0,-2.0,1.0,1651094082520397.0
-2.0,0.0,0.0,1.0,5.0,0.0,0.0,0.0,1651094082522393.0
1.0,1.0,0.0,-1.0,5.0,-10.0,-1.0,0.0,1651094082522393.0
-1.0,0.0,-2.0,-1.0,-22.0,-15.0,-2.0,-2.0,1651094082543641.0
-2.0,-1.0,0.0,-1.0,5.0,11.0,1.0,-1.0,1651094082543641.0
0.0,0.0,0.0,-1.0,-2.0,-5.0,0.0,0.0,1651094082544725.0
-2.0,-1.0,0.0,-1.0,-31.0,3.0,-2.0,0.0,1651094082544725.0
2.0,-2.0,0.0,2.0,52.0,0.0,0.0,-1.0,1651094082558077.0
0.0,-2.0,-3.0,-9.0,-28.0,-23.0,-2.0,0.0,1651094082558077.0
-1.0,-2.0,-6.0,-2.0,9.0,25.0,-2.0,-2.0,1651094082558077.0
3.0,3.0,7.0,8.0,-2.0,-7.0,4.0,2.0,1651094082558077.0
-2.0,1.0,-1.0,-2.0,-16.0,3.0,-2.0,-2.0,1651094082580396.0
-2.0,0.0,-2.0,0.0,19.0,-6.0,-1.0,-1.0,1651094082580396.0
-1.0,-2.0,0.0,-5.0,-8.0,-19.0,-2.0,-1.0,1651094082580396.0
0.0,-1.0,-3.0,0.0,14.0,31.0,1.0,0.0,1651094082580396.0
-2.0,-1.0,1.0,-5.0,-4.0,-7.0,0.0,0.0,1651094082602833.0
0.0,0.0,0.0,7.0,8.0,3.0,0.0,0.0,1651094082602833.0
0.0,-1.0,-4.0,0.0,-9.0,-3.0,-1.0,-1.0,1651094082602833.0
0.0,0.0,0.0,2.0,25.0,1.0,0.0,0.0,1651094082602833.0
-2.0,-1.0,-3.0,-3.0,-10.0,-2.0,1.0,0.0,1651094082618196.0
-3.0,-1.0,-3.0,-5.0,-10.0,6.0,0.0,0.0,1651094082618196.0
-1.0,2.0,2.0,0.0,13.0,-3.0,0.0,-2.0,1651094082618885.0
-1.0,0.0,0.0,2.0,0.0,-1.0,-2.0,0.0,1651094082618885.0
1.0,-2.0,-2.0,-2.0,-26.0,1.0,-1.0,1.0,1651094082639980.0
0.0,-1.0,2.0,0.0,-11.0,1.0,-1.0,-2.0,1651094082639980.0
0.0,0.0,2.0,1.0,7.0,3.0,0.0,1.0,1651094082640842.0
-1.0,-4.0,-3.0,-2.0,-28.0,1.0,-2.0,-1.0,1651094082640842.0
-1.0,1.0,4.0,-2.0,5.0,0.0,-1.0,1.0,1651094082662654.0
1.0,1.0,0.0,-1.0,-10.0,-4.0,-1.0,0.0,1651094082662654.0
-1.0,0.0,0.0,3.0,13.0,2.0,-1.0,0.0,1651094082662654.0
-1.0,0.0,-3.0,-4.0,17.0,9.0,2.0,-1.0,1651094082662654.0
-1.0,-1.0,-3.0,3.0,-28.0,-5.0,-1.0,0.0,1651094082676973.0
0.0,1.0,2.0,1.0,32.0,12.0,1.0,1.0,1651094082676973.0
1.0,2.0,3.0,2.0,-10.0,-5.0,1.0,-1.0,1651094082684925.0
-1.0,-1.0,-2.0,-2.0,11.0,-6.0,-1.0,-2.0,1651094082684925.0
0.0,-1.0,-2.0,-5.0,-16.0,-3.0,-1.0,-2.0,1651094082700337.0
1.0,0.0,-3.0,0.0,18.0,-5.0,0.0,-1.0,1651094082700337.0
-2.0,-2.0,-2.0,1.0,18.0,0.0,-2.0,-1.0,1651094082700337.0
-1.0,0.0,-1.0,-2.0,-18.0,-6.0,-2.0,-3.0,1651094082700337.0
0.0,1.0,1.0,1.0,11.0,0.0,1.0,0.0,1651094082723364.0
-1.0,-1.0,-3.0,-2.0,-13.0,-12.0,-1.0,-1.0,1651094082723364.0
0.0,-3.0,-2.0,1.0,-8.0,3.0,1.0,1.0,1651094082723364.0
0.0,3.0,10.0,-1.0,0.0,-2.0,0.0,0.0,1651094082723364.0
-2.0,-1.0,-2.0,-1.0,16.0,-1.0,-3.0,-3.0,1651094082737358.0
0.0,0.0,-4.0,-1.0,2.0,8.0,0.0,1.0,1651094082737358.0
-1.0,-3.0,-4.0,-5.0,-32.0,-8.0,-3.0,-2.0,1651094082745233.0
-1.0,-1.0,-3.0,0.0,13.0,-10.0,-3.0,-2.0,1651094082745233.0
0.0,2.0,1.0,4.0,3.0,2.0,1.0,2.0,1651094082760668.0
-1.0,-1.0,3.0,1.0,-24.0,-15.0,-1.0,0.0,1651094082760668.0
1.0,1.0,1.0,3.0,32.0,21.0,1.0,2.0,1651094082760668.0
-2.0,-1.0,-5.0,-5.0,-9.0,3.0,-2.0,-1.0,1651094082760668.0
0.0,-2.0,0.0,0.0,-3.0,15.0,1.0,0.0,1651094082783070.0
-1.0,-3.0,-2.0,-3.0,-5.0,2.0,0.0,0.0,1651094082783070.0
-1.0,0.0,1.0,-2.0,-12.0,-3.0,0.0,0.0,1651094082783209.0
0.0,0.0,0.0,0.0,29.0,-2.0,0.0,0.0,1651094082783209.0
-1.0,1.0,-2.0,2.0,-31.0,-2.0,-1.0,-1.0,1651094082797276.0
-1.0,-1.0,0.0,-2.0,2.0,-5.0,-1.0,-1.0,1651094082797276.0
-1.0,-1.0,-1.0,-4.0,1.0,-9.0,-1.0,-2.0,1651094082812528.0
1.0,-1.0,-2.0,-2.0,2.0,11.0,-1.0,-2.0,1651094082812528.0
0.0,-2.0,-3.0,-2.0,-10.0,-14.0,-3.0,0.0,1651094082820517.0
0.0,-3.0,-4.0,2.0,16.0,6.0,0.0,-1.0,1651094082820517.0
0.0,2.0,5.0,-4.0,-17.0,-13.0,0.0,0.0,1651094082820517.0
-1.0,-4.0,-4.0,-3.0,-10.0,-2.0,-1.0,-2.0,1651094082820517.0
1.0,0.0,2.0,4.0,16.0,10.0,2.0,0.0,1651094082842633.0
-2.0,-1.0,-1.0,3.0,-3.0,-2.0,-1.0,-2.0,1651094082842633.0
-1.0,0.0,-1.0,4.0,5.0,11.0,-1.0,0.0,1651094082842633.0
0.0,-2.0,-1.0,-4.0,-23.0,1.0,3.0,0.0,1651094082842633.0
0.0,-1.0,-1.0,-3.0,2.0,-8.0,0.0,-1.0,1651094082857726.0
0.0,3.0,2.0,1.0,-3.0,1.0,-2.0,-1.0,1651094082857726.0
-1.0,0.0,-1.0,-2.0,-8.0,-2.0,-2.0,-1.0,1651094082865715.0
-1.0,0.0,-3.0,-4.0,-4.0,-12.0,-3.0,-2.0,1651094082865715.0
-1.0,0.0,-1.0,-1.0,15.0,27.0,2.0,0.0,1651094082879932.0
0.0,1.0,-1.0,-1.0,2.0,-14.0,2.0,0.0,1651094082879932.0
0.0,-1.0,2.0,0.0,-4.0,-1.0,0.0,-1.0,1651094082880784.0
-1.0,2.0,0.0,1.0,4.0,0.0,0.0,0.0,1651094082880784.0
-3.0,-3.0,-3.0,-1.0,-22.0,-8.0,-1.0,-1.0,1651094082903180.0
0.0,-3.0,-4.0,-3.0,-6.0,3.0,-1.0,0.0,1651094082903180.0
1.0,2.0,3.0,2.0,23.0,1.0,0.0,-2.0,1651094082903180.0
0.0,0.0,9.0,4.0,-29.0,-2.0,0.0,1.0,1651094082903180.0
2.0,-1.0,-5.0,1.0,37.0,1.0,0.0,0.0,1651094082917218.0
0.0,-1.0,0.0,-4.0,-13.0,-1.0,-1.0,-1.0,1651094082917218.0
-1.0,-2.0,-4.0,0.0,15.0,-5.0,0.0,1.0,1651094082925292.0
-1.0,-2.0,-2.0,4.0,-10.0,-2.0,0.0,-1.0,1651094082925292.0
1.0,0.0,3.0,1.0,1.0,-5.0,-1.0,-2.0,1651094082940402.0
-1.0,0.0,0.0,-1.0,10.0,2.0,-3.0,0.0,1651094082940402.0
-1.0,0.0,-1.0,-2.0,-4.0,2.0,0.0,-1.0,1651094082940402.0
-1.0,-1.0,-3.0,-3.0,7.0,0.0,0.0,-1.0,1651094082940402.0
-1.0,1.0,2.0,0.0,-15.0,-9.0,1.0,-1.0,1651094082962538.0
0.0,-1.0,0.0,2.0,13.0,9.0,1.0,-2.0,1651094082962538.0
-1.0,-4.0,-6.0,-1.0,-15.0,2.0,-1.0,1.0,1651094082962538.0
-1.0,4.0,6.0,1.0,-15.0,16.0,1.0,0.0,1651094082962538.0
-2.0,-1.0,-1.0,1.0,44.0,12.0,0.0,0.0,1651094082977638.0
1.0,1.0,2.0,0.0,-8.0,-24.0,-1.0,1.0,1651094082977638.0
0.0,0.0,0.0,1.0,-12.0,-2.0,0.0,-1.0,1651094082985590.0
1.0,-6.0,-9.0,-7.0,-5.0,-23.0,-2.0,0.0,1651094082985590.0
-1.0,-4.0,0.0,4.0,-54.0,-3.0,-1.0,-2.0,1651094082999763.0
-1.0,1.0,1.0,-2.0,16.0,6.0,-2.0,-1.0,1651094082999763.0
0.0,-2.0,-1.0,4.0,9.0,10.0,0.0,1.0,1651094083000763.0
-2.0,1.0,-2.0,1.0,22.0,0.0,-2.0,0.0,1651094083000763.0
-1.0,-1.0,-1.0,-6.0,-3.0,-11.0,-3.0,-1.0,1651094083022710.0
1.0,0.0,1.0,1.0,-14.0,4.0,2.0,0.0,1651094083022710.0
0.0,-1.0,0.0,-4.0,-12.0,-2.0,0.0,-3.0,1651094083022710.0
-1.0,-3.0,-6.0,-3.0,6.0,-1.0,-3.0,-1.0,1651094083022710.0
-1.0,3.0,6.0,0.0,2.0,1.0,-1.0,-1.0,1651094083037810.0
0.0,0.0,1.0,-2.0,-13.0,0.0,-1.0,-1.0,1651094083037810.0
-1.0,-1.0,0.0,-3.0,0.0,-3.0,-1.0,-1.0,1651094083044653.0
0.0,-1.0,-1.0,1.0,2.0,9.0,0.0,1.0,1651094083044653.0
-1.0,-2.0,-6.0,-1.0,-3.0,-19.0,-2.0,0.0,1651094083060287.0
0.0,-1.0,-2.0,0.0,11.0,6.0,-1.0,-1.0,1651094083060287.0
-2.0,0.0,0.0,-1.0,3.0,-3.0,-1.0,-2.0,1651094083060287.0
-1.0,1.0,-2.0,-2.0,-30.0,-7.0,-1.0,0.0,1651094083060287.0
-1.0,-1.0,-1.0,-1.0,-20.0,2.0,1.0,0.0,1651094083082609.0
-1.0,0.0,1.0,5.0,33.0,6.0,1.0,-1.0,1651094083082609.0
-1.0,-4.0,-3.0,-4.0,-9.0,-4.0,-5.0,0.0,1651094083082609.0
2.0,1.0,3.0,-2.0,16.0,-1.0,2.0,2.0,1651094083082609.0
-1.0,-1.0,0.0,-1.0,-4.0,-5.0,-2.0,-1.0,1651094083096891.0
-1.0,-1.0,1.0,2.0,-29.0,7.0,0.0,1.0,1651094083096891.0
0.0,2.0,1.0,2.0,39.0,0.0,1.0,-1.0,1651094083105041.0
0.0,-1.0,0.0,1.0,38.0,1.0,-1.0,0.0,1651094083105041.0
-1.0,-2.0,-2.0,-3.0,-20.0,-1.0,0.0,0.0,1651094083121200.0
-1.0,1.0,0.0,-3.0,32.0,3.0,-2.0,0.0,1651094083121200.0
0.0,0.0,2.0,-2.0,-29.0,-7.0,1.0,0.0,1651094083121200.0
-1.0,0.0,-1.0,-1.0,-4.0,3.0,-1.0,-1.0,1651094083121200.0
1.0,0.0,-2.0,-2.0,29.0,1.0,0.0,-1.0,1651094083141982.0
-2.0,-2.0,-5.0,-2.0,-16.0,-6.0,-2.0,-2.0,1651094083141982.0
-1.0,2.0,-1.0,1.0,-12.0,3.0,0.0,0.0,1651094083142831.0
0.0,2.0,2.0,1.0,-8.0,3.0,1.0,-2.0,1651094083142831.0
0.0,1.0,-4.0,0.0,34.0,15.0,-2.0,-1.0,1651094083156945.0
1.0,-3.0,-1.0,-3.0,-32.0,-5.0,3.0,3.0,1651094083156945.0
0.0,-3.0,-5.0,-4.0,-6.0,1.0,0.0,0.0,1651094083165299.0
0.0,-1.0,-2.0,-1.0,-2.0,7.0,-1.0,-1.0,1651094083165299.0
-1.0,1.0,-1.0,-1.0,-20.0,-13.0,-2.0,0.0,1651094083180437.0
0.0,1.0,3.0,3.0,29.0,3.0,0.0,-1.0,1651094083180437.0
-1.0,0.0,0.0,1.0,0.0,-7.0,-1.0,-1.0,1651094083180437.0
-2.0,-5.0,-6.0,4.0,2.0,-6.0,-2.0,-3.0,1651094083180437.0
-1.0,2.0,6.0,2.0,-9.0,-5.0,0.0,1.0,1651094083202645.0
-2.0,0.0,1.0,-4.0,-15.0,-13.0,0.0,0.0,1651094083202645.0
-2.0,-1.0,0.0,-1.0,-5.0,-2.0,-2.0,0.0,1651094083202645.0
0.0,0.0,0.0,-4.0,6.0,-14.0,-1.0,0.0,1651094083202645.0
-1.0,-1.0,-3.0,-1.0,6.0,4.0,0.0,1.0,1651094083216776.0
0.0,1.0,0.0,1.0,-7.0,5.0,-3.0,-1.0,1651094083216776.0
0.0,-2.0,0.0,1.0,8.0,8.0,1.0,-2.0,1651094083225101.0
0.0,-5.0,-11.0,-1.0,-11.0,-5.0,-1.0,-2.0,1651094083225101.0
0.0,3.0,10.0,-1.0,14.0,2.0,-1.0,-3.0,1651094083240395.0
-1.0,0.0,1.0,-2.0,-4.0,2.0,0.0,1.0,1651094083240395.0
1.0,0.0,-2.0,-1.0,3.0,-1.0,0.0,0.0,1651094083240395.0
0.0,2.0,0.0,-2.0,-22.0,0.0,-2.0,-1.0,1651094083240395.0
-1.0,-1.0,-7.0,-2.0,23.0,2.0,0.0,-1.0,1651094083262669.0
-3.0,-4.0,-3.0,3.0,52.0,-15.0,-1.0,-2.0,1651094083262669.0
0.0,-1.0,1.0,1.0,-8.0,13.0,0.0,0.0,1651094083263530.0
-3.0,0.0,3.0,0.0,3.0,2.0,-1.0,1.0,1651094083263530.0
-1.0,2.0,-1.0,3.0,-38.0,4.0,0.0,0.0,1651094083277633.0
0.0,0.0,-3.0,-6.0,-10.0,-1.0,0.0,-1.0,1651094083277633.0
-3.0,-6.0,-10.0,-4.0,18.0,-12.0,-1.0,1.0,1651094083284975.0
0.0,1.0,5.0,-2.0,-17.0,6.0,0.0,-2.0,1651094083284975.0
0.0,-1.0,0.0,-3.0,6.0,1.0,-3.0,-1.0,1651094083301320.0
0.0,0.0,1.0,1.0,-12.0,-5.0,-1.0,1.0,1651094083301320.0
-1.0,1.0,-2.0,0.0,-10.0,-3.0,-2.0,-2.0,1651094083302139.0
0.0,-2.0,-1.0,-2.0,1.0,2.0,0.0,1.0,1651094083302139.0
-1.0,-3.0,1.0,0.0,-7.0,-6.0,-2.0,0.0,1651094083330784.0
0.0,0.0,-1.0,-1.0,15.0,12.0,-1.0,0.0,1651094083330784.0
-2.0,1.0,2.0,3.0,12.0,-3.0,-2.0,0.0,1651094083331657.0
0.0,0.0,1.0,2.0,4.0,-1.0,0.0,0.0,1651094083331657.0
-1.0,-3.0,-1.0,2.0,2.0,-3.0,0.0,0.0,1651094083336643.0
0.0,-1.0,-3.0,0.0,-5.0,6.0,0.0,-2.0,1651094083336643.0
0.0,1.0,2.0,-5.0,6.0,3.0,-1.0,1.0,1651094083344625.0
-1.0,-3.0,-5.0,-2.0,-14.0,-11.0,-2.0,0.0,1651094083344625.0
-2.0,1.0,1.0,3.0,-5.0,-8.0,-2.0,0.0,1651094083360823.0
-2.0,-1.0,0.0,2.0,5.0,11.0,0.0,-2.0,1651094083360823.0
1.0,-2.0,-3.0,1.0,-15.0,-3.0,0.0,-2.0,1651094083360823.0
-2.0,0.0,4.0,-2.0,27.0,1.0,1.0,0.0,1651094083360823.0
-1.0,-3.0,-4.0,-6.0,-10.0,-3.0,-2.0,0.0,1651094083383026.0
0.0,-1.0,-4.0,-2.0,-23.0,4.0,-1.0,0.0,1651094083383026.0
0.0,3.0,3.0,1.0,11.0,-3.0,-3.0,-1.0,1651094083383026.0
0.0,0.0,-4.0,4.0,8.0,1.0,-1.0,1.0,1651094083383026.0
0.0,-1.0,-2.0,0.0,-7.0,-7.0,-1.0,-1.0,1651094083396962.0
-1.0,-2.0,2.0,-5.0,17.0,1.0,-2.0,-2.0,1651094083396962.0
1.0,0.0,-4.0,3.0,-30.0,21.0,9.0,6.0,1651094083405117.0
-1.0,4.0,2.0,-1.0,8.0,-14.0,-5.0,-10.0,1651094083405117.0
0.0,3.0,5.0,0.0,35.0,1.0,4.0,10.0,1651094083420270.0
0.0,-4.0,-3.0,-2.0,-49.0,5.0,-10.0,-10.0,1651094083420270.0
-10.0,-11.0,-11.0,-11.0,4.0,-1.0,-6.0,-23.0,1651094083420270.0
8.0,3.0,-11.0,7.0,-1.0,-3.0,5.0,10.0,1651094083420270.0
6.0,6.0,22.0,6.0,2.0,20.0,0.0,22.0,1651094083442600.0
4.0,0.0,-2.0,-4.0,11.0,-18.0,-6.0,3.0,1651094083442600.0
-2.0,-8.0,6.0,2.0,-3.0,-29.0,-27.0,-8.0,1651094083442600.0
-8.0,3.0,-9.0,-6.0,-3.0,27.0,-6.0,-32.0,1651094083442600.0
0.0,-2.0,-3.0,-1.0,2.0,1.0,-16.0,-11.0,1651094083465176.0
-3.0,1.0,0.0,-4.0,4.0,8.0,31.0,35.0,1651094083465176.0
4.0,4.0,3.0,9.0,16.0,9.0,-8.0,-18.0,1651094083466016.0
-5.0,-10.0,-3.0,-11.0,-1.0,-12.0,4.0,10.0,1651094083466016.0
-3.0,-3.0,-9.0,-12.0,-92.0,-1.0,-19.0,-37.0,1651094083495406.0
4.0,6.0,9.0,3.0,85.0,32.0,2.0,26.0,1651094083495406.0
1.0,6.0,4.0,8.0,-13.0,8.0,3.0,12.0,1651094083496287.0
1.0,-2.0,3.0,10.0,17.0,1.0,3.0,1.0,1651094083496287.0
-3.0,0.0,-3.0,13.0,-23.0,-42.0,2.0,3.0,1651094083502303.0
-5.0,-4.0,-8.0,-8.0,-58.0,-42.0,-12.0,-20.0,1651094083502303.0
16.0,6.0,0.0,-10.0,10.0,54.0,6.0,-2.0,1651094083503269.0
-86.0,-3.0,5.0,-11.0,-89.0,31.0,-3.0,19.0,1651094083503269.0
64.0,-12.0,-6.0,-12.0,47.0,-4.0,13.0,-6.0,1651094083525608.0
17.0,6.0,1.0,25.0,27.0,-16.0,-7.0,-5.0,1651094083525608.0
4.0,5.0,2.0,11.0,45.0,14.0,5.0,7.0,1651094083525608.0
7.0,-4.0,1.0,-2.0,-11.0,-10.0,-1.0,1.0,1651094083525608.0
-22.0,-2.0,-8.0,-11.0,43.0,-25.0,-11.0,-45.0,1651094083549042.0
