EMG_s0,EMG_s1,EMG_s2,EMG_s3,EMG_s4,EMG_s5,EMG_s6,EMG_s7,timestamp
-3.0,-3.0,-1.0,2.0,-1.0,-1.0,-1.0,-1.0,1651093814961427.0
-2.0,-3.0,-1.0,-2.0,-3.0,-2.0,0.0,0.0,1651093814961427.0
0.0,-2.0,-5.0,-2.0,0.0,0.0,-2.0,-2.0,1651093814961427.0
-1.0,0.0,-1.0,-2.0,1.0,-1.0,-1.0,-2.0,1651093814961427.0
-1.0,0.0,0.0,-1.0,-2.0,-1.0,-1.0,0.0,1651093814962367.0
-1.0,-1.0,1.0,0.0,1.0,-1.0,-1.0,0.0,1651093814962367.0
0.0,1.0,-1.0,2.0,0.0,1.0,-1.0,-2.0,1651093814962367.0
-1.0,-4.0,-6.0,-2.0,-2.0,-2.0,-2.0,-1.0,1651093814962367.0
0.0,2.0,5.0,-1.0,-1.0,-1.0,-1.0,-1.0,1651093814973338.0
-1.0,1.0,-1.0,1.0,0.0,0.0,0.0,-2.0,1651093814973338.0
0.0,-2.0,0.0,0.0,-1.0,0.0,0.0,-1.0,1651093814982315.0
-3.0,-3.0,-4.0,-1.0,-3.0,-4.0,-1.0,-1.0,1651093814982315.0
-3.0,-2.0,-6.0,-1.0,0.0,-1.0,0.0,-2.0,1651093814990293.0
2.0,1.0,0.0,-4.0,-2.0,0.0,-1.0,-2.0,1651093814990293.0
0.0,-2.0,2.0,3.0,0.0,-2.0,-1.0,0.0,1651093815004441.0
0.0,0.0,1.0,5.0,3.0,-6.0,0.0,-2.0,1651093815004441.0
1.0,-2.0,-2.0,-3.0,0.0,5.0,0.0,1.0,1651093815012606.0
0.0,0.0,0.0,-1.0,-1.0,-2.0,0.0,3.0,1651093815012606.0
-1.0,-1.0,-2.0,-4.0,-2.0,-7.0,0.0,0.0,1651093815027897.0
0.0,-1.0,0.0,0.0,1.0,8.0,2.0,0.0,1651093815027897.0
0.0,-2.0,0.0,2.0,-1.0,-3.0,1.0,0.0,1651093815034880.0
0.0,-1.0,-1.0,1.0,1.0,1.0,1.0,-1.0,1651093815034880.0
-1.0,-1.0,-1.0,-2.0,-1.0,-3.0,-1.0,0.0,1651093815047870.0
0.0,2.0,5.0,0.0,-2.0,0.0,-1.0,1.0,1651093815047870.0
-1.0,-2.0,-5.0,-6.0,4.0,3.0,1.0,-1.0,1651093815089575.0
0.0,-1.0,0.0,1.0,-4.0,-4.0,-1.0,1.0,1651093815089575.0
-2.0,-2.0,0.0,2.0,-1.0,0.0,-1.0,0.0,1651093815090572.0
-1.0,-1.0,-2.0,-1.0,0.0,2.0,-1.0,-1.0,1651093815090572.0
0.0,2.0,-1.0,0.0,-1.0,1.0,-1.0,1.0,1651093815093563.0
-1.0,-1.0,0.0,-4.0,1.0,-2.0,-1.0,-1.0,1651093815093563.0
-1.0,-2.0,-3.0,-1.0,-1.0,-2.0,-1.0,0.0,1651093815094561.0
0.0,-1.0,-1.0,0.0,-1.0,0.0,-1.0,0.0,1651093815094561.0
-1.0,0.0,5.0,-1.0,-5.0,-4.0,-2.0,1.0,1651093815100545.0
0.0,1.0,-3.0,0.0,1.0,0.0,-2.0,0.0,1651093815100545.0
1.0,0.0,2.0,0.0,0.0,1.0,-1.0,-2.0,1651093815110722.0
0.0,0.0,-2.0,-1.0,0.0,-2.0,-1.0,-1.0,1651093815110722.0
0.0,-1.0,0.0,-1.0,-1.0,-2.0,-1.0,0.0,1651093815116706.0
-2.0,-1.0,0.0,1.0,0.0,2.0,-1.0,0.0,1651093815116706.0
-2.0,1.0,0.0,-1.0,1.0,1.0,1.0,-2.0,1651093815130731.0
-1.0,-1.0,-1.0,-1.0,-3.0,-2.0,-1.0,0.0,1651093815130731.0
-1.0,-1.0,0.0,0.0,1.0,-2.0,-1.0,-1.0,1651093815138864.0
0.0,1.0,-1.0,-4.0,-1.0,1.0,0.0,0.0,1651093815138864.0
0.0,-2.0,-1.0,2.0,-1.0,-1.0,0.0,0.0,1651093815162277.0
-1.0,-1.0,0.0,2.0,0.0,-10.0,0.0,0.0,1651093815162277.0
-1.0,-2.0,-2.0,-2.0,2.0,18.0,1.0,-1.0,1651093815162277.0
0.0,-2.0,-3.0,-2.0,-3.0,-2.0,-1.0,-1.0,1651093815162277.0
0.0,-2.0,-5.0,-3.0,0.0,0.0,-1.0,0.0,1651093815185710.0
1.0,3.0,4.0,1.0,0.0,-2.0,1.0,-1.0,1651093815185710.0
2.0,1.0,2.0,3.0,-1.0,-4.0,-1.0,-2.0,1651093815185710.0
0.0,0.0,0.0,-1.0,-1.0,2.0,1.0,2.0,1651093815185710.0
-1.0,-1.0,2.0,-5.0,-3.0,0.0,-1.0,1.0,1651093815207847.0
-1.0,-1.0,-3.0,-1.0,-1.0,2.0,-1.0,1.0,1651093815207847.0
-1.0,-2.0,-3.0,-1.0,-3.0,-2.0,-1.0,0.0,1651093815207847.0
0.0,2.0,3.0,2.0,-1.0,-1.0,0.0,-1.0,1651093815207847.0
-1.0,2.0,0.0,-3.0,0.0,-4.0,0.0,-2.0,1651093815221666.0
0.0,0.0,0.0,0.0,1.0,1.0,-1.0,1.0,1651093815221666.0
0.0,-4.0,0.0,0.0,-1.0,-5.0,1.0,-1.0,1651093815222650.0
-1.0,-2.0,0.0,-1.0,-3.0,-2.0,-1.0,-1.0,1651093815222650.0
1.0,-1.0,-2.0,3.0,0.0,-2.0,0.0,0.0,1651093815238758.0
-1.0,1.0,0.0,-2.0,0.0,3.0,1.0,0.0,1651093815238758.0
0.0,1.0,1.0,1.0,-3.0,0.0,0.0,-1.0,1651093815239629.0
0.0,-1.0,-2.0,-1.0,0.0,-4.0,0.0,-2.0,1651093815239629.0
1.0,1.0,5.0,0.0,-1.0,0.0,-1.0,-1.0,1651093815267758.0
1.0,-3.0,-3.0,-3.0,-2.0,0.0,0.0,-1.0,1651093815267758.0
-1.0,-1.0,0.0,-1.0,0.0,-2.0,-2.0,1.0,1651093815267758.0
-1.0,-2.0,-2.0,0.0,-1.0,-9.0,0.0,0.0,1651093815267758.0
-1.0,1.0,-2.0,0.0,-3.0,4.0,0.0,0.0,1651093815281193.0
-1.0,0.0,1.0,-2.0,-1.0,-4.0,-1.0,-1.0,1651093815281193.0
1.0,0.0,-1.0,1.0,1.0,-1.0,-1.0,-2.0,1651093815282190.0
-1.0,-1.0,0.0,0.0,1.0,0.0,0.0,-2.0,1651093815282190.0
2.0,0.0,0.0,1.0,-1.0,-1.0,-1.0,0.0,1651093815296513.0
0.0,-1.0,0.0,-2.0,0.0,2.0,-1.0,0.0,1651093815296513.0
-2.0,-1.0,-2.0,-2.0,0.0,-1.0,0.0,0.0,1651093815297349.0
-1.0,-1.0,-1.0,-1.0,1.0,4.0,-1.0,-1.0,1651093815297349.0
-1.0,-4.0,-4.0,1.0,-2.0,-1.0,0.0,0.0,1651093815319548.0
-1.0,5.0,5.0,3.0,-1.0,1.0,-1.0,-2.0,1651093815319548.0
0.0,1.0,-2.0,-2.0,1.0,-1.0,0.0,-1.0,1651093815319548.0
0.0,-3.0,0.0,1.0,0.0,1.0,0.0,0.0,1651093815319548.0
-3.0,-3.0,-5.0,-2.0,0.0,-1.0,-1.0,0.0,1651093815342040.0
1.0,0.0,-3.0,-2.0,-2.0,-2.0,0.0,-1.0,1651093815342040.0
0.0,1.0,-1.0,-1.0,-1.0,-3.0,-1.0,-2.0,1651093815342040.0
1.0,1.0,2.0,1.0,1.0,3.0,-2.0,0.0,1651093815342040.0
0.0,-1.0,0.0,-1.0,1.0,0.0,1.0,1.0,1651093815356999.0
-2.0,-2.0,-1.0,0.0,-5.0,-1.0,-2.0,1.0,1651093815356999.0
0.0,0.0,1.0,-1.0,-3.0,-5.0,-2.0,1.0,1651093815356999.0
-1.0,0.0,-1.0,0.0,0.0,1.0,0.0,-1.0,1651093815356999.0
-1.0,0.0,0.0,0.0,1.0,0.0,-2.0,-2.0,1651093815379595.0
0.0,-1.0,1.0,2.0,-1.0,-1.0,-1.0,0.0,1651093815379595.0
-1.0,-2.0,-1.0,-2.0,-1.0,2.0,0.0,-1.0,1651093815379595.0
-2.0,-1.0,-2.0,-2.0,-2.0,-2.0,-2.0,-1.0,1651093815379595.0
0.0,2.0,6.0,4.0,0.0,-2.0,-1.0,1.0,1651093815401869.0
0.0,-3.0,-1.0,0.0,0.0,-1.0,-1.0,-1.0,1651093815401869.0
0.0,-1.0,-2.0,-1.0,-2.0,-10.0,-3.0,-2.0,1651093815401869.0
-1.0,-2.0,0.0,0.0,-1.0,15.0,0.0,0.0,1651093815401869.0
-1.0,-2.0,-2.0,-2.0,-2.0,-2.0,0.0,-2.0,1651093815416982.0
-4.0,-3.0,-3.0,-3.0,1.0,0.0,0.0,-1.0,1651093815416982.0
-3.0,0.0,-4.0,0.0,-1.0,-1.0,0.0,-1.0,1651093815416982.0
-1.0,2.0,2.0,1.0,-2.0,-5.0,-2.0,1.0,1651093815416982.0
0.0,0.0,0.0,-1.0,-1.0,-1.0,0.0,0.0,1651093815439281.0
1.0,0.0,0.0,-2.0,-1.0,0.0,1.0,-1.0,1651093815439281.0
2.0,-3.0,-2.0,1.0,2.0,4.0,0.0,-1.0,1651093815439281.0
0.0,1.0,1.0,-1.0,-1.0,-4.0,-1.0,-1.0,1651093815439281.0
-3.0,-2.0,0.0,0.0,-1.0,0.0,-1.0,0.0,1651093815462251.0
0.0,-2.0,-2.0,-1.0,-1.0,-1.0,-2.0,-1.0,1651093815462251.0
-1.0,-2.0,-2.0,-2.0,-1.0,0.0,-2.0,-1.0,1651093815462251.0
0.0,0.0,0.0,0.0,1.0,1.0,1.0,1.0,1651093815462251.0
0.0,1.0,2.0,-1.0,-1.0,-3.0,-1.0,1.0,1651093815476862.0
-2.0,0.0,-4.0,-2.0,-1.0,1.0,0.0,1.0,1651093815476862.0
-1.0,-1.0,2.0,1.0,-1.0,0.0,2.0,0.0,1651093815477705.0
0.0,-3.0,-6.0,-1.0,-2.0,-2.0,0.0,1.0,1651093815477705.0
-2.0,1.0,-2.0,-1.0,-2.0,0.0,-3.0,-1.0,1651093815499154.0
-1.0,0.0,0.0,0.0,0.0,0.0,0.0,-1.0,1651093815499154.0
0.0,2.0,-1.0,0.0,1.0,1.0,0.0,1.0,1651093815499990.0
0.0,1.0,0.0,-3.0,0.0,-3.0,-1.0,0.0,1651093815499990.0
-2.0,0.0,-1.0,-2.0,-2.0,0.0,1.0,-1.0,1651093815522028.0
1.0,-1.0,-1.0,0.0,0.0,-1.0,-3.0,-2.0,1651093815522028.0
0.0,-1.0,-1.0,1.0,-1.0,1.0,0.0,0.0,1651093815522156.0
2.0,-2.0,-2.0,-1.0,-3.0,-2.0,1.0,-2.0,1651093815522156.0
1.0,-2.0,-2.0,-2.0,-1.0,-1.0,0.0,0.0,1651093815536395.0
1.0,-1.0,1.0,-1.0,-1.0,2.0,0.0,2.0,1651093815536395.0
0.0,-1.0,2.0,-1.0,-1.0,0.0,0.0,0.0,1651093815544744.0
0.0,-4.0,-7.0,2.0,0.0,1.0,-1.0,-1.0,1651093815544744.0
0.0,3.0,4.0,1.0,-2.0,-2.0,-1.0,0.0,1651093815559742.0
0.0,1.0,-1.0,-1.0,0.0,-1.0,0.0,-1.0,1651093815559742.0
0.0,-3.0,0.0,-2.0,-1.0,-9.0,0.0,-2.0,1651093815559742.0
-1.0,-1.0,0.0,-4.0,1.0,17.0,1.0,0.0,1651093815559742.0
1.0,-3.0,-3.0,0.0,0.0,0.0,-1.0,-1.0,1651093815581901.0
-1.0,1.0,0.0,1.0,1.0,-1.0,0.0,0.0,1651093815581901.0
0.0,3.0,2.0,1.0,1.0,1.0,0.0,-1.0,1651093815581901.0
-1.0,1.0,1.0,0.0,0.0,-6.0,0.0,-1.0,1651093815581901.0
0.0,-3.0,-3.0,-1.0,0.0,-1.0,0.0,-1.0,1651093815596220.0
0.0,-1.0,0.0,-2.0,0.0,1.0,0.0,-1.0,1651093815596220.0
-1.0,-1.0,-3.0,0.0,-1.0,0.0,-1.0,-2.0,1651093815604229.0
-1.0,0.0,1.0,0.0,-2.0,-6.0,0.0,-2.0,1651093815604229.0
-2.0,-1.0,-1.0,-2.0,-1.0,1.0,0.0,-1.0,1651093815619382.0
-2.0,0.0,-1.0,-1.0,-1.0,-4.0,-3.0,0.0,1651093815619382.0
-1.0,-2.0,0.0,0.0,-3.0,1.0,-1.0,0.0,1651093815619382.0
0.0,-2.0,-3.0,-4.0,-1.0,0.0,-1.0,-1.0,1651093815619382.0
-1.0,1.0,5.0,2.0,-1.0,1.0,-3.0,0.0,1651093815649892.0
0.0,-1.0,1.0,3.0,0.0,1.0,0.0,0.0,1651093815649892.0
-2.0,-2.0,-1.0,-2.0,-1.0,2.0,1.0,0.0,1651093815649892.0
-1.0,1.0,2.0,2.0,-1.0,-5.0,-1.0,1.0,1651093815649892.0
-1.0,-3.0,-6.0,-2.0,0.0,-2.0,2.0,1.0,1651093815655879.0
0.0,-2.0,-1.0,-5.0,-3.0,-2.0,-1.0,-1.0,1651093815655879.0
1.0,-2.0,2.0,1.0,1.0,1.0,0.0,1.0,1651093815663907.0
-1.0,2.0,1.0,-1.0,0.0,-1.0,0.0,0.0,1651093815663907.0
0.0,0.0,-3.0,1.0,-1.0,-2.0,-1.0,-1.0,1651093815679219.0
-1.0,-1.0,-2.0,0.0,-1.0,0.0,-1.0,-2.0,1651093815679219.0
-1.0,0.0,0.0,0.0,0.0,0.0,-3.0,0.0,1651093815679219.0
-1.0,-1.0,-2.0,0.0,0.0,0.0,-1.0,1.0,1651093815679219.0
-2.0,-2.0,-2.0,0.0,-2.0,-1.0,0.0,-2.0,1651093815701472.0
-1.0,-2.0,0.0,2.0,1.0,-1.0,0.0,0.0,1651093815701472.0
-2.0,-5.0,-7.0,-2.0,-1.0,-1.0,-1.0,-2.0,1651093815702434.0
1.0,1.0,7.0,-1.0,-1.0,-4.0,0.0,-1.0,1651093815702434.0
-2.0,1.0,1.0,-1.0,-2.0,2.0,0.0,1.0,1651093815715759.0
-1.0,-1.0,-2.0,2.0,1.0,1.0,0.0,0.0,1651093815715759.0
0.0,-1.0,1.0,-1.0,-2.0,-5.0,-1.0,0.0,1651093815724727.0
0.0,-1.0,-2.0,0.0,1.0,2.0,0.0,-1.0,1651093815724727.0
1.0,-2.0,-1.0,-1.0,0.0,0.0,0.0,-1.0,1651093815739136.0
-1.0,-1.0,1.0,0.0,-2.0,-2.0,0.0,0.0,1651093815739136.0
0.0,2.0,-2.0,-1.0,-1.0,2.0,-1.0,-1.0,1651093815740152.0
-2.0,-1.0,0.0,0.0,-4.0,-5.0,-2.0,-2.0,1651093815740152.0
0.0,0.0,1.0,-4.0,0.0,-1.0,-2.0,-2.0,1651093815762048.0
-1.0,-1.0,-1.0,1.0,0.0,1.0,-1.0,1.0,1651093815762048.0
-1.0,-1.0,0.0,3.0,1.0,-1.0,0.0,0.0,1651093815762319.0
1.0,0.0,-1.0,-3.0,0.0,0.0,-2.0,0.0,1651093815762319.0
-1.0,-1.0,-2.0,1.0,2.0,1.0,0.0,-1.0,1651093815784855.0
0.0,0.0,-1.0,-4.0,-1.0,-1.0,-1.0,-1.0,1651093815784855.0
0.0,-1.0,-3.0,0.0,-2.0,-1.0,-1.0,-2.0,1651093815785729.0
-2.0,-1.0,-1.0,2.0,1.0,0.0,0.0,-2.0,1651093815785729.0
1.0,1.0,1.0,-1.0,1.0,0.0,-2.0,1.0,1651093815799624.0
-1.0,-4.0,-6.0,0.0,0.0,-2.0,1.0,-3.0,1651093815799624.0
1.0,2.0,9.0,-1.0,-1.0,-1.0,-2.0,-1.0,1651093815799748.0
-1.0,1.0,0.0,0.0,0.0,-1.0,1.0,1.0,1651093815799748.0
-1.0,2.0,1.0,3.0,-2.0,-4.0,0.0,-1.0,1651093815822336.0
0.0,-3.0,-2.0,-4.0,-1.0,-2.0,0.0,0.0,1651093815822336.0
-1.0,-3.0,-3.0,1.0,1.0,1.0,0.0,2.0,1651093815822336.0
0.0,-2.0,-2.0,-1.0,-1.0,-8.0,-2.0,-1.0,1651093815822336.0
0.0,0.0,-2.0,-2.0,0.0,10.0,-1.0,-1.0,1651093815836650.0
1.0,1.0,-1.0,3.0,0.0,1.0,0.0,-2.0,1651093815836650.0
0.0,0.0,1.0,3.0,-1.0,-1.0,-2.0,1.0,1651093815844972.0
0.0,-1.0,0.0,-1.0,-1.0,-3.0,-1.0,0.0,1651093815844972.0
-2.0,-3.0,-2.0,-2.0,0.0,-4.0,-1.0,-3.0,1651093815858780.0
-1.0,0.0,0.0,-3.0,-3.0,0.0,1.0,1.0,1651093815858780.0
-2.0,-1.0,0.0,-2.0,-1.0,-1.0,1.0,-1.0,1651093815859778.0
0.0,0.0,0.0,0.0,-1.0,1.0,0.0,-2.0,1651093815859778.0
1.0,0.0,1.0,-1.0,0.0,-2.0,0.0,-2.0,1651093815881760.0
0.0,-3.0,-2.0,-1.0,0.0,1.0,-2.0,-1.0,1651093815881760.0
-2.0,2.0,2.0,-1.0,0.0,-1.0,-1.0,0.0,1651093815882058.0
0.0,-1.0,1.0,2.0,1.0,1.0,0.0,0.0,1651093815882058.0
-1.0,-1.0,-2.0,-1.0,-1.0,0.0,-1.0,-2.0,1651093815896419.0
-1.0,0.0,2.0,-1.0,-2.0,-4.0,-1.0,0.0,1651093815896419.0
0.0,-2.0,-6.0,-5.0,-2.0,2.0,0.0,0.0,1651093815904363.0
0.0,-2.0,-2.0,1.0,0.0,1.0,-2.0,-1.0,1651093815904363.0
0.0,-1.0,2.0,2.0,1.0,-2.0,-1.0,1.0,1651093815918719.0
-1.0,2.0,-1.0,-1.0,-1.0,1.0,0.0,-1.0,1651093815918719.0
1.0,0.0,0.0,-3.0,-2.0,-1.0,0.0,-1.0,1651093815919555.0
-2.0,0.0,1.0,-2.0,-1.0,0.0,1.0,1.0,1651093815919555.0
-1.0,-1.0,-3.0,-2.0,0.0,-1.0,0.0,0.0,1651093815941943.0
-1.0,-1.0,1.0,1.0,1.0,-7.0,-2.0,1.0,1651093815941943.0
-2.0,-1.0,0.0,0.0,-1.0,15.0,0.0,0.0,1651093815941943.0
-2.0,-2.0,-2.0,-2.0,0.0,-2.0,-2.0,-1.0,1651093815941943.0
2.0,-1.0,-1.0,2.0,-1.0,1.0,0.0,0.0,1651093815965084.0
-2.0,1.0,2.0,-1.0,-1.0,-3.0,1.0,0.0,1651093815965084.0
1.0,0.0,-1.0,0.0,0.0,-5.0,-1.0,-1.0,1651093815965084.0
1.0,-5.0,-10.0,-4.0,2.0,0.0,-1.0,-3.0,1651093815965084.0
-1.0,1.0,7.0,0.0,-2.0,0.0,0.0,0.0,1651093815979149.0
0.0,2.0,1.0,3.0,2.0,2.0,0.0,1.0,1651093815979149.0
2.0,0.0,0.0,-1.0,0.0,-3.0,-1.0,0.0,1651093815980139.0
1.0,1.0,-2.0,0.0,-2.0,1.0,2.0,1.0,1651093815980139.0
-2.0,-1.0,-3.0,2.0,2.0,-3.0,0.0,-1.0,1651093816002235.0
1.0,-1.0,1.0,-2.0,-2.0,0.0,-2.0,-2.0,1651093816002235.0
-1.0,0.0,0.0,1.0,-1.0,-2.0,0.0,-1.0,1651093816002323.0
0.0,0.0,0.0,0.0,-1.0,-1.0,0.0,-1.0,1651093816002323.0
-3.0,-2.0,-1.0,-1.0,-3.0,-3.0,0.0,-2.0,1651093816025694.0
-1.0,-2.0,0.0,1.0,1.0,0.0,0.0,-3.0,1651093816025694.0
0.0,-1.0,-2.0,0.0,-1.0,-1.0,0.0,0.0,1651093816025694.0
0.0,1.0,0.0,-1.0,-1.0,2.0,1.0,0.0,1651093816025694.0
-1.0,0.0,-1.0,-1.0,-2.0,-1.0,0.0,1.0,1651093816039673.0
1.0,-1.0,-4.0,-7.0,-3.0,-2.0,-2.0,1.0,1651093816039673.0
0.0,-1.0,-2.0,4.0,0.0,-6.0,0.0,-2.0,1651093816039673.0
0.0,0.0,1.0,1.0,1.0,3.0,-1.0,-1.0,1651093816039673.0
-1.0,3.0,2.0,2.0,-2.0,-2.0,-1.0,-1.0,1651093816061324.0
-1.0,-2.0,-2.0,-2.0,1.0,1.0,-2.0,-1.0,1651093816061324.0
0.0,-1.0,1.0,-4.0,1.0,-5.0,0.0,0.0,1651093816069289.0
-1.0,-2.0,1.0,1.0,-1.0,-3.0,0.0,0.0,1651093816069289.0
0.0,1.0,-2.0,-1.0,-1.0,1.0,-1.0,0.0,1651093816085610.0
-2.0,-1.0,1.0,1.0,-3.0,0.0,0.0,0.0,1651093816085610.0
-2.0,-2.0,-4.0,-3.0,-4.0,2.0,-1.0,-1.0,1651093816085610.0
-1.0,1.0,1.0,7.0,6.0,3.0,-1.0,0.0,1651093816085610.0
0.0,-2.0,0.0,-2.0,1.0,0.0,0.0,0.0,1651093816107796.0
-1.0,0.0,1.0,-1.0,0.0,3.0,-1.0,0.0,1651093816107796.0
0.0,-1.0,-2.0,-1.0,-3.0,-4.0,-1.0,0.0,1651093816107796.0
0.0,-1.0,-1.0,-7.0,-2.0,1.0,0.0,-1.0,1651093816107796.0
-2.0,0.0,-2.0,4.0,0.0,-1.0,-1.0,-2.0,1651093816120762.0
-1.0,0.0,1.0,2.0,1.0,0.0,0.0,-1.0,1651093816120762.0
0.0,-2.0,-2.0,-5.0,0.0,2.0,-1.0,0.0,1651093816129724.0
-1.0,1.0,0.0,-3.0,-2.0,-3.0,-1.0,-1.0,1651093816129724.0
1.0,2.0,0.0,-4.0,0.0,-4.0,-1.0,1.0,1651093816145048.0
-1.0,-2.0,-6.0,-1.0,-1.0,3.0,1.0,-2.0,1651093816145048.0
-2.0,3.0,6.0,0.0,0.0,0.0,0.0,-1.0,1651093816145895.0
-1.0,0.0,1.0,-4.0,-4.0,-1.0,0.0,-2.0,1651093816145895.0
1.0,-2.0,-3.0,2.0,1.0,-1.0,0.0,0.0,1651093816167325.0
1.0,0.0,1.0,3.0,1.0,-1.0,-1.0,1.0,1651093816167325.0
-1.0,-1.0,-3.0,-1.0,0.0,-1.0,-1.0,1.0,1651093816169176.0
-2.0,-1.0,-1.0,0.0,0.0,-4.0,-2.0,0.0,1651093816169176.0
-1.0,0.0,-1.0,-1.0,0.0,3.0,-2.0,-1.0,1651093816181308.0
0.0,-1.0,-2.0,-3.0,0.0,-1.0,0.0,0.0,1651093816181308.0
0.0,-1.0,-1.0,-3.0,-2.0,1.0,1.0,-1.0,1651093816189526.0
1.0,1.0,0.0,4.0,-1.0,1.0,-1.0,1.0,1651093816189526.0
1.0,-2.0,0.0,3.0,0.0,2.0,-1.0,0.0,1651093816205047.0
-1.0,1.0,1.0,1.0,2.0,0.0,2.0,-1.0,1651093816205047.0
-1.0,2.0,-2.0,1.0,1.0,-3.0,-1.0,0.0,1651093816205902.0
-1.0,-2.0,-1.0,-3.0,-4.0,0.0,-1.0,0.0,1651093816205902.0
-1.0,-1.0,-3.0,-3.0,-1.0,-1.0,-2.0,-1.0,1651093816227398.0
0.0,-2.0,-4.0,1.0,-1.0,0.0,-1.0,0.0,1651093816227398.0
-1.0,1.0,3.0,0.0,-1.0,1.0,-1.0,-2.0,1651093816228431.0
-1.0,0.0,1.0,1.0,0.0,0.0,-1.0,0.0,1651093816228431.0
-2.0,0.0,0.0,1.0,0.0,0.0,-1.0,-2.0,1651093816241664.0
0.0,1.0,-1.0,-4.0,-1.0,-1.0,0.0,0.0,1651093816241664.0
0.0,-2.0,-4.0,-4.0,-1.0,-6.0,0.0,-1.0,1651093816249698.0
-2.0,0.0,-1.0,3.0,-2.0,8.0,-8.0,-1.0,1651093816249698.0
1.0,-2.0,1.0,0.0,-1.0,-4.0,-6.0,0.0,1651093816264652.0
-2.0,-1.0,-2.0,-1.0,-2.0,0.0,18.0,-2.0,1651093816264652.0
1.0,-1.0,1.0,5.0,4.0,1.0,-14.0,1.0,1651093816266512.0
-1.0,0.0,-1.0,-2.0,-1.0,-1.0,17.0,0.0,1651093816266512.0
-1.0,-2.0,-3.0,-2.0,-2.0,-1.0,-8.0,-1.0,1651093816295116.0
-2.0,-1.0,0.0,2.0,-3.0,-2.0,-1.0,-2.0,1651093816295116.0
-1.0,-2.0,-4.0,-2.0,-5.0,6.0,-10.0,2.0,1651093816295968.0
0.0,1.0,2.0,0.0,6.0,-2.0,-2.0,0.0,1651093816295968.0
0.0,-2.0,-5.0,-1.0,-3.0,-1.0,-5.0,0.0,1651093816300989.0
0.0,2.0,4.0,-1.0,1.0,-3.0,-11.0,-1.0,1651093816300989.0
-2.0,0.0,1.0,0.0,-2.0,-7.0,4.0,-3.0,1651093816310118.0
-1.0,-2.0,-2.0,-2.0,-5.0,-6.0,-16.0,-2.0,1651093816310118.0
-1.0,-1.0,-1.0,-5.0,0.0,-4.0,18.0,1.0,1651093816325447.0
1.0,1.0,0.0,4.0,0.0,4.0,10.0,1.0,1651093816325447.0
2.0,1.0,1.0,2.0,2.0,12.0,23.0,3.0,1651093816326297.0
0.0,-3.0,-1.0,-1.0,2.0,-1.0,-7.0,0.0,1651093816326297.0
-3.0,-2.0,-2.0,-3.0,-2.0,-4.0,-26.0,-5.0,1651093816354593.0
-3.0,-3.0,-1.0,-4.0,-2.0,-7.0,7.0,-1.0,1651093816354593.0
1.0,1.0,-1.0,0.0,-4.0,-3.0,-16.0,2.0,1651093816356586.0
1.0,1.0,-1.0,2.0,13.0,8.0,38.0,1.0,1651093816356586.0
-1.0,1.0,3.0,2.0,2.0,6.0,-10.0,1.0,1651093816360574.0
1.0,-2.0,0.0,0.0,-2.0,1.0,3.0,-2.0,1651093816360574.0
-2.0,-1.0,-2.0,-1.0,1.0,-4.0,-14.0,-4.0,1651093816369723.0
-3.0,-2.0,-1.0,0.0,-4.0,-10.0,-12.0,-2.0,1651093816369723.0
1.0,-1.0,-1.0,-2.0,-1.0,-2.0,1.0,-1.0,1651093816384838.0
0.0,1.0,-1.0,-1.0,-2.0,-4.0,-5.0,0.0,1651093816384838.0
-2.0,-1.0,-2.0,2.0,5.0,-2.0,0.0,-2.0,1651093816386706.0
-3.0,-1.0,-1.0,-6.0,-5.0,-4.0,1.0,-1.0,1651093816386706.0
-1.0,1.0,0.0,0.0,2.0,-5.0,1.0,1.0,1651093816408318.0
-1.0,-1.0,-2.0,4.0,0.0,17.0,20.0,2.0,1651093816408318.0
1.0,0.0,2.0,1.0,-5.0,0.0,-22.0,0.0,1651093816408318.0
0.0,-3.0,-8.0,-5.0,1.0,-9.0,-4.0,-3.0,1651093816408318.0
0.0,2.0,6.0,-5.0,-5.0,0.0,-3.0,0.0,1651093816429607.0
1.0,0.0,0.0,3.0,1.0,10.0,71.0,7.0,1651093816429607.0
3.0,2.0,1.0,2.0,0.0,16.0,7.0,3.0,1651093816431483.0
1.0,-1.0,2.0,5.0,-3.0,-6.0,-18.0,-3.0,1651093816431483.0
-2.0,-3.0,-5.0,-4.0,1.0,-6.0,-17.0,-3.0,1651093816444791.0
-3.0,-2.0,1.0,-12.0,-11.0,-17.0,-42.0,-7.0,1651093816444791.0
-4.0,-3.0,-6.0,-9.0,-4.0,-16.0,-26.0,-5.0,1651093816446664.0
-2.0,-2.0,-4.0,3.0,-3.0,-2.0,6.0,-2.0,1651093816446664.0
-1.0,-3.0,-2.0,6.0,-4.0,-2.0,16.0,-1.0,1651093816475275.0
0.0,3.0,1.0,-32.0,-7.0,8.0,-37.0,-5.0,1651093816475275.0
2.0,1.0,-1.0,-1.0,-18.0,5.0,78.0,8.0,1651093816476126.0
4.0,2.0,8.0,49.0,31.0,24.0,-6.0,8.0,1651093816476126.0
-2.0,-3.0,0.0,2.0,-5.0,-22.0,-83.0,-8.0,1651093816490189.0
-5.0,-3.0,-3.0,15.0,-25.0,5.0,26.0,-7.0,1651093816490189.0
-3.0,-4.0,-2.0,-18.0,18.0,-17.0,-16.0,-3.0,1651093816491085.0
3.0,3.0,1.0,-19.0,-6.0,43.0,-29.0,7.0,1651093816491085.0
-1.0,1.0,-2.0,2.0,9.0,3.0,62.0,1.0,1651093816504247.0
3.0,-1.0,-3.0,-7.0,-8.0,-27.0,-8.0,7.0,1651093816504247.0
0.0,-2.0,0.0,9.0,-48.0,-37.0,7.0,6.0,1651093816511415.0
-1.0,-2.0,-5.0,1.0,7.0,46.0,24.0,-5.0,1651093816511415.0
-4.0,-5.0,1.0,-9.0,-9.0,-60.0,-117.0,-12.0,1651093816527706.0
-13.0,-2.0,-3.0,-19.0,3.0,1.0,65.0,-16.0,1651093816527706.0
7.0,4.0,0.0,-11.0,32.0,77.0,54.0,23.0,1651093816528543.0
9.0,9.0,12.0,52.0,25.0,3.0,4.0,27.0,1651093816528543.0
5.0,5.0,1.0,-7.0,0.0,17.0,54.0,-4.0,1651093816550211.0
13.0,0.0,-2.0,5.0,-27.0,-11.0,-128.0,6.0,1651093816550211.0
-26.0,-11.0,-9.0,-10.0,-68.0,-62.0,36.0,-41.0,1651093816551212.0
-23.0,-10.0,-6.0,-18.0,-32.0,39.0,-10.0,-28.0,1651093816551212.0
20.0,12.0,11.0,13.0,47.0,25.0,98.0,37.0,1651093816572561.0
1.0,-2.0,1.0,5.0,17.0,-18.0,-83.0,-3.0,1651093816572561.0
18.0,7.0,2.0,6.0,12.0,13.0,27.0,25.0,1651093816573567.0
6.0,0.0,-4.0,-23.0,-29.0,-84.0,-56.0,11.0,1651093816573567.0
-11.0,-2.0,-3.0,13.0,-26.0,11.0,-44.0,-19.0,1651093816595022.0
-14.0,-2.0,-2.0,-9.0,-24.0,1.0,41.0,-24.0,1651093816595022.0
-6.0,1.0,4.0,2.0,8.0,2.0,-32.0,22.0,1651093816595867.0
5.0,-1.0,-2.0,-14.0,-1.0,-64.0,57.0,-26.0,1651093816595867.0
13.0,6.0,2.0,-3.0,24.0,106.0,-35.0,24.0,1651093816610211.0
-9.0,-7.0,-3.0,11.0,12.0,50.0,-93.0,-23.0,1651093816610211.0
-11.0,-5.0,-4.0,7.0,33.0,80.0,-18.0,17.0,1651093816611211.0
1.0,-1.0,-2.0,-15.0,-2.0,-76.0,97.0,29.0,1651093816611211.0
-1.0,-1.0,-1.0,-17.0,11.0,79.0,101.0,2.0,1651093816623178.0
4.0,4.0,0.0,-14.0,-42.0,-47.0,-17.0,6.0,1651093816623178.0
-3.0,-1.0,2.0,46.0,-14.0,69.0,-128.0,-36.0,1651093816632167.0
13.0,2.0,4.0,-1.0,27.0,0.0,-34.0,14.0,1651093816632167.0
-14.0,-7.0,-5.0,-14.0,-14.0,-51.0,-67.0,-18.0,1651093816655529.0
-21.0,-3.0,-3.0,2.0,-5.0,-54.0,25.0,-3.0,1651093816655529.0
27.0,5.0,2.0,-35.0,14.0,-33.0,56.0,1.0,1651093816656499.0
14.0,6.0,0.0,24.0,-10.0,34.0,1.0,22.0,1651093816656499.0
-24.0,-7.0,-6.0,21.0,-5.0,-4.0,28.0,-9.0,1651093816670682.0
15.0,4.0,6.0,7.0,50.0,-4.0,112.0,28.0,1651093816670682.0
42.0,5.0,1.0,-24.0,-8.0,34.0,78.0,43.0,1651093816672611.0
-7.0,-4.0,0.0,17.0,22.0,27.0,-60.0,-28.0,1651093816672611.0
-11.0,-5.0,-11.0,-3.0,-18.0,-84.0,-21.0,-11.0,1651093816683783.0
2.0,3.0,6.0,24.0,14.0,-66.0,-7.0,4.0,1651093816683783.0
-26.0,-3.0,2.0,-22.0,14.0,14.0,4.0,-21.0,1651093816692475.0
-11.0,-5.0,-4.0,-4.0,-18.0,62.0,70.0,-3.0,1651093816692475.0
-18.0,-1.0,-1.0,-58.0,-8.0,-3.0,41.0,-15.0,1651093816707689.0
10.0,1.0,-4.0,51.0,14.0,33.0,-55.0,22.0,1651093816707689.0
-2.0,-5.0,-8.0,-5.0,6.0,5.0,-83.0,-28.0,1651093816708688.0
4.0,3.0,1.0,-5.0,-22.0,-31.0,77.0,-11.0,1651093816708688.0
7.0,6.0,4.0,0.0,5.0,37.0,-33.0,18.0,1651093816729794.0
0.0,-6.0,-5.0,-12.0,8.0,18.0,76.0,-13.0,1651093816729794.0
2.0,2.0,2.0,-4.0,5.0,-52.0,4.0,6.0,1651093816731653.0
-23.0,-7.0,-8.0,-28.0,-23.0,-34.0,24.0,-6.0,1651093816731653.0
-11.0,-5.0,0.0,60.0,13.0,82.0,-33.0,-10.0,1651093816744940.0
-5.0,5.0,6.0,-15.0,5.0,-60.0,60.0,-17.0,1651093816744940.0
17.0,3.0,3.0,15.0,0.0,9.0,66.0,22.0,1651093816751488.0
0.0,-6.0,-10.0,-25.0,-13.0,-106.0,-128.0,-2.0,1651093816751488.0
-2.0,1.0,12.0,10.0,-7.0,59.0,12.0,1.0,1651093816767902.0
25.0,10.0,1.0,-34.0,12.0,104.0,53.0,2.0,1651093816767902.0
31.0,4.0,0.0,89.0,30.0,-29.0,-101.0,25.0,1651093816768776.0
-17.0,-1.0,1.0,-9.0,-6.0,95.0,33.0,-29.0,1651093816768776.0
3.0,-2.0,-4.0,-64.0,-12.0,-96.0,-92.0,-5.0,1651093816790344.0
-11.0,-3.0,0.0,31.0,0.0,24.0,69.0,39.0,1651093816790344.0
2.0,-9.0,-8.0,0.0,4.0,49.0,-49.0,-17.0,1651093816791344.0
8.0,6.0,4.0,21.0,26.0,51.0,-12.0,11.0,1651093816791344.0
-51.0,-17.0,-14.0,1.0,-25.0,-16.0,44.0,-74.0,1651093816804433.0
33.0,9.0,7.0,-27.0,4.0,57.0,-97.0,41.0,1651093816804433.0
-29.0,-9.0,-3.0,-46.0,-3.0,22.0,65.0,-12.0,1651093816811429.0
16.0,3.0,0.0,-17.0,-17.0,-4.0,-84.0,-1.0,1651093816811429.0
32.0,5.0,-4.0,36.0,-26.0,-81.0,61.0,35.0,1651093816827715.0
-19.0,1.0,5.0,45.0,29.0,83.0,-101.0,-17.0,1651093816827715.0
-12.0,-6.0,-5.0,6.0,11.0,-124.0,47.0,4.0,1651093816828587.0
-31.0,-7.0,-3.0,-14.0,-1.0,40.0,-121.0,-60.0,1651093816828587.0
-43.0,0.0,3.0,-64.0,-36.0,7.0,27.0,22.0,1651093816849871.0
69.0,7.0,0.0,30.0,-1.0,17.0,2.0,16.0,1651093816849871.0
-33.0,-9.0,-4.0,-6.0,-2.0,-38.0,60.0,-52.0,1651093816850733.0
30.0,6.0,5.0,7.0,-7.0,-100.0,79.0,51.0,1651093816850733.0
-14.0,-3.0,-6.0,8.0,11.0,-18.0,-122.0,-41.0,1651093816863728.0
-20.0,-15.0,-11.0,-10.0,0.0,26.0,106.0,16.0,1651093816863728.0
3.0,6.0,8.0,-32.0,-4.0,41.0,-108.0,2.0,1651093816878988.0
-13.0,-3.0,0.0,34.0,2.0,-33.0,70.0,-11.0,1651093816878988.0
21.0,4.0,1.0,8.0,29.0,89.0,99.0,1.0,1651093816888099.0
-23.0,-3.0,-1.0,-7.0,-5.0,-14.0,-21.0,-5.0,1651093816888099.0
-3.0,1.0,2.0,-6.0,-7.0,80.0,57.0,-5.0,1651093816888966.0
-14.0,-2.0,1.0,-7.0,2.0,-11.0,-88.0,-26.0,1651093816888966.0
55.0,16.0,14.0,49.0,36.0,-36.0,85.0,69.0,1651093816910789.0
-2.0,0.0,2.0,-31.0,-15.0,54.0,42.0,6.0,1651093816910789.0
24.0,9.0,4.0,9.0,3.0,44.0,71.0,9.0,1651093816911789.0
-34.0,-5.0,0.0,-8.0,-3.0,38.0,-47.0,-14.0,1651093816911789.0
17.0,-6.0,-3.0,-11.0,-7.0,-32.0,0.0,-16.0,1651093816925111.0
-10.0,-3.0,-6.0,-12.0,-7.0,3.0,36.0,-8.0,1651093816925111.0
-6.0,-3.0,-5.0,-27.0,-12.0,-3.0,-36.0,11.0,1651093816930936.0
12.0,6.0,7.0,25.0,15.0,124.0,6.0,20.0,1651093816930936.0
3.0,-7.0,-3.0,23.0,4.0,-17.0,-128.0,-28.0,1651093816947371.0
5.0,-2.0,0.0,12.0,3.0,-11.0,96.0,53.0,1651093816947371.0
-17.0,-3.0,-2.0,2.0,6.0,-52.0,-108.0,-42.0,1651093816948389.0
-22.0,-4.0,-5.0,-25.0,-4.0,56.0,-11.0,-23.0,1651093816948389.0
-6.0,4.0,4.0,-29.0,-10.0,-53.0,79.0,4.0,1651093816969475.0
27.0,2.0,1.0,49.0,-12.0,9.0,-114.0,8.0,1651093816969475.0
-7.0,5.0,2.0,0.0,4.0,-79.0,4.0,13.0,1651093816971493.0
3.0,-7.0,-4.0,-19.0,-7.0,21.0,11.0,-4.0,1651093816971493.0
24.0,3.0,7.0,48.0,38.0,-5.0,-39.0,30.0,1651093816983816.0
-14.0,-6.0,-7.0,-74.0,-9.0,50.0,-3.0,-36.0,1651093816983816.0
-22.0,2.0,3.0,52.0,-22.0,23.0,-37.0,-20.0,1651093816998119.0
43.0,10.0,4.0,11.0,11.0,-76.0,37.0,28.0,1651093816998119.0
-28.0,-9.0,-5.0,-20.0,-23.0,-18.0,74.0,-22.0,1651093817008472.0
13.0,-2.0,-4.0,-50.0,-15.0,-27.0,-123.0,-10.0,1651093817008472.0
-69.0,-6.0,-5.0,8.0,-8.0,-35.0,-43.0,-30.0,1651093817009472.0
42.0,0.0,0.0,23.0,1.0,-30.0,13.0,-1.0,1651093817009472.0
18.0,-1.0,-7.0,-13.0,-9.0,52.0,19.0,29.0,1651093817029810.0
-45.0,-8.0,-3.0,22.0,8.0,-95.0,4.0,-65.0,1651093817029810.0
-3.0,20.0,12.0,-44.0,-5.0,95.0,127.0,76.0,1651093817030816.0
70.0,4.0,6.0,25.0,14.0,60.0,37.0,12.0,1651093817030816.0
-1.0,-5.0,-6.0,-28.0,2.0,60.0,-52.0,-14.0,1651093817044127.0
-23.0,-1.0,3.0,4.0,-10.0,-128.0,47.0,-14.0,1651093817044127.0
34.0,0.0,1.0,40.0,25.0,66.0,-76.0,-4.0,1651093817052410.0
-42.0,2.0,5.0,-41.0,0.0,-24.0,97.0,-4.0,1651093817052410.0
29.0,6.0,-5.0,18.0,-20.0,17.0,-89.0,31.0,1651093817067719.0
-19.0,-7.0,-5.0,39.0,39.0,-24.0,77.0,-5.0,1651093817067719.0
-42.0,-9.0,1.0,-13.0,-3.0,-57.0,-40.0,-47.0,1651093817068559.0
25.0,2.0,-1.0,-1.0,7.0,-7.0,1.0,34.0,1651093817068559.0
26.0,3.0,2.0,-21.0,-25.0,-14.0,-4.0,27.0,1651093817089871.0
-8.0,6.0,4.0,1.0,-1.0,-28.0,-17.0,11.0,1651093817089871.0
30.0,-7.0,-10.0,6.0,-13.0,-24.0,59.0,-9.0,1651093817090881.0
-28.0,5.0,6.0,12.0,19.0,36.0,86.0,18.0,1651093817090881.0
-15.0,-9.0,-6.0,-18.0,-16.0,12.0,-77.0,-8.0,1651093817103030.0
35.0,1.0,-4.0,-18.0,-3.0,18.0,-26.0,19.0,1651093817103030.0
7.0,-9.0,-8.0,-19.0,-25.0,-96.0,-80.0,-36.0,1651093817112182.0
-36.0,-7.0,-2.0,22.0,16.0,64.0,35.0,15.0,1651093817112182.0
15.0,11.0,7.0,33.0,44.0,88.0,72.0,15.0,1651093817127436.0
10.0,8.0,3.0,15.0,15.0,-33.0,4.0,2.0,1651093817127436.0
2.0,-9.0,-6.0,10.0,-10.0,20.0,-30.0,-18.0,1651093817128276.0
-17.0,-10.0,-11.0,-20.0,-29.0,-109.0,-49.0,-20.0,1651093817128276.0
-24.0,-1.0,0.0,-34.0,17.0,-63.0,22.0,-5.0,1651093817150750.0
20.0,0.0,-3.0,-12.0,-7.0,36.0,-123.0,14.0,1651093817150750.0
-15.0,1.0,1.0,4.0,5.0,53.0,52.0,-9.0,1651093817151750.0
-7.0,-6.0,-5.0,0.0,-2.0,89.0,0.0,-20.0,1651093817151750.0
0.0,-4.0,3.0,8.0,-14.0,-50.0,-18.0,6.0,1651093817163463.0
-20.0,1.0,0.0,-30.0,2.0,-35.0,42.0,-35.0,1651093817163463.0
47.0,6.0,2.0,-7.0,-9.0,-25.0,35.0,53.0,1651093817172185.0
-23.0,-9.0,-7.0,14.0,2.0,35.0,52.0,-18.0,1651093817172185.0
32.0,-1.0,-4.0,-27.0,12.0,10.0,6.0,22.0,1651093817187697.0
-35.0,-12.0,-6.0,26.0,-27.0,89.0,29.0,-30.0,1651093817187697.0
-8.0,4.0,8.0,8.0,41.0,45.0,25.0,23.0,1651093817188697.0
14.0,2.0,-5.0,-36.0,-20.0,19.0,34.0,9.0,1651093817188697.0
-22.0,-4.0,1.0,61.0,17.0,9.0,-66.0,-42.0,1651093817210294.0
-9.0,-3.0,5.0,-8.0,-2.0,-84.0,6.0,-18.0,1651093817210294.0
5.0,-5.0,-8.0,-24.0,-3.0,-2.0,-71.0,14.0,1651093817211325.0
1.0,-2.0,-3.0,-17.0,-7.0,24.0,-128.0,-11.0,1651093817211325.0
14.0,2.0,3.0,-1.0,-1.0,36.0,-2.0,-10.0,1651093817223417.0
36.0,6.0,-1.0,24.0,-21.0,-45.0,35.0,66.0,1651093817223417.0
0.0,-4.0,6.0,50.0,17.0,-98.0,-67.0,-25.0,1651093817232422.0
-4.0,-3.0,-7.0,-15.0,9.0,14.0,36.0,-21.0,1651093817232422.0
-12.0,2.0,-2.0,-1.0,-5.0,-1.0,127.0,7.0,1651093817247384.0
-54.0,-11.0,0.0,-28.0,-3.0,43.0,-31.0,-66.0,1651093817247384.0
46.0,6.0,2.0,13.0,11.0,-39.0,26.0,54.0,1651093817248381.0
-4.0,-5.0,-5.0,20.0,-26.0,-33.0,-128.0,-13.0,1651093817248381.0
4.0,8.0,6.0,26.0,14.0,-83.0,-13.0,9.0,1651093817269716.0
-28.0,-9.0,-7.0,-28.0,0.0,113.0,-109.0,-29.0,1651093817269716.0
-5.0,-3.0,-3.0,-2.0,-1.0,51.0,127.0,10.0,1651093817270715.0
-14.0,0.0,1.0,-30.0,-19.0,-14.0,-94.0,-19.0,1651093817270715.0
6.0,3.0,-1.0,-11.0,-6.0,-53.0,89.0,21.0,1651093817284032.0
38.0,2.0,0.0,22.0,2.0,27.0,36.0,30.0,1651093817284032.0
-16.0,-11.0,-9.0,13.0,-4.0,4.0,-84.0,-27.0,1651093817292068.0
23.0,11.0,10.0,7.0,13.0,-27.0,25.0,31.0,1651093817292068.0
-45.0,-13.0,-6.0,6.0,-7.0,67.0,-93.0,-65.0,1651093817307499.0
4.0,8.0,2.0,-20.0,-15.0,-76.0,7.0,37.0,1651093817307499.0
-10.0,-4.0,-2.0,-64.0,-11.0,54.0,85.0,-11.0,1651093817308501.0
2.0,4.0,4.0,50.0,15.0,29.0,-9.0,13.0,1651093817308501.0
18.0,5.0,4.0,14.0,-17.0,88.0,19.0,22.0,1651093817329847.0
-12.0,-3.0,0.0,36.0,47.0,22.0,-3.0,-14.0,1651093817329847.0
-6.0,6.0,3.0,-20.0,-10.0,51.0,-64.0,-14.0,1651093817331711.0
4.0,2.0,-1.0,-86.0,-25.0,49.0,-32.0,23.0,1651093817331711.0
18.0,-3.0,-9.0,81.0,15.0,45.0,55.0,-1.0,1651093817343876.0
17.0,5.0,7.0,-17.0,18.0,59.0,13.0,29.0,1651093817343876.0
-13.0,-2.0,-1.0,15.0,-13.0,21.0,34.0,-14.0,1651093817352041.0
-3.0,-7.0,-5.0,-23.0,-13.0,-41.0,-51.0,-4.0,1651093817352041.0
-17.0,-2.0,-10.0,-82.0,-5.0,-35.0,1.0,-19.0,1651093817368024.0
-28.0,-12.0,-11.0,59.0,10.0,-15.0,83.0,-33.0,1651093817368024.0
25.0,11.0,14.0,1.0,13.0,11.0,18.0,33.0,1651093817368896.0
35.0,6.0,8.0,19.0,5.0,88.0,35.0,23.0,1651093817368896.0
-31.0,-13.0,-12.0,-50.0,-34.0,-67.0,-73.0,-28.0,1651093817389306.0
32.0,4.0,2.0,41.0,24.0,67.0,-84.0,27.0,1651093817389306.0
-42.0,-7.0,-3.0,-10.0,-4.0,-87.0,-5.0,-36.0,1651093817397757.0
1.0,-3.0,-3.0,19.0,4.0,-39.0,8.0,-3.0,1651093817397757.0
-18.0,-4.0,1.0,-29.0,-26.0,12.0,95.0,-3.0,1651093817412461.0
15.0,16.0,14.0,-20.0,10.0,84.0,33.0,34.0,1651093817412461.0
26.0,-1.0,0.0,40.0,1.0,41.0,15.0,-8.0,1651093817413332.0
-2.0,7.0,-2.0,-28.0,6.0,-34.0,-50.0,12.0,1651093817413332.0
-10.0,-7.0,1.0,66.0,-10.0,50.0,-38.0,-30.0,1651093817427984.0
-11.0,-7.0,0.0,12.0,-3.0,-46.0,-62.0,-10.0,1651093817427984.0
22.0,12.0,3.0,-8.0,-2.0,-25.0,94.0,29.0,1651093817428984.0
-4.0,2.0,1.0,3.0,-9.0,24.0,-56.0,-15.0,1651093817428984.0
-49.0,-15.0,-7.0,-24.0,-16.0,-15.0,78.0,-37.0,1651093817450508.0
20.0,13.0,6.0,-17.0,-14.0,-70.0,-17.0,19.0,1651093817450508.0
-29.0,-8.0,-2.0,9.0,-10.0,86.0,35.0,-24.0,1651093817451539.0
36.0,8.0,7.0,-21.0,19.0,-9.0,39.0,48.0,1651093817451539.0
21.0,7.0,1.0,3.0,3.0,-17.0,-18.0,26.0,1651093817473128.0
2.0,-9.0,-6.0,30.0,-10.0,-65.0,5.0,-16.0,1651093817473128.0
-48.0,-5.0,1.0,-14.0,7.0,57.0,-18.0,-54.0,1651093817473972.0
6.0,5.0,2.0,-49.0,-14.0,-79.0,119.0,29.0,1651093817473972.0
27.0,5.0,3.0,87.0,36.0,-32.0,-86.0,30.0,1651093817495438.0
10.0,1.0,-3.0,-29.0,-11.0,-64.0,97.0,1.0,1651093817495438.0
-40.0,-13.0,-9.0,-30.0,-35.0,19.0,-128.0,-58.0,1651093817496274.0
9.0,3.0,2.0,34.0,36.0,-114.0,83.0,30.0,1651093817496274.0
16.0,9.0,6.0,-42.0,8.0,-36.0,-45.0,-7.0,1651093817509778.0
-62.0,-17.0,-15.0,23.0,-31.0,-4.0,-57.0,-55.0,1651093817509778.0
69.0,10.0,7.0,20.0,0.0,-81.0,-18.0,80.0,1651093817511655.0
-71.0,-15.0,-4.0,16.0,10.0,50.0,-34.0,-85.0,1651093817511655.0
13.0,10.0,3.0,-63.0,-7.0,-6.0,48.0,17.0,1651093817533108.0
81.0,2.0,-3.0,8.0,-23.0,-12.0,32.0,42.0,1651093817533108.0
-15.0,-9.0,-7.0,-8.0,15.0,70.0,-56.0,-65.0,1651093817533745.0
21.0,1.0,-10.0,27.0,-3.0,12.0,90.0,74.0,1651093817533745.0
-21.0,2.0,7.0,12.0,16.0,57.0,-24.0,-30.0,1651093817546880.0
-54.0,-9.0,-4.0,-59.0,-13.0,14.0,-96.0,-56.0,1651093817546880.0
30.0,8.0,1.0,-29.0,-20.0,-92.0,37.0,63.0,1651093817553859.0
-15.0,-8.0,-5.0,33.0,-15.0,-38.0,-57.0,-43.0,1651093817553859.0
-20.0,-5.0,1.0,-12.0,-15.0,46.0,-85.0,-14.0,1651093817569851.0
-22.0,0.0,-4.0,12.0,15.0,25.0,-50.0,-2.0,1651093817569851.0
42.0,5.0,0.0,18.0,7.0,11.0,-79.0,40.0,1651093817575970.0
-16.0,-6.0,-4.0,-9.0,22.0,63.0,44.0,-46.0,1651093817575970.0
8.0,3.0,4.0,-18.0,-21.0,-2.0,91.0,29.0,1651093817593223.0
23.0,-1.0,8.0,21.0,22.0,69.0,-56.0,7.0,1651093817593223.0
-19.0,0.0,-5.0,-22.0,-8.0,-99.0,4.0,-5.0,1651093817594122.0
-16.0,0.0,2.0,-1.0,-15.0,-32.0,34.0,8.0,1651093817594122.0
-34.0,-11.0,-12.0,-57.0,4.0,61.0,-56.0,-49.0,1651093817607227.0
29.0,6.0,7.0,39.0,-10.0,-59.0,37.0,19.0,1651093817607227.0
9.0,-3.0,-3.0,8.0,14.0,-24.0,-66.0,17.0,1651093817613211.0
28.0,4.0,-2.0,-14.0,-15.0,17.0,78.0,2.0,1651093817613211.0
8.0,1.0,4.0,1.0,15.0,-13.0,84.0,29.0,1651093817629336.0
-19.0,4.0,4.0,-24.0,-17.0,-34.0,-22.0,-12.0,1651093817629336.0
-4.0,-2.0,0.0,30.0,29.0,59.0,6.0,-12.0,1651093817631371.0
1.0,-2.0,-2.0,7.0,-14.0,-128.0,-56.0,30.0,1651093817631371.0
-10.0,-5.0,-6.0,11.0,-3.0,2.0,5.0,-11.0,1651093817652642.0
33.0,10.0,8.0,4.0,16.0,118.0,84.0,28.0,1651093817652642.0
-10.0,-1.0,3.0,2.0,3.0,-4.0,4.0,-4.0,1651093817653643.0
-14.0,-7.0,-1.0,8.0,-12.0,73.0,-23.0,-29.0,1651093817653643.0
-13.0,-7.0,-5.0,21.0,1.0,-91.0,-28.0,-13.0,1651093817666776.0
21.0,7.0,-2.0,-53.0,-10.0,32.0,114.0,33.0,1651093817666776.0
16.0,5.0,5.0,48.0,-15.0,-27.0,33.0,7.0,1651093817673618.0
-43.0,-11.0,-5.0,-41.0,11.0,10.0,-42.0,-47.0,1651093817673618.0
36.0,12.0,6.0,53.0,3.0,-19.0,19.0,49.0,1651093817689742.0
8.0,0.0,-6.0,-11.0,13.0,-66.0,-28.0,-9.0,1651093817689742.0
-14.0,-4.0,3.0,-13.0,-27.0,-18.0,-16.0,2.0,1651093817690740.0
-14.0,-3.0,1.0,-6.0,-18.0,-9.0,-48.0,-14.0,1651093817690740.0
13.0,-1.0,-2.0,-10.0,35.0,45.0,26.0,7.0,1651093817713333.0
6.0,-1.0,-3.0,21.0,-2.0,45.0,-33.0,5.0,1651093817713333.0
-19.0,-5.0,-7.0,-14.0,-11.0,-69.0,27.0,-14.0,1651093817713727.0
3.0,6.0,2.0,0.0,-4.0,43.0,-7.0,11.0,1651093817713727.0
18.0,-7.0,-4.0,-30.0,-4.0,6.0,59.0,-5.0,1651093817727215.0
-12.0,5.0,3.0,15.0,-1.0,-43.0,-16.0,1.0,1651093817727215.0
-1.0,1.0,-3.0,-20.0,18.0,47.0,87.0,1.0,1651093817734207.0
1.0,-1.0,4.0,37.0,-18.0,-51.0,-83.0,-5.0,1651093817734207.0
1.0,7.0,1.0,-3.0,2.0,19.0,-22.0,8.0,1651093817750674.0
-13.0,-11.0,-5.0,0.0,22.0,75.0,-31.0,-18.0,1651093817750674.0
-17.0,0.0,2.0,10.0,-3.0,-50.0,72.0,-12.0,1651093817751558.0
40.0,5.0,-5.0,4.0,14.0,85.0,7.0,39.0,1651093817751558.0
-9.0,5.0,11.0,12.0,7.0,36.0,-31.0,-14.0,1651093817773173.0
11.0,-2.0,0.0,-33.0,-17.0,-23.0,13.0,4.0,1651093817773173.0
-2.0,-6.0,-4.0,-9.0,-2.0,25.0,-1.0,5.0,1651093817773690.0
-11.0,-3.0,-1.0,21.0,19.0,-26.0,-24.0,-17.0,1651093817773690.0
2.0,-2.0,-4.0,5.0,-12.0,-57.0,37.0,10.0,1651093817786856.0
-26.0,-10.0,-4.0,-16.0,-6.0,9.0,-12.0,-23.0,1651093817786856.0
9.0,2.0,-2.0,1.0,2.0,18.0,-15.0,10.0,1651093817794004.0
-8.0,3.0,0.0,-2.0,-5.0,-17.0,50.0,4.0,1651093817794004.0
10.0,-2.0,-1.0,9.0,-7.0,1.0,-55.0,4.0,1651093817810277.0
-24.0,-8.0,-3.0,-8.0,-11.0,-9.0,34.0,-27.0,1651093817810277.0
23.0,5.0,-1.0,-10.0,7.0,47.0,-8.0,19.0,1651093817811277.0
7.0,0.0,1.0,3.0,2.0,-22.0,-11.0,3.0,1651093817811277.0
-5.0,-5.0,-5.0,9.0,2.0,10.0,-21.0,-5.0,1651093817832594.0
-10.0,-1.0,4.0,-13.0,-7.0,-28.0,-3.0,-14.0,1651093817832594.0
-11.0,-3.0,-2.0,-4.0,3.0,46.0,-68.0,-6.0,1651093817833595.0
7.0,5.0,4.0,14.0,10.0,-11.0,35.0,8.0,1651093817833595.0
2.0,-1.0,0.0,-1.0,-10.0,9.0,-35.0,4.0,1651093817846683.0
-4.0,-2.0,-6.0,-5.0,1.0,-10.0,-4.0,-1.0,1651093817846683.0
3.0,-2.0,1.0,0.0,13.0,28.0,41.0,7.0,1651093817853541.0
-7.0,-4.0,0.0,0.0,-7.0,-12.0,9.0,2.0,1651093817853541.0
16.0,6.0,0.0,0.0,0.0,4.0,-16.0,11.0,1651093817869566.0
-3.0,-1.0,-2.0,-1.0,12.0,-1.0,-28.0,-7.0,1651093817869566.0
-4.0,2.0,-1.0,-1.0,-4.0,-18.0,-2.0,-10.0,1651093817871560.0
3.0,-3.0,-2.0,-9.0,5.0,5.0,1.0,-5.0,1651093817871560.0
-2.0,-2.0,-1.0,5.0,-4.0,-21.0,9.0,1.0,1651093817893082.0
-5.0,2.0,1.0,-1.0,-1.0,16.0,1.0,-5.0,1651093817893082.0
9.0,0.0,0.0,0.0,-11.0,-2.0,0.0,7.0,1651093817893706.0
0.0,-3.0,1.0,0.0,-5.0,4.0,-5.0,-5.0,1651093817893706.0
-8.0,-5.0,-6.0,-3.0,-10.0,-7.0,-17.0,0.0,1651093817906839.0
3.0,4.0,4.0,0.0,28.0,7.0,-2.0,2.0,1651093817906839.0
-2.0,-2.0,-1.0,-3.0,6.0,-8.0,-2.0,5.0,1651093817914705.0
-1.0,0.0,0.0,1.0,45.0,0.0,-11.0,-7.0,1651093817914705.0
-3.0,1.0,2.0,4.0,-54.0,-5.0,6.0,-2.0,1651093817930000.0
-4.0,-2.0,-6.0,-5.0,-51.0,2.0,3.0,4.0,1651093817930000.0
1.0,0.0,0.0,2.0,18.0,-1.0,6.0,-1.0,1651093817931138.0
1.0,0.0,0.0,2.0,29.0,-7.0,-1.0,-4.0,1651093817931138.0
1.0,-2.0,0.0,-4.0,6.0,7.0,-6.0,2.0,1651093817960767.0
3.0,3.0,3.0,4.0,-2.0,-3.0,1.0,4.0,1651093817960767.0
-1.0,0.0,1.0,-3.0,1.0,-1.0,-9.0,-1.0,1651093817961641.0
0.0,-2.0,-1.0,-4.0,-37.0,-5.0,-5.0,-2.0,1651093817961641.0
-3.0,-1.0,-2.0,-4.0,22.0,-2.0,-4.0,-1.0,1651093817973825.0
-1.0,-6.0,-8.0,-7.0,31.0,0.0,-4.0,-1.0,1651093817973825.0
2.0,4.0,10.0,9.0,-81.0,-9.0,6.0,1.0,1651093817982028.0
2.0,0.0,1.0,1.0,47.0,7.0,4.0,0.0,1651093817982028.0
0.0,1.0,2.0,10.0,4.0,1.0,4.0,-1.0,1651093817990207.0
-3.0,-2.0,-2.0,-12.0,-22.0,-10.0,-5.0,-2.0,1651093817990207.0
-1.0,-2.0,-5.0,-13.0,38.0,-2.0,-5.0,0.0,1651093817991207.0
0.0,-1.0,-3.0,0.0,-20.0,-1.0,-1.0,-1.0,1651093817991207.0
1.0,2.0,6.0,13.0,52.0,7.0,-1.0,0.0,1651093818012488.0
1.0,0.0,2.0,14.0,43.0,5.0,6.0,4.0,1651093818012488.0
-2.0,0.0,-1.0,-4.0,-11.0,3.0,-3.0,-1.0,1651093818014487.0
1.0,0.0,0.0,-3.0,-50.0,-5.0,-6.0,-3.0,1651093818014487.0
-2.0,0.0,-2.0,-8.0,21.0,-4.0,-2.0,-2.0,1651093818026785.0
0.0,-1.0,0.0,-5.0,-21.0,1.0,-2.0,0.0,1651093818026785.0
1.0,-1.0,1.0,2.0,-46.0,5.0,1.0,0.0,1651093818042065.0
1.0,1.0,3.0,4.0,66.0,15.0,4.0,-1.0,1651093818042065.0
-1.0,-1.0,-1.0,-3.0,-48.0,-6.0,-4.0,-1.0,1651093818050210.0
-1.0,-2.0,-1.0,-6.0,-68.0,-5.0,-2.0,0.0,1651093818050210.0
-1.0,-1.0,-2.0,-1.0,39.0,-15.0,-5.0,-3.0,1651093818051045.0
-2.0,-2.0,-6.0,2.0,34.0,2.0,0.0,0.0,1651093818051045.0
1.0,3.0,4.0,-5.0,45.0,5.0,-4.0,1.0,1651093818072537.0
-1.0,1.0,3.0,12.0,4.0,7.0,3.0,2.0,1651093818072537.0
-3.0,-5.0,-7.0,-14.0,-95.0,-12.0,-5.0,-2.0,1651093818073535.0
1.0,3.0,6.0,15.0,62.0,13.0,4.0,2.0,1651093818073535.0
-3.0,-2.0,-2.0,-5.0,13.0,3.0,2.0,-1.0,1651093818086634.0
0.0,-1.0,0.0,3.0,8.0,0.0,3.0,2.0,1651093818086634.0
-1.0,-1.0,-2.0,-8.0,-31.0,-11.0,-1.0,-1.0,1651093818094951.0
0.0,-1.0,-3.0,-7.0,-39.0,-4.0,-2.0,0.0,1651093818094951.0
-1.0,0.0,4.0,1.0,-32.0,3.0,1.0,1.0,1651093818110289.0
0.0,1.0,-2.0,-4.0,-6.0,-3.0,-2.0,0.0,1651093818110289.0
-1.0,0.0,-1.0,6.0,71.0,2.0,1.0,0.0,1651093818111129.0
-2.0,-2.0,-1.0,-7.0,-45.0,-8.0,-3.0,-1.0,1651093818111129.0
-1.0,-1.0,-3.0,-2.0,1.0,-6.0,-2.0,-1.0,1651093818133613.0
-1.0,-3.0,-2.0,-5.0,7.0,1.0,-2.0,-1.0,1651093818133613.0
1.0,0.0,0.0,4.0,-11.0,-6.0,2.0,1.0,1651093818135462.0
-1.0,0.0,0.0,-8.0,-16.0,0.0,-2.0,-1.0,1651093818135462.0
-2.0,-2.0,-1.0,4.0,-11.0,0.0,-1.0,0.0,1651093818145937.0
0.0,-1.0,-1.0,-4.0,16.0,-6.0,-1.0,-1.0,1651093818145937.0
-1.0,-3.0,-2.0,3.0,-1.0,6.0,-2.0,-2.0,1651093818154782.0
-2.0,-2.0,-1.0,-2.0,-23.0,-2.0,-4.0,-3.0,1651093818154782.0
0.0,-1.0,3.0,5.0,28.0,4.0,3.0,0.0,1651093818170065.0
1.0,-1.0,-2.0,-1.0,-20.0,-6.0,-1.0,-1.0,1651093818170065.0
-1.0,3.0,1.0,2.0,25.0,0.0,2.0,1.0,1651093818170921.0
-1.0,-1.0,-1.0,-10.0,-44.0,-8.0,-4.0,0.0,1651093818170921.0
-2.0,-4.0,-5.0,-5.0,-49.0,6.0,-2.0,-1.0,1651093818192384.0
0.0,0.0,2.0,-1.0,25.0,2.0,-2.0,0.0,1651093818192384.0
0.0,1.0,1.0,12.0,58.0,6.0,3.0,1.0,1651093818193388.0
0.0,0.0,-1.0,-2.0,16.0,-2.0,0.0,-1.0,1651093818193388.0
-1.0,-1.0,-1.0,-4.0,4.0,-10.0,-1.0,-1.0,1651093818206709.0
1.0,-2.0,-1.0,3.0,-19.0,4.0,-2.0,1.0,1651093818206709.0
0.0,0.0,1.0,-3.0,-46.0,1.0,-2.0,-1.0,1651093818215442.0
0.0,-1.0,-4.0,0.0,10.0,-7.0,0.0,-2.0,1651093818215442.0
0.0,-3.0,-4.0,1.0,21.0,-1.0,-1.0,0.0,1651093818229752.0
0.0,0.0,-1.0,4.0,-15.0,-19.0,0.0,-1.0,1651093818229752.0
-1.0,-1.0,-1.0,-6.0,17.0,6.0,-2.0,-2.0,1651093818230753.0
-2.0,1.0,2.0,1.0,22.0,4.0,0.0,0.0,1651093818230753.0
1.0,1.0,2.0,3.0,-62.0,-2.0,0.0,1.0,1651093818260651.0
-1.0,-1.0,-2.0,0.0,0.0,0.0,-2.0,0.0,1651093818260651.0
-2.0,-3.0,-5.0,-3.0,16.0,-5.0,-2.0,2.0,1651093818261651.0
-1.0,0.0,2.0,0.0,-11.0,0.0,0.0,-1.0,1651093818261651.0
-2.0,1.0,0.0,-3.0,16.0,-9.0,-1.0,-2.0,1651093818265640.0
-1.0,-1.0,-1.0,-4.0,0.0,-1.0,1.0,0.0,1651093818265640.0
-2.0,-1.0,0.0,0.0,-10.0,2.0,0.0,0.0,1651093818274886.0
1.0,0.0,-3.0,6.0,6.0,16.0,2.0,0.0,1651093818274886.0
-2.0,-3.0,-2.0,-1.0,-11.0,-4.0,-2.0,-1.0,1651093818290178.0
1.0,2.0,1.0,3.0,43.0,12.0,1.0,-1.0,1651093818290178.0
0.0,0.0,0.0,-10.0,-45.0,2.0,-3.0,-2.0,1651093818291141.0
-1.0,-1.0,-3.0,2.0,-10.0,-17.0,-2.0,0.0,1651093818291141.0
0.0,0.0,0.0,-3.0,0.0,14.0,1.0,1.0,1651093818319356.0
-1.0,0.0,-1.0,-2.0,-7.0,6.0,-1.0,-1.0,1651093818319356.0
1.0,1.0,0.0,2.0,20.0,-8.0,0.0,0.0,1651093818321351.0
0.0,-1.0,-1.0,-5.0,-8.0,-1.0,-1.0,-2.0,1651093818321351.0
0.0,-1.0,0.0,1.0,17.0,8.0,-2.0,1.0,1651093818335676.0
-1.0,-2.0,-3.0,-5.0,-37.0,-7.0,0.0,-1.0,1651093818335676.0
0.0,2.0,3.0,4.0,65.0,3.0,-1.0,-1.0,1651093818336553.0
-1.0,-1.0,0.0,-1.0,-32.0,-2.0,-1.0,-1.0,1651093818336553.0
1.0,-1.0,-4.0,-5.0,16.0,-2.0,0.0,-2.0,1651093818348852.0
-1.0,0.0,10.0,5.0,14.0,7.0,0.0,0.0,1651093818348852.0
-3.0,-1.0,-5.0,-3.0,-48.0,-4.0,-1.0,-1.0,1651093818364782.0
0.0,0.0,0.0,5.0,39.0,2.0,1.0,-1.0,1651093818364782.0
0.0,-1.0,1.0,8.0,0.0,-5.0,1.0,-1.0,1651093818373189.0
-2.0,-1.0,-2.0,-2.0,-5.0,-1.0,0.0,1.0,1651093818373189.0
-1.0,0.0,2.0,4.0,20.0,-2.0,-1.0,-1.0,1651093818373845.0
-1.0,0.0,-4.0,-6.0,-36.0,2.0,-3.0,-1.0,1651093818373845.0
-1.0,0.0,-2.0,-4.0,-8.0,-6.0,1.0,0.0,1651093818396318.0
1.0,0.0,-2.0,0.0,2.0,0.0,-1.0,-1.0,1651093818396318.0
0.0,0.0,0.0,2.0,36.0,3.0,1.0,0.0,1651093818397175.0
-1.0,-2.0,-1.0,0.0,-13.0,-6.0,-2.0,0.0,1651093818397175.0
-1.0,-1.0,0.0,-1.0,7.0,1.0,0.0,0.0,1651093818410580.0
0.0,0.0,-2.0,-2.0,11.0,1.0,-1.0,1.0,1651093818410580.0
-2.0,-4.0,-7.0,-4.0,-36.0,-1.0,-2.0,0.0,1651093818411615.0
-1.0,1.0,4.0,-6.0,0.0,-2.0,-2.0,-1.0,1651093818411615.0
1.0,1.0,2.0,3.0,35.0,2.0,-1.0,-2.0,1651093818433897.0
0.0,0.0,-2.0,-2.0,-8.0,1.0,0.0,1.0,1651093818433897.0
0.0,-1.0,-1.0,-1.0,-40.0,-2.0,-1.0,0.0,1651093818434897.0
0.0,-1.0,-3.0,9.0,88.0,11.0,2.0,-1.0,1651093818434897.0
-3.0,-2.0,-2.0,-2.0,-55.0,-11.0,-1.0,-2.0,1651093818455237.0
-1.0,-2.0,-2.0,0.0,14.0,-7.0,2.0,-1.0,1651093818455237.0
-1.0,-1.0,-1.0,-1.0,46.0,7.0,0.0,-1.0,1651093818456122.0
-1.0,-3.0,-3.0,-3.0,-48.0,-10.0,-3.0,0.0,1651093818456122.0
0.0,1.0,1.0,-1.0,-13.0,7.0,-2.0,-1.0,1651093818469248.0
1.0,-1.0,-1.0,-2.0,15.0,-1.0,-1.0,-2.0,1651093818469248.0
0.0,0.0,2.0,3.0,28.0,2.0,1.0,-1.0,1651093818476355.0
1.0,-1.0,1.0,-1.0,-24.0,-6.0,-1.0,0.0,1651093818476355.0
-1.0,0.0,-1.0,-1.0,20.0,-1.0,-1.0,1.0,1651093818492530.0
-1.0,1.0,-1.0,0.0,4.0,6.0,-1.0,-1.0,1651093818492530.0
0.0,0.0,0.0,1.0,-16.0,-4.0,0.0,-1.0,1651093818493530.0
-2.0,0.0,-2.0,-3.0,-18.0,5.0,1.0,-1.0,1651093818493530.0
-1.0,-5.0,-6.0,4.0,-3.0,-2.0,1.0,-1.0,1651093818514637.0
-1.0,3.0,6.0,-3.0,-5.0,-4.0,-1.0,0.0,1651093818514637.0
0.0,0.0,0.0,2.0,-10.0,2.0,-1.0,1.0,1651093818516524.0
-2.0,-2.0,-3.0,0.0,26.0,-14.0,-2.0,-1.0,1651093818516524.0
-1.0,0.0,0.0,-4.0,3.0,15.0,-1.0,0.0,1651093818529653.0
1.0,-1.0,-1.0,3.0,44.0,-6.0,-2.0,-1.0,1651093818529653.0
1.0,1.0,3.0,4.0,-19.0,4.0,0.0,-1.0,1651093818535684.0
1.0,-1.0,-1.0,-5.0,5.0,-4.0,0.0,-3.0,1651093818535684.0
-1.0,-1.0,-2.0,3.0,1.0,-3.0,0.0,1.0,1651093818552031.0
1.0,-1.0,-1.0,0.0,-18.0,-3.0,-1.0,0.0,1651093818552031.0
-1.0,-1.0,-2.0,-6.0,7.0,-3.0,-2.0,-1.0,1651093818553862.0
0.0,-1.0,-1.0,2.0,-16.0,7.0,1.0,-1.0,1651093818553862.0
-1.0,0.0,-1.0,-6.0,30.0,-8.0,-2.0,-1.0,1651093818575522.0
-2.0,-3.0,-1.0,1.0,-74.0,3.0,-1.0,1.0,1651093818575522.0
-1.0,0.0,-1.0,2.0,45.0,-3.0,0.0,-2.0,1651093818576365.0
1.0,-1.0,1.0,-3.0,-6.0,8.0,0.0,0.0,1651093818576365.0
-1.0,3.0,5.0,1.0,-11.0,-19.0,-3.0,-1.0,1651093818596671.0
-1.0,0.0,-4.0,-8.0,2.0,-2.0,-2.0,-1.0,1651093818596671.0
0.0,-2.0,-1.0,4.0,-20.0,1.0,0.0,1.0,1651093818598665.0
2.0,-1.0,-1.0,3.0,3.0,2.0,-1.0,-1.0,1651093818598665.0
0.0,-1.0,-2.0,-3.0,-3.0,0.0,0.0,-2.0,1651093818613281.0
-1.0,0.0,-2.0,-1.0,10.0,-4.0,-1.0,0.0,1651093818613281.0
0.0,-1.0,-1.0,-4.0,2.0,-2.0,-1.0,0.0,1651093818613655.0
1.0,1.0,0.0,-3.0,-23.0,0.0,1.0,0.0,1651093818613655.0
0.0,0.0,0.0,-1.0,18.0,0.0,-1.0,1.0,1651093818635137.0
0.0,-2.0,1.0,4.0,-23.0,0.0,-1.0,-2.0,1651093818635137.0
0.0,-1.0,-2.0,-2.0,-3.0,-6.0,-1.0,-3.0,1651093818635981.0
-1.0,-2.0,1.0,8.0,2.0,3.0,-1.0,2.0,1651093818635981.0
0.0,-1.0,-6.0,-9.0,-25.0,-3.0,0.0,-3.0,1651093818649134.0
0.0,-1.0,-3.0,0.0,4.0,5.0,0.0,-1.0,1651093818649134.0
-1.0,3.0,3.0,-4.0,0.0,-16.0,-1.0,-1.0,1651093818656265.0
-1.0,0.0,-2.0,0.0,-15.0,11.0,0.0,-1.0,1651093818656265.0
-1.0,0.0,6.0,4.0,10.0,3.0,1.0,-1.0,1651093818672476.0
-1.0,-2.0,-4.0,-7.0,-2.0,-5.0,0.0,1.0,1651093818672476.0
-1.0,-1.0,1.0,3.0,-14.0,2.0,-3.0,-1.0,1651093818673476.0
-2.0,-1.0,-4.0,-3.0,8.0,-5.0,-1.0,-1.0,1651093818673476.0
-3.0,-3.0,-1.0,2.0,-15.0,4.0,0.0,1.0,1651093818695106.0
0.0,0.0,-1.0,-3.0,5.0,3.0,-1.0,-1.0,1651093818695106.0
-2.0,-1.0,0.0,-4.0,-14.0,0.0,0.0,1.0,1651093818695949.0
0.0,0.0,0.0,3.0,9.0,-3.0,1.0,0.0,1651093818695949.0
-1.0,-1.0,-1.0,1.0,-5.0,-2.0,-1.0,1.0,1651093818710203.0
-1.0,-1.0,0.0,0.0,6.0,-9.0,0.0,-1.0,1651093818710203.0
2.0,0.0,-3.0,1.0,-22.0,18.0,-2.0,-2.0,1651093818716237.0
0.0,1.0,2.0,-1.0,32.0,0.0,1.0,-1.0,1651093818716237.0
0.0,-2.0,-3.0,-7.0,-9.0,-14.0,-2.0,-1.0,1651093818732438.0
0.0,0.0,-3.0,4.0,-47.0,11.0,0.0,0.0,1651093818732438.0
1.0,-2.0,-4.0,0.0,22.0,8.0,0.0,1.0,1651093818733439.0
-2.0,-1.0,2.0,-3.0,-11.0,-1.0,-2.0,-1.0,1651093818733439.0
1.0,0.0,3.0,-2.0,15.0,-2.0,0.0,-1.0,1651093818754971.0
0.0,1.0,-2.0,0.0,-24.0,-3.0,1.0,-1.0,1651093818754971.0
0.0,-1.0,-2.0,-1.0,5.0,-8.0,0.0,-2.0,1651093818755852.0
-1.0,0.0,-5.0,-3.0,-2.0,-6.0,-2.0,0.0,1651093818755852.0
-1.0,1.0,-1.0,-4.0,-6.0,10.0,0.0,1.0,1651093818768757.0
0.0,-1.0,1.0,0.0,12.0,-1.0,-2.0,-1.0,1651093818768757.0
-2.0,-1.0,1.0,5.0,5.0,2.0,1.0,0.0,1651093818776730.0
0.0,-2.0,0.0,0.0,-4.0,-1.0,0.0,-1.0,1651093818776730.0
0.0,0.0,-3.0,-1.0,-12.0,-7.0,0.0,-1.0,1651093818792968.0
-1.0,1.0,0.0,0.0,25.0,3.0,0.0,-1.0,1651093818792968.0
-1.0,0.0,0.0,2.0,-2.0,-3.0,0.0,1.0,1651093818793714.0
-1.0,-5.0,-8.0,-2.0,-5.0,-2.0,0.0,0.0,1651093818793714.0
1.0,1.0,3.0,4.0,0.0,-5.0,1.0,1.0,1651093818814717.0
0.0,0.0,0.0,-2.0,10.0,-4.0,0.0,0.0,1651093818814717.0
-2.0,-1.0,-2.0,-4.0,4.0,3.0,-1.0,-3.0,1651093818821284.0
-1.0,2.0,4.0,0.0,4.0,4.0,0.0,-1.0,1651093818821284.0
0.0,-2.0,-6.0,-1.0,-4.0,-5.0,0.0,-1.0,1651093818829398.0
-1.0,-2.0,1.0,6.0,9.0,4.0,1.0,0.0,1651093818829398.0
1.0,-1.0,0.0,-5.0,-10.0,-5.0,1.0,-1.0,1651093818837442.0
0.0,1.0,0.0,0.0,-10.0,0.0,0.0,0.0,1651093818837442.0
-3.0,-1.0,-2.0,6.0,11.0,9.0,0.0,-1.0,1651093818852906.0
-1.0,-1.0,0.0,-3.0,11.0,-4.0,-3.0,1.0,1651093818852906.0
2.0,-2.0,-3.0,-1.0,1.0,-1.0,-1.0,1.0,1651093818853714.0
2.0,1.0,1.0,-3.0,-8.0,-5.0,0.0,-1.0,1651093818853714.0
1.0,0.0,0.0,-2.0,-14.0,-7.0,-1.0,-1.0,1651093818875679.0
-1.0,-1.0,-1.0,-3.0,15.0,21.0,2.0,2.0,1651093818875679.0
0.0,0.0,-2.0,6.0,1.0,-1.0,1.0,-1.0,1651093818877674.0
-1.0,-2.0,-1.0,0.0,24.0,-8.0,0.0,0.0,1651093818877674.0
-1.0,-1.0,-2.0,1.0,-54.0,-8.0,-2.0,-2.0,1651093818888612.0
0.0,-1.0,-5.0,-3.0,6.0,-8.0,0.0,-1.0,1651093818888612.0
-1.0,2.0,8.0,-3.0,-18.0,0.0,-1.0,0.0,1651093818897614.0
1.0,0.0,2.0,1.0,1.0,4.0,-2.0,0.0,1651093818897614.0
-1.0,-1.0,-2.0,-3.0,7.0,6.0,0.0,0.0,1651093818912546.0
1.0,1.0,-2.0,0.0,5.0,0.0,-2.0,-1.0,1651093818912546.0
-1.0,-3.0,-4.0,-3.0,7.0,-3.0,-1.0,-1.0,1651093818913554.0
0.0,-1.0,0.0,-1.0,-22.0,-15.0,-1.0,-1.0,1651093818913554.0
-2.0,-3.0,0.0,-2.0,-2.0,12.0,1.0,-2.0,1651093818935053.0
-1.0,0.0,-2.0,3.0,32.0,-8.0,0.0,0.0,1651093818935053.0
-2.0,0.0,0.0,1.0,6.0,1.0,-1.0,-1.0,1651093818935895.0
0.0,-1.0,-1.0,-2.0,-7.0,7.0,0.0,0.0,1651093818935895.0
-1.0,-1.0,-2.0,-3.0,7.0,-4.0,-1.0,-1.0,1651093818948876.0
1.0,-1.0,0.0,2.0,-31.0,1.0,1.0,0.0,1651093818948876.0
0.0,-2.0,-1.0,-4.0,14.0,-6.0,-2.0,-2.0,1651093818957861.0
0.0,0.0,0.0,2.0,29.0,0.0,-1.0,-2.0,1651093818957861.0
1.0,-1.0,1.0,4.0,-18.0,2.0,1.0,1.0,1651093818972693.0
-1.0,-2.0,-4.0,-2.0,-5.0,-5.0,-2.0,-1.0,1651093818972693.0
1.0,3.0,6.0,-3.0,-10.0,-1.0,-1.0,-1.0,1651093818973693.0
-2.0,-3.0,-2.0,-6.0,-2.0,0.0,0.0,2.0,1651093818973693.0
1.0,0.0,-1.0,1.0,17.0,-2.0,-2.0,-1.0,1651093818994001.0
0.0,0.0,0.0,1.0,0.0,9.0,0.0,1.0,1651093818994001.0
1.0,-1.0,-3.0,-1.0,1.0,0.0,2.0,0.0,1651093819009328.0
1.0,-1.0,1.0,0.0,-9.0,0.0,1.0,-2.0,1651093819009328.0
0.0,-1.0,-1.0,-6.0,3.0,9.0,-2.0,-1.0,1651093819009328.0
0.0,-2.0,-1.0,2.0,5.0,-3.0,2.0,0.0,1651093819009328.0
-2.0,0.0,-3.0,-2.0,-2.0,-9.0,1.0,0.0,1651093819024689.0
-2.0,1.0,2.0,-2.0,-1.0,7.0,0.0,-2.0,1651093819024689.0
0.0,-2.0,-2.0,5.0,-5.0,4.0,-1.0,-1.0,1651093819032907.0
0.0,-2.0,0.0,2.0,20.0,0.0,-3.0,-3.0,1651093819032907.0
0.0,-1.0,-2.0,1.0,5.0,4.0,0.0,0.0,1651093819033692.0
-2.0,0.0,-2.0,0.0,-8.0,-8.0,-1.0,-1.0,1651093819033692.0
0.0,-3.0,-6.0,-2.0,0.0,-5.0,-1.0,0.0,1651093819055417.0
-1.0,0.0,8.0,-3.0,-3.0,12.0,0.0,-1.0,1651093819055417.0
0.0,0.0,-3.0,0.0,-36.0,-1.0,1.0,0.0,1651093819056248.0
-1.0,1.0,-1.0,0.0,20.0,-5.0,-2.0,0.0,1651093819056248.0
-1.0,0.0,0.0,2.0,-15.0,0.0,1.0,-2.0,1651093819068375.0
-2.0,-3.0,-2.0,3.0,41.0,-5.0,-1.0,0.0,1651093819068375.0
0.0,-1.0,-3.0,-11.0,9.0,4.0,0.0,-1.0,1651093819077354.0
0.0,0.0,2.0,7.0,-3.0,-3.0,-1.0,0.0,1651093819077354.0
0.0,1.0,-3.0,-3.0,9.0,-5.0,-1.0,-3.0,1651093819092679.0
0.0,-1.0,-2.0,-5.0,-17.0,-7.0,0.0,1.0,1651093819092679.0
-1.0,0.0,0.0,0.0,-12.0,-2.0,-2.0,1.0,1651093819093678.0
1.0,-1.0,-2.0,-3.0,-5.0,1.0,0.0,0.0,1651093819093678.0
1.0,0.0,2.0,-5.0,39.0,1.0,-1.0,0.0,1651093819114823.0
0.0,-1.0,1.0,3.0,-29.0,1.0,-1.0,0.0,1651093819114823.0
-1.0,-1.0,1.0,6.0,13.0,-3.0,-1.0,0.0,1651093819115680.0
1.0,-1.0,-4.0,-2.0,-22.0,4.0,0.0,-2.0,1651093819115680.0
-2.0,0.0,6.0,-1.0,3.0,-1.0,0.0,-1.0,1651093819129205.0
0.0,-2.0,-3.0,-5.0,-13.0,-13.0,-1.0,-2.0,1651093819129205.0
0.0,0.0,-1.0,-1.0,3.0,8.0,-1.0,-1.0,1651093819136981.0
-1.0,0.0,0.0,3.0,-2.0,-1.0,-1.0,0.0,1651093819136981.0
0.0,1.0,-1.0,-3.0,1.0,0.0,0.0,-1.0,1651093819152329.0
-2.0,0.0,-1.0,-4.0,4.0,-13.0,-2.0,-1.0,1651093819152329.0
-1.0,-1.0,-1.0,3.0,-24.0,-3.0,1.0,-1.0,1651093819154325.0
-1.0,-1.0,0.0,1.0,7.0,8.0,-1.0,-1.0,1651093819154325.0
1.0,-2.0,-2.0,0.0,0.0,-7.0,-2.0,-1.0,1651093819174822.0
0.0,1.0,1.0,-3.0,-29.0,-8.0,-1.0,-2.0,1651093819174822.0
1.0,-1.0,-2.0,0.0,72.0,14.0,1.0,-1.0,1651093819176668.0
-1.0,0.0,0.0,2.0,-11.0,-9.0,0.0,0.0,1651093819176668.0
0.0,-2.0,1.0,1.0,-5.0,-2.0,0.0,0.0,1651093819188970.0
2.0,0.0,0.0,-2.0,2.0,-3.0,-1.0,-1.0,1651093819188970.0
1.0,0.0,-2.0,-3.0,-13.0,10.0,0.0,0.0,1651093819197110.0
0.0,0.0,1.0,2.0,1.0,-2.0,0.0,0.0,1651093819197110.0
-1.0,-2.0,-5.0,6.0,2.0,2.0,0.0,0.0,1651093819212422.0
-2.0,1.0,3.0,-2.0,-7.0,5.0,1.0,-1.0,1651093819212422.0
-2.0,0.0,0.0,-4.0,-4.0,-12.0,-2.0,0.0,1651093819213422.0
-1.0,-2.0,-2.0,-2.0,-1.0,6.0,0.0,0.0,1651093819213422.0
-1.0,-1.0,-1.0,-2.0,-12.0,0.0,0.0,-1.0,1651093819235075.0
0.0,0.0,-1.0,0.0,9.0,11.0,1.0,0.0,1651093819235075.0
0.0,-1.0,-1.0,0.0,-20.0,-9.0,-1.0,1.0,1651093819235914.0
-3.0,0.0,-1.0,-3.0,18.0,4.0,0.0,-1.0,1651093819235914.0
0.0,-1.0,0.0,1.0,-3.0,-4.0,-1.0,0.0,1651093819257670.0
-1.0,-2.0,-1.0,0.0,15.0,2.0,-1.0,0.0,1651093819257670.0
-3.0,0.0,1.0,0.0,-13.0,1.0,-1.0,0.0,1651093819258671.0
1.0,-1.0,-2.0,0.0,-19.0,-8.0,-2.0,1.0,1651093819258671.0
-1.0,0.0,-1.0,-4.0,1.0,2.0,0.0,1.0,1651093819272782.0
-1.0,-2.0,-4.0,1.0,3.0,-6.0,-10.0,-1.0,1651093819272782.0
-1.0,1.0,1.0,6.0,-3.0,0.0,2.0,-2.0,1651093819273630.0
-1.0,1.0,1.0,-10.0,-25.0,-7.0,14.0,-1.0,1651093819273630.0
-1.0,-1.0,1.0,8.0,76.0,6.0,-9.0,1.0,1651093819295064.0
-1.0,1.0,-1.0,-2.0,-13.0,15.0,0.0,-1.0,1651093819295064.0
-2.0,-3.0,-5.0,-3.0,-2.0,-6.0,-12.0,-2.0,1651093819295909.0
-1.0,-1.0,-1.0,-7.0,-5.0,-4.0,-11.0,-1.0,1651093819295909.0
0.0,-1.0,-2.0,-1.0,-21.0,-14.0,9.0,-2.0,1651093819317510.0
0.0,-2.0,0.0,4.0,3.0,6.0,5.0,3.0,1651093819317510.0
0.0,-1.0,0.0,-1.0,7.0,3.0,15.0,2.0,1651093819318510.0
1.0,2.0,-1.0,-3.0,-5.0,-2.0,-10.0,-1.0,1651093819318510.0
-2.0,-1.0,-1.0,-8.0,-15.0,0.0,-5.0,-1.0,1651093819332826.0
-1.0,-3.0,-2.0,-3.0,-1.0,-10.0,-5.0,-4.0,1651093819332826.0
-1.0,0.0,-1.0,1.0,-26.0,0.0,3.0,-2.0,1651093819333536.0
2.0,0.0,2.0,4.0,32.0,7.0,-16.0,-1.0,1651093819333536.0
0.0,0.0,-1.0,0.0,-5.0,-1.0,-11.0,0.0,1651093819355002.0
0.0,-1.0,-5.0,-1.0,1.0,-1.0,20.0,3.0,1651093819355002.0
0.0,2.0,4.0,-8.0,-3.0,0.0,17.0,0.0,1651093819355870.0
-1.0,0.0,0.0,8.0,1.0,4.0,9.0,-1.0,1651093819355870.0
-2.0,-1.0,0.0,1.0,-10.0,-5.0,-48.0,-9.0,1651093819378180.0
-3.0,0.0,-1.0,-5.0,9.0,-16.0,-36.0,-7.0,1651093819378180.0
-2.0,-1.0,-3.0,-3.0,-15.0,7.0,90.0,2.0,1651093819378321.0
4.0,2.0,1.0,-6.0,-10.0,-4.0,-47.0,9.0,1651093819378321.0
3.0,2.0,0.0,3.0,3.0,11.0,54.0,12.0,1651093819393059.0
-2.0,-3.0,1.0,5.0,-11.0,-8.0,5.0,0.0,1651093819393059.0
-7.0,-6.0,-6.0,-4.0,-2.0,-13.0,-39.0,-17.0,1651093819393941.0
4.0,4.0,3.0,2.0,23.0,19.0,22.0,0.0,1651093819393941.0
-4.0,-3.0,-1.0,-10.0,-17.0,-20.0,-86.0,-11.0,1651093819415035.0
-1.0,-2.0,-4.0,0.0,0.0,-5.0,86.0,6.0,1651093819415035.0
-1.0,2.0,2.0,8.0,22.0,15.0,-44.0,8.0,1651093819416032.0
2.0,-5.0,-5.0,-6.0,-37.0,8.0,110.0,10.0,1651093819416032.0
1.0,1.0,-1.0,3.0,7.0,-10.0,-73.0,-11.0,1651093819437659.0
-12.0,2.0,1.0,1.0,6.0,-11.0,-64.0,-31.0,1651093819437659.0
-2.0,0.0,7.0,9.0,13.0,35.0,40.0,-7.0,1651093819438659.0
2.0,0.0,1.0,7.0,2.0,28.0,-16.0,20.0,1651093819438659.0
10.0,4.0,2.0,-5.0,-6.0,-18.0,8.0,13.0,1651093819451925.0
4.0,-4.0,-8.0,-3.0,0.0,-7.0,-17.0,5.0,1651093819451925.0
-3.0,4.0,4.0,0.0,0.0,-47.0,39.0,15.0,1651093819458973.0
-12.0,-6.0,-3.0,-1.0,0.0,29.0,-63.0,-25.0,1651093819458973.0
-2.0,-2.0,-4.0,-3.0,1.0,26.0,84.0,0.0,1651093819474905.0
-5.0,-3.0,-4.0,-5.0,2.0,-33.0,-75.0,-19.0,1651093819474905.0
14.0,-4.0,-4.0,2.0,-6.0,-9.0,48.0,-5.0,1651093819475777.0
2.0,13.0,8.0,4.0,9.0,33.0,30.0,17.0,1651093819475777.0
32.0,0.0,2.0,-2.0,-4.0,10.0,68.0,45.0,1651093819496753.0
-3.0,0.0,2.0,0.0,-2.0,-43.0,-1.0,9.0,1651093819496753.0
-23.0,-2.0,-3.0,-16.0,-10.0,5.0,-19.0,-33.0,1651093819498746.0
-22.0,-3.0,-1.0,6.0,-2.0,-21.0,22.0,-20.0,1651093819498746.0
-36.0,2.0,0.0,-26.0,-8.0,-46.0,25.0,-39.0,1651093819511843.0
11.0,-3.0,0.0,4.0,-21.0,22.0,-2.0,1.0,1651093819511843.0
44.0,4.0,4.0,65.0,53.0,-12.0,-55.0,64.0,1651093819518809.0
-32.0,-10.0,-3.0,-7.0,-6.0,-18.0,-19.0,-29.0,1651093819518809.0
31.0,4.0,1.0,5.0,-6.0,22.0,-31.0,28.0,1651093819534775.0
46.0,11.0,-1.0,-15.0,-9.0,0.0,78.0,39.0,1651093819534775.0
-12.0,0.0,-3.0,-23.0,-12.0,-5.0,24.0,-20.0,1651093819536645.0
8.0,-5.0,-1.0,-2.0,-7.0,-13.0,-25.0,16.0,1651093819536645.0
-83.0,-15.0,-2.0,16.0,35.0,4.0,-11.0,-69.0,1651093819557861.0
76.0,7.0,3.0,-6.0,-31.0,0.0,-8.0,66.0,1651093819557861.0
26.0,3.0,-2.0,-11.0,0.0,-49.0,-85.0,4.0,1651093819558742.0
-71.0,-12.0,-3.0,-1.0,13.0,-41.0,78.0,-82.0,1651093819558742.0
15.0,1.0,2.0,-3.0,-6.0,37.0,-79.0,37.0,1651093819571994.0
53.0,14.0,6.0,11.0,14.0,12.0,100.0,71.0,1651093819571994.0
9.0,2.0,-2.0,-6.0,-10.0,-20.0,-42.0,16.0,1651093819578962.0
7.0,6.0,-3.0,-11.0,-13.0,7.0,-37.0,-19.0,1651093819578962.0
-38.0,-11.0,-3.0,7.0,8.0,-85.0,-44.0,-46.0,1651093819596218.0
-25.0,3.0,1.0,9.0,6.0,59.0,0.0,-27.0,1651093819596218.0
7.0,-8.0,-3.0,-17.0,-22.0,21.0,-16.0,6.0,1651093819598096.0
-22.0,-8.0,-4.0,1.0,18.0,57.0,-28.0,-27.0,1651093819598096.0
-29.0,2.0,0.0,4.0,-16.0,46.0,16.0,-25.0,1651093819618157.0
3.0,-1.0,2.0,-3.0,24.0,-67.0,-29.0,3.0,1651093819618157.0
26.0,0.0,-1.0,-5.0,5.0,12.0,42.0,51.0,1651093819619041.0
50.0,7.0,0.0,-12.0,-22.0,34.0,7.0,33.0,1651093819619041.0
13.0,3.0,3.0,6.0,-1.0,-12.0,-15.0,3.0,1651093819631259.0
-77.0,-13.0,0.0,7.0,5.0,-14.0,6.0,-73.0,1651093819631259.0
-31.0,-3.0,-2.0,-4.0,2.0,-31.0,-53.0,-25.0,1651093819656479.0
55.0,4.0,-1.0,6.0,8.0,-3.0,37.0,70.0,1651093819656479.0
28.0,6.0,3.0,6.0,1.0,27.0,41.0,31.0,1651093819657477.0
-30.0,-2.0,-4.0,-23.0,-14.0,25.0,-28.0,-35.0,1651093819657477.0
-64.0,-9.0,-5.0,4.0,3.0,-23.0,-25.0,-80.0,1651093819660493.0
8.0,-3.0,-4.0,2.0,4.0,-60.0,-60.0,14.0,1651093819660493.0
59.0,-2.0,0.0,1.0,-8.0,-49.0,49.0,50.0,1651093819677463.0
-45.0,1.0,0.0,10.0,16.0,89.0,-66.0,-24.0,1651093819677463.0
40.0,13.0,3.0,-5.0,10.0,96.0,76.0,35.0,1651093819678422.0
-32.0,-6.0,-3.0,-1.0,-11.0,-38.0,22.0,-27.0,1651093819678422.0
-7.0,8.0,4.0,1.0,4.0,56.0,22.0,-11.0,1651093819691711.0
-13.0,-6.0,2.0,3.0,-8.0,-48.0,-20.0,-21.0,1651093819691711.0
-14.0,-9.0,-6.0,-6.0,-2.0,6.0,-36.0,-15.0,1651093819707721.0
4.0,0.0,-1.0,2.0,0.0,-24.0,-24.0,-9.0,1651093819707721.0
-24.0,-8.0,-5.0,-4.0,-7.0,14.0,33.0,-8.0,1651093819714862.0
41.0,1.0,-1.0,-7.0,1.0,21.0,37.0,46.0,1651093819714862.0
1.0,2.0,5.0,16.0,12.0,23.0,-11.0,-9.0,1651093819716700.0
-2.0,-4.0,-4.0,-8.0,6.0,15.0,0.0,5.0,1651093819716700.0
-1.0,3.0,0.0,2.0,-22.0,-68.0,24.0,6.0,1651093819736646.0
-45.0,-7.0,1.0,-3.0,-7.0,26.0,-16.0,-58.0,1651093819736646.0
-20.0,-3.0,-5.0,-4.0,-6.0,-23.0,-38.0,-19.0,1651093819744941.0
60.0,6.0,1.0,-42.0,4.0,64.0,36.0,63.0,1651093819744941.0
-3.0,-2.0,-9.0,18.0,1.0,19.0,-23.0,-18.0,1651093819751059.0
46.0,9.0,8.0,28.0,0.0,-29.0,2.0,62.0,1651093819751059.0
-30.0,-5.0,0.0,3.0,-9.0,-14.0,-22.0,-38.0,1651093819760031.0
-55.0,-13.0,-2.0,3.0,-3.0,-63.0,0.0,-55.0,1651093819760031.0
19.0,11.0,4.0,-34.0,-3.0,-24.0,0.0,1.0,1651093819775993.0
-5.0,-6.0,-11.0,-4.0,2.0,29.0,18.0,-3.0,1651093819775993.0
13.0,3.0,0.0,-3.0,7.0,6.0,35.0,22.0,1651093819776855.0
-5.0,0.0,0.0,10.0,-3.0,17.0,-32.0,-25.0,1651093819776855.0
10.0,-1.0,-2.0,-8.0,-12.0,-31.0,-27.0,38.0,1651093819797690.0
-40.0,-11.0,-1.0,-1.0,9.0,-14.0,-31.0,-57.0,1651093819797690.0
-18.0,-3.0,-2.0,-1.0,8.0,7.0,47.0,2.0,1651093819798691.0
6.0,6.0,2.0,-2.0,-8.0,-7.0,-20.0,30.0,1651093819798691.0
43.0,-1.0,-1.0,22.0,28.0,37.0,52.0,14.0,1651093819810794.0
35.0,6.0,1.0,-4.0,-20.0,23.0,-9.0,35.0,1651093819810794.0
-34.0,-7.0,-1.0,-6.0,-9.0,-104.0,25.0,-26.0,1651093819819635.0
19.0,1.0,0.0,10.0,8.0,-24.0,-8.0,15.0,1651093819819635.0
-3.0,-1.0,-2.0,-9.0,-17.0,-13.0,-4.0,1.0,1651093819835353.0
-15.0,1.0,4.0,-7.0,11.0,-35.0,12.0,-3.0,1651093819835353.0
14.0,0.0,-2.0,-2.0,-9.0,17.0,-28.0,-6.0,1651093819836198.0
-18.0,-1.0,0.0,13.0,0.0,-28.0,57.0,-23.0,1651093819836198.0
-7.0,-5.0,-5.0,-11.0,2.0,26.0,-71.0,-3.0,1651093819857476.0
-32.0,-10.0,-5.0,-1.0,8.0,-10.0,-6.0,-51.0,1651093819857476.0
45.0,16.0,9.0,13.0,-19.0,-76.0,80.0,86.0,1651093819858355.0
16.0,6.0,0.0,4.0,-8.0,9.0,-60.0,1.0,1651093819858355.0
-17.0,1.0,-3.0,2.0,3.0,23.0,43.0,4.0,1651093819871595.0
26.0,7.0,1.0,-11.0,-4.0,58.0,12.0,8.0,1651093819871595.0
-35.0,-12.0,0.0,-14.0,10.0,31.0,-20.0,-31.0,1651093819879691.0
18.0,4.0,4.0,31.0,12.0,-1.0,-24.0,27.0,1651093819879691.0
-29.0,-7.0,-4.0,-5.0,-7.0,-22.0,-10.0,-28.0,1651093819895050.0
17.0,-7.0,-6.0,0.0,13.0,49.0,-25.0,20.0,1651093819895050.0
62.0,18.0,11.0,-2.0,-3.0,-8.0,71.0,68.0,1651093819895886.0
2.0,-2.0,-1.0,1.0,-12.0,-15.0,-32.0,3.0,1651093819895886.0
-25.0,-4.0,2.0,7.0,12.0,39.0,-44.0,-43.0,1651093819933422.0
-35.0,-7.0,-5.0,-3.0,-29.0,-17.0,-57.0,-30.0,1651093819933422.0
4.0,-7.0,-8.0,-1.0,9.0,34.0,42.0,-14.0,1651093819934422.0
-42.0,-1.0,3.0,-11.0,14.0,9.0,-19.0,-41.0,1651093819934422.0
68.0,7.0,0.0,8.0,13.0,43.0,75.0,72.0,1651093819935454.0
-23.0,4.0,3.0,3.0,-13.0,35.0,4.0,-7.0,1651093819935454.0
10.0,-9.0,-11.0,-5.0,-4.0,-48.0,-50.0,17.0,1651093819939414.0
29.0,5.0,6.0,-4.0,-24.0,-66.0,28.0,18.0,1651093819939414.0
-30.0,-3.0,-2.0,-15.0,-12.0,59.0,-14.0,-36.0,1651093819955673.0
-4.0,2.0,0.0,9.0,8.0,-22.0,-3.0,-12.0,1651093819955673.0
-47.0,-3.0,1.0,-2.0,-4.0,126.0,-55.0,-51.0,1651093819956571.0
20.0,-3.0,-6.0,-11.0,9.0,80.0,16.0,29.0,1651093819956571.0
-4.0,-3.0,-2.0,-7.0,-4.0,-43.0,1.0,14.0,1651093819984975.0
31.0,2.0,1.0,4.0,38.0,20.0,10.0,22.0,1651093819984975.0
-23.0,-3.0,5.0,-12.0,-36.0,16.0,-92.0,-52.0,1651093819985815.0
-13.0,3.0,2.0,24.0,-3.0,-75.0,64.0,15.0,1651093819985815.0
10.0,3.0,5.0,7.0,9.0,-65.0,32.0,2.0,1651093819990801.0
-30.0,-5.0,-5.0,0.0,-2.0,-65.0,67.0,-4.0,1651093819990801.0
30.0,-6.0,-4.0,-4.0,18.0,14.0,-44.0,22.0,1651093820000169.0
24.0,5.0,-2.0,-8.0,6.0,-14.0,-24.0,15.0,1651093820000169.0
4.0,3.0,1.0,-1.0,-21.0,14.0,-13.0,-20.0,1651093820014504.0
-17.0,-2.0,2.0,-11.0,2.0,21.0,-10.0,-13.0,1651093820014504.0
-41.0,-9.0,-5.0,0.0,-7.0,16.0,-16.0,-66.0,1651093820016395.0
9.0,-4.0,-2.0,-6.0,-11.0,-72.0,-11.0,39.0,1651093820016395.0
-23.0,2.0,0.0,6.0,13.0,33.0,73.0,9.0,1651093820037697.0
53.0,14.0,3.0,2.0,-4.0,-48.0,5.0,53.0,1651093820037697.0
-46.0,2.0,3.0,9.0,3.0,-5.0,-16.0,-72.0,1651093820038697.0
38.0,-7.0,-7.0,-4.0,20.0,127.0,8.0,51.0,1651093820038697.0
-13.0,-5.0,-1.0,-10.0,-25.0,68.0,-83.0,-46.0,1651093820051024.0
55.0,3.0,0.0,1.0,-4.0,7.0,49.0,68.0,1651093820051024.0
23.0,6.0,2.0,8.0,3.0,5.0,0.0,19.0,1651093820060042.0
-38.0,-6.0,-4.0,-1.0,5.0,58.0,24.0,-49.0,1651093820060042.0
-63.0,-11.0,1.0,-14.0,2.0,-36.0,-69.0,-58.0,1651093820075332.0
21.0,2.0,5.0,9.0,4.0,-34.0,18.0,31.0,1651093820075332.0
53.0,11.0,-2.0,-2.0,-6.0,-9.0,25.0,67.0,1651093820076168.0
0.0,-1.0,2.0,-8.0,-3.0,58.0,40.0,-12.0,1651093820076168.0
-4.0,-3.0,-3.0,11.0,4.0,-14.0,1.0,-3.0,1651093820097317.0
-47.0,-5.0,-4.0,-21.0,-4.0,47.0,-39.0,-55.0,1651093820097317.0
8.0,1.0,-1.0,38.0,15.0,-35.0,26.0,26.0,1651093820098346.0
-19.0,-3.0,1.0,3.0,-7.0,-2.0,-13.0,-25.0,1651093820098346.0
9.0,1.0,3.0,19.0,42.0,-25.0,24.0,-18.0,1651093820111455.0
13.0,5.0,-2.0,-7.0,-15.0,7.0,36.0,56.0,1651093820111455.0
57.0,5.0,1.0,-10.0,12.0,-16.0,-1.0,54.0,1651093820119579.0
-10.0,-2.0,1.0,1.0,-3.0,-23.0,-32.0,-27.0,1651093820119579.0
9.0,5.0,1.0,6.0,-5.0,18.0,24.0,9.0,1651093820134700.0
-44.0,-8.0,-4.0,2.0,17.0,21.0,-18.0,-63.0,1651093820134700.0
-27.0,-7.0,-4.0,-11.0,0.0,111.0,17.0,-21.0,1651093820136567.0
4.0,7.0,4.0,15.0,10.0,-87.0,48.0,24.0,1651093820136567.0
8.0,-1.0,-2.0,-8.0,-4.0,30.0,-27.0,14.0,1651093820158182.0
26.0,-2.0,-6.0,2.0,-4.0,-21.0,-19.0,18.0,1651093820158182.0
-24.0,-3.0,3.0,-14.0,-23.0,-2.0,-23.0,-28.0,1651093820158742.0
-6.0,-1.0,-3.0,-17.0,-13.0,-69.0,-24.0,-13.0,1651093820158742.0
2.0,3.0,3.0,17.0,13.0,71.0,9.0,8.0,1651093820170906.0
12.0,-4.0,-1.0,1.0,-1.0,-46.0,7.0,11.0,1651093820170906.0
12.0,-1.0,-3.0,3.0,4.0,-18.0,93.0,29.0,1651093820179930.0
-10.0,3.0,1.0,-5.0,-23.0,13.0,-48.0,-41.0,1651093820179930.0
-20.0,-8.0,-6.0,-13.0,4.0,-60.0,13.0,1.0,1651093820194215.0
26.0,-1.0,-2.0,4.0,-20.0,57.0,16.0,34.0,1651093820194215.0
-3.0,5.0,4.0,-5.0,-19.0,-17.0,-21.0,-5.0,1651093820209354.0
-9.0,-3.0,-2.0,-1.0,21.0,19.0,-6.0,-15.0,1651093820209354.0
9.0,2.0,-5.0,-2.0,-15.0,21.0,-25.0,6.0,1651093820217492.0
-58.0,-14.0,1.0,-3.0,-13.0,-99.0,-20.0,-72.0,1651093820217492.0
4.0,2.0,0.0,-3.0,14.0,17.0,6.0,9.0,1651093820218332.0
24.0,6.0,-4.0,-1.0,-5.0,-26.0,7.0,30.0,1651093820218332.0
5.0,-10.0,-9.0,3.0,-4.0,-14.0,1.0,-5.0,1651093820239656.0
-51.0,3.0,8.0,0.0,-16.0,14.0,-97.0,-62.0,1651093820239656.0
12.0,-10.0,-3.0,-17.0,7.0,25.0,61.0,28.0,1651093820241654.0
29.0,0.0,2.0,24.0,22.0,46.0,66.0,36.0,1651093820241654.0
3.0,8.0,-2.0,-2.0,5.0,-18.0,-34.0,1.0,1651093820263176.0
-22.0,2.0,1.0,-14.0,-4.0,40.0,29.0,-27.0,1651093820263176.0
1.0,1.0,-3.0,-9.0,-13.0,14.0,-56.0,-1.0,1651093820263644.0
-11.0,-4.0,-3.0,3.0,-6.0,-44.0,-60.0,-28.0,1651093820263644.0
-29.0,-7.0,1.0,-5.0,-5.0,4.0,33.0,-32.0,1651093820278001.0
68.0,6.0,-3.0,5.0,9.0,-80.0,41.0,88.0,1651093820278001.0
4.0,8.0,3.0,-2.0,-1.0,-67.0,-17.0,-3.0,1651093820278840.0
-6.0,-11.0,-5.0,-11.0,-1.0,0.0,21.0,-6.0,1651093820278840.0
20.0,10.0,-1.0,-1.0,-25.0,11.0,-16.0,30.0,1651093820300260.0
-17.0,-6.0,9.0,6.0,20.0,61.0,-12.0,-36.0,1651093820300260.0
-7.0,4.0,-3.0,5.0,6.0,21.0,-42.0,-18.0,1651093820301098.0
-8.0,3.0,-3.0,5.0,8.0,-5.0,5.0,-3.0,1651093820301098.0
-52.0,-24.0,-8.0,-8.0,3.0,30.0,-75.0,-66.0,1651093820314299.0
77.0,26.0,0.0,3.0,-10.0,-55.0,98.0,104.0,1651093820314299.0
20.0,0.0,3.0,9.0,4.0,-18.0,24.0,26.0,1651093820316267.0
-32.0,-2.0,1.0,-15.0,13.0,52.0,-43.0,-51.0,1651093820316267.0
31.0,7.0,5.0,31.0,-4.0,0.0,4.0,34.0,1651093820337507.0
-25.0,-12.0,-5.0,3.0,12.0,15.0,-27.0,-32.0,1651093820337507.0
-20.0,-5.0,-4.0,-10.0,-2.0,-25.0,8.0,-1.0,1651093820338401.0
-16.0,-1.0,-9.0,-15.0,-11.0,-45.0,-15.0,-16.0,1651093820338401.0
34.0,7.0,13.0,4.0,-4.0,-28.0,-9.0,30.0,1651093820360729.0
-11.0,-4.0,1.0,7.0,-4.0,86.0,26.0,-14.0,1651093820360729.0
-49.0,0.0,0.0,4.0,2.0,-17.0,-30.0,-44.0,1651093820361611.0
47.0,4.0,4.0,-14.0,-15.0,57.0,36.0,67.0,1651093820361611.0
5.0,-6.0,-4.0,3.0,13.0,-22.0,29.0,15.0,1651093820374886.0
6.0,7.0,-3.0,5.0,-5.0,19.0,-56.0,-4.0,1651093820374886.0
-48.0,-4.0,1.0,-10.0,-9.0,-25.0,-40.0,-63.0,1651093820380719.0
33.0,2.0,0.0,3.0,11.0,25.0,-28.0,43.0,1651093820380719.0
14.0,-3.0,1.0,-5.0,-3.0,-51.0,-21.0,14.0,1651093820396861.0
-34.0,-5.0,0.0,0.0,15.0,25.0,65.0,-25.0,1651093820396861.0
19.0,-4.0,-6.0,1.0,6.0,19.0,-1.0,15.0,1651093820398887.0
2.0,6.0,3.0,9.0,4.0,12.0,9.0,-5.0,1651093820398887.0
5.0,3.0,-2.0,-17.0,-23.0,-3.0,-7.0,0.0,1651093820419661.0
-19.0,-10.0,1.0,-5.0,0.0,-57.0,-49.0,-33.0,1651093820419661.0
11.0,-1.0,2.0,15.0,11.0,4.0,12.0,18.0,1651093820421483.0
-3.0,4.0,2.0,7.0,-1.0,43.0,-4.0,-10.0,1651093820421483.0
-24.0,-7.0,-6.0,-22.0,-5.0,-114.0,28.0,-27.0,1651093820434972.0
30.0,7.0,-2.0,14.0,5.0,0.0,-47.0,55.0,1651093820434972.0
11.0,3.0,4.0,31.0,0.0,83.0,86.0,-3.0,1651093820440959.0
2.0,-7.0,-5.0,-5.0,-4.0,-31.0,-7.0,11.0,1651093820440959.0
4.0,0.0,-1.0,-10.0,18.0,87.0,28.0,-6.0,1651093820457538.0
-36.0,-3.0,-1.0,-3.0,5.0,35.0,-36.0,-40.0,1651093820457538.0
35.0,3.0,-2.0,4.0,-2.0,-105.0,-12.0,51.0,1651093820458486.0
-29.0,0.0,-1.0,2.0,-12.0,63.0,-15.0,-51.0,1651093820458486.0
-8.0,-8.0,-2.0,-6.0,2.0,23.0,-15.0,-3.0,1651093820479675.0
8.0,8.0,-3.0,-8.0,-6.0,39.0,76.0,24.0,1651093820479675.0
-5.0,-5.0,-2.0,-10.0,0.0,33.0,-75.0,-20.0,1651093820481671.0
6.0,-1.0,5.0,-3.0,-14.0,-24.0,37.0,18.0,1651093820481671.0
19.0,6.0,2.0,-7.0,8.0,77.0,-26.0,9.0,1651093820494860.0
-17.0,-9.0,-4.0,17.0,21.0,-58.0,20.0,-22.0,1651093820494860.0
-10.0,-3.0,-1.0,2.0,-21.0,0.0,14.0,-5.0,1651093820501358.0
-15.0,-2.0,-2.0,-3.0,-11.0,-11.0,2.0,-15.0,1651093820501358.0
-26.0,-6.0,1.0,-12.0,10.0,-3.0,15.0,-10.0,1651093820517357.0
24.0,0.0,-6.0,-2.0,4.0,-18.0,-48.0,16.0,1651093820517357.0
-15.0,2.0,1.0,8.0,5.0,7.0,6.0,-6.0,1651093820518222.0
14.0,0.0,-3.0,-26.0,16.0,-5.0,-27.0,11.0,1651093820518222.0
5.0,1.0,-2.0,6.0,-64.0,-51.0,-39.0,-3.0,1651093820540636.0
2.0,5.0,-2.0,14.0,7.0,-47.0,50.0,2.0,1651093820540636.0
11.0,0.0,5.0,4.0,41.0,-10.0,94.0,21.0,1651093820541475.0
-24.0,-6.0,2.0,11.0,-21.0,-3.0,9.0,3.0,1651093820541475.0
-14.0,6.0,5.0,-8.0,-11.0,-62.0,7.0,8.0,1651093820554607.0
22.0,-4.0,-4.0,-23.0,-13.0,20.0,-34.0,-6.0,1651093820554607.0
-16.0,1.0,-4.0,-1.0,-7.0,-24.0,-65.0,-55.0,1651093820562923.0
26.0,0.0,-2.0,3.0,16.0,-2.0,16.0,56.0,1651093820562923.0
15.0,7.0,-1.0,-2.0,18.0,-57.0,-54.0,10.0,1651093820578082.0
5.0,3.0,6.0,6.0,-30.0,-64.0,69.0,10.0,1651093820578082.0
-1.0,-2.0,-3.0,-13.0,14.0,34.0,-10.0,-3.0,1651093820578920.0
-20.0,-5.0,-1.0,5.0,7.0,4.0,19.0,-35.0,1651093820578920.0
-20.0,-9.0,-3.0,1.0,10.0,71.0,-31.0,-35.0,1651093820600476.0
18.0,5.0,-1.0,-12.0,-14.0,21.0,-18.0,35.0,1651093820600476.0
9.0,0.0,3.0,21.0,-26.0,-9.0,0.0,12.0,1651093820601318.0
-22.0,-8.0,-11.0,-9.0,10.0,-22.0,-42.0,-35.0,1651093820601318.0
6.0,5.0,5.0,7.0,-13.0,-64.0,90.0,15.0,1651093820614529.0
-2.0,-1.0,0.0,-6.0,19.0,30.0,-10.0,-7.0,1651093820614529.0
5.0,1.0,-4.0,-12.0,-17.0,25.0,-18.0,7.0,1651093820621719.0
8.0,1.0,6.0,7.0,-30.0,-9.0,1.0,12.0,1651093820621719.0
-13.0,-9.0,-10.0,-13.0,-5.0,-12.0,4.0,-39.0,1651093820637651.0
-26.0,-2.0,0.0,-1.0,4.0,46.0,8.0,-3.0,1651093820637651.0
21.0,2.0,0.0,-1.0,22.0,112.0,18.0,1.0,1651093820638578.0
1.0,1.0,0.0,-6.0,11.0,-64.0,-15.0,-2.0,1651093820638578.0
28.0,7.0,3.0,15.0,-5.0,36.0,-26.0,43.0,1651093820660298.0
-49.0,-11.0,-1.0,-8.0,-16.0,31.0,-38.0,-96.0,1651093820660298.0
12.0,-1.0,-3.0,1.0,4.0,-1.0,2.0,12.0,1651093820661329.0
14.0,0.0,2.0,2.0,3.0,-72.0,9.0,35.0,1651093820661329.0
27.0,11.0,1.0,6.0,6.0,71.0,51.0,23.0,1651093820674423.0
3.0,-2.0,1.0,4.0,-5.0,-29.0,-19.0,18.0,1651093820674423.0
-29.0,-9.0,-8.0,-10.0,-14.0,-51.0,-59.0,-44.0,1651093820681351.0
-13.0,-3.0,2.0,7.0,0.0,-10.0,44.0,-26.0,1651093820681351.0
-13.0,-2.0,1.0,-7.0,1.0,-5.0,-6.0,-5.0,1651093820697683.0
12.0,1.0,-1.0,-9.0,21.0,4.0,-25.0,7.0,1651093820697683.0
-4.0,-3.0,-4.0,-4.0,-62.0,-13.0,4.0,-10.0,1651093820698683.0
-6.0,4.0,5.0,42.0,34.0,57.0,10.0,9.0,1651093820698683.0
27.0,-1.0,-2.0,1.0,11.0,9.0,-18.0,37.0,1651093820718667.0
-14.0,-5.0,0.0,10.0,22.0,-28.0,-34.0,-40.0,1651093820718667.0
12.0,-1.0,-3.0,-11.0,17.0,-98.0,54.0,51.0,1651093820727848.0
-15.0,2.0,-3.0,-20.0,-26.0,89.0,31.0,1.0,1651093820727848.0
-5.0,3.0,-1.0,4.0,-20.0,4.0,-2.0,13.0,1651093820742964.0
-6.0,-14.0,1.0,-2.0,-5.0,16.0,-17.0,-43.0,1651093820742964.0
-2.0,7.0,1.0,-3.0,10.0,4.0,-72.0,4.0,1651093820743652.0
11.0,3.0,1.0,-6.0,0.0,-28.0,-18.0,-11.0,1651093820743652.0
-11.0,7.0,0.0,-12.0,9.0,-29.0,33.0,6.0,1651093820757780.0
12.0,1.0,-3.0,-2.0,-6.0,-4.0,-16.0,25.0,1651093820757780.0
-52.0,-9.0,-4.0,2.0,19.0,22.0,30.0,-13.0,1651093820758614.0
29.0,4.0,7.0,-1.0,7.0,3.0,-83.0,-23.0,1651093820758614.0
3.0,-5.0,1.0,7.0,-19.0,49.0,32.0,-15.0,1651093820779912.0
4.0,1.0,0.0,8.0,4.0,-19.0,24.0,33.0,1651093820779912.0
2.0,1.0,3.0,-8.0,7.0,46.0,23.0,-5.0,1651093820780909.0
-7.0,-1.0,-6.0,-9.0,-32.0,21.0,-16.0,5.0,1651093820780909.0
-3.0,-2.0,2.0,5.0,5.0,-43.0,-18.0,-4.0,1651093820793933.0
0.0,0.0,-11.0,-71.0,-1.0,10.0,10.0,7.0,1651093820793933.0
9.0,-2.0,-6.0,45.0,-28.0,-20.0,4.0,9.0,1651093820802184.0
-9.0,-2.0,0.0,7.0,-32.0,2.0,-7.0,-23.0,1651093820802184.0
3.0,0.0,4.0,20.0,93.0,9.0,12.0,15.0,1651093820817376.0
1.0,2.0,3.0,-1.0,-22.0,-4.0,20.0,8.0,1651093820817376.0
4.0,-1.0,1.0,-27.0,2.0,-20.0,-12.0,-2.0,1651093820818252.0
-4.0,-2.0,-5.0,-1.0,-13.0,-7.0,11.0,2.0,1651093820818252.0
2.0,-1.0,-5.0,3.0,-38.0,-5.0,4.0,-4.0,1651093820840736.0
-1.0,-1.0,-5.0,4.0,17.0,24.0,-14.0,5.0,1651093820840736.0
1.0,4.0,10.0,-5.0,-1.0,-17.0,-1.0,5.0,1651093820840736.0
-3.0,3.0,1.0,12.0,1.0,1.0,3.0,-4.0,1651093820840736.0
3.0,-1.0,0.0,-11.0,-21.0,2.0,12.0,-2.0,1651093820853908.0
-2.0,1.0,0.0,14.0,-35.0,-14.0,-15.0,-2.0,1651093820853908.0
-1.0,-4.0,-3.0,2.0,67.0,24.0,29.0,-4.0,1651093820862896.0
-2.0,-1.0,2.0,-5.0,40.0,-3.0,7.0,0.0,1651093820862896.0
-2.0,-4.0,-4.0,-10.0,-68.0,-9.0,-17.0,-7.0,1651093820878003.0
-1.0,2.0,5.0,21.0,62.0,-15.0,1.0,6.0,1651093820878003.0
4.0,0.0,3.0,-20.0,3.0,1.0,1.0,3.0,1651093820878843.0
-6.0,-6.0,-7.0,11.0,-23.0,-2.0,0.0,-5.0,1651093820878843.0
-4.0,-4.0,-3.0,12.0,41.0,8.0,-6.0,-3.0,1651093820900153.0
-1.0,1.0,1.0,7.0,-73.0,2.0,6.0,-4.0,1651093820900153.0
6.0,2.0,2.0,-5.0,-13.0,3.0,-4.0,4.0,1651093820900985.0
-3.0,1.0,0.0,-8.0,68.0,-3.0,4.0,-1.0,1651093820900985.0
-2.0,1.0,0.0,-4.0,-51.0,-4.0,-4.0,-3.0,1651093820921834.0
1.0,-2.0,0.0,13.0,85.0,4.0,4.0,1.0,1651093820921834.0
4.0,-1.0,0.0,-6.0,-1.0,-10.0,-6.0,0.0,1651093820923699.0
-6.0,-4.0,-5.0,-9.0,-20.0,-15.0,1.0,-2.0,1651093820923699.0
-1.0,1.0,1.0,3.0,14.0,5.0,1.0,2.0,1651093820936664.0
2.0,-1.0,0.0,-12.0,-117.0,-6.0,4.0,1.0,1651093820936664.0
1.0,-1.0,-1.0,11.0,77.0,3.0,0.0,1.0,1651093820943808.0
-3.0,1.0,0.0,0.0,5.0,5.0,0.0,0.0,1651093820943808.0
-1.0,-3.0,-4.0,-5.0,0.0,-8.0,0.0,0.0,1651093820960162.0
-3.0,-1.0,-2.0,-3.0,5.0,-12.0,-1.0,-3.0,1651093820960162.0
6.0,-1.0,0.0,3.0,-25.0,6.0,-5.0,-2.0,1651093820961136.0
0.0,-1.0,1.0,2.0,-36.0,1.0,4.0,1.0,1651093820961136.0
2.0,0.0,-2.0,-9.0,49.0,-2.0,0.0,-2.0,1651093820973484.0
-1.0,0.0,-1.0,4.0,11.0,7.0,1.0,0.0,1651093820973484.0
-3.0,-1.0,-1.0,-4.0,-51.0,-7.0,-5.0,-2.0,1651093820982460.0
-1.0,0.0,2.0,-1.0,6.0,-6.0,2.0,1.0,1651093820982460.0
1.0,1.0,1.0,4.0,7.0,19.0,2.0,-1.0,1651093820996610.0
-1.0,-2.0,-4.0,2.0,32.0,4.0,0.0,0.0,1651093820996610.0
0.0,2.0,2.0,0.0,8.0,0.0,-3.0,-1.0,1651093821003748.0
-2.0,0.0,-1.0,-7.0,-35.0,-7.0,0.0,-1.0,1651093821003748.0
-2.0,-3.0,-3.0,0.0,12.0,-4.0,0.0,-2.0,1651093821020128.0
0.0,0.0,0.0,4.0,4.0,5.0,-1.0,-1.0,1651093821020128.0
-1.0,-1.0,-3.0,-2.0,2.0,2.0,0.0,-1.0,1651093821020987.0
0.0,0.0,-1.0,1.0,19.0,7.0,0.0,-1.0,1651093821020987.0
-1.0,1.0,1.0,1.0,-2.0,-3.0,0.0,0.0,1651093821043589.0
1.0,0.0,1.0,-3.0,-10.0,-6.0,-2.0,-1.0,1651093821043589.0
-1.0,-3.0,-2.0,-1.0,-7.0,0.0,-1.0,-1.0,1651093821049204.0
0.0,0.0,-3.0,-4.0,5.0,6.0,-1.0,0.0,1651093821049204.0
-1.0,1.0,2.0,-3.0,-25.0,-1.0,3.0,1.0,1651093821057293.0
1.0,1.0,0.0,4.0,6.0,-1.0,1.0,-1.0,1651093821057293.0
-1.0,-3.0,0.0,4.0,-8.0,-2.0,-1.0,-2.0,1651093821064441.0
-1.0,-2.0,-1.0,-1.0,-2.0,-6.0,-1.0,-2.0,1651093821064441.0
0.0,-1.0,-1.0,-1.0,-3.0,-6.0,-1.0,-2.0,1651093821079596.0
-2.0,0.0,0.0,-2.0,6.0,17.0,-1.0,0.0,1651093821079596.0
0.0,-3.0,-1.0,3.0,-9.0,-5.0,-1.0,1.0,1651093821081592.0
0.0,-1.0,0.0,-2.0,2.0,-1.0,1.0,-1.0,1651093821081592.0
0.0,-2.0,-4.0,-7.0,-2.0,-8.0,-1.0,-1.0,1651093821094812.0
-1.0,0.0,6.0,6.0,-49.0,-4.0,-2.0,-1.0,1651093821094812.0
0.0,0.0,-4.0,-3.0,41.0,-1.0,-2.0,-1.0,1651093821101950.0
-1.0,-1.0,-1.0,-5.0,38.0,7.0,1.0,0.0,1651093821101950.0
0.0,-1.0,-1.0,5.0,3.0,-4.0,-4.0,-3.0,1651093821117680.0
-1.0,-3.0,-2.0,-3.0,-9.0,-9.0,-2.0,-1.0,1651093821117680.0
1.0,0.0,-2.0,-18.0,-32.0,3.0,-1.0,0.0,1651093821118680.0
-1.0,-4.0,-3.0,3.0,-6.0,-8.0,-1.0,-1.0,1651093821118680.0
-1.0,-1.0,1.0,15.0,-16.0,17.0,4.0,1.0,1651093821139877.0
0.0,1.0,0.0,-5.0,-28.0,-9.0,0.0,0.0,1651093821139877.0
-2.0,-1.0,1.0,-2.0,27.0,2.0,-2.0,1.0,1651093821140876.0
-2.0,1.0,-2.0,-3.0,-2.0,-2.0,0.0,-1.0,1651093821140876.0
-1.0,-2.0,-2.0,0.0,11.0,-3.0,0.0,1.0,1651093821162177.0
-2.0,2.0,1.0,0.0,4.0,0.0,0.0,-3.0,1651093821162177.0
-2.0,1.0,5.0,1.0,-27.0,0.0,-1.0,-1.0,1651093821163177.0
0.0,-1.0,-2.0,-5.0,-11.0,-4.0,1.0,0.0,1651093821163177.0
0.0,1.0,-2.0,-3.0,-3.0,3.0,-2.0,0.0,1651093821177454.0
1.0,-4.0,-7.0,-3.0,15.0,1.0,0.0,0.0,1651093821177454.0
0.0,1.0,-1.0,0.0,-15.0,-1.0,-2.0,-2.0,1651093821183429.0
0.0,-1.0,2.0,3.0,4.0,0.0,-1.0,0.0,1651093821183429.0
0.0,0.0,1.0,1.0,20.0,1.0,-1.0,0.0,1651093821199624.0
0.0,-1.0,-1.0,-5.0,2.0,-1.0,0.0,-1.0,1651093821199624.0
0.0,-1.0,-3.0,1.0,-9.0,-3.0,0.0,-1.0,1651093821201607.0
0.0,-2.0,-2.0,7.0,-5.0,4.0,-3.0,0.0,1651093821201607.0
-1.0,0.0,0.0,-4.0,43.0,-2.0,0.0,1.0,1651093821222703.0
-1.0,-3.0,1.0,-4.0,5.0,-8.0,0.0,0.0,1651093821222703.0
1.0,-2.0,-2.0,5.0,-8.0,1.0,-1.0,-1.0,1651093821223703.0
-1.0,1.0,1.0,5.0,-4.0,-2.0,-1.0,0.0,1651093821223703.0
0.0,-1.0,-4.0,-5.0,-27.0,4.0,0.0,0.0,1651093821237820.0
-1.0,2.0,0.0,-5.0,25.0,2.0,-1.0,-2.0,1651093821237820.0
-2.0,0.0,2.0,-1.0,-4.0,-6.0,1.0,0.0,1651093821238663.0
-1.0,1.0,4.0,17.0,4.0,6.0,-1.0,-1.0,1651093821238663.0
-2.0,-1.0,-1.0,0.0,-20.0,-5.0,-2.0,0.0,1651093821260116.0
1.0,0.0,-4.0,0.0,-13.0,-19.0,-1.0,-2.0,1651093821260116.0
1.0,2.0,1.0,0.0,84.0,25.0,3.0,1.0,1651093821260956.0
0.0,1.0,1.0,-7.0,4.0,-2.0,1.0,-2.0,1651093821260956.0
-1.0,0.0,-1.0,-2.0,-20.0,-5.0,-1.0,-1.0,1651093821282293.0
-2.0,0.0,-2.0,2.0,-5.0,1.0,-2.0,-1.0,1651093821282293.0
-1.0,-2.0,0.0,-2.0,-24.0,-11.0,-2.0,-1.0,1651093821283324.0
-1.0,2.0,0.0,-2.0,-5.0,3.0,-2.0,-1.0,1651093821283324.0
-1.0,0.0,0.0,-2.0,16.0,-3.0,-1.0,-1.0,1651093821297255.0
0.0,-1.0,-2.0,-8.0,-2.0,2.0,0.0,0.0,1651093821297255.0
-2.0,0.0,0.0,5.0,-11.0,6.0,-1.0,-1.0,1651093821298253.0
-1.0,-3.0,-4.0,1.0,-8.0,-3.0,2.0,1.0,1651093821298253.0
0.0,-2.0,-1.0,-4.0,-14.0,3.0,1.0,-2.0,1651093821320621.0
-2.0,3.0,5.0,4.0,-5.0,5.0,-1.0,0.0,1651093821320621.0
0.0,-1.0,-3.0,-1.0,2.0,-4.0,0.0,0.0,1651093821321626.0
0.0,1.0,-2.0,-7.0,11.0,-1.0,-2.0,-3.0,1651093821321626.0
-1.0,-1.0,-3.0,1.0,-1.0,-7.0,0.0,-2.0,1651093821343015.0
-1.0,-1.0,-2.0,-2.0,23.0,4.0,1.0,0.0,1651093821343015.0
-1.0,0.0,0.0,-3.0,-20.0,-4.0,0.0,0.0,1651093821343858.0
0.0,-2.0,-1.0,-4.0,4.0,6.0,0.0,2.0,1651093821343858.0
0.0,0.0,1.0,2.0,7.0,-6.0,-1.0,0.0,1651093821356982.0
0.0,-1.0,-1.0,-1.0,17.0,8.0,-1.0,-1.0,1651093821356982.0
-2.0,-2.0,-2.0,-8.0,-58.0,-26.0,-3.0,-1.0,1651093821362980.0
-1.0,0.0,-2.0,0.0,7.0,30.0,0.0,0.0,1651093821362980.0
1.0,1.0,4.0,5.0,10.0,2.0,1.0,-1.0,1651093821379642.0
0.0,1.0,1.0,1.0,7.0,-2.0,1.0,0.0,1651093821379642.0
-1.0,-1.0,-4.0,3.0,-7.0,8.0,0.0,-2.0,1651093821381475.0
1.0,0.0,0.0,-4.0,-8.0,-8.0,-1.0,-2.0,1651093821381475.0
-1.0,0.0,2.0,1.0,-8.0,-6.0,-1.0,0.0,1651093821401938.0
0.0,-1.0,-4.0,-6.0,13.0,16.0,-1.0,0.0,1651093821401938.0
1.0,-2.0,-7.0,5.0,-13.0,-4.0,-1.0,-1.0,1651093821403772.0
0.0,2.0,8.0,-3.0,0.0,-9.0,-1.0,-1.0,1651093821403772.0
0.0,1.0,-1.0,0.0,4.0,0.0,-2.0,-1.0,1651093821417096.0
0.0,-1.0,-1.0,0.0,-17.0,-1.0,1.0,-2.0,1651093821417096.0
-3.0,0.0,1.0,4.0,8.0,2.0,0.0,0.0,1651093821423975.0
0.0,-4.0,-4.0,-4.0,-10.0,-5.0,2.0,0.0,1651093821423975.0
0.0,0.0,1.0,-1.0,5.0,-2.0,0.0,-1.0,1651093821440328.0
0.0,0.0,2.0,2.0,-12.0,-2.0,0.0,-1.0,1651093821440328.0
-1.0,1.0,0.0,-5.0,12.0,1.0,-1.0,-1.0,1651093821441328.0
0.0,-2.0,-3.0,-4.0,-20.0,-8.0,-1.0,-1.0,1651093821441328.0
-1.0,-1.0,1.0,0.0,20.0,-1.0,0.0,0.0,1651093821462609.0
1.0,-1.0,2.0,3.0,-51.0,29.0,2.0,1.0,1651093821462609.0
-2.0,-1.0,2.0,4.0,5.0,-2.0,1.0,-1.0,1651093821463445.0
-1.0,-1.0,-1.0,-10.0,-2.0,-4.0,1.0,0.0,1651093821463445.0
2.0,-2.0,-4.0,-2.0,-39.0,-8.0,-2.0,-2.0,1651093821476777.0
-2.0,-2.0,-3.0,-3.0,38.0,-7.0,-2.0,-2.0,1651093821476777.0
3.0,3.0,2.0,4.0,14.0,3.0,0.0,0.0,1651093821483790.0
-1.0,-4.0,-6.0,-2.0,-19.0,-1.0,0.0,-1.0,1651093821483790.0
-1.0,1.0,7.0,-3.0,15.0,10.0,0.0,1.0,1651093821501420.0
-2.0,1.0,0.0,2.0,-7.0,-10.0,-2.0,-1.0,1651093821501420.0
0.0,1.0,2.0,-4.0,-29.0,-2.0,0.0,-1.0,1651093821501763.0
-1.0,-1.0,-2.0,5.0,24.0,-1.0,-2.0,0.0,1651093821501763.0
-1.0,-2.0,-4.0,-10.0,-9.0,-1.0,1.0,0.0,1651093821523258.0
0.0,-1.0,-1.0,-1.0,1.0,-6.0,0.0,-1.0,1651093821523258.0
1.0,-1.0,-1.0,0.0,13.0,-2.0,-1.0,-2.0,1651093821524128.0
-1.0,0.0,0.0,9.0,30.0,1.0,0.0,0.0,1651093821524128.0
0.0,-1.0,-2.0,-1.0,5.0,-2.0,0.0,-2.0,1651093821536330.0
-1.0,0.0,1.0,2.0,4.0,0.0,1.0,0.0,1651093821536330.0
-1.0,-1.0,-3.0,-8.0,0.0,-12.0,-2.0,-1.0,1651093821551612.0
-1.0,-1.0,-1.0,0.0,-15.0,9.0,-1.0,-2.0,1651093821551612.0
-1.0,-1.0,0.0,2.0,7.0,1.0,-1.0,-2.0,1651093821559622.0
1.0,-1.0,-2.0,0.0,12.0,-10.0,0.0,0.0,1651093821559622.0
-1.0,-1.0,-5.0,3.0,6.0,4.0,1.0,0.0,1651093821561653.0
0.0,0.0,6.0,-6.0,-20.0,-2.0,0.0,-1.0,1651093821561653.0
0.0,-1.0,-3.0,-2.0,20.0,-5.0,-1.0,0.0,1651093821583081.0
0.0,-1.0,-2.0,-3.0,-23.0,-3.0,-1.0,0.0,1651093821583081.0
-2.0,0.0,0.0,7.0,-17.0,11.0,0.0,1.0,1651093821583824.0
0.0,0.0,-3.0,1.0,1.0,-2.0,1.0,1.0,1651093821583824.0
0.0,-3.0,-4.0,-2.0,1.0,1.0,0.0,0.0,1651093821596141.0
0.0,0.0,1.0,-6.0,7.0,-9.0,0.0,-1.0,1651093821596141.0
0.0,2.0,1.0,3.0,11.0,4.0,0.0,1.0,1651093821603003.0
-1.0,-3.0,-1.0,1.0,-7.0,-14.0,-3.0,0.0,1651093821603003.0
0.0,-4.0,-1.0,-1.0,-7.0,11.0,0.0,-1.0,1651093821627697.0
-1.0,-1.0,-3.0,1.0,-3.0,2.0,-1.0,1.0,1651093821627697.0
-1.0,-1.0,2.0,0.0,9.0,-7.0,-2.0,-1.0,1651093821628697.0
0.0,3.0,-1.0,2.0,-12.0,-7.0,1.0,-1.0,1651093821628697.0
-1.0,1.0,-1.0,-10.0,52.0,-4.0,1.0,0.0,1651093821649975.0
-1.0,-6.0,-7.0,9.0,-11.0,-2.0,-2.0,-2.0,1651093821649975.0
-1.0,1.0,5.0,-3.0,-21.0,6.0,0.0,-2.0,1651093821650826.0
2.0,-1.0,2.0,0.0,-2.0,-8.0,0.0,0.0,1651093821650826.0
-2.0,0.0,-1.0,1.0,-25.0,-7.0,-3.0,0.0,1651093821655813.0
-1.0,-1.0,-2.0,-7.0,3.0,-1.0,0.0,0.0,1651093821655813.0
-1.0,-1.0,-3.0,2.0,29.0,-3.0,0.0,-2.0,1651093821664790.0
-1.0,1.0,-2.0,2.0,4.0,5.0,0.0,-1.0,1651093821664790.0
1.0,-1.0,-1.0,-2.0,-12.0,0.0,-1.0,1.0,1651093821679917.0
0.0,0.0,0.0,-9.0,-6.0,-2.0,-1.0,-1.0,1651093821679917.0
1.0,-1.0,0.0,3.0,-10.0,-3.0,0.0,-2.0,1651093821680917.0
-1.0,-1.0,0.0,10.0,12.0,-1.0,0.0,-1.0,1651093821680917.0
-1.0,1.0,0.0,2.0,0.0,4.0,0.0,0.0,1651093821702249.0
1.0,0.0,1.0,1.0,-23.0,-3.0,-3.0,0.0,1651093821702249.0
0.0,-2.0,-3.0,-10.0,39.0,-3.0,-2.0,1.0,1651093821703280.0
0.0,-1.0,-2.0,-3.0,-6.0,4.0,-1.0,1.0,1651093821703280.0
0.0,-3.0,-1.0,5.0,-46.0,-1.0,-2.0,-1.0,1651093821716543.0
0.0,-1.0,-2.0,2.0,54.0,3.0,1.0,-1.0,1651093821716543.0
0.0,1.0,2.0,-1.0,-40.0,-5.0,1.0,-2.0,1651093821724685.0
0.0,1.0,3.0,-2.0,20.0,-7.0,-2.0,1.0,1651093821724685.0
-1.0,0.0,0.0,2.0,3.0,-2.0,1.0,0.0,1651093821739838.0
-2.0,1.0,1.0,-7.0,-19.0,2.0,-2.0,1.0,1651093821739838.0
-2.0,-2.0,-4.0,-4.0,-12.0,-4.0,-1.0,1.0,1651093821740862.0
-3.0,-1.0,-1.0,2.0,28.0,3.0,1.0,-1.0,1651093821740862.0
-1.0,1.0,1.0,1.0,3.0,17.0,1.0,-2.0,1651093821762155.0
0.0,0.0,1.0,4.0,0.0,-2.0,1.0,0.0,1651093821762155.0
0.0,-2.0,-1.0,-2.0,2.0,-4.0,-1.0,-3.0,1651093821764161.0
1.0,1.0,-1.0,-4.0,7.0,1.0,-1.0,0.0,1651093821764161.0
-1.0,0.0,-1.0,-1.0,7.0,8.0,0.0,-2.0,1651093821785592.0
0.0,1.0,0.0,5.0,-4.0,0.0,-2.0,-2.0,1651093821785592.0
-1.0,-4.0,-3.0,-4.0,-20.0,1.0,-1.0,0.0,1651093821786438.0
0.0,-1.0,-3.0,0.0,31.0,1.0,-1.0,-1.0,1651093821786438.0
1.0,0.0,-1.0,3.0,-4.0,-4.0,1.0,-1.0,1651093821800707.0
-2.0,-1.0,1.0,2.0,10.0,-1.0,1.0,-1.0,1651093821800707.0
0.0,0.0,-5.0,-3.0,-6.0,-7.0,-1.0,-1.0,1651093821801595.0
0.0,-1.0,3.0,-4.0,-32.0,9.0,-1.0,0.0,1651093821801595.0
0.0,-1.0,-1.0,5.0,12.0,-6.0,-3.0,0.0,1651093821823204.0
-1.0,-1.0,0.0,0.0,0.0,-2.0,0.0,-1.0,1651093821823204.0
1.0,0.0,0.0,12.0,10.0,5.0,1.0,0.0,1651093821823577.0
-2.0,0.0,-2.0,-6.0,6.0,6.0,1.0,0.0,1651093821823577.0
-1.0,0.0,-3.0,-6.0,-18.0,-4.0,0.0,-1.0,1651093821835508.0
-1.0,-3.0,-3.0,0.0,14.0,-5.0,0.0,-1.0,1651093821835508.0
-1.0,-1.0,0.0,-4.0,-3.0,6.0,-2.0,0.0,1651093821844565.0
-2.0,-1.0,-1.0,-6.0,-25.0,2.0,-1.0,-2.0,1651093821844565.0
-1.0,0.0,2.0,2.0,22.0,-8.0,-2.0,-1.0,1651093821859691.0
0.0,-1.0,-4.0,-3.0,-1.0,-2.0,-1.0,-1.0,1651093821859691.0
0.0,-1.0,-1.0,-1.0,5.0,1.0,-1.0,-1.0,1651093821865804.0
0.0,0.0,0.0,0.0,-19.0,-7.0,-1.0,-1.0,1651093821865804.0
-1.0,-3.0,-6.0,-6.0,-13.0,-6.0,0.0,-1.0,1651093821882811.0
0.0,3.0,6.0,4.0,-1.0,5.0,-2.0,-1.0,1651093821882811.0
-2.0,1.0,-1.0,-8.0,-8.0,-2.0,0.0,0.0,1651093821883682.0
-2.0,0.0,-2.0,3.0,11.0,-5.0,0.0,1.0,1651093821883682.0
0.0,-2.0,-2.0,-3.0,-15.0,5.0,0.0,0.0,1651093821895651.0
2.0,-2.0,-3.0,5.0,-12.0,4.0,-1.0,-2.0,1651093821895651.0
-1.0,0.0,2.0,-3.0,-1.0,-8.0,-1.0,-1.0,1651093821910993.0
-1.0,0.0,-2.0,-4.0,-32.0,-6.0,-2.0,-3.0,1651093821910993.0
0.0,1.0,1.0,2.0,24.0,-2.0,-3.0,-1.0,1651093821928055.0
0.0,1.0,0.0,-2.0,-2.0,0.0,-1.0,-1.0,1651093821928055.0
1.0,1.0,2.0,0.0,-6.0,-4.0,0.0,0.0,1651093821929052.0
0.0,-3.0,-3.0,-1.0,-4.0,-6.0,0.0,-1.0,1651093821929052.0
-1.0,0.0,1.0,2.0,4.0,1.0,0.0,-2.0,1651093821942211.0
0.0,1.0,1.0,-1.0,-5.0,1.0,-1.0,1.0,1651093821942211.0
1.0,1.0,1.0,4.0,18.0,-3.0,-2.0,-2.0,1651093821943211.0
0.0,-5.0,-10.0,-3.0,22.0,11.0,1.0,1.0,1651093821943211.0
-1.0,0.0,5.0,-1.0,2.0,-6.0,-1.0,-1.0,1651093821956540.0
-1.0,0.0,-1.0,-4.0,-4.0,-2.0,1.0,-1.0,1651093821956540.0
-1.0,-2.0,0.0,14.0,3.0,3.0,-1.0,-2.0,1651093821964553.0
0.0,2.0,-1.0,-4.0,-5.0,-5.0,-3.0,-1.0,1651093821964553.0
0.0,0.0,-1.0,-2.0,-7.0,-2.0,-1.0,0.0,1651093821979710.0
0.0,0.0,0.0,-1.0,3.0,-9.0,-1.0,-2.0,1651093821979710.0
-1.0,0.0,-1.0,-4.0,-4.0,3.0,1.0,-2.0,1651093821981709.0
0.0,-1.0,2.0,3.0,1.0,5.0,-1.0,0.0,1651093821981709.0
-1.0,-2.0,-2.0,0.0,-2.0,-4.0,0.0,0.0,1651093822010419.0
-1.0,0.0,0.0,-4.0,1.0,-1.0,-1.0,0.0,1651093822010419.0
-2.0,-2.0,-2.0,0.0,-1.0,-1.0,-3.0,1.0,1651093822011270.0
-1.0,0.0,1.0,4.0,-4.0,-6.0,0.0,0.0,1651093822011270.0
-1.0,-1.0,-4.0,-3.0,-2.0,6.0,0.0,-2.0,1651093822015292.0
0.0,3.0,6.0,3.0,-1.0,3.0,1.0,-1.0,1651093822015292.0
0.0,-2.0,-2.0,-5.0,1.0,-5.0,-1.0,0.0,1651093822025368.0
-2.0,-1.0,-2.0,-4.0,-18.0,-4.0,1.0,-1.0,1651093822025368.0
1.0,-2.0,-1.0,4.0,22.0,0.0,-1.0,0.0,1651093822039646.0
-1.0,-2.0,-3.0,-5.0,-7.0,11.0,-2.0,-2.0,1651093822039646.0
-2.0,0.0,1.0,3.0,8.0,-1.0,-2.0,-3.0,1651093822041538.0
-1.0,0.0,-1.0,0.0,-25.0,1.0,-1.0,0.0,1651093822041538.0
-1.0,1.0,1.0,3.0,-7.0,-13.0,-2.0,0.0,1651093822063027.0
0.0,2.0,-1.0,1.0,3.0,19.0,2.0,0.0,1651093822063027.0
-1.0,-1.0,1.0,-8.0,-3.0,-6.0,-2.0,-1.0,1651093822063500.0
-2.0,0.0,-2.0,7.0,17.0,8.0,1.0,-1.0,1651093822063500.0
0.0,-1.0,-3.0,-6.0,-23.0,-7.0,1.0,0.0,1651093822076601.0
0.0,1.0,0.0,3.0,22.0,-15.0,-3.0,-1.0,1651093822076601.0
1.0,1.0,1.0,5.0,-30.0,17.0,2.0,3.0,1651093822085295.0
0.0,-1.0,0.0,-3.0,19.0,0.0,-1.0,-2.0,1651093822085295.0
-1.0,0.0,-2.0,-7.0,0.0,0.0,0.0,1.0,1651093822100687.0
-1.0,1.0,3.0,2.0,-14.0,-8.0,-1.0,-1.0,1651093822100687.0
0.0,-3.0,-5.0,-2.0,4.0,-1.0,-2.0,-1.0,1651093822101582.0
1.0,1.0,2.0,-3.0,1.0,1.0,-2.0,-2.0,1651093822101582.0
-1.0,-1.0,-1.0,-3.0,-6.0,2.0,0.0,-1.0,1651093822123258.0
-2.0,-3.0,-4.0,2.0,11.0,-3.0,0.0,0.0,1651093822123258.0
-1.0,0.0,1.0,1.0,-14.0,-6.0,-1.0,-2.0,1651093822123701.0
1.0,-1.0,-3.0,-1.0,28.0,-8.0,0.0,-2.0,1651093822123701.0
0.0,-2.0,3.0,3.0,-21.0,24.0,2.0,0.0,1651093822145124.0
1.0,-2.0,1.0,4.0,-8.0,-2.0,0.0,1.0,1651093822145124.0
-1.0,-1.0,-4.0,-9.0,14.0,-1.0,1.0,0.0,1651093822145990.0
-1.0,1.0,-1.0,-5.0,-18.0,-3.0,-1.0,-1.0,1651093822145990.0
-1.0,-1.0,0.0,3.0,9.0,-3.0,-2.0,-1.0,1651093822160272.0
0.0,-2.0,-2.0,1.0,3.0,1.0,-1.0,0.0,1651093822160272.0
0.0,0.0,0.0,2.0,-9.0,-4.0,0.0,0.0,1651093822161272.0
-1.0,0.0,0.0,-3.0,-24.0,7.0,-2.0,0.0,1651093822161272.0
1.0,1.0,6.0,3.0,47.0,-1.0,1.0,-1.0,1651093822182516.0
1.0,-3.0,-2.0,0.0,-14.0,1.0,1.0,-1.0,1651093822182516.0
-1.0,0.0,0.0,-7.0,1.0,-10.0,-1.0,1.0,1651093822183515.0
-2.0,-1.0,-4.0,0.0,1.0,-4.0,-2.0,0.0,1651093822183515.0
-2.0,0.0,-1.0,9.0,36.0,8.0,1.0,0.0,1651093822205883.0
-1.0,-1.0,-4.0,-4.0,-7.0,-12.0,-2.0,0.0,1651093822205883.0
1.0,-2.0,-1.0,-3.0,11.0,26.0,1.0,-1.0,1651093822206780.0
0.0,1.0,2.0,-1.0,-4.0,-2.0,0.0,1.0,1651093822206780.0
1.0,0.0,-2.0,0.0,-30.0,-9.0,-2.0,0.0,1651093822220015.0
-3.0,-1.0,-3.0,-2.0,4.0,-3.0,0.0,-1.0,1651093822220015.0
0.0,2.0,2.0,6.0,21.0,1.0,0.0,0.0,1651093822220925.0
1.0,0.0,1.0,-3.0,-6.0,1.0,1.0,-1.0,1651093822220925.0
-3.0,-1.0,1.0,-2.0,-7.0,-11.0,-4.0,0.0,1651093822242288.0
-2.0,0.0,0.0,-3.0,-6.0,9.0,0.0,1.0,1651093822242288.0
-1.0,-1.0,-4.0,-5.0,-23.0,-6.0,-2.0,-3.0,1651093822243320.0
-2.0,-4.0,-3.0,2.0,14.0,7.0,1.0,0.0,1651093822243320.0
-1.0,1.0,4.0,-7.0,-11.0,-7.0,-1.0,1.0,1651093822265638.0
1.0,0.0,2.0,-7.0,2.0,-5.0,-1.0,0.0,1651093822265638.0
-2.0,-1.0,1.0,6.0,12.0,-4.0,0.0,0.0,1651093822266511.0
0.0,0.0,-1.0,5.0,7.0,1.0,0.0,0.0,1651093822266511.0
1.0,0.0,-4.0,0.0,-14.0,1.0,-2.0,-2.0,1651093822279669.0
0.0,0.0,-2.0,-5.0,-22.0,-2.0,-1.0,-1.0,1651093822279669.0
-2.0,-4.0,-3.0,-4.0,54.0,-1.0,0.0,2.0,1651093822285813.0
1.0,0.0,3.0,3.0,-9.0,0.0,0.0,-2.0,1651093822285813.0
-1.0,-3.0,-3.0,2.0,-9.0,-2.0,0.0,-1.0,1651093822302036.0
-1.0,1.0,3.0,-9.0,-12.0,3.0,1.0,-2.0,1651093822302036.0
1.0,1.0,0.0,5.0,6.0,-9.0,0.0,-1.0,1651093822304066.0
-2.0,0.0,0.0,1.0,-8.0,-10.0,-1.0,-2.0,1651093822304066.0
0.0,-1.0,-2.0,-5.0,9.0,13.0,1.0,0.0,1651093822325504.0
1.0,-2.0,-2.0,5.0,2.0,0.0,-2.0,-1.0,1651093822325504.0
-1.0,-2.0,-3.0,2.0,-16.0,1.0,-1.0,-1.0,1651093822331176.0
-2.0,3.0,8.0,-6.0,6.0,-1.0,0.0,-1.0,1651093822331176.0
-1.0,-1.0,-2.0,5.0,-4.0,-7.0,0.0,-2.0,1651093822339573.0
-2.0,-2.0,-2.0,2.0,1.0,-2.0,0.0,-2.0,1651093822339573.0
0.0,1.0,-4.0,-2.0,-23.0,-3.0,-1.0,-2.0,1651093822345716.0
0.0,0.0,-5.0,-6.0,41.0,6.0,0.0,-1.0,1651093822345716.0
2.0,-1.0,0.0,-2.0,-37.0,-2.0,0.0,1.0,1651093822363024.0
-1.0,-1.0,-1.0,3.0,20.0,5.0,0.0,-1.0,1651093822363024.0
0.0,0.0,1.0,-1.0,-10.0,-6.0,-1.0,-2.0,1651093822363575.0
0.0,-1.0,0.0,0.0,-12.0,-3.0,1.0,-1.0,1651093822363575.0
-2.0,0.0,0.0,-3.0,3.0,3.0,1.0,-2.0,1651093822384911.0
0.0,0.0,-1.0,1.0,8.0,-1.0,-1.0,1.0,1651093822384911.0
0.0,0.0,0.0,1.0,-4.0,-4.0,-1.0,-1.0,1651093822385742.0
1.0,-1.0,0.0,-4.0,-5.0,1.0,-1.0,0.0,1651093822385742.0
-2.0,-1.0,-3.0,2.0,5.0,-3.0,-2.0,-1.0,1651093822399986.0
-1.0,-4.0,-4.0,3.0,2.0,15.0,0.0,0.0,1651093822399986.0
-1.0,3.0,9.0,-7.0,-5.0,-4.0,0.0,1.0,1651093822406306.0
-1.0,-3.0,-4.0,-4.0,-3.0,-1.0,-2.0,0.0,1651093822406306.0
-1.0,-3.0,-3.0,2.0,3.0,3.0,0.0,-1.0,1651093822422519.0
1.0,1.0,-1.0,0.0,2.0,-11.0,-1.0,2.0,1651093822422519.0
-1.0,-2.0,-1.0,4.0,-5.0,3.0,0.0,-2.0,1651093822424548.0
-2.0,-1.0,0.0,2.0,-6.0,-7.0,-2.0,0.0,1651093822424548.0
0.0,0.0,-1.0,-9.0,-14.0,-8.0,-4.0,-1.0,1651093822443827.0
-2.0,-2.0,-4.0,-8.0,-41.0,-11.0,0.0,-3.0,1651093822443827.0
1.0,-1.0,-1.0,11.0,78.0,26.0,6.0,0.0,1651093822451968.0
0.0,2.0,4.0,3.0,-21.0,-2.0,2.0,2.0,1651093822451968.0
0.0,0.0,0.0,3.0,36.0,-1.0,-5.0,0.0,1651093822459043.0
-1.0,-1.0,2.0,-1.0,-17.0,-17.0,-29.0,-5.0,1651093822459043.0
-3.0,-2.0,-2.0,-6.0,-24.0,-15.0,9.0,-3.0,1651093822467090.0
1.0,-2.0,-3.0,-3.0,-5.0,19.0,30.0,3.0,1651093822467090.0
2.0,1.0,0.0,0.0,-2.0,20.0,31.0,8.0,1651093822482243.0
0.0,2.0,2.0,2.0,18.0,-2.0,3.0,1.0,1651093822482243.0
-2.0,-1.0,-3.0,-1.0,-18.0,3.0,-18.0,1.0,1651093822484103.0
-4.0,0.0,-3.0,0.0,13.0,-8.0,-17.0,-5.0,1651093822484103.0
-2.0,1.0,5.0,-3.0,-13.0,-7.0,-9.0,-2.0,1651093822504662.0
-1.0,0.0,2.0,1.0,12.0,1.0,0.0,0.0,1651093822504662.0
0.0,-2.0,-2.0,-4.0,-10.0,-6.0,-3.0,-1.0,1651093822506659.0
-1.0,-2.0,-3.0,-2.0,-6.0,2.0,-2.0,-1.0,1651093822506659.0
0.0,0.0,-2.0,3.0,7.0,-1.0,-3.0,-2.0,1651093822519777.0
-1.0,0.0,0.0,6.0,10.0,0.0,5.0,1.0,1651093822519777.0
0.0,0.0,-1.0,-10.0,-20.0,-1.0,2.0,-1.0,1651093822526758.0
0.0,0.0,-1.0,1.0,10.0,1.0,-3.0,-1.0,1651093822526758.0
0.0,-3.0,-3.0,-1.0,-4.0,-2.0,-7.0,0.0,1651093822543029.0
-1.0,-2.0,0.0,3.0,-8.0,3.0,5.0,1.0,1651093822543029.0
0.0,1.0,1.0,-1.0,-15.0,-1.0,2.0,1.0,1651093822543960.0
2.0,-2.0,1.0,-1.0,13.0,-1.0,-2.0,0.0,1651093822543960.0
-3.0,0.0,-1.0,-4.0,-11.0,-9.0,-5.0,-2.0,1651093822564404.0
0.0,-2.0,-4.0,-8.0,-25.0,3.0,0.0,-1.0,1651093822564404.0
2.0,3.0,2.0,13.0,78.0,8.0,2.0,3.0,1651093822566258.0
1.0,2.0,8.0,0.0,-16.0,-5.0,-6.0,-2.0,1651093822566258.0
1.0,0.0,-1.0,4.0,0.0,-5.0,-3.0,-1.0,1651093822587718.0
2.0,0.0,-1.0,-3.0,-8.0,5.0,3.0,1.0,1651093822587718.0
-2.0,-3.0,-4.0,-7.0,-69.0,-9.0,-3.0,-1.0,1651093822588570.0
-3.0,-3.0,-8.0,1.0,16.0,-3.0,-3.0,-3.0,1651093822588570.0
-1.0,-2.0,-1.0,4.0,35.0,9.0,2.0,1.0,1651093822601915.0
0.0,1.0,3.0,4.0,45.0,2.0,3.0,1.0,1651093822601915.0
0.0,-3.0,0.0,-5.0,65.0,6.0,-1.0,-2.0,1651093822603912.0
1.0,2.0,3.0,-10.0,-48.0,-2.0,-2.0,1.0,1651093822603912.0
-5.0,-7.0,-9.0,-3.0,-40.0,-29.0,-13.0,-7.0,1651093822625677.0
-4.0,-3.0,-5.0,-25.0,-13.0,-8.0,-3.0,-3.0,1651093822625677.0
-2.0,0.0,7.0,10.0,-121.0,-1.0,0.0,-1.0,1651093822626555.0
3.0,1.0,0.0,45.0,126.0,32.0,9.0,7.0,1651093822626555.0
2.0,3.0,6.0,6.0,-105.0,17.0,5.0,0.0,1651093822639310.0
-1.0,-1.0,-4.0,-4.0,-77.0,-15.0,-5.0,-3.0,1651093822639310.0
-1.0,-2.0,-5.0,-18.0,-25.0,-21.0,-4.0,-3.0,1651093822647737.0
0.0,0.0,1.0,-18.0,-23.0,1.0,-1.0,-1.0,1651093822647737.0
1.0,7.0,0.0,7.0,18.0,-6.0,1.0,3.0,1651093822661738.0
-2.0,-4.0,-2.0,41.0,-18.0,18.0,4.0,0.0,1651093822661738.0
-3.0,-4.0,-8.0,-17.0,-106.0,-7.0,-4.0,-3.0,1651093822670276.0
11.0,8.0,12.0,31.0,33.0,16.0,6.0,4.0,1651093822670276.0
4.0,-9.0,-10.0,-26.0,-90.0,-20.0,-5.0,-4.0,1651093822685487.0
-17.0,-1.0,6.0,-4.0,93.0,16.0,5.0,3.0,1651093822685487.0
-1.0,-2.0,-3.0,3.0,-52.0,-7.0,-5.0,-2.0,1651093822686331.0
-10.0,-9.0,-13.0,-40.0,-125.0,-32.0,-11.0,-6.0,1651093822686331.0
10.0,12.0,18.0,50.0,91.0,64.0,21.0,11.0,1651093822699007.0
2.0,-6.0,-4.0,-23.0,-75.0,-25.0,-8.0,-6.0,1651093822699007.0
-1.0,0.0,-3.0,15.0,42.0,9.0,1.0,-1.0,1651093822714637.0
0.0,-3.0,-3.0,-13.0,-59.0,-5.0,-2.0,-2.0,1651093822714637.0
-3.0,-4.0,-10.0,-28.0,22.0,-23.0,-9.0,-5.0,1651093822729598.0
1.0,-3.0,-1.0,24.0,44.0,6.0,1.0,2.0,1651093822729598.0
1.0,6.0,15.0,11.0,22.0,24.0,8.0,5.0,1651093822731593.0
-4.0,-2.0,-2.0,-16.0,-96.0,-17.0,-6.0,-4.0,1651093822731593.0
-7.0,-6.0,-6.0,-5.0,-12.0,-7.0,-6.0,-5.0,1651093822744878.0
5.0,0.0,-4.0,-15.0,-9.0,-6.0,0.0,-3.0,1651093822744878.0
1.0,3.0,4.0,12.0,-53.0,2.0,2.0,1.0,1651093822746729.0
4.0,-2.0,-1.0,1.0,102.0,5.0,-4.0,0.0,1651093822746729.0
-2.0,1.0,0.0,-21.0,-57.0,-9.0,0.0,-1.0,1651093822759523.0
3.0,3.0,1.0,14.0,-26.0,-5.0,2.0,0.0,1651093822759523.0
-2.0,-2.0,-5.0,-11.0,27.0,-13.0,-6.0,-5.0,1651093822767790.0
-5.0,-2.0,2.0,25.0,-68.0,1.0,-2.0,0.0,1651093822767790.0
2.0,2.0,5.0,14.0,96.0,26.0,6.0,3.0,1651093822783115.0
2.0,1.0,-1.0,-7.0,-48.0,-5.0,1.0,1.0,1651093822783115.0
2.0,0.0,-1.0,-35.0,48.0,-8.0,-2.0,3.0,1651093822783833.0
-3.0,-4.0,-3.0,19.0,43.0,12.0,-2.0,-1.0,1651093822783833.0
-4.0,-1.0,-5.0,26.0,-30.0,-16.0,-9.0,-12.0,1651093822805426.0
0.0,1.0,-1.0,-20.0,-41.0,-3.0,-2.0,-1.0,1651093822805426.0
3.0,3.0,12.0,32.0,89.0,17.0,10.0,6.0,1651093822806291.0
0.0,0.0,1.0,-48.0,-128.0,-7.0,-2.0,-1.0,1651093822806291.0
-3.0,-7.0,-6.0,-14.0,52.0,-7.0,-6.0,-2.0,1651093822818389.0
2.0,2.0,1.0,50.0,75.0,7.0,7.0,2.0,1651093822818389.0
-3.0,-3.0,-1.0,2.0,-27.0,-11.0,-3.0,-6.0,1651093822834496.0
2.0,2.0,2.0,16.0,44.0,-9.0,1.0,3.0,1651093822834496.0
-2.0,-2.0,4.0,-10.0,-74.0,-4.0,3.0,1.0,1651093822842506.0
0.0,-3.0,-5.0,-46.0,12.0,-2.0,-2.0,5.0,1651093822842506.0
0.0,-1.0,-4.0,20.0,-32.0,-4.0,-4.0,-4.0,1651093822843506.0
-3.0,2.0,3.0,-17.0,-24.0,1.0,-2.0,-5.0,1651093822843506.0
-2.0,0.0,-6.0,2.0,6.0,7.0,0.0,1.0,1651093822865635.0
-3.0,-2.0,-4.0,-7.0,-44.0,-4.0,-5.0,-7.0,1651093822865635.0
0.0,-3.0,-5.0,-15.0,-15.0,2.0,-2.0,2.0,1651093822866534.0
5.0,5.0,0.0,-10.0,-22.0,-19.0,2.0,3.0,1651093822866534.0
-6.0,-2.0,2.0,16.0,39.0,24.0,5.0,-4.0,1651093822879038.0
1.0,0.0,4.0,-4.0,-60.0,15.0,1.0,6.0,1651093822879038.0
7.0,6.0,5.0,19.0,93.0,21.0,4.0,2.0,1651093822887511.0
1.0,-3.0,-10.0,-28.0,-108.0,-17.0,-3.0,3.0,1651093822887511.0
-2.0,-1.0,3.0,16.0,69.0,-1.0,3.0,-1.0,1651093822901902.0
2.0,4.0,0.0,-21.0,-27.0,24.0,-2.0,-4.0,1651093822901902.0
-9.0,-7.0,-3.0,-15.0,-52.0,1.0,-10.0,-7.0,1651093822908926.0
-5.0,-6.0,-7.0,35.0,-2.0,-29.0,-3.0,-4.0,1651093822908926.0
1.0,2.0,1.0,-29.0,-122.0,-2.0,-5.0,-2.0,1651093822925170.0
1.0,2.0,10.0,56.0,104.0,-10.0,4.0,4.0,1651093822925170.0
-3.0,-4.0,-10.0,-5.0,-67.0,13.0,4.0,0.0,1651093822926051.0
-5.0,-6.0,-8.0,-15.0,-42.0,0.0,-8.0,-8.0,1651093822926051.0
-1.0,-5.0,-8.0,21.0,-18.0,-15.0,-4.0,0.0,1651093822948896.0
-2.0,-1.0,0.0,-23.0,28.0,-1.0,-3.0,-3.0,1651093822948896.0
4.0,4.0,-1.0,-25.0,-113.0,-42.0,-4.0,1.0,1651093822949903.0
0.0,3.0,7.0,10.0,96.0,39.0,8.0,1.0,1651093822949903.0
-3.0,0.0,2.0,-5.0,50.0,5.0,1.0,-2.0,1651093822961992.0
3.0,-1.0,-3.0,-5.0,-76.0,0.0,1.0,5.0,1651093822961992.0
-4.0,-1.0,0.0,2.0,-15.0,-13.0,0.0,-7.0,1651093822968974.0
-8.0,-8.0,-6.0,-2.0,-34.0,-12.0,-5.0,-6.0,1651093822968974.0
3.0,-2.0,-3.0,12.0,57.0,14.0,3.0,5.0,1651093822985171.0
0.0,-2.0,-4.0,4.0,-16.0,-3.0,-5.0,-4.0,1651093822985171.0
0.0,-1.0,2.0,-5.0,-107.0,-22.0,-2.0,-1.0,1651093822986109.0
2.0,1.0,3.0,22.0,76.0,19.0,2.0,2.0,1651093822986109.0
-1.0,0.0,-3.0,-87.0,-112.0,-28.0,-8.0,0.0,1651093822999220.0
-1.0,-2.0,-6.0,49.0,88.0,-11.0,1.0,0.0,1651093822999220.0
-3.0,-3.0,3.0,56.0,127.0,74.0,1.0,-3.0,1651093823007334.0
3.0,8.0,6.0,8.0,-104.0,-37.0,5.0,8.0,1651093823007334.0
-3.0,-5.0,-3.0,-12.0,-82.0,-43.0,-5.0,-5.0,1651093823022461.0
0.0,-1.0,1.0,0.0,66.0,16.0,4.0,-1.0,1651093823022461.0
-1.0,2.0,-2.0,-20.0,-29.0,-7.0,1.0,4.0,1651093823023463.0
-5.0,-5.0,-5.0,-11.0,63.0,-4.0,-9.0,-7.0,1651093823023463.0
3.0,1.0,1.0,18.0,97.0,22.0,3.0,3.0,1651093823045022.0
-7.0,-9.0,-5.0,-42.0,-128.0,-18.0,-9.0,-6.0,1651093823045022.0
5.0,3.0,-3.0,22.0,28.0,-14.0,7.0,4.0,1651093823045886.0
6.0,4.0,7.0,10.0,-26.0,8.0,10.0,10.0,1651093823045886.0
5.0,-3.0,-10.0,-23.0,-128.0,-37.0,-7.0,6.0,1651093823068143.0
-3.0,5.0,11.0,32.0,86.0,43.0,9.0,-8.0,1651093823068143.0
-3.0,-6.0,-5.0,-18.0,-83.0,-17.0,-9.0,-7.0,1651093823069041.0
-7.0,0.0,-5.0,-29.0,-44.0,-1.0,-5.0,-10.0,1651093823069041.0
2.0,3.0,9.0,62.0,45.0,31.0,6.0,5.0,1651093823083187.0
-1.0,-4.0,-7.0,-48.0,-113.0,-15.0,-5.0,-5.0,1651093823083187.0
-1.0,-2.0,3.0,5.0,-5.0,-34.0,-2.0,1.0,1651093823084031.0
1.0,-1.0,-4.0,-1.0,118.0,40.0,5.0,3.0,1651093823084031.0
0.0,-1.0,-4.0,-45.0,-99.0,3.0,-7.0,-4.0,1651093823105428.0
3.0,4.0,4.0,43.0,78.0,14.0,6.0,4.0,1651093823105428.0
1.0,-1.0,2.0,7.0,-94.0,23.0,1.0,4.0,1651093823106273.0
-1.0,-4.0,-1.0,-9.0,-37.0,-24.0,-4.0,2.0,1651093823106273.0
-5.0,2.0,-1.0,11.0,25.0,-5.0,-1.0,-8.0,1651093823127611.0
-2.0,1.0,1.0,-3.0,-6.0,-4.0,-1.0,2.0,1651093823127611.0
-3.0,-2.0,-9.0,-55.0,-65.0,-21.0,-4.0,-5.0,1651093823128459.0
11.0,6.0,6.0,34.0,77.0,42.0,10.0,11.0,1651093823128459.0
-1.0,-3.0,-1.0,-6.0,-35.0,27.0,-3.0,-2.0,1651093823142635.0
-2.0,-2.0,-5.0,-22.0,-57.0,-38.0,-7.0,-1.0,1651093823142635.0
2.0,-1.0,-1.0,-3.0,68.0,-3.0,1.0,3.0,1651093823143636.0
0.0,1.0,1.0,6.0,14.0,-1.0,-7.0,-4.0,1651093823143636.0
-6.0,-2.0,-6.0,4.0,80.0,14.0,3.0,-5.0,1651093823165124.0
1.0,2.0,7.0,28.0,65.0,21.0,0.0,2.0,1651093823165124.0
-2.0,1.0,9.0,45.0,82.0,-8.0,2.0,3.0,1651093823165969.0
0.0,-5.0,-6.0,-43.0,-16.0,26.0,-4.0,-2.0,1651093823165969.0
1.0,2.0,-1.0,-28.0,-73.0,-38.0,-1.0,0.0,1651093823187576.0
0.0,2.0,4.0,83.0,35.0,32.0,2.0,2.0,1651093823187576.0
-2.0,-5.0,-11.0,-27.0,-26.0,-2.0,-2.0,-2.0,1651093823188576.0
3.0,4.0,9.0,18.0,36.0,10.0,3.0,4.0,1651093823188576.0
0.0,1.0,4.0,-49.0,89.0,35.0,9.0,3.0,1651093823201896.0
-6.0,-5.0,-11.0,14.0,-19.0,6.0,-4.0,-5.0,1651093823201896.0
-4.0,-1.0,0.0,12.0,10.0,13.0,-3.0,-5.0,1651093823203729.0
1.0,0.0,-3.0,-28.0,-43.0,-10.0,0.0,-3.0,1651093823203729.0
9.0,0.0,-1.0,23.0,-71.0,6.0,6.0,13.0,1651093823225374.0
-1.0,3.0,8.0,-10.0,-56.0,-24.0,-6.0,-7.0,1651093823225374.0
0.0,-2.0,-2.0,3.0,101.0,7.0,0.0,0.0,1651093823226216.0
-8.0,-9.0,-10.0,-11.0,-128.0,-39.0,-6.0,-7.0,1651093823226216.0
6.0,5.0,6.0,5.0,65.0,-16.0,2.0,4.0,1651093823247563.0
4.0,2.0,0.0,-30.0,8.0,41.0,11.0,9.0,1651093823247563.0
-5.0,-8.0,-14.0,-11.0,-21.0,-8.0,-12.0,-8.0,1651093823248563.0
-4.0,2.0,5.0,3.0,-57.0,-35.0,1.0,-2.0,1651093823248563.0
3.0,5.0,9.0,58.0,59.0,12.0,6.0,2.0,1651093823261873.0
3.0,-1.0,-4.0,-32.0,-128.0,-25.0,-3.0,4.0,1651093823261873.0
-1.0,1.0,1.0,-64.0,-13.0,-22.0,-7.0,-5.0,1651093823268890.0
5.0,1.0,0.0,48.0,84.0,7.0,4.0,5.0,1651093823268890.0
-11.0,-7.0,-4.0,-10.0,-67.0,4.0,-11.0,-12.0,1651093823284988.0
6.0,1.0,-1.0,-27.0,85.0,-15.0,7.0,9.0,1651093823284988.0
1.0,-2.0,0.0,-29.0,-6.0,16.0,2.0,3.0,1651093823285860.0
-6.0,-2.0,-6.0,40.0,82.0,-24.0,-4.0,-10.0,1651093823285860.0
6.0,7.0,7.0,30.0,66.0,15.0,4.0,6.0,1651093823315804.0
-5.0,-8.0,-7.0,-28.0,-72.0,-10.0,-7.0,-9.0,1651093823315804.0
1.0,2.0,1.0,-4.0,-62.0,-8.0,4.0,2.0,1651093823316675.0
4.0,3.0,6.0,0.0,24.0,15.0,3.0,0.0,1651093823316675.0
-7.0,-10.0,-11.0,-12.0,-92.0,-32.0,-12.0,-9.0,1651093823321640.0
-4.0,1.0,5.0,42.0,91.0,45.0,4.0,-3.0,1651093823321640.0
6.0,7.0,6.0,10.0,-71.0,34.0,11.0,10.0,1651093823328803.0
-14.0,-13.0,-10.0,-7.0,-68.0,-9.0,-11.0,-13.0,1651093823328803.0
4.0,4.0,3.0,-26.0,34.0,-20.0,2.0,5.0,1651093823345124.0
4.0,2.0,-7.0,-22.0,13.0,-44.0,-6.0,-1.0,1651093823345124.0
-3.0,-1.0,7.0,63.0,-35.0,-24.0,-4.0,-2.0,1651093823345962.0
1.0,1.0,-2.0,-19.0,33.0,67.0,9.0,3.0,1651093823345962.0
-2.0,0.0,2.0,47.0,-44.0,-34.0,-5.0,-4.0,1651093823368404.0
-2.0,-2.0,0.0,-45.0,-45.0,-17.0,-1.0,1.0,1651093823368404.0
-2.0,-3.0,-12.0,3.0,-18.0,-26.0,-9.0,-5.0,1651093823369246.0
-4.0,-3.0,2.0,-7.0,43.0,12.0,-1.0,-2.0,1651093823369246.0
-7.0,-3.0,-6.0,-49.0,-13.0,2.0,-5.0,-10.0,1651093823382305.0
2.0,2.0,1.0,14.0,21.0,9.0,1.0,0.0,1651093823382305.0
4.0,2.0,-1.0,-9.0,-52.0,-19.0,2.0,7.0,1651093823388959.0
2.0,2.0,2.0,-9.0,-89.0,17.0,-6.0,-1.0,1651093823388959.0
-1.0,0.0,1.0,12.0,86.0,20.0,2.0,-2.0,1651093823405676.0
-2.0,0.0,1.0,7.0,2.0,2.0,-2.0,-4.0,1651093823405676.0
2.0,0.0,-4.0,-13.0,24.0,22.0,7.0,5.0,1651093823406556.0
-1.0,1.0,4.0,0.0,45.0,-28.0,4.0,1.0,1651093823406556.0
0.0,-1.0,0.0,57.0,-128.0,-1.0,0.0,1.0,1651093823427954.0
-1.0,-5.0,-3.0,-5.0,28.0,-9.0,-3.0,1.0,1651093823427954.0
0.0,1.0,1.0,-10.0,30.0,22.0,1.0,1.0,1651093823428781.0
-4.0,-5.0,8.0,64.0,-37.0,-9.0,-3.0,-4.0,1651093823428781.0
-2.0,-4.0,-4.0,-18.0,53.0,24.0,1.0,1.0,1651093823441472.0
7.0,5.0,4.0,-5.0,-64.0,-15.0,4.0,7.0,1651093823441472.0
0.0,1.0,0.0,-7.0,10.0,32.0,5.0,1.0,1651093823449214.0
-2.0,-2.0,-6.0,-36.0,-122.0,-23.0,-7.0,-4.0,1651093823449214.0
3.0,0.0,1.0,8.0,14.0,-29.0,0.0,2.0,1651093823465506.0
-8.0,-5.0,-7.0,-9.0,76.0,6.0,-5.0,-9.0,1651093823465506.0
7.0,6.0,9.0,-2.0,3.0,3.0,8.0,7.0,1651093823466397.0
-3.0,-2.0,-4.0,0.0,-53.0,-10.0,-2.0,-2.0,1651093823466397.0
0.0,0.0,2.0,-15.0,-37.0,8.0,2.0,2.0,1651093823487828.0
-1.0,-1.0,-6.0,-24.0,-53.0,-50.0,-6.0,-2.0,1651093823487828.0
0.0,-1.0,1.0,-16.0,87.0,29.0,2.0,3.0,1651093823488668.0
2.0,1.0,-2.0,44.0,-12.0,-17.0,1.0,2.0,1651093823488668.0
0.0,1.0,2.0,-2.0,-38.0,46.0,2.0,0.0,1651093823501994.0
-11.0,-8.0,0.0,2.0,-53.0,-20.0,-11.0,-15.0,1651093823501994.0
-9.0,-7.0,-12.0,20.0,94.0,-12.0,-8.0,-10.0,1651093823508977.0
5.0,6.0,5.0,-34.0,-79.0,-33.0,-1.0,6.0,1651093823508977.0
9.0,6.0,6.0,12.0,109.0,24.0,13.0,14.0,1651093823525271.0
-6.0,-4.0,-2.0,-24.0,-118.0,-9.0,-5.0,-8.0,1651093823525271.0
-2.0,-7.0,-7.0,-1.0,-46.0,-12.0,-7.0,-5.0,1651093823526111.0
1.0,-3.0,-7.0,-21.0,-53.0,28.0,0.0,4.0,1651093823526111.0
-4.0,2.0,5.0,-6.0,43.0,7.0,8.0,-4.0,1651093823548892.0
7.0,10.0,1.0,14.0,-90.0,39.0,11.0,9.0,1651093823548892.0
-5.0,0.0,4.0,1.0,-33.0,-26.0,-6.0,-10.0,1651093823549625.0
-1.0,-4.0,-12.0,-34.0,-15.0,-8.0,-4.0,0.0,1651093823549625.0
-2.0,0.0,4.0,44.0,-34.0,-11.0,-1.0,-2.0,1651093823561948.0
3.0,0.0,0.0,2.0,54.0,32.0,5.0,6.0,1651093823561948.0
-8.0,-5.0,-4.0,-5.0,-31.0,-9.0,-6.0,-9.0,1651093823569775.0
1.0,0.0,-2.0,-26.0,4.0,-3.0,-1.0,-2.0,1651093823569775.0
0.0,1.0,0.0,-18.0,86.0,27.0,0.0,-1.0,1651093823593198.0
5.0,3.0,5.0,53.0,-32.0,16.0,2.0,5.0,1651093823593198.0
1.0,0.0,2.0,-6.0,-71.0,-39.0,1.0,4.0,1651093823593891.0
-1.0,-3.0,0.0,3.0,14.0,-7.0,-1.0,1.0,1651093823593891.0
-7.0,-4.0,-3.0,-60.0,-29.0,-32.0,-17.0,-12.0,1651093823608013.0
9.0,7.0,3.0,32.0,62.0,21.0,11.0,10.0,1651093823608013.0
5.0,3.0,13.0,58.0,127.0,29.0,9.0,7.0,1651093823608889.0
-7.0,-7.0,-6.0,-61.0,-55.0,-12.0,-7.0,-14.0,1651093823608889.0
0.0,0.0,-6.0,-27.0,44.0,-21.0,-2.0,0.0,1651093823620975.0
1.0,0.0,5.0,49.0,-90.0,-33.0,-3.0,1.0,1651093823620975.0
-1.0,-1.0,2.0,21.0,12.0,26.0,4.0,3.0,1651093823629799.0
2.0,2.0,-2.0,-6.0,20.0,-18.0,-1.0,-1.0,1651093823629799.0
-1.0,0.0,0.0,-3.0,0.0,4.0,-1.0,1.0,1651093823646270.0
-1.0,-4.0,-3.0,-16.0,-28.0,33.0,-3.0,0.0,1651093823646270.0
-5.0,-2.0,-2.0,-5.0,-87.0,17.0,-1.0,-4.0,1651093823647144.0
0.0,3.0,4.0,4.0,87.0,26.0,9.0,4.0,1651093823647144.0
-5.0,-5.0,-7.0,1.0,-44.0,-16.0,-9.0,-4.0,1651093823667524.0
-9.0,-7.0,-10.0,-1.0,-56.0,-9.0,-9.0,-10.0,1651093823667524.0
4.0,0.0,3.0,-23.0,5.0,-5.0,0.0,-2.0,1651093823668524.0
4.0,3.0,1.0,30.0,15.0,24.0,5.0,8.0,1651093823668524.0
-3.0,-1.0,-2.0,-10.0,-76.0,11.0,0.0,2.0,1651093823680733.0
-8.0,-3.0,-6.0,15.0,77.0,-26.0,-8.0,-10.0,1651093823680733.0
7.0,8.0,5.0,4.0,95.0,18.0,6.0,7.0,1651093823689644.0
-3.0,-1.0,1.0,22.0,-57.0,9.0,1.0,0.0,1651093823689644.0
-1.0,-7.0,-14.0,-10.0,-7.0,-8.0,-1.0,-2.0,1651093823704979.0
-6.0,-2.0,4.0,-31.0,44.0,-26.0,-1.0,-2.0,1651093823704979.0
6.0,4.0,1.0,8.0,-79.0,5.0,1.0,4.0,1651093823705834.0
0.0,-2.0,0.0,-3.0,-1.0,12.0,0.0,-3.0,1651093823705834.0
-1.0,-5.0,-6.0,-12.0,-128.0,-34.0,-4.0,-3.0,1651093823728348.0
0.0,-1.0,-2.0,-58.0,46.0,-41.0,6.0,6.0,1651093823728348.0
-3.0,1.0,1.0,62.0,39.0,8.0,0.0,-6.0,1651093823729002.0
-5.0,0.0,4.0,6.0,26.0,-15.0,-4.0,-4.0,1651093823729002.0
-1.0,-4.0,0.0,17.0,-20.0,0.0,-3.0,2.0,1651093823741857.0
-2.0,-5.0,-9.0,-88.0,-69.0,-17.0,-6.0,-6.0,1651093823741857.0
0.0,0.0,-2.0,-39.0,-87.0,-16.0,-8.0,2.0,1651093823750460.0
-2.0,2.0,6.0,86.0,38.0,-3.0,-1.0,-3.0,1651093823750460.0
6.0,1.0,4.0,-17.0,-15.0,-16.0,3.0,3.0,1651093823765537.0
-4.0,-2.0,-7.0,-32.0,3.0,39.0,-7.0,-2.0,1651093823765537.0
8.0,8.0,5.0,-7.0,-14.0,-7.0,15.0,12.0,1651093823766470.0
-2.0,-5.0,-8.0,-25.0,-30.0,3.0,-5.0,-4.0,1651093823766470.0
-6.0,-3.0,0.0,42.0,-14.0,-11.0,-6.0,-4.0,1651093823786882.0
-5.0,-2.0,0.0,9.0,-74.0,-14.0,-3.0,-6.0,1651093823786882.0
-5.0,-4.0,-4.0,-20.0,12.0,-20.0,-9.0,-13.0,1651093823788768.0
4.0,1.0,-1.0,-12.0,-75.0,-16.0,2.0,2.0,1651093823788768.0
9.0,10.0,18.0,24.0,123.0,54.0,17.0,12.0,1651093823810417.0
-1.0,-3.0,-3.0,21.0,-64.0,-15.0,-5.0,-5.0,1651093823810417.0
-9.0,-7.0,-3.0,12.0,-75.0,-39.0,-9.0,-6.0,1651093823811417.0
5.0,9.0,10.0,2.0,88.0,16.0,8.0,6.0,1651093823811417.0
-3.0,-6.0,-13.0,-9.0,-53.0,-22.0,-5.0,-4.0,1651093823825736.0
-1.0,-2.0,-2.0,-20.0,91.0,6.0,-2.0,-2.0,1651093823825736.0
6.0,2.0,4.0,29.0,-18.0,-33.0,6.0,10.0,1651093823826609.0
-8.0,-7.0,-11.0,-24.0,-128.0,11.0,-7.0,-8.0,1651093823826609.0
6.0,9.0,12.0,32.0,116.0,64.0,12.0,6.0,1651093823847717.0
1.0,1.0,1.0,-9.0,-94.0,-36.0,-5.0,0.0,1651093823847717.0
-1.0,-6.0,-10.0,31.0,-14.0,25.0,-7.0,-6.0,1651093823848715.0
-10.0,-2.0,3.0,-14.0,-4.0,-9.0,-6.0,-8.0,1651093823848715.0
2.0,0.0,-1.0,2.0,-16.0,-20.0,-3.0,0.0,1651093823869300.0
4.0,5.0,1.0,-21.0,-43.0,78.0,9.0,3.0,1651093823869300.0
0.0,0.0,0.0,9.0,105.0,16.0,2.0,-2.0,1651093823871546.0
5.0,-2.0,0.0,6.0,109.0,-10.0,2.0,7.0,1651093823871546.0
-7.0,-3.0,-4.0,-50.0,-97.0,-6.0,-4.0,-4.0,1651093823884866.0
-1.0,-5.0,-6.0,39.0,23.0,-13.0,0.0,4.0,1651093823884866.0
-8.0,-3.0,5.0,-31.0,-29.0,-16.0,-9.0,-13.0,1651093823885704.0
6.0,-2.0,-3.0,15.0,-18.0,22.0,6.0,4.0,1651093823885704.0
-11.0,-6.0,-9.0,-31.0,-100.0,-38.0,-12.0,-12.0,1651093823908214.0
9.0,8.0,10.0,26.0,75.0,21.0,12.0,12.0,1651093823908214.0
1.0,-4.0,-10.0,-9.0,-128.0,37.0,3.0,7.0,1651093823908909.0
-9.0,-3.0,6.0,6.0,-8.0,0.0,-3.0,-12.0,1651093823908909.0
0.0,-3.0,-5.0,24.0,82.0,-15.0,-3.0,1.0,1651093823921043.0
5.0,2.0,1.0,4.0,-32.0,15.0,5.0,10.0,1651093823921043.0
-7.0,-5.0,-6.0,-24.0,66.0,4.0,-1.0,-8.0,1651093823930186.0
-7.0,-8.0,-5.0,-33.0,-58.0,-8.0,-4.0,-5.0,1651093823930186.0
4.0,5.0,1.0,8.0,-38.0,-24.0,-2.0,-4.0,1651093823945613.0
-2.0,-3.0,2.0,29.0,-15.0,-10.0,4.0,1.0,1651093823945613.0
-5.0,-1.0,1.0,-11.0,-10.0,16.0,2.0,4.0,1651093823946456.0
4.0,1.0,-3.0,-9.0,41.0,15.0,5.0,6.0,1651093823946456.0
-15.0,-5.0,-4.0,8.0,-39.0,-6.0,-10.0,-18.0,1651093823967779.0
7.0,-1.0,0.0,-8.0,82.0,-21.0,3.0,4.0,1651093823967779.0
1.0,5.0,3.0,-6.0,-65.0,17.0,5.0,6.0,1651093823968615.0
3.0,6.0,5.0,1.0,-7.0,-8.0,2.0,3.0,1651093823968615.0
6.0,1.0,-3.0,-18.0,-9.0,17.0,3.0,11.0,1651093823980661.0
-10.0,-6.0,-1.0,47.0,-41.0,-19.0,-6.0,-8.0,1651093823980661.0
5.0,-1.0,-1.0,0.0,76.0,-4.0,2.0,5.0,1651093823989793.0
-7.0,-3.0,-5.0,1.0,-9.0,-34.0,-1.0,-7.0,1651093823989793.0
2.0,4.0,1.0,-25.0,3.0,33.0,4.0,0.0,1651093824005107.0
3.0,1.0,-4.0,-27.0,-2.0,25.0,1.0,-2.0,1651093824005107.0
1.0,2.0,6.0,34.0,-15.0,-26.0,0.0,2.0,1651093824005942.0
4.0,0.0,-2.0,-3.0,14.0,-18.0,-5.0,4.0,1651093824005942.0
0.0,-2.0,-5.0,-41.0,-71.0,7.0,-7.0,-2.0,1651093824027554.0
-5.0,2.0,4.0,35.0,60.0,44.0,8.0,-2.0,1651093824027554.0
5.0,3.0,3.0,9.0,-54.0,-2.0,0.0,-2.0,1651093824028554.0
-1.0,4.0,-4.0,-21.0,28.0,6.0,3.0,4.0,1651093824028554.0
1.0,-6.0,4.0,17.0,-27.0,-34.0,-6.0,4.0,1651093824049698.0
-4.0,-2.0,3.0,2.0,1.0,7.0,-1.0,-7.0,1651093824049698.0
-5.0,-3.0,-10.0,-32.0,-32.0,-10.0,-7.0,-3.0,1651093824050695.0
6.0,8.0,-1.0,-9.0,96.0,4.0,3.0,6.0,1651093824050695.0
9.0,4.0,7.0,38.0,43.0,22.0,8.0,13.0,1651093824065015.0
-3.0,1.0,5.0,-18.0,-2.0,-5.0,-8.0,-27.0,1651093824065015.0
-7.0,-7.0,-7.0,9.0,-82.0,-7.0,-3.0,-12.0,1651093824065850.0
4.0,1.0,8.0,46.0,27.0,-15.0,0.0,4.0,1651093824065850.0
-2.0,-1.0,-4.0,-72.0,60.0,44.0,5.0,1.0,1651093824088148.0
6.0,4.0,0.0,56.0,25.0,-17.0,5.0,7.0,1651093824088148.0
-1.0,-5.0,-6.0,-39.0,-29.0,-19.0,-7.0,-2.0,1651093824089017.0
-2.0,-5.0,-1.0,0.0,-28.0,8.0,-5.0,-3.0,1651093824089017.0
4.0,0.0,1.0,4.0,11.0,-19.0,7.0,4.0,1651093824110420.0
-6.0,-1.0,2.0,-17.0,-26.0,13.0,-3.0,-1.0,1651093824110420.0
-2.0,-3.0,-3.0,21.0,1.0,36.0,-6.0,-2.0,1651093824111265.0
5.0,3.0,9.0,17.0,17.0,15.0,8.0,5.0,1651093824111265.0
-10.0,-7.0,-7.0,-15.0,-102.0,-18.0,-11.0,-11.0,1651093824132957.0
0.0,0.0,-4.0,17.0,-2.0,-10.0,3.0,6.0,1651093824132957.0
1.0,4.0,4.0,-9.0,76.0,4.0,-2.0,-3.0,1651093824133859.0
-4.0,-6.0,-6.0,-8.0,-90.0,1.0,1.0,-2.0,1651093824133859.0
3.0,5.0,8.0,40.0,81.0,5.0,4.0,-10.0,1651093824155145.0
-7.0,-2.0,-3.0,-16.0,-1.0,-23.0,-12.0,15.0,1651093824155145.0
9.0,-5.0,1.0,-7.0,81.0,3.0,21.0,2.0,1651093824157017.0
-8.0,-5.0,-6.0,-5.0,-29.0,-8.0,-5.0,3.0,1651093824157017.0
4.0,9.0,-3.0,8.0,-22.0,-12.0,8.0,10.0,1651093824170086.0
0.0,5.0,-2.0,-10.0,-26.0,-7.0,-9.0,-15.0,1651093824170086.0
14.0,-10.0,-2.0,-5.0,21.0,-22.0,-7.0,8.0,1651093824170947.0
-15.0,0.0,-5.0,-16.0,-7.0,24.0,5.0,5.0,1651093824170947.0
-11.0,1.0,4.0,31.0,18.0,1.0,5.0,0.0,1651093824185308.0
3.0,0.0,0.0,-18.0,-56.0,5.0,0.0,-3.0,1651093824185308.0
-3.0,-1.0,0.0,-6.0,28.0,-10.0,-7.0,-13.0,1651093824191346.0
0.0,-2.0,0.0,11.0,3.0,-1.0,1.0,1.0,1651093824191346.0
0.0,-3.0,-3.0,10.0,36.0,10.0,-2.0,-3.0,1651093824207634.0
-3.0,2.0,2.0,-12.0,-41.0,-24.0,2.0,5.0,1651093824207634.0
-4.0,-4.0,-3.0,-13.0,-23.0,-7.0,-2.0,-6.0,1651093824208633.0
3.0,3.0,-1.0,8.0,26.0,6.0,-3.0,-4.0,1651093824208633.0
-4.0,-5.0,0.0,3.0,-19.0,-17.0,-7.0,-29.0,1651093824236955.0
5.0,-1.0,-2.0,-11.0,26.0,32.0,18.0,15.0,1651093824236955.0
-7.0,3.0,0.0,4.0,-5.0,-3.0,0.0,9.0,1651093824238950.0
9.0,-2.0,3.0,2.0,36.0,-8.0,-1.0,-7.0,1651093824238950.0
-9.0,-1.0,-2.0,-4.0,-30.0,1.0,-3.0,4.0,1651093824252961.0
1.0,-1.0,-6.0,2.0,24.0,-3.0,-2.0,-8.0,1651093824252961.0
-11.0,1.0,7.0,2.0,6.0,7.0,-4.0,-2.0,1651093824253909.0
8.0,0.0,-2.0,-1.0,1.0,7.0,4.0,5.0,1651093824253909.0
0.0,-1.0,-2.0,2.0,-7.0,-11.0,-4.0,1.0,1651093824268035.0
-4.0,0.0,4.0,-3.0,5.0,-3.0,-5.0,1.0,1651093824268035.0
-1.0,3.0,-2.0,-1.0,-6.0,5.0,0.0,5.0,1651093824268870.0
5.0,-2.0,-3.0,-7.0,-13.0,-13.0,-9.0,-2.0,1651093824268870.0
-3.0,-3.0,-7.0,2.0,-1.0,-6.0,0.0,1.0,1651093824290157.0
3.0,-3.0,-3.0,1.0,21.0,-9.0,-1.0,1.0,1651093824290157.0
0.0,3.0,2.0,-3.0,-16.0,18.0,1.0,0.0,1651093824290999.0
-1.0,0.0,1.0,-5.0,-6.0,-2.0,-1.0,-2.0,1651093824290999.0
2.0,-1.0,2.0,5.0,-9.0,2.0,-1.0,6.0,1651093824312269.0
-2.0,-5.0,-5.0,-3.0,26.0,-8.0,1.0,2.0,1651093824312269.0
-1.0,-1.0,-3.0,-5.0,-36.0,-10.0,-2.0,-4.0,1651093824313269.0
-2.0,2.0,4.0,6.0,-10.0,0.0,0.0,-2.0,1651093824313269.0
3.0,1.0,2.0,0.0,9.0,1.0,1.0,3.0,1651093824326590.0
2.0,-3.0,-1.0,-11.0,-23.0,-13.0,-4.0,-1.0,1651093824326590.0
-2.0,0.0,-3.0,0.0,-7.0,7.0,0.0,-2.0,1651093824334909.0
0.0,-2.0,-4.0,6.0,-6.0,-3.0,-4.0,-1.0,1651093824334909.0
1.0,-1.0,0.0,-1.0,-24.0,-2.0,0.0,2.0,1651093824350191.0
2.0,-5.0,3.0,0.0,35.0,8.0,0.0,-2.0,1651093824350191.0
0.0,4.0,0.0,-9.0,-8.0,0.0,0.0,0.0,1651093824351191.0
-1.0,-2.0,0.0,1.0,-1.0,5.0,0.0,-1.0,1651093824351191.0
1.0,-1.0,1.0,-4.0,-6.0,-2.0,0.0,0.0,1651093824364337.0
-3.0,-2.0,-1.0,-3.0,-14.0,1.0,-2.0,-2.0,1651093824364337.0
-3.0,-2.0,-11.0,10.0,19.0,-2.0,0.0,0.0,1651093824371236.0
-1.0,0.0,0.0,-11.0,-2.0,0.0,-2.0,0.0,1651093824371236.0
0.0,0.0,-1.0,5.0,-2.0,-4.0,-3.0,1.0,1651093824387512.0
-1.0,1.0,3.0,7.0,-9.0,-2.0,0.0,-1.0,1651093824387512.0
2.0,1.0,2.0,-16.0,4.0,5.0,2.0,1.0,1651093824388512.0
-1.0,-1.0,-2.0,5.0,1.0,-19.0,-1.0,-2.0,1651093824388512.0
0.0,0.0,-3.0,-4.0,-5.0,4.0,3.0,2.0,1651093824409784.0
4.0,2.0,-3.0,-1.0,2.0,7.0,0.0,-1.0,1651093824409784.0
-4.0,-3.0,6.0,5.0,7.0,-10.0,0.0,0.0,1651093824410818.0
-3.0,4.0,-1.0,1.0,11.0,0.0,-1.0,0.0,1651093824410818.0
7.0,1.0,1.0,4.0,-14.0,0.0,-1.0,-5.0,1651093824425050.0
-2.0,-1.0,-1.0,0.0,36.0,-2.0,1.0,1.0,1651093824425050.0
-3.0,-1.0,-4.0,2.0,6.0,-3.0,-4.0,-2.0,1651093824430932.0
-3.0,-3.0,3.0,2.0,-15.0,6.0,2.0,2.0,1651093824430932.0
1.0,0.0,0.0,-3.0,15.0,-3.0,-1.0,2.0,1651093824447079.0
1.0,-3.0,0.0,2.0,-15.0,9.0,-1.0,-2.0,1651093824447079.0
-1.0,0.0,0.0,0.0,5.0,-4.0,1.0,1.0,1651093824449074.0
-3.0,-2.0,-1.0,-1.0,5.0,-1.0,-2.0,-1.0,1651093824449074.0
-3.0,0.0,-1.0,0.0,5.0,0.0,-1.0,1.0,1651093824470500.0
-2.0,-1.0,-2.0,-2.0,-23.0,-5.0,-1.0,0.0,1651093824470500.0
-2.0,-1.0,-2.0,-3.0,3.0,3.0,1.0,-1.0,1651093824471386.0
2.0,-1.0,-3.0,-3.0,-2.0,-2.0,-2.0,-3.0,1651093824471386.0
-1.0,-2.0,-3.0,2.0,-9.0,-6.0,-1.0,-1.0,1651093824484648.0
1.0,5.0,6.0,0.0,-6.0,2.0,1.0,1.0,1651093824484648.0
1.0,1.0,-2.0,3.0,4.0,3.0,-2.0,0.0,1651093824491741.0
1.0,-1.0,-1.0,-1.0,-10.0,-6.0,0.0,0.0,1651093824491741.0
-1.0,-1.0,3.0,-22.0,6.0,2.0,1.0,1.0,1651093824507902.0
-3.0,-2.0,-3.0,15.0,-4.0,-1.0,-2.0,-1.0,1651093824507902.0
1.0,3.0,2.0,7.0,-9.0,-5.0,0.0,-1.0,1651093824508735.0
1.0,-7.0,-3.0,-2.0,20.0,4.0,0.0,0.0,1651093824508735.0
-4.0,0.0,-2.0,3.0,1.0,1.0,0.0,-1.0,1651093824529873.0
5.0,0.0,-2.0,-10.0,-33.0,3.0,-1.0,1.0,1651093824529873.0
0.0,-2.0,-2.0,-4.0,2.0,-10.0,0.0,-1.0,1651093824530859.0
0.0,-1.0,-1.0,0.0,-12.0,9.0,0.0,-2.0,1651093824530859.0
0.0,0.0,0.0,6.0,4.0,-6.0,0.0,2.0,1651093824560555.0
-3.0,1.0,1.0,-4.0,3.0,5.0,-2.0,-1.0,1651093824560555.0
0.0,0.0,-2.0,0.0,0.0,1.0,-1.0,-2.0,1651093824561461.0
-1.0,-3.0,0.0,-6.0,2.0,-9.0,0.0,-1.0,1651093824561461.0
0.0,-3.0,-9.0,4.0,7.0,3.0,-1.0,-1.0,1651093824567437.0
-1.0,2.0,7.0,2.0,0.0,2.0,1.0,-1.0,1651093824567437.0
0.0,-1.0,1.0,-5.0,0.0,-4.0,-1.0,-2.0,1651093824568411.0
-2.0,1.0,-1.0,0.0,-10.0,1.0,-1.0,0.0,1651093824568411.0
-2.0,-2.0,-2.0,9.0,48.0,4.0,-1.0,0.0,1651093824589641.0
-3.0,-3.0,-4.0,-1.0,-9.0,3.0,1.0,-1.0,1651093824589641.0
4.0,0.0,1.0,0.0,-1.0,2.0,0.0,2.0,1651093824591640.0
0.0,-1.0,-1.0,-4.0,-3.0,1.0,-1.0,0.0,1651093824591640.0
1.0,-1.0,0.0,-1.0,-16.0,-3.0,-4.0,-1.0,1651093824603059.0
-3.0,-3.0,-3.0,3.0,-14.0,-2.0,-2.0,0.0,1651093824603059.0
-3.0,-1.0,0.0,-1.0,22.0,-7.0,0.0,0.0,1651093824612046.0
1.0,2.0,-1.0,-1.0,-9.0,5.0,1.0,0.0,1651093824612046.0
1.0,0.0,1.0,0.0,-5.0,-3.0,1.0,0.0,1651093824627385.0
-1.0,-3.0,-1.0,-7.0,14.0,-7.0,-2.0,-1.0,1651093824627385.0
-1.0,-1.0,-2.0,3.0,0.0,2.0,0.0,-1.0,1651093824628410.0
-4.0,0.0,0.0,2.0,-2.0,7.0,2.0,-1.0,1651093824628410.0
4.0,1.0,3.0,-1.0,16.0,-6.0,3.0,1.0,1651093824650759.0
1.0,1.0,0.0,3.0,2.0,4.0,-3.0,-2.0,1651093824650759.0
0.0,-2.0,-3.0,-3.0,-2.0,3.0,0.0,0.0,1651093824650759.0
-1.0,-3.0,-8.0,-2.0,0.0,-6.0,-3.0,-2.0,1651093824650759.0
-2.0,4.0,6.0,-4.0,0.0,0.0,-1.0,0.0,1651093824662849.0
0.0,0.0,-1.0,-2.0,-4.0,-6.0,1.0,0.0,1651093824662849.0
2.0,2.0,1.0,-1.0,-5.0,0.0,-2.0,0.0,1651093824672783.0
0.0,-2.0,1.0,4.0,8.0,1.0,-1.0,-1.0,1651093824672783.0
-2.0,-5.0,-4.0,-2.0,-21.0,-6.0,-4.0,-1.0,1651093824689015.0
0.0,0.0,-2.0,-3.0,13.0,1.0,0.0,-1.0,1651093824689015.0
0.0,-5.0,0.0,3.0,0.0,6.0,-1.0,-1.0,1651093824689883.0
1.0,7.0,3.0,-11.0,-22.0,-3.0,1.0,2.0,1651093824689883.0
0.0,-3.0,-2.0,10.0,40.0,5.0,2.0,1.0,1651093824710221.0
-2.0,0.0,3.0,2.0,45.0,6.0,1.0,1.0,1651093824710221.0
-3.0,1.0,-4.0,-3.0,-17.0,-4.0,0.0,0.0,1651093824711221.0
0.0,-3.0,1.0,2.0,37.0,4.0,1.0,0.0,1651093824711221.0
2.0,-1.0,0.0,-4.0,-23.0,1.0,0.0,0.0,1651093824723475.0
1.0,-3.0,-7.0,-2.0,-33.0,-4.0,0.0,-1.0,1651093824723475.0
-1.0,0.0,4.0,0.0,-6.0,-7.0,-2.0,-1.0,1651093824732358.0
0.0,-1.0,-1.0,1.0,9.0,-5.0,-2.0,-2.0,1651093824732358.0
-3.0,-1.0,-1.0,0.0,-11.0,3.0,1.0,-2.0,1651093824746495.0
-1.0,0.0,1.0,-2.0,0.0,2.0,0.0,0.0,1651093824746495.0
-4.0,-1.0,-2.0,-1.0,1.0,1.0,0.0,1.0,1651093824747525.0
0.0,1.0,0.0,-5.0,-13.0,-5.0,-1.0,-2.0,1651093824747525.0
-4.0,-2.0,-2.0,2.0,-6.0,-1.0,0.0,-1.0,1651093824768997.0
0.0,-2.0,0.0,4.0,-3.0,-6.0,-1.0,0.0,1651093824768997.0
0.0,1.0,-1.0,-1.0,-8.0,-1.0,-3.0,-2.0,1651093824769669.0
-1.0,0.0,2.0,1.0,22.0,2.0,0.0,0.0,1651093824769669.0
2.0,3.0,2.0,-2.0,-4.0,1.0,0.0,0.0,1651093824791426.0
-1.0,0.0,-1.0,-10.0,-11.0,-7.0,-2.0,-1.0,1651093824791426.0
-1.0,0.0,-4.0,-5.0,-45.0,1.0,-1.0,-1.0,1651093824792276.0
0.0,-1.0,0.0,18.0,103.0,9.0,1.0,1.0,1651093824792276.0
0.0,-2.0,-1.0,-4.0,-36.0,-1.0,0.0,0.0,1651093824807457.0
-2.0,-2.0,0.0,-2.0,-14.0,-5.0,-1.0,-1.0,1651093824807457.0
-2.0,-3.0,-3.0,0.0,16.0,0.0,1.0,-1.0,1651093824807457.0
0.0,3.0,2.0,-5.0,-36.0,-5.0,-3.0,0.0,1651093824807457.0
-1.0,2.0,1.0,2.0,7.0,3.0,-2.0,0.0,1651093824829516.0
-1.0,-1.0,0.0,1.0,19.0,-5.0,0.0,1.0,1651093824829516.0
0.0,-3.0,-2.0,-1.0,-11.0,9.0,-1.0,1.0,1651093824829516.0
0.0,0.0,0.0,1.0,-24.0,-4.0,2.0,-1.0,1651093824829516.0
-2.0,-1.0,-3.0,0.0,11.0,-1.0,0.0,-1.0,1651093824852202.0
-2.0,0.0,-4.0,-8.0,-20.0,-6.0,-2.0,0.0,1651093824852202.0
1.0,2.0,-1.0,4.0,19.0,-9.0,-2.0,-2.0,1651093824852202.0
-1.0,-1.0,2.0,2.0,2.0,4.0,-2.0,-1.0,1651093824852202.0
1.0,-1.0,0.0,-2.0,-3.0,-3.0,0.0,-1.0,1651093824868462.0
0.0,0.0,0.0,0.0,-7.0,1.0,-1.0,0.0,1651093824868462.0
-1.0,-1.0,-1.0,-4.0,12.0,2.0,1.0,0.0,1651093824868462.0
-1.0,0.0,-1.0,0.0,-25.0,1.0,0.0,-1.0,1651093824868462.0
-2.0,2.0,0.0,2.0,-2.0,3.0,1.0,0.0,1651093824889605.0
-2.0,0.0,-1.0,-2.0,5.0,-1.0,-2.0,1.0,1651093824889605.0
0.0,-3.0,1.0,1.0,-11.0,-2.0,-1.0,0.0,1651093824890468.0
-1.0,-4.0,-4.0,-5.0,-38.0,-7.0,-1.0,0.0,1651093824890468.0
-1.0,0.0,0.0,7.0,-14.0,-2.0,1.0,0.0,1651093824919819.0
1.0,1.0,-2.0,-1.0,8.0,-1.0,2.0,-1.0,1651093824919819.0
1.0,2.0,1.0,-4.0,-12.0,17.0,-1.0,-1.0,1651093824920820.0
0.0,0.0,3.0,0.0,-9.0,-9.0,-2.0,0.0,1651093824920820.0
-1.0,-3.0,-2.0,0.0,14.0,4.0,-1.0,-1.0,1651093824926802.0
-1.0,1.0,3.0,2.0,15.0,4.0,0.0,-1.0,1651093824926802.0
-1.0,-1.0,-4.0,-3.0,-9.0,-11.0,1.0,-1.0,1651093824926802.0
-3.0,-1.0,-3.0,-4.0,-2.0,-4.0,-1.0,-1.0,1651093824926802.0
5.0,-1.0,1.0,1.0,22.0,4.0,0.0,1.0,1651093824949258.0
-1.0,-1.0,0.0,0.0,-7.0,-1.0,-1.0,-2.0,1651093824949258.0
0.0,1.0,1.0,0.0,10.0,-6.0,-1.0,-1.0,1651093824949258.0
0.0,0.0,0.0,2.0,4.0,1.0,-2.0,0.0,1651093824949258.0
-2.0,1.0,0.0,-3.0,-8.0,-4.0,0.0,-1.0,1651093824971669.0
-2.0,-3.0,-2.0,-3.0,-3.0,-1.0,-2.0,-2.0,1651093824971669.0
0.0,-1.0,2.0,3.0,-1.0,-3.0,0.0,-2.0,1651093824979502.0
0.0,0.0,-2.0,-2.0,0.0,0.0,-1.0,0.0,1651093824979502.0
-2.0,-3.0,-5.0,-1.0,-6.0,2.0,0.0,-1.0,1651093824986424.0
1.0,4.0,3.0,-3.0,13.0,-4.0,0.0,-2.0,1651093824986424.0
-1.0,0.0,2.0,5.0,-11.0,-5.0,1.0,0.0,1651093824987422.0
-1.0,0.0,-2.0,1.0,11.0,10.0,0.0,-1.0,1651093824987422.0
-3.0,-2.0,-2.0,-3.0,-19.0,6.0,0.0,-1.0,1651093825009544.0
0.0,-2.0,-2.0,-3.0,14.0,1.0,0.0,-1.0,1651093825009544.0
-2.0,2.0,0.0,1.0,1.0,3.0,-2.0,-1.0,1651093825009544.0
-3.0,-3.0,0.0,6.0,-6.0,-5.0,1.0,-1.0,1651093825009544.0
-1.0,0.0,0.0,-3.0,2.0,-3.0,-1.0,0.0,1651093825031822.0
1.0,-1.0,-2.0,-1.0,-33.0,-2.0,-2.0,-1.0,1651093825031822.0
0.0,-1.0,-2.0,-6.0,44.0,6.0,1.0,1.0,1651093825031822.0
0.0,0.0,-2.0,2.0,5.0,-1.0,1.0,0.0,1651093825031822.0
1.0,0.0,1.0,3.0,-1.0,-3.0,-2.0,-2.0,1651093825046115.0
0.0,-3.0,-5.0,2.0,9.0,3.0,0.0,0.0,1651093825046115.0
0.0,3.0,5.0,0.0,-12.0,-2.0,-1.0,0.0,1651093825046965.0
0.0,1.0,2.0,-6.0,10.0,5.0,1.0,0.0,1651093825046965.0
-1.0,-3.0,-4.0,-4.0,-1.0,-4.0,-1.0,-1.0,1651093825069149.0
0.0,-1.0,-1.0,3.0,-9.0,3.0,0.0,0.0,1651093825069149.0
0.0,0.0,-1.0,6.0,13.0,0.0,0.0,0.0,1651093825070139.0
0.0,-1.0,-1.0,-5.0,-36.0,-8.0,-2.0,-1.0,1651093825070139.0
-2.0,1.0,1.0,-1.0,31.0,-1.0,-1.0,0.0,1651093825092579.0
0.0,1.0,-2.0,-2.0,-35.0,-6.0,1.0,0.0,1651093825092579.0
-2.0,-2.0,-1.0,-2.0,29.0,0.0,1.0,-1.0,1651093825092579.0
0.0,1.0,3.0,4.0,-25.0,-5.0,-1.0,0.0,1651093825092579.0
0.0,-1.0,-2.0,1.0,-6.0,-5.0,-2.0,-1.0,1651093825106543.0
-4.0,-1.0,1.0,4.0,14.0,14.0,1.0,-1.0,1651093825106543.0
3.0,0.0,-1.0,-4.0,-5.0,-13.0,-3.0,0.0,1651093825107406.0
-1.0,-4.0,-7.0,-3.0,-7.0,1.0,1.0,-1.0,1651093825107406.0
0.0,2.0,9.0,-7.0,-3.0,1.0,0.0,1.0,1651093825129473.0
0.0,0.0,-1.0,1.0,14.0,-6.0,0.0,-1.0,1651093825129473.0
-1.0,-3.0,-3.0,-3.0,-21.0,0.0,0.0,-1.0,1651093825129473.0
1.0,1.0,-3.0,3.0,20.0,4.0,1.0,0.0,1651093825129473.0
1.0,2.0,-2.0,4.0,-16.0,0.0,1.0,0.0,1651093825151885.0
1.0,2.0,2.0,-1.0,12.0,-1.0,-1.0,-2.0,1651093825151885.0
-3.0,-2.0,-1.0,2.0,-20.0,1.0,-1.0,-2.0,1651093825151885.0
0.0,-1.0,-1.0,-3.0,6.0,1.0,0.0,-1.0,1651093825151885.0
-1.0,-2.0,-2.0,1.0,5.0,1.0,0.0,1.0,1651093825175382.0
0.0,0.0,-2.0,-13.0,-26.0,-3.0,-2.0,1.0,1651093825175382.0
-3.0,-2.0,-2.0,8.0,26.0,-9.0,-1.0,-2.0,1651093825175382.0
-1.0,-2.0,3.0,0.0,14.0,16.0,1.0,0.0,1651093825175382.0
0.0,1.0,-1.0,1.0,15.0,6.0,1.0,1.0,1651093825189300.0
0.0,0.0,-2.0,1.0,-4.0,2.0,-1.0,0.0,1651093825189300.0
-1.0,-2.0,-1.0,-7.0,-23.0,-4.0,-3.0,-4.0,1651093825196288.0
-2.0,-3.0,-4.0,-1.0,11.0,-6.0,-1.0,0.0,1651093825196288.0
-1.0,0.0,4.0,-4.0,0.0,-1.0,0.0,0.0,1651093825212102.0
1.0,-1.0,-2.0,-2.0,-11.0,-5.0,0.0,-1.0,1651093825212102.0
0.0,-1.0,1.0,2.0,-13.0,3.0,-2.0,-1.0,1651093825212407.0
1.0,2.0,2.0,7.0,30.0,1.0,-1.0,1.0,1651093825212407.0
-1.0,-1.0,-5.0,0.0,-11.0,-2.0,-2.0,-3.0,1651093825226735.0
0.0,-4.0,-1.0,3.0,8.0,6.0,1.0,0.0,1651093825226735.0
0.0,-2.0,-2.0,-7.0,-10.0,-2.0,-2.0,0.0,1651093825227603.0
-2.0,-1.0,-1.0,-2.0,-32.0,-1.0,1.0,-1.0,1651093825227603.0
0.0,1.0,-2.0,-2.0,-25.0,-7.0,-2.0,-1.0,1651093825257282.0
-3.0,0.0,1.0,3.0,24.0,-4.0,-1.0,0.0,1651093825257282.0
1.0,-1.0,-1.0,-2.0,20.0,5.0,0.0,1.0,1651093825258324.0
0.0,-2.0,-1.0,-1.0,-9.0,6.0,0.0,-1.0,1651093825258324.0
-3.0,1.0,3.0,-1.0,-1.0,-8.0,0.0,-1.0,1651093825271575.0
-2.0,0.0,6.0,2.0,-12.0,-5.0,-1.0,-1.0,1651093825271575.0
-1.0,-2.0,-2.0,3.0,-4.0,5.0,0.0,1.0,1651093825272426.0
0.0,3.0,1.0,-4.0,7.0,1.0,-1.0,-1.0,1651093825272426.0
0.0,-2.0,-3.0,-1.0,-6.0,-3.0,-1.0,-1.0,1651093825286462.0
-1.0,-2.0,-2.0,-1.0,3.0,-5.0,-1.0,0.0,1651093825286462.0
1.0,1.0,1.0,1.0,0.0,14.0,3.0,1.0,1651093825287492.0
-2.0,0.0,0.0,-1.0,-5.0,0.0,-2.0,0.0,1651093825287492.0
-1.0,-2.0,-2.0,-2.0,-2.0,1.0,-2.0,-4.0,1651093825309497.0
-1.0,-1.0,0.0,-1.0,5.0,-3.0,1.0,4.0,1651093825309497.0
-1.0,1.0,0.0,-2.0,-68.0,2.0,0.0,-1.0,1651093825309497.0
0.0,0.0,-2.0,2.0,5.0,-3.0,0.0,-2.0,1651093825309497.0
-2.0,0.0,2.0,4.0,6.0,6.0,1.0,1.0,1651093825332214.0
2.0,1.0,0.0,-2.0,1.0,2.0,-4.0,-4.0,1651093825332214.0
-1.0,-2.0,-9.0,-6.0,-4.0,-5.0,-3.0,5.0,1651093825332386.0
1.0,4.0,8.0,2.0,-14.0,-14.0,-9.0,-1.0,1651093825332386.0
-4.0,-3.0,-1.0,3.0,19.0,23.0,5.0,-1.0,1651093825345705.0
1.0,0.0,3.0,2.0,-16.0,-14.0,5.0,4.0,1651093825345705.0
-2.0,0.0,1.0,5.0,28.0,11.0,0.0,-4.0,1651093825354666.0
-1.0,-4.0,-8.0,-16.0,-29.0,-13.0,-3.0,12.0,1651093825354666.0
2.0,0.0,-1.0,0.0,18.0,-3.0,-1.0,-17.0,1651093825369127.0
-2.0,4.0,4.0,2.0,43.0,18.0,-6.0,-20.0,1651093825369127.0
2.0,0.0,2.0,-1.0,6.0,-9.0,-3.0,29.0,1651093825369736.0
-1.0,2.0,4.0,11.0,43.0,-6.0,4.0,-3.0,1651093825369736.0
0.0,-4.0,-4.0,-5.0,-56.0,-10.0,-1.0,8.0,1651093825391960.0
-2.0,-3.0,-6.0,-11.0,-67.0,1.0,4.0,1.0,1651093825391960.0
-2.0,0.0,-3.0,3.0,75.0,-7.0,-3.0,-16.0,1651093825391960.0
1.0,1.0,1.0,0.0,-5.0,20.0,3.0,1.0,1651093825391960.0
-1.0,-1.0,0.0,-3.0,-14.0,1.0,1.0,3.0,1651093825406958.0
1.0,0.0,0.0,0.0,40.0,-8.0,0.0,3.0,1651093825406958.0
-3.0,2.0,2.0,6.0,-8.0,19.0,2.0,-4.0,1651093825406958.0
-3.0,-6.0,-9.0,1.0,50.0,-5.0,-1.0,-3.0,1651093825406958.0
1.0,0.0,3.0,-6.0,-69.0,7.0,-1.0,-3.0,1651093825429069.0
0.0,1.0,2.0,-3.0,22.0,-32.0,-4.0,6.0,1651093825429069.0
-1.0,3.0,5.0,5.0,37.0,23.0,5.0,0.0,1651093825430072.0
7.0,4.0,1.0,-19.0,-28.0,-12.0,2.0,14.0,1651093825430072.0
-3.0,-6.0,-6.0,19.0,45.0,-19.0,-5.0,-4.0,1651093825452089.0
-6.0,-9.0,-8.0,11.0,31.0,-1.0,6.0,9.0,1651093825452089.0
1.0,3.0,6.0,-3.0,-102.0,-15.0,-2.0,-33.0,1651093825452209.0
2.0,-1.0,-1.0,1.0,-13.0,17.0,-11.0,-10.0,1651093825452209.0
-8.0,-3.0,4.0,-2.0,102.0,12.0,5.0,6.0,1651093825474198.0
2.0,6.0,2.0,-12.0,-73.0,3.0,4.0,-13.0,1651093825474198.0
-4.0,-6.0,-5.0,-1.0,4.0,-7.0,-13.0,13.0,1651093825475151.0
