,EMG_s0,EMG_s1,EMG_s2,EMG_s3,EMG_s4,EMG_s5,EMG_s6,EMG_s7,timestamp,signal
0,2.0,-9.0,-4.0,-2.0,8.0,1.0,-3.0,1.0,1651023837575884.0,0
1,-3.0,-5.0,2.0,5.0,5.0,2.0,1.0,-1.0,1651023837575884.0,0
2,-1.0,-2.0,-1.0,-3.0,-5.0,-1.0,2.0,0.0,1651023837576853.0,0
3,-2.0,-7.0,-1.0,3.0,2.0,0.0,-1.0,-1.0,1651023837576853.0,0
4,5.0,13.0,2.0,0.0,-7.0,-4.0,-1.0,-1.0,1651023837590884.0,0
5,1.0,5.0,1.0,-3.0,-6.0,-2.0,-3.0,-1.0,1651023837590884.0,0
6,-3.0,-8.0,0.0,0.0,5.0,1.0,-1.0,-3.0,1651023837597866.0,0
7,3.0,13.0,1.0,0.0,6.0,0.0,-1.0,1.0,1651023837597866.0,0
8,-4.0,-27.0,-5.0,-1.0,-7.0,-2.0,-1.0,-2.0,1651023837613783.0,0
9,-1.0,-1.0,1.0,-1.0,0.0,0.0,-1.0,-1.0,1651023837613783.0,0
10,-1.0,5.0,1.0,0.0,-2.0,0.0,0.0,0.0,1651023837614780.0,0
11,-3.0,-6.0,-6.0,-5.0,2.0,0.0,-2.0,-1.0,1651023837614780.0,0
12,-2.0,12.0,2.0,-2.0,-5.0,-1.0,-1.0,1.0,1651023837636708.0,0
13,2.0,-3.0,-4.0,-4.0,-7.0,-2.0,-3.0,-2.0,1651023837636708.0,0
14,1.0,-1.0,-1.0,-1.0,12.0,1.0,-1.0,-1.0,1651023837636708.0,0
15,0.0,3.0,3.0,2.0,-3.0,3.0,-2.0,-1.0,1651023837636708.0,0
16,1.0,-3.0,0.0,1.0,9.0,0.0,1.0,1.0,1651023837650724.0,0
17,0.0,6.0,1.0,3.0,-13.0,-3.0,0.0,1.0,1651023837650724.0,0
18,0.0,1.0,-3.0,-1.0,1.0,1.0,-1.0,0.0,1651023837657705.0,0
19,-1.0,-7.0,-3.0,-3.0,1.0,-2.0,-2.0,-2.0,1651023837657705.0,0
20,1.0,8.0,3.0,2.0,-22.0,-7.0,-1.0,1.0,1651023837673609.0,0
21,0.0,1.0,0.0,-4.0,14.0,4.0,1.0,-1.0,1651023837673609.0,0
22,-3.0,-10.0,-2.0,0.0,-5.0,-2.0,-1.0,-1.0,1651023837674593.0,0
23,4.0,7.0,2.0,1.0,-1.0,-1.0,1.0,-1.0,1651023837674593.0,0
24,-4.0,-11.0,-2.0,-1.0,-3.0,0.0,0.0,-1.0,1651023837704530.0,0
25,-1.0,-18.0,-3.0,-3.0,2.0,-3.0,0.0,1.0,1651023837704530.0,0
26,-2.0,4.0,-1.0,-3.0,-3.0,-2.0,-2.0,-2.0,1651023837705487.0,0
27,-2.0,-7.0,5.0,8.0,10.0,3.0,0.0,-1.0,1651023837705487.0,0
28,3.0,15.0,2.0,0.0,-1.0,0.0,0.0,0.0,1651023837710448.0,0
29,-4.0,-2.0,-2.0,-1.0,0.0,-2.0,-2.0,-2.0,1651023837710448.0,0
30,0.0,-2.0,2.0,2.0,-1.0,1.0,-1.0,0.0,1651023837718453.0,0
31,3.0,3.0,-1.0,-4.0,-3.0,-2.0,-2.0,0.0,1651023837718453.0,0
32,1.0,4.0,1.0,0.0,2.0,0.0,1.0,-1.0,1651023837733387.0,0
33,-1.0,0.0,-1.0,1.0,0.0,2.0,-1.0,1.0,1651023837733387.0,0
34,-1.0,2.0,-5.0,-8.0,-15.0,-4.0,0.0,-2.0,1651023837734384.0,0
35,-3.0,1.0,-2.0,-1.0,10.0,-1.0,0.0,1.0,1651023837734384.0,0
36,0.0,-2.0,0.0,3.0,2.0,1.0,-1.0,-1.0,1651023837756422.0,0
37,1.0,6.0,2.0,-2.0,-16.0,-6.0,1.0,0.0,1651023837756422.0,0
38,-1.0,-2.0,-1.0,2.0,14.0,5.0,-1.0,0.0,1651023837757384.0,0
39,0.0,-4.0,-2.0,-1.0,-2.0,1.0,0.0,0.0,1651023837757384.0,0
40,1.0,1.0,-1.0,-5.0,-1.0,-2.0,-1.0,1.0,1651023837770385.0,0
41,-3.0,-5.0,-3.0,-2.0,-1.0,-2.0,2.0,-1.0,1651023837770385.0,0
42,3.0,5.0,1.0,-2.0,-15.0,-7.0,-2.0,-1.0,1651023837777837.0,0
43,-7.0,-10.0,-2.0,-1.0,2.0,2.0,0.0,-2.0,1651023837777837.0,0
44,-3.0,3.0,0.0,3.0,15.0,3.0,-2.0,0.0,1651023837793836.0,0
45,2.0,6.0,1.0,0.0,5.0,1.0,0.0,1.0,1651023837793836.0,0
46,-2.0,-9.0,-1.0,1.0,-4.0,-1.0,0.0,0.0,1651023837794855.0,0
47,1.0,3.0,0.0,-2.0,0.0,0.0,0.0,0.0,1651023837794855.0,0
48,-2.0,1.0,-2.0,-1.0,-6.0,-3.0,-1.0,-1.0,1651023837824816.0,0
49,-3.0,-5.0,-3.0,-2.0,-3.0,-2.0,-1.0,-1.0,1651023837824816.0,0
50,1.0,2.0,1.0,0.0,7.0,0.0,-1.0,1.0,1651023837824816.0,0
51,2.0,0.0,-1.0,2.0,-3.0,-2.0,1.0,-1.0,1651023837824816.0,0
52,-1.0,-3.0,0.0,-1.0,-2.0,0.0,-1.0,-1.0,1651023837838774.0,0
53,2.0,5.0,1.0,0.0,4.0,1.0,0.0,0.0,1651023837838774.0,0
54,2.0,6.0,1.0,2.0,0.0,-2.0,1.0,0.0,1651023837839716.0,0
55,-4.0,-4.0,-6.0,-6.0,-12.0,-2.0,-1.0,0.0,1651023837839716.0,0
56,-4.0,-24.0,-4.0,3.0,15.0,1.0,-2.0,-2.0,1651023837853679.0,0
57,1.0,3.0,-1.0,0.0,1.0,-1.0,-2.0,0.0,1651023837853679.0,0
58,1.0,3.0,-1.0,0.0,-2.0,-1.0,0.0,0.0,1651023837854676.0,0
59,3.0,2.0,3.0,-3.0,-5.0,-1.0,1.0,0.0,1651023837854676.0,0
60,2.0,8.0,-2.0,-4.0,-12.0,-1.0,-1.0,-1.0,1651023837876617.0,0
61,-1.0,-4.0,-1.0,-4.0,20.0,4.0,-1.0,-3.0,1651023837876617.0,0
62,-2.0,-4.0,2.0,6.0,5.0,2.0,0.0,-1.0,1651023837876617.0,0
63,0.0,2.0,1.0,3.0,0.0,-4.0,-1.0,0.0,1651023837876617.0,0
64,-1.0,3.0,-2.0,-3.0,-2.0,2.0,0.0,0.0,1651023837898680.0,0
65,0.0,-3.0,0.0,-1.0,-5.0,-4.0,-1.0,2.0,1651023837898680.0,0
66,3.0,5.0,0.0,-4.0,-4.0,-2.0,-1.0,0.0,1651023837899676.0,0
67,-2.0,-1.0,0.0,-3.0,1.0,1.0,-1.0,-3.0,1651023837899676.0,0
68,-2.0,-10.0,-3.0,-2.0,5.0,-1.0,1.0,0.0,1651023837914242.0,0
69,1.0,6.0,2.0,2.0,-10.0,-1.0,1.0,-1.0,1651023837914242.0,0
70,0.0,2.0,1.0,0.0,12.0,4.0,0.0,1.0,1651023837914242.0,0
71,-2.0,0.0,-1.0,-1.0,-6.0,0.0,-1.0,1.0,1651023837914242.0,0
72,-3.0,0.0,-1.0,0.0,-2.0,-4.0,0.0,1.0,1651023837936662.0,0
73,-1.0,-2.0,-3.0,0.0,3.0,2.0,-1.0,-2.0,1651023837936662.0,0
74,-2.0,-5.0,1.0,0.0,-5.0,0.0,0.0,-2.0,1651023837936662.0,0
75,1.0,2.0,0.0,0.0,-1.0,-2.0,1.0,1.0,1651023837936662.0,0
76,6.0,7.0,3.0,-2.0,-7.0,1.0,-1.0,0.0,1651023837958664.0,0
77,-4.0,5.0,0.0,-1.0,-1.0,-3.0,-1.0,-3.0,1651023837958664.0,0
78,-1.0,-4.0,-1.0,-3.0,1.0,-1.0,0.0,0.0,1651023837959628.0,0
79,-1.0,-6.0,0.0,-1.0,2.0,1.0,-1.0,0.0,1651023837959628.0,0
80,0.0,3.0,-1.0,-3.0,-6.0,-3.0,0.0,-3.0,1651023837981603.0,0
81,0.0,1.0,2.0,2.0,4.0,2.0,0.0,-1.0,1651023837981603.0,0
82,-1.0,0.0,-3.0,-5.0,-21.0,-6.0,-1.0,0.0,1651023837981603.0,0
83,-3.0,-1.0,-1.0,-4.0,14.0,4.0,-2.0,-3.0,1651023837981603.0,0
84,-1.0,-1.0,1.0,3.0,2.0,-2.0,0.0,1.0,1651023837996534.0,0
85,0.0,-3.0,-3.0,-4.0,-4.0,-3.0,0.0,1.0,1651023837996534.0,0
86,1.0,7.0,1.0,-1.0,-1.0,-1.0,-1.0,-2.0,1651023837996534.0,0
87,1.0,-2.0,-3.0,-5.0,-4.0,-2.0,-3.0,-1.0,1651023837996534.0,0
88,-4.0,-2.0,-2.0,-1.0,3.0,-3.0,-1.0,-1.0,1651023838018542.0,0
89,0.0,-4.0,0.0,1.0,-2.0,1.0,2.0,0.0,1651023838018542.0,0
90,0.0,-4.0,-2.0,-3.0,2.0,1.0,-1.0,0.0,1651023838019473.0,0
91,1.0,8.0,1.0,1.0,-5.0,0.0,-1.0,1.0,1651023838019473.0,0
92,2.0,-8.0,0.0,2.0,13.0,2.0,1.0,0.0,1651023838033435.0,0
93,4.0,6.0,0.0,-1.0,-7.0,-1.0,0.0,-1.0,1651023838033435.0,0
94,-4.0,13.0,3.0,3.0,3.0,-1.0,-1.0,0.0,1651023838034433.0,0
95,-4.0,-31.0,-5.0,-2.0,-9.0,-2.0,2.0,-2.0,1651023838034433.0,0
96,3.0,16.0,2.0,-3.0,-7.0,-1.0,0.0,0.0,1651023838056374.0,0
97,-2.0,-5.0,-1.0,-1.0,12.0,6.0,0.0,-2.0,1651023838056374.0,0
98,-1.0,-1.0,1.0,6.0,1.0,1.0,0.0,0.0,1651023838057372.0,0
99,-1.0,0.0,1.0,2.0,3.0,-1.0,-1.0,2.0,1651023838057372.0,0
100,-1.0,7.0,2.0,-3.0,-5.0,0.0,0.0,0.0,1651023838078343.0,0
101,-5.0,-11.0,-3.0,3.0,-3.0,-2.0,-2.0,-2.0,1651023838078343.0,0
102,0.0,-2.0,-3.0,-6.0,4.0,2.0,-2.0,0.0,1651023838079313.0,0
103,-1.0,3.0,3.0,6.0,-3.0,-2.0,1.0,0.0,1651023838079313.0,0
104,0.0,-3.0,-1.0,-3.0,0.0,-1.0,-2.0,-1.0,1651023838094272.0,0
105,3.0,18.0,0.0,-1.0,-2.0,-2.0,1.0,1.0,1651023838094272.0,0
106,0.0,-7.0,-1.0,-2.0,3.0,-2.0,-1.0,0.0,1651023838094272.0,0
107,2.0,11.0,0.0,-3.0,2.0,-2.0,0.0,0.0,1651023838094272.0,0
108,-6.0,-8.0,-3.0,-1.0,4.0,4.0,-1.0,0.0,1651023838115943.0,0
109,0.0,-4.0,0.0,-3.0,-11.0,0.0,-1.0,0.0,1651023838115943.0,0
110,-1.0,-4.0,-3.0,2.0,12.0,0.0,-1.0,-4.0,1651023838116941.0,0
111,2.0,5.0,1.0,2.0,-5.0,0.0,-2.0,-1.0,1651023838116941.0,0
112,-3.0,-3.0,0.0,1.0,-4.0,1.0,-2.0,-2.0,1651023838138981.0,0
113,0.0,-2.0,-2.0,-3.0,-2.0,-2.0,0.0,-1.0,1651023838138981.0,0
114,-1.0,-3.0,-3.0,-2.0,-8.0,-2.0,1.0,-1.0,1651023838139922.0,0
115,1.0,2.0,-2.0,-1.0,3.0,1.0,-2.0,0.0,1651023838139922.0,0
116,0.0,-3.0,0.0,-1.0,-1.0,0.0,1.0,1.0,1651023838153948.0,0
117,-1.0,-2.0,-2.0,-1.0,-2.0,0.0,0.0,0.0,1651023838153948.0,0
118,0.0,2.0,2.0,0.0,-3.0,0.0,-3.0,0.0,1651023838154883.0,0
119,-1.0,-1.0,-1.0,2.0,6.0,1.0,1.0,-2.0,1651023838154883.0,0
120,-2.0,-1.0,-1.0,-1.0,-4.0,-2.0,1.0,-1.0,1651023838175893.0,0
121,-1.0,-1.0,0.0,3.0,4.0,-1.0,2.0,1.0,1651023838175893.0,0
122,-1.0,-1.0,-1.0,-1.0,0.0,0.0,0.0,1.0,1651023838183868.0,0
123,0.0,-1.0,-3.0,-3.0,0.0,-1.0,-1.0,0.0,1651023838183868.0,0
124,0.0,3.0,1.0,-1.0,-3.0,-1.0,0.0,0.0,1651023838198827.0,0
125,-1.0,0.0,-1.0,-1.0,1.0,1.0,-1.0,0.0,1651023838198827.0,0
126,0.0,-9.0,-3.0,-2.0,-4.0,0.0,0.0,0.0,1651023838199763.0,0
127,0.0,1.0,0.0,0.0,1.0,-1.0,-1.0,0.0,1651023838199763.0,0
128,3.0,3.0,1.0,0.0,-1.0,0.0,0.0,-2.0,1651023838221885.0,0
129,-1.0,-3.0,0.0,1.0,2.0,-1.0,-3.0,-1.0,1651023838221885.0,0
130,0.0,0.0,0.0,1.0,-1.0,0.0,0.0,2.0,1651023838222839.0,0
131,3.0,4.0,0.0,-3.0,-4.0,-3.0,-1.0,1.0,1651023838222839.0,0
132,-4.0,-6.0,-1.0,3.0,3.0,0.0,-1.0,0.0,1651023838235342.0,0
133,0.0,0.0,1.0,-1.0,-2.0,-1.0,1.0,-1.0,1651023838235342.0,0
134,-2.0,-2.0,0.0,3.0,-1.0,0.0,0.0,0.0,1651023838243866.0,0
135,-2.0,-2.0,1.0,-3.0,-2.0,0.0,0.0,0.0,1651023838243866.0,0
136,1.0,3.0,0.0,0.0,-2.0,1.0,-1.0,0.0,1651023838258886.0,0
137,-3.0,-4.0,-1.0,-1.0,0.0,-3.0,-2.0,1.0,1651023838258886.0,0
138,0.0,1.0,0.0,-2.0,5.0,3.0,1.0,-1.0,1651023838259839.0,0
139,-4.0,-5.0,-4.0,1.0,-7.0,-2.0,0.0,-4.0,1651023838259839.0,0
140,4.0,7.0,0.0,2.0,0.0,-3.0,-1.0,0.0,1651023838280868.0,0
141,-1.0,7.0,1.0,-2.0,2.0,2.0,-2.0,-1.0,1651023838280868.0,0
142,1.0,0.0,0.0,-2.0,3.0,1.0,1.0,-1.0,1651023838281875.0,0
143,0.0,2.0,2.0,-1.0,-17.0,-4.0,0.0,1.0,1651023838281875.0,0
144,3.0,1.0,2.0,-1.0,7.0,4.0,0.0,0.0,1651023838295956.0,0
145,0.0,-5.0,-10.0,-3.0,-5.0,-2.0,0.0,-1.0,1651023838295956.0,0
146,-2.0,0.0,-2.0,-2.0,-8.0,-5.0,-2.0,-1.0,1651023838304172.0,0
147,-1.0,-1.0,1.0,-4.0,12.0,3.0,-2.0,-3.0,1651023838304172.0,0
148,-3.0,-5.0,-9.0,-1.0,-31.0,-13.0,-3.0,-2.0,1651023838318886.0,0
149,-2.0,-3.0,15.0,8.0,30.0,10.0,-2.0,-1.0,1651023838318886.0,0
150,2.0,-1.0,-22.0,-21.0,-3.0,1.0,3.0,2.0,1651023838319845.0,0
151,0.0,-5.0,-8.0,-13.0,-28.0,-7.0,-2.0,-2.0,1651023838319845.0,0
152,1.0,8.0,27.0,53.0,37.0,4.0,-1.0,1.0,1651023838340983.0,0
153,-4.0,-17.0,-45.0,-51.0,-17.0,-3.0,-5.0,-6.0,1651023838340983.0,0
154,-1.0,7.0,31.0,37.0,9.0,5.0,2.0,-3.0,1651023838341921.0,0
155,-26.0,-11.0,-27.0,7.0,0.0,0.0,32.0,4.0,1651023838341921.0,0
156,11.0,-5.0,-13.0,-52.0,-36.0,-2.0,8.0,0.0,1651023838364870.0,1
157,-5.0,8.0,5.0,-21.0,-16.0,-21.0,-66.0,-11.0,1651023838364870.0,1
158,28.0,20.0,50.0,52.0,49.0,19.0,29.0,20.0,1651023838364993.0,1
159,50.0,15.0,2.0,50.0,48.0,18.0,-8.0,26.0,1651023838364993.0,1
160,-84.0,-44.0,-72.0,-61.0,-38.0,-35.0,-19.0,-71.0,1651023838378880.0,1
161,-17.0,5.0,14.0,-25.0,-50.0,26.0,106.0,45.0,1651023838378880.0,1
162,-32.0,-42.0,-31.0,10.0,26.0,-2.0,-62.0,-2.0,1651023838379877.0,1
163,30.0,-15.0,-54.0,-100.0,-37.0,-77.0,-91.0,-40.0,1651023838379877.0,1
164,96.0,52.0,47.0,116.0,50.0,50.0,60.0,45.0,1651023838400978.0,1
165,-3.0,-18.0,27.0,13.0,6.0,22.0,-35.0,-15.0,1651023838400978.0,1
166,-31.0,29.0,1.0,-94.0,-50.0,2.0,59.0,-6.0,1651023838401960.0,1
167,-110.0,24.0,114.0,127.0,106.0,5.0,34.0,9.0,1651023838401960.0,1
168,4.0,-50.0,-60.0,-17.0,-26.0,-86.0,-128.0,-76.0,1651023838424045.0,1
169,72.0,-15.0,-70.0,-42.0,-17.0,-19.0,127.0,53.0,1651023838424045.0,1
170,-30.0,1.0,20.0,-57.0,-10.0,103.0,-25.0,5.0,1651023838425151.0,1
171,27.0,30.0,19.0,-63.0,-46.0,-95.0,-89.0,-70.0,1651023838425151.0,1
172,0.0,26.0,58.0,21.0,3.0,-87.0,58.0,12.0,1651023838439075.0,1
173,13.0,25.0,66.0,117.0,31.0,41.0,48.0,20.0,1651023838439075.0,1
174,-46.0,-70.0,-128.0,-82.0,-10.0,67.0,80.0,22.0,1651023838439075.0,1
175,15.0,24.0,83.0,-5.0,-7.0,-33.0,-44.0,-6.0,1651023838439075.0,1
176,-26.0,-23.0,21.0,5.0,14.0,-56.0,33.0,7.0,1651023838461013.0,1
177,12.0,-10.0,-77.0,-34.0,-15.0,-128.0,-111.0,-44.0,1651023838461013.0,1
178,46.0,57.0,100.0,78.0,10.0,-89.0,30.0,24.0,1651023838461948.0,1
179,14.0,-21.0,-77.0,-7.0,-12.0,38.0,18.0,31.0,1651023838461948.0,1
180,-14.0,-9.0,-39.0,-47.0,-13.0,43.0,-4.0,14.0,1651023838469949.0,1
181,-23.0,11.0,21.0,5.0,5.0,-6.0,-2.0,-18.0,1651023838469949.0,1
182,19.0,2.0,1.0,7.0,-9.0,9.0,-87.0,-30.0,1651023838475910.0,1
183,-10.0,-3.0,81.0,53.0,0.0,52.0,23.0,5.0,1651023838475910.0,1
184,6.0,12.0,-20.0,-6.0,2.0,12.0,15.0,20.0,1651023838490386.0,1
185,-9.0,9.0,-15.0,-38.0,20.0,63.0,6.0,-7.0,1651023838490386.0,1
186,-5.0,9.0,43.0,48.0,2.0,-59.0,28.0,12.0,1651023838498329.0,1
187,7.0,-14.0,-56.0,-33.0,-30.0,-28.0,52.0,8.0,1651023838498329.0,1
188,8.0,-14.0,23.0,-19.0,5.0,68.0,-78.0,6.0,1651023838513274.0,1
189,-11.0,-11.0,-27.0,8.0,48.0,39.0,-54.0,-7.0,1651023838513274.0,1
190,35.0,13.0,49.0,51.0,28.0,-28.0,-20.0,-14.0,1651023838520254.0,1
191,-40.0,-55.0,-79.0,-38.0,-25.0,-57.0,29.0,-20.0,1651023838520254.0,1
192,0.0,5.0,0.0,-25.0,-17.0,54.0,62.0,9.0,1651023838544995.0,1
193,-50.0,20.0,27.0,-2.0,-28.0,-32.0,-13.0,-16.0,1651023838544995.0,1
194,9.0,-18.0,5.0,2.0,-27.0,-47.0,-42.0,-16.0,1651023838544995.0,1
195,39.0,10.0,-19.0,-15.0,8.0,45.0,17.0,25.0,1651023838544995.0,1
196,-19.0,8.0,12.0,9.0,-14.0,-31.0,-19.0,6.0,1651023838558894.0,1
197,-25.0,-31.0,17.0,-3.0,19.0,19.0,28.0,-11.0,1651023838558894.0,1
198,7.0,12.0,-67.0,-23.0,1.0,-11.0,-5.0,2.0,1651023838559828.0,1
199,-3.0,-21.0,-8.0,-4.0,-13.0,5.0,-18.0,-9.0,1651023838559828.0,1
200,7.0,19.0,60.0,57.0,52.0,32.0,9.0,9.0,1651023838580896.0,1
201,18.0,-2.0,-49.0,-29.0,-18.0,-16.0,15.0,11.0,1651023838580896.0,1
202,-30.0,-15.0,-5.0,-3.0,-10.0,-55.0,-28.0,-17.0,1651023838581894.0,1
203,-1.0,7.0,-6.0,-14.0,-1.0,81.0,62.0,16.0,1651023838581894.0,1
204,-1.0,4.0,16.0,2.0,-1.0,5.0,11.0,5.0,1651023838604570.0,1
205,-3.0,32.0,54.0,36.0,16.0,11.0,-57.0,-7.0,1651023838604570.0,1
206,1.0,-39.0,-62.0,-29.0,-26.0,-70.0,-14.0,-18.0,1651023838605568.0,1
207,8.0,8.0,2.0,-3.0,8.0,38.0,-6.0,4.0,1651023838605568.0,1
208,-7.0,0.0,-9.0,-9.0,5.0,11.0,65.0,26.0,1651023838618533.0,1
209,5.0,-13.0,1.0,-15.0,-24.0,-11.0,-17.0,-16.0,1651023838618533.0,1
210,21.0,13.0,2.0,10.0,8.0,-13.0,25.0,0.0,1651023838619530.0,1
211,-22.0,-15.0,1.0,16.0,3.0,-6.0,-55.0,-4.0,1651023838619530.0,1
212,-9.0,14.0,-15.0,-7.0,5.0,-9.0,0.0,-5.0,1651023838640990.0,1
213,8.0,-11.0,-3.0,-1.0,-9.0,4.0,-11.0,2.0,1651023838640990.0,1
214,17.0,26.0,65.0,49.0,21.0,25.0,20.0,12.0,1651023838641926.0,1
215,-4.0,-20.0,-38.0,-15.0,19.0,-2.0,30.0,3.0,1651023838641926.0,1
216,20.0,39.0,31.0,-5.0,-8.0,-15.0,-34.0,-8.0,1651023838663871.0,1
217,14.0,-27.0,-44.0,24.0,4.0,-4.0,2.0,-1.0,1651023838663871.0,1
218,-5.0,1.0,-1.0,-17.0,-5.0,18.0,16.0,3.0,1651023838664863.0,1
219,4.0,3.0,34.0,26.0,6.0,-3.0,15.0,9.0,1651023838664863.0,1
220,-8.0,-22.0,-42.0,-39.0,-14.0,-31.0,-23.0,0.0,1651023838678825.0,1
221,-3.0,23.0,63.0,24.0,1.0,26.0,39.0,-4.0,1651023838678825.0,1
222,-21.0,-28.0,-64.0,-32.0,-8.0,-12.0,7.0,-1.0,1651023838679823.0,1
223,21.0,12.0,10.0,2.0,1.0,8.0,-43.0,-13.0,1651023838679823.0,1
224,-42.0,-54.0,-23.0,-14.0,-10.0,28.0,-7.0,-36.0,1651023838700834.0,1
225,18.0,26.0,42.0,15.0,6.0,3.0,45.0,46.0,1651023838700834.0,1
226,9.0,13.0,-13.0,-9.0,1.0,-16.0,-77.0,-15.0,1651023838701772.0,1
227,-12.0,-9.0,-3.0,13.0,12.0,14.0,64.0,15.0,1651023838701772.0,1
228,13.0,36.0,-1.0,-3.0,3.0,-50.0,-59.0,-22.0,1651023838724845.0,1
229,-15.0,-8.0,-13.0,-11.0,-14.0,12.0,15.0,2.0,1651023838724845.0,1
230,5.0,-23.0,3.0,-12.0,-6.0,24.0,-21.0,-4.0,1651023838724845.0,1
231,2.0,52.0,25.0,-9.0,-4.0,-29.0,-2.0,-7.0,1651023838724845.0,1
232,3.0,3.0,59.0,63.0,28.0,24.0,26.0,10.0,1651023838738941.0,1
233,5.0,1.0,-24.0,-12.0,11.0,-14.0,-8.0,-4.0,1651023838738941.0,1
234,-16.0,-41.0,-3.0,-1.0,-13.0,-4.0,31.0,15.0,1651023838738941.0,1
235,10.0,13.0,-27.0,-20.0,-17.0,6.0,10.0,-6.0,1651023838738941.0,1
236,1.0,-11.0,-29.0,-25.0,-17.0,-9.0,0.0,12.0,1651023838760967.0,1
237,-2.0,4.0,29.0,5.0,13.0,-9.0,-31.0,-2.0,1651023838760967.0,1
238,3.0,19.0,25.0,25.0,6.0,34.0,-2.0,-2.0,1651023838761977.0,1
239,-3.0,-18.0,-15.0,5.0,7.0,-10.0,-9.0,-13.0,1651023838761977.0,1
240,15.0,22.0,15.0,-7.0,-9.0,11.0,62.0,47.0,1651023838784171.0,1
241,-8.0,-15.0,-32.0,-15.0,-17.0,8.0,-45.0,-38.0,1651023838784171.0,1
242,1.0,3.0,46.0,24.0,21.0,36.0,10.0,-3.0,1651023838785271.0,1
243,-4.0,9.0,-39.0,-7.0,-10.0,-30.0,-29.0,6.0,1651023838785271.0,1
244,10.0,-11.0,-42.0,-39.0,-10.0,-11.0,13.0,-7.0,1651023838798885.0,1
245,-6.0,11.0,32.0,14.0,-6.0,-45.0,-8.0,8.0,1651023838798885.0,1
246,16.0,7.0,-16.0,4.0,14.0,7.0,7.0,-1.0,1651023838799882.0,1
247,-23.0,-9.0,42.0,26.0,3.0,18.0,6.0,1.0,1651023838799882.0,1
248,1.0,-8.0,12.0,9.0,-3.0,-8.0,-14.0,-2.0,1651023838820894.0,1
249,0.0,-18.0,-52.0,-16.0,14.0,8.0,40.0,6.0,1651023838820894.0,1
250,8.0,32.0,14.0,-34.0,-19.0,-29.0,-28.0,-2.0,1651023838821825.0,1
251,8.0,-5.0,-7.0,10.0,21.0,22.0,8.0,3.0,1651023838821825.0,1
252,5.0,17.0,22.0,8.0,-11.0,9.0,7.0,-20.0,1651023838844818.0,1
253,-2.0,-36.0,-13.0,-8.0,-3.0,20.0,-6.0,-6.0,1651023838844818.0,1
254,20.0,33.0,-7.0,8.0,-3.0,-87.0,-38.0,22.0,1651023838844818.0,1
255,-20.0,-12.0,-8.0,-21.0,-4.0,81.0,39.0,-6.0,1651023838844818.0,1
256,-4.0,-45.0,8.0,19.0,18.0,17.0,14.0,21.0,1651023838858802.0,1
257,6.0,65.0,39.0,5.0,-6.0,-16.0,11.0,-3.0,1651023838858802.0,1
258,-1.0,-23.0,-75.0,-45.0,-20.0,-9.0,-27.0,-11.0,1651023838859736.0,1
259,3.0,4.0,18.0,3.0,-17.0,-42.0,-3.0,3.0,1651023838859736.0,1
260,-2.0,-9.0,5.0,-8.0,5.0,-15.0,-70.0,-27.0,1651023838881432.0,1
261,1.0,-1.0,4.0,35.0,2.0,0.0,7.0,7.0,1651023838881432.0,1
262,0.0,-4.0,54.0,32.0,10.0,20.0,36.0,8.0,1651023838882429.0,1
263,0.0,14.0,20.0,12.0,17.0,-17.0,-4.0,-1.0,1651023838882429.0,1
264,-9.0,-34.0,-107.0,-53.0,-12.0,19.0,17.0,-3.0,1651023838904322.0,1
265,8.0,-5.0,37.0,-6.0,-12.0,-36.0,-21.0,-2.0,1651023838904322.0,1
266,-19.0,-13.0,-61.0,-26.0,-9.0,47.0,25.0,-7.0,1651023838905362.0,1
267,11.0,-9.0,26.0,15.0,2.0,-15.0,-6.0,5.0,1651023838905362.0,1
268,1.0,14.0,17.0,12.0,7.0,3.0,-22.0,-23.0,1651023838918293.0,1
269,2.0,-15.0,-9.0,-12.0,-18.0,-45.0,26.0,30.0,1651023838918293.0,1
270,10.0,26.0,8.0,2.0,-2.0,15.0,16.0,0.0,1651023838925971.0,1
271,-3.0,-20.0,33.0,18.0,30.0,57.0,-4.0,16.0,1651023838925971.0,1
272,19.0,3.0,-41.0,-9.0,-7.0,-23.0,32.0,16.0,1651023838940932.0,1
273,-8.0,3.0,-9.0,-16.0,-6.0,5.0,-38.0,-14.0,1651023838940932.0,1
274,-15.0,-11.0,26.0,12.0,-2.0,-14.0,24.0,2.0,1651023838941862.0,1
275,-10.0,-6.0,-42.0,-47.0,-26.0,-38.0,-9.0,-1.0,1651023838941862.0,1
276,2.0,37.0,36.0,41.0,23.0,2.0,-26.0,-12.0,1651023838964906.0,1
277,-17.0,-13.0,-10.0,-3.0,3.0,20.0,12.0,-1.0,1651023838964906.0,1
278,-15.0,-5.0,15.0,11.0,5.0,3.0,2.0,-5.0,1651023838965033.0,1
279,13.0,14.0,45.0,22.0,1.0,-12.0,-4.0,-2.0,1651023838965033.0,1
280,-11.0,-4.0,-59.0,-44.0,-17.0,11.0,33.0,13.0,1651023838978062.0,1
281,7.0,10.0,-20.0,-11.0,6.0,-5.0,-35.0,-13.0,1651023838978062.0,1
282,5.0,-19.0,-6.0,0.0,-1.0,-8.0,-7.0,3.0,1651023838986041.0,1
283,-7.0,24.0,3.0,11.0,-4.0,-6.0,6.0,-6.0,1651023838986041.0,1
284,0.0,7.0,38.0,22.0,6.0,-10.0,-18.0,-2.0,1651023839001104.0,1
285,9.0,-3.0,-6.0,10.0,0.0,10.0,22.0,16.0,1651023839001104.0,1
286,-7.0,-6.0,-24.0,-43.0,-19.0,15.0,-8.0,-23.0,1651023839002034.0,1
287,21.0,11.0,-9.0,-2.0,1.0,11.0,4.0,-16.0,1651023839002034.0,1
288,-13.0,-29.0,-7.0,4.0,16.0,0.0,4.0,46.0,1651023839024923.0,1
289,0.0,-10.0,13.0,6.0,-5.0,17.0,6.0,3.0,1651023839024923.0,1
290,13.0,13.0,22.0,15.0,4.0,-9.0,51.0,20.0,1651023839025037.0,1
291,-12.0,-12.0,-24.0,6.0,7.0,-42.0,-60.0,-14.0,1651023839025037.0,1
292,-2.0,9.0,26.0,12.0,-5.0,26.0,18.0,-12.0,1651023839037938.0,1
293,-9.0,-4.0,5.0,-7.0,11.0,0.0,0.0,-17.0,1651023839037938.0,1
294,-3.0,-8.0,-3.0,-3.0,-19.0,0.0,-11.0,-3.0,1651023839045946.0,1
295,11.0,17.0,-30.0,-14.0,0.0,-11.0,6.0,17.0,1651023839045946.0,1
296,-3.0,-31.0,17.0,2.0,4.0,-3.0,-6.0,-8.0,1651023839060999.0,1
297,20.0,-11.0,7.0,11.0,3.0,15.0,9.0,9.0,1651023839060999.0,1
298,0.0,34.0,23.0,29.0,9.0,16.0,8.0,-2.0,1651023839061929.0,1
299,-8.0,-45.0,-47.0,-45.0,-17.0,-16.0,-21.0,-9.0,1651023839061929.0,1
300,8.0,7.0,17.0,4.0,1.0,-3.0,3.0,5.0,1651023839083917.0,1
301,2.0,18.0,16.0,5.0,2.0,-4.0,-2.0,-9.0,1651023839083917.0,1
302,-7.0,-15.0,5.0,20.0,15.0,-34.0,-18.0,-7.0,1651023839085022.0,1
303,7.0,-2.0,13.0,8.0,-4.0,50.0,22.0,6.0,1651023839085022.0,1
304,5.0,-2.0,-28.0,-31.0,-15.0,-14.0,-14.0,-9.0,1651023839097950.0,1
305,-9.0,-1.0,4.0,2.0,-4.0,-13.0,-7.0,-9.0,1651023839097950.0,1
306,1.0,3.0,25.0,17.0,7.0,12.0,23.0,17.0,1651023839106675.0,1
307,-6.0,5.0,-44.0,-25.0,-14.0,-32.0,-36.0,-14.0,1651023839106675.0,1
308,8.0,-3.0,-6.0,-9.0,-5.0,49.0,65.0,30.0,1651023839122909.0,1
309,-6.0,-11.0,-2.0,-2.0,-4.0,5.0,-54.0,-20.0,1651023839122909.0,1
310,-1.0,-7.0,-19.0,-3.0,24.0,-18.0,-6.0,-3.0,1651023839122909.0,1
311,5.0,-3.0,7.0,-5.0,-13.0,3.0,-13.0,-14.0,1651023839122909.0,1
312,-4.0,4.0,9.0,-9.0,-12.0,-19.0,-10.0,-10.0,1651023839144863.0,1
313,4.0,15.0,32.0,44.0,27.0,1.0,15.0,8.0,1651023839144863.0,1
314,5.0,-11.0,-42.0,-26.0,-18.0,7.0,-29.0,-1.0,1651023839144974.0,1
315,-18.0,12.0,22.0,-7.0,7.0,-9.0,16.0,-8.0,1651023839144974.0,1
316,-11.0,-7.0,8.0,26.0,7.0,-8.0,-9.0,-8.0,1651023839157893.0,1
317,2.0,1.0,-7.0,-9.0,-14.0,9.0,11.0,7.0,1651023839157893.0,1
318,-10.0,-1.0,-6.0,-8.0,4.0,3.0,-16.0,-7.0,1651023839165967.0,1
319,2.0,2.0,9.0,6.0,3.0,-2.0,17.0,5.0,1651023839165967.0,1
320,1.0,0.0,13.0,-1.0,-5.0,17.0,-9.0,2.0,1651023839180931.0,1
321,-3.0,2.0,0.0,10.0,15.0,-12.0,0.0,-8.0,1651023839180931.0,1
322,2.0,13.0,-31.0,-22.0,-18.0,13.0,21.0,0.0,1651023839181931.0,1
323,-3.0,-6.0,14.0,7.0,-2.0,3.0,-2.0,12.0,1651023839181931.0,1
324,8.0,12.0,5.0,-1.0,-1.0,-3.0,-10.0,-9.0,1651023839204860.0,1
325,3.0,1.0,-3.0,-3.0,-1.0,-2.0,-4.0,-10.0,1651023839204860.0,1
326,8.0,1.0,1.0,-2.0,-2.0,23.0,-1.0,9.0,1651023839204990.0,1
327,-5.0,-2.0,15.0,7.0,-26.0,-10.0,23.0,11.0,1651023839204990.0,1
328,-9.0,9.0,13.0,34.0,45.0,-7.0,-22.0,-15.0,1651023839217895.0,1
329,-2.0,-9.0,-30.0,-42.0,-4.0,-10.0,1.0,4.0,1651023839217895.0,1
330,3.0,13.0,37.0,62.0,24.0,-5.0,3.0,1.0,1651023839225874.0,1
331,5.0,7.0,5.0,-1.0,5.0,22.0,33.0,2.0,1651023839225874.0,1
332,-21.0,5.0,33.0,4.0,-14.0,-9.0,-8.0,4.0,1651023839240920.0,1
333,9.0,-3.0,-42.0,-8.0,-12.0,-14.0,-16.0,-7.0,1651023839240920.0,1
334,-30.0,-30.0,-12.0,-28.0,-7.0,1.0,4.0,-4.0,1651023839241850.0,1
335,11.0,4.0,2.0,-8.0,-11.0,-4.0,34.0,14.0,1651023839241850.0,1
336,15.0,3.0,-10.0,13.0,9.0,6.0,-30.0,-9.0,1651023839263934.0,1
337,3.0,12.0,1.0,0.0,1.0,-4.0,12.0,20.0,1651023839263934.0,1
338,0.0,-23.0,-33.0,-35.0,-10.0,7.0,-26.0,-26.0,1651023839265032.0,1
339,22.0,8.0,35.0,13.0,21.0,26.0,28.0,8.0,1651023839265032.0,1
340,-18.0,0.0,-46.0,-24.0,-17.0,-33.0,4.0,-8.0,1651023839287291.0,1
341,12.0,3.0,47.0,35.0,25.0,49.0,19.0,20.0,1651023839287291.0,1
342,-8.0,-4.0,-16.0,-10.0,-13.0,-19.0,-1.0,11.0,1651023839287828.0,1
343,4.0,-7.0,-6.0,-14.0,-6.0,-6.0,-10.0,-1.0,1651023839287828.0,1
344,0.0,1.0,12.0,23.0,-2.0,1.0,22.0,7.0,1651023839300864.0,1
345,9.0,8.0,1.0,0.0,-11.0,-24.0,-20.0,-26.0,1651023839300864.0,1
346,-22.0,4.0,3.0,-1.0,4.0,13.0,6.0,7.0,1651023839301793.0,1
347,-9.0,-6.0,-3.0,4.0,18.0,-1.0,16.0,-6.0,1651023839301793.0,1
348,15.0,11.0,7.0,3.0,11.0,-1.0,-39.0,4.0,1651023839324838.0,1
349,-32.0,-23.0,-1.0,0.0,-10.0,-25.0,-13.0,-20.0,1651023839324838.0,1
350,3.0,-5.0,1.0,-3.0,-4.0,11.0,14.0,-4.0,1651023839324838.0,1
351,-9.0,-5.0,-19.0,-7.0,-18.0,-6.0,-26.0,3.0,1651023839324838.0,1
352,14.0,-4.0,14.0,-9.0,-2.0,7.0,24.0,0.0,1651023839346954.0,1
353,9.0,6.0,28.0,6.0,16.0,18.0,15.0,9.0,1651023839346954.0,1
354,-1.0,-10.0,-53.0,-21.0,-9.0,-26.0,-7.0,-4.0,1651023839347981.0,1
355,-4.0,0.0,21.0,3.0,12.0,-1.0,-8.0,4.0,1651023839347981.0,1
356,7.0,-1.0,1.0,27.0,3.0,-14.0,2.0,-4.0,1651023839360980.0,1
357,-7.0,-13.0,11.0,-13.0,2.0,30.0,13.0,5.0,1651023839360980.0,1
358,9.0,29.0,32.0,27.0,4.0,13.0,42.0,13.0,1651023839368898.0,1
359,-26.0,15.0,-19.0,-14.0,-9.0,-37.0,-74.0,-31.0,1651023839368898.0,1
360,-4.0,-19.0,-13.0,-17.0,-8.0,15.0,0.0,1.0,1651023839383958.0,1
361,13.0,7.0,-3.0,-12.0,-23.0,-33.0,4.0,8.0,1651023839383958.0,1
362,10.0,4.0,44.0,30.0,14.0,10.0,22.0,0.0,1651023839385074.0,1
363,-11.0,-26.0,-35.0,-14.0,3.0,1.0,-4.0,-5.0,1651023839385074.0,1
364,7.0,14.0,28.0,12.0,8.0,-10.0,-7.0,-5.0,1651023839407294.0,1
365,-16.0,-3.0,-55.0,-13.0,-15.0,3.0,3.0,6.0,1651023839407294.0,1
366,5.0,-2.0,7.0,19.0,32.0,8.0,-10.0,-7.0,1651023839407869.0,1
367,11.0,2.0,19.0,28.0,6.0,7.0,7.0,9.0,1651023839407869.0,1
368,4.0,10.0,20.0,-5.0,0.0,13.0,22.0,11.0,1651023839420904.0,1
369,5.0,11.0,23.0,36.0,15.0,-11.0,-6.0,2.0,1651023839420904.0,1
370,-4.0,-13.0,-34.0,-44.0,-23.0,-12.0,-18.0,-5.0,1651023839421840.0,1
371,1.0,-7.0,-17.0,1.0,-2.0,22.0,39.0,5.0,1651023839421840.0,1
372,-20.0,-6.0,-5.0,-17.0,-16.0,-13.0,-65.0,-22.0,1651023839444928.0,1
373,-1.0,4.0,-13.0,-13.0,-23.0,-33.0,1.0,3.0,1651023839444928.0,1
374,-10.0,11.0,14.0,1.0,18.0,36.0,-10.0,-23.0,1651023839445018.0,1
375,-9.0,4.0,25.0,25.0,11.0,-6.0,11.0,10.0,1651023839445018.0,1
376,1.0,-9.0,-18.0,-28.0,-19.0,-6.0,12.0,-3.0,1651023839466902.0,1
377,-5.0,-17.0,-21.0,0.0,13.0,-1.0,-3.0,1.0,1651023839466902.0,1
378,4.0,9.0,21.0,15.0,-17.0,-8.0,-4.0,4.0,1651023839467856.0,1
379,-3.0,-1.0,21.0,-6.0,-6.0,-5.0,-2.0,-1.0,1651023839467856.0,1
380,-7.0,12.0,-25.0,42.0,41.0,-6.0,12.0,4.0,1651023839489257.0,1
381,-3.0,-7.0,-6.0,-17.0,-5.0,43.0,4.0,-5.0,1651023839489257.0,1
382,11.0,-5.0,12.0,-4.0,-9.0,-4.0,24.0,12.0,1651023839490187.0,1
383,-3.0,-4.0,-3.0,13.0,8.0,16.0,-27.0,-9.0,1651023839490187.0,1
384,4.0,12.0,5.0,-12.0,-28.0,-26.0,-23.0,1.0,1651023839504212.0,1
385,4.0,5.0,10.0,-7.0,22.0,10.0,13.0,5.0,1651023839504212.0,1
386,6.0,12.0,-19.0,-16.0,-11.0,-18.0,-1.0,7.0,1651023839505244.0,1
387,4.0,3.0,-6.0,19.0,-2.0,23.0,15.0,-2.0,1651023839505244.0,1
388,-12.0,-31.0,-15.0,-28.0,-7.0,-3.0,-8.0,-8.0,1651023839527325.0,1
389,10.0,-8.0,-16.0,-5.0,6.0,-2.0,3.0,4.0,1651023839527325.0,1
390,16.0,15.0,30.0,20.0,6.0,15.0,-18.0,4.0,1651023839527325.0,1
391,-7.0,-26.0,-6.0,-3.0,-4.0,-40.0,5.0,0.0,1651023839527325.0,1
392,-3.0,15.0,2.0,5.0,-10.0,4.0,-12.0,6.0,1651023839541272.0,1
393,2.0,1.0,8.0,-12.0,-13.0,14.0,7.0,-1.0,1651023839541272.0,1
394,-1.0,-8.0,-32.0,-23.0,-13.0,-11.0,-9.0,6.0,1651023839542230.0,1
395,-1.0,5.0,2.0,-9.0,9.0,-13.0,-20.0,-18.0,1651023839542230.0,1
396,13.0,2.0,-1.0,5.0,17.0,45.0,19.0,4.0,1651023839564771.0,1
397,-4.0,1.0,10.0,12.0,-2.0,-18.0,-11.0,-2.0,1651023839564771.0,1
398,-9.0,1.0,18.0,11.0,-22.0,-5.0,14.0,0.0,1651023839564771.0,1
399,6.0,7.0,-13.0,-2.0,7.0,-11.0,-29.0,-11.0,1651023839564771.0,1
400,-3.0,7.0,2.0,-39.0,-17.0,0.0,48.0,14.0,1651023839587241.0,1
401,0.0,-4.0,6.0,44.0,6.0,-6.0,-46.0,-9.0,1651023839587241.0,1
402,-11.0,-16.0,-23.0,0.0,23.0,10.0,17.0,2.0,1651023839587241.0,1
403,10.0,-4.0,5.0,-12.0,-6.0,-1.0,-13.0,-2.0,1651023839587241.0,1
404,-13.0,12.0,5.0,9.0,-6.0,-11.0,-2.0,0.0,1651023839601258.0,1
405,-5.0,-11.0,-2.0,-15.0,-2.0,10.0,9.0,-2.0,1651023839601258.0,1
406,-4.0,-13.0,7.0,-12.0,-12.0,0.0,-17.0,-7.0,1651023839602192.0,1
407,-4.0,17.0,-1.0,-1.0,4.0,5.0,54.0,23.0,1651023839602192.0,1
408,5.0,1.0,-9.0,3.0,-2.0,12.0,-20.0,-18.0,1651023839624129.0,1
409,-3.0,-35.0,-36.0,-29.0,-18.0,-32.0,-41.0,4.0,1651023839624129.0,1
410,22.0,47.0,33.0,31.0,33.0,6.0,3.0,11.0,1651023839625216.0,1
411,6.0,-7.0,-14.0,-11.0,6.0,0.0,9.0,3.0,1651023839625216.0,1
412,-10.0,-10.0,7.0,2.0,-12.0,11.0,13.0,-6.0,1651023839647901.0,1
413,-15.0,-1.0,2.0,-4.0,-20.0,7.0,113.0,13.0,1651023839647901.0,1
414,18.0,-19.0,-5.0,4.0,10.0,-29.0,-124.0,-20.0,1651023839647901.0,1
415,7.0,15.0,7.0,3.0,-10.0,-3.0,13.0,5.0,1651023839647901.0,1
416,-2.0,-11.0,-31.0,-16.0,22.0,14.0,7.0,-12.0,1651023839660932.0,1
417,7.0,11.0,30.0,14.0,-10.0,-1.0,-20.0,-18.0,1651023839660932.0,1
418,5.0,-28.0,-42.0,-13.0,-9.0,-4.0,21.0,9.0,1651023839661862.0,1
419,-18.0,0.0,2.0,-31.0,-10.0,-18.0,-18.0,-15.0,1651023839661862.0,1
420,-1.0,-7.0,6.0,40.0,5.0,4.0,-1.0,4.0,1651023839684769.0,1
421,21.0,8.0,7.0,-4.0,9.0,-1.0,52.0,7.0,1651023839684769.0,1
422,-15.0,-2.0,4.0,-2.0,-14.0,19.0,-13.0,-6.0,1651023839685804.0,1
423,-5.0,12.0,30.0,25.0,3.0,-11.0,-37.0,-5.0,1651023839685804.0,1
424,11.0,-14.0,-51.0,-40.0,-26.0,21.0,19.0,-5.0,1651023839706703.0,1
425,2.0,2.0,-9.0,-1.0,29.0,-8.0,6.0,18.0,1651023839706703.0,1
426,6.0,2.0,13.0,-6.0,-1.0,-17.0,13.0,2.0,1651023839707637.0,1
427,-1.0,-3.0,17.0,25.0,5.0,7.0,-2.0,-6.0,1651023839707637.0,1
428,1.0,-6.0,-15.0,-16.0,-2.0,11.0,25.0,11.0,1651023839721638.0,1
429,-8.0,7.0,16.0,-3.0,-10.0,-3.0,-40.0,-6.0,1651023839721638.0,1
430,-9.0,-7.0,11.0,12.0,-6.0,0.0,16.0,-10.0,1651023839721638.0,1
431,21.0,-4.0,-56.0,-35.0,-16.0,-11.0,3.0,7.0,1651023839721638.0,1
432,-4.0,24.0,57.0,28.0,9.0,-30.0,-26.0,7.0,1651023839744859.0,1
433,-10.0,-7.0,-31.0,-25.0,-4.0,-1.0,-18.0,-10.0,1651023839744859.0,1
434,2.0,-10.0,-9.0,-6.0,13.0,52.0,61.0,12.0,1651023839744859.0,1
435,-4.0,-5.0,22.0,20.0,0.0,-6.0,-36.0,-7.0,1651023839744859.0,1
436,23.0,14.0,15.0,-5.0,-5.0,0.0,-4.0,5.0,1651023839767745.0,1
437,-18.0,-4.0,-11.0,1.0,7.0,-22.0,30.0,8.0,1651023839767745.0,1
438,-6.0,13.0,-17.0,-17.0,-6.0,-14.0,-44.0,-19.0,1651023839767870.0,1
439,-9.0,-11.0,-2.0,8.0,-24.0,9.0,45.0,3.0,1651023839767870.0,1
440,20.0,-6.0,-11.0,-13.0,29.0,10.0,-19.0,12.0,1651023839780838.0,1
441,-18.0,3.0,34.0,14.0,8.0,20.0,-37.0,-26.0,1651023839780838.0,1
442,-7.0,4.0,-10.0,15.0,8.0,-20.0,27.0,8.0,1651023839781835.0,1
443,1.0,-6.0,-12.0,3.0,10.0,14.0,-2.0,-2.0,1651023839781835.0,1
444,-4.0,-2.0,-22.0,-29.0,-39.0,-39.0,-1.0,-2.0,1651023839804774.0,1
445,4.0,2.0,54.0,16.0,-4.0,15.0,18.0,6.0,1651023839804774.0,1
446,11.0,-5.0,-65.0,-8.0,19.0,18.0,-5.0,-5.0,1651023839804774.0,1
447,-15.0,1.0,19.0,-13.0,-7.0,-1.0,-11.0,-8.0,1651023839804774.0,1
448,-4.0,6.0,38.0,43.0,18.0,-11.0,28.0,25.0,1651023839827295.0,1
449,-1.0,-5.0,-25.0,-25.0,-7.0,2.0,-16.0,-2.0,1651023839827295.0,1
450,-8.0,9.0,14.0,-1.0,-14.0,-2.0,2.0,-1.0,1651023839827897.0,1
451,5.0,-1.0,-10.0,5.0,10.0,21.0,-2.0,3.0,1651023839827897.0,1
452,-5.0,-6.0,-5.0,-17.0,-13.0,-13.0,8.0,-11.0,1651023839840932.0,1
453,1.0,7.0,3.0,39.0,21.0,8.0,2.0,5.0,1651023839840932.0,1
454,-7.0,-1.0,31.0,-2.0,-15.0,-35.0,-41.0,-10.0,1651023839841875.0,1
455,5.0,3.0,-14.0,-10.0,10.0,14.0,15.0,4.0,1651023839841875.0,1
456,-11.0,-2.0,-5.0,-1.0,-3.0,7.0,5.0,-2.0,1651023839864801.0,1
457,9.0,-4.0,-13.0,-6.0,2.0,11.0,11.0,3.0,1651023839864801.0,1
458,-2.0,3.0,16.0,7.0,3.0,-7.0,19.0,4.0,1651023839864801.0,1
459,6.0,7.0,10.0,5.0,3.0,9.0,-4.0,3.0,1651023839864801.0,1
460,-3.0,-9.0,-7.0,3.0,-1.0,-6.0,-16.0,-15.0,1651023839886833.0,1
461,0.0,0.0,-21.0,-19.0,-19.0,-3.0,-10.0,-4.0,1651023839886833.0,1
462,0.0,5.0,18.0,-1.0,-13.0,-9.0,8.0,5.0,1651023839887804.0,1
463,1.0,-12.0,-12.0,-2.0,10.0,-7.0,-5.0,0.0,1651023839887804.0,1
464,-5.0,8.0,9.0,2.0,-4.0,3.0,-4.0,-4.0,1651023839900835.0,1
465,0.0,-17.0,-15.0,-1.0,9.0,-8.0,-4.0,1.0,1651023839900835.0,1
466,-1.0,4.0,-7.0,-2.0,18.0,17.0,5.0,-2.0,1651023839908814.0,1
467,3.0,7.0,25.0,6.0,-15.0,-9.0,-2.0,2.0,1651023839908814.0,1
468,-8.0,-18.0,-22.0,-2.0,11.0,9.0,0.0,-2.0,1651023839924831.0,1
469,6.0,2.0,-4.0,-3.0,-14.0,-12.0,-10.0,-2.0,1651023839924831.0,1
470,-5.0,-16.0,15.0,-10.0,-13.0,-2.0,-1.0,-1.0,1651023839924951.0,1
471,3.0,11.0,-24.0,3.0,-8.0,-4.0,0.0,4.0,1651023839924951.0,1
472,-3.0,16.0,6.0,-6.0,10.0,-2.0,-2.0,-4.0,1651023839946799.0,1
473,9.0,41.0,33.0,4.0,3.0,3.0,-3.0,2.0,1651023839946799.0,1
474,5.0,3.0,-6.0,1.0,-3.0,3.0,6.0,1.0,1651023839947770.0,1
475,-9.0,0.0,10.0,-4.0,-9.0,-6.0,-2.0,-3.0,1651023839947770.0,1
476,-2.0,-14.0,-6.0,2.0,0.0,-2.0,-3.0,-3.0,1651023839960803.0,1
477,-2.0,-3.0,-13.0,-5.0,1.0,-3.0,-4.0,-2.0,1651023839960803.0,1
478,7.0,-2.0,23.0,9.0,5.0,6.0,5.0,4.0,1651023839968906.0,1
479,7.0,21.0,11.0,7.0,6.0,-3.0,-1.0,3.0,1651023839968906.0,1
480,-14.0,-43.0,-9.0,-4.0,-6.0,0.0,-1.0,-5.0,1651023839984065.0,1
481,4.0,6.0,-14.0,-6.0,-1.0,0.0,-1.0,0.0,1651023839984065.0,1
482,-9.0,-13.0,-15.0,-5.0,-10.0,-5.0,0.0,-2.0,1651023839984065.0,1
483,4.0,2.0,5.0,4.0,4.0,2.0,-2.0,0.0,1651023839984065.0,1
484,-3.0,-9.0,19.0,4.0,5.0,0.0,-1.0,1.0,1651023840006908.0,1
485,-1.0,29.0,-31.0,1.0,-7.0,1.0,-4.0,-2.0,1651023840006908.0,1
486,-14.0,-27.0,-22.0,-15.0,2.0,-3.0,4.0,0.0,1651023840007847.0,1
487,3.0,-17.0,-23.0,-7.0,5.0,3.0,-5.0,-2.0,1651023840007847.0,1
488,9.0,31.0,22.0,8.0,-9.0,-2.0,4.0,1.0,1651023840020879.0,1
489,-3.0,-19.0,15.0,3.0,16.0,6.0,-2.0,-3.0,1651023840020879.0,1
490,10.0,19.0,-5.0,1.0,-14.0,-4.0,3.0,1.0,1651023840028854.0,1
491,-6.0,-6.0,1.0,-3.0,-8.0,1.0,2.0,2.0,1651023840028854.0,1
492,0.0,-21.0,-13.0,2.0,9.0,-7.0,-6.0,4.0,1651023840043818.0,1
493,-1.0,-9.0,1.0,-3.0,-7.0,-4.0,1.0,-2.0,1651023840043818.0,1
494,-8.0,3.0,2.0,1.0,2.0,13.0,-1.0,9.0,1651023840044749.0,1
495,-2.0,-11.0,1.0,8.0,9.0,1.0,0.0,-9.0,1651023840044749.0,1
496,3.0,17.0,15.0,-2.0,-11.0,0.0,-3.0,-1.0,1651023840068775.0,1
497,4.0,-11.0,-24.0,-8.0,-8.0,-7.0,-1.0,1.0,1651023840068775.0,1
498,-8.0,-5.0,-4.0,-4.0,1.0,-4.0,-3.0,-7.0,1651023840068775.0,1
499,3.0,13.0,16.0,-4.0,-16.0,-7.0,-3.0,1.0,1651023840068775.0,1
500,8.0,30.0,4.0,16.0,10.0,4.0,4.0,5.0,1651023840080719.0,1
501,-11.0,-43.0,-34.0,-15.0,4.0,-5.0,0.0,-6.0,1651023840080719.0,1
502,0.0,3.0,21.0,5.0,18.0,8.0,-6.0,0.0,1651023840088411.0,1
503,2.0,-3.0,-17.0,-6.0,-13.0,-4.0,2.0,3.0,1651023840088411.0,1
504,-4.0,2.0,-3.0,-5.0,-10.0,-4.0,-1.0,-5.0,1651023840104151.0,1
505,7.0,19.0,20.0,8.0,2.0,3.0,0.0,3.0,1651023840104151.0,1
506,2.0,3.0,-6.0,1.0,-8.0,-2.0,1.0,-2.0,1651023840104942.0,1
507,-8.0,-10.0,-5.0,-7.0,4.0,-2.0,-1.0,-2.0,1651023840104942.0,1
508,2.0,5.0,-10.0,-6.0,-6.0,0.0,-1.0,0.0,1651023840126831.0,1
509,-6.0,-16.0,-1.0,-4.0,-5.0,-1.0,-4.0,-4.0,1651023840126831.0,1
510,2.0,17.0,10.0,6.0,-1.0,2.0,1.0,0.0,1651023840127802.0,1
511,8.0,28.0,22.0,6.0,14.0,1.0,1.0,3.0,1651023840127802.0,1
512,-3.0,-23.0,-16.0,2.0,5.0,3.0,2.0,-2.0,1651023840140766.0,1
513,-3.0,2.0,11.0,4.0,-8.0,0.0,-2.0,1.0,1651023840140766.0,1
514,2.0,-6.0,-5.0,0.0,2.0,-3.0,0.0,0.0,1651023840148746.0,1
515,0.0,-3.0,10.0,-2.0,-2.0,0.0,3.0,-1.0,1651023840148746.0,1
516,3.0,-3.0,-20.0,-4.0,-4.0,1.0,0.0,-1.0,1651023840164126.0,1
517,-1.0,3.0,15.0,-4.0,4.0,-3.0,-3.0,-2.0,1651023840164126.0,1
518,-3.0,-18.0,-1.0,4.0,-4.0,0.0,0.0,0.0,1651023840164822.0,1
519,-2.0,16.0,-20.0,-15.0,-13.0,-9.0,-6.0,-4.0,1651023840164822.0,1
520,4.0,8.0,0.0,-2.0,5.0,2.0,0.0,0.0,1651023840186941.0,1
521,-3.0,-7.0,8.0,3.0,-4.0,2.0,3.0,1.0,1651023840186941.0,1
522,-3.0,-7.0,-12.0,-1.0,5.0,0.0,0.0,-4.0,1651023840187871.0,1
523,-3.0,-8.0,-9.0,8.0,-1.0,-1.0,0.0,1.0,1651023840187871.0,1
524,1.0,-10.0,-6.0,-5.0,-15.0,-9.0,-2.0,0.0,1651023840200867.0,1
525,4.0,23.0,8.0,1.0,28.0,14.0,-2.0,0.0,1651023840200867.0,1
526,1.0,-9.0,7.0,-3.0,-10.0,-3.0,2.0,-2.0,1651023840208872.0,1
527,-1.0,-5.0,-6.0,-1.0,9.0,-1.0,0.0,-1.0,1651023840208872.0,1
528,-1.0,5.0,-9.0,-3.0,-18.0,-2.0,0.0,0.0,1651023840223806.0,1
529,-2.0,-2.0,12.0,-1.0,-14.0,-8.0,-1.0,-1.0,1651023840223806.0,1
530,3.0,2.0,1.0,5.0,12.0,1.0,-1.0,1.0,1651023840224803.0,1
531,-1.0,-9.0,-15.0,-3.0,-10.0,0.0,-1.0,-1.0,1651023840224803.0,1
532,-8.0,-19.0,5.0,-2.0,3.0,0.0,-2.0,-2.0,1651023840247278.0,1
533,2.0,4.0,-10.0,8.0,11.0,3.0,3.0,2.0,1651023840247278.0,1
534,1.0,30.0,5.0,-7.0,-3.0,-3.0,-1.0,-4.0,1651023840247278.0,1
535,5.0,9.0,5.0,-1.0,-7.0,-3.0,0.0,3.0,1651023840247278.0,1
536,-11.0,-19.0,10.0,0.0,9.0,2.0,-2.0,-3.0,1651023840269866.0,1
537,5.0,21.0,4.0,6.0,2.0,1.0,-2.0,-1.0,1651023840269866.0,1
538,1.0,2.0,-10.0,-4.0,-12.0,-3.0,-2.0,1.0,1651023840269866.0,1
539,-5.0,-28.0,2.0,1.0,8.0,3.0,0.0,-1.0,1651023840269866.0,1
540,-11.0,-25.0,-6.0,-8.0,-7.0,-2.0,-3.0,-5.0,1651023840284104.0,1
541,1.0,4.0,15.0,4.0,0.0,-4.0,1.0,1.0,1651023840284104.0,1
542,3.0,9.0,-19.0,1.0,6.0,0.0,-1.0,0.0,1651023840284865.0,1
543,-2.0,-4.0,5.0,-7.0,-11.0,-3.0,-2.0,-1.0,1651023840284865.0,1
544,11.0,21.0,9.0,15.0,21.0,6.0,3.0,4.0,1651023840307218.0,1
545,-9.0,-20.0,-8.0,-11.0,-19.0,-4.0,-2.0,-1.0,1651023840307218.0,1
546,1.0,0.0,3.0,1.0,1.0,0.0,0.0,0.0,1651023840307218.0,1
547,-3.0,-27.0,-8.0,2.0,10.0,2.0,1.0,1.0,1651023840307218.0,1
548,11.0,13.0,9.0,0.0,-8.0,-1.0,1.0,1.0,1651023840329897.0,1
549,9.0,34.0,-5.0,-2.0,-4.0,-2.0,-1.0,0.0,1651023840329897.0,1
550,5.0,-15.0,4.0,0.0,7.0,2.0,-1.0,1.0,1651023840329897.0,1
551,1.0,5.0,0.0,-1.0,1.0,0.0,3.0,-1.0,1651023840329897.0,1
552,-2.0,14.0,6.0,1.0,1.0,-2.0,-1.0,-1.0,1651023840343860.0,1
553,-7.0,-46.0,-12.0,-2.0,-2.0,-2.0,0.0,-1.0,1651023840343860.0,1
554,6.0,0.0,15.0,1.0,-11.0,-3.0,2.0,2.0,1651023840344853.0,1
555,-5.0,13.0,-5.0,1.0,20.0,5.0,0.0,0.0,1651023840344853.0,1
556,1.0,28.0,3.0,2.0,5.0,1.0,-1.0,0.0,1651023840366988.0,1
557,-6.0,-38.0,-34.0,-9.0,-8.0,-2.0,-1.0,-2.0,1651023840366988.0,1
558,-5.0,-10.0,2.0,-2.0,-6.0,-1.0,1.0,-1.0,1651023840367919.0,1
559,-10.0,-11.0,1.0,3.0,2.0,1.0,-2.0,-2.0,1651023840367919.0,1
560,-3.0,-4.0,-5.0,-3.0,2.0,1.0,0.0,-3.0,1651023840388946.0,1
561,9.0,14.0,9.0,3.0,1.0,0.0,2.0,5.0,1651023840388946.0,1
562,-7.0,-14.0,2.0,-4.0,-16.0,-5.0,-2.0,-4.0,1651023840389887.0,1
563,-5.0,-21.0,-7.0,4.0,24.0,7.0,1.0,-2.0,1651023840389887.0,1
564,5.0,11.0,1.0,1.0,-1.0,2.0,-2.0,2.0,1651023840403873.0,1
565,-3.0,4.0,-1.0,-3.0,-20.0,-6.0,1.0,-1.0,1651023840403873.0,1
566,-3.0,-3.0,2.0,-1.0,11.0,4.0,0.0,-1.0,1651023840404872.0,1
567,8.0,20.0,6.0,1.0,-7.0,-1.0,2.0,3.0,1651023840404872.0,1
568,-3.0,6.0,1.0,2.0,2.0,-2.0,-1.0,-3.0,1651023840426850.0,1
569,-5.0,-59.0,-14.0,-3.0,-8.0,-1.0,0.0,-2.0,1651023840426850.0,1
570,-15.0,1.0,2.0,-5.0,3.0,-1.0,-2.0,-4.0,1651023840427786.0,1
571,15.0,43.0,12.0,1.0,-5.0,-1.0,-1.0,1.0,1651023840427786.0,1
572,-3.0,-19.0,-13.0,0.0,-2.0,-1.0,0.0,2.0,1651023840449867.0,1
573,1.0,8.0,3.0,1.0,4.0,-1.0,0.0,-3.0,1651023840449867.0,1
574,8.0,18.0,-1.0,1.0,6.0,3.0,2.0,3.0,1651023840449867.0,1
575,-7.0,-23.0,-1.0,-2.0,-4.0,-4.0,-2.0,-2.0,1651023840449867.0,1
576,-4.0,9.0,-13.0,-5.0,-2.0,0.0,0.0,-1.0,1651023840463862.0,1
577,-1.0,-14.0,2.0,0.0,-2.0,-1.0,-1.0,2.0,1651023840463862.0,1
578,3.0,3.0,-2.0,-1.0,2.0,1.0,0.0,0.0,1651023840464862.0,1
579,-6.0,-9.0,4.0,1.0,-3.0,0.0,-1.0,-1.0,1651023840464862.0,1
580,-1.0,4.0,6.0,1.0,-1.0,-1.0,1.0,-1.0,1651023840486871.0,1
581,-4.0,21.0,-4.0,-4.0,3.0,1.0,-3.0,-2.0,1651023840486871.0,1
582,1.0,3.0,-1.0,-4.0,-4.0,-1.0,1.0,2.0,1651023840487805.0,1
583,3.0,-8.0,1.0,-1.0,-29.0,-8.0,-2.0,0.0,1651023840487805.0,1
584,-2.0,5.0,7.0,9.0,37.0,6.0,-2.0,-1.0,1651023840509871.0,1
585,-8.0,-18.0,-2.0,2.0,1.0,4.0,0.0,-2.0,1651023840509871.0,1
586,-1.0,-4.0,-1.0,0.0,-6.0,-5.0,-1.0,-2.0,1651023840509871.0,1
587,0.0,-19.0,-7.0,-2.0,-4.0,-1.0,1.0,2.0,1651023840509871.0,1
588,6.0,7.0,9.0,-1.0,-5.0,-1.0,2.0,1.0,1651023840524145.0,1
589,-12.0,5.0,18.0,1.0,0.0,-1.0,-1.0,-2.0,1651023840524145.0,1
590,0.0,-3.0,-24.0,-3.0,-2.0,0.0,-3.0,-1.0,1651023840524145.0,1
591,-3.0,14.0,9.0,9.0,7.0,0.0,1.0,0.0,1651023840524145.0,1
592,-2.0,-12.0,-10.0,-9.0,-10.0,-4.0,0.0,0.0,1651023840546949.0,1
593,0.0,13.0,5.0,-4.0,2.0,-1.0,0.0,0.0,1651023840546949.0,1
594,2.0,8.0,3.0,6.0,-2.0,-2.0,-1.0,-1.0,1651023840547879.0,1
595,1.0,-4.0,-2.0,-2.0,5.0,3.0,-1.0,1.0,1651023840547879.0,1
596,-1.0,-20.0,-6.0,-2.0,-19.0,-8.0,-3.0,-2.0,1651023840569905.0,1
597,9.0,7.0,-2.0,1.0,13.0,6.0,0.0,1.0,1651023840569905.0,1
598,-12.0,-33.0,-2.0,-2.0,1.0,-2.0,1.0,-1.0,1651023840569905.0,1
599,3.0,7.0,-2.0,0.0,-1.0,-2.0,0.0,0.0,1651023840569905.0,1
600,-1.0,-7.0,4.0,0.0,-2.0,2.0,0.0,-2.0,1651023840583920.0,1
601,-3.0,14.0,-11.0,-4.0,-6.0,-4.0,-4.0,-3.0,1651023840583920.0,1
602,0.0,-18.0,-2.0,-1.0,-1.0,1.0,-2.0,-2.0,1651023840584850.0,1
603,-4.0,6.0,-1.0,0.0,3.0,2.0,0.0,0.0,1651023840584850.0,1
604,6.0,21.0,1.0,-3.0,-5.0,-2.0,0.0,1.0,1651023840606895.0,1
605,0.0,14.0,8.0,2.0,0.0,-1.0,0.0,0.0,1651023840606895.0,1
606,2.0,-17.0,1.0,2.0,-9.0,-1.0,-1.0,-1.0,1651023840607867.0,1
607,-2.0,11.0,-7.0,-4.0,2.0,0.0,-1.0,-2.0,1651023840607867.0,1
608,0.0,-19.0,5.0,2.0,14.0,3.0,0.0,0.0,1651023840628840.0,1
609,2.0,2.0,12.0,6.0,4.0,-1.0,1.0,0.0,1651023840628840.0,1
610,-1.0,22.0,-6.0,-2.0,-6.0,0.0,0.0,-1.0,1651023840635857.0,1
611,0.0,-7.0,-1.0,-5.0,-5.0,-4.0,-1.0,-3.0,1651023840635857.0,1
612,1.0,-4.0,-6.0,-5.0,-5.0,-1.0,0.0,-1.0,1651023840644091.0,1
613,-8.0,-2.0,3.0,-1.0,1.0,0.0,-2.0,-3.0,1651023840644091.0,1
614,3.0,26.0,9.0,3.0,2.0,-1.0,0.0,0.0,1651023840644837.0,1
615,1.0,-9.0,-3.0,-1.0,-11.0,-2.0,0.0,-2.0,1651023840644837.0,1
616,-11.0,-9.0,-2.0,-1.0,13.0,3.0,-1.0,-4.0,1651023840666785.0,1
617,3.0,-17.0,-15.0,1.0,2.0,3.0,2.0,0.0,1651023840666785.0,1
618,6.0,32.0,10.0,2.0,-1.0,-1.0,-1.0,1.0,1651023840667778.0,1
619,-10.0,-36.0,-11.0,-2.0,3.0,0.0,-1.0,-2.0,1651023840667778.0,1
620,1.0,1.0,4.0,0.0,-7.0,0.0,0.0,-1.0,1651023840689032.0,1
621,1.0,19.0,0.0,-2.0,-5.0,-4.0,-4.0,-1.0,1651023840689032.0,1
622,-4.0,-16.0,-4.0,-4.0,0.0,0.0,-3.0,-2.0,1651023840690026.0,1
623,16.0,18.0,3.0,3.0,9.0,4.0,0.0,4.0,1651023840690026.0,1
624,-8.0,9.0,3.0,0.0,-5.0,-3.0,0.0,-1.0,1651023840704045.0,1
625,3.0,-1.0,-1.0,0.0,-2.0,2.0,2.0,1.0,1651023840704045.0,1
626,2.0,24.0,4.0,-2.0,1.0,-1.0,-1.0,0.0,1651023840704045.0,1
627,1.0,-23.0,-3.0,-5.0,-7.0,-1.0,-1.0,-1.0,1651023840704045.0,1
628,4.0,0.0,-3.0,-1.0,-1.0,0.0,1.0,0.0,1651023840726994.0,1
629,1.0,13.0,3.0,2.0,9.0,0.0,-1.0,-1.0,1651023840726994.0,1
630,5.0,12.0,-5.0,0.0,-4.0,0.0,0.0,-1.0,1651023840728932.0,1
631,-6.0,2.0,6.0,7.0,4.0,-3.0,1.0,-2.0,1651023840728932.0,1
632,5.0,-17.0,1.0,-2.0,-6.0,0.0,0.0,1.0,1651023840748083.0,1
633,-7.0,-24.0,-21.0,-6.0,-10.0,-4.0,-1.0,-3.0,1651023840748083.0,1
634,-2.0,-20.0,3.0,-4.0,4.0,2.0,1.0,-2.0,1651023840756992.0,1
635,-2.0,5.0,0.0,-2.0,-1.0,0.0,0.0,0.0,1651023840756992.0,1
636,0.0,17.0,2.0,7.0,1.0,0.0,0.0,1.0,1651023840763535.0,1
637,1.0,16.0,7.0,1.0,-2.0,-2.0,-2.0,0.0,1651023840763535.0,1
638,-4.0,-14.0,-3.0,-1.0,1.0,0.0,-1.0,-1.0,1651023840771582.0,1
639,0.0,22.0,4.0,2.0,2.0,0.0,1.0,1.0,1651023840771582.0,1
640,-8.0,-17.0,-6.0,-1.0,-1.0,-2.0,-2.0,-2.0,1651023840786544.0,1
641,4.0,5.0,-5.0,-6.0,-4.0,0.0,-1.0,0.0,1651023840786544.0,1
642,-1.0,-1.0,-1.0,0.0,-1.0,-2.0,-1.0,-1.0,1651023840788471.0,1
643,-1.0,7.0,0.0,-3.0,1.0,-2.0,-1.0,-2.0,1651023840788471.0,1
644,6.0,20.0,3.0,1.0,2.0,1.0,1.0,0.0,1651023840809942.0,1
645,-5.0,-38.0,-7.0,0.0,-2.0,0.0,1.0,0.0,1651023840809942.0,1
646,3.0,38.0,5.0,2.0,-2.0,-1.0,-3.0,-3.0,1651023840810940.0,1
647,5.0,18.0,-1.0,-1.0,3.0,-1.0,-1.0,-1.0,1651023840810940.0,1
648,-13.0,-50.0,-18.0,-5.0,-13.0,-3.0,-2.0,-3.0,1651023840822974.0,1
649,0.0,8.0,4.0,-1.0,15.0,5.0,1.0,1.0,1651023840822974.0,1
650,6.0,8.0,4.0,0.0,1.0,1.0,2.0,4.0,1651023840831884.0,1
651,3.0,19.0,3.0,1.0,-6.0,0.0,0.0,1.0,1651023840831884.0,1
652,-7.0,-22.0,-6.0,1.0,0.0,0.0,-2.0,-1.0,1651023840846910.0,1
653,4.0,-11.0,6.0,2.0,-8.0,-2.0,-1.0,1.0,1651023840846910.0,1
654,2.0,-19.0,-7.0,-2.0,1.0,-1.0,-1.0,0.0,1651023840848865.0,1
655,-7.0,-4.0,0.0,-1.0,3.0,1.0,-1.0,-2.0,1651023840848865.0,1
656,15.0,39.0,8.0,-3.0,-8.0,-3.0,-2.0,2.0,1651023840876764.0,1
657,6.0,28.0,-2.0,3.0,14.0,3.0,-2.0,0.0,1651023840876764.0,1
658,3.0,-6.0,1.0,0.0,-1.0,-3.0,0.0,0.0,1651023840878762.0,1
659,-8.0,-20.0,-4.0,-2.0,-7.0,-3.0,-1.0,-2.0,1651023840878762.0,1
660,5.0,31.0,14.0,1.0,-9.0,0.0,-2.0,0.0,1651023840882748.0,1
661,0.0,-33.0,-11.0,-2.0,6.0,2.0,2.0,0.0,1651023840882748.0,1
662,-7.0,-24.0,-4.0,0.0,3.0,2.0,1.0,-2.0,1651023840891724.0,1
663,9.0,32.0,3.0,4.0,2.0,1.0,2.0,3.0,1651023840891724.0,1
664,-8.0,-54.0,-7.0,-2.0,-1.0,-2.0,-2.0,-4.0,1651023840905796.0,1
665,7.0,21.0,1.0,-1.0,-8.0,-5.0,0.0,1.0,1651023840905796.0,1
666,-4.0,-11.0,-2.0,0.0,-2.0,-1.0,0.0,0.0,1651023840914662.0,1
667,-1.0,-12.0,-1.0,-2.0,0.0,0.0,-1.0,-1.0,1651023840914662.0,1
668,1.0,21.0,3.0,3.0,8.0,2.0,2.0,-1.0,1651023840936671.0,1
669,1.0,11.0,4.0,-5.0,-18.0,-6.0,0.0,0.0,1651023840936671.0,1
670,1.0,-43.0,-6.0,0.0,22.0,4.0,0.0,1.0,1651023840938598.0,1
671,-4.0,24.0,3.0,-3.0,-10.0,-1.0,-2.0,-3.0,1651023840938598.0,1
672,6.0,43.0,1.0,3.0,15.0,-1.0,1.0,0.0,1651023840942615.0,1
673,-4.0,-10.0,3.0,3.0,-5.0,0.0,-2.0,-1.0,1651023840942615.0,1
674,2.0,31.0,6.0,-1.0,-11.0,-3.0,0.0,0.0,1651023840952563.0,1
675,-2.0,-30.0,-12.0,-4.0,0.0,-1.0,-1.0,0.0,1651023840952563.0,1
676,-2.0,-15.0,-2.0,2.0,3.0,3.0,2.0,-1.0,1651023840966523.0,1
677,-5.0,-20.0,-6.0,-3.0,-6.0,-4.0,-2.0,-2.0,1651023840966523.0,1
678,-2.0,16.0,4.0,-1.0,2.0,1.0,1.0,-3.0,1651023840968519.0,1
679,2.0,3.0,0.0,-1.0,3.0,3.0,0.0,1.0,1651023840968519.0,1
680,-9.0,-23.0,-7.0,-8.0,-8.0,-3.0,-4.0,-2.0,1651023840989526.0,1
681,1.0,8.0,0.0,-1.0,-2.0,-4.0,0.0,-1.0,1651023840989526.0,1
682,-4.0,-10.0,0.0,1.0,1.0,5.0,1.0,0.0,1651023840991470.0,1
683,1.0,-28.0,-5.0,0.0,2.0,-1.0,-1.0,-1.0,1651023840991470.0,1
684,4.0,-15.0,-3.0,-1.0,-1.0,0.0,1.0,2.0,1651023841003424.0,1
685,0.0,15.0,-3.0,0.0,1.0,0.0,-2.0,-2.0,1651023841003424.0,1
686,-1.0,20.0,3.0,-2.0,-5.0,-4.0,-2.0,-2.0,1651023841012411.0,1
687,-1.0,2.0,-4.0,0.0,-1.0,0.0,0.0,1.0,1651023841012411.0,1
688,-2.0,-8.0,1.0,2.0,1.0,0.0,-1.0,0.0,1651023841034935.0,1
689,-1.0,7.0,-1.0,-3.0,-1.0,1.0,0.0,0.0,1651023841034935.0,1
690,-4.0,-1.0,-2.0,0.0,-4.0,-4.0,-3.0,-2.0,1651023841035948.0,1
691,-1.0,9.0,3.0,2.0,3.0,0.0,-2.0,-1.0,1651023841035948.0,1
692,-4.0,-24.0,-4.0,0.0,0.0,2.0,0.0,0.0,1651023841049889.0,1
693,2.0,14.0,3.0,2.0,-2.0,1.0,1.0,0.0,1651023841049889.0,1
694,-2.0,-10.0,-4.0,-1.0,-2.0,-2.0,0.0,-1.0,1651023841050888.0,1
695,2.0,13.0,3.0,-1.0,2.0,-1.0,0.0,0.0,1651023841050888.0,1
696,1.0,-1.0,3.0,-2.0,-1.0,-1.0,-2.0,1.0,1651023841062922.0,1
697,2.0,5.0,2.0,-2.0,-6.0,-1.0,0.0,0.0,1651023841062922.0,1
698,-1.0,-38.0,-6.0,-1.0,1.0,0.0,-3.0,0.0,1651023841071831.0,1
699,5.0,0.0,2.0,1.0,0.0,0.0,1.0,1.0,1651023841071831.0,1
700,0.0,31.0,5.0,-2.0,-5.0,0.0,0.0,-1.0,1651023841086858.0,1
701,-4.0,-17.0,-17.0,-2.0,5.0,0.0,0.0,0.0,1651023841086858.0,1
702,4.0,17.0,5.0,1.0,6.0,5.0,0.0,0.0,1651023841088812.0,1
703,-2.0,-20.0,-4.0,0.0,-3.0,-3.0,1.0,-2.0,1651023841088812.0,1
704,-1.0,-1.0,-2.0,-3.0,-3.0,-3.0,-1.0,0.0,1651023841109875.0,1
705,-2.0,8.0,7.0,0.0,-4.0,0.0,1.0,0.0,1651023841109875.0,1
706,-4.0,-3.0,-4.0,-2.0,-2.0,-1.0,-1.0,1.0,1651023841110812.0,1
707,-5.0,1.0,-2.0,-2.0,-2.0,-1.0,-2.0,-4.0,1651023841110812.0,1
708,4.0,12.0,0.0,-1.0,-2.0,1.0,0.0,0.0,1651023841122807.0,1
709,6.0,17.0,6.0,0.0,2.0,1.0,-1.0,3.0,1651023841122807.0,1
710,-3.0,-22.0,-9.0,-3.0,-2.0,-1.0,-2.0,-4.0,1651023841131756.0,1
711,0.0,8.0,2.0,0.0,1.0,-1.0,-1.0,-1.0,1651023841131756.0,1
712,-2.0,-5.0,-4.0,0.0,1.0,-2.0,0.0,-2.0,1651023841146965.0,1
713,-1.0,-21.0,0.0,1.0,3.0,0.0,-2.0,-1.0,1651023841146965.0,1
714,13.0,58.0,6.0,-1.0,-3.0,-4.0,0.0,2.0,1651023841148893.0,1
715,-5.0,-13.0,-3.0,-2.0,-3.0,-2.0,-2.0,-2.0,1651023841148893.0,1
716,-1.0,0.0,-1.0,1.0,4.0,-1.0,-1.0,-2.0,1651023841169902.0,1
717,0.0,-3.0,1.0,1.0,1.0,1.0,2.0,1.0,1651023841169902.0,1
718,5.0,-28.0,-1.0,1.0,-2.0,0.0,2.0,1.0,1651023841170835.0,1
719,-3.0,10.0,-1.0,0.0,-1.0,0.0,-2.0,-2.0,1651023841170835.0,1
720,4.0,11.0,1.0,-1.0,2.0,1.0,0.0,2.0,1651023841191845.0,1
721,0.0,-2.0,-1.0,1.0,-2.0,-2.0,0.0,0.0,1651023841191845.0,1
722,-4.0,-17.0,0.0,0.0,-2.0,-1.0,-3.0,-1.0,1651023841193796.0,1
723,-2.0,-11.0,-2.0,-1.0,2.0,0.0,1.0,1.0,1651023841193796.0,1
724,-1.0,7.0,1.0,-2.0,-2.0,2.0,0.0,-3.0,1651023841214784.0,1
725,0.0,6.0,1.0,-2.0,-3.0,0.0,0.0,-2.0,1651023841214784.0,1
726,-4.0,16.0,-1.0,2.0,2.0,-1.0,0.0,-3.0,1651023841215793.0,1
727,0.0,-8.0,-1.0,0.0,1.0,-2.0,-2.0,-1.0,1651023841215793.0,1
728,-2.0,-5.0,-3.0,-2.0,-2.0,-1.0,-1.0,-2.0,1651023841229591.0,1
729,1.0,4.0,2.0,-3.0,-2.0,0.0,0.0,-1.0,1651023841229591.0,1
730,0.0,10.0,-1.0,-1.0,-1.0,-1.0,1.0,0.0,1651023841230555.0,1
731,1.0,-1.0,3.0,1.0,1.0,2.0,0.0,1.0,1651023841230555.0,1
732,4.0,-4.0,-3.0,-1.0,1.0,-1.0,0.0,1.0,1651023841252066.0,1
733,2.0,-2.0,1.0,0.0,0.0,-3.0,-2.0,-1.0,1651023841252066.0,1
734,-10.0,-37.0,-8.0,0.0,0.0,1.0,-1.0,0.0,1651023841252997.0,1
735,6.0,11.0,2.0,-1.0,-2.0,-2.0,0.0,1.0,1651023841252997.0,1
736,-3.0,-2.0,1.0,1.0,-1.0,0.0,-1.0,-1.0,1651023841265970.0,1
737,0.0,18.0,2.0,3.0,2.0,0.0,0.0,0.0,1651023841265970.0,1
738,2.0,-2.0,2.0,2.0,-2.0,1.0,0.0,1.0,1651023841275036.0,1
739,-1.0,-12.0,1.0,-2.0,-2.0,-1.0,-2.0,-1.0,1651023841275036.0,1
740,2.0,-3.0,-3.0,-1.0,-1.0,-2.0,0.0,2.0,1651023841289005.0,1
741,-7.0,9.0,0.0,-2.0,-1.0,-1.0,-2.0,-2.0,1651023841289005.0,1
742,1.0,0.0,1.0,1.0,0.0,-2.0,0.0,-2.0,1651023841296916.0,1
743,1.0,11.0,0.0,3.0,0.0,0.0,0.0,-2.0,1651023841296916.0,1
744,-3.0,-3.0,0.0,-1.0,-1.0,-2.0,-2.0,-1.0,1651023841311953.0,1
745,-4.0,-22.0,-6.0,-3.0,2.0,1.0,0.0,-3.0,1651023841311953.0,1
746,1.0,14.0,0.0,-3.0,-3.0,-3.0,0.0,-1.0,1651023841313882.0,1
747,-4.0,1.0,-1.0,-2.0,-2.0,-2.0,-1.0,-1.0,1651023841313882.0,1
748,4.0,-4.0,0.0,2.0,1.0,-1.0,1.0,1.0,1651023841325850.0,1
749,-2.0,-7.0,-7.0,0.0,-1.0,-2.0,-4.0,0.0,1651023841325850.0,1
750,-1.0,16.0,7.0,1.0,0.0,1.0,-1.0,-1.0,1651023841332897.0,1
751,-6.0,-24.0,-13.0,-4.0,-3.0,-1.0,0.0,-1.0,1651023841332897.0,1
752,0.0,2.0,1.0,1.0,0.0,1.0,0.0,0.0,1651023841349019.0,1
753,2.0,-1.0,0.0,-1.0,0.0,1.0,-2.0,-2.0,1651023841349019.0,1
754,5.0,47.0,9.0,2.0,-2.0,-2.0,-2.0,0.0,1651023841350944.0,1
755,-1.0,-9.0,-2.0,0.0,-1.0,-1.0,-2.0,2.0,1651023841350944.0,1
756,-2.0,9.0,4.0,-1.0,3.0,1.0,0.0,-1.0,1651023841371952.0,1
757,-2.0,-24.0,-1.0,-4.0,-1.0,-3.0,0.0,1.0,1651023841371952.0,0
758,2.0,30.0,-4.0,4.0,3.0,0.0,1.0,-2.0,1651023841373894.0,2
759,0.0,20.0,5.0,-1.0,-11.0,-3.0,0.0,-1.0,1651023841373894.0,2
760,-1.0,-8.0,-9.0,1.0,14.0,-2.0,-2.0,-2.0,1651023841385910.0,2
761,3.0,1.0,8.0,4.0,-10.0,-2.0,0.0,2.0,1651023841385910.0,2
762,-6.0,-42.0,-10.0,-7.0,2.0,3.0,-1.0,-3.0,1651023841393502.0,2
763,-1.0,-4.0,0.0,1.0,-1.0,-1.0,0.0,-2.0,1651023841393502.0,2
764,1.0,14.0,5.0,-2.0,-4.0,-1.0,0.0,-1.0,1651023841409125.0,2
765,-2.0,2.0,-2.0,-2.0,-3.0,-1.0,-1.0,-1.0,1651023841409125.0,2
766,-6.0,-24.0,-1.0,1.0,1.0,0.0,-1.0,-1.0,1651023841411150.0,2
767,2.0,3.0,2.0,1.0,1.0,1.0,-1.0,0.0,1651023841411150.0,2
768,4.0,6.0,9.0,-2.0,-8.0,-1.0,0.0,1.0,1651023841431993.0,2
769,-3.0,5.0,2.0,-2.0,1.0,1.0,1.0,0.0,1651023841431993.0,2
770,0.0,-15.0,-22.0,-12.0,-4.0,-3.0,-2.0,0.0,1651023841433921.0,2
771,2.0,1.0,6.0,14.0,25.0,10.0,0.0,-1.0,1651023841433921.0,2
772,0.0,-1.0,-1.0,-10.0,-9.0,-2.0,0.0,0.0,1651023841445972.0,2
773,2.0,10.0,8.0,-8.0,-2.0,-1.0,-1.0,-1.0,1651023841445972.0,2
774,4.0,37.0,17.0,8.0,-14.0,-3.0,1.0,-1.0,1651023841454882.0,2
775,-1.0,-11.0,-8.0,-4.0,3.0,-6.0,0.0,0.0,1651023841454882.0,2
776,0.0,-1.0,-10.0,-2.0,4.0,6.0,-1.0,0.0,1651023841469841.0,2
777,-1.0,-2.0,14.0,19.0,4.0,1.0,2.0,-2.0,1651023841469841.0,2
778,0.0,-6.0,-22.0,-24.0,-8.0,0.0,0.0,2.0,1651023841470839.0,2
779,-2.0,-9.0,5.0,-8.0,-22.0,-5.0,0.0,-2.0,1651023841470839.0,2
780,-4.0,12.0,12.0,18.0,14.0,1.0,-2.0,-2.0,1651023841491849.0,2
781,1.0,6.0,-8.0,-7.0,-3.0,-2.0,-2.0,0.0,1651023841491849.0,2
782,-2.0,-16.0,4.0,15.0,4.0,-2.0,-1.0,-1.0,1651023841493805.0,2
783,4.0,9.0,-2.0,11.0,8.0,3.0,0.0,2.0,1651023841493805.0,2
784,1.0,-11.0,-15.0,18.0,8.0,2.0,3.0,1.0,1651023841505969.0,2
785,-6.0,12.0,46.0,13.0,2.0,6.0,0.0,-4.0,1651023841505969.0,2
786,-1.0,-11.0,-13.0,2.0,6.0,-4.0,-5.0,0.0,1651023841513449.0,2
787,0.0,-3.0,-10.0,-18.0,-5.0,0.0,5.0,6.0,1651023841513449.0,2
788,-10.0,-13.0,1.0,-6.0,-15.0,-9.0,21.0,-5.0,1651023841529599.0,2
789,4.0,-3.0,-38.0,-4.0,8.0,1.0,-20.0,6.0,1651023841529599.0,2
790,-14.0,4.0,1.0,-42.0,-13.0,-8.0,-25.0,-8.0,1651023841530556.0,2
791,8.0,-7.0,35.0,45.0,5.0,-3.0,0.0,-4.0,1651023841530556.0,2
792,-5.0,2.0,14.0,30.0,20.0,19.0,86.0,27.0,1651023841551998.0,2
793,29.0,-16.0,-49.0,-47.0,-15.0,11.0,-18.0,-9.0,1651023841551998.0,2
794,-51.0,4.0,-11.0,-13.0,9.0,-12.0,28.0,-9.0,1651023841553925.0,2
795,-12.0,-8.0,14.0,39.0,5.0,-12.0,-27.0,1.0,1651023841553925.0,2
796,14.0,-11.0,-81.0,-51.0,-42.0,-35.0,-66.0,-21.0,1651023841565955.0,2
797,44.0,28.0,63.0,20.0,1.0,24.0,115.0,45.0,1651023841565955.0,2
798,-18.0,35.0,53.0,35.0,44.0,87.0,101.0,61.0,1651023841575002.0,2
799,-49.0,-61.0,-86.0,-68.0,-23.0,-85.0,-82.0,-79.0,1651023841575002.0,2
800,-26.0,-9.0,59.0,31.0,10.0,0.0,-20.0,-45.0,1651023841588939.0,2
801,54.0,19.0,-16.0,-35.0,-13.0,-41.0,29.0,-11.0,1651023841588939.0,2
802,-22.0,-28.0,41.0,67.0,22.0,81.0,67.0,-8.0,1651023841590931.0,2
803,65.0,30.0,30.0,25.0,10.0,33.0,127.0,85.0,1651023841590931.0,2
804,-20.0,-35.0,-110.0,-68.0,-24.0,-30.0,-66.0,7.0,1651023841611874.0,2
805,-5.0,13.0,23.0,-3.0,4.0,-11.0,-49.0,-24.0,1651023841611874.0,2
806,13.0,-19.0,-70.0,-50.0,-36.0,-53.0,-59.0,-2.0,1651023841613896.0,2
807,-36.0,5.0,42.0,19.0,-5.0,11.0,-103.0,-33.0,1651023841613896.0,2
808,21.0,18.0,22.0,5.0,19.0,54.0,40.0,17.0,1651023841625905.0,2
809,-17.0,-21.0,18.0,-7.0,32.0,18.0,34.0,18.0,1651023841625905.0,2
810,15.0,-28.0,41.0,97.0,19.0,-69.0,-44.0,-13.0,1651023841634814.0,2
811,1.0,28.0,-88.0,-76.0,14.0,50.0,17.0,9.0,1651023841634814.0,2
812,35.0,-45.0,22.0,-22.0,-38.0,-15.0,-11.0,-1.0,1651023841649818.0,2
813,-32.0,14.0,29.0,84.0,50.0,-12.0,14.0,-1.0,1651023841649818.0,2
814,9.0,7.0,33.0,11.0,-12.0,11.0,-19.0,-6.0,1651023841650770.0,2
815,16.0,-7.0,-83.0,-95.0,-46.0,-42.0,2.0,8.0,1651023841650770.0,2
816,10.0,17.0,66.0,24.0,11.0,11.0,35.0,0.0,1651023841671816.0,2
817,-22.0,-30.0,-26.0,-19.0,-31.0,27.0,-65.0,19.0,1651023841671816.0,2
818,16.0,7.0,1.0,-21.0,-11.0,-32.0,-16.0,-8.0,1651023841677800.0,2
819,-5.0,-15.0,10.0,19.0,-1.0,-4.0,6.0,-8.0,1651023841677800.0,2
820,-7.0,34.0,6.0,-2.0,5.0,13.0,49.0,22.0,1651023841685807.0,2
821,-4.0,2.0,-12.0,6.0,-5.0,-32.0,-17.0,-9.0,1651023841685807.0,2
822,24.0,19.0,0.0,-13.0,-24.0,-74.0,-17.0,7.0,1651023841694767.0,2
823,-26.0,4.0,20.0,31.0,36.0,119.0,43.0,-12.0,1651023841694767.0,2
824,-13.0,-8.0,10.0,12.0,26.0,-43.0,-22.0,-7.0,1651023841709702.0,2
825,-15.0,-7.0,-12.0,-15.0,-12.0,27.0,7.0,-11.0,1651023841709702.0,2
826,15.0,-7.0,-7.0,4.0,-14.0,18.0,2.0,8.0,1651023841710652.0,2
827,13.0,18.0,71.0,23.0,16.0,-39.0,-1.0,-2.0,1651023841710652.0,2
828,0.0,12.0,-16.0,23.0,16.0,0.0,-33.0,-3.0,1651023841731990.0,2
829,-1.0,-1.0,-22.0,-8.0,-22.0,-6.0,-39.0,-21.0,1651023841731990.0,2
830,-10.0,-9.0,-36.0,-56.0,-16.0,34.0,22.0,-7.0,1651023841733917.0,2
831,-7.0,0.0,41.0,-1.0,-17.0,-40.0,15.0,11.0,1651023841733917.0,2
832,0.0,25.0,32.0,27.0,1.0,6.0,-8.0,8.0,1651023841745949.0,2
833,-5.0,6.0,-43.0,-49.0,-22.0,-28.0,-13.0,-31.0,1651023841745949.0,2
834,-4.0,-5.0,-27.0,-5.0,13.0,-3.0,-6.0,5.0,1651023841755040.0,2
835,8.0,2.0,26.0,28.0,10.0,8.0,-15.0,-4.0,1651023841755040.0,2
836,6.0,-2.0,15.0,-16.0,-2.0,11.0,48.0,17.0,1651023841769866.0,2
837,0.0,10.0,5.0,9.0,1.0,-47.0,-49.0,1.0,1651023841769866.0,2
838,-3.0,-15.0,5.0,0.0,2.0,63.0,14.0,-11.0,1651023841770865.0,2
839,1.0,2.0,4.0,14.0,31.0,23.0,20.0,10.0,1651023841770865.0,2
840,-2.0,10.0,-24.0,-4.0,-17.0,7.0,6.0,5.0,1651023841791710.0,2
841,6.0,2.0,16.0,4.0,-3.0,-26.0,10.0,9.0,1651023841791710.0,2
842,2.0,13.0,13.0,25.0,31.0,11.0,1.0,1.0,1651023841793728.0,2
843,-7.0,-11.0,-7.0,-37.0,-31.0,-35.0,-24.0,-18.0,1651023841793728.0,2
844,1.0,0.0,17.0,-7.0,-15.0,-2.0,34.0,10.0,1651023841805970.0,2
845,-3.0,-17.0,-23.0,17.0,22.0,31.0,-22.0,-11.0,1651023841805970.0,2
846,-1.0,3.0,-10.0,-24.0,-4.0,-32.0,-24.0,-3.0,1651023841814945.0,2
847,4.0,17.0,29.0,16.0,-10.0,-16.0,14.0,-5.0,1651023841814945.0,2
848,-15.0,-39.0,-66.0,-41.0,-3.0,55.0,-3.0,-22.0,1651023841829906.0,2
849,5.0,-3.0,34.0,26.0,-8.0,-19.0,19.0,31.0,1651023841829906.0,2
850,15.0,22.0,10.0,6.0,-4.0,-31.0,0.0,7.0,1651023841831835.0,2
851,-3.0,11.0,-9.0,4.0,5.0,39.0,-22.0,-11.0,1651023841831835.0,2
852,18.0,-1.0,18.0,9.0,7.0,-52.0,-24.0,-6.0,1651023841851782.0,2
853,-9.0,-9.0,4.0,17.0,14.0,62.0,84.0,21.0,1651023841851782.0,2
854,-15.0,-7.0,-18.0,-23.0,-28.0,-12.0,-79.0,-36.0,1651023841853804.0,2
855,5.0,-1.0,0.0,10.0,3.0,-28.0,-9.0,9.0,1651023841853804.0,2
856,-5.0,-2.0,-9.0,0.0,-1.0,-3.0,-2.0,-4.0,1651023841866023.0,2
857,-2.0,16.0,29.0,24.0,30.0,21.0,-22.0,-9.0,1651023841866023.0,2
858,0.0,-33.0,-7.0,-7.0,5.0,-12.0,11.0,0.0,1651023841874913.0,2
859,6.0,20.0,-19.0,-2.0,-12.0,3.0,12.0,7.0,1651023841874913.0,2
860,-12.0,-24.0,-3.0,0.0,-2.0,24.0,1.0,1.0,1651023841888938.0,2
861,-14.0,-31.0,-39.0,-33.0,-34.0,-45.0,-16.0,-25.0,1651023841888938.0,2
862,7.0,18.0,39.0,26.0,10.0,23.0,18.0,-3.0,1651023841890870.0,2
863,-3.0,-6.0,3.0,-16.0,0.0,-4.0,-5.0,4.0,1651023841890870.0,2
864,-13.0,6.0,15.0,9.0,12.0,36.0,12.0,7.0,1651023841911917.0,2
865,-3.0,-16.0,-69.0,-28.0,-12.0,-29.0,-3.0,-11.0,1651023841911917.0,2
866,8.0,13.0,52.0,31.0,4.0,-5.0,57.0,39.0,1651023841913877.0,2
867,3.0,-15.0,-27.0,-10.0,-16.0,-11.0,-45.0,-14.0,1651023841913877.0,2
868,-26.0,4.0,-17.0,-7.0,-2.0,-22.0,-28.0,-21.0,1651023841925916.0,2
869,-1.0,-1.0,34.0,15.0,-1.0,19.0,30.0,10.0,1651023841925916.0,2
870,-6.0,13.0,-18.0,-15.0,26.0,-3.0,-35.0,-24.0,1651023841935028.0,2
871,11.0,15.0,45.0,44.0,11.0,20.0,6.0,-5.0,1651023841935028.0,2
872,-10.0,-42.0,-45.0,-29.0,-5.0,-40.0,-11.0,18.0,1651023841949901.0,2
873,0.0,19.0,23.0,-2.0,-12.0,16.0,-5.0,10.0,1651023841949901.0,2
874,19.0,3.0,6.0,8.0,-14.0,-6.0,107.0,15.0,1651023841950890.0,2
875,-23.0,-14.0,-24.0,-17.0,19.0,45.0,-82.0,-34.0,1651023841950890.0,2
876,-3.0,8.0,18.0,14.0,-10.0,-3.0,-11.0,-16.0,1651023841971995.0,2
877,1.0,0.0,30.0,4.0,8.0,1.0,19.0,6.0,1651023841971995.0,2
878,-1.0,2.0,-7.0,1.0,-12.0,-11.0,-35.0,-19.0,1651023841973922.0,2
879,12.0,-5.0,-34.0,-28.0,-29.0,-20.0,35.0,20.0,1651023841973922.0,2
880,16.0,9.0,10.0,-1.0,5.0,4.0,16.0,10.0,1651023841985905.0,2
881,-12.0,-2.0,16.0,-2.0,9.0,35.0,-2.0,-4.0,1651023841985905.0,2
882,1.0,9.0,22.0,22.0,21.0,-9.0,-21.0,3.0,1651023841994275.0,2
883,10.0,17.0,59.0,64.0,26.0,-33.0,7.0,7.0,1651023841994275.0,2
884,-13.0,-18.0,-117.0,-70.0,-30.0,-6.0,-17.0,-21.0,1651023842009903.0,2
885,9.0,9.0,14.0,-8.0,-9.0,-9.0,30.0,37.0,1651023842009903.0,2
886,-8.0,-13.0,43.0,30.0,2.0,7.0,-21.0,-6.0,1651023842010890.0,2
887,-11.0,-18.0,-41.0,-41.0,-24.0,-8.0,15.0,4.0,1651023842010890.0,2
888,7.0,44.0,64.0,39.0,13.0,-39.0,7.0,2.0,1651023842032294.0,2
889,-7.0,-19.0,-28.0,-20.0,1.0,48.0,-24.0,-14.0,1651023842032294.0,2
890,-9.0,-24.0,-55.0,-34.0,-5.0,14.0,-14.0,-11.0,1651023842033312.0,2
891,5.0,-16.0,8.0,-2.0,-11.0,-43.0,-11.0,2.0,1651023842033312.0,2
892,5.0,26.0,19.0,17.0,13.0,23.0,11.0,-9.0,1651023842055840.0,2
893,-8.0,2.0,-22.0,-13.0,-11.0,16.0,-4.0,8.0,1651023842055840.0,2
894,7.0,9.0,-13.0,-25.0,-15.0,1.0,11.0,16.0,1651023842057836.0,2
895,8.0,-5.0,-17.0,-1.0,11.0,31.0,28.0,7.0,1651023842057836.0,2
896,7.0,5.0,64.0,37.0,11.0,-14.0,-13.0,9.0,1651023842069833.0,2
897,0.0,-4.0,-17.0,17.0,0.0,-26.0,67.0,-10.0,1651023842069833.0,2
898,-9.0,-12.0,-32.0,-29.0,1.0,21.0,-86.0,-10.0,1651023842070803.0,2
899,8.0,7.0,-10.0,-31.0,-16.0,-11.0,25.0,9.0,1651023842070803.0,2
900,5.0,14.0,24.0,-2.0,-7.0,7.0,16.0,-8.0,1651023842091847.0,2
901,4.0,-20.0,-3.0,41.0,29.0,-7.0,3.0,11.0,1651023842091847.0,2
902,-1.0,18.0,24.0,2.0,-11.0,6.0,45.0,3.0,1651023842093841.0,2
903,-10.0,7.0,1.0,5.0,-4.0,-40.0,-40.0,-13.0,1651023842093841.0,2
904,5.0,-3.0,-29.0,-10.0,-5.0,-15.0,-19.0,-8.0,1651023842105948.0,2
905,-4.0,-11.0,-16.0,-17.0,-9.0,51.0,-16.0,-8.0,1651023842105948.0,2
906,-6.0,-13.0,-37.0,-33.0,-11.0,-41.0,-1.0,-4.0,1651023842114902.0,2
907,-4.0,3.0,22.0,22.0,20.0,33.0,50.0,10.0,1651023842114902.0,2
908,4.0,-7.0,15.0,3.0,-14.0,66.0,48.0,19.0,1651023842129863.0,2
909,-2.0,9.0,7.0,2.0,14.0,-56.0,-63.0,-9.0,1651023842129863.0,2
910,12.0,11.0,-6.0,3.0,17.0,42.0,19.0,4.0,1651023842130861.0,2
911,-15.0,23.0,35.0,36.0,3.0,-30.0,-28.0,-18.0,1651023842130861.0,2
912,-6.0,-14.0,-45.0,-49.0,-20.0,-25.0,-20.0,-18.0,1651023842151888.0,2
913,-1.0,1.0,-20.0,-12.0,-14.0,-11.0,13.0,-3.0,1651023842151888.0,2
914,-2.0,-12.0,12.0,4.0,-4.0,-14.0,-13.0,4.0,1651023842157870.0,2
915,-16.0,-3.0,11.0,1.0,3.0,-4.0,16.0,-5.0,1651023842157870.0,2
916,6.0,5.0,0.0,18.0,16.0,38.0,26.0,36.0,1651023842174923.0,2
917,-15.0,-17.0,2.0,-14.0,6.0,0.0,-44.0,-34.0,1651023842174923.0,2
918,13.0,13.0,1.0,-10.0,-8.0,-4.0,13.0,3.0,1651023842175917.0,2
919,5.0,-12.0,-43.0,13.0,6.0,13.0,11.0,12.0,1651023842175917.0,2
920,-1.0,1.0,28.0,-3.0,-7.0,-22.0,-15.0,-6.0,1651023842189480.0,2
921,-2.0,3.0,1.0,-2.0,-21.0,-32.0,-8.0,-5.0,1651023842189480.0,2
922,14.0,9.0,14.0,1.0,18.0,38.0,14.0,5.0,1651023842191408.0,2
923,-2.0,13.0,-3.0,0.0,15.0,34.0,33.0,25.0,1651023842191408.0,2
924,-2.0,-13.0,-7.0,8.0,11.0,17.0,-7.0,3.0,1651023842212361.0,2
925,12.0,-7.0,2.0,8.0,3.0,9.0,-2.0,-3.0,1651023842212361.0,2
926,-21.0,-18.0,-1.0,-2.0,-23.0,-59.0,-13.0,-1.0,1651023842213350.0,2
927,-9.0,7.0,-4.0,-12.0,-2.0,26.0,-19.0,-13.0,1651023842213350.0,2
928,6.0,-2.0,-12.0,-8.0,-17.0,-35.0,-24.0,-16.0,1651023842234835.0,2
929,4.0,3.0,5.0,-11.0,4.0,-9.0,0.0,-1.0,1651023842234835.0,2
930,-1.0,14.0,-5.0,-9.0,-19.0,-13.0,3.0,-5.0,1651023842235835.0,2
931,5.0,-14.0,21.0,36.0,33.0,39.0,27.0,7.0,1651023842235835.0,2
932,9.0,9.0,26.0,36.0,16.0,1.0,-39.0,1.0,1651023842248950.0,2
933,-8.0,3.0,-13.0,-9.0,-7.0,-14.0,-8.0,-8.0,1651023842248950.0,2
934,4.0,5.0,14.0,20.0,11.0,6.0,-3.0,-5.0,1651023842250948.0,2
935,0.0,-14.0,-62.0,-56.0,-13.0,-9.0,25.0,3.0,1651023842250948.0,2
936,-10.0,9.0,15.0,6.0,2.0,-45.0,-20.0,-5.0,1651023842271954.0,2
937,14.0,28.0,77.0,51.0,23.0,62.0,33.0,14.0,1651023842271954.0,2
938,-10.0,-19.0,-65.0,-28.0,-8.0,19.0,30.0,14.0,1651023842273902.0,2
939,20.0,-5.0,4.0,-20.0,-22.0,4.0,-12.0,9.0,1651023842273902.0,2
940,-5.0,0.0,12.0,5.0,3.0,26.0,2.0,-15.0,1651023842293979.0,2
941,-2.0,27.0,4.0,-13.0,-26.0,-33.0,31.0,22.0,1651023842293979.0,2
942,-5.0,-33.0,15.0,24.0,20.0,6.0,-29.0,-12.0,1651023842295976.0,2
943,1.0,-19.0,-10.0,-12.0,-7.0,12.0,-20.0,-18.0,1651023842295976.0,2
944,2.0,15.0,4.0,-19.0,-16.0,-27.0,12.0,10.0,1651023842316986.0,2
945,-9.0,-11.0,-36.0,3.0,8.0,-26.0,-7.0,-14.0,1651023842316986.0,2
946,0.0,15.0,4.0,-6.0,5.0,19.0,14.0,-2.0,1651023842318915.0,2
947,-6.0,-2.0,-11.0,-6.0,-15.0,1.0,-5.0,-4.0,1651023842318915.0,2
948,12.0,-16.0,46.0,44.0,39.0,11.0,-1.0,13.0,1651023842331946.0,2
949,-6.0,-13.0,-45.0,-24.0,-15.0,-2.0,-7.0,-16.0,1651023842331946.0,2
950,-2.0,-6.0,-22.0,-35.0,-16.0,-20.0,-5.0,-5.0,1651023842333904.0,2
951,-4.0,-2.0,32.0,14.0,-2.0,-24.0,-17.0,-3.0,1651023842333904.0,2
952,-8.0,-13.0,-50.0,-47.0,-32.0,-31.0,6.0,13.0,1651023842354033.0,2
953,20.0,18.0,31.0,24.0,21.0,62.0,22.0,11.0,1651023842354033.0,2
954,-7.0,-15.0,-36.0,-8.0,-10.0,-27.0,-31.0,-10.0,1651023842355961.0,2
955,3.0,-5.0,30.0,5.0,-3.0,-3.0,10.0,5.0,1651023842355961.0,2
956,2.0,1.0,-27.0,0.0,5.0,5.0,9.0,-16.0,1651023842368953.0,2
957,-13.0,6.0,30.0,3.0,2.0,-28.0,-57.0,-12.0,1651023842368953.0,2
958,-1.0,-1.0,20.0,17.0,14.0,27.0,22.0,2.0,1651023842375979.0,2
959,3.0,18.0,27.0,27.0,9.0,4.0,8.0,7.0,1651023842375979.0,2
960,-4.0,-14.0,-64.0,-25.0,-10.0,8.0,-7.0,7.0,1651023842391864.0,2
961,-3.0,-1.0,7.0,-11.0,7.0,-7.0,8.0,-16.0,1651023842391864.0,2
962,11.0,5.0,17.0,15.0,-7.0,-20.0,21.0,9.0,1651023842393887.0,2
963,2.0,-11.0,-29.0,-17.0,22.0,51.0,-29.0,-4.0,1651023842393887.0,2
964,5.0,4.0,44.0,21.0,-8.0,-9.0,8.0,15.0,1651023842414178.0,2
965,-4.0,6.0,-12.0,17.0,-3.0,-8.0,13.0,-2.0,1651023842414178.0,2
966,3.0,14.0,24.0,-10.0,11.0,-3.0,-20.0,17.0,1651023842416137.0,2
967,-8.0,-18.0,-44.0,-51.0,-23.0,-27.0,9.0,-7.0,1651023842416137.0,2
968,-3.0,12.0,9.0,37.0,18.0,19.0,16.0,2.0,1651023842428256.0,2
969,6.0,-20.0,-12.0,-22.0,-9.0,-5.0,-9.0,8.0,1651023842428256.0,2
970,-4.0,8.0,19.0,4.0,-9.0,-6.0,0.0,-10.0,1651023842437168.0,2
971,2.0,-10.0,-7.0,11.0,-2.0,-25.0,-9.0,-3.0,1651023842437168.0,2
972,-9.0,17.0,18.0,-16.0,-28.0,-8.0,-8.0,-3.0,1651023842451940.0,2
973,2.0,-1.0,11.0,10.0,20.0,18.0,27.0,8.0,1651023842451940.0,2
974,3.0,-8.0,-39.0,-5.0,15.0,69.0,-4.0,-21.0,1651023842453923.0,2
975,5.0,13.0,12.0,-2.0,-13.0,-37.0,-6.0,11.0,1651023842453923.0,2
976,-6.0,-3.0,-5.0,-9.0,1.0,20.0,-10.0,-7.0,1651023842474016.0,2
977,4.0,2.0,28.0,13.0,-4.0,-18.0,-8.0,1.0,1651023842474016.0,2
978,-8.0,-3.0,-30.0,-19.0,-28.0,-1.0,57.0,13.0,1651023842476034.0,2
979,-7.0,4.0,11.0,15.0,33.0,10.0,-12.0,-14.0,1651023842476034.0,2
980,6.0,7.0,2.0,3.0,17.0,29.0,11.0,-3.0,1651023842489046.0,2
981,1.0,4.0,-10.0,-6.0,-19.0,-28.0,0.0,8.0,1651023842489046.0,2
982,4.0,-5.0,22.0,12.0,33.0,28.0,-2.0,2.0,1651023842496004.0,2
983,-1.0,-2.0,-31.0,-3.0,-32.0,-23.0,14.0,5.0,1651023842496004.0,2
984,2.0,-3.0,7.0,0.0,6.0,-11.0,9.0,3.0,1651023842512037.0,2
985,11.0,-6.0,-5.0,-2.0,10.0,10.0,-34.0,-14.0,1651023842512037.0,2
986,3.0,-1.0,1.0,-12.0,-25.0,-28.0,1.0,9.0,1651023842512968.0,2
987,5.0,5.0,14.0,8.0,-8.0,-14.0,1.0,8.0,1651023842512968.0,2
988,-4.0,-7.0,-24.0,-29.0,-8.0,30.0,-5.0,-13.0,1651023842534133.0,2
989,1.0,4.0,-13.0,-20.0,-8.0,-5.0,18.0,8.0,1651023842534133.0,2
990,3.0,3.0,26.0,19.0,12.0,-13.0,-26.0,-7.0,1651023842541076.0,2
991,1.0,4.0,-37.0,-2.0,2.0,24.0,14.0,3.0,1651023842541076.0,2
992,3.0,-2.0,17.0,5.0,-1.0,-29.0,8.0,6.0,1651023842549092.0,2
993,-9.0,-7.0,0.0,11.0,2.0,41.0,-14.0,-4.0,1651023842549092.0,2
994,0.0,3.0,10.0,1.0,-5.0,-37.0,8.0,0.0,1651023842556026.0,2
995,3.0,5.0,22.0,14.0,12.0,29.0,-7.0,8.0,1651023842556026.0,2
996,-3.0,1.0,8.0,0.0,-4.0,-8.0,9.0,-7.0,1651023842571978.0,2
997,-5.0,-4.0,-21.0,-1.0,-2.0,-31.0,-21.0,-6.0,1651023842571978.0,2
998,-8.0,-4.0,-14.0,-9.0,-6.0,-5.0,-23.0,-10.0,1651023842572962.0,2
999,1.0,10.0,25.0,1.0,-5.0,17.0,24.0,7.0,1651023842572962.0,2
1000,6.0,0.0,20.0,32.0,4.0,-6.0,-3.0,0.0,1651023842594911.0,2
1001,-1.0,-5.0,-45.0,-42.0,16.0,3.0,10.0,4.0,1651023842594911.0,2
1002,-1.0,1.0,15.0,24.0,-2.0,-10.0,-21.0,-2.0,1651023842595907.0,2
1003,5.0,-11.0,-16.0,-12.0,-1.0,-12.0,5.0,1.0,1651023842595907.0,2
1004,0.0,13.0,18.0,4.0,-2.0,0.0,-15.0,-6.0,1651023842608865.0,2
1005,-12.0,-13.0,-5.0,-7.0,-22.0,-27.0,-3.0,0.0,1651023842608865.0,2
1006,-1.0,-1.0,-22.0,-5.0,8.0,25.0,11.0,1.0,1651023842615914.0,2
1007,-4.0,4.0,-1.0,-15.0,-5.0,24.0,13.0,-6.0,1651023842615914.0,2
1008,-8.0,-5.0,7.0,14.0,11.0,2.0,-10.0,3.0,1651023842632031.0,2
1009,-2.0,3.0,2.0,5.0,-3.0,-22.0,14.0,-4.0,1651023842632031.0,2
1010,-6.0,-2.0,-13.0,-7.0,-2.0,-40.0,-19.0,2.0,1651023842632963.0,2
1011,-3.0,4.0,21.0,0.0,-1.0,64.0,-1.0,-7.0,1651023842632963.0,2
1012,2.0,-3.0,-9.0,2.0,5.0,1.0,14.0,1.0,1651023842654964.0,2
1013,-2.0,1.0,0.0,1.0,-5.0,12.0,2.0,-1.0,1651023842654964.0,2
1014,0.0,1.0,-10.0,3.0,1.0,-28.0,3.0,2.0,1651023842656922.0,2
1015,-3.0,2.0,9.0,3.0,-2.0,-30.0,-14.0,-8.0,1651023842656922.0,2
1016,-5.0,-11.0,4.0,6.0,17.0,10.0,4.0,-2.0,1651023842667942.0,2
1017,-1.0,-5.0,-18.0,-4.0,-6.0,4.0,7.0,6.0,1651023842667942.0,2
1018,-1.0,-3.0,-40.0,-29.0,-31.0,5.0,-2.0,-6.0,1651023842676931.0,2
1019,-4.0,-7.0,-1.0,2.0,17.0,-13.0,-10.0,4.0,1651023842676931.0,2
1020,-5.0,-2.0,-10.0,-11.0,-11.0,-5.0,-10.0,-12.0,1651023842699011.0,2
1021,7.0,9.0,34.0,17.0,4.0,4.0,1.0,3.0,1651023842699011.0,2
1022,-3.0,-3.0,2.0,-7.0,2.0,19.0,11.0,3.0,1651023842700938.0,2
1023,1.0,2.0,0.0,2.0,-9.0,-17.0,12.0,1.0,1651023842700938.0,2
1024,5.0,5.0,6.0,7.0,8.0,-14.0,-21.0,-1.0,1651023842713971.0,2
1025,-9.0,-5.0,-13.0,-3.0,9.0,42.0,-1.0,-3.0,1651023842713971.0,2
1026,-1.0,2.0,13.0,7.0,-2.0,13.0,8.0,0.0,1651023842715899.0,2
1027,1.0,-4.0,-2.0,-2.0,-4.0,-21.0,0.0,0.0,1651023842715899.0,2
1028,-7.0,1.0,-2.0,-9.0,-1.0,-8.0,-7.0,-9.0,1651023842737234.0,2
1029,10.0,1.0,28.0,17.0,-14.0,-7.0,7.0,10.0,1651023842737234.0,2
1030,4.0,7.0,-2.0,-2.0,20.0,15.0,-2.0,4.0,1651023842738229.0,2
1031,-9.0,-23.0,-32.0,-21.0,-4.0,-16.0,-5.0,-8.0,1651023842738229.0,2
1032,2.0,-5.0,-9.0,4.0,1.0,17.0,-3.0,3.0,1651023842752254.0,2
1033,-2.0,1.0,2.0,1.0,3.0,0.0,4.0,-1.0,1651023842752254.0,2
1034,0.0,4.0,41.0,21.0,1.0,-3.0,4.0,3.0,1651023842754208.0,2
1035,-3.0,2.0,-9.0,6.0,-15.0,-14.0,-9.0,-4.0,1651023842754208.0,2
1036,1.0,-3.0,-3.0,-8.0,12.0,-8.0,-4.0,-1.0,1651023842774832.0,2
1037,-1.0,10.0,-6.0,-5.0,0.0,10.0,4.0,0.0,1651023842774832.0,2
1038,1.0,2.0,10.0,13.0,7.0,-6.0,29.0,7.0,1651023842775870.0,2
1039,1.0,9.0,9.0,4.0,18.0,22.0,-34.0,-9.0,1651023842775870.0,2
1040,-1.0,-5.0,-8.0,-6.0,-24.0,-10.0,-3.0,2.0,1651023842787868.0,2
1041,-9.0,-8.0,8.0,-5.0,-2.0,-8.0,-3.0,-5.0,1651023842787868.0,2
1042,1.0,-2.0,-3.0,-10.0,-11.0,-1.0,-6.0,-3.0,1651023842796738.0,2
1043,1.0,0.0,4.0,5.0,1.0,-2.0,6.0,4.0,1651023842796738.0,2
1044,-2.0,4.0,-5.0,-2.0,1.0,-22.0,3.0,0.0,1651023842811812.0,2
1045,3.0,5.0,0.0,-5.0,3.0,41.0,5.0,4.0,1651023842811812.0,2
1046,-2.0,-4.0,-7.0,-7.0,-7.0,-15.0,-9.0,-5.0,1651023842813834.0,2
1047,2.0,0.0,9.0,4.0,0.0,1.0,6.0,1.0,1651023842813834.0,2
1048,-1.0,1.0,-2.0,0.0,2.0,2.0,-2.0,-1.0,1651023842834836.0,2
1049,0.0,-2.0,-2.0,3.0,1.0,-17.0,1.0,-1.0,1651023842834836.0,2
1050,-5.0,-7.0,-7.0,-9.0,-19.0,4.0,-9.0,-6.0,1651023842835838.0,2
1051,-1.0,6.0,9.0,-6.0,7.0,-9.0,-3.0,5.0,1651023842835838.0,2
1052,2.0,-4.0,-6.0,6.0,-1.0,15.0,10.0,5.0,1651023842847871.0,2
1053,0.0,-1.0,2.0,4.0,14.0,-5.0,2.0,-3.0,1651023842847871.0,2
1054,2.0,4.0,6.0,7.0,-2.0,3.0,-13.0,-8.0,1651023842856784.0,2
1055,-8.0,-9.0,-9.0,-9.0,-12.0,-16.0,-8.0,-13.0,1651023842856784.0,2
1056,0.0,8.0,-15.0,-26.0,-21.0,3.0,7.0,8.0,1651023842871626.0,2
1057,1.0,-2.0,13.0,13.0,11.0,1.0,4.0,5.0,1651023842871626.0,2
1058,-1.0,-12.0,2.0,4.0,-9.0,-8.0,-8.0,-1.0,1651023842873621.0,2
1059,8.0,45.0,5.0,7.0,17.0,0.0,2.0,-4.0,1651023842873621.0,2
1060,-2.0,1.0,0.0,0.0,5.0,10.0,-2.0,-5.0,1651023842894832.0,2
1061,8.0,14.0,-9.0,-13.0,-37.0,-11.0,-3.0,1.0,1651023842894832.0,2
1062,-7.0,-15.0,4.0,3.0,23.0,5.0,-1.0,2.0,1651023842895833.0,2
1063,3.0,-4.0,2.0,4.0,-2.0,0.0,2.0,0.0,1651023842895833.0,2
1064,-4.0,-17.0,-7.0,3.0,15.0,5.0,2.0,-1.0,1651023842907912.0,2
1065,-2.0,-9.0,-5.0,0.0,-1.0,-10.0,-7.0,-1.0,1651023842907912.0,2
1066,5.0,18.0,11.0,6.0,-2.0,5.0,1.0,-3.0,1651023842916891.0,2
1067,-6.0,-27.0,-5.0,-10.0,-11.0,-1.0,4.0,6.0,1651023842916891.0,2
1068,2.0,21.0,17.0,0.0,-6.0,0.0,-1.0,-2.0,1651023842931924.0,2
1069,-1.0,3.0,-5.0,3.0,3.0,-5.0,-1.0,2.0,1651023842931924.0,2
1070,-2.0,-9.0,-19.0,-6.0,3.0,3.0,-3.0,-4.0,1651023842933893.0,2
1071,-7.0,-14.0,-3.0,4.0,6.0,-1.0,4.0,3.0,1651023842933893.0,2
1072,3.0,-1.0,4.0,1.0,0.0,0.0,-7.0,-1.0,1651023842954827.0,2
1073,-3.0,-1.0,5.0,1.0,1.0,-6.0,-5.0,-5.0,1651023842954827.0,2
1074,4.0,30.0,11.0,1.0,0.0,4.0,1.0,1.0,1651023842955889.0,2
1075,6.0,8.0,4.0,0.0,-5.0,-3.0,3.0,8.0,1651023842955889.0,2
1076,-2.0,-11.0,-3.0,-2.0,-15.0,-3.0,1.0,-3.0,1651023842976832.0,2
1077,2.0,9.0,13.0,-2.0,3.0,-3.0,-2.0,0.0,1651023842976832.0,2
1078,-7.0,-39.0,-44.0,-3.0,19.0,7.0,0.0,-1.0,1651023842978791.0,2
1079,4.0,2.0,1.0,3.0,-6.0,-3.0,2.0,5.0,1651023842978791.0,2
1080,-2.0,1.0,3.0,2.0,11.0,6.0,0.0,-3.0,1651023842991796.0,2
1081,-3.0,-12.0,-2.0,1.0,-8.0,0.0,-3.0,-1.0,1651023842991796.0,2
1082,5.0,16.0,11.0,-6.0,-19.0,-8.0,3.0,3.0,1651023842993724.0,2
1083,-6.0,-11.0,-4.0,3.0,9.0,1.0,-1.0,-2.0,1651023842993724.0,2
1084,0.0,1.0,-2.0,-2.0,-3.0,2.0,3.0,0.0,1651023843013982.0,2
1085,8.0,21.0,8.0,9.0,9.0,-2.0,0.0,5.0,1651023843013982.0,2
1086,-11.0,-41.0,-19.0,-11.0,-9.0,0.0,-3.0,-5.0,1651023843015916.0,2
1087,-3.0,12.0,-10.0,-7.0,-3.0,-2.0,-2.0,-7.0,1651023843015916.0,2
1088,-5.0,-3.0,11.0,-1.0,-10.0,-4.0,-1.0,3.0,1651023843037910.0,2
1089,-5.0,-6.0,2.0,-2.0,6.0,2.0,3.0,-1.0,1651023843037910.0,2
1090,8.0,10.0,13.0,9.0,8.0,1.0,-2.0,3.0,1651023843039890.0,2
1091,-4.0,-5.0,-11.0,-4.0,-9.0,-1.0,-2.0,-4.0,1651023843039890.0,2
1092,-2.0,-9.0,-10.0,-5.0,3.0,-1.0,0.0,-1.0,1651023843051936.0,2
1093,0.0,21.0,8.0,-4.0,-13.0,-1.0,1.0,-2.0,1651023843051936.0,2
1094,-2.0,4.0,16.0,6.0,11.0,5.0,2.0,2.0,1651023843053855.0,2
1095,0.0,-18.0,-23.0,2.0,3.0,1.0,1.0,2.0,1651023843053855.0,2
1096,0.0,-5.0,-3.0,1.0,-4.0,-1.0,-1.0,-1.0,1651023843074872.0,2
1097,3.0,16.0,49.0,1.0,0.0,0.0,2.0,3.0,1651023843074872.0,2
1098,-4.0,-7.0,-47.0,-8.0,-14.0,-2.0,-2.0,1.0,1651023843075860.0,2
1099,-2.0,-6.0,25.0,7.0,19.0,1.0,0.0,3.0,1651023843075860.0,2
1100,4.0,-15.0,-27.0,-5.0,-21.0,-5.0,0.0,-1.0,1651023843096866.0,2
1101,0.0,1.0,-6.0,-9.0,-2.0,1.0,-5.0,-4.0,1651023843096866.0,2
1102,-9.0,-1.0,8.0,2.0,17.0,2.0,1.0,-2.0,1651023843098823.0,2
1103,4.0,-1.0,-8.0,1.0,2.0,0.0,1.0,-1.0,1651023843098823.0,2
1104,3.0,18.0,13.0,-1.0,-10.0,-5.0,2.0,1.0,1651023843111819.0,2
1105,-1.0,-28.0,-21.0,-3.0,7.0,0.0,-2.0,0.0,1651023843111819.0,2
1106,8.0,4.0,14.0,4.0,-7.0,0.0,0.0,1.0,1651023843113779.0,2
1107,-7.0,19.0,-3.0,-9.0,-19.0,-3.0,-2.0,-2.0,1651023843113779.0,2
1108,-4.0,6.0,8.0,8.0,28.0,3.0,-2.0,-2.0,1651023843134761.0,2
1109,1.0,1.0,-10.0,0.0,-2.0,1.0,-1.0,1.0,1651023843134761.0,2
1110,1.0,-6.0,8.0,-2.0,-1.0,0.0,1.0,1.0,1651023843135691.0,2
1111,12.0,-17.0,20.0,4.0,-1.0,0.0,1.0,4.0,1651023843135691.0,2
1112,-11.0,12.0,-3.0,-10.0,-8.0,-2.0,-5.0,-7.0,1651023843156697.0,2
1113,-4.0,1.0,-19.0,-9.0,-8.0,-7.0,-4.0,-1.0,1651023843156697.0,2
1114,3.0,6.0,-12.0,-12.0,-1.0,1.0,-3.0,-2.0,1651023843158653.0,2
1115,2.0,11.0,37.0,38.0,11.0,4.0,2.0,2.0,1651023843158653.0,2
1116,8.0,1.0,-3.0,-1.0,-1.0,1.0,0.0,2.0,1651023843171983.0,2
1117,-12.0,-25.0,-16.0,-2.0,1.0,0.0,0.0,-3.0,1651023843171983.0,2
1118,3.0,14.0,9.0,0.0,-2.0,-2.0,1.0,0.0,1651023843173916.0,2
1119,-9.0,-15.0,-9.0,-10.0,-9.0,-2.0,-1.0,-3.0,1651023843173916.0,2
1120,0.0,-15.0,1.0,1.0,2.0,1.0,1.0,0.0,1651023843194084.0,2
1121,5.0,22.0,-4.0,2.0,3.0,1.0,0.0,-1.0,1651023843194084.0,2
1122,1.0,-6.0,6.0,0.0,-4.0,-3.0,0.0,1.0,1651023843196012.0,2
1123,3.0,13.0,-11.0,-10.0,-6.0,-2.0,0.0,0.0,1651023843196012.0,2
1124,1.0,-7.0,1.0,0.0,5.0,0.0,0.0,1.0,1651023843216983.0,2
1125,-9.0,-19.0,-8.0,-4.0,-2.0,-3.0,-1.0,-1.0,1651023843216983.0,2
1126,0.0,0.0,7.0,4.0,-2.0,0.0,0.0,-2.0,1651023843218910.0,2
1127,-4.0,11.0,7.0,-5.0,0.0,-1.0,0.0,-3.0,1651023843218910.0,2
1128,5.0,10.0,-14.0,-5.0,-11.0,-3.0,-1.0,-1.0,1651023843230945.0,2
1129,-1.0,-10.0,9.0,4.0,8.0,-2.0,0.0,-1.0,1651023843230945.0,2
1130,0.0,6.0,2.0,4.0,9.0,2.0,-1.0,1.0,1651023843237870.0,2
1131,5.0,-9.0,-1.0,0.0,-4.0,0.0,-1.0,1.0,1651023843237870.0,2
1132,-8.0,-7.0,3.0,2.0,3.0,1.0,-1.0,0.0,1651023843253951.0,2
1133,1.0,21.0,-10.0,-3.0,-9.0,-3.0,1.0,0.0,1651023843253951.0,2
1134,0.0,-48.0,-5.0,0.0,-1.0,0.0,0.0,2.0,1651023843255932.0,2
1135,-3.0,37.0,3.0,-6.0,0.0,-2.0,-3.0,-3.0,1651023843255932.0,2
1136,-2.0,-2.0,-3.0,-2.0,-2.0,0.0,-2.0,-1.0,1651023843276691.0,2
1137,0.0,-14.0,-7.0,-2.0,-5.0,-3.0,-2.0,-2.0,1651023843276691.0,2
1138,3.0,11.0,1.0,0.0,5.0,3.0,-1.0,2.0,1651023843278688.0,2
1139,-4.0,-3.0,-6.0,-4.0,-3.0,-1.0,1.0,1.0,1651023843278688.0,2
1140,4.0,0.0,15.0,1.0,3.0,0.0,0.0,-1.0,1651023843291665.0,2
1141,1.0,2.0,-12.0,-3.0,-2.0,0.0,0.0,0.0,1651023843291665.0,2
1142,-6.0,-4.0,3.0,-1.0,-5.0,-2.0,0.0,-6.0,1651023843297705.0,2
1143,2.0,-11.0,-2.0,-2.0,-5.0,-2.0,0.0,0.0,1651023843297705.0,2
1144,-4.0,8.0,-6.0,-3.0,4.0,-2.0,-1.0,-1.0,1651023843314906.0,2
1145,6.0,2.0,11.0,2.0,11.0,5.0,2.0,2.0,1651023843314906.0,2
1146,-13.0,-35.0,-6.0,-4.0,-9.0,-4.0,-3.0,-3.0,1651023843315861.0,2
1147,0.0,-2.0,-7.0,-3.0,1.0,1.0,-1.0,0.0,1651023843315861.0,2
1148,4.0,11.0,2.0,0.0,-1.0,-1.0,2.0,1.0,1651023843344838.0,2
1149,-2.0,-4.0,-2.0,0.0,-5.0,-3.0,-2.0,-1.0,1651023843344838.0,2
1150,5.0,12.0,-4.0,-3.0,0.0,-1.0,0.0,0.0,1651023843345867.0,2
1151,-12.0,-14.0,3.0,-1.0,-4.0,-3.0,-1.0,-3.0,1651023843345867.0,2
1152,0.0,-24.0,-7.0,2.0,2.0,0.0,0.0,-1.0,1651023843350837.0,2
1153,-2.0,5.0,4.0,2.0,-1.0,3.0,0.0,-1.0,1651023843350837.0,2
1154,5.0,27.0,6.0,-3.0,-3.0,0.0,-1.0,2.0,1651023843359786.0,2
1155,10.0,7.0,-1.0,9.0,3.0,-1.0,-1.0,0.0,1651023843359786.0,2
1156,-3.0,-18.0,-6.0,-1.0,-3.0,0.0,1.0,1.0,1651023843373901.0,2
1157,-3.0,2.0,-1.0,2.0,3.0,0.0,0.0,-2.0,1651023843373901.0,2
1158,-3.0,-10.0,-5.0,0.0,8.0,-1.0,0.0,1.0,1651023843380922.0,2
1159,5.0,5.0,3.0,-6.0,-6.0,-1.0,-3.0,1.0,1651023843380922.0,2
1160,0.0,9.0,-7.0,-3.0,4.0,2.0,1.0,0.0,1651023843396876.0,2
1161,-2.0,-16.0,-1.0,-2.0,-11.0,-3.0,0.0,-1.0,1651023843396876.0,2
1162,0.0,9.0,5.0,5.0,-2.0,-3.0,-1.0,-1.0,1651023843398807.0,2
1163,0.0,7.0,-5.0,-4.0,3.0,-3.0,-2.0,-2.0,1651023843398807.0,2
1164,-3.0,-7.0,2.0,3.0,2.0,3.0,-1.0,0.0,1651023843410843.0,2
1165,-1.0,10.0,2.0,-1.0,3.0,-1.0,0.0,2.0,1651023843410843.0,2
1166,7.0,-15.0,-4.0,-3.0,-3.0,-1.0,-2.0,0.0,1651023843419751.0,2
1167,2.0,47.0,4.0,0.0,0.0,1.0,0.0,0.0,1651023843419751.0,2
1168,3.0,-3.0,2.0,-1.0,-2.0,-1.0,0.0,0.0,1651023843434005.0,2
1169,3.0,14.0,1.0,-5.0,-2.0,0.0,-1.0,0.0,1651023843434005.0,2
1170,-4.0,-4.0,0.0,4.0,0.0,1.0,2.0,0.0,1651023843436003.0,2
1171,2.0,-1.0,1.0,-2.0,-3.0,0.0,0.0,0.0,1651023843436003.0,2
1172,-2.0,-6.0,-3.0,-2.0,2.0,0.0,1.0,-1.0,1651023843457321.0,2
1173,-2.0,15.0,4.0,1.0,0.0,-1.0,-1.0,-1.0,1651023843457321.0,2
1174,-2.0,17.0,3.0,1.0,-2.0,0.0,-1.0,-2.0,1651023843458870.0,2
1175,-1.0,-19.0,-4.0,-1.0,1.0,1.0,1.0,1.0,1651023843458870.0,2
1176,-1.0,14.0,3.0,0.0,-1.0,-1.0,0.0,1.0,1651023843470904.0,2
1177,-2.0,-25.0,-5.0,0.0,1.0,-1.0,-1.0,0.0,1651023843470904.0,2
1178,0.0,6.0,-1.0,-1.0,0.0,0.0,-1.0,0.0,1651023843477822.0,2
1179,-4.0,-17.0,-4.0,-2.0,1.0,0.0,1.0,-1.0,1651023843477822.0,2
1180,0.0,1.0,0.0,1.0,1.0,-1.0,-3.0,0.0,1651023843494029.0,2
1181,0.0,-11.0,-1.0,1.0,-2.0,0.0,0.0,0.0,1651023843494029.0,2
1182,-2.0,7.0,4.0,-1.0,-3.0,-1.0,0.0,-1.0,1651023843495958.0,2
1183,2.0,1.0,-3.0,-1.0,2.0,2.0,-1.0,0.0,1651023843495958.0,2
1184,2.0,3.0,3.0,3.0,-1.0,-3.0,-2.0,-1.0,1651023843517321.0,2
1185,-2.0,-4.0,-3.0,-2.0,0.0,-2.0,0.0,-2.0,1651023843517321.0,2
1186,0.0,7.0,-4.0,0.0,-1.0,1.0,0.0,-1.0,1651023843518869.0,2
1187,-6.0,-16.0,-4.0,-1.0,-1.0,-1.0,-1.0,-2.0,1651023843518869.0,2
1188,0.0,22.0,3.0,-1.0,-2.0,-1.0,1.0,0.0,1651023843530838.0,2
1189,4.0,2.0,-1.0,-2.0,-1.0,-1.0,0.0,1.0,1651023843530838.0,2
1190,1.0,-15.0,0.0,0.0,-4.0,-2.0,1.0,-1.0,1651023843537878.0,2
1191,1.0,-1.0,-3.0,-1.0,4.0,2.0,-1.0,-1.0,1651023843537878.0,2
1192,-2.0,-20.0,-3.0,-1.0,-2.0,-2.0,-1.0,-2.0,1651023843553946.0,2
1193,2.0,15.0,5.0,1.0,3.0,4.0,0.0,0.0,1651023843553946.0,2
1194,3.0,8.0,1.0,1.0,2.0,1.0,-1.0,2.0,1651023843555943.0,2
1195,0.0,2.0,-2.0,-2.0,-4.0,-2.0,-1.0,0.0,1651023843555943.0,2
1196,-4.0,-18.0,-5.0,-2.0,1.0,1.0,0.0,-1.0,1651023843577048.0,2
1197,2.0,1.0,2.0,-1.0,-2.0,-1.0,0.0,-1.0,1651023843577048.0,2
1198,-14.0,-19.0,-9.0,-6.0,-27.0,-11.0,-3.0,-4.0,1651023843578048.0,2
1199,-2.0,-13.0,0.0,1.0,13.0,2.0,-2.0,-2.0,1651023843578048.0,2
1200,0.0,7.0,1.0,6.0,20.0,6.0,1.0,-1.0,1651023843591013.0,2
1201,1.0,-5.0,1.0,1.0,-6.0,-2.0,0.0,0.0,1651023843591013.0,2
1202,2.0,14.0,3.0,1.0,4.0,1.0,0.0,0.0,1651023843599989.0,2
1203,4.0,13.0,0.0,-1.0,-14.0,-4.0,0.0,2.0,1651023843599989.0,2
1204,-9.0,-12.0,-5.0,-6.0,-8.0,-5.0,-4.0,-2.0,1651023843614883.0,2
1205,-7.0,-15.0,-8.0,-2.0,5.0,3.0,-1.0,-3.0,1651023843614883.0,2
1206,-2.0,-1.0,2.0,-1.0,1.0,1.0,-1.0,0.0,1651023843615883.0,2
1207,1.0,13.0,3.0,-1.0,-2.0,-1.0,0.0,0.0,1651023843615883.0,2
1208,-1.0,2.0,-1.0,-3.0,-2.0,1.0,-1.0,-2.0,1651023843636898.0,2
1209,-6.0,-27.0,-7.0,-2.0,-2.0,-1.0,0.0,-1.0,1651023843636898.0,2
1210,2.0,3.0,4.0,2.0,4.0,1.0,-1.0,0.0,1651023843638822.0,2
1211,-3.0,3.0,-2.0,1.0,1.0,0.0,0.0,-1.0,1651023843638822.0,2
1212,9.0,21.0,-1.0,0.0,-3.0,1.0,-1.0,3.0,1651023843650858.0,2
1213,-8.0,-11.0,-4.0,-1.0,-5.0,-2.0,-4.0,-3.0,1651023843650858.0,2
1214,2.0,3.0,2.0,0.0,5.0,1.0,1.0,-1.0,1651023843659960.0,2
1215,-2.0,-10.0,1.0,-2.0,-2.0,-1.0,-1.0,0.0,1651023843659960.0,2
1216,4.0,12.0,-1.0,-1.0,-4.0,-3.0,-2.0,-1.0,1651023843674070.0,2
1217,0.0,-21.0,-3.0,0.0,0.0,2.0,1.0,1.0,1651023843674070.0,2
1218,2.0,9.0,1.0,1.0,2.0,0.0,0.0,0.0,1651023843676068.0,2
1219,-1.0,-19.0,-3.0,1.0,-3.0,0.0,0.0,1.0,1651023843676068.0,2
1220,-4.0,7.0,1.0,-2.0,-5.0,0.0,-1.0,0.0,1651023843697295.0,2
1221,-3.0,1.0,1.0,1.0,4.0,1.0,1.0,-2.0,1651023843697295.0,2
1222,-2.0,-7.0,-2.0,0.0,3.0,0.0,1.0,-1.0,1651023843698897.0,2
1223,3.0,0.0,-1.0,1.0,-3.0,-1.0,-1.0,0.0,1651023843698897.0,2
1224,0.0,17.0,1.0,-4.0,-6.0,-3.0,-1.0,-1.0,1651023843710933.0,2
1225,-1.0,-29.0,-5.0,-3.0,-8.0,0.0,-1.0,0.0,1651023843710933.0,2
1226,0.0,5.0,0.0,2.0,17.0,2.0,-1.0,-1.0,1651023843725959.0,2
1227,-3.0,-11.0,-3.0,-3.0,-15.0,-4.0,-2.0,-2.0,1651023843725959.0,2
1228,-2.0,-9.0,-1.0,1.0,14.0,2.0,-1.0,0.0,1651023843734904.0,2
1229,4.0,44.0,7.0,-2.0,1.0,1.0,-1.0,1.0,1651023843734904.0,2
1230,0.0,2.0,-1.0,0.0,-6.0,-2.0,0.0,0.0,1651023843735867.0,2
1231,-1.0,-12.0,-1.0,-1.0,3.0,0.0,-1.0,0.0,1651023843735867.0,2
1232,-1.0,-9.0,-2.0,1.0,-5.0,-2.0,1.0,-2.0,1651023843756878.0,2
1233,7.0,18.0,2.0,-2.0,-3.0,0.0,1.0,1.0,1651023843756878.0,2
1234,-5.0,6.0,0.0,-1.0,1.0,0.0,-1.0,-1.0,1651023843758835.0,2
1235,-7.0,-10.0,-4.0,0.0,1.0,-1.0,0.0,-1.0,1651023843758835.0,2
1236,0.0,-3.0,1.0,0.0,-6.0,1.0,-1.0,1.0,1651023843770978.0,2
1237,1.0,7.0,0.0,-1.0,2.0,-2.0,-1.0,0.0,1651023843770978.0,2
1238,6.0,9.0,2.0,1.0,0.0,-1.0,0.0,2.0,1651023843779871.0,2
1239,-12.0,2.0,-1.0,-4.0,-2.0,-3.0,-3.0,-4.0,1651023843779871.0,2
1240,1.0,2.0,0.0,-1.0,3.0,1.0,0.0,-2.0,1651023843794055.0,2
1241,-6.0,-28.0,-6.0,-1.0,2.0,0.0,-1.0,0.0,1651023843794055.0,2
1242,4.0,8.0,-1.0,-3.0,-4.0,-1.0,-1.0,-1.0,1651023843796050.0,2
1243,6.0,21.0,5.0,0.0,1.0,0.0,1.0,1.0,1651023843796050.0,2
1244,-3.0,-41.0,-8.0,-2.0,-1.0,1.0,-1.0,-1.0,1651023843817302.0,2
1245,1.0,2.0,4.0,0.0,0.0,-3.0,-2.0,-3.0,1651023843817302.0,2
1246,-1.0,-13.0,-4.0,-1.0,-2.0,-1.0,0.0,-1.0,1651023843818867.0,2
1247,1.0,-6.0,-1.0,0.0,4.0,1.0,0.0,1.0,1651023843818867.0,2
1248,5.0,38.0,8.0,0.0,-2.0,-2.0,0.0,1.0,1651023843830928.0,2
1249,-4.0,-15.0,-3.0,0.0,0.0,-1.0,0.0,-1.0,1651023843830928.0,2
1250,-4.0,-6.0,-3.0,-3.0,-3.0,-2.0,-2.0,-2.0,1651023843839957.0,2
1251,2.0,-1.0,2.0,2.0,1.0,0.0,0.0,-2.0,1651023843839957.0,2
1252,0.0,7.0,1.0,0.0,-1.0,0.0,0.0,1.0,1651023843854928.0,2
1253,1.0,4.0,-2.0,-1.0,0.0,-1.0,1.0,1.0,1651023843854928.0,2
1254,0.0,1.0,-1.0,-2.0,0.0,0.0,0.0,-2.0,1651023843855917.0,2
1255,1.0,5.0,-1.0,-1.0,0.0,0.0,0.0,1.0,1651023843855917.0,2
1256,0.0,-4.0,-1.0,-1.0,-2.0,-2.0,0.0,-1.0,1651023843876928.0,2
1257,1.0,5.0,-1.0,0.0,0.0,-1.0,-1.0,-1.0,1651023843876928.0,2
1258,-2.0,-3.0,0.0,-2.0,-2.0,0.0,-2.0,0.0,1651023843878882.0,2
1259,-2.0,-6.0,0.0,1.0,0.0,-2.0,-1.0,-3.0,1651023843878882.0,2
1260,0.0,-1.0,-3.0,0.0,-2.0,0.0,2.0,0.0,1651023843890851.0,2
1261,-2.0,5.0,2.0,0.0,2.0,-2.0,-1.0,-1.0,1651023843890851.0,2
1262,4.0,33.0,7.0,-1.0,-3.0,-1.0,-1.0,1.0,1651023843899800.0,2
1263,2.0,-4.0,-2.0,0.0,0.0,2.0,2.0,2.0,1651023843899800.0,2
1264,0.0,16.0,4.0,1.0,-2.0,-2.0,0.0,-3.0,1651023843914857.0,2
1265,-1.0,11.0,0.0,1.0,3.0,-1.0,-1.0,-2.0,1651023843914857.0,2
1266,1.0,-10.0,-1.0,0.0,-3.0,-1.0,0.0,-1.0,1651023843915857.0,2
1267,-7.0,19.0,2.0,-1.0,0.0,0.0,0.0,-1.0,1651023843915857.0,2
1268,-5.0,-22.0,-5.0,-2.0,-3.0,0.0,-1.0,0.0,1651023843936914.0,2
1269,2.0,5.0,1.0,-1.0,-2.0,0.0,0.0,0.0,1651023843936914.0,2
1270,-3.0,-10.0,-4.0,-4.0,-23.0,-6.0,-3.0,-3.0,1651023843938907.0,2
1271,2.0,5.0,0.0,0.0,8.0,0.0,-2.0,-1.0,1651023843938907.0,2
1272,-2.0,-7.0,0.0,6.0,22.0,9.0,0.0,-1.0,1651023843950939.0,2
1273,-1.0,3.0,2.0,1.0,-5.0,-1.0,-1.0,1.0,1651023843950939.0,2
1274,-1.0,-5.0,-1.0,1.0,3.0,-2.0,0.0,1.0,1651023843959852.0,2
1275,0.0,-6.0,-2.0,-4.0,-11.0,-3.0,0.0,-1.0,1651023843959852.0,2
1276,0.0,-9.0,-4.0,-3.0,-6.0,-3.0,-1.0,0.0,1651023843974811.0,2
1277,-2.0,-27.0,-5.0,-3.0,3.0,0.0,0.0,1.0,1651023843974811.0,2
1278,-8.0,-2.0,-3.0,-1.0,-2.0,1.0,0.0,-2.0,1651023843975808.0,2
1279,3.0,0.0,-1.0,0.0,0.0,0.0,1.0,-1.0,1651023843975808.0,2
1280,0.0,-7.0,-3.0,-1.0,2.0,0.0,0.0,0.0,1651023843997073.0,2
1281,5.0,10.0,0.0,-2.0,-1.0,0.0,-1.0,0.0,1651023843997073.0,2
1282,-15.0,-18.0,-2.0,-1.0,2.0,-1.0,-1.0,-5.0,1651023843998003.0,2
1283,-2.0,-7.0,-2.0,1.0,2.0,1.0,0.0,0.0,1651023843998003.0,2
1284,0.0,6.0,3.0,1.0,-3.0,-1.0,1.0,2.0,1651023844019164.0,2
1285,-1.0,-24.0,0.0,-1.0,-5.0,-4.0,-2.0,-1.0,1651023844019164.0,2
1286,-1.0,-16.0,-5.0,-1.0,6.0,1.0,0.0,-1.0,1651023844021092.0,2
1287,1.0,2.0,0.0,0.0,2.0,0.0,0.0,0.0,1651023844021092.0,2
1288,1.0,-8.0,-1.0,1.0,-5.0,-1.0,2.0,-1.0,1651023844034851.0,2
1289,0.0,14.0,2.0,-2.0,0.0,1.0,-1.0,0.0,1651023844034851.0,2
1290,3.0,10.0,0.0,0.0,6.0,2.0,2.0,0.0,1651023844035852.0,2
1291,-4.0,-29.0,-5.0,-2.0,-2.0,-1.0,-1.0,-1.0,1651023844035852.0,2
1292,-2.0,-5.0,-1.0,-1.0,-4.0,-2.0,0.0,-1.0,1651023844056865.0,2
1293,9.0,5.0,-3.0,-2.0,-1.0,-1.0,-1.0,1.0,1651023844056865.0,2
1294,3.0,6.0,0.0,1.0,1.0,0.0,-1.0,2.0,1651023844058817.0,2
1295,0.0,7.0,-1.0,0.0,-3.0,0.0,-1.0,0.0,1651023844058817.0,2
1296,-3.0,4.0,0.0,-2.0,-4.0,-2.0,-1.0,-2.0,1651023844079854.0,2
1297,1.0,-2.0,-2.0,0.0,0.0,0.0,-1.0,-1.0,1651023844079854.0,2
1298,5.0,7.0,2.0,0.0,-1.0,-2.0,1.0,1.0,1651023844080832.0,2
1299,-2.0,0.0,-1.0,0.0,0.0,0.0,-1.0,-1.0,1651023844080832.0,2
1300,0.0,-4.0,-3.0,-2.0,-3.0,-1.0,-1.0,0.0,1651023844094833.0,2
1301,9.0,9.0,-3.0,-2.0,-5.0,-3.0,-2.0,-2.0,1651023844094833.0,2
1302,-6.0,-19.0,0.0,0.0,3.0,0.0,-2.0,-1.0,1651023844095785.0,2
1303,9.0,7.0,4.0,1.0,0.0,-1.0,1.0,1.0,1651023844095785.0,2
1304,-10.0,4.0,1.0,0.0,0.0,2.0,1.0,0.0,1651023844117016.0,2
1305,-14.0,-20.0,-4.0,-4.0,-3.0,-2.0,-4.0,-5.0,1651023844117016.0,2
1306,-3.0,-7.0,1.0,0.0,-2.0,2.0,2.0,1.0,1651023844118949.0,2
1307,4.0,9.0,0.0,1.0,3.0,-1.0,-3.0,0.0,1651023844118949.0,2
1308,2.0,-7.0,2.0,3.0,0.0,0.0,0.0,1.0,1651023844138922.0,2
1309,-2.0,-2.0,-3.0,0.0,1.0,1.0,1.0,1.0,1651023844138922.0,2
1310,-4.0,-7.0,-1.0,-1.0,0.0,0.0,-3.0,-3.0,1651023844140890.0,2
1311,-8.0,-13.0,-1.0,-1.0,-2.0,0.0,-1.0,-1.0,1651023844140890.0,2
1312,5.0,-3.0,-6.0,-5.0,-4.0,-2.0,-3.0,1.0,1651023844153918.0,2
1313,-6.0,8.0,3.0,1.0,2.0,2.0,1.0,0.0,1651023844153918.0,2
1314,1.0,11.0,-1.0,1.0,2.0,1.0,2.0,-1.0,1651023844160899.0,2
1315,2.0,0.0,1.0,1.0,-1.0,-1.0,-1.0,1.0,1651023844160899.0,2
1316,-3.0,7.0,1.0,1.0,2.0,-2.0,-2.0,0.0,1651023844176860.0,2
1317,-1.0,3.0,0.0,0.0,0.0,0.0,1.0,0.0,1651023844176860.0,2
1318,4.0,10.0,2.0,0.0,-2.0,0.0,1.0,2.0,1651023844178788.0,2
1319,-5.0,-1.0,-1.0,0.0,-1.0,0.0,-2.0,-4.0,1651023844178788.0,2
1320,0.0,-9.0,-2.0,-2.0,-1.0,-1.0,0.0,-2.0,1651023844199826.0,2
1321,-2.0,-3.0,-4.0,-2.0,-1.0,-1.0,-1.0,0.0,1651023844199826.0,2
1322,1.0,8.0,4.0,4.0,2.0,2.0,0.0,3.0,1651023844200761.0,2
1323,-2.0,-38.0,-2.0,3.0,1.0,3.0,0.0,0.0,1651023844200761.0,2
1324,4.0,27.0,4.0,-3.0,-4.0,-1.0,-1.0,-2.0,1651023844213843.0,2
1325,-1.0,7.0,4.0,3.0,-1.0,-1.0,1.0,-2.0,1651023844213843.0,2
1326,3.0,4.0,-2.0,-3.0,0.0,-1.0,-2.0,-2.0,1651023844220882.0,2
1327,-2.0,-3.0,-1.0,0.0,-3.0,1.0,1.0,2.0,1651023844220882.0,2
1328,-6.0,-27.0,-5.0,-2.0,-2.0,-1.0,-2.0,-3.0,1651023844237037.0,2
1329,0.0,-2.0,-2.0,-1.0,-3.0,-2.0,-3.0,-1.0,1651023844237037.0,2
1330,0.0,0.0,0.0,-1.0,-2.0,-2.0,-2.0,0.0,1651023844238966.0,2
1331,3.0,14.0,0.0,-2.0,4.0,-2.0,0.0,0.0,1651023844238966.0,2
1332,5.0,-7.0,-3.0,-1.0,-3.0,-1.0,1.0,1.0,1651023844259007.0,2
1333,-1.0,17.0,7.0,0.0,0.0,1.0,1.0,0.0,1651023844259007.0,2
1334,-3.0,-3.0,-2.0,-1.0,-20.0,-4.0,-1.0,-1.0,1651023844260936.0,2
1335,2.0,1.0,-2.0,2.0,25.0,3.0,2.0,-1.0,1651023844260936.0,2
1336,0.0,-19.0,-3.0,1.0,-3.0,-1.0,2.0,0.0,1651023844273904.0,2
1337,3.0,19.0,6.0,-1.0,-3.0,-1.0,-2.0,-1.0,1651023844273904.0,2
1338,2.0,0.0,0.0,-2.0,-4.0,-1.0,1.0,1.0,1651023844280978.0,2
1339,0.0,9.0,-1.0,-6.0,-11.0,-5.0,-2.0,-1.0,1651023844280978.0,2
1340,0.0,13.0,18.0,5.0,5.0,-1.0,-2.0,2.0,1651023844296902.0,2
1341,2.0,7.0,-22.0,0.0,0.0,-1.0,-1.0,1.0,1651023844296902.0,2
1342,-6.0,-18.0,2.0,6.0,3.0,-2.0,-1.0,-2.0,1651023844298860.0,2
1343,-2.0,9.0,2.0,6.0,-3.0,-2.0,0.0,-2.0,1651023844298860.0,2
1344,-2.0,19.0,8.0,-15.0,-4.0,-1.0,1.0,0.0,1651023844319008.0,2
1345,5.0,-32.0,-2.0,8.0,2.0,0.0,-1.0,-1.0,1651023844319008.0,2
1346,-6.0,1.0,-16.0,-11.0,12.0,4.0,0.0,-3.0,1651023844326001.0,2
1347,-19.0,-14.0,-6.0,-1.0,-2.0,2.0,-3.0,-8.0,1651023844326001.0,2
1348,0.0,8.0,10.0,6.0,-5.0,-1.0,-4.0,-6.0,1651023844334167.0,2
1349,-15.0,-5.0,0.0,-15.0,-16.0,-5.0,3.0,3.0,1651023844334167.0,2
1350,0.0,-7.0,-6.0,-1.0,16.0,1.0,6.0,2.0,1651023844340911.0,2
1351,14.0,15.0,-12.0,-6.0,-16.0,-6.0,7.0,5.0,1651023844340911.0,2
1352,6.0,0.0,3.0,-8.0,11.0,26.0,96.0,21.0,1651023844371965.0,2
1353,36.0,9.0,1.0,-9.0,-14.0,-7.0,-57.0,-3.0,1651023844371965.0,2
1354,-5.0,7.0,3.0,6.0,3.0,-43.0,-43.0,-24.0,1651023844373899.0,2
1355,-43.0,-29.0,-11.0,1.0,-9.0,7.0,33.0,-5.0,1651023844373899.0,2
1356,-5.0,0.0,-25.0,15.0,12.0,42.0,-11.0,10.0,1651023844378885.0,2
1357,-68.0,-22.0,3.0,-25.0,13.0,17.0,26.0,-15.0,1651023844378885.0,2
1358,36.0,1.0,23.0,56.0,15.0,2.0,-48.0,11.0,1651023844380881.0,2
1359,34.0,7.0,10.0,-3.0,-18.0,-37.0,-48.0,-18.0,1651023844380881.0,0
1360,112.0,56.0,18.0,-18.0,-14.0,-23.0,26.0,26.0,1651023844392875.0,3
1361,-83.0,-39.0,-60.0,-9.0,-24.0,4.0,97.0,47.0,1651023844392875.0,3
1362,-23.0,-68.0,-26.0,-57.0,22.0,36.0,109.0,-16.0,1651023844401823.0,3
1363,-52.0,7.0,-28.0,55.0,29.0,-52.0,-54.0,-32.0,1651023844401823.0,3
1364,7.0,-21.0,-2.0,-13.0,-25.0,-25.0,-64.0,-52.0,1651023844416839.0,3
1365,14.0,20.0,-17.0,-46.0,4.0,68.0,77.0,4.0,1651023844416839.0,3
1366,37.0,2.0,-8.0,0.0,-19.0,0.0,33.0,40.0,1651023844418809.0,3
1367,44.0,17.0,64.0,55.0,7.0,22.0,-41.0,7.0,1651023844418809.0,3
1368,-44.0,-13.0,-66.0,-45.0,-14.0,-41.0,57.0,0.0,1651023844439016.0,3
1369,-2.0,10.0,36.0,8.0,0.0,-40.0,-123.0,-26.0,1651023844439016.0,3
1370,20.0,27.0,46.0,-15.0,4.0,15.0,72.0,44.0,1651023844440948.0,3
1371,-12.0,2.0,-31.0,44.0,18.0,10.0,-72.0,-36.0,1651023844440948.0,3
1372,-26.0,9.0,92.0,54.0,22.0,-11.0,-11.0,-3.0,1651023844452983.0,3
1373,55.0,-3.0,-32.0,25.0,-5.0,-7.0,10.0,8.0,1651023844452983.0,3
1374,-4.0,18.0,69.0,47.0,25.0,26.0,39.0,11.0,1651023844461910.0,3
1375,14.0,19.0,30.0,-45.0,-32.0,-10.0,20.0,23.0,1651023844461910.0,3
1376,-21.0,-20.0,-18.0,-11.0,3.0,-89.0,-26.0,-2.0,1651023844484821.0,3
1377,11.0,19.0,-32.0,-16.0,13.0,102.0,74.0,6.0,1651023844484821.0,3
1378,4.0,-1.0,-33.0,-40.0,-30.0,-57.0,-35.0,-12.0,1651023844485697.0,3
1379,-10.0,-8.0,17.0,14.0,22.0,-14.0,4.0,10.0,1651023844485697.0,3
1380,-16.0,-9.0,50.0,48.0,8.0,1.0,-69.0,-19.0,1651023844499944.0,3
1381,11.0,-1.0,-56.0,-45.0,-14.0,-84.0,-35.0,-7.0,1651023844499944.0,3
1382,-7.0,18.0,36.0,59.0,-5.0,-33.0,40.0,18.0,1651023844500941.0,3
1383,9.0,-8.0,-93.0,-75.0,-11.0,127.0,106.0,12.0,1651023844500941.0,3
1384,4.0,-6.0,29.0,-9.0,14.0,55.0,-79.0,-6.0,1651023844513510.0,3
1385,13.0,-2.0,7.0,44.0,8.0,-42.0,-58.0,-18.0,1651023844513510.0,3
1386,-18.0,20.0,38.0,5.0,-5.0,-2.0,15.0,-2.0,1651023844522495.0,3
1387,-5.0,-46.0,13.0,-9.0,-2.0,-33.0,80.0,13.0,1651023844522495.0,3
1388,6.0,31.0,-7.0,30.0,5.0,-3.0,-1.0,13.0,1651023844536519.0,3
1389,-15.0,5.0,64.0,27.0,3.0,10.0,-38.0,-13.0,1651023844536519.0,3
1390,13.0,-1.0,-81.0,-41.0,-17.0,-18.0,-6.0,-6.0,1651023844538446.0,3
1391,6.0,2.0,-33.0,-45.0,-6.0,58.0,22.0,5.0,1651023844538446.0,3
1392,-18.0,-7.0,5.0,14.0,4.0,-7.0,-21.0,-6.0,1651023844559457.0,3
1393,26.0,20.0,16.0,1.0,2.0,-11.0,64.0,29.0,1651023844559457.0,3
1394,-41.0,-44.0,26.0,27.0,4.0,-10.0,-96.0,-54.0,1651023844561414.0,3
1395,6.0,1.0,-38.0,-29.0,3.0,79.0,-26.0,-2.0,1651023844561414.0,3
1396,2.0,-20.0,-61.0,-43.0,-18.0,-19.0,46.0,13.0,1651023844573353.0,3
1397,6.0,23.0,104.0,68.0,9.0,-37.0,-4.0,-12.0,1651023844573353.0,3
1398,-7.0,2.0,-70.0,-57.0,-12.0,36.0,-11.0,-3.0,1651023844582342.0,3
1399,-5.0,-3.0,37.0,14.0,6.0,-52.0,-12.0,-1.0,1651023844582342.0,3
1400,-3.0,-8.0,-32.0,-7.0,-8.0,4.0,52.0,11.0,1651023844604504.0,3
1401,0.0,-2.0,27.0,18.0,15.0,39.0,11.0,5.0,1651023844604504.0,3
1402,19.0,20.0,16.0,32.0,18.0,26.0,-31.0,-7.0,1651023844606447.0,3
1403,0.0,8.0,-21.0,-13.0,-14.0,-64.0,20.0,11.0,1651023844606447.0,3
1404,-9.0,-1.0,-7.0,-18.0,-2.0,18.0,-21.0,-7.0,1651023844619464.0,3
1405,-5.0,-6.0,32.0,39.0,5.0,-18.0,-7.0,-3.0,1651023844619464.0,3
1406,2.0,-7.0,-44.0,-61.0,-17.0,11.0,-15.0,-7.0,1651023844621391.0,3
1407,-4.0,13.0,-9.0,9.0,13.0,-20.0,13.0,11.0,1651023844621391.0,3
1408,-9.0,15.0,81.0,44.0,-3.0,1.0,19.0,3.0,1651023844632485.0,3
1409,-13.0,-51.0,-128.0,-77.0,-4.0,5.0,-1.0,-10.0,1651023844632485.0,3
1410,-3.0,7.0,41.0,9.0,-5.0,43.0,-19.0,-1.0,1651023844642461.0,3
1411,13.0,6.0,28.0,2.0,-2.0,-67.0,-29.0,2.0,1651023844642461.0,3
1412,2.0,1.0,-11.0,-7.0,-9.0,30.0,-5.0,-5.0,1651023844656440.0,3
1413,-13.0,0.0,0.0,-12.0,-14.0,-9.0,2.0,-6.0,1651023844656440.0,3
1414,-6.0,-7.0,9.0,20.0,11.0,3.0,30.0,4.0,1651023844658431.0,3
1415,7.0,0.0,52.0,23.0,-1.0,-22.0,51.0,24.0,1651023844658431.0,3
1416,-6.0,-10.0,-76.0,-70.0,-18.0,4.0,-66.0,-22.0,1651023844679430.0,3
1417,4.0,-15.0,-4.0,41.0,35.0,23.0,15.0,7.0,1651023844679430.0,3
1418,1.0,5.0,1.0,-15.0,-20.0,-32.0,-13.0,0.0,1651023844681358.0,3
1419,-2.0,13.0,21.0,2.0,-4.0,1.0,-12.0,-7.0,1651023844681358.0,3
1420,-2.0,-10.0,34.0,53.0,23.0,23.0,103.0,26.0,1651023844693326.0,3
1421,6.0,-2.0,-2.0,-24.0,-23.0,-38.0,-93.0,-27.0,1651023844693326.0,3
1422,-15.0,19.0,-6.0,-7.0,-2.0,8.0,-34.0,-11.0,1651023844702302.0,3
1423,-6.0,-2.0,-19.0,3.0,-2.0,-33.0,-21.0,-10.0,1651023844702302.0,3
1424,17.0,-14.0,-1.0,-15.0,-8.0,22.0,43.0,11.0,1651023844717324.0,3
1425,28.0,18.0,-36.0,-17.0,12.0,53.0,18.0,16.0,1651023844717324.0,3
1426,-31.0,-29.0,-2.0,18.0,7.0,-19.0,12.0,-17.0,1651023844718272.0,3
1427,11.0,-2.0,53.0,11.0,-6.0,30.0,-11.0,0.0,1651023844718272.0,3
1428,-16.0,-11.0,-79.0,-46.0,-15.0,-39.0,-17.0,-8.0,1651023844739876.0,3
1429,17.0,3.0,43.0,35.0,-1.0,-28.0,12.0,4.0,1651023844739876.0,3
1430,8.0,23.0,32.0,20.0,24.0,40.0,-8.0,9.0,1651023844740874.0,3
1431,-13.0,-12.0,-39.0,-21.0,-14.0,-7.0,10.0,-7.0,1651023844740874.0,3
1432,17.0,11.0,19.0,17.0,4.0,-7.0,7.0,8.0,1651023844752957.0,3
1433,-17.0,-11.0,-7.0,-49.0,-1.0,1.0,7.0,-3.0,1651023844752957.0,3
1434,-9.0,-5.0,-12.0,-3.0,-16.0,-27.0,-54.0,-21.0,1651023844761935.0,3
1435,-9.0,12.0,44.0,45.0,23.0,14.0,12.0,3.0,1651023844761935.0,3
1436,2.0,2.0,31.0,32.0,11.0,-4.0,-7.0,2.0,1651023844777042.0,3
1437,-12.0,9.0,-56.0,-45.0,-26.0,-13.0,51.0,-3.0,1651023844777042.0,3
1438,11.0,-3.0,13.0,-3.0,-11.0,-18.0,-41.0,6.0,1651023844778042.0,3
1439,11.0,-5.0,3.0,-11.0,3.0,9.0,-8.0,-4.0,1651023844778042.0,3
1440,-22.0,7.0,-2.0,9.0,25.0,72.0,-2.0,-17.0,1651023844799903.0,3
1441,-2.0,6.0,35.0,23.0,2.0,24.0,32.0,18.0,1651023844799903.0,3
1442,4.0,-9.0,-26.0,-8.0,1.0,-17.0,30.0,-4.0,1651023844800891.0,3
1443,-11.0,-8.0,-15.0,-14.0,-16.0,-6.0,-21.0,2.0,1651023844800891.0,3
1444,0.0,3.0,90.0,45.0,6.0,-36.0,-14.0,-2.0,1651023844812980.0,3
1445,-12.0,-6.0,-96.0,-79.0,-32.0,-16.0,0.0,-10.0,1651023844812980.0,3
1446,15.0,3.0,4.0,3.0,-19.0,-8.0,17.0,24.0,1651023844821968.0,3
1447,16.0,18.0,-5.0,-29.0,15.0,14.0,-6.0,-17.0,1651023844821968.0,3
1448,-7.0,-26.0,-10.0,14.0,5.0,-16.0,3.0,-5.0,1651023844836965.0,3
1449,15.0,15.0,106.0,57.0,8.0,-2.0,-18.0,1.0,1651023844836965.0,3
1450,12.0,4.0,-62.0,-15.0,5.0,12.0,65.0,20.0,1651023844838915.0,3
1451,-29.0,-7.0,19.0,-27.0,-27.0,-33.0,-74.0,-18.0,1651023844838915.0,3
1452,-1.0,-2.0,-5.0,-25.0,-7.0,-21.0,28.0,14.0,1651023844859845.0,3
1453,10.0,7.0,27.0,14.0,-3.0,28.0,-52.0,-22.0,1651023844859845.0,3
1454,-3.0,13.0,20.0,15.0,4.0,-45.0,18.0,2.0,1651023844860834.0,3
1455,11.0,-11.0,-24.0,-8.0,-15.0,15.0,0.0,7.0,1651023844860834.0,3
1456,-4.0,-1.0,-47.0,-12.0,9.0,41.0,40.0,12.0,1651023844883773.0,3
1457,5.0,6.0,18.0,23.0,12.0,-4.0,8.0,13.0,1651023844883773.0,3
1458,-13.0,-1.0,24.0,14.0,7.0,-3.0,4.0,-4.0,1651023844884770.0,3
1459,12.0,2.0,-20.0,-11.0,-8.0,-18.0,-9.0,1.0,1651023844884770.0,3
1460,13.0,3.0,-25.0,-33.0,-14.0,-27.0,-20.0,-4.0,1651023844896738.0,3
1461,-9.0,-5.0,27.0,19.0,4.0,0.0,8.0,1.0,1651023844896738.0,3
1462,-5.0,5.0,15.0,17.0,6.0,13.0,-3.0,-4.0,1651023844898733.0,3
1463,8.0,-8.0,-4.0,6.0,4.0,-12.0,-23.0,3.0,1651023844898733.0,3
1464,20.0,30.0,6.0,-8.0,-9.0,6.0,-21.0,-3.0,1651023844919706.0,3
1465,-2.0,-2.0,-25.0,-19.0,6.0,-6.0,-17.0,-20.0,1651023844919706.0,3
1466,-12.0,-21.0,1.0,-4.0,-5.0,-19.0,7.0,14.0,1651023844920675.0,3
1467,3.0,1.0,11.0,7.0,2.0,58.0,62.0,-3.0,1651023844920675.0,3
1468,-12.0,-18.0,28.0,26.0,8.0,-26.0,-77.0,-18.0,1651023844932824.0,3
1469,20.0,-18.0,-46.0,-31.0,-3.0,-13.0,-8.0,4.0,1651023844932824.0,3
1470,8.0,21.0,-6.0,-21.0,-6.0,32.0,18.0,12.0,1651023844941742.0,3
1471,-11.0,4.0,35.0,34.0,7.0,38.0,39.0,-2.0,1651023844941742.0,3
1472,-3.0,-5.0,-53.0,-27.0,-13.0,-15.0,9.0,-6.0,1651023844956695.0,3
1473,-11.0,-4.0,9.0,8.0,-4.0,-51.0,-22.0,-1.0,1651023844956695.0,3
1474,10.0,0.0,-12.0,-15.0,-5.0,2.0,-30.0,-20.0,1651023844958690.0,3
1475,-11.0,-2.0,-19.0,-26.0,-11.0,7.0,7.0,4.0,1651023844958690.0,3
1476,-6.0,4.0,42.0,51.0,24.0,5.0,-11.0,-9.0,1651023844979005.0,3
1477,-8.0,-2.0,-2.0,17.0,3.0,1.0,24.0,5.0,1651023844979005.0,3
1478,-1.0,1.0,42.0,21.0,-7.0,0.0,4.0,-1.0,1651023844980940.0,3
1479,15.0,-1.0,-84.0,-47.0,0.0,-15.0,-9.0,6.0,1651023844980940.0,3
1480,8.0,10.0,16.0,-20.0,-10.0,-3.0,34.0,9.0,1651023845002099.0,3
1481,-21.0,7.0,34.0,20.0,13.0,21.0,-20.0,-5.0,1651023845002099.0,3
1482,8.0,-16.0,-39.0,-22.0,0.0,14.0,-22.0,-19.0,1651023845003056.0,3
1483,-16.0,15.0,41.0,27.0,4.0,-1.0,19.0,-3.0,1651023845003056.0,3
1484,-23.0,-22.0,-50.0,-10.0,-17.0,-106.0,-97.0,-17.0,1651023845017059.0,3
1485,-4.0,3.0,8.0,-6.0,18.0,112.0,91.0,12.0,1651023845017059.0,3
1486,4.0,5.0,-1.0,-2.0,-11.0,-34.0,5.0,4.0,1651023845018020.0,3
1487,-19.0,-5.0,-1.0,-3.0,0.0,-28.0,-13.0,-12.0,1651023845018020.0,3
1488,15.0,5.0,-5.0,0.0,-10.0,-15.0,14.0,13.0,1651023845039948.0,3
1489,-3.0,0.0,24.0,5.0,1.0,-20.0,-33.0,-14.0,1651023845039948.0,3
1490,-12.0,-8.0,-15.0,-6.0,-6.0,10.0,-3.0,-8.0,1651023845040887.0,3
1491,9.0,0.0,31.0,18.0,17.0,14.0,20.0,14.0,1651023845040887.0,3
1492,8.0,5.0,-33.0,-4.0,11.0,22.0,27.0,8.0,1651023845061898.0,3
1493,-29.0,-10.0,-12.0,-12.0,-17.0,-38.0,-27.0,-12.0,1651023845061898.0,3
1494,-8.0,3.0,-23.0,-42.0,-8.0,22.0,11.0,2.0,1651023845063829.0,3
1495,1.0,4.0,22.0,36.0,5.0,-10.0,1.0,7.0,1651023845063829.0,3
1496,-2.0,4.0,48.0,33.0,17.0,35.0,10.0,2.0,1651023845076951.0,3
1497,-2.0,3.0,-20.0,-9.0,-10.0,-35.0,36.0,10.0,1651023845076951.0,3
1498,-7.0,-11.0,-5.0,-2.0,10.0,7.0,-61.0,-19.0,1651023845078883.0,3
1499,4.0,-2.0,-5.0,4.0,-11.0,-80.0,-37.0,-4.0,1651023845078883.0,3
1500,-30.0,-5.0,-14.0,-28.0,6.0,119.0,67.0,-5.0,1651023845099936.0,3
1501,-2.0,2.0,22.0,27.0,-1.0,-45.0,-36.0,-8.0,1651023845099936.0,3
1502,16.0,-4.0,-31.0,-16.0,-8.0,32.0,65.0,18.0,1651023845100934.0,3
1503,-32.0,-15.0,10.0,-2.0,-1.0,7.0,-22.0,-1.0,1651023845100934.0,3
1504,2.0,-8.0,-2.0,2.0,-8.0,-18.0,-59.0,-18.0,1651023845122010.0,3
1505,15.0,12.0,14.0,8.0,-1.0,-27.0,32.0,18.0,1651023845122010.0,3
1506,5.0,10.0,6.0,5.0,13.0,5.0,-18.0,-6.0,1651023845123938.0,3
1507,9.0,0.0,-9.0,0.0,8.0,9.0,30.0,7.0,1651023845123938.0,3
1508,-3.0,-9.0,-18.0,-13.0,-7.0,0.0,30.0,11.0,1651023845136006.0,3
1509,-14.0,20.0,27.0,-7.0,-11.0,16.0,-15.0,-8.0,1651023845136006.0,3
1510,-4.0,-8.0,21.0,40.0,2.0,-41.0,-16.0,-4.0,1651023845142991.0,3
1511,8.0,-7.0,-64.0,-43.0,-2.0,38.0,14.0,-7.0,1651023845142991.0,3
1512,4.0,10.0,39.0,13.0,3.0,-8.0,-9.0,-2.0,1651023845159950.0,3
1513,8.0,-19.0,-12.0,4.0,4.0,-50.0,-15.0,8.0,1651023845159950.0,3
1514,-5.0,8.0,-21.0,-15.0,8.0,68.0,26.0,10.0,1651023845160882.0,3
1515,-3.0,-1.0,23.0,9.0,-12.0,-45.0,-3.0,-3.0,1651023845160882.0,3
1516,6.0,2.0,11.0,5.0,4.0,30.0,-6.0,1.0,1651023845182265.0,3
1517,7.0,-12.0,-14.0,-4.0,-5.0,-4.0,-5.0,2.0,1651023845182265.0,3
1518,22.0,1.0,31.0,8.0,2.0,2.0,60.0,13.0,1651023845183270.0,3
1519,-2.0,-9.0,-31.0,-10.0,1.0,1.0,-67.0,-16.0,1651023845183270.0,3
1520,1.0,-5.0,-11.0,-13.0,0.0,-30.0,-40.0,-16.0,1651023845196916.0,3
1521,5.0,-9.0,22.0,22.0,-1.0,14.0,12.0,1.0,1651023845196916.0,3
1522,11.0,-2.0,-45.0,-19.0,-3.0,-20.0,-46.0,-16.0,1651023845202898.0,3
1523,-30.0,-10.0,-1.0,-7.0,-5.0,-7.0,24.0,9.0,1651023845202898.0,3
1524,8.0,11.0,4.0,2.0,1.0,12.0,25.0,12.0,1651023845218855.0,3
1525,-6.0,2.0,-4.0,-4.0,4.0,46.0,-3.0,2.0,1651023845218855.0,3
1526,1.0,3.0,21.0,9.0,13.0,-18.0,-7.0,0.0,1651023845220849.0,3
1527,12.0,1.0,35.0,24.0,-6.0,-33.0,15.0,10.0,1651023845220849.0,3
1528,-10.0,-15.0,-70.0,-55.0,-25.0,3.0,-1.0,-5.0,1651023845241794.0,3
1529,2.0,3.0,17.0,0.0,8.0,18.0,6.0,0.0,1651023845241794.0,3
1530,-7.0,8.0,46.0,21.0,-14.0,-26.0,3.0,-1.0,1651023845243814.0,3
1531,6.0,5.0,-34.0,-3.0,1.0,-41.0,-26.0,5.0,1651023845243814.0,3
1532,-6.0,-11.0,-32.0,-22.0,5.0,62.0,48.0,8.0,1651023845256755.0,3
1533,5.0,0.0,-6.0,4.0,-4.0,-9.0,-11.0,-6.0,1651023845256755.0,3
1534,-16.0,-8.0,4.0,-4.0,-10.0,-35.0,-10.0,-8.0,1651023845262804.0,3
1535,16.0,4.0,13.0,-5.0,9.0,49.0,21.0,11.0,1651023845262804.0,3
1536,12.0,32.0,49.0,40.0,4.0,-1.0,0.0,8.0,1651023845286779.0,3
1537,6.0,2.0,-27.0,-22.0,-7.0,-25.0,-12.0,3.0,1651023845286779.0,3
1538,-4.0,2.0,-14.0,23.0,14.0,12.0,15.0,14.0,1651023845288736.0,3
1539,-30.0,-12.0,14.0,1.0,-1.0,14.0,-58.0,-51.0,1651023845288736.0,3
1540,3.0,-5.0,7.0,2.0,-7.0,-8.0,8.0,12.0,1651023845301791.0,3
1541,-1.0,-5.0,-8.0,-15.0,-2.0,26.0,64.0,7.0,1651023845301791.0,3
1542,-3.0,0.0,-18.0,-29.0,-7.0,-43.0,-65.0,-15.0,1651023845303775.0,3
1543,20.0,3.0,22.0,44.0,7.0,20.0,68.0,12.0,1651023845303775.0,3
1544,-15.0,-11.0,-11.0,-12.0,-2.0,-13.0,20.0,8.0,1651023845316771.0,3
1545,-1.0,1.0,50.0,34.0,1.0,-17.0,-38.0,-16.0,1651023845316771.0,3
1546,-2.0,-5.0,-13.0,-17.0,-13.0,4.0,13.0,10.0,1651023845322769.0,3
1547,7.0,6.0,-26.0,-28.0,-2.0,5.0,-6.0,-2.0,1651023845322769.0,3
1548,5.0,1.0,9.0,13.0,17.0,6.0,42.0,7.0,1651023845339896.0,3
1549,-3.0,-9.0,-17.0,-6.0,1.0,14.0,15.0,1.0,1651023845339896.0,3
1550,-4.0,-8.0,-16.0,-8.0,-16.0,-45.0,-55.0,-9.0,1651023845340885.0,3
1551,0.0,2.0,12.0,-12.0,-5.0,65.0,-5.0,-3.0,1651023845340885.0,3
1552,6.0,11.0,22.0,20.0,2.0,-28.0,-14.0,-4.0,1651023845361910.0,3
1553,4.0,7.0,14.0,-5.0,1.0,-12.0,-3.0,2.0,1651023845361910.0,3
1554,-3.0,-3.0,-18.0,20.0,29.0,40.0,58.0,3.0,1651023845363854.0,3
1555,5.0,6.0,-18.0,-12.0,-12.0,-13.0,-54.0,-6.0,1651023845363854.0,3
1556,-4.0,-12.0,-2.0,-13.0,-25.0,-18.0,-49.0,-11.0,1651023845375793.0,3
1557,-4.0,7.0,-6.0,-1.0,9.0,-26.0,-19.0,-1.0,1651023845375793.0,3
1558,17.0,-10.0,-16.0,-13.0,-16.0,-1.0,33.0,13.0,1651023845382838.0,3
1559,-9.0,11.0,37.0,30.0,31.0,44.0,42.0,7.0,1651023845382838.0,3
1560,15.0,-10.0,15.0,5.0,2.0,12.0,24.0,13.0,1651023845399728.0,3
1561,-4.0,-6.0,-58.0,-28.0,-19.0,-15.0,-69.0,-24.0,1651023845399728.0,3
1562,2.0,12.0,13.0,-3.0,-8.0,-29.0,20.0,6.0,1651023845400737.0,3
1563,4.0,-3.0,-2.0,-6.0,-8.0,15.0,16.0,5.0,1651023845400737.0,3
1564,-21.0,12.0,1.0,-6.0,6.0,-26.0,0.0,-1.0,1651023845421837.0,3
1565,0.0,5.0,24.0,26.0,20.0,19.0,25.0,0.0,1651023845421837.0,3
1566,3.0,12.0,23.0,7.0,7.0,26.0,-20.0,2.0,1651023845423770.0,3
1567,-4.0,-20.0,-39.0,-22.0,-16.0,-47.0,-22.0,-2.0,1651023845423770.0,3
1568,0.0,-2.0,27.0,13.0,-7.0,4.0,-12.0,-9.0,1651023845436735.0,3
1569,0.0,-11.0,-27.0,-16.0,-8.0,9.0,27.0,9.0,1651023845436735.0,3
1570,-10.0,8.0,21.0,10.0,13.0,20.0,-1.0,0.0,1651023845442786.0,3
1571,12.0,5.0,-6.0,-3.0,-11.0,-70.0,-19.0,1.0,1651023845442786.0,3
1572,2.0,2.0,5.0,3.0,9.0,67.0,79.0,11.0,1651023845459744.0,3
1573,-3.0,-20.0,-38.0,-21.0,-18.0,-5.0,-17.0,-7.0,1651023845459744.0,3
1574,4.0,-12.0,6.0,3.0,11.0,1.0,-46.0,-6.0,1651023845460671.0,3
1575,-8.0,3.0,24.0,6.0,2.0,14.0,-12.0,-3.0,1651023845460671.0,3
1576,23.0,-1.0,-8.0,0.0,12.0,-18.0,-39.0,-5.0,1651023845482679.0,3
1577,-8.0,-11.0,-19.0,-2.0,11.0,19.0,13.0,1.0,1651023845482679.0,3
1578,0.0,3.0,11.0,-10.0,-19.0,-10.0,29.0,-1.0,1651023845484607.0,3
1579,9.0,4.0,53.0,41.0,-1.0,-38.0,9.0,4.0,1651023845484607.0,3
1580,-20.0,-11.0,-93.0,-43.0,-13.0,29.0,13.0,-5.0,1651023845495640.0,3
1581,6.0,4.0,9.0,1.0,14.0,14.0,-19.0,-11.0,1651023845495640.0,3
1582,-8.0,-4.0,2.0,-1.0,-6.0,-16.0,-16.0,-1.0,1651023845504675.0,3
1583,2.0,10.0,-4.0,-9.0,2.0,2.0,19.0,2.0,1651023845504675.0,3
1584,-7.0,-1.0,29.0,18.0,-16.0,-58.0,4.0,-7.0,1651023845518996.0,3
1585,1.0,3.0,-4.0,-6.0,-4.0,41.0,3.0,12.0,1651023845518996.0,3
1586,-7.0,-6.0,-14.0,-11.0,0.0,6.0,-40.0,-15.0,1651023845520928.0,3
1587,-2.0,6.0,13.0,16.0,16.0,33.0,31.0,-2.0,1651023845520928.0,3
1588,0.0,-4.0,-6.0,-2.0,8.0,-6.0,-22.0,-6.0,1651023845541942.0,3
1589,-7.0,-5.0,-1.0,3.0,-13.0,-38.0,0.0,-1.0,1651023845541942.0,3
1590,-4.0,0.0,16.0,15.0,-2.0,-1.0,36.0,9.0,1651023845543936.0,3
1591,3.0,5.0,-9.0,-27.0,3.0,52.0,39.0,10.0,1651023845543936.0,3
1592,5.0,1.0,5.0,0.0,0.0,-42.0,-68.0,-10.0,1651023845555953.0,3
1593,0.0,8.0,13.0,51.0,26.0,9.0,2.0,3.0,1651023845555953.0,3
1594,-1.0,6.0,19.0,24.0,2.0,5.0,-6.0,-5.0,1651023845564013.0,3
1595,-9.0,-11.0,-44.0,-21.0,-14.0,-18.0,-2.0,-6.0,1651023845564013.0,3
1596,5.0,0.0,-18.0,-36.0,-13.0,6.0,28.0,11.0,1651023845579003.0,3
1597,7.0,16.0,44.0,20.0,-1.0,-1.0,-4.0,9.0,1651023845579003.0,3
1598,-10.0,-6.0,-10.0,7.0,10.0,-2.0,-2.0,-13.0,1651023845580933.0,3
1599,4.0,7.0,22.0,9.0,-2.0,-16.0,-22.0,2.0,1651023845580933.0,3
1600,-2.0,-1.0,-2.0,2.0,2.0,15.0,2.0,-4.0,1651023845601941.0,3
1601,3.0,-8.0,-9.0,-9.0,-4.0,14.0,-10.0,-3.0,1651023845601941.0,3
1602,9.0,4.0,18.0,5.0,3.0,43.0,70.0,29.0,1651023845603896.0,3
1603,-7.0,1.0,-8.0,-10.0,-5.0,-15.0,-48.0,-25.0,1651023845603896.0,3
1604,2.0,6.0,2.0,4.0,1.0,3.0,-1.0,-7.0,1651023845615918.0,3
1605,15.0,19.0,47.0,2.0,6.0,-10.0,26.0,15.0,1651023845615918.0,3
1606,-16.0,-15.0,-34.0,7.0,4.0,-13.0,-2.0,-4.0,1651023845624837.0,3
1607,4.0,-3.0,-50.0,-27.0,-4.0,28.0,55.0,16.0,1651023845624837.0,3
1608,-9.0,-13.0,8.0,-1.0,-1.0,-36.0,-96.0,-38.0,1651023845646880.0,3
1609,2.0,5.0,9.0,7.0,-4.0,-7.0,55.0,15.0,1651023845646880.0,3
1610,16.0,-1.0,10.0,-22.0,-8.0,22.0,-12.0,14.0,1651023845648883.0,3
1611,3.0,7.0,11.0,32.0,14.0,-25.0,-20.0,-8.0,1651023845648883.0,3
1612,-9.0,-8.0,-18.0,-13.0,-8.0,-14.0,-9.0,-11.0,1651023845661840.0,3
1613,-4.0,-5.0,3.0,-10.0,-5.0,-7.0,-6.0,-3.0,1651023845661840.0,3
1614,1.0,-5.0,-35.0,-21.0,-11.0,9.0,19.0,-5.0,1651023845663861.0,3
1615,16.0,-6.0,13.0,5.0,-7.0,-17.0,43.0,27.0,1651023845663861.0,3
1616,3.0,9.0,25.0,17.0,11.0,55.0,-25.0,1.0,1651023845675899.0,3
1617,3.0,-11.0,-22.0,-15.0,-3.0,-8.0,-4.0,-3.0,1651023845675899.0,3
1618,-1.0,22.0,67.0,31.0,15.0,2.0,39.0,9.0,1651023845684876.0,3
1619,-10.0,-14.0,-69.0,-31.0,-14.0,-15.0,-42.0,-10.0,1651023845684876.0,3
1620,3.0,-19.0,-19.0,23.0,19.0,-30.0,-10.0,-4.0,1651023845699868.0,3
1621,3.0,-2.0,-24.0,-21.0,-6.0,2.0,-10.0,0.0,1651023845699868.0,3
1622,0.0,-6.0,6.0,4.0,-3.0,0.0,-25.0,-7.0,1651023845700833.0,3
1623,-3.0,-3.0,11.0,-10.0,-4.0,22.0,28.0,10.0,1651023845700833.0,3
1624,9.0,10.0,20.0,5.0,-15.0,-8.0,48.0,15.0,1651023845721841.0,3
1625,-5.0,0.0,1.0,-2.0,14.0,4.0,-27.0,-9.0,1651023845721841.0,3
1626,-1.0,-5.0,-35.0,-9.0,0.0,-8.0,-10.0,-7.0,1651023845723772.0,3
1627,-7.0,-2.0,10.0,14.0,3.0,3.0,4.0,-4.0,1651023845723772.0,3
1628,2.0,2.0,-5.0,-7.0,-6.0,-4.0,1.0,6.0,1651023845735774.0,3
1629,-8.0,-2.0,14.0,1.0,-8.0,-10.0,-11.0,-8.0,1651023845735774.0,3
1630,-1.0,1.0,-5.0,-5.0,-7.0,-24.0,-15.0,-8.0,1651023845744716.0,3
1631,3.0,-3.0,4.0,-4.0,3.0,27.0,3.0,2.0,1651023845744716.0,3
1632,-3.0,-1.0,7.0,6.0,0.0,-6.0,-3.0,1.0,1651023845759677.0,3
1633,-3.0,-1.0,-10.0,0.0,1.0,8.0,10.0,3.0,1651023845759677.0,3
1634,-1.0,-2.0,-9.0,-1.0,1.0,-9.0,-7.0,-4.0,1651023845760673.0,3
1635,-2.0,-2.0,9.0,6.0,-4.0,-9.0,-18.0,-6.0,1651023845760673.0,3
1636,3.0,10.0,15.0,-5.0,-8.0,3.0,21.0,10.0,1651023845789877.0,3
1637,-2.0,2.0,-11.0,6.0,5.0,-3.0,-4.0,-5.0,1651023845789877.0,3
1638,-5.0,-20.0,-23.0,-15.0,-1.0,-7.0,-15.0,-10.0,1651023845790874.0,3
1639,7.0,14.0,31.0,10.0,-4.0,3.0,-3.0,-4.0,1651023845790874.0,3
1640,-2.0,5.0,9.0,10.0,17.0,7.0,20.0,38.0,1651023845795860.0,3
1641,-8.0,-7.0,-14.0,-7.0,-6.0,-3.0,-6.0,-16.0,1651023845795860.0,3
1642,-8.0,-13.0,-13.0,-7.0,-5.0,-1.0,-1.0,-2.0,1651023845804838.0,3
1643,8.0,-19.0,1.0,5.0,-6.0,1.0,-20.0,-11.0,1651023845804838.0,3
1644,-21.0,15.0,35.0,0.0,-3.0,-2.0,5.0,-36.0,1651023845818950.0,3
1645,12.0,-1.0,-12.0,-11.0,-18.0,-4.0,-7.0,20.0,1651023845818950.0,3
1646,-1.0,3.0,16.0,1.0,14.0,2.0,-6.0,-19.0,1651023845820948.0,3
1647,-7.0,-3.0,-7.0,4.0,7.0,-1.0,-4.0,-8.0,1651023845820948.0,3
1648,0.0,-4.0,8.0,3.0,-17.0,-8.0,1.0,-5.0,1651023845841958.0,3
1649,2.0,12.0,18.0,0.0,10.0,1.0,-7.0,11.0,1651023845841958.0,3
1650,2.0,4.0,2.0,3.0,4.0,1.0,0.0,2.0,1651023845843886.0,3
1651,2.0,-16.0,0.0,0.0,-3.0,-6.0,6.0,13.0,1651023845843886.0,3
1652,0.0,11.0,-18.0,6.0,18.0,11.0,4.0,6.0,1651023845855916.0,3
1653,-17.0,-25.0,-23.0,-19.0,-15.0,-7.0,-1.0,-21.0,1651023845855916.0,3
1654,7.0,11.0,-1.0,4.0,-9.0,-3.0,-4.0,7.0,1651023845864920.0,3
1655,1.0,5.0,9.0,2.0,11.0,1.0,1.0,5.0,1651023845864920.0,3
1656,17.0,33.0,21.0,-2.0,-7.0,-2.0,4.0,-1.0,1651023845879835.0,3
1657,-19.0,-43.0,-36.0,5.0,13.0,6.0,3.0,-1.0,1651023845879835.0,3
1658,2.0,22.0,21.0,1.0,-4.0,-2.0,-7.0,-1.0,1651023845880788.0,3
1659,4.0,20.0,6.0,2.0,-2.0,0.0,2.0,0.0,1651023845880788.0,3
1660,-9.0,-57.0,-35.0,-14.0,-20.0,-5.0,0.0,-5.0,1651023845901731.0,3
1661,-2.0,17.0,-2.0,-12.0,0.0,-5.0,-2.0,2.0,1651023845901731.0,3
1662,-3.0,-12.0,16.0,6.0,1.0,1.0,-4.0,-2.0,1651023845903726.0,3
1663,-3.0,20.0,6.0,5.0,6.0,6.0,4.0,2.0,1651023845903726.0,3
1664,13.0,11.0,-25.0,11.0,8.0,4.0,4.0,10.0,1651023845924318.0,3
1665,2.0,-5.0,13.0,-6.0,-8.0,-4.0,-2.0,-6.0,1651023845924318.0,3
1666,-6.0,-17.0,-25.0,-8.0,-6.0,-1.0,4.0,2.0,1651023845926245.0,3
1667,-1.0,9.0,17.0,-2.0,1.0,-1.0,-9.0,-1.0,1651023845926245.0,3
1668,-4.0,-4.0,1.0,0.0,0.0,-1.0,-3.0,-6.0,1651023845939277.0,3
1669,7.0,9.0,35.0,4.0,-9.0,-2.0,1.0,-1.0,1651023845939277.0,3
1670,6.0,15.0,-28.0,-7.0,-18.0,-4.0,-1.0,4.0,1651023845941233.0,3
1671,-2.0,0.0,19.0,12.0,32.0,5.0,5.0,1.0,1651023845941233.0,3
1672,-6.0,-22.0,-46.0,-17.0,14.0,0.0,-3.0,-2.0,1651023845962216.0,3
1673,5.0,9.0,18.0,7.0,-3.0,1.0,0.0,3.0,1651023845962216.0,3
1674,5.0,11.0,13.0,9.0,9.0,2.0,-2.0,0.0,1651023845963188.0,3
1675,-4.0,-11.0,-13.0,-9.0,-17.0,-4.0,0.0,-3.0,1651023845963188.0,3
1676,5.0,18.0,23.0,7.0,13.0,0.0,-3.0,-1.0,1651023845991699.0,3
1677,7.0,13.0,3.0,-1.0,-3.0,0.0,1.0,3.0,1651023845991699.0,3
1678,-9.0,5.0,10.0,4.0,-6.0,-5.0,-2.0,-4.0,1651023845993629.0,3
1679,4.0,-29.0,-5.0,4.0,0.0,4.0,2.0,2.0,1651023845993629.0,3
1680,-5.0,16.0,-13.0,-4.0,-5.0,-3.0,0.0,3.0,1651023845999641.0,3
1681,1.0,9.0,2.0,-1.0,-1.0,1.0,0.0,-1.0,1651023845999641.0,3
1682,3.0,-1.0,-15.0,0.0,-2.0,0.0,-3.0,-2.0,1651023846005624.0,3
1683,-5.0,-8.0,8.0,-1.0,6.0,0.0,-1.0,-2.0,1651023846005624.0,3
1684,5.0,5.0,9.0,4.0,-3.0,1.0,3.0,3.0,1651023846029909.0,3
1685,-5.0,-11.0,7.0,-2.0,-4.0,-1.0,-1.0,-2.0,1651023846029909.0,3
1686,3.0,3.0,-17.0,-2.0,4.0,1.0,-2.0,0.0,1651023846030905.0,3
1687,-5.0,-1.0,-7.0,-5.0,-1.0,-1.0,1.0,-1.0,1651023846030905.0,3
1688,-5.0,-18.0,-2.0,2.0,-4.0,-1.0,2.0,0.0,1651023846044877.0,3
1689,5.0,10.0,-17.0,7.0,3.0,0.0,-1.0,0.0,1651023846044877.0,3
1690,-2.0,-9.0,12.0,-2.0,1.0,3.0,1.0,2.0,1651023846045864.0,3
1691,-1.0,10.0,-11.0,-5.0,-3.0,-2.0,-2.0,-2.0,1651023846045864.0,3
1692,2.0,-3.0,3.0,3.0,-2.0,-2.0,0.0,2.0,1651023846058894.0,3
1693,0.0,8.0,-3.0,-7.0,-2.0,1.0,0.0,-1.0,1651023846058894.0,3
1694,4.0,11.0,7.0,5.0,5.0,3.0,1.0,1.0,1651023846065812.0,3
1695,-2.0,-6.0,-4.0,6.0,4.0,2.0,1.0,1.0,1651023846065812.0,3
1696,5.0,7.0,13.0,5.0,-3.0,-2.0,0.0,-1.0,1651023846081844.0,3
1697,-3.0,-34.0,-24.0,-9.0,-10.0,-5.0,-4.0,-3.0,1651023846081844.0,3
1698,-9.0,19.0,8.0,-7.0,-11.0,-2.0,-3.0,-4.0,1651023846083840.0,3
1699,-4.0,-5.0,-12.0,-13.0,-3.0,-1.0,0.0,0.0,1651023846083840.0,3
1700,0.0,-8.0,10.0,10.0,10.0,4.0,0.0,2.0,1651023846104107.0,3
1701,4.0,25.0,2.0,6.0,21.0,6.0,3.0,1.0,1651023846104107.0,3
1702,-1.0,-25.0,4.0,17.0,18.0,7.0,1.0,0.0,1651023846106035.0,3
1703,0.0,-16.0,-9.0,-2.0,-16.0,-4.0,0.0,1.0,1651023846106035.0,3
1704,-4.0,13.0,-5.0,-15.0,-12.0,-5.0,-3.0,-4.0,1651023846119068.0,3
1705,0.0,-1.0,11.0,0.0,-19.0,-3.0,-1.0,-2.0,1651023846119068.0,3
1706,9.0,17.0,-27.0,-11.0,0.0,-5.0,-1.0,1.0,1651023846126008.0,3
1707,-11.0,-17.0,-8.0,-3.0,7.0,2.0,-1.0,-4.0,1651023846126008.0,3
1708,-16.0,-33.0,2.0,-1.0,-7.0,-1.0,0.0,-4.0,1651023846142003.0,3
1709,1.0,4.0,13.0,6.0,0.0,-2.0,-2.0,1.0,1651023846142003.0,3
1710,-5.0,-15.0,1.0,-2.0,3.0,3.0,-1.0,-2.0,1651023846142935.0,3
1711,4.0,-17.0,-13.0,-4.0,-5.0,-3.0,-2.0,-3.0,1651023846142935.0,3
1712,3.0,47.0,-1.0,-5.0,-5.0,0.0,-2.0,0.0,1651023846164874.0,3
1713,-3.0,-10.0,-7.0,2.0,6.0,2.0,1.0,-1.0,1651023846164874.0,3
1714,-1.0,-8.0,-1.0,-3.0,1.0,0.0,-1.0,0.0,1651023846165873.0,3
1715,0.0,16.0,6.0,-1.0,-8.0,-3.0,-2.0,0.0,1651023846165873.0,3
1716,0.0,-2.0,6.0,-1.0,-1.0,0.0,1.0,0.0,1651023846186550.0,3
1717,3.0,-22.0,-9.0,1.0,8.0,1.0,0.0,1.0,1651023846186550.0,3
1718,0.0,9.0,4.0,0.0,1.0,0.0,-1.0,0.0,1651023846188477.0,3
1719,-7.0,-11.0,2.0,11.0,13.0,5.0,2.0,0.0,1651023846188477.0,3
1720,10.0,41.0,-2.0,-8.0,-14.0,-4.0,-4.0,-3.0,1651023846201510.0,3
1721,1.0,-16.0,-5.0,-8.0,1.0,-2.0,-2.0,0.0,1651023846201510.0,3
1722,-2.0,4.0,-3.0,2.0,-8.0,-2.0,-3.0,-1.0,1651023846203437.0,3
1723,-3.0,-1.0,10.0,4.0,4.0,2.0,0.0,-2.0,1651023846203437.0,3
1724,-1.0,-24.0,-10.0,-2.0,5.0,-2.0,-1.0,-1.0,1651023846224858.0,3
1725,-2.0,7.0,-5.0,-3.0,-8.0,1.0,-2.0,-2.0,1651023846224858.0,3
1726,-4.0,-20.0,5.0,-5.0,5.0,0.0,-1.0,-2.0,1651023846225859.0,3
1727,4.0,19.0,2.0,-2.0,-4.0,-1.0,1.0,1.0,1651023846225859.0,3
1728,5.0,-18.0,-5.0,4.0,0.0,0.0,2.0,3.0,1651023846238892.0,3
1729,-10.0,15.0,9.0,0.0,-6.0,-2.0,0.0,-4.0,1651023846238892.0,3
1730,3.0,-18.0,-10.0,-1.0,-4.0,-2.0,0.0,0.0,1651023846245873.0,3
1731,-7.0,21.0,1.0,-1.0,1.0,-2.0,-1.0,-2.0,1651023846245873.0,3
1732,3.0,3.0,2.0,-3.0,-4.0,0.0,2.0,0.0,1651023846262054.0,3
1733,3.0,5.0,-8.0,-1.0,2.0,-1.0,1.0,3.0,1651023846262054.0,3
1734,2.0,5.0,6.0,5.0,4.0,-3.0,-2.0,0.0,1651023846268041.0,3
1735,-2.0,-11.0,0.0,-8.0,-7.0,-2.0,-3.0,0.0,1651023846268041.0,3
1736,0.0,7.0,5.0,-4.0,3.0,2.0,2.0,-1.0,1651023846284867.0,3
1737,14.0,50.0,11.0,16.0,8.0,7.0,4.0,6.0,1651023846284867.0,3
1738,-28.0,-39.0,-11.0,9.0,11.0,0.0,-2.0,-9.0,1651023846285873.0,3
1739,8.0,10.0,-3.0,-6.0,-2.0,-2.0,-1.0,2.0,1651023846285873.0,3
1740,-6.0,-43.0,-6.0,-2.0,-3.0,0.0,0.0,2.0,1651023846298899.0,3
1741,7.0,59.0,6.0,-7.0,-15.0,-7.0,-2.0,-1.0,1651023846298899.0,3
1742,6.0,11.0,5.0,-8.0,-6.0,-5.0,-1.0,0.0,1651023846305876.0,3
1743,2.0,4.0,12.0,-1.0,-28.0,-14.0,0.0,1.0,1651023846305876.0,3
1744,-6.0,-4.0,-8.0,-1.0,26.0,18.0,-1.0,-7.0,1651023846321928.0,3
1745,-8.0,-38.0,-10.0,10.0,21.0,4.0,1.0,3.0,1651023846321928.0,3
1746,11.0,8.0,7.0,15.0,10.0,3.0,3.0,9.0,1651023846323856.0,3
1747,-6.0,23.0,0.0,-5.0,-12.0,-5.0,-2.0,-4.0,1651023846323856.0,3
1748,-5.0,-11.0,5.0,-4.0,-12.0,-8.0,-1.0,8.0,1651023846344823.0,3
1749,0.0,-30.0,-20.0,-15.0,-15.0,-4.0,-4.0,-8.0,1651023846344823.0,3
1750,-6.0,3.0,-7.0,-3.0,-2.0,-1.0,-2.0,-5.0,1651023846345950.0,3
1751,-3.0,7.0,-3.0,1.0,8.0,1.0,0.0,-2.0,1651023846345950.0,3
1752,5.0,7.0,3.0,4.0,-1.0,-1.0,2.0,5.0,1651023846358848.0,3
1753,-17.0,-35.0,-3.0,-4.0,-2.0,2.0,-2.0,-4.0,1651023846358848.0,3
1754,8.0,8.0,6.0,-5.0,6.0,-1.0,1.0,2.0,1651023846365888.0,3
1755,1.0,-15.0,-5.0,1.0,0.0,4.0,2.0,1.0,1651023846365888.0,3
1756,-3.0,-2.0,-2.0,1.0,3.0,0.0,-1.0,-3.0,1651023846381912.0,3
1757,-5.0,-28.0,1.0,4.0,-5.0,-1.0,1.0,0.0,1651023846381912.0,3
1758,4.0,30.0,2.0,0.0,9.0,0.0,0.0,-3.0,1651023846383839.0,3
1759,-3.0,-7.0,10.0,-1.0,-1.0,3.0,-1.0,-3.0,1651023846383839.0,3
1760,11.0,18.0,-22.0,-4.0,-9.0,-2.0,-2.0,1.0,1651023846404806.0,3
1761,-1.0,17.0,4.0,4.0,6.0,-2.0,-2.0,-1.0,1651023846404806.0,3
1762,-5.0,-36.0,3.0,2.0,-4.0,2.0,1.0,2.0,1651023846405864.0,3
1763,3.0,0.0,-14.0,-2.0,7.0,0.0,-2.0,0.0,1651023846405864.0,3
1764,-7.0,-13.0,-2.0,-1.0,-6.0,-5.0,-3.0,-2.0,1651023846417812.0,3
1765,7.0,18.0,6.0,-4.0,-6.0,-3.0,0.0,2.0,1651023846417812.0,3
1766,-2.0,9.0,-4.0,-3.0,-9.0,-2.0,-1.0,-2.0,1651023846426901.0,3
1767,9.0,23.0,10.0,2.0,9.0,5.0,2.0,2.0,1651023846426901.0,3
1768,-6.0,-20.0,-3.0,-1.0,-1.0,-3.0,0.0,-3.0,1651023846441709.0,3
1769,-3.0,-10.0,-4.0,0.0,3.0,0.0,0.0,0.0,1651023846441709.0,3
1770,2.0,11.0,8.0,-1.0,2.0,1.0,-1.0,0.0,1651023846443637.0,3
1771,2.0,-3.0,-7.0,-1.0,-10.0,-1.0,0.0,0.0,1651023846443637.0,3
1772,-1.0,-9.0,0.0,7.0,14.0,-1.0,1.0,1.0,1651023846464392.0,3
1773,-2.0,18.0,4.0,-1.0,3.0,0.0,0.0,0.0,1651023846464392.0,3
1774,2.0,8.0,2.0,-9.0,-14.0,-3.0,0.0,1.0,1651023846466343.0,3
1775,-3.0,-9.0,-3.0,-3.0,1.0,-1.0,-4.0,-2.0,1651023846466343.0,3
1776,-2.0,-9.0,3.0,0.0,-5.0,-1.0,-1.0,0.0,1651023846478361.0,3
1777,0.0,6.0,-13.0,-8.0,-11.0,-5.0,-2.0,-1.0,1651023846478361.0,3
1778,-1.0,5.0,15.0,-1.0,1.0,1.0,-1.0,-2.0,1651023846487269.0,3
1779,-5.0,-25.0,-10.0,4.0,11.0,1.0,2.0,-1.0,1651023846487269.0,3
1780,1.0,32.0,14.0,13.0,13.0,4.0,1.0,0.0,1651023846502241.0,3
1781,6.0,-6.0,5.0,0.0,0.0,-1.0,0.0,1.0,1651023846502241.0,3
1782,-21.0,-44.0,-14.0,-12.0,-17.0,-5.0,-4.0,-6.0,1651023846503170.0,3
1783,2.0,3.0,-2.0,-4.0,-3.0,-1.0,-1.0,-2.0,1651023846503170.0,3
1784,-3.0,-13.0,-1.0,-4.0,-4.0,-4.0,-3.0,-2.0,1651023846524182.0,3
1785,2.0,7.0,-4.0,-3.0,1.0,1.0,-1.0,0.0,1651023846524182.0,3
1786,2.0,2.0,2.0,0.0,-4.0,0.0,1.0,3.0,1651023846526110.0,3
1787,-2.0,-7.0,6.0,9.0,9.0,1.0,-1.0,0.0,1651023846526110.0,3
1788,2.0,2.0,-2.0,4.0,5.0,0.0,2.0,-1.0,1651023846547179.0,3
1789,0.0,-3.0,-1.0,1.0,2.0,2.0,0.0,-1.0,1651023846547179.0,3
1790,4.0,-3.0,-3.0,-2.0,-4.0,-2.0,-1.0,1.0,1651023846548110.0,3
1791,3.0,-7.0,3.0,-1.0,-3.0,0.0,1.0,4.0,1651023846548110.0,3
1792,11.0,43.0,1.0,-6.0,-8.0,-4.0,-1.0,-1.0,1651023846562074.0,3
1793,-13.0,-42.0,-6.0,2.0,4.0,1.0,-1.0,-2.0,1651023846562074.0,3
1794,8.0,14.0,6.0,-2.0,-1.0,-1.0,-2.0,-2.0,1651023846563070.0,3
1795,2.0,6.0,-2.0,0.0,-1.0,0.0,1.0,1.0,1651023846563070.0,3
1796,1.0,2.0,3.0,-2.0,-1.0,0.0,-1.0,-1.0,1651023846585001.0,3
1797,2.0,-23.0,3.0,3.0,-2.0,1.0,1.0,3.0,1651023846585001.0,3
1798,5.0,12.0,-2.0,4.0,14.0,4.0,1.0,2.0,1651023846586823.0,3
1799,-12.0,-21.0,-8.0,-3.0,-5.0,-3.0,-4.0,-3.0,1651023846586823.0,3
1800,-2.0,-17.0,-2.0,-2.0,-1.0,0.0,0.0,-1.0,1651023846597861.0,3
1801,4.0,33.0,1.0,0.0,-5.0,-4.0,-1.0,-1.0,1651023846597861.0,3
1802,3.0,-9.0,-5.0,4.0,-1.0,0.0,0.0,1.0,1651023846606882.0,3
1803,5.0,5.0,-6.0,-2.0,0.0,-1.0,-1.0,1.0,1651023846606882.0,3
1804,-5.0,7.0,9.0,-2.0,-2.0,1.0,-1.0,-2.0,1651023846621951.0,3
1805,2.0,7.0,0.0,1.0,5.0,1.0,-2.0,-2.0,1651023846621951.0,3
1806,0.0,12.0,9.0,0.0,-6.0,-4.0,0.0,-2.0,1651023846623906.0,3
1807,3.0,11.0,-1.0,-6.0,-9.0,-8.0,-1.0,1.0,1651023846623906.0,3
1808,-1.0,-16.0,-12.0,-13.0,-18.0,0.0,-1.0,-1.0,1651023846643986.0,3
1809,1.0,0.0,6.0,14.0,27.0,7.0,3.0,2.0,1651023846643986.0,3
1810,-5.0,-14.0,-10.0,10.0,18.0,6.0,1.0,2.0,1651023846645975.0,3
1811,3.0,22.0,9.0,3.0,7.0,-1.0,-1.0,-2.0,1651023846645975.0,3
1812,-2.0,-13.0,-1.0,-3.0,-15.0,-5.0,-1.0,-1.0,1651023846657970.0,3
1813,-8.0,-2.0,1.0,-12.0,-20.0,-7.0,-3.0,-5.0,1651023846657970.0,3
1814,-9.0,-27.0,-6.0,-4.0,-5.0,-1.0,-3.0,-4.0,1651023846666918.0,3
1815,2.0,7.0,-2.0,0.0,-1.0,3.0,0.0,0.0,1651023846666918.0,3
1816,-7.0,-2.0,-1.0,1.0,-1.0,-4.0,-1.0,-1.0,1651023846681945.0,3
1817,3.0,-36.0,5.0,4.0,13.0,8.0,2.0,2.0,1651023846681945.0,3
1818,4.0,48.0,0.0,-3.0,-6.0,-4.0,-1.0,-1.0,1651023846683873.0,3
1819,0.0,-6.0,-2.0,0.0,6.0,3.0,-1.0,-2.0,1651023846683873.0,3
1820,-14.0,-46.0,-11.0,-4.0,-2.0,-5.0,-2.0,-4.0,1651023846704863.0,3
1821,-6.0,14.0,0.0,-2.0,-5.0,-5.0,-2.0,-1.0,1651023846704863.0,3
1822,-4.0,-7.0,-1.0,-5.0,-6.0,-2.0,0.0,0.0,1651023846705863.0,3
1823,7.0,-1.0,0.0,1.0,-2.0,-1.0,0.0,1.0,1651023846705863.0,3
1824,2.0,5.0,1.0,5.0,8.0,6.0,1.0,2.0,1651023846717575.0,3
1825,1.0,18.0,10.0,-1.0,-8.0,-4.0,-2.0,-2.0,1651023846717575.0,3
1826,-7.0,-37.0,-25.0,-6.0,-2.0,-1.0,-1.0,-2.0,1651023846726695.0,3
1827,5.0,25.0,3.0,-2.0,3.0,1.0,0.0,1.0,1651023846726695.0,3
1828,3.0,12.0,4.0,3.0,2.0,1.0,2.0,1.0,1651023846742398.0,3
1829,-4.0,0.0,-8.0,-1.0,2.0,0.0,0.0,-1.0,1651023846742398.0,3
1830,7.0,21.0,10.0,0.0,-20.0,1.0,2.0,4.0,1651023846743374.0,3
1831,-1.0,-15.0,-2.0,4.0,26.0,-2.0,-1.0,-2.0,1651023846743374.0,3
1832,-1.0,7.0,0.0,-2.0,-3.0,1.0,0.0,1.0,1651023846764932.0,3
1833,-1.0,-6.0,-4.0,-1.0,-4.0,2.0,1.0,-1.0,1651023846764932.0,3
1834,-1.0,-8.0,-2.0,0.0,-1.0,-3.0,-2.0,-1.0,1651023846765929.0,3
1835,-3.0,-14.0,-3.0,-2.0,-8.0,1.0,0.0,0.0,1651023846765929.0,3
1836,-3.0,8.0,0.0,0.0,2.0,-1.0,-1.0,-1.0,1651023846777897.0,3
1837,12.0,2.0,-2.0,-1.0,-1.0,-2.0,-1.0,1.0,1651023846777897.0,3
1838,0.0,5.0,7.0,-1.0,3.0,2.0,2.0,0.0,1651023846786882.0,3
1839,-3.0,10.0,-3.0,-1.0,-2.0,3.0,0.0,-2.0,1651023846786882.0,3
1840,12.0,6.0,7.0,7.0,5.0,0.0,0.0,1.0,1651023846801894.0,3
1841,-3.0,-12.0,-5.0,1.0,-1.0,-2.0,0.0,0.0,1651023846801894.0,3
1842,-2.0,0.0,6.0,-1.0,0.0,-1.0,-2.0,-1.0,1651023846803851.0,3
1843,1.0,0.0,-8.0,-3.0,-8.0,-2.0,-2.0,-1.0,1651023846803851.0,3
1844,3.0,5.0,-1.0,-4.0,-3.0,-1.0,0.0,2.0,1651023846824876.0,3
1845,-2.0,9.0,9.0,1.0,4.0,1.0,-2.0,0.0,1651023846824876.0,3
1846,-6.0,-19.0,-14.0,-3.0,-3.0,-1.0,0.0,-2.0,1651023846825879.0,3
1847,-4.0,5.0,20.0,5.0,7.0,0.0,0.0,-1.0,1651023846825879.0,3
1848,1.0,13.0,-1.0,0.0,-3.0,-2.0,0.0,-1.0,1651023846847011.0,3
1849,-2.0,-16.0,-4.0,-5.0,-5.0,-1.0,2.0,0.0,1651023846847011.0,3
1850,4.0,8.0,9.0,11.0,13.0,4.0,1.0,1.0,1651023846848940.0,3
1851,2.0,9.0,-4.0,-2.0,-14.0,-4.0,-1.0,1.0,1651023846848940.0,3
1852,-1.0,6.0,-2.0,-2.0,2.0,0.0,-1.0,-1.0,1651023846861927.0,3
1853,5.0,28.0,4.0,-5.0,-2.0,-2.0,-2.0,-1.0,1651023846861927.0,3
1854,-1.0,0.0,-7.0,-7.0,-15.0,-7.0,-1.0,1.0,1651023846863919.0,3
1855,-5.0,-6.0,0.0,3.0,18.0,5.0,1.0,0.0,1651023846863919.0,3
1856,-5.0,-15.0,2.0,3.0,2.0,-1.0,1.0,0.0,1651023846884168.0,3
1857,-7.0,-14.0,-11.0,-4.0,-8.0,-1.0,-2.0,-4.0,1651023846884168.0,3
1858,-2.0,-4.0,2.0,-2.0,4.0,1.0,1.0,0.0,1651023846886190.0,3
1859,2.0,-2.0,2.0,-3.0,-11.0,-2.0,-1.0,-1.0,1651023846886190.0,3
1860,-2.0,10.0,5.0,1.0,6.0,-1.0,-2.0,0.0,1651023846906916.0,3
1861,-1.0,1.0,-3.0,7.0,6.0,3.0,2.0,2.0,1651023846906916.0,3
1862,2.0,-9.0,0.0,0.0,-1.0,-1.0,-1.0,0.0,1651023846908910.0,3
1863,0.0,6.0,0.0,-6.0,-6.0,0.0,-1.0,-1.0,1651023846908910.0,3
1864,1.0,-10.0,3.0,-1.0,-3.0,-1.0,-1.0,-1.0,1651023846921944.0,3
1865,3.0,11.0,-1.0,0.0,-2.0,0.0,-1.0,2.0,1651023846921944.0,3
1866,1.0,7.0,3.0,1.0,8.0,1.0,-2.0,0.0,1651023846923894.0,3
1867,-2.0,-24.0,-8.0,-3.0,-5.0,-1.0,-3.0,-2.0,1651023846923894.0,3
1868,-7.0,-8.0,-6.0,-3.0,-2.0,0.0,-1.0,-2.0,1651023846944773.0,3
1869,-2.0,-2.0,1.0,-4.0,1.0,-2.0,0.0,-2.0,1651023846944773.0,3
1870,1.0,18.0,3.0,2.0,2.0,0.0,0.0,-1.0,1651023846945888.0,3
1871,-3.0,-39.0,1.0,2.0,-1.0,-2.0,-1.0,-2.0,1651023846945888.0,3
1872,2.0,-18.0,-8.0,0.0,2.0,0.0,-2.0,1.0,1651023846966948.0,3
1873,3.0,-5.0,-6.0,-4.0,0.0,-1.0,-1.0,0.0,1651023846966948.0,3
1874,-8.0,2.0,-1.0,-4.0,-2.0,-1.0,1.0,-1.0,1651023846968880.0,3
