,EMG_s0,EMG_s1,EMG_s2,EMG_s3,EMG_s4,EMG_s5,EMG_s6,EMG_s7,timestamp,signal
0,-2.0,2.0,-1.0,0.0,4.0,-5.0,-5.0,-1.0,1650916606804753.0,0
1,-1.0,1.0,-1.0,0.0,1.0,-3.0,-2.0,-1.0,1650916606804753.0,0
2,-1.0,0.0,-3.0,-4.0,-6.0,-10.0,-2.0,-1.0,1650916606805422.0,0
3,-1.0,-2.0,-1.0,-2.0,-4.0,-2.0,2.0,1.0,1650916606805422.0,0
4,-1.0,0.0,0.0,2.0,4.0,7.0,1.0,0.0,1650916606826553.0,0
5,0.0,-1.0,-1.0,2.0,5.0,0.0,-1.0,0.0,1650916606826553.0,0
6,3.0,0.0,-1.0,-2.0,-2.0,-2.0,-1.0,1.0,1650916606827568.0,0
7,-7.0,-3.0,-4.0,-3.0,-8.0,-3.0,-3.0,-1.0,1650916606827568.0,0
8,3.0,1.0,1.0,-3.0,-11.0,-12.0,-2.0,-1.0,1650916606840710.0,0
9,-2.0,0.0,0.0,-1.0,3.0,6.0,-1.0,-1.0,1650916606840710.0,0
10,2.0,0.0,2.0,2.0,8.0,7.0,3.0,2.0,1650916606847725.0,0
11,1.0,-1.0,1.0,3.0,1.0,1.0,0.0,-1.0,1650916606847725.0,0
12,-2.0,-3.0,-2.0,0.0,-6.0,-11.0,0.0,-1.0,1650916606864007.0,0
13,0.0,-2.0,-3.0,-2.0,2.0,0.0,-3.0,-1.0,1650916606864007.0,0
14,-5.0,-3.0,0.0,0.0,1.0,2.0,-5.0,-2.0,1650916606865836.0,0
15,0.0,2.0,0.0,-1.0,-2.0,4.0,4.0,2.0,1650916606865836.0,0
16,-3.0,-1.0,-1.0,0.0,3.0,12.0,3.0,1.0,1650916606886887.0,0
17,2.0,1.0,-1.0,-2.0,-3.0,-5.0,0.0,0.0,1650916606886887.0,0
18,-4.0,-3.0,-1.0,-2.0,-4.0,-2.0,-2.0,0.0,1650916606887887.0,0
19,3.0,0.0,-1.0,0.0,1.0,-7.0,-4.0,-3.0,1650916606887887.0,0
20,-1.0,0.0,0.0,1.0,1.0,3.0,1.0,-1.0,1650916606900950.0,0
21,-3.0,1.0,-1.0,0.0,0.0,-2.0,2.0,1.0,1650916606900950.0,0
22,1.0,-3.0,-1.0,1.0,-3.0,-8.0,-6.0,-2.0,1650916606908283.0,0
23,-2.0,-1.0,-2.0,-1.0,-2.0,-2.0,-1.0,-2.0,1650916606908283.0,0
24,-1.0,-1.0,1.0,-1.0,6.0,11.0,1.0,0.0,1650916606924126.0,0
25,-1.0,-1.0,-1.0,-1.0,-2.0,-4.0,-2.0,-2.0,1650916606924126.0,0
26,0.0,1.0,-2.0,-1.0,-1.0,2.0,3.0,2.0,1650916606925079.0,0
27,1.0,-1.0,-3.0,-2.0,-4.0,-8.0,-6.0,-2.0,1650916606925079.0,0
28,-1.0,-2.0,2.0,0.0,-2.0,-9.0,-2.0,-2.0,1650916606947359.0,0
29,-2.0,-2.0,0.0,2.0,-1.0,-3.0,-2.0,0.0,1650916606947359.0,0
30,3.0,2.0,-1.0,0.0,6.0,8.0,3.0,3.0,1650916606947513.0,0
31,-2.0,1.0,-2.0,1.0,9.0,15.0,6.0,-2.0,1650916606947513.0,0
32,0.0,-1.0,0.0,-1.0,0.0,4.0,-4.0,2.0,1650916606960664.0,0
33,1.0,-1.0,1.0,-2.0,-4.0,-2.0,3.0,1.0,1650916606960664.0,0
34,-2.0,-2.0,0.0,-1.0,-6.0,-12.0,-5.0,-3.0,1650916606967961.0,0
35,2.0,0.0,-2.0,1.0,-2.0,-4.0,-2.0,-2.0,1650916606967961.0,0
36,-3.0,-1.0,-2.0,0.0,2.0,1.0,1.0,1.0,1650916606983745.0,0
37,-1.0,1.0,1.0,-1.0,-4.0,-5.0,1.0,-1.0,1650916606983745.0,0
38,2.0,0.0,-2.0,-4.0,-3.0,1.0,-3.0,-3.0,1650916606985771.0,0
39,-2.0,-1.0,0.0,-2.0,-4.0,-5.0,-1.0,0.0,1650916606985771.0,0
40,-1.0,1.0,-2.0,3.0,4.0,-2.0,1.0,-1.0,1650916607006701.0,0
41,3.0,0.0,4.0,1.0,3.0,7.0,1.0,0.0,1650916607006701.0,0
42,0.0,-3.0,-2.0,-2.0,-1.0,3.0,1.0,2.0,1650916607007698.0,0
43,-2.0,-1.0,1.0,-2.0,-5.0,-3.0,-2.0,-1.0,1650916607007698.0,0
44,0.0,1.0,-2.0,-3.0,-9.0,-7.0,-2.0,1.0,1650916607020476.0,0
45,-2.0,-1.0,-6.0,-5.0,-12.0,-12.0,-4.0,-1.0,1650916607020476.0,0
46,-3.0,0.0,1.0,3.0,13.0,5.0,3.0,0.0,1650916607035346.0,0
47,4.0,2.0,3.0,3.0,6.0,6.0,4.0,0.0,1650916607035346.0,0
48,2.0,0.0,-1.0,4.0,13.0,16.0,1.0,0.0,1650916607043324.0,0
49,-1.0,-1.0,-1.0,-1.0,1.0,12.0,8.0,2.0,1650916607043324.0,0
50,-1.0,-1.0,0.0,-2.0,-7.0,-10.0,-5.0,1.0,1650916607045320.0,0
51,-3.0,0.0,-1.0,-4.0,-9.0,-10.0,-5.0,0.0,1650916607045320.0,0
52,6.0,2.0,1.0,-3.0,-7.0,-10.0,-2.0,-2.0,1650916607066263.0,0
53,-2.0,-2.0,-1.0,1.0,4.0,3.0,0.0,-1.0,1650916607066263.0,0
54,0.0,1.0,0.0,0.0,-8.0,-4.0,0.0,-2.0,1650916607068259.0,0
55,1.0,-3.0,-1.0,-1.0,3.0,1.0,0.0,-1.0,1650916607068259.0,0
56,-7.0,0.0,1.0,-1.0,3.0,-2.0,0.0,-2.0,1650916607079834.0,0
57,1.0,-1.0,-1.0,-2.0,-1.0,0.0,-6.0,-2.0,1650916607079834.0,0
58,1.0,-1.0,-2.0,0.0,-1.0,2.0,4.0,1.0,1650916607088808.0,0
59,-2.0,-1.0,-1.0,-1.0,-5.0,-4.0,-2.0,-1.0,1650916607088808.0,0
60,-1.0,-3.0,-1.0,-2.0,-1.0,4.0,0.0,0.0,1650916607103769.0,0
61,2.0,-2.0,1.0,-1.0,2.0,2.0,0.0,-3.0,1650916607103769.0,0
62,-5.0,1.0,-2.0,-1.0,1.0,-3.0,0.0,-2.0,1650916607105763.0,0
63,-1.0,-3.0,-1.0,-3.0,-4.0,-6.0,-2.0,-1.0,1650916607105763.0,0
64,-1.0,-2.0,-3.0,-3.0,-8.0,-1.0,0.0,-2.0,1650916607125710.0,0
65,0.0,2.0,0.0,1.0,8.0,4.0,-1.0,1.0,1650916607125710.0,0
66,2.0,1.0,0.0,-1.0,-3.0,-5.0,-2.0,-2.0,1650916607133688.0,0
67,-2.0,0.0,2.0,3.0,5.0,7.0,0.0,-1.0,1650916607133688.0,0
68,0.0,1.0,1.0,3.0,7.0,9.0,4.0,1.0,1650916607139673.0,0
69,-2.0,0.0,0.0,-2.0,-6.0,-2.0,-3.0,1.0,1650916607139673.0,0
70,4.0,1.0,1.0,-2.0,-3.0,-3.0,3.0,0.0,1650916607148413.0,0
71,1.0,-1.0,-3.0,-1.0,-3.0,-3.0,0.0,-2.0,1650916607148413.0,0
72,-2.0,0.0,0.0,0.0,-2.0,-3.0,-3.0,-1.0,1650916607164279.0,0
73,3.0,0.0,-3.0,-1.0,-3.0,-4.0,-5.0,-2.0,1650916607164279.0,0
74,-1.0,-2.0,-2.0,-1.0,-1.0,-1.0,-5.0,-1.0,1650916607165277.0,0
75,0.0,-1.0,-1.0,-3.0,-1.0,-1.0,4.0,1.0,1650916607165277.0,0
76,0.0,-2.0,0.0,0.0,2.0,0.0,-1.0,-1.0,1650916607186287.0,0
77,-3.0,0.0,2.0,7.0,10.0,11.0,4.0,1.0,1650916607186287.0,0
78,0.0,0.0,1.0,0.0,2.0,1.0,1.0,1.0,1650916607188264.0,0
79,-1.0,-2.0,-1.0,-2.0,-7.0,-3.0,-4.0,-1.0,1650916607188264.0,0
80,-4.0,0.0,-2.0,-2.0,-7.0,-6.0,-2.0,-1.0,1650916607200239.0,0
81,2.0,0.0,-2.0,-4.0,-13.0,-17.0,-3.0,-1.0,1650916607200239.0,0
82,-2.0,0.0,4.0,4.0,11.0,5.0,0.0,-1.0,1650916607209174.0,0
83,1.0,0.0,2.0,2.0,6.0,9.0,2.0,2.0,1650916607209174.0,0
84,-2.0,0.0,0.0,-1.0,0.0,7.0,2.0,-1.0,1650916607223354.0,0
85,-1.0,-1.0,-1.0,0.0,-1.0,1.0,4.0,1.0,1650916607223354.0,0
86,0.0,-3.0,-3.0,-3.0,-7.0,-2.0,-2.0,-1.0,1650916607225315.0,0
87,-1.0,-2.0,-2.0,-3.0,-2.0,-9.0,-6.0,0.0,1650916607225315.0,0
88,0.0,-1.0,-2.0,-3.0,-3.0,-8.0,-3.0,-3.0,1650916607247365.0,0
89,0.0,-2.0,0.0,1.0,3.0,9.0,4.0,0.0,1650916607247365.0,0
90,-2.0,-1.0,0.0,1.0,3.0,2.0,-4.0,-1.0,1650916607248378.0,0
91,1.0,0.0,1.0,0.0,2.0,3.0,5.0,2.0,1650916607248378.0,0
92,0.0,0.0,-2.0,-2.0,-6.0,-8.0,-1.0,0.0,1650916607269433.0,0
93,-3.0,-1.0,0.0,1.0,4.0,-3.0,-4.0,-2.0,1650916607269433.0,0
94,1.0,-2.0,2.0,2.0,6.0,12.0,6.0,2.0,1650916607270310.0,0
95,-1.0,-1.0,-2.0,0.0,-1.0,2.0,-2.0,-1.0,1650916607270310.0,0
96,4.0,1.0,-2.0,-2.0,-4.0,-10.0,-1.0,0.0,1650916607283983.0,0
97,-5.0,0.0,2.0,-4.0,-10.0,-2.0,-3.0,-4.0,1650916607283983.0,0
98,1.0,-4.0,-4.0,-1.0,-4.0,-9.0,-4.0,-1.0,1650916607284980.0,0
99,-1.0,1.0,0.0,2.0,7.0,9.0,-1.0,0.0,1650916607284980.0,0
100,1.0,-3.0,1.0,2.0,6.0,8.0,4.0,2.0,1650916607306550.0,0
101,-2.0,-1.0,-1.0,-3.0,-9.0,-10.0,-1.0,-2.0,1650916607306550.0,0
102,-2.0,0.0,-1.0,-1.0,0.0,3.0,-4.0,-1.0,1650916607307551.0,0
103,-3.0,-1.0,-3.0,-1.0,-6.0,-3.0,1.0,-1.0,1650916607307551.0,0
104,1.0,-1.0,1.0,2.0,7.0,3.0,1.0,1.0,1650916607319768.0,0
105,3.0,-1.0,0.0,1.0,0.0,0.0,-1.0,1.0,1650916607319768.0,0
106,-3.0,1.0,0.0,-2.0,-3.0,-5.0,1.0,-2.0,1650916607328763.0,0
107,0.0,-1.0,-2.0,-2.0,-5.0,-9.0,-5.0,-1.0,1650916607328763.0,0
108,-2.0,-1.0,-1.0,-1.0,-3.0,1.0,-1.0,0.0,1650916607343956.0,0
109,1.0,-1.0,0.0,2.0,8.0,7.0,3.0,5.0,1650916607343956.0,0
110,1.0,-3.0,-2.0,0.0,0.0,4.0,0.0,-1.0,1650916607345844.0,0
111,-2.0,-1.0,-1.0,0.0,-1.0,0.0,2.0,0.0,1650916607345844.0,0
112,-4.0,-2.0,-1.0,-1.0,-3.0,-6.0,-1.0,0.0,1650916607365963.0,0
113,3.0,0.0,-2.0,-3.0,-4.0,-4.0,-6.0,-1.0,1650916607365963.0,0
114,0.0,0.0,0.0,1.0,0.0,4.0,8.0,1.0,1650916607367959.0,0
115,0.0,0.0,0.0,0.0,1.0,-2.0,-2.0,-2.0,1650916607367959.0,0
116,0.0,-2.0,-1.0,-1.0,-1.0,-2.0,0.0,-3.0,1650916607380375.0,0
117,-2.0,-1.0,-2.0,-1.0,6.0,11.0,1.0,-1.0,1650916607380375.0,0
118,-2.0,-1.0,-4.0,-3.0,-8.0,-5.0,-4.0,-2.0,1650916607388990.0,0
119,0.0,-2.0,4.0,-1.0,-13.0,-13.0,1.0,-1.0,1650916607388990.0,0
120,1.0,-2.0,1.0,2.0,9.0,13.0,0.0,0.0,1650916607404072.0,0
121,-1.0,0.0,-2.0,0.0,0.0,-3.0,0.0,0.0,1650916607404072.0,0
122,2.0,0.0,0.0,0.0,2.0,-1.0,1.0,0.0,1650916607404995.0,0
123,-6.0,0.0,-3.0,-1.0,-4.0,-6.0,-2.0,0.0,1650916607404995.0,0
124,0.0,-1.0,-2.0,-3.0,-4.0,-5.0,-6.0,-1.0,1650916607426211.0,0
125,-1.0,0.0,-3.0,-1.0,-1.0,-3.0,-1.0,-1.0,1650916607426211.0,0
126,2.0,1.0,-1.0,1.0,3.0,11.0,2.0,1.0,1650916607428110.0,0
127,0.0,0.0,0.0,0.0,5.0,5.0,3.0,0.0,1650916607428110.0,0
128,1.0,0.0,-1.0,0.0,-3.0,-4.0,-1.0,-2.0,1650916607440172.0,0
129,-2.0,-3.0,-3.0,-2.0,-5.0,-2.0,0.0,-2.0,1650916607440172.0,0
130,-1.0,0.0,-2.0,-2.0,0.0,-7.0,-2.0,0.0,1650916607449002.0,0
131,1.0,-2.0,-2.0,-2.0,1.0,-1.0,-2.0,-1.0,1650916607449002.0,0
132,-1.0,0.0,-3.0,-4.0,-7.0,-5.0,-3.0,-1.0,1650916607464021.0,0
133,-1.0,2.0,1.0,2.0,-3.0,-8.0,0.0,-1.0,1650916607464021.0,0
134,2.0,-1.0,2.0,0.0,9.0,10.0,2.0,1.0,1650916607464924.0,0
135,1.0,0.0,1.0,2.0,9.0,13.0,2.0,-1.0,1650916607464924.0,0
136,1.0,-1.0,-1.0,-2.0,-7.0,-4.0,1.0,1.0,1650916607487150.0,0
137,-2.0,-1.0,-2.0,-2.0,-2.0,-5.0,-4.0,-2.0,1650916607487150.0,0
138,2.0,-2.0,-1.0,-2.0,-9.0,-9.0,-2.0,0.0,1650916607488055.0,0
139,-4.0,0.0,-1.0,-1.0,6.0,8.0,-3.0,0.0,1650916607488055.0,0
140,-3.0,-1.0,0.0,1.0,-5.0,-5.0,0.0,0.0,1650916607509571.0,0
141,2.0,2.0,1.0,2.0,8.0,6.0,2.0,1.0,1650916607509571.0,0
142,-1.0,0.0,-2.0,-1.0,1.0,1.0,-4.0,-2.0,1650916607510605.0,0
143,1.0,-2.0,-2.0,-1.0,0.0,-2.0,-1.0,-2.0,1650916607510605.0,0
144,0.0,0.0,-1.0,-3.0,-5.0,-4.0,-3.0,1.0,1650916607524266.0,0
145,-2.0,-1.0,0.0,-2.0,-6.0,0.0,2.0,0.0,1650916607524266.0,0
146,-3.0,1.0,1.0,0.0,1.0,-2.0,0.0,-1.0,1650916607525267.0,0
147,1.0,0.0,-2.0,-2.0,-4.0,-6.0,-2.0,0.0,1650916607525267.0,0
148,-1.0,0.0,-1.0,0.0,4.0,2.0,2.0,0.0,1650916607546755.0,0
149,2.0,-2.0,0.0,0.0,2.0,0.0,-1.0,0.0,1650916607546755.0,0
150,-2.0,0.0,-1.0,-1.0,-2.0,-7.0,-6.0,-2.0,1650916607547596.0,0
151,-2.0,-2.0,1.0,1.0,-3.0,-5.0,6.0,-1.0,1650916607547596.0,0
152,3.0,-1.0,0.0,1.0,8.0,11.0,2.0,-1.0,1650916607569754.0,0
153,0.0,1.0,-2.0,-2.0,2.0,7.0,2.0,2.0,1650916607569754.0,0
154,1.0,0.0,-1.0,0.0,-3.0,0.0,-3.0,-1.0,1650916607570600.0,0
155,-2.0,-1.0,0.0,0.0,-10.0,-9.0,-2.0,2.0,1650916607570600.0,0
156,-2.0,-1.0,0.0,1.0,0.0,-3.0,-2.0,-2.0,1650916607584603.0,0
157,-1.0,-3.0,-2.0,-1.0,4.0,-1.0,-1.0,-1.0,1650916607584603.0,0
158,-2.0,-2.0,-3.0,-2.0,-5.0,-6.0,0.0,-1.0,1650916607589748.0,0
159,3.0,1.0,-2.0,0.0,-2.0,1.0,1.0,0.0,1650916607589748.0,0
160,0.0,1.0,3.0,1.0,1.0,5.0,2.0,0.0,1650916607606732.0,0
161,-1.0,-2.0,-1.0,0.0,-1.0,-3.0,-3.0,-1.0,1650916607606732.0,0
162,-2.0,-1.0,-1.0,1.0,0.0,-1.0,5.0,-1.0,1650916607607598.0,0
163,2.0,0.0,-1.0,-1.0,0.0,-4.0,-1.0,-1.0,1650916607607598.0,0
164,0.0,-1.0,-2.0,-1.0,2.0,2.0,0.0,0.0,1650916607629420.0,0
165,5.0,1.0,0.0,-1.0,-1.0,3.0,-1.0,-1.0,1650916607629420.0,0
166,-5.0,-3.0,0.0,-3.0,-8.0,-7.0,-5.0,0.0,1650916607630421.0,0
167,1.0,0.0,-2.0,-2.0,3.0,-5.0,-3.0,-1.0,1650916607630421.0,0
168,2.0,1.0,-1.0,4.0,3.0,3.0,1.0,1.0,1650916607643770.0,0
169,-3.0,1.0,1.0,3.0,5.0,13.0,6.0,1.0,1650916607643770.0,0
170,-3.0,-1.0,-1.0,0.0,6.0,6.0,3.0,1.0,1650916607649784.0,0
171,-1.0,0.0,-2.0,-2.0,-7.0,-3.0,-5.0,-2.0,1650916607649784.0,0
172,-2.0,-2.0,-3.0,-5.0,-5.0,-13.0,-6.0,-2.0,1650916607666566.0,0
173,-2.0,-2.0,2.0,-1.0,-15.0,-19.0,1.0,-2.0,1650916607666566.0,0
174,0.0,1.0,1.0,2.0,13.0,15.0,2.0,1.0,1650916607667566.0,0
175,0.0,1.0,1.0,2.0,8.0,12.0,3.0,1.0,1650916607667566.0,0
176,2.0,1.0,0.0,-1.0,-2.0,-1.0,2.0,-1.0,1650916607689739.0,0
177,-2.0,-3.0,-4.0,-2.0,-3.0,-5.0,-3.0,0.0,1650916607689739.0,0
178,2.0,3.0,-1.0,-1.0,-6.0,-4.0,-1.0,0.0,1650916607690584.0,0
179,-2.0,-3.0,-3.0,1.0,1.0,1.0,-1.0,-2.0,1650916607690584.0,0
180,0.0,-1.0,0.0,0.0,3.0,2.0,2.0,2.0,1650916607703323.0,0
181,1.0,0.0,-2.0,-3.0,-4.0,-5.0,-5.0,0.0,1650916607703323.0,0
182,2.0,-1.0,-3.0,-4.0,-8.0,-13.0,-3.0,-1.0,1650916607710477.0,0
183,-2.0,-1.0,0.0,0.0,-1.0,6.0,1.0,1.0,1650916607710477.0,0
184,-7.0,0.0,0.0,-1.0,0.0,7.0,4.0,0.0,1650916607726311.0,0
185,1.0,-3.0,1.0,3.0,8.0,9.0,2.0,-1.0,1650916607726311.0,0
186,1.0,0.0,1.0,2.0,7.0,0.0,1.0,0.0,1650916607728273.0,0
187,0.0,-2.0,2.0,-2.0,0.0,-5.0,-1.0,-2.0,1650916607728273.0,0
188,-1.0,-2.0,-3.0,-5.0,-8.0,-11.0,-3.0,-2.0,1650916607749305.0,0
189,-6.0,-2.0,-1.0,-4.0,-13.0,-13.0,-3.0,1.0,1650916607749305.0,0
190,-3.0,-3.0,-3.0,-2.0,-7.0,-2.0,-5.0,-3.0,1650916607750462.0,0
191,3.0,-1.0,1.0,4.0,10.0,15.0,7.0,2.0,1650916607750462.0,0
192,1.0,1.0,1.0,3.0,10.0,9.0,3.0,2.0,1650916607763767.0,0
193,-1.0,1.0,-1.0,1.0,3.0,1.0,-1.0,0.0,1650916607763767.0,0
194,0.0,-2.0,-2.0,-2.0,-8.0,-8.0,-6.0,-3.0,1650916607770889.0,0
195,-1.0,1.0,-2.0,-6.0,-8.0,-10.0,-5.0,-1.0,1650916607770889.0,0
196,0.0,-1.0,0.0,1.0,-1.0,-4.0,0.0,-1.0,1650916607786546.0,0
197,2.0,-1.0,0.0,0.0,0.0,5.0,1.0,1.0,1650916607786546.0,0
198,1.0,-1.0,0.0,-3.0,-4.0,-4.0,0.0,0.0,1650916607788372.0,0
199,1.0,0.0,1.0,0.0,1.0,5.0,0.0,-2.0,1650916607788372.0,0
200,1.0,0.0,0.0,-1.0,-4.0,-2.0,-5.0,-1.0,1650916607809622.0,0
201,0.0,1.0,0.0,1.0,5.0,-3.0,0.0,0.0,1650916607809622.0,0
202,-3.0,0.0,-1.0,4.0,13.0,14.0,3.0,1.0,1650916607810003.0,0
203,1.0,1.0,0.0,3.0,2.0,5.0,0.0,3.0,1650916607810003.0,0
204,-1.0,1.0,-1.0,-2.0,-2.0,-1.0,2.0,1.0,1650916607824112.0,0
205,0.0,-2.0,-3.0,-4.0,-9.0,-8.0,-7.0,-4.0,1650916607824112.0,0
206,-2.0,0.0,1.0,-2.0,-15.0,-16.0,1.0,-1.0,1650916607830156.0,0
207,-2.0,-2.0,-1.0,0.0,6.0,6.0,-3.0,-1.0,1650916607830156.0,0
208,0.0,-1.0,2.0,2.0,1.0,2.0,-3.0,1.0,1650916607846496.0,0
209,4.0,1.0,3.0,2.0,3.0,0.0,-1.0,-2.0,1650916607846496.0,0
210,-8.0,1.0,0.0,2.0,2.0,1.0,0.0,0.0,1650916607847365.0,0
211,0.0,-3.0,-3.0,-3.0,-2.0,-3.0,1.0,0.0,1650916607847365.0,0
212,-1.0,-1.0,1.0,-2.0,-5.0,-6.0,-2.0,-2.0,1650916607869339.0,0
213,-1.0,1.0,-3.0,-4.0,0.0,-3.0,2.0,-1.0,1650916607869339.0,0
214,1.0,1.0,2.0,1.0,-7.0,0.0,0.0,-3.0,1650916607870339.0,0
215,-2.0,0.0,0.0,1.0,9.0,5.0,2.0,0.0,1650916607870339.0,0
216,-2.0,-1.0,-1.0,2.0,7.0,5.0,1.0,-1.0,1650916607883506.0,0
217,0.0,-1.0,-1.0,-3.0,1.0,-2.0,-3.0,0.0,1650916607883506.0,0
218,-2.0,0.0,2.0,1.0,-7.0,-7.0,-4.0,0.0,1650916607889707.0,0
219,-1.0,-1.0,-1.0,-1.0,-9.0,-10.0,-3.0,-2.0,1650916607889707.0,0
220,2.0,0.0,-1.0,-1.0,-3.0,-2.0,1.0,1.0,1650916607906855.0,0
221,-3.0,-1.0,0.0,1.0,8.0,5.0,0.0,1.0,1650916607906855.0,0
222,4.0,0.0,-2.0,1.0,13.0,12.0,3.0,1.0,1650916607907693.0,0
223,2.0,2.0,-1.0,-1.0,-4.0,-3.0,-3.0,-1.0,1650916607907693.0,0
224,2.0,1.0,-2.0,-3.0,-4.0,-4.0,-2.0,1.0,1650916607929683.0,0
225,-3.0,-1.0,0.0,-1.0,-10.0,-5.0,-2.0,-3.0,1650916607929683.0,0
226,0.0,-3.0,-3.0,-3.0,-1.0,-6.0,2.0,0.0,1650916607930715.0,0
227,1.0,0.0,-3.0,-5.0,-1.0,-4.0,-1.0,-3.0,1650916607930715.0,0
228,-2.0,-2.0,2.0,3.0,-3.0,0.0,2.0,1.0,1650916607944005.0,0
229,-3.0,-1.0,-1.0,0.0,10.0,12.0,-1.0,1.0,1650916607944005.0,0
230,1.0,0.0,-10.0,-8.0,2.0,7.0,0.0,-1.0,1650916607949921.0,0
231,0.0,3.0,13.0,13.0,1.0,5.0,6.0,1.0,1650916607949921.0,0
232,-6.0,-3.0,-2.0,-3.0,-4.0,-10.0,-1.0,-2.0,1650916607966165.0,0
233,-1.0,2.0,0.0,1.0,3.0,5.0,2.0,1.0,1650916607966165.0,0
234,0.0,-1.0,0.0,2.0,2.0,2.0,1.0,-1.0,1650916607967999.0,0
235,-1.0,-1.0,-8.0,-7.0,-7.0,-14.0,-4.0,-1.0,1650916607967999.0,0
236,-1.0,-2.0,-1.0,-2.0,0.0,3.0,-2.0,0.0,1650916607989358.0,0
237,0.0,1.0,0.0,1.0,-10.0,-10.0,1.0,-1.0,1650916607989358.0,0
238,0.0,-1.0,-3.0,-4.0,4.0,10.0,-6.0,-1.0,1650916607990359.0,0
239,-1.0,1.0,0.0,2.0,-1.0,5.0,9.0,3.0,1650916607990359.0,0
240,6.0,1.0,0.0,2.0,3.0,-3.0,-2.0,-1.0,1650916608002669.0,0
241,-1.0,-3.0,-5.0,-1.0,0.0,-15.0,-4.0,0.0,1650916608002669.0,0
242,2.0,0.0,2.0,0.0,-8.0,3.0,4.0,-1.0,1650916608011699.0,0
243,-3.0,-2.0,0.0,-3.0,-1.0,6.0,-2.0,0.0,1650916608011699.0,0
244,-4.0,-1.0,-2.0,-2.0,-3.0,-4.0,2.0,-1.0,1650916608026550.0,0
245,0.0,0.0,-2.0,0.0,5.0,8.0,-1.0,-1.0,1650916608026550.0,0
246,2.0,1.0,8.0,4.0,4.0,-1.0,1.0,1.0,1650916608027549.0,0
247,-5.0,-1.0,1.0,4.0,6.0,-5.0,-5.0,-3.0,1650916608027549.0,0
248,2.0,-1.0,-4.0,-4.0,-8.0,-4.0,3.0,0.0,1650916608049907.0,0
249,-2.0,-2.0,-2.0,-2.0,-7.0,-3.0,1.0,-2.0,1650916608049907.0,0
250,0.0,1.0,0.0,1.0,2.0,2.0,4.0,2.0,1650916608050686.0,0
251,0.0,0.0,-2.0,-4.0,-3.0,0.0,-4.0,-1.0,1650916608050686.0,0
252,4.0,1.0,0.0,-1.0,2.0,0.0,-5.0,-1.0,1650916608063582.0,0
253,-1.0,-3.0,0.0,-1.0,0.0,2.0,4.0,0.0,1650916608063582.0,0
254,-3.0,-2.0,-4.0,0.0,0.0,-1.0,1.0,1.0,1650916608071946.0,0
255,2.0,-2.0,0.0,-3.0,-3.0,-7.0,-4.0,-1.0,1650916608071946.0,0
256,-4.0,-3.0,4.0,3.0,5.0,2.0,-4.0,-4.0,1650916608086567.0,0
257,2.0,2.0,0.0,-2.0,0.0,7.0,-3.0,0.0,1650916608086567.0,0
258,-4.0,0.0,0.0,-3.0,1.0,2.0,2.0,-2.0,1650916608087575.0,0
259,0.0,-1.0,-6.0,-3.0,-5.0,-10.0,1.0,1.0,1650916608087575.0,0
260,0.0,-4.0,-2.0,-4.0,-2.0,-4.0,-2.0,-2.0,1650916608109313.0,0
261,3.0,0.0,0.0,2.0,5.0,7.0,0.0,-1.0,1650916608109313.0,0
262,-3.0,-1.0,-3.0,0.0,4.0,1.0,-4.0,-2.0,1650916608110313.0,0
263,-2.0,2.0,-1.0,-2.0,-9.0,-7.0,2.0,-1.0,1650916608110313.0,0
264,-3.0,-2.0,0.0,0.0,2.0,2.0,-1.0,0.0,1650916608122480.0,0
265,-1.0,1.0,0.0,3.0,5.0,8.0,3.0,1.0,1650916608122480.0,0
266,3.0,0.0,1.0,-1.0,-1.0,-3.0,-1.0,1.0,1650916608131644.0,0
267,-1.0,-3.0,1.0,-2.0,0.0,-1.0,-1.0,-3.0,1650916608131644.0,0
268,-4.0,-1.0,-4.0,-3.0,-2.0,-6.0,-4.0,-3.0,1650916608147170.0,0
269,3.0,-1.0,-6.0,-5.0,-3.0,-5.0,-4.0,-1.0,1650916608147170.0,0
270,0.0,1.0,4.0,4.0,-2.0,0.0,11.0,1.0,1650916608148072.0,0
271,-3.0,-2.0,1.0,0.0,-3.0,-7.0,-5.0,-3.0,1650916608148072.0,0
272,-2.0,-1.0,0.0,-2.0,0.0,7.0,2.0,-1.0,1650916608169371.0,0
273,0.0,0.0,-2.0,0.0,1.0,1.0,-3.0,-1.0,1650916608169371.0,0
274,-1.0,-2.0,-4.0,-2.0,-5.0,-7.0,-3.0,0.0,1650916608170209.0,0
275,2.0,-1.0,-1.0,0.0,4.0,5.0,-1.0,0.0,1650916608170209.0,0
276,3.0,2.0,-1.0,1.0,-2.0,5.0,3.0,2.0,1650916608191734.0,0
277,-5.0,-4.0,-1.0,-1.0,5.0,-5.0,-1.0,1.0,1650916608191734.0,0
278,-2.0,0.0,0.0,3.0,-1.0,-4.0,-3.0,-2.0,1650916608192567.0,0
279,5.0,0.0,0.0,3.0,9.0,9.0,5.0,2.0,1650916608192567.0,0
280,-2.0,2.0,-3.0,-2.0,2.0,7.0,-1.0,-1.0,1650916608206547.0,0
281,-2.0,0.0,3.0,0.0,-10.0,-6.0,-3.0,-1.0,1650916608206547.0,0
282,-3.0,-2.0,-1.0,-5.0,-10.0,-13.0,-6.0,-3.0,1650916608207547.0,0
283,-2.0,-2.0,-2.0,-3.0,-6.0,-2.0,-4.0,-3.0,1650916608207547.0,0
284,2.0,0.0,-1.0,2.0,5.0,4.0,1.0,2.0,1650916608228239.0,0
285,2.0,-1.0,-1.0,2.0,0.0,-3.0,8.0,3.0,1650916608228239.0,0
286,-3.0,-1.0,-3.0,-4.0,-1.0,-1.0,-7.0,-2.0,1650916608236379.0,0
287,-1.0,1.0,1.0,2.0,5.0,3.0,8.0,1.0,1650916608236379.0,0
288,-1.0,1.0,0.0,0.0,-4.0,-1.0,-1.0,0.0,1650916608242367.0,0
289,0.0,-2.0,-1.0,-2.0,5.0,9.0,-6.0,-4.0,1650916608242367.0,0
290,2.0,0.0,-5.0,-6.0,0.0,1.0,8.0,2.0,1650916608251231.0,0
291,-5.0,-1.0,2.0,0.0,-9.0,-14.0,-6.0,-3.0,1650916608251231.0,0
292,-2.0,-4.0,1.0,0.0,-4.0,-7.0,2.0,0.0,1650916608266528.0,0
293,-1.0,0.0,0.0,1.0,7.0,5.0,-1.0,1.0,1650916608266528.0,0
294,3.0,2.0,1.0,3.0,6.0,10.0,4.0,0.0,1650916608267529.0,0
295,-1.0,1.0,-4.0,-2.0,-2.0,-2.0,-3.0,-3.0,1650916608267529.0,0
296,-2.0,0.0,-2.0,-4.0,-6.0,-6.0,-2.0,-2.0,1650916608289829.0,0
297,-2.0,-2.0,-2.0,-3.0,-9.0,-9.0,-3.0,-4.0,1650916608289829.0,0
298,0.0,-2.0,-5.0,0.0,2.0,-1.0,-4.0,-1.0,1650916608290356.0,0
299,-1.0,0.0,7.0,6.0,3.0,6.0,7.0,3.0,1650916608290356.0,0
300,1.0,1.0,-1.0,1.0,3.0,1.0,-3.0,-1.0,1650916608302545.0,0
301,0.0,0.0,-4.0,-2.0,-4.0,-1.0,0.0,0.0,1650916608302545.0,0
302,1.0,0.0,2.0,2.0,0.0,0.0,-2.0,0.0,1650916608311701.0,0
303,-1.0,-1.0,-4.0,-1.0,4.0,4.0,0.0,1.0,1650916608311701.0,0
304,-3.0,-2.0,0.0,-2.0,-3.0,-4.0,-3.0,-1.0,1650916608326848.0,0
305,2.0,1.0,-1.0,-3.0,-7.0,-7.0,-1.0,-1.0,1650916608326848.0,0
306,-4.0,-2.0,-2.0,-7.0,-15.0,-21.0,-9.0,-4.0,1650916608327688.0,0
307,-3.0,1.0,-4.0,1.0,11.0,14.0,1.0,0.0,1650916608327688.0,0
308,3.0,0.0,4.0,5.0,7.0,12.0,5.0,1.0,1650916608349405.0,0
309,0.0,0.0,1.0,2.0,5.0,2.0,3.0,0.0,1650916608349405.0,0
310,-1.0,2.0,1.0,2.0,-6.0,-5.0,2.0,0.0,1650916608350406.0,0
311,-3.0,0.0,-1.0,-3.0,-6.0,-4.0,-6.0,1.0,1650916608350406.0,0
312,-2.0,-2.0,-5.0,-3.0,0.0,-3.0,1.0,-2.0,1650916608362700.0,0
313,-1.0,-2.0,3.0,2.0,-7.0,-5.0,0.0,-2.0,1650916608362700.0,0
314,-2.0,-2.0,1.0,-2.0,1.0,3.0,-2.0,-2.0,1650916608371622.0,0
315,3.0,1.0,-2.0,0.0,4.0,-3.0,1.0,-1.0,1650916608371622.0,0
316,0.0,1.0,0.0,3.0,7.0,-1.0,-2.0,0.0,1650916608387017.0,0
317,0.0,-1.0,0.0,0.0,3.0,7.0,4.0,2.0,1650916608387017.0,0
318,2.0,-1.0,0.0,1.0,6.0,12.0,5.0,0.0,1650916608388017.0,0
319,-2.0,-2.0,-4.0,-5.0,-10.0,-7.0,-1.0,0.0,1650916608388017.0,0
320,-1.0,-2.0,-3.0,-5.0,-6.0,-3.0,-2.0,-1.0,1650916608409818.0,0
321,0.0,0.0,0.0,-1.0,3.0,-6.0,-4.0,0.0,1650916608409818.0,0
322,-3.0,-2.0,1.0,-2.0,-3.0,-1.0,-2.0,-2.0,1650916608410737.0,0
323,9.0,0.0,1.0,1.0,6.0,5.0,-1.0,-1.0,1650916608410737.0,0
324,0.0,2.0,-1.0,2.0,-2.0,1.0,3.0,1.0,1650916608431051.0,0
325,-1.0,0.0,1.0,-1.0,-2.0,-4.0,-2.0,-1.0,1650916608431051.0,0
326,-2.0,-1.0,-3.0,-2.0,1.0,4.0,5.0,0.0,1650916608433049.0,0
327,-1.0,-1.0,-1.0,-2.0,-6.0,-6.0,-6.0,-1.0,1650916608433049.0,0
328,-2.0,-3.0,3.0,-1.0,-4.0,-4.0,0.0,0.0,1650916608446014.0,0
329,2.0,-1.0,-2.0,-2.0,-7.0,-7.0,-2.0,-1.0,1650916608446014.0,0
330,-1.0,0.0,-2.0,0.0,10.0,8.0,-2.0,2.0,1650916608448008.0,0
331,1.0,-1.0,-2.0,-1.0,-5.0,2.0,-1.0,-2.0,1650916608448008.0,0
332,1.0,0.0,0.0,3.0,8.0,0.0,3.0,0.0,1650916608469335.0,0
333,-1.0,-1.0,-2.0,0.0,0.0,2.0,1.0,1.0,1650916608469335.0,0
334,0.0,-1.0,0.0,-2.0,-2.0,-1.0,-1.0,-1.0,1650916608470335.0,0
335,-3.0,-1.0,2.0,-1.0,-7.0,-5.0,-8.0,-3.0,1650916608470335.0,0
336,0.0,0.0,-3.0,-3.0,-3.0,-1.0,6.0,1.0,1650916608492143.0,0
337,1.0,-2.0,-7.0,-5.0,-5.0,1.0,1.0,2.0,1650916608492143.0,0
338,2.0,2.0,7.0,7.0,7.0,2.0,2.0,-1.0,1650916608492974.0,0
339,-2.0,0.0,0.0,1.0,3.0,0.0,1.0,0.0,1650916608492974.0,0
340,-2.0,0.0,1.0,1.0,1.0,3.0,-5.0,-2.0,1650916608505914.0,0
341,0.0,1.0,0.0,0.0,0.0,0.0,2.0,0.0,1650916608505914.0,0
342,0.0,-3.0,-6.0,-3.0,-6.0,-2.0,-2.0,0.0,1650916608507909.0,0
343,1.0,-1.0,1.0,-1.0,-3.0,-3.0,4.0,1.0,1650916608507909.0,0
344,-3.0,-2.0,2.0,0.0,-2.0,-8.0,-2.0,1.0,1650916608529339.0,0
345,0.0,0.0,-2.0,-2.0,2.0,5.0,0.0,-2.0,1650916608529339.0,0
346,-2.0,0.0,-2.0,0.0,-1.0,2.0,-5.0,-1.0,1650916608530339.0,0
347,0.0,-1.0,1.0,0.0,-2.0,-1.0,1.0,0.0,1650916608530339.0,0
348,-1.0,1.0,-2.0,-4.0,-5.0,-1.0,-4.0,-3.0,1650916608551717.0,0
349,-1.0,-2.0,-2.0,-2.0,-2.0,-2.0,-3.0,2.0,1650916608551717.0,0
350,-5.0,-1.0,2.0,0.0,0.0,-8.0,-2.0,-4.0,1650916608552714.0,0
351,-1.0,-2.0,-3.0,1.0,8.0,4.0,-2.0,-1.0,1650916608552714.0,0
352,1.0,0.0,0.0,1.0,4.0,9.0,-3.0,0.0,1650916608566677.0,0
353,-5.0,-1.0,2.0,1.0,-6.0,-2.0,10.0,2.0,1650916608566677.0,0
354,6.0,1.0,-2.0,-2.0,-9.0,-5.0,-3.0,0.0,1650916608567678.0,0
355,-4.0,-2.0,-5.0,-3.0,-2.0,-6.0,-7.0,-4.0,1650916608567678.0,0
356,0.0,0.0,0.0,4.0,6.0,4.0,0.0,0.0,1650916608588772.0,0
357,-1.0,2.0,-1.0,1.0,6.0,13.0,6.0,0.0,1650916608588772.0,0
358,1.0,-3.0,1.0,-1.0,0.0,-4.0,2.0,1.0,1650916608590613.0,0
359,-1.0,-1.0,1.0,0.0,-3.0,1.0,1.0,0.0,1650916608590613.0,0
360,5.0,0.0,-2.0,-2.0,-2.0,0.0,1.0,1.0,1650916608611961.0,0
361,0.0,0.0,0.0,-1.0,-1.0,-4.0,-7.0,-5.0,1650916608611961.0,0
362,0.0,-2.0,-2.0,0.0,-4.0,-6.0,0.0,2.0,1650916608612799.0,0
363,-3.0,1.0,1.0,-2.0,-1.0,-2.0,0.0,0.0,1650916608612799.0,0
364,1.0,-2.0,1.0,0.0,1.0,-1.0,-2.0,-1.0,1650916608626085.0,0
365,-1.0,-1.0,-1.0,-1.0,1.0,-3.0,-1.0,-2.0,1650916608626085.0,0
366,0.0,-3.0,-4.0,-6.0,-10.0,-9.0,-6.0,-2.0,1650916608633184.0,0
367,0.0,-2.0,-3.0,-5.0,-6.0,-2.0,0.0,0.0,1650916608633184.0,0
368,-1.0,0.0,0.0,2.0,6.0,0.0,0.0,0.0,1650916608649201.0,0
369,1.0,0.0,2.0,5.0,12.0,11.0,7.0,2.0,1650916608649201.0,0
370,-1.0,1.0,1.0,1.0,1.0,5.0,-3.0,-2.0,1650916608655511.0,0
371,-1.0,0.0,-3.0,-1.0,-2.0,2.0,0.0,0.0,1650916608655511.0,0
372,0.0,-1.0,-2.0,-4.0,-9.0,-11.0,0.0,-1.0,1650916608671804.0,0
373,-5.0,-2.0,-4.0,-3.0,-11.0,-13.0,-10.0,-5.0,1650916608671804.0,0
374,0.0,0.0,1.0,1.0,7.0,10.0,-3.0,1.0,1650916608672644.0,0
375,0.0,-3.0,-1.0,-1.0,2.0,7.0,10.0,1.0,1650916608672644.0,0
376,-1.0,2.0,1.0,0.0,-2.0,0.0,2.0,1.0,1650916608686513.0,0
377,-1.0,-2.0,-2.0,0.0,-2.0,-9.0,-4.0,-1.0,1650916608686513.0,0
378,-1.0,-1.0,0.0,1.0,-3.0,-3.0,-1.0,-1.0,1650916608692338.0,0
379,1.0,0.0,-1.0,1.0,1.0,3.0,-5.0,0.0,1650916608692338.0,0
380,-2.0,-2.0,-2.0,-2.0,0.0,3.0,-2.0,-3.0,1650916608709666.0,0
381,-2.0,-1.0,0.0,0.0,2.0,-1.0,2.0,-1.0,1650916608709666.0,0
382,1.0,0.0,-3.0,-4.0,0.0,-3.0,-1.0,0.0,1650916608710698.0,0
383,3.0,1.0,-2.0,-1.0,-3.0,-8.0,-3.0,0.0,1650916608710698.0,0
384,-10.0,-2.0,0.0,0.0,-3.0,-1.0,2.0,-1.0,1650916608732186.0,0
385,1.0,0.0,2.0,-1.0,-7.0,5.0,0.0,0.0,1650916608732186.0,0
386,1.0,1.0,0.0,1.0,4.0,-2.0,0.0,0.0,1650916608733059.0,0
387,-2.0,-1.0,0.0,4.0,10.0,2.0,2.0,0.0,1650916608733059.0,0
388,0.0,-1.0,-2.0,-1.0,-4.0,-5.0,0.0,-3.0,1650916608746292.0,0
389,-1.0,-1.0,-1.0,-1.0,3.0,6.0,-3.0,0.0,1650916608746292.0,0
390,-1.0,0.0,-3.0,-6.0,-12.0,-4.0,-3.0,-2.0,1650916608753277.0,0
391,0.0,0.0,3.0,1.0,2.0,4.0,-2.0,0.0,1650916608753277.0,0
392,0.0,-1.0,-1.0,-1.0,1.0,-4.0,-4.0,0.0,1650916608769721.0,0
393,-3.0,-1.0,-2.0,2.0,1.0,-2.0,2.0,-2.0,1650916608769721.0,0
394,0.0,0.0,-3.0,-1.0,3.0,0.0,5.0,1.0,1650916608770429.0,0
395,-1.0,-1.0,-5.0,-7.0,-7.0,-7.0,-3.0,-2.0,1650916608770429.0,0
396,4.0,-1.0,2.0,-1.0,-6.0,-7.0,-3.0,2.0,1650916608791730.0,0
397,1.0,-2.0,0.0,0.0,2.0,-4.0,1.0,-2.0,1650916608791730.0,0
398,-2.0,-2.0,2.0,2.0,4.0,7.0,-7.0,-1.0,1650916608792623.0,0
399,-3.0,-1.0,0.0,-1.0,0.0,4.0,4.0,-1.0,1650916608792623.0,0
400,-1.0,3.0,-1.0,-2.0,5.0,8.0,5.0,2.0,1650916608805709.0,0
401,3.0,0.0,0.0,-1.0,-3.0,-1.0,-5.0,2.0,1650916608805709.0,0
402,-3.0,0.0,1.0,0.0,-1.0,-3.0,2.0,-1.0,1650916608812839.0,0
403,-1.0,0.0,-2.0,-4.0,-14.0,-9.0,-3.0,-1.0,1650916608812839.0,0
404,-1.0,-1.0,-1.0,-2.0,-3.0,-13.0,-4.0,-4.0,1650916608829357.0,0
405,-1.0,0.0,1.0,2.0,10.0,12.0,4.0,3.0,1650916608829357.0,0
406,-2.0,-2.0,0.0,3.0,7.0,5.0,0.0,-1.0,1650916608830357.0,0
407,2.0,-1.0,0.0,0.0,3.0,5.0,1.0,3.0,1650916608830357.0,0
408,-2.0,0.0,-3.0,-2.0,-9.0,-1.0,2.0,-1.0,1650916608850755.0,0
409,0.0,0.0,-1.0,-2.0,-7.0,-8.0,-4.0,0.0,1650916608850755.0,0
410,4.0,1.0,2.0,1.0,0.0,0.0,1.0,-1.0,1650916608852754.0,0
411,-1.0,-1.0,2.0,4.0,3.0,2.0,2.0,3.0,1650916608852754.0,0
412,1.0,-1.0,-2.0,-1.0,-2.0,-1.0,-4.0,-2.0,1650916608866198.0,0
413,-1.0,-2.0,-1.0,0.0,-1.0,-4.0,0.0,0.0,1650916608866198.0,0
414,-1.0,0.0,0.0,-1.0,-1.0,1.0,1.0,0.0,1650916608872420.0,0
415,-1.0,-2.0,-4.0,-4.0,-10.0,-15.0,-3.0,-4.0,1650916608872420.0,0
416,-2.0,1.0,-2.0,-1.0,6.0,3.0,-3.0,-2.0,1650916608888864.0,0
417,6.0,0.0,1.0,0.0,2.0,6.0,3.0,0.0,1650916608888864.0,0
418,-2.0,-1.0,1.0,2.0,1.0,4.0,6.0,3.0,1650916608890861.0,0
419,0.0,1.0,2.0,3.0,9.0,10.0,1.0,0.0,1650916608890861.0,0
420,-3.0,-1.0,-3.0,-2.0,-2.0,-5.0,-1.0,2.0,1650916608912140.0,0
421,-3.0,-2.0,-1.0,-3.0,-11.0,-11.0,-7.0,-10.0,1650916608912140.0,0
422,-7.0,-4.0,-3.0,1.0,1.0,-7.0,-5.0,-2.0,1650916608912993.0,0
423,5.0,3.0,1.0,0.0,6.0,7.0,7.0,1.0,1650916608912993.0,0
424,-1.0,-3.0,-1.0,-7.0,-1.0,3.0,-2.0,-3.0,1650916608925436.0,0
425,9.0,2.0,-2.0,1.0,0.0,-1.0,4.0,14.0,1650916608925436.0,0
426,3.0,1.0,-1.0,-1.0,-7.0,-1.0,-1.0,-8.0,1650916608934323.0,0
427,-3.0,-2.0,-4.0,-5.0,-4.0,-4.0,-5.0,2.0,1650916608934323.0,0
428,0.0,-2.0,1.0,1.0,-3.0,-1.0,0.0,0.0,1650916608949820.0,0
429,1.0,1.0,0.0,-3.0,0.0,-1.0,0.0,-1.0,1650916608949820.0,0
430,11.0,0.0,14.0,16.0,8.0,3.0,4.0,28.0,1650916608950614.0,0
431,-29.0,-8.0,-3.0,5.0,0.0,-4.0,-2.0,-13.0,1650916608950614.0,0
432,-3.0,1.0,-19.0,-20.0,-3.0,3.0,-3.0,-28.0,1650916608972125.0,0
433,-13.0,-2.0,6.0,12.0,-2.0,-1.0,-1.0,10.0,1650916608972125.0,0
434,15.0,5.0,8.0,2.0,2.0,-3.0,-8.0,-20.0,1650916608978459.0,0
435,24.0,-5.0,16.0,-7.0,-2.0,4.0,8.0,2.0,1650916608978459.0,0
436,-9.0,-9.0,-27.0,-12.0,-13.0,-15.0,-1.0,5.0,1650916608985589.0,0
437,-16.0,-10.0,-19.0,-12.0,7.0,14.0,-7.0,-21.0,1650916608985589.0,0
438,6.0,11.0,35.0,41.0,7.0,3.0,3.0,8.0,1650916608994512.0,0
439,-27.0,14.0,32.0,74.0,20.0,5.0,4.0,7.0,1650916608994512.0,1
440,53.0,1.0,11.0,-48.0,3.0,6.0,8.0,23.0,1650916609009330.0,1
441,-6.0,-25.0,-58.0,-64.0,-31.0,-20.0,-9.0,2.0,1650916609009330.0,1
442,22.0,28.0,47.0,12.0,1.0,-6.0,-3.0,-5.0,1650916609010331.0,1
443,6.0,5.0,-8.0,-8.0,15.0,24.0,11.0,6.0,1650916609010331.0,1
444,-46.0,-11.0,-8.0,15.0,-11.0,-16.0,-14.0,-9.0,1650916609031848.0,1
445,15.0,-16.0,-30.0,20.0,15.0,3.0,14.0,22.0,1650916609031848.0,1
446,36.0,-5.0,-8.0,-23.0,-3.0,5.0,3.0,19.0,1650916609032691.0,1
447,-68.0,-14.0,10.0,-17.0,-24.0,-22.0,-24.0,-39.0,1650916609032691.0,1
448,30.0,10.0,58.0,87.0,26.0,16.0,8.0,9.0,1650916609044907.0,1
449,-32.0,13.0,-12.0,-66.0,-12.0,-8.0,-16.0,-39.0,1650916609044907.0,1
450,5.0,-14.0,19.0,35.0,-8.0,-11.0,7.0,-16.0,1650916609053823.0,1
451,18.0,15.0,-11.0,-62.0,-22.0,-8.0,3.0,21.0,1650916609053823.0,1
452,-10.0,-30.0,-56.0,-22.0,-16.0,1.0,5.0,33.0,1650916609068678.0,1
453,-28.0,21.0,32.0,59.0,11.0,1.0,-6.0,-27.0,1650916609068678.0,1
454,8.0,-16.0,-33.0,-35.0,23.0,20.0,9.0,-9.0,1650916609070544.0,1
455,47.0,-3.0,-70.0,-30.0,-8.0,2.0,11.0,51.0,1650916609070544.0,1
456,-33.0,2.0,-40.0,-66.0,-23.0,-14.0,-24.0,-82.0,1650916609090885.0,1
457,59.0,23.0,35.0,-1.0,7.0,7.0,12.0,23.0,1650916609090885.0,1
458,-70.0,-68.0,-124.0,-28.0,-21.0,-26.0,-22.0,-24.0,1650916609092883.0,1
459,20.0,-1.0,61.0,38.0,15.0,13.0,5.0,7.0,1650916609092883.0,1
460,19.0,30.0,76.0,53.0,11.0,15.0,6.0,20.0,1650916609105039.0,1
461,13.0,4.0,-55.0,-35.0,5.0,11.0,7.0,13.0,1650916609105039.0,1
462,4.0,73.0,127.0,116.0,36.0,19.0,14.0,12.0,1650916609114162.0,1
463,-35.0,-68.0,-128.0,-102.0,-15.0,-18.0,-16.0,-32.0,1650916609114162.0,1
464,12.0,5.0,78.0,65.0,12.0,2.0,6.0,19.0,1650916609129803.0,1
465,-41.0,-32.0,-57.0,-69.0,-26.0,-9.0,-6.0,-18.0,1650916609129803.0,1
466,-2.0,3.0,30.0,16.0,-8.0,-5.0,0.0,16.0,1650916609130809.0,1
467,20.0,21.0,-31.0,-37.0,-1.0,5.0,1.0,-26.0,1650916609130809.0,1
468,2.0,-3.0,-35.0,-30.0,1.0,-4.0,-1.0,28.0,1650916609151290.0,1
469,28.0,20.0,85.0,85.0,16.0,8.0,1.0,-31.0,1650916609151290.0,1
470,-39.0,-20.0,-14.0,62.0,4.0,-1.0,0.0,-15.0,1650916609153185.0,1
471,10.0,31.0,16.0,-59.0,-21.0,1.0,-4.0,5.0,1650916609153185.0,1
472,2.0,-14.0,14.0,64.0,2.0,3.0,4.0,1.0,1650916609165335.0,1
473,-4.0,-30.0,-42.0,-31.0,-19.0,-10.0,-6.0,12.0,1650916609165335.0,1
474,-22.0,50.0,-4.0,13.0,8.0,2.0,-11.0,-25.0,1650916609174678.0,1
475,12.0,-21.0,39.0,43.0,-8.0,-15.0,-7.0,-11.0,1650916609174678.0,1
476,26.0,13.0,-13.0,-38.0,10.0,6.0,2.0,8.0,1650916609188669.0,1
477,-25.0,0.0,1.0,-18.0,-10.0,-8.0,2.0,10.0,1650916609188669.0,1
478,32.0,46.0,74.0,20.0,12.0,13.0,10.0,14.0,1650916609190666.0,1
479,-22.0,-57.0,-85.0,-22.0,-3.0,-2.0,-2.0,16.0,1650916609190666.0,1
480,-15.0,-5.0,-16.0,-4.0,-3.0,-5.0,-6.0,0.0,1650916609212112.0,1
481,14.0,6.0,54.0,50.0,1.0,-10.0,2.0,4.0,1650916609212112.0,1
482,8.0,-2.0,26.0,-45.0,-1.0,16.0,16.0,68.0,1650916609212957.0,1
483,4.0,-16.0,-20.0,-14.0,-6.0,0.0,9.0,62.0,1650916609212957.0,1
484,-31.0,-15.0,34.0,-16.0,-14.0,-5.0,-10.0,-48.0,1650916609225300.0,1
485,-5.0,8.0,13.0,95.0,23.0,8.0,4.0,7.0,1650916609225300.0,1
486,-10.0,-34.0,-52.0,-108.0,-42.0,-27.0,-10.0,7.0,1650916609234400.0,1
487,23.0,22.0,33.0,112.0,30.0,7.0,8.0,24.0,1650916609234400.0,1
488,-16.0,23.0,4.0,-2.0,6.0,4.0,3.0,10.0,1650916609249083.0,1
489,-14.0,-41.0,5.0,-17.0,-17.0,-10.0,-9.0,-1.0,1650916609249083.0,1
490,-7.0,1.0,-49.0,-49.0,-1.0,-3.0,-3.0,-27.0,1650916609257071.0,1
491,-6.0,9.0,8.0,32.0,-7.0,-10.0,-9.0,-16.0,1650916609257071.0,1
492,-3.0,11.0,20.0,16.0,32.0,15.0,6.0,-8.0,1650916609271346.0,1
493,-3.0,-13.0,-9.0,17.0,-5.0,-3.0,-2.0,2.0,1650916609271346.0,1
494,9.0,0.0,-13.0,-37.0,-1.0,11.0,-3.0,-32.0,1650916609272346.0,1
495,7.0,7.0,-3.0,-28.0,-8.0,-13.0,-13.0,-26.0,1650916609272346.0,1
496,-37.0,-24.0,-37.0,-26.0,-1.0,3.0,7.0,10.0,1650916609285649.0,1
497,16.0,9.0,-20.0,-38.0,3.0,4.0,0.0,15.0,1650916609285649.0,1
498,9.0,2.0,68.0,57.0,5.0,3.0,5.0,-7.0,1650916609294393.0,1
499,-29.0,-28.0,-69.0,-68.0,-18.0,-5.0,-5.0,-5.0,1650916609294393.0,1
500,5.0,-11.0,83.0,32.0,1.0,0.0,-2.0,-39.0,1650916609309508.0,1
501,19.0,6.0,-9.0,-5.0,5.0,-1.0,3.0,37.0,1650916609309508.0,1
502,1.0,4.0,38.0,16.0,-2.0,-7.0,-2.0,19.0,1650916609310410.0,1
503,16.0,23.0,89.0,42.0,21.0,15.0,11.0,-17.0,1650916609310410.0,1
504,-5.0,-11.0,-76.0,-1.0,-10.0,-5.0,0.0,38.0,1650916609331655.0,1
505,33.0,41.0,72.0,37.0,27.0,21.0,12.0,-1.0,1650916609331655.0,1
506,-19.0,-46.0,-46.0,-51.0,-27.0,-20.0,-16.0,-25.0,1650916609332653.0,1
507,-30.0,31.0,79.0,71.0,11.0,2.0,-2.0,-40.0,1650916609332653.0,1
508,23.0,23.0,14.0,-41.0,-8.0,4.0,6.0,33.0,1650916609345860.0,1
509,10.0,-15.0,-5.0,46.0,12.0,2.0,1.0,2.0,1650916609345860.0,1
510,-62.0,-32.0,-110.0,-46.0,-17.0,-14.0,-11.0,-11.0,1650916609353839.0,1
511,12.0,41.0,114.0,84.0,5.0,-2.0,4.0,2.0,1650916609353839.0,1
512,-15.0,-35.0,-60.0,-30.0,-2.0,0.0,-11.0,-21.0,1650916609369915.0,1
513,-8.0,-5.0,-29.0,-99.0,-12.0,18.0,8.0,-17.0,1650916609369915.0,1
514,14.0,-11.0,-57.0,56.0,-1.0,6.0,1.0,10.0,1650916609370203.0,1
515,-12.0,-23.0,-64.0,-42.0,-3.0,-9.0,-10.0,-5.0,1650916609370203.0,1
516,7.0,15.0,-54.0,-34.0,-12.0,-6.0,7.0,38.0,1650916609392135.0,1
517,5.0,11.0,97.0,88.0,16.0,-3.0,0.0,-18.0,1650916609392135.0,1
518,24.0,2.0,-29.0,-46.0,-17.0,-9.0,-3.0,22.0,1650916609393002.0,1
519,-2.0,-15.0,-18.0,13.0,-1.0,-6.0,-5.0,-7.0,1650916609393002.0,1
520,28.0,29.0,49.0,46.0,12.0,-6.0,-1.0,-14.0,1650916609414305.0,1
521,-15.0,-47.0,-114.0,-97.0,-32.0,-16.0,-8.0,21.0,1650916609414305.0,1
522,-27.0,4.0,45.0,24.0,29.0,8.0,1.0,-6.0,1650916609415154.0,1
523,27.0,13.0,0.0,14.0,-16.0,-4.0,1.0,-23.0,1650916609415154.0,1
524,-15.0,4.0,22.0,17.0,12.0,6.0,6.0,25.0,1650916609429739.0,1
525,-27.0,3.0,2.0,-2.0,-8.0,-4.0,-2.0,27.0,1650916609429739.0,1
526,20.0,-51.0,-97.0,-95.0,-28.0,-9.0,2.0,-11.0,1650916609430110.0,1
527,-11.0,-3.0,-3.0,-16.0,11.0,7.0,3.0,34.0,1650916609430110.0,1
528,16.0,68.0,109.0,102.0,24.0,12.0,4.0,-14.0,1650916609451277.0,1
529,-15.0,-32.0,-21.0,1.0,-13.0,-13.0,-8.0,-22.0,1650916609451277.0,1
530,-1.0,2.0,-57.0,-37.0,4.0,9.0,3.0,9.0,1650916609453135.0,1
531,-29.0,-63.0,-89.0,-67.0,-28.0,-12.0,-17.0,-20.0,1650916609453135.0,1
532,48.0,-10.0,30.0,35.0,11.0,-1.0,0.0,-7.0,1650916609474256.0,1
533,12.0,35.0,91.0,61.0,25.0,10.0,5.0,-3.0,1650916609474256.0,1
534,-11.0,2.0,-19.0,-78.0,-27.0,-6.0,-3.0,-5.0,1650916609475089.0,1
535,23.0,40.0,33.0,12.0,-6.0,8.0,9.0,14.0,1650916609475089.0,1
536,-11.0,-13.0,-49.0,-15.0,-10.0,-8.0,2.0,17.0,1650916609489371.0,1
537,6.0,18.0,12.0,21.0,1.0,-6.0,-8.0,-20.0,1650916609489371.0,1
538,7.0,22.0,67.0,60.0,11.0,6.0,6.0,-5.0,1650916609490371.0,1
539,12.0,12.0,16.0,17.0,29.0,16.0,7.0,13.0,1650916609490371.0,1
540,-25.0,0.0,9.0,-19.0,-14.0,-1.0,-5.0,-8.0,1650916609511940.0,1
541,24.0,32.0,75.0,39.0,11.0,5.0,9.0,18.0,1650916609511940.0,1
542,-11.0,-1.0,-25.0,-46.0,-7.0,4.0,10.0,30.0,1650916609512774.0,1
543,11.0,19.0,119.0,105.0,17.0,2.0,-6.0,-23.0,1650916609512774.0,1
544,-18.0,-54.0,-93.0,-26.0,-25.0,-20.0,-14.0,-26.0,1650916609534157.0,1
545,-22.0,2.0,21.0,27.0,1.0,-9.0,-5.0,-8.0,1650916609534157.0,1
546,9.0,-13.0,-30.0,-51.0,-17.0,2.0,1.0,32.0,1650916609535163.0,1
547,11.0,-2.0,-27.0,-7.0,25.0,17.0,9.0,-25.0,1650916609535163.0,1
548,7.0,42.0,115.0,71.0,4.0,3.0,5.0,17.0,1650916609548457.0,1
549,0.0,14.0,12.0,21.0,4.0,-20.0,-22.0,-75.0,1650916609548457.0,1
550,4.0,-16.0,-9.0,-30.0,0.0,10.0,1.0,0.0,1650916609555456.0,1
551,-14.0,44.0,18.0,-20.0,10.0,10.0,16.0,25.0,1650916609555456.0,1
552,6.0,-45.0,-30.0,-44.0,-34.0,-21.0,-15.0,-14.0,1650916609571626.0,1
553,9.0,33.0,56.0,22.0,12.0,4.0,3.0,6.0,1650916609571626.0,1
554,12.0,-7.0,-9.0,45.0,5.0,-19.0,-12.0,-32.0,1650916609572600.0,1
555,-26.0,0.0,-38.0,-80.0,-37.0,-12.0,-8.0,8.0,1650916609572600.0,1
556,2.0,15.0,-15.0,-5.0,23.0,18.0,8.0,14.0,1650916609593879.0,1
557,-9.0,-23.0,-71.0,-52.0,-9.0,1.0,4.0,19.0,1650916609593879.0,1
558,53.0,40.0,127.0,127.0,40.0,17.0,33.0,50.0,1650916609595743.0,1
559,-56.0,-17.0,-35.0,-57.0,-17.0,-10.0,-20.0,-19.0,1650916609595743.0,1
560,6.0,-13.0,13.0,-8.0,-7.0,4.0,9.0,8.0,1650916609608661.0,1
561,-13.0,-6.0,-71.0,-76.0,-15.0,1.0,-6.0,4.0,1650916609608661.0,1
562,-36.0,-47.0,-36.0,-16.0,-3.0,-6.0,-11.0,1.0,1650916609615060.0,1
563,47.0,71.0,105.0,79.0,34.0,9.0,11.0,10.0,1650916609615060.0,1
564,-7.0,-25.0,-79.0,-90.0,-34.0,-23.0,-22.0,-19.0,1650916609631734.0,1
565,1.0,5.0,71.0,57.0,18.0,14.0,10.0,8.0,1650916609631734.0,1
566,-5.0,10.0,-34.0,-57.0,-1.0,5.0,-14.0,-46.0,1650916609632571.0,1
567,-10.0,-27.0,16.0,27.0,-1.0,-4.0,1.0,14.0,1650916609632571.0,1
568,12.0,22.0,47.0,51.0,17.0,14.0,17.0,6.0,1650916609653898.0,1
569,17.0,-22.0,-9.0,1.0,-4.0,2.0,2.0,29.0,1650916609653898.0,1
570,-13.0,-19.0,-72.0,-65.0,-27.0,-22.0,-12.0,4.0,1650916609655763.0,1
571,17.0,6.0,17.0,26.0,0.0,10.0,5.0,-9.0,1650916609655763.0,1
572,-1.0,19.0,31.0,35.0,16.0,10.0,14.0,25.0,1650916609669190.0,1
573,-21.0,-13.0,95.0,95.0,6.0,-3.0,-8.0,-23.0,1650916609669190.0,1
574,-6.0,3.0,26.0,55.0,8.0,-4.0,-7.0,-21.0,1650916609675406.0,1
575,-2.0,8.0,44.0,41.0,13.0,-1.0,0.0,17.0,1650916609675406.0,1
576,7.0,6.0,-42.0,-75.0,-16.0,-12.0,-11.0,-28.0,1650916609692341.0,1
577,4.0,2.0,2.0,11.0,2.0,11.0,12.0,19.0,1650916609692341.0,1
578,5.0,5.0,55.0,18.0,8.0,-3.0,-5.0,-21.0,1650916609693174.0,1
579,5.0,-24.0,-79.0,0.0,2.0,-7.0,-1.0,19.0,1650916609693174.0,1
580,7.0,-30.0,-76.0,-56.0,-19.0,-6.0,-2.0,-3.0,1650916609714113.0,1
581,-40.0,40.0,58.0,85.0,38.0,28.0,14.0,5.0,1650916609714113.0,1
582,-1.0,-4.0,-41.0,-55.0,-31.0,-12.0,-5.0,2.0,1650916609714983.0,1
583,-23.0,-30.0,-40.0,-51.0,-16.0,-8.0,-12.0,-51.0,1650916609714983.0,1
584,6.0,8.0,93.0,98.0,29.0,6.0,12.0,43.0,1650916609728769.0,1
585,12.0,11.0,-5.0,-52.0,-23.0,-18.0,-5.0,-15.0,1650916609728769.0,1
586,3.0,29.0,63.0,76.0,31.0,24.0,13.0,-1.0,1650916609735238.0,1
587,-3.0,-43.0,-77.0,-60.0,-14.0,9.0,6.0,11.0,1650916609735238.0,1
588,-15.0,-16.0,9.0,17.0,-13.0,-9.0,-12.0,-30.0,1650916609751621.0,1
589,-2.0,-13.0,-43.0,-63.0,-15.0,-11.0,-3.0,5.0,1650916609751621.0,1
590,35.0,37.0,61.0,49.0,10.0,-1.0,0.0,11.0,1650916609752585.0,1
591,18.0,-4.0,-30.0,-5.0,-10.0,-8.0,-2.0,16.0,1650916609752585.0,1
592,-18.0,14.0,54.0,66.0,28.0,12.0,4.0,-15.0,1650916609773528.0,1
593,22.0,-31.0,-116.0,-123.0,-20.0,2.0,1.0,10.0,1650916609773528.0,1
594,-7.0,14.0,73.0,86.0,12.0,-3.0,2.0,-8.0,1650916609775556.0,1
595,22.0,18.0,22.0,17.0,6.0,-6.0,-2.0,47.0,1650916609775556.0,1
596,-31.0,-9.0,-22.0,-10.0,-17.0,-7.0,-12.0,-78.0,1650916609788677.0,1
597,3.0,6.0,-28.0,-26.0,-5.0,-1.0,6.0,-43.0,1650916609788677.0,1
598,8.0,6.0,-4.0,29.0,18.0,12.0,8.0,35.0,1650916609795482.0,1
599,18.0,-4.0,52.0,24.0,0.0,-11.0,-1.0,21.0,1650916609795482.0,1
600,-19.0,-67.0,-120.0,-113.0,-12.0,1.0,-5.0,21.0,1650916609812113.0,1
601,1.0,-15.0,-46.0,-40.0,-33.0,-22.0,-19.0,-13.0,1650916609812113.0,1
602,8.0,46.0,91.0,73.0,24.0,17.0,8.0,15.0,1650916609812982.0,1
603,-1.0,-15.0,-40.0,-18.0,3.0,4.0,10.0,6.0,1650916609812982.0,1
604,3.0,21.0,101.0,38.0,15.0,-1.0,-7.0,-22.0,1650916609834285.0,1
605,-12.0,-41.0,-67.0,-96.0,-30.0,15.0,6.0,12.0,1650916609834285.0,1
606,6.0,13.0,63.0,64.0,15.0,-1.0,1.0,-3.0,1650916609835290.0,1
607,-28.0,-60.0,-38.0,-50.0,-18.0,-15.0,-6.0,-14.0,1650916609835290.0,1
608,40.0,31.0,61.0,0.0,-15.0,-8.0,6.0,24.0,1650916609848575.0,1
609,-38.0,-15.0,-42.0,29.0,9.0,-2.0,-14.0,-30.0,1650916609848575.0,1
610,-43.0,-33.0,-20.0,-26.0,-17.0,-17.0,-12.0,-16.0,1650916609855608.0,1
611,34.0,25.0,71.0,43.0,13.0,13.0,17.0,47.0,1650916609855608.0,1
612,-12.0,-17.0,-76.0,-17.0,7.0,5.0,-10.0,-75.0,1650916609871515.0,1
613,33.0,56.0,127.0,51.0,12.0,-2.0,-6.0,-7.0,1650916609871515.0,1
614,-12.0,14.0,49.0,-2.0,-7.0,-2.0,5.0,5.0,1650916609873346.0,1
615,-11.0,-30.0,-96.0,-72.0,-28.0,-16.0,-12.0,-21.0,1650916609873346.0,1
616,26.0,37.0,50.0,51.0,28.0,18.0,18.0,33.0,1650916609894768.0,1
617,-20.0,-54.0,-64.0,-14.0,-3.0,-15.0,-17.0,-7.0,1650916609894768.0,1
618,-24.0,-55.0,-76.0,-65.0,-26.0,-13.0,-19.0,-17.0,1650916609895397.0,1
619,-14.0,17.0,-25.0,-20.0,-6.0,-1.0,16.0,-12.0,1650916609895397.0,1
620,34.0,36.0,46.0,75.0,26.0,16.0,12.0,13.0,1650916609907567.0,1
621,-9.0,9.0,-44.0,-39.0,3.0,-8.0,-8.0,-9.0,1650916609907567.0,1
622,18.0,16.0,80.0,59.0,11.0,18.0,11.0,17.0,1650916609916729.0,1
623,14.0,-9.0,43.0,79.0,9.0,2.0,-11.0,3.0,1650916609916729.0,1
624,-16.0,-27.0,-128.0,-128.0,-72.0,-28.0,-14.0,7.0,1650916609932192.0,1
625,11.0,3.0,25.0,85.0,6.0,-4.0,10.0,36.0,1650916609932192.0,1
626,5.0,-9.0,-66.0,-15.0,-1.0,-5.0,-4.0,-11.0,1650916609933032.0,1
627,9.0,36.0,88.0,68.0,39.0,23.0,9.0,-6.0,1650916609933032.0,1
628,-7.0,26.0,57.0,7.0,14.0,3.0,-3.0,-12.0,1650916609954007.0,1
629,8.0,-20.0,-58.0,-23.0,-23.0,-18.0,-8.0,30.0,1650916609954007.0,1
630,-15.0,-13.0,-59.0,-83.0,-15.0,-8.0,-21.0,-90.0,1650916609955002.0,1
631,-9.0,15.0,67.0,22.0,-3.0,0.0,0.0,-16.0,1650916609955002.0,1
632,14.0,-29.0,-56.0,-32.0,-14.0,-4.0,0.0,-10.0,1650916609966940.0,1
633,-70.0,30.0,86.0,80.0,33.0,17.0,7.0,-23.0,1650916609966940.0,1
634,3.0,-12.0,-44.0,-35.0,-14.0,-15.0,-4.0,36.0,1650916609977027.0,1
635,-19.0,0.0,24.0,-11.0,-14.0,-11.0,-15.0,-59.0,1650916609977027.0,1
636,-9.0,16.0,-3.0,24.0,24.0,19.0,10.0,11.0,1650916609991451.0,1
637,23.0,30.0,33.0,78.0,10.0,5.0,5.0,8.0,1650916609991451.0,1
638,17.0,25.0,34.0,35.0,21.0,8.0,7.0,9.0,1650916609993289.0,1
639,-31.0,-46.0,-80.0,-17.0,-21.0,-18.0,-19.0,-13.0,1650916609993289.0,1
640,-5.0,11.0,83.0,48.0,8.0,7.0,5.0,20.0,1650916610014690.0,1
641,15.0,-23.0,-14.0,-24.0,9.0,10.0,7.0,7.0,1650916610014690.0,1
642,9.0,9.0,23.0,2.0,-5.0,6.0,5.0,11.0,1650916610015454.0,1
643,14.0,35.0,53.0,5.0,-6.0,-1.0,2.0,-1.0,1650916610015454.0,1
644,-7.0,-22.0,-47.0,-45.0,-28.0,-25.0,-16.0,-10.0,1650916610027890.0,1
645,11.0,-7.0,-17.0,-3.0,-7.0,-4.0,0.0,25.0,1650916610027890.0,1
646,-25.0,-16.0,-40.0,9.0,5.0,1.0,2.0,-20.0,1650916610036961.0,1
647,15.0,22.0,52.0,20.0,14.0,9.0,-3.0,-8.0,1650916610036961.0,1
648,-16.0,-10.0,11.0,46.0,17.0,9.0,1.0,-30.0,1650916610050950.0,1
649,33.0,44.0,81.0,8.0,11.0,14.0,16.0,16.0,1650916610050950.0,1
650,-4.0,-17.0,-21.0,-40.0,-16.0,-9.0,2.0,11.0,1650916610052812.0,1
651,-12.0,-14.0,-25.0,4.0,-8.0,-6.0,-7.0,-5.0,1650916610052812.0,1
652,-3.0,4.0,-12.0,-22.0,-3.0,-4.0,-10.0,29.0,1650916610074266.0,1
653,18.0,13.0,75.0,18.0,1.0,-1.0,-4.0,0.0,1650916610074266.0,1
654,6.0,19.0,-2.0,44.0,12.0,14.0,20.0,-3.0,1650916610075180.0,1
655,2.0,-2.0,-30.0,-28.0,-4.0,-2.0,10.0,28.0,1650916610075180.0,1
656,-2.0,-32.0,-49.0,-6.0,13.0,13.0,2.0,13.0,1650916610088336.0,1
657,3.0,1.0,16.0,-15.0,5.0,10.0,3.0,1.0,1650916610088336.0,1
658,11.0,16.0,7.0,-33.0,-15.0,-12.0,-8.0,10.0,1650916610097471.0,1
659,-5.0,-11.0,-21.0,19.0,6.0,1.0,-2.0,1.0,1650916610097471.0,1
660,-2.0,14.0,19.0,-4.0,-5.0,-10.0,2.0,10.0,1650916610111513.0,1
661,4.0,11.0,-15.0,5.0,-1.0,-5.0,-2.0,-8.0,1650916610111513.0,1
662,-11.0,-28.0,-26.0,3.0,-7.0,-4.0,-6.0,-1.0,1650916610112382.0,1
663,7.0,4.0,2.0,-18.0,-3.0,-3.0,0.0,-3.0,1650916610112382.0,1
664,1.0,3.0,-6.0,1.0,-2.0,1.0,-1.0,6.0,1650916610134323.0,1
665,-2.0,-5.0,3.0,-4.0,-2.0,2.0,-2.0,-1.0,1650916610134323.0,1
666,5.0,9.0,16.0,-4.0,-1.0,-4.0,4.0,6.0,1650916610135323.0,1
667,-2.0,-7.0,-11.0,0.0,3.0,3.0,2.0,0.0,1650916610135323.0,1
668,2.0,1.0,3.0,10.0,2.0,2.0,-4.0,6.0,1650916610148235.0,1
669,-3.0,-7.0,-15.0,1.0,1.0,-5.0,8.0,0.0,1650916610148235.0,1
670,-2.0,-4.0,-1.0,-5.0,-12.0,-1.0,-6.0,-2.0,1650916610156217.0,1
671,1.0,9.0,19.0,16.0,19.0,22.0,6.0,2.0,1650916610156217.0,1
672,-1.0,3.0,17.0,29.0,11.0,8.0,7.0,2.0,1650916610171533.0,1
673,-9.0,-22.0,-61.0,-60.0,-31.0,-17.0,-13.0,-9.0,1650916610171533.0,1
674,-2.0,-8.0,-10.0,-1.0,-3.0,-4.0,-6.0,-4.0,1650916610172534.0,1
675,3.0,3.0,-23.0,-25.0,-12.0,-5.0,4.0,3.0,1650916610172534.0,1
676,-3.0,2.0,10.0,4.0,-2.0,-7.0,-9.0,0.0,1650916610194518.0,1
677,2.0,2.0,16.0,24.0,10.0,7.0,6.0,0.0,1650916610194518.0,1
678,-4.0,-4.0,-17.0,-23.0,-6.0,-6.0,-13.0,0.0,1650916610196469.0,1
679,5.0,5.0,7.0,5.0,-7.0,-10.0,6.0,1.0,1650916610196469.0,1
680,-4.0,-1.0,-6.0,-8.0,-9.0,-7.0,-3.0,-2.0,1650916610208011.0,1
681,-2.0,-1.0,2.0,6.0,7.0,10.0,9.0,2.0,1650916610208011.0,1
682,0.0,-4.0,-2.0,8.0,12.0,10.0,3.0,0.0,1650916610216782.0,1
683,-1.0,4.0,-5.0,-2.0,7.0,2.0,-3.0,0.0,1650916610216782.0,1
684,-3.0,-3.0,-5.0,-12.0,-10.0,-9.0,-1.0,-1.0,1650916610232117.0,1
685,-6.0,-12.0,-13.0,-6.0,-12.0,-10.0,-6.0,-3.0,1650916610232117.0,1
686,0.0,0.0,3.0,4.0,9.0,12.0,1.0,1.0,1650916610232961.0,1
687,2.0,7.0,-1.0,2.0,6.0,9.0,1.0,0.0,1650916610232961.0,1
688,4.0,5.0,7.0,1.0,-3.0,-5.0,-3.0,3.0,1650916610254236.0,1
689,0.0,0.0,0.0,-1.0,-7.0,-7.0,-3.0,-3.0,1650916610254236.0,1
690,-2.0,-5.0,-2.0,0.0,-3.0,-8.0,2.0,-2.0,1650916610255073.0,1
691,-1.0,1.0,-1.0,-5.0,-2.0,-2.0,-6.0,-1.0,1650916610255073.0,1
692,-2.0,-4.0,-1.0,2.0,-2.0,1.0,4.0,3.0,1650916610267958.0,1
693,2.0,1.0,-4.0,0.0,4.0,0.0,-5.0,-3.0,1650916610267958.0,1
694,4.0,6.0,-1.0,0.0,2.0,6.0,12.0,4.0,1650916610276936.0,1
695,-5.0,-8.0,-3.0,-2.0,-3.0,-5.0,-10.0,-4.0,1650916610276936.0,1
696,-9.0,-6.0,-5.0,-5.0,-4.0,-6.0,8.0,-1.0,1650916610292242.0,1
697,0.0,1.0,-2.0,-1.0,-1.0,0.0,1.0,0.0,1650916610292242.0,1
698,1.0,-2.0,2.0,5.0,1.0,6.0,4.0,-3.0,1650916610294236.0,1
699,-2.0,3.0,4.0,2.0,-5.0,3.0,-2.0,3.0,1650916610294236.0,1
700,1.0,-1.0,-3.0,-2.0,2.0,-1.0,-1.0,1.0,1650916610315087.0,1
701,0.0,-1.0,-3.0,-2.0,-1.0,-10.0,-11.0,0.0,1650916610315087.0,1
702,-4.0,-5.0,-4.0,-5.0,-7.0,-13.0,-11.0,-7.0,1650916610316364.0,1
703,2.0,1.0,6.0,10.0,2.0,14.0,8.0,3.0,1650916610316364.0,1
704,-2.0,1.0,1.0,-4.0,8.0,10.0,4.0,0.0,1650916610336827.0,1
705,-1.0,1.0,-3.0,-1.0,0.0,1.0,-2.0,-1.0,1650916610336827.0,1
706,1.0,-4.0,-1.0,-1.0,-5.0,-7.0,-1.0,1.0,1650916610337667.0,1
707,-2.0,1.0,2.0,-3.0,-5.0,-14.0,-5.0,-2.0,1650916610337667.0,1
708,4.0,-1.0,-1.0,1.0,0.0,6.0,0.0,2.0,1650916610351414.0,1
709,-2.0,1.0,1.0,-1.0,-3.0,4.0,2.0,1.0,1650916610351414.0,1
710,1.0,-3.0,-2.0,2.0,3.0,1.0,1.0,0.0,1650916610353344.0,1
711,0.0,-3.0,3.0,1.0,1.0,-4.0,-1.0,-1.0,1650916610353344.0,1
712,0.0,1.0,-3.0,2.0,0.0,4.0,3.0,1.0,1650916610373640.0,1
713,-1.0,-3.0,-2.0,-5.0,0.0,0.0,2.0,-1.0,1650916610373640.0,1
714,1.0,-1.0,-1.0,2.0,-1.0,-2.0,-3.0,0.0,1650916610375638.0,1
715,0.0,1.0,-2.0,-3.0,-2.0,-5.0,-3.0,-2.0,1650916610375638.0,1
716,2.0,-1.0,0.0,-3.0,0.0,-3.0,-4.0,0.0,1650916610396936.0,1
717,-2.0,-1.0,-3.0,-2.0,-3.0,-4.0,-5.0,-2.0,1650916610396936.0,1
718,-2.0,-1.0,0.0,-1.0,-16.0,-16.0,4.0,0.0,1650916610397772.0,1
719,-3.0,-3.0,-4.0,0.0,8.0,11.0,-1.0,-1.0,1650916610397772.0,1
720,1.0,2.0,-3.0,1.0,6.0,13.0,4.0,3.0,1650916610412247.0,1
721,2.0,-2.0,9.0,10.0,7.0,10.0,13.0,3.0,1650916610412247.0,1
722,1.0,0.0,0.0,-1.0,-4.0,-5.0,-8.0,-2.0,1650916610413121.0,1
723,-1.0,0.0,-4.0,-5.0,-7.0,-10.0,-6.0,-3.0,1650916610413121.0,1
724,0.0,-2.0,-6.0,-6.0,-3.0,-3.0,-6.0,-1.0,1650916610433400.0,1
725,0.0,0.0,2.0,2.0,1.0,1.0,2.0,-1.0,1650916610433400.0,1
726,0.0,0.0,2.0,-1.0,1.0,-2.0,1.0,0.0,1650916610435394.0,1
727,-1.0,-1.0,0.0,-2.0,-4.0,3.0,2.0,0.0,1650916610435394.0,1
728,-3.0,0.0,-1.0,0.0,-4.0,-4.0,-3.0,-1.0,1650916610456338.0,1
729,1.0,1.0,-5.0,-2.0,3.0,0.0,0.0,-1.0,1650916610456338.0,1
730,0.0,-1.0,3.0,5.0,11.0,7.0,1.0,0.0,1650916610457371.0,1
731,1.0,-1.0,-2.0,-2.0,1.0,-2.0,1.0,-1.0,1650916610457371.0,1
732,0.0,-1.0,-1.0,-2.0,-8.0,-6.0,-5.0,-1.0,1650916610471299.0,1
733,-2.0,-2.0,-5.0,-6.0,-6.0,1.0,0.0,-3.0,1650916610471299.0,1
734,-1.0,0.0,6.0,6.0,4.0,8.0,5.0,2.0,1650916610478313.0,1
735,1.0,1.0,0.0,0.0,0.0,-2.0,-2.0,2.0,1650916610478313.0,1
736,-1.0,0.0,0.0,-1.0,-5.0,-8.0,0.0,-1.0,1650916610493239.0,1
737,-2.0,0.0,-5.0,-4.0,-5.0,-8.0,-8.0,-3.0,1650916610493239.0,1
738,-1.0,-2.0,-4.0,0.0,1.0,1.0,-2.0,-3.0,1650916610494235.0,1
739,0.0,2.0,2.0,1.0,5.0,6.0,-3.0,0.0,1650916610494235.0,1
740,1.0,-2.0,1.0,-2.0,-4.0,-8.0,11.0,1.0,1650916610515342.0,1
741,-4.0,-2.0,-2.0,-4.0,-4.0,-6.0,-5.0,-3.0,1650916610515342.0,1
742,-1.0,-1.0,-1.0,0.0,6.0,15.0,5.0,1.0,1650916610516342.0,1
743,-1.0,0.0,-2.0,2.0,4.0,5.0,1.0,2.0,1650916610516342.0,1
744,0.0,1.0,3.0,6.0,7.0,-3.0,-2.0,-4.0,1650916610538458.0,1
745,0.0,-1.0,0.0,1.0,-3.0,-1.0,0.0,1.0,1650916610538458.0,1
746,-1.0,0.0,-4.0,-2.0,-6.0,-7.0,-2.0,-2.0,1650916610539459.0,1
747,-2.0,-3.0,-6.0,-6.0,-2.0,0.0,-5.0,-3.0,1650916610539459.0,1
748,-1.0,0.0,1.0,-1.0,-3.0,-1.0,3.0,0.0,1650916610552625.0,1
749,0.0,-2.0,2.0,1.0,3.0,-2.0,0.0,2.0,1650916610552625.0,1
750,0.0,-1.0,-1.0,-1.0,-1.0,-1.0,-2.0,-1.0,1650916610553623.0,1
751,0.0,-2.0,0.0,-1.0,-8.0,-8.0,-3.0,-3.0,1650916610553623.0,1
752,-1.0,-1.0,-4.0,-3.0,-2.0,0.0,-7.0,-3.0,1650916610575607.0,1
753,0.0,2.0,3.0,5.0,7.0,13.0,13.0,3.0,1650916610575607.0,1
754,0.0,-1.0,-1.0,1.0,2.0,2.0,-1.0,0.0,1650916610576563.0,1
755,0.0,0.0,-2.0,-2.0,-3.0,-6.0,0.0,-2.0,1650916610576563.0,1
756,-1.0,-2.0,-2.0,-6.0,-9.0,-12.0,-9.0,-3.0,1650916610599269.0,1
757,0.0,-2.0,-3.0,-6.0,0.0,-1.0,-9.0,-4.0,1650916610599269.0,1
758,-1.0,-2.0,-5.0,-4.0,3.0,6.0,3.0,0.0,1650916610599269.0,1
759,0.0,2.0,8.0,8.0,7.0,8.0,12.0,3.0,1650916610599269.0,1
760,-1.0,-1.0,2.0,1.0,12.0,10.0,3.0,1.0,1650916610613547.0,1
761,1.0,-2.0,-2.0,3.0,-4.0,-2.0,-4.0,-1.0,1650916610613547.0,1
762,-2.0,-1.0,-1.0,-4.0,-3.0,-6.0,-6.0,-4.0,1650916610613547.0,1
763,-1.0,-3.0,-4.0,-7.0,-12.0,-16.0,-6.0,-4.0,1650916610613547.0,1
764,1.0,-1.0,-3.0,-2.0,-7.0,-3.0,0.0,1.0,1650916610636178.0,1
765,0.0,0.0,-3.0,-3.0,4.0,3.0,-4.0,-3.0,1650916610636178.0,1
766,-2.0,-2.0,1.0,2.0,-1.0,2.0,-3.0,0.0,1650916610636178.0,1
767,-1.0,0.0,0.0,1.0,-4.0,4.0,8.0,2.0,1650916610636178.0,1
768,1.0,1.0,3.0,1.0,3.0,1.0,-2.0,-2.0,1650916610650289.0,1
769,-1.0,-2.0,-2.0,-3.0,-7.0,-12.0,-15.0,-3.0,1650916610650289.0,1
770,2.0,0.0,1.0,2.0,0.0,1.0,16.0,5.0,1650916610658428.0,1
771,0.0,1.0,1.0,-1.0,5.0,6.0,-3.0,0.0,1650916610658428.0,1
772,0.0,-1.0,1.0,0.0,2.0,7.0,4.0,-1.0,1650916610673535.0,1
773,-1.0,1.0,2.0,3.0,0.0,-1.0,0.0,1.0,1650916610673535.0,1
774,-1.0,-2.0,-4.0,-4.0,-3.0,-10.0,-11.0,-3.0,1650916610673535.0,0
775,0.0,-1.0,-4.0,-5.0,-11.0,-13.0,-6.0,-3.0,1650916610673535.0,0
776,0.0,-2.0,-1.0,-3.0,-3.0,-4.0,3.0,2.0,1650916610695504.0,0
777,-1.0,0.0,2.0,3.0,10.0,6.0,0.0,-2.0,1650916610695504.0,0
778,-1.0,0.0,-3.0,-2.0,0.0,-3.0,-1.0,0.0,1650916610696506.0,0
779,-1.0,-2.0,0.0,1.0,4.0,9.0,6.0,3.0,1650916610696506.0,0
780,-1.0,1.0,-2.0,-2.0,1.0,5.0,-4.0,0.0,1650916610709784.0,0
781,-1.0,-1.0,-1.0,-4.0,-5.0,2.0,6.0,1.0,1650916610709784.0,0
782,0.0,1.0,0.0,0.0,-5.0,5.0,1.0,2.0,1650916610717764.0,0
783,-1.0,-1.0,4.0,5.0,10.0,-2.0,-5.0,-2.0,1650916610717764.0,0
784,0.0,0.0,-2.0,1.0,1.0,-2.0,2.0,1.0,1650916610733052.0,0
785,0.0,1.0,-2.0,-4.0,-9.0,-12.0,-5.0,-1.0,1650916610733052.0,0
786,0.0,0.0,-2.0,0.0,2.0,5.0,1.0,-1.0,1650916610733921.0,0
787,-2.0,-1.0,-3.0,-4.0,-6.0,-2.0,0.0,1.0,1650916610733921.0,0
788,-2.0,0.0,0.0,1.0,2.0,-1.0,-2.0,-3.0,1650916610755893.0,0
789,-3.0,-1.0,0.0,0.0,-4.0,-1.0,3.0,-1.0,1650916610755893.0,0
790,0.0,0.0,2.0,-2.0,0.0,0.0,-4.0,-2.0,1650916610755893.0,0
791,0.0,-1.0,-1.0,1.0,3.0,1.0,2.0,0.0,1650916610755893.0,0
792,0.0,1.0,3.0,5.0,7.0,5.0,5.0,2.0,1650916610770982.0,0
793,0.0,0.0,-3.0,-1.0,1.0,3.0,0.0,-3.0,1650916610770982.0,0
794,-1.0,-1.0,-1.0,-4.0,-8.0,-4.0,-4.0,-3.0,1650916610778960.0,0
795,-3.0,-2.0,-3.0,-5.0,-15.0,-20.0,-5.0,-4.0,1650916610778960.0,0
796,-2.0,-2.0,-1.0,0.0,4.0,12.0,-3.0,-1.0,1650916610792787.0,0
797,1.0,0.0,3.0,3.0,6.0,6.0,4.0,2.0,1650916610792787.0,0
798,-1.0,0.0,4.0,2.0,1.0,-2.0,0.0,1.0,1650916610793759.0,0
799,0.0,0.0,-1.0,2.0,0.0,-2.0,1.0,1.0,1650916610793759.0,0
800,-1.0,-1.0,-1.0,-3.0,-16.0,-20.0,1.0,-2.0,1650916610816439.0,0
801,-3.0,-1.0,-2.0,-1.0,6.0,9.0,5.0,0.0,1650916610816439.0,0
802,1.0,-1.0,-3.0,-2.0,2.0,-1.0,-11.0,-2.0,1650916610816439.0,0
803,1.0,0.0,0.0,1.0,3.0,4.0,14.0,2.0,1650916610816439.0,0
804,0.0,1.0,0.0,-1.0,-1.0,3.0,-3.0,0.0,1650916610830782.0,0
805,0.0,0.0,0.0,-3.0,-4.0,-4.0,-1.0,0.0,1650916610830782.0,0
806,0.0,0.0,-2.0,1.0,-1.0,-3.0,-3.0,-1.0,1650916610838761.0,0
807,-2.0,-1.0,-4.0,-6.0,-2.0,-2.0,-9.0,-3.0,1650916610838761.0,0
808,-1.0,1.0,0.0,-1.0,-1.0,-4.0,-2.0,-1.0,1650916610853870.0,0
809,0.0,-1.0,-2.0,-1.0,2.0,0.0,4.0,2.0,1650916610853870.0,0
810,-1.0,0.0,-2.0,1.0,1.0,5.0,-2.0,0.0,1650916610853870.0,0
811,0.0,-1.0,4.0,1.0,3.0,9.0,3.0,0.0,1650916610853870.0,0
812,2.0,-1.0,-2.0,0.0,-4.0,-8.0,-1.0,-2.0,1650916610876312.0,0
813,0.0,0.0,1.0,0.0,-5.0,-6.0,-5.0,-2.0,1650916610876312.0,0
814,-1.0,-3.0,-3.0,-3.0,-2.0,-3.0,-2.0,-2.0,1650916610876394.0,0
815,1.0,0.0,-2.0,1.0,6.0,5.0,4.0,1.0,1650916610876394.0,0
816,0.0,0.0,-1.0,-1.0,9.0,10.0,-3.0,-1.0,1650916610890446.0,0
817,2.0,0.0,0.0,0.0,-1.0,-4.0,3.0,3.0,1650916610890446.0,0
818,-1.0,0.0,-1.0,-6.0,-7.0,-10.0,1.0,-2.0,1650916610898810.0,0
819,-2.0,-1.0,-2.0,0.0,-5.0,1.0,-2.0,-1.0,1650916610898810.0,0
820,-1.0,-2.0,9.0,6.0,-1.0,-2.0,-1.0,-1.0,1650916610913688.0,0
821,0.0,1.0,-2.0,1.0,5.0,2.0,-1.0,2.0,1650916610913688.0,0
822,2.0,-1.0,1.0,1.0,7.0,5.0,-3.0,-1.0,1650916610913688.0,0
823,-5.0,1.0,-2.0,-1.0,-5.0,-4.0,1.0,0.0,1650916610913688.0,0
824,-2.0,1.0,-4.0,-2.0,-5.0,-3.0,0.0,-2.0,1650916610935357.0,0
825,-4.0,-4.0,-2.0,-1.0,3.0,2.0,0.0,-3.0,1650916610935357.0,0
826,2.0,0.0,1.0,0.0,0.0,-1.0,3.0,0.0,1650916610936357.0,0
827,1.0,-2.0,-2.0,-2.0,-6.0,-4.0,-8.0,-2.0,1650916610936357.0,0
828,0.0,0.0,-3.0,-1.0,3.0,2.0,-1.0,2.0,1650916610950320.0,0
829,0.0,0.0,-1.0,1.0,-6.0,-10.0,0.0,-2.0,1650916610950320.0,0
830,0.0,0.0,1.0,0.0,10.0,12.0,2.0,0.0,1650916610958690.0,0
831,1.0,-1.0,-1.0,-1.0,-5.0,-8.0,-7.0,-2.0,1650916610958690.0,0
832,0.0,0.0,2.0,0.0,-1.0,2.0,8.0,4.0,1650916610972800.0,0
833,1.0,1.0,3.0,4.0,2.0,4.0,-2.0,0.0,1650916610972800.0,0
834,-2.0,0.0,-3.0,-2.0,2.0,-1.0,-11.0,-1.0,1650916610973796.0,0
835,0.0,-2.0,-2.0,0.0,3.0,4.0,18.0,3.0,1650916610973796.0,0
836,-2.0,-1.0,-3.0,-5.0,-7.0,-10.0,-6.0,-2.0,1650916610996241.0,0
837,-2.0,-2.0,-4.0,-4.0,-12.0,-9.0,-7.0,-4.0,1650916610996241.0,0
838,-2.0,-2.0,-2.0,0.0,-2.0,-5.0,1.0,1.0,1650916610996396.0,0
839,0.0,0.0,3.0,3.0,7.0,4.0,-4.0,-1.0,1650916610996396.0,0
840,-1.0,-1.0,-3.0,-3.0,-4.0,-2.0,-3.0,-2.0,1650916611026566.0,0
841,1.0,0.0,1.0,2.0,6.0,7.0,4.0,2.0,1650916611026566.0,0
842,1.0,2.0,3.0,2.0,-3.0,8.0,0.0,0.0,1650916611026566.0,0
843,1.0,0.0,-2.0,-1.0,2.0,1.0,-2.0,0.0,1650916611026566.0,0
844,3.0,0.0,-1.0,0.0,-8.0,-14.0,1.0,0.0,1650916611032578.0,0
845,0.0,0.0,-1.0,-4.0,4.0,3.0,-2.0,-2.0,1650916611032578.0,0
846,-2.0,-1.0,-5.0,-5.0,-10.0,-11.0,-1.0,-1.0,1650916611033552.0,0
847,-2.0,1.0,5.0,3.0,3.0,5.0,-2.0,0.0,1650916611033552.0,0
848,0.0,-1.0,-2.0,-2.0,0.0,3.0,-3.0,-1.0,1650916611055804.0,0
849,-2.0,-2.0,-3.0,-2.0,-1.0,-1.0,0.0,-2.0,1650916611055804.0,0
850,0.0,0.0,1.0,3.0,2.0,0.0,4.0,2.0,1650916611056802.0,0
851,2.0,-1.0,-2.0,-1.0,2.0,0.0,-11.0,-2.0,1650916611056802.0,0
852,-2.0,-1.0,-1.0,-1.0,0.0,0.0,0.0,-2.0,1650916611069553.0,0
853,0.0,0.0,1.0,0.0,0.0,-1.0,3.0,1.0,1650916611069553.0,0
854,-2.0,-1.0,2.0,1.0,-1.0,2.0,4.0,0.0,1650916611078748.0,0
855,1.0,0.0,-1.0,-3.0,-2.0,-4.0,-4.0,-1.0,1650916611078748.0,0
856,2.0,-2.0,-3.0,-4.0,1.0,-1.0,-4.0,-1.0,1650916611094047.0,0
857,5.0,1.0,-1.0,2.0,-1.0,2.0,1.0,0.0,1650916611094047.0,0
858,-6.0,-2.0,1.0,3.0,3.0,0.0,4.0,-1.0,1650916611094047.0,0
859,1.0,2.0,-2.0,-1.0,-2.0,-1.0,-7.0,-1.0,1650916611094047.0,0
860,-1.0,-1.0,1.0,-1.0,-10.0,-15.0,3.0,0.0,1650916611115936.0,0
861,-2.0,-1.0,-1.0,-3.0,2.0,1.0,-5.0,0.0,1650916611115936.0,0
862,0.0,-2.0,-3.0,-2.0,0.0,12.0,14.0,3.0,1650916611116901.0,0
863,2.0,-1.0,4.0,4.0,7.0,8.0,0.0,0.0,1650916611116901.0,0
864,-3.0,0.0,-2.0,0.0,7.0,2.0,0.0,-1.0,1650916611130367.0,0
865,-1.0,-2.0,2.0,2.0,-3.0,-4.0,-2.0,0.0,1650916611130367.0,0
866,-1.0,-2.0,-1.0,-3.0,-5.0,-6.0,-5.0,-2.0,1650916611138539.0,0
867,0.0,0.0,-4.0,-2.0,-3.0,-2.0,-3.0,-3.0,1650916611138539.0,0
868,0.0,0.0,0.0,-2.0,-2.0,5.0,4.0,1.0,1650916611154000.0,0
869,1.0,0.0,-1.0,-4.0,-6.0,-5.0,0.0,-2.0,1650916611154000.0,0
870,2.0,1.0,-1.0,-1.0,-3.0,-6.0,-12.0,-3.0,1650916611154000.0,0
871,-4.0,-1.0,3.0,0.0,-2.0,-8.0,12.0,0.0,1650916611154000.0,0
872,0.0,1.0,0.0,3.0,5.0,7.0,-6.0,-2.0,1650916611176180.0,0
873,-2.0,-1.0,-1.0,1.0,3.0,6.0,4.0,1.0,1650916611176180.0,0
874,1.0,1.0,0.0,2.0,2.0,2.0,0.0,-1.0,1650916611176180.0,0
875,-1.0,-2.0,-1.0,0.0,-2.0,-3.0,-6.0,0.0,1650916611176180.0,0
876,0.0,0.0,0.0,1.0,0.0,-2.0,2.0,0.0,1650916611190306.0,0
877,-2.0,-1.0,-3.0,-4.0,-3.0,1.0,-3.0,-1.0,1650916611190306.0,0
878,-1.0,0.0,1.0,1.0,0.0,-1.0,-3.0,-3.0,1650916611198906.0,0
879,0.0,1.0,-1.0,-2.0,-3.0,-4.0,0.0,-1.0,1650916611198906.0,0
880,-4.0,-2.0,6.0,7.0,9.0,7.0,-1.0,-2.0,1650916611213485.0,0
881,0.0,0.0,-3.0,-3.0,-2.0,-2.0,2.0,0.0,1650916611213485.0,0
882,1.0,1.0,1.0,-2.0,-6.0,-7.0,-7.0,-2.0,1650916611214322.0,0
883,-1.0,-3.0,-3.0,-4.0,-5.0,-3.0,-1.0,1.0,1650916611214322.0,0
884,-2.0,-2.0,-5.0,-6.0,-4.0,2.0,2.0,-1.0,1650916611235611.0,0
885,-2.0,1.0,-1.0,2.0,-4.0,-5.0,-6.0,-4.0,1650916611235611.0,0
886,2.0,2.0,5.0,3.0,4.0,1.0,10.0,4.0,1650916611236611.0,0
887,-1.0,1.0,1.0,0.0,2.0,3.0,-4.0,-2.0,1650916611236611.0,0
888,1.0,-1.0,-3.0,-4.0,-2.0,-4.0,1.0,2.0,1650916611259734.0,0
889,-2.0,-1.0,-3.0,-2.0,-3.0,1.0,-2.0,-1.0,1650916611259734.0,0
890,-2.0,-1.0,-3.0,-4.0,-3.0,-1.0,-4.0,-3.0,1650916611259834.0,0
891,1.0,-1.0,4.0,4.0,1.0,-1.0,2.0,1.0,1650916611259834.0,0
892,1.0,-1.0,0.0,-3.0,-2.0,-5.0,-4.0,-3.0,1650916611272710.0,0
893,-2.0,-2.0,2.0,0.0,-1.0,-2.0,3.0,0.0,1650916611272710.0,0
894,0.0,-1.0,-3.0,-1.0,3.0,4.0,-3.0,-2.0,1650916611273711.0,0
895,1.0,-1.0,0.0,2.0,7.0,4.0,4.0,1.0,1650916611273711.0,0
896,0.0,0.0,2.0,4.0,11.0,16.0,3.0,3.0,1650916611296159.0,0
897,1.0,-1.0,1.0,0.0,-12.0,-13.0,0.0,-1.0,1650916611296159.0,0
898,0.0,-3.0,-4.0,-4.0,-2.0,-4.0,-4.0,-2.0,1650916611296394.0,0
899,-2.0,0.0,-1.0,-2.0,-5.0,-2.0,-2.0,-2.0,1650916611296394.0,0
900,0.0,-1.0,-1.0,-2.0,3.0,3.0,6.0,1.0,1650916611319543.0,0
901,1.0,-2.0,-1.0,-1.0,4.0,1.0,-5.0,0.0,1650916611319543.0,0
902,-1.0,-2.0,1.0,-1.0,-7.0,-13.0,3.0,2.0,1650916611319543.0,0
903,-1.0,0.0,-3.0,-1.0,2.0,5.0,-8.0,-2.0,1650916611319543.0,0
904,-1.0,0.0,-2.0,-3.0,-7.0,2.0,14.0,2.0,1650916611332702.0,0
905,1.0,1.0,2.0,0.0,-6.0,-7.0,-2.0,-2.0,1650916611332702.0,0
906,-2.0,0.0,-2.0,2.0,11.0,7.0,5.0,2.0,1650916611333699.0,0
907,1.0,0.0,1.0,3.0,7.0,4.0,1.0,1.0,1650916611333699.0,0
908,-3.0,0.0,0.0,-2.0,-1.0,-6.0,-11.0,-3.0,1650916611355223.0,0
909,1.0,1.0,0.0,0.0,1.0,2.0,5.0,1.0,1650916611355223.0,0
910,-2.0,0.0,0.0,-1.0,-5.0,-4.0,0.0,-2.0,1650916611356223.0,0
911,-2.0,-1.0,-4.0,-4.0,-2.0,2.0,0.0,-3.0,1650916611356223.0,0
912,2.0,-3.0,5.0,2.0,-6.0,-6.0,-9.0,-1.0,1650916611379733.0,0
913,-2.0,-3.0,-3.0,-2.0,4.0,6.0,3.0,2.0,1650916611379733.0,0
914,1.0,-1.0,3.0,3.0,3.0,6.0,-1.0,-1.0,1650916611379733.0,0
915,-2.0,-1.0,-2.0,-2.0,-5.0,-4.0,-1.0,1.0,1650916611379733.0,0
916,-1.0,0.0,-2.0,-2.0,1.0,-1.0,-5.0,-1.0,1650916611392920.0,0
917,-2.0,-1.0,-3.0,0.0,-2.0,-15.0,-15.0,-6.0,1650916611392920.0,0
918,1.0,-1.0,0.0,-1.0,-3.0,0.0,7.0,2.0,1650916611393882.0,0
919,-3.0,-1.0,-5.0,-9.0,-3.0,8.0,8.0,1.0,1650916611393882.0,0
920,1.0,-1.0,0.0,2.0,-11.0,-6.0,0.0,1.0,1650916611416357.0,0
921,-1.0,1.0,4.0,3.0,12.0,12.0,2.0,1.0,1650916611416357.0,0
922,1.0,2.0,-1.0,3.0,16.0,6.0,-6.0,0.0,1650916611416357.0,0
923,0.0,0.0,5.0,4.0,-3.0,-5.0,-2.0,-2.0,1650916611416357.0,0
924,-1.0,0.0,-4.0,-6.0,-7.0,-7.0,-3.0,0.0,1650916611438533.0,0
925,1.0,-2.0,-3.0,-7.0,-5.0,-2.0,-2.0,0.0,1650916611438533.0,0
926,-3.0,-1.0,-4.0,-4.0,-6.0,-5.0,-3.0,0.0,1650916611439500.0,0
927,-1.0,-3.0,-1.0,0.0,0.0,0.0,2.0,0.0,1650916611439500.0,0
928,1.0,1.0,1.0,1.0,6.0,1.0,-1.0,-2.0,1650916611453663.0,0
929,-1.0,-2.0,0.0,0.0,0.0,2.0,3.0,1.0,1650916611453663.0,0
930,0.0,-1.0,0.0,-3.0,-6.0,0.0,-6.0,-4.0,1650916611453663.0,0
931,2.0,0.0,-2.0,-1.0,-2.0,-8.0,2.0,1.0,1650916611453663.0,0
932,-1.0,1.0,2.0,2.0,6.0,3.0,-8.0,-1.0,1650916611475674.0,0
933,-3.0,0.0,-4.0,-4.0,-3.0,2.0,12.0,2.0,1650916611475674.0,0
934,-1.0,0.0,2.0,2.0,-2.0,0.0,2.0,1.0,1650916611476665.0,0
935,1.0,0.0,3.0,3.0,6.0,1.0,-1.0,1.0,1650916611476665.0,0
936,-1.0,-3.0,-7.0,-8.0,-9.0,-9.0,-2.0,-2.0,1650916611498623.0,0
937,0.0,-1.0,-1.0,-2.0,0.0,1.0,-1.0,-2.0,1650916611498623.0,0
938,1.0,-1.0,-2.0,-2.0,-7.0,-4.0,1.0,1.0,1650916611499579.0,0
939,-3.0,0.0,-1.0,2.0,9.0,8.0,-2.0,-3.0,1650916611499579.0,0
940,-2.0,1.0,-2.0,0.0,2.0,4.0,1.0,-1.0,1650916611513735.0,0
941,1.0,-1.0,0.0,1.0,4.0,8.0,5.0,1.0,1650916611513735.0,0
942,0.0,-2.0,-1.0,-1.0,-9.0,-12.0,-8.0,-2.0,1650916611513735.0,0
943,-1.0,-1.0,0.0,-1.0,-6.0,-3.0,-1.0,0.0,1650916611513735.0,0
944,-2.0,0.0,1.0,1.0,3.0,1.0,2.0,-1.0,1650916611536265.0,0
945,-1.0,1.0,1.0,0.0,-1.0,-4.0,3.0,0.0,1650916611536265.0,0
946,1.0,-1.0,0.0,-1.0,2.0,2.0,4.0,1.0,1650916611536662.0,0
947,-2.0,0.0,-1.0,-3.0,-8.0,-13.0,-8.0,-2.0,1650916611536662.0,0
948,0.0,-1.0,0.0,0.0,-2.0,-1.0,3.0,1.0,1650916611558948.0,0
949,-1.0,-1.0,1.0,3.0,8.0,11.0,2.0,-1.0,1650916611558948.0,0
950,0.0,0.0,0.0,2.0,7.0,8.0,-3.0,0.0,1650916611558948.0,0
951,1.0,-1.0,2.0,1.0,-2.0,0.0,4.0,1.0,1650916611558948.0,0
952,-1.0,0.0,-7.0,-4.0,-4.0,-4.0,-1.0,-2.0,1650916611572747.0,0
953,0.0,0.0,5.0,2.0,-4.0,-9.0,-8.0,-1.0,1650916611572747.0,0
954,0.0,-1.0,0.0,-2.0,-7.0,-10.0,5.0,2.0,1650916611573745.0,0
955,0.0,-1.0,-2.0,-1.0,4.0,2.0,-9.0,-6.0,1650916611573745.0,0
956,-1.0,0.0,3.0,4.0,11.0,15.0,3.0,3.0,1650916611595917.0,0
957,1.0,0.0,-2.0,-1.0,0.0,1.0,1.0,2.0,1650916611595917.0,0
958,-2.0,-2.0,-4.0,-1.0,-3.0,-3.0,0.0,-2.0,1650916611595917.0,0
959,1.0,0.0,-1.0,-1.0,-6.0,-3.0,-1.0,1.0,1650916611595917.0,0
960,3.0,-3.0,0.0,-1.0,1.0,1.0,-2.0,1.0,1650916611618866.0,0
961,-11.0,-2.0,-3.0,-4.0,0.0,-3.0,-4.0,-5.0,1650916611618866.0,0
962,0.0,0.0,0.0,-1.0,-2.0,-5.0,-3.0,0.0,1650916611618866.0,0
963,-1.0,1.0,0.0,-1.0,-1.0,3.0,7.0,1.0,1650916611618866.0,0
964,-1.0,0.0,1.0,3.0,6.0,1.0,-10.0,-2.0,1650916611633047.0,0
965,1.0,-1.0,-2.0,-1.0,-3.0,5.0,16.0,3.0,1650916611633047.0,0
966,-2.0,-1.0,1.0,-3.0,-5.0,-7.0,-11.0,-5.0,1650916611634046.0,0
967,0.0,0.0,0.0,3.0,1.0,1.0,12.0,2.0,1650916611634046.0,0
968,1.0,0.0,4.0,5.0,2.0,3.0,-3.0,-1.0,1650916611656106.0,0
969,3.0,0.0,-2.0,-2.0,-5.0,-3.0,-7.0,-2.0,1650916611656106.0,0
970,-3.0,-3.0,-3.0,-5.0,-4.0,-2.0,0.0,-1.0,1650916611656106.0,0
971,3.0,-2.0,-2.0,-4.0,-5.0,-5.0,-8.0,-6.0,1650916611656106.0,0
972,-8.0,-1.0,-2.0,1.0,14.0,14.0,12.0,3.0,1650916611678682.0,0
973,3.0,0.0,3.0,4.0,4.0,0.0,-2.0,0.0,1650916611678682.0,0
974,1.0,2.0,-1.0,1.0,-1.0,0.0,3.0,-2.0,1650916611678682.0,0
975,-1.0,-1.0,-1.0,-3.0,-4.0,-6.0,-6.0,2.0,1650916611678682.0,0
976,1.0,0.0,-3.0,-7.0,-12.0,-9.0,-2.0,-3.0,1650916611693802.0,0
977,1.0,-2.0,-3.0,0.0,-3.0,-9.0,-6.0,-1.0,1650916611693802.0,0
978,-3.0,0.0,-5.0,-3.0,4.0,12.0,3.0,3.0,1650916611693802.0,0
979,1.0,0.0,1.0,-1.0,1.0,3.0,-3.0,2.0,1650916611693802.0,0
980,0.0,-1.0,-5.0,-5.0,-2.0,-3.0,6.0,0.0,1650916611716391.0,0
981,2.0,3.0,8.0,12.0,8.0,3.0,-3.0,-2.0,1650916611716391.0,0
982,-1.0,-2.0,2.0,2.0,-1.0,4.0,11.0,1.0,1650916611716391.0,0
983,3.0,-2.0,0.0,-1.0,-6.0,-12.0,-4.0,-2.0,1650916611716391.0,0
984,-7.0,-3.0,-5.0,-5.0,-7.0,-5.0,-6.0,-1.0,1650916611738691.0,0
985,5.0,-2.0,-9.0,-7.0,-3.0,-2.0,-1.0,1.0,1650916611738691.0,0
986,2.0,3.0,6.0,9.0,20.0,14.0,3.0,2.0,1650916611738691.0,0
987,-6.0,0.0,-2.0,-4.0,0.0,4.0,-1.0,-3.0,1650916611738691.0,0
988,6.0,1.0,2.0,-1.0,-7.0,-3.0,2.0,3.0,1650916611753795.0,0
989,-1.0,-1.0,2.0,0.0,-6.0,-5.0,-5.0,-4.0,1650916611753795.0,0
990,-1.0,-4.0,-13.0,-14.0,-6.0,-7.0,-2.0,-1.0,1650916611753795.0,0
991,0.0,-3.0,4.0,4.0,3.0,-2.0,1.0,2.0,1650916611753795.0,0
992,-1.0,-2.0,4.0,-5.0,-8.0,-11.0,-5.0,-3.0,1650916611776244.0,0
993,-1.0,1.0,-6.0,-8.0,1.0,8.0,4.0,1.0,1650916611776244.0,0
994,4.0,0.0,-3.0,-1.0,4.0,0.0,0.0,0.0,1650916611776394.0,0
995,-1.0,1.0,5.0,5.0,2.0,5.0,-4.0,-4.0,1650916611776394.0,0
996,-4.0,-1.0,-1.0,5.0,2.0,0.0,2.0,6.0,1650916611798979.0,0
997,1.0,2.0,1.0,-2.0,-2.0,-9.0,-4.0,-2.0,1650916611798979.0,0
998,4.0,-2.0,0.0,3.0,-4.0,0.0,-2.0,0.0,1650916611798979.0,0
999,-7.0,-2.0,-4.0,-4.0,-2.0,-2.0,3.0,-7.0,1650916611798979.0,0
1000,5.0,3.0,1.0,1.0,5.0,3.0,-3.0,-3.0,1650916611821898.0,0
1001,-9.0,-2.0,3.0,2.0,5.0,3.0,-2.0,3.0,1650916611821898.0,0
1002,7.0,1.0,0.0,3.0,-2.0,-3.0,-1.0,1.0,1650916611821898.0,0
1003,-12.0,-6.0,-4.0,-2.0,-7.0,1.0,-1.0,-2.0,1650916611821898.0,0
1004,1.0,-2.0,2.0,0.0,-2.0,-5.0,0.0,-1.0,1650916611836268.0,0
1005,0.0,-1.0,-9.0,-6.0,0.0,3.0,0.0,-2.0,1650916611836268.0,0
1006,-12.0,0.0,18.0,10.0,-1.0,-6.0,-4.0,-2.0,1650916611836394.0,0
1007,13.0,4.0,-5.0,-3.0,2.0,5.0,-2.0,4.0,1650916611836394.0,0
1008,-5.0,-13.0,-14.0,-6.0,-7.0,-1.0,1.0,-2.0,1650916611858610.0,0
1009,-3.0,1.0,3.0,0.0,1.0,1.0,-3.0,1.0,1650916611858610.0,0
1010,-2.0,0.0,0.0,2.0,1.0,0.0,3.0,1.0,1650916611858762.0,0
1011,0.0,0.0,2.0,7.0,4.0,1.0,0.0,1.0,1650916611858762.0,0
1012,1.0,2.0,-10.0,-13.0,-4.0,-3.0,0.0,-5.0,1650916611873078.0,0
1013,2.0,-2.0,14.0,8.0,-3.0,-1.0,1.0,3.0,1650916611873078.0,0
1014,-2.0,-3.0,-4.0,-3.0,-8.0,-3.0,-4.0,-4.0,1650916611881230.0,0
1015,0.0,0.0,0.0,-4.0,5.0,1.0,-4.0,0.0,1650916611881230.0,0
1016,1.0,2.0,4.0,11.0,10.0,5.0,3.0,1.0,1650916611896585.0,0
1017,1.0,5.0,5.0,2.0,6.0,9.0,6.0,2.0,1650916611896585.0,0
1018,-1.0,4.0,0.0,-4.0,-1.0,3.0,-1.0,2.0,1650916611896767.0,0
1019,3.0,3.0,2.0,-1.0,-8.0,-8.0,0.0,4.0,1650916611896767.0,0
1020,0.0,-4.0,8.0,6.0,-4.0,-1.0,-3.0,3.0,1650916611918570.0,0
1021,10.0,6.0,4.0,0.0,-2.0,-3.0,-2.0,0.0,1650916611918570.0,0
1022,-8.0,-10.0,-10.0,-2.0,-1.0,-2.0,1.0,10.0,1650916611918570.0,0
1023,-1.0,-6.0,-23.0,-10.0,1.0,2.0,2.0,-4.0,1650916611918570.0,0
1024,7.0,10.0,13.0,7.0,1.0,-6.0,-2.0,-6.0,1650916611932908.0,0
1025,-1.0,-6.0,-5.0,-1.0,-3.0,-6.0,-4.0,-16.0,1650916611932908.0,0
1026,8.0,11.0,17.0,1.0,1.0,10.0,6.0,27.0,1650916611948971.0,0
1027,-7.0,-18.0,-20.0,-4.0,2.0,1.0,0.0,-5.0,1650916611948971.0,0
1028,-2.0,9.0,32.0,15.0,3.0,3.0,0.0,22.0,1650916611955351.0,0
1029,21.0,-7.0,-33.0,-12.0,-14.0,-12.0,-3.0,-32.0,1650916611955351.0,0
1030,-13.0,-6.0,-1.0,4.0,9.0,-2.0,-11.0,-14.0,1650916611956172.0,0
1031,17.0,13.0,8.0,-11.0,0.0,5.0,6.0,14.0,1650916611956172.0,0
1032,0.0,-7.0,17.0,30.0,12.0,9.0,4.0,-3.0,1650916611995516.0,0
1033,-9.0,-8.0,-16.0,-25.0,-14.0,-1.0,1.0,19.0,1650916611995516.0,0
1034,9.0,-2.0,-9.0,-12.0,0.0,-3.0,-1.0,-10.0,1650916611995516.0,0
1035,-11.0,2.0,-4.0,9.0,-10.0,-10.0,-6.0,-1.0,1650916611995516.0,0
1036,0.0,-9.0,7.0,9.0,-1.0,-2.0,-2.0,-1.0,1650916611996516.0,2
1037,-14.0,21.0,64.0,46.0,12.0,-1.0,3.0,22.0,1650916611996516.0,2
1038,24.0,-4.0,2.0,17.0,-1.0,1.0,2.0,-13.0,1650916612000506.0,2
1039,-16.0,-33.0,-62.0,-59.0,-7.0,-3.0,-5.0,-6.0,1650916612000506.0,2
1040,24.0,13.0,24.0,-1.0,-4.0,1.0,1.0,6.0,1650916612015810.0,2
1041,-41.0,-17.0,-24.0,-7.0,-8.0,-9.0,-3.0,-9.0,1650916612015810.0,2
1042,-8.0,30.0,77.0,47.0,13.0,7.0,-3.0,-31.0,1650916612016676.0,2
1043,-4.0,-5.0,-25.0,-7.0,0.0,3.0,-1.0,0.0,1650916612016676.0,2
1044,5.0,18.0,37.0,1.0,1.0,7.0,-6.0,-49.0,1650916612038723.0,2
1045,-35.0,-42.0,-50.0,-32.0,-18.0,-15.0,-6.0,24.0,1650916612038723.0,2
1046,-1.0,0.0,-42.0,-15.0,-2.0,-5.0,1.0,-5.0,1650916612038723.0,2
1047,9.0,12.0,43.0,28.0,4.0,1.0,1.0,-6.0,1650916612038723.0,2
1048,-16.0,-8.0,-64.0,-35.0,-8.0,-5.0,-7.0,1.0,1650916612053051.0,2
1049,28.0,10.0,71.0,41.0,35.0,23.0,15.0,20.0,1650916612053051.0,2
1050,-15.0,-33.0,-75.0,-39.0,-18.0,-11.0,-2.0,12.0,1650916612061057.0,2
1051,-3.0,14.0,52.0,10.0,-6.0,-1.0,-4.0,-20.0,1650916612061057.0,2
1052,13.0,-4.0,-11.0,-11.0,-1.0,2.0,2.0,13.0,1650916612076538.0,2
1053,14.0,13.0,-16.0,-8.0,3.0,9.0,4.0,11.0,1650916612076538.0,2
1054,-2.0,4.0,35.0,23.0,7.0,2.0,-4.0,-22.0,1650916612076538.0,2
1055,18.0,20.0,92.0,34.0,11.0,3.0,14.0,31.0,1650916612076538.0,2
1056,-33.0,-13.0,-40.0,-11.0,-7.0,-8.0,2.0,19.0,1650916612098961.0,2
1057,3.0,-16.0,-71.0,-58.0,-23.0,-18.0,-14.0,-21.0,1650916612098961.0,2
1058,-6.0,-16.0,-20.0,-31.0,-5.0,-3.0,-5.0,-5.0,1650916612098961.0,2
1059,4.0,18.0,21.0,24.0,5.0,3.0,3.0,18.0,1650916612098961.0,2
1060,23.0,8.0,12.0,2.0,11.0,10.0,8.0,11.0,1650916612113544.0,2
1061,-3.0,9.0,20.0,-4.0,4.0,2.0,0.0,-12.0,1650916612113544.0,2
1062,-2.0,-11.0,-28.0,8.0,-13.0,-2.0,-1.0,12.0,1650916612121712.0,2
1063,7.0,30.0,-48.0,-67.0,-11.0,-1.0,-5.0,-7.0,1650916612121712.0,2
1064,-10.0,-21.0,4.0,25.0,13.0,4.0,7.0,42.0,1650916612135760.0,2
1065,21.0,32.0,72.0,53.0,16.0,6.0,5.0,-34.0,1650916612135760.0,2
1066,1.0,-15.0,18.0,-7.0,-12.0,-15.0,-8.0,-1.0,1650916612136760.0,2
1067,-9.0,-4.0,4.0,11.0,-3.0,-4.0,-4.0,-10.0,1650916612136760.0,2
1068,2.0,8.0,27.0,25.0,12.0,7.0,4.0,9.0,1650916612158951.0,2
1069,-2.0,-13.0,-23.0,-31.0,-15.0,-4.0,-8.0,4.0,1650916612158951.0,2
1070,4.0,37.0,87.0,63.0,18.0,4.0,6.0,0.0,1650916612158951.0,2
1071,-15.0,-27.0,-71.0,-38.0,-3.0,0.0,3.0,17.0,1650916612158951.0,2
1072,10.0,-20.0,-10.0,17.0,-10.0,-16.0,-16.0,-20.0,1650916612172865.0,2
1073,-8.0,11.0,63.0,9.0,5.0,6.0,8.0,4.0,1650916612172865.0,2
1074,25.0,-5.0,-23.0,-29.0,-1.0,11.0,2.0,8.0,1650916612181047.0,2
1075,0.0,2.0,53.0,38.0,9.0,1.0,2.0,14.0,1650916612181047.0,2
1076,-7.0,-2.0,-10.0,-26.0,2.0,4.0,-2.0,-2.0,1650916612196516.0,2
1077,15.0,-7.0,-24.0,12.0,3.0,4.0,1.0,-4.0,1650916612196516.0,2
1078,3.0,25.0,-15.0,-2.0,4.0,2.0,9.0,17.0,1650916612196516.0,2
1079,-6.0,19.0,103.0,39.0,-1.0,-10.0,-8.0,-22.0,1650916612196516.0,2
1080,-13.0,-66.0,-121.0,-46.0,-29.0,-23.0,-10.0,-21.0,1650916612218765.0,2
1081,-2.0,7.0,9.0,-38.0,-3.0,6.0,-1.0,7.0,1650916612218765.0,2
1082,-6.0,-7.0,5.0,-31.0,-1.0,8.0,12.0,50.0,1650916612218765.0,2
1083,28.0,-10.0,-49.0,6.0,10.0,13.0,5.0,-12.0,1650916612218765.0,2
1084,0.0,38.0,70.0,-2.0,11.0,6.0,1.0,-11.0,1650916612242282.0,2
1085,-6.0,-3.0,-29.0,-21.0,-11.0,-8.0,-4.0,10.0,1650916612242282.0,2
1086,-37.0,-58.0,-88.0,-61.0,-31.0,-22.0,-17.0,-30.0,1650916612242282.0,2
1087,-12.0,-6.0,-14.0,4.0,-4.0,-11.0,-8.0,-8.0,1650916612242282.0,2
1088,22.0,41.0,69.0,15.0,1.0,-1.0,4.0,9.0,1650916612256480.0,2
1089,-10.0,-21.0,-5.0,11.0,10.0,7.0,12.0,38.0,1650916612256480.0,2
1090,29.0,19.0,-25.0,-26.0,3.0,1.0,2.0,5.0,1650916612263576.0,2
1091,16.0,21.0,73.0,46.0,4.0,0.0,1.0,11.0,1650916612263576.0,2
1092,-28.0,-25.0,-45.0,-4.0,-16.0,-8.0,-11.0,-38.0,1650916612280507.0,2
1093,-6.0,0.0,37.0,33.0,13.0,3.0,1.0,-7.0,1650916612280507.0,2
1094,4.0,-7.0,34.0,9.0,0.0,-1.0,0.0,10.0,1650916612280507.0,2
1095,2.0,-9.0,27.0,68.0,13.0,-2.0,-2.0,-3.0,1650916612280507.0,2
1096,9.0,18.0,-4.0,-39.0,-6.0,3.0,9.0,18.0,1650916612302502.0,2
1097,4.0,23.0,63.0,54.0,21.0,7.0,3.0,-10.0,1650916612302502.0,2
1098,-20.0,-30.0,-69.0,-71.0,-25.0,-9.0,-7.0,-4.0,1650916612302502.0,2
1099,12.0,11.0,69.0,68.0,11.0,7.0,4.0,-8.0,1650916612302502.0,2
1100,-15.0,-1.0,15.0,-6.0,-29.0,-23.0,-6.0,5.0,1650916612315529.0,2
1101,17.0,-3.0,16.0,14.0,-10.0,-7.0,-13.0,-29.0,1650916612315529.0,2
1102,-7.0,-2.0,20.0,33.0,25.0,13.0,3.0,-12.0,1650916612316529.0,2
1103,28.0,57.0,42.0,-11.0,19.0,14.0,12.0,31.0,1650916612316529.0,2
1104,-44.0,-81.0,-127.0,-87.0,-11.0,7.0,-7.0,-29.0,1650916612338727.0,2
1105,6.0,21.0,72.0,21.0,5.0,-2.0,6.0,6.0,1650916612338727.0,2
1106,-14.0,-14.0,74.0,47.0,0.0,-13.0,-10.0,-6.0,1650916612338727.0,2
1107,-13.0,-41.0,-128.0,-128.0,-51.0,-27.0,-22.0,-18.0,1650916612338727.0,2
1108,13.0,-2.0,-21.0,12.0,9.0,1.0,3.0,4.0,1650916612362212.0,2
1109,11.0,26.0,18.0,35.0,-1.0,-2.0,-2.0,1.0,1650916612362212.0,2
1110,0.0,16.0,27.0,-1.0,1.0,10.0,7.0,0.0,1650916612362212.0,2
1111,-11.0,-50.0,-90.0,-62.0,-13.0,-12.0,-7.0,3.0,1650916612362212.0,2
1112,19.0,49.0,116.0,76.0,28.0,14.0,8.0,12.0,1650916612376165.0,2
1113,2.0,-25.0,-3.0,4.0,-16.0,-18.0,-12.0,-12.0,1650916612376165.0,2
1114,21.0,43.0,44.0,48.0,11.0,14.0,12.0,21.0,1650916612376165.0,2
1115,-15.0,-21.0,-19.0,0.0,20.0,12.0,0.0,-33.0,1650916612376165.0,2
1116,2.0,31.0,51.0,46.0,10.0,0.0,3.0,5.0,1650916612398878.0,2
1117,-11.0,-2.0,-25.0,-20.0,14.0,10.0,5.0,-5.0,1650916612398878.0,2
1118,9.0,5.0,-46.0,-13.0,-3.0,-1.0,-2.0,2.0,1650916612398878.0,2
1119,-15.0,-18.0,0.0,1.0,-12.0,-6.0,-2.0,-9.0,1650916612398878.0,2
1120,-4.0,-1.0,8.0,15.0,-4.0,-6.0,-6.0,-12.0,1650916612422407.0,2
1121,-1.0,0.0,-18.0,17.0,6.0,1.0,2.0,18.0,1650916612422407.0,2
1122,17.0,1.0,39.0,37.0,7.0,-3.0,-7.0,-7.0,1650916612422407.0,2
1123,-10.0,-31.0,-104.0,-42.0,-18.0,-17.0,2.0,2.0,1650916612422407.0,2
1124,8.0,24.0,55.0,-24.0,-2.0,9.0,-3.0,-2.0,1650916612435595.0,2
1125,0.0,4.0,-47.0,35.0,24.0,19.0,4.0,8.0,1650916612435595.0,2
1126,-7.0,-26.0,-74.0,-52.0,-16.0,-12.0,-6.0,-1.0,1650916612436562.0,2
1127,2.0,45.0,127.0,114.0,33.0,17.0,11.0,-8.0,1650916612436562.0,2
1128,-14.0,-78.0,-125.0,-111.0,-38.0,-20.0,-14.0,13.0,1650916612458728.0,2
1129,-10.0,8.0,40.0,4.0,-5.0,-3.0,0.0,-29.0,1650916612458728.0,2
1130,14.0,18.0,50.0,39.0,4.0,2.0,3.0,-2.0,1650916612458728.0,2
1131,-14.0,-24.0,-81.0,-102.0,-34.0,-18.0,-9.0,13.0,1650916612458728.0,2
1132,12.0,27.0,114.0,113.0,31.0,16.0,11.0,7.0,1650916612481203.0,2
1133,-1.0,-11.0,-31.0,-35.0,-7.0,1.0,-3.0,2.0,1650916612481203.0,2
1134,2.0,9.0,19.0,10.0,11.0,12.0,8.0,9.0,1650916612482225.0,2
1135,-1.0,18.0,38.0,19.0,3.0,7.0,3.0,-2.0,1650916612482225.0,2
1136,9.0,-15.0,-51.0,-15.0,-8.0,-4.0,0.0,-8.0,1650916612495345.0,2
1137,16.0,25.0,39.0,-8.0,-2.0,-5.0,-2.0,17.0,1650916612495345.0,2
1138,-24.0,-37.0,-64.0,-26.0,-33.0,-26.0,-18.0,-41.0,1650916612496307.0,2
1139,-11.0,15.0,26.0,-24.0,5.0,4.0,3.0,15.0,1650916612496307.0,2
1140,-8.0,18.0,44.0,13.0,6.0,2.0,3.0,0.0,1650916612518922.0,2
1141,-20.0,-30.0,-49.0,1.0,-5.0,-9.0,-12.0,-8.0,1650916612518922.0,2
1142,8.0,29.0,37.0,3.0,12.0,12.0,16.0,32.0,1650916612518922.0,2
1143,6.0,8.0,28.0,45.0,5.0,6.0,-6.0,-20.0,1650916612518922.0,2
1144,9.0,3.0,27.0,-22.0,-1.0,5.0,-2.0,-17.0,1650916612541472.0,2
1145,0.0,10.0,-12.0,30.0,15.0,4.0,4.0,12.0,1650916612541472.0,2
1146,-5.0,22.0,57.0,9.0,-11.0,-6.0,7.0,23.0,1650916612542437.0,2
1147,6.0,-19.0,-6.0,12.0,2.0,0.0,-5.0,-12.0,1650916612542437.0,2
1148,-5.0,6.0,4.0,26.0,13.0,9.0,13.0,7.0,1650916612555990.0,2
1149,16.0,33.0,89.0,52.0,19.0,8.0,1.0,0.0,1650916612555990.0,2
1150,-3.0,-42.0,-117.0,-95.0,-28.0,-16.0,-13.0,5.0,1650916612555990.0,2
1151,8.0,16.0,45.0,13.0,-5.0,-3.0,1.0,12.0,1650916612555990.0,2
1152,4.0,27.0,36.0,36.0,4.0,1.0,-1.0,-1.0,1650916612579225.0,2
1153,1.0,-8.0,25.0,22.0,0.0,2.0,3.0,-1.0,1650916612579225.0,2
1154,-8.0,-1.0,-25.0,-39.0,5.0,-3.0,-6.0,-14.0,1650916612579225.0,2
1155,-21.0,-21.0,-16.0,1.0,-10.0,-10.0,-8.0,2.0,1650916612579225.0,2
1156,-3.0,7.0,-17.0,-42.0,-15.0,0.0,-3.0,-21.0,1650916612601323.0,2
1157,16.0,4.0,32.0,-16.0,-1.0,2.0,2.0,4.0,1650916612601323.0,2
1158,-8.0,-5.0,-57.0,-35.0,-15.0,-6.0,-4.0,-2.0,1650916612602167.0,2
1159,2.0,26.0,60.0,48.0,9.0,-10.0,-8.0,-13.0,1650916612602167.0,2
1160,-16.0,6.0,-36.0,4.0,0.0,-6.0,-5.0,-3.0,1650916612616260.0,2
1161,-18.0,-3.0,21.0,-16.0,-14.0,-10.0,-9.0,-22.0,1650916612616260.0,2
1162,7.0,2.0,-34.0,-31.0,2.0,10.0,2.0,-5.0,1650916612616260.0,2
1163,16.0,11.0,42.0,22.0,14.0,14.0,11.0,30.0,1650916612616260.0,2
1164,-9.0,-18.0,-40.0,-7.0,-9.0,-13.0,-11.0,-10.0,1650916612638294.0,2
1165,-15.0,-14.0,-65.0,-62.0,-20.0,-7.0,4.0,1.0,1650916612638294.0,2
1166,10.0,19.0,100.0,80.0,15.0,5.0,3.0,5.0,1650916612639292.0,2
1167,36.0,19.0,6.0,18.0,19.0,14.0,8.0,4.0,1650916612639292.0,2
1168,-22.0,-23.0,-28.0,-10.0,-2.0,-5.0,-3.0,-9.0,1650916612661852.0,2
1169,7.0,-14.0,-28.0,-20.0,-15.0,-9.0,-7.0,-14.0,1650916612661852.0,2
1170,1.0,10.0,71.0,41.0,9.0,1.0,-1.0,-15.0,1650916612661852.0,2
1171,-22.0,-31.0,-89.0,-83.0,-7.0,-1.0,1.0,15.0,1650916612661852.0,2
1172,19.0,14.0,38.0,26.0,1.0,-4.0,-14.0,-24.0,1650916612675881.0,2
1173,-17.0,-35.0,-81.0,-73.0,-20.0,-3.0,5.0,-5.0,1650916612675881.0,2
1174,24.0,32.0,122.0,64.0,26.0,15.0,5.0,-3.0,1650916612676715.0,2
1175,-5.0,-26.0,-52.0,-33.0,-17.0,-7.0,-1.0,29.0,1650916612676715.0,2
1176,-3.0,18.0,6.0,7.0,-5.0,-8.0,-3.0,-13.0,1650916612698720.0,2
1177,-7.0,-3.0,-15.0,-27.0,-21.0,-14.0,-4.0,20.0,1650916612698720.0,2
1178,4.0,0.0,11.0,32.0,8.0,-1.0,-7.0,-3.0,1650916612698720.0,2
1179,-27.0,7.0,56.0,14.0,19.0,17.0,18.0,6.0,1650916612698720.0,2
1180,11.0,-22.0,-32.0,25.0,4.0,3.0,3.0,15.0,1650916612721337.0,2
1181,16.0,21.0,-5.0,4.0,-7.0,-8.0,1.0,18.0,1650916612721337.0,2
1182,8.0,-1.0,0.0,9.0,9.0,6.0,1.0,-11.0,1650916612722175.0,2
1183,-7.0,-18.0,-36.0,-12.0,-13.0,-7.0,-4.0,0.0,1650916612722175.0,2
1184,12.0,2.0,29.0,4.0,5.0,5.0,4.0,6.0,1650916612736289.0,2
1185,-1.0,20.0,55.0,28.0,11.0,10.0,12.0,19.0,1650916612736289.0,2
1186,-4.0,7.0,31.0,-6.0,-25.0,-25.0,-18.0,-23.0,1650916612736289.0,2
1187,-8.0,-29.0,-27.0,-24.0,-3.0,-4.0,-9.0,-22.0,1650916612736289.0,2
1188,-2.0,14.0,32.0,4.0,3.0,13.0,13.0,28.0,1650916612758483.0,2
1189,16.0,10.0,-2.0,38.0,23.0,23.0,10.0,10.0,1650916612758483.0,2
1190,-9.0,-4.0,-42.0,-57.0,-1.0,8.0,9.0,3.0,1650916612758483.0,2
1191,-9.0,-8.0,-39.0,-12.0,-12.0,-15.0,-19.0,-52.0,1650916612758483.0,2
1192,15.0,10.0,52.0,1.0,-1.0,-7.0,-1.0,10.0,1650916612782002.0,2
1193,-16.0,-7.0,-76.0,-68.0,-24.0,-11.0,-9.0,-17.0,1650916612782002.0,2
1194,-3.0,-6.0,23.0,29.0,6.0,-1.0,5.0,9.0,1650916612782002.0,2
1195,-1.0,-26.0,-51.0,-16.0,-6.0,-4.0,3.0,12.0,1650916612782002.0,2
1196,-21.0,26.0,28.0,-13.0,-2.0,3.0,1.0,17.0,1650916612795948.0,2
1197,5.0,-20.0,-28.0,-6.0,-2.0,-4.0,-11.0,-12.0,1650916612795948.0,2
1198,-19.0,-21.0,14.0,16.0,-3.0,1.0,4.0,-4.0,1650916612795948.0,2
1199,16.0,36.0,97.0,53.0,26.0,13.0,7.0,4.0,1650916612795948.0,2
1200,-4.0,-9.0,-30.0,-26.0,-12.0,-4.0,-12.0,-12.0,1650916612817920.0,2
1201,-16.0,-65.0,-78.0,-24.0,-10.0,-7.0,-10.0,-10.0,1650916612817920.0,2
1202,7.0,36.0,55.0,32.0,15.0,17.0,25.0,19.0,1650916612818921.0,2
1203,2.0,-3.0,31.0,36.0,3.0,-8.0,-7.0,-10.0,1650916612818921.0,2
1204,1.0,-28.0,-76.0,-54.0,-22.0,-10.0,-11.0,1.0,1650916612840911.0,2
1205,-5.0,23.0,87.0,42.0,15.0,14.0,4.0,-21.0,1650916612840911.0,2
1206,-5.0,-4.0,-49.0,-10.0,6.0,4.0,-3.0,7.0,1650916612841877.0,2
1207,-2.0,5.0,-32.0,-41.0,-26.0,-16.0,-1.0,11.0,1650916612841877.0,2
1208,29.0,16.0,30.0,20.0,23.0,18.0,12.0,14.0,1650916612855006.0,2
1209,-7.0,-32.0,-65.0,-73.0,-31.0,-26.0,-17.0,-4.0,1650916612855006.0,2
1210,2.0,10.0,53.0,56.0,18.0,5.0,4.0,19.0,1650916612870937.0,2
1211,-13.0,-43.0,-101.0,-105.0,-39.0,-16.0,-15.0,-49.0,1650916612870937.0,2
1212,-20.0,18.0,68.0,61.0,12.0,-2.0,3.0,-2.0,1650916612879142.0,2
1213,27.0,15.0,46.0,28.0,12.0,11.0,7.0,22.0,1650916612879142.0,2
1214,4.0,-22.0,-22.0,1.0,2.0,-1.0,-7.0,-19.0,1650916612879142.0,2
1215,6.0,29.0,59.0,5.0,0.0,0.0,1.0,7.0,1650916612879142.0,2
1216,14.0,10.0,17.0,17.0,14.0,12.0,14.0,8.0,1650916612900115.0,2
1217,-35.0,-10.0,-6.0,2.0,6.0,5.0,6.0,-2.0,1650916612900115.0,2
1218,-12.0,-19.0,-54.0,-30.0,-19.0,-14.0,-18.0,-30.0,1650916612908258.0,2
1219,15.0,16.0,59.0,36.0,7.0,7.0,9.0,20.0,1650916612908258.0,2
1220,-5.0,-7.0,46.0,28.0,8.0,-3.0,-1.0,-7.0,1650916612915243.0,2
1221,-1.0,-1.0,-60.0,-42.0,-19.0,-7.0,-8.0,-18.0,1650916612915243.0,2
1222,6.0,12.0,51.0,40.0,23.0,9.0,6.0,14.0,1650916612923287.0,2
1223,-2.0,3.0,29.0,4.0,2.0,7.0,-3.0,2.0,1650916612923287.0,2
1224,-25.0,-70.0,-114.0,-73.0,-22.0,-13.0,-8.0,-11.0,1650916612938611.0,2
1225,20.0,19.0,116.0,102.0,21.0,8.0,4.0,-9.0,1650916612938611.0,2
1226,-6.0,-17.0,-17.0,-28.0,-6.0,-8.0,-2.0,6.0,1650916612938611.0,2
1227,-7.0,-18.0,-77.0,-72.0,-21.0,-4.0,-5.0,-14.0,1650916612938611.0,2
1228,10.0,26.0,77.0,43.0,16.0,14.0,11.0,20.0,1650916612960773.0,2
1229,-15.0,-20.0,-71.0,-10.0,-11.0,-9.0,-7.0,3.0,1650916612960773.0,2
1230,9.0,-5.0,-40.0,-20.0,-11.0,-8.0,4.0,8.0,1650916612961775.0,2
1231,18.0,44.0,88.0,83.0,27.0,12.0,8.0,-10.0,1650916612961775.0,2
1232,-2.0,-14.0,-28.0,-36.0,-14.0,-13.0,-8.0,-2.0,1650916612975112.0,2
1233,14.0,28.0,42.0,9.0,12.0,9.0,15.0,37.0,1650916612975112.0,2
1234,-7.0,-15.0,-81.0,-36.0,-19.0,-9.0,-9.0,-13.0,1650916612983066.0,2
1235,-7.0,-7.0,-9.0,15.0,2.0,-1.0,2.0,-4.0,1650916612983066.0,2
1236,33.0,23.0,55.0,55.0,16.0,14.0,7.0,21.0,1650916612998664.0,2
1237,-4.0,-39.0,-30.0,-19.0,-1.0,-7.0,-3.0,-2.0,1650916612998664.0,2
1238,9.0,13.0,26.0,3.0,7.0,13.0,-1.0,-41.0,1650916612999200.0,2
1239,-26.0,-12.0,-65.0,-51.0,-19.0,-9.0,-6.0,-8.0,1650916612999200.0,2
1240,-11.0,24.0,-22.0,-23.0,-7.0,-8.0,-5.0,-1.0,1650916613028472.0,2
1241,4.0,12.0,57.0,49.0,19.0,1.0,5.0,14.0,1650916613028472.0,2
1242,-8.0,-19.0,17.0,-2.0,-4.0,-1.0,-1.0,9.0,1650916613029442.0,2
1243,0.0,7.0,-8.0,-6.0,-3.0,2.0,-1.0,-9.0,1650916613029442.0,2
1244,4.0,9.0,76.0,44.0,14.0,2.0,-1.0,-15.0,1650916613034429.0,2
1245,-22.0,-8.0,-66.0,-43.0,-12.0,-3.0,-5.0,-5.0,1650916613034429.0,2
1246,-3.0,-11.0,-15.0,39.0,10.0,1.0,-5.0,-11.0,1650916613043405.0,2
1247,4.0,0.0,-16.0,2.0,-1.0,-3.0,-1.0,6.0,1650916613043405.0,2
1248,-20.0,-7.0,-44.0,-28.0,-11.0,-11.0,-3.0,4.0,1650916613057615.0,2
1249,17.0,9.0,24.0,29.0,2.0,1.0,3.0,27.0,1650916613057615.0,2
1250,21.0,27.0,29.0,21.0,1.0,5.0,6.0,-3.0,1650916613065733.0,2
1251,5.0,18.0,20.0,-11.0,21.0,15.0,10.0,3.0,1650916613065733.0,2
1252,5.0,-19.0,-66.0,-50.0,-22.0,-12.0,-8.0,-7.0,1650916613081924.0,2
1253,1.0,-17.0,-11.0,-21.0,-5.0,-1.0,1.0,4.0,1650916613081924.0,2
1254,-9.0,23.0,-10.0,-5.0,5.0,4.0,3.0,11.0,1650916613082920.0,2
1255,13.0,13.0,34.0,45.0,18.0,6.0,1.0,27.0,1650916613082920.0,2
1256,-4.0,8.0,-23.0,-11.0,-10.0,-5.0,-11.0,-44.0,1650916613104133.0,2
1257,15.0,10.0,-37.0,-37.0,-7.0,-3.0,-4.0,-20.0,1650916613104133.0,2
1258,-20.0,10.0,27.0,0.0,-3.0,-5.0,0.0,0.0,1650916613104133.0,2
1259,-12.0,-9.0,-34.0,8.0,-1.0,-1.0,2.0,4.0,1650916613104133.0,2
1260,-6.0,-5.0,-2.0,19.0,3.0,-1.0,-1.0,7.0,1650916613118226.0,2
1261,20.0,20.0,52.0,9.0,0.0,5.0,3.0,6.0,1650916613118226.0,2
1262,-37.0,-15.0,-77.0,-23.0,-6.0,-9.0,-9.0,-36.0,1650916613126116.0,2
1263,-8.0,-21.0,-8.0,12.0,6.0,7.0,-2.0,-5.0,1650916613126116.0,2
1264,6.0,-8.0,-12.0,-15.0,-5.0,1.0,5.0,14.0,1650916613142391.0,2
1265,-42.0,-6.0,34.0,29.0,12.0,0.0,-10.0,-64.0,1650916613142391.0,2
1266,18.0,19.0,93.0,22.0,1.0,-6.0,9.0,59.0,1650916613142391.0,2
1267,8.0,10.0,-30.0,-27.0,-1.0,3.0,-2.0,-6.0,1650916613142391.0,2
1268,-17.0,-50.0,6.0,-3.0,-9.0,-9.0,-5.0,-8.0,1650916613164470.0,2
1269,15.0,43.0,104.0,39.0,13.0,11.0,11.0,30.0,1650916613164470.0,2
1270,-35.0,-82.0,-66.0,-60.0,-21.0,-8.0,-14.0,-40.0,1650916613164470.0,2
1271,-6.0,25.0,58.0,22.0,-11.0,-9.0,1.0,28.0,1650916613164470.0,2
1272,33.0,45.0,34.0,32.0,21.0,14.0,6.0,-11.0,1650916613178835.0,2
1273,5.0,-9.0,1.0,8.0,6.0,-4.0,-6.0,-2.0,1650916613178835.0,2
1274,-2.0,3.0,66.0,27.0,1.0,2.0,4.0,16.0,1650916613178835.0,2
1275,-5.0,-18.0,-52.0,7.0,-7.0,-7.0,-14.0,-31.0,1650916613178835.0,2
1276,-26.0,-14.0,-35.0,-35.0,-18.0,-6.0,-5.0,-13.0,1650916613201490.0,2
1277,13.0,16.0,34.0,6.0,-7.0,-6.0,-1.0,0.0,1650916613201490.0,2
1278,9.0,2.0,3.0,14.0,13.0,3.0,1.0,4.0,1650916613202321.0,2
1279,-6.0,-12.0,-11.0,-1.0,6.0,10.0,6.0,10.0,1650916613202321.0,2
1280,10.0,21.0,35.0,18.0,12.0,0.0,-1.0,7.0,1650916613222814.0,2
1281,18.0,20.0,44.0,15.0,4.0,5.0,-1.0,-14.0,1650916613222814.0,2
1282,-28.0,-18.0,-65.0,-64.0,-41.0,-20.0,0.0,-23.0,1650916613230827.0,2
1283,-13.0,-54.0,-21.0,-7.0,-11.0,-8.0,-7.0,-8.0,1650916613230827.0,2
1284,-2.0,-28.0,-61.0,-38.0,-2.0,1.0,0.0,-4.0,1650916613238955.0,2
1285,0.0,16.0,25.0,32.0,14.0,12.0,6.0,38.0,1650916613238955.0,2
1286,45.0,41.0,47.0,28.0,21.0,23.0,17.0,13.0,1650916613238955.0,2
1287,-17.0,-33.0,-9.0,-36.0,-23.0,-24.0,-12.0,-8.0,1650916613238955.0,2
1288,0.0,6.0,41.0,21.0,-8.0,-6.0,-1.0,-4.0,1650916613262257.0,2
1289,-15.0,-25.0,-69.0,-44.0,-20.0,-11.0,-10.0,-8.0,1650916613262257.0,2
1290,8.0,27.0,44.0,32.0,15.0,4.0,1.0,18.0,1650916613262257.0,2
1291,9.0,23.0,36.0,29.0,11.0,7.0,8.0,0.0,1650916613262257.0,2
1292,-4.0,-26.0,-21.0,-17.0,-3.0,-5.0,0.0,12.0,1650916613283288.0,2
1293,0.0,4.0,-20.0,-15.0,-16.0,-12.0,-2.0,-4.0,1650916613283288.0,2
1294,3.0,-1.0,-18.0,-8.0,3.0,-1.0,-9.0,-4.0,1650916613284309.0,2
1295,15.0,17.0,40.0,31.0,20.0,18.0,11.0,8.0,1650916613284309.0,2
1296,-11.0,8.0,1.0,14.0,5.0,7.0,1.0,-5.0,1650916613298818.0,2
1297,4.0,-10.0,-27.0,-34.0,-7.0,-4.0,1.0,10.0,1650916613298818.0,2
1298,-14.0,-10.0,-17.0,-10.0,-8.0,-6.0,-7.0,-27.0,1650916613298818.0,2
1299,-1.0,-1.0,19.0,5.0,0.0,-3.0,0.0,0.0,1650916613298818.0,2
1300,4.0,3.0,-3.0,1.0,7.0,3.0,6.0,24.0,1650916613321319.0,2
1301,-7.0,-22.0,-43.0,-15.0,-8.0,-3.0,-1.0,-10.0,1650916613321319.0,2
1302,3.0,-7.0,-9.0,-6.0,-11.0,-14.0,-10.0,8.0,1650916613322291.0,2
1303,9.0,19.0,20.0,8.0,10.0,8.0,7.0,8.0,1650916613322291.0,2
1304,-1.0,6.0,6.0,17.0,5.0,7.0,5.0,-4.0,1650916613344590.0,2
1305,-7.0,-6.0,-2.0,12.0,5.0,2.0,-2.0,-15.0,1650916613344590.0,2
1306,-1.0,3.0,9.0,-12.0,2.0,0.0,-4.0,7.0,1650916613344590.0,2
1307,2.0,-1.0,-5.0,11.0,-1.0,2.0,-9.0,-3.0,1650916613344590.0,2
1308,4.0,2.0,-20.0,-15.0,-4.0,3.0,12.0,2.0,1650916613358803.0,2
1309,-5.0,0.0,3.0,-29.0,-9.0,-10.0,-10.0,-9.0,1650916613358803.0,2
1310,-2.0,-9.0,-1.0,17.0,-7.0,-11.0,0.0,-1.0,1650916613358803.0,2
1311,5.0,6.0,14.0,7.0,3.0,-1.0,8.0,6.0,1650916613358803.0,2
1312,-5.0,-4.0,-9.0,12.0,4.0,-2.0,-11.0,-4.0,1650916613382265.0,2
1313,2.0,-8.0,-3.0,3.0,8.0,10.0,5.0,1.0,1650916613382265.0,2
1314,2.0,2.0,3.0,10.0,11.0,11.0,4.0,4.0,1650916613382265.0,2
1315,-1.0,14.0,8.0,-13.0,-6.0,-8.0,-19.0,-4.0,1650916613382265.0,2
1316,-2.0,-10.0,-6.0,-8.0,-7.0,-4.0,11.0,1.0,1650916613404127.0,2
1317,-4.0,-8.0,-3.0,5.0,-5.0,-6.0,1.0,-1.0,1650916613404127.0,2
1318,-5.0,1.0,-15.0,-17.0,-8.0,-8.0,-3.0,1.0,1650916613404127.0,2
1319,1.0,-8.0,9.0,8.0,2.0,1.0,-5.0,3.0,1650916613404127.0,2
1320,3.0,12.0,5.0,-9.0,5.0,11.0,4.0,3.0,1650916613419569.0,2
1321,-2.0,-9.0,-8.0,0.0,0.0,-3.0,0.0,-5.0,1650916613419569.0,2
1322,4.0,8.0,6.0,2.0,3.0,8.0,0.0,3.0,1650916613419569.0,2
1323,1.0,4.0,-1.0,0.0,5.0,4.0,1.0,-1.0,1650916613419569.0,2
1324,-1.0,-6.0,6.0,3.0,-5.0,-6.0,-2.0,-2.0,1650916613442115.0,2
1325,-2.0,-1.0,-4.0,-6.0,7.0,5.0,2.0,2.0,1650916613442115.0,2
1326,2.0,-1.0,-5.0,0.0,1.0,-9.0,-6.0,-1.0,1650916613442115.0,2
1327,3.0,0.0,7.0,0.0,-10.0,-10.0,-1.0,-2.0,1650916613442115.0,2
1328,-3.0,-3.0,-8.0,-11.0,0.0,5.0,-6.0,-1.0,1650916613464413.0,2
1329,-2.0,2.0,-1.0,2.0,-2.0,2.0,3.0,-2.0,1650916613464413.0,2
1330,-2.0,-2.0,0.0,-1.0,1.0,-5.0,-9.0,-2.0,1650916613464413.0,2
1331,0.0,-2.0,0.0,1.0,0.0,4.0,19.0,4.0,1650916613464413.0,2
1332,0.0,-1.0,3.0,-3.0,-8.0,-11.0,-6.0,2.0,1650916613480199.0,2
1333,0.0,2.0,-3.0,-2.0,1.0,2.0,-7.0,-2.0,1650916613480199.0,2
1334,-1.0,-3.0,1.0,0.0,3.0,8.0,-2.0,-1.0,1650916613480199.0,2
1335,2.0,-1.0,-3.0,-3.0,0.0,-7.0,-6.0,0.0,1650916613480199.0,2
1336,-3.0,2.0,-6.0,-6.0,-6.0,-8.0,0.0,-2.0,1650916613502149.0,2
1337,-4.0,-1.0,5.0,2.0,-9.0,-5.0,4.0,0.0,1650916613502149.0,2
1338,0.0,-2.0,-3.0,0.0,9.0,17.0,2.0,2.0,1650916613502149.0,2
1339,2.0,-3.0,-1.0,2.0,9.0,11.0,5.0,0.0,1650916613502149.0,2
1340,2.0,5.0,7.0,0.0,4.0,1.0,-3.0,2.0,1650916613523375.0,2
1341,0.0,0.0,-6.0,-4.0,-6.0,-17.0,-7.0,1.0,1650916613523375.0,2
1342,-4.0,-3.0,-2.0,-2.0,-7.0,1.0,5.0,-6.0,1650916613524378.0,2
1343,3.0,-1.0,-4.0,-6.0,-12.0,-17.0,-8.0,-2.0,1650916613524378.0,2
1344,-5.0,4.0,6.0,5.0,6.0,4.0,1.0,-1.0,1650916613538509.0,2
1345,1.0,-4.0,-2.0,-1.0,4.0,13.0,4.0,-3.0,1650916613538509.0,2
1346,2.0,0.0,0.0,2.0,2.0,10.0,5.0,4.0,1650916613538509.0,2
1347,-2.0,5.0,1.0,1.0,0.0,0.0,3.0,1.0,1650916613538509.0,2
1348,-3.0,-10.0,-5.0,-4.0,-6.0,-10.0,-4.0,-5.0,1650916613561829.0,2
1349,-3.0,2.0,-1.0,-2.0,-1.0,-8.0,-9.0,-3.0,1650916613561829.0,2
1350,1.0,-3.0,-4.0,-3.0,-2.0,1.0,4.0,1.0,1650916613561829.0,2
1351,2.0,9.0,5.0,1.0,-1.0,5.0,-2.0,-1.0,1650916613561829.0,2
1352,2.0,-3.0,-7.0,0.0,5.0,3.0,1.0,2.0,1650916613583846.0,2
1353,-4.0,-7.0,1.0,3.0,2.0,1.0,2.0,-1.0,1650916613583846.0,2
1354,-3.0,0.0,-2.0,-2.0,-5.0,-12.0,-4.0,-2.0,1650916613584877.0,2
1355,-3.0,-5.0,-3.0,-7.0,-6.0,-7.0,-2.0,-1.0,1650916613584877.0,2
1356,-2.0,3.0,0.0,-2.0,-8.0,6.0,0.0,-1.0,1650916613599035.0,2
1357,5.0,4.0,3.0,5.0,10.0,11.0,1.0,0.0,1650916613599035.0,2
1358,4.0,-1.0,-3.0,-3.0,6.0,-2.0,0.0,2.0,1650916613599035.0,2
1359,-1.0,-3.0,-1.0,-1.0,-6.0,-4.0,2.0,1.0,1650916613599035.0,2
1360,-1.0,1.0,1.0,-4.0,0.0,-4.0,-6.0,-4.0,1650916613622139.0,2
1361,-3.0,-1.0,-4.0,-3.0,-10.0,-8.0,-4.0,-3.0,1650916613622139.0,2
1362,-1.0,0.0,1.0,1.0,-8.0,-11.0,-5.0,-1.0,1650916613622139.0,2
1363,-2.0,-3.0,-1.0,1.0,8.0,10.0,2.0,-1.0,1650916613622139.0,2
1364,4.0,0.0,-1.0,1.0,7.0,16.0,6.0,3.0,1650916613643339.0,2
1365,0.0,2.0,1.0,-2.0,-5.0,0.0,6.0,0.0,1650916613643339.0,2
1366,-2.0,-2.0,1.0,2.0,-2.0,-3.0,-1.0,0.0,1650916613650344.0,2
1367,-1.0,-5.0,-2.0,-4.0,-5.0,-14.0,-9.0,-4.0,1650916613650344.0,2
1368,-1.0,-1.0,-3.0,-2.0,-10.0,-6.0,-6.0,-2.0,1650916613657864.0,2
1369,-1.0,1.0,-2.0,0.0,6.0,9.0,6.0,1.0,1650916613657864.0,2
1370,-2.0,-1.0,1.0,2.0,6.0,-2.0,0.0,0.0,1650916613658865.0,2
1371,3.0,0.0,-1.0,4.0,2.0,8.0,1.0,2.0,1650916613658865.0,2
1372,-1.0,1.0,5.0,0.0,2.0,0.0,1.0,1.0,1650916613680910.0,2
1373,0.0,-1.0,-4.0,-8.0,-11.0,-12.0,-7.0,-2.0,1650916613680910.0,2
1374,1.0,2.0,-3.0,0.0,-3.0,2.0,0.0,1.0,1650916613681909.0,2
1375,0.0,0.0,2.0,-1.0,2.0,1.0,2.0,-1.0,1650916613681909.0,2
1376,-1.0,-2.0,-1.0,-1.0,-4.0,-3.0,1.0,-1.0,1650916613704678.0,2
1377,-1.0,0.0,1.0,1.0,1.0,-2.0,-2.0,0.0,1650916613704678.0,2
1378,-1.0,0.0,-1.0,0.0,4.0,8.0,4.0,0.0,1650916613704678.0,2
1379,0.0,-1.0,-1.0,-1.0,-3.0,2.0,0.0,2.0,1650916613704678.0,2
1380,2.0,1.0,0.0,-1.0,-6.0,-10.0,-4.0,-2.0,1650916613718658.0,2
1381,-3.0,-4.0,0.0,-2.0,-1.0,-3.0,-5.0,-4.0,1650916613718658.0,2
1382,1.0,-2.0,0.0,3.0,9.0,15.0,6.0,1.0,1650916613718658.0,2
1383,-1.0,1.0,1.0,2.0,1.0,8.0,11.0,4.0,1650916613718658.0,2
1384,0.0,1.0,-3.0,-3.0,-6.0,-5.0,-2.0,-2.0,1650916613742175.0,2
1385,-2.0,-1.0,-2.0,-3.0,-1.0,-4.0,-4.0,-3.0,1650916613742175.0,2
1386,-1.0,-1.0,-1.0,0.0,-2.0,-7.0,3.0,0.0,1650916613742175.0,2
1387,-2.0,1.0,2.0,4.0,10.0,10.0,2.0,1.0,1650916613742175.0,2
1388,4.0,0.0,6.0,10.0,2.0,-1.0,-5.0,-2.0,1650916613763822.0,2
1389,2.0,0.0,-6.0,-7.0,-3.0,-3.0,-8.0,0.0,1650916613763822.0,2
1390,-1.0,-3.0,1.0,-3.0,-12.0,-5.0,8.0,1.0,1650916613764819.0,2
1391,-3.0,1.0,-2.0,-2.0,1.0,-1.0,-2.0,-3.0,1650916613764819.0,2
1392,-1.0,0.0,-1.0,1.0,7.0,3.0,2.0,0.0,1650916613777817.0,2
1393,1.0,0.0,0.0,5.0,3.0,0.0,0.0,1.0,1650916613777817.0,2
1394,-2.0,-1.0,1.0,-3.0,-5.0,-6.0,-6.0,-1.0,1650916613785934.0,2
1395,1.0,-2.0,-4.0,-4.0,-8.0,-11.0,-7.0,-4.0,1650916613785934.0,2
1396,-2.0,0.0,0.0,1.0,1.0,6.0,-5.0,-2.0,1650916613801757.0,2
1397,0.0,0.0,2.0,2.0,2.0,3.0,12.0,2.0,1650916613801757.0,2
1398,-1.0,0.0,-4.0,-3.0,-1.0,-9.0,-4.0,-2.0,1650916613801757.0,2
1399,-1.0,-2.0,1.0,0.0,0.0,0.0,-1.0,1.0,1650916613801757.0,2
1400,-1.0,-1.0,-2.0,-3.0,4.0,7.0,-2.0,0.0,1650916613824105.0,2
1401,-2.0,0.0,-3.0,-4.0,-9.0,-5.0,-2.0,-1.0,1650916613824105.0,2
1402,0.0,1.0,1.0,1.0,-4.0,-2.0,-1.0,-2.0,1650916613824105.0,2
1403,1.0,1.0,0.0,3.0,11.0,5.0,2.0,2.0,1650916613824105.0,2
1404,0.0,0.0,-1.0,1.0,12.0,8.0,1.0,2.0,1650916613837717.0,2
1405,0.0,0.0,-3.0,-1.0,-5.0,-9.0,0.0,0.0,1650916613837717.0,2
1406,-1.0,0.0,2.0,-1.0,-6.0,-5.0,-8.0,-2.0,1650916613845667.0,2
1407,-1.0,-2.0,-5.0,-5.0,-9.0,-4.0,-1.0,-3.0,1650916613845667.0,2
1408,0.0,-2.0,-6.0,-6.0,-7.0,-6.0,3.0,1.0,1650916613861984.0,2
1409,-3.0,-1.0,5.0,4.0,8.0,4.0,2.0,0.0,1650916613861984.0,2
1410,1.0,-1.0,0.0,2.0,4.0,5.0,2.0,3.0,1650916613861984.0,2
1411,-2.0,-3.0,-2.0,-2.0,-2.0,-4.0,-4.0,-2.0,1650916613861984.0,0
1412,2.0,-1.0,0.0,-1.0,-2.0,-6.0,-5.0,-1.0,1650916613884114.0,0
1413,-1.0,-1.0,-5.0,-6.0,-4.0,3.0,0.0,-2.0,1650916613884114.0,0
1414,1.0,-1.0,0.0,2.0,5.0,4.0,-6.0,-2.0,1650916613884114.0,0
1415,0.0,0.0,0.0,2.0,3.0,4.0,2.0,0.0,1650916613884114.0,0
1416,-4.0,-2.0,0.0,-3.0,-3.0,-4.0,4.0,2.0,1650916613897983.0,0
1417,5.0,0.0,1.0,2.0,1.0,2.0,0.0,-1.0,1650916613897983.0,0
1418,-1.0,-1.0,-3.0,-4.0,-10.0,-5.0,1.0,1.0,1650916613906363.0,0
1419,-3.0,-2.0,-1.0,0.0,-5.0,-4.0,-1.0,-4.0,1650916613906363.0,0
1420,-3.0,0.0,3.0,3.0,12.0,4.0,-6.0,-3.0,1650916613921683.0,0
1421,-3.0,0.0,0.0,2.0,2.0,4.0,13.0,2.0,1650916613921683.0,0
1422,2.0,-1.0,-2.0,0.0,1.0,0.0,-1.0,0.0,1650916613921683.0,0
1423,0.0,-2.0,-6.0,-7.0,-8.0,-12.0,-6.0,-1.0,1650916613921683.0,0
1424,1.0,0.0,5.0,5.0,-8.0,-3.0,-4.0,-4.0,1650916613944076.0,0
1425,-6.0,-1.0,0.0,3.0,8.0,11.0,-1.0,2.0,1650916613944076.0,0
1426,1.0,0.0,3.0,2.0,4.0,5.0,2.0,1.0,1650916613944948.0,0
1427,0.0,0.0,0.0,-2.0,-5.0,-8.0,-1.0,0.0,1650916613944948.0,0
1428,-1.0,-1.0,-6.0,-6.0,0.0,-4.0,-3.0,-1.0,1650916613958168.0,0
1429,0.0,-1.0,-3.0,-2.0,-7.0,-6.0,-6.0,-2.0,1650916613958168.0,0
1430,-3.0,2.0,-1.0,0.0,2.0,2.0,9.0,0.0,1650916613973364.0,0
1431,2.0,2.0,2.0,3.0,11.0,16.0,3.0,3.0,1650916613973364.0,0
1432,0.0,-1.0,-3.0,-2.0,-6.0,-4.0,1.0,1.0,1650916613981704.0,0
1433,1.0,-1.0,1.0,-3.0,-2.0,0.0,-5.0,-3.0,1650916613981704.0,0
1434,-2.0,-2.0,-4.0,-5.0,-5.0,-3.0,-6.0,-2.0,1650916613981704.0,0
1435,1.0,-1.0,0.0,0.0,0.0,-8.0,-1.0,0.0,1650916613981704.0,0
1436,-1.0,1.0,-2.0,0.0,1.0,-2.0,2.0,-1.0,1650916614004696.0,0
1437,0.0,0.0,0.0,1.0,1.0,-1.0,-7.0,-4.0,1650916614004696.0,0
1438,2.0,2.0,2.0,3.0,7.0,12.0,8.0,4.0,1650916614004696.0,0
1439,-1.0,-1.0,2.0,-1.0,3.0,7.0,1.0,1.0,1650916614004696.0,0
1440,1.0,-1.0,2.0,1.0,-4.0,-5.0,2.0,1.0,1650916614017698.0,0
1441,-2.0,-1.0,-2.0,-5.0,-7.0,-10.0,-7.0,-2.0,1650916614017698.0,0
1442,-3.0,-1.0,-2.0,-4.0,-6.0,-1.0,-7.0,-5.0,1650916614025959.0,0
1443,-3.0,-3.0,0.0,-2.0,0.0,0.0,6.0,1.0,1650916614025959.0,0
1444,-1.0,1.0,5.0,2.0,-1.0,1.0,-1.0,-1.0,1650916614041096.0,0
1445,0.0,0.0,-1.0,-1.0,0.0,-2.0,-3.0,-1.0,1650916614041096.0,0
1446,-1.0,-1.0,1.0,2.0,-3.0,2.0,0.0,-1.0,1650916614041096.0,0
1447,2.0,2.0,0.0,3.0,7.0,12.0,4.0,2.0,1650916614041096.0,0
1448,0.0,-2.0,-5.0,-4.0,9.0,2.0,2.0,1.0,1650916614064446.0,0
1449,0.0,-1.0,-2.0,-4.0,2.0,0.0,-1.0,0.0,1650916614064446.0,0
1450,-1.0,-1.0,-1.0,-1.0,-9.0,-15.0,-5.0,-2.0,1650916614065284.0,0
1451,-4.0,-2.0,-1.0,-2.0,-17.0,-14.0,-7.0,-6.0,1650916614065284.0,0
1452,-1.0,0.0,-2.0,0.0,4.0,9.0,0.0,1.0,1650916614078403.0,0
1453,-2.0,-1.0,0.0,-1.0,0.0,-3.0,2.0,1.0,1650916614078403.0,0
1454,-3.0,-2.0,-7.0,-10.0,-6.0,-10.0,-6.0,-3.0,1650916614086392.0,0
1455,-1.0,-1.0,3.0,4.0,-1.0,-4.0,0.0,-2.0,1650916614086392.0,0
1456,1.0,2.0,2.0,6.0,12.0,12.0,4.0,2.0,1650916614100406.0,0
1457,5.0,0.0,0.0,3.0,12.0,16.0,10.0,2.0,1650916614100406.0,0
1458,-3.0,0.0,-1.0,-3.0,4.0,8.0,1.0,-1.0,1650916614101402.0,0
1459,2.0,0.0,3.0,-1.0,-7.0,-6.0,-7.0,-2.0,1650916614101402.0,0
1460,-2.0,-2.0,-4.0,-5.0,-11.0,-13.0,-3.0,-3.0,1650916614123849.0,0
1461,0.0,0.0,1.0,1.0,-4.0,-9.0,-7.0,-2.0,1650916614123849.0,0
1462,0.0,-1.0,-4.0,-4.0,-5.0,-10.0,-1.0,-1.0,1650916614124715.0,0
1463,-1.0,-1.0,-3.0,-4.0,-10.0,-1.0,0.0,-2.0,1650916614124715.0,0
1464,0.0,-1.0,-1.0,0.0,8.0,7.0,-4.0,-4.0,1650916614146002.0,0
1465,-1.0,-2.0,1.0,3.0,9.0,7.0,2.0,2.0,1650916614146002.0,0
1466,2.0,2.0,4.0,5.0,6.0,7.0,19.0,6.0,1650916614146839.0,0
1467,-2.0,1.0,-1.0,0.0,7.0,4.0,-5.0,-1.0,1650916614146839.0,0
1468,-2.0,-2.0,-2.0,-4.0,-8.0,0.0,4.0,0.0,1650916614160989.0,0
1469,-2.0,0.0,-4.0,-3.0,-8.0,-8.0,-6.0,-2.0,1650916614160989.0,0
1470,0.0,-1.0,1.0,-1.0,0.0,-5.0,-8.0,-4.0,1650916614160989.0,0
1471,0.0,-1.0,0.0,-2.0,-5.0,-8.0,-3.0,0.0,1650916614160989.0,0
1472,-3.0,-2.0,-3.0,-5.0,-8.0,-9.0,-2.0,-1.0,1650916614183313.0,0
1473,-4.0,-2.0,-1.0,-1.0,-5.0,-9.0,-3.0,-3.0,1650916614183313.0,0
1474,-2.0,-1.0,0.0,5.0,7.0,12.0,2.0,2.0,1650916614184309.0,0
1475,-1.0,1.0,1.0,3.0,12.0,20.0,6.0,4.0,1650916614184309.0,0
1476,0.0,2.0,2.0,3.0,11.0,8.0,1.0,0.0,1650916614207702.0,0
1477,0.0,2.0,-1.0,-2.0,-5.0,-5.0,0.0,1.0,1650916614207702.0,0
1478,4.0,0.0,-3.0,-2.0,-6.0,-5.0,-8.0,-2.0,1650916614207702.0,0
1479,-5.0,-3.0,-3.0,-4.0,-2.0,-8.0,-3.0,-2.0,1650916614207702.0,0
1480,0.0,-1.0,-3.0,-3.0,-9.0,-8.0,0.0,-2.0,1650916614221432.0,0
1481,1.0,-1.0,1.0,2.0,-2.0,5.0,1.0,2.0,1650916614221432.0,0
1482,-1.0,-1.0,-2.0,-2.0,-12.0,-13.0,-5.0,-1.0,1650916614221432.0,0
1483,2.0,-1.0,-1.0,-1.0,7.0,7.0,0.0,1.0,1650916614221432.0,0
1484,0.0,-1.0,-2.0,0.0,-1.0,-1.0,3.0,-1.0,1650916614243899.0,0
1485,1.0,1.0,3.0,3.0,12.0,7.0,5.0,2.0,1650916614243899.0,0
1486,0.0,-2.0,2.0,0.0,2.0,5.0,-2.0,-3.0,1650916614243899.0,0
1487,2.0,1.0,-2.0,0.0,-6.0,-4.0,1.0,-1.0,1650916614243899.0,0
1488,-3.0,0.0,-1.0,-2.0,-4.0,-4.0,6.0,2.0,1650916614266203.0,0
1489,3.0,-3.0,-4.0,-5.0,1.0,-3.0,-3.0,-2.0,1650916614266203.0,0
1490,-1.0,-1.0,3.0,2.0,2.0,7.0,0.0,-5.0,1650916614267201.0,0
1491,1.0,1.0,-1.0,2.0,-2.0,-12.0,-13.0,-3.0,1650916614267201.0,0
1492,0.0,-1.0,1.0,-1.0,0.0,1.0,10.0,1.0,1650916614281057.0,0
1493,-1.0,1.0,2.0,3.0,2.0,8.0,5.0,0.0,1650916614281057.0,0
1494,0.0,1.0,-2.0,0.0,8.0,3.0,0.0,2.0,1650916614281193.0,0
1495,-1.0,-1.0,-2.0,-2.0,-5.0,-2.0,0.0,-2.0,1650916614281193.0,0
1496,-1.0,0.0,-1.0,-2.0,-6.0,-3.0,-6.0,-2.0,1650916614304635.0,0
1497,-2.0,-1.0,-1.0,0.0,-5.0,-3.0,1.0,-1.0,1650916614304635.0,0
1498,0.0,-3.0,-3.0,-3.0,-2.0,-4.0,-1.0,-1.0,1650916614304635.0,0
1499,-1.0,1.0,0.0,-1.0,-1.0,-4.0,3.0,-2.0,1650916614304635.0,0
1500,-1.0,0.0,-1.0,2.0,-1.0,-4.0,-4.0,0.0,1650916614326750.0,0
1501,-2.0,-1.0,-2.0,-4.0,6.0,9.0,0.0,-3.0,1650916614326750.0,0
1502,-1.0,0.0,4.0,5.0,-3.0,0.0,-2.0,-2.0,1650916614326750.0,0
1503,1.0,-1.0,1.0,-1.0,-2.0,-5.0,2.0,0.0,1650916614326750.0,0
1504,-1.0,-2.0,0.0,0.0,-2.0,-2.0,-8.0,-3.0,1650916614340750.0,0
1505,-1.0,-1.0,-1.0,1.0,-2.0,3.0,7.0,1.0,1650916614340750.0,0
1506,-1.0,-1.0,-2.0,-1.0,0.0,-3.0,1.0,-1.0,1650916614341713.0,0
1507,0.0,-1.0,-1.0,0.0,4.0,-1.0,-1.0,0.0,1650916614341713.0,0
1508,-1.0,-2.0,0.0,1.0,-2.0,-1.0,-2.0,-3.0,1650916614363688.0,0
1509,3.0,-3.0,2.0,-1.0,2.0,0.0,-2.0,-1.0,1650916614363688.0,0
1510,-1.0,-1.0,-3.0,-2.0,-1.0,-3.0,-1.0,-1.0,1650916614364652.0,0
1511,-1.0,-2.0,-3.0,-4.0,-12.0,-15.0,-4.0,-2.0,1650916614364652.0,0
1512,0.0,-1.0,-3.0,0.0,9.0,20.0,3.0,1.0,1650916614386594.0,0
1513,1.0,1.0,4.0,4.0,3.0,4.0,4.0,2.0,1650916614386594.0,0
1514,-2.0,0.0,-1.0,-1.0,-2.0,-7.0,2.0,3.0,1650916614387591.0,0
1515,-1.0,0.0,1.0,3.0,6.0,7.0,0.0,1.0,1650916614387591.0,0
1516,-1.0,-1.0,-4.0,-6.0,-7.0,-9.0,-5.0,-3.0,1650916614400556.0,0
1517,-3.0,-2.0,0.0,-3.0,-9.0,-4.0,2.0,0.0,1650916614400556.0,0
1518,1.0,1.0,-1.0,-2.0,1.0,-1.0,-1.0,1.0,1650916614401554.0,0
1519,0.0,-1.0,0.0,-1.0,-3.0,-5.0,-2.0,0.0,1650916614401554.0,0
1520,0.0,-1.0,-1.0,-1.0,-1.0,-1.0,3.0,0.0,1650916614423705.0,0
1521,-2.0,1.0,-1.0,1.0,-1.0,0.0,-12.0,-4.0,1650916614423705.0,0
1522,0.0,-2.0,-1.0,2.0,9.0,8.0,13.0,3.0,1650916614424568.0,0
1523,-1.0,0.0,-1.0,0.0,4.0,9.0,9.0,-1.0,1650916614424568.0,0
1524,0.0,-2.0,-1.0,-5.0,-11.0,-19.0,-7.0,-3.0,1650916614446747.0,0
1525,1.0,-1.0,-6.0,-5.0,-3.0,-1.0,-1.0,1.0,1650916614446747.0,0
1526,0.0,-2.0,5.0,2.0,5.0,5.0,-7.0,0.0,1650916614447670.0,0
1527,1.0,-1.0,-3.0,-2.0,3.0,4.0,0.0,-1.0,1650916614447670.0,0
1528,-1.0,1.0,-1.0,2.0,0.0,0.0,2.0,0.0,1650916614460407.0,0
1529,-2.0,1.0,2.0,1.0,-3.0,-2.0,2.0,1.0,1650916614460407.0,0
1530,0.0,-1.0,-2.0,0.0,4.0,8.0,-3.0,-2.0,1650916614468627.0,0
1531,-2.0,0.0,0.0,0.0,-2.0,0.0,-1.0,-2.0,1650916614468627.0,0
1532,0.0,-2.0,-1.0,-2.0,-2.0,-7.0,-2.0,0.0,1650916614483774.0,0
1533,-2.0,0.0,-4.0,-2.0,-2.0,-4.0,-4.0,-1.0,1650916614483774.0,0
1534,0.0,-1.0,3.0,3.0,2.0,2.0,0.0,1.0,1650916614485769.0,0
1535,-5.0,2.0,1.0,-3.0,-3.0,-4.0,-1.0,-3.0,1650916614485769.0,0
1536,0.0,1.0,1.0,1.0,-3.0,2.0,-7.0,-1.0,1650916614505740.0,0
1537,-2.0,-3.0,-3.0,1.0,6.0,1.0,5.0,-3.0,1650916614505740.0,0
1538,2.0,1.0,-2.0,0.0,1.0,-2.0,1.0,0.0,1650916614507710.0,0
1539,-1.0,-3.0,1.0,-1.0,-6.0,-9.0,-3.0,-3.0,1650916614507710.0,0
1540,-2.0,-3.0,-4.0,-5.0,-9.0,-8.0,-7.0,-2.0,1650916614519710.0,0
1541,-1.0,0.0,1.0,-1.0,2.0,7.0,-2.0,-1.0,1650916614519710.0,0
1542,2.0,0.0,-1.0,1.0,9.0,8.0,0.0,1.0,1650916614528328.0,0
1543,1.0,0.0,0.0,-1.0,-8.0,-7.0,1.0,2.0,1650916614528328.0,0
1544,-1.0,0.0,0.0,0.0,11.0,14.0,3.0,-1.0,1650916614543322.0,0
1545,-1.0,-4.0,-1.0,0.0,-7.0,-10.0,-10.0,-2.0,1650916614543322.0,0
1546,-2.0,-1.0,-2.0,-5.0,-11.0,-15.0,-1.0,-3.0,1650916614545285.0,0
1547,0.0,-3.0,-2.0,2.0,0.0,3.0,1.0,0.0,1650916614545285.0,0
1548,0.0,2.0,0.0,3.0,6.0,4.0,6.0,2.0,1650916614566229.0,0
1549,0.0,0.0,-8.0,-5.0,2.0,0.0,0.0,0.0,1650916614566229.0,0
1550,0.0,-2.0,7.0,2.0,-7.0,-3.0,-3.0,-2.0,1650916614568229.0,0
1551,-1.0,-2.0,-2.0,-1.0,5.0,7.0,-4.0,0.0,1650916614568229.0,0
1552,0.0,0.0,2.0,0.0,-2.0,-3.0,1.0,-3.0,1650916614580223.0,0
1553,1.0,0.0,0.0,-1.0,3.0,-4.0,5.0,0.0,1650916614580223.0,0
1554,-1.0,0.0,-5.0,-5.0,-4.0,-1.0,-3.0,-1.0,1650916614589168.0,0
1555,-1.0,-1.0,-1.0,-1.0,-1.0,-2.0,-6.0,-3.0,1650916614589168.0,0
1556,0.0,-3.0,-6.0,-5.0,2.0,4.0,5.0,1.0,1650916614604270.0,0
1557,0.0,2.0,1.0,0.0,-2.0,3.0,5.0,2.0,1650916614604270.0,0
1558,-4.0,-3.0,1.0,5.0,-2.0,3.0,0.0,0.0,1650916614605125.0,0
1559,-1.0,0.0,0.0,4.0,5.0,3.0,-4.0,0.0,1650916614605125.0,0
1560,3.0,0.0,-1.0,-3.0,-1.0,-6.0,1.0,1.0,1650916614626504.0,0
1561,-9.0,-1.0,2.0,-1.0,-12.0,-15.0,-3.0,-1.0,1650916614626504.0,0
1562,-5.0,-1.0,2.0,2.0,5.0,10.0,4.0,-2.0,1650916614627334.0,0
1563,6.0,-1.0,-3.0,-1.0,2.0,3.0,2.0,1.0,1650916614627334.0,0
1564,-2.0,-3.0,-11.0,-8.0,-8.0,-5.0,-5.0,-1.0,1650916614640621.0,0
1565,3.0,1.0,-1.0,2.0,-3.0,-1.0,-7.0,-3.0,1650916614640621.0,0
1566,0.0,1.0,-4.0,-4.0,1.0,-8.0,-2.0,1.0,1650916614648486.0,0
1567,-4.0,-1.0,6.0,7.0,0.0,5.0,10.0,2.0,1650916614648486.0,0
1568,2.0,1.0,6.0,5.0,4.0,2.0,0.0,2.0,1650916614671801.0,0
1569,0.0,-1.0,0.0,-3.0,7.0,4.0,-5.0,-2.0,1650916614671801.0,0
1570,-1.0,-1.0,-3.0,-2.0,-7.0,-2.0,-3.0,-7.0,1650916614672639.0,0
1571,-6.0,1.0,2.0,-3.0,1.0,-7.0,1.0,1.0,1650916614672639.0,0
1572,-2.0,-3.0,-5.0,1.0,-7.0,0.0,-3.0,-1.0,1650916614686809.0,0
1573,-4.0,-2.0,-3.0,-5.0,1.0,0.0,-2.0,-1.0,1650916614686809.0,0
1574,2.0,1.0,-5.0,-5.0,-1.0,-3.0,-2.0,1.0,1650916614687811.0,0
1575,1.0,0.0,-5.0,-6.0,-4.0,2.0,3.0,1.0,1650916614687811.0,0
1576,1.0,-2.0,6.0,10.0,9.0,7.0,7.0,-1.0,1650916614699952.0,0
1577,2.0,3.0,4.0,1.0,11.0,8.0,-1.0,6.0,1650916614699952.0,0
1578,1.0,-2.0,-6.0,-8.0,-11.0,-17.0,-6.0,-2.0,1650916614716254.0,0
1579,-1.0,-4.0,-3.0,-4.0,-2.0,3.0,3.0,1.0,1650916614716254.0,0
1580,-1.0,3.0,8.0,5.0,6.0,7.0,-3.0,0.0,1650916614724266.0,0
1581,-3.0,-5.0,-12.0,-2.0,-7.0,-7.0,5.0,-4.0,1650916614724266.0,0
1582,2.0,2.0,14.0,7.0,1.0,-2.0,-2.0,2.0,1650916614725230.0,0
1583,4.0,1.0,6.0,3.0,-6.0,-10.0,-9.0,-2.0,1650916614725230.0,0
1584,-14.0,-5.0,-17.0,-13.0,-4.0,3.0,-2.0,-10.0,1650916614746701.0,0
1585,2.0,4.0,21.0,25.0,8.0,5.0,1.0,6.0,1650916614746701.0,0
1586,3.0,-1.0,-12.0,-13.0,-4.0,-3.0,-3.0,-11.0,1650916614747523.0,0
1587,0.0,-8.0,-21.0,-24.0,-10.0,-5.0,-3.0,-4.0,1650916614747523.0,0
1588,-8.0,-1.0,2.0,-5.0,-4.0,-5.0,-2.0,0.0,1650916614760642.0,0
1589,3.0,-1.0,-6.0,-3.0,-8.0,-7.0,-2.0,-4.0,1650916614760642.0,0
1590,-5.0,-1.0,8.0,10.0,-6.0,-1.0,2.0,2.0,1650916614768621.0,0
1591,6.0,2.0,6.0,10.0,18.0,14.0,2.0,6.0,1650916614768621.0,0
1592,25.0,6.0,33.0,23.0,15.0,11.0,10.0,3.0,1650916614783837.0,0
1593,-63.0,-12.0,-27.0,-21.0,-6.0,-5.0,-2.0,-4.0,1650916614783837.0,0
1594,8.0,6.0,4.0,21.0,8.0,-2.0,2.0,5.0,1650916614784837.0,0
1595,-28.0,-9.0,-17.0,-37.0,-24.0,-14.0,-6.0,-14.0,1650916614784837.0,0
1596,9.0,5.0,13.0,12.0,3.0,2.0,-1.0,11.0,1650916614805870.0,0
1597,16.0,5.0,36.0,32.0,10.0,1.0,0.0,1.0,1650916614805870.0,3
1598,4.0,-2.0,14.0,2.0,3.0,5.0,-1.0,-3.0,1650916614813808.0,3
1599,0.0,-2.0,-43.0,-26.0,-1.0,-7.0,1.0,4.0,1650916614813808.0,3
1600,0.0,-2.0,10.0,11.0,-4.0,-3.0,-2.0,-3.0,1650916614820732.0,3
1601,-11.0,-3.0,-19.0,-9.0,-7.0,-1.0,-4.0,-4.0,1650916614820732.0,3
1602,-4.0,0.0,-1.0,-2.0,0.0,1.0,5.0,6.0,1650916614828568.0,3
1603,5.0,-5.0,10.0,21.0,12.0,8.0,3.0,1.0,1650916614828568.0,3
1604,-1.0,5.0,31.0,30.0,0.0,-2.0,-3.0,5.0,1650916614843757.0,3
1605,13.0,2.0,-16.0,-21.0,-2.0,1.0,4.0,2.0,1650916614843757.0,3
1606,0.0,-2.0,9.0,17.0,-1.0,0.0,-4.0,8.0,1650916614844752.0,3
1607,17.0,11.0,40.0,17.0,12.0,11.0,4.0,1.0,1650916614844752.0,3
1608,-31.0,-8.0,-35.0,-18.0,4.0,5.0,6.0,14.0,1650916614866098.0,3
1609,33.0,-3.0,12.0,-4.0,-8.0,-7.0,-9.0,-26.0,1650916614866098.0,3
1610,11.0,14.0,12.0,10.0,7.0,2.0,-1.0,3.0,1650916614867981.0,3
1611,-23.0,-13.0,-20.0,-8.0,-10.0,-8.0,-4.0,-14.0,1650916614867981.0,3
1612,7.0,13.0,40.0,41.0,9.0,2.0,-3.0,7.0,1650916614881006.0,3
1613,-3.0,-18.0,-46.0,-37.0,-14.0,-10.0,-5.0,-13.0,1650916614881006.0,3
1614,-30.0,-6.0,-60.0,-50.0,-4.0,4.0,3.0,-10.0,1650916614896125.0,3
1615,30.0,17.0,54.0,49.0,12.0,6.0,0.0,1.0,1650916614896125.0,3
1616,-41.0,-20.0,-42.0,-14.0,-6.0,-8.0,1.0,5.0,1650916614903988.0,3
1617,16.0,-21.0,-61.0,-61.0,-16.0,-7.0,-6.0,0.0,1650916614903988.0,3
1618,7.0,4.0,34.0,13.0,-4.0,0.0,0.0,-14.0,1650916614904977.0,3
1619,-8.0,-4.0,-19.0,8.0,4.0,3.0,3.0,7.0,1650916614904977.0,3
1620,31.0,11.0,45.0,20.0,-1.0,-3.0,3.0,-3.0,1650916614927246.0,3
1621,4.0,7.0,3.0,2.0,15.0,7.0,5.0,19.0,1650916614927246.0,3
1622,0.0,-12.0,18.0,33.0,7.0,-1.0,3.0,23.0,1650916614928087.0,3
1623,26.0,3.0,-62.0,-81.0,-23.0,-9.0,-8.0,0.0,1650916614928087.0,3
1624,-16.0,30.0,88.0,23.0,16.0,6.0,6.0,-28.0,1650916614940054.0,3
1625,-28.0,-39.0,-91.0,-2.0,-21.0,-13.0,-11.0,-23.0,1650916614940054.0,3
1626,13.0,15.0,67.0,58.0,18.0,7.0,4.0,6.0,1650916614949240.0,3
1627,-9.0,-23.0,-44.0,-30.0,-6.0,6.0,4.0,5.0,1650916614949240.0,3
1628,12.0,-1.0,12.0,22.0,1.0,-4.0,-5.0,6.0,1650916614964392.0,3
1629,31.0,42.0,75.0,-7.0,-6.0,2.0,4.0,4.0,1650916614964392.0,3
1630,-35.0,-37.0,-96.0,-80.0,-21.0,-11.0,-9.0,-2.0,1650916614965392.0,3
1631,-26.0,4.0,1.0,-2.0,-3.0,-6.0,-3.0,-17.0,1650916614965392.0,3
1632,14.0,20.0,28.0,-6.0,-5.0,-6.0,-2.0,-15.0,1650916614987250.0,3
1633,-30.0,-38.0,-12.0,12.0,-1.0,2.0,2.0,4.0,1650916614987250.0,3
1634,46.0,49.0,112.0,109.0,36.0,20.0,10.0,4.0,1650916614992402.0,3
1635,-40.0,-62.0,-88.0,-79.0,-35.0,-27.0,-24.0,-7.0,1650916614992402.0,3
1636,-3.0,8.0,-25.0,-55.0,-8.0,-1.0,4.0,4.0,1650916615000218.0,3
1637,-10.0,17.0,46.0,83.0,25.0,9.0,9.0,-19.0,1650916615000218.0,3
1638,2.0,16.0,24.0,-90.0,-22.0,-3.0,-8.0,-30.0,1650916615009223.0,3
1639,7.0,-38.0,-44.0,-17.0,-20.0,-20.0,-11.0,-4.0,1650916615009223.0,3
1640,-31.0,-17.0,-27.0,-1.0,3.0,1.0,-15.0,-1.0,1650916615024388.0,3
1641,-5.0,38.0,127.0,85.0,21.0,12.0,13.0,9.0,1650916615024388.0,3
1642,-1.0,1.0,-61.0,24.0,12.0,4.0,0.0,-5.0,1650916615025351.0,3
1643,6.0,11.0,69.0,36.0,-5.0,-1.0,-2.0,-5.0,1650916615025351.0,3
1644,33.0,17.0,37.0,38.0,4.0,-3.0,-1.0,9.0,1650916615048794.0,3
1645,-12.0,-29.0,-100.0,-91.0,-19.0,-1.0,1.0,30.0,1650916615048794.0,3
1646,0.0,32.0,116.0,77.0,13.0,0.0,-2.0,-21.0,1650916615048794.0,3
1647,-5.0,-30.0,-77.0,-40.0,-12.0,-3.0,-3.0,-10.0,1650916615048794.0,3
1648,11.0,-7.0,11.0,52.0,0.0,-10.0,-2.0,9.0,1650916615069467.0,3
1649,-3.0,3.0,-16.0,-25.0,-9.0,-4.0,0.0,19.0,1650916615069467.0,3
1650,7.0,13.0,31.0,51.0,22.0,12.0,9.0,18.0,1650916615070314.0,3
1651,-23.0,-11.0,-21.0,-29.0,-6.0,0.0,2.0,0.0,1650916615070314.0,3
1652,2.0,-28.0,-86.0,-57.0,-22.0,-10.0,-11.0,-8.0,1650916615084246.0,3
1653,-8.0,7.0,58.0,45.0,14.0,-2.0,-8.0,-37.0,1650916615084246.0,3
1654,13.0,-23.0,-34.0,-25.0,-12.0,2.0,14.0,40.0,1650916615085188.0,3
1655,12.0,15.0,-6.0,33.0,21.0,7.0,-21.0,-47.0,1650916615085188.0,3
1656,-8.0,0.0,-46.0,-82.0,-20.0,-7.0,17.0,5.0,1650916615106582.0,3
1657,29.0,15.0,47.0,40.0,-2.0,-9.0,-8.0,3.0,1650916615106582.0,3
1658,-24.0,-39.0,-81.0,-92.0,-19.0,-10.0,-3.0,14.0,1650916615107447.0,3
1659,11.0,57.0,127.0,127.0,46.0,25.0,16.0,-2.0,1650916615107447.0,3
1660,4.0,3.0,56.0,37.0,19.0,17.0,3.0,-11.0,1650916615129569.0,3
1661,36.0,-5.0,-42.0,1.0,7.0,6.0,-3.0,0.0,1650916615129569.0,3
1662,-36.0,1.0,2.0,-2.0,-19.0,-15.0,-10.0,-12.0,1650916615130602.0,3
1663,20.0,-19.0,34.0,-64.0,-16.0,-8.0,8.0,49.0,1650916615130602.0,3
1664,-2.0,-11.0,-38.0,-13.0,-13.0,-15.0,-11.0,-16.0,1650916615143886.0,3
1665,14.0,27.0,100.0,73.0,25.0,8.0,11.0,19.0,1650916615143886.0,3
1666,2.0,-2.0,-19.0,-19.0,-6.0,2.0,-4.0,-8.0,1650916615149747.0,3
1667,11.0,10.0,-12.0,2.0,0.0,2.0,6.0,23.0,1650916615149747.0,3
1668,-7.0,-14.0,-36.0,-9.0,8.0,4.0,1.0,-15.0,1650916615166062.0,3
1669,-14.0,-9.0,-12.0,-41.0,-15.0,-7.0,-4.0,-5.0,1650916615166062.0,3
1670,17.0,38.0,97.0,73.0,27.0,14.0,3.0,3.0,1650916615168124.0,3
1671,-47.0,-36.0,-26.0,-30.0,-30.0,-22.0,-4.0,-3.0,1650916615168124.0,3
1672,12.0,7.0,61.0,18.0,7.0,8.0,-1.0,-16.0,1650916615188472.0,3
1673,0.0,2.0,-46.0,-32.0,-7.0,-1.0,-3.0,20.0,1650916615188472.0,3
1674,0.0,-16.0,-17.0,30.0,3.0,-3.0,-2.0,-22.0,1650916615190469.0,3
1675,17.0,9.0,6.0,1.0,7.0,10.0,20.0,-3.0,1650916615190469.0,3
1676,-9.0,-8.0,18.0,52.0,12.0,7.0,2.0,26.0,1650916615203435.0,3
1677,-14.0,-16.0,-114.0,-128.0,-27.0,-11.0,-6.0,11.0,1650916615203435.0,3
1678,3.0,-3.0,6.0,-9.0,-8.0,-5.0,-6.0,6.0,1650916615209419.0,3
1679,9.0,35.0,53.0,100.0,32.0,16.0,7.0,-2.0,1650916615209419.0,3
1680,-7.0,-36.0,-114.0,-107.0,-36.0,-18.0,-5.0,-6.0,1650916615226407.0,3
1681,-2.0,14.0,60.0,17.0,3.0,-1.0,0.0,-9.0,1650916615226407.0,3
1682,10.0,11.0,-18.0,-14.0,-6.0,2.0,6.0,13.0,1650916615227371.0,3
1683,-3.0,-17.0,-50.0,-21.0,-3.0,-1.0,-6.0,-11.0,1650916615227371.0,3
1684,9.0,9.0,40.0,17.0,8.0,-4.0,-5.0,14.0,1650916615249283.0,3
1685,-27.0,7.0,-23.0,-2.0,4.0,5.0,2.0,10.0,1650916615249283.0,3
1686,24.0,-24.0,-94.0,-31.0,-19.0,-10.0,-9.0,-23.0,1650916615250283.0,3
1687,47.0,35.0,40.0,11.0,8.0,4.0,5.0,15.0,1650916615250283.0,3
1688,-26.0,7.0,45.0,37.0,6.0,2.0,-6.0,-21.0,1650916615263509.0,3
1689,5.0,-10.0,17.0,59.0,-10.0,-26.0,-4.0,11.0,1650916615263509.0,3
1690,-13.0,-4.0,-19.0,-49.0,3.0,13.0,2.0,-12.0,1650916615270509.0,3
1691,15.0,1.0,40.0,47.0,15.0,16.0,0.0,-2.0,1650916615270509.0,3
1692,-24.0,0.0,-21.0,-18.0,8.0,5.0,4.0,3.0,1650916615286849.0,3
1693,-2.0,23.0,96.0,62.0,5.0,5.0,15.0,10.0,1650916615286849.0,3
1694,-24.0,-35.0,-77.0,-33.0,-14.0,-16.0,-15.0,-19.0,1650916615287709.0,3
1695,-8.0,-1.0,27.0,2.0,-15.0,-13.0,-1.0,1.0,1650916615287709.0,3
1696,12.0,31.0,-15.0,-24.0,-10.0,-3.0,-6.0,2.0,1650916615309023.0,3
1697,2.0,12.0,63.0,36.0,17.0,12.0,1.0,-10.0,1650916615309023.0,3
1698,-1.0,-9.0,-15.0,13.0,8.0,-2.0,-1.0,8.0,1650916615315235.0,3
1699,-10.0,29.0,60.0,16.0,23.0,16.0,13.0,8.0,1650916615315235.0,3
1700,0.0,-20.0,-63.0,-29.0,-21.0,-14.0,-6.0,-2.0,1650916615323192.0,3
1701,16.0,3.0,-17.0,13.0,7.0,12.0,5.0,-1.0,1650916615323192.0,3
1702,-8.0,-15.0,-40.0,-71.0,-20.0,-4.0,-3.0,0.0,1650916615330382.0,3
1703,-2.0,6.0,30.0,36.0,8.0,-2.0,0.0,5.0,1650916615330382.0,3
1704,6.0,4.0,4.0,11.0,6.0,7.0,6.0,3.0,1650916615346717.0,3
1705,5.0,-19.0,-21.0,-12.0,-1.0,2.0,2.0,-6.0,1650916615346717.0,3
1706,-10.0,24.0,64.0,20.0,16.0,7.0,9.0,15.0,1650916615347719.0,3
1707,-2.0,-12.0,-47.0,-31.0,-1.0,-1.0,-3.0,-8.0,1650916615347719.0,3
1708,-19.0,28.0,100.0,46.0,14.0,10.0,6.0,33.0,1650916615369382.0,3
1709,1.0,-27.0,-63.0,-58.0,-30.0,-24.0,-8.0,-17.0,1650916615369382.0,3
1710,10.0,-28.0,8.0,26.0,7.0,3.0,-5.0,7.0,1650916615370331.0,3
1711,6.0,21.0,74.0,66.0,15.0,9.0,5.0,7.0,1650916615370331.0,3
1712,14.0,0.0,-46.0,-96.0,-13.0,4.0,3.0,1.0,1650916615383498.0,3
1713,-3.0,-23.0,49.0,50.0,6.0,-1.0,-6.0,-9.0,1650916615383498.0,3
1714,-14.0,-17.0,-42.0,-6.0,-6.0,-8.0,-4.0,-5.0,1650916615389522.0,3
1715,-1.0,24.0,30.0,4.0,0.0,-3.0,-2.0,3.0,1650916615389522.0,3
1716,6.0,-25.0,1.0,39.0,9.0,4.0,-1.0,-14.0,1650916615406562.0,3
1717,-8.0,-22.0,-65.0,-70.0,-21.0,-5.0,-1.0,23.0,1650916615406562.0,3
1718,-4.0,21.0,51.0,15.0,5.0,5.0,3.0,-6.0,1650916615407457.0,3
1719,-4.0,9.0,16.0,28.0,6.0,-5.0,-11.0,-33.0,1650916615407457.0,3
1720,-6.0,-13.0,-23.0,-8.0,-8.0,-14.0,-4.0,-3.0,1650916615429559.0,3
1721,4.0,18.0,3.0,18.0,8.0,12.0,1.0,7.0,1650916615429559.0,3
1722,-7.0,-43.0,-70.0,-46.0,-18.0,0.0,3.0,20.0,1650916615429939.0,3
1723,15.0,5.0,9.0,2.0,8.0,5.0,2.0,-14.0,1650916615429939.0,3
1724,4.0,9.0,-48.0,-43.0,-9.0,-4.0,-3.0,-9.0,1650916615443069.0,3
1725,37.0,20.0,78.0,47.0,12.0,-2.0,0.0,-14.0,1650916615443069.0,3
1726,-58.0,-4.0,-1.0,39.0,-8.0,-14.0,-6.0,8.0,1650916615449888.0,3
1727,-15.0,-8.0,-45.0,-75.0,-37.0,-17.0,-16.0,1.0,1650916615449888.0,3
1728,21.0,-2.0,80.0,70.0,9.0,-5.0,5.0,-5.0,1650916615466055.0,3
1729,-5.0,-8.0,6.0,-9.0,10.0,15.0,-1.0,24.0,1650916615466055.0,3
1730,3.0,3.0,13.0,21.0,3.0,5.0,2.0,-12.0,1650916615468082.0,3
1731,5.0,-4.0,-69.0,-34.0,-1.0,1.0,10.0,17.0,1650916615468082.0,3
1732,2.0,23.0,54.0,33.0,11.0,3.0,-1.0,-1.0,1650916615489673.0,3
1733,-12.0,-2.0,-48.0,-20.0,-7.0,-6.0,-4.0,0.0,1650916615489673.0,3
1734,26.0,29.0,86.0,23.0,3.0,1.0,7.0,7.0,1650916615490400.0,3
1735,-43.0,-55.0,-116.0,-70.0,-20.0,-8.0,-9.0,-18.0,1650916615490400.0,3
1736,12.0,-11.0,7.0,3.0,7.0,7.0,7.0,14.0,1650916615503585.0,3
1737,-8.0,26.0,55.0,8.0,-6.0,-2.0,0.0,-8.0,1650916615503585.0,3
1738,11.0,-21.0,-44.0,-4.0,-1.0,-2.0,-1.0,1.0,1650916615510727.0,3
1739,2.0,-4.0,7.0,-13.0,-11.0,-8.0,-7.0,-19.0,1650916615510727.0,3
1740,-20.0,20.0,48.0,39.0,13.0,7.0,10.0,20.0,1650916615526557.0,3
1741,12.0,-3.0,-46.0,-30.0,-6.0,2.0,-2.0,-15.0,1650916615526557.0,3
1742,10.0,23.0,29.0,3.0,1.0,0.0,-10.0,-36.0,1650916615527558.0,3
1743,13.0,29.0,67.0,67.0,22.0,14.0,17.0,16.0,1650916615527558.0,3
1744,-6.0,-28.0,-35.0,-24.0,-10.0,-5.0,4.0,26.0,1650916615549344.0,3
1745,16.0,32.0,81.0,48.0,24.0,12.0,-2.0,-7.0,1650916615549344.0,3
1746,-28.0,-31.0,-68.0,-73.0,-13.0,-2.0,1.0,1.0,1650916615550344.0,3
1747,-18.0,22.0,51.0,64.0,14.0,2.0,-7.0,-9.0,1650916615550344.0,3
1748,41.0,-15.0,-103.0,-68.0,-35.0,-21.0,-15.0,-29.0,1650916615562674.0,3
1749,2.0,33.0,60.0,82.0,32.0,11.0,12.0,15.0,1650916615562674.0,3
1750,-5.0,-27.0,0.0,-38.0,-41.0,-21.0,-17.0,-20.0,1650916615571683.0,3
1751,1.0,23.0,83.0,7.0,9.0,11.0,15.0,33.0,1650916615571683.0,3
1752,-42.0,-47.0,-126.0,-72.0,-30.0,-14.0,-17.0,-53.0,1650916615586393.0,3
1753,8.0,-7.0,18.0,50.0,8.0,4.0,5.0,25.0,1650916615586393.0,3
1754,15.0,9.0,-43.0,-29.0,16.0,9.0,7.0,7.0,1650916615588391.0,3
1755,14.0,-14.0,-8.0,-6.0,4.0,2.0,0.0,12.0,1650916615588391.0,3
1756,18.0,40.0,90.0,64.0,3.0,0.0,5.0,33.0,1650916615609605.0,3
1757,-2.0,3.0,-57.0,-88.0,-4.0,1.0,2.0,-12.0,1650916615609605.0,3
1758,7.0,21.0,66.0,106.0,29.0,8.0,5.0,15.0,1650916615610603.0,3
1759,21.0,-11.0,-48.0,-23.0,-12.0,-2.0,-1.0,-5.0,1650916615610603.0,3
1760,-10.0,-22.0,-58.0,-78.0,-14.0,-3.0,-1.0,5.0,1650916615622574.0,3
1761,-24.0,-10.0,33.0,64.0,-11.0,-17.0,-14.0,-32.0,1650916615622574.0,3
1762,21.0,42.0,36.0,53.0,15.0,14.0,8.0,20.0,1650916615638050.0,3
1763,7.0,1.0,78.0,70.0,14.0,7.0,2.0,7.0,1650916615638050.0,3
1764,-27.0,-13.0,-72.0,-27.0,-10.0,-3.0,-8.0,-5.0,1650916615647027.0,3
1765,1.0,-30.0,-42.0,-17.0,-15.0,-4.0,-5.0,-18.0,1650916615647027.0,3
1766,12.0,6.0,-4.0,-58.0,1.0,3.0,7.0,13.0,1650916615647863.0,3
1767,56.0,42.0,62.0,67.0,5.0,-7.0,-11.0,4.0,1650916615647863.0,3
1768,-35.0,-48.0,-32.0,-17.0,-8.0,-8.0,12.0,9.0,1650916615669532.0,3
1769,5.0,33.0,64.0,-6.0,4.0,2.0,-2.0,5.0,1650916615669532.0,3
1770,-9.0,-20.0,-57.0,-59.0,-15.0,-4.0,-1.0,-8.0,1650916615670565.0,3
1771,-39.0,-71.0,-128.0,-79.0,-20.0,-14.0,-16.0,-14.0,1650916615670565.0,3
1772,24.0,15.0,42.0,12.0,8.0,8.0,0.0,-18.0,1650916615682705.0,3
1773,-17.0,-22.0,-56.0,-47.0,-8.0,-5.0,-4.0,5.0,1650916615682705.0,3
1774,2.0,12.0,50.0,11.0,-17.0,-11.0,0.0,-12.0,1650916615692032.0,3
1775,-3.0,24.0,8.0,-1.0,12.0,7.0,6.0,7.0,1650916615692032.0,3
1776,-9.0,-3.0,-16.0,29.0,-3.0,-8.0,-10.0,-17.0,1650916615706312.0,3
1777,-23.0,-43.0,-103.0,-48.0,-10.0,-12.0,-6.0,-5.0,1650916615706312.0,3
1778,14.0,6.0,40.0,20.0,15.0,5.0,0.0,12.0,1650916615708196.0,3
1779,10.0,-2.0,-54.0,-63.0,-12.0,8.0,7.0,3.0,1650916615708196.0,3
1780,0.0,38.0,81.0,63.0,26.0,14.0,9.0,16.0,1650916615736837.0,3
1781,2.0,-1.0,-22.0,-9.0,-3.0,0.0,-6.0,-17.0,1650916615736837.0,3
1782,-2.0,-3.0,28.0,10.0,-5.0,-9.0,-4.0,7.0,1650916615737674.0,3
1783,-14.0,22.0,106.0,73.0,30.0,17.0,20.0,32.0,1650916615737674.0,3
1784,6.0,-18.0,-73.0,-53.0,-15.0,-5.0,-15.0,-27.0,1650916615742661.0,3
1785,1.0,-12.0,-40.0,-58.0,-21.0,-10.0,-2.0,6.0,1650916615742661.0,3
1786,4.0,12.0,49.0,75.0,19.0,3.0,3.0,-8.0,1650916615751349.0,3
1787,-5.0,14.0,42.0,-13.0,-2.0,1.0,3.0,18.0,1650916615751349.0,3
1788,7.0,-5.0,8.0,13.0,7.0,-4.0,-15.0,-36.0,1650916615766524.0,3
1789,16.0,-18.0,-51.0,-25.0,-19.0,-10.0,-9.0,-14.0,1650916615766524.0,3
1790,-43.0,15.0,46.0,27.0,8.0,6.0,17.0,15.0,1650916615767524.0,3
1791,-18.0,-11.0,-40.0,9.0,-1.0,-5.0,-8.0,-18.0,1650916615767524.0,3
1792,8.0,18.0,69.0,78.0,18.0,13.0,13.0,40.0,1650916615788560.0,3
1793,5.0,9.0,21.0,1.0,-4.0,-2.0,-5.0,-15.0,1650916615788560.0,3
1794,-32.0,2.0,11.0,-30.0,-8.0,-1.0,-4.0,-4.0,1650916615790585.0,3
1795,1.0,-12.0,-9.0,10.0,16.0,6.0,4.0,-4.0,1650916615790585.0,3
1796,1.0,-4.0,-3.0,-16.0,-19.0,-19.0,-17.0,-22.0,1650916615802558.0,3
1797,7.0,37.0,110.0,100.0,32.0,19.0,21.0,18.0,1650916615802558.0,3
1798,-4.0,5.0,17.0,34.0,7.0,6.0,0.0,-17.0,1650916615811735.0,3
1799,-9.0,-47.0,-65.0,-63.0,-38.0,-23.0,-13.0,-21.0,1650916615811735.0,3
1800,-5.0,1.0,18.0,-5.0,7.0,12.0,3.0,6.0,1650916615826638.0,3
1801,-5.0,-33.0,-70.0,-64.0,-15.0,-8.0,-3.0,-4.0,1650916615826638.0,3
1802,19.0,14.0,78.0,79.0,24.0,6.0,2.0,-2.0,1650916615827638.0,3
1803,4.0,-5.0,-62.0,-36.0,-21.0,-7.0,-4.0,14.0,1650916615827638.0,3
1804,1.0,1.0,-18.0,-13.0,-6.0,-3.0,5.0,10.0,1650916615848913.0,3
1805,-25.0,7.0,13.0,-28.0,-2.0,5.0,-6.0,1.0,1650916615848913.0,3
1806,79.0,-8.0,-13.0,16.0,11.0,3.0,6.0,3.0,1650916615850747.0,3
1807,-51.0,-11.0,-14.0,-10.0,-9.0,-8.0,-16.0,-66.0,1650916615850747.0,3
1808,-18.0,-18.0,-59.0,-34.0,-4.0,5.0,12.0,9.0,1650916615872223.0,3
1809,-2.0,48.0,36.0,29.0,6.0,-4.0,-4.0,12.0,1650916615872223.0,3
1810,-20.0,-30.0,-54.0,-23.0,-10.0,-5.0,-7.0,-6.0,1650916615873091.0,3
1811,18.0,13.0,2.0,-40.0,-20.0,-11.0,-11.0,-3.0,1650916615873091.0,3
1812,9.0,5.0,18.0,23.0,6.0,13.0,8.0,1.0,1650916615886638.0,3
1813,-1.0,16.0,52.0,31.0,7.0,3.0,3.0,0.0,1650916615886638.0,3
1814,10.0,23.0,28.0,53.0,3.0,-5.0,-7.0,1.0,1650916615887638.0,3
1815,-4.0,-32.0,-51.0,-62.0,-15.0,-5.0,-1.0,-1.0,1650916615887638.0,3
1816,-5.0,13.0,68.0,36.0,4.0,-4.0,-3.0,-1.0,1650916615909011.0,3
1817,10.0,8.0,33.0,22.0,7.0,11.0,8.0,16.0,1650916615909011.0,3
1818,-3.0,-38.0,-100.0,-68.0,-21.0,-5.0,-5.0,-3.0,1650916615910010.0,3
1819,-1.0,35.0,94.0,80.0,18.0,3.0,9.0,23.0,1650916615910010.0,3
1820,30.0,18.0,60.0,40.0,13.0,9.0,3.0,0.0,1650916615931342.0,3
1821,2.0,-11.0,-10.0,-19.0,0.0,2.0,4.0,3.0,1650916615931342.0,3
1822,7.0,17.0,19.0,-4.0,-2.0,-2.0,-1.0,8.0,1650916615932342.0,3
1823,-28.0,-14.0,-48.0,-10.0,-10.0,-9.0,-1.0,-3.0,1650916615932342.0,3
1824,18.0,19.0,27.0,19.0,8.0,-2.0,-11.0,-6.0,1650916615946715.0,3
1825,-7.0,-23.0,-31.0,8.0,6.0,3.0,4.0,-16.0,1650916615946715.0,3
1826,-29.0,-9.0,-34.0,-51.0,-12.0,-3.0,-11.0,11.0,1650916615947715.0,3
1827,10.0,20.0,28.0,57.0,27.0,18.0,21.0,11.0,1650916615947715.0,3
1828,-15.0,-6.0,41.0,30.0,-22.0,-23.0,-13.0,-19.0,1650916615969692.0,3
1829,0.0,-3.0,1.0,13.0,7.0,7.0,5.0,15.0,1650916615969692.0,3
1830,-9.0,-3.0,18.0,-10.0,-5.0,-12.0,-10.0,-20.0,1650916615970724.0,3
1831,9.0,-11.0,-44.0,-46.0,-13.0,-2.0,-5.0,4.0,1650916615970724.0,3
1832,-8.0,10.0,33.0,-19.0,-8.0,-5.0,1.0,3.0,1650916615982053.0,3
1833,17.0,25.0,56.0,53.0,22.0,15.0,7.0,7.0,1650916615982053.0,3
1834,-28.0,-42.0,-57.0,0.0,-6.0,-7.0,-8.0,-22.0,1650916615991064.0,3
1835,24.0,66.0,114.0,58.0,10.0,-3.0,2.0,6.0,1650916615991064.0,3
1836,-13.0,-39.0,-77.0,-27.0,-5.0,-11.0,6.0,19.0,1650916616006817.0,3
1837,-13.0,-21.0,6.0,-3.0,-26.0,-10.0,-12.0,-27.0,1650916616006817.0,3
1838,30.0,36.0,101.0,54.0,20.0,15.0,13.0,14.0,1650916616007817.0,3
1839,-34.0,-25.0,-37.0,9.0,8.0,-5.0,-7.0,-26.0,1650916616007817.0,3
1840,1.0,8.0,-49.0,-68.0,11.0,22.0,0.0,-5.0,1650916616029350.0,3
1841,13.0,14.0,115.0,82.0,19.0,12.0,5.0,1.0,1650916616029350.0,3
1842,-14.0,-2.0,-37.0,-25.0,-25.0,-14.0,-4.0,-4.0,1650916616030384.0,3
1843,4.0,-50.0,-98.0,-69.0,-23.0,-11.0,-8.0,2.0,1650916616030384.0,3
1844,5.0,-14.0,-52.0,-27.0,-19.0,-18.0,-9.0,4.0,1650916616051336.0,3
1845,-13.0,4.0,-11.0,-23.0,-1.0,0.0,5.0,33.0,1650916616051336.0,3
1846,76.0,17.0,5.0,13.0,10.0,9.0,-11.0,-18.0,1650916616052365.0,3
1847,-32.0,-9.0,21.0,-8.0,4.0,7.0,27.0,37.0,1650916616052365.0,3
1848,25.0,-10.0,2.0,34.0,-1.0,-4.0,-6.0,-20.0,1650916616066322.0,3
1849,-3.0,-18.0,-32.0,-61.0,-19.0,-10.0,-1.0,-4.0,1650916616066322.0,3
1850,-7.0,2.0,-55.0,-23.0,-10.0,-3.0,0.0,10.0,1650916616067328.0,3
1851,22.0,21.0,74.0,61.0,19.0,11.0,-6.0,-18.0,1650916616067328.0,3
1852,-16.0,22.0,41.0,16.0,10.0,13.0,14.0,13.0,1650916616088268.0,3
1853,3.0,-17.0,-51.0,-20.0,-3.0,-4.0,0.0,-14.0,1650916616088268.0,3
1854,-9.0,28.0,103.0,55.0,11.0,-1.0,2.0,10.0,1650916616090233.0,3
1855,7.0,34.0,20.0,-15.0,-7.0,-4.0,-4.0,1.0,1650916616090233.0,3
1856,-5.0,-23.0,10.0,12.0,2.0,1.0,0.0,-3.0,1650916616110855.0,3
1857,-2.0,-7.0,-17.0,-1.0,-6.0,-9.0,-8.0,-8.0,1650916616110855.0,3
1858,-3.0,-2.0,43.0,9.0,-1.0,0.0,3.0,1.0,1650916616112791.0,3
1859,-2.0,-7.0,-61.0,-25.0,-12.0,-10.0,-8.0,-7.0,1650916616112791.0,3
1860,13.0,10.0,18.0,14.0,2.0,9.0,4.0,9.0,1650916616125097.0,3
1861,5.0,17.0,82.0,49.0,18.0,7.0,7.0,12.0,1650916616125097.0,3
1862,-28.0,-44.0,-101.0,-58.0,-25.0,-17.0,-11.0,-12.0,1650916616134262.0,3
1863,11.0,-1.0,35.0,36.0,-7.0,-15.0,-5.0,-1.0,1650916616134262.0,3
1864,-7.0,11.0,-10.0,-11.0,14.0,12.0,-1.0,3.0,1650916616149324.0,3
1865,0.0,-12.0,-34.0,-14.0,0.0,10.0,-1.0,-5.0,1650916616149324.0,3
1866,-9.0,4.0,31.0,-25.0,1.0,5.0,18.0,3.0,1650916616150324.0,3
1867,6.0,-6.0,31.0,32.0,3.0,-5.0,-8.0,-1.0,1650916616150324.0,3
1868,7.0,9.0,22.0,11.0,-4.0,-12.0,-3.0,3.0,1650916616171311.0,3
1869,4.0,8.0,-8.0,0.0,0.0,1.0,-1.0,8.0,1650916616171311.0,3
1870,-2.0,-1.0,-12.0,-13.0,8.0,16.0,3.0,-1.0,1650916616173262.0,3
1871,-1.0,-4.0,24.0,18.0,5.0,6.0,-6.0,-1.0,1650916616173262.0,3
1872,-6.0,-17.0,-32.0,-14.0,-11.0,-11.0,-3.0,-12.0,1650916616185272.0,3
1873,-5.0,-9.0,-26.0,-16.0,-10.0,-11.0,-2.0,-1.0,1650916616185272.0,3
1874,-2.0,-1.0,-29.0,-12.0,1.0,-4.0,-1.0,3.0,1650916616192253.0,3
1875,-1.0,-2.0,2.0,-1.0,0.0,5.0,0.0,-2.0,1650916616192253.0,3
1876,-3.0,8.0,29.0,12.0,2.0,-1.0,1.0,3.0,1650916616208189.0,3
1877,1.0,2.0,-3.0,-4.0,-7.0,-5.0,-1.0,-4.0,1650916616208189.0,3
1878,-6.0,-13.0,-33.0,-12.0,-4.0,2.0,2.0,-2.0,1650916616210183.0,3
1879,-4.0,3.0,7.0,3.0,12.0,9.0,-9.0,-2.0,1650916616210183.0,3
1880,3.0,5.0,16.0,18.0,0.0,-2.0,0.0,2.0,1650916616231774.0,3
1881,-1.0,-3.0,-34.0,-28.0,-22.0,-18.0,17.0,2.0,1650916616231774.0,3
1882,-4.0,2.0,7.0,5.0,12.0,13.0,-5.0,-4.0,1650916616237780.0,3
1883,1.0,-3.0,0.0,-7.0,1.0,10.0,11.0,4.0,1650916616237780.0,3
