,EMG_s0,EMG_s1,EMG_s2,EMG_s3,EMG_s4,EMG_s5,EMG_s6,EMG_s7,timestamp,signal
0,-1.0,-3.0,-5.0,-3.0,-3.0,-1.0,-1.0,-1.0,1651093894573671.0,0
1,-1.0,0.0,-1.0,-4.0,-1.0,-1.0,-1.0,-1.0,1651093894573671.0,0
2,0.0,0.0,-1.0,-1.0,-3.0,-4.0,0.0,0.0,1651093894595875.0,0
3,1.0,-2.0,0.0,2.0,-2.0,0.0,-1.0,0.0,1651093894595875.0,0
4,-1.0,-1.0,1.0,1.0,-2.0,-3.0,0.0,0.0,1651093894596746.0,0
5,0.0,0.0,0.0,2.0,6.0,2.0,1.0,0.0,1651093894596746.0,0
6,0.0,0.0,-2.0,-5.0,-4.0,-1.0,0.0,-1.0,1651093894609046.0,0
7,-1.0,1.0,-3.0,-1.0,0.0,1.0,0.0,0.0,1651093894609046.0,0
8,0.0,-1.0,0.0,-3.0,-5.0,1.0,-1.0,-1.0,1651093894616186.0,0
9,2.0,1.0,0.0,5.0,-1.0,-1.0,-1.0,-1.0,1651093894616186.0,0
10,-3.0,-1.0,-1.0,3.0,2.0,-1.0,-1.0,1.0,1651093894632240.0,0
11,0.0,0.0,-3.0,-2.0,-1.0,2.0,0.0,0.0,1651093894632240.0,0
12,-1.0,-1.0,-3.0,-2.0,1.0,0.0,0.0,1.0,1651093894633239.0,0
13,0.0,2.0,8.0,-3.0,-1.0,0.0,0.0,1.0,1651093894633239.0,0
14,0.0,-1.0,-2.0,-2.0,-1.0,0.0,-1.0,-1.0,1651093894654668.0,0
15,-1.0,0.0,-2.0,0.0,2.0,-1.0,-1.0,-2.0,1651093894654668.0,0
16,0.0,-1.0,-3.0,0.0,3.0,1.0,0.0,-2.0,1651093894655502.0,0
17,-1.0,0.0,-4.0,-1.0,-3.0,-1.0,-1.0,-1.0,1651093894655502.0,0
18,-1.0,-2.0,-1.0,1.0,-4.0,0.0,0.0,0.0,1651093894669656.0,0
19,-3.0,-1.0,-2.0,0.0,8.0,2.0,-1.0,-1.0,1651093894669656.0,0
20,0.0,-1.0,1.0,0.0,1.0,-1.0,-1.0,-2.0,1651093894670656.0,0
21,0.0,0.0,-1.0,1.0,0.0,-1.0,0.0,0.0,1651093894670656.0,0
22,1.0,0.0,-1.0,-5.0,-8.0,2.0,0.0,-2.0,1651093894691308.0,0
23,-1.0,-2.0,-2.0,-2.0,-4.0,-2.0,-1.0,-1.0,1651093894691308.0,0
24,-1.0,1.0,2.0,4.0,1.0,-1.0,1.0,-1.0,1651093894693303.0,0
25,0.0,-1.0,0.0,-2.0,0.0,0.0,0.0,-1.0,1651093894693303.0,0
26,0.0,-1.0,0.0,-2.0,6.0,1.0,0.0,-1.0,1651093894714605.0,0
27,1.0,-1.0,0.0,-5.0,-5.0,-2.0,0.0,1.0,1651093894714605.0,0
28,-1.0,-2.0,-1.0,3.0,1.0,-2.0,-1.0,0.0,1651093894715600.0,0
29,1.0,0.0,-3.0,-1.0,-3.0,-1.0,-1.0,-2.0,1651093894715600.0,0
30,-1.0,1.0,-2.0,-1.0,-2.0,0.0,-1.0,1.0,1651093894729131.0,0
31,0.0,0.0,0.0,0.0,-2.0,-1.0,-2.0,-1.0,1651093894729131.0,0
32,-2.0,0.0,1.0,-2.0,-1.0,-1.0,0.0,0.0,1651093894735578.0,0
33,-2.0,-4.0,-7.0,-1.0,1.0,-1.0,0.0,1.0,1651093894735578.0,0
34,0.0,2.0,9.0,2.0,3.0,1.0,1.0,0.0,1651093894752457.0,0
35,0.0,1.0,-1.0,4.0,1.0,-2.0,0.0,-2.0,1651093894752457.0,0
36,-1.0,-1.0,-3.0,-1.0,-2.0,1.0,-2.0,0.0,1651093894753317.0,0
37,0.0,-3.0,0.0,3.0,-1.0,0.0,-2.0,-2.0,1651093894753317.0,0
38,-1.0,-3.0,-4.0,-4.0,-2.0,-1.0,-2.0,0.0,1651093894773780.0,0
39,-1.0,-2.0,0.0,-5.0,-4.0,2.0,0.0,-1.0,1651093894773780.0,0
40,-1.0,-1.0,1.0,0.0,0.0,-2.0,-1.0,-1.0,1651093894775778.0,0
41,-1.0,0.0,-1.0,-3.0,-1.0,0.0,-1.0,1.0,1651093894775778.0,0
42,1.0,-2.0,1.0,2.0,2.0,-3.0,-2.0,0.0,1651093894788779.0,0
43,0.0,-2.0,-3.0,-2.0,2.0,0.0,-1.0,0.0,1651093894788779.0,0
44,1.0,-2.0,-2.0,-1.0,-2.0,1.0,1.0,-1.0,1651093894796176.0,0
45,-1.0,0.0,3.0,2.0,4.0,-2.0,0.0,-2.0,1651093894796176.0,0
46,-1.0,0.0,-3.0,-1.0,-1.0,2.0,0.0,0.0,1651093894812031.0,0
47,0.0,-1.0,-2.0,0.0,-3.0,-4.0,-1.0,-1.0,1651093894812031.0,0
48,-1.0,1.0,4.0,-3.0,-2.0,3.0,1.0,0.0,1651093894813027.0,0
49,-1.0,1.0,-2.0,-2.0,-4.0,-2.0,-1.0,1.0,1651093894813027.0,0
50,-1.0,-1.0,-1.0,-5.0,0.0,1.0,1.0,-1.0,1651093894834352.0,0
51,-1.0,0.0,-4.0,4.0,0.0,-4.0,-2.0,0.0,1651093894834352.0,0
52,0.0,-1.0,-2.0,1.0,0.0,-1.0,-1.0,-1.0,1651093894836224.0,0
53,1.0,0.0,1.0,-2.0,-4.0,0.0,0.0,-1.0,1651093894836224.0,0
54,-1.0,0.0,-2.0,1.0,4.0,0.0,-1.0,-1.0,1651093894848207.0,0
55,0.0,0.0,1.0,-7.0,-2.0,-2.0,1.0,-1.0,1651093894848207.0,0
56,-1.0,-1.0,-1.0,-1.0,0.0,-2.0,0.0,0.0,1651093894855191.0,0
57,-1.0,0.0,1.0,1.0,-4.0,1.0,0.0,1.0,1651093894855191.0,0
58,-1.0,-1.0,0.0,-1.0,-2.0,0.0,-1.0,1.0,1651093894872201.0,0
59,-1.0,0.0,-1.0,-2.0,-1.0,-1.0,-1.0,0.0,1651093894872201.0,0
60,0.0,2.0,-1.0,-1.0,0.0,0.0,-3.0,-1.0,1651093894873366.0,0
61,-2.0,-1.0,3.0,-4.0,-3.0,-2.0,0.0,-1.0,1651093894873366.0,0
62,-1.0,-2.0,-1.0,-1.0,-1.0,-2.0,-1.0,-1.0,1651093894894773.0,0
63,0.0,-1.0,0.0,4.0,1.0,3.0,1.0,0.0,1651093894894773.0,0
64,0.0,-2.0,-3.0,-3.0,-2.0,0.0,0.0,-1.0,1651093894895641.0,0
65,0.0,-1.0,-3.0,1.0,-3.0,0.0,-2.0,0.0,1651093894895641.0,0
66,0.0,3.0,1.0,-1.0,-3.0,-1.0,0.0,-1.0,1651093894908653.0,0
67,0.0,1.0,1.0,-2.0,0.0,-1.0,0.0,1.0,1651093894908653.0,0
68,-1.0,-2.0,-3.0,0.0,-1.0,-2.0,0.0,-1.0,1651093894915740.0,0
69,-2.0,-1.0,1.0,0.0,5.0,-1.0,-1.0,0.0,1651093894915740.0,0
70,0.0,-1.0,0.0,1.0,-8.0,-2.0,-1.0,-2.0,1651093894931791.0,0
71,0.0,1.0,0.0,-4.0,2.0,1.0,0.0,-1.0,1651093894931791.0,0
72,0.0,-1.0,0.0,-3.0,-3.0,-3.0,0.0,-1.0,1651093894932788.0,0
73,0.0,-2.0,-1.0,-3.0,1.0,1.0,-1.0,-2.0,1651093894932788.0,0
74,-1.0,-1.0,-2.0,-1.0,-3.0,-3.0,-1.0,0.0,1651093894955130.0,0
75,-1.0,-2.0,-2.0,1.0,-2.0,0.0,0.0,-1.0,1651093894955130.0,0
76,0.0,1.0,-2.0,-3.0,-3.0,0.0,-1.0,1.0,1651093894956110.0,0
77,-1.0,2.0,4.0,4.0,3.0,-1.0,1.0,-1.0,1651093894956110.0,0
78,0.0,0.0,0.0,1.0,2.0,0.0,-1.0,1.0,1651093894968343.0,0
79,0.0,-2.0,-1.0,-2.0,-2.0,1.0,-2.0,-3.0,1651093894968343.0,0
80,-1.0,-2.0,-2.0,-1.0,-2.0,0.0,-1.0,0.0,1651093894975258.0,0
81,-1.0,-1.0,-3.0,1.0,-3.0,0.0,1.0,1.0,1651093894975258.0,0
82,-1.0,0.0,0.0,3.0,0.0,-3.0,0.0,0.0,1651093894991388.0,0
83,-1.0,-1.0,-1.0,1.0,0.0,-1.0,1.0,-1.0,1651093894991388.0,0
84,-1.0,0.0,1.0,0.0,0.0,0.0,1.0,-2.0,1651093894993383.0,0
85,-1.0,0.0,-1.0,-5.0,-4.0,1.0,-3.0,-1.0,1651093894993383.0,0
86,-1.0,-2.0,-1.0,0.0,1.0,-1.0,0.0,-1.0,1651093895014881.0,0
87,-3.0,-1.0,-2.0,0.0,0.0,-1.0,-2.0,-1.0,1651093895014881.0,0
88,1.0,0.0,-1.0,-2.0,-1.0,-2.0,-1.0,0.0,1651093895015718.0,0
89,-1.0,-1.0,-2.0,-1.0,-7.0,-3.0,-1.0,-2.0,1651093895015718.0,0
90,0.0,-1.0,-4.0,-1.0,7.0,1.0,-1.0,0.0,1651093895029211.0,0
91,-2.0,1.0,7.0,-2.0,-2.0,0.0,0.0,0.0,1651093895029211.0,0
92,-2.0,-1.0,0.0,3.0,3.0,-1.0,0.0,0.0,1651093895036193.0,0
93,-1.0,1.0,-1.0,1.0,-2.0,0.0,-2.0,1.0,1651093895036193.0,0
94,0.0,-3.0,-1.0,-2.0,-2.0,1.0,-1.0,0.0,1651093895052005.0,0
95,-1.0,-2.0,0.0,0.0,0.0,-2.0,-3.0,1.0,1651093895052005.0,0
96,1.0,2.0,0.0,-4.0,0.0,0.0,0.0,-2.0,1651093895052982.0,0
97,1.0,-2.0,-2.0,-1.0,-7.0,0.0,0.0,-1.0,1651093895052982.0,0
98,-2.0,-2.0,-1.0,6.0,4.0,1.0,-1.0,-1.0,1651093895074287.0,0
99,1.0,0.0,-1.0,-2.0,1.0,1.0,0.0,-1.0,1651093895074287.0,0
100,0.0,1.0,-1.0,-1.0,-1.0,-1.0,-2.0,-1.0,1651093895076299.0,0
101,-3.0,-3.0,-2.0,-2.0,4.0,-2.0,0.0,-1.0,1651093895076299.0,0
102,0.0,0.0,1.0,-3.0,-5.0,-1.0,0.0,-1.0,1651093895088755.0,0
103,-1.0,-1.0,-1.0,-3.0,-7.0,2.0,-1.0,-1.0,1651093895088755.0,0
104,1.0,-3.0,-8.0,2.0,1.0,-2.0,0.0,0.0,1651093895097047.0,0
105,-1.0,2.0,5.0,1.0,1.0,0.0,1.0,-2.0,1651093895097047.0,0
106,-1.0,-2.0,0.0,-1.0,-3.0,-3.0,-1.0,-2.0,1651093895112098.0,0
107,0.0,0.0,-2.0,1.0,1.0,1.0,0.0,1.0,1651093895112098.0,0
108,1.0,-1.0,1.0,-1.0,-2.0,-1.0,-1.0,1.0,1651093895113116.0,0
109,0.0,-2.0,-2.0,-1.0,2.0,0.0,-1.0,0.0,1651093895113116.0,0
110,-1.0,-1.0,-1.0,-1.0,1.0,-2.0,0.0,0.0,1651093895134983.0,0
111,0.0,0.0,-2.0,2.0,1.0,-2.0,-2.0,0.0,1651093895134983.0,0
112,-1.0,0.0,1.0,0.0,1.0,1.0,-1.0,-1.0,1651093895135822.0,0
113,0.0,-2.0,-1.0,1.0,0.0,-1.0,-1.0,-1.0,1651093895135822.0,0
114,0.0,1.0,-2.0,-4.0,-3.0,0.0,0.0,-2.0,1651093895148415.0,0
115,0.0,0.0,-3.0,-2.0,-1.0,1.0,1.0,-1.0,1651093895148415.0,0
116,-2.0,-2.0,2.0,0.0,0.0,0.0,-1.0,0.0,1651093895157526.0,0
117,0.0,1.0,-1.0,-3.0,-2.0,-1.0,-1.0,2.0,1651093895157526.0,0
118,0.0,0.0,-2.0,-1.0,-2.0,-3.0,-1.0,-2.0,1651093895172187.0,0
119,0.0,-2.0,-1.0,0.0,-2.0,1.0,1.0,0.0,1651093895172187.0,0
120,-2.0,1.0,-1.0,0.0,-2.0,0.0,0.0,-1.0,1651093895173513.0,0
121,0.0,-3.0,-4.0,-3.0,0.0,-1.0,-2.0,-2.0,1651093895173513.0,0
122,0.0,3.0,7.0,-1.0,-2.0,0.0,1.0,1.0,1651093895194018.0,0
123,1.0,-1.0,-2.0,2.0,1.0,-1.0,2.0,0.0,1651093895194018.0,0
124,0.0,-3.0,-2.0,-5.0,-2.0,-1.0,0.0,-2.0,1651093895196049.0,0
125,0.0,-1.0,-4.0,4.0,2.0,-1.0,-2.0,1.0,1651093895196049.0,0
126,-1.0,-1.0,1.0,4.0,3.0,0.0,0.0,0.0,1651093895208003.0,0
127,0.0,1.0,1.0,0.0,-2.0,0.0,-1.0,-2.0,1651093895208003.0,0
128,-2.0,1.0,0.0,-3.0,-1.0,-1.0,-1.0,-1.0,1651093895217177.0,0
129,0.0,0.0,-1.0,-4.0,-3.0,0.0,-1.0,1.0,1651093895217177.0,0
130,0.0,-4.0,-2.0,-1.0,4.0,0.0,-2.0,-1.0,1651093895231384.0,0
131,-2.0,-1.0,-1.0,0.0,-2.0,-2.0,0.0,0.0,1651093895231384.0,0
132,0.0,-2.0,-1.0,-2.0,-5.0,-1.0,0.0,-1.0,1651093895233377.0,0
133,-1.0,-2.0,1.0,-1.0,3.0,1.0,1.0,-2.0,1651093895233377.0,0
134,0.0,2.0,-1.0,-1.0,-4.0,-2.0,0.0,1.0,1651093895254448.0,0
135,-1.0,0.0,-1.0,-3.0,1.0,2.0,-1.0,0.0,1651093895254448.0,0
136,-1.0,-1.0,1.0,4.0,-1.0,-5.0,-1.0,0.0,1651093895256279.0,0
137,-2.0,-1.0,-2.0,2.0,-1.0,-1.0,1.0,-1.0,1651093895256279.0,0
138,-2.0,-2.0,-5.0,-1.0,2.0,0.0,0.0,-1.0,1651093895268453.0,0
139,-1.0,0.0,6.0,0.0,0.0,-1.0,0.0,-1.0,1651093895268453.0,0
140,0.0,0.0,1.0,0.0,1.0,1.0,0.0,-1.0,1651093895277437.0,0
141,1.0,0.0,1.0,-2.0,-1.0,-2.0,2.0,-1.0,1651093895277437.0,0
142,0.0,1.0,-1.0,-1.0,-4.0,1.0,-1.0,-2.0,1651093895291461.0,0
143,-1.0,-1.0,-2.0,-1.0,1.0,-1.0,1.0,1.0,1651093895291461.0,0
144,-1.0,1.0,-2.0,-6.0,0.0,0.0,-1.0,1.0,1651093895293482.0,0
145,-2.0,-1.0,-3.0,2.0,-3.0,0.0,-1.0,0.0,1651093895293482.0,0
146,-3.0,-2.0,-3.0,-1.0,3.0,2.0,-1.0,-2.0,1651093895314039.0,0
147,0.0,0.0,0.0,0.0,3.0,-1.0,-1.0,-1.0,1651093895314039.0,0
148,0.0,2.0,0.0,0.0,-1.0,1.0,-1.0,-1.0,1651093895315937.0,0
149,0.0,-3.0,-4.0,0.0,-2.0,-2.0,-1.0,0.0,1651093895315937.0,0
150,-1.0,0.0,0.0,-1.0,-2.0,-3.0,-2.0,0.0,1651093895328429.0,0
151,-3.0,0.0,1.0,-3.0,-5.0,-1.0,-2.0,1.0,1651093895328429.0,0
152,-1.0,-3.0,-6.0,2.0,1.0,-1.0,-2.0,0.0,1651093895337055.0,0
153,0.0,4.0,7.0,-1.0,3.0,0.0,0.0,0.0,1651093895337055.0,0
154,0.0,-2.0,2.0,3.0,-2.0,-1.0,0.0,0.0,1651093895351510.0,0
155,0.0,-1.0,-3.0,-2.0,-3.0,-2.0,0.0,-1.0,1651093895351510.0,0
156,1.0,-1.0,-1.0,-1.0,-2.0,1.0,1.0,-2.0,1651093895353507.0,0
157,-1.0,-3.0,-4.0,0.0,-1.0,1.0,1.0,0.0,1651093895353507.0,0
158,0.0,-2.0,-1.0,-5.0,-1.0,0.0,0.0,-2.0,1651093895373767.0,0
159,1.0,-1.0,-5.0,-2.0,-1.0,-1.0,-3.0,-2.0,1651093895373767.0,0
160,0.0,-1.0,0.0,0.0,-1.0,0.0,-1.0,-1.0,1651093895375765.0,0
161,-1.0,-1.0,-1.0,0.0,0.0,1.0,-3.0,-1.0,1651093895375765.0,0
162,1.0,0.0,1.0,-1.0,-2.0,1.0,0.0,0.0,1651093895388802.0,0
163,-1.0,-2.0,-2.0,1.0,-2.0,0.0,-1.0,0.0,1651093895388802.0,0
164,-1.0,0.0,0.0,1.0,-1.0,0.0,-3.0,0.0,1651093895404090.0,0
165,0.0,-1.0,1.0,-2.0,-1.0,-1.0,-1.0,-2.0,1651093895404090.0,0
166,-1.0,0.0,-2.0,-2.0,-2.0,0.0,-1.0,0.0,1651093895412149.0,0
167,-1.0,-1.0,0.0,11.0,4.0,-1.0,-1.0,-2.0,1651093895412149.0,0
168,0.0,-1.0,-2.0,-3.0,1.0,-1.0,1.0,0.0,1651093895413004.0,0
169,-1.0,0.0,3.0,1.0,-1.0,-2.0,-1.0,0.0,1651093895413004.0,0
170,-2.0,0.0,0.0,-4.0,1.0,0.0,0.0,-1.0,1651093895434682.0,0
171,0.0,0.0,-2.0,-5.0,-1.0,0.0,-1.0,1.0,1651093895434682.0,0
172,-1.0,-3.0,0.0,2.0,0.0,1.0,1.0,-2.0,1651093895435640.0,0
173,-1.0,1.0,-2.0,-1.0,-1.0,-1.0,-2.0,-2.0,1651093895435640.0,0
174,0.0,1.0,1.0,2.0,-2.0,-1.0,-1.0,-1.0,1651093895464182.0,0
175,-2.0,-2.0,1.0,-3.0,-3.0,1.0,0.0,-1.0,1651093895464182.0,0
176,-3.0,-2.0,-1.0,2.0,1.0,0.0,1.0,2.0,1651093895466030.0,0
177,0.0,0.0,-3.0,-6.0,-5.0,-4.0,-1.0,0.0,1651093895466030.0,0
178,0.0,0.0,0.0,5.0,1.0,0.0,-2.0,-1.0,1651093895472173.0,0
179,0.0,2.0,1.0,0.0,0.0,-1.0,-1.0,0.0,1651093895472173.0,0
180,2.0,1.0,2.0,-2.0,-2.0,0.0,-2.0,-2.0,1651093895473174.0,0
181,-1.0,-1.0,0.0,-1.0,0.0,0.0,0.0,0.0,1651093895473174.0,0
182,-1.0,-1.0,0.0,-2.0,1.0,1.0,-2.0,0.0,1651093895494625.0,0
183,-3.0,-1.0,-6.0,-1.0,-1.0,0.0,-2.0,1.0,1651093895494625.0,0
184,-1.0,-1.0,0.0,2.0,-1.0,-2.0,-2.0,-1.0,1651093895495466.0,0
185,-1.0,2.0,-1.0,0.0,-1.0,-1.0,1.0,-2.0,1651093895495466.0,0
186,2.0,-1.0,-2.0,-1.0,-1.0,-1.0,-3.0,-1.0,1651093895517465.0,0
187,0.0,-2.0,-3.0,-3.0,2.0,2.0,0.0,1.0,1651093895517465.0,0
188,1.0,3.0,7.0,-1.0,1.0,-1.0,-1.0,0.0,1651093895518305.0,0
189,-2.0,-2.0,0.0,6.0,0.0,0.0,-1.0,0.0,1651093895518305.0,0
190,0.0,0.0,0.0,0.0,-3.0,0.0,-1.0,-1.0,1651093895531295.0,0
191,1.0,-1.0,-3.0,-6.0,-3.0,-1.0,-1.0,-1.0,1651093895531295.0,0
192,0.0,-1.0,-4.0,2.0,-2.0,0.0,0.0,-2.0,1651093895538441.0,0
193,1.0,-2.0,0.0,0.0,2.0,0.0,-1.0,1.0,1651093895538441.0,0
194,0.0,-1.0,-1.0,0.0,-1.0,-2.0,1.0,0.0,1651093895554735.0,0
195,0.0,0.0,1.0,1.0,-5.0,-2.0,-1.0,-1.0,1651093895554735.0,0
196,-1.0,1.0,0.0,-3.0,2.0,0.0,-1.0,-2.0,1651093895555574.0,0
197,0.0,-1.0,-1.0,-3.0,-2.0,1.0,0.0,-2.0,1651093895555574.0,0
198,-1.0,-1.0,-2.0,-4.0,0.0,0.0,0.0,2.0,1651093895576907.0,0
199,0.0,0.0,2.0,2.0,-1.0,0.0,-1.0,0.0,1651093895576907.0,0
200,0.0,2.0,-1.0,2.0,-1.0,0.0,0.0,1.0,1651093895577772.0,0
201,0.0,-3.0,-4.0,-1.0,-1.0,0.0,1.0,0.0,1651093895577772.0,0
202,-1.0,-2.0,-7.0,0.0,-1.0,-2.0,-1.0,-2.0,1651093895591295.0,0
203,0.0,0.0,9.0,-1.0,1.0,-2.0,0.0,-1.0,1651093895591295.0,0
204,-1.0,-2.0,-2.0,-4.0,-2.0,-5.0,-1.0,0.0,1651093895593290.0,0
205,-2.0,0.0,1.0,4.0,2.0,1.0,-2.0,0.0,1651093895593290.0,0
206,-2.0,0.0,-1.0,1.0,1.0,-1.0,1.0,-1.0,1651093895613802.0,0
207,0.0,0.0,-3.0,-4.0,-2.0,0.0,-1.0,0.0,1651093895613802.0,0
208,-1.0,2.0,1.0,-2.0,-3.0,-1.0,-2.0,-1.0,1651093895615634.0,0
209,0.0,-1.0,-1.0,2.0,1.0,-1.0,-1.0,-1.0,1651093895615634.0,0
210,0.0,-3.0,2.0,-5.0,2.0,0.0,1.0,1.0,1651093895637187.0,0
211,-1.0,-4.0,-2.0,2.0,0.0,1.0,1.0,-2.0,1651093895637187.0,0
212,-1.0,0.0,-1.0,6.0,-1.0,0.0,-2.0,1.0,1651093895638186.0,0
213,0.0,0.0,-3.0,-3.0,0.0,0.0,0.0,0.0,1651093895638186.0,0
214,-1.0,-2.0,0.0,2.0,-4.0,-3.0,-1.0,-1.0,1651093895652545.0,0
215,0.0,0.0,-1.0,-2.0,2.0,-2.0,-2.0,1.0,1651093895652545.0,0
216,-1.0,-1.0,1.0,-3.0,-1.0,0.0,0.0,-2.0,1651093895653409.0,0
217,0.0,-4.0,-6.0,1.0,-2.0,-2.0,0.0,-2.0,1651093895653409.0,0
218,-1.0,3.0,5.0,-1.0,0.0,-2.0,0.0,-1.0,1651093895681704.0,0
219,-1.0,-1.0,-1.0,-1.0,0.0,1.0,2.0,0.0,1651093895681704.0,0
220,1.0,2.0,-1.0,2.0,0.0,0.0,1.0,-1.0,1651093895683699.0,0
221,-1.0,2.0,1.0,-1.0,-2.0,-2.0,-2.0,0.0,1651093895683699.0,0
222,0.0,-2.0,-2.0,-1.0,-1.0,-1.0,-1.0,-2.0,1651093895696822.0,0
223,0.0,-1.0,-2.0,-1.0,-1.0,-3.0,-3.0,-1.0,1651093895696822.0,0
224,-2.0,-2.0,2.0,4.0,3.0,1.0,-1.0,-1.0,1651093895698695.0,0
225,1.0,1.0,0.0,1.0,0.0,-1.0,-2.0,0.0,1651093895698695.0,0
226,1.0,1.0,-1.0,0.0,-3.0,-1.0,0.0,1.0,1651093895711789.0,0
227,-2.0,1.0,1.0,2.0,-2.0,-3.0,0.0,0.0,1651093895711789.0,0
228,0.0,-2.0,-3.0,-5.0,-3.0,0.0,0.0,-1.0,1651093895718852.0,0
229,-2.0,-3.0,0.0,-5.0,-3.0,-1.0,-1.0,0.0,1651093895718852.0,0
230,0.0,-2.0,-1.0,-2.0,2.0,2.0,-1.0,-2.0,1651093895741248.0,0
231,-1.0,0.0,-2.0,2.0,2.0,-3.0,-1.0,-1.0,1651093895741248.0,0
232,0.0,0.0,0.0,-5.0,-6.0,1.0,-1.0,0.0,1651093895743241.0,0
233,-1.0,2.0,0.0,-1.0,7.0,1.0,2.0,2.0,1651093895743241.0,0
234,-1.0,-2.0,-5.0,2.0,-1.0,0.0,0.0,0.0,1651093895757561.0,0
235,-1.0,1.0,5.0,0.0,0.0,0.0,-1.0,-3.0,1651093895757561.0,0
236,-1.0,-3.0,-3.0,-1.0,-2.0,0.0,0.0,0.0,1651093895758396.0,0
237,1.0,2.0,1.0,-8.0,-6.0,0.0,-2.0,-2.0,1651093895758396.0,0
238,0.0,1.0,0.0,-1.0,-2.0,0.0,0.0,-1.0,1651093895772551.0,0
239,-1.0,-4.0,-3.0,0.0,4.0,-2.0,2.0,-1.0,1651093895772551.0,0
240,0.0,0.0,-2.0,0.0,11.0,-1.0,-4.0,-1.0,1651093895778695.0,0
241,1.0,0.0,3.0,2.0,-4.0,2.0,-1.0,1.0,1651093895778695.0,0
242,-1.0,0.0,0.0,-2.0,0.0,-2.0,-2.0,0.0,1651093895794876.0,0
243,-1.0,-2.0,-2.0,-1.0,-3.0,2.0,0.0,0.0,1651093895794876.0,0
244,-1.0,-1.0,-1.0,-1.0,1.0,-3.0,-15.0,-2.0,1651093895795728.0,0
245,-2.0,-3.0,-3.0,-2.0,-1.0,-4.0,17.0,1.0,1651093895795728.0,0
246,-1.0,1.0,1.0,3.0,-2.0,4.0,4.0,0.0,1651093895817000.0,0
247,1.0,-1.0,-1.0,0.0,0.0,0.0,-10.0,0.0,1651093895817000.0,0
248,-1.0,-2.0,-2.0,-2.0,-3.0,0.0,15.0,2.0,1651093895817991.0,0
249,-1.0,-3.0,-4.0,-3.0,-4.0,-7.0,-21.0,-3.0,1651093895817991.0,0
250,-2.0,0.0,1.0,-10.0,-10.0,-6.0,-9.0,-2.0,1651093895831512.0,0
251,-1.0,1.0,2.0,10.0,-8.0,1.0,27.0,-2.0,1651093895831512.0,1
252,2.0,1.0,-1.0,6.0,2.0,6.0,-8.0,2.0,1651093895838788.0,1
253,1.0,1.0,1.0,1.0,4.0,4.0,14.0,1.0,1651093895838788.0,1
254,0.0,-1.0,-3.0,-4.0,-29.0,2.0,-1.0,0.0,1651093895854519.0,1
255,1.0,-1.0,-1.0,-1.0,73.0,9.0,-16.0,1.0,1651093895854519.0,1
256,-2.0,1.0,2.0,-5.0,-20.0,-10.0,-42.0,-8.0,1651093895855392.0,1
257,-5.0,-7.0,-7.0,-7.0,-12.0,-16.0,-18.0,-7.0,1651093895855392.0,1
258,-2.0,-3.0,-2.0,4.0,-20.0,1.0,78.0,5.0,1651093895876862.0,1
259,2.0,5.0,1.0,4.0,5.0,11.0,-4.0,10.0,1651093895876862.0,1
260,1.0,0.0,2.0,6.0,-31.0,-3.0,-17.0,2.0,1651093895878687.0,1
261,0.0,3.0,2.0,5.0,56.0,-3.0,-8.0,2.0,1651093895878687.0,1
262,-1.0,-5.0,-9.0,-44.0,-3.0,5.0,-47.0,-6.0,1651093895890654.0,1
263,-7.0,-5.0,-9.0,5.0,-42.0,-32.0,-2.0,-15.0,1651093895890654.0,1
264,-3.0,0.0,7.0,23.0,28.0,-8.0,-88.0,-16.0,1651093895899631.0,1
265,-2.0,-1.0,-3.0,22.0,-10.0,-13.0,59.0,10.0,1651093895899631.0,1
266,12.0,7.0,8.0,19.0,19.0,37.0,24.0,27.0,1651093895914673.0,1
267,-4.0,-3.0,-2.0,-14.0,-13.0,28.0,51.0,-1.0,1651093895914673.0,1
268,-6.0,-5.0,-7.0,-32.0,1.0,0.0,-94.0,-16.0,1651093895915546.0,1
269,-7.0,-4.0,-4.0,-31.0,-65.0,-60.0,-26.0,-21.0,1651093895915546.0,1
270,7.0,8.0,4.0,36.0,48.0,57.0,8.0,10.0,1651093895937173.0,1
271,15.0,6.0,12.0,14.0,-3.0,-32.0,-108.0,-1.0,1651093895937173.0,1
272,2.0,0.0,-1.0,-10.0,-16.0,39.0,127.0,31.0,1651093895938173.0,1
273,-6.0,-1.0,8.0,11.0,2.0,89.0,91.0,13.0,1651093895938173.0,1
274,12.0,2.0,-3.0,28.0,23.0,-56.0,-78.0,10.0,1651093895950901.0,1
275,4.0,-7.0,-11.0,-13.0,-96.0,37.0,99.0,14.0,1651093895950901.0,1
276,5.0,5.0,4.0,16.0,103.0,10.0,-115.0,-2.0,1651093895959950.0,1
277,-11.0,1.0,-1.0,-40.0,-18.0,-10.0,23.0,-12.0,1651093895959950.0,1
278,-30.0,-13.0,-2.0,-31.0,-14.0,-29.0,32.0,-49.0,1651093895974183.0,1
279,18.0,5.0,0.0,-14.0,-26.0,-42.0,-67.0,30.0,1651093895974183.0,1
280,6.0,-4.0,-11.0,78.0,21.0,49.0,85.0,-12.0,1651093895976180.0,1
281,-19.0,-1.0,9.0,36.0,24.0,-25.0,-124.0,-17.0,1651093895976180.0,1
282,-13.0,2.0,7.0,16.0,-12.0,-77.0,-16.0,-7.0,1651093895996482.0,1
283,47.0,17.0,8.0,-30.0,4.0,47.0,-3.0,46.0,1651093895996482.0,1
284,-1.0,-13.0,-16.0,-69.0,-40.0,-26.0,36.0,6.0,1651093895998318.0,1
285,-13.0,-6.0,-2.0,17.0,15.0,44.0,6.0,-16.0,1651093895998318.0,1
286,-5.0,-10.0,-10.0,-32.0,-38.0,-7.0,-98.0,-25.0,1651093896019409.0,1
287,-41.0,-7.0,-5.0,-2.0,35.0,-25.0,-34.0,-27.0,1651093896019409.0,1
288,4.0,-2.0,0.0,8.0,-86.0,-27.0,-81.0,5.0,1651093896021257.0,1
289,4.0,2.0,1.0,22.0,58.0,24.0,-37.0,-9.0,1651093896021257.0,1
290,-9.0,-7.0,-5.0,-26.0,-41.0,-55.0,14.0,-5.0,1651093896034578.0,1
291,-11.0,-1.0,-1.0,4.0,-9.0,96.0,94.0,-7.0,1651093896034578.0,1
292,31.0,10.0,6.0,7.0,58.0,-36.0,-24.0,10.0,1651093896035430.0,1
293,-9.0,-3.0,0.0,-38.0,-59.0,-46.0,-96.0,-23.0,1651093896035430.0,1
294,-5.0,-3.0,3.0,-3.0,12.0,17.0,74.0,56.0,1651093896057722.0,1
295,-19.0,-6.0,-1.0,4.0,2.0,38.0,-124.0,-39.0,1651093896057722.0,1
296,-43.0,-10.0,-5.0,31.0,-2.0,-101.0,74.0,-46.0,1651093896058678.0,1
297,84.0,27.0,11.0,-1.0,2.0,4.0,125.0,112.0,1651093896058678.0,1
298,-4.0,2.0,-3.0,-3.0,9.0,24.0,-8.0,-20.0,1651093896070976.0,1
299,-12.0,-14.0,-9.0,-83.0,-32.0,-28.0,-87.0,-15.0,1651093896070976.0,1
300,-2.0,3.0,-1.0,27.0,49.0,-15.0,112.0,24.0,1651093896079866.0,1
301,-4.0,1.0,10.0,-7.0,-32.0,38.0,16.0,-29.0,1651093896079866.0,1
302,-7.0,-17.0,-21.0,73.0,23.0,71.0,-68.0,-17.0,1651093896095240.0,1
303,40.0,27.0,30.0,61.0,45.0,-94.0,13.0,27.0,1651093896095240.0,1
304,6.0,1.0,0.0,-60.0,-51.0,87.0,-38.0,14.0,1651093896096140.0,1
305,-22.0,-11.0,-14.0,19.0,-5.0,-106.0,-128.0,-28.0,1651093896096140.0,1
306,-23.0,-14.0,-7.0,-104.0,-12.0,100.0,-60.0,-36.0,1651093896117659.0,1
307,5.0,-1.0,-3.0,104.0,24.0,-12.0,-12.0,18.0,1651093896117659.0,1
308,20.0,5.0,17.0,55.0,46.0,-74.0,89.0,30.0,1651093896118508.0,1
309,-25.0,-2.0,-3.0,-20.0,-29.0,59.0,41.0,9.0,1651093896118508.0,1
310,-79.0,0.0,0.0,-17.0,7.0,-14.0,-48.0,-41.0,1651093896130854.0,1
311,81.0,1.0,-7.0,-43.0,-18.0,-67.0,64.0,39.0,1651093896130854.0,1
312,0.0,2.0,-2.0,-35.0,-29.0,19.0,-82.0,5.0,1651093896139652.0,1
313,-13.0,-12.0,-7.0,9.0,9.0,-14.0,53.0,-28.0,1651093896139652.0,1
314,-54.0,-1.0,11.0,24.0,18.0,43.0,20.0,-19.0,1651093896155057.0,1
315,70.0,21.0,7.0,-15.0,0.0,-116.0,-61.0,84.0,1651093896155057.0,1
316,34.0,8.0,5.0,7.0,19.0,127.0,65.0,16.0,1651093896155981.0,1
317,-13.0,-1.0,-4.0,-22.0,2.0,-9.0,-21.0,4.0,1651093896155981.0,1
318,6.0,5.0,1.0,24.0,-15.0,-111.0,-48.0,-8.0,1651093896177279.0,1
319,-85.0,-22.0,-11.0,-13.0,31.0,-56.0,-11.0,-84.0,1651093896177279.0,1
320,-43.0,-10.0,-7.0,-59.0,-31.0,10.0,-68.0,-55.0,1651093896178125.0,1
321,48.0,11.0,2.0,49.0,24.0,79.0,45.0,68.0,1651093896178125.0,1
322,37.0,5.0,7.0,42.0,-10.0,-56.0,-7.0,2.0,1651093896199416.0,1
323,-34.0,-9.0,2.0,-15.0,-7.0,123.0,76.0,-15.0,1651093896199416.0,1
324,29.0,7.0,2.0,10.0,-14.0,-43.0,26.0,47.0,1651093896206398.0,1
325,-36.0,-18.0,-14.0,-5.0,-9.0,9.0,-11.0,-43.0,1651093896206398.0,1
326,40.0,10.0,4.0,1.0,0.0,65.0,35.0,7.0,1651093896214448.0,1
327,-8.0,1.0,-5.0,-5.0,-5.0,26.0,111.0,39.0,1651093896214448.0,1
328,-21.0,-5.0,10.0,-2.0,7.0,34.0,-18.0,-40.0,1651093896215418.0,1
329,25.0,12.0,6.0,-9.0,-12.0,-95.0,4.0,9.0,1651093896215418.0,1
330,18.0,5.0,0.0,13.0,6.0,-60.0,50.0,25.0,1651093896236846.0,1
331,-87.0,-16.0,-11.0,-8.0,1.0,-16.0,-46.0,-33.0,1651093896236846.0,1
332,5.0,2.0,0.0,-8.0,-13.0,31.0,-31.0,-9.0,1651093896238688.0,1
333,70.0,4.0,-1.0,-17.0,4.0,-63.0,-66.0,-6.0,1651093896238688.0,1
334,12.0,1.0,4.0,2.0,8.0,61.0,57.0,14.0,1651093896250964.0,1
335,2.0,-13.0,-15.0,-33.0,-13.0,90.0,126.0,-5.0,1651093896250964.0,1
336,-16.0,-2.0,-2.0,18.0,-7.0,15.0,-91.0,17.0,1651093896265786.0,1
337,-26.0,-7.0,0.0,29.0,16.0,-7.0,-90.0,-15.0,1651093896265786.0,1
338,26.0,6.0,4.0,8.0,36.0,79.0,36.0,19.0,1651093896273916.0,1
339,-12.0,3.0,7.0,-10.0,-5.0,25.0,-23.0,-36.0,1651093896273916.0,1
340,8.0,6.0,3.0,35.0,7.0,4.0,85.0,32.0,1651093896275914.0,1
341,-12.0,-9.0,-15.0,-43.0,-13.0,-24.0,-50.0,-2.0,1651093896275914.0,1
342,-10.0,1.0,6.0,-26.0,-20.0,-11.0,-4.0,2.0,1651093896297593.0,1
343,0.0,0.0,2.0,48.0,-2.0,-39.0,-63.0,-26.0,1651093896297593.0,1
344,-18.0,0.0,0.0,-18.0,23.0,111.0,-80.0,-46.0,1651093896298594.0,1
345,-7.0,-4.0,1.0,-13.0,16.0,0.0,15.0,10.0,1651093896298594.0,1
346,39.0,3.0,-4.0,-1.0,-18.0,-51.0,-39.0,39.0,1651093896310725.0,1
347,-16.0,1.0,3.0,-4.0,-8.0,0.0,-58.0,-1.0,1651093896310725.0,1
348,20.0,-13.0,-11.0,-48.0,-41.0,-58.0,63.0,-23.0,1651093896319538.0,1
349,-13.0,2.0,-3.0,29.0,0.0,10.0,-18.0,-25.0,1651093896319538.0,1
350,-10.0,0.0,5.0,10.0,-25.0,45.0,7.0,-7.0,1651093896334816.0,1
351,8.0,-4.0,-5.0,-46.0,35.0,43.0,-111.0,-4.0,1651093896334816.0,1
352,-10.0,-3.0,-7.0,21.0,8.0,37.0,79.0,34.0,1651093896335687.0,1
353,-4.0,12.0,14.0,-2.0,31.0,62.0,-3.0,13.0,1651093896335687.0,1
354,25.0,-7.0,-17.0,-3.0,-13.0,21.0,-53.0,-20.0,1651093896357017.0,1
355,3.0,7.0,14.0,31.0,-32.0,-68.0,42.0,8.0,1651093896357017.0,1
356,10.0,-8.0,-10.0,-26.0,-33.0,-4.0,-5.0,23.0,1651093896357855.0,1
357,-44.0,-1.0,-10.0,-6.0,-6.0,-21.0,3.0,-14.0,1651093896357855.0,1
358,53.0,14.0,24.0,-26.0,23.0,-98.0,12.0,30.0,1651093896380353.0,1
359,-23.0,-6.0,-7.0,21.0,16.0,114.0,29.0,-40.0,1651093896380353.0,1
360,-30.0,5.0,10.0,48.0,19.0,-92.0,-1.0,-7.0,1651093896382192.0,1
361,58.0,-1.0,-7.0,-35.0,-12.0,-13.0,-24.0,-2.0,1651093896382192.0,1
362,-26.0,-3.0,1.0,30.0,18.0,63.0,27.0,-6.0,1651093896394350.0,1
363,7.0,-13.0,-10.0,-24.0,-8.0,-33.0,67.0,7.0,1651093896394350.0,1
364,44.0,6.0,2.0,14.0,24.0,-11.0,28.0,47.0,1651093896400875.0,1
365,9.0,9.0,3.0,-14.0,-37.0,41.0,35.0,-2.0,1651093896400875.0,1
366,-7.0,-5.0,-3.0,-11.0,9.0,32.0,32.0,-7.0,1651093896416989.0,1
367,-10.0,-1.0,-8.0,19.0,14.0,-9.0,-51.0,-19.0,1651093896416989.0,1
368,-49.0,-10.0,3.0,-7.0,15.0,53.0,-105.0,-54.0,1651093896417857.0,1
369,-2.0,8.0,12.0,20.0,-1.0,94.0,127.0,30.0,1651093896417857.0,1
370,34.0,13.0,5.0,-59.0,0.0,22.0,-27.0,57.0,1651093896440290.0,1
371,-28.0,-7.0,-8.0,7.0,-22.0,55.0,-114.0,-39.0,1651093896440290.0,1
372,28.0,4.0,-3.0,65.0,4.0,-54.0,36.0,35.0,1651093896440290.0,1
373,-27.0,-17.0,-7.0,-2.0,12.0,61.0,0.0,-28.0,1651093896440290.0,1
374,-6.0,-4.0,-11.0,-5.0,-14.0,-33.0,-77.0,-5.0,1651093896454655.0,1
375,11.0,3.0,7.0,-28.0,9.0,-89.0,-81.0,-6.0,1651093896454655.0,1
376,-27.0,-1.0,7.0,-10.0,-7.0,-43.0,-31.0,-76.0,1651093896455489.0,1
377,15.0,3.0,3.0,-11.0,5.0,10.0,-81.0,79.0,1651093896455489.0,1
378,-16.0,-10.0,-7.0,13.0,-10.0,88.0,125.0,-12.0,1651093896476014.0,1
379,41.0,8.0,0.0,23.0,-1.0,-74.0,49.0,54.0,1651093896476014.0,1
380,9.0,0.0,-5.0,-34.0,-2.0,-37.0,-100.0,-25.0,1651093896484258.0,1
381,-10.0,-3.0,2.0,8.0,3.0,-81.0,-10.0,-18.0,1651093896484258.0,1
382,-71.0,-7.0,-11.0,-8.0,-6.0,-26.0,-102.0,-18.0,1651093896499360.0,1
383,59.0,2.0,3.0,-75.0,-8.0,-26.0,67.0,4.0,1651093896499360.0,1
384,7.0,7.0,0.0,68.0,28.0,31.0,-3.0,11.0,1651093896501251.0,1
385,-35.0,-6.0,0.0,2.0,13.0,41.0,80.0,-44.0,1651093896501251.0,1
386,68.0,17.0,9.0,62.0,-3.0,-83.0,-13.0,72.0,1651093896515561.0,1
387,-25.0,-2.0,-2.0,-29.0,16.0,49.0,25.0,-19.0,1651093896515561.0,1
388,-9.0,-1.0,-3.0,-42.0,-40.0,-128.0,54.0,10.0,1651093896516402.0,1
389,24.0,5.0,-2.0,2.0,15.0,83.0,34.0,35.0,1651093896516402.0,1
390,-32.0,-13.0,-7.0,-2.0,22.0,33.0,-56.0,-51.0,1651093896545160.0,1
391,-4.0,6.0,17.0,22.0,3.0,79.0,21.0,-14.0,1651093896545160.0,1
392,3.0,4.0,-5.0,-46.0,-8.0,-21.0,32.0,22.0,1651093896546077.0,1
393,-15.0,-11.0,-8.0,11.0,-27.0,-85.0,-96.0,12.0,1651093896546077.0,1
394,5.0,3.0,6.0,-52.0,-5.0,101.0,99.0,-3.0,1651093896559340.0,1
395,23.0,5.0,-2.0,75.0,44.0,24.0,99.0,42.0,1651093896559340.0,1
396,9.0,2.0,4.0,16.0,-15.0,59.0,-128.0,-26.0,1651093896561228.0,1
397,5.0,-1.0,-1.0,-19.0,-19.0,2.0,53.0,7.0,1651093896561228.0,1
398,-5.0,0.0,-3.0,0.0,21.0,29.0,-8.0,-36.0,1651093896574388.0,1
399,-72.0,-21.0,-16.0,-65.0,-17.0,73.0,-60.0,-56.0,1651093896574388.0,1
400,53.0,17.0,7.0,17.0,-15.0,-26.0,-23.0,75.0,1651093896576413.0,1
401,20.0,3.0,4.0,-22.0,-1.0,-2.0,21.0,-13.0,1651093896576413.0,1
402,23.0,-5.0,-11.0,12.0,0.0,-23.0,125.0,46.0,1651093896596710.0,1
403,-47.0,-8.0,-22.0,17.0,13.0,-39.0,-69.0,-59.0,1651093896596710.0,1
404,-43.0,-10.0,29.0,-5.0,12.0,127.0,46.0,-24.0,1651093896598573.0,1
405,-42.0,9.0,2.0,-8.0,-10.0,-31.0,-61.0,1.0,1651093896598573.0,1
406,43.0,4.0,4.0,3.0,-19.0,19.0,-10.0,-5.0,1651093896619809.0,1
407,45.0,-4.0,-2.0,81.0,33.0,6.0,51.0,7.0,1651093896619809.0,1
408,-26.0,-10.0,-7.0,-11.0,-7.0,-86.0,-1.0,6.0,1651093896620808.0,1
409,19.0,2.0,0.0,-2.0,14.0,67.0,-69.0,18.0,1651093896620808.0,1
410,-63.0,-13.0,-6.0,-27.0,-18.0,-50.0,-49.0,-80.0,1651093896633899.0,1
411,71.0,24.0,9.0,9.0,-29.0,30.0,95.0,101.0,1651093896633899.0,1
412,-20.0,-8.0,-8.0,4.0,13.0,-25.0,-46.0,-21.0,1651093896640273.0,1
413,-18.0,-5.0,0.0,2.0,-22.0,-51.0,-64.0,-29.0,1651093896640273.0,1
414,43.0,5.0,-1.0,5.0,7.0,-76.0,38.0,26.0,1651093896657417.0,1
415,2.0,0.0,8.0,-24.0,-13.0,63.0,-8.0,29.0,1651093896657417.0,1
416,-11.0,-5.0,-9.0,-31.0,-33.0,-54.0,-63.0,-23.0,1651093896658264.0,1
417,-30.0,-9.0,-9.0,21.0,34.0,68.0,-11.0,-25.0,1651093896658264.0,1
418,7.0,2.0,8.0,-11.0,-38.0,-44.0,-48.0,24.0,1651093896679588.0,1
419,-12.0,10.0,6.0,5.0,14.0,9.0,-20.0,13.0,1651093896679588.0,1
420,19.0,-7.0,-8.0,28.0,16.0,50.0,78.0,-36.0,1651093896680592.0,1
421,37.0,-7.0,-26.0,0.0,16.0,56.0,19.0,22.0,1651093896680592.0,1
422,-42.0,-9.0,18.0,16.0,-8.0,-49.0,-128.0,-36.0,1651093896693777.0,1
423,21.0,11.0,11.0,17.0,8.0,9.0,53.0,17.0,1651093896693777.0,1
424,-11.0,2.0,-5.0,-24.0,-11.0,93.0,51.0,28.0,1651093896700816.0,1
425,22.0,-7.0,-3.0,19.0,35.0,7.0,-65.0,-34.0,1651093896700816.0,1
426,-4.0,1.0,-4.0,-17.0,-45.0,-27.0,-2.0,10.0,1651093896717038.0,1
427,9.0,-3.0,-1.0,-27.0,7.0,10.0,-95.0,22.0,1651093896717038.0,1
428,-21.0,0.0,-3.0,-5.0,16.0,-47.0,-32.0,-11.0,1651093896717954.0,1
429,19.0,1.0,6.0,2.0,-22.0,-57.0,-35.0,-3.0,1651093896717954.0,1
430,-12.0,-1.0,-3.0,-2.0,38.0,102.0,-26.0,-31.0,1651093896739528.0,1
431,-3.0,-4.0,-2.0,-34.0,-26.0,-86.0,-79.0,22.0,1651093896739528.0,1
432,51.0,15.0,-1.0,52.0,16.0,101.0,74.0,40.0,1651093896740427.0,1
433,-13.0,7.0,25.0,40.0,10.0,-23.0,14.0,1.0,1651093896740427.0,1
434,-7.0,-11.0,-12.0,-37.0,-5.0,-78.0,-14.0,-10.0,1651093896753693.0,1
435,-41.0,-7.0,-14.0,60.0,-4.0,10.0,17.0,-49.0,1651093896753693.0,1
436,15.0,1.0,11.0,-70.0,-44.0,-30.0,-14.0,37.0,1651093896761959.0,1
437,-50.0,1.0,1.0,-44.0,-25.0,85.0,91.0,-48.0,1651093896761959.0,1
438,21.0,8.0,3.0,29.0,29.0,22.0,49.0,33.0,1651093896777443.0,1
439,-32.0,-5.0,-1.0,20.0,-14.0,-59.0,-10.0,10.0,1651093896777443.0,1
440,-14.0,-10.0,-20.0,-56.0,6.0,26.0,8.0,-44.0,1651093896778278.0,1
441,33.0,13.0,27.0,49.0,-24.0,-57.0,-52.0,19.0,1651093896778278.0,1
442,2.0,0.0,-8.0,-24.0,-4.0,-68.0,25.0,30.0,1651093896799587.0,1
443,6.0,-4.0,-2.0,-16.0,-11.0,7.0,27.0,21.0,1651093896799587.0,1
444,-14.0,5.0,2.0,-18.0,3.0,23.0,-50.0,-21.0,1651093896800588.0,1
445,-23.0,-7.0,-11.0,38.0,45.0,6.0,2.0,-26.0,1651093896800588.0,1
446,-2.0,1.0,-1.0,15.0,-8.0,-22.0,-20.0,2.0,1651093896813685.0,1
447,-1.0,-6.0,9.0,-14.0,2.0,-101.0,-3.0,-8.0,1651093896813685.0,1
448,-76.0,-7.0,-5.0,2.0,-12.0,-10.0,-79.0,-47.0,1651093896820709.0,1
449,107.0,6.0,-10.0,-29.0,-28.0,-23.0,125.0,56.0,1651093896820709.0,1
450,37.0,15.0,15.0,37.0,36.0,21.0,78.0,35.0,1651093896852249.0,1
451,-15.0,-2.0,-4.0,-23.0,-22.0,1.0,-90.0,-34.0,1651093896852249.0,1
452,-67.0,-16.0,-26.0,-38.0,-6.0,31.0,58.0,-6.0,1651093896853569.0,1
453,9.0,5.0,22.0,12.0,4.0,90.0,6.0,7.0,1651093896853569.0,1
454,-42.0,-13.0,-7.0,44.0,5.0,-6.0,-105.0,-60.0,1651093896859681.0,1
455,-23.0,7.0,3.0,4.0,7.0,119.0,86.0,-5.0,1651093896859681.0,1
456,42.0,1.0,1.0,-13.0,7.0,-27.0,-24.0,32.0,1651093896860527.0,1
457,-30.0,-14.0,-21.0,-25.0,-44.0,-128.0,18.0,7.0,1651093896860527.0,1
458,-9.0,-2.0,-3.0,-46.0,-19.0,22.0,-52.0,-24.0,1651093896873685.0,1
459,-16.0,3.0,10.0,47.0,44.0,-14.0,22.0,-16.0,1651093896873685.0,1
460,-16.0,-6.0,-2.0,34.0,9.0,-58.0,65.0,1.0,1651093896880448.0,1
461,40.0,1.0,-3.0,-68.0,-13.0,-29.0,-24.0,11.0,1651093896880448.0,1
462,-2.0,5.0,-3.0,57.0,47.0,48.0,82.0,34.0,1651093896896922.0,1
463,21.0,-4.0,-3.0,9.0,-23.0,-58.0,-100.0,-10.0,1651093896896922.0,1
464,-4.0,2.0,15.0,18.0,-6.0,73.0,-31.0,-20.0,1651093896897760.0,1
465,17.0,2.0,-5.0,-24.0,12.0,15.0,-15.0,3.0,1651093896897760.0,1
466,-12.0,-6.0,-5.0,-13.0,-8.0,-20.0,0.0,9.0,1651093896919868.0,1
467,-3.0,-12.0,-32.0,-32.0,-13.0,-16.0,-76.0,-13.0,1651093896919868.0,1
468,76.0,14.0,37.0,32.0,-9.0,60.0,-8.0,3.0,1651093896920699.0,1
469,-47.0,1.0,4.0,8.0,1.0,-86.0,-102.0,-10.0,1651093896920699.0,1
470,-40.0,-6.0,-12.0,-51.0,-21.0,120.0,60.0,-32.0,1651093896933739.0,1
471,74.0,7.0,7.0,35.0,42.0,-43.0,76.0,28.0,1651093896933739.0,1
472,39.0,0.0,-9.0,2.0,-13.0,-100.0,-47.0,26.0,1651093896942363.0,1
473,-67.0,-7.0,0.0,19.0,8.0,105.0,-28.0,-56.0,1651093896942363.0,1
474,55.0,5.0,-4.0,7.0,16.0,35.0,-16.0,18.0,1651093896957653.0,1
475,-14.0,-2.0,3.0,-37.0,-39.0,93.0,79.0,-5.0,1651093896957653.0,1
476,-45.0,-11.0,-17.0,-46.0,-16.0,-13.0,44.0,-14.0,1651093896958504.0,1
477,40.0,9.0,14.0,32.0,-1.0,92.0,2.0,26.0,1651093896958504.0,1
478,-7.0,2.0,6.0,12.0,18.0,-22.0,34.0,19.0,1651093896979783.0,1
479,-27.0,-5.0,0.0,0.0,-12.0,-30.0,10.0,-37.0,1651093896979783.0,1
480,29.0,7.0,6.0,12.0,4.0,-98.0,-28.0,27.0,1651093896980635.0,1
481,-51.0,-10.0,-17.0,-39.0,18.0,50.0,-34.0,-22.0,1651093896980635.0,1
482,2.0,-5.0,5.0,11.0,-46.0,61.0,16.0,-11.0,1651093896993803.0,1
483,21.0,1.0,2.0,11.0,10.0,-51.0,-103.0,-21.0,1651093896993803.0,1
484,44.0,7.0,-3.0,3.0,14.0,32.0,99.0,42.0,1651093897001489.0,1
485,-15.0,-12.0,-27.0,-43.0,-14.0,-55.0,2.0,-3.0,1651093897001489.0,1
486,-9.0,8.0,23.0,-2.0,-3.0,-16.0,12.0,5.0,1651093897016596.0,1
487,-22.0,-4.0,2.0,-4.0,8.0,-23.0,-85.0,-9.0,1651093897016596.0,1
488,22.0,3.0,-5.0,36.0,4.0,-28.0,38.0,-20.0,1651093897018622.0,1
489,5.0,4.0,13.0,42.0,9.0,-60.0,65.0,9.0,1651093897018622.0,1
490,-7.0,2.0,-8.0,-19.0,0.0,-71.0,-96.0,2.0,1651093897040233.0,1
491,8.0,-2.0,0.0,-5.0,10.0,60.0,17.0,31.0,1651093897040233.0,1
492,-41.0,-3.0,1.0,-59.0,-11.0,30.0,-18.0,-44.0,1651093897041124.0,1
493,38.0,10.0,-8.0,-17.0,-6.0,6.0,24.0,38.0,1651093897041124.0,1
494,0.0,-1.0,3.0,78.0,21.0,-29.0,-54.0,-23.0,1651093897053439.0,1
495,-30.0,-1.0,-1.0,0.0,-10.0,-74.0,-10.0,-19.0,1651093897053439.0,1
496,13.0,5.0,5.0,10.0,23.0,44.0,2.0,17.0,1651093897068437.0,1
497,-24.0,-6.0,2.0,-7.0,-26.0,-35.0,-44.0,-15.0,1651093897068437.0,1
498,-2.0,-2.0,-4.0,-70.0,1.0,-76.0,50.0,10.0,1651093897077341.0,1
499,26.0,10.0,4.0,21.0,-11.0,-10.0,-58.0,20.0,1651093897077341.0,1
500,-1.0,-6.0,-14.0,57.0,3.0,51.0,-87.0,-7.0,1651093897078341.0,1
501,-41.0,-9.0,-1.0,20.0,16.0,-35.0,82.0,-48.0,1651093897078341.0,1
502,43.0,-4.0,-33.0,-14.0,-35.0,31.0,-70.0,39.0,1651093897100753.0,1
503,-14.0,14.0,45.0,-24.0,6.0,71.0,42.0,5.0,1651093897100753.0,1
504,29.0,-7.0,-9.0,-42.0,0.0,-49.0,-45.0,-17.0,1651093897101652.0,1
505,13.0,6.0,6.0,21.0,1.0,-31.0,-107.0,28.0,1651093897101652.0,1
506,-48.0,-8.0,-10.0,1.0,0.0,83.0,68.0,-14.0,1651093897112906.0,1
507,17.0,-14.0,-20.0,-22.0,-3.0,2.0,-60.0,-15.0,1651093897112906.0,1
508,-4.0,6.0,3.0,-19.0,-3.0,76.0,39.0,40.0,1651093897121998.0,1
509,4.0,-3.0,-3.0,36.0,3.0,-32.0,-37.0,-18.0,1651093897121998.0,1
510,15.0,-2.0,12.0,26.0,24.0,7.0,50.0,6.0,1651093897137309.0,1
511,7.0,8.0,-6.0,-25.0,-11.0,72.0,35.0,12.0,1651093897137309.0,1
512,-34.0,-2.0,4.0,-22.0,8.0,-23.0,-34.0,-23.0,1651093897138172.0,1
513,-19.0,-13.0,-28.0,18.0,-35.0,23.0,88.0,-14.0,1651093897138172.0,1
514,34.0,14.0,32.0,26.0,-9.0,-90.0,-15.0,29.0,1651093897159431.0,1
515,-2.0,2.0,3.0,15.0,16.0,78.0,16.0,18.0,1651093897159431.0,1
516,-14.0,-4.0,-10.0,-12.0,2.0,38.0,26.0,-33.0,1651093897160430.0,1
517,27.0,5.0,6.0,-26.0,-18.0,-27.0,-11.0,39.0,1651093897160430.0,1
518,-37.0,-9.0,-8.0,-7.0,26.0,3.0,-11.0,-64.0,1651093897173706.0,1
519,33.0,0.0,-9.0,6.0,7.0,53.0,93.0,43.0,1651093897173706.0,1
520,-13.0,3.0,6.0,-4.0,-20.0,2.0,-18.0,19.0,1651093897182419.0,1
521,-7.0,-4.0,-19.0,0.0,24.0,22.0,-8.0,-16.0,1651093897182419.0,1
522,-7.0,5.0,27.0,-1.0,-24.0,-1.0,-119.0,-32.0,1651093897196725.0,1
523,-23.0,-3.0,-8.0,7.0,-20.0,-27.0,45.0,1.0,1651093897196725.0,1
524,29.0,1.0,1.0,11.0,55.0,8.0,37.0,20.0,1651093897198585.0,1
525,-16.0,4.0,7.0,-13.0,23.0,37.0,27.0,-7.0,1651093897198585.0,1
526,-5.0,-6.0,-15.0,-67.0,-19.0,20.0,-77.0,-20.0,1651093897219898.0,1
527,-32.0,-7.0,-10.0,11.0,-20.0,-64.0,93.0,-18.0,1651093897219898.0,1
528,33.0,9.0,10.0,50.0,-5.0,51.0,15.0,41.0,1651093897220741.0,1
529,4.0,-2.0,5.0,-9.0,-6.0,16.0,-61.0,-11.0,1651093897220741.0,1
530,-7.0,7.0,-2.0,-15.0,24.0,-35.0,55.0,-12.0,1651093897233484.0,1
531,3.0,-7.0,-4.0,-3.0,13.0,-39.0,-40.0,-9.0,1651093897233484.0,1
532,-52.0,-14.0,-10.0,-10.0,-23.0,-10.0,7.0,-31.0,1651093897242210.0,1
533,48.0,4.0,9.0,-22.0,10.0,64.0,-8.0,43.0,1651093897242210.0,1
534,23.0,10.0,7.0,62.0,-6.0,-57.0,81.0,23.0,1651093897264152.0,1
535,-20.0,2.0,2.0,3.0,42.0,38.0,-71.0,-27.0,1651093897264152.0,1
536,-33.0,-6.0,-6.0,-19.0,-6.0,-105.0,38.0,-9.0,1651093897266181.0,1
537,19.0,-6.0,-1.0,6.0,-19.0,-13.0,-35.0,3.0,1651093897266181.0,1
538,-75.0,-8.0,-6.0,10.0,13.0,-13.0,-80.0,-38.0,1651093897279345.0,1
539,74.0,4.0,2.0,11.0,-12.0,8.0,26.0,45.0,1651093897279345.0,1
540,20.0,1.0,-15.0,42.0,24.0,-9.0,53.0,9.0,1651093897280387.0,1
541,-39.0,3.0,27.0,-43.0,-18.0,-46.0,41.0,-52.0,1651093897280387.0,1
542,19.0,-1.0,-15.0,9.0,16.0,51.0,-44.0,64.0,1651093897293659.0,1
543,-23.0,-7.0,8.0,-6.0,-43.0,-38.0,-31.0,-30.0,1651093897293659.0,1
544,-13.0,-4.0,0.0,-9.0,18.0,40.0,0.0,-21.0,1651093897301697.0,1
545,-15.0,0.0,-4.0,-6.0,4.0,6.0,43.0,-1.0,1651093897301697.0,1
546,38.0,9.0,8.0,29.0,1.0,2.0,115.0,33.0,1651093897316831.0,1
547,5.0,3.0,-14.0,-28.0,-6.0,-88.0,4.0,-1.0,1651093897316831.0,1
548,-20.0,-12.0,-6.0,-5.0,-39.0,-3.0,-54.0,-12.0,1651093897318661.0,1
549,-29.0,-7.0,-3.0,2.0,37.0,16.0,-23.0,-28.0,1651093897318661.0,1
550,37.0,11.0,6.0,-25.0,-2.0,81.0,26.0,19.0,1651093897340176.0,1
551,-5.0,0.0,-2.0,37.0,9.0,-44.0,-56.0,13.0,1651093897340176.0,1
552,13.0,2.0,9.0,-37.0,-15.0,-21.0,-91.0,-20.0,1651093897341178.0,1
553,-24.0,-1.0,3.0,69.0,13.0,73.0,106.0,21.0,1651093897341178.0,1
554,33.0,-9.0,-6.0,-28.0,-19.0,8.0,-86.0,-6.0,1651093897353536.0,1
555,26.0,2.0,-11.0,-31.0,-10.0,98.0,21.0,11.0,1651093897353536.0,1
556,-9.0,-4.0,1.0,-1.0,-1.0,-116.0,8.0,-17.0,1651093897362088.0,1
557,11.0,4.0,2.0,52.0,14.0,109.0,0.0,-11.0,1651093897362088.0,1
558,-20.0,4.0,22.0,-2.0,4.0,26.0,109.0,27.0,1651093897377414.0,1
559,-49.0,-11.0,-3.0,-17.0,-3.0,-35.0,-11.0,-39.0,1651093897377414.0,1
560,41.0,6.0,4.0,-17.0,-33.0,-59.0,-58.0,19.0,1651093897378272.0,1
561,12.0,-4.0,-18.0,4.0,32.0,9.0,16.0,8.0,1651093897378272.0,1
562,-30.0,-10.0,-10.0,11.0,-35.0,-60.0,-35.0,-18.0,1651093897399592.0,1
563,2.0,2.0,7.0,-52.0,-4.0,22.0,-12.0,-15.0,1651093897399592.0,1
564,-15.0,4.0,-1.0,51.0,24.0,76.0,6.0,15.0,1651093897400597.0,1
565,19.0,5.0,13.0,8.0,-23.0,-21.0,-22.0,0.0,1651093897400597.0,1
566,-17.0,0.0,-5.0,-7.0,16.0,34.0,-20.0,-28.0,1651093897421536.0,1
567,17.0,-7.0,-7.0,-20.0,-5.0,0.0,66.0,56.0,1651093897421536.0,1
568,-7.0,5.0,0.0,9.0,-7.0,16.0,-27.0,9.0,1651093897423530.0,1
569,67.0,2.0,-3.0,-13.0,-6.0,-31.0,20.0,41.0,1651093897423530.0,1
570,1.0,-4.0,-6.0,-3.0,3.0,6.0,3.0,-18.0,1651093897437657.0,1
571,-5.0,-4.0,-19.0,-6.0,-14.0,-50.0,-51.0,-14.0,1651093897437657.0,1
572,-26.0,4.0,24.0,0.0,13.0,109.0,85.0,6.0,1651093897438490.0,1
573,-54.0,1.0,3.0,-21.0,-22.0,-67.0,-32.0,-12.0,1651093897438490.0,1
574,58.0,-11.0,-26.0,-2.0,9.0,-35.0,-100.0,13.0,1651093897459747.0,1
575,13.0,15.0,24.0,23.0,11.0,-67.0,15.0,-23.0,1651093897459747.0,1
576,9.0,-4.0,-14.0,6.0,1.0,-23.0,-85.0,6.0,1651093897460641.0,1
577,-16.0,7.0,9.0,-18.0,-15.0,9.0,13.0,10.0,1651093897460641.0,1
578,3.0,-3.0,-3.0,-44.0,-25.0,20.0,-7.0,-1.0,1651093897482108.0,1
579,-32.0,-13.0,-12.0,48.0,20.0,41.0,-11.0,-11.0,1651093897482108.0,1
580,10.0,-1.0,4.0,19.0,5.0,-7.0,26.0,1.0,1651093897483109.0,1
581,20.0,0.0,-3.0,-12.0,-8.0,-51.0,-54.0,7.0,1651093897483109.0,1
582,-24.0,-6.0,-6.0,11.0,4.0,28.0,18.0,-11.0,1651093897496437.0,1
583,-5.0,8.0,11.0,-1.0,-11.0,-37.0,75.0,-14.0,1651093897496437.0,1
584,-34.0,-3.0,-1.0,-11.0,-3.0,-48.0,-33.0,11.0,1651093897498384.0,1
585,29.0,0.0,-9.0,0.0,10.0,32.0,28.0,26.0,1651093897498384.0,1
586,-5.0,-1.0,1.0,3.0,2.0,-43.0,23.0,4.0,1651093897519686.0,1
587,-34.0,-9.0,-7.0,15.0,-8.0,-29.0,-51.0,-37.0,1651093897519686.0,1
588,39.0,10.0,8.0,0.0,7.0,51.0,-44.0,23.0,1651093897520688.0,1
589,-12.0,3.0,-4.0,-15.0,14.0,-33.0,44.0,-8.0,1651093897520688.0,1
590,0.0,4.0,6.0,-8.0,2.0,-30.0,15.0,-12.0,1651093897542069.0,1
591,-6.0,-4.0,-5.0,-10.0,-5.0,2.0,-8.0,6.0,1651093897542069.0,1
592,-20.0,-7.0,-5.0,5.0,-12.0,-3.0,46.0,-21.0,1651093897543070.0,1
593,7.0,4.0,1.0,-45.0,5.0,-3.0,-23.0,4.0,1651093897543070.0,1
594,22.0,3.0,-15.0,40.0,6.0,19.0,33.0,15.0,1651093897557384.0,1
595,-4.0,4.0,20.0,8.0,10.0,79.0,-13.0,0.0,1651093897557384.0,1
596,-20.0,-15.0,-15.0,-15.0,-9.0,-49.0,-4.0,-31.0,1651093897558227.0,1
597,6.0,5.0,12.0,7.0,-19.0,0.0,21.0,13.0,1651093897558227.0,1
598,-1.0,-1.0,-1.0,10.0,32.0,-13.0,0.0,1.0,1651093897578907.0,1
599,8.0,1.0,-2.0,-9.0,-4.0,37.0,-39.0,10.0,1651093897578907.0,1
600,-22.0,-4.0,-4.0,-28.0,-9.0,-22.0,25.0,-31.0,1651093897580904.0,1
601,28.0,4.0,1.0,14.0,-18.0,-21.0,19.0,32.0,1651093897580904.0,1
602,-17.0,2.0,3.0,14.0,-3.0,-33.0,-23.0,-2.0,1651093897602723.0,1
603,13.0,0.0,0.0,21.0,18.0,70.0,14.0,10.0,1651093897602723.0,1
604,11.0,-5.0,-2.0,-13.0,12.0,-10.0,-16.0,-6.0,1651093897603668.0,1
605,-17.0,-10.0,-4.0,3.0,-6.0,-58.0,-23.0,-10.0,1651093897603668.0,1
606,-1.0,9.0,5.0,-7.0,-8.0,0.0,-8.0,0.0,1651093897616632.0,1
607,-12.0,-6.0,0.0,-3.0,10.0,-15.0,-19.0,-11.0,1651093897616632.0,1
608,24.0,5.0,1.0,7.0,-1.0,31.0,42.0,22.0,1651093897623772.0,1
609,-9.0,-5.0,-8.0,-3.0,-1.0,-27.0,-20.0,-10.0,1651093897623772.0,1
610,-2.0,-2.0,1.0,6.0,-12.0,13.0,4.0,-1.0,1651093897640017.0,1
611,-7.0,3.0,10.0,-9.0,-17.0,-27.0,-3.0,-5.0,1651093897640017.0,1
612,10.0,6.0,-2.0,5.0,29.0,10.0,14.0,-7.0,1651093897640917.0,1
613,-6.0,-5.0,2.0,9.0,-2.0,20.0,-69.0,-14.0,1651093897640917.0,1
614,-10.0,1.0,-2.0,-14.0,0.0,21.0,46.0,2.0,1651093897662449.0,1
615,13.0,1.0,-7.0,-5.0,1.0,64.0,1.0,5.0,1651093897662449.0,1
616,-7.0,-5.0,0.0,5.0,-8.0,8.0,1.0,11.0,1651093897663449.0,1
617,17.0,0.0,0.0,11.0,12.0,17.0,-4.0,-18.0,1651093897663449.0,1
618,-29.0,-2.0,2.0,-11.0,-13.0,-40.0,-2.0,-1.0,1651093897684576.0,1
619,21.0,4.0,-1.0,-4.0,6.0,-3.0,8.0,9.0,1651093897684576.0,1
620,-1.0,-5.0,0.0,7.0,-15.0,-25.0,3.0,1.0,1651093897685438.0,1
621,0.0,1.0,-2.0,2.0,36.0,4.0,-1.0,-6.0,1651093897685438.0,1
622,-18.0,-5.0,3.0,-4.0,-5.0,9.0,6.0,-2.0,1651093897699690.0,1
623,4.0,5.0,-7.0,3.0,3.0,-13.0,12.0,8.0,1651093897699690.0,1
624,17.0,-1.0,-1.0,-10.0,4.0,-10.0,-16.0,-3.0,1651093897700563.0,1
625,-30.0,-8.0,-2.0,-1.0,-30.0,-7.0,7.0,-6.0,1651093897700563.0,1
626,18.0,4.0,2.0,-1.0,-28.0,11.0,-1.0,10.0,1651093897722258.0,1
627,1.0,3.0,2.0,6.0,33.0,-7.0,0.0,0.0,1651093897722258.0,1
628,6.0,1.0,1.0,1.0,-14.0,-5.0,0.0,2.0,1651093897723258.0,1
629,-2.0,-4.0,-7.0,-7.0,-3.0,11.0,5.0,1.0,1651093897723258.0,1
630,-2.0,-2.0,2.0,3.0,28.0,15.0,2.0,-23.0,1651093897736397.0,1
631,8.0,1.0,-3.0,-2.0,-61.0,-17.0,-6.0,6.0,1651093897736397.0,1
632,-1.0,0.0,1.0,14.0,89.0,9.0,4.0,3.0,1651093897743374.0,1
633,-2.0,-3.0,-4.0,-11.0,-27.0,12.0,8.0,4.0,1651093897743374.0,1
634,0.0,-5.0,-3.0,-7.0,2.0,-1.0,-10.0,-9.0,1651093897760401.0,1
635,-4.0,-1.0,0.0,-6.0,-33.0,-12.0,0.0,-2.0,1651093897760401.0,1
636,4.0,-1.0,-9.0,-6.0,-35.0,-11.0,1.0,2.0,1651093897760401.0,1
637,-3.0,2.0,8.0,17.0,26.0,15.0,3.0,-2.0,1651093897760401.0,1
638,2.0,4.0,10.0,0.0,41.0,34.0,2.0,3.0,1651093897782766.0,1
639,-1.0,-4.0,-6.0,-3.0,-25.0,-18.0,1.0,0.0,1651093897782766.0,1
640,-2.0,1.0,-2.0,-1.0,-1.0,0.0,1.0,3.0,1651093897783710.0,1
641,-1.0,-1.0,-7.0,-2.0,0.0,-10.0,-5.0,-4.0,1651093897783710.0,1
642,4.0,-3.0,-4.0,-4.0,-45.0,15.0,-9.0,2.0,1651093897796807.0,1
643,4.0,-2.0,5.0,0.0,37.0,0.0,11.0,4.0,1651093897796807.0,1
644,-1.0,3.0,-1.0,-3.0,-13.0,-7.0,-3.0,-4.0,1651093897803790.0,1
645,-2.0,-1.0,0.0,-6.0,-12.0,14.0,1.0,-1.0,1651093897803790.0,1
646,-1.0,0.0,1.0,2.0,27.0,-11.0,-2.0,2.0,1651093897819888.0,1
647,-1.0,1.0,0.0,4.0,-18.0,-7.0,-5.0,-1.0,1651093897819888.0,1
648,3.0,1.0,3.0,-5.0,-31.0,2.0,-2.0,0.0,1651093897820884.0,1
649,-2.0,-4.0,-1.0,-4.0,18.0,-1.0,2.0,-1.0,1651093897820884.0,1
650,0.0,-3.0,-5.0,3.0,13.0,-10.0,3.0,3.0,1651093897841267.0,1
651,1.0,0.0,-1.0,0.0,12.0,2.0,-3.0,-2.0,1651093897841267.0,1
652,-3.0,-3.0,-2.0,-1.0,-16.0,-4.0,2.0,-1.0,1651093897843262.0,1
653,1.0,1.0,-1.0,8.0,-24.0,6.0,0.0,1.0,1651093897843262.0,1
654,-1.0,-1.0,1.0,-18.0,-27.0,-6.0,-1.0,-2.0,1651093897856512.0,1
655,-2.0,0.0,-1.0,1.0,18.0,0.0,1.0,0.0,1651093897856512.0,1
656,1.0,4.0,7.0,9.0,33.0,18.0,2.0,3.0,1651093897863654.0,1
657,-2.0,-2.0,-3.0,-1.0,28.0,-1.0,-2.0,-2.0,1651093897863654.0,1
658,0.0,-5.0,-2.0,1.0,-53.0,-7.0,1.0,0.0,1651093897879741.0,1
659,-2.0,-3.0,-1.0,-8.0,-21.0,-17.0,-3.0,-1.0,1651093897879741.0,1
660,0.0,-2.0,1.0,0.0,-1.0,7.0,-2.0,1.0,1651093897880741.0,1
661,2.0,2.0,1.0,3.0,11.0,18.0,2.0,1.0,1651093897880741.0,1
662,-3.0,0.0,-2.0,-3.0,50.0,0.0,1.0,-2.0,1651093897903871.0,1
663,1.0,1.0,2.0,-2.0,-38.0,-4.0,-1.0,-1.0,1651093897903871.0,1
664,2.0,-1.0,-2.0,1.0,-13.0,-6.0,-1.0,-2.0,1651093897904871.0,1
665,-2.0,1.0,1.0,-1.0,-14.0,-10.0,-2.0,0.0,1651093897904871.0,1
666,-3.0,-2.0,-2.0,0.0,-10.0,-3.0,-1.0,-2.0,1651093897915841.0,1
667,3.0,1.0,-2.0,-1.0,40.0,-1.0,0.0,-1.0,1651093897915841.0,1
668,0.0,0.0,0.0,-3.0,11.0,3.0,0.0,1.0,1651093897923978.0,1
669,-1.0,-2.0,1.0,-1.0,-23.0,4.0,1.0,-1.0,1651093897923978.0,1
670,-1.0,1.0,2.0,2.0,-29.0,-4.0,1.0,1.0,1651093897939646.0,1
671,-3.0,0.0,-6.0,1.0,13.0,2.0,-1.0,-1.0,1651093897939646.0,1
672,2.0,-1.0,0.0,3.0,52.0,1.0,1.0,1.0,1651093897940489.0,1
673,0.0,0.0,-4.0,-12.0,-24.0,-6.0,-1.0,0.0,1651093897940489.0,1
674,-2.0,0.0,3.0,7.0,-6.0,1.0,-1.0,-2.0,1651093897963284.0,1
675,-2.0,0.0,1.0,-2.0,-3.0,3.0,1.0,0.0,1651093897963284.0,1
676,3.0,2.0,1.0,-1.0,-13.0,-4.0,-2.0,-2.0,1651093897964128.0,1
677,-1.0,-1.0,2.0,7.0,26.0,0.0,-1.0,-1.0,1651093897964128.0,1
678,1.0,-4.0,-5.0,-1.0,20.0,0.0,0.0,0.0,1651093897975316.0,1
679,-2.0,0.0,0.0,3.0,24.0,0.0,-3.0,1.0,1651093897975316.0,1
680,0.0,2.0,1.0,-7.0,-69.0,0.0,5.0,1.0,1651093897984512.0,1
681,1.0,-2.0,0.0,-3.0,6.0,-1.0,-2.0,-1.0,1651093897984512.0,1
682,0.0,1.0,-4.0,-1.0,-13.0,-5.0,-2.0,-1.0,1651093897999573.0,1
683,-1.0,-2.0,-1.0,1.0,7.0,-5.0,0.0,1.0,1651093897999573.0,1
684,0.0,-2.0,-1.0,6.0,36.0,9.0,1.0,0.0,1651093898000408.0,1
685,0.0,1.0,2.0,3.0,-11.0,6.0,0.0,-1.0,1651093898000408.0,1
686,-1.0,-1.0,-1.0,-3.0,-23.0,-4.0,-1.0,0.0,1651093898022201.0,1
687,1.0,-2.0,-2.0,-2.0,-5.0,1.0,1.0,-1.0,1651093898022201.0,1
688,-2.0,1.0,0.0,2.0,23.0,-11.0,-2.0,-1.0,1651093898023201.0,1
689,1.0,2.0,2.0,1.0,-30.0,-2.0,1.0,-1.0,1651093898023201.0,1
690,-1.0,-3.0,0.0,1.0,12.0,4.0,1.0,-1.0,1651093898036176.0,1
691,0.0,-3.0,-6.0,-4.0,-5.0,-3.0,-4.0,0.0,1651093898036176.0,1
692,-2.0,-2.0,3.0,-3.0,-10.0,-3.0,-3.0,0.0,1651093898044282.0,1
693,-1.0,-1.0,1.0,3.0,14.0,0.0,-2.0,0.0,1651093898044282.0,1
694,1.0,2.0,-4.0,-2.0,3.0,-1.0,1.0,0.0,1651093898059694.0,1
695,-1.0,-2.0,0.0,1.0,7.0,3.0,1.0,-1.0,1651093898059694.0,1
696,-1.0,-2.0,-2.0,1.0,-15.0,3.0,0.0,-1.0,1651093898060658.0,1
697,-1.0,1.0,-3.0,4.0,-2.0,-2.0,0.0,-1.0,1651093898060658.0,1
698,0.0,-1.0,-1.0,-9.0,7.0,0.0,0.0,1.0,1651093898082160.0,1
699,-2.0,0.0,-1.0,-5.0,7.0,-1.0,-1.0,0.0,1651093898082160.0,1
700,0.0,-4.0,-4.0,3.0,-16.0,-3.0,0.0,0.0,1651093898083159.0,1
701,0.0,-1.0,1.0,-3.0,5.0,-1.0,0.0,0.0,1651093898083159.0,1
702,0.0,-1.0,0.0,4.0,44.0,0.0,1.0,-2.0,1651093898095453.0,1
703,1.0,0.0,2.0,3.0,-37.0,11.0,1.0,1.0,1651093898095453.0,1
704,0.0,0.0,1.0,-7.0,-15.0,-3.0,-1.0,-1.0,1651093898104425.0,1
705,1.0,0.0,0.0,-1.0,-9.0,-3.0,0.0,0.0,1651093898104425.0,1
706,-1.0,0.0,1.0,1.0,11.0,1.0,1.0,-1.0,1651093898119615.0,1
707,0.0,0.0,0.0,-4.0,6.0,-15.0,-2.0,-1.0,1651093898119615.0,1
708,-1.0,-1.0,-1.0,2.0,-4.0,24.0,0.0,-1.0,1651093898120615.0,1
709,-1.0,-2.0,-3.0,-4.0,-2.0,-3.0,0.0,0.0,1651093898120615.0,1
710,-1.0,-1.0,-1.0,-1.0,10.0,1.0,-1.0,-1.0,1651093898141307.0,1
711,-1.0,-3.0,-3.0,6.0,0.0,0.0,-1.0,-2.0,1651093898141307.0,1
712,-1.0,0.0,6.0,-1.0,-13.0,-12.0,-1.0,0.0,1651093898148273.0,1
713,-1.0,-1.0,-4.0,-4.0,8.0,-3.0,0.0,-2.0,1651093898148273.0,1
714,0.0,0.0,2.0,2.0,-35.0,2.0,0.0,0.0,1651093898156238.0,1
715,-1.0,1.0,-1.0,-6.0,11.0,-4.0,-1.0,-1.0,1651093898156238.0,1
716,-1.0,-1.0,-2.0,0.0,6.0,-1.0,0.0,-2.0,1651093898164283.0,1
717,-1.0,1.0,2.0,3.0,36.0,7.0,2.0,0.0,1651093898164283.0,1
718,-2.0,-2.0,-3.0,-2.0,-10.0,-3.0,-1.0,0.0,1651093898179847.0,1
719,-1.0,-3.0,0.0,6.0,1.0,2.0,-2.0,-2.0,1651093898179847.0,1
720,-1.0,0.0,0.0,-12.0,-13.0,-7.0,-1.0,-2.0,1651093898181680.0,1
721,-1.0,2.0,-5.0,-6.0,-17.0,-6.0,-1.0,-1.0,1651093898181680.0,1
722,-1.0,0.0,-2.0,7.0,0.0,4.0,-1.0,0.0,1651093898202141.0,1
723,-1.0,-3.0,-1.0,0.0,8.0,1.0,1.0,-1.0,1651093898202141.0,1
724,-1.0,-1.0,-3.0,4.0,7.0,-4.0,-1.0,0.0,1651093898203096.0,1
725,0.0,-1.0,2.0,1.0,-1.0,-1.0,-2.0,-2.0,1651093898203096.0,1
726,0.0,1.0,2.0,-10.0,3.0,1.0,0.0,-1.0,1651093898216219.0,1
727,-1.0,0.0,-1.0,3.0,-9.0,5.0,1.0,0.0,1651093898216219.0,1
728,0.0,-2.0,-3.0,3.0,-4.0,-3.0,-1.0,0.0,1651093898224410.0,1
729,0.0,2.0,2.0,-1.0,9.0,0.0,0.0,0.0,1651093898224410.0,1
730,-1.0,-1.0,2.0,-1.0,-6.0,-4.0,-1.0,0.0,1651093898239727.0,1
731,0.0,1.0,0.0,-3.0,2.0,5.0,0.0,1.0,1651093898239727.0,1
732,0.0,0.0,-1.0,-1.0,5.0,-2.0,0.0,-1.0,1651093898241724.0,1
733,-2.0,-2.0,-2.0,-2.0,-4.0,-1.0,-2.0,0.0,1651093898241724.0,1
734,0.0,-3.0,-3.0,-5.0,-3.0,-13.0,-1.0,0.0,1651093898261895.0,1
735,0.0,-1.0,0.0,3.0,9.0,15.0,1.0,0.0,1651093898261895.0,1
736,0.0,-2.0,-1.0,0.0,-18.0,-4.0,-1.0,0.0,1651093898262930.0,1
737,-1.0,-1.0,5.0,0.0,7.0,-1.0,-1.0,0.0,1651093898262930.0,1
738,0.0,-2.0,-5.0,4.0,12.0,7.0,0.0,2.0,1651093898275086.0,1
739,-2.0,-2.0,-2.0,-4.0,-17.0,-6.0,-2.0,-2.0,1651093898275086.0,1
740,0.0,1.0,-2.0,0.0,-4.0,-1.0,-1.0,-2.0,1651093898284262.0,1
741,0.0,0.0,-1.0,-2.0,-4.0,-1.0,-2.0,-1.0,1651093898284262.0,1
742,1.0,1.0,3.0,-7.0,-2.0,-1.0,-2.0,-1.0,1651093898299442.0,1
743,0.0,-2.0,-2.0,-5.0,1.0,-9.0,0.0,-1.0,1651093898299442.0,1
744,0.0,0.0,1.0,1.0,13.0,10.0,2.0,2.0,1651093898300441.0,1
745,0.0,-2.0,0.0,8.0,-2.0,-2.0,-2.0,-1.0,1651093898300441.0,1
746,0.0,-3.0,-6.0,5.0,-21.0,-3.0,-2.0,-2.0,1651093898322080.0,1
747,1.0,2.0,3.0,-6.0,24.0,1.0,-1.0,0.0,1651093898322080.0,1
748,0.0,0.0,1.0,-3.0,-12.0,-1.0,0.0,0.0,1651093898322915.0,1
749,0.0,1.0,-1.0,5.0,5.0,-2.0,5.0,1.0,1651093898322915.0,1
750,-1.0,-1.0,2.0,-5.0,-4.0,2.0,-1.0,0.0,1651093898352273.0,1
751,-1.0,-2.0,-6.0,-6.0,-16.0,-3.0,-1.0,-2.0,1651093898352273.0,1
752,0.0,-3.0,-1.0,-3.0,9.0,-5.0,-2.0,-1.0,1651093898353273.0,1
753,-2.0,-2.0,-3.0,-2.0,2.0,5.0,4.0,0.0,1651093898353273.0,1
754,1.0,0.0,2.0,7.0,-8.0,-5.0,-4.0,1.0,1651093898359258.0,1
755,-2.0,0.0,2.0,-5.0,3.0,-1.0,-2.0,-1.0,1651093898359258.0,1
756,-2.0,0.0,-3.0,2.0,7.0,3.0,-3.0,0.0,1651093898366395.0,1
757,-1.0,-2.0,-1.0,2.0,-7.0,-4.0,-1.0,-2.0,1651093898366395.0,1
758,-2.0,0.0,-1.0,-9.0,4.0,0.0,1.0,-1.0,1651093898381965.0,1
759,0.0,1.0,0.0,2.0,3.0,-2.0,0.0,-1.0,1651093898381965.0,1
760,-1.0,-3.0,-1.0,3.0,-1.0,-5.0,-2.0,0.0,1651093898383447.0,1
761,0.0,0.0,-1.0,-4.0,-4.0,1.0,-2.0,-1.0,1651093898383447.0,1
762,1.0,-1.0,-1.0,0.0,1.0,4.0,0.0,1.0,1651093898405075.0,1
763,1.0,-2.0,-2.0,-2.0,-3.0,3.0,-2.0,1.0,1651093898405075.0,1
764,-1.0,1.0,0.0,-3.0,-6.0,-3.0,2.0,0.0,1651093898405911.0,1
765,0.0,-2.0,2.0,-2.0,2.0,-3.0,-3.0,-1.0,1651093898405911.0,1
766,-1.0,0.0,-2.0,4.0,3.0,2.0,0.0,0.0,1651093898420207.0,1
767,0.0,0.0,1.0,3.0,0.0,-7.0,-1.0,0.0,1651093898420207.0,1
768,0.0,1.0,-3.0,1.0,2.0,1.0,-1.0,-1.0,1651093898421105.0,1
769,0.0,-3.0,2.0,-6.0,-5.0,3.0,0.0,0.0,1651093898421105.0,1
770,-2.0,-1.0,-6.0,-1.0,2.0,-6.0,0.0,0.0,1651093898441449.0,1
771,-1.0,-3.0,-5.0,-6.0,-4.0,4.0,0.0,-2.0,1651093898441449.0,1
772,0.0,2.0,0.0,2.0,11.0,-4.0,-3.0,-1.0,1651093898443445.0,1
773,0.0,1.0,1.0,0.0,10.0,2.0,-1.0,0.0,1651093898443445.0,1
774,0.0,0.0,1.0,-3.0,-13.0,-2.0,1.0,-1.0,1651093898463875.0,1
775,1.0,0.0,2.0,1.0,10.0,-8.0,0.0,0.0,1651093898463875.0,1
776,-1.0,-2.0,-1.0,-4.0,-24.0,3.0,1.0,1.0,1651093898465896.0,1
777,0.0,0.0,-2.0,2.0,8.0,0.0,0.0,0.0,1651093898465896.0,1
778,-1.0,-2.0,0.0,2.0,6.0,9.0,-4.0,-3.0,1651093898480226.0,1
779,-1.0,1.0,0.0,-2.0,1.0,3.0,3.0,1.0,1651093898480226.0,1
780,-1.0,-2.0,-4.0,0.0,-6.0,-3.0,-2.0,-2.0,1651093898481064.0,1
781,-2.0,1.0,6.0,-1.0,-4.0,-2.0,1.0,-1.0,1651093898481064.0,1
782,0.0,2.0,2.0,4.0,10.0,2.0,0.0,0.0,1651093898502312.0,1
783,1.0,0.0,0.0,0.0,-5.0,2.0,0.0,-1.0,1651093898502312.0,1
784,-2.0,-2.0,-3.0,-2.0,0.0,-3.0,2.0,0.0,1651093898503555.0,1
785,0.0,0.0,-7.0,-7.0,-12.0,2.0,-4.0,0.0,1651093898503555.0,1
786,1.0,0.0,-1.0,-4.0,7.0,3.0,2.0,-1.0,1651093898523969.0,1
787,-2.0,-4.0,-2.0,2.0,-6.0,-3.0,-3.0,-1.0,1651093898523969.0,1
788,2.0,0.0,-1.0,1.0,7.0,-2.0,-1.0,-1.0,1651093898526000.0,1
789,-1.0,-1.0,-1.0,3.0,5.0,-15.0,-3.0,0.0,1651093898526000.0,1
790,1.0,2.0,3.0,-3.0,3.0,15.0,4.0,1.0,1651093898539095.0,1
791,0.0,2.0,1.0,1.0,0.0,1.0,1.0,2.0,1651093898539095.0,1
792,0.0,-3.0,0.0,-4.0,-5.0,-2.0,-1.0,2.0,1651093898546076.0,1
793,-1.0,-5.0,-4.0,-4.0,-1.0,5.0,-2.0,0.0,1651093898546076.0,1
794,-2.0,-1.0,-2.0,2.0,-7.0,-13.0,-2.0,-1.0,1651093898562176.0,1
795,-1.0,-1.0,0.0,-1.0,2.0,-2.0,-1.0,-1.0,1651093898562176.0,1
796,0.0,0.0,4.0,2.0,9.0,5.0,0.0,1.0,1651093898563176.0,1
797,1.0,-2.0,-12.0,-2.0,-3.0,-1.0,3.0,0.0,1651093898563176.0,1
798,-2.0,-1.0,3.0,2.0,4.0,-5.0,-4.0,0.0,1651093898584450.0,1
799,1.0,-1.0,-3.0,4.0,0.0,-1.0,1.0,-3.0,1651093898584450.0,1
800,0.0,1.0,-1.0,4.0,-1.0,0.0,2.0,-2.0,1651093898585447.0,1
801,0.0,1.0,1.0,-7.0,-2.0,-1.0,-2.0,0.0,1651093898585447.0,1
802,-1.0,-1.0,-1.0,0.0,-10.0,3.0,0.0,-1.0,1651093898598551.0,1
803,-1.0,0.0,0.0,4.0,-3.0,-2.0,-4.0,-1.0,1651093898598551.0,1
804,1.0,-1.0,2.0,-1.0,4.0,-3.0,-5.0,-2.0,1651093898605533.0,1
805,-2.0,-2.0,-1.0,3.0,-1.0,-4.0,3.0,-1.0,1651093898605533.0,1
806,-2.0,-1.0,-2.0,-10.0,-8.0,-6.0,-2.0,-1.0,1651093898622120.0,1
807,0.0,-1.0,-1.0,-3.0,-6.0,3.0,-1.0,0.0,1651093898622120.0,1
808,0.0,-2.0,-1.0,3.0,8.0,0.0,-1.0,-1.0,1651093898623122.0,1
809,-1.0,1.0,3.0,2.0,-8.0,4.0,-3.0,-1.0,1651093898623122.0,1
810,0.0,-2.0,-1.0,-1.0,29.0,2.0,5.0,1.0,1651093898644347.0,1
811,0.0,-1.0,2.0,-5.0,-8.0,-6.0,-3.0,0.0,1651093898644347.0,1
812,-1.0,0.0,-1.0,-5.0,-4.0,-3.0,-5.0,1.0,1651093898645256.0,1
813,-2.0,1.0,1.0,3.0,1.0,2.0,-6.0,-2.0,1651093898645256.0,1
814,1.0,-1.0,-2.0,2.0,-11.0,-10.0,5.0,-2.0,1651093898658516.0,1
815,1.0,-1.0,-5.0,3.0,2.0,7.0,18.0,1.0,1651093898658516.0,1
816,0.0,1.0,2.0,-3.0,7.0,3.0,-3.0,-2.0,1651093898665560.0,1
817,1.0,3.0,5.0,-4.0,-3.0,-2.0,-5.0,0.0,1651093898665560.0,1
818,-2.0,-2.0,-3.0,2.0,-4.0,-3.0,-8.0,0.0,1651093898682218.0,1
819,-1.0,-3.0,-1.0,-6.0,0.0,-2.0,-4.0,-3.0,1651093898682218.0,1
820,-1.0,-2.0,-4.0,2.0,0.0,2.0,1.0,-1.0,1651093898683218.0,1
821,2.0,0.0,-3.0,0.0,2.0,0.0,4.0,0.0,1651093898683218.0,1
822,-1.0,1.0,0.0,2.0,0.0,-3.0,-2.0,1.0,1651093898704588.0,1
823,0.0,2.0,0.0,0.0,-5.0,6.0,1.0,1.0,1651093898704588.0,1
824,-1.0,-2.0,-3.0,-4.0,2.0,-4.0,0.0,0.0,1651093898705445.0,1
825,-1.0,0.0,6.0,5.0,-2.0,-3.0,-1.0,-2.0,1651093898705445.0,1
826,1.0,0.0,-3.0,-9.0,15.0,5.0,0.0,0.0,1651093898719190.0,1
827,0.0,1.0,0.0,3.0,-7.0,-4.0,-5.0,-1.0,1651093898719190.0,1
828,0.0,-1.0,0.0,2.0,-8.0,3.0,2.0,0.0,1651093898725582.0,1
829,-1.0,-2.0,-1.0,0.0,21.0,1.0,9.0,0.0,1651093898725582.0,1
830,-2.0,-4.0,-3.0,3.0,4.0,-4.0,-9.0,-2.0,1651093898741624.0,1
831,-1.0,0.0,6.0,-4.0,-6.0,1.0,-28.0,-3.0,1651093898741624.0,1
832,0.0,1.0,0.0,2.0,-3.0,0.0,37.0,0.0,1651093898743653.0,1
833,0.0,-1.0,-4.0,-4.0,-8.0,0.0,-2.0,-2.0,1651093898743653.0,1
834,0.0,-2.0,0.0,5.0,-6.0,-2.0,9.0,1.0,1651093898763773.0,1
835,-1.0,-2.0,-5.0,2.0,12.0,8.0,-17.0,0.0,1651093898763773.0,1
836,0.0,2.0,0.0,-2.0,-6.0,-6.0,-11.0,2.0,1651093898765768.0,1
837,-2.0,0.0,-1.0,0.0,-2.0,-8.0,-23.0,-5.0,1651093898765768.0,1
838,-1.0,-3.0,0.0,-2.0,-5.0,1.0,2.0,-5.0,1651093898778870.0,1
839,0.0,-2.0,-3.0,-2.0,-18.0,-4.0,1.0,1.0,1651093898778870.0,1
840,-2.0,-1.0,-4.0,-2.0,17.0,11.0,49.0,3.0,1651093898793534.0,1
841,2.0,1.0,0.0,2.0,-13.0,3.0,13.0,5.0,1651093898793534.0,1
842,0.0,0.0,0.0,-3.0,-42.0,-5.0,-5.0,-1.0,1651093898802211.0,1
843,1.0,0.0,2.0,3.0,63.0,3.0,-15.0,0.0,1651093898802211.0,1
844,-2.0,-3.0,-6.0,-2.0,20.0,-7.0,-10.0,-3.0,1651093898803073.0,1
845,-1.0,0.0,3.0,-1.0,0.0,-2.0,-18.0,-2.0,1651093898803073.0,1
846,-1.0,-1.0,0.0,0.0,0.0,-1.0,18.0,0.0,1651093898824354.0,1
847,0.0,0.0,-1.0,-4.0,-38.0,-1.0,16.0,3.0,1651093898824354.0,1
848,0.0,-2.0,1.0,5.0,-12.0,-10.0,-31.0,1.0,1651093898825384.0,1
849,-1.0,-1.0,-6.0,-3.0,-6.0,3.0,49.0,1.0,1651093898825384.0,1
850,0.0,0.0,-1.0,0.0,-8.0,-2.0,-47.0,-6.0,1651093898838493.0,1
851,-1.0,1.0,-1.0,-4.0,-11.0,-3.0,-9.0,-1.0,1651093898838493.0,1
852,-2.0,0.0,-3.0,-1.0,16.0,16.0,34.0,-2.0,1651093898846550.0,0
853,1.0,1.0,1.0,1.0,-5.0,2.0,-27.0,0.0,1651093898846550.0,2
854,-4.0,0.0,1.0,-1.0,8.0,0.0,-6.0,-2.0,1651093898862169.0,2
855,-1.0,-4.0,-4.0,-1.0,9.0,-12.0,-19.0,-5.0,1651093898862169.0,2
856,-3.0,-2.0,0.0,0.0,-41.0,2.0,-19.0,-7.0,1651093898863169.0,2
857,4.0,2.0,2.0,4.0,1.0,18.0,-51.0,12.0,1651093898863169.0,2
858,0.0,0.0,0.0,-5.0,1.0,-8.0,98.0,7.0,1651093898884286.0,2
859,-2.0,1.0,-1.0,-1.0,16.0,1.0,0.0,0.0,1651093898884286.0,2
860,-2.0,-3.0,-2.0,-4.0,-6.0,-9.0,-21.0,-6.0,1651093898886288.0,2
861,-4.0,-4.0,-6.0,-3.0,0.0,7.0,-10.0,-12.0,1651093898886288.0,2
862,-1.0,-4.0,-5.0,-1.0,4.0,-7.0,-62.0,-4.0,1651093898898323.0,2
863,0.0,1.0,3.0,7.0,-23.0,-16.0,-4.0,-1.0,1651093898898323.0,2
864,-2.0,1.0,4.0,-8.0,16.0,-22.0,-19.0,-6.0,1651093898907456.0,2
865,-2.0,-2.0,-3.0,-12.0,-16.0,4.0,81.0,1.0,1651093898907456.0,2
866,5.0,4.0,3.0,5.0,25.0,20.0,69.0,8.0,1651093898922146.0,2
867,10.0,3.0,1.0,10.0,6.0,28.0,-2.0,19.0,1651093898922146.0,2
868,-3.0,4.0,4.0,1.0,9.0,-2.0,-31.0,1.0,1651093898923499.0,2
869,-12.0,-5.0,-2.0,-12.0,-11.0,-31.0,-45.0,-18.0,1651093898923499.0,2
870,-16.0,-3.0,-4.0,-6.0,0.0,-2.0,28.0,-22.0,1651093898944550.0,2
871,4.0,-6.0,-3.0,4.0,0.0,24.0,-94.0,8.0,1651093898944550.0,2
872,10.0,1.0,-1.0,0.0,-19.0,-13.0,31.0,13.0,1651093898945409.0,2
873,11.0,2.0,1.0,-4.0,1.0,19.0,22.0,12.0,1651093898945409.0,2
874,-7.0,2.0,5.0,-22.0,-26.0,18.0,-102.0,-1.0,1651093898957600.0,2
875,-19.0,-4.0,-1.0,16.0,4.0,-4.0,85.0,-33.0,1651093898957600.0,2
876,-2.0,2.0,-4.0,-11.0,4.0,-28.0,-68.0,12.0,1651093898966568.0,2
877,42.0,3.0,-2.0,13.0,21.0,-25.0,-34.0,32.0,1651093898966568.0,2
878,5.0,0.0,-2.0,5.0,4.0,-1.0,79.0,12.0,1651093898981822.0,2
879,-15.0,-1.0,5.0,7.0,3.0,75.0,-1.0,-12.0,1651093898981822.0,2
880,15.0,1.0,0.0,-7.0,-6.0,-8.0,-11.0,3.0,1651093898987939.0,2
881,-3.0,-1.0,1.0,-34.0,-6.0,77.0,16.0,-8.0,1651093898987939.0,2
882,-11.0,-4.0,-3.0,15.0,-6.0,-18.0,-84.0,-26.0,1651093899004189.0,2
883,-49.0,-8.0,-3.0,19.0,9.0,-100.0,-68.0,-62.0,1651093899004189.0,2
884,3.0,-6.0,-5.0,14.0,-4.0,45.0,106.0,17.0,1651093899010173.0,2
885,-4.0,7.0,8.0,7.0,2.0,-123.0,-69.0,2.0,1651093899010173.0,2
886,32.0,2.0,1.0,-5.0,6.0,64.0,45.0,41.0,1651093899017593.0,2
887,27.0,8.0,2.0,-38.0,-13.0,-3.0,-58.0,27.0,1651093899017593.0,2
888,-48.0,-12.0,-14.0,3.0,-2.0,-50.0,62.0,-78.0,1651093899027362.0,2
889,20.0,-2.0,-1.0,16.0,17.0,53.0,-35.0,28.0,1651093899027362.0,2
890,57.0,15.0,7.0,8.0,10.0,60.0,88.0,88.0,1651093899042442.0,2
891,7.0,-3.0,3.0,-3.0,-8.0,20.0,-3.0,-7.0,1651093899042442.0,2
892,-27.0,1.0,3.0,-9.0,-4.0,-25.0,-57.0,-5.0,1651093899043374.0,2
893,-28.0,-3.0,-4.0,-5.0,-30.0,-4.0,-20.0,-52.0,1651093899043374.0,2
894,-54.0,-10.0,0.0,1.0,13.0,-59.0,-32.0,-62.0,1651093899073233.0,2
895,50.0,6.0,-6.0,-11.0,-4.0,-59.0,13.0,33.0,1651093899073233.0,2
896,21.0,4.0,2.0,-11.0,12.0,39.0,-43.0,25.0,1651093899074912.0,2
897,-27.0,-10.0,-6.0,6.0,3.0,40.0,60.0,-20.0,1651093899074912.0,2
898,4.0,4.0,3.0,22.0,14.0,-39.0,17.0,33.0,1651093899077929.0,2
899,1.0,-3.0,-3.0,-2.0,-21.0,-9.0,17.0,-2.0,1651093899077929.0,2
900,-5.0,2.0,6.0,8.0,38.0,28.0,-59.0,5.0,1651093899087038.0,2
901,22.0,4.0,0.0,0.0,11.0,31.0,52.0,8.0,1651093899087038.0,2
902,-6.0,-5.0,-1.0,-13.0,-46.0,-72.0,-42.0,-3.0,1651093899102568.0,2
903,-27.0,-10.0,-10.0,-12.0,-11.0,19.0,18.0,-33.0,1651093899102568.0,2
904,-8.0,-4.0,3.0,-1.0,-5.0,29.0,28.0,-30.0,1651093899103439.0,2
905,57.0,12.0,-3.0,49.0,41.0,32.0,12.0,76.0,1651093899103439.0,2
906,-33.0,-2.0,-2.0,-8.0,-12.0,-3.0,-3.0,-57.0,1651093899123871.0,2
907,1.0,3.0,-2.0,2.0,44.0,104.0,76.0,46.0,1651093899123871.0,2
908,-35.0,-5.0,-2.0,-5.0,-26.0,17.0,-23.0,-43.0,1651093899125710.0,2
909,50.0,7.0,4.0,-7.0,-34.0,-24.0,7.0,66.0,1651093899125710.0,2
910,19.0,-1.0,3.0,3.0,5.0,16.0,-74.0,-7.0,1651093899138525.0,2
911,-13.0,-7.0,-11.0,-12.0,10.0,-17.0,-2.0,-23.0,1651093899138525.0,2
912,-7.0,-5.0,1.0,-4.0,-9.0,-5.0,-5.0,-26.0,1651093899146652.0,2
913,-31.0,1.0,0.0,-18.0,-6.0,-9.0,-12.0,-13.0,1651093899146652.0,2
914,9.0,1.0,-3.0,13.0,36.0,37.0,-25.0,-9.0,1651093899161803.0,2
915,0.0,2.0,3.0,-9.0,-7.0,30.0,54.0,7.0,1651093899161803.0,2
916,31.0,2.0,3.0,10.0,2.0,-68.0,-13.0,23.0,1651093899163681.0,2
917,-25.0,-5.0,-2.0,0.0,-17.0,14.0,-12.0,-8.0,1651093899163681.0,2
918,-84.0,-12.0,-2.0,-7.0,2.0,33.0,29.0,-64.0,1651093899185256.0,2
919,77.0,6.0,2.0,7.0,17.0,-2.0,35.0,98.0,1651093899185256.0,2
920,57.0,7.0,-1.0,4.0,-4.0,47.0,52.0,68.0,1651093899186148.0,2
921,-10.0,9.0,7.0,0.0,3.0,-39.0,-18.0,-35.0,1651093899186148.0,2
922,-28.0,-3.0,-8.0,-10.0,6.0,12.0,-51.0,-59.0,1651093899198193.0,2
923,4.0,-1.0,6.0,13.0,3.0,-12.0,-1.0,5.0,1651093899198193.0,2
924,-3.0,-5.0,-6.0,-3.0,-20.0,-99.0,-22.0,21.0,1651093899207160.0,2
925,-4.0,-16.0,-7.0,-10.0,1.0,-24.0,12.0,-35.0,1651093899207160.0,2
926,11.0,13.0,0.0,0.0,-10.0,11.0,-11.0,30.0,1651093899222537.0,2
927,-14.0,4.0,-6.0,-7.0,-24.0,-54.0,-23.0,-32.0,1651093899222537.0,2
928,18.0,13.0,24.0,26.0,40.0,-1.0,36.0,16.0,1651093899223568.0,2
929,-36.0,-9.0,0.0,3.0,5.0,-19.0,-32.0,-40.0,1651093899223568.0,2
930,-39.0,-8.0,-5.0,-42.0,-40.0,-35.0,35.0,-55.0,1651093899245057.0,2
931,54.0,-2.0,-4.0,25.0,-8.0,30.0,1.0,64.0,1651093899245057.0,2
932,26.0,1.0,-9.0,0.0,4.0,-15.0,4.0,30.0,1651093899245891.0,2
933,-20.0,-6.0,1.0,13.0,11.0,-51.0,13.0,-21.0,1651093899245891.0,2
934,3.0,-8.0,-3.0,-5.0,-15.0,-17.0,2.0,9.0,1651093899257859.0,2
935,-29.0,8.0,8.0,-11.0,-14.0,-14.0,-21.0,-47.0,1651093899257859.0,2
936,-15.0,-2.0,-3.0,-12.0,8.0,78.0,46.0,-22.0,1651093899267251.0,2
937,-9.0,-2.0,-3.0,6.0,11.0,24.0,-41.0,-10.0,1651093899267251.0,2
938,78.0,6.0,1.0,1.0,3.0,-41.0,76.0,92.0,1651093899289512.0,2
939,-41.0,-7.0,0.0,-8.0,-7.0,-49.0,-26.0,-29.0,1651093899289512.0,2
940,-11.0,-1.0,-4.0,16.0,3.0,68.0,5.0,-21.0,1651093899290512.0,2
941,9.0,-6.0,-4.0,-17.0,-14.0,-82.0,10.0,44.0,1651093899290512.0,2
942,-8.0,1.0,-15.0,-8.0,4.0,23.0,-42.0,-8.0,1651093899310981.0,2
943,-48.0,3.0,18.0,8.0,-8.0,20.0,-5.0,-106.0,1651093899310981.0,2
944,70.0,6.0,-1.0,4.0,0.0,8.0,-55.0,93.0,1651093899319870.0,2
945,-1.0,-5.0,2.0,-12.0,-5.0,-60.0,48.0,8.0,1651093899319870.0,2
946,17.0,4.0,7.0,13.0,1.0,13.0,6.0,15.0,1651093899327879.0,2
947,-7.0,1.0,-6.0,-11.0,23.0,-1.0,0.0,-6.0,1651093899327879.0,2
948,-60.0,-10.0,-2.0,-19.0,-39.0,12.0,-53.0,-84.0,1651093899327879.0,2
949,-22.0,-3.0,-9.0,3.0,-9.0,11.0,-41.0,-41.0,1651093899327879.0,2
950,45.0,0.0,-8.0,-23.0,1.0,22.0,37.0,53.0,1651093899349322.0,2
951,15.0,5.0,8.0,41.0,9.0,59.0,75.0,20.0,1651093899349322.0,2
952,-28.0,-7.0,-4.0,6.0,5.0,-16.0,-86.0,-48.0,1651093899350354.0,2
953,13.0,0.0,-1.0,-7.0,4.0,-30.0,42.0,26.0,1651093899350354.0,2
954,-29.0,-1.0,5.0,9.0,4.0,-59.0,-33.0,-37.0,1651093899364598.0,2
955,-2.0,-4.0,-6.0,-28.0,-25.0,-24.0,-23.0,6.0,1651093899364598.0,2
956,-43.0,3.0,7.0,-4.0,11.0,-20.0,35.0,13.0,1651093899365449.0,2
957,57.0,-3.0,-7.0,-2.0,-12.0,14.0,-3.0,40.0,1651093899365449.0,2
958,12.0,-2.0,5.0,12.0,19.0,-14.0,-18.0,-4.0,1651093899387067.0,2
959,21.0,9.0,0.0,-1.0,3.0,31.0,17.0,14.0,1651093899387067.0,2
960,-29.0,-12.0,-25.0,-2.0,4.0,56.0,8.0,-32.0,1651093899387913.0,2
961,-65.0,-4.0,18.0,-8.0,-5.0,-62.0,-20.0,-51.0,1651093899387913.0,2
962,0.0,9.0,3.0,9.0,-10.0,24.0,18.0,-4.0,1651093899402087.0,2
963,47.0,-5.0,-7.0,-1.0,31.0,32.0,3.0,81.0,1651093899402087.0,2
964,16.0,8.0,1.0,-5.0,-21.0,-15.0,48.0,-9.0,1651093899403087.0,2
965,-4.0,-1.0,-12.0,-7.0,-8.0,37.0,-6.0,-14.0,1651093899403087.0,2
966,-8.0,-6.0,5.0,18.0,5.0,24.0,-21.0,1.0,1651093899424288.0,2
967,-26.0,-6.0,-4.0,-1.0,8.0,-98.0,-28.0,-32.0,1651093899424288.0,2
968,-5.0,2.0,17.0,3.0,1.0,44.0,-33.0,-17.0,1651093899425316.0,2
969,21.0,11.0,4.0,7.0,10.0,0.0,51.0,57.0,1651093899425316.0,2
970,-107.0,-16.0,-2.0,-3.0,2.0,-29.0,-44.0,-112.0,1651093899447651.0,2
971,88.0,3.0,-8.0,1.0,2.0,-32.0,25.0,93.0,1651093899447651.0,2
972,54.0,3.0,-6.0,-9.0,-7.0,-7.0,0.0,0.0,1651093899448684.0,2
973,-1.0,-3.0,6.0,5.0,-5.0,-11.0,11.0,-42.0,1651093899448684.0,2
974,-3.0,16.0,5.0,5.0,1.0,35.0,-3.0,-17.0,1651093899461779.0,2
975,-78.0,-1.0,2.0,1.0,0.0,9.0,-2.0,-64.0,1651093899461779.0,2
976,-4.0,-7.0,-7.0,-6.0,8.0,-6.0,-13.0,-18.0,1651093899467759.0,2
977,28.0,6.0,15.0,7.0,29.0,58.0,-5.0,61.0,1651093899467759.0,2
978,48.0,-4.0,-3.0,0.0,-29.0,2.0,-1.0,39.0,1651093899484910.0,2
979,-23.0,-1.0,-1.0,-7.0,-9.0,-4.0,-9.0,-10.0,1651093899484910.0,2
980,9.0,-1.0,-3.0,3.0,-1.0,-23.0,43.0,29.0,1651093899485740.0,2
981,-50.0,-10.0,-16.0,-13.0,17.0,55.0,-44.0,-65.0,1651093899485740.0,2
982,-26.0,-4.0,-4.0,4.0,16.0,43.0,-38.0,-35.0,1651093899507202.0,2
983,44.0,6.0,8.0,11.0,-36.0,-29.0,2.0,71.0,1651093899507202.0,2
984,-13.0,5.0,9.0,1.0,-15.0,-51.0,45.0,-13.0,1651093899514021.0,2
985,19.0,5.0,-10.0,-12.0,13.0,47.0,43.0,29.0,1651093899514021.0,2
986,9.0,-7.0,-2.0,0.0,13.0,-39.0,-19.0,0.0,1651093899521594.0,2
987,-28.0,-1.0,0.0,1.0,-31.0,113.0,-33.0,-71.0,1651093899521594.0,2
988,-37.0,-18.0,-5.0,10.0,19.0,-4.0,-12.0,-14.0,1651093899528494.0,2
989,18.0,12.0,-1.0,-3.0,-23.0,47.0,-3.0,-27.0,1651093899528494.0,2
990,40.0,0.0,0.0,-3.0,-6.0,-84.0,1.0,75.0,1651093899544395.0,2
991,-71.0,-4.0,-9.0,-10.0,19.0,-15.0,-44.0,-128.0,1651093899544395.0,2
992,95.0,19.0,-5.0,-11.0,14.0,-54.0,73.0,127.0,1651093899546254.0,2
993,-16.0,-6.0,16.0,10.0,-4.0,49.0,-14.0,-25.0,1651093899546254.0,2
994,41.0,1.0,-6.0,-3.0,-3.0,-25.0,47.0,21.0,1651093899567212.0,2
995,-10.0,1.0,-6.0,-14.0,-23.0,-6.0,-1.0,-19.0,1651093899567212.0,2
996,-38.0,-14.0,-6.0,-4.0,2.0,6.0,-76.0,-53.0,1651093899568052.0,2
997,-55.0,-8.0,4.0,9.0,-8.0,-76.0,-17.0,-10.0,1651093899568052.0,2
998,9.0,-2.0,-2.0,-9.0,13.0,64.0,48.0,22.0,1651093899582147.0,2
999,12.0,2.0,4.0,10.0,14.0,4.0,40.0,23.0,1651093899582147.0,2
1000,-2.0,0.0,-18.0,-3.0,-2.0,-20.0,-44.0,-30.0,1651093899588316.0,2
1001,18.0,9.0,16.0,-2.0,-12.0,-10.0,44.0,22.0,1651093899588316.0,2
1002,-39.0,-12.0,-1.0,7.0,-41.0,14.0,-30.0,-20.0,1651093899604645.0,2
1003,27.0,5.0,-2.0,-8.0,38.0,10.0,0.0,49.0,1651093899604645.0,2
1004,-6.0,-5.0,0.0,3.0,8.0,-1.0,-16.0,-21.0,1651093899605482.0,2
1005,-19.0,7.0,-9.0,11.0,-25.0,-30.0,-14.0,-40.0,1651093899605482.0,2
1006,23.0,10.0,14.0,8.0,43.0,43.0,10.0,27.0,1651093899627173.0,2
1007,-15.0,-14.0,-11.0,-3.0,-26.0,-33.0,-2.0,12.0,1651093899627173.0,2
1008,6.0,1.0,8.0,-5.0,-20.0,25.0,31.0,24.0,1651093899628173.0,2
1009,28.0,9.0,-2.0,-14.0,-4.0,25.0,-42.0,27.0,1651093899628173.0,2
1010,28.0,6.0,4.0,13.0,17.0,-19.0,-3.0,22.0,1651093899641333.0,2
1011,-15.0,-1.0,0.0,-9.0,-15.0,12.0,47.0,-4.0,1651093899641333.0,2
1012,-54.0,-9.0,8.0,5.0,22.0,-17.0,-21.0,-42.0,1651093899648269.0,2
1013,14.0,-3.0,-15.0,4.0,11.0,13.0,-14.0,21.0,1651093899648269.0,2
1014,2.0,8.0,10.0,-6.0,-12.0,-17.0,-41.0,-18.0,1651093899664572.0,2
1015,17.0,-5.0,7.0,6.0,14.0,-32.0,-4.0,8.0,1651093899664572.0,2
1016,-3.0,1.0,0.0,-9.0,-56.0,-11.0,25.0,-4.0,1651093899665570.0,2
1017,7.0,4.0,-4.0,6.0,38.0,1.0,-5.0,-4.0,1651093899665570.0,2
1018,7.0,-6.0,-9.0,-7.0,-9.0,-22.0,-21.0,2.0,1651093899686908.0,2
1019,-42.0,-15.0,-9.0,13.0,27.0,-14.0,-29.0,-46.0,1651093899686908.0,2
1020,24.0,9.0,3.0,-10.0,-23.0,-8.0,19.0,24.0,1651093899688741.0,2
1021,-9.0,-3.0,-5.0,3.0,-2.0,14.0,7.0,-17.0,1651093899688741.0,2
1022,16.0,-1.0,-2.0,1.0,-13.0,67.0,23.0,32.0,1651093899702044.0,2
1023,-25.0,1.0,12.0,-9.0,-41.0,-29.0,-24.0,-31.0,1651093899702044.0,2
1024,47.0,-5.0,-7.0,4.0,27.0,82.0,48.0,62.0,1651093899707870.0,2
1025,-17.0,-14.0,-5.0,-11.0,-25.0,-36.0,-20.0,-21.0,1651093899707870.0,2
1026,-12.0,9.0,0.0,-4.0,22.0,56.0,69.0,-7.0,1651093899724148.0,2
1027,2.0,-1.0,-9.0,14.0,34.0,10.0,-22.0,2.0,1651093899724148.0,2
1028,-44.0,1.0,19.0,-6.0,-17.0,-10.0,-24.0,-56.0,1651093899726180.0,2
1029,55.0,0.0,-11.0,-2.0,12.0,48.0,22.0,67.0,1651093899726180.0,2
1030,-13.0,3.0,8.0,-1.0,-9.0,1.0,-12.0,-45.0,1651093899746478.0,2
1031,15.0,0.0,-4.0,-6.0,-18.0,-56.0,-3.0,28.0,1651093899746478.0,2
1032,-19.0,3.0,3.0,-5.0,3.0,17.0,-7.0,-20.0,1651093899748311.0,2
1033,-31.0,-9.0,-3.0,-2.0,-15.0,-46.0,-24.0,-48.0,1651093899748311.0,2
1034,-22.0,-4.0,-5.0,0.0,-7.0,-34.0,-16.0,-27.0,1651093899761601.0,2
1035,67.0,13.0,4.0,-14.0,-27.0,-52.0,41.0,61.0,1651093899761601.0,2
1036,2.0,-7.0,-5.0,0.0,29.0,16.0,-19.0,1.0,1651093899767559.0,2
1037,-21.0,2.0,1.0,-6.0,-33.0,12.0,16.0,-19.0,1651093899767559.0,2
1038,8.0,-3.0,-3.0,3.0,-8.0,-16.0,-27.0,4.0,1651093899783858.0,2
1039,-32.0,-10.0,6.0,31.0,47.0,96.0,-5.0,-29.0,1651093899783858.0,2
1040,-11.0,-3.0,-5.0,0.0,-6.0,8.0,32.0,-34.0,1651093899785855.0,2
1041,52.0,-7.0,-15.0,3.0,44.0,2.0,-7.0,64.0,1651093899785855.0,2
1042,10.0,3.0,10.0,-11.0,-21.0,-53.0,50.0,22.0,1651093899806354.0,2
1043,-2.0,15.0,2.0,-16.0,-5.0,-8.0,60.0,7.0,1651093899806354.0,2
1044,-19.0,-2.0,-8.0,9.0,30.0,44.0,-13.0,2.0,1651093899821575.0,2
1045,-7.0,6.0,15.0,-4.0,-21.0,18.0,15.0,-36.0,1651093899821575.0,2
1046,3.0,-6.0,12.0,2.0,-6.0,-57.0,1.0,-2.0,1651093899821940.0,2
1047,20.0,-7.0,-30.0,-10.0,-5.0,18.0,-35.0,16.0,1651093899821940.0,2
1048,1.0,11.0,17.0,-2.0,3.0,-38.0,7.0,-5.0,1651093899829390.0,2
1049,-31.0,-4.0,-4.0,8.0,14.0,60.0,-35.0,-33.0,1651093899829390.0,2
1050,-9.0,-6.0,-13.0,-14.0,-14.0,24.0,-15.0,7.0,1651093899844702.0,2
1051,-5.0,-4.0,1.0,4.0,40.0,4.0,-7.0,-24.0,1651093899844702.0,2
1052,12.0,-2.0,-9.0,10.0,-40.0,-20.0,-2.0,32.0,1651093899845544.0,2
1053,-6.0,0.0,9.0,3.0,-13.0,56.0,18.0,-9.0,1651093899845544.0,2
1054,-10.0,2.0,-4.0,0.0,18.0,25.0,-9.0,-13.0,1651093899866875.0,2
1055,5.0,2.0,1.0,-28.0,-28.0,6.0,7.0,-3.0,1651093899866875.0,2
1056,40.0,-4.0,-18.0,5.0,13.0,-6.0,13.0,35.0,1651093899872978.0,2
1057,-8.0,-1.0,16.0,5.0,-9.0,-30.0,-27.0,5.0,1651093899872978.0,2
1058,-36.0,-8.0,-7.0,-1.0,13.0,2.0,8.0,-62.0,1651093899879977.0,2
1059,21.0,7.0,13.0,-5.0,-7.0,48.0,3.0,34.0,1651093899879977.0,2
1060,-44.0,9.0,6.0,-5.0,-14.0,-55.0,-29.0,-58.0,1651093899889143.0,2
1061,54.0,6.0,-4.0,9.0,25.0,-54.0,57.0,73.0,1651093899889143.0,2
1062,7.0,-1.0,-15.0,-4.0,-18.0,32.0,-36.0,-4.0,1651093899904307.0,2
1063,-17.0,-11.0,4.0,3.0,5.0,-21.0,-21.0,0.0,1651093899904307.0,2
1064,16.0,-1.0,1.0,-7.0,-6.0,-68.0,11.0,19.0,1651093899906333.0,2
1065,-21.0,3.0,-8.0,2.0,19.0,93.0,-11.0,-47.0,1651093899906333.0,2
1066,11.0,0.0,2.0,12.0,-21.0,-25.0,11.0,28.0,1651093899927640.0,2
1067,-9.0,2.0,4.0,0.0,-20.0,-2.0,-4.0,-25.0,1651093899927640.0,2
1068,22.0,0.0,-18.0,7.0,49.0,-21.0,1.0,22.0,1651093899928640.0,2
1069,-34.0,0.0,19.0,-12.0,17.0,-20.0,-27.0,-15.0,1651093899928640.0,2
1070,25.0,-5.0,-1.0,7.0,-24.0,-16.0,13.0,28.0,1651093899940771.0,2
1071,-17.0,2.0,6.0,9.0,-11.0,-6.0,26.0,-24.0,1651093899940771.0,2
1072,19.0,6.0,4.0,0.0,14.0,42.0,-3.0,10.0,1651093899949584.0,2
1073,9.0,-8.0,-30.0,-18.0,20.0,-46.0,17.0,13.0,1651093899949584.0,2
1074,-9.0,-2.0,4.0,2.0,11.0,-12.0,-41.0,-2.0,1651093899963727.0,2
1075,-57.0,5.0,17.0,0.0,-19.0,-45.0,12.0,-44.0,1651093899963727.0,2
1076,-8.0,5.0,-5.0,1.0,-1.0,17.0,-42.0,-30.0,1651093899965725.0,2
1077,49.0,-2.0,-4.0,-5.0,-23.0,-42.0,47.0,46.0,1651093899965725.0,2
1078,16.0,9.0,-11.0,-3.0,-3.0,50.0,-14.0,-7.0,1651093899987212.0,2
1079,-19.0,-17.0,-10.0,9.0,26.0,-19.0,1.0,-7.0,1651093899987212.0,2
1080,17.0,4.0,13.0,-1.0,0.0,58.0,-43.0,9.0,1651093899988053.0,2
1081,-44.0,4.0,4.0,5.0,-13.0,-40.0,-28.0,-39.0,1651093899988053.0,2
1082,-12.0,0.0,-1.0,-10.0,-19.0,33.0,35.0,-16.0,1651093900001200.0,2
1083,8.0,2.0,-3.0,8.0,33.0,0.0,-37.0,-12.0,1651093900001200.0,2
1084,-17.0,-9.0,8.0,-1.0,-22.0,-63.0,17.0,4.0,1651093900009301.0,2
1085,-21.0,-3.0,-5.0,-10.0,2.0,51.0,-15.0,-45.0,1651093900009301.0,2
1086,-18.0,-2.0,-2.0,10.0,27.0,13.0,-11.0,-6.0,1651093900024485.0,2
1087,88.0,4.0,11.0,11.0,-5.0,-15.0,16.0,113.0,1651093900024485.0,2
1088,17.0,15.0,-10.0,-13.0,-26.0,-32.0,-7.0,-10.0,1651093900025481.0,2
1089,-53.0,-15.0,31.0,1.0,-11.0,-24.0,-45.0,-72.0,1651093900025481.0,2
1090,17.0,6.0,-15.0,-5.0,14.0,-34.0,30.0,16.0,1651093900046966.0,2
1091,43.0,12.0,-7.0,-12.0,-31.0,49.0,-4.0,39.0,1651093900046966.0,2
1092,15.0,-9.0,-10.0,-9.0,7.0,5.0,25.0,17.0,1651093900047965.0,2
1093,1.0,-5.0,-2.0,15.0,-1.0,-37.0,-7.0,-2.0,1651093900047965.0,2
1094,-72.0,-4.0,22.0,9.0,4.0,11.0,6.0,-80.0,1651093900061293.0,2
1095,7.0,-11.0,-8.0,4.0,24.0,41.0,-11.0,20.0,1651093900061293.0,2
1096,-2.0,1.0,2.0,-10.0,-37.0,-69.0,18.0,26.0,1651093900069238.0,2
1097,-6.0,11.0,-5.0,-2.0,3.0,-32.0,-36.0,-10.0,1651093900069238.0,2
1098,-20.0,-11.0,-6.0,-5.0,43.0,45.0,1.0,-26.0,1651093900084254.0,2
1099,-8.0,3.0,5.0,-4.0,-11.0,-12.0,7.0,-10.0,1651093900084254.0,2
1100,11.0,0.0,-2.0,4.0,5.0,64.0,12.0,9.0,1651093900092235.0,2
1101,-14.0,-9.0,-6.0,-22.0,-23.0,24.0,12.0,-7.0,1651093900092235.0,2
1102,23.0,0.0,-8.0,21.0,8.0,-50.0,-16.0,41.0,1651093900106484.0,2
1103,-7.0,4.0,-16.0,1.0,3.0,-7.0,-47.0,-30.0,1651093900106484.0,2
1104,-40.0,-13.0,29.0,0.0,-1.0,-8.0,30.0,-27.0,1651093900108384.0,2
1105,4.0,-1.0,3.0,10.0,17.0,51.0,20.0,19.0,1651093900108384.0,2
1106,18.0,5.0,-18.0,-9.0,-2.0,-22.0,-23.0,-15.0,1651093900129679.0,2
1107,35.0,4.0,14.0,6.0,-3.0,-58.0,28.0,10.0,1651093900129679.0,2
1108,-15.0,2.0,-8.0,3.0,6.0,-57.0,-15.0,5.0,1651093900130680.0,2
1109,10.0,-4.0,-7.0,5.0,-3.0,45.0,21.0,3.0,1651093900130680.0,2
1110,7.0,-5.0,11.0,-11.0,-33.0,-17.0,13.0,54.0,1651093900145016.0,2
1111,-30.0,-6.0,-15.0,0.0,4.0,-40.0,-28.0,-48.0,1651093900145016.0,2
1112,27.0,-10.0,-11.0,-4.0,-8.0,28.0,1.0,5.0,1651093900145912.0,2
1113,-7.0,4.0,5.0,-8.0,2.0,14.0,17.0,-5.0,1651093900145912.0,2
1114,-44.0,-7.0,-8.0,0.0,46.0,11.0,-40.0,-65.0,1651093900167457.0,2
1115,16.0,7.0,8.0,7.0,-44.0,34.0,0.0,44.0,1651093900167457.0,2
1116,0.0,4.0,5.0,-6.0,-5.0,2.0,12.0,10.0,1651093900168291.0,2
1117,1.0,-8.0,-19.0,1.0,-3.0,-22.0,2.0,-6.0,1651093900168291.0,2
1118,12.0,-3.0,8.0,2.0,6.0,-15.0,-11.0,23.0,1651093900181420.0,2
1119,-21.0,2.0,6.0,-10.0,-1.0,22.0,16.0,-9.0,1651093900181420.0,2
1120,9.0,-13.0,-4.0,2.0,35.0,16.0,-3.0,-26.0,1651093900189588.0,2
1121,8.0,20.0,2.0,3.0,-5.0,-38.0,-17.0,20.0,1651093900189588.0,2
1122,32.0,7.0,-2.0,0.0,-47.0,-23.0,-21.0,12.0,1651093900204892.0,2
1123,-48.0,0.0,-4.0,5.0,27.0,47.0,62.0,-27.0,1651093900204892.0,2
1124,-56.0,-11.0,-8.0,1.0,-19.0,2.0,-18.0,-55.0,1651093900205748.0,2
1125,94.0,10.0,0.0,1.0,3.0,31.0,49.0,110.0,1651093900205748.0,2
1126,1.0,-7.0,-18.0,-14.0,12.0,-50.0,-16.0,-7.0,1651093900227092.0,2
1127,-9.0,1.0,21.0,-4.0,-2.0,-16.0,5.0,-15.0,1651093900227092.0,2
1128,3.0,2.0,1.0,20.0,36.0,65.0,-17.0,10.0,1651093900227935.0,2
1129,15.0,1.0,8.0,4.0,-29.0,-18.0,23.0,24.0,1651093900227935.0,2
1130,-12.0,6.0,2.0,2.0,0.0,36.0,11.0,3.0,1651093900249285.0,2
1131,35.0,3.0,-3.0,-4.0,-15.0,-58.0,0.0,12.0,1651093900249285.0,2
1132,-27.0,2.0,4.0,0.0,29.0,-3.0,-11.0,-24.0,1651093900250305.0,2
1133,-46.0,-13.0,-6.0,4.0,20.0,8.0,-20.0,-60.0,1651093900250305.0,2
1134,50.0,8.0,6.0,-18.0,-24.0,-36.0,8.0,66.0,1651093900272195.0,2
1135,0.0,-5.0,1.0,12.0,13.0,11.0,-4.0,6.0,1651093900272195.0,2
1136,5.0,-3.0,6.0,1.0,-7.0,15.0,11.0,6.0,1651093900273509.0,2
1137,-14.0,6.0,-11.0,-4.0,3.0,-19.0,-6.0,-25.0,1651093900273509.0,2
1138,7.0,0.0,1.0,-1.0,-37.0,-59.0,2.0,19.0,1651093900286803.0,2
1139,-18.0,-8.0,-10.0,-18.0,5.0,35.0,-1.0,-44.0,1651093900286803.0,2
1140,-3.0,-4.0,-5.0,-9.0,-13.0,47.0,8.0,30.0,1651093900288671.0,2
1141,39.0,-8.0,1.0,6.0,-14.0,-5.0,-23.0,4.0,1651093900288671.0,2
1142,-28.0,7.0,2.0,-6.0,5.0,-3.0,11.0,-18.0,1651093900310192.0,2
1143,-6.0,1.0,-3.0,-11.0,9.0,-12.0,-40.0,-15.0,1651093900310192.0,2
1144,11.0,4.0,-12.0,1.0,-17.0,11.0,36.0,25.0,1651093900311193.0,2
1145,41.0,15.0,17.0,-8.0,-5.0,2.0,-14.0,11.0,1651093900311193.0,2
1146,5.0,-10.0,1.0,5.0,37.0,38.0,-13.0,-6.0,1651093900324363.0,2
1147,-7.0,7.0,-6.0,3.0,-47.0,27.0,19.0,11.0,1651093900324363.0,2
1148,-47.0,-4.0,5.0,-2.0,-11.0,-13.0,-45.0,-60.0,1651093900325370.0,2
1149,-37.0,-2.0,-16.0,-1.0,29.0,3.0,18.0,-21.0,1651093900325370.0,2
1150,35.0,7.0,25.0,7.0,15.0,34.0,16.0,19.0,1651093900346592.0,2
1151,8.0,-4.0,-6.0,-2.0,-21.0,14.0,7.0,1.0,1651093900346592.0,2
1152,-1.0,-5.0,-14.0,-5.0,-16.0,-95.0,16.0,16.0,1651093900348425.0,2
1153,-23.0,-8.0,-2.0,-5.0,12.0,-1.0,-23.0,-19.0,1651093900348425.0,2
1154,-5.0,-5.0,-3.0,11.0,0.0,81.0,8.0,-12.0,1651093900369751.0,2
1155,-20.0,-14.0,-13.0,-2.0,14.0,20.0,-3.0,-9.0,1651093900369751.0,2
1156,41.0,16.0,17.0,-14.0,-25.0,-49.0,-34.0,32.0,1651093900370751.0,2
1157,-21.0,-3.0,0.0,24.0,16.0,24.0,50.0,-24.0,1651093900370751.0,2
1158,-23.0,-6.0,-6.0,1.0,28.0,8.0,-53.0,-6.0,1651093900384861.0,2
1159,20.0,11.0,0.0,-3.0,-6.0,-51.0,72.0,28.0,1651093900384861.0,2
1160,19.0,-9.0,-3.0,5.0,7.0,64.0,39.0,17.0,1651093900385711.0,2
1161,10.0,12.0,7.0,-11.0,-39.0,0.0,-20.0,-12.0,1651093900385711.0,2
1162,-46.0,-11.0,-5.0,-12.0,1.0,6.0,-32.0,-40.0,1651093900407029.0,2
1163,37.0,12.0,11.0,15.0,32.0,-16.0,5.0,50.0,1651093900407029.0,2
1164,-9.0,-9.0,-30.0,-9.0,-2.0,26.0,2.0,28.0,1651093900407870.0,2
1165,29.0,2.0,15.0,-8.0,-12.0,-27.0,-8.0,18.0,1651093900407870.0,2
1166,-25.0,-4.0,9.0,24.0,24.0,-42.0,4.0,-44.0,1651093900437063.0,2
1167,-43.0,-19.0,-11.0,-12.0,6.0,24.0,-54.0,-32.0,1651093900437063.0,2
1168,38.0,11.0,13.0,14.0,2.0,-49.0,16.0,-1.0,1651093900438060.0,2
1169,-12.0,-3.0,-11.0,-11.0,-21.0,-65.0,-62.0,16.0,1651093900438060.0,2
1170,8.0,-3.0,-16.0,-15.0,-11.0,-58.0,78.0,10.0,1651093900443047.0,2
1171,-19.0,-7.0,5.0,7.0,21.0,-36.0,-24.0,-30.0,1651093900443047.0,2
1172,5.0,8.0,18.0,6.0,-7.0,34.0,34.0,11.0,1651093900458018.0,2
1173,-18.0,-8.0,-14.0,-6.0,30.0,12.0,-23.0,-2.0,1651093900458018.0,2
1174,-24.0,5.0,3.0,6.0,-35.0,13.0,18.0,-37.0,1651093900467225.0,2
1175,78.0,-8.0,-4.0,-11.0,14.0,-14.0,8.0,82.0,1651093900467225.0,2
1176,-12.0,3.0,-1.0,-5.0,-46.0,-9.0,-66.0,-38.0,1651093900468225.0,2
1177,55.0,14.0,10.0,-18.0,-35.0,-25.0,61.0,79.0,1651093900468225.0,2
1178,-11.0,-6.0,-21.0,12.0,47.0,23.0,-6.0,13.0,1651093900489558.0,2
1179,-75.0,-8.0,7.0,-6.0,-25.0,57.0,-33.0,-74.0,1651093900489558.0,2
1180,28.0,1.0,11.0,11.0,79.0,48.0,-5.0,-9.0,1651093900490563.0,2
1181,26.0,-2.0,0.0,5.0,-24.0,-5.0,35.0,27.0,1651093900490563.0,2
1182,12.0,3.0,-4.0,-19.0,-35.0,-15.0,-17.0,22.0,1651093900503762.0,2
1183,2.0,1.0,-6.0,0.0,13.0,-18.0,13.0,-7.0,1651093900503762.0,2
1184,-38.0,-11.0,-5.0,-7.0,-10.0,-24.0,-29.0,-37.0,1651093900511025.0,2
1185,-40.0,-6.0,-2.0,2.0,31.0,76.0,-3.0,-24.0,1651093900511025.0,2
1186,47.0,4.0,-14.0,11.0,-16.0,3.0,48.0,63.0,1651093900526073.0,2
1187,22.0,11.0,22.0,11.0,64.0,14.0,-26.0,1.0,1651093900526073.0,2
1188,-5.0,-4.0,-3.0,-2.0,-57.0,-4.0,24.0,-7.0,1651093900533939.0,2
1189,-35.0,-2.0,-4.0,0.0,-22.0,8.0,7.0,-16.0,1651093900533939.0,2
1190,7.0,0.0,5.0,-17.0,-10.0,22.0,-2.0,-15.0,1651093900549290.0,2
1191,12.0,-8.0,-6.0,-3.0,-16.0,-10.0,-7.0,29.0,1651093900549290.0,2
1192,-5.0,14.0,1.0,-2.0,28.0,14.0,-22.0,-8.0,1651093900550324.0,2
1193,8.0,0.0,-7.0,8.0,8.0,26.0,-18.0,-16.0,1651093900550324.0,2
1194,-3.0,-1.0,5.0,2.0,5.0,12.0,17.0,-4.0,1651093900563640.0,2
1195,-4.0,-4.0,-11.0,-9.0,3.0,1.0,19.0,-13.0,1651093900563640.0,2
1196,1.0,-3.0,11.0,-7.0,-13.0,11.0,22.0,16.0,1651093900570715.0,2
1197,-14.0,-1.0,-4.0,11.0,8.0,0.0,-14.0,-15.0,1651093900570715.0,2
1198,-2.0,3.0,11.0,7.0,12.0,31.0,-11.0,6.0,1651093900586808.0,2
1199,-3.0,-2.0,-8.0,-1.0,-21.0,-30.0,9.0,-14.0,1651093900586808.0,2
1200,4.0,-1.0,-6.0,-13.0,-3.0,-7.0,-8.0,13.0,1651093900588697.0,2
1201,-9.0,-6.0,-5.0,9.0,-20.0,-8.0,6.0,-14.0,1651093900588697.0,2
1202,5.0,4.0,19.0,13.0,15.0,-29.0,12.0,5.0,1651093900609766.0,2
1203,0.0,0.0,2.0,-7.0,-11.0,0.0,-36.0,-5.0,1651093900609766.0,2
1204,-4.0,-1.0,-6.0,0.0,13.0,4.0,16.0,0.0,1651093900610610.0,2
1205,-8.0,1.0,6.0,-3.0,10.0,-28.0,-2.0,0.0,1651093900610610.0,2
1206,8.0,-1.0,-8.0,-7.0,-18.0,24.0,-10.0,4.0,1651093900623796.0,2
1207,-9.0,-4.0,-5.0,-7.0,-15.0,-30.0,-10.0,-10.0,1651093900623796.0,2
1208,-2.0,1.0,5.0,12.0,11.0,-29.0,-16.0,-1.0,1651093900630937.0,2
1209,3.0,-5.0,-4.0,7.0,7.0,8.0,34.0,3.0,1651093900630937.0,2
1210,3.0,-1.0,-1.0,-12.0,-12.0,5.0,3.0,1.0,1651093900647436.0,2
1211,-7.0,6.0,5.0,32.0,-13.0,-17.0,-3.0,-8.0,1651093900647436.0,2
1212,3.0,1.0,-7.0,-18.0,6.0,38.0,-7.0,-1.0,1651093900648306.0,2
1213,-1.0,-5.0,1.0,-7.0,7.0,-28.0,-6.0,-1.0,1651093900648306.0,2
1214,-2.0,-3.0,-6.0,0.0,27.0,-13.0,-10.0,-3.0,1651093900669572.0,2
1215,-4.0,2.0,-4.0,-12.0,-56.0,9.0,3.0,-1.0,1651093900669572.0,2
1216,2.0,-1.0,1.0,9.0,39.0,0.0,6.0,4.0,1651093900670573.0,2
1217,-3.0,-2.0,5.0,2.0,7.0,8.0,0.0,-1.0,1651093900670573.0,2
1218,0.0,5.0,5.0,-13.0,31.0,-21.0,-6.0,0.0,1651093900683582.0,2
1219,0.0,-3.0,-4.0,-2.0,-19.0,14.0,2.0,-2.0,1651093900683582.0,2
1220,-3.0,1.0,-17.0,8.0,23.0,5.0,1.0,0.0,1651093900690553.0,2
1221,-3.0,1.0,21.0,-13.0,-19.0,-6.0,-4.0,-2.0,1651093900690553.0,2
1222,2.0,-6.0,-9.0,2.0,20.0,-2.0,-6.0,-2.0,1651093900706877.0,2
1223,-3.0,-2.0,-3.0,-1.0,-14.0,12.0,4.0,-2.0,1651093900706877.0,2
1224,1.0,0.0,7.0,6.0,-8.0,-11.0,0.0,0.0,1651093900708711.0,2
1225,-2.0,1.0,-9.0,0.0,-3.0,12.0,-2.0,0.0,1651093900708711.0,2
1226,1.0,-2.0,-3.0,0.0,-12.0,-8.0,-4.0,-1.0,1651093900746221.0,2
1227,-4.0,1.0,2.0,-2.0,11.0,6.0,0.0,-3.0,1651093900746221.0,2
1228,-2.0,-2.0,0.0,-13.0,-52.0,-15.0,-2.0,-1.0,1651093900748215.0,2
1229,-1.0,-6.0,-17.0,6.0,72.0,2.0,0.0,0.0,1651093900748215.0,2
1230,0.0,1.0,24.0,7.0,-5.0,-3.0,-3.0,0.0,1651093900751233.0,2
1231,1.0,-6.0,-17.0,-4.0,9.0,34.0,2.0,-3.0,1651093900751233.0,2
1232,2.0,12.0,16.0,9.0,-9.0,9.0,1.0,1.0,1651093900753202.0,2
1233,-1.0,-13.0,-1.0,-4.0,-68.0,-19.0,-4.0,-1.0,1651093900753202.0,2
1234,-2.0,8.0,-19.0,2.0,30.0,6.0,-1.0,-2.0,1651093900767530.0,2
1235,-1.0,0.0,25.0,-11.0,-7.0,-34.0,-1.0,-1.0,1651093900767530.0,2
1236,-2.0,-10.0,-19.0,-7.0,-12.0,-2.0,0.0,-1.0,1651093900768402.0,2
1237,-1.0,4.0,3.0,3.0,18.0,9.0,4.0,0.0,1651093900768402.0,2
1238,1.0,-4.0,-5.0,-9.0,-35.0,-6.0,-2.0,1.0,1651093900789694.0,2
1239,0.0,1.0,-5.0,2.0,4.0,-1.0,0.0,0.0,1651093900789694.0,2
1240,-2.0,-2.0,4.0,4.0,28.0,-1.0,2.0,0.0,1651093900790694.0,2
1241,1.0,1.0,-2.0,1.0,2.0,12.0,1.0,-2.0,1651093900790694.0,2
1242,0.0,-5.0,-1.0,-2.0,-2.0,-1.0,-1.0,0.0,1651093900804006.0,2
1243,-1.0,5.0,-1.0,-1.0,-79.0,-7.0,-2.0,-2.0,1651093900804006.0,2
1244,0.0,-3.0,2.0,-3.0,39.0,0.0,0.0,0.0,1651093900812170.0,2
1245,1.0,4.0,0.0,7.0,52.0,9.0,-1.0,0.0,1651093900812170.0,2
1246,0.0,1.0,1.0,-3.0,-33.0,-1.0,-1.0,-1.0,1651093900827532.0,2
1247,-1.0,-2.0,-2.0,0.0,31.0,4.0,1.0,0.0,1651093900827532.0,2
1248,0.0,0.0,-3.0,7.0,9.0,-3.0,2.0,1.0,1651093900828532.0,2
1249,-1.0,2.0,10.0,-4.0,-20.0,1.0,-2.0,-2.0,1651093900828532.0,2
1250,-1.0,-2.0,0.0,1.0,-15.0,1.0,-1.0,-1.0,1651093900849777.0,2
1251,-2.0,-1.0,-3.0,0.0,21.0,-2.0,0.0,1.0,1651093900849777.0,2
1252,-1.0,-1.0,1.0,-3.0,-27.0,-2.0,-3.0,-2.0,1651093900850777.0,2
1253,-2.0,-1.0,-15.0,-6.0,7.0,-5.0,-3.0,-1.0,1651093900850777.0,2
1254,1.0,0.0,16.0,3.0,-51.0,2.0,2.0,1.0,1651093900863464.0,2
1255,0.0,-1.0,-1.0,0.0,12.0,3.0,0.0,-2.0,1651093900863464.0,2
1256,1.0,3.0,-1.0,0.0,3.0,-5.0,-2.0,-1.0,1651093900871629.0,2
1257,-1.0,-1.0,4.0,-5.0,-4.0,4.0,0.0,-1.0,1651093900871629.0,2
1258,-4.0,-4.0,-10.0,-1.0,-12.0,-9.0,-4.0,-1.0,1651093900887739.0,2
1259,1.0,-2.0,-2.0,-3.0,22.0,6.0,0.0,-1.0,1651093900887739.0,2
1260,0.0,1.0,3.0,2.0,9.0,5.0,-1.0,-2.0,1651093900888579.0,2
1261,-1.0,-2.0,-2.0,5.0,-29.0,-9.0,0.0,-1.0,1651093900888579.0,2
1262,-3.0,-1.0,-3.0,-4.0,11.0,2.0,-1.0,-1.0,1651093900910191.0,2
1263,0.0,3.0,2.0,2.0,7.0,17.0,2.0,1.0,1651093900910191.0,2
1264,-1.0,-3.0,-3.0,-1.0,-16.0,-2.0,0.0,0.0,1651093900910363.0,2
1265,2.0,0.0,-1.0,-5.0,-3.0,-3.0,-1.0,-1.0,1651093900910363.0,2
1266,1.0,1.0,1.0,1.0,-37.0,-12.0,-2.0,-1.0,1651093900923734.0,2
1267,0.0,0.0,0.0,3.0,80.0,14.0,0.0,1.0,1651093900923734.0,2
1268,1.0,-1.0,-3.0,4.0,18.0,14.0,4.0,2.0,1651093900931481.0,2
1269,-2.0,1.0,-1.0,0.0,5.0,-3.0,-1.0,1.0,1651093900931481.0,2
1270,0.0,1.0,8.0,0.0,-1.0,-3.0,0.0,0.0,1651093900947864.0,2
1271,-2.0,-3.0,-2.0,-3.0,-41.0,-15.0,-2.0,-3.0,1651093900947864.0,2
1272,-2.0,-2.0,-5.0,-6.0,-9.0,0.0,-1.0,0.0,1651093900947864.0,2
1273,0.0,-3.0,-5.0,-5.0,4.0,0.0,-2.0,-1.0,1651093900947864.0,2
1274,1.0,1.0,-6.0,0.0,7.0,1.0,2.0,-1.0,1651093900970524.0,2
1275,-1.0,-1.0,1.0,1.0,3.0,-6.0,-1.0,-1.0,1651093900970524.0,2
1276,0.0,0.0,3.0,2.0,-4.0,-4.0,0.0,-1.0,1651093900971556.0,2
1277,0.0,-3.0,-5.0,1.0,-9.0,-1.0,-1.0,-1.0,1651093900971556.0,2
1278,-1.0,-2.0,6.0,-4.0,1.0,3.0,-1.0,0.0,1651093900983905.0,2
1279,0.0,1.0,3.0,1.0,2.0,-2.0,0.0,0.0,1651093900983905.0,2
1280,0.0,0.0,-1.0,2.0,10.0,-5.0,0.0,-1.0,1651093900991831.0,2
1281,-1.0,-1.0,3.0,0.0,-14.0,-8.0,-2.0,1.0,1651093900991831.0,2
1282,-1.0,-3.0,-10.0,0.0,17.0,3.0,1.0,-1.0,1651093901015261.0,2
1283,0.0,-1.0,-1.0,-1.0,-11.0,-2.0,1.0,0.0,1651093901015261.0,2
1284,-2.0,-1.0,-3.0,-7.0,-19.0,-11.0,-1.0,-1.0,1651093901016145.0,2
1285,-1.0,-3.0,-6.0,-1.0,9.0,6.0,-2.0,0.0,1651093901016145.0,2
1286,0.0,3.0,6.0,-6.0,6.0,2.0,-2.0,0.0,1651093901029307.0,2
1287,-1.0,0.0,1.0,7.0,8.0,-5.0,0.0,0.0,1651093901029307.0,2
1288,-1.0,1.0,2.0,0.0,-2.0,-3.0,-1.0,0.0,1651093901030338.0,2
1289,-1.0,2.0,4.0,6.0,9.0,0.0,2.0,0.0,1651093901030338.0,2
1290,0.0,-2.0,-7.0,-9.0,-1.0,11.0,0.0,1.0,1651093901052251.0,2
1291,-1.0,2.0,1.0,-4.0,-20.0,-10.0,-1.0,0.0,1651093901052251.0,2
1292,0.0,-2.0,-4.0,-1.0,-6.0,2.0,-3.0,-1.0,1651093901053497.0,2
1293,-1.0,-3.0,-5.0,-1.0,0.0,-3.0,0.0,0.0,1651093901053497.0,2
1294,-2.0,1.0,11.0,-3.0,12.0,-6.0,-1.0,-2.0,1651093901067620.0,2
1295,0.0,0.0,-4.0,-14.0,-4.0,-3.0,-1.0,0.0,1651093901067620.0,2
1296,-1.0,-1.0,1.0,14.0,-7.0,7.0,0.0,0.0,1651093901068652.0,2
1297,1.0,0.0,0.0,-1.0,1.0,0.0,-1.0,0.0,1651093901068652.0,2
1298,0.0,0.0,-3.0,3.0,3.0,-2.0,1.0,0.0,1651093901090176.0,2
1299,0.0,-1.0,-2.0,0.0,7.0,3.0,0.0,-3.0,1651093901090176.0,2
1300,-2.0,-2.0,-1.0,-10.0,-22.0,-6.0,-1.0,-1.0,1651093901091178.0,2
1301,-1.0,-1.0,-5.0,-6.0,-13.0,-19.0,-2.0,-1.0,1651093901091178.0,2
1302,0.0,4.0,8.0,7.0,13.0,16.0,1.0,1.0,1651093901103477.0,2
1303,1.0,1.0,-2.0,5.0,-5.0,2.0,1.0,0.0,1651093901103477.0,2
1304,-1.0,-5.0,-2.0,-2.0,4.0,-3.0,1.0,-1.0,1651093901111533.0,2
1305,-1.0,-1.0,2.0,-13.0,-13.0,1.0,-1.0,-3.0,1651093901111533.0,2
1306,-1.0,-3.0,-8.0,11.0,-11.0,-11.0,-1.0,-2.0,1651093901127650.0,2
1307,-1.0,0.0,0.0,3.0,-4.0,-2.0,-2.0,-2.0,1651093901127650.0,2
1308,0.0,2.0,3.0,2.0,-3.0,1.0,-2.0,1.0,1651093901128682.0,2
1309,-2.0,1.0,1.0,-1.0,3.0,5.0,1.0,-2.0,1651093901128682.0,2
1310,0.0,-2.0,-6.0,-7.0,13.0,-3.0,-2.0,-1.0,1651093901150041.0,2
1311,0.0,-1.0,-1.0,-3.0,2.0,2.0,-1.0,-1.0,1651093901150041.0,2
1312,0.0,-2.0,2.0,0.0,-1.0,1.0,-1.0,-2.0,1651093901150280.0,2
1313,1.0,3.0,2.0,5.0,-1.0,-2.0,-1.0,-1.0,1651093901150280.0,2
1314,0.0,-4.0,-10.0,-6.0,-3.0,11.0,0.0,1.0,1651093901162458.0,2
1315,-1.0,-4.0,-12.0,6.0,-1.0,-14.0,0.0,-1.0,1651093901162458.0,2
1316,-1.0,4.0,21.0,-3.0,-7.0,13.0,1.0,0.0,1651093901171574.0,2
1317,1.0,3.0,0.0,-3.0,4.0,-1.0,1.0,2.0,1651093901171574.0,2
1318,-2.0,-1.0,-4.0,-1.0,-13.0,-6.0,-1.0,-1.0,1651093901187719.0,2
1319,0.0,-1.0,1.0,-3.0,15.0,-2.0,-1.0,0.0,1651093901187719.0,2
1320,1.0,0.0,-5.0,6.0,-3.0,6.0,1.0,1.0,1651093901188582.0,2
1321,-1.0,1.0,2.0,8.0,4.0,4.0,1.0,-1.0,1651093901188582.0,2
1322,0.0,-2.0,1.0,0.0,-1.0,-5.0,0.0,1.0,1651093901209798.0,2
1323,-2.0,-3.0,-5.0,-6.0,-13.0,-5.0,-2.0,-1.0,1651093901209798.0,2
1324,-2.0,-1.0,-7.0,-2.0,16.0,-3.0,0.0,-2.0,1651093901210663.0,2
1325,0.0,-1.0,3.0,0.0,-1.0,-2.0,0.0,1.0,1651093901210663.0,2
1326,1.0,-1.0,-3.0,4.0,-14.0,-6.0,-1.0,-1.0,1651093901233028.0,2
1327,0.0,-1.0,3.0,-1.0,0.0,15.0,1.0,0.0,1651093901233028.0,2
1328,0.0,-4.0,-10.0,-27.0,-9.0,1.0,0.0,-1.0,1651093901233872.0,2
1329,-1.0,0.0,3.0,21.0,1.0,-5.0,-2.0,0.0,1651093901233872.0,2
1330,2.0,2.0,2.0,0.0,8.0,-9.0,-1.0,-1.0,1651093901246840.0,2
1331,0.0,1.0,2.0,0.0,-1.0,12.0,-1.0,0.0,1651093901246840.0,2
1332,-2.0,-1.0,-4.0,0.0,-5.0,-7.0,-2.0,0.0,1651093901247837.0,2
1333,-1.0,-4.0,-6.0,-14.0,-6.0,-2.0,0.0,1.0,1651093901247837.0,2
1334,0.0,2.0,10.0,-5.0,9.0,0.0,-1.0,-1.0,1651093901269252.0,2
1335,0.0,1.0,0.0,10.0,-18.0,-13.0,0.0,1.0,1651093901269252.0,2
1336,1.0,-2.0,-7.0,5.0,-1.0,29.0,-1.0,-1.0,1651093901270286.0,2
1337,-2.0,-3.0,-3.0,-1.0,23.0,1.0,0.0,-1.0,1651093901270286.0,2
1338,-2.0,-4.0,0.0,4.0,-4.0,7.0,1.0,-1.0,1651093901291522.0,2
1339,0.0,0.0,0.0,-6.0,1.0,-3.0,0.0,-1.0,1651093901291522.0,2
1340,1.0,2.0,3.0,3.0,-12.0,-5.0,1.0,-2.0,1651093901293516.0,2
1341,1.0,1.0,2.0,-1.0,-3.0,1.0,-1.0,0.0,1651093901293516.0,2
1342,-1.0,1.0,-2.0,-1.0,-17.0,5.0,-2.0,-2.0,1651093901306784.0,2
1343,-2.0,-1.0,-4.0,-10.0,-12.0,-10.0,-1.0,1.0,1651093901306784.0,2
1344,0.0,1.0,4.0,3.0,3.0,1.0,-1.0,0.0,1651093901308674.0,2
1345,-2.0,-2.0,0.0,1.0,9.0,4.0,0.0,-1.0,1651093901308674.0,2
1346,-1.0,-1.0,-4.0,-4.0,7.0,-4.0,1.0,0.0,1651093901337169.0,2
1347,1.0,-4.0,-12.0,2.0,1.0,2.0,-2.0,-1.0,1651093901337169.0,2
1348,0.0,4.0,13.0,-4.0,-2.0,-16.0,-1.0,0.0,1651093901338046.0,2
1349,0.0,0.0,0.0,0.0,-8.0,19.0,1.0,-1.0,1651093901338046.0,2
1350,-2.0,0.0,-4.0,2.0,12.0,-12.0,0.0,0.0,1651093901359319.0,2
1351,0.0,0.0,1.0,1.0,-8.0,19.0,-1.0,-1.0,1651093901359319.0,2
1352,0.0,-2.0,-6.0,1.0,10.0,-6.0,-2.0,-2.0,1651093901360345.0,2
1353,1.0,-2.0,-2.0,-8.0,-9.0,-5.0,0.0,0.0,1651093901360345.0,2
1354,0.0,0.0,0.0,0.0,-1.0,-2.0,-1.0,1.0,1651093901366303.0,2
1355,0.0,3.0,0.0,5.0,12.0,-2.0,0.0,-1.0,1651093901366303.0,2
1356,-2.0,-5.0,-7.0,0.0,0.0,-5.0,-1.0,1.0,1651093901373649.0,2
1357,-2.0,-2.0,-3.0,-3.0,-12.0,-5.0,-3.0,-1.0,1651093901373649.0,2
1358,-1.0,-2.0,-5.0,-1.0,6.0,5.0,-1.0,-1.0,1651093901389779.0,2
1359,-1.0,2.0,7.0,-3.0,9.0,-3.0,1.0,0.0,1651093901389779.0,2
1360,0.0,0.0,-4.0,-2.0,-3.0,-3.0,-1.0,-2.0,1651093901395915.0,2
1361,-1.0,2.0,0.0,3.0,-14.0,-8.0,1.0,0.0,1651093901395915.0,2
1362,0.0,-2.0,3.0,2.0,14.0,6.0,1.0,1.0,1651093901419274.0,2
1363,-1.0,-1.0,0.0,-2.0,8.0,-5.0,-2.0,1.0,1651093901419274.0,2
1364,-1.0,0.0,-1.0,1.0,6.0,-1.0,1.0,-1.0,1651093901421271.0,2
1365,2.0,-1.0,-1.0,-2.0,4.0,1.0,-1.0,-1.0,1651093901421271.0,2
1366,0.0,-2.0,-3.0,-4.0,-8.0,-6.0,-3.0,-4.0,1651093901426258.0,2
1367,-2.0,-3.0,-11.0,2.0,7.0,0.0,1.0,1.0,1651093901426258.0,2
1368,-1.0,0.0,12.0,2.0,5.0,16.0,2.0,-1.0,1651093901433239.0,2
1369,0.0,0.0,2.0,-11.0,-6.0,-10.0,-1.0,-1.0,1651093901433239.0,2
1370,-1.0,3.0,-1.0,6.0,2.0,-1.0,-1.0,1.0,1651093901449664.0,2
1371,-1.0,-2.0,-1.0,3.0,-4.0,-5.0,-1.0,0.0,1651093901449664.0,2
1372,-1.0,-3.0,-7.0,-2.0,0.0,-6.0,0.0,0.0,1651093901450664.0,2
1373,0.0,-1.0,2.0,14.0,7.0,-4.0,0.0,0.0,1651093901450664.0,2
1374,-1.0,-1.0,1.0,-8.0,-14.0,8.0,1.0,0.0,1651093901471742.0,2
1375,-2.0,0.0,-5.0,-4.0,9.0,-6.0,0.0,-1.0,1651093901471742.0,2
1376,0.0,1.0,-3.0,-4.0,-18.0,-8.0,-2.0,0.0,1651093901471975.0,2
1377,0.0,-4.0,-3.0,0.0,16.0,6.0,-1.0,-1.0,1651093901471975.0,2
1378,-1.0,-3.0,-8.0,-1.0,-3.0,-4.0,-2.0,0.0,1651093901486318.0,2
1379,-1.0,4.0,18.0,1.0,-7.0,0.0,-1.0,0.0,1651093901486318.0,2
1380,-1.0,2.0,0.0,-4.0,-19.0,-6.0,0.0,1.0,1651093901493294.0,2
1381,0.0,1.0,-3.0,2.0,10.0,3.0,0.0,0.0,1651093901493294.0,2
1382,0.0,-1.0,-1.0,9.0,13.0,-3.0,1.0,0.0,1651093901508271.0,2
1383,-1.0,-4.0,-2.0,-4.0,-1.0,5.0,-1.0,-1.0,1651093901508271.0,2
1384,2.0,-1.0,-1.0,4.0,7.0,1.0,-1.0,-1.0,1651093901509269.0,2
1385,0.0,0.0,1.0,-6.0,-19.0,-1.0,1.0,0.0,1651093901509269.0,2
1386,-2.0,-1.0,-2.0,-2.0,-4.0,1.0,0.0,-1.0,1651093901531372.0,2
1387,-2.0,0.0,2.0,0.0,2.0,-6.0,-1.0,-1.0,1651093901531372.0,2
1388,0.0,-2.0,-6.0,-6.0,4.0,-3.0,-1.0,-1.0,1651093901531372.0,2
1389,-2.0,-1.0,-3.0,-9.0,-1.0,-5.0,-1.0,-1.0,1651093901531372.0,2
1390,1.0,0.0,4.0,2.0,3.0,18.0,-1.0,0.0,1651093901545724.0,2
1391,-1.0,-2.0,-1.0,5.0,-11.0,5.0,-1.0,-2.0,1651093901545724.0,2
1392,-1.0,-1.0,-2.0,3.0,9.0,-6.0,-1.0,0.0,1651093901553875.0,2
1393,-1.0,0.0,0.0,-2.0,10.0,-4.0,0.0,-1.0,1651093901553875.0,2
1394,-2.0,0.0,0.0,-4.0,-19.0,-1.0,-1.0,-1.0,1651093901569019.0,2
1395,0.0,0.0,3.0,-8.0,-35.0,-4.0,-2.0,-1.0,1651093901569019.0,2
1396,-1.0,0.0,-2.0,1.0,30.0,9.0,0.0,0.0,1651093901570019.0,2
1397,-1.0,1.0,3.0,6.0,20.0,5.0,-1.0,-2.0,1651093901570019.0,2
1398,-1.0,1.0,6.0,2.0,1.0,-6.0,0.0,-1.0,1651093901591318.0,2
1399,1.0,-1.0,-6.0,-2.0,2.0,2.0,0.0,-2.0,1651093901591318.0,2
1400,-1.0,-3.0,-4.0,-6.0,-29.0,-12.0,-1.0,-1.0,1651093901591318.0,2
1401,0.0,-1.0,0.0,7.0,-5.0,-4.0,-2.0,1.0,1651093901591318.0,2
1402,0.0,0.0,0.0,0.0,1.0,1.0,-1.0,0.0,1651093901605609.0,2
1403,1.0,1.0,0.0,-12.0,0.0,-9.0,0.0,1.0,1651093901605609.0,2
1404,0.0,-3.0,-1.0,3.0,4.0,15.0,0.0,-1.0,1651093901613742.0,2
1405,-1.0,-7.0,-16.0,2.0,6.0,-4.0,0.0,1.0,1651093901613742.0,2
1406,0.0,8.0,29.0,-1.0,-2.0,-7.0,1.0,-1.0,1651093901629031.0,2
1407,-1.0,3.0,0.0,1.0,7.0,7.0,0.0,1.0,1651093901629031.0,2
1408,-1.0,1.0,0.0,2.0,3.0,-6.0,-1.0,-1.0,1651093901629031.0,2
1409,-1.0,-1.0,-3.0,0.0,-14.0,8.0,1.0,1.0,1651093901629031.0,2
1410,-1.0,-5.0,-11.0,-5.0,-20.0,-4.0,-2.0,-1.0,1651093901652028.0,2
1411,0.0,-2.0,-1.0,3.0,29.0,1.0,0.0,0.0,1651093901652028.0,2
1412,-1.0,0.0,0.0,4.0,-14.0,0.0,0.0,-1.0,1651093901652028.0,2
1413,0.0,1.0,4.0,-1.0,-10.0,-5.0,-3.0,-1.0,1651093901652028.0,2
1414,0.0,-1.0,-4.0,0.0,4.0,-2.0,1.0,1.0,1651093901665173.0,2
1415,0.0,-1.0,-1.0,-2.0,1.0,0.0,0.0,-1.0,1651093901665173.0,2
1416,-3.0,-2.0,0.0,2.0,8.0,-4.0,-2.0,0.0,1651093901673965.0,2
1417,0.0,2.0,0.0,1.0,1.0,10.0,0.0,0.0,1651093901673965.0,2
1418,-1.0,-2.0,-5.0,-4.0,-5.0,-6.0,-1.0,1.0,1651093901689260.0,2
1419,0.0,-2.0,-3.0,1.0,-11.0,0.0,1.0,0.0,1651093901689260.0,2
1420,1.0,0.0,3.0,2.0,34.0,-8.0,1.0,1.0,1651093901689260.0,2
1421,0.0,4.0,7.0,-1.0,21.0,4.0,0.0,0.0,1651093901689260.0,2
1422,-2.0,-1.0,-3.0,0.0,5.0,-2.0,-2.0,-3.0,1651093901711603.0,2
1423,-1.0,-4.0,-8.0,0.0,-16.0,2.0,-1.0,1.0,1651093901711603.0,2
1424,-1.0,3.0,7.0,-1.0,2.0,-6.0,-1.0,0.0,1651093901711603.0,2
1425,-1.0,-2.0,2.0,-6.0,-13.0,-2.0,-2.0,-1.0,1651093901711603.0,2
1426,0.0,-2.0,-4.0,2.0,3.0,3.0,-2.0,-2.0,1651093901725584.0,2
1427,-1.0,-3.0,1.0,1.0,0.0,-7.0,-1.0,-1.0,1651093901725584.0,2
1428,0.0,-4.0,-14.0,-2.0,-7.0,4.0,0.0,1.0,1651093901733845.0,2
1429,0.0,3.0,16.0,0.0,-8.0,-4.0,-2.0,-3.0,1651093901733845.0,2
1430,0.0,-3.0,-4.0,0.0,6.0,3.0,1.0,0.0,1651093901747997.0,2
1431,1.0,1.0,1.0,-1.0,3.0,1.0,-1.0,0.0,1651093901747997.0,2
1432,0.0,0.0,-4.0,7.0,-8.0,-3.0,-2.0,0.0,1651093901749005.0,2
1433,0.0,-8.0,-16.0,-10.0,-13.0,-2.0,-1.0,-1.0,1651093901749005.0,2
1434,0.0,3.0,11.0,1.0,7.0,7.0,0.0,-2.0,1651093901771299.0,2
1435,1.0,3.0,4.0,4.0,-2.0,4.0,1.0,0.0,1651093901771299.0,2
1436,1.0,0.0,1.0,1.0,-11.0,-1.0,0.0,-1.0,1651093901778473.0,2
1437,0.0,1.0,3.0,1.0,5.0,-3.0,0.0,0.0,1651093901778473.0,2
1438,0.0,0.0,-4.0,-3.0,-8.0,-5.0,1.0,2.0,1651093901786600.0,2
1439,-1.0,-4.0,-7.0,-5.0,8.0,-1.0,-1.0,-1.0,1651093901786600.0,2
1440,-2.0,-1.0,5.0,4.0,-8.0,3.0,1.0,-2.0,1651093901793705.0,2
1441,-1.0,1.0,-3.0,1.0,-6.0,2.0,-2.0,1.0,1651093901793705.0,2
1442,0.0,-1.0,-5.0,-1.0,2.0,-7.0,-3.0,0.0,1651093901808885.0,2
1443,0.0,2.0,7.0,0.0,-4.0,3.0,-1.0,1.0,1651093901808885.0,2
1444,0.0,0.0,-1.0,0.0,0.0,1.0,2.0,1.0,1651093901808885.0,2
1445,1.0,-2.0,-2.0,-1.0,-1.0,0.0,1.0,0.0,1651093901808885.0,2
1446,-1.0,-2.0,-3.0,4.0,-4.0,-1.0,1.0,-2.0,1651093901831976.0,2
1447,-2.0,-1.0,0.0,-2.0,6.0,-9.0,-2.0,-1.0,1651093901831976.0,2
1448,-1.0,0.0,1.0,-1.0,-5.0,-1.0,1.0,-1.0,1651093901831976.0,2
1449,-1.0,1.0,0.0,-3.0,0.0,2.0,-1.0,-1.0,1651093901831976.0,2
1450,0.0,0.0,-5.0,-13.0,-8.0,-4.0,-1.0,-1.0,1651093901846936.0,2
1451,0.0,-3.0,-2.0,2.0,23.0,1.0,0.0,-2.0,1651093901846936.0,2
1452,0.0,1.0,6.0,-1.0,-13.0,7.0,0.0,0.0,1651093901853921.0,2
1453,-1.0,-2.0,-3.0,0.0,-9.0,2.0,-1.0,0.0,1651093901853921.0,2
1454,-1.0,-6.0,-17.0,-2.0,-2.0,-8.0,-3.0,0.0,1651093901869062.0,0
1455,0.0,1.0,13.0,-2.0,-7.0,-2.0,-3.0,-1.0,1651093901869062.0,3
1456,-1.0,0.0,-2.0,0.0,-8.0,1.0,0.0,1.0,1651093901869062.0,3
1457,0.0,0.0,3.0,2.0,4.0,-21.0,-1.0,-3.0,1651093901869062.0,3
1458,0.0,0.0,-3.0,-2.0,16.0,24.0,4.0,2.0,1651093901891345.0,3
1459,0.0,-1.0,-4.0,3.0,-5.0,8.0,0.0,1.0,1651093901891345.0,3
1460,-1.0,-1.0,5.0,4.0,10.0,-5.0,-2.0,-1.0,1651093901891345.0,3
1461,-1.0,-1.0,-6.0,-3.0,-20.0,-4.0,0.0,-1.0,1651093901891345.0,3
1462,-1.0,-2.0,-3.0,7.0,51.0,1.0,0.0,0.0,1651093901905667.0,3
1463,-2.0,0.0,-1.0,-5.0,-29.0,0.0,1.0,0.0,1651093901905667.0,3
1464,-1.0,0.0,1.0,-8.0,-5.0,0.0,-7.0,-3.0,1651093901913811.0,3
1465,-1.0,1.0,1.0,-8.0,4.0,-3.0,-3.0,-2.0,1651093901913811.0,3
1466,0.0,2.0,5.0,5.0,-13.0,-7.0,7.0,4.0,1651093901928968.0,3
1467,1.0,-2.0,-5.0,4.0,14.0,11.0,11.0,4.0,1651093901928968.0,3
1468,0.0,-3.0,-9.0,-2.0,9.0,-3.0,-2.0,-1.0,1651093901928968.0,3
1469,-1.0,0.0,7.0,0.0,-26.0,1.0,-11.0,-4.0,1651093901928968.0,3
1470,-2.0,-1.0,0.0,-12.0,-5.0,-5.0,-5.0,-7.0,1651093901951953.0,3
1471,-2.0,0.0,1.0,3.0,-25.0,-3.0,10.0,-1.0,1651093901951953.0,3
1472,2.0,-1.0,-5.0,0.0,4.0,-20.0,-8.0,3.0,1651093901951953.0,3
1473,3.0,-3.0,-8.0,3.0,47.0,29.0,26.0,6.0,1651093901951953.0,3
1474,1.0,3.0,15.0,2.0,-30.0,5.0,-11.0,-1.0,1651093901966263.0,3
1475,-4.0,-1.0,-5.0,-9.0,2.0,-10.0,-30.0,-12.0,1651093901966263.0,3
1476,-6.0,-3.0,-6.0,-4.0,-14.0,-1.0,-58.0,-11.0,1651093901973081.0,3
1477,2.0,-1.0,-2.0,4.0,11.0,-8.0,90.0,13.0,1651093901973081.0,3
1478,6.0,2.0,1.0,6.0,-27.0,-8.0,28.0,14.0,1651093901989228.0,3
1479,1.0,-1.0,-8.0,0.0,58.0,18.0,12.0,2.0,1651093901989228.0,3
1480,-1.0,3.0,14.0,0.0,31.0,12.0,-19.0,-6.0,1651093901989228.0,3
1481,-8.0,-5.0,-6.0,-19.0,-15.0,-32.0,-74.0,-16.0,1651093901989228.0,3
1482,-5.0,-6.0,-11.0,7.0,-17.0,-24.0,-1.0,-5.0,1651093902011835.0,3
1483,2.0,4.0,11.0,19.0,2.0,25.0,11.0,6.0,1651093902011835.0,3
1484,4.0,1.0,-2.0,1.0,12.0,28.0,37.0,6.0,1651093902011835.0,3
1485,1.0,1.0,1.0,5.0,-15.0,-1.0,22.0,4.0,1651093902011835.0,3
1486,-4.0,-3.0,-2.0,-11.0,30.0,13.0,-14.0,-5.0,1651093902035867.0,3
1487,-2.0,-3.0,-6.0,-8.0,-15.0,-10.0,-17.0,-4.0,1651093902035867.0,3
1488,-1.0,-2.0,-5.0,1.0,-4.0,-17.0,11.0,1.0,1651093902036864.0,3
1489,0.0,1.0,3.0,1.0,-4.0,4.0,-36.0,-3.0,1651093902036864.0,3
1490,-1.0,-1.0,-2.0,-5.0,-13.0,-9.0,-3.0,-5.0,1651093902049348.0,3
1491,-1.0,-4.0,-3.0,0.0,5.0,0.0,22.0,-4.0,1651093902049348.0,3
1492,-2.0,-3.0,-3.0,-4.0,-5.0,-5.0,-21.0,0.0,1651093902049348.0,3
1493,6.0,6.0,6.0,6.0,1.0,0.0,-1.0,11.0,1651093902049348.0,3
1494,1.0,4.0,2.0,2.0,8.0,6.0,34.0,3.0,1651093902071652.0,3
1495,1.0,1.0,2.0,2.0,-4.0,27.0,12.0,9.0,1651093902071652.0,3
1496,-2.0,-2.0,-3.0,-6.0,-9.0,-7.0,11.0,-4.0,1651093902071652.0,3
1497,-4.0,-3.0,-4.0,-2.0,-13.0,-8.0,-26.0,-8.0,1651093902071652.0,3
1498,0.0,0.0,0.0,3.0,32.0,-1.0,-15.0,-3.0,1651093902094814.0,3
1499,-1.0,0.0,0.0,-13.0,-15.0,-16.0,-13.0,-3.0,1651093902094814.0,3
1500,-1.0,-2.0,-3.0,3.0,-9.0,-8.0,6.0,-3.0,1651093902095687.0,3
1501,0.0,-2.0,-5.0,7.0,0.0,24.0,2.0,-1.0,1651093902095687.0,3
1502,-1.0,1.0,7.0,0.0,-6.0,5.0,0.0,-2.0,1651093902108962.0,3
1503,-2.0,-1.0,-1.0,-4.0,-7.0,-16.0,-5.0,-2.0,1651093902108962.0,3
1504,1.0,1.0,0.0,-1.0,-6.0,-5.0,5.0,2.0,1651093902108962.0,3
1505,-2.0,0.0,0.0,0.0,20.0,7.0,7.0,0.0,1651093902108962.0,3
1506,1.0,0.0,-3.0,3.0,-11.0,1.0,-3.0,-1.0,1651093902131383.0,3
1507,0.0,-3.0,-1.0,-2.0,-1.0,-10.0,-10.0,-1.0,1651093902131383.0,3
1508,2.0,1.0,1.0,-3.0,-1.0,2.0,11.0,2.0,1651093902131383.0,3
1509,0.0,1.0,0.0,5.0,0.0,1.0,1.0,-3.0,1651093902131383.0,3
1510,-2.0,-1.0,-3.0,-3.0,-4.0,3.0,-7.0,-1.0,1651093902154458.0,3
1511,-1.0,1.0,0.0,2.0,-4.0,-13.0,-6.0,-1.0,1651093902154458.0,3
1512,0.0,1.0,0.0,4.0,15.0,5.0,8.0,1.0,1651093902154458.0,3
1513,-1.0,-2.0,0.0,-4.0,-4.0,0.0,1.0,-1.0,1651093902154458.0,3
1514,-1.0,-1.0,-2.0,0.0,-4.0,1.0,-6.0,2.0,1651093902169470.0,3
1515,-3.0,-1.0,-4.0,-10.0,-6.0,-11.0,-13.0,-4.0,1651093902169470.0,3
1516,-2.0,-1.0,-3.0,5.0,-10.0,-7.0,-3.0,-5.0,1651093902169470.0,3
1517,1.0,0.0,1.0,6.0,7.0,10.0,13.0,6.0,1651093902169470.0,3
1518,1.0,1.0,2.0,3.0,17.0,6.0,3.0,1.0,1651093902190643.0,3
1519,1.0,0.0,0.0,0.0,-5.0,-5.0,0.0,-1.0,1651093902190643.0,3
1520,0.0,-5.0,-6.0,-13.0,-25.0,8.0,-4.0,-1.0,1651093902191609.0,3
1521,-3.0,0.0,5.0,-4.0,12.0,-12.0,-11.0,-5.0,1651093902191609.0,3
1522,-2.0,-3.0,-2.0,0.0,-32.0,2.0,-4.0,-2.0,1651093902215084.0,3
1523,-1.0,1.0,-1.0,6.0,16.0,-4.0,1.0,0.0,1651093902215084.0,3
1524,1.0,4.0,10.0,5.0,-26.0,2.0,2.0,1.0,1651093902215084.0,3
1525,0.0,0.0,-4.0,2.0,45.0,-1.0,0.0,-3.0,1651093902215084.0,3
1526,0.0,-2.0,7.0,-43.0,-7.0,-5.0,-2.0,-1.0,1651093902229147.0,3
1527,-2.0,-4.0,-9.0,22.0,-4.0,-7.0,3.0,0.0,1651093902229147.0,3
1528,-4.0,-2.0,-1.0,10.0,-1.0,-4.0,-2.0,-2.0,1651093902229147.0,3
1529,-1.0,-6.0,-13.0,-13.0,-70.0,-15.0,-5.0,3.0,1651093902229147.0,3
1530,-2.0,-4.0,-3.0,1.0,47.0,0.0,-5.0,-6.0,1651093902251390.0,3
1531,4.0,9.0,20.0,18.0,25.0,24.0,9.0,-2.0,1651093902251390.0,3
1532,5.0,4.0,2.0,-66.0,-28.0,0.0,8.0,2.0,1651093902251390.0,3
1533,0.0,2.0,-1.0,9.0,-31.0,-5.0,-3.0,-2.0,1651093902251390.0,3
1534,-4.0,-7.0,-6.0,50.0,-5.0,-26.0,-13.0,-3.0,1651093902273825.0,3
1535,-9.0,-10.0,-5.0,12.0,-15.0,2.0,-4.0,-2.0,1651093902273825.0,3
1536,2.0,-3.0,-3.0,17.0,-1.0,8.0,3.0,-20.0,1651093902274665.0,3
1537,-33.0,4.0,8.0,-20.0,-5.0,-1.0,-3.0,22.0,1651093902274665.0,3
1538,22.0,1.0,0.0,-20.0,4.0,-4.0,-1.0,-2.0,1651093902289315.0,3
1539,8.0,1.0,0.0,-15.0,-14.0,-8.0,-1.0,4.0,1651093902289315.0,3
1540,-2.0,-8.0,-13.0,-20.0,-12.0,-30.0,-12.0,-7.0,1651093902289315.0,3
1541,9.0,-14.0,-13.0,-24.0,-56.0,-8.0,-3.0,-13.0,1651093902289315.0,3
1542,-12.0,3.0,8.0,24.0,27.0,15.0,8.0,-1.0,1651093902311463.0,3
1543,7.0,12.0,19.0,32.0,-45.0,50.0,19.0,29.0,1651093902311463.0,3
1544,1.0,7.0,11.0,-36.0,90.0,8.0,-2.0,2.0,1651093902311463.0,3
1545,9.0,3.0,-14.0,59.0,21.0,-28.0,-1.0,-5.0,1651093902311463.0,3
1546,-7.0,-6.0,-11.0,-5.0,-108.0,-20.0,-7.0,-8.0,1651093902333958.0,3
1547,7.0,-1.0,4.0,9.0,-74.0,-6.0,3.0,-3.0,1651093902333958.0,3
1548,3.0,5.0,12.0,-31.0,12.0,28.0,21.0,18.0,1651093902333958.0,3
1549,-1.0,2.0,7.0,-86.0,7.0,4.0,0.0,-1.0,1651093902333958.0,3
1550,-12.0,-15.0,-28.0,93.0,-68.0,-22.0,-19.0,-22.0,1651093902349115.0,3
1551,-5.0,1.0,-8.0,27.0,8.0,-15.0,-7.0,-10.0,1651093902349115.0,3
1552,-3.0,5.0,8.0,93.0,-114.0,-5.0,1.0,8.0,1651093902349115.0,3
1553,-4.0,-5.0,0.0,-45.0,-51.0,-41.0,-2.0,-10.0,1651093902349115.0,3
1554,10.0,13.0,16.0,-56.0,-20.0,10.0,15.0,16.0,1651093902371497.0,3
1555,-10.0,-17.0,-26.0,-69.0,-96.0,-66.0,-19.0,-9.0,1651093902371497.0,3
1556,5.0,-17.0,-4.0,16.0,105.0,18.0,5.0,1.0,1651093902371497.0,3
1557,24.0,17.0,14.0,13.0,61.0,37.0,-4.0,-29.0,1651093902371497.0,3
1558,-12.0,-1.0,-11.0,-57.0,-106.0,-66.0,-16.0,-32.0,1651093902401905.0,3
1559,5.0,7.0,5.0,19.0,17.0,0.0,34.0,68.0,1651093902401905.0,3
1560,-21.0,-15.0,-15.0,-11.0,-94.0,-17.0,-23.0,-15.0,1651093902402770.0,3
1561,5.0,1.0,6.0,32.0,-16.0,25.0,13.0,10.0,1651093902402770.0,3
1562,-6.0,1.0,1.0,2.0,26.0,16.0,-9.0,-3.0,1651093902408769.0,3
1563,-11.0,-7.0,-12.0,-67.0,-19.0,-46.0,-26.0,-30.0,1651093902408769.0,3
1564,9.0,10.0,-1.0,22.0,-107.0,-10.0,20.0,5.0,1651093902408769.0,3
1565,-2.0,-3.0,8.0,58.0,110.0,85.0,9.0,16.0,1651093902408769.0,3
1566,0.0,5.0,10.0,-87.0,10.0,-19.0,7.0,6.0,1651093902431090.0,3
1567,4.0,-6.0,-10.0,61.0,88.0,-10.0,-14.0,-9.0,1651093902431090.0,3
1568,6.0,-3.0,-2.0,53.0,-19.0,33.0,-12.0,5.0,1651093902432111.0,3
1569,-7.0,-1.0,-1.0,12.0,-37.0,-11.0,-7.0,-9.0,1651093902432111.0,3
1570,7.0,-2.0,1.0,-8.0,-48.0,30.0,6.0,15.0,1651093902454416.0,3
1571,-1.0,1.0,5.0,-33.0,-21.0,33.0,-2.0,-18.0,1651093902454416.0,3
1572,-6.0,1.0,-7.0,-3.0,124.0,11.0,-1.0,1.0,1651093902454416.0,3
1573,7.0,6.0,10.0,23.0,7.0,-16.0,16.0,14.0,1651093902454416.0,3
1574,-3.0,-2.0,5.0,-10.0,41.0,-6.0,-2.0,-4.0,1651093902469118.0,3
1575,2.0,-1.0,-3.0,-32.0,-90.0,11.0,-3.0,-2.0,1651093902469118.0,3
1576,-7.0,-2.0,-3.0,8.0,107.0,-25.0,1.0,-7.0,1651093902469279.0,3
1577,-2.0,-3.0,-6.0,-11.0,-42.0,1.0,-8.0,-1.0,1651093902469279.0,3
1578,2.0,1.0,-4.0,7.0,-54.0,12.0,6.0,-32.0,1651093902490612.0,3
1579,7.0,6.0,13.0,27.0,109.0,35.0,8.0,23.0,1651093902490612.0,3
1580,-5.0,1.0,-4.0,-16.0,-79.0,-17.0,-7.0,2.0,1651093902491609.0,3
1581,-7.0,-2.0,-1.0,-44.0,26.0,-17.0,-6.0,-3.0,1651093902491609.0,3
1582,0.0,1.0,-1.0,3.0,82.0,20.0,2.0,0.0,1651093902513233.0,3
1583,-8.0,-2.0,-11.0,16.0,9.0,3.0,-7.0,-26.0,1651093902513233.0,3
1584,10.0,3.0,17.0,82.0,51.0,10.0,14.0,16.0,1651093902514082.0,3
1585,-32.0,-13.0,-12.0,-32.0,15.0,-25.0,-11.0,-11.0,1651093902514082.0,3
1586,26.0,8.0,7.0,50.0,102.0,17.0,8.0,24.0,1651093902537619.0,3
1587,-5.0,-3.0,-5.0,-19.0,22.0,-42.0,-7.0,-14.0,1651093902537619.0,3
1588,5.0,6.0,1.0,-65.0,-96.0,6.0,6.0,7.0,1651093902537619.0,3
1589,-7.0,-1.0,-3.0,25.0,-16.0,-2.0,-6.0,-9.0,1651093902537619.0,3
1590,0.0,-2.0,-2.0,14.0,-29.0,-16.0,4.0,17.0,1651093902551785.0,3
1591,4.0,-6.0,8.0,6.0,99.0,29.0,13.0,1.0,1651093902551785.0,3
1592,-8.0,-9.0,-34.0,-21.0,-2.0,-19.0,-15.0,-17.0,1651093902551785.0,3
1593,3.0,6.0,20.0,-1.0,-33.0,27.0,-11.0,0.0,1651093902551785.0,3
1594,-2.0,13.0,18.0,24.0,-8.0,41.0,17.0,14.0,1651093902573849.0,3
1595,13.0,4.0,1.0,-2.0,-5.0,46.0,16.0,17.0,1651093902573849.0,3
1596,-6.0,-1.0,6.0,-7.0,55.0,-13.0,-1.0,-6.0,1651093902573849.0,3
1597,-2.0,-12.0,-18.0,-32.0,-46.0,-27.0,-7.0,-10.0,1651093902573849.0,3
1598,-2.0,-8.0,-19.0,12.0,-17.0,-6.0,-16.0,1.0,1651093902588976.0,3
1599,-13.0,-1.0,7.0,21.0,53.0,-6.0,-9.0,-14.0,1651093902588976.0,3
1600,10.0,4.0,5.0,-30.0,-101.0,17.0,5.0,13.0,1651093902588976.0,3
1601,8.0,2.0,3.0,29.0,127.0,43.0,11.0,8.0,1651093902588976.0,3
1602,-11.0,-4.0,1.0,23.0,-76.0,26.0,-8.0,-7.0,1651093902611607.0,3
1603,-2.0,-2.0,-2.0,38.0,-80.0,-22.0,-1.0,-4.0,1651093902611607.0,3
1604,3.0,1.0,-3.0,-33.0,11.0,9.0,7.0,4.0,1651093902611607.0,3
1605,7.0,0.0,-5.0,-43.0,-13.0,-32.0,-7.0,3.0,1651093902611607.0,3
1606,-15.0,-5.0,-3.0,-4.0,-60.0,-39.0,-5.0,-10.0,1651093902633757.0,3
1607,4.0,3.0,-6.0,-10.0,70.0,5.0,3.0,3.0,1651093902633757.0,3
1608,-9.0,-9.0,1.0,25.0,-69.0,6.0,-12.0,-16.0,1651093902633757.0,3
1609,6.0,4.0,1.0,9.0,54.0,5.0,9.0,-3.0,1651093902633757.0,3
1610,4.0,-3.0,-9.0,-30.0,-39.0,-9.0,1.0,9.0,1651093902648894.0,3
1611,2.0,7.0,17.0,-3.0,-32.0,8.0,0.0,4.0,1651093902648894.0,3
1612,-6.0,-2.0,3.0,-2.0,-19.0,-2.0,-5.0,-2.0,1651093902648894.0,3
1613,-6.0,-4.0,-9.0,-80.0,-47.0,-20.0,-4.0,-9.0,1651093902648894.0,3
1614,9.0,-12.0,-15.0,96.0,16.0,7.0,-2.0,3.0,1651093902679328.0,3
1615,-1.0,8.0,2.0,2.0,-15.0,10.0,-3.0,-2.0,1651093902679328.0,3
1616,1.0,5.0,0.0,-2.0,40.0,-56.0,5.0,-5.0,1651093902680328.0,3
1617,-23.0,0.0,7.0,29.0,-66.0,-25.0,0.0,4.0,1651093902680328.0,3
1618,16.0,3.0,4.0,-49.0,22.0,-8.0,2.0,0.0,1651093902693577.0,3
1619,0.0,-7.0,-5.0,-23.0,-26.0,-4.0,-5.0,12.0,1651093902693577.0,3
1620,3.0,-4.0,-20.0,-37.0,-74.0,20.0,-3.0,1.0,1651093902694447.0,3
1621,1.0,2.0,14.0,72.0,99.0,6.0,-5.0,1.0,1651093902694447.0,3
1622,-6.0,3.0,3.0,-39.0,-108.0,-48.0,-4.0,-2.0,1651093902708194.0,3
1623,-6.0,0.0,-1.0,-6.0,14.0,2.0,-3.0,-16.0,1651093902708194.0,3
1624,-3.0,-1.0,0.0,19.0,-27.0,13.0,-4.0,-3.0,1651093902716307.0,3
1625,8.0,-2.0,-3.0,29.0,14.0,-11.0,6.0,6.0,1651093902716307.0,3
1626,-2.0,-1.0,-5.0,-2.0,25.0,82.0,5.0,4.0,1651093902731359.0,3
1627,2.0,1.0,2.0,-29.0,-24.0,74.0,2.0,-1.0,1651093902731359.0,3
1628,-3.0,2.0,8.0,-3.0,25.0,3.0,5.0,2.0,1651093902731359.0,3
1629,5.0,-6.0,-7.0,-8.0,-102.0,-21.0,-7.0,0.0,1651093902731359.0,3
1630,-7.0,3.0,9.0,-1.0,100.0,9.0,-4.0,-4.0,1651093902753763.0,3
1631,0.0,0.0,-11.0,-23.0,-128.0,-33.0,-3.0,-4.0,1651093902753763.0,3
1632,5.0,0.0,8.0,41.0,54.0,14.0,3.0,4.0,1651093902754653.0,3
1633,6.0,-7.0,3.0,26.0,13.0,29.0,5.0,-8.0,1651093902754653.0,3
1634,-10.0,8.0,5.0,-24.0,-21.0,-35.0,-6.0,-6.0,1651093902768924.0,3
1635,2.0,1.0,-7.0,-34.0,-29.0,-14.0,-3.0,16.0,1651093902768924.0,3
1636,5.0,6.0,7.0,-8.0,-21.0,6.0,4.0,2.0,1651093902776786.0,3
1637,2.0,-4.0,-5.0,22.0,-38.0,-10.0,-2.0,5.0,1651093902776786.0,3
1638,5.0,-3.0,-3.0,-32.0,-43.0,0.0,2.0,3.0,1651093902790936.0,3
1639,1.0,3.0,5.0,31.0,27.0,-21.0,1.0,-18.0,1651093902790936.0,3
1640,-3.0,-2.0,-6.0,-7.0,-75.0,-10.0,-6.0,-7.0,1651093902791932.0,3
1641,6.0,0.0,1.0,-12.0,83.0,26.0,1.0,7.0,1651093902791932.0,3
1642,-2.0,0.0,-9.0,16.0,-49.0,15.0,5.0,1.0,1651093902813333.0,3
1643,-7.0,1.0,12.0,12.0,88.0,-7.0,1.0,1.0,1651093902813333.0,3
1644,-3.0,-6.0,-14.0,-69.0,-78.0,-40.0,-4.0,-2.0,1651093902814194.0,3
1645,-1.0,4.0,4.0,43.0,15.0,-10.0,1.0,-2.0,1651093902814194.0,3
1646,-6.0,-7.0,-4.0,-18.0,-71.0,-15.0,-9.0,-2.0,1651093902837672.0,3
1647,7.0,2.0,1.0,36.0,109.0,43.0,18.0,9.0,1651093902837672.0,3
1648,-2.0,0.0,5.0,6.0,-67.0,13.0,-1.0,-7.0,1651093902837672.0,3
1649,2.0,0.0,-7.0,-44.0,-84.0,-21.0,-4.0,4.0,1651093902837672.0,3
1650,-1.0,-3.0,-1.0,-3.0,44.0,8.0,0.0,-1.0,1651093902851489.0,3
1651,-1.0,-2.0,-5.0,-18.0,-98.0,-27.0,-7.0,-4.0,1651093902851489.0,3
1652,-2.0,-3.0,7.0,80.0,126.0,26.0,1.0,-2.0,1651093902851489.0,3
1653,3.0,6.0,0.0,10.0,-98.0,20.0,10.0,10.0,1651093902851489.0,3
1654,-18.0,0.0,-9.0,-10.0,51.0,2.0,1.0,5.0,1651093902873675.0,3
1655,16.0,-3.0,6.0,-7.0,-70.0,-64.0,-17.0,-16.0,1651093902873675.0,3
1656,8.0,3.0,-4.0,-21.0,94.0,25.0,10.0,19.0,1651093902873675.0,3
1657,-5.0,1.0,-3.0,-15.0,-11.0,14.0,-9.0,-10.0,1651093902873675.0,3
1658,8.0,2.0,11.0,69.0,101.0,66.0,9.0,11.0,1651093902897947.0,3
1659,-12.0,-2.0,-5.0,-36.0,-22.0,-1.0,-3.0,-3.0,1651093902897947.0,3
1660,-5.0,2.0,6.0,31.0,80.0,-29.0,-5.0,-9.0,1651093902898944.0,3
1661,-2.0,-5.0,-11.0,-16.0,4.0,-14.0,-1.0,-2.0,1651093902898944.0,3
1662,4.0,-1.0,5.0,-13.0,6.0,-9.0,0.0,-1.0,1651093902910913.0,3
1663,-2.0,-1.0,-6.0,-18.0,-77.0,-15.0,-6.0,3.0,1651093902910913.0,3
1664,2.0,-1.0,4.0,5.0,94.0,41.0,0.0,3.0,1651093902911910.0,3
1665,-9.0,-6.0,-9.0,-36.0,-37.0,-2.0,-10.0,-8.0,1651093902911910.0,3
1666,1.0,2.0,0.0,-5.0,26.0,-4.0,-1.0,-2.0,1651093902934083.0,3
1667,3.0,0.0,2.0,-3.0,3.0,4.0,5.0,0.0,1651093902934083.0,3
1668,-5.0,1.0,0.0,38.0,-64.0,12.0,-8.0,2.0,1651093902934083.0,3
1669,3.0,-10.0,4.0,6.0,-40.0,1.0,7.0,9.0,1651093902934083.0,3
1670,-13.0,7.0,3.0,-11.0,73.0,-9.0,-8.0,-22.0,1651093902956731.0,3
1671,18.0,-6.0,-11.0,18.0,-29.0,-6.0,-4.0,13.0,1651093902956731.0,3
1672,1.0,0.0,0.0,-108.0,-40.0,-24.0,0.0,5.0,1651093902957590.0,3
1673,0.0,2.0,-7.0,36.0,53.0,33.0,0.0,-3.0,1651093902957590.0,3
1674,1.0,-3.0,9.0,52.0,-87.0,-19.0,2.0,9.0,1651093902971705.0,3
1675,-15.0,-5.0,0.0,24.0,-13.0,1.0,4.0,-9.0,1651093902971705.0,3
1676,-1.0,-6.0,-10.0,-27.0,-96.0,-23.0,-8.0,-9.0,1651093902971705.0,3
1677,10.0,9.0,11.0,-2.0,61.0,-14.0,13.0,11.0,1651093902971705.0,3
1678,4.0,-3.0,-13.0,-26.0,49.0,12.0,3.0,-4.0,1651093902994082.0,3
1679,-10.0,4.0,16.0,-29.0,-60.0,-17.0,-13.0,-14.0,1651093902994082.0,3
1680,2.0,-2.0,-3.0,73.0,16.0,15.0,7.0,6.0,1651093902994082.0,3
1681,-6.0,-2.0,0.0,-9.0,4.0,-44.0,-5.0,-1.0,1651093902994082.0,3
1682,5.0,1.0,-2.0,3.0,-17.0,-1.0,0.0,1.0,1651093903008047.0,3
1683,-24.0,0.0,-3.0,-86.0,23.0,64.0,1.0,-3.0,1651093903008047.0,3
1684,20.0,5.0,6.0,62.0,32.0,-23.0,3.0,8.0,1651093903016184.0,3
1685,-7.0,-1.0,-1.0,-3.0,3.0,-8.0,-7.0,-10.0,1651093903016184.0,3
1686,11.0,-2.0,-1.0,16.0,-43.0,-6.0,5.0,12.0,1651093903031581.0,3
1687,-10.0,-5.0,-5.0,19.0,107.0,18.0,-2.0,-6.0,1651093903031581.0,3
1688,-7.0,3.0,6.0,-23.0,-28.0,4.0,0.0,-1.0,1651093903031581.0,3
1689,4.0,1.0,-4.0,-28.0,-13.0,24.0,2.0,-2.0,1651093903031581.0,3
1690,-16.0,-2.0,1.0,15.0,-63.0,-19.0,-12.0,-7.0,1651093903053842.0,3
1691,14.0,2.0,-3.0,10.0,-37.0,29.0,8.0,3.0,1651093903053842.0,3
1692,-8.0,-5.0,-5.0,-32.0,-50.0,-29.0,-9.0,-8.0,1651093903053842.0,3
1693,3.0,0.0,-1.0,18.0,36.0,24.0,2.0,6.0,1651093903053842.0,3
1694,0.0,2.0,11.0,14.0,58.0,-42.0,3.0,6.0,1651093903068902.0,3
1695,-5.0,-1.0,-7.0,9.0,-31.0,-33.0,-4.0,-11.0,1651093903068902.0,3
1696,-6.0,-3.0,-6.0,10.0,27.0,-17.0,-7.0,-12.0,1651093903076041.0,3
1697,1.0,2.0,3.0,-30.0,-59.0,20.0,-2.0,5.0,1651093903076041.0,3
1698,-3.0,-1.0,-4.0,-13.0,-79.0,-7.0,4.0,-3.0,1651093903091284.0,3
1699,10.0,7.0,6.0,45.0,71.0,27.0,-1.0,9.0,1651093903091284.0,3
1700,-6.0,-3.0,-5.0,-28.0,4.0,-22.0,-4.0,-10.0,1651093903091284.0,3
1701,-7.0,-4.0,-4.0,-1.0,-79.0,-85.0,-10.0,-11.0,1651093903091284.0,3
1702,11.0,0.0,-5.0,-25.0,-41.0,8.0,-3.0,6.0,1651093903113778.0,3
1703,7.0,0.0,-5.0,16.0,29.0,-19.0,4.0,10.0,1651093903113778.0,3
1704,-13.0,-1.0,7.0,1.0,-65.0,9.0,-7.0,-12.0,1651093903114626.0,3
1705,2.0,3.0,0.0,16.0,57.0,7.0,4.0,3.0,1651093903114626.0,3
1706,8.0,3.0,13.0,28.0,77.0,32.0,12.0,6.0,1651093903137235.0,3
1707,-11.0,-7.0,-11.0,-53.0,-67.0,-19.0,-5.0,-4.0,1651093903137235.0,3
1708,9.0,-2.0,-3.0,-17.0,15.0,1.0,-3.0,4.0,1651093903137235.0,3
1709,-8.0,7.0,7.0,75.0,21.0,34.0,7.0,-31.0,1651093903137235.0,3
1710,6.0,-4.0,-5.0,-36.0,-65.0,-29.0,-11.0,12.0,1651093903151928.0,3
1711,-1.0,-1.0,-7.0,-39.0,-51.0,9.0,1.0,-2.0,1651093903151928.0,3
1712,-1.0,-2.0,2.0,45.0,-9.0,7.0,9.0,9.0,1651093903152096.0,3
1713,23.0,4.0,8.0,-12.0,7.0,41.0,3.0,7.0,1651093903152096.0,3
1714,-8.0,-6.0,-10.0,-6.0,-15.0,-36.0,-3.0,-10.0,1651093903173581.0,3
1715,-13.0,-7.0,-4.0,20.0,-71.0,-47.0,-7.0,-4.0,1651093903173581.0,3
1716,29.0,9.0,10.0,-51.0,-73.0,28.0,5.0,5.0,1651093903174421.0,3
1717,-2.0,4.0,-1.0,-35.0,47.0,3.0,5.0,7.0,1651093903174421.0,3
1718,-13.0,-6.0,-3.0,44.0,-7.0,-14.0,-10.0,-16.0,1651093903196743.0,3
1719,9.0,-1.0,-12.0,37.0,-29.0,-36.0,0.0,5.0,1651093903196743.0,3
1720,-7.0,1.0,5.0,-40.0,-62.0,-20.0,10.0,5.0,1651093903197589.0,3
1721,-10.0,-6.0,0.0,-4.0,-55.0,1.0,-9.0,-2.0,1651093903197589.0,3
1722,5.0,1.0,1.0,1.0,62.0,-8.0,5.0,7.0,1651093903211689.0,3
1723,-2.0,-4.0,-5.0,1.0,-7.0,-20.0,-7.0,-7.0,1651093903211689.0,3
1724,-4.0,1.0,-6.0,10.0,19.0,-21.0,1.0,-1.0,1651093903211689.0,3
1725,0.0,1.0,-4.0,-59.0,22.0,-61.0,1.0,2.0,1651093903211689.0,3
1726,-3.0,1.0,8.0,45.0,-11.0,45.0,4.0,-8.0,1651093903234964.0,3
1727,-2.0,-5.0,0.0,14.0,20.0,-13.0,1.0,2.0,1651093903234964.0,3
1728,-1.0,-2.0,-6.0,10.0,57.0,28.0,-1.0,-11.0,1651093903234964.0,3
1729,6.0,0.0,-2.0,-33.0,-39.0,-22.0,-2.0,28.0,1651093903234964.0,3
1730,-3.0,2.0,-7.0,-3.0,-39.0,-27.0,-4.0,-6.0,1651093903257226.0,3
1731,7.0,4.0,15.0,28.0,0.0,66.0,15.0,5.0,1651093903257226.0,3
1732,0.0,-1.0,0.0,-41.0,-46.0,-17.0,-3.0,4.0,1651093903257226.0,3
1733,-29.0,-11.0,-13.0,54.0,-92.0,-20.0,-15.0,-13.0,1651093903257226.0,3
1734,14.0,8.0,7.0,-56.0,34.0,-6.0,4.0,-2.0,1651093903271662.0,3
1735,22.0,-1.0,1.0,22.0,-67.0,10.0,-4.0,-12.0,1651093903271662.0,3
1736,-9.0,2.0,9.0,43.0,127.0,-17.0,3.0,1.0,1651093903272123.0,3
1737,0.0,-8.0,-9.0,-4.0,-52.0,0.0,2.0,0.0,1651093903272123.0,3
1738,-6.0,0.0,1.0,-18.0,-35.0,-4.0,-4.0,1.0,1651093903294236.0,3
1739,0.0,6.0,0.0,-12.0,3.0,-13.0,-1.0,1.0,1651093903294236.0,3
1740,1.0,-5.0,-9.0,19.0,-64.0,14.0,-5.0,-1.0,1651093903294236.0,3
1741,2.0,0.0,6.0,38.0,118.0,37.0,0.0,-13.0,1651093903294236.0,3
1742,3.0,1.0,-1.0,-36.0,-49.0,25.0,-2.0,15.0,1651093903317518.0,3
1743,0.0,0.0,5.0,-11.0,69.0,5.0,-3.0,-7.0,1651093903317518.0,3
1744,-10.0,-2.0,-2.0,11.0,-20.0,-3.0,2.0,1.0,1651093903317518.0,3
1745,6.0,3.0,-3.0,34.0,-6.0,8.0,3.0,5.0,1651093903317518.0,3
1746,2.0,-1.0,-3.0,2.0,14.0,34.0,8.0,-1.0,1651093903330640.0,3
1747,-15.0,-7.0,-1.0,-5.0,-14.0,47.0,-4.0,-5.0,1651093903330640.0,3
1748,2.0,2.0,0.0,2.0,-64.0,-26.0,-8.0,-7.0,1651093903331505.0,3
1749,8.0,5.0,3.0,12.0,-26.0,47.0,13.0,10.0,1651093903331505.0,3
1750,-9.0,-2.0,15.0,7.0,23.0,-11.0,-4.0,-16.0,1651093903353973.0,3
1751,3.0,4.0,2.0,-12.0,-20.0,39.0,4.0,11.0,1651093903353973.0,3
1752,-1.0,-9.0,-9.0,-14.0,-27.0,34.0,-3.0,-2.0,1651093903353973.0,3
1753,-25.0,0.0,-9.0,-45.0,3.0,-15.0,-5.0,-12.0,1651093903353973.0,3
1754,18.0,3.0,-6.0,14.0,33.0,54.0,-8.0,-4.0,1651093903377145.0,3
1755,3.0,-5.0,2.0,13.0,4.0,-3.0,5.0,11.0,1651093903377145.0,3
1756,5.0,7.0,4.0,4.0,2.0,7.0,1.0,2.0,1651093903377145.0,3
1757,7.0,5.0,5.0,4.0,22.0,-20.0,-3.0,-28.0,1651093903377145.0,3
1758,2.0,-11.0,-19.0,-25.0,17.0,-1.0,2.0,18.0,1651093903391217.0,3
1759,-16.0,1.0,11.0,-16.0,-47.0,-29.0,-5.0,-8.0,1651093903391217.0,3
1760,-3.0,-2.0,-3.0,21.0,21.0,-10.0,-6.0,-9.0,1651093903391217.0,3
1761,-1.0,1.0,6.0,-2.0,-7.0,7.0,4.0,5.0,1651093903391217.0,3
1762,-13.0,-5.0,-9.0,-5.0,38.0,-26.0,0.0,-17.0,1651093903414539.0,3
1763,19.0,0.0,-2.0,18.0,-2.0,-13.0,2.0,-3.0,1651093903414539.0,3
1764,0.0,3.0,-4.0,-18.0,-5.0,-13.0,-10.0,21.0,1651093903414539.0,3
1765,5.0,-1.0,-8.0,-16.0,-52.0,10.0,-3.0,4.0,1651093903414539.0,3
1766,-2.0,0.0,6.0,-14.0,24.0,12.0,-1.0,-2.0,1651093903436963.0,3
1767,-5.0,0.0,-7.0,8.0,12.0,-53.0,2.0,9.0,1651093903436963.0,3
1768,-7.0,-5.0,1.0,8.0,-13.0,12.0,1.0,-6.0,1651093903437842.0,3
1769,8.0,4.0,1.0,5.0,2.0,12.0,-2.0,2.0,1651093903437842.0,3
1770,-2.0,2.0,0.0,8.0,-10.0,-11.0,1.0,3.0,1651093903450773.0,3
1771,1.0,1.0,1.0,-19.0,11.0,-8.0,-5.0,-7.0,1651093903450773.0,3
1772,-12.0,-9.0,-15.0,-2.0,13.0,7.0,4.0,-8.0,1651093903451805.0,3
1773,2.0,-2.0,8.0,11.0,-12.0,-6.0,5.0,8.0,1651093903451805.0,3
1774,-3.0,-5.0,-6.0,-7.0,-23.0,-9.0,3.0,0.0,1651093903473900.0,3
1775,13.0,-3.0,5.0,3.0,18.0,7.0,0.0,-24.0,1651093903473900.0,3
1776,-17.0,10.0,5.0,2.0,37.0,-9.0,4.0,34.0,1651093903473900.0,3
1777,3.0,-5.0,-4.0,-2.0,-17.0,2.0,0.0,3.0,1651093903473900.0,3
1778,6.0,3.0,6.0,7.0,19.0,0.0,-2.0,2.0,1651093903496369.0,3
1779,-33.0,-4.0,-7.0,6.0,37.0,-10.0,-2.0,-11.0,1651093903496369.0,3
1780,30.0,5.0,3.0,0.0,9.0,10.0,-1.0,-3.0,1651093903497210.0,3
1781,4.0,3.0,4.0,-10.0,-32.0,3.0,-2.0,-5.0,1651093903497210.0,3
1782,-6.0,0.0,-1.0,8.0,-26.0,-10.0,-3.0,-1.0,1651093903511171.0,3
1783,2.0,-3.0,-3.0,-2.0,34.0,13.0,-1.0,8.0,1651093903511171.0,3
1784,-5.0,-6.0,1.0,-4.0,16.0,-13.0,5.0,-5.0,1651093903512169.0,3
1785,-5.0,-2.0,-1.0,5.0,-1.0,-12.0,-4.0,7.0,1651093903512169.0,3
1786,5.0,-1.0,1.0,2.0,7.0,-4.0,1.0,-6.0,1651093903533281.0,3
1787,-1.0,6.0,4.0,-3.0,18.0,-3.0,2.0,10.0,1651093903533281.0,3
1788,4.0,2.0,-1.0,-4.0,7.0,13.0,1.0,-1.0,1651093903534278.0,3
1789,0.0,-4.0,-1.0,6.0,3.0,-23.0,-2.0,-5.0,1651093903534278.0,3
1790,-4.0,-3.0,-2.0,2.0,-30.0,3.0,2.0,4.0,1651093903556221.0,3
1791,0.0,2.0,-2.0,-2.0,-1.0,-4.0,-4.0,3.0,1651093903556221.0,3
1792,2.0,2.0,1.0,-3.0,2.0,3.0,5.0,-7.0,1651093903557218.0,3
1793,1.0,-3.0,-1.0,1.0,-12.0,-4.0,-5.0,-1.0,1651093903557218.0,3
1794,-2.0,0.0,-1.0,-7.0,-7.0,0.0,0.0,1.0,1651093903580152.0,3
1795,0.0,2.0,4.0,7.0,-5.0,1.0,11.0,6.0,1651093903580152.0,3
1796,2.0,-2.0,1.0,9.0,-1.0,1.0,-14.0,-7.0,1651093903580152.0,3
1797,-3.0,-2.0,-4.0,3.0,8.0,-5.0,6.0,4.0,1651093903580152.0,3
1798,1.0,0.0,2.0,3.0,-10.0,2.0,-3.0,3.0,1651093903593118.0,3
1799,2.0,-1.0,-5.0,-5.0,4.0,1.0,-3.0,-1.0,1651093903593118.0,3
1800,-4.0,-4.0,0.0,-9.0,6.0,-1.0,3.0,-4.0,1651093903594115.0,3
1801,-1.0,0.0,1.0,-2.0,-44.0,2.0,-4.0,1.0,1651093903594115.0,3
1802,-5.0,0.0,-1.0,1.0,8.0,7.0,0.0,-4.0,1651093903617054.0,3
1803,3.0,-1.0,-2.0,-5.0,18.0,-6.0,0.0,3.0,1651093903617054.0,3
1804,-2.0,-3.0,-7.0,-21.0,-6.0,-1.0,1.0,-3.0,1651093903617054.0,3
1805,1.0,-1.0,6.0,18.0,0.0,-2.0,-2.0,1.0,1651093903617054.0,3
1806,-1.0,1.0,3.0,14.0,-4.0,-3.0,3.0,-2.0,1651093903631216.0,3
1807,1.0,-1.0,-6.0,-9.0,-16.0,1.0,-2.0,3.0,1651093903631216.0,3
1808,0.0,-2.0,-3.0,-22.0,9.0,3.0,0.0,0.0,1651093903639341.0,3
1809,0.0,-2.0,-4.0,8.0,6.0,-2.0,-1.0,-2.0,1651093903639341.0,3
1810,-1.0,-1.0,3.0,20.0,-3.0,-8.0,-1.0,0.0,1651093903653696.0,3
1811,1.0,2.0,1.0,6.0,6.0,13.0,-1.0,1.0,1651093903653696.0,3
1812,0.0,-3.0,-1.0,-12.0,-2.0,-3.0,-1.0,-2.0,1651093903654565.0,3
1813,-2.0,0.0,-3.0,-14.0,0.0,-1.0,2.0,2.0,1651093903654565.0,3
1814,0.0,3.0,5.0,1.0,-16.0,0.0,0.0,0.0,1651093903676888.0,3
1815,-2.0,-3.0,-4.0,-4.0,7.0,-4.0,-2.0,0.0,1651093903676888.0,3
1816,5.0,4.0,3.0,6.0,22.0,1.0,2.0,-1.0,1651093903677746.0,3
1817,-4.0,-3.0,-3.0,-4.0,-3.0,3.0,0.0,-1.0,1651093903677746.0,3
1818,-4.0,-2.0,0.0,2.0,12.0,-3.0,0.0,0.0,1651093903690307.0,3
1819,-3.0,-1.0,1.0,-4.0,-15.0,-4.0,-1.0,-2.0,1651093903690307.0,3
1820,-1.0,-2.0,1.0,6.0,-23.0,-3.0,5.0,1.0,1651093903699444.0,3
1821,2.0,1.0,1.0,2.0,68.0,14.0,-3.0,0.0,1651093903699444.0,3
1822,1.0,-2.0,-3.0,-10.0,9.0,-5.0,-1.0,-2.0,1651093903713592.0,3
1823,-1.0,0.0,1.0,5.0,5.0,13.0,1.0,0.0,1651093903713592.0,3
1824,-1.0,-1.0,1.0,11.0,-7.0,-4.0,0.0,-1.0,1651093903714453.0,3
1825,0.0,-1.0,-2.0,-10.0,4.0,-8.0,-2.0,2.0,1651093903714453.0,3
1826,0.0,0.0,-1.0,-6.0,1.0,-1.0,-2.0,-1.0,1651093903737241.0,3
1827,-1.0,0.0,0.0,3.0,-8.0,0.0,1.0,-1.0,1651093903737241.0,3
1828,-2.0,0.0,2.0,4.0,-10.0,-4.0,-1.0,-1.0,1651093903737241.0,3
1829,4.0,1.0,2.0,4.0,11.0,-2.0,1.0,-1.0,1651093903737241.0,3
1830,0.0,-1.0,-2.0,-5.0,5.0,3.0,0.0,0.0,1651093903750691.0,3
1831,-2.0,-3.0,-1.0,5.0,-3.0,-1.0,0.0,2.0,1651093903750691.0,3
1832,-1.0,-2.0,-3.0,0.0,0.0,-3.0,-1.0,0.0,1651093903758811.0,3
1833,-1.0,-1.0,-1.0,-10.0,-26.0,3.0,-2.0,-2.0,1651093903758811.0,3
1834,1.0,0.0,0.0,5.0,-5.0,1.0,0.0,-1.0,1651093903773764.0,3
1835,2.0,1.0,5.0,0.0,13.0,-1.0,-3.0,0.0,1651093903773764.0,3
1836,-1.0,1.0,-1.0,3.0,4.0,-1.0,-1.0,-1.0,1651093903774601.0,3
1837,-1.0,-1.0,1.0,1.0,-13.0,-5.0,-2.0,0.0,1651093903774601.0,3
1838,1.0,-1.0,-3.0,-1.0,-5.0,-1.0,0.0,1.0,1651093903796760.0,3
1839,-2.0,-1.0,-2.0,-2.0,-8.0,-4.0,0.0,-1.0,1651093903796760.0,3
1840,-1.0,-2.0,-1.0,-1.0,-28.0,1.0,-1.0,-1.0,1651093903797629.0,3
1841,0.0,1.0,-1.0,0.0,45.0,3.0,1.0,0.0,1651093903797629.0,3
1842,1.0,-1.0,-2.0,-4.0,1.0,2.0,-1.0,-1.0,1651093903810723.0,3
1843,-2.0,-3.0,-3.0,0.0,5.0,-7.0,-2.0,-3.0,1651093903810723.0,3
1844,1.0,-2.0,1.0,5.0,-3.0,8.0,0.0,0.0,1651093903818826.0,3
1845,-1.0,-1.0,-3.0,-2.0,-24.0,-9.0,-2.0,-2.0,1651093903818826.0,3
1846,-1.0,0.0,0.0,-3.0,-12.0,4.0,1.0,-1.0,1651093903833076.0,3
1847,1.0,2.0,3.0,5.0,55.0,4.0,1.0,1.0,1651093903833076.0,3
1848,-1.0,-1.0,-3.0,-2.0,11.0,-5.0,-3.0,-2.0,1651093903833917.0,3
1849,0.0,-2.0,0.0,-4.0,-32.0,-4.0,-1.0,0.0,1651093903833917.0,3
1850,0.0,0.0,0.0,1.0,21.0,-3.0,-2.0,0.0,1651093903857245.0,3
1851,0.0,-5.0,-8.0,-5.0,-15.0,4.0,-2.0,-1.0,1651093903857245.0,3
1852,-1.0,2.0,9.0,7.0,5.0,2.0,-1.0,0.0,1651093903857245.0,3
1853,-2.0,0.0,-4.0,0.0,-2.0,-5.0,-1.0,0.0,1651093903857245.0,3
1854,0.0,-2.0,0.0,-1.0,-7.0,-2.0,0.0,1.0,1651093903870539.0,3
1855,1.0,2.0,-3.0,-3.0,-6.0,2.0,0.0,-1.0,1651093903870539.0,3
1856,-1.0,0.0,-1.0,-2.0,9.0,-2.0,-1.0,-3.0,1651093903879313.0,3
1857,0.0,3.0,4.0,-3.0,-15.0,-2.0,-1.0,-3.0,1651093903879313.0,3
1858,-1.0,-2.0,-7.0,-2.0,3.0,-1.0,2.0,1.0,1651093903893719.0,3
1859,0.0,-1.0,-1.0,-3.0,-13.0,0.0,0.0,0.0,1651093903893719.0,3
1860,0.0,-1.0,-2.0,1.0,8.0,3.0,2.0,-1.0,1651093903894587.0,3
1861,-1.0,-3.0,-2.0,-3.0,-14.0,-3.0,-1.0,-1.0,1651093903894587.0,3
1862,-2.0,-2.0,0.0,1.0,36.0,1.0,-2.0,-2.0,1651093903917002.0,3
1863,1.0,2.0,2.0,7.0,-4.0,4.0,0.0,1.0,1651093903917002.0,3
1864,0.0,1.0,0.0,-1.0,2.0,1.0,0.0,1.0,1651093903917845.0,3
1865,0.0,-1.0,-2.0,-3.0,-11.0,-4.0,0.0,0.0,1651093903917845.0,3
1866,0.0,-2.0,-1.0,-5.0,-8.0,11.0,0.0,0.0,1651093903930137.0,3
1867,0.0,0.0,0.0,-1.0,-6.0,-7.0,-2.0,0.0,1651093903930137.0,3
1868,0.0,-2.0,1.0,0.0,2.0,-1.0,1.0,-1.0,1651093903939492.0,3
1869,-2.0,-3.0,-7.0,1.0,1.0,-1.0,0.0,0.0,1651093903939492.0,3
1870,0.0,3.0,1.0,2.0,-3.0,-2.0,0.0,-1.0,1651093903953657.0,3
