,EMG_s0,EMG_s1,EMG_s2,EMG_s3,EMG_s4,EMG_s5,EMG_s6,EMG_s7,timestamp,signal
0,0.0,-1.0,-1.0,2.0,3.0,1.0,-1.0,-2.0,1651093981572468.0,0
1,-1.0,1.0,2.0,-2.0,4.0,-2.0,-1.0,-1.0,1651093981572468.0,0
2,0.0,0.0,1.0,-6.0,14.0,-1.0,-1.0,0.0,1651093981572468.0,0
3,-1.0,0.0,0.0,3.0,-2.0,3.0,-1.0,0.0,1651093981572468.0,0
4,-2.0,-1.0,-1.0,0.0,6.0,-2.0,0.0,0.0,1651093981573468.0,0
5,-2.0,1.0,1.0,3.0,-15.0,4.0,1.0,0.0,1651093981573468.0,0
6,1.0,1.0,1.0,1.0,-5.0,-1.0,-1.0,0.0,1651093981574506.0,0
7,0.0,0.0,-4.0,-3.0,-3.0,-2.0,1.0,1.0,1651093981574506.0,0
8,1.0,1.0,6.0,-3.0,-2.0,-6.0,-2.0,-2.0,1651093981579493.0,0
9,1.0,-2.0,-4.0,0.0,-8.0,0.0,-2.0,-1.0,1651093981579493.0,0
10,0.0,0.0,-1.0,-2.0,-15.0,0.0,0.0,-1.0,1651093981585440.0,0
11,-1.0,-2.0,0.0,-2.0,-3.0,0.0,-2.0,-1.0,1651093981585440.0,0
12,1.0,-1.0,1.0,3.0,2.0,1.0,1.0,1.0,1651093981600453.0,0
13,-1.0,-1.0,-2.0,-2.0,9.0,-2.0,-1.0,-3.0,1651093981600453.0,0
14,0.0,-2.0,-2.0,0.0,-5.0,0.0,-1.0,-1.0,1651093981608816.0,0
15,-1.0,1.0,1.0,-2.0,-16.0,-4.0,1.0,-1.0,1651093981608816.0,0
16,-1.0,-1.0,-2.0,-8.0,2.0,1.0,-2.0,-1.0,1651093981623822.0,0
17,0.0,-1.0,0.0,1.0,3.0,1.0,2.0,1.0,1651093981623822.0,0
18,-3.0,-2.0,-1.0,7.0,-2.0,1.0,0.0,0.0,1651093981639150.0,0
19,-1.0,-1.0,-1.0,-1.0,4.0,-3.0,0.0,-2.0,1651093981639150.0,0
20,-2.0,-3.0,-4.0,-2.0,-13.0,-3.0,-1.0,1.0,1651093981677939.0,0
21,0.0,2.0,2.0,1.0,3.0,2.0,0.0,0.0,1651093981677939.0,0
22,-1.0,3.0,1.0,0.0,-2.0,2.0,-1.0,-1.0,1651093981678939.0,0
23,0.0,-3.0,-1.0,-2.0,-5.0,-4.0,-2.0,-1.0,1651093981678939.0,0
24,0.0,0.0,1.0,-2.0,-2.0,-4.0,-2.0,0.0,1651093981679969.0,0
25,-1.0,-2.0,-5.0,-2.0,-9.0,-1.0,-1.0,-3.0,1651093981679969.0,0
26,0.0,0.0,1.0,0.0,-13.0,1.0,1.0,-2.0,1651093981682960.0,0
27,-1.0,0.0,1.0,1.0,2.0,0.0,0.0,0.0,1651093981682960.0,0
28,-1.0,0.0,-2.0,1.0,-4.0,3.0,0.0,-2.0,1651093981689943.0,0
29,0.0,0.0,1.0,-1.0,11.0,-1.0,0.0,1.0,1651093981689943.0,0
30,0.0,1.0,0.0,-3.0,-1.0,-2.0,-1.0,-1.0,1651093981699041.0,0
31,-1.0,-2.0,-2.0,2.0,-2.0,1.0,-1.0,-1.0,1651093981699041.0,0
32,0.0,-1.0,-1.0,-2.0,1.0,-1.0,0.0,-1.0,1651093981705034.0,0
33,-1.0,-1.0,0.0,-1.0,-4.0,-4.0,-1.0,-1.0,1651093981705034.0,0
34,0.0,-1.0,-1.0,-1.0,-1.0,-1.0,-1.0,0.0,1651093981720179.0,0
35,1.0,1.0,-1.0,0.0,19.0,3.0,2.0,0.0,1651093981720179.0,0
36,0.0,-1.0,-2.0,-2.0,-8.0,-3.0,-1.0,1.0,1651093981727666.0,0
37,0.0,0.0,1.0,3.0,10.0,0.0,-1.0,0.0,1651093981727666.0,0
38,-2.0,-4.0,-8.0,0.0,-1.0,0.0,-3.0,0.0,1651093981751590.0,0
39,0.0,0.0,4.0,0.0,-13.0,-3.0,0.0,0.0,1651093981751590.0,0
40,1.0,1.0,4.0,1.0,-7.0,2.0,1.0,0.0,1651093981752590.0,0
41,0.0,0.0,-3.0,-2.0,7.0,2.0,-1.0,-1.0,1651093981752590.0,0
42,-1.0,-1.0,-1.0,0.0,2.0,-3.0,-1.0,0.0,1651093981765913.0,0
43,-1.0,-1.0,-4.0,-1.0,-1.0,-4.0,-2.0,-1.0,1651093981765913.0,0
44,-1.0,-2.0,-1.0,-8.0,23.0,-3.0,-1.0,0.0,1651093981767747.0,0
45,-1.0,-1.0,1.0,5.0,-48.0,2.0,0.0,-1.0,1651093981767747.0,0
46,-2.0,0.0,1.0,3.0,-10.0,-2.0,-1.0,0.0,1651093981789086.0,0
47,0.0,0.0,-1.0,-1.0,24.0,-1.0,-1.0,-2.0,1651093981789086.0,0
48,0.0,1.0,0.0,0.0,13.0,-1.0,0.0,-2.0,1651093981789922.0,0
49,1.0,-2.0,0.0,-5.0,-2.0,-2.0,-2.0,0.0,1651093981789922.0,0
50,1.0,-2.0,-1.0,-3.0,-5.0,-3.0,-2.0,0.0,1651093981811520.0,0
51,-2.0,0.0,0.0,0.0,-4.0,-2.0,-2.0,-1.0,1651093981811520.0,0
52,-1.0,1.0,0.0,0.0,-2.0,0.0,-1.0,-1.0,1651093981812355.0,0
53,-1.0,-2.0,-3.0,-1.0,2.0,-1.0,0.0,-2.0,1651093981812355.0,0
54,-2.0,-1.0,-3.0,0.0,-6.0,-1.0,1.0,-2.0,1651093981825715.0,0
55,-2.0,3.0,6.0,-3.0,-6.0,-1.0,-1.0,0.0,1651093981825715.0,0
56,0.0,0.0,-2.0,2.0,5.0,0.0,-1.0,-1.0,1651093981833161.0,0
57,-2.0,0.0,2.0,-1.0,3.0,0.0,-1.0,-1.0,1651093981833161.0,0
58,1.0,-2.0,-2.0,-3.0,-3.0,-2.0,0.0,0.0,1651093981849071.0,0
59,0.0,-4.0,-5.0,2.0,-6.0,-1.0,-1.0,0.0,1651093981849071.0,0
60,0.0,1.0,2.0,2.0,-4.0,0.0,0.0,-1.0,1651093981850072.0,0
61,0.0,0.0,0.0,4.0,15.0,3.0,0.0,0.0,1651093981850072.0,0
62,-1.0,0.0,0.0,-5.0,2.0,-1.0,-2.0,-2.0,1651093981872234.0,0
63,0.0,1.0,-2.0,1.0,5.0,2.0,-1.0,0.0,1651093981872234.0,0
64,-1.0,-1.0,0.0,-2.0,-30.0,-5.0,-3.0,-1.0,1651093981872409.0,0
65,-1.0,-3.0,-3.0,-4.0,31.0,-3.0,-1.0,1.0,1651093981872409.0,0
66,0.0,0.0,1.0,1.0,34.0,5.0,1.0,1.0,1651093981885581.0,0
67,0.0,0.0,-1.0,-2.0,-5.0,0.0,1.0,-1.0,1651093981885581.0,0
68,1.0,0.0,-2.0,0.0,0.0,-1.0,0.0,-2.0,1651093981892692.0,0
69,-3.0,1.0,-1.0,-3.0,-4.0,-3.0,0.0,-2.0,1651093981892692.0,0
70,-1.0,1.0,1.0,3.0,0.0,-1.0,-1.0,-1.0,1651093981909491.0,0
71,-1.0,-1.0,0.0,-6.0,-26.0,-3.0,0.0,-1.0,1651093981909491.0,0
72,0.0,-2.0,-4.0,2.0,51.0,3.0,0.0,-1.0,1651093981910697.0,0
73,2.0,2.0,8.0,0.0,-8.0,1.0,0.0,-1.0,1651093981910697.0,0
74,-1.0,1.0,0.0,-1.0,-4.0,-2.0,-1.0,-1.0,1651093981931946.0,0
75,0.0,-2.0,0.0,-2.0,-7.0,-3.0,-2.0,-1.0,1651093981931946.0,0
76,-1.0,-1.0,-3.0,-6.0,-7.0,-2.0,-1.0,0.0,1651093981932866.0,0
77,-1.0,-1.0,-3.0,1.0,-7.0,-2.0,-1.0,1.0,1651093981932866.0,0
78,-1.0,-1.0,2.0,1.0,8.0,0.0,0.0,-1.0,1651093981946043.0,0
79,-4.0,-1.0,-2.0,-5.0,-1.0,-1.0,-1.0,0.0,1651093981946043.0,0
80,0.0,-1.0,1.0,5.0,-6.0,2.0,-1.0,-1.0,1651093981951868.0,0
81,0.0,0.0,-1.0,-2.0,-7.0,-2.0,0.0,-1.0,1651093981951868.0,0
82,0.0,-2.0,-1.0,-4.0,2.0,0.0,0.0,0.0,1651093981969053.0,0
83,-1.0,-2.0,-1.0,-1.0,-19.0,-2.0,-1.0,-2.0,1651093981969053.0,0
84,1.0,1.0,3.0,2.0,38.0,4.0,0.0,0.0,1651093981970050.0,0
85,0.0,-2.0,0.0,0.0,-13.0,-3.0,-1.0,-1.0,1651093981970050.0,0
86,1.0,-4.0,-7.0,-1.0,0.0,0.0,-1.0,-3.0,1651093981991507.0,0
87,1.0,1.0,6.0,1.0,4.0,0.0,0.0,0.0,1651093981991507.0,0
88,-1.0,0.0,0.0,-1.0,-20.0,-2.0,0.0,2.0,1651093981992345.0,0
89,-1.0,-1.0,-1.0,0.0,26.0,-2.0,-1.0,0.0,1651093981992345.0,0
90,0.0,0.0,0.0,-2.0,-4.0,-1.0,1.0,0.0,1651093982013323.0,0
91,0.0,0.0,-3.0,0.0,-21.0,-1.0,-1.0,1.0,1651093982013323.0,0
92,0.0,1.0,0.0,2.0,-14.0,0.0,-1.0,0.0,1651093982015285.0,0
93,-1.0,-1.0,-4.0,-6.0,-1.0,1.0,-1.0,0.0,1651093982015285.0,0
94,-2.0,1.0,-1.0,0.0,-18.0,-5.0,-1.0,0.0,1651093982029189.0,0
95,1.0,-1.0,-1.0,2.0,13.0,-1.0,-1.0,-1.0,1651093982029189.0,0
96,-1.0,-1.0,-1.0,1.0,-10.0,-1.0,1.0,-1.0,1651093982030274.0,0
97,0.0,1.0,-1.0,3.0,19.0,5.0,0.0,-1.0,1651093982030274.0,0
98,0.0,0.0,1.0,-2.0,-9.0,0.0,-1.0,0.0,1651093982051640.0,0
99,-1.0,-2.0,-2.0,-2.0,7.0,0.0,1.0,-1.0,1651093982051640.0,0
100,0.0,-4.0,-3.0,-3.0,-13.0,-1.0,1.0,0.0,1651093982053609.0,0
101,-1.0,-1.0,-1.0,1.0,3.0,-3.0,1.0,-2.0,1651093982053609.0,0
102,1.0,-1.0,1.0,1.0,5.0,1.0,-1.0,-1.0,1651093982065871.0,0
103,1.0,-3.0,-1.0,0.0,6.0,-1.0,1.0,-1.0,1651093982065871.0,0
104,0.0,1.0,-2.0,-3.0,-13.0,0.0,1.0,0.0,1651093982073254.0,0
105,0.0,0.0,1.0,-3.0,-15.0,-2.0,0.0,-1.0,1651093982073254.0,0
106,-1.0,-2.0,-3.0,1.0,17.0,-1.0,1.0,0.0,1651093982089093.0,0
107,-1.0,0.0,6.0,0.0,-9.0,-1.0,-2.0,1.0,1651093982089093.0,0
108,-2.0,-2.0,-3.0,-2.0,1.0,-3.0,-2.0,-1.0,1651093982089934.0,0
109,-1.0,1.0,3.0,1.0,29.0,3.0,0.0,0.0,1651093982089934.0,0
110,-1.0,0.0,-4.0,0.0,-11.0,-2.0,-1.0,-1.0,1651093982112133.0,0
111,-1.0,-1.0,-3.0,3.0,10.0,4.0,0.0,0.0,1651093982112133.0,0
112,-1.0,-1.0,2.0,-3.0,-14.0,-1.0,-2.0,-1.0,1651093982113165.0,0
113,-1.0,-1.0,0.0,-1.0,-3.0,-2.0,0.0,0.0,1651093982113165.0,0
114,1.0,0.0,2.0,-2.0,13.0,-2.0,0.0,0.0,1651093982126450.0,0
115,-3.0,2.0,-1.0,0.0,-8.0,2.0,0.0,-1.0,1651093982126450.0,0
116,0.0,0.0,1.0,1.0,5.0,1.0,2.0,-1.0,1651093982132467.0,0
117,-2.0,-2.0,-4.0,-4.0,-11.0,-3.0,-2.0,-1.0,1651093982132467.0,0
118,-1.0,-1.0,1.0,0.0,-7.0,0.0,-1.0,0.0,1651093982149478.0,0
119,1.0,-1.0,-1.0,-1.0,1.0,-3.0,0.0,-1.0,1651093982149478.0,0
120,-2.0,0.0,0.0,-4.0,13.0,0.0,-2.0,-1.0,1651093982150509.0,0
121,0.0,0.0,-2.0,5.0,-9.0,-2.0,-2.0,0.0,1651093982150509.0,0
122,-1.0,1.0,1.0,2.0,4.0,0.0,-1.0,-2.0,1651093982171737.0,0
123,-1.0,1.0,4.0,1.0,11.0,1.0,-1.0,1.0,1651093982171737.0,0
124,-1.0,-1.0,-3.0,-3.0,-8.0,-3.0,0.0,-1.0,1651093982172490.0,0
125,0.0,0.0,-2.0,-10.0,-8.0,-1.0,0.0,-2.0,1651093982172490.0,0
126,1.0,-1.0,-2.0,5.0,5.0,3.0,0.0,-1.0,1651093982184703.0,0
127,-1.0,-1.0,-4.0,3.0,0.0,-1.0,-2.0,-1.0,1651093982184703.0,0
128,0.0,0.0,1.0,2.0,13.0,1.0,0.0,1.0,1651093982193717.0,0
129,-1.0,-3.0,-4.0,-2.0,-21.0,-2.0,-3.0,1.0,1651093982193717.0,0
130,-1.0,0.0,0.0,-3.0,2.0,-1.0,0.0,-2.0,1651093982209110.0,0
131,-1.0,1.0,-2.0,-4.0,-3.0,-1.0,-1.0,-1.0,1651093982209110.0,0
132,-1.0,1.0,-1.0,0.0,15.0,0.0,-1.0,1.0,1651093982210110.0,0
133,-2.0,0.0,0.0,4.0,-17.0,-1.0,1.0,0.0,1651093982210110.0,0
134,-3.0,-2.0,-1.0,-2.0,-12.0,0.0,-1.0,1.0,1651093982231341.0,0
135,0.0,-1.0,-2.0,-1.0,4.0,1.0,1.0,-1.0,1651093982231341.0,0
136,1.0,0.0,0.0,1.0,-33.0,-4.0,-2.0,-1.0,1651093982232238.0,0
137,2.0,-1.0,-3.0,-9.0,27.0,1.0,0.0,-1.0,1651093982232238.0,0
138,-1.0,2.0,2.0,7.0,10.0,3.0,1.0,0.0,1651093982245354.0,0
139,-1.0,1.0,-2.0,1.0,-9.0,-2.0,0.0,0.0,1651093982245354.0,0
140,0.0,-1.0,-3.0,-2.0,7.0,-1.0,-1.0,-2.0,1651093982260356.0,0
141,0.0,3.0,7.0,5.0,-6.0,2.0,0.0,1.0,1651093982260356.0,0
142,1.0,-1.0,-1.0,-5.0,-15.0,-1.0,-1.0,-1.0,1651093982268339.0,0
143,1.0,-1.0,-3.0,-1.0,12.0,1.0,-1.0,-1.0,1651093982268339.0,0
144,-1.0,-3.0,-4.0,0.0,5.0,0.0,0.0,-1.0,1651093982270333.0,0
145,-1.0,-2.0,-2.0,0.0,-3.0,-1.0,0.0,0.0,1651093982270333.0,0
146,-1.0,0.0,-2.0,-1.0,3.0,-2.0,-2.0,-1.0,1651093982290817.0,0
147,0.0,0.0,0.0,0.0,5.0,-2.0,-1.0,-2.0,1651093982290817.0,0
148,0.0,0.0,1.0,2.0,1.0,0.0,-1.0,-1.0,1651093982292651.0,0
149,-1.0,0.0,-1.0,0.0,1.0,0.0,0.0,0.0,1651093982292651.0,0
150,0.0,-1.0,0.0,-3.0,-1.0,1.0,-1.0,0.0,1651093982322036.0,0
151,0.0,-1.0,-3.0,-4.0,-12.0,-1.0,-2.0,-1.0,1651093982322036.0,0
152,-1.0,-2.0,-1.0,-3.0,1.0,-4.0,0.0,-2.0,1651093982323067.0,0
153,0.0,0.0,0.0,8.0,14.0,1.0,1.0,0.0,1651093982323067.0,0
154,-2.0,-1.0,1.0,1.0,3.0,-1.0,-1.0,-1.0,1651093982329182.0,0
155,-1.0,-2.0,-5.0,-3.0,4.0,-1.0,-1.0,1.0,1651093982329182.0,0
156,-1.0,2.0,6.0,-2.0,-16.0,1.0,-1.0,-1.0,1651093982330018.0,0
157,-2.0,-2.0,0.0,-3.0,-13.0,-5.0,-2.0,-1.0,1651093982330018.0,0
158,-1.0,1.0,0.0,2.0,4.0,0.0,-2.0,1.0,1651093982359438.0,0
159,0.0,0.0,-1.0,0.0,-1.0,0.0,1.0,-1.0,1651093982359438.0,0
160,0.0,-3.0,-2.0,2.0,13.0,0.0,-1.0,-1.0,1651093982360453.0,0
161,1.0,-1.0,-1.0,-2.0,-24.0,0.0,-1.0,-1.0,1651093982360453.0,0
162,-1.0,0.0,-1.0,-2.0,-2.0,-2.0,0.0,-1.0,1651093982374531.0,0
163,-2.0,-1.0,-2.0,-3.0,17.0,3.0,1.0,1.0,1651093982374531.0,0
164,-2.0,0.0,-1.0,1.0,2.0,-1.0,-1.0,0.0,1651093982375450.0,0
165,-1.0,0.0,-2.0,-1.0,-4.0,-2.0,-2.0,0.0,1651093982375450.0,0
166,1.0,-1.0,1.0,-2.0,23.0,0.0,1.0,0.0,1651093982389524.0,0
167,0.0,0.0,1.0,-1.0,-3.0,3.0,1.0,0.0,1651093982389524.0,0
168,-2.0,1.0,0.0,1.0,8.0,0.0,0.0,0.0,1651093982390398.0,0
169,-2.0,0.0,-1.0,2.0,-11.0,-2.0,-2.0,-2.0,1651093982390398.0,0
170,0.0,-1.0,-5.0,-1.0,-3.0,-2.0,-2.0,-1.0,1651093982411972.0,0
171,-2.0,0.0,5.0,-2.0,-2.0,-3.0,-2.0,-2.0,1651093982411972.0,0
172,0.0,-1.0,-1.0,-4.0,17.0,-2.0,0.0,-1.0,1651093982412823.0,0
173,1.0,0.0,-1.0,1.0,-44.0,6.0,0.0,-2.0,1651093982412823.0,0
174,0.0,-3.0,0.0,-2.0,-10.0,-2.0,0.0,-1.0,1651093982425092.0,0
175,-1.0,-4.0,-2.0,0.0,-10.0,-2.0,-1.0,1.0,1651093982425092.0,0
176,0.0,0.0,-1.0,0.0,10.0,0.0,-1.0,-1.0,1651093982434018.0,0
177,-1.0,1.0,-2.0,-2.0,13.0,-2.0,0.0,-2.0,1651093982434018.0,0
178,-3.0,-1.0,-1.0,-3.0,-18.0,-1.0,0.0,1.0,1651093982449202.0,0
179,1.0,0.0,1.0,-3.0,1.0,1.0,0.0,0.0,1651093982449202.0,0
180,-1.0,0.0,-1.0,4.0,-27.0,-4.0,-1.0,-1.0,1651093982450202.0,0
181,-1.0,-2.0,0.0,-1.0,43.0,1.0,-1.0,-1.0,1651093982450202.0,0
182,-1.0,-1.0,0.0,-1.0,-24.0,2.0,1.0,0.0,1651093982472300.0,0
183,0.0,1.0,0.0,1.0,2.0,0.0,0.0,1.0,1651093982472300.0,0
184,-1.0,-3.0,-3.0,-2.0,-18.0,1.0,-1.0,2.0,1651093982472406.0,0
185,1.0,-1.0,0.0,-2.0,14.0,-2.0,0.0,-1.0,1651093982472406.0,0
186,-1.0,0.0,0.0,1.0,-3.0,-3.0,-2.0,-1.0,1651093982484533.0,0
187,-2.0,-1.0,0.0,1.0,-5.0,0.0,-1.0,-1.0,1651093982484533.0,0
188,-1.0,-3.0,-5.0,-1.0,-43.0,-3.0,-1.0,0.0,1651093982501664.0,0
189,0.0,-2.0,3.0,-4.0,2.0,1.0,0.0,0.0,1651093982501664.0,0
190,0.0,0.0,1.0,-2.0,9.0,-1.0,0.0,-2.0,1651093982515958.0,0
191,1.0,1.0,0.0,4.0,2.0,-2.0,0.0,-2.0,1651093982515958.0,0
192,-1.0,0.0,-1.0,-1.0,-8.0,-1.0,-1.0,0.0,1651093982517862.0,0
193,0.0,0.0,-5.0,-2.0,-3.0,-3.0,-2.0,0.0,1651093982517862.0,0
194,-1.0,0.0,0.0,-2.0,11.0,1.0,-1.0,-2.0,1651093982531380.0,0
195,1.0,0.0,-1.0,0.0,-6.0,0.0,-2.0,0.0,1651093982531380.0,0
196,-1.0,-2.0,2.0,2.0,-1.0,-4.0,-1.0,-1.0,1651093982537837.0,0
197,0.0,0.0,2.0,0.0,17.0,3.0,1.0,-1.0,1651093982537837.0,0
198,0.0,1.0,0.0,1.0,-11.0,1.0,-2.0,-1.0,1651093982545939.0,0
199,-1.0,1.0,-2.0,-3.0,10.0,-1.0,0.0,-1.0,1651093982545939.0,0
200,0.0,2.0,-1.0,0.0,8.0,2.0,0.0,-2.0,1651093982553796.0,0
201,0.0,-1.0,-2.0,0.0,-16.0,-4.0,0.0,-1.0,1651093982553796.0,0
202,0.0,0.0,-2.0,0.0,-2.0,-1.0,0.0,1.0,1651093982568757.0,0
203,-1.0,-3.0,-2.0,5.0,13.0,1.0,0.0,0.0,1651093982568757.0,0
204,0.0,-2.0,-1.0,-3.0,-6.0,-2.0,1.0,0.0,1651093982569787.0,0
205,0.0,-2.0,-3.0,-3.0,-4.0,0.0,1.0,-1.0,1651093982569787.0,0
206,0.0,0.0,2.0,0.0,6.0,0.0,0.0,0.0,1651093982591346.0,0
207,-1.0,-1.0,1.0,-5.0,-7.0,-4.0,-2.0,0.0,1651093982591346.0,0
208,-1.0,1.0,0.0,7.0,25.0,9.0,1.0,1.0,1651093982593098.0,0
209,-1.0,-2.0,-3.0,-4.0,-21.0,-6.0,-2.0,-2.0,1651093982593098.0,0
210,1.0,-1.0,-4.0,0.0,31.0,0.0,0.0,1.0,1651093982605364.0,0
211,0.0,0.0,0.0,-1.0,-10.0,0.0,0.0,0.0,1651093982605364.0,0
212,0.0,0.0,1.0,-2.0,-1.0,0.0,0.0,-2.0,1651093982613911.0,0
213,-1.0,-1.0,0.0,1.0,-10.0,-1.0,-1.0,0.0,1651093982613911.0,0
214,0.0,0.0,0.0,0.0,0.0,-1.0,0.0,0.0,1651093982629053.0,0
215,-2.0,0.0,-2.0,0.0,-1.0,-1.0,0.0,0.0,1651093982629053.0,0
216,-1.0,0.0,-1.0,0.0,5.0,1.0,-1.0,-1.0,1651093982630053.0,0
217,0.0,1.0,0.0,0.0,0.0,3.0,1.0,1.0,1651093982630053.0,0
218,0.0,-2.0,-2.0,-3.0,-4.0,-3.0,-1.0,-1.0,1651093982650494.0,0
219,0.0,0.0,0.0,0.0,-2.0,0.0,-1.0,-2.0,1651093982650494.0,0
220,1.0,-1.0,0.0,-1.0,17.0,-3.0,0.0,0.0,1651093982665571.0,0
221,0.0,0.0,-1.0,-4.0,8.0,1.0,-1.0,-2.0,1651093982665571.0,0
222,-2.0,-1.0,-4.0,1.0,-15.0,-4.0,-2.0,0.0,1651093982673588.0,0
223,-1.0,0.0,-2.0,-4.0,5.0,-1.0,1.0,-1.0,1651093982673588.0,0
224,0.0,1.0,4.0,2.0,-1.0,-1.0,-2.0,-1.0,1651093982675451.0,0
225,-2.0,-1.0,0.0,3.0,2.0,0.0,-2.0,0.0,1651093982675451.0,0
226,-1.0,-2.0,-2.0,-4.0,3.0,0.0,-2.0,0.0,1651093982696762.0,0
227,0.0,-4.0,-4.0,-1.0,-25.0,-2.0,-1.0,-3.0,1651093982696762.0,0
228,-1.0,-1.0,0.0,-4.0,-2.0,-2.0,-1.0,0.0,1651093982697624.0,0
229,-1.0,0.0,2.0,2.0,39.0,4.0,0.0,0.0,1651093982697624.0,0
230,-1.0,-2.0,0.0,-5.0,-11.0,-2.0,-1.0,1.0,1651093982710948.0,0
231,1.0,0.0,-1.0,6.0,-8.0,-3.0,0.0,0.0,1651093982710948.0,0
232,1.0,1.0,0.0,-2.0,9.0,2.0,-1.0,-1.0,1651093982724918.0,0
233,-2.0,2.0,0.0,0.0,-8.0,-3.0,-1.0,-1.0,1651093982724918.0,0
234,0.0,-2.0,0.0,1.0,-5.0,0.0,1.0,-1.0,1651093982734074.0,0
235,-1.0,-3.0,-1.0,-4.0,8.0,1.0,-1.0,-1.0,1651093982734074.0,0
236,-1.0,-1.0,-2.0,-1.0,4.0,1.0,-1.0,0.0,1651093982735076.0,0
237,-2.0,-2.0,-3.0,0.0,-7.0,-2.0,1.0,0.0,1651093982735076.0,0
238,-1.0,0.0,1.0,1.0,20.0,-1.0,-1.0,-3.0,1651093982756368.0,0
239,0.0,0.0,1.0,0.0,-22.0,-1.0,2.0,-1.0,1651093982756368.0,0
240,-1.0,-2.0,-7.0,-1.0,-4.0,0.0,0.0,0.0,1651093982758218.0,0
241,0.0,1.0,6.0,0.0,-5.0,-2.0,0.0,-1.0,1651093982758218.0,0
242,0.0,-1.0,0.0,0.0,0.0,-1.0,0.0,-2.0,1651093982769382.0,0
243,-1.0,1.0,1.0,-1.0,2.0,0.0,-1.0,0.0,1651093982769382.0,0
244,0.0,-3.0,-2.0,-8.0,-20.0,-3.0,-1.0,-1.0,1651093982778718.0,0
245,-1.0,-1.0,-5.0,2.0,15.0,-1.0,-1.0,0.0,1651093982778718.0,0
246,-1.0,2.0,3.0,9.0,18.0,4.0,-1.0,-1.0,1651093982793643.0,0
247,0.0,-1.0,-2.0,0.0,11.0,2.0,0.0,1.0,1651093982793643.0,0
248,-1.0,0.0,1.0,-2.0,-16.0,0.0,-1.0,0.0,1651093982795516.0,0
249,0.0,-2.0,-1.0,-6.0,-17.0,-1.0,-1.0,-2.0,1651093982795516.0,0
250,-1.0,-2.0,-1.0,-4.0,-9.0,-3.0,0.0,-2.0,1651093982817083.0,0
251,-1.0,-1.0,-2.0,1.0,14.0,-2.0,-1.0,0.0,1651093982817083.0,0
252,0.0,-2.0,0.0,-1.0,-2.0,-2.0,-1.0,0.0,1651093982817967.0,0
253,1.0,0.0,-1.0,-1.0,2.0,1.0,0.0,-1.0,1651093982817967.0,0
254,1.0,0.0,0.0,2.0,5.0,1.0,-1.0,-2.0,1651093982829899.0,0
255,0.0,-1.0,1.0,0.0,-5.0,0.0,-1.0,-1.0,1651093982829899.0,0
256,-1.0,0.0,0.0,-1.0,6.0,-3.0,-2.0,-2.0,1651093982838877.0,0
257,0.0,-1.0,-5.0,-3.0,-7.0,1.0,0.0,1.0,1651093982838877.0,0
258,-1.0,3.0,7.0,2.0,-4.0,-1.0,0.0,0.0,1651093982854318.0,0
259,-2.0,-1.0,-2.0,1.0,2.0,-1.0,-1.0,-2.0,1651093982854318.0,0
260,-1.0,-1.0,-1.0,2.0,-9.0,0.0,0.0,-1.0,1651093982855169.0,0
261,0.0,-3.0,0.0,-2.0,0.0,-2.0,0.0,-2.0,1651093982855169.0,0
262,1.0,-1.0,-4.0,-2.0,-3.0,5.0,2.0,1.0,1651093982876672.0,0
263,-1.0,0.0,1.0,1.0,7.0,1.0,0.0,0.0,1651093982876672.0,0
264,-1.0,0.0,-2.0,-1.0,7.0,-6.0,0.0,-1.0,1651093982878508.0,0
265,1.0,1.0,0.0,4.0,-31.0,0.0,0.0,0.0,1651093982878508.0,0
266,-1.0,1.0,-2.0,-3.0,3.0,-2.0,-1.0,0.0,1651093982890841.0,0
267,2.0,-1.0,1.0,-1.0,-3.0,-2.0,0.0,1.0,1651093982890841.0,0
268,-1.0,-1.0,-2.0,-2.0,7.0,-1.0,-1.0,-2.0,1651093982898819.0,0
269,-1.0,-1.0,1.0,0.0,10.0,-2.0,-1.0,-1.0,1651093982898819.0,0
270,-1.0,-1.0,-2.0,-2.0,-14.0,-3.0,-1.0,-2.0,1651093982913827.0,0
271,1.0,-1.0,-1.0,0.0,11.0,4.0,2.0,1.0,1651093982913827.0,0
272,0.0,2.0,0.0,-2.0,17.0,1.0,-2.0,0.0,1651093982914876.0,0
273,-1.0,0.0,1.0,0.0,-17.0,1.0,0.0,0.0,1651093982914876.0,0
274,1.0,-1.0,1.0,-4.0,-21.0,-4.0,-1.0,0.0,1651093982935163.0,0
275,-2.0,-2.0,-5.0,-5.0,-2.0,-4.0,-3.0,-1.0,1651093982935163.0,0
276,0.0,1.0,5.0,5.0,11.0,4.0,2.0,-1.0,1651093982936148.0,0
277,-1.0,-1.0,0.0,3.0,21.0,-1.0,-1.0,0.0,1651093982936148.0,0
278,-1.0,-1.0,-2.0,-2.0,-16.0,3.0,-2.0,0.0,1651093982958360.0,0
279,0.0,0.0,-1.0,-5.0,-28.0,-4.0,-2.0,-2.0,1651093982958360.0,0
280,0.0,1.0,-2.0,-3.0,-3.0,-2.0,-1.0,-1.0,1651093982958360.0,0
281,0.0,2.0,2.0,1.0,25.0,3.0,0.0,0.0,1651093982958360.0,0
282,-1.0,-1.0,1.0,-1.0,-5.0,-2.0,0.0,-1.0,1651093982981679.0,0
283,-1.0,-2.0,-1.0,0.0,7.0,0.0,0.0,0.0,1651093982981679.0,0
284,-2.0,-3.0,-1.0,0.0,-13.0,-3.0,-1.0,0.0,1651093982981679.0,0
285,0.0,0.0,0.0,-7.0,2.0,-1.0,0.0,0.0,1651093982981679.0,0
286,0.0,-1.0,-1.0,3.0,2.0,0.0,0.0,1.0,1651093982995946.0,0
287,-1.0,2.0,2.0,1.0,-24.0,-2.0,0.0,0.0,1651093982995946.0,0
288,0.0,-1.0,-2.0,1.0,48.0,2.0,1.0,-1.0,1651093983003928.0,0
289,-2.0,-3.0,-4.0,-2.0,-26.0,2.0,0.0,-2.0,1651093983003928.0,0
290,-1.0,-1.0,-3.0,-5.0,0.0,-4.0,0.0,-1.0,1651093983018127.0,0
291,-1.0,-1.0,-5.0,-1.0,9.0,3.0,-1.0,1.0,1651093983018127.0,0
292,1.0,0.0,2.0,2.0,-27.0,3.0,-1.0,0.0,1651093983018961.0,0
293,-2.0,-1.0,2.0,-1.0,3.0,-3.0,-1.0,-1.0,1651093983018961.0,0
294,0.0,0.0,-1.0,1.0,6.0,-1.0,-1.0,0.0,1651093983034129.0,0
295,-2.0,-1.0,0.0,-1.0,2.0,-4.0,-2.0,-1.0,1651093983034129.0,0
296,-1.0,-4.0,-4.0,-9.0,-5.0,0.0,1.0,-3.0,1651093983034129.0,0
297,-1.0,-2.0,-2.0,3.0,12.0,-2.0,-1.0,-1.0,1651093983034129.0,0
298,0.0,0.0,0.0,1.0,-29.0,-4.0,-2.0,0.0,1651093983056436.0,0
299,-1.0,0.0,-1.0,-1.0,-9.0,-2.0,-1.0,-2.0,1651093983056436.0,0
300,1.0,-1.0,-1.0,-3.0,13.0,1.0,0.0,0.0,1651093983056436.0,0
301,0.0,-2.0,0.0,1.0,14.0,1.0,0.0,0.0,1651093983056436.0,0
302,-2.0,-2.0,0.0,-1.0,-2.0,1.0,1.0,-1.0,1651093983078642.0,0
303,0.0,-1.0,1.0,1.0,2.0,-3.0,-2.0,-1.0,1651093983078642.0,0
304,-3.0,0.0,-3.0,12.0,-6.0,-1.0,-5.0,-1.0,1651093983078642.0,0
305,1.0,-1.0,-3.0,-14.0,2.0,-10.0,-8.0,-2.0,1651093983078642.0,0
306,-3.0,-4.0,-8.0,-12.0,-4.0,-11.0,3.0,-3.0,1651093983093773.0,0
307,-5.0,0.0,2.0,-11.0,20.0,14.0,-8.0,-7.0,1651093983093773.0,0
308,-2.0,3.0,5.0,1.0,-17.0,-8.0,-81.0,-7.0,1651093983093773.0,0
309,-3.0,-2.0,3.0,58.0,28.0,8.0,98.0,0.0,1651093983093773.0,0
310,2.0,2.0,3.0,-6.0,17.0,11.0,18.0,4.0,1651093983115890.0,1
311,2.0,2.0,0.0,-9.0,-14.0,9.0,19.0,15.0,1651093983115890.0,1
312,1.0,-1.0,-1.0,2.0,9.0,15.0,21.0,1.0,1651093983124033.0,1
313,-5.0,-2.0,-2.0,-14.0,-12.0,-10.0,-36.0,-4.0,1651093983124033.0,1
314,-4.0,-4.0,-3.0,0.0,-13.0,-10.0,37.0,-8.0,1651093983138320.0,1
315,7.0,8.0,6.0,-2.0,22.0,33.0,-65.0,2.0,1651093983138320.0,1
316,7.0,4.0,0.0,-13.0,-5.0,-4.0,-17.0,16.0,1651093983139207.0,1
317,5.0,3.0,1.0,14.0,4.0,57.0,53.0,11.0,1651093983139207.0,1
318,-4.0,-3.0,-2.0,2.0,5.0,12.0,-13.0,-6.0,1651093983154106.0,1
319,-25.0,-12.0,-9.0,-13.0,-14.0,-49.0,-49.0,-34.0,1651093983154106.0,1
320,-10.0,-3.0,-3.0,-20.0,-13.0,37.0,37.0,-10.0,1651093983160746.0,1
321,18.0,10.0,5.0,9.0,-5.0,-92.0,-101.0,-10.0,1651093983160746.0,1
322,2.0,-1.0,2.0,18.0,20.0,39.0,93.0,16.0,1651093983175228.0,1
323,14.0,8.0,11.0,29.0,21.0,0.0,51.0,50.0,1651093983175228.0,1
324,-4.0,-3.0,-5.0,-2.0,-13.0,13.0,72.0,5.0,1651093983176066.0,1
325,-14.0,-13.0,-15.0,-53.0,-23.0,7.0,34.0,-5.0,1651093983176066.0,1
326,-2.0,7.0,3.0,12.0,-16.0,-73.0,-128.0,-33.0,1651093983198624.0,1
327,-3.0,-5.0,-4.0,2.0,-12.0,-44.0,4.0,-32.0,1651093983198624.0,1
328,-11.0,-7.0,0.0,11.0,15.0,29.0,74.0,-11.0,1651093983198624.0,1
329,5.0,3.0,3.0,-13.0,-6.0,-33.0,100.0,39.0,1651093983198624.0,1
330,41.0,19.0,11.0,-17.0,21.0,85.0,54.0,43.0,1651093983229542.0,1
331,-36.0,6.0,5.0,19.0,-29.0,86.0,-30.0,-10.0,1651093983229542.0,1
332,81.0,9.0,6.0,8.0,24.0,-112.0,-18.0,3.0,1651093983229542.0,1
333,-38.0,-26.0,-17.0,-25.0,-4.0,57.0,-128.0,-77.0,1651093983229542.0,1
334,-52.0,-16.0,-6.0,25.0,2.0,-24.0,-65.0,-18.0,1651093983235564.0,1
335,41.0,2.0,-2.0,-7.0,-24.0,-60.0,127.0,-3.0,1651093983235564.0,1
336,24.0,14.0,6.0,5.0,-38.0,113.0,101.0,61.0,1651093983236559.0,1
337,16.0,17.0,16.0,17.0,64.0,-30.0,-128.0,-1.0,1651093983236559.0,1
338,6.0,-8.0,-6.0,-19.0,5.0,-95.0,-54.0,37.0,1651093983257783.0,1
339,-7.0,-18.0,-14.0,-39.0,11.0,-14.0,-103.0,-42.0,1651093983257783.0,1
340,-27.0,-5.0,-3.0,26.0,-34.0,-50.0,-17.0,-19.0,1651093983258784.0,1
341,11.0,-2.0,-2.0,24.0,-14.0,-54.0,127.0,10.0,1651093983258784.0,1
342,-24.0,1.0,4.0,9.0,50.0,48.0,-32.0,-5.0,1651093983273018.0,1
343,4.0,2.0,2.0,4.0,-36.0,-45.0,-80.0,15.0,1651093983273018.0,1
344,-22.0,-8.0,-8.0,-30.0,-22.0,-75.0,31.0,-2.0,1651093983281277.0,1
345,4.0,6.0,3.0,7.0,-19.0,117.0,91.0,3.0,1651093983281277.0,1
346,17.0,5.0,3.0,8.0,51.0,-71.0,-65.0,26.0,1651093983296404.0,1
347,-35.0,-18.0,-11.0,-12.0,42.0,50.0,89.0,-30.0,1651093983296404.0,1
348,17.0,8.0,5.0,-15.0,0.0,19.0,-57.0,4.0,1651093983296404.0,1
349,-11.0,-2.0,-5.0,9.0,-13.0,42.0,-91.0,-2.0,1651093983296404.0,1
350,5.0,3.0,3.0,-26.0,-50.0,37.0,34.0,-7.0,1651093983318384.0,1
351,-8.0,-3.0,-3.0,29.0,3.0,10.0,18.0,-1.0,1651093983318384.0,1
352,2.0,3.0,4.0,11.0,14.0,-2.0,-39.0,1.0,1651093983318384.0,1
353,3.0,4.0,0.0,-19.0,-32.0,3.0,-21.0,-9.0,1651093983318384.0,1
354,2.0,-8.0,-12.0,-28.0,-53.0,25.0,-105.0,-12.0,1651093983332684.0,1
355,-12.0,1.0,3.0,15.0,-4.0,36.0,83.0,29.0,1651093983332684.0,1
356,-90.0,-4.0,4.0,9.0,64.0,26.0,-91.0,-37.0,1651093983340774.0,1
357,56.0,-3.0,3.0,49.0,36.0,66.0,38.0,18.0,1651093983340774.0,1
358,29.0,13.0,6.0,-12.0,-16.0,-48.0,100.0,14.0,1651093983355871.0,1
359,5.0,-4.0,-3.0,-6.0,-36.0,27.0,19.0,12.0,1651093983355871.0,1
360,-30.0,-3.0,-5.0,-16.0,-17.0,-78.0,-106.0,-29.0,1651093983355871.0,1
361,-10.0,-4.0,-5.0,-31.0,-23.0,-6.0,20.0,2.0,1651093983355871.0,1
362,-12.0,-5.0,-5.0,-5.0,0.0,-41.0,42.0,-23.0,1651093983378733.0,1
363,14.0,14.0,5.0,21.0,33.0,82.0,-63.0,29.0,1651093983378733.0,1
364,22.0,-1.0,0.0,2.0,-15.0,-75.0,-100.0,23.0,1651093983378733.0,1
365,-43.0,-1.0,3.0,-39.0,17.0,49.0,45.0,-49.0,1651093983378733.0,1
366,19.0,-13.0,-3.0,33.0,-22.0,-76.0,74.0,27.0,1651093983392903.0,1
367,44.0,19.0,6.0,-38.0,-5.0,83.0,-19.0,10.0,1651093983392903.0,1
368,1.0,-3.0,-10.0,73.0,29.0,20.0,41.0,-7.0,1651093983401269.0,1
369,3.0,-2.0,-2.0,-18.0,-15.0,-16.0,-102.0,-9.0,1651093983401269.0,1
370,-66.0,-11.0,-5.0,13.0,14.0,52.0,42.0,-51.0,1651093983415977.0,1
371,-35.0,2.0,13.0,15.0,22.0,42.0,34.0,24.0,1651093983415977.0,1
372,49.0,0.0,0.0,-34.0,-16.0,-5.0,30.0,20.0,1651093983415977.0,1
373,-34.0,-9.0,-9.0,-1.0,-23.0,-86.0,65.0,-2.0,1651093983415977.0,1
374,20.0,2.0,-2.0,-10.0,9.0,39.0,-38.0,28.0,1651093983438415.0,1
375,22.0,5.0,1.0,5.0,9.0,-55.0,-73.0,-24.0,1651093983438415.0,1
376,22.0,10.0,7.0,1.0,-5.0,70.0,27.0,17.0,1651093983439096.0,1
377,-37.0,-9.0,-6.0,3.0,6.0,4.0,-17.0,-24.0,1651093983439096.0,1
378,-20.0,-3.0,-2.0,-8.0,-5.0,-51.0,-112.0,3.0,1651093983454110.0,1
379,-21.0,-17.0,-3.0,-40.0,-12.0,-128.0,-21.0,-39.0,1651093983454110.0,1
380,74.0,18.0,2.0,8.0,-19.0,44.0,93.0,67.0,1651093983454110.0,1
381,41.0,10.0,3.0,-24.0,10.0,71.0,-51.0,21.0,1651093983454110.0,1
382,3.0,1.0,2.0,54.0,-5.0,1.0,-2.0,-17.0,1651093983475802.0,1
383,-39.0,-21.0,-12.0,1.0,-8.0,-30.0,-39.0,-29.0,1651093983475802.0,1
384,-66.0,-12.0,1.0,-4.0,-3.0,11.0,-64.0,-48.0,1651093983475802.0,1
385,-12.0,1.0,4.0,-19.0,7.0,47.0,-53.0,8.0,1651093983475802.0,1
386,12.0,-10.0,-9.0,-45.0,0.0,123.0,86.0,-32.0,1651093983499063.0,1
387,38.0,18.0,4.0,48.0,-26.0,-24.0,74.0,84.0,1651093983499063.0,1
388,24.0,10.0,11.0,-33.0,45.0,-48.0,62.0,36.0,1651093983499063.0,1
389,-22.0,-1.0,-8.0,47.0,-28.0,-5.0,-1.0,11.0,1651093983499063.0,1
390,-1.0,-6.0,3.0,-5.0,14.0,22.0,-69.0,-32.0,1651093983514118.0,1
391,-18.0,-8.0,-8.0,-16.0,0.0,14.0,-49.0,-62.0,1651093983514118.0,1
392,-8.0,-8.0,-3.0,-22.0,8.0,72.0,61.0,41.0,1651093983514118.0,1
393,-12.0,-6.0,0.0,54.0,2.0,-121.0,-48.0,-1.0,1651093983514118.0,1
394,3.0,8.0,0.0,-26.0,-25.0,39.0,38.0,16.0,1651093983535591.0,1
395,41.0,15.0,6.0,-8.0,12.0,108.0,12.0,25.0,1651093983535591.0,1
396,-3.0,-8.0,-2.0,35.0,8.0,-27.0,29.0,-41.0,1651093983536556.0,1
397,7.0,1.0,2.0,-6.0,-1.0,-75.0,-15.0,44.0,1651093983536556.0,1
398,-91.0,-7.0,-1.0,14.0,-3.0,42.0,-128.0,-42.0,1651093983558495.0,1
399,30.0,-6.0,-6.0,-13.0,5.0,15.0,96.0,-51.0,1651093983558495.0,1
400,40.0,0.0,-5.0,-46.0,-31.0,-28.0,-7.0,32.0,1651093983558495.0,1
401,4.0,-13.0,-7.0,-13.0,-27.0,32.0,65.0,-29.0,1651093983558495.0,1
402,-20.0,25.0,15.0,48.0,40.0,-6.0,127.0,87.0,1651093983573851.0,1
403,40.0,1.0,1.0,9.0,16.0,-87.0,-128.0,16.0,1651093983573851.0,1
404,-28.0,-11.0,-14.0,-29.0,-41.0,62.0,-10.0,-65.0,1651093983573851.0,1
405,-32.0,-9.0,6.0,39.0,16.0,87.0,-42.0,-72.0,1651093983573851.0,1
406,50.0,13.0,6.0,-92.0,-22.0,12.0,64.0,58.0,1651093983596939.0,1
407,-50.0,-10.0,-10.0,123.0,54.0,-17.0,-45.0,-26.0,1651093983596939.0,1
408,50.0,4.0,0.0,13.0,-31.0,58.0,-57.0,77.0,1651093983597935.0,1
409,-14.0,2.0,3.0,-63.0,-9.0,-86.0,38.0,-7.0,1651093983597935.0,1
410,5.0,6.0,1.0,23.0,13.0,-86.0,-37.0,-35.0,1651093983618239.0,1
411,3.0,0.0,7.0,-15.0,11.0,56.0,19.0,40.0,1651093983618239.0,1
412,-24.0,-8.0,-5.0,-13.0,-8.0,3.0,-97.0,-30.0,1651093983618239.0,1
413,23.0,6.0,1.0,-26.0,18.0,-15.0,-50.0,47.0,1651093983618239.0,1
414,16.0,-9.0,-12.0,-50.0,-23.0,27.0,6.0,-42.0,1651093983633584.0,1
415,-20.0,-3.0,1.0,75.0,11.0,-117.0,-32.0,-10.0,1651093983633584.0,1
416,-59.0,2.0,9.0,12.0,-4.0,-61.0,67.0,-23.0,1651093983633584.0,1
417,20.0,2.0,-7.0,-57.0,-24.0,4.0,-21.0,-22.0,1651093983633584.0,1
418,50.0,-1.0,-2.0,80.0,21.0,22.0,-9.0,20.0,1651093983655756.0,1
419,23.0,8.0,5.0,-22.0,-14.0,-109.0,-56.0,51.0,1651093983655756.0,1
420,-111.0,-16.0,-5.0,-74.0,5.0,88.0,5.0,-60.0,1651093983656629.0,1
421,99.0,11.0,3.0,100.0,33.0,6.0,75.0,48.0,1651093983656629.0,1
422,32.0,-8.0,-8.0,-26.0,-16.0,-24.0,-77.0,-60.0,1651093983678727.0,1
423,21.0,6.0,6.0,-23.0,-7.0,33.0,107.0,51.0,1651093983678727.0,1
424,-47.0,-3.0,1.0,12.0,17.0,-6.0,-48.0,-50.0,1651093983678727.0,1
425,-21.0,8.0,-5.0,-74.0,-41.0,6.0,47.0,29.0,1651093983678727.0,1
426,-13.0,-15.0,-5.0,95.0,38.0,25.0,-48.0,-43.0,1651093983692740.0,1
427,9.0,4.0,1.0,-27.0,-8.0,42.0,-89.0,10.0,1651093983692740.0,1
428,9.0,-13.0,-12.0,-24.0,-25.0,-91.0,40.0,-17.0,1651093983707946.0,1
429,-46.0,5.0,8.0,33.0,5.0,68.0,60.0,-16.0,1651093983707946.0,1
430,-32.0,-6.0,-1.0,-24.0,-17.0,37.0,67.0,-3.0,1651093983716000.0,1
431,-6.0,1.0,1.0,-22.0,-4.0,19.0,-65.0,-30.0,1651093983716000.0,1
432,18.0,9.0,1.0,-4.0,15.0,118.0,1.0,11.0,1651093983716000.0,1
433,16.0,-7.0,-9.0,0.0,-17.0,-31.0,-128.0,-36.0,1651093983716000.0,1
434,-16.0,8.0,5.0,3.0,22.0,-32.0,90.0,31.0,1651093983739001.0,1
435,-35.0,-12.0,-9.0,-17.0,-13.0,-12.0,47.0,-4.0,1651093983739001.0,1
436,28.0,-1.0,-13.0,-5.0,-7.0,-33.0,-31.0,33.0,1651093983739162.0,1
437,-50.0,-10.0,12.0,31.0,2.0,24.0,-80.0,-67.0,1651093983739162.0,1
438,41.0,19.0,15.0,-1.0,14.0,127.0,33.0,67.0,1651093983752130.0,1
439,-7.0,-11.0,-10.0,-11.0,-10.0,-49.0,-12.0,-4.0,1651093983752130.0,1
440,-22.0,-9.0,0.0,69.0,0.0,-72.0,25.0,-35.0,1651093983761561.0,1
441,23.0,4.0,-6.0,-6.0,43.0,67.0,107.0,31.0,1651093983761561.0,1
442,36.0,11.0,3.0,-20.0,-44.0,-128.0,101.0,47.0,1651093983776455.0,1
443,-43.0,0.0,9.0,-12.0,7.0,84.0,-31.0,-37.0,1651093983776455.0,1
444,12.0,0.0,5.0,-54.0,13.0,82.0,-119.0,-61.0,1651093983776455.0,1
445,15.0,1.0,-9.0,56.0,-5.0,-68.0,52.0,45.0,1651093983776455.0,1
446,41.0,5.0,7.0,-51.0,1.0,-14.0,-128.0,49.0,1651093983798923.0,1
447,-5.0,-5.0,-5.0,47.0,-22.0,74.0,-25.0,3.0,1651093983798923.0,1
448,30.0,5.0,3.0,3.0,22.0,-43.0,88.0,9.0,1651093983799456.0,1
449,-27.0,7.0,14.0,2.0,8.0,-31.0,-21.0,27.0,1651093983799456.0,1
450,10.0,4.0,5.0,27.0,-4.0,18.0,24.0,-39.0,1651093983812711.0,1
451,16.0,14.0,0.0,-66.0,-22.0,-120.0,-64.0,3.0,1651093983812711.0,1
452,-90.0,-22.0,-3.0,29.0,-7.0,75.0,66.0,-101.0,1651093983820724.0,1
453,113.0,20.0,5.0,-30.0,-8.0,24.0,104.0,105.0,1651093983820724.0,1
454,23.0,5.0,-3.0,19.0,22.0,28.0,-27.0,26.0,1651093983835909.0,1
455,-28.0,-15.0,-6.0,-15.0,1.0,77.0,-38.0,-49.0,1651093983835909.0,1
456,-35.0,-5.0,-10.0,-29.0,-22.0,-7.0,-77.0,-53.0,1651093983835909.0,1
457,27.0,7.0,-1.0,0.0,2.0,-32.0,30.0,83.0,1651093983835909.0,1
458,-21.0,0.0,6.0,-48.0,4.0,-12.0,101.0,-4.0,1651093983858173.0,1
459,8.0,-9.0,-12.0,35.0,20.0,38.0,127.0,26.0,1651093983858173.0,1
460,51.0,22.0,13.0,84.0,21.0,-68.0,-128.0,31.0,1651093983858173.0,1
461,-75.0,-14.0,-4.0,-58.0,-31.0,31.0,-35.0,-46.0,1651093983858173.0,1
462,-59.0,-15.0,-11.0,21.0,-6.0,33.0,-67.0,-56.0,1651093983872363.0,1
463,96.0,11.0,-5.0,-52.0,-33.0,71.0,34.0,3.0,1651093983872363.0,1
464,-1.0,-5.0,5.0,-67.0,-22.0,-117.0,80.0,33.0,1651093983880890.0,1
465,-40.0,-6.0,-4.0,50.0,6.0,-77.0,57.0,-63.0,1651093983880890.0,1
466,-24.0,-5.0,-2.0,16.0,1.0,36.0,66.0,42.0,1651093983896248.0,1
467,-10.0,13.0,10.0,13.0,14.0,59.0,70.0,11.0,1651093983896248.0,1
468,52.0,-11.0,-8.0,17.0,5.0,103.0,-81.0,-13.0,1651093983896248.0,1
469,-16.0,-7.0,-3.0,-32.0,-18.0,-76.0,-128.0,-44.0,1651093983896248.0,1
470,16.0,-2.0,-6.0,-35.0,-27.0,102.0,-19.0,0.0,1651093983918226.0,1
471,-61.0,-18.0,-16.0,-73.0,-18.0,6.0,-13.0,-29.0,1651093983918226.0,1
472,18.0,16.0,-1.0,40.0,14.0,-67.0,-49.0,67.0,1651093983918226.0,1
473,5.0,-7.0,10.0,48.0,5.0,-19.0,34.0,-37.0,1651093983918226.0,1
474,-42.0,-6.0,4.0,10.0,13.0,-65.0,-53.0,-54.0,1651093983932333.0,1
475,66.0,14.0,11.0,5.0,-22.0,-119.0,-15.0,83.0,1651093983932333.0,1
476,-41.0,-7.0,1.0,6.0,16.0,127.0,-20.0,-13.0,1651093983941442.0,1
477,-5.0,-14.0,-14.0,-46.0,-22.0,4.0,-48.0,-28.0,1651093983941442.0,1
478,15.0,4.0,3.0,70.0,25.0,30.0,36.0,23.0,1651093983955634.0,1
479,2.0,13.0,8.0,28.0,14.0,-80.0,127.0,33.0,1651093983955634.0,1
480,-16.0,-5.0,-2.0,-4.0,0.0,7.0,-44.0,-8.0,1651093983956509.0,1
481,16.0,4.0,-5.0,-31.0,1.0,-60.0,-31.0,36.0,1651093983956509.0,1
482,1.0,-5.0,1.0,-11.0,-19.0,90.0,12.0,-93.0,1651093983985826.0,1
483,-33.0,-14.0,-16.0,-4.0,28.0,-61.0,66.0,-20.0,1651093983985826.0,1
484,116.0,39.0,24.0,36.0,11.0,127.0,127.0,127.0,1651093983986705.0,1
485,-83.0,-8.0,11.0,33.0,5.0,34.0,-76.0,-45.0,1651093983986705.0,1
486,58.0,11.0,-1.0,-57.0,-16.0,-100.0,-35.0,54.0,1651093983992689.0,1
487,-57.0,-19.0,-10.0,-14.0,-5.0,54.0,-112.0,-103.0,1651093983992689.0,1
488,-23.0,4.0,3.0,21.0,-10.0,-100.0,52.0,14.0,1651093984000813.0,1
489,85.0,-2.0,-17.0,-28.0,17.0,127.0,17.0,46.0,1651093984000813.0,1
490,-66.0,-21.0,-9.0,-5.0,-16.0,-2.0,-61.0,-7.0,1651093984015771.0,1
491,67.0,14.0,7.0,58.0,24.0,-55.0,31.0,10.0,1651093984015771.0,1
492,-14.0,-2.0,0.0,15.0,8.0,69.0,17.0,44.0,1651093984016626.0,1
493,-52.0,-1.0,7.0,-11.0,-17.0,-1.0,78.0,-49.0,1651093984016626.0,1
494,18.0,-2.0,-23.0,4.0,-8.0,-19.0,-95.0,-36.0,1651093984038893.0,1
495,62.0,23.0,31.0,-15.0,-2.0,0.0,78.0,96.0,1651093984038893.0,1
496,-22.0,-11.0,-2.0,-48.0,-11.0,116.0,-40.0,-41.0,1651093984038893.0,1
497,-14.0,13.0,5.0,11.0,32.0,4.0,79.0,0.0,1651093984038893.0,1
498,-38.0,-18.0,-8.0,28.0,-10.0,-37.0,-117.0,-24.0,1651093984061767.0,1
499,-113.0,-13.0,3.0,23.0,17.0,87.0,74.0,-114.0,1651093984061767.0,1
500,82.0,4.0,-25.0,-14.0,-15.0,-60.0,-55.0,73.0,1651093984062129.0,1
501,53.0,16.0,-15.0,41.0,25.0,16.0,82.0,21.0,1651093984062129.0,1
502,-30.0,-6.0,16.0,-52.0,0.0,-17.0,-66.0,-15.0,1651093984074912.0,1
503,19.0,-1.0,-15.0,32.0,-12.0,-63.0,-128.0,14.0,1651093984074912.0,1
504,-11.0,-11.0,-3.0,-26.0,9.0,51.0,13.0,-75.0,1651093984075925.0,1
505,-84.0,-13.0,-13.0,-25.0,-16.0,40.0,33.0,-15.0,1651093984075925.0,1
506,110.0,8.0,11.0,44.0,8.0,-3.0,-29.0,13.0,1651093984098380.0,1
507,21.0,4.0,14.0,-2.0,42.0,122.0,32.0,45.0,1651093984098380.0,1
508,-18.0,-6.0,3.0,-18.0,2.0,-4.0,1.0,11.0,1651093984099233.0,1
509,14.0,5.0,6.0,8.0,-14.0,56.0,-87.0,-27.0,1651093984099233.0,1
510,-49.0,-1.0,-21.0,-64.0,-8.0,40.0,-29.0,-13.0,1651093984121667.0,1
511,-23.0,-8.0,20.0,-24.0,-27.0,-22.0,24.0,33.0,1651093984121667.0,1
512,90.0,11.0,-8.0,15.0,1.0,-111.0,8.0,27.0,1651093984121667.0,1
513,-7.0,-10.0,-4.0,32.0,-15.0,17.0,-77.0,4.0,1651093984121667.0,1
514,-27.0,5.0,12.0,111.0,66.0,48.0,106.0,-5.0,1651093984135583.0,1
515,-71.0,-29.0,-39.0,-73.0,-40.0,-23.0,-128.0,-85.0,1651093984135583.0,1
516,20.0,6.0,5.0,-38.0,-42.0,30.0,76.0,30.0,1651093984136564.0,1
517,-19.0,-2.0,6.0,-23.0,4.0,4.0,-68.0,-72.0,1651093984136564.0,1
518,9.0,18.0,5.0,30.0,6.0,36.0,127.0,48.0,1651093984157716.0,1
519,15.0,-18.0,-5.0,5.0,2.0,127.0,-105.0,-12.0,1651093984157716.0,1
520,-52.0,-1.0,6.0,11.0,-1.0,-128.0,-63.0,-84.0,1651093984158715.0,1
521,53.0,-4.0,-3.0,-82.0,-21.0,36.0,-34.0,54.0,1651093984158715.0,1
522,-58.0,-11.0,-5.0,55.0,-5.0,-128.0,-2.0,-85.0,1651093984182159.0,1
523,62.0,28.0,10.0,-16.0,-6.0,73.0,2.0,97.0,1651093984182159.0,1
524,-56.0,-12.0,-12.0,1.0,1.0,122.0,-4.0,-48.0,1651093984182159.0,1
525,1.0,5.0,20.0,12.0,-4.0,-99.0,32.0,-40.0,1651093984182159.0,1
526,-81.0,-10.0,-17.0,-12.0,13.0,34.0,13.0,-7.0,1651093984204378.0,1
527,53.0,-8.0,-5.0,-20.0,-1.0,-57.0,107.0,-7.0,1651093984204378.0,1
528,70.0,8.0,8.0,-15.0,-8.0,48.0,-78.0,51.0,1651093984204378.0,1
529,59.0,8.0,-1.0,43.0,-3.0,79.0,66.0,23.0,1651093984204378.0,1
530,30.0,9.0,4.0,-30.0,11.0,-32.0,-7.0,64.0,1651093984217396.0,1
531,-114.0,-8.0,6.0,2.0,-9.0,58.0,-98.0,-128.0,1651093984217396.0,1
532,-45.0,-5.0,-6.0,-14.0,14.0,-80.0,104.0,22.0,1651093984218397.0,1
533,81.0,-4.0,0.0,56.0,-7.0,39.0,-122.0,53.0,1651093984218397.0,1
534,-3.0,-6.0,-3.0,-36.0,-37.0,-42.0,-88.0,-32.0,1651093984240754.0,1
535,-19.0,2.0,-4.0,-5.0,-4.0,34.0,14.0,-36.0,1651093984240754.0,1
536,-40.0,-6.0,-5.0,4.0,3.0,62.0,-85.0,6.0,1651093984241627.0,1
537,0.0,18.0,6.0,23.0,25.0,-74.0,27.0,62.0,1651093984241627.0,1
538,22.0,-20.0,5.0,-16.0,-9.0,-7.0,-74.0,-31.0,1651093984263849.0,1
539,6.0,8.0,-24.0,-28.0,-7.0,-18.0,73.0,5.0,1651093984263849.0,1
540,-8.0,5.0,43.0,-14.0,-10.0,14.0,-68.0,-29.0,1651093984264849.0,1
541,-25.0,-8.0,-25.0,-66.0,-12.0,-58.0,-16.0,-11.0,1651093984264849.0,1
542,41.0,7.0,19.0,62.0,5.0,87.0,84.0,35.0,1651093984278086.0,1
543,-89.0,-7.0,-7.0,110.0,37.0,32.0,-21.0,-42.0,1651093984278086.0,1
544,96.0,-2.0,-8.0,47.0,34.0,44.0,71.0,30.0,1651093984278958.0,1
545,-37.0,11.0,12.0,-12.0,-6.0,-31.0,-12.0,27.0,1651093984278958.0,1
546,60.0,7.0,-12.0,-68.0,-23.0,-49.0,-57.0,24.0,1651093984301347.0,1
547,34.0,-5.0,-19.0,-35.0,-10.0,31.0,-1.0,9.0,1651093984301347.0,1
548,-83.0,7.0,27.0,19.0,0.0,4.0,88.0,-6.0,1651093984302217.0,1
549,-36.0,-11.0,3.0,-34.0,16.0,-37.0,-72.0,-20.0,1651093984302217.0,1
550,-22.0,-5.0,-9.0,36.0,-2.0,94.0,-30.0,-22.0,1651093984315601.0,1
551,11.0,11.0,17.0,-15.0,32.0,10.0,-4.0,-9.0,1651093984315601.0,1
552,64.0,2.0,-14.0,-4.0,-18.0,-91.0,-37.0,65.0,1651093984316464.0,1
553,-55.0,6.0,-1.0,-8.0,6.0,93.0,90.0,-8.0,1651093984316464.0,1
554,-12.0,-14.0,9.0,-11.0,-19.0,26.0,-36.0,-30.0,1651093984337632.0,1
555,86.0,14.0,2.0,-3.0,-3.0,96.0,47.0,46.0,1651093984337632.0,1
556,-77.0,-27.0,-32.0,30.0,1.0,-80.0,-18.0,-59.0,1651093984338597.0,1
557,-60.0,-5.0,16.0,22.0,0.0,-55.0,-29.0,-26.0,1651093984338597.0,1
558,59.0,13.0,-2.0,10.0,21.0,51.0,-91.0,82.0,1651093984368713.0,1
559,45.0,3.0,7.0,-7.0,3.0,6.0,-78.0,34.0,1651093984368713.0,1
560,61.0,19.0,10.0,-3.0,-13.0,-17.0,47.0,-10.0,1651093984369712.0,1
561,26.0,-18.0,-20.0,-50.0,-28.0,-1.0,-107.0,3.0,1651093984369712.0,1
562,-128.0,-23.0,-20.0,1.0,21.0,-8.0,-7.0,-80.0,1651093984375735.0,1
563,27.0,17.0,24.0,33.0,15.0,16.0,-12.0,15.0,1651093984375735.0,1
564,-64.0,-20.0,-19.0,7.0,3.0,-65.0,-35.0,-55.0,1651093984375735.0,1
565,8.0,4.0,1.0,47.0,25.0,-22.0,7.0,80.0,1651093984375735.0,1
566,74.0,-7.0,-20.0,-69.0,-26.0,17.0,52.0,6.0,1651093984398958.0,1
567,9.0,-4.0,2.0,-35.0,-42.0,-104.0,-26.0,20.0,1651093984398958.0,1
568,-31.0,11.0,30.0,21.0,36.0,67.0,54.0,-2.0,1651093984398958.0,1
569,39.0,9.0,-4.0,-24.0,-12.0,21.0,-34.0,-32.0,1651093984398958.0,1
570,-71.0,-21.0,8.0,-28.0,1.0,-26.0,127.0,-13.0,1651093984422171.0,1
571,68.0,10.0,-7.0,12.0,-18.0,-75.0,16.0,55.0,1651093984422171.0,1
572,-43.0,-5.0,-9.0,36.0,-10.0,-1.0,-102.0,-62.0,1651093984422303.0,1
573,-9.0,-7.0,1.0,-40.0,24.0,87.0,101.0,-35.0,1651093984422303.0,1
574,9.0,14.0,-2.0,26.0,-12.0,55.0,-40.0,21.0,1651093984435498.0,1
575,55.0,-7.0,2.0,-39.0,-4.0,-14.0,-10.0,20.0,1651093984435498.0,1
576,-5.0,-5.0,-4.0,-7.0,-9.0,117.0,58.0,2.0,1651093984436460.0,1
577,23.0,3.0,-5.0,54.0,37.0,34.0,-7.0,-7.0,1651093984436460.0,1
578,-2.0,-2.0,0.0,-67.0,-31.0,-3.0,81.0,2.0,1651093984458403.0,1
579,-72.0,-8.0,-1.0,18.0,29.0,16.0,-30.0,-6.0,1651093984458403.0,1
580,-16.0,2.0,-6.0,-11.0,-2.0,-58.0,-65.0,-45.0,1651093984458403.0,1
581,-68.0,-8.0,-7.0,-4.0,3.0,86.0,-1.0,-40.0,1651093984458403.0,1
582,72.0,18.0,14.0,36.0,17.0,-76.0,-24.0,-12.0,1651093984481973.0,1
583,39.0,11.0,1.0,10.0,13.0,-46.0,54.0,86.0,1651093984481973.0,1
584,35.0,-3.0,-16.0,-64.0,-50.0,-32.0,93.0,29.0,1651093984481973.0,1
585,-24.0,-10.0,5.0,30.0,-8.0,37.0,-71.0,-78.0,1651093984481973.0,1
586,-21.0,3.0,-7.0,8.0,-15.0,-19.0,19.0,5.0,1651093984495950.0,1
587,-64.0,-9.0,12.0,25.0,-2.0,-1.0,-105.0,-73.0,1651093984495950.0,1
588,27.0,-4.0,-24.0,8.0,26.0,-54.0,96.0,18.0,1651093984495950.0,1
589,-14.0,6.0,38.0,-9.0,-5.0,13.0,31.0,18.0,1651093984495950.0,1
590,-7.0,5.0,-8.0,-17.0,2.0,32.0,-19.0,13.0,1651093984518097.0,1
591,23.0,-3.0,-16.0,-13.0,-12.0,11.0,12.0,-11.0,1651093984518097.0,1
592,-12.0,2.0,15.0,18.0,21.0,16.0,-64.0,-2.0,1651093984519094.0,1
593,-14.0,-1.0,-6.0,5.0,-18.0,-18.0,14.0,-4.0,1651093984519094.0,1
594,28.0,3.0,5.0,14.0,15.0,-117.0,-79.0,3.0,1651093984541192.0,1
595,-43.0,-13.0,-20.0,-11.0,-18.0,19.0,56.0,-29.0,1651093984541192.0,1
596,10.0,4.0,5.0,-9.0,12.0,-22.0,21.0,36.0,1651093984542174.0,1
597,22.0,-6.0,-7.0,-19.0,-18.0,-27.0,25.0,-4.0,1651093984542174.0,1
598,-46.0,0.0,15.0,47.0,44.0,12.0,18.0,-5.0,1651093984556487.0,1
599,53.0,11.0,1.0,10.0,-32.0,-27.0,-43.0,6.0,1651093984556487.0,1
600,-11.0,-2.0,1.0,0.0,-13.0,-51.0,-31.0,-7.0,1651093984556487.0,1
601,53.0,6.0,2.0,6.0,-3.0,-45.0,24.0,33.0,1651093984556487.0,1
602,-66.0,-8.0,-6.0,-21.0,-1.0,-19.0,-48.0,-4.0,1651093984578635.0,1
603,-20.0,-2.0,5.0,-3.0,3.0,-45.0,12.0,-37.0,1651093984578635.0,1
604,13.0,0.0,-1.0,1.0,6.0,32.0,56.0,-12.0,1651093984578635.0,1
605,40.0,11.0,-5.0,1.0,7.0,26.0,37.0,32.0,1651093984578635.0,1
606,-1.0,0.0,1.0,-7.0,-12.0,-18.0,-22.0,3.0,1651093984600676.0,1
607,-34.0,-6.0,1.0,7.0,3.0,-12.0,-7.0,-8.0,1651093984600676.0,1
608,12.0,9.0,-17.0,-4.0,-2.0,32.0,-9.0,20.0,1651093984601519.0,1
609,4.0,2.0,17.0,9.0,3.0,-52.0,-46.0,-13.0,1651093984601519.0,1
610,29.0,0.0,-5.0,-6.0,-1.0,53.0,55.0,9.0,1651093984615861.0,1
611,-11.0,-6.0,-2.0,-3.0,5.0,33.0,25.0,13.0,1651093984615861.0,1
612,-5.0,-7.0,-2.0,0.0,-10.0,15.0,-28.0,-11.0,1651093984615861.0,1
613,-2.0,-4.0,-7.0,4.0,-16.0,-7.0,-4.0,0.0,1651093984615861.0,1
614,25.0,5.0,6.0,3.0,11.0,5.0,21.0,4.0,1651093984639064.0,1
615,-29.0,-3.0,6.0,-7.0,-3.0,18.0,17.0,-13.0,1651093984639064.0,1
616,-9.0,-2.0,-3.0,-9.0,-11.0,-38.0,-43.0,0.0,1651093984639064.0,1
617,4.0,-1.0,-6.0,2.0,60.0,-18.0,8.0,8.0,1651093984639064.0,1
618,8.0,0.0,3.0,-16.0,-39.0,7.0,2.0,-6.0,1651093984661352.0,1
619,-13.0,-1.0,-3.0,11.0,20.0,-2.0,12.0,-1.0,1651093984661352.0,1
620,-1.0,-1.0,6.0,6.0,2.0,28.0,-15.0,1.0,1651093984662227.0,1
621,8.0,1.0,-1.0,0.0,-27.0,0.0,-3.0,-1.0,1651093984662227.0,1
622,12.0,-2.0,-4.0,1.0,15.0,-4.0,11.0,20.0,1651093984674497.0,1
623,-17.0,-5.0,-3.0,-5.0,-6.0,-8.0,5.0,-9.0,1651093984674497.0,1
624,4.0,7.0,2.0,0.0,31.0,23.0,-24.0,1.0,1651093984683812.0,1
625,6.0,-5.0,-2.0,6.0,-21.0,2.0,4.0,4.0,1651093984683812.0,1
626,8.0,3.0,0.0,-2.0,5.0,2.0,-4.0,-7.0,1651093984698808.0,1
627,-6.0,4.0,-2.0,0.0,-14.0,-13.0,3.0,1.0,1651093984698808.0,1
628,-4.0,1.0,13.0,-2.0,-9.0,16.0,-10.0,2.0,1651093984698808.0,1
629,-3.0,-6.0,-19.0,-7.0,-14.0,-7.0,-5.0,0.0,1651093984698808.0,1
630,1.0,1.0,2.0,-18.0,8.0,0.0,-4.0,-4.0,1651093984720962.0,1
631,-3.0,-2.0,3.0,22.0,30.0,2.0,7.0,-6.0,1651093984720962.0,1
632,0.0,-1.0,1.0,-1.0,-17.0,7.0,-6.0,-6.0,1651093984720962.0,1
633,-2.0,-3.0,-1.0,-3.0,22.0,-8.0,-3.0,1.0,1651093984720962.0,1
634,6.0,1.0,-1.0,1.0,-97.0,18.0,11.0,-2.0,1651093984735033.0,1
635,-6.0,3.0,2.0,7.0,95.0,10.0,5.0,-2.0,1651093984735033.0,1
636,-2.0,-4.0,-1.0,5.0,-31.0,-22.0,-15.0,-7.0,1651093984743446.0,1
637,3.0,5.0,7.0,10.0,-2.0,-2.0,6.0,6.0,1651093984743446.0,1
638,1.0,-1.0,-2.0,-17.0,-23.0,-9.0,1.0,0.0,1651093984758444.0,1
639,-4.0,-6.0,-4.0,0.0,-15.0,-4.0,1.0,-10.0,1651093984758444.0,1
640,-1.0,5.0,1.0,3.0,-76.0,29.0,-5.0,3.0,1651093984759180.0,1
641,9.0,3.0,3.0,-4.0,7.0,-8.0,0.0,5.0,1651093984759180.0,1
642,-10.0,-2.0,1.0,6.0,64.0,-18.0,3.0,-9.0,1651093984781571.0,1
643,5.0,-1.0,0.0,-11.0,-93.0,5.0,1.0,24.0,1651093984781571.0,1
644,-2.0,-4.0,-1.0,9.0,113.0,3.0,-4.0,-35.0,1651093984781571.0,1
645,-2.0,-5.0,-10.0,-4.0,-14.0,-8.0,-8.0,19.0,1651093984781571.0,1
646,5.0,6.0,10.0,3.0,-37.0,8.0,17.0,8.0,1651093984795666.0,1
647,-2.0,3.0,2.0,-2.0,28.0,-3.0,4.0,-10.0,1651093984795666.0,1
648,2.0,-4.0,-3.0,-5.0,-57.0,8.0,-2.0,9.0,1651093984803652.0,1
649,-3.0,-1.0,-5.0,-9.0,-2.0,1.0,-1.0,-6.0,1651093984803652.0,1
650,1.0,-2.0,-4.0,10.0,88.0,-2.0,-3.0,-7.0,1651093984818646.0,1
651,-2.0,-1.0,3.0,-4.0,0.0,7.0,-2.0,2.0,1651093984818646.0,1
652,0.0,0.0,-3.0,9.0,22.0,2.0,-1.0,4.0,1651093984818646.0,1
653,-2.0,-1.0,3.0,1.0,-12.0,-11.0,-2.0,-6.0,1651093984818646.0,1
654,-2.0,-6.0,-9.0,-9.0,-53.0,15.0,-4.0,0.0,1651093984840792.0,1
655,-2.0,4.0,4.0,-6.0,-34.0,2.0,0.0,-5.0,1651093984840792.0,1
656,3.0,1.0,2.0,1.0,65.0,7.0,-7.0,4.0,1651093984840792.0,1
657,-4.0,-1.0,2.0,12.0,-7.0,15.0,1.0,-5.0,1651093984840792.0,1
658,1.0,0.0,0.0,-5.0,6.0,-20.0,-2.0,-1.0,1651093984856784.0,1
659,-2.0,-1.0,-4.0,-4.0,3.0,-13.0,-2.0,-2.0,1651093984856784.0,1
660,-1.0,-2.0,0.0,-4.0,-32.0,3.0,0.0,1.0,1651093984863814.0,1
661,0.0,-2.0,-1.0,-7.0,-10.0,4.0,1.0,0.0,1651093984863814.0,1
662,1.0,-1.0,1.0,8.0,30.0,17.0,0.0,1.0,1651093984878448.0,1
663,-1.0,0.0,-1.0,-1.0,3.0,-13.0,-4.0,-4.0,1651093984878448.0,1
664,-3.0,-2.0,-4.0,-6.0,-30.0,-10.0,-2.0,2.0,1651093984879058.0,1
665,0.0,0.0,-4.0,-5.0,-39.0,-3.0,0.0,-4.0,1651093984879058.0,1
666,0.0,5.0,8.0,6.0,81.0,-6.0,-1.0,1.0,1651093984902208.0,1
667,-2.0,-1.0,-3.0,1.0,-25.0,14.0,0.0,-2.0,1651093984902208.0,1
668,1.0,-2.0,0.0,-9.0,24.0,0.0,1.0,1.0,1651093984902208.0,1
669,-2.0,-2.0,-3.0,6.0,-10.0,-1.0,-2.0,-2.0,1651093984902208.0,1
670,1.0,-1.0,-3.0,6.0,-25.0,-2.0,0.0,-1.0,1651093984915377.0,1
671,-2.0,-1.0,-3.0,-2.0,18.0,0.0,0.0,0.0,1651093984915377.0,1
672,3.0,-1.0,1.0,-2.0,-27.0,-6.0,0.0,2.0,1651093984923754.0,1
673,-1.0,-2.0,1.0,-8.0,13.0,2.0,-2.0,-2.0,1651093984923754.0,1
674,-1.0,-2.0,0.0,-2.0,-28.0,-8.0,-1.0,1.0,1651093984939043.0,1
675,-1.0,2.0,2.0,7.0,13.0,21.0,2.0,0.0,1651093984939043.0,1
676,-1.0,0.0,-4.0,-2.0,10.0,0.0,0.0,1.0,1651093984946197.0,1
677,0.0,-2.0,-2.0,-5.0,-14.0,-10.0,0.0,-2.0,1651093984946197.0,1
678,0.0,1.0,0.0,5.0,41.0,27.0,0.0,1.0,1651093984961347.0,1
679,0.0,1.0,0.0,0.0,-31.0,-15.0,1.0,-1.0,1651093984961347.0,1
680,-1.0,1.0,1.0,1.0,13.0,3.0,-1.0,0.0,1651093984961347.0,1
681,0.0,0.0,1.0,3.0,13.0,-4.0,-1.0,0.0,1651093984961347.0,1
682,0.0,-3.0,-3.0,-3.0,3.0,6.0,0.0,-2.0,1651093984984177.0,1
683,-2.0,-4.0,-2.0,0.0,-6.0,1.0,0.0,1.0,1651093984984177.0,1
684,-1.0,3.0,3.0,-4.0,35.0,2.0,1.0,3.0,1651093984984177.0,1
685,-2.0,-1.0,-1.0,8.0,-1.0,-1.0,1.0,-2.0,1651093984984177.0,1
686,-1.0,-2.0,-4.0,-1.0,-32.0,-5.0,-2.0,0.0,1651093984998947.0,1
687,-2.0,0.0,-5.0,-3.0,-5.0,-10.0,-3.0,-4.0,1651093984998947.0,1
688,0.0,0.0,1.0,0.0,-22.0,-3.0,0.0,1.0,1651093984998947.0,1
689,0.0,2.0,4.0,-4.0,6.0,14.0,2.0,1.0,1651093984998947.0,1
690,1.0,-1.0,-3.0,2.0,-8.0,7.0,1.0,1.0,1651093985021492.0,1
691,-1.0,-2.0,-1.0,-5.0,21.0,-3.0,-3.0,-2.0,1651093985021492.0,1
692,-1.0,-3.0,-6.0,-3.0,10.0,-6.0,-3.0,-1.0,1651093985021492.0,1
693,1.0,0.0,2.0,4.0,-35.0,7.0,4.0,1.0,1651093985021492.0,1
694,1.0,0.0,1.0,6.0,-6.0,0.0,0.0,0.0,1651093985043359.0,1
695,0.0,0.0,-2.0,-2.0,-19.0,-19.0,-1.0,-1.0,1651093985043359.0,1
696,-1.0,-2.0,-3.0,4.0,20.0,3.0,1.0,0.0,1651093985044325.0,1
697,0.0,2.0,5.0,-3.0,22.0,-5.0,-3.0,1.0,1651093985044325.0,1
698,0.0,1.0,-2.0,-8.0,-8.0,0.0,-1.0,0.0,1651093985058411.0,1
699,1.0,0.0,2.0,1.0,-25.0,-1.0,-1.0,0.0,1651093985058411.0,1
700,-2.0,0.0,-4.0,2.0,-11.0,0.0,-1.0,-2.0,1651093985058411.0,1
701,0.0,-1.0,-1.0,0.0,22.0,-1.0,0.0,-1.0,1651093985058411.0,1
702,0.0,-1.0,0.0,-12.0,-11.0,-9.0,-1.0,1.0,1651093985080709.0,1
703,-1.0,1.0,0.0,2.0,1.0,4.0,-1.0,1.0,1651093985080709.0,1
704,-1.0,1.0,-1.0,3.0,-6.0,13.0,0.0,1.0,1651093985081546.0,1
705,-1.0,-1.0,-1.0,5.0,20.0,2.0,-1.0,-1.0,1651093985081546.0,1
706,-2.0,0.0,0.0,-12.0,-40.0,-5.0,2.0,-1.0,1651093985103874.0,1
707,1.0,0.0,0.0,5.0,67.0,4.0,1.0,1.0,1651093985103874.0,1
708,-1.0,0.0,2.0,-4.0,-18.0,-5.0,-3.0,-1.0,1651093985104741.0,1
709,0.0,1.0,-2.0,-11.0,-4.0,-3.0,0.0,0.0,1651093985104741.0,1
710,-1.0,0.0,0.0,12.0,13.0,8.0,-1.0,0.0,1651093985118014.0,1
711,-2.0,0.0,1.0,3.0,-11.0,-5.0,-2.0,-3.0,1651093985118014.0,1
712,0.0,-3.0,-5.0,-16.0,-10.0,-2.0,-2.0,-1.0,1651093985118550.0,1
713,0.0,-3.0,-4.0,1.0,-7.0,2.0,-2.0,-1.0,1651093985118550.0,1
714,-1.0,-3.0,-3.0,1.0,-1.0,-9.0,-1.0,-2.0,1651093985141847.0,1
715,1.0,2.0,5.0,-1.0,22.0,8.0,1.0,2.0,1651093985141847.0,1
716,-1.0,0.0,2.0,2.0,23.0,-3.0,-3.0,-2.0,1651093985141847.0,1
717,-1.0,-2.0,-2.0,-6.0,-20.0,0.0,0.0,-1.0,1651093985141847.0,1
718,-1.0,-1.0,-2.0,6.0,-1.0,-19.0,-2.0,1.0,1651093985163967.0,1
719,-1.0,-2.0,-2.0,-1.0,-11.0,21.0,1.0,0.0,1651093985163967.0,1
720,1.0,1.0,1.0,2.0,-23.0,-5.0,2.0,1.0,1651093985164836.0,1
721,0.0,-1.0,-1.0,-8.0,16.0,-5.0,-3.0,-2.0,1651093985164836.0,1
722,-1.0,1.0,-1.0,-1.0,-1.0,1.0,1.0,0.0,1651093985178317.0,1
723,-2.0,-2.0,0.0,-3.0,-21.0,-10.0,-1.0,-1.0,1651093985178317.0,1
724,0.0,0.0,1.0,-1.0,-9.0,1.0,0.0,-2.0,1651093985178952.0,1
725,-1.0,0.0,-1.0,4.0,20.0,0.0,-1.0,-2.0,1651093985178952.0,1
726,-1.0,1.0,1.0,1.0,-8.0,-1.0,1.0,0.0,1651093985201273.0,1
727,0.0,1.0,-1.0,-4.0,-3.0,-5.0,1.0,-1.0,1651093985201273.0,1
728,-2.0,-1.0,1.0,1.0,-16.0,-7.0,0.0,-1.0,1651093985201273.0,1
729,0.0,-2.0,-3.0,4.0,0.0,0.0,0.0,1.0,1651093985201273.0,1
730,-1.0,-2.0,-2.0,-6.0,32.0,7.0,-1.0,1.0,1651093985223732.0,1
731,0.0,-2.0,-2.0,-2.0,-11.0,-11.0,-1.0,-1.0,1651093985223732.0,1
732,-1.0,1.0,2.0,3.0,1.0,7.0,0.0,-2.0,1651093985224569.0,1
733,-1.0,4.0,4.0,4.0,-16.0,-9.0,-1.0,-1.0,1651093985224569.0,1
734,0.0,-3.0,-2.0,-6.0,15.0,-4.0,-2.0,-1.0,1651093985238897.0,1
735,-1.0,-1.0,0.0,4.0,11.0,12.0,0.0,-1.0,1651093985238897.0,1
736,-2.0,-2.0,-3.0,6.0,8.0,1.0,0.0,1.0,1651093985238897.0,1
737,0.0,0.0,0.0,-4.0,-26.0,-2.0,-1.0,0.0,1651093985238897.0,1
738,0.0,-2.0,0.0,-3.0,-35.0,-7.0,-2.0,-2.0,1651093985260935.0,1
739,-2.0,-1.0,1.0,4.0,8.0,-11.0,-1.0,-1.0,1651093985260935.0,1
740,0.0,-1.0,-3.0,1.0,3.0,5.0,-1.0,-1.0,1651093985260935.0,1
741,0.0,-1.0,-2.0,0.0,18.0,2.0,-1.0,-1.0,1651093985260935.0,1
742,-1.0,-1.0,-1.0,-3.0,0.0,2.0,1.0,1.0,1651093985284069.0,1
743,0.0,-1.0,-2.0,-4.0,-7.0,-6.0,-1.0,-3.0,1651093985284069.0,1
744,-1.0,0.0,1.0,1.0,7.0,0.0,-1.0,-1.0,1651093985284069.0,1
745,-1.0,0.0,0.0,1.0,6.0,2.0,1.0,1.0,1651093985284069.0,1
746,0.0,0.0,3.0,-1.0,-10.0,-1.0,0.0,-2.0,1651093985298409.0,1
747,0.0,1.0,-1.0,0.0,-11.0,0.0,-1.0,0.0,1651093985298409.0,1
748,0.0,-2.0,-7.0,-5.0,-15.0,-1.0,1.0,1.0,1651093985298409.0,1
749,-1.0,2.0,1.0,-8.0,8.0,-8.0,-2.0,-2.0,1651093985298409.0,1
750,1.0,1.0,1.0,11.0,9.0,6.0,0.0,0.0,1651093985320973.0,1
751,-1.0,0.0,-1.0,-5.0,-10.0,-11.0,-2.0,-1.0,1651093985320973.0,1
752,-1.0,-1.0,-2.0,-2.0,6.0,2.0,0.0,-1.0,1651093985320973.0,1
753,-2.0,-3.0,0.0,-4.0,-9.0,-4.0,-1.0,0.0,1651093985320973.0,1
754,-2.0,1.0,0.0,12.0,0.0,22.0,1.0,-1.0,1651093985344486.0,1
755,1.0,0.0,2.0,0.0,-20.0,4.0,1.0,1.0,1651093985344486.0,1
756,1.0,0.0,-1.0,4.0,12.0,-15.0,-1.0,-1.0,1651093985344486.0,1
757,-1.0,-4.0,-2.0,-12.0,-24.0,-5.0,-4.0,-1.0,1651093985344486.0,1
758,-1.0,-1.0,-1.0,0.0,38.0,13.0,1.0,0.0,1651093985357619.0,1
759,0.0,-1.0,-1.0,5.0,5.0,0.0,0.0,1.0,1651093985357619.0,1
760,-2.0,-2.0,0.0,-7.0,-11.0,3.0,1.0,-2.0,1651093985358616.0,1
761,2.0,-1.0,0.0,5.0,15.0,0.0,0.0,0.0,1651093985358616.0,1
762,1.0,1.0,0.0,-8.0,-12.0,-5.0,-2.0,0.0,1651093985381304.0,1
763,1.0,-1.0,-4.0,-4.0,3.0,4.0,-2.0,1.0,1651093985381304.0,1
764,-1.0,1.0,1.0,0.0,5.0,1.0,-1.0,0.0,1651093985381304.0,1
765,-1.0,0.0,-2.0,5.0,22.0,2.0,0.0,-1.0,1651093985381304.0,1
766,-2.0,-1.0,-1.0,-7.0,-19.0,-11.0,1.0,0.0,1651093985403893.0,1
767,0.0,0.0,5.0,1.0,0.0,2.0,-1.0,-1.0,1651093985403893.0,1
768,-2.0,2.0,2.0,1.0,-5.0,-17.0,-1.0,-1.0,1651093985404784.0,1
769,0.0,-2.0,-6.0,2.0,1.0,13.0,2.0,1.0,1651093985404784.0,1
770,-2.0,-2.0,-1.0,-2.0,6.0,4.0,-1.0,-1.0,1651093985417849.0,1
771,-1.0,-1.0,-1.0,-6.0,-27.0,2.0,0.0,-1.0,1651093985417849.0,1
772,2.0,-1.0,2.0,3.0,21.0,-14.0,0.0,0.0,1651093985418715.0,1
773,0.0,1.0,0.0,-9.0,-23.0,22.0,0.0,0.0,1651093985418715.0,1
774,1.0,1.0,-2.0,8.0,31.0,-2.0,-1.0,0.0,1651093985441357.0,1
775,0.0,-2.0,-1.0,-5.0,-23.0,-8.0,-1.0,0.0,1651093985441357.0,1
776,0.0,-2.0,-1.0,0.0,-4.0,3.0,-1.0,-1.0,1651093985441357.0,1
777,0.0,-1.0,-2.0,2.0,17.0,-8.0,-1.0,-1.0,1651093985441357.0,1
778,-1.0,0.0,0.0,-8.0,-54.0,-4.0,-1.0,-2.0,1651093985464161.0,1
779,-1.0,0.0,0.0,3.0,14.0,-3.0,1.0,-1.0,1651093985464161.0,1
780,0.0,-3.0,-6.0,-1.0,21.0,6.0,0.0,-1.0,1651093985464161.0,1
781,-1.0,2.0,3.0,6.0,-7.0,1.0,-1.0,0.0,1651093985464161.0,1
782,-1.0,1.0,2.0,-7.0,6.0,-4.0,0.0,-2.0,1651093985478976.0,1
783,-1.0,1.0,-3.0,0.0,4.0,0.0,-1.0,-2.0,1651093985478976.0,1
784,-1.0,0.0,1.0,-6.0,-13.0,0.0,-1.0,0.0,1651093985478976.0,1
785,0.0,-4.0,-4.0,3.0,5.0,-7.0,0.0,0.0,1651093985478976.0,1
786,-1.0,-2.0,-2.0,4.0,-4.0,6.0,1.0,0.0,1651093985501312.0,1
787,-1.0,0.0,2.0,-2.0,5.0,2.0,0.0,0.0,1651093985501312.0,1
788,-1.0,-2.0,0.0,-6.0,3.0,2.0,-1.0,-1.0,1651093985501312.0,1
789,0.0,-2.0,-2.0,-3.0,-19.0,1.0,1.0,-1.0,1651093985501312.0,1
790,-2.0,-1.0,0.0,21.0,33.0,-3.0,-2.0,-2.0,1651093985524586.0,1
791,0.0,-1.0,2.0,3.0,0.0,-8.0,1.0,-1.0,1651093985524586.0,1
792,0.0,1.0,0.0,-8.0,-13.0,4.0,0.0,1.0,1651093985524586.0,1
793,1.0,2.0,1.0,-2.0,1.0,-8.0,0.0,-1.0,1651093985524586.0,1
794,0.0,-3.0,-2.0,-6.0,2.0,-5.0,0.0,0.0,1651093985538861.0,1
795,2.0,-3.0,-2.0,-15.0,-4.0,0.0,-1.0,0.0,1651093985538861.0,1
796,-1.0,-1.0,1.0,18.0,4.0,19.0,2.0,0.0,1651093985538861.0,1
797,-1.0,2.0,3.0,12.0,-6.0,-2.0,0.0,-1.0,1651093985538861.0,1
798,0.0,-3.0,-7.0,-5.0,4.0,1.0,-1.0,-1.0,1651093985561005.0,1
799,-1.0,1.0,2.0,0.0,7.0,-2.0,-1.0,0.0,1651093985561005.0,1
800,1.0,0.0,1.0,-11.0,-22.0,-3.0,-2.0,0.0,1651093985561005.0,1
801,-1.0,-2.0,-2.0,-1.0,25.0,0.0,-1.0,0.0,1651093985561005.0,1
802,0.0,0.0,2.0,2.0,-20.0,6.0,0.0,1.0,1651093985584223.0,1
803,-1.0,-2.0,-5.0,-4.0,7.0,0.0,-1.0,-1.0,1651093985584223.0,1
804,0.0,-1.0,-1.0,-2.0,-20.0,-1.0,1.0,1.0,1651093985584223.0,0
805,-2.0,0.0,0.0,2.0,10.0,4.0,2.0,-1.0,1651093985584223.0,0
806,0.0,0.0,0.0,-8.0,-4.0,-6.0,-3.0,0.0,1651093985598322.0,0
807,-2.0,-2.0,-3.0,2.0,-10.0,-11.0,-1.0,0.0,1651093985598322.0,0
808,-1.0,0.0,1.0,5.0,14.0,9.0,-1.0,0.0,1651093985606414.0,0
809,0.0,2.0,2.0,0.0,7.0,2.0,0.0,0.0,1651093985606414.0,0
810,-1.0,1.0,-1.0,-8.0,-55.0,-18.0,0.0,-1.0,1651093985620708.0,0
811,-2.0,0.0,-1.0,-3.0,45.0,34.0,1.0,1.0,1651093985620708.0,0
812,-1.0,-1.0,-2.0,4.0,23.0,1.0,1.0,-1.0,1651093985621594.0,0
813,-1.0,-1.0,0.0,0.0,-15.0,-7.0,0.0,1.0,1651093985621594.0,0
814,-1.0,-1.0,1.0,3.0,1.0,-5.0,-3.0,-1.0,1651093985651289.0,0
815,-1.0,-2.0,-4.0,7.0,-16.0,4.0,-1.0,-1.0,1651093985651289.0,0
816,0.0,0.0,4.0,-5.0,-7.0,-15.0,-1.0,-1.0,1651093985651289.0,0
817,0.0,-2.0,-2.0,-4.0,17.0,27.0,2.0,-2.0,1651093985651289.0,0
818,-2.0,2.0,0.0,1.0,1.0,-4.0,-1.0,2.0,1651093985658265.0,0
819,-1.0,-2.0,-1.0,2.0,5.0,-9.0,-2.0,-2.0,1651093985658265.0,0
820,0.0,-2.0,-3.0,4.0,13.0,0.0,0.0,1.0,1651093985666327.0,0
821,-1.0,-1.0,0.0,-9.0,-10.0,-8.0,0.0,-1.0,1651093985666327.0,0
822,-1.0,0.0,-2.0,-2.0,5.0,1.0,0.0,1.0,1651093985680735.0,0
823,0.0,1.0,0.0,-5.0,-14.0,-6.0,0.0,-1.0,1651093985680735.0,0
824,-1.0,1.0,2.0,2.0,17.0,8.0,0.0,0.0,1651093985681620.0,0
825,-2.0,-2.0,1.0,3.0,-24.0,-19.0,-3.0,0.0,1651093985681620.0,0
826,0.0,-1.0,-2.0,-5.0,29.0,15.0,0.0,-1.0,1651093985703873.0,0
827,-1.0,3.0,-1.0,-3.0,6.0,-4.0,0.0,1.0,1651093985703873.0,0
828,-1.0,-1.0,-2.0,-4.0,-22.0,-3.0,0.0,0.0,1651093985704751.0,0
829,1.0,-1.0,-7.0,0.0,3.0,-7.0,-3.0,-1.0,1651093985704751.0,0
830,0.0,2.0,6.0,2.0,-3.0,-1.0,1.0,-1.0,1651093985718035.0,0
831,-1.0,-2.0,-2.0,-2.0,-14.0,-4.0,-2.0,-1.0,1651093985718035.0,0
832,0.0,3.0,0.0,2.0,12.0,-10.0,-1.0,-1.0,1651093985726141.0,0
833,-1.0,0.0,-1.0,3.0,13.0,18.0,2.0,1.0,1651093985726141.0,0
834,0.0,-3.0,-2.0,-5.0,-2.0,-4.0,-2.0,0.0,1651093985740386.0,0
835,0.0,-1.0,2.0,8.0,-9.0,-4.0,0.0,-1.0,1651093985740386.0,0
836,-2.0,-1.0,0.0,-1.0,-13.0,0.0,0.0,-1.0,1651093985741386.0,0
837,-3.0,0.0,-2.0,-1.0,7.0,-7.0,-2.0,-1.0,1651093985741386.0,0
838,0.0,1.0,-1.0,-2.0,0.0,0.0,1.0,0.0,1651093985764598.0,0
839,-1.0,0.0,2.0,0.0,2.0,1.0,-7.0,-1.0,1651093985764598.0,0
840,1.0,2.0,-1.0,-3.0,16.0,-6.0,2.0,0.0,1651093985764598.0,0
841,0.0,0.0,3.0,1.0,-4.0,15.0,4.0,-1.0,1651093985764598.0,0
842,0.0,1.0,1.0,2.0,-11.0,-1.0,-1.0,0.0,1651093985777573.0,0
843,-1.0,-2.0,-1.0,-2.0,-7.0,-3.0,0.0,1.0,1651093985777573.0,0
844,-2.0,-1.0,-5.0,-7.0,24.0,4.0,-5.0,-3.0,1651093985785399.0,0
845,0.0,1.0,-1.0,4.0,9.0,-8.0,-9.0,-2.0,1651093985785399.0,0
846,-2.0,-3.0,-3.0,3.0,1.0,-2.0,0.0,-2.0,1651093985800841.0,0
847,-2.0,2.0,-3.0,-6.0,-4.0,3.0,20.0,0.0,1651093985800841.0,0
848,1.0,0.0,6.0,4.0,-28.0,4.0,-5.0,0.0,1651093985800841.0,0
849,0.0,0.0,1.0,-1.0,9.0,-8.0,-1.0,0.0,1651093985800841.0,0
850,0.0,0.0,-2.0,-4.0,1.0,1.0,-16.0,-2.0,1651093985823857.0,0
851,1.0,0.0,-1.0,3.0,3.0,3.0,16.0,2.0,1651093985823857.0,0
852,-2.0,-2.0,-4.0,-3.0,-16.0,9.0,10.0,1.0,1651093985824869.0,0
853,-1.0,-2.0,0.0,-10.0,-11.0,-7.0,-4.0,-2.0,1651093985824869.0,0
854,-1.0,1.0,-1.0,6.0,14.0,-6.0,-9.0,-2.0,1651093985837704.0,0
855,0.0,1.0,2.0,-3.0,-14.0,-4.0,-3.0,-2.0,1651093985837704.0,0
856,-1.0,0.0,-1.0,0.0,12.0,-2.0,7.0,-1.0,1651093985846334.0,0
857,1.0,2.0,1.0,0.0,-9.0,6.0,-6.0,1.0,1651093985846334.0,0
858,-1.0,-4.0,-2.0,-8.0,-1.0,-2.0,3.0,0.0,1651093985860958.0,0
859,2.0,1.0,1.0,7.0,27.0,1.0,-28.0,-2.0,1651093985860958.0,0
860,-3.0,-4.0,-1.0,6.0,-31.0,-12.0,15.0,-4.0,1651093985860958.0,0
861,-2.0,0.0,-4.0,12.0,-1.0,10.0,30.0,2.0,1651093985860958.0,0
862,0.0,2.0,2.0,-5.0,-11.0,2.0,-10.0,4.0,1651093985882944.0,0
863,1.0,1.0,2.0,-4.0,44.0,0.0,-15.0,-2.0,1651093985882944.0,0
864,-3.0,-2.0,-4.0,-1.0,44.0,-8.0,-69.0,-10.0,1651093985883899.0,2
865,-4.0,-5.0,-2.0,-1.0,7.0,-9.0,47.0,-7.0,1651093985883899.0,2
866,-2.0,-2.0,-4.0,1.0,-34.0,-3.0,-57.0,-6.0,1651093985898211.0,2
867,-2.0,2.0,4.0,-18.0,-20.0,5.0,104.0,13.0,1651093985898211.0,2
868,5.0,5.0,1.0,7.0,-33.0,47.0,-15.0,14.0,1651093985906378.0,2
869,-13.0,-3.0,2.0,10.0,14.0,-15.0,-110.0,-27.0,1651093985906378.0,2
870,-22.0,-9.0,-9.0,-30.0,5.0,-23.0,117.0,-23.0,1651093985928322.0,2
871,6.0,-5.0,-9.0,-13.0,-48.0,-6.0,-128.0,-6.0,1651093985928322.0,2
872,23.0,11.0,9.0,29.0,9.0,-22.0,116.0,39.0,1651093985929163.0,2
873,36.0,12.0,10.0,18.0,8.0,36.0,-35.0,57.0,1651093985929163.0,2
874,-7.0,-1.0,3.0,25.0,31.0,17.0,-113.0,-15.0,1651093985951454.0,2
875,-17.0,-6.0,-6.0,-21.0,-41.0,53.0,-3.0,-16.0,1651093985951454.0,2
876,-7.0,-7.0,-5.0,-17.0,-14.0,-20.0,-41.0,-35.0,1651093985951454.0,2
877,-12.0,4.0,4.0,-1.0,31.0,85.0,111.0,15.0,1651093985951454.0,2
878,-6.0,1.0,0.0,5.0,-5.0,-86.0,-84.0,-16.0,1651093985966765.0,2
879,40.0,6.0,-1.0,-1.0,20.0,-6.0,40.0,34.0,1651093985966765.0,2
880,-22.0,-3.0,-4.0,0.0,-3.0,-58.0,43.0,-5.0,1651093985966765.0,2
881,-8.0,-5.0,-2.0,-2.0,-14.0,-38.0,10.0,-25.0,1651093985966765.0,2
882,13.0,2.0,2.0,-1.0,6.0,7.0,63.0,16.0,1651093985981940.0,2
883,-37.0,-7.0,-5.0,20.0,24.0,-18.0,-57.0,-56.0,1651093985981940.0,2
884,-9.0,-3.0,-6.0,-22.0,-51.0,49.0,5.0,-17.0,1651093985981940.0,2
885,9.0,-2.0,8.0,-8.0,-19.0,-104.0,-15.0,50.0,1651093985981940.0,2
886,-69.0,-5.0,1.0,2.0,6.0,36.0,51.0,-60.0,1651093986004388.0,2
887,68.0,12.0,0.0,-20.0,13.0,-21.0,18.0,73.0,1651093986004388.0,2
888,51.0,5.0,-3.0,17.0,13.0,-2.0,10.0,49.0,1651093986004388.0,2
889,-10.0,-3.0,-5.0,-2.0,16.0,-28.0,5.0,-12.0,1651093986004388.0,2
890,-46.0,-6.0,3.0,7.0,-8.0,59.0,-30.0,-58.0,1651093986026734.0,2
891,-60.0,-18.0,1.0,-2.0,-18.0,30.0,-2.0,-74.0,1651093986026734.0,2
892,4.0,7.0,4.0,-6.0,6.0,-29.0,-38.0,43.0,1651093986026734.0,2
893,29.0,11.0,-1.0,-12.0,-1.0,-4.0,18.0,22.0,1651093986026734.0,2
894,67.0,6.0,-3.0,-3.0,-19.0,-16.0,30.0,96.0,1651093986040854.0,2
895,2.0,1.0,-4.0,20.0,15.0,15.0,-54.0,-20.0,1651093986040854.0,2
896,-44.0,-17.0,-3.0,-4.0,1.0,-85.0,0.0,-65.0,1651093986040854.0,2
897,-80.0,-17.0,2.0,11.0,-4.0,108.0,-14.0,-79.0,1651093986040854.0,2
898,82.0,25.0,8.0,-7.0,2.0,-117.0,25.0,91.0,1651093986064544.0,2
899,17.0,7.0,0.0,5.0,-15.0,24.0,68.0,25.0,1651093986064544.0,2
900,8.0,-4.0,-1.0,4.0,12.0,47.0,-43.0,-3.0,1651093986064544.0,2
901,15.0,-9.0,-6.0,-23.0,-5.0,27.0,1.0,32.0,1651093986064544.0,2
902,-22.0,-6.0,0.0,15.0,15.0,16.0,-64.0,-74.0,1651093986086622.0,2
903,-10.0,1.0,2.0,9.0,8.0,-24.0,-2.0,38.0,1651093986086622.0,2
904,-18.0,-2.0,-2.0,-8.0,-4.0,-69.0,-32.0,-47.0,1651093986086622.0,2
905,-12.0,-2.0,-4.0,13.0,-24.0,-4.0,28.0,-33.0,1651093986086622.0,2
906,-12.0,-7.0,-4.0,-17.0,-15.0,36.0,-12.0,-11.0,1651093986101507.0,2
907,57.0,3.0,-6.0,20.0,29.0,-12.0,-3.0,57.0,1651093986101507.0,2
908,-6.0,4.0,3.0,-14.0,-18.0,-20.0,-20.0,-7.0,1651093986102516.0,2
909,42.0,2.0,-5.0,-4.0,3.0,66.0,45.0,46.0,1651093986102516.0,2
910,-4.0,2.0,4.0,1.0,5.0,-20.0,-12.0,12.0,1651093986131962.0,2
911,-15.0,-1.0,5.0,7.0,18.0,-10.0,26.0,-49.0,1651093986131962.0,2
912,-44.0,-20.0,-9.0,-14.0,-19.0,127.0,-32.0,-46.0,1651093986132126.0,2
913,-18.0,3.0,-5.0,-11.0,2.0,-96.0,-68.0,-9.0,1651093986132126.0,2
914,-19.0,-6.0,8.0,10.0,6.0,17.0,53.0,-3.0,1651093986146374.0,2
915,34.0,16.0,5.0,0.0,-5.0,14.0,39.0,50.0,1651093986146374.0,2
916,17.0,27.0,3.0,2.0,16.0,-61.0,-39.0,73.0,1651093986147280.0,2
917,50.0,-3.0,-5.0,-6.0,-24.0,48.0,-13.0,-27.0,1651093986147280.0,2
918,-49.0,-10.0,-7.0,3.0,2.0,34.0,7.0,-55.0,1651093986160527.0,2
919,33.0,-3.0,6.0,-7.0,9.0,0.0,-43.0,59.0,1651093986160527.0,2
920,-1.0,-15.0,-16.0,5.0,-16.0,4.0,36.0,-38.0,1651093986161427.0,2
921,-32.0,3.0,12.0,-2.0,-19.0,-101.0,-10.0,6.0,1651093986161427.0,2
922,15.0,-8.0,-11.0,-6.0,24.0,17.0,-21.0,20.0,1651093986183815.0,2
923,-44.0,-10.0,-2.0,1.0,-4.0,36.0,1.0,-61.0,1651093986183815.0,2
924,38.0,8.0,0.0,-10.0,-26.0,11.0,39.0,65.0,1651093986183815.0,2
925,-31.0,-7.0,12.0,12.0,21.0,18.0,6.0,-50.0,1651093986183815.0,2
926,67.0,13.0,-5.0,12.0,-10.0,-1.0,36.0,98.0,1651093986207220.0,2
927,-36.0,0.0,-3.0,-5.0,16.0,-115.0,-13.0,-33.0,1651093986207220.0,2
928,-104.0,-23.0,-1.0,9.0,21.0,68.0,-38.0,-99.0,1651093986207220.0,2
929,81.0,13.0,-6.0,-9.0,-7.0,1.0,9.0,70.0,1651093986207220.0,2
930,48.0,-1.0,0.0,2.0,33.0,46.0,0.0,3.0,1651093986221361.0,2
931,-1.0,2.0,-1.0,-10.0,-42.0,-59.0,0.0,-2.0,1651093986221361.0,2
932,26.0,4.0,8.0,-8.0,23.0,41.0,-4.0,-2.0,1651093986221361.0,2
933,-48.0,4.0,2.0,13.0,4.0,35.0,31.0,-27.0,1651093986221361.0,2
934,-12.0,4.0,4.0,-11.0,-2.0,-83.0,11.0,-28.0,1651093986258706.0,2
935,-66.0,-17.0,-22.0,3.0,12.0,32.0,-26.0,-25.0,1651093986258706.0,2
936,25.0,5.0,19.0,3.0,-13.0,-36.0,-6.0,-16.0,1651093986259573.0,2
937,-13.0,3.0,-9.0,-13.0,-7.0,-14.0,-48.0,-19.0,1651093986259573.0,2
938,54.0,-3.0,-21.0,-17.0,-41.0,-21.0,63.0,80.0,1651093986266686.0,2
939,-52.0,-6.0,16.0,10.0,-42.0,55.0,39.0,-77.0,1651093986266686.0,2
940,71.0,12.0,4.0,2.0,31.0,53.0,12.0,111.0,1651093986266686.0,2
941,-3.0,-2.0,8.0,1.0,5.0,-88.0,-23.0,-26.0,1651093986266686.0,2
942,-45.0,-4.0,0.0,-21.0,-3.0,-13.0,-55.0,-46.0,1651093986280880.0,2
943,5.0,-7.0,7.0,2.0,-6.0,27.0,-6.0,-2.0,1651093986280880.0,2
944,-35.0,-5.0,-17.0,16.0,0.0,34.0,36.0,-36.0,1651093986280880.0,2
945,12.0,5.0,7.0,-19.0,-27.0,58.0,-43.0,11.0,1651093986280880.0,2
946,12.0,1.0,-12.0,40.0,30.0,-55.0,42.0,27.0,1651093986312091.0,2
947,-5.0,-8.0,-2.0,13.0,23.0,21.0,-5.0,3.0,1651093986312091.0,2
948,-12.0,-4.0,-16.0,0.0,8.0,49.0,7.0,-12.0,1651093986312091.0,2
949,44.0,-8.0,9.0,-15.0,31.0,-2.0,-3.0,10.0,1651093986312091.0,2
950,-13.0,16.0,17.0,2.0,-16.0,-17.0,-34.0,13.0,1651093986325400.0,2
951,10.0,-4.0,-4.0,-18.0,-45.0,-5.0,38.0,-48.0,1651093986325400.0,2
952,-5.0,9.0,10.0,12.0,28.0,-43.0,40.0,31.0,1651093986333411.0,2
953,17.0,2.0,-6.0,13.0,5.0,-12.0,-7.0,-29.0,1651093986333411.0,2
954,16.0,-4.0,-2.0,-15.0,-11.0,40.0,-25.0,18.0,1651093986341513.0,2
955,-62.0,9.0,6.0,6.0,-1.0,-33.0,-6.0,21.0,1651093986341513.0,2
956,54.0,-7.0,-1.0,-11.0,-14.0,-79.0,-12.0,-51.0,1651093986341513.0,2
957,3.0,-5.0,-6.0,-3.0,17.0,15.0,-47.0,40.0,1651093986341513.0,2
958,4.0,-3.0,1.0,-2.0,-23.0,-11.0,16.0,-25.0,1651093986363867.0,2
959,40.0,5.0,-2.0,5.0,18.0,22.0,-3.0,35.0,1651093986363867.0,2
960,-52.0,-9.0,-8.0,-6.0,-18.0,-47.0,9.0,-22.0,1651093986363867.0,2
961,36.0,7.0,3.0,12.0,-11.0,-17.0,-34.0,45.0,1651093986363867.0,2
962,-7.0,3.0,1.0,-3.0,33.0,39.0,71.0,-15.0,1651093986393661.0,2
963,-7.0,-5.0,1.0,-4.0,-17.0,-7.0,-41.0,-12.0,1651093986393661.0,2
964,-34.0,-12.0,-12.0,-8.0,-9.0,-7.0,3.0,-29.0,1651093986394517.0,2
965,28.0,12.0,0.0,17.0,50.0,16.0,7.0,49.0,1651093986394517.0,2
966,-60.0,-12.0,-4.0,-9.0,-55.0,23.0,-15.0,-77.0,1651093986400534.0,2
967,51.0,21.0,28.0,-25.0,7.0,27.0,20.0,47.0,1651093986400534.0,2
968,15.0,6.0,11.0,29.0,3.0,-30.0,-17.0,5.0,1651093986401500.0,2
969,-45.0,-26.0,-27.0,-8.0,-11.0,-19.0,18.0,-11.0,1651093986401500.0,2
970,-5.0,19.0,8.0,6.0,23.0,106.0,-11.0,-11.0,1651093986423950.0,2
971,1.0,-6.0,-18.0,0.0,65.0,48.0,33.0,5.0,1651093986423950.0,2
972,9.0,-5.0,-1.0,-7.0,-48.0,-34.0,-39.0,-1.0,1651093986424788.0,2
973,7.0,1.0,-1.0,-1.0,-8.0,11.0,49.0,37.0,1651093986424788.0,2
974,-9.0,1.0,11.0,3.0,-2.0,20.0,-11.0,-5.0,1651093986446223.0,2
975,-8.0,4.0,-5.0,0.0,-28.0,-58.0,-32.0,-1.0,1651093986446223.0,2
976,-10.0,-9.0,1.0,-18.0,60.0,20.0,0.0,-16.0,1651093986447079.0,2
977,-8.0,-3.0,-2.0,10.0,-25.0,-20.0,4.0,-28.0,1651093986447079.0,2
978,30.0,-3.0,1.0,-7.0,-22.0,73.0,-10.0,25.0,1651093986461431.0,2
979,42.0,0.0,-9.0,7.0,38.0,-49.0,9.0,59.0,1651093986461431.0,2
980,-4.0,2.0,6.0,3.0,-22.0,59.0,-12.0,-1.0,1651093986461431.0,2
981,-1.0,8.0,1.0,-5.0,1.0,-79.0,36.0,-2.0,1651093986461431.0,2
982,-32.0,-19.0,-5.0,11.0,20.0,20.0,-15.0,-33.0,1651093986484254.0,2
983,-10.0,-1.0,1.0,-12.0,-30.0,42.0,-11.0,-38.0,1651093986484254.0,2
984,-42.0,-6.0,-10.0,-5.0,15.0,35.0,-6.0,-36.0,1651093986485255.0,2
985,59.0,18.0,-2.0,5.0,5.0,-5.0,15.0,65.0,1651093986485255.0,2
986,7.0,-1.0,-4.0,-4.0,-10.0,-56.0,-40.0,-19.0,1651093986506341.0,2
987,25.0,-1.0,24.0,5.0,-2.0,-9.0,35.0,49.0,1651093986506341.0,2
988,-2.0,0.0,-21.0,-8.0,-21.0,49.0,-34.0,-3.0,1651093986507219.0,2
989,-85.0,-7.0,5.0,-9.0,-26.0,68.0,47.0,-67.0,1651093986507219.0,2
990,28.0,17.0,10.0,4.0,7.0,-65.0,54.0,-3.0,1651093986520304.0,2
991,37.0,0.0,-12.0,0.0,-25.0,-15.0,-20.0,17.0,1651093986520304.0,2
992,-1.0,-2.0,-8.0,-7.0,6.0,-12.0,-33.0,23.0,1651093986528313.0,2
993,-17.0,-11.0,16.0,2.0,8.0,40.0,-14.0,-22.0,1651093986528313.0,2
994,-18.0,-8.0,11.0,0.0,-16.0,7.0,25.0,9.0,1651093986543820.0,2
995,-19.0,-4.0,-45.0,-2.0,-7.0,73.0,-8.0,-49.0,1651093986543820.0,2
996,27.0,-5.0,42.0,-11.0,-10.0,1.0,18.0,34.0,1651093986544676.0,2
997,-12.0,7.0,-11.0,2.0,-21.0,21.0,-12.0,-34.0,1651093986544676.0,2
998,-19.0,-13.0,-18.0,4.0,53.0,-36.0,-22.0,1.0,1651093986565945.0,2
999,3.0,12.0,22.0,3.0,-20.0,-1.0,16.0,3.0,1651093986565945.0,2
1000,44.0,9.0,-22.0,-2.0,-4.0,-23.0,3.0,43.0,1651093986566799.0,2
1001,-32.0,-20.0,-11.0,-16.0,4.0,2.0,-41.0,-54.0,1651093986566799.0,2
1002,-43.0,-34.0,-8.0,-6.0,-28.0,11.0,-9.0,-44.0,1651093986580898.0,2
1003,26.0,26.0,21.0,9.0,17.0,-22.0,24.0,42.0,1651093986580898.0,2
1004,43.0,35.0,17.0,16.0,6.0,81.0,100.0,42.0,1651093986588973.0,2
1005,8.0,7.0,-5.0,-14.0,-26.0,16.0,-16.0,11.0,1651093986588973.0,2
1006,-1.0,-6.0,-6.0,1.0,-4.0,-50.0,-23.0,12.0,1651093986603841.0,2
1007,-43.0,-25.0,-20.0,-8.0,-6.0,8.0,-72.0,-59.0,1651093986603841.0,2
1008,17.0,-2.0,38.0,13.0,9.0,-12.0,19.0,42.0,1651093986604108.0,2
1009,-10.0,2.0,-24.0,-5.0,-10.0,-25.0,-6.0,-39.0,1651093986604108.0,2
1010,17.0,2.0,-6.0,-10.0,-9.0,-11.0,-36.0,50.0,1651093986626559.0,2
1011,-10.0,-2.0,30.0,3.0,24.0,24.0,30.0,-19.0,1651093986626559.0,2
1012,-10.0,13.0,-14.0,6.0,-4.0,-70.0,-16.0,-20.0,1651093986626559.0,2
1013,19.0,-2.0,-11.0,0.0,20.0,23.0,23.0,31.0,1651093986626559.0,2
1014,-3.0,-7.0,5.0,4.0,-29.0,-24.0,-1.0,-12.0,1651093986640713.0,2
1015,-14.0,-13.0,-38.0,8.0,17.0,-48.0,-24.0,-29.0,1651093986640713.0,2
1016,1.0,10.0,16.0,-11.0,-18.0,19.0,7.0,11.0,1651093986648734.0,2
1017,-20.0,-16.0,-5.0,20.0,75.0,55.0,16.0,-14.0,1651093986648734.0,2
1018,2.0,4.0,-10.0,-14.0,19.0,18.0,9.0,0.0,1651093986663893.0,2
1019,-12.0,13.0,22.0,17.0,-31.0,-10.0,4.0,20.0,1651093986663893.0,2
1020,22.0,-11.0,-6.0,4.0,-1.0,-48.0,25.0,-4.0,1651093986663893.0,2
1021,-20.0,9.0,-15.0,-30.0,-14.0,21.0,-32.0,-28.0,1651093986663893.0,2
1022,-2.0,6.0,33.0,17.0,7.0,9.0,4.0,-7.0,1651093986686299.0,2
1023,-1.0,8.0,-33.0,-7.0,-3.0,-44.0,1.0,35.0,1651093986686299.0,2
1024,-15.0,-15.0,-8.0,3.0,3.0,-90.0,-10.0,7.0,1651093986687157.0,2
1025,-28.0,-13.0,40.0,7.0,-28.0,2.0,0.0,-27.0,1651093986687157.0,2
1026,69.0,29.0,3.0,9.0,32.0,63.0,37.0,72.0,1651093986700474.0,2
1027,24.0,-12.0,-3.0,-18.0,-6.0,-22.0,-51.0,-20.0,1651093986700474.0,2
1028,-9.0,2.0,11.0,-3.0,-7.0,0.0,1.0,4.0,1651093986708490.0,2
1029,17.0,-10.0,-21.0,-4.0,-38.0,-31.0,7.0,-3.0,1651093986708490.0,2
1030,-53.0,-9.0,-11.0,-7.0,-33.0,12.0,-30.0,-58.0,1651093986723644.0,2
1031,-20.0,-17.0,-28.0,-18.0,9.0,9.0,-1.0,-29.0,1651093986723644.0,2
1032,29.0,-9.0,-46.0,-9.0,5.0,4.0,-8.0,37.0,1651093986724486.0,2
1033,6.0,12.0,71.0,17.0,22.0,-9.0,33.0,6.0,1651093986724486.0,2
1034,0.0,12.0,4.0,17.0,21.0,44.0,-5.0,-5.0,1651093986747091.0,2
1035,19.0,4.0,15.0,8.0,11.0,-4.0,13.0,19.0,1651093986747091.0,2
1036,-45.0,-4.0,-9.0,3.0,-5.0,41.0,-20.0,-59.0,1651093986747091.0,2
1037,2.0,-1.0,-41.0,-22.0,-10.0,-48.0,-27.0,5.0,1651093986747091.0,2
1038,14.0,7.0,13.0,-10.0,4.0,10.0,66.0,48.0,1651093986760230.0,2
1039,-17.0,-21.0,-37.0,7.0,-1.0,-60.0,-8.0,-27.0,1651093986760230.0,2
1040,-11.0,14.0,51.0,4.0,-17.0,-70.0,-29.0,-26.0,1651093986768214.0,2
1041,25.0,-9.0,9.0,7.0,-9.0,-43.0,-6.0,54.0,1651093986768214.0,2
1042,2.0,12.0,-4.0,-10.0,-13.0,-39.0,-31.0,-24.0,1651093986783966.0,2
1043,-21.0,1.0,10.0,-7.0,3.0,-21.0,31.0,6.0,1651093986783966.0,2
1044,9.0,-5.0,-4.0,11.0,43.0,36.0,-4.0,-32.0,1651093986783966.0,2
1045,-23.0,-9.0,4.0,11.0,-6.0,4.0,-32.0,-5.0,1651093986783966.0,2
1046,-10.0,8.0,-8.0,-6.0,1.0,0.0,15.0,-9.0,1651093986806231.0,2
1047,6.0,-2.0,1.0,18.0,-7.0,10.0,-15.0,1.0,1651093986806231.0,2
1048,-7.0,-19.0,-49.0,-15.0,2.0,-3.0,13.0,5.0,1651093986807093.0,2
1049,17.0,17.0,56.0,15.0,28.0,0.0,-4.0,0.0,1651093986807093.0,2
1050,6.0,-8.0,-25.0,-35.0,9.0,32.0,-2.0,0.0,1651093986820244.0,2
1051,2.0,10.0,13.0,15.0,-32.0,20.0,11.0,-15.0,1651093986820244.0,2
1052,6.0,-2.0,-25.0,4.0,1.0,-70.0,-2.0,3.0,1651093986829057.0,2
1053,-19.0,-9.0,5.0,-3.0,38.0,-18.0,-15.0,-12.0,1651093986829057.0,2
1054,-4.0,-6.0,1.0,14.0,-13.0,-19.0,31.0,-17.0,1651093986844431.0,2
1055,10.0,12.0,32.0,-12.0,15.0,24.0,-18.0,11.0,1651093986844431.0,2
1056,4.0,-1.0,-4.0,-1.0,6.0,38.0,12.0,15.0,1651093986844431.0,2
1057,0.0,3.0,-37.0,6.0,-25.0,2.0,-27.0,-1.0,1651093986844431.0,2
1058,-25.0,-19.0,13.0,7.0,11.0,-38.0,-3.0,-34.0,1651093986866662.0,2
1059,10.0,11.0,17.0,-16.0,-10.0,18.0,24.0,-2.0,1651093986866662.0,2
1060,18.0,14.0,-10.0,-5.0,-1.0,5.0,10.0,38.0,1651093986866662.0,2
1061,-33.0,7.0,-12.0,6.0,-2.0,-15.0,-34.0,-55.0,1651093986866662.0,2
1062,25.0,-2.0,40.0,-6.0,4.0,-60.0,10.0,58.0,1651093986880801.0,2
1063,-12.0,-17.0,-27.0,-1.0,21.0,-21.0,-12.0,-10.0,1651093986880801.0,2
1064,-17.0,8.0,34.0,-3.0,-21.0,34.0,3.0,-19.0,1651093986888811.0,2
1065,14.0,-7.0,-34.0,-17.0,-9.0,14.0,9.0,17.0,1651093986888811.0,2
1066,-11.0,-12.0,16.0,16.0,6.0,2.0,-47.0,-22.0,1651093986912045.0,2
1067,-34.0,0.0,7.0,18.0,-9.0,29.0,-22.0,-29.0,1651093986912045.0,2
1068,43.0,5.0,-12.0,-17.0,-36.0,-57.0,9.0,52.0,1651093986912045.0,2
1069,12.0,14.0,17.0,-5.0,-21.0,-52.0,34.0,-3.0,1651093986912045.0,2
1070,-17.0,-2.0,-23.0,-13.0,-10.0,6.0,-35.0,7.0,1651093986926351.0,2
1071,18.0,2.0,0.0,25.0,9.0,-7.0,34.0,27.0,1651093986926351.0,2
1072,-41.0,-15.0,10.0,-9.0,25.0,117.0,-20.0,-46.0,1651093986927221.0,2
1073,-2.0,1.0,-10.0,1.0,-18.0,-20.0,5.0,-35.0,1651093986927221.0,2
1074,67.0,16.0,-12.0,-1.0,12.0,-22.0,30.0,91.0,1651093986949554.0,2
1075,-23.0,-14.0,-25.0,-10.0,18.0,12.0,-28.0,-34.0,1651093986949554.0,2
1076,-4.0,-17.0,12.0,7.0,19.0,19.0,33.0,-22.0,1651093986949554.0,2
1077,-51.0,25.0,27.0,16.0,3.0,101.0,-23.0,-16.0,1651093986949554.0,2
1078,29.0,5.0,-21.0,-9.0,16.0,16.0,49.0,58.0,1651093986963886.0,2
1079,95.0,-11.0,10.0,-7.0,7.0,36.0,30.0,35.0,1651093986963886.0,2
1080,-6.0,8.0,-16.0,5.0,-28.0,43.0,-58.0,-21.0,1651093986964753.0,2
1081,4.0,-3.0,-7.0,-18.0,-12.0,-18.0,49.0,47.0,1651093986964753.0,2
1082,-27.0,-19.0,13.0,15.0,-25.0,-24.0,-23.0,-71.0,1651093986986231.0,2
1083,-33.0,20.0,-10.0,-3.0,13.0,-85.0,-5.0,8.0,1651093986986231.0,2
1084,-17.0,-11.0,47.0,8.0,12.0,5.0,-23.0,-8.0,1651093986987262.0,2
1085,13.0,-7.0,-32.0,-23.0,27.0,15.0,3.0,0.0,1651093986987262.0,2
1086,-19.0,16.0,13.0,21.0,-42.0,7.0,-32.0,-34.0,1651093987008641.0,2
1087,17.0,-9.0,-22.0,-5.0,-35.0,-81.0,41.0,36.0,1651093987008641.0,2
1088,13.0,-14.0,-61.0,-5.0,19.0,4.0,-8.0,10.0,1651093987009425.0,2
1089,-19.0,8.0,64.0,12.0,-15.0,-36.0,-7.0,-16.0,1651093987009425.0,2
1090,23.0,-11.0,-25.0,-21.0,22.0,15.0,-20.0,14.0,1651093987040091.0,2
1091,-4.0,3.0,-11.0,-36.0,1.0,47.0,32.0,13.0,1651093987040091.0,2
1092,3.0,10.0,2.0,24.0,-20.0,-9.0,19.0,-2.0,1651093987040923.0,2
1093,-20.0,-5.0,2.0,17.0,29.0,-55.0,37.0,-3.0,1651093987040923.0,2
1094,-23.0,1.0,0.0,0.0,-31.0,87.0,-64.0,-42.0,1651093987045910.0,2
1095,4.0,-5.0,5.0,0.0,-28.0,-70.0,-21.0,-3.0,1651093987045910.0,2
1096,18.0,17.0,9.0,-16.0,50.0,4.0,31.0,30.0,1651093987047939.0,2
1097,-3.0,-1.0,-7.0,-4.0,-3.0,2.0,8.0,21.0,1651093987047939.0,2
1098,-38.0,-3.0,19.0,3.0,3.0,-71.0,26.0,-48.0,1651093987068208.0,2
1099,31.0,-6.0,-11.0,-45.0,-10.0,64.0,-5.0,-10.0,1651093987068208.0,2
1100,-31.0,-1.0,4.0,28.0,-7.0,18.0,-15.0,-39.0,1651093987070202.0,2
1101,40.0,-10.0,-3.0,23.0,6.0,70.0,-13.0,66.0,1651093987070202.0,2
1102,-28.0,2.0,-15.0,-25.0,6.0,-37.0,3.0,-8.0,1651093987082393.0,2
1103,30.0,-13.0,-53.0,22.0,7.0,104.0,11.0,12.0,1651093987082393.0,2
1104,3.0,21.0,77.0,-6.0,20.0,-24.0,-12.0,-3.0,1651093987091811.0,2
1105,4.0,0.0,-4.0,-13.0,-30.0,42.0,-9.0,-33.0,1651093987091811.0,2
1106,7.0,-6.0,-15.0,-7.0,-14.0,85.0,-17.0,26.0,1651093987106850.0,2
1107,-8.0,-3.0,-20.0,-6.0,28.0,-45.0,8.0,28.0,1651093987106850.0,2
1108,-15.0,-6.0,21.0,19.0,-60.0,-20.0,6.0,-13.0,1651093987107723.0,2
1109,-10.0,-2.0,-18.0,-6.0,-16.0,-39.0,-26.0,-29.0,1651093987107723.0,2
1110,44.0,-5.0,-21.0,1.0,30.0,37.0,13.0,52.0,1651093987128915.0,2
1111,-60.0,-3.0,23.0,10.0,-4.0,-5.0,-77.0,-101.0,1651093987128915.0,2
1112,52.0,2.0,-15.0,-11.0,-10.0,-14.0,57.0,51.0,1651093987129964.0,2
1113,-52.0,0.0,-6.0,-43.0,-12.0,50.0,29.0,19.0,1651093987129964.0,2
1114,44.0,-13.0,-21.0,101.0,31.0,-46.0,19.0,-34.0,1651093987143212.0,2
1115,-26.0,-3.0,44.0,-13.0,7.0,-28.0,-25.0,-32.0,1651093987143212.0,2
1116,23.0,15.0,14.0,-2.0,3.0,29.0,-24.0,47.0,1651093987159149.0,2
1117,37.0,-2.0,-28.0,-2.0,-9.0,51.0,-4.0,8.0,1651093987159149.0,2
1118,-25.0,-11.0,-5.0,-35.0,-7.0,-22.0,11.0,-12.0,1651093987166290.0,2
1119,-14.0,3.0,8.0,27.0,-11.0,36.0,-19.0,28.0,1651093987166290.0,2
1120,-20.0,-6.0,-13.0,-28.0,-8.0,42.0,20.0,-38.0,1651093987168127.0,2
1121,-9.0,7.0,38.0,18.0,53.0,57.0,9.0,-2.0,1651093987168127.0,2
1122,7.0,8.0,-54.0,-2.0,-10.0,58.0,-5.0,41.0,1651093987189253.0,2
1123,30.0,9.0,65.0,11.0,-19.0,-52.0,17.0,11.0,1651093987189253.0,2
1124,-26.0,-14.0,-44.0,-13.0,36.0,10.0,-26.0,-20.0,1651093987190253.0,2
1125,17.0,-12.0,2.0,5.0,-39.0,-84.0,-8.0,4.0,1651093987190253.0,2
1126,-54.0,-2.0,4.0,-5.0,7.0,-56.0,13.0,-48.0,1651093987211692.0,2
1127,65.0,-3.0,-29.0,-13.0,-27.0,3.0,14.0,74.0,1651093987211692.0,2
1128,11.0,8.0,-2.0,-12.0,21.0,20.0,1.0,-5.0,1651093987212541.0,2
1129,-5.0,2.0,9.0,3.0,-70.0,-35.0,-39.0,-4.0,1651093987212541.0,2
1130,-27.0,11.0,5.0,-3.0,-26.0,-46.0,14.0,-18.0,1651093987226822.0,2
1131,-9.0,-2.0,20.0,-5.0,27.0,20.0,18.0,-7.0,1651093987226822.0,2
1132,-27.0,-6.0,-17.0,12.0,-2.0,-40.0,-12.0,32.0,1651093987227674.0,2
1133,94.0,-5.0,-12.0,-27.0,27.0,-4.0,18.0,-24.0,1651093987227674.0,2
1134,0.0,13.0,13.0,18.0,-1.0,45.0,-13.0,5.0,1651093987257092.0,2
1135,-18.0,6.0,5.0,-8.0,-11.0,-5.0,-8.0,-33.0,1651093987257092.0,2
1136,-24.0,-18.0,-4.0,9.0,-11.0,-89.0,14.0,3.0,1651093987257993.0,2
1137,0.0,-5.0,-38.0,-17.0,-6.0,9.0,-7.0,10.0,1651093987257993.0,2
1138,20.0,2.0,19.0,-16.0,-10.0,-82.0,12.0,13.0,1651093987261979.0,2
1139,-34.0,-4.0,-12.0,16.0,27.0,44.0,-15.0,-25.0,1651093987261979.0,2
1140,-7.0,-7.0,24.0,-14.0,28.0,36.0,1.0,-26.0,1651093987270824.0,2
1141,15.0,10.0,4.0,28.0,31.0,58.0,21.0,19.0,1651093987270824.0,2
1142,3.0,16.0,51.0,-10.0,-81.0,6.0,-13.0,-9.0,1651093987287159.0,2
1143,-28.0,9.0,-39.0,0.0,21.0,-63.0,11.0,-16.0,1651093987287159.0,2
1144,32.0,-17.0,-29.0,-17.0,-56.0,-25.0,-25.0,6.0,1651093987287993.0,2
1145,15.0,-11.0,0.0,8.0,28.0,-38.0,9.0,-20.0,1651093987287993.0,2
1146,22.0,7.0,23.0,11.0,62.0,20.0,-2.0,55.0,1651093987316702.0,2
1147,-20.0,-11.0,1.0,-8.0,-11.0,26.0,27.0,0.0,1651093987316702.0,2
1148,5.0,23.0,-1.0,23.0,8.0,37.0,15.0,-8.0,1651093987317550.0,2
1149,-5.0,4.0,23.0,-2.0,-11.0,-65.0,-19.0,-11.0,1651093987317550.0,2
1150,-25.0,-8.0,-11.0,-2.0,5.0,-46.0,-48.0,-27.0,1651093987322569.0,2
1151,-11.0,-4.0,-5.0,10.0,-12.0,-26.0,68.0,13.0,1651093987322569.0,2
1152,-3.0,-6.0,-21.0,3.0,19.0,13.0,31.0,-9.0,1651093987331806.0,2
1153,-15.0,2.0,43.0,22.0,19.0,-29.0,-18.0,0.0,1651093987331806.0,2
1154,-1.0,1.0,-15.0,-28.0,6.0,65.0,1.0,4.0,1651093987346828.0,2
1155,10.0,1.0,9.0,-2.0,-27.0,15.0,-10.0,2.0,1651093987346828.0,2
1156,-10.0,-9.0,-26.0,-4.0,9.0,-72.0,-8.0,6.0,1651093987347714.0,2
1157,-21.0,2.0,13.0,1.0,8.0,17.0,1.0,-1.0,1651093987347714.0,2
1158,2.0,-9.0,-14.0,-11.0,14.0,37.0,15.0,-2.0,1651093987369071.0,2
1159,10.0,-7.0,7.0,5.0,-6.0,-9.0,-17.0,1.0,1651093987369071.0,2
1160,-9.0,16.0,33.0,-27.0,-50.0,-9.0,8.0,7.0,1651093987370071.0,2
1161,-5.0,-7.0,-8.0,19.0,5.0,26.0,-2.0,-3.0,1651093987370071.0,2
1162,27.0,6.0,-8.0,8.0,-9.0,13.0,11.0,26.0,1651093987391591.0,2
1163,-24.0,-7.0,-4.0,-9.0,11.0,-65.0,-32.0,-30.0,1651093987391591.0,2
1164,-3.0,-4.0,1.0,-24.0,15.0,-15.0,-27.0,10.0,1651093987392420.0,2
1165,8.0,0.0,-20.0,7.0,-47.0,-12.0,14.0,15.0,1651093987392420.0,2
1166,-5.0,0.0,14.0,5.0,-24.0,-32.0,-4.0,-16.0,1651093987406427.0,2
1167,10.0,4.0,1.0,9.0,48.0,61.0,10.0,15.0,1651093987406427.0,2
1168,-12.0,-4.0,18.0,10.0,23.0,-20.0,-9.0,-17.0,1651093987407383.0,2
1169,3.0,1.0,-20.0,-17.0,15.0,24.0,13.0,8.0,1651093987407383.0,2
1170,1.0,-4.0,-11.0,-7.0,15.0,-14.0,-20.0,-18.0,1651093987429574.0,2
1171,-3.0,5.0,11.0,-25.0,-46.0,32.0,8.0,4.0,1651093987429574.0,2
1172,-3.0,-7.0,2.0,21.0,-35.0,-81.0,-6.0,-15.0,1651093987430608.0,2
1173,-6.0,-5.0,-24.0,12.0,59.0,17.0,7.0,2.0,1651093987430608.0,2
1174,4.0,2.0,26.0,-2.0,-10.0,0.0,11.0,3.0,1651093987442907.0,2
1175,1.0,5.0,2.0,-5.0,-5.0,-50.0,-30.0,-5.0,1651093987442907.0,2
1176,-1.0,2.0,0.0,2.0,-11.0,28.0,-4.0,1.0,1651093987451583.0,2
1177,-3.0,-3.0,-26.0,-8.0,-3.0,-26.0,-6.0,2.0,1651093987451583.0,2
1178,-3.0,-2.0,12.0,-10.0,-3.0,2.0,7.0,0.0,1651093987466942.0,2
1179,0.0,-2.0,-11.0,-2.0,-23.0,9.0,-5.0,5.0,1651093987466942.0,2
1180,-1.0,8.0,-7.0,5.0,4.0,17.0,-2.0,-11.0,1651093987467803.0,2
1181,-2.0,-3.0,-1.0,1.0,4.0,-19.0,3.0,2.0,1651093987467803.0,2
1182,-2.0,-7.0,-14.0,-3.0,-5.0,-15.0,-6.0,-8.0,1651093987489117.0,2
1183,4.0,3.0,17.0,5.0,-44.0,5.0,5.0,5.0,1651093987489117.0,2
1184,3.0,1.0,-3.0,14.0,23.0,-2.0,5.0,3.0,1651093987490122.0,2
1185,-6.0,-3.0,-2.0,-12.0,-38.0,-13.0,-7.0,-4.0,1651093987490122.0,2
1186,2.0,-1.0,11.0,20.0,28.0,36.0,10.0,2.0,1651093987502722.0,2
1187,1.0,-2.0,-16.0,9.0,-33.0,2.0,-7.0,-4.0,1651093987502722.0,2
1188,0.0,-3.0,13.0,1.0,9.0,76.0,-15.0,2.0,1651093987511470.0,2
1189,-4.0,3.0,1.0,-9.0,-9.0,-24.0,10.0,-3.0,1651093987511470.0,2
1190,-2.0,-10.0,-13.0,-13.0,-12.0,1.0,0.0,-2.0,1651093987526574.0,2
1191,-1.0,5.0,5.0,3.0,48.0,17.0,2.0,3.0,1651093987526574.0,2
1192,4.0,1.0,-4.0,3.0,26.0,16.0,-7.0,0.0,1651093987527414.0,2
1193,-1.0,2.0,6.0,6.0,10.0,14.0,4.0,3.0,1651093987527414.0,2
1194,-1.0,-1.0,-4.0,-3.0,-27.0,-11.0,1.0,-4.0,1651093987550697.0,2
1195,-1.0,-1.0,0.0,-1.0,42.0,0.0,-7.0,-2.0,1651093987550697.0,2
1196,1.0,-2.0,2.0,-1.0,-33.0,11.0,2.0,1.0,1651093987551541.0,2
1197,-4.0,-4.0,-5.0,-4.0,-29.0,-12.0,-4.0,0.0,1651093987551541.0,2
1198,1.0,-1.0,-12.0,4.0,71.0,-11.0,8.0,0.0,1651093987562861.0,2
1199,-1.0,5.0,30.0,4.0,21.0,2.0,-1.0,1.0,1651093987562861.0,2
1200,-3.0,-1.0,-6.0,-2.0,36.0,-18.0,-2.0,-4.0,1651093987571938.0,2
1201,-3.0,-2.0,-3.0,-6.0,-71.0,4.0,-2.0,-2.0,1651093987571938.0,2
1202,0.0,0.0,-5.0,6.0,10.0,-10.0,2.0,1.0,1651093987594321.0,2
1203,1.0,0.0,-6.0,-3.0,-32.0,5.0,0.0,0.0,1651093987594321.0,2
1204,2.0,1.0,2.0,1.0,36.0,-14.0,-1.0,2.0,1651093987595221.0,2
1205,-1.0,-1.0,-3.0,-10.0,-19.0,-5.0,-6.0,-2.0,1651093987595221.0,2
1206,-2.0,-1.0,2.0,8.0,82.0,27.0,0.0,0.0,1651093987608491.0,2
1207,2.0,0.0,1.0,2.0,-21.0,9.0,-7.0,-2.0,1651093987608491.0,2
1208,0.0,-2.0,1.0,-1.0,-63.0,-20.0,1.0,0.0,1651093987610512.0,2
1209,-3.0,-5.0,-12.0,-6.0,53.0,1.0,-2.0,0.0,1651093987610512.0,2
1210,2.0,5.0,20.0,1.0,-54.0,4.0,3.0,0.0,1651093987622667.0,2
1211,-3.0,-2.0,-5.0,2.0,4.0,-4.0,-1.0,0.0,1651093987622667.0,2
1212,-4.0,-3.0,-10.0,-8.0,7.0,8.0,-2.0,-3.0,1651093987631794.0,2
1213,0.0,1.0,12.0,2.0,-38.0,-2.0,0.0,0.0,1651093987631794.0,2
1214,-1.0,-3.0,-9.0,-5.0,-21.0,-6.0,-4.0,-1.0,1651093987654298.0,2
1215,2.0,5.0,-3.0,5.0,100.0,11.0,0.0,0.0,1651093987654298.0,2
1216,-1.0,-2.0,-10.0,-3.0,-59.0,-10.0,-1.0,-2.0,1651093987655136.0,2
1217,-2.0,0.0,15.0,1.0,11.0,0.0,0.0,0.0,1651093987655136.0,2
1218,0.0,1.0,0.0,-4.0,-6.0,-8.0,0.0,0.0,1651093987668440.0,2
1219,0.0,-5.0,-5.0,-11.0,-83.0,-6.0,-1.0,-2.0,1651093987668440.0,2
1220,-1.0,-5.0,-7.0,-3.0,6.0,-4.0,0.0,-1.0,1651093987670435.0,2
1221,0.0,3.0,4.0,16.0,103.0,14.0,3.0,3.0,1651093987670435.0,2
1222,-1.0,-4.0,-13.0,-3.0,-30.0,5.0,-2.0,-1.0,1651093987682483.0,2
1223,0.0,0.0,10.0,2.0,-10.0,3.0,3.0,-1.0,1651093987682483.0,2
1224,-1.0,3.0,3.0,-9.0,-13.0,-4.0,-4.0,-3.0,1651093987690943.0,2
1225,-1.0,3.0,5.0,5.0,-49.0,-18.0,-5.0,0.0,1651093987690943.0,2
1226,0.0,-3.0,-3.0,2.0,35.0,15.0,-2.0,-2.0,1651093987706284.0,2
1227,-2.0,-4.0,-12.0,-5.0,-24.0,3.0,0.0,-1.0,1651093987706284.0,2
1228,0.0,-1.0,0.0,2.0,18.0,-4.0,2.0,0.0,1651093987708116.0,2
1229,0.0,-7.0,-3.0,6.0,-39.0,4.0,2.0,1.0,1651093987708116.0,2
1230,0.0,5.0,-1.0,-7.0,34.0,-5.0,1.0,-2.0,1651093987729274.0,2
1231,-2.0,3.0,8.0,4.0,27.0,0.0,3.0,0.0,1651093987729274.0,2
1232,0.0,0.0,-1.0,5.0,-12.0,-4.0,-3.0,-2.0,1651093987730274.0,2
1233,-1.0,-2.0,-7.0,-7.0,32.0,-2.0,1.0,-1.0,1651093987730274.0,2
1234,0.0,-2.0,0.0,5.0,-37.0,-10.0,-2.0,-1.0,1651093987742452.0,2
1235,-1.0,0.0,1.0,-7.0,6.0,9.0,0.0,0.0,1651093987742452.0,2
1236,-1.0,-2.0,-1.0,0.0,-61.0,-12.0,-2.0,0.0,1651093987751596.0,2
1237,-1.0,-1.0,-5.0,-6.0,45.0,-11.0,-4.0,-3.0,1651093987751596.0,2
1238,0.0,2.0,4.0,10.0,-8.0,5.0,5.0,2.0,1651093987765746.0,2
1239,1.0,2.0,5.0,2.0,9.0,-7.0,-3.0,0.0,1651093987765746.0,2
1240,0.0,-5.0,-1.0,-3.0,-10.0,9.0,1.0,-1.0,1651093987767741.0,2
1241,-3.0,-1.0,-6.0,-7.0,16.0,-3.0,-3.0,-2.0,1651093987767741.0,2
1242,-2.0,-4.0,-1.0,-12.0,-11.0,-9.0,-2.0,-2.0,1651093987789544.0,2
1243,0.0,-1.0,-2.0,3.0,-43.0,-2.0,0.0,0.0,1651093987789544.0,2
1244,0.0,1.0,-3.0,7.0,-17.0,-4.0,2.0,1.0,1651093987789717.0,2
1245,1.0,3.0,0.0,2.0,-20.0,8.0,1.0,1.0,1651093987789717.0,2
1246,-2.0,-2.0,-3.0,-5.0,-23.0,-1.0,1.0,-1.0,1651093987811825.0,2
1247,-2.0,-3.0,-5.0,-1.0,-5.0,-7.0,0.0,-1.0,1651093987811825.0,2
1248,-1.0,0.0,2.0,-8.0,6.0,-2.0,-2.0,-1.0,1651093987812658.0,2
1249,3.0,2.0,1.0,6.0,-4.0,-4.0,1.0,0.0,1651093987812658.0,2
1250,-2.0,-2.0,0.0,1.0,-5.0,7.0,-1.0,-1.0,1651093987826940.0,2
1251,-2.0,-3.0,-3.0,-4.0,7.0,-2.0,-2.0,0.0,1651093987826940.0,2
1252,0.0,0.0,2.0,-7.0,29.0,-5.0,1.0,0.0,1651093987827830.0,2
1253,-2.0,-4.0,-4.0,11.0,-36.0,11.0,0.0,-1.0,1651093987827830.0,2
1254,-2.0,0.0,2.0,-6.0,16.0,5.0,1.0,0.0,1651093987849062.0,2
1255,1.0,0.0,0.0,2.0,14.0,2.0,-2.0,0.0,1651093987849062.0,2
1256,0.0,0.0,1.0,3.0,32.0,8.0,-1.0,0.0,1651093987850061.0,2
1257,-1.0,-1.0,-1.0,-7.0,13.0,4.0,-3.0,-3.0,1651093987850061.0,2
1258,-2.0,-6.0,-11.0,18.0,-9.0,-10.0,-6.0,-1.0,1651093987872156.0,2
1259,0.0,2.0,8.0,-12.0,-17.0,2.0,-1.0,0.0,1651093987872156.0,2
1260,1.0,0.0,2.0,12.0,15.0,0.0,-1.0,0.0,1651093987872270.0,2
1261,-1.0,-1.0,-3.0,-7.0,-38.0,-4.0,0.0,-2.0,1651093987872270.0,2
1262,0.0,1.0,0.0,-24.0,1.0,-1.0,-2.0,-2.0,1651093987893784.0,2
1263,1.0,-1.0,-7.0,8.0,12.0,-2.0,1.0,0.0,1651093987893784.0,2
1264,0.0,1.0,3.0,18.0,12.0,2.0,0.0,0.0,1651093987895660.0,2
1265,-2.0,-3.0,-1.0,-3.0,7.0,-1.0,-1.0,1.0,1651093987895660.0,2
1266,-1.0,-2.0,-3.0,-2.0,4.0,-2.0,0.0,-1.0,1651093987908908.0,2
1267,-1.0,-3.0,-2.0,-12.0,-34.0,-8.0,0.0,-1.0,1651093987908908.0,2
1268,1.0,1.0,3.0,-5.0,31.0,3.0,0.0,-2.0,1651093987910682.0,2
1269,0.0,-1.0,-7.0,2.0,1.0,1.0,-1.0,-1.0,1651093987910682.0,2
1270,2.0,5.0,13.0,2.0,24.0,7.0,2.0,1.0,1651093987931884.0,2
1271,-2.0,-1.0,-2.0,1.0,9.0,-17.0,-3.0,0.0,1651093987931884.0,2
1272,-2.0,0.0,-2.0,2.0,-8.0,25.0,2.0,0.0,1651093987932720.0,2
1273,0.0,1.0,0.0,1.0,2.0,-9.0,-1.0,0.0,1651093987932720.0,2
1274,2.0,-2.0,-4.0,-7.0,-45.0,0.0,-3.0,-2.0,1651093987945883.0,2
1275,2.0,-1.0,0.0,5.0,43.0,10.0,1.0,0.0,1651093987945883.0,2
1276,-1.0,-1.0,-2.0,-5.0,-10.0,-10.0,0.0,1.0,1651093987947912.0,2
1277,0.0,1.0,1.0,-18.0,29.0,1.0,1.0,0.0,1651093987947912.0,2
1278,0.0,-1.0,1.0,19.0,-31.0,-4.0,0.0,-1.0,1651093987969173.0,2
1279,0.0,-1.0,-4.0,3.0,7.0,-1.0,-1.0,-1.0,1651093987969173.0,2
1280,0.0,-1.0,-1.0,-4.0,-9.0,-1.0,-1.0,-2.0,1651093987970171.0,2
1281,-1.0,2.0,1.0,-5.0,7.0,4.0,1.0,0.0,1651093987970171.0,2
1282,-2.0,-2.0,-4.0,-12.0,10.0,-8.0,-1.0,-1.0,1651093987991818.0,2
1283,-2.0,-2.0,-7.0,4.0,-43.0,8.0,0.0,-1.0,1651093987991818.0,2
1284,-1.0,-7.0,-11.0,4.0,28.0,0.0,0.0,0.0,1651093987992649.0,2
1285,0.0,4.0,14.0,7.0,-11.0,0.0,-1.0,0.0,1651093987992649.0,2
1286,0.0,2.0,8.0,-6.0,12.0,2.0,-1.0,0.0,1651093988005776.0,2
1287,-1.0,2.0,-4.0,-4.0,8.0,-5.0,1.0,0.0,1651093988005776.0,2
1288,0.0,-1.0,3.0,-7.0,-23.0,-7.0,0.0,1.0,1651093988013100.0,2
1289,1.0,-3.0,-9.0,4.0,-7.0,0.0,0.0,0.0,1651093988013100.0,2
1290,-2.0,-1.0,1.0,-7.0,52.0,9.0,0.0,0.0,1651093988029174.0,2
1291,-1.0,2.0,7.0,2.0,-34.0,-11.0,0.0,-1.0,1651093988029174.0,2
1292,-2.0,-1.0,-7.0,3.0,73.0,11.0,-1.0,0.0,1651093988030176.0,2
1293,0.0,-1.0,3.0,6.0,-34.0,0.0,1.0,0.0,1651093988030176.0,2
1294,0.0,-3.0,-8.0,-12.0,-14.0,-11.0,0.0,-3.0,1651093988051286.0,2
1295,1.0,-5.0,-5.0,-9.0,1.0,-4.0,0.0,-1.0,1651093988051286.0,2
1296,-2.0,0.0,4.0,19.0,-32.0,13.0,0.0,-3.0,1651093988053274.0,2
1297,0.0,-2.0,-3.0,-1.0,-18.0,1.0,1.0,-1.0,1651093988053274.0,2
1298,1.0,2.0,3.0,4.0,37.0,3.0,-2.0,-2.0,1651093988065270.0,2
1299,0.0,2.0,-1.0,-6.0,-8.0,-1.0,1.0,1.0,1651093988065270.0,2
1300,-1.0,-3.0,-8.0,-11.0,-35.0,-11.0,-2.0,-1.0,1651093988072443.0,2
1301,-1.0,1.0,7.0,1.0,24.0,-4.0,-1.0,1.0,1651093988072443.0,2
1302,-1.0,-1.0,-6.0,2.0,-40.0,-6.0,-2.0,0.0,1651093988089468.0,2
1303,0.0,0.0,4.0,1.0,26.0,10.0,0.0,-2.0,1651093988089468.0,2
1304,0.0,1.0,-5.0,-20.0,0.0,-8.0,0.0,1.0,1651093988090602.0,2
1305,-1.0,-4.0,-2.0,17.0,9.0,1.0,-1.0,-1.0,1651093988090602.0,2
1306,-2.0,-4.0,-2.0,-1.0,-17.0,1.0,-1.0,-1.0,1651093988111865.0,2
1307,-1.0,0.0,-1.0,2.0,32.0,0.0,0.0,0.0,1651093988111865.0,2
1308,1.0,2.0,6.0,5.0,-30.0,2.0,1.0,0.0,1651093988112899.0,2
1309,0.0,-2.0,-3.0,-8.0,12.0,-7.0,-2.0,0.0,1651093988112899.0,2
1310,0.0,-2.0,0.0,3.0,-31.0,-1.0,2.0,0.0,1651093988126440.0,2
1311,-2.0,-1.0,-1.0,1.0,22.0,-1.0,-3.0,-2.0,1651093988126440.0,2
1312,-1.0,1.0,4.0,-4.0,-37.0,-13.0,-2.0,-1.0,1651093988132626.0,2
1313,0.0,0.0,-2.0,-5.0,38.0,10.0,-1.0,-1.0,1651093988132626.0,2
1314,-1.0,-1.0,3.0,8.0,25.0,-10.0,0.0,0.0,1651093988149121.0,2
1315,-1.0,0.0,-1.0,-13.0,-56.0,6.0,0.0,1.0,1651093988149121.0,2
1316,0.0,1.0,3.0,11.0,31.0,-11.0,1.0,0.0,1651093988151119.0,2
1317,-3.0,-1.0,-3.0,2.0,-28.0,-3.0,-1.0,-2.0,1651093988151119.0,2
1318,-2.0,1.0,-3.0,0.0,11.0,8.0,0.0,-1.0,1651093988172164.0,2
1319,0.0,0.0,-2.0,-1.0,-3.0,2.0,0.0,-1.0,1651093988172164.0,2
1320,1.0,-2.0,-4.0,-9.0,-10.0,-4.0,-1.0,0.0,1651093988172285.0,2
1321,1.0,1.0,1.0,1.0,-3.0,-8.0,0.0,-1.0,1651093988172285.0,2
1322,0.0,-3.0,-4.0,3.0,-14.0,6.0,-1.0,0.0,1651093988194966.0,2
1323,-1.0,2.0,3.0,-5.0,8.0,5.0,-2.0,0.0,1651093988194966.0,2
1324,-1.0,0.0,2.0,4.0,18.0,2.0,0.0,-1.0,1651093988199958.0,2
1325,1.0,-2.0,1.0,-1.0,-8.0,-7.0,1.0,-2.0,1651093988199958.0,2
1326,-1.0,1.0,-2.0,-3.0,-10.0,-5.0,-1.0,0.0,1651093988209060.0,2
1327,-2.0,-4.0,-4.0,3.0,13.0,-5.0,-1.0,0.0,1651093988209060.0,2
1328,-2.0,-1.0,0.0,1.0,-13.0,4.0,-1.0,-2.0,1651093988210061.0,2
1329,-1.0,-1.0,1.0,-4.0,-1.0,-1.0,0.0,0.0,1651093988210061.0,2
1330,-2.0,-1.0,0.0,-1.0,-20.0,-1.0,-1.0,0.0,1651093988231459.0,2
1331,0.0,-2.0,-3.0,-9.0,12.0,3.0,0.0,-2.0,1651093988231459.0,2
1332,1.0,1.0,0.0,2.0,21.0,-1.0,0.0,0.0,1651093988232344.0,2
1333,-1.0,0.0,0.0,4.0,26.0,7.0,-1.0,1.0,1651093988232344.0,2
1334,-1.0,-2.0,-2.0,-3.0,-13.0,-3.0,-1.0,-2.0,1651093988245621.0,2
1335,0.0,-2.0,1.0,8.0,10.0,-4.0,0.0,-1.0,1651093988245621.0,2
1336,0.0,-2.0,-1.0,-9.0,5.0,5.0,1.0,-1.0,1651093988252578.0,2
1337,0.0,0.0,-3.0,-1.0,-14.0,-1.0,0.0,-1.0,1651093988252578.0,2
1338,0.0,0.0,0.0,-1.0,-10.0,-12.0,-2.0,0.0,1651093988267555.0,2
1339,0.0,1.0,0.0,-11.0,8.0,3.0,0.0,-1.0,1651093988267555.0,2
1340,-1.0,0.0,-2.0,4.0,6.0,11.0,-1.0,-1.0,1651093988293544.0,2
1341,-2.0,-1.0,0.0,9.0,11.0,7.0,-1.0,-1.0,1651093988293544.0,2
1342,-3.0,-3.0,-3.0,-4.0,0.0,-16.0,0.0,1.0,1651093988293544.0,2
1343,1.0,3.0,7.0,12.0,5.0,-3.0,0.0,0.0,1651093988293544.0,2
1344,-1.0,-1.0,-1.0,-2.0,-8.0,-7.0,-1.0,1.0,1651093988297569.0,2
1345,0.0,-1.0,-2.0,-10.0,6.0,-2.0,-2.0,-1.0,1651093988297569.0,2
1346,0.0,-1.0,-1.0,-8.0,4.0,7.0,0.0,-1.0,1651093988305548.0,2
1347,0.0,-2.0,-5.0,9.0,-8.0,0.0,0.0,0.0,1651093988305548.0,2
1348,0.0,0.0,4.0,2.0,12.0,-1.0,-1.0,1.0,1651093988312621.0,2
1349,0.0,-1.0,0.0,0.0,-13.0,-3.0,1.0,-1.0,1651093988312621.0,2
1350,-1.0,0.0,-1.0,8.0,-23.0,1.0,0.0,-1.0,1651093988328973.0,2
1351,1.0,-1.0,-1.0,-2.0,1.0,5.0,-2.0,-1.0,1651093988328973.0,2
1352,-1.0,-3.0,-1.0,-7.0,-38.0,-12.0,-3.0,-1.0,1651093988329668.0,2
1353,0.0,-1.0,-2.0,0.0,88.0,5.0,1.0,0.0,1651093988329668.0,2
1354,0.0,3.0,3.0,-1.0,4.0,9.0,-1.0,-1.0,1651093988367350.0,2
1355,-2.0,-2.0,-3.0,0.0,-31.0,-2.0,-1.0,-1.0,1651093988367350.0,2
1356,-1.0,-2.0,-2.0,-6.0,4.0,-5.0,-1.0,-3.0,1651093988368192.0,2
1357,-2.0,-1.0,-3.0,-3.0,-36.0,-17.0,-3.0,0.0,1651093988368192.0,2
1358,0.0,2.0,1.0,12.0,16.0,21.0,2.0,0.0,1651093988369181.0,2
1359,-1.0,0.0,5.0,7.0,23.0,3.0,1.0,-1.0,1651093988369181.0,2
1360,-2.0,-2.0,-4.0,-3.0,-5.0,-2.0,-1.0,-1.0,1651093988374167.0,2
1361,0.0,0.0,1.0,-6.0,-15.0,-1.0,-2.0,0.0,1651093988374167.0,2
1362,-1.0,-2.0,-3.0,-11.0,5.0,-6.0,-2.0,-2.0,1651093988389440.0,2
1363,0.0,1.0,-1.0,-1.0,3.0,-1.0,-1.0,1.0,1651093988389440.0,2
1364,-2.0,0.0,0.0,8.0,33.0,3.0,1.0,0.0,1651093988397424.0,2
1365,0.0,1.0,-1.0,2.0,-13.0,1.0,-1.0,2.0,1651093988397424.0,2
1366,1.0,1.0,3.0,8.0,17.0,0.0,1.0,2.0,1651093988411662.0,2
1367,-3.0,-3.0,-1.0,-3.0,11.0,-2.0,-1.0,-1.0,1651093988411662.0,2
1368,1.0,2.0,2.0,-3.0,14.0,0.0,-1.0,-1.0,1651093988412399.0,2
1369,-1.0,0.0,-2.0,-3.0,-33.0,-4.0,-1.0,-2.0,1651093988412399.0,2
1370,-3.0,-3.0,-2.0,-9.0,31.0,-2.0,1.0,-2.0,1651093988424566.0,2
1371,-2.0,-2.0,-4.0,3.0,-11.0,-4.0,-2.0,-2.0,1651093988424566.0,2
1372,0.0,1.0,1.0,6.0,7.0,2.0,1.0,1.0,1651093988433902.0,2
1373,-1.0,-1.0,0.0,-1.0,-22.0,-2.0,0.0,-1.0,1651093988433902.0,2
1374,1.0,-2.0,-4.0,-6.0,-19.0,-5.0,0.0,1.0,1651093988449026.0,2
1375,-1.0,1.0,4.0,-3.0,10.0,-8.0,0.0,0.0,1651093988449026.0,2
1376,-1.0,0.0,-1.0,0.0,-12.0,0.0,-1.0,-1.0,1651093988449868.0,2
1377,0.0,0.0,0.0,-9.0,15.0,11.0,0.0,-2.0,1651093988449868.0,2
1378,-1.0,-2.0,3.0,13.0,-10.0,-12.0,-1.0,-1.0,1651093988472057.0,2
1379,1.0,-1.0,-2.0,4.0,-4.0,2.0,1.0,0.0,1651093988472057.0,2
1380,0.0,-3.0,-3.0,-8.0,-60.0,-16.0,-2.0,-2.0,1651093988472470.0,2
1381,1.0,1.0,1.0,2.0,3.0,11.0,4.0,0.0,1651093988472470.0,2
1382,0.0,0.0,-1.0,0.0,-2.0,1.0,-1.0,0.0,1651093988484472.0,2
1383,0.0,0.0,-2.0,0.0,-14.0,-3.0,0.0,0.0,1651093988484472.0,2
1384,-1.0,0.0,1.0,-9.0,-2.0,7.0,-1.0,0.0,1651093988500919.0,2
1385,-2.0,-2.0,-4.0,2.0,-41.0,-6.0,-4.0,-2.0,1651093988500919.0,2
1386,-1.0,-1.0,0.0,2.0,7.0,5.0,-1.0,-1.0,1651093988509058.0,2
1387,0.0,2.0,1.0,6.0,29.0,-3.0,2.0,-2.0,1651093988509058.0,2
1388,0.0,-3.0,-3.0,-7.0,2.0,-2.0,-2.0,-1.0,1651093988510059.0,2
1389,0.0,-5.0,-6.0,-5.0,21.0,-4.0,-2.0,-1.0,1651093988510059.0,2
1390,2.0,3.0,4.0,6.0,-40.0,6.0,4.0,2.0,1651093988532112.0,2
1391,-1.0,1.0,2.0,-2.0,14.0,3.0,-1.0,0.0,1651093988532112.0,2
1392,-2.0,1.0,0.0,2.0,8.0,-9.0,-1.0,-2.0,1651093988532250.0,2
1393,-1.0,0.0,1.0,-1.0,-8.0,2.0,0.0,-1.0,1651093988532250.0,2
1394,-1.0,-2.0,-2.0,-4.0,-10.0,-5.0,-3.0,-3.0,1651093988545568.0,2
1395,-1.0,-4.0,-5.0,-2.0,4.0,-1.0,0.0,0.0,1651093988545568.0,2
1396,-1.0,-1.0,-2.0,1.0,-1.0,7.0,0.0,1.0,1651093988553746.0,2
1397,-1.0,2.0,-1.0,0.0,25.0,-5.0,-2.0,0.0,1651093988553746.0,2
1398,-1.0,1.0,-1.0,-5.0,-3.0,-5.0,-1.0,0.0,1651093988568458.0,2
1399,0.0,-1.0,2.0,0.0,-6.0,2.0,0.0,1.0,1651093988568458.0,2
1400,0.0,1.0,1.0,4.0,-7.0,-5.0,1.0,0.0,1651093988570496.0,2
1401,-1.0,-3.0,-2.0,-6.0,-19.0,-5.0,0.0,-1.0,1651093988570496.0,2
1402,0.0,0.0,1.0,8.0,73.0,11.0,1.0,-1.0,1651093988590733.0,2
1403,-2.0,-2.0,-2.0,-1.0,-21.0,2.0,-3.0,0.0,1651093988590733.0,2
1404,-1.0,-4.0,-9.0,-27.0,-12.0,-5.0,-4.0,-1.0,1651093988592758.0,2
1405,0.0,2.0,7.0,13.0,-1.0,1.0,0.0,1.0,1651093988592758.0,2
1406,-1.0,-2.0,2.0,12.0,6.0,0.0,-3.0,-1.0,1651093988604855.0,2
1407,1.0,1.0,1.0,1.0,-5.0,-1.0,0.0,0.0,1651093988604855.0,2
1408,1.0,1.0,0.0,0.0,23.0,5.0,1.0,-2.0,1651093988613989.0,2
1409,-2.0,0.0,-3.0,-16.0,-1.0,-5.0,-2.0,-1.0,1651093988613989.0,2
1410,0.0,0.0,-3.0,-9.0,1.0,-5.0,0.0,1.0,1651093988636171.0,2
1411,0.0,-2.0,0.0,5.0,-65.0,-3.0,0.0,-1.0,1651093988636171.0,2
1412,1.0,2.0,3.0,6.0,23.0,6.0,3.0,1.0,1651093988642686.0,2
1413,0.0,0.0,-1.0,0.0,-1.0,-3.0,-1.0,-2.0,1651093988642686.0,2
1414,-1.0,-2.0,-1.0,1.0,-19.0,-5.0,-1.0,-1.0,1651093988651343.0,2
1415,-1.0,-1.0,-4.0,-13.0,-1.0,-7.0,-3.0,-3.0,1651093988651343.0,2
1416,0.0,0.0,2.0,10.0,29.0,5.0,-1.0,-1.0,1651093988652341.0,2
1417,-1.0,-2.0,-1.0,8.0,60.0,7.0,1.0,2.0,1651093988652341.0,2
1418,1.0,-2.0,-1.0,1.0,-44.0,-6.0,-1.0,0.0,1651093988665654.0,2
1419,-1.0,-2.0,-1.0,-3.0,-9.0,4.0,2.0,1.0,1651093988665654.0,2
1420,-2.0,-1.0,-2.0,-5.0,-40.0,-7.0,-6.0,-1.0,1651093988673842.0,2
1421,-1.0,1.0,1.0,7.0,31.0,6.0,1.0,-1.0,1651093988673842.0,2
1422,-1.0,-1.0,-3.0,-13.0,-18.0,0.0,-1.0,0.0,1651093988690110.0,2
1423,-1.0,0.0,-2.0,-4.0,-61.0,-3.0,-4.0,0.0,1651093988690110.0,2
1424,0.0,-3.0,-1.0,1.0,51.0,-2.0,-2.0,-2.0,1651093988691001.0,2
1425,2.0,3.0,6.0,17.0,-22.0,5.0,3.0,3.0,1651093988691001.0,2
1426,-1.0,-2.0,-6.0,-9.0,24.0,-3.0,-2.0,-2.0,1651093988711381.0,2
1427,-1.0,0.0,-3.0,2.0,18.0,1.0,1.0,-2.0,1651093988711381.0,2
1428,0.0,1.0,5.0,8.0,4.0,6.0,2.0,1.0,1651093988712276.0,2
1429,1.0,-1.0,-3.0,-8.0,-20.0,-8.0,-2.0,0.0,1651093988712276.0,2
1430,-1.0,1.0,3.0,-4.0,-18.0,-5.0,0.0,-1.0,1651093988724413.0,2
1431,1.0,-2.0,-5.0,5.0,-1.0,-1.0,-1.0,1.0,1651093988724413.0,2
1432,-2.0,-3.0,-6.0,-7.0,-96.0,-7.0,-4.0,-3.0,1651093988733677.0,2
1433,2.0,6.0,13.0,14.0,90.0,19.0,9.0,3.0,1651093988733677.0,2
1434,-3.0,-2.0,-4.0,2.0,-26.0,-3.0,-2.0,-9.0,1651093988749395.0,2
1435,3.0,1.0,0.0,-7.0,-36.0,-8.0,-2.0,14.0,1651093988749395.0,2
1436,0.0,-1.0,1.0,-2.0,-63.0,-2.0,3.0,0.0,1651093988750686.0,2
1437,-4.0,-7.0,-9.0,-7.0,18.0,8.0,-2.0,-2.0,1651093988750686.0,2
1438,6.0,6.0,11.0,19.0,99.0,21.0,7.0,4.0,1651093988778982.0,2
1439,-1.0,4.0,5.0,2.0,7.0,7.0,4.0,-2.0,1651093988778982.0,2
1440,-2.0,-5.0,-7.0,4.0,0.0,3.0,-2.0,-2.0,1651093988779980.0,2
1441,-5.0,1.0,-2.0,-5.0,-72.0,-13.0,-5.0,-2.0,1651093988779980.0,2
1442,-2.0,-4.0,-2.0,-12.0,-11.0,2.0,0.0,1.0,1651093988793974.0,2
1443,1.0,-4.0,-9.0,1.0,53.0,9.0,2.0,-3.0,1651093988793974.0,2
1444,4.0,9.0,11.0,5.0,-23.0,2.0,4.0,4.0,1651093988794971.0,2
1445,-4.0,-4.0,-6.0,-15.0,-68.0,-2.0,-3.0,-5.0,1651093988794971.0,2
1446,-2.0,0.0,-3.0,-1.0,18.0,-7.0,-5.0,-2.0,1651093988808280.0,2
1447,9.0,5.0,13.0,15.0,69.0,6.0,6.0,3.0,1651093988808280.0,2
1448,-9.0,-10.0,-15.0,2.0,-28.0,-23.0,-12.0,-9.0,1651093988815460.0,2
1449,4.0,-4.0,-3.0,-24.0,-8.0,9.0,3.0,2.0,1651093988815460.0,2
1450,3.0,-2.0,-4.0,5.0,-84.0,-4.0,2.0,4.0,1651093988831731.0,2
1451,-4.0,-3.0,-6.0,-11.0,-75.0,-8.0,-6.0,-8.0,1651093988831731.0,2
1452,-2.0,-2.0,0.0,-11.0,127.0,2.0,1.0,-5.0,1651093988832447.0,2
1453,6.0,6.0,14.0,35.0,71.0,15.0,8.0,13.0,1651093988832447.0,2
1454,-4.0,-5.0,-8.0,-19.0,-60.0,-12.0,-3.0,0.0,1651093988853933.0,2
1455,-4.0,1.0,0.0,0.0,41.0,-1.0,0.0,-9.0,1651093988853933.0,2
1456,-2.0,2.0,10.0,9.0,0.0,20.0,7.0,10.0,1651093988854775.0,2
1457,4.0,0.0,-6.0,-2.0,-105.0,-16.0,-5.0,-28.0,1651093988854775.0,2
1458,0.0,3.0,5.0,12.0,90.0,8.0,-2.0,-2.0,1651093988869128.0,2
1459,-5.0,-5.0,-4.0,-12.0,-47.0,-23.0,-2.0,2.0,1651093988869128.0,2
1460,-6.0,-3.0,-4.0,-6.0,-34.0,-17.0,-11.0,-20.0,1651093988870092.0,2
1461,-3.0,-3.0,4.0,8.0,44.0,29.0,8.0,15.0,1651093988870092.0,2
1462,-3.0,3.0,-4.0,-6.0,-96.0,-10.0,-4.0,-5.0,1651093988891359.0,2
1463,2.0,1.0,1.0,11.0,92.0,10.0,0.0,3.0,1651093988891359.0,2
1464,1.0,4.0,6.0,-8.0,-85.0,-5.0,1.0,-2.0,1651093988893164.0,2
1465,2.0,-3.0,-4.0,-9.0,-48.0,-16.0,-9.0,-2.0,1651093988893164.0,0
1466,-5.0,-9.0,-6.0,-16.0,70.0,-27.0,6.0,-1.0,1651093988913679.0,3
1467,0.0,-4.0,-5.0,0.0,63.0,25.0,1.0,0.0,1651093988913679.0,3
1468,3.0,2.0,2.0,30.0,122.0,20.0,5.0,1.0,1651093988915544.0,3
1469,-1.0,-1.0,-4.0,-7.0,17.0,-2.0,-1.0,-4.0,1651093988915544.0,3
1470,3.0,1.0,0.0,-98.0,-69.0,-18.0,-2.0,9.0,1651093988927520.0,3
1471,-1.0,-3.0,-11.0,-28.0,-117.0,-22.0,-5.0,-2.0,1651093988927520.0,3
1472,-1.0,-3.0,5.0,85.0,47.0,0.0,-6.0,2.0,1651093988934463.0,3
1473,2.0,1.0,4.0,19.0,25.0,-29.0,-2.0,4.0,1651093988934463.0,3
1474,2.0,4.0,5.0,23.0,56.0,-13.0,5.0,-4.0,1651093988950944.0,3
1475,-6.0,-1.0,1.0,-37.0,-25.0,-12.0,-7.0,-7.0,1651093988950944.0,3
1476,3.0,-4.0,-7.0,-33.0,52.0,-13.0,-2.0,12.0,1651093988952776.0,3
1477,-2.0,-1.0,-2.0,1.0,12.0,4.0,-6.0,-8.0,1651093988952776.0,3
1478,-1.0,-4.0,-6.0,3.0,-111.0,8.0,-7.0,3.0,1651093988981962.0,3
1479,5.0,3.0,5.0,30.0,3.0,14.0,17.0,-4.0,1651093988981962.0,3
1480,8.0,9.0,1.0,-17.0,53.0,-4.0,12.0,-35.0,1651093988982996.0,3
1481,-15.0,3.0,3.0,3.0,46.0,10.0,-10.0,46.0,1651093988982996.0,3
1482,5.0,1.0,-4.0,-4.0,-12.0,-1.0,32.0,8.0,1651093988987980.0,3
1483,1.0,-7.0,-2.0,17.0,-17.0,2.0,-9.0,11.0,1651093988987980.0,3
1484,-3.0,-1.0,3.0,15.0,6.0,23.0,-1.0,-14.0,1651093988995076.0,3
1485,-2.0,-2.0,-1.0,-21.0,-3.0,9.0,10.0,-8.0,1651093988995076.0,3
1486,-9.0,-10.0,-12.0,1.0,21.0,-23.0,-30.0,-26.0,1651093989012150.0,3
1487,4.0,6.0,10.0,28.0,51.0,55.0,13.0,13.0,1651093989012150.0,3
1488,12.0,0.0,-2.0,-26.0,-8.0,-9.0,12.0,17.0,1651093989012591.0,3
1489,-8.0,-8.0,-7.0,-5.0,-29.0,-27.0,-3.0,-12.0,1651093989012591.0,3
1490,-2.0,2.0,3.0,26.0,-39.0,-4.0,-4.0,14.0,1651093989033718.0,3
1491,-1.0,2.0,2.0,-1.0,68.0,9.0,0.0,-18.0,1651093989033718.0,3
1492,-1.0,5.0,6.0,5.0,-10.0,41.0,4.0,14.0,1651093989034720.0,3
1493,6.0,-1.0,-7.0,-18.0,-33.0,2.0,-2.0,-2.0,1651093989034720.0,3
1494,-11.0,-6.0,-5.0,11.0,5.0,-10.0,-3.0,-11.0,1651093989048814.0,3
1495,-6.0,-4.0,-8.0,-31.0,-128.0,-49.0,-11.0,-2.0,1651093989048814.0,3
1496,10.0,9.0,11.0,23.0,81.0,29.0,2.0,10.0,1651093989054807.0,3
1497,-6.0,-6.0,-2.0,-2.0,-15.0,1.0,-1.0,-4.0,1651093989054807.0,3
1498,11.0,4.0,-1.0,-18.0,-74.0,-3.0,-1.0,15.0,1651093989072062.0,3
1499,-8.0,-2.0,2.0,14.0,-68.0,9.0,1.0,2.0,1651093989072062.0,3
1500,-1.0,-1.0,-11.0,-40.0,-15.0,-17.0,-8.0,-2.0,1651093989072924.0,3
1501,2.0,1.0,1.0,-2.0,-38.0,-7.0,10.0,16.0,1651093989072924.0,3
1502,-5.0,-2.0,-1.0,21.0,52.0,9.0,-10.0,-5.0,1651093989094193.0,3
1503,0.0,-1.0,2.0,4.0,80.0,17.0,-2.0,-3.0,1651093989094193.0,3
1504,1.0,-3.0,0.0,-4.0,-118.0,-32.0,-3.0,2.0,1651093989095194.0,3
1505,4.0,-3.0,1.0,-1.0,26.0,20.0,-4.0,-6.0,1651093989095194.0,3
1506,1.0,3.0,-2.0,-43.0,-16.0,9.0,1.0,6.0,1651093989117521.0,3
1507,3.0,0.0,-8.0,17.0,29.0,-15.0,-2.0,1.0,1651093989117521.0,3
1508,-9.0,-1.0,11.0,17.0,61.0,-38.0,-1.0,-11.0,1651093989119382.0,3
1509,-2.0,-4.0,-15.0,-26.0,-78.0,-16.0,-12.0,-14.0,1651093989119382.0,3
1510,0.0,4.0,16.0,53.0,-33.0,18.0,5.0,2.0,1651093989131629.0,3
1511,4.0,6.0,10.0,23.0,103.0,-3.0,4.0,-2.0,1651093989131629.0,3
1512,-4.0,-4.0,-7.0,-16.0,-101.0,58.0,4.0,36.0,1651093989132412.0,3
1513,-31.0,-8.0,-10.0,-26.0,-116.0,-63.0,-20.0,-21.0,1651093989132412.0,3
1514,25.0,6.0,9.0,17.0,99.0,48.0,11.0,6.0,1651093989153835.0,3
1515,-1.0,-7.0,-12.0,-21.0,-36.0,-21.0,-9.0,0.0,1651093989153835.0,3
1516,1.0,2.0,2.0,6.0,25.0,-61.0,8.0,-28.0,1651093989154835.0,3
1517,4.0,6.0,7.0,9.0,26.0,-8.0,4.0,22.0,1651093989154835.0,3
1518,-17.0,-5.0,-9.0,-16.0,-80.0,-9.0,1.0,1.0,1651093989167973.0,3
1519,5.0,-5.0,4.0,-18.0,25.0,-4.0,-7.0,-34.0,1651093989167973.0,3
1520,1.0,2.0,-9.0,-1.0,-12.0,9.0,5.0,31.0,1651093989175215.0,3
1521,15.0,3.0,2.0,13.0,-46.0,8.0,2.0,-7.0,1651093989175215.0,3
1522,-10.0,-2.0,-1.0,2.0,6.0,-15.0,-4.0,-14.0,1651093989199116.0,3
1523,-5.0,-6.0,-2.0,-15.0,-15.0,-2.0,-1.0,8.0,1651093989199116.0,3
1524,10.0,8.0,6.0,16.0,-32.0,42.0,11.0,2.0,1651093989200262.0,3
1525,-2.0,-3.0,-2.0,5.0,9.0,-10.0,-7.0,-7.0,1651093989200262.0,3
1526,1.0,-2.0,-2.0,-8.0,-32.0,-12.0,-1.0,9.0,1651093989214560.0,3
1527,1.0,4.0,2.0,-3.0,-7.0,16.0,0.0,-1.0,1651093989214560.0,3
1528,-9.0,-12.0,-14.0,-8.0,14.0,-22.0,-16.0,-12.0,1651093989215461.0,3
1529,4.0,6.0,9.0,-49.0,-31.0,41.0,12.0,8.0,1651093989215461.0,3
1530,8.0,3.0,13.0,79.0,115.0,21.0,7.0,-3.0,1651093989227574.0,3
1531,-3.0,-11.0,-16.0,-12.0,-128.0,-14.0,-13.0,-2.0,1651093989227574.0,3
1532,-2.0,5.0,15.0,49.0,127.0,27.0,7.0,3.0,1651093989234559.0,3
1533,-2.0,-2.0,-3.0,9.0,5.0,-30.0,-3.0,-8.0,1651093989234559.0,3
1534,3.0,1.0,-4.0,-78.0,-128.0,5.0,-1.0,0.0,1651093989258992.0,3
1535,3.0,2.0,-2.0,28.0,-12.0,17.0,-3.0,12.0,1651093989258992.0,3
1536,-4.0,-1.0,0.0,-9.0,-13.0,-5.0,-8.0,1.0,1651093989259981.0,3
1537,-7.0,-4.0,1.0,9.0,-82.0,-24.0,-7.0,-13.0,1651093989259981.0,3
1538,3.0,3.0,4.0,2.0,58.0,60.0,7.0,-6.0,1651093989274150.0,3
1539,-4.0,0.0,1.0,-12.0,125.0,16.0,-8.0,2.0,1651093989274150.0,3
1540,-8.0,-11.0,-17.0,-35.0,-71.0,-32.0,-6.0,-5.0,1651093989275151.0,3
1541,-6.0,2.0,1.0,16.0,-15.0,-1.0,5.0,-9.0,1651093989275151.0,3
1542,10.0,-3.0,-4.0,-30.0,-29.0,-61.0,-7.0,11.0,1651093989296524.0,3
1543,-23.0,9.0,16.0,54.0,-33.0,17.0,1.0,-5.0,1651093989296524.0,3
1544,25.0,1.0,-4.0,-19.0,-18.0,23.0,0.0,3.0,1651093989297381.0,3
1545,14.0,-3.0,-2.0,-8.0,62.0,-1.0,1.0,12.0,1651093989297381.0,3
1546,-10.0,-5.0,1.0,25.0,-72.0,21.0,-2.0,-10.0,1651093989311622.0,3
1547,-4.0,0.0,-8.0,-71.0,-128.0,66.0,7.0,6.0,1651093989311622.0,3
1548,-6.0,4.0,-2.0,-20.0,33.0,16.0,1.0,14.0,1651093989312369.0,3
1549,2.0,-8.0,0.0,81.0,-54.0,6.0,-2.0,-6.0,1651093989312369.0,3
1550,1.0,0.0,-7.0,40.0,114.0,-20.0,-1.0,1.0,1651093989333795.0,3
1551,10.0,10.0,24.0,-12.0,-81.0,-18.0,10.0,5.0,1651093989333795.0,3
1552,-5.0,4.0,3.0,8.0,-30.0,11.0,-5.0,-27.0,1651093989335654.0,3
1553,2.0,2.0,0.0,-41.0,-54.0,4.0,15.0,44.0,1651093989335654.0,3
1554,2.0,-2.0,-4.0,-2.0,24.0,18.0,-6.0,-9.0,1651093989348085.0,3
1555,7.0,-8.0,-13.0,7.0,-15.0,-41.0,-11.0,-14.0,1651093989348085.0,3
1556,-8.0,0.0,-2.0,-22.0,-57.0,-19.0,-10.0,-3.0,1651093989356293.0,3
1557,-21.0,3.0,-1.0,2.0,61.0,-11.0,-5.0,-9.0,1651093989356293.0,3
1558,16.0,0.0,0.0,-1.0,-46.0,-7.0,5.0,6.0,1651093989372051.0,3
1559,3.0,-2.0,-9.0,-27.0,-31.0,-33.0,5.0,6.0,1651093989372051.0,3
1560,7.0,-14.0,-15.0,24.0,-53.0,-4.0,-7.0,-4.0,1651093989372284.0,3
1561,-3.0,-2.0,11.0,7.0,-44.0,12.0,-5.0,-12.0,1651093989372284.0,3
1562,-13.0,5.0,4.0,-5.0,4.0,9.0,13.0,1.0,1651093989393988.0,3
1563,1.0,-7.0,-10.0,-35.0,-8.0,-25.0,1.0,-13.0,1651093989393988.0,3
1564,-6.0,1.0,2.0,20.0,72.0,-18.0,-3.0,16.0,1651093989394825.0,3
1565,8.0,1.0,-3.0,15.0,124.0,47.0,3.0,-5.0,1651093989394825.0,3
1566,-6.0,-5.0,4.0,-22.0,-62.0,-14.0,-7.0,-11.0,1651093989423592.0,3
1567,5.0,2.0,6.0,44.0,52.0,30.0,5.0,7.0,1651093989423592.0,3
1568,-14.0,-7.0,-13.0,-75.0,-86.0,-53.0,-5.0,1.0,1651093989425460.0,3
1569,-5.0,4.0,-5.0,44.0,8.0,0.0,-2.0,-2.0,1651093989425460.0,3
1570,11.0,-5.0,-4.0,-27.0,-115.0,-9.0,-17.0,-7.0,1651093989431656.0,3
1571,1.0,7.0,6.0,53.0,127.0,13.0,4.0,-1.0,1651093989431656.0,3
1572,-2.0,-10.0,4.0,-81.0,-105.0,14.0,9.0,3.0,1651093989432435.0,3
1573,-9.0,5.0,-6.0,9.0,-10.0,-1.0,1.0,4.0,1651093989432435.0,3
1574,15.0,4.0,2.0,14.0,4.0,-43.0,-2.0,-3.0,1651093989453921.0,3
1575,4.0,3.0,6.0,23.0,42.0,4.0,-2.0,3.0,1651093989453921.0,3
1576,9.0,2.0,3.0,22.0,28.0,25.0,0.0,-11.0,1651093989454922.0,3
1577,-4.0,-10.0,1.0,-49.0,-17.0,-21.0,2.0,-15.0,1651093989454922.0,3
1578,-14.0,7.0,-9.0,-20.0,28.0,-12.0,-3.0,3.0,1651093989476223.0,3
1579,1.0,-9.0,-5.0,0.0,-78.0,52.0,-9.0,-15.0,1651093989476223.0,3
1580,-8.0,4.0,-1.0,30.0,-33.0,2.0,-5.0,2.0,1651093989478092.0,3
1581,7.0,-3.0,7.0,-19.0,-60.0,-26.0,-8.0,-3.0,1651093989478092.0,3
1582,1.0,1.0,-2.0,-33.0,-76.0,2.0,-7.0,18.0,1651093989491145.0,3
1583,0.0,5.0,16.0,54.0,12.0,13.0,9.0,-1.0,1651093989491145.0,3
1584,-2.0,-8.0,-14.0,-4.0,-89.0,-35.0,-4.0,-11.0,1651093989493105.0,3
1585,8.0,3.0,-2.0,-5.0,-50.0,30.0,7.0,9.0,1651093989493105.0,3
1586,1.0,0.0,-1.0,-6.0,-7.0,9.0,7.0,0.0,1651093989513847.0,3
1587,-12.0,-7.0,-18.0,-51.0,-35.0,-47.0,-10.0,-1.0,1651093989513847.0,3
1588,5.0,1.0,8.0,53.0,-5.0,11.0,8.0,5.0,1651093989514724.0,3
1589,5.0,1.0,-6.0,-7.0,5.0,-3.0,-2.0,-9.0,1651093989514724.0,3
1590,-11.0,1.0,18.0,23.0,93.0,25.0,0.0,-15.0,1651093989536958.0,3
1591,-11.0,-2.0,-3.0,-6.0,-77.0,-69.0,-2.0,12.0,1651093989536958.0,3
1592,-3.0,-3.0,0.0,-10.0,90.0,29.0,-5.0,-6.0,1651093989537799.0,3
1593,-15.0,4.0,-7.0,-5.0,-97.0,37.0,-13.0,0.0,1651093989537799.0,3
1594,2.0,-7.0,1.0,21.0,127.0,30.0,-2.0,-18.0,1651093989550918.0,3
1595,15.0,7.0,-5.0,-19.0,-110.0,-22.0,-2.0,20.0,1651093989550918.0,3
1596,4.0,-5.0,0.0,-9.0,17.0,-32.0,7.0,-3.0,1651093989552783.0,3
1597,3.0,-2.0,0.0,-31.0,65.0,-5.0,-2.0,-15.0,1651093989552783.0,3
1598,-8.0,9.0,2.0,53.0,-8.0,24.0,10.0,9.0,1651093989574125.0,3
1599,-12.0,-9.0,-8.0,-27.0,-95.0,-44.0,-5.0,-11.0,1651093989574125.0,3
1600,-4.0,2.0,9.0,49.0,105.0,33.0,-3.0,1.0,1651093989575125.0,3
1601,12.0,0.0,5.0,-39.0,-74.0,-1.0,12.0,18.0,1651093989575125.0,3
1602,-5.0,-11.0,-18.0,0.0,-5.0,-47.0,-8.0,3.0,1651093989587721.0,3
1603,7.0,8.0,11.0,27.0,105.0,48.0,14.0,12.0,1651093989587721.0,3
1604,-2.0,6.0,8.0,17.0,-86.0,29.0,0.0,-1.0,1651093989596748.0,3
1605,-1.0,-4.0,-5.0,2.0,70.0,-22.0,-5.0,-14.0,1651093989596748.0,3
1606,0.0,-3.0,-2.0,-29.0,-51.0,12.0,-12.0,1.0,1651093989612029.0,3
1607,2.0,3.0,2.0,-3.0,38.0,-22.0,17.0,-4.0,1651093989612029.0,3
1608,-4.0,-8.0,-12.0,-8.0,-70.0,-22.0,-6.0,5.0,1651093989612908.0,3
1609,-6.0,-3.0,-3.0,36.0,75.0,62.0,5.0,-11.0,1651093989612908.0,3
1610,-3.0,2.0,8.0,-14.0,-30.0,-79.0,-11.0,7.0,1651093989634231.0,3
1611,-8.0,0.0,0.0,-10.0,-81.0,13.0,-10.0,-13.0,1651093989634231.0,3
1612,6.0,-6.0,-13.0,-14.0,-72.0,-17.0,-2.0,-2.0,1651093989635231.0,3
1613,13.0,3.0,11.0,6.0,-8.0,-21.0,3.0,8.0,1651093989635231.0,3
1614,-13.0,-9.0,-25.0,-79.0,-62.0,-26.0,-13.0,-25.0,1651093989647855.0,3
1615,2.0,4.0,15.0,61.0,102.0,86.0,9.0,12.0,1651093989647855.0,3
1616,10.0,8.0,-8.0,11.0,-117.0,-5.0,-4.0,-7.0,1651093989656127.0,3
1617,-24.0,-6.0,-4.0,-23.0,-103.0,-61.0,-12.0,-9.0,1651093989656127.0,3
1618,18.0,1.0,4.0,51.0,98.0,16.0,19.0,29.0,1651093989672119.0,3
1619,-1.0,1.0,5.0,-50.0,6.0,11.0,-6.0,-22.0,1651093989672119.0,3
1620,4.0,-1.0,-4.0,-9.0,98.0,-14.0,0.0,8.0,1651093989673117.0,3
1621,7.0,-2.0,0.0,31.0,77.0,13.0,2.0,2.0,1651093989673117.0,3
1622,-4.0,3.0,8.0,-1.0,-41.0,54.0,5.0,-6.0,1651093989694572.0,3
1623,3.0,-5.0,-9.0,-4.0,78.0,11.0,1.0,4.0,1651093989694572.0,3
1624,-12.0,-2.0,5.0,-27.0,-100.0,-42.0,-2.0,-2.0,1651093989695424.0,3
1625,10.0,3.0,-3.0,2.0,127.0,-13.0,8.0,11.0,1651093989695424.0,3
1626,-5.0,-6.0,-6.0,3.0,-114.0,-6.0,-3.0,-7.0,1651093989716786.0,3
1627,12.0,4.0,2.0,37.0,101.0,37.0,8.0,24.0,1651093989716786.0,3
1628,-3.0,-2.0,0.0,-51.0,-38.0,56.0,-3.0,-8.0,1651093989733565.0,3
1629,-8.0,6.0,-6.0,21.0,-115.0,-36.0,2.0,-2.0,1651093989733565.0,3
1630,-9.0,-7.0,0.0,23.0,-82.0,2.0,-2.0,-13.0,1651093989733565.0,3
1631,-1.0,4.0,3.0,39.0,93.0,28.0,8.0,-7.0,1651093989733565.0,3
1632,-4.0,4.0,0.0,-1.0,-44.0,-16.0,4.0,2.0,1651093989734955.0,3
1633,26.0,-2.0,-5.0,-50.0,-102.0,-22.0,-4.0,11.0,1651093989734955.0,3
1634,-15.0,-8.0,3.0,18.0,99.0,33.0,4.0,-2.0,1651093989754213.0,3
1635,-16.0,-7.0,-13.0,-47.0,-128.0,-51.0,-18.0,-13.0,1651093989754213.0,3
1636,19.0,2.0,-6.0,14.0,127.0,-9.0,-2.0,3.0,1651093989755213.0,3
1637,6.0,10.0,13.0,-5.0,-34.0,3.0,6.0,4.0,1651093989755213.0,3
1638,1.0,1.0,6.0,15.0,-107.0,-24.0,-3.0,-9.0,1651093989776592.0,3
1639,-2.0,-13.0,-1.0,-3.0,-7.0,5.0,-3.0,-7.0,1651093989776592.0,3
1640,-6.0,4.0,-2.0,-20.0,-57.0,7.0,-2.0,8.0,1651093989777457.0,3
1641,5.0,6.0,1.0,34.0,-6.0,-2.0,2.0,-2.0,1651093989777457.0,3
1642,2.0,-8.0,-12.0,-18.0,-83.0,-28.0,0.0,8.0,1651093989791417.0,3
1643,9.0,8.0,14.0,15.0,58.0,-36.0,5.0,3.0,1651093989791417.0,3
1644,-16.0,-7.0,10.0,-37.0,-42.0,-4.0,-7.0,5.0,1651093989792417.0,3
1645,11.0,-2.0,-11.0,78.0,33.0,67.0,9.0,-12.0,1651093989792417.0,3
1646,2.0,8.0,17.0,-1.0,-18.0,42.0,2.0,30.0,1651093989814856.0,3
1647,-27.0,-14.0,-26.0,-53.0,-128.0,-74.0,-19.0,-13.0,1651093989814856.0,3
1648,13.0,15.0,22.0,60.0,127.0,67.0,21.0,6.0,1651093989815733.0,3
1649,-12.0,-10.0,-7.0,-65.0,-70.0,3.0,-6.0,-1.0,1651093989815733.0,3
1650,-16.0,-9.0,-23.0,12.0,127.0,9.0,-8.0,-12.0,1651093989837161.0,3
1651,36.0,8.0,15.0,-3.0,-27.0,-25.0,9.0,18.0,1651093989837161.0,3
1652,-7.0,-5.0,10.0,31.0,70.0,42.0,1.0,-9.0,1651093989838038.0,3
1653,-17.0,7.0,0.0,-4.0,-25.0,20.0,-7.0,-6.0,1651093989838038.0,3
1654,3.0,1.0,0.0,6.0,-60.0,20.0,10.0,-4.0,1651093989851185.0,3
1655,-4.0,-10.0,-13.0,-21.0,-62.0,-72.0,-3.0,0.0,1651093989851185.0,3
1656,0.0,-7.0,-6.0,4.0,35.0,-67.0,-7.0,-2.0,1651093989853191.0,3
1657,6.0,2.0,-4.0,-15.0,-59.0,25.0,-8.0,-14.0,1651093989853191.0,3
1658,6.0,3.0,12.0,15.0,95.0,5.0,10.0,7.0,1651093989873621.0,3
1659,0.0,7.0,-4.0,-14.0,-109.0,5.0,-12.0,-32.0,1651093989873621.0,3
1660,-21.0,-9.0,-10.0,-9.0,-128.0,-12.0,0.0,15.0,1651093989875497.0,3
1661,-7.0,1.0,2.0,35.0,127.0,-3.0,6.0,1.0,1651093989875497.0,3
1662,40.0,9.0,5.0,-35.0,-86.0,45.0,10.0,28.0,1651093989897078.0,3
1663,-56.0,-12.0,-12.0,-19.0,16.0,23.0,-12.0,-23.0,1651093989897078.0,3
1664,44.0,4.0,14.0,-45.0,-94.0,-46.0,-2.0,-9.0,1651093989897938.0,3
1665,-16.0,-9.0,-3.0,49.0,45.0,-30.0,-10.0,2.0,1651093989897938.0,3
1666,-39.0,6.0,6.0,-17.0,9.0,-17.0,-2.0,-9.0,1651093989919125.0,3
1667,36.0,8.0,2.0,62.0,97.0,56.0,14.0,25.0,1651093989919125.0,3
1668,-25.0,0.0,-5.0,-16.0,-128.0,-15.0,-5.0,-2.0,1651093989920095.0,3
1669,15.0,-18.0,-8.0,-54.0,-55.0,-33.0,-4.0,6.0,1651093989920095.0,3
1670,-35.0,7.0,14.0,-6.0,27.0,68.0,9.0,-26.0,1651093989934266.0,3
1671,-34.0,3.0,-10.0,9.0,61.0,10.0,-2.0,28.0,1651093989934266.0,3
1672,37.0,3.0,6.0,7.0,61.0,62.0,-6.0,-9.0,1651093989935266.0,3
1673,5.0,-4.0,-3.0,-24.0,-96.0,26.0,0.0,-2.0,1651093989935266.0,3
1674,8.0,-5.0,-12.0,33.0,72.0,-27.0,-12.0,-9.0,1651093989956571.0,3
1675,-23.0,-2.0,16.0,-40.0,-80.0,-25.0,-3.0,-3.0,1651093989956571.0,3
1676,18.0,7.0,-3.0,17.0,-20.0,36.0,16.0,6.0,1651093989957413.0,3
1677,-10.0,4.0,11.0,15.0,104.0,10.0,-7.0,22.0,1651093989957413.0,3
1678,-10.0,-1.0,-10.0,-12.0,-128.0,-16.0,-3.0,0.0,1651093989970856.0,3
1679,54.0,5.0,0.0,11.0,-41.0,63.0,4.0,10.0,1651093989970856.0,3
1680,-38.0,-10.0,-10.0,-30.0,-36.0,-90.0,-10.0,-23.0,1651093989976843.0,3
1681,24.0,7.0,8.0,29.0,48.0,8.0,13.0,12.0,1651093989976843.0,3
1682,1.0,-4.0,-5.0,3.0,51.0,-40.0,-2.0,-4.0,1651093989993403.0,3
1683,-29.0,-3.0,2.0,5.0,-74.0,10.0,6.0,-5.0,1651093989993403.0,3
1684,-3.0,-3.0,-2.0,2.0,99.0,23.0,-3.0,6.0,1651093990001266.0,3
1685,-43.0,2.0,-5.0,-24.0,24.0,12.0,9.0,-4.0,1651093990001266.0,3
1686,52.0,3.0,7.0,29.0,-80.0,-99.0,-11.0,-6.0,1651093990016419.0,3
1687,7.0,-2.0,7.0,-15.0,9.0,34.0,4.0,7.0,1651093990016419.0,3
1688,-11.0,-7.0,-19.0,-13.0,-14.0,-24.0,-9.0,-11.0,1651093990017433.0,3
1689,-5.0,5.0,19.0,41.0,-34.0,65.0,0.0,3.0,1651093990017433.0,3
1690,-5.0,-7.0,-15.0,-20.0,-61.0,-1.0,-7.0,5.0,1651093990039738.0,3
1691,-24.0,-1.0,5.0,-10.0,27.0,-17.0,1.0,1.0,1651093990039738.0,3
1692,25.0,0.0,-2.0,-1.0,-41.0,-46.0,-6.0,5.0,1651093990040738.0,3
1693,9.0,-3.0,-10.0,-16.0,-79.0,-11.0,-2.0,-3.0,1651093990040738.0,3
1694,-28.0,-5.0,0.0,-34.0,12.0,31.0,-3.0,-11.0,1651093990053899.0,3
1695,63.0,-2.0,-6.0,12.0,59.0,-3.0,0.0,2.0,1651093990053899.0,3
1696,-76.0,-8.0,8.0,50.0,39.0,46.0,6.0,-18.0,1651093990054899.0,3
1697,48.0,4.0,-5.0,-6.0,-55.0,5.0,-3.0,14.0,1651093990054899.0,3
1698,-17.0,3.0,-1.0,-11.0,62.0,41.0,-1.0,0.0,1651093990076707.0,3
1699,-23.0,-2.0,-4.0,-8.0,40.0,-47.0,-4.0,-13.0,1651093990076707.0,3
1700,-60.0,1.0,5.0,-15.0,-58.0,-2.0,-2.0,8.0,1651093990077566.0,3
1701,37.0,-10.0,-11.0,-45.0,61.0,8.0,0.0,-9.0,1651093990077566.0,3
1702,3.0,3.0,11.0,66.0,33.0,19.0,1.0,8.0,1651093990090831.0,3
1703,-10.0,4.0,5.0,23.0,54.0,77.0,6.0,-14.0,1651093990090831.0,3
1704,11.0,3.0,-10.0,25.0,34.0,25.0,4.0,-4.0,1651093990097821.0,3
1705,-26.0,-3.0,19.0,-21.0,-106.0,-58.0,-8.0,17.0,1651093990097821.0,3
1706,20.0,2.0,-10.0,-16.0,-34.0,40.0,-12.0,-7.0,1651093990113998.0,3
1707,-40.0,0.0,7.0,-69.0,-103.0,20.0,-1.0,-14.0,1651093990113998.0,3
1708,43.0,-1.0,-8.0,73.0,10.0,-17.0,1.0,-1.0,1651093990114998.0,3
1709,9.0,-2.0,5.0,20.0,41.0,26.0,8.0,15.0,1651093990114998.0,3
1710,-23.0,-7.0,-10.0,-13.0,-8.0,-59.0,-5.0,-12.0,1651093990136332.0,3
1711,19.0,-4.0,-6.0,39.0,-76.0,-32.0,-16.0,2.0,1651093990136332.0,3
1712,59.0,10.0,2.0,-58.0,-15.0,44.0,-1.0,8.0,1651093990137205.0,3
1713,-40.0,1.0,-9.0,13.0,34.0,-32.0,4.0,-19.0,1651093990137205.0,3
1714,49.0,6.0,11.0,7.0,13.0,1.0,4.0,12.0,1651093990150482.0,3
1715,5.0,-5.0,8.0,-6.0,-36.0,-19.0,-1.0,3.0,1651093990150482.0,3
1716,1.0,-2.0,-5.0,-26.0,-24.0,38.0,-4.0,17.0,1651093990157782.0,3
1717,-9.0,6.0,-2.0,30.0,118.0,15.0,-3.0,-22.0,1651093990157782.0,3
1718,31.0,1.0,-3.0,-3.0,-115.0,47.0,8.0,6.0,1651093990173440.0,3
1719,8.0,-2.0,-9.0,-28.0,77.0,-28.0,-8.0,4.0,1651093990173440.0,3
1720,2.0,0.0,16.0,20.0,3.0,56.0,2.0,-24.0,1651093990175319.0,3
1721,-25.0,-10.0,-16.0,-16.0,-39.0,-4.0,1.0,3.0,1651093990175319.0,3
1722,19.0,-6.0,-1.0,32.0,-30.0,-46.0,-6.0,-10.0,1651093990203671.0,3
1723,-36.0,-2.0,-4.0,8.0,96.0,-10.0,4.0,0.0,1651093990203671.0,3
1724,49.0,5.0,4.0,4.0,-51.0,26.0,5.0,28.0,1651093990205555.0,3
1725,5.0,-3.0,-10.0,-25.0,-8.0,-60.0,-8.0,-15.0,1651093990205555.0,3
1726,-71.0,6.0,8.0,-37.0,-33.0,12.0,-1.0,3.0,1651093990209542.0,3
1727,70.0,-3.0,2.0,24.0,52.0,-11.0,-4.0,0.0,1651093990209542.0,3
1728,-10.0,-3.0,-6.0,-8.0,-80.0,-51.0,-2.0,2.0,1651093990218494.0,3
1729,8.0,0.0,5.0,4.0,-21.0,-7.0,4.0,-3.0,1651093990218494.0,3
1730,4.0,-6.0,-9.0,-18.0,-49.0,-30.0,-4.0,-14.0,1651093990233789.0,3
1731,-40.0,9.0,0.0,14.0,-10.0,13.0,0.0,8.0,1651093990233789.0,3
1732,-25.0,1.0,0.0,-29.0,-112.0,-43.0,8.0,-8.0,1651093990235646.0,3
1733,56.0,3.0,5.0,30.0,85.0,4.0,5.0,7.0,1651093990235646.0,3
1734,-25.0,-2.0,-3.0,-15.0,-63.0,-8.0,3.0,-2.0,1651093990256200.0,3
1735,3.0,-2.0,-4.0,-30.0,-60.0,10.0,-6.0,8.0,1651093990256200.0,3
1736,5.0,-3.0,2.0,41.0,118.0,13.0,1.0,2.0,1651093990258076.0,3
1737,-60.0,-1.0,6.0,-8.0,-93.0,20.0,-3.0,1.0,1651093990258076.0,3
1738,51.0,4.0,1.0,-2.0,31.0,-40.0,5.0,7.0,1651093990270240.0,3
1739,-8.0,-10.0,-17.0,-64.0,-93.0,1.0,-10.0,-13.0,1651093990270240.0,3
1740,-47.0,-6.0,-3.0,73.0,-15.0,-66.0,-5.0,-19.0,1651093990279164.0,3
1741,24.0,4.0,10.0,43.0,17.0,9.0,5.0,15.0,1651093990279164.0,3
1742,-18.0,-4.0,2.0,-21.0,5.0,41.0,-16.0,-6.0,1651093990293643.0,3
1743,-5.0,-4.0,-13.0,24.0,-73.0,-63.0,0.0,2.0,1651093990293643.0,3
1744,10.0,6.0,13.0,-30.0,12.0,38.0,7.0,7.0,1651093990295474.0,3
1745,10.0,8.0,8.0,-17.0,-23.0,43.0,-3.0,-12.0,1651093990295474.0,3
1746,-17.0,-6.0,-8.0,8.0,21.0,-23.0,1.0,24.0,1651093990316776.0,3
1747,18.0,1.0,4.0,-19.0,15.0,6.0,0.0,-4.0,1651093990316776.0,3
1748,14.0,-8.0,-8.0,-5.0,-49.0,-17.0,-2.0,-9.0,1651093990317613.0,3
1749,-105.0,3.0,-9.0,-5.0,57.0,6.0,-4.0,-26.0,1651093990317613.0,3
1750,111.0,-1.0,10.0,-25.0,-68.0,-3.0,16.0,12.0,1651093990329742.0,3
1751,14.0,3.0,-9.0,37.0,98.0,40.0,-9.0,15.0,1651093990329742.0,3
1752,-22.0,6.0,7.0,8.0,-49.0,-32.0,23.0,7.0,1651093990345936.0,3
1753,5.0,-9.0,-10.0,-61.0,-115.0,-26.0,-13.0,-9.0,1651093990345936.0,3
1754,-39.0,3.0,9.0,50.0,75.0,-32.0,2.0,-9.0,1651093990354218.0,3
1755,-11.0,0.0,5.0,21.0,41.0,-59.0,4.0,5.0,1651093990354218.0,3
1756,10.0,-2.0,-2.0,2.0,-30.0,33.0,-8.0,-3.0,1651093990355218.0,3
1757,3.0,-7.0,-2.0,-87.0,-13.0,-57.0,-14.0,-10.0,1651093990355218.0,3
1758,-10.0,-16.0,-32.0,-15.0,-79.0,7.0,-5.0,-3.0,1651093990376552.0,3
1759,15.0,-1.0,-8.0,58.0,-35.0,31.0,8.0,6.0,1651093990376552.0,3
1760,-8.0,6.0,14.0,-5.0,10.0,27.0,-10.0,0.0,1651093990377391.0,3
1761,18.0,6.0,9.0,3.0,-28.0,-24.0,8.0,23.0,1651093990377391.0,3
1762,-49.0,4.0,-2.0,-29.0,-3.0,-6.0,1.0,-1.0,1651093990390513.0,3
1763,73.0,5.0,6.0,5.0,39.0,36.0,7.0,0.0,1651093990390513.0,3
1764,-29.0,-22.0,-31.0,-28.0,9.0,-3.0,-10.0,-2.0,1651093990398523.0,3
1765,29.0,6.0,19.0,17.0,-19.0,18.0,-9.0,-9.0,1651093990398523.0,3
1766,-3.0,8.0,9.0,25.0,89.0,-3.0,12.0,-8.0,1651093990413849.0,3
1767,-16.0,0.0,-8.0,-10.0,-62.0,10.0,-1.0,7.0,1651093990413849.0,3
1768,-1.0,0.0,-3.0,-4.0,61.0,-2.0,15.0,-5.0,1651093990414859.0,3
1769,19.0,-5.0,-7.0,14.0,-19.0,-10.0,-4.0,19.0,1651093990414859.0,3
1770,-1.0,2.0,6.0,20.0,55.0,13.0,2.0,-5.0,1651093990436968.0,3
1771,3.0,1.0,9.0,-15.0,-33.0,-6.0,3.0,-7.0,1651093990436968.0,3
1772,-10.0,3.0,-2.0,-21.0,-54.0,-30.0,-13.0,-7.0,1651093990437850.0,3
1773,-12.0,-1.0,-8.0,19.0,66.0,15.0,3.0,-2.0,1651093990437850.0,3
1774,-6.0,-2.0,8.0,20.0,67.0,15.0,2.0,-2.0,1651093990449937.0,3
1775,-17.0,1.0,1.0,-6.0,-81.0,20.0,-5.0,2.0,1651093990449937.0,3
1776,8.0,-2.0,1.0,-5.0,-15.0,-6.0,-12.0,-2.0,1651093990458770.0,3
1777,10.0,1.0,-9.0,13.0,-10.0,-5.0,2.0,-1.0,1651093990458770.0,3
1778,3.0,4.0,8.0,-15.0,31.0,1.0,1.0,5.0,1651093990473956.0,3
1779,-9.0,-2.0,2.0,10.0,11.0,-4.0,-1.0,-5.0,1651093990473956.0,3
1780,10.0,-1.0,-1.0,5.0,45.0,5.0,-2.0,19.0,1651093990474954.0,3
1781,2.0,-3.0,-3.0,0.0,-19.0,-7.0,1.0,-3.0,1651093990474954.0,3
1782,6.0,-1.0,-3.0,-7.0,18.0,25.0,-2.0,5.0,1651093990497413.0,3
1783,-17.0,-7.0,3.0,-1.0,2.0,39.0,12.0,-23.0,1651093990497413.0,3
1784,6.0,11.0,2.0,-7.0,8.0,-67.0,7.0,40.0,1651093990498253.0,3
1785,-11.0,-16.0,-4.0,11.0,47.0,2.0,-1.0,-5.0,1651093990498253.0,3
1786,2.0,7.0,-2.0,-6.0,-34.0,12.0,-3.0,5.0,1651093990510603.0,3
1787,-12.0,1.0,2.0,-18.0,-10.0,-21.0,-11.0,-14.0,1651093990510603.0,3
1788,8.0,0.0,-2.0,9.0,3.0,24.0,-11.0,-7.0,1651093990519255.0,3
1789,4.0,-4.0,-3.0,-1.0,-5.0,11.0,5.0,1.0,1651093990519255.0,3
1790,-4.0,-4.0,-1.0,6.0,5.0,-7.0,-4.0,-3.0,1651093990534291.0,3
1791,-7.0,1.0,1.0,2.0,-7.0,-17.0,4.0,2.0,1651093990534291.0,3
1792,0.0,-3.0,-5.0,-13.0,-3.0,3.0,-5.0,-13.0,1651093990535290.0,3
1793,0.0,-1.0,-1.0,2.0,27.0,2.0,-1.0,3.0,1651093990535290.0,3
1794,-5.0,3.0,3.0,1.0,2.0,7.0,-2.0,-6.0,1651093990556742.0,3
1795,2.0,0.0,-2.0,3.0,-2.0,-20.0,-3.0,3.0,1651093990556742.0,3
1796,-3.0,-2.0,0.0,-1.0,-9.0,-1.0,0.0,-8.0,1651093990558610.0,3
1797,-2.0,1.0,3.0,23.0,86.0,24.0,5.0,1.0,1651093990558610.0,3
1798,6.0,-1.0,-3.0,-5.0,-19.0,-4.0,1.0,1.0,1651093990569768.0,3
1799,-2.0,-2.0,1.0,-7.0,-11.0,-16.0,-1.0,3.0,1651093990569768.0,3
1800,-1.0,1.0,1.0,3.0,41.0,12.0,0.0,-8.0,1651093990578900.0,3
1801,2.0,2.0,-2.0,-6.0,-80.0,2.0,0.0,-3.0,1651093990578900.0,3
1802,0.0,-2.0,-3.0,-2.0,-8.0,-5.0,-2.0,0.0,1651093990594064.0,3
1803,-6.0,-2.0,0.0,-2.0,37.0,-14.0,-9.0,-3.0,1651093990594064.0,3
1804,1.0,-3.0,1.0,-1.0,5.0,20.0,4.0,-3.0,1651093990594901.0,3
1805,4.0,5.0,0.0,3.0,-12.0,-1.0,-3.0,-3.0,1651093990594901.0,3
1806,0.0,-1.0,-3.0,3.0,0.0,-3.0,-2.0,0.0,1651093990616378.0,3
1807,-3.0,1.0,0.0,-5.0,-17.0,-2.0,3.0,2.0,1651093990616378.0,3
1808,-3.0,-1.0,-1.0,-2.0,13.0,-3.0,-1.0,-5.0,1651093990618211.0,3
1809,0.0,-3.0,-1.0,-3.0,-16.0,-6.0,0.0,2.0,1651093990618211.0,3
1810,-4.0,0.0,-3.0,0.0,13.0,-1.0,0.0,0.0,1651093990630383.0,3
1811,3.0,-3.0,-3.0,-1.0,18.0,-3.0,1.0,0.0,1651093990630383.0,3
1812,2.0,-1.0,-3.0,0.0,15.0,1.0,-3.0,-4.0,1651093990655894.0,3
1813,0.0,2.0,6.0,-3.0,-38.0,-4.0,-1.0,1.0,1651093990655894.0,3
1814,-1.0,-1.0,-3.0,6.0,8.0,5.0,-1.0,-2.0,1651093990656776.0,3
1815,-1.0,0.0,-2.0,-2.0,-3.0,-2.0,-2.0,0.0,1651093990656776.0,3
1816,0.0,4.0,2.0,-3.0,-7.0,3.0,2.0,-1.0,1651093990659760.0,3
1817,0.0,-1.0,-3.0,1.0,8.0,3.0,-2.0,-1.0,1651093990659760.0,3
1818,-1.0,-3.0,-2.0,-2.0,-16.0,-2.0,1.0,-1.0,1651093990676961.0,3
1819,-2.0,0.0,3.0,4.0,4.0,-3.0,0.0,1.0,1651093990676961.0,3
1820,1.0,1.0,-4.0,-7.0,1.0,1.0,0.0,0.0,1651093990677859.0,3
1821,-2.0,-4.0,-3.0,5.0,-25.0,-11.0,-2.0,-3.0,1651093990677859.0,3
1822,0.0,-2.0,1.0,2.0,6.0,2.0,-1.0,-1.0,1651093990699081.0,3
1823,-3.0,-3.0,-5.0,-3.0,-17.0,-2.0,1.0,2.0,1651093990699081.0,3
1824,-1.0,0.0,2.0,0.0,10.0,6.0,0.0,-1.0,1651093990700081.0,3
1825,1.0,1.0,1.0,-3.0,8.0,2.0,-1.0,-1.0,1651093990700081.0,3
1826,1.0,0.0,0.0,0.0,-9.0,-6.0,-2.0,1.0,1651093990714216.0,3
1827,-1.0,1.0,-1.0,0.0,-3.0,-7.0,-1.0,1.0,1651093990714216.0,3
1828,-2.0,1.0,-1.0,2.0,0.0,15.0,-2.0,-2.0,1651093990715260.0,3
1829,1.0,-1.0,-6.0,-2.0,-5.0,-9.0,2.0,1.0,1651093990715260.0,3
1830,-2.0,0.0,6.0,2.0,31.0,1.0,1.0,-2.0,1651093990736654.0,3
1831,-2.0,-1.0,-2.0,-2.0,-16.0,-23.0,-3.0,-3.0,1651093990736654.0,3
1832,-1.0,-3.0,-2.0,0.0,7.0,17.0,-2.0,0.0,1651093990737501.0,3
1833,1.0,-2.0,-1.0,2.0,-10.0,-1.0,-2.0,-2.0,1651093990737501.0,3
1834,-3.0,-1.0,-4.0,-4.0,0.0,-2.0,-2.0,-2.0,1651093990758935.0,3
1835,1.0,1.0,0.0,1.0,-9.0,-8.0,0.0,0.0,1651093990758935.0,3
1836,1.0,-2.0,-1.0,-3.0,-40.0,-14.0,-1.0,-2.0,1651093990759775.0,3
1837,0.0,1.0,0.0,2.0,50.0,11.0,1.0,0.0,1651093990759775.0,3
1838,-1.0,0.0,-1.0,-7.0,-14.0,-6.0,-1.0,-1.0,1651093990774434.0,3
1839,-1.0,0.0,2.0,5.0,22.0,9.0,-1.0,0.0,1651093990774434.0,3
1840,-3.0,-2.0,-2.0,-1.0,-25.0,0.0,2.0,-1.0,1651093990775282.0,3
1841,0.0,-2.0,0.0,-2.0,-20.0,0.0,0.0,0.0,1651093990775282.0,3
1842,-1.0,0.0,0.0,7.0,2.0,-9.0,0.0,0.0,1651093990797078.0,3
1843,0.0,-2.0,-4.0,-5.0,-17.0,2.0,0.0,-1.0,1651093990797078.0,3
1844,0.0,1.0,1.0,-6.0,29.0,-4.0,-2.0,0.0,1651093990797913.0,3
1845,-3.0,1.0,0.0,1.0,-20.0,0.0,0.0,-4.0,1651093990797913.0,3
1846,-1.0,0.0,-1.0,-3.0,7.0,0.0,-1.0,0.0,1651093990818228.0,3
1847,0.0,-2.0,-6.0,-3.0,-10.0,-1.0,-1.0,1.0,1651093990818228.0,3
1848,2.0,1.0,7.0,4.0,7.0,4.0,2.0,-2.0,1651093990820223.0,3
1849,-1.0,0.0,-1.0,-2.0,3.0,3.0,-1.0,0.0,1651093990820223.0,3
1850,-2.0,0.0,-2.0,0.0,-15.0,-2.0,-1.0,0.0,1651093990833580.0,3
1851,0.0,0.0,0.0,1.0,3.0,4.0,-1.0,-1.0,1651093990833580.0,3
1852,-1.0,-2.0,-4.0,-1.0,8.0,-11.0,-3.0,0.0,1651093990839458.0,3
1853,-1.0,-1.0,0.0,1.0,11.0,0.0,0.0,0.0,1651093990839458.0,3
1854,0.0,-1.0,-2.0,-5.0,11.0,-2.0,1.0,0.0,1651093990863948.0,3
1855,-1.0,0.0,1.0,3.0,1.0,3.0,1.0,-1.0,1651093990863948.0,3
1856,-2.0,-1.0,1.0,8.0,19.0,0.0,0.0,2.0,1651093990864948.0,3
1857,-2.0,-3.0,0.0,-3.0,-33.0,-4.0,-1.0,0.0,1651093990864948.0,3
1858,1.0,-2.0,-2.0,12.0,-5.0,-2.0,-2.0,0.0,1651093990879060.0,3
1859,-1.0,-1.0,1.0,-6.0,7.0,9.0,1.0,-1.0,1651093990879060.0,3
1860,-1.0,1.0,0.0,-3.0,-4.0,-5.0,-3.0,-1.0,1651093990879908.0,3
1861,0.0,0.0,0.0,0.0,-4.0,-2.0,-1.0,0.0,1651093990879908.0,3
