,EMG_s0,EMG_s1,EMG_s2,EMG_s3,EMG_s4,EMG_s5,EMG_s6,EMG_s7,timestamp,signal
0,-2.0,0.0,0.0,0.0,-7.0,-3.0,-2.0,0.0,1651094176604080.0,0
1,0.0,-3.0,1.0,-1.0,-19.0,-1.0,-2.0,-1.0,1651094176604080.0,0
2,-1.0,-2.0,-4.0,2.0,8.0,0.0,-1.0,0.0,1651094176604977.0,0
3,-1.0,-1.0,-1.0,-3.0,11.0,-3.0,-1.0,-1.0,1651094176604977.0,0
4,0.0,-1.0,0.0,0.0,-10.0,-1.0,0.0,-1.0,1651094176605950.0,0
5,-1.0,0.0,-2.0,-2.0,4.0,0.0,-1.0,-2.0,1651094176605950.0,0
6,0.0,1.0,-2.0,-3.0,-32.0,-4.0,-1.0,-1.0,1651094176606972.0,0
7,0.0,-4.0,-2.0,-1.0,3.0,-1.0,1.0,-1.0,1651094176606972.0,0
8,-2.0,-4.0,-4.0,-2.0,1.0,0.0,0.0,0.0,1651094176614949.0,0
9,0.0,1.0,-1.0,2.0,5.0,1.0,1.0,-1.0,1651094176614949.0,0
10,0.0,0.0,4.0,0.0,0.0,-3.0,-1.0,1.0,1651094176620927.0,0
11,1.0,2.0,-2.0,0.0,-17.0,-2.0,0.0,0.0,1651094176620927.0,0
12,2.0,-1.0,0.0,2.0,44.0,3.0,-1.0,-1.0,1651094176633479.0,0
13,-3.0,-5.0,-6.0,-5.0,-16.0,-5.0,-2.0,-1.0,1651094176633479.0,0
14,-2.0,-3.0,-1.0,-4.0,5.0,0.0,1.0,-2.0,1651094176646549.0,0
15,-2.0,1.0,-1.0,3.0,-10.0,0.0,-2.0,0.0,1651094176646549.0,0
16,0.0,1.0,-1.0,4.0,-23.0,0.0,1.0,1.0,1651094176651450.0,0
17,0.0,-1.0,-2.0,-1.0,49.0,0.0,0.0,2.0,1651094176651450.0,0
18,0.0,1.0,3.0,3.0,-25.0,2.0,3.0,1.0,1651094176676264.0,0
19,-1.0,-1.0,0.0,-3.0,-19.0,-1.0,1.0,-1.0,1651094176676264.0,0
20,-1.0,0.0,-1.0,-1.0,17.0,-1.0,1.0,-1.0,1651094176679102.0,0
21,0.0,0.0,1.0,3.0,9.0,0.0,-1.0,0.0,1651094176679102.0,0
22,-2.0,-1.0,-3.0,-3.0,-10.0,-2.0,-3.0,-1.0,1651094176690095.0,0
23,-2.0,-2.0,-3.0,-3.0,5.0,-1.0,1.0,-1.0,1651094176690095.0,0
24,0.0,2.0,2.0,0.0,0.0,2.0,-1.0,0.0,1651094176731829.0,0
25,0.0,2.0,2.0,-2.0,-11.0,-2.0,-1.0,-1.0,1651094176731829.0,0
26,0.0,-2.0,-2.0,-1.0,4.0,-3.0,-2.0,-1.0,1651094176735817.0,0
27,-1.0,-1.0,-2.0,3.0,-17.0,4.0,0.0,1.0,1651094176735817.0,0
28,0.0,-2.0,-2.0,-3.0,6.0,0.0,0.0,0.0,1651094176736690.0,0
29,0.0,1.0,0.0,4.0,13.0,1.0,0.0,-1.0,1651094176736690.0,0
30,-2.0,3.0,3.0,3.0,1.0,0.0,0.0,-2.0,1651094176736690.0,0
31,1.0,-1.0,-2.0,-1.0,-13.0,1.0,0.0,-2.0,1651094176736690.0,0
32,0.0,-3.0,-2.0,-3.0,-1.0,-2.0,-1.0,-1.0,1651094176740655.0,0
33,0.0,-1.0,-1.0,-1.0,-4.0,-1.0,-1.0,-1.0,1651094176740655.0,0
34,0.0,-1.0,-1.0,-2.0,0.0,2.0,-1.0,-1.0,1651094176755821.0,0
35,-1.0,1.0,2.0,3.0,1.0,1.0,0.0,-1.0,1651094176755821.0,0
36,-1.0,-1.0,1.0,-2.0,-1.0,-1.0,-1.0,0.0,1651094176765115.0,0
37,-1.0,-2.0,-4.0,-1.0,15.0,2.0,0.0,0.0,1651094176765115.0,0
38,-1.0,-1.0,-5.0,-2.0,-12.0,0.0,-1.0,0.0,1651094176771003.0,0
39,1.0,3.0,9.0,1.0,22.0,-1.0,-1.0,0.0,1651094176771003.0,0
40,1.0,0.0,-3.0,1.0,-12.0,-1.0,-1.0,-1.0,1651094176779203.0,0
41,0.0,-2.0,-1.0,-3.0,2.0,-4.0,0.0,-3.0,1651094176779203.0,0
42,-1.0,-4.0,-1.0,-3.0,-1.0,-4.0,0.0,-1.0,1651094176802404.0,0
43,-1.0,-2.0,-3.0,1.0,2.0,-1.0,-1.0,-2.0,1651094176802404.0,0
44,-3.0,2.0,1.0,2.0,5.0,2.0,-1.0,-2.0,1651094176802404.0,0
45,-1.0,-1.0,0.0,-5.0,-3.0,1.0,-1.0,1.0,1651094176802404.0,0
46,-3.0,-1.0,-1.0,-1.0,8.0,-1.0,-1.0,-1.0,1651094176816676.0,0
47,-1.0,0.0,-3.0,0.0,-8.0,0.0,-2.0,0.0,1651094176816676.0,0
48,-2.0,-2.0,-2.0,1.0,-20.0,-3.0,0.0,0.0,1651094176824983.0,0
49,0.0,0.0,-1.0,0.0,-7.0,-2.0,-2.0,-2.0,1651094176824983.0,0
50,1.0,0.0,3.0,1.0,7.0,0.0,-1.0,-1.0,1651094176848408.0,0
51,-1.0,1.0,0.0,-4.0,7.0,-2.0,1.0,0.0,1651094176848408.0,0
52,-1.0,-1.0,-1.0,0.0,-17.0,-5.0,-2.0,-1.0,1651094176848408.0,0
53,0.0,1.0,-5.0,-2.0,22.0,2.0,0.0,-1.0,1651094176848408.0,0
54,-1.0,1.0,1.0,1.0,9.0,4.0,0.0,0.0,1651094176862269.0,0
55,-1.0,-2.0,-4.0,-3.0,-12.0,-4.0,1.0,0.0,1651094176862269.0,0
56,0.0,1.0,3.0,-2.0,2.0,-2.0,0.0,0.0,1651094176862269.0,0
57,0.0,1.0,4.0,0.0,8.0,3.0,1.0,1.0,1651094176862269.0,0
58,1.0,2.0,-1.0,2.0,3.0,-3.0,-1.0,0.0,1651094176878045.0,0
59,1.0,-2.0,0.0,-3.0,15.0,-3.0,1.0,-1.0,1651094176878045.0,0
60,0.0,-1.0,-2.0,5.0,-2.0,3.0,1.0,0.0,1651094176885191.0,0
61,-1.0,-1.0,1.0,1.0,-10.0,-2.0,-1.0,0.0,1651094176885191.0,0
62,0.0,-1.0,0.0,-1.0,3.0,1.0,-2.0,-2.0,1651094176899508.0,0
63,0.0,0.0,-4.0,-5.0,0.0,-2.0,-2.0,-1.0,1651094176899508.0,0
64,-2.0,1.0,-3.0,-3.0,-11.0,1.0,-1.0,-1.0,1651094176900344.0,0
65,0.0,0.0,2.0,-1.0,-5.0,-1.0,1.0,0.0,1651094176900344.0,0
66,-1.0,0.0,-1.0,2.0,10.0,2.0,2.0,1.0,1651094176922166.0,0
67,-2.0,-2.0,-1.0,-2.0,-7.0,-3.0,-1.0,-1.0,1651094176922166.0,0
68,0.0,-2.0,-1.0,-2.0,14.0,-1.0,-1.0,0.0,1651094176922166.0,0
69,0.0,-1.0,-1.0,0.0,-34.0,-4.0,-1.0,-1.0,1651094176922166.0,0
70,0.0,0.0,-1.0,-3.0,1.0,-3.0,-1.0,-1.0,1651094176936456.0,0
71,-1.0,1.0,-5.0,1.0,8.0,0.0,-1.0,-2.0,1651094176936456.0,0
72,0.0,3.0,6.0,-2.0,-10.0,-1.0,-1.0,0.0,1651094176944599.0,0
73,-1.0,-3.0,-2.0,0.0,39.0,0.0,-3.0,-2.0,1651094176944599.0,0
74,1.0,-1.0,1.0,2.0,-17.0,4.0,-1.0,2.0,1651094176959810.0,0
75,0.0,1.0,-1.0,2.0,17.0,1.0,-1.0,0.0,1651094176959810.0,0
76,0.0,-1.0,-3.0,-6.0,25.0,-1.0,0.0,-2.0,1651094176959810.0,0
77,-3.0,-1.0,-1.0,3.0,-17.0,-1.0,0.0,0.0,1651094176959810.0,0
78,0.0,-1.0,-1.0,0.0,-6.0,-2.0,-1.0,-2.0,1651094176982851.0,0
79,-1.0,-1.0,0.0,0.0,-11.0,0.0,0.0,0.0,1651094176982851.0,0
80,-1.0,0.0,1.0,3.0,-25.0,1.0,1.0,0.0,1651094176982851.0,0
81,0.0,-1.0,-2.0,-2.0,6.0,1.0,-1.0,-1.0,1651094176982851.0,0
82,-2.0,-1.0,-3.0,-2.0,-5.0,-1.0,-2.0,-3.0,1651094176996917.0,0
83,1.0,-1.0,0.0,0.0,-6.0,-2.0,0.0,-1.0,1651094176996917.0,0
84,-1.0,1.0,-1.0,-3.0,4.0,-1.0,-1.0,-2.0,1651094177003974.0,0
85,0.0,0.0,0.0,5.0,18.0,4.0,1.0,1.0,1651094177003974.0,0
86,0.0,-4.0,-5.0,0.0,8.0,1.0,1.0,1.0,1651094177019279.0,0
87,-1.0,1.0,3.0,-4.0,-19.0,-2.0,-1.0,-2.0,1651094177019279.0,0
88,0.0,1.0,-1.0,0.0,9.0,-2.0,-1.0,-1.0,1651094177020278.0,0
89,0.0,-2.0,-3.0,1.0,-6.0,0.0,0.0,0.0,1651094177020278.0,0
90,0.0,0.0,1.0,0.0,15.0,-3.0,0.0,-1.0,1651094177042216.0,0
91,-2.0,-2.0,1.0,-3.0,5.0,0.0,-1.0,1.0,1651094177042216.0,0
92,1.0,-1.0,-2.0,1.0,15.0,0.0,-1.0,0.0,1651094177042347.0,0
93,-2.0,1.0,-1.0,2.0,2.0,-1.0,-2.0,-2.0,1651094177042347.0,0
94,-1.0,2.0,0.0,-1.0,-56.0,-4.0,-1.0,-1.0,1651094177064659.0,0
95,-1.0,-3.0,-4.0,-1.0,18.0,0.0,-1.0,-2.0,1651094177064659.0,0
96,-1.0,-3.0,-1.0,-3.0,2.0,1.0,0.0,0.0,1651094177065656.0,0
97,0.0,1.0,2.0,-2.0,3.0,-1.0,0.0,0.0,1651094177065656.0,0
98,0.0,1.0,-1.0,-1.0,2.0,0.0,0.0,0.0,1651094177079803.0,0
99,1.0,1.0,1.0,1.0,15.0,2.0,0.0,-1.0,1651094177079803.0,0
100,-2.0,0.0,-2.0,-1.0,-11.0,-2.0,-1.0,-2.0,1651094177079803.0,0
101,0.0,-3.0,-5.0,-5.0,-19.0,-2.0,0.0,-1.0,1651094177079803.0,0
102,-2.0,0.0,2.0,-3.0,1.0,-4.0,-1.0,0.0,1651094177102108.0,0
103,-1.0,1.0,3.0,-2.0,-39.0,-3.0,-1.0,0.0,1651094177102108.0,0
104,0.0,-1.0,-1.0,5.0,67.0,4.0,1.0,2.0,1651094177102108.0,0
105,-1.0,-1.0,0.0,-1.0,3.0,4.0,1.0,-1.0,1651094177102108.0,0
106,0.0,-1.0,-3.0,-1.0,2.0,0.0,0.0,-1.0,1651094177125558.0,0
107,1.0,-2.0,-3.0,-2.0,-25.0,-3.0,0.0,1.0,1651094177125558.0,0
108,1.0,0.0,1.0,-3.0,-3.0,0.0,-1.0,0.0,1651094177125558.0,0
109,0.0,-1.0,-1.0,-1.0,-5.0,0.0,-1.0,1.0,1651094177125558.0,0
110,-2.0,-2.0,-2.0,-3.0,0.0,-4.0,-1.0,0.0,1651094177139864.0,0
111,-2.0,-3.0,-3.0,0.0,1.0,0.0,-1.0,0.0,1651094177139864.0,0
112,1.0,0.0,0.0,-1.0,-4.0,1.0,2.0,-1.0,1651094177139864.0,0
113,0.0,1.0,1.0,-2.0,-1.0,-4.0,-1.0,0.0,1651094177139864.0,0
114,0.0,0.0,0.0,1.0,1.0,3.0,0.0,0.0,1651094177162152.0,0
115,0.0,-3.0,-3.0,2.0,25.0,1.0,1.0,-1.0,1651094177162152.0,0
116,-3.0,-2.0,0.0,0.0,-25.0,-1.0,-2.0,-1.0,1651094177162152.0,0
117,0.0,0.0,-1.0,-5.0,-13.0,-3.0,-1.0,-1.0,1651094177162152.0,0
118,1.0,-1.0,2.0,0.0,9.0,3.0,-1.0,-1.0,1651094177185456.0,0
119,1.0,1.0,-2.0,-1.0,4.0,0.0,-2.0,-1.0,1651094177185456.0,0
120,1.0,0.0,-2.0,0.0,1.0,1.0,1.0,-1.0,1651094177185456.0,0
121,-1.0,-1.0,-3.0,0.0,-14.0,0.0,-1.0,0.0,1651094177185456.0,0
122,-1.0,0.0,-2.0,-4.0,-2.0,-2.0,-1.0,2.0,1651094177199486.0,0
123,1.0,0.0,-1.0,2.0,-2.0,0.0,1.0,-2.0,1651094177199486.0,0
124,-1.0,-2.0,0.0,1.0,-10.0,0.0,-1.0,-1.0,1651094177199486.0,0
125,0.0,0.0,1.0,-4.0,-1.0,-3.0,-2.0,0.0,1651094177199486.0,0
126,0.0,0.0,1.0,3.0,16.0,1.0,-1.0,-2.0,1651094177221613.0,0
127,-1.0,1.0,1.0,0.0,-36.0,2.0,1.0,1.0,1651094177221613.0,0
128,-2.0,-1.0,-1.0,1.0,8.0,-2.0,-1.0,-1.0,1651094177222611.0,0
129,-1.0,0.0,0.0,1.0,-4.0,3.0,1.0,-1.0,1651094177222611.0,0
130,0.0,0.0,-1.0,-3.0,2.0,-3.0,-1.0,0.0,1651094177245932.0,0
131,-2.0,-4.0,-7.0,-4.0,10.0,-2.0,-3.0,-2.0,1651094177245932.0,0
132,-1.0,0.0,1.0,-4.0,-35.0,-1.0,-2.0,-1.0,1651094177245932.0,0
133,0.0,1.0,2.0,1.0,27.0,4.0,2.0,1.0,1651094177245932.0,0
134,-1.0,0.0,0.0,1.0,-5.0,0.0,-1.0,0.0,1651094177259895.0,0
135,0.0,1.0,1.0,-2.0,0.0,0.0,0.0,0.0,1651094177259895.0,0
136,0.0,-1.0,-4.0,-2.0,-20.0,-4.0,1.0,0.0,1651094177259895.0,0
137,-1.0,-2.0,0.0,3.0,10.0,-1.0,-2.0,-1.0,1651094177259895.0,0
138,0.0,1.0,4.0,2.0,-6.0,0.0,-2.0,0.0,1651094177282327.0,0
139,-2.0,-1.0,0.0,-2.0,4.0,-1.0,-1.0,0.0,1651094177282327.0,0
140,-2.0,0.0,-3.0,-2.0,15.0,-4.0,-2.0,0.0,1651094177282327.0,0
141,-1.0,0.0,0.0,0.0,-6.0,0.0,0.0,0.0,1651094177282327.0,0
142,-1.0,0.0,1.0,1.0,-5.0,1.0,1.0,0.0,1651094177304619.0,0
143,0.0,2.0,2.0,2.0,4.0,-2.0,-2.0,-1.0,1651094177304619.0,0
144,0.0,-1.0,0.0,-1.0,4.0,-1.0,-1.0,0.0,1651094177305617.0,0
145,0.0,-1.0,-2.0,-1.0,7.0,0.0,0.0,0.0,1651094177305617.0,0
146,0.0,-2.0,-1.0,-1.0,-8.0,-2.0,0.0,-2.0,1651094177319760.0,0
147,-2.0,-1.0,-1.0,-3.0,-21.0,-2.0,-1.0,0.0,1651094177319760.0,0
148,-1.0,0.0,5.0,-4.0,28.0,0.0,0.0,-2.0,1651094177319760.0,0
149,1.0,-1.0,-1.0,9.0,35.0,4.0,1.0,0.0,1651094177319760.0,0
150,0.0,0.0,-3.0,-1.0,-5.0,1.0,-1.0,1.0,1651094177342323.0,0
151,0.0,-2.0,-1.0,0.0,7.0,-1.0,0.0,-1.0,1651094177342323.0,0
152,-1.0,1.0,-4.0,1.0,-13.0,-1.0,-1.0,-1.0,1651094177343323.0,0
153,0.0,-2.0,-1.0,-5.0,-29.0,-5.0,-1.0,-1.0,1651094177343323.0,0
154,0.0,-3.0,-1.0,-3.0,18.0,1.0,1.0,-2.0,1651094177365688.0,0
155,1.0,-1.0,1.0,4.0,20.0,3.0,0.0,1.0,1651094177365688.0,0
156,-1.0,0.0,0.0,2.0,-11.0,0.0,1.0,-1.0,1651094177365688.0,0
157,-2.0,-2.0,-1.0,-2.0,4.0,-2.0,-2.0,-2.0,1651094177365688.0,0
158,0.0,1.0,0.0,1.0,-34.0,1.0,0.0,-1.0,1651094177379666.0,0
159,0.0,2.0,1.0,-1.0,0.0,-2.0,-2.0,-1.0,1651094177379666.0,0
160,1.0,0.0,1.0,2.0,6.0,2.0,0.0,1.0,1651094177379666.0,0
161,-2.0,-1.0,-4.0,-3.0,-31.0,-4.0,-1.0,0.0,1651094177379666.0,0
162,-2.0,0.0,-2.0,-4.0,17.0,-3.0,-1.0,-1.0,1651094177402063.0,0
163,-1.0,-2.0,-7.0,-2.0,-11.0,-1.0,0.0,2.0,1651094177402063.0,0
164,2.0,1.0,4.0,6.0,37.0,6.0,0.0,0.0,1651094177402063.0,0
165,0.0,0.0,2.0,-3.0,-39.0,-3.0,0.0,1.0,1651094177402063.0,0
166,-1.0,0.0,-1.0,0.0,7.0,-2.0,0.0,0.0,1651094177425310.0,0
167,-1.0,-2.0,2.0,-1.0,-14.0,-1.0,-2.0,-1.0,1651094177425310.0,0
168,-1.0,-2.0,-3.0,-2.0,5.0,-2.0,0.0,0.0,1651094177425310.0,0
169,0.0,0.0,-1.0,0.0,11.0,-2.0,-3.0,0.0,1651094177425310.0,0
170,1.0,-1.0,-2.0,-3.0,-31.0,0.0,-1.0,0.0,1651094177439134.0,0
171,1.0,0.0,-1.0,-2.0,-4.0,-2.0,1.0,0.0,1651094177439134.0,0
172,1.0,-1.0,-2.0,-2.0,-10.0,-2.0,-1.0,0.0,1651094177440132.0,0
173,-1.0,1.0,2.0,0.0,10.0,0.0,1.0,0.0,1651094177440132.0,0
174,-1.0,-3.0,-1.0,-2.0,-4.0,-4.0,-4.0,1.0,1651094177461307.0,0
175,-1.0,-2.0,-3.0,-3.0,23.0,1.0,0.0,0.0,1651094177461307.0,0
176,-1.0,-1.0,-1.0,4.0,-28.0,0.0,0.0,-1.0,1651094177462307.0,0
177,1.0,1.0,0.0,-2.0,-12.0,-3.0,-1.0,0.0,1651094177462307.0,0
178,-2.0,-3.0,0.0,1.0,13.0,2.0,0.0,1.0,1651094177485727.0,0
179,0.0,-3.0,-3.0,-2.0,-1.0,-1.0,-1.0,-2.0,1651094177485727.0,0
180,-3.0,2.0,5.0,-3.0,10.0,-1.0,0.0,-1.0,1651094177485727.0,0
181,-1.0,0.0,-1.0,-1.0,10.0,3.0,0.0,-2.0,1651094177485727.0,0
182,0.0,0.0,0.0,2.0,-10.0,-1.0,0.0,-3.0,1651094177499740.0,0
183,-1.0,-1.0,2.0,3.0,14.0,-1.0,-2.0,1.0,1651094177499740.0,0
184,-2.0,-2.0,-2.0,-1.0,-6.0,-3.0,0.0,-2.0,1651094177499740.0,0
185,0.0,-1.0,0.0,1.0,-15.0,0.0,1.0,2.0,1651094177499740.0,0
186,1.0,-2.0,-3.0,-3.0,1.0,1.0,0.0,0.0,1651094177521291.0,0
187,-1.0,0.0,1.0,-3.0,-2.0,0.0,-1.0,0.0,1651094177521291.0,0
188,0.0,-1.0,-1.0,-5.0,1.0,-1.0,-1.0,-2.0,1651094177522359.0,0
189,-1.0,-1.0,0.0,3.0,-5.0,-1.0,-1.0,0.0,1651094177522359.0,0
190,-1.0,0.0,0.0,0.0,16.0,-1.0,0.0,-1.0,1651094177544643.0,0
191,1.0,2.0,1.0,3.0,-4.0,1.0,0.0,-2.0,1651094177544643.0,0
192,-1.0,-1.0,-2.0,-1.0,-7.0,0.0,0.0,0.0,1651094177545641.0,0
193,-1.0,-1.0,-2.0,-4.0,7.0,0.0,-1.0,-2.0,1651094177545641.0,0
194,-3.0,-1.0,-2.0,-1.0,-6.0,-1.0,-2.0,-1.0,1651094177559732.0,0
195,-1.0,1.0,0.0,-1.0,9.0,0.0,0.0,0.0,1651094177559732.0,0
196,-1.0,-2.0,-6.0,-2.0,-26.0,0.0,-1.0,-1.0,1651094177559732.0,0
197,-1.0,1.0,4.0,-1.0,-3.0,0.0,1.0,-1.0,1651094177559732.0,0
198,1.0,0.0,1.0,1.0,10.0,-1.0,0.0,-1.0,1651094177582026.0,0
199,-1.0,0.0,0.0,-3.0,3.0,-4.0,-2.0,-1.0,1651094177582026.0,0
200,2.0,-3.0,-1.0,2.0,17.0,9.0,3.0,0.0,1651094177582901.0,0
201,0.0,0.0,-2.0,0.0,-39.0,-1.0,-2.0,-1.0,1651094177582901.0,0
202,-1.0,1.0,-1.0,-3.0,3.0,-2.0,-2.0,-1.0,1651094177605144.0,0
203,-1.0,-1.0,0.0,4.0,-1.0,-1.0,-1.0,-1.0,1651094177605144.0,0
204,-1.0,-1.0,-2.0,-3.0,0.0,-4.0,-2.0,-1.0,1651094177606142.0,0
205,0.0,-1.0,0.0,-1.0,18.0,-2.0,-1.0,0.0,1651094177606142.0,0
206,1.0,0.0,1.0,-1.0,1.0,1.0,0.0,-1.0,1651094177619616.0,0
207,-3.0,-1.0,-4.0,-7.0,-10.0,-1.0,1.0,-1.0,1651094177619616.0,0
208,-1.0,-1.0,-1.0,2.0,-2.0,-3.0,-2.0,-1.0,1651094177626603.0,0
209,1.0,0.0,-1.0,0.0,9.0,0.0,1.0,-2.0,1651094177626603.0,0
210,-2.0,0.0,-2.0,-1.0,-4.0,0.0,0.0,-1.0,1651094177642262.0,0
211,1.0,-1.0,-1.0,-1.0,1.0,1.0,0.0,0.0,1651094177642262.0,0
212,0.0,-1.0,-4.0,4.0,-10.0,-1.0,1.0,0.0,1651094177642262.0,0
213,-1.0,2.0,8.0,-4.0,9.0,0.0,0.0,0.0,1651094177642262.0,0
214,-1.0,1.0,0.0,-2.0,-7.0,-3.0,-1.0,1.0,1651094177665439.0,0
215,0.0,0.0,0.0,3.0,0.0,2.0,0.0,-1.0,1651094177665439.0,0
216,0.0,-1.0,-1.0,-3.0,23.0,2.0,-1.0,0.0,1651094177665439.0,0
217,1.0,-4.0,-5.0,3.0,1.0,-3.0,0.0,0.0,1651094177665439.0,0
218,0.0,0.0,1.0,2.0,5.0,2.0,1.0,-1.0,1651094177679468.0,0
219,-1.0,0.0,1.0,-1.0,-11.0,-1.0,2.0,-1.0,1651094177679468.0,0
220,-2.0,0.0,-1.0,-2.0,12.0,-3.0,0.0,-1.0,1651094177687543.0,0
221,-2.0,0.0,-3.0,-4.0,-18.0,-2.0,-2.0,-1.0,1651094177687543.0,0
222,0.0,-1.0,0.0,0.0,9.0,2.0,-1.0,0.0,1651094177710124.0,0
223,1.0,0.0,1.0,0.0,13.0,0.0,0.0,-1.0,1651094177710124.0,0
224,-1.0,-2.0,1.0,-6.0,-9.0,-3.0,-1.0,0.0,1651094177711961.0,0
225,1.0,-1.0,1.0,4.0,26.0,4.0,1.0,0.0,1651094177711961.0,0
226,-1.0,-2.0,-6.0,1.0,-21.0,-1.0,0.0,-1.0,1651094177725322.0,0
227,-2.0,2.0,4.0,2.0,2.0,0.0,-2.0,0.0,1651094177725322.0,0
228,-1.0,0.0,1.0,2.0,-4.0,1.0,-1.0,0.0,1651094177731310.0,0
229,0.0,2.0,-2.0,-3.0,-4.0,-3.0,-2.0,-1.0,1651094177731310.0,0
230,1.0,-3.0,0.0,-1.0,1.0,-2.0,-2.0,0.0,1651094177748534.0,0
231,1.0,-1.0,-4.0,0.0,14.0,6.0,0.0,-1.0,1651094177748534.0,0
232,-2.0,0.0,-1.0,-6.0,-29.0,-3.0,-1.0,-1.0,1651094177749230.0,0
233,-1.0,-1.0,-2.0,-3.0,8.0,0.0,-7.0,0.0,1651094177749230.0,0
234,1.0,3.0,2.0,7.0,4.0,-2.0,6.0,0.0,1651094177770717.0,0
235,0.0,-1.0,0.0,1.0,-6.0,0.0,8.0,1.0,1651094177770717.0,0
236,1.0,0.0,-1.0,3.0,3.0,1.0,0.0,1.0,1651094177771562.0,0
237,-2.0,-2.0,-1.0,-3.0,-1.0,-1.0,0.0,-2.0,1651094177771562.0,0
238,0.0,-1.0,0.0,-5.0,0.0,-2.0,-9.0,-2.0,1651094177784687.0,0
239,0.0,0.0,2.0,0.0,-9.0,-6.0,-19.0,-1.0,1651094177784687.0,0
240,0.0,1.0,-2.0,-7.0,9.0,1.0,17.0,0.0,1651094177792020.0,0
241,0.0,0.0,-1.0,-2.0,-3.0,5.0,-3.0,1.0,1651094177792020.0,0
242,-1.0,-1.0,0.0,-2.0,7.0,2.0,11.0,-2.0,1651094177809115.0,0
243,-3.0,-5.0,-4.0,2.0,1.0,-12.0,-35.0,-8.0,1651094177809115.0,0
244,-3.0,0.0,1.0,2.0,1.0,-18.0,-12.0,-2.0,1651094177810133.0,0
245,0.0,2.0,0.0,-5.0,5.0,9.0,-6.0,2.0,1651094177810133.0,0
246,2.0,3.0,1.0,-1.0,-14.0,4.0,2.0,5.0,1651094177830413.0,0
247,0.0,-1.0,-2.0,-6.0,-25.0,11.0,63.0,1.0,1651094177830413.0,0
248,1.0,-3.0,-2.0,-6.0,2.0,0.0,-57.0,-2.0,1651094177831249.0,0
249,-4.0,-4.0,-4.0,11.0,-2.0,-33.0,-38.0,-12.0,1651094177831249.0,0
250,-3.0,-2.0,-1.0,-2.0,22.0,-30.0,-29.0,0.0,1651094177852572.0,0
251,7.0,5.0,1.0,10.0,24.0,71.0,84.0,16.0,1651094177852572.0,0
252,-2.0,-1.0,0.0,-2.0,25.0,10.0,-26.0,-9.0,1651094177853604.0,0
253,-6.0,-6.0,-5.0,-51.0,-37.0,-14.0,-50.0,-16.0,1651094177853604.0,1
254,-7.0,-6.0,-8.0,5.0,-44.0,-23.0,-77.0,-12.0,1651094177867912.0,1
255,3.0,3.0,10.0,32.0,53.0,-42.0,47.0,29.0,1651094177867912.0,1
256,8.0,10.0,8.0,13.0,-28.0,52.0,40.0,23.0,1651094177868752.0,1
257,7.0,3.0,4.0,16.0,47.0,22.0,-74.0,2.0,1651094177868752.0,1
258,-5.0,-2.0,-3.0,-38.0,-18.0,2.0,38.0,-22.0,1651094177890296.0,1
259,-11.0,-13.0,-13.0,-26.0,-23.0,-52.0,-92.0,-35.0,1651094177890296.0,1
260,-11.0,-9.0,-9.0,8.0,-27.0,-45.0,65.0,-9.0,1651094177891295.0,1
261,4.0,8.0,11.0,16.0,2.0,77.0,-74.0,17.0,1651094177891295.0,1
262,5.0,0.0,1.0,10.0,0.0,-3.0,26.0,-13.0,1651094177903622.0,1
263,0.0,2.0,1.0,-7.0,-10.0,-15.0,89.0,15.0,1651094177903622.0,1
264,15.0,10.0,8.0,6.0,27.0,72.0,-17.0,34.0,1651094177912684.0,1
265,-5.0,-7.0,-9.0,-14.0,-5.0,-70.0,-41.0,-11.0,1651094177912684.0,1
266,-17.0,-7.0,-4.0,14.0,12.0,-2.0,-51.0,-33.0,1651094177927993.0,1
267,6.0,9.0,6.0,7.0,-11.0,75.0,-5.0,11.0,1651094177927993.0,1
268,-11.0,-3.0,-5.0,-16.0,-15.0,-95.0,-127.0,-32.0,1651094177928841.0,1
269,-1.0,3.0,4.0,-9.0,6.0,13.0,101.0,9.0,1651094177928841.0,1
270,8.0,0.0,0.0,-6.0,-3.0,8.0,-102.0,2.0,1651094177950134.0,1
271,-1.0,-15.0,-16.0,2.0,-23.0,-41.0,65.0,5.0,1651094177950134.0,1
272,15.0,8.0,10.0,-23.0,-2.0,90.0,-14.0,37.0,1651094177951006.0,1
273,-12.0,-3.0,-4.0,54.0,36.0,24.0,-40.0,-7.0,1651094177951006.0,1
274,15.0,10.0,11.0,26.0,15.0,-37.0,76.0,25.0,1651094177964173.0,1
275,-4.0,4.0,-2.0,-14.0,-23.0,-34.0,-128.0,-55.0,1651094177964173.0,1
276,8.0,-5.0,-7.0,-30.0,15.0,-121.0,71.0,29.0,1651094177972476.0,1
277,-3.0,-6.0,-7.0,-28.0,-82.0,8.0,98.0,-2.0,1651094177972476.0,1
278,-26.0,-12.0,-6.0,-15.0,12.0,64.0,-61.0,-37.0,1651094177987505.0,1
279,18.0,9.0,10.0,1.0,-26.0,-21.0,80.0,44.0,1651094177987505.0,1
280,-15.0,-1.0,-3.0,28.0,58.0,-46.0,-5.0,-28.0,1651094177989455.0,1
281,-25.0,-9.0,-5.0,-16.0,-29.0,-75.0,-26.0,-31.0,1651094177989455.0,1
282,22.0,5.0,0.0,18.0,-11.0,2.0,-59.0,29.0,1651094178010907.0,1
283,-7.0,-6.0,-9.0,-16.0,19.0,63.0,49.0,-16.0,1651094178010907.0,1
284,13.0,12.0,9.0,8.0,4.0,28.0,-97.0,-1.0,1651094178011748.0,1
285,9.0,-8.0,-8.0,-28.0,-2.0,-26.0,-23.0,2.0,1651094178011748.0,1
286,10.0,5.0,11.0,-4.0,-13.0,-82.0,124.0,36.0,1651094178023778.0,1
287,12.0,13.0,7.0,-17.0,13.0,-27.0,-107.0,9.0,1651094178023778.0,1
288,-13.0,-5.0,-1.0,44.0,-3.0,19.0,33.0,-28.0,1651094178032688.0,1
289,-4.0,-2.0,-1.0,15.0,14.0,89.0,-43.0,-29.0,1651094178032688.0,1
290,0.0,0.0,2.0,-52.0,-21.0,38.0,5.0,8.0,1651094178048795.0,1
291,-37.0,-9.0,-8.0,69.0,61.0,31.0,-107.0,-15.0,1651094178048795.0,1
292,15.0,-11.0,-17.0,-19.0,-24.0,47.0,127.0,21.0,1651094178053785.0,1
293,46.0,14.0,7.0,47.0,12.0,-38.0,-73.0,31.0,1651094178053785.0,1
294,-49.0,-15.0,-4.0,-27.0,-14.0,-19.0,42.0,-61.0,1651094178069767.0,1
295,-18.0,0.0,6.0,-60.0,-36.0,-73.0,-74.0,-42.0,1651094178069767.0,1
296,15.0,-2.0,-9.0,25.0,-23.0,-15.0,-92.0,6.0,1651094178071761.0,1
297,24.0,3.0,-2.0,-93.0,-25.0,85.0,31.0,28.0,1651094178071761.0,1
298,-4.0,5.0,0.0,115.0,48.0,8.0,103.0,5.0,1651094178083729.0,1
299,-8.0,3.0,9.0,-17.0,7.0,-72.0,-26.0,-17.0,1651094178083729.0,1
300,-17.0,-11.0,-14.0,-25.0,-32.0,-128.0,-128.0,-40.0,1651094178091865.0,1
301,-36.0,-10.0,4.0,42.0,-17.0,1.0,127.0,7.0,1651094178091865.0,1
302,-22.0,-1.0,2.0,-40.0,-9.0,35.0,-80.0,-16.0,1651094178109057.0,1
303,-32.0,-10.0,-8.0,24.0,-17.0,60.0,13.0,-15.0,1651094178109057.0,1
304,82.0,11.0,2.0,-20.0,22.0,71.0,48.0,79.0,1651094178110032.0,1
305,28.0,4.0,-4.0,-24.0,23.0,16.0,53.0,41.0,1651094178110032.0,1
306,-22.0,7.0,4.0,19.0,26.0,127.0,6.0,4.0,1651094178130345.0,1
307,24.0,-6.0,-5.0,-25.0,-3.0,127.0,-46.0,21.0,1651094178130345.0,1
308,-90.0,-13.0,-7.0,-53.0,-39.0,-66.0,83.0,-78.0,1651094178131194.0,1
309,33.0,-4.0,-1.0,33.0,20.0,-24.0,84.0,8.0,1651094178131194.0,1
310,-10.0,-6.0,-3.0,48.0,18.0,-57.0,-89.0,-5.0,1651094178144448.0,1
311,-14.0,13.0,6.0,-22.0,-37.0,-16.0,8.0,20.0,1651094178144448.0,1
312,37.0,3.0,8.0,-35.0,8.0,-44.0,-97.0,-41.0,1651094178152981.0,1
313,-14.0,0.0,-2.0,72.0,3.0,-21.0,13.0,-17.0,1651094178152981.0,1
314,12.0,-5.0,0.0,-19.0,1.0,43.0,-27.0,2.0,1651094178166939.0,1
315,9.0,-1.0,-7.0,20.0,-13.0,-128.0,-2.0,21.0,1651094178166939.0,1
316,-17.0,-3.0,4.0,52.0,7.0,-14.0,-34.0,35.0,1651094178168935.0,1
317,-45.0,-8.0,-2.0,-41.0,7.0,45.0,22.0,-41.0,1651094178168935.0,1
318,-10.0,-2.0,-5.0,-31.0,-1.0,-1.0,59.0,-24.0,1651094178190041.0,1
319,27.0,5.0,1.0,18.0,-7.0,-40.0,30.0,37.0,1651094178190041.0,1
320,-8.0,9.0,6.0,-4.0,9.0,127.0,-59.0,-32.0,1651094178191872.0,1
321,-30.0,-6.0,-3.0,-21.0,-18.0,62.0,60.0,-42.0,1651094178191872.0,1
322,100.0,19.0,1.0,9.0,-6.0,-113.0,60.0,125.0,1651094178203841.0,1
323,-27.0,-10.0,-1.0,15.0,-15.0,-67.0,29.0,-75.0,1651094178203841.0,1
324,-63.0,-2.0,2.0,37.0,14.0,-30.0,35.0,5.0,1651094178213265.0,1
325,83.0,8.0,-1.0,28.0,2.0,-57.0,-128.0,57.0,1651094178213265.0,1
326,34.0,7.0,2.0,-21.0,3.0,-27.0,10.0,0.0,1651094178227485.0,1
327,-5.0,-5.0,0.0,-18.0,-1.0,127.0,85.0,5.0,1651094178227485.0,1
328,-13.0,-5.0,4.0,-31.0,3.0,20.0,68.0,-10.0,1651094178228484.0,1
329,-81.0,-15.0,-3.0,26.0,20.0,-62.0,-70.0,-67.0,1651094178228484.0,1
330,56.0,19.0,3.0,24.0,12.0,-125.0,-59.0,45.0,1651094178250921.0,1
331,41.0,1.0,0.0,-29.0,38.0,88.0,-19.0,43.0,1651094178250921.0,1
332,-51.0,-2.0,-4.0,8.0,-11.0,127.0,-51.0,-49.0,1651094178251755.0,1
333,18.0,3.0,12.0,19.0,13.0,25.0,70.0,46.0,1651094178251755.0,1
334,11.0,0.0,7.0,35.0,-12.0,53.0,-101.0,-1.0,1651094178264243.0,1
335,-4.0,-5.0,-5.0,27.0,28.0,-83.0,-10.0,-18.0,1651094178264243.0,1
336,-39.0,-13.0,-12.0,-59.0,-45.0,-43.0,-93.0,-53.0,1651094178272061.0,1
337,7.0,2.0,-3.0,-27.0,2.0,-122.0,-9.0,16.0,1651094178272061.0,1
338,-5.0,-7.0,-6.0,4.0,-6.0,73.0,95.0,26.0,1651094178287410.0,1
339,25.0,8.0,14.0,31.0,21.0,88.0,0.0,10.0,1651094178287410.0,1
340,12.0,-5.0,-4.0,1.0,6.0,-11.0,14.0,-9.0,1651094178289274.0,1
341,5.0,13.0,6.0,-23.0,-16.0,45.0,60.0,21.0,1651094178289274.0,1
342,-110.0,-16.0,-13.0,-45.0,-27.0,29.0,-83.0,-90.0,1651094178310768.0,1
343,74.0,8.0,6.0,42.0,40.0,125.0,90.0,60.0,1651094178310768.0,1
344,80.0,5.0,1.0,11.0,0.0,-113.0,25.0,47.0,1651094178311604.0,1
345,-37.0,-1.0,-13.0,3.0,13.0,70.0,7.0,-34.0,1651094178311604.0,1
346,4.0,-1.0,11.0,-27.0,-7.0,-2.0,-61.0,32.0,1651094178323926.0,1
347,-26.0,-8.0,-10.0,-10.0,-25.0,5.0,-33.0,-63.0,1651094178323926.0,1
348,32.0,4.0,-3.0,27.0,-8.0,45.0,-30.0,80.0,1651094178332316.0,1
349,7.0,6.0,15.0,-8.0,-7.0,-53.0,-48.0,19.0,1651094178332316.0,1
350,-46.0,-9.0,-10.0,18.0,9.0,23.0,5.0,-54.0,1651094178348460.0,1
351,-8.0,-9.0,-17.0,-20.0,-8.0,-10.0,-31.0,-26.0,1651094178348460.0,1
352,-35.0,-7.0,10.0,1.0,-9.0,-46.0,-50.0,-17.0,1651094178349329.0,1
353,74.0,15.0,8.0,23.0,17.0,21.0,43.0,52.0,1651094178349329.0,1
354,-9.0,0.0,-4.0,-28.0,-20.0,32.0,64.0,-10.0,1651094178370497.0,1
355,-27.0,-12.0,-8.0,3.0,-10.0,-3.0,-56.0,-57.0,1651094178370497.0,1
356,0.0,12.0,6.0,-38.0,43.0,23.0,-5.0,45.0,1651094178371459.0,1
357,-18.0,-17.0,-12.0,-84.0,-31.0,33.0,-98.0,-55.0,1651094178371459.0,1
358,35.0,14.0,7.0,109.0,19.0,-81.0,127.0,64.0,1651094178383426.0,1
359,1.0,1.0,22.0,37.0,18.0,30.0,-41.0,16.0,1651094178383426.0,1
360,7.0,-7.0,-10.0,-19.0,-5.0,127.0,-39.0,-31.0,1651094178392403.0,1
361,-62.0,-7.0,-1.0,-26.0,-25.0,-104.0,64.0,-50.0,1651094178392403.0,1
362,59.0,9.0,3.0,-44.0,17.0,28.0,24.0,56.0,1651094178407395.0,1
363,-53.0,-9.0,-10.0,57.0,7.0,-84.0,2.0,-11.0,1651094178407395.0,1
364,58.0,14.0,11.0,35.0,18.0,1.0,41.0,68.0,1651094178421325.0,1
365,-38.0,-11.0,-8.0,-9.0,1.0,3.0,-128.0,-60.0,1651094178421325.0,1
366,17.0,-9.0,-10.0,-2.0,-11.0,-61.0,102.0,-7.0,1651094178430706.0,1
367,25.0,7.0,6.0,-41.0,-13.0,95.0,-44.0,12.0,1651094178430706.0,1
368,-44.0,-1.0,4.0,29.0,-9.0,-66.0,66.0,-26.0,1651094178435852.0,1
369,45.0,-2.0,-8.0,5.0,5.0,53.0,28.0,43.0,1651094178435852.0,1
370,-26.0,-21.0,-17.0,-46.0,-13.0,-56.0,-84.0,-19.0,1651094178443674.0,1
371,34.0,8.0,5.0,7.0,40.0,51.0,85.0,36.0,1651094178443674.0,1
372,-28.0,3.0,8.0,-19.0,-31.0,-35.0,-72.0,-24.0,1651094178453292.0,1
373,-18.0,-1.0,-2.0,54.0,13.0,111.0,-17.0,5.0,1651094178453292.0,1
374,-38.0,-17.0,18.0,-41.0,-5.0,63.0,-19.0,-62.0,1651094178467286.0,1
375,20.0,5.0,-26.0,11.0,-2.0,-33.0,58.0,41.0,1651094178467286.0,1
376,-23.0,-4.0,-6.0,-9.0,12.0,27.0,-35.0,-49.0,1651094178469314.0,1
377,-9.0,1.0,4.0,17.0,-18.0,45.0,54.0,-8.0,1651094178469314.0,1
378,13.0,7.0,10.0,3.0,-4.0,-34.0,-33.0,74.0,1651094178490810.0,1
379,-19.0,-16.0,-25.0,-35.0,-21.0,-7.0,-12.0,-49.0,1651094178490810.0,1
380,28.0,2.0,15.0,-9.0,-4.0,3.0,17.0,35.0,1651094178491681.0,1
381,-8.0,3.0,-17.0,-5.0,29.0,35.0,-51.0,-33.0,1651094178491681.0,1
382,-17.0,13.0,30.0,42.0,0.0,-30.0,-77.0,4.0,1651094178513140.0,1
383,12.0,-10.0,-7.0,-32.0,-31.0,-19.0,-1.0,1.0,1651094178513140.0,1
384,-28.0,-16.0,-11.0,-38.0,-16.0,-22.0,-33.0,-68.0,1651094178514031.0,1
385,36.0,6.0,-3.0,43.0,27.0,-41.0,37.0,52.0,1651094178514031.0,1
386,4.0,-3.0,-18.0,-31.0,1.0,125.0,20.0,22.0,1651094178527640.0,1
387,-61.0,12.0,30.0,65.0,4.0,-15.0,-96.0,-46.0,1651094178527640.0,1
388,51.0,10.0,2.0,21.0,-3.0,45.0,109.0,76.0,1651094178528641.0,1
389,50.0,-6.0,2.0,-75.0,-29.0,-82.0,-89.0,-21.0,1651094178528641.0,1
390,-6.0,-3.0,-11.0,6.0,21.0,127.0,18.0,-19.0,1651094178549725.0,1
391,-42.0,2.0,-4.0,-35.0,-12.0,-7.0,3.0,3.0,1651094178549725.0,1
392,-12.0,-10.0,-18.0,8.0,-10.0,80.0,-4.0,-15.0,1651094178551579.0,1
393,29.0,2.0,5.0,14.0,-1.0,-47.0,58.0,-7.0,1651094178551579.0,1
394,-45.0,-6.0,-4.0,-27.0,-14.0,-1.0,-125.0,-66.0,1651094178580367.0,1
395,47.0,2.0,-5.0,-51.0,-19.0,-60.0,96.0,70.0,1651094178580367.0,1
396,-29.0,-5.0,-11.0,9.0,18.0,29.0,-56.0,-38.0,1651094178581229.0,1
397,-40.0,15.0,12.0,39.0,-8.0,85.0,100.0,-11.0,1651094178581229.0,1
398,51.0,-3.0,20.0,35.0,9.0,-25.0,78.0,52.0,1651094178587346.0,1
399,-53.0,-6.0,-9.0,-39.0,-10.0,3.0,-97.0,-61.0,1651094178587346.0,1
400,78.0,12.0,1.0,28.0,-9.0,-60.0,94.0,118.0,1651094178589239.0,1
401,-5.0,-15.0,-8.0,-32.0,-27.0,-62.0,-128.0,4.0,1651094178589239.0,1
402,-11.0,-10.0,-10.0,-3.0,9.0,-16.0,27.0,-68.0,1651094178609543.0,1
403,-23.0,13.0,15.0,6.0,-9.0,-79.0,14.0,6.0,1651094178609543.0,1
404,-3.0,1.0,20.0,-16.0,-5.0,-53.0,79.0,-16.0,1651094178611540.0,1
405,6.0,-10.0,-33.0,-4.0,-7.0,112.0,-49.0,-18.0,1651094178611540.0,1
406,-35.0,7.0,25.0,34.0,-6.0,-87.0,14.0,-3.0,1651094178632030.0,1
407,97.0,-5.0,0.0,-21.0,13.0,40.0,-77.0,115.0,1651094178632030.0,1
408,-36.0,-3.0,-11.0,26.0,0.0,-30.0,43.0,-47.0,1651094178640008.0,1
409,28.0,16.0,-15.0,-15.0,5.0,6.0,0.0,51.0,1651094178640008.0,1
410,-10.0,-10.0,4.0,-31.0,-16.0,1.0,-45.0,-71.0,1651094178646985.0,1
411,-36.0,-2.0,-1.0,21.0,18.0,24.0,66.0,-43.0,1651094178646985.0,1
412,-10.0,-20.0,-26.0,10.0,41.0,78.0,-63.0,-31.0,1651094178653178.0,1
413,39.0,12.0,29.0,30.0,12.0,-82.0,24.0,48.0,1651094178653178.0,1
414,54.0,-1.0,-11.0,21.0,-10.0,109.0,43.0,69.0,1651094178670334.0,1
415,15.0,28.0,36.0,-10.0,2.0,-25.0,82.0,20.0,1651094178670334.0,1
416,-17.0,-23.0,-50.0,-6.0,-13.0,-54.0,24.0,-9.0,1651094178671175.0,1
417,-85.0,-4.0,8.0,-27.0,7.0,8.0,-72.0,-86.0,1651094178671175.0,1
418,-15.0,-3.0,4.0,-19.0,6.0,-89.0,34.0,4.0,1651094178693522.0,1
419,61.0,11.0,26.0,40.0,-8.0,33.0,-56.0,34.0,1651094178693522.0,1
420,-12.0,12.0,-21.0,-27.0,-19.0,24.0,-6.0,7.0,1651094178693743.0,1
421,-28.0,0.0,-1.0,27.0,-6.0,-63.0,53.0,17.0,1651094178693743.0,1
422,8.0,-21.0,-18.0,-17.0,14.0,0.0,-128.0,-60.0,1651094178706903.0,1
423,23.0,7.0,-3.0,-2.0,9.0,7.0,32.0,53.0,1651094178706903.0,1
424,-6.0,4.0,27.0,17.0,22.0,-31.0,98.0,0.0,1651094178714092.0,1
425,18.0,4.0,8.0,-9.0,-23.0,86.0,-22.0,5.0,1651094178714092.0,1
426,-15.0,-13.0,-26.0,-1.0,4.0,-21.0,-21.0,13.0,1651094178729714.0,1
427,-30.0,-15.0,-6.0,36.0,14.0,47.0,-30.0,-46.0,1651094178729714.0,1
428,10.0,5.0,-4.0,-12.0,6.0,47.0,-43.0,15.0,1651094178731622.0,1
429,23.0,-6.0,-1.0,-5.0,-5.0,-60.0,-35.0,5.0,1651094178731622.0,1
430,-9.0,17.0,20.0,-2.0,-19.0,-42.0,80.0,-13.0,1651094178753253.0,1
431,-57.0,-18.0,-10.0,-11.0,-13.0,23.0,-35.0,-63.0,1651094178753253.0,1
432,29.0,-1.0,11.0,23.0,15.0,-61.0,43.0,45.0,1651094178753767.0,1
433,2.0,8.0,4.0,9.0,15.0,0.0,30.0,32.0,1651094178753767.0,1
434,-57.0,-1.0,1.0,12.0,0.0,44.0,-26.0,-81.0,1651094178767562.0,1
435,84.0,-6.0,-62.0,-17.0,-3.0,25.0,-69.0,57.0,1651094178767562.0,1
436,-29.0,23.0,71.0,-18.0,-17.0,-75.0,90.0,-48.0,1651094178773703.0,1
437,-26.0,-8.0,16.0,-29.0,24.0,81.0,-23.0,73.0,1651094178773703.0,1
438,74.0,13.0,-46.0,20.0,-17.0,14.0,-14.0,25.0,1651094178791006.0,1
439,-14.0,-2.0,16.0,-1.0,-17.0,-107.0,24.0,-13.0,1651094178791006.0,1
440,-55.0,-16.0,13.0,20.0,-8.0,39.0,-73.0,-88.0,1651094178791880.0,1
441,8.0,3.0,-67.0,-61.0,-5.0,-36.0,28.0,36.0,1651094178791880.0,1
442,-18.0,6.0,44.0,25.0,12.0,34.0,7.0,7.0,1651094178813342.0,1
443,-67.0,-5.0,-4.0,-14.0,9.0,45.0,-5.0,-58.0,1651094178813342.0,1
444,127.0,10.0,1.0,-10.0,-43.0,-77.0,-43.0,90.0,1651094178814143.0,1
445,-39.0,-10.0,35.0,44.0,0.0,-17.0,-95.0,-60.0,1651094178814143.0,1
446,-21.0,-3.0,-23.0,-10.0,-4.0,-50.0,77.0,26.0,1651094178827111.0,1
447,-7.0,-2.0,-13.0,-9.0,-2.0,-2.0,28.0,-29.0,1651094178827111.0,1
448,-14.0,-12.0,-19.0,9.0,18.0,64.0,-19.0,-27.0,1651094178841562.0,1
449,7.0,7.0,15.0,-19.0,-22.0,-35.0,-31.0,17.0,1651094178841562.0,1
450,30.0,3.0,-15.0,-1.0,13.0,63.0,32.0,16.0,1651094178850530.0,1
451,-16.0,-13.0,16.0,26.0,6.0,-53.0,-14.0,-14.0,1651094178850530.0,1
452,-8.0,8.0,-1.0,-19.0,-7.0,99.0,33.0,21.0,1651094178851373.0,1
453,20.0,-25.0,-5.0,21.0,-3.0,-112.0,-65.0,-34.0,1651094178851373.0,1
454,-2.0,17.0,-2.0,6.0,24.0,53.0,11.0,53.0,1651094178873518.0,1
455,-23.0,-6.0,4.0,-86.0,-11.0,97.0,-14.0,-31.0,1651094178873518.0,1
456,4.0,-1.0,-20.0,70.0,-2.0,-61.0,30.0,7.0,1651094178873738.0,1
457,-32.0,10.0,26.0,24.0,20.0,-66.0,40.0,-14.0,1651094178873738.0,1
458,28.0,-9.0,-22.0,-50.0,-33.0,-98.0,-67.0,24.0,1651094178886864.0,1
459,-32.0,10.0,52.0,43.0,-6.0,-75.0,107.0,6.0,1651094178886864.0,1
460,35.0,-7.0,-41.0,-23.0,14.0,-67.0,-92.0,-5.0,1651094178894034.0,1
461,-3.0,2.0,16.0,-8.0,-19.0,47.0,35.0,80.0,1651094178894034.0,1
462,23.0,9.0,7.0,17.0,14.0,19.0,39.0,-47.0,1651094178909280.0,1
463,14.0,2.0,-25.0,-35.0,-28.0,-69.0,-70.0,14.0,1651094178909280.0,1
464,8.0,-8.0,11.0,11.0,29.0,58.0,30.0,16.0,1651094178917431.0,1
465,-87.0,-20.0,-35.0,21.0,8.0,57.0,-19.0,-109.0,1651094178917431.0,1
466,-25.0,-4.0,-35.0,-23.0,-17.0,-54.0,59.0,53.0,1651094178932424.0,1
467,88.0,18.0,41.0,-35.0,-6.0,57.0,42.0,31.0,1651094178932424.0,1
468,-66.0,1.0,6.0,31.0,1.0,58.0,-6.0,-80.0,1651094178934422.0,1
469,77.0,16.0,22.0,32.0,29.0,26.0,76.0,101.0,1651094178934422.0,1
470,17.0,-9.0,-18.0,-10.0,-1.0,33.0,-126.0,-7.0,1651094178947745.0,1
471,-55.0,-11.0,12.0,-19.0,-9.0,-67.0,-8.0,-65.0,1651094178947745.0,1
472,-11.0,3.0,-11.0,-8.0,-34.0,-81.0,-69.0,28.0,1651094178953901.0,1
473,16.0,-24.0,-35.0,-22.0,-17.0,-1.0,36.0,-29.0,1651094178953901.0,1
474,-36.0,24.0,97.0,52.0,40.0,44.0,-64.0,-61.0,1651094178970314.0,1
475,-1.0,5.0,-36.0,35.0,16.0,21.0,53.0,40.0,1651094178970314.0,1
476,55.0,3.0,9.0,-33.0,26.0,115.0,3.0,65.0,1651094178971331.0,1
477,-50.0,-14.0,-39.0,-9.0,-9.0,5.0,12.0,-97.0,1651094178971331.0,1
478,-67.0,-22.0,-13.0,-35.0,-34.0,-72.0,-54.0,31.0,1651094178992639.0,1
479,76.0,-12.0,-21.0,3.0,47.0,-32.0,-40.0,21.0,1651094178992639.0,1
480,39.0,21.0,7.0,1.0,-16.0,76.0,95.0,35.0,1651094178993639.0,1
481,34.0,17.0,16.0,36.0,-2.0,-77.0,27.0,30.0,1651094178993639.0,1
482,-64.0,-6.0,7.0,-29.0,-23.0,19.0,51.0,-32.0,1651094179015915.0,1
483,-30.0,-13.0,-3.0,1.0,14.0,12.0,-36.0,-35.0,1651094179015915.0,1
484,-50.0,-16.0,-18.0,-20.0,-20.0,-103.0,-88.0,-65.0,1651094179016767.0,1
485,36.0,-3.0,-58.0,8.0,37.0,97.0,123.0,74.0,1651094179016767.0,1
486,64.0,18.0,68.0,16.0,28.0,67.0,5.0,-12.0,1651094179031351.0,1
487,-29.0,27.0,51.0,10.0,-39.0,22.0,-64.0,9.0,1651094179031351.0,1
488,-12.0,-6.0,-16.0,-12.0,-14.0,-72.0,-56.0,22.0,1651094179037049.0,1
489,-34.0,-1.0,1.0,64.0,27.0,-18.0,15.0,-40.0,1651094179037049.0,1
490,34.0,-3.0,-37.0,0.0,21.0,47.0,21.0,57.0,1651094179053317.0,1
491,32.0,-27.0,-36.0,-25.0,-3.0,21.0,-16.0,15.0,1651094179053317.0,1
492,0.0,9.0,32.0,-12.0,-4.0,13.0,47.0,33.0,1651094179053907.0,1
493,-15.0,3.0,4.0,-16.0,-13.0,83.0,-86.0,-40.0,1651094179053907.0,1
494,-3.0,-7.0,-26.0,-19.0,-16.0,-1.0,13.0,-2.0,1651094179067235.0,1
495,-34.0,-7.0,4.0,25.0,10.0,-19.0,88.0,-9.0,1651094179067235.0,1
496,47.0,16.0,27.0,0.0,-8.0,60.0,-65.0,-3.0,1651094179075214.0,1
497,2.0,9.0,16.0,-21.0,-32.0,-101.0,-1.0,-19.0,1651094179075214.0,1
498,16.0,0.0,7.0,7.0,1.0,33.0,-4.0,46.0,1651094179090507.0,1
499,-97.0,-11.0,-71.0,-37.0,-55.0,-89.0,-62.0,-60.0,1651094179090507.0,1
500,41.0,-2.0,30.0,30.0,33.0,-25.0,106.0,32.0,1651094179091349.0,1
501,51.0,13.0,31.0,14.0,32.0,104.0,34.0,46.0,1651094179091349.0,1
502,23.0,-10.0,10.0,2.0,-15.0,33.0,-9.0,-6.0,1651094179112738.0,1
503,-42.0,21.0,-3.0,-3.0,-25.0,70.0,1.0,-22.0,1651094179112738.0,1
504,-47.0,-21.0,-63.0,11.0,-4.0,-60.0,-45.0,-34.0,1651094179113707.0,1
505,36.0,1.0,60.0,41.0,35.0,-27.0,-65.0,-1.0,1651094179113707.0,1
506,-12.0,3.0,-45.0,-66.0,-9.0,12.0,78.0,-3.0,1651094179126833.0,1
507,-39.0,-7.0,23.0,71.0,41.0,36.0,-40.0,-14.0,1651094179126833.0,1
508,71.0,12.0,15.0,-27.0,-8.0,-38.0,39.0,36.0,1651094179136041.0,1
509,5.0,4.0,9.0,-26.0,-13.0,-2.0,-10.0,-6.0,1651094179136041.0,1
510,-64.0,-17.0,-29.0,22.0,5.0,39.0,-82.0,-82.0,1651094179150383.0,1
511,70.0,-1.0,1.0,-15.0,7.0,9.0,61.0,53.0,1651094179150383.0,1
512,-29.0,-11.0,4.0,-10.0,5.0,38.0,-48.0,-15.0,1651094179151382.0,1
513,-66.0,4.0,-19.0,-16.0,-16.0,-83.0,-56.0,-10.0,1651094179151382.0,1
514,112.0,15.0,7.0,3.0,-3.0,-43.0,82.0,84.0,1651094179172827.0,1
515,30.0,4.0,8.0,-22.0,2.0,45.0,-58.0,-10.0,1651094179172827.0,1
516,-83.0,-4.0,-8.0,32.0,17.0,31.0,29.0,-50.0,1651094179173660.0,1
517,-40.0,-18.0,14.0,-33.0,-19.0,78.0,11.0,-42.0,1651094179173660.0,1
518,-11.0,8.0,1.0,16.0,7.0,-18.0,-22.0,9.0,1651094179187149.0,1
519,32.0,5.0,-32.0,7.0,15.0,19.0,12.0,26.0,1651094179187149.0,1
520,8.0,-13.0,39.0,8.0,12.0,-31.0,-79.0,-9.0,1651094179202291.0,1
521,-9.0,2.0,-17.0,-16.0,-8.0,1.0,94.0,-10.0,1651094179202291.0,1
522,-18.0,1.0,21.0,3.0,-6.0,-9.0,-22.0,-24.0,1651094179210401.0,1
523,13.0,2.0,-16.0,30.0,3.0,-42.0,11.0,1.0,1651094179210401.0,1
524,15.0,7.0,-3.0,-17.0,-2.0,-15.0,2.0,13.0,1651094179211303.0,1
525,1.0,-6.0,-9.0,-63.0,-18.0,7.0,-54.0,-18.0,1651094179211303.0,1
526,-4.0,-11.0,-25.0,69.0,29.0,-73.0,74.0,-3.0,1651094179232710.0,1
527,-5.0,4.0,38.0,17.0,6.0,81.0,22.0,-4.0,1651094179232710.0,1
528,15.0,1.0,-14.0,-19.0,-26.0,-29.0,23.0,8.0,1651094179234241.0,1
529,2.0,-4.0,9.0,-1.0,-10.0,22.0,-57.0,25.0,1651094179234241.0,1
530,-13.0,-7.0,-14.0,-20.0,-6.0,11.0,-14.0,-11.0,1651094179246209.0,1
531,16.0,6.0,15.0,-1.0,2.0,34.0,-91.0,-9.0,1651094179246209.0,1
532,-25.0,6.0,2.0,8.0,1.0,33.0,48.0,-23.0,1651094179255521.0,1
533,0.0,-7.0,-17.0,-4.0,-5.0,9.0,53.0,5.0,1651094179255521.0,1
534,8.0,-2.0,7.0,-5.0,1.0,-44.0,-29.0,-14.0,1651094179270749.0,1
535,18.0,-2.0,-6.0,3.0,-7.0,44.0,28.0,20.0,1651094179270749.0,1
536,-23.0,-5.0,-8.0,-12.0,-10.0,35.0,-22.0,-6.0,1651094179271624.0,1
537,18.0,7.0,1.0,12.0,8.0,39.0,3.0,-4.0,1651094179271624.0,1
538,-20.0,-2.0,1.0,-9.0,-14.0,-25.0,-50.0,-17.0,1651094179293207.0,1
539,-2.0,-1.0,-4.0,-4.0,8.0,-48.0,68.0,18.0,1651094179293207.0,1
540,-5.0,3.0,4.0,12.0,7.0,32.0,-10.0,-1.0,1651094179294121.0,1
541,10.0,-1.0,0.0,11.0,3.0,5.0,7.0,0.0,1651094179294121.0,1
542,-1.0,0.0,-6.0,-5.0,12.0,5.0,5.0,0.0,1651094179306448.0,1
543,-1.0,-7.0,-5.0,-13.0,-22.0,-26.0,-29.0,2.0,1651094179306448.0,1
544,-14.0,-1.0,1.0,-13.0,-1.0,-8.0,21.0,-3.0,1651094179315606.0,1
545,-12.0,0.0,-1.0,21.0,1.0,1.0,-12.0,-2.0,1651094179315606.0,1
546,-20.0,-8.0,1.0,-10.0,-3.0,-22.0,-67.0,-1.0,1651094179330917.0,1
547,45.0,14.0,23.0,4.0,3.0,15.0,62.0,15.0,1651094179330917.0,1
548,5.0,1.0,5.0,-4.0,-2.0,17.0,9.0,4.0,1651094179331789.0,1
549,5.0,-1.0,-10.0,-18.0,3.0,13.0,-7.0,22.0,1651094179331789.0,1
550,3.0,2.0,3.0,13.0,6.0,14.0,-25.0,-25.0,1651094179352622.0,1
551,-19.0,-6.0,-28.0,-4.0,-21.0,-34.0,-2.0,1.0,1651094179352622.0,1
552,-13.0,5.0,23.0,7.0,-2.0,9.0,-2.0,-3.0,1651094179353623.0,1
553,7.0,-1.0,2.0,0.0,3.0,-35.0,-11.0,-1.0,1651094179353623.0,1
554,-1.0,-1.0,-2.0,-6.0,-9.0,-6.0,17.0,1.0,1651094179366879.0,1
555,-11.0,-4.0,-8.0,-3.0,1.0,4.0,-19.0,-1.0,1651094179366879.0,1
556,8.0,-4.0,-11.0,-1.0,0.0,34.0,9.0,-4.0,1651094179375225.0,1
557,3.0,-2.0,3.0,0.0,12.0,-33.0,1.0,8.0,1651094179375225.0,1
558,5.0,5.0,5.0,-5.0,1.0,39.0,17.0,5.0,1651094179390385.0,1
559,-7.0,-3.0,14.0,4.0,-3.0,-9.0,5.0,-9.0,1651094179390385.0,1
560,-2.0,-2.0,-11.0,0.0,11.0,-7.0,-14.0,3.0,1651094179391226.0,1
561,5.0,-1.0,-3.0,-4.0,-47.0,3.0,5.0,-4.0,1651094179391226.0,1
562,7.0,-2.0,3.0,4.0,3.0,7.0,9.0,15.0,1651094179412577.0,1
563,-2.0,2.0,-3.0,-1.0,32.0,-21.0,-11.0,2.0,1651094179412577.0,1
564,-4.0,-2.0,1.0,-1.0,45.0,-4.0,2.0,-5.0,1651094179413576.0,1
565,4.0,5.0,2.0,9.0,-18.0,-10.0,0.0,-2.0,1651094179413576.0,1
566,2.0,0.0,2.0,-10.0,-74.0,6.0,-1.0,-7.0,1651094179435026.0,1
567,-7.0,-4.0,-4.0,-8.0,2.0,-20.0,-3.0,4.0,1651094179435026.0,1
568,-3.0,-2.0,-9.0,1.0,26.0,17.0,-5.0,0.0,1651094179436891.0,1
569,4.0,0.0,3.0,4.0,43.0,-2.0,3.0,-3.0,1651094179436891.0,1
570,2.0,3.0,8.0,11.0,63.0,13.0,7.0,2.0,1651094179450147.0,1
571,-6.0,-4.0,-8.0,-11.0,-92.0,-13.0,-4.0,-2.0,1651094179450147.0,1
572,0.0,-7.0,-9.0,-7.0,-67.0,-8.0,-4.0,-2.0,1651094179464212.0,1
573,6.0,7.0,-3.0,10.0,-47.0,2.0,0.0,4.0,1651094179464212.0,1
574,1.0,2.0,8.0,-6.0,-48.0,-6.0,5.0,-3.0,1651094179480303.0,1
575,-3.0,2.0,7.0,1.0,60.0,-4.0,-2.0,1.0,1651094179480303.0,1
576,-1.0,2.0,-1.0,-1.0,30.0,5.0,-5.0,-4.0,1651094179481304.0,1
577,-2.0,-6.0,-8.0,-7.0,10.0,-15.0,-2.0,0.0,1651094179481304.0,1
578,0.0,0.0,-5.0,-3.0,-9.0,13.0,5.0,1.0,1651094179495429.0,1
579,-2.0,-1.0,4.0,1.0,-12.0,2.0,-1.0,1.0,1651094179495429.0,1
580,-3.0,-2.0,-4.0,0.0,36.0,-7.0,-6.0,-3.0,1651094179496264.0,1
581,-1.0,-4.0,-15.0,-3.0,-36.0,0.0,-2.0,-6.0,1651094179496264.0,1
582,2.0,4.0,19.0,6.0,-7.0,6.0,7.0,-1.0,1651094179509469.0,1
583,-1.0,-2.0,-1.0,-11.0,10.0,-4.0,-4.0,2.0,1651094179509469.0,1
584,-3.0,0.0,-2.0,12.0,26.0,4.0,0.0,0.0,1651094179516613.0,1
585,1.0,1.0,5.0,-1.0,-29.0,-12.0,-4.0,1.0,1651094179516613.0,1
586,2.0,-1.0,-8.0,2.0,32.0,5.0,-1.0,-3.0,1651094179532897.0,1
587,1.0,-1.0,-4.0,-2.0,-26.0,4.0,8.0,2.0,1651094179532897.0,1
588,0.0,0.0,-2.0,-6.0,-22.0,-4.0,-3.0,-1.0,1651094179533731.0,1
589,0.0,-1.0,6.0,-1.0,115.0,3.0,-1.0,-2.0,1651094179533731.0,1
590,1.0,0.0,-3.0,4.0,-40.0,-9.0,-1.0,0.0,1651094179553902.0,1
591,1.0,0.0,7.0,11.0,7.0,8.0,1.0,1.0,1651094179553902.0,1
592,-1.0,-1.0,-7.0,-11.0,-46.0,12.0,-1.0,-2.0,1651094179562977.0,1
593,-2.0,-1.0,4.0,1.0,51.0,5.0,-3.0,0.0,1651094179562977.0,1
594,0.0,0.0,-2.0,-1.0,-1.0,0.0,2.0,0.0,1651094179570628.0,1
595,-1.0,-3.0,0.0,5.0,22.0,-3.0,-1.0,0.0,1651094179570628.0,1
596,0.0,-3.0,-1.0,-3.0,-15.0,-4.0,-4.0,-2.0,1651094179576610.0,1
597,0.0,0.0,3.0,-1.0,-67.0,-15.0,2.0,1.0,1651094179576610.0,1
598,-1.0,-1.0,-4.0,-2.0,13.0,18.0,0.0,-1.0,1651094179593605.0,1
599,-3.0,-2.0,-8.0,-2.0,-20.0,6.0,-1.0,-2.0,1651094179593605.0,1
600,-1.0,1.0,3.0,-2.0,-87.0,-17.0,-3.0,-1.0,1651094179595599.0,1
601,-2.0,0.0,5.0,3.0,55.0,9.0,-2.0,0.0,1651094179595599.0,1
602,0.0,1.0,-3.0,1.0,-8.0,-8.0,0.0,1.0,1651094179615697.0,1
603,0.0,-2.0,0.0,-7.0,1.0,-6.0,-2.0,-2.0,1651094179615697.0,1
604,0.0,-3.0,-6.0,-1.0,-27.0,-1.0,-2.0,-1.0,1651094179616543.0,1
605,1.0,1.0,-2.0,-4.0,-41.0,-14.0,-3.0,-1.0,1651094179616543.0,1
606,-1.0,2.0,8.0,1.0,-10.0,8.0,0.0,0.0,1651094179629720.0,1
607,0.0,-1.0,-8.0,4.0,55.0,2.0,1.0,-2.0,1651094179629720.0,1
608,-1.0,-3.0,0.0,-7.0,-37.0,2.0,2.0,2.0,1651094179636866.0,1
609,-1.0,-3.0,-5.0,-3.0,-12.0,-1.0,-1.0,-1.0,1651094179636866.0,1
610,-1.0,-2.0,-1.0,-7.0,45.0,-1.0,0.0,0.0,1651094179652101.0,1
611,1.0,2.0,1.0,1.0,-16.0,-2.0,0.0,-1.0,1651094179652101.0,1
612,0.0,1.0,-2.0,3.0,14.0,-3.0,-1.0,-1.0,1651094179654188.0,1
613,0.0,0.0,3.0,2.0,32.0,9.0,2.0,2.0,1651094179654188.0,1
614,0.0,1.0,-2.0,6.0,15.0,4.0,0.0,1.0,1651094179675387.0,1
615,-2.0,0.0,1.0,0.0,-36.0,-11.0,-2.0,-2.0,1651094179675387.0,1
616,-1.0,2.0,1.0,1.0,57.0,0.0,0.0,-1.0,1651094179676231.0,1
617,0.0,-2.0,-1.0,-2.0,-55.0,5.0,1.0,1.0,1651094179676231.0,1
618,0.0,-2.0,-4.0,-9.0,-20.0,-10.0,-5.0,-3.0,1651094179690242.0,1
619,-1.0,1.0,1.0,5.0,26.0,0.0,-2.0,0.0,1651094179690242.0,1
620,2.0,2.0,2.0,5.0,3.0,-6.0,0.0,1.0,1651094179696305.0,1
621,-1.0,1.0,7.0,-3.0,-1.0,-2.0,0.0,-1.0,1651094179696305.0,1
622,-2.0,-5.0,-14.0,-9.0,-5.0,-3.0,0.0,-1.0,1651094179713351.0,1
623,0.0,0.0,7.0,9.0,48.0,5.0,0.0,0.0,1651094179713351.0,1
624,0.0,-1.0,0.0,4.0,-33.0,4.0,2.0,0.0,1651094179714308.0,1
625,-1.0,2.0,1.0,-2.0,12.0,-8.0,-2.0,1.0,1651094179714308.0,1
626,-1.0,0.0,0.0,-1.0,1.0,-2.0,0.0,-3.0,1651094179735648.0,1
627,-3.0,0.0,-2.0,1.0,-8.0,-3.0,-1.0,0.0,1651094179735648.0,1
628,0.0,0.0,3.0,0.0,7.0,6.0,1.0,0.0,1651094179736568.0,1
629,0.0,0.0,-3.0,-2.0,-2.0,0.0,-1.0,0.0,1651094179736568.0,1
630,-1.0,-4.0,-4.0,-7.0,12.0,2.0,0.0,-2.0,1651094179749747.0,1
631,-1.0,-3.0,-2.0,1.0,-8.0,-6.0,0.0,-2.0,1651094179749747.0,1
632,2.0,-1.0,-3.0,6.0,21.0,2.0,1.0,-1.0,1651094179756887.0,1
633,0.0,2.0,7.0,0.0,-38.0,5.0,1.0,-1.0,1651094179756887.0,1
634,0.0,-1.0,-1.0,3.0,9.0,-6.0,-3.0,0.0,1651094179772914.0,1
635,-1.0,-1.0,0.0,-11.0,-26.0,1.0,0.0,0.0,1651094179772914.0,1
636,0.0,-4.0,-6.0,-3.0,-12.0,-13.0,0.0,0.0,1651094179773915.0,1
637,0.0,-1.0,-2.0,3.0,45.0,7.0,-1.0,-1.0,1651094179773915.0,1
638,1.0,3.0,8.0,3.0,-12.0,-1.0,0.0,0.0,1651094179795356.0,1
639,2.0,-2.0,-13.0,4.0,33.0,5.0,2.0,1.0,1651094179795356.0,1
640,-1.0,0.0,12.0,-2.0,-10.0,4.0,-3.0,-2.0,1651094179796210.0,1
641,0.0,-1.0,-4.0,-6.0,-8.0,-8.0,-1.0,-1.0,1651094179796210.0,1
642,-1.0,-1.0,0.0,2.0,-9.0,8.0,-1.0,0.0,1651094179809365.0,1
643,-2.0,-3.0,-2.0,-7.0,-109.0,-7.0,-1.0,-2.0,1651094179809365.0,1
644,0.0,0.0,-5.0,1.0,76.0,3.0,0.0,0.0,1651094179816509.0,1
645,-2.0,-4.0,-3.0,-3.0,23.0,-11.0,-2.0,-1.0,1651094179816509.0,1
646,-2.0,2.0,3.0,5.0,5.0,10.0,3.0,2.0,1651094179832654.0,1
647,0.0,0.0,5.0,1.0,-17.0,-4.0,-1.0,2.0,1651094179832654.0,1
648,0.0,0.0,0.0,-2.0,-4.0,3.0,-1.0,-1.0,1651094179833655.0,1
649,-1.0,0.0,-2.0,-9.0,-10.0,-8.0,-1.0,-1.0,1651094179833655.0,1
650,2.0,-2.0,-3.0,0.0,-2.0,-4.0,1.0,-1.0,1651094179854846.0,1
651,1.0,1.0,1.0,1.0,39.0,5.0,-1.0,-1.0,1651094179854846.0,1
652,0.0,-2.0,-1.0,5.0,-6.0,7.0,1.0,0.0,1651094179856877.0,1
653,-2.0,-1.0,3.0,2.0,-12.0,1.0,-1.0,0.0,1651094179856877.0,1
654,-1.0,0.0,-3.0,-7.0,8.0,-6.0,2.0,-1.0,1651094179870178.0,1
655,0.0,2.0,1.0,-6.0,19.0,2.0,-2.0,0.0,1651094179870178.0,1
656,-1.0,-1.0,0.0,4.0,-78.0,-1.0,1.0,0.0,1651094179876327.0,1
657,0.0,-3.0,-5.0,1.0,7.0,-4.0,-1.0,-3.0,1651094179876327.0,1
658,-1.0,-2.0,-3.0,-2.0,-7.0,0.0,-1.0,0.0,1651094179892527.0,1
659,-1.0,1.0,7.0,-2.0,-5.0,-1.0,-1.0,-2.0,1651094179892527.0,1
660,-1.0,1.0,-5.0,-3.0,46.0,-3.0,-2.0,-2.0,1651094179893526.0,1
661,0.0,-1.0,-3.0,3.0,-1.0,5.0,0.0,1.0,1651094179893526.0,1
662,0.0,0.0,2.0,4.0,-26.0,-10.0,0.0,-1.0,1651094179915146.0,1
663,0.0,-1.0,0.0,-2.0,-2.0,8.0,-1.0,0.0,1651094179915146.0,1
664,-3.0,-2.0,-1.0,-6.0,-19.0,-5.0,-2.0,0.0,1651094179916018.0,1
665,0.0,1.0,0.0,1.0,-14.0,6.0,2.0,-1.0,1651094179916018.0,1
666,-1.0,-6.0,-14.0,-1.0,43.0,1.0,-3.0,-3.0,1651094179930256.0,1
667,-1.0,4.0,12.0,2.0,-26.0,-5.0,-1.0,-1.0,1651094179930256.0,1
668,-1.0,3.0,7.0,-2.0,22.0,2.0,-2.0,-1.0,1651094179936397.0,1
669,-1.0,0.0,-4.0,-1.0,-42.0,1.0,0.0,0.0,1651094179936397.0,1
670,0.0,-1.0,-1.0,-5.0,-26.0,-4.0,-2.0,-1.0,1651094179952603.0,1
671,1.0,-4.0,-9.0,2.0,7.0,-2.0,2.0,0.0,1651094179952603.0,1
672,0.0,-3.0,-2.0,-8.0,12.0,0.0,0.0,0.0,1651094179953604.0,1
673,-1.0,-3.0,0.0,-1.0,-7.0,-2.0,-1.0,-2.0,1651094179953604.0,1
674,-2.0,1.0,-1.0,1.0,10.0,2.0,-1.0,-2.0,1651094179975120.0,1
675,-1.0,1.0,-2.0,0.0,-9.0,1.0,-1.0,0.0,1651094179975120.0,1
676,1.0,0.0,-1.0,-3.0,24.0,-6.0,-1.0,-1.0,1651094179976963.0,1
677,2.0,2.0,2.0,2.0,1.0,12.0,0.0,3.0,1651094179976963.0,1
678,2.0,0.0,2.0,-1.0,-1.0,-4.0,-1.0,0.0,1651094179988961.0,1
679,0.0,-3.0,2.0,2.0,24.0,-2.0,0.0,0.0,1651094179988961.0,1
680,-1.0,1.0,-1.0,-1.0,0.0,-2.0,0.0,0.0,1651094179998043.0,1
681,-2.0,-5.0,-8.0,-5.0,13.0,2.0,-1.0,-3.0,1651094179998043.0,1
682,0.0,-1.0,3.0,0.0,-9.0,-13.0,-2.0,-3.0,1651094180013001.0,1
683,-1.0,1.0,2.0,4.0,-5.0,2.0,0.0,0.0,1651094180013001.0,1
684,0.0,-5.0,-4.0,0.0,16.0,2.0,0.0,-1.0,1651094180013847.0,1
685,-1.0,-1.0,3.0,2.0,-9.0,-9.0,-1.0,0.0,1651094180013847.0,1
686,0.0,0.0,-1.0,-3.0,-3.0,0.0,0.0,1.0,1651094180035296.0,1
687,-1.0,-2.0,-3.0,-4.0,1.0,-4.0,-2.0,-1.0,1651094180035296.0,1
688,0.0,1.0,2.0,4.0,-25.0,4.0,-1.0,0.0,1651094180036150.0,1
689,-1.0,-1.0,-6.0,0.0,20.0,-3.0,-1.0,0.0,1651094180036150.0,1
690,-2.0,4.0,12.0,-2.0,7.0,-3.0,1.0,-1.0,1651094180049079.0,1
691,-2.0,-1.0,-4.0,-2.0,-7.0,11.0,1.0,-2.0,1651094180049079.0,1
692,-2.0,-2.0,-4.0,0.0,10.0,-8.0,-1.0,-1.0,1651094180057309.0,1
693,-2.0,-1.0,-2.0,-3.0,0.0,10.0,-1.0,0.0,1651094180057309.0,1
694,1.0,-2.0,-4.0,2.0,-1.0,-1.0,0.0,2.0,1651094180073472.0,1
695,0.0,-2.0,0.0,2.0,-9.0,-10.0,-1.0,-2.0,1651094180073472.0,1
696,0.0,-3.0,0.0,-6.0,7.0,7.0,-1.0,-3.0,1651094180074324.0,1
697,0.0,-3.0,-3.0,2.0,-37.0,10.0,0.0,-3.0,1651094180074324.0,1
698,1.0,3.0,3.0,3.0,42.0,7.0,2.0,2.0,1651094180095702.0,1
699,1.0,1.0,0.0,-3.0,-10.0,-8.0,-2.0,-1.0,1651094180095702.0,1
700,-1.0,-5.0,-15.0,0.0,-12.0,0.0,1.0,0.0,1651094180096631.0,1
701,0.0,2.0,12.0,2.0,43.0,0.0,0.0,-1.0,1651094180096631.0,1
702,0.0,-1.0,-1.0,0.0,-10.0,-3.0,-2.0,-3.0,1651094180117940.0,1
703,-2.0,2.0,3.0,-2.0,21.0,-1.0,0.0,1.0,1651094180117940.0,1
704,0.0,3.0,0.0,4.0,-24.0,-3.0,0.0,1.0,1651094180118773.0,1
705,-1.0,0.0,-6.0,-11.0,0.0,-10.0,-2.0,-3.0,1651094180118773.0,1
706,-3.0,-3.0,-5.0,4.0,0.0,4.0,-1.0,-2.0,1651094180132891.0,1
707,0.0,-4.0,-2.0,3.0,0.0,-2.0,-2.0,-3.0,1651094180132891.0,1
708,-1.0,0.0,3.0,4.0,-8.0,-1.0,0.0,-1.0,1651094180133796.0,1
709,0.0,1.0,1.0,-8.0,-4.0,-3.0,-1.0,-1.0,1651094180133796.0,1
710,-2.0,0.0,1.0,-5.0,-3.0,-1.0,-2.0,-1.0,1651094180154995.0,1
711,0.0,0.0,0.0,12.0,1.0,0.0,1.0,0.0,1651094180154995.0,1
712,-1.0,0.0,0.0,-2.0,9.0,3.0,-1.0,0.0,1651094180156989.0,1
713,-1.0,-1.0,-7.0,-12.0,-13.0,-14.0,-2.0,-1.0,1651094180156989.0,1
714,0.0,0.0,7.0,35.0,1.0,2.0,0.0,0.0,1651094180177336.0,1
715,-2.0,-2.0,-2.0,-5.0,-4.0,2.0,0.0,0.0,1651094180177336.0,1
716,1.0,1.0,3.0,6.0,28.0,2.0,-1.0,0.0,1651094180179388.0,1
717,1.0,-1.0,0.0,-4.0,-10.0,-4.0,-3.0,0.0,1651094180179388.0,1
718,-2.0,-1.0,-6.0,-18.0,3.0,-10.0,-2.0,2.0,1651094180192523.0,1
719,1.0,0.0,-2.0,-2.0,-30.0,6.0,0.0,1.0,1651094180192523.0,1
720,0.0,0.0,4.0,-3.0,12.0,-5.0,0.0,-1.0,1651094180193522.0,1
721,0.0,1.0,-1.0,7.0,56.0,9.0,1.0,-1.0,1651094180193522.0,1
722,-1.0,-5.0,-5.0,-9.0,-11.0,-5.0,-1.0,-1.0,1651094180215949.0,1
723,-1.0,-2.0,-5.0,0.0,22.0,2.0,-1.0,0.0,1651094180215949.0,1
724,-2.0,-2.0,0.0,-7.0,-12.0,-2.0,-1.0,-2.0,1651094180216851.0,1
725,0.0,-1.0,1.0,7.0,-15.0,-7.0,-1.0,-1.0,1651094180216851.0,1
726,1.0,1.0,0.0,0.0,-11.0,-1.0,0.0,1.0,1651094180228931.0,1
727,0.0,3.0,5.0,-6.0,20.0,5.0,0.0,-2.0,1651094180228931.0,1
728,1.0,2.0,-1.0,-7.0,-24.0,-9.0,-1.0,0.0,1651094180237200.0,1
729,0.0,-3.0,2.0,15.0,-8.0,-4.0,0.0,0.0,1651094180237200.0,1
730,1.0,-5.0,-6.0,-2.0,8.0,8.0,-1.0,-2.0,1651094180253454.0,1
731,-1.0,-1.0,-3.0,-7.0,-14.0,-6.0,-1.0,0.0,1651094180253454.0,1
732,-1.0,1.0,1.0,2.0,2.0,0.0,-1.0,1.0,1651094180254125.0,1
733,0.0,2.0,1.0,-2.0,-6.0,5.0,0.0,0.0,1651094180254125.0,1
734,-2.0,1.0,-2.0,-9.0,-19.0,-7.0,0.0,-1.0,1651094180275406.0,1
735,0.0,-2.0,-1.0,0.0,23.0,2.0,-2.0,0.0,1651094180275406.0,1
736,0.0,-1.0,0.0,2.0,5.0,5.0,-1.0,-1.0,1651094180276270.0,1
737,-1.0,-1.0,-3.0,-19.0,-23.0,-1.0,2.0,0.0,1651094180276270.0,1
738,0.0,0.0,2.0,23.0,-8.0,4.0,-2.0,-2.0,1651094180288237.0,1
739,-1.0,-1.0,-8.0,8.0,3.0,-9.0,-1.0,-1.0,1651094180288237.0,1
740,-2.0,0.0,1.0,9.0,9.0,-4.0,-1.0,-1.0,1651094180298068.0,1
741,0.0,-2.0,-1.0,-3.0,9.0,-2.0,-1.0,0.0,1651094180298068.0,1
742,-1.0,1.0,-2.0,-11.0,-11.0,0.0,0.0,1.0,1651094180312331.0,1
743,0.0,2.0,3.0,-9.0,-23.0,-3.0,-1.0,-1.0,1651094180312331.0,1
744,1.0,-4.0,-12.0,-1.0,0.0,2.0,1.0,-1.0,1651094180314328.0,1
745,1.0,3.0,7.0,2.0,-12.0,2.0,1.0,-2.0,1651094180314328.0,1
746,0.0,1.0,6.0,-3.0,40.0,-3.0,-2.0,0.0,1651094180334724.0,1
747,-1.0,0.0,-2.0,1.0,6.0,12.0,-1.0,0.0,1651094180334724.0,1
748,0.0,-1.0,1.0,-5.0,-11.0,3.0,-1.0,1.0,1651094180336581.0,1
749,-1.0,0.0,-4.0,-2.0,-9.0,-11.0,-2.0,-2.0,1651094180336581.0,1
750,-1.0,-2.0,-4.0,1.0,18.0,6.0,-1.0,-1.0,1651094180349345.0,1
751,-1.0,1.0,4.0,5.0,-22.0,-14.0,-1.0,-1.0,1651094180349345.0,1
752,-1.0,0.0,-2.0,-4.0,1.0,11.0,3.0,-1.0,1651094180363892.0,1
753,-2.0,-3.0,-2.0,5.0,-9.0,2.0,-1.0,0.0,1651094180363892.0,1
754,0.0,-2.0,-3.0,-9.0,-3.0,-5.0,0.0,-1.0,1651094180373268.0,1
755,-1.0,-4.0,-5.0,-2.0,10.0,0.0,-1.0,0.0,1651094180373268.0,1
756,0.0,3.0,5.0,-2.0,-23.0,-2.0,0.0,0.0,1651094180373900.0,1
757,0.0,4.0,5.0,4.0,15.0,-3.0,-2.0,1.0,1651094180373900.0,0
758,0.0,-1.0,-2.0,-5.0,-8.0,3.0,0.0,-1.0,1651094180395555.0,0
759,-2.0,-3.0,-3.0,-3.0,7.0,-11.0,-2.0,-2.0,1651094180395555.0,0
760,0.0,-4.0,-3.0,0.0,3.0,-1.0,-1.0,-3.0,1651094180396438.0,0
761,-1.0,0.0,1.0,1.0,-4.0,18.0,-2.0,-1.0,1651094180396438.0,0
762,0.0,0.0,-2.0,-4.0,-2.0,-4.0,4.0,0.0,1651094180417592.0,0
763,-1.0,-2.0,0.0,-3.0,-20.0,-6.0,0.0,-1.0,1651094180417592.0,0
764,-1.0,1.0,-1.0,1.0,18.0,-6.0,1.0,0.0,1651094180418456.0,0
765,0.0,1.0,-1.0,-2.0,-13.0,-1.0,-3.0,-1.0,1651094180418456.0,0
766,-1.0,-3.0,-1.0,0.0,-19.0,7.0,0.0,-2.0,1651094180433751.0,0
767,1.0,0.0,-1.0,3.0,-6.0,-7.0,-2.0,0.0,1651094180433751.0,0
768,-1.0,0.0,0.0,-2.0,-24.0,-3.0,-3.0,-2.0,1651094180434618.0,0
769,0.0,-2.0,-1.0,-7.0,22.0,-1.0,4.0,-1.0,1651094180434618.0,0
770,0.0,1.0,-2.0,17.0,14.0,8.0,-3.0,0.0,1651094180454758.0,0
771,1.0,1.0,2.0,-5.0,-4.0,-2.0,1.0,0.0,1651094180454758.0,0
772,-1.0,2.0,5.0,2.0,8.0,5.0,-8.0,-2.0,1651094180456784.0,0
773,-1.0,-3.0,-5.0,-1.0,-2.0,-6.0,8.0,-1.0,1651094180456784.0,0
774,1.0,2.0,2.0,-7.0,-20.0,1.0,20.0,3.0,1651094180477491.0,0
775,0.0,-1.0,-4.0,-1.0,3.0,5.0,-2.0,-1.0,1651094180477491.0,0
776,-1.0,-4.0,-3.0,2.0,-6.0,-2.0,-1.0,0.0,1651094180478528.0,0
777,0.0,-2.0,-7.0,0.0,6.0,-2.0,-11.0,0.0,1651094180478528.0,0
778,0.0,1.0,4.0,-8.0,-44.0,-6.0,-9.0,-4.0,1651094180492610.0,0
779,0.0,3.0,7.0,-6.0,17.0,2.0,5.0,-2.0,1651094180492610.0,0
780,0.0,1.0,-3.0,12.0,6.0,3.0,-1.0,0.0,1651094180493450.0,0
781,-1.0,-1.0,1.0,2.0,-12.0,-4.0,-3.0,-2.0,1651094180493450.0,0
782,-1.0,-3.0,-7.0,-1.0,26.0,-4.0,0.0,-1.0,1651094180515100.0,0
783,-2.0,1.0,1.0,-13.0,-7.0,0.0,-5.0,0.0,1651094180515100.0,0
784,1.0,0.0,3.0,4.0,-5.0,-1.0,0.0,0.0,1651094180516942.0,0
785,-1.0,-2.0,-3.0,3.0,5.0,-3.0,1.0,0.0,1651094180516942.0,0
786,-2.0,-3.0,-7.0,-1.0,31.0,-1.0,-3.0,-3.0,1651094180537268.0,0
787,1.0,4.0,2.0,1.0,9.0,9.0,1.0,0.0,1651094180537268.0,0
788,0.0,-3.0,-1.0,-11.0,-10.0,-2.0,3.0,2.0,1651094180539252.0,0
789,1.0,-1.0,-1.0,5.0,2.0,-5.0,1.0,1.0,1651094180539252.0,0
790,-3.0,-3.0,-2.0,-3.0,-10.0,-8.0,-5.0,-2.0,1651094180552414.0,0
791,0.0,-3.0,-3.0,5.0,24.0,8.0,1.0,-1.0,1651094180552414.0,0
792,0.0,1.0,-1.0,-2.0,-15.0,3.0,-3.0,-1.0,1651094180559267.0,0
793,-1.0,1.0,4.0,1.0,-20.0,-6.0,0.0,0.0,1651094180559267.0,0
794,0.0,0.0,3.0,-2.0,13.0,-1.0,-1.0,-1.0,1651094180575524.0,0
795,-2.0,-3.0,-4.0,1.0,-16.0,-6.0,-3.0,-2.0,1651094180575524.0,0
796,-2.0,0.0,-1.0,1.0,26.0,3.0,-4.0,-2.0,1651094180581495.0,0
797,0.0,-3.0,-7.0,0.0,-4.0,2.0,-4.0,-2.0,1651094180581495.0,0
798,-1.0,3.0,13.0,-2.0,-8.0,-1.0,-1.0,1.0,1651094180597640.0,0
799,0.0,-1.0,-1.0,0.0,-4.0,4.0,15.0,2.0,1651094180597640.0,0
800,-1.0,0.0,-1.0,-3.0,5.0,-4.0,7.0,0.0,1651094180598499.0,0
801,0.0,-1.0,0.0,1.0,-16.0,5.0,10.0,-1.0,1651094180598499.0,0
802,-1.0,-1.0,-8.0,-1.0,5.0,0.0,-10.0,-3.0,1651094180612639.0,0
803,1.0,-1.0,6.0,4.0,-6.0,-7.0,-14.0,-1.0,1651094180612639.0,0
804,-2.0,-3.0,-2.0,-5.0,-1.0,-7.0,-6.0,-1.0,1651094180619101.0,0
805,-1.0,0.0,5.0,-1.0,4.0,6.0,3.0,-3.0,1651094180619101.0,0
806,-1.0,0.0,-6.0,0.0,-19.0,7.0,5.0,2.0,1651094180635063.0,0
807,1.0,-1.0,-1.0,-4.0,-11.0,-1.0,-2.0,0.0,1651094180635063.0,0
808,-1.0,-2.0,-2.0,3.0,2.0,-5.0,-3.0,-1.0,1651094180636923.0,0
809,0.0,-3.0,-8.0,-3.0,11.0,-5.0,8.0,1.0,1651094180636923.0,0
810,0.0,4.0,11.0,5.0,-10.0,-2.0,-6.0,3.0,1651094180658251.0,0
811,-2.0,1.0,0.0,-5.0,-13.0,1.0,-3.0,-3.0,1651094180658251.0,0
812,-1.0,-2.0,-3.0,-3.0,-2.0,-11.0,-3.0,-1.0,1651094180659353.0,0
813,-1.0,1.0,1.0,3.0,56.0,14.0,-6.0,2.0,1651094180659353.0,0
814,0.0,-2.0,-4.0,-1.0,-29.0,-1.0,2.0,-1.0,1651094180671320.0,0
815,-1.0,-2.0,-2.0,3.0,12.0,-2.0,-2.0,0.0,1651094180671320.0,0
816,1.0,0.0,0.0,0.0,-15.0,-2.0,-4.0,0.0,1651094180679280.0,0
817,-2.0,-2.0,2.0,-2.0,-1.0,-6.0,7.0,-1.0,1651094180679280.0,0
818,0.0,-2.0,-5.0,-5.0,4.0,-3.0,4.0,0.0,1651094180695773.0,0
819,-3.0,-3.0,-1.0,-1.0,1.0,-2.0,-3.0,-1.0,1651094180695773.0,0
820,-1.0,-2.0,-3.0,0.0,16.0,3.0,7.0,-2.0,1651094180696655.0,0
821,0.0,2.0,0.0,2.0,-19.0,-2.0,-2.0,0.0,1651094180696655.0,0
822,1.0,-3.0,-1.0,1.0,10.0,-3.0,-2.0,-3.0,1651094180718142.0,0
823,-1.0,-2.0,0.0,-3.0,-12.0,-4.0,-2.0,0.0,1651094180718142.0,0
824,-1.0,0.0,-1.0,-2.0,-21.0,0.0,-12.0,-2.0,1651094180718815.0,0
825,1.0,1.0,1.0,0.0,46.0,7.0,18.0,2.0,1651094180718815.0,0
826,1.0,-2.0,-1.0,2.0,2.0,-4.0,7.0,1.0,1651094180733083.0,0
827,1.0,-1.0,-4.0,-11.0,4.0,-1.0,-16.0,-2.0,1651094180733083.0,0
828,-1.0,3.0,7.0,18.0,-11.0,7.0,0.0,-2.0,1651094180738919.0,0
829,-1.0,1.0,1.0,5.0,-16.0,-1.0,-16.0,-2.0,1651094180738919.0,0
830,-1.0,-2.0,-3.0,-2.0,30.0,0.0,17.0,1.0,1651094180755158.0,0
831,0.0,-3.0,-7.0,1.0,-2.0,3.0,1.0,0.0,1651094180755158.0,0
832,0.0,4.0,7.0,-17.0,-5.0,-5.0,2.0,0.0,1651094180756156.0,0
833,0.0,2.0,0.0,1.0,-35.0,6.0,-9.0,-2.0,1651094180756156.0,0
834,0.0,0.0,-1.0,-1.0,-1.0,-8.0,-29.0,-4.0,1651094180777762.0,0
835,0.0,-3.0,-3.0,5.0,0.0,-1.0,26.0,1.0,1651094180777762.0,0
836,1.0,-1.0,0.0,3.0,24.0,17.0,25.0,4.0,1651094180778762.0,0
837,-1.0,0.0,-1.0,-2.0,35.0,-5.0,-6.0,-1.0,1651094180778762.0,0
838,0.0,1.0,-1.0,-5.0,-66.0,2.0,-4.0,0.0,1651094180793090.0,0
839,-1.0,1.0,1.0,4.0,-4.0,-8.0,-12.0,-2.0,1651094180793090.0,0
840,-3.0,-6.0,-14.0,-6.0,-11.0,2.0,-1.0,-2.0,1651094180799087.0,0
841,0.0,2.0,11.0,0.0,-21.0,-5.0,-4.0,-2.0,1651094180799087.0,0
842,-1.0,2.0,3.0,-2.0,0.0,-4.0,-6.0,-3.0,1651094180815642.0,0
843,-1.0,-2.0,0.0,3.0,0.0,-4.0,-7.0,-2.0,1651094180815642.0,0
844,3.0,2.0,-2.0,1.0,23.0,8.0,12.0,2.0,1651094180816473.0,0
845,0.0,-3.0,-6.0,-2.0,-6.0,-1.0,-11.0,2.0,1651094180816473.0,0
846,-1.0,-2.0,-1.0,-3.0,0.0,-1.0,-3.0,-1.0,1651094180837933.0,0
847,0.0,3.0,3.0,-4.0,6.0,2.0,-17.0,-1.0,1651094180837933.0,0
848,-2.0,-2.0,-9.0,-2.0,1.0,-9.0,21.0,-2.0,1651094180843917.0,0
849,-1.0,-2.0,2.0,-1.0,1.0,-8.0,-9.0,-5.0,1651094180843917.0,0
850,1.0,1.0,4.0,11.0,2.0,16.0,20.0,1.0,1651094180852325.0,0
851,-1.0,-1.0,-4.0,-4.0,10.0,8.0,-2.0,2.0,1651094180852325.0,0
852,0.0,1.0,9.0,5.0,-23.0,4.0,10.0,6.0,1651094180859290.0,0
853,0.0,1.0,-7.0,-3.0,-5.0,-17.0,-26.0,-2.0,1651094180859290.0,0
854,-1.0,-2.0,-4.0,0.0,21.0,0.0,14.0,-1.0,1651094180875386.0,0
855,-2.0,-1.0,-2.0,-1.0,-2.0,4.0,6.0,1.0,1651094180875386.0,0
856,-2.0,-2.0,0.0,0.0,-18.0,-3.0,-20.0,-7.0,1651094180876221.0,0
857,-2.0,-1.0,1.0,-3.0,-20.0,-7.0,-28.0,-2.0,1651094180876221.0,0
858,-3.0,-1.0,-2.0,-1.0,62.0,10.0,32.0,-3.0,1651094180898493.0,0
859,1.0,-2.0,-3.0,0.0,-31.0,9.0,-10.0,2.0,1651094180898493.0,0
860,2.0,1.0,1.0,0.0,52.0,-1.0,28.0,9.0,1651094180899358.0,0
861,-3.0,-2.0,1.0,1.0,-25.0,-15.0,-33.0,-10.0,1651094180899358.0,0
862,0.0,-1.0,-3.0,-8.0,-8.0,3.0,21.0,6.0,1651094180911558.0,0
863,-3.0,-3.0,-5.0,-7.0,9.0,-6.0,-65.0,-10.0,1651094180911558.0,0
864,-4.0,-2.0,5.0,11.0,-12.0,-49.0,-65.0,-13.0,1651094180920718.0,0
865,2.0,4.0,1.0,0.0,4.0,35.0,37.0,2.0,1651094180920718.0,2
866,-8.0,1.0,0.0,2.0,-2.0,-4.0,-93.0,1.0,1651094180935040.0,2
867,7.0,0.0,0.0,-3.0,2.0,-8.0,60.0,9.0,1651094180935040.0,2
868,4.0,-4.0,-3.0,5.0,-2.0,-21.0,-106.0,0.0,1651094180936903.0,2
869,0.0,6.0,4.0,0.0,15.0,58.0,55.0,13.0,1651094180936903.0,2
870,-11.0,-6.0,-3.0,-7.0,-11.0,-4.0,51.0,-16.0,1651094180958365.0,2
871,-26.0,-7.0,-2.0,9.0,-1.0,-15.0,-59.0,-30.0,1651094180958365.0,2
872,8.0,3.0,-6.0,-10.0,0.0,-38.0,-82.0,-13.0,1651094180959145.0,2
873,66.0,7.0,2.0,31.0,7.0,-46.0,42.0,91.0,1651094180959145.0,2
874,16.0,6.0,1.0,-8.0,-3.0,15.0,42.0,9.0,1651094180971115.0,2
875,-29.0,-5.0,3.0,-2.0,5.0,44.0,17.0,-32.0,1651094180971115.0,2
876,-59.0,-15.0,-4.0,-4.0,-9.0,31.0,-11.0,-67.0,1651094180980607.0,2
877,-36.0,-7.0,-10.0,-15.0,15.0,64.0,50.0,-30.0,1651094180980607.0,2
878,82.0,10.0,-1.0,9.0,-17.0,-84.0,-59.0,112.0,1651094180995051.0,2
879,12.0,4.0,4.0,-5.0,-3.0,-56.0,79.0,13.0,1651094180995051.0,2
880,-29.0,0.0,2.0,1.0,1.0,78.0,24.0,-44.0,1651094180996939.0,2
881,-26.0,-9.0,-4.0,-11.0,-10.0,-5.0,-34.0,-21.0,1651094180996939.0,2
882,16.0,0.0,-2.0,1.0,9.0,-36.0,-49.0,8.0,1651094181018050.0,2
883,27.0,2.0,-2.0,-3.0,-9.0,18.0,-37.0,2.0,1651094181018050.0,2
884,18.0,0.0,1.0,-6.0,-4.0,-25.0,64.0,52.0,1651094181018888.0,2
885,-60.0,-12.0,-5.0,-5.0,7.0,-66.0,-57.0,-60.0,1651094181018888.0,2
886,61.0,11.0,6.0,0.0,-16.0,6.0,96.0,74.0,1651094181032011.0,2
887,12.0,8.0,2.0,0.0,9.0,56.0,-3.0,1.0,1651094181032011.0,2
888,17.0,8.0,-6.0,5.0,-5.0,-2.0,47.0,8.0,1651094181039991.0,2
889,-38.0,-6.0,8.0,7.0,-7.0,70.0,-16.0,-44.0,1651094181039991.0,2
890,-71.0,-24.0,-2.0,-11.0,-18.0,-57.0,-106.0,-58.0,1651094181055126.0,2
891,-17.0,0.0,-4.0,-4.0,29.0,-32.0,104.0,-1.0,1651094181055126.0,2
892,72.0,12.0,2.0,2.0,8.0,59.0,37.0,86.0,1651094181056022.0,2
893,18.0,1.0,-2.0,-6.0,-3.0,-48.0,-20.0,-25.0,1651094181056022.0,2
894,-58.0,-9.0,-8.0,-1.0,-29.0,82.0,-21.0,-93.0,1651094181077450.0,2
895,-10.0,-1.0,3.0,-2.0,-2.0,-16.0,-36.0,21.0,1651094181077450.0,2
896,43.0,3.0,1.0,16.0,12.0,14.0,79.0,21.0,1651094181079324.0,2
897,15.0,11.0,7.0,-20.0,-23.0,3.0,0.0,34.0,1651094181079324.0,2
898,-28.0,-4.0,-3.0,-5.0,1.0,-5.0,4.0,-40.0,1651094181091808.0,2
899,-34.0,-11.0,-10.0,26.0,-13.0,46.0,-52.0,-70.0,1651094181091808.0,2
900,-22.0,-11.0,3.0,-3.0,6.0,9.0,-65.0,-1.0,1651094181100657.0,2
901,55.0,13.0,-1.0,13.0,19.0,-22.0,40.0,79.0,1651094181100657.0,2
902,-31.0,2.0,2.0,-19.0,6.0,91.0,22.0,-36.0,1651094181115775.0,2
903,5.0,-3.0,-5.0,-4.0,1.0,-23.0,-19.0,0.0,1651094181115775.0,2
904,16.0,-6.0,-5.0,-9.0,-16.0,28.0,-28.0,22.0,1651094181116641.0,2
905,23.0,-8.0,-9.0,-8.0,-24.0,-88.0,2.0,-25.0,1651094181116641.0,2
906,-10.0,13.0,12.0,10.0,25.0,27.0,47.0,32.0,1651094181138563.0,2
907,-8.0,-2.0,7.0,9.0,16.0,59.0,16.0,-9.0,1651094181138563.0,2
908,-38.0,-13.0,-5.0,-1.0,11.0,-19.0,5.0,-64.0,1651094181140585.0,2
909,10.0,12.0,-7.0,1.0,-2.0,-39.0,-18.0,21.0,1651094181140585.0,2
910,74.0,11.0,12.0,3.0,-28.0,24.0,12.0,80.0,1651094181151904.0,2
911,2.0,16.0,4.0,0.0,3.0,-59.0,12.0,23.0,1651094181151904.0,2
912,-48.0,-7.0,-2.0,-4.0,-1.0,0.0,-13.0,-84.0,1651094181159730.0,2
913,44.0,-12.0,-7.0,-9.0,3.0,-28.0,-15.0,61.0,1651094181159730.0,2
914,-20.0,-6.0,-10.0,17.0,26.0,79.0,-3.0,-50.0,1651094181173727.0,2
915,54.0,7.0,7.0,4.0,-3.0,9.0,15.0,60.0,1651094181173727.0,2
916,-27.0,-5.0,-4.0,-18.0,-10.0,-28.0,-43.0,3.0,1651094181181860.0,2
917,-27.0,-7.0,-1.0,13.0,7.0,68.0,40.0,-24.0,1651094181181860.0,2
918,-15.0,-6.0,4.0,-22.0,-15.0,-50.0,-19.0,-33.0,1651094181197987.0,2
919,-7.0,-2.0,-4.0,18.0,-6.0,39.0,-20.0,2.0,1651094181197987.0,2
920,-4.0,4.0,1.0,24.0,10.0,11.0,22.0,7.0,1651094181198845.0,2
921,-18.0,0.0,-2.0,-7.0,4.0,46.0,-34.0,-26.0,1651094181198845.0,2
922,3.0,-5.0,0.0,7.0,6.0,-6.0,30.0,21.0,1651094181211890.0,2
923,-3.0,-3.0,-10.0,-32.0,-16.0,15.0,-39.0,-31.0,1651094181211890.0,2
924,-5.0,-5.0,-10.0,-4.0,-6.0,-45.0,17.0,-10.0,1651094181219974.0,2
925,-54.0,1.0,30.0,-3.0,-11.0,-24.0,29.0,-61.0,1651094181219974.0,2
926,89.0,27.0,-1.0,2.0,3.0,-21.0,86.0,65.0,1651094181235267.0,2
927,-17.0,-7.0,2.0,0.0,13.0,15.0,-37.0,-39.0,1651094181235267.0,2
928,8.0,5.0,-8.0,-4.0,-12.0,41.0,-27.0,5.0,1651094181242207.0,2
929,-35.0,-6.0,7.0,5.0,4.0,-13.0,51.0,-44.0,1651094181242207.0,2
930,-46.0,-24.0,-2.0,-2.0,-1.0,58.0,-81.0,-47.0,1651094181257968.0,2
931,14.0,13.0,-17.0,7.0,1.0,-34.0,29.0,21.0,1651094181257968.0,2
932,-7.0,13.0,8.0,-7.0,1.0,78.0,-4.0,-18.0,1651094181258968.0,2
933,17.0,-1.0,-9.0,-3.0,3.0,-44.0,8.0,47.0,1651094181258968.0,2
934,-6.0,-9.0,-3.0,7.0,11.0,63.0,-6.0,-13.0,1651094181271153.0,2
935,12.0,-6.0,26.0,-17.0,-7.0,15.0,-5.0,16.0,1651094181271153.0,2
936,-12.0,2.0,-8.0,13.0,6.0,-20.0,-1.0,-12.0,1651094181287144.0,2
937,-3.0,-2.0,-26.0,16.0,3.0,41.0,-22.0,-9.0,1651094181287144.0,2
938,12.0,-4.0,23.0,5.0,8.0,-73.0,68.0,26.0,1651094181294125.0,2
939,-21.0,-3.0,0.0,-7.0,-17.0,-18.0,-14.0,-17.0,1651094181294125.0,2
940,46.0,2.0,-8.0,-21.0,-7.0,-57.0,12.0,38.0,1651094181301107.0,2
941,28.0,7.0,26.0,10.0,11.0,61.0,-6.0,47.0,1651094181301107.0,2
942,-38.0,-3.0,-19.0,-3.0,-19.0,-58.0,-61.0,-51.0,1651094181318405.0,2
943,-31.0,-9.0,-3.0,-3.0,13.0,21.0,-12.0,-36.0,1651094181318405.0,2
944,19.0,5.0,6.0,0.0,-2.0,-73.0,12.0,46.0,1651094181319300.0,2
945,46.0,13.0,-10.0,-1.0,-5.0,-1.0,42.0,34.0,1651094181319300.0,2
946,-43.0,0.0,4.0,2.0,17.0,16.0,-6.0,-49.0,1651094181340778.0,2
947,36.0,6.0,1.0,3.0,0.0,-23.0,4.0,37.0,1651094181340778.0,2
948,-33.0,-14.0,-9.0,-7.0,-16.0,-21.0,-25.0,-21.0,1651094181341652.0,2
949,0.0,-1.0,-1.0,2.0,13.0,-37.0,11.0,-42.0,1651094181341652.0,2
950,2.0,15.0,12.0,-8.0,-7.0,-46.0,-25.0,58.0,1651094181354821.0,2
951,15.0,-3.0,-6.0,5.0,6.0,1.0,15.0,14.0,1651094181354821.0,2
952,-1.0,-1.0,9.0,-1.0,-8.0,2.0,10.0,0.0,1651094181356846.0,2
953,-17.0,-7.0,-2.0,7.0,-8.0,44.0,-29.0,-3.0,1651094181356846.0,2
954,-23.0,-8.0,-13.0,-6.0,14.0,-25.0,37.0,-55.0,1651094181378444.0,2
955,21.0,1.0,3.0,12.0,1.0,-99.0,-10.0,47.0,1651094181378444.0,2
956,23.0,1.0,0.0,-5.0,-9.0,27.0,25.0,28.0,1651094181379444.0,2
957,-24.0,-2.0,1.0,9.0,8.0,45.0,-43.0,-41.0,1651094181379444.0,2
958,-32.0,-9.0,-13.0,-9.0,-17.0,6.0,-32.0,-44.0,1651094181400891.0,2
959,44.0,3.0,-5.0,-4.0,-9.0,26.0,47.0,54.0,1651094181400891.0,2
960,17.0,11.0,30.0,-4.0,5.0,33.0,38.0,32.0,1651094181401762.0,2
961,-7.0,1.0,-3.0,-3.0,3.0,-66.0,0.0,-17.0,1651094181401762.0,2
962,-34.0,-6.0,-6.0,1.0,18.0,6.0,-65.0,-32.0,1651094181415111.0,2
963,8.0,-7.0,-2.0,1.0,-10.0,-44.0,47.0,13.0,1651094181415111.0,2
964,26.0,-2.0,-5.0,1.0,-3.0,13.0,33.0,10.0,1651094181421074.0,2
965,26.0,6.0,10.0,-4.0,-8.0,18.0,-10.0,8.0,1651094181421074.0,2
966,-7.0,0.0,2.0,0.0,-2.0,8.0,0.0,2.0,1651094181437287.0,2
967,-53.0,-5.0,-5.0,-6.0,9.0,33.0,-28.0,-60.0,1651094181437287.0,2
968,-1.0,-13.0,-20.0,-1.0,14.0,-12.0,-19.0,11.0,1651094181439260.0,2
969,-13.0,6.0,16.0,-9.0,-22.0,17.0,-10.0,-2.0,1651094181439260.0,2
970,17.0,8.0,32.0,8.0,-4.0,26.0,-10.0,-6.0,1651094181459551.0,2
971,4.0,3.0,-20.0,-10.0,7.0,5.0,49.0,13.0,1651094181459551.0,2
972,-29.0,-14.0,-32.0,9.0,15.0,46.0,-19.0,-69.0,1651094181461397.0,2
973,15.0,-9.0,6.0,-2.0,-6.0,-7.0,-10.0,64.0,1651094181461397.0,2
974,20.0,-5.0,0.0,3.0,-10.0,37.0,14.0,11.0,1651094181474477.0,2
975,-44.0,1.0,6.0,-8.0,-16.0,-35.0,-24.0,-54.0,1651094181474477.0,2
976,44.0,8.0,19.0,15.0,-5.0,-28.0,-17.0,79.0,1651094181480760.0,2
977,-9.0,2.0,-2.0,0.0,20.0,-12.0,39.0,-16.0,1651094181480760.0,2
978,42.0,9.0,-21.0,2.0,-7.0,37.0,-18.0,55.0,1651094181497460.0,2
979,-25.0,-10.0,6.0,9.0,2.0,-2.0,-22.0,-28.0,1651094181497460.0,2
980,-33.0,-3.0,-11.0,-16.0,-6.0,0.0,20.0,-52.0,1651094181498459.0,2
981,7.0,-11.0,-1.0,-7.0,-9.0,27.0,-19.0,17.0,1651094181498459.0,2
982,27.0,9.0,4.0,13.0,11.0,10.0,2.0,5.0,1651094181520611.0,2
983,37.0,7.0,1.0,-3.0,19.0,13.0,21.0,59.0,1651094181520611.0,2
984,-38.0,6.0,-3.0,-12.0,-18.0,-15.0,-10.0,-50.0,1651094181521610.0,2
985,2.0,-8.0,-6.0,-7.0,-22.0,-29.0,20.0,21.0,1651094181521610.0,2
986,0.0,-2.0,8.0,7.0,17.0,-4.0,14.0,-6.0,1651094181534879.0,2
987,-12.0,-30.0,-67.0,4.0,27.0,-16.0,-36.0,-12.0,1651094181534879.0,2
988,0.0,29.0,83.0,19.0,-8.0,-60.0,10.0,6.0,1651094181542124.0,2
989,3.0,-4.0,-23.0,-10.0,-11.0,32.0,-5.0,0.0,1651094181542124.0,2
990,-13.0,0.0,-25.0,-16.0,-11.0,-21.0,-4.0,-10.0,1651094181558062.0,2
991,-13.0,2.0,22.0,6.0,-8.0,-62.0,-15.0,0.0,1651094181558062.0,2
992,-27.0,-48.0,-43.0,2.0,14.0,27.0,-16.0,-14.0,1651094181558922.0,2
993,43.0,30.0,27.0,-4.0,25.0,32.0,59.0,22.0,1651094181558922.0,2
994,19.0,-9.0,-26.0,-6.0,-23.0,-5.0,-13.0,17.0,1651094181580080.0,2
995,-2.0,-13.0,-53.0,-19.0,-6.0,44.0,-8.0,-31.0,1651094181580080.0,2
996,1.0,51.0,67.0,64.0,7.0,27.0,-18.0,25.0,1651094181581042.0,2
997,-9.0,-9.0,-3.0,-46.0,-11.0,-71.0,-45.0,-19.0,1651094181581042.0,2
998,19.0,-24.0,-41.0,-17.0,11.0,31.0,22.0,39.0,1651094181594008.0,2
999,-2.0,-2.0,11.0,-9.0,-10.0,52.0,44.0,1.0,1651094181594008.0,2
1000,-4.0,-16.0,-29.0,18.0,-5.0,0.0,10.0,-5.0,1651094181602197.0,2
1001,-29.0,15.0,31.0,-4.0,8.0,72.0,-34.0,-37.0,1651094181602197.0,2
1002,-3.0,8.0,17.0,20.0,16.0,-120.0,-18.0,-5.0,1651094181617319.0,2
1003,-1.0,2.0,-7.0,-4.0,-13.0,8.0,-23.0,-21.0,1651094181617319.0,2
1004,10.0,-1.0,22.0,-17.0,24.0,15.0,37.0,48.0,1651094181619215.0,2
1005,4.0,-1.0,-12.0,28.0,-28.0,15.0,-9.0,18.0,1651094181619215.0,2
1006,-21.0,-10.0,-36.0,-11.0,-9.0,7.0,-11.0,-24.0,1651094181639509.0,2
1007,-18.0,16.0,64.0,2.0,3.0,38.0,29.0,-12.0,1651094181639509.0,2
1008,25.0,-12.0,-19.0,-14.0,7.0,-24.0,-2.0,-3.0,1651094181641757.0,2
1009,2.0,-3.0,-4.0,7.0,10.0,-33.0,-32.0,5.0,1651094181641757.0,2
1010,-23.0,-4.0,1.0,7.0,19.0,50.0,36.0,-12.0,1651094181653909.0,2
1011,47.0,14.0,9.0,14.0,-28.0,-47.0,29.0,48.0,1651094181653909.0,2
1012,-11.0,4.0,-16.0,-38.0,-34.0,-39.0,-45.0,-22.0,1651094181662910.0,2
1013,-20.0,-33.0,-53.0,-3.0,18.0,70.0,-9.0,-36.0,1651094181662910.0,2
1014,12.0,19.0,65.0,7.0,-4.0,-32.0,-19.0,27.0,1651094181677054.0,2
1015,-48.0,5.0,-17.0,3.0,36.0,64.0,-15.0,-57.0,1651094181677054.0,2
1016,40.0,-5.0,1.0,-7.0,-22.0,-5.0,-17.0,43.0,1651094181679083.0,2
1017,23.0,-5.0,7.0,-11.0,-24.0,-103.0,9.0,30.0,1651094181679083.0,2
1018,-17.0,8.0,2.0,-4.0,6.0,-10.0,9.0,-14.0,1651094181700421.0,2
1019,25.0,11.0,14.0,31.0,-11.0,30.0,5.0,12.0,1651094181700421.0,2
1020,-26.0,-8.0,-31.0,-44.0,4.0,-83.0,-6.0,-47.0,1651094181701421.0,2
1021,-43.0,-6.0,0.0,22.0,1.0,5.0,-40.0,-42.0,1651094181701421.0,2
1022,2.0,3.0,7.0,3.0,-10.0,31.0,46.0,16.0,1651094181713838.0,2
1023,21.0,-8.0,12.0,-3.0,-8.0,36.0,-26.0,10.0,1651094181713838.0,2
1024,1.0,4.0,12.0,2.0,9.0,39.0,9.0,-10.0,1651094181720787.0,2
1025,5.0,-8.0,-5.0,2.0,20.0,27.0,18.0,13.0,1651094181720787.0,2
1026,-7.0,3.0,-4.0,-1.0,-8.0,-7.0,-10.0,-9.0,1651094181737914.0,2
1027,-19.0,-2.0,10.0,-6.0,15.0,-5.0,-19.0,-16.0,1651094181737914.0,2
1028,7.0,3.0,-3.0,3.0,-18.0,47.0,-12.0,18.0,1651094181739940.0,2
1029,-13.0,-2.0,0.0,6.0,-11.0,-29.0,47.0,-25.0,1651094181739940.0,2
1030,-15.0,5.0,15.0,15.0,20.0,16.0,-31.0,-1.0,1651094181759944.0,2
1031,41.0,7.0,-17.0,-11.0,-6.0,-9.0,29.0,49.0,1651094181759944.0,2
1032,-19.0,-2.0,14.0,-5.0,13.0,40.0,65.0,-16.0,1651094181760970.0,2
1033,9.0,-4.0,-52.0,4.0,10.0,16.0,-6.0,-3.0,1651094181760970.0,2
1034,-34.0,-12.0,20.0,-15.0,-35.0,-12.0,-24.0,-49.0,1651094181773932.0,2
1035,21.0,-1.0,38.0,27.0,21.0,-44.0,-25.0,39.0,1651094181773932.0,2
1036,14.0,-2.0,-60.0,-29.0,11.0,13.0,-22.0,18.0,1651094181780922.0,2
1037,-1.0,9.0,53.0,14.0,-2.0,-28.0,0.0,2.0,1651094181780922.0,2
1038,12.0,-4.0,-6.0,3.0,-4.0,-30.0,15.0,11.0,1651094181798007.0,2
1039,-39.0,-1.0,6.0,-14.0,-10.0,-2.0,-21.0,-30.0,1651094181798007.0,2
1040,-3.0,10.0,5.0,17.0,-7.0,-13.0,-1.0,3.0,1651094181798856.0,2
1041,16.0,1.0,-27.0,-12.0,6.0,57.0,-5.0,2.0,1651094181798856.0,2
1042,2.0,0.0,9.0,-5.0,17.0,-19.0,-1.0,-16.0,1651094181820339.0,2
1043,-3.0,-7.0,-4.0,8.0,-18.0,-39.0,9.0,5.0,1651094181820339.0,2
1044,-5.0,7.0,4.0,6.0,-3.0,-1.0,7.0,2.0,1651094181821181.0,2
1045,-11.0,-2.0,11.0,-2.0,40.0,12.0,-48.0,-9.0,1651094181821181.0,2
1046,3.0,1.0,-20.0,0.0,-16.0,-31.0,64.0,14.0,1651094181833374.0,2
1047,3.0,-10.0,-10.0,-17.0,-28.0,54.0,-2.0,-1.0,1651094181833374.0,2
1048,-28.0,-15.0,-12.0,13.0,15.0,-40.0,12.0,-6.0,1651094181842360.0,2
1049,28.0,26.0,87.0,11.0,-8.0,9.0,16.0,27.0,1651094181842360.0,2
1050,-6.0,-5.0,-63.0,12.0,2.0,4.0,-48.0,-14.0,1651094181857682.0,2
1051,-13.0,-9.0,9.0,-43.0,19.0,-20.0,24.0,-7.0,1651094181857682.0,2
1052,34.0,-6.0,-13.0,7.0,-4.0,-10.0,-4.0,28.0,1651094181858549.0,2
1053,-30.0,-2.0,21.0,-16.0,-27.0,36.0,-9.0,-32.0,1651094181858549.0,2
1054,22.0,15.0,9.0,5.0,-17.0,12.0,10.0,37.0,1651094181881033.0,2
1055,-16.0,-4.0,-38.0,12.0,14.0,-20.0,6.0,-15.0,1651094181881033.0,2
1056,19.0,16.0,41.0,12.0,17.0,-1.0,-2.0,3.0,1651094181881874.0,2
1057,-9.0,-19.0,-34.0,0.0,0.0,-2.0,21.0,13.0,1651094181881874.0,2
1058,10.0,3.0,18.0,-4.0,13.0,7.0,-35.0,-8.0,1651094181893974.0,2
1059,-14.0,3.0,-9.0,-12.0,-35.0,-45.0,6.0,-4.0,1651094181893974.0,2
1060,-19.0,-14.0,-5.0,-14.0,-17.0,20.0,-5.0,-25.0,1651094181903124.0,2
1061,7.0,0.0,-33.0,10.0,-4.0,33.0,38.0,15.0,1651094181903124.0,2
1062,28.0,-3.0,9.0,-8.0,4.0,4.0,2.0,17.0,1651094181918479.0,2
1063,-2.0,7.0,12.0,29.0,36.0,50.0,-2.0,2.0,1651094181918479.0,2
1064,-11.0,2.0,69.0,3.0,0.0,9.0,-25.0,-12.0,1651094181919345.0,2
1065,-16.0,-12.0,-83.0,-28.0,-58.0,5.0,-3.0,-5.0,1651094181919345.0,2
1066,-6.0,-10.0,59.0,-19.0,-8.0,-37.0,-15.0,-16.0,1651094181940613.0,2
1067,10.0,-15.0,-66.0,-24.0,26.0,-19.0,16.0,-6.0,1651094181940613.0,2
1068,-8.0,38.0,36.0,59.0,-8.0,21.0,-2.0,30.0,1651094181941454.0,2
1069,9.0,-11.0,10.0,1.0,2.0,0.0,22.0,-18.0,1651094181941454.0,2
1070,-8.0,0.0,-48.0,-15.0,5.0,15.0,6.0,10.0,1651094181953782.0,2
1071,24.0,13.0,50.0,-16.0,-2.0,18.0,-4.0,14.0,1651094181953782.0,2
1072,-10.0,-27.0,-74.0,-29.0,-11.0,54.0,8.0,-43.0,1651094181962566.0,2
1073,-23.0,-4.0,8.0,2.0,0.0,-115.0,-31.0,26.0,1651094181962566.0,2
1074,28.0,8.0,15.0,21.0,-15.0,0.0,0.0,-29.0,1651094181977763.0,2
1075,-12.0,20.0,57.0,31.0,7.0,-19.0,34.0,10.0,1651094181977763.0,2
1076,27.0,2.0,-22.0,-11.0,0.0,41.0,3.0,-8.0,1651094181978761.0,2
1077,-13.0,0.0,4.0,15.0,41.0,77.0,-18.0,-4.0,1651094181978761.0,2
1078,9.0,-26.0,-60.0,-2.0,-9.0,-45.0,7.0,21.0,1651094182000366.0,2
1079,-1.0,11.0,69.0,3.0,-25.0,-6.0,-11.0,-5.0,1651094182000366.0,2
1080,-13.0,3.0,4.0,3.0,3.0,4.0,25.0,4.0,1651094182001365.0,2
1081,6.0,-10.0,-27.0,-33.0,11.0,-27.0,-1.0,-42.0,1651094182001365.0,2
1082,-15.0,17.0,14.0,8.0,-14.0,34.0,-6.0,-2.0,1651094182013723.0,2
1083,-13.0,-14.0,-6.0,2.0,4.0,4.0,-27.0,5.0,1651094182013723.0,2
1084,10.0,11.0,-37.0,14.0,-10.0,-9.0,-5.0,19.0,1651094182028828.0,2
1085,-10.0,-6.0,16.0,-16.0,33.0,28.0,16.0,-26.0,1651094182028828.0,2
1086,-29.0,-13.0,25.0,1.0,-17.0,-101.0,-15.0,-13.0,1651094182036970.0,2
1087,39.0,1.0,-39.0,-17.0,-15.0,27.0,6.0,57.0,1651094182036970.0,2
1088,5.0,-4.0,-4.0,-28.0,18.0,-37.0,-2.0,14.0,1651094182038805.0,2
1089,-4.0,11.0,9.0,26.0,-25.0,11.0,15.0,-14.0,1651094182038805.0,2
1090,30.0,17.0,47.0,13.0,5.0,26.0,-11.0,13.0,1651094182059935.0,2
1091,-36.0,-18.0,-26.0,-5.0,-16.0,-6.0,-2.0,-59.0,1651094182059935.0,2
1092,11.0,-1.0,8.0,-6.0,1.0,-5.0,-49.0,32.0,1651094182061856.0,2
1093,-20.0,-12.0,-6.0,-4.0,17.0,-54.0,1.0,6.0,1651094182061856.0,2
1094,-4.0,3.0,-12.0,10.0,29.0,-31.0,-3.0,7.0,1651094182073893.0,2
1095,-19.0,4.0,-31.0,-8.0,-17.0,76.0,21.0,-9.0,1651094182073893.0,2
1096,17.0,6.0,8.0,-11.0,-37.0,-57.0,20.0,7.0,1651094182088753.0,2
1097,9.0,1.0,60.0,11.0,7.0,1.0,-26.0,-2.0,1651094182088753.0,2
1098,10.0,-3.0,-51.0,2.0,9.0,37.0,-21.0,8.0,1651094182097831.0,2
1099,1.0,6.0,50.0,8.0,31.0,49.0,25.0,-20.0,1651094182097831.0,2
1100,-10.0,-15.0,-32.0,-1.0,18.0,-28.0,-9.0,0.0,1651094182098727.0,2
1101,5.0,15.0,-14.0,-2.0,-15.0,19.0,-5.0,22.0,1651094182098727.0,2
1102,-25.0,-9.0,17.0,4.0,44.0,11.0,-6.0,-35.0,1651094182120265.0,2
1103,48.0,-4.0,-107.0,0.0,-32.0,19.0,-13.0,32.0,1651094182120265.0,2
1104,-14.0,-2.0,92.0,-8.0,-1.0,23.0,32.0,-32.0,1651094182126379.0,2
1105,-8.0,-8.0,-43.0,-2.0,6.0,-8.0,-6.0,22.0,1651094182126379.0,2
1106,5.0,12.0,12.0,-2.0,-48.0,-31.0,7.0,9.0,1651094182134351.0,2
1107,-6.0,13.0,-8.0,-9.0,15.0,-22.0,-47.0,-16.0,1651094182134351.0,2
1108,5.0,15.0,59.0,15.0,8.0,-14.0,-21.0,24.0,1651094182142353.0,2
1109,-3.0,-4.0,-39.0,5.0,-14.0,71.0,33.0,-20.0,1651094182142353.0,2
1110,20.0,-8.0,55.0,10.0,-5.0,-41.0,-9.0,16.0,1651094182157783.0,2
1111,8.0,-5.0,-64.0,-7.0,-20.0,14.0,3.0,18.0,1651094182157783.0,2
1112,-27.0,-15.0,-3.0,-6.0,8.0,-16.0,18.0,-8.0,1651094182158783.0,2
1113,32.0,1.0,-10.0,-21.0,-12.0,-36.0,-15.0,9.0,1651094182158783.0,2
1114,-30.0,-3.0,-21.0,11.0,38.0,19.0,13.0,-32.0,1651094182180086.0,2
1115,13.0,7.0,89.0,20.0,-10.0,-23.0,-14.0,7.0,1651094182180086.0,2
1116,-15.0,-2.0,-53.0,4.0,2.0,-70.0,3.0,-16.0,1651094182181939.0,2
1117,9.0,2.0,32.0,-16.0,2.0,0.0,-5.0,5.0,1651094182181939.0,2
1118,10.0,-8.0,-42.0,-17.0,7.0,-4.0,-12.0,9.0,1651094182193904.0,2
1119,-11.0,-1.0,-4.0,13.0,29.0,-84.0,-1.0,-11.0,1651094182193904.0,2
1120,-18.0,5.0,46.0,8.0,-11.0,54.0,2.0,-35.0,1651094182203340.0,2
1121,-4.0,9.0,-15.0,16.0,-12.0,-24.0,42.0,16.0,1651094182203340.0,2
1122,21.0,-6.0,17.0,-7.0,10.0,20.0,1.0,41.0,1651094182219476.0,2
1123,-6.0,5.0,-1.0,1.0,10.0,8.0,-14.0,-32.0,1651094182219476.0,2
1124,-21.0,-24.0,-37.0,-25.0,-20.0,6.0,15.0,-1.0,1651094182220478.0,2
1125,2.0,-4.0,31.0,12.0,41.0,-33.0,-7.0,-3.0,1651094182220478.0,2
1126,15.0,21.0,-27.0,-2.0,-17.0,49.0,29.0,18.0,1651094182240881.0,2
1127,-1.0,-16.0,21.0,-2.0,-36.0,-47.0,-24.0,-17.0,1651094182240881.0,2
1128,-10.0,-1.0,-37.0,-4.0,27.0,16.0,-23.0,-28.0,1651094182241768.0,2
1129,-7.0,0.0,36.0,-2.0,3.0,-6.0,5.0,-17.0,1651094182241768.0,2
1130,10.0,-3.0,-13.0,11.0,-42.0,5.0,24.0,48.0,1651094182253898.0,2
1131,2.0,-5.0,-28.0,-24.0,3.0,13.0,1.0,7.0,1651094182253898.0,2
1132,9.0,13.0,49.0,16.0,-2.0,8.0,-22.0,-8.0,1651094182263073.0,2
1133,7.0,4.0,-23.0,-15.0,22.0,1.0,12.0,-8.0,1651094182263073.0,2
1134,-4.0,-11.0,8.0,2.0,-3.0,5.0,1.0,-27.0,1651094182278451.0,2
1135,-88.0,-23.0,-57.0,15.0,-8.0,26.0,-11.0,10.0,1651094182278451.0,2
1136,107.0,25.0,80.0,0.0,-10.0,71.0,16.0,51.0,1651094182279211.0,2
1137,-11.0,11.0,-10.0,-8.0,-8.0,-56.0,-3.0,-5.0,1651094182279211.0,2
1138,3.0,-17.0,-36.0,-18.0,4.0,17.0,24.0,-24.0,1651094182300533.0,2
1139,9.0,3.0,57.0,7.0,-16.0,15.0,0.0,18.0,1651094182300533.0,2
1140,-43.0,-1.0,-27.0,-4.0,17.0,4.0,-3.0,-40.0,1651094182306537.0,2
1141,44.0,8.0,28.0,7.0,-37.0,-9.0,-18.0,42.0,1651094182306537.0,2
1142,-12.0,3.0,-37.0,-18.0,13.0,-90.0,-21.0,-14.0,1651094182322831.0,2
1143,-8.0,-12.0,3.0,0.0,1.0,4.0,7.0,-6.0,1651094182322831.0,2
1144,-14.0,-12.0,-25.0,4.0,37.0,-32.0,-6.0,17.0,1651094182323667.0,2
1145,12.0,13.0,3.0,12.0,-51.0,-8.0,-25.0,-26.0,1651094182323667.0,2
1146,-21.0,-2.0,40.0,22.0,-46.0,36.0,15.0,-4.0,1651094182337118.0,2
1147,15.0,12.0,-16.0,-40.0,14.0,-22.0,12.0,-2.0,1651094182337118.0,2
1148,16.0,0.0,1.0,14.0,-4.0,7.0,-15.0,33.0,1651094182346181.0,2
1149,7.0,-9.0,-27.0,-15.0,7.0,-39.0,35.0,44.0,1651094182346181.0,2
1150,-20.0,-12.0,-7.0,0.0,57.0,48.0,-12.0,-19.0,1651094182360565.0,2
1151,4.0,3.0,22.0,24.0,-17.0,-33.0,10.0,-2.0,1651094182360565.0,2
1152,-14.0,-7.0,-13.0,-6.0,-51.0,-38.0,-7.0,-23.0,1651094182365587.0,2
1153,-12.0,4.0,7.0,-2.0,8.0,80.0,-38.0,-2.0,1651094182365587.0,2
1154,-4.0,11.0,-5.0,-15.0,1.0,9.0,20.0,-4.0,1651094182382541.0,2
1155,36.0,4.0,19.0,7.0,29.0,24.0,7.0,1.0,1651094182382541.0,2
1156,-12.0,0.0,-39.0,-2.0,-3.0,57.0,-24.0,-3.0,1651094182383507.0,2
1157,-14.0,-2.0,40.0,20.0,-1.0,-25.0,-10.0,3.0,1651094182383507.0,2
1158,-9.0,0.0,-3.0,-7.0,-2.0,83.0,16.0,-7.0,1651094182397503.0,2
1159,-30.0,-6.0,-23.0,-20.0,6.0,-26.0,-19.0,-48.0,1651094182397503.0,2
1160,45.0,3.0,1.0,13.0,26.0,36.0,30.0,65.0,1651094182398466.0,2
1161,9.0,-2.0,-38.0,-5.0,-2.0,12.0,-9.0,10.0,1651094182398466.0,2
1162,13.0,-6.0,20.0,-4.0,-57.0,2.0,-10.0,4.0,1651094182420529.0,2
1163,-35.0,2.0,25.0,7.0,20.0,74.0,22.0,-23.0,1651094182420529.0,2
1164,-4.0,-1.0,-10.0,-12.0,-4.0,-13.0,-10.0,-39.0,1651094182421482.0,2
1165,8.0,-5.0,-3.0,15.0,8.0,-38.0,36.0,19.0,1651094182421482.0,2
1166,25.0,11.0,5.0,-21.0,-5.0,-10.0,1.0,33.0,1651094182442775.0,2
1167,16.0,-6.0,-18.0,9.0,9.0,-30.0,-6.0,23.0,1651094182442775.0,2
1168,-25.0,0.0,16.0,2.0,-7.0,-17.0,13.0,-31.0,1651094182443625.0,2
1169,-31.0,-3.0,-4.0,2.0,-6.0,-4.0,-32.0,-59.0,1651094182443625.0,2
1170,5.0,-3.0,15.0,20.0,16.0,-15.0,-25.0,13.0,1651094182456977.0,2
1171,4.0,-3.0,-4.0,-10.0,-21.0,-18.0,1.0,-5.0,1651094182456977.0,2
1172,-29.0,-13.0,-36.0,-16.0,13.0,-20.0,12.0,-6.0,1651094182463995.0,2
1173,21.0,12.0,24.0,-2.0,-4.0,8.0,-1.0,38.0,1651094182463995.0,2
1174,-32.0,-5.0,1.0,3.0,2.0,-9.0,-30.0,-23.0,1651094182480463.0,2
1175,47.0,2.0,31.0,11.0,7.0,-57.0,28.0,34.0,1651094182480463.0,2
1176,5.0,-6.0,-46.0,-3.0,-16.0,-10.0,-3.0,-27.0,1651094182481311.0,2
1177,-25.0,-1.0,-13.0,-6.0,30.0,-9.0,-19.0,-33.0,1651094182481311.0,2
1178,-4.0,12.0,52.0,-2.0,-5.0,-11.0,15.0,-2.0,1651094182502669.0,2
1179,3.0,-7.0,-25.0,-6.0,-18.0,-3.0,-26.0,0.0,1651094182502669.0,2
1180,-9.0,-18.0,-6.0,1.0,-16.0,-23.0,-4.0,-10.0,1651094182503668.0,2
1181,-1.0,1.0,-16.0,-8.0,-11.0,29.0,-6.0,-1.0,1651094182503668.0,2
1182,12.0,1.0,-11.0,2.0,28.0,-12.0,14.0,15.0,1651094182517002.0,2
1183,-12.0,-1.0,22.0,-11.0,-11.0,6.0,-15.0,-12.0,1651094182517002.0,2
1184,2.0,-3.0,-5.0,4.0,10.0,26.0,-5.0,7.0,1651094182523822.0,2
1185,-2.0,-8.0,-11.0,10.0,-5.0,73.0,1.0,-2.0,1651094182523822.0,2
1186,-4.0,1.0,-21.0,-10.0,-15.0,-34.0,-4.0,-7.0,1651094182540346.0,2
1187,1.0,6.0,9.0,-3.0,13.0,16.0,4.0,3.0,1651094182540346.0,2
1188,2.0,8.0,11.0,5.0,-4.0,8.0,11.0,12.0,1651094182541346.0,2
1189,-1.0,-7.0,0.0,-11.0,-35.0,-71.0,6.0,-8.0,1651094182541346.0,2
1190,-7.0,-6.0,-6.0,4.0,-9.0,1.0,7.0,-11.0,1651094182562487.0,2
1191,7.0,1.0,-2.0,12.0,11.0,14.0,-6.0,12.0,1651094182562487.0,2
1192,6.0,1.0,5.0,-6.0,6.0,-18.0,-7.0,-4.0,1651094182563487.0,2
1193,-6.0,1.0,7.0,5.0,5.0,2.0,4.0,-6.0,1651094182563487.0,2
1194,-1.0,-1.0,-5.0,-4.0,-8.0,12.0,1.0,-1.0,1651094182576808.0,2
1195,-2.0,2.0,1.0,-1.0,7.0,-36.0,-8.0,0.0,1651094182576808.0,2
1196,0.0,2.0,3.0,-4.0,-3.0,22.0,1.0,1.0,1651094182583984.0,2
1197,1.0,-3.0,-3.0,0.0,-4.0,2.0,6.0,1.0,1651094182583984.0,2
1198,-5.0,-4.0,-12.0,-7.0,40.0,4.0,4.0,-1.0,1651094182600280.0,2
1199,4.0,-2.0,-3.0,4.0,-10.0,26.0,-1.0,1.0,1651094182600280.0,2
1200,-2.0,5.0,11.0,1.0,-29.0,-13.0,2.0,-2.0,1651094182601280.0,2
1201,1.0,-3.0,3.0,-1.0,6.0,-4.0,2.0,4.0,1651094182601280.0,2
1202,0.0,-6.0,-8.0,-1.0,19.0,6.0,-1.0,-5.0,1651094182622610.0,2
1203,-3.0,2.0,3.0,-11.0,-15.0,-15.0,-6.0,-3.0,1651094182622610.0,2
1204,1.0,-1.0,-13.0,1.0,-12.0,5.0,1.0,1.0,1651094182623610.0,2
1205,3.0,7.0,25.0,11.0,24.0,-7.0,3.0,1.0,1651094182623610.0,2
1206,0.0,3.0,5.0,5.0,22.0,-6.0,0.0,-2.0,1651094182636934.0,2
1207,-3.0,-2.0,-9.0,-4.0,16.0,7.0,0.0,0.0,1651094182636934.0,2
1208,0.0,-1.0,-10.0,-10.0,-11.0,-5.0,0.0,1.0,1651094182662012.0,2
1209,-1.0,-2.0,26.0,1.0,-5.0,3.0,-2.0,-3.0,1651094182662012.0,2
1210,0.0,-5.0,-17.0,1.0,12.0,6.0,2.0,-1.0,1651094182663034.0,2
1211,0.0,2.0,-1.0,0.0,15.0,-9.0,-3.0,1.0,1651094182663034.0,2
1212,-1.0,-3.0,-6.0,-9.0,-23.0,-8.0,-7.0,-3.0,1651094182674127.0,2
1213,-5.0,-4.0,-9.0,-6.0,-36.0,-69.0,5.0,-3.0,1651094182674127.0,2
1214,0.0,2.0,11.0,7.0,28.0,2.0,-1.0,-1.0,1651094182684430.0,2
1215,0.0,1.0,-1.0,6.0,0.0,-6.0,2.0,1.0,1651094182684430.0,2
1216,0.0,-3.0,4.0,-1.0,16.0,12.0,0.0,-1.0,1651094182685267.0,2
1217,-2.0,-1.0,-6.0,-5.0,-38.0,28.0,-2.0,-1.0,1651094182685267.0,2
1218,-1.0,-2.0,0.0,-13.0,-15.0,-5.0,-1.0,-1.0,1651094182696746.0,2
1219,1.0,0.0,-3.0,16.0,61.0,-6.0,7.0,0.0,1651094182696746.0,2
1220,1.0,6.0,13.0,16.0,22.0,34.0,8.0,4.0,1651094182703787.0,2
1221,1.0,-2.0,-10.0,-2.0,9.0,15.0,-1.0,1.0,1651094182703787.0,2
1222,-2.0,-3.0,-4.0,-7.0,-83.0,-14.0,0.0,-1.0,1651094182720288.0,2
1223,0.0,-3.0,2.0,-9.0,-30.0,-1.0,-5.0,-2.0,1651094182720288.0,2
1224,0.0,0.0,3.0,0.0,36.0,-15.0,-1.0,1.0,1651094182721289.0,2
1225,3.0,5.0,2.0,5.0,-12.0,9.0,4.0,2.0,1651094182721289.0,2
1226,0.0,0.0,-19.0,-1.0,-13.0,7.0,-2.0,-1.0,1651094182742612.0,2
1227,0.0,-3.0,17.0,3.0,45.0,6.0,0.0,1.0,1651094182742612.0,2
1228,-2.0,-6.0,-5.0,-11.0,-60.0,-14.0,-3.0,-1.0,1651094182743612.0,2
1229,-2.0,-5.0,-13.0,-11.0,-44.0,-1.0,-5.0,-3.0,1651094182743612.0,2
1230,2.0,5.0,9.0,22.0,88.0,11.0,6.0,1.0,1651094182755580.0,2
1231,1.0,3.0,2.0,0.0,-90.0,-1.0,-1.0,-1.0,1651094182755580.0,2
1232,0.0,3.0,3.0,7.0,14.0,-4.0,1.0,-1.0,1651094182764997.0,2
1233,-2.0,0.0,-6.0,2.0,11.0,11.0,-1.0,0.0,1651094182764997.0,2
1234,-5.0,-5.0,3.0,-18.0,-19.0,-25.0,-6.0,-2.0,1651094182780130.0,2
1235,-2.0,-3.0,-10.0,1.0,-42.0,26.0,1.0,2.0,1651094182780130.0,2
1236,1.0,2.0,7.0,5.0,-11.0,11.0,5.0,2.0,1651094182780987.0,2
1237,-3.0,0.0,-4.0,0.0,104.0,9.0,-2.0,-1.0,1651094182780987.0,2
1238,2.0,6.0,9.0,7.0,-24.0,16.0,6.0,3.0,1651094182803391.0,2
1239,-2.0,0.0,-1.0,-5.0,12.0,-8.0,-2.0,-2.0,1651094182803391.0,2
1240,-3.0,-6.0,-5.0,-6.0,-10.0,-10.0,-1.0,-1.0,1651094182804258.0,2
1241,-1.0,2.0,-1.0,-1.0,-49.0,-5.0,-2.0,0.0,1651094182804258.0,2
1242,0.0,-3.0,1.0,-1.0,-6.0,-1.0,-3.0,-2.0,1651094182816361.0,2
1243,0.0,-3.0,-7.0,0.0,-30.0,-1.0,0.0,-1.0,1651094182816361.0,2
1244,-1.0,5.0,12.0,6.0,39.0,12.0,3.0,1.0,1651094182825643.0,2
1245,-2.0,-1.0,-3.0,-1.0,46.0,-3.0,0.0,0.0,1651094182825643.0,2
1246,1.0,-2.0,-2.0,-9.0,-31.0,-3.0,-3.0,-2.0,1651094182840726.0,2
1247,1.0,1.0,-4.0,3.0,27.0,-5.0,0.0,0.0,1651094182840726.0,2
1248,-1.0,-5.0,-5.0,1.0,26.0,-8.0,-3.0,-1.0,1651094182841684.0,2
1249,0.0,-2.0,-8.0,-2.0,-27.0,-3.0,-1.0,0.0,1651094182841684.0,2
1250,-2.0,2.0,14.0,-5.0,-34.0,-6.0,-3.0,-2.0,1651094182863238.0,2
1251,0.0,-1.0,-5.0,3.0,30.0,-5.0,0.0,0.0,1651094182863238.0,2
1252,-1.0,-2.0,-5.0,-3.0,20.0,-11.0,-1.0,-1.0,1651094182863827.0,2
1253,0.0,-1.0,1.0,1.0,-15.0,16.0,2.0,1.0,1651094182863827.0,2
1254,0.0,-1.0,-6.0,2.0,-32.0,0.0,0.0,-1.0,1651094182876137.0,2
1255,-1.0,3.0,5.0,0.0,-21.0,-9.0,-5.0,-1.0,1651094182876137.0,2
1256,-1.0,-1.0,-3.0,-6.0,-12.0,-10.0,-2.0,-1.0,1651094182885283.0,2
1257,0.0,-5.0,-6.0,-6.0,-10.0,-11.0,-2.0,-3.0,1651094182885283.0,2
1258,-1.0,-3.0,-1.0,1.0,33.0,14.0,0.0,0.0,1651094182900543.0,2
1259,0.0,3.0,10.0,12.0,48.0,1.0,3.0,1.0,1651094182900543.0,2
1260,1.0,1.0,0.0,-6.0,-31.0,-6.0,-2.0,0.0,1651094182901405.0,2
1261,0.0,-1.0,2.0,-1.0,2.0,11.0,-1.0,-2.0,1651094182901405.0,2
1262,-4.0,-2.0,-6.0,0.0,10.0,-16.0,-1.0,-1.0,1651094182923205.0,2
1263,-2.0,-1.0,-5.0,-11.0,-7.0,4.0,0.0,-2.0,1651094182923205.0,2
1264,0.0,2.0,6.0,6.0,-12.0,-12.0,1.0,-1.0,1651094182923669.0,2
1265,-1.0,-1.0,2.0,2.0,2.0,9.0,1.0,0.0,1651094182923669.0,2
1266,1.0,2.0,7.0,3.0,42.0,13.0,0.0,1.0,1651094182936945.0,2
1267,-1.0,-2.0,-7.0,-3.0,-16.0,-2.0,-2.0,-1.0,1651094182936945.0,2
1268,0.0,0.0,-2.0,-1.0,2.0,-4.0,-1.0,-2.0,1651094182962319.0,2
1269,1.0,2.0,2.0,-1.0,21.0,5.0,-1.0,-1.0,1651094182962319.0,2
1270,-1.0,-4.0,-7.0,-3.0,-22.0,-7.0,-1.0,-1.0,1651094182962319.0,2
1271,0.0,-2.0,1.0,-8.0,-66.0,-6.0,0.0,-2.0,1651094182962319.0,2
1272,0.0,1.0,1.0,3.0,37.0,12.0,-1.0,0.0,1651094182966344.0,2
1273,0.0,-5.0,-6.0,10.0,13.0,4.0,1.0,2.0,1651094182966344.0,2
1274,1.0,1.0,-4.0,0.0,-5.0,-5.0,-1.0,2.0,1651094182982451.0,2
1275,0.0,2.0,15.0,-6.0,-18.0,-4.0,-3.0,-2.0,1651094182982451.0,2
1276,1.0,1.0,0.0,3.0,10.0,5.0,1.0,0.0,1651094182983452.0,2
1277,0.0,-1.0,0.0,-7.0,-87.0,-17.0,-2.0,0.0,1651094182983452.0,2
1278,0.0,0.0,-4.0,11.0,117.0,17.0,5.0,2.0,1651094182996606.0,2
1279,0.0,-2.0,-3.0,1.0,3.0,-4.0,-1.0,0.0,1651094182996606.0,2
1280,-2.0,-3.0,-1.0,-2.0,-26.0,4.0,-2.0,-2.0,1651094183004610.0,2
1281,0.0,1.0,-1.0,-2.0,19.0,2.0,-1.0,-1.0,1651094183004610.0,2
1282,-1.0,-4.0,-5.0,-5.0,-85.0,-8.0,-2.0,-2.0,1651094183020280.0,2
1283,-1.0,0.0,-5.0,0.0,13.0,4.0,-1.0,-1.0,1651094183020280.0,2
1284,2.0,1.0,4.0,6.0,16.0,-2.0,-1.0,0.0,1651094183021282.0,2
1285,-1.0,-2.0,2.0,1.0,7.0,0.0,-2.0,-3.0,1651094183021282.0,2
1286,-2.0,1.0,3.0,-3.0,-12.0,-4.0,-2.0,-2.0,1651094183042464.0,2
1287,0.0,0.0,-3.0,-1.0,-13.0,-3.0,0.0,1.0,1651094183042464.0,2
1288,-1.0,-3.0,-4.0,-5.0,-16.0,-4.0,0.0,-1.0,1651094183043464.0,2
1289,-2.0,-2.0,2.0,2.0,-3.0,-15.0,-2.0,0.0,1651094183043464.0,2
1290,1.0,1.0,2.0,2.0,-3.0,14.0,0.0,1.0,1651094183056717.0,2
1291,-1.0,1.0,-3.0,1.0,31.0,11.0,0.0,1.0,1651094183056717.0,2
1292,-2.0,-3.0,-3.0,-3.0,-21.0,-3.0,0.0,0.0,1651094183065051.0,2
1293,0.0,-1.0,-2.0,4.0,23.0,2.0,-1.0,-2.0,1651094183065051.0,2
1294,0.0,3.0,11.0,0.0,20.0,-1.0,4.0,0.0,1651094183088506.0,2
1295,-1.0,-6.0,-13.0,-9.0,5.0,-4.0,-4.0,-1.0,1651094183088506.0,2
1296,0.0,-1.0,-1.0,0.0,-21.0,12.0,0.0,0.0,1651094183089220.0,2
1297,0.0,0.0,0.0,-6.0,17.0,-4.0,-1.0,0.0,1651094183089220.0,2
1298,-1.0,-1.0,-3.0,3.0,-37.0,-8.0,-1.0,-1.0,1651094183103495.0,2
1299,0.0,-4.0,-6.0,-8.0,-2.0,-5.0,0.0,1.0,1651094183103495.0,2
1300,-1.0,4.0,11.0,1.0,-24.0,6.0,-2.0,-2.0,1651094183104365.0,2
1301,1.0,3.0,1.0,13.0,10.0,12.0,2.0,1.0,1651094183104365.0,2
1302,-1.0,-2.0,-5.0,-3.0,-25.0,-7.0,-1.0,-1.0,1651094183116734.0,2
1303,0.0,-3.0,1.0,2.0,13.0,7.0,0.0,-2.0,1651094183116734.0,2
1304,-2.0,-3.0,-2.0,-3.0,18.0,-12.0,-2.0,-1.0,1651094183125370.0,2
1305,-1.0,3.0,4.0,-3.0,-7.0,9.0,1.0,0.0,1651094183125370.0,2
1306,-1.0,0.0,0.0,-4.0,-22.0,2.0,-1.0,0.0,1651094183140243.0,2
1307,0.0,-1.0,-1.0,1.0,-3.0,-3.0,-1.0,0.0,1651094183140243.0,2
1308,0.0,-1.0,-4.0,-4.0,-26.0,-1.0,-1.0,0.0,1651094183141245.0,2
1309,0.0,-5.0,-12.0,-1.0,-27.0,-10.0,-2.0,-3.0,1651094183141245.0,2
1310,-1.0,0.0,15.0,1.0,45.0,12.0,-1.0,-1.0,1651094183169670.0,2
1311,1.0,7.0,-4.0,2.0,-9.0,3.0,0.0,-1.0,1651094183169670.0,2
1312,0.0,-9.0,-8.0,0.0,27.0,-8.0,-2.0,0.0,1651094183171700.0,2
1313,-1.0,6.0,6.0,-6.0,-11.0,-7.0,-1.0,0.0,1651094183171700.0,2
1314,-1.0,-1.0,-8.0,-6.0,-36.0,-16.0,-4.0,-3.0,1651094183185099.0,2
1315,0.0,0.0,3.0,8.0,42.0,18.0,3.0,-1.0,1651094183185099.0,2
1316,0.0,-1.0,-1.0,1.0,-7.0,-1.0,-1.0,-2.0,1651094183186946.0,2
1317,-1.0,0.0,-4.0,-2.0,2.0,0.0,1.0,0.0,1651094183186946.0,2
1318,-1.0,-6.0,-4.0,-5.0,-38.0,-6.0,-1.0,-1.0,1651094183200347.0,2
1319,1.0,-1.0,5.0,5.0,2.0,-10.0,0.0,2.0,1651094183200347.0,2
1320,-1.0,1.0,-4.0,-1.0,24.0,-2.0,-1.0,-2.0,1651094183201346.0,2
1321,0.0,-3.0,-3.0,-3.0,-9.0,5.0,0.0,-2.0,1651094183201346.0,2
1322,1.0,3.0,9.0,1.0,15.0,-2.0,-1.0,-1.0,1651094183229629.0,2
1323,-1.0,-3.0,-1.0,4.0,-24.0,-1.0,-1.0,-1.0,1651094183229629.0,2
1324,0.0,1.0,0.0,3.0,14.0,-1.0,0.0,-1.0,1651094183231657.0,2
1325,-1.0,-6.0,-6.0,-6.0,2.0,1.0,1.0,0.0,1651094183231657.0,2
1326,1.0,4.0,7.0,-2.0,-41.0,-2.0,-2.0,-1.0,1651094183245890.0,2
1327,-1.0,-2.0,-5.0,-1.0,25.0,5.0,2.0,0.0,1651094183245890.0,2
1328,0.0,-1.0,0.0,3.0,42.0,-10.0,0.0,2.0,1651094183246782.0,2
1329,1.0,2.0,2.0,-1.0,24.0,2.0,-1.0,1.0,1651094183246782.0,2
1330,0.0,-1.0,-8.0,3.0,2.0,-3.0,0.0,0.0,1651094183268076.0,2
1331,-1.0,-1.0,4.0,-4.0,-53.0,-11.0,-2.0,-2.0,1651094183268076.0,2
1332,0.0,3.0,8.0,-3.0,-18.0,2.0,0.0,0.0,1651094183268931.0,2
1333,-1.0,-4.0,-3.0,-2.0,10.0,13.0,-3.0,-1.0,1651094183268931.0,2
1334,-1.0,-2.0,-7.0,-2.0,-43.0,-5.0,1.0,0.0,1651094183283228.0,2
1335,-3.0,-2.0,-5.0,-1.0,43.0,1.0,0.0,-2.0,1651094183283228.0,2
1336,0.0,-1.0,-1.0,-7.0,23.0,6.0,-1.0,-1.0,1651094183284091.0,2
1337,0.0,1.0,4.0,1.0,-1.0,-6.0,-3.0,-1.0,1651094183284091.0,2
1338,-1.0,-4.0,-14.0,1.0,24.0,-4.0,-4.0,-1.0,1651094183305542.0,2
1339,1.0,5.0,20.0,6.0,-39.0,-4.0,3.0,1.0,1651094183305542.0,2
1340,-1.0,-1.0,-7.0,-3.0,-31.0,-2.0,-2.0,-1.0,1651094183307390.0,2
1341,1.0,0.0,2.0,-4.0,0.0,1.0,-1.0,-2.0,1651094183307390.0,2
1342,-2.0,-2.0,-2.0,1.0,31.0,-1.0,-2.0,1.0,1651094183319564.0,2
1343,1.0,-2.0,-6.0,-2.0,3.0,1.0,0.0,2.0,1651094183319564.0,2
1344,-1.0,0.0,0.0,-5.0,-3.0,0.0,-3.0,-2.0,1651094183321562.0,2
1345,0.0,3.0,5.0,4.0,-24.0,0.0,2.0,1.0,1651094183321562.0,2
1346,0.0,-4.0,-15.0,4.0,19.0,5.0,0.0,-1.0,1651094183343306.0,2
1347,-1.0,0.0,4.0,2.0,0.0,1.0,-2.0,0.0,1651094183343306.0,2
1348,0.0,4.0,7.0,-2.0,-14.0,2.0,0.0,0.0,1651094183343694.0,2
1349,-1.0,-2.0,0.0,1.0,16.0,-3.0,-2.0,-1.0,1651094183343694.0,2
1350,1.0,-1.0,-1.0,-2.0,12.0,6.0,3.0,0.0,1651094183365951.0,2
1351,-2.0,-4.0,-6.0,-6.0,-18.0,-6.0,-3.0,-2.0,1651094183365951.0,2
1352,0.0,0.0,-5.0,5.0,0.0,1.0,2.0,1.0,1651094183366808.0,2
1353,0.0,1.0,2.0,0.0,9.0,3.0,0.0,1.0,1651094183366808.0,2
1354,1.0,2.0,10.0,5.0,-7.0,-1.0,0.0,-1.0,1651094183379525.0,2
1355,1.0,2.0,-4.0,-4.0,-12.0,-12.0,-3.0,1.0,1651094183379525.0,2
1356,-1.0,-2.0,-3.0,-3.0,-36.0,4.0,2.0,-1.0,1651094183386499.0,2
1357,0.0,-1.0,0.0,1.0,20.0,-1.0,1.0,2.0,1651094183386499.0,2
1358,0.0,-1.0,2.0,-1.0,-5.0,5.0,0.0,-2.0,1651094183403524.0,2
1359,-3.0,-4.0,-4.0,-4.0,-12.0,-5.0,-3.0,-2.0,1651094183403524.0,2
1360,0.0,-4.0,-4.0,-4.0,4.0,-2.0,-3.0,-2.0,1651094183403524.0,2
1361,-1.0,2.0,3.0,0.0,-18.0,-2.0,1.0,0.0,1651094183403524.0,2
1362,0.0,2.0,4.0,6.0,30.0,-3.0,-1.0,-1.0,1651094183424946.0,2
1363,0.0,-2.0,-2.0,-4.0,-18.0,0.0,1.0,-1.0,1651094183424946.0,2
1364,0.0,-1.0,-2.0,-3.0,11.0,3.0,0.0,0.0,1651094183426805.0,2
1365,-1.0,-2.0,-4.0,2.0,21.0,-6.0,-3.0,-3.0,1651094183426805.0,2
1366,-1.0,-4.0,-12.0,-8.0,-18.0,8.0,0.0,1.0,1651094183437936.0,2
1367,0.0,6.0,18.0,1.0,11.0,5.0,0.0,0.0,1651094183437936.0,2
1368,0.0,1.0,-2.0,0.0,-27.0,-10.0,-2.0,-1.0,1651094183447409.0,2
1369,0.0,-1.0,-2.0,-5.0,-59.0,12.0,1.0,0.0,1651094183447409.0,2
1370,-2.0,-1.0,0.0,3.0,12.0,2.0,-1.0,-1.0,1651094183462441.0,2
1371,0.0,-2.0,-5.0,6.0,9.0,5.0,0.0,-1.0,1651094183462441.0,2
1372,0.0,-2.0,0.0,0.0,5.0,-9.0,-2.0,-2.0,1651094183464391.0,2
1373,-1.0,0.0,2.0,0.0,-4.0,-5.0,-1.0,-2.0,1651094183464391.0,2
1374,0.0,0.0,1.0,-3.0,21.0,-5.0,0.0,0.0,1651094183484790.0,2
1375,-1.0,-4.0,-4.0,-4.0,-7.0,5.0,1.0,0.0,1651094183484790.0,2
1376,-2.0,-3.0,-4.0,7.0,-24.0,-2.0,0.0,1.0,1651094183486666.0,2
1377,-3.0,1.0,4.0,-8.0,16.0,1.0,-2.0,-2.0,1651094183486666.0,2
1378,-3.0,2.0,0.0,-1.0,23.0,-13.0,-4.0,0.0,1651094183508927.0,2
1379,1.0,1.0,5.0,14.0,16.0,9.0,2.0,0.0,1651094183508927.0,2
1380,0.0,-2.0,1.0,0.0,-6.0,-1.0,-1.0,-1.0,1651094183509799.0,2
1381,-1.0,-4.0,-6.0,0.0,1.0,-7.0,-1.0,-1.0,1651094183509799.0,2
1382,-2.0,-1.0,2.0,-8.0,-6.0,6.0,-2.0,-2.0,1651094183523257.0,2
1383,0.0,0.0,0.0,-4.0,-34.0,-2.0,-1.0,-1.0,1651094183523257.0,2
1384,1.0,-1.0,-6.0,2.0,30.0,-6.0,1.0,-1.0,1651094183524109.0,2
1385,-1.0,1.0,-1.0,4.0,0.0,2.0,-1.0,-1.0,1651094183524109.0,2
1386,1.0,-3.0,1.0,-3.0,-27.0,-10.0,-2.0,-1.0,1651094183544554.0,2
1387,-1.0,-1.0,-7.0,-1.0,-2.0,-1.0,-1.0,-1.0,1651094183544554.0,2
1388,0.0,3.0,10.0,-1.0,7.0,7.0,1.0,0.0,1651094183546548.0,2
1389,-1.0,0.0,1.0,3.0,-13.0,-6.0,0.0,0.0,1651094183546548.0,2
1390,0.0,-1.0,-3.0,-1.0,44.0,-2.0,0.0,0.0,1651094183558839.0,2
1391,-3.0,-2.0,-2.0,2.0,-18.0,4.0,0.0,-1.0,1651094183558839.0,2
1392,-1.0,2.0,4.0,0.0,-23.0,-1.0,-2.0,0.0,1651094183574037.0,2
1393,0.0,-2.0,-1.0,-2.0,30.0,-8.0,-1.0,-2.0,1651094183574037.0,2
1394,-1.0,-3.0,2.0,1.0,-21.0,4.0,1.0,0.0,1651094183582415.0,2
1395,0.0,-5.0,-8.0,-2.0,18.0,6.0,0.0,-2.0,1651094183582415.0,2
1396,-2.0,-1.0,-7.0,-6.0,-14.0,2.0,-2.0,-2.0,1651094183584413.0,2
1397,0.0,-1.0,-2.0,3.0,42.0,5.0,2.0,-1.0,1651094183584413.0,2
1398,0.0,0.0,2.0,9.0,15.0,1.0,4.0,-1.0,1651094183604530.0,2
1399,0.0,1.0,2.0,-7.0,20.0,17.0,-1.0,1.0,1651094183604530.0,2
1400,0.0,0.0,1.0,-1.0,-49.0,-7.0,-2.0,-3.0,1651094183606524.0,2
1401,1.0,0.0,-3.0,-3.0,69.0,7.0,1.0,1.0,1651094183606524.0,2
1402,0.0,-1.0,1.0,-3.0,-39.0,-3.0,-2.0,-1.0,1651094183619526.0,2
1403,-1.0,0.0,-10.0,-3.0,8.0,-21.0,-2.0,-2.0,1651094183619526.0,2
1404,0.0,3.0,9.0,4.0,-48.0,16.0,2.0,-1.0,1651094183625606.0,2
1405,-2.0,-3.0,-4.0,-4.0,3.0,-7.0,-4.0,-1.0,1651094183625606.0,2
1406,0.0,1.0,5.0,4.0,3.0,1.0,2.0,-1.0,1651094183642832.0,2
1407,0.0,-1.0,0.0,1.0,22.0,-9.0,-2.0,-2.0,1651094183642832.0,2
1408,1.0,-5.0,-6.0,-3.0,7.0,-3.0,-1.0,-1.0,1651094183643720.0,2
1409,-1.0,1.0,0.0,-3.0,-35.0,-5.0,0.0,-1.0,1651094183643720.0,2
1410,-1.0,0.0,-1.0,-3.0,-1.0,3.0,0.0,-1.0,1651094183665043.0,2
1411,0.0,-1.0,-1.0,-5.0,7.0,1.0,0.0,0.0,1651094183665043.0,2
1412,-3.0,-1.0,-3.0,0.0,-55.0,-5.0,0.0,0.0,1651094183666933.0,2
1413,3.0,2.0,6.0,5.0,52.0,14.0,3.0,2.0,1651094183666933.0,2
1414,0.0,0.0,-3.0,-7.0,-48.0,-3.0,-2.0,-1.0,1651094183679143.0,2
1415,0.0,1.0,-1.0,3.0,-11.0,-4.0,-2.0,-1.0,1651094183679143.0,2
1416,-1.0,-8.0,-11.0,-5.0,11.0,-8.0,-2.0,-1.0,1651094183686242.0,2
1417,-2.0,3.0,10.0,7.0,-13.0,-4.0,1.0,0.0,1651094183686242.0,2
1418,0.0,2.0,-1.0,-6.0,54.0,8.0,0.0,-1.0,1651094183702348.0,2
1419,-1.0,1.0,1.0,-9.0,-26.0,-6.0,-1.0,0.0,1651094183702348.0,2
1420,-1.0,-3.0,-1.0,3.0,42.0,-2.0,-2.0,0.0,1651094183704368.0,2
1421,0.0,-3.0,-6.0,7.0,-82.0,-1.0,0.0,1.0,1651094183704368.0,2
1422,2.0,3.0,8.0,7.0,49.0,4.0,2.0,1.0,1651094183725753.0,2
1423,-1.0,0.0,-6.0,-1.0,12.0,3.0,-2.0,1.0,1651094183725753.0,2
1424,-1.0,-1.0,-1.0,-6.0,-19.0,0.0,0.0,0.0,1651094183726617.0,2
1425,-1.0,-4.0,-4.0,-6.0,-28.0,-6.0,-4.0,-2.0,1651094183726617.0,2
1426,-1.0,-2.0,0.0,7.0,63.0,5.0,0.0,0.0,1651094183738703.0,2
1427,0.0,0.0,1.0,1.0,-60.0,-5.0,-1.0,-2.0,1651094183738703.0,2
1428,0.0,0.0,0.0,-2.0,-46.0,0.0,0.0,-1.0,1651094183747738.0,2
1429,1.0,0.0,-3.0,-2.0,-9.0,-5.0,0.0,0.0,1651094183747738.0,2
1430,0.0,0.0,-3.0,-3.0,-73.0,-6.0,0.0,0.0,1651094183763101.0,2
1431,0.0,-1.0,2.0,-3.0,5.0,-5.0,-2.0,-1.0,1651094183763101.0,2
1432,3.0,8.0,12.0,25.0,103.0,20.0,6.0,2.0,1651094183763967.0,2
1433,0.0,-3.0,-4.0,-9.0,-88.0,-6.0,-3.0,-4.0,1651094183763967.0,2
1434,0.0,-1.0,-1.0,4.0,85.0,10.0,0.0,1.0,1651094183785364.0,2
1435,-1.0,-4.0,-4.0,-1.0,-41.0,-4.0,1.0,0.0,1651094183785364.0,2
1436,-2.0,-1.0,1.0,-16.0,2.0,-12.0,-2.0,-3.0,1651094183791523.0,2
1437,0.0,-2.0,-2.0,8.0,9.0,9.0,1.0,1.0,1651094183791523.0,2
1438,-1.0,1.0,-1.0,-2.0,-34.0,-3.0,-1.0,-2.0,1651094183799036.0,2
1439,0.0,-2.0,2.0,-1.0,-21.0,0.0,0.0,0.0,1651094183799036.0,2
1440,-2.0,0.0,-4.0,-6.0,21.0,-4.0,-2.0,-1.0,1651094183807301.0,2
1441,1.0,1.0,1.0,6.0,100.0,-1.0,1.0,2.0,1651094183807301.0,2
1442,-2.0,-2.0,-2.0,-8.0,-128.0,-12.0,-1.0,-2.0,1651094183822728.0,2
1443,-2.0,3.0,9.0,-1.0,40.0,2.0,-1.0,0.0,1651094183822728.0,2
1444,-3.0,-5.0,-9.0,0.0,33.0,1.0,-2.0,-2.0,1651094183823727.0,2
1445,1.0,5.0,6.0,-2.0,-80.0,3.0,0.0,1.0,1651094183823727.0,2
1446,-1.0,-1.0,0.0,8.0,75.0,8.0,0.0,-1.0,1651094183845119.0,2
1447,1.0,-3.0,-15.0,1.0,21.0,3.0,2.0,0.0,1651094183845119.0,2
1448,1.0,3.0,17.0,0.0,1.0,-3.0,0.0,2.0,1651094183846017.0,2
1449,-3.0,-2.0,-7.0,-6.0,-22.0,-7.0,-4.0,-3.0,1651094183846017.0,2
1450,-2.0,-2.0,-2.0,-4.0,22.0,-7.0,-4.0,-1.0,1651094183859104.0,2
1451,-3.0,-5.0,-5.0,1.0,12.0,6.0,1.0,-2.0,1651094183859104.0,2
1452,1.0,1.0,-2.0,4.0,-9.0,5.0,2.0,1.0,1651094183868081.0,2
1453,0.0,2.0,6.0,3.0,27.0,-1.0,-1.0,-1.0,1651094183868081.0,2
1454,-1.0,3.0,-1.0,-17.0,-95.0,-8.0,-1.0,1.0,1651094183882111.0,2
1455,-1.0,0.0,0.0,6.0,-27.0,-3.0,-2.0,-1.0,1651094183882111.0,2
1456,-2.0,-6.0,-9.0,-4.0,-19.0,-5.0,-1.0,-2.0,1651094183884106.0,2
1457,6.0,2.0,5.0,7.0,83.0,4.0,2.0,1.0,1651094183884106.0,2
1458,-3.0,1.0,1.0,5.0,-4.0,6.0,0.0,-1.0,1651094183904405.0,2
1459,-2.0,1.0,3.0,-4.0,13.0,-1.0,0.0,1.0,1651094183904405.0,2
1460,-1.0,-4.0,-6.0,-4.0,-10.0,-1.0,-4.0,-3.0,1651094183911386.0,2
1461,-2.0,-4.0,-4.0,-2.0,-9.0,0.0,2.0,-1.0,1651094183911386.0,2
1462,-1.0,-5.0,-9.0,-9.0,-11.0,-12.0,-7.0,-2.0,1651094183919584.0,2
1463,-2.0,0.0,1.0,1.0,11.0,5.0,1.0,0.0,1651094183919584.0,2
1464,0.0,5.0,0.0,0.0,-23.0,-2.0,0.0,1.0,1651094183927766.0,2
1465,-2.0,-4.0,0.0,-2.0,90.0,0.0,-1.0,0.0,1651094183927766.0,2
1466,0.0,1.0,3.0,17.0,50.0,12.0,1.0,-1.0,1651094183943049.0,0
1467,0.0,0.0,4.0,-6.0,-107.0,-14.0,-3.0,-4.0,1651094183943049.0,3
1468,3.0,2.0,-1.0,21.0,81.0,12.0,5.0,4.0,1651094183943884.0,3
1469,4.0,0.0,-2.0,-11.0,-63.0,-13.0,-4.0,-3.0,1651094183943884.0,3
1470,-2.0,-4.0,-4.0,-16.0,-8.0,7.0,2.0,5.0,1651094183965365.0,3
1471,-1.0,4.0,6.0,9.0,82.0,9.0,2.0,-1.0,1651094183965365.0,3
1472,-2.0,0.0,2.0,7.0,-23.0,10.0,1.0,-1.0,1651094183966207.0,3
1473,-4.0,-4.0,-9.0,5.0,-34.0,-4.0,-1.0,3.0,1651094183966207.0,3
1474,-4.0,-3.0,-3.0,0.0,-38.0,-12.0,-6.0,-12.0,1651094183979394.0,3
1475,-2.0,-4.0,0.0,-7.0,44.0,-4.0,-2.0,0.0,1651094183979394.0,3
1476,1.0,6.0,3.0,2.0,60.0,-3.0,0.0,1.0,1651094183987812.0,3
1477,-2.0,3.0,-3.0,-14.0,-44.0,-5.0,0.0,2.0,1651094183987812.0,3
1478,7.0,1.0,-2.0,-6.0,-36.0,4.0,0.0,0.0,1651094184002908.0,3
1479,-3.0,-4.0,-5.0,1.0,25.0,1.0,-1.0,1.0,1651094184002908.0,3
1480,-4.0,-3.0,1.0,-11.0,-48.0,-11.0,-4.0,-9.0,1651094184003752.0,3
1481,-17.0,-25.0,-1.0,4.0,-51.0,-10.0,-7.0,-8.0,1651094184003752.0,3
1482,16.0,10.0,-6.0,10.0,84.0,14.0,7.0,4.0,1651094184026206.0,3
1483,0.0,9.0,6.0,-15.0,-84.0,-15.0,-7.0,0.0,1651094184026206.0,3
1484,0.0,3.0,2.0,19.0,64.0,21.0,6.0,7.0,1651094184027047.0,3
1485,6.0,3.0,-1.0,-2.0,17.0,12.0,8.0,-2.0,1651094184027047.0,3
1486,-3.0,-7.0,-4.0,-4.0,-92.0,-23.0,-8.0,-7.0,1651094184039132.0,3
1487,-8.0,-11.0,-6.0,2.0,25.0,2.0,-6.0,-2.0,1651094184039132.0,3
1488,11.0,4.0,4.0,-1.0,19.0,-25.0,-2.0,18.0,1651094184047271.0,3
1489,2.0,1.0,-4.0,-5.0,-4.0,10.0,-2.0,-9.0,1651094184047271.0,3
1490,-16.0,-4.0,-1.0,-7.0,71.0,-2.0,-5.0,-14.0,1651094184061759.0,3
1491,8.0,9.0,2.0,2.0,12.0,13.0,-1.0,-2.0,1651094184061759.0,3
1492,-6.0,-1.0,7.0,15.0,-128.0,1.0,2.0,-9.0,1651094184069458.0,3
1493,4.0,-1.0,-11.0,-23.0,-58.0,-28.0,0.0,10.0,1651094184069458.0,3
1494,-1.0,1.0,9.0,32.0,83.0,32.0,6.0,6.0,1651094184084643.0,3
1495,-6.0,-4.0,-5.0,-17.0,-128.0,-41.0,-10.0,-8.0,1651094184084643.0,3
1496,4.0,0.0,5.0,8.0,127.0,43.0,3.0,3.0,1651094184086473.0,3
1497,-1.0,8.0,8.0,-27.0,-123.0,4.0,2.0,1.0,1651094184086473.0,3
1498,1.0,-3.0,-9.0,1.0,-36.0,-19.0,1.0,5.0,1651094184099595.0,3
1499,1.0,4.0,1.0,5.0,-41.0,16.0,10.0,4.0,1651094184099595.0,3
1500,2.0,3.0,0.0,15.0,32.0,-8.0,0.0,-1.0,1651094184107621.0,3
1501,-3.0,-5.0,-3.0,-5.0,-3.0,-9.0,-8.0,-1.0,1651094184107621.0,3
1502,-12.0,-5.0,0.0,-15.0,-40.0,0.0,-5.0,-12.0,1651094184122133.0,3
1503,8.0,2.0,4.0,4.0,61.0,0.0,0.0,8.0,1651094184122133.0,3
1504,-12.0,-11.0,-21.0,-46.0,-112.0,-52.0,-7.0,-8.0,1651094184128958.0,3
1505,8.0,10.0,16.0,58.0,127.0,54.0,22.0,1.0,1651094184128958.0,3
1506,-3.0,7.0,6.0,-10.0,-106.0,14.0,5.0,0.0,1651094184145279.0,3
1507,7.0,-12.0,-1.0,17.0,116.0,33.0,-12.0,-17.0,1651094184145279.0,3
1508,6.0,3.0,-6.0,-16.0,-116.0,-17.0,28.0,61.0,1651094184146194.0,3
1509,-9.0,-4.0,-5.0,-23.0,23.0,-14.0,-15.0,-13.0,1651094184146194.0,3
1510,6.0,2.0,4.0,22.0,-13.0,-10.0,2.0,-4.0,1651094184158622.0,3
1511,-3.0,1.0,-4.0,8.0,47.0,6.0,4.0,-7.0,1651094184158622.0,3
1512,-8.0,-8.0,-2.0,3.0,127.0,30.0,-7.0,-15.0,1651094184167434.0,3
1513,9.0,3.0,-7.0,-23.0,-66.0,-36.0,1.0,13.0,1651094184167434.0,3
1514,-3.0,1.0,9.0,4.0,69.0,-4.0,0.0,5.0,1651094184182301.0,3
1515,-7.0,0.0,4.0,-1.0,18.0,9.0,3.0,-4.0,1651094184182301.0,3
1516,-2.0,-3.0,-6.0,4.0,-3.0,-2.0,-7.0,-12.0,1651094184189731.0,3
1517,-6.0,1.0,1.0,14.0,-27.0,-10.0,-1.0,2.0,1651094184189731.0,3
1518,3.0,-2.0,-8.0,-30.0,-119.0,-7.0,-8.0,-4.0,1651094184204750.0,3
1519,-5.0,-5.0,-4.0,14.0,39.0,-5.0,-9.0,6.0,1651094184204750.0,3
1520,5.0,-4.0,4.0,-6.0,-43.0,7.0,-1.0,-3.0,1651094184206778.0,3
1521,-8.0,-4.0,-3.0,4.0,12.0,3.0,-13.0,-23.0,1651094184206778.0,3
1522,-12.0,0.0,2.0,15.0,73.0,-9.0,2.0,7.0,1651094184227060.0,3
1523,4.0,3.0,-8.0,-32.0,-47.0,-31.0,0.0,3.0,1651094184227060.0,3
1524,4.0,3.0,1.0,21.0,-9.0,11.0,3.0,-4.0,1651094184229078.0,3
1525,-2.0,1.0,5.0,6.0,-32.0,-14.0,-5.0,-6.0,1651094184229078.0,3
1526,3.0,-5.0,-1.0,-13.0,-59.0,12.0,1.0,18.0,1651094184242238.0,3
1527,-2.0,1.0,1.0,-54.0,-36.0,10.0,4.0,0.0,1651094184242238.0,3
1528,-4.0,3.0,-2.0,57.0,-7.0,56.0,-6.0,-10.0,1651094184244235.0,3
1529,1.0,-7.0,-2.0,-17.0,-51.0,-18.0,2.0,2.0,1651094184244235.0,3
1530,7.0,1.0,-2.0,26.0,43.0,3.0,7.0,-4.0,1651094184265464.0,3
1531,2.0,0.0,-9.0,-3.0,-76.0,-39.0,-1.0,14.0,1651094184265464.0,3
1532,-1.0,3.0,9.0,-12.0,111.0,28.0,9.0,-19.0,1651094184266374.0,3
1533,-1.0,-3.0,-8.0,-11.0,-34.0,1.0,-7.0,4.0,1651094184266374.0,3
1534,-10.0,-7.0,-9.0,1.0,-98.0,-2.0,-14.0,-20.0,1651094184287693.0,3
1535,4.0,2.0,3.0,-5.0,90.0,-6.0,2.0,4.0,1651094184287693.0,3
1536,0.0,4.0,12.0,-7.0,-29.0,-41.0,-6.0,-9.0,1651094184288693.0,3
1537,6.0,4.0,-3.0,4.0,-11.0,20.0,13.0,12.0,1651094184288693.0,3
1538,7.0,5.0,16.0,15.0,57.0,11.0,6.0,31.0,1651094184302949.0,3
1539,-11.0,-4.0,-3.0,17.0,-61.0,16.0,-2.0,-18.0,1651094184302949.0,3
1540,-8.0,-10.0,-8.0,-12.0,87.0,66.0,-5.0,10.0,1651094184308879.0,3
1541,4.0,-1.0,-11.0,-8.0,-47.0,-1.0,0.0,8.0,1651094184308879.0,3
1542,9.0,5.0,13.0,-6.0,74.0,19.0,1.0,6.0,1651094184325269.0,3
1543,2.0,6.0,4.0,-17.0,-71.0,-15.0,4.0,1.0,1651094184325269.0,3
1544,0.0,1.0,-6.0,45.0,29.0,13.0,4.0,3.0,1651094184326138.0,3
1545,-8.0,-7.0,-11.0,-19.0,-45.0,-9.0,-3.0,-11.0,1651094184326138.0,3
1546,-2.0,-13.0,-12.0,-12.0,0.0,-15.0,-6.0,-13.0,1651094184348597.0,3
1547,3.0,10.0,13.0,20.0,29.0,22.0,9.0,8.0,1651094184348597.0,3
1548,0.0,-5.0,-4.0,-13.0,-33.0,-33.0,-7.0,-8.0,1651094184350236.0,3
1549,6.0,1.0,0.0,13.0,-10.0,-4.0,-10.0,3.0,1651094184350236.0,3
1550,1.0,2.0,1.0,-6.0,0.0,-18.0,6.0,1.0,1651094184362143.0,3
1551,-8.0,-2.0,5.0,-10.0,93.0,15.0,-3.0,-11.0,1651094184362143.0,3
1552,-9.0,-9.0,-6.0,34.0,-5.0,22.0,-18.0,-6.0,1651094184376169.0,3
1553,-19.0,6.0,7.0,2.0,9.0,-43.0,2.0,2.0,1651094184376169.0,3
1554,22.0,-2.0,-3.0,-6.0,-16.0,-43.0,-5.0,1.0,1651094184385441.0,3
1555,7.0,-4.0,-8.0,-9.0,-69.0,41.0,5.0,-2.0,1651094184385441.0,3
1556,3.0,2.0,4.0,-38.0,-84.0,-14.0,2.0,6.0,1651094184386282.0,3
1557,-6.0,-4.0,6.0,13.0,17.0,29.0,-9.0,-10.0,1651094184386282.0,3
1558,-4.0,2.0,-4.0,-3.0,-10.0,-2.0,-2.0,1.0,1651094184407826.0,3
1559,-3.0,-2.0,-3.0,23.0,83.0,4.0,4.0,4.0,1651094184407826.0,3
1560,4.0,1.0,1.0,-14.0,-39.0,-24.0,4.0,-1.0,1651094184408826.0,3
1561,-2.0,1.0,5.0,2.0,60.0,39.0,4.0,-2.0,1651094184408826.0,3
1562,-1.0,2.0,-3.0,-28.0,-80.0,-10.0,7.0,8.0,1651094184421295.0,3
1563,-5.0,-9.0,-10.0,15.0,17.0,-28.0,-15.0,-10.0,1651094184421295.0,3
1564,-9.0,-6.0,-4.0,0.0,36.0,1.0,-5.0,-7.0,1651094184429119.0,3
1565,3.0,1.0,-3.0,-3.0,7.0,-6.0,0.0,2.0,1651094184429119.0,3
1566,5.0,6.0,6.0,21.0,4.0,38.0,13.0,10.0,1651094184445079.0,3
1567,-6.0,-4.0,1.0,0.0,-30.0,-15.0,0.0,0.0,1651094184445079.0,3
1568,1.0,-1.0,-6.0,-60.0,69.0,-35.0,0.0,-1.0,1651094184446076.0,3
1569,1.0,3.0,2.0,38.0,11.0,2.0,0.0,-4.0,1651094184446076.0,3
1570,-8.0,-5.0,-1.0,16.0,-17.0,-19.0,-6.0,-11.0,1651094184468469.0,3
1571,2.0,-3.0,0.0,20.0,-30.0,14.0,4.0,8.0,1651094184468469.0,3
1572,11.0,1.0,2.0,-11.0,-49.0,-31.0,6.0,1.0,1651094184469381.0,3
1573,0.0,-4.0,-4.0,-30.0,-16.0,9.0,-3.0,10.0,1651094184469381.0,3
1574,-10.0,3.0,-5.0,-23.0,13.0,56.0,2.0,-8.0,1651094184482472.0,3
1575,5.0,3.0,4.0,38.0,1.0,-34.0,-1.0,1.0,1651094184482472.0,3
1576,-2.0,3.0,1.0,-7.0,-75.0,-38.0,-4.0,-4.0,1651094184488667.0,3
1577,2.0,-9.0,2.0,12.0,25.0,47.0,5.0,0.0,1651094184488667.0,3
1578,1.0,3.0,-1.0,-12.0,-42.0,-65.0,-1.0,-2.0,1651094184504633.0,3
1579,8.0,2.0,2.0,0.0,82.0,-14.0,-3.0,-7.0,1651094184504633.0,3
1580,-8.0,-1.0,-5.0,-9.0,-87.0,-2.0,-4.0,-1.0,1651094184506653.0,3
1581,0.0,2.0,2.0,-1.0,4.0,-10.0,2.0,1.0,1651094184506653.0,3
1582,-5.0,-6.0,-8.0,-14.0,-26.0,18.0,-3.0,-7.0,1651094184527933.0,3
1583,5.0,3.0,3.0,-4.0,-6.0,-23.0,16.0,11.0,1651094184527933.0,3
1584,-2.0,-2.0,-4.0,22.0,-53.0,-71.0,-4.0,-12.0,1651094184528921.0,3
1585,2.0,3.0,7.0,22.0,127.0,5.0,5.0,1.0,1651094184528921.0,3
1586,3.0,-2.0,-7.0,-18.0,-83.0,-12.0,-1.0,6.0,1651094184542047.0,3
1587,-4.0,-3.0,-7.0,-10.0,-104.0,12.0,-4.0,-3.0,1651094184542047.0,3
1588,1.0,4.0,3.0,-6.0,114.0,45.0,0.0,1.0,1651094184549094.0,3
1589,-4.0,3.0,3.0,6.0,-41.0,-59.0,0.0,-1.0,1651094184549094.0,3
1590,-3.0,-2.0,4.0,19.0,108.0,7.0,-1.0,-5.0,1651094184565036.0,3
1591,6.0,-4.0,-5.0,-35.0,-128.0,-2.0,-7.0,1.0,1651094184565036.0,3
1592,5.0,10.0,18.0,21.0,65.0,8.0,-5.0,3.0,1651094184566902.0,3
1593,6.0,-2.0,-7.0,-32.0,-83.0,-1.0,20.0,7.0,1651094184566902.0,3
1594,-2.0,-3.0,0.0,27.0,77.0,24.0,-3.0,1.0,1651094184587549.0,3
1595,-8.0,2.0,-1.0,-18.0,-109.0,2.0,1.0,-4.0,1651094184587549.0,3
1596,-1.0,-1.0,-2.0,13.0,72.0,28.0,-3.0,0.0,1651094184588549.0,3
1597,2.0,0.0,-1.0,-49.0,-19.0,-40.0,-15.0,-12.0,1651094184588549.0,3
1598,4.0,5.0,4.0,60.0,-93.0,3.0,13.0,10.0,1651094184602340.0,3
1599,-4.0,-5.0,-2.0,8.0,41.0,8.0,-2.0,11.0,1651094184602340.0,3
1600,-8.0,-10.0,-11.0,-10.0,-77.0,-1.0,-6.0,-15.0,1651094184609299.0,3
1601,5.0,12.0,9.0,25.0,17.0,31.0,5.0,7.0,1651094184609299.0,3
1602,-4.0,-6.0,-10.0,-35.0,17.0,3.0,-6.0,-10.0,1651094184625058.0,3
1603,6.0,1.0,1.0,-39.0,2.0,-16.0,-9.0,-3.0,1651094184625058.0,3
1604,4.0,0.0,0.0,20.0,-8.0,-6.0,4.0,5.0,1651094184626890.0,3
1605,1.0,8.0,8.0,14.0,26.0,32.0,6.0,13.0,1651094184626890.0,3
1606,-15.0,-12.0,-15.0,-11.0,5.0,-16.0,-10.0,-20.0,1651094184647885.0,3
1607,6.0,6.0,9.0,23.0,26.0,61.0,11.0,2.0,1651094184647885.0,3
1608,-7.0,-4.0,-3.0,-11.0,54.0,-89.0,3.0,13.0,1651094184648727.0,3
1609,6.0,-5.0,1.0,-22.0,-111.0,-2.0,-17.0,-13.0,1651094184648727.0,3
1610,14.0,11.0,8.0,39.0,110.0,14.0,11.0,14.0,1651094184663094.0,3
1611,-15.0,-11.0,-7.0,-19.0,100.0,-8.0,-11.0,-21.0,1651094184663094.0,3
1612,6.0,4.0,-5.0,-10.0,-128.0,10.0,3.0,3.0,1651094184670284.0,3
1613,-13.0,-6.0,-9.0,10.0,112.0,4.0,-1.0,-1.0,1651094184670284.0,3
1614,6.0,14.0,24.0,6.0,4.0,11.0,9.0,9.0,1651094184684690.0,3
1615,1.0,1.0,0.0,-13.0,-34.0,6.0,-2.0,-3.0,1651094184684690.0,3
1616,-5.0,-1.0,-3.0,0.0,-8.0,11.0,-9.0,-5.0,1651094184686519.0,3
1617,-1.0,-4.0,-3.0,14.0,8.0,-13.0,0.0,2.0,1651094184686519.0,3
1618,-5.0,-3.0,-2.0,16.0,-32.0,-9.0,-7.0,-7.0,1651094184707865.0,3
1619,-19.0,5.0,0.0,3.0,-48.0,-3.0,-1.0,1.0,1651094184707865.0,3
1620,15.0,-7.0,-5.0,-17.0,-2.0,8.0,-2.0,2.0,1651094184708865.0,3
1621,9.0,-2.0,-2.0,4.0,-33.0,24.0,11.0,12.0,1651094184708865.0,3
1622,-9.0,-7.0,-15.0,-33.0,-24.0,-34.0,-12.0,-15.0,1651094184730007.0,3
1623,-8.0,1.0,9.0,8.0,-119.0,-17.0,-2.0,-4.0,1651094184730007.0,3
1624,-1.0,17.0,17.0,41.0,47.0,35.0,15.0,-9.0,1651094184736143.0,3
1625,7.0,0.0,-4.0,-2.0,10.0,-26.0,-1.0,13.0,1651094184736143.0,3
1626,1.0,-1.0,-1.0,-8.0,61.0,11.0,3.0,10.0,1651094184745322.0,3
1627,-5.0,-9.0,-11.0,-20.0,-64.0,-22.0,-4.0,-5.0,1651094184745322.0,3
1628,2.0,2.0,10.0,28.0,79.0,38.0,3.0,-5.0,1651094184746181.0,3
1629,1.0,2.0,6.0,28.0,-6.0,1.0,-1.0,-8.0,1651094184746181.0,3
1630,-3.0,-4.0,-6.0,-56.0,-78.0,-18.0,-10.0,-1.0,1651094184767624.0,3
1631,-2.0,-7.0,-23.0,52.0,4.0,-4.0,-8.0,-2.0,1651094184767624.0,3
1632,-2.0,-5.0,-1.0,-8.0,-76.0,4.0,3.0,4.0,1651094184768589.0,3
1633,-4.0,2.0,1.0,1.0,16.0,6.0,-9.0,-5.0,1651094184768589.0,3
1634,-2.0,-1.0,2.0,-14.0,-79.0,-15.0,0.0,-5.0,1651094184781901.0,3
1635,3.0,-1.0,1.0,-28.0,34.0,-37.0,4.0,3.0,1651094184781901.0,3
1636,2.0,-4.0,-6.0,0.0,-5.0,20.0,-2.0,-1.0,1651094184789823.0,3
1637,-3.0,3.0,5.0,2.0,8.0,0.0,-1.0,-1.0,1651094184789823.0,3
1638,0.0,7.0,3.0,5.0,38.0,27.0,4.0,-1.0,1651094184804913.0,3
1639,5.0,3.0,-1.0,6.0,-18.0,-3.0,5.0,-6.0,1651094184804913.0,3
1640,-20.0,-10.0,-1.0,-23.0,-119.0,-12.0,-4.0,24.0,1651094184806940.0,3
1641,9.0,2.0,1.0,-10.0,88.0,-1.0,-6.0,-17.0,1651094184806940.0,3
1642,10.0,1.0,4.0,16.0,40.0,11.0,3.0,6.0,1651094184827890.0,3
1643,3.0,-3.0,-10.0,-9.0,-40.0,1.0,-3.0,4.0,1651094184827890.0,3
1644,9.0,2.0,3.0,16.0,91.0,37.0,7.0,8.0,1651094184828889.0,3
1645,-7.0,-11.0,-19.0,-12.0,-47.0,-5.0,-5.0,-4.0,1651094184828889.0,3
1646,-6.0,0.0,17.0,-3.0,14.0,7.0,-10.0,-8.0,1651094184842018.0,3
1647,13.0,4.0,8.0,4.0,64.0,16.0,7.0,11.0,1651094184842018.0,3
1648,-9.0,-2.0,-11.0,6.0,-88.0,-35.0,-9.0,-14.0,1651094184850344.0,3
1649,-7.0,2.0,-1.0,43.0,17.0,36.0,-2.0,4.0,1651094184850344.0,3
1650,-5.0,-9.0,-13.0,-7.0,-61.0,-20.0,-7.0,-13.0,1651094184865512.0,3
1651,1.0,2.0,4.0,8.0,110.0,94.0,5.0,6.0,1651094184865512.0,3
1652,-2.0,-2.0,0.0,-44.0,-20.0,-44.0,-5.0,-11.0,1651094184866358.0,3
1653,5.0,1.0,1.0,-9.0,-58.0,-42.0,0.0,15.0,1651094184866358.0,3
1654,-1.0,-1.0,0.0,41.0,79.0,16.0,0.0,3.0,1651094184895866.0,3
1655,-7.0,3.0,11.0,-6.0,64.0,11.0,2.0,-1.0,1651094184895866.0,3
1656,15.0,1.0,-8.0,0.0,-23.0,69.0,-5.0,5.0,1651094184896733.0,3
1657,-8.0,-4.0,-4.0,-23.0,15.0,-4.0,-5.0,-17.0,1651094184896733.0,3
1658,-5.0,0.0,1.0,4.0,5.0,16.0,3.0,3.0,1651094184900720.0,3
1659,4.0,2.0,5.0,17.0,27.0,-26.0,-1.0,4.0,1651094184900720.0,3
1660,0.0,9.0,8.0,-8.0,49.0,29.0,4.0,1.0,1651094184909737.0,3
1661,-6.0,-8.0,-9.0,-5.0,-37.0,-28.0,-1.0,-10.0,1651094184909737.0,3
1662,3.0,-9.0,-12.0,9.0,26.0,15.0,1.0,4.0,1651094184925154.0,3
1663,-5.0,5.0,6.0,8.0,14.0,-17.0,-6.0,-4.0,1651094184925154.0,3
1664,-1.0,-5.0,-7.0,-38.0,-95.0,-30.0,-6.0,-6.0,1651094184926023.0,3
1665,12.0,12.0,26.0,82.0,99.0,36.0,19.0,14.0,1651094184926023.0,3
1666,-7.0,-2.0,-11.0,-35.0,-128.0,-44.0,-2.0,-11.0,1651094184947950.0,3
1667,4.0,-1.0,-2.0,23.0,87.0,25.0,4.0,1.0,1651094184947950.0,3
1668,-4.0,-10.0,-9.0,-35.0,-92.0,-16.0,-6.0,12.0,1651094184948950.0,3
1669,6.0,2.0,-4.0,-22.0,-35.0,-38.0,2.0,10.0,1651094184948950.0,3
1670,-1.0,6.0,-2.0,0.0,56.0,24.0,3.0,-2.0,1651094184961120.0,3
1671,-5.0,-4.0,2.0,30.0,-121.0,-11.0,1.0,-8.0,1651094184961120.0,3
1672,-9.0,-3.0,0.0,-5.0,17.0,-20.0,-10.0,-9.0,1651094184970287.0,3
1673,-6.0,-4.0,-4.0,4.0,18.0,-32.0,-6.0,-16.0,1651094184970287.0,3
1674,-3.0,6.0,7.0,-15.0,-29.0,-12.0,0.0,16.0,1651094184985502.0,3
1675,15.0,2.0,-5.0,-15.0,-6.0,-8.0,0.0,2.0,1651094184985502.0,3
1676,-3.0,-1.0,-1.0,9.0,24.0,-11.0,6.0,1.0,1651094184986364.0,3
1677,-9.0,-10.0,-6.0,-29.0,25.0,15.0,-9.0,-6.0,1651094184986364.0,3
1678,10.0,7.0,10.0,48.0,50.0,24.0,26.0,17.0,1651094185007756.0,3
1679,-8.0,-10.0,-10.0,-41.0,-85.0,-21.0,-2.0,-7.0,1651094185007756.0,3
1680,2.0,9.0,3.0,3.0,89.0,33.0,-2.0,0.0,1651094185008619.0,3
1681,-3.0,-3.0,-3.0,11.0,-18.0,32.0,-1.0,-5.0,1651094185008619.0,3
1682,1.0,-8.0,-13.0,-29.0,-61.0,42.0,-9.0,-7.0,1651094185020771.0,3
1683,3.0,-1.0,-1.0,46.0,24.0,-31.0,1.0,9.0,1651094185020771.0,3
1684,8.0,6.0,13.0,2.0,-14.0,-1.0,14.0,6.0,1651094185030441.0,3
1685,-13.0,2.0,6.0,-27.0,-5.0,-12.0,-8.0,-13.0,1651094185030441.0,3
1686,-1.0,-5.0,-8.0,-14.0,-13.0,-23.0,-7.0,1.0,1651094185044462.0,3
1687,5.0,-1.0,-3.0,-4.0,8.0,9.0,6.0,5.0,1651094185044462.0,3
1688,-19.0,-4.0,-13.0,1.0,-7.0,-25.0,-9.0,-10.0,1651094185046457.0,3
1689,6.0,-12.0,-1.0,-13.0,-23.0,-14.0,-2.0,-2.0,1651094185046457.0,3
1690,4.0,8.0,8.0,12.0,8.0,-1.0,-2.0,1.0,1651094185067806.0,3
1691,10.0,6.0,1.0,9.0,-92.0,2.0,-2.0,1.0,1651094185067806.0,3
1692,-2.0,2.0,8.0,16.0,127.0,13.0,5.0,5.0,1651094185068805.0,3
1693,-7.0,0.0,-4.0,-14.0,-128.0,12.0,0.0,-7.0,1651094185068805.0,3
1694,-1.0,-6.0,-1.0,-4.0,12.0,-69.0,3.0,-6.0,1651094185080790.0,3
1695,-2.0,-1.0,-8.0,49.0,88.0,-33.0,0.0,7.0,1651094185080790.0,3
1696,8.0,9.0,21.0,7.0,-74.0,-19.0,2.0,-1.0,1651094185090213.0,3
1697,0.0,1.0,-5.0,4.0,127.0,53.0,11.0,4.0,1651094185090213.0,3
1698,-3.0,-5.0,-5.0,-18.0,-66.0,-5.0,-5.0,-10.0,1651094185112084.0,3
1699,-3.0,-1.0,1.0,-23.0,4.0,-21.0,-11.0,9.0,1651094185112084.0,3
1700,4.0,-3.0,1.0,64.0,75.0,8.0,14.0,4.0,1651094185114114.0,3
1701,5.0,1.0,-6.0,-70.0,-95.0,-7.0,0.0,3.0,1651094185114114.0,3
1702,-1.0,0.0,2.0,5.0,2.0,-4.0,-1.0,-6.0,1651094185128308.0,3
1703,2.0,-4.0,1.0,-2.0,13.0,49.0,-4.0,14.0,1651094185128308.0,3
1704,-2.0,-1.0,-9.0,-11.0,-25.0,-20.0,-1.0,-6.0,1651094185129344.0,3
1705,3.0,-2.0,0.0,-4.0,-60.0,5.0,-8.0,-4.0,1651094185129344.0,3
1706,6.0,2.0,1.0,9.0,74.0,-29.0,-8.0,-5.0,1651094185150759.0,3
1707,-4.0,5.0,7.0,-7.0,-77.0,-7.0,1.0,-5.0,1651094185150759.0,3
1708,-5.0,-8.0,-15.0,-18.0,35.0,11.0,0.0,4.0,1651094185151607.0,3
1709,-4.0,-2.0,0.0,5.0,-29.0,0.0,3.0,2.0,1651094185151607.0,3
1710,3.0,7.0,15.0,14.0,-34.0,-6.0,2.0,-2.0,1651094185172799.0,3
1711,-11.0,-10.0,-11.0,-51.0,-36.0,-48.0,-9.0,-18.0,1651094185172799.0,3
1712,2.0,-4.0,-2.0,26.0,-128.0,14.0,-2.0,-4.0,1651094185173763.0,3
1713,1.0,4.0,-2.0,18.0,81.0,-4.0,3.0,10.0,1651094185173763.0,3
1714,-4.0,-8.0,-10.0,1.0,51.0,-2.0,-5.0,-4.0,1651094185187746.0,3
1715,-3.0,5.0,15.0,13.0,4.0,23.0,3.0,-5.0,1651094185187746.0,3
1716,4.0,-3.0,-8.0,-53.0,-44.0,14.0,-4.0,5.0,1651094185188746.0,3
1717,8.0,0.0,3.0,10.0,-71.0,-80.0,2.0,-6.0,1651094185188746.0,3
1718,-3.0,5.0,4.0,-4.0,-48.0,5.0,8.0,15.0,1651094185210291.0,3
1719,-13.0,-2.0,3.0,8.0,78.0,46.0,8.0,-6.0,1651094185210291.0,3
1720,4.0,-2.0,-16.0,8.0,3.0,-35.0,0.0,-2.0,1651094185211291.0,3
1721,-5.0,7.0,17.0,12.0,-20.0,23.0,2.0,-4.0,1651094185211291.0,3
1722,-1.0,-6.0,-5.0,-17.0,1.0,4.0,-2.0,6.0,1651094185225649.0,3
1723,-22.0,-3.0,-3.0,-16.0,-16.0,-47.0,-12.0,-6.0,1651094185225649.0,3
1724,19.0,-4.0,-10.0,-45.0,-2.0,46.0,-10.0,5.0,1651094185226481.0,3
1725,-9.0,4.0,0.0,83.0,51.0,51.0,-2.0,-14.0,1651094185226481.0,3
1726,10.0,-1.0,6.0,-4.0,-128.0,7.0,-1.0,19.0,1651094185247845.0,3
1727,2.0,0.0,-6.0,-3.0,-53.0,19.0,4.0,-2.0,1651094185247845.0,3
1728,-14.0,-2.0,4.0,-8.0,-86.0,-36.0,-5.0,-6.0,1651094185248844.0,3
1729,3.0,-11.0,-13.0,-9.0,72.0,5.0,-3.0,4.0,1651094185248844.0,3
1730,-2.0,8.0,13.0,2.0,-57.0,-4.0,0.0,-12.0,1651094185270321.0,3
1731,4.0,2.0,-1.0,-19.0,-7.0,14.0,4.0,10.0,1651094185270321.0,3
1732,-8.0,3.0,-3.0,-34.0,19.0,-99.0,-11.0,-14.0,1651094185271229.0,3
1733,2.0,-3.0,-4.0,23.0,-81.0,-1.0,-3.0,1.0,1651094185271229.0,3
1734,-6.0,-7.0,-1.0,28.0,127.0,14.0,3.0,20.0,1651094185284542.0,3
1735,12.0,3.0,6.0,7.0,52.0,13.0,6.0,2.0,1651094185284542.0,3
1736,-11.0,-4.0,3.0,0.0,8.0,-9.0,0.0,2.0,1651094185291655.0,3
1737,2.0,0.0,-4.0,-27.0,-16.0,-42.0,3.0,10.0,1651094185291655.0,3
1738,-8.0,2.0,-4.0,-4.0,-40.0,-28.0,-11.0,-30.0,1651094185307705.0,3
1739,2.0,-2.0,-3.0,-4.0,19.0,14.0,2.0,2.0,1651094185307705.0,3
1740,16.0,3.0,7.0,16.0,-11.0,15.0,4.0,3.0,1651094185308574.0,3
1741,-10.0,-5.0,7.0,1.0,38.0,6.0,-13.0,-5.0,1651094185308574.0,3
1742,-10.0,7.0,-1.0,-13.0,-71.0,14.0,0.0,12.0,1651094185329867.0,3
1743,12.0,-8.0,-16.0,-2.0,11.0,-16.0,1.0,0.0,1651094185329867.0,3
1744,-8.0,8.0,5.0,18.0,11.0,30.0,-13.0,-16.0,1651094185331866.0,3
1745,-6.0,-2.0,-2.0,-20.0,-25.0,-17.0,0.0,-3.0,1651094185331866.0,3
1746,6.0,-6.0,-2.0,-1.0,26.0,27.0,6.0,2.0,1651094185345184.0,3
1747,-7.0,4.0,6.0,8.0,24.0,12.0,0.0,-6.0,1651094185345184.0,3
1748,1.0,-1.0,-4.0,10.0,13.0,1.0,-6.0,-2.0,1651094185351392.0,3
1749,-3.0,-1.0,-1.0,-13.0,-44.0,4.0,-2.0,2.0,1651094185351392.0,3
1750,1.0,-6.0,-6.0,-15.0,9.0,-17.0,-4.0,-4.0,1651094185368378.0,3
1751,2.0,-2.0,1.0,5.0,-85.0,34.0,-8.0,1.0,1651094185368378.0,3
1752,-1.0,1.0,6.0,36.0,81.0,44.0,13.0,7.0,1651094185369358.0,3
1753,3.0,3.0,-2.0,-12.0,-4.0,-3.0,2.0,3.0,1651094185369358.0,3
1754,0.0,-2.0,-3.0,4.0,12.0,13.0,2.0,-15.0,1651094185390818.0,3
1755,0.0,-3.0,-3.0,-1.0,-22.0,-15.0,-7.0,28.0,1651094185390818.0,3
1756,0.0,1.0,4.0,-7.0,-18.0,-9.0,0.0,-5.0,1651094185391690.0,3
1757,-1.0,1.0,1.0,4.0,-1.0,8.0,2.0,2.0,1651094185391690.0,3
1758,1.0,0.0,-4.0,-3.0,0.0,8.0,0.0,-5.0,1651094185403646.0,3
1759,-3.0,-1.0,2.0,-3.0,8.0,11.0,-1.0,-14.0,1651094185403646.0,3
1760,4.0,-2.0,-1.0,-1.0,-13.0,-10.0,1.0,4.0,1651094185411154.0,3
1761,5.0,0.0,-3.0,1.0,26.0,3.0,5.0,5.0,1651094185411154.0,3
1762,-4.0,-3.0,-3.0,-4.0,-40.0,-15.0,-5.0,-4.0,1651094185428440.0,3
1763,1.0,3.0,1.0,-4.0,2.0,-11.0,0.0,-7.0,1651094185428440.0,3
1764,-3.0,-1.0,1.0,-5.0,-6.0,4.0,6.0,9.0,1651094185429278.0,3
1765,2.0,1.0,2.0,0.0,-14.0,3.0,-3.0,-4.0,1651094185429278.0,3
1766,2.0,-2.0,-3.0,-1.0,35.0,-2.0,-2.0,-2.0,1651094185450834.0,3
1767,-3.0,-3.0,-3.0,4.0,-17.0,2.0,1.0,-4.0,1651094185450834.0,3
1768,-1.0,-2.0,-4.0,-4.0,-3.0,3.0,1.0,-2.0,1651094185451865.0,3
1769,3.0,-2.0,-8.0,-1.0,26.0,2.0,-1.0,1.0,1651094185451865.0,3
1770,-2.0,3.0,9.0,2.0,10.0,2.0,1.0,2.0,1651094185463991.0,3
1771,2.0,1.0,3.0,1.0,8.0,-8.0,3.0,-1.0,1651094185463991.0,3
1772,-3.0,-5.0,-5.0,-9.0,-57.0,-15.0,-3.0,-4.0,1651094185470975.0,3
1773,-1.0,1.0,-4.0,-5.0,-12.0,8.0,-1.0,0.0,1651094185470975.0,3
1774,0.0,0.0,-3.0,6.0,22.0,11.0,2.0,3.0,1651094185487123.0,3
1775,0.0,-2.0,0.0,3.0,2.0,0.0,0.0,-5.0,1651094185487123.0,3
1776,-2.0,0.0,0.0,-1.0,-11.0,-3.0,0.0,-1.0,1651094185489148.0,3
1777,-1.0,3.0,7.0,-2.0,-21.0,-1.0,0.0,3.0,1651094185489148.0,3
1778,0.0,-1.0,-4.0,-1.0,1.0,1.0,-2.0,1.0,1651094185510619.0,3
1779,0.0,1.0,2.0,-2.0,-13.0,-5.0,-1.0,-3.0,1651094185510619.0,3
1780,-2.0,-2.0,-4.0,3.0,7.0,-8.0,0.0,0.0,1651094185511461.0,3
1781,-1.0,0.0,-2.0,-3.0,11.0,-10.0,2.0,0.0,1651094185511461.0,3
1782,1.0,-1.0,-2.0,-9.0,-21.0,13.0,-1.0,-3.0,1651094185524775.0,3
1783,-2.0,1.0,0.0,5.0,-4.0,-6.0,0.0,-1.0,1651094185524775.0,3
1784,1.0,0.0,1.0,7.0,37.0,2.0,3.0,0.0,1651094185531922.0,3
1785,-1.0,2.0,4.0,0.0,13.0,-7.0,-2.0,-2.0,1651094185531922.0,3
1786,0.0,1.0,0.0,-1.0,-1.0,3.0,-1.0,0.0,1651094185549061.0,3
1787,-1.0,-2.0,-3.0,-7.0,-37.0,-5.0,0.0,-2.0,1651094185549061.0,3
1788,-1.0,-2.0,-6.0,-3.0,-5.0,-3.0,-2.0,-2.0,1651094185549935.0,3
1789,-2.0,0.0,-2.0,-10.0,-20.0,-1.0,-1.0,0.0,1651094185549935.0,3
1790,0.0,-1.0,-1.0,9.0,37.0,-6.0,0.0,1.0,1651094185570406.0,3
1791,-1.0,0.0,2.0,14.0,24.0,-2.0,-1.0,-2.0,1651094185570406.0,3
1792,-1.0,3.0,6.0,7.0,4.0,1.0,0.0,-1.0,1651094185576388.0,3
1793,-1.0,-2.0,-2.0,-8.0,-6.0,-4.0,0.0,-1.0,1651094185576388.0,3
1794,0.0,-6.0,-7.0,-4.0,-35.0,6.0,0.0,0.0,1651094185584756.0,3
1795,0.0,-1.0,2.0,-6.0,25.0,-2.0,0.0,-3.0,1651094185584756.0,3
1796,0.0,1.0,1.0,-5.0,8.0,-1.0,-1.0,0.0,1651094185591865.0,3
1797,0.0,1.0,3.0,1.0,-7.0,8.0,1.0,-1.0,1651094185591865.0,3
1798,1.0,0.0,1.0,2.0,1.0,-5.0,-2.0,-2.0,1651094185607906.0,3
1799,0.0,-1.0,-2.0,1.0,36.0,3.0,2.0,0.0,1651094185607906.0,3
1800,0.0,0.0,-1.0,-2.0,-15.0,1.0,0.0,-1.0,1651094185608745.0,3
1801,1.0,-1.0,0.0,1.0,17.0,2.0,-3.0,0.0,1651094185608745.0,3
1802,-1.0,-2.0,-3.0,-1.0,-34.0,-6.0,-1.0,-1.0,1651094185629290.0,3
1803,-1.0,-3.0,-4.0,-7.0,-8.0,-3.0,0.0,-1.0,1651094185629290.0,3
1804,-1.0,0.0,0.0,-3.0,-6.0,1.0,0.0,0.0,1651094185637980.0,3
1805,0.0,-1.0,0.0,5.0,9.0,1.0,0.0,-1.0,1651094185637980.0,3
1806,1.0,1.0,2.0,1.0,13.0,-3.0,-1.0,-1.0,1651094185643131.0,3
1807,-1.0,1.0,0.0,-1.0,-15.0,-3.0,-1.0,0.0,1651094185643131.0,3
1808,0.0,-1.0,2.0,-2.0,-6.0,-3.0,0.0,-1.0,1651094185652456.0,3
1809,-2.0,-2.0,-5.0,2.0,36.0,10.0,0.0,0.0,1651094185652456.0,3
1810,1.0,0.0,-3.0,-5.0,4.0,-1.0,0.0,0.0,1651094185668498.0,3
1811,0.0,-1.0,-1.0,1.0,-3.0,0.0,0.0,-1.0,1651094185668498.0,3
1812,1.0,-1.0,-3.0,1.0,-33.0,0.0,-2.0,-2.0,1651094185669325.0,3
1813,1.0,2.0,6.0,-1.0,18.0,-2.0,-1.0,-1.0,1651094185669325.0,3
1814,-1.0,-2.0,0.0,2.0,4.0,-2.0,0.0,0.0,1651094185689320.0,3
1815,1.0,0.0,0.0,-7.0,-14.0,-1.0,0.0,0.0,1651094185689320.0,3
1816,-1.0,1.0,0.0,4.0,6.0,-3.0,0.0,0.0,1651094185696406.0,3
1817,0.0,-2.0,-3.0,7.0,22.0,0.0,-2.0,-1.0,1651094185696406.0,3
1818,-1.0,0.0,0.0,-2.0,13.0,1.0,2.0,1.0,1651094185704430.0,3
1819,0.0,1.0,0.0,-4.0,-17.0,-4.0,0.0,0.0,1651094185704430.0,3
1820,-2.0,0.0,-1.0,-2.0,-2.0,3.0,-1.0,1.0,1651094185712682.0,3
1821,-1.0,0.0,-3.0,-4.0,-13.0,-2.0,-1.0,1.0,1651094185712682.0,3
1822,0.0,0.0,0.0,7.0,5.0,-4.0,-1.0,-1.0,1651094185728171.0,3
1823,1.0,-1.0,3.0,0.0,6.0,3.0,-1.0,-1.0,1651094185728171.0,3
1824,2.0,1.0,-4.0,-8.0,-3.0,1.0,2.0,1.0,1651094185729184.0,3
1825,-2.0,-2.0,-4.0,-3.0,-33.0,-7.0,-2.0,0.0,1651094185729184.0,3
1826,0.0,-3.0,-2.0,1.0,29.0,7.0,1.0,-1.0,1651094185750696.0,3
1827,-1.0,1.0,5.0,6.0,1.0,-5.0,-2.0,1.0,1651094185750696.0,3
1828,0.0,-2.0,2.0,-2.0,-6.0,-3.0,0.0,-1.0,1651094185751727.0,3
1829,0.0,1.0,2.0,1.0,38.0,-1.0,1.0,0.0,1651094185751727.0,3
1830,-2.0,-1.0,-5.0,-1.0,-29.0,-5.0,-1.0,-1.0,1651094185763814.0,3
1831,-1.0,0.0,-4.0,0.0,1.0,5.0,-1.0,0.0,1651094185763814.0,3
1832,-1.0,2.0,3.0,5.0,7.0,2.0,-2.0,-1.0,1651094185773262.0,3
1833,-2.0,-1.0,-2.0,-7.0,-24.0,-5.0,-2.0,-2.0,1651094185773262.0,3
1834,-2.0,-4.0,-2.0,-1.0,-3.0,-9.0,-1.0,0.0,1651094185787588.0,3
1835,-1.0,0.0,-1.0,1.0,14.0,2.0,1.0,0.0,1651094185787588.0,3
1836,-2.0,-2.0,-1.0,-1.0,-9.0,-1.0,-2.0,0.0,1651094185788588.0,3
1837,0.0,0.0,-2.0,2.0,-9.0,4.0,2.0,-1.0,1651094185788588.0,3
1838,0.0,2.0,4.0,-3.0,10.0,1.0,-2.0,-1.0,1651094185809573.0,3
1839,-2.0,-4.0,-5.0,-5.0,-45.0,-2.0,0.0,0.0,1651094185809573.0,3
1840,0.0,0.0,-2.0,2.0,55.0,3.0,1.0,1.0,1651094185811568.0,3
1841,1.0,-2.0,0.0,2.0,2.0,2.0,1.0,1.0,1651094185811568.0,3
1842,0.0,1.0,-1.0,-2.0,-9.0,-1.0,-1.0,0.0,1651094185833250.0,3
1843,0.0,-1.0,3.0,-1.0,0.0,-3.0,-2.0,-2.0,1651094185833250.0,3
1844,0.0,-1.0,0.0,-1.0,-19.0,-6.0,-1.0,-1.0,1651094185833726.0,3
1845,0.0,-2.0,2.0,3.0,-6.0,-2.0,1.0,-3.0,1651094185833726.0,3
1846,0.0,0.0,-3.0,-7.0,17.0,1.0,2.0,0.0,1651094185847852.0,3
1847,0.0,-2.0,-4.0,1.0,11.0,5.0,1.0,1.0,1651094185847852.0,3
1848,1.0,0.0,-1.0,-6.0,-8.0,0.0,0.0,0.0,1651094185848688.0,3
1849,-1.0,-1.0,0.0,3.0,-6.0,4.0,0.0,1.0,1651094185848688.0,3
1850,-1.0,-2.0,1.0,-2.0,-22.0,-6.0,-1.0,0.0,1651094185870286.0,3
1851,0.0,0.0,-1.0,-4.0,10.0,-5.0,0.0,-1.0,1651094185870286.0,3
1852,-1.0,0.0,1.0,5.0,-47.0,3.0,1.0,-2.0,1651094185871160.0,3
1853,1.0,-1.0,-2.0,1.0,10.0,0.0,0.0,0.0,1651094185871160.0,0
1854,-1.0,-2.0,1.0,-1.0,-13.0,-2.0,0.0,0.0,1651094185884278.0,0
1855,0.0,-1.0,-5.0,-5.0,12.0,-7.0,0.0,-2.0,1651094185884278.0,0
1856,-1.0,-2.0,-1.0,2.0,-14.0,-4.0,0.0,0.0,1651094185892621.0,0
1857,-1.0,0.0,2.0,-5.0,-15.0,-4.0,-2.0,-1.0,1651094185892621.0,0
1858,-2.0,-1.0,1.0,2.0,-7.0,-3.0,-1.0,1.0,1651094185908598.0,0
1859,0.0,0.0,0.0,4.0,25.0,8.0,0.0,2.0,1651094185908598.0,0
1860,1.0,-4.0,-3.0,0.0,-6.0,2.0,0.0,-2.0,1651094185909448.0,0
1861,-1.0,0.0,-2.0,-2.0,-12.0,-3.0,-1.0,-1.0,1651094185909448.0,0
1862,1.0,2.0,5.0,-4.0,13.0,3.0,-1.0,-1.0,1651094185930880.0,0
1863,1.0,0.0,0.0,-3.0,-33.0,-9.0,-1.0,-1.0,1651094185930880.0,0
1864,0.0,2.0,0.0,-2.0,43.0,3.0,-1.0,0.0,1651094185931764.0,0
1865,-1.0,-4.0,-4.0,3.0,25.0,4.0,0.0,0.0,1651094185931764.0,0
1866,-2.0,-2.0,-6.0,-2.0,-23.0,2.0,-1.0,-1.0,1651094185943918.0,0
1867,-1.0,1.0,6.0,12.0,0.0,-2.0,1.0,0.0,1651094185943918.0,0
