,EMG_s0,EMG_s1,EMG_s2,EMG_s3,EMG_s4,EMG_s5,EMG_s6,EMG_s7,timestamp,signal
0,0.0,0.0,0.0,-1.0,-5.0,-11.0,0.0,-1.0,1651094073114161.0,0
1,-2.0,-2.0,-1.0,-4.0,5.0,2.0,-2.0,-1.0,1651094073114161.0,0
2,0.0,0.0,-1.0,1.0,0.0,3.0,2.0,1.0,1651094073114161.0,0
3,-1.0,1.0,5.0,-1.0,-8.0,0.0,-1.0,-1.0,1651094073114161.0,0
4,0.0,-1.0,-6.0,0.0,2.0,0.0,0.0,0.0,1651094073124067.0,0
5,0.0,-1.0,2.0,0.0,8.0,3.0,0.0,-1.0,1651094073124067.0,0
6,0.0,-2.0,-3.0,-6.0,3.0,-1.0,-2.0,0.0,1651094073125037.0,0
7,1.0,2.0,2.0,4.0,5.0,2.0,2.0,1.0,1651094073125037.0,0
8,-1.0,0.0,-1.0,2.0,-7.0,-5.0,-2.0,-1.0,1651094073128054.0,0
9,-1.0,1.0,-2.0,-1.0,-6.0,-30.0,-1.0,-1.0,1651094073128054.0,0
10,-1.0,-1.0,3.0,-1.0,-1.0,44.0,2.0,1.0,1651094073130022.0,0
11,-1.0,-2.0,-1.0,-4.0,-1.0,0.0,-2.0,0.0,1651094073130022.0,0
12,1.0,1.0,0.0,-1.0,7.0,4.0,0.0,-1.0,1651094073145238.0,0
13,0.0,2.0,0.0,-1.0,-5.0,-12.0,-1.0,1.0,1651094073145238.0,0
14,1.0,1.0,2.0,2.0,-2.0,-15.0,-3.0,0.0,1651094073152201.0,0
15,0.0,-2.0,-1.0,0.0,4.0,0.0,-1.0,-1.0,1651094073152201.0,0
16,-1.0,-2.0,1.0,-1.0,-12.0,-1.0,1.0,-2.0,1651094073171184.0,0
17,-1.0,-2.0,-2.0,-2.0,5.0,19.0,-2.0,-1.0,1651094073171184.0,0
18,-1.0,-2.0,-5.0,1.0,1.0,-11.0,-1.0,-2.0,1651094073184853.0,0
19,-2.0,1.0,3.0,2.0,3.0,3.0,-1.0,-2.0,1651094073184853.0,0
20,-1.0,2.0,11.0,-1.0,-9.0,-6.0,0.0,1.0,1651094073190844.0,0
21,1.0,0.0,-6.0,-6.0,-7.0,2.0,0.0,-1.0,1651094073190844.0,0
22,0.0,-2.0,-4.0,1.0,13.0,6.0,-1.0,-1.0,1651094073204988.0,0
23,-1.0,-3.0,-5.0,1.0,4.0,-15.0,-2.0,0.0,1651094073204988.0,0
24,-1.0,0.0,0.0,0.0,1.0,-4.0,0.0,0.0,1651094073239124.0,0
25,-2.0,-1.0,1.0,-2.0,-6.0,8.0,1.0,0.0,1651094073239124.0,0
26,0.0,0.0,1.0,0.0,6.0,5.0,-1.0,0.0,1651094073244075.0,0
27,1.0,-1.0,-1.0,-1.0,-2.0,0.0,-2.0,-1.0,1651094073244075.0,0
28,0.0,1.0,1.0,1.0,-4.0,-3.0,0.0,-1.0,1651094073244075.0,0
29,0.0,-1.0,0.0,0.0,-2.0,-14.0,-1.0,0.0,1651094073244075.0,0
30,-1.0,-4.0,-4.0,-2.0,7.0,8.0,1.0,0.0,1651094073250026.0,0
31,0.0,1.0,2.0,1.0,-29.0,1.0,2.0,0.0,1651094073250026.0,0
32,0.0,0.0,4.0,-1.0,-2.0,-2.0,0.0,0.0,1651094073251027.0,0
33,1.0,-1.0,-3.0,-4.0,4.0,-8.0,-2.0,-1.0,1651094073251027.0,0
34,-1.0,2.0,0.0,3.0,-5.0,-5.0,-2.0,-1.0,1651094073265150.0,0
35,-2.0,-1.0,-3.0,-1.0,6.0,-1.0,-2.0,-2.0,1651094073265150.0,0
36,-1.0,-1.0,-2.0,2.0,1.0,5.0,-1.0,-2.0,1651094073279811.0,0
37,2.0,0.0,0.0,1.0,7.0,8.0,0.0,1.0,1651094073279811.0,0
38,1.0,0.0,1.0,-4.0,-4.0,-5.0,-1.0,0.0,1651094073288658.0,0
39,-2.0,-1.0,-3.0,-2.0,1.0,-9.0,-1.0,-3.0,1651094073288658.0,0
40,-1.0,-1.0,-2.0,-2.0,-9.0,3.0,-2.0,0.0,1651094073294828.0,0
41,1.0,0.0,-3.0,-1.0,14.0,-6.0,-1.0,0.0,1651094073294828.0,0
42,-2.0,-3.0,-1.0,0.0,-5.0,1.0,-1.0,-1.0,1651094073310341.0,0
43,0.0,-2.0,-3.0,-2.0,2.0,-5.0,0.0,-1.0,1651094073310341.0,0
44,0.0,-1.0,-2.0,-2.0,5.0,-12.0,-1.0,0.0,1651094073310341.0,0
45,-1.0,0.0,2.0,2.0,-29.0,-3.0,-2.0,-2.0,1651094073310341.0,0
46,0.0,1.0,2.0,0.0,-2.0,25.0,-2.0,0.0,1651094073340772.0,0
47,0.0,1.0,1.0,-1.0,0.0,3.0,1.0,1.0,1651094073340772.0,0
48,0.0,-4.0,-7.0,-5.0,11.0,-2.0,-1.0,-1.0,1651094073341656.0,0
49,-1.0,1.0,4.0,1.0,-1.0,-9.0,0.0,0.0,1651094073341656.0,0
50,-1.0,1.0,2.0,0.0,-3.0,-10.0,0.0,-1.0,1651094073346610.0,0
51,-1.0,-1.0,1.0,-1.0,4.0,5.0,0.0,0.0,1651094073346610.0,0
52,0.0,-1.0,0.0,-1.0,-2.0,3.0,1.0,-1.0,1651094073355911.0,0
53,0.0,-1.0,-1.0,0.0,0.0,0.0,-1.0,0.0,1651094073355911.0,0
54,0.0,-1.0,-2.0,-1.0,-6.0,-11.0,-3.0,0.0,1651094073370043.0,0
55,2.0,-2.0,-1.0,-3.0,-1.0,-4.0,-3.0,0.0,1651094073370043.0,0
56,-2.0,0.0,-2.0,1.0,5.0,0.0,-1.0,1.0,1651094073370913.0,0
57,-3.0,0.0,-2.0,-2.0,0.0,5.0,0.0,1.0,1651094073370913.0,0
58,-1.0,1.0,1.0,0.0,0.0,-2.0,1.0,0.0,1651094073393618.0,0
59,1.0,2.0,1.0,0.0,-5.0,-11.0,-1.0,0.0,1651094073393618.0,0
60,-1.0,1.0,8.0,0.0,-1.0,10.0,0.0,0.0,1651094073394030.0,0
61,-1.0,-5.0,-8.0,-1.0,5.0,-9.0,-2.0,-2.0,1651094073394030.0,0
62,-1.0,-1.0,-2.0,-5.0,-22.0,10.0,1.0,0.0,1651094073407405.0,0
63,-1.0,-1.0,1.0,4.0,5.0,-2.0,0.0,0.0,1651094073407405.0,0
64,1.0,1.0,0.0,2.0,-6.0,-11.0,-2.0,-1.0,1651094073415384.0,0
65,-1.0,1.0,1.0,0.0,4.0,2.0,1.0,0.0,1651094073415384.0,0
66,-1.0,-2.0,-4.0,-1.0,17.0,-16.0,-1.0,0.0,1651094073429546.0,0
67,0.0,0.0,0.0,1.0,12.0,18.0,1.0,0.0,1651094073429546.0,0
68,-1.0,2.0,0.0,0.0,-17.0,-5.0,-1.0,0.0,1651094073430543.0,0
69,-1.0,-1.0,-1.0,-4.0,-16.0,-5.0,-1.0,-1.0,1651094073430543.0,0
70,0.0,-1.0,0.0,-1.0,0.0,-5.0,-1.0,-2.0,1651094073452848.0,0
71,-1.0,-2.0,-1.0,-1.0,14.0,2.0,0.0,0.0,1651094073452848.0,0
72,0.0,-3.0,-1.0,-2.0,3.0,-5.0,-2.0,0.0,1651094073452848.0,0
73,-1.0,-1.0,-2.0,0.0,2.0,4.0,0.0,-1.0,1651094073452848.0,0
74,0.0,-1.0,1.0,0.0,-3.0,8.0,3.0,-1.0,1651094073466802.0,0
75,0.0,0.0,1.0,-3.0,-3.0,-1.0,-1.0,1.0,1651094073466802.0,0
76,-1.0,-2.0,-8.0,-2.0,4.0,5.0,-1.0,-1.0,1651094073475133.0,0
77,0.0,1.0,8.0,2.0,1.0,4.0,0.0,0.0,1651094073475133.0,0
78,0.0,-2.0,0.0,3.0,7.0,-4.0,-3.0,-1.0,1651094073490333.0,0
79,-2.0,0.0,-2.0,0.0,-8.0,-10.0,-1.0,1.0,1651094073490333.0,0
80,-1.0,0.0,-3.0,-2.0,5.0,-3.0,-2.0,-3.0,1651094073490333.0,0
81,0.0,0.0,-3.0,-4.0,-3.0,-5.0,-2.0,-1.0,1651094073490333.0,0
82,-1.0,0.0,6.0,2.0,7.0,7.0,2.0,1.0,1651094073512844.0,0
83,1.0,-1.0,-4.0,2.0,3.0,0.0,0.0,0.0,1651094073512844.0,0
84,-2.0,-3.0,-2.0,0.0,-4.0,0.0,2.0,0.0,1651094073512844.0,0
85,0.0,0.0,-1.0,1.0,-2.0,-2.0,0.0,0.0,1651094073512844.0,0
86,1.0,0.0,-1.0,-3.0,-2.0,-14.0,-1.0,0.0,1651094073535894.0,0
87,0.0,-1.0,1.0,-2.0,-1.0,1.0,-1.0,-1.0,1651094073535894.0,0
88,1.0,1.0,2.0,1.0,-1.0,11.0,0.0,-1.0,1651094073535894.0,0
89,0.0,-1.0,0.0,-4.0,-1.0,2.0,-1.0,-1.0,1651094073535894.0,0
90,0.0,-1.0,-1.0,3.0,-4.0,-11.0,-1.0,-2.0,1651094073550009.0,0
91,-1.0,1.0,1.0,0.0,-18.0,4.0,1.0,-1.0,1651094073550009.0,0
92,-1.0,-2.0,1.0,1.0,3.0,-5.0,0.0,-1.0,1651094073550913.0,0
93,-1.0,-1.0,-3.0,0.0,0.0,11.0,-1.0,-1.0,1651094073550913.0,0
94,0.0,3.0,1.0,-5.0,2.0,1.0,1.0,1.0,1651094073572995.0,0
95,-1.0,0.0,1.0,-1.0,0.0,-6.0,-1.0,-1.0,1651094073572995.0,0
96,0.0,-1.0,1.0,-1.0,-5.0,-7.0,-1.0,0.0,1651094073572995.0,0
97,0.0,-1.0,0.0,1.0,-1.0,0.0,0.0,-2.0,1651094073572995.0,0
98,-2.0,-2.0,-3.0,-1.0,4.0,-1.0,-3.0,-2.0,1651094073595144.0,0
99,0.0,0.0,-2.0,0.0,4.0,3.0,1.0,-1.0,1651094073595144.0,0
100,1.0,-2.0,0.0,-1.0,4.0,-3.0,-2.0,0.0,1651094073596140.0,0
101,0.0,0.0,0.0,-2.0,4.0,-2.0,0.0,0.0,1651094073596140.0,0
102,-1.0,-1.0,2.0,0.0,-4.0,0.0,-1.0,-2.0,1651094073610452.0,0
103,-1.0,1.0,-3.0,-4.0,-1.0,-5.0,-1.0,-1.0,1651094073610452.0,0
104,1.0,-1.0,-3.0,0.0,0.0,5.0,0.0,1.0,1651094073610452.0,0
105,-1.0,-1.0,-1.0,1.0,7.0,-1.0,-1.0,0.0,1651094073610452.0,0
106,-1.0,-3.0,0.0,1.0,-1.0,-5.0,-1.0,-1.0,1651094073632670.0,0
107,0.0,-1.0,1.0,0.0,4.0,17.0,0.0,-1.0,1651094073632670.0,0
108,0.0,1.0,-1.0,0.0,-12.0,-11.0,-3.0,1.0,1651094073633532.0,0
109,-2.0,2.0,5.0,-1.0,-5.0,0.0,-1.0,-1.0,1651094073633532.0,0
110,0.0,-2.0,-6.0,-5.0,-1.0,6.0,0.0,1.0,1651094073656142.0,0
111,-1.0,-1.0,-1.0,-3.0,4.0,-15.0,-2.0,0.0,1651094073656142.0,0
112,-1.0,-2.0,-3.0,0.0,8.0,4.0,0.0,0.0,1651094073656142.0,0
113,1.0,2.0,0.0,2.0,-12.0,-5.0,0.0,1.0,1651094073656142.0,0
114,-1.0,0.0,0.0,0.0,-11.0,-2.0,-2.0,1.0,1651094073670323.0,0
115,-1.0,-3.0,-1.0,-1.0,2.0,0.0,-1.0,1.0,1651094073670323.0,0
116,-1.0,1.0,1.0,-4.0,2.0,5.0,0.0,-2.0,1651094073670323.0,0
117,-1.0,0.0,-1.0,0.0,-6.0,-10.0,-1.0,1.0,1651094073670323.0,0
118,1.0,-2.0,-1.0,0.0,4.0,-3.0,0.0,-2.0,1651094073693188.0,0
119,0.0,0.0,-1.0,1.0,2.0,3.0,0.0,0.0,1651094073693188.0,0
120,-1.0,0.0,2.0,-1.0,-23.0,13.0,-1.0,-2.0,1651094073693188.0,0
121,1.0,2.0,1.0,-2.0,5.0,5.0,2.0,0.0,1651094073693188.0,0
122,-1.0,0.0,-5.0,0.0,5.0,-5.0,-2.0,-1.0,1651094073715610.0,0
123,-1.0,-2.0,-3.0,-2.0,-7.0,-4.0,-2.0,-1.0,1651094073715610.0,0
124,-1.0,0.0,6.0,0.0,6.0,-2.0,-1.0,-1.0,1651094073716448.0,0
125,0.0,-1.0,-1.0,-2.0,1.0,-2.0,-2.0,-1.0,1651094073716448.0,0
126,-1.0,0.0,1.0,0.0,7.0,10.0,1.0,1.0,1651094073730539.0,0
127,-1.0,-1.0,-1.0,-1.0,-14.0,-6.0,-1.0,-2.0,1651094073730539.0,0
128,0.0,-1.0,0.0,1.0,14.0,1.0,1.0,2.0,1651094073730539.0,0
129,-3.0,-2.0,-1.0,3.0,5.0,8.0,-2.0,0.0,1651094073730539.0,0
130,0.0,0.0,0.0,1.0,-4.0,-16.0,1.0,-1.0,1651094073752581.0,0
131,0.0,3.0,1.0,-2.0,4.0,1.0,0.0,-1.0,1651094073752581.0,0
132,1.0,-2.0,-3.0,0.0,-7.0,-4.0,0.0,0.0,1651094073753578.0,0
133,-1.0,-2.0,-1.0,-2.0,-3.0,1.0,-1.0,-2.0,1651094073753578.0,0
134,0.0,-1.0,-2.0,1.0,0.0,8.0,1.0,1.0,1651094073776071.0,0
135,1.0,-2.0,-3.0,0.0,-4.0,-14.0,-1.0,0.0,1651094073776071.0,0
136,0.0,4.0,8.0,0.0,3.0,14.0,1.0,-1.0,1651094073776071.0,0
137,0.0,-2.0,-2.0,-4.0,0.0,-2.0,0.0,-1.0,1651094073776071.0,0
138,-3.0,-1.0,-2.0,-2.0,-1.0,12.0,0.0,-1.0,1651094073790340.0,0
139,1.0,0.0,0.0,1.0,-11.0,-6.0,0.0,-1.0,1651094073790340.0,0
140,-1.0,-1.0,-2.0,0.0,2.0,-6.0,-1.0,-1.0,1651094073790340.0,0
141,-2.0,-1.0,-3.0,0.0,11.0,-1.0,0.0,1.0,1651094073790340.0,0
142,1.0,0.0,1.0,0.0,-8.0,0.0,0.0,-1.0,1651094073812813.0,0
143,-2.0,-1.0,1.0,2.0,13.0,16.0,1.0,0.0,1651094073812813.0,0
144,-2.0,-3.0,-2.0,-1.0,-9.0,-6.0,-1.0,-2.0,1651094073812813.0,0
145,0.0,0.0,-3.0,0.0,-4.0,11.0,1.0,-1.0,1651094073812813.0,0
146,-1.0,-2.0,-4.0,-3.0,4.0,-3.0,-3.0,0.0,1651094073835842.0,0
147,0.0,0.0,0.0,2.0,-4.0,-1.0,-2.0,-1.0,1651094073835842.0,0
148,0.0,-1.0,-2.0,0.0,0.0,-7.0,0.0,-1.0,1651094073835842.0,0
149,-1.0,-2.0,0.0,-1.0,-7.0,5.0,-2.0,-1.0,1651094073835842.0,0
150,0.0,0.0,-2.0,-3.0,6.0,-11.0,-2.0,0.0,1651094073850960.0,0
151,1.0,4.0,7.0,0.0,1.0,-4.0,-3.0,0.0,1651094073850960.0,0
152,0.0,-1.0,-1.0,0.0,0.0,-11.0,-2.0,1.0,1651094073850960.0,0
153,0.0,-3.0,-3.0,0.0,-2.0,6.0,-2.0,-1.0,1651094073850960.0,0
154,1.0,-2.0,-2.0,2.0,-5.0,30.0,2.0,-1.0,1651094073873094.0,0
155,-2.0,-3.0,-1.0,-3.0,0.0,-2.0,0.0,-1.0,1651094073873094.0,0
156,-1.0,1.0,0.0,1.0,-2.0,0.0,1.0,0.0,1651094073873094.0,0
157,0.0,0.0,2.0,-1.0,2.0,-9.0,-3.0,-1.0,1651094073873094.0,0
158,-1.0,-1.0,-1.0,-1.0,-17.0,-11.0,-1.0,-1.0,1651094073903672.0,0
159,-1.0,-1.0,0.0,1.0,20.0,-5.0,-1.0,-2.0,1651094073903672.0,0
160,0.0,-1.0,-1.0,-1.0,-6.0,31.0,0.0,0.0,1651094073903672.0,0
161,1.0,-1.0,0.0,-2.0,0.0,-6.0,0.0,-2.0,1651094073903672.0,0
162,0.0,0.0,2.0,2.0,1.0,-9.0,0.0,0.0,1651094073909528.0,0
163,-2.0,0.0,2.0,1.0,-11.0,11.0,-1.0,-1.0,1651094073909528.0,0
164,-1.0,-3.0,-6.0,-2.0,4.0,-5.0,-1.0,0.0,1651094073910525.0,0
165,-1.0,2.0,-2.0,-3.0,-1.0,-8.0,1.0,-1.0,1651094073910525.0,0
166,-1.0,0.0,-1.0,-2.0,3.0,-11.0,0.0,0.0,1651094073932775.0,0
167,1.0,1.0,-3.0,0.0,7.0,7.0,0.0,1.0,1651094073932775.0,0
168,0.0,-3.0,1.0,1.0,-1.0,-7.0,-2.0,0.0,1651094073932775.0,0
169,-1.0,1.0,2.0,2.0,-1.0,2.0,-1.0,2.0,1651094073932775.0,0
170,-2.0,-1.0,0.0,-1.0,9.0,3.0,0.0,-1.0,1651094073956253.0,0
171,-1.0,-3.0,-4.0,-1.0,-2.0,-11.0,0.0,1.0,1651094073956253.0,0
172,0.0,0.0,-1.0,-2.0,1.0,17.0,1.0,-1.0,1651094073956253.0,0
173,0.0,-1.0,-1.0,0.0,-1.0,-3.0,-1.0,0.0,1651094073956253.0,0
174,0.0,2.0,2.0,2.0,11.0,2.0,-1.0,-1.0,1651094073970370.0,0
175,0.0,-3.0,1.0,-4.0,-10.0,-4.0,-1.0,0.0,1651094073970370.0,0
176,-1.0,0.0,-2.0,1.0,-2.0,-8.0,-1.0,-2.0,1651094073970370.0,0
177,0.0,0.0,2.0,3.0,2.0,2.0,0.0,-1.0,1651094073970370.0,0
178,-1.0,-2.0,-1.0,-3.0,3.0,-10.0,0.0,0.0,1651094073992450.0,0
179,1.0,-1.0,-3.0,1.0,6.0,20.0,0.0,-1.0,1651094073992450.0,0
180,-1.0,2.0,0.0,-3.0,-7.0,-6.0,0.0,1.0,1651094073993482.0,0
181,0.0,0.0,2.0,0.0,12.0,4.0,1.0,1.0,1651094073993482.0,0
182,0.0,-1.0,-3.0,1.0,-10.0,-7.0,-1.0,0.0,1651094074014880.0,0
183,-1.0,-2.0,-5.0,-3.0,-10.0,0.0,-1.0,-2.0,1651094074014880.0,0
184,-1.0,-2.0,-4.0,-1.0,2.0,-10.0,-2.0,-1.0,1651094074022859.0,0
185,-1.0,-1.0,-1.0,1.0,1.0,4.0,-1.0,-1.0,1651094074022859.0,0
186,1.0,1.0,3.0,0.0,0.0,9.0,1.0,2.0,1651094074030833.0,0
187,0.0,1.0,2.0,0.0,-1.0,-9.0,0.0,0.0,1651094074030833.0,0
188,-2.0,-2.0,0.0,1.0,2.0,-3.0,-1.0,0.0,1651094074030833.0,0
189,-1.0,-2.0,-4.0,-4.0,-2.0,1.0,-2.0,0.0,1651094074030833.0,0
190,-1.0,-2.0,-1.0,-1.0,2.0,-7.0,-2.0,-1.0,1651094074053375.0,0
191,-1.0,-1.0,-2.0,2.0,9.0,-10.0,0.0,1.0,1651094074053375.0,0
192,0.0,1.0,1.0,2.0,-1.0,-1.0,0.0,-1.0,1651094074053375.0,0
193,-1.0,-1.0,-4.0,0.0,-12.0,-17.0,-1.0,-1.0,1651094074053375.0,0
194,0.0,1.0,5.0,-1.0,-1.0,40.0,0.0,-1.0,1651094074076356.0,0
195,-2.0,-3.0,-1.0,-5.0,-6.0,-8.0,-1.0,-1.0,1651094074076356.0,0
196,1.0,2.0,3.0,-1.0,10.0,-3.0,0.0,-1.0,1651094074076356.0,0
197,1.0,-2.0,-6.0,-1.0,0.0,12.0,3.0,0.0,1651094074076356.0,0
198,-1.0,-2.0,-4.0,-1.0,-6.0,-32.0,-2.0,-1.0,1651094074089196.0,0
199,-1.0,0.0,0.0,-1.0,-3.0,17.0,-2.0,-1.0,1651094074089196.0,0
200,-1.0,-1.0,2.0,1.0,-13.0,0.0,-2.0,0.0,1651094074114308.0,0
201,-1.0,2.0,1.0,0.0,9.0,4.0,1.0,-1.0,1651094074114308.0,0
202,0.0,1.0,1.0,2.0,-15.0,-8.0,0.0,0.0,1651094074115147.0,0
203,1.0,1.0,1.0,-3.0,-3.0,4.0,-1.0,-1.0,1651094074115147.0,0
204,0.0,-1.0,-4.0,-1.0,-4.0,-4.0,0.0,-2.0,1651094074116144.0,0
205,0.0,-1.0,0.0,-1.0,5.0,-1.0,-2.0,-1.0,1651094074116144.0,0
206,-2.0,-1.0,-1.0,3.0,2.0,2.0,-1.0,-1.0,1651094074136341.0,0
207,-1.0,0.0,-2.0,-1.0,-6.0,-5.0,-2.0,-1.0,1651094074136341.0,0
208,-1.0,2.0,-3.0,-1.0,-1.0,0.0,-1.0,-2.0,1651094074136341.0,0
209,-1.0,-3.0,-1.0,-2.0,-7.0,-9.0,-1.0,0.0,1651094074136341.0,0
210,-1.0,-2.0,3.0,-3.0,2.0,1.0,1.0,-2.0,1651094074149361.0,0
211,-2.0,0.0,0.0,0.0,2.0,5.0,1.0,0.0,1651094074149361.0,0
212,1.0,-1.0,-3.0,1.0,17.0,-8.0,-3.0,1.0,1651094074158526.0,0
213,0.0,0.0,3.0,0.0,-13.0,2.0,-2.0,-1.0,1651094074158526.0,0
214,0.0,-3.0,-6.0,-2.0,-5.0,-11.0,-1.0,0.0,1651094074173708.0,0
215,0.0,1.0,2.0,2.0,-6.0,-1.0,-1.0,-2.0,1651094074173708.0,0
216,-2.0,0.0,0.0,-3.0,16.0,-6.0,0.0,-2.0,1651094074173708.0,0
217,-1.0,-1.0,0.0,0.0,-12.0,11.0,-1.0,0.0,1651094074173708.0,0
218,0.0,1.0,-6.0,-1.0,19.0,1.0,-1.0,0.0,1651094074195526.0,0
219,0.0,-3.0,-1.0,5.0,-7.0,-8.0,0.0,1.0,1651094074195526.0,0
220,-1.0,-1.0,0.0,-2.0,-1.0,-8.0,-1.0,-1.0,1651094074196523.0,0
221,1.0,-1.0,4.0,2.0,2.0,16.0,0.0,-1.0,1651094074196523.0,0
222,1.0,1.0,0.0,-2.0,-7.0,1.0,-1.0,0.0,1651094074217990.0,0
223,0.0,-2.0,-1.0,-2.0,2.0,0.0,-1.0,-2.0,1651094074217990.0,0
224,-2.0,-2.0,-6.0,-1.0,-2.0,9.0,1.0,-1.0,1651094074219987.0,0
225,-2.0,3.0,6.0,-1.0,0.0,-7.0,-1.0,-1.0,1651094074219987.0,0
226,0.0,-1.0,0.0,1.0,3.0,-1.0,0.0,-1.0,1651094074241247.0,0
227,-2.0,2.0,-2.0,0.0,1.0,8.0,0.0,2.0,1651094074241247.0,0
228,0.0,-2.0,0.0,-1.0,-8.0,-5.0,0.0,-1.0,1651094074242236.0,0
229,-1.0,-3.0,-4.0,0.0,5.0,-14.0,-3.0,-1.0,1651094074242236.0,0
230,-1.0,0.0,1.0,-1.0,-6.0,22.0,-1.0,0.0,1651094074254391.0,0
231,-2.0,-3.0,1.0,-1.0,9.0,-12.0,0.0,-1.0,1651094074254391.0,0
232,-1.0,0.0,-2.0,4.0,-1.0,3.0,-1.0,0.0,1651094074263220.0,0
233,-2.0,-1.0,-2.0,-1.0,-6.0,-3.0,-2.0,-1.0,1651094074263220.0,0
234,0.0,0.0,5.0,-1.0,-1.0,-1.0,-2.0,-1.0,1651094074278351.0,0
235,1.0,-1.0,-7.0,1.0,8.0,-5.0,-2.0,-1.0,1651094074278351.0,0
236,0.0,-1.0,-2.0,-6.0,-5.0,5.0,1.0,1.0,1651094074279349.0,0
237,0.0,-2.0,0.0,0.0,0.0,2.0,-1.0,-2.0,1651094074279349.0,0
238,0.0,-3.0,-1.0,0.0,9.0,22.0,2.0,0.0,1651094074300675.0,0
239,-1.0,-2.0,-3.0,0.0,-14.0,-9.0,-2.0,-1.0,1651094074300675.0,0
240,-1.0,3.0,8.0,2.0,3.0,3.0,-2.0,-1.0,1651094074301674.0,0
241,-1.0,-3.0,-4.0,0.0,-2.0,2.0,0.0,-1.0,1651094074301674.0,0
242,-2.0,0.0,0.0,0.0,-2.0,-7.0,0.0,-1.0,1651094074314605.0,0
243,1.0,1.0,1.0,0.0,-3.0,6.0,1.0,0.0,1651094074314605.0,0
244,1.0,-2.0,-3.0,0.0,-4.0,-7.0,1.0,1.0,1651094074321731.0,0
245,-1.0,-2.0,-1.0,-6.0,11.0,12.0,3.0,1.0,1651094074321731.0,0
246,0.0,-4.0,-4.0,4.0,-3.0,-3.0,-2.0,-1.0,1651094074338688.0,0
247,0.0,1.0,0.0,4.0,-1.0,-2.0,-1.0,0.0,1651094074338688.0,0
248,-1.0,-1.0,-3.0,-2.0,-9.0,-2.0,1.0,-1.0,1651094074339537.0,0
249,0.0,0.0,-1.0,-1.0,0.0,-9.0,0.0,0.0,1651094074339537.0,0
250,-1.0,0.0,-4.0,-4.0,4.0,-5.0,-1.0,0.0,1651094074360943.0,0
251,-2.0,-1.0,1.0,1.0,-24.0,7.0,2.0,0.0,1651094074360943.0,0
252,1.0,0.0,2.0,2.0,5.0,8.0,0.0,-1.0,1651094074361803.0,0
253,0.0,-2.0,0.0,1.0,1.0,-3.0,0.0,0.0,1651094074361803.0,0
254,-1.0,2.0,6.0,1.0,-6.0,-8.0,0.0,-2.0,1651094074374808.0,0
255,-1.0,0.0,-5.0,-3.0,2.0,-15.0,-2.0,-1.0,1651094074374808.0,0
256,-1.0,-4.0,-6.0,-1.0,12.0,1.0,1.0,0.0,1651094074382182.0,0
257,0.0,3.0,4.0,-1.0,-3.0,4.0,1.0,-1.0,1651094074382182.0,0
258,-1.0,-1.0,0.0,-5.0,-3.0,-5.0,-1.0,-1.0,1651094074399134.0,0
259,-1.0,-1.0,3.0,0.0,2.0,-15.0,0.0,-2.0,1651094074399134.0,0
260,0.0,-2.0,2.0,2.0,-4.0,9.0,-1.0,0.0,1651094074400167.0,0
261,0.0,-1.0,-4.0,2.0,0.0,-4.0,-2.0,0.0,1651094074400167.0,0
262,-1.0,-1.0,-1.0,5.0,2.0,-3.0,-3.0,0.0,1651094074421472.0,0
263,0.0,-2.0,0.0,-7.0,-6.0,2.0,-1.0,-1.0,1651094074421472.0,0
264,0.0,-3.0,-4.0,-4.0,-3.0,-7.0,-1.0,-1.0,1651094074422334.0,0
265,2.0,-2.0,1.0,-3.0,-18.0,10.0,-6.0,-3.0,1651094074422334.0,0
266,-1.0,0.0,-2.0,-1.0,-1.0,-7.0,-19.0,-4.0,1651094074434482.0,0
267,-3.0,-2.0,-2.0,6.0,0.0,5.0,14.0,-5.0,1651094074434482.0,0
268,-2.0,-3.0,-1.0,-5.0,-16.0,-5.0,-2.0,-2.0,1651094074450897.0,0
269,0.0,2.0,0.0,-3.0,36.0,-3.0,-3.0,2.0,1651094074450897.0,0
270,-2.0,-3.0,-3.0,2.0,-4.0,-5.0,-43.0,-4.0,1651094074458875.0,0
271,-3.0,-2.0,-1.0,-14.0,-3.0,1.0,71.0,-4.0,1651094074458875.0,0
272,0.0,0.0,-1.0,-29.0,-8.0,20.0,-55.0,-11.0,1651094074459730.0,0
273,-4.0,0.0,3.0,56.0,-18.0,-33.0,71.0,7.0,1651094074459730.0,0
274,8.0,2.0,1.0,9.0,29.0,49.0,25.0,20.0,1651094074481057.0,1
275,2.0,-1.0,-1.0,9.0,-2.0,-78.0,-68.0,-3.0,1651094074481057.0,1
276,-3.0,0.0,2.0,-3.0,23.0,-3.0,-37.0,3.0,1651094074482056.0,1
277,-11.0,-7.0,-3.0,-46.0,-23.0,9.0,-23.0,-15.0,1651094074482056.0,1
278,-14.0,-5.0,-11.0,-10.0,-51.0,-46.0,-4.0,-10.0,1651094074494210.0,1
279,24.0,12.0,12.0,35.0,43.0,95.0,89.0,14.0,1651094074494210.0,1
280,15.0,6.0,2.0,3.0,-4.0,-63.0,-88.0,-8.0,1651094074503311.0,1
281,14.0,6.0,1.0,1.0,4.0,20.0,-63.0,24.0,1651094074503311.0,1
282,6.0,-2.0,-3.0,-11.0,0.0,-8.0,100.0,19.0,1651094074520333.0,1
283,-35.0,-18.0,-11.0,-30.0,-19.0,-52.0,-79.0,-20.0,1651094074520333.0,1
284,-17.0,-1.0,2.0,7.0,-15.0,-57.0,97.0,-15.0,1651094074521227.0,1
285,6.0,-1.0,-2.0,5.0,24.0,-63.0,24.0,-13.0,1651094074521227.0,1
286,19.0,12.0,5.0,-3.0,9.0,53.0,-32.0,22.0,1651094074541462.0,1
287,7.0,2.0,-1.0,-6.0,9.0,59.0,-40.0,4.0,1651094074541462.0,1
288,-11.0,-3.0,-3.0,12.0,-15.0,-61.0,-98.0,-23.0,1651094074542382.0,1
289,-25.0,-13.0,-11.0,-34.0,-13.0,15.0,106.0,-7.0,1651094074542382.0,1
290,-3.0,-3.0,3.0,16.0,18.0,32.0,17.0,15.0,1651094074554510.0,1
291,-26.0,-11.0,-6.0,-4.0,4.0,20.0,-99.0,-46.0,1651094074554510.0,1
292,10.0,9.0,6.0,14.0,-4.0,82.0,125.0,7.0,1651094074563725.0,1
293,-5.0,10.0,4.0,4.0,18.0,7.0,30.0,2.0,1651094074563725.0,1
294,19.0,0.0,-2.0,-13.0,-3.0,-49.0,-81.0,-9.0,1651094074578039.0,1
295,5.0,-2.0,2.0,-13.0,4.0,16.0,91.0,44.0,1651094074578039.0,1
296,-2.0,-9.0,-5.0,-21.0,18.0,49.0,-3.0,-4.0,1651094074579908.0,1
297,23.0,4.0,-4.0,8.0,-2.0,-24.0,-36.0,-10.0,1651094074579908.0,1
298,3.0,4.0,9.0,50.0,-8.0,64.0,125.0,24.0,1651094074601211.0,1
299,9.0,9.0,9.0,12.0,-18.0,24.0,-43.0,-2.0,1651094074601211.0,1
300,-17.0,-14.0,-7.0,-13.0,11.0,-16.0,-94.0,0.0,1651094074603078.0,1
301,-27.0,-10.0,-3.0,-39.0,18.0,15.0,88.0,-22.0,1651094074603078.0,1
302,-6.0,3.0,-3.0,3.0,2.0,-28.0,-86.0,-6.0,1651094074624511.0,1
303,18.0,8.0,5.0,25.0,7.0,-54.0,85.0,15.0,1651094074624511.0,1
304,3.0,3.0,-1.0,-3.0,-44.0,4.0,34.0,1.0,1651094074625382.0,1
305,14.0,2.0,5.0,0.0,-1.0,-45.0,-128.0,14.0,1651094074625382.0,1
306,-39.0,-16.0,-8.0,-22.0,-42.0,-66.0,56.0,-60.0,1651094074645522.0,1
307,12.0,4.0,1.0,5.0,26.0,-3.0,-34.0,14.0,1651094074645522.0,1
308,22.0,10.0,7.0,0.0,9.0,91.0,127.0,55.0,1651094074647554.0,1
309,-24.0,-9.0,-7.0,28.0,-4.0,68.0,-29.0,-11.0,1651094074647554.0,1
310,4.0,9.0,6.0,6.0,-5.0,-104.0,-11.0,-9.0,1651094074661688.0,1
311,-6.0,1.0,-1.0,0.0,19.0,20.0,-74.0,-23.0,1651094074661688.0,1
312,6.0,7.0,2.0,-8.0,-7.0,52.0,21.0,41.0,1651094074663685.0,1
313,33.0,8.0,7.0,-3.0,-27.0,-49.0,10.0,32.0,1651094074663685.0,1
314,-15.0,0.0,-5.0,4.0,47.0,56.0,4.0,-4.0,1651094074683772.0,1
315,-20.0,-11.0,-5.0,-2.0,-4.0,-59.0,-23.0,-35.0,1651094074683772.0,1
316,9.0,-2.0,0.0,9.0,19.0,86.0,41.0,0.0,1651094074684630.0,1
317,23.0,10.0,9.0,-17.0,1.0,17.0,28.0,15.0,1651094074684630.0,1
318,-13.0,-10.0,-4.0,3.0,-9.0,16.0,-48.0,-26.0,1651094074699014.0,1
319,-40.0,-15.0,-16.0,33.0,9.0,26.0,-74.0,-61.0,1651094074699014.0,1
320,33.0,10.0,9.0,-7.0,3.0,-8.0,-56.0,26.0,1651094074699652.0,1
321,24.0,13.0,8.0,8.0,21.0,49.0,76.0,46.0,1651094074699652.0,1
322,-12.0,-6.0,-2.0,-25.0,-3.0,-2.0,14.0,0.0,1651094074728076.0,1
323,18.0,-1.0,0.0,-14.0,-17.0,49.0,42.0,17.0,1651094074728076.0,1
324,-6.0,3.0,-2.0,20.0,-35.0,-128.0,-30.0,-28.0,1651094074729977.0,1
325,-29.0,-12.0,-9.0,-4.0,-23.0,31.0,-63.0,-42.0,1651094074729977.0,1
326,6.0,0.0,2.0,-18.0,-3.0,-48.0,-33.0,17.0,1651094074733954.0,1
327,-29.0,-5.0,-8.0,-42.0,-21.0,12.0,-73.0,-8.0,1651094074733954.0,1
328,-16.0,-9.0,-3.0,21.0,-8.0,43.0,116.0,-12.0,1651094074743021.0,1
329,2.0,-3.0,-3.0,-30.0,5.0,12.0,-1.0,22.0,1651094074743021.0,1
330,-7.0,-3.0,-4.0,27.0,7.0,8.0,-66.0,-14.0,1651094074758861.0,1
331,5.0,14.0,12.0,-21.0,-13.0,68.0,82.0,-1.0,1651094074758861.0,1
332,53.0,3.0,5.0,47.0,36.0,-102.0,25.0,24.0,1651094074760059.0,1
333,1.0,-3.0,-7.0,17.0,0.0,59.0,5.0,-11.0,1651094074760059.0,1
334,75.0,18.0,9.0,22.0,-5.0,-72.0,-78.0,20.0,1651094074781318.0,1
335,-44.0,-13.0,-11.0,-28.0,-14.0,14.0,74.0,10.0,1651094074781318.0,1
336,0.0,-5.0,-4.0,-44.0,-1.0,-7.0,-70.0,-24.0,1651094074782224.0,1
337,-21.0,-4.0,-6.0,25.0,4.0,-41.0,58.0,-8.0,1651094074782224.0,1
338,15.0,7.0,9.0,-35.0,25.0,117.0,88.0,31.0,1651094074794244.0,1
339,0.0,-9.0,-11.0,36.0,-10.0,16.0,-81.0,-10.0,1651094074794244.0,1
340,-37.0,-5.0,6.0,9.0,-15.0,9.0,-28.0,1.0,1651094074803398.0,1
341,-15.0,-11.0,-16.0,-8.0,-15.0,54.0,-40.0,-23.0,1651094074803398.0,1
342,-8.0,8.0,14.0,1.0,24.0,77.0,-7.0,-31.0,1651094074818508.0,1
343,33.0,4.0,-3.0,-16.0,1.0,68.0,70.0,42.0,1651094074818508.0,1
344,3.0,0.0,-6.0,-9.0,11.0,23.0,-71.0,-9.0,1651094074819462.0,1
345,-28.0,-4.0,-6.0,-19.0,2.0,92.0,-78.0,-34.0,1651094074819462.0,1
346,11.0,-1.0,1.0,23.0,-22.0,-5.0,-28.0,24.0,1651094074841715.0,1
347,-1.0,1.0,13.0,31.0,1.0,-76.0,127.0,20.0,1651094074841715.0,1
348,11.0,4.0,4.0,23.0,13.0,59.0,17.0,23.0,1651094074841715.0,1
349,-37.0,5.0,2.0,4.0,16.0,33.0,29.0,-22.0,1651094074841715.0,1
350,29.0,-11.0,-10.0,-24.0,-7.0,56.0,27.0,-2.0,1651094074854739.0,1
351,20.0,1.0,0.0,-13.0,-5.0,-81.0,-38.0,22.0,1651094074854739.0,1
352,-26.0,-5.0,-12.0,-20.0,-13.0,42.0,16.0,-53.0,1651094074862756.0,1
353,26.0,4.0,6.0,22.0,8.0,-115.0,-38.0,27.0,1651094074862756.0,1
354,-46.0,0.0,-3.0,-7.0,-2.0,-14.0,84.0,16.0,1651094074877838.0,1
355,51.0,2.0,3.0,18.0,-5.0,-124.0,-94.0,-15.0,1651094074877838.0,1
356,-21.0,-13.0,-11.0,-59.0,0.0,-26.0,-47.0,-30.0,1651094074879710.0,1
357,11.0,4.0,4.0,25.0,-15.0,47.0,88.0,36.0,1651094074879710.0,1
358,-31.0,-5.0,5.0,13.0,7.0,-37.0,-109.0,-19.0,1651094074901073.0,1
359,10.0,-2.0,-7.0,-14.0,-18.0,67.0,47.0,15.0,1651094074901073.0,1
360,-66.0,7.0,14.0,10.0,19.0,-19.0,64.0,-3.0,1651094074902000.0,1
361,76.0,-5.0,-9.0,-35.0,-39.0,4.0,-69.0,-22.0,1651094074902000.0,1
362,13.0,4.0,-10.0,25.0,17.0,-82.0,64.0,28.0,1651094074915088.0,1
363,-27.0,-2.0,7.0,-33.0,-14.0,49.0,-18.0,-28.0,1651094074915088.0,1
364,-6.0,3.0,1.0,68.0,39.0,43.0,16.0,-1.0,1651094074922954.0,1
365,6.0,-8.0,-8.0,4.0,6.0,-72.0,-16.0,37.0,1651094074922954.0,1
366,-2.0,1.0,9.0,-27.0,-9.0,2.0,16.0,-10.0,1651094074938215.0,1
367,-34.0,-13.0,-13.0,-17.0,-11.0,62.0,-125.0,-39.0,1651094074938215.0,1
368,26.0,-7.0,11.0,19.0,-11.0,-128.0,73.0,44.0,1651094074940117.0,1
369,-5.0,21.0,-3.0,19.0,7.0,-15.0,68.0,8.0,1651094074940117.0,1
370,-46.0,-12.0,-9.0,-24.0,-12.0,63.0,-115.0,-49.0,1651094074961556.0,1
371,44.0,-1.0,-1.0,-9.0,0.0,71.0,124.0,38.0,1651094074961556.0,1
372,2.0,5.0,2.0,-24.0,-21.0,-34.0,-12.0,-12.0,1651094074962443.0,1
373,-30.0,-14.0,1.0,19.0,-8.0,-20.0,-46.0,-22.0,1651094074962443.0,1
374,7.0,-5.0,-9.0,11.0,12.0,76.0,29.0,9.0,1651094074983025.0,1
375,-28.0,9.0,5.0,-18.0,2.0,-57.0,-10.0,-6.0,1651094074983025.0,1
376,19.0,-9.0,-19.0,13.0,8.0,-24.0,-91.0,-3.0,1651094074984896.0,1
377,7.0,10.0,11.0,-43.0,-16.0,19.0,76.0,18.0,1651094074984896.0,1
378,43.0,-1.0,-14.0,29.0,-3.0,70.0,16.0,-6.0,1651094074998181.0,1
379,-41.0,-1.0,20.0,13.0,28.0,-6.0,-34.0,-21.0,1651094074998181.0,1
380,2.0,-9.0,-7.0,-74.0,-58.0,-57.0,-47.0,-4.0,1651094075000057.0,1
381,-46.0,-15.0,-11.0,23.0,-10.0,3.0,-128.0,-49.0,1651094075000057.0,1
382,30.0,12.0,12.0,-12.0,-2.0,37.0,110.0,60.0,1651094075020911.0,1
383,8.0,10.0,-4.0,28.0,0.0,-28.0,30.0,32.0,1651094075020911.0,1
384,-5.0,2.0,-1.0,-14.0,3.0,86.0,-7.0,-7.0,1651094075021911.0,1
385,-4.0,-9.0,8.0,-3.0,2.0,-74.0,-60.0,-14.0,1651094075021911.0,1
386,13.0,-2.0,-12.0,-25.0,-4.0,-39.0,48.0,-5.0,1651094075043463.0,1
387,38.0,3.0,8.0,46.0,14.0,80.0,-66.0,-4.0,1651094075043463.0,1
388,-31.0,0.0,-15.0,-24.0,-2.0,-30.0,20.0,5.0,1651094075044305.0,1
389,-23.0,-7.0,5.0,-18.0,0.0,94.0,59.0,-9.0,1651094075044305.0,1
390,-17.0,7.0,9.0,46.0,12.0,11.0,-12.0,10.0,1651094075058585.0,1
391,-10.0,-5.0,-12.0,-37.0,-13.0,-103.0,-19.0,-14.0,1651094075058585.0,1
392,34.0,-2.0,-25.0,4.0,47.0,127.0,33.0,27.0,1651094075059433.0,1
393,-5.0,20.0,43.0,37.0,16.0,-35.0,11.0,21.0,1651094075059433.0,1
394,83.0,-8.0,-17.0,-28.0,-30.0,-17.0,-108.0,-8.0,1651094075080720.0,1
395,-15.0,2.0,5.0,-16.0,-6.0,8.0,46.0,13.0,1651094075080720.0,1
396,5.0,0.0,-17.0,25.0,-4.0,21.0,-26.0,-19.0,1651094075082591.0,1
397,-3.0,-1.0,10.0,42.0,33.0,6.0,-56.0,-5.0,1651094075082591.0,1
398,-50.0,11.0,19.0,17.0,8.0,-30.0,67.0,-12.0,1651094075103686.0,1
399,10.0,-1.0,-7.0,-8.0,0.0,-5.0,15.0,15.0,1651094075103686.0,1
400,13.0,-11.0,5.0,9.0,17.0,21.0,-20.0,-14.0,1651094075104686.0,1
401,36.0,-2.0,-19.0,-18.0,-23.0,-34.0,-10.0,6.0,1651094075104686.0,1
402,-44.0,-11.0,-2.0,-38.0,-15.0,-40.0,-11.0,-9.0,1651094075117801.0,1
403,0.0,-4.0,-18.0,14.0,19.0,6.0,2.0,-19.0,1651094075117801.0,1
404,7.0,3.0,23.0,-23.0,-20.0,-39.0,-34.0,37.0,1651094075124941.0,1
405,-2.0,1.0,-18.0,-2.0,-25.0,-84.0,-74.0,-12.0,1651094075124941.0,1
406,-56.0,-19.0,5.0,3.0,15.0,-7.0,-18.0,-40.0,1651094075141367.0,1
407,85.0,29.0,9.0,-20.0,-13.0,-81.0,53.0,58.0,1651094075141367.0,1
408,-10.0,-7.0,-9.0,6.0,1.0,31.0,29.0,-6.0,1651094075141925.0,1
409,-2.0,6.0,25.0,14.0,16.0,44.0,-20.0,26.0,1651094075141925.0,1
410,25.0,3.0,-13.0,-24.0,-18.0,36.0,55.0,-11.0,1651094075163063.0,1
411,-94.0,-21.0,0.0,-35.0,4.0,114.0,-37.0,-55.0,1651094075163063.0,1
412,32.0,18.0,-27.0,70.0,35.0,23.0,-44.0,19.0,1651094075164953.0,1
413,17.0,3.0,54.0,-48.0,-1.0,40.0,62.0,-1.0,1651094075164953.0,1
414,-47.0,-10.0,-2.0,47.0,15.0,88.0,-79.0,-10.0,1651094075178036.0,1
415,7.0,-17.0,-43.0,9.0,-31.0,-75.0,112.0,18.0,1651094075178036.0,1
416,-61.0,22.0,5.0,-1.0,4.0,-7.0,-12.0,-12.0,1651094075183870.0,1
417,70.0,5.0,-19.0,-28.0,-17.0,36.0,-10.0,3.0,1651094075183870.0,1
418,-43.0,-3.0,-4.0,-11.0,13.0,52.0,-31.0,-9.0,1651094075200380.0,1
419,-27.0,-14.0,3.0,23.0,-5.0,-79.0,-62.0,-25.0,1651094075200380.0,1
420,74.0,7.0,-3.0,4.0,-6.0,69.0,-5.0,8.0,1651094075202377.0,1
421,-42.0,8.0,28.0,-1.0,2.0,-37.0,45.0,7.0,1651094075202377.0,1
422,36.0,3.0,-5.0,-36.0,-28.0,-41.0,44.0,37.0,1651094075223780.0,1
423,26.0,1.0,10.0,52.0,14.0,6.0,-48.0,-29.0,1651094075223780.0,1
424,-37.0,-11.0,22.0,6.0,4.0,-71.0,10.0,1.0,1651094075224630.0,1
425,-45.0,-6.0,-16.0,-15.0,8.0,-13.0,-10.0,-29.0,1651094075224630.0,1
426,42.0,-8.0,-19.0,-7.0,-1.0,-55.0,-43.0,16.0,1651094075237928.0,1
427,-56.0,7.0,-5.0,-30.0,6.0,7.0,0.0,-55.0,1651094075237928.0,1
428,55.0,3.0,2.0,-8.0,-24.0,-27.0,24.0,55.0,1651094075252169.0,1
429,20.0,-31.0,-62.0,32.0,12.0,49.0,-20.0,-2.0,1651094075252169.0,1
430,-69.0,0.0,63.0,5.0,-15.0,39.0,-25.0,-42.0,1651094075261361.0,1
431,55.0,15.0,-5.0,6.0,-9.0,-79.0,24.0,65.0,1651094075261361.0,1
432,-5.0,-2.0,12.0,-40.0,-25.0,101.0,-13.0,-57.0,1651094075261953.0,1
433,44.0,-8.0,-47.0,3.0,8.0,101.0,22.0,21.0,1651094075261953.0,1
434,-2.0,7.0,8.0,19.0,4.0,83.0,35.0,4.0,1651094075283627.0,1
435,-13.0,-7.0,20.0,-6.0,-9.0,29.0,3.0,0.0,1651094075283627.0,1
436,16.0,6.0,14.0,16.0,2.0,-11.0,11.0,-5.0,1651094075284123.0,1
437,20.0,-11.0,-63.0,-43.0,-30.0,-104.0,26.0,32.0,1651094075284123.0,1
438,-14.0,7.0,48.0,-10.0,0.0,8.0,-91.0,-20.0,1651094075297447.0,1
439,1.0,-3.0,10.0,55.0,19.0,96.0,61.0,-8.0,1651094075297447.0,1
440,-65.0,-2.0,13.0,-40.0,-2.0,15.0,-3.0,-10.0,1651094075304425.0,1
441,5.0,-1.0,-15.0,9.0,-4.0,-30.0,44.0,15.0,1651094075304425.0,1
442,3.0,-12.0,-48.0,4.0,-12.0,-31.0,-38.0,1.0,1651094075320924.0,1
443,-5.0,4.0,16.0,-27.0,1.0,-21.0,-41.0,0.0,1651094075320924.0,1
444,-1.0,-2.0,3.0,19.0,2.0,-49.0,44.0,3.0,1651094075321924.0,1
445,-73.0,21.0,47.0,-2.0,-2.0,-5.0,-39.0,-33.0,1651094075321924.0,1
446,34.0,-21.0,44.0,-15.0,-17.0,-85.0,76.0,20.0,1651094075343840.0,1
447,36.0,38.0,-45.0,-4.0,24.0,81.0,-29.0,3.0,1651094075343840.0,1
448,21.0,-35.0,-25.0,-5.0,-14.0,-17.0,-2.0,-14.0,1651094075344099.0,1
449,-43.0,3.0,-2.0,-6.0,1.0,-69.0,-15.0,-17.0,1651094075344099.0,1
450,24.0,8.0,-10.0,10.0,24.0,-40.0,66.0,44.0,1651094075357290.0,1
451,43.0,9.0,15.0,-3.0,-9.0,43.0,19.0,14.0,1651094075357290.0,1
452,-65.0,3.0,4.0,12.0,1.0,-31.0,-33.0,-13.0,1651094075366301.0,1
453,77.0,1.0,-2.0,14.0,0.0,116.0,13.0,23.0,1651094075366301.0,1
454,-54.0,-6.0,6.0,9.0,2.0,-5.0,-27.0,-59.0,1651094075381073.0,1
455,7.0,-4.0,0.0,-1.0,-12.0,-80.0,-9.0,34.0,1651094075381073.0,1
456,3.0,1.0,0.0,-24.0,-6.0,19.0,11.0,-6.0,1651094075382073.0,1
457,16.0,-12.0,-45.0,-26.0,-13.0,34.0,42.0,11.0,1651094075382073.0,1
458,10.0,15.0,15.0,36.0,7.0,27.0,-13.0,-1.0,1651094075403690.0,1
459,-43.0,-9.0,45.0,-9.0,-5.0,-32.0,-59.0,-18.0,1651094075403690.0,1
460,16.0,4.0,8.0,1.0,31.0,16.0,-5.0,-11.0,1651094075404533.0,1
461,4.0,-9.0,-14.0,-24.0,-29.0,-81.0,50.0,14.0,1651094075404533.0,1
462,9.0,14.0,-51.0,-6.0,-11.0,65.0,-23.0,-14.0,1651094075417891.0,1
463,10.0,-9.0,35.0,6.0,14.0,-67.0,40.0,37.0,1651094075417891.0,1
464,10.0,-3.0,-28.0,29.0,-13.0,-6.0,14.0,15.0,1651094075425084.0,1
465,-18.0,-11.0,38.0,6.0,-3.0,37.0,-33.0,-26.0,1651094075425084.0,1
466,13.0,15.0,-30.0,-7.0,3.0,-71.0,0.0,6.0,1651094075441413.0,1
467,-5.0,4.0,18.0,11.0,9.0,70.0,8.0,-1.0,1651094075441413.0,1
468,-4.0,5.0,13.0,-20.0,3.0,44.0,5.0,-8.0,1651094075442350.0,1
469,-1.0,-3.0,-13.0,-10.0,11.0,69.0,24.0,2.0,1651094075442350.0,1
470,-26.0,-8.0,9.0,16.0,-2.0,-11.0,-24.0,-14.0,1651094075463505.0,1
471,62.0,-10.0,-33.0,-13.0,-3.0,-6.0,12.0,-20.0,1651094075463505.0,1
472,29.0,-8.0,-1.0,8.0,-9.0,-18.0,-35.0,37.0,1651094075464469.0,1
473,-85.0,13.0,43.0,39.0,16.0,22.0,-1.0,-40.0,1651094075464469.0,1
474,63.0,-14.0,-47.0,-17.0,20.0,66.0,25.0,26.0,1651094075476435.0,1
475,-29.0,10.0,40.0,5.0,-34.0,-28.0,-1.0,9.0,1651094075476435.0,1
476,3.0,0.0,-18.0,7.0,19.0,20.0,12.0,1.0,1651094075485444.0,1
477,19.0,1.0,12.0,32.0,34.0,54.0,-10.0,-10.0,1651094075485444.0,1
478,-88.0,-7.0,-17.0,-52.0,-30.0,12.0,-5.0,-36.0,1651094075500371.0,1
479,6.0,-7.0,-33.0,-20.0,-9.0,-55.0,-16.0,2.0,1651094075500371.0,1
480,0.0,3.0,-10.0,31.0,2.0,-3.0,17.0,34.0,1651094075502366.0,1
481,-24.0,7.0,59.0,17.0,13.0,19.0,-34.0,-12.0,1651094075502366.0,1
482,-8.0,-3.0,-5.0,0.0,-2.0,-24.0,10.0,7.0,1651094075522313.0,1
483,14.0,-25.0,-44.0,-28.0,0.0,-7.0,-5.0,-7.0,1651094075522313.0,1
484,-21.0,12.0,32.0,3.0,-21.0,70.0,20.0,-18.0,1651094075530327.0,1
485,-39.0,6.0,-6.0,41.0,33.0,-62.0,13.0,3.0,1651094075530327.0,1
486,111.0,16.0,7.0,-13.0,-6.0,39.0,-34.0,38.0,1651094075536310.0,1
487,-41.0,-12.0,-10.0,12.0,7.0,4.0,-53.0,-21.0,1651094075536310.0,1
488,0.0,6.0,-8.0,-55.0,5.0,25.0,78.0,9.0,1651094075545252.0,1
489,11.0,-4.0,-11.0,-6.0,-30.0,12.0,17.0,13.0,1651094075545252.0,1
490,1.0,5.0,58.0,21.0,28.0,-41.0,31.0,-6.0,1651094075561240.0,1
491,-12.0,0.0,-30.0,23.0,-6.0,51.0,4.0,6.0,1651094075561240.0,1
492,-61.0,-11.0,-8.0,-9.0,-10.0,10.0,-70.0,-25.0,1651094075562207.0,1
493,46.0,0.0,6.0,-33.0,-6.0,16.0,-5.0,-8.0,1651094075562207.0,1
494,7.0,-8.0,-31.0,3.0,19.0,1.0,-48.0,29.0,1651094075583184.0,1
495,-10.0,8.0,-3.0,11.0,1.0,-48.0,57.0,-10.0,1651094075583184.0,1
496,-8.0,-2.0,14.0,-2.0,-3.0,76.0,-41.0,-7.0,1651094075584152.0,1
497,-46.0,5.0,46.0,3.0,-5.0,-49.0,-34.0,1.0,1651094075584152.0,1
498,16.0,-1.0,-41.0,-3.0,-12.0,-19.0,25.0,8.0,1651094075597112.0,1
499,-3.0,3.0,16.0,-4.0,14.0,109.0,5.0,-6.0,1651094075597112.0,1
500,51.0,-16.0,-7.0,12.0,-24.0,-84.0,-10.0,-3.0,1651094075606088.0,1
501,4.0,-7.0,-19.0,10.0,33.0,33.0,-1.0,-1.0,1651094075606088.0,1
502,-97.0,9.0,36.0,-6.0,-22.0,-9.0,-51.0,-34.0,1651094075620053.0,1
503,60.0,-1.0,-8.0,-11.0,13.0,43.0,2.0,30.0,1651094075620053.0,1
504,3.0,5.0,-3.0,-13.0,-6.0,-128.0,62.0,12.0,1651094075622047.0,1
505,17.0,3.0,-31.0,-20.0,-10.0,45.0,1.0,-10.0,1651094075622047.0,1
506,-29.0,-6.0,14.0,43.0,-7.0,30.0,38.0,-11.0,1651094075644162.0,1
507,-10.0,-28.0,-32.0,29.0,10.0,-40.0,-21.0,1.0,1651094075644162.0,1
508,-2.0,20.0,57.0,1.0,1.0,-57.0,-28.0,5.0,1651094075645163.0,1
509,16.0,10.0,-13.0,-47.0,-10.0,32.0,-22.0,-10.0,1651094075645163.0,1
510,-31.0,-6.0,-14.0,20.0,23.0,94.0,33.0,-14.0,1651094075657435.0,1
511,-10.0,6.0,10.0,17.0,2.0,-61.0,-12.0,12.0,1651094075657435.0,1
512,77.0,-8.0,-36.0,5.0,-6.0,42.0,43.0,29.0,1651094075665288.0,1
513,62.0,6.0,25.0,-18.0,-15.0,-25.0,9.0,-4.0,1651094075665288.0,1
514,-17.0,-14.0,-12.0,-4.0,-1.0,-6.0,0.0,-12.0,1651094075679413.0,1
515,11.0,6.0,12.0,15.0,30.0,127.0,-9.0,6.0,1651094075679413.0,1
516,-24.0,0.0,-4.0,24.0,-2.0,-49.0,-5.0,9.0,1651094075695595.0,1
517,6.0,5.0,4.0,-1.0,-2.0,24.0,-10.0,5.0,1651094075695595.0,1
518,25.0,9.0,59.0,-11.0,9.0,-87.0,23.0,7.0,1651094075703680.0,1
519,-30.0,12.0,-8.0,-33.0,-21.0,19.0,-26.0,-26.0,1651094075703680.0,1
520,-39.0,-16.0,-27.0,36.0,26.0,67.0,-29.0,-28.0,1651094075704680.0,1
521,-28.0,-12.0,-5.0,-14.0,0.0,-81.0,-1.0,5.0,1651094075704680.0,1
522,35.0,8.0,-20.0,18.0,-4.0,-9.0,-8.0,7.0,1651094075716809.0,1
523,16.0,6.0,0.0,-27.0,-6.0,19.0,-6.0,23.0,1651094075716809.0,1
524,-48.0,-8.0,30.0,-14.0,-5.0,-3.0,30.0,-47.0,1651094075725781.0,1
525,-20.0,-12.0,5.0,21.0,7.0,-35.0,8.0,30.0,1651094075725781.0,1
526,39.0,-14.0,-118.0,-15.0,-3.0,-11.0,-4.0,-1.0,1651094075740174.0,1
527,16.0,19.0,109.0,11.0,-4.0,-31.0,25.0,-4.0,1651094075740174.0,1
528,-8.0,5.0,-21.0,23.0,6.0,72.0,-61.0,-24.0,1651094075748537.0,1
529,-25.0,-6.0,-47.0,-45.0,-17.0,-31.0,1.0,-3.0,1651094075748537.0,1
530,41.0,-12.0,-32.0,-5.0,-18.0,-66.0,50.0,46.0,1651094075763891.0,1
531,-39.0,-12.0,-43.0,-10.0,-2.0,-15.0,0.0,-20.0,1651094075763891.0,1
532,-24.0,7.0,-6.0,-15.0,-6.0,-12.0,-29.0,-62.0,1651094075765096.0,1
533,30.0,13.0,33.0,26.0,7.0,-78.0,-4.0,28.0,1651094075765096.0,1
534,-42.0,14.0,25.0,-31.0,-4.0,82.0,0.0,14.0,1651094075777395.0,1
535,62.0,0.0,-28.0,23.0,9.0,24.0,-17.0,-1.0,1651094075777395.0,1
536,8.0,-12.0,20.0,-4.0,-17.0,-41.0,3.0,-13.0,1651094075785492.0,1
537,-34.0,1.0,3.0,25.0,23.0,37.0,16.0,-24.0,1651094075785492.0,1
538,-24.0,-1.0,8.0,-23.0,-7.0,-23.0,-38.0,-12.0,1651094075800800.0,1
539,20.0,-5.0,6.0,5.0,-11.0,43.0,9.0,23.0,1651094075800800.0,1
540,-24.0,13.0,-2.0,-37.0,-10.0,53.0,7.0,12.0,1651094075807775.0,1
541,30.0,-12.0,-52.0,11.0,1.0,30.0,-1.0,23.0,1651094075807775.0,1
542,-9.0,-4.0,90.0,5.0,7.0,-69.0,-3.0,-42.0,1651094075823819.0,1
543,-36.0,-6.0,-28.0,-12.0,-7.0,75.0,27.0,-25.0,1651094075823819.0,1
544,14.0,-5.0,-85.0,2.0,1.0,-74.0,-51.0,32.0,1651094075824850.0,1
545,-20.0,10.0,33.0,-9.0,-6.0,110.0,1.0,-20.0,1651094075824850.0,1
546,55.0,5.0,48.0,5.0,-4.0,-51.0,19.0,45.0,1651094075838120.0,1
547,5.0,-11.0,-62.0,3.0,13.0,-57.0,6.0,0.0,1651094075838120.0,1
548,-31.0,-11.0,58.0,-14.0,5.0,18.0,9.0,-18.0,1651094075845945.0,1
549,33.0,5.0,13.0,30.0,-10.0,-43.0,-17.0,21.0,1651094075845945.0,1
550,-16.0,9.0,-75.0,1.0,-17.0,58.0,-54.0,-42.0,1651094075861486.0,1
551,-47.0,0.0,71.0,-27.0,22.0,-63.0,14.0,-12.0,1651094075861486.0,1
552,64.0,-24.0,-59.0,-1.0,-7.0,-33.0,10.0,18.0,1651094075861953.0,1
553,11.0,-11.0,38.0,3.0,18.0,41.0,-29.0,-21.0,1651094075861953.0,1
554,-46.0,4.0,-42.0,25.0,0.0,-14.0,61.0,28.0,1651094075883599.0,1
555,86.0,11.0,36.0,-53.0,-20.0,-30.0,-30.0,-22.0,1651094075883599.0,1
556,10.0,3.0,7.0,58.0,6.0,-48.0,-15.0,6.0,1651094075884474.0,1
557,-38.0,9.0,-3.0,-7.0,6.0,-19.0,2.0,-19.0,1651094075884474.0,1
558,18.0,-10.0,-23.0,-16.0,-2.0,-48.0,0.0,41.0,1651094075906581.0,1
559,-73.0,-2.0,-49.0,-11.0,-20.0,-19.0,18.0,-19.0,1651094075906581.0,1
560,27.0,6.0,91.0,13.0,16.0,96.0,24.0,12.0,1651094075907411.0,1
561,12.0,4.0,-32.0,31.0,21.0,75.0,-78.0,-7.0,1651094075907411.0,1
562,-22.0,1.0,7.0,22.0,17.0,67.0,88.0,8.0,1651094075921109.0,1
563,-17.0,-13.0,9.0,-7.0,17.0,59.0,5.0,27.0,1651094075921109.0,1
564,1.0,9.0,-20.0,-36.0,-16.0,68.0,4.0,-12.0,1651094075922109.0,1
565,0.0,-6.0,-6.0,12.0,-2.0,-36.0,-2.0,11.0,1651094075922109.0,1
566,-4.0,-6.0,26.0,-17.0,1.0,42.0,-31.0,-45.0,1651094075943563.0,1
567,33.0,-6.0,-27.0,8.0,-3.0,9.0,3.0,18.0,1651094075943563.0,1
568,15.0,11.0,9.0,6.0,-3.0,-95.0,42.0,23.0,1651094075944404.0,1
569,-53.0,-7.0,16.0,-19.0,0.0,49.0,-20.0,-2.0,1651094075944404.0,1
570,31.0,2.0,-12.0,9.0,-12.0,-62.0,-17.0,4.0,1651094075965916.0,1
571,-13.0,10.0,-28.0,5.0,-2.0,39.0,4.0,-19.0,1651094075965916.0,1
572,3.0,-3.0,30.0,-5.0,26.0,-33.0,-18.0,-3.0,1651094075966770.0,1
573,-57.0,1.0,-32.0,-15.0,-43.0,-56.0,55.0,12.0,1651094075966770.0,1
574,44.0,0.0,31.0,-16.0,-1.0,37.0,-6.0,5.0,1651094075980874.0,1
575,-44.0,-4.0,-41.0,32.0,13.0,2.0,-55.0,-21.0,1651094075980874.0,1
576,43.0,-5.0,21.0,-18.0,-7.0,19.0,-32.0,-8.0,1651094075981739.0,1
577,-22.0,6.0,-9.0,11.0,3.0,10.0,8.0,-31.0,1651094075981739.0,1
578,7.0,-1.0,23.0,3.0,8.0,28.0,37.0,18.0,1651094076003328.0,1
579,19.0,11.0,-4.0,5.0,23.0,42.0,19.0,45.0,1651094076003328.0,1
580,-52.0,-7.0,0.0,-2.0,-5.0,35.0,-11.0,3.0,1651094076004201.0,1
581,31.0,-5.0,-17.0,-12.0,5.0,64.0,14.0,-6.0,1651094076004201.0,1
582,-26.0,-9.0,-1.0,-5.0,-18.0,-19.0,-25.0,-37.0,1651094076026300.0,1
583,-23.0,4.0,17.0,7.0,23.0,49.0,-18.0,2.0,1651094076026300.0,1
584,1.0,2.0,-19.0,-2.0,-3.0,-14.0,35.0,5.0,1651094076027220.0,1
585,24.0,-4.0,-47.0,0.0,-1.0,-30.0,5.0,4.0,1651094076027220.0,1
586,1.0,-2.0,77.0,0.0,11.0,-23.0,-18.0,-3.0,1651094076041570.0,1
587,-22.0,1.0,13.0,-3.0,-31.0,-49.0,-10.0,-5.0,1651094076041570.0,1
588,-10.0,-2.0,-28.0,-4.0,14.0,29.0,11.0,0.0,1651094076042237.0,1
589,19.0,3.0,0.0,-5.0,13.0,-37.0,0.0,-20.0,1651094076042237.0,1
590,-11.0,-3.0,-25.0,8.0,9.0,31.0,-21.0,-5.0,1651094076064031.0,1
591,8.0,0.0,15.0,-3.0,-18.0,-97.0,14.0,-4.0,1651094076064031.0,1
592,-9.0,-6.0,-8.0,-10.0,-91.0,-37.0,0.0,8.0,1651094076064916.0,1
593,24.0,-4.0,3.0,10.0,63.0,5.0,12.0,-2.0,1651094076064916.0,1
594,2.0,2.0,-6.0,2.0,16.0,-6.0,0.0,24.0,1651094076086267.0,1
595,-2.0,-4.0,11.0,0.0,-15.0,51.0,3.0,-9.0,1651094076086267.0,1
596,2.0,-7.0,-20.0,-5.0,29.0,-5.0,-5.0,12.0,1651094076087130.0,1
597,-3.0,5.0,28.0,-4.0,-91.0,-46.0,0.0,2.0,1651094076087130.0,1
598,5.0,3.0,-19.0,3.0,78.0,-1.0,-16.0,-11.0,1651094076099591.0,1
599,3.0,1.0,4.0,3.0,-36.0,-8.0,10.0,1.0,1651094076099591.0,1
600,-18.0,-4.0,-5.0,-3.0,-21.0,2.0,-1.0,1.0,1651094076115856.0,1
601,-1.0,-7.0,5.0,-9.0,57.0,-18.0,4.0,5.0,1651094076115856.0,1
602,1.0,-1.0,-8.0,-10.0,-62.0,1.0,-20.0,-10.0,1651094076123980.0,1
603,4.0,-1.0,6.0,13.0,14.0,-31.0,7.0,23.0,1651094076123980.0,1
604,-2.0,7.0,4.0,7.0,-4.0,9.0,6.0,-2.0,1651094076124887.0,1
605,9.0,-7.0,-11.0,-2.0,-80.0,-15.0,4.0,7.0,1651094076124887.0,1
606,-3.0,3.0,2.0,-11.0,10.0,-2.0,2.0,-4.0,1651094076146107.0,1
607,-1.0,-8.0,-13.0,2.0,-58.0,-20.0,-4.0,-6.0,1651094076146107.0,1
608,-2.0,3.0,17.0,-12.0,-40.0,-26.0,-1.0,-8.0,1651094076147105.0,1
609,2.0,-8.0,-8.0,-1.0,65.0,-1.0,1.0,8.0,1651094076147105.0,1
610,-5.0,7.0,0.0,8.0,-38.0,7.0,1.0,0.0,1651094076159276.0,1
611,1.0,-4.0,4.0,-10.0,24.0,-6.0,-1.0,2.0,1651094076159276.0,1
612,3.0,4.0,-4.0,15.0,-38.0,14.0,8.0,-4.0,1651094076168255.0,1
613,2.0,2.0,7.0,1.0,-11.0,-17.0,1.0,-9.0,1651094076168255.0,1
614,-1.0,-4.0,-19.0,-4.0,-5.0,-4.0,-2.0,-3.0,1651094076183255.0,1
615,3.0,-1.0,24.0,2.0,73.0,-1.0,-5.0,-5.0,1651094076183255.0,1
616,-5.0,0.0,-7.0,-4.0,-4.0,9.0,4.0,4.0,1651094076184243.0,1
617,-1.0,-2.0,2.0,-1.0,-11.0,-20.0,-2.0,3.0,1651094076184243.0,1
618,1.0,3.0,-4.0,2.0,-43.0,2.0,2.0,0.0,1651094076205918.0,1
619,-1.0,-1.0,-2.0,-1.0,-2.0,2.0,0.0,1.0,1651094076205918.0,1
620,-3.0,1.0,-8.0,-2.0,22.0,62.0,-4.0,-2.0,1651094076206753.0,1
621,2.0,-2.0,7.0,-4.0,6.0,-34.0,2.0,-1.0,1651094076206753.0,1
622,-1.0,-3.0,-4.0,-6.0,-52.0,-24.0,-7.0,1.0,1651094076220246.0,1
623,1.0,3.0,-1.0,0.0,20.0,16.0,5.0,-1.0,1651094076220246.0,1
624,-2.0,1.0,-3.0,11.0,31.0,-4.0,-1.0,-4.0,1651094076228232.0,1
625,0.0,-2.0,7.0,-6.0,25.0,15.0,-1.0,2.0,1651094076228232.0,1
626,-1.0,-2.0,-9.0,-4.0,-63.0,-3.0,3.0,3.0,1651094076244287.0,1
627,0.0,3.0,9.0,12.0,46.0,3.0,-2.0,-4.0,1651094076244287.0,1
628,-2.0,1.0,-7.0,-7.0,-30.0,-24.0,1.0,-2.0,1651094076245287.0,1
629,4.0,2.0,-1.0,5.0,28.0,19.0,2.0,6.0,1651094076245287.0,1
630,-5.0,-3.0,-3.0,-8.0,-14.0,-38.0,-2.0,-2.0,1651094076266388.0,1
631,0.0,-3.0,-1.0,1.0,-42.0,-22.0,1.0,-3.0,1651094076266388.0,1
632,-3.0,0.0,-2.0,-6.0,17.0,-19.0,-6.0,0.0,1651094076267265.0,1
633,2.0,1.0,3.0,5.0,-33.0,5.0,1.0,3.0,1651094076267265.0,1
634,1.0,-2.0,0.0,0.0,9.0,10.0,-3.0,-3.0,1651094076280800.0,1
635,1.0,2.0,-1.0,12.0,97.0,13.0,3.0,0.0,1651094076280800.0,1
636,-2.0,-5.0,-12.0,-8.0,-7.0,-5.0,0.0,-2.0,1651094076286940.0,1
637,0.0,3.0,17.0,-5.0,-79.0,2.0,2.0,0.0,1651094076286940.0,1
638,-1.0,-3.0,-3.0,6.0,81.0,-6.0,-8.0,-5.0,1651094076303329.0,1
639,3.0,2.0,2.0,-3.0,-30.0,0.0,-1.0,0.0,1651094076303329.0,1
640,0.0,-1.0,1.0,2.0,-25.0,-5.0,-1.0,-1.0,1651094076304165.0,1
641,-1.0,-3.0,-11.0,-6.0,29.0,-3.0,-1.0,-1.0,1651094076304165.0,1
642,-2.0,-3.0,-4.0,3.0,11.0,33.0,1.0,1.0,1651094076327466.0,1
643,-3.0,-1.0,5.0,-4.0,-9.0,-8.0,-1.0,-2.0,1651094076327466.0,1
644,1.0,3.0,11.0,7.0,2.0,2.0,0.0,0.0,1651094076328467.0,1
645,2.0,-3.0,-5.0,-4.0,-10.0,-2.0,-1.0,0.0,1651094076328467.0,1
646,-1.0,-4.0,-1.0,-6.0,16.0,-26.0,-2.0,0.0,1651094076340590.0,1
647,-1.0,-3.0,-9.0,5.0,-31.0,35.0,0.0,-1.0,1651094076340590.0,1
648,0.0,0.0,-4.0,-8.0,9.0,3.0,-1.0,-3.0,1651094076347566.0,1
649,-1.0,3.0,4.0,12.0,66.0,2.0,2.0,2.0,1651094076347566.0,1
650,-1.0,-1.0,-3.0,-4.0,0.0,5.0,0.0,1.0,1651094076363744.0,1
651,1.0,-1.0,1.0,-2.0,-24.0,-9.0,-2.0,-1.0,1651094076363744.0,1
652,0.0,1.0,1.0,1.0,4.0,-14.0,-4.0,-3.0,1651094076364584.0,1
653,1.0,1.0,-1.0,-2.0,0.0,8.0,1.0,0.0,1651094076364584.0,1
654,-1.0,0.0,-3.0,-3.0,1.0,9.0,-1.0,1.0,1651094076393742.0,1
655,-4.0,-3.0,3.0,-1.0,-1.0,-17.0,-3.0,-2.0,1651094076393742.0,1
656,-2.0,0.0,2.0,3.0,8.0,9.0,0.0,0.0,1651094076394605.0,1
657,0.0,0.0,-2.0,-1.0,-48.0,-9.0,-2.0,-2.0,1651094076394605.0,1
658,1.0,-1.0,-4.0,4.0,57.0,17.0,5.0,1.0,1651094076398628.0,1
659,0.0,5.0,8.0,-10.0,-28.0,-8.0,-1.0,-1.0,1651094076398628.0,1
660,0.0,0.0,-2.0,7.0,23.0,-8.0,0.0,-1.0,1651094076408950.0,1
661,-1.0,-2.0,-1.0,3.0,-25.0,10.0,1.0,0.0,1651094076408950.0,1
662,-2.0,0.0,-4.0,-10.0,-14.0,4.0,-2.0,-1.0,1651094076423757.0,1
663,0.0,-2.0,-7.0,-5.0,-14.0,-15.0,0.0,0.0,1651094076423757.0,1
664,0.0,1.0,2.0,5.0,3.0,10.0,1.0,0.0,1651094076424962.0,1
665,0.0,-2.0,-2.0,3.0,-13.0,-6.0,0.0,-1.0,1651094076424962.0,1
666,0.0,1.0,6.0,1.0,8.0,10.0,0.0,-1.0,1651094076445162.0,1
667,1.0,-1.0,-5.0,-2.0,5.0,-6.0,-3.0,-1.0,1651094076445162.0,1
668,-3.0,-4.0,-5.0,-4.0,-20.0,-8.0,-3.0,-2.0,1651094076447157.0,1
669,-1.0,1.0,3.0,-1.0,35.0,1.0,-1.0,0.0,1651094076447157.0,1
670,-1.0,0.0,5.0,8.0,30.0,4.0,0.0,-1.0,1651094076459622.0,1
671,-1.0,1.0,-2.0,-4.0,-10.0,2.0,-1.0,-2.0,1651094076459622.0,1
672,0.0,0.0,2.0,2.0,15.0,-3.0,-1.0,1.0,1651094076467897.0,1
673,-1.0,-3.0,-4.0,-7.0,-2.0,-11.0,-1.0,-2.0,1651094076467897.0,1
674,0.0,-1.0,2.0,-3.0,-25.0,-5.0,-1.0,-1.0,1651094076484130.0,1
675,-1.0,-3.0,-7.0,-2.0,-1.0,0.0,-1.0,1.0,1651094076484130.0,1
676,0.0,-1.0,-3.0,-2.0,30.0,4.0,-1.0,0.0,1651094076484130.0,1
677,-1.0,0.0,-2.0,3.0,-28.0,4.0,-2.0,-1.0,1651094076484130.0,1
678,1.0,3.0,3.0,-5.0,1.0,-4.0,-1.0,0.0,1651094076506526.0,1
679,-1.0,0.0,-4.0,-3.0,-16.0,0.0,0.0,-3.0,1651094076506526.0,1
680,-1.0,-2.0,0.0,-4.0,-6.0,-11.0,-1.0,-1.0,1651094076507395.0,1
681,-1.0,1.0,-2.0,0.0,18.0,9.0,1.0,0.0,1651094076507395.0,1
682,-1.0,-4.0,-4.0,5.0,1.0,-4.0,-1.0,0.0,1651094076519565.0,1
683,-1.0,-2.0,-3.0,0.0,0.0,-5.0,-1.0,1.0,1651094076519565.0,1
684,-1.0,3.0,13.0,-1.0,17.0,-13.0,-1.0,0.0,1651094076528567.0,1
685,0.0,0.0,-3.0,-1.0,22.0,17.0,0.0,-1.0,1651094076528567.0,1
686,0.0,0.0,-4.0,-3.0,-4.0,8.0,3.0,0.0,1651094076543869.0,1
687,-1.0,-1.0,-4.0,-2.0,-22.0,-4.0,-1.0,-2.0,1651094076543869.0,1
688,0.0,-3.0,1.0,2.0,11.0,2.0,0.0,0.0,1651094076544871.0,1
689,-2.0,-1.0,-2.0,-4.0,-1.0,-7.0,-3.0,0.0,1651094076544871.0,1
690,-1.0,-2.0,-4.0,2.0,-7.0,-6.0,1.0,1.0,1651094076565999.0,1
691,-2.0,-3.0,-5.0,-1.0,6.0,12.0,-1.0,0.0,1651094076565999.0,1
692,1.0,2.0,-1.0,-1.0,4.0,7.0,2.0,0.0,1651094076566844.0,1
693,0.0,1.0,2.0,2.0,-13.0,-10.0,1.0,-1.0,1651094076566844.0,1
694,0.0,3.0,0.0,-5.0,-11.0,-10.0,-1.0,-2.0,1651094076579452.0,1
695,-2.0,-5.0,1.0,-2.0,-7.0,-3.0,-2.0,-1.0,1651094076579452.0,1
696,-1.0,-3.0,-5.0,0.0,1.0,13.0,-2.0,-2.0,1651094076588467.0,1
697,-2.0,1.0,0.0,0.0,-3.0,0.0,0.0,0.0,1651094076588467.0,1
698,1.0,-2.0,-3.0,5.0,-5.0,-7.0,-2.0,1.0,1651094076602592.0,1
699,-1.0,2.0,2.0,2.0,1.0,0.0,1.0,1.0,1651094076602592.0,1
700,0.0,1.0,8.0,2.0,4.0,5.0,0.0,-1.0,1651094076610543.0,1
701,0.0,0.0,3.0,-3.0,-18.0,-5.0,-1.0,-2.0,1651094076610543.0,1
702,-1.0,0.0,1.0,-1.0,-6.0,-1.0,-2.0,-2.0,1651094076625736.0,1
703,0.0,1.0,-2.0,-8.0,27.0,0.0,0.0,0.0,1651094076625736.0,1
704,-1.0,-4.0,-10.0,-1.0,-39.0,0.0,-2.0,-3.0,1651094076627586.0,1
705,0.0,-2.0,-1.0,0.0,5.0,-13.0,0.0,-3.0,1651094076627586.0,1
706,-1.0,1.0,4.0,-4.0,27.0,16.0,1.0,0.0,1651094076639747.0,1
707,0.0,-2.0,-5.0,2.0,-11.0,-8.0,0.0,-1.0,1651094076639747.0,1
708,0.0,1.0,-3.0,-6.0,-17.0,-1.0,1.0,0.0,1651094076648726.0,1
709,-2.0,-1.0,-1.0,-1.0,8.0,-4.0,-3.0,0.0,1651094076648726.0,1
710,-1.0,-2.0,-3.0,-2.0,-5.0,9.0,0.0,0.0,1651094076670939.0,1
711,-1.0,0.0,1.0,0.0,2.0,2.0,0.0,-2.0,1651094076670939.0,1
712,0.0,1.0,0.0,-3.0,15.0,0.0,1.0,0.0,1651094076671938.0,1
713,1.0,-1.0,-1.0,4.0,-10.0,1.0,0.0,-1.0,1651094076671938.0,1
714,0.0,-2.0,-2.0,3.0,0.0,-1.0,0.0,-1.0,1651094076686231.0,1
715,-2.0,0.0,3.0,1.0,-3.0,2.0,-2.0,-1.0,1651094076686231.0,1
716,-1.0,-2.0,0.0,-2.0,2.0,-9.0,-3.0,-1.0,1651094076687085.0,1
717,-1.0,-1.0,0.0,-2.0,-2.0,16.0,0.0,2.0,1651094076687085.0,1
718,0.0,0.0,-3.0,-3.0,-22.0,-8.0,-1.0,0.0,1651094076699232.0,1
719,0.0,1.0,9.0,9.0,31.0,4.0,0.0,1.0,1651094076699232.0,1
720,-1.0,0.0,-4.0,-6.0,5.0,3.0,-1.0,0.0,1651094076708395.0,1
721,0.0,0.0,-2.0,-4.0,1.0,-2.0,-1.0,-1.0,1651094076708395.0,1
722,0.0,-2.0,0.0,-2.0,-21.0,-18.0,-1.0,0.0,1651094076723567.0,1
723,-1.0,-3.0,-2.0,-7.0,-3.0,23.0,0.0,1.0,1651094076723567.0,1
724,0.0,0.0,-3.0,9.0,-10.0,-3.0,2.0,1.0,1651094076724418.0,1
725,-1.0,-1.0,-2.0,3.0,9.0,3.0,1.0,1.0,1651094076724418.0,1
726,-1.0,0.0,0.0,2.0,-4.0,-5.0,-2.0,-2.0,1651094076745094.0,1
727,-1.0,1.0,-1.0,-1.0,-2.0,-9.0,1.0,0.0,1651094076745094.0,1
728,0.0,0.0,2.0,-1.0,11.0,7.0,1.0,0.0,1651094076747089.0,1
729,-1.0,-1.0,-3.0,-4.0,-16.0,-7.0,-3.0,0.0,1651094076747089.0,1
730,-1.0,1.0,1.0,-1.0,10.0,0.0,-1.0,0.0,1651094076759259.0,1
731,0.0,-2.0,-1.0,1.0,-33.0,10.0,-1.0,0.0,1651094076759259.0,1
732,-1.0,-1.0,-1.0,-2.0,3.0,4.0,-1.0,0.0,1651094076768715.0,1
733,0.0,-1.0,-7.0,-1.0,-7.0,-13.0,-1.0,-3.0,1651094076768715.0,1
734,2.0,0.0,3.0,-2.0,14.0,30.0,3.0,1.0,1651094076783824.0,1
735,-1.0,-1.0,0.0,-1.0,-11.0,-11.0,1.0,-1.0,1651094076783824.0,1
736,-1.0,0.0,1.0,-1.0,1.0,-3.0,-1.0,-1.0,1651094076784672.0,1
737,1.0,0.0,2.0,3.0,-9.0,-3.0,-1.0,0.0,1651094076784672.0,1
738,0.0,-1.0,-2.0,2.0,10.0,-5.0,-3.0,-1.0,1651094076806449.0,1
739,-1.0,-1.0,-3.0,-3.0,-16.0,-9.0,1.0,0.0,1651094076806449.0,1
740,-1.0,0.0,-2.0,-1.0,3.0,0.0,1.0,0.0,1651094076807329.0,1
741,0.0,1.0,2.0,-3.0,10.0,16.0,1.0,1.0,1651094076807329.0,1
742,1.0,-1.0,-1.0,3.0,-6.0,-6.0,-1.0,-1.0,1651094076819609.0,1
743,0.0,0.0,2.0,1.0,-4.0,-4.0,-1.0,1.0,1651094076819609.0,1
744,-1.0,-1.0,-1.0,0.0,9.0,-15.0,-4.0,-2.0,1651094076828434.0,1
745,0.0,0.0,1.0,-1.0,-20.0,-4.0,-2.0,-2.0,1651094076828434.0,1
746,-2.0,-2.0,-3.0,-3.0,7.0,10.0,0.0,-1.0,1651094076843752.0,1
747,-1.0,-3.0,-6.0,-6.0,6.0,-2.0,-2.0,-1.0,1651094076843752.0,1
748,1.0,0.0,0.0,1.0,-3.0,7.0,2.0,-1.0,1651094076844602.0,1
749,-1.0,-2.0,-4.0,0.0,4.0,-6.0,1.0,0.0,1651094076844602.0,1
750,-2.0,3.0,6.0,-1.0,-12.0,-20.0,-2.0,1.0,1651094076866203.0,1
751,-1.0,0.0,4.0,1.0,9.0,17.0,-1.0,-2.0,1651094076866203.0,1
752,2.0,-1.0,-2.0,1.0,-6.0,4.0,1.0,1.0,1651094076867056.0,1
753,0.0,-1.0,1.0,2.0,13.0,7.0,0.0,0.0,1651094076867056.0,1
754,-2.0,0.0,-3.0,-5.0,-10.0,-14.0,-1.0,-2.0,1651094076889357.0,1
755,0.0,2.0,7.0,-3.0,6.0,-12.0,-2.0,1.0,1651094076889357.0,1
756,0.0,-3.0,-4.0,3.0,-2.0,6.0,0.0,0.0,1651094076890208.0,1
757,-1.0,-2.0,-4.0,0.0,-11.0,-4.0,0.0,0.0,1651094076890208.0,1
758,-1.0,-1.0,-5.0,-4.0,-11.0,-7.0,-2.0,-3.0,1651094076902402.0,1
759,-1.0,-1.0,1.0,7.0,22.0,20.0,1.0,1.0,1651094076902402.0,1
760,-1.0,-2.0,2.0,-5.0,5.0,3.0,-1.0,-2.0,1651094076909666.0,1
761,0.0,0.0,0.0,-2.0,-3.0,-1.0,-1.0,-1.0,1651094076909666.0,1
762,0.0,1.0,-1.0,0.0,-25.0,4.0,0.0,-1.0,1651094076926106.0,1
763,0.0,0.0,-4.0,-6.0,5.0,-20.0,0.0,-1.0,1651094076926106.0,1
764,-1.0,-3.0,-4.0,2.0,4.0,1.0,-1.0,0.0,1651094076926956.0,1
765,-1.0,1.0,4.0,6.0,8.0,8.0,1.0,-1.0,1651094076926956.0,1
766,0.0,-1.0,3.0,-3.0,9.0,8.0,1.0,0.0,1651094076949233.0,1
767,0.0,-1.0,-6.0,-2.0,-14.0,-18.0,-2.0,1.0,1651094076949233.0,1
768,-1.0,1.0,-1.0,-3.0,10.0,12.0,0.0,-1.0,1651094076950232.0,1
769,-1.0,0.0,-3.0,-6.0,5.0,-18.0,-1.0,-1.0,1651094076950232.0,1
770,0.0,-2.0,0.0,7.0,-4.0,7.0,-1.0,1.0,1651094076963381.0,1
771,-1.0,0.0,-1.0,2.0,-41.0,-5.0,0.0,0.0,1651094076963381.0,1
772,-1.0,0.0,0.0,0.0,64.0,4.0,1.0,0.0,1651094076964379.0,1
773,1.0,1.0,0.0,-4.0,-7.0,-6.0,-2.0,1.0,1651094076964379.0,1
774,0.0,2.0,-3.0,0.0,10.0,25.0,0.0,0.0,1651094076985684.0,1
775,-2.0,-3.0,-4.0,-3.0,-16.0,-9.0,-1.0,-1.0,1651094076985684.0,1
776,-2.0,-5.0,-2.0,-5.0,-20.0,-5.0,-1.0,-1.0,1651094076986681.0,1
777,-1.0,0.0,-1.0,1.0,5.0,5.0,0.0,-1.0,1651094076986681.0,1
778,-1.0,-2.0,0.0,-3.0,-3.0,-42.0,-2.0,-1.0,1651094077008865.0,1
779,1.0,2.0,0.0,-1.0,6.0,28.0,-1.0,0.0,1651094077008865.0,1
780,0.0,2.0,-1.0,1.0,-15.0,-2.0,0.0,-1.0,1651094077009872.0,1
781,0.0,0.0,3.0,1.0,6.0,0.0,0.0,0.0,1651094077009872.0,1
782,0.0,0.0,-2.0,-3.0,-7.0,-8.0,0.0,-1.0,1651094077023156.0,1
783,-2.0,0.0,-2.0,0.0,11.0,-6.0,-1.0,-2.0,1651094077023156.0,1
784,-3.0,-2.0,-3.0,1.0,-10.0,-8.0,-2.0,-1.0,1651094077028870.0,1
785,-1.0,-4.0,-2.0,-7.0,6.0,1.0,0.0,-2.0,1651094077028870.0,1
786,-2.0,0.0,-3.0,1.0,0.0,6.0,0.0,0.0,1651094077045824.0,1
787,1.0,2.0,9.0,3.0,12.0,4.0,1.0,0.0,1651094077045824.0,1
788,1.0,0.0,-1.0,2.0,-3.0,-1.0,-1.0,0.0,1651094077046820.0,1
789,-1.0,0.0,-3.0,-3.0,-20.0,-4.0,-1.0,0.0,1651094077046820.0,1
790,0.0,-2.0,-4.0,-1.0,20.0,11.0,0.0,-1.0,1651094077067764.0,1
791,-1.0,0.0,-2.0,-1.0,0.0,-11.0,-1.0,-1.0,1651094077067764.0,1
792,1.0,1.0,2.0,-4.0,-12.0,-5.0,-2.0,-2.0,1651094077069759.0,1
793,0.0,-2.0,-1.0,2.0,-2.0,-4.0,-1.0,-1.0,1651094077069759.0,1
794,0.0,0.0,3.0,1.0,3.0,10.0,0.0,-2.0,1651094077082904.0,1
795,-1.0,0.0,-1.0,2.0,-7.0,-5.0,-2.0,-1.0,1651094077082904.0,1
796,0.0,3.0,4.0,0.0,-6.0,-7.0,-3.0,0.0,1651094077090171.0,1
797,-2.0,0.0,-7.0,-3.0,5.0,20.0,0.0,1.0,1651094077090171.0,1
798,0.0,-2.0,-1.0,0.0,3.0,-14.0,-1.0,0.0,1651094077105687.0,1
799,1.0,-2.0,-2.0,-2.0,4.0,5.0,0.0,-2.0,1651094077105687.0,1
800,-1.0,-1.0,-2.0,-7.0,-9.0,-2.0,1.0,1.0,1651094077107521.0,1
801,-2.0,1.0,1.0,8.0,2.0,-11.0,-2.0,0.0,1651094077107521.0,1
802,-2.0,2.0,8.0,1.0,-1.0,3.0,1.0,0.0,1651094077127829.0,1
803,0.0,-1.0,-4.0,0.0,7.0,-3.0,-1.0,0.0,1651094077127829.0,1
804,1.0,0.0,0.0,-1.0,-30.0,12.0,0.0,0.0,1651094077129664.0,1
805,-1.0,-1.0,2.0,-2.0,-5.0,-7.0,-1.0,-2.0,1651094077129664.0,1
806,1.0,1.0,1.0,4.0,11.0,8.0,1.0,0.0,1651094077142918.0,1
807,-2.0,-3.0,1.0,0.0,-9.0,21.0,2.0,-1.0,1651094077142918.0,1
808,-2.0,0.0,-3.0,-3.0,4.0,-7.0,-1.0,-2.0,1651094077149176.0,1
809,-1.0,-1.0,-3.0,-7.0,-34.0,-6.0,-1.0,0.0,1651094077149176.0,1
810,0.0,-2.0,1.0,6.0,41.0,12.0,1.0,0.0,1651094077165845.0,1
811,-1.0,0.0,0.0,-3.0,1.0,-7.0,1.0,1.0,1651094077165845.0,1
812,-2.0,-1.0,0.0,1.0,-6.0,-2.0,0.0,0.0,1651094077166714.0,1
813,0.0,-2.0,1.0,-4.0,5.0,-1.0,-1.0,-1.0,1651094077166714.0,1
814,0.0,0.0,0.0,-3.0,-22.0,7.0,1.0,-1.0,1651094077188906.0,1
815,1.0,1.0,1.0,0.0,-3.0,-3.0,-2.0,0.0,1651094077188906.0,1
816,1.0,1.0,2.0,3.0,13.0,-2.0,-2.0,0.0,1651094077190020.0,1
817,0.0,-2.0,1.0,3.0,4.0,2.0,1.0,0.0,1651094077190020.0,1
818,-3.0,-4.0,-6.0,-10.0,-5.0,-4.0,-1.0,-1.0,1651094077211412.0,1
819,-2.0,-3.0,-1.0,0.0,-3.0,-6.0,-1.0,1.0,1651094077211412.0,1
820,-2.0,-1.0,-2.0,2.0,9.0,5.0,-1.0,0.0,1651094077212315.0,1
821,2.0,0.0,1.0,-2.0,4.0,2.0,-1.0,-1.0,1651094077212315.0,1
822,-1.0,-1.0,-1.0,-3.0,0.0,12.0,-2.0,0.0,1651094077226279.0,1
823,0.0,-3.0,-5.0,0.0,5.0,-4.0,-2.0,-1.0,1651094077226279.0,1
824,-1.0,1.0,2.0,0.0,5.0,-11.0,-2.0,0.0,1651094077227278.0,1
825,-3.0,-1.0,-1.0,3.0,1.0,4.0,1.0,-1.0,1651094077227278.0,1
826,-1.0,-2.0,-3.0,-1.0,-4.0,-11.0,1.0,0.0,1651094077248845.0,1
827,0.0,1.0,1.0,-4.0,3.0,7.0,1.0,-2.0,1651094077248845.0,1
828,0.0,0.0,-1.0,3.0,0.0,-10.0,1.0,0.0,1651094077249464.0,1
829,0.0,0.0,2.0,-5.0,7.0,-5.0,0.0,0.0,1651094077249464.0,1
830,-2.0,1.0,-1.0,2.0,-20.0,-11.0,-2.0,-2.0,1651094077262028.0,1
831,-1.0,-2.0,-4.0,3.0,-23.0,4.0,0.0,0.0,1651094077262028.0,1
832,-1.0,1.0,5.0,0.0,12.0,0.0,1.0,0.0,1651094077269327.0,1
833,0.0,-1.0,-2.0,1.0,17.0,5.0,1.0,1.0,1651094077269327.0,1
834,0.0,1.0,1.0,-1.0,-3.0,-11.0,-2.0,-1.0,1651094077285479.0,1
835,0.0,0.0,-3.0,-3.0,0.0,-6.0,-1.0,0.0,1651094077285479.0,1
836,1.0,-2.0,-8.0,-6.0,-32.0,-2.0,-3.0,-2.0,1651094077287497.0,1
837,1.0,-2.0,-1.0,2.0,18.0,10.0,-2.0,0.0,1651094077287497.0,1
838,1.0,-2.0,-3.0,-6.0,-12.0,13.0,-3.0,1.0,1651094077308958.0,1
839,-2.0,-2.0,1.0,1.0,-17.0,-8.0,-7.0,-2.0,1651094077308958.0,1
840,0.0,1.0,0.0,-2.0,-4.0,2.0,6.0,-1.0,1651094077309611.0,1
841,-1.0,1.0,1.0,0.0,0.0,-7.0,0.0,0.0,1651094077309611.0,1
842,0.0,-3.0,0.0,1.0,2.0,-5.0,6.0,-1.0,1651094077322927.0,1
843,-1.0,-2.0,-3.0,1.0,15.0,3.0,-8.0,-1.0,1651094077322927.0,1
844,-3.0,-2.0,-6.0,-2.0,3.0,-6.0,-9.0,-2.0,1651094077328755.0,1
845,-1.0,2.0,11.0,1.0,-4.0,-12.0,-13.0,-3.0,1651094077328755.0,1
846,-1.0,3.0,1.0,0.0,1.0,10.0,23.0,0.0,1651094077346085.0,1
847,-1.0,0.0,-2.0,-4.0,-6.0,11.0,15.0,1.0,1651094077346085.0,1
848,-1.0,-3.0,-5.0,-14.0,-40.0,-5.0,1.0,1.0,1651094077347061.0,1
849,1.0,3.0,-7.0,15.0,60.0,15.0,-16.0,-2.0,1651094077347061.0,1
850,1.0,-1.0,-1.0,11.0,21.0,-1.0,-23.0,-5.0,1651094077368354.0,1
851,-2.0,-1.0,-1.0,-4.0,-21.0,-12.0,5.0,1.0,1651094077368354.0,1
852,0.0,-1.0,-2.0,3.0,40.0,9.0,23.0,2.0,1651094077369190.0,1
853,1.0,0.0,-1.0,-3.0,-14.0,3.0,3.0,0.0,1651094077369190.0,1
854,-3.0,-1.0,0.0,-6.0,-5.0,-12.0,-14.0,0.0,1651094077382367.0,1
855,-3.0,-2.0,-2.0,-6.0,-30.0,-12.0,10.0,-6.0,1651094077382367.0,1
856,0.0,2.0,6.0,12.0,58.0,12.0,-62.0,-6.0,1651094077390812.0,1
857,-3.0,-4.0,-3.0,-8.0,-18.0,-19.0,-14.0,-2.0,1651094077390812.0,1
858,2.0,-2.0,-6.0,7.0,-8.0,1.0,27.0,5.0,1651094077405935.0,1
859,2.0,2.0,5.0,-3.0,20.0,14.0,-11.0,1.0,1651094077405935.0,1
860,-3.0,0.0,0.0,0.0,-60.0,-14.0,52.0,-7.0,1651094077406771.0,1
861,0.0,2.0,3.0,2.0,6.0,14.0,-35.0,3.0,1651094077406771.0,1
862,2.0,1.0,-1.0,-6.0,6.0,21.0,44.0,14.0,1651094077427907.0,1
863,-3.0,-1.0,-2.0,-5.0,6.0,-23.0,4.0,-7.0,1651094077427907.0,1
864,5.0,3.0,1.0,10.0,3.0,19.0,-49.0,1.0,1651094077429892.0,1
865,-2.0,1.0,4.0,-2.0,-14.0,4.0,-51.0,-1.0,1651094077429892.0,1
866,-14.0,-5.0,-4.0,-1.0,-11.0,-23.0,-50.0,-16.0,1651094077442049.0,1
867,-18.0,-4.0,0.0,-1.0,1.0,8.0,76.0,-6.0,1651094077442049.0,1
868,0.0,-2.0,-4.0,-12.0,19.0,-49.0,-33.0,-2.0,1651094077450466.0,1
869,21.0,2.0,-6.0,-5.0,-24.0,3.0,56.0,25.0,1651094077450466.0,1
870,4.0,-3.0,-1.0,4.0,-13.0,-18.0,-107.0,-17.0,1651094077466424.0,1
871,-3.0,0.0,5.0,7.0,18.0,57.0,9.0,-32.0,1651094077466424.0,1
872,8.0,9.0,11.0,12.0,13.0,82.0,105.0,52.0,1651094077467263.0,1
873,5.0,-1.0,0.0,-14.0,-22.0,75.0,15.0,17.0,1651094077467263.0,1
874,14.0,2.0,-6.0,-6.0,10.0,-30.0,9.0,26.0,1651094077488589.0,1
875,-5.0,-8.0,-16.0,21.0,-3.0,-82.0,-117.0,-39.0,1651094077488589.0,0
876,5.0,1.0,4.0,-18.0,-23.0,53.0,14.0,2.0,1651094077489554.0,2
877,-28.0,-7.0,0.0,-4.0,-5.0,-24.0,24.0,-45.0,1651094077489554.0,2
878,-44.0,-4.0,-2.0,6.0,6.0,11.0,34.0,-33.0,1651094077502533.0,2
879,55.0,12.0,4.0,6.0,19.0,65.0,56.0,81.0,1651094077502533.0,2
880,-10.0,-2.0,-4.0,-4.0,-8.0,-59.0,-31.0,-50.0,1651094077510674.0,2
881,-15.0,-14.0,-10.0,-10.0,-7.0,-6.0,-15.0,-16.0,1651094077510674.0,2
882,10.0,2.0,2.0,15.0,-1.0,-20.0,-48.0,40.0,1651094077525625.0,2
883,36.0,13.0,3.0,-2.0,-11.0,-17.0,12.0,27.0,1651094077525625.0,2
884,-10.0,-4.0,-4.0,-11.0,-2.0,11.0,39.0,8.0,1651094077527499.0,2
885,-33.0,-2.0,0.0,10.0,11.0,-21.0,-24.0,-25.0,1651094077527499.0,2
886,7.0,-3.0,4.0,-3.0,-7.0,13.0,25.0,-39.0,1651094077548878.0,2
887,28.0,4.0,2.0,0.0,-4.0,21.0,0.0,77.0,1651094077548878.0,2
888,11.0,6.0,-1.0,-2.0,-15.0,-8.0,-23.0,-5.0,1651094077549593.0,2
889,-24.0,-14.0,5.0,-4.0,-6.0,-45.0,-13.0,-19.0,1651094077549593.0,2
890,-47.0,-5.0,-11.0,-10.0,-10.0,14.0,-33.0,-67.0,1651094077561974.0,2
891,75.0,19.0,1.0,-6.0,-3.0,-37.0,11.0,90.0,1651094077561974.0,2
892,10.0,-6.0,-5.0,-3.0,-6.0,4.0,-12.0,5.0,1651094077571354.0,2
893,-22.0,-8.0,-3.0,9.0,1.0,51.0,-22.0,-59.0,1651094077571354.0,2
894,-15.0,-3.0,7.0,-8.0,1.0,-86.0,52.0,-7.0,1651094077586511.0,2
895,-28.0,-4.0,-12.0,-8.0,-8.0,41.0,-11.0,-11.0,1651094077586511.0,2
896,-14.0,4.0,9.0,6.0,27.0,-15.0,-19.0,6.0,1651094077587348.0,2
897,28.0,13.0,6.0,8.0,-3.0,-5.0,2.0,20.0,1651094077587348.0,2
898,-18.0,-3.0,33.0,-16.0,-30.0,-10.0,15.0,-21.0,1651094077609512.0,2
899,-49.0,-12.0,-29.0,-11.0,13.0,97.0,-4.0,-49.0,1651094077609512.0,2
900,40.0,-10.0,-12.0,40.0,16.0,27.0,-3.0,61.0,1651094077610546.0,2
901,58.0,21.0,-13.0,-10.0,-9.0,-17.0,-35.0,76.0,1651094077610546.0,2
902,51.0,2.0,-6.0,-6.0,16.0,6.0,21.0,53.0,1651094077622632.0,2
903,-48.0,-5.0,34.0,1.0,-7.0,-42.0,-87.0,-61.0,1651094077622632.0,2
904,-21.0,-12.0,1.0,6.0,17.0,14.0,66.0,-19.0,1651094077631602.0,2
905,-11.0,17.0,-27.0,-5.0,-1.0,16.0,-15.0,-37.0,1651094077631602.0,2
906,-38.0,-2.0,3.0,0.0,-21.0,35.0,-17.0,-11.0,1651094077645630.0,2
907,3.0,-1.0,2.0,-13.0,2.0,-82.0,-8.0,-27.0,1651094077645630.0,2
908,29.0,7.0,3.0,-3.0,-23.0,-55.0,-54.0,11.0,1651094077646627.0,2
909,1.0,-16.0,-7.0,6.0,0.0,64.0,24.0,-13.0,1651094077646627.0,2
910,7.0,1.0,-7.0,1.0,7.0,-10.0,40.0,28.0,1651094077669092.0,2
911,-51.0,-3.0,17.0,19.0,18.0,7.0,51.0,-32.0,1651094077669092.0,2
912,-17.0,6.0,12.0,-9.0,-12.0,1.0,-58.0,-14.0,1651094077669967.0,2
913,-18.0,-15.0,-22.0,-7.0,-8.0,-31.0,25.0,-6.0,1651094077669967.0,2
914,-1.0,14.0,-28.0,-19.0,-8.0,82.0,-6.0,-28.0,1651094077682059.0,2
915,85.0,0.0,-6.0,-6.0,-6.0,-57.0,-104.0,78.0,1651094077682059.0,2
916,-18.0,6.0,-24.0,-1.0,1.0,0.0,88.0,-23.0,1651094077690385.0,2
917,12.0,0.0,37.0,14.0,-7.0,-56.0,34.0,44.0,1651094077690385.0,2
918,-9.0,4.0,63.0,8.0,7.0,-35.0,-31.0,-19.0,1651094077704593.0,2
919,-35.0,-8.0,-54.0,-5.0,-14.0,-29.0,-26.0,-30.0,1651094077704593.0,2
920,10.0,8.0,5.0,2.0,-3.0,71.0,-32.0,-1.0,1651094077711576.0,2
921,-16.0,-21.0,-3.0,-7.0,15.0,-32.0,14.0,-30.0,1651094077711576.0,2
922,8.0,9.0,-10.0,26.0,15.0,3.0,-38.0,18.0,1651094077727893.0,2
923,-9.0,1.0,27.0,-17.0,-1.0,15.0,95.0,6.0,1651094077727893.0,2
924,5.0,-12.0,-10.0,-6.0,6.0,76.0,-3.0,17.0,1651094077729730.0,2
925,6.0,10.0,7.0,11.0,7.0,-9.0,13.0,-15.0,1651094077729730.0,2
926,1.0,-22.0,-1.0,-1.0,-13.0,52.0,-15.0,-6.0,1651094077742501.0,2
927,-3.0,19.0,13.0,8.0,-5.0,70.0,41.0,24.0,1651094077742501.0,2
928,25.0,-22.0,-11.0,-4.0,-4.0,-16.0,24.0,7.0,1651094077751562.0,2
929,3.0,4.0,-61.0,-38.0,-17.0,-5.0,-4.0,14.0,1651094077751562.0,2
930,42.0,3.0,23.0,-12.0,-15.0,-15.0,6.0,23.0,1651094077766529.0,2
931,-49.0,-1.0,6.0,8.0,11.0,31.0,27.0,-57.0,1651094077766529.0,2
932,-10.0,12.0,21.0,-3.0,6.0,-29.0,-25.0,6.0,1651094077767392.0,2
933,11.0,4.0,-3.0,5.0,6.0,-9.0,-37.0,7.0,1651094077767392.0,2
934,-13.0,0.0,-22.0,11.0,-7.0,-39.0,-10.0,-35.0,1651094077796023.0,2
935,-45.0,2.0,27.0,22.0,-4.0,18.0,-35.0,-36.0,1651094077796023.0,2
936,66.0,1.0,-2.0,-39.0,-11.0,-83.0,-2.0,57.0,1651094077796970.0,2
937,-3.0,-7.0,2.0,16.0,-7.0,14.0,26.0,-7.0,1651094077796970.0,2
938,-3.0,0.0,-16.0,-8.0,-1.0,33.0,-38.0,4.0,1651094077811243.0,2
939,1.0,-15.0,-38.0,0.0,6.0,-43.0,58.0,-19.0,1651094077811243.0,2
940,-15.0,10.0,38.0,13.0,3.0,-16.0,-18.0,-24.0,1651094077812107.0,2
941,4.0,7.0,33.0,-13.0,-21.0,-1.0,-55.0,9.0,1651094077812107.0,2
942,1.0,-2.0,-6.0,-4.0,18.0,46.0,83.0,1.0,1651094077826398.0,2
943,27.0,-1.0,1.0,3.0,4.0,-16.0,-16.0,49.0,1651094077826398.0,2
944,-26.0,-9.0,-85.0,6.0,-18.0,12.0,-40.0,-31.0,1651094077827257.0,2
945,32.0,13.0,112.0,-1.0,21.0,25.0,46.0,19.0,1651094077827257.0,2
946,-95.0,-13.0,-34.0,-3.0,1.0,120.0,-33.0,-46.0,1651094077848661.0,2
947,65.0,1.0,-14.0,-17.0,-18.0,-81.0,11.0,48.0,1651094077848661.0,2
948,-21.0,-6.0,10.0,-6.0,22.0,50.0,35.0,-15.0,1651094077849533.0,2
949,9.0,17.0,-9.0,17.0,-2.0,-14.0,-53.0,-2.0,1651094077849533.0,2
950,30.0,-6.0,-19.0,3.0,3.0,-9.0,-12.0,21.0,1651094077870927.0,2
951,20.0,9.0,47.0,9.0,25.0,67.0,42.0,9.0,1651094077870927.0,2
952,-2.0,1.0,-18.0,-14.0,-1.0,-57.0,-7.0,11.0,1651094077871791.0,2
953,-21.0,-1.0,-15.0,-5.0,-8.0,12.0,15.0,-14.0,1651094077871791.0,2
954,-1.0,-10.0,22.0,23.0,-16.0,-83.0,-17.0,1.0,1651094077886889.0,2
955,-13.0,-6.0,-7.0,-27.0,16.0,30.0,-21.0,-10.0,1651094077886889.0,2
956,4.0,1.0,18.0,16.0,-7.0,5.0,-31.0,-2.0,1651094077887775.0,2
957,-8.0,-13.0,-30.0,-13.0,1.0,-6.0,32.0,20.0,1651094077887775.0,2
958,26.0,6.0,-1.0,-4.0,10.0,-21.0,67.0,41.0,1651094077908836.0,2
959,-3.0,1.0,5.0,20.0,-18.0,1.0,-59.0,-8.0,1651094077908836.0,2
960,-28.0,13.0,18.0,-7.0,-5.0,-47.0,13.0,-40.0,1651094077909731.0,2
961,-10.0,-45.0,-75.0,-8.0,9.0,30.0,-23.0,7.0,1651094077909731.0,2
962,4.0,20.0,60.0,-6.0,-12.0,12.0,-32.0,-19.0,1651094077930978.0,2
963,-42.0,-2.0,-29.0,2.0,-5.0,24.0,20.0,-58.0,1651094077930978.0,2
964,71.0,5.0,-1.0,1.0,14.0,15.0,5.0,78.0,1651094077931862.0,2
965,-10.0,-3.0,-11.0,7.0,0.0,8.0,30.0,5.0,1651094077931862.0,2
966,17.0,11.0,3.0,-10.0,12.0,65.0,25.0,4.0,1651094077945113.0,2
967,-21.0,-6.0,41.0,-3.0,-5.0,-19.0,-108.0,-49.0,1651094077945113.0,2
968,11.0,17.0,3.0,41.0,8.0,-34.0,28.0,-18.0,1651094077947106.0,2
969,-16.0,16.0,-26.0,-19.0,-18.0,-49.0,17.0,-5.0,1651094077947106.0,2
970,42.0,-23.0,-33.0,-6.0,5.0,19.0,26.0,43.0,1651094077968393.0,2
971,-58.0,-15.0,-14.0,-12.0,-3.0,-21.0,-13.0,-23.0,1651094077968393.0,2
972,26.0,-10.0,-5.0,-5.0,-15.0,80.0,31.0,1.0,1651094077969286.0,2
973,31.0,15.0,70.0,24.0,36.0,2.0,-29.0,17.0,1651094077969286.0,2
974,-20.0,-11.0,-48.0,-2.0,5.0,33.0,-1.0,-16.0,1651094077990657.0,2
975,7.0,-2.0,-6.0,-11.0,-13.0,-33.0,-17.0,16.0,1651094077990657.0,2
976,-47.0,-16.0,21.0,-5.0,-5.0,7.0,-16.0,-21.0,1651094077992546.0,2
977,-20.0,1.0,-21.0,1.0,6.0,-37.0,3.0,-28.0,1651094077992546.0,2
978,28.0,14.0,21.0,-3.0,1.0,43.0,16.0,35.0,1651094078005588.0,2
979,36.0,-11.0,-28.0,15.0,0.0,67.0,9.0,8.0,1651094078005588.0,2
980,-42.0,10.0,44.0,-6.0,27.0,-63.0,-20.0,-17.0,1651094078011439.0,2
981,15.0,3.0,-7.0,4.0,-9.0,97.0,16.0,17.0,1651094078011439.0,2
982,6.0,3.0,12.0,2.0,-8.0,-53.0,-27.0,-3.0,1651094078027691.0,2
983,4.0,1.0,-17.0,5.0,-11.0,-49.0,25.0,-23.0,1651094078027691.0,2
984,3.0,-3.0,-32.0,1.0,3.0,19.0,-45.0,31.0,1651094078029549.0,2
985,-31.0,-20.0,18.0,1.0,-9.0,78.0,14.0,-23.0,1651094078029549.0,2
986,8.0,-2.0,-39.0,-24.0,-5.0,-53.0,13.0,15.0,1651094078050925.0,2
987,26.0,14.0,73.0,2.0,28.0,87.0,15.0,18.0,1651094078050925.0,2
988,-30.0,-10.0,-5.0,-11.0,-38.0,-2.0,-23.0,-37.0,1651094078051806.0,2
989,5.0,3.0,-11.0,-1.0,2.0,-104.0,13.0,0.0,1651094078051806.0,2
990,-34.0,-7.0,-4.0,16.0,3.0,-36.0,-55.0,-28.0,1651094078065397.0,2
991,19.0,4.0,-17.0,-12.0,-6.0,24.0,4.0,27.0,1651094078065397.0,2
992,-9.0,9.0,2.0,9.0,1.0,-46.0,25.0,1.0,1651094078071250.0,2
993,14.0,-1.0,4.0,-15.0,-26.0,4.0,10.0,8.0,1651094078071250.0,2
994,35.0,6.0,2.0,5.0,-18.0,55.0,12.0,6.0,1651094078088842.0,2
995,-30.0,-14.0,-45.0,10.0,19.0,60.0,-41.0,-35.0,1651094078088842.0,2
996,-27.0,-4.0,44.0,-12.0,3.0,25.0,39.0,-20.0,1651094078090382.0,2
997,33.0,2.0,-68.0,-6.0,8.0,-112.0,28.0,37.0,1651094078090382.0,2
998,-20.0,7.0,44.0,-8.0,2.0,-1.0,-6.0,-2.0,1651094078110813.0,2
999,2.0,-14.0,1.0,-2.0,-21.0,-125.0,3.0,-33.0,1651094078110813.0,2
1000,20.0,17.0,-23.0,20.0,1.0,14.0,-36.0,67.0,1651094078112654.0,2
1001,-35.0,14.0,62.0,5.0,6.0,76.0,37.0,-36.0,1651094078112654.0,2
1002,6.0,-24.0,-74.0,-12.0,-8.0,-72.0,4.0,38.0,1651094078125008.0,2
1003,2.0,11.0,44.0,-4.0,-12.0,6.0,36.0,9.0,1651094078125008.0,2
1004,-2.0,1.0,-21.0,1.0,15.0,-31.0,-3.0,-29.0,1651094078132042.0,2
1005,4.0,-2.0,20.0,-1.0,-25.0,7.0,-70.0,-33.0,1651094078132042.0,2
1006,13.0,3.0,-11.0,-12.0,11.0,-26.0,39.0,39.0,1651094078148539.0,2
1007,-17.0,-10.0,-22.0,5.0,17.0,-100.0,8.0,-13.0,1651094078148539.0,2
1008,-14.0,-20.0,-50.0,-9.0,-1.0,8.0,15.0,-13.0,1651094078149186.0,2
1009,37.0,18.0,68.0,27.0,-6.0,18.0,-19.0,42.0,1651094078149186.0,2
1010,-30.0,-4.0,0.0,-2.0,-4.0,27.0,-17.0,-56.0,1651094078171697.0,2
1011,11.0,11.0,41.0,-9.0,0.0,-87.0,-27.0,40.0,1651094078171697.0,2
1012,18.0,-14.0,-27.0,-4.0,-7.0,-25.0,32.0,3.0,1651094078172416.0,2
1013,-59.0,-23.0,-70.0,-12.0,-8.0,-11.0,-27.0,-65.0,1651094078172416.0,2
1014,45.0,30.0,74.0,7.0,19.0,-84.0,14.0,85.0,1651094078183835.0,2
1015,24.0,15.0,13.0,0.0,-25.0,3.0,34.0,27.0,1651094078183835.0,2
1016,-11.0,-8.0,-72.0,-7.0,-38.0,41.0,-13.0,-24.0,1651094078193755.0,2
1017,-5.0,2.0,83.0,18.0,11.0,39.0,-16.0,-12.0,1651094078193755.0,2
1018,-21.0,-14.0,-40.0,-37.0,-13.0,20.0,3.0,-30.0,1651094078207916.0,2
1019,-59.0,8.0,1.0,19.0,11.0,93.0,-3.0,-22.0,1651094078207916.0,2
1020,44.0,-1.0,40.0,-8.0,-21.0,-85.0,-5.0,-7.0,1651094078215052.0,2
1021,7.0,0.0,-48.0,-15.0,7.0,-30.0,2.0,22.0,1651094078215052.0,2
1022,4.0,2.0,3.0,6.0,-19.0,-23.0,-11.0,-23.0,1651094078231021.0,2
1023,17.0,-15.0,-30.0,4.0,-11.0,-2.0,-2.0,14.0,1651094078231021.0,2
1024,-58.0,-1.0,19.0,4.0,19.0,-11.0,-47.0,-47.0,1651094078232022.0,2
1025,21.0,-1.0,-17.0,-5.0,13.0,-9.0,7.0,58.0,1651094078232022.0,2
1026,37.0,13.0,21.0,5.0,-12.0,-63.0,25.0,7.0,1651094078245206.0,2
1027,-3.0,-11.0,-11.0,-20.0,-12.0,0.0,-6.0,-23.0,1651094078245206.0,2
1028,-25.0,-14.0,-39.0,23.0,14.0,16.0,-6.0,-10.0,1651094078252248.0,2
1029,-12.0,24.0,71.0,15.0,9.0,18.0,46.0,-18.0,1651094078252248.0,2
1030,-3.0,-11.0,-45.0,-54.0,-14.0,35.0,-83.0,20.0,1651094078267537.0,2
1031,-24.0,-9.0,7.0,8.0,16.0,6.0,6.0,-28.0,1651094078267537.0,2
1032,36.0,9.0,39.0,-8.0,-10.0,30.0,3.0,1.0,1651094078275674.0,2
1033,9.0,-3.0,-28.0,23.0,6.0,-104.0,20.0,23.0,1651094078275674.0,2
1034,-13.0,-5.0,34.0,8.0,-11.0,6.0,10.0,-6.0,1651094078290830.0,2
1035,1.0,-11.0,-93.0,-13.0,2.0,116.0,9.0,-15.0,1651094078290830.0,2
1036,8.0,13.0,95.0,21.0,7.0,53.0,-18.0,26.0,1651094078291695.0,2
1037,-4.0,-6.0,-17.0,-41.0,3.0,11.0,-6.0,-11.0,1651094078291695.0,2
1038,-13.0,-11.0,-20.0,20.0,-18.0,-32.0,13.0,-14.0,1651094078303640.0,2
1039,-12.0,-1.0,-15.0,-2.0,17.0,-31.0,-72.0,-8.0,1651094078303640.0,2
1040,7.0,1.0,-17.0,-2.0,-1.0,-24.0,22.0,5.0,1651094078320983.0,2
1041,21.0,17.0,7.0,17.0,-3.0,11.0,39.0,18.0,1651094078320983.0,2
1042,-9.0,-9.0,3.0,9.0,-10.0,7.0,19.0,-23.0,1651094078335141.0,2
1043,-55.0,6.0,-42.0,-3.0,1.0,-10.0,3.0,3.0,1651094078335141.0,2
1044,60.0,6.0,69.0,-5.0,12.0,27.0,18.0,8.0,1651094078342260.0,2
1045,11.0,-27.0,-14.0,-13.0,-1.0,67.0,-46.0,8.0,1651094078342260.0,2
1046,-6.0,10.0,-34.0,15.0,26.0,25.0,42.0,-9.0,1651094078350430.0,2
1047,38.0,-37.0,-78.0,-6.0,-13.0,-97.0,0.0,35.0,1651094078350430.0,2
1048,-31.0,41.0,100.0,-25.0,-24.0,-25.0,23.0,-13.0,1651094078352427.0,2
1049,-41.0,3.0,75.0,38.0,14.0,76.0,-34.0,-28.0,1651094078352427.0,2
1050,20.0,16.0,-26.0,44.0,3.0,18.0,10.0,-9.0,1651094078364510.0,2
1051,19.0,37.0,22.0,-38.0,-1.0,34.0,20.0,18.0,1651094078364510.0,2
1052,-8.0,-53.0,24.0,21.0,2.0,-70.0,-5.0,14.0,1651094078373831.0,2
1053,25.0,-38.0,-83.0,-119.0,-9.0,-8.0,-4.0,35.0,1651094078373831.0,2
1054,-23.0,51.0,71.0,114.0,-15.0,16.0,-45.0,-28.0,1651094078389017.0,2
1055,7.0,-3.0,106.0,-13.0,-3.0,-12.0,10.0,-10.0,1651094078389017.0,2
1056,-10.0,9.0,-127.0,15.0,-1.0,-7.0,-12.0,-18.0,1651094078389660.0,2
1057,-16.0,29.0,127.0,2.0,-5.0,-48.0,-5.0,0.0,1651094078389660.0,2
1058,-1.0,-52.0,-128.0,-32.0,1.0,75.0,4.0,-1.0,1651094078411298.0,2
1059,9.0,11.0,13.0,-11.0,24.0,25.0,-19.0,-8.0,1651094078411298.0,2
1060,-7.0,8.0,-11.0,23.0,-13.0,15.0,1.0,11.0,1651094078411652.0,2
1061,25.0,-19.0,-128.0,23.0,-22.0,-16.0,20.0,32.0,1651094078411652.0,2
1062,-7.0,15.0,127.0,-11.0,22.0,-26.0,-5.0,-15.0,1651094078424950.0,2
1063,-18.0,-1.0,-44.0,-41.0,2.0,61.0,-7.0,-25.0,1651094078424950.0,2
1064,-88.0,-9.0,44.0,26.0,32.0,3.0,26.0,-31.0,1651094078432993.0,2
1065,76.0,16.0,-73.0,22.0,3.0,8.0,-9.0,19.0,1651094078432993.0,2
1066,28.0,-18.0,-33.0,-29.0,-14.0,-29.0,10.0,24.0,1651094078448980.0,2
1067,10.0,20.0,53.0,40.0,11.0,-7.0,6.0,14.0,1651094078448980.0,2
1068,-14.0,-21.0,-67.0,-46.0,-21.0,-99.0,-21.0,-11.0,1651094078449157.0,2
1069,-7.0,9.0,35.0,13.0,22.0,-8.0,10.0,12.0,1651094078449157.0,2
1070,-15.0,-11.0,57.0,-24.0,7.0,39.0,-19.0,0.0,1651094078470614.0,2
1071,9.0,-28.0,-64.0,77.0,-30.0,-74.0,5.0,3.0,1651094078470614.0,2
1072,6.0,-18.0,-69.0,-54.0,15.0,55.0,5.0,-14.0,1651094078477574.0,2
1073,-33.0,71.0,95.0,25.0,0.0,-69.0,-37.0,-42.0,1651094078477574.0,2
1074,4.0,-18.0,-10.0,-32.0,3.0,-35.0,54.0,21.0,1651094078484615.0,2
1075,16.0,30.0,-95.0,-3.0,-6.0,41.0,7.0,34.0,1651094078484615.0,2
1076,5.0,-24.0,-39.0,-12.0,9.0,-18.0,-31.0,-6.0,1651094078493733.0,2
1077,-2.0,-32.0,-49.0,-8.0,-2.0,86.0,43.0,7.0,1651094078493733.0,2
1078,-5.0,-3.0,-69.0,-20.0,-4.0,-62.0,-26.0,-21.0,1651094078508679.0,2
1079,-11.0,5.0,127.0,52.0,36.0,-9.0,15.0,-4.0,1651094078508679.0,2
1080,23.0,35.0,-33.0,-14.0,-6.0,67.0,4.0,19.0,1651094078509560.0,2
1081,-12.0,-8.0,67.0,23.0,-13.0,30.0,-18.0,-5.0,1651094078509560.0,2
1082,-21.0,7.0,41.0,-7.0,32.0,76.0,10.0,-22.0,1651094078530996.0,2
1083,-13.0,-26.0,-47.0,-52.0,-26.0,10.0,18.0,31.0,1651094078530996.0,2
1084,55.0,-6.0,-21.0,9.0,-17.0,-12.0,-14.0,-34.0,1651094078531856.0,2
1085,-23.0,-11.0,30.0,9.0,-1.0,14.0,-6.0,-20.0,1651094078531856.0,2
1086,-11.0,19.0,-43.0,5.0,-5.0,1.0,35.0,8.0,1651094078553485.0,2
1087,21.0,-2.0,-13.0,-12.0,5.0,-77.0,7.0,6.0,1651094078553485.0,2
1088,-19.0,-1.0,70.0,0.0,4.0,-30.0,8.0,22.0,1651094078555044.0,2
1089,25.0,-13.0,-109.0,20.0,-32.0,29.0,11.0,-2.0,1651094078555044.0,2
1090,-21.0,-11.0,59.0,-28.0,-1.0,-32.0,-38.0,-31.0,1651094078568331.0,2
1091,-2.0,-19.0,-69.0,-4.0,13.0,30.0,18.0,-3.0,1651094078568331.0,2
1092,8.0,26.0,97.0,47.0,18.0,-13.0,44.0,54.0,1651094078569182.0,2
1093,-11.0,-8.0,-99.0,-59.0,-27.0,-47.0,-28.0,-28.0,1651094078569182.0,2
1094,24.0,-7.0,-105.0,20.0,-2.0,17.0,-21.0,18.0,1651094078591530.0,2
1095,-3.0,-1.0,103.0,-22.0,-31.0,46.0,6.0,-12.0,1651094078591530.0,2
1096,-20.0,-18.0,10.0,23.0,18.0,35.0,6.0,-24.0,1651094078592333.0,2
1097,-48.0,3.0,31.0,27.0,71.0,51.0,54.0,-34.0,1651094078592333.0,2
1098,47.0,19.0,-60.0,-15.0,-26.0,76.0,-1.0,48.0,1651094078612610.0,2
1099,-13.0,-6.0,-50.0,-18.0,-26.0,2.0,-27.0,29.0,1651094078612610.0,2
1100,-1.0,-15.0,-46.0,-23.0,-5.0,-20.0,-26.0,-25.0,1651094078614605.0,2
1101,-42.0,5.0,56.0,13.0,36.0,-3.0,15.0,39.0,1651094078614605.0,2
1102,42.0,0.0,1.0,7.0,4.0,0.0,-1.0,-33.0,1651094078627898.0,2
1103,8.0,14.0,40.0,15.0,23.0,-35.0,-1.0,-4.0,1651094078627898.0,2
1104,-3.0,-2.0,-33.0,-25.0,-40.0,-22.0,-3.0,2.0,1651094078629743.0,2
1105,-36.0,-22.0,-99.0,-15.0,23.0,-16.0,-10.0,-8.0,1651094078629743.0,2
1106,-34.0,-19.0,-4.0,15.0,1.0,-5.0,9.0,0.0,1651094078658341.0,2
1107,10.0,26.0,99.0,36.0,-39.0,-50.0,-9.0,-17.0,1651094078658341.0,2
1108,-32.0,17.0,-62.0,-53.0,-6.0,-15.0,-6.0,-12.0,1651094078659238.0,2
1109,51.0,-36.0,-127.0,-18.0,12.0,-50.0,17.0,34.0,1651094078659238.0,2
1110,-10.0,35.0,127.0,109.0,34.0,-31.0,-38.0,-2.0,1651094078664225.0,2
1111,-5.0,-10.0,-106.0,-102.0,-8.0,30.0,34.0,-23.0,1651094078664225.0,2
1112,-28.0,-16.0,-88.0,-25.0,-25.0,52.0,4.0,-24.0,1651094078673492.0,2
1113,39.0,6.0,12.0,-5.0,7.0,-43.0,31.0,50.0,1651094078673492.0,2
1114,35.0,-3.0,-65.0,11.0,13.0,10.0,-17.0,23.0,1651094078687516.0,2
1115,-28.0,2.0,75.0,26.0,2.0,-93.0,-7.0,-22.0,1651094078687516.0,2
1116,18.0,8.0,36.0,38.0,14.0,13.0,-17.0,9.0,1651094078694497.0,2
1117,-5.0,8.0,11.0,-18.0,-38.0,-51.0,2.0,-26.0,1651094078694497.0,2
1118,-20.0,-8.0,-1.0,-23.0,12.0,-12.0,7.0,-7.0,1651094078717993.0,2
1119,20.0,3.0,29.0,26.0,8.0,5.0,-1.0,21.0,1651094078717993.0,2
1120,-1.0,7.0,-6.0,-20.0,-24.0,-19.0,-40.0,5.0,1651094078725135.0,2
1121,18.0,7.0,53.0,13.0,-12.0,-20.0,-6.0,-40.0,1651094078725135.0,2
1122,-20.0,-6.0,-7.0,-17.0,-3.0,51.0,34.0,5.0,1651094078725974.0,2
1123,-16.0,-6.0,-69.0,-5.0,34.0,24.0,-2.0,-22.0,1651094078725974.0,2
1124,31.0,-2.0,72.0,35.0,-14.0,0.0,-1.0,64.0,1651094078733119.0,2
1125,1.0,14.0,-50.0,-23.0,-27.0,1.0,1.0,-26.0,1651094078733119.0,2
1126,1.0,7.0,71.0,-9.0,-37.0,-4.0,8.0,26.0,1651094078749034.0,2
1127,-3.0,-12.0,-38.0,-8.0,12.0,58.0,-8.0,-9.0,1651094078749034.0,2
1128,-15.0,-6.0,-27.0,-1.0,23.0,3.0,-14.0,-25.0,1651094078750178.0,2
1129,-11.0,2.0,29.0,14.0,-25.0,0.0,-14.0,-1.0,1651094078750178.0,2
1130,-3.0,-17.0,-17.0,-38.0,11.0,-11.0,-9.0,-18.0,1651094078770752.0,2
1131,2.0,-6.0,-48.0,-9.0,3.0,18.0,5.0,3.0,1651094078770752.0,2
1132,24.0,1.0,4.0,16.0,-6.0,24.0,17.0,34.0,1651094078777891.0,2
1133,1.0,10.0,60.0,6.0,-15.0,-15.0,-17.0,-16.0,1651094078777891.0,2
1134,-67.0,4.0,-18.0,20.0,6.0,-57.0,-4.0,-18.0,1651094078793541.0,2
1135,59.0,19.0,19.0,9.0,-4.0,-1.0,-1.0,16.0,1651094078793541.0,2
1136,-26.0,-8.0,33.0,-6.0,21.0,12.0,-19.0,-40.0,1651094078794890.0,2
1137,3.0,-12.0,-33.0,4.0,29.0,38.0,-4.0,8.0,1651094078794890.0,2
1138,-27.0,8.0,22.0,-13.0,-24.0,-72.0,-28.0,-17.0,1651094078809016.0,2
1139,53.0,-9.0,-46.0,3.0,11.0,-56.0,58.0,38.0,1651094078809016.0,2
1140,16.0,6.0,20.0,0.0,-12.0,-30.0,8.0,7.0,1651094078810047.0,2
1141,-13.0,3.0,27.0,6.0,-5.0,-9.0,-10.0,0.0,1651094078810047.0,2
1142,2.0,-11.0,-26.0,-7.0,0.0,-24.0,-12.0,-15.0,1651094078831452.0,2
1143,-18.0,3.0,0.0,-5.0,4.0,80.0,-26.0,-6.0,1651094078831452.0,2
1144,1.0,5.0,1.0,3.0,30.0,4.0,26.0,-4.0,1651094078832368.0,2
1145,-6.0,-3.0,15.0,-10.0,-30.0,9.0,-37.0,-6.0,1651094078832368.0,2
1146,13.0,1.0,-24.0,1.0,-2.0,23.0,21.0,10.0,1651094078853849.0,2
1147,-12.0,-7.0,19.0,21.0,15.0,0.0,-10.0,0.0,1651094078853849.0,2
1148,-1.0,2.0,2.0,-2.0,-11.0,35.0,12.0,2.0,1651094078854849.0,2
1149,-1.0,9.0,-10.0,-4.0,-7.0,5.0,-16.0,-5.0,1651094078854849.0,2
1150,12.0,-2.0,-10.0,-1.0,4.0,16.0,-11.0,3.0,1651094078868271.0,2
1151,-18.0,-11.0,1.0,-12.0,-15.0,-13.0,-10.0,-6.0,1651094078868271.0,2
1152,2.0,-2.0,-19.0,-10.0,16.0,57.0,15.0,4.0,1651094078873897.0,2
1153,6.0,-4.0,-3.0,-4.0,4.0,20.0,11.0,7.0,1651094078873897.0,2
1154,10.0,6.0,19.0,8.0,23.0,42.0,12.0,6.0,1651094078892034.0,2
1155,-9.0,9.0,17.0,20.0,-11.0,-19.0,-11.0,-9.0,1651094078892034.0,2
1156,-1.0,2.0,-9.0,-2.0,-28.0,-18.0,-2.0,-4.0,1651094078893035.0,2
1157,2.0,4.0,6.0,4.0,17.0,8.0,4.0,1.0,1651094078893035.0,2
1158,2.0,-5.0,3.0,-2.0,-6.0,11.0,6.0,2.0,1651094078913136.0,2
1159,-9.0,-5.0,-5.0,-6.0,-8.0,0.0,-16.0,-6.0,1651094078913136.0,2
1160,5.0,-6.0,-23.0,3.0,6.0,-3.0,-2.0,0.0,1651094078914160.0,2
1161,1.0,6.0,39.0,2.0,-29.0,-4.0,1.0,2.0,1651094078914160.0,2
1162,3.0,-3.0,-14.0,-14.0,-6.0,-16.0,2.0,-3.0,1651094078927913.0,2
1163,-4.0,2.0,1.0,-1.0,-10.0,-17.0,-4.0,-2.0,1651094078927913.0,2
1164,1.0,3.0,6.0,9.0,68.0,5.0,7.0,2.0,1651094078934347.0,2
1165,-1.0,-7.0,-9.0,4.0,9.0,15.0,5.0,0.0,1651094078934347.0,2
1166,3.0,0.0,-2.0,4.0,34.0,-5.0,1.0,5.0,1651094078950239.0,2
1167,0.0,0.0,25.0,7.0,-12.0,2.0,-3.0,0.0,1651094078950239.0,2
1168,1.0,-12.0,-71.0,-8.0,-14.0,5.0,0.0,0.0,1651094078952191.0,2
1169,-2.0,9.0,73.0,-4.0,-3.0,-9.0,-6.0,-4.0,1651094078952191.0,2
1170,1.0,-4.0,-28.0,-10.0,-78.0,-6.0,1.0,-1.0,1651094078973491.0,2
1171,-4.0,4.0,18.0,9.0,97.0,15.0,3.0,1.0,1651094078973491.0,2
1172,-3.0,-1.0,5.0,-1.0,-39.0,-7.0,-2.0,-3.0,1651094078974338.0,2
1173,0.0,-9.0,-36.0,0.0,-25.0,-6.0,-1.0,-1.0,1651094078974338.0,2
1174,4.0,6.0,19.0,3.0,10.0,-9.0,3.0,2.0,1651094078988890.0,2
1175,-3.0,0.0,-2.0,-4.0,-49.0,7.0,-3.0,-4.0,1651094078988890.0,2
1176,-1.0,4.0,1.0,-8.0,-29.0,-4.0,-2.0,-1.0,1651094078995708.0,2
1177,-2.0,-13.0,-16.0,-5.0,2.0,5.0,-2.0,-2.0,1651094078995708.0,2
1178,1.0,-1.0,8.0,-2.0,13.0,1.0,2.0,2.0,1651094079011300.0,2
1179,-2.0,-1.0,-13.0,-2.0,14.0,10.0,-3.0,-1.0,1651094079011300.0,2
1180,1.0,5.0,22.0,5.0,24.0,4.0,-1.0,0.0,1651094079012296.0,2
1181,1.0,-1.0,0.0,7.0,9.0,-12.0,-1.0,0.0,1651094079012296.0,2
1182,-3.0,-4.0,-18.0,-7.0,-96.0,-9.0,-4.0,-4.0,1651094079033415.0,2
1183,-1.0,-6.0,5.0,-2.0,-25.0,-20.0,-5.0,-1.0,1651094079033415.0,2
1184,0.0,4.0,10.0,-14.0,-125.0,-18.0,-2.0,-3.0,1651094079034258.0,2
1185,2.0,6.0,-6.0,20.0,114.0,26.0,6.0,4.0,1651094079034258.0,2
1186,1.0,3.0,5.0,12.0,-11.0,17.0,3.0,1.0,1651094079046479.0,2
1187,-2.0,2.0,-3.0,-5.0,-85.0,-17.0,-1.0,0.0,1651094079046479.0,2
1188,-2.0,-6.0,-2.0,-11.0,13.0,23.0,-2.0,-3.0,1651094079055786.0,2
1189,-1.0,-1.0,-2.0,-11.0,-122.0,-4.0,-3.0,-2.0,1651094079055786.0,2
1190,1.0,2.0,6.0,2.0,75.0,5.0,3.0,1.0,1651094079070727.0,2
1191,-1.0,-2.0,0.0,-2.0,-74.0,-4.0,0.0,-1.0,1651094079070727.0,2
1192,0.0,3.0,2.0,5.0,127.0,-9.0,3.0,1.0,1651094079071584.0,2
1193,-2.0,-3.0,-16.0,-1.0,45.0,3.0,-1.0,0.0,1651094079071584.0,2
1194,-2.0,-2.0,15.0,-1.0,10.0,2.0,0.0,-1.0,1651094079093465.0,2
1195,-3.0,-2.0,-1.0,-6.0,-37.0,-3.0,-3.0,-2.0,1651094079093465.0,2
1196,-1.0,0.0,-5.0,2.0,50.0,-13.0,-1.0,1.0,1651094079094314.0,2
1197,3.0,2.0,-4.0,8.0,45.0,23.0,2.0,1.0,1651094079094314.0,2
1198,1.0,4.0,13.0,-3.0,-91.0,-24.0,1.0,-1.0,1651094079108628.0,2
1199,0.0,-4.0,-17.0,3.0,90.0,15.0,0.0,-1.0,1651094079108628.0,2
1200,-2.0,-1.0,13.0,-1.0,-13.0,-6.0,-1.0,-1.0,1651094079114599.0,2
1201,-2.0,-8.0,-15.0,-6.0,-22.0,3.0,-4.0,-3.0,1651094079114599.0,2
1202,-1.0,-3.0,4.0,-2.0,-40.0,-24.0,-4.0,-1.0,1651094079130982.0,2
1203,4.0,6.0,5.0,13.0,35.0,30.0,6.0,5.0,1651094079130982.0,2
1204,0.0,-13.0,9.0,3.0,-40.0,-3.0,2.0,1.0,1651094079136968.0,2
1205,-3.0,5.0,-8.0,-9.0,9.0,-17.0,-3.0,-2.0,1651094079136968.0,2
1206,-3.0,-5.0,-12.0,-14.0,-19.0,-7.0,-5.0,-2.0,1651094079153577.0,2
1207,-3.0,-1.0,-2.0,1.0,-1.0,-5.0,-3.0,-3.0,1651094079153577.0,2
1208,-2.0,0.0,6.0,6.0,-8.0,11.0,3.0,3.0,1651094079155010.0,2
1209,-1.0,-3.0,3.0,-2.0,-45.0,-12.0,-2.0,0.0,1651094079155010.0,2
1210,2.0,0.0,-1.0,2.0,58.0,13.0,1.0,1.0,1651094079168361.0,2
1211,1.0,-10.0,5.0,1.0,-27.0,-5.0,1.0,1.0,1651094079168361.0,2
1212,-1.0,11.0,-7.0,-1.0,7.0,-9.0,0.0,-1.0,1651094079174272.0,2
1213,-2.0,-1.0,18.0,-6.0,-32.0,-2.0,-2.0,0.0,1651094079174272.0,2
1214,-1.0,1.0,-14.0,0.0,31.0,29.0,2.0,1.0,1651094079191674.0,2
1215,-1.0,0.0,8.0,4.0,89.0,3.0,-1.0,0.0,1651094079191674.0,2
1216,1.0,-4.0,-14.0,-1.0,-47.0,-12.0,1.0,-1.0,1651094079192566.0,2
1217,0.0,1.0,-5.0,1.0,0.0,0.0,0.0,-1.0,1651094079192566.0,2
1218,0.0,-1.0,6.0,9.0,10.0,-9.0,-1.0,0.0,1651094079221071.0,2
1219,0.0,2.0,-3.0,-8.0,-75.0,-6.0,0.0,-1.0,1651094079221071.0,2
1220,2.0,1.0,-8.0,6.0,76.0,17.0,2.0,1.0,1651094079221965.0,2
1221,0.0,0.0,11.0,1.0,57.0,7.0,0.0,0.0,1651094079221965.0,2
1222,-1.0,-6.0,-2.0,-2.0,2.0,-7.0,2.0,-1.0,1651094079227950.0,2
1223,-3.0,1.0,-1.0,0.0,-32.0,-11.0,-3.0,0.0,1651094079227950.0,2
1224,-3.0,1.0,-5.0,-4.0,-36.0,-10.0,-1.0,-2.0,1651094079233933.0,2
1225,-1.0,1.0,4.0,-4.0,-34.0,-2.0,0.0,-2.0,1651094079233933.0,2
1226,-1.0,-2.0,-5.0,4.0,56.0,5.0,0.0,-2.0,1651094079250233.0,2
1227,-2.0,4.0,-2.0,-5.0,15.0,1.0,-2.0,-1.0,1651094079250233.0,2
1228,-1.0,-1.0,7.0,2.0,-20.0,-6.0,-1.0,0.0,1651094079252075.0,2
1229,-1.0,-4.0,-10.0,-3.0,-22.0,-4.0,-1.0,0.0,1651094079252075.0,2
1230,-2.0,1.0,-2.0,-3.0,24.0,-1.0,2.0,0.0,1651094079273523.0,2
1231,2.0,2.0,-3.0,-2.0,7.0,6.0,0.0,-2.0,1651094079273523.0,2
1232,-1.0,-2.0,3.0,0.0,-22.0,-2.0,-3.0,-2.0,1651094079274383.0,2
1233,0.0,0.0,-2.0,6.0,44.0,3.0,1.0,0.0,1651094079274383.0,2
1234,1.0,0.0,-3.0,-5.0,2.0,3.0,0.0,0.0,1651094079287647.0,2
1235,0.0,2.0,-3.0,-6.0,5.0,3.0,0.0,-1.0,1651094079287647.0,2
1236,0.0,1.0,4.0,0.0,-20.0,-9.0,-3.0,-2.0,1651094079295667.0,2
1237,1.0,-3.0,-8.0,-2.0,-3.0,-3.0,-3.0,-2.0,1651094079295667.0,2
1238,-3.0,5.0,10.0,2.0,11.0,2.0,0.0,-1.0,1651094079309840.0,2
1239,-1.0,-2.0,-7.0,1.0,-16.0,-15.0,-2.0,1.0,1651094079309840.0,2
1240,-2.0,-2.0,3.0,-5.0,-38.0,25.0,1.0,1.0,1651094079316926.0,2
1241,0.0,1.0,-2.0,2.0,-20.0,-7.0,0.0,0.0,1651094079316926.0,2
1242,1.0,-4.0,-2.0,3.0,30.0,13.0,-2.0,-1.0,1651094079333633.0,2
1243,0.0,2.0,1.0,3.0,-6.0,-12.0,-1.0,0.0,1651094079333633.0,2
1244,0.0,0.0,3.0,-2.0,4.0,-4.0,-1.0,0.0,1651094079334946.0,2
1245,-3.0,0.0,3.0,-6.0,-30.0,-5.0,1.0,-1.0,1651094079334946.0,2
1246,-1.0,-1.0,-5.0,2.0,-14.0,1.0,-2.0,-2.0,1651094079346993.0,2
1247,0.0,-1.0,-1.0,-11.0,-31.0,2.0,-1.0,1.0,1651094079346993.0,2
1248,0.0,-2.0,-4.0,-2.0,9.0,-6.0,-2.0,-1.0,1651094079355857.0,2
1249,0.0,-2.0,-9.0,-5.0,24.0,-7.0,0.0,0.0,1651094079355857.0,2
1250,0.0,2.0,0.0,1.0,-21.0,-5.0,-3.0,-1.0,1651094079371248.0,2
1251,-1.0,-1.0,2.0,4.0,-3.0,1.0,-1.0,0.0,1651094079371248.0,2
1252,-1.0,-1.0,2.0,4.0,4.0,-7.0,1.0,1.0,1651094079371882.0,2
1253,-2.0,-2.0,-6.0,-5.0,-8.0,15.0,0.0,0.0,1651094079371882.0,2
1254,-1.0,3.0,7.0,-3.0,-13.0,-3.0,2.0,-1.0,1651094079393830.0,2
1255,1.0,3.0,5.0,8.0,16.0,0.0,2.0,-1.0,1651094079393830.0,2
1256,-2.0,0.0,-2.0,0.0,-11.0,6.0,-1.0,0.0,1651094079394993.0,2
1257,-1.0,-2.0,-3.0,1.0,-17.0,-8.0,-1.0,-2.0,1651094079394993.0,2
1258,2.0,0.0,-9.0,-5.0,37.0,12.0,3.0,1.0,1651094079407665.0,2
1259,-1.0,2.0,12.0,-1.0,-1.0,22.0,0.0,0.0,1651094079407665.0,2
1260,-1.0,-1.0,-6.0,-4.0,7.0,-8.0,-2.0,-3.0,1651094079415801.0,2
1261,1.0,-1.0,-1.0,2.0,20.0,-3.0,1.0,2.0,1651094079415801.0,2
1262,-2.0,-5.0,-2.0,-1.0,-42.0,-9.0,-2.0,0.0,1651094079431427.0,2
1263,-1.0,-1.0,1.0,0.0,26.0,-7.0,-1.0,-2.0,1651094079431427.0,2
1264,2.0,2.0,6.0,3.0,26.0,-1.0,0.0,0.0,1651094079431828.0,2
1265,0.0,-6.0,-13.0,-8.0,-6.0,0.0,-4.0,-2.0,1651094079431828.0,2
1266,1.0,3.0,9.0,2.0,-29.0,7.0,2.0,0.0,1651094079453742.0,2
1267,-1.0,-6.0,-13.0,1.0,-1.0,5.0,1.0,-1.0,1651094079453742.0,2
1268,-1.0,2.0,8.0,-1.0,8.0,0.0,-1.0,0.0,1651094079454123.0,2
1269,-2.0,-2.0,2.0,0.0,-5.0,-9.0,-2.0,0.0,1651094079454123.0,2
1270,-1.0,0.0,-2.0,-2.0,8.0,-9.0,-1.0,-1.0,1651094079467071.0,2
1271,-1.0,3.0,0.0,0.0,-46.0,-2.0,-1.0,-2.0,1651094079467071.0,2
1272,0.0,-3.0,-9.0,-4.0,8.0,11.0,-1.0,-1.0,1651094079476236.0,2
1273,-2.0,-1.0,2.0,4.0,-3.0,-10.0,0.0,-1.0,1651094079476236.0,2
1274,-2.0,-3.0,-4.0,-4.0,12.0,3.0,-1.0,0.0,1651094079491561.0,2
1275,-2.0,-2.0,4.0,4.0,24.0,-3.0,-1.0,0.0,1651094079491561.0,2
1276,-1.0,-2.0,-14.0,-5.0,-3.0,-6.0,-2.0,-2.0,1651094079492447.0,2
1277,1.0,7.0,13.0,-1.0,-4.0,-11.0,1.0,0.0,1651094079492447.0,2
1278,-1.0,-1.0,2.0,0.0,-3.0,13.0,0.0,-1.0,1651094079513865.0,2
1279,1.0,-2.0,-6.0,-9.0,-18.0,9.0,-2.0,-1.0,1651094079513865.0,2
1280,-2.0,-1.0,0.0,5.0,5.0,1.0,-1.0,0.0,1651094079514728.0,2
1281,-1.0,0.0,1.0,1.0,-32.0,23.0,-1.0,-1.0,1651094079514728.0,2
1282,-1.0,-3.0,-2.0,9.0,58.0,-11.0,-1.0,0.0,1651094079527166.0,2
1283,-1.0,-1.0,-5.0,-9.0,-30.0,-5.0,0.0,-1.0,1651094079527166.0,2
1284,0.0,0.0,0.0,-1.0,6.0,-11.0,0.0,0.0,1651094079535993.0,2
1285,-1.0,-2.0,-3.0,-2.0,-9.0,11.0,0.0,0.0,1651094079535993.0,2
1286,0.0,0.0,2.0,-1.0,-2.0,-8.0,-1.0,-1.0,1651094079550690.0,2
1287,-1.0,1.0,2.0,3.0,-16.0,2.0,-1.0,0.0,1651094079550690.0,2
1288,0.0,0.0,-2.0,0.0,1.0,-5.0,-1.0,0.0,1651094079552687.0,2
1289,1.0,-14.0,-18.0,-2.0,-9.0,-3.0,0.0,-1.0,1651094079552687.0,2
1290,-1.0,12.0,22.0,-3.0,-20.0,-3.0,-2.0,1.0,1651094079573615.0,2
1291,0.0,2.0,-2.0,2.0,38.0,-1.0,-1.0,-1.0,1651094079573615.0,2
1292,0.0,0.0,-1.0,-4.0,-40.0,-7.0,0.0,0.0,1651094079574851.0,2
1293,-1.0,-5.0,-10.0,3.0,22.0,-4.0,-2.0,0.0,1651094079574851.0,2
1294,0.0,-3.0,-5.0,-2.0,19.0,-3.0,0.0,0.0,1651094079586921.0,2
1295,0.0,-1.0,1.0,-2.0,15.0,10.0,0.0,0.0,1651094079586921.0,2
1296,-1.0,-1.0,3.0,4.0,5.0,7.0,0.0,-1.0,1651094079596239.0,2
1297,0.0,4.0,7.0,3.0,16.0,13.0,1.0,0.0,1651094079596239.0,2
1298,-1.0,-4.0,-13.0,-4.0,-49.0,-8.0,-3.0,-2.0,1651094079611280.0,2
1299,0.0,-2.0,-4.0,-2.0,58.0,-7.0,-1.0,1.0,1651094079611280.0,2
1300,1.0,1.0,10.0,-1.0,2.0,1.0,3.0,-1.0,1651094079612278.0,2
1301,0.0,3.0,1.0,-3.0,-21.0,-18.0,-1.0,-1.0,1651094079612278.0,2
1302,-2.0,1.0,-1.0,6.0,57.0,10.0,-1.0,-1.0,1651094079633704.0,2
1303,1.0,-2.0,-1.0,-1.0,-47.0,-5.0,-1.0,1.0,1651094079633704.0,2
1304,-2.0,-3.0,-3.0,0.0,36.0,5.0,-1.0,0.0,1651094079634563.0,2
1305,-1.0,5.0,5.0,1.0,1.0,-12.0,-1.0,0.0,1651094079634563.0,2
1306,1.0,-6.0,-4.0,1.0,-17.0,26.0,1.0,-1.0,1651094079646968.0,2
1307,-2.0,-2.0,-4.0,-9.0,6.0,-3.0,0.0,-1.0,1651094079646968.0,2
1308,-2.0,-2.0,-2.0,2.0,2.0,-4.0,-1.0,-1.0,1651094079655928.0,2
1309,-1.0,0.0,5.0,-1.0,-6.0,1.0,-2.0,-1.0,1651094079655928.0,2
1310,1.0,-1.0,-11.0,-2.0,-26.0,-26.0,-2.0,2.0,1651094079671203.0,2
1311,1.0,-1.0,7.0,4.0,14.0,-3.0,1.0,0.0,1651094079671203.0,2
1312,0.0,1.0,-1.0,-1.0,2.0,31.0,3.0,1.0,1651094079671955.0,2
1313,-1.0,0.0,-2.0,-4.0,-2.0,3.0,0.0,-2.0,1651094079671955.0,2
1314,-1.0,-2.0,-1.0,3.0,17.0,-6.0,0.0,0.0,1651094079694186.0,2
1315,-1.0,-1.0,3.0,5.0,7.0,-2.0,-1.0,0.0,1651094079694186.0,2
1316,-1.0,-4.0,-9.0,-5.0,-13.0,-15.0,-2.0,0.0,1651094079695187.0,2
1317,-1.0,6.0,0.0,2.0,4.0,9.0,2.0,-1.0,1651094079695187.0,2
1318,0.0,4.0,4.0,-6.0,-35.0,2.0,0.0,-1.0,1651094079716443.0,2
1319,-1.0,-2.0,-2.0,2.0,21.0,-5.0,0.0,0.0,1651094079716443.0,2
1320,-2.0,0.0,-1.0,0.0,-11.0,-8.0,-2.0,-2.0,1651094079717338.0,2
1321,1.0,-1.0,-2.0,8.0,76.0,8.0,3.0,1.0,1651094079717338.0,2
1322,0.0,-2.0,0.0,-4.0,-27.0,-3.0,-1.0,-2.0,1651094079731599.0,2
1323,0.0,-2.0,-10.0,-1.0,-4.0,9.0,-1.0,1.0,1651094079731599.0,2
1324,1.0,4.0,18.0,0.0,-23.0,-11.0,-1.0,0.0,1651094079732349.0,2
1325,-2.0,-3.0,-4.0,-6.0,5.0,-6.0,-1.0,-1.0,1651094079732349.0,2
1326,-1.0,-2.0,0.0,-1.0,11.0,4.0,1.0,-1.0,1651094079752749.0,2
1327,0.0,0.0,1.0,1.0,4.0,-2.0,0.0,0.0,1651094079752749.0,2
1328,1.0,-2.0,-5.0,-1.0,-11.0,-8.0,-2.0,0.0,1651094079754775.0,2
1329,-2.0,4.0,4.0,0.0,6.0,19.0,0.0,0.0,1651094079754775.0,2
1330,-1.0,-4.0,-3.0,1.0,1.0,-5.0,0.0,0.0,1651094079776075.0,2
1331,-3.0,-5.0,-6.0,-2.0,-18.0,-6.0,-2.0,-2.0,1651094079776075.0,2
1332,-1.0,-2.0,-1.0,-9.0,23.0,-1.0,1.0,-2.0,1651094079777036.0,2
1333,-1.0,0.0,5.0,2.0,-1.0,-7.0,1.0,1.0,1651094079777036.0,2
1334,-2.0,1.0,-2.0,3.0,-15.0,-5.0,0.0,-1.0,1651094079791332.0,2
1335,0.0,3.0,5.0,0.0,-1.0,-2.0,0.0,-1.0,1651094079791332.0,2
1336,-1.0,-1.0,-2.0,-1.0,0.0,-5.0,0.0,1.0,1651094079792193.0,2
1337,-2.0,-5.0,-11.0,0.0,-1.0,18.0,-2.0,0.0,1651094079792193.0,2
1338,-1.0,-1.0,0.0,-7.0,3.0,-11.0,-2.0,-2.0,1651094079813582.0,2
1339,-1.0,1.0,3.0,2.0,-7.0,-5.0,0.0,-1.0,1651094079813582.0,2
1340,0.0,1.0,1.0,5.0,-5.0,3.0,-1.0,1.0,1651094079814446.0,2
1341,2.0,0.0,13.0,-3.0,-3.0,-13.0,1.0,0.0,1651094079814446.0,2
1342,-1.0,0.0,-2.0,-4.0,-6.0,2.0,-1.0,1.0,1651094079835497.0,2
1343,0.0,2.0,-2.0,8.0,73.0,11.0,2.0,-1.0,1651094079835497.0,2
1344,-2.0,-7.0,-14.0,0.0,-11.0,12.0,0.0,0.0,1651094079837406.0,2
1345,-2.0,0.0,9.0,-3.0,-39.0,-6.0,-3.0,-3.0,1651094079837406.0,2
1346,-1.0,2.0,-3.0,-3.0,-16.0,-2.0,-1.0,-1.0,1651094079850729.0,2
1347,-1.0,-2.0,2.0,-7.0,-36.0,-2.0,0.0,0.0,1651094079850729.0,2
1348,-1.0,-2.0,-3.0,-2.0,13.0,-3.0,-1.0,1.0,1651094079857691.0,2
1349,-2.0,-3.0,-7.0,-2.0,-40.0,-11.0,-2.0,1.0,1651094079857691.0,2
1350,0.0,2.0,6.0,11.0,81.0,18.0,0.0,-1.0,1651094079873701.0,2
1351,1.0,-3.0,-2.0,-6.0,-33.0,-12.0,-2.0,-1.0,1651094079873701.0,2
1352,0.0,0.0,-2.0,0.0,-6.0,0.0,-1.0,-3.0,1651094079874701.0,2
1353,0.0,-2.0,-1.0,0.0,5.0,-8.0,-2.0,0.0,1651094079874701.0,2
1354,0.0,-3.0,-2.0,-6.0,-39.0,-8.0,-2.0,-1.0,1651094079896043.0,2
1355,-1.0,1.0,-5.0,0.0,36.0,13.0,2.0,-1.0,1651094079896043.0,2
1356,1.0,2.0,7.0,6.0,7.0,-7.0,1.0,1.0,1651094079897002.0,2
1357,-1.0,1.0,-1.0,-3.0,1.0,7.0,0.0,-1.0,1651094079897002.0,2
1358,-1.0,-2.0,-5.0,2.0,-28.0,-3.0,1.0,1.0,1651094079910289.0,2
1359,-2.0,-1.0,3.0,-11.0,-38.0,-6.0,-2.0,-1.0,1651094079910289.0,2
1360,0.0,0.0,-5.0,-4.0,-51.0,-16.0,-1.0,-2.0,1651094079916427.0,2
1361,-1.0,-4.0,-8.0,1.0,27.0,-9.0,-2.0,-1.0,1651094079916427.0,2
1362,0.0,-3.0,1.0,5.0,81.0,9.0,4.0,2.0,1651094079940975.0,2
1363,0.0,1.0,5.0,3.0,-28.0,-3.0,0.0,-1.0,1651094079940975.0,2
1364,-1.0,-2.0,-6.0,-5.0,11.0,0.0,-2.0,-2.0,1651094079941825.0,2
1365,0.0,1.0,0.0,-6.0,-42.0,-6.0,-1.0,-1.0,1651094079941825.0,2
1366,-1.0,-1.0,1.0,3.0,4.0,-1.0,-1.0,-1.0,1651094079956094.0,2
1367,0.0,-1.0,-5.0,8.0,6.0,-1.0,0.0,-1.0,1651094079956094.0,2
1368,1.0,3.0,11.0,6.0,10.0,8.0,-1.0,-1.0,1651094079956958.0,2
1369,-2.0,-1.0,-6.0,-11.0,10.0,2.0,-1.0,-2.0,1651094079956958.0,2
1370,-3.0,-7.0,-14.0,-12.0,-89.0,-13.0,-2.0,-3.0,1651094079970254.0,2
1371,-2.0,3.0,10.0,4.0,-12.0,5.0,-1.0,-3.0,1651094079970254.0,2
1372,1.0,-3.0,-6.0,0.0,9.0,5.0,1.0,0.0,1651094079977236.0,2
1373,-1.0,1.0,1.0,3.0,23.0,-15.0,-1.0,-1.0,1651094079977236.0,2
1374,-1.0,-2.0,0.0,-6.0,6.0,9.0,-2.0,-3.0,1651094080000651.0,2
1375,-1.0,-3.0,-2.0,2.0,-56.0,0.0,0.0,0.0,1651094080000651.0,2
1376,0.0,1.0,4.0,3.0,6.0,6.0,-1.0,-1.0,1651094080001685.0,2
1377,0.0,2.0,-1.0,-2.0,12.0,0.0,1.0,-1.0,1651094080001685.0,2
1378,1.0,0.0,-1.0,-3.0,-51.0,-7.0,-3.0,-1.0,1651094080015772.0,2
1379,-1.0,-4.0,-8.0,-3.0,13.0,-3.0,-2.0,-1.0,1651094080015772.0,2
1380,0.0,3.0,8.0,2.0,63.0,2.0,2.0,1.0,1651094080016610.0,2
1381,1.0,2.0,0.0,3.0,-62.0,6.0,1.0,0.0,1651094080016610.0,2
1382,0.0,-1.0,1.0,10.0,54.0,2.0,0.0,1.0,1651094080030622.0,2
1383,-2.0,-2.0,-3.0,-7.0,6.0,-4.0,-1.0,-2.0,1651094080030622.0,2
1384,-3.0,-4.0,-6.0,-4.0,-52.0,2.0,-2.0,0.0,1651094080036706.0,2
1385,0.0,-4.0,-1.0,0.0,22.0,-1.0,-2.0,0.0,1651094080036706.0,2
1386,-1.0,3.0,6.0,0.0,8.0,2.0,0.0,0.0,1651094080053759.0,2
1387,0.0,2.0,-2.0,-3.0,8.0,9.0,-1.0,0.0,1651094080053759.0,2
1388,-2.0,-2.0,-2.0,0.0,15.0,-5.0,-1.0,-3.0,1651094080054943.0,2
1389,-2.0,-3.0,-2.0,-4.0,25.0,-5.0,0.0,-1.0,1651094080054943.0,2
1390,0.0,-2.0,-2.0,1.0,48.0,-1.0,2.0,-2.0,1651094080075334.0,2
1391,-1.0,-2.0,-14.0,-1.0,5.0,19.0,1.0,0.0,1651094080075334.0,2
1392,-1.0,2.0,14.0,-4.0,-49.0,-8.0,0.0,0.0,1651094080077172.0,2
1393,1.0,1.0,2.0,6.0,-6.0,6.0,-1.0,-1.0,1651094080077172.0,2
1394,-2.0,1.0,3.0,3.0,-20.0,-6.0,0.0,1.0,1651094080089622.0,2
1395,0.0,-2.0,-2.0,-1.0,7.0,-10.0,-1.0,0.0,1651094080089622.0,2
1396,-1.0,-2.0,-1.0,-3.0,9.0,0.0,-2.0,-1.0,1651094080097624.0,2
1397,0.0,-2.0,-5.0,0.0,-22.0,4.0,1.0,0.0,1651094080097624.0,2
1398,0.0,-3.0,-7.0,-10.0,19.0,-3.0,-1.0,-1.0,1651094080113773.0,2
1399,0.0,5.0,10.0,6.0,34.0,-3.0,0.0,1.0,1651094080113773.0,2
1400,-1.0,-2.0,-4.0,-3.0,-54.0,1.0,-2.0,-1.0,1651094080114616.0,2
1401,-1.0,-3.0,1.0,-5.0,-1.0,-14.0,-2.0,-3.0,1651094080114616.0,2
1402,1.0,0.0,2.0,8.0,38.0,16.0,3.0,-1.0,1651094080135809.0,2
1403,0.0,-2.0,-1.0,-4.0,-17.0,-7.0,-1.0,0.0,1651094080135809.0,2
1404,-1.0,0.0,-3.0,-1.0,44.0,-1.0,1.0,-1.0,1651094080136718.0,2
1405,0.0,-2.0,-2.0,-5.0,-82.0,-9.0,-2.0,-2.0,1651094080136718.0,2
1406,-1.0,2.0,0.0,-2.0,16.0,4.0,-1.0,-1.0,1651094080150794.0,2
1407,0.0,0.0,4.0,0.0,-17.0,-5.0,-2.0,0.0,1651094080150794.0,2
1408,-1.0,0.0,-4.0,-2.0,2.0,0.0,0.0,-2.0,1651094080157773.0,2
1409,0.0,0.0,6.0,7.0,26.0,4.0,2.0,1.0,1651094080157773.0,2
1410,0.0,-1.0,-2.0,-8.0,-24.0,-3.0,-2.0,-1.0,1651094080173860.0,2
1411,0.0,-1.0,-1.0,-4.0,-3.0,1.0,1.0,-1.0,1651094080173860.0,2
1412,0.0,0.0,-3.0,5.0,55.0,7.0,0.0,2.0,1651094080174896.0,2
1413,0.0,-2.0,-7.0,-5.0,-14.0,0.0,-2.0,-1.0,1651094080174896.0,2
1414,-1.0,6.0,18.0,8.0,2.0,3.0,-1.0,0.0,1651094080195130.0,2
1415,-2.0,1.0,-1.0,0.0,15.0,-8.0,-2.0,1.0,1651094080195130.0,2
1416,0.0,-6.0,-9.0,-6.0,-66.0,-2.0,-1.0,-1.0,1651094080197125.0,2
1417,-4.0,-3.0,-8.0,-2.0,-3.0,-1.0,-1.0,-1.0,1651094080197125.0,2
1418,-1.0,-3.0,-5.0,-4.0,-3.0,-5.0,-1.0,-1.0,1651094080218504.0,2
1419,1.0,-6.0,-5.0,-3.0,-45.0,0.0,2.0,0.0,1651094080218504.0,2
1420,1.0,4.0,12.0,-9.0,50.0,-1.0,1.0,1.0,1651094080219304.0,2
1421,-2.0,1.0,1.0,5.0,-5.0,2.0,-4.0,0.0,1651094080219304.0,2
1422,0.0,0.0,-5.0,4.0,43.0,-5.0,-4.0,-2.0,1651094080233607.0,2
1423,0.0,4.0,8.0,6.0,52.0,5.0,1.0,0.0,1651094080233607.0,2
1424,0.0,-3.0,-2.0,10.0,59.0,3.0,1.0,0.0,1651094080234480.0,2
1425,-1.0,-4.0,-1.0,-10.0,13.0,-3.0,0.0,1.0,1651094080234480.0,2
1426,-1.0,-4.0,-4.0,-14.0,-89.0,-9.0,-1.0,-2.0,1651094080254810.0,2
1427,0.0,1.0,-4.0,3.0,39.0,1.0,-4.0,-1.0,1651094080254810.0,2
1428,0.0,2.0,0.0,-2.0,-87.0,-5.0,0.0,-2.0,1651094080263946.0,2
1429,1.0,1.0,-3.0,0.0,9.0,2.0,0.0,-2.0,1651094080263946.0,2
1430,2.0,0.0,0.0,0.0,1.0,3.0,2.0,-1.0,1651094080270184.0,2
1431,-2.0,-5.0,-11.0,5.0,-41.0,-8.0,-1.0,-2.0,1651094080270184.0,2
1432,-3.0,2.0,10.0,-2.0,-8.0,-5.0,-3.0,-4.0,1651094080278166.0,2
1433,-2.0,-4.0,-3.0,7.0,-18.0,5.0,1.0,1.0,1651094080278166.0,2
1434,-2.0,-2.0,-10.0,-11.0,-9.0,2.0,0.0,1.0,1651094080293519.0,2
1435,-1.0,1.0,-3.0,-7.0,60.0,4.0,2.0,1.0,1651094080293519.0,2
1436,-1.0,6.0,16.0,23.0,24.0,19.0,3.0,3.0,1651094080294359.0,2
1437,12.0,6.0,8.0,5.0,-37.0,-7.0,1.0,0.0,1651094080294359.0,2
1438,2.0,-1.0,-4.0,-4.0,9.0,-6.0,-2.0,-1.0,1651094080315913.0,2
1439,-7.0,-10.0,-8.0,-6.0,17.0,3.0,-1.0,-3.0,1651094080315913.0,2
1440,-1.0,-8.0,-25.0,-8.0,36.0,0.0,-1.0,-1.0,1651094080316753.0,2
1441,2.0,2.0,3.0,-7.0,34.0,1.0,-3.0,0.0,1651094080316753.0,2
1442,-3.0,8.0,7.0,12.0,-73.0,1.0,2.0,4.0,1651094080329214.0,2
1443,0.0,7.0,20.0,7.0,-7.0,0.0,0.0,-1.0,1651094080329214.0,2
1444,-2.0,-2.0,-6.0,-14.0,-25.0,-10.0,0.0,-2.0,1651094080338215.0,2
1445,-2.0,2.0,3.0,11.0,1.0,9.0,3.0,0.0,1651094080338215.0,2
1446,5.0,-3.0,-2.0,-10.0,-64.0,-1.0,-1.0,-1.0,1651094080353505.0,2
1447,0.0,0.0,-1.0,2.0,12.0,3.0,1.0,0.0,1651094080353505.0,2
1448,-3.0,1.0,-4.0,2.0,58.0,-6.0,-3.0,-2.0,1651094080354340.0,2
1449,4.0,4.0,6.0,12.0,20.0,16.0,7.0,4.0,1651094080354340.0,2
1450,-5.0,-2.0,2.0,0.0,3.0,-4.0,-2.0,-2.0,1651094080375786.0,2
1451,-3.0,-3.0,3.0,-3.0,-39.0,-10.0,-2.0,0.0,1651094080375786.0,2
1452,1.0,-6.0,-15.0,-12.0,-29.0,-2.0,0.0,1.0,1651094080376625.0,2
1453,-4.0,-6.0,-12.0,-14.0,8.0,-8.0,-6.0,-6.0,1651094080376625.0,2
1454,5.0,3.0,8.0,11.0,15.0,1.0,4.0,2.0,1651094080389787.0,2
1455,-2.0,2.0,5.0,13.0,68.0,10.0,2.0,1.0,1651094080389787.0,2
1456,5.0,3.0,10.0,-35.0,-59.0,-7.0,-4.0,-3.0,1651094080397923.0,2
1457,-4.0,-6.0,-2.0,2.0,41.0,-15.0,-4.0,2.0,1651094080397923.0,2
1458,-5.0,0.0,-1.0,32.0,-85.0,-2.0,-2.0,-3.0,1651094080414125.0,2
1459,0.0,3.0,-5.0,-6.0,14.0,9.0,2.0,2.0,1651094080414125.0,2
1460,4.0,0.0,-1.0,4.0,-40.0,-1.0,0.0,0.0,1651094080415156.0,2
1461,-3.0,-2.0,-1.0,-20.0,68.0,8.0,0.0,0.0,1651094080415156.0,2
1462,3.0,-5.0,-1.0,-57.0,-61.0,-18.0,-4.0,5.0,1651094080436444.0,2
1463,-1.0,-3.0,-4.0,26.0,46.0,-19.0,-3.0,-8.0,1651094080436444.0,2
1464,-5.0,0.0,0.0,51.0,2.0,24.0,3.0,2.0,1651094080437316.0,2
1465,4.0,3.0,5.0,25.0,-34.0,-7.0,4.0,6.0,1651094080437316.0,2
1466,-4.0,-5.0,-7.0,-1.0,-27.0,25.0,2.0,-4.0,1651094080449471.0,2
1467,2.0,0.0,2.0,-26.0,41.0,-7.0,-5.0,-5.0,1651094080449471.0,2
1468,-3.0,-2.0,2.0,-20.0,-27.0,-10.0,-3.0,-5.0,1651094080465620.0,2
1469,-1.0,3.0,-4.0,-11.0,21.0,-26.0,-3.0,-4.0,1651094080465620.0,2
1470,0.0,0.0,5.0,41.0,127.0,43.0,5.0,3.0,1651094080472643.0,2
1471,-4.0,-5.0,-5.0,-35.0,-128.0,-24.0,-7.0,-3.0,1651094080472643.0,2
1472,2.0,2.0,7.0,-21.0,43.0,29.0,2.0,1.0,1651094080479593.0,2
1473,4.0,-2.0,-10.0,14.0,-64.0,-25.0,-6.0,3.0,1651094080479593.0,2
1474,-2.0,8.0,16.0,17.0,50.0,2.0,-3.0,2.0,1651094080495851.0,2
1475,3.0,-3.0,-10.0,9.0,-90.0,13.0,10.0,8.0,1651094080495851.0,2
1476,-5.0,-11.0,-20.0,-36.0,101.0,-29.0,-6.0,-7.0,1651094080497712.0,2
1477,-2.0,3.0,4.0,-9.0,-83.0,3.0,5.0,3.0,1651094080497712.0,0
1478,-6.0,-6.0,-6.0,-26.0,-80.0,-20.0,-13.0,-14.0,1651094080509844.0,3
1479,9.0,8.0,17.0,20.0,71.0,44.0,6.0,12.0,1651094080509844.0,3
1480,-1.0,2.0,3.0,-9.0,-103.0,-45.0,-3.0,1.0,1651094080517836.0,3
1481,-10.0,-9.0,-8.0,18.0,-82.0,2.0,-10.0,-13.0,1651094080517836.0,3
1482,-3.0,-4.0,-8.0,4.0,23.0,-13.0,-4.0,-8.0,1651094080532910.0,3
1483,4.0,2.0,-3.0,-19.0,-94.0,-7.0,2.0,6.0,1651094080532910.0,3
1484,1.0,0.0,0.0,26.0,94.0,19.0,9.0,3.0,1651094080540047.0,3
1485,0.0,0.0,1.0,-16.0,-43.0,-3.0,-3.0,-1.0,1651094080540047.0,3
1486,3.0,2.0,5.0,-2.0,14.0,-2.0,1.0,3.0,1651094080563667.0,3
1487,1.0,2.0,3.0,-3.0,-2.0,46.0,2.0,3.0,1651094080563667.0,3
1488,-1.0,1.0,0.0,22.0,91.0,8.0,2.0,-1.0,1651094080565065.0,3
1489,0.0,1.0,5.0,-9.0,-31.0,-5.0,5.0,-4.0,1651094080565065.0,3
1490,-2.0,-7.0,-12.0,-1.0,41.0,3.0,-3.0,5.0,1651094080569044.0,3
1491,-6.0,-4.0,-1.0,-6.0,2.0,-32.0,-12.0,-21.0,1651094080569044.0,3
1492,0.0,-1.0,-3.0,-10.0,-123.0,6.0,-1.0,0.0,1651094080577985.0,3
1493,0.0,4.0,-7.0,20.0,127.0,41.0,9.0,6.0,1651094080577985.0,3
1494,2.0,6.0,16.0,5.0,-33.0,-4.0,6.0,3.0,1651094080593813.0,3
1495,-8.0,-8.0,-11.0,-10.0,-75.0,-33.0,-4.0,-11.0,1651094080593813.0,3
1496,1.0,-3.0,-3.0,19.0,38.0,28.0,-8.0,15.0,1651094080594098.0,3
1497,2.0,-2.0,-3.0,-44.0,-44.0,-8.0,6.0,5.0,1651094080594098.0,3
1498,4.0,2.0,-3.0,11.0,-44.0,-12.0,0.0,-2.0,1651094080615773.0,3
1499,-3.0,0.0,2.0,25.0,71.0,-4.0,-3.0,-6.0,1651094080615773.0,3
1500,-4.0,-5.0,-4.0,-6.0,-101.0,-29.0,-4.0,-9.0,1651094080616643.0,3
1501,-3.0,-3.0,3.0,6.0,107.0,32.0,0.0,3.0,1651094080616643.0,3
1502,-7.0,2.0,3.0,0.0,65.0,3.0,2.0,-9.0,1651094080638668.0,3
1503,8.0,2.0,7.0,42.0,-5.0,1.0,0.0,4.0,1651094080638668.0,3
1504,-3.0,-1.0,-6.0,4.0,-36.0,-14.0,1.0,4.0,1651094080639746.0,3
1505,3.0,1.0,10.0,-7.0,-47.0,-9.0,-4.0,-20.0,1651094080639746.0,3
1506,-11.0,-5.0,-7.0,-26.0,-9.0,19.0,-10.0,1.0,1651094080653806.0,3
1507,-3.0,-6.0,-12.0,-5.0,-43.0,-10.0,2.0,2.0,1651094080653806.0,3
1508,3.0,1.0,-2.0,9.0,56.0,17.0,7.0,15.0,1651094080660274.0,3
1509,1.0,2.0,-2.0,12.0,35.0,-2.0,3.0,-2.0,1651094080660274.0,3
1510,3.0,0.0,2.0,-34.0,-3.0,-14.0,-6.0,-4.0,1651094080675569.0,3
1511,-1.0,2.0,-1.0,-15.0,-77.0,1.0,-3.0,-1.0,1651094080675569.0,3
1512,-10.0,-8.0,2.0,9.0,-65.0,-23.0,-10.0,-15.0,1651094080677468.0,3
1513,1.0,3.0,10.0,37.0,-1.0,19.0,4.0,5.0,1651094080677468.0,3
1514,3.0,-1.0,-3.0,21.0,55.0,-1.0,6.0,6.0,1651094080698766.0,3
1515,-1.0,-1.0,-2.0,-24.0,-12.0,4.0,0.0,7.0,1651094080698766.0,3
1516,-1.0,-3.0,-6.0,-29.0,-60.0,1.0,0.0,-4.0,1651094080699534.0,3
1517,-4.0,-3.0,-4.0,-7.0,-51.0,-9.0,-5.0,-1.0,1651094080699534.0,3
1518,2.0,1.0,-1.0,12.0,-9.0,-3.0,4.0,-2.0,1651094080713658.0,3
1519,2.0,0.0,-7.0,-18.0,1.0,-17.0,4.0,7.0,1651094080713658.0,3
1520,-6.0,-2.0,2.0,31.0,16.0,0.0,-9.0,-7.0,1651094080715495.0,3
1521,6.0,0.0,4.0,1.0,108.0,21.0,5.0,6.0,1651094080715495.0,3
1522,-2.0,-9.0,-9.0,-7.0,-79.0,-20.0,-5.0,-8.0,1651094080735951.0,3
1523,-14.0,5.0,5.0,-2.0,80.0,19.0,0.0,-2.0,1651094080735951.0,3
1524,-4.0,8.0,5.0,-18.0,-90.0,9.0,7.0,-8.0,1651094080736785.0,3
1525,6.0,-3.0,-9.0,-2.0,23.0,-25.0,-5.0,25.0,1651094080736785.0,3
1526,1.0,-3.0,-14.0,-7.0,-11.0,-22.0,10.0,13.0,1651094080758095.0,3
1527,8.0,0.0,17.0,35.0,-49.0,31.0,4.0,-1.0,1651094080758095.0,3
1528,-1.0,-6.0,-5.0,-20.0,-46.0,-18.0,-9.0,0.0,1651094080759961.0,3
1529,-9.0,-10.0,-15.0,-32.0,-97.0,-29.0,-2.0,7.0,1651094080759961.0,3
1530,1.0,-4.0,-3.0,3.0,28.0,13.0,0.0,-4.0,1651094080774125.0,3
1531,-9.0,1.0,1.0,9.0,11.0,-42.0,2.0,-15.0,1651094080774125.0,3
1532,1.0,9.0,12.0,5.0,0.0,25.0,5.0,-3.0,1651094080774125.0,3
1533,-3.0,0.0,3.0,8.0,-11.0,31.0,-4.0,-15.0,1651094080774125.0,3
1534,1.0,-5.0,-10.0,-27.0,-25.0,-35.0,-4.0,6.0,1651094080795886.0,3
1535,1.0,-5.0,-3.0,18.0,87.0,5.0,-1.0,-2.0,1651094080795886.0,3
1536,3.0,3.0,9.0,6.0,-28.0,4.0,3.0,-1.0,1651094080796757.0,3
1537,-2.0,0.0,-2.0,-14.0,8.0,-1.0,5.0,-2.0,1651094080796757.0,3
1538,-3.0,2.0,3.0,-18.0,-9.0,11.0,-1.0,-4.0,1651094080817772.0,3
1539,1.0,-1.0,-5.0,4.0,14.0,-14.0,-3.0,5.0,1651094080817772.0,3
1540,8.0,4.0,5.0,4.0,19.0,-14.0,3.0,4.0,1651094080819764.0,3
1541,-6.0,-1.0,3.0,-48.0,-36.0,-1.0,-7.0,-4.0,1651094080819764.0,3
1542,2.0,5.0,4.0,96.0,47.0,35.0,3.0,-4.0,1651094080832863.0,3
1543,2.0,4.0,2.0,-3.0,-49.0,-7.0,1.0,0.0,1651094080832863.0,3
1544,0.0,-6.0,-13.0,-18.0,74.0,-23.0,-4.0,2.0,1651094080840145.0,3
1545,3.0,0.0,-2.0,13.0,-50.0,-2.0,6.0,2.0,1651094080840145.0,3
1546,-3.0,-2.0,0.0,-33.0,16.0,6.0,-6.0,-8.0,1651094080856476.0,3
1547,3.0,0.0,0.0,-20.0,-6.0,-26.0,-3.0,4.0,1651094080856476.0,3
1548,5.0,4.0,7.0,38.0,76.0,17.0,6.0,7.0,1651094080857338.0,3
1549,-6.0,5.0,-1.0,8.0,61.0,16.0,-2.0,-7.0,1651094080857338.0,3
1550,1.0,2.0,8.0,-11.0,-35.0,-48.0,0.0,3.0,1651094080879509.0,3
1551,-4.0,-8.0,-10.0,24.0,0.0,19.0,-2.0,-1.0,1651094080879509.0,3
1552,-2.0,-7.0,-16.0,-48.0,-63.0,-12.0,-1.0,-5.0,1651094080880506.0,3
1553,-1.0,-4.0,2.0,42.0,87.0,3.0,-8.0,0.0,1651094080880506.0,3
1554,1.0,11.0,20.0,11.0,4.0,-2.0,7.0,6.0,1651094080893866.0,3
1555,6.0,6.0,2.0,-34.0,-62.0,31.0,-6.0,2.0,1651094080893866.0,3
1556,0.0,0.0,1.0,18.0,111.0,48.0,-3.0,-23.0,1651094080899855.0,3
1557,-10.0,-7.0,-9.0,-12.0,-121.0,-29.0,-4.0,-10.0,1651094080899855.0,3
1558,-4.0,-5.0,-9.0,-4.0,-2.0,105.0,0.0,2.0,1651094080916182.0,3
1559,8.0,7.0,12.0,28.0,0.0,-19.0,0.0,6.0,1651094080916182.0,3
1560,18.0,3.0,-3.0,-7.0,-14.0,46.0,6.0,12.0,1651094080917012.0,3
1561,3.0,8.0,20.0,32.0,109.0,3.0,5.0,-1.0,1651094080917012.0,3
1562,-2.0,-4.0,-11.0,-5.0,-106.0,-2.0,-4.0,-2.0,1651094080939296.0,3
1563,-9.0,-12.0,-14.0,-15.0,2.0,-6.0,0.0,-6.0,1651094080939296.0,3
1564,-11.0,-4.0,-9.0,4.0,-103.0,-19.0,-2.0,1.0,1651094080940330.0,3
1565,4.0,2.0,-3.0,-30.0,-1.0,-9.0,1.0,-1.0,1651094080940330.0,3
1566,-2.0,-5.0,1.0,-6.0,41.0,-37.0,-4.0,4.0,1651094080952415.0,3
1567,0.0,2.0,12.0,35.0,113.0,58.0,7.0,0.0,1651094080952415.0,3
1568,2.0,5.0,3.0,-50.0,-41.0,-62.0,0.0,7.0,1651094080959583.0,3
1569,-5.0,-4.0,-2.0,43.0,-64.0,-7.0,-10.0,-5.0,1651094080959583.0,3
1570,3.0,-4.0,-9.0,-4.0,-71.0,21.0,-4.0,-7.0,1651094080975860.0,3
1571,-3.0,-1.0,-10.0,-20.0,-19.0,-27.0,-3.0,0.0,1651094080975860.0,3
1572,-1.0,-2.0,4.0,-17.0,-45.0,-9.0,0.0,1.0,1651094080976705.0,3
1573,0.0,0.0,-1.0,-25.0,47.0,-11.0,-3.0,-3.0,1651094080976705.0,3
1574,6.0,1.0,2.0,38.0,59.0,-13.0,2.0,0.0,1651094080998972.0,3
1575,-8.0,-8.0,-4.0,-20.0,-58.0,-6.0,-9.0,-12.0,1651094080998972.0,3
1576,-4.0,-2.0,-1.0,13.0,18.0,-1.0,-5.0,4.0,1651094080999855.0,3
1577,-2.0,-5.0,-4.0,-26.0,-120.0,-33.0,-2.0,-3.0,1651094080999855.0,3
1578,5.0,10.0,9.0,5.0,89.0,54.0,-1.0,11.0,1651094081012837.0,3
1579,1.0,0.0,6.0,-12.0,-32.0,-19.0,0.0,-6.0,1651094081012837.0,3
1580,1.0,-1.0,-5.0,-29.0,43.0,-29.0,-7.0,0.0,1651094081027169.0,3
1581,-3.0,-3.0,-17.0,59.0,23.0,63.0,6.0,0.0,1651094081027169.0,3
1582,0.0,-2.0,8.0,-15.0,-75.0,-21.0,5.0,-3.0,1651094081036145.0,3
1583,-3.0,-7.0,-8.0,-22.0,-4.0,9.0,-5.0,-2.0,1651094081036145.0,3
1584,-17.0,-1.0,11.0,8.0,-30.0,-16.0,1.0,-3.0,1651094081036996.0,3
1585,26.0,9.0,2.0,-43.0,14.0,30.0,3.0,15.0,1651094081036996.0,3
1586,-6.0,-8.0,-9.0,72.0,-48.0,-27.0,-1.0,-5.0,1651094081058312.0,3
1587,2.0,-1.0,-1.0,-15.0,-38.0,6.0,2.0,9.0,1651094081058312.0,3
1588,-5.0,-7.0,-10.0,11.0,77.0,1.0,0.0,-9.0,1651094081059158.0,3
1589,-5.0,11.0,20.0,11.0,89.0,6.0,12.0,7.0,1651094081059158.0,3
1590,-1.0,0.0,-4.0,-25.0,-29.0,-17.0,-8.0,-5.0,1651094081073442.0,3
1591,0.0,-3.0,-2.0,-3.0,-41.0,-39.0,-4.0,4.0,1651094081073442.0,3
1592,-7.0,-2.0,-1.0,8.0,51.0,24.0,-3.0,-11.0,1651094081079279.0,3
1593,8.0,0.0,3.0,-15.0,-24.0,12.0,-1.0,-1.0,1651094081079279.0,3
1594,2.0,3.0,5.0,6.0,102.0,-7.0,5.0,-2.0,1651094081095320.0,3
1595,-8.0,5.0,-3.0,26.0,-44.0,-18.0,-3.0,-3.0,1651094081095320.0,3
1596,4.0,2.0,2.0,-11.0,74.0,0.0,6.0,11.0,1651094081097346.0,3
1597,-5.0,0.0,-11.0,-31.0,-124.0,-7.0,-5.0,-7.0,1651094081097346.0,3
1598,-5.0,-9.0,-4.0,32.0,27.0,17.0,0.0,-6.0,1651094081118488.0,3
1599,0.0,-2.0,-3.0,-8.0,-15.0,23.0,11.0,8.0,1651094081118488.0,3
1600,0.0,-1.0,-4.0,26.0,-96.0,-19.0,3.0,-3.0,1651094081119488.0,3
1601,-1.0,-1.0,6.0,-69.0,-14.0,6.0,-5.0,1.0,1651094081119488.0,3
1602,3.0,5.0,4.0,14.0,-32.0,-71.0,-4.0,-3.0,1651094081131609.0,3
1603,-2.0,-3.0,-4.0,14.0,2.0,-2.0,-3.0,-2.0,1651094081131609.0,3
1604,8.0,1.0,6.0,18.0,-61.0,12.0,5.0,6.0,1651094081148748.0,3
1605,-7.0,-9.0,-13.0,-28.0,-85.0,-16.0,-8.0,-10.0,1651094081148748.0,3
1606,-5.0,1.0,3.0,-20.0,58.0,15.0,-1.0,-2.0,1651094081155735.0,3
1607,5.0,4.0,6.0,16.0,124.0,-26.0,2.0,-11.0,1651094081155735.0,3
1608,0.0,-4.0,-6.0,-13.0,-118.0,-16.0,-6.0,3.0,1651094081157581.0,3
1609,-11.0,-4.0,-3.0,0.0,-34.0,-6.0,-6.0,-8.0,1651094081157581.0,3
1610,9.0,13.0,17.0,59.0,74.0,43.0,23.0,11.0,1651094081177853.0,3
1611,3.0,0.0,-4.0,-11.0,-100.0,-22.0,-1.0,-7.0,1651094081177853.0,3
1612,2.0,-1.0,-4.0,-33.0,67.0,40.0,2.0,2.0,1651094081179879.0,3
1613,-6.0,-6.0,-7.0,54.0,-57.0,-21.0,-5.0,1.0,1651094081179879.0,3
1614,-5.0,-8.0,-28.0,-68.0,-47.0,-9.0,-6.0,-7.0,1651094081191849.0,3
1615,7.0,-2.0,-3.0,1.0,38.0,-20.0,2.0,16.0,1651094081191849.0,3
1616,4.0,13.0,24.0,-15.0,38.0,60.0,13.0,-3.0,1651094081200794.0,3
1617,-4.0,-4.0,4.0,42.0,97.0,6.0,-2.0,-8.0,1651094081200794.0,3
1618,-15.0,-1.0,5.0,-21.0,-35.0,-4.0,-4.0,6.0,1651094081215963.0,3
1619,18.0,-3.0,-1.0,-6.0,-13.0,-4.0,-6.0,10.0,1651094081215963.0,3
1620,-8.0,2.0,-2.0,-5.0,-45.0,12.0,-15.0,-12.0,1651094081216801.0,3
1621,7.0,5.0,12.0,56.0,48.0,1.0,12.0,10.0,1651094081216801.0,3
1622,-4.0,-5.0,-7.0,-25.0,-3.0,13.0,-4.0,1.0,1651094081239027.0,3
1623,-14.0,-5.0,-9.0,-25.0,29.0,-5.0,-14.0,-25.0,1651094081239027.0,3
1624,6.0,4.0,-5.0,4.0,18.0,-49.0,2.0,5.0,1651094081239264.0,3
1625,0.0,2.0,8.0,-4.0,-8.0,51.0,8.0,9.0,1651094081239264.0,3
1626,4.0,-3.0,-6.0,-8.0,-94.0,-59.0,-6.0,0.0,1651094081251816.0,3
1627,-4.0,2.0,8.0,16.0,-41.0,33.0,1.0,2.0,1651094081251816.0,3
1628,5.0,-6.0,-8.0,22.0,-16.0,-7.0,-1.0,3.0,1651094081260759.0,3
1629,-4.0,0.0,0.0,-31.0,4.0,-33.0,-1.0,0.0,1651094081260759.0,3
1630,-9.0,-6.0,-4.0,-34.0,57.0,19.0,1.0,-15.0,1651094081276123.0,3
1631,9.0,5.0,3.0,26.0,40.0,-3.0,-1.0,-3.0,1651094081276123.0,3
1632,2.0,2.0,6.0,20.0,18.0,-4.0,-1.0,-12.0,1651094081276971.0,3
1633,10.0,4.0,1.0,32.0,78.0,39.0,4.0,25.0,1651094081276971.0,3
1634,2.0,-2.0,2.0,-32.0,-128.0,4.0,3.0,-7.0,1651094081298478.0,3
1635,0.0,-3.0,-3.0,-36.0,-42.0,47.0,8.0,15.0,1651094081298478.0,3
1636,2.0,1.0,-7.0,31.0,-60.0,-22.0,-3.0,-3.0,1651094081299476.0,3
1637,-3.0,0.0,-1.0,-17.0,15.0,-3.0,0.0,-9.0,1651094081299476.0,3
1638,-4.0,-3.0,-9.0,0.0,-12.0,-20.0,-7.0,-5.0,1651094081311453.0,3
1639,-15.0,2.0,14.0,22.0,34.0,12.0,0.0,1.0,1651094081311453.0,3
1640,-23.0,-14.0,-21.0,-51.0,-82.0,-10.0,-11.0,-18.0,1651094081328399.0,3
1641,21.0,3.0,14.0,18.0,23.0,-14.0,9.0,15.0,1651094081328399.0,3
1642,11.0,5.0,10.0,22.0,42.0,14.0,2.0,11.0,1651094081343724.0,3
1643,-5.0,1.0,-11.0,-12.0,-76.0,23.0,3.0,3.0,1651094081343724.0,3
1644,4.0,-4.0,-5.0,10.0,17.0,-10.0,2.0,13.0,1651094081344581.0,3
1645,-9.0,0.0,-9.0,-26.0,-94.0,5.0,0.0,-10.0,1651094081344581.0,3
1646,-2.0,-2.0,0.0,-11.0,-41.0,-3.0,-3.0,4.0,1651094081358109.0,3
1647,7.0,3.0,9.0,7.0,127.0,3.0,-9.0,0.0,1651094081358109.0,3
1648,-10.0,-4.0,3.0,10.0,-47.0,-25.0,-6.0,-15.0,1651094081364251.0,3
1649,-1.0,2.0,7.0,23.0,56.0,38.0,13.0,18.0,1651094081364251.0,3
1650,9.0,2.0,-1.0,-9.0,28.0,-22.0,3.0,10.0,1651094081372074.0,3
1651,-9.0,-7.0,-5.0,-30.0,-44.0,36.0,-15.0,-13.0,1651094081372074.0,3
1652,-22.0,1.0,-7.0,-2.0,-64.0,43.0,12.0,5.0,1651094081387433.0,3
1653,8.0,-5.0,6.0,46.0,-19.0,2.0,-13.0,-22.0,1651094081387433.0,3
1654,2.0,-10.0,-3.0,-16.0,-90.0,-10.0,-5.0,4.0,1651094081395496.0,3
1655,23.0,12.0,0.0,31.0,84.0,14.0,20.0,10.0,1651094081395496.0,3
1656,12.0,5.0,13.0,-11.0,58.0,6.0,1.0,12.0,1651094081397533.0,3
1657,-9.0,-4.0,-3.0,-22.0,-59.0,-38.0,-1.0,0.0,1651094081397533.0,3
1658,-8.0,2.0,-8.0,-33.0,-21.0,18.0,-3.0,-9.0,1651094081418460.0,3
1659,-13.0,-12.0,-11.0,42.0,56.0,-9.0,4.0,-8.0,1651094081418460.0,3
1660,0.0,-2.0,-2.0,-37.0,-32.0,19.0,-11.0,-1.0,1651094081419459.0,3
1661,-10.0,-8.0,-12.0,-42.0,56.0,-21.0,-9.0,-18.0,1651094081419459.0,3
1662,6.0,6.0,8.0,56.0,-63.0,24.0,3.0,5.0,1651094081432548.0,3
1663,-4.0,6.0,13.0,-54.0,-95.0,-17.0,3.0,-1.0,1651094081432548.0,3
1664,4.0,2.0,-5.0,31.0,-18.0,8.0,2.0,3.0,1651094081441040.0,3
1665,-12.0,-5.0,-5.0,1.0,-44.0,-43.0,-14.0,-12.0,1651094081441040.0,3
1666,2.0,3.0,2.0,-20.0,46.0,-2.0,3.0,3.0,1651094081456283.0,3
1667,-3.0,-3.0,-2.0,-7.0,3.0,12.0,2.0,12.0,1651094081456283.0,3
1668,3.0,-4.0,6.0,-1.0,-10.0,-31.0,8.0,-37.0,1651094081457117.0,3
1669,-16.0,7.0,4.0,13.0,-23.0,10.0,4.0,22.0,1651094081457117.0,3
1670,23.0,-14.0,-11.0,-1.0,-20.0,-40.0,-7.0,-14.0,1651094081478395.0,3
1671,-14.0,7.0,5.0,16.0,-61.0,-14.0,10.0,-14.0,1651094081478395.0,3
1672,-14.0,3.0,11.0,6.0,44.0,-16.0,-1.0,3.0,1651094081479390.0,3
1673,28.0,-3.0,-15.0,-22.0,-41.0,-3.0,3.0,15.0,1651094081479390.0,3
1674,-8.0,-2.0,-1.0,11.0,-15.0,16.0,-2.0,-4.0,1651094081492227.0,3
1675,12.0,3.0,-10.0,-20.0,-67.0,-4.0,-3.0,4.0,1651094081492227.0,3
1676,-3.0,-7.0,5.0,6.0,57.0,20.0,2.0,0.0,1651094081501285.0,3
1677,-8.0,-2.0,-5.0,23.0,32.0,-45.0,0.0,-4.0,1651094081501285.0,3
1678,-1.0,5.0,6.0,15.0,-43.0,14.0,1.0,6.0,1651094081515893.0,3
1679,5.0,1.0,1.0,-32.0,31.0,-15.0,-4.0,-4.0,1651094081515893.0,3
1680,-3.0,0.0,-4.0,1.0,-63.0,16.0,2.0,10.0,1651094081516744.0,3
1681,1.0,-2.0,-2.0,48.0,51.0,25.0,-2.0,-5.0,1651094081516744.0,3
1682,1.0,-6.0,-11.0,-16.0,-29.0,-26.0,-4.0,-3.0,1651094081538480.0,3
1683,-7.0,4.0,9.0,14.0,50.0,10.0,4.0,8.0,1651094081538480.0,3
1684,4.0,3.0,6.0,-20.0,-52.0,18.0,-8.0,2.0,1651094081539480.0,3
1685,1.0,-2.0,1.0,-7.0,-46.0,-14.0,3.0,-1.0,1651094081539480.0,3
1686,-2.0,-3.0,0.0,1.0,36.0,8.0,4.0,-30.0,1651094081552584.0,3
1687,3.0,1.0,-4.0,-17.0,-13.0,6.0,-7.0,4.0,1651094081552584.0,3
1688,10.0,2.0,-2.0,14.0,18.0,-5.0,-2.0,32.0,1651094081560778.0,3
1689,-6.0,-4.0,-1.0,-23.0,-26.0,-4.0,-6.0,-17.0,1651094081560778.0,3
1690,-16.0,8.0,1.0,-2.0,4.0,13.0,0.0,3.0,1651094081583619.0,3
1691,1.0,-7.0,-4.0,5.0,11.0,-32.0,-9.0,-17.0,1651094081583619.0,3
1692,-21.0,4.0,6.0,27.0,-9.0,21.0,15.0,7.0,1651094081584579.0,3
1693,24.0,-1.0,-6.0,-22.0,-44.0,-37.0,0.0,-2.0,1651094081584579.0,3
1694,9.0,5.0,3.0,11.0,68.0,51.0,6.0,10.0,1651094081598706.0,3
1695,3.0,-5.0,-2.0,0.0,-56.0,-17.0,-3.0,-3.0,1651094081598706.0,3
1696,-15.0,-8.0,-7.0,7.0,69.0,-8.0,-4.0,-3.0,1651094081599563.0,3
1697,-14.0,-3.0,-8.0,-31.0,-104.0,34.0,-5.0,-7.0,1651094081599563.0,3
1698,1.0,9.0,20.0,22.0,98.0,57.0,11.0,11.0,1651094081620833.0,3
1699,-2.0,1.0,-5.0,15.0,-84.0,-23.0,-3.0,-2.0,1651094081620833.0,3
1700,14.0,3.0,8.0,4.0,-5.0,-14.0,2.0,-2.0,1651094081621731.0,3
1701,-3.0,1.0,-1.0,-7.0,-14.0,12.0,1.0,7.0,1651094081621731.0,3
1702,-1.0,-3.0,-9.0,-16.0,-60.0,-27.0,-8.0,-11.0,1651094081643925.0,3
1703,0.0,-6.0,-6.0,0.0,15.0,6.0,1.0,1.0,1651094081643925.0,3
1704,12.0,-4.0,7.0,11.0,63.0,7.0,2.0,11.0,1651094081644929.0,3
1705,4.0,2.0,4.0,-6.0,-1.0,-6.0,-2.0,2.0,1651094081644929.0,3
1706,-21.0,4.0,1.0,-5.0,0.0,1.0,-8.0,-12.0,1651094081666209.0,3
1707,-9.0,-3.0,1.0,-4.0,17.0,13.0,2.0,-1.0,1651094081666209.0,3
1708,11.0,2.0,-6.0,-3.0,-27.0,13.0,-8.0,-4.0,1651094081667138.0,3
1709,8.0,3.0,4.0,5.0,51.0,8.0,3.0,-4.0,1651094081667138.0,3
1710,-17.0,-5.0,0.0,3.0,7.0,-14.0,-2.0,6.0,1651094081681262.0,3
1711,6.0,-3.0,-2.0,-1.0,-7.0,0.0,-2.0,-7.0,1651094081681262.0,3
1712,9.0,2.0,-1.0,-4.0,-7.0,5.0,-1.0,-5.0,1651094081682140.0,3
1713,-6.0,2.0,-1.0,7.0,29.0,-9.0,-4.0,3.0,1651094081682140.0,3
1714,5.0,-7.0,4.0,-2.0,-18.0,8.0,3.0,5.0,1651094081695256.0,3
1715,-3.0,0.0,-5.0,-2.0,-9.0,-5.0,-2.0,2.0,1651094081695256.0,3
1716,-3.0,2.0,-4.0,2.0,30.0,-8.0,-2.0,-7.0,1651094081697282.0,3
1717,-5.0,1.0,1.0,0.0,51.0,6.0,3.0,-5.0,1651094081697282.0,3
1718,7.0,0.0,-5.0,-5.0,62.0,-17.0,-6.0,5.0,1651094081718193.0,3
1719,-5.0,-3.0,5.0,4.0,2.0,2.0,1.0,-2.0,1651094081718193.0,3
1720,9.0,0.0,0.0,0.0,-17.0,-7.0,2.0,-3.0,1651094081719190.0,3
1721,-6.0,2.0,4.0,-2.0,-47.0,2.0,-3.0,-6.0,1651094081719190.0,3
1722,1.0,-1.0,0.0,-2.0,-29.0,-4.0,1.0,5.0,1651094081740956.0,3
1723,-1.0,2.0,3.0,5.0,2.0,-8.0,3.0,3.0,1651094081740956.0,3
1724,-5.0,-3.0,-5.0,1.0,10.0,-17.0,-4.0,-14.0,1651094081741955.0,3
1725,1.0,-2.0,0.0,1.0,32.0,9.0,1.0,21.0,1651094081741955.0,3
1726,1.0,0.0,-1.0,0.0,-38.0,-3.0,4.0,-4.0,1651094081755273.0,3
1727,3.0,-4.0,-7.0,-3.0,19.0,2.0,3.0,12.0,1651094081755273.0,3
1728,-1.0,3.0,7.0,5.0,3.0,-10.0,-1.0,1.0,1651094081762150.0,3
1729,-4.0,-5.0,-11.0,-2.0,3.0,1.0,-2.0,-10.0,1651094081762150.0,3
1730,0.0,3.0,5.0,-6.0,3.0,-9.0,-1.0,2.0,1651094081778268.0,3
1731,-3.0,-1.0,-9.0,3.0,-3.0,-1.0,1.0,0.0,1651094081778268.0,3
1732,3.0,0.0,6.0,-2.0,15.0,4.0,0.0,0.0,1651094081780289.0,3
1733,-1.0,0.0,-1.0,-2.0,-9.0,0.0,-2.0,-3.0,1651094081780289.0,3
1734,2.0,-4.0,-7.0,0.0,9.0,-3.0,0.0,0.0,1651094081802551.0,3
1735,0.0,1.0,4.0,-2.0,-7.0,6.0,1.0,-5.0,1651094081802551.0,3
1736,0.0,0.0,-3.0,2.0,4.0,-6.0,-1.0,3.0,1651094081803406.0,3
1737,-2.0,-2.0,0.0,-3.0,10.0,21.0,0.0,-5.0,1651094081803406.0,3
1738,1.0,-4.0,-4.0,-2.0,-25.0,-11.0,0.0,3.0,1651094081815492.0,3
1739,-2.0,0.0,2.0,-6.0,-5.0,1.0,0.0,0.0,1651094081815492.0,3
1740,1.0,0.0,-5.0,1.0,20.0,3.0,1.0,5.0,1651094081822141.0,3
1741,3.0,1.0,8.0,5.0,34.0,6.0,1.0,14.0,1651094081822141.0,3
1742,0.0,-4.0,-13.0,-11.0,-2.0,-2.0,-1.0,-2.0,1651094081838667.0,3
1743,1.0,6.0,10.0,5.0,-51.0,-3.0,-2.0,1.0,1651094081838667.0,3
1744,1.0,-4.0,-3.0,2.0,-7.0,7.0,2.0,-2.0,1651094081839667.0,3
1745,-3.0,-1.0,-1.0,-1.0,6.0,-10.0,-5.0,-8.0,1651094081839667.0,3
1746,0.0,2.0,2.0,1.0,-12.0,6.0,1.0,2.0,1651094081860265.0,3
1747,1.0,-2.0,0.0,-6.0,-19.0,-3.0,-4.0,-3.0,1651094081860265.0,3
1748,0.0,-3.0,-5.0,-3.0,-20.0,0.0,-3.0,-4.0,1651094081862264.0,3
1749,-1.0,-1.0,1.0,-2.0,-14.0,-10.0,0.0,-6.0,1651094081862264.0,3
1750,1.0,-1.0,-1.0,1.0,20.0,-4.0,-4.0,-1.0,1651094081891563.0,3
1751,-2.0,1.0,0.0,1.0,-5.0,-2.0,0.0,0.0,1651094081891563.0,3
1752,0.0,1.0,5.0,2.0,9.0,2.0,2.0,1.0,1651094081892514.0,3
1753,-1.0,-1.0,-2.0,2.0,-1.0,2.0,2.0,-3.0,1651094081892514.0,3
1754,0.0,0.0,-4.0,-3.0,-5.0,-13.0,1.0,2.0,1651094081905734.0,3
1755,-3.0,-5.0,-4.0,-7.0,15.0,19.0,-1.0,-1.0,1651094081905734.0,3
1756,-1.0,-2.0,-6.0,3.0,12.0,-2.0,-1.0,-1.0,1651094081911621.0,3
1757,-1.0,-2.0,-4.0,1.0,-82.0,-6.0,0.0,-2.0,1651094081911621.0,3
1758,-2.0,1.0,6.0,-6.0,41.0,12.0,0.0,1.0,1651094081920874.0,3
1759,-1.0,3.0,11.0,9.0,43.0,2.0,0.0,-3.0,1651094081920874.0,3
1760,-1.0,-2.0,-7.0,-5.0,-2.0,-25.0,-4.0,-1.0,1651094081921747.0,3
1761,-3.0,-2.0,-4.0,-7.0,-11.0,31.0,-1.0,-4.0,1651094081921747.0,3
1762,-1.0,-1.0,-6.0,8.0,-11.0,-1.0,1.0,1.0,1651094081943998.0,3
1763,-2.0,-2.0,-3.0,-7.0,-8.0,-4.0,1.0,-1.0,1651094081943998.0,3
1764,-2.0,0.0,0.0,3.0,-14.0,-1.0,0.0,-1.0,1651094081944999.0,3
1765,2.0,0.0,3.0,9.0,11.0,-13.0,-1.0,-1.0,1651094081944999.0,3
1766,0.0,-1.0,1.0,2.0,-18.0,18.0,1.0,1.0,1651094081959121.0,3
1767,0.0,1.0,0.0,-6.0,8.0,5.0,2.0,0.0,1651094081959121.0,3
1768,-2.0,2.0,-1.0,-3.0,-20.0,-3.0,-3.0,-3.0,1651094081959121.0,3
1769,0.0,2.0,0.0,-5.0,4.0,-8.0,0.0,-1.0,1651094081959121.0,3
1770,-1.0,-2.0,0.0,-2.0,3.0,4.0,-3.0,-3.0,1651094081981427.0,3
1771,2.0,1.0,2.0,6.0,11.0,-9.0,3.0,0.0,1651094081981427.0,3
1772,0.0,-2.0,-6.0,-2.0,-4.0,4.0,0.0,0.0,1651094081982271.0,3
1773,-2.0,-1.0,0.0,-7.0,20.0,-8.0,0.0,-1.0,1651094081982271.0,3
1774,-1.0,-1.0,-4.0,1.0,3.0,-2.0,-2.0,-1.0,1651094081995237.0,3
1775,-1.0,1.0,4.0,3.0,4.0,2.0,-1.0,1.0,1651094081995237.0,3
1776,0.0,-1.0,2.0,-1.0,6.0,-5.0,0.0,0.0,1651094082001746.0,3
1777,0.0,-2.0,0.0,-2.0,3.0,4.0,-1.0,-2.0,1651094082001746.0,3
1778,1.0,-2.0,-2.0,-3.0,-30.0,-19.0,3.0,3.0,1651094082018565.0,3
1779,0.0,-1.0,-2.0,0.0,4.0,0.0,-3.0,-1.0,1651094082018565.0,3
1780,0.0,1.0,2.0,-3.0,12.0,-13.0,-2.0,1.0,1651094082019563.0,3
1781,0.0,2.0,-1.0,2.0,16.0,31.0,1.0,1.0,1651094082019563.0,3
1782,-1.0,-3.0,-5.0,-1.0,-50.0,-10.0,-1.0,-1.0,1651094082041352.0,3
1783,0.0,2.0,12.0,-1.0,-14.0,3.0,-1.0,1.0,1651094082041352.0,3
1784,1.0,3.0,6.0,-2.0,7.0,-6.0,0.0,1.0,1651094082041835.0,3
1785,0.0,-1.0,-4.0,-3.0,-2.0,-11.0,0.0,-1.0,1651094082041835.0,3
1786,0.0,-1.0,-2.0,0.0,6.0,0.0,-1.0,-1.0,1651094082055186.0,3
1787,0.0,-3.0,-11.0,2.0,26.0,0.0,0.0,0.0,1651094082055186.0,3
1788,-1.0,-3.0,-3.0,-5.0,-25.0,5.0,-1.0,-2.0,1651094082062039.0,3
1789,0.0,1.0,3.0,0.0,14.0,-11.0,-2.0,-1.0,1651094082062039.0,3
1790,0.0,-1.0,-1.0,3.0,22.0,4.0,-1.0,2.0,1651094082078368.0,3
1791,0.0,-1.0,-4.0,0.0,-9.0,-9.0,-2.0,0.0,1651094082078368.0,3
1792,0.0,-1.0,-1.0,-1.0,17.0,4.0,1.0,-1.0,1651094082079364.0,3
1793,-1.0,-1.0,-2.0,-3.0,-29.0,-12.0,-2.0,-1.0,1651094082079364.0,3
1794,0.0,1.0,4.0,-1.0,0.0,-3.0,-2.0,0.0,1651094082100652.0,3
1795,-1.0,-2.0,-3.0,-4.0,6.0,-4.0,2.0,-1.0,1651094082100652.0,3
1796,0.0,2.0,-1.0,5.0,-2.0,0.0,-1.0,0.0,1651094082102534.0,3
1797,-1.0,-3.0,-1.0,0.0,-2.0,29.0,3.0,0.0,1651094082102534.0,3
1798,0.0,1.0,2.0,0.0,5.0,-8.0,-2.0,-2.0,1651094082114671.0,3
1799,0.0,-1.0,-1.0,0.0,-32.0,4.0,-1.0,-2.0,1651094082114671.0,3
1800,0.0,-2.0,-7.0,-3.0,15.0,10.0,0.0,-1.0,1651094082123661.0,3
1801,1.0,6.0,4.0,3.0,15.0,-13.0,1.0,2.0,1651094082123661.0,3
1802,-1.0,-2.0,2.0,2.0,45.0,-3.0,0.0,1.0,1651094082138535.0,3
1803,-3.0,-4.0,-6.0,-1.0,-5.0,-7.0,-2.0,-1.0,1651094082138535.0,3
1804,0.0,-1.0,-1.0,-3.0,-8.0,13.0,1.0,1.0,1651094082139535.0,3
1805,1.0,-1.0,1.0,0.0,12.0,-5.0,-2.0,-2.0,1651094082139535.0,3
1806,0.0,0.0,-1.0,-1.0,-10.0,7.0,1.0,1.0,1651094082160969.0,3
1807,1.0,2.0,0.0,0.0,-3.0,-15.0,-1.0,-1.0,1651094082160969.0,3
1808,-1.0,-4.0,-1.0,0.0,3.0,-5.0,0.0,-1.0,1651094082161861.0,3
1809,-3.0,-3.0,-3.0,-4.0,-23.0,-4.0,-1.0,-1.0,1651094082161861.0,3
1810,-1.0,1.0,-2.0,-4.0,0.0,-8.0,-3.0,-2.0,1651094082174046.0,3
1811,-1.0,-2.0,-1.0,3.0,3.0,22.0,0.0,-1.0,1651094082174046.0,3
1812,0.0,0.0,0.0,1.0,1.0,4.0,0.0,0.0,1651094082183024.0,3
1813,-1.0,-2.0,0.0,-3.0,-3.0,-10.0,-3.0,-2.0,1651094082183024.0,3
1814,-2.0,-2.0,0.0,0.0,-9.0,-7.0,0.0,-1.0,1651094082198360.0,3
1815,-1.0,1.0,-1.0,-2.0,12.0,6.0,2.0,0.0,1651094082198360.0,3
1816,-1.0,1.0,0.0,0.0,-2.0,-3.0,0.0,1.0,1651094082199231.0,3
1817,-1.0,-1.0,-1.0,0.0,-17.0,-11.0,-3.0,0.0,1651094082199231.0,3
1818,-2.0,0.0,-1.0,-5.0,-8.0,6.0,-2.0,0.0,1651094082221734.0,3
1819,-1.0,0.0,-4.0,5.0,28.0,2.0,0.0,1.0,1651094082221734.0,3
1820,-1.0,-2.0,6.0,0.0,-8.0,21.0,3.0,2.0,1651094082222568.0,3
1821,-1.0,0.0,-1.0,1.0,0.0,-2.0,0.0,0.0,1651094082222568.0,3
1822,0.0,0.0,0.0,-1.0,-2.0,2.0,-1.0,-1.0,1651094082233892.0,3
1823,-1.0,-2.0,-1.0,-1.0,-26.0,-9.0,-2.0,-1.0,1651094082233892.0,3
1824,-2.0,-3.0,-4.0,0.0,-5.0,-1.0,0.0,0.0,1651094082243061.0,3
1825,0.0,0.0,-1.0,1.0,17.0,0.0,0.0,1.0,1651094082243061.0,3
1826,0.0,0.0,0.0,-2.0,-7.0,-2.0,0.0,-1.0,1651094082258387.0,3
1827,2.0,-1.0,-2.0,-1.0,-10.0,2.0,-1.0,-1.0,1651094082258387.0,3
1828,-1.0,-1.0,-2.0,-3.0,15.0,-9.0,-1.0,-1.0,1651094082259241.0,3
1829,0.0,-2.0,0.0,1.0,5.0,-5.0,-2.0,-2.0,1651094082259241.0,3
1830,1.0,0.0,-2.0,1.0,-9.0,-1.0,0.0,0.0,1651094082281634.0,3
1831,0.0,-3.0,-2.0,-2.0,-25.0,-13.0,-3.0,1.0,1651094082281634.0,3
1832,1.0,0.0,1.0,4.0,0.0,-3.0,1.0,-1.0,1651094082282354.0,3
1833,0.0,-3.0,-3.0,-5.0,1.0,1.0,-1.0,0.0,1651094082282354.0,3
1834,-1.0,-1.0,-2.0,1.0,12.0,1.0,0.0,0.0,1651094082294540.0,3
1835,-2.0,0.0,1.0,-1.0,10.0,0.0,-1.0,0.0,1651094082294540.0,3
1836,0.0,-1.0,-2.0,-1.0,-46.0,6.0,1.0,-3.0,1651094082303721.0,3
1837,0.0,1.0,3.0,3.0,3.0,11.0,1.0,1.0,1651094082303721.0,3
1838,0.0,1.0,-4.0,-2.0,-10.0,-3.0,-1.0,-1.0,1651094082317877.0,3
1839,0.0,0.0,-1.0,-2.0,9.0,-3.0,-1.0,0.0,1651094082317877.0,3
1840,-1.0,-1.0,-2.0,-1.0,22.0,10.0,-1.0,0.0,1651094082319905.0,3
1841,0.0,-2.0,-2.0,-5.0,-39.0,-16.0,-2.0,-2.0,1651094082319905.0,3
1842,0.0,0.0,2.0,1.0,36.0,3.0,1.0,-1.0,1651094082341735.0,3
1843,-1.0,1.0,-1.0,0.0,1.0,-3.0,-1.0,-1.0,1651094082341735.0,3
1844,0.0,-1.0,-2.0,-2.0,16.0,1.0,-2.0,-1.0,1651094082341735.0,3
1845,0.0,2.0,-3.0,0.0,-11.0,0.0,0.0,-1.0,1651094082341735.0,3
1846,-2.0,-2.0,0.0,2.0,6.0,0.0,0.0,1.0,1651094082355038.0,3
1847,0.0,-1.0,0.0,0.0,-26.0,1.0,2.0,0.0,1651094082355038.0,3
1848,-1.0,-2.0,-5.0,-2.0,-17.0,-12.0,-1.0,-1.0,1651094082363842.0,3
1849,-1.0,0.0,-1.0,-4.0,53.0,-3.0,0.0,-2.0,1651094082363842.0,3
1850,3.0,1.0,2.0,0.0,-54.0,17.0,1.0,0.0,1651094082377862.0,3
1851,2.0,1.0,2.0,5.0,54.0,3.0,0.0,-1.0,1651094082377862.0,3
1852,0.0,-3.0,-4.0,0.0,-31.0,-6.0,-2.0,0.0,1651094082379857.0,3
1853,0.0,-1.0,0.0,1.0,5.0,3.0,-2.0,-1.0,1651094082379857.0,3
1854,-2.0,-1.0,2.0,-2.0,-1.0,-6.0,-3.0,-1.0,1651094082400192.0,3
1855,0.0,-1.0,-2.0,-2.0,-28.0,6.0,0.0,0.0,1651094082400192.0,3
1856,1.0,0.0,4.0,-2.0,0.0,-3.0,0.0,1.0,1651094082408173.0,3
1857,0.0,-2.0,-2.0,-1.0,0.0,-3.0,-1.0,-1.0,1651094082408173.0,3
1858,-1.0,-1.0,-3.0,0.0,12.0,16.0,2.0,-1.0,1651094082414320.0,3
1859,-2.0,-1.0,-1.0,-3.0,-6.0,-10.0,-2.0,1.0,1651094082414320.0,3
1860,-2.0,-1.0,-1.0,-1.0,-1.0,-13.0,-1.0,0.0,1651094082423456.0,3
1861,1.0,0.0,2.0,2.0,23.0,28.0,3.0,2.0,1651094082423456.0,3
1862,0.0,0.0,-2.0,0.0,-5.0,-3.0,1.0,1.0,1651094082438792.0,3
1863,-1.0,0.0,-3.0,0.0,-10.0,-5.0,-1.0,-1.0,1651094082438792.0,3
1864,-1.0,0.0,-3.0,-1.0,3.0,7.0,0.0,-3.0,1651094082439597.0,3
1865,-2.0,-2.0,0.0,-3.0,-27.0,-20.0,-2.0,-2.0,1651094082439597.0,3
1866,0.0,1.0,-2.0,2.0,7.0,-9.0,-2.0,-1.0,1651094082460304.0,3
1867,-2.0,-3.0,-4.0,-9.0,22.0,1.0,-3.0,-2.0,1651094082460304.0,3
1868,-1.0,0.0,-3.0,5.0,-3.0,-2.0,0.0,0.0,1651094082462335.0,3
