,EMG_s0,EMG_s1,EMG_s2,EMG_s3,EMG_s4,EMG_s5,EMG_s6,EMG_s7,timestamp,signal
0,0.0,-1.0,-3.0,-2.0,-2.0,-2.0,-1.0,-2.0,1651091785285173.0,0
1,-2.0,-1.0,-3.0,-3.0,-24.0,2.0,1.0,-1.0,1651091785285173.0,0
2,-1.0,0.0,-1.0,0.0,6.0,1.0,-1.0,0.0,1651091785285173.0,0
3,-1.0,1.0,2.0,-1.0,-10.0,-1.0,-1.0,-1.0,1651091785285173.0,0
4,0.0,-2.0,-3.0,-1.0,0.0,0.0,0.0,0.0,1651091785298974.0,0
5,0.0,-3.0,1.0,0.0,12.0,-2.0,-1.0,-1.0,1651091785298974.0,0
6,1.0,1.0,-1.0,0.0,-6.0,0.0,-1.0,-1.0,1651091785307627.0,0
7,1.0,-2.0,2.0,-2.0,-3.0,0.0,-1.0,0.0,1651091785307627.0,0
8,-3.0,-1.0,-1.0,-1.0,-2.0,-2.0,0.0,1.0,1651091785323138.0,0
9,-1.0,1.0,3.0,-2.0,-4.0,-3.0,1.0,-1.0,1651091785323138.0,0
10,-1.0,-1.0,-5.0,-5.0,6.0,4.0,1.0,0.0,1651091785323138.0,0
11,-2.0,-2.0,-14.0,1.0,-2.0,-2.0,-1.0,-1.0,1651091785323138.0,0
12,0.0,7.0,24.0,3.0,2.0,-1.0,-1.0,-1.0,1651091785345237.0,0
13,0.0,-1.0,-2.0,0.0,-1.0,-1.0,0.0,0.0,1651091785345237.0,0
14,-3.0,-1.0,-3.0,1.0,2.0,-3.0,-1.0,-1.0,1651091785345237.0,0
15,-1.0,1.0,-4.0,-1.0,-2.0,-2.0,1.0,-1.0,1651091785345237.0,0
16,-1.0,-5.0,-10.0,0.0,-6.0,0.0,0.0,-1.0,1651091785368674.0,0
17,1.0,0.0,2.0,-2.0,7.0,-1.0,1.0,1.0,1651091785368674.0,0
18,1.0,0.0,5.0,3.0,11.0,3.0,-1.0,0.0,1651091785368674.0,0
19,1.0,-1.0,-1.0,0.0,-8.0,-1.0,-2.0,-1.0,1651091785368674.0,0
20,0.0,-2.0,-4.0,-2.0,-3.0,1.0,0.0,-1.0,1651091785382569.0,0
21,-1.0,2.0,2.0,0.0,7.0,1.0,-1.0,-1.0,1651091785382569.0,0
22,-1.0,-2.0,-1.0,-1.0,-1.0,-2.0,0.0,-1.0,1651091785382569.0,0
23,0.0,1.0,3.0,-2.0,-4.0,-1.0,-1.0,0.0,1651091785382569.0,0
24,-1.0,0.0,-1.0,-2.0,2.0,-1.0,1.0,-2.0,1651091785405262.0,0
25,-1.0,-1.0,-3.0,-1.0,-1.0,0.0,0.0,-1.0,1651091785405262.0,0
26,-3.0,-2.0,-7.0,2.0,-3.0,-1.0,0.0,-1.0,1651091785405262.0,0
27,-1.0,2.0,8.0,2.0,3.0,-1.0,-1.0,-1.0,1651091785405262.0,0
28,1.0,-1.0,-3.0,0.0,-1.0,0.0,-1.0,-2.0,1651091785419230.0,0
29,0.0,0.0,-2.0,-1.0,0.0,-2.0,-1.0,-1.0,1651091785419230.0,0
30,-1.0,0.0,1.0,0.0,4.0,-1.0,0.0,0.0,1651091785426048.0,0
31,1.0,0.0,-1.0,-1.0,1.0,0.0,-1.0,1.0,1651091785426048.0,0
32,-1.0,-3.0,-6.0,-3.0,-2.0,-1.0,0.0,-1.0,1651091785442004.0,0
33,-1.0,-3.0,-11.0,0.0,5.0,1.0,0.0,0.0,1651091785442004.0,0
34,-1.0,0.0,12.0,-1.0,-2.0,0.0,0.0,-1.0,1651091785443002.0,0
35,-3.0,-2.0,-2.0,0.0,-11.0,-3.0,-1.0,0.0,1651091785443002.0,0
36,1.0,1.0,-3.0,1.0,15.0,3.0,0.0,-1.0,1651091785463945.0,0
37,-2.0,-3.0,0.0,-1.0,-2.0,-3.0,-1.0,-1.0,1651091785463945.0,0
38,0.0,-3.0,-13.0,0.0,2.0,-2.0,-1.0,-1.0,1651091785464943.0,0
39,-1.0,3.0,13.0,-2.0,-24.0,0.0,-1.0,-2.0,1651091785464943.0,0
40,0.0,2.0,0.0,0.0,24.0,0.0,-1.0,-1.0,1651091785486930.0,0
41,-1.0,-1.0,3.0,0.0,-2.0,1.0,-2.0,0.0,1651091785486930.0,0
42,0.0,0.0,-4.0,0.0,1.0,0.0,0.0,-1.0,1651091785487903.0,0
43,0.0,0.0,1.0,-1.0,0.0,-1.0,0.0,-1.0,1651091785487903.0,0
44,-2.0,-2.0,-4.0,-2.0,-3.0,-2.0,-1.0,-1.0,1651091785501899.0,0
45,0.0,2.0,1.0,0.0,-3.0,6.0,-1.0,-1.0,1651091785501899.0,0
46,1.0,-1.0,6.0,-2.0,-8.0,-1.0,0.0,0.0,1651091785502864.0,0
47,-1.0,-2.0,-6.0,1.0,5.0,-1.0,2.0,0.0,1651091785502864.0,0
48,-2.0,-4.0,-3.0,-1.0,-8.0,-1.0,0.0,1.0,1651091785525287.0,0
49,-1.0,-2.0,-2.0,-1.0,4.0,-2.0,-1.0,-2.0,1651091785525287.0,0
50,-2.0,0.0,1.0,-3.0,-7.0,-1.0,-1.0,0.0,1651091785525287.0,0
51,0.0,1.0,-1.0,-1.0,9.0,0.0,1.0,-1.0,1651091785525287.0,0
52,1.0,1.0,-2.0,1.0,1.0,2.0,1.0,-1.0,1651091785547532.0,0
53,-1.0,0.0,-3.0,1.0,4.0,-2.0,-1.0,0.0,1651091785547532.0,0
54,-2.0,2.0,4.0,2.0,-5.0,1.0,-1.0,-2.0,1651091785547532.0,0
55,0.0,-4.0,0.0,-2.0,7.0,-1.0,-1.0,-1.0,1651091785547532.0,0
56,-1.0,1.0,0.0,-2.0,4.0,-1.0,-1.0,0.0,1651091785563703.0,0
57,-2.0,-3.0,-10.0,0.0,-7.0,-2.0,0.0,-1.0,1651091785563703.0,0
58,0.0,1.0,11.0,-3.0,1.0,-2.0,-2.0,0.0,1651091785564545.0,0
59,-1.0,0.0,-2.0,1.0,-2.0,0.0,-1.0,-1.0,1651091785564545.0,0
60,-1.0,0.0,0.0,1.0,-4.0,-1.0,-1.0,-2.0,1651091785585167.0,0
61,0.0,-4.0,-6.0,-1.0,-16.0,1.0,-1.0,-1.0,1651091785585167.0,0
62,-1.0,1.0,2.0,-1.0,5.0,-1.0,0.0,0.0,1651091785586002.0,0
63,-1.0,-1.0,-1.0,-4.0,2.0,-2.0,0.0,-1.0,1651091785586002.0,0
64,0.0,0.0,1.0,0.0,-16.0,-3.0,-1.0,-1.0,1651091785615380.0,0
65,1.0,0.0,2.0,0.0,35.0,1.0,1.0,-2.0,1651091785615380.0,0
66,-1.0,-3.0,-8.0,-1.0,8.0,3.0,1.0,1.0,1651091785616234.0,0
67,-1.0,-4.0,-4.0,0.0,-1.0,-2.0,-2.0,-1.0,1651091785616234.0,0
68,1.0,2.0,6.0,1.0,-6.0,-1.0,-1.0,1.0,1651091785622354.0,0
69,0.0,0.0,3.0,-4.0,-8.0,-3.0,-1.0,1.0,1651091785622354.0,0
70,-1.0,-2.0,-4.0,0.0,-7.0,0.0,-1.0,-2.0,1651091785623217.0,0
71,0.0,-1.0,0.0,3.0,7.0,2.0,0.0,-1.0,1651091785623217.0,0
72,-2.0,-1.0,-4.0,-2.0,-7.0,-1.0,-1.0,-2.0,1651091785643506.0,0
73,0.0,1.0,4.0,-4.0,-5.0,0.0,-1.0,1.0,1651091785643506.0,0
74,0.0,-1.0,-1.0,3.0,0.0,0.0,1.0,1.0,1651091785652590.0,0
75,-2.0,-1.0,0.0,2.0,0.0,-1.0,0.0,-1.0,1651091785652590.0,0
76,-2.0,-2.0,-2.0,-2.0,-4.0,-1.0,1.0,-1.0,1651091785667918.0,0
77,0.0,3.0,4.0,0.0,1.0,-1.0,1.0,0.0,1651091785667918.0,0
78,1.0,-3.0,-5.0,-2.0,-3.0,-1.0,-1.0,-1.0,1651091785667918.0,0
79,0.0,-2.0,-4.0,-3.0,-4.0,1.0,-3.0,0.0,1651091785667918.0,0
80,1.0,-1.0,1.0,-1.0,-2.0,0.0,-2.0,-1.0,1651091785691316.0,0
81,-1.0,-1.0,-11.0,1.0,10.0,3.0,-1.0,-1.0,1651091785691316.0,0
82,0.0,3.0,14.0,-1.0,-5.0,-4.0,0.0,-1.0,1651091785691316.0,0
83,1.0,2.0,-2.0,0.0,-4.0,-2.0,0.0,0.0,1651091785691316.0,0
84,1.0,0.0,0.0,-1.0,-4.0,-2.0,1.0,1.0,1651091785704318.0,0
85,0.0,0.0,-1.0,2.0,7.0,2.0,1.0,2.0,1651091785704318.0,0
86,2.0,-1.0,-7.0,1.0,-5.0,-1.0,-1.0,-1.0,1651091785712323.0,0
87,-1.0,2.0,-1.0,-5.0,2.0,-1.0,-1.0,-1.0,1651091785712323.0,0
88,-1.0,-2.0,-2.0,-7.0,-10.0,-1.0,0.0,-1.0,1651091785727540.0,0
89,-1.0,0.0,-1.0,3.0,-6.0,-2.0,-1.0,-1.0,1651091785727540.0,0
90,1.0,-1.0,-1.0,4.0,0.0,0.0,-1.0,1.0,1651091785727540.0,0
91,1.0,2.0,2.0,-3.0,0.0,-1.0,0.0,-1.0,1651091785727540.0,0
92,-2.0,-1.0,-4.0,-1.0,-14.0,2.0,1.0,0.0,1651091785750650.0,0
93,0.0,-1.0,0.0,-3.0,-4.0,-2.0,-2.0,-1.0,1651091785750650.0,0
94,0.0,5.0,9.0,-2.0,6.0,0.0,0.0,1.0,1651091785750650.0,0
95,2.0,-1.0,-5.0,-1.0,-4.0,-1.0,1.0,-1.0,1651091785750650.0,0
96,0.0,-4.0,-4.0,1.0,7.0,0.0,0.0,0.0,1651091785763978.0,0
97,-1.0,-1.0,4.0,0.0,0.0,0.0,-1.0,-1.0,1651091785763978.0,0
98,0.0,-3.0,-7.0,-2.0,-8.0,-2.0,-1.0,-3.0,1651091785773102.0,0
99,-2.0,-1.0,-1.0,2.0,2.0,0.0,0.0,0.0,1651091785773102.0,0
100,-1.0,2.0,1.0,0.0,9.0,0.0,0.0,0.0,1651091785787501.0,0
101,0.0,-2.0,2.0,-3.0,-11.0,-3.0,-2.0,0.0,1651091785787501.0,0
102,-3.0,-1.0,-5.0,0.0,14.0,-1.0,-1.0,1.0,1651091785787501.0,0
103,0.0,0.0,1.0,0.0,3.0,0.0,-1.0,-1.0,1651091785787501.0,0
104,0.0,2.0,-1.0,1.0,-7.0,-2.0,0.0,-1.0,1651091785810504.0,0
105,-2.0,0.0,0.0,-2.0,5.0,-1.0,1.0,0.0,1651091785810504.0,0
106,0.0,-1.0,-2.0,2.0,-4.0,0.0,-3.0,-1.0,1651091785810504.0,0
107,-1.0,-3.0,-5.0,-1.0,-1.0,3.0,-1.0,0.0,1651091785810504.0,0
108,0.0,2.0,5.0,1.0,7.0,-2.0,-1.0,0.0,1651091785824807.0,0
109,-1.0,4.0,8.0,-1.0,-23.0,0.0,0.0,-1.0,1651091785824807.0,0
110,-2.0,-3.0,-10.0,-2.0,2.0,-1.0,-1.0,0.0,1651091785831825.0,0
111,-2.0,0.0,8.0,0.0,1.0,-2.0,-1.0,1.0,1651091785831825.0,0
112,0.0,-1.0,-4.0,-1.0,-1.0,0.0,-2.0,-1.0,1651091785847142.0,0
113,0.0,0.0,-4.0,-2.0,-6.0,-3.0,2.0,0.0,1651091785847142.0,0
114,-1.0,-1.0,-3.0,0.0,4.0,4.0,0.0,1.0,1651091785847982.0,0
115,-1.0,-4.0,-4.0,0.0,2.0,-1.0,0.0,-1.0,1651091785847982.0,0
116,-2.0,0.0,1.0,0.0,0.0,-2.0,0.0,1.0,1651091785870768.0,0
117,0.0,-2.0,0.0,1.0,0.0,-2.0,0.0,0.0,1651091785870768.0,0
118,-1.0,2.0,0.0,-1.0,1.0,2.0,-2.0,0.0,1651091785870768.0,0
119,1.0,0.0,0.0,-5.0,-3.0,-1.0,-1.0,1.0,1651091785870768.0,0
120,-2.0,0.0,0.0,2.0,-1.0,1.0,1.0,-1.0,1651091785883788.0,0
121,-1.0,-2.0,2.0,2.0,8.0,0.0,0.0,-1.0,1651091785883788.0,0
122,-1.0,-1.0,-4.0,-3.0,-8.0,-2.0,1.0,-2.0,1651091785892612.0,0
123,-1.0,0.0,1.0,-2.0,1.0,0.0,0.0,-4.0,1651091785892612.0,0
124,0.0,0.0,0.0,-1.0,14.0,1.0,1.0,0.0,1651091785907935.0,0
125,1.0,-6.0,-14.0,-2.0,-5.0,1.0,-1.0,1.0,1651091785907935.0,0
126,-1.0,3.0,20.0,-3.0,2.0,-3.0,-1.0,0.0,1651091785908812.0,0
127,-1.0,2.0,-3.0,-1.0,-8.0,-2.0,-1.0,-1.0,1651091785908812.0,0
128,1.0,-1.0,-2.0,-2.0,2.0,-2.0,-1.0,1.0,1651091785929721.0,0
129,-1.0,0.0,-4.0,0.0,-1.0,-2.0,-2.0,-1.0,1651091785929721.0,0
130,0.0,-6.0,-12.0,0.0,6.0,1.0,-1.0,-2.0,1651091785930718.0,0
131,1.0,2.0,10.0,1.0,9.0,2.0,0.0,1.0,1651091785930718.0,0
132,-1.0,0.0,3.0,0.0,-12.0,-2.0,-3.0,-2.0,1651091785943769.0,0
133,-2.0,-2.0,-1.0,-1.0,-1.0,0.0,-2.0,-1.0,1651091785943769.0,0
134,-2.0,-1.0,0.0,-2.0,-4.0,-1.0,0.0,0.0,1651091785952742.0,0
135,-1.0,-2.0,-5.0,1.0,-9.0,-2.0,-1.0,-1.0,1651091785952742.0,0
136,-2.0,-2.0,-4.0,-2.0,9.0,2.0,1.0,-1.0,1651091785968078.0,0
137,0.0,1.0,4.0,1.0,-6.0,1.0,-1.0,0.0,1651091785968078.0,0
138,-1.0,0.0,2.0,2.0,-18.0,1.0,-1.0,-1.0,1651091785968078.0,0
139,1.0,-2.0,-3.0,-1.0,4.0,1.0,1.0,-1.0,1651091785968078.0,0
140,0.0,1.0,1.0,-1.0,-5.0,-2.0,1.0,0.0,1651091785990661.0,0
141,-2.0,-1.0,-1.0,-3.0,0.0,-3.0,0.0,0.0,1651091785990661.0,0
142,0.0,-1.0,-5.0,-3.0,-4.0,-4.0,0.0,0.0,1651091785990661.0,0
143,0.0,-1.0,-1.0,1.0,13.0,4.0,1.0,-1.0,1651091785990661.0,0
144,1.0,1.0,4.0,-1.0,-6.0,-1.0,-2.0,0.0,1651091786013749.0,0
145,0.0,-1.0,1.0,-1.0,7.0,1.0,-2.0,-1.0,1651091786013749.0,0
146,0.0,-1.0,-5.0,-2.0,-5.0,-1.0,0.0,0.0,1651091786013749.0,0
147,-2.0,-2.0,-1.0,-1.0,-13.0,-3.0,0.0,-1.0,1651091786013749.0,0
148,0.0,-2.0,-3.0,-1.0,4.0,0.0,0.0,-1.0,1651091786026791.0,0
149,-1.0,3.0,2.0,0.0,3.0,0.0,-1.0,-2.0,1651091786026791.0,0
150,0.0,-1.0,0.0,0.0,6.0,2.0,-2.0,-1.0,1651091786027875.0,0
151,1.0,0.0,-6.0,-5.0,-8.0,-1.0,1.0,0.0,1651091786027875.0,0
152,-1.0,1.0,4.0,4.0,0.0,-2.0,-1.0,0.0,1651091786050051.0,0
153,0.0,-1.0,-1.0,1.0,2.0,1.0,-1.0,-2.0,1651091786050051.0,0
154,1.0,0.0,0.0,-1.0,-7.0,-1.0,0.0,-2.0,1651091786051035.0,0
155,0.0,-2.0,-2.0,-1.0,6.0,0.0,-1.0,-1.0,1651091786051035.0,0
156,0.0,-3.0,-10.0,-3.0,-14.0,2.0,0.0,0.0,1651091786073604.0,0
157,-2.0,3.0,10.0,-1.0,-3.0,-1.0,1.0,1.0,1651091786073604.0,0
158,-2.0,-1.0,-4.0,-1.0,2.0,-1.0,-3.0,-3.0,1651091786073604.0,0
159,-2.0,-2.0,-5.0,1.0,3.0,0.0,-1.0,0.0,1651091786073604.0,0
160,-1.0,0.0,8.0,0.0,0.0,-1.0,-1.0,-1.0,1651091786087583.0,0
161,0.0,1.0,0.0,1.0,-18.0,-3.0,0.0,-2.0,1651091786087583.0,0
162,0.0,-2.0,-6.0,-2.0,24.0,3.0,0.0,-1.0,1651091786087583.0,0
163,-1.0,-2.0,-1.0,0.0,-15.0,-1.0,0.0,2.0,1651091786087583.0,0
164,1.0,-2.0,-5.0,0.0,14.0,1.0,1.0,-1.0,1651091786110614.0,0
165,1.0,-2.0,-1.0,-1.0,-6.0,-2.0,0.0,-1.0,1651091786110614.0,0
166,0.0,3.0,6.0,3.0,-4.0,-2.0,1.0,0.0,1651091786110614.0,0
167,-1.0,-1.0,-4.0,0.0,-4.0,-1.0,-2.0,-1.0,1651091786110614.0,0
168,0.0,1.0,-1.0,-5.0,-2.0,-2.0,0.0,0.0,1651091786140995.0,0
169,1.0,3.0,3.0,4.0,18.0,2.0,1.0,-2.0,1651091786140995.0,0
170,1.0,-1.0,-3.0,0.0,-3.0,-3.0,-2.0,2.0,1651091786140995.0,0
171,-1.0,-2.0,1.0,-1.0,6.0,-1.0,-1.0,2.0,1651091786140995.0,0
172,-2.0,0.0,-2.0,1.0,-6.0,-1.0,-1.0,0.0,1651091786146893.0,0
173,0.0,0.0,-3.0,-4.0,-2.0,-1.0,0.0,-2.0,1651091786146893.0,0
174,-2.0,-1.0,-2.0,-1.0,-2.0,2.0,1.0,0.0,1651091786147856.0,0
175,0.0,1.0,5.0,0.0,-3.0,-1.0,0.0,-1.0,1651091786147856.0,0
176,-1.0,-1.0,-1.0,1.0,10.0,0.0,-2.0,-1.0,1651091786169958.0,0
177,-2.0,-1.0,-7.0,-2.0,-3.0,1.0,-1.0,1.0,1651091786169958.0,0
178,0.0,1.0,-1.0,-1.0,-6.0,-2.0,0.0,-2.0,1651091786170956.0,0
179,1.0,0.0,1.0,-1.0,-2.0,-1.0,0.0,-2.0,1651091786170956.0,0
180,0.0,-3.0,-2.0,-1.0,-4.0,-1.0,1.0,0.0,1651091786192368.0,0
181,0.0,-2.0,-3.0,-1.0,4.0,-1.0,-1.0,1.0,1651091786192368.0,0
182,1.0,1.0,4.0,-1.0,9.0,-1.0,0.0,0.0,1651091786193370.0,0
183,-1.0,2.0,3.0,1.0,3.0,0.0,-1.0,0.0,1651091786193370.0,0
184,-1.0,-1.0,-2.0,-2.0,0.0,-1.0,1.0,0.0,1651091786207514.0,0
185,0.0,-9.0,-23.0,-5.0,-1.0,1.0,0.0,1.0,1651091786207514.0,0
186,0.0,4.0,24.0,0.0,-1.0,-3.0,-1.0,-2.0,1651091786207514.0,0
187,0.0,4.0,-1.0,1.0,6.0,0.0,-1.0,-1.0,1651091786207514.0,0
188,-2.0,-1.0,-2.0,-1.0,-5.0,1.0,0.0,0.0,1651091786230896.0,0
189,-1.0,1.0,3.0,0.0,3.0,0.0,-1.0,-2.0,1651091786230896.0,0
190,1.0,-4.0,-12.0,-1.0,-4.0,-1.0,-1.0,1.0,1651091786230896.0,0
191,-1.0,-1.0,-1.0,0.0,-2.0,0.0,0.0,-1.0,1651091786230896.0,0
192,0.0,0.0,2.0,-1.0,-5.0,-1.0,-1.0,0.0,1651091786252840.0,0
193,0.0,1.0,2.0,0.0,-7.0,-1.0,0.0,0.0,1651091786252840.0,0
194,-1.0,0.0,-4.0,-2.0,-1.0,0.0,1.0,0.0,1651091786253711.0,0
195,-1.0,-4.0,-3.0,-1.0,1.0,0.0,-1.0,-1.0,1651091786253711.0,0
196,-1.0,0.0,3.0,1.0,1.0,0.0,-1.0,-2.0,1651091786267787.0,0
197,0.0,1.0,4.0,1.0,-2.0,0.0,-1.0,0.0,1651091786267787.0,0
198,-1.0,0.0,-2.0,0.0,-11.0,-3.0,-2.0,-1.0,1651091786267787.0,0
199,-1.0,-1.0,-3.0,-2.0,6.0,-1.0,0.0,-2.0,1651091786267787.0,0
200,1.0,-2.0,-3.0,-2.0,11.0,-1.0,0.0,-2.0,1651091786290930.0,0
201,-1.0,1.0,4.0,-1.0,-1.0,-1.0,0.0,0.0,1651091786290930.0,0
202,-3.0,-2.0,-2.0,0.0,-15.0,0.0,-2.0,-1.0,1651091786290930.0,0
203,0.0,0.0,-2.0,2.0,21.0,0.0,0.0,-1.0,1651091786290930.0,0
204,0.0,2.0,1.0,1.0,-5.0,2.0,2.0,1.0,1651091786313051.0,0
205,0.0,2.0,6.0,-1.0,0.0,-1.0,0.0,-1.0,1651091786313051.0,0
206,-1.0,-2.0,-7.0,-3.0,-2.0,-1.0,2.0,0.0,1651091786313953.0,0
207,-1.0,-1.0,1.0,-2.0,-6.0,-3.0,-1.0,1.0,1651091786313953.0,0
208,0.0,-1.0,1.0,-1.0,-6.0,-3.0,-1.0,-1.0,1651091786335419.0,0
209,1.0,-5.0,-8.0,-1.0,5.0,-1.0,1.0,0.0,1651091786335419.0,0
210,0.0,2.0,4.0,-1.0,-4.0,-3.0,0.0,0.0,1651091786336292.0,0
211,1.0,6.0,11.0,2.0,-7.0,1.0,-1.0,-2.0,1651091786336292.0,0
212,1.0,0.0,-3.0,-1.0,-1.0,0.0,-1.0,-1.0,1651091786350640.0,0
213,0.0,-5.0,-5.0,-2.0,-3.0,1.0,0.0,0.0,1651091786350640.0,0
214,-1.0,0.0,5.0,1.0,5.0,-2.0,-1.0,0.0,1651091786350640.0,0
215,-1.0,-3.0,-6.0,-3.0,-8.0,-4.0,-2.0,-1.0,1651091786350640.0,0
216,-2.0,1.0,-2.0,-2.0,2.0,1.0,0.0,-1.0,1651091786373246.0,0
217,-1.0,0.0,-1.0,3.0,-7.0,2.0,-1.0,0.0,1651091786373246.0,0
218,2.0,-1.0,-4.0,3.0,4.0,1.0,-1.0,-1.0,1651091786373880.0,0
219,0.0,-1.0,0.0,-2.0,-6.0,-1.0,-1.0,1.0,1651091786373880.0,0
220,-2.0,-1.0,1.0,-1.0,-8.0,-2.0,-1.0,0.0,1651091786387394.0,0
221,0.0,0.0,2.0,1.0,25.0,1.0,-1.0,0.0,1651091786387394.0,0
222,0.0,0.0,0.0,1.0,2.0,1.0,2.0,0.0,1651091786388230.0,0
223,-1.0,-1.0,-3.0,0.0,-6.0,0.0,0.0,-2.0,1651091786388230.0,0
224,-1.0,-1.0,-1.0,-3.0,7.0,0.0,0.0,-1.0,1651091786418739.0,0
225,-2.0,1.0,3.0,-1.0,-9.0,-2.0,-1.0,-1.0,1651091786418739.0,0
226,-1.0,-1.0,-2.0,-4.0,5.0,-1.0,0.0,-1.0,1651091786418739.0,0
227,-1.0,-2.0,-2.0,-1.0,-23.0,-2.0,-1.0,0.0,1651091786418739.0,0
228,1.0,-1.0,-1.0,0.0,2.0,0.0,-1.0,1.0,1651091786433081.0,0
229,-1.0,1.0,4.0,-1.0,8.0,0.0,0.0,0.0,1651091786433081.0,0
230,0.0,-3.0,-2.0,-2.0,-1.0,0.0,-1.0,0.0,1651091786433081.0,0
231,0.0,-4.0,-9.0,-4.0,-8.0,-2.0,0.0,1.0,1651091786433081.0,0
232,-1.0,1.0,9.0,-1.0,-2.0,-2.0,-1.0,-1.0,1651091786448065.0,0
233,-1.0,3.0,7.0,3.0,9.0,1.0,-2.0,-1.0,1651091786448065.0,0
234,-1.0,-2.0,-6.0,2.0,-4.0,-2.0,-2.0,-2.0,1651091786448065.0,0
235,-1.0,0.0,1.0,-1.0,13.0,1.0,0.0,0.0,1651091786448065.0,0
236,-1.0,-2.0,-5.0,1.0,-8.0,1.0,0.0,0.0,1651091786471391.0,0
237,-1.0,-1.0,-4.0,-2.0,1.0,-3.0,0.0,-1.0,1651091786471391.0,0
238,0.0,-1.0,-2.0,-1.0,3.0,0.0,0.0,1.0,1651091786471391.0,0
239,-2.0,1.0,8.0,0.0,-4.0,1.0,0.0,1.0,1651091786471391.0,0
240,0.0,0.0,-2.0,0.0,5.0,1.0,1.0,-2.0,1651091786492424.0,0
241,-1.0,-1.0,-3.0,-1.0,-15.0,-4.0,0.0,-2.0,1651091786492424.0,0
242,-2.0,-1.0,-1.0,-1.0,7.0,3.0,-1.0,1.0,1651091786499438.0,0
243,-1.0,-1.0,-2.0,-1.0,5.0,2.0,0.0,0.0,1651091786499438.0,0
244,1.0,-3.0,-5.0,-1.0,-6.0,-3.0,-2.0,0.0,1651091786507572.0,0
245,0.0,2.0,4.0,2.0,-14.0,-2.0,-1.0,-1.0,1651091786507572.0,0
246,-1.0,1.0,1.0,-1.0,18.0,2.0,-1.0,0.0,1651091786507572.0,0
247,-1.0,-1.0,-2.0,-1.0,4.0,-1.0,0.0,-1.0,1651091786507572.0,0
248,-3.0,-2.0,-1.0,1.0,1.0,0.0,-1.0,1.0,1651091786530735.0,0
249,-2.0,-1.0,-7.0,-5.0,-5.0,-2.0,-1.0,0.0,1651091786530735.0,0
250,0.0,0.0,1.0,1.0,-4.0,-2.0,-1.0,-1.0,1651091786530735.0,0
251,1.0,2.0,1.0,2.0,-5.0,2.0,0.0,-1.0,1651091786530735.0,0
252,-2.0,0.0,-3.0,0.0,2.0,-1.0,1.0,-1.0,1651091786553200.0,0
253,0.0,0.0,0.0,-2.0,8.0,-1.0,-1.0,0.0,1651091786553200.0,0
254,-2.0,-3.0,-2.0,-1.0,-38.0,1.0,0.0,0.0,1651091786553922.0,0
255,1.0,1.0,4.0,-4.0,10.0,-4.0,-2.0,0.0,1651091786553922.0,0
256,0.0,-1.0,-12.0,-2.0,-29.0,-1.0,0.0,0.0,1651091786567236.0,0
257,0.0,2.0,13.0,2.0,10.0,4.0,0.0,0.0,1651091786567236.0,0
258,0.0,-3.0,-2.0,-2.0,1.0,1.0,-1.0,0.0,1651091786567236.0,0
259,-1.0,-3.0,-8.0,2.0,-4.0,-2.0,-1.0,-1.0,1651091786567236.0,0
260,-1.0,0.0,0.0,-5.0,-10.0,-4.0,-1.0,-2.0,1651091786590593.0,0
261,-1.0,0.0,-4.0,1.0,-6.0,-3.0,-2.0,0.0,1651091786590593.0,0
262,-1.0,-2.0,-1.0,0.0,19.0,-1.0,1.0,-1.0,1651091786590593.0,0
263,0.0,-2.0,3.0,1.0,-16.0,-2.0,0.0,0.0,1651091786590593.0,0
264,0.0,2.0,2.0,2.0,13.0,1.0,0.0,-1.0,1651091786613705.0,0
265,1.0,1.0,-4.0,-3.0,1.0,-1.0,0.0,1.0,1651091786613705.0,0
266,-1.0,-1.0,-2.0,-2.0,-3.0,-2.0,-1.0,-1.0,1651091786613705.0,0
267,0.0,1.0,4.0,-4.0,-2.0,-1.0,-1.0,0.0,1651091786613705.0,0
268,-1.0,1.0,5.0,6.0,25.0,1.0,-1.0,1.0,1651091786626079.0,0
269,1.0,-1.0,-3.0,4.0,-7.0,-1.0,-1.0,-1.0,1651091786626079.0,0
270,-2.0,-3.0,-1.0,-3.0,-1.0,0.0,0.0,0.0,1651091786635389.0,0
271,-2.0,-1.0,-3.0,-3.0,3.0,-1.0,0.0,0.0,1651091786635389.0,0
272,2.0,2.0,1.0,-1.0,5.0,0.0,0.0,-1.0,1651091786650564.0,0
273,-1.0,-6.0,-4.0,-1.0,-11.0,5.0,2.0,0.0,1651091786650564.0,0
274,0.0,2.0,0.0,-1.0,-4.0,-2.0,0.0,0.0,1651091786651425.0,0
275,-2.0,3.0,3.0,0.0,5.0,0.0,-1.0,-2.0,1651091786651425.0,0
276,-1.0,-1.0,-1.0,-1.0,6.0,-1.0,-1.0,-3.0,1651091786672870.0,0
277,0.0,-3.0,-2.0,0.0,6.0,-2.0,-2.0,-1.0,1651091786672870.0,0
278,0.0,0.0,-3.0,1.0,-1.0,1.0,-1.0,0.0,1651091786679959.0,0
279,-1.0,-2.0,-3.0,1.0,-5.0,-2.0,-1.0,0.0,1651091786679959.0,0
280,0.0,0.0,2.0,-4.0,-42.0,-2.0,-1.0,1.0,1651091786695442.0,0
281,-2.0,-3.0,-2.0,0.0,21.0,1.0,0.0,-1.0,1651091786695442.0,0
282,-1.0,1.0,-13.0,-1.0,-1.0,0.0,-1.0,0.0,1651091786696319.0,0
283,0.0,5.0,19.0,4.0,6.0,2.0,2.0,-1.0,1651091786696319.0,0
284,-1.0,-5.0,-5.0,0.0,1.0,-3.0,0.0,1.0,1651091786710696.0,0
285,0.0,-2.0,-4.0,-3.0,-10.0,-4.0,-1.0,-4.0,1651091786710696.0,0
286,0.0,0.0,5.0,-2.0,-6.0,-2.0,1.0,-1.0,1651091786711696.0,0
287,-1.0,-4.0,-10.0,-2.0,3.0,-3.0,-1.0,-1.0,1651091786711696.0,0
288,0.0,-2.0,-2.0,0.0,12.0,1.0,0.0,0.0,1651091786733169.0,0
289,-2.0,1.0,2.0,-1.0,-12.0,-2.0,1.0,0.0,1651091786733169.0,0
290,-1.0,1.0,2.0,-1.0,11.0,0.0,-2.0,-3.0,1651091786734061.0,0
291,1.0,0.0,-4.0,-1.0,-12.0,-1.0,0.0,0.0,1651091786734061.0,0
292,1.0,2.0,5.0,0.0,-5.0,0.0,-2.0,0.0,1651091786756363.0,0
293,0.0,0.0,-2.0,-2.0,6.0,-3.0,-1.0,0.0,1651091786756363.0,0
294,-1.0,1.0,3.0,1.0,-3.0,-1.0,-1.0,0.0,1651091786757237.0,0
295,0.0,-3.0,-4.0,0.0,-2.0,2.0,1.0,0.0,1651091786757237.0,0
296,-2.0,-1.0,-7.0,-3.0,0.0,-2.0,0.0,0.0,1651091786770579.0,0
297,0.0,1.0,7.0,-3.0,4.0,1.0,0.0,-2.0,1651091786770579.0,0
298,-1.0,0.0,0.0,4.0,0.0,0.0,0.0,-1.0,1651091786771423.0,0
299,-1.0,2.0,-1.0,1.0,4.0,1.0,-1.0,0.0,1651091786771423.0,0
300,-1.0,-1.0,0.0,0.0,2.0,0.0,0.0,0.0,1651091786792754.0,0
301,-2.0,-1.0,-3.0,-5.0,-8.0,-6.0,-2.0,1.0,1651091786792754.0,0
302,0.0,-3.0,-10.0,4.0,38.0,10.0,1.0,0.0,1651091786793766.0,0
303,0.0,-1.0,4.0,0.0,-5.0,-1.0,-2.0,0.0,1651091786793766.0,0
304,2.0,6.0,15.0,1.0,2.0,-1.0,0.0,0.0,1651091786807254.0,0
305,0.0,0.0,-4.0,2.0,0.0,-2.0,-1.0,-2.0,1651091786807254.0,0
306,-2.0,-4.0,0.0,-4.0,-15.0,-7.0,0.0,0.0,1651091786815239.0,0
307,-2.0,-4.0,-11.0,1.0,-7.0,1.0,-2.0,-2.0,1651091786815239.0,0
308,-1.0,-2.0,-3.0,-1.0,-5.0,0.0,-1.0,-1.0,1651091786830570.0,0
309,0.0,2.0,2.0,0.0,-22.0,0.0,0.0,0.0,1651091786830570.0,0
310,1.0,1.0,-3.0,-2.0,-17.0,-4.0,0.0,-1.0,1651091786831407.0,0
311,0.0,0.0,2.0,0.0,27.0,0.0,1.0,-1.0,1651091786831407.0,0
312,-3.0,-4.0,-4.0,-4.0,15.0,-4.0,-2.0,-1.0,1651091786853573.0,0
313,-1.0,-2.0,-2.0,-3.0,-42.0,2.0,1.0,0.0,1651091786853573.0,0
314,0.0,2.0,2.0,10.0,86.0,7.0,2.0,0.0,1651091786854414.0,0
315,1.0,0.0,0.0,-1.0,-33.0,-4.0,-2.0,-1.0,1651091786854414.0,0
316,-3.0,-1.0,-1.0,2.0,-1.0,-1.0,2.0,3.0,1651091786866845.0,1
317,-2.0,-2.0,-5.0,-2.0,23.0,0.0,-2.0,-3.0,1651091786866845.0,1
318,-3.0,-2.0,3.0,-7.0,-20.0,-5.0,-3.0,-2.0,1651091786882086.0,1
319,-2.0,-1.0,-2.0,-4.0,-82.0,-11.0,-2.0,-2.0,1651091786882086.0,1
320,1.0,0.0,-3.0,4.0,45.0,4.0,0.0,-3.0,1651091786890660.0,1
321,1.0,1.0,1.0,13.0,84.0,13.0,3.0,4.0,1651091786890660.0,1
322,-1.0,1.0,5.0,-1.0,-59.0,7.0,0.0,0.0,1651091786891659.0,1
323,-1.0,0.0,-4.0,-10.0,-59.0,-8.0,0.0,-2.0,1651091786891659.0,1
324,-1.0,-4.0,-4.0,-5.0,4.0,-7.0,-5.0,-3.0,1651091786913053.0,1
325,2.0,1.0,6.0,14.0,82.0,13.0,5.0,2.0,1651091786913053.0,1
326,-3.0,-2.0,-5.0,-4.0,-69.0,-10.0,-4.0,-7.0,1651091786913916.0,1
327,-22.0,0.0,3.0,-3.0,34.0,3.0,1.0,15.0,1651091786913916.0,1
328,37.0,2.0,-1.0,-5.0,-108.0,-14.0,-2.0,1.0,1651091786935473.0,1
329,3.0,-2.0,-5.0,-13.0,-4.0,-9.0,-5.0,0.0,1651091786935473.0,1
330,3.0,4.0,9.0,25.0,97.0,35.0,10.0,6.0,1651091786936313.0,1
331,5.0,-1.0,-2.0,-3.0,49.0,3.0,0.0,-3.0,1651091786936313.0,1
332,-15.0,-2.0,-4.0,-10.0,-17.0,-2.0,-4.0,-1.0,1651091786950626.0,1
333,-16.0,-2.0,-4.0,1.0,3.0,-2.0,1.0,0.0,1651091786950626.0,1
334,19.0,-1.0,-2.0,15.0,-70.0,-14.0,-5.0,0.0,1651091786951465.0,1
335,2.0,2.0,6.0,15.0,-75.0,9.0,0.0,-5.0,1651091786951465.0,1
336,2.0,5.0,6.0,-20.0,104.0,4.0,4.0,3.0,1651091786972650.0,1
337,1.0,0.0,0.0,13.0,16.0,3.0,-1.0,-2.0,1651091786972650.0,1
338,-13.0,-1.0,-3.0,-80.0,-54.0,-18.0,-5.0,-1.0,1651091786974646.0,1
339,5.0,-3.0,-10.0,23.0,-51.0,-3.0,0.0,-1.0,1651091786974646.0,1
340,-8.0,-1.0,7.0,82.0,98.0,18.0,1.0,-2.0,1651091786995945.0,1
341,0.0,0.0,-2.0,-20.0,-90.0,-22.0,-2.0,2.0,1651091786995945.0,1
342,-5.0,-2.0,-3.0,4.0,46.0,1.0,-2.0,-1.0,1651091786996782.0,1
343,7.0,2.0,4.0,-50.0,80.0,12.0,4.0,1.0,1651091786996782.0,1
344,-8.0,-4.0,-10.0,-31.0,-122.0,-13.0,-6.0,-8.0,1651091787010105.0,1
345,0.0,-2.0,2.0,42.0,32.0,-6.0,-3.0,-1.0,1651091787010105.0,1
346,1.0,0.0,1.0,-15.0,-35.0,-8.0,0.0,4.0,1651091787012090.0,1
347,2.0,-2.0,-4.0,-16.0,-79.0,-3.0,-3.0,-5.0,1651091787012090.0,1
348,-2.0,0.0,1.0,26.0,58.0,4.0,7.0,6.0,1651091787033636.0,1
349,-3.0,-3.0,-2.0,-23.0,-82.0,-7.0,-5.0,-6.0,1651091787033636.0,1
350,-1.0,4.0,4.0,2.0,-34.0,-8.0,-4.0,-3.0,1651091787034500.0,1
351,-4.0,-3.0,-6.0,-29.0,-3.0,-5.0,-3.0,-3.0,1651091787034500.0,1
352,0.0,0.0,-1.0,36.0,39.0,11.0,5.0,4.0,1651091787055541.0,1
353,2.0,-3.0,-2.0,-31.0,-19.0,6.0,2.0,0.0,1651091787055541.0,1
354,1.0,-2.0,-5.0,22.0,-8.0,-1.0,2.0,2.0,1651091787056413.0,1
355,2.0,2.0,5.0,26.0,15.0,6.0,2.0,1.0,1651091787056413.0,1
356,-3.0,-2.0,-2.0,-40.0,-115.0,-11.0,-4.0,0.0,1651091787069561.0,1
357,3.0,0.0,-1.0,4.0,9.0,-2.0,-1.0,1.0,1651091787069561.0,1
358,-8.0,-2.0,4.0,14.0,73.0,-6.0,-7.0,-8.0,1651091787076544.0,1
359,0.0,-4.0,-5.0,-15.0,17.0,-4.0,-3.0,-3.0,1651091787076544.0,1
360,-2.0,-1.0,-4.0,32.0,-13.0,1.0,2.0,0.0,1651091787092682.0,1
361,2.0,4.0,3.0,-7.0,34.0,7.0,5.0,3.0,1651091787092682.0,1
362,-3.0,-2.0,-3.0,-4.0,-36.0,9.0,-1.0,-2.0,1651091787094700.0,1
363,0.0,0.0,-2.0,-4.0,71.0,-4.0,-1.0,-1.0,1651091787094700.0,1
364,-6.0,-3.0,-3.0,-27.0,-49.0,-9.0,-4.0,-6.0,1651091787115143.0,1
365,2.0,0.0,0.0,25.0,-61.0,-6.0,-3.0,1.0,1651091787115143.0,1
366,3.0,-1.0,2.0,-17.0,-53.0,-2.0,4.0,6.0,1651091787116981.0,1
367,-4.0,-3.0,-1.0,49.0,14.0,3.0,-2.0,-5.0,1651091787116981.0,1
368,-2.0,-2.0,-1.0,-29.0,48.0,11.0,0.0,-1.0,1651091787130098.0,1
369,-3.0,1.0,0.0,0.0,-13.0,-1.0,-4.0,-5.0,1651091787130098.0,1
370,3.0,2.0,-1.0,1.0,8.0,-3.0,2.0,5.0,1651091787137075.0,1
371,-2.0,-3.0,-3.0,-16.0,-80.0,-6.0,0.0,-3.0,1651091787137075.0,1
372,-2.0,-1.0,-3.0,-7.0,90.0,5.0,0.0,0.0,1651091787152220.0,1
373,-1.0,-1.0,-4.0,-23.0,-97.0,-6.0,-4.0,-3.0,1651091787152220.0,1
374,1.0,2.0,6.0,70.0,81.0,24.0,8.0,5.0,1651091787160078.0,1
375,1.0,1.0,4.0,-11.0,-64.0,-15.0,-2.0,3.0,1651091787160078.0,1
376,0.0,1.0,5.0,22.0,-18.0,-1.0,-1.0,-2.0,1651091787176278.0,1
377,3.0,-3.0,-2.0,5.0,88.0,5.0,5.0,5.0,1651091787176278.0,1
378,-2.0,-4.0,-12.0,-41.0,-84.0,-3.0,0.0,0.0,1651091787178272.0,1
379,5.0,3.0,4.0,20.0,107.0,12.0,6.0,7.0,1651091787178272.0,1
380,-4.0,1.0,3.0,-27.0,-109.0,-9.0,-3.0,-6.0,1651091787190602.0,1
381,-3.0,0.0,-2.0,12.0,-9.0,0.0,-6.0,0.0,1651091787190602.0,1
382,3.0,2.0,3.0,25.0,7.0,-2.0,2.0,3.0,1651091787196586.0,1
383,-3.0,0.0,-5.0,-5.0,-56.0,-10.0,-7.0,-5.0,1651091787196586.0,1
384,0.0,2.0,5.0,0.0,82.0,24.0,-1.0,2.0,1651091787213833.0,1
385,2.0,2.0,0.0,-3.0,-69.0,-6.0,3.0,2.0,1651091787213833.0,1
386,3.0,2.0,-2.0,-1.0,-4.0,1.0,2.0,3.0,1651091787214664.0,1
387,-2.0,-3.0,-5.0,2.0,-46.0,-1.0,-4.0,-5.0,1651091787214664.0,1
388,4.0,4.0,6.0,12.0,47.0,1.0,6.0,3.0,1651091787236205.0,1
389,-3.0,-2.0,-1.0,-8.0,8.0,-2.0,-2.0,-6.0,1651091787236205.0,1
390,0.0,-1.0,-1.0,-25.0,-8.0,-13.0,-3.0,3.0,1651091787237070.0,1
391,1.0,0.0,0.0,-11.0,-11.0,-3.0,-1.0,0.0,1651091787237070.0,1
392,-2.0,-4.0,-11.0,11.0,49.0,-1.0,-4.0,0.0,1651091787250138.0,1
393,-2.0,-4.0,2.0,13.0,33.0,4.0,1.0,-1.0,1651091787250138.0,1
394,-2.0,-1.0,5.0,1.0,-3.0,-9.0,-2.0,-3.0,1651091787257146.0,1
395,-1.0,-3.0,-6.0,-14.0,-11.0,9.0,-2.0,-1.0,1651091787257146.0,1
396,4.0,-1.0,-2.0,-11.0,-44.0,-2.0,-1.0,3.0,1651091787273490.0,1
397,-1.0,0.0,-1.0,13.0,76.0,16.0,4.0,0.0,1651091787273490.0,1
398,-5.0,-1.0,0.0,-15.0,1.0,2.0,-6.0,-9.0,1651091787274341.0,1
399,0.0,-1.0,0.0,12.0,52.0,1.0,2.0,3.0,1651091787274341.0,1
400,-2.0,0.0,-3.0,-7.0,8.0,-19.0,-3.0,-6.0,1651091787295547.0,1
401,4.0,3.0,2.0,19.0,11.0,24.0,7.0,5.0,1651091787295547.0,1
402,-4.0,-2.0,5.0,-2.0,20.0,10.0,-3.0,-7.0,1651091787296420.0,1
403,0.0,-3.0,-1.0,11.0,-18.0,-5.0,-1.0,-1.0,1651091787296420.0,1
404,-5.0,-6.0,-11.0,-10.0,44.0,-15.0,-3.0,2.0,1651091787310413.0,1
405,-1.0,0.0,-1.0,-18.0,-53.0,31.0,8.0,1.0,1651091787310413.0,1
406,6.0,1.0,0.0,-21.0,92.0,6.0,9.0,8.0,1651091787316526.0,1
407,1.0,4.0,6.0,40.0,2.0,5.0,2.0,-3.0,1651091787316526.0,1
408,-4.0,-4.0,-1.0,-18.0,-68.0,-19.0,-6.0,-6.0,1651091787333594.0,1
409,-5.0,-4.0,-9.0,-50.0,-126.0,-33.0,-13.0,-11.0,1651091787333594.0,1
410,2.0,6.0,14.0,95.0,83.0,40.0,10.0,4.0,1651091787334740.0,1
411,2.0,0.0,2.0,-10.0,-35.0,-9.0,0.0,4.0,1651091787334740.0,1
412,0.0,3.0,3.0,-1.0,-74.0,2.0,0.0,1.0,1651091787356276.0,1
413,0.0,-1.0,-2.0,-2.0,-46.0,-21.0,-5.0,-1.0,1651091787356276.0,1
414,1.0,-4.0,-9.0,-63.0,-71.0,6.0,-4.0,-2.0,1651091787357143.0,1
415,-3.0,0.0,-3.0,25.0,64.0,-7.0,2.0,-2.0,1651091787357143.0,1
416,0.0,0.0,6.0,21.0,74.0,13.0,0.0,0.0,1651091787370088.0,1
417,-2.0,-1.0,-2.0,-19.0,-1.0,-7.0,-6.0,-5.0,1651091787370088.0,1
418,-2.0,-2.0,-3.0,-11.0,-20.0,-15.0,-2.0,-2.0,1651091787376061.0,1
419,-5.0,-4.0,-6.0,-15.0,21.0,3.0,-3.0,-2.0,1651091787376061.0,1
420,6.0,2.0,2.0,-13.0,-95.0,6.0,6.0,9.0,1651091787393015.0,1
421,-4.0,-2.0,-2.0,4.0,113.0,3.0,-2.0,-4.0,1651091787393015.0,1
422,-3.0,-3.0,-4.0,13.0,-89.0,-23.0,-9.0,-2.0,1651091787394017.0,1
423,-6.0,-2.0,-1.0,-41.0,11.0,3.0,-5.0,-10.0,1651091787394017.0,1
424,0.0,1.0,0.0,41.0,6.0,10.0,5.0,-1.0,1651091787415447.0,1
425,1.0,5.0,10.0,20.0,-24.0,-5.0,1.0,4.0,1651091787415447.0,1
426,-1.0,-3.0,-10.0,-28.0,-11.0,-19.0,-6.0,-5.0,1651091787416320.0,1
427,-2.0,-2.0,-5.0,-63.0,-63.0,-19.0,-4.0,0.0,1651091787416320.0,1
428,0.0,-1.0,0.0,65.0,-55.0,-1.0,-1.0,-1.0,1651091787429482.0,1
429,3.0,1.0,-1.0,20.0,59.0,6.0,7.0,4.0,1651091787429482.0,1
430,1.0,-1.0,-1.0,7.0,-7.0,7.0,1.0,2.0,1651091787437626.0,1
431,-3.0,-4.0,-8.0,-15.0,-20.0,-13.0,-8.0,-4.0,1651091787437626.0,1
432,5.0,7.0,10.0,-17.0,63.0,25.0,10.0,4.0,1651091787452468.0,1
433,-1.0,-6.0,-5.0,-1.0,-20.0,-7.0,-3.0,-3.0,1651091787452468.0,1
434,-4.0,-3.0,-3.0,-17.0,-69.0,-20.0,-6.0,-3.0,1651091787454418.0,1
435,5.0,3.0,9.0,32.0,45.0,0.0,5.0,4.0,1651091787454418.0,1
436,0.0,-2.0,-6.0,-38.0,-62.0,-13.0,-2.0,-3.0,1651091787475132.0,1
437,-3.0,-1.0,3.0,32.0,82.0,5.0,0.0,-2.0,1651091787475132.0,1
438,-5.0,-3.0,-4.0,-21.0,-61.0,-7.0,-4.0,-9.0,1651091787476963.0,1
439,2.0,2.0,1.0,25.0,62.0,12.0,3.0,5.0,1651091787476963.0,1
440,-7.0,-4.0,-4.0,-10.0,53.0,-3.0,-6.0,-6.0,1651091787489119.0,1
441,5.0,1.0,-3.0,-19.0,-44.0,-2.0,2.0,9.0,1651091787489119.0,1
442,-9.0,-5.0,-3.0,-3.0,6.0,-3.0,-4.0,-14.0,1651091787498097.0,1
443,-1.0,0.0,0.0,-35.0,-10.0,7.0,-1.0,-1.0,1651091787498097.0,1
444,3.0,-1.0,-2.0,45.0,-24.0,-2.0,1.0,4.0,1651091787513560.0,1
445,5.0,5.0,11.0,36.0,19.0,13.0,4.0,3.0,1651091787513560.0,1
446,1.0,0.0,2.0,20.0,-37.0,8.0,2.0,3.0,1651091787514400.0,1
447,3.0,-1.0,-3.0,-15.0,-76.0,-8.0,-2.0,1.0,1651091787514400.0,1
448,-4.0,-7.0,-13.0,-64.0,11.0,-24.0,-9.0,-6.0,1651091787536022.0,1
449,-1.0,6.0,9.0,36.0,24.0,18.0,6.0,3.0,1651091787536022.0,1
450,5.0,0.0,-3.0,8.0,-21.0,8.0,1.0,4.0,1651091787536858.0,1
451,-2.0,2.0,9.0,10.0,96.0,16.0,3.0,0.0,1651091787536858.0,1
452,-2.0,-7.0,-9.0,-32.0,-128.0,-30.0,-10.0,-5.0,1651091787548827.0,1
453,-2.0,-1.0,-3.0,-4.0,101.0,19.0,2.0,-1.0,1651091787548827.0,1
454,2.0,1.0,-1.0,-9.0,64.0,-5.0,4.0,3.0,1651091787557961.0,1
455,0.0,-1.0,1.0,20.0,-3.0,-3.0,2.0,-1.0,1651091787557961.0,1
456,1.0,3.0,5.0,12.0,24.0,-9.0,3.0,3.0,1651091787573400.0,1
457,1.0,-3.0,-1.0,-22.0,-68.0,-19.0,-6.0,-2.0,1651091787573400.0,1
458,0.0,0.0,-4.0,-10.0,15.0,3.0,0.0,-1.0,1651091787574120.0,1
459,-3.0,-2.0,-2.0,-3.0,18.0,2.0,0.0,-1.0,1651091787574120.0,1
460,-3.0,-1.0,0.0,-2.0,-43.0,-1.0,-5.0,-4.0,1651091787595441.0,1
461,2.0,1.0,1.0,29.0,-86.0,4.0,2.0,2.0,1651091787595441.0,1
462,-3.0,-1.0,2.0,-18.0,48.0,-12.0,-2.0,-1.0,1651091787597276.0,1
463,2.0,0.0,-3.0,45.0,38.0,14.0,2.0,5.0,1651091787597276.0,1
464,-1.0,1.0,8.0,5.0,-24.0,16.0,4.0,-1.0,1651091787608745.0,1
465,-2.0,-4.0,-8.0,-47.0,-52.0,-15.0,-5.0,-3.0,1651091787608745.0,1
466,0.0,2.0,-1.0,-2.0,-25.0,-3.0,-2.0,2.0,1651091787617718.0,1
467,-4.0,-1.0,4.0,-11.0,-44.0,-3.0,1.0,-4.0,1651091787617718.0,1
468,2.0,4.0,-1.0,10.0,74.0,26.0,3.0,1.0,1651091787633144.0,1
469,-1.0,-3.0,-1.0,-30.0,-77.0,-27.0,-7.0,-3.0,1651091787633144.0,1
470,-2.0,-1.0,1.0,41.0,64.0,24.0,4.0,2.0,1651091787634726.0,1
471,-1.0,-5.0,-5.0,-9.0,-38.0,-16.0,-3.0,2.0,1651091787634726.0,1
472,-6.0,-4.0,-6.0,-29.0,-52.0,-11.0,-5.0,-5.0,1651091787655447.0,1
473,0.0,2.0,2.0,50.0,119.0,12.0,0.0,-3.0,1651091787655447.0,1
474,5.0,4.0,4.0,9.0,-38.0,-13.0,-6.0,2.0,1651091787656320.0,1
475,1.0,-1.0,2.0,-2.0,-10.0,-11.0,1.0,-1.0,1651091787656320.0,1
476,3.0,1.0,4.0,-12.0,-3.0,19.0,7.0,6.0,1651091787669440.0,1
477,-6.0,-5.0,-8.0,-2.0,-31.0,-18.0,-9.0,-8.0,1651091787669440.0,1
478,1.0,2.0,4.0,10.0,24.0,-9.0,1.0,0.0,1651091787677421.0,1
479,3.0,0.0,0.0,12.0,-11.0,11.0,3.0,3.0,1651091787677421.0,1
480,3.0,-1.0,-1.0,-17.0,2.0,-12.0,0.0,3.0,1651091787692607.0,1
481,-7.0,-5.0,-7.0,-51.0,-50.0,-5.0,-4.0,-7.0,1651091787692607.0,1
482,-2.0,-4.0,-4.0,28.0,-10.0,-5.0,-5.0,-2.0,1651091787694633.0,1
483,4.0,1.0,0.0,25.0,97.0,28.0,10.0,6.0,1651091787694633.0,1
484,-1.0,2.0,7.0,-44.0,-118.0,-19.0,-5.0,-2.0,1651091787715246.0,1
485,1.0,-2.0,-5.0,-62.0,36.0,-1.0,1.0,4.0,1651091787715246.0,1
486,1.0,2.0,4.0,89.0,81.0,28.0,4.0,1.0,1651091787717119.0,1
487,-3.0,0.0,-5.0,-47.0,-85.0,-21.0,-7.0,-7.0,1651091787717119.0,1
488,-6.0,-3.0,-3.0,30.0,8.0,1.0,-3.0,-6.0,1651091787729276.0,1
489,2.0,-2.0,-3.0,5.0,7.0,3.0,1.0,3.0,1651091787729276.0,1
490,1.0,-1.0,-1.0,-45.0,-32.0,5.0,1.0,-1.0,1651091787737592.0,1
491,-2.0,-1.0,-3.0,9.0,-36.0,-3.0,-6.0,-4.0,1651091787737592.0,1
492,1.0,-1.0,0.0,16.0,-11.0,-2.0,0.0,0.0,1651091787752700.0,1
493,2.0,-1.0,-4.0,-14.0,9.0,-16.0,0.0,3.0,1651091787752700.0,1
494,-3.0,1.0,0.0,-18.0,-64.0,20.0,-2.0,-5.0,1651091787754575.0,1
495,1.0,3.0,7.0,24.0,91.0,16.0,6.0,0.0,1651091787754575.0,1
496,1.0,-3.0,-5.0,-17.0,-26.0,-16.0,-3.0,3.0,1651091787775004.0,1
497,-1.0,-5.0,-3.0,-44.0,41.0,4.0,-2.0,0.0,1651091787775004.0,1
498,-3.0,-3.0,-6.0,36.0,-7.0,-6.0,-2.0,-3.0,1651091787776847.0,1
499,3.0,3.0,7.0,49.0,45.0,12.0,4.0,3.0,1651091787776847.0,1
500,-5.0,-1.0,4.0,-1.0,36.0,3.0,-3.0,-8.0,1651091787789364.0,1
501,0.0,-3.0,-10.0,10.0,-26.0,1.0,2.0,-1.0,1651091787789364.0,1
502,-1.0,-2.0,-3.0,-32.0,-85.0,-4.0,1.0,0.0,1651091787798538.0,1
503,1.0,1.0,4.0,19.0,65.0,8.0,-2.0,-1.0,1651091787798538.0,1
504,2.0,1.0,1.0,-3.0,-43.0,9.0,5.0,5.0,1651091787812725.0,1
505,0.0,4.0,7.0,36.0,70.0,11.0,2.0,-1.0,1651091787812725.0,1
506,-2.0,-3.0,-7.0,-51.0,24.0,-17.0,-4.0,-3.0,1651091787814737.0,1
507,-2.0,-7.0,-12.0,-30.0,-128.0,-25.0,-5.0,2.0,1651091787814737.0,1
508,-1.0,3.0,10.0,67.0,76.0,26.0,4.0,-3.0,1651091787836196.0,1
509,2.0,0.0,6.0,2.0,-86.0,-1.0,1.0,-2.0,1651091787836196.0,1
510,1.0,0.0,-4.0,4.0,-8.0,-10.0,3.0,3.0,1651091787837045.0,1
511,-2.0,-2.0,-3.0,-22.0,40.0,-1.0,0.0,-3.0,1651091787837045.0,1
512,-3.0,-4.0,-10.0,-38.0,-54.0,-22.0,-7.0,-4.0,1651091787858326.0,1
513,1.0,2.0,4.0,17.0,61.0,20.0,3.0,4.0,1651091787858326.0,1
514,1.0,-2.0,-3.0,2.0,35.0,-13.0,0.0,-2.0,1651091787864307.0,1
515,-1.0,0.0,-2.0,-25.0,-50.0,17.0,-4.0,1.0,1651091787864307.0,1
516,-1.0,-1.0,-1.0,16.0,33.0,-1.0,-2.0,-3.0,1651091787873473.0,1
517,-1.0,0.0,5.0,35.0,-67.0,-3.0,1.0,2.0,1651091787873473.0,1
518,4.0,2.0,2.0,-36.0,-28.0,-11.0,-1.0,0.0,1651091787874353.0,1
519,-3.0,-1.0,3.0,46.0,73.0,20.0,-2.0,-1.0,1651091787874353.0,1
520,-1.0,-2.0,-7.0,-73.0,-84.0,-24.0,-6.0,-1.0,1651091787895741.0,1
521,-4.0,-6.0,-5.0,36.0,83.0,23.0,1.0,-1.0,1651091787895741.0,1
522,0.0,0.0,4.0,-7.0,7.0,9.0,-1.0,-1.0,1651091787896587.0,1
523,1.0,-1.0,-2.0,36.0,-123.0,-9.0,3.0,-1.0,1651091787896587.0,1
524,2.0,-1.0,-1.0,-3.0,12.0,11.0,3.0,-1.0,1651091787918014.0,1
525,3.0,0.0,-4.0,-38.0,-11.0,-10.0,0.0,5.0,1651091787918014.0,1
526,-6.0,-3.0,-1.0,2.0,-80.0,-7.0,-5.0,-9.0,1651091787918890.0,1
527,3.0,4.0,4.0,1.0,44.0,-9.0,1.0,4.0,1651091787918890.0,1
528,-1.0,0.0,1.0,23.0,94.0,10.0,-1.0,1.0,1651091787931887.0,1
529,-3.0,-1.0,4.0,-10.0,-44.0,-9.0,-4.0,-7.0,1651091787931887.0,1
530,-1.0,-3.0,-2.0,0.0,-14.0,-15.0,-3.0,3.0,1651091787938875.0,1
531,-1.0,-2.0,-6.0,-76.0,-23.0,-12.0,-5.0,0.0,1651091787938875.0,1
532,-2.0,0.0,-1.0,37.0,63.0,-2.0,2.0,0.0,1651091787956110.0,1
533,0.0,1.0,2.0,24.0,-36.0,7.0,1.0,0.0,1651091787956110.0,1
534,-1.0,-2.0,2.0,-3.0,29.0,21.0,1.0,1.0,1651091787957008.0,1
535,-6.0,-4.0,-3.0,-1.0,40.0,-21.0,-2.0,-10.0,1651091787957008.0,1
536,5.0,-1.0,3.0,-21.0,2.0,-4.0,1.0,6.0,1651091787978168.0,1
537,0.0,-1.0,-9.0,11.0,-48.0,-13.0,-1.0,-1.0,1651091787978168.0,1
538,-3.0,0.0,3.0,-29.0,22.0,3.0,-8.0,-4.0,1651091787979064.0,1
539,-2.0,-2.0,-4.0,9.0,-106.0,-16.0,-4.0,1.0,1651091787979064.0,1
540,-1.0,4.0,2.0,5.0,95.0,26.0,4.0,0.0,1651091787992164.0,1
541,2.0,1.0,-1.0,0.0,49.0,-5.0,1.0,3.0,1651091787992164.0,1
542,-2.0,0.0,1.0,9.0,-62.0,-9.0,0.0,-1.0,1651091787994165.0,1
543,3.0,0.0,0.0,-7.0,71.0,13.0,2.0,1.0,1651091787994165.0,1
544,0.0,-2.0,-2.0,13.0,-8.0,3.0,-1.0,2.0,1651091788015456.0,1
545,-2.0,2.0,2.0,-32.0,-21.0,-4.0,-3.0,-2.0,1651091788015456.0,1
546,-2.0,0.0,-3.0,-1.0,92.0,-4.0,-3.0,-7.0,1651091788016454.0,1
547,2.0,2.0,5.0,42.0,-90.0,4.0,2.0,3.0,1651091788016454.0,1
548,-2.0,1.0,5.0,25.0,20.0,4.0,1.0,-3.0,1651091788038125.0,1
549,2.0,-1.0,-5.0,-26.0,26.0,15.0,-1.0,1.0,1651091788038125.0,1
550,0.0,-3.0,3.0,-1.0,-5.0,-21.0,2.0,6.0,1651091788039125.0,1
551,-6.0,-4.0,-6.0,-24.0,19.0,31.0,-3.0,-10.0,1651091788039125.0,1
552,6.0,-1.0,-1.0,40.0,-90.0,-7.0,2.0,7.0,1651091788052473.0,1
553,-5.0,1.0,1.0,14.0,10.0,-10.0,-4.0,-8.0,1651091788052473.0,1
554,2.0,4.0,8.0,39.0,54.0,19.0,6.0,3.0,1651091788059138.0,1
555,2.0,0.0,-3.0,-30.0,-84.0,-14.0,-2.0,2.0,1651091788059138.0,1
556,2.0,1.0,4.0,-28.0,-51.0,-6.0,1.0,6.0,1651091788082526.0,1
557,-8.0,-4.0,-5.0,-18.0,-23.0,-10.0,-11.0,-12.0,1651091788082526.0,1
558,-2.0,-2.0,-3.0,-6.0,-38.0,-2.0,-2.0,-4.0,1651091788084523.0,1
559,1.0,0.0,-1.0,-43.0,12.0,-12.0,-2.0,-1.0,1651091788084523.0,1
560,-3.0,-2.0,-7.0,53.0,107.0,0.0,1.0,-4.0,1651091788097700.0,1
561,0.0,3.0,17.0,67.0,-13.0,3.0,8.0,4.0,1651091788097700.0,1
562,-1.0,-1.0,-1.0,-11.0,8.0,1.0,-3.0,0.0,1651091788099532.0,1
563,0.0,-1.0,-3.0,-37.0,-64.0,-17.0,-3.0,-1.0,1651091788099532.0,1
564,-6.0,-7.0,-13.0,-42.0,-65.0,-7.0,-7.0,-8.0,1651091788120872.0,1
565,6.0,4.0,7.0,27.0,21.0,0.0,4.0,5.0,1651091788120872.0,1
566,3.0,2.0,4.0,20.0,15.0,26.0,10.0,10.0,1651091788121705.0,1
567,-4.0,-4.0,5.0,-18.0,32.0,-10.0,-3.0,-4.0,1651091788121705.0,1
568,2.0,-1.0,-7.0,8.0,-54.0,-9.0,-3.0,0.0,1651091788135045.0,1
569,-3.0,-4.0,-5.0,-21.0,-16.0,-2.0,0.0,-5.0,1651091788135045.0,1
570,4.0,4.0,0.0,-35.0,47.0,-14.0,3.0,4.0,1651091788136930.0,1
571,0.0,-3.0,-11.0,50.0,36.0,2.0,1.0,4.0,1651091788136930.0,1
572,-6.0,0.0,8.0,-39.0,-54.0,-3.0,-4.0,-6.0,1651091788158473.0,1
573,5.0,3.0,1.0,-8.0,13.0,2.0,2.0,6.0,1651091788158473.0,1
574,-8.0,-2.0,1.0,43.0,-34.0,16.0,-2.0,-11.0,1651091788158950.0,1
575,-1.0,1.0,4.0,-11.0,-7.0,-8.0,-3.0,-1.0,1651091788158950.0,1
576,1.0,2.0,0.0,-15.0,71.0,12.0,5.0,1.0,1651091788172597.0,1
577,-2.0,-5.0,-9.0,-13.0,-42.0,-25.0,-7.0,-2.0,1651091788172597.0,1
578,3.0,-6.0,-7.0,-27.0,-42.0,-13.0,-2.0,5.0,1651091788179746.0,1
579,1.0,4.0,4.0,43.0,-59.0,28.0,5.0,3.0,1651091788179746.0,1
580,0.0,-2.0,0.0,-9.0,89.0,-5.0,-3.0,1.0,1651091788195730.0,1
581,-7.0,-1.0,-3.0,-10.0,-32.0,2.0,-4.0,-9.0,1651091788195730.0,1
582,2.0,3.0,-1.0,-15.0,2.0,-1.0,1.0,0.0,1651091788196572.0,1
583,1.0,-2.0,-5.0,29.0,9.0,-10.0,1.0,1.0,1651091788196572.0,1
584,-3.0,-1.0,-3.0,32.0,-58.0,9.0,4.0,-4.0,1651091788218825.0,1
585,1.0,2.0,3.0,-11.0,5.0,18.0,2.0,5.0,1651091788218825.0,1
586,0.0,-3.0,-1.0,14.0,22.0,-3.0,-1.0,0.0,1651091788219647.0,1
587,-4.0,-3.0,-5.0,-24.0,-46.0,-22.0,-7.0,-5.0,1651091788219647.0,1
588,5.0,5.0,7.0,-24.0,-26.0,9.0,4.0,8.0,1651091788231812.0,1
589,-6.0,-6.0,-9.0,14.0,65.0,-20.0,-7.0,-7.0,1651091788231812.0,1
590,-2.0,-2.0,-3.0,4.0,-59.0,42.0,3.0,1.0,1651091788239240.0,1
591,-3.0,-1.0,3.0,-13.0,38.0,-10.0,-10.0,-17.0,1651091788239240.0,1
592,2.0,-2.0,-3.0,11.0,5.0,13.0,3.0,-12.0,1651091788255514.0,1
593,9.0,3.0,4.0,-5.0,-44.0,-16.0,-5.0,32.0,1651091788255514.0,1
594,1.0,2.0,1.0,-4.0,-11.0,-5.0,-7.0,-5.0,1651091788256383.0,1
595,0.0,-1.0,1.0,6.0,50.0,37.0,9.0,5.0,1651091788256383.0,1
596,-7.0,-6.0,-2.0,8.0,27.0,-9.0,-5.0,-4.0,1651091788278705.0,1
597,-6.0,-3.0,-5.0,-3.0,-59.0,0.0,3.0,-20.0,1651091788278705.0,1
598,1.0,-3.0,3.0,8.0,102.0,-7.0,-13.0,-7.0,1651091788279546.0,1
599,0.0,-1.0,9.0,6.0,-29.0,-3.0,0.0,-27.0,1651091788279546.0,1
600,-3.0,13.0,9.0,3.0,2.0,3.0,-5.0,22.0,1651091788291866.0,1
601,11.0,-2.0,-7.0,-16.0,-25.0,17.0,-1.0,17.0,1651091788291866.0,1
602,-3.0,-2.0,-6.0,0.0,-14.0,-6.0,1.0,1.0,1651091788298856.0,1
603,-1.0,-5.0,-7.0,3.0,8.0,-6.0,-12.0,4.0,1651091788298856.0,1
604,1.0,-3.0,0.0,-2.0,1.0,12.0,-2.0,-27.0,1651091788315061.0,1
605,-5.0,-3.0,1.0,0.0,8.0,-1.0,-2.0,-15.0,1651091788315061.0,1
606,-2.0,0.0,-3.0,5.0,-28.0,-7.0,4.0,7.0,1651091788316896.0,1
607,1.0,2.0,4.0,3.0,34.0,-1.0,-7.0,-17.0,1651091788316896.0,1
608,2.0,-2.0,-2.0,-8.0,-44.0,-3.0,7.0,14.0,1651091788338363.0,1
609,1.0,3.0,6.0,2.0,-5.0,4.0,6.0,4.0,1651091788338363.0,1
610,1.0,0.0,-1.0,0.0,3.0,-14.0,-4.0,-8.0,1651091788339201.0,1
611,0.0,2.0,1.0,-3.0,15.0,10.0,8.0,12.0,1651091788339201.0,1
612,0.0,-1.0,-3.0,4.0,8.0,-6.0,-2.0,0.0,1651091788352319.0,1
613,-1.0,-1.0,-1.0,-2.0,2.0,3.0,2.0,1.0,1651091788352319.0,1
614,0.0,-1.0,1.0,-4.0,-4.0,-12.0,-2.0,-5.0,1651091788360798.0,1
615,-2.0,2.0,-2.0,3.0,-3.0,9.0,1.0,7.0,1651091788360798.0,1
616,1.0,-2.0,-3.0,0.0,1.0,-6.0,-1.0,3.0,1651091788375288.0,1
617,-1.0,0.0,1.0,-2.0,5.0,-4.0,-6.0,-12.0,1651091788375288.0,1
618,-1.0,0.0,-2.0,0.0,-2.0,13.0,6.0,2.0,1651091788377131.0,1
619,-2.0,0.0,-1.0,3.0,-5.0,-7.0,2.0,11.0,1651091788377131.0,1
620,3.0,-1.0,-1.0,-7.0,0.0,5.0,-1.0,-2.0,1651091788398258.0,1
621,-1.0,0.0,-1.0,-2.0,-11.0,-7.0,-1.0,-4.0,1651091788398258.0,1
622,-1.0,-1.0,-2.0,0.0,-18.0,-18.0,-4.0,2.0,1651091788399256.0,1
623,1.0,1.0,1.0,-1.0,3.0,-3.0,10.0,5.0,1651091788399256.0,1
624,0.0,-2.0,-1.0,-1.0,3.0,-4.0,-5.0,-6.0,1651091788411961.0,1
625,0.0,-2.0,-1.0,2.0,0.0,3.0,1.0,-4.0,1651091788411961.0,1
626,0.0,-2.0,-3.0,-4.0,-27.0,-8.0,-1.0,2.0,1651091788428397.0,1
627,0.0,0.0,-4.0,5.0,79.0,4.0,-1.0,-3.0,1651091788428397.0,1
628,-1.0,0.0,4.0,-1.0,-18.0,-8.0,0.0,1.0,1651091788436528.0,1
629,-2.0,-1.0,1.0,-3.0,-3.0,1.0,0.0,1.0,1651091788436528.0,1
630,0.0,0.0,-2.0,1.0,2.0,-1.0,-2.0,-3.0,1651091788438406.0,1
631,-3.0,-2.0,-3.0,-7.0,-46.0,14.0,1.0,0.0,1651091788438406.0,1
632,-2.0,-2.0,-1.0,3.0,5.0,2.0,0.0,0.0,1651091788458639.0,1
633,-1.0,0.0,0.0,1.0,33.0,4.0,0.0,1.0,1651091788458639.0,1
634,0.0,1.0,0.0,-5.0,-25.0,-4.0,0.0,-3.0,1651091788459499.0,1
635,0.0,-2.0,-2.0,2.0,39.0,-3.0,0.0,2.0,1651091788459499.0,1
636,-2.0,-1.0,-2.0,-4.0,-16.0,-6.0,0.0,0.0,1651091788471954.0,1
637,0.0,0.0,0.0,-2.0,-14.0,0.0,-3.0,-4.0,1651091788471954.0,1
638,-2.0,-2.0,-1.0,2.0,15.0,0.0,3.0,0.0,1651091788480194.0,1
639,-1.0,-2.0,-2.0,17.0,-16.0,-2.0,-1.0,2.0,1651091788480194.0,1
640,-1.0,1.0,2.0,0.0,4.0,5.0,-1.0,-1.0,1651091788495454.0,1
641,0.0,2.0,1.0,-3.0,-7.0,-5.0,1.0,-1.0,1651091788495454.0,1
642,-1.0,-2.0,-1.0,-6.0,-34.0,-7.0,-2.0,-1.0,1651091788496335.0,1
643,3.0,2.0,5.0,0.0,65.0,26.0,2.0,2.0,1651091788496335.0,1
644,0.0,-4.0,-4.0,1.0,-13.0,-10.0,-1.0,-1.0,1651091788518739.0,1
645,0.0,0.0,0.0,5.0,-19.0,8.0,0.0,-2.0,1651091788518739.0,1
646,1.0,2.0,1.0,-18.0,1.0,1.0,-1.0,0.0,1651091788519322.0,1
647,-2.0,-2.0,-3.0,1.0,-41.0,-9.0,-2.0,-2.0,1651091788519322.0,1
648,0.0,1.0,0.0,10.0,23.0,1.0,0.0,-1.0,1651091788531667.0,1
649,-1.0,0.0,-2.0,-4.0,-15.0,2.0,0.0,0.0,1651091788531667.0,1
650,-1.0,-1.0,-1.0,5.0,28.0,3.0,0.0,0.0,1651091788540772.0,1
651,-1.0,-2.0,0.0,-11.0,-22.0,-10.0,0.0,-1.0,1651091788540772.0,1
652,0.0,0.0,0.0,-1.0,29.0,-5.0,0.0,-1.0,1651091788556096.0,1
653,0.0,-1.0,0.0,0.0,-14.0,17.0,0.0,-1.0,1651091788556096.0,1
654,-2.0,0.0,0.0,5.0,10.0,2.0,0.0,0.0,1651091788556964.0,1
655,1.0,-2.0,-3.0,-5.0,-9.0,-6.0,-1.0,2.0,1651091788556964.0,1
656,-1.0,0.0,3.0,-3.0,-13.0,-2.0,-1.0,1.0,1651091788578470.0,1
657,-2.0,-1.0,-1.0,-2.0,12.0,-5.0,-1.0,-1.0,1651091788578470.0,1
658,1.0,-3.0,-2.0,2.0,6.0,2.0,0.0,-1.0,1651091788579470.0,1
659,0.0,0.0,1.0,-3.0,-19.0,-6.0,-1.0,0.0,1651091788579470.0,1
660,1.0,-1.0,-3.0,3.0,1.0,3.0,0.0,-1.0,1651091788591599.0,1
661,0.0,0.0,0.0,5.0,-2.0,-5.0,-1.0,0.0,1651091788591599.0,1
662,0.0,1.0,1.0,1.0,6.0,4.0,1.0,-1.0,1651091788600602.0,1
663,-1.0,-1.0,-1.0,-5.0,-33.0,-11.0,-2.0,0.0,1651091788600602.0,1
664,1.0,0.0,0.0,-6.0,4.0,-4.0,0.0,-1.0,1651091788615592.0,1
665,-2.0,0.0,-3.0,-1.0,11.0,3.0,0.0,-1.0,1651091788615592.0,1
666,-1.0,0.0,-2.0,6.0,-28.0,4.0,1.0,-1.0,1651091788616425.0,1
667,1.0,0.0,0.0,-3.0,4.0,-1.0,-2.0,0.0,1651091788616425.0,1
668,-1.0,0.0,-1.0,-5.0,-10.0,-4.0,-1.0,1.0,1651091788637928.0,1
669,-1.0,-1.0,0.0,-2.0,-1.0,-6.0,0.0,-1.0,1651091788637928.0,1
670,-1.0,-3.0,-4.0,0.0,-10.0,-2.0,-2.0,-2.0,1651091788638916.0,1
671,0.0,2.0,3.0,4.0,47.0,3.0,1.0,0.0,1651091788638916.0,1
672,-2.0,-1.0,2.0,-6.0,-23.0,3.0,0.0,-1.0,1651091788652041.0,1
673,1.0,-2.0,-3.0,-3.0,-4.0,-6.0,-2.0,-1.0,1651091788652041.0,1
674,-1.0,-2.0,1.0,4.0,-4.0,1.0,0.0,-1.0,1651091788660871.0,1
675,-1.0,0.0,-3.0,-6.0,-10.0,-1.0,-2.0,-2.0,1651091788660871.0,1
676,0.0,0.0,-3.0,4.0,3.0,2.0,1.0,-1.0,1651091788675348.0,1
677,0.0,0.0,2.0,2.0,19.0,-1.0,-2.0,2.0,1651091788675348.0,1
678,0.0,4.0,0.0,0.0,0.0,-7.0,-2.0,0.0,1651091788677217.0,1
679,-1.0,-1.0,-3.0,-2.0,9.0,7.0,0.0,-1.0,1651091788677217.0,1
680,-1.0,-2.0,-4.0,0.0,18.0,8.0,-1.0,0.0,1651091788697521.0,1
681,0.0,0.0,-1.0,0.0,-17.0,4.0,0.0,-1.0,1651091788697521.0,1
682,0.0,-2.0,-2.0,-1.0,43.0,0.0,2.0,-1.0,1651091788699377.0,1
683,-1.0,3.0,3.0,-1.0,-38.0,-3.0,1.0,1.0,1651091788699377.0,1
684,-1.0,0.0,2.0,0.0,44.0,-2.0,0.0,-2.0,1651091788712077.0,1
685,-2.0,-2.0,-3.0,-1.0,-6.0,-2.0,-3.0,-1.0,1651091788712077.0,1
686,-1.0,-1.0,1.0,1.0,-4.0,0.0,-2.0,1.0,1651091788720848.0,1
687,0.0,-6.0,-9.0,1.0,49.0,0.0,0.0,0.0,1651091788720848.0,1
688,-1.0,1.0,7.0,-2.0,-39.0,1.0,0.0,-1.0,1651091788736116.0,1
689,0.0,1.0,2.0,-1.0,1.0,-3.0,-2.0,0.0,1651091788736116.0,1
690,1.0,-2.0,0.0,-1.0,8.0,3.0,0.0,0.0,1651091788736997.0,1
691,-1.0,-2.0,-2.0,-2.0,-29.0,-8.0,-2.0,-1.0,1651091788736997.0,1
692,2.0,-1.0,-5.0,0.0,-21.0,-4.0,-2.0,0.0,1651091788758232.0,1
693,0.0,-3.0,-1.0,3.0,47.0,6.0,2.0,-1.0,1651091788758232.0,1
694,-1.0,0.0,1.0,-3.0,-25.0,-2.0,-2.0,-2.0,1651091788758986.0,1
695,0.0,0.0,3.0,-2.0,-1.0,-1.0,-1.0,-2.0,1651091788758986.0,1
696,0.0,-4.0,-6.0,-3.0,1.0,0.0,-1.0,0.0,1651091788772399.0,1
697,0.0,1.0,4.0,-3.0,-34.0,-9.0,-1.0,-1.0,1651091788772399.0,1
698,1.0,2.0,2.0,3.0,86.0,14.0,4.0,2.0,1651091788780413.0,1
699,0.0,1.0,1.0,3.0,-55.0,-1.0,-1.0,-1.0,1651091788780413.0,1
700,-1.0,-2.0,-1.0,-2.0,17.0,-1.0,-1.0,0.0,1651091788795408.0,1
701,-1.0,-3.0,-7.0,-1.0,-10.0,2.0,-1.0,0.0,1651091788795408.0,1
702,-1.0,-3.0,-3.0,0.0,-8.0,-4.0,-1.0,1.0,1651091788796307.0,1
703,0.0,3.0,6.0,-1.0,-1.0,0.0,-1.0,1.0,1651091788796307.0,1
704,2.0,-2.0,-6.0,2.0,-14.0,-3.0,0.0,0.0,1651091788817575.0,1
705,-2.0,1.0,5.0,-3.0,17.0,-6.0,-3.0,-1.0,1651091788817575.0,1
706,0.0,-1.0,1.0,0.0,-50.0,-3.0,-2.0,-1.0,1651091788824634.0,1
707,1.0,3.0,2.0,4.0,52.0,7.0,3.0,0.0,1651091788824634.0,1
708,-3.0,-1.0,-4.0,-4.0,-35.0,-3.0,-2.0,-2.0,1651091788840916.0,1
709,-1.0,-5.0,-7.0,-2.0,14.0,4.0,2.0,0.0,1651091788840916.0,1
710,0.0,0.0,0.0,-5.0,-18.0,-10.0,-2.0,0.0,1651091788841775.0,1
711,2.0,0.0,13.0,-1.0,-7.0,-3.0,-3.0,0.0,1651091788841775.0,1
712,1.0,0.0,-11.0,-2.0,-15.0,0.0,-1.0,-1.0,1651091788856033.0,1
713,0.0,0.0,-2.0,0.0,-14.0,-1.0,-1.0,0.0,1651091788856033.0,1
714,-3.0,0.0,0.0,1.0,16.0,3.0,-2.0,-1.0,1651091788856924.0,1
715,-1.0,-3.0,-8.0,-3.0,-19.0,-7.0,-2.0,-1.0,1651091788856924.0,1
716,0.0,3.0,12.0,0.0,12.0,-1.0,0.0,0.0,1651091788878480.0,1
717,0.0,1.0,-2.0,-1.0,-15.0,2.0,0.0,0.0,1651091788878480.0,1
718,-1.0,1.0,-8.0,0.0,-5.0,0.0,-1.0,0.0,1651091788884306.0,1
719,0.0,3.0,13.0,-1.0,5.0,2.0,-1.0,-1.0,1651091788884306.0,1
720,-3.0,-4.0,-6.0,-9.0,-29.0,-10.0,-2.0,-2.0,1651091788900623.0,1
721,-2.0,-7.0,-15.0,-1.0,18.0,-2.0,0.0,-3.0,1651091788900623.0,1
722,-2.0,-3.0,-4.0,4.0,42.0,2.0,1.0,0.0,1651091788901622.0,1
723,-1.0,3.0,2.0,1.0,-38.0,12.0,0.0,0.0,1651091788901622.0,1
724,2.0,5.0,7.0,0.0,13.0,1.0,-1.0,-2.0,1651091788915969.0,1
725,0.0,-2.0,1.0,-1.0,-11.0,-4.0,0.0,1.0,1651091788915969.0,1
726,-1.0,-1.0,-2.0,-2.0,-15.0,-4.0,0.0,-1.0,1651091788916808.0,1
727,-1.0,-3.0,-9.0,-1.0,7.0,-8.0,0.0,-1.0,1651091788916808.0,1
728,-1.0,-1.0,3.0,1.0,40.0,1.0,2.0,0.0,1651091788938242.0,1
729,0.0,2.0,3.0,3.0,-3.0,2.0,0.0,0.0,1651091788938242.0,1
730,-1.0,0.0,-2.0,-1.0,-25.0,-1.0,0.0,0.0,1651091788939086.0,1
731,-1.0,-1.0,-6.0,-2.0,33.0,0.0,0.0,-2.0,1651091788939086.0,1
732,0.0,0.0,-2.0,-3.0,-18.0,2.0,-1.0,1.0,1651091788960119.0,1
733,0.0,2.0,2.0,1.0,-17.0,-4.0,-1.0,0.0,1651091788960119.0,1
734,-1.0,2.0,3.0,1.0,15.0,-3.0,0.0,-2.0,1651091788962146.0,1
735,-1.0,-3.0,-5.0,-2.0,-16.0,-2.0,0.0,0.0,1651091788962146.0,1
736,-1.0,-1.0,-4.0,3.0,-17.0,2.0,1.0,0.0,1651091788975121.0,1
737,-1.0,1.0,4.0,-2.0,10.0,-3.0,0.0,0.0,1651091788975121.0,1
738,0.0,0.0,2.0,1.0,-5.0,5.0,-2.0,0.0,1651091788981110.0,1
739,1.0,1.0,1.0,-1.0,-7.0,-4.0,-3.0,1.0,1651091788981110.0,1
740,-1.0,-3.0,-4.0,1.0,15.0,-2.0,0.0,-2.0,1651091788998394.0,1
741,-1.0,0.0,0.0,-2.0,-26.0,5.0,0.0,1.0,1651091788998394.0,1
742,-1.0,-1.0,-4.0,-4.0,-7.0,-3.0,0.0,-1.0,1651091788999238.0,1
743,-1.0,-1.0,-4.0,1.0,-1.0,-4.0,1.0,-1.0,1651091788999238.0,1
744,2.0,2.0,5.0,8.0,51.0,11.0,3.0,2.0,1651091789020658.0,1
745,0.0,0.0,-7.0,-2.0,-27.0,-3.0,0.0,0.0,1651091789020658.0,1
746,-1.0,3.0,13.0,-2.0,2.0,1.0,-2.0,-2.0,1651091789021657.0,1
747,-1.0,-2.0,-7.0,-2.0,-7.0,-5.0,-1.0,1.0,1651091789021657.0,1
748,0.0,0.0,0.0,-1.0,-25.0,-4.0,0.0,-1.0,1651091789043021.0,1
749,-1.0,2.0,-4.0,1.0,31.0,2.0,0.0,-2.0,1651091789043021.0,1
750,0.0,-1.0,0.0,-1.0,-7.0,-2.0,0.0,0.0,1651091789044018.0,1
751,0.0,-4.0,-5.0,5.0,42.0,7.0,2.0,1.0,1651091789044018.0,1
752,1.0,3.0,7.0,-2.0,-5.0,-1.0,0.0,-1.0,1651091789058355.0,1
753,0.0,0.0,0.0,-2.0,9.0,-1.0,-1.0,1.0,1651091789058355.0,1
754,0.0,0.0,-6.0,-3.0,-18.0,-4.0,-2.0,0.0,1651091789059185.0,1
755,-1.0,0.0,2.0,0.0,12.0,4.0,-1.0,0.0,1651091789059185.0,1
756,-2.0,-4.0,-8.0,-2.0,-18.0,-2.0,-2.0,-1.0,1651091789080542.0,1
757,1.0,0.0,2.0,2.0,18.0,0.0,0.0,1.0,1651091789080542.0,1
758,-1.0,0.0,1.0,2.0,-25.0,2.0,1.0,1.0,1651091789081381.0,1
759,-1.0,-2.0,-4.0,-3.0,8.0,2.0,0.0,-1.0,1651091789081381.0,1
760,-2.0,0.0,-1.0,-4.0,-22.0,-4.0,0.0,1.0,1651091789094702.0,1
761,0.0,-2.0,3.0,2.0,-11.0,-3.0,-2.0,-3.0,1651091789094702.0,1
762,1.0,-1.0,-3.0,0.0,10.0,2.0,-2.0,0.0,1651091789101842.0,1
763,-2.0,-1.0,-3.0,1.0,-8.0,1.0,-3.0,-1.0,1651091789101842.0,1
764,0.0,0.0,3.0,-2.0,17.0,-1.0,-1.0,-1.0,1651091789118055.0,1
765,-3.0,1.0,2.0,-5.0,-33.0,-1.0,-1.0,1.0,1651091789118055.0,1
766,-1.0,-1.0,-4.0,2.0,10.0,2.0,2.0,-1.0,1651091789119056.0,1
767,-1.0,-1.0,1.0,2.0,39.0,0.0,-1.0,-2.0,1651091789119056.0,1
768,-1.0,-2.0,-1.0,-1.0,0.0,-1.0,-1.0,-1.0,1651091789141320.0,1
769,0.0,-2.0,-3.0,-1.0,-29.0,1.0,0.0,0.0,1651091789141320.0,1
770,2.0,-1.0,-1.0,-1.0,-5.0,0.0,-1.0,-2.0,1651091789142197.0,1
771,-2.0,1.0,-1.0,-4.0,-26.0,-5.0,0.0,-2.0,1651091789142197.0,1
772,-1.0,-2.0,-1.0,-1.0,3.0,-2.0,-3.0,-1.0,1651091789155521.0,1
773,-1.0,-1.0,-1.0,-1.0,13.0,-1.0,0.0,-1.0,1651091789155521.0,1
774,-2.0,0.0,0.0,-2.0,-28.0,-5.0,-1.0,-2.0,1651091789162468.0,1
775,0.0,1.0,4.0,4.0,20.0,3.0,2.0,2.0,1651091789162468.0,1
776,-1.0,-1.0,0.0,2.0,6.0,3.0,3.0,-1.0,1651091789178696.0,1
777,0.0,0.0,2.0,0.0,18.0,-1.0,0.0,-2.0,1651091789178696.0,1
778,-1.0,0.0,-2.0,0.0,-22.0,-3.0,-2.0,-1.0,1651091789179652.0,1
779,-2.0,-3.0,-1.0,-6.0,-23.0,-5.0,-1.0,-1.0,1651091789179652.0,1
780,0.0,0.0,-1.0,4.0,29.0,6.0,0.0,-1.0,1651091789200929.0,1
781,-1.0,-1.0,-1.0,0.0,-15.0,-2.0,-1.0,1.0,1651091789200929.0,1
782,0.0,-2.0,-5.0,0.0,58.0,3.0,0.0,1.0,1651091789201780.0,1
783,1.0,1.0,6.0,1.0,-28.0,-1.0,0.0,1.0,1651091789201780.0,1
784,0.0,-1.0,0.0,-7.0,-44.0,-6.0,-3.0,-1.0,1651091789213960.0,1
785,-1.0,0.0,-1.0,1.0,44.0,4.0,1.0,-1.0,1651091789213960.0,1
786,0.0,1.0,2.0,2.0,19.0,-1.0,0.0,0.0,1651091789223512.0,1
787,-1.0,0.0,-4.0,0.0,-11.0,-2.0,0.0,-2.0,1651091789223512.0,1
788,-1.0,-2.0,-1.0,0.0,2.0,-3.0,-2.0,0.0,1651091789238417.0,1
789,-1.0,0.0,1.0,-2.0,-11.0,-4.0,-1.0,-2.0,1651091789238417.0,1
790,0.0,-4.0,-3.0,1.0,3.0,4.0,1.0,-1.0,1651091789239269.0,1
791,0.0,-4.0,-16.0,-3.0,1.0,-6.0,-1.0,-1.0,1651091789239269.0,1
792,0.0,7.0,19.0,0.0,-19.0,3.0,-1.0,0.0,1651091789260601.0,1
793,0.0,2.0,1.0,-2.0,-7.0,-4.0,0.0,-2.0,1651091789260601.0,1
794,0.0,1.0,-3.0,-6.0,-32.0,3.0,1.0,0.0,1651091789261601.0,1
795,2.0,-3.0,-4.0,6.0,27.0,3.0,-1.0,-2.0,1651091789261601.0,1
796,-1.0,-4.0,-7.0,3.0,-3.0,-1.0,-3.0,-1.0,1651091789274936.0,1
797,1.0,-3.0,0.0,-2.0,1.0,-1.0,-2.0,1.0,1651091789274936.0,1
798,-1.0,-2.0,4.0,-2.0,-15.0,0.0,-2.0,-4.0,1651091789281857.0,1
799,0.0,3.0,2.0,-4.0,11.0,-1.0,-2.0,-1.0,1651091789281857.0,1
800,-2.0,-4.0,-9.0,-3.0,3.0,-2.0,0.0,-1.0,1651091789298160.0,1
801,0.0,1.0,2.0,4.0,23.0,4.0,0.0,1.0,1651091789298160.0,1
802,-1.0,-1.0,-2.0,-2.0,-5.0,-3.0,-3.0,0.0,1651091789299004.0,1
803,-1.0,-1.0,2.0,-4.0,-42.0,-4.0,-2.0,0.0,1651091789299004.0,1
804,1.0,-1.0,2.0,2.0,3.0,5.0,3.0,1.0,1651091789321298.0,1
805,-1.0,-4.0,-4.0,-2.0,3.0,-1.0,-1.0,-2.0,1651091789321298.0,1
806,-1.0,1.0,1.0,0.0,18.0,-1.0,0.0,-1.0,1651091789321298.0,1
807,1.0,1.0,4.0,0.0,-18.0,-3.0,-2.0,0.0,1651091789321298.0,1
808,-1.0,-1.0,-2.0,-4.0,-18.0,0.0,-1.0,-1.0,1651091789334558.0,1
809,1.0,-1.0,-3.0,-1.0,-16.0,0.0,0.0,-1.0,1651091789334558.0,1
810,2.0,-4.0,-9.0,-2.0,2.0,2.0,0.0,-2.0,1651091789342293.0,1
811,0.0,5.0,11.0,-4.0,21.0,1.0,0.0,0.0,1651091789342293.0,1
812,0.0,-1.0,-5.0,0.0,-4.0,-1.0,0.0,-2.0,1651091789358227.0,1
813,-2.0,-1.0,-5.0,4.0,7.0,-2.0,0.0,1.0,1651091789358227.0,1
814,-3.0,-1.0,1.0,-4.0,-48.0,-7.0,-1.0,-1.0,1651091789359228.0,1
815,-1.0,-3.0,-4.0,7.0,74.0,7.0,2.0,1.0,1651091789359228.0,1
816,-1.0,0.0,0.0,-2.0,1.0,-4.0,1.0,-1.0,1651091789380526.0,1
817,0.0,0.0,2.0,-2.0,-28.0,-2.0,-1.0,-4.0,1651091789380526.0,1
818,-2.0,0.0,-1.0,-2.0,3.0,-3.0,-3.0,-1.0,1651091789381526.0,1
819,1.0,-2.0,-2.0,-1.0,-11.0,-3.0,-2.0,-2.0,1651091789381526.0,1
820,3.0,3.0,-1.0,3.0,6.0,4.0,-1.0,0.0,1651091789393590.0,1
821,0.0,0.0,2.0,-4.0,15.0,-1.0,-1.0,0.0,1651091789393590.0,1
822,0.0,-3.0,-9.0,1.0,-4.0,1.0,2.0,0.0,1651091789402708.0,1
823,1.0,3.0,14.0,-6.0,-10.0,-2.0,-1.0,-1.0,1651091789402708.0,1
824,-2.0,-2.0,-4.0,5.0,21.0,0.0,-1.0,0.0,1651091789416717.0,1
825,1.0,-1.0,-3.0,1.0,-16.0,-1.0,0.0,-1.0,1651091789416717.0,1
826,1.0,1.0,2.0,3.0,21.0,0.0,0.0,0.0,1651091789425024.0,1
827,-2.0,-4.0,-7.0,0.0,-7.0,-2.0,-2.0,-1.0,1651091789425024.0,1
828,0.0,-1.0,-1.0,-4.0,-21.0,-6.0,0.0,1.0,1651091789440717.0,1
829,-1.0,1.0,4.0,-3.0,-14.0,2.0,1.0,-1.0,1651091789440717.0,1
830,0.0,-2.0,3.0,4.0,5.0,3.0,0.0,-1.0,1651091789441717.0,1
831,-2.0,-4.0,-6.0,-1.0,-28.0,-6.0,-1.0,0.0,1651091789441717.0,1
832,1.0,-1.0,1.0,-3.0,5.0,0.0,-1.0,-2.0,1651091789455020.0,1
833,0.0,1.0,-3.0,2.0,-2.0,3.0,-1.0,-1.0,1651091789455020.0,1
834,0.0,4.0,11.0,-1.0,-5.0,-5.0,-1.0,0.0,1651091789462942.0,1
835,-1.0,0.0,-4.0,-1.0,3.0,-1.0,0.0,-3.0,1651091789462942.0,1
836,0.0,-2.0,-4.0,-5.0,-44.0,-6.0,-1.0,-1.0,1651091789478269.0,1
837,-2.0,-4.0,-4.0,-1.0,68.0,-1.0,-1.0,0.0,1651091789478269.0,1
838,-1.0,0.0,2.0,4.0,16.0,8.0,1.0,0.0,1651091789479109.0,1
839,-2.0,1.0,-1.0,-1.0,-22.0,2.0,1.0,1.0,1651091789479109.0,1
840,-1.0,-3.0,-2.0,-2.0,0.0,-3.0,0.0,0.0,1651091789500683.0,1
841,0.0,-4.0,-7.0,1.0,26.0,1.0,-1.0,-2.0,1651091789500683.0,1
842,-1.0,2.0,9.0,0.0,-10.0,0.0,-2.0,0.0,1651091789501683.0,1
843,1.0,0.0,0.0,1.0,-7.0,-2.0,-1.0,0.0,1651091789501683.0,1
844,-1.0,0.0,-3.0,-1.0,6.0,0.0,-1.0,-2.0,1651091789515004.0,1
845,0.0,1.0,7.0,0.0,-14.0,-2.0,1.0,1.0,1651091789515004.0,1
846,0.0,-3.0,-7.0,-4.0,31.0,-3.0,1.0,0.0,1651091789530371.0,1
847,-1.0,-2.0,-2.0,3.0,-14.0,-1.0,0.0,0.0,1651091789530371.0,1
848,-2.0,-1.0,-3.0,-1.0,3.0,-2.0,-2.0,-1.0,1651091789538350.0,1
849,-1.0,1.0,5.0,1.0,-8.0,-2.0,0.0,0.0,1651091789538350.0,1
850,0.0,1.0,-2.0,-2.0,8.0,2.0,0.0,-2.0,1651091789539191.0,1
851,0.0,0.0,1.0,1.0,12.0,3.0,1.0,1.0,1651091789539191.0,1
852,-1.0,-3.0,-5.0,0.0,7.0,-2.0,0.0,-2.0,1651091789560727.0,1
853,0.0,0.0,1.0,-1.0,-1.0,-3.0,-1.0,0.0,1651091789560727.0,1
854,-1.0,2.0,5.0,3.0,2.0,3.0,-2.0,0.0,1651091789561728.0,1
855,-2.0,0.0,-3.0,-1.0,12.0,-2.0,0.0,-1.0,1651091789561728.0,1
856,-1.0,1.0,1.0,-1.0,-33.0,1.0,1.0,0.0,1651091789573930.0,1
857,0.0,-4.0,-5.0,0.0,22.0,3.0,-2.0,0.0,1651091789573930.0,1
858,-2.0,-2.0,-4.0,-4.0,0.0,-5.0,-1.0,-1.0,1651091789582597.0,1
859,0.0,0.0,2.0,-1.0,-11.0,-3.0,-4.0,-1.0,1651091789582597.0,1
860,-1.0,-1.0,1.0,-2.0,15.0,2.0,1.0,0.0,1651091789597749.0,1
861,0.0,-2.0,1.0,2.0,-24.0,-2.0,0.0,0.0,1651091789597749.0,1
862,-2.0,-1.0,-2.0,2.0,12.0,-2.0,-2.0,-1.0,1651091789599748.0,1
863,-1.0,-1.0,-8.0,-1.0,4.0,1.0,0.0,-1.0,1651091789599748.0,1
864,-1.0,3.0,7.0,-2.0,-18.0,-4.0,-2.0,1.0,1651091789621051.0,1
865,-1.0,-2.0,-1.0,-5.0,-11.0,-3.0,0.0,-1.0,1651091789621051.0,1
866,0.0,-1.0,0.0,0.0,21.0,3.0,-1.0,1.0,1651091789621922.0,1
867,-2.0,-1.0,-2.0,-5.0,-17.0,-2.0,-1.0,-2.0,1651091789621922.0,1
868,0.0,-2.0,0.0,1.0,27.0,3.0,-1.0,-2.0,1651091789634069.0,1
869,-1.0,0.0,-2.0,-3.0,-19.0,-2.0,-1.0,-1.0,1651091789634069.0,1
870,1.0,-4.0,-11.0,0.0,-29.0,-1.0,2.0,0.0,1651091789643076.0,1
871,1.0,4.0,16.0,6.0,58.0,8.0,2.0,1.0,1651091789643076.0,1
872,-1.0,-2.0,-3.0,-2.0,19.0,-3.0,0.0,1.0,1651091789665385.0,1
873,-1.0,2.0,-1.0,4.0,0.0,4.0,1.0,1.0,1651091789665385.0,1
874,-1.0,-3.0,-4.0,-2.0,-5.0,-3.0,-1.0,-1.0,1651091789666273.0,1
875,-1.0,-5.0,-5.0,-1.0,-13.0,-1.0,-1.0,0.0,1651091789666273.0,1
876,-1.0,-1.0,0.0,1.0,-4.0,0.0,-1.0,-1.0,1651091789680601.0,1
877,-1.0,-4.0,-7.0,-2.0,19.0,4.0,-2.0,-2.0,1651091789680601.0,1
878,0.0,5.0,6.0,-1.0,7.0,0.0,1.0,-2.0,1651091789681438.0,1
879,-1.0,1.0,4.0,1.0,-16.0,-2.0,0.0,-1.0,1651091789681438.0,1
880,-1.0,-3.0,-3.0,0.0,-12.0,-3.0,-1.0,-2.0,1651091789693602.0,1
881,-1.0,-2.0,-3.0,-3.0,12.0,-2.0,-1.0,0.0,1651091789693602.0,1
882,1.0,-1.0,-4.0,-2.0,-26.0,0.0,1.0,0.0,1651091789703069.0,1
883,-1.0,-1.0,-3.0,-7.0,10.0,-6.0,-1.0,-1.0,1651091789703069.0,1
884,1.0,0.0,4.0,5.0,-54.0,2.0,-2.0,-1.0,1651091789717597.0,1
885,0.0,-1.0,-1.0,0.0,-8.0,4.0,1.0,2.0,1651091789717597.0,1
886,-3.0,-1.0,1.0,-1.0,6.0,-2.0,0.0,-1.0,1651091789724280.0,1
887,0.0,-2.0,-1.0,-2.0,21.0,0.0,1.0,0.0,1651091789724280.0,1
888,-1.0,1.0,-2.0,0.0,-26.0,-3.0,0.0,0.0,1651091789748532.0,1
889,0.0,-2.0,-1.0,-2.0,1.0,0.0,0.0,-3.0,1651091789748532.0,1
890,0.0,0.0,1.0,-2.0,-9.0,-2.0,0.0,-1.0,1651091789749563.0,1
891,0.0,-1.0,-3.0,-4.0,-42.0,-2.0,-2.0,0.0,1651091789749563.0,1
892,0.0,-3.0,-2.0,-1.0,36.0,2.0,1.0,0.0,1651091789763645.0,1
893,-1.0,2.0,-2.0,-3.0,-23.0,-6.0,-1.0,-2.0,1651091789763645.0,1
894,-1.0,0.0,10.0,5.0,7.0,7.0,2.0,0.0,1651091789764487.0,1
895,-2.0,-4.0,-5.0,-6.0,-5.0,-2.0,-2.0,1.0,1651091789764487.0,1
896,0.0,2.0,5.0,3.0,20.0,-1.0,0.0,0.0,1651091789777981.0,1
897,-1.0,0.0,0.0,3.0,4.0,1.0,1.0,0.0,1651091789777981.0,1
898,0.0,-4.0,-6.0,-3.0,-19.0,-4.0,-2.0,0.0,1651091789778840.0,1
899,0.0,-2.0,-7.0,2.0,31.0,1.0,2.0,0.0,1651091789778840.0,1
900,0.0,3.0,11.0,-3.0,14.0,0.0,0.0,0.0,1651091789808360.0,1
901,1.0,1.0,0.0,-3.0,-30.0,-6.0,-2.0,-1.0,1651091789808360.0,1
902,-1.0,-1.0,0.0,-2.0,-6.0,-2.0,-2.0,0.0,1651091789809004.0,1
903,-1.0,-1.0,-1.0,0.0,9.0,1.0,1.0,1.0,1651091789809004.0,1
904,-1.0,-5.0,-7.0,-1.0,-8.0,-2.0,-3.0,-2.0,1651091789823297.0,1
905,0.0,0.0,0.0,2.0,44.0,4.0,2.0,0.0,1651091789823297.0,1
906,0.0,2.0,6.0,-1.0,-11.0,-5.0,-2.0,-1.0,1651091789824032.0,1
907,-2.0,1.0,-5.0,1.0,-12.0,1.0,-1.0,-1.0,1651091789824032.0,1
908,0.0,1.0,4.0,-1.0,5.0,0.0,-1.0,0.0,1651091789838149.0,1
909,0.0,-3.0,-3.0,-2.0,-17.0,-3.0,-2.0,1.0,1651091789838149.0,1
910,-1.0,-5.0,-5.0,1.0,9.0,1.0,-1.0,0.0,1651091789838994.0,1
911,-1.0,0.0,6.0,2.0,-18.0,-3.0,-2.0,-1.0,1651091789838994.0,1
912,-1.0,-3.0,-7.0,-3.0,13.0,0.0,0.0,-1.0,1651091789860546.0,1
913,-1.0,-5.0,-3.0,-3.0,-15.0,-6.0,-2.0,-3.0,1651091789860546.0,1
914,0.0,2.0,-2.0,3.0,14.0,4.0,-1.0,1.0,1651091789861472.0,1
915,-1.0,1.0,3.0,3.0,2.0,1.0,0.0,1.0,1651091789861472.0,1
916,-1.0,-1.0,-1.0,-1.0,5.0,-2.0,0.0,0.0,1651091789882945.0,1
917,-1.0,0.0,2.0,-3.0,-2.0,-2.0,0.0,-1.0,1651091789882945.0,0
918,0.0,-1.0,0.0,2.0,-7.0,0.0,-1.0,-1.0,1651091789883941.0,2
919,0.0,-2.0,-5.0,-3.0,-5.0,-3.0,-2.0,-1.0,1651091789883941.0,2
920,0.0,2.0,5.0,2.0,23.0,5.0,0.0,1.0,1651091789898388.0,2
921,-1.0,1.0,2.0,2.0,10.0,1.0,0.0,1.0,1651091789898388.0,2
922,-1.0,0.0,-3.0,-3.0,-1.0,-4.0,-1.0,-1.0,1651091789899229.0,2
923,0.0,-2.0,1.0,-2.0,6.0,-1.0,0.0,-1.0,1651091789899229.0,2
924,-1.0,-3.0,-5.0,-3.0,-22.0,-5.0,-2.0,-1.0,1651091789920560.0,2
925,-2.0,-1.0,0.0,5.0,32.0,4.0,0.0,-1.0,1651091789920560.0,2
926,0.0,-2.0,-2.0,-7.0,12.0,-5.0,0.0,0.0,1651091789921421.0,2
927,-1.0,-2.0,-12.0,8.0,39.0,8.0,2.0,1.0,1651091789921421.0,2
928,-1.0,4.0,19.0,-1.0,-14.0,-2.0,-1.0,-1.0,1651091789942521.0,2
929,-1.0,2.0,4.0,3.0,40.0,3.0,-1.0,-1.0,1651091789942521.0,2
930,-1.0,1.0,0.0,0.0,-25.0,0.0,1.0,-1.0,1651091789944516.0,2
931,-1.0,-4.0,-4.0,-14.0,-34.0,-5.0,-2.0,-2.0,1651091789944516.0,2
932,-1.0,-2.0,-12.0,13.0,-6.0,-1.0,0.0,-2.0,1651091789964821.0,2
933,0.0,0.0,-1.0,-1.0,3.0,-1.0,0.0,1.0,1651091789964821.0,2
934,0.0,-2.0,1.0,2.0,-5.0,3.0,-1.0,1.0,1651091789966656.0,2
935,0.0,3.0,-1.0,-1.0,-7.0,-2.0,-1.0,-1.0,1651091789966656.0,2
936,1.0,2.0,1.0,-5.0,-3.0,3.0,0.0,1.0,1651091789981016.0,2
937,0.0,-2.0,-1.0,-4.0,-46.0,-8.0,-2.0,-2.0,1651091789981016.0,2
938,-1.0,-1.0,-1.0,3.0,70.0,3.0,0.0,-1.0,1651091789981852.0,2
939,0.0,0.0,1.0,0.0,-9.0,-1.0,-1.0,-1.0,1651091789981852.0,2
940,-1.0,-1.0,-3.0,-4.0,5.0,-4.0,-2.0,0.0,1651091790003580.0,2
941,0.0,0.0,0.0,-2.0,-41.0,-1.0,-1.0,-1.0,1651091790003580.0,2
942,-1.0,-1.0,-3.0,-1.0,22.0,0.0,-1.0,0.0,1651091790004100.0,2
943,0.0,-1.0,4.0,1.0,11.0,0.0,-2.0,-1.0,1651091790004100.0,2
944,-2.0,0.0,-3.0,-1.0,8.0,-1.0,-2.0,-1.0,1651091790017281.0,2
945,0.0,-2.0,-4.0,-4.0,-40.0,-7.0,-2.0,0.0,1651091790017281.0,2
946,-1.0,-1.0,-1.0,-6.0,-19.0,-6.0,-2.0,-2.0,1651091790024231.0,2
947,1.0,1.0,7.0,12.0,64.0,9.0,1.0,1.0,1651091790024231.0,2
948,0.0,-2.0,-5.0,-6.0,-12.0,0.0,2.0,1.0,1651091790041260.0,2
949,-1.0,1.0,-1.0,-3.0,-5.0,-1.0,1.0,-2.0,1651091790041260.0,2
950,-2.0,-3.0,-2.0,-3.0,-41.0,-9.0,-4.0,-2.0,1651091790041260.0,2
951,0.0,0.0,1.0,1.0,-11.0,2.0,1.0,0.0,1651091790041260.0,2
952,0.0,-2.0,-3.0,-4.0,-66.0,-9.0,-2.0,-1.0,1651091790063708.0,2
953,1.0,0.0,0.0,7.0,89.0,17.0,1.0,2.0,1651091790063708.0,2
954,0.0,1.0,3.0,-17.0,-61.0,-9.0,-1.0,-1.0,1651091790064548.0,2
955,-1.0,-2.0,-4.0,-27.0,-39.0,-6.0,-3.0,0.0,1651091790064548.0,2
956,-1.0,-2.0,-4.0,-2.0,44.0,5.0,0.0,-2.0,1651091790076870.0,2
957,-4.0,-1.0,5.0,57.0,-99.0,-8.0,-2.0,-4.0,1651091790076870.0,2
958,2.0,1.0,0.0,4.0,96.0,11.0,3.0,2.0,1651091790084005.0,2
959,-1.0,-2.0,1.0,15.0,41.0,2.0,-2.0,0.0,1651091790084005.0,2
960,1.0,0.0,-1.0,-25.0,11.0,0.0,0.0,2.0,1651091790100690.0,2
961,0.0,-2.0,-4.0,-69.0,1.0,-5.0,-1.0,2.0,1651091790100690.0,2
962,-5.0,-3.0,-3.0,27.0,-11.0,-1.0,-2.0,-7.0,1651091790101691.0,2
963,0.0,0.0,2.0,37.0,-47.0,-5.0,1.0,2.0,1651091790101691.0,2
964,0.0,1.0,-1.0,43.0,-26.0,2.0,0.0,-2.0,1651091790123337.0,2
965,3.0,2.0,4.0,8.0,83.0,6.0,2.0,5.0,1651091790123337.0,2
966,-3.0,-1.0,0.0,-42.0,-56.0,-8.0,-4.0,-6.0,1651091790123889.0,2
967,0.0,-1.0,-5.0,-36.0,-38.0,-10.0,-4.0,-4.0,1651091790123889.0,2
968,1.0,0.0,2.0,14.0,65.0,10.0,6.0,4.0,1651091790137014.0,2
969,-3.0,-1.0,-2.0,-28.0,-99.0,1.0,1.0,-4.0,1651091790137014.0,2
970,2.0,-2.0,-5.0,8.0,44.0,-8.0,-3.0,-1.0,1651091790145002.0,2
971,2.0,3.0,3.0,35.0,-18.0,6.0,4.0,2.0,1651091790145002.0,2
972,-6.0,-5.0,1.0,12.0,3.0,-17.0,-8.0,-7.0,1651091790160050.0,2
973,0.0,-1.0,-4.0,-23.0,-60.0,18.0,1.0,1.0,1651091790160050.0,2
974,1.0,-1.0,0.0,11.0,-36.0,-8.0,-3.0,0.0,1651091790162010.0,2
975,-2.0,-3.0,-1.0,-29.0,-23.0,5.0,0.0,-2.0,1651091790162010.0,2
976,5.0,2.0,-3.0,-4.0,-20.0,-2.0,4.0,4.0,1651091790183602.0,2
977,-2.0,0.0,5.0,22.0,-6.0,-14.0,-3.0,-3.0,1651091790183602.0,2
978,2.0,0.0,-4.0,-15.0,9.0,14.0,1.0,2.0,1651091790184431.0,2
979,6.0,2.0,2.0,-3.0,-22.0,1.0,7.0,9.0,1651091790184431.0,2
980,-3.0,-3.0,0.0,-8.0,97.0,6.0,-5.0,-7.0,1651091790196496.0,2
981,-8.0,-3.0,-6.0,-12.0,17.0,-15.0,-5.0,-10.0,1651091790196496.0,2
982,2.0,3.0,4.0,4.0,-100.0,-8.0,0.0,3.0,1651091790205509.0,2
983,-3.0,-3.0,-8.0,-1.0,48.0,-5.0,-3.0,-3.0,1651091790205509.0,2
984,0.0,1.0,1.0,7.0,-4.0,17.0,-1.0,0.0,1651091790220828.0,2
985,1.0,-3.0,-5.0,-26.0,25.0,1.0,4.0,3.0,1651091790220828.0,2
986,3.0,4.0,4.0,35.0,23.0,4.0,5.0,6.0,1651091790221665.0,2
987,-6.0,-1.0,2.0,-4.0,-19.0,-9.0,-2.0,-6.0,1651091790221665.0,2
988,-1.0,1.0,-3.0,-24.0,51.0,12.0,1.0,1.0,1651091790242201.0,2
989,7.0,3.0,6.0,42.0,11.0,0.0,0.0,8.0,1651091790242201.0,2
990,-7.0,-5.0,-4.0,-18.0,-76.0,-7.0,-4.0,-10.0,1651091790244198.0,2
991,0.0,-1.0,1.0,16.0,88.0,10.0,0.0,-5.0,1651091790244198.0,2
992,-2.0,-2.0,-5.0,-20.0,-70.0,-9.0,0.0,0.0,1651091790257519.0,2
993,-2.0,1.0,3.0,-9.0,91.0,5.0,-1.0,-3.0,1651091790257519.0,2
994,3.0,3.0,2.0,-28.0,-6.0,-11.0,1.0,7.0,1651091790271854.0,2
995,-1.0,-4.0,-6.0,-17.0,-46.0,4.0,-3.0,0.0,1651091790271854.0,2
996,-6.0,-4.0,-4.0,52.0,-21.0,-8.0,-4.0,-6.0,1651091790280169.0,2
997,1.0,1.0,7.0,52.0,85.0,28.0,4.0,4.0,1651091790280169.0,2
998,1.0,-1.0,-2.0,-22.0,-35.0,-11.0,1.0,1.0,1651091790287649.0,2
999,-4.0,0.0,-2.0,31.0,-78.0,-2.0,-2.0,-4.0,1651091790287649.0,2
1000,2.0,-1.0,-1.0,-55.0,-14.0,6.0,2.0,0.0,1651091790303205.0,2
1001,-2.0,-2.0,0.0,-19.0,-128.0,-32.0,-5.0,-3.0,1651091790303205.0,2
1002,0.0,1.0,2.0,43.0,73.0,17.0,0.0,-2.0,1651091790303774.0,2
1003,10.0,1.0,-3.0,-29.0,8.0,10.0,8.0,12.0,1651091790303774.0,2
1004,-5.0,-1.0,-2.0,-3.0,-41.0,-9.0,-5.0,-7.0,1651091790316336.0,2
1005,1.0,2.0,-3.0,-8.0,-22.0,-5.0,-1.0,-2.0,1651091790316336.0,2
1006,-1.0,-2.0,1.0,8.0,11.0,4.0,2.0,2.0,1651091790325672.0,2
1007,3.0,1.0,1.0,2.0,-69.0,-6.0,2.0,9.0,1651091790325672.0,2
1008,-4.0,-2.0,-1.0,-3.0,2.0,-4.0,-5.0,-6.0,1651091790340789.0,2
1009,1.0,-1.0,-3.0,-23.0,-19.0,4.0,3.0,0.0,1651091790340789.0,2
1010,-2.0,-2.0,-1.0,6.0,-53.0,-6.0,-1.0,-1.0,1651091790341629.0,2
1011,-1.0,0.0,1.0,-18.0,125.0,23.0,5.0,2.0,1651091790341629.0,2
1012,-1.0,-1.0,-2.0,56.0,-43.0,-8.0,-2.0,-3.0,1651091790363437.0,2
1013,-1.0,-1.0,-1.0,-11.0,37.0,5.0,-2.0,1.0,1651091790363437.0,2
1014,0.0,0.0,-3.0,-22.0,13.0,5.0,1.0,0.0,1651091790363804.0,2
1015,-4.0,-1.0,-1.0,-42.0,-26.0,-18.0,-6.0,-7.0,1651091790363804.0,2
1016,2.0,-1.0,1.0,14.0,-48.0,-8.0,0.0,4.0,1651091790377966.0,2
1017,-1.0,1.0,0.0,-9.0,-45.0,-9.0,-1.0,-4.0,1651091790377966.0,2
1018,-2.0,-7.0,-12.0,55.0,14.0,-7.0,-8.0,-4.0,1651091790385968.0,2
1019,0.0,3.0,12.0,7.0,90.0,19.0,3.0,-4.0,1651091790385968.0,2
1020,0.0,1.0,0.0,-54.0,-53.0,-10.0,-2.0,-1.0,1651091790400086.0,2
1021,3.0,0.0,0.0,38.0,9.0,8.0,3.0,4.0,1651091790400086.0,2
1022,0.0,1.0,2.0,-25.0,-19.0,9.0,2.0,2.0,1651091790402081.0,2
1023,-3.0,-3.0,-7.0,6.0,-23.0,-17.0,-5.0,0.0,1651091790402081.0,2
1024,1.0,0.0,3.0,-8.0,-23.0,5.0,4.0,8.0,1651091790423406.0,2
1025,1.0,-1.0,2.0,24.0,71.0,1.0,-2.0,-1.0,1651091790423406.0,2
1026,-10.0,-4.0,-2.0,-24.0,-5.0,-14.0,-7.0,-15.0,1651091790424250.0,2
1027,-1.0,1.0,-1.0,9.0,-42.0,2.0,0.0,-5.0,1651091790424250.0,2
1028,3.0,2.0,1.0,-24.0,-26.0,-3.0,4.0,6.0,1651091790437415.0,2
1029,0.0,0.0,0.0,-23.0,-11.0,-2.0,0.0,3.0,1651091790437415.0,2
1030,0.0,-2.0,-1.0,23.0,-13.0,8.0,1.0,0.0,1651091790445453.0,2
1031,-4.0,-3.0,1.0,36.0,40.0,3.0,-4.0,-2.0,1651091790445453.0,2
1032,0.0,2.0,2.0,-1.0,-64.0,-19.0,-4.0,-2.0,1651091790460577.0,2
1033,-1.0,-3.0,-6.0,-36.0,76.0,1.0,-2.0,0.0,1651091790460577.0,2
1034,-1.0,3.0,2.0,-32.0,17.0,14.0,3.0,-3.0,1651091790461578.0,2
1035,-4.0,-5.0,-2.0,70.0,-71.0,-21.0,-5.0,-1.0,1651091790461578.0,2
1036,3.0,-1.0,-4.0,-15.0,69.0,18.0,5.0,5.0,1651091790489803.0,2
1037,-3.0,-2.0,-5.0,-39.0,-16.0,-17.0,-5.0,-7.0,1651091790489803.0,2
1038,-1.0,-4.0,-4.0,30.0,-67.0,-12.0,-3.0,2.0,1651091790491751.0,2
1039,2.0,2.0,0.0,-35.0,-5.0,-5.0,-3.0,-3.0,1651091790491751.0,2
1040,-2.0,-3.0,2.0,41.0,94.0,15.0,1.0,-2.0,1651091790496738.0,2
1041,6.0,2.0,2.0,-12.0,-68.0,13.0,4.0,6.0,1651091790496738.0,2
1042,3.0,1.0,-1.0,-22.0,44.0,2.0,6.0,1.0,1651091790505044.0,2
1043,-3.0,1.0,1.0,12.0,-27.0,2.0,1.0,-1.0,1651091790505044.0,2
1044,2.0,3.0,0.0,-16.0,10.0,-6.0,1.0,0.0,1651091790521345.0,2
1045,-2.0,-2.0,-3.0,24.0,-36.0,-9.0,-5.0,-6.0,1651091790521345.0,2
1046,5.0,3.0,2.0,-4.0,44.0,18.0,4.0,8.0,1651091790521345.0,2
1047,-5.0,-2.0,2.0,-4.0,-6.0,-10.0,-6.0,-9.0,1651091790521345.0,2
1048,-1.0,-5.0,-3.0,-24.0,-4.0,0.0,-2.0,-3.0,1651091790542368.0,2
1049,0.0,0.0,-2.0,47.0,-34.0,-7.0,0.0,4.0,1651091790542368.0,2
1050,-1.0,5.0,8.0,30.0,-33.0,-3.0,-2.0,-3.0,1651091790544407.0,2
1051,5.0,0.0,2.0,-45.0,-6.0,-2.0,1.0,6.0,1651091790544407.0,2
1052,3.0,2.0,-3.0,49.0,96.0,20.0,5.0,1.0,1651091790557534.0,2
1053,-2.0,-5.0,-3.0,-21.0,-104.0,-18.0,-3.0,0.0,1651091790557534.0,2
1054,0.0,-2.0,-6.0,-64.0,-3.0,0.0,-5.0,-2.0,1651091790565515.0,2
1055,3.0,2.0,1.0,70.0,29.0,1.0,6.0,5.0,1651091790565515.0,2
1056,-3.0,0.0,2.0,-3.0,45.0,9.0,-3.0,-4.0,1651091790580516.0,2
1057,-4.0,0.0,5.0,6.0,-37.0,-9.0,-4.0,-1.0,1651091790580516.0,2
1058,-2.0,-5.0,-4.0,-15.0,-44.0,-12.0,0.0,-2.0,1651091790582502.0,2
1059,-5.0,0.0,0.0,-40.0,8.0,5.0,-3.0,-6.0,1651091790582502.0,2
1060,2.0,3.0,4.0,48.0,8.0,-24.0,-1.0,1.0,1651091790601462.0,2
1061,-4.0,-2.0,-3.0,1.0,11.0,33.0,-2.0,-6.0,1651091790601462.0,2
1062,1.0,1.0,2.0,-27.0,12.0,-25.0,-2.0,2.0,1651091790610395.0,2
1063,1.0,1.0,-1.0,-10.0,-7.0,11.0,5.0,1.0,1651091790610395.0,2
1064,1.0,0.0,-4.0,20.0,9.0,0.0,4.0,3.0,1651091790616422.0,2
1065,-2.0,-2.0,-3.0,-9.0,18.0,-2.0,-2.0,-1.0,1651091790616422.0,2
1066,-1.0,2.0,1.0,17.0,4.0,3.0,-2.0,-8.0,1651091790625355.0,2
1067,-1.0,-1.0,-3.0,-4.0,-18.0,2.0,-2.0,-3.0,1651091790625355.0,2
1068,0.0,-1.0,0.0,-24.0,-85.0,-8.0,1.0,4.0,1651091790640357.0,2
1069,-1.0,-1.0,0.0,18.0,53.0,0.0,2.0,-2.0,1651091790640357.0,2
1070,4.0,3.0,4.0,14.0,33.0,14.0,2.0,3.0,1651091790646300.0,2
1071,0.0,-1.0,-3.0,12.0,-11.0,-18.0,-1.0,2.0,1651091790646300.0,2
1072,-5.0,-1.0,0.0,-46.0,-14.0,13.0,-5.0,-6.0,1651091790662257.0,2
1073,3.0,-2.0,-5.0,3.0,-11.0,-4.0,1.0,3.0,1651091790662257.0,2
1074,-8.0,-5.0,-2.0,12.0,7.0,-4.0,0.0,-4.0,1651091790664251.0,2
1075,-6.0,-3.0,-3.0,-12.0,-82.0,-18.0,-8.0,-11.0,1651091790664251.0,2
1076,2.0,1.0,6.0,16.0,44.0,6.0,1.0,6.0,1651091790676219.0,2
1077,-6.0,-4.0,-6.0,7.0,-18.0,5.0,-4.0,-10.0,1651091790676219.0,2
1078,3.0,4.0,4.0,-7.0,22.0,8.0,8.0,7.0,1651091790685195.0,2
1079,2.0,-3.0,-1.0,13.0,-35.0,-2.0,-4.0,3.0,1651091790685195.0,2
1080,-2.0,-4.0,-6.0,-8.0,-43.0,-12.0,-4.0,-5.0,1651091790700197.0,2
1081,2.0,0.0,-1.0,1.0,-15.0,-21.0,-4.0,2.0,1651091790700197.0,2
1082,2.0,4.0,11.0,37.0,91.0,54.0,6.0,4.0,1651091790702150.0,2
1083,-1.0,2.0,0.0,-3.0,-19.0,-3.0,0.0,-3.0,1651091790702150.0,2
1084,-1.0,-2.0,-2.0,-12.0,-37.0,-2.0,0.0,4.0,1651091790723094.0,2
1085,2.0,4.0,5.0,-3.0,47.0,4.0,4.0,5.0,1651091790723094.0,2
1086,2.0,-2.0,-10.0,-37.0,-71.0,-35.0,-7.0,1.0,1651091790724092.0,2
1087,-6.0,1.0,2.0,-7.0,61.0,24.0,3.0,-4.0,1651091790724092.0,2
1088,0.0,3.0,2.0,25.0,6.0,0.0,0.0,-3.0,1651091790745078.0,2
1089,-1.0,1.0,3.0,-5.0,30.0,10.0,3.0,2.0,1651091790745078.0,2
1090,-2.0,-4.0,-8.0,-15.0,-75.0,-34.0,-5.0,-4.0,1651091790747061.0,2
1091,-1.0,-3.0,-2.0,4.0,45.0,8.0,-2.0,-2.0,1651091790747061.0,2
1092,1.0,0.0,-3.0,-49.0,-53.0,-9.0,-1.0,3.0,1651091790760042.0,2
1093,-1.0,2.0,5.0,43.0,-21.0,11.0,3.0,-3.0,1651091790760042.0,2
1094,1.0,-3.0,-1.0,2.0,43.0,-2.0,-1.0,3.0,1651091790761990.0,2
1095,6.0,5.0,5.0,-9.0,-13.0,-11.0,4.0,9.0,1651091790761990.0,2
1096,-7.0,-4.0,-6.0,40.0,-51.0,11.0,-4.0,-10.0,1651091790783137.0,2
1097,0.0,0.0,1.0,-19.0,14.0,2.0,1.0,-1.0,1651091790783137.0,2
1098,-3.0,-4.0,-5.0,-24.0,-46.0,5.0,-3.0,-3.0,1651091790784123.0,2
1099,2.0,-2.0,-3.0,12.0,-17.0,-24.0,-3.0,3.0,1651091790784123.0,2
1100,2.0,0.0,-1.0,-19.0,15.0,34.0,1.0,6.0,1651091790805634.0,2
1101,-7.0,-4.0,-6.0,-1.0,-45.0,-4.0,-4.0,-9.0,1651091790805634.0,2
1102,1.0,-1.0,-1.0,7.0,57.0,9.0,2.0,1.0,1651091790806468.0,2
1103,-3.0,-3.0,-7.0,-25.0,-44.0,-9.0,-3.0,-3.0,1651091790806468.0,2
1104,2.0,2.0,4.0,12.0,42.0,-2.0,2.0,1.0,1651091790820622.0,2
1105,-1.0,0.0,-4.0,-20.0,5.0,-9.0,0.0,2.0,1651091790820622.0,2
1106,2.0,1.0,2.0,22.0,93.0,13.0,2.0,0.0,1651091790821621.0,2
1107,0.0,0.0,-3.0,3.0,-23.0,-1.0,-2.0,2.0,1651091790821621.0,2
1108,-6.0,-3.0,1.0,7.0,-18.0,-8.0,-4.0,-9.0,1651091790842936.0,2
1109,5.0,1.0,-2.0,-46.0,6.0,-5.0,0.0,7.0,1651091790842936.0,2
1110,-6.0,-3.0,-4.0,5.0,-116.0,-15.0,-7.0,-5.0,1651091790843938.0,2
1111,2.0,3.0,3.0,29.0,80.0,-10.0,-1.0,-1.0,1651091790843938.0,2
1112,2.0,-1.0,-4.0,-9.0,-85.0,-11.0,2.0,2.0,1651091790865397.0,2
1113,0.0,-1.0,-4.0,0.0,-4.0,-7.0,-3.0,-1.0,1651091790865397.0,2
1114,0.0,3.0,6.0,-1.0,6.0,15.0,2.0,-1.0,1651091790873096.0,2
1115,-1.0,-3.0,-1.0,-21.0,-5.0,28.0,5.0,4.0,1651091790873096.0,2
1116,-4.0,-1.0,0.0,-16.0,-3.0,3.0,-3.0,-7.0,1651091790879242.0,2
1117,3.0,-1.0,-4.0,24.0,-14.0,-16.0,-2.0,4.0,1651091790879242.0,2
1118,-2.0,0.0,-2.0,37.0,1.0,32.0,2.0,-4.0,1651091790888245.0,2
1119,0.0,-1.0,2.0,-27.0,1.0,-1.0,0.0,1.0,1651091790888245.0,2
1120,4.0,-1.0,0.0,26.0,15.0,-4.0,4.0,5.0,1651091790903578.0,2
1121,-2.0,-2.0,-2.0,-31.0,-26.0,9.0,1.0,-2.0,1651091790903578.0,2
1122,-11.0,-7.0,-3.0,18.0,-6.0,-19.0,-8.0,-7.0,1651091790904449.0,2
1123,4.0,2.0,3.0,12.0,33.0,9.0,5.0,6.0,1651091790904449.0,2
1124,0.0,-1.0,-4.0,-43.0,-4.0,-4.0,-5.0,-5.0,1651091790925559.0,2
1125,-2.0,0.0,1.0,17.0,-14.0,-7.0,-2.0,-2.0,1651091790925559.0,2
1126,3.0,2.0,0.0,2.0,-8.0,-9.0,2.0,5.0,1651091790926556.0,2
1127,-3.0,-3.0,-1.0,-20.0,-50.0,2.0,-2.0,-5.0,1651091790926556.0,2
1128,-3.0,-1.0,-3.0,10.0,47.0,-8.0,0.0,1.0,1651091790939843.0,2
1129,2.0,4.0,8.0,-17.0,-1.0,0.0,0.0,-3.0,1651091790939843.0,2
1130,4.0,-1.0,-2.0,22.0,10.0,18.0,5.0,4.0,1651091790947819.0,2
1131,-7.0,-2.0,-4.0,-12.0,-63.0,-17.0,-8.0,-9.0,1651091790947819.0,2
1132,1.0,1.0,-2.0,9.0,67.0,3.0,0.0,3.0,1651091790962961.0,2
1133,-1.0,-2.0,2.0,-8.0,-28.0,-1.0,1.0,-3.0,1651091790962961.0,2
1134,2.0,1.0,-3.0,-23.0,-64.0,-27.0,-4.0,1.0,1651091790963832.0,2
1135,-2.0,0.0,-4.0,-5.0,106.0,28.0,4.0,0.0,1651091790963832.0,2
1136,-2.0,-1.0,4.0,62.0,-33.0,-8.0,0.0,-1.0,1651091790985218.0,2
1137,-1.0,-2.0,-3.0,-8.0,23.0,6.0,-1.0,0.0,1651091790985218.0,2
1138,-2.0,-1.0,6.0,26.0,39.0,-4.0,1.0,-2.0,1651091790987103.0,2
1139,-2.0,-2.0,-4.0,-20.0,-53.0,0.0,0.0,-5.0,1651091790987103.0,2
1140,-1.0,1.0,2.0,-29.0,21.0,-10.0,-1.0,2.0,1651091791000430.0,2
1141,0.0,-1.0,-2.0,3.0,-11.0,5.0,0.0,-1.0,1651091791000430.0,2
1142,2.0,0.0,-1.0,17.0,-7.0,-2.0,1.0,1.0,1651091791007413.0,2
1143,1.0,0.0,1.0,5.0,-22.0,-7.0,0.0,3.0,1651091791007413.0,2
1144,2.0,0.0,-2.0,-9.0,0.0,-4.0,3.0,3.0,1651091791023692.0,2
1145,2.0,2.0,3.0,30.0,61.0,11.0,4.0,3.0,1651091791023692.0,2
1146,-3.0,-1.0,-2.0,-46.0,-18.0,1.0,-3.0,-4.0,1651091791024594.0,2
1147,0.0,-1.0,-5.0,-21.0,-4.0,-11.0,-6.0,-6.0,1651091791024594.0,2
1148,2.0,0.0,0.0,13.0,-81.0,3.0,4.0,2.0,1651091791045899.0,2
1149,-1.0,0.0,0.0,23.0,87.0,5.0,-2.0,1.0,1651091791045899.0,2
1150,2.0,1.0,2.0,-35.0,-19.0,6.0,0.0,2.0,1651091791046738.0,2
1151,0.0,1.0,6.0,54.0,3.0,-2.0,2.0,4.0,1651091791046738.0,2
1152,-1.0,0.0,-1.0,-40.0,-36.0,-4.0,-6.0,-2.0,1651091791059889.0,2
1153,-1.0,-3.0,-5.0,-10.0,-5.0,-4.0,0.0,1.0,1651091791059889.0,2
1154,1.0,-1.0,-3.0,17.0,-44.0,-15.0,1.0,0.0,1651091791065872.0,2
1155,-3.0,-3.0,-3.0,-15.0,83.0,2.0,-4.0,-5.0,1651091791065872.0,2
1156,2.0,-1.0,-2.0,-18.0,-62.0,-19.0,2.0,1.0,1651091791082235.0,2
1157,2.0,1.0,5.0,37.0,66.0,50.0,3.0,-1.0,1651091791082235.0,2
1158,0.0,-3.0,-2.0,-18.0,-7.0,-17.0,-5.0,1.0,1651091791084206.0,2
1159,3.0,-1.0,-3.0,-40.0,-21.0,2.0,0.0,1.0,1651091791084206.0,2
1160,-10.0,-4.0,-3.0,27.0,21.0,-14.0,-11.0,-12.0,1651091791105571.0,2
1161,1.0,3.0,3.0,26.0,24.0,0.0,1.0,1.0,1651091791105571.0,2
1162,0.0,-1.0,-4.0,-12.0,-7.0,-2.0,1.0,0.0,1651091791106424.0,2
1163,-2.0,-1.0,3.0,20.0,-38.0,-6.0,-3.0,-2.0,1651091791106424.0,2
1164,2.0,-1.0,3.0,-13.0,34.0,16.0,1.0,1.0,1651091791119566.0,2
1165,2.0,0.0,0.0,-5.0,-122.0,-27.0,-1.0,4.0,1651091791119566.0,2
1166,-3.0,0.0,1.0,19.0,71.0,10.0,-1.0,-5.0,1651091791126581.0,2
1167,1.0,-4.0,-2.0,-23.0,-49.0,-16.0,-1.0,2.0,1651091791126581.0,2
1168,-1.0,0.0,-2.0,15.0,-6.0,15.0,0.0,-3.0,1651091791142678.0,2
1169,-5.0,0.0,0.0,-6.0,12.0,-11.0,2.0,-1.0,1651091791142678.0,2
1170,-2.0,-1.0,-3.0,25.0,-40.0,-4.0,-3.0,-4.0,1651091791144671.0,2
1171,5.0,0.0,0.0,-30.0,-19.0,0.0,2.0,4.0,1651091791144671.0,2
1172,-2.0,2.0,-1.0,23.0,48.0,7.0,2.0,0.0,1651091791165616.0,2
1173,0.0,0.0,-1.0,-4.0,10.0,9.0,-1.0,-1.0,1651091791165616.0,2
1174,-1.0,-1.0,1.0,13.0,-31.0,0.0,-1.0,0.0,1651091791167622.0,2
1175,-2.0,-3.0,0.0,10.0,-34.0,-14.0,-3.0,-2.0,1651091791167622.0,2
1176,0.0,0.0,-3.0,-12.0,0.0,16.0,2.0,0.0,1651091791179578.0,2
1177,-3.0,-2.0,-6.0,6.0,-25.0,0.0,0.0,-1.0,1651091791179578.0,2
1178,-2.0,2.0,5.0,-28.0,97.0,8.0,1.0,-2.0,1651091791193542.0,2
1179,-1.0,1.0,0.0,23.0,-39.0,5.0,0.0,-1.0,1651091791193542.0,2
1180,3.0,0.0,0.0,-24.0,-14.0,-10.0,1.0,5.0,1651091791202516.0,2
1181,-6.0,-4.0,-8.0,-16.0,-43.0,-10.0,-5.0,-7.0,1651091791202516.0,2
1182,3.0,2.0,3.0,23.0,32.0,9.0,2.0,4.0,1651091791204511.0,2
1183,-3.0,-2.0,2.0,11.0,43.0,-9.0,2.0,5.0,1651091791204511.0,2
1184,0.0,1.0,0.0,-12.0,46.0,2.0,-1.0,-4.0,1651091791225455.0,2
1185,2.0,-1.0,-2.0,-6.0,-61.0,-11.0,3.0,-1.0,1651091791225455.0,2
1186,4.0,-2.0,4.0,24.0,-29.0,-2.0,1.0,8.0,1651091791226453.0,2
1187,-8.0,-1.0,-5.0,-4.0,40.0,6.0,-4.0,-14.0,1651091791226453.0,2
1188,1.0,-3.0,-3.0,-5.0,-14.0,-10.0,-1.0,1.0,1651091791238421.0,2
1189,2.0,1.0,3.0,26.0,36.0,2.0,1.0,4.0,1651091791238421.0,2
1190,-4.0,-3.0,-1.0,-16.0,-78.0,-8.0,-4.0,-5.0,1651091791247421.0,2
1191,1.0,4.0,5.0,47.0,58.0,4.0,3.0,3.0,1651091791247421.0,2
1192,-4.0,-2.0,-4.0,-51.0,-36.0,3.0,-3.0,-1.0,1651091791262537.0,2
1193,-1.0,0.0,-3.0,-16.0,-36.0,7.0,-3.0,-4.0,1651091791262537.0,2
1194,-1.0,-1.0,-1.0,2.0,27.0,-3.0,0.0,-2.0,1651091791264535.0,2
1195,-1.0,1.0,-2.0,-35.0,0.0,10.0,-2.0,-2.0,1651091791264535.0,2
1196,5.0,1.0,3.0,39.0,-86.0,-1.0,4.0,4.0,1651091791284706.0,2
1197,-5.0,-2.0,2.0,-17.0,45.0,-11.0,-2.0,-5.0,1651091791284706.0,2
1198,-2.0,0.0,2.0,24.0,-28.0,5.0,1.0,-1.0,1651091791286700.0,2
1199,4.0,0.0,0.0,-53.0,-37.0,2.0,0.0,4.0,1651091791286700.0,2
1200,-3.0,-2.0,-2.0,10.0,14.0,-13.0,-2.0,-1.0,1651091791298991.0,2
1201,1.0,0.0,-1.0,4.0,-56.0,-2.0,2.0,4.0,1651091791298991.0,2
1202,0.0,1.0,4.0,15.0,108.0,-1.0,-1.0,-2.0,1651091791314013.0,2
1203,5.0,1.0,1.0,-2.0,-44.0,2.0,2.0,3.0,1651091791314013.0,2
1204,-4.0,-4.0,0.0,2.0,15.0,5.0,-2.0,-4.0,1651091791323203.0,2
1205,4.0,3.0,2.0,-3.0,-11.0,-8.0,1.0,3.0,1651091791323203.0,2
1206,-7.0,-5.0,-14.0,-47.0,-44.0,5.0,-6.0,-9.0,1651091791324018.0,2
1207,4.0,0.0,4.0,39.0,33.0,4.0,4.0,5.0,1651091791324018.0,2
1208,2.0,2.0,3.0,5.0,-59.0,-1.0,2.0,1.0,1651091791345281.0,2
1209,-6.0,-1.0,-2.0,-14.0,84.0,-1.0,-6.0,-8.0,1651091791345281.0,2
1210,3.0,2.0,0.0,-4.0,-25.0,-2.0,4.0,6.0,1651091791347141.0,2
1211,-2.0,-2.0,-4.0,-9.0,-64.0,-11.0,-3.0,-3.0,1651091791347141.0,2
1212,-6.0,-7.0,-3.0,-12.0,27.0,-2.0,-5.0,-7.0,1651091791359086.0,2
1213,4.0,0.0,-3.0,56.0,5.0,6.0,1.0,6.0,1651091791359086.0,2
1214,-3.0,1.0,7.0,-14.0,33.0,3.0,-3.0,-5.0,1651091791368061.0,2
1215,1.0,0.0,0.0,-29.0,-37.0,-13.0,-4.0,2.0,1651091791368061.0,2
1216,-8.0,-7.0,-5.0,39.0,63.0,-5.0,-11.0,-8.0,1651091791383052.0,2
1217,5.0,0.0,1.0,-35.0,-48.0,-1.0,4.0,4.0,1651091791383052.0,2
1218,-9.0,-7.0,-8.0,6.0,-100.0,-23.0,-8.0,-8.0,1651091791384019.0,2
1219,7.0,2.0,2.0,24.0,100.0,26.0,8.0,9.0,1651091791384019.0,2
1220,-2.0,1.0,0.0,-28.0,-43.0,9.0,-2.0,-2.0,1651091791404962.0,2
1221,-2.0,-2.0,-4.0,-8.0,-19.0,1.0,-1.0,-2.0,1651091791404962.0,2
1222,-1.0,-1.0,0.0,5.0,14.0,-11.0,-4.0,-6.0,1651091791410978.0,2
1223,1.0,2.0,1.0,0.0,-27.0,7.0,2.0,-3.0,1651091791410978.0,2
1224,1.0,2.0,1.0,17.0,-27.0,-3.0,0.0,4.0,1651091791418924.0,2
1225,4.0,2.0,4.0,13.0,74.0,10.0,6.0,7.0,1651091791418924.0,2
1226,0.0,-3.0,-7.0,-36.0,-46.0,-10.0,-3.0,1.0,1651091791427913.0,2
1227,-8.0,-8.0,-11.0,-82.0,70.0,-12.0,-7.0,-5.0,1651091791427913.0,2
1228,-2.0,5.0,14.0,105.0,-4.0,11.0,3.0,-1.0,1651091791442860.0,2
1229,-2.0,0.0,-3.0,-27.0,-65.0,-4.0,-3.0,-2.0,1651091791442860.0,2
1230,5.0,2.0,4.0,-23.0,62.0,7.0,6.0,7.0,1651091791443879.0,2
1231,2.0,0.0,-7.0,14.0,-49.0,-12.0,2.0,2.0,1651091791443879.0,2
1232,2.0,-3.0,-10.0,-40.0,-25.0,-4.0,-3.0,2.0,1651091791473772.0,2
1233,-3.0,0.0,3.0,3.0,18.0,-4.0,-5.0,-8.0,1651091791473772.0,2
1234,1.0,-1.0,0.0,-1.0,-23.0,-9.0,1.0,-1.0,1651091791473772.0,2
1235,-7.0,-3.0,1.0,20.0,-61.0,29.0,-2.0,-6.0,1651091791473772.0,2
1236,1.0,-2.0,-1.0,-34.0,46.0,-6.0,-2.0,1.0,1651091791478794.0,2
1237,-6.0,-3.0,3.0,27.0,6.0,-10.0,-2.0,-7.0,1651091791478794.0,2
1238,7.0,5.0,2.0,0.0,51.0,19.0,10.0,6.0,1651091791494303.0,2
1239,2.0,-1.0,1.0,17.0,-7.0,-7.0,0.0,0.0,1651091791494303.0,2
1240,-4.0,0.0,-6.0,-23.0,4.0,-1.0,-1.0,0.0,1651091791502419.0,2
1241,-3.0,-1.0,5.0,-9.0,-23.0,2.0,-4.0,-1.0,1651091791502419.0,2
1242,-9.0,3.0,-3.0,42.0,14.0,1.0,4.0,6.0,1651091791504447.0,2
1243,12.0,1.0,3.0,26.0,24.0,0.0,3.0,1.0,1651091791504447.0,2
1244,-2.0,-3.0,-1.0,-18.0,-48.0,-1.0,-4.0,-9.0,1651091791525537.0,2
1245,2.0,1.0,-2.0,-23.0,39.0,5.0,2.0,2.0,1651091791525537.0,2
1246,0.0,-3.0,-4.0,-23.0,-64.0,12.0,-2.0,1.0,1651091791526534.0,2
1247,-4.0,1.0,2.0,43.0,15.0,-2.0,-2.0,-2.0,1651091791526534.0,2
1248,2.0,2.0,2.0,-12.0,34.0,-7.0,3.0,4.0,1651091791538952.0,2
1249,0.0,-4.0,-5.0,2.0,-14.0,-5.0,-4.0,-3.0,1651091791538952.0,2
1250,-2.0,-3.0,2.0,-7.0,-47.0,-9.0,-4.0,-3.0,1651091791547785.0,2
1251,-7.0,-4.0,-5.0,-2.0,2.0,16.0,-4.0,-3.0,1651091791547785.0,2
1252,6.0,1.0,-1.0,-4.0,-36.0,4.0,6.0,7.0,1651091791562973.0,2
1253,-5.0,-1.0,4.0,11.0,2.0,15.0,-1.0,-3.0,1651091791562973.0,2
1254,1.0,-1.0,-2.0,-9.0,-18.0,-17.0,-3.0,-3.0,1651091791563924.0,2
1255,-1.0,-1.0,-2.0,0.0,-2.0,-20.0,-6.0,-5.0,1651091791563924.0,2
1256,-3.0,2.0,0.0,0.0,23.0,15.0,1.0,6.0,1651091791585046.0,2
1257,2.0,0.0,-3.0,-5.0,-36.0,-6.0,12.0,15.0,1651091791585046.0,2
1258,4.0,0.0,1.0,5.0,26.0,17.0,2.0,-7.0,1651091791587040.0,2
1259,9.0,-6.0,0.0,-4.0,-23.0,-3.0,-4.0,-15.0,1651091791587040.0,2
1260,-60.0,2.0,1.0,-1.0,5.0,-11.0,6.0,-2.0,1651091791599170.0,2
1261,40.0,6.0,1.0,4.0,-2.0,7.0,3.0,-3.0,1651091791599170.0,2
1262,10.0,-9.0,-2.0,1.0,-14.0,-2.0,-2.0,-2.0,1651091791608765.0,2
1263,27.0,10.0,4.0,13.0,46.0,2.0,0.0,1.0,1651091791608765.0,2
1264,-7.0,1.0,-10.0,-11.0,-26.0,4.0,20.0,4.0,1651091791623000.0,2
1265,-9.0,0.0,14.0,-1.0,10.0,-4.0,8.0,-23.0,1651091791623000.0,2
1266,-39.0,-2.0,-4.0,-2.0,4.0,-19.0,-6.0,3.0,1651091791623997.0,2
1267,25.0,-5.0,-2.0,-4.0,-62.0,-1.0,-2.0,6.0,1651091791623997.0,2
1268,22.0,-3.0,-2.0,5.0,50.0,-4.0,-17.0,11.0,1651091791644973.0,2
1269,-12.0,1.0,-8.0,-2.0,-10.0,-6.0,2.0,-4.0,1651091791644973.0,2
1270,9.0,4.0,13.0,0.0,-25.0,13.0,-2.0,-4.0,1651091791646934.0,2
1271,-22.0,0.0,1.0,3.0,4.0,5.0,5.0,8.0,1651091791646934.0,2
1272,15.0,1.0,7.0,5.0,23.0,3.0,-3.0,-8.0,1651091791667896.0,2
1273,-8.0,-6.0,-11.0,-4.0,-11.0,-23.0,-9.0,-2.0,1651091791667896.0,2
1274,-1.0,-3.0,-7.0,-7.0,-8.0,6.0,-1.0,0.0,1651091791668894.0,2
1275,-12.0,0.0,-2.0,-3.0,16.0,10.0,-2.0,-5.0,1651091791668894.0,2
1276,8.0,0.0,3.0,3.0,25.0,-8.0,1.0,-4.0,1651091791682891.0,2
1277,-3.0,-1.0,1.0,-1.0,-2.0,7.0,-5.0,-2.0,1651091791682891.0,2
1278,5.0,-1.0,-1.0,3.0,5.0,4.0,-1.0,2.0,1651091791683853.0,2
1279,-13.0,2.0,1.0,-5.0,-48.0,-7.0,0.0,3.0,1651091791683853.0,2
1280,9.0,-2.0,1.0,4.0,1.0,-1.0,-3.0,0.0,1651091791704832.0,2
1281,-3.0,-1.0,-1.0,-1.0,-1.0,2.0,-3.0,8.0,1651091791704832.0,2
1282,6.0,2.0,0.0,6.0,25.0,1.0,1.0,1.0,1651091791706793.0,2
1283,-7.0,-2.0,-3.0,-3.0,-27.0,-13.0,0.0,-2.0,1651091791706793.0,2
1284,0.0,-3.0,-3.0,-9.0,-40.0,-5.0,-2.0,-2.0,1651091791727736.0,2
1285,-4.0,-2.0,-2.0,-7.0,-44.0,-4.0,-5.0,0.0,1651091791727736.0,2
1286,3.0,3.0,2.0,13.0,72.0,17.0,3.0,0.0,1651091791729767.0,2
1287,-5.0,0.0,3.0,0.0,-25.0,-5.0,-1.0,-2.0,1651091791729767.0,2
1288,4.0,1.0,-4.0,2.0,16.0,5.0,-1.0,-3.0,1651091791742729.0,2
1289,-7.0,-4.0,2.0,-5.0,-46.0,-7.0,-2.0,4.0,1651091791742729.0,2
1290,7.0,-4.0,-6.0,3.0,26.0,-8.0,-2.0,0.0,1651091791744717.0,2
1291,-10.0,4.0,0.0,-2.0,0.0,6.0,2.0,4.0,1651091791744717.0,2
1292,3.0,0.0,2.0,6.0,54.0,6.0,0.0,-2.0,1651091791764637.0,2
1293,0.0,0.0,-3.0,-6.0,-30.0,-15.0,-5.0,0.0,1651091791764637.0,2
1294,-2.0,1.0,-2.0,0.0,-35.0,13.0,0.0,2.0,1651091791772616.0,2
1295,-1.0,-3.0,-2.0,6.0,59.0,5.0,-1.0,-1.0,1651091791772616.0,2
1296,1.0,-1.0,-2.0,-6.0,-32.0,-3.0,-1.0,-1.0,1651091791788067.0,2
1297,0.0,0.0,1.0,1.0,11.0,4.0,0.0,-2.0,1651091791788067.0,2
1298,1.0,2.0,1.0,-8.0,-24.0,-12.0,0.0,1.0,1651091791789068.0,2
1299,-2.0,-3.0,-1.0,5.0,1.0,-6.0,-3.0,-1.0,1651091791789068.0,2
1300,2.0,-1.0,-1.0,-6.0,-25.0,-2.0,1.0,-1.0,1651091791802080.0,2
1301,-1.0,-2.0,-4.0,1.0,22.0,7.0,1.0,3.0,1651091791802080.0,2
1302,0.0,2.0,5.0,2.0,-20.0,2.0,1.0,0.0,1651091791809014.0,2
1303,-1.0,1.0,0.0,0.0,7.0,-4.0,1.0,0.0,1651091791809014.0,2
1304,-1.0,-2.0,-1.0,0.0,-15.0,-6.0,-1.0,-1.0,1651091791825003.0,2
1305,2.0,0.0,-1.0,-2.0,-18.0,1.0,-1.0,1.0,1651091791825003.0,2
1306,-2.0,-2.0,-5.0,-1.0,26.0,0.0,0.0,-1.0,1651091791826998.0,2
1307,-3.0,-2.0,-1.0,-2.0,-12.0,-1.0,1.0,0.0,1651091791826998.0,2
1308,1.0,1.0,3.0,4.0,22.0,1.0,0.0,0.0,1651091791847943.0,2
1309,-2.0,-1.0,-2.0,0.0,24.0,2.0,-2.0,-1.0,1651091791847943.0,2
1310,-1.0,-2.0,0.0,-2.0,4.0,-11.0,1.0,-1.0,1651091791848908.0,2
1311,-1.0,-1.0,-1.0,-2.0,-57.0,8.0,0.0,-1.0,1651091791848908.0,2
1312,1.0,3.0,5.0,2.0,39.0,1.0,1.0,-1.0,1651091791862079.0,2
1313,1.0,0.0,-4.0,0.0,17.0,-2.0,-1.0,0.0,1651091791862079.0,2
1314,-1.0,-2.0,-3.0,-3.0,-22.0,4.0,0.0,1.0,1651091791869151.0,2
1315,-2.0,-5.0,-3.0,1.0,37.0,-4.0,1.0,-1.0,1651091791869151.0,2
1316,1.0,2.0,-1.0,-5.0,-14.0,-7.0,-3.0,-1.0,1651091791892212.0,2
1317,1.0,1.0,3.0,2.0,-41.0,13.0,-1.0,-1.0,1651091791892212.0,2
1318,1.0,0.0,0.0,2.0,29.0,-3.0,0.0,1.0,1651091791894212.0,2
1319,-1.0,-2.0,-2.0,-7.0,-25.0,-8.0,0.0,-2.0,1651091791894212.0,2
1320,0.0,1.0,0.0,5.0,60.0,5.0,0.0,0.0,1651091791909167.0,2
1321,0.0,0.0,0.0,-3.0,1.0,-6.0,-1.0,-2.0,1651091791909167.0,2
1322,-3.0,-2.0,-4.0,0.0,-7.0,-1.0,-1.0,-1.0,1651091791910170.0,2
1323,-3.0,-1.0,-7.0,3.0,19.0,1.0,-2.0,-1.0,1651091791910170.0,2
1324,3.0,2.0,11.0,-6.0,-15.0,-2.0,-3.0,-4.0,1651091791922165.0,2
1325,-1.0,0.0,0.0,-1.0,4.0,1.0,0.0,-3.0,1651091791922165.0,2
1326,-1.0,-1.0,-2.0,-2.0,28.0,-1.0,0.0,-1.0,1651091791929112.0,2
1327,1.0,0.0,1.0,2.0,-2.0,-6.0,2.0,1.0,1651091791929112.0,2
1328,-2.0,-5.0,-6.0,-3.0,-28.0,-4.0,-2.0,-1.0,1651091791945071.0,2
1329,1.0,2.0,5.0,3.0,26.0,2.0,0.0,1.0,1651091791945071.0,2
1330,0.0,-5.0,-11.0,5.0,11.0,-1.0,-1.0,-1.0,1651091791947066.0,2
1331,-2.0,6.0,12.0,-3.0,-21.0,-1.0,-1.0,0.0,1651091791947066.0,2
1332,-3.0,-2.0,-4.0,-6.0,-16.0,-1.0,-2.0,-2.0,1651091791968008.0,2
1333,-1.0,-3.0,-3.0,2.0,36.0,0.0,-1.0,0.0,1651091791968008.0,2
1334,-1.0,3.0,1.0,0.0,-23.0,-1.0,-1.0,-1.0,1651091791970003.0,2
1335,1.0,0.0,-2.0,1.0,10.0,-1.0,0.0,0.0,1651091791970003.0,2
1336,1.0,-1.0,0.0,0.0,-13.0,-10.0,-2.0,0.0,1651091791981971.0,2
1337,1.0,-3.0,-1.0,-2.0,-5.0,10.0,1.0,-1.0,1651091791981971.0,2
1338,0.0,1.0,1.0,1.0,38.0,9.0,-1.0,0.0,1651091791988988.0,2
1339,-2.0,-1.0,-2.0,-1.0,-6.0,-2.0,-2.0,1.0,1651091791988988.0,2
1340,0.0,-2.0,-4.0,-1.0,0.0,-1.0,2.0,0.0,1651091792004911.0,2
1341,-1.0,-2.0,-3.0,-1.0,-13.0,-9.0,-3.0,0.0,1651091792004911.0,2
1342,-1.0,1.0,3.0,-5.0,-41.0,-1.0,-2.0,-1.0,1651091792006906.0,2
1343,1.0,2.0,0.0,1.0,4.0,-2.0,2.0,0.0,1651091792006906.0,2
1344,-1.0,-1.0,-5.0,-1.0,-5.0,0.0,-1.0,-2.0,1651091792027850.0,2
1345,1.0,0.0,-2.0,1.0,6.0,-1.0,1.0,-2.0,1651091792027850.0,2
1346,0.0,1.0,4.0,-5.0,-35.0,-2.0,-1.0,0.0,1651091792028847.0,2
1347,0.0,-2.0,-1.0,1.0,37.0,0.0,-2.0,0.0,1651091792028847.0,2
1348,0.0,-1.0,2.0,4.0,-21.0,3.0,-2.0,0.0,1651091792041842.0,2
1349,-1.0,-1.0,-4.0,2.0,18.0,1.0,0.0,1.0,1651091792041842.0,2
1350,-1.0,-2.0,1.0,-2.0,-7.0,-6.0,-3.0,0.0,1651091792048829.0,2
1351,-1.0,1.0,-1.0,-3.0,-15.0,-1.0,-1.0,-2.0,1651091792048829.0,2
1352,0.0,1.0,-4.0,0.0,-10.0,2.0,0.0,1.0,1651091792064782.0,2
1353,-2.0,-3.0,2.0,3.0,10.0,2.0,-1.0,-2.0,1651091792064782.0,2
1354,0.0,-1.0,0.0,2.0,-8.0,-6.0,-1.0,0.0,1651091792066747.0,2
1355,0.0,0.0,0.0,0.0,-6.0,0.0,-3.0,-1.0,1651091792066747.0,2
1356,0.0,-3.0,-4.0,-5.0,-9.0,-4.0,0.0,-1.0,1651091792087722.0,2
1357,0.0,0.0,-1.0,3.0,62.0,0.0,0.0,1.0,1651091792087722.0,2
1358,-1.0,-4.0,-4.0,-1.0,-2.0,2.0,1.0,0.0,1651091792088687.0,2
1359,-1.0,-2.0,2.0,0.0,-23.0,-5.0,-1.0,-2.0,1651091792088687.0,2
1360,0.0,3.0,1.0,2.0,12.0,-5.0,0.0,1.0,1651091792101651.0,2
1361,-1.0,0.0,-2.0,-4.0,-24.0,7.0,0.0,-1.0,1651091792101651.0,2
1362,1.0,-2.0,1.0,-1.0,19.0,10.0,1.0,-2.0,1651091792110627.0,2
1363,-2.0,-1.0,-1.0,0.0,16.0,-2.0,-1.0,0.0,1651091792110627.0,2
1364,-1.0,-6.0,-10.0,-1.0,-6.0,1.0,0.0,-1.0,1651091792124589.0,2
1365,1.0,4.0,13.0,0.0,-15.0,-7.0,0.0,-1.0,1651091792124589.0,2
1366,-1.0,2.0,-3.0,0.0,3.0,0.0,-1.0,-1.0,1651091792126586.0,2
1367,0.0,-1.0,-3.0,-2.0,-9.0,-1.0,-1.0,-1.0,1651091792126586.0,2
1368,-1.0,-2.0,-4.0,2.0,3.0,6.0,1.0,-1.0,1651091792147528.0,2
1369,-1.0,-1.0,-7.0,-4.0,-5.0,-4.0,-3.0,0.0,1651091792147528.0,2
1370,1.0,0.0,0.0,-2.0,-25.0,-7.0,-1.0,0.0,1651091792149523.0,2
1371,0.0,3.0,5.0,-1.0,70.0,7.0,0.0,-2.0,1651091792149523.0,2
1372,0.0,-1.0,1.0,8.0,-9.0,4.0,0.0,-2.0,1651091792161491.0,2
1373,-1.0,-2.0,-4.0,-2.0,12.0,0.0,0.0,1.0,1651091792161491.0,2
1374,-1.0,0.0,3.0,0.0,-15.0,-6.0,-1.0,-1.0,1651091792170467.0,2
1375,0.0,-1.0,-2.0,-3.0,6.0,0.0,0.0,1.0,1651091792170467.0,2
1376,0.0,0.0,1.0,-4.0,-6.0,0.0,0.0,0.0,1651091792185427.0,2
1377,-4.0,-3.0,-3.0,-2.0,-21.0,-1.0,-2.0,0.0,1651091792185427.0,2
1378,0.0,-1.0,-3.0,3.0,26.0,-10.0,-1.0,0.0,1651091792186425.0,2
1379,1.0,-3.0,-2.0,-4.0,-14.0,10.0,-1.0,-1.0,1651091792186425.0,2
1380,-2.0,0.0,2.0,1.0,8.0,1.0,0.0,-1.0,1651091792208416.0,2
1381,0.0,3.0,0.0,-4.0,0.0,1.0,0.0,1.0,1651091792208416.0,2
1382,-3.0,-1.0,0.0,-4.0,-24.0,-9.0,-2.0,-2.0,1651091792213410.0,2
1383,0.0,0.0,-1.0,5.0,33.0,5.0,0.0,0.0,1651091792213410.0,2
1384,-1.0,-2.0,-3.0,-3.0,3.0,-10.0,-2.0,-1.0,1651091792221697.0,2
1385,-1.0,-1.0,-2.0,0.0,-61.0,5.0,-1.0,-1.0,1651091792221697.0,2
1386,0.0,0.0,-2.0,-3.0,47.0,4.0,1.0,-1.0,1651091792230597.0,2
1387,0.0,0.0,5.0,2.0,-19.0,-5.0,2.0,0.0,1651091792230597.0,2
1388,-1.0,-1.0,1.0,3.0,4.0,2.0,1.0,0.0,1651091792245499.0,2
1389,-1.0,-2.0,-3.0,-2.0,-13.0,-5.0,-1.0,-1.0,1651091792245499.0,2
1390,1.0,0.0,-1.0,-3.0,-20.0,-4.0,0.0,-1.0,1651091792247484.0,2
1391,0.0,-3.0,-6.0,-1.0,-19.0,-3.0,0.0,0.0,1651091792247484.0,2
1392,0.0,0.0,-2.0,-2.0,8.0,-3.0,0.0,0.0,1651091792267705.0,2
1393,0.0,-2.0,-2.0,2.0,13.0,0.0,1.0,-1.0,1651091792267705.0,2
1394,0.0,0.0,4.0,1.0,-5.0,3.0,0.0,-1.0,1651091792281719.0,2
1395,0.0,1.0,2.0,-2.0,13.0,0.0,-2.0,0.0,1651091792281719.0,2
1396,-2.0,0.0,-1.0,0.0,-46.0,-4.0,-1.0,-1.0,1651091792282719.0,2
1397,0.0,0.0,1.0,2.0,45.0,5.0,1.0,1.0,1651091792282719.0,2
1398,0.0,-2.0,-5.0,3.0,2.0,6.0,-1.0,-1.0,1651091792290816.0,2
1399,-2.0,-2.0,-6.0,-1.0,-23.0,-4.0,1.0,0.0,1651091792290816.0,2
1400,0.0,4.0,13.0,0.0,1.0,2.0,-1.0,-1.0,1651091792306013.0,2
1401,0.0,-1.0,-5.0,1.0,8.0,-3.0,-1.0,0.0,1651091792306013.0,2
1402,-2.0,-2.0,-2.0,-2.0,-27.0,-3.0,-2.0,-2.0,1651091792306859.0,2
1403,0.0,-2.0,-11.0,-3.0,22.0,-2.0,-2.0,-1.0,1651091792306859.0,2
1404,1.0,3.0,9.0,1.0,-20.0,4.0,0.0,1.0,1651091792328296.0,2
1405,0.0,1.0,0.0,5.0,-4.0,0.0,1.0,-2.0,1651091792328296.0,2
1406,-1.0,1.0,2.0,-3.0,1.0,-2.0,0.0,1.0,1651091792329138.0,2
1407,-1.0,-4.0,-2.0,2.0,-22.0,-4.0,-1.0,1.0,1651091792329138.0,2
1408,1.0,-3.0,-6.0,-4.0,-2.0,-2.0,-1.0,0.0,1651091792342053.0,2
1409,0.0,1.0,3.0,5.0,42.0,9.0,1.0,-1.0,1651091792342053.0,2
1410,-1.0,-1.0,-1.0,-2.0,-5.0,-7.0,-1.0,-1.0,1651091792350768.0,2
1411,-2.0,0.0,-1.0,-3.0,-39.0,7.0,0.0,-3.0,1651091792350768.0,2
1412,0.0,1.0,1.0,-1.0,22.0,1.0,-1.0,0.0,1651091792365252.0,2
1413,0.0,-2.0,1.0,-4.0,-22.0,-7.0,-3.0,-1.0,1651091792365252.0,2
1414,-1.0,-3.0,-8.0,0.0,18.0,1.0,-1.0,0.0,1651091792367084.0,2
1415,1.0,3.0,5.0,-2.0,-12.0,-4.0,-1.0,-1.0,1651091792367084.0,2
1416,-1.0,-1.0,-2.0,0.0,3.0,-4.0,-2.0,-1.0,1651091792388293.0,2
1417,0.0,-2.0,-3.0,-4.0,-1.0,-3.0,-1.0,0.0,1651091792388293.0,2
1418,2.0,1.0,1.0,0.0,-10.0,8.0,0.0,2.0,1651091792389222.0,2
1419,-1.0,0.0,-3.0,-3.0,-17.0,-7.0,1.0,-2.0,1651091792389222.0,2
1420,1.0,-2.0,-5.0,5.0,8.0,10.0,3.0,0.0,1651091792402320.0,2
1421,-2.0,-1.0,0.0,-1.0,0.0,-5.0,-1.0,0.0,1651091792402320.0,2
1422,1.0,-1.0,-1.0,-5.0,-8.0,0.0,0.0,-1.0,1651091792410785.0,2
1423,0.0,-2.0,-1.0,2.0,1.0,-3.0,-1.0,0.0,1651091792410785.0,2
1424,0.0,-1.0,-3.0,2.0,24.0,-1.0,0.0,0.0,1651091792424913.0,2
1425,-1.0,-1.0,-1.0,-3.0,-14.0,-2.0,0.0,-2.0,1651091792424913.0,2
1426,-1.0,0.0,5.0,3.0,-19.0,-2.0,0.0,0.0,1651091792426745.0,2
1427,-1.0,0.0,0.0,-3.0,-5.0,1.0,1.0,-1.0,1651091792426745.0,2
1428,-1.0,-3.0,-2.0,-3.0,12.0,-1.0,-1.0,0.0,1651091792448096.0,2
1429,-2.0,-5.0,-11.0,-2.0,-5.0,0.0,0.0,0.0,1651091792448096.0,2
1430,-2.0,4.0,14.0,-1.0,-14.0,-4.0,-2.0,1.0,1651091792449096.0,2
1431,1.0,3.0,5.0,3.0,29.0,4.0,2.0,1.0,1651091792449096.0,2
1432,0.0,-3.0,-5.0,0.0,-14.0,-6.0,-1.0,-2.0,1651091792462205.0,2
1433,1.0,0.0,1.0,-1.0,4.0,-2.0,1.0,-1.0,1651091792462205.0,2
1434,-1.0,-2.0,-10.0,-2.0,8.0,-1.0,-1.0,-4.0,1651091792470236.0,2
1435,-2.0,-3.0,1.0,-1.0,-19.0,-2.0,1.0,0.0,1651091792470236.0,2
1436,-1.0,0.0,-2.0,-3.0,18.0,2.0,-1.0,-1.0,1651091792485511.0,2
1437,-2.0,2.0,7.0,1.0,-8.0,-2.0,-1.0,0.0,1651091792485511.0,2
1438,-1.0,-2.0,0.0,-1.0,5.0,-1.0,-1.0,-2.0,1651091792486375.0,2
1439,0.0,0.0,3.0,2.0,15.0,1.0,0.0,-1.0,1651091792486375.0,2
1440,-1.0,-1.0,-5.0,-3.0,-5.0,-2.0,-1.0,0.0,1651091792508690.0,2
1441,0.0,-1.0,-3.0,-1.0,-4.0,-8.0,-2.0,0.0,1651091792508690.0,2
1442,0.0,-1.0,1.0,-1.0,-3.0,4.0,1.0,-1.0,1651091792509339.0,2
1443,-1.0,-3.0,-3.0,1.0,10.0,-1.0,0.0,0.0,1651091792509339.0,2
1444,-1.0,-3.0,-1.0,2.0,34.0,8.0,-1.0,1.0,1651091792521445.0,2
1445,-1.0,0.0,0.0,-3.0,-31.0,-2.0,-1.0,0.0,1651091792521445.0,2
1446,-1.0,-1.0,-5.0,1.0,-4.0,-4.0,-1.0,-1.0,1651091792530367.0,2
1447,0.0,0.0,3.0,-2.0,-3.0,0.0,-2.0,-2.0,1651091792530367.0,2
1448,-1.0,2.0,0.0,-2.0,3.0,-5.0,0.0,-2.0,1651091792545380.0,2
1449,0.0,0.0,2.0,-2.0,-29.0,1.0,0.0,-1.0,1651091792545380.0,2
1450,0.0,-4.0,-3.0,0.0,39.0,-3.0,-2.0,-1.0,1651091792552339.0,2
1451,-1.0,-3.0,-4.0,-3.0,29.0,2.0,-1.0,0.0,1651091792552339.0,2
1452,0.0,3.0,1.0,1.0,-12.0,1.0,-1.0,0.0,1651091792567712.0,2
1453,-1.0,-3.0,-2.0,-1.0,-1.0,-1.0,-2.0,0.0,1651091792567712.0,2
1454,-1.0,0.0,-3.0,1.0,-12.0,3.0,0.0,1.0,1651091792569709.0,2
1455,-2.0,-1.0,0.0,-1.0,-26.0,-3.0,0.0,0.0,1651091792569709.0,2
1456,0.0,-2.0,-1.0,-2.0,3.0,-1.0,0.0,2.0,1651091792590691.0,2
1457,-1.0,-1.0,-4.0,-2.0,23.0,2.0,0.0,0.0,1651091792590691.0,2
1458,1.0,0.0,0.0,3.0,-32.0,3.0,0.0,-1.0,1651091792591691.0,2
1459,0.0,0.0,1.0,-2.0,23.0,0.0,-2.0,0.0,1651091792591691.0,2
1460,0.0,-3.0,-1.0,-2.0,-12.0,-1.0,-1.0,0.0,1651091792605995.0,2
1461,-1.0,-1.0,3.0,-2.0,-3.0,0.0,-3.0,-1.0,1651091792605995.0,2
1462,0.0,1.0,2.0,2.0,22.0,0.0,1.0,1.0,1651091792606858.0,2
1463,0.0,0.0,-3.0,2.0,18.0,3.0,0.0,0.0,1651091792606858.0,2
1464,-1.0,0.0,2.0,0.0,-16.0,-2.0,0.0,-1.0,1651091792629048.0,2
1465,-1.0,-1.0,-3.0,0.0,-4.0,-1.0,-2.0,0.0,1651091792629048.0,2
1466,-2.0,-2.0,0.0,-3.0,10.0,-2.0,-1.0,-2.0,1651091792630079.0,2
1467,0.0,0.0,-2.0,0.0,-8.0,2.0,-2.0,-1.0,1651091792630079.0,2
1468,1.0,-1.0,1.0,-2.0,-25.0,1.0,0.0,-1.0,1651091792650571.0,2
1469,0.0,0.0,1.0,0.0,22.0,0.0,0.0,-2.0,1651091792650571.0,2
1470,1.0,1.0,0.0,5.0,-2.0,6.0,1.0,2.0,1651091792651570.0,2
1471,-1.0,-3.0,-2.0,-2.0,-10.0,-5.0,-2.0,-1.0,1651091792651570.0,2
1472,-3.0,0.0,0.0,0.0,0.0,0.0,-1.0,1.0,1651091792664892.0,2
1473,1.0,1.0,0.0,0.0,-10.0,0.0,-1.0,-1.0,1651091792664892.0,2
1474,0.0,-1.0,-4.0,-5.0,6.0,-4.0,-1.0,-1.0,1651091792666758.0,2
1475,-1.0,-4.0,-4.0,0.0,-9.0,-1.0,-1.0,-1.0,1651091792666758.0,2
1476,-1.0,2.0,0.0,-1.0,-10.0,-1.0,0.0,-1.0,1651091792688213.0,2
1477,1.0,-3.0,-3.0,-2.0,-28.0,-4.0,-1.0,-1.0,1651091792688213.0,2
1478,0.0,3.0,7.0,4.0,83.0,-1.0,0.0,0.0,1651091792689032.0,2
1479,-1.0,-1.0,-1.0,-2.0,-26.0,3.0,0.0,-1.0,1651091792689032.0,2
1480,-1.0,1.0,-2.0,-1.0,-5.0,-2.0,0.0,0.0,1651091792710031.0,2
1481,-1.0,0.0,1.0,-2.0,-9.0,-1.0,0.0,0.0,1651091792710031.0,2
1482,-1.0,-2.0,-5.0,-5.0,-8.0,-2.0,0.0,0.0,1651091792712060.0,2
1483,0.0,1.0,1.0,0.0,-10.0,-6.0,-2.0,0.0,1651091792712060.0,2
1484,2.0,-2.0,1.0,-1.0,-1.0,-3.0,-1.0,-2.0,1651091792725346.0,2
1485,1.0,0.0,-5.0,7.0,13.0,6.0,2.0,1.0,1651091792725346.0,2
1486,-1.0,0.0,11.0,0.0,-16.0,2.0,0.0,-2.0,1651091792727204.0,2
1487,-1.0,0.0,-1.0,-4.0,3.0,0.0,1.0,0.0,1651091792727204.0,2
1488,-1.0,0.0,-3.0,-3.0,4.0,1.0,-1.0,-1.0,1651091792747339.0,2
1489,-1.0,-5.0,-6.0,2.0,7.0,-2.0,0.0,0.0,1651091792747339.0,2
1490,1.0,4.0,1.0,-1.0,-6.0,2.0,0.0,0.0,1651091792749493.0,2
1491,0.0,2.0,4.0,6.0,51.0,5.0,2.0,1.0,1651091792749493.0,2
1492,-2.0,-4.0,-6.0,-6.0,-6.0,-5.0,-1.0,-2.0,1651091792770801.0,2
1493,-2.0,-2.0,2.0,-8.0,0.0,0.0,-1.0,-1.0,1651091792770801.0,2
1494,1.0,-2.0,-6.0,2.0,-17.0,-1.0,0.0,0.0,1651091792771643.0,2
1495,0.0,0.0,2.0,1.0,-33.0,-6.0,-1.0,-1.0,1651091792771643.0,2
1496,1.0,2.0,1.0,3.0,39.0,2.0,0.0,1.0,1651091792784761.0,2
1497,-3.0,0.0,0.0,0.0,1.0,1.0,-2.0,-1.0,1651091792784761.0,2
1498,1.0,0.0,0.0,3.0,9.0,6.0,1.0,1.0,1651091792791734.0,2
1499,0.0,-2.0,-4.0,-4.0,-8.0,-6.0,-2.0,-2.0,1651091792791734.0,2
1500,1.0,-2.0,-2.0,-3.0,-4.0,9.0,1.0,-1.0,1651091792807874.0,2
1501,0.0,1.0,1.0,2.0,-4.0,-2.0,-3.0,-1.0,1651091792807874.0,2
1502,0.0,-3.0,-5.0,-4.0,-16.0,-5.0,-2.0,-2.0,1651091792809725.0,2
1503,0.0,-2.0,-10.0,-2.0,5.0,1.0,-1.0,-2.0,1651091792809725.0,2
1504,-1.0,1.0,16.0,3.0,-3.0,0.0,-1.0,0.0,1651091792830290.0,2
1505,-1.0,2.0,1.0,-2.0,-3.0,-3.0,-1.0,-1.0,1651091792830290.0,2
1506,-1.0,0.0,-1.0,-3.0,3.0,-3.0,0.0,-2.0,1651091792832127.0,2
1507,1.0,-3.0,-9.0,-1.0,-28.0,-1.0,1.0,0.0,1651091792832127.0,2
1508,-1.0,1.0,1.0,1.0,-18.0,-8.0,-1.0,0.0,1651091792845010.0,2
1509,2.0,2.0,1.0,0.0,20.0,2.0,2.0,2.0,1651091792845010.0,2
1510,-1.0,-3.0,-6.0,0.0,-26.0,1.0,0.0,-2.0,1651091792858592.0,2
1511,-2.0,-1.0,1.0,-3.0,-18.0,-1.0,0.0,0.0,1651091792858592.0,2
1512,0.0,1.0,-3.0,1.0,9.0,-3.0,-1.0,1.0,1651091792868595.0,2
1513,0.0,-1.0,1.0,0.0,2.0,2.0,1.0,0.0,1651091792868595.0,2
1514,-2.0,-1.0,-3.0,-4.0,1.0,-3.0,-1.0,0.0,1651091792869628.0,2
1515,1.0,2.0,3.0,4.0,17.0,1.0,2.0,1.0,1651091792869628.0,2
1516,0.0,-2.0,-3.0,-3.0,-27.0,-1.0,0.0,-2.0,1651091792890684.0,2
1517,0.0,-2.0,-2.0,0.0,21.0,-1.0,0.0,-1.0,1651091792890684.0,2
1518,-2.0,-1.0,1.0,-1.0,12.0,1.0,-1.0,0.0,1651091792891684.0,2
1519,-1.0,1.0,3.0,0.0,6.0,1.0,-2.0,0.0,1651091792891684.0,0
1520,0.0,-2.0,-4.0,0.0,-3.0,-1.0,-1.0,0.0,1651091792904801.0,3
1521,1.0,0.0,2.0,0.0,8.0,3.0,1.0,1.0,1651091792904801.0,3
1522,-1.0,-5.0,-4.0,-1.0,-18.0,-1.0,2.0,-1.0,1651091792911631.0,3
1523,1.0,3.0,4.0,-1.0,-4.0,2.0,0.0,1.0,1651091792911631.0,3
1524,-1.0,2.0,2.0,-2.0,4.0,-2.0,-1.0,0.0,1651091792927953.0,3
1525,0.0,-2.0,-2.0,-1.0,-7.0,-1.0,-1.0,0.0,1651091792927953.0,3
1526,0.0,1.0,2.0,2.0,46.0,-7.0,-1.0,1.0,1651091792928818.0,3
1527,-2.0,-2.0,-4.0,-1.0,-14.0,3.0,-2.0,1.0,1651091792928818.0,3
1528,1.0,-3.0,-3.0,0.0,-8.0,-4.0,1.0,0.0,1651091792950950.0,3
1529,-2.0,2.0,5.0,0.0,2.0,4.0,0.0,0.0,1651091792950950.0,3
1530,-1.0,0.0,-3.0,-2.0,-6.0,-4.0,-1.0,-1.0,1651091792951796.0,3
1531,-1.0,-3.0,-2.0,-2.0,-2.0,-2.0,0.0,-2.0,1651091792951796.0,3
1532,-1.0,-4.0,-5.0,-2.0,7.0,-5.0,-3.0,-1.0,1651091792964964.0,3
1533,0.0,-1.0,0.0,4.0,-13.0,0.0,0.0,-1.0,1651091792964964.0,3
1534,1.0,0.0,4.0,0.0,-17.0,0.0,0.0,-1.0,1651091792972074.0,3
1535,0.0,-1.0,-3.0,-2.0,-3.0,-5.0,0.0,0.0,1651091792972074.0,3
1536,-2.0,0.0,0.0,1.0,34.0,4.0,-1.0,-1.0,1651091792988323.0,3
1537,-1.0,-4.0,-3.0,-2.0,0.0,-3.0,0.0,0.0,1651091792988323.0,3
1538,0.0,0.0,-2.0,-4.0,-37.0,4.0,-1.0,0.0,1651091792989092.0,3
1539,-3.0,-1.0,1.0,-1.0,-3.0,-1.0,-1.0,1.0,1651091792989092.0,3
1540,-2.0,-1.0,-1.0,0.0,40.0,0.0,0.0,1.0,1651091793010094.0,3
1541,-1.0,0.0,1.0,2.0,-31.0,0.0,1.0,0.0,1651091793010094.0,3
1542,0.0,0.0,1.0,2.0,11.0,-2.0,0.0,-1.0,1651091793012119.0,3
1543,-1.0,-1.0,-1.0,-6.0,-23.0,-3.0,-2.0,0.0,1651091793012119.0,3
1544,2.0,0.0,2.0,4.0,44.0,5.0,1.0,0.0,1651091793025329.0,3
1545,-1.0,-2.0,-7.0,-1.0,-3.0,-1.0,-2.0,-1.0,1651091793025329.0,3
1546,-2.0,1.0,4.0,0.0,3.0,1.0,-1.0,-1.0,1651091793031255.0,3
1547,-1.0,-1.0,1.0,-2.0,-20.0,-5.0,-2.0,-1.0,1651091793031255.0,3
1548,-2.0,-1.0,-3.0,-3.0,-33.0,-2.0,1.0,-1.0,1651091793048408.0,3
1549,0.0,0.0,-1.0,-2.0,8.0,5.0,1.0,-1.0,1651091793048408.0,3
1550,1.0,-3.0,-6.0,-2.0,-18.0,-13.0,-1.0,0.0,1651091793049408.0,3
1551,1.0,1.0,2.0,5.0,56.0,11.0,1.0,0.0,1651091793049408.0,3
1552,0.0,1.0,0.0,1.0,-24.0,-11.0,0.0,1.0,1651091793070721.0,3
1553,-2.0,0.0,2.0,-2.0,8.0,8.0,-1.0,0.0,1651091793070721.0,3
1554,-1.0,-5.0,-7.0,-4.0,-22.0,0.0,-2.0,0.0,1651091793071560.0,3
1555,0.0,2.0,7.0,0.0,37.0,-1.0,0.0,-2.0,1651091793071560.0,3
1556,0.0,1.0,1.0,-3.0,-16.0,-5.0,-1.0,-1.0,1651091793084865.0,3
1557,0.0,-1.0,-2.0,0.0,-32.0,-3.0,1.0,0.0,1651091793084865.0,3
1558,0.0,1.0,2.0,3.0,17.0,4.0,0.0,1.0,1651091793092738.0,3
1559,1.0,-4.0,-9.0,3.0,1.0,-1.0,0.0,-2.0,1651091793092738.0,3
1560,0.0,1.0,1.0,-1.0,-14.0,3.0,1.0,-1.0,1651091793108091.0,3
1561,0.0,2.0,4.0,-6.0,4.0,-6.0,-2.0,-1.0,1651091793108091.0,3
1562,-1.0,-1.0,-3.0,-6.0,-21.0,-2.0,-2.0,-1.0,1651091793108930.0,3
1563,0.0,-3.0,-2.0,2.0,60.0,5.0,0.0,1.0,1651091793108930.0,3
1564,-1.0,-2.0,-4.0,-3.0,-20.0,0.0,-3.0,-1.0,1651091793137539.0,3
1565,0.0,0.0,5.0,7.0,50.0,4.0,0.0,0.0,1651091793137539.0,3
1566,-1.0,1.0,0.0,-2.0,14.0,-2.0,-1.0,1.0,1651091793146242.0,3
1567,-2.0,2.0,-4.0,-3.0,-33.0,-5.0,-2.0,0.0,1651091793146242.0,3
1568,-1.0,-4.0,-2.0,-5.0,-20.0,2.0,-1.0,-1.0,1651091793146242.0,3
1569,0.0,0.0,-4.0,-17.0,17.0,-7.0,1.0,-1.0,1651091793146242.0,3
1570,0.0,-2.0,0.0,12.0,-27.0,6.0,1.0,1.0,1651091793153378.0,3
1571,-1.0,1.0,4.0,18.0,4.0,1.0,-1.0,0.0,1651091793153378.0,3
1572,1.0,0.0,1.0,2.0,-11.0,1.0,0.0,0.0,1651091793168618.0,3
1573,-1.0,-1.0,0.0,-2.0,-23.0,-11.0,-2.0,-1.0,1651091793168618.0,3
1574,-1.0,-1.0,1.0,-12.0,38.0,0.0,0.0,-1.0,1651091793169006.0,3
1575,-2.0,-1.0,-4.0,-17.0,-28.0,0.0,-3.0,-2.0,1651091793169006.0,3
1576,0.0,0.0,-2.0,7.0,33.0,5.0,0.0,0.0,1651091793190577.0,3
1577,0.0,-1.0,-7.0,-16.0,7.0,-13.0,-1.0,0.0,1651091793190577.0,3
1578,0.0,1.0,10.0,21.0,0.0,8.0,-3.0,-3.0,1651091793191578.0,3
1579,1.0,1.0,2.0,18.0,76.0,13.0,4.0,2.0,1651091793191578.0,3
1580,-1.0,-2.0,0.0,4.0,-25.0,-2.0,0.0,-1.0,1651091793204699.0,3
1581,0.0,-2.0,-4.0,-5.0,-34.0,-3.0,-1.0,0.0,1651091793204699.0,3
1582,-2.0,0.0,-5.0,-43.0,-11.0,-8.0,-2.0,-2.0,1651091793212637.0,3
1583,-3.0,-2.0,-5.0,2.0,-37.0,-3.0,-1.0,-2.0,1651091793212637.0,3
1584,0.0,2.0,2.0,11.0,21.0,-1.0,1.0,1.0,1651091793227965.0,3
1585,-1.0,-1.0,-3.0,5.0,-19.0,4.0,-2.0,-4.0,1651091793227965.0,3
1586,3.0,3.0,6.0,20.0,22.0,14.0,3.0,3.0,1651091793228830.0,3
1587,0.0,0.0,2.0,-12.0,-8.0,-2.0,0.0,1.0,1651091793228830.0,3
1588,-1.0,-1.0,1.0,-28.0,64.0,-8.0,1.0,0.0,1651091793250924.0,3
1589,1.0,-2.0,-3.0,30.0,11.0,21.0,2.0,4.0,1651091793250924.0,3
1590,-5.0,-1.0,2.0,53.0,2.0,-4.0,-3.0,-7.0,1651091793251763.0,3
1591,-1.0,-1.0,-3.0,-12.0,-29.0,-2.0,-1.0,1.0,1651091793251763.0,3
1592,1.0,-2.0,-4.0,-24.0,-56.0,-5.0,-2.0,-2.0,1651091793263909.0,3
1593,-2.0,-1.0,5.0,7.0,78.0,-12.0,-2.0,0.0,1651091793263909.0,3
1594,2.0,-1.0,-4.0,-49.0,-13.0,-2.0,-1.0,0.0,1651091793272464.0,3
1595,1.0,0.0,-4.0,-12.0,3.0,2.0,1.0,3.0,1651091793272464.0,3
1596,-2.0,0.0,0.0,49.0,12.0,-1.0,0.0,-2.0,1651091793288521.0,3
1597,-2.0,-1.0,0.0,1.0,-7.0,21.0,-3.0,-1.0,1651091793288521.0,3
1598,-1.0,1.0,2.0,21.0,-10.0,-14.0,2.0,1.0,1651091793289305.0,3
1599,1.0,2.0,6.0,24.0,8.0,-1.0,0.0,2.0,1651091793289305.0,3
1600,-6.0,-6.0,-5.0,-33.0,-32.0,-19.0,-9.0,-7.0,1651091793310629.0,3
1601,2.0,-1.0,1.0,-15.0,-50.0,0.0,0.0,2.0,1651091793310629.0,3
1602,1.0,-1.0,-9.0,-72.0,-34.0,16.0,0.0,0.0,1651091793311630.0,3
1603,3.0,-1.0,-3.0,30.0,-13.0,-32.0,-1.0,3.0,1651091793311630.0,3
1604,-9.0,-4.0,-2.0,59.0,-74.0,70.0,0.0,-7.0,1651091793323792.0,3
1605,-3.0,-1.0,2.0,1.0,35.0,-6.0,-4.0,-4.0,1651091793323792.0,3
1606,-1.0,-2.0,-2.0,0.0,5.0,-8.0,6.0,2.0,1651091793333127.0,3
1607,5.0,0.0,-4.0,-84.0,-75.0,27.0,-2.0,3.0,1651091793333127.0,3
1608,1.0,0.0,-3.0,32.0,73.0,-10.0,4.0,2.0,1651091793347955.0,3
1609,-8.0,-2.0,9.0,29.0,-26.0,-25.0,-3.0,-6.0,1651091793347955.0,3
1610,7.0,5.0,0.0,-7.0,-15.0,0.0,4.0,6.0,1651091793348819.0,3
1611,-1.0,-1.0,-2.0,-18.0,62.0,-11.0,0.0,0.0,1651091793348819.0,3
1612,7.0,-1.0,-3.0,-17.0,-71.0,-12.0,3.0,9.0,1651091793370060.0,3
1613,-2.0,3.0,2.0,-7.0,74.0,33.0,3.0,-11.0,1651091793370060.0,3
1614,-2.0,-2.0,-4.0,21.0,60.0,-17.0,-3.0,1.0,1651091793371953.0,3
1615,-1.0,1.0,2.0,12.0,-37.0,16.0,-2.0,-4.0,1651091793371953.0,3
1616,10.0,4.0,4.0,-23.0,-10.0,2.0,5.0,13.0,1651091793384124.0,3
1617,-12.0,-7.0,-11.0,-31.0,-92.0,-33.0,-12.0,-12.0,1651091793384124.0,3
1618,5.0,3.0,0.0,-10.0,70.0,19.0,3.0,2.0,1651091793392970.0,3
1619,-1.0,1.0,4.0,64.0,16.0,-1.0,3.0,1.0,1651091793392970.0,3
1620,1.0,0.0,-3.0,-27.0,45.0,-2.0,-2.0,3.0,1651091793415453.0,3
1621,4.0,2.0,2.0,-2.0,-38.0,-9.0,3.0,5.0,1651091793415453.0,3
1622,-4.0,-7.0,-9.0,8.0,-43.0,-18.0,-2.0,-5.0,1651091793416325.0,3
1623,-5.0,-2.0,-3.0,-65.0,-128.0,-22.0,-7.0,-6.0,1651091793416325.0,3
1624,-3.0,3.0,3.0,36.0,60.0,31.0,4.0,-6.0,1651091793430287.0,3
1625,1.0,2.0,-4.0,5.0,-92.0,-16.0,0.0,1.0,1651091793430287.0,3
1626,-2.0,3.0,4.0,-20.0,1.0,6.0,-3.0,1.0,1651091793431286.0,3
1627,-2.0,-4.0,-1.0,8.0,-45.0,5.0,1.0,-2.0,1651091793431286.0,3
1628,2.0,1.0,-5.0,-33.0,-45.0,-24.0,-6.0,1.0,1651091793444325.0,3
1629,3.0,0.0,5.0,57.0,122.0,31.0,11.0,2.0,1651091793444325.0,3
1630,1.0,-1.0,-3.0,-7.0,-62.0,4.0,-2.0,2.0,1651091793453598.0,3
1631,-6.0,-6.0,-1.0,14.0,-21.0,-13.0,-6.0,-7.0,1651091793453598.0,3
1632,-3.0,1.0,3.0,-46.0,-20.0,-7.0,-1.0,-4.0,1651091793468811.0,3
1633,4.0,2.0,-6.0,-13.0,-18.0,-2.0,1.0,5.0,1651091793468811.0,3
1634,0.0,-2.0,3.0,47.0,3.0,-5.0,0.0,-1.0,1651091793470843.0,3
1635,-2.0,-2.0,-1.0,-5.0,16.0,3.0,-1.0,-1.0,1651091793470843.0,3
1636,-2.0,0.0,-1.0,-8.0,-17.0,-31.0,-3.0,-4.0,1651091793491284.0,3
1637,3.0,-2.0,-5.0,-38.0,-31.0,-13.0,-4.0,3.0,1651091793491284.0,3
1638,-2.0,2.0,7.0,23.0,62.0,16.0,4.0,2.0,1651091793491284.0,3
1639,1.0,0.0,-3.0,8.0,-24.0,-17.0,-1.0,2.0,1651091793491284.0,3
1640,-9.0,-4.0,6.0,24.0,-79.0,15.0,-4.0,-10.0,1651091793504598.0,3
1641,2.0,1.0,1.0,25.0,116.0,9.0,3.0,6.0,1651091793504598.0,3
1642,-2.0,0.0,1.0,-16.0,28.0,-1.0,-2.0,-3.0,1651091793512577.0,3
1643,-1.0,-2.0,-2.0,-5.0,5.0,3.0,1.0,1.0,1651091793512577.0,3
1644,-2.0,-2.0,-5.0,11.0,19.0,4.0,1.0,-2.0,1651091793527576.0,3
1645,5.0,-1.0,-3.0,-37.0,-27.0,6.0,1.0,5.0,1651091793527576.0,3
1646,-8.0,-6.0,-5.0,20.0,-22.0,-1.0,-4.0,-8.0,1651091793529602.0,3
1647,3.0,3.0,7.0,12.0,53.0,8.0,1.0,0.0,1651091793529602.0,3
1648,5.0,4.0,1.0,11.0,-34.0,-18.0,4.0,7.0,1651091793550878.0,3
1649,-6.0,-4.0,-1.0,-18.0,-27.0,-16.0,-8.0,-7.0,1651091793550878.0,3
1650,-4.0,-4.0,-5.0,-41.0,-49.0,-15.0,-9.0,-2.0,1651091793551715.0,3
1651,2.0,5.0,6.0,54.0,84.0,22.0,7.0,3.0,1651091793551715.0,3
1652,2.0,-1.0,0.0,-1.0,-22.0,9.0,2.0,9.0,1651091793573501.0,3
1653,-7.0,-5.0,-8.0,-24.0,-54.0,-22.0,-8.0,-16.0,1651091793573501.0,3
1654,0.0,1.0,9.0,38.0,-9.0,-1.0,0.0,0.0,1651091793573878.0,3
1655,3.0,0.0,-1.0,-31.0,19.0,-16.0,3.0,4.0,1651091793573878.0,3
1656,-4.0,-3.0,-2.0,-27.0,-39.0,-24.0,-8.0,-8.0,1651091793588212.0,3
1657,4.0,3.0,4.0,37.0,99.0,35.0,8.0,8.0,1651091793588212.0,3
1658,-3.0,-4.0,-8.0,-22.0,-83.0,-21.0,-11.0,-5.0,1651091793589041.0,3
1659,-4.0,-6.0,-11.0,-26.0,14.0,4.0,-3.0,-5.0,1651091793589041.0,3
1660,5.0,5.0,7.0,46.0,59.0,22.0,7.0,6.0,1651091793610039.0,3
1661,-3.0,0.0,0.0,-3.0,-64.0,-2.0,-3.0,-3.0,1651091793610039.0,3
1662,-2.0,-2.0,-2.0,-23.0,-31.0,6.0,3.0,-2.0,1651091793612065.0,3
1663,0.0,0.0,3.0,8.0,-44.0,-15.0,-3.0,-3.0,1651091793612065.0,3
1664,-1.0,-2.0,-3.0,-76.0,-32.0,13.0,-1.0,0.0,1651091793632347.0,3
1665,2.0,-1.0,-7.0,7.0,-29.0,-11.0,1.0,0.0,1651091793632347.0,3
1666,1.0,3.0,4.0,51.0,102.0,17.0,6.0,4.0,1651091793634378.0,3
1667,-2.0,-3.0,-3.0,-10.0,-84.0,-16.0,-4.0,-5.0,1651091793634378.0,3
1668,2.0,4.0,-4.0,-24.0,24.0,7.0,1.0,0.0,1651091793647489.0,3
1669,2.0,0.0,1.0,42.0,6.0,-26.0,-2.0,7.0,1651091793647489.0,3
1670,-1.0,1.0,2.0,-22.0,-44.0,50.0,-1.0,-1.0,1651091793649487.0,3
1671,1.0,1.0,1.0,-20.0,12.0,-14.0,0.0,0.0,1651091793649487.0,3
1672,-5.0,-3.0,-2.0,13.0,-21.0,7.0,-5.0,-10.0,1651091793670926.0,3
1673,4.0,-1.0,-1.0,-23.0,-55.0,0.0,0.0,3.0,1651091793670926.0,3
1674,2.0,1.0,1.0,11.0,29.0,-15.0,1.0,1.0,1651091793671775.0,3
1675,-1.0,-1.0,-3.0,21.0,-17.0,1.0,-1.0,1.0,1651091793671775.0,3
1676,2.0,-1.0,-3.0,-16.0,-28.0,13.0,-1.0,1.0,1651091793692980.0,3
1677,0.0,1.0,2.0,1.0,-1.0,12.0,0.0,-2.0,1651091793692980.0,3
1678,2.0,-2.0,1.0,-1.0,41.0,-18.0,1.0,2.0,1651091793694975.0,3
1679,-5.0,4.0,4.0,21.0,6.0,23.0,-2.0,-9.0,1651091793694975.0,3
1680,1.0,-9.0,-7.0,5.0,0.0,-21.0,0.0,3.0,1651091793707617.0,3
1681,-9.0,-8.0,-8.0,-39.0,-28.0,12.0,-5.0,-11.0,1651091793707617.0,3
1682,3.0,4.0,2.0,11.0,-6.0,-7.0,3.0,3.0,1651091793714735.0,3
1683,2.0,3.0,3.0,-20.0,-14.0,5.0,4.0,1.0,1651091793714735.0,3
1684,-1.0,-1.0,1.0,55.0,28.0,-9.0,-1.0,-2.0,1651091793730277.0,3
1685,-3.0,0.0,1.0,-7.0,-54.0,-3.0,-1.0,-3.0,1651091793730277.0,3
1686,3.0,2.0,2.0,-10.0,31.0,-9.0,3.0,4.0,1651091793732143.0,3
1687,-5.0,-5.0,-5.0,-6.0,-56.0,28.0,-3.0,0.0,1651091793732143.0,3
1688,3.0,3.0,8.0,26.0,43.0,26.0,8.0,1.0,1651091793753217.0,3
1689,-1.0,-1.0,-1.0,-3.0,-40.0,-4.0,2.0,3.0,1651091793753217.0,3
1690,-2.0,-4.0,-7.0,-18.0,24.0,2.0,-4.0,-5.0,1651091793754064.0,3
1691,2.0,0.0,-4.0,-31.0,-14.0,-18.0,-1.0,6.0,1651091793754064.0,3
1692,-13.0,-5.0,-3.0,24.0,2.0,-20.0,-13.0,-19.0,1651091793767180.0,3
1693,2.0,2.0,4.0,11.0,34.0,13.0,5.0,2.0,1651091793767180.0,3
1694,-2.0,-3.0,-2.0,10.0,-60.0,-26.0,-3.0,-2.0,1651091793774152.0,3
1695,-1.0,-7.0,-8.0,-11.0,-46.0,1.0,-4.0,-4.0,1651091793774152.0,3
1696,1.0,3.0,8.0,6.0,101.0,29.0,6.0,6.0,1651091793790453.0,3
1697,2.0,2.0,4.0,-4.0,-63.0,-6.0,-3.0,0.0,1651091793790453.0,3
1698,-4.0,0.0,-3.0,-6.0,-97.0,-18.0,-5.0,-2.0,1651091793791330.0,3
1699,0.0,-3.0,-2.0,4.0,29.0,20.0,3.0,2.0,1651091793791330.0,3
1700,3.0,0.0,-5.0,1.0,-72.0,-20.0,2.0,5.0,1651091793812658.0,3
1701,-4.0,-1.0,0.0,6.0,87.0,13.0,-3.0,-5.0,1651091793812658.0,3
1702,-2.0,2.0,1.0,-48.0,-2.0,-1.0,3.0,0.0,1651091793814667.0,3
1703,0.0,0.0,-4.0,37.0,39.0,-1.0,-2.0,0.0,1651091793814667.0,3
1704,1.0,4.0,8.0,-7.0,-1.0,1.0,4.0,2.0,1651091793826949.0,3
1705,-1.0,1.0,2.0,-5.0,42.0,-10.0,-2.0,0.0,1651091793826949.0,3
1706,0.0,-2.0,-8.0,-48.0,-30.0,-27.0,0.0,1.0,1651091793833953.0,3
1707,3.0,0.0,2.0,50.0,29.0,-13.0,1.0,0.0,1651091793833953.0,3
1708,1.0,2.0,-3.0,-20.0,-7.0,-16.0,-1.0,1.0,1651091793851111.0,3
1709,3.0,0.0,2.0,-10.0,60.0,6.0,9.0,5.0,1651091793851111.0,3
1710,-8.0,-7.0,-8.0,28.0,-37.0,21.0,-7.0,-8.0,1651091793851988.0,3
1711,-1.0,3.0,3.0,-13.0,-15.0,-11.0,-1.0,-1.0,1651091793851988.0,3
1712,-7.0,-4.0,-5.0,-12.0,-20.0,-3.0,-7.0,-9.0,1651091793873535.0,3
1713,3.0,-2.0,-2.0,14.0,-32.0,-7.0,0.0,7.0,1651091793873535.0,3
1714,-4.0,-3.0,-1.0,5.0,-7.0,-2.0,-2.0,-3.0,1651091793874112.0,3
1715,-2.0,0.0,-1.0,-23.0,16.0,-17.0,-3.0,0.0,1651091793874112.0,3
1716,0.0,1.0,1.0,12.0,-26.0,29.0,1.0,-6.0,1651091793887464.0,3
1717,-5.0,-5.0,-8.0,-71.0,-53.0,-22.0,-3.0,-6.0,1651091793887464.0,3
1718,4.0,5.0,4.0,80.0,37.0,25.0,8.0,4.0,1651091793894123.0,3
1719,-2.0,-1.0,2.0,-22.0,-52.0,-10.0,0.0,-1.0,1651091793894123.0,3
1720,-3.0,-3.0,-3.0,-34.0,-64.0,-28.0,-6.0,-4.0,1651091793910711.0,3
1721,4.0,5.0,5.0,41.0,109.0,30.0,11.0,10.0,1651091793910711.0,3
1722,-2.0,-1.0,-1.0,6.0,-6.0,-8.0,-6.0,-7.0,1651091793911711.0,3
1723,2.0,1.0,-1.0,-45.0,-25.0,0.0,3.0,0.0,1651091793911711.0,3
1724,3.0,-2.0,-2.0,14.0,19.0,-6.0,-1.0,7.0,1651091793931992.0,3
1725,-5.0,-5.0,-4.0,20.0,-48.0,-16.0,-9.0,-4.0,1651091793931992.0,3
1726,3.0,4.0,7.0,4.0,39.0,11.0,4.0,7.0,1651091793941542.0,3
1727,2.0,3.0,1.0,-19.0,30.0,-1.0,0.0,2.0,1651091793941542.0,3
1728,-2.0,-5.0,-7.0,-24.0,10.0,-21.0,-2.0,-2.0,1651091793948026.0,3
1729,-5.0,-5.0,-4.0,18.0,-91.0,-13.0,-10.0,-7.0,1651091793948026.0,3
1730,1.0,1.0,2.0,-12.0,25.0,2.0,0.0,-1.0,1651091793954023.0,3
1731,7.0,6.0,4.0,78.0,83.0,18.0,5.0,3.0,1651091793954023.0,3
1732,0.0,2.0,1.0,-41.0,-25.0,24.0,0.0,2.0,1651091793971189.0,3
1733,0.0,3.0,3.0,36.0,-9.0,21.0,-3.0,2.0,1651091793971189.0,3
1734,-4.0,-7.0,-9.0,-41.0,-6.0,-14.0,-2.0,-4.0,1651091793972220.0,3
1735,-8.0,-1.0,4.0,1.0,-20.0,-1.0,-6.0,-9.0,1651091793972220.0,3
1736,4.0,3.0,0.0,11.0,25.0,-11.0,0.0,2.0,1651091793992499.0,3
1737,3.0,0.0,0.0,-10.0,-60.0,29.0,2.0,2.0,1651091793992499.0,3
1738,4.0,1.0,2.0,-10.0,24.0,20.0,0.0,4.0,1651091793994528.0,3
1739,-2.0,-3.0,1.0,4.0,-53.0,-5.0,-1.0,-6.0,1651091793994528.0,3
1740,-2.0,-3.0,0.0,22.0,-14.0,-10.0,-3.0,-1.0,1651091794007632.0,3
1741,0.0,2.0,0.0,-4.0,-49.0,-20.0,-2.0,-1.0,1651091794007632.0,3
1742,-3.0,-3.0,-1.0,-37.0,-5.0,8.0,-3.0,-6.0,1651091794014969.0,3
1743,-2.0,-2.0,1.0,33.0,4.0,4.0,1.0,2.0,1651091794014969.0,3
1744,0.0,-2.0,-1.0,45.0,15.0,-9.0,-1.0,1.0,1651091794030293.0,3
1745,0.0,0.0,0.0,-48.0,-62.0,15.0,2.0,1.0,1651091794030293.0,3
1746,-2.0,0.0,1.0,32.0,76.0,-8.0,4.0,-2.0,1651091794031292.0,3
1747,1.0,-2.0,0.0,-7.0,-3.0,28.0,2.0,6.0,1651091794031292.0,3
1748,2.0,-2.0,-3.0,-19.0,10.0,11.0,-1.0,2.0,1651091794053407.0,3
1749,-14.0,-7.0,-3.0,37.0,0.0,-15.0,-9.0,-18.0,1651091794053407.0,3
1750,5.0,3.0,5.0,-16.0,-36.0,-1.0,-1.0,2.0,1651091794053946.0,3
1751,3.0,0.0,-1.0,12.0,93.0,-1.0,4.0,2.0,1651091794053946.0,3
1752,-2.0,1.0,-3.0,-17.0,-58.0,-19.0,0.0,2.0,1651091794066741.0,3
1753,13.0,11.0,19.0,41.0,127.0,12.0,17.0,20.0,1651091794066741.0,3
1754,-5.0,-1.0,-3.0,-3.0,-128.0,-10.0,-12.0,-13.0,1651091794075087.0,3
1755,-2.0,-3.0,1.0,-4.0,37.0,-11.0,-2.0,-4.0,1651091794075087.0,3
1756,1.0,-2.0,-5.0,-18.0,-38.0,2.0,1.0,0.0,1651091794090570.0,3
1757,2.0,-1.0,-7.0,0.0,85.0,-14.0,0.0,3.0,1651091794090570.0,3
1758,-5.0,1.0,-2.0,4.0,-60.0,20.0,1.0,-4.0,1651091794091569.0,3
1759,0.0,0.0,0.0,12.0,-45.0,-15.0,-3.0,2.0,1651091794091569.0,3
1760,-2.0,0.0,1.0,-35.0,46.0,10.0,-3.0,-4.0,1651091794113846.0,3
1761,7.0,2.0,-3.0,8.0,-65.0,-6.0,3.0,7.0,1651091794113846.0,3
1762,-11.0,-8.0,-4.0,13.0,102.0,0.0,-10.0,-14.0,1651091794113846.0,3
1763,-3.0,-2.0,-9.0,-31.0,-41.0,-7.0,-2.0,-6.0,1651091794113846.0,3
1764,3.0,-1.0,3.0,33.0,-46.0,-5.0,0.0,6.0,1651091794126011.0,3
1765,-3.0,0.0,-2.0,-53.0,-22.0,-6.0,-7.0,-8.0,1651091794126011.0,3
1766,7.0,1.0,-2.0,21.0,-18.0,2.0,9.0,14.0,1651091794135018.0,3
1767,4.0,1.0,-4.0,-16.0,-115.0,-23.0,0.0,1.0,1651091794135018.0,3
1768,-5.0,-1.0,1.0,1.0,71.0,-18.0,-4.0,-7.0,1651091794150114.0,3
1769,-8.0,-6.0,-6.0,33.0,44.0,5.0,-5.0,-10.0,1651091794150114.0,3
1770,7.0,2.0,3.0,13.0,30.0,2.0,5.0,8.0,1651091794152007.0,3
1771,-3.0,-1.0,2.0,-11.0,69.0,22.0,4.0,2.0,1651091794152007.0,3
1772,2.0,-2.0,-5.0,-16.0,-73.0,4.0,2.0,1.0,1651091794173158.0,3
1773,-4.0,-5.0,-3.0,-37.0,-96.0,-15.0,-2.0,-5.0,1651091794173158.0,3
1774,1.0,-5.0,-5.0,-5.0,59.0,5.0,-1.0,3.0,1651091794173967.0,3
1775,-10.0,-6.0,-7.0,0.0,-65.0,-12.0,-6.0,-12.0,1651091794173967.0,3
1776,2.0,6.0,7.0,10.0,-25.0,-10.0,0.0,-3.0,1651091794187296.0,3
1777,2.0,-2.0,-2.0,23.0,-35.0,8.0,4.0,4.0,1651091794187296.0,3
1778,-3.0,3.0,0.0,-38.0,-58.0,-15.0,-7.0,-9.0,1651091794195009.0,3
1779,2.0,1.0,5.0,43.0,99.0,22.0,-2.0,5.0,1651091794195009.0,3
1780,-3.0,1.0,0.0,-4.0,-15.0,-4.0,-1.0,-3.0,1651091794210108.0,3
1781,-3.0,-3.0,-2.0,-14.0,66.0,-7.0,-2.0,-1.0,1651091794210108.0,3
1782,-2.0,-6.0,-7.0,-15.0,-34.0,-11.0,-2.0,0.0,1651091794212006.0,3
1783,6.0,2.0,-3.0,-33.0,-18.0,-5.0,-1.0,5.0,1651091794212006.0,3
1784,-8.0,-3.0,4.0,9.0,31.0,0.0,-4.0,-9.0,1651091794232284.0,3
1785,10.0,10.0,8.0,11.0,2.0,41.0,10.0,14.0,1651091794232284.0,3
1786,-3.0,-5.0,-2.0,-1.0,39.0,3.0,-1.0,1.0,1651091794234281.0,3
1787,-2.0,-3.0,1.0,-28.0,8.0,-10.0,-2.0,-6.0,1651091794234281.0,3
1788,-4.0,-2.0,-4.0,-3.0,-20.0,5.0,-2.0,-5.0,1651091794246405.0,3
1789,2.0,1.0,-4.0,2.0,-10.0,-8.0,-1.0,0.0,1651091794246405.0,3
1790,-1.0,2.0,3.0,58.0,-28.0,-3.0,1.0,0.0,1651091794255167.0,3
1791,0.0,-3.0,-1.0,-27.0,-16.0,18.0,1.0,2.0,1651091794255167.0,3
1792,1.0,-1.0,-1.0,-1.0,-4.0,-4.0,1.0,4.0,1651091794270624.0,3
1793,-1.0,2.0,-2.0,-59.0,51.0,-10.0,-3.0,-5.0,1651091794270624.0,3
1794,3.0,-2.0,5.0,41.0,-116.0,-13.0,-2.0,5.0,1651091794271624.0,3
1795,-2.0,-2.0,-9.0,-14.0,92.0,2.0,0.0,-5.0,1651091794271624.0,3
1796,1.0,3.0,11.0,51.0,48.0,20.0,4.0,4.0,1651091794292787.0,3
1797,2.0,2.0,5.0,-32.0,74.0,18.0,4.0,7.0,1651091794292787.0,3
1798,-1.0,4.0,-4.0,8.0,-65.0,-4.0,-2.0,-6.0,1651091794293784.0,3
1799,1.0,2.0,3.0,-2.0,-55.0,-1.0,1.0,3.0,1651091794293784.0,3
1800,4.0,-3.0,-9.0,-21.0,-55.0,-2.0,-1.0,0.0,1651091794307078.0,3
1801,-2.0,-4.0,0.0,12.0,10.0,-10.0,-4.0,-1.0,1651091794307078.0,3
1802,-6.0,0.0,3.0,-5.0,39.0,-6.0,0.0,-6.0,1651091794315363.0,3
1803,4.0,2.0,2.0,11.0,0.0,-16.0,3.0,8.0,1651091794315363.0,3
1804,-6.0,-3.0,-8.0,-1.0,8.0,41.0,-1.0,-9.0,1651091794330578.0,3
1805,-1.0,-1.0,0.0,19.0,-11.0,-15.0,-17.0,-8.0,1651091794330578.0,3
1806,4.0,0.0,-1.0,-27.0,2.0,4.0,43.0,33.0,1651091794331582.0,3
1807,10.0,5.0,2.0,6.0,-52.0,2.0,7.0,6.0,1651091794331582.0,3
1808,-9.0,-8.0,-7.0,6.0,29.0,-14.0,-8.0,-10.0,1651091794353758.0,3
1809,-3.0,-2.0,-4.0,-9.0,-49.0,-7.0,2.0,-4.0,1651091794353758.0,3
1810,1.0,1.0,0.0,-1.0,127.0,21.0,-5.0,-5.0,1651091794353758.0,3
1811,-1.0,-2.0,-1.0,17.0,25.0,-1.0,-3.0,-7.0,1651091794353758.0,3
1812,8.0,4.0,5.0,2.0,-2.0,2.0,15.0,30.0,1651091794367045.0,3
1813,-6.0,-1.0,3.0,-4.0,-70.0,-11.0,-20.0,-25.0,1651091794367045.0,3
1814,12.0,7.0,-7.0,-14.0,-77.0,1.0,7.0,2.0,1651091794375216.0,3
1815,-3.0,-3.0,12.0,7.0,-30.0,-5.0,8.0,-20.0,1651091794375216.0,3
1816,-7.0,3.0,-3.0,-12.0,18.0,11.0,-15.0,-10.0,1651091794390711.0,3
1817,4.0,-11.0,-5.0,6.0,-40.0,-16.0,20.0,29.0,1651091794390711.0,3
1818,-1.0,-2.0,-1.0,-1.0,14.0,11.0,20.0,3.0,1651091794391712.0,3
1819,1.0,7.0,-3.0,-4.0,-52.0,-9.0,-3.0,-8.0,1651091794391712.0,3
1820,-2.0,-5.0,-2.0,-2.0,63.0,1.0,4.0,-3.0,1651091794412806.0,3
1821,1.0,6.0,0.0,9.0,6.0,25.0,-5.0,-28.0,1651091794412806.0,3
1822,-4.0,1.0,12.0,-7.0,6.0,-12.0,-11.0,-5.0,1651091794414682.0,3
1823,-6.0,-4.0,-7.0,3.0,14.0,-10.0,-16.0,-7.0,1651091794414682.0,3
1824,1.0,-2.0,2.0,4.0,2.0,0.0,20.0,13.0,1651091794425831.0,3
1825,0.0,-1.0,-1.0,1.0,-11.0,5.0,6.0,9.0,1651091794425831.0,3
1826,-3.0,-5.0,-12.0,-9.0,3.0,-12.0,-16.0,-13.0,1651091794435143.0,3
1827,-1.0,2.0,9.0,5.0,42.0,9.0,-9.0,-2.0,1651091794435143.0,3
1828,5.0,2.0,1.0,1.0,-11.0,-1.0,-6.0,8.0,1651091794451091.0,3
1829,1.0,1.0,1.0,4.0,19.0,-14.0,6.0,-11.0,1651091794451091.0,3
1830,-6.0,-3.0,-2.0,-2.0,-5.0,16.0,-10.0,-6.0,1651091794451971.0,3
1831,-6.0,-1.0,-4.0,1.0,-21.0,0.0,10.0,18.0,1651091794451971.0,3
1832,7.0,0.0,-3.0,-4.0,-29.0,-5.0,-17.0,-23.0,1651091794473535.0,3
1833,-1.0,3.0,3.0,10.0,87.0,14.0,8.0,8.0,1651091794473535.0,3
1834,2.0,1.0,1.0,-3.0,-31.0,-10.0,-34.0,17.0,1651091794474423.0,3
1835,-4.0,-6.0,-4.0,3.0,10.0,7.0,-1.0,4.0,1651091794474423.0,3
1836,-2.0,0.0,1.0,-8.0,-28.0,-6.0,6.0,-2.0,1651091794494709.0,3
1837,-3.0,-2.0,-1.0,-2.0,-3.0,-5.0,-4.0,-3.0,1651091794494709.0,3
1838,1.0,0.0,-2.0,0.0,3.0,18.0,-3.0,-5.0,1651091794502953.0,3
1839,1.0,2.0,8.0,2.0,-5.0,-9.0,3.0,2.0,1651091794502953.0,3
1840,2.0,0.0,-1.0,4.0,24.0,-10.0,1.0,-7.0,1651091794510550.0,3
1841,1.0,-1.0,0.0,-3.0,-43.0,-11.0,-5.0,6.0,1651091794510550.0,3
1842,-1.0,-2.0,-4.0,2.0,32.0,5.0,4.0,0.0,1651091794511548.0,3
1843,0.0,-3.0,-6.0,-2.0,-27.0,-6.0,0.0,-2.0,1651091794511548.0,3
1844,-1.0,2.0,1.0,-11.0,-64.0,1.0,0.0,1.0,1651091794533724.0,3
1845,-1.0,1.0,0.0,6.0,46.0,24.0,1.0,0.0,1651091794533724.0,3
1846,0.0,-3.0,2.0,3.0,-32.0,-12.0,3.0,-1.0,1651091794533856.0,3
1847,-1.0,-3.0,-4.0,-4.0,-11.0,17.0,-1.0,-4.0,1651091794533856.0,3
1848,0.0,-3.0,0.0,4.0,18.0,-3.0,-6.0,3.0,1651091794555290.0,3
1849,-2.0,-1.0,-4.0,-3.0,-34.0,-6.0,-1.0,3.0,1651091794555290.0,3
1850,1.0,-1.0,-1.0,-1.0,3.0,-9.0,-2.0,-6.0,1651091794557161.0,3
1851,1.0,0.0,1.0,4.0,21.0,4.0,4.0,2.0,1651091794557161.0,3
1852,-2.0,0.0,-2.0,-5.0,-3.0,-4.0,-1.0,2.0,1651091794570095.0,3
1853,-1.0,1.0,-1.0,-2.0,-13.0,-6.0,-1.0,-3.0,1651091794570095.0,3
1854,1.0,-1.0,0.0,-1.0,5.0,3.0,5.0,0.0,1651091794572124.0,3
1855,-2.0,0.0,-3.0,-3.0,5.0,15.0,-5.0,-4.0,1651091794572124.0,3
1856,0.0,-1.0,-1.0,0.0,30.0,-4.0,-1.0,1.0,1651091794592120.0,3
1857,0.0,3.0,3.0,2.0,-60.0,-4.0,0.0,-2.0,1651091794592120.0,3
1858,-1.0,-1.0,-1.0,4.0,24.0,-2.0,-1.0,-1.0,1651091794594119.0,3
1859,-1.0,-3.0,-6.0,-6.0,-10.0,-1.0,0.0,2.0,1651091794594119.0,3
1860,0.0,-1.0,-3.0,0.0,8.0,-2.0,0.0,-3.0,1651091794615695.0,3
1861,-1.0,-2.0,2.0,-5.0,-8.0,-1.0,-3.0,1.0,1651091794615695.0,3
1862,1.0,1.0,1.0,4.0,18.0,-1.0,1.0,0.0,1651091794616545.0,3
1863,-1.0,-1.0,-2.0,-2.0,19.0,-9.0,-2.0,2.0,1651091794616545.0,3
1864,-2.0,0.0,0.0,0.0,-37.0,-11.0,-4.0,-6.0,1651091794630814.0,3
1865,0.0,-2.0,0.0,-1.0,45.0,28.0,-3.0,0.0,1651091794630814.0,3
1866,1.0,0.0,0.0,-3.0,-27.0,-5.0,-1.0,0.0,1651091794631683.0,3
1867,-1.0,0.0,-1.0,1.0,10.0,0.0,-3.0,-1.0,1651091794631683.0,3
1868,-1.0,0.0,1.0,1.0,3.0,2.0,1.0,4.0,1651091794654002.0,3
1869,0.0,-2.0,-3.0,-2.0,-24.0,-6.0,-2.0,-2.0,1651091794654002.0,3
1870,-1.0,0.0,1.0,2.0,27.0,0.0,3.0,-3.0,1651091794656032.0,3
1871,-2.0,-1.0,1.0,-1.0,-14.0,-3.0,-1.0,-8.0,1651091794656032.0,3
1872,-1.0,-2.0,0.0,0.0,7.0,15.0,-2.0,10.0,1651091794675281.0,3
1873,-1.0,-1.0,-3.0,3.0,-2.0,-4.0,2.0,-4.0,1651091794675281.0,3
1874,-2.0,-1.0,-1.0,-4.0,9.0,-1.0,0.0,0.0,1651091794676278.0,3
1875,1.0,-2.0,-3.0,2.0,-18.0,-10.0,-1.0,1.0,1651091794676278.0,3
1876,-1.0,0.0,-3.0,5.0,55.0,7.0,3.0,-3.0,1651091794690685.0,3
1877,-2.0,0.0,0.0,-1.0,11.0,-8.0,0.0,0.0,1651091794690685.0,3
1878,-1.0,-2.0,-1.0,-2.0,-6.0,0.0,1.0,1.0,1651091794696831.0,3
1879,-1.0,-1.0,1.0,1.0,-17.0,4.0,-3.0,-1.0,1651091794696831.0,3
1880,1.0,-2.0,-3.0,-4.0,-36.0,0.0,7.0,2.0,1651091794713172.0,3
1881,-2.0,-2.0,0.0,0.0,41.0,-2.0,1.0,5.0,1651091794713172.0,3
1882,-2.0,0.0,-3.0,-2.0,-29.0,-4.0,-1.0,-2.0,1651091794713888.0,3
1883,0.0,1.0,2.0,-2.0,9.0,-8.0,-6.0,0.0,1651091794713888.0,3
1884,1.0,-2.0,-1.0,1.0,-8.0,15.0,2.0,0.0,1651091794736766.0,3
1885,0.0,-3.0,-6.0,-2.0,-30.0,-6.0,0.0,-1.0,1651091794736766.0,3
1886,-1.0,1.0,5.0,1.0,-18.0,-3.0,1.0,-2.0,1651091794737605.0,3
1887,-1.0,-2.0,2.0,0.0,8.0,-8.0,1.0,0.0,1651091794737605.0,3
1888,0.0,1.0,-1.0,-4.0,10.0,5.0,-2.0,-2.0,1651091794749734.0,3
1889,-1.0,0.0,2.0,-1.0,9.0,-1.0,0.0,-2.0,1651091794749734.0,3
1890,0.0,0.0,-3.0,0.0,48.0,2.0,-2.0,0.0,1651091794756877.0,3
1891,0.0,-1.0,-2.0,1.0,-16.0,6.0,3.0,3.0,1651091794756877.0,3
1892,-4.0,-3.0,-1.0,0.0,-12.0,-8.0,-2.0,-4.0,1651091794773167.0,3
1893,-2.0,-1.0,-1.0,-6.0,-12.0,-1.0,0.0,2.0,1651091794773167.0,3
1894,0.0,0.0,3.0,2.0,19.0,-4.0,0.0,2.0,1651091794773884.0,3
1895,0.0,0.0,-1.0,1.0,-1.0,-5.0,-8.0,-8.0,1651091794773884.0,3
1896,0.0,-1.0,-2.0,-1.0,-14.0,-3.0,0.0,0.0,1651091794803233.0,3
1897,1.0,1.0,0.0,0.0,2.0,-5.0,-2.0,-2.0,1651091794803233.0,3
1898,-1.0,-2.0,-2.0,0.0,32.0,8.0,-2.0,1.0,1651091794804079.0,3
1899,-1.0,1.0,0.0,-3.0,-18.0,-1.0,-3.0,1.0,1651091794804079.0,3
1900,-1.0,-1.0,1.0,0.0,3.0,-7.0,-3.0,-3.0,1651091794810066.0,3
1901,1.0,1.0,2.0,2.0,-32.0,2.0,1.0,2.0,1651091794810066.0,3
1902,-2.0,-2.0,-7.0,-5.0,-15.0,-21.0,-3.0,-2.0,1651091794817245.0,3
1903,0.0,-1.0,2.0,0.0,13.0,36.0,5.0,3.0,1651091794817245.0,3
1904,1.0,2.0,6.0,-2.0,15.0,1.0,0.0,0.0,1651091794833213.0,3
