,EMG_s0,EMG_s1,EMG_s2,EMG_s3,EMG_s4,EMG_s5,EMG_s6,EMG_s7,timestamp,signal
0,-1.0,0.0,0.0,1.0,4.0,7.0,3.0,-1.0,1650914538091072.0,0
1,1.0,1.0,-2.0,1.0,4.0,5.0,4.0,0.0,1650914538091072.0,0
2,0.0,0.0,0.0,1.0,3.0,-6.0,0.0,0.0,1650914538114945.0,0
3,0.0,1.0,-1.0,-4.0,-24.0,-28.0,-4.0,-2.0,1650914538114945.0,0
4,-1.0,0.0,-1.0,-1.0,-2.0,15.0,2.0,-1.0,1650914538115941.0,0
5,1.0,-3.0,0.0,1.0,17.0,16.0,1.0,0.0,1650914538115941.0,0
6,-1.0,0.0,-1.0,2.0,2.0,-10.0,-2.0,0.0,1650914538128406.0,0
7,-2.0,-1.0,-1.0,1.0,7.0,20.0,2.0,0.0,1650914538128406.0,0
8,-1.0,-2.0,-3.0,-1.0,-11.0,-6.0,3.0,0.0,1650914538128406.0,0
9,0.0,0.0,0.0,-2.0,-4.0,-5.0,2.0,0.0,1650914538128406.0,0
10,-2.0,-1.0,-1.0,-3.0,1.0,12.0,2.0,-1.0,1650914538158874.0,0
11,-1.0,1.0,-1.0,-1.0,-4.0,-8.0,-5.0,-3.0,1650914538158874.0,0
12,-1.0,-2.0,-2.0,-2.0,-1.0,-13.0,-5.0,1.0,1650914538159741.0,0
13,-2.0,0.0,-2.0,-1.0,-3.0,-7.0,1.0,2.0,1650914538159741.0,0
14,0.0,1.0,-2.0,1.0,2.0,0.0,1.0,-1.0,1650914538174652.0,0
15,-2.0,-1.0,-1.0,-2.0,-1.0,-11.0,-2.0,-2.0,1650914538174652.0,0
16,1.0,-1.0,-2.0,-1.0,-4.0,12.0,1.0,0.0,1650914538174652.0,0
17,-2.0,0.0,0.0,2.0,4.0,1.0,-2.0,-4.0,1650914538174652.0,0
18,-1.0,-1.0,0.0,2.0,9.0,-8.0,-1.0,0.0,1650914538188308.0,0
19,0.0,0.0,-2.0,-2.0,-8.0,1.0,0.0,0.0,1650914538188308.0,0
20,0.0,-2.0,0.0,-1.0,-4.0,0.0,1.0,-1.0,1650914538188308.0,0
21,0.0,0.0,1.0,1.0,1.0,6.0,1.0,2.0,1650914538188308.0,0
22,-1.0,1.0,0.0,0.0,-3.0,-4.0,0.0,-1.0,1650914538226382.0,0
23,-1.0,0.0,1.0,1.0,9.0,1.0,1.0,1.0,1650914538226382.0,0
24,-1.0,0.0,-1.0,-1.0,0.0,-3.0,-1.0,0.0,1650914538226382.0,0
25,0.0,0.0,-3.0,-2.0,-7.0,7.0,-3.0,-2.0,1650914538226382.0,0
26,0.0,-3.0,-1.0,-2.0,-10.0,-30.0,-5.0,0.0,1650914538241997.0,0
27,2.0,-2.0,-3.0,-2.0,2.0,13.0,1.0,0.0,1650914538241997.0,0
28,0.0,0.0,1.0,1.0,7.0,14.0,1.0,-1.0,1650914538241997.0,0
29,-1.0,1.0,0.0,-1.0,3.0,-1.0,0.0,0.0,1650914538241997.0,0
30,-2.0,1.0,0.0,-1.0,-8.0,5.0,-4.0,-1.0,1650914538247819.0,0
31,0.0,-1.0,0.0,-2.0,-13.0,-19.0,2.0,1.0,1650914538247819.0,0
32,-1.0,-1.0,3.0,1.0,10.0,-4.0,1.0,1.0,1650914538248819.0,0
33,0.0,0.0,-1.0,0.0,6.0,12.0,2.0,0.0,1650914538248819.0,0
34,1.0,1.0,-1.0,0.0,1.0,-8.0,-1.0,0.0,1650914538270848.0,0
35,-1.0,0.0,-2.0,0.0,-2.0,-6.0,-2.0,-2.0,1650914538270848.0,0
36,-1.0,-2.0,-3.0,-5.0,-17.0,-4.0,-4.0,-5.0,1650914538271845.0,0
37,-1.0,-2.0,-2.0,-2.0,-7.0,-10.0,-2.0,-1.0,1650914538271845.0,0
38,0.0,-2.0,-1.0,1.0,9.0,17.0,3.0,1.0,1650914538294477.0,0
39,0.0,1.0,1.0,4.0,6.0,2.0,4.0,2.0,1650914538294477.0,0
40,1.0,0.0,0.0,2.0,1.0,-14.0,-2.0,-1.0,1650914538294477.0,0
41,0.0,-2.0,-1.0,-1.0,-8.0,-1.0,-2.0,-1.0,1650914538294477.0,0
42,-2.0,0.0,0.0,-4.0,3.0,4.0,-2.0,-1.0,1650914538308638.0,0
43,-2.0,0.0,0.0,-3.0,-3.0,9.0,-3.0,0.0,1650914538308638.0,0
44,-2.0,1.0,1.0,1.0,0.0,-22.0,-3.0,-3.0,1650914538308638.0,0
45,1.0,1.0,1.0,2.0,2.0,-7.0,1.0,-1.0,1650914538308638.0,0
46,2.0,0.0,-1.0,1.0,3.0,25.0,6.0,3.0,1650914538330021.0,0
47,1.0,0.0,-1.0,-2.0,5.0,12.0,-1.0,-2.0,1650914538330021.0,0
48,-1.0,-1.0,-3.0,-1.0,-1.0,-2.0,-2.0,2.0,1650914538331020.0,0
49,-2.0,0.0,-1.0,-1.0,-12.0,-16.0,-2.0,-1.0,1650914538331020.0,0
50,0.0,1.0,0.0,-3.0,-1.0,-13.0,-1.0,-1.0,1650914538354698.0,0
51,1.0,-2.0,1.0,1.0,-8.0,-10.0,-1.0,-1.0,1650914538354698.0,0
52,0.0,-3.0,-2.0,-2.0,10.0,29.0,2.0,-1.0,1650914538354698.0,0
53,-1.0,-1.0,1.0,-1.0,1.0,8.0,5.0,0.0,1650914538354698.0,0
54,-1.0,-1.0,-2.0,-1.0,-9.0,-17.0,-3.0,-2.0,1650914538368304.0,0
55,1.0,-2.0,-2.0,2.0,15.0,-4.0,-3.0,0.0,1650914538368304.0,0
56,0.0,2.0,1.0,2.0,1.0,3.0,0.0,1.0,1650914538368304.0,0
57,0.0,0.0,-1.0,-3.0,-13.0,-14.0,-3.0,-1.0,1650914538368304.0,0
58,-1.0,-2.0,-1.0,-5.0,-5.0,9.0,-1.0,-1.0,1650914538390171.0,0
59,-1.0,-1.0,-2.0,-3.0,1.0,-12.0,-5.0,-4.0,1650914538390171.0,0
60,1.0,-3.0,1.0,-2.0,-3.0,-10.0,0.0,0.0,1650914538391169.0,0
61,-2.0,0.0,1.0,-2.0,1.0,32.0,1.0,1.0,1650914538391169.0,0
62,1.0,1.0,1.0,3.0,7.0,-1.0,6.0,1.0,1650914538413172.0,0
63,1.0,2.0,-1.0,2.0,1.0,2.0,-2.0,1.0,1650914538413172.0,0
64,-1.0,-1.0,0.0,0.0,4.0,-2.0,0.0,1.0,1650914538421156.0,0
65,-1.0,-1.0,-1.0,-4.0,-3.0,-26.0,-6.0,0.0,1650914538421156.0,0
66,0.0,-1.0,-2.0,-1.0,0.0,26.0,-1.0,-4.0,1650914538428334.0,0
67,-2.0,-1.0,2.0,-2.0,-3.0,2.0,3.0,2.0,1650914538428334.0,0
68,1.0,0.0,1.0,1.0,-5.0,-7.0,-3.0,1.0,1650914538429167.0,0
69,0.0,2.0,0.0,0.0,-7.0,-7.0,0.0,-1.0,1650914538429167.0,0
70,-3.0,0.0,-1.0,0.0,6.0,-10.0,-4.0,-2.0,1650914538450707.0,0
71,0.0,-1.0,-1.0,0.0,-9.0,2.0,0.0,-1.0,1650914538450707.0,0
72,-1.0,-1.0,-2.0,0.0,2.0,5.0,1.0,-1.0,1650914538450707.0,0
73,0.0,-1.0,1.0,2.0,10.0,-5.0,-2.0,0.0,1650914538450707.0,0
74,0.0,0.0,0.0,2.0,4.0,15.0,4.0,2.0,1650914538474210.0,0
75,0.0,-1.0,0.0,-2.0,-4.0,17.0,1.0,0.0,1650914538474210.0,0
76,0.0,0.0,-2.0,-3.0,-8.0,-14.0,1.0,-2.0,1650914538474210.0,0
77,-1.0,-1.0,0.0,2.0,8.0,14.0,4.0,1.0,1650914538474210.0,0
78,1.0,1.0,1.0,0.0,-3.0,-11.0,-5.0,0.0,1650914538496386.0,0
79,-2.0,-1.0,-1.0,-2.0,-4.0,-18.0,-3.0,0.0,1650914538496386.0,0
80,-3.0,-2.0,-2.0,-4.0,-5.0,1.0,-2.0,-2.0,1650914538496386.0,0
81,-2.0,-2.0,-1.0,-5.0,-5.0,-17.0,-4.0,-3.0,1650914538496386.0,0
82,-2.0,-1.0,-1.0,-2.0,-5.0,2.0,-3.0,-2.0,1650914538518848.0,0
83,-2.0,-3.0,1.0,1.0,11.0,13.0,0.0,0.0,1650914538518848.0,0
84,2.0,1.0,2.0,5.0,18.0,19.0,7.0,3.0,1650914538519717.0,0
85,-2.0,0.0,-3.0,0.0,-6.0,-3.0,0.0,-1.0,1650914538519717.0,0
86,-2.0,-3.0,-4.0,-5.0,-14.0,-19.0,-5.0,-1.0,1650914538534443.0,0
87,-3.0,0.0,-3.0,-1.0,-6.0,-11.0,-3.0,-3.0,1650914538534443.0,0
88,1.0,0.0,0.0,3.0,7.0,12.0,2.0,0.0,1650914538534443.0,0
89,2.0,1.0,0.0,3.0,5.0,10.0,2.0,2.0,1650914538534443.0,0
90,1.0,-1.0,0.0,-2.0,-6.0,-12.0,-1.0,-1.0,1650914538547354.0,0
91,-3.0,-2.0,-2.0,-4.0,-7.0,-8.0,-3.0,-3.0,1650914538547354.0,0
92,1.0,-1.0,-2.0,-2.0,-10.0,-11.0,-1.0,2.0,1650914538556470.0,0
93,0.0,-1.0,1.0,3.0,8.0,8.0,4.0,1.0,1650914538556470.0,0
94,0.0,0.0,2.0,4.0,10.0,11.0,5.0,2.0,1650914538570139.0,0
95,1.0,0.0,-1.0,-1.0,2.0,-4.0,2.0,2.0,1650914538570139.0,0
96,-1.0,-1.0,-2.0,-3.0,-14.0,-4.0,-2.0,-4.0,1650914538571138.0,0
97,2.0,0.0,-1.0,0.0,6.0,2.0,-3.0,-1.0,1650914538571138.0,0
98,-1.0,0.0,-1.0,1.0,4.0,-6.0,0.0,-1.0,1650914538594200.0,0
99,0.0,-1.0,0.0,0.0,-1.0,10.0,4.0,0.0,1650914538594200.0,0
100,-1.0,-1.0,0.0,1.0,3.0,-6.0,-3.0,0.0,1650914538594437.0,0
101,0.0,-2.0,-1.0,1.0,-6.0,-4.0,-3.0,0.0,1650914538594437.0,0
102,-1.0,-2.0,-1.0,-2.0,-2.0,-4.0,1.0,1.0,1650914538607567.0,0
103,1.0,-1.0,0.0,-2.0,-8.0,-7.0,-1.0,0.0,1650914538607567.0,0
104,-1.0,-1.0,-2.0,-2.0,-4.0,1.0,-2.0,-2.0,1650914538615881.0,0
105,-1.0,-1.0,-1.0,0.0,-5.0,-1.0,-3.0,-2.0,1650914538615881.0,0
106,-2.0,-3.0,0.0,-2.0,0.0,-21.0,-5.0,-1.0,1650914538631018.0,0
107,1.0,1.0,-1.0,0.0,0.0,3.0,-2.0,3.0,1650914538631018.0,0
108,0.0,-1.0,0.0,2.0,5.0,19.0,4.0,-3.0,1650914538632061.0,0
109,0.0,1.0,1.0,6.0,23.0,20.0,5.0,-1.0,1650914538632061.0,0
110,2.0,1.0,1.0,4.0,4.0,13.0,4.0,0.0,1650914538654090.0,0
111,2.0,0.0,-1.0,-1.0,-6.0,-15.0,1.0,0.0,1650914538654090.0,0
112,0.0,1.0,0.0,-4.0,-12.0,-19.0,-6.0,1.0,1650914538655122.0,0
113,-8.0,-4.0,-3.0,-10.0,-21.0,-16.0,-8.0,-4.0,1650914538655122.0,0
114,0.0,-2.0,-3.0,-3.0,-5.0,-2.0,-2.0,-4.0,1650914538667183.0,0
115,-3.0,-2.0,0.0,3.0,6.0,-4.0,0.0,-1.0,1650914538667183.0,0
116,0.0,0.0,0.0,0.0,5.0,22.0,4.0,0.0,1650914538676398.0,0
117,0.0,-2.0,1.0,1.0,8.0,-1.0,0.0,0.0,1650914538676398.0,0
118,-2.0,1.0,0.0,0.0,-5.0,-6.0,-3.0,-2.0,1650914538691159.0,0
119,-2.0,1.0,0.0,2.0,-2.0,0.0,-1.0,-1.0,1650914538691159.0,0
120,1.0,1.0,2.0,1.0,5.0,9.0,3.0,0.0,1650914538691159.0,0
121,1.0,-1.0,-3.0,-5.0,-7.0,-4.0,-2.0,-1.0,1650914538691159.0,0
122,0.0,-3.0,-1.0,-3.0,-16.0,-15.0,-4.0,0.0,1650914538714014.0,0
123,-1.0,-1.0,-1.0,0.0,6.0,0.0,-2.0,-4.0,1650914538714014.0,0
124,1.0,0.0,1.0,3.0,16.0,5.0,4.0,2.0,1650914538714014.0,0
125,1.0,2.0,0.0,0.0,2.0,20.0,4.0,2.0,1650914538714014.0,0
126,0.0,2.0,1.0,-1.0,-2.0,8.0,0.0,0.0,1650914538727007.0,0
127,-2.0,0.0,-2.0,-4.0,-16.0,-18.0,-7.0,-4.0,1650914538727007.0,0
128,-2.0,-1.0,-2.0,-1.0,-5.0,-4.0,-5.0,-3.0,1650914538734955.0,0
129,2.0,0.0,-1.0,1.0,-1.0,-10.0,2.0,-1.0,1650914538734955.0,0
130,-1.0,0.0,1.0,1.0,11.0,2.0,1.0,1.0,1650914538751290.0,0
131,0.0,1.0,-1.0,-2.0,-2.0,9.0,1.0,0.0,1650914538751290.0,0
132,0.0,0.0,-3.0,-4.0,-5.0,-2.0,-2.0,-1.0,1650914538751290.0,0
133,2.0,1.0,-1.0,1.0,-6.0,-4.0,0.0,5.0,1650914538751290.0,0
134,-6.0,-2.0,-1.0,-1.0,-2.0,1.0,-2.0,-7.0,1650914538781057.0,0
135,0.0,-1.0,1.0,0.0,4.0,1.0,2.0,-1.0,1650914538781057.0,0
136,-2.0,0.0,-2.0,-3.0,-5.0,-9.0,-3.0,1.0,1650914538782022.0,0
137,2.0,0.0,-1.0,-2.0,-5.0,-2.0,-2.0,0.0,1650914538782022.0,0
138,1.0,-2.0,-1.0,0.0,0.0,1.0,0.0,2.0,1650914538787041.0,0
139,2.0,1.0,1.0,1.0,1.0,-2.0,-1.0,3.0,1650914538787041.0,0
140,-2.0,0.0,2.0,0.0,3.0,5.0,1.0,0.0,1650914538795301.0,0
141,0.0,0.0,-1.0,-3.0,-2.0,-21.0,-5.0,-7.0,1650914538795301.0,0
142,-1.0,0.0,-1.0,-2.0,-8.0,6.0,-5.0,-6.0,1650914538810605.0,0
143,1.0,-2.0,-1.0,2.0,3.0,16.0,1.0,-5.0,1650914538810605.0,0
144,-2.0,0.0,0.0,4.0,15.0,10.0,5.0,3.0,1650914538811559.0,0
145,3.0,0.0,4.0,4.0,9.0,12.0,2.0,11.0,1650914538811559.0,0
146,1.0,-1.0,-1.0,-3.0,-5.0,-11.0,-1.0,-8.0,1650914538834184.0,0
147,-4.0,-2.0,-2.0,-5.0,-18.0,-25.0,-3.0,7.0,1650914538834184.0,0
148,0.0,-4.0,-3.0,-5.0,-15.0,-2.0,-7.0,-10.0,1650914538834184.0,0
149,-4.0,0.0,0.0,0.0,10.0,5.0,-2.0,-11.0,1650914538834184.0,0
150,2.0,3.0,-2.0,1.0,-5.0,-19.0,2.0,13.0,1650914538856669.0,0
151,1.0,0.0,1.0,1.0,6.0,14.0,-1.0,-9.0,1650914538856669.0,0
152,-3.0,1.0,2.0,3.0,13.0,22.0,6.0,9.0,1650914538856669.0,0
153,-5.0,1.0,1.0,2.0,3.0,10.0,2.0,0.0,1650914538856669.0,0
154,7.0,-1.0,-2.0,2.0,-1.0,7.0,1.0,5.0,1650914538870830.0,0
155,7.0,5.0,2.0,0.0,5.0,-10.0,-2.0,2.0,1650914538870830.0,0
156,-2.0,-3.0,-2.0,-7.0,-19.0,-32.0,-8.0,0.0,1650914538870830.0,0
157,-1.0,-4.0,-6.0,-11.0,-22.0,-17.0,-8.0,0.0,1650914538870830.0,0
158,-13.0,-1.0,-3.0,-3.0,-3.0,1.0,0.0,3.0,1650914538894121.0,0
159,4.0,-3.0,-2.0,4.0,15.0,18.0,1.0,-27.0,1650914538894121.0,0
160,4.0,0.0,-1.0,7.0,18.0,15.0,8.0,-1.0,1650914538894121.0,0
161,0.0,2.0,8.0,3.0,2.0,3.0,4.0,-1.0,1650914538894121.0,0
162,1.0,-2.0,1.0,-2.0,-6.0,-4.0,-3.0,14.0,1650914538916041.0,0
163,-10.0,1.0,-3.0,-3.0,-8.0,-3.0,-2.0,-3.0,1650914538916041.0,0
164,1.0,-4.0,-2.0,-4.0,-5.0,-6.0,-3.0,-10.0,1650914538917036.0,0
165,0.0,0.0,-8.0,-1.0,-3.0,-8.0,-4.0,-1.0,1650914538917036.0,0
166,1.0,-6.0,-19.0,-5.0,-8.0,-25.0,-5.0,-3.0,1650914538937355.0,0
167,3.0,7.0,27.0,1.0,-6.0,12.0,5.0,20.0,1650914538937355.0,0
168,12.0,-8.0,-7.0,-2.0,-2.0,-6.0,-1.0,-5.0,1650914538956024.0,0
169,-7.0,4.0,0.0,10.0,24.0,34.0,9.0,7.0,1650914538956024.0,0
170,-2.0,13.0,20.0,5.0,21.0,26.0,6.0,-3.0,1650914538956024.0,0
171,-7.0,-9.0,-18.0,-2.0,8.0,-19.0,-2.0,-5.0,1650914538956024.0,0
172,-5.0,-1.0,-9.0,-11.0,-48.0,-47.0,-14.0,-3.0,1650914538957024.0,0
173,5.0,-2.0,16.0,-4.0,-4.0,7.0,-6.0,-1.0,1650914538957024.0,0
174,6.0,2.0,4.0,13.0,16.0,27.0,10.0,0.0,1650914538977862.0,0
175,1.0,5.0,10.0,9.0,35.0,25.0,13.0,9.0,1650914538977862.0,0
176,-4.0,-3.0,-7.0,-2.0,3.0,4.0,3.0,0.0,1650914538978828.0,0
177,8.0,6.0,-24.0,-7.0,-23.0,-20.0,0.0,9.0,1650914538978828.0,0
178,-22.0,0.0,53.0,-5.0,-22.0,-19.0,-17.0,-30.0,1650914538991095.0,0
179,-7.0,-31.0,-67.0,-10.0,-25.0,-21.0,-9.0,-1.0,1650914538991095.0,0
180,0.0,-10.0,-6.0,-2.0,6.0,-10.0,-2.0,1.0,1650914538991095.0,0
181,-2.0,9.0,29.0,7.0,2.0,-4.0,-2.0,-8.0,1650914538991095.0,1
182,10.0,8.0,-12.0,-8.0,-8.0,-3.0,-1.0,9.0,1650914539014117.0,1
183,-5.0,2.0,4.0,-2.0,4.0,11.0,-4.0,-25.0,1650914539014117.0,1
184,0.0,7.0,-5.0,4.0,16.0,23.0,6.0,12.0,1650914539014117.0,1
185,-6.0,-11.0,7.0,3.0,8.0,10.0,1.0,-5.0,1650914539014117.0,1
186,-1.0,-3.0,-8.0,10.0,25.0,17.0,10.0,12.0,1650914539036367.0,1
187,11.0,9.0,7.0,-7.0,-21.0,-20.0,-7.0,-19.0,1650914539036367.0,1
188,7.0,5.0,-5.0,-1.0,-5.0,-8.0,2.0,23.0,1650914539037227.0,1
189,8.0,11.0,3.0,1.0,-11.0,-13.0,-5.0,-30.0,1650914539037227.0,1
190,-10.0,-10.0,-14.0,-2.0,-7.0,1.0,-1.0,25.0,1650914539059469.0,1
191,2.0,12.0,20.0,2.0,6.0,2.0,1.0,19.0,1650914539059469.0,1
192,8.0,3.0,20.0,11.0,21.0,17.0,1.0,-19.0,1650914539059469.0,1
193,-3.0,-1.0,-3.0,-6.0,-1.0,3.0,4.0,6.0,1650914539059469.0,1
194,10.0,4.0,-1.0,6.0,-4.0,-3.0,2.0,5.0,1650914539074704.0,1
195,-8.0,-1.0,11.0,-11.0,-9.0,-4.0,-2.0,-3.0,1650914539074704.0,1
196,-6.0,1.0,-2.0,-9.0,-20.0,-13.0,-3.0,-7.0,1650914539074704.0,1
197,1.0,-8.0,-11.0,1.0,20.0,1.0,-10.0,-20.0,1650914539074704.0,1
198,-4.0,-8.0,-8.0,-1.0,-21.0,-14.0,-3.0,-6.0,1650914539103911.0,1
199,4.0,2.0,1.0,-7.0,-11.0,-32.0,-9.0,5.0,1650914539103911.0,1
200,-4.0,1.0,14.0,10.0,23.0,44.0,6.0,1.0,1650914539103911.0,1
201,-7.0,-16.0,-28.0,2.0,17.0,33.0,16.0,15.0,1650914539103911.0,1
202,4.0,13.0,13.0,6.0,19.0,18.0,5.0,-19.0,1650914539111078.0,1
203,0.0,-5.0,-21.0,-1.0,-12.0,-2.0,5.0,12.0,1650914539111078.0,1
204,-13.0,-8.0,-2.0,-8.0,-17.0,-34.0,-16.0,0.0,1650914539111078.0,1
205,-12.0,-3.0,7.0,-11.0,-29.0,-41.0,-16.0,-19.0,1650914539111078.0,1
206,10.0,5.0,1.0,-3.0,-16.0,-5.0,-6.0,-6.0,1650914539134052.0,1
207,-2.0,-7.0,9.0,7.0,21.0,25.0,6.0,2.0,1650914539134052.0,1
208,-1.0,2.0,-9.0,0.0,18.0,13.0,7.0,1.0,1650914539134052.0,1
209,6.0,9.0,-3.0,4.0,1.0,9.0,3.0,8.0,1650914539134052.0,1
210,8.0,-1.0,29.0,3.0,1.0,-6.0,2.0,8.0,1650914539164104.0,1
211,-13.0,-20.0,-37.0,0.0,-7.0,-12.0,-8.0,-17.0,1650914539164104.0,1
212,-3.0,-1.0,-20.0,-15.0,-15.0,-3.0,-1.0,4.0,1650914539164104.0,1
213,9.0,-10.0,-6.0,0.0,-3.0,-8.0,4.0,28.0,1650914539164104.0,1
214,-7.0,4.0,7.0,-12.0,17.0,7.0,-9.0,-38.0,1650914539171248.0,1
215,7.0,9.0,11.0,13.0,21.0,16.0,9.0,17.0,1650914539171248.0,1
216,-1.0,3.0,22.0,8.0,2.0,-1.0,4.0,1.0,1650914539171248.0,1
217,0.0,-3.0,-9.0,-5.0,-17.0,-17.0,-3.0,-1.0,1650914539171248.0,1
218,6.0,-2.0,1.0,-1.0,-21.0,-20.0,-2.0,8.0,1650914539194177.0,1
219,-3.0,-4.0,8.0,-2.0,6.0,17.0,-4.0,-11.0,1650914539194177.0,1
220,-1.0,11.0,9.0,7.0,5.0,20.0,0.0,-7.0,1650914539194177.0,1
221,11.0,11.0,10.0,11.0,25.0,26.0,12.0,7.0,1650914539194177.0,1
222,-6.0,-13.0,-37.0,2.0,32.0,16.0,6.0,13.0,1650914539216340.0,1
223,-8.0,9.0,10.0,-6.0,-22.0,-25.0,-7.0,-19.0,1650914539216340.0,1
224,-14.0,-2.0,5.0,1.0,-25.0,-30.0,-9.0,-11.0,1650914539216340.0,1
225,1.0,-2.0,1.0,-20.0,-18.0,-17.0,-3.0,14.0,1650914539216340.0,1
226,7.0,4.0,4.0,3.0,-8.0,-21.0,-3.0,-11.0,1650914539230661.0,1
227,-12.0,0.0,-7.0,-2.0,1.0,14.0,1.0,7.0,1650914539230661.0,1
228,11.0,9.0,14.0,2.0,13.0,22.0,11.0,8.0,1650914539231497.0,1
229,-9.0,-6.0,-6.0,8.0,11.0,8.0,0.0,-9.0,1650914539231497.0,1
230,-5.0,-1.0,-2.0,0.0,10.0,14.0,8.0,21.0,1650914539263078.0,1
231,9.0,4.0,-4.0,-1.0,-7.0,-6.0,-2.0,-9.0,1650914539263078.0,1
232,1.0,-1.0,8.0,2.0,-2.0,-17.0,-9.0,-9.0,1650914539263078.0,1
233,4.0,4.0,-1.0,-1.0,-8.0,-13.0,-3.0,10.0,1650914539263078.0,1
234,-8.0,-5.0,15.0,-6.0,-3.0,5.0,-2.0,-12.0,1650914539276446.0,1
235,2.0,-2.0,-43.0,-9.0,-11.0,-5.0,0.0,9.0,1650914539276446.0,1
236,1.0,-6.0,-11.0,-1.0,0.0,2.0,2.0,-1.0,1650914539277296.0,1
237,-9.0,-6.0,3.0,-2.0,-5.0,-4.0,-7.0,-9.0,1650914539277296.0,1
238,1.0,4.0,-1.0,5.0,-3.0,-9.0,0.0,1.0,1650914539298808.0,1
239,-3.0,1.0,22.0,12.0,3.0,12.0,4.0,10.0,1650914539298808.0,1
240,5.0,8.0,-2.0,-8.0,11.0,17.0,3.0,5.0,1650914539298808.0,1
241,-6.0,-8.0,-6.0,-4.0,-10.0,-10.0,-4.0,-10.0,1650914539298808.0,1
242,10.0,16.0,18.0,-2.0,5.0,3.0,1.0,-5.0,1650914539314088.0,1
243,-3.0,-16.0,-23.0,0.0,3.0,-14.0,-4.0,3.0,1650914539314088.0,1
244,-9.0,-9.0,-9.0,-8.0,-26.0,-36.0,-8.0,-6.0,1650914539314088.0,1
245,6.0,6.0,10.0,7.0,2.0,34.0,4.0,18.0,1650914539314088.0,1
246,-11.0,-8.0,-9.0,5.0,23.0,27.0,8.0,-8.0,1650914539337372.0,1
247,11.0,-7.0,-22.0,-6.0,-4.0,-6.0,-2.0,-23.0,1650914539337372.0,1
248,-15.0,-12.0,-11.0,-5.0,-9.0,-16.0,-9.0,-2.0,1650914539337372.0,1
249,3.0,5.0,-18.0,-7.0,1.0,-17.0,-6.0,-6.0,1650914539337372.0,1
250,3.0,-4.0,10.0,-3.0,-14.0,-11.0,0.0,15.0,1650914539351175.0,1
251,0.0,0.0,19.0,11.0,13.0,15.0,6.0,9.0,1650914539351175.0,1
252,-4.0,12.0,15.0,5.0,2.0,13.0,-1.0,-6.0,1650914539351175.0,1
253,-5.0,1.0,3.0,1.0,2.0,11.0,4.0,0.0,1650914539351175.0,1
254,7.0,-15.0,-38.0,-9.0,8.0,3.0,-6.0,-5.0,1650914539374322.0,1
255,4.0,17.0,22.0,0.0,-8.0,-10.0,1.0,2.0,1650914539374322.0,1
256,6.0,-7.0,-1.0,-3.0,-12.0,-29.0,-6.0,1.0,1650914539374322.0,1
257,4.0,7.0,11.0,9.0,6.0,-6.0,2.0,7.0,1650914539374322.0,1
258,-12.0,-11.0,-15.0,-13.0,0.0,29.0,2.0,7.0,1650914539396651.0,1
259,5.0,-3.0,17.0,11.0,15.0,14.0,6.0,13.0,1650914539396651.0,1
260,-2.0,-3.0,-17.0,-3.0,-3.0,1.0,-3.0,-21.0,1650914539396651.0,1
261,-1.0,7.0,18.0,5.0,-1.0,-8.0,2.0,5.0,1650914539396651.0,1
262,-8.0,-2.0,-29.0,-7.0,-11.0,-24.0,-8.0,-7.0,1650914539410972.0,1
263,2.0,3.0,-2.0,-9.0,-9.0,7.0,-3.0,10.0,1650914539410972.0,1
264,-6.0,-2.0,3.0,3.0,13.0,10.0,6.0,3.0,1650914539419090.0,1
265,2.0,-5.0,-8.0,-3.0,-13.0,-23.0,0.0,3.0,1650914539419090.0,1
266,5.0,6.0,2.0,4.0,18.0,13.0,-1.0,-20.0,1650914539433044.0,1
267,6.0,8.0,-6.0,-1.0,7.0,14.0,4.0,12.0,1650914539433044.0,1
268,-17.0,-2.0,5.0,1.0,2.0,9.0,3.0,5.0,1650914539434020.0,1
269,-10.0,-8.0,-3.0,-5.0,-7.0,-11.0,-10.0,-21.0,1650914539434020.0,1
270,1.0,5.0,5.0,0.0,-24.0,-21.0,-4.0,7.0,1650914539456484.0,1
271,-6.0,7.0,11.0,-6.0,-18.0,-19.0,-4.0,-1.0,1650914539456484.0,1
272,15.0,-4.0,5.0,8.0,18.0,18.0,5.0,-1.0,1650914539456484.0,1
273,2.0,0.0,4.0,1.0,18.0,19.0,3.0,9.0,1650914539456484.0,1
274,2.0,2.0,14.0,5.0,7.0,4.0,5.0,-1.0,1650914539470122.0,1
275,-3.0,-16.0,-50.0,-16.0,-12.0,-5.0,-7.0,-11.0,1650914539470122.0,1
276,7.0,-8.0,-20.0,-7.0,-4.0,7.0,2.0,20.0,1650914539478624.0,1
277,-11.0,-3.0,0.0,4.0,7.0,-2.0,-3.0,-20.0,1650914539478624.0,1
278,4.0,2.0,11.0,6.0,0.0,-13.0,1.0,7.0,1650914539494065.0,1
279,-2.0,3.0,20.0,-2.0,0.0,5.0,-2.0,-9.0,1650914539494065.0,1
280,0.0,4.0,4.0,6.0,-7.0,-12.0,-5.0,-4.0,1650914539494065.0,1
281,-7.0,-5.0,-27.0,-10.0,1.0,11.0,7.0,14.0,1650914539494065.0,1
282,7.0,-4.0,-12.0,-3.0,-5.0,-6.0,-5.0,-6.0,1650914539516984.0,1
283,-1.0,10.0,34.0,8.0,3.0,2.0,6.0,11.0,1650914539516984.0,1
284,-10.0,-6.0,-7.0,-10.0,1.0,-3.0,-6.0,-21.0,1650914539516984.0,1
285,18.0,-2.0,2.0,-2.0,-17.0,-18.0,2.0,29.0,1650914539516984.0,1
286,-20.0,2.0,4.0,3.0,2.0,-15.0,-12.0,-36.0,1650914539530019.0,1
287,-1.0,-10.0,-2.0,0.0,4.0,21.0,-3.0,-19.0,1650914539530019.0,1
288,11.0,17.0,24.0,7.0,12.0,18.0,10.0,27.0,1650914539539077.0,1
289,6.0,-14.0,-37.0,-5.0,-4.0,-12.0,1.0,-13.0,1650914539539077.0,1
290,-7.0,-2.0,2.0,-2.0,-18.0,-14.0,0.0,8.0,1650914539554083.0,1
291,11.0,4.0,5.0,3.0,-9.0,-13.0,-1.0,-3.0,1650914539554083.0,1
292,2.0,-1.0,1.0,-2.0,17.0,3.0,-3.0,5.0,1650914539554083.0,1
293,-10.0,-18.0,-28.0,-1.0,6.0,13.0,-2.0,-2.0,1650914539554083.0,1
294,7.0,1.0,4.0,-2.0,10.0,25.0,6.0,13.0,1650914539576553.0,1
295,-9.0,0.0,-10.0,1.0,3.0,-4.0,5.0,18.0,1650914539576553.0,1
296,11.0,8.0,20.0,7.0,-16.0,-23.0,-1.0,-1.0,1650914539576553.0,1
297,-4.0,4.0,27.0,5.0,-1.0,-9.0,-4.0,-10.0,1650914539576553.0,1
298,0.0,7.0,-3.0,-7.0,-5.0,7.0,-3.0,-3.0,1650914539589935.0,1
299,-4.0,-7.0,-6.0,-8.0,-11.0,-7.0,3.0,12.0,1650914539589935.0,1
300,-8.0,-6.0,-5.0,5.0,9.0,8.0,3.0,2.0,1650914539606026.0,1
301,8.0,6.0,23.0,4.0,6.0,12.0,3.0,2.0,1650914539606026.0,1
302,7.0,5.0,1.0,4.0,-4.0,-6.0,2.0,7.0,1650914539614077.0,1
303,-15.0,-5.0,-1.0,-3.0,2.0,-11.0,-9.0,-31.0,1650914539614077.0,1
304,0.0,-12.0,-11.0,-9.0,-13.0,-10.0,-2.0,0.0,1650914539615425.0,1
305,5.0,2.0,-21.0,2.0,7.0,14.0,-1.0,-4.0,1650914539615425.0,1
306,-3.0,0.0,7.0,-4.0,1.0,-1.0,2.0,2.0,1650914539635607.0,1
307,2.0,8.0,21.0,9.0,0.0,9.0,3.0,21.0,1650914539635607.0,1
308,25.0,0.0,-14.0,0.0,16.0,10.0,10.0,2.0,1650914539637558.0,1
309,13.0,18.0,22.0,5.0,11.0,18.0,2.0,-20.0,1650914539637558.0,1
310,-26.0,1.0,2.0,-7.0,-9.0,-4.0,-4.0,0.0,1650914539658918.0,1
311,-3.0,-12.0,-34.0,-3.0,-2.0,-19.0,-7.0,-4.0,1650914539658918.0,1
312,-5.0,-5.0,-32.0,-19.0,-23.0,-16.0,-5.0,-2.0,1650914539659884.0,1
313,5.0,4.0,12.0,-3.0,-9.0,-13.0,0.0,3.0,1650914539659884.0,1
314,5.0,-5.0,-17.0,1.0,0.0,-4.0,-2.0,3.0,1650914539673847.0,1
315,-1.0,4.0,22.0,2.0,5.0,4.0,0.0,-15.0,1650914539673847.0,1
316,-9.0,0.0,-3.0,1.0,-4.0,7.0,1.0,0.0,1650914539674866.0,1
317,-11.0,0.0,-9.0,-2.0,4.0,3.0,0.0,-15.0,1650914539674866.0,1
318,2.0,-19.0,-27.0,-3.0,-13.0,-5.0,3.0,15.0,1650914539696921.0,1
319,0.0,4.0,14.0,6.0,15.0,8.0,3.0,7.0,1650914539696921.0,1
320,-4.0,-3.0,1.0,7.0,7.0,-4.0,-5.0,-9.0,1650914539697850.0,1
321,-7.0,2.0,10.0,-1.0,-8.0,-1.0,-4.0,1.0,1650914539697850.0,1
322,7.0,2.0,20.0,9.0,6.0,6.0,5.0,4.0,1650914539710015.0,1
323,8.0,-10.0,-31.0,-2.0,6.0,2.0,-2.0,-20.0,1650914539710015.0,1
324,-6.0,24.0,32.0,1.0,-9.0,-10.0,-6.0,-21.0,1650914539718994.0,1
325,-9.0,-8.0,6.0,-1.0,-11.0,-14.0,-9.0,-5.0,1650914539718994.0,1
326,1.0,1.0,-15.0,-8.0,-8.0,-3.0,-3.0,2.0,1650914539734419.0,1
327,3.0,5.0,18.0,4.0,13.0,-14.0,2.0,14.0,1650914539734419.0,1
328,3.0,8.0,11.0,9.0,10.0,37.0,13.0,3.0,1650914539734709.0,1
329,-12.0,-3.0,0.0,5.0,12.0,23.0,10.0,3.0,1650914539734709.0,1
330,-1.0,-21.0,-30.0,-8.0,2.0,-7.0,-2.0,1.0,1650914539756057.0,1
331,4.0,16.0,9.0,-1.0,-3.0,0.0,-1.0,0.0,1650914539756057.0,1
332,1.0,-4.0,2.0,-3.0,-14.0,-21.0,-9.0,2.0,1650914539758088.0,1
333,4.0,-2.0,14.0,-3.0,-11.0,-16.0,-1.0,7.0,1650914539758088.0,1
334,2.0,-1.0,4.0,-2.0,-8.0,5.0,0.0,-1.0,1650914539778568.0,1
335,-7.0,5.0,3.0,3.0,11.0,5.0,4.0,6.0,1650914539778568.0,1
336,25.0,5.0,1.0,1.0,8.0,-1.0,-2.0,-12.0,1650914539780432.0,1
337,-38.0,-2.0,-9.0,-1.0,-7.0,-4.0,-5.0,-4.0,1650914539780432.0,1
338,2.0,5.0,9.0,2.0,0.0,4.0,3.0,0.0,1650914539794588.0,1
339,-22.0,-11.0,-17.0,-10.0,-10.0,-1.0,-7.0,-28.0,1650914539794588.0,1
340,-1.0,-1.0,0.0,2.0,-2.0,-9.0,2.0,17.0,1650914539795620.0,1
341,2.0,-5.0,-9.0,-3.0,11.0,9.0,1.0,-11.0,1650914539795620.0,1
342,2.0,19.0,29.0,6.0,-8.0,-10.0,-8.0,-17.0,1650914539817208.0,1
343,-1.0,-5.0,12.0,3.0,4.0,14.0,4.0,6.0,1650914539817208.0,1
344,-3.0,1.0,4.0,1.0,-2.0,0.0,2.0,7.0,1650914539818083.0,1
345,4.0,-12.0,-45.0,-17.0,-13.0,-18.0,-7.0,-1.0,1650914539818083.0,1
346,-10.0,-4.0,3.0,2.0,-4.0,-19.0,-2.0,2.0,1650914539839233.0,1
347,13.0,-7.0,-2.0,-7.0,-13.0,6.0,0.0,7.0,1650914539839233.0,1
348,-10.0,4.0,-1.0,3.0,15.0,26.0,5.0,-6.0,1650914539839708.0,1
349,11.0,8.0,7.0,6.0,22.0,29.0,10.0,14.0,1650914539839708.0,1
350,4.0,3.0,-6.0,1.0,1.0,-3.0,-2.0,-9.0,1650914539853673.0,1
351,4.0,3.0,5.0,-3.0,-12.0,-18.0,-6.0,13.0,1650914539853673.0,1
352,-8.0,-13.0,-27.0,-9.0,-26.0,-29.0,-8.0,3.0,1650914539854697.0,1
353,3.0,6.0,19.0,-1.0,-4.0,-15.0,-2.0,-8.0,1650914539854697.0,1
354,-2.0,-5.0,2.0,6.0,4.0,11.0,6.0,2.0,1650914539876148.0,1
355,-2.0,-4.0,-7.0,10.0,34.0,28.0,5.0,1.0,1650914539876148.0,1
356,1.0,5.0,9.0,2.0,3.0,10.0,4.0,13.0,1650914539878014.0,1
357,-3.0,-12.0,-15.0,-10.0,-17.0,-8.0,-4.0,3.0,1650914539878014.0,1
358,6.0,1.0,3.0,-1.0,-9.0,-11.0,-3.0,12.0,1650914539898490.0,1
359,-5.0,1.0,9.0,-2.0,-7.0,-21.0,-7.0,-20.0,1650914539898490.0,1
360,-2.0,4.0,4.0,-5.0,-2.0,4.0,-4.0,-5.0,1650914539900501.0,1
361,-1.0,-14.0,-18.0,-4.0,-6.0,-15.0,-2.0,-4.0,1650914539900501.0,1
362,0.0,11.0,24.0,5.0,-6.0,-2.0,1.0,-1.0,1650914539914044.0,1
363,2.0,3.0,15.0,3.0,17.0,29.0,7.0,6.0,1650914539914044.0,1
364,-7.0,-9.0,-2.0,1.0,8.0,1.0,-3.0,-5.0,1650914539919614.0,1
365,4.0,9.0,12.0,-1.0,-21.0,-7.0,2.0,2.0,1650914539919614.0,1
366,-3.0,-5.0,-14.0,1.0,25.0,8.0,0.0,-3.0,1650914539935959.0,1
367,4.0,6.0,14.0,0.0,-10.0,8.0,3.0,3.0,1650914539935959.0,1
368,-7.0,-8.0,-7.0,2.0,9.0,14.0,-1.0,-11.0,1650914539937922.0,1
369,4.0,12.0,15.0,4.0,-1.0,-11.0,-3.0,3.0,1650914539937922.0,1
370,-1.0,-1.0,3.0,0.0,-6.0,-11.0,-1.0,-2.0,1650914539966095.0,1
371,-1.0,-7.0,-13.0,-5.0,-7.0,-11.0,-2.0,1.0,1650914539966095.0,1
372,0.0,-4.0,-7.0,-7.0,-3.0,-7.0,-2.0,1.0,1650914539973293.0,1
373,-2.0,-5.0,-6.0,-1.0,-2.0,-5.0,-2.0,-2.0,1650914539973293.0,1
374,-2.0,-3.0,-9.0,-6.0,-13.0,-12.0,-9.0,-6.0,1650914539974293.0,1
375,0.0,-2.0,-2.0,-6.0,-13.0,-32.0,-4.0,0.0,1650914539974293.0,1
376,-2.0,-3.0,-1.0,7.0,24.0,55.0,6.0,-1.0,1650914539979311.0,1
377,10.0,10.0,20.0,8.0,12.0,21.0,6.0,7.0,1650914539979311.0,1
378,0.0,-2.0,-4.0,3.0,20.0,8.0,3.0,-1.0,1650914539996664.0,1
379,-1.0,-2.0,-9.0,-3.0,-16.0,5.0,-2.0,4.0,1650914539996664.0,1
380,-3.0,-3.0,-3.0,-8.0,-28.0,-40.0,-6.0,-4.0,1650914539997664.0,1
381,1.0,-3.0,0.0,1.0,10.0,14.0,0.0,1.0,1650914539997664.0,1
382,-3.0,-4.0,-6.0,-4.0,-17.0,-14.0,4.0,1.0,1650914540018849.0,1
383,4.0,1.0,-1.0,5.0,26.0,14.0,3.0,8.0,1650914540018849.0,1
384,-3.0,-6.0,-9.0,-4.0,3.0,0.0,-2.0,-3.0,1650914540019849.0,1
385,-1.0,4.0,5.0,1.0,-15.0,-16.0,-6.0,-9.0,1650914540019849.0,1
386,-1.0,-1.0,-3.0,-1.0,-2.0,3.0,0.0,1.0,1650914540033686.0,1
387,-2.0,-2.0,-4.0,-2.0,-4.0,-11.0,-2.0,-1.0,1650914540033686.0,1
388,1.0,1.0,2.0,-1.0,-3.0,4.0,2.0,8.0,1650914540039967.0,1
389,-3.0,-1.0,0.0,-2.0,1.0,-8.0,-3.0,-6.0,1650914540039967.0,1
390,-2.0,-2.0,-2.0,-3.0,-3.0,-1.0,-5.0,-4.0,1650914540057433.0,1
391,3.0,0.0,-5.0,-3.0,-3.0,5.0,0.0,0.0,1650914540057433.0,1
392,1.0,0.0,-1.0,2.0,2.0,-6.0,3.0,2.0,1650914540058306.0,1
393,0.0,0.0,-2.0,0.0,5.0,6.0,-5.0,-1.0,1650914540058306.0,1
394,1.0,0.0,3.0,5.0,14.0,37.0,8.0,3.0,1650914540086728.0,1
395,-2.0,2.0,1.0,2.0,-5.0,-7.0,3.0,-2.0,1650914540086728.0,1
396,0.0,-1.0,1.0,-1.0,-1.0,-18.0,-5.0,-3.0,1650914540087760.0,1
397,-3.0,-3.0,-6.0,-4.0,-1.0,-7.0,0.0,-2.0,1650914540087760.0,1
398,-2.0,-2.0,4.0,-1.0,-3.0,3.0,-6.0,-4.0,1650914540092725.0,1
399,-1.0,-1.0,0.0,1.0,2.0,3.0,1.0,0.0,1650914540092725.0,1
400,-1.0,-2.0,1.0,-1.0,-5.0,-12.0,0.0,-3.0,1650914540099696.0,1
401,-1.0,-1.0,1.0,-3.0,-19.0,-15.0,-4.0,2.0,1650914540099696.0,1
402,-1.0,-2.0,-8.0,-2.0,11.0,4.0,-1.0,0.0,1650914540116809.0,1
403,0.0,-1.0,-3.0,0.0,-8.0,-3.0,-2.0,-5.0,1650914540116809.0,1
404,1.0,-1.0,3.0,0.0,4.0,3.0,1.0,1.0,1650914540117648.0,1
405,2.0,0.0,0.0,5.0,13.0,17.0,4.0,1.0,1650914540117648.0,1
406,-2.0,-2.0,-3.0,0.0,-4.0,6.0,5.0,0.0,1650914540138171.0,1
407,0.0,0.0,3.0,1.0,1.0,-5.0,0.0,-1.0,1650914540138171.0,1
408,-3.0,0.0,-3.0,-1.0,-5.0,-14.0,-2.0,-2.0,1650914540140134.0,1
409,0.0,0.0,0.0,-1.0,2.0,10.0,-2.0,2.0,1650914540140134.0,1
410,-1.0,-3.0,-2.0,0.0,-5.0,-6.0,-8.0,-2.0,1650914540153332.0,1
411,0.0,1.0,-1.0,-1.0,3.0,13.0,22.0,4.0,1650914540153332.0,1
412,-1.0,-2.0,-3.0,-3.0,-20.0,-32.0,-7.0,-4.0,1650914540160474.0,1
413,-2.0,1.0,1.0,-1.0,9.0,18.0,5.0,0.0,1650914540160474.0,1
414,2.0,0.0,0.0,3.0,18.0,30.0,-3.0,1.0,1650914540176889.0,1
415,1.0,1.0,-2.0,2.0,5.0,1.0,-5.0,0.0,1650914540176889.0,1
416,1.0,2.0,7.0,5.0,-3.0,-4.0,5.0,0.0,1650914540183863.0,1
417,-3.0,-2.0,0.0,-5.0,-15.0,-23.0,-6.0,-3.0,1650914540183863.0,1
418,-2.0,-2.0,-8.0,-6.0,-14.0,-19.0,-6.0,-3.0,1650914540199093.0,1
419,-1.0,-1.0,-5.0,-12.0,-11.0,-10.0,-5.0,-1.0,1650914540199093.0,1
420,-1.0,-1.0,12.0,15.0,12.0,9.0,2.0,0.0,1650914540200051.0,1
421,-2.0,-2.0,-5.0,-6.0,-7.0,-18.0,-3.0,-3.0,1650914540200051.0,1
422,0.0,0.0,-2.0,-1.0,8.0,22.0,6.0,1.0,1650914540214033.0,1
423,1.0,-1.0,-4.0,3.0,11.0,22.0,3.0,1.0,1650914540214033.0,1
424,1.0,3.0,1.0,0.0,11.0,14.0,7.0,2.0,1650914540220487.0,1
425,0.0,-2.0,1.0,1.0,-20.0,-24.0,-6.0,-2.0,1650914540220487.0,1
426,-1.0,-1.0,-4.0,-5.0,-9.0,-24.0,-2.0,1.0,1650914540237707.0,1
427,-1.0,-1.0,-2.0,-2.0,-16.0,-15.0,-8.0,-5.0,1650914540237707.0,1
428,0.0,1.0,-4.0,-2.0,25.0,35.0,4.0,0.0,1650914540242857.0,1
429,4.0,2.0,6.0,11.0,24.0,39.0,12.0,6.0,1650914540242857.0,1
430,-1.0,0.0,4.0,0.0,-7.0,-17.0,3.0,0.0,1650914540258817.0,1
431,-2.0,-2.0,2.0,0.0,-20.0,-28.0,-10.0,-3.0,1650914540258817.0,1
432,-3.0,-3.0,-8.0,-10.0,-19.0,-20.0,-9.0,-4.0,1650914540259680.0,1
433,-2.0,0.0,-8.0,-4.0,2.0,7.0,2.0,1.0,1650914540259680.0,1
434,-1.0,-2.0,1.0,2.0,9.0,-6.0,-4.0,-2.0,1650914540281054.0,1
435,0.0,0.0,1.0,0.0,4.0,17.0,-2.0,0.0,1650914540281054.0,1
436,-1.0,0.0,-1.0,-2.0,-6.0,0.0,-3.0,-2.0,1650914540283041.0,1
437,2.0,2.0,-3.0,-2.0,3.0,0.0,9.0,2.0,1650914540283041.0,1
438,0.0,1.0,3.0,4.0,-4.0,-5.0,1.0,1.0,1650914540296048.0,1
439,-2.0,0.0,5.0,4.0,7.0,-6.0,-2.0,0.0,1650914540296048.0,1
440,0.0,-2.0,-5.0,-6.0,2.0,5.0,-3.0,1.0,1650914540297880.0,1
441,0.0,0.0,2.0,1.0,6.0,7.0,-2.0,-1.0,1650914540297880.0,1
442,0.0,-1.0,-5.0,1.0,0.0,-8.0,0.0,-2.0,1650914540326210.0,1
443,-1.0,-2.0,-1.0,-7.0,-9.0,-5.0,-1.0,-1.0,1650914540326210.0,1
444,-1.0,0.0,7.0,7.0,-5.0,6.0,0.0,1.0,1650914540328043.0,1
445,-3.0,-2.0,-2.0,1.0,7.0,-2.0,-2.0,-2.0,1650914540328043.0,1
446,0.0,0.0,-1.0,-4.0,-8.0,-4.0,-11.0,-3.0,1650914540332033.0,1
447,0.0,-1.0,-2.0,-5.0,-10.0,-15.0,4.0,-1.0,1650914540332033.0,1
448,1.0,1.0,-3.0,0.0,18.0,13.0,3.0,0.0,1650914540341917.0,1
449,1.0,0.0,5.0,6.0,4.0,12.0,2.0,2.0,1650914540341917.0,1
450,-2.0,-2.0,-2.0,-3.0,0.0,4.0,4.0,0.0,1650914540356262.0,1
451,-1.0,-1.0,0.0,0.0,-13.0,-10.0,-16.0,-4.0,1650914540356262.0,1
452,1.0,0.0,-2.0,-6.0,-13.0,-15.0,4.0,-2.0,1650914540357259.0,1
453,-2.0,1.0,0.0,-2.0,4.0,1.0,3.0,0.0,1650914540357259.0,1
454,0.0,0.0,-1.0,2.0,10.0,20.0,0.0,1.0,1650914540379790.0,1
455,-2.0,-2.0,7.0,8.0,8.0,7.0,1.0,-3.0,1650914540379790.0,1
456,0.0,-3.0,1.0,0.0,-6.0,-25.0,-9.0,-4.0,1650914540380924.0,1
457,-2.0,-2.0,-13.0,-11.0,-7.0,13.0,-3.0,-1.0,1650914540380924.0,1
458,0.0,3.0,4.0,1.0,11.0,19.0,12.0,3.0,1650914540393018.0,1
459,2.0,0.0,-2.0,2.0,14.0,12.0,8.0,5.0,1650914540393018.0,1
460,-1.0,0.0,1.0,0.0,-14.0,-19.0,-4.0,-2.0,1650914540409491.0,1
461,-2.0,-2.0,-7.0,-10.0,-18.0,-29.0,-8.0,-3.0,1650914540409491.0,1
462,-2.0,-2.0,0.0,1.0,-2.0,-8.0,-5.0,-4.0,1650914540416553.0,1
463,-1.0,-1.0,-3.0,1.0,3.0,8.0,3.0,0.0,1650914540416553.0,1
464,-1.0,-4.0,-4.0,-3.0,-1.0,7.0,-1.0,0.0,1650914540417392.0,1
465,1.0,2.0,6.0,4.0,3.0,-5.0,-4.0,-3.0,1650914540417392.0,1
466,-1.0,-1.0,2.0,-1.0,-3.0,-3.0,2.0,-1.0,1650914540438156.0,1
467,-2.0,1.0,-2.0,1.0,5.0,2.0,-7.0,-2.0,1650914540438156.0,1
468,-1.0,-1.0,-5.0,-8.0,-14.0,-15.0,7.0,3.0,1650914540446245.0,1
469,0.0,-1.0,-1.0,1.0,6.0,5.0,-1.0,-1.0,1650914540446245.0,1
470,-3.0,-2.0,10.0,5.0,4.0,15.0,4.0,0.0,1650914540453309.0,1
471,2.0,4.0,4.0,4.0,10.0,16.0,11.0,3.0,1650914540453309.0,1
472,0.0,2.0,-4.0,-2.0,0.0,2.0,-3.0,0.0,1650914540461096.0,1
473,-1.0,-1.0,1.0,0.0,-16.0,-26.0,-7.0,-2.0,1650914540461096.0,1
474,-1.0,-1.0,-2.0,1.0,-9.0,-15.0,-2.0,-3.0,1650914540476218.0,1
475,-2.0,-2.0,-1.0,0.0,6.0,9.0,-4.0,-2.0,1650914540476218.0,1
476,1.0,0.0,-5.0,3.0,16.0,15.0,-6.0,-2.0,1650914540477218.0,1
477,3.0,1.0,8.0,7.0,-1.0,2.0,9.0,2.0,1650914540477218.0,1
478,-2.0,-1.0,-4.0,-7.0,-10.0,-15.0,-4.0,-2.0,1650914540498975.0,1
479,-3.0,-4.0,-16.0,-19.0,-26.0,-38.0,-5.0,-4.0,1650914540498975.0,1
480,-2.0,0.0,-2.0,-3.0,-15.0,15.0,-2.0,-2.0,1650914540499855.0,1
481,1.0,-2.0,8.0,9.0,30.0,11.0,10.0,2.0,1650914540499855.0,1
482,3.0,3.0,6.0,13.0,20.0,33.0,6.0,5.0,1650914540513234.0,1
483,1.0,2.0,2.0,5.0,7.0,9.0,4.0,0.0,1650914540513234.0,1
484,-1.0,-1.0,1.0,-1.0,-5.0,-11.0,0.0,-1.0,1650914540521735.0,1
485,-3.0,0.0,-2.0,-3.0,-20.0,-10.0,-2.0,0.0,1650914540521735.0,1
486,-2.0,-3.0,-8.0,-9.0,-12.0,-18.0,-5.0,-4.0,1650914540536210.0,1
487,-1.0,-4.0,0.0,-3.0,3.0,-7.0,-14.0,-3.0,1650914540536210.0,1
488,-1.0,-1.0,4.0,4.0,3.0,1.0,13.0,2.0,1650914540537233.0,1
489,0.0,-1.0,-9.0,-3.0,0.0,6.0,-4.0,-1.0,1650914540537233.0,1
490,-1.0,-4.0,-14.0,-14.0,5.0,7.0,1.0,0.0,1650914540559475.0,1
491,2.0,0.0,-1.0,1.0,1.0,10.0,0.0,2.0,1650914540559475.0,1
492,-1.0,1.0,11.0,4.0,5.0,1.0,1.0,1.0,1650914540559681.0,1
493,-1.0,-1.0,5.0,5.0,-8.0,-6.0,-2.0,0.0,1650914540559681.0,1
494,1.0,-2.0,1.0,0.0,0.0,-1.0,-1.0,0.0,1650914540571789.0,1
495,-3.0,-2.0,-15.0,-15.0,-6.0,-11.0,-4.0,-3.0,1650914540571789.0,1
496,0.0,-1.0,2.0,4.0,3.0,6.0,2.0,0.0,1650914540580825.0,1
497,-1.0,0.0,3.0,3.0,-1.0,0.0,-2.0,0.0,1650914540580825.0,1
498,0.0,1.0,4.0,1.0,-5.0,-2.0,-3.0,-2.0,1650914540596447.0,1
499,0.0,-2.0,-11.0,-8.0,4.0,5.0,5.0,-1.0,1650914540596447.0,1
500,0.0,0.0,7.0,9.0,-3.0,-17.0,-4.0,-1.0,1650914540597309.0,1
501,-2.0,-5.0,-21.0,-24.0,-13.0,-35.0,-8.0,-6.0,1650914540597309.0,1
502,-2.0,-3.0,7.0,7.0,23.0,51.0,4.0,-1.0,1650914540618702.0,1
503,3.0,4.0,11.0,11.0,13.0,24.0,8.0,3.0,1650914540618702.0,1
504,-2.0,1.0,-8.0,-7.0,-1.0,0.0,2.0,1.0,1650914540626376.0,1
505,2.0,0.0,5.0,5.0,-11.0,-15.0,-8.0,-1.0,1650914540626376.0,1
506,-2.0,-1.0,-5.0,-6.0,-23.0,-34.0,-4.0,-3.0,1650914540631681.0,1
507,-2.0,0.0,2.0,0.0,-6.0,-5.0,3.0,-1.0,1650914540631681.0,1
508,-3.0,-1.0,-1.0,2.0,17.0,27.0,1.0,0.0,1650914540641791.0,1
509,0.0,1.0,4.0,5.0,17.0,11.0,3.0,2.0,1650914540641791.0,1
510,1.0,1.0,-3.0,1.0,-8.0,-10.0,-1.0,0.0,1650914540656755.0,1
511,-1.0,0.0,4.0,0.0,-8.0,4.0,-3.0,-1.0,1650914540656755.0,1
512,2.0,-1.0,-1.0,-3.0,-8.0,-17.0,-2.0,0.0,1650914540657874.0,1
513,-1.0,0.0,1.0,2.0,7.0,14.0,4.0,-1.0,1650914540657874.0,1
514,0.0,1.0,-2.0,-2.0,5.0,3.0,-1.0,0.0,1650914540686167.0,1
515,1.0,1.0,7.0,5.0,-1.0,-4.0,1.0,-1.0,1650914540686167.0,1
516,-2.0,-2.0,-11.0,-8.0,-9.0,-11.0,-7.0,0.0,1650914540688164.0,1
517,0.0,-4.0,-11.0,-12.0,3.0,8.0,-2.0,-3.0,1650914540688164.0,1
518,-3.0,2.0,6.0,7.0,1.0,-11.0,1.0,1.0,1650914540692186.0,1
519,-1.0,-1.0,-1.0,-5.0,-3.0,2.0,-1.0,-1.0,1650914540692186.0,1
520,0.0,0.0,2.0,2.0,-5.0,4.0,1.0,-2.0,1650914540701155.0,1
521,-1.0,-1.0,-1.0,1.0,1.0,4.0,1.0,-2.0,1650914540701155.0,1
522,1.0,-1.0,2.0,1.0,0.0,0.0,-2.0,-1.0,1650914540724118.0,1
523,-2.0,0.0,3.0,3.0,1.0,-4.0,4.0,-2.0,1650914540724118.0,1
524,-2.0,-4.0,-9.0,-10.0,-21.0,-46.0,-7.0,-4.0,1650914540724962.0,1
525,-1.0,-2.0,1.0,-3.0,-5.0,20.0,-4.0,-2.0,1650914540724962.0,1
526,1.0,0.0,-4.0,-2.0,11.0,20.0,-1.0,1.0,1650914540738961.0,1
527,1.0,1.0,5.0,8.0,17.0,16.0,7.0,1.0,1650914540738961.0,1
528,1.0,3.0,4.0,2.0,1.0,0.0,0.0,0.0,1650914540739827.0,1
529,-1.0,2.0,-3.0,-3.0,-6.0,-26.0,-5.0,-2.0,1650914540739827.0,1
530,-4.0,-3.0,-8.0,-13.0,-23.0,-21.0,-7.0,-2.0,1650914540761509.0,1
531,-1.0,-1.0,1.0,0.0,-4.0,-5.0,-4.0,0.0,1650914540761509.0,1
532,1.0,-2.0,-2.0,2.0,17.0,19.0,5.0,2.0,1650914540762509.0,1
533,2.0,3.0,5.0,7.0,4.0,12.0,8.0,4.0,1650914540762509.0,1
534,-1.0,-1.0,3.0,3.0,4.0,5.0,-2.0,-2.0,1650914540776141.0,1
535,-1.0,-2.0,-4.0,-4.0,-13.0,-13.0,3.0,-1.0,1650914540776141.0,1
536,0.0,-3.0,-4.0,-6.0,-7.0,-6.0,-2.0,-1.0,1650914540778034.0,1
537,-3.0,1.0,3.0,2.0,4.0,1.0,-2.0,-1.0,1650914540778034.0,1
538,0.0,2.0,0.0,-1.0,0.0,1.0,1.0,0.0,1650914540798779.0,1
539,1.0,-1.0,-3.0,-2.0,-9.0,-20.0,-4.0,-3.0,1650914540798779.0,1
540,0.0,0.0,8.0,8.0,-2.0,15.0,-4.0,-4.0,1650914540806681.0,1
541,-1.0,-1.0,-4.0,-3.0,5.0,-11.0,1.0,-2.0,1650914540806681.0,1
542,0.0,-1.0,-2.0,2.0,-1.0,15.0,6.0,2.0,1650914540821023.0,1
543,0.0,-1.0,-1.0,0.0,7.0,4.0,1.0,3.0,1650914540821023.0,1
544,0.0,1.0,-1.0,-1.0,4.0,6.0,2.0,-1.0,1650914540823053.0,1
545,-1.0,2.0,4.0,8.0,-3.0,0.0,-4.0,0.0,1650914540823053.0,1
546,0.0,-2.0,-6.0,-10.0,-11.0,-25.0,-8.0,-4.0,1650914540835654.0,1
547,-1.0,-2.0,-4.0,-2.0,-6.0,-10.0,6.0,2.0,1650914540835654.0,1
548,0.0,0.0,1.0,2.0,6.0,9.0,1.0,-2.0,1650914540837652.0,1
549,-1.0,-1.0,6.0,5.0,5.0,9.0,4.0,1.0,1650914540837652.0,1
550,-1.0,0.0,1.0,0.0,-1.0,0.0,0.0,1.0,1650914540859158.0,1
551,-1.0,-3.0,-4.0,-6.0,-13.0,3.0,-8.0,-4.0,1650914540859158.0,1
552,-3.0,-3.0,-13.0,-13.0,1.0,0.0,0.0,-1.0,1650914540859855.0,1
553,2.0,1.0,5.0,6.0,11.0,12.0,2.0,1.0,1650914540859855.0,1
554,2.0,3.0,-2.0,1.0,30.0,16.0,8.0,4.0,1650914540889293.0,1
555,0.0,2.0,10.0,9.0,7.0,11.0,-3.0,0.0,1650914540889293.0,1
556,-1.0,0.0,1.0,-5.0,-11.0,-7.0,-1.0,0.0,1650914540890286.0,1
557,-1.0,-4.0,-2.0,-6.0,-23.0,-32.0,-6.0,-1.0,1650914540890286.0,1
558,-1.0,-2.0,1.0,1.0,-14.0,-8.0,-3.0,-3.0,1650914540903408.0,1
559,-1.0,-2.0,-3.0,-9.0,-4.0,-1.0,-2.0,0.0,1650914540903408.0,1
560,0.0,-1.0,-2.0,2.0,-2.0,0.0,2.0,1.0,1650914540905437.0,1
561,1.0,1.0,-2.0,-1.0,9.0,12.0,5.0,1.0,1650914540905437.0,1
562,4.0,0.0,3.0,7.0,11.0,7.0,3.0,2.0,1650914540919751.0,0
563,-3.0,0.0,1.0,6.0,10.0,4.0,2.0,2.0,1650914540919751.0,0
564,-1.0,-2.0,2.0,3.0,4.0,3.0,-4.0,-2.0,1650914540920590.0,0
565,0.0,-1.0,-1.0,-2.0,-4.0,-6.0,-3.0,0.0,1650914540920590.0,0
566,-1.0,-1.0,-1.0,-4.0,-18.0,-28.0,-7.0,-1.0,1650914540941042.0,0
567,-2.0,-3.0,-2.0,-5.0,-7.0,-5.0,-1.0,-4.0,1650914540941042.0,0
568,1.0,-1.0,1.0,-1.0,4.0,13.0,1.0,0.0,1650914540942879.0,0
569,-1.0,-1.0,1.0,1.0,-8.0,-5.0,0.0,0.0,1650914540942879.0,0
570,-2.0,-1.0,3.0,1.0,2.0,-8.0,-4.0,-3.0,1650914540963981.0,0
571,-1.0,-1.0,-3.0,0.0,14.0,30.0,1.0,0.0,1650914540963981.0,0
572,1.0,2.0,4.0,5.0,21.0,13.0,5.0,4.0,1650914540964982.0,0
573,0.0,-1.0,-4.0,0.0,-3.0,8.0,3.0,0.0,1650914540964982.0,0
574,1.0,0.0,1.0,-4.0,-7.0,-4.0,-4.0,0.0,1650914540979269.0,0
575,0.0,1.0,-1.0,1.0,-14.0,-25.0,-5.0,-1.0,1650914540979269.0,0
576,-1.0,-1.0,1.0,1.0,-6.0,-9.0,-5.0,-1.0,1650914540979853.0,0
577,-1.0,-2.0,-1.0,-5.0,1.0,14.0,1.0,-2.0,1650914540979853.0,0
578,0.0,0.0,-1.0,0.0,0.0,0.0,4.0,1.0,1650914541001634.0,0
579,-1.0,-2.0,0.0,2.0,6.0,-13.0,-4.0,0.0,1650914541001634.0,0
580,0.0,-2.0,-1.0,-3.0,-8.0,1.0,-8.0,-2.0,1650914541002634.0,0
581,-2.0,-2.0,0.0,-3.0,-5.0,-4.0,5.0,1.0,1650914541002634.0,0
582,-1.0,0.0,0.0,0.0,3.0,7.0,4.0,0.0,1650914541015642.0,0
583,2.0,0.0,-4.0,-5.0,-2.0,3.0,2.0,0.0,1650914541015642.0,0
584,-1.0,1.0,0.0,2.0,6.0,4.0,3.0,1.0,1650914541022621.0,0
585,1.0,1.0,-1.0,0.0,5.0,8.0,-3.0,-2.0,1650914541022621.0,0
586,0.0,0.0,1.0,1.0,-7.0,0.0,0.0,-1.0,1650914541046369.0,0
587,3.0,0.0,0.0,0.0,-15.0,-28.0,-3.0,-3.0,1650914541046369.0,0
588,-7.0,-2.0,-5.0,-5.0,6.0,1.0,0.0,-3.0,1650914541047198.0,0
589,1.0,-1.0,1.0,-2.0,-2.0,3.0,-2.0,-1.0,1650914541047198.0,0
590,-2.0,0.0,-3.0,-2.0,-14.0,-22.0,1.0,0.0,1650914541061454.0,0
591,-1.0,0.0,-2.0,-1.0,1.0,-14.0,-7.0,-1.0,1650914541061454.0,0
592,1.0,3.0,6.0,2.0,4.0,38.0,4.0,2.0,1650914541062454.0,0
593,1.0,0.0,-5.0,0.0,17.0,31.0,7.0,2.0,1650914541062454.0,0
594,1.0,3.0,2.0,4.0,7.0,1.0,4.0,2.0,1650914541075729.0,0
595,0.0,0.0,-1.0,-2.0,-10.0,-16.0,-4.0,1.0,1650914541075729.0,0
596,-1.0,0.0,-3.0,-8.0,-20.0,-42.0,-9.0,-5.0,1650914541081717.0,0
597,-3.0,-3.0,-2.0,-2.0,-6.0,-9.0,-6.0,-3.0,1650914541081717.0,0
598,0.0,-1.0,2.0,4.0,9.0,21.0,6.0,1.0,1650914541098031.0,0
599,-1.0,0.0,0.0,0.0,10.0,19.0,4.0,-1.0,1650914541098031.0,0
600,1.0,-1.0,-1.0,-1.0,-2.0,-4.0,-2.0,-1.0,1650914541100028.0,0
601,-1.0,0.0,-2.0,-1.0,-14.0,-14.0,-8.0,-3.0,1650914541100028.0,0
602,-2.0,-2.0,-2.0,-2.0,-4.0,-5.0,-3.0,-2.0,1650914541121339.0,0
603,-1.0,1.0,0.0,2.0,14.0,17.0,5.0,2.0,1650914541121339.0,0
604,1.0,0.0,2.0,5.0,18.0,6.0,4.0,1.0,1650914541123334.0,0
605,0.0,1.0,2.0,4.0,-2.0,-4.0,1.0,0.0,1650914541123334.0,0
606,-2.0,-2.0,-3.0,-6.0,-5.0,0.0,-3.0,-2.0,1650914541135461.0,0
607,-2.0,-4.0,-2.0,-5.0,-10.0,-6.0,-7.0,-3.0,1650914541135461.0,0
608,-1.0,-2.0,-4.0,-4.0,-11.0,-9.0,-4.0,-1.0,1650914541143310.0,0
609,-3.0,-1.0,-2.0,-4.0,-17.0,-25.0,-3.0,-3.0,1650914541143310.0,0
610,-2.0,-3.0,0.0,0.0,25.0,25.0,-1.0,1.0,1650914541165783.0,0
611,1.0,1.0,2.0,3.0,3.0,15.0,7.0,3.0,1650914541165783.0,0
612,3.0,2.0,3.0,7.0,13.0,1.0,4.0,0.0,1650914541167735.0,0
613,1.0,0.0,3.0,6.0,2.0,2.0,0.0,1.0,1650914541167735.0,0
614,0.0,1.0,-1.0,-4.0,-13.0,-13.0,-3.0,-2.0,1650914541180700.0,0
615,-4.0,-1.0,-1.0,-4.0,-7.0,-19.0,-7.0,-2.0,1650914541180700.0,0
616,-2.0,-3.0,-7.0,-6.0,-16.0,-26.0,-7.0,-4.0,1650914541182695.0,0
617,1.0,-1.0,1.0,-2.0,4.0,27.0,3.0,2.0,1650914541182695.0,0
618,0.0,-1.0,2.0,2.0,4.0,10.0,6.0,2.0,1650914541195100.0,0
619,1.0,1.0,-1.0,0.0,8.0,11.0,3.0,2.0,1650914541195100.0,0
620,1.0,1.0,4.0,0.0,-7.0,-13.0,-1.0,1.0,1650914541202573.0,0
621,-1.0,0.0,-3.0,-1.0,4.0,4.0,-4.0,-1.0,1650914541202573.0,0
622,-1.0,0.0,-2.0,-2.0,-2.0,-1.0,0.0,-1.0,1650914541219106.0,0
623,-1.0,-2.0,0.0,-2.0,-4.0,-4.0,-3.0,-3.0,1650914541219106.0,0
624,-2.0,-1.0,-3.0,-2.0,-3.0,-8.0,0.0,0.0,1650914541219939.0,0
625,-2.0,0.0,-1.0,-3.0,-3.0,-7.0,-4.0,-2.0,1650914541219939.0,0
626,0.0,0.0,0.0,0.0,2.0,8.0,-2.0,0.0,1650914541241358.0,0
627,-2.0,-2.0,-1.0,-1.0,-6.0,-8.0,-1.0,-2.0,1650914541241358.0,0
628,0.0,-1.0,2.0,3.0,4.0,4.0,1.0,0.0,1650914541242395.0,0
629,2.0,2.0,0.0,2.0,10.0,4.0,7.0,1.0,1650914541242395.0,0
630,1.0,-1.0,-1.0,0.0,4.0,8.0,4.0,0.0,1650914541255255.0,0
631,0.0,-1.0,0.0,0.0,-3.0,6.0,-4.0,-2.0,1650914541255255.0,0
632,0.0,-3.0,-3.0,-6.0,-6.0,-8.0,-4.0,-3.0,1650914541263732.0,0
633,-1.0,-1.0,4.0,2.0,-6.0,-14.0,-4.0,-3.0,1650914541263732.0,0
634,-2.0,-1.0,-3.0,-3.0,-11.0,-23.0,-4.0,-4.0,1650914541278737.0,0
635,1.0,1.0,0.0,0.0,10.0,15.0,0.0,1.0,1650914541278737.0,0
636,-1.0,-2.0,1.0,3.0,7.0,20.0,5.0,2.0,1650914541279693.0,0
637,2.0,1.0,2.0,1.0,7.0,6.0,6.0,1.0,1650914541279693.0,0
638,0.0,-2.0,-2.0,-2.0,-6.0,-11.0,-5.0,-2.0,1650914541300679.0,0
639,0.0,0.0,-3.0,-3.0,-7.0,-21.0,-4.0,-1.0,1650914541300679.0,0
640,-4.0,-1.0,5.0,2.0,-12.0,0.0,-2.0,-5.0,1650914541302632.0,0
641,0.0,-2.0,-3.0,-2.0,2.0,0.0,-3.0,-1.0,1650914541302632.0,0
642,-1.0,0.0,2.0,2.0,7.0,7.0,0.0,-1.0,1650914541314601.0,0
643,0.0,0.0,3.0,4.0,15.0,24.0,3.0,3.0,1650914541314601.0,0
644,2.0,-1.0,-3.0,0.0,2.0,-3.0,-2.0,-1.0,1650914541323579.0,0
645,-2.0,-2.0,-2.0,-3.0,-8.0,-9.0,0.0,-3.0,1650914541323579.0,0
646,0.0,-1.0,0.0,-1.0,2.0,6.0,-3.0,-1.0,1650914541338580.0,0
647,-2.0,-1.0,-1.0,-2.0,-11.0,-18.0,0.0,0.0,1650914541338580.0,0
648,0.0,1.0,0.0,1.0,5.0,9.0,1.0,2.0,1650914541340563.0,0
649,1.0,1.0,1.0,3.0,6.0,3.0,1.0,0.0,1650914541340563.0,0
650,-3.0,-2.0,-4.0,-5.0,-6.0,-10.0,1.0,-3.0,1650914541361507.0,0
651,0.0,0.0,1.0,2.0,6.0,5.0,-2.0,-2.0,1650914541361507.0,0
652,-2.0,-2.0,-2.0,0.0,-7.0,-22.0,-1.0,0.0,1650914541362472.0,0
653,-3.0,-4.0,-2.0,-1.0,0.0,14.0,1.0,-1.0,1650914541362472.0,0
654,1.0,0.0,3.0,1.0,-1.0,12.0,2.0,3.0,1650914541374669.0,0
655,1.0,1.0,0.0,1.0,-2.0,1.0,1.0,0.0,1650914541374669.0,0
656,-1.0,1.0,-2.0,-2.0,-4.0,-5.0,0.0,-1.0,1650914541383646.0,0
657,-2.0,-1.0,-4.0,-6.0,-3.0,-24.0,-10.0,-3.0,1650914541383646.0,0
658,0.0,-3.0,-1.0,0.0,-9.0,-5.0,-3.0,-1.0,1650914541406273.0,0
659,-1.0,0.0,0.0,2.0,3.0,10.0,4.0,0.0,1650914541406273.0,0
660,1.0,0.0,-1.0,1.0,7.0,14.0,4.0,2.0,1650914541407098.0,0
661,-1.0,0.0,1.0,0.0,1.0,-2.0,0.0,0.0,1650914541407098.0,0
662,-1.0,0.0,-2.0,-3.0,-10.0,-10.0,-3.0,-1.0,1650914541420628.0,0
663,-2.0,-3.0,-2.0,-4.0,1.0,-11.0,-5.0,-3.0,1650914541420628.0,0
664,1.0,0.0,-2.0,-2.0,6.0,-8.0,-7.0,-4.0,1650914541422624.0,0
665,0.0,-1.0,1.0,4.0,5.0,30.0,13.0,2.0,1650914541422624.0,0
666,3.0,4.0,2.0,6.0,10.0,27.0,2.0,2.0,1650914541434318.0,0
667,-3.0,0.0,1.0,2.0,7.0,-7.0,7.0,3.0,1650914541434318.0,0
668,0.0,0.0,-4.0,-1.0,-5.0,-7.0,0.0,0.0,1650914541443495.0,0
669,-2.0,-1.0,-3.0,-6.0,-10.0,-20.0,-10.0,-1.0,1650914541443495.0,0
670,-1.0,-2.0,-3.0,-5.0,-10.0,-10.0,-2.0,-3.0,1650914541459712.0,0
671,-1.0,0.0,-1.0,-3.0,-14.0,-3.0,-11.0,-1.0,1650914541459712.0,0
672,-1.0,-1.0,1.0,-2.0,-9.0,9.0,2.0,0.0,1650914541459855.0,0
673,-1.0,0.0,1.0,1.0,10.0,-2.0,5.0,1.0,1650914541459855.0,0
674,1.0,0.0,1.0,4.0,19.0,12.0,-6.0,-1.0,1650914541481152.0,0
675,1.0,0.0,0.0,4.0,6.0,15.0,13.0,1.0,1650914541481152.0,0
676,-1.0,-1.0,2.0,0.0,3.0,0.0,-6.0,-3.0,1650914541483153.0,0
677,-1.0,0.0,-3.0,-2.0,-10.0,-15.0,-13.0,-3.0,1650914541483153.0,0
678,-1.0,0.0,-2.0,-4.0,-10.0,-17.0,9.0,2.0,1650914541495309.0,0
679,-1.0,0.0,-4.0,-5.0,-9.0,-13.0,-4.0,-5.0,1650914541495309.0,0
680,0.0,-1.0,-2.0,-3.0,-8.0,8.0,1.0,2.0,1650914541503392.0,0
681,0.0,-2.0,0.0,1.0,8.0,10.0,0.0,0.0,1650914541503392.0,0
682,-2.0,1.0,4.0,4.0,12.0,3.0,-2.0,0.0,1650914541519144.0,0
683,2.0,1.0,1.0,2.0,-3.0,-5.0,-1.0,1.0,1650914541519144.0,0
684,-2.0,1.0,-4.0,-5.0,-12.0,-14.0,-2.0,-2.0,1650914541521001.0,0
685,-3.0,-1.0,-5.0,-5.0,-6.0,-5.0,-7.0,-2.0,1650914541521001.0,0
686,0.0,-1.0,-1.0,-2.0,2.0,-5.0,-2.0,0.0,1650914541541981.0,0
687,2.0,0.0,3.0,1.0,7.0,23.0,5.0,2.0,1650914541541981.0,0
688,1.0,2.0,3.0,2.0,4.0,2.0,3.0,2.0,1650914541542852.0,0
689,-1.0,1.0,-1.0,-2.0,-5.0,-5.0,-6.0,-2.0,1650914541542852.0,0
690,-2.0,0.0,-6.0,-6.0,-16.0,-24.0,-4.0,-2.0,1650914541555425.0,0
691,-1.0,-2.0,-2.0,-1.0,0.0,7.0,-1.0,-1.0,1650914541555425.0,0
692,0.0,-2.0,1.0,0.0,-2.0,-2.0,2.0,0.0,1650914541571789.0,0
693,2.0,-1.0,1.0,0.0,7.0,-1.0,2.0,-1.0,1650914541571789.0,0
694,0.0,-1.0,0.0,2.0,-4.0,8.0,-1.0,-1.0,1650914541577820.0,0
695,0.0,-1.0,0.0,0.0,9.0,3.0,2.0,-1.0,1650914541577820.0,0
696,-1.0,0.0,-2.0,-1.0,5.0,9.0,-3.0,0.0,1650914541585911.0,0
697,0.0,0.0,1.0,-1.0,-12.0,-11.0,6.0,0.0,1650914541585911.0,0
698,1.0,-1.0,2.0,0.0,-5.0,-13.0,-6.0,-2.0,1650914541601996.0,0
699,-1.0,-2.0,-1.0,0.0,2.0,0.0,4.0,0.0,1650914541601996.0,0
700,-1.0,-2.0,-1.0,0.0,-2.0,14.0,-3.0,-1.0,1650914541602868.0,0
701,0.0,0.0,-1.0,-1.0,12.0,19.0,11.0,1.0,1650914541602868.0,0
702,0.0,0.0,-2.0,1.0,5.0,-5.0,-1.0,0.0,1650914541614929.0,0
703,-2.0,0.0,1.0,-3.0,-14.0,-4.0,-10.0,-3.0,1650914541614929.0,0
704,-2.0,-1.0,-1.0,-2.0,-2.0,-10.0,8.0,2.0,1650914541624102.0,0
705,-1.0,-2.0,-1.0,-1.0,-9.0,-12.0,-8.0,-3.0,1650914541624102.0,0
706,-1.0,-2.0,-1.0,0.0,11.0,18.0,9.0,2.0,1650914541638263.0,0
707,0.0,1.0,1.0,0.0,3.0,0.0,1.0,0.0,1650914541638263.0,0
708,0.0,0.0,-1.0,-1.0,0.0,1.0,-2.0,-2.0,1650914541640258.0,0
709,-2.0,0.0,1.0,0.0,-7.0,-10.0,-5.0,-2.0,1650914541640258.0,0
710,-1.0,-1.0,-1.0,-2.0,-2.0,-3.0,-2.0,-2.0,1650914541661176.0,0
711,-2.0,-2.0,-1.0,-3.0,-9.0,-15.0,-3.0,-1.0,1650914541661176.0,0
712,0.0,-1.0,0.0,0.0,5.0,4.0,-5.0,-3.0,1650914541663044.0,0
713,1.0,1.0,1.0,2.0,0.0,21.0,10.0,3.0,1650914541663044.0,0
714,-2.0,-2.0,-2.0,-1.0,-1.0,-3.0,4.0,1.0,1650914541684281.0,0
715,0.0,-1.0,-2.0,1.0,5.0,0.0,-2.0,-1.0,1650914541684281.0,0
716,0.0,1.0,2.0,5.0,9.0,3.0,6.0,3.0,1650914541684867.0,0
717,-2.0,-2.0,0.0,0.0,5.0,-3.0,-7.0,-1.0,1650914541684867.0,0
718,-2.0,-1.0,-1.0,-4.0,-5.0,0.0,-5.0,-4.0,1650914541698884.0,0
719,1.0,-1.0,-2.0,-3.0,-3.0,3.0,-2.0,-2.0,1650914541698884.0,0
720,0.0,-3.0,-3.0,-2.0,-2.0,-12.0,-8.0,-4.0,1650914541699826.0,0
721,3.0,0.0,0.0,2.0,5.0,7.0,4.0,1.0,1650914541699826.0,0
722,1.0,1.0,1.0,2.0,-5.0,-3.0,-1.0,1.0,1650914541721095.0,0
723,-1.0,0.0,0.0,-3.0,-3.0,-8.0,6.0,0.0,1650914541721095.0,0
724,-1.0,0.0,-1.0,-1.0,1.0,12.0,-2.0,0.0,1650914541722989.0,0
725,-2.0,0.0,1.0,1.0,2.0,-2.0,-2.0,-2.0,1650914541722989.0,0
726,-1.0,0.0,0.0,0.0,6.0,-2.0,1.0,2.0,1650914541743165.0,0
727,0.0,-1.0,1.0,-1.0,-4.0,0.0,-5.0,-1.0,1650914541743165.0,0
728,1.0,-2.0,-1.0,-1.0,-2.0,-3.0,2.0,-1.0,1650914541745129.0,0
729,-1.0,-2.0,-2.0,-4.0,-7.0,-9.0,0.0,-1.0,1650914541745129.0,0
730,0.0,0.0,-2.0,-2.0,-3.0,-4.0,-1.0,-2.0,1650914541759249.0,0
731,-2.0,0.0,-1.0,-3.0,-3.0,-3.0,-4.0,-1.0,1650914541759249.0,0
732,-2.0,-2.0,-1.0,-1.0,-7.0,-3.0,0.0,0.0,1650914541765074.0,0
733,1.0,0.0,-1.0,3.0,14.0,15.0,4.0,5.0,1650914541765074.0,0
734,2.0,0.0,2.0,3.0,10.0,13.0,6.0,0.0,1650914541780856.0,0
735,-2.0,-2.0,0.0,1.0,-1.0,-2.0,-1.0,5.0,1650914541780856.0,0
736,-1.0,1.0,-2.0,-4.0,-7.0,-6.0,-3.0,-2.0,1650914541782845.0,0
737,-1.0,0.0,-1.0,-3.0,-12.0,-18.0,-9.0,-10.0,1650914541782845.0,0
738,-1.0,-3.0,-2.0,-2.0,-4.0,0.0,-5.0,-1.0,1650914541803250.0,0
739,2.0,0.0,-2.0,0.0,1.0,-2.0,2.0,2.0,1650914541803250.0,0
740,1.0,1.0,3.0,3.0,5.0,11.0,7.0,-5.0,1650914541805247.0,0
741,-2.0,-1.0,0.0,1.0,8.0,17.0,3.0,6.0,1650914541805247.0,0
742,0.0,-1.0,1.0,0.0,-2.0,-5.0,-1.0,-2.0,1650914541818403.0,0
743,1.0,0.0,-4.0,-1.0,-8.0,-9.0,-7.0,0.0,1650914541818403.0,0
744,-5.0,-2.0,-2.0,-4.0,4.0,-4.0,-3.0,1.0,1650914541825409.0,0
745,1.0,0.0,0.0,-2.0,-9.0,-32.0,7.0,10.0,1650914541825409.0,0
746,-4.0,-6.0,-5.0,-3.0,-7.0,21.0,-3.0,-1.0,1650914541840733.0,0
747,6.0,-1.0,-2.0,2.0,6.0,19.0,3.0,-8.0,1650914541840733.0,0
748,-5.0,1.0,-1.0,-2.0,5.0,-8.0,-6.0,-15.0,1650914541842568.0,0
749,1.0,-3.0,1.0,2.0,-5.0,0.0,8.0,3.0,1650914541842568.0,0
750,3.0,5.0,1.0,-1.0,-11.0,-34.0,-4.0,2.0,1650914541863920.0,0
751,1.0,-4.0,-2.0,-4.0,1.0,9.0,2.0,15.0,1650914541863920.0,0
752,-3.0,-1.0,-3.0,-2.0,-7.0,11.0,3.0,-11.0,1650914541864838.0,0
753,-13.0,-4.0,-4.0,1.0,13.0,8.0,-5.0,-11.0,1650914541864838.0,0
754,3.0,1.0,-1.0,2.0,-2.0,-1.0,3.0,1.0,1650914541878899.0,0
755,-2.0,2.0,8.0,7.0,1.0,-12.0,-2.0,-16.0,1650914541878899.0,0
756,4.0,4.0,-3.0,3.0,12.0,15.0,3.0,5.0,1650914541885336.0,0
757,0.0,-8.0,-14.0,-3.0,-2.0,10.0,0.0,4.0,1650914541885336.0,0
758,-12.0,3.0,10.0,-1.0,-7.0,-8.0,-2.0,-6.0,1650914541901398.0,0
759,7.0,-7.0,-5.0,-8.0,-15.0,-30.0,-6.0,9.0,1650914541901398.0,0
760,3.0,5.0,8.0,0.0,-16.0,-19.0,-8.0,-3.0,1650914541902273.0,0
761,-20.0,-3.0,6.0,-2.0,9.0,13.0,1.0,-7.0,1650914541902273.0,0
762,6.0,2.0,-23.0,0.0,24.0,37.0,8.0,-2.0,1650914541925155.0,0
763,19.0,-7.0,-9.0,-3.0,-1.0,-3.0,-1.0,1.0,1650914541925155.0,0
764,-19.0,0.0,1.0,0.0,-10.0,-4.0,-2.0,-9.0,1650914541930563.0,0
765,12.0,1.0,-10.0,-5.0,-7.0,-8.0,-3.0,6.0,1650914541930563.0,0
766,-5.0,8.0,34.0,4.0,-1.0,-4.0,-3.0,-2.0,1650914541938547.0,0
767,-12.0,-12.0,-26.0,-5.0,4.0,12.0,2.0,8.0,1650914541938547.0,0
768,19.0,0.0,3.0,-1.0,-5.0,-6.0,-1.0,9.0,1650914541945269.0,0
769,-1.0,4.0,0.0,0.0,-4.0,-13.0,-6.0,-16.0,1650914541945269.0,0
770,2.0,-1.0,-9.0,1.0,2.0,3.0,-2.0,0.0,1650914541961612.0,0
771,-11.0,6.0,15.0,1.0,0.0,1.0,-2.0,-10.0,1650914541961612.0,0
772,-6.0,-14.0,-21.0,-4.0,-4.0,2.0,3.0,12.0,1650914541962612.0,0
773,-1.0,2.0,14.0,4.0,-1.0,0.0,-2.0,5.0,1650914541962612.0,0
774,7.0,1.0,7.0,2.0,0.0,1.0,2.0,1.0,1650914541990251.0,0
775,-5.0,7.0,7.0,1.0,-4.0,8.0,4.0,4.0,1650914541990251.0,0
776,6.0,-3.0,-5.0,-5.0,6.0,-2.0,1.0,10.0,1650914541999845.0,0
777,6.0,7.0,11.0,4.0,-12.0,-4.0,-1.0,-5.0,1650914541999845.0,0
778,-6.0,-7.0,-11.0,-8.0,-22.0,-28.0,-5.0,-5.0,1650914542000845.0,0
779,-3.0,12.0,19.0,7.0,27.0,22.0,3.0,2.0,1650914542000845.0,0
780,-7.0,-17.0,-23.0,-5.0,4.0,-4.0,-5.0,-17.0,1650914542004834.0,0
781,1.0,0.0,-8.0,-4.0,2.0,-16.0,-4.0,-3.0,1650914542004834.0,0
782,1.0,-3.0,3.0,4.0,-1.0,42.0,8.0,7.0,1650914542028291.0,0
783,-7.0,1.0,-4.0,0.0,9.0,16.0,4.0,-7.0,1650914542028291.0,0
784,10.0,9.0,20.0,5.0,12.0,-3.0,4.0,11.0,1650914542030285.0,0
785,16.0,7.0,-2.0,-4.0,-5.0,-19.0,-5.0,5.0,1650914542030285.0,0
786,-5.0,-14.0,-24.0,-10.0,-18.0,-24.0,-8.0,-3.0,1650914542043434.0,0
787,0.0,4.0,-6.0,-7.0,-16.0,-4.0,-3.0,1.0,1650914542043434.0,0
788,-5.0,-4.0,8.0,2.0,-10.0,-10.0,1.0,15.0,1650914542045432.0,0
789,7.0,-2.0,6.0,4.0,15.0,14.0,3.0,-1.0,1650914542045432.0,0
790,13.0,11.0,4.0,2.0,14.0,8.0,4.0,-2.0,1650914542058521.0,0
791,2.0,-12.0,-17.0,-3.0,-20.0,-21.0,-7.0,-9.0,1650914542058521.0,0
792,1.0,3.0,5.0,-4.0,8.0,3.0,-4.0,3.0,1650914542065181.0,0
793,-10.0,-3.0,0.0,6.0,-11.0,-11.0,-4.0,2.0,1650914542065181.0,0
794,4.0,7.0,-1.0,-6.0,-4.0,8.0,1.0,-1.0,1650914542080875.0,0
795,-2.0,-3.0,4.0,7.0,23.0,18.0,10.0,2.0,1650914542080875.0,0
796,-8.0,-3.0,-1.0,11.0,10.0,13.0,1.0,-10.0,1650914542082866.0,0
797,1.0,-2.0,-14.0,-15.0,0.0,-6.0,-6.0,-14.0,1650914542082866.0,0
798,-4.0,8.0,15.0,7.0,5.0,5.0,-2.0,5.0,1650914542111153.0,0
799,6.0,0.0,4.0,-1.0,-11.0,-8.0,-4.0,7.0,1650914542111153.0,0
800,-7.0,0.0,-7.0,-5.0,-8.0,2.0,-1.0,-13.0,1650914542112140.0,0
801,-1.0,0.0,4.0,5.0,3.0,6.0,2.0,6.0,1650914542112140.0,0
802,-2.0,-9.0,-6.0,-3.0,-9.0,-21.0,-2.0,5.0,1650914542118126.0,0
803,2.0,4.0,1.0,-6.0,-14.0,-19.0,-3.0,-2.0,1650914542118126.0,0
804,13.0,4.0,0.0,-1.0,7.0,8.0,1.0,-5.0,1650914542125143.0,0
805,-3.0,2.0,-2.0,-1.0,-3.0,1.0,-2.0,-6.0,1650914542125143.0,0
806,-2.0,-2.0,7.0,1.0,-16.0,-22.0,-3.0,3.0,1650914542141364.0,0
807,-4.0,-10.0,-9.0,0.0,28.0,26.0,2.0,6.0,1650914542141364.0,0
808,1.0,-4.0,-18.0,-4.0,5.0,16.0,8.0,3.0,1650914542142235.0,0
809,-2.0,10.0,19.0,7.0,-4.0,6.0,1.0,4.0,1650914542142235.0,0
810,-1.0,-2.0,-21.0,-6.0,-4.0,-14.0,-1.0,16.0,1650914542163896.0,0
811,2.0,-1.0,9.0,1.0,-16.0,-13.0,-5.0,-10.0,1650914542163896.0,0
812,17.0,2.0,8.0,-1.0,-1.0,-11.0,-4.0,-19.0,1650914542164896.0,0
813,-17.0,-6.0,-7.0,-4.0,-3.0,11.0,6.0,22.0,1650914542164896.0,0
814,-9.0,-7.0,7.0,-3.0,13.0,-24.0,-6.0,-18.0,1650914542186173.0,0
815,-7.0,0.0,-6.0,4.0,10.0,15.0,4.0,0.0,1650914542186173.0,0
816,5.0,8.0,-3.0,-2.0,6.0,44.0,9.0,15.0,1650914542193174.0,0
817,5.0,-8.0,-8.0,3.0,1.0,3.0,3.0,-4.0,1650914542193174.0,0
818,0.0,6.0,14.0,8.0,-17.0,-25.0,-6.0,-3.0,1650914542201416.0,0
819,-7.0,13.0,11.0,-4.0,-11.0,-28.0,-6.0,-8.0,1650914542201416.0,0
820,-6.0,-5.0,-12.0,-5.0,-14.0,-30.0,-8.0,6.0,1650914542202415.0,0
821,13.0,5.0,5.0,2.0,14.0,20.0,6.0,2.0,1650914542202415.0,0
822,-4.0,-8.0,-4.0,3.0,4.0,15.0,5.0,-10.0,1650914542224897.0,0
823,8.0,17.0,24.0,8.0,11.0,8.0,3.0,-1.0,1650914542224897.0,0
824,-13.0,-11.0,-4.0,-3.0,-5.0,0.0,-2.0,1.0,1650914542237629.0,0
825,6.0,4.0,7.0,-1.0,-2.0,-3.0,1.0,-5.0,1650914542237629.0,0
826,0.0,6.0,-5.0,3.0,8.0,10.0,5.0,25.0,1650914542238493.0,0
827,1.0,-6.0,-5.0,-3.0,-18.0,-35.0,-11.0,-25.0,1650914542238493.0,0
828,7.0,4.0,9.0,-1.0,-3.0,-2.0,-2.0,12.0,1650914542246507.0,0
829,-6.0,-1.0,-5.0,-7.0,-5.0,13.0,0.0,-20.0,1650914542246507.0,0
830,-3.0,-5.0,-5.0,4.0,12.0,14.0,5.0,-3.0,1650914542276396.0,0
831,-4.0,-8.0,-6.0,5.0,15.0,13.0,3.0,11.0,1650914542276396.0,0
832,-6.0,4.0,8.0,3.0,-1.0,-7.0,3.0,11.0,1650914542277274.0,0
833,7.0,-3.0,-23.0,-3.0,-15.0,-31.0,-4.0,-9.0,1650914542277274.0,2
834,-3.0,8.0,35.0,1.0,9.0,22.0,-2.0,-7.0,1650914542284466.0,2
835,-3.0,-9.0,-12.0,-7.0,7.0,25.0,4.0,7.0,1650914542284466.0,2
836,3.0,9.0,9.0,4.0,0.0,3.0,3.0,-4.0,1650914542285498.0,2
837,1.0,-2.0,0.0,2.0,-1.0,-29.0,-2.0,19.0,1650914542285498.0,2
838,4.0,0.0,-4.0,0.0,-7.0,3.0,0.0,-8.0,1650914542306108.0,2
839,-5.0,1.0,-12.0,-3.0,-3.0,12.0,-4.0,-10.0,1650914542306108.0,2
840,-8.0,-5.0,4.0,-2.0,11.0,2.0,-1.0,-2.0,1650914542307107.0,2
841,4.0,13.0,26.0,6.0,3.0,8.0,2.0,3.0,1650914542307107.0,2
842,-17.0,-20.0,-41.0,-8.0,4.0,-5.0,-1.0,4.0,1650914542321194.0,2
843,14.0,-1.0,-18.0,0.0,0.0,-2.0,3.0,11.0,1650914542321194.0,2
844,-2.0,2.0,26.0,-4.0,-20.0,-17.0,-11.0,-7.0,1650914542323066.0,2
845,-4.0,4.0,-6.0,-8.0,-15.0,-16.0,-6.0,2.0,1650914542323066.0,2
846,7.0,1.0,0.0,-3.0,0.0,15.0,6.0,17.0,1650914542351698.0,2
847,-8.0,2.0,6.0,5.0,10.0,12.0,3.0,-17.0,1650914542351698.0,2
848,-1.0,-8.0,-20.0,-1.0,2.0,3.0,0.0,-15.0,1650914542352538.0,2
849,-21.0,-10.0,0.0,4.0,13.0,7.0,-1.0,-2.0,1650914542352538.0,2
850,0.0,-1.0,1.0,-4.0,-17.0,-15.0,-7.0,-9.0,1650914542357556.0,2
851,2.0,-1.0,-4.0,-9.0,-14.0,-25.0,-11.0,9.0,1650914542357556.0,2
852,0.0,4.0,5.0,4.0,15.0,-4.0,1.0,3.0,1650914542366562.0,2
853,5.0,11.0,15.0,14.0,19.0,44.0,11.0,0.0,1650914542366562.0,2
854,3.0,-3.0,-11.0,-5.0,14.0,25.0,4.0,-3.0,1650914542380022.0,2
855,-2.0,0.0,13.0,6.0,-8.0,-3.0,4.0,9.0,1650914542380022.0,2
856,-2.0,7.0,1.0,-5.0,-20.0,-29.0,-9.0,-8.0,1650914542389160.0,2
857,-2.0,-5.0,-12.0,-9.0,-10.0,-22.0,-9.0,-4.0,1650914542389160.0,2
858,-6.0,-9.0,0.0,-6.0,-14.0,-6.0,-6.0,4.0,1650914542404051.0,2
859,0.0,-1.0,-3.0,-3.0,2.0,1.0,0.0,-16.0,1650914542404051.0,2
860,-2.0,-1.0,0.0,7.0,8.0,7.0,6.0,5.0,1650914542404847.0,2
861,-4.0,-9.0,-13.0,-8.0,-4.0,-27.0,-2.0,8.0,1650914542404847.0,2
862,12.0,2.0,2.0,2.0,16.0,29.0,-1.0,-1.0,1650914542417595.0,2
863,-9.0,3.0,3.0,-5.0,2.0,21.0,2.0,-3.0,1650914542417595.0,2
864,9.0,-11.0,-23.0,-3.0,3.0,6.0,8.0,32.0,1650914542425907.0,2
865,-4.0,12.0,15.0,4.0,-12.0,-14.0,-14.0,-44.0,1650914542425907.0,2
866,-11.0,0.0,4.0,-4.0,-14.0,-41.0,-6.0,5.0,1650914542441466.0,2
867,9.0,-5.0,6.0,2.0,-5.0,-9.0,-1.0,4.0,1650914542441466.0,2
868,0.0,-2.0,-11.0,4.0,9.0,22.0,2.0,-2.0,1650914542442473.0,2
869,2.0,-1.0,5.0,-8.0,12.0,20.0,6.0,10.0,1650914542442473.0,2
870,3.0,7.0,3.0,3.0,-11.0,-16.0,-4.0,-5.0,1650914542463832.0,2
871,-2.0,-1.0,-1.0,1.0,2.0,-10.0,-4.0,1.0,1650914542463832.0,2
872,-9.0,10.0,8.0,0.0,-10.0,-8.0,-4.0,-11.0,1650914542464831.0,2
873,9.0,-13.0,-11.0,6.0,-5.0,-9.0,-4.0,19.0,1650914542464831.0,2
874,-10.0,4.0,6.0,-6.0,13.0,19.0,0.0,-12.0,1650914542486208.0,2
875,1.0,-1.0,8.0,-3.0,-11.0,-3.0,5.0,8.0,1650914542486208.0,2
876,-3.0,-17.0,-18.0,-3.0,2.0,-10.0,-3.0,-2.0,1650914542487241.0,2
877,-5.0,-1.0,-8.0,2.0,20.0,38.0,3.0,4.0,1650914542487241.0,2
878,3.0,-4.0,3.0,7.0,2.0,-7.0,-1.0,-4.0,1650914542501330.0,2
879,-1.0,-3.0,-1.0,2.0,-3.0,-12.0,-3.0,-4.0,1650914542501330.0,2
880,-3.0,1.0,5.0,-5.0,-22.0,-13.0,0.0,-1.0,1650914542502167.0,2
881,2.0,-7.0,-18.0,-8.0,-10.0,-17.0,0.0,8.0,1650914542502167.0,2
882,3.0,-1.0,4.0,3.0,8.0,21.0,4.0,-2.0,1650914542524030.0,2
883,5.0,1.0,-8.0,4.0,5.0,19.0,0.0,-17.0,1650914542524030.0,2
884,2.0,6.0,18.0,8.0,-2.0,-10.0,-3.0,-3.0,1650914542525030.0,2
885,5.0,-5.0,-10.0,-8.0,-2.0,2.0,4.0,18.0,1650914542525030.0,2
886,-25.0,0.0,9.0,-3.0,-14.0,-23.0,-9.0,-43.0,1650914542546507.0,2
887,-4.0,-6.0,-5.0,-7.0,-8.0,-12.0,-6.0,9.0,1650914542546507.0,2
888,1.0,-3.0,-9.0,6.0,21.0,20.0,4.0,-6.0,1650914542547341.0,2
889,-3.0,8.0,30.0,8.0,8.0,5.0,4.0,-1.0,1650914542547341.0,2
890,9.0,1.0,6.0,-4.0,0.0,4.0,3.0,14.0,1650914542561777.0,2
891,-5.0,-9.0,-22.0,-7.0,-10.0,-10.0,-4.0,0.0,1650914542561777.0,2
892,2.0,4.0,-10.0,-13.0,-26.0,-21.0,-10.0,-9.0,1650914542562619.0,2
893,-2.0,-12.0,-10.0,-3.0,0.0,0.0,-2.0,0.0,1650914542562619.0,2
894,-1.0,-3.0,-4.0,14.0,20.0,28.0,6.0,7.0,1650914542583861.0,2
895,8.0,7.0,14.0,-2.0,8.0,11.0,4.0,1.0,1650914542583861.0,2
896,5.0,4.0,12.0,-4.0,2.0,3.0,1.0,6.0,1650914542589848.0,2
897,-5.0,-3.0,-16.0,-5.0,-6.0,-9.0,-4.0,-4.0,1650914542589848.0,2
898,8.0,6.0,-1.0,0.0,-11.0,-16.0,-6.0,-1.0,1650914542597040.0,2
899,-4.0,-1.0,-6.0,0.0,-7.0,-7.0,-1.0,1.0,1650914542597040.0,2
900,-8.0,-2.0,14.0,2.0,-12.0,-6.0,0.0,-5.0,1650914542606016.0,2
901,4.0,0.0,12.0,0.0,13.0,13.0,0.0,19.0,1650914542606016.0,2
902,-1.0,9.0,5.0,10.0,14.0,3.0,-3.0,-33.0,1650914542629163.0,2
903,-4.0,3.0,6.0,1.0,4.0,8.0,2.0,4.0,1650914542629163.0,2
904,-1.0,-8.0,-23.0,-12.0,-7.0,1.0,0.0,7.0,1650914542629859.0,2
905,-1.0,-4.0,-13.0,-4.0,-23.0,-15.0,-3.0,-1.0,1650914542629859.0,2
906,-1.0,-7.0,-6.0,-7.0,-7.0,-24.0,-5.0,12.0,1650914542644269.0,2
907,4.0,3.0,13.0,6.0,12.0,6.0,0.0,3.0,1650914542644269.0,2
908,-3.0,5.0,7.0,12.0,35.0,38.0,8.0,-2.0,1650914542645301.0,2
909,-2.0,-10.0,-26.0,-4.0,0.0,9.0,2.0,-14.0,1650914542645301.0,2
910,6.0,5.0,1.0,-5.0,-7.0,-8.0,-2.0,14.0,1650914542666018.0,2
911,3.0,-2.0,-10.0,-2.0,-13.0,-16.0,-3.0,0.0,1650914542666018.0,2
912,-7.0,-5.0,5.0,0.0,-4.0,-13.0,-4.0,-8.0,1650914542667887.0,2
913,7.0,0.0,-9.0,-3.0,0.0,4.0,0.0,12.0,1650914542667887.0,2
914,9.0,0.0,-13.0,-5.0,-6.0,-7.0,-4.0,-1.0,1650914542681015.0,2
915,-26.0,-4.0,4.0,2.0,-5.0,-6.0,-4.0,-3.0,1650914542681015.0,2
916,0.0,0.0,2.0,-1.0,4.0,-1.0,-1.0,-6.0,1650914542683010.0,2
917,2.0,6.0,14.0,0.0,3.0,8.0,3.0,-5.0,1650914542683010.0,2
918,1.0,7.0,8.0,-4.0,-3.0,-1.0,5.0,15.0,1650914542711628.0,2
919,1.0,-14.0,-40.0,-5.0,5.0,1.0,1.0,-5.0,1650914542711628.0,2
920,0.0,0.0,17.0,8.0,3.0,6.0,3.0,10.0,1650914542712629.0,2
921,-7.0,-2.0,7.0,-5.0,-14.0,-27.0,-13.0,-20.0,1650914542712629.0,2
922,-2.0,-4.0,-8.0,-6.0,-7.0,-1.0,-1.0,-2.0,1650914542727085.0,2
923,9.0,3.0,3.0,0.0,5.0,18.0,4.0,0.0,1650914542727085.0,2
924,14.0,4.0,2.0,-2.0,-2.0,9.0,1.0,13.0,1650914542727950.0,2
925,0.0,2.0,1.0,5.0,11.0,0.0,0.0,-9.0,1650914542727950.0,2
926,4.0,-5.0,-6.0,2.0,-4.0,-21.0,0.0,11.0,1650914542741228.0,2
927,-12.0,6.0,0.0,-4.0,-5.0,1.0,-5.0,-34.0,1650914542741228.0,2
928,-1.0,3.0,9.0,4.0,18.0,42.0,12.0,29.0,1650914542742263.0,2
929,6.0,6.0,28.0,15.0,20.0,20.0,6.0,-5.0,1650914542742263.0,2
930,-2.0,-13.0,-17.0,1.0,-11.0,-24.0,-1.0,-4.0,1650914542763905.0,2
931,-2.0,2.0,2.0,-9.0,-18.0,-24.0,-9.0,-2.0,1650914542763905.0,2
932,0.0,-5.0,-8.0,-6.0,-11.0,-10.0,-7.0,-2.0,1650914542764907.0,2
933,-5.0,-7.0,-11.0,-2.0,-9.0,4.0,3.0,-5.0,1650914542764907.0,2
934,1.0,5.0,11.0,1.0,6.0,6.0,2.0,14.0,1650914542786186.0,2
935,-6.0,0.0,-4.0,-1.0,-4.0,-8.0,-4.0,1.0,1650914542786186.0,2
936,-6.0,1.0,5.0,3.0,-1.0,-14.0,-10.0,-30.0,1650914542787222.0,2
937,-11.0,-2.0,-17.0,-13.0,-17.0,-10.0,0.0,27.0,1650914542787222.0,2
938,2.0,2.0,2.0,1.0,-7.0,-5.0,-3.0,-8.0,1650914542801000.0,2
939,2.0,4.0,14.0,7.0,14.0,13.0,2.0,8.0,1650914542801000.0,2
940,-1.0,3.0,-8.0,5.0,19.0,12.0,5.0,7.0,1650914542806853.0,2
941,-2.0,-7.0,-3.0,1.0,3.0,13.0,3.0,-18.0,1650914542806853.0,2
942,-3.0,-2.0,-12.0,0.0,2.0,10.0,1.0,5.0,1650914542824001.0,2
943,-1.0,-10.0,8.0,-2.0,7.0,9.0,-1.0,-19.0,1650914542824001.0,2
944,3.0,0.0,-8.0,-4.0,-8.0,-20.0,-5.0,10.0,1650914542824837.0,2
945,10.0,10.0,10.0,1.0,-10.0,-11.0,-4.0,6.0,1650914542824837.0,2
946,-6.0,-11.0,-17.0,-9.0,-1.0,1.0,-3.0,-9.0,1650914542846530.0,2
947,4.0,4.0,8.0,-2.0,-5.0,-4.0,1.0,7.0,1650914542846530.0,2
948,-5.0,0.0,-21.0,-1.0,-3.0,-4.0,-1.0,-8.0,1650914542847367.0,2
949,-3.0,-7.0,-4.0,-5.0,-4.0,-7.0,-2.0,-3.0,1650914542847367.0,2
950,-7.0,12.0,16.0,3.0,8.0,19.0,1.0,-13.0,1650914542860858.0,2
951,0.0,-7.0,-10.0,-3.0,-5.0,-9.0,3.0,32.0,1650914542860858.0,2
952,8.0,-3.0,2.0,-3.0,-4.0,-18.0,-9.0,-25.0,1650914542867555.0,2
953,-5.0,5.0,4.0,-4.0,-7.0,-7.0,-3.0,-3.0,1650914542867555.0,2
954,11.0,-3.0,-8.0,2.0,24.0,36.0,8.0,16.0,1650914542884495.0,2
955,-12.0,4.0,8.0,14.0,13.0,12.0,4.0,-13.0,1650914542884495.0,2
956,0.0,-3.0,0.0,-8.0,-15.0,-16.0,-1.0,1.0,1650914542885529.0,2
957,-6.0,-9.0,-4.0,-1.0,-11.0,-23.0,-9.0,-17.0,1650914542885529.0,2
958,7.0,8.0,9.0,-2.0,-6.0,1.0,-3.0,-9.0,1650914542907323.0,2
959,1.0,-12.0,-33.0,-9.0,7.0,11.0,5.0,36.0,1650914542907323.0,2
960,10.0,11.0,17.0,8.0,5.0,8.0,10.0,21.0,1650914542908188.0,2
961,-16.0,0.0,-2.0,4.0,7.0,3.0,-4.0,-43.0,1650914542908188.0,2
962,-5.0,-9.0,-1.0,-7.0,-10.0,-10.0,-5.0,-4.0,1650914542921158.0,2
963,1.0,3.0,12.0,3.0,0.0,1.0,-2.0,-2.0,1650914542921158.0,2
964,-2.0,-8.0,-8.0,-4.0,-6.0,-8.0,-4.0,-1.0,1650914542935622.0,2
965,11.0,13.0,14.0,0.0,-2.0,3.0,-1.0,15.0,1650914542935622.0,2
966,-5.0,2.0,3.0,1.0,-1.0,-9.0,-3.0,-9.0,1650914542943687.0,2
967,5.0,1.0,2.0,-1.0,-8.0,-15.0,-4.0,-2.0,1650914542943687.0,2
968,-4.0,-1.0,1.0,-1.0,4.0,10.0,5.0,-3.0,1650914542944719.0,2
969,4.0,-6.0,-14.0,-2.0,1.0,7.0,1.0,3.0,1650914542944719.0,2
970,-4.0,-4.0,1.0,1.0,2.0,0.0,-1.0,-6.0,1650914542966055.0,2
971,5.0,8.0,8.0,-2.0,-5.0,-7.0,-2.0,2.0,1650914542966055.0,2
972,-4.0,3.0,-1.0,2.0,-1.0,2.0,2.0,-1.0,1650914542968086.0,2
973,-2.0,-5.0,-2.0,-3.0,3.0,5.0,-2.0,4.0,1650914542968086.0,2
974,3.0,10.0,0.0,-3.0,-2.0,-2.0,-2.0,2.0,1650914542980021.0,2
975,-1.0,-12.0,-7.0,-1.0,1.0,-1.0,2.0,-5.0,1650914542980021.0,2
976,-2.0,13.0,21.0,3.0,-6.0,-19.0,-8.0,7.0,1650914542987321.0,2
977,3.0,2.0,-12.0,-6.0,-16.0,-7.0,-7.0,-6.0,1650914542987321.0,2
978,-6.0,-12.0,-1.0,1.0,5.0,8.0,0.0,-1.0,1650914543003255.0,2
979,7.0,9.0,-2.0,5.0,28.0,29.0,8.0,-4.0,1650914543003255.0,2
980,3.0,4.0,-3.0,8.0,15.0,25.0,7.0,10.0,1650914543005252.0,2
981,8.0,8.0,19.0,10.0,9.0,11.0,7.0,15.0,1650914543005252.0,2
982,-3.0,-4.0,-15.0,-4.0,-12.0,-10.0,-2.0,-6.0,1650914543026535.0,2
983,-4.0,-7.0,-11.0,-7.0,-23.0,-39.0,-16.0,0.0,1650914543026535.0,2
984,-4.0,-9.0,-8.0,-8.0,-4.0,-6.0,-5.0,-6.0,1650914543027534.0,2
985,0.0,9.0,15.0,3.0,5.0,10.0,4.0,4.0,1650914543027534.0,2
986,2.0,5.0,12.0,3.0,-1.0,-9.0,3.0,4.0,1650914543040801.0,2
987,0.0,-1.0,-3.0,-1.0,-5.0,7.0,1.0,-3.0,1650914543040801.0,2
988,-5.0,-7.0,-15.0,-4.0,-3.0,-12.0,-4.0,-8.0,1650914543048808.0,2
989,-5.0,-8.0,0.0,-4.0,-14.0,-17.0,-4.0,-3.0,1650914543048808.0,2
990,-4.0,-3.0,-1.0,-4.0,0.0,17.0,-1.0,-4.0,1650914543070988.0,2
991,7.0,2.0,10.0,8.0,13.0,4.0,9.0,8.0,1650914543070988.0,2
992,-3.0,5.0,13.0,7.0,28.0,24.0,8.0,-11.0,1650914543072882.0,2
993,14.0,2.0,5.0,3.0,-4.0,-9.0,4.0,27.0,1650914543072882.0,2
994,-5.0,-3.0,-10.0,-7.0,-4.0,-7.0,-3.0,3.0,1650914543086018.0,2
995,-1.0,-10.0,-11.0,-3.0,-17.0,-14.0,-4.0,-16.0,1650914543086018.0,2
996,0.0,0.0,0.0,-4.0,-12.0,5.0,-3.0,7.0,1650914543088047.0,2
997,-7.0,-7.0,-1.0,3.0,24.0,12.0,4.0,-3.0,1650914543088047.0,2
998,7.0,10.0,8.0,-2.0,-6.0,-6.0,0.0,7.0,1650914543100157.0,2
999,-1.0,-1.0,-9.0,-4.0,-6.0,-6.0,-2.0,-4.0,1650914543100157.0,2
1000,-5.0,-8.0,-4.0,0.0,-14.0,-25.0,-2.0,-5.0,1650914543107634.0,2
1001,-1.0,-3.0,0.0,6.0,14.0,26.0,4.0,1.0,1650914543107634.0,2
1002,-1.0,-7.0,-3.0,0.0,0.0,4.0,3.0,-1.0,1650914543124524.0,2
1003,-1.0,10.0,7.0,-2.0,2.0,6.0,-1.0,-2.0,1650914543124524.0,2
1004,2.0,-5.0,-2.0,-2.0,3.0,-4.0,-7.0,-7.0,1650914543125524.0,2
1005,-3.0,-4.0,-10.0,-4.0,-8.0,-2.0,-6.0,-3.0,1650914543125524.0,2
1006,0.0,4.0,14.0,6.0,4.0,4.0,7.0,-1.0,1650914543146178.0,2
1007,-2.0,-3.0,-6.0,-2.0,-1.0,1.0,-2.0,-4.0,1650914543146178.0,2
1008,0.0,-2.0,-6.0,-7.0,-14.0,-13.0,-3.0,-1.0,1650914543148177.0,2
1009,-3.0,-1.0,0.0,-4.0,-6.0,-16.0,-6.0,-5.0,1650914543148177.0,2
1010,-1.0,-1.0,-2.0,0.0,3.0,4.0,-2.0,-1.0,1650914543160022.0,2
1011,2.0,6.0,10.0,3.0,6.0,11.0,4.0,5.0,1650914543160022.0,2
1012,-2.0,-6.0,-2.0,1.0,11.0,4.0,-1.0,-4.0,1650914543169470.0,2
1013,-1.0,0.0,-2.0,2.0,0.0,2.0,2.0,-3.0,1650914543169470.0,2
1014,0.0,-2.0,-7.0,0.0,-2.0,-2.0,-6.0,-1.0,1650914543183844.0,2
1015,-1.0,1.0,4.0,0.0,0.0,-8.0,5.0,1.0,1650914543183844.0,2
1016,0.0,0.0,-6.0,-3.0,-10.0,3.0,-1.0,-2.0,1650914543184846.0,2
1017,-1.0,3.0,0.0,-2.0,-1.0,15.0,4.0,-1.0,1650914543184846.0,2
1018,0.0,-3.0,-4.0,1.0,2.0,-4.0,-1.0,0.0,1650914543206130.0,2
1019,-1.0,-2.0,4.0,2.0,17.0,7.0,-6.0,-3.0,1650914543206130.0,2
1020,-2.0,0.0,1.0,-1.0,-7.0,-23.0,-3.0,-4.0,1650914543207159.0,2
1021,0.0,-1.0,-2.0,-3.0,-11.0,-2.0,-3.0,-1.0,1650914543207159.0,2
1022,0.0,-1.0,-2.0,-3.0,-6.0,2.0,-3.0,-1.0,1650914543219618.0,2
1023,-3.0,-2.0,-1.0,-2.0,-10.0,-4.0,1.0,-1.0,1650914543219618.0,2
1024,-1.0,3.0,1.0,-4.0,-1.0,-18.0,-2.0,-3.0,1650914543228769.0,2
1025,-1.0,-1.0,-1.0,-2.0,-9.0,-9.0,-5.0,-2.0,1650914543228769.0,2
1026,0.0,-2.0,-5.0,1.0,6.0,18.0,0.0,0.0,1650914543244587.0,2
1027,-2.0,0.0,1.0,1.0,4.0,7.0,1.0,1.0,1650914543244587.0,2
1028,1.0,1.0,0.0,0.0,-1.0,4.0,1.0,1.0,1650914543245117.0,2
1029,0.0,-1.0,0.0,1.0,-2.0,-4.0,1.0,-2.0,1650914543245117.0,2
1030,1.0,-3.0,-2.0,3.0,16.0,-6.0,4.0,2.0,1650914543267580.0,2
1031,-1.0,0.0,3.0,1.0,-3.0,6.0,0.0,2.0,1650914543267580.0,2
1032,-2.0,-3.0,-4.0,-3.0,-6.0,3.0,0.0,-2.0,1650914543268454.0,2
1033,-3.0,0.0,-2.0,-2.0,-1.0,-16.0,-3.0,-3.0,1650914543268454.0,2
1034,0.0,-1.0,-1.0,0.0,-7.0,15.0,-1.0,-1.0,1650914543279749.0,2
1035,0.0,0.0,2.0,-1.0,5.0,6.0,3.0,1.0,1650914543279749.0,2
1036,1.0,0.0,-2.0,2.0,-8.0,-7.0,-3.0,-1.0,1650914543288647.0,2
1037,-1.0,1.0,0.0,1.0,14.0,4.0,-1.0,-1.0,1650914543288647.0,2
1038,-3.0,-1.0,-3.0,-3.0,-9.0,-27.0,-12.0,-4.0,1650914543304020.0,2
1039,-1.0,0.0,-1.0,-2.0,-12.0,0.0,1.0,-2.0,1650914543304020.0,2
1040,1.0,0.0,2.0,1.0,7.0,22.0,12.0,2.0,1650914543305020.0,2
1041,1.0,0.0,-1.0,0.0,-8.0,-15.0,2.0,-1.0,1650914543305020.0,2
1042,1.0,0.0,1.0,0.0,16.0,13.0,1.0,0.0,1650914543326639.0,2
1043,-2.0,0.0,0.0,-1.0,-6.0,-14.0,-13.0,-2.0,1650914543326639.0,2
1044,-2.0,-2.0,-7.0,-7.0,-13.0,-5.0,-5.0,0.0,1650914543327479.0,2
1045,0.0,-1.0,0.0,1.0,4.0,5.0,3.0,1.0,1650914543327479.0,2
1046,0.0,-2.0,0.0,3.0,2.0,6.0,1.0,-1.0,1650914543339932.0,2
1047,1.0,0.0,-5.0,-4.0,6.0,1.0,4.0,0.0,1650914543339932.0,2
1048,0.0,-1.0,3.0,0.0,0.0,-9.0,-4.0,-1.0,1650914543348955.0,2
1049,-2.0,-3.0,4.0,-1.0,-13.0,-9.0,-5.0,-3.0,1650914543348955.0,2
1050,-1.0,2.0,2.0,5.0,-7.0,1.0,1.0,1.0,1650914543363831.0,2
1051,1.0,2.0,-7.0,-6.0,0.0,1.0,0.0,0.0,1650914543363831.0,2
1052,-3.0,-6.0,-2.0,-2.0,-6.0,0.0,-1.0,-3.0,1650914543364830.0,2
1053,0.0,0.0,-2.0,0.0,17.0,1.0,-1.0,0.0,1650914543364830.0,2
1054,2.0,2.0,2.0,4.0,14.0,21.0,7.0,1.0,1650914543386032.0,2
1055,0.0,2.0,16.0,9.0,-12.0,-8.0,0.0,0.0,1650914543386032.0,2
1056,-1.0,-1.0,-6.0,-4.0,11.0,4.0,-6.0,1.0,1650914543388030.0,2
1057,-2.0,-1.0,-6.0,-7.0,-12.0,-18.0,-10.0,-3.0,1650914543388030.0,2
1058,0.0,-3.0,-4.0,-4.0,-14.0,-8.0,9.0,0.0,1650914543400161.0,2
1059,1.0,-1.0,-5.0,0.0,5.0,15.0,6.0,0.0,1650914543400161.0,2
1060,0.0,0.0,3.0,-2.0,4.0,4.0,1.0,0.0,1650914543409382.0,2
1061,0.0,-2.0,-2.0,1.0,3.0,7.0,-3.0,-1.0,1650914543409382.0,2
1062,-2.0,-1.0,-2.0,-2.0,-6.0,-25.0,-6.0,0.0,1650914543431048.0,2
1063,-1.0,0.0,-2.0,-3.0,-12.0,-7.0,-8.0,-1.0,1650914543431048.0,2
1064,-2.0,-1.0,-3.0,-7.0,-5.0,0.0,1.0,-2.0,1650914543433046.0,2
1065,-1.0,0.0,0.0,8.0,22.0,27.0,6.0,0.0,1650914543433046.0,2
1066,0.0,1.0,1.0,-1.0,7.0,14.0,0.0,-1.0,1650914543447170.0,2
1067,-2.0,0.0,2.0,1.0,-2.0,-14.0,0.0,-1.0,1650914543447170.0,2
1068,1.0,1.0,-1.0,-1.0,-5.0,-4.0,-1.0,-1.0,1650914543448169.0,2
1069,1.0,-1.0,-5.0,-6.0,-13.0,-19.0,-2.0,1.0,1650914543448169.0,2
1070,-4.0,-1.0,-1.0,3.0,8.0,14.0,-1.0,-3.0,1650914543460023.0,2
1071,-1.0,-2.0,1.0,-2.0,7.0,15.0,0.0,-1.0,1650914543460023.0,2
1072,2.0,1.0,-1.0,2.0,2.0,-5.0,-2.0,1.0,1650914543468778.0,2
1073,-1.0,1.0,4.0,1.0,-24.0,-18.0,-1.0,0.0,1650914543468778.0,2
1074,0.0,-1.0,0.0,-3.0,8.0,0.0,-1.0,1.0,1650914543484080.0,2
1075,0.0,1.0,5.0,7.0,21.0,4.0,3.0,0.0,1650914543484080.0,2
1076,0.0,-2.0,-5.0,5.0,4.0,18.0,2.0,-1.0,1650914543485019.0,2
1077,-1.0,-3.0,-4.0,-6.0,-5.0,-2.0,1.0,-1.0,1650914543485019.0,2
1078,-1.0,-3.0,-5.0,-7.0,-22.0,-39.0,-5.0,0.0,1650914543506490.0,2
1079,-2.0,-2.0,-2.0,-9.0,-14.0,0.0,-7.0,-3.0,1650914543506490.0,2
1080,0.0,1.0,6.0,6.0,13.0,-3.0,0.0,-1.0,1650914543513789.0,2
1081,0.0,1.0,3.0,4.0,10.0,27.0,5.0,2.0,1650914543513789.0,2
1082,0.0,1.0,2.0,1.0,-3.0,7.0,2.0,2.0,1650914543519907.0,2
1083,-1.0,-2.0,-3.0,-4.0,-4.0,-11.0,-3.0,-2.0,1650914543519907.0,2
1084,-1.0,1.0,-1.0,0.0,-4.0,-9.0,-6.0,-3.0,1650914543528702.0,2
1085,-1.0,0.0,-1.0,0.0,9.0,10.0,10.0,1.0,1650914543528702.0,2
1086,-1.0,-1.0,-3.0,-2.0,1.0,-9.0,-2.0,-3.0,1650914543543823.0,2
1087,0.0,-2.0,-1.0,-1.0,-10.0,-11.0,-3.0,1.0,1650914543543823.0,2
1088,0.0,-1.0,4.0,4.0,4.0,16.0,-3.0,-2.0,1650914543551803.0,2
1089,1.0,0.0,-1.0,1.0,-5.0,-6.0,0.0,2.0,1650914543551803.0,2
1090,-1.0,-2.0,0.0,-4.0,5.0,17.0,2.0,-1.0,1650914543565848.0,2
1091,0.0,0.0,-3.0,0.0,-7.0,-3.0,-4.0,-2.0,1650914543565848.0,2
1092,-1.0,1.0,-4.0,-1.0,7.0,-4.0,5.0,2.0,1650914543567875.0,2
1093,1.0,0.0,7.0,5.0,4.0,-10.0,-4.0,-2.0,1650914543567875.0,2
1094,0.0,-2.0,0.0,-3.0,-6.0,0.0,-1.0,-1.0,1650914543588989.0,2
1095,-1.0,0.0,1.0,2.0,-2.0,-7.0,0.0,-1.0,1650914543588989.0,2
1096,-3.0,-2.0,-2.0,-2.0,-5.0,-3.0,3.0,1.0,1650914543589829.0,2
1097,0.0,1.0,1.0,-2.0,1.0,14.0,0.0,0.0,1650914543589829.0,2
1098,1.0,2.0,-1.0,-6.0,-11.0,-13.0,-5.0,-1.0,1650914543604132.0,2
1099,0.0,-1.0,-3.0,-1.0,5.0,0.0,1.0,1.0,1650914543604132.0,2
1100,1.0,0.0,5.0,8.0,14.0,11.0,9.0,2.0,1650914543605132.0,2
1101,0.0,-1.0,-1.0,0.0,6.0,1.0,-2.0,-1.0,1650914543605132.0,2
1102,-1.0,-3.0,-4.0,1.0,-8.0,-8.0,-6.0,-3.0,1650914543627110.0,2
1103,-2.0,-1.0,-4.0,-8.0,-24.0,-41.0,-3.0,-3.0,1650914543627110.0,2
1104,-1.0,-3.0,-1.0,-1.0,9.0,25.0,2.0,1.0,1650914543627975.0,2
1105,0.0,0.0,-6.0,-4.0,14.0,32.0,4.0,0.0,1650914543627975.0,2
1106,1.0,4.0,2.0,-1.0,-4.0,-9.0,1.0,0.0,1650914543664504.0,2
1107,0.0,-1.0,-2.0,-3.0,-8.0,-11.0,-4.0,-1.0,1650914543664504.0,2
1108,0.0,0.0,3.0,1.0,-5.0,-17.0,-7.0,-2.0,1650914543666501.0,2
1109,-2.0,-2.0,4.0,3.0,10.0,12.0,5.0,1.0,1650914543666501.0,2
1110,1.0,-1.0,-13.0,-10.0,5.0,11.0,5.0,2.0,1650914543667498.0,2
1111,-1.0,-1.0,1.0,-1.0,-6.0,-3.0,-4.0,-2.0,1650914543667498.0,2
1112,1.0,0.0,-1.0,-3.0,-9.0,-5.0,-4.0,-2.0,1650914543671488.0,2
1113,-1.0,-1.0,-4.0,-2.0,-15.0,-19.0,-2.0,0.0,1650914543671488.0,2
1114,0.0,-2.0,9.0,10.0,16.0,14.0,4.0,0.0,1650914543685936.0,2
1115,-1.0,-1.0,-5.0,-1.0,0.0,14.0,2.0,0.0,1650914543685936.0,2
1116,-2.0,-1.0,-1.0,-5.0,-10.0,-25.0,-4.0,0.0,1650914543700008.0,2
1117,0.0,0.0,-4.0,-2.0,0.0,-6.0,-4.0,-2.0,1650914543700008.0,2
1118,0.0,-1.0,6.0,4.0,-1.0,-3.0,-1.0,0.0,1650914543709371.0,2
1119,1.0,1.0,-2.0,-2.0,0.0,15.0,5.0,1.0,1650914543709371.0,2
1120,-1.0,1.0,-4.0,-2.0,7.0,9.0,3.0,1.0,1650914543709859.0,2
1121,-2.0,2.0,3.0,7.0,-3.0,-12.0,0.0,1.0,1650914543709859.0,2
1122,-2.0,-3.0,-8.0,-11.0,-9.0,-19.0,-7.0,-3.0,1650914543723536.0,2
1123,-1.0,-3.0,-5.0,-9.0,-27.0,-24.0,-6.0,-3.0,1650914543723536.0,2
1124,1.0,1.0,3.0,2.0,20.0,22.0,4.0,1.0,1650914543737734.0,2
1125,0.0,-1.0,1.0,6.0,17.0,22.0,7.0,1.0,1650914543737734.0,2
1126,1.0,3.0,6.0,10.0,12.0,22.0,5.0,2.0,1650914543746870.0,2
1127,0.0,3.0,2.0,2.0,0.0,-7.0,1.0,-1.0,1650914543746870.0,2
1128,-2.0,-2.0,-5.0,-11.0,-31.0,-29.0,-9.0,-5.0,1650914543747881.0,2
1129,-2.0,-1.0,0.0,-3.0,-14.0,-27.0,-12.0,-3.0,1650914543747881.0,2
1130,-2.0,-2.0,-3.0,-3.0,-4.0,-20.0,-9.0,-2.0,1650914543767817.0,2
1131,0.0,-1.0,0.0,4.0,20.0,36.0,8.0,1.0,1650914543767817.0,2
1132,0.0,1.0,3.0,5.0,11.0,40.0,9.0,2.0,1650914543776098.0,2
1133,1.0,2.0,-3.0,1.0,22.0,22.0,11.0,3.0,1650914543776098.0,2
1134,0.0,1.0,0.0,0.0,-9.0,-17.0,-2.0,0.0,1650914543782996.0,0
1135,-3.0,-2.0,1.0,-3.0,-6.0,-20.0,-6.0,-3.0,1650914543782996.0,0
1136,-4.0,-2.0,-10.0,-13.0,-19.0,-20.0,-4.0,-3.0,1650914543790106.0,0
1137,-1.0,-2.0,5.0,5.0,-11.0,-1.0,-7.0,-4.0,1650914543790106.0,0
1138,2.0,0.0,2.0,-1.0,7.0,4.0,10.0,2.0,1650914543806283.0,0
1139,1.0,-1.0,-3.0,1.0,18.0,15.0,2.0,3.0,1650914543806283.0,0
1140,1.0,-1.0,5.0,4.0,-10.0,-13.0,-3.0,0.0,1650914543807285.0,0
1141,-2.0,-2.0,-8.0,-12.0,-8.0,-5.0,-2.0,-3.0,1650914543807285.0,0
1142,-2.0,0.0,2.0,6.0,-3.0,4.0,-2.0,2.0,1650914543828560.0,0
1143,1.0,1.0,5.0,6.0,16.0,15.0,3.0,2.0,1650914543828560.0,0
1144,3.0,2.0,1.0,6.0,11.0,20.0,5.0,2.0,1650914543829556.0,0
1145,2.0,0.0,-2.0,-3.0,-9.0,-20.0,-6.0,1.0,1650914543829556.0,0
1146,-1.0,-4.0,-8.0,-10.0,-13.0,-5.0,-5.0,-4.0,1650914543842565.0,0
1147,-1.0,-1.0,2.0,1.0,-4.0,2.0,-1.0,1.0,1650914543842565.0,0
1148,-2.0,-1.0,-1.0,-1.0,0.0,-9.0,-1.0,-2.0,1650914543850660.0,0
1149,1.0,1.0,1.0,1.0,5.0,5.0,2.0,-1.0,1650914543850660.0,0
1150,-6.0,-3.0,-1.0,-2.0,-3.0,-1.0,-3.0,-1.0,1650914543874600.0,0
1151,-1.0,0.0,-2.0,-2.0,-23.0,-31.0,-7.0,-3.0,1650914543874600.0,0
1152,-1.0,-3.0,1.0,-1.0,-11.0,-3.0,-6.0,-2.0,1650914543875601.0,0
1153,0.0,-1.0,-7.0,-5.0,23.0,30.0,9.0,0.0,1650914543875601.0,0
1154,3.0,3.0,2.0,6.0,18.0,16.0,7.0,2.0,1650914543888914.0,0
1155,0.0,1.0,0.0,5.0,8.0,6.0,5.0,3.0,1650914543888914.0,0
1156,0.0,-2.0,-3.0,0.0,-6.0,-6.0,-2.0,0.0,1650914543889749.0,0
1157,-2.0,-1.0,-2.0,-7.0,-21.0,-16.0,-7.0,-2.0,1650914543889749.0,0
1158,-1.0,-2.0,-2.0,-8.0,-24.0,-28.0,-9.0,-5.0,1650914543902881.0,0
1159,-1.0,-2.0,-2.0,-4.0,-13.0,-17.0,-3.0,-3.0,1650914543902881.0,0
1160,0.0,0.0,0.0,2.0,24.0,16.0,3.0,0.0,1650914543909858.0,0
1161,3.0,3.0,5.0,9.0,20.0,35.0,8.0,4.0,1650914543909858.0,0
1162,3.0,2.0,2.0,3.0,11.0,16.0,7.0,2.0,1650914543926610.0,0
1163,-1.0,2.0,-1.0,-1.0,-1.0,6.0,1.0,1.0,1650914543926610.0,0
1164,-3.0,0.0,-6.0,-3.0,-16.0,-18.0,-6.0,-2.0,1650914543927451.0,0
1165,-2.0,-1.0,-2.0,-10.0,-26.0,-53.0,-13.0,-4.0,1650914543927451.0,0
1166,-3.0,-3.0,2.0,0.0,-6.0,9.0,-6.0,-3.0,1650914543956486.0,0
1167,-1.0,-2.0,-2.0,1.0,15.0,32.0,5.0,-2.0,1650914543956486.0,0
1168,1.0,-2.0,5.0,7.0,16.0,15.0,9.0,3.0,1650914543957322.0,0
1169,1.0,2.0,2.0,4.0,4.0,-4.0,2.0,2.0,1650914543957322.0,0
1170,0.0,0.0,-3.0,1.0,0.0,-11.0,-1.0,-2.0,1650914543963752.0,0
1171,-1.0,-2.0,2.0,-2.0,0.0,-6.0,-3.0,-2.0,1650914543963752.0,0
1172,-1.0,-2.0,-5.0,-9.0,-16.0,-12.0,-8.0,-2.0,1650914543970469.0,0
1173,-3.0,-3.0,5.0,1.0,-10.0,-1.0,-2.0,-4.0,1650914543970469.0,0
1174,0.0,0.0,1.0,1.0,-3.0,7.0,0.0,1.0,1650914543986627.0,0
1175,3.0,2.0,-2.0,7.0,33.0,21.0,9.0,4.0,1650914543986627.0,0
1176,1.0,3.0,3.0,5.0,15.0,10.0,8.0,3.0,1650914543987660.0,0
1177,-2.0,-1.0,-4.0,-7.0,-20.0,-18.0,-5.0,-2.0,1650914543987660.0,0
1178,-1.0,2.0,-1.0,-2.0,-5.0,-8.0,-5.0,-1.0,1650914544009113.0,0
1179,-4.0,-5.0,-3.0,-3.0,-7.0,-2.0,-8.0,-3.0,1650914544009113.0,0
1180,1.0,-1.0,2.0,-3.0,-14.0,-24.0,-6.0,-2.0,1650914544009858.0,0
1181,1.0,-1.0,-1.0,-2.0,0.0,6.0,1.0,1.0,1650914544009858.0,0
1182,0.0,-3.0,-5.0,-2.0,14.0,30.0,11.0,0.0,1650914544023938.0,0
1183,1.0,3.0,6.0,5.0,13.0,6.0,5.0,2.0,1650914544023938.0,0
1184,0.0,-1.0,-4.0,-2.0,-2.0,-3.0,-3.0,-2.0,1650914544030014.0,0
1185,-3.0,0.0,3.0,1.0,-17.0,-30.0,-7.0,-3.0,1650914544030014.0,0
1186,-1.0,-2.0,-4.0,-3.0,-2.0,-20.0,-6.0,-3.0,1650914544045687.0,0
1187,1.0,-1.0,1.0,-3.0,1.0,26.0,1.0,0.0,1650914544045687.0,0
1188,0.0,0.0,-3.0,1.0,1.0,29.0,7.0,0.0,1650914544054214.0,0
1189,1.0,2.0,5.0,6.0,12.0,2.0,3.0,3.0,1650914544054214.0,0
1190,0.0,1.0,3.0,4.0,-3.0,-22.0,-3.0,2.0,1650914544068917.0,0
1191,-1.0,-1.0,-3.0,-5.0,-13.0,-24.0,-7.0,-4.0,1650914544068917.0,0
1192,-3.0,-2.0,0.0,-4.0,-2.0,6.0,-2.0,-4.0,1650914544069758.0,0
1193,-3.0,-2.0,-4.0,-4.0,2.0,16.0,0.0,-2.0,1650914544069758.0,0
1194,0.0,0.0,1.0,-1.0,-12.0,-17.0,-3.0,1.0,1650914544082560.0,0
1195,0.0,-1.0,1.0,1.0,-2.0,-4.0,-2.0,-2.0,1650914544082560.0,0
1196,0.0,1.0,2.0,3.0,17.0,20.0,6.0,2.0,1650914544098218.0,0
1197,1.0,1.0,0.0,1.0,6.0,7.0,0.0,-1.0,1650914544098218.0,0
1198,-2.0,-2.0,0.0,-1.0,-4.0,-3.0,-2.0,0.0,1650914544106247.0,0
1199,0.0,1.0,-4.0,-6.0,-12.0,-9.0,-6.0,-2.0,1650914544106247.0,0
1200,-1.0,-2.0,-4.0,-5.0,-8.0,-20.0,-7.0,-3.0,1650914544107196.0,0
1201,-2.0,-1.0,-1.0,-1.0,-2.0,-10.0,-4.0,-2.0,1650914544107196.0,0
1202,1.0,1.0,-1.0,2.0,5.0,12.0,5.0,2.0,1650914544129583.0,0
1203,0.0,1.0,2.0,2.0,11.0,24.0,5.0,1.0,1650914544129583.0,0
1204,0.0,1.0,1.0,3.0,-7.0,-13.0,0.0,1.0,1650914544129858.0,0
1205,0.0,-1.0,-4.0,-1.0,9.0,2.0,1.0,2.0,1650914544129858.0,0
1206,-1.0,-1.0,1.0,-1.0,-5.0,-1.0,-3.0,-3.0,1650914544143035.0,0
1207,-2.0,-1.0,-2.0,-1.0,2.0,-2.0,-6.0,-3.0,1650914544143035.0,0
1208,0.0,0.0,1.0,1.0,-2.0,-5.0,-1.0,-1.0,1650914544151144.0,0
1209,0.0,0.0,-1.0,-1.0,-6.0,11.0,5.0,1.0,1650914544151144.0,0
1210,-2.0,0.0,-3.0,-1.0,-1.0,-3.0,2.0,0.0,1650914544166843.0,0
1211,-2.0,-1.0,-1.0,0.0,-6.0,-11.0,0.0,0.0,1650914544166843.0,0
1212,-2.0,-2.0,-2.0,-9.0,-12.0,-23.0,-9.0,-4.0,1650914544167779.0,0
1213,0.0,-1.0,-1.0,-5.0,-16.0,3.0,-4.0,-2.0,1650914544167779.0,0
1214,-1.0,0.0,6.0,2.0,16.0,10.0,3.0,0.0,1650914544189051.0,0
1215,4.0,0.0,-1.0,7.0,12.0,28.0,8.0,2.0,1650914544189051.0,0
1216,1.0,2.0,2.0,8.0,28.0,18.0,4.0,2.0,1650914544189853.0,0
1217,0.0,0.0,-1.0,2.0,1.0,-1.0,2.0,3.0,1650914544189853.0,0
1218,0.0,-1.0,-6.0,-7.0,-14.0,-12.0,-5.0,-2.0,1650914544210842.0,0
1219,-2.0,-3.0,-1.0,-6.0,-21.0,-33.0,-8.0,-2.0,1650914544210842.0,0
1220,-3.0,-4.0,-8.0,-10.0,-26.0,-27.0,-10.0,-3.0,1650914544212826.0,0
1221,0.0,-2.0,2.0,1.0,2.0,11.0,1.0,-3.0,1650914544212826.0,0
1222,2.0,1.0,0.0,7.0,15.0,20.0,5.0,3.0,1650914544226977.0,0
1223,2.0,1.0,2.0,4.0,15.0,4.0,3.0,2.0,1650914544226977.0,0
1224,1.0,3.0,5.0,4.0,14.0,11.0,4.0,1.0,1650914544231951.0,0
1225,-3.0,0.0,-3.0,-5.0,-11.0,-10.0,-4.0,-1.0,1650914544231951.0,0
1226,-2.0,-1.0,0.0,-4.0,-5.0,-2.0,-4.0,0.0,1650914544248807.0,0
1227,-2.0,0.0,0.0,-2.0,-6.0,-2.0,-3.0,-3.0,1650914544248807.0,0
1228,0.0,-1.0,-3.0,-1.0,-6.0,-1.0,1.0,-1.0,1650914544249771.0,0
1229,1.0,2.0,0.0,0.0,-5.0,-17.0,-3.0,-2.0,1650914544249771.0,0
1230,-2.0,-1.0,-1.0,0.0,2.0,3.0,0.0,-3.0,1650914544263169.0,0
1231,-3.0,-2.0,-4.0,-2.0,0.0,-6.0,2.0,2.0,1650914544263169.0,0
1232,1.0,2.0,5.0,2.0,5.0,15.0,4.0,2.0,1650914544278968.0,0
1233,-1.0,-3.0,-2.0,-2.0,-6.0,3.0,1.0,0.0,1650914544278968.0,0
1234,-1.0,-1.0,-2.0,-5.0,-1.0,-26.0,-5.0,-2.0,1650914544294584.0,0
1235,-1.0,-1.0,0.0,-2.0,-2.0,14.0,-3.0,-1.0,1650914544294584.0,0
1236,0.0,0.0,1.0,5.0,8.0,16.0,6.0,2.0,1650914544295444.0,0
1237,1.0,0.0,-2.0,1.0,12.0,-1.0,0.0,0.0,1650914544295444.0,0
1238,1.0,0.0,2.0,0.0,-14.0,-10.0,-2.0,-2.0,1650914544308774.0,0
1239,-2.0,-1.0,-4.0,0.0,7.0,1.0,1.0,-1.0,1650914544308774.0,0
1240,-1.0,0.0,3.0,2.0,2.0,4.0,-2.0,0.0,1650914544310606.0,0
1241,-2.0,-3.0,-2.0,-5.0,3.0,12.0,0.0,0.0,1650914544310606.0,0
1242,-4.0,-2.0,-2.0,-4.0,-11.0,-16.0,-3.0,0.0,1650914544322961.0,0
1243,0.0,-1.0,-2.0,-2.0,-11.0,-15.0,-2.0,-1.0,1650914544322961.0,0
1244,-1.0,-2.0,-1.0,-3.0,-2.0,4.0,1.0,-1.0,1650914544331017.0,0
1245,-1.0,-1.0,-2.0,0.0,8.0,-9.0,-1.0,0.0,1650914544331017.0,0
1246,0.0,-2.0,-3.0,-2.0,-7.0,10.0,-3.0,-3.0,1650914544346510.0,0
1247,-1.0,-1.0,1.0,1.0,9.0,4.0,2.0,0.0,1650914544346510.0,0
1248,1.0,-1.0,0.0,1.0,1.0,1.0,3.0,2.0,1650914544347344.0,0
1249,1.0,1.0,-1.0,-3.0,-3.0,8.0,-1.0,-1.0,1650914544347344.0,0
1250,2.0,-2.0,-1.0,-3.0,-9.0,-9.0,0.0,-1.0,1650914544369506.0,0
1251,-2.0,0.0,-1.0,-3.0,-16.0,-23.0,-5.0,-2.0,1650914544369506.0,0
1252,-3.0,-1.0,1.0,0.0,13.0,-6.0,-2.0,-1.0,1650914544369858.0,0
1253,-1.0,-1.0,0.0,1.0,13.0,38.0,3.0,-1.0,1650914544369858.0,0
1254,0.0,0.0,2.0,2.0,3.0,3.0,4.0,0.0,1650914544382985.0,0
1255,2.0,1.0,0.0,3.0,4.0,20.0,3.0,0.0,1650914544382985.0,0
1256,-1.0,1.0,0.0,-1.0,-11.0,-10.0,-4.0,1.0,1650914544390805.0,0
1257,-1.0,0.0,-1.0,0.0,2.0,-13.0,-1.0,-1.0,1650914544390805.0,0
1258,0.0,0.0,-2.0,-2.0,0.0,1.0,-1.0,-2.0,1650914544406185.0,0
1259,0.0,-1.0,0.0,-5.0,-12.0,-22.0,-5.0,-2.0,1650914544406185.0,0
1260,-4.0,-2.0,-1.0,-5.0,-10.0,-11.0,-2.0,-5.0,1650914544407183.0,0
1261,1.0,0.0,-2.0,-2.0,-6.0,-5.0,-1.0,1.0,1650914544407183.0,0
1262,-1.0,-3.0,-1.0,2.0,7.0,11.0,-1.0,0.0,1650914544429621.0,0
1263,0.0,-1.0,0.0,0.0,4.0,-3.0,0.0,1.0,1650914544429621.0,0
1264,0.0,0.0,-2.0,3.0,14.0,23.0,2.0,-1.0,1650914544430859.0,0
1265,-1.0,-1.0,3.0,1.0,1.0,10.0,0.0,-1.0,1650914544430859.0,0
1266,0.0,4.0,-2.0,-1.0,-10.0,-31.0,-3.0,-2.0,1650914544443071.0,0
1267,0.0,-1.0,0.0,-3.0,0.0,9.0,-3.0,-1.0,1650914544443071.0,0
1268,-1.0,-3.0,-1.0,-3.0,-19.0,-7.0,-5.0,-1.0,1650914544458963.0,0
1269,0.0,2.0,1.0,5.0,21.0,10.0,4.0,3.0,1650914544458963.0,0
1270,-2.0,1.0,2.0,2.0,15.0,14.0,2.0,1.0,1650914544466007.0,0
1271,-1.0,1.0,2.0,4.0,-1.0,1.0,3.0,0.0,1650914544466007.0,0
1272,1.0,-1.0,-2.0,-5.0,-21.0,-16.0,-4.0,-1.0,1650914544467841.0,0
1273,-2.0,-2.0,-1.0,-2.0,-6.0,-13.0,-3.0,-3.0,1650914544467841.0,0
1274,-1.0,-3.0,-3.0,-3.0,4.0,1.0,-3.0,-1.0,1650914544489197.0,0
1275,-1.0,-2.0,1.0,-1.0,-1.0,2.0,1.0,-2.0,1650914544489197.0,0
1276,1.0,-2.0,-3.0,-1.0,7.0,9.0,2.0,0.0,1650914544489858.0,0
1277,0.0,-1.0,0.0,1.0,-8.0,-8.0,2.0,0.0,1650914544489858.0,0
1278,-1.0,-2.0,3.0,0.0,5.0,-1.0,-2.0,1.0,1650914544511398.0,0
1279,-1.0,-3.0,-1.0,-3.0,-10.0,-8.0,-5.0,-2.0,1650914544511398.0,0
1280,1.0,3.0,-4.0,-1.0,1.0,11.0,-1.0,-1.0,1650914544512231.0,0
1281,0.0,-3.0,0.0,1.0,2.0,7.0,-1.0,-1.0,1650914544512231.0,0
1282,2.0,3.0,1.0,4.0,7.0,12.0,5.0,3.0,1650914544527052.0,0
1283,-1.0,1.0,2.0,2.0,-4.0,-7.0,0.0,0.0,1650914544527052.0,0
1284,0.0,-1.0,-1.0,0.0,-2.0,-23.0,-4.0,-2.0,1650914544528035.0,0
1285,-2.0,-1.0,1.0,0.0,-5.0,8.0,0.0,-2.0,1650914544528035.0,0
1286,-2.0,-2.0,-3.0,-1.0,-7.0,5.0,0.0,-1.0,1650914544548873.0,0
1287,2.0,0.0,0.0,2.0,25.0,13.0,2.0,3.0,1650914544548873.0,0
1288,-1.0,-2.0,-2.0,-4.0,-11.0,-12.0,-2.0,-2.0,1650914544549854.0,0
1289,0.0,1.0,-2.0,-5.0,-10.0,-13.0,-1.0,-3.0,1650914544549854.0,0
1290,-1.0,-2.0,-3.0,0.0,-3.0,12.0,-3.0,-2.0,1650914544571882.0,0
1291,0.0,1.0,-2.0,-2.0,-4.0,5.0,4.0,1.0,1650914544571882.0,0
1292,-1.0,-2.0,0.0,2.0,12.0,-2.0,2.0,1.0,1650914544572775.0,0
1293,-1.0,0.0,0.0,-1.0,5.0,1.0,0.0,0.0,1650914544572775.0,0
1294,0.0,0.0,-1.0,-5.0,-16.0,-17.0,-7.0,-4.0,1650914544586538.0,0
1295,-3.0,-2.0,-4.0,-6.0,-11.0,-9.0,-6.0,-5.0,1650914544586538.0,0
1296,-3.0,-3.0,2.0,-1.0,6.0,16.0,3.0,0.0,1650914544587537.0,0
1297,2.0,1.0,0.0,3.0,10.0,5.0,4.0,3.0,1650914544587537.0,0
1298,0.0,1.0,4.0,6.0,9.0,12.0,6.0,2.0,1650914544609246.0,0
1299,0.0,1.0,-1.0,1.0,9.0,6.0,2.0,1.0,1650914544609246.0,0
1300,-1.0,0.0,-1.0,-1.0,-12.0,-14.0,-6.0,-5.0,1650914544609854.0,0
1301,-2.0,-3.0,-3.0,-2.0,-14.0,-9.0,-5.0,-1.0,1650914544609854.0,0
1302,-1.0,-1.0,-1.0,-2.0,4.0,0.0,-1.0,-2.0,1650914544631069.0,0
1303,-1.0,-4.0,-2.0,-5.0,-9.0,-34.0,-2.0,0.0,1650914544631069.0,0
1304,-1.0,1.0,-1.0,1.0,3.0,24.0,-1.0,1.0,1650914544632102.0,0
1305,0.0,-1.0,1.0,-3.0,-19.0,-21.0,-1.0,-1.0,1650914544632102.0,0
1306,0.0,0.0,0.0,4.0,25.0,44.0,8.0,3.0,1650914544646266.0,0
1307,1.0,2.0,1.0,2.0,4.0,6.0,-1.0,1.0,1650914544646266.0,0
1308,-2.0,-2.0,-3.0,-5.0,-17.0,-34.0,-4.0,-2.0,1650914544647267.0,0
1309,-2.0,0.0,-3.0,0.0,-4.0,6.0,-4.0,-1.0,1650914544647267.0,0
1310,1.0,-2.0,-1.0,0.0,-2.0,-5.0,1.0,0.0,1650914544669601.0,0
1311,1.0,2.0,2.0,5.0,15.0,16.0,4.0,0.0,1650914544669601.0,0
1312,-2.0,2.0,2.0,4.0,13.0,11.0,4.0,0.0,1650914544670434.0,0
1313,-1.0,-2.0,-1.0,-1.0,-2.0,-11.0,-2.0,-1.0,1650914544670434.0,0
1314,-1.0,-2.0,-4.0,-7.0,-15.0,-15.0,-2.0,-2.0,1650914544698883.0,0
1315,-4.0,-3.0,-2.0,-5.0,-13.0,-10.0,-5.0,-3.0,1650914544698883.0,0
1316,0.0,-2.0,-2.0,-3.0,-3.0,-5.0,0.0,2.0,1650914544699881.0,0
1317,0.0,0.0,2.0,2.0,14.0,19.0,3.0,1.0,1650914544699881.0,0
1318,2.0,1.0,2.0,2.0,8.0,13.0,0.0,1.0,1650914544706019.0,0
1319,0.0,-2.0,-2.0,-2.0,-4.0,-2.0,-3.0,0.0,1650914544706019.0,0
1320,0.0,-1.0,-1.0,-2.0,-7.0,-7.0,-2.0,1.0,1650914544713264.0,0
1321,-1.0,-1.0,-1.0,-5.0,-21.0,-46.0,-6.0,-2.0,1650914544713264.0,0
1322,-2.0,-2.0,-1.0,-2.0,6.0,9.0,-1.0,-2.0,1650914544728753.0,0
1323,-1.0,2.0,3.0,4.0,12.0,32.0,7.0,1.0,1650914544728753.0,0
1324,1.0,1.0,2.0,2.0,6.0,15.0,4.0,0.0,1650914544729626.0,0
1325,0.0,2.0,-2.0,1.0,6.0,0.0,1.0,1.0,1650914544729626.0,0
1326,-2.0,-1.0,0.0,-3.0,-19.0,-33.0,-7.0,-2.0,1650914544751551.0,0
1327,-3.0,-1.0,-4.0,-8.0,-20.0,-10.0,-6.0,-3.0,1650914544751551.0,0
1328,-3.0,-1.0,-1.0,1.0,8.0,12.0,3.0,0.0,1650914544752386.0,0
1329,0.0,1.0,-1.0,5.0,22.0,24.0,4.0,-1.0,1650914544752386.0,0
1330,1.0,2.0,1.0,2.0,1.0,-4.0,1.0,2.0,1650914544774367.0,0
1331,0.0,1.0,-1.0,-3.0,-12.0,-10.0,1.0,0.0,1650914544774367.0,0
1332,-1.0,-1.0,-2.0,-4.0,-5.0,-3.0,-5.0,-1.0,1650914544775325.0,0
1333,-1.0,-2.0,-1.0,-1.0,-5.0,-18.0,-3.0,-1.0,1650914544775325.0,0
1334,-2.0,-1.0,0.0,0.0,0.0,1.0,-2.0,-2.0,1650914544789452.0,0
1335,0.0,-1.0,1.0,2.0,8.0,13.0,2.0,0.0,1650914544789452.0,0
1336,1.0,1.0,2.0,3.0,1.0,5.0,5.0,1.0,1650914544790285.0,0
1337,-1.0,1.0,-3.0,-1.0,6.0,7.0,0.0,-1.0,1650914544790285.0,0
1338,0.0,0.0,-5.0,-5.0,-6.0,-9.0,-7.0,-2.0,1650914544811179.0,0
1339,-2.0,-1.0,-1.0,-5.0,-36.0,-37.0,-1.0,-2.0,1650914544811179.0,0
1340,-2.0,-2.0,0.0,-1.0,19.0,13.0,-3.0,-2.0,1650914544813046.0,0
1341,-1.0,-1.0,0.0,2.0,13.0,27.0,6.0,3.0,1650914544813046.0,0
1342,0.0,0.0,0.0,1.0,-1.0,6.0,-2.0,-1.0,1650914544826497.0,0
1343,0.0,3.0,-2.0,1.0,-3.0,-8.0,5.0,0.0,1650914544826497.0,0
1344,-1.0,-2.0,-1.0,-2.0,-14.0,-21.0,-4.0,-2.0,1650914544832532.0,0
1345,-2.0,-1.0,-2.0,-6.0,-9.0,-15.0,-5.0,-1.0,1650914544832532.0,0
1346,-1.0,-2.0,0.0,-2.0,-11.0,0.0,-5.0,-1.0,1650914544849039.0,0
1347,0.0,-2.0,1.0,2.0,21.0,7.0,-1.0,-2.0,1650914544849039.0,0
1348,2.0,0.0,3.0,3.0,14.0,13.0,5.0,1.0,1650914544849853.0,0
1349,2.0,1.0,3.0,3.0,6.0,11.0,0.0,0.0,1650914544849853.0,0
1350,-2.0,0.0,-2.0,1.0,3.0,0.0,1.0,1.0,1650914544871860.0,0
1351,-1.0,1.0,-4.0,-4.0,-10.0,-20.0,-3.0,-2.0,1650914544871860.0,0
1352,0.0,0.0,-1.0,0.0,-4.0,1.0,-1.0,-2.0,1650914544872732.0,0
1353,-2.0,-1.0,-1.0,2.0,4.0,20.0,-3.0,-2.0,1650914544872732.0,0
1354,1.0,0.0,2.0,2.0,13.0,12.0,11.0,1.0,1650914544894465.0,0
1355,-1.0,0.0,1.0,0.0,1.0,2.0,-3.0,-1.0,1650914544894465.0,0
1356,1.0,0.0,-4.0,-4.0,-13.0,-24.0,-3.0,-1.0,1650914544900745.0,0
1357,1.0,-3.0,-2.0,-6.0,-16.0,-15.0,-5.0,-2.0,1650914544900745.0,0
1358,-4.0,-3.0,-1.0,0.0,1.0,2.0,2.0,-1.0,1650914544909649.0,0
1359,1.0,-3.0,-1.0,2.0,13.0,12.0,3.0,1.0,1650914544909649.0,0
1360,-3.0,-3.0,0.0,0.0,-12.0,-10.0,-8.0,-3.0,1650914544909857.0,0
1361,-3.0,-2.0,-1.0,0.0,-1.0,0.0,1.0,-3.0,1650914544909857.0,0
1362,-1.0,1.0,-2.0,-2.0,-2.0,-1.0,2.0,4.0,1650914544931020.0,0
1363,-4.0,-2.0,2.0,-1.0,4.0,-2.0,-4.0,-6.0,1650914544931020.0,0
1364,0.0,-3.0,-1.0,-1.0,-4.0,0.0,-4.0,-4.0,1650914544933014.0,0
1365,6.0,1.0,1.0,1.0,0.0,8.0,8.0,16.0,1650914544933014.0,0
1366,0.0,-2.0,1.0,3.0,8.0,8.0,2.0,-14.0,1650914544945366.0,0
1367,-1.0,0.0,-1.0,1.0,0.0,4.0,-2.0,0.0,1650914544945366.0,0
1368,-5.0,-1.0,0.0,0.0,-3.0,-9.0,-4.0,8.0,1650914544952524.0,0
1369,4.0,0.0,0.0,-2.0,2.0,-7.0,1.0,0.0,1650914544952524.0,0
1370,3.0,0.0,0.0,1.0,-2.0,-2.0,-3.0,3.0,1650914544968834.0,0
1371,-5.0,-3.0,1.0,-1.0,6.0,5.0,4.0,-9.0,1650914544968834.0,0
1372,-5.0,3.0,-1.0,-4.0,-17.0,-14.0,-3.0,0.0,1650914544969677.0,0
1373,0.0,-1.0,-3.0,-2.0,0.0,7.0,-5.0,-10.0,1650914544969677.0,0
1374,-4.0,1.0,0.0,-3.0,-8.0,-1.0,1.0,0.0,1650914544991179.0,0
1375,0.0,4.0,4.0,5.0,17.0,21.0,3.0,17.0,1650914544991179.0,0
1376,0.0,-6.0,-2.0,5.0,9.0,3.0,9.0,5.0,1650914544992015.0,0
1377,-1.0,-5.0,0.0,-1.0,3.0,-7.0,-4.0,-21.0,1650914544992015.0,0
1378,2.0,-2.0,5.0,0.0,-2.0,-2.0,-4.0,-4.0,1650914545004789.0,0
1379,6.0,9.0,10.0,2.0,-9.0,-4.0,1.0,-17.0,1650914545004789.0,0
1380,-14.0,-10.0,-23.0,-7.0,-2.0,2.0,1.0,3.0,1650914545013948.0,0
1381,6.0,12.0,37.0,7.0,-4.0,-5.0,2.0,9.0,1650914545013948.0,0
1382,-7.0,-25.0,-59.0,-16.0,-21.0,-40.0,-8.0,-5.0,1650914545029071.0,0
1383,-2.0,-3.0,2.0,-5.0,-8.0,-5.0,-2.0,19.0,1650914545029071.0,0
1384,23.0,13.0,23.0,6.0,23.0,54.0,11.0,8.0,1650914545029909.0,0
1385,-4.0,-14.0,-29.0,7.0,25.0,22.0,7.0,-2.0,1650914545029909.0,0
1386,0.0,22.0,41.0,8.0,17.0,17.0,5.0,-11.0,1650914545052033.0,0
1387,5.0,-8.0,-24.0,-5.0,-14.0,-25.0,-6.0,-1.0,1650914545052033.0,0
1388,-3.0,-1.0,5.0,-2.0,-16.0,-27.0,-3.0,-9.0,1650914545052901.0,0
1389,3.0,1.0,-12.0,-15.0,-19.0,-2.0,-4.0,2.0,1650914545052901.0,0
1390,4.0,5.0,19.0,5.0,2.0,2.0,1.0,17.0,1650914545081184.0,0
1391,5.0,4.0,-7.0,-1.0,5.0,3.0,2.0,-4.0,1650914545081184.0,0
1392,-18.0,4.0,1.0,1.0,-1.0,-5.0,-6.0,2.0,1650914545082182.0,0
1393,-9.0,-6.0,-6.0,0.0,-13.0,-36.0,-12.0,-19.0,1650914545082182.0,0
1394,-3.0,-2.0,-4.0,-3.0,-12.0,-4.0,-3.0,-4.0,1650914545088191.0,0
1395,6.0,-6.0,4.0,0.0,16.0,34.0,9.0,2.0,1650914545088191.0,0
1396,3.0,10.0,17.0,14.0,37.0,30.0,11.0,14.0,1650914545090160.0,0
1397,7.0,4.0,5.0,9.0,0.0,2.0,2.0,19.0,1650914545090160.0,0
1398,-8.0,-4.0,-18.0,-7.0,-9.0,-9.0,-5.0,-9.0,1650914545111279.0,0
1399,-15.0,3.0,7.0,-2.0,-12.0,-15.0,-11.0,-14.0,1650914545111279.0,0
1400,-1.0,-7.0,-5.0,-2.0,2.0,4.0,3.0,-7.0,1650914545112256.0,0
1401,-6.0,-1.0,-13.0,-3.0,11.0,3.0,4.0,1.0,1650914545112256.0,0
1402,4.0,3.0,16.0,5.0,-4.0,-13.0,-5.0,-10.0,1650914545125393.0,0
1403,-5.0,-6.0,-16.0,-7.0,1.0,-3.0,-5.0,3.0,1650914545125393.0,0
1404,4.0,-3.0,-8.0,-7.0,-12.0,4.0,-3.0,-4.0,1650914545133559.0,0
1405,-8.0,0.0,5.0,0.0,-5.0,5.0,0.0,-17.0,1650914545133559.0,0
1406,7.0,1.0,2.0,8.0,7.0,3.0,5.0,12.0,1650914545151004.0,0
1407,0.0,3.0,6.0,-5.0,1.0,-5.0,1.0,-3.0,1650914545151004.0,0
1408,-11.0,-23.0,-29.0,-11.0,-10.0,-21.0,-11.0,-22.0,1650914545155579.0,0
1409,-8.0,5.0,3.0,-1.0,-4.0,1.0,-4.0,0.0,1650914545155579.0,0
1410,2.0,-2.0,1.0,-6.0,-16.0,-26.0,-4.0,14.0,1650914545172366.0,0
1411,1.0,-7.0,-4.0,3.0,-1.0,-1.0,-5.0,-4.0,1650914545172366.0,0
1412,7.0,0.0,-4.0,-6.0,6.0,20.0,0.0,-3.0,1650914545173399.0,0
1413,-4.0,-2.0,8.0,6.0,18.0,15.0,8.0,7.0,1650914545173399.0,0
1414,-4.0,-1.0,-6.0,4.0,23.0,25.0,6.0,2.0,1650914545185877.0,0
1415,3.0,2.0,2.0,-1.0,-19.0,-18.0,-4.0,-4.0,1650914545185877.0,0
1416,1.0,0.0,-15.0,-11.0,-9.0,-13.0,-6.0,16.0,1650914545193584.0,0
1417,-1.0,-2.0,-9.0,-11.0,-15.0,-5.0,-6.0,1.0,1650914545193584.0,0
1418,-9.0,4.0,21.0,11.0,9.0,-2.0,0.0,-8.0,1650914545209149.0,0
1419,6.0,0.0,-10.0,0.0,-5.0,0.0,5.0,16.0,1650914545209149.0,0
1420,-8.0,-8.0,6.0,3.0,7.0,7.0,-1.0,-16.0,1650914545209855.0,0
1421,-2.0,-3.0,7.0,1.0,4.0,-2.0,-4.0,-5.0,1650914545209855.0,0
1422,11.0,9.0,7.0,2.0,7.0,8.0,1.0,9.0,1650914545231799.0,0
1423,-34.0,-7.0,-1.0,-2.0,-7.0,-6.0,-7.0,-31.0,1650914545231799.0,0
1424,1.0,-1.0,-21.0,-6.0,-11.0,-12.0,2.0,-5.0,1650914545236947.0,0
1425,4.0,1.0,-11.0,-3.0,3.0,1.0,-2.0,-9.0,1650914545236947.0,0
1426,-1.0,-10.0,4.0,-5.0,-6.0,-3.0,-3.0,-1.0,1650914545244970.0,0
1427,6.0,-1.0,5.0,1.0,4.0,9.0,6.0,8.0,1650914545244970.0,0
1428,10.0,9.0,7.0,6.0,-4.0,-17.0,2.0,12.0,1650914545253981.0,0
1429,-14.0,-4.0,1.0,-3.0,-20.0,-23.0,-6.0,-7.0,1650914545253981.0,0
1430,8.0,1.0,-8.0,-2.0,1.0,32.0,-1.0,-14.0,1650914545268181.0,0
1431,1.0,2.0,1.0,3.0,11.0,5.0,3.0,8.0,1650914545268181.0,0
1432,6.0,7.0,11.0,11.0,21.0,29.0,5.0,7.0,1650914545270173.0,0
1433,-2.0,-4.0,-6.0,-4.0,1.0,-8.0,2.0,8.0,1650914545270173.0,0
1434,3.0,0.0,6.0,1.0,4.0,-7.0,4.0,9.0,1650914545291328.0,0
1435,-5.0,-12.0,-14.0,-4.0,-2.0,-2.0,1.0,9.0,1650914545291328.0,0
1436,4.0,7.0,13.0,-1.0,-16.0,-8.0,-6.0,-8.0,1650914545292197.0,0
1437,-1.0,-3.0,-15.0,-13.0,-16.0,-10.0,-5.0,1.0,1650914545292197.0,0
1438,-5.0,1.0,8.0,2.0,-10.0,-12.0,-6.0,2.0,1650914545305354.0,0
1439,2.0,9.0,13.0,8.0,13.0,1.0,-2.0,-13.0,1650914545305354.0,0
1440,3.0,10.0,16.0,3.0,4.0,-3.0,4.0,7.0,1650914545313373.0,0
1441,-6.0,-4.0,0.0,1.0,6.0,12.0,-4.0,-17.0,1650914545313373.0,0
1442,8.0,-7.0,-25.0,-9.0,-2.0,6.0,5.0,23.0,1650914545328381.0,0
1443,-1.0,4.0,2.0,4.0,-2.0,-6.0,-3.0,-4.0,1650914545328381.0,0
1444,1.0,-2.0,6.0,-2.0,-8.0,-13.0,-1.0,3.0,1650914545330372.0,0
1445,5.0,-8.0,-17.0,-10.0,-11.0,-4.0,0.0,-13.0,1650914545330372.0,0
1446,-4.0,-8.0,3.0,7.0,12.0,6.0,0.0,1.0,1650914545359238.0,0
1447,0.0,7.0,10.0,3.0,-1.0,7.0,4.0,6.0,1650914545359238.0,0
1448,-5.0,-3.0,-5.0,-2.0,2.0,-3.0,0.0,-6.0,1650914545360079.0,0
1449,14.0,8.0,13.0,4.0,8.0,2.0,4.0,17.0,1650914545360079.0,0
1450,2.0,3.0,1.0,-4.0,-14.0,-19.0,-3.0,-4.0,1650914545365069.0,0
1451,-3.0,-4.0,-19.0,-8.0,-16.0,-23.0,-3.0,0.0,1650914545365069.0,0
1452,0.0,1.0,4.0,3.0,3.0,22.0,-6.0,-6.0,1650914545373373.0,0
1453,-4.0,-7.0,-5.0,7.0,19.0,32.0,12.0,7.0,1650914545373373.0,0
1454,4.0,19.0,14.0,5.0,17.0,-1.0,2.0,-10.0,1650914545389252.0,0
1455,-2.0,-19.0,-12.0,1.0,14.0,35.0,0.0,-4.0,1650914545389252.0,0
1456,-3.0,-2.0,1.0,-10.0,-18.0,-1.0,1.0,3.0,1650914545389859.0,0
1457,-3.0,-3.0,-8.0,-6.0,-19.0,-25.0,-8.0,-18.0,1650914545389859.0,0
1458,-8.0,-1.0,2.0,-7.0,-17.0,-16.0,-4.0,-10.0,1650914545411183.0,0
1459,4.0,2.0,4.0,-9.0,-5.0,-16.0,-1.0,5.0,1650914545411183.0,0
1460,-7.0,-15.0,-14.0,7.0,9.0,-5.0,0.0,1.0,1650914545413051.0,0
1461,2.0,3.0,5.0,-2.0,-9.0,1.0,-4.0,7.0,1650914545413051.0,0
1462,4.0,-3.0,-7.0,-7.0,-5.0,-4.0,2.0,14.0,1650914545425150.0,0
1463,-7.0,-1.0,10.0,3.0,-3.0,-6.0,-7.0,-27.0,1650914545425150.0,0
1464,2.0,5.0,-6.0,-2.0,-1.0,2.0,0.0,-4.0,1650914545434139.0,0
1465,-6.0,-2.0,-2.0,5.0,12.0,8.0,8.0,15.0,1650914545434139.0,0
1466,2.0,-5.0,-20.0,-7.0,0.0,5.0,-1.0,-18.0,1650914545449065.0,0
1467,1.0,6.0,16.0,-2.0,-9.0,0.0,0.0,17.0,1650914545449065.0,0
1468,-7.0,-4.0,8.0,3.0,1.0,-17.0,-4.0,0.0,1650914545449857.0,0
1469,-3.0,-1.0,-6.0,-2.0,-2.0,-1.0,-1.0,-4.0,1650914545449857.0,0
1470,-3.0,-3.0,1.0,-1.0,-5.0,0.0,0.0,5.0,1650914545471138.0,0
1471,1.0,-11.0,-18.0,1.0,13.0,12.0,0.0,-14.0,1650914545471138.0,0
1472,11.0,8.0,12.0,-3.0,-6.0,2.0,5.0,25.0,1650914545473026.0,3
1473,-6.0,6.0,0.0,-1.0,-1.0,-9.0,-3.0,-9.0,1650914545473026.0,3
1474,-6.0,-2.0,10.0,2.0,6.0,-2.0,-2.0,-5.0,1650914545494059.0,3
1475,9.0,-2.0,-2.0,-4.0,-1.0,2.0,-1.0,4.0,1650914545494059.0,3
1476,-8.0,-8.0,-22.0,-2.0,-3.0,0.0,-3.0,-3.0,1650914545495059.0,3
1477,7.0,2.0,11.0,11.0,13.0,13.0,8.0,4.0,1650914545495059.0,3
1478,4.0,2.0,-1.0,0.0,-1.0,2.0,2.0,16.0,1650914545509365.0,3
1479,1.0,3.0,-5.0,-4.0,-8.0,-17.0,-6.0,-6.0,1650914545509365.0,3
1480,-8.0,-6.0,-10.0,0.0,5.0,3.0,-4.0,-21.0,1650914545509860.0,3
1481,4.0,-5.0,1.0,3.0,1.0,2.0,-2.0,8.0,1650914545509860.0,3
1482,-8.0,4.0,7.0,-3.0,6.0,0.0,0.0,-9.0,1650914545531000.0,3
1483,12.0,2.0,0.0,7.0,4.0,-2.0,6.0,39.0,1650914545531000.0,3
1484,4.0,1.0,3.0,-5.0,-12.0,-2.0,1.0,-9.0,1650914545533024.0,3
1485,6.0,4.0,2.0,1.0,-7.0,-9.0,-5.0,6.0,1650914545533024.0,3
1486,2.0,-5.0,-18.0,1.0,-4.0,4.0,-4.0,6.0,1650914545554033.0,3
1487,-7.0,6.0,19.0,7.0,5.0,2.0,-2.0,-23.0,1650914545554033.0,3
1488,4.0,5.0,6.0,-4.0,-3.0,-23.0,1.0,1.0,1650914545555034.0,3
1489,-1.0,-3.0,11.0,5.0,0.0,8.0,0.0,2.0,1650914545555034.0,3
1490,0.0,-8.0,-19.0,0.0,7.0,21.0,4.0,6.0,1650914545569305.0,3
1491,-3.0,13.0,15.0,-1.0,10.0,15.0,0.0,-1.0,1650914545569305.0,3
1492,-1.0,-2.0,3.0,5.0,-2.0,-7.0,0.0,-1.0,1650914545569858.0,3
1493,12.0,12.0,22.0,5.0,-6.0,-15.0,0.0,5.0,1650914545569858.0,3
1494,-5.0,-3.0,1.0,6.0,-6.0,-6.0,-3.0,-4.0,1650914545591287.0,3
1495,0.0,-7.0,-2.0,-9.0,-13.0,-12.0,-2.0,-2.0,1650914545591287.0,3
1496,-4.0,-11.0,-33.0,-18.0,-10.0,-13.0,-5.0,-1.0,1650914545592176.0,3
1497,-10.0,4.0,8.0,3.0,5.0,6.0,1.0,-5.0,1650914545592176.0,3
1498,5.0,0.0,7.0,7.0,13.0,8.0,3.0,-7.0,1650914545613697.0,3
1499,1.0,-2.0,-6.0,-11.0,-10.0,2.0,-1.0,-1.0,1650914545613697.0,3
1500,1.0,4.0,1.0,8.0,6.0,12.0,4.0,10.0,1650914545614697.0,3
1501,7.0,-5.0,1.0,-3.0,8.0,7.0,1.0,5.0,1650914545614697.0,3
1502,-6.0,-2.0,-13.0,3.0,4.0,-4.0,-9.0,-35.0,1650914545636053.0,3
1503,3.0,9.0,0.0,4.0,5.0,-3.0,0.0,-18.0,1650914545636053.0,3
1504,-7.0,-14.0,-16.0,-11.0,-8.0,-9.0,-2.0,1.0,1650914545637053.0,3
1505,-2.0,2.0,-2.0,-9.0,-17.0,-8.0,-2.0,0.0,1650914545637053.0,3
1506,-1.0,0.0,-7.0,-12.0,-10.0,-6.0,0.0,8.0,1650914545652569.0,3
1507,5.0,1.0,9.0,5.0,-5.0,-4.0,-4.0,10.0,1650914545652569.0,3
1508,5.0,1.0,-7.0,4.0,12.0,9.0,-2.0,-6.0,1650914545653268.0,3
1509,-18.0,-2.0,1.0,3.0,-2.0,3.0,-2.0,-18.0,1650914545653268.0,3
1510,0.0,-1.0,-1.0,2.0,19.0,12.0,8.0,6.0,1650914545674473.0,3
1511,-2.0,-3.0,-9.0,-7.0,-6.0,-1.0,2.0,7.0,1650914545674473.0,3
1512,3.0,4.0,15.0,6.0,-1.0,-1.0,3.0,12.0,1650914545675505.0,3
1513,-2.0,-3.0,-9.0,-5.0,-11.0,-11.0,-5.0,-6.0,1650914545675505.0,3
1514,-2.0,-13.0,-12.0,-2.0,-1.0,2.0,-3.0,3.0,1650914545688996.0,3
1515,-6.0,3.0,5.0,8.0,12.0,7.0,3.0,-6.0,1650914545688996.0,3
1516,16.0,11.0,13.0,0.0,2.0,3.0,-3.0,12.0,1650914545695186.0,3
1517,-3.0,-8.0,-12.0,-4.0,-1.0,-9.0,-3.0,-5.0,1650914545695186.0,3
1518,-3.0,5.0,20.0,-3.0,-20.0,-6.0,2.0,12.0,1650914545711173.0,3
1519,5.0,-3.0,3.0,-1.0,5.0,4.0,4.0,10.0,1650914545711173.0,3
1520,-3.0,2.0,-5.0,3.0,2.0,-9.0,0.0,-10.0,1650914545713056.0,3
1521,6.0,2.0,-6.0,1.0,4.0,12.0,-2.0,18.0,1650914545713056.0,3
1522,-7.0,-5.0,-13.0,0.0,-9.0,-31.0,-9.0,-15.0,1650914545733274.0,3
1523,-3.0,-14.0,-23.0,-18.0,-3.0,7.0,5.0,2.0,1650914545733274.0,3
1524,2.0,5.0,8.0,6.0,0.0,20.0,2.0,7.0,1650914545735269.0,3
1525,10.0,3.0,8.0,3.0,10.0,8.0,6.0,8.0,1650914545735269.0,3
1526,1.0,7.0,-2.0,-1.0,-7.0,-13.0,-2.0,4.0,1650914545748234.0,3
1527,-2.0,-5.0,-4.0,7.0,19.0,11.0,-1.0,-2.0,1650914545748234.0,3
1528,-4.0,15.0,23.0,3.0,-12.0,-10.0,-5.0,-24.0,1650914545755478.0,3
1529,2.0,7.0,2.0,-1.0,0.0,-4.0,1.0,3.0,1650914545755478.0,3
1530,1.0,-2.0,-3.0,-4.0,-2.0,2.0,-1.0,0.0,1650914545771504.0,3
1531,0.0,4.0,5.0,-3.0,-13.0,-14.0,-7.0,-6.0,1650914545771504.0,3
1532,-8.0,-11.0,-10.0,1.0,-4.0,-9.0,-3.0,-1.0,1650914545772470.0,3
1533,1.0,-4.0,2.0,-4.0,-3.0,-14.0,-4.0,-10.0,1650914545772470.0,3
1534,1.0,5.0,-1.0,1.0,6.0,16.0,8.0,3.0,1650914545794642.0,3
1535,1.0,-5.0,1.0,3.0,7.0,25.0,6.0,4.0,1650914545794642.0,3
1536,-9.0,4.0,3.0,-3.0,2.0,-8.0,-4.0,-5.0,1650914545795213.0,3
1537,0.0,4.0,-5.0,10.0,8.0,-1.0,-3.0,2.0,1650914545795213.0,3
1538,-2.0,-2.0,14.0,-6.0,3.0,13.0,-7.0,-1.0,1650914545807571.0,3
1539,4.0,-5.0,-7.0,-5.0,-11.0,-6.0,4.0,17.0,1650914545807571.0,3
1540,-2.0,6.0,16.0,6.0,-11.0,-14.0,-3.0,-28.0,1650914545815152.0,3
1541,-5.0,-9.0,-30.0,-10.0,0.0,-26.0,-8.0,-2.0,1650914545815152.0,3
1542,6.0,5.0,6.0,-3.0,-8.0,0.0,-1.0,4.0,1650914545831017.0,3
1543,3.0,14.0,7.0,6.0,3.0,8.0,0.0,2.0,1650914545831017.0,3
1544,4.0,-13.0,-5.0,-3.0,7.0,18.0,8.0,2.0,1650914545833044.0,3
1545,-8.0,1.0,0.0,2.0,0.0,2.0,3.0,11.0,1650914545833044.0,3
1546,-2.0,-1.0,-5.0,3.0,16.0,9.0,0.0,-3.0,1650914545853188.0,3
1547,-5.0,-20.0,-30.0,-10.0,-15.0,-16.0,-7.0,-6.0,1650914545853188.0,3
1548,3.0,2.0,2.0,-8.0,-4.0,-11.0,-6.0,10.0,1650914545855209.0,3
1549,2.0,-1.0,19.0,5.0,-1.0,-1.0,0.0,-7.0,1650914545855209.0,3
1550,-1.0,-2.0,-6.0,-2.0,4.0,19.0,5.0,6.0,1650914545868302.0,3
1551,1.0,2.0,2.0,5.0,12.0,6.0,5.0,0.0,1650914545868302.0,3
1552,-6.0,-11.0,-10.0,-4.0,-12.0,-12.0,-9.0,3.0,1650914545875318.0,3
1553,2.0,3.0,10.0,-6.0,-5.0,4.0,2.0,1.0,1650914545875318.0,3
1554,-2.0,-6.0,-4.0,0.0,-7.0,-3.0,-3.0,1.0,1650914545891766.0,3
1555,-2.0,6.0,11.0,7.0,5.0,1.0,6.0,-4.0,1650914545891766.0,3
1556,2.0,3.0,-22.0,-3.0,8.0,12.0,4.0,9.0,1650914545892604.0,3
1557,0.0,2.0,23.0,-1.0,-16.0,-11.0,0.0,2.0,1650914545892604.0,3
1558,-6.0,-18.0,-34.0,-5.0,3.0,-7.0,-4.0,-8.0,1650914545921824.0,3
1559,0.0,7.0,5.0,-5.0,-12.0,-20.0,-9.0,-7.0,1650914545921824.0,3
1560,-7.0,3.0,3.0,0.0,2.0,5.0,3.0,7.0,1650914545928800.0,3
1561,7.0,-1.0,-3.0,4.0,11.0,16.0,7.0,26.0,1650914545928800.0,3
1562,1.0,8.0,11.0,2.0,3.0,-3.0,-1.0,-10.0,1650914545929669.0,3
1563,-11.0,-19.0,-15.0,1.0,-1.0,13.0,-2.0,-11.0,1650914545929669.0,3
1564,6.0,-7.0,-5.0,-7.0,3.0,-6.0,2.0,16.0,1650914545934656.0,3
1565,-6.0,6.0,-13.0,-6.0,-10.0,-23.0,-8.0,-21.0,1650914545934656.0,3
1566,11.0,10.0,39.0,6.0,-15.0,-7.0,3.0,14.0,1650914545959269.0,3
1567,4.0,12.0,9.0,1.0,4.0,3.0,3.0,1.0,1650914545959269.0,3
1568,-5.0,-34.0,-26.0,-3.0,12.0,17.0,5.0,0.0,1650914545959856.0,3
1569,1.0,-2.0,-8.0,2.0,12.0,16.0,-2.0,0.0,1650914545959856.0,3
1570,-3.0,-6.0,-17.0,-6.0,-22.0,-21.0,-3.0,-3.0,1650914545973630.0,3
1571,-9.0,-3.0,-6.0,-1.0,1.0,-9.0,-5.0,-3.0,1650914545973630.0,3
1572,10.0,10.0,9.0,0.0,-3.0,7.0,-1.0,-4.0,1650914545974663.0,3
1573,-3.0,-5.0,5.0,3.0,9.0,-1.0,1.0,-8.0,1650914545974663.0,3
1574,0.0,3.0,-8.0,0.0,-2.0,-9.0,-3.0,-10.0,1650914545987945.0,3
1575,-10.0,-1.0,-6.0,-2.0,-8.0,-11.0,-1.0,2.0,1650914545987945.0,3
1576,2.0,4.0,1.0,2.0,11.0,18.0,3.0,2.0,1650914545995952.0,3
1577,-10.0,-12.0,-5.0,-4.0,-1.0,9.0,-8.0,-27.0,1650914545995952.0,3
1578,5.0,6.0,4.0,-1.0,3.0,1.0,1.0,11.0,1650914546011320.0,3
1579,3.0,4.0,1.0,4.0,-3.0,-24.0,-4.0,0.0,1650914546011320.0,3
1580,0.0,7.0,0.0,4.0,0.0,5.0,0.0,2.0,1650914546012323.0,3
1581,-6.0,4.0,4.0,2.0,-3.0,3.0,-2.0,-17.0,1650914546012323.0,3
1582,-5.0,-10.0,-6.0,-4.0,8.0,10.0,2.0,11.0,1650914546034069.0,3
1583,6.0,7.0,7.0,-3.0,-7.0,-22.0,-4.0,2.0,1650914546034069.0,3
1584,15.0,9.0,19.0,2.0,-9.0,-18.0,-4.0,-7.0,1650914546035069.0,3
1585,-9.0,-1.0,-17.0,-2.0,6.0,19.0,0.0,3.0,1650914546035069.0,3
1586,0.0,-2.0,9.0,-3.0,16.0,19.0,5.0,3.0,1650914546047269.0,3
1587,-6.0,-9.0,-9.0,4.0,9.0,15.0,2.0,1.0,1650914546047269.0,3
1588,14.0,11.0,18.0,5.0,-7.0,-19.0,1.0,1.0,1650914546056247.0,3
1589,0.0,-4.0,-2.0,-9.0,-25.0,-15.0,-3.0,5.0,1650914546056247.0,3
1590,-1.0,-5.0,-28.0,-2.0,4.0,-5.0,-3.0,-13.0,1650914546071398.0,3
1591,4.0,7.0,14.0,-2.0,2.0,21.0,3.0,8.0,1650914546071398.0,3
1592,-6.0,-2.0,2.0,-3.0,0.0,2.0,-1.0,-2.0,1650914546073423.0,3
1593,-4.0,-10.0,-15.0,8.0,5.0,-10.0,2.0,4.0,1650914546073423.0,3
1594,0.0,10.0,1.0,-14.0,-13.0,-16.0,-5.0,-3.0,1650914546094616.0,3
1595,6.0,10.0,13.0,11.0,12.0,24.0,2.0,6.0,1650914546094616.0,3
1596,-4.0,0.0,3.0,7.0,15.0,22.0,8.0,-2.0,1650914546094616.0,3
1597,-2.0,4.0,0.0,-7.0,-14.0,-12.0,1.0,7.0,1650914546094616.0,3
1598,1.0,15.0,28.0,10.0,10.0,0.0,-6.0,-9.0,1650914546106588.0,3
1599,7.0,-18.0,-33.0,-9.0,-21.0,-32.0,-5.0,-6.0,1650914546106588.0,3
1600,-3.0,2.0,-6.0,-3.0,10.0,0.0,-7.0,-10.0,1650914546116710.0,3
1601,3.0,5.0,0.0,-6.0,3.0,24.0,6.0,-1.0,1650914546116710.0,3
1602,-3.0,1.0,2.0,3.0,-2.0,0.0,8.0,27.0,1650914546130871.0,3
1603,-4.0,-13.0,1.0,-2.0,5.0,9.0,-1.0,2.0,1650914546130871.0,3
1604,-13.0,4.0,3.0,6.0,-9.0,-8.0,-7.0,-38.0,1650914546132898.0,3
1605,5.0,-4.0,0.0,-14.0,-10.0,-13.0,-5.0,15.0,1650914546132898.0,3
1606,2.0,-3.0,-3.0,3.0,1.0,-4.0,-2.0,-2.0,1650914546153167.0,3
1607,3.0,7.0,7.0,-1.0,0.0,-5.0,-2.0,1.0,1650914546153167.0,3
1608,-8.0,-1.0,4.0,1.0,1.0,2.0,1.0,10.0,1650914546160915.0,3
1609,2.0,-4.0,2.0,-4.0,1.0,3.0,0.0,-10.0,1650914546160915.0,3
1610,-6.0,-9.0,7.0,0.0,-7.0,-2.0,0.0,-8.0,1650914546167978.0,3
1611,1.0,10.0,9.0,4.0,4.0,0.0,-4.0,-6.0,1650914546167978.0,3
1612,-4.0,-5.0,1.0,-8.0,-1.0,3.0,1.0,4.0,1650914546176990.0,3
1613,0.0,-5.0,2.0,11.0,15.0,6.0,5.0,2.0,1650914546176990.0,3
1614,-2.0,-7.0,-11.0,3.0,2.0,-13.0,-1.0,-2.0,1650914546191184.0,3
1615,-1.0,-15.0,-13.0,-11.0,-8.0,0.0,-3.0,-1.0,1650914546191184.0,3
1616,0.0,7.0,2.0,-8.0,-1.0,7.0,-3.0,-1.0,1650914546192044.0,3
1617,4.0,2.0,5.0,6.0,6.0,6.0,6.0,4.0,1650914546192044.0,3
1618,-1.0,8.0,14.0,4.0,-8.0,1.0,2.0,-5.0,1650914546213525.0,3
1619,-3.0,-6.0,-24.0,-1.0,0.0,-2.0,-2.0,-18.0,1650914546213525.0,3
1620,-3.0,-7.0,-6.0,-4.0,-7.0,-9.0,-7.0,-7.0,1650914546215553.0,3
1621,0.0,-1.0,-13.0,-1.0,4.0,3.0,-1.0,1.0,1650914546215553.0,3
1622,-3.0,-5.0,-2.0,-1.0,-5.0,-3.0,-2.0,-4.0,1650914546227876.0,3
1623,8.0,2.0,-2.0,-3.0,-1.0,-1.0,7.0,11.0,1650914546227876.0,3
1624,-5.0,-6.0,-9.0,-1.0,-7.0,-6.0,1.0,4.0,1650914546235888.0,3
1625,3.0,3.0,3.0,1.0,-2.0,-2.0,-3.0,-5.0,1650914546235888.0,3
1626,-3.0,-3.0,-11.0,-2.0,3.0,5.0,-2.0,-2.0,1650914546251181.0,3
1627,-7.0,-1.0,17.0,4.0,0.0,-1.0,-5.0,-2.0,1650914546251181.0,3
1628,3.0,-5.0,-7.0,-1.0,1.0,-9.0,-5.0,-1.0,1650914546253055.0,3
1629,-5.0,2.0,-1.0,-4.0,-7.0,-8.0,-5.0,3.0,1650914546253055.0,3
1630,-2.0,0.0,3.0,-1.0,-2.0,6.0,0.0,-4.0,1650914546274192.0,3
1631,-1.0,-3.0,-6.0,-3.0,0.0,2.0,0.0,3.0,1650914546274192.0,3
1632,0.0,-1.0,2.0,4.0,1.0,0.0,4.0,0.0,1650914546274728.0,3
1633,1.0,5.0,-1.0,3.0,6.0,7.0,3.0,4.0,1650914546274728.0,3
1634,1.0,-2.0,-5.0,-1.0,5.0,6.0,3.0,1.0,1650914546286877.0,3
1635,-3.0,3.0,-2.0,-2.0,-9.0,-16.0,-6.0,-1.0,1650914546286877.0,3
1636,-2.0,1.0,-2.0,0.0,2.0,3.0,2.0,3.0,1650914546296037.0,3
1637,3.0,1.0,13.0,3.0,-4.0,7.0,1.0,2.0,1650914546296037.0,3
1638,-1.0,-2.0,-2.0,-4.0,2.0,-9.0,-5.0,-2.0,1650914546318712.0,3
1639,2.0,4.0,5.0,-1.0,-1.0,-6.0,-2.0,1.0,1650914546318712.0,3
1640,0.0,-4.0,-5.0,-5.0,-20.0,-20.0,-4.0,-4.0,1650914546319710.0,3
1641,-3.0,-6.0,-6.0,-8.0,-13.0,-33.0,-5.0,-5.0,1650914546319710.0,3
1642,0.0,1.0,7.0,8.0,25.0,55.0,3.0,0.0,1650914546333802.0,3
1643,3.0,9.0,8.0,13.0,41.0,38.0,11.0,5.0,1650914546333802.0,3
1644,4.0,-1.0,2.0,7.0,13.0,10.0,11.0,6.0,1650914546334636.0,3
1645,0.0,1.0,-4.0,-6.0,-22.0,-24.0,-8.0,-5.0,1650914546334636.0,3
1646,-2.0,-2.0,-6.0,-9.0,-28.0,-28.0,-7.0,-3.0,1650914546347012.0,3
1647,-2.0,-1.0,0.0,-4.0,-6.0,4.0,-3.0,-5.0,1650914546347012.0,3
1648,-1.0,0.0,0.0,1.0,6.0,7.0,0.0,-1.0,1650914546356049.0,3
1649,0.0,3.0,4.0,4.0,6.0,-1.0,-1.0,1.0,1650914546356049.0,3
1650,0.0,-2.0,-3.0,-4.0,-8.0,-14.0,-9.0,-5.0,1650914546371174.0,3
1651,-1.0,-1.0,2.0,0.0,-8.0,-2.0,6.0,0.0,1650914546371174.0,3
1652,-1.0,0.0,-2.0,-5.0,-6.0,-10.0,-5.0,0.0,1650914546373042.0,3
1653,-1.0,-5.0,-3.0,-4.0,-3.0,-1.0,-5.0,-2.0,1650914546373042.0,3
1654,0.0,-2.0,-1.0,0.0,-3.0,-2.0,1.0,-1.0,1650914546394046.0,3
1655,0.0,1.0,4.0,1.0,-9.0,-22.0,-1.0,2.0,1650914546394046.0,3
1656,1.0,-1.0,-1.0,0.0,16.0,19.0,-3.0,3.0,1650914546395046.0,3
1657,0.0,3.0,2.0,4.0,18.0,28.0,4.0,3.0,1650914546395046.0,3
1658,0.0,2.0,3.0,3.0,5.0,3.0,-4.0,0.0,1650914546416486.0,3
1659,-1.0,0.0,0.0,-2.0,-10.0,-4.0,12.0,3.0,1650914546416486.0,3
1660,-4.0,-1.0,-3.0,-6.0,-22.0,-29.0,-6.0,-3.0,1650914546417331.0,3
1661,-1.0,-1.0,-3.0,-4.0,-10.0,-6.0,-13.0,-5.0,1650914546417331.0,3
1662,-2.0,-3.0,-2.0,-2.0,1.0,-20.0,-2.0,-2.0,1650914546431825.0,3
1663,2.0,1.0,3.0,4.0,24.0,54.0,12.0,7.0,1650914546431825.0,3
1664,2.0,0.0,-4.0,1.0,10.0,9.0,8.0,4.0,1650914546432813.0,3
1665,-1.0,3.0,17.0,18.0,11.0,16.0,4.0,0.0,1650914546432813.0,3
1666,0.0,-2.0,-6.0,-6.0,-16.0,-27.0,-8.0,-4.0,1650914546453253.0,3
1667,-3.0,2.0,5.0,-5.0,-21.0,-26.0,-9.0,-3.0,1650914546453253.0,3
1668,-2.0,-4.0,-11.0,-10.0,-8.0,-3.0,-5.0,-4.0,1650914546455250.0,3
1669,3.0,2.0,-3.0,1.0,8.0,-2.0,5.0,4.0,1650914546455250.0,3
1670,-3.0,-2.0,-2.0,-1.0,2.0,4.0,2.0,-1.0,1650914546476755.0,3
1671,0.0,0.0,0.0,1.0,-2.0,-5.0,-12.0,-3.0,1650914546476755.0,3
1672,1.0,1.0,0.0,-3.0,-3.0,0.0,3.0,0.0,1650914546477609.0,3
1673,1.0,-1.0,1.0,8.0,12.0,6.0,6.0,0.0,1650914546477609.0,3
1674,0.0,2.0,1.0,2.0,6.0,17.0,4.0,0.0,1650914546491911.0,3
1675,-2.0,-1.0,-6.0,-7.0,-21.0,-37.0,-11.0,-4.0,1650914546491911.0,3
1676,-2.0,0.0,1.0,-1.0,-4.0,16.0,-3.0,-1.0,1650914546492784.0,3
1677,0.0,-1.0,-5.0,-1.0,13.0,20.0,3.0,2.0,1650914546492784.0,3
1678,0.0,1.0,2.0,4.0,17.0,9.0,5.0,2.0,1650914546513637.0,3
1679,-1.0,0.0,-1.0,-3.0,-15.0,-19.0,-9.0,-2.0,1650914546513637.0,3
1680,-2.0,-3.0,1.0,1.0,-12.0,-24.0,-6.0,-3.0,1650914546514638.0,3
1681,-1.0,1.0,2.0,1.0,-5.0,-3.0,-4.0,-1.0,1650914546514638.0,3
1682,5.0,1.0,-1.0,2.0,12.0,37.0,11.0,5.0,1650914546535938.0,3
1683,-5.0,-3.0,-2.0,-6.0,1.0,-1.0,-5.0,-1.0,1650914546535938.0,3
1684,0.0,0.0,-2.0,-3.0,-13.0,-19.0,5.0,1.0,1650914546537803.0,3
1685,-2.0,1.0,2.0,-2.0,-2.0,-2.0,-4.0,-4.0,1650914546537803.0,3
1686,0.0,-1.0,-1.0,3.0,5.0,3.0,3.0,-1.0,1650914546550005.0,3
1687,2.0,0.0,9.0,10.0,15.0,12.0,1.0,2.0,1650914546550005.0,3
1688,-2.0,0.0,0.0,-2.0,-5.0,-4.0,-8.0,-4.0,1650914546557293.0,3
1689,2.0,-2.0,-3.0,-10.0,-27.0,-11.0,1.0,0.0,1650914546557293.0,3
1690,-1.0,1.0,1.0,9.0,5.0,-4.0,4.0,0.0,1650914546574255.0,3
1691,0.0,1.0,-1.0,-1.0,34.0,28.0,5.0,0.0,1650914546574255.0,3
1692,1.0,1.0,5.0,9.0,8.0,8.0,0.0,2.0,1650914546575288.0,3
1693,0.0,-2.0,-5.0,-12.0,-25.0,-28.0,-3.0,-2.0,1650914546575288.0,3
1694,-4.0,-1.0,1.0,-6.0,-15.0,-16.0,-12.0,-4.0,1650914546596710.0,3
1695,0.0,-4.0,-4.0,-1.0,6.0,14.0,5.0,0.0,1650914546596710.0,3
1696,0.0,0.0,1.0,4.0,8.0,-3.0,0.0,-1.0,1650914546597549.0,3
1697,-3.0,-1.0,-2.0,-3.0,-3.0,-13.0,2.0,2.0,1650914546597549.0,3
1698,-2.0,-3.0,-11.0,-12.0,-16.0,2.0,0.0,-2.0,1650914546610031.0,3
1699,2.0,5.0,2.0,3.0,-7.0,-3.0,-1.0,-2.0,1650914546610031.0,3
1700,1.0,-2.0,2.0,5.0,16.0,17.0,9.0,3.0,1650914546617205.0,3
1701,-1.0,-1.0,2.0,4.0,9.0,10.0,0.0,0.0,1650914546617205.0,3
1702,0.0,1.0,4.0,-1.0,-7.0,-12.0,-1.0,-2.0,1650914546633975.0,3
1703,-1.0,-1.0,-5.0,-4.0,-7.0,-14.0,-7.0,-2.0,1650914546633975.0,3
1704,-2.0,-2.0,-4.0,-3.0,-10.0,-16.0,-11.0,-3.0,1650914546634976.0,3
1705,2.0,-1.0,4.0,5.0,6.0,16.0,9.0,1.0,1650914546634976.0,3
1706,-1.0,-2.0,4.0,3.0,15.0,16.0,10.0,3.0,1650914546656964.0,3
1707,0.0,1.0,-5.0,0.0,-4.0,12.0,2.0,0.0,1650914546656964.0,3
1708,4.0,3.0,1.0,2.0,-4.0,-6.0,0.0,0.0,1650914546657863.0,3
1709,-9.0,-4.0,-7.0,-4.0,5.0,-15.0,-5.0,-1.0,1650914546657863.0,3
1710,-1.0,-1.0,4.0,2.0,-30.0,-24.0,-7.0,-3.0,1650914546679339.0,3
1711,-1.0,-5.0,-1.0,-1.0,11.0,10.0,4.0,0.0,1650914546679339.0,3
1712,-2.0,0.0,3.0,3.0,14.0,22.0,5.0,0.0,1650914546679854.0,3
1713,4.0,7.0,7.0,6.0,4.0,8.0,2.0,1.0,1650914546679854.0,3
1714,-3.0,-1.0,-18.0,-18.0,-7.0,-5.0,-4.0,-2.0,1650914546694403.0,3
1715,0.0,-1.0,1.0,5.0,-4.0,-10.0,2.0,-1.0,1650914546694403.0,3
1716,-5.0,2.0,3.0,-1.0,-2.0,-6.0,-7.0,-3.0,1650914546694998.0,3
1717,8.0,-6.0,-6.0,-2.0,-6.0,-6.0,-2.0,-2.0,1650914546694998.0,3
1718,1.0,1.0,3.0,8.0,1.0,-2.0,3.0,0.0,1650914546716783.0,3
1719,-3.0,0.0,2.0,-5.0,-4.0,-2.0,-1.0,-1.0,1650914546716783.0,3
1720,-1.0,2.0,0.0,-1.0,3.0,12.0,4.0,1.0,1650914546717617.0,3
1721,-3.0,2.0,2.0,-1.0,9.0,-1.0,-2.0,-3.0,1650914546717617.0,3
1722,1.0,-2.0,-6.0,-2.0,-2.0,-5.0,-7.0,-1.0,1650914546730108.0,3
1723,0.0,2.0,-1.0,1.0,0.0,1.0,0.0,-2.0,1650914546730108.0,3
1724,0.0,2.0,7.0,6.0,4.0,-4.0,0.0,0.0,1650914546745465.0,3
1725,-3.0,-1.0,-9.0,-13.0,-4.0,8.0,-3.0,-1.0,1650914546745465.0,3
1726,1.0,3.0,5.0,1.0,5.0,13.0,4.0,1.0,1650914546761190.0,3
1727,-1.0,-1.0,-2.0,3.0,-4.0,-1.0,4.0,3.0,1650914546761190.0,3
1728,-2.0,-4.0,-4.0,-5.0,-5.0,-8.0,-3.0,-1.0,1650914546762013.0,3
1729,0.0,0.0,-1.0,2.0,-7.0,-21.0,1.0,1.0,1650914546762013.0,3
1730,-1.0,1.0,6.0,2.0,13.0,29.0,0.0,-2.0,1650914546776443.0,3
1731,-3.0,-3.0,-12.0,-13.0,1.0,1.0,-4.0,-1.0,1650914546776443.0,3
1732,3.0,-1.0,-5.0,-1.0,-3.0,-16.0,-2.0,-1.0,1650914546777286.0,3
1733,-2.0,0.0,3.0,1.0,-3.0,4.0,-2.0,0.0,1650914546777286.0,3
1734,0.0,1.0,4.0,2.0,-7.0,-2.0,1.0,0.0,1650914546790605.0,3
1735,0.0,-1.0,0.0,3.0,-11.0,-14.0,1.0,0.0,1650914546790605.0,3
1736,-9.0,-1.0,1.0,-6.0,-8.0,-13.0,0.0,-2.0,1650914546797586.0,3
1737,-1.0,-5.0,-7.0,-5.0,5.0,15.0,0.0,-1.0,1650914546797586.0,3
1738,1.0,-1.0,9.0,10.0,4.0,7.0,3.0,1.0,1650914546813757.0,3
1739,2.0,1.0,-2.0,0.0,13.0,8.0,-3.0,-1.0,1650914546813757.0,3
1740,1.0,-1.0,-5.0,-4.0,-5.0,-2.0,-1.0,-1.0,1650914546814757.0,3
1741,-2.0,5.0,7.0,4.0,-7.0,-11.0,0.0,-2.0,1650914546814757.0,3
1742,-3.0,-1.0,-7.0,-6.0,1.0,-4.0,-3.0,-1.0,1650914546836363.0,3
1743,4.0,1.0,2.0,2.0,-5.0,-13.0,-4.0,-1.0,1650914546836363.0,3
1744,-1.0,-4.0,4.0,1.0,-6.0,4.0,0.0,0.0,1650914546837219.0,3
1745,-1.0,-2.0,-3.0,2.0,8.0,7.0,2.0,1.0,1650914546837219.0,3
1746,0.0,0.0,-1.0,-3.0,0.0,-3.0,-3.0,-1.0,1650914546851176.0,3
1747,-2.0,0.0,5.0,3.0,1.0,-1.0,-1.0,0.0,1650914546851176.0,3
1748,3.0,-2.0,-9.0,1.0,16.0,28.0,6.0,2.0,1650914546857854.0,3
1749,0.0,1.0,3.0,-3.0,-6.0,2.0,-1.0,1.0,1650914546857854.0,3
1750,-2.0,-5.0,-6.0,-2.0,-11.0,-27.0,0.0,-2.0,1650914546873589.0,3
1751,-3.0,0.0,3.0,-2.0,-8.0,-5.0,1.0,0.0,1650914546873589.0,3
1752,-1.0,-2.0,-1.0,-1.0,2.0,1.0,-2.0,0.0,1650914546875424.0,3
1753,1.0,1.0,2.0,0.0,8.0,0.0,0.0,-1.0,1650914546875424.0,3
1754,-1.0,1.0,-2.0,-3.0,-9.0,6.0,-5.0,-2.0,1650914546896889.0,3
1755,-1.0,-1.0,0.0,2.0,9.0,0.0,6.0,-1.0,1650914546896889.0,3
1756,2.0,0.0,0.0,2.0,3.0,0.0,-4.0,0.0,1650914546897869.0,3
1757,-2.0,-2.0,-2.0,3.0,8.0,6.0,5.0,0.0,1650914546897869.0,3
1758,2.0,-1.0,-5.0,-10.0,-20.0,-31.0,-6.0,-3.0,1650914546909965.0,3
1759,-1.0,-1.0,-9.0,-8.0,-7.0,17.0,-3.0,-2.0,1650914546909965.0,3
1760,-1.0,1.0,4.0,1.0,9.0,6.0,9.0,2.0,1650914546919184.0,3
1761,-2.0,1.0,1.0,7.0,1.0,-2.0,0.0,-1.0,1650914546919184.0,3
1762,6.0,0.0,1.0,-1.0,10.0,9.0,5.0,4.0,1650914546933953.0,3
1763,0.0,-2.0,0.0,-2.0,-5.0,-3.0,-5.0,-3.0,1650914546933953.0,3
1764,0.0,-2.0,-2.0,-3.0,-24.0,-44.0,-9.0,-2.0,1650914546934953.0,3
1765,-3.0,-1.0,-1.0,-1.0,10.0,23.0,-1.0,-3.0,1650914546934953.0,3
1766,-2.0,0.0,4.0,8.0,16.0,20.0,3.0,0.0,1650914546956061.0,3
1767,-2.0,-1.0,0.0,-1.0,-4.0,-5.0,1.0,2.0,1650914546956061.0,3
1768,1.0,3.0,0.0,-2.0,-4.0,0.0,-3.0,-2.0,1650914546958055.0,3
1769,-2.0,-3.0,-2.0,-6.0,-19.0,-22.0,-6.0,-2.0,1650914546958055.0,3
1770,-1.0,-1.0,0.0,2.0,13.0,10.0,4.0,1.0,1650914546969982.0,3
1771,1.0,1.0,-2.0,0.0,9.0,10.0,1.0,1.0,1650914546969982.0,3
1772,-2.0,-1.0,4.0,2.0,-14.0,-7.0,-3.0,-1.0,1650914546993962.0,3
1773,2.0,0.0,-3.0,-1.0,6.0,13.0,3.0,1.0,1650914546993962.0,0
1774,-4.0,-3.0,-1.0,0.0,11.0,9.0,-3.0,-2.0,1650914546994926.0,0
1775,-1.0,-2.0,-6.0,-7.0,-19.0,-33.0,-8.0,-3.0,1650914546994926.0,0
1776,2.0,1.0,-1.0,1.0,8.0,16.0,9.0,3.0,1650914546996925.0,0
1777,1.0,1.0,-3.0,-3.0,-3.0,7.0,-2.0,-1.0,1650914546996925.0,0
1778,-1.0,1.0,0.0,2.0,-4.0,-10.0,1.0,0.0,1650914547014905.0,0
1779,-2.0,-3.0,4.0,2.0,1.0,-3.0,2.0,0.0,1650914547014905.0,0
1780,-2.0,-1.0,-2.0,-5.0,-3.0,-5.0,-6.0,-3.0,1650914547023868.0,0
1781,1.0,0.0,1.0,-2.0,-11.0,-8.0,-2.0,-2.0,1650914547023868.0,0
1782,-3.0,-2.0,-8.0,-11.0,7.0,9.0,-2.0,-1.0,1650914547038839.0,0
1783,-1.0,0.0,3.0,9.0,-2.0,-4.0,-4.0,0.0,1650914547038839.0,0
1784,0.0,-1.0,-1.0,0.0,2.0,1.0,8.0,2.0,1650914547039795.0,0
1785,-1.0,0.0,1.0,5.0,9.0,4.0,0.0,1.0,1650914547039795.0,0
1786,0.0,2.0,0.0,1.0,-7.0,-3.0,3.0,-1.0,1650914547053757.0,0
1787,-1.0,-2.0,1.0,-3.0,-6.0,-2.0,-5.0,-2.0,1650914547053757.0,0
1788,2.0,0.0,-1.0,1.0,-2.0,6.0,0.0,-1.0,1650914547054762.0,0
1789,-1.0,0.0,0.0,-1.0,9.0,-4.0,3.0,1.0,1650914547054762.0,0
1790,-1.0,2.0,2.0,0.0,2.0,2.0,-2.0,-1.0,1650914547075940.0,0
1791,1.0,0.0,0.0,1.0,1.0,8.0,0.0,0.0,1650914547075940.0,0
1792,-4.0,-1.0,-4.0,-1.0,-4.0,17.0,-2.0,-1.0,1650914547077966.0,0
1793,1.0,-2.0,0.0,1.0,-2.0,-13.0,-1.0,-1.0,1650914547077966.0,0
1794,-2.0,0.0,2.0,-1.0,-7.0,-20.0,-6.0,-2.0,1650914547090263.0,0
1795,1.0,-1.0,-1.0,-5.0,-3.0,-9.0,-2.0,-2.0,1650914547090263.0,0
1796,-1.0,0.0,1.0,0.0,-4.0,-4.0,0.0,-2.0,1650914547099080.0,0
1797,0.0,2.0,2.0,0.0,2.0,16.0,1.0,0.0,1650914547099080.0,0
1798,1.0,-1.0,4.0,4.0,9.0,0.0,0.0,-2.0,1650914547113216.0,0
1799,0.0,1.0,0.0,6.0,3.0,5.0,5.0,2.0,1650914547113216.0,0
1800,0.0,-1.0,-4.0,-5.0,-9.0,-19.0,-3.0,-1.0,1650914547115214.0,0
1801,-2.0,-3.0,-5.0,-4.0,6.0,14.0,-2.0,-2.0,1650914547115214.0,0
1802,-1.0,2.0,1.0,1.0,-5.0,11.0,1.0,1.0,1650914547136996.0,0
1803,-1.0,1.0,-3.0,-1.0,9.0,9.0,2.0,0.0,1650914547136996.0,0
1804,1.0,-2.0,-1.0,-3.0,1.0,-9.0,-3.0,1.0,1650914547137837.0,0
1805,-3.0,0.0,1.0,-1.0,-18.0,-28.0,-8.0,-3.0,1650914547137837.0,0
1806,2.0,-2.0,0.0,-2.0,-8.0,-5.0,-3.0,-1.0,1650914547151170.0,0
1807,-3.0,-2.0,1.0,2.0,2.0,13.0,1.0,-2.0,1650914547151170.0,0
1808,1.0,-1.0,0.0,1.0,13.0,8.0,5.0,3.0,1650914547159262.0,0
1809,-4.0,0.0,-2.0,0.0,4.0,2.0,1.0,-1.0,1650914547159262.0,0
1810,-3.0,-1.0,1.0,0.0,-11.0,-17.0,-4.0,-1.0,1650914547173755.0,0
1811,3.0,0.0,-1.0,-3.0,-1.0,2.0,-2.0,-2.0,1650914547173755.0,0
1812,-1.0,-1.0,2.0,2.0,4.0,17.0,0.0,-2.0,1650914547174787.0,0
1813,1.0,-3.0,1.0,2.0,-2.0,1.0,0.0,-2.0,1650914547174787.0,0
1814,-1.0,2.0,-2.0,-3.0,-4.0,-20.0,-1.0,-1.0,1650914547196290.0,0
1815,-2.0,0.0,0.0,-2.0,-11.0,-11.0,-1.0,-1.0,1650914547196290.0,0
1816,0.0,1.0,0.0,3.0,11.0,17.0,2.0,-1.0,1650914547197123.0,0
1817,1.0,0.0,-7.0,-1.0,4.0,8.0,2.0,2.0,1650914547197123.0,0
1818,0.0,-1.0,-2.0,-1.0,-7.0,-3.0,0.0,-1.0,1650914547210011.0,0
1819,0.0,-2.0,-2.0,-6.0,-3.0,-24.0,-6.0,-4.0,1650914547210011.0,0
1820,-1.0,-2.0,-1.0,-2.0,-2.0,3.0,-4.0,0.0,1650914547218227.0,0
1821,1.0,-1.0,1.0,0.0,-3.0,7.0,2.0,-1.0,1650914547218227.0,0
1822,0.0,2.0,2.0,4.0,15.0,6.0,3.0,1.0,1650914547233731.0,0
1823,0.0,0.0,-1.0,1.0,4.0,9.0,3.0,2.0,1650914547233731.0,0
1824,-3.0,0.0,-1.0,-3.0,-7.0,-11.0,-5.0,-2.0,1650914547234763.0,0
1825,-2.0,-2.0,-1.0,-4.0,-18.0,-37.0,-8.0,-3.0,1650914547234763.0,0
1826,2.0,-1.0,0.0,-1.0,2.0,24.0,3.0,1.0,1650914547256402.0,0
1827,0.0,1.0,-1.0,4.0,9.0,0.0,-1.0,-1.0,1650914547256402.0,0
1828,1.0,-1.0,1.0,4.0,10.0,14.0,1.0,0.0,1650914547262252.0,0
1829,1.0,0.0,-1.0,3.0,3.0,6.0,0.0,1.0,1650914547262252.0,0
1830,-1.0,-2.0,-1.0,-1.0,-3.0,-8.0,0.0,0.0,1650914547269228.0,0
1831,0.0,-1.0,-1.0,-3.0,-8.0,-4.0,7.0,2.0,1650914547269228.0,0
1832,-2.0,-3.0,-4.0,-2.0,-7.0,-13.0,-7.0,-5.0,1650914547279359.0,0
1833,-2.0,-2.0,-4.0,-2.0,0.0,2.0,-3.0,-2.0,1650914547279359.0,0
1834,1.0,-1.0,2.0,4.0,2.0,6.0,9.0,1.0,1650914547293381.0,0
1835,-2.0,2.0,1.0,-3.0,-5.0,2.0,-7.0,-3.0,1650914547293381.0,0
1836,-3.0,-1.0,-1.0,-3.0,-5.0,-7.0,-4.0,-2.0,1650914547295375.0,0
1837,1.0,0.0,0.0,-2.0,-4.0,-14.0,-2.0,-1.0,1650914547295375.0,0
1838,-1.0,0.0,-5.0,-1.0,2.0,-1.0,0.0,0.0,1650914547316995.0,0
1839,-1.0,-6.0,-3.0,0.0,-1.0,13.0,1.0,0.0,1650914547316995.0,0
1840,2.0,-1.0,2.0,3.0,16.0,15.0,5.0,0.0,1650914547317869.0,0
1841,1.0,1.0,1.0,1.0,3.0,6.0,-1.0,-1.0,1650914547317869.0,0
1842,0.0,0.0,1.0,4.0,10.0,6.0,-2.0,0.0,1650914547346854.0,0
1843,2.0,1.0,-2.0,-1.0,-6.0,-13.0,3.0,0.0,1650914547346854.0,0
1844,-2.0,0.0,0.0,-2.0,-12.0,-10.0,-5.0,-3.0,1650914547347890.0,0
1845,-2.0,-2.0,-1.0,-4.0,-14.0,-9.0,-1.0,-1.0,1650914547347890.0,0
1846,-2.0,-1.0,2.0,3.0,-5.0,-12.0,-3.0,-2.0,1650914547353988.0,0
1847,-1.0,0.0,-1.0,1.0,11.0,3.0,-1.0,-1.0,1650914547353988.0,0
1848,1.0,2.0,1.0,-1.0,5.0,13.0,4.0,3.0,1650914547354835.0,0
1849,0.0,1.0,-1.0,-3.0,-9.0,-21.0,2.0,-1.0,1650914547354835.0,0
1850,-2.0,-1.0,-3.0,-6.0,-12.0,5.0,-7.0,-6.0,1650914547376969.0,0
1851,0.0,-1.0,1.0,0.0,8.0,10.0,-2.0,1.0,1650914547376969.0,0
1852,-1.0,0.0,2.0,1.0,-3.0,-18.0,2.0,0.0,1650914547383102.0,0
1853,3.0,1.0,2.0,6.0,11.0,31.0,7.0,5.0,1650914547383102.0,0
1854,0.0,-1.0,-3.0,0.0,0.0,0.0,1.0,2.0,1650914547399502.0,0
1855,0.0,0.0,2.0,1.0,2.0,3.0,1.0,0.0,1650914547399502.0,0
1856,-1.0,0.0,-4.0,-2.0,-6.0,-15.0,-5.0,-2.0,1650914547400371.0,0
1857,-2.0,-3.0,-2.0,-4.0,-7.0,-17.0,-6.0,-3.0,1650914547400371.0,0
1858,-1.0,-1.0,-3.0,-3.0,-15.0,-16.0,-5.0,-2.0,1650914547413572.0,0
1859,0.0,0.0,2.0,2.0,19.0,14.0,0.0,-1.0,1650914547413572.0,0
1860,-1.0,-2.0,0.0,5.0,9.0,15.0,3.0,-1.0,1650914547414572.0,0
1861,-2.0,1.0,0.0,3.0,14.0,10.0,1.0,1.0,1650914547414572.0,0
1862,0.0,-2.0,-6.0,-4.0,-6.0,-7.0,-6.0,-1.0,1650914547436005.0,0
1863,-1.0,0.0,6.0,-1.0,-25.0,-23.0,3.0,1.0,1650914547436005.0,0
1864,1.0,-3.0,-5.0,-3.0,3.0,6.0,1.0,1.0,1650914547438031.0,0
1865,-1.0,1.0,4.0,6.0,23.0,29.0,5.0,1.0,1650914547438031.0,0
1866,-1.0,2.0,1.0,-2.0,-5.0,-15.0,-3.0,-1.0,1650914547459049.0,0
1867,0.0,-3.0,-8.0,-4.0,-4.0,-4.0,-2.0,-1.0,1650914547459049.0,0
1868,-2.0,1.0,4.0,-3.0,-13.0,-5.0,-1.0,-2.0,1650914547459859.0,0
1869,-2.0,-1.0,-2.0,-3.0,-5.0,-2.0,-1.0,0.0,1650914547459859.0,0
1870,0.0,-2.0,0.0,-2.0,-4.0,0.0,1.0,-1.0,1650914547474463.0,0
1871,1.0,1.0,-2.0,0.0,-3.0,-5.0,-1.0,-1.0,1650914547474463.0,0
1872,-1.0,-1.0,-2.0,0.0,2.0,1.0,0.0,0.0,1650914547475497.0,0
1873,-1.0,-2.0,-4.0,-6.0,-13.0,-14.0,-3.0,-1.0,1650914547475497.0,0
1874,-2.0,-1.0,0.0,0.0,9.0,13.0,2.0,0.0,1650914547496855.0,0
1875,-4.0,0.0,0.0,5.0,14.0,13.0,3.0,1.0,1650914547496855.0,0
1876,3.0,2.0,0.0,4.0,16.0,10.0,6.0,2.0,1650914547497855.0,0
1877,1.0,1.0,6.0,2.0,-1.0,-11.0,0.0,0.0,1650914547497855.0,0
1878,-1.0,-1.0,-3.0,-4.0,-8.0,3.0,-2.0,1.0,1650914547519317.0,0
1879,-1.0,-2.0,-2.0,-5.0,-9.0,9.0,-6.0,-4.0,1650914547519317.0,0
1880,-2.0,-1.0,-3.0,-3.0,-8.0,-13.0,-3.0,0.0,1650914547520182.0,0
1881,0.0,-2.0,-3.0,-2.0,-5.0,-12.0,1.0,-1.0,1650914547520182.0,0
1882,-2.0,-1.0,-1.0,-3.0,-11.0,-18.0,-1.0,-1.0,1650914547533090.0,0
1883,0.0,-2.0,1.0,1.0,4.0,10.0,-7.0,-1.0,1650914547533090.0,0
1884,-1.0,0.0,1.0,3.0,15.0,12.0,10.0,3.0,1650914547539911.0,0
1885,-1.0,0.0,-2.0,-3.0,1.0,-4.0,-4.0,-2.0,1650914547539911.0,0
1886,-2.0,-2.0,-4.0,-1.0,-1.0,-4.0,-5.0,-2.0,1650914547556030.0,0
1887,0.0,-2.0,2.0,-4.0,-18.0,-9.0,2.0,1.0,1650914547556030.0,0
1888,4.0,0.0,0.0,-1.0,1.0,5.0,-4.0,-3.0,1650914547558024.0,0
1889,-3.0,-1.0,-4.0,-4.0,-8.0,-7.0,1.0,2.0,1650914547558024.0,0
1890,2.0,2.0,1.0,3.0,11.0,10.0,0.0,-1.0,1650914547579275.0,0
1891,0.0,-1.0,-3.0,2.0,6.0,5.0,-6.0,-3.0,1650914547579275.0,0
1892,-3.0,-2.0,0.0,1.0,1.0,15.0,4.0,1.0,1650914547579745.0,0
1893,7.0,0.0,0.0,1.0,10.0,-1.0,-1.0,2.0,1650914547579745.0,0
1894,0.0,-2.0,0.0,-2.0,-12.0,-15.0,-1.0,2.0,1650914547593919.0,0
1895,-3.0,0.0,1.0,1.0,1.0,4.0,4.0,0.0,1650914547593919.0,0
1896,1.0,1.0,0.0,-3.0,-5.0,-2.0,-6.0,-1.0,1650914547599832.0,0
1897,-4.0,0.0,-1.0,-2.0,-9.0,2.0,-7.0,-1.0,1650914547599832.0,0
1898,-2.0,-2.0,-2.0,-3.0,-2.0,-12.0,6.0,1.0,1650914547616669.0,0
1899,1.0,1.0,-1.0,-1.0,-4.0,-28.0,-9.0,-1.0,1650914547616669.0,0
1900,-1.0,-4.0,-1.0,-1.0,-4.0,13.0,6.0,0.0,1650914547617577.0,0
1901,2.0,1.0,1.0,4.0,7.0,20.0,6.0,0.0,1650914547617577.0,0
1902,0.0,0.0,3.0,1.0,8.0,3.0,-5.0,-1.0,1650914547639027.0,0
1903,1.0,1.0,-1.0,-2.0,-7.0,-7.0,-1.0,1.0,1650914547639027.0,0
1904,-2.0,-1.0,-3.0,-5.0,-8.0,-13.0,-4.0,-3.0,1650914547639866.0,0
1905,-3.0,-1.0,1.0,-1.0,0.0,0.0,-2.0,-2.0,1650914547639866.0,0
1906,1.0,-1.0,0.0,1.0,1.0,-4.0,-1.0,-1.0,1650914547661331.0,0
1907,-1.0,0.0,0.0,1.0,6.0,0.0,3.0,-1.0,1650914547661331.0,0
1908,-1.0,2.0,1.0,-1.0,0.0,2.0,-3.0,0.0,1650914547661331.0,0
