,EMG_s0,EMG_s1,EMG_s2,EMG_s3,EMG_s4,EMG_s5,EMG_s6,EMG_s7,timestamp,signal
0,-5.0,-1.0,-5.0,-4.0,-1.0,-10.0,-1.0,0.0,1650912144420028.0,0
1,4.0,-1.0,0.0,-4.0,-4.0,-9.0,-5.0,-2.0,1650912144420028.0,0
2,-2.0,0.0,2.0,-2.0,-5.0,-8.0,-2.0,-2.0,1650912144421060.0,0
3,1.0,1.0,0.0,5.0,3.0,6.0,2.0,0.0,1650912144421060.0,0
4,-1.0,-3.0,-1.0,-2.0,15.0,6.0,1.0,0.0,1650912144435283.0,0
5,0.0,-2.0,0.0,-2.0,1.0,8.0,1.0,1.0,1650912144435283.0,0
6,-3.0,-1.0,1.0,-2.0,-13.0,-24.0,-4.0,0.0,1650912144436281.0,0
7,1.0,0.0,-1.0,-1.0,1.0,3.0,-2.0,-1.0,1650912144436281.0,0
8,1.0,-1.0,-3.0,1.0,7.0,8.0,1.0,0.0,1650912144457805.0,0
9,0.0,-1.0,0.0,5.0,6.0,8.0,3.0,2.0,1650912144457805.0,0
10,-1.0,0.0,-1.0,0.0,11.0,-17.0,0.0,0.0,1650912144458644.0,0
11,0.0,-2.0,0.0,-3.0,-8.0,-1.0,-4.0,-1.0,1650912144458644.0,0
12,1.0,-2.0,-1.0,-2.0,-6.0,2.0,-2.0,-1.0,1650912144480190.0,0
13,-4.0,-2.0,-7.0,-9.0,-15.0,-23.0,-5.0,-4.0,1650912144480190.0,0
14,4.0,-1.0,-1.0,-2.0,-22.0,6.0,-2.0,-2.0,1650912144481018.0,0
15,5.0,0.0,4.0,9.0,27.0,23.0,4.0,2.0,1650912144481018.0,0
16,-10.0,1.0,4.0,13.0,34.0,15.0,7.0,2.0,1650912144494879.0,0
17,1.0,1.0,6.0,1.0,7.0,0.0,2.0,1.0,1650912144494879.0,0
18,-3.0,-2.0,-10.0,-9.0,-17.0,-13.0,-2.0,-1.0,1650912144501631.0,0
19,-3.0,-1.0,-1.0,-9.0,-21.0,-13.0,-4.0,-2.0,1650912144501631.0,0
20,2.0,-4.0,-6.0,-10.0,-26.0,-7.0,-6.0,-1.0,1650912144516976.0,0
21,1.0,3.0,4.0,-1.0,-13.0,4.0,-2.0,-1.0,1650912144516976.0,0
22,-2.0,3.0,0.0,12.0,35.0,1.0,3.0,2.0,1650912144524941.0,0
23,5.0,0.0,3.0,7.0,41.0,22.0,6.0,3.0,1650912144524941.0,0
24,1.0,2.0,5.0,2.0,-1.0,5.0,4.0,2.0,1650912144540295.0,0
25,-2.0,0.0,-4.0,-8.0,-29.0,-16.0,-3.0,-2.0,1650912144540295.0,0
26,-1.0,-3.0,-1.0,-1.0,-10.0,4.0,-4.0,-1.0,1650912144541150.0,0
27,-1.0,1.0,0.0,7.0,31.0,9.0,0.0,-1.0,1650912144541150.0,0
28,2.0,2.0,-2.0,-2.0,-13.0,-10.0,-1.0,-1.0,1650912144562994.0,0
29,-2.0,-3.0,-3.0,-5.0,-15.0,-5.0,0.0,-1.0,1650912144562994.0,0
30,-1.0,-1.0,0.0,-2.0,2.0,3.0,0.0,-1.0,1650912144563853.0,0
31,-2.0,-1.0,0.0,3.0,0.0,-10.0,0.0,0.0,1650912144563853.0,0
32,3.0,0.0,-9.0,-3.0,7.0,3.0,-2.0,-1.0,1650912144576975.0,0
33,-1.0,-2.0,1.0,0.0,0.0,2.0,-1.0,0.0,1650912144576975.0,0
34,1.0,-1.0,-1.0,-4.0,0.0,0.0,-3.0,-1.0,1650912144585014.0,0
35,-3.0,-3.0,0.0,-3.0,-28.0,-6.0,-3.0,-2.0,1650912144585014.0,0
36,3.0,0.0,4.0,5.0,5.0,-3.0,0.0,0.0,1650912144601096.0,0
37,2.0,2.0,2.0,6.0,24.0,8.0,1.0,1.0,1650912144601096.0,0
38,2.0,1.0,-2.0,0.0,13.0,4.0,1.0,-1.0,1650912144601096.0,0
39,-2.0,-2.0,-3.0,-8.0,-23.0,-13.0,-3.0,-1.0,1650912144601096.0,0
40,-1.0,-2.0,2.0,1.0,-5.0,-2.0,-3.0,1.0,1650912144622897.0,0
41,-2.0,-1.0,0.0,1.0,11.0,2.0,2.0,0.0,1650912144622897.0,0
42,3.0,1.0,4.0,6.0,4.0,9.0,2.0,1.0,1650912144624302.0,0
43,-16.0,-5.0,-9.0,-9.0,-4.0,-14.0,-1.0,-4.0,1650912144624302.0,0
44,1.0,0.0,-2.0,-3.0,-13.0,-4.0,-4.0,-4.0,1650912144636465.0,0
45,0.0,-1.0,-2.0,-1.0,14.0,5.0,0.0,0.0,1650912144636465.0,0
46,-3.0,1.0,2.0,-2.0,-17.0,4.0,2.0,1.0,1650912144644787.0,0
47,4.0,0.0,2.0,5.0,5.0,9.0,1.0,0.0,1650912144644787.0,0
48,1.0,-1.0,3.0,1.0,1.0,-11.0,1.0,0.0,1650912144659792.0,0
49,-2.0,-2.0,-4.0,-3.0,4.0,2.0,-2.0,1.0,1650912144659792.0,0
50,0.0,-2.0,-1.0,0.0,6.0,-15.0,-1.0,-2.0,1650912144661777.0,0
51,-2.0,-2.0,0.0,-1.0,-12.0,-9.0,-2.0,0.0,1650912144661777.0,0
52,-3.0,0.0,0.0,-1.0,0.0,2.0,-1.0,0.0,1650912144683288.0,0
53,2.0,-1.0,-1.0,-1.0,-2.0,3.0,-3.0,0.0,1650912144683288.0,0
54,-4.0,-3.0,-3.0,-2.0,-7.0,2.0,-1.0,-1.0,1650912144684289.0,0
55,3.0,0.0,-3.0,-4.0,4.0,1.0,-1.0,-1.0,1650912144684289.0,0
56,-2.0,-1.0,0.0,0.0,3.0,2.0,-1.0,-2.0,1650912144696451.0,0
57,0.0,-1.0,0.0,4.0,7.0,4.0,4.0,-1.0,1650912144696451.0,0
58,-2.0,1.0,7.0,3.0,4.0,7.0,1.0,1.0,1650912144704627.0,0
59,2.0,2.0,-3.0,1.0,3.0,0.0,0.0,0.0,1650912144704627.0,0
60,0.0,-2.0,-4.0,-5.0,-6.0,-1.0,-3.0,-1.0,1650912144720895.0,0
61,-2.0,-3.0,-6.0,-9.0,-14.0,-16.0,-4.0,-2.0,1650912144720895.0,0
62,-1.0,-2.0,-1.0,-4.0,-12.0,-3.0,-3.0,-2.0,1650912144721834.0,0
63,3.0,1.0,0.0,-4.0,-4.0,0.0,-1.0,0.0,1650912144721834.0,0
64,-1.0,-1.0,2.0,3.0,-8.0,4.0,1.0,-2.0,1650912144742982.0,0
65,0.0,1.0,0.0,5.0,25.0,5.0,3.0,0.0,1650912144742982.0,0
66,2.0,0.0,0.0,2.0,-7.0,5.0,3.0,2.0,1650912144743817.0,0
67,1.0,-1.0,-1.0,1.0,4.0,-7.0,0.0,-2.0,1650912144743817.0,0
68,-1.0,0.0,1.0,0.0,11.0,3.0,0.0,0.0,1650912144755703.0,0
69,5.0,1.0,0.0,1.0,-6.0,-4.0,-2.0,-2.0,1650912144755703.0,0
70,-17.0,0.0,-3.0,-5.0,2.0,0.0,-2.0,-2.0,1650912144765025.0,0
71,2.0,0.0,1.0,-4.0,-14.0,2.0,-1.0,-1.0,1650912144765025.0,0
72,0.0,-1.0,0.0,-3.0,-7.0,-2.0,-1.0,0.0,1650912144780373.0,0
73,1.0,-3.0,-7.0,-1.0,-5.0,-4.0,-1.0,0.0,1650912144780373.0,0
74,4.0,0.0,-1.0,2.0,7.0,11.0,-2.0,-2.0,1650912144781209.0,0
75,-3.0,-1.0,-1.0,-5.0,1.0,-25.0,-5.0,-2.0,1650912144781209.0,0
76,-1.0,-1.0,2.0,5.0,1.0,12.0,1.0,1.0,1650912144802540.0,0
77,-3.0,1.0,2.0,3.0,16.0,17.0,5.0,2.0,1650912144802540.0,0
78,2.0,0.0,-3.0,-2.0,-4.0,-2.0,3.0,0.0,1650912144804550.0,0
79,-2.0,0.0,-3.0,-1.0,-4.0,16.0,-2.0,0.0,1650912144804550.0,0
80,0.0,-1.0,-1.0,-5.0,-12.0,-32.0,-5.0,-3.0,1650912144825354.0,0
81,-2.0,-2.0,-4.0,-4.0,-11.0,-15.0,-4.0,-3.0,1650912144825354.0,0
82,0.0,-1.0,-1.0,1.0,17.0,2.0,0.0,-3.0,1650912144826354.0,0
83,1.0,2.0,4.0,5.0,-9.0,11.0,2.0,2.0,1650912144826354.0,0
84,0.0,0.0,0.0,0.0,13.0,4.0,1.0,0.0,1650912144840507.0,0
85,-1.0,-2.0,-3.0,-3.0,-16.0,4.0,1.0,2.0,1650912144840507.0,0
86,0.0,0.0,-2.0,-1.0,1.0,-10.0,0.0,0.0,1650912144841344.0,0
87,1.0,1.0,3.0,3.0,14.0,0.0,1.0,0.0,1650912144841344.0,0
88,-1.0,-1.0,0.0,2.0,1.0,7.0,2.0,1.0,1650912144863488.0,0
89,-3.0,0.0,4.0,2.0,6.0,-5.0,-4.0,-2.0,1650912144863488.0,0
90,2.0,-1.0,-2.0,-3.0,-1.0,-4.0,-2.0,0.0,1650912144863675.0,0
91,-1.0,-2.0,-5.0,-7.0,-33.0,-9.0,-2.0,-3.0,1650912144863675.0,0
92,0.0,-2.0,1.0,1.0,2.0,4.0,-1.0,1.0,1650912144885987.0,0
93,0.0,2.0,2.0,4.0,11.0,5.0,0.0,0.0,1650912144885987.0,0
94,1.0,-1.0,-5.0,-5.0,0.0,-9.0,0.0,2.0,1650912144885987.0,0
95,-2.0,1.0,1.0,-1.0,-11.0,2.0,0.0,0.0,1650912144885987.0,0
96,9.0,1.0,-1.0,2.0,12.0,4.0,1.0,1.0,1650912144900975.0,0
97,-9.0,1.0,3.0,4.0,9.0,4.0,3.0,1.0,1650912144900975.0,0
98,3.0,0.0,6.0,3.0,-7.0,2.0,0.0,1.0,1650912144901843.0,0
99,-4.0,-3.0,-7.0,-2.0,3.0,2.0,2.0,-1.0,1650912144901843.0,0
100,3.0,-1.0,-1.0,-6.0,-5.0,-11.0,-4.0,-2.0,1650912144922014.0,0
101,3.0,-1.0,-3.0,-3.0,-4.0,-12.0,-3.0,-1.0,1650912144922014.0,0
102,-1.0,-3.0,1.0,1.0,-15.0,-4.0,-1.0,-2.0,1650912144924008.0,0
103,1.0,0.0,2.0,1.0,11.0,7.0,3.0,0.0,1650912144924008.0,0
104,-3.0,0.0,1.0,3.0,0.0,10.0,2.0,1.0,1650912144945371.0,0
105,1.0,-1.0,0.0,-2.0,4.0,17.0,-1.0,0.0,1650912144945371.0,0
106,-2.0,-1.0,-1.0,1.0,-4.0,-11.0,-1.0,-1.0,1650912144946234.0,0
107,2.0,-2.0,0.0,3.0,7.0,0.0,-1.0,-1.0,1650912144946234.0,0
108,-4.0,-1.0,-2.0,0.0,0.0,-3.0,-1.0,-2.0,1650912144960757.0,0
109,0.0,-1.0,-2.0,-4.0,-21.0,-6.0,0.0,0.0,1650912144960757.0,0
110,2.0,-2.0,-5.0,-6.0,-17.0,-1.0,-3.0,-1.0,1650912144961617.0,0
111,-2.0,-2.0,0.0,3.0,10.0,1.0,0.0,0.0,1650912144961617.0,0
112,-4.0,1.0,-4.0,0.0,10.0,-3.0,0.0,0.0,1650912144981907.0,0
113,2.0,1.0,1.0,-1.0,-6.0,-3.0,0.0,0.0,1650912144981907.0,0
114,0.0,-1.0,-5.0,-4.0,-1.0,5.0,-1.0,-2.0,1650912144991044.0,0
115,-4.0,-1.0,4.0,3.0,17.0,-4.0,-3.0,0.0,1650912144991044.0,0
116,1.0,-1.0,-3.0,-6.0,-10.0,13.0,-2.0,-4.0,1650912145004613.0,0
117,0.0,-1.0,-1.0,-3.0,-16.0,-17.0,-1.0,-1.0,1650912145004613.0,0
118,0.0,0.0,4.0,6.0,11.0,11.0,3.0,0.0,1650912145006610.0,0
119,0.0,-1.0,-2.0,2.0,14.0,1.0,2.0,2.0,1650912145006610.0,0
120,0.0,-1.0,-1.0,-2.0,-4.0,-6.0,1.0,2.0,1650912145019763.0,0
121,7.0,-1.0,-3.0,-4.0,9.0,-2.0,-3.0,-2.0,1650912145019763.0,0
122,-17.0,-3.0,-2.0,-3.0,-18.0,-7.0,-2.0,-4.0,1650912145027077.0,0
123,-2.0,0.0,1.0,-1.0,-14.0,11.0,-2.0,-3.0,1650912145027077.0,0
124,-1.0,-1.0,-3.0,-4.0,-10.0,-16.0,-3.0,-2.0,1650912145051053.0,0
125,-1.0,2.0,4.0,2.0,2.0,-2.0,-2.0,1.0,1650912145051053.0,0
126,3.0,0.0,-1.0,4.0,15.0,7.0,1.0,1.0,1650912145051053.0,0
127,2.0,-1.0,0.0,1.0,6.0,0.0,1.0,0.0,1650912145051053.0,0
128,-4.0,0.0,-1.0,2.0,3.0,11.0,2.0,1.0,1650912145065344.0,0
129,-4.0,-1.0,-4.0,-6.0,1.0,-5.0,-2.0,0.0,1650912145065344.0,0
130,2.0,1.0,1.0,-1.0,-12.0,-8.0,-3.0,-1.0,1650912145066344.0,0
131,-2.0,0.0,-2.0,-2.0,-1.0,-3.0,-2.0,-1.0,1650912145066344.0,0
132,0.0,-1.0,4.0,2.0,10.0,1.0,1.0,0.0,1650912145079540.0,0
133,-3.0,-4.0,-3.0,-2.0,-7.0,13.0,-1.0,-2.0,1650912145079540.0,0
134,2.0,-2.0,-3.0,-5.0,-14.0,-15.0,-1.0,-1.0,1650912145085525.0,0
135,2.0,-1.0,-2.0,4.0,14.0,1.0,3.0,1.0,1650912145085525.0,0
136,-1.0,0.0,2.0,5.0,10.0,-1.0,1.0,-1.0,1650912145102466.0,0
137,-1.0,1.0,9.0,8.0,14.0,-1.0,1.0,0.0,1650912145102466.0,0
138,2.0,1.0,-7.0,-3.0,-19.0,-2.0,-3.0,-2.0,1650912145104461.0,0
139,-1.0,-1.0,-6.0,-9.0,-13.0,11.0,0.0,-1.0,1650912145104461.0,0
140,-1.0,-2.0,0.0,-2.0,-5.0,-5.0,-3.0,-1.0,1650912145125408.0,0
141,-2.0,-1.0,-2.0,-4.0,-28.0,-17.0,-3.0,-1.0,1650912145125408.0,0
142,4.0,1.0,3.0,5.0,12.0,3.0,0.0,-1.0,1650912145126403.0,0
143,1.0,0.0,4.0,7.0,21.0,13.0,-1.0,1.0,1650912145126403.0,0
144,1.0,-1.0,-2.0,3.0,11.0,7.0,3.0,0.0,1650912145139610.0,0
145,-2.0,-1.0,-2.0,-2.0,-5.0,-2.0,0.0,-1.0,1650912145139610.0,0
146,-1.0,-3.0,3.0,-3.0,-5.0,-10.0,-1.0,1.0,1650912145146862.0,0
147,-1.0,1.0,-4.0,-3.0,-9.0,-5.0,-1.0,2.0,1650912145146862.0,0
148,-1.0,-1.0,-2.0,-8.0,-10.0,-2.0,-3.0,-3.0,1650912145163347.0,0
149,0.0,1.0,-2.0,0.0,2.0,8.0,-1.0,-3.0,1650912145163347.0,0
150,1.0,-1.0,0.0,0.0,5.0,-2.0,-1.0,0.0,1650912145164382.0,0
151,-1.0,-2.0,1.0,4.0,13.0,1.0,2.0,0.0,1650912145164382.0,0
152,2.0,-2.0,1.0,2.0,5.0,1.0,2.0,2.0,1650912145185608.0,0
153,1.0,0.0,2.0,4.0,-3.0,-2.0,2.0,0.0,1650912145185608.0,0
154,-2.0,-3.0,-9.0,-9.0,-1.0,3.0,-3.0,-3.0,1650912145185905.0,0
155,1.0,-3.0,-4.0,-13.0,-31.0,-18.0,-8.0,-4.0,1650912145185905.0,0
156,-5.0,-2.0,-2.0,-1.0,-14.0,-1.0,-4.0,-2.0,1650912145199842.0,0
157,-1.0,2.0,9.0,18.0,32.0,10.0,6.0,2.0,1650912145199842.0,0
158,3.0,1.0,3.0,11.0,34.0,36.0,7.0,5.0,1650912145205980.0,0
159,0.0,-1.0,0.0,-3.0,-12.0,-19.0,-1.0,-2.0,1650912145205980.0,0
160,1.0,-1.0,-3.0,-8.0,-21.0,-17.0,-2.0,-1.0,1650912145222936.0,0
161,-3.0,-3.0,-3.0,-9.0,-22.0,-5.0,-4.0,-2.0,1650912145222936.0,0
162,-1.0,1.0,3.0,-2.0,5.0,-8.0,-1.0,-2.0,1650912145223817.0,0
163,-1.0,-1.0,-3.0,3.0,7.0,6.0,1.0,-2.0,1650912145223817.0,0
164,-2.0,1.0,2.0,3.0,9.0,10.0,0.0,3.0,1650912145244934.0,0
165,2.0,-2.0,-1.0,1.0,6.0,-1.0,0.0,-1.0,1650912145244934.0,0
166,10.0,4.0,1.0,-2.0,-11.0,-1.0,1.0,1.0,1650912145246930.0,0
167,-17.0,-3.0,-8.0,-8.0,-24.0,-1.0,-2.0,-2.0,1650912145246930.0,0
168,-1.0,0.0,-3.0,2.0,10.0,-22.0,0.0,0.0,1650912145259801.0,0
169,0.0,-1.0,-1.0,0.0,17.0,8.0,-1.0,-1.0,1650912145259801.0,0
170,2.0,1.0,4.0,3.0,0.0,-4.0,0.0,1.0,1650912145266784.0,0
171,4.0,-1.0,-1.0,-1.0,-5.0,-4.0,-1.0,0.0,1650912145266784.0,0
172,-3.0,-1.0,-3.0,-7.0,-9.0,2.0,-3.0,-3.0,1650912145283937.0,0
173,0.0,-2.0,-3.0,0.0,-8.0,-2.0,-2.0,0.0,1650912145283937.0,0
174,-4.0,-2.0,2.0,8.0,30.0,13.0,3.0,1.0,1650912145284844.0,0
175,4.0,3.0,3.0,6.0,10.0,-4.0,2.0,-1.0,1650912145284844.0,0
176,-1.0,0.0,2.0,0.0,-7.0,-3.0,2.0,1.0,1650912145305186.0,0
177,0.0,-2.0,-4.0,-9.0,-15.0,-3.0,-1.0,-2.0,1650912145305186.0,0
178,-3.0,-3.0,-6.0,-7.0,-14.0,-3.0,-5.0,-3.0,1650912145306189.0,0
179,0.0,-1.0,-3.0,1.0,-4.0,-4.0,-1.0,0.0,1650912145306189.0,0
180,1.0,-3.0,-3.0,-6.0,-4.0,-4.0,-2.0,-1.0,1650912145319406.0,0
181,-1.0,2.0,3.0,6.0,-9.0,8.0,3.0,3.0,1650912145319406.0,0
182,0.0,0.0,-2.0,1.0,16.0,-5.0,1.0,-1.0,1650912145327628.0,0
183,4.0,2.0,6.0,2.0,3.0,8.0,3.0,1.0,1650912145327628.0,0
184,0.0,0.0,0.0,1.0,-2.0,0.0,-2.0,0.0,1650912145351083.0,0
185,-2.0,-2.0,-3.0,-3.0,11.0,0.0,-1.0,-3.0,1650912145351083.0,0
186,-3.0,-1.0,0.0,-2.0,-8.0,-10.0,-2.0,-1.0,1650912145351083.0,0
187,3.0,-1.0,0.0,-1.0,1.0,4.0,-3.0,-1.0,1650912145351083.0,0
188,-1.0,-1.0,0.0,2.0,-4.0,0.0,2.0,0.0,1650912145365459.0,0
189,8.0,0.0,-1.0,-4.0,-8.0,-8.0,0.0,-2.0,1650912145365459.0,0
190,-5.0,-2.0,-2.0,-4.0,-3.0,-5.0,-4.0,-3.0,1650912145366100.0,0
191,0.0,-2.0,-6.0,-8.0,-19.0,-8.0,-3.0,-2.0,1650912145366100.0,0
192,-2.0,0.0,2.0,4.0,12.0,10.0,1.0,-1.0,1650912145379273.0,0
193,3.0,-1.0,2.0,4.0,19.0,7.0,2.0,2.0,1650912145379273.0,0
194,-1.0,0.0,3.0,6.0,8.0,8.0,4.0,0.0,1650912145387485.0,0
195,-2.0,-2.0,-7.0,-6.0,-1.0,-12.0,0.0,0.0,1650912145387485.0,0
196,-2.0,-1.0,-2.0,-2.0,-15.0,-6.0,-3.0,-2.0,1650912145403007.0,0
197,-4.0,0.0,-2.0,-2.0,-15.0,3.0,-4.0,-1.0,1650912145403007.0,0
198,0.0,1.0,2.0,-1.0,7.0,-10.0,0.0,0.0,1650912145404007.0,0
199,-1.0,0.0,2.0,3.0,20.0,3.0,1.0,-2.0,1650912145404007.0,0
200,3.0,2.0,0.0,3.0,-11.0,7.0,1.0,-1.0,1650912145425651.0,0
201,-4.0,-1.0,0.0,-3.0,-4.0,-4.0,-1.0,-1.0,1650912145425651.0,0
202,-1.0,-4.0,-4.0,-10.0,-26.0,8.0,-5.0,-2.0,1650912145426437.0,0
203,2.0,1.0,1.0,0.0,-5.0,-17.0,-2.0,0.0,1650912145426437.0,0
204,-1.0,0.0,1.0,8.0,26.0,14.0,3.0,1.0,1650912145438694.0,0
205,0.0,1.0,5.0,11.0,29.0,10.0,3.0,2.0,1650912145438694.0,0
206,3.0,0.0,-3.0,1.0,0.0,-4.0,2.0,1.0,1650912145447884.0,0
207,-1.0,-4.0,-6.0,-11.0,-17.0,-4.0,-5.0,-1.0,1650912145447884.0,0
208,0.0,-2.0,-2.0,-10.0,-14.0,-12.0,-3.0,-3.0,1650912145462390.0,0
209,-3.0,-2.0,-2.0,-2.0,-16.0,-2.0,-4.0,-3.0,1650912145462390.0,0
210,-1.0,0.0,3.0,6.0,8.0,-3.0,1.0,-1.0,1650912145464326.0,0
211,0.0,-1.0,3.0,6.0,18.0,22.0,3.0,2.0,1650912145464326.0,0
212,0.0,1.0,0.0,3.0,12.0,5.0,0.0,0.0,1650912145485836.0,0
213,9.0,0.0,1.0,-3.0,-9.0,-12.0,1.0,1.0,1650912145485836.0,0
214,-14.0,-3.0,-2.0,-2.0,-11.0,-7.0,-3.0,-1.0,1650912145486868.0,0
215,-2.0,0.0,0.0,-2.0,-2.0,-6.0,-3.0,-2.0,1650912145486868.0,0
216,0.0,0.0,-8.0,-6.0,-9.0,-1.0,-3.0,-2.0,1650912145498210.0,0
217,-3.0,0.0,-3.0,1.0,-1.0,0.0,-1.0,-1.0,1650912145498210.0,0
218,3.0,-2.0,4.0,3.0,22.0,13.0,-1.0,-2.0,1650912145507722.0,0
219,-2.0,-2.0,4.0,7.0,-6.0,-2.0,2.0,1.0,1650912145507722.0,0
220,-2.0,-2.0,-5.0,-9.0,3.0,6.0,1.0,-2.0,1650912145522886.0,0
221,0.0,1.0,-1.0,-3.0,-5.0,-13.0,-1.0,1.0,1650912145522886.0,0
222,0.0,2.0,0.0,2.0,-6.0,-2.0,-2.0,1.0,1650912145523900.0,0
223,-1.0,0.0,3.0,1.0,12.0,3.0,-1.0,0.0,1650912145523900.0,0
224,2.0,-1.0,1.0,-1.0,-8.0,0.0,-1.0,0.0,1650912145545445.0,0
225,-4.0,-5.0,-5.0,-6.0,-29.0,-11.0,-4.0,-2.0,1650912145545445.0,0
226,3.0,1.0,-1.0,4.0,-3.0,2.0,0.0,-1.0,1650912145546332.0,0
227,2.0,-1.0,-2.0,2.0,30.0,13.0,1.0,0.0,1650912145546332.0,0
228,0.0,2.0,4.0,4.0,-12.0,-4.0,2.0,1.0,1650912145559515.0,0
229,-3.0,-1.0,-4.0,-5.0,4.0,7.0,1.0,-2.0,1650912145559515.0,0
230,0.0,0.0,-2.0,-3.0,4.0,-3.0,1.0,0.0,1650912145567685.0,0
231,0.0,0.0,1.0,0.0,-13.0,-9.0,-3.0,-1.0,1650912145567685.0,0
232,-2.0,-1.0,1.0,1.0,0.0,-8.0,-4.0,-1.0,1650912145583256.0,0
233,-3.0,-3.0,3.0,3.0,7.0,-2.0,0.0,0.0,1650912145583256.0,0
234,3.0,-1.0,-6.0,-1.0,2.0,7.0,1.0,-1.0,1650912145583675.0,0
235,0.0,2.0,0.0,-3.0,-6.0,6.0,0.0,-1.0,1650912145583675.0,0
236,-8.0,-3.0,1.0,2.0,6.0,-4.0,0.0,-1.0,1650912145604626.0,0
237,1.0,0.0,-2.0,-2.0,15.0,-5.0,-1.0,-3.0,1650912145604626.0,0
238,1.0,-1.0,-4.0,-6.0,-41.0,-12.0,-3.0,-1.0,1650912145606623.0,0
239,-3.0,0.0,1.0,2.0,9.0,6.0,-1.0,0.0,1650912145606623.0,0
240,5.0,2.0,2.0,7.0,12.0,6.0,4.0,3.0,1650912145619656.0,0
241,2.0,1.0,2.0,7.0,12.0,8.0,4.0,1.0,1650912145619656.0,0
242,-2.0,-1.0,-1.0,-2.0,17.0,-1.0,-2.0,-1.0,1650912145627956.0,0
243,2.0,-2.0,-3.0,-8.0,-31.0,4.0,-2.0,-3.0,1650912145627956.0,0
244,-1.0,-2.0,1.0,0.0,4.0,-9.0,-4.0,-2.0,1650912145643210.0,0
245,-3.0,-2.0,-1.0,1.0,1.0,-3.0,1.0,1.0,1650912145643210.0,0
246,1.0,1.0,0.0,-3.0,1.0,1.0,1.0,0.0,1650912145644244.0,0
247,-2.0,-2.0,0.0,0.0,-7.0,0.0,-1.0,1.0,1650912145644244.0,0
248,0.0,0.0,5.0,1.0,-3.0,-8.0,0.0,0.0,1650912145665456.0,0
249,-1.0,-2.0,-7.0,-1.0,10.0,9.0,-1.0,0.0,1650912145665456.0,0
250,-1.0,-1.0,1.0,1.0,-5.0,-1.0,0.0,0.0,1650912145666405.0,0
251,-1.0,-1.0,0.0,0.0,-11.0,-11.0,0.0,-1.0,1650912145666405.0,0
252,0.0,-2.0,-3.0,-2.0,4.0,-2.0,-2.0,-2.0,1650912145678748.0,0
253,1.0,0.0,0.0,-4.0,-13.0,0.0,-4.0,-1.0,1650912145678748.0,0
254,0.0,0.0,1.0,0.0,8.0,2.0,0.0,0.0,1650912145687780.0,0
255,-1.0,0.0,3.0,5.0,14.0,5.0,2.0,2.0,1650912145687780.0,0
256,1.0,1.0,-2.0,-1.0,7.0,2.0,2.0,0.0,1650912145703000.0,0
257,-3.0,-3.0,-6.0,-7.0,-28.0,-8.0,-2.0,-2.0,1650912145703000.0,0
258,0.0,0.0,0.0,-1.0,5.0,3.0,-1.0,-2.0,1650912145703917.0,0
259,8.0,0.0,0.0,3.0,8.0,-1.0,0.0,-1.0,1650912145703917.0,0
260,-9.0,0.0,6.0,1.0,-1.0,0.0,0.0,0.0,1650912145725687.0,0
261,0.0,-1.0,-4.0,-2.0,-9.0,9.0,1.0,0.0,1650912145725687.0,0
262,-2.0,-2.0,-10.0,-4.0,12.0,-2.0,1.0,1.0,1650912145726246.0,0
263,3.0,0.0,2.0,3.0,2.0,-14.0,-2.0,-1.0,1650912145726246.0,0
264,3.0,1.0,-4.0,-3.0,-2.0,-2.0,-2.0,-2.0,1650912145739004.0,0
265,1.0,2.0,6.0,3.0,-2.0,4.0,1.0,0.0,1650912145739004.0,0
266,0.0,0.0,2.0,3.0,-9.0,-8.0,0.0,-1.0,1650912145748024.0,0
267,-4.0,-2.0,-4.0,-2.0,11.0,-4.0,-2.0,-1.0,1650912145748024.0,0
268,1.0,-2.0,-2.0,-3.0,-6.0,5.0,-1.0,0.0,1650912145763487.0,0
269,-3.0,0.0,-3.0,-3.0,-3.0,8.0,-4.0,0.0,1650912145763487.0,0
270,0.0,-1.0,-1.0,0.0,-10.0,-8.0,1.0,1.0,1650912145764491.0,0
271,-1.0,0.0,0.0,2.0,7.0,10.0,2.0,-1.0,1650912145764491.0,0
272,0.0,0.0,3.0,4.0,0.0,1.0,3.0,2.0,1650912145785365.0,0
273,1.0,0.0,-1.0,-5.0,-3.0,-2.0,-2.0,1.0,1650912145785365.0,0
274,-3.0,-2.0,-10.0,-14.0,-4.0,-12.0,-5.0,-3.0,1650912145786366.0,0
275,-2.0,-1.0,1.0,0.0,-31.0,-6.0,-3.0,-3.0,1650912145786366.0,0
276,2.0,0.0,2.0,6.0,30.0,19.0,1.0,-1.0,1650912145807601.0,0
277,-1.0,3.0,5.0,9.0,26.0,8.0,2.0,1.0,1650912145807601.0,0
278,9.0,1.0,-1.0,-2.0,-21.0,-8.0,0.0,1.0,1650912145808629.0,0
279,-22.0,-3.0,-4.0,-6.0,2.0,-3.0,-1.0,-4.0,1650912145808629.0,0
280,1.0,0.0,-3.0,-1.0,-4.0,3.0,-2.0,-2.0,1650912145822855.0,0
281,-1.0,-2.0,1.0,2.0,5.0,-5.0,-1.0,1.0,1650912145822855.0,0
282,-1.0,0.0,2.0,-1.0,-7.0,-11.0,0.0,-1.0,1650912145823751.0,0
283,5.0,0.0,0.0,1.0,-5.0,-6.0,-2.0,1.0,1650912145823751.0,0
284,0.0,-2.0,-5.0,-1.0,-2.0,-4.0,-3.0,-1.0,1650912145845332.0,0
285,-2.0,-3.0,1.0,2.0,12.0,3.0,1.0,0.0,1650912145845332.0,0
286,-3.0,-1.0,1.0,1.0,-3.0,14.0,1.0,0.0,1650912145846166.0,0
287,0.0,-3.0,-8.0,-11.0,-10.0,-9.0,-3.0,0.0,1650912145846166.0,0
288,-4.0,0.0,0.0,-3.0,-17.0,-5.0,-2.0,-1.0,1650912145867510.0,0
289,5.0,1.0,-3.0,1.0,7.0,0.0,0.0,-1.0,1650912145867510.0,0
290,-1.0,0.0,9.0,6.0,21.0,19.0,2.0,2.0,1650912145869344.0,0
291,2.0,2.0,2.0,2.0,-2.0,-12.0,2.0,-1.0,1650912145869344.0,0
292,0.0,-3.0,-9.0,-11.0,-8.0,-12.0,-5.0,-1.0,1650912145883294.0,0
293,-2.0,-1.0,-5.0,-2.0,-11.0,-13.0,-2.0,-1.0,1650912145883294.0,0
294,-2.0,1.0,3.0,10.0,5.0,19.0,4.0,0.0,1650912145884327.0,0
295,2.0,1.0,3.0,9.0,33.0,16.0,4.0,1.0,1650912145884327.0,0
296,-1.0,0.0,2.0,-4.0,3.0,8.0,3.0,0.0,1650912145905240.0,0
297,0.0,0.0,-1.0,-5.0,-17.0,-15.0,0.0,-2.0,1650912145905240.0,0
298,-3.0,-4.0,-4.0,-5.0,-13.0,-11.0,-4.0,-3.0,1650912145906240.0,0
299,0.0,0.0,-2.0,-3.0,-6.0,-12.0,-5.0,-1.0,1650912145906240.0,0
300,5.0,-2.0,-2.0,-2.0,-7.0,-2.0,-4.0,-3.0,1650912145927432.0,0
301,-2.0,0.0,1.0,0.0,6.0,8.0,3.0,1.0,1650912145927432.0,0
302,2.0,1.0,7.0,8.0,19.0,-1.0,2.0,0.0,1650912145929458.0,0
303,1.0,0.0,-2.0,2.0,-4.0,5.0,0.0,-1.0,1650912145929458.0,0
304,-3.0,-1.0,-5.0,-6.0,-10.0,-5.0,-1.0,0.0,1650912145942243.0,0
305,-2.0,-2.0,0.0,-4.0,-19.0,-15.0,-5.0,-4.0,1650912145942243.0,0
306,-1.0,-2.0,-2.0,0.0,0.0,0.0,-2.0,-1.0,1650912145956371.0,0
307,0.0,-1.0,0.0,2.0,15.0,10.0,1.0,-1.0,1650912145956371.0,0
308,-1.0,0.0,4.0,6.0,8.0,11.0,3.0,1.0,1650912145965851.0,0
309,-1.0,-2.0,-4.0,-2.0,7.0,10.0,1.0,1.0,1650912145965851.0,0
310,-1.0,0.0,2.0,-1.0,-9.0,-8.0,1.0,0.0,1650912145966210.0,0
311,0.0,-1.0,-3.0,-3.0,-10.0,-5.0,-2.0,-2.0,1650912145966210.0,0
312,-2.0,-2.0,-6.0,-5.0,-6.0,-5.0,-1.0,-1.0,1650912145994779.0,0
313,0.0,-2.0,3.0,-2.0,10.0,4.0,-2.0,-1.0,1650912145994779.0,0
314,0.0,0.0,-3.0,-5.0,-18.0,-7.0,-4.0,-3.0,1650912145996674.0,0
315,1.0,0.0,1.0,0.0,-12.0,6.0,0.0,2.0,1650912145996674.0,0
316,-3.0,-3.0,-4.0,2.0,12.0,13.0,2.0,1.0,1650912146002783.0,0
317,2.0,1.0,3.0,3.0,10.0,-17.0,-1.0,0.0,1650912146002783.0,0
318,0.0,-1.0,-3.0,0.0,-4.0,4.0,0.0,-1.0,1650912146008774.0,0
319,-1.0,1.0,3.0,0.0,17.0,-3.0,0.0,-1.0,1650912146008774.0,0
320,10.0,1.0,1.0,-1.0,-12.0,4.0,-1.0,0.0,1650912146025549.0,0
321,-5.0,-1.0,-3.0,-5.0,-10.0,-3.0,-3.0,-1.0,1650912146025549.0,0
322,-2.0,-2.0,-1.0,-5.0,-2.0,-3.0,-3.0,0.0,1650912146026837.0,0
323,-2.0,-2.0,1.0,-4.0,-16.0,-9.0,-3.0,0.0,1650912146026837.0,0
324,6.0,1.0,3.0,3.0,2.0,9.0,1.0,-1.0,1650912146047992.0,0
325,3.0,1.0,-1.0,3.0,10.0,6.0,2.0,-2.0,1650912146047992.0,0
326,-2.0,2.0,6.0,6.0,18.0,2.0,3.0,1.0,1650912146048910.0,0
327,2.0,2.0,-5.0,0.0,1.0,1.0,2.0,1.0,1650912146048910.0,0
328,-6.0,-2.0,-1.0,-4.0,-7.0,-8.0,-3.0,0.0,1650912146062009.0,0
329,0.0,1.0,-1.0,-3.0,-9.0,-3.0,-3.0,-1.0,1650912146062009.0,0
330,1.0,-2.0,-1.0,0.0,1.0,-1.0,0.0,-1.0,1650912146069106.0,0
331,-2.0,-3.0,4.0,1.0,-5.0,2.0,1.0,0.0,1650912146069106.0,0
332,-2.0,1.0,0.0,2.0,-8.0,1.0,2.0,-1.0,1650912146085544.0,0
333,-1.0,-1.0,-1.0,1.0,1.0,0.0,1.0,1.0,1650912146085544.0,0
334,1.0,-1.0,-5.0,-2.0,8.0,-2.0,-3.0,0.0,1650912146086191.0,0
335,-1.0,-2.0,-4.0,-7.0,-19.0,-3.0,-3.0,-2.0,1650912146086191.0,0
336,-2.0,0.0,0.0,3.0,6.0,4.0,2.0,-1.0,1650912146106139.0,0
337,3.0,1.0,2.0,7.0,16.0,9.0,2.0,-2.0,1650912146106139.0,0
338,2.0,0.0,0.0,0.0,4.0,6.0,1.0,0.0,1650912146115393.0,0
339,-2.0,-3.0,-8.0,-8.0,-6.0,-14.0,-3.0,-1.0,1650912146115393.0,0
340,-5.0,-4.0,0.0,-6.0,-16.0,-5.0,-3.0,-3.0,1650912146121979.0,0
341,0.0,-1.0,-3.0,-4.0,-8.0,3.0,0.0,-1.0,1650912146121979.0,0
342,5.0,-1.0,-1.0,0.0,1.0,-10.0,-1.0,-1.0,1650912146129041.0,0
343,0.0,0.0,6.0,7.0,9.0,-4.0,-1.0,0.0,1650912146129041.0,0
344,-1.0,-1.0,0.0,4.0,5.0,-1.0,-2.0,1.0,1650912146145059.0,0
345,-1.0,-1.0,-1.0,-3.0,3.0,8.0,2.0,1.0,1650912146145059.0,0
346,1.0,0.0,-1.0,-1.0,-4.0,10.0,1.0,0.0,1650912146146771.0,0
347,-1.0,-1.0,-6.0,-3.0,-6.0,6.0,0.0,0.0,1650912146146771.0,0
348,-2.0,1.0,3.0,-1.0,9.0,-16.0,-2.0,-1.0,1650912146168383.0,0
349,0.0,0.0,0.0,-5.0,-23.0,-6.0,-5.0,-3.0,1650912146168383.0,0
350,-5.0,0.0,-5.0,-3.0,-14.0,-18.0,-4.0,-3.0,1650912146169258.0,0
351,-1.0,0.0,2.0,7.0,19.0,21.0,2.0,0.0,1650912146169258.0,0
352,-1.0,-1.0,1.0,5.0,25.0,17.0,3.0,2.0,1650912146183330.0,0
353,0.0,1.0,2.0,3.0,-1.0,5.0,1.0,3.0,1650912146183330.0,0
354,-2.0,0.0,-3.0,-4.0,-1.0,-13.0,-1.0,1.0,1650912146188227.0,0
355,-2.0,-1.0,-1.0,-4.0,-11.0,-5.0,-3.0,-1.0,1650912146188227.0,0
356,1.0,0.0,-3.0,-4.0,-13.0,-2.0,-3.0,-2.0,1650912146205213.0,0
357,1.0,0.0,1.0,2.0,2.0,3.0,-1.0,-1.0,1650912146205213.0,0
358,0.0,-2.0,2.0,1.0,7.0,18.0,1.0,-1.0,1650912146206213.0,0
359,2.0,0.0,0.0,-3.0,-2.0,-23.0,-1.0,0.0,1650912146206213.0,0
360,-2.0,-1.0,-1.0,2.0,4.0,-10.0,0.0,0.0,1650912146235352.0,0
361,-2.0,-1.0,-2.0,0.0,9.0,-6.0,-2.0,-1.0,1650912146235352.0,0
362,-1.0,0.0,1.0,-2.0,-13.0,-3.0,-1.0,0.0,1650912146244480.0,0
363,1.0,0.0,-1.0,-3.0,1.0,19.0,1.0,0.0,1650912146244480.0,0
364,7.0,2.0,2.0,3.0,-6.0,-1.0,0.0,2.0,1650912146244480.0,0
365,-17.0,-2.0,0.0,5.0,8.0,-6.0,-5.0,-1.0,1650912146244480.0,0
366,-2.0,-2.0,-1.0,-2.0,7.0,4.0,0.0,-2.0,1650912146248352.0,0
367,2.0,2.0,-1.0,-3.0,-1.0,4.0,2.0,2.0,1650912146248352.0,0
368,6.0,3.0,-3.0,-4.0,-1.0,-13.0,-2.0,-2.0,1650912146265498.0,0
369,-5.0,-2.0,-3.0,-3.0,-18.0,-7.0,-3.0,-4.0,1650912146265498.0,0
370,-3.0,-5.0,-2.0,-3.0,5.0,-6.0,-3.0,-2.0,1650912146266498.0,0
371,-4.0,-2.0,1.0,5.0,-5.0,14.0,0.0,0.0,1650912146266498.0,0
372,0.0,1.0,3.0,3.0,15.0,-5.0,6.0,4.0,1650912146287869.0,0
373,9.0,-1.0,0.0,-4.0,2.0,6.0,4.0,3.0,1650912146287869.0,0
374,-2.0,0.0,0.0,1.0,-3.0,3.0,0.0,3.0,1650912146288823.0,0
375,3.0,2.0,-1.0,3.0,13.0,-16.0,1.0,1.0,1650912146288823.0,0
376,4.0,-2.0,-1.0,0.0,4.0,8.0,-2.0,-2.0,1650912146301180.0,0
377,-14.0,-3.0,-1.0,-5.0,-17.0,-3.0,-7.0,-13.0,1650912146301180.0,0
378,-5.0,-2.0,-1.0,2.0,-7.0,0.0,0.0,0.0,1650912146310009.0,0
379,-1.0,-2.0,-2.0,-2.0,3.0,-1.0,-4.0,-4.0,1650912146310009.0,0
380,-1.0,-3.0,-4.0,-7.0,-19.0,0.0,-7.0,-6.0,1650912146326002.0,0
381,-8.0,-1.0,0.0,-1.0,7.0,-3.0,6.0,5.0,1650912146326002.0,0
382,8.0,4.0,1.0,1.0,4.0,5.0,12.0,19.0,1650912146326338.0,0
383,-1.0,-1.0,2.0,5.0,14.0,6.0,-9.0,-10.0,1650912146326338.0,0
384,-2.0,-1.0,0.0,-1.0,7.0,1.0,-3.0,-10.0,1650912146347883.0,0
385,9.0,-1.0,-2.0,-2.0,-10.0,-4.0,3.0,5.0,1650912146347883.0,0
386,1.0,-2.0,-3.0,-4.0,-9.0,-8.0,2.0,3.0,1650912146348717.0,0
387,-3.0,2.0,0.0,0.0,-1.0,0.0,1.0,0.0,1650912146348717.0,0
388,9.0,2.0,-1.0,-2.0,2.0,2.0,10.0,6.0,1650912146360880.0,0
389,3.0,0.0,0.0,2.0,6.0,0.0,-2.0,1.0,1650912146360880.0,0
390,-36.0,-15.0,-2.0,-4.0,-12.0,-4.0,1.0,-18.0,1650912146369858.0,0
391,9.0,3.0,-1.0,-2.0,-4.0,-1.0,-7.0,-3.0,1650912146369858.0,0
392,0.0,-3.0,-2.0,-2.0,2.0,-10.0,-30.0,-8.0,1650912146385875.0,0
393,5.0,5.0,0.0,-3.0,-14.0,-6.0,-5.0,-15.0,1650912146385875.0,0
394,9.0,6.0,3.0,6.0,7.0,-1.0,3.0,-1.0,1650912146386021.0,0
395,-1.0,-5.0,-2.0,1.0,8.0,2.0,13.0,16.0,1650912146386021.0,0
396,-2.0,4.0,3.0,4.0,4.0,19.0,15.0,4.0,1650912146408004.0,0
397,8.0,1.0,0.0,2.0,9.0,-8.0,6.0,9.0,1650912146408004.0,0
398,1.0,6.0,5.0,-4.0,-8.0,-6.0,-9.0,-5.0,1650912146408844.0,0
399,5.0,-1.0,-4.0,-7.0,-14.0,-1.0,0.0,4.0,1650912146408844.0,0
400,-12.0,0.0,2.0,4.0,9.0,-11.0,-3.0,-13.0,1650912146421167.0,0
401,-8.0,-7.0,-3.0,2.0,21.0,20.0,2.0,5.0,1650912146421167.0,0
402,8.0,-1.0,-2.0,-3.0,-14.0,9.0,1.0,-7.0,1650912146430015.0,0
403,2.0,11.0,5.0,0.0,-7.0,-14.0,3.0,-8.0,1650912146430015.0,0
404,-10.0,-8.0,-4.0,-3.0,-9.0,-4.0,3.0,38.0,1650912146444543.0,0
405,-8.0,0.0,0.0,2.0,0.0,0.0,-14.0,-45.0,1650912146444543.0,0
406,2.0,2.0,1.0,5.0,20.0,9.0,-1.0,4.0,1650912146446537.0,0
407,4.0,-9.0,-11.0,-12.0,-16.0,-4.0,-1.0,-10.0,1650912146446537.0,0
408,-1.0,19.0,7.0,-2.0,-10.0,-12.0,3.0,7.0,1650912146468024.0,0
409,1.0,-25.0,3.0,-1.0,2.0,-1.0,-2.0,4.0,1650912146468024.0,0
410,3.0,-3.0,-12.0,3.0,24.0,8.0,-2.0,12.0,1650912146468861.0,0
411,-3.0,-5.0,4.0,3.0,6.0,13.0,-2.0,-7.0,1650912146468861.0,0
412,-1.0,-1.0,-10.0,-8.0,-31.0,-19.0,2.0,2.0,1650912146481957.0,0
413,1.0,-1.0,-8.0,-9.0,-8.0,-18.0,-2.0,20.0,1650912146481957.0,0
414,4.0,2.0,0.0,-1.0,2.0,4.0,-9.0,-25.0,1650912146489779.0,0
415,-4.0,8.0,11.0,10.0,17.0,8.0,5.0,11.0,1650912146489779.0,0
416,-6.0,-11.0,-9.0,6.0,21.0,17.0,6.0,-4.0,1650912146505083.0,0
417,17.0,18.0,16.0,7.0,5.0,5.0,9.0,15.0,1650912146505083.0,0
418,-11.0,-17.0,-13.0,-7.0,-16.0,-14.0,-3.0,-3.0,1650912146506083.0,0
419,0.0,-5.0,-1.0,-5.0,-5.0,-2.0,-5.0,-15.0,1650912146506083.0,0
420,-3.0,-10.0,-8.0,-5.0,-17.0,10.0,-2.0,3.0,1650912146527537.0,0
421,3.0,15.0,8.0,2.0,-10.0,-13.0,-2.0,-6.0,1650912146527537.0,0
422,-1.0,-7.0,-1.0,-1.0,5.0,-6.0,-2.0,7.0,1650912146529399.0,0
423,4.0,-2.0,-1.0,1.0,-2.0,-6.0,-5.0,0.0,1650912146529399.0,0
424,-2.0,1.0,3.0,-4.0,7.0,11.0,1.0,-8.0,1650912146541181.0,0
425,0.0,-4.0,-9.0,-2.0,-14.0,12.0,6.0,8.0,1650912146541181.0,0
426,-6.0,-12.0,4.0,0.0,-11.0,-8.0,0.0,-6.0,1650912146550156.0,0
427,-7.0,1.0,0.0,0.0,2.0,2.0,1.0,7.0,1650912146550156.0,0
428,7.0,1.0,5.0,2.0,2.0,-7.0,-10.0,-21.0,1650912146565665.0,0
429,-5.0,-5.0,-1.0,5.0,17.0,10.0,4.0,14.0,1650912146565665.0,0
430,11.0,12.0,5.0,3.0,3.0,-6.0,-2.0,-6.0,1650912146566665.0,0
431,-4.0,1.0,-2.0,-2.0,-5.0,-2.0,4.0,6.0,1650912146566665.0,0
432,-11.0,-9.0,-5.0,-6.0,2.0,-2.0,-5.0,-6.0,1650912146587142.0,0
433,14.0,1.0,0.0,-3.0,-14.0,-14.0,-3.0,-9.0,1650912146587142.0,0
434,-5.0,-3.0,2.0,-1.0,-13.0,6.0,0.0,33.0,1650912146588980.0,0
435,-8.0,-7.0,-2.0,5.0,24.0,9.0,4.0,-11.0,1650912146588980.0,0
436,8.0,16.0,8.0,-1.0,-10.0,1.0,3.0,6.0,1650912146601176.0,0
437,-9.0,1.0,4.0,0.0,-18.0,-12.0,-6.0,-22.0,1650912146601176.0,0
438,4.0,-7.0,-5.0,0.0,16.0,17.0,0.0,-2.0,1650912146610111.0,0
439,5.0,10.0,0.0,-3.0,-17.0,-14.0,-5.0,1.0,1650912146610111.0,0
440,-2.0,-4.0,1.0,2.0,3.0,-3.0,4.0,5.0,1650912146625349.0,0
441,-1.0,7.0,-2.0,2.0,17.0,10.0,5.0,5.0,1650912146625349.0,0
442,5.0,6.0,-5.0,-2.0,-2.0,2.0,-1.0,-7.0,1650912146626350.0,0
443,-11.0,-12.0,4.0,-4.0,7.0,-1.0,-1.0,-2.0,1650912146626350.0,0
444,1.0,-8.0,-8.0,-6.0,-23.0,-4.0,-6.0,-1.0,1650912146647888.0,0
445,-2.0,-1.0,0.0,2.0,5.0,4.0,4.0,13.0,1650912146647888.0,0
446,3.0,-4.0,-3.0,0.0,11.0,-4.0,-7.0,-23.0,1650912146648822.0,0
447,4.0,6.0,4.0,5.0,-15.0,5.0,-1.0,-10.0,1650912146648822.0,0
448,0.0,4.0,3.0,3.0,10.0,-3.0,0.0,2.0,1650912146670237.0,0
449,2.0,4.0,2.0,-5.0,7.0,-12.0,3.0,5.0,1650912146670237.0,0
450,3.0,-3.0,-4.0,1.0,-20.0,3.0,4.0,16.0,1650912146671110.0,0
451,-11.0,0.0,1.0,-3.0,9.0,2.0,-7.0,-12.0,1650912146671110.0,0
452,5.0,4.0,9.0,2.0,-5.0,6.0,0.0,1.0,1650912146693380.0,0
453,-2.0,-10.0,-12.0,-2.0,7.0,4.0,-3.0,-2.0,1650912146693380.0,0
454,1.0,13.0,4.0,-1.0,6.0,-6.0,-2.0,1.0,1650912146694265.0,0
455,-5.0,-11.0,-7.0,-3.0,-8.0,-5.0,-4.0,3.0,1650912146694265.0,0
456,-6.0,-7.0,-10.0,-10.0,-8.0,-7.0,1.0,3.0,1650912146708337.0,0
457,8.0,8.0,-4.0,5.0,0.0,4.0,-3.0,1.0,1650912146708337.0,0
458,-13.0,-12.0,5.0,-3.0,1.0,-6.0,-2.0,-6.0,1650912146709207.0,0
459,6.0,8.0,3.0,-3.0,-10.0,14.0,3.0,8.0,1650912146709207.0,0
460,4.0,-10.0,3.0,2.0,3.0,-5.0,0.0,-1.0,1650912146737830.0,0
461,-18.0,0.0,-1.0,3.0,0.0,3.0,-1.0,-9.0,1650912146737830.0,0
462,-2.0,-2.0,-3.0,-2.0,12.0,0.0,-2.0,-5.0,1650912146738829.0,0
463,8.0,4.0,-2.0,3.0,13.0,0.0,2.0,13.0,1650912146738829.0,0
464,-1.0,-3.0,-6.0,-4.0,-14.0,9.0,-4.0,-7.0,1650912146744854.0,0
465,-6.0,-6.0,-2.0,-11.0,-48.0,-24.0,-8.0,-12.0,1650912146744854.0,0
466,-2.0,6.0,6.0,6.0,28.0,7.0,7.0,1.0,1650912146746844.0,0
467,7.0,1.0,6.0,9.0,9.0,8.0,4.0,1.0,1650912146746844.0,0
468,1.0,2.0,-10.0,-1.0,9.0,-1.0,3.0,4.0,1650912146767836.0,0
469,0.0,6.0,15.0,-2.0,-4.0,1.0,-2.0,1.0,1650912146767836.0,0
470,-2.0,-6.0,-24.0,-7.0,-14.0,-5.0,-1.0,-2.0,1650912146768690.0,0
471,3.0,8.0,18.0,-7.0,0.0,-7.0,-3.0,6.0,1650912146768690.0,0
472,-20.0,1.0,-1.0,5.0,3.0,3.0,-3.0,-15.0,1650912146790007.0,0
473,10.0,-4.0,-4.0,0.0,11.0,6.0,-1.0,-10.0,1650912146790007.0,0
474,2.0,12.0,7.0,4.0,3.0,1.0,5.0,4.0,1650912146791041.0,0
475,-3.0,-1.0,-8.0,-3.0,-9.0,-17.0,-3.0,11.0,1650912146791041.0,0
476,9.0,4.0,3.0,-6.0,-7.0,-15.0,-6.0,-2.0,1650912146805141.0,0
477,-1.0,2.0,2.0,1.0,-4.0,3.0,-2.0,-20.0,1650912146805141.0,0
478,1.0,1.0,3.0,7.0,3.0,-2.0,0.0,16.0,1650912146806174.0,0
479,0.0,-5.0,-8.0,0.0,5.0,12.0,0.0,0.0,1650912146806174.0,0
480,-2.0,-5.0,-4.0,0.0,-1.0,1.0,3.0,-1.0,1650912146827601.0,0
481,0.0,2.0,6.0,-3.0,4.0,-3.0,4.0,9.0,1650912146827601.0,0
482,8.0,8.0,6.0,0.0,-13.0,-1.0,2.0,6.0,1650912146827601.0,0
483,-5.0,-18.0,-9.0,-5.0,-4.0,-12.0,-9.0,-16.0,1650912146827601.0,0
484,-14.0,-14.0,-2.0,2.0,-3.0,9.0,0.0,4.0,1650912146849878.0,0
485,3.0,4.0,-7.0,-5.0,6.0,9.0,-2.0,6.0,1650912146849878.0,0
486,-3.0,-7.0,-1.0,-5.0,-20.0,-9.0,-3.0,-3.0,1650912146849878.0,0
487,4.0,10.0,4.0,2.0,-5.0,-8.0,1.0,5.0,1650912146849878.0,0
488,-1.0,-1.0,7.0,-2.0,5.0,-7.0,1.0,-4.0,1650912146864882.0,0
489,0.0,-10.0,-12.0,3.0,21.0,12.0,-1.0,5.0,1650912146864882.0,0
490,-2.0,3.0,9.0,7.0,14.0,9.0,4.0,-4.0,1650912146864882.0,0
491,3.0,-1.0,-4.0,-1.0,5.0,0.0,5.0,9.0,1650912146864882.0,0
492,8.0,-5.0,-2.0,-3.0,-8.0,-9.0,-9.0,2.0,1650912146887189.0,0
493,-5.0,-3.0,0.0,-5.0,-28.0,-11.0,1.0,5.0,1650912146887189.0,0
494,0.0,3.0,-8.0,-7.0,15.0,3.0,-5.0,-8.0,1650912146887189.0,0
495,-1.0,-1.0,-3.0,9.0,1.0,-2.0,0.0,1.0,1650912146887189.0,0
496,3.0,6.0,4.0,4.0,6.0,1.0,3.0,4.0,1650912146909501.0,0
497,-4.0,5.0,5.0,-3.0,10.0,15.0,3.0,3.0,1650912146909501.0,0
498,-1.0,2.0,-4.0,-3.0,-4.0,-9.0,-4.0,-6.0,1650912146910500.0,0
499,3.0,-9.0,-2.0,-4.0,-14.0,-6.0,-5.0,-11.0,1650912146910500.0,0
500,-4.0,8.0,3.0,6.0,14.0,1.0,0.0,-2.0,1650912146924167.0,0
501,2.0,-8.0,-8.0,-3.0,-2.0,-11.0,-5.0,0.0,1650912146924167.0,0
502,4.0,15.0,15.0,0.0,-13.0,5.0,0.0,6.0,1650912146932444.0,0
503,-8.0,-9.0,-14.0,-8.0,-16.0,4.0,-1.0,-2.0,1650912146932444.0,0
504,7.0,13.0,6.0,-2.0,-24.0,-17.0,-3.0,2.0,1650912146947879.0,0
505,2.0,7.0,16.0,12.0,36.0,14.0,2.0,3.0,1650912146947879.0,0
506,-5.0,-9.0,-11.0,6.0,30.0,15.0,5.0,-1.0,1650912146947879.0,0
507,7.0,9.0,9.0,5.0,6.0,9.0,5.0,0.0,1650912146947879.0,0
508,-3.0,0.0,-4.0,-7.0,-11.0,-11.0,1.0,22.0,1650912146970014.0,0
509,-9.0,-22.0,-14.0,-14.0,-44.0,-21.0,-6.0,-10.0,1650912146970014.0,0
510,5.0,-1.0,5.0,5.0,6.0,3.0,-2.0,-3.0,1650912146970014.0,0
511,-14.0,-12.0,-10.0,2.0,29.0,18.0,5.0,11.0,1650912146970014.0,0
512,-5.0,10.0,9.0,3.0,-7.0,-1.0,2.0,-3.0,1650912146984291.0,0
513,4.0,-5.0,-12.0,-5.0,-19.0,9.0,-4.0,-2.0,1650912146984291.0,0
514,-5.0,-7.0,-7.0,-7.0,-26.0,-28.0,-5.0,-8.0,1650912146999560.0,0
515,3.0,10.0,2.0,5.0,24.0,11.0,2.0,3.0,1650912146999560.0,0
516,-4.0,-15.0,-5.0,2.0,27.0,18.0,5.0,3.0,1650912147007348.0,0
517,-4.0,1.0,12.0,6.0,1.0,-7.0,0.0,6.0,1650912147007348.0,0
518,2.0,4.0,4.0,-12.0,-22.0,-6.0,-3.0,-11.0,1650912147007348.0,0
519,-1.0,-7.0,-27.0,-9.0,-26.0,-13.0,-5.0,-7.0,1650912147007348.0,0
520,5.0,7.0,3.0,0.0,12.0,8.0,2.0,-2.0,1650912147029909.0,0
521,-2.0,2.0,5.0,1.0,15.0,5.0,2.0,-3.0,1650912147029909.0,0
522,-1.0,-11.0,-5.0,-4.0,-2.0,13.0,3.0,3.0,1650912147029909.0,0
523,2.0,9.0,5.0,-3.0,-16.0,-21.0,-2.0,-10.0,1650912147029909.0,0
524,0.0,-4.0,-7.0,1.0,-1.0,2.0,-4.0,11.0,1650912147044285.0,0
525,-15.0,-5.0,-7.0,1.0,11.0,-2.0,0.0,-1.0,1650912147044285.0,0
526,3.0,8.0,-4.0,2.0,-3.0,-2.0,1.0,5.0,1650912147052179.0,0
527,1.0,12.0,21.0,2.0,6.0,5.0,-2.0,-6.0,1650912147052179.0,0
528,-4.0,-29.0,-21.0,-6.0,-30.0,3.0,0.0,-7.0,1650912147067168.0,0
529,9.0,19.0,13.0,6.0,8.0,2.0,4.0,11.0,1650912147067168.0,0
530,4.0,1.0,1.0,7.0,26.0,6.0,0.0,-1.0,1650912147067168.0,0
531,-8.0,-7.0,-4.0,-1.0,-4.0,-9.0,1.0,2.0,1650912147067168.0,0
532,11.0,5.0,3.0,1.0,12.0,3.0,2.0,4.0,1650912147089527.0,0
533,15.0,13.0,1.0,-1.0,-3.0,-3.0,-2.0,-8.0,1650912147089527.0,0
534,-16.0,-26.0,-19.0,-8.0,-32.0,-5.0,1.0,9.0,1650912147089527.0,0
535,1.0,4.0,5.0,-6.0,-8.0,-14.0,-5.0,-5.0,1650912147089527.0,0
536,10.0,14.0,16.0,9.0,14.0,-1.0,0.0,-1.0,1650912147103510.0,0
537,-10.0,-11.0,-11.0,1.0,9.0,10.0,2.0,-1.0,1650912147103510.0,0
538,1.0,3.0,8.0,7.0,16.0,4.0,0.0,-14.0,1650912147112600.0,0
539,-3.0,6.0,8.0,-9.0,-26.0,-5.0,-3.0,-1.0,1650912147112600.0,0
540,4.0,-1.0,-4.0,-1.0,-6.0,-5.0,-1.0,-3.0,1650912147126681.0,0
541,-4.0,-16.0,-5.0,4.0,18.0,-1.0,2.0,3.0,1650912147126681.0,0
542,0.0,1.0,0.0,-2.0,-6.0,-4.0,-2.0,-6.0,1650912147127647.0,0
543,-2.0,3.0,2.0,4.0,10.0,0.0,0.0,5.0,1650912147127647.0,0
544,-9.0,-12.0,-5.0,-12.0,-27.0,-2.0,-4.0,-9.0,1650912147149891.0,0
545,2.0,-12.0,-14.0,-6.0,-12.0,4.0,-3.0,-3.0,1650912147149891.0,0
546,0.0,8.0,13.0,8.0,25.0,9.0,4.0,8.0,1650912147149891.0,0
547,11.0,1.0,-7.0,8.0,17.0,10.0,4.0,4.0,1650912147149891.0,0
548,-11.0,-8.0,-6.0,-7.0,2.0,-7.0,-5.0,-21.0,1650912147164159.0,0
549,0.0,7.0,8.0,1.0,-13.0,0.0,-3.0,3.0,1650912147164159.0,0
550,-1.0,-9.0,-5.0,-9.0,-16.0,-12.0,-2.0,2.0,1650912147172019.0,0
551,-1.0,-11.0,-10.0,-10.0,-7.0,-3.0,-6.0,-2.0,1650912147172019.0,0
552,-14.0,20.0,10.0,5.0,-5.0,-10.0,3.0,-7.0,1650912147187502.0,0
553,2.0,-25.0,-18.0,-3.0,0.0,0.0,1.0,1.0,1650912147187502.0,0
554,-8.0,4.0,14.0,5.0,9.0,7.0,-2.0,-26.0,1650912147187502.0,0
555,3.0,6.0,0.0,-4.0,-8.0,-2.0,3.0,19.0,1650912147187502.0,0
556,-1.0,-5.0,4.0,-1.0,-4.0,2.0,-4.0,-4.0,1650912147209607.0,0
557,2.0,5.0,2.0,0.0,12.0,-1.0,-2.0,-3.0,1650912147209607.0,0
558,-1.0,2.0,7.0,1.0,-14.0,-9.0,1.0,9.0,1650912147209607.0,0
559,3.0,2.0,-8.0,6.0,11.0,5.0,0.0,-10.0,1650912147209607.0,0
560,0.0,-1.0,6.0,-1.0,-1.0,-11.0,-2.0,-1.0,1650912147224051.0,0
561,-2.0,5.0,-7.0,-7.0,-12.0,-5.0,0.0,0.0,1650912147224051.0,0
562,5.0,1.0,3.0,3.0,6.0,18.0,3.0,3.0,1650912147232167.0,0
563,-6.0,-6.0,5.0,3.0,24.0,13.0,3.0,1.0,1650912147232167.0,0
564,9.0,12.0,2.0,1.0,13.0,9.0,2.0,3.0,1650912147246854.0,0
565,-3.0,-4.0,2.0,-8.0,-18.0,-17.0,-3.0,-2.0,1650912147246854.0,0
566,6.0,0.0,-13.0,-8.0,-15.0,-12.0,-4.0,2.0,1650912147247695.0,0
567,-7.0,0.0,12.0,-2.0,-19.0,-7.0,-3.0,2.0,1650912147247695.0,0
568,3.0,7.0,0.0,4.0,21.0,1.0,0.0,0.0,1650912147269163.0,0
569,1.0,0.0,-1.0,0.0,-2.0,0.0,2.0,4.0,1650912147269163.0,0
570,-3.0,-9.0,-21.0,-6.0,-14.0,-11.0,-9.0,-16.0,1650912147270163.0,0
571,-2.0,-9.0,0.0,3.0,2.0,6.0,-1.0,-9.0,1650912147270163.0,0
572,-9.0,-23.0,-18.0,-4.0,7.0,2.0,-6.0,-7.0,1650912147293317.0,0
573,4.0,13.0,8.0,-2.0,-16.0,-3.0,-2.0,-1.0,1650912147293317.0,0
574,2.0,19.0,17.0,3.0,-3.0,9.0,2.0,2.0,1650912147293575.0,0
575,-3.0,-21.0,-30.0,-1.0,8.0,-6.0,1.0,-2.0,1650912147293575.0,0
576,-1.0,6.0,13.0,2.0,39.0,3.0,-1.0,7.0,1650912147315637.0,0
577,0.0,7.0,-1.0,4.0,-19.0,2.0,-3.0,-18.0,1650912147315637.0,0
578,1.0,-9.0,4.0,1.0,1.0,-2.0,0.0,5.0,1650912147315890.0,0
579,0.0,12.0,9.0,-2.0,-6.0,-4.0,0.0,-1.0,1650912147315890.0,0
580,11.0,-6.0,-7.0,3.0,-10.0,7.0,5.0,5.0,1650912147337295.0,0
581,-9.0,-9.0,-7.0,-13.0,12.0,13.0,-3.0,34.0,1650912147337295.0,0
582,3.0,6.0,2.0,-2.0,-2.0,-8.0,-1.0,2.0,1650912147338131.0,0
583,5.0,2.0,-5.0,4.0,0.0,-3.0,2.0,2.0,1650912147338131.0,0
584,-5.0,3.0,14.0,9.0,-2.0,-2.0,0.0,-2.0,1650912147343148.0,0
585,10.0,10.0,11.0,4.0,6.0,-2.0,3.0,-4.0,1650912147343148.0,0
586,-11.0,-28.0,-20.0,-12.0,-17.0,-6.0,-3.0,1.0,1650912147352477.0,0
587,1.0,-7.0,-2.0,-8.0,-12.0,-2.0,-6.0,2.0,1650912147352477.0,0
588,-2.0,13.0,8.0,2.0,-9.0,4.0,-1.0,-7.0,1650912147367553.0,0
589,4.0,-12.0,-15.0,6.0,13.0,-1.0,4.0,3.0,1650912147367553.0,0
590,-5.0,12.0,12.0,0.0,9.0,3.0,-1.0,1.0,1650912147367553.0,0
591,-6.0,5.0,3.0,-2.0,1.0,-1.0,0.0,-3.0,1650912147367553.0,0
592,12.0,-3.0,-6.0,-7.0,-24.0,-17.0,-3.0,1.0,1650912147389636.0,0
593,-16.0,6.0,2.0,4.0,12.0,-1.0,-2.0,-15.0,1650912147389636.0,0
594,4.0,9.0,11.0,4.0,18.0,-1.0,2.0,3.0,1650912147389636.0,0
595,-1.0,8.0,5.0,6.0,-12.0,9.0,-3.0,2.0,1650912147389636.0,0
596,5.0,-2.0,-15.0,-2.0,4.0,12.0,4.0,-7.0,1650912147404306.0,0
597,0.0,-2.0,8.0,2.0,15.0,8.0,1.0,23.0,1650912147404306.0,0
598,-1.0,-2.0,-1.0,-2.0,-9.0,-7.0,4.0,-7.0,1650912147412649.0,0
599,0.0,3.0,-2.0,-4.0,-8.0,-11.0,-7.0,-10.0,1650912147412649.0,0
600,0.0,3.0,-4.0,-1.0,-10.0,3.0,4.0,5.0,1650912147427616.0,0
601,2.0,15.0,17.0,5.0,12.0,-2.0,1.0,-11.0,1650912147427616.0,0
602,1.0,-24.0,-22.0,0.0,13.0,5.0,-1.0,1.0,1650912147427616.0,0
603,-9.0,25.0,28.0,6.0,3.0,-3.0,0.0,2.0,1650912147427616.0,0
604,3.0,5.0,-16.0,-10.0,-16.0,-14.0,-7.0,1.0,1650912147449831.0,0
605,9.0,12.0,5.0,-1.0,-3.0,8.0,0.0,0.0,1650912147449831.0,0
606,-4.0,-9.0,-9.0,-1.0,-13.0,-2.0,-4.0,-12.0,1650912147449831.0,0
607,2.0,-9.0,3.0,-2.0,1.0,-10.0,-1.0,-2.0,1650912147449831.0,0
608,-5.0,-11.0,-3.0,7.0,20.0,11.0,1.0,2.0,1650912147463963.0,0
609,-5.0,-8.0,-1.0,1.0,-2.0,0.0,2.0,-23.0,1650912147463963.0,0
610,5.0,-7.0,-6.0,0.0,5.0,1.0,-5.0,3.0,1650912147472019.0,0
611,1.0,-17.0,-13.0,-6.0,-12.0,0.0,-3.0,2.0,1650912147472019.0,0
612,-5.0,-6.0,-2.0,-3.0,-3.0,-2.0,1.0,1.0,1650912147487492.0,0
613,17.0,14.0,4.0,4.0,-2.0,-5.0,-1.0,2.0,1650912147487492.0,0
614,-13.0,-4.0,0.0,-6.0,-8.0,-6.0,2.0,7.0,1650912147487492.0,0
615,-3.0,-1.0,-4.0,1.0,-2.0,13.0,2.0,-6.0,1650912147487492.0,0
616,0.0,8.0,7.0,5.0,21.0,10.0,4.0,7.0,1650912147509737.0,0
617,-1.0,-7.0,2.0,5.0,7.0,-9.0,0.0,2.0,1650912147509737.0,0
618,0.0,9.0,6.0,-1.0,-7.0,-1.0,1.0,-1.0,1650912147509855.0,0
619,5.0,7.0,-5.0,1.0,11.0,0.0,0.0,4.0,1650912147509855.0,0
620,-2.0,-18.0,-10.0,-3.0,-12.0,-8.0,-4.0,-4.0,1650912147524489.0,0
621,-4.0,3.0,4.0,1.0,-12.0,1.0,-1.0,-2.0,1650912147524489.0,0
622,1.0,5.0,1.0,-4.0,-5.0,1.0,-3.0,-1.0,1650912147532346.0,0
623,-1.0,-6.0,-7.0,1.0,3.0,2.0,1.0,-3.0,1650912147532346.0,0
624,1.0,1.0,2.0,3.0,5.0,-2.0,-1.0,-1.0,1650912147547348.0,0
625,-5.0,-8.0,-11.0,-5.0,2.0,-4.0,-4.0,-1.0,1650912147547348.0,0
626,3.0,16.0,4.0,5.0,-1.0,-5.0,2.0,6.0,1650912147547348.0,0
627,2.0,-10.0,-3.0,-4.0,-4.0,-2.0,-4.0,-3.0,1650912147547348.0,0
628,-2.0,3.0,2.0,-1.0,-2.0,3.0,-2.0,-3.0,1650912147570741.0,0
629,-5.0,-7.0,-6.0,-4.0,-14.0,-8.0,0.0,2.0,1650912147570741.0,0
630,2.0,3.0,0.0,-3.0,-7.0,4.0,-1.0,-1.0,1650912147570741.0,0
631,-1.0,-1.0,4.0,5.0,11.0,10.0,5.0,3.0,1650912147570741.0,0
632,0.0,-3.0,3.0,-2.0,4.0,-5.0,-4.0,-1.0,1650912147583841.0,0
633,-3.0,-4.0,-6.0,-5.0,-18.0,-15.0,-4.0,-4.0,1650912147583841.0,0
634,1.0,3.0,-1.0,2.0,4.0,1.0,-2.0,-1.0,1650912147591984.0,0
635,-1.0,-1.0,3.0,7.0,17.0,22.0,4.0,-1.0,1650912147591984.0,0
636,0.0,3.0,0.0,1.0,16.0,15.0,1.0,2.0,1650912147606454.0,0
637,-1.0,-5.0,-4.0,-7.0,-15.0,1.0,4.0,0.0,1650912147606454.0,0
638,2.0,3.0,6.0,5.0,-4.0,-18.0,0.0,-1.0,1650912147607420.0,0
639,0.0,-1.0,1.0,5.0,16.0,-16.0,-2.0,-1.0,1650912147607420.0,0
640,0.0,-4.0,-2.0,1.0,-3.0,2.0,1.0,-2.0,1650912147630023.0,0
641,-2.0,-2.0,-1.0,-1.0,-3.0,6.0,-2.0,-3.0,1650912147630023.0,0
642,0.0,-1.0,-5.0,-9.0,-21.0,2.0,-2.0,1.0,1650912147630023.0,0
643,0.0,-3.0,-3.0,-4.0,-13.0,-9.0,-2.0,-3.0,1650912147630023.0,0
644,0.0,4.0,7.0,10.0,16.0,3.0,3.0,0.0,1650912147643947.0,0
645,-3.0,-2.0,0.0,0.0,13.0,8.0,1.0,0.0,1650912147643947.0,0
646,2.0,4.0,2.0,0.0,5.0,3.0,0.0,5.0,1650912147652179.0,0
647,-2.0,-3.0,-6.0,-9.0,-20.0,-8.0,-5.0,1.0,1650912147652179.0,0
648,1.0,2.0,-1.0,-5.0,-15.0,-4.0,-1.0,0.0,1650912147667338.0,0
649,2.0,1.0,-4.0,2.0,12.0,-6.0,1.0,0.0,1650912147667338.0,0
650,1.0,-1.0,1.0,6.0,14.0,10.0,-2.0,-1.0,1650912147667338.0,0
651,-2.0,0.0,4.0,3.0,12.0,9.0,2.0,2.0,1650912147667338.0,0
652,-1.0,-3.0,0.0,-4.0,-16.0,-2.0,-1.0,-2.0,1650912147688857.0,0
653,0.0,0.0,1.0,-5.0,-4.0,-1.0,-6.0,0.0,1650912147688857.0,0
654,9.0,0.0,-6.0,-2.0,-6.0,-16.0,-4.0,-1.0,1650912147689857.0,0
655,-6.0,1.0,5.0,4.0,10.0,9.0,6.0,0.0,1650912147689857.0,0
656,2.0,-2.0,-4.0,0.0,7.0,-1.0,-1.0,-1.0,1650912147712145.0,0
657,0.0,-1.0,11.0,1.0,-16.0,5.0,-2.0,0.0,1650912147712145.0,0
658,1.0,2.0,-1.0,-2.0,0.0,-1.0,-2.0,-2.0,1650912147713145.0,0
659,3.0,-1.0,-7.0,-7.0,-14.0,-3.0,-2.0,0.0,1650912147713145.0,0
660,-2.0,0.0,0.0,0.0,21.0,0.0,0.0,0.0,1650912147726293.0,0
661,1.0,-1.0,3.0,6.0,7.0,6.0,-1.0,0.0,1650912147726293.0,0
662,-6.0,-3.0,-9.0,-9.0,-4.0,4.0,2.0,5.0,1650912147727293.0,0
663,-3.0,-2.0,6.0,0.0,0.0,-6.0,-2.0,-10.0,1650912147727293.0,0
664,0.0,-2.0,-2.0,-4.0,-18.0,-5.0,-3.0,0.0,1650912147749941.0,0
665,-1.0,2.0,5.0,2.0,1.0,-5.0,-2.0,-1.0,1650912147749941.0,0
666,-1.0,2.0,3.0,3.0,0.0,-3.0,1.0,2.0,1650912147750976.0,0
667,1.0,1.0,5.0,3.0,0.0,12.0,-2.0,1.0,1650912147750976.0,0
668,-2.0,-7.0,-19.0,-12.0,-12.0,-22.0,-4.0,-4.0,1650912147780226.0,0
669,-2.0,-4.0,-7.0,-2.0,-17.0,-1.0,-1.0,-2.0,1650912147780226.0,0
670,-2.0,2.0,-2.0,0.0,16.0,16.0,2.0,-2.0,1650912147781130.0,0
671,0.0,-2.0,-3.0,-2.0,18.0,-6.0,-1.0,0.0,1650912147781130.0,0
672,7.0,4.0,12.0,5.0,-28.0,-1.0,-2.0,2.0,1650912147787114.0,0
673,-17.0,-4.0,-1.0,1.0,9.0,-2.0,0.0,1.0,1650912147787114.0,0
674,-2.0,-2.0,-6.0,-2.0,9.0,2.0,0.0,-2.0,1650912147787114.0,0
675,3.0,-2.0,2.0,3.0,-8.0,1.0,0.0,1.0,1650912147787114.0,0
676,1.0,3.0,2.0,4.0,9.0,4.0,3.0,1.0,1650912147809128.0,0
677,3.0,0.0,1.0,1.0,-2.0,-5.0,-1.0,-1.0,1650912147809128.0,0
678,1.0,3.0,15.0,4.0,-13.0,-8.0,-5.0,0.0,1650912147810094.0,0
679,-4.0,-2.0,-10.0,-11.0,-11.0,-8.0,-3.0,-1.0,1650912147810094.0,0
680,-4.0,-4.0,-13.0,-3.0,12.0,4.0,0.0,0.0,1650912147832896.0,0
681,2.0,1.0,1.0,2.0,10.0,9.0,4.0,0.0,1650912147832896.0,0
682,1.0,-3.0,5.0,5.0,7.0,5.0,2.0,-3.0,1650912147832896.0,0
683,6.0,4.0,6.0,2.0,-12.0,-8.0,1.0,2.0,1650912147832896.0,0
684,-3.0,1.0,2.0,-2.0,-8.0,-6.0,-3.0,-1.0,1650912147847194.0,0
685,0.0,-2.0,-9.0,-9.0,-4.0,1.0,-3.0,0.0,1650912147847194.0,0
686,-3.0,-3.0,-3.0,-7.0,6.0,0.0,-2.0,-1.0,1650912147847194.0,0
687,4.0,1.0,-8.0,1.0,-1.0,-8.0,-1.0,1.0,1650912147847194.0,0
688,-2.0,1.0,3.0,5.0,3.0,5.0,1.0,1.0,1650912147869674.0,0
689,2.0,-2.0,0.0,-2.0,-1.0,-5.0,-2.0,-2.0,1650912147869674.0,0
690,-1.0,-4.0,-3.0,1.0,-6.0,5.0,0.0,-3.0,1650912147869858.0,0
691,-2.0,0.0,3.0,1.0,-4.0,0.0,-3.0,-3.0,1650912147869858.0,0
692,5.0,-2.0,-9.0,1.0,11.0,-1.0,1.0,0.0,1650912147893099.0,0
693,-7.0,-4.0,2.0,-3.0,0.0,9.0,1.0,1.0,1650912147893099.0,0
694,0.0,0.0,-2.0,2.0,-4.0,-4.0,0.0,-2.0,1650912147893099.0,0
695,-1.0,-1.0,2.0,2.0,5.0,2.0,-1.0,0.0,1650912147893099.0,0
696,0.0,0.0,-6.0,-15.0,-6.0,1.0,0.0,-1.0,1650912147907094.0,0
697,4.0,1.0,-2.0,-4.0,-22.0,-15.0,-3.0,-2.0,1650912147907094.0,0
698,-3.0,2.0,3.0,3.0,-5.0,-3.0,-2.0,-1.0,1650912147907094.0,0
699,-2.0,-3.0,7.0,11.0,27.0,8.0,0.0,0.0,1650912147907094.0,0
700,1.0,2.0,6.0,12.0,15.0,15.0,2.0,1.0,1650912147929213.0,0
701,1.0,-2.0,-5.0,-3.0,8.0,7.0,0.0,1.0,1650912147929213.0,0
702,-2.0,-2.0,-14.0,-19.0,-22.0,-21.0,-2.0,-2.0,1650912147930080.0,0
703,-1.0,2.0,0.0,-7.0,-26.0,-19.0,-4.0,-2.0,1650912147930080.0,0
704,-4.0,-1.0,4.0,-5.0,-11.0,2.0,1.0,-3.0,1650912147952330.0,0
705,1.0,3.0,7.0,10.0,28.0,11.0,4.0,2.0,1650912147952330.0,0
706,3.0,2.0,6.0,7.0,11.0,8.0,4.0,2.0,1650912147953190.0,0
707,-3.0,-4.0,-8.0,-10.0,-16.0,-11.0,-5.0,-1.0,1650912147953190.0,0
708,-4.0,0.0,-11.0,-8.0,-12.0,-7.0,-4.0,-3.0,1650912147966789.0,0
709,0.0,2.0,11.0,12.0,15.0,4.0,-1.0,-2.0,1650912147966789.0,0
710,1.0,-1.0,-2.0,2.0,21.0,12.0,1.0,0.0,1650912147967648.0,0
711,0.0,1.0,-1.0,-1.0,6.0,3.0,2.0,1.0,1650912147967648.0,0
712,-1.0,1.0,9.0,3.0,-17.0,-9.0,-2.0,0.0,1650912147988809.0,0
713,0.0,-3.0,-10.0,-2.0,-16.0,-12.0,-3.0,-2.0,1650912147988809.0,0
714,-1.0,1.0,7.0,9.0,12.0,3.0,2.0,0.0,1650912147989807.0,0
715,10.0,1.0,15.0,9.0,13.0,11.0,4.0,2.0,1650912147989807.0,0
716,-8.0,1.0,-14.0,-11.0,-12.0,-3.0,0.0,2.0,1650912148012008.0,0
717,3.0,-3.0,-14.0,-13.0,-10.0,-1.0,-2.0,-1.0,1650912148012008.0,0
718,-2.0,0.0,2.0,1.0,-2.0,-14.0,-3.0,-1.0,1650912148012008.0,0
719,5.0,-3.0,-2.0,2.0,-6.0,2.0,-1.0,-1.0,1650912148012008.0,0
720,1.0,3.0,12.0,12.0,19.0,2.0,0.0,1.0,1650912148026171.0,0
721,0.0,0.0,3.0,2.0,4.0,1.0,3.0,1.0,1650912148026171.0,0
722,-1.0,-1.0,-9.0,-7.0,-4.0,5.0,-1.0,-1.0,1650912148027171.0,0
723,-5.0,-1.0,-2.0,-6.0,-7.0,-1.0,-2.0,-2.0,1650912148027171.0,0
724,-1.0,-3.0,-5.0,-12.0,-9.0,4.0,-3.0,-2.0,1650912148048778.0,0
725,-2.0,-2.0,-4.0,-3.0,-15.0,-34.0,-4.0,-3.0,1650912148048778.0,0
726,1.0,2.0,12.0,9.0,8.0,10.0,0.0,0.0,1650912148056774.0,0
727,-2.0,0.0,-6.0,9.0,19.0,25.0,6.0,2.0,1650912148056774.0,0
728,-3.0,-5.0,-16.0,-10.0,8.0,3.0,1.0,-1.0,1650912148072130.0,0
729,1.0,1.0,5.0,-2.0,-18.0,-9.0,-1.0,0.0,1650912148072130.0,0
730,-1.0,-1.0,3.0,-5.0,-20.0,-3.0,-4.0,-2.0,1650912148073128.0,0
731,-2.0,-1.0,-1.0,-4.0,-4.0,-11.0,-2.0,-2.0,1650912148073128.0,0
732,0.0,-2.0,1.0,-1.0,4.0,12.0,1.0,-2.0,1650912148086263.0,0
733,-1.0,-1.0,-6.0,-2.0,14.0,7.0,2.0,-1.0,1650912148086263.0,0
734,-2.0,0.0,4.0,0.0,-10.0,-12.0,-1.0,0.0,1650912148087263.0,0
735,-2.0,-2.0,-4.0,-9.0,-13.0,-6.0,-2.0,-2.0,1650912148087263.0,0
736,12.0,1.0,7.0,5.0,-4.0,-4.0,-3.0,0.0,1650912148109232.0,0
737,-11.0,-1.0,2.0,7.0,8.0,5.0,0.0,-1.0,1650912148109232.0,0
738,2.0,0.0,0.0,2.0,15.0,5.0,3.0,3.0,1650912148110202.0,0
739,-5.0,-1.0,-6.0,-4.0,-3.0,-1.0,-1.0,-2.0,1650912148110202.0,0
740,1.0,-2.0,-8.0,-3.0,-3.0,-12.0,-3.0,-2.0,1650912148131189.0,0
741,3.0,0.0,3.0,-2.0,-7.0,3.0,-2.0,-2.0,1650912148131189.0,0
742,-2.0,-1.0,-12.0,-6.0,-1.0,3.0,0.0,-2.0,1650912148132144.0,0
743,-4.0,1.0,-2.0,-6.0,-3.0,-5.0,-2.0,1.0,1650912148132144.0,0
744,-2.0,-1.0,6.0,4.0,-6.0,-4.0,-1.0,1.0,1650912148147102.0,0
745,0.0,-4.0,2.0,2.0,8.0,-2.0,-1.0,1.0,1650912148147102.0,0
746,-4.0,-5.0,-10.0,-12.0,-5.0,10.0,-4.0,-2.0,1650912148147102.0,0
747,4.0,1.0,4.0,9.0,-2.0,-5.0,0.0,0.0,1650912148147102.0,0
748,-3.0,-1.0,-9.0,-2.0,25.0,7.0,1.0,-3.0,1650912148169354.0,0
749,2.0,2.0,4.0,5.0,2.0,5.0,1.0,0.0,1650912148169354.0,0
750,3.0,1.0,-2.0,-4.0,-16.0,-10.0,-3.0,0.0,1650912148170189.0,0
751,-2.0,-2.0,-1.0,-4.0,2.0,-13.0,-3.0,-3.0,1650912148170189.0,0
752,-1.0,-2.0,7.0,6.0,-7.0,4.0,1.0,0.0,1650912148192181.0,0
753,2.0,3.0,-9.0,-5.0,16.0,8.0,0.0,1.0,1650912148192181.0,0
754,-1.0,-3.0,-4.0,0.0,7.0,0.0,2.0,-2.0,1650912148192181.0,0
755,9.0,-1.0,-2.0,-5.0,-8.0,6.0,0.0,0.0,1650912148192181.0,0
756,-19.0,-2.0,5.0,4.0,-11.0,-14.0,0.0,-1.0,1650912148207299.0,0
757,0.0,-1.0,-1.0,-3.0,-1.0,-4.0,-3.0,-1.0,1650912148207299.0,0
758,0.0,3.0,7.0,4.0,-6.0,-4.0,-3.0,-2.0,1650912148207299.0,0
759,2.0,-3.0,-9.0,-5.0,-2.0,-3.0,-1.0,-2.0,1650912148207299.0,0
760,5.0,2.0,6.0,7.0,8.0,-1.0,1.0,0.0,1650912148229627.0,0
761,1.0,0.0,-7.0,-9.0,-9.0,0.0,0.0,0.0,1650912148229627.0,0
762,-3.0,0.0,4.0,4.0,6.0,3.0,1.0,-1.0,1650912148229627.0,0
763,-4.0,0.0,-1.0,2.0,6.0,-2.0,-3.0,-2.0,1650912148229627.0,0
764,4.0,0.0,6.0,4.0,2.0,0.0,0.0,2.0,1650912148251995.0,0
765,-2.0,0.0,-1.0,0.0,5.0,4.0,1.0,0.0,1650912148251995.0,0
766,4.0,-1.0,-1.0,-2.0,-8.0,5.0,3.0,2.0,1650912148251995.0,0
767,-2.0,0.0,2.0,-1.0,-7.0,5.0,3.0,3.0,1650912148251995.0,0
768,3.0,0.0,12.0,5.0,0.0,-10.0,-1.0,0.0,1650912148266151.0,0
769,2.0,-3.0,-11.0,-9.0,-10.0,-15.0,-4.0,-2.0,1650912148266151.0,0
770,0.0,-4.0,-2.0,1.0,-1.0,2.0,-4.0,-2.0,1650912148274297.0,0
771,-1.0,0.0,-6.0,-2.0,6.0,-3.0,-1.0,0.0,1650912148274297.0,0
772,-2.0,-1.0,8.0,6.0,22.0,11.0,-1.0,-1.0,1650912148289328.0,0
773,2.0,1.0,1.0,5.0,0.0,15.0,3.0,1.0,1650912148289328.0,0
774,-2.0,-1.0,-6.0,-6.0,0.0,2.0,1.0,0.0,1650912148290309.0,0
775,-1.0,-1.0,2.0,3.0,-5.0,0.0,0.0,0.0,1650912148290309.0,0
776,2.0,1.0,-5.0,-6.0,-12.0,-12.0,-1.0,-1.0,1650912148312208.0,0
777,4.0,-1.0,2.0,1.0,-8.0,-7.0,-3.0,-2.0,1650912148312208.0,0
778,-3.0,1.0,1.0,-2.0,-8.0,-1.0,-2.0,-1.0,1650912148312208.0,0
779,-3.0,-2.0,-5.0,-2.0,-15.0,-14.0,-2.0,-1.0,1650912148312208.0,0
780,0.0,0.0,-3.0,2.0,18.0,11.0,1.0,0.0,1650912148326319.0,0
781,2.0,3.0,11.0,8.0,22.0,16.0,6.0,1.0,1650912148326319.0,0
782,3.0,1.0,-2.0,4.0,1.0,-6.0,4.0,1.0,1650912148334907.0,0
783,-4.0,-2.0,-9.0,-6.0,3.0,7.0,0.0,-2.0,1650912148334907.0,0
784,-1.0,-2.0,1.0,-8.0,-22.0,-8.0,-3.0,-2.0,1650912148350169.0,0
785,-7.0,-3.0,-5.0,-5.0,-17.0,-10.0,-1.0,0.0,1650912148350169.0,0
786,1.0,0.0,5.0,4.0,10.0,-1.0,0.0,-1.0,1650912148350169.0,0
787,0.0,2.0,1.0,0.0,-7.0,15.0,1.0,0.0,1650912148350169.0,0
788,0.0,-1.0,1.0,2.0,-4.0,-11.0,-3.0,1.0,1650912148371202.0,0
789,0.0,0.0,-3.0,4.0,16.0,3.0,0.0,0.0,1650912148371202.0,0
790,-1.0,-1.0,-2.0,1.0,4.0,5.0,1.0,2.0,1650912148372201.0,0
791,-2.0,-1.0,-2.0,-4.0,4.0,2.0,-1.0,-2.0,1650912148372201.0,0
792,0.0,-1.0,-5.0,-8.0,-21.0,1.0,-2.0,0.0,1650912148396152.0,0
793,-2.0,-3.0,1.0,-1.0,-7.0,-14.0,-2.0,-1.0,1650912148396152.0,0
794,0.0,1.0,0.0,3.0,12.0,-5.0,-2.0,0.0,1650912148402151.0,0
795,-1.0,-2.0,0.0,0.0,1.0,7.0,1.0,1.0,1650912148402151.0,0
796,-1.0,0.0,-1.0,-2.0,4.0,2.0,1.0,1.0,1650912148410294.0,0
797,-1.0,0.0,-2.0,-1.0,-3.0,-3.0,-1.0,-3.0,1650912148410294.0,0
798,0.0,-3.0,-8.0,-7.0,-3.0,0.0,-2.0,-1.0,1650912148410294.0,0
799,0.0,0.0,4.0,-2.0,-20.0,-17.0,-2.0,0.0,1650912148410294.0,0
800,-2.0,1.0,-1.0,3.0,13.0,-2.0,-1.0,-1.0,1650912148432360.0,0
801,3.0,-1.0,3.0,5.0,15.0,25.0,2.0,0.0,1650912148432360.0,0
802,-3.0,-1.0,5.0,6.0,12.0,9.0,3.0,2.0,1650912148432360.0,0
803,3.0,-1.0,-4.0,-4.0,-3.0,-1.0,-3.0,-3.0,1650912148432360.0,0
804,-3.0,-3.0,-4.0,-8.0,-22.0,-29.0,-2.0,0.0,1650912148446375.0,0
805,2.0,0.0,9.0,2.0,-2.0,1.0,-1.0,-2.0,1650912148446375.0,0
806,0.0,-3.0,-7.0,-6.0,-2.0,0.0,-2.0,-2.0,1650912148454489.0,0
807,1.0,1.0,4.0,1.0,-1.0,1.0,-2.0,3.0,1650912148454489.0,0
808,2.0,-1.0,0.0,2.0,1.0,0.0,2.0,-2.0,1650912148469842.0,0
809,-1.0,1.0,-2.0,2.0,6.0,-4.0,-1.0,1.0,1650912148469842.0,0
810,0.0,-2.0,3.0,2.0,0.0,-3.0,-2.0,-1.0,1650912148469898.0,0
811,-1.0,-1.0,4.0,4.0,-2.0,1.0,0.0,-2.0,1650912148469898.0,0
812,-1.0,1.0,-3.0,-1.0,-11.0,15.0,2.0,-2.0,1650912148492178.0,0
813,-5.0,-3.0,-8.0,-8.0,-7.0,-7.0,-4.0,-1.0,1650912148492178.0,0
814,-2.0,0.0,1.0,2.0,2.0,-9.0,-1.0,0.0,1650912148492178.0,0
815,2.0,2.0,2.0,6.0,10.0,6.0,1.0,0.0,1650912148492178.0,0
816,0.0,2.0,1.0,2.0,5.0,7.0,-1.0,0.0,1650912148506172.0,0
817,1.0,-3.0,-6.0,-11.0,-18.0,-9.0,-3.0,-1.0,1650912148506172.0,0
818,-1.0,0.0,-1.0,-6.0,-17.0,-6.0,-2.0,-2.0,1650912148515018.0,0
819,-2.0,-1.0,1.0,2.0,18.0,7.0,-1.0,-1.0,1650912148515018.0,0
820,9.0,0.0,1.0,3.0,5.0,8.0,4.0,3.0,1650912148529497.0,0
821,-5.0,0.0,0.0,-1.0,-1.0,-2.0,0.0,-2.0,1650912148529497.0,0
822,-1.0,-2.0,-3.0,0.0,-6.0,-6.0,0.0,0.0,1650912148529903.0,0
823,0.0,0.0,0.0,4.0,11.0,2.0,0.0,-1.0,1650912148529903.0,0
824,2.0,-1.0,2.0,1.0,7.0,5.0,-1.0,1.0,1650912148552413.0,0
825,1.0,-1.0,-6.0,-9.0,-26.0,-7.0,-5.0,0.0,1650912148552413.0,0
826,-1.0,1.0,7.0,6.0,7.0,4.0,-3.0,-3.0,1650912148552413.0,0
827,-1.0,3.0,0.0,5.0,16.0,-5.0,0.0,1.0,1650912148552413.0,0
828,-1.0,1.0,2.0,2.0,9.0,2.0,2.0,2.0,1650912148566424.0,0
829,1.0,1.0,4.0,5.0,4.0,-3.0,3.0,1.0,1650912148566424.0,0
830,-2.0,-2.0,-7.0,-7.0,-30.0,9.0,-1.0,0.0,1650912148574616.0,0
831,-2.0,-3.0,-7.0,-12.0,1.0,-13.0,-4.0,-5.0,1650912148574616.0,0
832,-4.0,-3.0,-3.0,-4.0,13.0,-8.0,-4.0,-3.0,1650912148589345.0,0
833,-3.0,-2.0,3.0,7.0,-21.0,-2.0,1.0,2.0,1650912148589345.0,0
834,3.0,2.0,-2.0,-2.0,8.0,1.0,4.0,2.0,1650912148589854.0,0
835,0.0,1.0,2.0,3.0,-1.0,8.0,-1.0,3.0,1650912148589854.0,0
836,-3.0,0.0,-4.0,-6.0,3.0,-3.0,-1.0,-3.0,1650912148612329.0,0
837,0.0,-1.0,-1.0,-1.0,5.0,7.0,-1.0,0.0,1650912148612329.0,0
838,-2.0,1.0,1.0,3.0,9.0,1.0,0.0,0.0,1650912148612329.0,0
839,10.0,1.0,-2.0,0.0,1.0,-4.0,0.0,0.0,1650912148612329.0,0
840,-9.0,0.0,-3.0,-5.0,-19.0,-7.0,-1.0,-1.0,1650912148635662.0,0
841,0.0,-3.0,3.0,-2.0,-8.0,-4.0,-2.0,-2.0,1650912148635662.0,0
842,-2.0,-2.0,-6.0,-5.0,-18.0,-11.0,-2.0,-1.0,1650912148635662.0,0
843,2.0,0.0,-5.0,4.0,15.0,9.0,3.0,-1.0,1650912148635662.0,0
844,4.0,-1.0,3.0,10.0,25.0,17.0,2.0,2.0,1650912148658345.0,0
845,-2.0,3.0,0.0,0.0,14.0,5.0,2.0,-1.0,1650912148658345.0,0
846,2.0,-1.0,3.0,-4.0,-7.0,-9.0,-4.0,-2.0,1650912148658345.0,0
847,-7.0,-5.0,-3.0,-9.0,-36.0,-24.0,-6.0,-2.0,1650912148658345.0,0
848,-1.0,-2.0,-11.0,-11.0,-22.0,-6.0,-4.0,-3.0,1650912148681032.0,0
849,0.0,4.0,6.0,11.0,32.0,6.0,2.0,1.0,1650912148681032.0,0
850,1.0,0.0,-8.0,6.0,25.0,8.0,4.0,2.0,1650912148681032.0,0
851,-1.0,-3.0,0.0,0.0,4.0,3.0,2.0,1.0,1650912148681032.0,0
852,0.0,0.0,0.0,-6.0,-16.0,-8.0,-3.0,1.0,1650912148695308.0,0
853,-1.0,-5.0,-6.0,-11.0,-32.0,-15.0,-5.0,0.0,1650912148695308.0,0
854,-2.0,-2.0,2.0,-3.0,19.0,-3.0,-2.0,-1.0,1650912148695308.0,0
855,1.0,6.0,2.0,7.0,-5.0,13.0,1.0,0.0,1650912148695308.0,0
856,0.0,1.0,6.0,12.0,17.0,14.0,4.0,1.0,1650912148709466.0,0
857,0.0,-1.0,-8.0,-4.0,13.0,5.0,0.0,-1.0,1650912148709466.0,0
858,2.0,1.0,-2.0,-3.0,-9.0,-3.0,1.0,0.0,1650912148710319.0,0
859,-3.0,-3.0,-1.0,-5.0,1.0,-16.0,-1.0,0.0,1650912148710319.0,0
860,-2.0,-3.0,-2.0,-7.0,-21.0,-1.0,-5.0,-2.0,1650912148732090.0,0
861,-1.0,-1.0,1.0,2.0,-1.0,-1.0,1.0,-1.0,1650912148732090.0,0
862,4.0,1.0,2.0,6.0,9.0,4.0,3.0,0.0,1650912148732090.0,0
863,0.0,2.0,3.0,2.0,16.0,6.0,1.0,1.0,1650912148732090.0,0
864,0.0,0.0,-2.0,-2.0,-11.0,-1.0,-2.0,0.0,1650912148754457.0,0
865,-2.0,-1.0,-13.0,-12.0,-15.0,-11.0,-3.0,-2.0,1650912148754457.0,0
866,0.0,0.0,3.0,-2.0,-4.0,-1.0,-2.0,0.0,1650912148755455.0,0
867,0.0,-1.0,4.0,2.0,0.0,8.0,2.0,1.0,1650912148755455.0,0
868,-1.0,-4.0,-8.0,1.0,15.0,-3.0,2.0,-1.0,1650912148768782.0,0
869,1.0,0.0,2.0,-3.0,-7.0,-1.0,-2.0,-2.0,1650912148768782.0,0
870,-3.0,0.0,-2.0,-2.0,-14.0,-7.0,-1.0,-3.0,1650912148769618.0,0
871,-3.0,-2.0,0.0,-3.0,-8.0,-4.0,-2.0,-2.0,1650912148769618.0,0
872,-1.0,0.0,-3.0,2.0,6.0,6.0,1.0,-1.0,1650912148792182.0,0
873,1.0,0.0,0.0,1.0,22.0,5.0,5.0,0.0,1650912148792182.0,0
874,-1.0,1.0,4.0,3.0,-6.0,7.0,0.0,-1.0,1650912148792182.0,0
875,-3.0,-2.0,-4.0,1.0,4.0,-9.0,0.0,-1.0,1650912148792182.0,0
876,-2.0,0.0,3.0,0.0,-13.0,-12.0,-2.0,-2.0,1650912148815053.0,0
877,-1.0,-2.0,0.0,-2.0,-15.0,-6.0,-2.0,1.0,1650912148815053.0,0
878,-2.0,1.0,4.0,0.0,-2.0,-2.0,0.0,1.0,1650912148822048.0,0
879,0.0,0.0,-4.0,-6.0,-5.0,5.0,-2.0,0.0,1650912148822048.0,0
880,-1.0,1.0,2.0,-2.0,-6.0,1.0,0.0,-1.0,1650912148830013.0,0
881,8.0,1.0,1.0,7.0,21.0,-3.0,0.0,0.0,1650912148830013.0,0
882,-19.0,-2.0,4.0,2.0,-1.0,2.0,0.0,0.0,1650912148830013.0,0
883,2.0,-1.0,-5.0,-2.0,-1.0,-2.0,-1.0,0.0,1650912148830013.0,0
884,1.0,-2.0,-1.0,-5.0,4.0,-9.0,-2.0,-1.0,1650912148852176.0,0
885,0.0,-2.0,1.0,-2.0,-26.0,-2.0,-4.0,-3.0,1650912148852176.0,0
886,6.0,0.0,-3.0,0.0,6.0,0.0,1.0,0.0,1650912148852176.0,0
887,0.0,0.0,5.0,8.0,16.0,14.0,3.0,1.0,1650912148852176.0,0
888,-1.0,3.0,1.0,4.0,5.0,3.0,0.0,2.0,1650912148875217.0,0
889,-1.0,-1.0,0.0,-4.0,-2.0,-9.0,-2.0,-1.0,1650912148875217.0,0
890,2.0,-3.0,-3.0,-6.0,-9.0,-8.0,-2.0,-3.0,1650912148875217.0,0
891,-4.0,0.0,-2.0,-4.0,-8.0,3.0,-3.0,-3.0,1650912148875217.0,0
892,2.0,1.0,4.0,1.0,1.0,1.0,0.0,-1.0,1650912148890463.0,0
893,-1.0,-2.0,0.0,1.0,3.0,7.0,1.0,0.0,1650912148890463.0,0
894,1.0,-2.0,-7.0,-4.0,0.0,-7.0,-2.0,-2.0,1650912148890463.0,0
895,0.0,-3.0,-3.0,-4.0,-7.0,-10.0,-4.0,-1.0,1650912148890463.0,0
896,3.0,-1.0,0.0,0.0,-14.0,1.0,1.0,0.0,1650912148912072.0,0
897,-1.0,0.0,-2.0,3.0,18.0,15.0,0.0,0.0,1650912148912072.0,0
898,1.0,1.0,1.0,1.0,3.0,6.0,4.0,0.0,1650912148912072.0,0
899,2.0,3.0,-2.0,-4.0,-27.0,2.0,1.0,0.0,1650912148912072.0,0
900,-1.0,-2.0,-5.0,0.0,16.0,-3.0,-1.0,-1.0,1650912148935334.0,0
901,-3.0,0.0,3.0,4.0,1.0,-8.0,1.0,-1.0,1650912148935334.0,0
902,2.0,0.0,-1.0,0.0,6.0,7.0,-2.0,1.0,1650912148936335.0,0
903,-4.0,-4.0,-4.0,-9.0,-20.0,-14.0,-4.0,-3.0,1650912148936335.0,0
904,0.0,0.0,1.0,-4.0,-10.0,-9.0,-2.0,0.0,1650912148957822.0,0
905,0.0,0.0,0.0,4.0,-1.0,7.0,1.0,0.0,1650912148957822.0,0
906,1.0,0.0,4.0,9.0,33.0,12.0,0.0,-1.0,1650912148957822.0,0
907,0.0,-2.0,-1.0,5.0,21.0,0.0,1.0,1.0,1650912148957822.0,0
908,-2.0,-2.0,-1.0,-4.0,-6.0,3.0,-2.0,-2.0,1650912148972089.0,0
909,-1.0,0.0,-3.0,-8.0,-16.0,-3.0,-2.0,0.0,1650912148972089.0,0
910,-1.0,-2.0,-3.0,-7.0,-22.0,-8.0,-3.0,-1.0,1650912148972089.0,0
911,0.0,3.0,1.0,5.0,5.0,1.0,0.0,-2.0,1650912148972089.0,0
912,2.0,-2.0,-4.0,-2.0,-3.0,-5.0,0.0,0.0,1650912148995813.0,0
913,-3.0,0.0,2.0,3.0,12.0,6.0,3.0,1.0,1650912148995813.0,0
914,0.0,-1.0,0.0,-2.0,-10.0,-2.0,0.0,0.0,1650912148995813.0,0
915,-1.0,-1.0,-3.0,0.0,6.0,-6.0,-2.0,-1.0,1650912148995813.0,0
916,1.0,-2.0,-1.0,-8.0,-17.0,-8.0,5.0,6.0,1650912149009801.0,0
917,3.0,0.0,0.0,3.0,3.0,1.0,0.0,6.0,1650912149009801.0,0
918,-3.0,0.0,-1.0,3.0,20.0,4.0,-7.0,-17.0,1650912149009854.0,0
919,0.0,-1.0,1.0,4.0,16.0,9.0,2.0,3.0,1650912149009854.0,0
920,-4.0,0.0,0.0,-5.0,-10.0,1.0,-5.0,-7.0,1650912149031999.0,0
921,-5.0,-1.0,1.0,-6.0,-29.0,-11.0,-6.0,-6.0,1650912149031999.0,0
922,1.0,2.0,-2.0,5.0,17.0,0.0,6.0,11.0,1650912149031999.0,0
923,4.0,-2.0,-6.0,1.0,12.0,3.0,15.0,9.0,1650912149031999.0,0
924,1.0,1.0,3.0,4.0,1.0,7.0,-3.0,0.0,1650912149055223.0,0
925,-2.0,0.0,0.0,-3.0,-10.0,0.0,-6.0,-5.0,1650912149055223.0,0
926,-1.0,0.0,-1.0,-2.0,-17.0,-6.0,-2.0,1.0,1650912149055223.0,0
927,-1.0,0.0,2.0,0.0,10.0,-1.0,-7.0,-7.0,1650912149055223.0,0
928,-1.0,-2.0,-3.0,3.0,10.0,9.0,10.0,12.0,1650912149069563.0,0
929,0.0,-1.0,-1.0,-4.0,3.0,1.0,-1.0,4.0,1650912149069563.0,0
930,-2.0,-1.0,0.0,-6.0,0.0,-11.0,-4.0,-7.0,1650912149070428.0,0
931,6.0,1.0,0.0,-3.0,-31.0,-7.0,-1.0,5.0,1650912149070428.0,0
932,-17.0,-3.0,1.0,-2.0,3.0,-1.0,-4.0,-7.0,1650912149091531.0,0
933,1.0,1.0,3.0,5.0,5.0,4.0,3.0,-1.0,1650912149091531.0,0
934,3.0,0.0,1.0,1.0,13.0,3.0,4.0,6.0,1650912149092529.0,0
935,-3.0,-1.0,-1.0,-1.0,5.0,1.0,-3.0,-3.0,1650912149092529.0,0
936,5.0,1.0,1.0,0.0,-2.0,-11.0,-7.0,-6.0,1650912149115386.0,0
937,-2.0,-3.0,-4.0,-7.0,-4.0,10.0,1.0,-1.0,1650912149115386.0,0
938,-2.0,0.0,-1.0,-8.0,-26.0,-11.0,0.0,3.0,1650912149115386.0,0
939,1.0,-1.0,3.0,4.0,7.0,-1.0,-1.0,-4.0,1650912149115386.0,0
940,2.0,4.0,-1.0,3.0,14.0,11.0,14.0,10.0,1650912149129893.0,0
941,-1.0,1.0,-1.0,5.0,29.0,3.0,12.0,21.0,1650912149129893.0,0
942,-1.0,-1.0,-1.0,1.0,-7.0,3.0,-25.0,-34.0,1650912149129893.0,0
943,-5.0,-2.0,-1.0,-5.0,-13.0,-6.0,-14.0,-22.0,1650912149129893.0,0
944,4.0,1.0,-1.0,-3.0,-16.0,-9.0,2.0,5.0,1650912149152194.0,0
945,0.0,-2.0,-4.0,-2.0,5.0,-4.0,3.0,3.0,1650912149152194.0,0
946,-1.0,-2.0,-1.0,0.0,1.0,3.0,4.0,6.0,1650912149152194.0,0
947,-3.0,1.0,3.0,1.0,5.0,4.0,0.0,1.0,1650912149152194.0,0
948,6.0,0.0,0.0,2.0,-6.0,3.0,-2.0,-2.0,1650912149176075.0,0
949,1.0,-2.0,-3.0,0.0,5.0,-2.0,1.0,-1.0,1650912149176075.0,0
950,-3.0,-2.0,-2.0,-3.0,-12.0,-4.0,3.0,8.0,1650912149176075.0,0
951,0.0,-4.0,-2.0,-2.0,0.0,3.0,2.0,0.0,1650912149176075.0,0
952,0.0,3.0,2.0,1.0,7.0,-7.0,-1.0,0.0,1650912149189240.0,0
953,-5.0,1.0,-1.0,-1.0,-12.0,-7.0,-6.0,-5.0,1650912149189240.0,0
954,7.0,-3.0,0.0,0.0,0.0,9.0,4.0,-1.0,1650912149190236.0,0
955,-5.0,1.0,-1.0,-3.0,-9.0,0.0,4.0,8.0,1650912149190236.0,0
956,-1.0,2.0,2.0,5.0,14.0,0.0,-5.0,-14.0,1650912149212499.0,0
957,0.0,0.0,2.0,-3.0,-1.0,-16.0,-5.0,-1.0,1650912149212499.0,0
958,8.0,-6.0,-9.0,-3.0,-10.0,1.0,6.0,18.0,1650912149212499.0,0
959,-3.0,2.0,2.0,1.0,0.0,13.0,9.0,13.0,1650912149212499.0,0
960,-1.0,-1.0,3.0,8.0,25.0,9.0,-6.0,-19.0,1650912149235273.0,0
961,2.0,6.0,3.0,4.0,11.0,-2.0,-2.0,-3.0,1650912149235273.0,0
962,1.0,-5.0,-1.0,-5.0,-5.0,-7.0,2.0,-2.0,1650912149235273.0,0
963,1.0,1.0,-2.0,-8.0,-17.0,-8.0,-2.0,1.0,1650912149235273.0,0
964,-1.0,-5.0,-7.0,-8.0,-16.0,-4.0,-1.0,3.0,1650912149248650.0,0
965,0.0,-2.0,-3.0,0.0,1.0,0.0,-1.0,-6.0,1650912149248650.0,0
966,-4.0,5.0,4.0,-5.0,-7.0,-3.0,-2.0,1.0,1650912149257529.0,0
967,3.0,2.0,3.0,-2.0,-6.0,4.0,0.0,-1.0,1650912149257529.0,0
968,-5.0,-3.0,-1.0,-1.0,4.0,-5.0,-1.0,3.0,1650912149272052.0,0
969,1.0,1.0,1.0,5.0,25.0,3.0,0.0,-6.0,1650912149272052.0,0
970,9.0,3.0,3.0,9.0,-4.0,12.0,7.0,5.0,1650912149272052.0,0
971,-5.0,-10.0,-7.0,-1.0,22.0,10.0,1.0,-8.0,1650912149272052.0,0
972,2.0,1.0,4.0,-2.0,-15.0,-10.0,-4.0,-10.0,1650912149294596.0,0
973,0.0,-1.0,-3.0,-9.0,-28.0,-16.0,0.0,10.0,1650912149294596.0,0
974,-1.0,-2.0,1.0,-2.0,6.0,-5.0,-5.0,-2.0,1650912149295458.0,0
975,1.0,6.0,3.0,5.0,7.0,4.0,1.0,0.0,1650912149295458.0,0
976,3.0,-1.0,-5.0,0.0,10.0,19.0,4.0,1.0,1650912149308814.0,0
977,2.0,-4.0,-1.0,4.0,3.0,-2.0,2.0,2.0,1650912149308814.0,0
978,-4.0,5.0,-2.0,-1.0,-9.0,-9.0,0.0,-3.0,1650912149317141.0,0
979,0.0,4.0,11.0,-5.0,-16.0,-3.0,-10.0,0.0,1650912149317141.0,0
980,-9.0,-20.0,-13.0,-4.0,5.0,3.0,-2.0,3.0,1650912149332416.0,0
981,-2.0,2.0,-2.0,-2.0,-3.0,4.0,0.0,-2.0,1650912149332416.0,0
982,4.0,0.0,-7.0,1.0,5.0,-6.0,1.0,-5.0,1650912149332416.0,0
983,-2.0,5.0,3.0,-3.0,-6.0,6.0,-1.0,2.0,1650912149332416.0,0
984,-2.0,-9.0,-5.0,-12.0,-17.0,-19.0,-3.0,2.0,1650912149355035.0,0
985,1.0,4.0,6.0,0.0,-13.0,-6.0,-3.0,-3.0,1650912149355035.0,0
986,3.0,3.0,-2.0,4.0,15.0,10.0,2.0,-6.0,1650912149356034.0,0
987,-5.0,-10.0,-4.0,9.0,21.0,1.0,4.0,0.0,1650912149356034.0,0
988,2.0,7.0,4.0,0.0,7.0,14.0,1.0,3.0,1650912149369051.0,0
989,-3.0,0.0,-4.0,-1.0,-22.0,-13.0,-2.0,-13.0,1650912149369051.0,0
990,-3.0,-2.0,2.0,-5.0,-4.0,5.0,-4.0,19.0,1650912149377037.0,0
991,-4.0,-7.0,-10.0,-1.0,-5.0,-6.0,0.0,-4.0,1650912149377037.0,0
992,1.0,0.0,-4.0,1.0,-11.0,-14.0,-4.0,0.0,1650912149392353.0,0
993,-1.0,-1.0,2.0,-4.0,-1.0,4.0,-1.0,3.0,1650912149392353.0,0
994,-5.0,0.0,4.0,6.0,20.0,7.0,-4.0,-12.0,1650912149392353.0,0
995,1.0,-5.0,-2.0,8.0,-2.0,2.0,0.0,-4.0,1650912149392353.0,0
996,0.0,11.0,5.0,3.0,7.0,10.0,6.0,12.0,1650912149415388.0,0
997,-1.0,-1.0,-7.0,-12.0,-16.0,-7.0,-4.0,-7.0,1650912149415388.0,0
998,-7.0,-2.0,7.0,-5.0,-13.0,-22.0,-5.0,-7.0,1650912149415388.0,0
999,6.0,-9.0,-16.0,-1.0,2.0,-5.0,-3.0,9.0,1650912149415388.0,0
1000,-5.0,15.0,10.0,-1.0,-4.0,4.0,1.0,-5.0,1650912149428626.0,0
1001,4.0,-12.0,-12.0,2.0,14.0,26.0,3.0,8.0,1650912149428626.0,0
1002,4.0,12.0,10.0,1.0,15.0,-9.0,1.0,0.0,1650912149444756.0,0
1003,3.0,4.0,3.0,0.0,-2.0,-19.0,-2.0,1.0,1650912149444756.0,0
1004,0.0,14.0,12.0,3.0,-11.0,0.0,0.0,-4.0,1650912149451740.0,0
1005,5.0,-5.0,0.0,1.0,11.0,7.0,4.0,5.0,1650912149451740.0,0
1006,-8.0,-25.0,-19.0,-5.0,-25.0,2.0,0.0,18.0,1650912149452769.0,0
1007,2.0,2.0,5.0,-2.0,1.0,2.0,-3.0,-14.0,1650912149452769.0,0
1008,0.0,-6.0,-11.0,-9.0,3.0,-10.0,1.0,12.0,1650912149475483.0,0
1009,-4.0,-5.0,10.0,-1.0,-27.0,-2.0,-3.0,-4.0,1650912149475483.0,0
1010,0.0,1.0,-3.0,-1.0,15.0,7.0,3.0,4.0,1650912149475937.0,0
1011,1.0,4.0,5.0,7.0,13.0,1.0,-6.0,-10.0,1650912149475937.0,0
1012,3.0,10.0,3.0,7.0,18.0,17.0,7.0,5.0,1650912149489438.0,0
1013,0.0,-1.0,5.0,6.0,24.0,-5.0,1.0,0.0,1650912149489438.0,0
1014,3.0,-3.0,-10.0,-14.0,-37.0,-6.0,-4.0,-13.0,1650912149497118.0,0
1015,-18.0,-3.0,-2.0,-18.0,-30.0,-22.0,0.0,9.0,1650912149497118.0,0
1016,-7.0,-13.0,-11.0,1.0,6.0,-2.0,-5.0,-16.0,1650912149512016.0,0
1017,15.0,23.0,11.0,12.0,32.0,13.0,6.0,13.0,1650912149512016.0,0
1018,-6.0,-5.0,1.0,10.0,16.0,5.0,0.0,-18.0,1650912149513014.0,0
1019,3.0,3.0,0.0,-3.0,2.0,6.0,1.0,5.0,1650912149513014.0,0
1020,-1.0,-8.0,-2.0,-3.0,-20.0,-13.0,-9.0,-6.0,1650912149543821.0,0
1021,-9.0,0.0,-1.0,-7.0,-12.0,-18.0,-4.0,-10.0,1650912149543821.0,0
1022,0.0,3.0,3.0,0.0,2.0,5.0,1.0,3.0,1650912149544837.0,0
1023,-3.0,-8.0,-3.0,-2.0,4.0,0.0,-2.0,7.0,1650912149544837.0,0
1024,2.0,6.0,11.0,-2.0,-19.0,-4.0,-4.0,-2.0,1650912149548832.0,0
1025,-4.0,-20.0,-17.0,-6.0,-15.0,-4.0,-3.0,-4.0,1650912149548832.0,0
1026,0.0,6.0,5.0,10.0,20.0,6.0,4.0,6.0,1650912149557430.0,0
1027,4.0,30.0,28.0,9.0,16.0,15.0,6.0,-2.0,1650912149557430.0,0
1028,2.0,-5.0,-10.0,1.0,7.0,0.0,2.0,5.0,1650912149572188.0,0
1029,0.0,-3.0,-7.0,-2.0,-6.0,6.0,-3.0,2.0,1650912149572188.0,0
1030,1.0,7.0,12.0,-3.0,-13.0,-8.0,0.0,-5.0,1650912149572188.0,0
1031,1.0,-15.0,-24.0,-6.0,-1.0,-4.0,1.0,-2.0,1650912149572188.0,0
1032,-1.0,-11.0,12.0,-1.0,-12.0,-8.0,-3.0,-2.0,1650912149594789.0,0
1033,-1.0,6.0,1.0,1.0,-15.0,7.0,-3.0,-2.0,1650912149594789.0,0
1034,-1.0,-5.0,-10.0,-13.0,-6.0,1.0,-2.0,4.0,1650912149595788.0,0
1035,5.0,17.0,17.0,15.0,22.0,-1.0,4.0,-4.0,1650912149595788.0,0
1036,0.0,-27.0,-24.0,-8.0,-1.0,4.0,-1.0,11.0,1650912149618425.0,0
1037,3.0,10.0,8.0,2.0,3.0,-2.0,-3.0,-10.0,1650912149618425.0,0
1038,-2.0,-5.0,1.0,-1.0,2.0,9.0,5.0,7.0,1650912149618425.0,0
1039,-2.0,6.0,2.0,3.0,9.0,-8.0,-8.0,-14.0,1650912149618425.0,0
1040,-8.0,-25.0,-10.0,-1.0,-11.0,-10.0,-3.0,-10.0,1650912149632182.0,0
1041,0.0,-11.0,-10.0,-6.0,-2.0,0.0,0.0,4.0,1650912149632182.0,0
1042,0.0,6.0,0.0,-3.0,-2.0,16.0,-6.0,-8.0,1650912149632182.0,0
1043,11.0,-3.0,-2.0,-8.0,-31.0,-6.0,7.0,4.0,1650912149632182.0,0
1044,-6.0,6.0,-11.0,3.0,10.0,3.0,-3.0,-7.0,1650912149654963.0,0
1045,-2.0,5.0,3.0,2.0,6.0,-2.0,1.0,6.0,1650912149654963.0,0
1046,4.0,4.0,1.0,4.0,8.0,-7.0,5.0,3.0,1650912149655961.0,0
1047,1.0,-12.0,-12.0,-2.0,14.0,6.0,3.0,11.0,1650912149655961.0,0
1048,-1.0,-3.0,-3.0,-3.0,-7.0,0.0,-5.0,-7.0,1650912149677110.0,0
1049,-4.0,5.0,4.0,-6.0,-21.0,-11.0,-4.0,-3.0,1650912149677110.0,0
1050,-6.0,-8.0,-2.0,-2.0,2.0,-15.0,-2.0,0.0,1650912149678108.0,0
1051,-3.0,-8.0,-3.0,1.0,1.0,0.0,-3.0,0.0,1650912149678108.0,0
1052,7.0,18.0,12.0,2.0,10.0,9.0,6.0,8.0,1650912149692235.0,0
1053,-2.0,10.0,-1.0,1.0,16.0,17.0,4.0,-3.0,1650912149692235.0,0
1054,-6.0,-4.0,-3.0,4.0,7.0,-3.0,1.0,-5.0,1650912149692235.0,0
1055,-1.0,-15.0,-11.0,-10.0,-23.0,-15.0,-7.0,-8.0,1650912149692235.0,0
1056,2.0,1.0,-2.0,-6.0,-2.0,-8.0,-4.0,4.0,1650912149722058.0,0
1057,2.0,-7.0,1.0,3.0,-24.0,-2.0,0.0,-4.0,1650912149722058.0,0
1058,-11.0,16.0,10.0,1.0,8.0,15.0,2.0,3.0,1650912149723021.0,0
1059,-2.0,-6.0,-7.0,4.0,19.0,5.0,4.0,-1.0,1650912149723021.0,0
1060,7.0,22.0,19.0,6.0,-15.0,-6.0,5.0,11.0,1650912149744547.0,0
1061,-4.0,-15.0,-4.0,-2.0,8.0,-4.0,-6.0,-10.0,1650912149744547.0,0
1062,3.0,-9.0,0.0,4.0,8.0,-11.0,-4.0,-7.0,1650912149745413.0,0
1063,7.0,5.0,-2.0,-1.0,-2.0,9.0,-1.0,1.0,1650912149745413.0,0
1064,-7.0,13.0,18.0,6.0,7.0,5.0,3.0,2.0,1650912149752544.0,0
1065,-4.0,-5.0,1.0,-8.0,-14.0,-14.0,-6.0,0.0,1650912149752544.0,0
1066,-1.0,-2.0,-3.0,-4.0,-26.0,-9.0,-2.0,-1.0,1650912149752544.0,0
1067,-3.0,-2.0,0.0,-8.0,0.0,-17.0,-6.0,0.0,1650912149752544.0,0
1068,6.0,2.0,-3.0,6.0,18.0,31.0,6.0,-2.0,1650912149775201.0,0
1069,-5.0,-16.0,1.0,4.0,27.0,-1.0,3.0,4.0,1650912149775201.0,0
1070,1.0,2.0,-1.0,2.0,2.0,6.0,3.0,-4.0,1650912149775201.0,0
1071,-7.0,-12.0,-1.0,-4.0,-2.0,-1.0,-4.0,3.0,1650912149775201.0,0
1072,3.0,0.0,-9.0,-6.0,-32.0,-9.0,-3.0,-4.0,1650912149797614.0,0
1073,2.0,-3.0,-11.0,0.0,21.0,9.0,1.0,-6.0,1650912149797614.0,0
1074,0.0,-3.0,1.0,-2.0,1.0,3.0,1.0,7.0,1650912149798525.0,0
1075,3.0,8.0,-8.0,-1.0,-8.0,-6.0,0.0,-5.0,1650912149798525.0,0
1076,-7.0,-8.0,7.0,-4.0,-18.0,-15.0,-9.0,-8.0,1650912149813001.0,0
1077,5.0,-10.0,-9.0,-5.0,-7.0,-6.0,-3.0,-5.0,1650912149813001.0,0
1078,4.0,1.0,11.0,9.0,15.0,8.0,1.0,-1.0,1650912149813001.0,0
1079,-1.0,-4.0,3.0,9.0,7.0,17.0,7.0,3.0,1650912149813001.0,0
1080,-7.0,-11.0,-13.0,-8.0,12.0,-3.0,-2.0,-11.0,1650912149835159.0,0
1081,1.0,11.0,0.0,1.0,-16.0,-4.0,-2.0,1.0,1650912149835159.0,0
1082,0.0,-8.0,-12.0,-13.0,-17.0,-13.0,-4.0,-2.0,1650912149835159.0,0
1083,-2.0,11.0,15.0,7.0,-9.0,3.0,5.0,12.0,1650912149835159.0,0
1084,0.0,0.0,-9.0,-2.0,14.0,0.0,-8.0,8.0,1650912149857486.0,0
1085,-4.0,6.0,12.0,3.0,-2.0,7.0,2.0,-1.0,1650912149857486.0,0
1086,11.0,3.0,-2.0,-6.0,-1.0,-17.0,-6.0,-1.0,1650912149858321.0,0
1087,-11.0,-9.0,-5.0,-3.0,-20.0,5.0,-5.0,-10.0,1650912149858321.0,0
1088,11.0,-2.0,-3.0,8.0,24.0,1.0,6.0,0.0,1650912149871501.0,0
1089,-10.0,3.0,0.0,8.0,23.0,1.0,4.0,2.0,1650912149871501.0,0
1090,5.0,12.0,-1.0,1.0,-17.0,0.0,-3.0,-2.0,1650912149872498.0,0
1091,-5.0,-13.0,-13.0,-14.0,-24.0,-6.0,-4.0,-3.0,1650912149872498.0,0
1092,-3.0,-3.0,5.0,-1.0,27.0,-2.0,-3.0,-10.0,1650912149894954.0,0
1093,4.0,-1.0,-2.0,4.0,-11.0,8.0,0.0,-2.0,1650912149894954.0,0
1094,-3.0,1.0,8.0,4.0,15.0,3.0,2.0,-1.0,1650912149895818.0,0
1095,2.0,16.0,7.0,1.0,-12.0,0.0,2.0,-1.0,1650912149895818.0,0
1096,-8.0,-25.0,-19.0,-11.0,-10.0,-13.0,-1.0,1.0,1650912149917749.0,0
1097,0.0,5.0,9.0,-5.0,-15.0,-10.0,-3.0,3.0,1650912149917749.0,0
1098,-3.0,-4.0,-8.0,-1.0,-15.0,0.0,-1.0,-1.0,1650912149918585.0,0
1099,1.0,10.0,6.0,1.0,3.0,2.0,0.0,-1.0,1650912149918585.0,0
1100,8.0,14.0,14.0,13.0,19.0,14.0,5.0,6.0,1650912149932828.0,0
1101,5.0,-9.0,-15.0,-5.0,9.0,-5.0,2.0,-10.0,1650912149932828.0,0
1102,-23.0,-13.0,-1.0,2.0,-3.0,-4.0,-4.0,6.0,1650912149932828.0,0
1103,2.0,8.0,8.0,0.0,6.0,11.0,3.0,-2.0,1650912149932828.0,0
1104,-3.0,6.0,-2.0,-1.0,-6.0,2.0,2.0,1.0,1650912149954319.0,0
1105,1.0,-8.0,6.0,-12.0,-30.0,-36.0,-9.0,-12.0,1650912149954319.0,0
1106,4.0,0.0,-11.0,-3.0,-10.0,0.0,0.0,-3.0,1650912149955319.0,0
1107,6.0,6.0,11.0,13.0,51.0,14.0,4.0,1.0,1650912149955319.0,0
1108,-2.0,-2.0,-4.0,4.0,13.0,12.0,6.0,6.0,1650912149977187.0,0
1109,-4.0,-15.0,-2.0,-3.0,0.0,-1.0,4.0,15.0,1650912149977187.0,0
1110,-2.0,5.0,-7.0,-5.0,-22.0,-7.0,-7.0,-24.0,1650912149978267.0,0
1111,4.0,2.0,-1.0,-8.0,-10.0,-14.0,-3.0,4.0,1650912149978267.0,0
1112,1.0,12.0,5.0,0.0,-5.0,-8.0,-1.0,-2.0,1650912150000714.0,0
1113,6.0,16.0,2.0,9.0,17.0,17.0,6.0,20.0,1650912150000714.0,0
1114,-13.0,-23.0,-6.0,-7.0,-11.0,2.0,-2.0,-14.0,1650912150000714.0,0
1115,3.0,-9.0,-5.0,0.0,7.0,-2.0,-2.0,-4.0,1650912150000714.0,0
1116,14.0,22.0,3.0,4.0,-9.0,-6.0,2.0,-6.0,1650912150014682.0,0
1117,-10.0,-7.0,-1.0,-1.0,12.0,0.0,-4.0,3.0,1650912150014682.0,0
1118,2.0,-1.0,-4.0,-4.0,6.0,1.0,-1.0,0.0,1650912150022018.0,0
1119,5.0,7.0,1.0,-5.0,-24.0,2.0,-6.0,0.0,1650912150022018.0,0
1120,-4.0,-16.0,-5.0,-3.0,5.0,-1.0,-2.0,-4.0,1650912150037380.0,0
1121,-1.0,5.0,0.0,3.0,10.0,8.0,1.0,-4.0,1650912150037380.0,0
1122,9.0,7.0,-2.0,5.0,9.0,15.0,2.0,7.0,1650912150038212.0,0
1123,-4.0,-7.0,-10.0,-11.0,-17.0,-22.0,-4.0,-1.0,1650912150038212.0,0
1124,-7.0,-1.0,-6.0,-3.0,-15.0,0.0,-2.0,-5.0,1650912150052177.0,0
1125,7.0,14.0,15.0,1.0,-5.0,2.0,-2.0,-4.0,1650912150052177.0,0
1126,0.0,-1.0,-5.0,3.0,15.0,0.0,4.0,9.0,1650912150053013.0,0
1127,-4.0,8.0,10.0,1.0,13.0,-8.0,-3.0,-7.0,1650912150053013.0,0
1128,-2.0,-7.0,0.0,2.0,-4.0,21.0,3.0,4.0,1650912150075616.0,0
1129,0.0,-14.0,-18.0,-6.0,-13.0,3.0,2.0,10.0,1650912150075616.0,0
1130,1.0,1.0,7.0,7.0,25.0,-5.0,0.0,-12.0,1650912150075616.0,0
1131,3.0,10.0,-4.0,3.0,-2.0,1.0,1.0,31.0,1650912150075616.0,0
1132,-1.0,6.0,18.0,-3.0,-10.0,-14.0,-11.0,-7.0,1650912150097246.0,0
1133,-2.0,-6.0,-19.0,-8.0,-7.0,5.0,-2.0,-6.0,1650912150097246.0,0
1134,2.0,0.0,-4.0,0.0,-20.0,-10.0,-2.0,8.0,1650912150098242.0,0
1135,-5.0,-15.0,-10.0,1.0,8.0,11.0,3.0,-8.0,1650912150098242.0,0
1136,5.0,12.0,11.0,8.0,19.0,10.0,8.0,10.0,1650912150111184.0,0
1137,3.0,14.0,2.0,3.0,6.0,-1.0,5.0,8.0,1650912150111184.0,0
1138,-8.0,-21.0,-7.0,-9.0,-8.0,-1.0,-4.0,1.0,1650912150120024.0,0
1139,-5.0,-5.0,-3.0,-2.0,-7.0,-31.0,-4.0,-7.0,1650912150120024.0,0
1140,-1.0,-5.0,-5.0,0.0,5.0,1.0,-1.0,13.0,1650912150135906.0,0
1141,-2.0,8.0,7.0,9.0,5.0,10.0,-4.0,-34.0,1650912150135906.0,0
1142,4.0,1.0,7.0,2.0,3.0,-2.0,5.0,6.0,1650912150135906.0,0
1143,-6.0,-18.0,-2.0,-13.0,-14.0,8.0,1.0,-1.0,1650912150135906.0,0
1144,8.0,-8.0,-7.0,0.0,-4.0,-5.0,-2.0,5.0,1650912150157674.0,0
1145,-10.0,8.0,8.0,-6.0,-8.0,-14.0,-5.0,-5.0,1650912150157674.0,0
1146,5.0,1.0,-16.0,-1.0,-3.0,5.0,0.0,15.0,1650912150158545.0,0
1147,-1.0,9.0,13.0,10.0,16.0,14.0,2.0,-11.0,1650912150158545.0,0
1148,2.0,-14.0,1.0,4.0,14.0,0.0,2.0,-1.0,1650912150171022.0,0
1149,4.0,-13.0,-26.0,-5.0,1.0,8.0,0.0,-6.0,1650912150171022.0,0
1150,-8.0,-1.0,12.0,-5.0,-11.0,-3.0,1.0,-1.0,1650912150180009.0,0
1151,0.0,1.0,-13.0,-7.0,-22.0,-15.0,-5.0,-5.0,1650912150180009.0,0
1152,-7.0,2.0,-1.0,-1.0,-10.0,-5.0,-5.0,-9.0,1650912150195180.0,0
1153,-1.0,-2.0,4.0,4.0,24.0,12.0,1.0,-3.0,1650912150195180.0,0
1154,11.0,12.0,8.0,3.0,11.0,1.0,2.0,14.0,1650912150195180.0,0
1155,0.0,-9.0,-1.0,0.0,-11.0,1.0,1.0,-4.0,1650912150195180.0,0
1156,-3.0,3.0,0.0,-10.0,-23.0,-4.0,-6.0,-3.0,1650912150217510.0,0
1157,-1.0,11.0,15.0,1.0,-3.0,-12.0,-6.0,3.0,1650912150217510.0,0
1158,8.0,9.0,4.0,4.0,28.0,9.0,6.0,4.0,1650912150218346.0,0
1159,-2.0,8.0,10.0,7.0,13.0,8.0,6.0,6.0,1650912150218346.0,0
1160,-1.0,-10.0,-14.0,5.0,3.0,8.0,0.0,-2.0,1650912150231590.0,0
1161,5.0,1.0,9.0,-4.0,-27.0,-20.0,-1.0,7.0,1650912150231590.0,0
1162,-22.0,-9.0,-8.0,-7.0,-13.0,-12.0,-5.0,-7.0,1650912150239690.0,0
1163,5.0,4.0,3.0,-1.0,11.0,15.0,0.0,-2.0,1650912150239690.0,0
1164,2.0,3.0,-6.0,0.0,7.0,2.0,2.0,0.0,1650912150254955.0,0
1165,-2.0,-6.0,4.0,2.0,-3.0,1.0,-1.0,6.0,1650912150254955.0,0
1166,0.0,0.0,8.0,-7.0,-1.0,-4.0,-4.0,-11.0,1650912150255953.0,0
1167,-3.0,-2.0,-11.0,-5.0,-19.0,-7.0,-4.0,-16.0,1650912150255953.0,0
1168,-2.0,1.0,2.0,-1.0,-5.0,3.0,1.0,12.0,1650912150277442.0,0
1169,8.0,7.0,10.0,11.0,23.0,15.0,6.0,9.0,1650912150277442.0,0
1170,-1.0,6.0,-4.0,3.0,9.0,5.0,0.0,-6.0,1650912150278277.0,0
1171,-10.0,-20.0,-5.0,-7.0,-7.0,-3.0,-3.0,-9.0,1650912150278277.0,0
1172,2.0,-2.0,-2.0,-10.0,-13.0,-15.0,-2.0,7.0,1650912150291420.0,0
1173,-3.0,-1.0,-6.0,-6.0,-21.0,-4.0,-3.0,-3.0,1650912150291420.0,0
1174,-1.0,-11.0,-3.0,3.0,-6.0,-17.0,-4.0,-10.0,1650912150299435.0,0
1175,7.0,18.0,0.0,8.0,18.0,4.0,4.0,11.0,1650912150299435.0,0
1176,-7.0,-17.0,3.0,-2.0,12.0,9.0,7.0,-1.0,1650912150322764.0,0
1177,-2.0,1.0,-6.0,-1.0,1.0,13.0,-1.0,3.0,1650912150322764.0,0
1178,9.0,8.0,9.0,3.0,6.0,12.0,-2.0,-7.0,1650912150322764.0,0
1179,-2.0,-15.0,-19.0,-9.0,-19.0,-3.0,-1.0,2.0,1650912150322764.0,0
1180,0.0,11.0,6.0,-2.0,-24.0,-20.0,-4.0,-2.0,1650912150337019.0,0
1181,-6.0,-10.0,-15.0,-9.0,6.0,-12.0,2.0,2.0,1650912150337019.0,0
1182,4.0,7.0,8.0,4.0,10.0,2.0,2.0,4.0,1650912150344265.0,0
1183,3.0,1.0,-2.0,5.0,10.0,12.0,-1.0,0.0,1650912150344265.0,0
1184,2.0,13.0,2.0,0.0,9.0,1.0,2.0,-2.0,1650912150351182.0,0
1185,-1.0,-1.0,2.0,1.0,-9.0,-9.0,-5.0,14.0,1650912150351182.0,0
1186,2.0,-4.0,-9.0,3.0,-3.0,6.0,3.0,2.0,1650912150367486.0,0
1187,-7.0,-15.0,6.0,-4.0,2.0,-6.0,-7.0,-7.0,1650912150367486.0,0
1188,-4.0,0.0,-2.0,-5.0,-9.0,0.0,2.0,0.0,1650912150375719.0,0
1189,1.0,-2.0,-11.0,-4.0,-10.0,-6.0,1.0,-6.0,1650912150375719.0,0
1190,-1.0,-6.0,0.0,-3.0,0.0,-1.0,2.0,10.0,1650912150375719.0,0
1191,3.0,15.0,8.0,8.0,19.0,7.0,-1.0,-5.0,1650912150375719.0,0
1192,1.0,-1.0,1.0,3.0,4.0,-2.0,-1.0,-5.0,1650912150397814.0,0
1193,-1.0,0.0,4.0,3.0,-9.0,-2.0,-1.0,-5.0,1650912150397814.0,0
1194,0.0,-5.0,-10.0,-3.0,-2.0,-6.0,1.0,2.0,1650912150397814.0,0
1195,2.0,5.0,6.0,1.0,3.0,12.0,1.0,4.0,1650912150397814.0,0
1196,0.0,-3.0,-6.0,-1.0,1.0,3.0,-4.0,-9.0,1650912150420013.0,0
1197,-2.0,8.0,7.0,0.0,7.0,-3.0,1.0,-2.0,1650912150420013.0,0
1198,-2.0,-3.0,-12.0,-8.0,-19.0,7.0,-2.0,1.0,1650912150421015.0,0
1199,0.0,-4.0,-1.0,0.0,22.0,-21.0,2.0,-2.0,1650912150421015.0,0
1200,0.0,-1.0,1.0,3.0,-13.0,-1.0,-9.0,-4.0,1650912150435294.0,0
1201,-1.0,2.0,1.0,-2.0,10.0,14.0,9.0,2.0,1650912150435294.0,0
1202,1.0,3.0,6.0,0.0,-4.0,-11.0,-4.0,-3.0,1650912150435294.0,0
1203,-1.0,-2.0,-6.0,-6.0,-21.0,-5.0,-2.0,0.0,1650912150435294.0,0
1204,-2.0,-1.0,-6.0,-2.0,7.0,7.0,1.0,-1.0,1650912150458164.0,0
1205,2.0,3.0,8.0,7.0,21.0,-1.0,-2.0,-4.0,1650912150458164.0,0
1206,0.0,-1.0,1.0,2.0,13.0,5.0,-4.0,-2.0,1650912150458164.0,0
1207,1.0,1.0,0.0,2.0,-4.0,2.0,10.0,5.0,1650912150458164.0,0
1208,-1.0,-2.0,-3.0,-5.0,-1.0,-10.0,-3.0,0.0,1650912150471319.0,0
1209,-3.0,-3.0,-6.0,-6.0,-25.0,-4.0,-6.0,-4.0,1650912150471319.0,0
1210,-3.0,3.0,-1.0,-6.0,-10.0,-11.0,-3.0,-3.0,1650912150479838.0,0
1211,2.0,0.0,0.0,-3.0,-20.0,-8.0,0.0,4.0,1650912150479838.0,0
1212,-1.0,-1.0,2.0,2.0,13.0,2.0,-1.0,0.0,1650912150495828.0,0
1213,8.0,-2.0,0.0,6.0,22.0,13.0,0.0,-6.0,1650912150495828.0,0
1214,-14.0,2.0,1.0,6.0,11.0,14.0,6.0,2.0,1650912150495828.0,0
1215,1.0,0.0,-4.0,0.0,1.0,3.0,1.0,0.0,1650912150495828.0,0
1216,1.0,0.0,-2.0,-9.0,-29.0,-18.0,-7.0,0.0,1650912150518261.0,0
1217,-1.0,-1.0,-4.0,-3.0,-5.0,-7.0,4.0,1.0,1650912150518261.0,0
1218,4.0,1.0,1.0,6.0,14.0,6.0,0.0,-1.0,1650912150518261.0,0
1219,0.0,0.0,1.0,2.0,19.0,13.0,1.0,2.0,1650912150518261.0,0
1220,-4.0,-3.0,-1.0,0.0,-13.0,-7.0,-2.0,-2.0,1650912150540412.0,0
1221,-5.0,1.0,-2.0,0.0,2.0,3.0,-1.0,-1.0,1650912150540412.0,0
1222,3.0,3.0,1.0,-4.0,-10.0,-5.0,0.0,0.0,1650912150540412.0,0
1223,-3.0,-1.0,-1.0,-2.0,-3.0,-3.0,-5.0,-1.0,1650912150540412.0,0
1224,-1.0,-3.0,-3.0,-5.0,-8.0,0.0,-3.0,-3.0,1650912150555528.0,0
1225,-2.0,-1.0,1.0,2.0,-7.0,-16.0,-6.0,-1.0,1650912150555528.0,0
1226,2.0,1.0,1.0,7.0,14.0,11.0,5.0,1.0,1650912150556363.0,0
1227,0.0,-2.0,-3.0,-7.0,-14.0,-1.0,0.0,1.0,1650912150556363.0,0
1228,0.0,1.0,2.0,2.0,1.0,-11.0,0.0,1.0,1650912150577892.0,0
1229,-3.0,-1.0,0.0,1.0,16.0,10.0,-1.0,0.0,1650912150577892.0,0
1230,0.0,0.0,1.0,3.0,9.0,4.0,1.0,-2.0,1650912150577892.0,0
1231,-1.0,1.0,2.0,5.0,6.0,3.0,0.0,1.0,1650912150577892.0,0
1232,-2.0,-1.0,-2.0,-6.0,-18.0,0.0,1.0,-1.0,1650912150600019.0,0
1233,-3.0,-1.0,-4.0,-5.0,-7.0,-4.0,-2.0,1.0,1650912150600019.0,0
1234,1.0,-1.0,-1.0,-4.0,-6.0,-4.0,-3.0,-2.0,1650912150601041.0,0
1235,1.0,0.0,-1.0,-1.0,-6.0,3.0,-1.0,0.0,1650912150601041.0,0
1236,1.0,0.0,4.0,7.0,15.0,1.0,5.0,2.0,1650912150622688.0,0
1237,7.0,-2.0,-2.0,2.0,12.0,3.0,-2.0,1.0,1650912150622688.0,0
1238,-17.0,-2.0,-8.0,-5.0,-6.0,-1.0,0.0,-1.0,1650912150622688.0,0
1239,1.0,0.0,2.0,-4.0,-11.0,1.0,0.0,0.0,1650912150622688.0,0
1240,1.0,1.0,7.0,4.0,16.0,2.0,3.0,0.0,1650912150637954.0,0
1241,-1.0,-1.0,-9.0,-5.0,-15.0,-10.0,0.0,-2.0,1650912150637954.0,0
1242,7.0,0.0,-2.0,-5.0,-18.0,-6.0,-3.0,-2.0,1650912150638950.0,0
1243,-3.0,-5.0,-5.0,0.0,3.0,-1.0,-1.0,-1.0,1650912150638950.0,0
1244,-3.0,-1.0,2.0,-5.0,-7.0,4.0,-2.0,0.0,1650912150660029.0,0
1245,0.0,1.0,3.0,1.0,3.0,-2.0,-1.0,-2.0,1650912150660029.0,0
1246,2.0,1.0,6.0,4.0,8.0,-7.0,-2.0,0.0,1650912150661028.0,0
1247,0.0,2.0,11.0,7.0,9.0,2.0,1.0,2.0,1650912150661028.0,0
1248,4.0,1.0,-2.0,6.0,7.0,13.0,3.0,0.0,1650912150674673.0,0
1249,-5.0,-4.0,-12.0,-11.0,-8.0,-17.0,-3.0,-2.0,1650912150674673.0,0
1250,-3.0,-11.0,-25.0,-19.0,-20.0,-7.0,-3.0,-4.0,1650912150674673.0,0
1251,1.0,2.0,14.0,7.0,3.0,4.0,-3.0,0.0,1650912150674673.0,0
1252,0.0,2.0,10.0,7.0,7.0,-1.0,2.0,-1.0,1650912150698477.0,0
1253,-1.0,-3.0,-12.0,0.0,11.0,14.0,2.0,0.0,1650912150698477.0,0
1254,1.0,3.0,8.0,4.0,1.0,0.0,3.0,2.0,1650912150699316.0,0
1255,-1.0,-2.0,-7.0,-9.0,-15.0,-9.0,-3.0,-3.0,1650912150699316.0,0
1256,-1.0,0.0,3.0,2.0,-5.0,-2.0,-1.0,0.0,1650912150720110.0,0
1257,0.0,0.0,6.0,4.0,-4.0,2.0,-1.0,-1.0,1650912150720110.0,0
1258,2.0,-1.0,-1.0,-1.0,-1.0,2.0,-4.0,-2.0,1650912150720946.0,0
1259,-3.0,-1.0,-7.0,0.0,-5.0,-4.0,-2.0,-2.0,1650912150720946.0,0
1260,2.0,2.0,1.0,6.0,10.0,10.0,3.0,1.0,1650912150734406.0,0
1261,3.0,4.0,5.0,1.0,3.0,1.0,5.0,2.0,1650912150734406.0,0
1262,0.0,-2.0,0.0,-2.0,-8.0,-1.0,1.0,1.0,1650912150734406.0,0
1263,-8.0,-11.0,-1.0,-3.0,3.0,-5.0,-1.0,-2.0,1650912150734406.0,0
1264,-4.0,2.0,-5.0,-3.0,1.0,-2.0,1.0,-3.0,1650912150758373.0,0
1265,-6.0,-13.0,-5.0,3.0,8.0,12.0,0.0,0.0,1650912150758373.0,0
1266,3.0,3.0,1.0,-3.0,-4.0,-4.0,-2.0,-1.0,1650912150759233.0,0
1267,3.0,2.0,-2.0,-3.0,-14.0,-8.0,-2.0,-1.0,1650912150759233.0,0
1268,1.0,-2.0,-10.0,-4.0,1.0,-15.0,-3.0,-3.0,1650912150779540.0,0
1269,1.0,3.0,11.0,6.0,5.0,0.0,0.0,0.0,1650912150779540.0,0
1270,-1.0,2.0,2.0,0.0,9.0,4.0,1.0,0.0,1650912150780382.0,0
1271,-2.0,-3.0,-13.0,-8.0,-2.0,-5.0,-3.0,0.0,1650912150780382.0,0
1272,0.0,-1.0,-5.0,-5.0,-10.0,5.0,0.0,1.0,1650912150793572.0,0
1273,-1.0,-2.0,5.0,4.0,5.0,-4.0,1.0,-1.0,1650912150793572.0,0
1274,0.0,2.0,5.0,10.0,6.0,-7.0,0.0,0.0,1650912150802218.0,0
1275,3.0,2.0,-1.0,-4.0,-12.0,-3.0,-1.0,-1.0,1650912150802218.0,0
1276,-1.0,-2.0,5.0,2.0,7.0,7.0,1.0,-1.0,1650912150817449.0,0
1277,-1.0,-1.0,-4.0,-7.0,9.0,4.0,-1.0,-1.0,1650912150817449.0,0
1278,0.0,-3.0,-4.0,1.0,-23.0,0.0,0.0,-1.0,1650912150819285.0,0
1279,0.0,2.0,1.0,1.0,12.0,-4.0,-1.0,-1.0,1650912150819285.0,0
1280,-1.0,-4.0,-2.0,-3.0,-4.0,1.0,1.0,1.0,1650912150840974.0,0
1281,-1.0,0.0,2.0,0.0,-3.0,3.0,-2.0,-2.0,1650912150840974.0,0
1282,0.0,2.0,2.0,0.0,12.0,8.0,0.0,0.0,1650912150841805.0,0
1283,0.0,0.0,-4.0,-3.0,-22.0,-22.0,-2.0,0.0,1650912150841805.0,0
1284,-5.0,-5.0,-2.0,-5.0,-13.0,-2.0,-4.0,-3.0,1650912150854192.0,0
1285,1.0,2.0,1.0,-2.0,7.0,9.0,0.0,1.0,1650912150854192.0,0
1286,3.0,1.0,5.0,7.0,16.0,-1.0,3.0,1.0,1650912150862168.0,0
1287,-2.0,-2.0,2.0,8.0,16.0,14.0,2.0,0.0,1650912150862168.0,0
1288,2.0,-2.0,-3.0,-1.0,-4.0,-6.0,-1.0,0.0,1650912150877328.0,0
1289,-2.0,-3.0,-6.0,-9.0,-14.0,-17.0,-3.0,-3.0,1650912150877328.0,0
1290,-2.0,-3.0,-3.0,-6.0,-4.0,6.0,-3.0,-2.0,1650912150879218.0,0
1291,3.0,3.0,1.0,-1.0,2.0,-12.0,-3.0,0.0,1650912150879218.0,0
1292,-1.0,1.0,1.0,3.0,3.0,6.0,3.0,-2.0,1650912150901052.0,0
1293,-1.0,-1.0,-1.0,-1.0,-18.0,12.0,0.0,1.0,1650912150901052.0,0
1294,1.0,-2.0,0.0,3.0,-3.0,0.0,3.0,0.0,1650912150901052.0,0
1295,1.0,1.0,0.0,3.0,30.0,-1.0,0.0,1.0,1650912150901052.0,0
1296,-4.0,-2.0,-2.0,0.0,-18.0,-2.0,-1.0,-2.0,1650912150914192.0,0
1297,-2.0,0.0,0.0,-1.0,-2.0,1.0,-1.0,-3.0,1650912150914192.0,0
1298,2.0,0.0,5.0,2.0,-5.0,2.0,-1.0,-2.0,1650912150922174.0,0
1299,1.0,-1.0,-10.0,-2.0,-7.0,-8.0,-2.0,-3.0,1650912150922174.0,0
1300,-4.0,-1.0,-4.0,-5.0,9.0,-19.0,-4.0,-1.0,1650912150938214.0,0
1301,-1.0,0.0,2.0,4.0,4.0,2.0,-1.0,0.0,1650912150938214.0,0
1302,1.0,-1.0,0.0,-1.0,14.0,9.0,0.0,-1.0,1650912150939214.0,0
1303,1.0,1.0,4.0,3.0,-6.0,15.0,2.0,0.0,1650912150939214.0,0
1304,0.0,0.0,1.0,-1.0,-2.0,0.0,2.0,1.0,1650912150960386.0,0
1305,-2.0,-1.0,2.0,1.0,-4.0,-4.0,-2.0,-2.0,1650912150960386.0,0
1306,-1.0,1.0,0.0,2.0,6.0,-1.0,-1.0,0.0,1650912150961222.0,0
1307,-1.0,-2.0,-5.0,-6.0,-9.0,-8.0,-2.0,0.0,1650912150961222.0,0
1308,1.0,1.0,0.0,-4.0,-6.0,-5.0,-3.0,-1.0,1650912150974173.0,0
1309,-2.0,1.0,1.0,0.0,7.0,3.0,0.0,1.0,1650912150974173.0,0
1310,-2.0,-2.0,4.0,2.0,2.0,3.0,0.0,1.0,1650912150983170.0,0
1311,0.0,1.0,4.0,6.0,7.0,5.0,4.0,2.0,1650912150983170.0,0
1312,1.0,0.0,2.0,5.0,7.0,10.0,2.0,0.0,1650912150997340.0,0
1313,2.0,4.0,1.0,2.0,-8.0,-7.0,2.0,1.0,1650912150997340.0,0
1314,-1.0,-1.0,-8.0,-11.0,-9.0,-8.0,-4.0,0.0,1650912150999368.0,0
1315,-2.0,-1.0,0.0,-4.0,-14.0,-9.0,-4.0,-4.0,1650912150999368.0,0
1316,-3.0,-3.0,-4.0,-1.0,-14.0,-3.0,-3.0,-1.0,1650912151020021.0,0
1317,-1.0,-1.0,0.0,3.0,10.0,12.0,0.0,0.0,1650912151020021.0,0
1318,-1.0,0.0,0.0,-1.0,-5.0,0.0,4.0,0.0,1650912151021055.0,0
1319,-1.0,0.0,0.0,2.0,-1.0,2.0,0.0,2.0,1650912151021055.0,0
1320,0.0,-1.0,-2.0,2.0,15.0,-1.0,0.0,-1.0,1650912151034057.0,0
1321,-1.0,-2.0,-2.0,-3.0,7.0,-7.0,-2.0,1.0,1650912151034057.0,0
1322,-3.0,-2.0,-3.0,-10.0,-27.0,-13.0,-3.0,-1.0,1650912151042515.0,0
1323,0.0,1.0,1.0,-2.0,-6.0,5.0,-1.0,-1.0,1650912151042515.0,0
1324,-1.0,0.0,-2.0,6.0,23.0,11.0,0.0,-1.0,1650912151058393.0,0
1325,-1.0,1.0,-1.0,1.0,9.0,4.0,0.0,-1.0,1650912151058393.0,0
1326,1.0,1.0,4.0,0.0,3.0,-6.0,-3.0,0.0,1650912151059230.0,0
1327,-1.0,-2.0,-1.0,-2.0,-13.0,-4.0,-4.0,-2.0,1650912151059230.0,0
1328,1.0,1.0,-2.0,-3.0,-7.0,20.0,0.0,3.0,1650912151080985.0,0
1329,1.0,-2.0,-8.0,-6.0,-8.0,-18.0,-1.0,0.0,1650912151080985.0,0
1330,9.0,4.0,3.0,4.0,5.0,-7.0,-1.0,0.0,1650912151081825.0,0
1331,-12.0,-1.0,2.0,1.0,9.0,7.0,1.0,-1.0,1650912151081825.0,0
1332,1.0,1.0,2.0,2.0,10.0,7.0,0.0,1.0,1650912151093793.0,0
1333,0.0,2.0,3.0,2.0,-9.0,1.0,1.0,1.0,1650912151093793.0,0
1334,0.0,-1.0,-3.0,0.0,-3.0,-12.0,-4.0,-2.0,1650912151109773.0,0
1335,2.0,-4.0,-1.0,-3.0,2.0,-3.0,-2.0,0.0,1650912151109773.0,0
1336,-2.0,-1.0,-3.0,-4.0,-7.0,1.0,-3.0,-2.0,1650912151118121.0,0
1337,1.0,0.0,4.0,0.0,-23.0,-1.0,0.0,-2.0,1650912151118121.0,0
1338,-3.0,-4.0,-5.0,1.0,15.0,6.0,1.0,0.0,1650912151118963.0,0
1339,3.0,1.0,4.0,6.0,5.0,7.0,4.0,1.0,1650912151118963.0,0
1340,0.0,1.0,-1.0,-5.0,-3.0,-10.0,-2.0,1.0,1650912151140487.0,0
1341,0.0,-1.0,-8.0,-10.0,-13.0,-2.0,-3.0,-3.0,1650912151140487.0,0
1342,-4.0,-1.0,3.0,0.0,-15.0,-4.0,-2.0,-3.0,1650912151141327.0,0
1343,0.0,-2.0,-2.0,6.0,20.0,-1.0,1.0,0.0,1650912151141327.0,0
1344,3.0,1.0,5.0,11.0,32.0,13.0,5.0,2.0,1650912151154293.0,0
1345,1.0,1.0,5.0,6.0,10.0,2.0,2.0,0.0,1650912151154293.0,0
1346,-3.0,-5.0,-9.0,-5.0,-6.0,-5.0,-2.0,-1.0,1650912151178269.0,0
1347,-1.0,-1.0,-3.0,-7.0,-7.0,-1.0,-3.0,0.0,1650912151178269.0,0
1348,-4.0,-4.0,-2.0,-6.0,-21.0,-15.0,-1.0,-1.0,1650912151178269.0,0
1349,1.0,-2.0,1.0,0.0,2.0,6.0,-2.0,0.0,1650912151178269.0,0
1350,-2.0,-1.0,-2.0,-3.0,-2.0,4.0,0.0,-3.0,1650912151180222.0,0
1351,-1.0,-1.0,-2.0,-3.0,-4.0,-8.0,-2.0,-1.0,1650912151180222.0,0
1352,-1.0,-2.0,-3.0,2.0,-1.0,3.0,1.0,-1.0,1650912151200636.0,0
1353,1.0,3.0,1.0,3.0,12.0,6.0,-1.0,1.0,1650912151200636.0,0
1354,0.0,-1.0,2.0,1.0,-2.0,4.0,1.0,1.0,1650912151201472.0,0
1355,2.0,1.0,-3.0,1.0,-10.0,-5.0,0.0,0.0,1650912151201472.0,0
1356,-3.0,-1.0,-4.0,-6.0,10.0,-16.0,-5.0,-2.0,1650912151222741.0,0
1357,-4.0,-4.0,-2.0,-4.0,-22.0,2.0,-2.0,-1.0,1650912151222741.0,0
1358,0.0,2.0,6.0,4.0,13.0,-2.0,-2.0,1.0,1650912151223741.0,0
1359,5.0,-5.0,-3.0,3.0,12.0,13.0,1.0,-2.0,1650912151223741.0,0
1360,0.0,1.0,5.0,-1.0,-8.0,-5.0,1.0,1.0,1650912151237091.0,0
1361,2.0,-2.0,-5.0,-6.0,-11.0,-10.0,-1.0,1.0,1650912151237091.0,0
1362,-2.0,-1.0,0.0,-2.0,-8.0,0.0,-2.0,-2.0,1650912151238919.0,0
1363,1.0,2.0,-5.0,-5.0,-1.0,7.0,0.0,0.0,1650912151238919.0,0
1364,2.0,-1.0,3.0,7.0,18.0,7.0,4.0,0.0,1650912151260020.0,0
1365,-3.0,4.0,7.0,7.0,14.0,-1.0,0.0,0.0,1650912151260020.0,0
1366,1.0,2.0,1.0,0.0,-4.0,1.0,-2.0,1.0,1650912151261019.0,0
1367,-2.0,-3.0,-9.0,-7.0,-2.0,-5.0,-4.0,-1.0,1650912151261019.0,0
1368,-2.0,-2.0,-5.0,-7.0,-32.0,-16.0,-3.0,-1.0,1650912151274224.0,0
1369,2.0,-4.0,0.0,-5.0,-22.0,1.0,-2.0,-3.0,1650912151274224.0,0
1370,0.0,0.0,3.0,8.0,23.0,1.0,3.0,0.0,1650912151282366.0,0
1371,-1.0,4.0,7.0,10.0,26.0,15.0,3.0,2.0,1650912151282366.0,0
1372,-1.0,-1.0,-2.0,-1.0,7.0,8.0,-1.0,0.0,1650912151298159.0,0
1373,0.0,-3.0,-5.0,-5.0,-12.0,-16.0,-1.0,-1.0,1650912151298159.0,0
1374,-4.0,-4.0,-1.0,-8.0,-23.0,0.0,-4.0,-3.0,1650912151298996.0,0
1375,-2.0,-4.0,-9.0,-1.0,-13.0,-10.0,-1.0,-2.0,1650912151298996.0,0
1376,3.0,3.0,1.0,4.0,14.0,4.0,1.0,-1.0,1650912151320018.0,0
1377,0.0,2.0,2.0,5.0,19.0,4.0,3.0,1.0,1650912151320018.0,0
1378,1.0,-1.0,-2.0,-2.0,-12.0,5.0,2.0,2.0,1650912151321018.0,0
1379,-3.0,1.0,5.0,-3.0,-3.0,-3.0,-3.0,-2.0,1650912151321018.0,0
1380,-1.0,0.0,-3.0,-5.0,-18.0,-10.0,-5.0,0.0,1650912151343326.0,0
1381,-3.0,-5.0,-7.0,-5.0,-1.0,4.0,-3.0,-5.0,1650912151343326.0,0
1382,-1.0,3.0,0.0,6.0,14.0,5.0,2.0,-1.0,1650912151344166.0,0
1383,13.0,3.0,7.0,10.0,29.0,4.0,3.0,2.0,1650912151344166.0,0
1384,-12.0,0.0,1.0,2.0,-5.0,1.0,4.0,0.0,1650912151359455.0,0
1385,2.0,-1.0,-4.0,-5.0,-9.0,-5.0,0.0,0.0,1650912151359455.0,0
1386,-1.0,-2.0,-3.0,-4.0,-11.0,-5.0,-2.0,-3.0,1650912151364217.0,0
1387,-1.0,-2.0,-2.0,-3.0,-5.0,-4.0,-3.0,-3.0,1650912151364217.0,0
1388,2.0,0.0,-2.0,1.0,9.0,2.0,-2.0,-2.0,1650912151380021.0,0
1389,-3.0,1.0,-2.0,0.0,2.0,2.0,-1.0,0.0,1650912151380021.0,0
1390,-2.0,-3.0,-3.0,-7.0,-20.0,-9.0,-4.0,-2.0,1650912151381053.0,0
1391,-3.0,-1.0,-1.0,-10.0,-29.0,-5.0,-1.0,-2.0,1650912151381053.0,0
1392,2.0,1.0,0.0,9.0,19.0,-1.0,2.0,0.0,1650912151394215.0,0
1393,-2.0,2.0,8.0,15.0,42.0,19.0,7.0,2.0,1650912151394215.0,0
1394,3.0,0.0,1.0,7.0,22.0,4.0,5.0,3.0,1650912151403089.0,0
1395,-3.0,0.0,2.0,-4.0,-12.0,0.0,-1.0,0.0,1650912151403089.0,0
1396,0.0,-2.0,-3.0,-9.0,-27.0,-10.0,-4.0,-2.0,1650912151417495.0,0
1397,0.0,-2.0,-2.0,-4.0,-5.0,-10.0,-3.0,0.0,1650912151417495.0,0
1398,-3.0,-1.0,-3.0,-7.0,-8.0,-1.0,-3.0,-1.0,1650912151419322.0,0
1399,-4.0,-3.0,-5.0,-14.0,-23.0,-2.0,-6.0,-2.0,1650912151419322.0,0
1400,0.0,-1.0,0.0,2.0,-7.0,-15.0,-4.0,-3.0,1650912151440737.0,0
1401,3.0,2.0,4.0,20.0,62.0,26.0,8.0,1.0,1650912151440737.0,0
1402,4.0,5.0,9.0,16.0,37.0,26.0,11.0,4.0,1650912151441639.0,0
1403,1.0,2.0,2.0,2.0,0.0,-1.0,3.0,3.0,1650912151441639.0,0
1404,0.0,-2.0,-3.0,-10.0,-20.0,-11.0,-3.0,0.0,1650912151462683.0,0
1405,-3.0,-4.0,-8.0,-13.0,-37.0,-21.0,-9.0,-5.0,1650912151462683.0,0
1406,-3.0,-4.0,-4.0,-8.0,-14.0,-10.0,-6.0,-4.0,1650912151463581.0,0
1407,-1.0,1.0,-2.0,-1.0,-1.0,1.0,-4.0,-4.0,1650912151463581.0,0
1408,-2.0,-1.0,1.0,-5.0,-9.0,-8.0,-1.0,-1.0,1650912151476738.0,0
1409,0.0,-1.0,1.0,5.0,-4.0,-1.0,2.0,0.0,1650912151476738.0,0
1410,1.0,4.0,4.0,9.0,27.0,11.0,4.0,1.0,1650912151485400.0,0
1411,-1.0,-1.0,-2.0,5.0,12.0,-2.0,1.0,1.0,1650912151485400.0,0
1412,1.0,-1.0,-3.0,-2.0,7.0,10.0,-1.0,-1.0,1650912151499960.0,0
1413,-1.0,1.0,3.0,-6.0,-12.0,-9.0,-2.0,-1.0,1650912151499960.0,0
1414,-2.0,1.0,-11.0,-11.0,-27.0,-13.0,-5.0,-3.0,1650912151500991.0,0
1415,-3.0,-3.0,-5.0,-7.0,-22.0,-9.0,-4.0,-3.0,1650912151500991.0,0
1416,2.0,1.0,2.0,6.0,3.0,6.0,1.0,-1.0,1650912151522731.0,0
1417,-1.0,3.0,4.0,10.0,31.0,11.0,5.0,1.0,1650912151522731.0,0
1418,4.0,2.0,8.0,13.0,37.0,9.0,4.0,4.0,1650912151523731.0,0
1419,-3.0,-1.0,-1.0,1.0,-4.0,0.0,0.0,-2.0,1650912151523731.0,0
1420,-1.0,-4.0,-4.0,-7.0,-13.0,2.0,-2.0,-2.0,1650912151537209.0,0
1421,9.0,3.0,0.0,-10.0,-25.0,-8.0,-4.0,-2.0,1650912151537209.0,0
1422,-12.0,-4.0,-3.0,-6.0,-11.0,2.0,-2.0,-1.0,1650912151539036.0,0
1423,1.0,0.0,1.0,3.0,7.0,-10.0,-1.0,0.0,1650912151539036.0,0
1424,0.0,1.0,2.0,6.0,10.0,6.0,1.0,2.0,1650912151559991.0,0
1425,2.0,1.0,1.0,2.0,3.0,2.0,1.0,1.0,1650912151559991.0,0
1426,3.0,-3.0,-3.0,-4.0,-6.0,-5.0,-2.0,-1.0,1650912151561822.0,0
1427,-2.0,-3.0,-1.0,-4.0,-5.0,7.0,-1.0,0.0,1650912151561822.0,0
1428,-2.0,-1.0,3.0,0.0,0.0,8.0,0.0,-1.0,1650912151583069.0,0
1429,-4.0,-2.0,-7.0,-8.0,-15.0,-9.0,-4.0,-1.0,1650912151583069.0,0
1430,0.0,2.0,-2.0,-3.0,-30.0,-21.0,-1.0,-1.0,1650912151583704.0,0
1431,-2.0,-2.0,3.0,12.0,26.0,9.0,3.0,1.0,1650912151583704.0,0
1432,1.0,1.0,6.0,8.0,42.0,12.0,4.0,1.0,1650912151598155.0,0
1433,-1.0,-2.0,-4.0,-2.0,-10.0,4.0,1.0,1.0,1650912151598155.0,0
1434,0.0,-4.0,-8.0,-12.0,-17.0,-9.0,-3.0,-1.0,1650912151598995.0,0
1435,0.0,-1.0,-1.0,-5.0,-3.0,-12.0,-4.0,0.0,1650912151598995.0,0
1436,1.0,1.0,-4.0,-5.0,-25.0,0.0,-2.0,-1.0,1650912151619832.0,0
1437,-3.0,-2.0,2.0,2.0,2.0,1.0,1.0,-2.0,1650912151619832.0,0
1438,1.0,-1.0,3.0,5.0,9.0,9.0,0.0,-2.0,1650912151621861.0,0
1439,1.0,1.0,0.0,4.0,11.0,-2.0,5.0,1.0,1650912151621861.0,0
1440,0.0,3.0,4.0,0.0,2.0,2.0,2.0,1.0,1650912151643069.0,0
1441,-4.0,-7.0,-7.0,-5.0,-10.0,-6.0,-1.0,-2.0,1650912151643069.0,0
1442,1.0,-2.0,-5.0,-5.0,-10.0,-6.0,-3.0,-1.0,1650912151644206.0,0
1443,-1.0,0.0,0.0,1.0,-2.0,5.0,-3.0,-1.0,1650912151644206.0,0
1444,-3.0,-2.0,-2.0,1.0,5.0,4.0,0.0,-2.0,1650912151657523.0,0
1445,-3.0,-1.0,0.0,-3.0,-11.0,3.0,-2.0,-2.0,1650912151657523.0,0
1446,-2.0,-1.0,2.0,2.0,-7.0,-15.0,2.0,1.0,1650912151663840.0,0
1447,6.0,2.0,1.0,0.0,9.0,0.0,0.0,-2.0,1650912151663840.0,0
1448,0.0,-1.0,0.0,1.0,-3.0,-2.0,0.0,3.0,1650912151680189.0,0
1449,1.0,-1.0,-1.0,3.0,13.0,9.0,0.0,1.0,1650912151680189.0,0
1450,-4.0,-1.0,0.0,-1.0,0.0,16.0,-2.0,-2.0,1650912151681025.0,0
1451,4.0,0.0,0.0,1.0,-8.0,-6.0,0.0,-1.0,1650912151681025.0,0
1452,1.0,0.0,-3.0,-3.0,2.0,-11.0,-2.0,-1.0,1650912151709886.0,0
1453,-4.0,0.0,-1.0,-3.0,5.0,-10.0,-1.0,-1.0,1650912151709886.0,0
1454,2.0,0.0,2.0,-2.0,-16.0,-10.0,-2.0,0.0,1650912151710918.0,0
1455,-4.0,-1.0,2.0,3.0,12.0,14.0,1.0,1.0,1650912151710918.0,0
1456,-2.0,-1.0,-1.0,-1.0,6.0,-1.0,-1.0,0.0,1650912151716903.0,0
1457,-3.0,0.0,-2.0,-1.0,3.0,3.0,-2.0,-1.0,1650912151716903.0,0
1458,1.0,-1.0,-1.0,1.0,3.0,-5.0,-1.0,-1.0,1650912151724669.0,0
1459,-2.0,1.0,-1.0,0.0,-3.0,3.0,4.0,1.0,1650912151724669.0,0
1460,-2.0,-4.0,-3.0,0.0,-3.0,0.0,2.0,-1.0,1650912151740015.0,0
1461,0.0,-2.0,-1.0,-2.0,-9.0,-3.0,-3.0,-1.0,1650912151740015.0,0
1462,-1.0,1.0,2.0,3.0,15.0,2.0,1.0,-1.0,1650912151741049.0,0
1463,-3.0,-3.0,-3.0,2.0,-4.0,1.0,-1.0,0.0,1650912151741049.0,0
1464,3.0,1.0,-2.0,-4.0,1.0,2.0,1.0,0.0,1650912151763014.0,0
1465,0.0,-3.0,-1.0,-8.0,-29.0,-13.0,-3.0,-2.0,1650912151763014.0,0
1466,0.0,-1.0,0.0,-3.0,-9.0,-1.0,-4.0,-2.0,1650912151763854.0,0
1467,-4.0,-1.0,2.0,3.0,20.0,17.0,0.0,0.0,1650912151763854.0,0
1468,0.0,-1.0,-1.0,0.0,-2.0,-11.0,0.0,-1.0,1650912151776985.0,0
1469,0.0,2.0,0.0,0.0,-17.0,3.0,0.0,1.0,1650912151776985.0,0
1470,0.0,0.0,-2.0,-1.0,17.0,9.0,0.0,1.0,1650912151784603.0,0
1471,-1.0,1.0,1.0,-2.0,-29.0,-29.0,-2.0,-2.0,1650912151784603.0,0
1472,-2.0,-2.0,-7.0,1.0,10.0,-8.0,-2.0,0.0,1650912151800642.0,0
1473,0.0,-3.0,2.0,6.0,24.0,10.0,1.0,0.0,1650912151800642.0,0
1474,-1.0,1.0,5.0,5.0,7.0,14.0,2.0,-1.0,1650912151801481.0,0
1475,2.0,0.0,-8.0,-4.0,4.0,11.0,1.0,-1.0,1650912151801481.0,0
1476,-1.0,0.0,-2.0,-3.0,-6.0,3.0,0.0,-2.0,1650912151829982.0,0
1477,1.0,-1.0,-3.0,-4.0,-11.0,-17.0,-2.0,1.0,1650912151829982.0,0
1478,0.0,0.0,-2.0,-4.0,-4.0,-4.0,-2.0,0.0,1650912151830982.0,0
1479,-1.0,-2.0,1.0,3.0,-4.0,-3.0,-1.0,1.0,1650912151830982.0,0
1480,-1.0,-2.0,1.0,3.0,12.0,1.0,-2.0,0.0,1650912151837129.0,0
1481,-1.0,-1.0,-6.0,-3.0,-8.0,8.0,-2.0,0.0,1650912151837129.0,0
1482,-2.0,-3.0,-1.0,-3.0,-10.0,-13.0,1.0,0.0,1650912151844603.0,0
1483,2.0,3.0,0.0,0.0,14.0,-3.0,-1.0,-1.0,1650912151844603.0,0
1484,1.0,0.0,5.0,8.0,9.0,5.0,3.0,1.0,1650912151860022.0,0
1485,-1.0,1.0,4.0,-2.0,3.0,7.0,2.0,1.0,1650912151860022.0,0
1486,-2.0,-2.0,-6.0,-8.0,-37.0,-6.0,-4.0,-1.0,1650912151861022.0,0
1487,-2.0,-2.0,-2.0,0.0,12.0,-17.0,-3.0,-3.0,1650912151861022.0,0
1488,0.0,0.0,0.0,4.0,5.0,20.0,2.0,2.0,1650912151883125.0,0
1489,1.0,0.0,-1.0,4.0,19.0,-3.0,1.0,-2.0,1650912151883125.0,0
1490,0.0,-1.0,3.0,2.0,-4.0,-7.0,1.0,0.0,1650912151883970.0,0
1491,-2.0,-1.0,-1.0,-2.0,-5.0,0.0,1.0,0.0,1650912151883970.0,0
1492,-4.0,1.0,1.0,-2.0,-4.0,7.0,-2.0,-2.0,1650912151897295.0,0
1493,0.0,1.0,0.0,-5.0,-8.0,2.0,1.0,0.0,1650912151897295.0,0
1494,2.0,-1.0,-6.0,-7.0,10.0,3.0,-2.0,0.0,1650912151903832.0,0
1495,2.0,-2.0,-1.0,-5.0,-48.0,-16.0,-4.0,-1.0,1650912151903832.0,0
1496,-5.0,1.0,3.0,1.0,8.0,-11.0,-2.0,-2.0,1650912151920465.0,0
1497,-2.0,2.0,0.0,5.0,20.0,0.0,0.0,1.0,1650912151920465.0,0
1498,0.0,1.0,1.0,9.0,30.0,20.0,4.0,1.0,1650912151921308.0,0
1499,-1.0,-2.0,-2.0,-1.0,12.0,13.0,1.0,0.0,1650912151921308.0,0
1500,5.0,-1.0,-3.0,-10.0,-35.0,-13.0,-3.0,1.0,1650912151943171.0,0
1501,0.0,0.0,-2.0,-11.0,-31.0,-11.0,-5.0,-3.0,1650912151943171.0,0
1502,1.0,-2.0,0.0,1.0,4.0,-8.0,-2.0,-2.0,1650912151944012.0,0
1503,0.0,1.0,3.0,11.0,34.0,15.0,2.0,1.0,1650912151944012.0,0
1504,0.0,-1.0,1.0,3.0,-3.0,12.0,1.0,0.0,1650912151965437.0,0
1505,-2.0,-1.0,-1.0,3.0,16.0,-12.0,0.0,0.0,1650912151965437.0,0
1506,1.0,1.0,-1.0,-8.0,-14.0,-6.0,-2.0,-1.0,1650912151966437.0,0
1507,0.0,0.0,-2.0,-6.0,0.0,21.0,0.0,1.0,1650912151966437.0,0
1508,-2.0,-5.0,-3.0,0.0,-19.0,-17.0,-1.0,-2.0,1650912151987058.0,0
1509,3.0,1.0,1.0,4.0,7.0,-1.0,3.0,3.0,1650912151987058.0,0
1510,7.0,0.0,-1.0,-3.0,-6.0,-4.0,1.0,5.0,1650912151988905.0,0
1511,-8.0,-2.0,-6.0,-6.0,-19.0,-13.0,-2.0,-7.0,1650912151988905.0,0
1512,-1.0,2.0,0.0,-2.0,16.0,13.0,-4.0,-3.0,1650912152010002.0,0
1513,-4.0,-4.0,-1.0,0.0,-4.0,7.0,-5.0,-13.0,1650912152010002.0,0
1514,3.0,1.0,1.0,4.0,7.0,7.0,2.0,3.0,1650912152011003.0,0
1515,-2.0,0.0,2.0,0.0,-1.0,-7.0,8.0,7.0,1650912152011003.0,0
1516,0.0,3.0,1.0,0.0,-8.0,-6.0,2.0,4.0,1650912152015989.0,0
1517,1.0,-2.0,-3.0,-1.0,-2.0,-9.0,-9.0,-10.0,1650912152015989.0,0
1518,-7.0,-1.0,1.0,5.0,31.0,9.0,-1.0,1.0,1650912152024664.0,0
1519,4.0,-3.0,3.0,0.0,-5.0,6.0,3.0,6.0,1650912152024664.0,0
1520,3.0,0.0,-2.0,-4.0,1.0,1.0,1.0,11.0,1650912152039941.0,0
1521,3.0,4.0,0.0,-4.0,-16.0,1.0,-6.0,-7.0,1650912152039941.0,0
1522,-7.0,-2.0,-2.0,-2.0,-15.0,-11.0,-6.0,-19.0,1650912152040970.0,0
1523,2.0,-1.0,0.0,3.0,1.0,-8.0,7.0,13.0,1650912152040970.0,0
1524,16.0,0.0,3.0,-1.0,6.0,9.0,39.0,36.0,1650912152063200.0,0
1525,-10.0,-4.0,0.0,1.0,-2.0,-3.0,9.0,17.0,1650912152063200.0,0
1526,-13.0,-7.0,-6.0,-3.0,-12.0,-8.0,-55.0,-69.0,1650912152063675.0,0
1527,-4.0,3.0,-1.0,-1.0,7.0,-4.0,-23.0,-41.0,1650912152063675.0,0
1528,3.0,0.0,-2.0,-1.0,2.0,-1.0,13.0,17.0,1650912152076078.0,0
1529,7.0,3.0,4.0,4.0,4.0,13.0,15.0,25.0,1650912152076078.0,0
1530,-2.0,-1.0,1.0,1.0,4.0,0.0,4.0,-6.0,1650912152084803.0,0
1531,0.0,0.0,0.0,0.0,-4.0,-1.0,-8.0,-1.0,1650912152084803.0,0
1532,-5.0,-7.0,-4.0,-5.0,3.0,-3.0,-13.0,-18.0,1650912152099758.0,0
1533,4.0,3.0,0.0,-6.0,-16.0,4.0,10.0,12.0,1650912152099758.0,0
1534,-2.0,0.0,-4.0,3.0,12.0,-6.0,14.0,31.0,1650912152101754.0,0
1535,-1.0,-3.0,0.0,3.0,2.0,22.0,-1.0,-7.0,1650912152101754.0,0
1536,-4.0,-2.0,-1.0,1.0,-5.0,-19.0,-6.0,-7.0,1650912152123507.0,0
1537,2.0,2.0,-1.0,2.0,6.0,-3.0,-3.0,-1.0,1650912152123507.0,0
1538,3.0,-3.0,0.0,-2.0,1.0,-1.0,1.0,4.0,1650912152124101.0,0
1539,2.0,1.0,-1.0,-5.0,-14.0,-3.0,17.0,21.0,1650912152124101.0,0
1540,-2.0,-2.0,-4.0,-2.0,-9.0,0.0,-5.0,17.0,1650912152136266.0,0
1541,-6.0,3.0,1.0,2.0,5.0,0.0,-33.0,-76.0,1650912152136266.0,0
1542,1.0,3.0,-1.0,-2.0,-2.0,3.0,8.0,13.0,1650912152145446.0,0
1543,3.0,2.0,0.0,-3.0,1.0,-3.0,3.0,4.0,1650912152145446.0,0
1544,-11.0,-3.0,-1.0,2.0,-5.0,1.0,-3.0,7.0,1650912152160783.0,0
1545,3.0,-3.0,1.0,1.0,20.0,2.0,5.0,19.0,1650912152160783.0,0
1546,3.0,-2.0,0.0,0.0,-14.0,3.0,3.0,4.0,1650912152161656.0,0
1547,-1.0,-1.0,0.0,-2.0,-4.0,-7.0,6.0,3.0,1650912152161656.0,0
1548,3.0,2.0,2.0,0.0,6.0,-1.0,-17.0,-20.0,1650912152182836.0,0
1549,-5.0,1.0,0.0,4.0,8.0,7.0,5.0,2.0,1650912152182836.0,0
1550,-2.0,-1.0,-2.0,-1.0,1.0,3.0,7.0,7.0,1650912152183837.0,0
1551,5.0,1.0,-3.0,-9.0,-18.0,-23.0,2.0,18.0,1650912152183837.0,0
1552,-3.0,-1.0,-2.0,-4.0,-4.0,19.0,-5.0,-11.0,1650912152196516.0,0
1553,-7.0,-5.0,-2.0,0.0,6.0,-13.0,-7.0,-21.0,1650912152196516.0,0
1554,5.0,-1.0,0.0,3.0,-1.0,9.0,8.0,7.0,1650912152205156.0,0
1555,-2.0,-1.0,1.0,-4.0,-15.0,1.0,-3.0,0.0,1650912152205156.0,0
1556,14.0,1.0,-3.0,1.0,1.0,-5.0,-4.0,-10.0,1650912152220800.0,0
1557,-26.0,-1.0,-3.0,2.0,-4.0,-1.0,5.0,9.0,1650912152220800.0,0
1558,9.0,-5.0,-5.0,-1.0,-7.0,0.0,-4.0,-10.0,1650912152221831.0,0
1559,-4.0,0.0,5.0,3.0,10.0,21.0,-2.0,-3.0,1650912152221831.0,0
1560,6.0,1.0,1.0,-5.0,1.0,-17.0,-6.0,-9.0,1650912152243379.0,0
1561,3.0,-4.0,-6.0,-3.0,-14.0,1.0,-2.0,-5.0,1650912152243379.0,0
1562,-7.0,0.0,-1.0,-1.0,-1.0,-9.0,6.0,11.0,1650912152244387.0,0
1563,-5.0,0.0,-1.0,1.0,10.0,3.0,-9.0,-12.0,1650912152244387.0,0
1564,-4.0,-5.0,-8.0,-4.0,5.0,1.0,-3.0,-17.0,1650912152256699.0,0
1565,1.0,2.0,5.0,1.0,-5.0,-3.0,6.0,17.0,1650912152256699.0,0
1566,-3.0,-4.0,-4.0,0.0,-4.0,-3.0,-3.0,-1.0,1650912152265223.0,0
1567,4.0,2.0,-1.0,2.0,10.0,-2.0,3.0,2.0,1650912152265223.0,0
1568,-5.0,1.0,-2.0,3.0,-3.0,6.0,3.0,6.0,1650912152280822.0,0
1569,4.0,-10.0,-6.0,-7.0,12.0,-9.0,-7.0,-12.0,1650912152280822.0,0
1570,-11.0,3.0,8.0,-1.0,-20.0,11.0,4.0,1.0,1650912152281695.0,0
1571,3.0,0.0,1.0,6.0,12.0,-5.0,1.0,5.0,1650912152281695.0,0
1572,-2.0,-1.0,0.0,-4.0,-8.0,-10.0,-8.0,-17.0,1650912152302178.0,0
1573,-4.0,-4.0,-3.0,-9.0,-18.0,-4.0,2.0,3.0,1650912152302178.0,0
1574,5.0,-4.0,-1.0,2.0,5.0,-3.0,2.0,20.0,1650912152304013.0,0
1575,0.0,3.0,3.0,8.0,16.0,8.0,-10.0,-10.0,1650912152304013.0,0
1576,-1.0,3.0,2.0,6.0,13.0,19.0,5.0,4.0,1650912152316492.0,0
1577,8.0,-3.0,0.0,2.0,5.0,-9.0,0.0,6.0,1650912152316492.0,0
1578,2.0,9.0,4.0,-5.0,-6.0,-13.0,0.0,-7.0,1650912152325776.0,0
1579,-3.0,-13.0,-10.0,-11.0,-24.0,-6.0,-2.0,-2.0,1650912152325776.0,0
1580,-1.0,2.0,6.0,1.0,0.0,10.0,1.0,10.0,1650912152340019.0,0
1581,-1.0,-1.0,1.0,6.0,8.0,-3.0,0.0,1.0,1650912152340019.0,0
1582,7.0,3.0,-1.0,-1.0,10.0,-15.0,0.0,1.0,1650912152341053.0,0
1583,-2.0,-5.0,-8.0,0.0,-10.0,1.0,-3.0,-6.0,1650912152341053.0,0
1584,-4.0,-4.0,1.0,0.0,-4.0,3.0,2.0,0.0,1650912152363132.0,0
1585,2.0,-1.0,-1.0,-2.0,-5.0,14.0,3.0,5.0,1650912152363132.0,0
1586,5.0,3.0,5.0,1.0,-2.0,0.0,8.0,6.0,1650912152364164.0,0
1587,1.0,-2.0,-3.0,0.0,3.0,-8.0,-5.0,3.0,1650912152364164.0,0
1588,-4.0,-2.0,-5.0,-10.0,-14.0,-9.0,-10.0,-32.0,1650912152376456.0,0
1589,5.0,-3.0,-9.0,-3.0,-26.0,-10.0,-3.0,18.0,1650912152376456.0,0
1590,-1.0,0.0,2.0,4.0,20.0,5.0,-3.0,-3.0,1650912152384794.0,0
1591,-3.0,4.0,8.0,2.0,19.0,8.0,1.0,-2.0,1650912152384794.0,0
1592,-4.0,-6.0,-3.0,8.0,11.0,6.0,15.0,10.0,1650912152407943.0,0
1593,3.0,8.0,5.0,4.0,5.0,8.0,-6.0,-6.0,1650912152407943.0,0
1594,-9.0,-5.0,-6.0,-6.0,-27.0,-3.0,-4.0,2.0,1650912152408779.0,0
1595,-4.0,-2.0,1.0,-5.0,-17.0,7.0,2.0,2.0,1650912152408779.0,0
1596,-1.0,2.0,0.0,-1.0,10.0,-26.0,0.0,12.0,1650912152422759.0,0
1597,5.0,3.0,3.0,1.0,-5.0,3.0,8.0,4.0,1650912152422759.0,0
1598,1.0,-2.0,1.0,3.0,19.0,6.0,0.0,-1.0,1650912152423758.0,0
1599,1.0,-2.0,-2.0,-5.0,-20.0,-10.0,-6.0,-11.0,1650912152423758.0,0
1600,0.0,2.0,-1.0,-5.0,-17.0,-4.0,-1.0,8.0,1650912152444993.0,0
1601,3.0,2.0,4.0,2.0,5.0,9.0,1.0,1.0,1650912152444993.0,0
1602,1.0,-3.0,-3.0,0.0,7.0,10.0,-2.0,-9.0,1650912152445990.0,0
1603,-4.0,-1.0,-4.0,3.0,7.0,-2.0,3.0,-5.0,1650912152445990.0,0
1604,1.0,2.0,4.0,0.0,13.0,-2.0,-3.0,-4.0,1650912152460019.0,0
1605,-7.0,-5.0,-9.0,-5.0,-9.0,-5.0,-9.0,-18.0,1650912152460019.0,0
1606,6.0,5.0,4.0,0.0,-21.0,-2.0,1.0,1.0,1650912152461020.0,0
1607,-2.0,2.0,6.0,9.0,37.0,-2.0,4.0,-4.0,1650912152461020.0,0
1608,7.0,4.0,-1.0,5.0,9.0,7.0,-2.0,-5.0,1650912152483442.0,0
1609,-8.0,-6.0,-1.0,1.0,4.0,5.0,4.0,11.0,1650912152483442.0,0
1610,7.0,7.0,2.0,-10.0,-21.0,-2.0,3.0,8.0,1650912152483442.0,0
1611,-13.0,-6.0,-6.0,-9.0,-16.0,-24.0,-5.0,-1.0,1650912152483442.0,0
1612,-4.0,-4.0,-5.0,-3.0,-14.0,-11.0,-11.0,-9.0,1650912152505138.0,0
1613,4.0,2.0,7.0,4.0,17.0,15.0,6.0,8.0,1650912152505138.0,0
1614,-2.0,-6.0,0.0,7.0,10.0,12.0,6.0,1.0,1650912152506137.0,0
1615,3.0,-12.0,-5.0,-1.0,10.0,6.0,8.0,25.0,1650912152506137.0,0
1616,-6.0,-4.0,-3.0,-5.0,-6.0,-7.0,-16.0,-34.0,1650912152520025.0,0
1617,-7.0,-3.0,-4.0,-14.0,-28.0,-25.0,-10.0,-12.0,1650912152520025.0,0
1618,-5.0,-5.0,-5.0,-2.0,-3.0,2.0,-2.0,3.0,1650912152521026.0,0
1619,5.0,5.0,3.0,8.0,7.0,11.0,0.0,-1.0,1650912152521026.0,0
1620,-1.0,-2.0,0.0,6.0,4.0,2.0,5.0,7.0,1650912152542381.0,0
1621,14.0,5.0,2.0,-3.0,0.0,0.0,1.0,-3.0,1650912152542381.0,0
1622,-5.0,8.0,12.0,0.0,13.0,-15.0,-6.0,-2.0,1650912152544242.0,0
1623,-4.0,-8.0,-9.0,-2.0,-15.0,0.0,-2.0,0.0,1650912152544242.0,0
1624,3.0,-3.0,0.0,2.0,3.0,7.0,6.0,12.0,1650912152566155.0,0
1625,6.0,13.0,12.0,11.0,28.0,13.0,5.0,-3.0,1650912152566155.0,0
1626,2.0,-10.0,-11.0,3.0,5.0,11.0,2.0,-1.0,1650912152566342.0,0
1627,-7.0,1.0,-2.0,-10.0,-21.0,8.0,-3.0,-6.0,1650912152566342.0,0
1628,0.0,-1.0,-1.0,-8.0,-12.0,-30.0,-4.0,-3.0,1650912152579291.0,0
1629,-8.0,-7.0,1.0,-6.0,-25.0,-12.0,3.0,5.0,1650912152579291.0,0
1630,4.0,11.0,-9.0,-2.0,-2.0,-4.0,-1.0,12.0,1650912152586174.0,0
1631,-3.0,-8.0,-6.0,2.0,10.0,5.0,-11.0,-22.0,1650912152586174.0,0
1632,1.0,6.0,14.0,8.0,2.0,23.0,6.0,8.0,1650912152602882.0,0
1633,0.0,-4.0,-11.0,-5.0,-1.0,-5.0,-1.0,-14.0,1650912152602882.0,0
1634,-3.0,-14.0,-4.0,-5.0,-8.0,-4.0,4.0,13.0,1650912152603882.0,0
1635,9.0,9.0,2.0,6.0,1.0,-10.0,2.0,-1.0,1650912152603882.0,0
1636,-3.0,0.0,5.0,1.0,11.0,3.0,1.0,0.0,1650912152625855.0,0
1637,3.0,2.0,1.0,2.0,4.0,0.0,1.0,16.0,1650912152625855.0,0
1638,-3.0,-2.0,0.0,-5.0,-16.0,-12.0,-8.0,-16.0,1650912152626020.0,0
1639,1.0,2.0,1.0,-10.0,-19.0,2.0,0.0,-5.0,1650912152626020.0,0
1640,-1.0,1.0,-3.0,-1.0,2.0,-3.0,0.0,3.0,1650912152639836.0,0
1641,-2.0,-1.0,0.0,7.0,2.0,-4.0,1.0,4.0,1650912152639836.0,0
1642,-2.0,-1.0,0.0,2.0,12.0,10.0,0.0,-5.0,1650912152645826.0,0
1643,2.0,6.0,7.0,5.0,15.0,13.0,7.0,5.0,1650912152645826.0,0
1644,1.0,-4.0,-7.0,1.0,8.0,3.0,5.0,9.0,1650912152662156.0,0
1645,1.0,1.0,-3.0,-11.0,-12.0,-3.0,-1.0,-3.0,1650912152662156.0,0
1646,-2.0,2.0,0.0,-5.0,-6.0,-18.0,-6.0,15.0,1650912152663988.0,0
1647,7.0,-2.0,-2.0,-4.0,-12.0,-5.0,-5.0,-4.0,1650912152663988.0,0
1648,-12.0,1.0,7.0,2.0,-3.0,0.0,-5.0,-13.0,1650912152685422.0,0
1649,1.0,-18.0,-15.0,-2.0,10.0,4.0,4.0,-1.0,1650912152685422.0,0
1650,1.0,8.0,7.0,-1.0,-3.0,4.0,-2.0,-13.0,1650912152686323.0,0
1651,6.0,4.0,1.0,-1.0,-11.0,-9.0,-1.0,5.0,1650912152686323.0,0
1652,-1.0,-4.0,-4.0,1.0,3.0,-1.0,4.0,19.0,1650912152699333.0,0
1653,-4.0,3.0,0.0,1.0,16.0,12.0,-8.0,-19.0,1650912152699333.0,0
1654,-6.0,-7.0,-2.0,-7.0,-27.0,-24.0,-2.0,-6.0,1650912152706318.0,0
1655,-4.0,-7.0,-4.0,0.0,-7.0,-1.0,-1.0,-1.0,1650912152706318.0,0
1656,0.0,8.0,4.0,4.0,14.0,15.0,0.0,1.0,1650912152722632.0,0
1657,6.0,4.0,3.0,5.0,22.0,13.0,6.0,-4.0,1650912152722632.0,0
1658,5.0,-3.0,-3.0,2.0,18.0,14.0,6.0,15.0,1650912152723587.0,0
1659,0.0,6.0,3.0,-4.0,-15.0,-20.0,-1.0,2.0,1650912152723587.0,0
1660,-9.0,-14.0,-7.0,-6.0,-10.0,-7.0,-9.0,-21.0,1650912152745004.0,0
1661,4.0,2.0,-1.0,-3.0,-18.0,-3.0,-2.0,-4.0,1650912152745004.0,0
1662,-1.0,0.0,2.0,-1.0,-7.0,4.0,-1.0,-8.0,1650912152746490.0,0
1663,3.0,6.0,9.0,5.0,18.0,6.0,3.0,6.0,1650912152746490.0,0
1664,12.0,15.0,0.0,4.0,3.0,8.0,8.0,10.0,1650912152759709.0,0
1665,-14.0,-5.0,6.0,3.0,9.0,-12.0,-6.0,-7.0,1650912152759709.0,0
1666,1.0,-5.0,-10.0,-3.0,0.0,10.0,-4.0,-8.0,1650912152773929.0,0
1667,-1.0,-5.0,-5.0,-6.0,-8.0,-9.0,-2.0,11.0,1650912152773929.0,0
1668,-2.0,2.0,-2.0,-10.0,-29.0,-14.0,3.0,0.0,1650912152783064.0,0
1669,-4.0,-5.0,-3.0,0.0,-4.0,0.0,-6.0,8.0,1650912152783064.0,0
1670,1.0,7.0,7.0,10.0,21.0,8.0,-1.0,-13.0,1650912152784148.0,0
1671,-12.0,-16.0,-8.0,1.0,17.0,15.0,11.0,14.0,1650912152784148.0,0
1672,7.0,-5.0,-10.0,-4.0,3.0,1.0,-3.0,12.0,1650912152805337.0,0
1673,1.0,5.0,6.0,-3.0,-29.0,-12.0,2.0,12.0,1650912152805337.0,0
1674,-3.0,-11.0,-11.0,-1.0,-1.0,-10.0,0.0,-2.0,1650912152806337.0,0
1675,1.0,17.0,15.0,0.0,12.0,11.0,-6.0,-10.0,1650912152806337.0,0
1676,-4.0,-16.0,-2.0,-3.0,-21.0,-11.0,0.0,-2.0,1650912152820027.0,0
1677,-4.0,-5.0,-10.0,-3.0,-6.0,-4.0,-2.0,2.0,1650912152820027.0,0
1678,0.0,1.0,1.0,3.0,-4.0,2.0,3.0,6.0,1650912152826347.0,0
1679,0.0,4.0,4.0,4.0,9.0,5.0,1.0,-8.0,1650912152826347.0,0
1680,-1.0,1.0,-3.0,-3.0,3.0,3.0,-2.0,1.0,1650912152842510.0,0
1681,1.0,2.0,10.0,5.0,19.0,-5.0,2.0,0.0,1650912152842510.0,0
1682,6.0,1.0,-2.0,3.0,20.0,3.0,3.0,-1.0,1650912152844349.0,0
1683,-10.0,-8.0,-10.0,-5.0,-18.0,-13.0,-2.0,-6.0,1650912152844349.0,0
1684,5.0,8.0,3.0,-3.0,-15.0,-12.0,-1.0,4.0,1650912152865400.0,0
1685,3.0,-21.0,-13.0,-9.0,-12.0,8.0,3.0,15.0,1650912152865400.0,0
1686,-11.0,8.0,10.0,9.0,5.0,-3.0,-7.0,-36.0,1650912152866867.0,0
1687,2.0,2.0,-2.0,8.0,22.0,9.0,4.0,10.0,1650912152866867.0,0
1688,0.0,-10.0,3.0,-3.0,-1.0,1.0,-9.0,-24.0,1650912152879031.0,0
1689,2.0,14.0,7.0,-4.0,-15.0,-1.0,2.0,6.0,1650912152879031.0,0
1690,-5.0,-15.0,-12.0,-11.0,-15.0,-6.0,-3.0,-8.0,1650912152886384.0,0
1691,4.0,2.0,1.0,-2.0,8.0,-8.0,-3.0,-3.0,1650912152886384.0,0
1692,-8.0,-3.0,-3.0,5.0,-6.0,3.0,0.0,-15.0,1650912152903272.0,0
1693,1.0,2.0,5.0,7.0,24.0,19.0,6.0,-3.0,1650912152903272.0,0
1694,0.0,-1.0,4.0,1.0,8.0,4.0,2.0,6.0,1650912152904272.0,0
1695,1.0,3.0,-3.0,-6.0,-30.0,-16.0,-6.0,-7.0,1650912152904272.0,0
1696,-6.0,-9.0,-2.0,-5.0,5.0,-3.0,0.0,7.0,1650912152924622.0,0
1697,6.0,-6.0,-6.0,3.0,11.0,3.0,0.0,-1.0,1650912152924622.0,0
1698,2.0,16.0,11.0,8.0,9.0,4.0,6.0,12.0,1650912152926459.0,0
1699,-4.0,-8.0,-8.0,-9.0,-11.0,-5.0,-4.0,-18.0,1650912152926459.0,0
1700,-2.0,-10.0,-7.0,-3.0,-15.0,-7.0,-1.0,-2.0,1650912152938750.0,0
1701,-1.0,4.0,-1.0,-1.0,-11.0,-13.0,-5.0,-5.0,1650912152938750.0,0
1702,3.0,-1.0,0.0,4.0,14.0,9.0,0.0,-5.0,1650912152947792.0,0
1703,3.0,-1.0,4.0,5.0,13.0,6.0,11.0,11.0,1650912152947792.0,0
1704,-2.0,9.0,-1.0,0.0,-2.0,5.0,-7.0,-7.0,1650912152963151.0,0
1705,-3.0,5.0,5.0,-1.0,2.0,-1.0,-4.0,-5.0,1650912152963151.0,0
1706,0.0,-6.0,-4.0,-7.0,1.0,0.0,1.0,8.0,1650912152964184.0,0
1707,-3.0,-6.0,-5.0,0.0,-13.0,3.0,0.0,-4.0,1650912152964184.0,0
1708,3.0,6.0,7.0,1.0,-3.0,-14.0,4.0,8.0,1650912152985357.0,0
1709,1.0,3.0,-1.0,0.0,11.0,-11.0,-1.0,3.0,1650912152985357.0,0
1710,-2.0,-6.0,10.0,2.0,-20.0,2.0,0.0,3.0,1650912152986357.0,0
1711,10.0,-10.0,-3.0,3.0,20.0,19.0,1.0,-5.0,1650912152986357.0,0
1712,-5.0,4.0,0.0,4.0,3.0,-3.0,4.0,15.0,1650912152998862.0,0
1713,-7.0,3.0,3.0,-4.0,-21.0,-15.0,-3.0,-18.0,1650912152998862.0,0
1714,-2.0,-22.0,-12.0,-7.0,5.0,0.0,-4.0,-7.0,1650912153007700.0,0
1715,-2.0,6.0,1.0,1.0,17.0,10.0,1.0,11.0,1650912153007700.0,0
1716,3.0,5.0,5.0,-4.0,-19.0,-2.0,-6.0,-24.0,1650912153022887.0,0
1717,-6.0,-8.0,-3.0,1.0,-1.0,0.0,0.0,-1.0,1650912153022887.0,0
1718,3.0,8.0,-5.0,0.0,6.0,-8.0,-1.0,3.0,1650912153023849.0,0
1719,-2.0,-7.0,3.0,4.0,-4.0,-2.0,1.0,7.0,1650912153023849.0,0
1720,0.0,3.0,-2.0,-4.0,10.0,-1.0,-3.0,-9.0,1650912153045443.0,0
1721,-4.0,-9.0,-8.0,-8.0,-20.0,-7.0,-2.0,11.0,1650912153045443.0,0
1722,5.0,6.0,2.0,1.0,-18.0,7.0,0.0,-4.0,1650912153053620.0,0
1723,-6.0,7.0,5.0,0.0,17.0,3.0,-4.0,-9.0,1650912153053620.0,0
1724,4.0,8.0,5.0,2.0,3.0,-3.0,5.0,9.0,1650912153058861.0,0
1725,4.0,5.0,0.0,3.0,33.0,4.0,2.0,3.0,1650912153058861.0,0
1726,-5.0,-11.0,-4.0,-1.0,-10.0,0.0,0.0,5.0,1650912153074512.0,0
1727,-4.0,3.0,-1.0,0.0,1.0,-5.0,-4.0,-13.0,1650912153074512.0,0
1728,2.0,-7.0,-7.0,-2.0,0.0,11.0,4.0,21.0,1650912153082150.0,0
1729,0.0,9.0,6.0,4.0,-12.0,-3.0,2.0,-4.0,1650912153082150.0,0
1730,5.0,12.0,2.0,-2.0,3.0,-12.0,-4.0,29.0,1650912153084014.0,0
1731,-5.0,-9.0,-10.0,-9.0,-22.0,-4.0,-12.0,-18.0,1650912153084014.0,0
1732,11.0,-4.0,-6.0,2.0,26.0,10.0,3.0,11.0,1650912153104928.0,0
1733,-14.0,-4.0,1.0,2.0,0.0,10.0,-1.0,-20.0,1650912153104928.0,0
1734,3.0,7.0,3.0,-3.0,1.0,0.0,8.0,11.0,1650912153105924.0,0
1735,-1.0,0.0,-1.0,2.0,-3.0,-6.0,2.0,6.0,1650912153105924.0,0
1736,0.0,-2.0,3.0,1.0,-8.0,3.0,-2.0,1.0,1650912153119537.0,0
1737,7.0,4.0,2.0,-5.0,-15.0,-9.0,-1.0,13.0,1650912153119537.0,0
1738,-5.0,7.0,-1.0,3.0,18.0,-11.0,-1.0,-11.0,1650912153127884.0,0
1739,0.0,-8.0,-2.0,-1.0,-14.0,7.0,2.0,11.0,1650912153127884.0,0
1740,-6.0,-9.0,-5.0,-6.0,4.0,-9.0,-3.0,-17.0,1650912153143212.0,0
1741,1.0,1.0,-4.0,0.0,-12.0,20.0,3.0,-2.0,1650912153143212.0,0
1742,-1.0,6.0,0.0,1.0,19.0,3.0,-2.0,-14.0,1650912153144267.0,0
1743,9.0,6.0,2.0,2.0,6.0,-6.0,4.0,6.0,1650912153144267.0,0
1744,-6.0,-8.0,-4.0,3.0,-4.0,-6.0,-1.0,-7.0,1650912153165691.0,0
1745,1.0,0.0,6.0,0.0,2.0,0.0,-3.0,3.0,1650912153165691.0,0
1746,-2.0,-7.0,-9.0,-6.0,-15.0,-4.0,-6.0,-12.0,1650912153166410.0,0
1747,0.0,9.0,17.0,6.0,-4.0,-6.0,0.0,-1.0,1650912153166410.0,0
1748,2.0,-6.0,-13.0,-1.0,14.0,13.0,-1.0,4.0,1650912153179621.0,0
1749,-3.0,0.0,-2.0,0.0,3.0,2.0,4.0,-4.0,1650912153179621.0,0
1750,6.0,-5.0,1.0,-2.0,-10.0,0.0,-3.0,4.0,1650912153187795.0,0
1751,-18.0,-1.0,-5.0,-6.0,-9.0,-1.0,-6.0,-9.0,1650912153187795.0,0
1752,1.0,16.0,12.0,-2.0,-4.0,-19.0,-3.0,-4.0,1650912153203056.0,0
1753,2.0,-29.0,-21.0,-1.0,-10.0,-8.0,-5.0,3.0,1650912153203056.0,0
1754,3.0,0.0,7.0,2.0,11.0,4.0,1.0,0.0,1650912153204056.0,0
1755,1.0,3.0,2.0,-1.0,22.0,4.0,2.0,0.0,1650912153204056.0,0
1756,-1.0,-1.0,6.0,3.0,-20.0,19.0,2.0,-7.0,1650912153225929.0,0
1757,-4.0,-5.0,-11.0,-9.0,8.0,-7.0,-3.0,28.0,1650912153225929.0,0
1758,2.0,4.0,6.0,2.0,-21.0,-6.0,0.0,-7.0,1650912153225991.0,0
1759,4.0,-16.0,-7.0,2.0,7.0,-2.0,7.0,12.0,1650912153225991.0,0
1760,-3.0,-1.0,-1.0,0.0,23.0,8.0,-4.0,-4.0,1650912153238177.0,0
1761,4.0,2.0,-1.0,-2.0,-6.0,-5.0,-1.0,-9.0,1650912153238177.0,0
1762,-9.0,-8.0,-4.0,-4.0,-3.0,-4.0,-1.0,4.0,1650912153247301.0,0
1763,4.0,8.0,3.0,2.0,0.0,1.0,6.0,7.0,1650912153247301.0,0
1764,0.0,3.0,2.0,6.0,7.0,4.0,5.0,8.0,1650912153262852.0,0
1765,0.0,6.0,2.0,-4.0,3.0,-2.0,-4.0,-8.0,1650912153262852.0,0
1766,-6.0,-4.0,-8.0,-9.0,-16.0,-6.0,-7.0,-5.0,1650912153263635.0,0
1767,1.0,-3.0,-5.0,-4.0,-19.0,-4.0,-5.0,-1.0,1650912153263635.0,0
1768,-3.0,-3.0,3.0,0.0,-1.0,-2.0,-2.0,-8.0,1650912153285449.0,0
1769,1.0,6.0,5.0,6.0,20.0,13.0,1.0,-2.0,1650912153285449.0,0
1770,-3.0,-5.0,-2.0,4.0,18.0,8.0,7.0,2.0,1650912153286863.0,0
1771,3.0,4.0,5.0,-5.0,-9.0,-11.0,-4.0,0.0,1650912153286863.0,0
1772,3.0,0.0,-5.0,-5.0,-20.0,-5.0,-2.0,3.0,1650912153298776.0,0
1773,-18.0,-4.0,-1.0,-1.0,2.0,1.0,-2.0,1.0,1650912153298776.0,0
1774,-5.0,-5.0,-6.0,-5.0,-8.0,5.0,0.0,-3.0,1650912153307223.0,0
1775,2.0,1.0,0.0,2.0,-10.0,-9.0,-1.0,0.0,1650912153307223.0,0
1776,2.0,6.0,7.0,6.0,10.0,-2.0,1.0,5.0,1650912153329991.0,0
1777,3.0,4.0,4.0,7.0,24.0,13.0,-3.0,-16.0,1650912153329991.0,0
1778,1.0,-3.0,-3.0,1.0,2.0,6.0,3.0,4.0,1650912153331022.0,0
1779,-4.0,-2.0,-3.0,-6.0,-10.0,7.0,-1.0,-4.0,1650912153331022.0,0
1780,-2.0,-5.0,-5.0,-4.0,-12.0,-17.0,5.0,4.0,1650912153345004.0,0
1781,4.0,3.0,-2.0,-6.0,-13.0,-6.0,-9.0,0.0,1650912153345004.0,0
1782,-1.0,6.0,4.0,-2.0,-9.0,4.0,-5.0,-4.0,1650912153352163.0,0
1783,1.0,-3.0,-1.0,3.0,19.0,11.0,1.0,-1.0,1650912153352163.0,0
1784,0.0,2.0,1.0,-1.0,4.0,4.0,2.0,2.0,1650912153368473.0,0
1785,2.0,-1.0,3.0,-1.0,-11.0,-6.0,4.0,4.0,1650912153368473.0,0
1786,-2.0,-1.0,-6.0,-5.0,-14.0,-10.0,-3.0,-4.0,1650912153369342.0,0
1787,-1.0,-1.0,-3.0,4.0,12.0,-7.0,-2.0,0.0,1650912153369342.0,0
1788,-2.0,-1.0,5.0,3.0,12.0,8.0,-1.0,-3.0,1650912153383478.0,0
1789,2.0,1.0,1.0,-4.0,7.0,4.0,-1.0,0.0,1650912153383478.0,0
1790,1.0,-1.0,1.0,-2.0,-28.0,0.0,-2.0,-2.0,1650912153383478.0,0
1791,0.0,1.0,-2.0,3.0,17.0,-10.0,1.0,-1.0,1650912153383478.0,0
1792,-2.0,-5.0,-5.0,2.0,11.0,8.0,1.0,-1.0,1650912153404667.0,0
1793,2.0,2.0,0.0,-3.0,-14.0,-4.0,1.0,2.0,1650912153404667.0,0
1794,-2.0,-2.0,2.0,-4.0,0.0,2.0,-1.0,0.0,1650912153406695.0,0
1795,-2.0,-1.0,-3.0,-3.0,-2.0,9.0,-5.0,-2.0,1650912153406695.0,0
1796,-2.0,-4.0,-4.0,-3.0,-10.0,-14.0,-4.0,-2.0,1650912153428166.0,0
1797,-1.0,-1.0,1.0,1.0,-5.0,-6.0,3.0,1.0,1650912153428166.0,0
1798,0.0,0.0,1.0,3.0,19.0,-2.0,3.0,1.0,1650912153429032.0,0
1799,-2.0,1.0,0.0,3.0,6.0,12.0,-1.0,-1.0,1650912153429032.0,0
1800,2.0,3.0,2.0,-1.0,-10.0,10.0,0.0,1.0,1650912153443012.0,0
1801,2.0,0.0,0.0,2.0,-7.0,-4.0,-6.0,0.0,1650912153443012.0,0
1802,-1.0,-3.0,-4.0,-2.0,3.0,-1.0,5.0,0.0,1650912153444047.0,0
1803,0.0,-1.0,1.0,-5.0,-12.0,-17.0,-5.0,-3.0,1650912153444047.0,0
1804,0.0,-2.0,-2.0,-4.0,-1.0,4.0,4.0,-1.0,1650912153465614.0,0
1805,8.0,-2.0,-1.0,2.0,6.0,11.0,2.0,3.0,1650912153465614.0,0
1806,-2.0,0.0,1.0,3.0,11.0,-8.0,-5.0,-1.0,1650912153466299.0,0
1807,1.0,0.0,1.0,-3.0,-18.0,0.0,0.0,0.0,1650912153466299.0,0
1808,-3.0,-2.0,-3.0,-2.0,2.0,-11.0,-6.0,-2.0,1650912153487342.0,0
1809,-1.0,-1.0,-2.0,1.0,-4.0,15.0,0.0,-3.0,1650912153487342.0,0
1810,2.0,3.0,4.0,5.0,13.0,3.0,5.0,3.0,1650912153489266.0,0
1811,-1.0,0.0,0.0,-4.0,-11.0,-2.0,0.0,0.0,1650912153489266.0,0
1812,-1.0,-3.0,-3.0,-3.0,-15.0,-8.0,-2.0,-1.0,1650912153501447.0,0
1813,-3.0,-2.0,-1.0,1.0,16.0,-2.0,0.0,-1.0,1650912153501447.0,0
1814,0.0,1.0,-2.0,-2.0,3.0,2.0,-3.0,-1.0,1650912153508562.0,0
1815,-2.0,2.0,-1.0,-3.0,-23.0,2.0,0.0,-1.0,1650912153508562.0,0
1816,-1.0,-1.0,-1.0,3.0,20.0,-6.0,2.0,-1.0,1650912153524981.0,0
1817,-1.0,0.0,2.0,5.0,17.0,5.0,2.0,1.0,1650912153524981.0,0
1818,-1.0,-2.0,0.0,-1.0,-3.0,-4.0,-2.0,-1.0,1650912153526013.0,0
1819,1.0,-2.0,-5.0,-6.0,-25.0,-10.0,-2.0,-1.0,1650912153526013.0,0
1820,-2.0,-2.0,-2.0,-9.0,-21.0,-10.0,-6.0,-2.0,1650912153547634.0,0
1821,-2.0,-1.0,10.0,5.0,-23.0,11.0,4.0,-1.0,1650912153547634.0,0
1822,1.0,1.0,-5.0,7.0,35.0,17.0,5.0,3.0,1650912153548473.0,0
1823,-3.0,-2.0,-8.0,-6.0,6.0,6.0,4.0,1.0,1650912153548473.0,0
1824,0.0,1.0,3.0,1.0,0.0,-8.0,-5.0,1.0,1650912153562676.0,0
1825,-2.0,0.0,-5.0,-3.0,-1.0,-10.0,-1.0,-2.0,1650912153562676.0,0
1826,-1.0,-2.0,3.0,-2.0,-19.0,-10.0,-6.0,-3.0,1650912153568904.0,0
1827,-1.0,0.0,0.0,1.0,3.0,-2.0,-2.0,-3.0,1650912153568904.0,0
1828,0.0,-1.0,2.0,4.0,16.0,11.0,2.0,0.0,1650912153585487.0,0
1829,1.0,0.0,-6.0,-1.0,8.0,6.0,2.0,2.0,1650912153585487.0,0
1830,10.0,1.0,3.0,-2.0,-6.0,-6.0,0.0,0.0,1650912153586255.0,0
1831,-8.0,0.0,-2.0,0.0,0.0,-8.0,-1.0,1.0,1650912153586255.0,0
1832,1.0,1.0,0.0,-1.0,-19.0,4.0,0.0,-1.0,1650912153608351.0,0
1833,1.0,1.0,10.0,9.0,5.0,-16.0,0.0,-1.0,1650912153608351.0,0
1834,-1.0,-4.0,-4.0,-7.0,11.0,11.0,-1.0,-2.0,1650912153609194.0,0
1835,1.0,-4.0,-14.0,-7.0,7.0,13.0,-2.0,-2.0,1650912153609194.0,0
1836,-3.0,0.0,2.0,-3.0,1.0,-12.0,-1.0,-2.0,1650912153622498.0,0
1837,-1.0,-2.0,-2.0,-3.0,-6.0,-1.0,2.0,1.0,1650912153622498.0,0
1838,-4.0,2.0,3.0,4.0,-8.0,-6.0,-1.0,-1.0,1650912153630642.0,0
1839,3.0,0.0,8.0,3.0,0.0,-6.0,-2.0,-2.0,1650912153630642.0,0
1840,-3.0,0.0,-5.0,-3.0,4.0,22.0,1.0,-1.0,1650912153645852.0,0
1841,1.0,-2.0,-6.0,-1.0,-10.0,-8.0,-1.0,-2.0,1650912153645852.0,0
1842,-3.0,-2.0,2.0,1.0,10.0,2.0,3.0,2.0,1650912153646888.0,0
1843,1.0,-1.0,2.0,7.0,8.0,1.0,1.0,1.0,1650912153646888.0,0
1844,-1.0,-1.0,-4.0,-2.0,2.0,-5.0,-2.0,-4.0,1650912153667137.0,0
1845,0.0,0.0,0.0,-4.0,-4.0,-7.0,-1.0,2.0,1650912153667137.0,0
1846,-3.0,0.0,-2.0,-3.0,-5.0,-3.0,-3.0,-1.0,1650912153683489.0,0
1847,0.0,0.0,2.0,1.0,5.0,5.0,0.0,-1.0,1650912153683489.0,0
1848,0.0,0.0,-1.0,2.0,6.0,0.0,1.0,1.0,1650912153684697.0,0
1849,-1.0,0.0,-2.0,-3.0,6.0,-2.0,1.0,0.0,1650912153684697.0,0
1850,-3.0,-2.0,1.0,-1.0,-16.0,17.0,1.0,1.0,1650912153688724.0,0
1851,1.0,1.0,0.0,1.0,5.0,-19.0,0.0,-1.0,1650912153688724.0,0
1852,0.0,-1.0,0.0,-1.0,-10.0,-1.0,-1.0,-1.0,1650912153705003.0,0
1853,-3.0,-1.0,-5.0,-5.0,-8.0,-5.0,-4.0,-2.0,1650912153705003.0,0
1854,2.0,2.0,3.0,5.0,2.0,2.0,0.0,-1.0,1650912153706032.0,0
1855,-2.0,0.0,-4.0,3.0,20.0,16.0,0.0,-2.0,1650912153706032.0,0
1856,1.0,-2.0,-3.0,-1.0,6.0,8.0,3.0,0.0,1650912153727555.0,0
1857,-1.0,0.0,5.0,2.0,-1.0,-8.0,0.0,-1.0,1650912153727555.0,0
1858,0.0,-3.0,-8.0,-9.0,-30.0,-7.0,-1.0,-2.0,1650912153728589.0,0
1859,-2.0,0.0,11.0,1.0,-6.0,-12.0,-2.0,-3.0,1650912153728589.0,0
1860,1.0,-1.0,1.0,6.0,19.0,9.0,4.0,2.0,1650912153741847.0,0
1861,-1.0,-1.0,-4.0,-3.0,17.0,4.0,-1.0,0.0,1650912153741847.0,0
1862,1.0,-1.0,-3.0,3.0,-8.0,-1.0,-1.0,1.0,1650912153748821.0,0
1863,6.0,-1.0,6.0,4.0,18.0,6.0,2.0,0.0,1650912153748821.0,0
1864,-16.0,-1.0,-9.0,-8.0,-27.0,-7.0,-1.0,-1.0,1650912153764943.0,0
1865,-3.0,-5.0,-1.0,-4.0,-21.0,-17.0,-7.0,-4.0,1650912153764943.0,0
1866,-1.0,0.0,-1.0,3.0,18.0,-7.0,-3.0,-1.0,1650912153765972.0,0
1867,0.0,2.0,4.0,8.0,9.0,3.0,4.0,2.0,1650912153765972.0,0
1868,2.0,2.0,5.0,4.0,11.0,3.0,2.0,3.0,1650912153787252.0,0
1869,2.0,0.0,-3.0,-1.0,-7.0,8.0,2.0,-2.0,1650912153787252.0,0
1870,-4.0,-1.0,-6.0,-6.0,-6.0,-13.0,-4.0,0.0,1650912153789085.0,0
1871,-1.0,-2.0,1.0,3.0,-8.0,1.0,-1.0,-1.0,1650912153789085.0,0
1872,0.0,-4.0,-11.0,-11.0,-1.0,4.0,-1.0,-1.0,1650912153802185.0,0
1873,-4.0,-2.0,-8.0,-6.0,-6.0,-1.0,-3.0,0.0,1650912153802185.0,0
1874,2.0,1.0,5.0,1.0,9.0,2.0,0.0,-1.0,1650912153809279.0,0
1875,-2.0,-3.0,1.0,-3.0,-3.0,2.0,-3.0,-2.0,1650912153809279.0,0
1876,3.0,1.0,4.0,4.0,-15.0,-10.0,-1.0,1.0,1650912153825534.0,0
1877,1.0,2.0,0.0,4.0,11.0,4.0,1.0,-1.0,1650912153825534.0,0
1878,-1.0,-3.0,-1.0,1.0,29.0,-5.0,-1.0,-1.0,1650912153826564.0,0
1879,-1.0,-2.0,-4.0,-4.0,-36.0,0.0,-2.0,0.0,1650912153826564.0,0
1880,1.0,-1.0,-1.0,1.0,-2.0,-12.0,-2.0,-1.0,1650912153847789.0,0
1881,0.0,1.0,0.0,3.0,13.0,10.0,3.0,1.0,1650912153847789.0,0
1882,1.0,3.0,6.0,5.0,9.0,11.0,3.0,1.0,1650912153848656.0,0
1883,0.0,0.0,-3.0,-1.0,-13.0,-9.0,1.0,2.0,1650912153848656.0,0
1884,0.0,-4.0,-9.0,-5.0,3.0,2.0,-4.0,-3.0,1650912153861621.0,0
1885,-1.0,-2.0,0.0,-1.0,2.0,-1.0,-2.0,-3.0,1650912153861621.0,0
1886,-1.0,-2.0,-2.0,-4.0,-13.0,-2.0,0.0,-1.0,1650912153869757.0,0
1887,-1.0,-1.0,0.0,-5.0,-3.0,-3.0,-4.0,0.0,1650912153869757.0,0
1888,2.0,2.0,8.0,4.0,-10.0,-5.0,0.0,-1.0,1650912153885910.0,0
1889,0.0,0.0,1.0,1.0,9.0,-1.0,-1.0,0.0,1650912153885910.0,0
1890,-3.0,-4.0,-5.0,-3.0,1.0,2.0,0.0,-1.0,1650912153886910.0,0
1891,0.0,2.0,0.0,1.0,4.0,3.0,2.0,0.0,1650912153886910.0,0
1892,0.0,-1.0,-1.0,-2.0,8.0,13.0,-1.0,-1.0,1650912153908161.0,0
1893,-2.0,-1.0,-3.0,-4.0,14.0,-1.0,-2.0,-2.0,1650912153908161.0,0
1894,-1.0,3.0,2.0,5.0,-24.0,-9.0,2.0,0.0,1650912153909161.0,0
1895,0.0,0.0,-3.0,-2.0,14.0,1.0,2.0,0.0,1650912153909161.0,0
1896,-1.0,1.0,3.0,4.0,12.0,2.0,1.0,1.0,1650912153930010.0,0
1897,1.0,-1.0,2.0,1.0,-5.0,8.0,0.0,1.0,1650912153930010.0,0
1898,-2.0,-3.0,-2.0,-2.0,-8.0,-8.0,-3.0,-3.0,1650912153931035.0,0
1899,-1.0,0.0,-7.0,-3.0,-4.0,-8.0,-1.0,0.0,1650912153931035.0,0
1900,1.0,0.0,1.0,-5.0,-9.0,-9.0,-3.0,-1.0,1650912153953376.0,0
1901,-2.0,-1.0,1.0,-5.0,-20.0,-5.0,-5.0,-3.0,1650912153953376.0,0
1902,2.0,2.0,0.0,5.0,13.0,14.0,3.0,1.0,1650912153954375.0,0
1903,-2.0,1.0,2.0,8.0,21.0,13.0,4.0,1.0,1650912153954375.0,0
1904,1.0,-1.0,0.0,2.0,-3.0,8.0,2.0,1.0,1650912153967825.0,0
1905,-1.0,-3.0,-5.0,-5.0,-13.0,-16.0,0.0,1.0,1650912153967825.0,0
1906,0.0,-1.0,-4.0,-9.0,-25.0,-2.0,-8.0,-1.0,1650912153968660.0,0
1907,0.0,-1.0,0.0,-3.0,5.0,-12.0,-3.0,-2.0,1650912153968660.0,0
1908,0.0,1.0,4.0,9.0,8.0,0.0,2.0,0.0,1650912153981179.0,0
1909,0.0,0.0,-3.0,2.0,5.0,8.0,0.0,0.0,1650912153981179.0,0
1910,-2.0,-1.0,5.0,-1.0,0.0,4.0,2.0,-1.0,1650912153990018.0,0
1911,0.0,-1.0,-5.0,-5.0,-12.0,-8.0,-1.0,0.0,1650912153990018.0,0
1912,-1.0,-4.0,-3.0,-6.0,-3.0,-4.0,-1.0,-2.0,1650912154005307.0,0
1913,0.0,0.0,0.0,3.0,-8.0,-1.0,1.0,-1.0,1650912154005307.0,0
1914,1.0,2.0,1.0,-1.0,10.0,3.0,1.0,-1.0,1650912154006082.0,0
1915,-3.0,-2.0,2.0,0.0,12.0,2.0,-1.0,0.0,1650912154006082.0,0
