EMG_s0,EMG_s1,EMG_s2,EMG_s3,EMG_s4,EMG_s5,EMG_s6,EMG_s7,timestamp
-2.0,1.0,-2.0,1.0,0.0,2.0,2.0,0.0,1650911412380428.0
-1.0,-2.0,-3.0,-3.0,8.0,1.0,-1.0,0.0,1650911412380428.0
1.0,-1.0,1.0,1.0,0.0,2.0,-1.0,3.0,1650911412381373.0
-1.0,0.0,-2.0,0.0,-8.0,0.0,-1.0,0.0,1650911412381373.0
1.0,-2.0,0.0,-1.0,0.0,1.0,3.0,-1.0,1650911412394707.0
-1.0,1.0,2.0,6.0,8.0,7.0,2.0,0.0,1650911412394707.0
-1.0,-2.0,-7.0,-7.0,-3.0,2.0,1.0,0.0,1650911412402532.0
0.0,-2.0,0.0,-3.0,-1.0,-2.0,-2.0,-1.0,1650911412402532.0
-2.0,0.0,-3.0,-2.0,-10.0,-10.0,-3.0,-1.0,1650911412418158.0
-3.0,1.0,2.0,2.0,-2.0,-4.0,-2.0,-2.0,1650911412418158.0
0.0,-1.0,0.0,3.0,5.0,2.0,-1.0,-2.0,1650911412418999.0
3.0,0.0,3.0,0.0,-5.0,-2.0,-1.0,2.0,1650911412418999.0
-1.0,-1.0,-8.0,-5.0,3.0,0.0,0.0,-2.0,1650911412440019.0
0.0,1.0,4.0,3.0,7.0,5.0,-1.0,1.0,1650911412440019.0
0.0,0.0,3.0,4.0,2.0,2.0,2.0,1.0,1650911412441021.0
-1.0,0.0,-8.0,-1.0,0.0,-2.0,-2.0,0.0,1650911412441021.0
-1.0,-1.0,5.0,-2.0,-5.0,5.0,1.0,0.0,1650911412462941.0
0.0,1.0,3.0,0.0,-3.0,-7.0,0.0,-1.0,1650911412462941.0
0.0,0.0,0.0,2.0,7.0,0.0,-1.0,0.0,1650911412464936.0
0.0,0.0,2.0,1.0,-1.0,7.0,1.0,-1.0,1650911412464936.0
-1.0,0.0,-2.0,-2.0,-5.0,-4.0,-5.0,-3.0,1650911412477609.0
1.0,-2.0,5.0,3.0,-9.0,-10.0,-1.0,-1.0,1650911412477609.0
-2.0,0.0,-5.0,-7.0,-8.0,-4.0,-1.0,-2.0,1650911412479470.0
-1.0,1.0,-3.0,-2.0,7.0,4.0,-6.0,-3.0,1650911412479470.0
1.0,1.0,10.0,7.0,6.0,1.0,6.0,0.0,1650911412499091.0
1.0,-2.0,-6.0,-3.0,3.0,9.0,4.0,1.0,1650911412499091.0
-1.0,1.0,5.0,4.0,7.0,-1.0,-2.0,-1.0,1650911412508102.0
1.0,0.0,-3.0,-1.0,3.0,-2.0,2.0,0.0,1650911412508102.0
-3.0,-1.0,-2.0,-6.0,-8.0,-7.0,-3.0,-3.0,1650911412523385.0
-1.0,-2.0,1.0,-2.0,-19.0,-11.0,-5.0,-3.0,1650911412523385.0
-1.0,0.0,-2.0,1.0,2.0,-2.0,1.0,1.0,1650911412524420.0
0.0,2.0,1.0,0.0,12.0,6.0,0.0,1.0,1650911412524420.0
1.0,-1.0,-4.0,3.0,6.0,6.0,2.0,1.0,1650911412545707.0
0.0,-2.0,-2.0,0.0,3.0,2.0,1.0,0.0,1650911412545707.0
0.0,-1.0,-4.0,-2.0,-5.0,-4.0,-4.0,-1.0,1650911412546622.0
-3.0,-1.0,2.0,-2.0,-6.0,-6.0,1.0,-2.0,1650911412546622.0
-1.0,1.0,0.0,0.0,-6.0,-9.0,0.0,-1.0,1650911412558722.0
0.0,-1.0,-4.0,-2.0,4.0,4.0,1.0,0.0,1650911412558722.0
1.0,2.0,-5.0,-4.0,-3.0,2.0,2.0,0.0,1650911412567926.0
-2.0,-4.0,1.0,1.0,1.0,-1.0,-1.0,-1.0,1650911412567926.0
-1.0,-1.0,-1.0,0.0,-2.0,4.0,-1.0,0.0,1650911412582575.0
0.0,-1.0,5.0,1.0,0.0,0.0,-4.0,-2.0,1650911412582575.0
-1.0,1.0,-4.0,-3.0,-9.0,-8.0,0.0,0.0,1650911412584408.0
-1.0,-5.0,-11.0,-9.0,-8.0,-4.0,1.0,-3.0,1650911412584408.0
-1.0,0.0,1.0,0.0,1.0,3.0,-1.0,1.0,1650911412605480.0
-2.0,1.0,2.0,3.0,2.0,4.0,3.0,-1.0,1650911412605480.0
0.0,0.0,5.0,5.0,8.0,4.0,0.0,1.0,1650911412606421.0
1.0,0.0,-2.0,-4.0,-12.0,-9.0,-5.0,0.0,1650911412606421.0
0.0,1.0,-2.0,0.0,6.0,4.0,4.0,-3.0,1650911412619547.0
0.0,0.0,-2.0,1.0,4.0,-3.0,-3.0,2.0,1650911412619547.0
-1.0,-3.0,0.0,-3.0,-8.0,3.0,0.0,-2.0,1650911412627754.0
0.0,-1.0,6.0,4.0,-3.0,0.0,1.0,0.0,1650911412627754.0
-1.0,0.0,-1.0,-2.0,-3.0,-2.0,-3.0,0.0,1650911412643674.0
-1.0,-2.0,-6.0,-3.0,6.0,0.0,0.0,0.0,1650911412643674.0
0.0,-2.0,1.0,2.0,2.0,5.0,-1.0,0.0,1650911412643851.0
0.0,2.0,4.0,3.0,-3.0,-2.0,-1.0,0.0,1650911412643851.0
1.0,-1.0,8.0,6.0,3.0,-2.0,-2.0,-1.0,1650911412665968.0
-2.0,1.0,-2.0,-1.0,4.0,1.0,4.0,0.0,1650911412665968.0
-2.0,-2.0,-8.0,-9.0,-1.0,-5.0,-3.0,-1.0,1650911412666841.0
-1.0,0.0,-1.0,1.0,-13.0,-5.0,-3.0,-1.0,1650911412666841.0
-1.0,0.0,-1.0,-3.0,3.0,7.0,8.0,1.0,1650911412678610.0
0.0,1.0,-1.0,-5.0,-4.0,1.0,-2.0,0.0,1650911412678610.0
-2.0,-2.0,4.0,4.0,-2.0,-4.0,1.0,-1.0,1650911412687798.0
-1.0,1.0,0.0,5.0,14.0,4.0,0.0,-1.0,1650911412687798.0
0.0,0.0,-4.0,-1.0,-1.0,-8.0,-4.0,0.0,1650911412703076.0
0.0,0.0,0.0,-2.0,-9.0,0.0,0.0,-1.0,1650911412703076.0
1.0,2.0,4.0,4.0,-3.0,3.0,2.0,2.0,1650911412704167.0
2.0,-1.0,-8.0,-5.0,5.0,-1.0,0.0,0.0,1650911412704167.0
1.0,-2.0,-2.0,-6.0,-12.0,-5.0,-5.0,1.0,1650911412733608.0
0.0,0.0,5.0,2.0,5.0,2.0,-1.0,0.0,1650911412733608.0
-2.0,-1.0,-10.0,-2.0,12.0,1.0,-1.0,-3.0,1650911412733608.0
-1.0,0.0,2.0,-1.0,0.0,2.0,2.0,0.0,1650911412733608.0
0.0,0.0,-2.0,-2.0,1.0,0.0,-3.0,0.0,1650911412738549.0
-1.0,-1.0,0.0,-3.0,-14.0,-8.0,-3.0,-2.0,1650911412738549.0
1.0,2.0,10.0,5.0,-7.0,-5.0,1.0,0.0,1650911412747525.0
-2.0,-1.0,-6.0,-2.0,3.0,5.0,0.0,-2.0,1650911412747525.0
0.0,-4.0,-9.0,-6.0,2.0,-1.0,-2.0,0.0,1650911412762841.0
-1.0,-1.0,2.0,1.0,-4.0,-2.0,0.0,-1.0,1650911412762841.0
-1.0,-2.0,0.0,-1.0,1.0,1.0,4.0,0.0,1650911412763677.0
1.0,-2.0,6.0,4.0,-1.0,-6.0,-3.0,-1.0,1650911412763677.0
-3.0,-1.0,2.0,7.0,5.0,9.0,5.0,1.0,1650911412785749.0
-1.0,-2.0,-7.0,-5.0,5.0,3.0,1.0,0.0,1650911412785749.0
0.0,-1.0,-1.0,-3.0,-3.0,-5.0,-5.0,-1.0,1650911412786908.0
-2.0,-2.0,-1.0,-6.0,-15.0,-5.0,-2.0,0.0,1650911412786908.0
0.0,1.0,2.0,3.0,-2.0,-4.0,-1.0,-1.0,1650911412807388.0
0.0,0.0,3.0,8.0,13.0,5.0,-4.0,0.0,1650911412807388.0
-1.0,1.0,-2.0,1.0,9.0,8.0,7.0,0.0,1650911412809419.0
-3.0,0.0,1.0,-4.0,-3.0,-4.0,-3.0,0.0,1650911412809419.0
0.0,-2.0,2.0,0.0,-7.0,-3.0,-1.0,-1.0,1650911412823168.0
0.0,-2.0,-4.0,-2.0,-5.0,-2.0,1.0,1.0,1650911412823168.0
0.0,-4.0,-13.0,-5.0,0.0,1.0,-8.0,-2.0,1650911412824007.0
-2.0,1.0,1.0,5.0,11.0,3.0,11.0,0.0,1650911412824007.0
-1.0,2.0,4.0,0.0,4.0,-3.0,-3.0,-2.0,1650911412853364.0
-2.0,-2.0,5.0,-2.0,-9.0,0.0,-2.0,-4.0,1650911412853364.0
-1.0,-1.0,1.0,-3.0,-19.0,-5.0,-3.0,-1.0,1650911412853502.0
-1.0,0.0,-1.0,0.0,8.0,10.0,0.0,-3.0,1650911412853502.0
0.0,1.0,0.0,3.0,10.0,-4.0,1.0,0.0,1650911412858523.0
0.0,0.0,-4.0,-3.0,-1.0,-2.0,-1.0,-1.0,1650911412858523.0
-1.0,-1.0,-2.0,-4.0,-10.0,-5.0,-4.0,-1.0,1650911412867848.0
-1.0,-2.0,-3.0,-3.0,-5.0,1.0,1.0,-1.0,1650911412867848.0
-1.0,2.0,-3.0,-2.0,6.0,10.0,6.0,2.0,1650911412882816.0
0.0,-3.0,-1.0,2.0,1.0,0.0,-1.0,0.0,1650911412882816.0
0.0,1.0,7.0,2.0,0.0,-3.0,-1.0,-1.0,1650911412883817.0
-2.0,-2.0,-4.0,-4.0,-5.0,-2.0,-1.0,-1.0,1650911412883817.0
0.0,0.0,0.0,-1.0,0.0,-3.0,0.0,-1.0,1650911412905561.0
-2.0,2.0,2.0,-1.0,-4.0,-6.0,-4.0,-1.0,1650911412905561.0
-1.0,-1.0,3.0,3.0,5.0,8.0,10.0,1.0,1650911412906560.0
-2.0,-1.0,-13.0,-5.0,-4.0,2.0,-1.0,-2.0,1650911412906560.0
-2.0,-3.0,1.0,-2.0,-6.0,-8.0,-1.0,1.0,1650911412919051.0
0.0,0.0,-3.0,-6.0,-12.0,-11.0,-4.0,-2.0,1650911412919051.0
0.0,-1.0,7.0,5.0,3.0,3.0,-5.0,-1.0,1650911412927737.0
2.0,2.0,5.0,9.0,26.0,13.0,2.0,2.0,1650911412927737.0
-1.0,1.0,-7.0,-1.0,1.0,6.0,1.0,-1.0,1650911412943225.0
0.0,-1.0,-1.0,-4.0,-9.0,-5.0,2.0,-1.0,1650911412943225.0
-2.0,0.0,-3.0,-7.0,-16.0,0.0,-4.0,-2.0,1650911412944225.0
1.0,-1.0,5.0,2.0,-4.0,-11.0,-2.0,-1.0,1650911412944225.0
0.0,-2.0,-3.0,3.0,5.0,3.0,-3.0,0.0,1650911412965056.0
-1.0,1.0,6.0,7.0,17.0,8.0,3.0,1.0,1650911412965056.0
1.0,0.0,-5.0,-1.0,9.0,2.0,1.0,0.0,1650911412966055.0
0.0,-1.0,0.0,-6.0,-14.0,-5.0,-4.0,-3.0,1650911412966055.0
0.0,-1.0,0.0,-7.0,-13.0,-8.0,-4.0,-2.0,1650911412995201.0
-4.0,0.0,-4.0,-2.0,-13.0,-5.0,1.0,-2.0,1650911412995201.0
-1.0,1.0,3.0,5.0,8.0,0.0,1.0,2.0,1650911412996216.0
0.0,2.0,9.0,10.0,16.0,11.0,4.0,1.0,1650911412996216.0
-1.0,1.0,-6.0,-2.0,-2.0,2.0,1.0,-1.0,1650911413001219.0
0.0,-2.0,-5.0,-4.0,2.0,1.0,-1.0,-1.0,1650911413001219.0
-1.0,-1.0,-3.0,-6.0,-8.0,-7.0,-5.0,-2.0,1650911413010319.0
2.0,1.0,5.0,-4.0,-17.0,-9.0,-4.0,-1.0,1650911413010319.0
0.0,-2.0,-2.0,3.0,6.0,11.0,3.0,1.0,1650911413025325.0
0.0,0.0,1.0,4.0,21.0,6.0,-2.0,1.0,1650911413025325.0
0.0,0.0,1.0,2.0,2.0,-1.0,4.0,0.0,1650911413026305.0
-3.0,-2.0,0.0,-2.0,-6.0,-4.0,-1.0,1.0,1650911413026305.0
1.0,-2.0,3.0,-2.0,-10.0,1.0,-1.0,-1.0,1650911413047922.0
-1.0,-1.0,-3.0,-5.0,-6.0,-11.0,0.0,0.0,1650911413047922.0
0.0,-1.0,-1.0,3.0,8.0,-3.0,-4.0,-2.0,1650911413048919.0
-2.0,0.0,-2.0,1.0,11.0,2.0,-2.0,0.0,1650911413048919.0
-1.0,0.0,3.0,1.0,4.0,-2.0,4.0,-2.0,1650911413064244.0
0.0,0.0,-1.0,0.0,-6.0,6.0,1.0,0.0,1650911413064244.0
-1.0,-2.0,-3.0,-6.0,-9.0,-4.0,-2.0,-2.0,1650911413069351.0
0.0,1.0,-2.0,-4.0,-12.0,-3.0,-4.0,0.0,1650911413069351.0
-2.0,2.0,1.0,1.0,1.0,1.0,0.0,-2.0,1650911413085151.0
0.0,1.0,-2.0,1.0,6.0,4.0,1.0,-1.0,1650911413085151.0
-1.0,-1.0,0.0,-2.0,3.0,-3.0,-1.0,0.0,1650911413086149.0
-2.0,-2.0,0.0,0.0,-12.0,-7.0,-3.0,-2.0,1650911413086149.0
0.0,-3.0,-4.0,1.0,2.0,-6.0,-5.0,-1.0,1650911413107039.0
0.0,1.0,6.0,4.0,9.0,7.0,1.0,0.0,1650911413107039.0
0.0,2.0,-3.0,-1.0,2.0,5.0,1.0,2.0,1650911413109006.0
-1.0,0.0,-1.0,0.0,1.0,2.0,3.0,1.0,1650911413109006.0
-1.0,2.0,0.0,-4.0,-10.0,-8.0,-3.0,-1.0,1650911413122180.0
-1.0,-4.0,-1.0,-3.0,-16.0,-1.0,-1.0,0.0,1650911413122180.0
-1.0,0.0,1.0,5.0,8.0,-9.0,0.0,-1.0,1650911413129326.0
-1.0,2.0,0.0,3.0,18.0,12.0,3.0,3.0,1650911413129326.0
0.0,-1.0,4.0,0.0,3.0,1.0,-2.0,0.0,1650911413145781.0
0.0,-1.0,-4.0,-3.0,-7.0,-5.0,-2.0,-2.0,1650911413145781.0
0.0,-3.0,-4.0,-7.0,-20.0,-7.0,-3.0,1.0,1650911413146848.0
0.0,-2.0,-2.0,-1.0,1.0,-6.0,1.0,-1.0,1650911413146848.0
0.0,-2.0,4.0,4.0,6.0,0.0,-1.0,0.0,1650911413167336.0
0.0,-2.0,-7.0,-3.0,1.0,10.0,0.0,0.0,1650911413167336.0
-1.0,2.0,0.0,0.0,5.0,9.0,2.0,1.0,1650911413169226.0
0.0,-1.0,-1.0,-2.0,-9.0,-6.0,0.0,-1.0,1650911413169226.0
-3.0,-1.0,-1.0,-3.0,-5.0,-6.0,-5.0,0.0,1650911413181758.0
0.0,1.0,5.0,4.0,6.0,-3.0,2.0,-1.0,1650911413181758.0
-1.0,-1.0,-3.0,-1.0,-2.0,-2.0,-2.0,-3.0,1650911413188746.0
-2.0,-2.0,-8.0,-6.0,0.0,5.0,3.0,-1.0,1650911413188746.0
0.0,-1.0,-1.0,-3.0,-1.0,-1.0,-2.0,0.0,1650911413205777.0
0.0,2.0,6.0,5.0,-1.0,0.0,6.0,2.0,1650911413205777.0
-2.0,-1.0,1.0,1.0,6.0,-1.0,-2.0,0.0,1650911413206917.0
-3.0,-3.0,-13.0,-14.0,-11.0,1.0,-2.0,-3.0,1650911413206917.0
0.0,1.0,2.0,6.0,7.0,-3.0,0.0,0.0,1650911413228312.0
-1.0,-1.0,-2.0,-4.0,-7.0,-10.0,-7.0,-2.0,1650911413228312.0
-1.0,0.0,2.0,1.0,0.0,9.0,4.0,0.0,1650911413229186.0
0.0,2.0,6.0,3.0,-1.0,-10.0,-1.0,0.0,1650911413229186.0
-1.0,-1.0,-4.0,1.0,0.0,10.0,4.0,-1.0,1650911413242115.0
-3.0,-3.0,-6.0,-2.0,2.0,-3.0,-1.0,0.0,1650911413242115.0
0.0,-1.0,-1.0,-2.0,-4.0,-4.0,-3.0,-2.0,1650911413249291.0
-2.0,1.0,-1.0,-1.0,-4.0,0.0,-2.0,0.0,1650911413249291.0
0.0,1.0,0.0,-2.0,-1.0,-4.0,-2.0,-1.0,1650911413266070.0
1.0,0.0,2.0,5.0,6.0,-1.0,-1.0,0.0,1650911413266070.0
0.0,-1.0,-2.0,-1.0,3.0,-1.0,0.0,-2.0,1650911413266268.0
1.0,-1.0,3.0,3.0,4.0,8.0,0.0,0.0,1650911413266268.0
-1.0,-2.0,-1.0,-1.0,-5.0,-4.0,-1.0,-2.0,1650911413287247.0
-1.0,-3.0,-2.0,-6.0,-8.0,0.0,-3.0,-2.0,1650911413287247.0
-1.0,-3.0,-1.0,-4.0,-12.0,-8.0,-3.0,0.0,1650911413289210.0
0.0,1.0,5.0,5.0,7.0,-3.0,5.0,1.0,1650911413289210.0
-1.0,0.0,-2.0,0.0,3.0,7.0,2.0,-1.0,1650911413302330.0
2.0,0.0,-1.0,1.0,6.0,9.0,3.0,1.0,1650911413302330.0
-1.0,0.0,-1.0,1.0,8.0,3.0,0.0,0.0,1650911413316496.0
1.0,2.0,9.0,8.0,1.0,-3.0,-3.0,-1.0,1650911413316496.0
-3.0,-3.0,-5.0,-6.0,-3.0,-5.0,-3.0,-1.0,1650911413325124.0
-2.0,-1.0,-5.0,-5.0,-8.0,-5.0,-3.0,-3.0,1650911413325124.0
0.0,0.0,6.0,0.0,-8.0,-5.0,-1.0,-2.0,1650911413326677.0
0.0,-2.0,-3.0,0.0,-4.0,4.0,-2.0,1.0,1650911413326677.0
-3.0,-1.0,-5.0,-5.0,0.0,-4.0,3.0,0.0,1650911413347995.0
-1.0,2.0,5.0,5.0,3.0,8.0,2.0,2.0,1650911413347995.0
0.0,-1.0,-3.0,2.0,7.0,1.0,1.0,1.0,1650911413349829.0
-1.0,-1.0,-1.0,0.0,-2.0,1.0,1.0,-2.0,1650911413349829.0
0.0,-1.0,-1.0,-1.0,-7.0,2.0,-4.0,-1.0,1650911413362252.0
1.0,0.0,0.0,-3.0,2.0,-7.0,1.0,0.0,1650911413362252.0
-2.0,-1.0,-2.0,2.0,-1.0,1.0,-1.0,0.0,1650911413370235.0
-1.0,-2.0,-5.0,-5.0,-2.0,-3.0,-3.0,-3.0,1650911413370235.0
1.0,-2.0,-1.0,-2.0,-3.0,0.0,-2.0,2.0,1650911413393206.0
0.0,-1.0,1.0,-1.0,-5.0,-7.0,-3.0,0.0,1650911413393206.0
0.0,2.0,2.0,3.0,-4.0,3.0,1.0,0.0,1650911413394240.0
1.0,-3.0,0.0,3.0,11.0,3.0,-1.0,0.0,1650911413394240.0
3.0,2.0,2.0,5.0,13.0,8.0,3.0,1.0,1650911413407539.0
-2.0,-2.0,-2.0,-5.0,0.0,1.0,-2.0,-1.0,1650911413407539.0
0.0,1.0,2.0,-1.0,-7.0,-6.0,-2.0,0.0,1650911413408503.0
-1.0,-1.0,-8.0,-7.0,-8.0,-6.0,0.0,0.0,1650911413408503.0
0.0,-1.0,1.0,-1.0,-11.0,-5.0,-1.0,-1.0,1650911413422876.0
0.0,-1.0,1.0,3.0,3.0,4.0,-3.0,0.0,1650911413422876.0
-1.0,-1.0,0.0,0.0,9.0,4.0,3.0,-1.0,1650911413428862.0
0.0,0.0,0.0,0.0,-1.0,-1.0,-3.0,0.0,1650911413428862.0
-1.0,-1.0,2.0,-2.0,-7.0,-11.0,-1.0,-1.0,1650911413445828.0
-2.0,0.0,-4.0,-2.0,2.0,2.0,-2.0,-1.0,1650911413445828.0
0.0,0.0,1.0,-1.0,4.0,6.0,0.0,0.0,1650911413446862.0
0.0,1.0,-1.0,2.0,4.0,1.0,2.0,1.0,1650911413446862.0
0.0,-1.0,0.0,-1.0,0.0,3.0,0.0,-1.0,1650911413468504.0
-2.0,-1.0,1.0,0.0,-5.0,-5.0,0.0,0.0,1650911413468504.0
-1.0,-1.0,-3.0,-4.0,-3.0,-3.0,-1.0,-1.0,1650911413469378.0
-1.0,-1.0,0.0,-3.0,-10.0,-3.0,-1.0,-1.0,1650911413469378.0
-1.0,0.0,-1.0,-2.0,-2.0,-1.0,-1.0,-1.0,1650911413481829.0
-1.0,-1.0,0.0,1.0,5.0,2.0,1.0,0.0,1650911413481829.0
0.0,0.0,2.0,5.0,11.0,7.0,2.0,0.0,1650911413490000.0
-1.0,0.0,2.0,0.0,-1.0,-1.0,0.0,0.0,1650911413490000.0
-2.0,-1.0,0.0,-2.0,-7.0,-6.0,-4.0,0.0,1650911413505447.0
-1.0,-2.0,-5.0,-8.0,-10.0,-3.0,-2.0,-3.0,1650911413505447.0
0.0,-1.0,0.0,-1.0,0.0,0.0,-1.0,-1.0,1650911413506050.0
-1.0,0.0,3.0,1.0,3.0,-1.0,-2.0,0.0,1650911413506050.0
-1.0,-1.0,-7.0,-2.0,-2.0,3.0,-5.0,-1.0,1650911413528150.0
1.0,1.0,-1.0,2.0,5.0,2.0,8.0,2.0,1650911413528150.0
-1.0,-1.0,-2.0,-1.0,4.0,-2.0,-4.0,0.0,1650911413528991.0
1.0,-1.0,-1.0,-4.0,-3.0,0.0,6.0,0.0,1650911413528991.0
-3.0,-1.0,2.0,0.0,-6.0,-3.0,-2.0,-2.0,1650911413540995.0
1.0,0.0,5.0,3.0,-6.0,-2.0,-5.0,-2.0,1650911413540995.0
1.0,1.0,3.0,3.0,1.0,5.0,1.0,0.0,1650911413550011.0
0.0,-2.0,-16.0,-5.0,13.0,-1.0,-4.0,-1.0,1650911413550011.0
0.0,0.0,2.0,2.0,-1.0,3.0,2.0,0.0,1650911413565519.0
-1.0,0.0,1.0,0.0,0.0,3.0,2.0,0.0,1650911413565519.0
1.0,1.0,4.0,2.0,-3.0,-7.0,0.0,-1.0,1650911413566951.0
-2.0,-2.0,1.0,-2.0,-6.0,-6.0,-2.0,-3.0,1650911413566951.0
1.0,-2.0,-6.0,-6.0,-9.0,-3.0,1.0,-2.0,1650911413586942.0
-1.0,-1.0,1.0,0.0,4.0,-1.0,-1.0,0.0,1650911413586942.0
-1.0,0.0,-1.0,4.0,6.0,10.0,0.0,1.0,1650911413588893.0
-1.0,0.0,1.0,3.0,5.0,5.0,1.0,0.0,1650911413588893.0
-1.0,1.0,1.0,0.0,3.0,-5.0,1.0,1.0,1650911413601858.0
0.0,-1.0,4.0,0.0,-10.0,-3.0,-3.0,-2.0,1650911413601858.0
-2.0,-3.0,-9.0,-8.0,-13.0,-6.0,0.0,-2.0,1650911413609837.0
-1.0,-3.0,-9.0,-7.0,-7.0,-4.0,-1.0,-3.0,1650911413609837.0
1.0,2.0,7.0,5.0,11.0,2.0,1.0,-1.0,1650911413624797.0
-3.0,0.0,1.0,4.0,9.0,-1.0,1.0,1.0,1650911413624797.0
1.0,1.0,1.0,-1.0,-2.0,-4.0,0.0,1.0,1650911413626791.0
0.0,2.0,3.0,0.0,-1.0,2.0,-2.0,0.0,1650911413626791.0
0.0,1.0,0.0,-1.0,2.0,5.0,0.0,0.0,1650911413647735.0
1.0,-1.0,-7.0,-6.0,-14.0,-5.0,-2.0,-2.0,1650911413647735.0
-2.0,0.0,-4.0,-5.0,-1.0,-7.0,-7.0,-2.0,1650911413648733.0
-2.0,0.0,4.0,7.0,6.0,2.0,1.0,-1.0,1650911413648733.0
1.0,0.0,0.0,0.0,4.0,4.0,1.0,0.0,1650911413660700.0
0.0,-1.0,-2.0,-1.0,1.0,1.0,6.0,0.0,1650911413660700.0
-2.0,-2.0,-2.0,-3.0,-7.0,-4.0,-5.0,-3.0,1650911413669716.0
0.0,0.0,1.0,-3.0,-9.0,-1.0,-1.0,1.0,1650911413669716.0
-1.0,0.0,2.0,1.0,6.0,1.0,-5.0,-1.0,1650911413684672.0
-1.0,-1.0,-2.0,-1.0,-5.0,-1.0,-3.0,-1.0,1650911413684672.0
-1.0,-1.0,-4.0,-5.0,-1.0,4.0,1.0,1.0,1650911413686632.0
-2.0,-1.0,2.0,0.0,-10.0,-6.0,-1.0,-1.0,1650911413686632.0
-1.0,0.0,5.0,3.0,10.0,6.0,1.0,0.0,1650911413707155.0
-1.0,0.0,1.0,0.0,-2.0,-9.0,-1.0,0.0,1650911413707155.0
-2.0,-4.0,-11.0,-7.0,8.0,10.0,3.0,-2.0,1650911413709452.0
2.0,3.0,3.0,3.0,13.0,8.0,2.0,1.0,1650911413709452.0
-2.0,-1.0,-5.0,-3.0,-8.0,-4.0,2.0,0.0,1650911413721657.0
0.0,-1.0,1.0,0.0,0.0,-2.0,-2.0,-2.0,1650911413721657.0
-2.0,-2.0,1.0,0.0,-10.0,-7.0,-2.0,-2.0,1650911413729929.0
0.0,-2.0,-5.0,-4.0,-6.0,-2.0,-2.0,-1.0,1650911413729929.0
-2.0,0.0,4.0,0.0,-4.0,-3.0,1.0,0.0,1650911413745271.0
0.0,0.0,-5.0,-3.0,-4.0,-1.0,-3.0,-1.0,1650911413745271.0
0.0,-2.0,-1.0,2.0,-2.0,-4.0,1.0,0.0,1650911413746273.0
-2.0,1.0,3.0,3.0,11.0,5.0,1.0,0.0,1650911413746273.0
0.0,1.0,1.0,4.0,9.0,2.0,0.0,1.0,1650911413768199.0
1.0,0.0,0.0,-2.0,4.0,0.0,-4.0,-2.0,1650911413768199.0
0.0,-1.0,0.0,1.0,-9.0,-1.0,3.0,0.0,1650911413769039.0
0.0,0.0,-1.0,-2.0,-6.0,-3.0,-1.0,0.0,1650911413769039.0
-1.0,-1.0,-4.0,-4.0,-7.0,-3.0,-4.0,-2.0,1650911413781177.0
0.0,0.0,-3.0,-1.0,2.0,1.0,3.0,-1.0,1650911413781177.0
1.0,1.0,6.0,1.0,2.0,0.0,-1.0,0.0,1650911413797315.0
-1.0,1.0,1.0,1.0,4.0,7.0,0.0,1.0,1650911413797315.0
2.0,0.0,1.0,5.0,3.0,-2.0,-3.0,0.0,1650911413805450.0
0.0,-1.0,-5.0,-5.0,-4.0,-2.0,-2.0,-1.0,1650911413805450.0
-2.0,-2.0,-2.0,-1.0,-2.0,2.0,4.0,-1.0,1650911413806327.0
1.0,-1.0,3.0,4.0,0.0,-5.0,-1.0,-2.0,1650911413806327.0
-1.0,-1.0,-2.0,-6.0,0.0,4.0,-1.0,-1.0,1650911413827510.0
-1.0,1.0,3.0,1.0,-2.0,-5.0,0.0,-1.0,1650911413827510.0
1.0,1.0,2.0,-1.0,0.0,-7.0,-2.0,0.0,1650911413829346.0
-1.0,-2.0,-2.0,-2.0,0.0,3.0,-1.0,-3.0,1650911413829346.0
1.0,0.0,2.0,8.0,9.0,7.0,3.0,-1.0,1650911413840673.0
-2.0,-1.0,-2.0,-1.0,1.0,4.0,0.0,1.0,1650911413840673.0
1.0,2.0,-4.0,-3.0,-3.0,-1.0,0.0,1.0,1650911413850131.0
1.0,0.0,-1.0,-3.0,-5.0,-6.0,-2.0,-2.0,1650911413850131.0
0.0,-2.0,-4.0,-4.0,-10.0,-8.0,-2.0,-1.0,1650911413865553.0
-1.0,1.0,4.0,4.0,5.0,5.0,6.0,2.0,1650911413865553.0
0.0,-1.0,2.0,0.0,-4.0,-9.0,-12.0,-1.0,1650911413865993.0
0.0,-2.0,-6.0,-3.0,-4.0,-4.0,7.0,0.0,1650911413865993.0
-2.0,0.0,0.0,-3.0,1.0,12.0,3.0,0.0,1650911413895135.0
-1.0,0.0,4.0,5.0,11.0,11.0,2.0,2.0,1650911413895135.0
-1.0,-2.0,-9.0,-1.0,2.0,-2.0,4.0,0.0,1650911413902120.0
0.0,0.0,2.0,-4.0,-6.0,-2.0,-7.0,0.0,1650911413902120.0
-3.0,-2.0,-4.0,-5.0,-12.0,-18.0,-3.0,-3.0,1650911413910014.0
-3.0,-1.0,2.0,3.0,2.0,7.0,0.0,-2.0,1650911413910014.0
-1.0,-1.0,2.0,2.0,9.0,5.0,4.0,0.0,1650911413911014.0
-1.0,-2.0,1.0,0.0,-3.0,-2.0,-2.0,0.0,1650911413911014.0
-1.0,-2.0,-8.0,-9.0,-7.0,1.0,1.0,0.0,1650911413925477.0
0.0,-2.0,1.0,-3.0,-2.0,-6.0,-5.0,-2.0,1650911413925477.0
0.0,1.0,2.0,2.0,1.0,0.0,-2.0,-1.0,1650911413926307.0
-1.0,-1.0,-2.0,4.0,4.0,0.0,-5.0,0.0,1650911413926307.0
-2.0,0.0,4.0,5.0,7.0,5.0,3.0,0.0,1650911413947654.0
0.0,0.0,1.0,-3.0,-7.0,-4.0,2.0,-1.0,1650911413947654.0
-2.0,-1.0,-7.0,-6.0,-10.0,-8.0,-2.0,-1.0,1650911413948679.0
-1.0,-1.0,2.0,0.0,3.0,-1.0,-2.0,-3.0,1650911413948679.0
1.0,-2.0,-1.0,0.0,5.0,-1.0,-2.0,-2.0,1650911413971048.0
0.0,0.0,-2.0,-3.0,-2.0,6.0,1.0,1.0,1650911413971048.0
0.0,0.0,2.0,0.0,-8.0,-3.0,2.0,-2.0,1650911413971048.0
-1.0,0.0,0.0,-1.0,3.0,5.0,0.0,1.0,1650911413971048.0
2.0,0.0,-3.0,3.0,1.0,-7.0,-8.0,-1.0,1650911413985602.0
-2.0,1.0,-5.0,-3.0,-2.0,0.0,1.0,-1.0,1650911413985602.0
0.0,-2.0,3.0,-2.0,2.0,0.0,5.0,1.0,1650911413986002.0
1.0,0.0,1.0,-2.0,-4.0,-1.0,1.0,0.0,1650911413986002.0
-1.0,-1.0,0.0,0.0,-5.0,-2.0,-2.0,0.0,1650911414007273.0
0.0,-1.0,-2.0,-2.0,5.0,-2.0,-4.0,-2.0,1650911414007273.0
0.0,0.0,1.0,2.0,-2.0,2.0,-8.0,-2.0,1650911414009267.0
0.0,-1.0,-2.0,-1.0,2.0,0.0,11.0,1.0,1650911414009267.0
1.0,-3.0,-1.0,-2.0,-6.0,0.0,-1.0,1.0,1650911414030343.0
-2.0,-1.0,-1.0,-2.0,-3.0,-2.0,1.0,-2.0,1650911414030343.0
1.0,1.0,3.0,2.0,7.0,-6.0,-2.0,1.0,1650911414031239.0
-1.0,2.0,0.0,-1.0,-1.0,2.0,-4.0,-2.0,1650911414031239.0
-3.0,-1.0,0.0,1.0,2.0,-3.0,3.0,-3.0,1650911414045364.0
-1.0,-1.0,-4.0,-5.0,-11.0,-9.0,-3.0,-2.0,1650911414045364.0
-1.0,0.0,1.0,0.0,-9.0,1.0,1.0,-1.0,1650911414051513.0
0.0,0.0,-1.0,3.0,19.0,2.0,2.0,1.0,1650911414051513.0
-1.0,-1.0,0.0,1.0,-1.0,11.0,5.0,1.0,1650911414067487.0
0.0,1.0,3.0,5.0,14.0,5.0,5.0,1.0,1650911414067487.0
-2.0,0.0,-3.0,-3.0,-6.0,-3.0,-3.0,-1.0,1650911414073310.0
-1.0,-2.0,-4.0,-5.0,-14.0,-10.0,-7.0,-2.0,1650911414073310.0
-2.0,-3.0,-2.0,-5.0,-12.0,-12.0,-2.0,-2.0,1650911414090293.0
0.0,-2.0,-1.0,-2.0,-7.0,-5.0,-3.0,-1.0,1650911414090293.0
-1.0,0.0,1.0,3.0,10.0,6.0,0.0,0.0,1650911414091265.0
0.0,1.0,1.0,5.0,14.0,8.0,2.0,1.0,1650911414091265.0
1.0,-5.0,-1.0,-1.0,5.0,2.0,-5.0,-2.0,1650911414104821.0
1.0,-2.0,-1.0,-1.0,-11.0,-1.0,7.0,1.0,1650911414104821.0
0.0,2.0,-1.0,-2.0,-6.0,-8.0,-5.0,-1.0,1650911414111963.0
-1.0,-1.0,1.0,-1.0,-7.0,-4.0,2.0,-4.0,1650911414111963.0
-1.0,2.0,0.0,0.0,5.0,4.0,-6.0,0.0,1650911414127275.0
-1.0,1.0,-1.0,-1.0,-3.0,-5.0,3.0,0.0,1650911414127275.0
0.0,-2.0,-1.0,0.0,-1.0,2.0,5.0,1.0,1650911414135107.0
-2.0,-2.0,-4.0,-5.0,-5.0,-4.0,2.0,-1.0,1650911414135107.0
-2.0,2.0,-1.0,-1.0,-5.0,3.0,-7.0,-2.0,1650911414150192.0
0.0,0.0,2.0,7.0,15.0,3.0,-5.0,2.0,1650911414150192.0
-1.0,-1.0,-1.0,4.0,17.0,10.0,-1.0,-1.0,1650911414151187.0
2.0,-1.0,1.0,1.0,-2.0,-5.0,-5.0,1.0,1650911414151187.0
2.0,-1.0,-3.0,-3.0,-4.0,-3.0,5.0,1.0,1650911414164637.0
-1.0,-1.0,-3.0,-3.0,-5.0,-3.0,-6.0,-1.0,1650911414164637.0
0.0,0.0,-1.0,0.0,-6.0,-1.0,7.0,-1.0,1650911414171134.0
0.0,-2.0,-3.0,-2.0,-10.0,-3.0,1.0,3.0,1650911414171134.0
0.0,5.0,4.0,-2.0,-8.0,-2.0,8.0,0.0,1650911414187092.0
0.0,-1.0,0.0,0.0,0.0,-1.0,-8.0,-2.0,1650911414187092.0
1.0,-1.0,1.0,1.0,4.0,2.0,10.0,1.0,1650911414189085.0
-1.0,-1.0,-4.0,-5.0,-5.0,7.0,-13.0,-1.0,1650911414189085.0
-2.0,-2.0,1.0,6.0,12.0,-4.0,3.0,-13.0,1650911414210023.0
0.0,2.0,-2.0,-1.0,6.0,6.0,-8.0,2.0,1650911414210023.0
-7.0,-5.0,-2.0,-1.0,-2.0,-5.0,-7.0,-13.0,1650911414212052.0
-2.0,2.0,6.0,-1.0,-8.0,-9.0,-1.0,7.0,1650911414212052.0
2.0,-7.0,-17.0,-7.0,-22.0,-10.0,0.0,7.0,1650911414223990.0
5.0,5.0,11.0,6.0,13.0,9.0,11.0,5.0,1650911414223990.0
1.0,5.0,8.0,5.0,13.0,11.0,-1.0,6.0,1650911414230974.0
-1.0,-1.0,2.0,3.0,11.0,6.0,6.0,-1.0,1650911414230974.0
-6.0,2.0,-2.0,-3.0,5.0,1.0,10.0,4.0,1650911414248088.0
-7.0,-7.0,-5.0,-5.0,-12.0,-16.0,-7.0,-3.0,1650911414248088.0
8.0,10.0,-1.0,-2.0,-10.0,0.0,-2.0,0.0,1650911414248926.0
14.0,-4.0,3.0,3.0,-1.0,3.0,-4.0,-2.0,1650911414248926.0
-18.0,-2.0,16.0,3.0,7.0,-1.0,-8.0,-10.0,1650911414271045.0
-16.0,-12.0,-24.0,-13.0,-9.0,-4.0,1.0,-6.0,1650911414271045.0
-5.0,-2.0,1.0,-5.0,-8.0,-6.0,-1.0,3.0,1650911414271045.0
12.0,13.0,3.0,2.0,3.0,4.0,4.0,2.0,1650911414271045.0
13.0,7.0,2.0,6.0,8.0,6.0,1.0,-3.0,1650911414285198.0
7.0,3.0,4.0,-3.0,-2.0,-3.0,7.0,11.0,1650911414285198.0
-6.0,-21.0,-3.0,2.0,-3.0,-2.0,-2.0,2.0,1650911414291187.0
3.0,2.0,0.0,-5.0,2.0,-7.0,6.0,2.0,1650911414291187.0
20.0,26.0,11.0,10.0,16.0,4.0,0.0,8.0,1650911414308000.0
-29.0,-25.0,-18.0,-8.0,-6.0,6.0,-5.0,-25.0,1650911414308000.0
1.0,-18.0,-11.0,-8.0,-3.0,0.0,27.0,37.0,1650911414308998.0
-31.0,-18.0,-13.0,-14.0,-24.0,-15.0,-45.0,-36.0,1650911414308998.0
11.0,8.0,10.0,5.0,12.0,4.0,-3.0,-7.0,1650911414329996.0
22.0,27.0,20.0,5.0,5.0,-3.0,-5.0,6.0,1650911414329996.0
19.0,12.0,-13.0,16.0,5.0,-1.0,-17.0,-18.0,1650911414330993.0
-37.0,-41.0,-24.0,-24.0,-7.0,1.0,10.0,4.0,1650911414330993.0
-24.0,-36.0,2.0,-4.0,-6.0,6.0,13.0,13.0,1650911414352127.0
31.0,39.0,0.0,-11.0,-15.0,-16.0,-1.0,15.0,1650911414352127.0
-3.0,-22.0,-2.0,1.0,-4.0,-5.0,-9.0,-12.0,1650911414354122.0
-1.0,13.0,11.0,20.0,14.0,6.0,15.0,3.0,1650911414354122.0
-18.0,12.0,-9.0,-13.0,1.0,-1.0,-11.0,-26.0,1650911414367420.0
-26.0,-17.0,-17.0,-5.0,-2.0,-6.0,-12.0,-11.0,1650911414367420.0
-3.0,27.0,9.0,-6.0,-4.0,-2.0,-14.0,-15.0,1650911414369286.0
-3.0,-11.0,14.0,4.0,-5.0,0.0,9.0,-5.0,1650911414369286.0
24.0,2.0,-13.0,-10.0,-17.0,-12.0,8.0,55.0,1650911414389933.0
16.0,11.0,12.0,13.0,19.0,21.0,8.0,-18.0,1650911414389933.0
16.0,10.0,5.0,6.0,8.0,1.0,10.0,20.0,1650911414396229.0
14.0,11.0,4.0,1.0,3.0,6.0,5.0,-7.0,1650911414396229.0
-19.0,1.0,3.0,0.0,-14.0,-10.0,-6.0,2.0,1650911414404623.0
48.0,1.0,1.0,10.0,5.0,-2.0,-2.0,0.0,1650911414404623.0
-19.0,-5.0,1.0,-15.0,-8.0,-5.0,-1.0,0.0,1650911414412473.0
3.0,-28.0,5.0,12.0,14.0,7.0,15.0,27.0,1650911414412473.0
-4.0,5.0,-5.0,-3.0,3.0,-1.0,-7.0,-16.0,1650911414427806.0
-9.0,4.0,12.0,0.0,-10.0,4.0,10.0,17.0,1650911414427806.0
-9.0,-26.0,-24.0,-13.0,-19.0,-12.0,4.0,12.0,1650911414428637.0
27.0,28.0,-4.0,-2.0,-8.0,-9.0,-21.0,-43.0,1650911414428637.0
-1.0,6.0,6.0,9.0,18.0,11.0,-7.0,19.0,1650911414450466.0
-24.0,-9.0,2.0,8.0,14.0,16.0,9.0,3.0,1650911414450466.0
19.0,3.0,11.0,3.0,16.0,-4.0,0.0,2.0,1650911414451312.0
-48.0,22.0,8.0,3.0,-9.0,0.0,8.0,20.0,1650911414451312.0
-6.0,-24.0,-15.0,-4.0,-7.0,-1.0,6.0,-30.0,1650911414463279.0
-12.0,6.0,27.0,3.0,2.0,-6.0,-4.0,20.0,1650911414463279.0
34.0,13.0,3.0,3.0,2.0,4.0,1.0,16.0,1650911414473169.0
-34.0,-10.0,-18.0,-14.0,-12.0,-12.0,-16.0,-5.0,1650911414473169.0
19.0,-3.0,-1.0,3.0,-4.0,-5.0,-9.0,-33.0,1650911414488326.0
-39.0,-25.0,-16.0,-24.0,-30.0,-27.0,-23.0,-14.0,1650911414488326.0
5.0,-12.0,8.0,3.0,6.0,10.0,4.0,-12.0,1650911414489355.0
27.0,15.0,4.0,1.0,4.0,-3.0,3.0,11.0,1650911414489355.0
-6.0,23.0,-8.0,-2.0,-10.0,-3.0,-2.0,-1.0,1650911414511118.0
2.0,-29.0,1.0,-1.0,-2.0,-7.0,-4.0,-5.0,1650911414511118.0
-18.0,18.0,8.0,12.0,16.0,1.0,-8.0,-24.0,1650911414511118.0
1.0,-7.0,-24.0,-2.0,8.0,5.0,12.0,20.0,1650911414511118.0
33.0,-25.0,6.0,-10.0,-9.0,-8.0,-4.0,8.0,1650911414523873.0
13.0,32.0,-12.0,-2.0,-25.0,-12.0,-21.0,-48.0,1650911414523873.0
-33.0,-6.0,-14.0,0.0,2.0,12.0,1.0,-12.0,1650911414533128.0
22.0,-1.0,7.0,20.0,43.0,20.0,5.0,1.0,1650911414533128.0
11.0,10.0,16.0,-2.0,4.0,7.0,14.0,29.0,1650911414547074.0
5.0,-19.0,-18.0,-7.0,-10.0,-8.0,-7.0,4.0,1650911414547074.0
-3.0,4.0,7.0,-4.0,-17.0,-6.0,-10.0,-25.0,1650911414548967.0
8.0,14.0,-11.0,-7.0,-7.0,-6.0,0.0,5.0,1650911414548967.0
-20.0,-23.0,-12.0,10.0,13.0,9.0,1.0,-2.0,1650911414570150.0
-1.0,4.0,0.0,0.0,4.0,5.0,4.0,-6.0,1650911414570150.0
-4.0,-5.0,-6.0,-14.0,-24.0,-23.0,-25.0,-23.0,1650911414571984.0
10.0,6.0,32.0,1.0,-6.0,-2.0,5.0,17.0,1650911414571984.0
-3.0,1.0,-13.0,-3.0,-3.0,-4.0,-13.0,-21.0,1650911414583618.0
-8.0,16.0,5.0,10.0,15.0,8.0,8.0,17.0,1650911414583618.0
12.0,-7.0,-3.0,1.0,7.0,15.0,30.0,36.0,1650911414592592.0
29.0,17.0,16.0,7.0,2.0,2.0,-18.0,-45.0,1650911414592592.0
-39.0,-34.0,-36.0,-10.0,-3.0,-9.0,5.0,17.0,1650911414607602.0
28.0,-14.0,-6.0,-9.0,-11.0,1.0,-11.0,-12.0,1650911414607602.0
-37.0,-5.0,-12.0,-8.0,-3.0,-2.0,-23.0,-53.0,1650911414608600.0
1.0,-9.0,-1.0,-8.0,-2.0,-9.0,2.0,13.0,1650911414608600.0
-7.0,15.0,12.0,4.0,-1.0,3.0,1.0,-3.0,1650911414629877.0
9.0,-2.0,-9.0,-2.0,5.0,-1.0,20.0,42.0,1650911414629877.0
3.0,15.0,13.0,-1.0,-2.0,5.0,7.0,20.0,1650911414631873.0
-11.0,-21.0,-7.0,4.0,2.0,6.0,3.0,-17.0,1650911414631873.0
-14.0,-13.0,-1.0,1.0,-4.0,-4.0,-13.0,-1.0,1650911414644083.0
-27.0,-9.0,2.0,1.0,5.0,2.0,14.0,-2.0,1650911414644083.0
-3.0,-20.0,-12.0,8.0,10.0,9.0,5.0,30.0,1650911414652834.0
17.0,8.0,-5.0,0.0,4.0,5.0,3.0,14.0,1650911414652834.0
-5.0,6.0,6.0,-1.0,-5.0,-10.0,-7.0,-17.0,1650911414667948.0
-6.0,-24.0,-26.0,-2.0,-3.0,5.0,10.0,5.0,1650911414667948.0
13.0,27.0,7.0,-3.0,-1.0,-3.0,0.0,1.0,1650911414668950.0
-9.0,7.0,-15.0,2.0,1.0,-1.0,-4.0,5.0,1650911414668950.0
-11.0,-15.0,26.0,-9.0,-7.0,-3.0,-7.0,-11.0,1650911414689892.0
-21.0,-1.0,13.0,3.0,0.0,4.0,11.0,9.0,1650911414689892.0
4.0,17.0,11.0,0.0,-10.0,-11.0,-2.0,-22.0,1650911414691891.0
-2.0,6.0,-6.0,-1.0,-9.0,5.0,6.0,19.0,1650911414691891.0
25.0,13.0,7.0,24.0,25.0,9.0,10.0,14.0,1650911414704035.0
-6.0,16.0,10.0,-8.0,3.0,-7.0,-19.0,-41.0,1650911414704035.0
-4.0,-20.0,-9.0,-6.0,0.0,8.0,12.0,20.0,1650911414712170.0
5.0,4.0,11.0,-8.0,-11.0,-24.0,-38.0,-38.0,1650911414712170.0
10.0,1.0,-33.0,-21.0,-27.0,-6.0,1.0,6.0,1650911414728938.0
-60.0,-36.0,2.0,7.0,17.0,7.0,12.0,14.0,1650911414728938.0
18.0,14.0,17.0,0.0,-4.0,2.0,-8.0,-7.0,1650911414734084.0
-2.0,-9.0,10.0,10.0,-1.0,-3.0,-4.0,5.0,1650911414734084.0
3.0,1.0,-30.0,-17.0,-10.0,-7.0,-3.0,-15.0,1650911414751126.0
35.0,13.0,19.0,6.0,2.0,6.0,15.0,22.0,1650911414751126.0
-6.0,-2.0,1.0,2.0,12.0,7.0,6.0,-12.0,1650911414751996.0
-21.0,-24.0,1.0,1.0,7.0,6.0,0.0,-5.0,1650911414751996.0
10.0,9.0,-2.0,4.0,6.0,2.0,0.0,20.0,1650911414763421.0
-2.0,24.0,-9.0,-2.0,-4.0,0.0,-6.0,-11.0,1650911414763421.0
-5.0,-15.0,3.0,-2.0,-6.0,-8.0,-5.0,1.0,1650911414778488.0
7.0,9.0,-20.0,1.0,5.0,11.0,12.0,14.0,1650911414778488.0
-4.0,27.0,18.0,6.0,11.0,5.0,12.0,4.0,1650911414787634.0
8.0,-35.0,-24.0,-5.0,-6.0,-11.0,-10.0,-18.0,1650911414787634.0
-7.0,11.0,5.0,3.0,1.0,-5.0,-7.0,8.0,1650911414788522.0
9.0,2.0,3.0,-6.0,-6.0,-3.0,6.0,4.0,1650911414788522.0
-10.0,17.0,23.0,5.0,-6.0,4.0,1.0,-7.0,1650911414825983.0
16.0,-6.0,-24.0,-7.0,1.0,6.0,13.0,28.0,1650911414825983.0
-32.0,-42.0,-19.0,6.0,6.0,-1.0,6.0,6.0,1650911414826984.0
-5.0,-2.0,-4.0,-9.0,-18.0,-5.0,-6.0,-19.0,1650911414826984.0
32.0,-5.0,20.0,8.0,9.0,6.0,14.0,10.0,1650911414827980.0
8.0,42.0,16.0,14.0,17.0,2.0,-11.0,-1.0,1650911414827980.0
-12.0,-30.0,15.0,-1.0,9.0,10.0,0.0,-4.0,1650911414833000.0
2.0,0.0,-6.0,-16.0,-17.0,-11.0,0.0,4.0,1650911414833000.0
-14.0,-19.0,-21.0,-6.0,-10.0,-14.0,-24.0,-13.0,1650911414848215.0
15.0,8.0,-28.0,7.0,5.0,3.0,4.0,4.0,1650911414848215.0
-14.0,-6.0,-5.0,-29.0,-26.0,-17.0,-15.0,-8.0,1650911414849054.0
3.0,51.0,24.0,18.0,-2.0,5.0,11.0,-6.0,1650911414849054.0
5.0,13.0,23.0,5.0,14.0,10.0,6.0,3.0,1650911414871055.0
0.0,-33.0,-11.0,4.0,16.0,7.0,-4.0,8.0,1650911414871055.0
20.0,57.0,44.0,15.0,7.0,-1.0,-1.0,9.0,1650911414871055.0
-15.0,-48.0,-30.0,-22.0,-18.0,-7.0,-8.0,-25.0,1650911414871055.0
0.0,9.0,0.0,-4.0,-15.0,-8.0,-3.0,5.0,1650911414892802.0
-5.0,-7.0,10.0,5.0,6.0,1.0,-3.0,-12.0,1650911414892802.0
12.0,13.0,-6.0,11.0,9.0,7.0,8.0,18.0,1650911414893802.0
-7.0,-7.0,3.0,-8.0,-3.0,-1.0,2.0,3.0,1650911414893802.0
14.0,-8.0,-2.0,6.0,7.0,4.0,6.0,5.0,1650911414907155.0
17.0,34.0,27.0,1.0,-6.0,-4.0,-2.0,-7.0,1650911414907155.0
-10.0,-13.0,4.0,8.0,3.0,3.0,5.0,-5.0,1650911414913296.0
-10.0,8.0,8.0,7.0,0.0,1.0,-16.0,5.0,1650911414913296.0
2.0,-33.0,-59.0,-12.0,2.0,-1.0,5.0,-14.0,1650911414930025.0
-7.0,9.0,20.0,-1.0,-7.0,-7.0,-32.0,-17.0,1650911414930025.0
29.0,28.0,-3.0,3.0,-3.0,0.0,3.0,3.0,1650911414931060.0
7.0,-15.0,10.0,-6.0,2.0,4.0,20.0,33.0,1650911414931060.0
-39.0,-2.0,30.0,12.0,7.0,3.0,-1.0,-16.0,1650911414953394.0
5.0,-3.0,17.0,8.0,7.0,18.0,1.0,-7.0,1650911414953394.0
-15.0,-2.0,-25.0,-20.0,-9.0,-14.0,-6.0,-15.0,1650911414953545.0
-1.0,-27.0,-9.0,-2.0,-5.0,-9.0,-1.0,2.0,1650911414953545.0
23.0,41.0,22.0,11.0,-7.0,0.0,3.0,6.0,1650911414969580.0
-22.0,-31.0,12.0,-3.0,4.0,3.0,5.0,2.0,1650911414969580.0
17.0,-15.0,-51.0,6.0,21.0,14.0,1.0,11.0,1650911414969857.0
-19.0,39.0,28.0,-6.0,-7.0,-3.0,2.0,-7.0,1650911414969857.0
7.0,5.0,-2.0,9.0,1.0,1.0,-3.0,4.0,1650911414989878.0
16.0,2.0,-12.0,-2.0,-4.0,0.0,22.0,32.0,1650911414989878.0
-11.0,53.0,28.0,6.0,-1.0,2.0,-7.0,-18.0,1650911414991906.0
3.0,-13.0,-10.0,-6.0,-3.0,-10.0,-11.0,-5.0,1650911414991906.0
-10.0,-14.0,8.0,3.0,-2.0,-1.0,-6.0,-3.0,1650911415013176.0
14.0,18.0,-15.0,-5.0,-6.0,-2.0,6.0,5.0,1650911415013176.0
-4.0,-9.0,26.0,3.0,0.0,0.0,4.0,-5.0,1650911415014042.0
-27.0,-16.0,-58.0,-15.0,1.0,-3.0,-8.0,20.0,1650911415014042.0
6.0,11.0,13.0,-2.0,-2.0,0.0,3.0,-7.0,1650911415034396.0
11.0,12.0,11.0,-5.0,-11.0,-6.0,-6.0,-7.0,1650911415034396.0
26.0,5.0,-10.0,8.0,3.0,2.0,7.0,20.0,1650911415036393.0
-12.0,11.0,27.0,-4.0,0.0,-2.0,-16.0,-25.0,1650911415036393.0
5.0,-38.0,-12.0,5.0,2.0,3.0,12.0,4.0,1650911415050356.0
-19.0,-51.0,-33.0,-24.0,-13.0,-14.0,-19.0,-14.0,1650911415050356.0
-2.0,27.0,13.0,-4.0,-14.0,-12.0,-19.0,-9.0,1650911415051354.0
46.0,28.0,1.0,16.0,17.0,14.0,28.0,15.0,1650911415051354.0
-38.0,-17.0,-33.0,-13.0,10.0,2.0,-8.0,-1.0,1650911415072469.0
-19.0,-2.0,-17.0,-1.0,-11.0,-6.0,0.0,-32.0,1650911415072469.0
0.0,-30.0,-25.0,-22.0,-27.0,-19.0,-10.0,0.0,1650911415074449.0
7.0,18.0,27.0,15.0,9.0,1.0,2.0,13.0,1650911415074449.0
5.0,35.0,9.0,-8.0,14.0,9.0,-15.0,-16.0,1650911415086416.0
-10.0,-37.0,-51.0,-9.0,7.0,6.0,12.0,11.0,1650911415086416.0
5.0,5.0,12.0,10.0,9.0,10.0,11.0,14.0,1650911415093397.0
17.0,16.0,-11.0,4.0,-15.0,-9.0,-1.0,1.0,1650911415093397.0
-17.0,-8.0,14.0,-20.0,-25.0,-20.0,-15.0,-1.0,1650911415110015.0
3.0,15.0,26.0,14.0,15.0,8.0,3.0,-2.0,1650911415110015.0
15.0,-9.0,6.0,6.0,10.0,5.0,9.0,8.0,1650911415111015.0
-1.0,-12.0,-14.0,-2.0,-1.0,1.0,2.0,-20.0,1650911415111015.0
10.0,0.0,9.0,9.0,-3.0,0.0,4.0,36.0,1650911415133378.0
7.0,41.0,23.0,2.0,1.0,1.0,-6.0,4.0,1650911415133378.0
-3.0,-10.0,-14.0,-8.0,-3.0,4.0,9.0,-4.0,1650911415134411.0
-15.0,7.0,16.0,14.0,8.0,5.0,-8.0,-11.0,1650911415134411.0
1.0,-19.0,-35.0,-16.0,-12.0,-4.0,4.0,-14.0,1650911415156498.0
-16.0,24.0,36.0,12.0,4.0,3.0,8.0,13.0,1650911415156498.0
21.0,-2.0,-40.0,-9.0,8.0,-1.0,-4.0,6.0,1650911415161363.0
19.0,24.0,61.0,8.0,7.0,6.0,18.0,5.0,1650911415161363.0
-27.0,-65.0,-29.0,-9.0,-14.0,-10.0,-12.0,-12.0,1650911415176990.0
2.0,-1.0,15.0,-4.0,-5.0,-4.0,-12.0,-6.0,1650911415176990.0
-13.0,4.0,-4.0,-3.0,8.0,7.0,0.0,-8.0,1650911415178951.0
-8.0,-12.0,-13.0,6.0,9.0,-2.0,-8.0,-15.0,1650911415178951.0
15.0,-14.0,-4.0,0.0,-5.0,1.0,11.0,16.0,1650911415193257.0
-11.0,-9.0,8.0,-9.0,-20.0,-15.0,-12.0,-10.0,1650911415193257.0
-3.0,12.0,29.0,9.0,4.0,2.0,-6.0,-5.0,1650911415199832.0
-21.0,-44.0,-26.0,-13.0,-2.0,0.0,-5.0,-10.0,1650911415199832.0
9.0,33.0,21.0,14.0,11.0,6.0,3.0,0.0,1650911415206817.0
14.0,11.0,8.0,0.0,-2.0,-1.0,-2.0,-4.0,1650911415206817.0
6.0,-3.0,6.0,-4.0,-9.0,-2.0,9.0,5.0,1650911415221018.0
-7.0,-29.0,-46.0,-5.0,3.0,-3.0,-2.0,23.0,1650911415221018.0
-10.0,-11.0,-3.0,0.0,-1.0,5.0,0.0,-12.0,1650911415229993.0
-2.0,-5.0,-13.0,-3.0,2.0,6.0,4.0,0.0,1650911415229993.0
1.0,-22.0,2.0,6.0,2.0,-1.0,-17.0,-31.0,1650911415230990.0
-4.0,25.0,2.0,3.0,3.0,4.0,12.0,19.0,1650911415230990.0
9.0,27.0,4.0,-11.0,-12.0,-10.0,-4.0,-11.0,1650911415252096.0
9.0,6.0,0.0,0.0,-4.0,-11.0,-3.0,4.0,1650911415252096.0
-10.0,7.0,5.0,14.0,11.0,8.0,15.0,23.0,1650911415253930.0
4.0,20.0,8.0,0.0,-5.0,-1.0,-10.0,-14.0,1650911415253930.0
-14.0,-6.0,-22.0,-11.0,-4.0,-3.0,-5.0,-4.0,1650911415267255.0
20.0,41.0,17.0,14.0,3.0,8.0,7.0,-2.0,1650911415267255.0
-18.0,-28.0,-6.0,-18.0,-17.0,-13.0,-3.0,3.0,1650911415273883.0
21.0,3.0,7.0,10.0,16.0,11.0,12.0,13.0,1650911415273883.0
-7.0,-15.0,-8.0,-4.0,8.0,5.0,1.0,-4.0,1650911415289888.0
12.0,-5.0,-11.0,-5.0,-4.0,3.0,5.0,13.0,1650911415289888.0
-7.0,-7.0,-4.0,1.0,-6.0,-12.0,-1.0,-3.0,1650911415291884.0
7.0,20.0,14.0,5.0,4.0,4.0,-2.0,5.0,1650911415291884.0
-6.0,-31.0,-16.0,0.0,11.0,3.0,-2.0,-21.0,1650911415313225.0
10.0,-16.0,-12.0,9.0,10.0,10.0,7.0,16.0,1650911415313225.0
-26.0,1.0,8.0,-1.0,-8.0,-5.0,-21.0,-24.0,1650911415314202.0
2.0,0.0,-6.0,-9.0,-10.0,-8.0,5.0,-8.0,1650911415314202.0
-16.0,-24.0,11.0,-6.0,-10.0,-8.0,1.0,12.0,1650911415327336.0
4.0,11.0,-12.0,-4.0,5.0,1.0,0.0,-6.0,1650911415327336.0
18.0,42.0,32.0,21.0,5.0,1.0,1.0,7.0,1650911415333408.0
-9.0,-37.0,-42.0,-20.0,-12.0,-7.0,-12.0,-8.0,1650911415333408.0
17.0,40.0,19.0,5.0,3.0,8.0,9.0,8.0,1650911415350705.0
-23.0,-13.0,12.0,-1.0,-3.0,-4.0,-8.0,10.0,1650911415350705.0
-4.0,9.0,-19.0,-8.0,-5.0,1.0,16.0,-10.0,1650911415351553.0
-5.0,-12.0,42.0,11.0,-3.0,6.0,3.0,6.0,1650911415351553.0
0.0,11.0,3.0,0.0,3.0,-4.0,7.0,13.0,1650911415373164.0
13.0,16.0,13.0,7.0,15.0,-2.0,-9.0,-1.0,1650911415373164.0
-4.0,-34.0,-4.0,5.0,5.0,15.0,12.0,-5.0,1650911415374009.0
3.0,-14.0,-45.0,-13.0,-1.0,-3.0,-6.0,-8.0,1650911415374009.0
10.0,20.0,26.0,15.0,2.0,4.0,-4.0,-5.0,1650911415386173.0
-6.0,20.0,18.0,3.0,-7.0,-3.0,3.0,2.0,1650911415386173.0
2.0,20.0,-1.0,-7.0,-3.0,-4.0,-5.0,5.0,1650911415395088.0
-6.0,-67.0,-11.0,-9.0,-3.0,0.0,0.0,-10.0,1650911415395088.0
9.0,4.0,-19.0,-5.0,3.0,1.0,4.0,17.0,1650911415410017.0
-8.0,-28.0,-20.0,7.0,2.0,10.0,3.0,-8.0,1650911415410017.0
-2.0,-1.0,4.0,-9.0,-16.0,-18.0,-8.0,-2.0,1650911415411051.0
7.0,53.0,22.0,3.0,-5.0,1.0,0.0,6.0,1650911415411051.0
10.0,-46.0,-24.0,-6.0,-2.0,-10.0,-12.0,-14.0,1650911415440230.0
-20.0,-15.0,-2.0,-11.0,-5.0,-2.0,2.0,-7.0,1650911415440230.0
13.0,-2.0,-11.0,3.0,7.0,12.0,9.0,19.0,1650911415441228.0
-28.0,-26.0,-16.0,-11.0,-10.0,-15.0,-23.0,-10.0,1650911415441228.0
12.0,27.0,22.0,7.0,1.0,4.0,13.0,-4.0,1650911415456156.0
20.0,-7.0,-21.0,-2.0,0.0,-4.0,-4.0,1.0,1650911415456156.0
-29.0,-26.0,7.0,-7.0,-2.0,3.0,1.0,-5.0,1650911415457030.0
-16.0,-14.0,-18.0,3.0,4.0,-2.0,-12.0,-3.0,1650911415457030.0
-19.0,-11.0,8.0,0.0,-11.0,-3.0,-5.0,-25.0,1650911415470308.0
15.0,-26.0,-45.0,-19.0,-12.0,-6.0,10.0,40.0,1650911415470308.0
-32.0,-14.0,0.0,7.0,10.0,-6.0,-4.0,-23.0,1650911415471142.0
-9.0,21.0,31.0,10.0,6.0,8.0,1.0,5.0,1650911415471142.0
2.0,32.0,24.0,2.0,-3.0,-5.0,-12.0,4.0,1650911415493000.0
0.0,16.0,10.0,-3.0,-4.0,1.0,-1.0,-21.0,1650911415493000.0
-6.0,-6.0,-2.0,0.0,2.0,-3.0,-2.0,3.0,1650911415494000.0
18.0,9.0,19.0,6.0,1.0,5.0,18.0,10.0,1650911415494000.0
4.0,10.0,3.0,12.0,11.0,11.0,8.0,7.0,1650911415506504.0
-11.0,2.0,-7.0,-2.0,6.0,-5.0,-1.0,-8.0,1650911415506504.0
20.0,3.0,-4.0,5.0,19.0,8.0,6.0,9.0,1650911415521659.0
-9.0,-24.0,-6.0,-8.0,-15.0,-4.0,1.0,-7.0,1650911415521659.0
18.0,4.0,-5.0,-6.0,-5.0,-6.0,-10.0,14.0,1650911415529644.0
-6.0,-5.0,10.0,-3.0,-11.0,-5.0,13.0,-4.0,1650911415529644.0
0.0,-3.0,-4.0,-1.0,1.0,1.0,-17.0,-5.0,1650911415537021.0
17.0,26.0,-6.0,14.0,20.0,14.0,11.0,-1.0,1650911415537021.0
-6.0,-4.0,7.0,6.0,7.0,5.0,4.0,4.0,1650911415553346.0
13.0,16.0,40.0,-1.0,-9.0,-7.0,-1.0,0.0,1650911415553346.0
14.0,-5.0,-14.0,-18.0,-17.0,0.0,-8.0,-5.0,1650911415554377.0
-21.0,4.0,-20.0,-6.0,-11.0,-16.0,-2.0,3.0,1650911415554377.0
0.0,-6.0,-6.0,4.0,-1.0,8.0,8.0,2.0,1650911415566475.0
-2.0,8.0,13.0,11.0,14.0,-7.0,-26.0,-15.0,1650911415566475.0
-11.0,-37.0,-34.0,-15.0,-9.0,-1.0,5.0,5.0,1650911415575631.0
13.0,3.0,8.0,3.0,4.0,6.0,-4.0,-1.0,1650911415575631.0
6.0,31.0,26.0,8.0,17.0,9.0,7.0,1.0,1650911415589886.0
-10.0,-19.0,-38.0,2.0,-2.0,4.0,-4.0,-6.0,1650911415589886.0
14.0,20.0,1.0,-5.0,-15.0,-7.0,2.0,3.0,1650911415591918.0
-10.0,-17.0,4.0,-7.0,-10.0,-15.0,-9.0,-10.0,1650911415591918.0
0.0,-5.0,-11.0,-15.0,-13.0,-6.0,-3.0,-2.0,1650911415613175.0
-6.0,-5.0,0.0,-1.0,2.0,12.0,6.0,0.0,1650911415613175.0
4.0,10.0,15.0,8.0,15.0,7.0,0.0,3.0,1650911415614136.0
3.0,0.0,-1.0,4.0,-6.0,-7.0,2.0,0.0,1650911415614136.0
0.0,8.0,0.0,-17.0,-13.0,-5.0,-5.0,4.0,1650911415626581.0
-12.0,-5.0,8.0,-2.0,8.0,2.0,1.0,-3.0,1650911415626581.0
3.0,-5.0,-9.0,0.0,-14.0,1.0,1.0,0.0,1650911415635305.0
1.0,13.0,4.0,0.0,4.0,0.0,-4.0,-3.0,1650911415635305.0
1.0,-5.0,4.0,7.0,0.0,-2.0,-4.0,-3.0,1650911415651095.0
-5.0,-1.0,-7.0,-9.0,-3.0,-20.0,-8.0,-5.0,1650911415651095.0
5.0,-4.0,3.0,10.0,0.0,-4.0,-2.0,3.0,1650911415651095.0
4.0,8.0,11.0,15.0,24.0,17.0,0.0,-1.0,1650911415651095.0
1.0,2.0,-11.0,7.0,10.0,8.0,14.0,-3.0,1650911415673192.0
-8.0,-12.0,6.0,-5.0,-9.0,0.0,-7.0,-7.0,1650911415673192.0
0.0,3.0,-3.0,-15.0,-7.0,-6.0,-2.0,-1.0,1650911415674155.0
0.0,-19.0,-15.0,-5.0,-15.0,-14.0,-7.0,-1.0,1650911415674155.0
-5.0,-6.0,-29.0,-3.0,-9.0,-5.0,-4.0,-1.0,1650911415686353.0
-3.0,-8.0,2.0,2.0,-4.0,1.0,-1.0,-4.0,1650911415686353.0
-1.0,-2.0,-1.0,-6.0,1.0,-3.0,-3.0,0.0,1650911415695460.0
2.0,5.0,-4.0,-8.0,7.0,8.0,5.0,4.0,1650911415695460.0
-4.0,3.0,7.0,7.0,5.0,3.0,-8.0,-16.0,1650911415710656.0
10.0,5.0,9.0,18.0,11.0,4.0,11.0,8.0,1650911415710656.0
-1.0,1.0,15.0,4.0,-17.0,-5.0,-5.0,2.0,1650911415711494.0
-3.0,-9.0,-37.0,-4.0,5.0,3.0,9.0,3.0,1650911415711494.0
-13.0,2.0,9.0,-14.0,-1.0,-6.0,-1.0,4.0,1650911415733171.0
9.0,-3.0,-13.0,-15.0,-7.0,3.0,0.0,-2.0,1650911415733171.0
0.0,-2.0,-16.0,-6.0,-2.0,-5.0,-10.0,-7.0,1650911415734042.0
3.0,4.0,22.0,17.0,0.0,-8.0,6.0,-3.0,1650911415734042.0
-1.0,-3.0,-3.0,3.0,0.0,-4.0,-1.0,2.0,1650911415746988.0
-11.0,6.0,15.0,7.0,5.0,-3.0,-6.0,1.0,1650911415746988.0
1.0,1.0,-12.0,5.0,12.0,8.0,7.0,2.0,1650911415754997.0
6.0,-4.0,9.0,-7.0,-6.0,4.0,-9.0,-4.0,1650911415754997.0
-13.0,-6.0,-6.0,4.0,-7.0,-3.0,1.0,3.0,1650911415777990.0
1.0,-2.0,-25.0,-21.0,-9.0,-2.0,1.0,5.0,1650911415777990.0
7.0,5.0,-1.0,0.0,6.0,2.0,-2.0,-6.0,1650911415784666.0
1.0,6.0,13.0,11.0,-3.0,-1.0,-8.0,3.0,1650911415784666.0
2.0,-5.0,8.0,18.0,14.0,-2.0,-3.0,2.0,1650911415799987.0
-2.0,-5.0,-12.0,-5.0,-13.0,-4.0,13.0,-1.0,1650911415799987.0
-5.0,-3.0,-12.0,-19.0,-10.0,-2.0,-4.0,-2.0,1650911415801014.0
-1.0,-2.0,5.0,-10.0,11.0,7.0,1.0,-1.0,1650911415801014.0
7.0,7.0,-3.0,-3.0,5.0,5.0,-2.0,2.0,1650911415815124.0
0.0,1.0,0.0,5.0,-2.0,-2.0,-7.0,-3.0,1650911415815124.0
1.0,1.0,20.0,30.0,8.0,-2.0,3.0,2.0,1650911415816123.0
-4.0,0.0,-8.0,-25.0,-21.0,-9.0,2.0,-4.0,1650911415816123.0
-1.0,-3.0,-4.0,-9.0,-10.0,0.0,-4.0,-2.0,1650911415829989.0
-1.0,-1.0,5.0,1.0,7.0,11.0,0.0,-1.0,1650911415829989.0
4.0,18.0,18.0,6.0,14.0,5.0,5.0,2.0,1650911415830989.0
-3.0,-21.0,-33.0,5.0,-5.0,-6.0,-1.0,-3.0,1650911415830989.0
-1.0,1.0,8.0,-8.0,-1.0,-5.0,-4.0,-1.0,1650911415853031.0
-2.0,-2.0,-11.0,-3.0,-6.0,-3.0,0.0,-3.0,1650911415853031.0
-2.0,-4.0,1.0,3.0,10.0,7.0,3.0,2.0,1650911415854031.0
5.0,6.0,5.0,10.0,14.0,10.0,2.0,4.0,1650911415854031.0
2.0,-5.0,-5.0,-11.0,-13.0,-11.0,4.0,-2.0,1650911415875948.0
-6.0,-5.0,-12.0,-5.0,-7.0,-5.0,-5.0,-4.0,1650911415875948.0
-2.0,-4.0,-4.0,-4.0,-1.0,4.0,-1.0,1.0,1650911415876506.0
3.0,6.0,3.0,-7.0,-6.0,-5.0,-2.0,-2.0,1650911415876506.0
-1.0,0.0,18.0,18.0,0.0,1.0,1.0,1.0,1650911415888670.0
6.0,5.0,-8.0,-1.0,9.0,6.0,1.0,4.0,1650911415888670.0
0.0,-3.0,16.0,10.0,1.0,-3.0,2.0,-2.0,1650911415897667.0
-6.0,-4.0,-3.0,-5.0,-2.0,-1.0,-4.0,-5.0,1650911415897667.0
-1.0,-2.0,-13.0,-6.0,-1.0,2.0,1.0,0.0,1650911415912222.0
3.0,3.0,24.0,9.0,0.0,-2.0,1.0,2.0,1650911415912222.0
-4.0,-1.0,-12.0,-5.0,-1.0,5.0,0.0,2.0,1650911415914219.0
-4.0,4.0,15.0,4.0,1.0,-1.0,-3.0,4.0,1650911415914219.0
5.0,-3.0,-12.0,1.0,-3.0,-6.0,-3.0,-4.0,1650911415935352.0
-3.0,1.0,13.0,0.0,4.0,-5.0,1.0,-4.0,1650911415935352.0
6.0,-6.0,-17.0,-8.0,-24.0,-4.0,-2.0,-1.0,1650911415936196.0
-3.0,11.0,25.0,10.0,12.0,-1.0,4.0,-1.0,1650911415936196.0
2.0,-1.0,-4.0,-2.0,16.0,10.0,0.0,4.0,1650911415949513.0
2.0,13.0,7.0,10.0,14.0,7.0,0.0,3.0,1650911415949513.0
-5.0,-13.0,6.0,-2.0,-6.0,-9.0,-2.0,-3.0,1650911415956479.0
2.0,-1.0,-13.0,-3.0,-9.0,3.0,1.0,2.0,1650911415956479.0
0.0,-2.0,-24.0,-20.0,0.0,5.0,-1.0,-2.0,1650911415973141.0
-2.0,-3.0,5.0,1.0,-9.0,-6.0,-1.0,-1.0,1650911415973141.0
-2.0,5.0,1.0,0.0,-5.0,-6.0,-1.0,0.0,1650911415974177.0
2.0,0.0,8.0,3.0,7.0,0.0,0.0,1.0,1650911415974177.0
-1.0,0.0,6.0,7.0,4.0,3.0,1.0,0.0,1650911415994530.0
-4.0,-2.0,-5.0,-3.0,1.0,4.0,1.0,0.0,1650911415994530.0
-7.0,-2.0,-8.0,-12.0,-16.0,-15.0,-5.0,-4.0,1650911415996562.0
4.0,-2.0,-5.0,-7.0,-7.0,-2.0,0.0,-3.0,1650911415996562.0
2.0,4.0,14.0,7.0,3.0,1.0,0.0,-1.0,1650911416009642.0
-1.0,0.0,-6.0,2.0,5.0,6.0,1.0,-1.0,1650911416009642.0
3.0,2.0,12.0,8.0,6.0,3.0,3.0,2.0,1650911416016960.0
11.0,-1.0,-7.0,-5.0,-5.0,0.0,0.0,0.0,1650911416016960.0
-15.0,-8.0,-6.0,-3.0,-5.0,-2.0,1.0,0.0,1650911416033374.0
1.0,6.0,-1.0,-5.0,-1.0,0.0,-9.0,-2.0,1650911416033374.0
-5.0,-5.0,1.0,3.0,7.0,-7.0,6.0,-1.0,1650911416034347.0
4.0,1.0,-2.0,0.0,0.0,2.0,-1.0,-1.0,1650911416034347.0
4.0,2.0,1.0,1.0,2.0,2.0,1.0,0.0,1650911416062488.0
0.0,-2.0,-5.0,-3.0,-6.0,0.0,0.0,1.0,1650911416062488.0
0.0,1.0,1.0,2.0,8.0,5.0,0.0,2.0,1650911416064326.0
-8.0,-1.0,-7.0,-1.0,-1.0,2.0,2.0,-3.0,1650911416064326.0
5.0,2.0,3.0,-1.0,-12.0,-9.0,-4.0,-1.0,1650911416079285.0
-2.0,-8.0,-5.0,-4.0,-7.0,-8.0,-3.0,-3.0,1650911416079285.0
2.0,10.0,3.0,1.0,6.0,6.0,-3.0,0.0,1650911416080284.0
0.0,-1.0,8.0,10.0,4.0,3.0,5.0,1.0,1650911416080284.0
-1.0,-2.0,-13.0,-13.0,-1.0,1.0,1.0,0.0,1650911416092285.0
0.0,-2.0,-1.0,1.0,6.0,5.0,2.0,1.0,1650911416092285.0
-5.0,-13.0,-5.0,-5.0,-4.0,-3.0,-2.0,-2.0,1650911416099439.0
-4.0,-1.0,-3.0,-3.0,-12.0,-8.0,-4.0,-2.0,1650911416099439.0
3.0,5.0,14.0,16.0,6.0,-1.0,2.0,-1.0,1650911416115208.0
-3.0,0.0,-10.0,-6.0,3.0,-1.0,0.0,0.0,1650911416115208.0
0.0,-6.0,-6.0,-3.0,5.0,5.0,0.0,1.0,1650911416116905.0
-1.0,5.0,5.0,-3.0,-2.0,1.0,2.0,0.0,1650911416116905.0
2.0,3.0,6.0,1.0,-5.0,-6.0,-2.0,-2.0,1650911416129782.0
-5.0,-10.0,-20.0,-13.0,-29.0,-10.0,-5.0,-3.0,1650911416129782.0
-2.0,7.0,-1.0,-2.0,-5.0,-5.0,-1.0,-3.0,1650911416135875.0
10.0,2.0,2.0,1.0,16.0,4.0,2.0,2.0,1650911416135875.0
-12.0,0.0,3.0,6.0,12.0,5.0,3.0,4.0,1650911416153045.0
0.0,0.0,11.0,8.0,8.0,5.0,2.0,-1.0,1650911416153045.0
1.0,3.0,-3.0,-7.0,-6.0,-5.0,-1.0,0.0,1650911416154045.0
1.0,-3.0,-4.0,-5.0,-17.0,-5.0,-1.0,-2.0,1650911416154045.0
0.0,-1.0,1.0,-4.0,4.0,3.0,1.0,-1.0,1650911416175347.0
-2.0,-1.0,8.0,5.0,5.0,1.0,-4.0,0.0,1650911416175347.0
1.0,-1.0,-5.0,1.0,-7.0,0.0,4.0,0.0,1650911416176347.0
-4.0,1.0,9.0,8.0,7.0,-1.0,-1.0,2.0,1650911416176347.0
2.0,2.0,4.0,3.0,2.0,3.0,-1.0,0.0,1650911416189497.0
-2.0,-4.0,-3.0,-4.0,-2.0,-5.0,0.0,0.0,1650911416189497.0
3.0,2.0,3.0,-1.0,-2.0,2.0,1.0,0.0,1650911416197019.0
-3.0,-3.0,-2.0,-1.0,-1.0,3.0,0.0,-3.0,1650911416197019.0
0.0,1.0,-5.0,-6.0,-3.0,-3.0,-1.0,1.0,1650911416213175.0
-1.0,-9.0,0.0,3.0,4.0,0.0,0.0,0.0,1650911416213175.0
7.0,8.0,5.0,0.0,4.0,-5.0,-4.0,0.0,1650911416214046.0
-19.0,-3.0,-8.0,-6.0,-8.0,-3.0,-1.0,-2.0,1650911416214046.0
3.0,-4.0,-12.0,-7.0,-11.0,-6.0,-4.0,-2.0,1650911416235493.0
1.0,2.0,5.0,3.0,-1.0,1.0,2.0,-2.0,1650911416235493.0
-1.0,-5.0,-4.0,4.0,19.0,13.0,2.0,0.0,1650911416236492.0
0.0,0.0,-5.0,-4.0,0.0,3.0,1.0,2.0,1650911416236492.0
0.0,-7.0,-2.0,2.0,-5.0,-8.0,-4.0,-1.0,1650911416249620.0
-4.0,1.0,-7.0,-14.0,-16.0,0.0,-4.0,-2.0,1650911416249620.0
0.0,1.0,2.0,1.0,-11.0,-10.0,1.0,-3.0,1650911416263951.0
4.0,-3.0,3.0,6.0,20.0,6.0,3.0,0.0,1650911416263951.0
0.0,6.0,-4.0,3.0,10.0,6.0,0.0,1.0,1650911416272011.0
3.0,3.0,8.0,1.0,4.0,-2.0,-1.0,-3.0,1650911416272011.0
-3.0,1.0,1.0,-1.0,-5.0,2.0,-1.0,0.0,1650911416274008.0
-1.0,-7.0,-18.0,-12.0,-13.0,-10.0,-4.0,-2.0,1650911416274008.0
0.0,-1.0,8.0,0.0,-8.0,-5.0,-2.0,-2.0,1650911416295362.0
0.0,-1.0,-8.0,-3.0,0.0,-1.0,2.0,3.0,1650911416295362.0
1.0,0.0,-1.0,0.0,3.0,2.0,-1.0,0.0,1650911416296363.0
-2.0,-3.0,-2.0,3.0,11.0,6.0,1.0,0.0,1650911416296363.0
1.0,0.0,-3.0,-3.0,0.0,2.0,0.0,0.0,1650911416308361.0
2.0,6.0,16.0,6.0,-8.0,-4.0,-3.0,0.0,1650911416308361.0
-4.0,-19.0,-26.0,-9.0,-1.0,-2.0,1.0,-1.0,1650911416317307.0
4.0,10.0,12.0,1.0,-5.0,-2.0,-3.0,0.0,1650911416317307.0
-2.0,-4.0,-3.0,4.0,-1.0,-1.0,1.0,-1.0,1650911416332835.0
10.0,12.0,0.0,4.0,11.0,7.0,1.0,2.0,1650911416332835.0
-21.0,0.0,-1.0,-3.0,-1.0,3.0,-2.0,-2.0,1650911416333662.0
3.0,-2.0,2.0,2.0,-11.0,-5.0,-3.0,1.0,1650911416333662.0
1.0,1.0,-6.0,-9.0,-4.0,-15.0,-4.0,1.0,1650911416356459.0
0.0,-3.0,1.0,-3.0,-10.0,-5.0,2.0,-1.0,1650911416356459.0
4.0,2.0,2.0,6.0,5.0,6.0,2.0,0.0,1650911416357344.0
2.0,7.0,6.0,3.0,14.0,8.0,2.0,2.0,1650911416357344.0
-3.0,-5.0,-5.0,-5.0,5.0,12.0,3.0,-2.0,1650911416368664.0
-1.0,-1.0,2.0,8.0,15.0,0.0,2.0,1.0,1650911416368664.0
2.0,-1.0,-11.0,-8.0,-8.0,-3.0,-2.0,0.0,1650911416377806.0
-4.0,-3.0,12.0,0.0,-13.0,-10.0,-4.0,-3.0,1650911416377806.0
4.0,1.0,-4.0,1.0,-5.0,-5.0,-1.0,0.0,1650911416392953.0
-2.0,1.0,0.0,0.0,-2.0,-2.0,0.0,0.0,1650911416392953.0
0.0,-2.0,1.0,-5.0,-7.0,-5.0,-4.0,-3.0,1650911416393953.0
1.0,-1.0,3.0,1.0,-1.0,-2.0,0.0,-2.0,1650911416393953.0
-2.0,-2.0,-5.0,-3.0,0.0,8.0,2.0,1.0,1650911416414444.0
-2.0,-5.0,-11.0,0.0,12.0,8.0,4.0,-1.0,1650911416414444.0
1.0,7.0,10.0,6.0,1.0,0.0,-2.0,2.0,1650911416416441.0
-1.0,-6.0,-12.0,4.0,3.0,2.0,1.0,-1.0,1650911416416441.0
-1.0,3.0,4.0,-2.0,0.0,0.0,2.0,0.0,1650911416428786.0
-4.0,-3.0,1.0,1.0,-11.0,0.0,2.0,-1.0,1650911416428786.0
3.0,0.0,7.0,1.0,10.0,2.0,-3.0,0.0,1650911416437757.0
-3.0,-8.0,-16.0,-7.0,-10.0,-19.0,-5.0,-2.0,1650911416437757.0
-2.0,-3.0,5.0,1.0,-13.0,-8.0,-5.0,-2.0,1650911416452897.0
9.0,-1.0,-1.0,2.0,7.0,3.0,1.0,0.0,1650911416452897.0
-16.0,-1.0,6.0,7.0,14.0,5.0,1.0,0.0,1650911416453739.0
2.0,-1.0,-6.0,0.0,9.0,12.0,5.0,-1.0,1650911416453739.0
0.0,-2.0,-11.0,-6.0,-7.0,-3.0,-1.0,1.0,1650911416475379.0
-5.0,1.0,4.0,-4.0,-10.0,-11.0,-5.0,-4.0,1650911416475379.0
5.0,-2.0,-9.0,-6.0,-8.0,-7.0,-4.0,-1.0,1650911416476379.0
-3.0,-5.0,3.0,-2.0,-7.0,1.0,1.0,1.0,1650911416476379.0
-1.0,0.0,-5.0,-1.0,10.0,3.0,2.0,0.0,1650911416489081.0
-6.0,2.0,7.0,5.0,6.0,6.0,0.0,0.0,1650911416489081.0
5.0,3.0,0.0,2.0,6.0,6.0,2.0,-1.0,1650911416497019.0
-2.0,0.0,0.0,-4.0,-4.0,-3.0,-1.0,-1.0,1650911416497019.0
1.0,3.0,4.0,-1.0,-8.0,-4.0,-2.0,-3.0,1650911416512802.0
-3.0,1.0,-3.0,0.0,-2.0,-8.0,-4.0,-2.0,1650911416512802.0
1.0,-7.0,-10.0,-6.0,-6.0,-3.0,1.0,-1.0,1650911416513518.0
1.0,0.0,5.0,3.0,13.0,5.0,2.0,0.0,1650911416513518.0
0.0,-1.0,-1.0,5.0,6.0,4.0,0.0,0.0,1650911416535111.0
0.0,-4.0,-3.0,-8.0,-7.0,-1.0,-1.0,1.0,1650911416535111.0
-1.0,-2.0,-1.0,0.0,-15.0,-6.0,0.0,-1.0,1650911416536143.0
-2.0,-9.0,-5.0,-8.0,-5.0,-4.0,-4.0,-2.0,1650911416536143.0
0.0,0.0,1.0,2.0,11.0,8.0,-2.0,-2.0,1650911416548979.0
-2.0,-2.0,3.0,3.0,5.0,-1.0,0.0,0.0,1650911416548979.0
5.0,1.0,8.0,9.0,5.0,6.0,5.0,2.0,1650911416557793.0
1.0,1.0,-4.0,-1.0,1.0,5.0,1.0,0.0,1650911416557793.0
-2.0,-4.0,1.0,3.0,0.0,-2.0,1.0,1.0,1650911416573091.0
0.0,2.0,-1.0,-4.0,-7.0,-2.0,0.0,0.0,1650911416573091.0
-1.0,4.0,5.0,-1.0,-14.0,-12.0,-5.0,-2.0,1650911416574091.0
-3.0,-3.0,-2.0,-4.0,-8.0,-10.0,-2.0,-2.0,1650911416574091.0
2.0,6.0,6.0,7.0,9.0,6.0,-1.0,0.0,1650911416595485.0
6.0,-8.0,-11.0,-5.0,6.0,3.0,2.0,-1.0,1650911416595485.0
-12.0,-2.0,2.0,2.0,9.0,3.0,-2.0,1.0,1650911416596441.0
0.0,0.0,-9.0,-5.0,-8.0,0.0,-2.0,-4.0,1650911416596441.0
-1.0,-1.0,3.0,-1.0,-7.0,0.0,9.0,-1.0,1650911416608841.0
0.0,1.0,1.0,1.0,-4.0,-3.0,-3.0,0.0,1650911416608841.0
5.0,2.0,0.0,-2.0,3.0,0.0,0.0,0.0,1650911416618002.0
-3.0,-1.0,-10.0,-9.0,-9.0,-1.0,-10.0,-1.0,1650911416618002.0
-1.0,-1.0,1.0,2.0,-5.0,-16.0,-3.0,-1.0,1650911416632483.0
-4.0,0.0,2.0,8.0,24.0,11.0,4.0,0.0,1650911416632483.0
1.0,2.0,7.0,7.0,10.0,10.0,1.0,0.0,1650911416639523.0
0.0,3.0,-6.0,-6.0,-2.0,-1.0,2.0,2.0,1650911416639523.0
-2.0,-5.0,5.0,-3.0,-16.0,-9.0,-4.0,-2.0,1650911416655208.0
0.0,7.0,-7.0,-3.0,-12.0,-8.0,-2.0,-2.0,1650911416655208.0
1.0,-6.0,-3.0,-1.0,-11.0,-5.0,-2.0,-1.0,1650911416656235.0
1.0,7.0,13.0,10.0,14.0,8.0,2.0,0.0,1650911416656235.0
-2.0,-4.0,-3.0,6.0,17.0,15.0,3.0,1.0,1650911416669708.0
-4.0,-4.0,1.0,4.0,-4.0,-1.0,-1.0,-1.0,1650911416669708.0
-1.0,-3.0,-7.0,-8.0,-3.0,-4.0,1.0,-1.0,1650911416677733.0
0.0,1.0,3.0,-1.0,-4.0,-7.0,1.0,-2.0,1650911416677733.0
0.0,0.0,0.0,-6.0,-12.0,-9.0,-5.0,0.0,1650911416692100.0
-1.0,-2.0,-5.0,-2.0,-3.0,0.0,-3.0,-1.0,1650911416692100.0
3.0,7.0,-4.0,-6.0,2.0,7.0,1.0,-1.0,1650911416699282.0
-1.0,-2.0,2.0,2.0,-2.0,-1.0,-1.0,2.0,1650911416699282.0
-1.0,0.0,2.0,0.0,1.0,-4.0,-1.0,-1.0,1650911416716004.0
2.0,-3.0,7.0,6.0,13.0,8.0,3.0,3.0,1650911416716004.0
-7.0,1.0,-6.0,-5.0,-5.0,-7.0,-2.0,-2.0,1650911416716238.0
0.0,0.0,3.0,3.0,-2.0,-3.0,-3.0,-2.0,1650911416716238.0
-1.0,-1.0,-5.0,-5.0,1.0,4.0,-1.0,-1.0,1650911416737997.0
-3.0,1.0,5.0,-1.0,-15.0,-6.0,-1.0,-2.0,1650911416737997.0
0.0,-4.0,-7.0,1.0,13.0,3.0,0.0,0.0,1650911416738832.0
-1.0,1.0,-1.0,-1.0,6.0,5.0,2.0,0.0,1650911416738832.0
0.0,1.0,-2.0,-3.0,-7.0,0.0,-3.0,-2.0,1650911416753205.0
0.0,-3.0,-2.0,-5.0,-4.0,-9.0,-3.0,0.0,1650911416753205.0
-1.0,-6.0,-3.0,1.0,-6.0,2.0,0.0,-1.0,1650911416754017.0
9.0,-2.0,-5.0,-2.0,-7.0,-2.0,1.0,0.0,1650911416754017.0
-18.0,-4.0,-10.0,-9.0,1.0,-3.0,-2.0,-1.0,1650911416775825.0
-3.0,-9.0,-2.0,1.0,8.0,-1.0,0.0,-1.0,1650911416775825.0
3.0,4.0,4.0,5.0,0.0,4.0,-1.0,0.0,1650911416776054.0
-1.0,1.0,10.0,3.0,0.0,5.0,1.0,1.0,1650911416776054.0
2.0,-2.0,-3.0,-2.0,-4.0,3.0,1.0,0.0,1650911416798213.0
0.0,0.0,-9.0,-6.0,-4.0,-1.0,-1.0,-1.0,1650911416798213.0
1.0,-1.0,3.0,2.0,-7.0,-2.0,-4.0,0.0,1650911416799050.0
-1.0,1.0,-4.0,3.0,-4.0,-1.0,-1.0,-1.0,1650911416799050.0
1.0,-1.0,1.0,-2.0,2.0,-6.0,-1.0,0.0,1650911416819862.0
-2.0,0.0,6.0,4.0,9.0,6.0,2.0,1.0,1650911416819862.0
5.0,3.0,5.0,1.0,6.0,4.0,4.0,2.0,1650911416821853.0
-3.0,1.0,-2.0,-3.0,-3.0,-2.0,-2.0,-1.0,1650911416821853.0
2.0,0.0,4.0,2.0,-7.0,-4.0,2.0,0.0,1650911416834952.0
0.0,1.0,-4.0,-5.0,-11.0,-7.0,-5.0,-3.0,1650911416834952.0
-2.0,-3.0,-4.0,-2.0,-9.0,4.0,-1.0,-1.0,1650911416836814.0
1.0,-1.0,5.0,7.0,7.0,0.0,4.0,0.0,1650911416836814.0
3.0,1.0,4.0,6.0,25.0,3.0,1.0,1.0,1650911416857344.0
0.0,1.0,-3.0,1.0,3.0,8.0,1.0,1.0,1650911416857344.0
-2.0,-2.0,-4.0,-6.0,-5.0,-7.0,-1.0,-2.0,1650911416859374.0
-3.0,-3.0,-2.0,-7.0,-13.0,-5.0,-4.0,-2.0,1650911416859374.0
4.0,-1.0,-2.0,-2.0,-4.0,1.0,-3.0,-1.0,1650911416872179.0
-1.0,-1.0,-2.0,-2.0,4.0,3.0,1.0,0.0,1650911416872179.0
0.0,-3.0,0.0,2.0,5.0,-3.0,0.0,0.0,1650911416879042.0
0.0,1.0,-2.0,0.0,-4.0,-2.0,-1.0,-1.0,1650911416879042.0
-1.0,-2.0,-4.0,-1.0,-5.0,-2.0,0.0,1.0,1650911416895025.0
-3.0,1.0,3.0,-2.0,-3.0,-5.0,-4.0,-2.0,1650911416895025.0
2.0,2.0,-2.0,-2.0,-9.0,-1.0,0.0,0.0,1650911416896024.0
-1.0,-2.0,-4.0,-2.0,5.0,2.0,-2.0,-1.0,1650911416896024.0
0.0,3.0,0.0,2.0,8.0,5.0,1.0,-1.0,1650911416918508.0
-3.0,0.0,3.0,1.0,-3.0,3.0,0.0,-2.0,1650911416918508.0
0.0,-2.0,-4.0,-2.0,9.0,-3.0,0.0,0.0,1650911416918684.0
1.0,0.0,2.0,5.0,3.0,2.0,1.0,-1.0,1650911416918684.0
-1.0,5.0,3.0,-8.0,-17.0,-2.0,-3.0,-3.0,1650911416932956.0
0.0,-3.0,-14.0,-11.0,-15.0,-9.0,-2.0,-3.0,1650911416932956.0
-2.0,0.0,4.0,4.0,5.0,-1.0,-1.0,-2.0,1650911416939146.0
0.0,-4.0,-3.0,7.0,19.0,6.0,2.0,0.0,1650911416939146.0
4.0,1.0,7.0,6.0,9.0,9.0,3.0,2.0,1650911416956049.0
-2.0,1.0,1.0,-3.0,-10.0,-2.0,1.0,1.0,1650911416956049.0
1.0,0.0,-1.0,0.0,-3.0,-2.0,-2.0,0.0,1650911416956049.0
-4.0,-2.0,-2.0,-2.0,1.0,-6.0,-2.0,-2.0,1650911416956049.0
-2.0,-2.0,-8.0,-4.0,-3.0,-2.0,-2.0,-1.0,1650911416978297.0
-1.0,0.0,3.0,0.0,-11.0,-2.0,0.0,-2.0,1650911416978297.0
0.0,-3.0,-4.0,-3.0,-5.0,-8.0,0.0,0.0,1650911416979167.0
0.0,2.0,2.0,0.0,1.0,2.0,0.0,1.0,1650911416979167.0
-1.0,0.0,-1.0,4.0,9.0,2.0,1.0,1.0,1650911416991325.0
1.0,0.0,2.0,4.0,3.0,3.0,-2.0,3.0,1650911416991325.0
-4.0,-3.0,0.0,-4.0,-5.0,-7.0,-1.0,-2.0,1650911416998600.0
-2.0,-4.0,-15.0,-12.0,-11.0,-5.0,-3.0,-2.0,1650911416998600.0
-1.0,-1.0,-2.0,-6.0,-10.0,-1.0,-1.0,-2.0,1650911417015343.0
1.0,-2.0,0.0,1.0,-2.0,7.0,3.0,0.0,1650911417015343.0
1.0,0.0,9.0,11.0,17.0,1.0,-2.0,1.0,1650911417016343.0
0.0,2.0,-8.0,-4.0,6.0,3.0,2.0,0.0,1650911417016343.0
-2.0,-2.0,-2.0,1.0,-3.0,-5.0,-2.0,0.0,1650911417037918.0
-2.0,-4.0,-6.0,-7.0,0.0,-7.0,-2.0,-4.0,1650911417037918.0
0.0,-1.0,0.0,-1.0,-7.0,6.0,-2.0,-1.0,1650911417038853.0
-1.0,1.0,5.0,0.0,-9.0,-6.0,1.0,-1.0,1650911417038853.0
0.0,1.0,3.0,4.0,2.0,4.0,1.0,-3.0,1650911417051842.0
0.0,0.0,2.0,3.0,8.0,1.0,4.0,3.0,1650911417051842.0
-2.0,-1.0,-3.0,-4.0,0.0,5.0,0.0,1.0,1650911417058952.0
-1.0,0.0,-2.0,-2.0,-7.0,-4.0,-2.0,1.0,1650911417058952.0
-1.0,-3.0,-3.0,-3.0,-10.0,-9.0,-5.0,-2.0,1650911417075469.0
0.0,-1.0,-1.0,3.0,3.0,5.0,0.0,0.0,1650911417075469.0
1.0,-1.0,-2.0,-1.0,7.0,5.0,1.0,1.0,1650911417076077.0
-2.0,1.0,0.0,-1.0,2.0,3.0,-1.0,0.0,1650911417076077.0
0.0,1.0,-1.0,-1.0,-5.0,-7.0,0.0,0.0,1650911417096943.0
0.0,1.0,0.0,-1.0,-1.0,-3.0,-3.0,0.0,1650911417096943.0
0.0,-2.0,-2.0,-2.0,0.0,0.0,1.0,-1.0,1650911417098940.0
0.0,-1.0,1.0,-1.0,-1.0,2.0,0.0,-1.0,1650911417098940.0
0.0,-2.0,0.0,0.0,-2.0,-1.0,-2.0,0.0,1650911417112234.0
-1.0,1.0,-1.0,1.0,5.0,-2.0,-4.0,-3.0,1650911417112234.0
0.0,1.0,-2.0,-1.0,-4.0,-3.0,-1.0,0.0,1650911417119212.0
1.0,-1.0,1.0,3.0,12.0,1.0,0.0,0.0,1650911417119212.0
0.0,-1.0,-3.0,-3.0,-1.0,3.0,-1.0,0.0,1650911417135682.0
0.0,-1.0,0.0,-1.0,-6.0,-6.0,-1.0,1.0,1650911417135682.0
-1.0,-1.0,-1.0,-3.0,-3.0,-1.0,1.0,-2.0,1650911417136713.0
-2.0,-2.0,-1.0,-2.0,-6.0,1.0,-1.0,-1.0,1650911417136713.0
0.0,-1.0,1.0,1.0,1.0,-5.0,-1.0,-1.0,1650911417157176.0
-2.0,-2.0,-1.0,-5.0,-1.0,2.0,-3.0,-3.0,1650911417157176.0
-1.0,-1.0,-2.0,-2.0,-6.0,-10.0,-4.0,-3.0,1650911417159202.0
0.0,0.0,0.0,1.0,-4.0,-3.0,0.0,0.0,1650911417159202.0
1.0,0.0,2.0,4.0,18.0,13.0,3.0,1.0,1650911417172179.0
1.0,1.0,-1.0,4.0,7.0,7.0,4.0,2.0,1650911417172179.0
-1.0,-1.0,-2.0,-3.0,-9.0,-3.0,1.0,0.0,1650911417186314.0
-1.0,-4.0,-1.0,-6.0,-12.0,-6.0,-3.0,-2.0,1650911417186314.0
0.0,-2.0,-1.0,0.0,-6.0,-5.0,-1.0,-3.0,1650911417195456.0
1.0,0.0,0.0,5.0,12.0,-1.0,0.0,-1.0,1650911417195456.0
0.0,0.0,0.0,2.0,4.0,2.0,-1.0,0.0,1650911417196458.0
-1.0,0.0,-4.0,-5.0,-13.0,-3.0,-2.0,-3.0,1650911417196458.0
-2.0,0.0,-1.0,-3.0,-13.0,-11.0,3.0,0.0,1650911417217702.0
-2.0,0.0,1.0,3.0,11.0,11.0,1.0,-1.0,1650911417217702.0
2.0,2.0,1.0,5.0,17.0,4.0,2.0,3.0,1650911417218561.0
0.0,0.0,-2.0,-3.0,-8.0,-1.0,-1.0,-1.0,1650911417218561.0
0.0,-2.0,-4.0,-6.0,-13.0,-8.0,-4.0,0.0,1650911417231925.0
0.0,0.0,-1.0,-1.0,-4.0,-3.0,-1.0,-1.0,1650911417231925.0
-2.0,-2.0,-3.0,-2.0,-2.0,0.0,1.0,-2.0,1650911417240802.0
-1.0,-2.0,0.0,2.0,2.0,2.0,1.0,0.0,1650911417240802.0
1.0,1.0,-2.0,1.0,0.0,-3.0,-2.0,-1.0,1650911417254999.0
1.0,-1.0,-1.0,-2.0,-3.0,-6.0,-2.0,0.0,1650911417254999.0
-1.0,-2.0,-1.0,-1.0,-4.0,4.0,-1.0,-2.0,1650911417254999.0
1.0,0.0,1.0,6.0,13.0,10.0,2.0,2.0,1650911417254999.0
-2.0,0.0,2.0,1.0,5.0,2.0,2.0,3.0,1650911417277033.0
-1.0,-2.0,-4.0,-3.0,-5.0,-6.0,-10.0,-3.0,1650911417277033.0
4.0,-4.0,0.0,-1.0,4.0,-2.0,-7.0,-16.0,1650911417277922.0
-19.0,-4.0,2.0,0.0,-8.0,-3.0,1.0,-1.0,1650911417277922.0
4.0,2.0,2.0,-1.0,1.0,2.0,9.0,13.0,1650911417300817.0
6.0,6.0,3.0,0.0,-4.0,-1.0,0.0,4.0,1650911417300817.0
-5.0,-3.0,-5.0,-3.0,-3.0,-4.0,-4.0,-5.0,1650911417300817.0
6.0,-2.0,-1.0,-2.0,3.0,-2.0,-2.0,-1.0,1650911417300817.0
-6.0,-4.0,-1.0,1.0,4.0,5.0,1.0,-1.0,1650911417313752.0
10.0,1.0,3.0,3.0,2.0,2.0,6.0,6.0,1650911417313752.0
-8.0,15.0,6.0,-5.0,-10.0,-12.0,-8.0,-18.0,1650911417314777.0
19.0,10.0,2.0,8.0,15.0,5.0,1.0,-4.0,1650911417314777.0
-41.0,-50.0,-11.0,-7.0,-6.0,-5.0,-13.0,-12.0,1650911417337037.0
10.0,10.0,6.0,2.0,-5.0,1.0,15.0,18.0,1650911417337037.0
-3.0,-6.0,-7.0,-2.0,-5.0,-3.0,-1.0,8.0,1650911417337876.0
-3.0,-4.0,-15.0,-5.0,-10.0,-11.0,-24.0,-26.0,1650911417337876.0
-5.0,33.0,18.0,5.0,5.0,5.0,8.0,8.0,1650911417359835.0
0.0,-4.0,-3.0,1.0,5.0,-2.0,-13.0,-13.0,1650911417359835.0
17.0,13.0,10.0,3.0,0.0,2.0,13.0,16.0,1650911417360867.0
10.0,6.0,-3.0,-4.0,0.0,-4.0,12.0,24.0,1650911417360867.0
-29.0,-64.0,-18.0,-9.0,-11.0,-4.0,-21.0,-26.0,1650911417375204.0
2.0,17.0,0.0,3.0,5.0,11.0,2.0,-15.0,1650911417375204.0
-48.0,25.0,8.0,10.0,17.0,13.0,7.0,25.0,1650911417376040.0
15.0,-19.0,-5.0,-4.0,6.0,1.0,5.0,8.0,1650911417376040.0
-44.0,-2.0,0.0,-6.0,-13.0,-8.0,-8.0,-23.0,1650911417397506.0
-10.0,-1.0,-15.0,-9.0,-12.0,-17.0,-8.0,-2.0,1650911417397506.0
44.0,13.0,14.0,5.0,3.0,11.0,30.0,41.0,1650911417397506.0
112.0,73.0,21.0,7.0,2.0,8.0,9.0,21.0,1650911417397506.0
-72.0,-75.0,-30.0,-8.0,-3.0,7.0,6.0,0.0,1650911417419766.0
-91.0,-33.0,4.0,3.0,0.0,-3.0,-11.0,-30.0,1650911417419766.0
48.0,54.0,9.0,6.0,6.0,13.0,-1.0,-9.0,1650911417419902.0
-21.0,9.0,-10.0,-6.0,-9.0,-5.0,11.0,24.0,1650911417419902.0
24.0,20.0,16.0,6.0,6.0,1.0,1.0,-4.0,1650911417433869.0
28.0,13.0,10.0,6.0,7.0,1.0,8.0,5.0,1650911417433869.0
0.0,-36.0,-8.0,-5.0,-2.0,3.0,-7.0,-10.0,1650911417434866.0
-41.0,-19.0,-10.0,7.0,12.0,9.0,2.0,2.0,1650911417434866.0
35.0,43.0,24.0,3.0,-6.0,-5.0,-9.0,-6.0,1650911417456392.0
-9.0,-23.0,-19.0,-17.0,-25.0,-18.0,-15.0,-8.0,1650911417456392.0
-58.0,-32.0,-22.0,-16.0,-14.0,-10.0,-6.0,-9.0,1650911417457332.0
7.0,-13.0,8.0,9.0,15.0,2.0,-5.0,-32.0,1650911417457332.0
11.0,44.0,19.0,16.0,12.0,7.0,6.0,30.0,1650911417479589.0
-2.0,6.0,-14.0,-13.0,2.0,6.0,2.0,6.0,1650911417479589.0
69.0,2.0,12.0,6.0,-8.0,-8.0,3.0,10.0,1650911417480424.0
-42.0,-21.0,-5.0,-2.0,4.0,-6.0,-8.0,-3.0,1650911417480424.0
0.0,-3.0,-7.0,1.0,14.0,8.0,2.0,-14.0,1650911417495020.0
32.0,7.0,12.0,13.0,8.0,12.0,11.0,15.0,1650911417495020.0
-24.0,12.0,-17.0,-10.0,-17.0,-7.0,-9.0,-13.0,1650911417495020.0
-33.0,-45.0,-18.0,-16.0,-18.0,-14.0,3.0,14.0,1650911417495020.0
63.0,-16.0,-3.0,-7.0,-6.0,3.0,-8.0,1.0,1650911417517158.0
-11.0,27.0,9.0,4.0,7.0,4.0,0.0,-14.0,1650911417517158.0
-31.0,-9.0,0.0,-1.0,4.0,-6.0,0.0,8.0,1650911417517158.0
-17.0,16.0,17.0,7.0,0.0,1.0,-1.0,-15.0,1650911417517158.0
19.0,-5.0,-15.0,-5.0,-5.0,-6.0,-1.0,13.0,1650911417538993.0
15.0,-28.0,-26.0,-15.0,-15.0,-5.0,-10.0,-22.0,1650911417538993.0
-9.0,-1.0,6.0,-5.0,-3.0,-5.0,-12.0,-27.0,1650911417539827.0
-10.0,-19.0,5.0,7.0,3.0,6.0,-5.0,12.0,1650911417539827.0
35.0,19.0,-25.0,-6.0,4.0,2.0,18.0,36.0,1650911417554765.0
-5.0,14.0,14.0,1.0,-5.0,-5.0,-6.0,-22.0,1650911417554765.0
-8.0,-42.0,-25.0,-5.0,-4.0,-9.0,-10.0,-11.0,1650911417554765.0
-14.0,25.0,0.0,0.0,-6.0,-1.0,-1.0,-17.0,1650911417554765.0
24.0,26.0,38.0,13.0,18.0,13.0,2.0,-3.0,1650911417577300.0
5.0,-27.0,-21.0,2.0,3.0,4.0,18.0,41.0,1650911417577300.0
17.0,12.0,5.0,7.0,6.0,0.0,-2.0,-9.0,1650911417577300.0
27.0,-10.0,4.0,-7.0,-6.0,-5.0,-5.0,-6.0,1650911417577300.0
-11.0,4.0,-7.0,0.0,-5.0,-5.0,-5.0,-9.0,1650911417600189.0
27.0,21.0,18.0,3.0,1.0,-1.0,-3.0,-2.0,1650911417600189.0
-35.0,-45.0,-10.0,-5.0,-2.0,3.0,-3.0,-2.0,1650911417600189.0
-21.0,14.0,-7.0,1.0,-4.0,0.0,0.0,2.0,1650911417600189.0
6.0,16.0,-4.0,-4.0,-7.0,-11.0,-5.0,-6.0,1650911417614991.0
-28.0,-4.0,0.0,1.0,6.0,3.0,6.0,19.0,1650911417614991.0
5.0,10.0,27.0,7.0,3.0,7.0,-4.0,-13.0,1650911417614991.0
26.0,10.0,-13.0,-1.0,4.0,1.0,2.0,-2.0,1650911417614991.0
-27.0,-43.0,-1.0,2.0,-2.0,-2.0,1.0,2.0,1650911417637037.0
24.0,17.0,12.0,7.0,0.0,1.0,-4.0,-13.0,1650911417637037.0
-7.0,-14.0,-12.0,-10.0,-7.0,-4.0,-1.0,8.0,1650911417637909.0
-13.0,11.0,22.0,1.0,-5.0,-2.0,-7.0,-17.0,1650911417637909.0
7.0,6.0,-2.0,2.0,3.0,2.0,3.0,1.0,1650911417660636.0
10.0,6.0,11.0,-1.0,-4.0,-2.0,4.0,16.0,1650911417660636.0
18.0,26.0,-3.0,5.0,1.0,3.0,1.0,-1.0,1650911417661475.0
-25.0,-18.0,19.0,2.0,10.0,-1.0,-4.0,-10.0,1650911417661475.0
-3.0,8.0,8.0,-2.0,-19.0,-5.0,3.0,5.0,1650911417674613.0
15.0,-38.0,-47.0,-7.0,12.0,-5.0,-7.0,-10.0,1650911417674613.0
-10.0,15.0,6.0,2.0,6.0,11.0,5.0,10.0,1650911417674613.0
1.0,13.0,-1.0,-3.0,-6.0,-2.0,-1.0,5.0,1650911417674613.0
-3.0,-2.0,-14.0,-1.0,1.0,0.0,1.0,-13.0,1650911417696864.0
0.0,20.0,22.0,7.0,3.0,2.0,7.0,13.0,1650911417696864.0
61.0,-4.0,-6.0,-4.0,-3.0,-8.0,0.0,6.0,1650911417697747.0
-8.0,-67.0,-28.0,-7.0,0.0,13.0,4.0,-3.0,1650911417697747.0
-41.0,29.0,14.0,-4.0,-9.0,-10.0,-5.0,1.0,1650911417718932.0
17.0,21.0,8.0,2.0,-2.0,1.0,-2.0,13.0,1650911417718932.0
10.0,10.0,-9.0,-1.0,3.0,-2.0,9.0,5.0,1650911417719892.0
-6.0,-16.0,-3.0,1.0,1.0,5.0,3.0,10.0,1650911417719892.0
12.0,19.0,8.0,3.0,10.0,7.0,3.0,6.0,1650911417734213.0
-30.0,-18.0,-13.0,-5.0,-5.0,-5.0,-10.0,-12.0,1650911417734213.0
24.0,5.0,-5.0,-1.0,-3.0,-3.0,0.0,13.0,1650911417742047.0
-5.0,22.0,24.0,7.0,4.0,5.0,8.0,6.0,1650911417742047.0
39.0,-6.0,-21.0,-8.0,-4.0,-1.0,-7.0,-12.0,1650911417756363.0
-24.0,-35.0,-8.0,-5.0,-4.0,-4.0,3.0,6.0,1650911417756363.0
-9.0,23.0,8.0,3.0,-6.0,-3.0,-1.0,-13.0,1650911417757364.0
16.0,10.0,3.0,-12.0,-18.0,-13.0,-7.0,0.0,1650911417757364.0
2.0,-15.0,-32.0,3.0,14.0,8.0,-5.0,-15.0,1650911417787316.0
-35.0,11.0,35.0,10.0,16.0,10.0,1.0,-4.0,1650911417787316.0
-8.0,0.0,-5.0,-2.0,-2.0,-3.0,-9.0,-15.0,1650911417788396.0
10.0,-1.0,-4.0,1.0,-5.0,-5.0,2.0,6.0,1650911417788396.0
-9.0,-2.0,23.0,-1.0,-3.0,-9.0,-2.0,0.0,1650911417794414.0
54.0,-10.0,-31.0,-11.0,-15.0,2.0,3.0,6.0,1650911417794414.0
-35.0,-20.0,8.0,1.0,3.0,-1.0,0.0,6.0,1650911417795400.0
19.0,25.0,-3.0,4.0,9.0,5.0,1.0,3.0,1650911417795400.0
-3.0,-21.0,-19.0,-5.0,-3.0,5.0,-8.0,-19.0,1650911417817036.0
16.0,17.0,9.0,-2.0,-10.0,-18.0,-4.0,12.0,1650911417817036.0
-16.0,-27.0,-7.0,-6.0,-13.0,-6.0,3.0,-9.0,1650911417817911.0
8.0,17.0,-7.0,0.0,-5.0,-3.0,-2.0,16.0,1650911417817911.0
16.0,9.0,9.0,8.0,24.0,10.0,15.0,8.0,1650911417848079.0
-46.0,-4.0,1.0,6.0,11.0,9.0,-4.0,-12.0,1650911417848079.0
2.0,19.0,13.0,-1.0,-11.0,-4.0,-4.0,-6.0,1650911417848079.0
-40.0,-24.0,-14.0,-3.0,-2.0,-7.0,-5.0,-7.0,1650911417848079.0
13.0,-5.0,-3.0,-2.0,-3.0,6.0,4.0,3.0,1650911417854899.0
12.0,9.0,10.0,3.0,2.0,2.0,1.0,2.0,1650911417854899.0
-35.0,-13.0,-27.0,-1.0,5.0,3.0,4.0,5.0,1650911417854899.0
12.0,19.0,13.0,-4.0,-7.0,-7.0,-8.0,-23.0,1650911417854899.0
22.0,2.0,-15.0,-7.0,-9.0,-6.0,2.0,20.0,1650911417877048.0
30.0,3.0,11.0,11.0,6.0,3.0,5.0,-5.0,1650911417877048.0
5.0,4.0,4.0,1.0,-1.0,1.0,2.0,18.0,1650911417877943.0
-34.0,13.0,7.0,6.0,2.0,3.0,9.0,9.0,1650911417877943.0
-4.0,-9.0,16.0,7.0,11.0,3.0,-4.0,-5.0,1650911417900142.0
-44.0,-6.0,-20.0,-9.0,-5.0,0.0,5.0,2.0,1650911417900142.0
29.0,1.0,-8.0,5.0,8.0,3.0,-8.0,-6.0,1650911417900142.0
-14.0,-20.0,16.0,-7.0,-7.0,1.0,-1.0,-5.0,1650911417900142.0
-25.0,15.0,4.0,-4.0,-13.0,-15.0,-4.0,-6.0,1650911417915266.0
1.0,-23.0,1.0,0.0,-12.0,-4.0,-7.0,-10.0,1650911417915266.0
-30.0,-3.0,16.0,11.0,20.0,8.0,8.0,6.0,1650911417915266.0
31.0,21.0,-14.0,6.0,22.0,6.0,0.0,-11.0,1650911417915266.0
-3.0,-1.0,6.0,-1.0,-1.0,4.0,1.0,27.0,1650911417936997.0
-3.0,-10.0,-14.0,-6.0,-15.0,-8.0,-3.0,-3.0,1650911417936997.0
12.0,25.0,22.0,3.0,0.0,-1.0,-2.0,-8.0,1650911417937832.0
-13.0,-42.0,-32.0,-18.0,-15.0,-5.0,0.0,2.0,1650911417937832.0
-7.0,0.0,4.0,1.0,-4.0,-5.0,0.0,-2.0,1650911417960504.0
25.0,-1.0,-10.0,6.0,14.0,8.0,1.0,6.0,1650911417960504.0
-11.0,-5.0,25.0,5.0,5.0,7.0,-2.0,-1.0,1650911417961344.0
10.0,17.0,9.0,3.0,8.0,3.0,-1.0,-6.0,1650911417961344.0
4.0,-19.0,-30.0,-5.0,-7.0,-2.0,2.0,1.0,1650911417974635.0
9.0,19.0,0.0,-5.0,-14.0,-7.0,-5.0,-4.0,1650911417974635.0
-12.0,-13.0,-13.0,-7.0,-12.0,-10.0,-5.0,-13.0,1650911417974635.0
19.0,13.0,3.0,-2.0,2.0,2.0,-6.0,-5.0,1650911417974635.0
-16.0,3.0,9.0,5.0,9.0,7.0,4.0,-1.0,1650911418005498.0
22.0,-15.0,-19.0,-8.0,2.0,1.0,-2.0,-18.0,1650911418005498.0
2.0,4.0,5.0,3.0,5.0,2.0,5.0,15.0,1650911418005788.0
4.0,-31.0,-7.0,-3.0,-11.0,-9.0,-2.0,14.0,1650911418005788.0
-9.0,25.0,-3.0,-2.0,-9.0,0.0,5.0,-14.0,1650911418020025.0
-1.0,2.0,10.0,2.0,11.0,14.0,-10.0,-4.0,1650911418020025.0
8.0,11.0,6.0,-3.0,-13.0,-9.0,-5.0,-6.0,1650911418020025.0
-18.0,-3.0,-21.0,5.0,10.0,-6.0,3.0,7.0,1650911418020025.0
2.0,-9.0,8.0,0.0,4.0,1.0,-1.0,3.0,1650911418035323.0
-15.0,5.0,1.0,-5.0,-8.0,-2.0,10.0,7.0,1650911418035323.0
-9.0,0.0,3.0,-2.0,-8.0,-1.0,1.0,2.0,1650911418035323.0
4.0,-14.0,-26.0,-6.0,-11.0,1.0,-7.0,-11.0,1650911418035323.0
21.0,-20.0,18.0,6.0,11.0,1.0,1.0,5.0,1650911418056661.0
-35.0,0.0,7.0,8.0,9.0,4.0,11.0,6.0,1650911418056661.0
9.0,-13.0,-14.0,-2.0,7.0,4.0,-2.0,-4.0,1650911418057661.0
4.0,24.0,2.0,3.0,-4.0,-5.0,-12.0,-7.0,1650911418057661.0
-21.0,-5.0,23.0,-4.0,-10.0,-3.0,2.0,-3.0,1650911418079034.0
6.0,-2.0,-13.0,-10.0,-10.0,-10.0,-12.0,-11.0,1650911418079034.0
9.0,8.0,2.0,0.0,-9.0,-1.0,4.0,-4.0,1650911418080031.0
3.0,16.0,14.0,1.0,1.0,-4.0,1.0,30.0,1650911418080031.0
6.0,17.0,5.0,11.0,12.0,9.0,-2.0,-5.0,1650911418094027.0
-24.0,-19.0,-5.0,-5.0,5.0,9.0,-2.0,-11.0,1650911418094027.0
-21.0,-10.0,-13.0,-6.0,1.0,0.0,8.0,27.0,1650911418094993.0
32.0,-7.0,13.0,2.0,-3.0,-3.0,-8.0,-27.0,1650911418094993.0
-24.0,-13.0,-53.0,-24.0,-24.0,-14.0,-17.0,-8.0,1650911418117521.0
33.0,18.0,8.0,-2.0,-13.0,-7.0,6.0,10.0,1650911418117521.0
33.0,-22.0,5.0,6.0,11.0,1.0,-2.0,8.0,1650911418117521.0
-29.0,-15.0,-12.0,4.0,23.0,10.0,4.0,-8.0,1650911418117521.0
-8.0,4.0,4.0,-2.0,2.0,1.0,-2.0,-7.0,1650911418139003.0
-11.0,-6.0,-5.0,0.0,-8.0,-3.0,-2.0,-5.0,1650911418139003.0
-7.0,-8.0,1.0,-11.0,-18.0,-12.0,-10.0,-8.0,1650911418139842.0
6.0,17.0,20.0,3.0,-3.0,0.0,7.0,9.0,1650911418139842.0
22.0,13.0,-12.0,-5.0,-2.0,9.0,0.0,1.0,1650911418154953.0
-10.0,5.0,17.0,6.0,8.0,-7.0,2.0,-1.0,1650911418154953.0
-21.0,-1.0,-10.0,4.0,5.0,4.0,2.0,3.0,1650911418154953.0
-14.0,-38.0,5.0,-3.0,-4.0,-2.0,-2.0,-6.0,1650911418154953.0
-19.0,22.0,13.0,8.0,0.0,-4.0,-2.0,2.0,1650911418177613.0
14.0,-12.0,-7.0,-5.0,1.0,3.0,6.0,-9.0,1650911418177613.0
-15.0,4.0,1.0,2.0,4.0,2.0,-7.0,-8.0,1650911418177613.0
8.0,-3.0,-11.0,-11.0,-14.0,4.0,7.0,-1.0,1650911418177613.0
24.0,-11.0,3.0,4.0,-2.0,-7.0,-5.0,3.0,1650911418198957.0
2.0,17.0,19.0,5.0,3.0,-1.0,2.0,8.0,1650911418198957.0
13.0,-14.0,-22.0,-5.0,-1.0,-1.0,4.0,9.0,1650911418199954.0
-24.0,-14.0,-25.0,-8.0,-6.0,-3.0,-11.0,-31.0,1650911418199954.0
5.0,15.0,15.0,8.0,6.0,4.0,7.0,1.0,1650911418214011.0
-7.0,3.0,3.0,3.0,5.0,6.0,0.0,10.0,1650911418214011.0
10.0,7.0,2.0,4.0,6.0,2.0,1.0,7.0,1650911418214916.0
-17.0,-6.0,15.0,3.0,-4.0,-3.0,2.0,11.0,1650911418214916.0
8.0,8.0,-18.0,-6.0,3.0,-3.0,-4.0,-11.0,1650911418237434.0
-37.0,-29.0,-16.0,-2.0,3.0,0.0,-1.0,2.0,1650911418237434.0
-12.0,-1.0,12.0,1.0,-5.0,-4.0,-3.0,-9.0,1650911418237434.0
17.0,-17.0,0.0,3.0,-2.0,3.0,7.0,14.0,1650911418237434.0
-7.0,2.0,3.0,2.0,-2.0,-5.0,-5.0,-14.0,1650911418259825.0
17.0,10.0,-3.0,-10.0,-10.0,-4.0,-3.0,3.0,1650911418259825.0
-3.0,1.0,-15.0,-8.0,-7.0,-1.0,-3.0,-8.0,1650911418259888.0
10.0,28.0,31.0,-4.0,2.0,2.0,-9.0,-28.0,1650911418259888.0
2.0,-2.0,0.0,3.0,-6.0,-3.0,11.0,38.0,1650911418282903.0
-5.0,-20.0,-3.0,1.0,0.0,-2.0,2.0,16.0,1650911418282903.0
16.0,29.0,14.0,8.0,14.0,6.0,1.0,-14.0,1650911418282903.0
15.0,4.0,-6.0,3.0,15.0,10.0,1.0,1.0,1650911418282903.0
-3.0,-13.0,-2.0,-2.0,-2.0,3.0,-1.0,-6.0,1650911418297010.0
12.0,21.0,4.0,-2.0,-8.0,-8.0,-13.0,-8.0,1650911418297010.0
-8.0,-26.0,-16.0,-8.0,-12.0,-8.0,-1.0,4.0,1650911418297896.0
-13.0,-4.0,20.0,2.0,-8.0,-6.0,-4.0,11.0,1650911418297896.0
13.0,25.0,4.0,2.0,0.0,6.0,-2.0,-17.0,1650911418319839.0
-1.0,13.0,7.0,7.0,8.0,-1.0,-1.0,-8.0,1650911418319839.0
17.0,0.0,-1.0,4.0,8.0,3.0,3.0,2.0,1650911418319839.0
-6.0,4.0,0.0,2.0,3.0,-1.0,1.0,-1.0,1650911418319839.0
-11.0,-34.0,-6.0,2.0,3.0,1.0,5.0,13.0,1650911418334102.0
8.0,12.0,11.0,-1.0,-8.0,-3.0,-2.0,-5.0,1650911418334102.0
-7.0,-8.0,-19.0,-2.0,3.0,7.0,0.0,-7.0,1650911418342438.0
-23.0,20.0,-7.0,4.0,4.0,-3.0,6.0,16.0,1650911418342438.0
37.0,-1.0,19.0,-1.0,-2.0,-1.0,-1.0,3.0,1650911418366070.0
21.0,15.0,9.0,-2.0,-4.0,1.0,0.0,-2.0,1650911418366070.0
2.0,-8.0,-6.0,-11.0,-14.0,-4.0,4.0,13.0,1650911418366070.0
46.0,16.0,-19.0,-2.0,-3.0,-4.0,-6.0,-6.0,1650911418366070.0
-46.0,-19.0,8.0,5.0,7.0,1.0,0.0,-5.0,1650911418378828.0
6.0,-8.0,-5.0,3.0,4.0,3.0,5.0,5.0,1650911418378828.0
17.0,2.0,18.0,-1.0,1.0,-2.0,-3.0,-8.0,1650911418379827.0
-26.0,7.0,2.0,1.0,1.0,3.0,6.0,5.0,1650911418379827.0
-17.0,16.0,9.0,-6.0,-12.0,-4.0,-3.0,-10.0,1650911418402985.0
26.0,0.0,-5.0,5.0,5.0,4.0,5.0,6.0,1650911418402985.0
-14.0,-20.0,-6.0,1.0,7.0,2.0,4.0,8.0,1650911418402985.0
5.0,-16.0,-7.0,-6.0,-2.0,-1.0,-8.0,-21.0,1650911418402985.0
-13.0,-17.0,-26.0,-9.0,-13.0,-5.0,-4.0,-2.0,1650911418416871.0
-20.0,6.0,12.0,3.0,5.0,2.0,4.0,1.0,1650911418416871.0
-12.0,17.0,3.0,-2.0,0.0,-1.0,-4.0,-14.0,1650911418417865.0
28.0,12.0,-2.0,3.0,3.0,5.0,7.0,15.0,1650911418417865.0
0.0,-10.0,-1.0,-2.0,6.0,-7.0,2.0,25.0,1650911418439493.0
-2.0,10.0,10.0,-3.0,-9.0,-6.0,-7.0,-15.0,1650911418439493.0
-47.0,-34.0,-36.0,-5.0,-12.0,-2.0,-8.0,-2.0,1650911418440329.0
24.0,13.0,8.0,-3.0,-8.0,-5.0,6.0,-7.0,1650911418440329.0
-6.0,18.0,17.0,7.0,4.0,1.0,-4.0,-7.0,1650911418454337.0
-56.0,-26.0,-49.0,-11.0,2.0,6.0,2.0,5.0,1650911418454337.0
-12.0,41.0,27.0,10.0,11.0,1.0,-2.0,-2.0,1650911418462184.0
-43.0,-35.0,-4.0,1.0,-3.0,0.0,1.0,1.0,1650911418462184.0
62.0,-25.0,-7.0,1.0,-3.0,2.0,9.0,23.0,1650911418476958.0
8.0,0.0,9.0,-2.0,-7.0,-10.0,-6.0,-22.0,1650911418476958.0
2.0,13.0,11.0,2.0,1.0,1.0,0.0,-1.0,1650911418477816.0
-25.0,-10.0,0.0,4.0,9.0,7.0,-2.0,-4.0,1650911418477816.0
22.0,23.0,7.0,-5.0,-5.0,1.0,1.0,-6.0,1650911418499943.0
-4.0,-11.0,-2.0,-2.0,0.0,-7.0,-4.0,4.0,1650911418499943.0
-12.0,-15.0,-13.0,-7.0,-5.0,-1.0,-6.0,-1.0,1650911418499943.0
-15.0,10.0,1.0,0.0,-3.0,-11.0,-14.0,-24.0,1650911418499943.0
-22.0,-10.0,-15.0,1.0,3.0,1.0,4.0,6.0,1650911418514151.0
18.0,1.0,-14.0,-6.0,5.0,8.0,2.0,3.0,1650911418514151.0
2.0,28.0,34.0,11.0,1.0,0.0,5.0,5.0,1650911418522305.0
14.0,-4.0,-26.0,-3.0,4.0,-1.0,0.0,-5.0,1650911418522305.0
-31.0,4.0,8.0,-5.0,-1.0,-5.0,-6.0,3.0,1650911418537618.0
-11.0,-22.0,-11.0,-7.0,-11.0,-5.0,-5.0,-10.0,1650911418537618.0
21.0,2.0,0.0,3.0,2.0,2.0,6.0,5.0,1650911418537618.0
9.0,7.0,10.0,-1.0,-10.0,1.0,1.0,12.0,1650911418537618.0
1.0,1.0,-5.0,-5.0,-11.0,-11.0,-2.0,-16.0,1650911418559842.0
3.0,6.0,7.0,4.0,8.0,5.0,3.0,4.0,1650911418559842.0
4.0,-6.0,-3.0,0.0,16.0,8.0,0.0,4.0,1650911418559842.0
8.0,7.0,4.0,2.0,-2.0,3.0,11.0,11.0,1650911418559842.0
1.0,2.0,-9.0,-3.0,-9.0,2.0,-1.0,-3.0,1650911418573929.0
-2.0,6.0,5.0,2.0,-1.0,-7.0,-3.0,-1.0,1650911418573929.0
6.0,-16.0,-4.0,-1.0,-5.0,-6.0,-1.0,-5.0,1650911418582252.0
4.0,3.0,-2.0,0.0,2.0,6.0,1.0,6.0,1650911418582252.0
1.0,5.0,5.0,2.0,14.0,4.0,0.0,-5.0,1650911418597718.0
-1.0,-7.0,4.0,2.0,4.0,2.0,4.0,13.0,1650911418597718.0
6.0,-7.0,-11.0,-4.0,-3.0,-4.0,0.0,-1.0,1650911418597718.0
1.0,-3.0,6.0,-1.0,-6.0,7.0,0.0,3.0,1650911418597718.0
-3.0,2.0,-2.0,-2.0,-7.0,-6.0,1.0,-4.0,1650911418619208.0
2.0,10.0,11.0,2.0,0.0,-1.0,-1.0,-5.0,1650911418619208.0
0.0,-7.0,-8.0,-6.0,-7.0,-7.0,-10.0,-10.0,1650911418620169.0
6.0,2.0,5.0,1.0,3.0,2.0,2.0,9.0,1650911418620169.0
-5.0,2.0,-4.0,-3.0,-8.0,3.0,-3.0,-8.0,1650911418642896.0
1.0,4.0,6.0,6.0,0.0,0.0,1.0,1.0,1650911418642896.0
4.0,0.0,-3.0,1.0,6.0,-2.0,-3.0,-3.0,1650911418642896.0
0.0,2.0,0.0,-5.0,-1.0,-6.0,-3.0,0.0,1650911418642896.0
-5.0,-12.0,-7.0,0.0,-4.0,-3.0,-2.0,-6.0,1650911418656833.0
0.0,-3.0,-3.0,-2.0,7.0,3.0,3.0,6.0,1650911418656833.0
1.0,-1.0,1.0,3.0,2.0,9.0,3.0,0.0,1650911418657863.0
2.0,1.0,4.0,7.0,0.0,-2.0,0.0,0.0,1650911418657863.0
-1.0,1.0,9.0,2.0,-3.0,0.0,-3.0,-3.0,1650911418679290.0
-2.0,-3.0,-6.0,-7.0,-7.0,0.0,-3.0,-2.0,1650911418679290.0
4.0,1.0,-4.0,-4.0,1.0,-5.0,-3.0,-4.0,1650911418680122.0
-1.0,-3.0,-4.0,1.0,7.0,-3.0,1.0,2.0,1650911418680122.0
1.0,-1.0,6.0,6.0,1.0,8.0,-5.0,-4.0,1650911418704311.0
1.0,-1.0,5.0,-1.0,-9.0,-10.0,1.0,1.0,1650911418704311.0
-1.0,0.0,2.0,-2.0,-5.0,-2.0,-8.0,-3.0,1650911418705309.0
-2.0,-6.0,-11.0,-4.0,-2.0,-1.0,4.0,-1.0,1650911418705309.0
0.0,2.0,-1.0,-1.0,5.0,2.0,1.0,1.0,1650911418716321.0
6.0,8.0,7.0,5.0,8.0,4.0,-1.0,1.0,1650911418716321.0
-10.0,-3.0,-3.0,-3.0,-9.0,0.0,0.0,0.0,1650911418717277.0
-3.0,-2.0,-6.0,0.0,4.0,-10.0,-10.0,-3.0,1650911418717277.0
0.0,-2.0,-7.0,-6.0,-2.0,-4.0,-2.0,-7.0,1650911418739221.0
-4.0,-5.0,-12.0,-5.0,-4.0,-1.0,-1.0,-8.0,1650911418739221.0
6.0,4.0,18.0,6.0,-9.0,3.0,1.0,0.0,1650911418740217.0
4.0,0.0,7.0,7.0,8.0,2.0,0.0,1.0,1650911418740217.0
2.0,-5.0,-3.0,-6.0,7.0,5.0,1.0,-1.0,1650911418762155.0
-9.0,-7.0,-22.0,-7.0,-2.0,-1.0,-2.0,13.0,1650911418762155.0
-5.0,-2.0,-4.0,-1.0,-10.0,-1.0,10.0,-5.0,1650911418763153.0
-2.0,-1.0,11.0,0.0,-12.0,-8.0,-2.0,-1.0,1650911418763153.0
-1.0,-6.0,-28.0,-10.0,0.0,-6.0,-6.0,0.0,1650911418776119.0
1.0,3.0,21.0,13.0,9.0,5.0,6.0,-3.0,1650911418776119.0
7.0,2.0,5.0,4.0,4.0,5.0,2.0,4.0,1650911418777115.0
6.0,1.0,-10.0,-5.0,6.0,3.0,1.0,1.0,1650911418777115.0
-16.0,-2.0,6.0,12.0,1.0,-3.0,-1.0,-2.0,1650911418799787.0
2.0,3.0,-8.0,-7.0,-3.0,-2.0,-7.0,0.0,1650911418799787.0
-3.0,-4.0,1.0,6.0,0.0,7.0,-3.0,-3.0,1650911418799787.0
-2.0,-7.0,-21.0,-19.0,-10.0,-4.0,7.0,-3.0,1650911418799787.0
4.0,3.0,14.0,6.0,0.0,2.0,-1.0,2.0,1650911418822915.0
-1.0,-2.0,-8.0,-16.0,-2.0,-6.0,0.0,-2.0,1650911418822915.0
1.0,4.0,10.0,4.0,-3.0,-7.0,-3.0,2.0,1650911418823383.0
-3.0,1.0,-4.0,4.0,6.0,1.0,-5.0,0.0,1650911418823383.0
2.0,2.0,5.0,0.0,1.0,5.0,2.0,1.0,1650911418836695.0
-3.0,-6.0,-6.0,4.0,-7.0,-2.0,3.0,2.0,1650911418836695.0
-1.0,-2.0,-7.0,-15.0,-9.0,-8.0,-3.0,-11.0,1650911418837660.0
-2.0,2.0,7.0,6.0,8.0,6.0,-1.0,2.0,1650911418837660.0
3.0,1.0,-2.0,10.0,17.0,10.0,5.0,1.0,1650911418860054.0
3.0,3.0,13.0,-10.0,-7.0,-3.0,-3.0,-1.0,1650911418860054.0
-1.0,-4.0,-24.0,-13.0,-15.0,-13.0,-4.0,2.0,1650911418860054.0
-2.0,-1.0,6.0,-2.0,-9.0,-6.0,-2.0,-3.0,1650911418860054.0
0.0,0.0,1.0,-3.0,10.0,18.0,-3.0,0.0,1650911418882360.0
-4.0,-4.0,-20.0,-7.0,-11.0,-11.0,2.0,-2.0,1650911418882360.0
1.0,2.0,4.0,5.0,-11.0,-5.0,-2.0,0.0,1650911418883213.0
1.0,2.0,7.0,8.0,26.0,3.0,0.0,2.0,1650911418883213.0
3.0,2.0,4.0,9.0,12.0,8.0,1.0,3.0,1650911418896468.0
1.0,-2.0,4.0,0.0,3.0,14.0,5.0,0.0,1650911418896468.0
-1.0,1.0,-7.0,-2.0,-3.0,-2.0,1.0,2.0,1650911418897354.0
0.0,-7.0,-3.0,-7.0,-22.0,-13.0,-5.0,-2.0,1650911418897354.0
-3.0,-2.0,4.0,-6.0,-11.0,-15.0,-6.0,-3.0,1650911418919884.0
1.0,5.0,16.0,15.0,11.0,14.0,-3.0,-2.0,1650911418919884.0
3.0,0.0,1.0,3.0,7.0,-10.0,-2.0,-1.0,1650911418919884.0
-3.0,-1.0,4.0,0.0,-22.0,7.0,0.0,1.0,1650911418919884.0
-2.0,-3.0,-7.0,-7.0,11.0,-1.0,1.0,-1.0,1650911418943032.0
0.0,2.0,-6.0,7.0,5.0,2.0,1.0,3.0,1650911418943032.0
0.0,2.0,12.0,2.0,3.0,2.0,-1.0,0.0,1650911418943032.0
-3.0,1.0,5.0,2.0,4.0,-1.0,1.0,-2.0,1650911418943032.0
-4.0,-1.0,-5.0,-3.0,-12.0,-4.0,3.0,0.0,1650911418956854.0
4.0,4.0,-2.0,1.0,2.0,2.0,0.0,-2.0,1650911418956854.0
-3.0,-6.0,-1.0,-3.0,11.0,11.0,0.0,-1.0,1650911418957887.0
-4.0,-2.0,-6.0,-10.0,-19.0,-17.0,-5.0,-2.0,1650911418957887.0
4.0,6.0,12.0,11.0,-7.0,-12.0,2.0,3.0,1650911418980315.0
-3.0,-3.0,1.0,1.0,9.0,4.0,-1.0,-3.0,1650911418980315.0
0.0,5.0,4.0,1.0,6.0,11.0,3.0,1.0,1650911418980315.0
-3.0,-5.0,-15.0,-5.0,5.0,8.0,1.0,1.0,1650911418980315.0
0.0,-5.0,-27.0,-20.0,-15.0,-5.0,-1.0,-2.0,1650911419003169.0
1.0,1.0,20.0,8.0,-9.0,-8.0,-5.0,0.0,1650911419003169.0
-4.0,-5.0,-14.0,-10.0,1.0,0.0,-1.0,-1.0,1650911419003169.0
1.0,1.0,14.0,12.0,7.0,8.0,1.0,-2.0,1650911419003169.0
1.0,6.0,4.0,7.0,4.0,-3.0,0.0,0.0,1650911419017370.0
-1.0,-6.0,-7.0,-8.0,-14.0,-4.0,-2.0,0.0,1650911419017370.0
-3.0,-4.0,-8.0,-7.0,-6.0,-4.0,-2.0,-1.0,1650911419017370.0
-1.0,0.0,1.0,0.0,12.0,4.0,0.0,-1.0,1650911419017370.0
0.0,-2.0,6.0,6.0,-2.0,0.0,1.0,-1.0,1650911419039595.0
-1.0,1.0,4.0,6.0,6.0,3.0,1.0,-2.0,1650911419039595.0
1.0,-1.0,-10.0,-8.0,0.0,0.0,1.0,0.0,1650911419039595.0
1.0,2.0,-7.0,-3.0,-6.0,-9.0,-3.0,-1.0,1650911419039595.0
-5.0,-7.0,-19.0,-16.0,-5.0,-4.0,-3.0,-3.0,1650911419062183.0
-1.0,-2.0,7.0,0.0,-3.0,-3.0,-1.0,0.0,1650911419062183.0
3.0,2.0,5.0,9.0,-1.0,5.0,1.0,2.0,1650911419063019.0
-1.0,1.0,1.0,0.0,14.0,2.0,-1.0,1.0,1650911419063019.0
0.0,1.0,5.0,6.0,1.0,1.0,0.0,1.0,1650911419076982.0
0.0,2.0,-1.0,-7.0,-4.0,4.0,1.0,-1.0,1650911419076982.0
-1.0,-2.0,2.0,4.0,3.0,1.0,1.0,0.0,1650911419076982.0
-1.0,6.0,4.0,-4.0,-11.0,-3.0,-1.0,-2.0,1650911419076982.0
0.0,-1.0,4.0,2.0,-6.0,-5.0,-3.0,-2.0,1650911419099084.0
1.0,3.0,-3.0,7.0,13.0,2.0,0.0,1.0,1650911419099084.0
-1.0,-1.0,-3.0,-6.0,-2.0,3.0,0.0,1.0,1650911419099921.0
0.0,-4.0,-10.0,-3.0,-8.0,-5.0,-2.0,-2.0,1650911419099921.0
-2.0,-1.0,6.0,-1.0,0.0,-4.0,-1.0,-1.0,1650911419122919.0
-1.0,1.0,-3.0,2.0,-5.0,0.0,0.0,-1.0,1650911419122919.0
3.0,0.0,4.0,4.0,10.0,12.0,-1.0,-1.0,1650911419123496.0
-1.0,-1.0,-4.0,4.0,7.0,1.0,4.0,2.0,1650911419123496.0
-3.0,-6.0,-9.0,-9.0,-2.0,-8.0,-2.0,-3.0,1650911419137000.0
-1.0,-2.0,-8.0,-8.0,-11.0,-6.0,-1.0,2.0,1650911419137000.0
0.0,3.0,14.0,3.0,-11.0,-9.0,-2.0,1.0,1650911419137869.0
-1.0,0.0,-9.0,-6.0,-5.0,5.0,-2.0,-1.0,1650911419137869.0
-1.0,-1.0,6.0,4.0,10.0,9.0,1.0,1.0,1650911419159517.0
-2.0,0.0,3.0,6.0,9.0,3.0,2.0,-1.0,1650911419159517.0
2.0,5.0,-7.0,-6.0,1.0,-4.0,0.0,0.0,1650911419159517.0
-1.0,-6.0,7.0,4.0,-9.0,2.0,-2.0,0.0,1650911419159517.0
0.0,2.0,2.0,-6.0,-8.0,-3.0,1.0,-1.0,1650911419183270.0
-3.0,-6.0,-11.0,-4.0,9.0,3.0,1.0,-1.0,1650911419183270.0
-1.0,-6.0,-1.0,5.0,8.0,0.0,0.0,1.0,1650911419183270.0
0.0,-2.0,-3.0,-3.0,-11.0,-4.0,-1.0,-2.0,1650911419183270.0
0.0,2.0,2.0,3.0,1.0,0.0,0.0,-1.0,1650911419195860.0
-1.0,-1.0,3.0,0.0,2.0,-2.0,0.0,0.0,1650911419195860.0
-1.0,0.0,-8.0,-4.0,-8.0,6.0,-2.0,0.0,1650911419204985.0
-1.0,1.0,12.0,6.0,6.0,-6.0,0.0,0.0,1650911419204985.0
-2.0,-1.0,-13.0,-3.0,8.0,3.0,2.0,1.0,1650911419219514.0
-1.0,-1.0,-6.0,-2.0,-1.0,-1.0,0.0,-2.0,1650911419219514.0
0.0,-1.0,7.0,5.0,-5.0,-5.0,-2.0,-1.0,1650911419220389.0
-1.0,3.0,-6.0,-6.0,6.0,5.0,0.0,1.0,1650911419220389.0
0.0,0.0,10.0,3.0,-16.0,-10.0,-3.0,0.0,1650911419242793.0
-2.0,-2.0,1.0,-4.0,-3.0,0.0,-3.0,0.0,1650911419242793.0
-3.0,-4.0,-7.0,-11.0,-4.0,4.0,1.0,-1.0,1650911419242793.0
0.0,2.0,6.0,10.0,17.0,7.0,1.0,0.0,1650911419242793.0
0.0,-6.0,-19.0,-6.0,-2.0,1.0,0.0,0.0,1650911419255855.0
0.0,4.0,1.0,-1.0,-15.0,-8.0,-1.0,0.0,1650911419255855.0
0.0,-3.0,7.0,8.0,-7.0,5.0,-1.0,-1.0,1650911419265401.0
0.0,1.0,-2.0,1.0,28.0,0.0,4.0,0.0,1650911419265401.0
1.0,4.0,2.0,0.0,3.0,2.0,3.0,0.0,1650911419279185.0
0.0,0.0,0.0,-2.0,-12.0,-4.0,-4.0,-1.0,1650911419279185.0
-3.0,-4.0,-8.0,-8.0,-7.0,-9.0,-2.0,-1.0,1650911419280018.0
-2.0,-1.0,5.0,0.0,-16.0,1.0,-3.0,0.0,1650911419280018.0
1.0,0.0,7.0,8.0,4.0,-1.0,-2.0,0.0,1650911419303087.0
-2.0,-1.0,-4.0,-9.0,-4.0,7.0,-1.0,-1.0,1650911419303087.0
-1.0,4.0,-6.0,2.0,8.0,0.0,2.0,1.0,1650911419303087.0
-1.0,-2.0,6.0,3.0,2.0,2.0,1.0,0.0,1650911419303087.0
0.0,2.0,4.0,1.0,4.0,0.0,-2.0,-1.0,1650911419316547.0
0.0,0.0,8.0,2.0,-10.0,-25.0,-3.0,0.0,1650911419316547.0
-1.0,3.0,2.0,4.0,6.0,1.0,-1.0,-1.0,1650911419324398.0
-1.0,-5.0,-12.0,-11.0,0.0,-3.0,0.0,-2.0,1650911419324398.0
2.0,1.0,5.0,1.0,-9.0,5.0,1.0,-1.0,1650911419347527.0
2.0,1.0,1.0,4.0,14.0,9.0,3.0,1.0,1650911419347527.0
-1.0,-1.0,0.0,0.0,0.0,-11.0,-4.0,-2.0,1650911419348519.0
0.0,-1.0,1.0,-6.0,-18.0,-3.0,-3.0,-1.0,1650911419348519.0
-2.0,-3.0,2.0,4.0,2.0,5.0,1.0,2.0,1650911419362011.0
-2.0,-2.0,1.0,5.0,6.0,4.0,-1.0,-2.0,1650911419362011.0
1.0,-1.0,-12.0,-10.0,-6.0,-7.0,-2.0,-1.0,1650911419362844.0
0.0,1.0,7.0,1.0,-11.0,-2.0,-1.0,0.0,1650911419362844.0
-4.0,-5.0,-14.0,-7.0,-1.0,-10.0,-2.0,-4.0,1650911419385636.0
2.0,5.0,11.0,9.0,18.0,11.0,2.0,2.0,1650911419385636.0
2.0,-1.0,4.0,5.0,14.0,13.0,4.0,0.0,1650911419385825.0
0.0,1.0,-5.0,-4.0,-7.0,-1.0,2.0,1.0,1650911419385825.0
0.0,2.0,2.0,-7.0,-16.0,-8.0,-4.0,-2.0,1650911419399953.0
-2.0,-4.0,-11.0,-7.0,-13.0,0.0,-4.0,-3.0,1650911419399953.0
-2.0,0.0,2.0,4.0,5.0,-14.0,0.0,1.0,1650911419406974.0
1.0,0.0,1.0,6.0,20.0,16.0,2.0,1.0,1650911419406974.0
1.0,4.0,10.0,1.0,-2.0,3.0,3.0,1.0,1650911419422902.0
0.0,-1.0,-4.0,-4.0,-6.0,1.0,-2.0,0.0,1650911419422902.0
-2.0,-3.0,-7.0,-8.0,-8.0,-7.0,0.0,-3.0,1650911419423674.0
-1.0,3.0,8.0,7.0,3.0,-3.0,-2.0,0.0,1650911419423674.0
0.0,-2.0,-5.0,-1.0,6.0,6.0,1.0,1.0,1650911419435895.0
-1.0,0.0,1.0,-3.0,-12.0,-8.0,-2.0,0.0,1650911419435895.0
0.0,1.0,4.0,3.0,-7.0,3.0,-1.0,1.0,1650911419452363.0
-1.0,-2.0,-5.0,0.0,6.0,-3.0,0.0,-1.0,1650911419452363.0
-1.0,3.0,6.0,4.0,20.0,2.0,-2.0,-2.0,1650911419459551.0
1.0,-3.0,-5.0,-4.0,-11.0,-2.0,-1.0,0.0,1650911419459551.0
-3.0,0.0,1.0,-3.0,-7.0,-4.0,-1.0,-3.0,1650911419460418.0
0.0,0.0,-2.0,4.0,-18.0,6.0,0.0,0.0,1650911419460418.0
1.0,1.0,10.0,11.0,19.0,2.0,0.0,1.0,1650911419483370.0
-2.0,-6.0,-11.0,-16.0,5.0,1.0,1.0,-3.0,1650911419483370.0
-1.0,0.0,1.0,1.0,5.0,0.0,1.0,0.0,1650911419483370.0
0.0,1.0,0.0,-5.0,-14.0,3.0,0.0,0.0,1650911419483370.0
-2.0,-6.0,-8.0,-7.0,-18.0,-18.0,-4.0,-1.0,1650911419495694.0
0.0,1.0,3.0,4.0,7.0,-3.0,-3.0,0.0,1650911419495694.0
0.0,-4.0,4.0,1.0,1.0,1.0,-1.0,0.0,1650911419504699.0
4.0,6.0,-2.0,-2.0,8.0,1.0,0.0,1.0,1650911419504699.0
-3.0,-3.0,-30.0,-14.0,0.0,9.0,2.0,0.0,1650911419519880.0
1.0,1.0,2.0,7.0,4.0,0.0,2.0,-1.0,1650911419519880.0
-1.0,0.0,1.0,3.0,1.0,2.0,-1.0,2.0,1650911419519880.0
-1.0,-1.0,-3.0,-6.0,-5.0,-6.0,-2.0,0.0,1650911419519880.0
-1.0,-1.0,5.0,0.0,-8.0,-2.0,-2.0,-2.0,1650911419543148.0
1.0,1.0,-2.0,1.0,2.0,-3.0,1.0,-1.0,1650911419543148.0
-1.0,-1.0,-4.0,-10.0,-21.0,-5.0,-3.0,-4.0,1650911419543148.0
0.0,-1.0,2.0,2.0,-20.0,-14.0,-3.0,-2.0,1650911419543148.0
1.0,0.0,10.0,13.0,29.0,14.0,4.0,1.0,1650911419564823.0
-2.0,-2.0,-5.0,7.0,39.0,20.0,9.0,3.0,1650911419564823.0
1.0,2.0,5.0,1.0,5.0,15.0,1.0,-1.0,1650911419565672.0
-2.0,-5.0,-8.0,-13.0,-10.0,-20.0,-4.0,-2.0,1650911419565672.0
0.0,-1.0,-2.0,-10.0,-35.0,-4.0,-4.0,-2.0,1650911419579002.0
1.0,-1.0,4.0,6.0,-8.0,-17.0,-4.0,0.0,1650911419579002.0
-3.0,-4.0,-9.0,-6.0,1.0,-9.0,-2.0,-1.0,1650911419579834.0
0.0,-2.0,-3.0,-6.0,-3.0,8.0,-1.0,-2.0,1650911419579834.0
0.0,0.0,1.0,5.0,13.0,14.0,0.0,0.0,1650911419602052.0
1.0,8.0,20.0,19.0,25.0,13.0,7.0,3.0,1650911419602052.0
1.0,-1.0,-14.0,-7.0,7.0,0.0,2.0,1.0,1650911419603007.0
-3.0,-8.0,-12.0,-6.0,-8.0,-10.0,-3.0,-3.0,1650911419603007.0
-2.0,-2.0,0.0,-9.0,-14.0,-11.0,-3.0,-3.0,1650911419625736.0
-1.0,-2.0,0.0,-6.0,-23.0,-2.0,-5.0,-3.0,1650911419625736.0
-1.0,-1.0,3.0,4.0,-6.0,-4.0,-2.0,0.0,1650911419625736.0
0.0,-1.0,1.0,4.0,14.0,5.0,1.0,1.0,1650911419625736.0
-1.0,3.0,0.0,-3.0,-9.0,-2.0,0.0,-1.0,1650911419639543.0
-2.0,-2.0,-6.0,-1.0,-9.0,-2.0,-2.0,1.0,1650911419639543.0
3.0,1.0,10.0,18.0,41.0,15.0,5.0,1.0,1650911419639854.0
1.0,2.0,1.0,3.0,9.0,10.0,3.0,1.0,1650911419639854.0
1.0,1.0,6.0,-1.0,-1.0,-7.0,1.0,-2.0,1650911419662187.0
-4.0,-2.0,-9.0,-15.0,-21.0,-14.0,-4.0,-1.0,1650911419662187.0
-1.0,-4.0,-2.0,-4.0,-16.0,-6.0,-4.0,-1.0,1650911419663188.0
0.0,0.0,5.0,3.0,5.0,0.0,-1.0,-1.0,1650911419663188.0
-1.0,0.0,-3.0,-8.0,-21.0,-14.0,-5.0,-1.0,1650911419685867.0
-2.0,-2.0,0.0,-1.0,-3.0,-4.0,-4.0,-3.0,1650911419685867.0
1.0,3.0,5.0,15.0,29.0,16.0,4.0,0.0,1650911419685867.0
1.0,2.0,2.0,11.0,38.0,23.0,11.0,6.0,1650911419685867.0
-1.0,-1.0,3.0,3.0,1.0,0.0,0.0,0.0,1650911419699904.0
-3.0,-4.0,-16.0,-15.0,-19.0,-9.0,-4.0,-3.0,1650911419699904.0
-1.0,-2.0,0.0,-7.0,-23.0,-13.0,-5.0,-1.0,1650911419699904.0
-4.0,-2.0,-1.0,-9.0,-15.0,-5.0,-7.0,-4.0,1650911419699904.0
-1.0,-3.0,-7.0,-7.0,0.0,0.0,-1.0,-1.0,1650911419722040.0
1.0,2.0,-6.0,-1.0,-9.0,9.0,1.0,1.0,1650911419722040.0
-3.0,1.0,1.0,1.0,3.0,-10.0,1.0,0.0,1650911419729918.0
0.0,0.0,6.0,7.0,6.0,5.0,2.0,0.0,1650911419729918.0
0.0,0.0,2.0,9.0,28.0,14.0,6.0,2.0,1650911419746284.0
1.0,-1.0,0.0,-4.0,4.0,0.0,-1.0,-1.0,1650911419746284.0
1.0,0.0,-1.0,-5.0,-13.0,-6.0,-2.0,1.0,1650911419746284.0
-3.0,-5.0,-7.0,-10.0,-24.0,-18.0,-7.0,-4.0,1650911419746284.0
0.0,0.0,4.0,4.0,-5.0,1.0,-2.0,-1.0,1650911419759447.0
1.0,1.0,2.0,4.0,13.0,5.0,2.0,-1.0,1650911419759447.0
1.0,1.0,-3.0,-3.0,8.0,9.0,1.0,2.0,1650911419760281.0
1.0,1.0,7.0,11.0,1.0,0.0,2.0,3.0,1650911419760281.0
1.0,-1.0,-9.0,-3.0,4.0,3.0,2.0,0.0,1650911419782765.0
-1.0,-1.0,7.0,2.0,-6.0,-3.0,0.0,-2.0,1650911419782765.0
0.0,-1.0,-7.0,-6.0,-8.0,-7.0,-4.0,-2.0,1650911419782765.0
-3.0,-3.0,-7.0,-18.0,-19.0,-17.0,-6.0,-5.0,1650911419782765.0
-1.0,0.0,-1.0,3.0,2.0,7.0,-1.0,0.0,1650911419805668.0
2.0,-3.0,-9.0,0.0,12.0,9.0,1.0,2.0,1650911419805668.0
-2.0,0.0,5.0,0.0,-2.0,9.0,0.0,0.0,1650911419805961.0
-1.0,0.0,-1.0,-2.0,-15.0,-12.0,-1.0,-1.0,1650911419805961.0
0.0,1.0,8.0,5.0,8.0,-5.0,3.0,-2.0,1650911419820016.0
0.0,2.0,6.0,7.0,20.0,5.0,2.0,0.0,1650911419820016.0
0.0,-1.0,-5.0,0.0,7.0,4.0,2.0,-1.0,1650911419820016.0
-1.0,0.0,3.0,1.0,-4.0,2.0,-2.0,-1.0,1650911419820016.0
0.0,-2.0,-6.0,-7.0,-19.0,-4.0,-6.0,-4.0,1650911419842985.0
-2.0,-2.0,-1.0,-7.0,-19.0,-16.0,-6.0,0.0,1650911419842985.0
0.0,1.0,1.0,3.0,3.0,0.0,-1.0,0.0,1650911419842985.0
0.0,0.0,1.0,1.0,9.0,12.0,3.0,-1.0,1650911419842985.0
0.0,-2.0,-13.0,-11.0,3.0,2.0,3.0,1.0,1650911419866019.0
0.0,2.0,5.0,4.0,5.0,4.0,2.0,-1.0,1650911419866019.0
0.0,3.0,7.0,6.0,-6.0,-3.0,-1.0,-1.0,1650911419866019.0
1.0,0.0,1.0,0.0,-6.0,-9.0,-4.0,-1.0,1650911419866019.0
-1.0,-2.0,12.0,2.0,-9.0,-1.0,-4.0,-3.0,1650911419878848.0
-1.0,-1.0,5.0,5.0,5.0,7.0,1.0,0.0,1650911419878848.0
-2.0,-1.0,-3.0,0.0,2.0,-9.0,1.0,1.0,1650911419879849.0
-2.0,0.0,3.0,3.0,5.0,-3.0,0.0,-1.0,1650911419879849.0
1.0,3.0,5.0,11.0,3.0,10.0,2.0,4.0,1650911419903040.0
-2.0,-3.0,-17.0,-14.0,6.0,-6.0,1.0,-1.0,1650911419903040.0
0.0,-1.0,3.0,1.0,5.0,10.0,2.0,0.0,1650911419903040.0
0.0,0.0,-2.0,-4.0,1.0,-7.0,-1.0,0.0,1650911419903040.0
-3.0,-3.0,-2.0,-4.0,-14.0,-17.0,-4.0,-2.0,1650911419925447.0
-1.0,-2.0,5.0,2.0,-13.0,1.0,-1.0,-3.0,1650911419925447.0
-1.0,-1.0,-2.0,-5.0,-9.0,0.0,0.0,-2.0,1650911419925447.0
-1.0,-2.0,-19.0,-7.0,1.0,-1.0,0.0,-2.0,1650911419925447.0
1.0,2.0,5.0,4.0,2.0,0.0,0.0,0.0,1650911419939533.0
-1.0,1.0,7.0,3.0,3.0,5.0,0.0,0.0,1650911419939533.0
-2.0,-3.0,-6.0,-4.0,1.0,2.0,0.0,-2.0,1650911419939857.0
2.0,0.0,4.0,3.0,6.0,0.0,-3.0,0.0,1650911419939857.0
-1.0,1.0,-1.0,0.0,-8.0,1.0,-1.0,0.0,1650911419962262.0
2.0,1.0,2.0,11.0,17.0,0.0,4.0,1.0,1650911419962262.0
3.0,2.0,2.0,4.0,7.0,-2.0,1.0,0.0,1650911419963263.0
-2.0,-1.0,-4.0,-6.0,-8.0,0.0,-2.0,0.0,1650911419963263.0
0.0,0.0,-1.0,-5.0,-3.0,1.0,-1.0,-1.0,1650911419985953.0
-1.0,-2.0,1.0,-4.0,-7.0,-6.0,-2.0,-3.0,1650911419985953.0
0.0,0.0,1.0,-1.0,-12.0,-7.0,-3.0,-2.0,1650911419985953.0
0.0,-2.0,-2.0,3.0,9.0,15.0,1.0,-2.0,1650911419985953.0
-1.0,-4.0,-6.0,-3.0,6.0,-10.0,-1.0,-1.0,1650911419998811.0
-1.0,3.0,3.0,5.0,9.0,-4.0,1.0,1.0,1650911419998811.0
1.0,-2.0,-1.0,-3.0,-2.0,4.0,0.0,-1.0,1650911419999676.0
-1.0,0.0,2.0,-4.0,-5.0,-5.0,2.0,0.0,1650911419999676.0
-2.0,0.0,-3.0,-2.0,-10.0,-4.0,1.0,-2.0,1650911420029518.0
0.0,-2.0,-2.0,-4.0,-14.0,-1.0,-4.0,0.0,1650911420029518.0
-2.0,1.0,2.0,4.0,10.0,8.0,0.0,-2.0,1650911420030517.0
2.0,0.0,3.0,7.0,17.0,16.0,7.0,4.0,1650911420030517.0
-2.0,-3.0,-8.0,-2.0,10.0,0.0,2.0,-1.0,1650911420045055.0
-1.0,1.0,0.0,0.0,1.0,6.0,-1.0,0.0,1650911420045055.0
-1.0,-5.0,-3.0,-4.0,-18.0,-23.0,-6.0,-2.0,1650911420046055.0
0.0,-2.0,3.0,1.0,-5.0,-4.0,-3.0,-2.0,1650911420046055.0
3.0,2.0,2.0,1.0,6.0,4.0,1.0,-2.0,1650911420060022.0
-4.0,-1.0,-3.0,-3.0,1.0,-4.0,-2.0,-2.0,1650911420060022.0
-2.0,-1.0,-1.0,-4.0,-11.0,2.0,0.0,-2.0,1650911420060022.0
-1.0,3.0,-2.0,1.0,-4.0,-2.0,0.0,0.0,1650911420060022.0
1.0,-2.0,0.0,2.0,14.0,5.0,1.0,2.0,1650911420081673.0
1.0,-1.0,3.0,2.0,-10.0,8.0,0.0,-1.0,1650911420081673.0
-2.0,-1.0,-9.0,-7.0,11.0,1.0,0.0,2.0,1650911420082672.0
-1.0,-2.0,-2.0,-3.0,-10.0,5.0,-1.0,-2.0,1650911420082672.0
-1.0,0.0,-3.0,-9.0,-9.0,-11.0,-1.0,1.0,1650911420105408.0
0.0,0.0,1.0,-1.0,-2.0,2.0,-1.0,-3.0,1650911420105408.0
-1.0,0.0,-1.0,0.0,4.0,-7.0,0.0,2.0,1650911420105984.0
1.0,0.0,-2.0,1.0,6.0,12.0,1.0,-1.0,1650911420105984.0
-2.0,-1.0,3.0,3.0,-4.0,-5.0,0.0,2.0,1650911420119707.0
1.0,-2.0,-9.0,-3.0,-6.0,-8.0,-3.0,-4.0,1650911420119707.0
-2.0,-2.0,-2.0,-3.0,-11.0,-5.0,-3.0,-2.0,1650911420119707.0
-1.0,-2.0,0.0,0.0,-12.0,-13.0,-4.0,-2.0,1650911420119707.0
1.0,0.0,3.0,8.0,25.0,19.0,1.0,0.0,1650911420142065.0
0.0,1.0,3.0,3.0,5.0,0.0,2.0,2.0,1650911420142065.0
1.0,3.0,9.0,7.0,8.0,7.0,2.0,1.0,1650911420142065.0
0.0,-1.0,-2.0,-4.0,0.0,-1.0,-1.0,-3.0,1650911420142065.0
-3.0,-2.0,-5.0,-6.0,-23.0,-22.0,-6.0,-4.0,1650911420165042.0
0.0,-1.0,1.0,-4.0,-2.0,-4.0,-3.0,1.0,1650911420165042.0
0.0,0.0,0.0,2.0,2.0,12.0,2.0,-1.0,1650911420166069.0
1.0,2.0,3.0,4.0,6.0,0.0,3.0,2.0,1650911420166069.0
1.0,1.0,2.0,3.0,1.0,3.0,9.0,6.0,1650911420179098.0
-2.0,-1.0,-4.0,-2.0,3.0,11.0,5.0,9.0,1650911420179098.0
-1.0,0.0,0.0,5.0,7.0,-12.0,-7.0,-1.0,1650911420186987.0
0.0,1.0,0.0,7.0,13.0,5.0,-8.0,-22.0,1650911420186987.0
-1.0,1.0,-4.0,-1.0,-1.0,-2.0,-1.0,-5.0,1650911420202066.0
-1.0,-3.0,-4.0,-10.0,-24.0,-8.0,-3.0,3.0,1650911420202066.0
0.0,-1.0,-2.0,-4.0,-9.0,-5.0,5.0,6.0,1650911420202066.0
-1.0,-1.0,4.0,1.0,2.0,-7.0,5.0,10.0,1650911420202066.0
-2.0,-3.0,1.0,3.0,-2.0,6.0,-8.0,-5.0,1650911420226220.0
-2.0,-2.0,-2.0,3.0,21.0,6.0,-1.0,-2.0,1650911420226220.0
2.0,-3.0,0.0,1.0,4.0,7.0,2.0,-1.0,1650911420226220.0
0.0,-1.0,-3.0,-6.0,-4.0,-6.0,3.0,5.0,1650911420226220.0
2.0,0.0,-1.0,-4.0,-8.0,-4.0,5.0,8.0,1650911420239503.0
0.0,2.0,2.0,0.0,-14.0,-5.0,-11.0,-14.0,1650911420239503.0
2.0,1.0,2.0,2.0,4.0,4.0,-7.0,-6.0,1650911420246813.0
-3.0,-6.0,-5.0,1.0,14.0,11.0,-3.0,-9.0,1650911420246813.0
-4.0,-6.0,-7.0,-7.0,1.0,5.0,8.0,8.0,1650911420261984.0
4.0,-1.0,-2.0,-4.0,-8.0,-18.0,1.0,10.0,1650911420261984.0
1.0,1.0,2.0,-1.0,-13.0,-4.0,-2.0,-15.0,1650911420262820.0
2.0,13.0,3.0,7.0,4.0,5.0,0.0,-1.0,1650911420262820.0
7.0,-12.0,0.0,1.0,8.0,10.0,1.0,3.0,1650911420285871.0
-15.0,-6.0,0.0,2.0,10.0,-8.0,7.0,5.0,1650911420285871.0
-3.0,-3.0,-1.0,-1.0,-7.0,-1.0,2.0,1.0,1650911420286012.0
22.0,14.0,6.0,-2.0,-9.0,9.0,7.0,-2.0,1650911420286012.0
-11.0,9.0,2.0,2.0,0.0,-4.0,-9.0,8.0,1650911420299322.0
-6.0,-6.0,-8.0,2.0,4.0,6.0,-3.0,-15.0,1650911420299322.0
6.0,22.0,13.0,3.0,7.0,-10.0,-7.0,-3.0,1650911420306874.0
10.0,-25.0,-8.0,-1.0,3.0,-1.0,10.0,20.0,1650911420306874.0
-27.0,-11.0,1.0,-5.0,-5.0,4.0,11.0,2.0,1650911420322238.0
18.0,18.0,-1.0,-6.0,-11.0,2.0,-14.0,-11.0,1650911420322238.0
15.0,12.0,-5.0,-2.0,3.0,-1.0,-11.0,-12.0,1650911420322238.0
-42.0,-8.0,-1.0,-2.0,-5.0,-13.0,1.0,12.0,1650911420322238.0
10.0,-35.0,-12.0,-3.0,3.0,3.0,-2.0,-4.0,1650911420345028.0
-24.0,-14.0,0.0,4.0,-1.0,-8.0,1.0,-10.0,1650911420345028.0
9.0,7.0,-4.0,-10.0,-4.0,5.0,0.0,6.0,1650911420346028.0
-6.0,-4.0,-9.0,-10.0,-8.0,-8.0,-26.0,-34.0,1650911420346028.0
-7.0,11.0,15.0,10.0,6.0,-6.0,-6.0,13.0,1650911420359504.0
-15.0,-18.0,1.0,10.0,7.0,12.0,16.0,5.0,1650911420359504.0
-10.0,-22.0,-14.0,-10.0,10.0,17.0,4.0,6.0,1650911420367679.0
38.0,39.0,24.0,-1.0,-5.0,-9.0,15.0,15.0,1650911420367679.0
-7.0,14.0,-2.0,-5.0,-11.0,-7.0,-15.0,-15.0,1650911420381846.0
-19.0,-59.0,-15.0,-13.0,-19.0,3.0,-15.0,-19.0,1650911420381846.0
8.0,21.0,12.0,20.0,9.0,-7.0,8.0,4.0,1650911420382680.0
-21.0,-6.0,-2.0,7.0,13.0,5.0,-9.0,-9.0,1650911420382680.0
5.0,31.0,5.0,-4.0,-3.0,-5.0,-2.0,-7.0,1650911420406164.0
16.0,48.0,2.0,7.0,2.0,8.0,44.0,63.0,1650911420406164.0
-29.0,-71.0,-7.0,-8.0,-11.0,-4.0,-13.0,-24.0,1650911420406164.0
6.0,14.0,-2.0,4.0,7.0,6.0,-3.0,0.0,1650911420406164.0
16.0,29.0,16.0,8.0,6.0,6.0,9.0,-23.0,1650911420420096.0
28.0,12.0,2.0,4.0,5.0,-10.0,-14.0,20.0,1650911420420096.0
-11.0,-5.0,-8.0,-13.0,-13.0,2.0,11.0,16.0,1650911420427438.0
-6.0,-13.0,-1.0,-4.0,-8.0,-10.0,3.0,8.0,1650911420427438.0
-7.0,-9.0,-4.0,3.0,10.0,-3.0,-6.0,-20.0,1650911420442016.0
-10.0,7.0,11.0,9.0,24.0,13.0,0.0,-4.0,1650911420442016.0
41.0,1.0,11.0,-3.0,-18.0,2.0,-3.0,-22.0,1650911420449785.0
-8.0,-32.0,-31.0,-20.0,-12.0,-11.0,-6.0,-2.0,1650911420449785.0
11.0,0.0,-17.0,9.0,-2.0,-5.0,-1.0,1.0,1650911420466351.0
-5.0,-3.0,2.0,-10.0,8.0,3.0,-11.0,-21.0,1650911420466351.0
-45.0,8.0,11.0,8.0,6.0,2.0,-3.0,5.0,1650911420466351.0
43.0,17.0,6.0,6.0,0.0,4.0,2.0,5.0,1650911420466351.0
-7.0,-19.0,-20.0,-22.0,-12.0,-20.0,-8.0,-3.0,1650911420478683.0
33.0,-5.0,-7.0,9.0,5.0,-7.0,3.0,13.0,1650911420478683.0
-30.0,2.0,2.0,14.0,10.0,0.0,-2.0,-10.0,1650911420486692.0
-51.0,5.0,2.0,-6.0,-9.0,-5.0,4.0,16.0,1650911420486692.0
59.0,3.0,4.0,9.0,0.0,2.0,-11.0,-20.0,1650911420502343.0
20.0,5.0,-15.0,-13.0,-10.0,-1.0,-11.0,-18.0,1650911420502343.0
-10.0,-1.0,-3.0,-17.0,-7.0,-5.0,-8.0,-16.0,1650911420502343.0
2.0,-1.0,15.0,15.0,15.0,11.0,23.0,25.0,1650911420502343.0
-14.0,-6.0,0.0,-2.0,-1.0,2.0,3.0,12.0,1650911420525557.0
6.0,12.0,0.0,-2.0,-20.0,-8.0,-2.0,-7.0,1650911420525557.0
-9.0,-2.0,9.0,-4.0,18.0,-2.0,-6.0,-5.0,1650911420525557.0
5.0,0.0,-6.0,2.0,8.0,2.0,-10.0,-20.0,1650911420525557.0
-8.0,-2.0,17.0,0.0,-11.0,-3.0,7.0,13.0,1650911420547764.0
-9.0,-24.0,-11.0,-2.0,13.0,11.0,4.0,3.0,1650911420547764.0
17.0,10.0,4.0,13.0,11.0,14.0,11.0,18.0,1650911420548611.0
18.0,11.0,6.0,2.0,-2.0,-3.0,1.0,6.0,1650911420548611.0
-15.0,-10.0,-13.0,-15.0,-10.0,-4.0,-6.0,10.0,1650911420561785.0
-12.0,-13.0,-4.0,-12.0,-23.0,-18.0,-7.0,-37.0,1650911420561785.0
-22.0,-5.0,-3.0,-2.0,-10.0,-1.0,-4.0,5.0,1650911420562785.0
19.0,10.0,6.0,7.0,11.0,-1.0,2.0,-4.0,1650911420562785.0
-17.0,9.0,7.0,5.0,0.0,-1.0,3.0,10.0,1650911420585276.0
-8.0,30.0,24.0,7.0,7.0,1.0,-3.0,-9.0,1650911420585276.0
9.0,-50.0,-23.0,-11.0,-2.0,-5.0,8.0,6.0,1650911420585276.0
-24.0,-26.0,-23.0,-9.0,-8.0,3.0,-4.0,-2.0,1650911420585276.0
9.0,8.0,5.0,3.0,-16.0,0.0,2.0,-23.0,1650911420607583.0
-15.0,3.0,-8.0,1.0,15.0,-9.0,0.0,9.0,1650911420607583.0
61.0,29.0,14.0,13.0,20.0,9.0,-11.0,-26.0,1650911420608443.0
-33.0,-16.0,1.0,-10.0,-17.0,-12.0,-11.0,2.0,1650911420608443.0
4.0,-7.0,7.0,4.0,10.0,14.0,5.0,1.0,1650911420622562.0
-14.0,9.0,9.0,3.0,-4.0,4.0,3.0,2.0,1650911420622562.0
-9.0,9.0,-5.0,-4.0,-11.0,-1.0,12.0,26.0,1650911420622562.0
-14.0,-26.0,-27.0,-23.0,-13.0,2.0,-6.0,-8.0,1650911420622562.0
19.0,22.0,11.0,11.0,17.0,2.0,-3.0,5.0,1650911420644850.0
-3.0,-7.0,-10.0,-10.0,-11.0,-9.0,-1.0,-18.0,1650911420644850.0
-4.0,14.0,12.0,7.0,-4.0,-12.0,2.0,52.0,1650911420645850.0
14.0,14.0,6.0,17.0,11.0,15.0,4.0,0.0,1650911420645850.0
-21.0,-17.0,19.0,-3.0,2.0,18.0,1.0,1.0,1650911420667908.0
15.0,-4.0,-15.0,-15.0,-17.0,-21.0,2.0,12.0,1650911420667908.0
11.0,8.0,4.0,10.0,21.0,-4.0,-1.0,-8.0,1650911420667908.0
-8.0,-25.0,2.0,-6.0,-25.0,-13.0,-10.0,-20.0,1650911420667908.0
-2.0,-4.0,-8.0,10.0,14.0,14.0,10.0,18.0,1650911420682231.0
-29.0,-2.0,8.0,5.0,6.0,3.0,-15.0,-24.0,1650911420682231.0
32.0,0.0,-11.0,-10.0,-11.0,-4.0,12.0,13.0,1650911420682231.0
10.0,21.0,43.0,17.0,10.0,2.0,1.0,14.0,1650911420682231.0
32.0,14.0,-39.0,-8.0,2.0,-8.0,-7.0,-18.0,1650911420705386.0
10.0,-6.0,14.0,-23.0,-23.0,-9.0,-10.0,-11.0,1650911420705386.0
-15.0,9.0,-1.0,6.0,-12.0,-6.0,-3.0,-16.0,1650911420705386.0
-7.0,8.0,-6.0,-5.0,22.0,15.0,-8.0,-13.0,1650911420705386.0
-13.0,4.0,8.0,3.0,11.0,-1.0,2.0,-14.0,1650911420727902.0
30.0,-13.0,-17.0,-11.0,-5.0,-2.0,6.0,29.0,1650911420727902.0
-18.0,16.0,20.0,0.0,-20.0,-6.0,-5.0,-2.0,1650911420727902.0
-8.0,-29.0,-29.0,-6.0,-11.0,-16.0,-1.0,-1.0,1650911420727902.0
9.0,6.0,-4.0,-5.0,-9.0,-2.0,-2.0,8.0,1650911420751088.0
-8.0,-15.0,-13.0,6.0,25.0,11.0,0.0,-8.0,1650911420751088.0
-5.0,15.0,10.0,0.0,1.0,12.0,2.0,-5.0,1650911420751088.0
6.0,2.0,-12.0,3.0,2.0,-3.0,-1.0,-2.0,1650911420751088.0
-24.0,-10.0,7.0,-5.0,-1.0,-7.0,1.0,0.0,1650911420765186.0
3.0,-1.0,20.0,16.0,-4.0,13.0,3.0,10.0,1650911420765186.0
26.0,3.0,-14.0,-8.0,9.0,-6.0,4.0,3.0,1650911420765186.0
-16.0,21.0,1.0,2.0,-3.0,-9.0,-3.0,-4.0,1650911420765186.0
17.0,-12.0,19.0,5.0,-13.0,-16.0,-6.0,-4.0,1650911420787895.0
-12.0,-17.0,-10.0,-8.0,-1.0,3.0,4.0,15.0,1650911420787895.0
19.0,-15.0,-21.0,0.0,3.0,6.0,0.0,-1.0,1650911420787895.0
-10.0,19.0,16.0,10.0,5.0,10.0,10.0,11.0,1650911420787895.0
-18.0,-5.0,-9.0,-8.0,-5.0,-6.0,-8.0,-19.0,1650911420802622.0
18.0,19.0,31.0,13.0,-1.0,3.0,7.0,27.0,1650911420802622.0
3.0,-11.0,-29.0,-14.0,1.0,-3.0,6.0,4.0,1650911420802622.0
29.0,19.0,8.0,7.0,20.0,14.0,5.0,-12.0,1650911420802622.0
-2.0,-7.0,-2.0,-2.0,-10.0,-1.0,4.0,16.0,1650911420825595.0
-4.0,9.0,1.0,7.0,-7.0,-1.0,4.0,-5.0,1650911420825595.0
4.0,14.0,-11.0,-14.0,-9.0,-13.0,-9.0,2.0,1650911420825882.0
-49.0,-50.0,-13.0,-11.0,-11.0,-1.0,3.0,-13.0,1650911420825882.0
14.0,7.0,-1.0,1.0,5.0,7.0,-6.0,16.0,1650911420847018.0
6.0,25.0,6.0,-2.0,-15.0,-11.0,4.0,1.0,1650911420847018.0
-15.0,-41.0,-23.0,12.0,14.0,14.0,16.0,19.0,1650911420848016.0
11.0,22.0,28.0,13.0,18.0,2.0,-4.0,-3.0,1650911420848016.0
-2.0,-6.0,-25.0,-19.0,-6.0,4.0,0.0,-5.0,1650911420861331.0
-3.0,8.0,13.0,5.0,0.0,-1.0,-13.0,-12.0,1650911420861331.0
-15.0,-8.0,-4.0,-3.0,-9.0,-8.0,-1.0,-16.0,1650911420862167.0
21.0,-9.0,-3.0,-2.0,-12.0,-8.0,-5.0,13.0,1650911420862167.0
10.0,4.0,-5.0,1.0,-2.0,4.0,13.0,11.0,1650911420885709.0
7.0,21.0,26.0,1.0,8.0,5.0,-3.0,5.0,1650911420885709.0
-18.0,11.0,13.0,8.0,6.0,10.0,-3.0,-13.0,1650911420885709.0
1.0,-16.0,-20.0,0.0,15.0,8.0,-1.0,-5.0,1650911420885709.0
4.0,16.0,10.0,5.0,6.0,-5.0,-11.0,-18.0,1650911420907139.0
17.0,-29.0,-21.0,-2.0,-5.0,2.0,4.0,-10.0,1650911420907139.0
-6.0,2.0,18.0,-7.0,-34.0,-25.0,-5.0,14.0,1650911420908136.0
0.0,-20.0,-21.0,3.0,26.0,-3.0,-5.0,-12.0,1650911420908136.0
-15.0,14.0,31.0,0.0,-11.0,7.0,-7.0,-10.0,1650911420922490.0
0.0,4.0,-10.0,7.0,28.0,9.0,0.0,-6.0,1650911420922490.0
2.0,-8.0,2.0,-4.0,-2.0,4.0,5.0,10.0,1650911420922490.0
50.0,23.0,24.0,7.0,-16.0,-2.0,2.0,8.0,1650911420922490.0
-38.0,-16.0,1.0,-4.0,-8.0,-6.0,4.0,9.0,1650911420945729.0
-12.0,-13.0,1.0,-7.0,-11.0,-14.0,-13.0,-41.0,1650911420945729.0
-22.0,-5.0,7.0,3.0,7.0,-1.0,-8.0,-6.0,1650911420945729.0
-14.0,10.0,-8.0,-16.0,-16.0,-10.0,-9.0,-6.0,1650911420945729.0
-6.0,-20.0,-11.0,1.0,19.0,17.0,6.0,-6.0,1650911420968340.0
11.0,-4.0,-24.0,1.0,0.0,18.0,13.0,17.0,1650911420968340.0
-21.0,-14.0,-21.0,-7.0,-1.0,-12.0,-9.0,-10.0,1650911420968340.0
9.0,12.0,12.0,-1.0,-12.0,-7.0,3.0,17.0,1650911420968340.0
-17.0,-7.0,-18.0,-11.0,-16.0,-5.0,3.0,6.0,1650911420982304.0
-22.0,-8.0,2.0,-1.0,0.0,1.0,-1.0,2.0,1650911420982304.0
31.0,-6.0,-23.0,3.0,18.0,3.0,-2.0,-15.0,1650911420982304.0
0.0,11.0,16.0,-1.0,1.0,3.0,14.0,36.0,1650911420982304.0
2.0,-4.0,-14.0,-5.0,-5.0,-15.0,-9.0,-4.0,1650911421005459.0
6.0,12.0,22.0,22.0,-10.0,-10.0,1.0,10.0,1650911421005459.0
4.0,20.0,15.0,1.0,27.0,33.0,0.0,-20.0,1650911421006099.0
-12.0,-21.0,-34.0,-20.0,-13.0,-5.0,0.0,-8.0,1650911421006099.0
3.0,-32.0,-23.0,-6.0,1.0,-5.0,1.0,5.0,1650911421027611.0
-21.0,16.0,22.0,6.0,3.0,-5.0,1.0,6.0,1650911421027611.0
7.0,-4.0,-13.0,-2.0,-32.0,-14.0,-10.0,-1.0,1650911421028473.0
7.0,0.0,12.0,-3.0,0.0,2.0,-1.0,-2.0,1650911421028473.0
9.0,10.0,5.0,9.0,14.0,-2.0,-3.0,-4.0,1650911421050054.0
-33.0,-18.0,-35.0,-10.0,-3.0,0.0,-5.0,-12.0,1650911421050054.0
4.0,18.0,33.0,8.0,1.0,-2.0,4.0,-4.0,1650911421050886.0
-14.0,18.0,-17.0,-3.0,0.0,1.0,-1.0,5.0,1650911421050886.0
22.0,-19.0,-11.0,-10.0,-9.0,0.0,-1.0,3.0,1650911421066166.0
0.0,-4.0,2.0,13.0,26.0,13.0,7.0,12.0,1650911421066166.0
-4.0,-7.0,-3.0,-11.0,-15.0,-2.0,-10.0,-10.0,1650911421071138.0
3.0,-1.0,9.0,11.0,2.0,-1.0,7.0,-6.0,1650911421071138.0
-2.0,18.0,14.0,3.0,-5.0,-9.0,-2.0,6.0,1650911421095080.0
23.0,-15.0,-14.0,-8.0,-14.0,-4.0,-8.0,-19.0,1650911421095080.0
-11.0,3.0,1.0,2.0,8.0,11.0,10.0,38.0,1650911421095921.0
17.0,17.0,-3.0,-2.0,-7.0,-6.0,-10.0,-25.0,1650911421095921.0
-5.0,-2.0,14.0,12.0,9.0,2.0,16.0,10.0,1650911421100942.0
8.0,7.0,-13.0,-12.0,-10.0,6.0,-2.0,-6.0,1650911421100942.0
-6.0,25.0,14.0,16.0,6.0,13.0,10.0,18.0,1650911421109884.0
23.0,-33.0,-19.0,-15.0,6.0,0.0,1.0,-8.0,1650911421109884.0
-48.0,-5.0,13.0,4.0,5.0,-6.0,-8.0,-35.0,1650911421124513.0
3.0,-6.0,-8.0,-11.0,-9.0,-10.0,-5.0,2.0,1650911421124513.0
1.0,33.0,18.0,-2.0,-13.0,-14.0,3.0,3.0,1650911421126373.0
-9.0,-19.0,-27.0,-7.0,-18.0,-1.0,-8.0,2.0,1650911421126373.0
22.0,11.0,-10.0,8.0,9.0,9.0,7.0,5.0,1650911421147503.0
-19.0,-7.0,12.0,3.0,17.0,2.0,3.0,8.0,1650911421147503.0
22.0,-19.0,-20.0,-11.0,-6.0,0.0,-6.0,-4.0,1650911421148501.0
-12.0,5.0,-1.0,-3.0,-7.0,-4.0,-9.0,-2.0,1650911421148501.0
16.0,-2.0,-11.0,-3.0,-8.0,-5.0,0.0,-17.0,1650911421161613.0
-12.0,-2.0,7.0,-3.0,-12.0,-11.0,-3.0,12.0,1650911421161613.0
3.0,-19.0,0.0,16.0,37.0,14.0,8.0,-3.0,1650911421169788.0
2.0,9.0,11.0,5.0,9.0,11.0,3.0,5.0,1650911421169788.0
-29.0,14.0,-4.0,-7.0,-5.0,-1.0,0.0,4.0,1650911421185008.0
39.0,-4.0,-5.0,-2.0,-7.0,-3.0,-6.0,-17.0,1650911421185008.0
1.0,2.0,5.0,-1.0,-9.0,-10.0,-1.0,10.0,1650911421186838.0
-18.0,-16.0,3.0,2.0,-8.0,-7.0,-4.0,-5.0,1650911421186838.0
7.0,11.0,22.0,3.0,-3.0,3.0,-2.0,12.0,1650911421207157.0
-1.0,-2.0,-8.0,1.0,17.0,8.0,11.0,-8.0,1650911421207157.0
-33.0,-10.0,0.0,-2.0,1.0,1.0,-3.0,-5.0,1650911421209183.0
13.0,14.0,15.0,4.0,3.0,-3.0,9.0,10.0,1650911421209183.0
4.0,6.0,-1.0,3.0,0.0,11.0,0.0,6.0,1650911421221256.0
-12.0,-15.0,-14.0,0.0,-4.0,-6.0,-2.0,7.0,1650911421221256.0
0.0,16.0,29.0,7.0,-1.0,1.0,5.0,-5.0,1650911421230546.0
-10.0,-20.0,-16.0,-5.0,5.0,-1.0,-3.0,-1.0,1650911421230546.0
16.0,-5.0,-11.0,-4.0,-8.0,-3.0,0.0,0.0,1650911421244843.0
-2.0,12.0,7.0,-1.0,5.0,0.0,4.0,22.0,1650911421244843.0
3.0,-16.0,-17.0,-1.0,-7.0,2.0,-4.0,-14.0,1650911421246846.0
-8.0,16.0,21.0,11.0,8.0,6.0,-6.0,-26.0,1650911421246846.0
6.0,-5.0,-15.0,-2.0,3.0,-3.0,-4.0,7.0,1650911421268341.0
8.0,13.0,18.0,-6.0,-4.0,-11.0,-12.0,21.0,1650911421268341.0
-18.0,-7.0,-14.0,-7.0,-15.0,8.0,21.0,-6.0,1650911421269209.0
-28.0,-24.0,-9.0,-8.0,-10.0,-7.0,-11.0,-12.0,1650911421269209.0
-5.0,2.0,5.0,-3.0,6.0,5.0,5.0,13.0,1650911421281338.0
12.0,3.0,-6.0,0.0,-4.0,-8.0,6.0,-3.0,1650911421281338.0
3.0,-31.0,-11.0,3.0,10.0,-4.0,-11.0,-4.0,1650911421289857.0
29.0,42.0,-8.0,2.0,29.0,0.0,4.0,0.0,1650911421289857.0
-33.0,-6.0,23.0,-10.0,-35.0,-9.0,-7.0,-9.0,1650911421305562.0
-6.0,-3.0,18.0,1.0,10.0,19.0,3.0,-1.0,1650911421305562.0
26.0,20.0,12.0,1.0,15.0,-2.0,-4.0,-2.0,1650911421305977.0
-49.0,-2.0,7.0,10.0,6.0,6.0,6.0,0.0,1650911421305977.0
9.0,-16.0,-8.0,-1.0,-10.0,-15.0,-6.0,-1.0,1650911421327476.0
-5.0,8.0,-4.0,-8.0,-14.0,-3.0,-1.0,-3.0,1650911421327476.0
-1.0,-3.0,-2.0,2.0,-2.0,0.0,-10.0,-12.0,1650911421329311.0
8.0,14.0,15.0,3.0,3.0,7.0,5.0,14.0,1650911421329311.0
18.0,9.0,14.0,3.0,11.0,6.0,10.0,13.0,1650911421349601.0
-16.0,-15.0,-24.0,-13.0,-18.0,-7.0,-4.0,-25.0,1650911421349601.0
4.0,5.0,-19.0,-7.0,-10.0,-12.0,-13.0,-6.0,1650911421357603.0
-17.0,-5.0,2.0,2.0,11.0,-2.0,2.0,7.0,1650911421357603.0
24.0,7.0,6.0,9.0,-1.0,8.0,6.0,16.0,1650911421372757.0
-27.0,-23.0,1.0,4.0,9.0,-2.0,-12.0,-38.0,1650911421372757.0
-13.0,15.0,-3.0,-2.0,-2.0,-1.0,3.0,-2.0,1650911421373758.0
-21.0,-24.0,-12.0,-8.0,-21.0,-12.0,-14.0,-5.0,1650911421373758.0
17.0,16.0,6.0,7.0,14.0,4.0,12.0,-2.0,1650911421396209.0
-16.0,22.0,0.0,11.0,19.0,15.0,11.0,18.0,1650911421396209.0
-18.0,-25.0,-1.0,-5.0,-5.0,-4.0,-6.0,-7.0,1650911421397190.0
32.0,10.0,27.0,5.0,-9.0,1.0,0.0,5.0,1650911421397190.0
-17.0,-48.0,-47.0,-19.0,-14.0,-9.0,-2.0,-3.0,1650911421401212.0
21.0,10.0,-8.0,7.0,-9.0,-12.0,0.0,4.0,1650911421401212.0
8.0,7.0,14.0,2.0,22.0,15.0,4.0,4.0,1650911421410155.0
5.0,-9.0,-1.0,3.0,11.0,6.0,6.0,6.0,1650911421410155.0
8.0,9.0,-4.0,8.0,11.0,2.0,-3.0,0.0,1650911421425403.0
6.0,-10.0,-6.0,-3.0,-6.0,-3.0,0.0,-9.0,1650911421425403.0
10.0,17.0,25.0,8.0,-9.0,1.0,2.0,20.0,1650911421426155.0
13.0,6.0,10.0,-8.0,2.0,4.0,-2.0,-3.0,1650911421426155.0
-12.0,25.0,15.0,3.0,-6.0,0.0,-10.0,-20.0,1650911421447878.0
20.0,5.0,-11.0,-12.0,-8.0,-6.0,-3.0,7.0,1650911421447878.0
21.0,10.0,9.0,8.0,1.0,-7.0,1.0,-3.0,1650911421448852.0
-9.0,20.0,-1.0,-5.0,-3.0,6.0,6.0,5.0,1650911421448852.0
-20.0,-10.0,-10.0,-2.0,7.0,-2.0,-2.0,-13.0,1650911421470005.0
-28.0,-12.0,-8.0,0.0,-1.0,-2.0,-6.0,-2.0,1650911421470005.0
14.0,-11.0,-12.0,-11.0,-9.0,-7.0,-6.0,-1.0,1650911421471039.0
18.0,2.0,-4.0,-5.0,-14.0,-6.0,2.0,3.0,1650911421471039.0
-17.0,-3.0,11.0,12.0,12.0,5.0,1.0,-11.0,1650911421485270.0
18.0,-20.0,-30.0,-15.0,10.0,2.0,-1.0,-1.0,1650911421485270.0
2.0,-11.0,-4.0,-1.0,-13.0,9.0,8.0,12.0,1650911421486269.0
0.0,-18.0,-11.0,-3.0,-10.0,-13.0,-6.0,-5.0,1650911421486269.0
-11.0,-13.0,2.0,-2.0,-3.0,-5.0,-6.0,-1.0,1650911421507526.0
8.0,24.0,18.0,9.0,18.0,14.0,4.0,-1.0,1650911421507526.0
-15.0,-12.0,-15.0,-8.0,-12.0,-11.0,-2.0,3.0,1650911421509414.0
10.0,0.0,-5.0,1.0,9.0,8.0,4.0,2.0,1650911421509414.0
14.0,21.0,18.0,5.0,5.0,-1.0,-1.0,3.0,1650911421529759.0
-3.0,-11.0,4.0,-1.0,-7.0,-5.0,1.0,7.0,1650911421529759.0
-11.0,0.0,-8.0,-8.0,-5.0,-7.0,-6.0,-6.0,1650911421531615.0
3.0,6.0,-1.0,6.0,-1.0,6.0,10.0,2.0,1650911421531615.0
-2.0,-14.0,-7.0,-2.0,-5.0,-1.0,-1.0,2.0,1650911421545031.0
-7.0,-1.0,-2.0,1.0,-7.0,-3.0,3.0,2.0,1650911421545031.0
2.0,4.0,0.0,1.0,2.0,-2.0,-5.0,-1.0,1650911421546032.0
-5.0,-3.0,3.0,5.0,13.0,2.0,3.0,-5.0,1650911421546032.0
4.0,1.0,-1.0,0.0,2.0,8.0,-1.0,5.0,1650911421568380.0
2.0,1.0,6.0,-2.0,-8.0,-4.0,4.0,4.0,1650911421568380.0
-6.0,-4.0,-12.0,-5.0,-5.0,-3.0,-2.0,-4.0,1650911421569260.0
-2.0,-8.0,-4.0,-1.0,-4.0,-3.0,-7.0,0.0,1650911421569260.0
1.0,-5.0,-7.0,-2.0,3.0,0.0,4.0,2.0,1650911421589885.0
2.0,9.0,7.0,4.0,7.0,2.0,-3.0,3.0,1650911421589885.0
-6.0,3.0,1.0,-2.0,-3.0,-5.0,0.0,0.0,1650911421591908.0
-6.0,-4.0,-11.0,-9.0,-12.0,-7.0,6.0,-7.0,1650911421591908.0
5.0,7.0,2.0,-1.0,-2.0,-1.0,-11.0,-1.0,1650911421605146.0
1.0,7.0,4.0,-3.0,-9.0,-4.0,-3.0,-1.0,1650911421605146.0
5.0,21.0,24.0,8.0,22.0,5.0,2.0,2.0,1650911421611333.0
-12.0,-38.0,-27.0,-7.0,-14.0,0.0,-9.0,-4.0,1650911421611333.0
5.0,12.0,14.0,16.0,20.0,2.0,6.0,5.0,1650911421635982.0
1.0,-2.0,-5.0,5.0,9.0,7.0,5.0,4.0,1650911421635982.0
-6.0,-4.0,-10.0,-21.0,-20.0,-5.0,-2.0,-5.0,1650911421636821.0
-2.0,0.0,4.0,-5.0,-10.0,-12.0,-2.0,-2.0,1650911421636821.0
-3.0,-5.0,-3.0,-1.0,2.0,0.0,0.0,-1.0,1650911421649954.0
-1.0,6.0,9.0,7.0,5.0,4.0,1.0,2.0,1650911421649954.0
1.0,-3.0,-4.0,9.0,1.0,1.0,4.0,-1.0,1650911421651951.0
4.0,9.0,16.0,13.0,3.0,6.0,-2.0,3.0,1650911421651951.0
-1.0,-7.0,-6.0,-4.0,1.0,3.0,6.0,1.0,1650911421672738.0
0.0,-1.0,-13.0,-14.0,-1.0,-5.0,-2.0,-1.0,1650911421672738.0
-5.0,-10.0,-10.0,-8.0,-13.0,-4.0,0.0,-5.0,1650911421673737.0
0.0,3.0,10.0,6.0,0.0,-7.0,-6.0,1.0,1650911421673737.0
3.0,6.0,7.0,-1.0,-7.0,-6.0,1.0,1.0,1650911421688078.0
1.0,1.0,12.0,2.0,-8.0,-3.0,0.0,-1.0,1650911421688078.0
5.0,-4.0,-12.0,1.0,4.0,4.0,-7.0,-1.0,1650911421688918.0
-8.0,5.0,0.0,2.0,11.0,8.0,8.0,5.0,1650911421688918.0
3.0,0.0,9.0,9.0,-6.0,-2.0,-3.0,1.0,1650911421710526.0
-2.0,2.0,4.0,2.0,3.0,-5.0,-2.0,0.0,1650911421710526.0
1.0,-8.0,-3.0,1.0,3.0,-7.0,0.0,5.0,1650911421711383.0
1.0,0.0,-12.0,-15.0,4.0,-1.0,5.0,-4.0,1650911421711383.0
0.0,3.0,-10.0,-9.0,6.0,10.0,1.0,-3.0,1650911421724538.0
0.0,-3.0,1.0,3.0,-26.0,-12.0,-2.0,0.0,1650911421724538.0
-3.0,-1.0,-8.0,4.0,-1.0,5.0,-1.0,1.0,1650911421731170.0
2.0,1.0,3.0,-2.0,2.0,0.0,-2.0,2.0,1650911421731170.0
-4.0,-5.0,-7.0,-3.0,-1.0,1.0,1.0,0.0,1650911421748198.0
-3.0,-4.0,7.0,-9.0,7.0,10.0,0.0,-3.0,1650911421748198.0
-1.0,4.0,0.0,0.0,-2.0,-7.0,1.0,0.0,1650911421749037.0
0.0,0.0,-5.0,-2.0,-12.0,-6.0,-4.0,-1.0,1650911421749037.0
1.0,0.0,4.0,6.0,2.0,-1.0,-5.0,-1.0,1650911421771098.0
1.0,1.0,11.0,6.0,13.0,12.0,2.0,0.0,1650911421771098.0
-4.0,-2.0,-10.0,-1.0,2.0,0.0,4.0,-2.0,1650911421772016.0
2.0,5.0,-3.0,2.0,2.0,0.0,0.0,1.0,1650911421772016.0
-1.0,-2.0,0.0,-11.0,-6.0,-11.0,-4.0,1.0,1650911421785313.0
-6.0,-8.0,-9.0,-10.0,-18.0,-7.0,-2.0,-3.0,1650911421785313.0
-1.0,4.0,20.0,8.0,16.0,10.0,3.0,0.0,1650911421791066.0
2.0,3.0,1.0,12.0,7.0,7.0,-1.0,3.0,1650911421791066.0
-4.0,-8.0,-18.0,-9.0,-1.0,-3.0,-3.0,-2.0,1650911421814959.0
-1.0,2.0,21.0,14.0,3.0,0.0,2.0,-2.0,1650911421814959.0
3.0,3.0,1.0,8.0,-1.0,1.0,4.0,0.0,1650911421816820.0
-4.0,-8.0,-34.0,-36.0,-18.0,2.0,-7.0,-4.0,1650911421816820.0
0.0,-1.0,-2.0,-5.0,-12.0,-14.0,-3.0,-1.0,1650911421829745.0
-2.0,-2.0,-9.0,-11.0,-5.0,-4.0,1.0,-2.0,1650911421829745.0
-3.0,1.0,8.0,4.0,1.0,1.0,-2.0,-2.0,1650911421831740.0
3.0,7.0,24.0,19.0,8.0,4.0,0.0,2.0,1650911421831740.0
0.0,1.0,-6.0,-5.0,-10.0,-2.0,-1.0,-1.0,1650911421844869.0
3.0,1.0,-8.0,2.0,2.0,-1.0,-2.0,0.0,1650911421844869.0
-2.0,-8.0,-15.0,-1.0,11.0,5.0,3.0,0.0,1650911421851186.0
-1.0,2.0,6.0,-2.0,4.0,3.0,2.0,-1.0,1650911421851186.0
1.0,1.0,-7.0,-2.0,4.0,6.0,2.0,0.0,1650911421867345.0
-5.0,-6.0,-8.0,-14.0,-12.0,-11.0,-4.0,-1.0,1650911421867345.0
-2.0,0.0,12.0,0.0,-11.0,2.0,-7.0,0.0,1650911421869212.0
0.0,-3.0,6.0,2.0,-5.0,-16.0,2.0,0.0,1650911421869212.0
2.0,5.0,21.0,24.0,12.0,6.0,4.0,1.0,1650911421889888.0
-1.0,-2.0,-5.0,-7.0,2.0,7.0,1.0,0.0,1650911421889888.0
-1.0,-2.0,-5.0,-6.0,-12.0,-1.0,-1.0,-3.0,1650911421891916.0
3.0,2.0,5.0,6.0,7.0,4.0,-1.0,-2.0,1650911421891916.0
0.0,1.0,12.0,3.0,8.0,5.0,-2.0,-1.0,1650911421904733.0
2.0,3.0,-3.0,11.0,7.0,-1.0,2.0,0.0,1650911421904733.0
-1.0,-3.0,-5.0,-15.0,-5.0,-2.0,1.0,-4.0,1650911421911863.0
1.0,-1.0,3.0,6.0,-10.0,8.0,-6.0,2.0,1650911421911863.0
-5.0,-8.0,-21.0,-12.0,-10.0,-10.0,7.0,-3.0,1650911421928365.0
1.0,5.0,4.0,11.0,6.0,11.0,-1.0,0.0,1650911421928365.0
0.0,-1.0,4.0,-4.0,8.0,-14.0,-4.0,-3.0,1650911421929206.0
-1.0,-1.0,3.0,4.0,-8.0,-3.0,5.0,-1.0,1650911421929206.0
0.0,-2.0,-6.0,-10.0,-7.0,2.0,-5.0,-1.0,1650911421950294.0
1.0,3.0,1.0,-2.0,-6.0,-2.0,-3.0,1.0,1650911421950294.0
2.0,5.0,10.0,11.0,11.0,3.0,2.0,1.0,1650911421951166.0
-2.0,-3.0,-9.0,0.0,3.0,3.0,2.0,-2.0,1650911421951166.0
-3.0,-1.0,-11.0,-8.0,-1.0,-1.0,-3.0,-1.0,1650911421964384.0
1.0,3.0,10.0,8.0,7.0,0.0,-5.0,3.0,1650911421964384.0
-1.0,-3.0,-16.0,-3.0,1.0,7.0,12.0,1.0,1650911421972178.0
-3.0,-1.0,0.0,-5.0,-3.0,-7.0,-4.0,-2.0,1650911421972178.0
-1.0,-2.0,3.0,-6.0,-22.0,-10.0,0.0,-2.0,1650911421995466.0
1.0,-1.0,-2.0,-2.0,1.0,-5.0,-6.0,-4.0,1650911421995466.0
-1.0,-2.0,2.0,3.0,2.0,3.0,-1.0,0.0,1650911421996466.0
2.0,1.0,-7.0,10.0,26.0,8.0,-3.0,1.0,1650911421996466.0
0.0,3.0,13.0,10.0,17.0,11.0,10.0,1.0,1650911422009946.0
-2.0,-1.0,-13.0,-10.0,-16.0,-5.0,0.0,-2.0,1650911422009946.0
-2.0,-4.0,1.0,-8.0,-21.0,-10.0,-5.0,-1.0,1650911422011806.0
-2.0,-4.0,-18.0,-7.0,-6.0,-5.0,-3.0,0.0,1650911422011806.0
4.0,5.0,14.0,10.0,7.0,-3.0,-5.0,2.0,1650911422023991.0
0.0,-1.0,-5.0,0.0,8.0,5.0,3.0,1.0,1650911422023991.0
-2.0,-1.0,5.0,2.0,-3.0,8.0,4.0,-1.0,1650911422033122.0
2.0,2.0,4.0,-3.0,0.0,5.0,-1.0,1.0,1650911422033122.0
-1.0,-4.0,-8.0,-3.0,-11.0,-9.0,-3.0,-1.0,1650911422048146.0
0.0,-1.0,-2.0,3.0,7.0,-2.0,0.0,1.0,1650911422048146.0
-1.0,-2.0,-2.0,-2.0,-4.0,0.0,-8.0,-1.0,1650911422049076.0
1.0,2.0,11.0,4.0,4.0,-11.0,2.0,2.0,1650911422049076.0
-1.0,-2.0,-4.0,-3.0,4.0,5.0,-1.0,1.0,1650911422070019.0
0.0,2.0,8.0,6.0,1.0,5.0,3.0,0.0,1650911422070019.0
-2.0,-3.0,-5.0,-1.0,3.0,0.0,-1.0,0.0,1650911422071051.0
-2.0,-2.0,-4.0,-6.0,-8.0,-2.0,-2.0,-2.0,1650911422071051.0
0.0,-2.0,-10.0,-5.0,-10.0,-7.0,-3.0,0.0,1650911422082987.0
1.0,-1.0,2.0,-1.0,-8.0,-4.0,-2.0,0.0,1650911422082987.0
0.0,0.0,10.0,15.0,17.0,3.0,1.0,0.0,1650911422091964.0
-4.0,-4.0,5.0,-2.0,9.0,6.0,2.0,-1.0,1650911422091964.0
-3.0,0.0,-7.0,-8.0,-8.0,0.0,-1.0,-3.0,1650911422107140.0
0.0,-2.0,2.0,-2.0,-1.0,-2.0,0.0,-2.0,1650911422107140.0
-1.0,0.0,-4.0,-3.0,-11.0,-12.0,-3.0,0.0,1650911422109160.0
1.0,1.0,6.0,7.0,2.0,5.0,5.0,3.0,1650911422109160.0
1.0,0.0,11.0,8.0,15.0,16.0,1.0,2.0,1650911422138761.0
-3.0,-5.0,-26.0,-9.0,-8.0,7.0,-5.0,-1.0,1650911422138761.0
-3.0,-1.0,2.0,-3.0,-15.0,-21.0,4.0,-1.0,1650911422139592.0
-1.0,-3.0,-28.0,-16.0,-13.0,-7.0,-2.0,-2.0,1650911422139592.0
1.0,1.0,7.0,7.0,4.0,7.0,2.0,0.0,1650911422143581.0
1.0,0.0,8.0,6.0,11.0,-1.0,0.0,1.0,1650911422143581.0
-2.0,-1.0,-2.0,-3.0,-2.0,-1.0,-8.0,-1.0,1650911422170051.0
0.0,1.0,9.0,4.0,-1.0,0.0,-1.0,-1.0,1650911422170051.0
-1.0,0.0,-5.0,-2.0,-1.0,1.0,2.0,0.0,1650911422170051.0
-2.0,-3.0,-11.0,-8.0,-7.0,-3.0,-1.0,-2.0,1650911422170051.0
0.0,-2.0,-10.0,-9.0,4.0,1.0,-1.0,-1.0,1650911422173978.0
0.0,1.0,9.0,1.0,0.0,10.0,2.0,-1.0,1650911422173978.0
-2.0,-3.0,6.0,2.0,-15.0,-6.0,-6.0,-4.0,1650911422189857.0
0.0,-2.0,3.0,1.0,11.0,-21.0,0.0,-1.0,1650911422189857.0
0.0,-1.0,-3.0,0.0,7.0,13.0,2.0,1.0,1650911422191891.0
0.0,2.0,-1.0,3.0,2.0,0.0,3.0,1.0,1650911422191891.0
-1.0,0.0,-3.0,-5.0,1.0,-1.0,-1.0,-1.0,1650911422204404.0
0.0,0.0,-5.0,-4.0,-14.0,-5.0,-2.0,1.0,1650911422204404.0
-2.0,-4.0,-12.0,-9.0,-17.0,-4.0,-4.0,-5.0,1650911422213098.0
-1.0,-1.0,-12.0,-14.0,-16.0,-10.0,-7.0,-3.0,1650911422213098.0
-2.0,-1.0,2.0,5.0,17.0,15.0,2.0,-1.0,1650911422227517.0
3.0,4.0,8.0,8.0,15.0,7.0,6.0,3.0,1650911422227517.0
0.0,1.0,8.0,1.0,-8.0,-10.0,-2.0,0.0,1650911422229383.0
-4.0,-4.0,13.0,3.0,-12.0,-6.0,-4.0,-3.0,1650911422229383.0
1.0,-1.0,-6.0,1.0,2.0,0.0,0.0,0.0,1650911422250959.0
0.0,2.0,7.0,4.0,15.0,8.0,1.0,0.0,1650911422250959.0
1.0,-1.0,-8.0,-3.0,9.0,6.0,1.0,-1.0,1650911422251833.0
-2.0,-2.0,1.0,-4.0,-18.0,-11.0,-2.0,-3.0,1650911422251833.0
0.0,1.0,-2.0,-3.0,-8.0,-12.0,-1.0,-1.0,1650911422263999.0
-2.0,1.0,4.0,2.0,1.0,5.0,0.0,0.0,1650911422263999.0
1.0,-1.0,0.0,1.0,7.0,2.0,0.0,2.0,1650911422272182.0
0.0,-1.0,-4.0,-4.0,1.0,-8.0,-3.0,1.0,1650911422272182.0
0.0,-2.0,1.0,-1.0,-7.0,-3.0,-1.0,-1.0,1650911422287634.0
0.0,-1.0,-2.0,-2.0,-2.0,12.0,4.0,-2.0,1650911422287634.0
-3.0,0.0,5.0,5.0,0.0,1.0,2.0,-1.0,1650911422288502.0
-2.0,-2.0,-4.0,3.0,11.0,10.0,1.0,0.0,1650911422288502.0
-1.0,-2.0,-16.0,-5.0,9.0,-1.0,-1.0,0.0,1650911422310000.0
1.0,-2.0,4.0,-2.0,-8.0,-16.0,-2.0,-1.0,1650911422310000.0
3.0,1.0,6.0,6.0,-11.0,-1.0,0.0,0.0,1650911422311862.0
0.0,0.0,-7.0,-5.0,7.0,-1.0,1.0,0.0,1650911422311862.0
0.0,0.0,4.0,-1.0,-13.0,-13.0,-2.0,-1.0,1650911422324011.0
-1.0,-2.0,-1.0,-2.0,12.0,6.0,0.0,0.0,1650911422324011.0
-1.0,-4.0,-4.0,-2.0,0.0,9.0,-3.0,1.0,1650911422332152.0
1.0,0.0,5.0,10.0,2.0,0.0,1.0,0.0,1650911422332152.0
-1.0,0.0,-4.0,-1.0,22.0,7.0,2.0,1.0,1650911422346952.0
-3.0,0.0,1.0,0.0,-11.0,0.0,0.0,0.0,1650911422346952.0
0.0,0.0,1.0,-2.0,9.0,-2.0,-2.0,0.0,1650911422348947.0
-2.0,-3.0,-6.0,-7.0,-13.0,-6.0,-1.0,-2.0,1650911422348947.0
-1.0,0.0,7.0,6.0,-8.0,2.0,1.0,1.0,1650911422370016.0
0.0,2.0,0.0,-1.0,6.0,-1.0,0.0,-1.0,1650911422370016.0
-1.0,-1.0,0.0,-3.0,-2.0,-4.0,-3.0,-1.0,1650911422371049.0
3.0,1.0,3.0,0.0,-10.0,-1.0,-2.0,-1.0,1650911422371049.0
2.0,3.0,8.0,6.0,2.0,0.0,-1.0,0.0,1650911422384141.0
-1.0,-4.0,-3.0,-6.0,-9.0,8.0,0.0,0.0,1650911422384141.0
-3.0,-5.0,-22.0,-16.0,-2.0,-12.0,-1.0,1.0,1650911422392937.0
0.0,2.0,5.0,7.0,21.0,9.0,1.0,0.0,1650911422392937.0
0.0,-3.0,3.0,5.0,5.0,0.0,1.0,1.0,1650911422408197.0
-1.0,0.0,1.0,1.0,-4.0,-1.0,-3.0,0.0,1650911422408197.0
0.0,2.0,1.0,-3.0,-16.0,-16.0,-3.0,-2.0,1650911422413721.0
-1.0,-1.0,-4.0,-10.0,-25.0,-4.0,-2.0,-1.0,1650911422413721.0
-1.0,-5.0,-7.0,1.0,10.0,3.0,1.0,-3.0,1650911422436852.0
1.0,3.0,9.0,9.0,21.0,15.0,6.0,2.0,1650911422436852.0
0.0,-1.0,-6.0,1.0,-3.0,-4.0,2.0,0.0,1650911422444946.0
-2.0,-1.0,0.0,-4.0,0.0,-8.0,-3.0,-1.0,1650911422444946.0
-2.0,-1.0,-4.0,-8.0,-17.0,-5.0,-7.0,-1.0,1650911422451962.0
-2.0,0.0,-2.0,-5.0,-19.0,-9.0,-3.0,-2.0,1650911422451962.0
2.0,1.0,13.0,12.0,21.0,9.0,-1.0,0.0,1650911422459070.0
5.0,2.0,3.0,9.0,16.0,6.0,1.0,2.0,1650911422459070.0
-2.0,-2.0,-11.0,-13.0,-6.0,-3.0,0.0,0.0,1650911422467296.0
-3.0,-2.0,-2.0,-1.0,-19.0,-8.0,-5.0,-1.0,1650911422467296.0
1.0,0.0,4.0,4.0,10.0,21.0,2.0,1.0,1650911422469132.0
-1.0,-2.0,-6.0,-4.0,10.0,-5.0,0.0,0.0,1650911422469132.0
2.0,2.0,1.0,5.0,-1.0,-1.0,0.0,1.0,1650911422498182.0
0.0,-1.0,-2.0,-1.0,3.0,-9.0,-1.0,-1.0,1650911422498182.0
0.0,1.0,5.0,-2.0,-22.0,-2.0,-1.0,-2.0,1650911422499025.0
-3.0,-3.0,-12.0,2.0,9.0,2.0,-1.0,1.0,1650911422499025.0
0.0,1.0,-1.0,0.0,8.0,5.0,0.0,2.0,1650911422512494.0
-3.0,-6.0,-4.0,-12.0,-15.0,-13.0,-3.0,-3.0,1650911422512494.0
-1.0,2.0,-2.0,-2.0,-4.0,0.0,-2.0,-2.0,1650911422513526.0
-1.0,1.0,9.0,5.0,4.0,3.0,1.0,0.0,1650911422513526.0
0.0,0.0,0.0,1.0,8.0,-3.0,-1.0,-1.0,1650911422528514.0
0.0,-2.0,-5.0,-3.0,-15.0,10.0,0.0,1.0,1650911422528514.0
-2.0,-1.0,1.0,-1.0,-2.0,-7.0,-3.0,-1.0,1650911422529351.0
0.0,-1.0,-3.0,-1.0,6.0,4.0,2.0,-1.0,1650911422529351.0
0.0,-1.0,-5.0,-7.0,-3.0,-1.0,4.0,1.0,1650911422549828.0
0.0,0.0,4.0,5.0,12.0,-2.0,2.0,1.0,1650911422549828.0
1.0,-1.0,1.0,2.0,5.0,2.0,1.0,0.0,1650911422551656.0
-1.0,3.0,2.0,0.0,-3.0,0.0,-2.0,0.0,1650911422551656.0
-2.0,-5.0,0.0,-5.0,-8.0,-9.0,-4.0,-3.0,1650911422572728.0
0.0,0.0,-4.0,-1.0,-11.0,-2.0,-2.0,-3.0,1650911422572728.0
1.0,0.0,-5.0,-3.0,14.0,2.0,0.0,1.0,1650911422573729.0
-2.0,2.0,9.0,7.0,-2.0,3.0,4.0,1.0,1650911422573729.0
-2.0,-2.0,4.0,5.0,3.0,0.0,1.0,-1.0,1650911422587082.0
-1.0,-2.0,-15.0,-5.0,6.0,-6.0,-1.0,1.0,1650911422587082.0
-1.0,0.0,4.0,2.0,-3.0,-2.0,-1.0,-1.0,1650911422594060.0
2.0,-2.0,-1.0,-5.0,-7.0,3.0,-2.0,0.0,1650911422594060.0
0.0,0.0,0.0,-4.0,-8.0,2.0,-2.0,0.0,1650911422610020.0
-1.0,0.0,-1.0,3.0,4.0,13.0,1.0,0.0,1650911422610020.0
-3.0,-3.0,-11.0,-10.0,-1.0,-14.0,-3.0,-3.0,1650911422611018.0
-1.0,-2.0,5.0,1.0,-4.0,0.0,-2.0,-2.0,1650911422611018.0
0.0,0.0,-5.0,-6.0,-14.0,-5.0,-1.0,-1.0,1650911422632925.0
2.0,0.0,-1.0,4.0,6.0,0.0,-1.0,0.0,1650911422632925.0
1.0,0.0,5.0,2.0,4.0,9.0,5.0,1.0,1650911422633925.0
-1.0,-2.0,-2.0,-2.0,-1.0,-3.0,-1.0,-2.0,1650911422633925.0
-1.0,-1.0,-2.0,0.0,2.0,0.0,-1.0,1.0,1650911422647088.0
-2.0,1.0,10.0,2.0,4.0,-3.0,-1.0,-3.0,1650911422647088.0
-3.0,-4.0,-9.0,-9.0,-15.0,-3.0,-3.0,-1.0,1650911422654214.0
-1.0,-1.0,2.0,1.0,-11.0,-7.0,-2.0,-2.0,1650911422654214.0
-1.0,2.0,-9.0,2.0,13.0,2.0,0.0,-1.0,1650911422669016.0
-1.0,0.0,1.0,2.0,12.0,6.0,3.0,1.0,1650911422669016.0
0.0,2.0,0.0,0.0,1.0,11.0,2.0,2.0,1650911422677330.0
-1.0,0.0,4.0,0.0,-2.0,-13.0,-2.0,-2.0,1650911422677330.0
-1.0,-1.0,-3.0,-3.0,-14.0,-2.0,-4.0,0.0,1650911422693012.0
-1.0,-3.0,2.0,3.0,11.0,-2.0,0.0,-2.0,1650911422693012.0
0.0,-1.0,2.0,6.0,2.0,0.0,-1.0,1.0,1650911422693849.0
-2.0,-2.0,-9.0,-10.0,3.0,5.0,0.0,1.0,1650911422693849.0
0.0,-3.0,1.0,-5.0,-15.0,-5.0,-2.0,-4.0,1650911422707012.0
1.0,2.0,1.0,2.0,-8.0,-10.0,-2.0,0.0,1650911422707012.0
2.0,2.0,9.0,12.0,19.0,9.0,3.0,1.0,1650911422715341.0
1.0,-1.0,3.0,9.0,6.0,2.0,2.0,2.0,1650911422715341.0
-1.0,-1.0,-5.0,-11.0,0.0,-4.0,-1.0,0.0,1650911422731501.0
0.0,1.0,4.0,-1.0,-13.0,-3.0,-4.0,0.0,1650911422731501.0
-2.0,-1.0,1.0,-1.0,-5.0,-2.0,-1.0,-3.0,1650911422732369.0
0.0,2.0,1.0,-1.0,-9.0,-14.0,-1.0,-1.0,1650911422732369.0
-1.0,2.0,4.0,8.0,17.0,11.0,3.0,0.0,1650911422752624.0
0.0,0.0,-1.0,0.0,7.0,4.0,3.0,0.0,1650911422752624.0
-3.0,-3.0,-6.0,-7.0,-10.0,-2.0,0.0,-1.0,1650911422753492.0
0.0,2.0,3.0,5.0,0.0,4.0,0.0,1.0,1650911422753492.0
-1.0,1.0,7.0,3.0,3.0,-3.0,-1.0,0.0,1650911422767805.0
-1.0,-1.0,-9.0,-9.0,-14.0,-9.0,-4.0,-4.0,1650911422767805.0
0.0,-1.0,-1.0,2.0,-14.0,-7.0,-5.0,-3.0,1650911422781997.0
-1.0,-2.0,-8.0,-4.0,1.0,4.0,-1.0,0.0,1650911422781997.0
1.0,0.0,0.0,6.0,12.0,11.0,5.0,1.0,1650911422789877.0
0.0,0.0,6.0,6.0,7.0,3.0,2.0,1.0,1650911422789877.0
1.0,0.0,1.0,-3.0,0.0,-3.0,-1.0,0.0,1650911422791911.0
-1.0,-2.0,-4.0,-8.0,-24.0,-7.0,-4.0,-1.0,1650911422791911.0
-1.0,1.0,3.0,7.0,-7.0,-2.0,-2.0,-1.0,1650911422812728.0
1.0,0.0,5.0,6.0,24.0,13.0,5.0,1.0,1650911422812728.0
0.0,2.0,-2.0,-3.0,-7.0,-7.0,2.0,-1.0,1650911422814443.0
-1.0,-2.0,2.0,1.0,-7.0,2.0,-2.0,-3.0,1650911422814443.0
-1.0,-1.0,-8.0,-4.0,9.0,-3.0,-2.0,0.0,1650911422827531.0
-3.0,-3.0,3.0,3.0,-3.0,-1.0,-3.0,-1.0,1650911422827531.0
0.0,-1.0,-13.0,-7.0,8.0,-1.0,1.0,0.0,1650911422834564.0
0.0,1.0,3.0,1.0,6.0,3.0,0.0,-1.0,1650911422834564.0
0.0,-3.0,-1.0,-3.0,-12.0,-3.0,-4.0,-2.0,1650911422850017.0
0.0,0.0,-2.0,-5.0,-3.0,-1.0,0.0,-2.0,1650911422850017.0
-3.0,0.0,-1.0,-1.0,-4.0,-2.0,0.0,0.0,1650911422851056.0
0.0,1.0,1.0,-1.0,-1.0,2.0,2.0,1.0,1650911422851056.0
-2.0,-2.0,4.0,5.0,4.0,-3.0,0.0,0.0,1650911422872652.0
-1.0,0.0,-5.0,-3.0,-3.0,-1.0,-1.0,-1.0,1650911422872652.0
-1.0,0.0,4.0,3.0,5.0,15.0,2.0,0.0,1650911422874368.0
0.0,-1.0,-3.0,-1.0,-2.0,-23.0,-3.0,0.0,1650911422874368.0
-1.0,-2.0,-3.0,-3.0,2.0,6.0,-1.0,0.0,1650911422885641.0
0.0,-1.0,-5.0,-4.0,-4.0,7.0,0.0,0.0,1650911422885641.0
-1.0,-3.0,2.0,2.0,-4.0,-5.0,0.0,1.0,1650911422894796.0
-1.0,0.0,-3.0,-3.0,-2.0,-3.0,-3.0,-4.0,1650911422894796.0
-2.0,-1.0,0.0,-1.0,-2.0,0.0,2.0,0.0,1650911422910025.0
-2.0,0.0,-1.0,-2.0,3.0,2.0,-1.0,-2.0,1650911422910025.0
3.0,2.0,-1.0,4.0,2.0,5.0,1.0,0.0,1650911422911024.0
-1.0,-2.0,-3.0,-1.0,6.0,2.0,0.0,0.0,1650911422911024.0
2.0,-1.0,5.0,0.0,-12.0,-12.0,-3.0,-1.0,1650911422932762.0
-2.0,-5.0,-10.0,-8.0,-13.0,-5.0,-3.0,-1.0,1650911422932762.0
1.0,1.0,4.0,6.0,10.0,2.0,1.0,0.0,1650911422933594.0
0.0,0.0,0.0,2.0,6.0,6.0,3.0,0.0,1650911422933594.0
-1.0,-2.0,-5.0,-3.0,-6.0,1.0,0.0,-2.0,1650911422955062.0
2.0,4.0,4.0,3.0,2.0,-6.0,0.0,1.0,1650911422955062.0
-2.0,-1.0,-5.0,-2.0,-4.0,-7.0,-3.0,-1.0,1650911422956062.0
-1.0,1.0,-3.0,-3.0,-1.0,2.0,-1.0,-2.0,1650911422956062.0
0.0,0.0,2.0,-1.0,-5.0,2.0,1.0,0.0,1650911422971045.0
-2.0,-2.0,1.0,-2.0,-2.0,-2.0,-1.0,-1.0,1650911422971045.0
0.0,2.0,-1.0,1.0,0.0,-3.0,-1.0,0.0,1650911422971045.0
3.0,5.0,1.0,1.0,6.0,11.0,1.0,0.0,1650911422971045.0
-1.0,1.0,1.0,2.0,5.0,2.0,4.0,0.0,1650911422992463.0
-10.0,-17.0,-5.0,-3.0,1.0,-12.0,-5.0,-4.0,1650911422992463.0
-3.0,-3.0,-2.0,-4.0,-7.0,-7.0,-3.0,-3.0,1650911422994325.0
-1.0,2.0,-1.0,-7.0,-11.0,11.0,-1.0,-1.0,1650911422994325.0
