EMG_s0,EMG_s1,EMG_s2,EMG_s3,EMG_s4,EMG_s5,EMG_s6,EMG_s7,timestamp
0.0,0.0,-1.0,-1.0,-1.0,0.0,0.0,0.0,1651068760427358.0
-1.0,0.0,3.0,1.0,3.0,-1.0,-1.0,-1.0,1651068760427358.0
-1.0,2.0,2.0,-2.0,-7.0,-4.0,0.0,0.0,1651068760449324.0
-1.0,-1.0,-4.0,-3.0,-2.0,0.0,1.0,-2.0,1651068760449324.0
-1.0,-1.0,-3.0,-3.0,-2.0,-1.0,-1.0,-1.0,1651068760449324.0
2.0,-1.0,-1.0,1.0,1.0,-1.0,-1.0,0.0,1651068760449324.0
-1.0,-1.0,0.0,-1.0,1.0,0.0,1.0,-2.0,1651068760464286.0
0.0,0.0,0.0,-2.0,-3.0,-1.0,-1.0,0.0,1651068760464286.0
-1.0,0.0,-1.0,-2.0,-2.0,-2.0,-2.0,-1.0,1651068760464286.0
-2.0,0.0,-2.0,0.0,-1.0,-2.0,-1.0,0.0,1651068760464286.0
-1.0,2.0,4.0,2.0,4.0,1.0,-1.0,-3.0,1651068760486575.0
-1.0,0.0,-4.0,-3.0,-4.0,0.0,0.0,0.0,1651068760486575.0
0.0,-2.0,2.0,1.0,3.0,3.0,0.0,-2.0,1651068760487532.0
-2.0,1.0,2.0,0.0,-2.0,-1.0,-2.0,-1.0,1651068760487532.0
0.0,-1.0,-1.0,-1.0,0.0,0.0,1.0,-1.0,1651068760508564.0
0.0,0.0,1.0,0.0,1.0,0.0,0.0,-1.0,1651068760508564.0
-1.0,0.0,-3.0,-2.0,-3.0,0.0,0.0,-1.0,1651068760509493.0
0.0,-2.0,0.0,-2.0,-1.0,-1.0,1.0,0.0,1651068760509493.0
0.0,-1.0,-2.0,-1.0,-2.0,-2.0,0.0,-2.0,1651068760523612.0
0.0,0.0,-1.0,0.0,2.0,-1.0,-1.0,-1.0,1651068760523612.0
-1.0,0.0,1.0,0.0,-1.0,0.0,0.0,0.0,1651068760531595.0
0.0,0.0,0.0,-1.0,1.0,0.0,0.0,-2.0,1651068760531595.0
2.0,-2.0,-3.0,-1.0,-1.0,0.0,-1.0,-1.0,1651068760546616.0
-1.0,0.0,0.0,-1.0,-1.0,0.0,0.0,-1.0,1651068760546616.0
0.0,1.0,-1.0,-1.0,-2.0,-1.0,-2.0,-1.0,1651068760547549.0
0.0,-3.0,-2.0,-2.0,2.0,1.0,1.0,-1.0,1651068760547549.0
-1.0,0.0,2.0,0.0,-1.0,-2.0,0.0,1.0,1651068760577410.0
-1.0,-1.0,1.0,-2.0,0.0,0.0,0.0,-1.0,1651068760577410.0
-1.0,-4.0,-4.0,-2.0,0.0,-2.0,-4.0,-2.0,1651068760577410.0
1.0,3.0,1.0,1.0,-3.0,-2.0,-1.0,-1.0,1651068760577410.0
0.0,-3.0,-4.0,-2.0,-6.0,0.0,0.0,0.0,1651068760583394.0
-1.0,0.0,2.0,3.0,1.0,1.0,0.0,0.0,1651068760583394.0
0.0,-2.0,-2.0,-1.0,0.0,1.0,0.0,0.0,1651068760591441.0
0.0,0.0,0.0,-1.0,0.0,-1.0,1.0,0.0,1651068760591441.0
-1.0,-1.0,0.0,0.0,-1.0,-2.0,-1.0,-1.0,1651068760606520.0
-3.0,0.0,0.0,0.0,0.0,-2.0,-1.0,1.0,1651068760606520.0
1.0,0.0,1.0,2.0,0.0,1.0,1.0,0.0,1651068760607478.0
1.0,-1.0,0.0,1.0,0.0,1.0,-1.0,-1.0,1651068760607478.0
0.0,0.0,-3.0,-2.0,-2.0,-2.0,0.0,1.0,1651068760628804.0
-1.0,-1.0,-2.0,-1.0,-2.0,-2.0,0.0,-2.0,1651068760628804.0
0.0,1.0,1.0,1.0,1.0,-1.0,-1.0,1.0,1651068760629732.0
-1.0,-1.0,-1.0,-3.0,0.0,2.0,1.0,1.0,1651068760629732.0
0.0,1.0,0.0,0.0,-2.0,0.0,-1.0,-1.0,1651068760643695.0
-2.0,-2.0,-2.0,0.0,1.0,-1.0,1.0,2.0,1651068760643695.0
0.0,0.0,1.0,0.0,-2.0,-3.0,-2.0,1.0,1651068760651740.0
0.0,-2.0,0.0,-1.0,-3.0,-3.0,0.0,0.0,1651068760651740.0
-1.0,0.0,1.0,-1.0,1.0,2.0,1.0,1.0,1651068760666700.0
-1.0,0.0,0.0,-1.0,-1.0,-2.0,-2.0,-2.0,1651068760666700.0
0.0,1.0,1.0,-1.0,2.0,2.0,0.0,1.0,1651068760666700.0
-3.0,0.0,-2.0,-3.0,-2.0,-1.0,0.0,-1.0,1651068760666700.0
1.0,-1.0,0.0,-2.0,-1.0,1.0,0.0,0.0,1651068760689350.0
0.0,0.0,0.0,2.0,1.0,0.0,-3.0,-2.0,1651068760689350.0
-2.0,0.0,0.0,-4.0,-7.0,-3.0,2.0,0.0,1651068760689350.0
-1.0,0.0,0.0,1.0,-1.0,-2.0,-3.0,-1.0,1651068760689350.0
0.0,2.0,4.0,4.0,2.0,2.0,-1.0,0.0,1651068760703315.0
0.0,-4.0,-6.0,-3.0,-4.0,-2.0,-1.0,0.0,1651068760703315.0
-1.0,0.0,-1.0,0.0,2.0,1.0,-1.0,0.0,1651068760711295.0
0.0,-1.0,1.0,-1.0,-1.0,1.0,-2.0,-3.0,1651068760711295.0
-1.0,-1.0,-2.0,1.0,0.0,1.0,-1.0,-1.0,1651068760726454.0
0.0,-2.0,-1.0,0.0,-1.0,0.0,-2.0,-1.0,1651068760726454.0
-1.0,0.0,0.0,1.0,2.0,2.0,0.0,-1.0,1651068760727383.0
1.0,-1.0,0.0,-1.0,0.0,2.0,4.0,1.0,1651068760727383.0
-1.0,-2.0,-4.0,-1.0,-1.0,-1.0,-2.0,0.0,1651068760749323.0
0.0,1.0,-1.0,-2.0,-2.0,0.0,1.0,1.0,1651068760749323.0
-2.0,-2.0,-1.0,-2.0,-1.0,-2.0,0.0,-1.0,1651068760749323.0
1.0,0.0,-1.0,0.0,-1.0,0.0,2.0,-2.0,1651068760749323.0
-1.0,-2.0,-1.0,-1.0,0.0,-2.0,-1.0,-1.0,1651068760763540.0
1.0,1.0,-1.0,-1.0,-4.0,-2.0,-1.0,-1.0,1651068760763540.0
0.0,-1.0,-5.0,-2.0,0.0,-1.0,-1.0,-2.0,1651068760771588.0
-1.0,1.0,1.0,2.0,1.0,2.0,0.0,2.0,1651068760771588.0
-1.0,0.0,-2.0,0.0,1.0,0.0,-1.0,1.0,1651068760786720.0
0.0,0.0,2.0,-1.0,2.0,0.0,-1.0,-2.0,1651068760786720.0
0.0,-1.0,-1.0,-1.0,0.0,1.0,-2.0,0.0,1651068760786720.0
-1.0,-2.0,1.0,-3.0,-4.0,-2.0,-1.0,-1.0,1651068760786720.0
-1.0,-2.0,-3.0,-2.0,-3.0,-4.0,-2.0,-1.0,1651068760808662.0
0.0,0.0,0.0,0.0,2.0,3.0,0.0,0.0,1651068760808662.0
0.0,1.0,2.0,1.0,0.0,-1.0,1.0,0.0,1651068760809593.0
-1.0,-2.0,-2.0,1.0,0.0,-1.0,-2.0,-2.0,1651068760809593.0
0.0,0.0,1.0,-1.0,-2.0,1.0,0.0,-1.0,1651068760822792.0
-3.0,-1.0,0.0,0.0,1.0,0.0,0.0,-2.0,1651068760822792.0
-2.0,0.0,1.0,1.0,-1.0,0.0,0.0,-1.0,1651068760831205.0
0.0,-3.0,-5.0,-1.0,0.0,-1.0,0.0,-2.0,1651068760831205.0
-1.0,0.0,-1.0,-4.0,-4.0,-3.0,-1.0,-2.0,1651068760854960.0
-1.0,0.0,0.0,0.0,1.0,-1.0,1.0,2.0,1651068760854960.0
1.0,1.0,-2.0,1.0,0.0,0.0,2.0,0.0,1651068760855420.0
-1.0,0.0,1.0,1.0,-1.0,0.0,0.0,3.0,1651068760855420.0
-1.0,-2.0,-1.0,-1.0,4.0,1.0,0.0,-1.0,1651068760869261.0
-1.0,0.0,2.0,-2.0,-5.0,0.0,-1.0,-1.0,1651068760869261.0
0.0,-2.0,-2.0,-1.0,-2.0,-2.0,-2.0,-2.0,1651068760869261.0
1.0,-2.0,-1.0,-2.0,-1.0,0.0,-3.0,-3.0,1651068760869261.0
0.0,-1.0,0.0,3.0,1.0,3.0,0.0,2.0,1651068760883222.0
-1.0,0.0,0.0,-1.0,0.0,-2.0,-1.0,-1.0,1651068760883222.0
0.0,0.0,0.0,0.0,-1.0,-2.0,-1.0,0.0,1651068760891268.0
-1.0,0.0,-3.0,-1.0,1.0,-2.0,-1.0,-1.0,1651068760891268.0
1.0,0.0,1.0,0.0,2.0,-1.0,-1.0,1.0,1651068760906346.0
1.0,0.0,-1.0,-2.0,-3.0,-3.0,-2.0,0.0,1651068760906346.0
0.0,-2.0,1.0,0.0,-2.0,3.0,1.0,-1.0,1651068760907062.0
-2.0,0.0,1.0,2.0,1.0,0.0,-1.0,-1.0,1651068760907062.0
0.0,-2.0,-3.0,-1.0,-4.0,-3.0,-2.0,-2.0,1651068760929159.0
-1.0,-1.0,-1.0,1.0,-1.0,-2.0,2.0,-1.0,1651068760929159.0
1.0,0.0,1.0,1.0,2.0,1.0,0.0,2.0,1651068760930105.0
-1.0,0.0,-1.0,-3.0,-5.0,-2.0,0.0,-1.0,1651068760930105.0
0.0,1.0,0.0,-1.0,0.0,-1.0,-2.0,2.0,1651068760952217.0
0.0,-2.0,-1.0,0.0,-1.0,1.0,-1.0,0.0,1651068760952217.0
-1.0,-1.0,-1.0,0.0,-1.0,-2.0,-2.0,0.0,1651068760953222.0
0.0,1.0,1.0,0.0,1.0,4.0,2.0,0.0,1651068760953222.0
-1.0,0.0,0.0,0.0,-2.0,0.0,0.0,-2.0,1651068760966353.0
3.0,0.0,-1.0,1.0,3.0,1.0,0.0,2.0,1651068760966353.0
-1.0,-1.0,-2.0,-2.0,0.0,-2.0,-1.0,-1.0,1651068760967284.0
1.0,0.0,1.0,-2.0,-1.0,0.0,0.0,-1.0,1651068760967284.0
-2.0,-2.0,0.0,-4.0,-4.0,-2.0,2.0,0.0,1651068760989290.0
0.0,0.0,-1.0,0.0,1.0,2.0,1.0,-1.0,1651068760989290.0
0.0,1.0,0.0,-1.0,-1.0,-2.0,0.0,-1.0,1651068760990222.0
-1.0,-2.0,1.0,1.0,1.0,-1.0,-1.0,-1.0,1651068760990222.0
-1.0,0.0,1.0,0.0,-1.0,-1.0,-2.0,-1.0,1651068761012501.0
-2.0,0.0,2.0,1.0,-1.0,-2.0,-1.0,1.0,1651068761012501.0
-1.0,-2.0,-3.0,-1.0,1.0,2.0,1.0,0.0,1651068761012501.0
1.0,-1.0,0.0,-2.0,-2.0,0.0,-3.0,-1.0,1651068761012501.0
-1.0,0.0,0.0,1.0,1.0,0.0,0.0,-1.0,1651068761026489.0
-2.0,-2.0,-2.0,0.0,0.0,0.0,0.0,0.0,1651068761026489.0
0.0,0.0,1.0,-2.0,-6.0,-2.0,0.0,-4.0,1651068761027447.0
-1.0,-1.0,0.0,2.0,1.0,-3.0,1.0,1.0,1651068761027447.0
1.0,-2.0,1.0,-1.0,1.0,1.0,0.0,1.0,1651068761048357.0
0.0,-2.0,-2.0,-1.0,0.0,0.0,-1.0,-1.0,1651068761048357.0
-1.0,-1.0,-2.0,0.0,2.0,1.0,0.0,0.0,1651068761056525.0
-1.0,-1.0,-1.0,-1.0,-1.0,-1.0,-3.0,-2.0,1651068761056525.0
1.0,0.0,0.0,0.0,-2.0,-1.0,0.0,0.0,1651068761071666.0
0.0,0.0,1.0,-3.0,-4.0,-2.0,1.0,-1.0,1651068761071666.0
-2.0,-2.0,0.0,-1.0,-1.0,0.0,-1.0,-1.0,1651068761072657.0
0.0,-2.0,-1.0,1.0,1.0,-1.0,0.0,-1.0,1651068761072657.0
1.0,0.0,-1.0,-1.0,-2.0,-4.0,-3.0,-1.0,1651068761094765.0
0.0,1.0,-1.0,1.0,3.0,1.0,0.0,1.0,1651068761094765.0
0.0,1.0,1.0,-1.0,-1.0,-1.0,-1.0,0.0,1651068761094765.0
-3.0,0.0,-2.0,1.0,1.0,-2.0,-2.0,0.0,1651068761094765.0
-2.0,0.0,-1.0,1.0,3.0,0.0,2.0,0.0,1651068761107797.0
-1.0,-1.0,1.0,1.0,-2.0,0.0,0.0,-1.0,1651068761107797.0
1.0,0.0,0.0,1.0,-4.0,-3.0,-1.0,-1.0,1651068761116822.0
-1.0,1.0,1.0,1.0,0.0,1.0,1.0,1.0,1651068761116822.0
-1.0,-2.0,-2.0,-1.0,1.0,2.0,1.0,-1.0,1651068761132932.0
-1.0,-1.0,-2.0,-3.0,-2.0,0.0,-2.0,-1.0,1651068761132932.0
0.0,-2.0,0.0,-1.0,-1.0,-2.0,-1.0,0.0,1651068761132932.0
-1.0,1.0,1.0,-2.0,-2.0,0.0,0.0,-1.0,1651068761132932.0
1.0,-1.0,2.0,1.0,-1.0,-1.0,-2.0,0.0,1651068761154969.0
0.0,-1.0,-2.0,2.0,2.0,1.0,-2.0,-1.0,1651068761154969.0
-1.0,-1.0,-3.0,-3.0,-5.0,-1.0,0.0,3.0,1651068761154969.0
0.0,1.0,1.0,2.0,0.0,1.0,0.0,0.0,1651068761154969.0
-3.0,0.0,-2.0,-1.0,-1.0,0.0,1.0,0.0,1651068761168119.0
0.0,0.0,0.0,0.0,1.0,1.0,-2.0,-1.0,1651068761168119.0
0.0,-1.0,0.0,2.0,-1.0,-1.0,-1.0,-4.0,1651068761176346.0
-1.0,-2.0,-4.0,-2.0,-5.0,-3.0,-2.0,1.0,1651068761176346.0
0.0,0.0,1.0,0.0,-4.0,2.0,1.0,1.0,1651068761191107.0
0.0,-2.0,-1.0,1.0,1.0,-1.0,-3.0,-1.0,1651068761191107.0
0.0,1.0,0.0,-2.0,-2.0,0.0,2.0,-1.0,1651068761192103.0
1.0,-1.0,0.0,-2.0,0.0,-1.0,1.0,1.0,1651068761192103.0
-1.0,0.0,-2.0,0.0,1.0,1.0,-3.0,-1.0,1651068761214991.0
-1.0,-1.0,-4.0,-2.0,-3.0,-3.0,0.0,0.0,1651068761214991.0
-1.0,0.0,1.0,0.0,3.0,1.0,-2.0,-1.0,1651068761214991.0
1.0,-1.0,0.0,0.0,-1.0,-1.0,0.0,-1.0,1651068761214991.0
1.0,-1.0,-2.0,-1.0,-2.0,-2.0,-1.0,-1.0,1651068761227957.0
0.0,0.0,3.0,2.0,2.0,2.0,1.0,-1.0,1651068761227957.0
-1.0,0.0,0.0,1.0,0.0,0.0,-3.0,-1.0,1651068761236891.0
0.0,0.0,-2.0,-2.0,-2.0,0.0,-1.0,1.0,1651068761236891.0
0.0,1.0,0.0,0.0,2.0,0.0,1.0,1.0,1651068761251054.0
-1.0,-2.0,-2.0,0.0,-2.0,-1.0,-1.0,-2.0,1651068761251054.0
-1.0,-1.0,-3.0,1.0,2.0,0.0,0.0,0.0,1651068761251983.0
0.0,-1.0,0.0,-2.0,-2.0,-2.0,-1.0,-3.0,1651068761251983.0
1.0,-1.0,-2.0,0.0,0.0,1.0,1.0,1.0,1651068761274470.0
0.0,1.0,1.0,-1.0,-1.0,-2.0,0.0,0.0,1651068761274470.0
-1.0,0.0,-1.0,-1.0,2.0,1.0,-1.0,0.0,1651068761275531.0
-2.0,-2.0,-1.0,-1.0,-2.0,-1.0,-3.0,1.0,1651068761275531.0
-1.0,-1.0,-1.0,-2.0,2.0,-1.0,1.0,-1.0,1651068761288605.0
1.0,2.0,0.0,-1.0,-3.0,-2.0,-1.0,2.0,1651068761288605.0
0.0,0.0,-1.0,0.0,1.0,-1.0,-1.0,1.0,1651068761296653.0
-2.0,1.0,-1.0,-2.0,1.0,2.0,0.0,0.0,1651068761296653.0
-2.0,-2.0,0.0,2.0,0.0,-1.0,0.0,-2.0,1651068761311201.0
-1.0,-3.0,-3.0,-1.0,-1.0,-1.0,1.0,-1.0,1651068761311201.0
-1.0,0.0,0.0,-1.0,-3.0,-3.0,-3.0,-3.0,1651068761312128.0
-1.0,0.0,0.0,1.0,3.0,2.0,0.0,-1.0,1651068761312128.0
-2.0,-2.0,0.0,-3.0,-5.0,-3.0,-2.0,0.0,1651068761334716.0
0.0,1.0,-2.0,-2.0,1.0,0.0,0.0,0.0,1651068761334716.0
-1.0,-2.0,-2.0,-2.0,0.0,-1.0,-2.0,1.0,1651068761335713.0
-1.0,-1.0,-1.0,1.0,-1.0,-5.0,-2.0,-2.0,1651068761335713.0
1.0,2.0,2.0,1.0,1.0,1.0,1.0,0.0,1651068761348689.0
-1.0,-2.0,-1.0,-1.0,-2.0,0.0,-1.0,0.0,1651068761348689.0
0.0,-1.0,-1.0,0.0,-1.0,2.0,1.0,0.0,1651068761356724.0
0.0,-1.0,-1.0,2.0,2.0,1.0,0.0,-1.0,1651068761356724.0
-1.0,-1.0,-3.0,0.0,-3.0,-3.0,-1.0,-1.0,1651068761371664.0
0.0,-1.0,1.0,-1.0,-3.0,-2.0,0.0,0.0,1651068761371664.0
0.0,-3.0,0.0,-1.0,0.0,-1.0,0.0,-2.0,1651068761371664.0
0.0,0.0,-1.0,-3.0,0.0,3.0,2.0,1.0,1651068761371664.0
-3.0,-1.0,-1.0,0.0,1.0,-1.0,-2.0,-2.0,1651068761394589.0
2.0,3.0,2.0,0.0,-1.0,-3.0,-1.0,0.0,1651068761394589.0
-2.0,-4.0,-6.0,-2.0,0.0,-3.0,-2.0,-1.0,1651068761395554.0
1.0,1.0,1.0,2.0,1.0,2.0,1.0,-2.0,1651068761395554.0
0.0,-1.0,-2.0,-4.0,-1.0,0.0,1.0,1.0,1651068761416524.0
-1.0,-3.0,-1.0,0.0,-3.0,-3.0,-3.0,-1.0,1651068761416524.0
-3.0,2.0,2.0,2.0,2.0,2.0,1.0,0.0,1651068761417494.0
-1.0,-2.0,-2.0,-4.0,-6.0,-3.0,0.0,0.0,1651068761417494.0
-1.0,-3.0,-1.0,1.0,4.0,1.0,-1.0,-1.0,1651068761431485.0
-1.0,0.0,0.0,-2.0,2.0,1.0,0.0,0.0,1651068761431485.0
0.0,-1.0,-1.0,2.0,3.0,0.0,-2.0,0.0,1651068761432475.0
-1.0,-1.0,0.0,-5.0,-5.0,-2.0,-1.0,-1.0,1651068761432475.0
0.0,0.0,0.0,-1.0,-3.0,0.0,-3.0,0.0,1651068761454396.0
-1.0,-1.0,-3.0,1.0,1.0,-1.0,-3.0,-2.0,1651068761454396.0
1.0,0.0,2.0,2.0,0.0,0.0,1.0,1.0,1651068761455393.0
0.0,-2.0,-1.0,-1.0,-1.0,-1.0,-1.0,1.0,1651068761455393.0
0.0,-1.0,0.0,-1.0,-3.0,0.0,0.0,-1.0,1651068761477333.0
0.0,-2.0,1.0,-2.0,-2.0,0.0,-1.0,-2.0,1651068761477333.0
-2.0,0.0,-2.0,-2.0,-2.0,-2.0,0.0,-3.0,1651068761477333.0
-1.0,-1.0,-1.0,0.0,1.0,1.0,-1.0,0.0,1651068761477333.0
2.0,2.0,2.0,-2.0,-1.0,0.0,2.0,0.0,1651068761491357.0
-1.0,-2.0,-6.0,1.0,0.0,0.0,-1.0,1.0,1651068761491357.0
1.0,2.0,1.0,-2.0,-3.0,0.0,0.0,2.0,1651068761492294.0
-2.0,-3.0,-1.0,1.0,1.0,0.0,-1.0,0.0,1651068761492294.0
0.0,0.0,1.0,-3.0,-2.0,-3.0,-2.0,0.0,1651068761513988.0
0.0,0.0,-1.0,-2.0,0.0,2.0,1.0,0.0,1651068761513988.0
-1.0,-1.0,0.0,1.0,-1.0,0.0,1.0,1.0,1651068761514988.0
0.0,-1.0,-1.0,-2.0,-2.0,1.0,-1.0,-1.0,1651068761514988.0
0.0,2.0,2.0,1.0,-1.0,-1.0,0.0,-1.0,1651068761537206.0
-1.0,-1.0,1.0,1.0,0.0,-3.0,1.0,-2.0,1651068761537206.0
0.0,0.0,-1.0,0.0,-1.0,-3.0,-2.0,-1.0,1651068761538142.0
0.0,1.0,0.0,0.0,2.0,2.0,0.0,0.0,1651068761538142.0
0.0,-2.0,1.0,1.0,-1.0,0.0,0.0,-2.0,1651068761551107.0
0.0,1.0,0.0,0.0,-1.0,-1.0,1.0,-1.0,1651068761551107.0
0.0,0.0,0.0,-2.0,-1.0,-1.0,1.0,-2.0,1651068761552113.0
1.0,-1.0,-1.0,3.0,2.0,-3.0,-1.0,-2.0,1651068761552113.0
-3.0,1.0,-2.0,-1.0,-5.0,-1.0,-3.0,-2.0,1651068761574747.0
-1.0,-2.0,0.0,0.0,0.0,2.0,0.0,0.0,1651068761574747.0
0.0,-2.0,1.0,0.0,-1.0,0.0,1.0,0.0,1651068761575698.0
0.0,0.0,-1.0,-1.0,1.0,-1.0,0.0,1.0,1651068761575698.0
-1.0,0.0,-2.0,-3.0,1.0,-2.0,-3.0,0.0,1651068761597492.0
1.0,1.0,2.0,2.0,0.0,2.0,1.0,2.0,1651068761597492.0
0.0,-2.0,-3.0,-2.0,-3.0,-3.0,-2.0,-1.0,1651068761597492.0
0.0,0.0,0.0,-1.0,-2.0,0.0,-2.0,-1.0,1651068761597492.0
-2.0,-2.0,-4.0,1.0,2.0,1.0,-1.0,-1.0,1651068761611541.0
-2.0,-1.0,0.0,0.0,-2.0,0.0,2.0,0.0,1651068761611541.0
-1.0,0.0,0.0,2.0,0.0,2.0,0.0,0.0,1651068761612471.0
-1.0,-1.0,1.0,-2.0,-5.0,-1.0,1.0,-1.0,1651068761612471.0
0.0,0.0,0.0,3.0,1.0,0.0,1.0,0.0,1651068761634667.0
-1.0,-1.0,1.0,-2.0,-1.0,-2.0,-2.0,-3.0,1651068761634667.0
-1.0,0.0,-2.0,-2.0,0.0,-2.0,-1.0,-2.0,1651068761635664.0
-1.0,0.0,0.0,2.0,0.0,0.0,-2.0,0.0,1651068761635664.0
1.0,0.0,2.0,1.0,0.0,0.0,1.0,2.0,1651068761657449.0
0.0,1.0,2.0,0.0,-1.0,-1.0,-2.0,0.0,1651068761657449.0
-2.0,1.0,0.0,-2.0,-2.0,2.0,0.0,0.0,1651068761657449.0
-1.0,0.0,-1.0,-1.0,-1.0,-2.0,-3.0,-2.0,1651068761657449.0
-1.0,-2.0,-3.0,-2.0,0.0,0.0,-2.0,-1.0,1651068761671192.0
-1.0,-2.0,-3.0,-1.0,-1.0,-2.0,-3.0,0.0,1651068761671192.0
0.0,0.0,-1.0,0.0,0.0,1.0,0.0,-1.0,1651068761672130.0
-2.0,-2.0,0.0,-1.0,-1.0,0.0,1.0,0.0,1651068761672130.0
-1.0,-1.0,-2.0,1.0,-2.0,-2.0,-1.0,0.0,1651068761694960.0
-2.0,-1.0,-1.0,1.0,0.0,-1.0,-1.0,-1.0,1651068761694960.0
0.0,0.0,-1.0,0.0,-1.0,1.0,1.0,0.0,1651068761695208.0
-1.0,0.0,-1.0,0.0,-1.0,-1.0,0.0,-1.0,1651068761695208.0
-1.0,-1.0,-2.0,-2.0,0.0,0.0,-2.0,1.0,1651068761717305.0
0.0,0.0,-1.0,1.0,0.0,-3.0,-2.0,-1.0,1651068761717305.0
-1.0,-2.0,-1.0,-4.0,-1.0,-3.0,0.0,-1.0,1651068761718236.0
2.0,-1.0,0.0,0.0,1.0,0.0,0.0,0.0,1651068761718236.0
1.0,-3.0,-3.0,-3.0,-1.0,0.0,0.0,0.0,1651068761731234.0
-1.0,0.0,-3.0,-2.0,-1.0,-1.0,-2.0,1.0,1651068761731234.0
-1.0,-1.0,1.0,-1.0,-1.0,-1.0,0.0,-1.0,1651068761732199.0
0.0,-3.0,-1.0,0.0,1.0,1.0,-1.0,-1.0,1651068761732199.0
-1.0,-2.0,1.0,2.0,-1.0,-1.0,0.0,-2.0,1651068761755017.0
0.0,0.0,2.0,-2.0,-2.0,1.0,2.0,0.0,1651068761755017.0
-1.0,-3.0,-5.0,-1.0,0.0,-2.0,-1.0,-1.0,1651068761755017.0
-1.0,0.0,1.0,2.0,0.0,0.0,0.0,-1.0,1651068761755017.0
0.0,0.0,0.0,-4.0,-3.0,-1.0,0.0,0.0,1651068761776898.0
-3.0,-1.0,-2.0,-1.0,2.0,0.0,-2.0,-1.0,1651068761776898.0
1.0,1.0,1.0,0.0,-3.0,-1.0,-2.0,1.0,1651068761777829.0
-2.0,3.0,1.0,0.0,-1.0,-1.0,0.0,0.0,1651068761777829.0
2.0,1.0,-1.0,-1.0,2.0,1.0,0.0,1.0,1651068761791828.0
0.0,-2.0,-3.0,1.0,0.0,0.0,1.0,-1.0,1651068761791828.0
-1.0,-1.0,-1.0,-3.0,-3.0,0.0,-1.0,-2.0,1651068761791828.0
0.0,1.0,1.0,-1.0,0.0,-2.0,-1.0,-1.0,1651068761791828.0
-1.0,0.0,0.0,-1.0,-1.0,-3.0,-3.0,-1.0,1651068761814339.0
1.0,1.0,-1.0,1.0,-1.0,2.0,3.0,0.0,1651068761814339.0
0.0,-1.0,1.0,17.0,0.0,-1.0,0.0,-1.0,1651068761815284.0
-2.0,-2.0,-7.0,-32.0,-5.0,0.0,-1.0,-1.0,1651068761815284.0
-1.0,-2.0,-2.0,0.0,3.0,1.0,0.0,-1.0,1651068761837491.0
-1.0,1.0,0.0,-4.0,-5.0,-4.0,-4.0,1.0,1651068761837491.0
2.0,0.0,9.0,24.0,11.0,5.0,3.0,1.0,1651068761837491.0
-1.0,-4.0,-7.0,-1.0,-6.0,-4.0,-1.0,-1.0,1651068761837491.0
1.0,3.0,7.0,10.0,5.0,1.0,1.0,-2.0,1651068761851525.0
-1.0,-3.0,-3.0,4.0,-1.0,-2.0,0.0,0.0,1651068761851525.0
-1.0,-1.0,-9.0,-21.0,-15.0,-7.0,-4.0,-1.0,1651068761852552.0
2.0,1.0,8.0,16.0,6.0,3.0,1.0,1.0,1651068761852552.0
-2.0,-4.0,-4.0,-7.0,-2.0,0.0,0.0,-3.0,1651068761874682.0
1.0,1.0,2.0,11.0,0.0,2.0,1.0,-2.0,1651068761874682.0
-1.0,-2.0,-3.0,-3.0,0.0,2.0,-2.0,0.0,1651068761875641.0
-1.0,-3.0,-3.0,0.0,-5.0,-2.0,-2.0,-2.0,1651068761875641.0
-1.0,0.0,4.0,3.0,-3.0,-4.0,1.0,2.0,1651068761896740.0
-1.0,1.0,4.0,-7.0,-5.0,-3.0,-3.0,-2.0,1651068761896740.0
0.0,-1.0,3.0,27.0,6.0,1.0,-1.0,0.0,1651068761898707.0
-1.0,-1.0,-6.0,-45.0,2.0,4.0,2.0,0.0,1651068761898707.0
-1.0,0.0,-1.0,3.0,-2.0,1.0,0.0,-1.0,1651068761910674.0
-1.0,0.0,0.0,-5.0,-1.0,-3.0,-1.0,1.0,1651068761910674.0
0.0,2.0,2.0,-8.0,-7.0,-7.0,-2.0,0.0,1651068761919650.0
1.0,1.0,7.0,25.0,7.0,3.0,-1.0,0.0,1651068761919650.0
-1.0,0.0,1.0,5.0,4.0,3.0,1.0,1.0,1651068761934409.0
0.0,-3.0,-4.0,-5.0,-4.0,-5.0,1.0,-2.0,1651068761934409.0
0.0,0.0,1.0,-10.0,1.0,1.0,-3.0,0.0,1651068761936427.0
-2.0,-1.0,1.0,4.0,-3.0,-4.0,-1.0,-3.0,1651068761936427.0
1.0,0.0,-1.0,-3.0,1.0,2.0,2.0,0.0,1651068761957401.0
0.0,-2.0,0.0,6.0,0.0,0.0,-2.0,-1.0,1651068761957401.0
-6.0,-6.0,-9.0,-13.0,-5.0,-2.0,-3.0,-4.0,1651068761958332.0
1.0,2.0,5.0,7.0,-1.0,-3.0,-1.0,1.0,1651068761958332.0
2.0,3.0,3.0,4.0,-8.0,-7.0,-3.0,1.0,1651068761970302.0
-2.0,-1.0,-2.0,5.0,5.0,3.0,0.0,-1.0,1651068761970302.0
3.0,1.0,-1.0,-10.0,0.0,6.0,7.0,2.0,1651068761979366.0
0.0,0.0,2.0,12.0,-3.0,0.0,0.0,0.0,1651068761979366.0
-5.0,-3.0,-6.0,-8.0,0.0,1.0,-6.0,-5.0,1651068761994958.0
2.0,3.0,2.0,0.0,2.0,1.0,5.0,6.0,1651068761994958.0
3.0,1.0,2.0,-1.0,-4.0,-3.0,-2.0,3.0,1651068761996411.0
-2.0,0.0,1.0,7.0,5.0,4.0,0.0,-1.0,1651068761996411.0
1.0,0.0,3.0,9.0,-6.0,-1.0,0.0,0.0,1651068762017303.0
-1.0,0.0,-4.0,-21.0,-2.0,3.0,0.0,1.0,1651068762017303.0
-4.0,-3.0,-3.0,-7.0,2.0,1.0,-4.0,-11.0,1651068762018234.0
1.0,-4.0,-14.0,-6.0,-10.0,-7.0,-3.0,3.0,1651068762018234.0
-1.0,-2.0,0.0,0.0,1.0,-6.0,-5.0,-3.0,1651068762031208.0
0.0,0.0,-2.0,-2.0,2.0,1.0,3.0,0.0,1651068762031208.0
2.0,4.0,9.0,-3.0,-3.0,4.0,5.0,2.0,1651068762040174.0
0.0,1.0,8.0,29.0,16.0,8.0,-5.0,-2.0,1651068762040174.0
-4.0,-6.0,-19.0,-34.0,-12.0,-6.0,2.0,-2.0,1651068762054984.0
-1.0,2.0,5.0,4.0,-1.0,-1.0,-1.0,2.0,1651068762054984.0
3.0,-1.0,-5.0,-1.0,5.0,3.0,5.0,5.0,1651068762056370.0
-1.0,2.0,6.0,9.0,0.0,-2.0,1.0,-5.0,1651068762056370.0
1.0,2.0,8.0,17.0,7.0,3.0,0.0,6.0,1651068762077251.0
-7.0,-4.0,-9.0,-17.0,-5.0,-6.0,-14.0,-13.0,1651068762077251.0
-1.0,4.0,14.0,16.0,6.0,6.0,12.0,7.0,1651068762078181.0
10.0,0.0,-9.0,-14.0,-3.0,8.0,15.0,20.0,1651068762078181.0
-7.0,-1.0,-2.0,-10.0,-11.0,-11.0,-8.0,-16.0,1651068762091166.0
7.0,5.0,6.0,27.0,14.0,10.0,6.0,13.0,1651068762091166.0
-11.0,-6.0,1.0,-20.0,-6.0,-9.0,-27.0,-31.0,1651068762099241.0
1.0,0.0,-3.0,-12.0,-8.0,2.0,13.0,11.0,1651068762099241.0
2.0,-3.0,-11.0,-8.0,1.0,-3.0,5.0,7.0,1651068762114748.0
2.0,4.0,18.0,36.0,11.0,2.0,-2.0,-1.0,1651068762114748.0
-4.0,-7.0,-20.0,-44.0,-10.0,-5.0,-3.0,-7.0,1651068762115703.0
-1.0,-3.0,-3.0,-17.0,-4.0,-1.0,-4.0,1.0,1651068762115703.0
3.0,2.0,1.0,9.0,0.0,2.0,4.0,-9.0,1651068762136790.0
-1.0,-3.0,-6.0,-41.0,-4.0,-2.0,1.0,-3.0,1651068762136790.0
-2.0,-7.0,-2.0,43.0,2.0,-5.0,-2.0,10.0,1651068762138717.0
-4.0,-1.0,-2.0,-18.0,-5.0,-8.0,-9.0,-18.0,1651068762138717.0
5.0,1.0,-1.0,-24.0,-5.0,2.0,-1.0,5.0,1651068762150736.0
-1.0,-3.0,-4.0,20.0,-2.0,-1.0,-1.0,1.0,1651068762150736.0
5.0,7.0,4.0,30.0,10.0,2.0,4.0,6.0,1651068762159714.0
-4.0,-5.0,-6.0,-50.0,-4.0,-5.0,-6.0,0.0,1651068762159714.0
2.0,3.0,11.0,16.0,14.0,13.0,12.0,9.0,1651068762174886.0
-1.0,1.0,-9.0,-1.0,-8.0,-1.0,1.0,-5.0,1651068762174886.0
-6.0,-1.0,3.0,10.0,1.0,-1.0,-4.0,-14.0,1651068762175930.0
-1.0,-2.0,-7.0,12.0,-7.0,-8.0,-6.0,-2.0,1651068762175930.0
3.0,2.0,0.0,-15.0,-2.0,-1.0,-1.0,2.0,1651068762196772.0
-2.0,2.0,15.0,12.0,0.0,-2.0,2.0,1.0,1651068762196772.0
10.0,5.0,-5.0,-8.0,-4.0,3.0,10.0,19.0,1651068762198755.0
-6.0,-6.0,-3.0,76.0,2.0,-2.0,-3.0,-19.0,1651068762198755.0
2.0,-1.0,-21.0,-70.0,-3.0,-1.0,3.0,11.0,1651068762210790.0
1.0,-5.0,2.0,11.0,-19.0,-10.0,-1.0,-2.0,1651068762210790.0
-6.0,-1.0,1.0,-34.0,-17.0,-7.0,-4.0,-9.0,1651068762219710.0
-1.0,5.0,15.0,4.0,35.0,16.0,6.0,0.0,1651068762219710.0
-5.0,-2.0,-6.0,8.0,0.0,-4.0,1.0,5.0,1651068762234958.0
9.0,3.0,1.0,37.0,8.0,4.0,2.0,12.0,1651068762234958.0
-12.0,-4.0,20.0,-35.0,-46.0,-23.0,-16.0,-20.0,1651068762236294.0
12.0,4.0,-5.0,25.0,48.0,30.0,14.0,33.0,1651068762236294.0
-21.0,-11.0,6.0,-15.0,-30.0,-18.0,-24.0,-49.0,1651068762257436.0
6.0,4.0,-14.0,-13.0,18.0,9.0,8.0,18.0,1651068762257436.0
5.0,6.0,9.0,29.0,0.0,0.0,6.0,2.0,1651068762258367.0
1.0,-10.0,-22.0,-28.0,-39.0,-19.0,-6.0,1.0,1651068762258367.0
0.0,7.0,20.0,32.0,10.0,6.0,1.0,-3.0,1651068762270334.0
-5.0,0.0,3.0,11.0,-3.0,-5.0,-5.0,-7.0,1651068762270334.0
-2.0,-8.0,-27.0,-43.0,2.0,2.0,0.0,5.0,1651068762279338.0
-5.0,0.0,5.0,28.0,3.0,-3.0,-1.0,-8.0,1651068762279338.0
19.0,9.0,-11.0,-4.0,3.0,5.0,5.0,40.0,1651068762294426.0
-18.0,-13.0,9.0,25.0,-9.0,-9.0,-15.0,-32.0,1651068762294426.0
7.0,3.0,1.0,9.0,8.0,2.0,4.0,11.0,1651068762301108.0
-6.0,-10.0,-25.0,3.0,-18.0,-14.0,-10.0,-12.0,1651068762301108.0
-1.0,-1.0,3.0,-35.0,7.0,11.0,4.0,-4.0,1651068762317462.0
1.0,-6.0,-12.0,-59.0,-6.0,-1.0,0.0,11.0,1651068762317462.0
1.0,0.0,-21.0,32.0,25.0,18.0,-2.0,5.0,1651068762318419.0
-8.0,6.0,37.0,10.0,-13.0,-24.0,-17.0,-14.0,1651068762318419.0
6.0,2.0,6.0,31.0,14.0,16.0,8.0,10.0,1651068762339461.0
-5.0,-7.0,-15.0,-25.0,-40.0,-17.0,-8.0,-14.0,1651068762339461.0
7.0,1.0,1.0,37.0,84.0,62.0,20.0,12.0,1651068762341432.0
0.0,-1.0,-6.0,-30.0,-19.0,-6.0,6.0,9.0,1651068762341432.0
-15.0,-8.0,1.0,28.0,-13.0,-18.0,-13.0,-22.0,1651068762353582.0
13.0,3.0,-7.0,-33.0,2.0,4.0,6.0,33.0,1651068762353582.0
-20.0,-9.0,-10.0,-8.0,-27.0,-29.0,-18.0,-42.0,1651068762361108.0
0.0,0.0,26.0,24.0,11.0,7.0,1.0,-1.0,1651068762361108.0
6.0,-1.0,-8.0,-6.0,5.0,3.0,3.0,9.0,1651068762377580.0
-3.0,0.0,6.0,7.0,-10.0,-7.0,0.0,0.0,1651068762377580.0
-17.0,-8.0,3.0,11.0,-4.0,-10.0,-6.0,-25.0,1651068762378572.0
5.0,1.0,-14.0,-21.0,7.0,7.0,-1.0,-3.0,1651068762378572.0
-3.0,1.0,8.0,34.0,-5.0,-7.0,1.0,5.0,1651068762399482.0
2.0,7.0,10.0,-1.0,3.0,3.0,2.0,-7.0,1651068762399482.0
14.0,7.0,-8.0,-8.0,2.0,2.0,11.0,38.0,1651068762401471.0
-6.0,0.0,14.0,0.0,-3.0,-3.0,-9.0,-20.0,1651068762401471.0
6.0,3.0,9.0,17.0,-6.0,-1.0,-6.0,4.0,1651068762413745.0
-8.0,-4.0,-3.0,21.0,4.0,-10.0,-2.0,-19.0,1651068762413745.0
13.0,1.0,-4.0,-26.0,15.0,2.0,5.0,27.0,1651068762420757.0
-11.0,0.0,14.0,5.0,-12.0,15.0,1.0,-25.0,1651068762420757.0
6.0,-4.0,-29.0,27.0,14.0,4.0,0.0,11.0,1651068762436772.0
-9.0,-1.0,18.0,-16.0,-16.0,-12.0,-12.0,-16.0,1651068762436772.0
-9.0,-8.0,-16.0,-4.0,-21.0,-23.0,-11.0,-16.0,1651068762438768.0
8.0,5.0,14.0,-3.0,33.0,23.0,12.0,17.0,1651068762438768.0
-12.0,-3.0,11.0,25.0,1.0,-2.0,-3.0,-22.0,1651068762459862.0
6.0,1.0,1.0,23.0,-7.0,-1.0,2.0,15.0,1651068762459862.0
-7.0,-5.0,-13.0,-68.0,-9.0,-3.0,-2.0,-13.0,1651068762460865.0
-4.0,-3.0,-23.0,-52.0,-18.0,-9.0,-2.0,-2.0,1651068762460865.0
8.0,6.0,3.0,23.0,0.0,4.0,8.0,17.0,1651068762474958.0
-6.0,-5.0,5.0,-14.0,8.0,0.0,-4.0,-12.0,1651068762474958.0
4.0,4.0,20.0,35.0,-5.0,1.0,-4.0,2.0,1651068762476346.0
6.0,5.0,-5.0,7.0,-3.0,-1.0,6.0,10.0,1651068762476346.0
8.0,5.0,-16.0,-36.0,-5.0,-7.0,-1.0,7.0,1651068762496683.0
-7.0,-4.0,-7.0,-12.0,7.0,0.0,-7.0,-15.0,1651068762496683.0
-1.0,4.0,11.0,24.0,-1.0,-6.0,-2.0,-5.0,1651068762498681.0
10.0,2.0,3.0,20.0,-10.0,-1.0,7.0,21.0,1651068762498681.0
-7.0,-6.0,-18.0,13.0,2.0,-7.0,-10.0,-17.0,1651068762519729.0
2.0,11.0,40.0,11.0,11.0,13.0,6.0,3.0,1651068762519729.0
1.0,-4.0,-4.0,10.0,2.0,9.0,8.0,7.0,1651068762520726.0
-6.0,-3.0,-16.0,-7.0,10.0,2.0,-6.0,-2.0,1651068762520726.0
3.0,-3.0,3.0,-28.0,-8.0,-5.0,1.0,6.0,1651068762534282.0
0.0,3.0,2.0,21.0,0.0,-5.0,-4.0,-11.0,1651068762534282.0
-1.0,-7.0,-18.0,-28.0,2.0,5.0,3.0,3.0,1651068762540772.0
1.0,1.0,2.0,-15.0,-21.0,-15.0,-8.0,0.0,1651068762540772.0
-18.0,-6.0,10.0,-20.0,-4.0,4.0,-3.0,-29.0,1651068762557879.0
8.0,0.0,-21.0,0.0,-8.0,-11.0,5.0,26.0,1651068762557879.0
1.0,3.0,14.0,22.0,39.0,31.0,5.0,-1.0,1651068762558837.0
12.0,5.0,-5.0,-7.0,-7.0,0.0,4.0,20.0,1651068762558837.0
-12.0,-5.0,-5.0,-16.0,-8.0,-10.0,-17.0,-39.0,1651068762579960.0
6.0,4.0,20.0,17.0,0.0,16.0,10.0,16.0,1651068762579960.0
0.0,-1.0,-25.0,14.0,-21.0,-18.0,-6.0,0.0,1651068762580960.0
-7.0,-10.0,-12.0,-5.0,14.0,9.0,1.0,-3.0,1651068762580960.0
2.0,1.0,9.0,-1.0,-2.0,-2.0,2.0,19.0,1651068762594095.0
-11.0,-6.0,-16.0,-4.0,-8.0,-9.0,-4.0,-21.0,1651068762594095.0
9.0,1.0,10.0,-23.0,-13.0,-2.0,2.0,17.0,1651068762602029.0
-2.0,3.0,-6.0,-6.0,-13.0,-8.0,-8.0,-15.0,1651068762602029.0
-13.0,-13.0,-13.0,-20.0,-16.0,-15.0,-8.0,-23.0,1651068762617247.0
1.0,1.0,-9.0,-2.0,30.0,8.0,0.0,1.0,1651068762617247.0
14.0,13.0,24.0,17.0,13.0,25.0,19.0,25.0,1651068762618178.0
-11.0,-8.0,-4.0,11.0,-10.0,-19.0,-17.0,-20.0,1651068762618178.0
8.0,5.0,8.0,2.0,9.0,9.0,11.0,18.0,1651068762639366.0
-5.0,-8.0,-19.0,17.0,12.0,6.0,-4.0,-12.0,1651068762639366.0
0.0,5.0,25.0,-22.0,-15.0,-16.0,-6.0,8.0,1651068762641390.0
8.0,1.0,-3.0,-5.0,-3.0,3.0,11.0,15.0,1651068762641390.0
-9.0,0.0,15.0,31.0,-3.0,-6.0,-8.0,-14.0,1651068762653498.0
1.0,-5.0,-5.0,-45.0,-7.0,1.0,0.0,9.0,1651068762653498.0
-12.0,-5.0,-25.0,24.0,-1.0,-7.0,-5.0,-24.0,1651068762660549.0
9.0,3.0,5.0,-7.0,-4.0,-2.0,3.0,21.0,1651068762660549.0
0.0,3.0,15.0,2.0,7.0,4.0,5.0,2.0,1651068762677426.0
-8.0,-4.0,-16.0,-4.0,-3.0,-4.0,-3.0,-15.0,1651068762677426.0
5.0,2.0,0.0,-5.0,7.0,7.0,5.0,7.0,1651068762678356.0
-3.0,1.0,-6.0,17.0,-18.0,-7.0,-3.0,-11.0,1651068762678356.0
4.0,-2.0,2.0,8.0,8.0,6.0,3.0,10.0,1651068762699465.0
-1.0,-2.0,-2.0,-50.0,-20.0,-6.0,1.0,0.0,1651068762699465.0
-3.0,-2.0,-4.0,11.0,14.0,9.0,4.0,0.0,1651068762701460.0
-6.0,2.0,18.0,3.0,8.0,5.0,1.0,-17.0,1651068762701460.0
-3.0,-5.0,-6.0,24.0,-2.0,3.0,1.0,-1.0,1651068762714313.0
10.0,7.0,-1.0,25.0,-2.0,-6.0,0.0,15.0,1651068762714313.0
-15.0,-11.0,-6.0,-18.0,5.0,-2.0,-16.0,-34.0,1651068762722674.0
0.0,3.0,5.0,5.0,3.0,12.0,9.0,11.0,1651068762722674.0
3.0,0.0,1.0,-7.0,-8.0,-6.0,0.0,11.0,1651068762736826.0
-1.0,2.0,0.0,1.0,25.0,11.0,0.0,-8.0,1651068762736826.0
0.0,1.0,-3.0,-36.0,-29.0,-11.0,2.0,7.0,1651068762738752.0
-4.0,-7.0,-10.0,8.0,-2.0,-6.0,-5.0,-4.0,1651068762738752.0
15.0,6.0,3.0,-1.0,29.0,16.0,8.0,25.0,1651068762760439.0
-17.0,-7.0,-6.0,2.0,-15.0,-10.0,-8.0,-31.0,1651068762760439.0
2.0,-2.0,7.0,18.0,-4.0,-4.0,0.0,0.0,1651068762761451.0
-2.0,-3.0,7.0,-1.0,8.0,2.0,3.0,6.0,1651068762761451.0
4.0,5.0,-8.0,-11.0,-15.0,-5.0,3.0,14.0,1651068762774282.0
6.0,0.0,2.0,11.0,14.0,15.0,4.0,11.0,1651068762774282.0
7.0,8.0,16.0,17.0,13.0,1.0,4.0,7.0,1651068762781108.0
-12.0,-10.0,-9.0,-8.0,-6.0,-8.0,-10.0,-19.0,1651068762781108.0
10.0,6.0,6.0,13.0,-1.0,1.0,6.0,12.0,1651068762797451.0
6.0,1.0,0.0,-11.0,6.0,5.0,3.0,10.0,1651068762797451.0
-1.0,0.0,8.0,14.0,-11.0,-11.0,-6.0,-5.0,1651068762799406.0
0.0,1.0,1.0,-1.0,6.0,-3.0,0.0,-3.0,1651068762799406.0
-8.0,-9.0,-15.0,-6.0,-20.0,-9.0,-4.0,-8.0,1651068762819380.0
5.0,4.0,11.0,13.0,37.0,15.0,-5.0,0.0,1651068762819380.0
2.0,0.0,-3.0,12.0,-1.0,0.0,8.0,10.0,1651068762821308.0
-2.0,1.0,-4.0,-18.0,-3.0,-5.0,-13.0,-10.0,1651068762821308.0
0.0,-1.0,1.0,5.0,0.0,7.0,21.0,3.0,1651068762833692.0
-1.0,-3.0,-6.0,-16.0,-1.0,7.0,9.0,5.0,1651068762833692.0
-1.0,1.0,3.0,15.0,-8.0,-11.0,-5.0,-2.0,1651068762841740.0
11.0,4.0,1.0,5.0,12.0,10.0,6.0,17.0,1651068762841740.0
-14.0,-6.0,-2.0,-1.0,2.0,-4.0,-15.0,-36.0,1651068762856748.0
3.0,1.0,3.0,6.0,-16.0,-10.0,0.0,10.0,1651068762856748.0
-3.0,-1.0,-5.0,-6.0,0.0,-3.0,-5.0,-3.0,1651068762863635.0
-2.0,-3.0,-1.0,6.0,-2.0,0.0,-10.0,-3.0,1651068762863635.0
3.0,1.0,1.0,-10.0,-1.0,1.0,5.0,9.0,1651068762879957.0
-3.0,-2.0,-7.0,9.0,-2.0,-1.0,-3.0,-2.0,1651068762879957.0
-4.0,-5.0,-5.0,-8.0,-3.0,-2.0,-6.0,-7.0,1651068762880787.0
-2.0,0.0,8.0,5.0,-3.0,-6.0,-2.0,-8.0,1651068762880787.0
-1.0,0.0,3.0,-7.0,3.0,0.0,-6.0,2.0,1651068762892824.0
0.0,-2.0,-3.0,2.0,-3.0,-3.0,-3.0,0.0,1651068762892824.0
0.0,-1.0,5.0,7.0,-6.0,-2.0,3.0,4.0,1651068762902109.0
-1.0,-2.0,-6.0,-2.0,1.0,-1.0,-6.0,-8.0,1651068762902109.0
2.0,1.0,-2.0,-12.0,7.0,4.0,-3.0,1.0,1651068762917561.0
10.0,13.0,-4.0,2.0,-5.0,-1.0,-2.0,-4.0,1651068762917561.0
-17.0,-26.0,-4.0,-9.0,-7.0,1.0,22.0,9.0,1651068762918559.0
-1.0,0.0,-1.0,9.0,5.0,1.0,8.0,2.0,1651068762918559.0
-5.0,-2.0,8.0,2.0,2.0,-1.0,-15.0,-11.0,1651068762939957.0
-20.0,-4.0,-2.0,12.0,6.0,2.0,-8.0,-7.0,1651068762939957.0
39.0,16.0,-1.0,-23.0,-18.0,-9.0,-2.0,5.0,1651068762940956.0
-28.0,-6.0,7.0,2.0,-4.0,-3.0,2.0,-5.0,1651068762940956.0
2.0,-6.0,-2.0,2.0,1.0,-1.0,2.0,2.0,1651068762952959.0
-4.0,2.0,-8.0,-7.0,6.0,4.0,6.0,2.0,1651068762952959.0
-6.0,-6.0,-5.0,-5.0,-6.0,-3.0,-4.0,-4.0,1651068762961730.0
7.0,1.0,9.0,-9.0,-9.0,-1.0,3.0,8.0,1651068762961730.0
-2.0,2.0,-4.0,9.0,4.0,0.0,-1.0,-6.0,1651068762976845.0
2.0,-5.0,7.0,5.0,-2.0,-2.0,2.0,2.0,1651068762976845.0
-4.0,7.0,-2.0,-6.0,10.0,1.0,-10.0,-6.0,1651068762978799.0
6.0,0.0,-8.0,2.0,-1.0,-2.0,1.0,0.0,1651068762978799.0
-4.0,-3.0,-8.0,-9.0,-11.0,-2.0,0.0,-2.0,1651068762999959.0
5.0,-3.0,3.0,0.0,-5.0,-3.0,2.0,1.0,1651068762999959.0
-3.0,-1.0,4.0,-5.0,-9.0,-4.0,-4.0,-1.0,1651068763000937.0
0.0,2.0,-5.0,-8.0,1.0,-2.0,0.0,-1.0,1651068763000937.0
3.0,3.0,4.0,11.0,8.0,2.0,-1.0,-1.0,1651068763013592.0
3.0,-4.0,-6.0,-18.0,-14.0,-5.0,1.0,4.0,1651068763013592.0
-6.0,2.0,3.0,7.0,-1.0,-1.0,-4.0,-6.0,1651068763022628.0
0.0,0.0,-2.0,4.0,4.0,1.0,-1.0,-2.0,1651068763022628.0
0.0,-1.0,-4.0,-2.0,2.0,0.0,-4.0,0.0,1651068763036796.0
10.0,8.0,5.0,5.0,-3.0,1.0,3.0,1.0,1651068763036796.0
-3.0,-2.0,-3.0,4.0,2.0,0.0,-2.0,-1.0,1651068763038751.0
-14.0,-17.0,-2.0,-2.0,6.0,0.0,0.0,-1.0,1651068763038751.0
-2.0,-2.0,-1.0,-9.0,-6.0,-1.0,2.0,-2.0,1651068763059941.0
5.0,3.0,4.0,1.0,-3.0,-1.0,0.0,0.0,1651068763059941.0
-7.0,-2.0,-4.0,3.0,1.0,0.0,-2.0,-2.0,1651068763060947.0
6.0,5.0,6.0,5.0,1.0,-1.0,1.0,1.0,1651068763060947.0
0.0,0.0,-3.0,-2.0,-2.0,-3.0,0.0,-2.0,1651068763073643.0
-8.0,-8.0,-4.0,1.0,0.0,-1.0,-1.0,0.0,1651068763073643.0
1.0,6.0,2.0,4.0,1.0,-1.0,-2.0,-2.0,1651068763082622.0
3.0,1.0,-5.0,-5.0,-1.0,1.0,-2.0,1.0,1651068763082622.0
-3.0,0.0,2.0,2.0,-2.0,-1.0,-1.0,-2.0,1651068763096875.0
4.0,0.0,-2.0,-1.0,0.0,0.0,0.0,2.0,1651068763096875.0
-1.0,-4.0,1.0,3.0,3.0,1.0,1.0,-2.0,1651068763098802.0
4.0,3.0,-5.0,0.0,-2.0,2.0,2.0,-1.0,1651068763098802.0
3.0,-1.0,-14.0,-3.0,0.0,0.0,1.0,1.0,1651068763119350.0
-6.0,-2.0,7.0,0.0,1.0,-1.0,1.0,-1.0,1651068763119350.0
0.0,6.0,17.0,8.0,2.0,-1.0,0.0,-1.0,1651068763121305.0
-1.0,0.0,-2.0,-4.0,-2.0,0.0,0.0,-1.0,1651068763121305.0
0.0,0.0,-3.0,-1.0,2.0,1.0,-3.0,-1.0,1651068763133642.0
-2.0,-2.0,-5.0,1.0,0.0,0.0,2.0,2.0,1651068763133642.0
-1.0,-3.0,-5.0,-2.0,1.0,-1.0,-2.0,-2.0,1651068763141813.0
5.0,3.0,1.0,2.0,-1.0,-2.0,0.0,1.0,1651068763141813.0
-2.0,-1.0,24.0,5.0,-2.0,-2.0,0.0,-1.0,1651068763157142.0
-3.0,1.0,-13.0,-5.0,-4.0,-1.0,-3.0,-4.0,1651068763157142.0
-1.0,0.0,0.0,-2.0,0.0,1.0,-1.0,-1.0,1651068763159070.0
0.0,-2.0,-1.0,2.0,2.0,1.0,-1.0,0.0,1651068763159070.0
-1.0,-1.0,-8.0,-2.0,-1.0,0.0,-1.0,-1.0,1651068763179230.0
-1.0,0.0,-5.0,-1.0,-1.0,-1.0,-1.0,-1.0,1651068763179230.0
1.0,2.0,8.0,2.0,0.0,1.0,0.0,0.0,1651068763181220.0
1.0,1.0,-2.0,0.0,1.0,0.0,1.0,0.0,1651068763181220.0
-2.0,1.0,4.0,1.0,1.0,-1.0,-1.0,1.0,1651068763193277.0
1.0,-3.0,-3.0,0.0,1.0,0.0,-1.0,0.0,1651068763193277.0
-1.0,2.0,-7.0,0.0,0.0,-1.0,0.0,-1.0,1651068763202256.0
-1.0,1.0,4.0,-1.0,-1.0,-1.0,0.0,1.0,1651068763202256.0
1.0,-2.0,-2.0,-2.0,0.0,-1.0,-1.0,0.0,1651068763217363.0
-1.0,-1.0,-1.0,-2.0,-2.0,0.0,0.0,0.0,1651068763217363.0
0.0,2.0,0.0,-1.0,0.0,-1.0,0.0,-1.0,1651068763218301.0
-1.0,-1.0,1.0,-1.0,-2.0,-3.0,-1.0,0.0,1651068763218301.0
0.0,1.0,-9.0,-1.0,1.0,1.0,-1.0,-1.0,1651068763239900.0
-2.0,0.0,13.0,1.0,-3.0,-2.0,-1.0,-1.0,1651068763239900.0
-1.0,0.0,15.0,3.0,-3.0,-3.0,-3.0,-2.0,1651068763240830.0
1.0,-1.0,-26.0,-7.0,5.0,2.0,0.0,0.0,1651068763240830.0
0.0,0.0,-19.0,-5.0,-2.0,2.0,1.0,0.0,1651068763253608.0
-1.0,0.0,21.0,6.0,0.0,1.0,1.0,0.0,1651068763253608.0
-3.0,-5.0,-11.0,-1.0,-4.0,-3.0,-4.0,-2.0,1651068763261824.0
-1.0,2.0,8.0,4.0,1.0,0.0,1.0,-2.0,1651068763261824.0
0.0,-3.0,0.0,-1.0,1.0,0.0,-2.0,0.0,1651068763276948.0
-1.0,1.0,-8.0,-3.0,1.0,1.0,2.0,1.0,1651068763276948.0
-1.0,0.0,-3.0,-4.0,-2.0,1.0,1.0,1.0,1651068763278905.0
0.0,-2.0,1.0,0.0,-1.0,0.0,-2.0,-1.0,1651068763278905.0
-1.0,0.0,0.0,-2.0,0.0,-1.0,-1.0,-2.0,1651068763299985.0
0.0,0.0,0.0,1.0,-4.0,-4.0,-3.0,-2.0,1651068763299985.0
1.0,0.0,-3.0,0.0,2.0,0.0,-1.0,-1.0,1651068763300972.0
0.0,-1.0,-1.0,-1.0,-1.0,-2.0,-2.0,0.0,1651068763300972.0
-1.0,1.0,2.0,-3.0,0.0,-2.0,2.0,0.0,1651068763322156.0
-2.0,1.0,10.0,4.0,1.0,1.0,1.0,-2.0,1651068763322156.0
0.0,-2.0,-6.0,-2.0,-1.0,-1.0,0.0,0.0,1651068763323155.0
-1.0,1.0,4.0,0.0,-2.0,-1.0,-3.0,-1.0,1651068763323155.0
-2.0,-2.0,-1.0,-1.0,-1.0,-1.0,0.0,-1.0,1651068763337298.0
1.0,-3.0,-7.0,-4.0,-1.0,-3.0,-3.0,0.0,1651068763337298.0
-1.0,0.0,-3.0,0.0,0.0,1.0,-2.0,0.0,1651068763338229.0
0.0,1.0,4.0,1.0,-2.0,1.0,-1.0,0.0,1651068763338229.0
-1.0,-2.0,15.0,4.0,-1.0,-1.0,-1.0,0.0,1651068763359956.0
1.0,-2.0,-17.0,-6.0,0.0,0.0,-1.0,0.0,1651068763359956.0
0.0,0.0,-2.0,-3.0,0.0,-1.0,0.0,-1.0,1651068763360957.0
0.0,1.0,1.0,0.0,-2.0,-1.0,1.0,-1.0,1651068763360957.0
-1.0,0.0,3.0,1.0,0.0,0.0,0.0,0.0,1651068763381879.0
-2.0,-3.0,-5.0,1.0,0.0,1.0,1.0,-1.0,1651068763381879.0
0.0,-1.0,4.0,2.0,-1.0,-2.0,-1.0,0.0,1651068763383809.0
-1.0,-2.0,-5.0,-2.0,-1.0,-3.0,0.0,-1.0,1651068763383809.0
0.0,2.0,1.0,1.0,-2.0,-1.0,0.0,-1.0,1651068763397416.0
0.0,2.0,4.0,-1.0,0.0,0.0,-2.0,1.0,1651068763397416.0
-2.0,-3.0,-6.0,-2.0,1.0,0.0,-1.0,0.0,1651068763398351.0
1.0,-1.0,3.0,-1.0,1.0,1.0,0.0,-1.0,1651068763398351.0
-1.0,-3.0,-8.0,-2.0,2.0,1.0,1.0,-1.0,1651068763419362.0
-1.0,4.0,18.0,4.0,0.0,-1.0,0.0,-2.0,1651068763419362.0
-1.0,-3.0,-5.0,-2.0,0.0,0.0,-3.0,0.0,1651068763421290.0
1.0,0.0,1.0,0.0,-3.0,-1.0,2.0,1.0,1651068763421290.0
-1.0,-1.0,1.0,-2.0,-2.0,0.0,-1.0,0.0,1651068763442537.0
0.0,-1.0,-3.0,-1.0,-2.0,-1.0,1.0,1.0,1651068763442537.0
-1.0,0.0,-1.0,-1.0,1.0,-1.0,1.0,-2.0,1651068763443501.0
-1.0,-2.0,-2.0,0.0,0.0,-1.0,-2.0,0.0,1651068763443501.0
0.0,-3.0,-2.0,-1.0,-1.0,0.0,-1.0,0.0,1651068763456553.0
-1.0,-2.0,-3.0,-1.0,0.0,1.0,0.0,0.0,1651068763456553.0
2.0,-1.0,-4.0,-1.0,-4.0,-2.0,-2.0,0.0,1651068763463617.0
-1.0,1.0,12.0,2.0,-2.0,-2.0,-1.0,-3.0,1651068763463617.0
0.0,2.0,-24.0,-8.0,-1.0,0.0,1.0,0.0,1651068763479461.0
-1.0,-1.0,2.0,5.0,-1.0,0.0,0.0,-1.0,1651068763479461.0
-1.0,-2.0,-6.0,-1.0,2.0,0.0,1.0,0.0,1651068763481433.0
-2.0,-1.0,-1.0,-1.0,-1.0,1.0,2.0,1.0,1651068763481433.0
-1.0,-1.0,6.0,2.0,-2.0,0.0,-2.0,-1.0,1651068763502254.0
-2.0,-1.0,-2.0,-1.0,-1.0,-2.0,-2.0,-2.0,1651068763502254.0
0.0,1.0,-1.0,0.0,-1.0,0.0,0.0,2.0,1651068763503271.0
-1.0,-3.0,-6.0,-3.0,1.0,-1.0,-1.0,-1.0,1651068763503271.0
0.0,-1.0,6.0,1.0,1.0,1.0,-2.0,0.0,1651068763516024.0
-1.0,-1.0,-8.0,-3.0,-1.0,0.0,-1.0,1.0,1651068763516024.0
-2.0,-1.0,5.0,2.0,-1.0,-2.0,-1.0,-2.0,1651068763523526.0
0.0,0.0,-1.0,-1.0,0.0,2.0,3.0,0.0,1651068763523526.0
0.0,-1.0,-1.0,-2.0,-1.0,-2.0,0.0,-1.0,1651068763547534.0
0.0,-1.0,0.0,-4.0,-2.0,-1.0,1.0,-2.0,1651068763547534.0
-2.0,1.0,0.0,-7.0,-3.0,-3.0,0.0,-1.0,1651068763548508.0
1.0,-1.0,-2.0,4.0,2.0,0.0,-3.0,-1.0,1651068763548508.0
-1.0,-2.0,-3.0,0.0,0.0,-1.0,-1.0,-2.0,1651068763562490.0
1.0,-2.0,-2.0,-4.0,1.0,0.0,0.0,0.0,1651068763562490.0
1.0,-1.0,0.0,0.0,1.0,0.0,-1.0,0.0,1651068763563461.0
0.0,0.0,-5.0,-6.0,-5.0,-2.0,-1.0,-1.0,1651068763563461.0
2.0,0.0,5.0,1.0,-2.0,0.0,0.0,-2.0,1651068763576427.0
-3.0,-2.0,-5.0,1.0,-1.0,-2.0,0.0,0.0,1651068763576427.0
-2.0,-2.0,-2.0,-3.0,-2.0,1.0,1.0,0.0,1651068763583493.0
-1.0,-2.0,-1.0,-1.0,0.0,-1.0,-1.0,1.0,1651068763583493.0
-2.0,-1.0,0.0,0.0,2.0,0.0,-1.0,-2.0,1651068763599450.0
2.0,0.0,1.0,-1.0,-2.0,-1.0,0.0,-1.0,1651068763599450.0
1.0,0.0,2.0,3.0,1.0,0.0,0.0,-2.0,1651068763601472.0
-2.0,0.0,2.0,1.0,0.0,-1.0,-1.0,1.0,1651068763601472.0
-1.0,0.0,-1.0,0.0,-1.0,1.0,0.0,-1.0,1651068763621414.0
0.0,-2.0,-2.0,-1.0,0.0,0.0,-3.0,-1.0,1651068763621414.0
1.0,0.0,1.0,-1.0,0.0,1.0,0.0,-1.0,1651068763628396.0
0.0,-1.0,0.0,-1.0,-2.0,0.0,0.0,-1.0,1651068763628396.0
-2.0,-3.0,1.0,1.0,-1.0,0.0,1.0,0.0,1651068763636376.0
-3.0,-2.0,-6.0,-1.0,2.0,-2.0,-1.0,0.0,1651068763636376.0
0.0,-1.0,1.0,1.0,0.0,-1.0,-1.0,-1.0,1651068763643356.0
0.0,-1.0,-1.0,-2.0,-1.0,0.0,-2.0,-2.0,1651068763643356.0
0.0,1.0,1.0,0.0,-1.0,0.0,0.0,1.0,1651068763659572.0
-2.0,-1.0,2.0,-1.0,-2.0,0.0,-1.0,0.0,1651068763659572.0
-2.0,0.0,1.0,2.0,0.0,-1.0,-1.0,-2.0,1651068763661543.0
-1.0,-1.0,-4.0,-2.0,0.0,-1.0,-1.0,1.0,1651068763661543.0
0.0,-1.0,1.0,1.0,1.0,-2.0,2.0,0.0,1651068763682520.0
1.0,1.0,-1.0,-2.0,-3.0,0.0,-2.0,-2.0,1651068763682520.0
-2.0,-2.0,-2.0,-2.0,-2.0,0.0,-1.0,1.0,1651068763683485.0
-1.0,-1.0,1.0,0.0,0.0,0.0,-1.0,-1.0,1651068763683485.0
-2.0,-2.0,0.0,1.0,2.0,2.0,1.0,1.0,1651068763696601.0
0.0,0.0,-3.0,-3.0,-1.0,-1.0,0.0,0.0,1651068763696601.0
0.0,1.0,2.0,1.0,-1.0,-3.0,-1.0,-1.0,1651068763703582.0
-1.0,0.0,-1.0,0.0,0.0,-3.0,-3.0,-2.0,1651068763703582.0
0.0,1.0,2.0,2.0,0.0,1.0,-1.0,0.0,1651068763719423.0
0.0,-2.0,-2.0,-2.0,-1.0,0.0,1.0,-1.0,1651068763719423.0
0.0,0.0,0.0,0.0,-1.0,1.0,-2.0,0.0,1651068763721377.0
0.0,1.0,-2.0,-2.0,1.0,-1.0,0.0,0.0,1651068763721377.0
1.0,0.0,-1.0,-4.0,-3.0,-4.0,-2.0,0.0,1651068763741620.0
1.0,0.0,2.0,-1.0,-1.0,0.0,0.0,0.0,1651068763741620.0
0.0,-3.0,-7.0,-1.0,1.0,-2.0,-1.0,-2.0,1651068763743575.0
-1.0,0.0,2.0,0.0,0.0,0.0,0.0,-2.0,1651068763743575.0
-1.0,0.0,-2.0,-1.0,-2.0,0.0,-2.0,-2.0,1651068763756626.0
-2.0,0.0,2.0,2.0,1.0,1.0,-1.0,0.0,1651068763756626.0
0.0,0.0,-3.0,-1.0,0.0,0.0,2.0,-1.0,1651068763763602.0
-1.0,-2.0,0.0,-1.0,0.0,-2.0,-1.0,0.0,1651068763763602.0
0.0,0.0,0.0,-2.0,-2.0,-2.0,-4.0,-2.0,1651068763779812.0
-1.0,-3.0,-3.0,1.0,1.0,0.0,0.0,-1.0,1651068763779812.0
-2.0,-1.0,1.0,-2.0,-1.0,-1.0,0.0,0.0,1651068763780743.0
-1.0,-1.0,0.0,0.0,-3.0,0.0,2.0,0.0,1651068763780743.0
1.0,0.0,-1.0,-1.0,-1.0,0.0,-1.0,-1.0,1651068763801921.0
-1.0,1.0,0.0,-1.0,0.0,-2.0,-2.0,-1.0,1651068763801921.0
0.0,1.0,2.0,-1.0,0.0,1.0,3.0,0.0,1651068763803875.0
0.0,-1.0,-4.0,0.0,0.0,-1.0,-2.0,0.0,1651068763803875.0
-1.0,-3.0,2.0,1.0,0.0,-3.0,1.0,-1.0,1651068763815884.0
-2.0,0.0,2.0,1.0,1.0,0.0,2.0,-2.0,1651068763815884.0
-1.0,-1.0,-4.0,0.0,0.0,0.0,0.0,-2.0,1651068763824810.0
-1.0,1.0,0.0,-1.0,-2.0,1.0,-1.0,1.0,1651068763824810.0
-1.0,0.0,-1.0,-1.0,0.0,-2.0,-1.0,0.0,1651068763839354.0
1.0,0.0,1.0,-1.0,-1.0,0.0,-1.0,0.0,1651068763839354.0
0.0,-1.0,0.0,0.0,-1.0,-2.0,0.0,0.0,1651068763841378.0
2.0,0.0,-1.0,-1.0,-1.0,3.0,-1.0,0.0,1651068763841378.0
0.0,-1.0,-2.0,-1.0,-3.0,-1.0,-1.0,-1.0,1651068763861721.0
1.0,0.0,0.0,-2.0,0.0,0.0,-1.0,1.0,1651068763861721.0
-1.0,-1.0,1.0,0.0,-4.0,-2.0,0.0,-1.0,1651068763863719.0
-2.0,-1.0,-1.0,-1.0,-2.0,-2.0,2.0,-1.0,1651068763863719.0
-1.0,1.0,-2.0,-1.0,-1.0,0.0,-1.0,-1.0,1651068763876115.0
1.0,-3.0,-1.0,-2.0,-1.0,-1.0,1.0,-1.0,1651068763876115.0
1.0,1.0,3.0,-1.0,2.0,3.0,0.0,-1.0,1651068763884296.0
-1.0,1.0,0.0,-1.0,-2.0,0.0,1.0,0.0,1651068763884296.0
-1.0,-1.0,-4.0,1.0,1.0,1.0,0.0,0.0,1651068763899049.0
-1.0,-1.0,-4.0,0.0,-1.0,-1.0,-1.0,0.0,1651068763899049.0
0.0,2.0,1.0,0.0,1.0,-1.0,-1.0,-1.0,1651068763906013.0
1.0,0.0,0.0,-2.0,-3.0,-3.0,-2.0,-2.0,1651068763906013.0
0.0,2.0,2.0,-1.0,-2.0,-2.0,-2.0,-1.0,1651068763921680.0
1.0,-1.0,-1.0,0.0,2.0,2.0,0.0,0.0,1651068763921680.0
-2.0,-2.0,1.0,1.0,-1.0,-1.0,0.0,0.0,1651068763923685.0
1.0,-3.0,-3.0,-2.0,0.0,-1.0,-3.0,0.0,1651068763923685.0
1.0,-1.0,2.0,1.0,-2.0,-1.0,1.0,1.0,1651068763935762.0
-2.0,0.0,-3.0,-1.0,0.0,0.0,0.0,1.0,1651068763935762.0
-1.0,-1.0,0.0,0.0,0.0,1.0,-1.0,0.0,1651068763944462.0
-1.0,0.0,1.0,0.0,3.0,0.0,2.0,-1.0,1651068763944462.0
-1.0,-1.0,0.0,0.0,1.0,-1.0,1.0,-2.0,1651068763959587.0
0.0,-1.0,-2.0,0.0,-3.0,-3.0,0.0,0.0,1651068763959587.0
2.0,-1.0,-3.0,-1.0,-1.0,-1.0,-1.0,0.0,1651068763961558.0
0.0,1.0,0.0,2.0,-1.0,-1.0,0.0,0.0,1651068763961558.0
-2.0,-4.0,-4.0,-3.0,1.0,-1.0,-2.0,-1.0,1651068763981537.0
-3.0,0.0,-1.0,1.0,0.0,-2.0,-2.0,-2.0,1651068763981537.0
-2.0,-1.0,-2.0,-1.0,-1.0,-1.0,-1.0,-1.0,1651068763988608.0
0.0,-1.0,-1.0,-1.0,1.0,0.0,2.0,0.0,1651068763988608.0
1.0,0.0,1.0,0.0,-3.0,0.0,-1.0,1.0,1651068763996020.0
-1.0,-2.0,0.0,0.0,-1.0,0.0,-2.0,1.0,1651068763996020.0
-2.0,1.0,-3.0,-1.0,-3.0,-2.0,-4.0,-1.0,1651068764004342.0
0.0,-1.0,-2.0,0.0,0.0,2.0,1.0,-1.0,1651068764004342.0
-1.0,-1.0,0.0,-3.0,-1.0,0.0,0.0,-1.0,1651068764019704.0
1.0,-1.0,-3.0,-1.0,-4.0,-2.0,0.0,-1.0,1651068764019704.0
1.0,1.0,-1.0,-1.0,1.0,-2.0,-1.0,0.0,1651068764020661.0
0.0,-1.0,3.0,2.0,1.0,1.0,0.0,-1.0,1651068764020661.0
-1.0,1.0,1.0,-1.0,0.0,1.0,-2.0,0.0,1651068764041777.0
0.0,0.0,2.0,-1.0,-1.0,1.0,1.0,-1.0,1651068764041777.0
-2.0,-1.0,-2.0,-1.0,0.0,-1.0,-1.0,-2.0,1651068764043743.0
-1.0,0.0,-1.0,1.0,-2.0,-3.0,-2.0,-3.0,1651068764043743.0
-1.0,0.0,-2.0,1.0,0.0,-3.0,1.0,0.0,1651068764055710.0
0.0,-1.0,1.0,0.0,0.0,0.0,-1.0,0.0,1651068764055710.0
-1.0,0.0,0.0,-1.0,-2.0,0.0,1.0,0.0,1651068764064708.0
-1.0,-1.0,0.0,-2.0,-2.0,-3.0,-2.0,-1.0,1651068764064708.0
0.0,-1.0,-2.0,-1.0,2.0,-1.0,-2.0,-1.0,1651068764078453.0
-1.0,2.0,2.0,0.0,1.0,1.0,0.0,0.0,1651068764078453.0
0.0,-1.0,0.0,0.0,0.0,2.0,3.0,0.0,1651068764087464.0
1.0,0.0,-3.0,-1.0,1.0,0.0,0.0,-1.0,1651068764087464.0
0.0,2.0,3.0,0.0,-1.0,-2.0,-2.0,1.0,1651068764109472.0
1.0,1.0,0.0,-1.0,0.0,-2.0,2.0,-1.0,1651068764109472.0
0.0,-1.0,-3.0,-1.0,1.0,0.0,-1.0,-1.0,1651068764111433.0
-3.0,-3.0,-2.0,0.0,0.0,1.0,0.0,-2.0,1651068764111433.0
0.0,-1.0,0.0,-2.0,-2.0,1.0,-1.0,-1.0,1651068764115417.0
0.0,-3.0,-1.0,1.0,0.0,-3.0,-3.0,-3.0,1651068764115417.0
0.0,1.0,3.0,1.0,-1.0,-2.0,0.0,1.0,1651068764124368.0
-2.0,0.0,1.0,-1.0,-1.0,0.0,1.0,0.0,1651068764124368.0
-2.0,-2.0,-3.0,0.0,-1.0,0.0,1.0,0.0,1651068764139792.0
-2.0,-2.0,-2.0,-2.0,-2.0,0.0,-1.0,-2.0,1651068764139792.0
-1.0,-1.0,-1.0,0.0,0.0,2.0,-1.0,0.0,1651068764140791.0
-1.0,-1.0,0.0,-1.0,-4.0,-2.0,1.0,1.0,1651068764140791.0
1.0,-1.0,0.0,-1.0,-3.0,-2.0,-2.0,-1.0,1651068764161965.0
-1.0,1.0,0.0,-3.0,0.0,0.0,0.0,0.0,1651068764161965.0
1.0,-1.0,-1.0,-1.0,-4.0,-2.0,-1.0,-1.0,1651068764163952.0
-1.0,0.0,-4.0,0.0,4.0,3.0,1.0,0.0,1651068764163952.0
0.0,-1.0,1.0,-4.0,0.0,1.0,0.0,0.0,1651068764176121.0
1.0,0.0,1.0,2.0,0.0,1.0,0.0,1.0,1651068764176121.0
-3.0,-1.0,-2.0,-1.0,-1.0,-3.0,-4.0,-1.0,1651068764185083.0
2.0,1.0,2.0,-2.0,-3.0,-2.0,-2.0,-1.0,1651068764185083.0
1.0,-1.0,-1.0,2.0,-3.0,-1.0,1.0,-1.0,1651068764200032.0
1.0,0.0,-1.0,-1.0,0.0,1.0,-1.0,-1.0,1651068764200032.0
0.0,-2.0,-1.0,2.0,3.0,2.0,2.0,0.0,1651068764201028.0
2.0,1.0,1.0,-5.0,-4.0,-1.0,-2.0,1.0,1651068764201028.0
-1.0,-5.0,-5.0,5.0,0.0,-2.0,-1.0,-1.0,1651068764222458.0
-2.0,0.0,0.0,-1.0,-2.0,-2.0,0.0,1.0,1651068764222458.0
2.0,1.0,2.0,0.0,-1.0,2.0,0.0,3.0,1651068764223465.0
0.0,1.0,2.0,-2.0,-1.0,-1.0,-1.0,-1.0,1651068764223465.0
0.0,-1.0,-4.0,1.0,2.0,-1.0,0.0,0.0,1651068764244578.0
0.0,-1.0,-3.0,-13.0,-4.0,1.0,-1.0,-3.0,1651068764244578.0
-1.0,-2.0,0.0,7.0,4.0,-1.0,-1.0,-3.0,1651068764246506.0
1.0,0.0,2.0,5.0,8.0,7.0,0.0,1.0,1651068764246506.0
0.0,1.0,2.0,-3.0,-3.0,-1.0,1.0,1.0,1651068764259537.0
-2.0,-1.0,-3.0,-1.0,-2.0,-1.0,0.0,-1.0,1651068764259537.0
-2.0,0.0,-3.0,-9.0,-2.0,0.0,0.0,-2.0,1651068764261466.0
-1.0,-4.0,-6.0,-1.0,-2.0,-2.0,0.0,-1.0,1651068764261466.0
0.0,0.0,-1.0,-2.0,-3.0,-3.0,1.0,-3.0,1651068764281577.0
-1.0,1.0,1.0,4.0,1.0,-2.0,-1.0,0.0,1651068764281577.0
-1.0,-2.0,-3.0,-4.0,-2.0,-4.0,-1.0,0.0,1651068764283574.0
-2.0,-1.0,-2.0,-2.0,-7.0,-2.0,-1.0,-1.0,1651068764283574.0
0.0,1.0,2.0,2.0,5.0,3.0,-4.0,-3.0,1651068764304792.0
1.0,-1.0,-1.0,0.0,-5.0,-1.0,8.0,8.0,1651068764304792.0
0.0,1.0,-4.0,-1.0,2.0,-2.0,-1.0,-2.0,1651068764305803.0
0.0,1.0,4.0,3.0,2.0,2.0,-2.0,0.0,1651068764305803.0
0.0,0.0,-3.0,-1.0,1.0,2.0,-2.0,1.0,1651068764319909.0
-1.0,-1.0,4.0,2.0,-1.0,-3.0,0.0,-1.0,1651068764319909.0
-1.0,0.0,0.0,4.0,3.0,0.0,0.0,-1.0,1651068764320909.0
0.0,-1.0,1.0,-2.0,0.0,-1.0,2.0,0.0,1651068764320909.0
-1.0,0.0,3.0,1.0,0.0,1.0,3.0,0.0,1651068764349321.0
-3.0,1.0,2.0,3.0,4.0,1.0,-5.0,-2.0,1651068764349321.0
0.0,-3.0,-7.0,-8.0,-7.0,-3.0,2.0,1.0,1651068764351285.0
0.0,0.0,1.0,4.0,4.0,3.0,-1.0,0.0,1651068764351285.0
0.0,2.0,1.0,-2.0,-3.0,-2.0,0.0,0.0,1651068764364316.0
1.0,1.0,5.0,7.0,4.0,3.0,0.0,-1.0,1651068764364316.0
0.0,-3.0,-6.0,-6.0,-5.0,-2.0,-1.0,-2.0,1651068764366245.0
-1.0,1.0,-1.0,-1.0,-1.0,-1.0,-1.0,-1.0,1651068764366245.0
0.0,-2.0,-3.0,-4.0,-4.0,-6.0,-3.0,1.0,1651068764380013.0
0.0,1.0,3.0,0.0,2.0,0.0,0.0,-1.0,1651068764380013.0
-1.0,0.0,0.0,3.0,-2.0,0.0,-2.0,1.0,1651068764381014.0
-2.0,-2.0,-3.0,-9.0,-2.0,-1.0,2.0,0.0,1651068764381014.0
-2.0,0.0,-2.0,-2.0,3.0,0.0,-3.0,-1.0,1651068764402381.0
0.0,1.0,-1.0,6.0,4.0,-1.0,-2.0,-1.0,1651068764402381.0
-1.0,-2.0,-3.0,-5.0,-14.0,-4.0,-3.0,-2.0,1651068764403380.0
-2.0,-1.0,-2.0,-5.0,-3.0,-5.0,-7.0,-7.0,1651068764403380.0
2.0,-1.0,0.0,0.0,-5.0,-2.0,6.0,4.0,1651068764424437.0
-3.0,-1.0,-1.0,4.0,4.0,3.0,-1.0,-2.0,1651068764424437.0
1.0,2.0,5.0,6.0,11.0,6.0,0.0,-1.0,1651068764426455.0
-1.0,-3.0,-5.0,-9.0,-8.0,-5.0,-4.0,-1.0,1651068764426455.0
-2.0,-1.0,-2.0,-5.0,-3.0,-3.0,-6.0,-3.0,1651068764439403.0
2.0,2.0,2.0,11.0,6.0,2.0,4.0,2.0,1651068764439403.0
-1.0,-2.0,-7.0,-4.0,-3.0,-1.0,1.0,1.0,1651068764445503.0
-2.0,-3.0,-6.0,-2.0,-2.0,-1.0,-3.0,-3.0,1651068764445503.0
-1.0,-1.0,-1.0,2.0,5.0,1.0,-3.0,-2.0,1651068764461695.0
-1.0,-1.0,0.0,-9.0,-9.0,4.0,2.0,0.0,1651068764461695.0
2.0,3.0,5.0,7.0,3.0,-1.0,1.0,1.0,1651068764463719.0
0.0,-1.0,2.0,-3.0,5.0,1.0,6.0,2.0,1651068764463719.0
-1.0,-1.0,0.0,5.0,-6.0,-3.0,2.0,0.0,1651068764484319.0
-2.0,0.0,-1.0,2.0,0.0,-2.0,-3.0,-3.0,1651068764484319.0
0.0,1.0,-4.0,-26.0,1.0,2.0,-1.0,3.0,1651068764486329.0
1.0,-1.0,-4.0,-7.0,-11.0,-10.0,-12.0,1.0,1651068764486329.0
0.0,0.0,2.0,5.0,5.0,1.0,-2.0,1.0,1651068764499296.0
1.0,1.0,-2.0,10.0,5.0,1.0,0.0,-2.0,1651068764499296.0
-7.0,-6.0,-6.0,-4.0,-13.0,-10.0,-8.0,-12.0,1651068764505280.0
0.0,3.0,6.0,5.0,5.0,-1.0,1.0,-1.0,1651068764505280.0
1.0,-3.0,-5.0,-4.0,0.0,7.0,3.0,0.0,1651068764522270.0
-3.0,-3.0,0.0,5.0,-4.0,-6.0,-8.0,-1.0,1651068764522270.0
9.0,4.0,4.0,-3.0,10.0,6.0,9.0,15.0,1651068764523230.0
-3.0,-1.0,4.0,41.0,-2.0,1.0,3.0,-6.0,1651068764523230.0
2.0,0.0,-6.0,-30.0,-3.0,3.0,5.0,5.0,1651068764544256.0
-7.0,-4.0,-9.0,-20.0,-9.0,0.0,-5.0,-11.0,1651068764544256.0
8.0,5.0,4.0,-1.0,17.0,9.0,3.0,15.0,1651068764546401.0
-8.0,-7.0,0.0,26.0,-2.0,-9.0,-12.0,-13.0,1651068764546401.0
-3.0,-1.0,0.0,-3.0,-5.0,-5.0,-3.0,-2.0,1651068764559308.0
12.0,9.0,4.0,-15.0,-9.0,-2.0,4.0,21.0,1651068764559308.0
-14.0,-5.0,-1.0,-2.0,-10.0,-13.0,-16.0,-34.0,1651068764565270.0
8.0,6.0,4.0,3.0,6.0,8.0,12.0,21.0,1651068764565270.0
-9.0,-1.0,-12.0,-26.0,-15.0,-8.0,-11.0,-21.0,1651068764582226.0
2.0,0.0,12.0,6.0,3.0,-5.0,0.0,7.0,1651068764582226.0
-4.0,-4.0,-18.0,-2.0,-20.0,-20.0,-4.0,-8.0,1651068764583156.0
4.0,10.0,22.0,5.0,20.0,37.0,10.0,6.0,1651068764583156.0
3.0,2.0,-3.0,10.0,24.0,16.0,5.0,2.0,1651068764604218.0
-1.0,1.0,16.0,24.0,-1.0,0.0,4.0,0.0,1651068764604218.0
16.0,13.0,5.0,9.0,17.0,16.0,29.0,38.0,1651068764606347.0
-15.0,-16.0,-11.0,-29.0,-32.0,-26.0,-12.0,-17.0,1651068764606347.0
17.0,7.0,4.0,-7.0,-8.0,-3.0,13.0,29.0,1651068764619209.0
-12.0,-10.0,-16.0,1.0,-2.0,1.0,-6.0,-25.0,1651068764619209.0
4.0,3.0,13.0,38.0,14.0,15.0,8.0,12.0,1651068764626193.0
7.0,2.0,-13.0,-42.0,6.0,5.0,7.0,12.0,1651068764626193.0
-12.0,-6.0,6.0,-1.0,-3.0,-5.0,-7.0,-16.0,1651068764642269.0
19.0,9.0,0.0,7.0,-1.0,-5.0,6.0,34.0,1651068764642269.0
-15.0,-9.0,1.0,-34.0,-23.0,-16.0,-17.0,-26.0,1651068764643267.0
3.0,4.0,-11.0,27.0,22.0,14.0,5.0,5.0,1651068764643267.0
-3.0,-5.0,-10.0,-12.0,7.0,-5.0,-6.0,-6.0,1651068764664428.0
-6.0,-2.0,17.0,11.0,-5.0,2.0,-1.0,-9.0,1651068764664428.0
10.0,-6.0,-6.0,5.0,6.0,14.0,6.0,29.0,1651068764666384.0
-17.0,-8.0,-2.0,-11.0,-13.0,-18.0,-22.0,-47.0,1651068764666384.0
1.0,1.0,3.0,20.0,-22.0,-10.0,4.0,6.0,1651068764678505.0
-9.0,-2.0,-6.0,-30.0,7.0,-6.0,-7.0,-14.0,1651068764678505.0
10.0,5.0,13.0,5.0,7.0,15.0,10.0,17.0,1651068764685390.0
-4.0,-1.0,14.0,22.0,2.0,-5.0,1.0,-8.0,1651068764685390.0
-8.0,-10.0,-19.0,0.0,-3.0,4.0,-2.0,0.0,1651068764702466.0
4.0,1.0,-2.0,7.0,8.0,0.0,6.0,1.0,1651068764702466.0
-4.0,3.0,-5.0,10.0,-11.0,-8.0,-9.0,-16.0,1651068764703466.0
16.0,5.0,-6.0,-20.0,6.0,7.0,7.0,33.0,1651068764703466.0
-6.0,-3.0,9.0,36.0,-6.0,-8.0,-12.0,-22.0,1651068764724408.0
3.0,1.0,-1.0,-12.0,-8.0,0.0,1.0,4.0,1651068764724408.0
-2.0,-6.0,-25.0,-6.0,8.0,-6.0,-4.0,-3.0,1651068764726403.0
-6.0,-3.0,3.0,-12.0,-15.0,-15.0,-8.0,-11.0,1651068764726403.0
24.0,15.0,16.0,1.0,18.0,20.0,20.0,50.0,1651068764738438.0
-13.0,-11.0,-10.0,20.0,-19.0,-9.0,-13.0,-25.0,1651068764738438.0
-5.0,2.0,-6.0,-30.0,19.0,2.0,-7.0,-20.0,1651068764747375.0
6.0,7.0,7.0,-13.0,-37.0,-16.0,6.0,15.0,1651068764747375.0
-4.0,2.0,7.0,26.0,52.0,31.0,7.0,-3.0,1651068764762488.0
2.0,-1.0,-4.0,0.0,2.0,-1.0,-5.0,3.0,1651068764762488.0
-12.0,-6.0,3.0,11.0,-11.0,-7.0,-8.0,-24.0,1651068764763488.0
6.0,-1.0,-7.0,5.0,3.0,3.0,4.0,18.0,1651068764763488.0
-8.0,-2.0,-3.0,-23.0,-12.0,-12.0,-15.0,-21.0,1651068764784571.0
3.0,2.0,-6.0,-14.0,0.0,3.0,11.0,6.0,1651068764784571.0
-3.0,-3.0,14.0,36.0,0.0,-1.0,-8.0,-8.0,1651068764786576.0
-3.0,-2.0,8.0,1.0,12.0,11.0,6.0,0.0,1651068764786576.0
-4.0,-10.0,-44.0,-20.0,5.0,3.0,0.0,-10.0,1651068764798614.0
6.0,7.0,27.0,-23.0,-2.0,4.0,5.0,11.0,1651068764798614.0
-2.0,-1.0,-1.0,14.0,-6.0,-6.0,-2.0,2.0,1651068764806844.0
-4.0,-2.0,24.0,3.0,2.0,-3.0,-1.0,-7.0,1651068764806844.0
-2.0,-2.0,-9.0,-5.0,-23.0,-19.0,-4.0,-6.0,1651068764821684.0
4.0,1.0,-2.0,9.0,39.0,34.0,4.0,11.0,1651068764821684.0
2.0,1.0,1.0,-10.0,-6.0,-2.0,5.0,5.0,1651068764828703.0
-6.0,-1.0,-10.0,8.0,7.0,8.0,-1.0,-14.0,1651068764828703.0
2.0,-2.0,-2.0,-54.0,-30.0,-15.0,-1.0,10.0,1651068764851561.0
-4.0,-1.0,9.0,-2.0,-12.0,-15.0,0.0,-1.0,1651068764851561.0
1.0,2.0,5.0,16.0,2.0,13.0,6.0,4.0,1651068764858474.0
-5.0,-6.0,-13.0,15.0,3.0,-1.0,0.0,-8.0,1651068764858474.0
6.0,4.0,7.0,-2.0,-7.0,-1.0,4.0,8.0,1651068764859484.0
-3.0,-2.0,-13.0,-8.0,-5.0,-1.0,1.0,-2.0,1651068764859484.0
-1.0,0.0,9.0,-7.0,-4.0,-8.0,-8.0,-2.0,1651068764867450.0
3.0,-5.0,-23.0,-12.0,-5.0,-1.0,3.0,7.0,1651068764867450.0
4.0,4.0,20.0,10.0,8.0,9.0,3.0,2.0,1651068764882118.0
-2.0,0.0,-11.0,1.0,-10.0,-10.0,-5.0,-10.0,1651068764882118.0
-2.0,-1.0,-10.0,-11.0,3.0,3.0,4.0,2.0,1651068764883084.0
5.0,0.0,-4.0,7.0,5.0,0.0,2.0,9.0,1651068764883084.0
-1.0,0.0,12.0,22.0,-3.0,-7.0,-1.0,3.0,1651068764904175.0
3.0,4.0,-9.0,-3.0,0.0,7.0,1.0,-8.0,1651068764904175.0
1.0,0.0,-7.0,-9.0,-4.0,0.0,-2.0,-3.0,1651068764906225.0
0.0,4.0,11.0,-19.0,-11.0,-7.0,0.0,0.0,1651068764906225.0
-6.0,-5.0,14.0,25.0,1.0,3.0,-6.0,-14.0,1651068764918171.0
0.0,-2.0,-15.0,2.0,-5.0,-11.0,-3.0,1.0,1651068764918171.0
7.0,4.0,15.0,2.0,13.0,11.0,4.0,16.0,1651068764933138.0
-5.0,-2.0,-10.0,-4.0,-9.0,-6.0,-5.0,-17.0,1651068764933138.0
1.0,9.0,22.0,43.0,26.0,16.0,5.0,3.0,1651068764942113.0
0.0,-8.0,-20.0,-38.0,-13.0,1.0,-3.0,4.0,1651068764942113.0
-3.0,-1.0,2.0,15.0,-1.0,-8.0,1.0,1.0,1651068764944041.0
2.0,-5.0,-13.0,-24.0,-3.0,1.0,-4.0,9.0,1651068764944041.0
1.0,-5.0,-20.0,-10.0,9.0,0.0,1.0,-6.0,1651068764964381.0
-5.0,1.0,27.0,11.0,2.0,1.0,0.0,-3.0,1651068764964381.0
-3.0,-2.0,-17.0,-7.0,-8.0,-5.0,-2.0,-7.0,1651068764966346.0
1.0,-1.0,2.0,6.0,9.0,1.0,2.0,3.0,1651068764966346.0
3.0,2.0,8.0,11.0,-11.0,-3.0,-3.0,1.0,1651068764978352.0
-4.0,-7.0,-5.0,2.0,1.0,-7.0,-6.0,-4.0,1651068764978352.0
0.0,1.0,4.0,-7.0,-12.0,-5.0,0.0,0.0,1651068764987271.0
-2.0,-1.0,-7.0,-16.0,-2.0,-3.0,-4.0,-4.0,1651068764987271.0
0.0,-1.0,0.0,19.0,-6.0,-4.0,-1.0,-2.0,1651068765002221.0
1.0,0.0,-8.0,-31.0,6.0,3.0,4.0,7.0,1651068765002221.0
-6.0,-1.0,5.0,-7.0,-7.0,-4.0,4.0,-5.0,1651068765003220.0
1.0,2.0,2.0,15.0,1.0,1.0,3.0,6.0,1651068765003220.0
-2.0,-4.0,-10.0,-5.0,0.0,-6.0,-1.0,-4.0,1651068765024230.0
-1.0,2.0,2.0,20.0,7.0,5.0,0.0,-7.0,1651068765024230.0
2.0,-1.0,-7.0,-7.0,10.0,6.0,1.0,4.0,1651068765026282.0
-1.0,1.0,10.0,15.0,7.0,9.0,-4.0,0.0,1651068765026282.0
2.0,5.0,5.0,-34.0,-8.0,-4.0,3.0,5.0,1651068765038186.0
-2.0,-4.0,-10.0,25.0,-3.0,0.0,-1.0,-3.0,1651068765038186.0
-4.0,-4.0,-12.0,-19.0,-9.0,-3.0,-4.0,-5.0,1651068765047266.0
13.0,8.0,25.0,7.0,7.0,4.0,10.0,19.0,1651068765047266.0
-14.0,-10.0,-35.0,-7.0,-17.0,-10.0,-13.0,-23.0,1651068765062482.0
-1.0,0.0,14.0,19.0,21.0,3.0,0.0,2.0,1651068765062482.0
4.0,1.0,4.0,-4.0,-3.0,-1.0,1.0,5.0,1651068765063387.0
-7.0,-1.0,1.0,-1.0,-4.0,-6.0,-1.0,-8.0,1651068765063387.0
-3.0,-2.0,-7.0,-2.0,8.0,8.0,2.0,-3.0,1651068765084630.0
4.0,2.0,4.0,9.0,-8.0,-6.0,0.0,6.0,1651068765084630.0
-9.0,-6.0,-9.0,4.0,-11.0,-15.0,-10.0,-17.0,1651068765086634.0
3.0,-2.0,-10.0,-13.0,23.0,11.0,3.0,7.0,1651068765086634.0
5.0,5.0,17.0,19.0,-9.0,-12.0,-5.0,14.0,1651068765107452.0
-18.0,-12.0,-25.0,-54.0,-12.0,-7.0,-15.0,-33.0,1651068765107452.0
4.0,0.0,7.0,-2.0,-3.0,-2.0,2.0,8.0,1651068765108389.0
-3.0,-2.0,-5.0,9.0,-5.0,-7.0,-3.0,-3.0,1651068765108389.0
-7.0,-2.0,5.0,5.0,6.0,10.0,0.0,-14.0,1651068765121153.0
4.0,3.0,9.0,8.0,-4.0,0.0,2.0,10.0,1651068765121153.0
9.0,5.0,6.0,15.0,5.0,-1.0,1.0,15.0,1651068765130100.0
-10.0,-10.0,-19.0,-22.0,-10.0,-9.0,-12.0,-20.0,1651068765130100.0
-3.0,-1.0,2.0,-8.0,-6.0,-2.0,-4.0,-6.0,1651068765144381.0
5.0,5.0,9.0,7.0,0.0,-2.0,4.0,9.0,1651068765144381.0
5.0,1.0,-6.0,-27.0,6.0,8.0,3.0,4.0,1651068765146345.0
-3.0,0.0,8.0,16.0,-5.0,-3.0,-1.0,-6.0,1651068765146345.0
5.0,2.0,16.0,29.0,11.0,3.0,4.0,12.0,1651068765158399.0
-5.0,-8.0,-28.0,3.0,-2.0,-1.0,-2.0,-3.0,1651068765158399.0
3.0,4.0,18.0,-2.0,-11.0,-1.0,1.0,10.0,1651068765167374.0
-8.0,-3.0,-4.0,-20.0,-11.0,-14.0,-9.0,-16.0,1651068765167374.0
3.0,3.0,13.0,28.0,15.0,15.0,6.0,6.0,1651068765181385.0
-4.0,-4.0,-10.0,-36.0,-12.0,-5.0,-4.0,-10.0,1651068765181385.0
-4.0,-4.0,-2.0,8.0,8.0,2.0,0.0,-1.0,1651068765188425.0
-11.0,-8.0,-13.0,-3.0,-8.0,-7.0,-10.0,-31.0,1651068765188425.0
-7.0,-7.0,-13.0,-26.0,-12.0,-12.0,-9.0,-12.0,1651068765204382.0
7.0,3.0,7.0,9.0,12.0,9.0,7.0,16.0,1651068765204382.0
-4.0,-3.0,-4.0,-5.0,-8.0,-13.0,-7.0,-9.0,1651068765206319.0
6.0,6.0,9.0,27.0,9.0,7.0,3.0,11.0,1651068765206319.0
3.0,-1.0,-9.0,-26.0,-3.0,1.0,4.0,10.0,1651068765227378.0
4.0,5.0,11.0,22.0,2.0,1.0,-1.0,6.0,1651068765227378.0
-4.0,-3.0,-1.0,-10.0,-4.0,0.0,2.0,-5.0,1651068765228309.0
7.0,5.0,-1.0,20.0,20.0,10.0,6.0,4.0,1651068765228309.0
-4.0,-4.0,-2.0,-22.0,-2.0,-2.0,-5.0,-9.0,1651068765248393.0
6.0,3.0,5.0,-2.0,-14.0,-7.0,3.0,9.0,1651068765248393.0
-5.0,1.0,5.0,28.0,-12.0,-4.0,-2.0,-9.0,1651068765257309.0
11.0,4.0,15.0,17.0,25.0,1.0,6.0,22.0,1651068765257309.0
-1.0,-1.0,-23.0,-37.0,-7.0,6.0,0.0,-1.0,1651068765263352.0
-3.0,-1.0,-2.0,2.0,-5.0,-2.0,-1.0,-3.0,1651068765263352.0
4.0,3.0,-4.0,-19.0,6.0,0.0,0.0,10.0,1651068765272283.0
-16.0,-8.0,-1.0,2.0,-7.0,0.0,-6.0,-30.0,1651068765272283.0
4.0,3.0,10.0,7.0,14.0,0.0,3.0,8.0,1651068765293421.0
-1.0,3.0,10.0,10.0,-3.0,-4.0,-2.0,-1.0,1651068765293421.0
-3.0,-5.0,-10.0,-8.0,2.0,2.0,-6.0,-8.0,1651068765304380.0
4.0,5.0,2.0,-3.0,-15.0,-5.0,1.0,11.0,1651068765304380.0
-3.0,-1.0,-1.0,-16.0,-9.0,-5.0,4.0,-2.0,1651068765305390.0
-5.0,-2.0,-5.0,18.0,6.0,4.0,-1.0,-11.0,1651068765305390.0
-3.0,-2.0,5.0,3.0,5.0,0.0,-1.0,-1.0,1651068765308396.0
0.0,-1.0,-1.0,3.0,-10.0,-3.0,-4.0,8.0,1651068765308396.0
5.0,1.0,-2.0,-5.0,0.0,0.0,4.0,5.0,1651068765324426.0
-5.0,-2.0,2.0,12.0,-1.0,-5.0,-3.0,-15.0,1651068765324426.0
-2.0,-2.0,-5.0,-24.0,-4.0,-2.0,-1.0,-8.0,1651068765326424.0
0.0,-3.0,-7.0,1.0,2.0,13.0,3.0,6.0,1651068765326424.0
3.0,4.0,6.0,12.0,-4.0,-4.0,-2.0,7.0,1651068765347507.0
-1.0,-2.0,-6.0,-7.0,12.0,2.0,0.0,0.0,1651068765347507.0
1.0,4.0,6.0,27.0,3.0,4.0,1.0,-2.0,1651068765348463.0
5.0,3.0,-4.0,-39.0,-18.0,-2.0,6.0,8.0,1651068765348463.0
-2.0,-2.0,7.0,9.0,-18.0,-16.0,-5.0,1.0,1651068765361557.0
1.0,-1.0,0.0,0.0,11.0,3.0,0.0,4.0,1651068765361557.0
-1.0,-4.0,-13.0,6.0,-5.0,-7.0,-1.0,-2.0,1651068765368539.0
5.0,5.0,3.0,-12.0,-5.0,-3.0,-2.0,5.0,1651068765368539.0
-5.0,-5.0,-3.0,2.0,3.0,3.0,-1.0,-10.0,1651068765384139.0
1.0,0.0,-5.0,-11.0,-6.0,-7.0,-2.0,1.0,1651068765384139.0
9.0,2.0,2.0,2.0,1.0,5.0,4.0,16.0,1651068765386157.0
-12.0,-5.0,-6.0,-11.0,-6.0,-5.0,-6.0,-19.0,1651068765386157.0
-4.0,-3.0,-5.0,-3.0,-1.0,-6.0,-4.0,-5.0,1651068765414906.0
-1.0,-2.0,-2.0,-18.0,5.0,10.0,0.0,0.0,1651068765414906.0
1.0,2.0,4.0,3.0,2.0,2.0,0.0,-1.0,1651068765415836.0
1.0,-2.0,1.0,0.0,7.0,0.0,1.0,2.0,1651068765415836.0
3.0,3.0,-3.0,7.0,9.0,7.0,3.0,2.0,1651068765420853.0
-3.0,-3.0,4.0,-7.0,-9.0,-3.0,-2.0,-4.0,1651068765420853.0
-4.0,0.0,-2.0,3.0,3.0,4.0,4.0,0.0,1651068765429812.0
0.0,2.0,6.0,4.0,2.0,0.0,2.0,5.0,1651068765429812.0
2.0,0.0,-1.0,0.0,-3.0,-2.0,-2.0,2.0,1651068765444820.0
4.0,2.0,-4.0,2.0,-2.0,0.0,5.0,7.0,1651068765444820.0
-3.0,-2.0,4.0,0.0,5.0,0.0,-4.0,-8.0,1651068765445905.0
3.0,1.0,4.0,4.0,1.0,-1.0,-2.0,5.0,1651068765445905.0
-5.0,-3.0,-7.0,-3.0,1.0,1.0,-2.0,-10.0,1651068765467459.0
0.0,-1.0,-3.0,-9.0,-6.0,-2.0,-1.0,2.0,1651068765467459.0
-1.0,-3.0,-3.0,4.0,4.0,0.0,-2.0,-7.0,1651068765468372.0
2.0,0.0,-6.0,-14.0,-4.0,-1.0,-1.0,5.0,1651068765468372.0
2.0,2.0,5.0,9.0,3.0,0.0,-1.0,8.0,1651068765481131.0
-5.0,0.0,3.0,4.0,-2.0,-2.0,-3.0,-12.0,1651068765481131.0
2.0,-1.0,1.0,-2.0,5.0,3.0,2.0,2.0,1651068765488178.0
-2.0,-2.0,-2.0,3.0,2.0,1.0,-6.0,-9.0,1651068765488178.0
4.0,1.0,1.0,-5.0,-3.0,1.0,13.0,13.0,1651068765504070.0
0.0,-2.0,-3.0,-1.0,-1.0,-3.0,-4.0,1.0,1651068765504070.0
-4.0,-2.0,0.0,-7.0,-6.0,-4.0,-4.0,-13.0,1651068765506161.0
0.0,0.0,-2.0,10.0,4.0,5.0,3.0,3.0,1651068765506161.0
-3.0,-1.0,1.0,11.0,4.0,2.0,-4.0,-6.0,1651068765526859.0
2.0,3.0,5.0,-3.0,-3.0,-4.0,-4.0,4.0,1651068765526859.0
0.0,-1.0,-5.0,-5.0,2.0,7.0,6.0,3.0,1651068765528816.0
0.0,0.0,-1.0,-1.0,-5.0,-4.0,0.0,1.0,1651068765528816.0
-4.0,1.0,6.0,-5.0,1.0,-3.0,-4.0,-7.0,1651068765541789.0
3.0,-1.0,-2.0,6.0,2.0,2.0,6.0,4.0,1651068765541789.0
-2.0,-1.0,-1.0,1.0,-2.0,-6.0,-18.0,-9.0,1651068765547797.0
1.0,1.0,-2.0,2.0,2.0,1.0,10.0,5.0,1651068765547797.0
3.0,2.0,0.0,-2.0,0.0,3.0,13.0,10.0,1651068765572052.0
0.0,0.0,2.0,2.0,1.0,4.0,11.0,4.0,1651068765572052.0
-19.0,-3.0,-4.0,-10.0,-1.0,-1.0,-1.0,-1.0,1651068765574006.0
7.0,-2.0,-1.0,5.0,-1.0,-4.0,-8.0,-1.0,1651068765574006.0
-2.0,-2.0,-3.0,-1.0,-2.0,-2.0,-5.0,-6.0,1651068765586603.0
1.0,-1.0,-5.0,-3.0,-3.0,-1.0,-3.0,-1.0,1651068765586603.0
-3.0,-1.0,5.0,10.0,4.0,0.0,2.0,-1.0,1651068765588600.0
-4.0,0.0,0.0,-7.0,-3.0,0.0,-5.0,-3.0,1651068765588600.0
-1.0,-2.0,-4.0,-2.0,0.0,-1.0,-5.0,-2.0,1651068765609462.0
-3.0,-2.0,-1.0,6.0,2.0,-2.0,0.0,-3.0,1651068765609462.0
5.0,1.0,1.0,-3.0,-2.0,-1.0,0.0,0.0,1651068765611433.0
-3.0,-3.0,-2.0,-13.0,0.0,1.0,4.0,0.0,1651068765611433.0
2.0,-1.0,4.0,2.0,3.0,1.0,1.0,-1.0,1651068765623467.0
-4.0,0.0,-3.0,-6.0,-6.0,-1.0,-2.0,-4.0,1651068765623467.0
4.0,2.0,1.0,-3.0,-4.0,-3.0,-5.0,-1.0,1651068765639475.0
2.0,-1.0,1.0,9.0,2.0,1.0,7.0,3.0,1651068765639475.0
-3.0,-1.0,-1.0,3.0,-2.0,1.0,-5.0,-1.0,1651068765646457.0
1.0,0.0,-3.0,0.0,2.0,-3.0,-3.0,-1.0,1651068765646457.0
3.0,1.0,3.0,-1.0,-7.0,-2.0,-1.0,0.0,1651068765662414.0
-13.0,-9.0,-4.0,10.0,16.0,7.0,3.0,1.0,1651068765662414.0
21.0,2.0,-1.0,-5.0,-9.0,-7.0,-2.0,-2.0,1651068765662414.0
-21.0,-12.0,2.0,-9.0,-18.0,-5.0,4.0,4.0,1651068765662414.0
-16.0,-4.0,-3.0,-1.0,4.0,3.0,3.0,-1.0,1651068765668397.0
12.0,5.0,2.0,-2.0,-7.0,-4.0,-3.0,-1.0,1651068765668397.0
3.0,8.0,0.0,6.0,9.0,2.0,-3.0,0.0,1651068765684731.0
2.0,-4.0,-4.0,0.0,4.0,2.0,-2.0,-1.0,1651068765684731.0
-3.0,-2.0,-3.0,-5.0,-6.0,-2.0,2.0,-1.0,1651068765690318.0
-4.0,-3.0,0.0,-2.0,2.0,0.0,-2.0,-3.0,1651068765690318.0
-3.0,1.0,3.0,8.0,-1.0,-1.0,0.0,0.0,1651068765707429.0
4.0,2.0,-3.0,10.0,2.0,-2.0,-5.0,-1.0,1651068765707429.0
2.0,1.0,5.0,-9.0,-1.0,-1.0,0.0,2.0,1651068765708453.0
6.0,2.0,-5.0,-8.0,-4.0,1.0,3.0,-1.0,1651068765708453.0
-4.0,-5.0,-1.0,-5.0,-4.0,-3.0,-2.0,-1.0,1651068765720394.0
2.0,3.0,-2.0,-3.0,-1.0,0.0,-2.0,0.0,1651068765720394.0
7.0,0.0,-1.0,15.0,6.0,0.0,0.0,1.0,1651068765729387.0
0.0,0.0,0.0,-5.0,-2.0,-2.0,0.0,0.0,1651068765729387.0
-9.0,-4.0,-3.0,2.0,0.0,0.0,1.0,-2.0,1651068765744397.0
-2.0,-1.0,-1.0,1.0,-2.0,-3.0,0.0,-2.0,1651068765744397.0
7.0,3.0,-1.0,1.0,4.0,2.0,1.0,1.0,1651068765746350.0
-1.0,-1.0,2.0,4.0,-6.0,-4.0,-2.0,-1.0,1651068765746350.0
-5.0,0.0,-1.0,-4.0,-1.0,-1.0,-1.0,-1.0,1651068765767435.0
12.0,7.0,1.0,0.0,3.0,1.0,-1.0,0.0,1651068765767435.0
0.0,1.0,1.0,0.0,1.0,-1.0,1.0,2.0,1651068765768366.0
3.0,3.0,-4.0,6.0,0.0,1.0,-2.0,0.0,1651068765768366.0
-31.0,-8.0,3.0,-7.0,-3.0,-2.0,-2.0,-6.0,1651068765781076.0
20.0,-10.0,1.0,7.0,4.0,1.0,0.0,7.0,1651068765781076.0
-1.0,-5.0,-2.0,-3.0,-2.0,1.0,1.0,-2.0,1651068765789405.0
-9.0,-2.0,-7.0,2.0,2.0,1.0,0.0,-2.0,1651068765789405.0
9.0,3.0,-4.0,-12.0,-6.0,-3.0,-1.0,2.0,1651068765804396.0
11.0,8.0,4.0,-3.0,-2.0,0.0,-2.0,-3.0,1651068765804396.0
-14.0,-11.0,4.0,5.0,1.0,-2.0,0.0,0.0,1651068765806393.0
1.0,-1.0,-4.0,-8.0,-3.0,-2.0,-2.0,-1.0,1651068765806393.0
5.0,0.0,-1.0,-2.0,-2.0,2.0,1.0,2.0,1651068765826651.0
-8.0,-4.0,0.0,-1.0,0.0,0.0,0.0,-1.0,1651068765826651.0
4.0,2.0,-4.0,4.0,-1.0,0.0,-1.0,-1.0,1651068765828647.0
2.0,4.0,0.0,-1.0,-4.0,-3.0,-2.0,0.0,1651068765828647.0
-9.0,-3.0,1.0,2.0,1.0,-2.0,0.0,-2.0,1651068765840682.0
-8.0,-1.0,-2.0,0.0,0.0,1.0,-1.0,0.0,1651068765840682.0
3.0,5.0,0.0,-1.0,1.0,-1.0,1.0,0.0,1651068765849591.0
-3.0,-4.0,9.0,-1.0,-3.0,-1.0,-1.0,-1.0,1651068765849591.0
3.0,-4.0,-16.0,-1.0,0.0,0.0,-3.0,-1.0,1651068765864747.0
-4.0,2.0,5.0,-2.0,1.0,1.0,0.0,0.0,1651068765864747.0
7.0,0.0,-3.0,-6.0,-3.0,-2.0,-2.0,1.0,1651068765865677.0
-7.0,-3.0,-16.0,-1.0,-2.0,-2.0,-2.0,-1.0,1651068765865677.0
6.0,3.0,31.0,5.0,3.0,2.0,-2.0,2.0,1651068765887361.0
-1.0,2.0,-1.0,-1.0,-2.0,-1.0,-2.0,-1.0,1651068765887361.0
-4.0,0.0,-9.0,-2.0,0.0,-1.0,-1.0,-1.0,1651068765888356.0
4.0,2.0,3.0,1.0,0.0,0.0,0.0,0.0,1651068765888356.0
1.0,-3.0,-11.0,-5.0,-1.0,-1.0,-1.0,-2.0,1651068765900333.0
-4.0,-1.0,-1.0,0.0,-1.0,-1.0,-2.0,0.0,1651068765900333.0
2.0,1.0,0.0,-5.0,-3.0,0.0,0.0,1.0,1651068765909299.0
-1.0,3.0,16.0,0.0,1.0,1.0,0.0,0.0,1651068765909299.0
1.0,-1.0,-4.0,1.0,-3.0,-1.0,-1.0,-2.0,1651068765924976.0
-4.0,-2.0,-18.0,-11.0,1.0,2.0,0.0,1.0,1651068765924976.0
3.0,10.0,53.0,38.0,9.0,0.0,2.0,-1.0,1651068765926307.0
0.0,-1.0,-16.0,-20.0,-4.0,-1.0,1.0,1.0,1651068765926307.0
0.0,3.0,-1.0,3.0,-1.0,-2.0,0.0,0.0,1651068765947250.0
-3.0,-4.0,-17.0,-6.0,-2.0,-2.0,0.0,-1.0,1651068765947250.0
2.0,-1.0,-20.0,-8.0,-3.0,0.0,-2.0,-2.0,1651068765948241.0
0.0,2.0,6.0,6.0,2.0,-1.0,0.0,-1.0,1651068765948241.0
0.0,-3.0,20.0,-1.0,0.0,1.0,-1.0,-1.0,1651068765969330.0
-3.0,-5.0,-20.0,-5.0,-1.0,-2.0,0.0,-2.0,1651068765969330.0
-1.0,-2.0,-6.0,-3.0,-1.0,0.0,-2.0,0.0,1651068765971315.0
-2.0,-2.0,9.0,6.0,-1.0,-1.0,-1.0,0.0,1651068765971315.0
-1.0,-2.0,-4.0,-3.0,-1.0,0.0,-1.0,1.0,1651068765984952.0
0.0,1.0,-5.0,-1.0,0.0,-2.0,-2.0,-1.0,1651068765984952.0
-1.0,-1.0,1.0,-5.0,0.0,-1.0,-1.0,-1.0,1651068765986322.0
-1.0,-3.0,-12.0,-1.0,-2.0,-2.0,-1.0,-1.0,1651068765986322.0
0.0,2.0,8.0,6.0,1.0,-1.0,-1.0,0.0,1651068766007188.0
0.0,4.0,28.0,5.0,0.0,1.0,0.0,0.0,1651068766007188.0
0.0,-3.0,2.0,-3.0,-1.0,0.0,0.0,0.0,1651068766008118.0
0.0,-3.0,-34.0,-11.0,1.0,0.0,-2.0,0.0,1651068766008118.0
1.0,-1.0,-11.0,-1.0,1.0,-2.0,-2.0,-2.0,1651068766021084.0
-2.0,2.0,15.0,-1.0,-3.0,-3.0,0.0,-2.0,1651068766021084.0
-2.0,-5.0,-27.0,0.0,-3.0,-2.0,0.0,-2.0,1651068766030068.0
1.0,5.0,24.0,16.0,1.0,1.0,1.0,0.0,1651068766030068.0
-2.0,-3.0,-3.0,-9.0,1.0,2.0,1.0,1.0,1651068766044950.0
0.0,1.0,11.0,2.0,0.0,-2.0,-2.0,-1.0,1651068766044950.0
0.0,-1.0,-16.0,-7.0,0.0,0.0,1.0,1.0,1651068766046202.0
-2.0,1.0,26.0,4.0,3.0,-1.0,-1.0,-3.0,1651068766046202.0
-2.0,-2.0,-3.0,4.0,-1.0,-1.0,0.0,0.0,1651068766067429.0
1.0,0.0,5.0,3.0,0.0,-2.0,-1.0,-1.0,1651068766067429.0
0.0,2.0,8.0,-7.0,-4.0,-2.0,0.0,-1.0,1651068766068357.0
-1.0,-4.0,-5.0,1.0,1.0,0.0,-1.0,0.0,1651068766068357.0
-1.0,2.0,0.0,-1.0,-2.0,-1.0,1.0,1.0,1651068766080327.0
-1.0,-1.0,-9.0,-3.0,-1.0,0.0,-1.0,0.0,1651068766080327.0
-1.0,1.0,21.0,3.0,2.0,0.0,1.0,1.0,1651068766089345.0
-2.0,-2.0,-5.0,-6.0,0.0,-2.0,0.0,0.0,1651068766089345.0
0.0,-3.0,-1.0,3.0,0.0,-1.0,0.0,0.0,1651068766104261.0
-1.0,-3.0,-28.0,-10.0,0.0,0.0,0.0,0.0,1651068766104261.0
-2.0,0.0,15.0,2.0,-2.0,-1.0,-3.0,0.0,1651068766106256.0
1.0,2.0,9.0,3.0,-1.0,1.0,1.0,-1.0,1651068766106256.0
0.0,-1.0,-3.0,3.0,-1.0,0.0,-3.0,-1.0,1651068766134314.0
-1.0,5.0,53.0,17.0,2.0,-2.0,0.0,0.0,1651068766134314.0
0.0,-3.0,-16.0,-7.0,-1.0,-1.0,0.0,1.0,1651068766136338.0
-1.0,-3.0,-9.0,-3.0,-1.0,-2.0,-2.0,0.0,1651068766136338.0
0.0,0.0,-18.0,2.0,-1.0,-3.0,1.0,-2.0,1651068766149398.0
-2.0,-2.0,17.0,-4.0,-2.0,1.0,0.0,-1.0,1651068766149398.0
-1.0,-4.0,-16.0,-5.0,1.0,-2.0,-3.0,-1.0,1651068766151388.0
1.0,4.0,13.0,0.0,-1.0,0.0,0.0,0.0,1651068766151388.0
-1.0,-5.0,-9.0,-3.0,0.0,-1.0,-1.0,-1.0,1651068766164950.0
-1.0,-1.0,-48.0,-9.0,0.0,0.0,0.0,0.0,1651068766164950.0
-1.0,-3.0,-7.0,-2.0,-2.0,-1.0,-2.0,-1.0,1651068766166324.0
0.0,-1.0,-5.0,-1.0,-1.0,0.0,-1.0,2.0,1651068766166324.0
-1.0,-2.0,12.0,-5.0,-2.0,-1.0,-2.0,-1.0,1651068766187132.0
1.0,0.0,1.0,4.0,0.0,0.0,1.0,-1.0,1651068766187132.0
0.0,0.0,-4.0,0.0,0.0,-1.0,1.0,-1.0,1651068766188132.0
-1.0,0.0,13.0,3.0,-1.0,-1.0,1.0,-1.0,1651068766188132.0
0.0,0.0,-5.0,-1.0,0.0,0.0,0.0,-2.0,1651068766210251.0
-3.0,-4.0,-5.0,-1.0,-1.0,-1.0,-1.0,0.0,1651068766210251.0
1.0,0.0,-4.0,1.0,-1.0,0.0,0.0,0.0,1651068766211262.0
-1.0,-5.0,0.0,0.0,0.0,-2.0,-2.0,-4.0,1651068766211262.0
1.0,0.0,-5.0,0.0,1.0,0.0,0.0,1.0,1651068766224398.0
1.0,2.0,-16.0,-6.0,-2.0,1.0,-1.0,-1.0,1651068766224398.0
-1.0,-2.0,-2.0,-3.0,-2.0,-1.0,-3.0,0.0,1651068766226329.0
-1.0,-1.0,-1.0,-1.0,1.0,0.0,0.0,-1.0,1651068766226329.0
1.0,-2.0,-7.0,0.0,-1.0,-1.0,-1.0,0.0,1651068766246791.0
1.0,-1.0,2.0,2.0,0.0,0.0,-1.0,-1.0,1651068766246791.0
-1.0,1.0,3.0,-1.0,-1.0,2.0,-2.0,1.0,1651068766248746.0
-1.0,-1.0,-12.0,-2.0,-2.0,-1.0,-1.0,2.0,1651068766248746.0
-1.0,1.0,-6.0,-1.0,-1.0,0.0,-1.0,1.0,1651068766270007.0
-2.0,-3.0,11.0,2.0,-1.0,-2.0,0.0,-2.0,1651068766270007.0
0.0,0.0,-11.0,-3.0,2.0,0.0,2.0,0.0,1651068766271005.0
0.0,-1.0,3.0,-3.0,0.0,-2.0,-1.0,-1.0,1651068766271005.0
0.0,7.0,39.0,5.0,1.0,1.0,-1.0,0.0,1651068766284301.0
-1.0,0.0,2.0,-1.0,-2.0,-1.0,0.0,0.0,1651068766284301.0
0.0,0.0,-4.0,0.0,-2.0,-1.0,1.0,0.0,1651068766290289.0
-1.0,-1.0,-2.0,1.0,-1.0,-1.0,-2.0,-3.0,1651068766290289.0
-1.0,-3.0,-18.0,-7.0,-3.0,-2.0,-1.0,0.0,1651068766307405.0
1.0,0.0,-3.0,-3.0,-1.0,1.0,2.0,1.0,1651068766307405.0
0.0,2.0,7.0,1.0,2.0,0.0,1.0,-1.0,1651068766308344.0
-1.0,-2.0,-3.0,1.0,0.0,0.0,1.0,2.0,1651068766308344.0
0.0,-2.0,2.0,2.0,1.0,0.0,1.0,-1.0,1651068766329457.0
-1.0,0.0,5.0,1.0,-2.0,-1.0,-2.0,-1.0,1651068766329457.0
0.0,-2.0,-9.0,-2.0,-1.0,-2.0,-1.0,-1.0,1651068766331418.0
-2.0,2.0,7.0,3.0,1.0,-1.0,-1.0,0.0,1651068766331418.0
1.0,1.0,-2.0,0.0,0.0,0.0,0.0,-1.0,1651068766343385.0
-1.0,-3.0,-9.0,-5.0,0.0,-1.0,0.0,0.0,1651068766343385.0
-1.0,-1.0,2.0,2.0,-1.0,0.0,0.0,-3.0,1651068766350395.0
-2.0,-1.0,-3.0,-2.0,-2.0,-1.0,0.0,-1.0,1651068766350395.0
-1.0,-1.0,-4.0,-2.0,-1.0,-1.0,-1.0,1.0,1651068766367462.0
-1.0,-1.0,7.0,5.0,0.0,-2.0,-2.0,-1.0,1651068766367462.0
1.0,-1.0,-6.0,-3.0,-1.0,-1.0,-1.0,0.0,1651068766368393.0
-1.0,-4.0,-12.0,-4.0,-1.0,0.0,-2.0,0.0,1651068766368393.0
-1.0,0.0,11.0,1.0,-5.0,-1.0,-1.0,-1.0,1651068766389448.0
0.0,0.0,-14.0,-2.0,0.0,-1.0,0.0,-1.0,1651068766389448.0
0.0,4.0,15.0,3.0,-1.0,-1.0,-1.0,0.0,1651068766391452.0
-1.0,0.0,-1.0,-10.0,-2.0,-1.0,-3.0,-1.0,1651068766391452.0
-1.0,0.0,1.0,9.0,2.0,1.0,-1.0,0.0,1651068766403455.0
-2.0,-2.0,4.0,1.0,-2.0,-1.0,0.0,0.0,1651068766403455.0
-3.0,-2.0,-5.0,-3.0,-1.0,-1.0,0.0,0.0,1651068766412501.0
0.0,3.0,15.0,-1.0,-1.0,-1.0,1.0,-1.0,1651068766412501.0
-2.0,1.0,-6.0,-6.0,1.0,-1.0,-2.0,-2.0,1651068766427427.0
-1.0,2.0,2.0,0.0,0.0,1.0,-1.0,-1.0,1651068766427427.0
-1.0,-2.0,0.0,-5.0,0.0,2.0,1.0,-1.0,1651068766428359.0
2.0,3.0,-12.0,0.0,0.0,-1.0,1.0,0.0,1651068766428359.0
-1.0,-2.0,-5.0,-1.0,0.0,-1.0,0.0,-2.0,1651068766449369.0
2.0,1.0,8.0,3.0,0.0,-2.0,-2.0,-1.0,1651068766449369.0
1.0,-3.0,-7.0,-5.0,-2.0,-3.0,-1.0,-1.0,1651068766451332.0
0.0,-2.0,-8.0,-2.0,-2.0,-1.0,-1.0,1.0,1651068766451332.0
0.0,-2.0,-9.0,-1.0,0.0,1.0,2.0,-1.0,1651068766464380.0
0.0,2.0,-13.0,-7.0,1.0,0.0,0.0,0.0,1651068766464380.0
-1.0,1.0,7.0,2.0,-3.0,0.0,-1.0,0.0,1651068766471176.0
-1.0,-2.0,-4.0,-3.0,-2.0,-2.0,-2.0,-2.0,1651068766471176.0
-1.0,-3.0,-15.0,-2.0,0.0,1.0,-1.0,-2.0,1651068766487250.0
0.0,-2.0,6.0,-10.0,-4.0,0.0,1.0,0.0,1651068766487250.0
1.0,-1.0,2.0,14.0,3.0,0.0,0.0,-1.0,1651068766489178.0
-2.0,-2.0,0.0,0.0,-1.0,0.0,-1.0,-3.0,1651068766489178.0
0.0,3.0,6.0,-7.0,-6.0,-3.0,-1.0,-2.0,1651068766517340.0
-2.0,0.0,11.0,10.0,3.0,0.0,-2.0,-1.0,1651068766517340.0
-1.0,-1.0,1.0,-4.0,-2.0,1.0,1.0,-1.0,1651068766518338.0
-2.0,-1.0,14.0,4.0,1.0,1.0,0.0,0.0,1651068766518338.0
1.0,-3.0,-35.0,-6.0,-1.0,0.0,2.0,0.0,1651068766524322.0
0.0,0.0,13.0,3.0,0.0,1.0,1.0,1.0,1651068766524322.0
0.0,1.0,2.0,-1.0,-2.0,0.0,-2.0,-1.0,1651068766530306.0
0.0,2.0,3.0,5.0,-1.0,-1.0,1.0,2.0,1651068766530306.0
-1.0,-4.0,12.0,1.0,0.0,0.0,1.0,1.0,1651068766547319.0
-1.0,1.0,-1.0,3.0,1.0,-2.0,-2.0,0.0,1651068766547319.0
-1.0,-3.0,-15.0,-3.0,1.0,0.0,0.0,-1.0,1651068766548258.0
1.0,-1.0,-9.0,-10.0,-4.0,-2.0,-1.0,-2.0,1651068766548258.0
-1.0,3.0,11.0,6.0,2.0,1.0,-1.0,0.0,1651068766569428.0
-1.0,-1.0,-8.0,0.0,-2.0,-1.0,-1.0,-1.0,1651068766569428.0
0.0,-2.0,7.0,-2.0,-3.0,0.0,-3.0,0.0,1651068766571401.0
-2.0,-2.0,-6.0,-1.0,0.0,-3.0,-2.0,-1.0,1651068766571401.0
1.0,1.0,5.0,-5.0,-1.0,-2.0,0.0,-1.0,1651068766584300.0
-1.0,-1.0,-5.0,-2.0,-1.0,1.0,-1.0,0.0,1651068766584300.0
-3.0,-1.0,0.0,3.0,-2.0,-2.0,0.0,-1.0,1651068766590310.0
1.0,0.0,-18.0,-3.0,2.0,1.0,-1.0,-1.0,1651068766590310.0
-3.0,-3.0,6.0,1.0,0.0,-1.0,0.0,0.0,1651068766607307.0
0.0,-3.0,-9.0,-5.0,0.0,-1.0,-1.0,0.0,1651068766607307.0
0.0,1.0,10.0,-2.0,0.0,-2.0,1.0,-1.0,1651068766608245.0
-1.0,-2.0,-2.0,4.0,1.0,0.0,0.0,2.0,1651068766608245.0
0.0,0.0,1.0,-1.0,-1.0,-2.0,-2.0,0.0,1651068766629336.0
1.0,0.0,4.0,-4.0,-3.0,-2.0,-1.0,-3.0,1651068766629336.0
0.0,-1.0,-7.0,0.0,0.0,1.0,0.0,2.0,1651068766631297.0
-2.0,0.0,0.0,-2.0,-3.0,-2.0,-2.0,-2.0,1651068766631297.0
0.0,0.0,9.0,5.0,1.0,2.0,-1.0,1.0,1651068766643296.0
-2.0,-2.0,-1.0,-6.0,-4.0,-2.0,0.0,-2.0,1651068766643296.0
-2.0,1.0,-3.0,5.0,2.0,-1.0,-1.0,0.0,1651068766652215.0
0.0,-3.0,-1.0,-5.0,1.0,1.0,1.0,1.0,1651068766652215.0
0.0,0.0,3.0,4.0,0.0,-1.0,-1.0,0.0,1651068766667201.0
1.0,-1.0,-3.0,-3.0,-2.0,2.0,1.0,1.0,1651068766667201.0
1.0,1.0,11.0,2.0,-2.0,-1.0,-1.0,0.0,1651068766668171.0
-2.0,-3.0,-6.0,1.0,2.0,1.0,-1.0,1.0,1651068766668171.0
-2.0,0.0,7.0,-4.0,-3.0,-1.0,-2.0,2.0,1651068766689136.0
0.0,-1.0,-1.0,-3.0,0.0,-1.0,0.0,0.0,1651068766689136.0
-2.0,-3.0,-7.0,2.0,1.0,-1.0,-3.0,-1.0,1651068766691110.0
-1.0,2.0,4.0,-3.0,-1.0,0.0,1.0,-1.0,1651068766691110.0
-2.0,-1.0,0.0,-1.0,-2.0,-1.0,-1.0,-2.0,1651068766703079.0
-1.0,5.0,2.0,-2.0,-1.0,-1.0,-1.0,-1.0,1651068766703079.0
-1.0,-1.0,-4.0,-5.0,-1.0,-1.0,1.0,-1.0,1651068766712063.0
1.0,1.0,3.0,3.0,0.0,1.0,-1.0,-1.0,1651068766712063.0
1.0,-2.0,-6.0,0.0,0.0,0.0,0.0,1.0,1651068766727233.0
-1.0,-2.0,2.0,-1.0,0.0,0.0,1.0,1.0,1651068766727233.0
2.0,1.0,-2.0,2.0,-1.0,0.0,-1.0,1.0,1651068766728163.0
0.0,1.0,2.0,-2.0,-3.0,0.0,0.0,1.0,1651068766728163.0
-1.0,0.0,-5.0,3.0,2.0,1.0,0.0,-2.0,1651068766749950.0
-1.0,-1.0,9.0,3.0,1.0,1.0,-1.0,0.0,1651068766749950.0
0.0,-2.0,-6.0,-5.0,-1.0,-3.0,0.0,-1.0,1651068766751469.0
0.0,-3.0,-2.0,0.0,-1.0,-1.0,1.0,-1.0,1651068766751469.0
1.0,1.0,5.0,-1.0,-1.0,0.0,-1.0,0.0,1651068766763438.0
1.0,-2.0,-20.0,-3.0,1.0,0.0,2.0,-1.0,1651068766763438.0
-2.0,-2.0,-6.0,-5.0,-1.0,1.0,1.0,0.0,1651068766771683.0
-2.0,0.0,4.0,2.0,-2.0,0.0,-1.0,-2.0,1651068766771683.0
-1.0,-1.0,-13.0,-7.0,-3.0,-1.0,-1.0,0.0,1651068766786867.0
0.0,3.0,32.0,9.0,1.0,0.0,0.0,-1.0,1651068766786867.0
-2.0,-2.0,-2.0,-5.0,-1.0,-1.0,0.0,1.0,1651068766788795.0
3.0,0.0,-15.0,2.0,0.0,1.0,0.0,2.0,1651068766788795.0
0.0,-1.0,7.0,-7.0,-3.0,-1.0,-1.0,-1.0,1651068766809956.0
0.0,-4.0,-19.0,9.0,3.0,-2.0,-2.0,-1.0,1651068766809956.0
0.0,5.0,18.0,3.0,-1.0,-2.0,0.0,0.0,1651068766810894.0
-1.0,-3.0,0.0,-4.0,-1.0,-2.0,1.0,0.0,1651068766810894.0
1.0,0.0,-2.0,3.0,0.0,0.0,1.0,-1.0,1651068766822886.0
-2.0,-2.0,-2.0,-4.0,-2.0,-1.0,-2.0,-1.0,1651068766822886.0
-2.0,-2.0,0.0,-5.0,-2.0,0.0,1.0,-1.0,1651068766831964.0
-2.0,0.0,-19.0,-7.0,-2.0,-1.0,-3.0,0.0,1651068766831964.0
-1.0,1.0,4.0,2.0,0.0,-2.0,-1.0,0.0,1651068766847038.0
-1.0,0.0,0.0,0.0,-2.0,0.0,1.0,0.0,1651068766847038.0
-1.0,3.0,20.0,1.0,-1.0,-1.0,-2.0,-1.0,1651068766849035.0
-1.0,0.0,7.0,5.0,0.0,0.0,-1.0,-1.0,1651068766849035.0
0.0,0.0,-5.0,0.0,0.0,-3.0,-2.0,0.0,1651068766869949.0
0.0,-2.0,-11.0,-4.0,-1.0,-2.0,-1.0,0.0,1651068766869949.0
0.0,-3.0,-6.0,-1.0,-2.0,0.0,-1.0,-2.0,1651068766871536.0
0.0,-3.0,4.0,1.0,1.0,0.0,2.0,-2.0,1651068766871536.0
-1.0,1.0,10.0,-5.0,-2.0,-1.0,-1.0,-2.0,1651068766883637.0
0.0,-1.0,-2.0,5.0,2.0,-1.0,-1.0,-1.0,1651068766883637.0
0.0,-1.0,-2.0,-1.0,-2.0,-1.0,0.0,0.0,1651068766892723.0
0.0,-1.0,-1.0,-3.0,-1.0,-1.0,-2.0,-1.0,1651068766892723.0
0.0,1.0,-10.0,-1.0,0.0,1.0,2.0,-1.0,1651068766906678.0
-1.0,-1.0,2.0,-6.0,-2.0,1.0,1.0,-1.0,1651068766906678.0
0.0,-2.0,-8.0,6.0,2.0,-1.0,0.0,-2.0,1651068766908665.0
-1.0,2.0,-4.0,-5.0,-1.0,0.0,0.0,-2.0,1651068766908665.0
-1.0,-2.0,-24.0,-10.0,-3.0,-1.0,-2.0,-1.0,1651068766936741.0
-1.0,1.0,2.0,0.0,1.0,1.0,1.0,0.0,1651068766936741.0
1.0,-1.0,1.0,0.0,1.0,1.0,-1.0,-2.0,1651068766938670.0
0.0,0.0,1.0,0.0,0.0,-1.0,-1.0,0.0,1651068766938670.0
0.0,-2.0,5.0,4.0,0.0,0.0,-1.0,0.0,1651068766942659.0
-1.0,0.0,0.0,-2.0,-1.0,2.0,0.0,0.0,1651068766942659.0
-1.0,-4.0,-23.0,-4.0,0.0,0.0,-2.0,0.0,1651068766959613.0
-2.0,-3.0,4.0,-1.0,-1.0,0.0,0.0,0.0,1651068766959613.0
0.0,0.0,0.0,5.0,1.0,1.0,0.0,1.0,1651068766967592.0
1.0,0.0,5.0,0.0,-1.0,0.0,-1.0,-1.0,1651068766967592.0
0.0,3.0,4.0,0.0,-1.0,1.0,1.0,2.0,1651068766968590.0
-2.0,-1.0,4.0,3.0,-1.0,0.0,-1.0,-2.0,1651068766968590.0
1.0,1.0,4.0,2.0,0.0,0.0,0.0,-1.0,1651068766989937.0
-1.0,-2.0,-12.0,-1.0,0.0,-1.0,-1.0,0.0,1651068766989937.0
0.0,2.0,12.0,-2.0,-3.0,-3.0,0.0,-2.0,1651068766990938.0
1.0,-1.0,-13.0,3.0,3.0,1.0,2.0,0.0,1651068766990938.0
-1.0,0.0,3.0,0.0,1.0,1.0,2.0,0.0,1651068767003599.0
-1.0,1.0,4.0,3.0,-1.0,-2.0,-2.0,-2.0,1651068767003599.0
-1.0,1.0,5.0,-2.0,-1.0,-1.0,-1.0,0.0,1651068767011699.0
0.0,3.0,7.0,-2.0,-3.0,-2.0,-2.0,0.0,1651068767011699.0
-1.0,-1.0,1.0,-4.0,-1.0,-2.0,-2.0,0.0,1651068767026658.0
-1.0,-2.0,0.0,1.0,1.0,2.0,0.0,1.0,1651068767026658.0
-1.0,-1.0,-7.0,-3.0,1.0,0.0,-1.0,-1.0,1651068767028598.0
-1.0,0.0,13.0,2.0,0.0,-2.0,-1.0,0.0,1651068767028598.0
-1.0,-1.0,-1.0,0.0,0.0,1.0,-2.0,-2.0,1651068767049595.0
0.0,1.0,3.0,2.0,-2.0,0.0,-2.0,-2.0,1651068767049595.0
-2.0,0.0,3.0,2.0,0.0,-1.0,0.0,-1.0,1651068767051523.0
-1.0,1.0,2.0,0.0,-1.0,0.0,1.0,1.0,1651068767051523.0
0.0,-3.0,6.0,3.0,0.0,0.0,0.0,-1.0,1651068767072460.0
-1.0,0.0,3.0,-2.0,-1.0,-2.0,0.0,-1.0,1651068767072460.0
1.0,-2.0,-5.0,-2.0,0.0,2.0,0.0,0.0,1651068767074457.0
0.0,1.0,1.0,-5.0,-3.0,1.0,0.0,-2.0,1651068767074457.0
0.0,1.0,-1.0,8.0,1.0,-1.0,1.0,-1.0,1651068767087575.0
-1.0,-2.0,-5.0,-4.0,-7.0,-4.0,-3.0,-1.0,1651068767087575.0
1.0,-1.0,1.0,1.0,-5.0,-3.0,-1.0,-1.0,1651068767088538.0
-1.0,-1.0,-2.0,-2.0,1.0,1.0,2.0,1.0,1651068767088538.0
0.0,-1.0,-3.0,6.0,19.0,8.0,2.0,1.0,1651068767109535.0
-1.0,2.0,-2.0,0.0,-8.0,1.0,3.0,0.0,1651068767109535.0
-2.0,0.0,1.0,-2.0,-4.0,-2.0,0.0,-1.0,1651068767111490.0
-1.0,-1.0,0.0,-1.0,-11.0,-6.0,-3.0,-1.0,1651068767111490.0
-2.0,0.0,-1.0,-8.0,-8.0,-8.0,-2.0,-2.0,1651068767131656.0
0.0,2.0,3.0,10.0,14.0,10.0,5.0,2.0,1651068767131656.0
-1.0,-2.0,1.0,-1.0,-4.0,-4.0,-1.0,0.0,1651068767133654.0
1.0,-2.0,-2.0,1.0,-1.0,-2.0,-1.0,-1.0,1651068767133654.0
-1.0,-1.0,1.0,-2.0,-6.0,-3.0,-2.0,-1.0,1651068767146652.0
0.0,-2.0,-2.0,-6.0,-7.0,-4.0,-3.0,-2.0,1651068767146652.0
-2.0,-1.0,-5.0,-5.0,-2.0,2.0,-1.0,-1.0,1651068767148617.0
-1.0,-1.0,1.0,13.0,8.0,2.0,0.0,-2.0,1651068767148617.0
0.0,0.0,-5.0,-11.0,-15.0,-5.0,0.0,-1.0,1651068767169949.0
0.0,-3.0,-1.0,4.0,-2.0,-8.0,-1.0,-1.0,1651068767169949.0
2.0,4.0,2.0,5.0,20.0,13.0,2.0,2.0,1651068767170805.0
-1.0,-2.0,-3.0,-4.0,-6.0,-5.0,-1.0,0.0,1651068767170805.0
-1.0,-2.0,0.0,-5.0,-3.0,0.0,-1.0,2.0,1651068767192413.0
1.0,0.0,0.0,-11.0,-5.0,-9.0,0.0,1.0,1651068767192413.0
-2.0,-2.0,-2.0,4.0,-7.0,-6.0,-4.0,-1.0,1651068767193342.0
-1.0,0.0,1.0,3.0,1.0,5.0,2.0,1.0,1651068767193342.0
-1.0,0.0,-2.0,-3.0,4.0,4.0,0.0,0.0,1651068767207329.0
0.0,2.0,-1.0,-4.0,3.0,-3.0,-2.0,-2.0,1651068767207329.0
-1.0,-1.0,-1.0,2.0,0.0,2.0,1.0,-1.0,1651068767208315.0
-1.0,1.0,1.0,-4.0,-1.0,0.0,2.0,0.0,1651068767208315.0
0.0,1.0,2.0,1.0,-6.0,-3.0,-3.0,-1.0,1651068767229397.0
-2.0,-3.0,-3.0,0.0,0.0,0.0,-1.0,-1.0,1651068767229397.0
0.0,-3.0,-2.0,-3.0,0.0,-4.0,-2.0,-1.0,1651068767231424.0
0.0,0.0,-2.0,-7.0,-8.0,0.0,-1.0,-1.0,1651068767231424.0
0.0,3.0,5.0,13.0,19.0,4.0,3.0,1.0,1651068767252508.0
-1.0,0.0,1.0,-3.0,-1.0,-1.0,-3.0,0.0,1651068767252508.0
0.0,0.0,-1.0,-3.0,-4.0,0.0,0.0,1.0,1651068767253492.0
-1.0,-4.0,-6.0,2.0,-1.0,0.0,-1.0,0.0,1651068767253492.0
0.0,-1.0,-1.0,-6.0,-5.0,1.0,2.0,1.0,1651068767266504.0
1.0,-1.0,-2.0,1.0,-2.0,-1.0,-1.0,0.0,1651068767266504.0
0.0,1.0,2.0,2.0,1.0,3.0,3.0,1.0,1651068767273426.0
-1.0,-1.0,-2.0,-4.0,8.0,0.0,-2.0,-1.0,1651068767273426.0
-2.0,-1.0,-4.0,-3.0,-3.0,0.0,1.0,-1.0,1651068767289610.0
-2.0,0.0,3.0,7.0,-3.0,2.0,0.0,-1.0,1651068767289610.0
-2.0,-2.0,-6.0,-2.0,-7.0,-4.0,0.0,-2.0,1651068767290626.0
1.0,0.0,3.0,-1.0,6.0,0.0,-2.0,-1.0,1651068767290626.0
2.0,-1.0,0.0,4.0,-6.0,-3.0,0.0,1.0,1651068767312409.0
-1.0,0.0,1.0,-2.0,0.0,-1.0,-4.0,0.0,1651068767312409.0
-1.0,0.0,-1.0,1.0,2.0,0.0,0.0,0.0,1651068767313372.0
-2.0,0.0,1.0,4.0,11.0,2.0,0.0,1.0,1651068767313372.0
-1.0,-1.0,-6.0,-5.0,-16.0,-11.0,-5.0,-2.0,1651068767326431.0
0.0,3.0,4.0,-2.0,0.0,1.0,0.0,-1.0,1651068767326431.0
-1.0,0.0,1.0,2.0,-1.0,-2.0,-2.0,-1.0,1651068767333412.0
-1.0,-1.0,3.0,0.0,4.0,0.0,-2.0,-1.0,1651068767333412.0
-3.0,-6.0,-5.0,2.0,11.0,3.0,-1.0,-2.0,1651068767349574.0
2.0,1.0,2.0,-3.0,-12.0,-7.0,1.0,3.0,1651068767349574.0
0.0,2.0,5.0,1.0,3.0,7.0,4.0,1.0,1651068767351571.0
-4.0,-3.0,-7.0,-6.0,-14.0,-11.0,-6.0,-3.0,1651068767351571.0
-1.0,1.0,1.0,2.0,8.0,5.0,-1.0,-1.0,1651068767372525.0
-1.0,-1.0,-3.0,-1.0,11.0,7.0,-4.0,-3.0,1651068767372525.0
0.0,-2.0,1.0,-4.0,-24.0,-16.0,-4.0,-2.0,1651068767373514.0
2.0,2.0,4.0,7.0,14.0,8.0,3.0,2.0,1651068767373514.0
-1.0,-1.0,3.0,-1.0,-7.0,-3.0,0.0,1.0,1651068767386671.0
0.0,-1.0,-4.0,1.0,7.0,3.0,3.0,1.0,1651068767386671.0
-1.0,-3.0,-7.0,-8.0,-13.0,-8.0,-4.0,-3.0,1651068767393655.0
1.0,-1.0,2.0,13.0,37.0,22.0,5.0,2.0,1651068767393655.0
-1.0,-1.0,2.0,2.0,4.0,0.0,-2.0,-3.0,1651068767409846.0
-1.0,-5.0,-6.0,-10.0,-13.0,-5.0,-2.0,-1.0,1651068767409846.0
-1.0,1.0,4.0,0.0,-1.0,7.0,2.0,2.0,1651068767410780.0
1.0,2.0,0.0,-2.0,-18.0,-10.0,0.0,1.0,1651068767410780.0
1.0,4.0,3.0,-1.0,9.0,6.0,0.0,2.0,1651068767432481.0
-1.0,0.0,-1.0,-2.0,-4.0,-6.0,0.0,0.0,1651068767432481.0
0.0,-4.0,-4.0,1.0,12.0,0.0,-4.0,-4.0,1651068767433481.0
-2.0,0.0,0.0,-1.0,-6.0,-4.0,-5.0,-4.0,1651068767433481.0
-3.0,-4.0,-7.0,-1.0,-3.0,-6.0,-6.0,-2.0,1651068767446618.0
1.0,3.0,4.0,4.0,-4.0,-1.0,3.0,3.0,1651068767446618.0
-2.0,-2.0,-4.0,-1.0,11.0,7.0,1.0,1.0,1651068767452651.0
0.0,0.0,-1.0,-5.0,-9.0,-7.0,2.0,1.0,1651068767452651.0
0.0,1.0,3.0,0.0,5.0,5.0,-2.0,-4.0,1651068767469891.0
0.0,-1.0,-1.0,7.0,13.0,5.0,0.0,-1.0,1651068767469891.0
0.0,0.0,0.0,-3.0,-4.0,-7.0,0.0,0.0,1651068767470821.0
2.0,5.0,8.0,7.0,15.0,9.0,1.0,1.0,1651068767470821.0
0.0,0.0,-4.0,-10.0,-20.0,-13.0,-2.0,2.0,1651068767491999.0
-1.0,-1.0,-3.0,0.0,0.0,-2.0,1.0,-3.0,1651068767491999.0
-2.0,1.0,1.0,1.0,8.0,5.0,-2.0,-1.0,1651068767494033.0
1.0,0.0,0.0,-4.0,-13.0,-6.0,2.0,0.0,1651068767494033.0
1.0,0.0,0.0,1.0,1.0,-2.0,-1.0,2.0,1651068767515050.0
-3.0,-3.0,-4.0,-2.0,1.0,3.0,-2.0,-2.0,1651068767515050.0
-3.0,-3.0,-2.0,2.0,-3.0,-11.0,-4.0,-5.0,1651068767516049.0
-2.0,-3.0,-6.0,-6.0,-14.0,-8.0,-6.0,-2.0,1651068767516049.0
5.0,3.0,2.0,4.0,9.0,7.0,10.0,17.0,1651068767530034.0
0.0,1.0,0.0,-2.0,3.0,3.0,-3.0,-15.0,1651068767530034.0
-5.0,-3.0,-3.0,-8.0,-8.0,-5.0,-1.0,-1.0,1651068767531095.0
1.0,-2.0,-7.0,-5.0,-6.0,-3.0,-5.0,-4.0,1651068767531095.0
-1.0,1.0,1.0,-4.0,-9.0,-7.0,-3.0,-4.0,1651068767552011.0
9.0,5.0,5.0,8.0,-8.0,-4.0,3.0,9.0,1651068767552011.0
-2.0,-1.0,-3.0,-7.0,4.0,9.0,2.0,-2.0,1651068767553943.0
0.0,-1.0,-1.0,-10.0,10.0,10.0,-2.0,1.0,1651068767553943.0
3.0,2.0,3.0,4.0,-7.0,-12.0,-1.0,4.0,1651068767565911.0
-10.0,-8.0,-10.0,5.0,-6.0,-8.0,-10.0,-13.0,1651068767565911.0
7.0,4.0,3.0,11.0,7.0,11.0,5.0,2.0,1651068767575042.0
-6.0,-3.0,1.0,-3.0,-4.0,-9.0,-4.0,-4.0,1651068767575042.0
4.0,1.0,0.0,9.0,2.0,4.0,5.0,9.0,1651068767590003.0
4.0,-2.0,-8.0,-39.0,-6.0,-3.0,0.0,6.0,1651068767590003.0
-5.0,-6.0,-1.0,17.0,-19.0,-18.0,-7.0,-11.0,1651068767591003.0
3.0,-1.0,-3.0,4.0,16.0,20.0,6.0,5.0,1651068767591003.0
-14.0,-7.0,-3.0,-4.0,-3.0,-4.0,-14.0,-29.0,1651068767612130.0
4.0,5.0,9.0,13.0,14.0,9.0,10.0,12.0,1651068767612130.0
-4.0,-1.0,0.0,4.0,-5.0,-6.0,1.0,0.0,1651068767614076.0
12.0,5.0,-1.0,-51.0,-15.0,-5.0,5.0,10.0,1651068767614076.0
-7.0,-3.0,0.0,27.0,16.0,2.0,-6.0,-13.0,1651068767625603.0
-1.0,1.0,5.0,18.0,-4.0,-2.0,0.0,2.0,1651068767625603.0
1.0,-3.0,-13.0,-30.0,6.0,6.0,2.0,3.0,1651068767634530.0
-9.0,-5.0,6.0,25.0,-4.0,-12.0,-8.0,-15.0,1651068767634530.0
1.0,-6.0,-8.0,-14.0,-17.0,-15.0,-5.0,5.0,1651068767650010.0
-9.0,-6.0,0.0,8.0,15.0,25.0,1.0,-19.0,1651068767650010.0
3.0,5.0,6.0,14.0,2.0,-5.0,4.0,5.0,1651068767651010.0
-2.0,0.0,0.0,6.0,3.0,4.0,-5.0,-9.0,1651068767651010.0
-2.0,-4.0,2.0,-12.0,-6.0,1.0,3.0,-3.0,1651068767679205.0
5.0,-1.0,-11.0,-9.0,-18.0,-14.0,-3.0,18.0,1651068767679205.0
-6.0,-2.0,-3.0,-8.0,11.0,2.0,-9.0,-13.0,1651068767681200.0
3.0,3.0,2.0,23.0,-4.0,-7.0,3.0,15.0,1651068767681200.0
-8.0,7.0,10.0,8.0,5.0,15.0,6.0,-39.0,1651068767685189.0
-6.0,-5.0,11.0,11.0,5.0,-1.0,-8.0,-11.0,1651068767685189.0
2.0,-8.0,-34.0,-35.0,10.0,12.0,4.0,12.0,1651068767694878.0
-1.0,-1.0,6.0,11.0,-19.0,-14.0,-7.0,-8.0,1651068767694878.0
-1.0,-7.0,-7.0,12.0,5.0,8.0,1.0,12.0,1651068767709950.0
7.0,7.0,31.0,24.0,13.0,2.0,11.0,16.0,1651068767709950.0
-16.0,-11.0,-7.0,-57.0,-22.0,-8.0,-5.0,-27.0,1651068767710920.0
3.0,4.0,4.0,8.0,2.0,-3.0,-2.0,-4.0,1651068767710920.0
1.0,-3.0,-7.0,-11.0,17.0,5.0,3.0,1.0,1651068767732482.0
-3.0,-4.0,-12.0,7.0,-18.0,-5.0,-1.0,-1.0,1651068767732482.0
12.0,9.0,5.0,16.0,5.0,-3.0,3.0,24.0,1651068767733487.0
2.0,1.0,7.0,-2.0,-2.0,1.0,6.0,7.0,1651068767733487.0
4.0,2.0,-6.0,-21.0,-19.0,-5.0,0.0,3.0,1651068767745941.0
-5.0,-3.0,-2.0,0.0,15.0,7.0,-5.0,-10.0,1651068767745941.0
4.0,7.0,21.0,52.0,12.0,2.0,-1.0,7.0,1651068767754866.0
-6.0,-9.0,-20.0,-19.0,10.0,6.0,-1.0,-8.0,1651068767754866.0
9.0,8.0,6.0,-32.0,-14.0,-6.0,6.0,17.0,1651068767769993.0
-6.0,-7.0,-17.0,-21.0,-13.0,-11.0,-4.0,-3.0,1651068767769993.0
-1.0,-2.0,-9.0,5.0,1.0,2.0,0.0,-7.0,1651068767770922.0
0.0,2.0,23.0,18.0,-6.0,-1.0,2.0,-7.0,1651068767770922.0
0.0,-5.0,0.0,7.0,2.0,-4.0,0.0,6.0,1651068767792175.0
1.0,-1.0,-19.0,-8.0,2.0,2.0,3.0,0.0,1651068767792175.0
5.0,3.0,9.0,13.0,13.0,2.0,1.0,5.0,1651068767793138.0
-8.0,-8.0,-21.0,-44.0,-25.0,-13.0,-7.0,1.0,1651068767793138.0
7.0,5.0,11.0,27.0,36.0,15.0,8.0,10.0,1651068767806127.0
-2.0,-2.0,-6.0,-7.0,-10.0,-9.0,-9.0,-10.0,1651068767806127.0
-1.0,0.0,11.0,4.0,5.0,3.0,-4.0,-5.0,1651068767815096.0
-2.0,1.0,-7.0,9.0,8.0,11.0,13.0,1.0,1651068767815096.0
9.0,5.0,6.0,-4.0,-15.0,-7.0,2.0,29.0,1651068767829036.0
-8.0,-8.0,-4.0,-3.0,13.0,-7.0,-8.0,-15.0,1651068767829036.0
7.0,-1.0,-7.0,5.0,14.0,18.0,13.0,17.0,1651068767831007.0
-2.0,0.0,9.0,-1.0,-4.0,-6.0,-6.0,-7.0,1651068767831007.0
-7.0,-6.0,-22.0,-13.0,-15.0,-4.0,0.0,-3.0,1651068767852194.0
3.0,5.0,20.0,-5.0,5.0,5.0,5.0,7.0,1651068767852194.0
-2.0,2.0,9.0,10.0,-13.0,-7.0,-5.0,-9.0,1651068767853125.0
10.0,3.0,-6.0,11.0,21.0,13.0,10.0,25.0,1651068767853125.0
-8.0,-5.0,-11.0,-17.0,6.0,-3.0,-15.0,-21.0,1651068767866134.0
2.0,4.0,6.0,0.0,2.0,1.0,1.0,-2.0,1651068767866134.0
4.0,3.0,3.0,-1.0,-20.0,-6.0,-1.0,7.0,1651068767874949.0
-1.0,-1.0,-1.0,10.0,-1.0,1.0,-2.0,-4.0,1651068767874949.0
-4.0,2.0,7.0,-11.0,-13.0,-12.0,0.0,-5.0,1651068767890031.0
0.0,-3.0,-3.0,24.0,3.0,3.0,5.0,6.0,1651068767890031.0
1.0,0.0,-14.0,-15.0,5.0,4.0,3.0,5.0,1651068767890991.0
-1.0,-5.0,-2.0,-10.0,-4.0,-10.0,-7.0,-4.0,1651068767890991.0
-3.0,-2.0,-4.0,-2.0,-14.0,-4.0,-4.0,-6.0,1651068767912046.0
2.0,3.0,9.0,-7.0,-11.0,2.0,-1.0,1.0,1651068767912046.0
-8.0,-6.0,-10.0,0.0,9.0,-4.0,-5.0,-13.0,1651068767913974.0
-5.0,-2.0,1.0,19.0,-7.0,-4.0,-1.0,-6.0,1651068767913974.0
3.0,0.0,-14.0,-41.0,8.0,14.0,3.0,6.0,1651068767926005.0
4.0,5.0,2.0,-5.0,-5.0,3.0,4.0,12.0,1651068767926005.0
-18.0,-12.0,-7.0,7.0,-4.0,-15.0,-19.0,-34.0,1651068767935103.0
0.0,-3.0,1.0,3.0,-2.0,-2.0,3.0,6.0,1651068767935103.0
5.0,6.0,9.0,0.0,12.0,5.0,3.0,0.0,1651068767949437.0
-1.0,-2.0,-11.0,-22.0,-23.0,-10.0,-3.0,4.0,1651068767949437.0
7.0,7.0,9.0,0.0,12.0,12.0,5.0,8.0,1651068767951432.0
-1.0,3.0,-1.0,-2.0,-2.0,-7.0,-6.0,-5.0,1651068767951432.0
-1.0,-5.0,3.0,24.0,-6.0,-4.0,-3.0,-4.0,1651068767972531.0
-2.0,-1.0,5.0,10.0,28.0,14.0,4.0,3.0,1651068767972531.0
8.0,8.0,8.0,-14.0,-8.0,7.0,11.0,11.0,1651068767973544.0
-2.0,-6.0,-14.0,-3.0,17.0,11.0,3.0,-2.0,1651068767973544.0
1.0,2.0,7.0,23.0,-11.0,-6.0,-1.0,8.0,1651068767985565.0
-4.0,2.0,15.0,-1.0,-5.0,-8.0,-7.0,-14.0,1651068767985565.0
-2.0,-3.0,-12.0,0.0,-11.0,-6.0,0.0,-1.0,1651068767994482.0
5.0,5.0,6.0,-10.0,-1.0,7.0,4.0,13.0,1651068767994482.0
-16.0,-9.0,-5.0,12.0,-4.0,-7.0,-13.0,-35.0,1651068768009954.0
7.0,1.0,-22.0,-11.0,5.0,-5.0,3.0,10.0,1651068768009954.0
-3.0,2.0,18.0,-8.0,-13.0,-7.0,-2.0,-7.0,1651068768010960.0
-8.0,-5.0,-7.0,-5.0,-16.0,-3.0,-2.0,-9.0,1651068768010960.0
8.0,3.0,-1.0,7.0,2.0,-2.0,5.0,18.0,1651068768031996.0
-2.0,-1.0,-8.0,-7.0,-8.0,-6.0,-12.0,-6.0,1651068768031996.0
-9.0,-7.0,-10.0,1.0,-6.0,-4.0,-3.0,-9.0,1651068768033991.0
0.0,7.0,26.0,14.0,10.0,-1.0,0.0,-2.0,1651068768033991.0
-1.0,-1.0,-10.0,-12.0,5.0,17.0,4.0,-3.0,1651068768054757.0
5.0,4.0,9.0,11.0,0.0,-3.0,1.0,6.0,1651068768054757.0
2.0,4.0,7.0,-23.0,-3.0,-5.0,1.0,1.0,1651068768055714.0
-3.0,-7.0,-16.0,26.0,-3.0,1.0,0.0,-3.0,1651068768055714.0
2.0,-2.0,3.0,4.0,4.0,6.0,2.0,8.0,1651068768069946.0
-6.0,-6.0,-27.0,-10.0,3.0,8.0,0.0,-14.0,1651068768069946.0
4.0,3.0,20.0,12.0,9.0,0.0,-3.0,8.0,1651068768070758.0
-7.0,-6.0,-4.0,-9.0,-12.0,-13.0,0.0,-14.0,1651068768070758.0
1.0,2.0,11.0,4.0,9.0,1.0,0.0,2.0,1651068768091616.0
-3.0,-2.0,-3.0,-13.0,-14.0,-9.0,4.0,5.0,1651068768091616.0
0.0,-5.0,-8.0,-5.0,9.0,7.0,-1.0,-7.0,1651068768093614.0
-3.0,-1.0,0.0,1.0,-5.0,-3.0,-8.0,-10.0,1651068768093614.0
3.0,-1.0,-11.0,-37.0,-10.0,-10.0,-2.0,7.0,1651068768114897.0
-7.0,2.0,19.0,17.0,5.0,-2.0,-7.0,-16.0,1651068768114897.0
3.0,-1.0,-8.0,12.0,3.0,-1.0,-1.0,8.0,1651068768115829.0
4.0,3.0,12.0,10.0,19.0,7.0,-2.0,3.0,1651068768115829.0
-5.0,-3.0,-16.0,-23.0,-9.0,6.0,8.0,-5.0,1651068768129857.0
4.0,5.0,25.0,17.0,-5.0,-5.0,-3.0,6.0,1651068768129857.0
10.0,-6.0,-31.0,-16.0,-12.0,3.0,8.0,16.0,1651068768130789.0
-14.0,-7.0,-15.0,9.0,5.0,-9.0,-8.0,-27.0,1651068768130789.0
2.0,2.0,11.0,8.0,-12.0,-10.0,-5.0,5.0,1651068768151904.0
5.0,1.0,-5.0,16.0,15.0,12.0,11.0,6.0,1651068768151904.0
-7.0,-2.0,18.0,1.0,-10.0,-8.0,-5.0,-4.0,1651068768153831.0
14.0,6.0,-3.0,-22.0,3.0,7.0,7.0,26.0,1651068768153831.0
-7.0,-2.0,-5.0,13.0,2.0,2.0,-1.0,-11.0,1651068768173998.0
-5.0,-4.0,-4.0,9.0,0.0,-2.0,-4.0,-7.0,1651068768173998.0
-2.0,1.0,-1.0,-22.0,-26.0,-20.0,-6.0,-3.0,1651068768182090.0
3.0,0.0,-5.0,-1.0,20.0,20.0,8.0,12.0,1651068768182090.0
-1.0,0.0,0.0,19.0,5.0,-8.0,0.0,0.0,1651068768189078.0
5.0,-4.0,-8.0,-30.0,-4.0,-1.0,6.0,10.0,1651068768189078.0
-6.0,3.0,22.0,30.0,-5.0,2.0,-3.0,-14.0,1651068768196059.0
0.0,-4.0,-22.0,-14.0,-17.0,-8.0,2.0,9.0,1651068768196059.0
4.0,1.0,-1.0,6.0,11.0,1.0,-3.0,-2.0,1651068768211723.0
-8.0,-4.0,-9.0,-14.0,-13.0,-6.0,-5.0,-10.0,1651068768211723.0
7.0,3.0,6.0,7.0,24.0,4.0,2.0,12.0,1651068768213747.0
-2.0,0.0,-2.0,-12.0,-19.0,-10.0,-6.0,-9.0,1651068768213747.0
-1.0,6.0,32.0,40.0,6.0,5.0,-1.0,-1.0,1651068768234785.0
-6.0,-11.0,-31.0,-35.0,-14.0,-8.0,-9.0,-15.0,1651068768234785.0
-3.0,2.0,2.0,4.0,8.0,3.0,0.0,1.0,1651068768236803.0
2.0,1.0,1.0,5.0,8.0,12.0,1.0,2.0,1651068768236803.0
4.0,-1.0,11.0,-3.0,-16.0,-13.0,-2.0,7.0,1651068768248750.0
7.0,3.0,2.0,10.0,4.0,5.0,0.0,9.0,1651068768248750.0
-2.0,1.0,-1.0,7.0,5.0,5.0,-1.0,-10.0,1651068768255735.0
7.0,4.0,16.0,-12.0,-2.0,-5.0,2.0,15.0,1651068768255735.0
-7.0,-2.0,5.0,21.0,-2.0,-1.0,-4.0,-18.0,1651068768272191.0
-4.0,-7.0,-29.0,-15.0,-5.0,3.0,0.0,-3.0,1651068768272191.0
5.0,7.0,23.0,14.0,2.0,-4.0,1.0,7.0,1651068768273147.0
1.0,-2.0,-14.0,-13.0,4.0,-5.0,-6.0,2.0,1651068768273147.0
-2.0,5.0,20.0,-7.0,-4.0,0.0,3.0,3.0,1651068768294764.0
2.0,3.0,17.0,18.0,16.0,15.0,5.0,8.0,1651068768294764.0
-5.0,-10.0,-28.0,-28.0,1.0,7.0,-1.0,-10.0,1651068768295776.0
3.0,3.0,5.0,0.0,-10.0,-6.0,-2.0,-1.0,1651068768295776.0
4.0,-1.0,-8.0,-1.0,-2.0,-1.0,7.0,17.0,1651068768309189.0
-3.0,2.0,8.0,2.0,2.0,-5.0,-2.0,-9.0,1651068768309189.0
7.0,1.0,-9.0,-4.0,-4.0,-3.0,-1.0,9.0,1651068768316199.0
-2.0,0.0,12.0,14.0,-8.0,-4.0,-2.0,-2.0,1651068768316199.0
1.0,-1.0,-12.0,-20.0,4.0,5.0,1.0,0.0,1651068768332233.0
0.0,2.0,6.0,13.0,3.0,3.0,1.0,5.0,1651068768332233.0
0.0,2.0,4.0,-6.0,-10.0,-1.0,2.0,3.0,1651068768333204.0
-7.0,-4.0,1.0,20.0,-18.0,-18.0,-9.0,-13.0,1651068768333204.0
6.0,-2.0,-10.0,13.0,30.0,16.0,3.0,4.0,1651068768354834.0
-5.0,-2.0,-2.0,-15.0,2.0,3.0,-1.0,-8.0,1651068768354834.0
-4.0,-1.0,16.0,31.0,5.0,-4.0,-5.0,-2.0,1651068768355843.0
4.0,1.0,-12.0,-64.0,-13.0,2.0,8.0,2.0,1651068768355843.0
-4.0,-1.0,8.0,25.0,-14.0,-17.0,-13.0,-10.0,1651068768369335.0
6.0,0.0,-1.0,-4.0,-19.0,0.0,4.0,14.0,1651068768369335.0
-9.0,-8.0,-28.0,-5.0,29.0,11.0,1.0,-18.0,1651068768375320.0
-3.0,1.0,26.0,17.0,0.0,-5.0,-4.0,-5.0,1651068768375320.0
2.0,-5.0,-14.0,-11.0,-1.0,9.0,1.0,-7.0,1651068768391783.0
-6.0,-2.0,7.0,-30.0,-19.0,-12.0,-8.0,-10.0,1651068768391783.0
-1.0,-3.0,-13.0,1.0,-10.0,-13.0,-4.0,2.0,1651068768393760.0
0.0,1.0,1.0,-3.0,15.0,15.0,3.0,1.0,1651068768393760.0
-2.0,-2.0,-14.0,3.0,0.0,2.0,-2.0,-3.0,1651068768414949.0
1.0,4.0,24.0,35.0,4.0,-2.0,1.0,6.0,1651068768414949.0
1.0,-1.0,-17.0,-45.0,-9.0,-7.0,3.0,2.0,1651068768415931.0
-13.0,-8.0,-11.0,2.0,13.0,3.0,-3.0,-15.0,1651068768415931.0
-1.0,1.0,4.0,-12.0,-12.0,-1.0,9.0,11.0,1651068768428963.0
0.0,-3.0,-10.0,7.0,14.0,4.0,1.0,2.0,1651068768428963.0
2.0,0.0,8.0,16.0,-9.0,-8.0,-2.0,-2.0,1651068768435945.0
9.0,6.0,7.0,9.0,-2.0,2.0,3.0,19.0,1651068768435945.0
-11.0,-9.0,-13.0,-22.0,-10.0,-8.0,-14.0,-26.0,1651068768452087.0
0.0,1.0,7.0,13.0,9.0,-7.0,-1.0,-1.0,1651068768452087.0
2.0,-2.0,-2.0,-5.0,-3.0,5.0,3.0,5.0,1651068768458071.0
3.0,2.0,2.0,8.0,-20.0,-4.0,0.0,7.0,1651068768458071.0
-3.0,-1.0,-6.0,-3.0,13.0,-1.0,-13.0,-6.0,1651068768474153.0
0.0,3.0,0.0,4.0,-7.0,-4.0,5.0,0.0,1651068768474153.0
1.0,-1.0,15.0,9.0,-3.0,2.0,-1.0,3.0,1651068768476156.0
-3.0,-3.0,-6.0,3.0,5.0,2.0,-3.0,-9.0,1651068768476156.0
0.0,0.0,6.0,0.0,-4.0,-2.0,1.0,4.0,1651068768489184.0
1.0,-1.0,-4.0,-5.0,-4.0,-1.0,-3.0,-3.0,1651068768489184.0
-2.0,-3.0,-6.0,-4.0,3.0,1.0,-8.0,0.0,1651068768496139.0
-4.0,-4.0,-3.0,9.0,7.0,4.0,11.0,-5.0,1651068768496139.0
1.0,0.0,3.0,-13.0,-5.0,-1.0,7.0,3.0,1651068768512181.0
0.0,-2.0,-12.0,2.0,8.0,3.0,-1.0,2.0,1651068768512181.0
-1.0,3.0,12.0,11.0,0.0,1.0,-1.0,0.0,1651068768514106.0
2.0,0.0,4.0,-3.0,0.0,-4.0,-1.0,0.0,1651068768514106.0
2.0,0.0,-15.0,5.0,2.0,1.0,5.0,6.0,1651068768534975.0
-3.0,-2.0,1.0,-4.0,-1.0,0.0,-1.0,-4.0,1651068768534975.0
2.0,3.0,5.0,8.0,0.0,0.0,2.0,3.0,1651068768535899.0
-2.0,0.0,-1.0,-6.0,2.0,1.0,-2.0,-2.0,1651068768535899.0
-1.0,-1.0,0.0,-3.0,-1.0,0.0,-3.0,-3.0,1651068768547867.0
-19.0,-4.0,-2.0,-24.0,-2.0,-1.0,-3.0,-2.0,1651068768547867.0
27.0,5.0,0.0,6.0,0.0,0.0,-2.0,1.0,1651068768556851.0
-2.0,1.0,-2.0,0.0,6.0,2.0,-1.0,-4.0,1651068768556851.0
-1.0,-1.0,3.0,-5.0,-5.0,-5.0,-5.0,-1.0,1651068768579950.0
3.0,3.0,7.0,13.0,5.0,2.0,7.0,7.0,1651068768579950.0
1.0,5.0,3.0,-3.0,-1.0,-2.0,0.0,-2.0,1651068768580948.0
-22.0,-22.0,-26.0,2.0,-2.0,-3.0,-2.0,-6.0,1651068768580948.0
1.0,3.0,21.0,7.0,-3.0,-4.0,0.0,3.0,1651068768594971.0
-10.0,-12.0,-7.0,-12.0,-8.0,-3.0,-6.0,-6.0,1651068768594971.0
-7.0,-7.0,-5.0,-3.0,-2.0,0.0,-2.0,-3.0,1651068768595962.0
10.0,13.0,-2.0,1.0,3.0,-2.0,1.0,3.0,1651068768595962.0
-6.0,-2.0,4.0,9.0,3.0,1.0,-2.0,0.0,1651068768607994.0
4.0,1.0,-11.0,-8.0,1.0,2.0,-2.0,0.0,1651068768607994.0
-8.0,-2.0,-8.0,6.0,6.0,1.0,2.0,0.0,1651068768616903.0
0.0,-2.0,3.0,-6.0,-11.0,-4.0,-3.0,0.0,1651068768616903.0
3.0,2.0,-3.0,-1.0,-2.0,0.0,1.0,2.0,1651068768631863.0
8.0,6.0,6.0,4.0,6.0,1.0,0.0,-1.0,1651068768631863.0
-2.0,-2.0,-1.0,3.0,-4.0,1.0,3.0,1.0,1651068768633884.0
1.0,0.0,-2.0,-7.0,0.0,1.0,-3.0,1.0,1651068768633884.0
1.0,1.0,5.0,-6.0,1.0,2.0,-1.0,-3.0,1651068768654942.0
5.0,1.0,-5.0,13.0,2.0,0.0,0.0,2.0,1651068768654942.0
-9.0,-6.0,-3.0,-4.0,-1.0,-2.0,-2.0,-2.0,1651068768655799.0
1.0,-1.0,4.0,-3.0,-4.0,-2.0,-1.0,1.0,1651068768655799.0
-1.0,-1.0,-6.0,-2.0,0.0,-1.0,1.0,2.0,1651068768667835.0
0.0,-2.0,-5.0,-3.0,1.0,0.0,-1.0,0.0,1651068768667835.0
-1.0,2.0,2.0,3.0,-2.0,-3.0,2.0,1.0,1651068768676742.0
2.0,2.0,1.0,-4.0,5.0,1.0,0.0,0.0,1651068768676742.0
-1.0,-2.0,-6.0,1.0,-5.0,-1.0,2.0,1.0,1651068768691916.0
3.0,3.0,7.0,-2.0,-1.0,0.0,1.0,0.0,1651068768691916.0
-5.0,0.0,3.0,-1.0,-1.0,0.0,-2.0,-4.0,1651068768693844.0
4.0,1.0,-3.0,0.0,-2.0,-1.0,1.0,0.0,1651068768693844.0
-3.0,-2.0,-2.0,-5.0,4.0,1.0,-2.0,-1.0,1651068768714933.0
1.0,2.0,3.0,2.0,1.0,-3.0,-1.0,0.0,1651068768714933.0
-1.0,-2.0,-3.0,-3.0,-2.0,-2.0,0.0,0.0,1651068768715852.0
-8.0,0.0,2.0,-8.0,-2.0,-3.0,-2.0,-1.0,1651068768715852.0
8.0,-1.0,2.0,19.0,8.0,4.0,3.0,2.0,1651068768727952.0
2.0,1.0,3.0,-1.0,-3.0,-2.0,0.0,0.0,1651068768727952.0
-1.0,-2.0,-3.0,-5.0,-2.0,2.0,1.0,0.0,1651068768736866.0
-1.0,1.0,2.0,4.0,-2.0,0.0,0.0,-1.0,1651068768736866.0
-3.0,-1.0,-4.0,-4.0,-2.0,-3.0,-1.0,-2.0,1651068768751894.0
-1.0,-1.0,-1.0,0.0,0.0,-2.0,0.0,0.0,1651068768751894.0
0.0,-1.0,0.0,-2.0,0.0,0.0,1.0,0.0,1651068768753848.0
2.0,-1.0,0.0,6.0,2.0,-2.0,-1.0,0.0,1651068768753848.0
-1.0,0.0,-3.0,-4.0,-3.0,-1.0,0.0,-2.0,1651068768774809.0
1.0,-1.0,0.0,0.0,1.0,0.0,0.0,-1.0,1651068768774809.0
-2.0,-1.0,1.0,-2.0,-3.0,-2.0,1.0,-1.0,1651068768775809.0
0.0,1.0,-7.0,2.0,-1.0,0.0,0.0,-1.0,1651068768775809.0
-2.0,2.0,14.0,-3.0,-3.0,-1.0,-3.0,-1.0,1651068768787845.0
-2.0,1.0,-4.0,-1.0,-1.0,1.0,-1.0,-1.0,1651068768787845.0
-2.0,-1.0,0.0,1.0,1.0,1.0,-1.0,0.0,1651068768796819.0
1.0,-1.0,1.0,1.0,1.0,0.0,-1.0,-3.0,1651068768796819.0
-3.0,-2.0,-11.0,-5.0,0.0,-1.0,0.0,-1.0,1651068768812207.0
1.0,-2.0,11.0,2.0,-1.0,-1.0,-2.0,0.0,1651068768812207.0
0.0,0.0,-14.0,-6.0,-1.0,-1.0,0.0,0.0,1651068768813162.0
-1.0,-2.0,0.0,-1.0,-2.0,0.0,-1.0,0.0,1651068768813162.0
-2.0,-2.0,-7.0,-4.0,1.0,0.0,-1.0,2.0,1651068768834905.0
0.0,1.0,2.0,0.0,-1.0,0.0,-1.0,-1.0,1651068768834905.0
-1.0,0.0,0.0,2.0,0.0,0.0,1.0,-1.0,1651068768835848.0
-1.0,-4.0,-10.0,-4.0,-1.0,1.0,0.0,0.0,1651068768835848.0
0.0,1.0,15.0,5.0,0.0,-2.0,-1.0,-2.0,1651068768847817.0
1.0,1.0,5.0,2.0,0.0,-2.0,0.0,1.0,1651068768847817.0
-2.0,-2.0,13.0,4.0,0.0,-2.0,-2.0,-1.0,1651068768856811.0
2.0,2.0,-13.0,-6.0,1.0,1.0,3.0,-1.0,1651068768856811.0
-1.0,0.0,-8.0,-3.0,-1.0,0.0,1.0,-2.0,1651068768872480.0
1.0,-3.0,-23.0,-2.0,0.0,0.0,-1.0,0.0,1651068768872480.0
0.0,-1.0,8.0,0.0,0.0,1.0,-1.0,2.0,1651068768873480.0
1.0,-2.0,-7.0,1.0,-2.0,-2.0,-2.0,-2.0,1651068768873480.0
0.0,2.0,11.0,-3.0,-2.0,2.0,-1.0,1.0,1651068768902531.0
0.0,1.0,-2.0,-2.0,-1.0,-2.0,0.0,-2.0,1651068768902531.0
0.0,-6.0,-24.0,-6.0,0.0,1.0,1.0,1.0,1651068768903541.0
-1.0,9.0,22.0,8.0,-2.0,-3.0,-3.0,0.0,1651068768903541.0
1.0,0.0,1.0,1.0,0.0,-1.0,-1.0,-1.0,1651068768908543.0
-3.0,1.0,14.0,2.0,-2.0,-2.0,-1.0,-2.0,1651068768908543.0
-1.0,0.0,-3.0,0.0,0.0,1.0,0.0,0.0,1651068768917498.0
1.0,-4.0,-11.0,-5.0,1.0,-1.0,0.0,-1.0,1651068768917498.0
-1.0,-5.0,-8.0,0.0,1.0,1.0,1.0,-1.0,1651068768931524.0
0.0,-3.0,-18.0,-2.0,2.0,0.0,1.0,1.0,1651068768931524.0
0.0,8.0,28.0,2.0,1.0,-1.0,1.0,0.0,1651068768938576.0
-2.0,1.0,20.0,6.0,-1.0,-2.0,-1.0,-1.0,1651068768938576.0
1.0,0.0,14.0,7.0,-1.0,-1.0,-2.0,0.0,1651068768954684.0
0.0,-5.0,-60.0,-25.0,-3.0,0.0,-2.0,0.0,1651068768954684.0
-1.0,-4.0,-3.0,3.0,-2.0,2.0,-1.0,0.0,1651068768955615.0
0.0,-2.0,-7.0,-1.0,1.0,0.0,-1.0,1.0,1651068768955615.0
-2.0,-2.0,-4.0,-4.0,-3.0,-1.0,-1.0,1.0,1651068768976789.0
0.0,4.0,21.0,7.0,1.0,1.0,0.0,0.0,1651068768976789.0
-1.0,3.0,0.0,3.0,-1.0,-2.0,-2.0,-3.0,1651068768978792.0
-1.0,-6.0,-20.0,-7.0,0.0,0.0,1.0,0.0,1651068768978792.0
-1.0,1.0,11.0,4.0,1.0,-3.0,-2.0,-2.0,1651068768992502.0
0.0,-1.0,3.0,1.0,-4.0,0.0,1.0,1.0,1651068768992502.0
-1.0,-3.0,-39.0,-13.0,-2.0,1.0,1.0,-1.0,1651068768993502.0
0.0,-1.0,13.0,12.0,1.0,1.0,0.0,0.0,1651068768993502.0
-2.0,-2.0,-6.0,0.0,7.0,4.0,2.0,0.0,1651068769014701.0
0.0,1.0,22.0,7.0,-2.0,-1.0,-1.0,-2.0,1651068769014701.0
0.0,-2.0,-3.0,-2.0,1.0,-1.0,-1.0,0.0,1651068769015709.0
-1.0,3.0,-3.0,-5.0,-4.0,-1.0,-1.0,-1.0,1651068769015709.0
-1.0,-5.0,-17.0,-2.0,0.0,-1.0,-1.0,-2.0,1651068769036658.0
-1.0,-1.0,4.0,2.0,2.0,0.0,-1.0,-1.0,1651068769036658.0
-2.0,1.0,4.0,0.0,-3.0,-2.0,-1.0,0.0,1651068769038640.0
-1.0,0.0,5.0,-2.0,-1.0,0.0,0.0,2.0,1651068769038640.0
3.0,3.0,9.0,1.0,-4.0,-1.0,-1.0,-2.0,1651068769051717.0
0.0,0.0,2.0,-2.0,-2.0,-2.0,1.0,1.0,1651068769051717.0
-1.0,2.0,19.0,9.0,-1.0,0.0,0.0,0.0,1651068769053645.0
-1.0,-1.0,5.0,1.0,2.0,1.0,-1.0,0.0,1651068769053645.0
-1.0,4.0,5.0,-1.0,1.0,2.0,0.0,1.0,1651068769074671.0
0.0,1.0,15.0,-2.0,-4.0,-2.0,-2.0,-2.0,1651068769074671.0
-2.0,1.0,-1.0,2.0,1.0,-2.0,0.0,-1.0,1651068769075698.0
-1.0,-1.0,5.0,3.0,0.0,0.0,0.0,-3.0,1651068769075698.0
0.0,-1.0,-5.0,-2.0,-1.0,-1.0,0.0,0.0,1651068769096761.0
1.0,-1.0,-8.0,-2.0,-1.0,1.0,-1.0,0.0,1651068769096761.0
-1.0,0.0,2.0,0.0,1.0,-1.0,-1.0,0.0,1651068769098716.0
0.0,-2.0,3.0,0.0,-1.0,-2.0,-1.0,1.0,1651068769098716.0
-2.0,0.0,-15.0,-2.0,-5.0,-2.0,0.0,-1.0,1651068769111721.0
0.0,-3.0,11.0,1.0,-3.0,3.0,3.0,0.0,1651068769111721.0
-2.0,-9.0,-73.0,-20.0,-2.0,-2.0,-2.0,-2.0,1651068769117706.0
0.0,5.0,49.0,6.0,-1.0,-1.0,0.0,-1.0,1651068769117706.0
-3.0,-2.0,-3.0,8.0,1.0,0.0,1.0,-1.0,1651068769134309.0
1.0,0.0,0.0,1.0,-1.0,-2.0,-1.0,0.0,1651068769134309.0
0.0,-1.0,15.0,2.0,-4.0,-1.0,0.0,-1.0,1651068769136332.0
0.0,-1.0,-16.0,-7.0,0.0,0.0,0.0,-1.0,1651068769136332.0
0.0,-1.0,-10.0,-6.0,-2.0,-2.0,0.0,-1.0,1651068769157397.0
-2.0,1.0,6.0,3.0,1.0,-3.0,0.0,-2.0,1651068769157397.0
0.0,0.0,8.0,1.0,0.0,-1.0,0.0,1.0,1651068769158327.0
0.0,-1.0,-11.0,-3.0,-2.0,0.0,-1.0,-1.0,1651068769158327.0
-2.0,0.0,5.0,-2.0,-1.0,1.0,1.0,0.0,1651068769171422.0
0.0,-2.0,-13.0,-1.0,1.0,0.0,-1.0,0.0,1651068769171422.0
0.0,2.0,17.0,3.0,1.0,2.0,-1.0,0.0,1651068769179400.0
1.0,-1.0,-12.0,-3.0,-1.0,2.0,0.0,-1.0,1651068769179400.0
0.0,-1.0,10.0,7.0,1.0,-1.0,-1.0,-1.0,1651068769194204.0
-2.0,2.0,16.0,-3.0,1.0,1.0,-1.0,0.0,1651068769194204.0
2.0,0.0,7.0,3.0,-1.0,-1.0,1.0,-1.0,1651068769196196.0
-2.0,-1.0,-9.0,-10.0,-4.0,-2.0,-1.0,0.0,1651068769196196.0
-2.0,-1.0,1.0,11.0,2.0,0.0,0.0,-3.0,1651068769217326.0
-1.0,-1.0,-8.0,-3.0,0.0,1.0,-1.0,-2.0,1651068769217326.0
0.0,0.0,9.0,2.0,-2.0,-1.0,0.0,-2.0,1651068769218283.0
0.0,1.0,4.0,1.0,1.0,0.0,-1.0,0.0,1651068769218283.0
-2.0,-4.0,-12.0,-10.0,0.0,-2.0,-2.0,-1.0,1651068769231363.0
0.0,0.0,-4.0,2.0,1.0,-1.0,-2.0,-1.0,1651068769231363.0
1.0,-1.0,-2.0,-2.0,0.0,-1.0,-3.0,0.0,1651068769238342.0
0.0,0.0,-6.0,1.0,0.0,0.0,0.0,1.0,1651068769238342.0
1.0,-1.0,-3.0,-6.0,-1.0,0.0,-1.0,2.0,1651068769262406.0
-1.0,-3.0,-6.0,1.0,0.0,-2.0,1.0,1.0,1651068769262406.0
-2.0,-1.0,4.0,-1.0,-1.0,-1.0,1.0,-1.0,1651068769263345.0
-1.0,-1.0,4.0,4.0,1.0,0.0,-1.0,-2.0,1651068769263345.0
-1.0,1.0,7.0,-1.0,1.0,0.0,-2.0,-2.0,1651068769276532.0
-2.0,-2.0,2.0,0.0,-2.0,0.0,0.0,-1.0,1651068769276532.0
-2.0,-4.0,-5.0,1.0,-1.0,-3.0,-1.0,-2.0,1651068769278471.0
-1.0,-2.0,-3.0,2.0,0.0,0.0,0.0,-1.0,1651068769278471.0
-2.0,-1.0,-6.0,-5.0,-2.0,-3.0,0.0,-1.0,1651068769291492.0
1.0,-1.0,-4.0,0.0,1.0,1.0,-1.0,1.0,1651068769291492.0
-1.0,1.0,16.0,1.0,0.0,1.0,2.0,-1.0,1651068769298473.0
-1.0,0.0,-16.0,-6.0,-2.0,-1.0,1.0,-1.0,1651068769298473.0
-1.0,-4.0,-22.0,-4.0,-2.0,0.0,-2.0,-1.0,1651068769314945.0
-1.0,-1.0,13.0,0.0,0.0,-1.0,-2.0,-1.0,1651068769314945.0
0.0,2.0,1.0,-1.0,-1.0,2.0,0.0,-1.0,1651068769316294.0
0.0,0.0,-3.0,0.0,-1.0,0.0,1.0,0.0,1651068769316294.0
-1.0,-1.0,0.0,-3.0,-2.0,-3.0,-2.0,1.0,1651068769344374.0
0.0,-3.0,-9.0,1.0,0.0,-1.0,1.0,0.0,1651068769344374.0
-1.0,-1.0,0.0,-2.0,-1.0,0.0,-3.0,-1.0,1651068769346400.0
1.0,-3.0,-1.0,-2.0,-2.0,-2.0,-1.0,0.0,1651068769346400.0
0.0,2.0,2.0,1.0,-1.0,2.0,1.0,1.0,1651068769351383.0
-1.0,1.0,-8.0,-3.0,-1.0,0.0,-1.0,-2.0,1651068769351383.0
-1.0,3.0,17.0,2.0,-1.0,-1.0,-1.0,1.0,1651068769358365.0
-2.0,-1.0,1.0,1.0,3.0,2.0,-1.0,0.0,1651068769358365.0
1.0,-2.0,5.0,-1.0,0.0,-2.0,-3.0,-1.0,1651068769374523.0
0.0,-2.0,-15.0,-6.0,0.0,2.0,2.0,0.0,1651068769374523.0
1.0,-1.0,-10.0,-2.0,3.0,0.0,1.0,1.0,1651068769376546.0
-2.0,0.0,-1.0,-3.0,-2.0,-2.0,1.0,0.0,1651068769376546.0
0.0,0.0,1.0,-3.0,-2.0,-1.0,1.0,-1.0,1651068769396783.0
-2.0,-3.0,-8.0,2.0,-1.0,-2.0,-1.0,-1.0,1651068769396783.0
0.0,0.0,-4.0,24.0,4.0,2.0,2.0,-1.0,1651068769398711.0
-1.0,-1.0,0.0,-21.0,-7.0,-4.0,-2.0,0.0,1651068769398711.0
-1.0,-1.0,-2.0,-5.0,-3.0,0.0,-1.0,-1.0,1651068769411678.0
-1.0,-1.0,4.0,0.0,-1.0,-1.0,1.0,0.0,1651068769411678.0
-1.0,1.0,0.0,-11.0,-4.0,-1.0,-1.0,-1.0,1651068769418657.0
0.0,-1.0,5.0,15.0,1.0,-2.0,-3.0,-3.0,1651068769418657.0
0.0,0.0,16.0,-3.0,-2.0,-2.0,-2.0,-2.0,1651068769435058.0
1.0,0.0,1.0,2.0,-1.0,-1.0,-3.0,-2.0,1651068769435058.0
-1.0,-2.0,-2.0,-2.0,2.0,1.0,2.0,-1.0,1651068769436055.0
-2.0,-2.0,4.0,2.0,2.0,1.0,0.0,-1.0,1651068769436055.0
2.0,-1.0,-10.0,-3.0,-1.0,0.0,0.0,1.0,1651068769457169.0
0.0,3.0,22.0,8.0,0.0,-1.0,-1.0,0.0,1651068769457169.0
2.0,-3.0,-12.0,-9.0,-4.0,-2.0,0.0,1.0,1651068769458099.0
0.0,-2.0,-8.0,-3.0,-1.0,0.0,-2.0,-1.0,1651068769458099.0
-1.0,1.0,-2.0,7.0,0.0,-2.0,0.0,-1.0,1651068769471215.0
2.0,0.0,9.0,0.0,-1.0,0.0,-1.0,2.0,1651068769471215.0
1.0,1.0,-1.0,-4.0,-1.0,1.0,1.0,0.0,1651068769480160.0
0.0,0.0,0.0,3.0,0.0,0.0,-1.0,-1.0,1651068769480160.0
-3.0,-1.0,-2.0,-1.0,0.0,2.0,0.0,0.0,1651068769494123.0
-1.0,-1.0,-4.0,-6.0,-2.0,-1.0,0.0,-1.0,1651068769494123.0
-3.0,-2.0,-3.0,-2.0,-3.0,0.0,-2.0,-2.0,1651068769496253.0
2.0,2.0,4.0,2.0,0.0,1.0,1.0,0.0,1651068769496253.0
-1.0,-2.0,2.0,0.0,-2.0,-1.0,0.0,-3.0,1651068769517428.0
-2.0,-3.0,-36.0,-15.0,0.0,0.0,-1.0,-2.0,1651068769517428.0
-1.0,-3.0,17.0,10.0,5.0,1.0,-1.0,0.0,1651068769518357.0
-1.0,0.0,3.0,1.0,0.0,0.0,-2.0,-1.0,1651068769518357.0
-2.0,1.0,3.0,-1.0,-1.0,1.0,0.0,1.0,1651068769531069.0
2.0,1.0,1.0,-1.0,-1.0,0.0,1.0,-1.0,1651068769531069.0
0.0,0.0,1.0,-2.0,-1.0,-1.0,-2.0,0.0,1651068769539401.0
-2.0,-2.0,-5.0,-1.0,-1.0,-2.0,0.0,-2.0,1651068769539401.0
-2.0,-3.0,-9.0,-2.0,-1.0,-4.0,1.0,0.0,1651068769555051.0
-1.0,0.0,3.0,3.0,0.0,0.0,1.0,0.0,1651068769555051.0
-1.0,-1.0,-4.0,-1.0,-1.0,0.0,-2.0,-2.0,1651068769556149.0
-2.0,-4.0,-7.0,-3.0,-1.0,0.0,-3.0,-3.0,1651068769556149.0
0.0,-3.0,-8.0,6.0,1.0,0.0,-2.0,-2.0,1651068769577262.0
-2.0,6.0,37.0,15.0,3.0,-1.0,-1.0,-1.0,1651068769577262.0
2.0,2.0,-1.0,0.0,-1.0,-2.0,1.0,2.0,1651068769578236.0
0.0,0.0,-2.0,-3.0,-1.0,1.0,0.0,0.0,1651068769578236.0
0.0,1.0,4.0,-5.0,-2.0,0.0,1.0,0.0,1651068769591168.0
-1.0,-1.0,-9.0,-1.0,-3.0,-1.0,-2.0,-2.0,1651068769591168.0
-1.0,-2.0,-7.0,-6.0,-4.0,-2.0,-1.0,0.0,1651068769599208.0
-1.0,2.0,13.0,4.0,-1.0,-2.0,1.0,-1.0,1651068769599208.0
0.0,-3.0,-12.0,1.0,2.0,0.0,0.0,1.0,1651068769614173.0
-1.0,-1.0,11.0,-1.0,-2.0,-1.0,-3.0,-2.0,1651068769614173.0
-1.0,-2.0,-24.0,-12.0,-1.0,0.0,0.0,0.0,1651068769616173.0
0.0,-1.0,-5.0,3.0,0.0,-1.0,-1.0,0.0,1651068769616173.0
1.0,2.0,2.0,0.0,0.0,1.0,-1.0,-1.0,1651068769636744.0
-1.0,0.0,-4.0,0.0,-3.0,-1.0,-1.0,0.0,1651068769636744.0
-1.0,1.0,7.0,-1.0,-2.0,0.0,-1.0,-1.0,1651068769638671.0
-1.0,0.0,1.0,-5.0,0.0,0.0,-1.0,1.0,1651068769638671.0
-1.0,-1.0,-3.0,-3.0,1.0,-1.0,-1.0,1.0,1651068769650708.0
0.0,-1.0,-7.0,3.0,0.0,-1.0,-1.0,1.0,1651068769650708.0
-1.0,1.0,2.0,-3.0,-4.0,-3.0,-1.0,-1.0,1651068769659614.0
1.0,-1.0,-7.0,3.0,0.0,2.0,2.0,1.0,1651068769659614.0
-2.0,0.0,-1.0,3.0,-2.0,0.0,-2.0,-1.0,1651068769674871.0
0.0,1.0,18.0,2.0,0.0,0.0,-1.0,0.0,1651068769674871.0
0.0,-1.0,-2.0,-4.0,-4.0,-3.0,-2.0,-1.0,1651068769675936.0
0.0,0.0,-2.0,10.0,4.0,1.0,0.0,0.0,1651068769675936.0
0.0,0.0,6.0,4.0,2.0,-1.0,1.0,0.0,1651068769696914.0
1.0,-3.0,-3.0,-4.0,-1.0,1.0,0.0,-1.0,1651068769696914.0
0.0,1.0,2.0,0.0,0.0,-1.0,-3.0,0.0,1651068769698842.0
-1.0,3.0,4.0,-4.0,-4.0,-2.0,-1.0,0.0,1651068769698842.0
1.0,-1.0,-5.0,-4.0,-3.0,-2.0,-1.0,0.0,1651068769710813.0
-1.0,2.0,13.0,6.0,-1.0,-2.0,0.0,-2.0,1651068769710813.0
1.0,-3.0,-8.0,-4.0,1.0,2.0,1.0,0.0,1651068769719785.0
-1.0,3.0,20.0,5.0,0.0,-1.0,-2.0,1.0,1651068769719785.0
1.0,1.0,3.0,2.0,-1.0,1.0,0.0,0.0,1651068769734990.0
-1.0,-1.0,-10.0,-10.0,-3.0,-1.0,-1.0,-1.0,1651068769734990.0
-1.0,-2.0,-3.0,9.0,3.0,0.0,0.0,-1.0,1651068769736072.0
0.0,-1.0,-4.0,-5.0,-3.0,-2.0,-1.0,-1.0,1651068769736072.0
0.0,-2.0,-6.0,-2.0,-1.0,-1.0,1.0,1.0,1651068769756669.0
-1.0,3.0,8.0,1.0,-1.0,0.0,1.0,0.0,1651068769756669.0
-1.0,0.0,2.0,1.0,-1.0,0.0,-1.0,-3.0,1651068769758666.0
0.0,-3.0,-6.0,-1.0,-1.0,-2.0,-1.0,-3.0,1651068769758666.0
0.0,3.0,3.0,-2.0,-1.0,-2.0,-3.0,-2.0,1651068769770758.0
1.0,-3.0,-15.0,-3.0,0.0,3.0,4.0,1.0,1651068769770758.0
-1.0,-2.0,-2.0,-3.0,-1.0,-2.0,-1.0,-3.0,1651068769779737.0
-2.0,1.0,19.0,-4.0,-2.0,-1.0,0.0,1.0,1651068769779737.0
-1.0,0.0,-4.0,11.0,3.0,0.0,-1.0,1.0,1651068769794775.0
-1.0,0.0,-9.0,-2.0,-2.0,-2.0,0.0,-1.0,1651068769794775.0
0.0,1.0,4.0,1.0,-3.0,-1.0,-1.0,0.0,1651068769795892.0
0.0,-1.0,-7.0,-4.0,-2.0,-2.0,-2.0,-2.0,1651068769795892.0
-2.0,-1.0,-10.0,-9.0,-3.0,-1.0,-1.0,-3.0,1651068769817354.0
0.0,-2.0,-3.0,0.0,1.0,2.0,1.0,2.0,1651068769817354.0
-2.0,-3.0,-2.0,-1.0,1.0,-3.0,0.0,0.0,1651068769818351.0
0.0,-3.0,-15.0,-2.0,-1.0,0.0,0.0,-1.0,1651068769818351.0
1.0,1.0,8.0,0.0,-3.0,-2.0,0.0,-1.0,1651068769830460.0
-1.0,-2.0,-10.0,1.0,-1.0,-1.0,-1.0,-1.0,1651068769830460.0
0.0,1.0,3.0,3.0,1.0,1.0,1.0,1.0,1651068769839420.0
0.0,-3.0,-20.0,-3.0,-2.0,-1.0,-2.0,1.0,1651068769839420.0
0.0,-2.0,6.0,1.0,0.0,0.0,-1.0,0.0,1651068769854368.0
0.0,-1.0,-4.0,-5.0,-1.0,-2.0,0.0,0.0,1651068769854368.0
-2.0,-1.0,1.0,-4.0,-2.0,-1.0,0.0,-1.0,1651068769856363.0
0.0,0.0,-1.0,6.0,1.0,1.0,1.0,1.0,1651068769856363.0
-2.0,-4.0,-4.0,-5.0,0.0,2.0,1.0,-2.0,1651068769877374.0
1.0,0.0,-6.0,-11.0,-3.0,-2.0,-5.0,0.0,1651068769877374.0
-1.0,-1.0,0.0,16.0,3.0,0.0,-1.0,0.0,1651068769878305.0
1.0,1.0,2.0,-3.0,0.0,1.0,1.0,-1.0,1651068769878305.0
0.0,0.0,2.0,0.0,1.0,-1.0,1.0,-1.0,1651068769890273.0
0.0,-3.0,-6.0,-2.0,0.0,-1.0,-1.0,-2.0,1651068769890273.0
0.0,2.0,20.0,1.0,-2.0,-1.0,-1.0,-2.0,1651068769899315.0
1.0,-3.0,-22.0,-7.0,-1.0,1.0,-1.0,-2.0,1651068769899315.0
-2.0,3.0,8.0,1.0,-1.0,1.0,1.0,-1.0,1651068769914443.0
-2.0,-2.0,-6.0,2.0,-1.0,-1.0,-3.0,-1.0,1651068769914443.0
0.0,0.0,2.0,-3.0,-2.0,0.0,1.0,0.0,1651068769916371.0
-1.0,-1.0,3.0,3.0,0.0,-2.0,-2.0,-1.0,1651068769916371.0
1.0,-1.0,-5.0,-8.0,-1.0,1.0,0.0,0.0,1651068769937030.0
0.0,1.0,2.0,3.0,0.0,-1.0,0.0,-1.0,1651068769937030.0
0.0,-1.0,-3.0,1.0,2.0,-1.0,0.0,0.0,1651068769938959.0
0.0,0.0,7.0,0.0,-1.0,-3.0,-1.0,-1.0,1651068769938959.0
-1.0,0.0,-4.0,4.0,1.0,-2.0,0.0,-2.0,1651068769959152.0
-3.0,-1.0,-1.0,0.0,-3.0,-2.0,-2.0,1.0,1651068769959152.0
0.0,2.0,18.0,-1.0,-2.0,0.0,-1.0,0.0,1651068769961080.0
-2.0,-1.0,-4.0,-3.0,-1.0,1.0,-1.0,-1.0,1651068769961080.0
-1.0,0.0,1.0,-1.0,0.0,-2.0,-3.0,0.0,1651068769974173.0
1.0,-4.0,-4.0,2.0,3.0,0.0,2.0,0.0,1651068769974173.0
-2.0,1.0,-4.0,-1.0,-1.0,0.0,-1.0,-1.0,1651068769976275.0
-1.0,-2.0,-12.0,-4.0,-1.0,0.0,1.0,1.0,1651068769976275.0
0.0,-2.0,-9.0,-2.0,-3.0,1.0,-1.0,1.0,1651068769997310.0
0.0,1.0,10.0,-2.0,1.0,-1.0,2.0,-2.0,1651068769997310.0
0.0,-2.0,-11.0,-1.0,-2.0,-2.0,-2.0,-1.0,1651068769998239.0
0.0,1.0,12.0,0.0,0.0,-1.0,0.0,-1.0,1651068769998239.0
1.0,-3.0,-7.0,2.0,-1.0,1.0,0.0,0.0,1651068770019337.0
-2.0,-1.0,-6.0,-2.0,-1.0,0.0,0.0,0.0,1651068770019337.0
0.0,1.0,-2.0,-2.0,-1.0,-3.0,-2.0,-1.0,1651068770021359.0
-1.0,0.0,5.0,3.0,-1.0,-3.0,-3.0,-3.0,1651068770021359.0
-1.0,-1.0,-3.0,-4.0,0.0,-1.0,3.0,-1.0,1651068770034297.0
0.0,1.0,8.0,2.0,0.0,0.0,0.0,-1.0,1651068770034297.0
0.0,-1.0,-4.0,-2.0,-1.0,-1.0,1.0,0.0,1651068770036291.0
-1.0,-2.0,5.0,-1.0,-1.0,-2.0,-2.0,0.0,1651068770036291.0
-1.0,-2.0,-1.0,4.0,3.0,0.0,-2.0,0.0,1651068770057366.0
-1.0,-1.0,-3.0,-2.0,-1.0,0.0,0.0,-1.0,1651068770057366.0
1.0,-1.0,-10.0,-1.0,1.0,-1.0,1.0,1.0,1651068770058364.0
-1.0,-2.0,0.0,-2.0,-3.0,0.0,-1.0,0.0,1651068770058364.0
0.0,1.0,10.0,1.0,0.0,-2.0,-1.0,-2.0,1651068770079355.0
-1.0,-1.0,-2.0,0.0,0.0,-1.0,-1.0,0.0,1651068770079355.0
0.0,0.0,0.0,-5.0,-1.0,0.0,0.0,-1.0,1651068770081380.0
2.0,-1.0,4.0,5.0,1.0,-1.0,-1.0,0.0,1651068770081380.0
-2.0,-1.0,1.0,-1.0,-2.0,-1.0,0.0,0.0,1651068770094349.0
-1.0,1.0,-1.0,-1.0,-1.0,1.0,1.0,-1.0,1651068770094349.0
-1.0,-1.0,3.0,-1.0,0.0,2.0,0.0,0.0,1651068770100337.0
0.0,1.0,3.0,-1.0,0.0,0.0,1.0,0.0,1651068770100337.0
1.0,0.0,-4.0,-2.0,-1.0,-1.0,1.0,-1.0,1651068770117448.0
-1.0,-1.0,-2.0,0.0,1.0,0.0,-1.0,0.0,1651068770117448.0
-1.0,0.0,0.0,-1.0,-2.0,-3.0,0.0,-1.0,1651068770118353.0
-1.0,-1.0,0.0,3.0,2.0,1.0,1.0,-1.0,1651068770118353.0
-1.0,2.0,7.0,2.0,0.0,-1.0,-3.0,1.0,1651068770139639.0
0.0,-1.0,-6.0,-4.0,0.0,0.0,1.0,0.0,1651068770139639.0
0.0,0.0,4.0,1.0,-1.0,2.0,-1.0,1.0,1651068770141566.0
-1.0,-2.0,-6.0,-2.0,-2.0,-1.0,1.0,-2.0,1651068770141566.0
-1.0,-1.0,-2.0,-4.0,-3.0,-3.0,0.0,-1.0,1651068770153602.0
0.0,0.0,6.0,4.0,0.0,0.0,-2.0,-1.0,1651068770153602.0
-1.0,-1.0,-4.0,-12.0,-6.0,-3.0,-2.0,-1.0,1651068770161067.0
1.0,0.0,0.0,17.0,2.0,-1.0,-1.0,0.0,1651068770161067.0
0.0,0.0,1.0,-1.0,2.0,2.0,-1.0,-1.0,1651068770177436.0
1.0,-2.0,-1.0,2.0,-2.0,2.0,2.0,2.0,1651068770177436.0
1.0,-1.0,-6.0,-3.0,-1.0,-2.0,0.0,-1.0,1651068770178368.0
0.0,-1.0,-4.0,-6.0,-7.0,-3.0,-1.0,1.0,1651068770178368.0
-1.0,1.0,0.0,2.0,8.0,6.0,1.0,-1.0,1651068770198380.0
-2.0,-1.0,1.0,2.0,2.0,0.0,0.0,0.0,1651068770198380.0
-1.0,1.0,-1.0,2.0,-1.0,-1.0,-1.0,-1.0,1651068770207292.0
-2.0,1.0,2.0,-6.0,-7.0,-3.0,-1.0,1.0,1651068770207292.0
2.0,-1.0,0.0,4.0,6.0,-1.0,0.0,-1.0,1651068770214267.0
-1.0,2.0,1.0,0.0,4.0,5.0,0.0,1.0,1651068770214267.0
-1.0,-2.0,-2.0,1.0,-3.0,0.0,0.0,1.0,1651068770221043.0
0.0,-1.0,0.0,0.0,1.0,-3.0,-2.0,-2.0,1651068770221043.0
0.0,1.0,-3.0,-6.0,-11.0,-9.0,-3.0,-1.0,1651068770236802.0
-1.0,0.0,-1.0,-1.0,5.0,4.0,0.0,0.0,1651068770236802.0
-2.0,-3.0,-3.0,2.0,-2.0,-2.0,0.0,1.0,1651068770238730.0
2.0,0.0,0.0,-1.0,7.0,5.0,1.0,1.0,1651068770238730.0
-1.0,0.0,0.0,-2.0,-8.0,-2.0,-2.0,-1.0,1651068770259627.0
-1.0,-3.0,-5.0,0.0,-2.0,-5.0,-2.0,-2.0,1651068770259627.0
-1.0,-1.0,-1.0,1.0,-1.0,0.0,-3.0,-1.0,1651068770260626.0
1.0,-1.0,0.0,-14.0,-6.0,-4.0,-1.0,0.0,1651068770260626.0
-2.0,-3.0,1.0,17.0,8.0,2.0,-2.0,-2.0,1651068770274267.0
1.0,-1.0,-2.0,-5.0,-6.0,-1.0,1.0,1.0,1651068770274267.0
0.0,1.0,2.0,9.0,19.0,11.0,3.0,0.0,1651068770280254.0
-3.0,0.0,3.0,-3.0,-7.0,-1.0,-1.0,-1.0,1651068770280254.0
0.0,1.0,-2.0,-3.0,1.0,5.0,-1.0,1.0,1651068770296641.0
1.0,0.0,1.0,-3.0,-11.0,-9.0,-6.0,-2.0,1651068770296641.0
-1.0,-2.0,-3.0,1.0,-8.0,-4.0,-1.0,-1.0,1651068770298569.0
-1.0,1.0,3.0,7.0,3.0,2.0,3.0,1.0,1651068770298569.0
-2.0,0.0,1.0,-5.0,-7.0,-3.0,1.0,1.0,1651068770320009.0
1.0,0.0,-2.0,-2.0,6.0,6.0,0.0,1.0,1651068770320009.0
-1.0,-1.0,2.0,4.0,0.0,-3.0,-2.0,-1.0,1651068770321009.0
-2.0,-1.0,-1.0,-2.0,0.0,0.0,-2.0,-3.0,1651068770321009.0
-1.0,-1.0,2.0,6.0,-2.0,-5.0,-3.0,-2.0,1651068770334231.0
0.0,-1.0,1.0,-3.0,-1.0,3.0,3.0,2.0,1651068770334231.0
0.0,-2.0,-1.0,-4.0,-4.0,-5.0,-3.0,0.0,1651068770341280.0
0.0,1.0,-1.0,1.0,-13.0,-1.0,-1.0,0.0,1651068770341280.0
-1.0,-1.0,-2.0,6.0,34.0,17.0,5.0,1.0,1651068770356400.0
3.0,3.0,5.0,-5.0,-15.0,-11.0,-2.0,-2.0,1651068770356400.0
-2.0,-4.0,-6.0,-2.0,11.0,8.0,3.0,-2.0,1651068770357354.0
1.0,0.0,3.0,6.0,-5.0,-3.0,-1.0,0.0,1651068770357354.0
2.0,-1.0,-2.0,-8.0,-11.0,0.0,0.0,1.0,1651068770378435.0
0.0,1.0,0.0,-5.0,-6.0,-4.0,1.0,-1.0,1651068770378435.0
0.0,0.0,2.0,6.0,2.0,2.0,1.0,0.0,1651068770379365.0
-2.0,-3.0,-4.0,-7.0,3.0,-2.0,-3.0,-3.0,1651068770379365.0
-1.0,0.0,1.0,1.0,-5.0,-4.0,-1.0,0.0,1651068770393440.0
0.0,1.0,5.0,17.0,11.0,8.0,0.0,-1.0,1651068770393440.0
0.0,-1.0,-3.0,-17.0,-10.0,-10.0,-3.0,0.0,1651068770401488.0
0.0,0.0,-1.0,0.0,8.0,4.0,5.0,1.0,1651068770401488.0
-1.0,-1.0,-3.0,-11.0,-12.0,-3.0,2.0,1.0,1651068770416477.0
0.0,6.0,11.0,7.0,13.0,3.0,0.0,1.0,1651068770416477.0
-3.0,-6.0,-18.0,-3.0,-9.0,-8.0,-4.0,-4.0,1651068770417407.0
-2.0,-1.0,-3.0,2.0,-5.0,-4.0,-2.0,-1.0,1651068770417407.0
3.0,3.0,6.0,-1.0,14.0,5.0,0.0,3.0,1651068770439136.0
-4.0,-6.0,-11.0,-6.0,-13.0,-15.0,-5.0,-4.0,1651068770439136.0
2.0,4.0,10.0,5.0,-4.0,-1.0,1.0,1.0,1651068770439136.0
-1.0,1.0,2.0,0.0,23.0,13.0,-2.0,-4.0,1651068770439136.0
-3.0,-9.0,-13.0,-16.0,-35.0,-19.0,-1.0,1.0,1651068770461500.0
1.0,-1.0,-6.0,3.0,9.0,5.0,1.0,4.0,1651068770461500.0
-2.0,-5.0,-10.0,-11.0,-4.0,-4.0,-16.0,-12.0,1651068770462434.0
1.0,-1.0,-1.0,5.0,2.0,6.0,18.0,14.0,1651068770462434.0
-1.0,10.0,20.0,4.0,-5.0,-2.0,-7.0,-10.0,1651068770476576.0
-6.0,-8.0,-11.0,-1.0,-3.0,-8.0,-3.0,-5.0,1651068770476576.0
6.0,6.0,5.0,4.0,1.0,-5.0,5.0,7.0,1651068770477518.0
-3.0,4.0,13.0,-5.0,5.0,5.0,-23.0,-21.0,1651068770477518.0
2.0,-12.0,-27.0,-24.0,-4.0,2.0,21.0,20.0,1651068770498673.0
4.0,4.0,7.0,16.0,-1.0,2.0,15.0,14.0,1651068770498673.0
-2.0,3.0,8.0,-3.0,-8.0,0.0,4.0,-4.0,1651068770499604.0
-7.0,-6.0,-2.0,-5.0,8.0,-10.0,-10.0,-5.0,1651068770499604.0
2.0,1.0,0.0,12.0,7.0,14.0,4.0,-6.0,1651068770521184.0
1.0,3.0,1.0,-34.0,-27.0,-11.0,-7.0,-4.0,1651068770521184.0
-4.0,-3.0,2.0,42.0,21.0,3.0,-1.0,-3.0,1651068770522113.0
-2.0,-7.0,-11.0,-34.0,-28.0,-23.0,-5.0,-5.0,1651068770522113.0
11.0,10.0,7.0,8.0,14.0,8.0,3.0,21.0,1651068770536211.0
-15.0,-8.0,2.0,13.0,-6.0,-1.0,-8.0,-14.0,1651068770536211.0
3.0,3.0,-5.0,-17.0,0.0,3.0,-6.0,-6.0,1651068770537073.0
-1.0,-2.0,-6.0,3.0,-9.0,-6.0,-7.0,-7.0,1651068770537073.0
-4.0,-5.0,6.0,12.0,19.0,6.0,21.0,16.0,1651068770559166.0
3.0,2.0,1.0,-6.0,-32.0,-13.0,1.0,14.0,1651068770559166.0
-4.0,0.0,4.0,19.0,-1.0,8.0,5.0,-10.0,1651068770560096.0
-1.0,4.0,4.0,-7.0,-4.0,0.0,-5.0,-9.0,1651068770560096.0
3.0,1.0,-12.0,-19.0,-20.0,-10.0,3.0,6.0,1651068770581273.0
1.0,-5.0,3.0,1.0,3.0,-6.0,-9.0,7.0,1651068770581273.0
-2.0,2.0,8.0,-1.0,14.0,11.0,5.0,7.0,1651068770582203.0
-4.0,-6.0,-11.0,-14.0,-7.0,-5.0,-5.0,-12.0,1651068770582203.0
-7.0,0.0,8.0,21.0,-8.0,-11.0,-19.0,-18.0,1651068770596357.0
7.0,0.0,-7.0,-24.0,-17.0,-12.0,0.0,7.0,1651068770596357.0
2.0,4.0,11.0,35.0,31.0,10.0,2.0,4.0,1651068770597354.0
0.0,0.0,4.0,5.0,7.0,6.0,11.0,13.0,1651068770597354.0
-15.0,-10.0,-13.0,-37.0,-32.0,-12.0,-15.0,-27.0,1651068770619282.0
-2.0,-3.0,-3.0,23.0,36.0,15.0,-6.0,-2.0,1651068770619282.0
3.0,-4.0,-10.0,-38.0,-18.0,-2.0,3.0,1.0,1651068770619282.0
-1.0,3.0,20.0,59.0,-2.0,-3.0,-1.0,-1.0,1651068770619282.0
1.0,-5.0,-21.0,-35.0,32.0,14.0,3.0,7.0,1651068770641519.0
0.0,1.0,0.0,-16.0,-18.0,-15.0,-8.0,-6.0,1651068770641519.0
-8.0,-7.0,-6.0,-10.0,-13.0,-7.0,-1.0,-3.0,1651068770642449.0
19.0,12.0,0.0,11.0,18.0,16.0,22.0,35.0,1651068770642449.0
-20.0,-11.0,9.0,9.0,-34.0,-22.0,-19.0,-37.0,1651068770656478.0
8.0,5.0,-2.0,-18.0,32.0,36.0,21.0,16.0,1651068770656478.0
-1.0,2.0,12.0,40.0,12.0,0.0,-5.0,-9.0,1651068770657409.0
-5.0,-8.0,-21.0,-32.0,-23.0,-9.0,0.0,-10.0,1651068770657409.0
13.0,5.0,0.0,17.0,26.0,6.0,4.0,31.0,1651068770679374.0
-15.0,-3.0,11.0,28.0,-2.0,0.0,-9.0,-40.0,1651068770679374.0
-4.0,-9.0,-7.0,-14.0,-14.0,-12.0,-2.0,5.0,1651068770679374.0
6.0,7.0,-4.0,-48.0,-13.0,-7.0,3.0,11.0,1651068770679374.0
-2.0,-4.0,-2.0,7.0,25.0,6.0,-2.0,-10.0,1651068770701428.0
7.0,2.0,0.0,3.0,-1.0,2.0,1.0,13.0,1651068770701428.0
-17.0,-9.0,-10.0,-25.0,5.0,4.0,-16.0,-39.0,1651068770702359.0
-2.0,-2.0,0.0,43.0,3.0,-4.0,1.0,2.0,1651068770702359.0
6.0,2.0,3.0,-10.0,-13.0,-8.0,-7.0,2.0,1651068770716744.0
-2.0,-2.0,-6.0,-10.0,-4.0,-6.0,0.0,4.0,1651068770716744.0
4.0,-1.0,-8.0,-17.0,-15.0,-14.0,1.0,10.0,1651068770716744.0
6.0,7.0,14.0,8.0,21.0,16.0,8.0,8.0,1651068770716744.0
-9.0,-5.0,1.0,12.0,-8.0,-2.0,-4.0,-18.0,1651068770738737.0
2.0,2.0,11.0,14.0,9.0,-1.0,3.0,1.0,1651068770738737.0
5.0,1.0,-21.0,-48.0,-18.0,-6.0,0.0,15.0,1651068770739664.0
-12.0,-8.0,-8.0,20.0,-16.0,-9.0,-6.0,-24.0,1651068770739664.0
6.0,6.0,6.0,-14.0,4.0,0.0,1.0,8.0,1651068770761673.0
-1.0,-5.0,-10.0,9.0,7.0,6.0,-2.0,-2.0,1651068770761673.0
2.0,4.0,17.0,-18.0,-24.0,-14.0,-2.0,7.0,1651068770761673.0
3.0,3.0,9.0,3.0,21.0,25.0,3.0,0.0,1651068770761673.0
-4.0,-1.0,-11.0,14.0,-25.0,-15.0,-5.0,-8.0,1651068770776739.0
6.0,9.0,15.0,-11.0,17.0,21.0,10.0,11.0,1651068770776739.0
-8.0,-8.0,0.0,21.0,7.0,-2.0,-3.0,-23.0,1651068770776739.0
-5.0,-7.0,-19.0,-31.0,-21.0,-27.0,-14.0,1.0,1651068770776739.0
5.0,3.0,17.0,30.0,33.0,31.0,12.0,9.0,1651068770798784.0
-10.0,-7.0,-11.0,-10.0,-3.0,5.0,3.0,-3.0,1651068770798784.0
11.0,5.0,-8.0,14.0,11.0,5.0,10.0,22.0,1651068770799712.0
2.0,5.0,21.0,14.0,8.0,7.0,4.0,1.0,1651068770799712.0
-9.0,-7.0,-28.0,-47.0,-21.0,-9.0,-7.0,-9.0,1651068770821745.0
3.0,3.0,6.0,1.0,-10.0,-15.0,-7.0,2.0,1651068770821745.0
0.0,1.0,3.0,7.0,26.0,17.0,4.0,4.0,1651068770821745.0
-7.0,-6.0,2.0,9.0,-7.0,-7.0,-11.0,-5.0,1651068770821745.0
19.0,18.0,17.0,9.0,8.0,13.0,24.0,25.0,1651068770836771.0
-11.0,-10.0,-12.0,11.0,16.0,10.0,-4.0,-24.0,1651068770836771.0
-1.0,-5.0,-1.0,2.0,-15.0,-6.0,0.0,4.0,1651068770836771.0
1.0,0.0,6.0,14.0,4.0,0.0,-2.0,-4.0,1651068770836771.0
4.0,0.0,3.0,4.0,-9.0,-14.0,-5.0,10.0,1651068770858826.0
-4.0,-1.0,0.0,-7.0,-2.0,0.0,-4.0,-9.0,1651068770858826.0
5.0,9.0,23.0,24.0,24.0,9.0,16.0,2.0,1651068770859757.0
-14.0,-11.0,-36.0,-33.0,-2.0,0.0,-5.0,-19.0,1651068770859757.0
-2.0,-3.0,1.0,-3.0,-31.0,-25.0,-13.0,-10.0,1651068770880850.0
2.0,0.0,2.0,6.0,45.0,37.0,13.0,7.0,1651068770880850.0
1.0,4.0,7.0,-5.0,-14.0,-10.0,-2.0,4.0,1651068770881847.0
8.0,3.0,15.0,15.0,-9.0,0.0,4.0,17.0,1651068770881847.0
-4.0,-2.0,-4.0,16.0,17.0,3.0,-7.0,-8.0,1651068770896006.0
-15.0,-7.0,-11.0,-35.0,-40.0,-32.0,-16.0,-42.0,1651068770896006.0
10.0,3.0,0.0,18.0,24.0,20.0,6.0,18.0,1651068770896935.0
-5.0,-3.0,-10.0,-17.0,-13.0,-8.0,1.0,-6.0,1651068770896935.0
1.0,0.0,12.0,1.0,0.0,-3.0,-2.0,-2.0,1651068770919009.0
28.0,19.0,10.0,8.0,2.0,0.0,20.0,52.0,1651068770919009.0
-18.0,-14.0,-11.0,-13.0,-17.0,-8.0,-12.0,-29.0,1651068770919999.0
6.0,5.0,6.0,-9.0,14.0,7.0,1.0,5.0,1651068770919999.0
2.0,-1.0,1.0,11.0,8.0,6.0,4.0,1.0,1651068770941728.0
-6.0,-3.0,-4.0,8.0,1.0,0.0,2.0,-8.0,1651068770941728.0
2.0,-3.0,-41.0,-27.0,-15.0,3.0,1.0,-2.0,1651068770941728.0
7.0,11.0,54.0,17.0,5.0,-5.0,7.0,17.0,1651068770941728.0
-3.0,-4.0,-13.0,-15.0,-19.0,-9.0,-6.0,3.0,1651068770956741.0
3.0,-3.0,1.0,18.0,34.0,18.0,6.0,4.0,1651068770956741.0
-4.0,-2.0,8.0,14.0,-11.0,-14.0,-9.0,-1.0,1651068770956741.0
4.0,0.0,-16.0,15.0,31.0,32.0,8.0,7.0,1651068770956741.0
-10.0,-3.0,6.0,-1.0,-7.0,-10.0,-7.0,-19.0,1651068770978841.0
1.0,-2.0,-8.0,-17.0,-45.0,-31.0,-15.0,8.0,1651068770978841.0
-6.0,1.0,-3.0,21.0,30.0,24.0,0.0,-14.0,1651068770979771.0
-6.0,-3.0,-8.0,-3.0,-3.0,-5.0,-5.0,-6.0,1651068770979771.0
6.0,5.0,-3.0,-2.0,24.0,11.0,10.0,16.0,1651068771000979.0
0.0,-1.0,-8.0,-19.0,-24.0,-13.0,-6.0,-7.0,1651068771000979.0
-3.0,-1.0,23.0,18.0,12.0,-6.0,-5.0,-1.0,1651068771001915.0
7.0,2.0,-16.0,-11.0,-16.0,-4.0,3.0,13.0,1651068771001915.0
4.0,-1.0,-20.0,-20.0,1.0,12.0,-1.0,14.0,1651068771016003.0
-19.0,-6.0,15.0,4.0,-13.0,-14.0,-15.0,-39.0,1651068771016003.0
10.0,8.0,12.0,1.0,9.0,5.0,8.0,19.0,1651068771016949.0
-5.0,-5.0,-6.0,-8.0,-11.0,-12.0,-8.0,-11.0,1651068771016949.0
1.0,3.0,9.0,11.0,12.0,8.0,2.0,0.0,1651068771038885.0
13.0,7.0,-3.0,7.0,2.0,6.0,14.0,26.0,1651068771038885.0
-15.0,-7.0,-4.0,-10.0,-20.0,-7.0,-7.0,-31.0,1651068771039910.0
4.0,-1.0,0.0,-27.0,23.0,6.0,-6.0,9.0,1651068771039910.0
-8.0,-7.0,-19.0,-14.0,-10.0,0.0,-1.0,-17.0,1651068771061685.0
-10.0,-4.0,13.0,17.0,-6.0,-3.0,-7.0,-20.0,1651068771061685.0
2.0,-1.0,-7.0,-10.0,-9.0,-11.0,-8.0,2.0,1651068771061685.0
9.0,6.0,-4.0,16.0,-4.0,-6.0,4.0,14.0,1651068771061685.0
-7.0,-3.0,25.0,39.0,31.0,9.0,-6.0,-20.0,1651068771076787.0
-1.0,-5.0,-9.0,-32.0,-9.0,-5.0,0.0,2.0,1651068771076787.0
20.0,14.0,-5.0,-1.0,-5.0,-14.0,0.0,36.0,1651068771076787.0
-21.0,-8.0,15.0,27.0,2.0,6.0,-3.0,-36.0,1651068771076787.0
4.0,-1.0,-27.0,-42.0,-20.0,-6.0,0.0,9.0,1651068771098843.0
0.0,2.0,6.0,14.0,4.0,-2.0,-1.0,7.0,1651068771098843.0
-2.0,0.0,12.0,-14.0,0.0,7.0,3.0,-3.0,1651068771099770.0
-7.0,-10.0,-14.0,20.0,3.0,-3.0,-2.0,1.0,1651068771099770.0
-1.0,0.0,0.0,11.0,3.0,-5.0,-3.0,-5.0,1651068771122277.0
-1.0,-2.0,-10.0,-12.0,-5.0,-4.0,-1.0,2.0,1651068771122277.0
-5.0,-5.0,-12.0,-33.0,-15.0,-1.0,-6.0,-12.0,1651068771122277.0
0.0,-1.0,0.0,-12.0,-26.0,-17.0,-5.0,-2.0,1651068771122277.0
1.0,-2.0,-3.0,16.0,29.0,16.0,13.0,12.0,1651068771136274.0
-3.0,0.0,4.0,-16.0,3.0,3.0,-1.0,-4.0,1651068771136274.0
1.0,0.0,2.0,18.0,12.0,2.0,3.0,8.0,1651068771137300.0
0.0,1.0,1.0,-17.0,8.0,10.0,3.0,-1.0,1651068771137300.0
2.0,0.0,-5.0,10.0,-25.0,-10.0,0.0,9.0,1651068771159342.0
-1.0,-2.0,-9.0,10.0,8.0,5.0,-1.0,-3.0,1651068771159342.0
6.0,5.0,4.0,-7.0,-10.0,-4.0,2.0,6.0,1651068771159342.0
