EMG_s0,EMG_s1,EMG_s2,EMG_s3,EMG_s4,EMG_s5,EMG_s6,EMG_s7,timestamp
-2.0,1.0,2.0,-1.0,-1.0,-2.0,0.0,-2.0,1651086889631285.0
-1.0,0.0,1.0,-1.0,-2.0,-3.0,1.0,0.0,1651086889631285.0
-1.0,-1.0,-1.0,-3.0,-4.0,-2.0,-1.0,-1.0,1651086889635274.0
-2.0,-2.0,-2.0,0.0,0.0,0.0,1.0,-3.0,1651086889635274.0
-1.0,0.0,-1.0,0.0,0.0,-1.0,0.0,0.0,1651086889636271.0
-2.0,1.0,-1.0,1.0,1.0,1.0,-1.0,-1.0,1651086889636271.0
1.0,0.0,-1.0,-4.0,-1.0,-2.0,-1.0,0.0,1651086889637266.0
-1.0,-1.0,0.0,1.0,-4.0,-4.0,-1.0,1.0,1651086889637266.0
-2.0,-5.0,-7.0,1.0,0.0,0.0,-1.0,-1.0,1651086889643249.0
0.0,7.0,7.0,3.0,4.0,1.0,1.0,2.0,1651086889643249.0
-2.0,-1.0,-3.0,-2.0,0.0,1.0,3.0,3.0,1651086889658210.0
0.0,-2.0,3.0,-3.0,-1.0,0.0,1.0,1.0,1651086889658210.0
3.0,3.0,-4.0,1.0,0.0,-1.0,0.0,0.0,1651086889663337.0
1.0,0.0,-4.0,-2.0,1.0,1.0,-1.0,0.0,1651086889663337.0
2.0,3.0,3.0,0.0,1.0,0.0,-1.0,-1.0,1651086889679188.0
2.0,2.0,2.0,-4.0,0.0,1.0,1.0,1.0,1651086889679188.0
0.0,-2.0,1.0,4.0,-3.0,-1.0,-1.0,0.0,1651086889687166.0
-2.0,-3.0,-3.0,-5.0,-2.0,-1.0,1.0,-1.0,1651086889687166.0
-1.0,0.0,-4.0,0.0,-2.0,0.0,-1.0,0.0,1651086889703123.0
0.0,3.0,0.0,0.0,0.0,1.0,-1.0,-2.0,1651086889703123.0
0.0,-1.0,-1.0,-4.0,-3.0,-1.0,-1.0,0.0,1651086889709078.0
-1.0,-1.0,0.0,-1.0,-1.0,0.0,-2.0,-2.0,1651086889709078.0
-1.0,-1.0,1.0,2.0,0.0,0.0,0.0,-1.0,1651086889723067.0
-3.0,-2.0,-3.0,2.0,9.0,2.0,1.0,-2.0,1651086889723067.0
1.0,0.0,0.0,-2.0,-3.0,-2.0,-2.0,1.0,1651086889762931.0
-1.0,-5.0,-1.0,-1.0,-2.0,0.0,0.0,-1.0,1651086889762931.0
1.0,-1.0,-3.0,0.0,-1.0,-1.0,1.0,0.0,1651086889763928.0
-1.0,-3.0,-5.0,1.0,-2.0,1.0,1.0,-1.0,1651086889763928.0
-1.0,7.0,7.0,3.0,5.0,1.0,1.0,-2.0,1651086889764926.0
0.0,1.0,-1.0,-2.0,-3.0,-1.0,-2.0,2.0,1651086889764926.0
-2.0,-3.0,-2.0,-5.0,-1.0,-1.0,-1.0,-1.0,1651086889764926.0
-1.0,7.0,11.0,3.0,-3.0,-2.0,-3.0,0.0,1651086889764926.0
-1.0,-8.0,-21.0,-3.0,-6.0,-4.0,-1.0,-1.0,1651086889776926.0
-1.0,0.0,0.0,-1.0,3.0,3.0,0.0,-1.0,1651086889776926.0
0.0,-1.0,-2.0,-1.0,0.0,-1.0,-2.0,-1.0,1651086889783876.0
0.0,-3.0,-4.0,-4.0,1.0,-1.0,1.0,-1.0,1651086889783876.0
-1.0,2.0,7.0,1.0,-1.0,-2.0,0.0,0.0,1651086889790889.0
-2.0,-2.0,1.0,2.0,0.0,-1.0,0.0,-1.0,1651086889790889.0
0.0,3.0,-1.0,-1.0,-5.0,-1.0,-2.0,-1.0,1651086889805846.0
-1.0,-1.0,4.0,0.0,0.0,-1.0,-1.0,-2.0,1651086889805846.0
-2.0,-3.0,-5.0,1.0,1.0,0.0,-2.0,1.0,1651086889813840.0
2.0,1.0,-3.0,-2.0,-1.0,-1.0,0.0,0.0,1651086889813840.0
-1.0,-1.0,3.0,1.0,0.0,0.0,0.0,1.0,1651086889828792.0
0.0,0.0,-1.0,0.0,3.0,1.0,0.0,0.0,1651086889828792.0
1.0,0.0,1.0,-2.0,-3.0,-1.0,1.0,-1.0,1651086889836764.0
-1.0,-2.0,-4.0,-2.0,3.0,1.0,0.0,-1.0,1651086889836764.0
-1.0,-1.0,1.0,2.0,4.0,1.0,-2.0,-1.0,1651086889851727.0
-2.0,-1.0,3.0,0.0,-2.0,-1.0,0.0,1.0,1651086889851727.0
-1.0,0.0,0.0,-2.0,-2.0,1.0,-2.0,0.0,1651086889852691.0
0.0,0.0,-1.0,-4.0,-7.0,-4.0,-1.0,-1.0,1651086889852691.0
0.0,-4.0,-5.0,0.0,-4.0,-4.0,-1.0,-2.0,1651086889873668.0
-1.0,8.0,-9.0,4.0,7.0,3.0,4.0,-1.0,1651086889873668.0
0.0,-10.0,2.0,-3.0,2.0,3.0,-1.0,0.0,1651086889874631.0
-1.0,0.0,0.0,0.0,-2.0,-2.0,0.0,1.0,1651086889874631.0
0.0,2.0,1.0,-3.0,-2.0,-1.0,-1.0,0.0,1651086889888625.0
0.0,-2.0,-10.0,-6.0,-6.0,-4.0,-2.0,-2.0,1651086889888625.0
-2.0,2.0,4.0,2.0,1.0,-1.0,-2.0,-2.0,1651086889896604.0
0.0,1.0,0.0,2.0,3.0,1.0,0.0,0.0,1651086889896604.0
-2.0,-1.0,0.0,-2.0,0.0,-1.0,0.0,1.0,1651086889911563.0
0.0,-2.0,1.0,0.0,-2.0,0.0,-1.0,0.0,1651086889911563.0
-1.0,1.0,1.0,-3.0,1.0,0.0,2.0,-1.0,1651086889912530.0
0.0,-3.0,-2.0,0.0,0.0,0.0,-1.0,1.0,1651086889912530.0
0.0,2.0,2.0,2.0,-2.0,0.0,-1.0,-1.0,1651086889935271.0
-1.0,-3.0,2.0,-1.0,0.0,0.0,-1.0,-1.0,1651086889935271.0
1.0,-2.0,-7.0,-2.0,2.0,-1.0,0.0,0.0,1651086889935271.0
-2.0,0.0,-1.0,-2.0,-2.0,-1.0,-1.0,-2.0,1651086889935271.0
0.0,0.0,-1.0,2.0,6.0,2.0,2.0,0.0,1651086889949239.0
1.0,-3.0,2.0,-2.0,-1.0,1.0,-1.0,0.0,1651086889949239.0
-1.0,0.0,-1.0,0.0,-4.0,0.0,0.0,0.0,1651086889957707.0
0.0,-1.0,1.0,1.0,-2.0,-1.0,-1.0,-1.0,1651086889957707.0
0.0,3.0,-4.0,0.0,-3.0,-2.0,0.0,1.0,1651086889972403.0
0.0,-3.0,-1.0,-1.0,-2.0,0.0,0.0,2.0,1651086889972403.0
0.0,1.0,-1.0,-2.0,1.0,2.0,1.0,-2.0,1651086889972403.0
-2.0,-5.0,-3.0,-1.0,-1.0,-1.0,0.0,0.0,1651086889972403.0
-1.0,1.0,9.0,2.0,-4.0,-1.0,-2.0,-3.0,1651086889994265.0
0.0,7.0,1.0,-3.0,-1.0,1.0,0.0,2.0,1651086889994265.0
-1.0,-3.0,-6.0,0.0,1.0,0.0,0.0,1.0,1651086889995128.0
-1.0,0.0,2.0,2.0,2.0,0.0,1.0,-2.0,1651086889995128.0
-1.0,-3.0,-5.0,-3.0,-2.0,1.0,-1.0,0.0,1651086890008107.0
0.0,-2.0,1.0,1.0,-3.0,-2.0,-2.0,-1.0,1651086890008107.0
-1.0,4.0,2.0,1.0,-1.0,0.0,-1.0,0.0,1651086890017244.0
-2.0,-1.0,-1.0,-2.0,-2.0,0.0,-3.0,1.0,1651086890017244.0
0.0,-5.0,-1.0,-3.0,-3.0,-1.0,-1.0,0.0,1651086890032075.0
-1.0,0.0,-2.0,-1.0,3.0,0.0,1.0,0.0,1651086890032075.0
-1.0,-1.0,2.0,0.0,-4.0,-2.0,0.0,0.0,1651086890032075.0
0.0,-2.0,-2.0,0.0,-1.0,0.0,-2.0,-1.0,1651086890032075.0
0.0,-1.0,-4.0,1.0,-1.0,1.0,0.0,0.0,1651086890054388.0
-1.0,-3.0,3.0,-4.0,-1.0,-1.0,0.0,-1.0,1651086890054388.0
-2.0,-3.0,0.0,0.0,1.0,0.0,0.0,-1.0,1651086890055252.0
0.0,4.0,6.0,1.0,-4.0,-2.0,-1.0,1.0,1651086890055252.0
0.0,-4.0,-11.0,-3.0,-3.0,-1.0,0.0,0.0,1651086890077809.0
-1.0,-5.0,-1.0,4.0,3.0,2.0,-1.0,-1.0,1651086890077809.0
0.0,0.0,3.0,0.0,-1.0,-2.0,0.0,0.0,1651086890077809.0
-1.0,-4.0,-10.0,0.0,3.0,1.0,-1.0,-2.0,1651086890077809.0
1.0,11.0,11.0,-2.0,0.0,-1.0,-1.0,0.0,1651086890091048.0
-1.0,-3.0,-7.0,-2.0,-8.0,-3.0,-1.0,-1.0,1651086890091048.0
1.0,-4.0,2.0,9.0,15.0,4.0,-1.0,-1.0,1651086890092030.0
-2.0,6.0,-3.0,-1.0,-1.0,-2.0,1.0,1.0,1651086890092030.0
-3.0,-16.0,-2.0,-3.0,-4.0,-2.0,0.0,-2.0,1651086890114362.0
-2.0,0.0,-1.0,-1.0,-1.0,0.0,-2.0,0.0,1651086890114362.0
-1.0,3.0,4.0,0.0,-5.0,-2.0,-2.0,-1.0,1651086890115254.0
0.0,-1.0,-1.0,1.0,6.0,5.0,0.0,0.0,1651086890115254.0
-1.0,2.0,-1.0,2.0,3.0,-1.0,0.0,0.0,1651086890137395.0
0.0,-1.0,-2.0,-4.0,-5.0,-3.0,0.0,0.0,1651086890137395.0
0.0,0.0,3.0,-3.0,-4.0,-1.0,0.0,0.0,1651086890138222.0
-2.0,-2.0,-5.0,4.0,2.0,1.0,0.0,-1.0,1651086890138222.0
-1.0,0.0,0.0,-1.0,0.0,1.0,-1.0,0.0,1651086890152578.0
0.0,-2.0,-4.0,0.0,-1.0,-1.0,-1.0,-2.0,1651086890152578.0
1.0,-1.0,0.0,1.0,-2.0,0.0,0.0,0.0,1651086890152578.0
0.0,2.0,5.0,-2.0,-2.0,-3.0,-3.0,-2.0,1651086890152578.0
0.0,11.0,9.0,2.0,2.0,2.0,1.0,0.0,1651086890174347.0
1.0,-3.0,-3.0,0.0,2.0,0.0,0.0,-1.0,1651086890174347.0
-1.0,2.0,-1.0,-2.0,-2.0,-1.0,1.0,0.0,1651086890175221.0
0.0,-4.0,-6.0,-5.0,-8.0,-5.0,-1.0,0.0,1651086890175221.0
-1.0,-5.0,-1.0,-1.0,-1.0,0.0,0.0,0.0,1651086890198205.0
0.0,6.0,3.0,1.0,3.0,0.0,1.0,0.0,1651086890198205.0
0.0,-3.0,2.0,2.0,-3.0,-1.0,0.0,0.0,1651086890198399.0
0.0,-1.0,2.0,-4.0,-2.0,2.0,1.0,0.0,1651086890198399.0
0.0,0.0,-2.0,2.0,-3.0,-2.0,-1.0,-2.0,1651086890212611.0
-1.0,-1.0,-2.0,1.0,1.0,0.0,0.0,0.0,1651086890212611.0
-1.0,0.0,0.0,1.0,5.0,3.0,0.0,-1.0,1651086890212611.0
0.0,2.0,5.0,0.0,-2.0,-2.0,-1.0,0.0,1651086890212611.0
-1.0,-5.0,-9.0,-2.0,-1.0,-3.0,-1.0,-2.0,1651086890243188.0
0.0,-1.0,3.0,-2.0,-2.0,-2.0,-2.0,-1.0,1651086890243188.0
-1.0,0.0,-2.0,1.0,-3.0,-1.0,0.0,-2.0,1651086890243188.0
-2.0,-4.0,2.0,2.0,2.0,2.0,0.0,-1.0,1651086890243188.0
-1.0,6.0,4.0,-2.0,-1.0,-2.0,-1.0,0.0,1651086890257659.0
1.0,-6.0,-4.0,-2.0,-4.0,-2.0,0.0,1.0,1651086890257659.0
-1.0,3.0,-2.0,-5.0,-5.0,-2.0,-1.0,-2.0,1651086890258206.0
-1.0,2.0,13.0,6.0,0.0,0.0,2.0,-1.0,1651086890258206.0
0.0,-3.0,1.0,3.0,6.0,3.0,1.0,-1.0,1651086890271332.0
1.0,-2.0,-5.0,-2.0,-5.0,-5.0,-1.0,0.0,1651086890271332.0
0.0,-2.0,-5.0,-2.0,6.0,3.0,-1.0,1.0,1651086890272332.0
2.0,3.0,0.0,-1.0,-3.0,-2.0,-1.0,-1.0,1651086890272332.0
-2.0,-11.0,-2.0,1.0,-4.0,-4.0,-1.0,-1.0,1651086890294228.0
-1.0,2.0,3.0,-3.0,0.0,1.0,0.0,-1.0,1651086890294228.0
-1.0,0.0,0.0,1.0,-2.0,0.0,0.0,-2.0,1651086890295191.0
-1.0,0.0,-4.0,-2.0,-2.0,0.0,-2.0,-1.0,1651086890295191.0
-1.0,2.0,-3.0,1.0,-2.0,-1.0,1.0,0.0,1651086890317757.0
-1.0,-1.0,-1.0,-3.0,-2.0,0.0,0.0,0.0,1651086890317757.0
-1.0,0.0,4.0,2.0,-1.0,-3.0,-2.0,0.0,1651086890318160.0
-2.0,-3.0,-8.0,-2.0,2.0,1.0,0.0,-1.0,1651086890318160.0
-1.0,-1.0,1.0,0.0,0.0,2.0,-1.0,-2.0,1651086890332073.0
-2.0,0.0,2.0,0.0,-1.0,-1.0,-1.0,0.0,1651086890332073.0
1.0,-4.0,-11.0,-5.0,-3.0,-3.0,0.0,0.0,1651086890332073.0
-1.0,8.0,13.0,-2.0,-3.0,-3.0,-1.0,-1.0,1651086890332073.0
-1.0,1.0,2.0,-1.0,-1.0,-1.0,-1.0,0.0,1651086890354006.0
0.0,0.0,-4.0,4.0,5.0,3.0,-2.0,0.0,1651086890354006.0
0.0,-3.0,0.0,-1.0,2.0,0.0,1.0,0.0,1651086890355004.0
0.0,-7.0,-4.0,-3.0,-3.0,-3.0,-3.0,0.0,1651086890355004.0
0.0,1.0,-2.0,-1.0,-2.0,0.0,0.0,-1.0,1651086890376945.0
-2.0,0.0,3.0,-2.0,-5.0,-4.0,-1.0,-2.0,1651086890376945.0
0.0,0.0,-1.0,1.0,4.0,3.0,-3.0,-1.0,1651086890377942.0
0.0,-3.0,-1.0,3.0,5.0,3.0,-2.0,-1.0,1651086890377942.0
0.0,4.0,5.0,1.0,2.0,-1.0,-2.0,0.0,1651086890391906.0
-1.0,-1.0,-8.0,0.0,-4.0,0.0,0.0,0.0,1651086890391906.0
-3.0,-5.0,-5.0,-5.0,-8.0,-3.0,-2.0,-1.0,1651086890391906.0
-2.0,3.0,5.0,3.0,0.0,-1.0,1.0,1.0,1651086890391906.0
0.0,-6.0,-20.0,-4.0,0.0,1.0,-1.0,1.0,1651086890413847.0
-2.0,0.0,2.0,-3.0,-1.0,-3.0,-1.0,-2.0,1651086890413847.0
-1.0,0.0,3.0,-1.0,-1.0,0.0,0.0,-2.0,1651086890414844.0
-1.0,-1.0,-4.0,1.0,0.0,-1.0,0.0,-1.0,1651086890414844.0
-2.0,1.0,6.0,0.0,-2.0,-2.0,-1.0,0.0,1651086890436820.0
1.0,-1.0,-6.0,0.0,-1.0,1.0,-1.0,-2.0,1651086890436820.0
0.0,0.0,-1.0,3.0,4.0,2.0,-1.0,-2.0,1651086890437783.0
1.0,-4.0,-3.0,-5.0,-5.0,-4.0,-1.0,-1.0,1651086890437783.0
0.0,1.0,-1.0,0.0,-4.0,-3.0,-1.0,1.0,1651086890451928.0
-1.0,-3.0,3.0,1.0,3.0,1.0,0.0,-1.0,1651086890451928.0
-2.0,3.0,3.0,0.0,-2.0,-3.0,0.0,0.0,1651086890451928.0
-1.0,-1.0,-5.0,-4.0,-2.0,-1.0,0.0,0.0,1651086890451928.0
0.0,-2.0,1.0,-3.0,-4.0,-1.0,0.0,1.0,1651086890474342.0
0.0,-3.0,3.0,1.0,-2.0,-2.0,-1.0,0.0,1651086890474342.0
1.0,-1.0,-1.0,-1.0,-1.0,4.0,0.0,0.0,1651086890475209.0
0.0,1.0,0.0,1.0,3.0,0.0,1.0,0.0,1651086890475209.0
1.0,-2.0,-1.0,-2.0,0.0,-2.0,0.0,-1.0,1651086890497378.0
-1.0,2.0,2.0,2.0,0.0,1.0,0.0,0.0,1651086890497378.0
-1.0,-1.0,2.0,0.0,-5.0,-3.0,-1.0,0.0,1651086890498366.0
-1.0,4.0,0.0,0.0,-1.0,-1.0,-1.0,0.0,1651086890498366.0
-4.0,-11.0,-5.0,5.0,6.0,4.0,2.0,0.0,1651086890511397.0
1.0,-1.0,-3.0,1.0,2.0,1.0,0.0,-1.0,1651086890511397.0
0.0,2.0,-3.0,-3.0,-3.0,-2.0,-1.0,1.0,1651086890519217.0
-1.0,-1.0,0.0,-1.0,-3.0,1.0,0.0,-1.0,1651086890519217.0
2.0,5.0,2.0,-1.0,3.0,0.0,-1.0,1.0,1651086890534352.0
0.0,0.0,4.0,-1.0,-2.0,0.0,-1.0,-1.0,1651086890534352.0
0.0,-5.0,-8.0,-2.0,-3.0,-3.0,-1.0,1.0,1651086890535236.0
-2.0,-4.0,-5.0,2.0,4.0,1.0,-1.0,0.0,1651086890535236.0
-1.0,6.0,8.0,1.0,2.0,2.0,1.0,-2.0,1651086890557342.0
-1.0,-2.0,-3.0,-2.0,-2.0,-2.0,1.0,0.0,1651086890557342.0
2.0,0.0,-1.0,-1.0,-2.0,-2.0,0.0,1.0,1651086890558192.0
-2.0,-3.0,0.0,-6.0,-4.0,-2.0,-1.0,-1.0,1651086890558192.0
0.0,-3.0,-1.0,4.0,3.0,-1.0,0.0,-1.0,1651086890571364.0
-1.0,0.0,1.0,1.0,-2.0,0.0,-1.0,-1.0,1651086890571364.0
-1.0,1.0,3.0,-1.0,-4.0,-3.0,0.0,0.0,1651086890579225.0
0.0,2.0,-4.0,1.0,3.0,2.0,0.0,-1.0,1651086890579225.0
0.0,0.0,-1.0,1.0,2.0,2.0,0.0,-1.0,1651086890594355.0
-1.0,0.0,0.0,-1.0,0.0,-1.0,-1.0,0.0,1651086890594355.0
-1.0,-1.0,0.0,-1.0,-5.0,-3.0,-1.0,1.0,1651086890595203.0
1.0,-2.0,1.0,0.0,-1.0,-1.0,-2.0,0.0,1651086890595203.0
2.0,4.0,-2.0,-3.0,1.0,-1.0,-1.0,-2.0,1651086890617113.0
-3.0,-9.0,-8.0,-4.0,-1.0,-1.0,-1.0,-2.0,1651086890617113.0
-1.0,2.0,5.0,2.0,-2.0,-1.0,-1.0,-1.0,1651086890617962.0
-1.0,-5.0,-10.0,-1.0,2.0,0.0,0.0,-1.0,1651086890617962.0
0.0,-1.0,2.0,1.0,-5.0,-2.0,-2.0,-1.0,1651086890631136.0
0.0,4.0,0.0,-1.0,-1.0,-1.0,0.0,2.0,1651086890631136.0
-1.0,7.0,3.0,0.0,2.0,1.0,1.0,-2.0,1651086890639215.0
1.0,-2.0,-1.0,0.0,-3.0,-2.0,-1.0,0.0,1651086890639215.0
0.0,3.0,5.0,-1.0,-2.0,1.0,-1.0,0.0,1651086890654403.0
0.0,-1.0,-2.0,0.0,-2.0,0.0,-2.0,-1.0,1651086890654403.0
0.0,-3.0,2.0,0.0,2.0,-1.0,-1.0,-3.0,1651086890655262.0
-1.0,0.0,-8.0,2.0,0.0,2.0,-1.0,-1.0,1651086890655262.0
-1.0,-3.0,-3.0,-1.0,0.0,-1.0,0.0,0.0,1651086890677371.0
-1.0,3.0,2.0,-1.0,0.0,-1.0,-3.0,0.0,1651086890677371.0
-1.0,0.0,-1.0,-4.0,-4.0,-2.0,1.0,0.0,1651086890678214.0
-1.0,1.0,4.0,1.0,2.0,-2.0,1.0,0.0,1651086890678214.0
0.0,-4.0,-5.0,-2.0,2.0,3.0,1.0,-2.0,1651086890691125.0
1.0,8.0,7.0,6.0,2.0,2.0,2.0,-1.0,1651086890691125.0
-1.0,-11.0,-5.0,-6.0,0.0,0.0,-1.0,-2.0,1651086890699374.0
0.0,0.0,1.0,-2.0,-6.0,-3.0,-1.0,0.0,1651086890699374.0
-2.0,-2.0,2.0,-1.0,-4.0,-3.0,0.0,-1.0,1651086890714355.0
0.0,-1.0,1.0,-3.0,-1.0,-2.0,-1.0,1.0,1651086890714355.0
1.0,3.0,-2.0,1.0,-3.0,0.0,-1.0,-3.0,1651086890715255.0
1.0,-2.0,6.0,5.0,7.0,4.0,2.0,0.0,1651086890715255.0
0.0,-3.0,-8.0,-3.0,-2.0,-1.0,-2.0,-2.0,1651086890737379.0
-1.0,5.0,5.0,-3.0,-2.0,-1.0,-1.0,-1.0,1651086890737379.0
-1.0,1.0,-1.0,0.0,-2.0,0.0,0.0,0.0,1651086890744359.0
0.0,-2.0,-7.0,-2.0,-1.0,-1.0,-2.0,0.0,1651086890744359.0
-1.0,-4.0,-11.0,2.0,-1.0,-1.0,-1.0,0.0,1651086890760579.0
-2.0,-7.0,-1.0,1.0,2.0,2.0,0.0,-1.0,1651086890760579.0
-1.0,1.0,2.0,-1.0,2.0,1.0,0.0,0.0,1651086890761480.0
-1.0,-1.0,3.0,-4.0,-5.0,-3.0,-1.0,-1.0,1651086890761480.0
-1.0,0.0,2.0,-2.0,-6.0,-4.0,-1.0,-2.0,1651086890790337.0
1.0,-1.0,-2.0,2.0,11.0,7.0,1.0,0.0,1651086890790337.0
0.0,-1.0,-3.0,4.0,3.0,0.0,-1.0,1.0,1651086890791234.0
1.0,4.0,6.0,0.0,-2.0,-1.0,-3.0,-1.0,1651086890791234.0
0.0,6.0,4.0,0.0,-2.0,-1.0,-2.0,0.0,1651086890796251.0
-3.0,-11.0,-7.0,-10.0,-6.0,-2.0,-2.0,-3.0,1651086890796251.0
0.0,0.0,1.0,2.0,1.0,0.0,-1.0,0.0,1651086890803671.0
-1.0,-5.0,-4.0,-1.0,-2.0,-1.0,2.0,0.0,1651086890803671.0
0.0,9.0,10.0,1.0,-2.0,-2.0,0.0,-1.0,1651086890819963.0
1.0,1.0,2.0,2.0,-1.0,-2.0,-2.0,-2.0,1651086890819963.0
-2.0,-6.0,-2.0,1.0,2.0,1.0,0.0,-1.0,1651086890821825.0
1.0,5.0,3.0,-3.0,-5.0,-4.0,-2.0,-1.0,1651086890821825.0
-1.0,-4.0,-11.0,-7.0,0.0,1.0,-1.0,1.0,1651086890859028.0
0.0,0.0,-1.0,1.0,-1.0,-2.0,0.0,0.0,1651086890859028.0
0.0,0.0,3.0,0.0,-3.0,-2.0,-2.0,-1.0,1651086890859995.0
-2.0,1.0,4.0,2.0,1.0,1.0,1.0,-1.0,1651086890859995.0
-1.0,-3.0,-16.0,-5.0,1.0,0.0,-1.0,-2.0,1651086890860991.0
0.0,1.0,0.0,1.0,-1.0,0.0,2.0,-1.0,1651086890860991.0
0.0,-1.0,-2.0,-1.0,-1.0,0.0,-2.0,0.0,1651086890864980.0
0.0,2.0,4.0,2.0,2.0,3.0,-1.0,0.0,1651086890864980.0
0.0,-3.0,2.0,-1.0,-2.0,-1.0,-1.0,1.0,1651086890880295.0
-1.0,1.0,-1.0,-3.0,-6.0,-5.0,-1.0,-1.0,1651086890880295.0
-1.0,1.0,3.0,0.0,1.0,0.0,1.0,-2.0,1651086890881155.0
0.0,-2.0,-5.0,-3.0,-2.0,1.0,0.0,1.0,1651086890881155.0
-2.0,2.0,0.0,-3.0,-2.0,-2.0,0.0,1.0,1651086890903204.0
1.0,-1.0,5.0,1.0,-1.0,-3.0,-3.0,1.0,1651086890903204.0
-2.0,-2.0,-2.0,-3.0,-3.0,-1.0,-1.0,0.0,1651086890904238.0
-2.0,-3.0,-4.0,-1.0,0.0,0.0,-1.0,0.0,1651086890904238.0
0.0,6.0,10.0,2.0,0.0,1.0,1.0,2.0,1651086890917509.0
1.0,-1.0,-3.0,0.0,-3.0,-1.0,0.0,0.0,1651086890917509.0
0.0,1.0,0.0,1.0,3.0,1.0,1.0,-1.0,1651086890924312.0
-1.0,-4.0,-3.0,-1.0,-1.0,-1.0,0.0,-2.0,1651086890924312.0
1.0,-7.0,-5.0,0.0,0.0,-2.0,-2.0,-1.0,1651086890940418.0
-1.0,8.0,9.0,2.0,-2.0,-1.0,-1.0,-2.0,1651086890940418.0
1.0,-1.0,-1.0,0.0,7.0,3.0,1.0,1.0,1651086890941318.0
1.0,0.0,-4.0,-4.0,-2.0,-4.0,1.0,0.0,1651086890941318.0
-1.0,-2.0,3.0,1.0,-1.0,0.0,-1.0,0.0,1651086890962307.0
-1.0,-3.0,-2.0,-2.0,1.0,0.0,-1.0,0.0,1651086890962307.0
-2.0,-1.0,-9.0,-4.0,-4.0,-3.0,0.0,-3.0,1651086890963294.0
0.0,1.0,1.0,0.0,-3.0,-3.0,0.0,-1.0,1651086890963294.0
1.0,-1.0,1.0,4.0,6.0,4.0,-1.0,1.0,1651086890976227.0
-2.0,-3.0,-1.0,-5.0,-6.0,-3.0,-1.0,0.0,1651086890976227.0
0.0,1.0,-5.0,0.0,0.0,-2.0,0.0,1.0,1651086890984373.0
-1.0,2.0,-1.0,2.0,2.0,2.0,-1.0,-1.0,1651086890984373.0
-1.0,-9.0,-12.0,0.0,1.0,0.0,1.0,-2.0,1651086891000376.0
-1.0,3.0,-5.0,2.0,0.0,2.0,0.0,-1.0,1651086891000376.0
0.0,2.0,3.0,-3.0,-3.0,-2.0,-2.0,0.0,1651086891001233.0
1.0,-2.0,-3.0,-1.0,-2.0,-2.0,-2.0,0.0,1651086891001233.0
1.0,2.0,5.0,-1.0,-1.0,-3.0,0.0,-1.0,1651086891022797.0
-1.0,0.0,0.0,2.0,6.0,3.0,1.0,1.0,1651086891022797.0
-3.0,-5.0,-5.0,1.0,0.0,-1.0,-1.0,-1.0,1651086891024094.0
1.0,3.0,4.0,-2.0,-3.0,-2.0,1.0,-2.0,1651086891024094.0
-2.0,-1.0,2.0,1.0,-6.0,-1.0,-1.0,-1.0,1651086891036120.0
1.0,-3.0,-3.0,1.0,0.0,-2.0,0.0,0.0,1651086891036120.0
0.0,0.0,-2.0,-2.0,0.0,2.0,-1.0,0.0,1651086891045384.0
-2.0,-3.0,-1.0,-1.0,-1.0,0.0,-1.0,0.0,1651086891045384.0
-1.0,-1.0,-5.0,-3.0,0.0,0.0,1.0,-1.0,1651086891059133.0
0.0,-2.0,-2.0,-2.0,0.0,0.0,1.0,-1.0,1651086891059133.0
0.0,0.0,0.0,1.0,-1.0,2.0,0.0,1.0,1651086891067137.0
-1.0,4.0,0.0,-1.0,0.0,-1.0,-2.0,-1.0,1651086891067137.0
-2.0,-1.0,8.0,-1.0,-2.0,-3.0,-2.0,-1.0,1651086891082300.0
-2.0,-5.0,-11.0,-6.0,2.0,-2.0,-1.0,1.0,1651086891082300.0
2.0,7.0,2.0,1.0,3.0,3.0,0.0,0.0,1651086891084064.0
0.0,-10.0,3.0,4.0,2.0,1.0,0.0,-1.0,1651086891084064.0
-2.0,0.0,0.0,0.0,1.0,1.0,1.0,-2.0,1651086891096200.0
0.0,-2.0,-6.0,-3.0,-2.0,-1.0,-2.0,-1.0,1651086891096200.0
-2.0,-1.0,3.0,0.0,-5.0,-3.0,-1.0,-1.0,1651086891105396.0
0.0,-3.0,-14.0,-5.0,-2.0,-1.0,0.0,-1.0,1651086891105396.0
2.0,8.0,16.0,3.0,0.0,-2.0,-1.0,-1.0,1651086891120731.0
2.0,-2.0,-4.0,-3.0,-2.0,-1.0,2.0,-1.0,1651086891120731.0
-2.0,-1.0,1.0,1.0,2.0,1.0,0.0,-1.0,1651086891121636.0
-1.0,0.0,3.0,5.0,5.0,1.0,0.0,1.0,1651086891121636.0
-1.0,-3.0,-5.0,0.0,-1.0,1.0,-1.0,1.0,1651086891142371.0
-1.0,1.0,-1.0,-4.0,-3.0,-1.0,-2.0,0.0,1651086891142371.0
0.0,-3.0,-1.0,-5.0,-5.0,-4.0,0.0,-1.0,1651086891144269.0
-2.0,0.0,4.0,1.0,1.0,1.0,-1.0,-1.0,1651086891144269.0
0.0,-3.0,-2.0,-3.0,-1.0,-1.0,-2.0,0.0,1651086891165717.0
0.0,3.0,1.0,3.0,-4.0,-1.0,-1.0,0.0,1651086891165717.0
0.0,-3.0,-5.0,-4.0,-5.0,-4.0,0.0,1.0,1651086891166587.0
-1.0,-2.0,3.0,-1.0,1.0,-1.0,-2.0,-2.0,1651086891166587.0
0.0,0.0,-8.0,-1.0,5.0,2.0,2.0,0.0,1651086891179351.0
1.0,6.0,3.0,3.0,-2.0,-2.0,0.0,-3.0,1651086891179351.0
1.0,-11.0,0.0,-1.0,-3.0,-3.0,0.0,-2.0,1651086891181189.0
2.0,0.0,-7.0,-6.0,-6.0,-3.0,-1.0,-2.0,1651086891181189.0
-2.0,-3.0,0.0,1.0,0.0,-1.0,0.0,-1.0,1651086891203218.0
-3.0,2.0,10.0,4.0,1.0,0.0,0.0,-1.0,1651086891203218.0
0.0,2.0,6.0,-2.0,0.0,-2.0,0.0,-2.0,1651086891204242.0
0.0,-3.0,-4.0,-1.0,-2.0,-2.0,1.0,0.0,1651086891204242.0
1.0,-2.0,-7.0,-5.0,-2.0,-3.0,-1.0,0.0,1651086891216375.0
2.0,-3.0,-3.0,2.0,3.0,0.0,0.0,0.0,1651086891216375.0
-1.0,0.0,1.0,-1.0,-1.0,2.0,1.0,1.0,1651086891225222.0
-2.0,4.0,6.0,-1.0,-2.0,1.0,-1.0,1.0,1651086891225222.0
-1.0,-1.0,-12.0,0.0,1.0,-2.0,0.0,0.0,1651086891240287.0
-2.0,-3.0,3.0,1.0,0.0,0.0,0.0,0.0,1651086891240287.0
-1.0,4.0,1.0,-1.0,0.0,-2.0,-1.0,-2.0,1651086891241240.0
0.0,0.0,1.0,0.0,-5.0,-3.0,-2.0,0.0,1651086891241240.0
-1.0,-2.0,2.0,-1.0,6.0,3.0,0.0,0.0,1651086891263141.0
1.0,2.0,1.0,-1.0,0.0,3.0,0.0,-2.0,1651086891263141.0
-1.0,-4.0,-7.0,3.0,1.0,-1.0,0.0,1.0,1651086891264174.0
-1.0,1.0,-2.0,0.0,0.0,-1.0,2.0,-2.0,1651086891264174.0
1.0,1.0,3.0,-1.0,-6.0,-3.0,-2.0,-2.0,1651086891276750.0
-2.0,-5.0,-5.0,-3.0,-2.0,-1.0,-2.0,0.0,1651086891276750.0
2.0,3.0,1.0,3.0,7.0,2.0,-1.0,-1.0,1651086891285207.0
-3.0,0.0,1.0,0.0,-1.0,-1.0,-1.0,0.0,1651086891285207.0
-1.0,0.0,0.0,-2.0,-2.0,-1.0,1.0,1.0,1651086891300568.0
0.0,-4.0,-3.0,0.0,1.0,-2.0,1.0,0.0,1651086891300568.0
-2.0,-1.0,-2.0,1.0,-2.0,0.0,0.0,-1.0,1651086891301200.0
2.0,1.0,4.0,0.0,0.0,-1.0,1.0,-2.0,1651086891301200.0
-1.0,-3.0,-9.0,-4.0,-4.0,-1.0,-2.0,-1.0,1651086891323132.0
-2.0,0.0,-11.0,-11.0,-5.0,0.0,0.0,-1.0,1651086891323132.0
0.0,0.0,1.0,0.0,-6.0,-4.0,-2.0,-1.0,1651086891324167.0
0.0,-1.0,1.0,-2.0,3.0,4.0,-2.0,-1.0,1651086891324167.0
0.0,1.0,9.0,3.0,2.0,0.0,1.0,1.0,1651086891345113.0
0.0,-2.0,-1.0,1.0,0.0,-1.0,-1.0,0.0,1651086891345113.0
-1.0,5.0,-2.0,-5.0,-5.0,-2.0,-3.0,-1.0,1651086891346073.0
1.0,-1.0,-4.0,-1.0,4.0,1.0,0.0,-2.0,1651086891346073.0
-1.0,-7.0,-1.0,-2.0,-4.0,-2.0,-1.0,-2.0,1651086891360454.0
-1.0,8.0,2.0,-3.0,-2.0,1.0,0.0,-1.0,1651086891360454.0
0.0,-4.0,-3.0,-4.0,-4.0,-1.0,1.0,0.0,1651086891361102.0
0.0,3.0,-4.0,1.0,-3.0,-1.0,0.0,1.0,1651086891361102.0
0.0,-2.0,1.0,-1.0,4.0,1.0,1.0,0.0,1651086891383234.0
-1.0,-3.0,5.0,3.0,0.0,-3.0,-1.0,-2.0,1651086891383234.0
-1.0,1.0,0.0,5.0,5.0,0.0,0.0,-3.0,1651086891384234.0
-1.0,-1.0,1.0,-7.0,-4.0,-3.0,-2.0,0.0,1651086891384234.0
-1.0,0.0,-13.0,-1.0,-9.0,-2.0,0.0,-2.0,1651086891396380.0
-1.0,-1.0,0.0,0.0,2.0,-4.0,-1.0,-1.0,1651086891396380.0
-1.0,-1.0,1.0,5.0,7.0,7.0,2.0,-1.0,1651086891405195.0
0.0,-2.0,1.0,3.0,4.0,1.0,1.0,1.0,1651086891405195.0
-1.0,0.0,5.0,-2.0,-2.0,-1.0,-1.0,-2.0,1651086891420668.0
0.0,-2.0,4.0,0.0,-1.0,-3.0,-1.0,-2.0,1651086891420668.0
0.0,-1.0,-14.0,-1.0,5.0,-1.0,0.0,0.0,1651086891421512.0
1.0,0.0,5.0,12.0,6.0,2.0,0.0,0.0,1651086891421512.0
-2.0,-8.0,-8.0,-8.0,-8.0,-6.0,-3.0,-1.0,1651086891442265.0
0.0,5.0,5.0,1.0,5.0,3.0,1.0,0.0,1651086891442265.0
1.0,5.0,1.0,4.0,7.0,3.0,0.0,1.0,1651086891444259.0
-1.0,-5.0,1.0,-9.0,-16.0,-8.0,-1.0,0.0,1651086891444259.0
-1.0,-5.0,-3.0,2.0,5.0,2.0,-1.0,-1.0,1651086891456392.0
-1.0,-6.0,-10.0,4.0,-13.0,-5.0,-1.0,0.0,1651086891456392.0
-2.0,-1.0,-1.0,-5.0,2.0,0.0,-1.0,0.0,1651086891472395.0
-1.0,-2.0,-4.0,-4.0,-4.0,0.0,0.0,0.0,1651086891472395.0
0.0,5.0,10.0,6.0,-5.0,-6.0,-2.0,-1.0,1651086891480389.0
-1.0,-1.0,-4.0,-14.0,-28.0,-14.0,-5.0,-2.0,1651086891480389.0
-1.0,-2.0,-2.0,-8.0,-19.0,-8.0,-3.0,-3.0,1651086891481235.0
1.0,7.0,-2.0,2.0,6.0,9.0,2.0,-1.0,1651086891481235.0
0.0,2.0,5.0,11.0,20.0,7.0,3.0,2.0,1651086891503217.0
1.0,2.0,-3.0,-28.0,-35.0,-9.0,-3.0,0.0,1651086891503217.0
-3.0,-13.0,-5.0,8.0,8.0,-6.0,-2.0,-2.0,1651086891504251.0
-1.0,1.0,3.0,-4.0,-6.0,1.0,-1.0,-1.0,1651086891504251.0
-1.0,3.0,4.0,12.0,-9.0,-4.0,-2.0,-2.0,1651086891524283.0
2.0,-4.0,5.0,32.0,80.0,38.0,12.0,7.0,1651086891524283.0
-2.0,-4.0,-6.0,-24.0,-22.0,-11.0,-4.0,-2.0,1651086891526222.0
0.0,6.0,6.0,11.0,18.0,4.0,1.0,-2.0,1651086891526222.0
1.0,3.0,0.0,-9.0,-7.0,-4.0,-1.0,1.0,1651086891539239.0
-1.0,2.0,2.0,-6.0,-23.0,-11.0,-4.0,-2.0,1651086891539239.0
0.0,0.0,2.0,-5.0,2.0,4.0,-1.0,0.0,1651086891546378.0
1.0,5.0,3.0,12.0,25.0,8.0,3.0,2.0,1651086891546378.0
0.0,-3.0,-13.0,-22.0,-25.0,-8.0,-3.0,-2.0,1651086891563141.0
-1.0,-4.0,1.0,-5.0,4.0,1.0,0.0,0.0,1651086891563141.0
0.0,2.0,7.0,34.0,26.0,16.0,5.0,3.0,1651086891564172.0
-1.0,-5.0,4.0,27.0,14.0,-6.0,-5.0,0.0,1651086891564172.0
1.0,2.0,3.0,-6.0,17.0,10.0,2.0,0.0,1651086891585721.0
-1.0,-2.0,-1.0,2.0,9.0,5.0,1.0,0.0,1651086891585721.0
-1.0,-1.0,-1.0,-6.0,-11.0,-4.0,-1.0,-1.0,1651086891586593.0
-3.0,-3.0,-8.0,-17.0,-26.0,-9.0,-1.0,-2.0,1651086891586593.0
-1.0,-2.0,-1.0,-9.0,-15.0,-8.0,-2.0,0.0,1651086891598877.0
-1.0,-2.0,-2.0,4.0,5.0,0.0,-2.0,-2.0,1651086891598877.0
2.0,0.0,2.0,-4.0,-4.0,-1.0,2.0,1.0,1651086891605740.0
-2.0,-7.0,-10.0,-10.0,-14.0,-11.0,-4.0,-5.0,1651086891605740.0
-2.0,0.0,-5.0,-14.0,0.0,2.0,-1.0,-2.0,1651086891623200.0
0.0,-4.0,-1.0,0.0,-22.0,-9.0,-2.0,-3.0,1651086891623200.0
3.0,8.0,13.0,23.0,38.0,11.0,4.0,1.0,1651086891624200.0
-2.0,-5.0,-14.0,-15.0,-15.0,-1.0,-2.0,0.0,1651086891624200.0
-1.0,-3.0,-8.0,11.0,19.0,8.0,1.0,1.0,1651086891644236.0
-1.0,9.0,3.0,-8.0,-19.0,-9.0,-4.0,-3.0,1651086891644236.0
-3.0,-3.0,-11.0,-12.0,-4.0,-1.0,-3.0,-2.0,1651086891646197.0
-1.0,-2.0,0.0,-4.0,-12.0,-4.0,-1.0,-1.0,1651086891646197.0
0.0,-7.0,18.0,4.0,12.0,5.0,1.0,1.0,1651086891658165.0
-2.0,-1.0,9.0,4.0,0.0,-4.0,-2.0,-2.0,1651086891658165.0
-1.0,0.0,-37.0,-22.0,-10.0,-3.0,1.0,-1.0,1651086891667908.0
2.0,6.0,7.0,7.0,7.0,3.0,0.0,2.0,1651086891667908.0
1.0,5.0,-2.0,-9.0,2.0,1.0,1.0,0.0,1651086891682411.0
0.0,-4.0,-13.0,5.0,12.0,5.0,2.0,1.0,1651086891682411.0
-4.0,-2.0,50.0,25.0,-12.0,-6.0,-3.0,-3.0,1651086891683306.0
-3.0,-5.0,-17.0,-11.0,-3.0,-2.0,-1.0,0.0,1651086891683306.0
1.0,1.0,3.0,23.0,8.0,3.0,0.0,2.0,1651086891705268.0
2.0,7.0,-30.0,-21.0,0.0,4.0,3.0,1.0,1651086891705268.0
-2.0,-9.0,4.0,-24.0,-15.0,-5.0,-2.0,-1.0,1651086891706201.0
2.0,0.0,29.0,43.0,9.0,3.0,-1.0,0.0,1651086891706201.0
-1.0,1.0,7.0,-7.0,0.0,-2.0,-2.0,-2.0,1651086891718881.0
2.0,5.0,39.0,25.0,6.0,4.0,2.0,7.0,1651086891718881.0
-4.0,-4.0,-30.0,-11.0,-7.0,-5.0,-5.0,-19.0,1651086891727125.0
7.0,8.0,33.0,-9.0,5.0,6.0,5.0,13.0,1651086891727125.0
-9.0,-8.0,-10.0,8.0,-14.0,-10.0,-9.0,-8.0,1651086891743204.0
-3.0,-7.0,-3.0,-31.0,3.0,2.0,-2.0,-15.0,1651086891743204.0
-1.0,-3.0,23.0,46.0,5.0,1.0,0.0,-5.0,1651086891745201.0
-2.0,-3.0,-35.0,-27.0,-5.0,-5.0,-3.0,-10.0,1651086891745201.0
21.0,10.0,28.0,33.0,8.0,4.0,4.0,12.0,1651086891765300.0
-5.0,3.0,-1.0,-23.0,-5.0,-2.0,4.0,6.0,1651086891765300.0
0.0,0.0,-39.0,-43.0,-15.0,-5.0,-1.0,7.0,1651086891766299.0
5.0,-8.0,-35.0,7.0,3.0,-1.0,2.0,18.0,1651086891766299.0
4.0,0.0,22.0,20.0,-7.0,-2.0,-7.0,-24.0,1651086891779219.0
-8.0,6.0,43.0,38.0,15.0,1.0,0.0,-3.0,1651086891779219.0
-16.0,-10.0,-57.0,-60.0,-7.0,0.0,1.0,2.0,1651086891787931.0
-1.0,2.0,16.0,1.0,-4.0,0.0,0.0,13.0,1651086891787931.0
6.0,0.0,-43.0,-33.0,3.0,-1.0,-3.0,-9.0,1651086891802238.0
-8.0,-9.0,6.0,21.0,-14.0,-3.0,1.0,-26.0,1651086891802238.0
21.0,9.0,-1.0,13.0,-1.0,1.0,-1.0,4.0,1651086891804129.0
-22.0,-14.0,-7.0,-39.0,-2.0,-3.0,-4.0,-10.0,1651086891804129.0
15.0,2.0,34.0,47.0,1.0,0.0,4.0,1.0,1651086891825252.0
10.0,-5.0,-27.0,-60.0,-12.0,-6.0,-2.0,5.0,1651086891825252.0
-8.0,12.0,-7.0,11.0,7.0,6.0,2.0,-1.0,1651086891826217.0
-18.0,-7.0,3.0,15.0,-2.0,-1.0,-5.0,-23.0,1651086891826217.0
6.0,3.0,-6.0,13.0,9.0,-1.0,-3.0,-7.0,1651086891839108.0
14.0,-4.0,-27.0,-5.0,2.0,3.0,4.0,24.0,1651086891839108.0
-8.0,8.0,4.0,16.0,5.0,3.0,0.0,18.0,1651086891847254.0
12.0,2.0,32.0,38.0,13.0,2.0,-3.0,-11.0,1651086891847254.0
-12.0,-5.0,-45.0,-26.0,-11.0,0.0,2.0,6.0,1651086891862526.0
-4.0,-4.0,-14.0,23.0,15.0,5.0,0.0,8.0,1651086891862526.0
7.0,-10.0,6.0,-31.0,-9.0,-8.0,-5.0,-13.0,1651086891863399.0
-30.0,11.0,7.0,22.0,9.0,1.0,-4.0,-23.0,1651086891863399.0
-12.0,-4.0,25.0,-33.0,-14.0,-2.0,3.0,8.0,1651086891885350.0
3.0,3.0,-10.0,-2.0,1.0,-1.0,-4.0,-4.0,1651086891885350.0
-3.0,-5.0,-12.0,7.0,-2.0,-2.0,-1.0,0.0,1651086891886209.0
-17.0,7.0,39.0,13.0,2.0,4.0,8.0,-1.0,1651086891886209.0
7.0,-13.0,-59.0,-9.0,-1.0,-1.0,-2.0,15.0,1651086891899243.0
-22.0,0.0,9.0,3.0,-5.0,2.0,-3.0,-1.0,1651086891899243.0
-3.0,-8.0,45.0,-5.0,-2.0,-15.0,-12.0,-14.0,1651086891907388.0
26.0,5.0,-38.0,3.0,-2.0,24.0,21.0,13.0,1651086891907388.0
-10.0,9.0,60.0,11.0,6.0,2.0,-2.0,-14.0,1651086891922781.0
-3.0,-13.0,-37.0,-5.0,-1.0,-3.0,-4.0,-11.0,1651086891922781.0
13.0,23.0,36.0,4.0,-1.0,12.0,11.0,29.0,1651086891924125.0
9.0,-25.0,-66.0,-58.0,-15.0,-14.0,-10.0,9.0,1651086891924125.0
-6.0,10.0,41.0,32.0,3.0,2.0,-2.0,-29.0,1651086891945272.0
-2.0,-4.0,0.0,2.0,7.0,-2.0,-3.0,1.0,1651086891945272.0
-11.0,4.0,-14.0,-25.0,2.0,-4.0,-3.0,-19.0,1651086891946121.0
7.0,1.0,26.0,3.0,-2.0,-1.0,6.0,13.0,1651086891946121.0
-32.0,4.0,-19.0,-13.0,-13.0,-8.0,5.0,20.0,1651086891958305.0
37.0,9.0,23.0,8.0,-4.0,-6.0,-5.0,2.0,1651086891958305.0
6.0,-5.0,-21.0,7.0,11.0,1.0,-5.0,-7.0,1651086891967547.0
7.0,7.0,45.0,40.0,9.0,4.0,5.0,13.0,1651086891967547.0
7.0,-15.0,-86.0,-30.0,-9.0,-4.0,4.0,3.0,1651086891982463.0
-9.0,3.0,35.0,24.0,-3.0,-4.0,-5.0,0.0,1651086891982463.0
12.0,-7.0,-24.0,-6.0,-4.0,11.0,20.0,2.0,1651086891984131.0
-16.0,-5.0,-26.0,-30.0,-10.0,-17.0,-12.0,-23.0,1651086891984131.0
-1.0,-10.0,2.0,12.0,3.0,-6.0,-1.0,16.0,1651086892005355.0
-17.0,-4.0,-2.0,-6.0,-2.0,19.0,15.0,6.0,1651086892005355.0
5.0,-4.0,-21.0,25.0,4.0,1.0,-6.0,-2.0,1651086892006206.0
3.0,5.0,11.0,-33.0,-8.0,1.0,1.0,-5.0,1651086892006206.0
3.0,-1.0,-41.0,-46.0,-8.0,-5.0,-1.0,13.0,1651086892019403.0
20.0,1.0,45.0,58.0,2.0,-16.0,-19.0,-29.0,1651086892019403.0
-15.0,-11.0,-52.0,-29.0,-6.0,-2.0,2.0,16.0,1651086892027663.0
16.0,12.0,6.0,2.0,6.0,-5.0,-7.0,-6.0,1651086892027663.0
-7.0,2.0,25.0,35.0,12.0,5.0,-1.0,-14.0,1651086892042518.0
2.0,-14.0,-70.0,-71.0,-6.0,-2.0,2.0,3.0,1651086892042518.0
-4.0,2.0,52.0,48.0,5.0,-3.0,-1.0,1.0,1651086892044093.0
7.0,-10.0,-42.0,-13.0,-8.0,-2.0,2.0,-9.0,1651086892044093.0
-4.0,6.0,66.0,17.0,-5.0,-2.0,-6.0,12.0,1651086892065101.0
3.0,4.0,-40.0,-15.0,-10.0,-1.0,5.0,4.0,1651086892065101.0
-27.0,-7.0,3.0,-7.0,4.0,2.0,-2.0,3.0,1651086892066089.0
12.0,-3.0,23.0,25.0,6.0,-1.0,-3.0,24.0,1651086892066089.0
-2.0,-1.0,-8.0,-32.0,-9.0,4.0,-4.0,-5.0,1651086892079093.0
0.0,7.0,48.0,25.0,13.0,-8.0,-9.0,7.0,1651086892079093.0
6.0,0.0,-9.0,-4.0,-5.0,-4.0,2.0,-8.0,1651086892087224.0
0.0,-3.0,47.0,32.0,8.0,11.0,13.0,15.0,1651086892087224.0
-13.0,2.0,-31.0,-14.0,0.0,-10.0,-2.0,-16.0,1651086892103204.0
-8.0,-1.0,28.0,22.0,-7.0,5.0,4.0,19.0,1651086892103204.0
-7.0,1.0,-18.0,-42.0,-6.0,2.0,-6.0,0.0,1651086892104238.0
-26.0,0.0,44.0,30.0,9.0,0.0,2.0,-2.0,1651086892104238.0
11.0,-1.0,3.0,13.0,-10.0,2.0,1.0,-10.0,1651086892124249.0
3.0,7.0,-29.0,-15.0,3.0,2.0,17.0,6.0,1651086892124249.0
-10.0,-10.0,28.0,18.0,-7.0,-6.0,-2.0,5.0,1651086892126208.0
8.0,4.0,0.0,6.0,1.0,-5.0,-2.0,-1.0,1651086892126208.0
6.0,11.0,-18.0,11.0,7.0,8.0,0.0,3.0,1651086892139228.0
-15.0,-15.0,-25.0,0.0,5.0,1.0,-5.0,-5.0,1651086892139228.0
13.0,4.0,13.0,-11.0,-14.0,-6.0,1.0,1.0,1651086892147358.0
3.0,-13.0,-14.0,-4.0,-8.0,-4.0,-5.0,-2.0,1651086892147358.0
10.0,16.0,-4.0,-3.0,6.0,0.0,1.0,12.0,1651086892162553.0
0.0,1.0,30.0,33.0,3.0,1.0,-1.0,-17.0,1651086892162553.0
13.0,2.0,4.0,-9.0,2.0,-3.0,2.0,11.0,1651086892163394.0
2.0,4.0,-32.0,-33.0,-5.0,0.0,1.0,-2.0,1651086892163394.0
-4.0,-15.0,-13.0,-9.0,-1.0,-3.0,-9.0,-9.0,1651086892185462.0
-15.0,-2.0,12.0,9.0,0.0,-1.0,-2.0,-4.0,1651086892185462.0
5.0,4.0,29.0,25.0,-8.0,-5.0,-5.0,-3.0,1651086892186309.0
-14.0,9.0,-9.0,6.0,4.0,-5.0,-3.0,1.0,1651086892186309.0
-4.0,-9.0,-45.0,-35.0,6.0,20.0,10.0,14.0,1651086892199018.0
-3.0,-10.0,-12.0,-28.0,-13.0,-8.0,-12.0,-6.0,1651086892199018.0
0.0,-5.0,9.0,19.0,5.0,-1.0,-3.0,10.0,1651086892207247.0
-6.0,10.0,13.0,16.0,4.0,11.0,1.0,-43.0,1651086892207247.0
-2.0,-5.0,-31.0,2.0,0.0,-11.0,-4.0,-12.0,1651086892222994.0
10.0,3.0,0.0,-39.0,-5.0,-6.0,-1.0,1.0,1651086892222994.0
-3.0,7.0,39.0,39.0,13.0,0.0,-3.0,-3.0,1651086892224135.0
-8.0,-8.0,-19.0,-46.0,-17.0,-8.0,-7.0,9.0,1651086892224135.0
-5.0,-3.0,30.0,21.0,9.0,-3.0,9.0,4.0,1651086892245276.0
9.0,-1.0,10.0,4.0,0.0,0.0,2.0,9.0,1651086892245276.0
-6.0,1.0,4.0,-6.0,-1.0,-1.0,2.0,4.0,1651086892246129.0
-6.0,-7.0,-12.0,-37.0,-5.0,1.0,-3.0,-4.0,1651086892246129.0
1.0,0.0,35.0,30.0,4.0,-3.0,0.0,-10.0,1651086892258909.0
46.0,4.0,-13.0,-21.0,-3.0,0.0,1.0,26.0,1651086892258909.0
7.0,6.0,19.0,17.0,10.0,4.0,0.0,-20.0,1651086892267999.0
4.0,1.0,-20.0,8.0,-1.0,0.0,-1.0,20.0,1651086892267999.0
-5.0,-5.0,21.0,0.0,-3.0,-2.0,2.0,24.0,1651086892282495.0
-10.0,-4.0,-49.0,-15.0,-1.0,0.0,-3.0,-8.0,1651086892282495.0
5.0,-8.0,-26.0,-23.0,-5.0,-3.0,-3.0,-25.0,1651086892284115.0
16.0,2.0,-44.0,-24.0,3.0,1.0,-1.0,-5.0,1651086892284115.0
23.0,7.0,74.0,53.0,4.0,7.0,6.0,5.0,1651086892305394.0
-9.0,7.0,30.0,31.0,-1.0,1.0,1.0,3.0,1651086892305394.0
-2.0,-6.0,-46.0,10.0,3.0,2.0,2.0,9.0,1651086892306228.0
-14.0,-3.0,20.0,2.0,-4.0,-2.0,-2.0,-6.0,1651086892306228.0
4.0,1.0,-15.0,-33.0,-6.0,-11.0,-4.0,-12.0,1651086892319150.0
-10.0,-3.0,-30.0,7.0,7.0,17.0,0.0,12.0,1651086892319150.0
3.0,11.0,25.0,-4.0,4.0,0.0,-5.0,-29.0,1651086892327240.0
1.0,-9.0,19.0,30.0,9.0,8.0,5.0,4.0,1651086892327240.0
-13.0,-4.0,-26.0,-19.0,-5.0,-6.0,-6.0,-8.0,1651086892342510.0
-5.0,3.0,7.0,14.0,-3.0,-6.0,-3.0,-19.0,1651086892342510.0
-18.0,-7.0,-28.0,-41.0,1.0,1.0,3.0,7.0,1651086892344091.0
-8.0,4.0,43.0,1.0,-7.0,0.0,0.0,1.0,1651086892344091.0
-2.0,-1.0,-2.0,-3.0,-2.0,-3.0,-2.0,-16.0,1651086892365293.0
-1.0,-7.0,-2.0,-4.0,-10.0,-7.0,-2.0,-10.0,1651086892365293.0
-9.0,3.0,-20.0,-1.0,-3.0,-1.0,0.0,6.0,1651086892366182.0
17.0,4.0,-29.0,-24.0,-1.0,-7.0,-3.0,0.0,1651086892366182.0
-24.0,-5.0,32.0,5.0,1.0,8.0,8.0,1.0,1651086892379499.0
-9.0,10.0,4.0,15.0,4.0,6.0,21.0,27.0,1651086892379499.0
40.0,-6.0,18.0,-8.0,-6.0,-4.0,-7.0,-11.0,1651086892387358.0
-9.0,-4.0,-58.0,-20.0,-2.0,-4.0,2.0,15.0,1651086892387358.0
-19.0,5.0,37.0,-12.0,-6.0,-5.0,-17.0,15.0,1651086892402388.0
4.0,-1.0,-33.0,14.0,12.0,12.0,5.0,-10.0,1651086892402388.0
-12.0,2.0,38.0,-12.0,-6.0,3.0,7.0,20.0,1651086892404259.0
12.0,5.0,-34.0,14.0,11.0,3.0,1.0,-6.0,1651086892404259.0
6.0,-13.0,-9.0,-15.0,-14.0,-6.0,-6.0,4.0,1651086892424241.0
-11.0,-4.0,-3.0,-21.0,-1.0,-7.0,-7.0,0.0,1651086892424241.0
-3.0,12.0,27.0,29.0,-1.0,-1.0,-5.0,2.0,1651086892426234.0
0.0,-7.0,31.0,7.0,0.0,-1.0,-3.0,-8.0,1651086892426234.0
-3.0,-1.0,-62.0,-29.0,5.0,5.0,9.0,1.0,1651086892455376.0
0.0,-2.0,1.0,-16.0,-7.0,-6.0,-2.0,2.0,1651086892455376.0
3.0,-2.0,-2.0,24.0,3.0,-3.0,2.0,-6.0,1651086892456210.0
12.0,-2.0,-28.0,-19.0,-3.0,2.0,5.0,28.0,1651086892456210.0
3.0,4.0,9.0,-2.0,-5.0,1.0,-4.0,-17.0,1651086892463225.0
11.0,20.0,53.0,9.0,9.0,-2.0,-3.0,-2.0,1651086892463225.0
-16.0,-25.0,-40.0,-14.0,-6.0,0.0,4.0,11.0,1651086892464229.0
3.0,3.0,35.0,24.0,-4.0,-3.0,-5.0,-7.0,1651086892464229.0
15.0,-7.0,-6.0,4.0,12.0,9.0,5.0,23.0,1651086892485390.0
-10.0,-4.0,5.0,-28.0,-13.0,-7.0,-8.0,-45.0,1651086892485390.0
5.0,4.0,-20.0,-3.0,4.0,2.0,3.0,6.0,1651086892486224.0
-34.0,0.0,40.0,31.0,5.0,2.0,-3.0,-17.0,1651086892486224.0
14.0,-2.0,-42.0,19.0,0.0,-4.0,-2.0,1.0,1651086892507360.0
21.0,2.0,51.0,1.0,0.0,1.0,4.0,21.0,1651086892507360.0
-18.0,-3.0,-30.0,5.0,0.0,-2.0,-4.0,-17.0,1651086892508361.0
-12.0,4.0,26.0,2.0,-2.0,-1.0,6.0,10.0,1651086892508361.0
5.0,12.0,-17.0,-14.0,-3.0,-8.0,-10.0,-6.0,1651086892523120.0
6.0,-4.0,1.0,30.0,8.0,7.0,-3.0,19.0,1651086892523120.0
-1.0,-1.0,41.0,1.0,-2.0,-1.0,-4.0,1.0,1651086892524168.0
11.0,12.0,2.0,7.0,1.0,6.0,1.0,-4.0,1651086892524168.0
-18.0,-6.0,16.0,19.0,11.0,2.0,-2.0,-3.0,1651086892545380.0
-2.0,-11.0,-61.0,-28.0,-11.0,-5.0,5.0,0.0,1651086892545380.0
1.0,-2.0,11.0,4.0,3.0,1.0,-2.0,4.0,1651086892546214.0
-15.0,-3.0,-27.0,-11.0,-9.0,-9.0,-10.0,-10.0,1651086892546214.0
10.0,5.0,9.0,-4.0,-2.0,-5.0,-4.0,4.0,1651086892567790.0
-14.0,1.0,15.0,25.0,1.0,8.0,3.0,3.0,1651086892567790.0
3.0,-11.0,-12.0,2.0,4.0,4.0,5.0,-6.0,1651086892568791.0
8.0,3.0,-18.0,-4.0,-6.0,-5.0,1.0,6.0,1651086892568791.0
-1.0,7.0,12.0,-2.0,3.0,4.0,2.0,2.0,1651086892581967.0
-7.0,-10.0,-25.0,-14.0,-3.0,-7.0,-4.0,-6.0,1651086892581967.0
1.0,9.0,3.0,13.0,-6.0,-1.0,1.0,-1.0,1651086892588910.0
20.0,-5.0,-6.0,-35.0,5.0,5.0,5.0,19.0,1651086892588910.0
-13.0,-9.0,-13.0,34.0,-1.0,0.0,-1.0,-22.0,1651086892605378.0
17.0,2.0,4.0,4.0,4.0,-2.0,-2.0,-11.0,1651086892605378.0
-10.0,5.0,22.0,-3.0,-1.0,-6.0,0.0,13.0,1651086892606219.0
-5.0,-14.0,-4.0,-1.0,0.0,-3.0,-6.0,-18.0,1651086892606219.0
4.0,11.0,26.0,-6.0,-3.0,-8.0,0.0,4.0,1651086892627675.0
-3.0,0.0,-13.0,-2.0,-3.0,5.0,6.0,-11.0,1651086892627675.0
-3.0,1.0,14.0,-44.0,-8.0,-3.0,-4.0,0.0,1651086892628674.0
15.0,7.0,24.0,69.0,15.0,1.0,1.0,12.0,1651086892628674.0
-9.0,-3.0,-43.0,-68.0,-20.0,-2.0,-3.0,-33.0,1651086892642059.0
-8.0,1.0,30.0,9.0,5.0,-1.0,-2.0,-8.0,1651086892642059.0
4.0,6.0,30.0,33.0,13.0,4.0,4.0,27.0,1651086892649005.0
-5.0,-7.0,-19.0,-47.0,-14.0,-11.0,-16.0,-27.0,1651086892649005.0
3.0,-1.0,17.0,20.0,4.0,12.0,17.0,16.0,1651086892664390.0
3.0,-3.0,23.0,11.0,2.0,2.0,-5.0,-1.0,1651086892664390.0
2.0,5.0,1.0,6.0,-5.0,5.0,6.0,17.0,1651086892666219.0
16.0,2.0,4.0,7.0,0.0,-5.0,-8.0,-17.0,1651086892666219.0
8.0,-3.0,-27.0,-58.0,-4.0,0.0,7.0,12.0,1651086892687862.0
-19.0,0.0,-7.0,10.0,-2.0,-3.0,-6.0,-9.0,1651086892687862.0
13.0,11.0,-14.0,26.0,16.0,5.0,5.0,-4.0,1651086892688862.0
-4.0,-15.0,-14.0,-20.0,-9.0,-1.0,2.0,7.0,1651086892688862.0
16.0,8.0,20.0,-3.0,0.0,0.0,0.0,8.0,1651086892702158.0
-19.0,0.0,24.0,-5.0,-2.0,-3.0,-1.0,1.0,1651086892702158.0
1.0,0.0,-46.0,-15.0,-2.0,-2.0,-5.0,-26.0,1651086892708018.0
1.0,2.0,-26.0,-1.0,1.0,0.0,8.0,15.0,1651086892708018.0
-6.0,2.0,47.0,35.0,12.0,5.0,-3.0,19.0,1651086892724223.0
13.0,-12.0,-31.0,-31.0,-9.0,-9.0,-1.0,7.0,1651086892724223.0
6.0,-5.0,-13.0,-13.0,-8.0,-4.0,-9.0,-19.0,1651086892731391.0
-4.0,5.0,54.0,29.0,9.0,9.0,10.0,6.0,1651086892731391.0
-17.0,-3.0,9.0,27.0,1.0,-7.0,-9.0,-6.0,1651086892747228.0
2.0,0.0,-23.0,7.0,10.0,8.0,3.0,11.0,1651086892747228.0
23.0,0.0,0.0,-28.0,-9.0,-1.0,3.0,10.0,1651086892749255.0
-33.0,0.0,19.0,42.0,7.0,2.0,-3.0,-17.0,1651086892749255.0
11.0,-5.0,-45.0,-22.0,-11.0,-3.0,1.0,-4.0,1651086892762503.0
8.0,10.0,33.0,3.0,2.0,-6.0,-11.0,-16.0,1651086892762503.0
3.0,-7.0,-19.0,2.0,12.0,4.0,1.0,5.0,1651086892768881.0
0.0,-5.0,-15.0,-20.0,-19.0,-6.0,-1.0,-5.0,1651086892768881.0
5.0,3.0,23.0,8.0,4.0,0.0,-1.0,6.0,1651086892785246.0
-8.0,-8.0,-19.0,7.0,-4.0,-7.0,1.0,-11.0,1651086892785246.0
-9.0,5.0,5.0,-8.0,0.0,1.0,-2.0,3.0,1651086892786210.0
28.0,-2.0,-41.0,-29.0,-3.0,3.0,4.0,6.0,1651086892786210.0
-10.0,-1.0,30.0,26.0,2.0,1.0,0.0,28.0,1651086892807393.0
5.0,11.0,14.0,5.0,-1.0,-1.0,-1.0,-30.0,1651086892807393.0
-3.0,2.0,-19.0,-1.0,-6.0,-4.0,5.0,-6.0,1651086892808395.0
-3.0,-11.0,-6.0,-20.0,-6.0,-2.0,-4.0,8.0,1651086892808395.0
0.0,-10.0,-9.0,-3.0,-4.0,-3.0,-2.0,16.0,1651086892822078.0
29.0,9.0,21.0,-17.0,4.0,3.0,-1.0,-3.0,1651086892822078.0
-17.0,-9.0,-19.0,23.0,-1.0,-3.0,0.0,-2.0,1651086892828200.0
-11.0,9.0,6.0,-8.0,2.0,1.0,-1.0,-11.0,1651086892828200.0
-10.0,-10.0,-6.0,-20.0,-7.0,-3.0,-1.0,-23.0,1651086892845183.0
-11.0,9.0,20.0,28.0,14.0,8.0,7.0,42.0,1651086892845183.0
6.0,-13.0,-17.0,-40.0,-12.0,-7.0,-10.0,-18.0,1651086892846056.0
3.0,3.0,2.0,-1.0,-1.0,-5.0,-2.0,8.0,1651086892846056.0
1.0,6.0,2.0,18.0,3.0,2.0,1.0,-8.0,1651086892867352.0
-11.0,3.0,14.0,1.0,5.0,-1.0,1.0,11.0,1651086892867352.0
7.0,0.0,10.0,13.0,-3.0,2.0,5.0,24.0,1651086892869239.0
-4.0,6.0,-4.0,30.0,6.0,0.0,-8.0,-30.0,1651086892869239.0
14.0,-3.0,-22.0,-9.0,1.0,5.0,8.0,0.0,1651086892881228.0
-7.0,-4.0,-39.0,-3.0,-7.0,-4.0,-7.0,-23.0,1651086892881228.0
-23.0,-11.0,4.0,-18.0,-6.0,-4.0,-5.0,-9.0,1651086892888351.0
7.0,1.0,-4.0,-7.0,-4.0,2.0,4.0,12.0,1651086892888351.0
6.0,3.0,-8.0,25.0,8.0,1.0,-4.0,-1.0,1651086892905269.0
-6.0,-3.0,-18.0,-16.0,-8.0,-2.0,-3.0,-3.0,1651086892905269.0
4.0,1.0,8.0,10.0,2.0,-4.0,-3.0,-10.0,1651086892906211.0
-17.0,-6.0,-22.0,-22.0,-4.0,9.0,3.0,1.0,1651086892906211.0
-4.0,-2.0,22.0,6.0,-3.0,-3.0,-2.0,-10.0,1651086892927707.0
7.0,-2.0,-27.0,-17.0,-1.0,0.0,7.0,6.0,1651086892927707.0
14.0,7.0,16.0,-1.0,0.0,3.0,-1.0,-1.0,1651086892928707.0
-4.0,-2.0,14.0,3.0,0.0,-3.0,-2.0,-8.0,1651086892928707.0
9.0,4.0,12.0,-5.0,6.0,4.0,2.0,3.0,1651086892940818.0
-7.0,-5.0,-21.0,7.0,-6.0,-2.0,1.0,8.0,1651086892940818.0
-7.0,0.0,-4.0,12.0,4.0,-1.0,-4.0,-21.0,1651086892949865.0
9.0,3.0,-2.0,-13.0,-3.0,-2.0,1.0,12.0,1651086892949865.0
-7.0,1.0,17.0,25.0,6.0,0.0,0.0,4.0,1651086892964989.0
5.0,1.0,12.0,-15.0,-7.0,-4.0,-9.0,-49.0,1651086892964989.0
-7.0,-2.0,4.0,17.0,-2.0,2.0,4.0,-2.0,1651086892966019.0
3.0,-3.0,-15.0,-6.0,-3.0,-3.0,-4.0,12.0,1651086892966019.0
0.0,6.0,8.0,6.0,0.0,-1.0,-4.0,-6.0,1651086892987734.0
-4.0,-10.0,-52.0,-3.0,7.0,3.0,3.0,16.0,1651086892987734.0
-4.0,-4.0,14.0,-20.0,-3.0,1.0,-1.0,2.0,1651086892988735.0
-9.0,1.0,33.0,18.0,2.0,-2.0,-2.0,-5.0,1651086892988735.0
5.0,0.0,-21.0,-33.0,-15.0,-2.0,4.0,-1.0,1651086893010254.0
-7.0,-1.0,16.0,41.0,4.0,-2.0,-2.0,8.0,1651086893010254.0
-1.0,0.0,0.0,-13.0,-8.0,-3.0,-1.0,3.0,1651086893011092.0
3.0,2.0,-12.0,-5.0,6.0,7.0,4.0,6.0,1651086893011092.0
-2.0,-5.0,2.0,-1.0,1.0,-2.0,-1.0,-6.0,1651086893025206.0
-3.0,2.0,0.0,-13.0,-3.0,-1.0,-1.0,3.0,1651086893025206.0
0.0,1.0,-3.0,7.0,2.0,-3.0,1.0,0.0,1651086893026203.0
1.0,-2.0,3.0,-2.0,-2.0,-2.0,-1.0,1.0,1651086893026203.0
-2.0,0.0,1.0,-4.0,3.0,2.0,1.0,-4.0,1651086893047730.0
-1.0,-3.0,4.0,-9.0,-10.0,-3.0,0.0,4.0,1651086893047730.0
3.0,7.0,14.0,6.0,1.0,-3.0,-3.0,3.0,1651086893048402.0
2.0,-1.0,1.0,5.0,19.0,5.0,2.0,0.0,1651086893048402.0
-5.0,-9.0,-15.0,-2.0,2.0,0.0,-3.0,-3.0,1651086893061398.0
-1.0,2.0,15.0,2.0,-5.0,-4.0,1.0,6.0,1651086893061398.0
1.0,1.0,1.0,5.0,7.0,5.0,-1.0,2.0,1651086893070210.0
-2.0,-7.0,-3.0,-10.0,-12.0,-3.0,-1.0,-4.0,1651086893070210.0
-2.0,-5.0,-18.0,-11.0,-10.0,-3.0,-3.0,-3.0,1651086893083356.0
0.0,2.0,14.0,4.0,2.0,3.0,0.0,2.0,1651086893083356.0
-1.0,7.0,1.0,-2.0,-9.0,-4.0,-1.0,-2.0,1651086893092259.0
-2.0,-5.0,-6.0,-2.0,-12.0,-6.0,0.0,-1.0,1651086893092259.0
-1.0,-10.0,15.0,13.0,23.0,8.0,3.0,-1.0,1651086893107343.0
-2.0,15.0,-16.0,-17.0,-12.0,-2.0,-2.0,1.0,1651086893107343.0
2.0,4.0,7.0,10.0,3.0,2.0,0.0,0.0,1651086893109224.0
0.0,2.0,-4.0,8.0,6.0,0.0,0.0,0.0,1651086893109224.0
0.0,-1.0,-6.0,-7.0,-15.0,-7.0,-3.0,-3.0,1651086893121371.0
1.0,-5.0,9.0,3.0,2.0,0.0,1.0,2.0,1651086893121371.0
-1.0,-13.0,-5.0,-2.0,3.0,2.0,-1.0,0.0,1651086893130221.0
0.0,6.0,-3.0,0.0,-1.0,1.0,2.0,1.0,1651086893130221.0
-4.0,-7.0,-9.0,-2.0,0.0,-2.0,-1.0,-1.0,1651086893145243.0
2.0,-2.0,12.0,8.0,6.0,1.0,0.0,2.0,1651086893145243.0
-1.0,4.0,4.0,-2.0,-13.0,-7.0,-3.0,0.0,1651086893146204.0
1.0,-14.0,-2.0,3.0,5.0,1.0,0.0,-1.0,1651086893146204.0
-1.0,38.0,8.0,-6.0,-4.0,-1.0,-3.0,-2.0,1651086893167810.0
-2.0,-4.0,-2.0,1.0,0.0,-2.0,-2.0,3.0,1651086893167810.0
2.0,1.0,0.0,2.0,7.0,3.0,2.0,2.0,1651086893168811.0
-3.0,-25.0,-10.0,-10.0,-16.0,-8.0,-4.0,-3.0,1651086893168811.0
2.0,8.0,7.0,13.0,21.0,6.0,2.0,-1.0,1651086893181019.0
-3.0,-9.0,-3.0,-4.0,0.0,0.0,-1.0,-1.0,1651086893181019.0
-2.0,3.0,4.0,7.0,3.0,1.0,0.0,0.0,1651086893196383.0
0.0,10.0,5.0,-7.0,-5.0,-2.0,0.0,0.0,1651086893196383.0
0.0,-5.0,-16.0,-7.0,-11.0,-7.0,-3.0,-1.0,1651086893204395.0
-2.0,-9.0,13.0,3.0,2.0,0.0,-1.0,-1.0,1651086893204395.0
-2.0,-3.0,-11.0,-2.0,2.0,0.0,1.0,0.0,1651086893211374.0
0.0,14.0,5.0,-3.0,0.0,2.0,-1.0,3.0,1651086893211374.0
-1.0,-14.0,-5.0,-11.0,-17.0,-5.0,-3.0,-2.0,1651086893227394.0
1.0,-2.0,6.0,17.0,15.0,2.0,3.0,0.0,1651086893227394.0
-1.0,-20.0,1.0,1.0,-5.0,0.0,-2.0,-1.0,1651086893229259.0
-1.0,30.0,-4.0,5.0,6.0,2.0,2.0,-1.0,1651086893229259.0
-2.0,-15.0,-10.0,-11.0,-9.0,-3.0,-1.0,-1.0,1651086893241246.0
-1.0,8.0,3.0,2.0,-3.0,-2.0,-2.0,-1.0,1651086893241246.0
0.0,3.0,5.0,-5.0,-6.0,-2.0,0.0,-1.0,1651086893250647.0
0.0,-6.0,-8.0,-2.0,4.0,-1.0,-4.0,-2.0,1651086893250647.0
0.0,-9.0,2.0,3.0,1.0,1.0,-1.0,-2.0,1651086893263957.0
0.0,-1.0,-3.0,-8.0,-4.0,-1.0,-1.0,0.0,1651086893263957.0
0.0,-1.0,0.0,1.0,0.0,1.0,1.0,0.0,1651086893271276.0
0.0,0.0,4.0,-1.0,-2.0,-3.0,-3.0,-2.0,1651086893271276.0
-2.0,0.0,-5.0,-2.0,-3.0,-1.0,-1.0,-3.0,1651086893287543.0
0.0,3.0,7.0,-2.0,0.0,1.0,0.0,0.0,1651086893287543.0
0.0,2.0,-3.0,0.0,2.0,1.0,-2.0,0.0,1651086893288543.0
0.0,5.0,1.0,0.0,1.0,0.0,0.0,-1.0,1651086893288543.0
-2.0,-12.0,5.0,6.0,5.0,3.0,-1.0,0.0,1651086893301351.0
-1.0,-3.0,-9.0,-3.0,0.0,0.0,1.0,0.0,1651086893301351.0
-1.0,7.0,1.0,0.0,2.0,0.0,2.0,0.0,1651086893317517.0
-1.0,-6.0,-3.0,-4.0,-4.0,-3.0,-2.0,-1.0,1651086893317517.0
2.0,8.0,6.0,3.0,-2.0,-2.0,-1.0,-1.0,1651086893324219.0
-1.0,-1.0,-3.0,-1.0,0.0,1.0,1.0,-2.0,1651086893324219.0
-1.0,-3.0,-9.0,-1.0,2.0,3.0,-1.0,-1.0,1651086893326212.0
0.0,-15.0,1.0,2.0,1.0,0.0,1.0,-1.0,1651086893326212.0
2.0,15.0,-2.0,0.0,0.0,-2.0,1.0,1.0,1651086893349221.0
-1.0,1.0,2.0,-4.0,-5.0,-3.0,0.0,0.0,1651086893349221.0
0.0,1.0,2.0,0.0,-2.0,-1.0,0.0,0.0,1651086893350221.0
-1.0,-2.0,3.0,0.0,4.0,3.0,1.0,1.0,1651086893350221.0
-1.0,1.0,-2.0,0.0,-1.0,0.0,-1.0,-1.0,1651086893370382.0
-1.0,-3.0,-1.0,-3.0,-3.0,-3.0,-3.0,-1.0,1651086893370382.0
-1.0,10.0,2.0,1.0,2.0,0.0,1.0,0.0,1651086893376493.0
-1.0,-11.0,1.0,2.0,1.0,1.0,0.0,-2.0,1651086893376493.0
0.0,2.0,3.0,2.0,-1.0,2.0,2.0,-1.0,1651086893384481.0
0.0,-3.0,-6.0,-5.0,-2.0,-1.0,-1.0,-1.0,1651086893384481.0
1.0,-9.0,-4.0,-1.0,-3.0,-3.0,-2.0,0.0,1651086893386366.0
1.0,12.0,9.0,-6.0,-7.0,-2.0,1.0,-1.0,1651086893386366.0
0.0,-5.0,-3.0,2.0,3.0,0.0,0.0,2.0,1651086893407988.0
0.0,4.0,-2.0,-4.0,1.0,3.0,2.0,-1.0,1651086893407988.0
-4.0,-4.0,2.0,2.0,0.0,-2.0,0.0,-2.0,1651086893413122.0
1.0,3.0,-3.0,-3.0,-7.0,-2.0,-3.0,-1.0,1651086893413122.0
-2.0,0.0,0.0,-3.0,-4.0,-2.0,-4.0,0.0,1651086893430468.0
0.0,-2.0,-1.0,-6.0,-3.0,-1.0,-1.0,1.0,1651086893430468.0
1.0,2.0,1.0,1.0,6.0,1.0,0.0,1.0,1651086893431255.0
-1.0,-1.0,-4.0,-1.0,-1.0,-1.0,0.0,1.0,1651086893431255.0
-3.0,-17.0,-14.0,2.0,0.0,-1.0,0.0,-3.0,1651086893445348.0
-3.0,14.0,4.0,2.0,-4.0,-1.0,-2.0,-1.0,1651086893445348.0
-1.0,-1.0,0.0,-5.0,-3.0,-1.0,0.0,0.0,1651086893446210.0
0.0,-1.0,1.0,-3.0,4.0,2.0,-1.0,1.0,1651086893446210.0
0.0,-13.0,-1.0,-12.0,-9.0,-2.0,-1.0,0.0,1651086893467665.0
0.0,13.0,0.0,9.0,5.0,2.0,2.0,2.0,1651086893467665.0
-2.0,-4.0,-6.0,-1.0,-2.0,-4.0,-1.0,-2.0,1651086893468666.0
-1.0,4.0,8.0,1.0,1.0,2.0,-1.0,-1.0,1651086893468666.0
1.0,3.0,0.0,-2.0,-2.0,-2.0,0.0,0.0,1651086893490073.0
-2.0,-12.0,-4.0,-6.0,-8.0,-3.0,-2.0,-1.0,1651086893490073.0
2.0,4.0,0.0,2.0,1.0,2.0,-1.0,0.0,1651086893490928.0
-1.0,-4.0,-5.0,1.0,1.0,0.0,0.0,0.0,1651086893490928.0
1.0,0.0,1.0,-3.0,1.0,3.0,1.0,1.0,1651086893505339.0
-1.0,0.0,3.0,0.0,-5.0,-1.0,0.0,0.0,1651086893505339.0
1.0,-1.0,-2.0,4.0,8.0,3.0,2.0,0.0,1651086893506201.0
-3.0,-6.0,-5.0,-5.0,-4.0,-4.0,-1.0,-2.0,1651086893506201.0
-2.0,7.0,5.0,4.0,-2.0,-2.0,-1.0,0.0,1651086893528378.0
0.0,-11.0,-9.0,-2.0,0.0,0.0,0.0,-2.0,1651086893528378.0
-2.0,1.0,-4.0,-14.0,-11.0,-3.0,-1.0,-1.0,1651086893529104.0
-1.0,-9.0,-6.0,18.0,7.0,0.0,-2.0,-1.0,1651086893529104.0
0.0,18.0,4.0,-3.0,4.0,3.0,1.0,-1.0,1651086893550514.0
1.0,-5.0,2.0,2.0,5.0,1.0,1.0,1.0,1651086893550514.0
-1.0,-6.0,-2.0,-9.0,-12.0,-4.0,0.0,-1.0,1651086893551142.0
1.0,9.0,1.0,0.0,2.0,-1.0,1.0,-1.0,1651086893551142.0
-2.0,-28.0,-1.0,2.0,-2.0,-3.0,-2.0,0.0,1651086893564316.0
-2.0,17.0,4.0,-5.0,-2.0,1.0,0.0,-1.0,1651086893564316.0
-2.0,4.0,0.0,9.0,6.0,1.0,-1.0,0.0,1651086893571317.0
0.0,-5.0,-4.0,-8.0,-8.0,-3.0,-1.0,-1.0,1651086893571317.0
1.0,3.0,4.0,4.0,2.0,0.0,0.0,0.0,1651086893587729.0
-1.0,-6.0,-7.0,-3.0,0.0,3.0,-3.0,-2.0,1651086893587729.0
1.0,-2.0,1.0,-1.0,1.0,1.0,0.0,-1.0,1651086893588731.0
0.0,3.0,3.0,1.0,0.0,1.0,0.0,1.0,1651086893588731.0
-1.0,3.0,-3.0,-3.0,-5.0,-3.0,-2.0,0.0,1651086893610512.0
-1.0,-9.0,-2.0,-4.0,-4.0,-2.0,-1.0,0.0,1651086893610512.0
-1.0,3.0,0.0,0.0,-1.0,-1.0,2.0,1.0,1651086893611019.0
-1.0,-3.0,4.0,4.0,2.0,0.0,0.0,-2.0,1651086893611019.0
0.0,-4.0,-9.0,1.0,13.0,3.0,1.0,-2.0,1651086893624207.0
-1.0,1.0,9.0,6.0,-3.0,-1.0,-1.0,1.0,1651086893624207.0
1.0,-3.0,0.0,1.0,-4.0,-2.0,-3.0,-1.0,1651086893631364.0
0.0,-2.0,-4.0,-11.0,-11.0,-6.0,-2.0,-1.0,1651086893631364.0
-3.0,2.0,0.0,-2.0,-4.0,-3.0,-1.0,0.0,1651086893647340.0
0.0,-4.0,-2.0,1.0,6.0,1.0,-1.0,0.0,1651086893647340.0
-2.0,0.0,-1.0,-3.0,1.0,1.0,0.0,1.0,1651086893649190.0
0.0,1.0,1.0,0.0,-2.0,1.0,2.0,1.0,1651086893649190.0
0.0,4.0,1.0,2.0,-1.0,-2.0,-1.0,0.0,1651086893670289.0
-1.0,-3.0,-1.0,4.0,5.0,0.0,2.0,0.0,1651086893670289.0
-1.0,1.0,7.0,-4.0,-8.0,-1.0,0.0,-1.0,1651086893671242.0
0.0,-7.0,-16.0,1.0,2.0,-1.0,-2.0,1.0,1651086893671242.0
-1.0,6.0,3.0,-5.0,-3.0,4.0,0.0,-1.0,1651086893684530.0
2.0,-3.0,-2.0,-3.0,-4.0,-4.0,0.0,-1.0,1651086893684530.0
-2.0,-3.0,2.0,1.0,-1.0,-4.0,-2.0,-1.0,1651086893691242.0
0.0,2.0,0.0,-1.0,2.0,3.0,2.0,0.0,1651086893691242.0
-1.0,-2.0,-2.0,1.0,-2.0,0.0,2.0,-1.0,1651086893707361.0
1.0,0.0,5.0,0.0,0.0,1.0,1.0,1.0,1651086893707361.0
1.0,-13.0,-3.0,-3.0,-4.0,-1.0,-1.0,0.0,1651086893709230.0
-3.0,21.0,-1.0,-5.0,-5.0,-3.0,-2.0,-3.0,1651086893709230.0
-1.0,1.0,6.0,4.0,11.0,6.0,3.0,2.0,1651086893730338.0
1.0,0.0,-1.0,2.0,-1.0,-1.0,0.0,-1.0,1651086893730338.0
-1.0,-17.0,-6.0,3.0,3.0,1.0,0.0,-1.0,1651086893731210.0
0.0,10.0,8.0,2.0,4.0,0.0,-1.0,0.0,1651086893731210.0
0.0,-4.0,-3.0,-12.0,-8.0,-3.0,-3.0,0.0,1651086893744337.0
-1.0,0.0,-4.0,7.0,-1.0,0.0,-1.0,-1.0,1651086893744337.0
0.0,3.0,0.0,2.0,3.0,2.0,0.0,-1.0,1651086893751318.0
0.0,-7.0,-3.0,-4.0,-4.0,-1.0,-1.0,0.0,1651086893751318.0
-2.0,0.0,-3.0,-9.0,-11.0,-4.0,-1.0,-1.0,1651086893768261.0
1.0,-6.0,3.0,5.0,9.0,2.0,0.0,-1.0,1651086893768261.0
0.0,11.0,1.0,2.0,1.0,-1.0,-1.0,-2.0,1651086893769296.0
-2.0,-7.0,1.0,5.0,3.0,2.0,-1.0,-1.0,1651086893769296.0
2.0,6.0,4.0,3.0,-3.0,-5.0,-3.0,-2.0,1651086893790321.0
-3.0,-7.0,-13.0,-12.0,-9.0,-3.0,-1.0,0.0,1651086893790321.0
1.0,6.0,2.0,1.0,0.0,1.0,0.0,0.0,1651086893791189.0
0.0,-4.0,-11.0,-3.0,5.0,0.0,0.0,0.0,1651086893791189.0
-2.0,-1.0,0.0,1.0,-3.0,-4.0,-2.0,-1.0,1651086893804346.0
-1.0,-1.0,-1.0,-5.0,0.0,-1.0,-2.0,-2.0,1651086893804346.0
-4.0,-2.0,6.0,6.0,3.0,-1.0,-1.0,0.0,1651086893811323.0
-1.0,1.0,-4.0,-12.0,-7.0,-2.0,-3.0,1.0,1651086893811323.0
-4.0,-11.0,-3.0,10.0,7.0,0.0,0.0,-2.0,1651086893827648.0
0.0,1.0,2.0,2.0,-5.0,-4.0,-2.0,0.0,1651086893827648.0
0.0,4.0,-1.0,-1.0,3.0,0.0,2.0,1.0,1651086893828647.0
-1.0,-2.0,2.0,-8.0,-1.0,1.0,1.0,0.0,1651086893828647.0
0.0,0.0,-5.0,6.0,0.0,2.0,-1.0,-1.0,1651086893849434.0
-1.0,-7.0,2.0,-7.0,-5.0,-3.0,0.0,0.0,1651086893849434.0
0.0,10.0,-3.0,-4.0,-4.0,-3.0,-2.0,0.0,1651086893851316.0
0.0,-7.0,-1.0,1.0,-1.0,-3.0,-2.0,-1.0,1651086893851316.0
-1.0,0.0,-1.0,-4.0,-2.0,-1.0,-2.0,0.0,1651086893864324.0
-1.0,0.0,1.0,3.0,7.0,1.0,0.0,0.0,1651086893864324.0
-1.0,-5.0,-7.0,-10.0,-19.0,-5.0,-2.0,-2.0,1651086893872420.0
1.0,0.0,3.0,13.0,18.0,3.0,-1.0,0.0,1651086893872420.0
-2.0,1.0,1.0,-1.0,0.0,0.0,-2.0,-1.0,1651086893888110.0
0.0,-19.0,-7.0,-1.0,4.0,2.0,0.0,0.0,1651086893888110.0
-1.0,22.0,0.0,-1.0,0.0,0.0,1.0,-1.0,1651086893889074.0
-1.0,-1.0,-5.0,-6.0,-14.0,-5.0,-1.0,1.0,1651086893889074.0
1.0,-5.0,6.0,5.0,13.0,3.0,2.0,0.0,1651086893909224.0
-2.0,-1.0,1.0,13.0,7.0,3.0,-1.0,0.0,1651086893909224.0
-2.0,-14.0,-2.0,-4.0,-2.0,-2.0,-3.0,-1.0,1651086893911176.0
0.0,4.0,0.0,-4.0,-7.0,-1.0,0.0,0.0,1651086893911176.0
1.0,6.0,8.0,4.0,1.0,-2.0,0.0,0.0,1651086893933068.0
-1.0,1.0,-4.0,-7.0,-6.0,-2.0,-2.0,-1.0,1651086893933068.0
-2.0,-13.0,2.0,7.0,8.0,5.0,1.0,0.0,1651086893934099.0
-1.0,9.0,5.0,2.0,0.0,0.0,2.0,-1.0,1651086893934099.0
1.0,-6.0,-6.0,-2.0,-2.0,3.0,1.0,1.0,1651086893947033.0
0.0,13.0,7.0,-3.0,-7.0,-5.0,-1.0,0.0,1651086893947033.0
0.0,1.0,3.0,7.0,0.0,-2.0,0.0,-1.0,1651086893949051.0
-1.0,-8.0,2.0,6.0,6.0,5.0,1.0,0.0,1651086893949051.0
-1.0,3.0,-2.0,-2.0,-5.0,-2.0,-1.0,-1.0,1651086893969972.0
-2.0,4.0,-1.0,-6.0,-5.0,-1.0,0.0,-1.0,1651086893969972.0
-1.0,-2.0,-3.0,-2.0,-3.0,-2.0,0.0,0.0,1651086893970976.0
0.0,-6.0,-1.0,-2.0,-1.0,-2.0,-2.0,-2.0,1651086893970976.0
0.0,8.0,2.0,-4.0,-4.0,-1.0,-1.0,0.0,1651086893984332.0
-1.0,-7.0,-5.0,-15.0,-14.0,-3.0,-2.0,-2.0,1651086893984332.0
1.0,2.0,1.0,8.0,8.0,2.0,1.0,0.0,1651086893992103.0
0.0,8.0,6.0,10.0,8.0,1.0,1.0,-2.0,1651086893992103.0
-1.0,2.0,-11.0,-6.0,-5.0,-1.0,0.0,-1.0,1651086894007266.0
1.0,-3.0,-1.0,-1.0,0.0,1.0,0.0,1.0,1651086894007266.0
1.0,-3.0,-3.0,-11.0,-9.0,-3.0,-1.0,-1.0,1651086894009251.0
0.0,-6.0,-1.0,-3.0,-5.0,-2.0,-3.0,-1.0,1651086894009251.0
1.0,0.0,-4.0,3.0,4.0,-1.0,0.0,1.0,1651086894030228.0
-1.0,8.0,4.0,-1.0,-2.0,-2.0,-3.0,-1.0,1651086894030228.0
-1.0,-14.0,0.0,-2.0,0.0,0.0,1.0,-1.0,1651086894031189.0
-2.0,10.0,-2.0,10.0,15.0,9.0,2.0,1.0,1651086894031189.0
0.0,1.0,4.0,-4.0,-4.0,-3.0,0.0,-1.0,1651086894044325.0
2.0,0.0,-1.0,-2.0,0.0,-2.0,-2.0,-1.0,1651086894044325.0
-2.0,-1.0,-1.0,-2.0,-4.0,-3.0,0.0,1.0,1651086894052565.0
0.0,-10.0,2.0,-1.0,1.0,-2.0,-2.0,-1.0,1651086894052565.0
-2.0,-4.0,-2.0,-2.0,-2.0,0.0,0.0,-1.0,1651086894067772.0
-2.0,4.0,-2.0,5.0,5.0,1.0,-1.0,-1.0,1651086894067772.0
2.0,3.0,-1.0,-10.0,-6.0,-1.0,-2.0,-1.0,1651086894068773.0
0.0,-9.0,-2.0,4.0,2.0,-1.0,-1.0,-2.0,1651086894068773.0
0.0,4.0,8.0,7.0,4.0,4.0,1.0,-1.0,1651086894090318.0
-1.0,-8.0,-2.0,1.0,-4.0,-3.0,-1.0,0.0,1651086894090318.0
0.0,12.0,2.0,2.0,9.0,4.0,0.0,0.0,1651086894090793.0
0.0,-3.0,-4.0,-11.0,-16.0,-6.0,-1.0,0.0,1651086894090793.0
-1.0,-4.0,0.0,9.0,3.0,-2.0,-1.0,0.0,1651086894104322.0
-2.0,-6.0,-5.0,-2.0,-4.0,1.0,0.0,-3.0,1651086894104322.0
-1.0,3.0,7.0,4.0,6.0,2.0,1.0,-1.0,1651086894119009.0
-1.0,-8.0,-3.0,-5.0,-4.0,-1.0,-3.0,-3.0,1651086894119009.0
1.0,10.0,-1.0,-9.0,-7.0,0.0,0.0,-1.0,1651086894128355.0
-1.0,3.0,5.0,10.0,10.0,2.0,0.0,1.0,1651086894128355.0
-3.0,-5.0,-8.0,-4.0,-7.0,-3.0,-2.0,1.0,1651086894129070.0
1.0,-1.0,9.0,6.0,7.0,2.0,-1.0,-1.0,1651086894129070.0
-1.0,-9.0,-1.0,-3.0,1.0,-3.0,-1.0,-2.0,1651086894150348.0
-2.0,8.0,-7.0,-2.0,0.0,-1.0,0.0,0.0,1651086894150348.0
-2.0,1.0,0.0,2.0,-2.0,-3.0,-1.0,-2.0,1651086894151243.0
-1.0,-1.0,-1.0,-2.0,-6.0,-1.0,0.0,0.0,1651086894151243.0
-1.0,-2.0,-8.0,-9.0,-10.0,-4.0,-1.0,-2.0,1651086894163211.0
1.0,-4.0,1.0,7.0,9.0,2.0,0.0,0.0,1651086894163211.0
0.0,-3.0,0.0,1.0,-2.0,-3.0,-2.0,-1.0,1651086894179201.0
-1.0,-6.0,-2.0,-1.0,-1.0,-1.0,-1.0,-1.0,1651086894179201.0
-1.0,12.0,5.0,6.0,7.0,2.0,0.0,0.0,1651086894187782.0
0.0,-4.0,3.0,-11.0,-8.0,0.0,0.0,-1.0,1651086894187782.0
-2.0,-3.0,0.0,4.0,3.0,0.0,-2.0,-1.0,1651086894188784.0
-1.0,-3.0,-17.0,-5.0,-5.0,-3.0,0.0,-1.0,1651086894188784.0
-1.0,-5.0,0.0,-7.0,-12.0,-3.0,-1.0,0.0,1651086894210540.0
0.0,1.0,3.0,7.0,7.0,-1.0,0.0,0.0,1651086894210540.0
1.0,-13.0,-8.0,0.0,1.0,3.0,1.0,2.0,1651086894211122.0
-2.0,16.0,7.0,2.0,-2.0,-1.0,-2.0,0.0,1651086894211122.0
-1.0,-3.0,-3.0,-1.0,-1.0,2.0,-1.0,0.0,1651086894223632.0
0.0,5.0,-1.0,3.0,4.0,2.0,0.0,0.0,1651086894223632.0
0.0,-4.0,-7.0,-4.0,-5.0,-3.0,-2.0,-2.0,1651086894232508.0
1.0,6.0,1.0,-2.0,6.0,0.0,1.0,1.0,1651086894232508.0
-1.0,1.0,1.0,-2.0,-2.0,-1.0,-1.0,-2.0,1651086894247352.0
-2.0,-4.0,-1.0,-3.0,-2.0,0.0,0.0,0.0,1651086894247352.0
1.0,6.0,5.0,5.0,5.0,0.0,1.0,0.0,1651086894249197.0
-1.0,-7.0,-7.0,-10.0,-11.0,-4.0,-2.0,0.0,1651086894249197.0
0.0,4.0,1.0,2.0,-5.0,-1.0,-1.0,0.0,1651086894270771.0
1.0,0.0,-1.0,1.0,3.0,1.0,2.0,-1.0,1651086894270771.0
-1.0,4.0,4.0,2.0,3.0,2.0,0.0,1.0,1651086894271500.0
0.0,3.0,-2.0,-3.0,-3.0,-1.0,0.0,-2.0,1651086894271500.0
-1.0,-8.0,-9.0,-7.0,-6.0,-5.0,-1.0,-1.0,1651086894293205.0
-1.0,-2.0,-2.0,-1.0,-3.0,-2.0,-1.0,2.0,1651086894293205.0
0.0,-11.0,0.0,-3.0,-1.0,-2.0,0.0,0.0,1651086894294237.0
-4.0,14.0,2.0,-4.0,-3.0,0.0,-2.0,-2.0,1651086894294237.0
1.0,-1.0,6.0,18.0,19.0,3.0,0.0,-1.0,1651086894307358.0
-1.0,-10.0,-3.0,7.0,11.0,5.0,1.0,0.0,1651086894307358.0
1.0,18.0,4.0,-12.0,-8.0,-2.0,-1.0,0.0,1651086894309232.0
-4.0,-18.0,-5.0,5.0,-4.0,-5.0,-1.0,-2.0,1651086894309232.0
1.0,-7.0,-4.0,0.0,11.0,7.0,2.0,0.0,1651086894329199.0
0.0,15.0,5.0,-4.0,-3.0,-3.0,-2.0,-1.0,1651086894329199.0
-1.0,-1.0,3.0,2.0,0.0,3.0,-2.0,-2.0,1651086894337866.0
2.0,-3.0,-8.0,-4.0,-2.0,-2.0,0.0,0.0,1651086894337866.0
-1.0,2.0,-1.0,0.0,2.0,-2.0,-1.0,0.0,1651086894352691.0
0.0,-5.0,-1.0,-3.0,-4.0,0.0,2.0,-1.0,1651086894352691.0
0.0,-1.0,-9.0,-7.0,-7.0,-3.0,0.0,0.0,1651086894354135.0
0.0,0.0,7.0,5.0,-1.0,0.0,-1.0,0.0,1651086894354135.0
-2.0,-4.0,-2.0,-2.0,-7.0,-4.0,-1.0,-3.0,1651086894365579.0
-1.0,-4.0,-8.0,-12.0,-12.0,-4.0,-2.0,0.0,1651086894365579.0
0.0,5.0,6.0,7.0,8.0,-2.0,-1.0,-1.0,1651086894375187.0
1.0,0.0,6.0,15.0,21.0,11.0,3.0,0.0,1651086894375187.0
-1.0,-7.0,0.0,-10.0,-11.0,-5.0,-3.0,0.0,1651086894390331.0
1.0,14.0,-7.0,2.0,-6.0,-2.0,-2.0,-1.0,1651086894390331.0
-4.0,-6.0,-3.0,-11.0,-12.0,-4.0,-2.0,-4.0,1651086894396317.0
2.0,-2.0,1.0,0.0,8.0,2.0,2.0,0.0,1651086894396317.0
0.0,-3.0,-2.0,-11.0,-11.0,-5.0,-1.0,-2.0,1651086894412740.0
-2.0,3.0,17.0,9.0,8.0,0.0,-1.0,0.0,1651086894412740.0
-1.0,1.0,-11.0,4.0,12.0,2.0,0.0,1.0,1651086894413973.0
0.0,9.0,0.0,-6.0,-8.0,-2.0,0.0,1.0,1651086894413973.0
0.0,-3.0,2.0,3.0,8.0,5.0,0.0,2.0,1651086894427717.0
2.0,1.0,-2.0,2.0,9.0,7.0,1.0,1.0,1651086894427717.0
0.0,-8.0,1.0,0.0,-1.0,-3.0,-1.0,0.0,1651086894428717.0
-1.0,-8.0,0.0,-2.0,-10.0,-6.0,-2.0,-2.0,1651086894428717.0
0.0,6.0,-8.0,2.0,3.0,-1.0,0.0,0.0,1651086894450227.0
-1.0,-3.0,0.0,1.0,15.0,3.0,2.0,0.0,1651086894450227.0
-2.0,2.0,-1.0,-7.0,-3.0,1.0,1.0,-1.0,1651086894451192.0
0.0,0.0,-1.0,-7.0,-16.0,-4.0,-4.0,-2.0,1651086894451192.0
0.0,0.0,-4.0,-2.0,-1.0,-3.0,-2.0,-1.0,1651086894472717.0
-3.0,-2.0,7.0,8.0,-3.0,-1.0,-2.0,-2.0,1651086894472717.0
0.0,0.0,-5.0,-17.0,-5.0,-2.0,-2.0,0.0,1651086894474093.0
0.0,1.0,3.0,18.0,12.0,2.0,2.0,1.0,1651086894474093.0
0.0,4.0,-2.0,-3.0,-10.0,-3.0,-2.0,0.0,1651086894486325.0
-1.0,-13.0,-2.0,-3.0,3.0,3.0,0.0,1.0,1651086894486325.0
-1.0,4.0,3.0,6.0,-4.0,-1.0,-2.0,-1.0,1651086894493100.0
1.0,-6.0,4.0,-13.0,-8.0,-3.0,-2.0,0.0,1651086894493100.0
-2.0,0.0,-15.0,5.0,5.0,1.0,0.0,0.0,1651086894510127.0
1.0,8.0,6.0,-7.0,-6.0,-1.0,0.0,-1.0,1651086894510127.0
-1.0,-4.0,0.0,3.0,-4.0,-2.0,1.0,-1.0,1651086894511128.0
-1.0,-5.0,9.0,-4.0,-4.0,-2.0,-1.0,-1.0,1651086894511128.0
0.0,1.0,-5.0,-12.0,1.0,-1.0,1.0,1.0,1651086894532330.0
-3.0,3.0,3.0,8.0,-10.0,-5.0,-2.0,-2.0,1651086894532330.0
-1.0,-5.0,-7.0,4.0,0.0,1.0,1.0,0.0,1651086894534226.0
0.0,0.0,-1.0,-2.0,1.0,1.0,2.0,0.0,1651086894534226.0
0.0,-1.0,-12.0,-13.0,-4.0,-3.0,-3.0,-2.0,1651086894546342.0
1.0,-2.0,-5.0,1.0,-3.0,1.0,0.0,-1.0,1651086894546342.0
-1.0,-1.0,-9.0,-8.0,1.0,1.0,-2.0,-1.0,1651086894554311.0
-1.0,2.0,11.0,3.0,0.0,-3.0,-2.0,-2.0,1651086894554311.0
-2.0,-4.0,-9.0,-12.0,-10.0,-4.0,-2.0,-3.0,1651086894570289.0
3.0,0.0,-7.0,-5.0,1.0,0.0,0.0,1.0,1651086894570289.0
0.0,4.0,7.0,17.0,8.0,2.0,1.0,0.0,1651086894571223.0
-2.0,2.0,-9.0,3.0,0.0,-1.0,-2.0,-1.0,1651086894571223.0
1.0,4.0,33.0,19.0,9.0,3.0,2.0,2.0,1651086894592265.0
-1.0,-5.0,-54.0,-39.0,-11.0,-6.0,-2.0,1.0,1651086894592265.0
2.0,5.0,26.0,24.0,0.0,1.0,0.0,0.0,1651086894594219.0
-5.0,-9.0,-10.0,-8.0,4.0,2.0,-1.0,-3.0,1651086894594219.0
0.0,2.0,0.0,3.0,0.0,0.0,-1.0,1.0,1651086894607407.0
-2.0,0.0,17.0,2.0,-2.0,-4.0,-2.0,-2.0,1651086894607407.0
1.0,-2.0,-1.0,-5.0,-5.0,-2.0,-1.0,2.0,1651086894621520.0
2.0,1.0,-20.0,-4.0,6.0,1.0,2.0,1.0,1651086894621520.0
-2.0,-5.0,-6.0,13.0,2.0,-1.0,-1.0,-1.0,1651086894630342.0
0.0,-1.0,5.0,-10.0,-8.0,-3.0,2.0,-1.0,1651086894630342.0
-4.0,-5.0,0.0,3.0,4.0,-1.0,-2.0,-4.0,1651086894631219.0
2.0,-2.0,-23.0,-16.0,-4.0,0.0,0.0,9.0,1651086894631219.0
-4.0,6.0,2.0,23.0,8.0,4.0,-1.0,-15.0,1651086894654215.0
-3.0,-7.0,24.0,-18.0,-7.0,-4.0,-2.0,-3.0,1651086894654215.0
2.0,6.0,-14.0,8.0,8.0,1.0,-1.0,0.0,1651086894655179.0
-2.0,-7.0,3.0,-10.0,-16.0,-6.0,-2.0,-1.0,1651086894655179.0
1.0,8.0,12.0,2.0,4.0,0.0,1.0,4.0,1651086894666175.0
-3.0,-2.0,-18.0,25.0,7.0,1.0,0.0,5.0,1651086894666175.0
3.0,0.0,22.0,-14.0,-3.0,1.0,1.0,-6.0,1651086894673164.0
-8.0,-3.0,-12.0,-8.0,3.0,0.0,-3.0,-25.0,1651086894673164.0
-2.0,-6.0,-22.0,8.0,-3.0,-3.0,-1.0,3.0,1651086894690201.0
2.0,8.0,12.0,8.0,5.0,1.0,-1.0,-6.0,1651086894690201.0
-4.0,0.0,19.0,3.0,1.0,1.0,1.0,4.0,1651086894691111.0
7.0,13.0,59.0,30.0,6.0,-2.0,4.0,20.0,1651086894691111.0
5.0,-11.0,-76.0,-27.0,-6.0,0.0,2.0,-9.0,1651086894712729.0
-3.0,-5.0,29.0,20.0,3.0,-1.0,0.0,14.0,1651086894712729.0
11.0,8.0,-20.0,-4.0,-2.0,2.0,1.0,-10.0,1651086894713981.0
-20.0,4.0,13.0,-1.0,-2.0,-1.0,1.0,10.0,1651086894713981.0
-3.0,-3.0,22.0,-3.0,2.0,1.0,-2.0,-1.0,1651086894727082.0
17.0,6.0,-6.0,-40.0,-4.0,0.0,1.0,3.0,1651086894727082.0
-15.0,-9.0,10.0,27.0,0.0,-2.0,-2.0,15.0,1651086894733214.0
11.0,10.0,16.0,17.0,5.0,1.0,1.0,9.0,1651086894733214.0
-8.0,-2.0,9.0,-2.0,0.0,-1.0,-2.0,-25.0,1651086894750247.0
-5.0,-9.0,-40.0,-6.0,-1.0,-1.0,-1.0,-8.0,1651086894750247.0
0.0,-8.0,38.0,6.0,-6.0,0.0,1.0,9.0,1651086894751211.0
-6.0,15.0,-32.0,-19.0,2.0,2.0,3.0,0.0,1651086894751211.0
-5.0,-10.0,-12.0,-4.0,-2.0,-4.0,-4.0,1.0,1651086894772301.0
11.0,6.0,35.0,44.0,3.0,-1.0,-3.0,25.0,1651086894772301.0
-13.0,1.0,-41.0,-39.0,-4.0,0.0,-1.0,-17.0,1651086894774152.0
-6.0,-10.0,-4.0,7.0,7.0,2.0,-2.0,-1.0,1651086894774152.0
1.0,2.0,25.0,-2.0,-3.0,3.0,5.0,8.0,1651086894786267.0
10.0,4.0,18.0,-1.0,-6.0,-1.0,3.0,23.0,1651086894786267.0
-4.0,-7.0,-29.0,0.0,-4.0,-3.0,-6.0,-24.0,1651086894793244.0
1.0,-3.0,-16.0,-18.0,-16.0,-4.0,-1.0,-4.0,1651086894793244.0
-4.0,5.0,33.0,14.0,8.0,3.0,10.0,20.0,1651086894810020.0
13.0,-1.0,10.0,14.0,8.0,1.0,-2.0,-2.0,1651086894810020.0
-30.0,-9.0,-39.0,-35.0,-7.0,-4.0,-7.0,8.0,1651086894810886.0
2.0,4.0,35.0,29.0,10.0,2.0,-4.0,-22.0,1651086894810886.0
29.0,7.0,49.0,16.0,1.0,1.0,6.0,34.0,1651086894832731.0
-19.0,-12.0,-45.0,-24.0,-13.0,-6.0,-7.0,-35.0,1651086894832731.0
9.0,5.0,18.0,20.0,11.0,7.0,1.0,-2.0,1651086894834123.0
0.0,-1.0,4.0,13.0,-1.0,-1.0,-5.0,-10.0,1651086894834123.0
-17.0,-4.0,-25.0,-32.0,-9.0,-2.0,1.0,0.0,1651086894846239.0
-33.0,-15.0,-44.0,-4.0,-7.0,-8.0,-5.0,-30.0,1651086894846239.0
27.0,10.0,36.0,-10.0,0.0,-4.0,5.0,30.0,1651086894861319.0
19.0,1.0,-38.0,-12.0,2.0,2.0,2.0,-4.0,1651086894861319.0
-16.0,-8.0,-9.0,-38.0,-2.0,0.0,-5.0,-9.0,1651086894870307.0
-16.0,4.0,41.0,60.0,5.0,4.0,3.0,10.0,1651086894870307.0
-8.0,-7.0,0.0,7.0,-3.0,-2.0,1.0,-15.0,1651086894871190.0
-4.0,6.0,4.0,-16.0,-3.0,-3.0,2.0,6.0,1651086894871190.0
15.0,-15.0,-18.0,-2.0,-3.0,0.0,4.0,-1.0,1651086894893299.0
12.0,7.0,-6.0,-12.0,3.0,0.0,-1.0,7.0,1651086894893299.0
-3.0,0.0,-11.0,9.0,1.0,-4.0,-5.0,-3.0,1651086894894214.0
10.0,-16.0,10.0,-6.0,3.0,2.0,-1.0,-1.0,1651086894894214.0
-5.0,4.0,18.0,38.0,4.0,3.0,2.0,-20.0,1651086894906296.0
11.0,-9.0,7.0,-21.0,-2.0,0.0,-3.0,5.0,1651086894906296.0
5.0,7.0,-21.0,-3.0,-6.0,-1.0,1.0,-5.0,1651086894915277.0
-1.0,-4.0,-15.0,-27.0,-8.0,-3.0,-5.0,-1.0,1651086894915277.0
1.0,15.0,15.0,44.0,14.0,-2.0,-3.0,11.0,1651086894929204.0
19.0,-1.0,-3.0,-37.0,-13.0,0.0,5.0,-18.0,1651086894929204.0
-26.0,-3.0,20.0,20.0,7.0,-2.0,-5.0,-21.0,1651086894931202.0
4.0,-2.0,-3.0,6.0,-1.0,2.0,3.0,12.0,1651086894931202.0
9.0,3.0,-4.0,-7.0,1.0,-3.0,-9.0,4.0,1651086894953192.0
-6.0,-7.0,1.0,-15.0,-12.0,-5.0,1.0,11.0,1651086894953192.0
5.0,1.0,-20.0,-18.0,4.0,0.0,-5.0,0.0,1651086894954215.0
-13.0,-8.0,24.0,-13.0,-9.0,1.0,5.0,7.0,1651086894954215.0
-19.0,3.0,-18.0,9.0,-4.0,-2.0,-5.0,-5.0,1651086894966731.0
1.0,11.0,-7.0,-3.0,6.0,-1.0,-6.0,5.0,1651086894966731.0
1.0,-1.0,4.0,3.0,-2.0,-2.0,0.0,-4.0,1651086894975206.0
-20.0,-11.0,-63.0,5.0,-2.0,-5.0,-1.0,10.0,1651086894975206.0
30.0,9.0,30.0,-1.0,0.0,1.0,-1.0,-12.0,1651086894990353.0
-3.0,2.0,-16.0,-41.0,-4.0,2.0,2.0,-6.0,1651086894990353.0
16.0,0.0,-12.0,14.0,1.0,1.0,1.0,9.0,1651086894991217.0
14.0,-3.0,19.0,28.0,7.0,0.0,-3.0,4.0,1651086894991217.0
-9.0,11.0,-13.0,-4.0,-1.0,2.0,3.0,19.0,1651086895012404.0
-13.0,-9.0,-6.0,12.0,0.0,-4.0,-3.0,-22.0,1651086895012404.0
2.0,0.0,4.0,-22.0,2.0,3.0,3.0,23.0,1651086895014259.0
-7.0,1.0,33.0,11.0,-2.0,-2.0,-3.0,-10.0,1651086895014259.0
22.0,-7.0,-41.0,6.0,-9.0,-6.0,-6.0,-3.0,1651086895026364.0
-8.0,-4.0,14.0,6.0,7.0,5.0,7.0,15.0,1651086895026364.0
-24.0,-5.0,-10.0,-3.0,7.0,2.0,5.0,3.0,1651086895035202.0
9.0,3.0,17.0,8.0,2.0,2.0,0.0,-7.0,1651086895035202.0
-8.0,-7.0,-3.0,-5.0,-7.0,-1.0,4.0,-10.0,1651086895050210.0
-2.0,11.0,15.0,35.0,8.0,2.0,-3.0,15.0,1651086895050210.0
8.0,6.0,33.0,3.0,-1.0,0.0,2.0,-4.0,1651086895051190.0
-17.0,-6.0,-34.0,-25.0,-1.0,-3.0,-10.0,-8.0,1651086895051190.0
-7.0,-7.0,-10.0,-19.0,0.0,-3.0,-5.0,-11.0,1651086895072358.0
-1.0,-1.0,-11.0,15.0,-4.0,-2.0,2.0,3.0,1651086895072358.0
-1.0,4.0,10.0,-6.0,3.0,1.0,-4.0,-5.0,1651086895074212.0
-15.0,4.0,67.0,55.0,7.0,7.0,5.0,-9.0,1651086895074212.0
12.0,-6.0,-60.0,-15.0,1.0,1.0,8.0,6.0,1651086895086471.0
-10.0,0.0,-7.0,-15.0,-11.0,-6.0,-8.0,-16.0,1651086895086471.0
6.0,-3.0,6.0,-4.0,-10.0,-4.0,3.0,26.0,1651086895095447.0
8.0,7.0,19.0,-3.0,8.0,2.0,0.0,-15.0,1651086895095447.0
-9.0,-10.0,-14.0,3.0,1.0,1.0,-5.0,-19.0,1651086895109999.0
-1.0,0.0,7.0,-19.0,-2.0,1.0,1.0,-6.0,1651086895109999.0
5.0,-13.0,-35.0,-31.0,-10.0,-3.0,2.0,13.0,1651086895110858.0
5.0,3.0,-11.0,-12.0,-6.0,-4.0,-4.0,0.0,1651086895110858.0
-5.0,8.0,51.0,24.0,3.0,1.0,0.0,15.0,1651086895132243.0
3.0,0.0,-47.0,-35.0,6.0,5.0,6.0,8.0,1651086895132243.0
-8.0,-1.0,22.0,34.0,7.0,2.0,-3.0,-7.0,1651086895134147.0
1.0,1.0,-3.0,-1.0,3.0,1.0,0.0,0.0,1651086895134147.0
5.0,-2.0,-15.0,-43.0,-20.0,-4.0,-2.0,-2.0,1651086895146355.0
-11.0,-10.0,21.0,2.0,7.0,4.0,2.0,-11.0,1651086895146355.0
30.0,13.0,-30.0,31.0,6.0,0.0,-2.0,20.0,1651086895155198.0
-26.0,-8.0,-10.0,-10.0,-6.0,-6.0,-9.0,-20.0,1651086895155198.0
-16.0,6.0,19.0,10.0,11.0,7.0,1.0,3.0,1651086895170286.0
16.0,3.0,-4.0,-2.0,-6.0,-1.0,3.0,3.0,1651086895170286.0
-9.0,-6.0,3.0,3.0,-4.0,-2.0,0.0,-12.0,1651086895171217.0
13.0,4.0,-5.0,15.0,3.0,-1.0,0.0,5.0,1651086895171217.0
-14.0,-7.0,3.0,-37.0,-5.0,-5.0,-6.0,-12.0,1651086895193209.0
-5.0,-2.0,44.0,33.0,5.0,1.0,-5.0,-22.0,1651086895193209.0
-4.0,3.0,24.0,-9.0,0.0,0.0,-1.0,-14.0,1651086895194241.0
7.0,-10.0,-84.0,-29.0,-15.0,-5.0,1.0,12.0,1651086895194241.0
0.0,-2.0,19.0,-7.0,-1.0,0.0,0.0,2.0,1651086895206398.0
1.0,-2.0,-25.0,5.0,1.0,-1.0,0.0,1.0,1651086895206398.0
2.0,11.0,26.0,12.0,2.0,-1.0,-1.0,-5.0,1651086895215398.0
1.0,-5.0,-24.0,-14.0,-1.0,2.0,6.0,-4.0,1651086895215398.0
-19.0,-5.0,-6.0,25.0,-3.0,-4.0,-7.0,9.0,1651086895230210.0
2.0,6.0,13.0,-38.0,2.0,-3.0,-5.0,0.0,1651086895230210.0
-3.0,-6.0,26.0,35.0,3.0,-3.0,-3.0,-7.0,1651086895232229.0
-9.0,-11.0,-35.0,-27.0,-6.0,0.0,1.0,13.0,1651086895232229.0
8.0,-1.0,30.0,-8.0,-3.0,-1.0,-1.0,-12.0,1651086895253168.0
-4.0,-4.0,-30.0,10.0,9.0,2.0,0.0,2.0,1651086895253168.0
-15.0,-3.0,-19.0,-28.0,-13.0,-5.0,-5.0,-29.0,1651086895254199.0
6.0,2.0,45.0,17.0,7.0,3.0,13.0,47.0,1651086895254199.0
23.0,3.0,8.0,-8.0,1.0,0.0,4.0,13.0,1651086895274227.0
-11.0,-1.0,-10.0,15.0,-9.0,-6.0,-6.0,27.0,1651086895274227.0
11.0,-9.0,-33.0,-20.0,4.0,3.0,1.0,-1.0,1651086895276220.0
2.0,6.0,17.0,-17.0,-5.0,-1.0,-2.0,-13.0,1651086895276220.0
-13.0,-2.0,33.0,54.0,11.0,7.0,3.0,-1.0,1651086895290629.0
9.0,0.0,-10.0,-4.0,0.0,0.0,4.0,4.0,1651086895290629.0
0.0,7.0,-3.0,-8.0,-1.0,-2.0,-3.0,1.0,1651086895291235.0
-17.0,0.0,-5.0,21.0,-2.0,-3.0,-2.0,-5.0,1651086895291235.0
12.0,0.0,-3.0,4.0,4.0,0.0,0.0,3.0,1651086895313009.0
-3.0,-5.0,-34.0,-5.0,-1.0,0.0,0.0,-11.0,1651086895313009.0
20.0,2.0,21.0,-5.0,-8.0,-2.0,0.0,-10.0,1651086895314010.0
4.0,-7.0,-20.0,-25.0,-4.0,-3.0,-2.0,7.0,1651086895314010.0
-1.0,3.0,-9.0,-7.0,4.0,0.0,0.0,-5.0,1651086895335226.0
3.0,5.0,-15.0,15.0,1.0,0.0,2.0,4.0,1651086895335226.0
-17.0,-7.0,-11.0,-37.0,-9.0,-1.0,3.0,15.0,1651086895336128.0
8.0,4.0,9.0,29.0,2.0,-3.0,-7.0,-23.0,1651086895336128.0
0.0,3.0,-1.0,6.0,-7.0,-3.0,-3.0,-26.0,1651086895350229.0
12.0,7.0,36.0,-2.0,5.0,1.0,1.0,2.0,1651086895350229.0
-9.0,-10.0,-32.0,0.0,4.0,3.0,1.0,6.0,1651086895351091.0
4.0,3.0,3.0,-18.0,-5.0,-2.0,-5.0,-11.0,1651086895351091.0
1.0,4.0,25.0,23.0,4.0,1.0,9.0,16.0,1651086895372893.0
0.0,1.0,5.0,-8.0,-4.0,-3.0,-13.0,12.0,1651086895372893.0
10.0,-8.0,-31.0,-4.0,-2.0,0.0,1.0,-5.0,1651086895374119.0
4.0,9.0,46.0,16.0,6.0,1.0,0.0,4.0,1651086895374119.0
-11.0,-5.0,-31.0,-28.0,-8.0,-4.0,-1.0,4.0,1651086895395395.0
-1.0,9.0,62.0,58.0,8.0,3.0,4.0,-8.0,1651086895395395.0
5.0,-7.0,-45.0,-1.0,4.0,0.0,2.0,8.0,1651086895396237.0
0.0,1.0,-21.0,-29.0,-6.0,-1.0,0.0,16.0,1651086895396237.0
4.0,-1.0,-2.0,-21.0,-9.0,-3.0,-5.0,12.0,1651086895410099.0
-3.0,-6.0,10.0,0.0,2.0,4.0,-1.0,-17.0,1651086895410099.0
-26.0,-5.0,3.0,26.0,-4.0,-1.0,-1.0,3.0,1651086895410932.0
8.0,0.0,20.0,20.0,13.0,5.0,2.0,-3.0,1651086895410932.0
-5.0,1.0,-14.0,8.0,9.0,0.0,-5.0,-34.0,1651086895432649.0
5.0,-2.0,-4.0,-45.0,-16.0,-2.0,1.0,8.0,1651086895432649.0
-6.0,8.0,16.0,-13.0,-3.0,-2.0,-2.0,-3.0,1651086895433662.0
-7.0,-4.0,5.0,-4.0,-6.0,-1.0,1.0,-8.0,1651086895433662.0
-4.0,-4.0,13.0,0.0,1.0,-2.0,-3.0,1.0,1651086895455388.0
-10.0,-3.0,-17.0,-11.0,-4.0,-5.0,1.0,4.0,1651086895455388.0
-7.0,3.0,32.0,11.0,4.0,-1.0,-4.0,-2.0,1651086895456220.0
2.0,3.0,-7.0,-5.0,4.0,3.0,0.0,-4.0,1651086895456220.0
4.0,6.0,10.0,6.0,-2.0,2.0,1.0,-7.0,1651086895469476.0
-28.0,-5.0,-15.0,7.0,-3.0,-1.0,2.0,1.0,1651086895469476.0
18.0,-4.0,-11.0,-15.0,-7.0,-3.0,-2.0,0.0,1651086895476621.0
8.0,5.0,3.0,1.0,1.0,0.0,1.0,-14.0,1651086895476621.0
0.0,-6.0,-16.0,-1.0,-1.0,0.0,-2.0,7.0,1651086895493078.0
7.0,3.0,32.0,26.0,4.0,1.0,2.0,9.0,1651086895493078.0
1.0,2.0,0.0,-11.0,2.0,3.0,4.0,15.0,1651086895494109.0
4.0,2.0,-27.0,-10.0,-4.0,1.0,3.0,20.0,1651086895494109.0
-24.0,3.0,51.0,21.0,5.0,1.0,-4.0,-13.0,1651086895514497.0
12.0,-3.0,-20.0,13.0,0.0,-1.0,-6.0,-7.0,1651086895514497.0
4.0,4.0,-14.0,-1.0,7.0,2.0,3.0,4.0,1651086895516523.0
-1.0,-8.0,9.0,-11.0,-4.0,1.0,0.0,-1.0,1651086895516523.0
0.0,3.0,0.0,2.0,-1.0,-1.0,6.0,36.0,1651086895529488.0
-11.0,-8.0,-3.0,-10.0,-2.0,-3.0,-5.0,-17.0,1651086895529488.0
-1.0,6.0,3.0,-2.0,5.0,1.0,-1.0,-3.0,1651086895535483.0
0.0,-14.0,26.0,41.0,-6.0,-8.0,-6.0,-6.0,1651086895535483.0
6.0,-8.0,-71.0,-29.0,-4.0,-2.0,0.0,1.0,1651086895553224.0
1.0,3.0,5.0,1.0,4.0,4.0,3.0,-9.0,1651086895553224.0
-11.0,0.0,35.0,6.0,1.0,0.0,-4.0,4.0,1651086895554224.0
-5.0,-5.0,-1.0,4.0,7.0,1.0,-3.0,-5.0,1651086895554224.0
2.0,6.0,-3.0,-15.0,-10.0,-4.0,-1.0,1.0,1651086895574311.0
4.0,-6.0,8.0,-1.0,-2.0,-4.0,-1.0,-3.0,1651086895574311.0
10.0,3.0,-2.0,-6.0,3.0,3.0,3.0,1.0,1651086895576283.0
7.0,6.0,-3.0,12.0,4.0,1.0,-1.0,-2.0,1651086895576283.0
5.0,2.0,15.0,-7.0,-5.0,0.0,-1.0,-2.0,1651086895589239.0
4.0,1.0,-18.0,1.0,4.0,2.0,3.0,12.0,1651086895589239.0
1.0,1.0,2.0,8.0,-8.0,-6.0,-6.0,-37.0,1651086895596382.0
0.0,-4.0,-30.0,4.0,2.0,2.0,3.0,10.0,1651086895596382.0
-34.0,-6.0,17.0,23.0,12.0,0.0,-2.0,-7.0,1651086895613207.0
2.0,0.0,-20.0,-54.0,-23.0,-7.0,-3.0,1.0,1651086895613207.0
4.0,0.0,13.0,10.0,7.0,2.0,6.0,24.0,1651086895614255.0
1.0,-6.0,-42.0,-21.0,-2.0,0.0,-1.0,1.0,1651086895614255.0
4.0,3.0,22.0,14.0,-2.0,-1.0,-2.0,-2.0,1651086895635397.0
-1.0,-3.0,-7.0,0.0,5.0,1.0,1.0,-3.0,1651086895635397.0
-5.0,-1.0,2.0,14.0,2.0,4.0,6.0,9.0,1651086895636238.0
1.0,3.0,23.0,-14.0,1.0,-1.0,-3.0,4.0,1651086895636238.0
10.0,-3.0,-18.0,-22.0,-8.0,-1.0,-2.0,-5.0,1651086895649250.0
0.0,-1.0,2.0,12.0,6.0,0.0,-1.0,-1.0,1651086895649250.0
3.0,-3.0,-16.0,-3.0,-9.0,-4.0,-1.0,-1.0,1651086895656289.0
-4.0,9.0,10.0,6.0,1.0,-2.0,-3.0,-10.0,1651086895656289.0
5.0,-9.0,-7.0,10.0,0.0,-3.0,0.0,9.0,1651086895672875.0
-8.0,5.0,-19.0,-14.0,1.0,3.0,0.0,-1.0,1651086895672875.0
18.0,6.0,22.0,11.0,6.0,1.0,0.0,9.0,1651086895674115.0
-20.0,-21.0,9.0,-19.0,-16.0,-9.0,-7.0,-41.0,1651086895674115.0
12.0,-3.0,10.0,-12.0,6.0,1.0,-1.0,4.0,1651086895695267.0
15.0,4.0,-14.0,17.0,-4.0,-3.0,0.0,2.0,1651086895695267.0
4.0,3.0,-7.0,-5.0,2.0,4.0,-1.0,-6.0,1651086895696211.0
-2.0,3.0,7.0,22.0,1.0,1.0,3.0,12.0,1651086895696211.0
2.0,-3.0,-9.0,-24.0,-2.0,0.0,0.0,-3.0,1651086895709380.0
7.0,-7.0,5.0,16.0,4.0,1.0,1.0,14.0,1651086895709380.0
-5.0,3.0,-18.0,-20.0,-7.0,-4.0,-5.0,-32.0,1651086895715511.0
8.0,4.0,-11.0,-6.0,-6.0,-1.0,0.0,10.0,1651086895715511.0
7.0,-2.0,7.0,28.0,-2.0,-2.0,3.0,-9.0,1651086895732544.0
-3.0,1.0,27.0,4.0,1.0,-1.0,-3.0,7.0,1651086895732544.0
-7.0,-9.0,2.0,-20.0,-7.0,-1.0,0.0,8.0,1651086895733401.0
0.0,6.0,11.0,15.0,6.0,3.0,1.0,2.0,1651086895733401.0
-4.0,0.0,-25.0,-22.0,3.0,1.0,0.0,-3.0,1651086895754539.0
-2.0,-7.0,14.0,22.0,-3.0,-1.0,0.0,-6.0,1651086895754539.0
-10.0,-2.0,-13.0,-5.0,-2.0,-2.0,-3.0,-7.0,1651086895756425.0
-1.0,3.0,11.0,-1.0,5.0,1.0,2.0,7.0,1651086895756425.0
10.0,6.0,-6.0,-1.0,-4.0,1.0,0.0,7.0,1651086895768665.0
-1.0,6.0,9.0,0.0,1.0,0.0,-3.0,-9.0,1651086895768665.0
-8.0,-15.0,-25.0,-16.0,-5.0,-5.0,-3.0,-4.0,1651086895785364.0
-5.0,1.0,8.0,14.0,-1.0,-1.0,-2.0,14.0,1651086895785364.0
-16.0,3.0,5.0,-3.0,2.0,1.0,2.0,-2.0,1651086895792020.0
14.0,9.0,-3.0,-10.0,-3.0,0.0,-2.0,-4.0,1651086895792020.0
-1.0,-5.0,-16.0,7.0,2.0,3.0,2.0,6.0,1651086895794049.0
2.0,-14.0,-7.0,-26.0,-9.0,-3.0,0.0,-1.0,1651086895794049.0
-15.0,6.0,37.0,13.0,-4.0,-4.0,-1.0,4.0,1651086895815235.0
-1.0,-3.0,-16.0,16.0,3.0,-2.0,-4.0,-35.0,1651086895815235.0
-4.0,0.0,-12.0,-20.0,-6.0,-5.0,0.0,-3.0,1651086895816201.0
0.0,-1.0,-27.0,-2.0,-1.0,-2.0,-2.0,-4.0,1651086895816201.0
2.0,-3.0,21.0,0.0,3.0,2.0,2.0,-1.0,1651086895828879.0
-1.0,-3.0,-20.0,-30.0,-4.0,0.0,-1.0,-4.0,1651086895828879.0
2.0,6.0,30.0,29.0,4.0,3.0,1.0,-7.0,1651086895837053.0
4.0,1.0,-4.0,-7.0,1.0,0.0,-5.0,-2.0,1651086895837053.0
9.0,7.0,-36.0,6.0,-1.0,-3.0,-2.0,1.0,1651086895852749.0
-7.0,-12.0,19.0,-12.0,-3.0,-1.0,0.0,8.0,1651086895852749.0
0.0,4.0,11.0,10.0,1.0,-1.0,-1.0,-2.0,1651086895854130.0
-4.0,-3.0,5.0,8.0,-4.0,-2.0,1.0,-5.0,1651086895854130.0
7.0,-4.0,-5.0,-5.0,-1.0,0.0,-2.0,-3.0,1651086895875239.0
-2.0,7.0,22.0,28.0,10.0,3.0,4.0,5.0,1651086895875239.0
10.0,10.0,21.0,10.0,1.0,-1.0,-1.0,9.0,1651086895876197.0
-5.0,-6.0,-56.0,-23.0,-1.0,1.0,0.0,-1.0,1651086895876197.0
3.0,-8.0,16.0,3.0,-2.0,-3.0,1.0,18.0,1651086895888906.0
-17.0,0.0,2.0,8.0,-1.0,-2.0,-6.0,-7.0,1651086895888906.0
-5.0,-3.0,-21.0,5.0,0.0,0.0,1.0,12.0,1651086895897209.0
-3.0,-7.0,-11.0,-4.0,0.0,-2.0,-4.0,-5.0,1651086895897209.0
11.0,12.0,1.0,-8.0,-4.0,1.0,-1.0,9.0,1651086895912978.0
0.0,-11.0,-4.0,3.0,-3.0,-2.0,-2.0,-17.0,1651086895912978.0
-9.0,3.0,26.0,6.0,4.0,2.0,2.0,20.0,1651086895913815.0
-7.0,3.0,2.0,-24.0,-6.0,-4.0,-2.0,-2.0,1651086895913815.0
1.0,-4.0,-22.0,8.0,-1.0,-3.0,0.0,-8.0,1651086895935317.0
3.0,5.0,-9.0,-23.0,-5.0,0.0,1.0,-4.0,1651086895935317.0
-3.0,-9.0,23.0,12.0,-2.0,-1.0,-1.0,-6.0,1651086895936167.0
4.0,2.0,-7.0,-3.0,-3.0,-1.0,1.0,-5.0,1651086895936167.0
-15.0,-4.0,11.0,41.0,3.0,-1.0,-5.0,-6.0,1651086895948582.0
3.0,1.0,-15.0,-42.0,-8.0,-1.0,0.0,14.0,1651086895948582.0
-3.0,3.0,7.0,-15.0,-5.0,-3.0,-3.0,-1.0,1651086895957204.0
1.0,0.0,-6.0,0.0,2.0,2.0,2.0,-10.0,1651086895957204.0
0.0,-3.0,5.0,11.0,3.0,-1.0,-1.0,-10.0,1651086895972431.0
-6.0,-3.0,-20.0,-24.0,-7.0,-1.0,0.0,5.0,1651086895972431.0
4.0,-1.0,-8.0,7.0,6.0,1.0,-3.0,-13.0,1651086895974274.0
6.0,7.0,5.0,23.0,6.0,3.0,0.0,17.0,1651086895974274.0
-6.0,-3.0,-20.0,-31.0,-8.0,-3.0,-3.0,-7.0,1651086895995364.0
8.0,2.0,38.0,20.0,4.0,-2.0,1.0,4.0,1651086895995364.0
-7.0,1.0,-12.0,-19.0,-2.0,1.0,-2.0,0.0,1651086895996216.0
5.0,4.0,20.0,9.0,4.0,2.0,2.0,0.0,1651086895996216.0
-4.0,-13.0,-30.0,-18.0,-5.0,-2.0,-2.0,-6.0,1651086896008531.0
-2.0,6.0,27.0,24.0,4.0,3.0,2.0,6.0,1651086896008531.0
3.0,-4.0,-10.0,-10.0,-3.0,-2.0,0.0,-7.0,1651086896017674.0
-1.0,-2.0,-6.0,-12.0,-2.0,3.0,1.0,-2.0,1651086896017674.0
1.0,10.0,16.0,-15.0,-9.0,-3.0,-3.0,2.0,1651086896033110.0
-4.0,-4.0,43.0,36.0,13.0,5.0,1.0,1.0,1651086896033110.0
6.0,-3.0,-40.0,-4.0,-6.0,-3.0,-1.0,1.0,1651086896034142.0
-8.0,0.0,23.0,11.0,-4.0,-4.0,-7.0,-38.0,1651086896034142.0
-4.0,-4.0,-20.0,-22.0,-2.0,1.0,-1.0,1.0,1651086896054329.0
9.0,7.0,-10.0,-3.0,-2.0,-2.0,-1.0,1.0,1651086896054329.0
-2.0,-4.0,9.0,7.0,1.0,-1.0,-2.0,-5.0,1651086896062719.0
0.0,1.0,0.0,-6.0,-2.0,0.0,1.0,12.0,1651086896062719.0
2.0,1.0,-3.0,1.0,-4.0,0.0,-1.0,-2.0,1651086896078414.0
-5.0,-3.0,-12.0,4.0,5.0,0.0,0.0,-3.0,1651086896078414.0
-1.0,-6.0,1.0,3.0,2.0,0.0,0.0,0.0,1651086896079107.0
2.0,2.0,3.0,-4.0,-3.0,0.0,1.0,5.0,1651086896079107.0
-1.0,0.0,0.0,9.0,6.0,-1.0,1.0,-1.0,1651086896093175.0
0.0,1.0,-5.0,1.0,-6.0,-1.0,-1.0,4.0,1651086896093175.0
0.0,-6.0,-7.0,-7.0,-9.0,-5.0,-2.0,-2.0,1651086896094210.0
-4.0,5.0,-3.0,-12.0,-3.0,1.0,1.0,3.0,1651086896094210.0
2.0,-1.0,0.0,17.0,10.0,2.0,1.0,-2.0,1651086896113436.0
-2.0,-2.0,-4.0,9.0,15.0,3.0,0.0,1.0,1651086896113436.0
2.0,1.0,3.0,-4.0,-3.0,0.0,-1.0,-3.0,1651086896122394.0
-3.0,-8.0,4.0,-7.0,-12.0,-9.0,-2.0,-1.0,1651086896122394.0
0.0,-1.0,3.0,4.0,-5.0,2.0,1.0,2.0,1651086896129169.0
-2.0,0.0,-10.0,-4.0,0.0,-2.0,0.0,-2.0,1651086896129169.0
-1.0,-8.0,-1.0,-2.0,-2.0,-2.0,-2.0,-1.0,1651086896137210.0
1.0,0.0,10.0,14.0,4.0,0.0,0.0,3.0,1651086896137210.0
1.0,6.0,-2.0,-7.0,-2.0,-1.0,-2.0,0.0,1651086896153120.0
-3.0,-2.0,-4.0,-4.0,9.0,2.0,1.0,2.0,1651086896153120.0
2.0,-2.0,-3.0,-4.0,-6.0,-2.0,0.0,-1.0,1651086896154157.0
0.0,9.0,3.0,3.0,1.0,-1.0,-1.0,1.0,1651086896154157.0
-2.0,-8.0,2.0,-2.0,0.0,-4.0,-2.0,-4.0,1651086896175219.0
-2.0,1.0,-9.0,-7.0,-13.0,-4.0,-3.0,-2.0,1651086896175219.0
1.0,14.0,7.0,3.0,4.0,1.0,3.0,2.0,1651086896176178.0
-2.0,-11.0,-9.0,-7.0,-11.0,-6.0,-3.0,-1.0,1651086896176178.0
1.0,0.0,3.0,10.0,14.0,3.0,2.0,1.0,1651086896189123.0
-2.0,-3.0,-5.0,-8.0,-9.0,-3.0,-2.0,3.0,1651086896189123.0
-1.0,-4.0,-2.0,2.0,1.0,0.0,-2.0,0.0,1651086896197802.0
0.0,3.0,1.0,-1.0,-10.0,-4.0,-2.0,0.0,1651086896197802.0
-4.0,4.0,0.0,-1.0,3.0,-2.0,0.0,-3.0,1651086896213058.0
-1.0,-8.0,-16.0,-3.0,0.0,3.0,1.0,2.0,1651086896213058.0
-3.0,-4.0,0.0,2.0,-6.0,-2.0,1.0,1.0,1651086896213968.0
-1.0,0.0,-5.0,2.0,13.0,5.0,-3.0,0.0,1651086896213968.0
0.0,8.0,11.0,0.0,-14.0,-6.0,-3.0,-2.0,1651086896234374.0
1.0,0.0,2.0,-7.0,-1.0,1.0,1.0,-1.0,1651086896234374.0
-1.0,5.0,7.0,10.0,13.0,5.0,0.0,-1.0,1651086896236231.0
-1.0,2.0,-3.0,5.0,6.0,-2.0,0.0,2.0,1651086896236231.0
0.0,-12.0,0.0,-9.0,-7.0,1.0,0.0,1.0,1651086896257374.0
-1.0,10.0,2.0,2.0,1.0,-2.0,-2.0,-2.0,1651086896257374.0
1.0,-6.0,-14.0,-11.0,-9.0,1.0,-2.0,-1.0,1651086896258403.0
1.0,5.0,9.0,13.0,4.0,2.0,0.0,0.0,1651086896258403.0
-1.0,-12.0,-8.0,-7.0,4.0,0.0,-1.0,0.0,1651086896272773.0
-1.0,-13.0,-4.0,-1.0,-7.0,-1.0,-1.0,-2.0,1651086896272773.0
-3.0,12.0,5.0,-5.0,-4.0,-3.0,-3.0,-1.0,1651086896274094.0
-1.0,-5.0,-3.0,-2.0,6.0,4.0,0.0,-1.0,1651086896274094.0
0.0,8.0,5.0,4.0,-4.0,-2.0,0.0,0.0,1651086896295387.0
0.0,-1.0,-5.0,0.0,2.0,1.0,0.0,0.0,1651086896295387.0
1.0,-16.0,-2.0,1.0,0.0,-2.0,-2.0,-2.0,1651086896296224.0
2.0,-3.0,-2.0,-1.0,5.0,1.0,1.0,2.0,1651086896296224.0
-2.0,-2.0,-1.0,-5.0,-5.0,0.0,-2.0,1.0,1651086896317766.0
-2.0,21.0,4.0,-3.0,-3.0,-2.0,-1.0,0.0,1651086896317766.0
1.0,6.0,4.0,5.0,-2.0,-2.0,0.0,0.0,1651086896318767.0
1.0,3.0,-1.0,4.0,18.0,5.0,1.0,1.0,1651086896318767.0
0.0,-16.0,-6.0,-5.0,-5.0,-1.0,0.0,-2.0,1651086896332082.0
1.0,2.0,2.0,3.0,-1.0,1.0,1.0,2.0,1651086896332082.0
-1.0,0.0,2.0,0.0,0.0,3.0,-3.0,-2.0,1651086896340103.0
-2.0,-9.0,-1.0,-2.0,-5.0,-3.0,-2.0,0.0,1651086896340103.0
0.0,12.0,-5.0,1.0,4.0,0.0,1.0,0.0,1651086896355350.0
0.0,-9.0,-4.0,-2.0,-3.0,-3.0,-1.0,0.0,1651086896355350.0
-1.0,15.0,7.0,-6.0,-5.0,-5.0,-1.0,-1.0,1651086896356203.0
1.0,-6.0,-1.0,0.0,-3.0,-1.0,1.0,1.0,1651086896356203.0
-1.0,22.0,4.0,0.0,3.0,1.0,0.0,-2.0,1651086896377614.0
-1.0,-5.0,3.0,-4.0,-11.0,-5.0,-2.0,-2.0,1651086896377614.0
-2.0,-8.0,-5.0,5.0,9.0,2.0,0.0,-1.0,1651086896378614.0
0.0,-1.0,0.0,1.0,3.0,-1.0,-1.0,-1.0,1651086896378614.0
-1.0,-3.0,-4.0,-3.0,-1.0,-1.0,-1.0,1.0,1651086896391213.0
-3.0,-3.0,9.0,-1.0,-1.0,-2.0,0.0,-1.0,1651086896391213.0
-2.0,2.0,-8.0,-3.0,-2.0,0.0,0.0,0.0,1651086896398518.0
-4.0,1.0,2.0,-2.0,-6.0,-2.0,-2.0,0.0,1651086896398518.0
-2.0,-8.0,-4.0,-2.0,0.0,0.0,0.0,-1.0,1651086896415575.0
-1.0,1.0,1.0,2.0,3.0,1.0,0.0,-1.0,1651086896415575.0
0.0,-6.0,0.0,3.0,4.0,0.0,0.0,0.0,1651086896416555.0
-1.0,-2.0,-4.0,-2.0,-6.0,-3.0,-1.0,-1.0,1651086896416555.0
1.0,13.0,6.0,0.0,-1.0,-2.0,-3.0,0.0,1651086896438336.0
-1.0,-3.0,-3.0,-3.0,-1.0,-2.0,-2.0,0.0,1651086896438336.0
-2.0,0.0,-1.0,-2.0,-5.0,-2.0,0.0,0.0,1651086896440192.0
-1.0,-8.0,-4.0,-1.0,2.0,2.0,1.0,-2.0,1651086896440192.0
-1.0,-13.0,-2.0,0.0,-1.0,-1.0,2.0,0.0,1651086896452401.0
1.0,2.0,-3.0,-1.0,0.0,0.0,-1.0,0.0,1651086896452401.0
1.0,-12.0,-3.0,-2.0,-3.0,-2.0,0.0,-1.0,1651086896458056.0
0.0,20.0,8.0,-2.0,-3.0,-1.0,-1.0,-1.0,1651086896458056.0
-2.0,-7.0,-4.0,2.0,4.0,3.0,1.0,0.0,1651086896475245.0
-3.0,-7.0,0.0,-6.0,-5.0,-3.0,-1.0,-2.0,1651086896475245.0
-1.0,-4.0,0.0,1.0,-4.0,-2.0,-1.0,-1.0,1651086896476210.0
1.0,0.0,0.0,3.0,5.0,2.0,2.0,1.0,1651086896476210.0
1.0,1.0,0.0,1.0,0.0,0.0,0.0,-1.0,1651086896497640.0
-1.0,-9.0,-6.0,-9.0,-6.0,-2.0,-1.0,0.0,1651086896497640.0
1.0,9.0,2.0,1.0,3.0,2.0,2.0,-1.0,1651086896498640.0
-1.0,-3.0,1.0,-1.0,-7.0,0.0,-1.0,-1.0,1651086896498640.0
-2.0,-6.0,-5.0,6.0,0.0,-1.0,-1.0,0.0,1651086896512219.0
-1.0,2.0,-1.0,-5.0,-2.0,-2.0,-2.0,1.0,1651086896512219.0
-2.0,-3.0,-2.0,-1.0,-1.0,0.0,-2.0,0.0,1651086896518945.0
-1.0,3.0,-1.0,-5.0,-6.0,-2.0,1.0,1.0,1651086896518945.0
2.0,-1.0,-2.0,-8.0,-3.0,0.0,0.0,2.0,1651086896535360.0
-1.0,-1.0,-4.0,6.0,-2.0,-2.0,0.0,-1.0,1651086896535360.0
-1.0,2.0,2.0,-3.0,-1.0,-1.0,0.0,-1.0,1651086896536213.0
-2.0,-6.0,-1.0,1.0,3.0,2.0,-2.0,-1.0,1651086896536213.0
1.0,3.0,1.0,-2.0,-4.0,-1.0,-1.0,0.0,1651086896557234.0
0.0,-3.0,0.0,0.0,0.0,-1.0,-1.0,-1.0,1651086896557234.0
-1.0,-2.0,-2.0,0.0,4.0,-1.0,-1.0,0.0,1651086896559187.0
0.0,2.0,0.0,2.0,-1.0,0.0,0.0,0.0,1651086896559187.0
0.0,-2.0,0.0,-1.0,1.0,0.0,0.0,0.0,1651086896572410.0
1.0,9.0,0.0,6.0,3.0,0.0,-1.0,0.0,1651086896572410.0
0.0,-6.0,-5.0,0.0,-4.0,-4.0,-1.0,-2.0,1651086896579249.0
-1.0,0.0,4.0,-3.0,-2.0,0.0,-1.0,-1.0,1651086896579249.0
1.0,4.0,6.0,5.0,13.0,5.0,1.0,-2.0,1651086896595263.0
0.0,-4.0,-6.0,-10.0,0.0,2.0,0.0,-1.0,1651086896595263.0
1.0,2.0,-1.0,14.0,0.0,-3.0,0.0,-1.0,1651086896596095.0
-1.0,-3.0,-5.0,-6.0,3.0,-3.0,-1.0,-3.0,1651086896596095.0
-1.0,3.0,-3.0,9.0,8.0,1.0,1.0,-1.0,1651086896618208.0
-3.0,-22.0,4.0,4.0,7.0,4.0,1.0,0.0,1651086896618208.0
-1.0,20.0,-1.0,-11.0,-15.0,-5.0,-2.0,-1.0,1651086896618905.0
-2.0,-3.0,0.0,-2.0,-2.0,-1.0,-1.0,-2.0,1651086896618905.0
-2.0,-12.0,-2.0,-2.0,-10.0,-7.0,-4.0,-1.0,1651086896632484.0
1.0,18.0,0.0,0.0,5.0,1.0,0.0,-1.0,1651086896632484.0
1.0,-7.0,5.0,-6.0,4.0,5.0,2.0,1.0,1651086896638276.0
1.0,-3.0,-6.0,5.0,-2.0,-2.0,0.0,0.0,1651086896638276.0
-2.0,1.0,3.0,-4.0,-2.0,1.0,0.0,-2.0,1651086896655381.0
0.0,-3.0,-4.0,1.0,-5.0,-3.0,-1.0,-1.0,1651086896655381.0
0.0,0.0,0.0,-3.0,1.0,0.0,-2.0,-1.0,1651086896656221.0
-1.0,4.0,1.0,-2.0,-3.0,-1.0,-1.0,-2.0,1651086896656221.0
0.0,-9.0,-6.0,-8.0,-7.0,-4.0,-3.0,0.0,1651086896677679.0
-1.0,3.0,-7.0,4.0,2.0,1.0,2.0,0.0,1651086896677679.0
0.0,-4.0,-4.0,-3.0,0.0,2.0,0.0,0.0,1651086896678678.0
-1.0,3.0,4.0,-1.0,-1.0,0.0,-1.0,1.0,1651086896678678.0
-2.0,-7.0,6.0,5.0,5.0,3.0,0.0,0.0,1651086896692025.0
0.0,3.0,2.0,0.0,-2.0,-2.0,-3.0,-2.0,1651086896692025.0
0.0,0.0,-2.0,-2.0,0.0,-3.0,-2.0,0.0,1651086896698348.0
-1.0,-5.0,-2.0,-12.0,-13.0,-7.0,0.0,0.0,1651086896698348.0
0.0,1.0,-9.0,0.0,-8.0,-3.0,0.0,-3.0,1651086896714943.0
0.0,-19.0,0.0,3.0,9.0,2.0,1.0,0.0,1651086896714943.0
-1.0,23.0,8.0,1.0,6.0,1.0,1.0,-1.0,1651086896715966.0
0.0,-2.0,-1.0,-1.0,-3.0,-2.0,-1.0,0.0,1651086896715966.0
-1.0,2.0,-5.0,-14.0,-7.0,-3.0,-1.0,-1.0,1651086896738403.0
-3.0,2.0,4.0,4.0,-3.0,-3.0,-3.0,-1.0,1651086896738403.0
-2.0,-13.0,-6.0,4.0,4.0,1.0,0.0,1.0,1651086896739104.0
-2.0,1.0,-1.0,-2.0,0.0,0.0,1.0,-1.0,1651086896739104.0
0.0,7.0,2.0,-3.0,-7.0,-4.0,-1.0,0.0,1651086896751269.0
0.0,4.0,0.0,-3.0,-7.0,-2.0,0.0,-1.0,1651086896751269.0
-2.0,-13.0,-1.0,-4.0,-2.0,3.0,0.0,1.0,1651086896760268.0
0.0,13.0,2.0,11.0,15.0,4.0,1.0,1.0,1651086896760268.0
-1.0,-6.0,-1.0,3.0,1.0,-1.0,0.0,0.0,1651086896775264.0
0.0,5.0,-2.0,-2.0,2.0,0.0,-2.0,0.0,1651086896775264.0
0.0,-3.0,4.0,0.0,-2.0,-4.0,-3.0,0.0,1651086896776219.0
-1.0,-4.0,-3.0,-5.0,-10.0,-4.0,-2.0,0.0,1651086896776219.0
0.0,1.0,-1.0,6.0,9.0,5.0,1.0,0.0,1651086896797675.0
-1.0,2.0,1.0,3.0,9.0,4.0,0.0,0.0,1651086896797675.0
-1.0,3.0,-4.0,-3.0,-5.0,-2.0,0.0,-3.0,1651086896798676.0
-1.0,-5.0,-1.0,1.0,-3.0,-2.0,-2.0,0.0,1651086896798676.0
0.0,0.0,1.0,-3.0,-3.0,0.0,-1.0,1.0,1651086896811769.0
-1.0,0.0,-2.0,-3.0,-6.0,-2.0,-2.0,0.0,1651086896811769.0
2.0,-3.0,0.0,0.0,0.0,-1.0,0.0,0.0,1651086896820039.0
-2.0,-2.0,0.0,4.0,7.0,2.0,-1.0,-1.0,1651086896820039.0
0.0,-14.0,-5.0,-6.0,-1.0,1.0,1.0,0.0,1651086896836225.0
-1.0,15.0,17.0,0.0,3.0,-2.0,-1.0,0.0,1651086896836225.0
0.0,-7.0,-23.0,-2.0,-7.0,0.0,2.0,0.0,1651086896837142.0
2.0,2.0,6.0,11.0,18.0,6.0,3.0,1.0,1651086896837142.0
-2.0,11.0,1.0,-3.0,-6.0,-5.0,-3.0,-1.0,1651086896857224.0
1.0,-8.0,-9.0,-6.0,-8.0,-3.0,0.0,-1.0,1651086896857224.0
-1.0,1.0,3.0,-8.0,-4.0,-2.0,-2.0,-1.0,1651086896859212.0
0.0,-7.0,-2.0,-4.0,-7.0,-3.0,-1.0,-2.0,1651086896859212.0
0.0,-2.0,0.0,-1.0,0.0,-3.0,0.0,-1.0,1651086896871360.0
-1.0,2.0,-1.0,-5.0,-7.0,-2.0,0.0,1.0,1651086896871360.0
-1.0,6.0,5.0,7.0,15.0,7.0,0.0,-1.0,1651086896880246.0
-1.0,-15.0,-4.0,2.0,3.0,1.0,0.0,-2.0,1651086896880246.0
0.0,4.0,4.0,1.0,1.0,1.0,1.0,-1.0,1651086896895339.0
-1.0,1.0,-3.0,-8.0,-12.0,-4.0,-4.0,-2.0,1651086896895339.0
-1.0,-4.0,6.0,5.0,-2.0,-2.0,-2.0,-2.0,1651086896896206.0
-3.0,11.0,-4.0,-4.0,5.0,3.0,0.0,-1.0,1651086896896206.0
0.0,-1.0,2.0,0.0,-7.0,-4.0,-1.0,-1.0,1651086896918324.0
0.0,-1.0,-4.0,6.0,3.0,1.0,-1.0,-2.0,1651086896918324.0
0.0,-11.0,-6.0,-7.0,-4.0,-2.0,2.0,2.0,1651086896919086.0
0.0,7.0,10.0,-3.0,-7.0,-4.0,-3.0,0.0,1651086896919086.0
-1.0,-5.0,0.0,3.0,2.0,-1.0,0.0,0.0,1651086896930675.0
-1.0,-4.0,-11.0,-5.0,-7.0,1.0,0.0,0.0,1651086896930675.0
0.0,3.0,10.0,4.0,5.0,0.0,-2.0,-1.0,1651086896940234.0
2.0,-16.0,-11.0,-5.0,-7.0,-4.0,-1.0,-2.0,1651086896940234.0
0.0,17.0,-2.0,-2.0,2.0,1.0,0.0,0.0,1651086896955535.0
-1.0,-4.0,6.0,4.0,2.0,-3.0,-1.0,-1.0,1651086896955535.0
1.0,5.0,-8.0,3.0,9.0,2.0,0.0,1.0,1651086896956418.0
0.0,-5.0,-2.0,-6.0,2.0,1.0,-1.0,0.0,1651086896956418.0
1.0,-2.0,-6.0,-5.0,-11.0,-2.0,-1.0,-1.0,1651086896977797.0
-1.0,4.0,8.0,16.0,15.0,3.0,3.0,0.0,1651086896977797.0
-1.0,-10.0,2.0,1.0,-12.0,-5.0,0.0,0.0,1651086896978798.0
0.0,4.0,-2.0,0.0,1.0,-2.0,0.0,-2.0,1651086896978798.0
-1.0,-2.0,1.0,-3.0,4.0,2.0,1.0,0.0,1651086896990993.0
-1.0,-2.0,-3.0,-3.0,1.0,-1.0,-1.0,-1.0,1651086896990993.0
0.0,-1.0,-3.0,0.0,2.0,-1.0,1.0,-1.0,1651086897000519.0
0.0,-12.0,-4.0,-2.0,-9.0,-4.0,-2.0,-2.0,1651086897000519.0
-1.0,10.0,11.0,1.0,1.0,-2.0,0.0,1.0,1651086897015363.0
0.0,-4.0,-9.0,-5.0,-3.0,-2.0,-1.0,1.0,1651086897015363.0
-3.0,1.0,0.0,-5.0,-4.0,-1.0,0.0,-1.0,1651086897016212.0
1.0,2.0,-3.0,-2.0,-13.0,-1.0,-1.0,0.0,1651086897016212.0
-1.0,-7.0,0.0,7.0,20.0,8.0,1.0,-1.0,1651086897037838.0
2.0,1.0,1.0,1.0,-3.0,-2.0,0.0,0.0,1651086897037838.0
-1.0,5.0,2.0,1.0,4.0,0.0,-1.0,-1.0,1651086897038838.0
-1.0,0.0,-2.0,-3.0,-9.0,-4.0,0.0,0.0,1651086897038838.0
-2.0,-10.0,1.0,-2.0,-2.0,-3.0,-2.0,-2.0,1651086897050847.0
-2.0,1.0,-14.0,-6.0,-5.0,0.0,-2.0,0.0,1651086897050847.0
-1.0,-3.0,-3.0,-7.0,-5.0,-2.0,-1.0,-1.0,1651086897059781.0
-2.0,6.0,4.0,-2.0,-2.0,-3.0,-1.0,0.0,1651086897059781.0
1.0,1.0,2.0,11.0,2.0,-1.0,0.0,-1.0,1651086897074210.0
-1.0,-2.0,4.0,-1.0,5.0,3.0,0.0,-2.0,1651086897074210.0
0.0,-4.0,0.0,-3.0,-4.0,2.0,-2.0,1.0,1651086897076203.0
-1.0,9.0,7.0,13.0,8.0,0.0,0.0,0.0,1651086897076203.0
-2.0,0.0,-2.0,-5.0,-1.0,1.0,1.0,0.0,1651086897097688.0
0.0,-3.0,2.0,0.0,-8.0,-2.0,0.0,0.0,1651086897097688.0
1.0,-1.0,-10.0,0.0,4.0,2.0,-1.0,-1.0,1651086897098719.0
0.0,-4.0,-1.0,-4.0,-4.0,0.0,0.0,0.0,1651086897098719.0
-1.0,-1.0,-4.0,-4.0,-6.0,-2.0,-2.0,-1.0,1651086897111372.0
0.0,-3.0,1.0,-3.0,-5.0,-1.0,1.0,-1.0,1651086897111372.0
-2.0,-11.0,4.0,2.0,7.0,0.0,0.0,0.0,1651086897119908.0
-2.0,23.0,2.0,-1.0,3.0,0.0,0.0,-1.0,1651086897119908.0
1.0,-5.0,-18.0,-10.0,-4.0,-2.0,-1.0,-2.0,1651086897134359.0
-1.0,-6.0,0.0,2.0,-3.0,-2.0,0.0,-3.0,1651086897134359.0
1.0,2.0,4.0,1.0,-1.0,-1.0,-3.0,-2.0,1651086897136209.0
-1.0,-9.0,-5.0,-5.0,-4.0,-2.0,0.0,0.0,1651086897136209.0
-1.0,10.0,6.0,0.0,-1.0,-3.0,-1.0,-2.0,1651086897157236.0
-1.0,1.0,0.0,-10.0,-2.0,-2.0,0.0,0.0,1651086897157236.0
-1.0,3.0,3.0,12.0,15.0,8.0,4.0,2.0,1651086897159232.0
-2.0,-1.0,-2.0,-1.0,-2.0,1.0,0.0,0.0,1651086897159232.0
0.0,0.0,-2.0,-1.0,-4.0,0.0,0.0,1.0,1651086897180221.0
2.0,-2.0,-2.0,-2.0,0.0,1.0,-1.0,0.0,1651086897180221.0
2.0,5.0,7.0,10.0,9.0,0.0,0.0,-1.0,1651086897181217.0
-1.0,-3.0,-1.0,-3.0,2.0,2.0,0.0,0.0,1651086897181217.0
-1.0,-4.0,-3.0,-1.0,-4.0,-3.0,2.0,0.0,1651086897194190.0
-1.0,1.0,-2.0,0.0,-16.0,-6.0,-2.0,-3.0,1651086897194190.0
0.0,1.0,6.0,-3.0,9.0,2.0,0.0,-1.0,1651086897201345.0
0.0,-11.0,-15.0,0.0,0.0,2.0,1.0,0.0,1651086897201345.0
1.0,0.0,5.0,1.0,-2.0,1.0,-1.0,0.0,1651086897217729.0
-2.0,9.0,0.0,-1.0,6.0,3.0,0.0,-1.0,1651086897217729.0
1.0,3.0,-4.0,-2.0,-13.0,-4.0,0.0,0.0,1651086897218730.0
2.0,0.0,2.0,1.0,0.0,-1.0,-1.0,-2.0,1651086897218730.0
0.0,-7.0,-1.0,0.0,4.0,3.0,-1.0,1.0,1651086897240186.0
0.0,0.0,-2.0,-7.0,3.0,2.0,-1.0,-1.0,1651086897240186.0
-1.0,2.0,8.0,12.0,2.0,-2.0,-1.0,-1.0,1651086897241038.0
-2.0,-6.0,-2.0,2.0,8.0,4.0,-1.0,0.0,1651086897241038.0
0.0,4.0,3.0,3.0,1.0,1.0,0.0,0.0,1651086897255233.0
0.0,-2.0,0.0,-2.0,0.0,-2.0,1.0,0.0,1651086897255233.0
-1.0,-1.0,-6.0,-7.0,-6.0,-4.0,-3.0,0.0,1651086897256198.0
0.0,-1.0,-1.0,-10.0,-14.0,-5.0,-1.0,1.0,1651086897256198.0
0.0,-4.0,4.0,14.0,19.0,4.0,1.0,0.0,1651086897278307.0
-1.0,8.0,-15.0,5.0,4.0,-2.0,0.0,1.0,1651086897278307.0
0.0,3.0,6.0,-7.0,-4.0,1.0,0.0,2.0,1651086897279104.0
-2.0,-1.0,0.0,0.0,-1.0,-3.0,-1.0,-1.0,1651086897279104.0
-1.0,0.0,8.0,0.0,1.0,-1.0,-2.0,-1.0,1651086897300345.0
0.0,-6.0,1.0,-1.0,2.0,1.0,0.0,0.0,1651086897300345.0
-1.0,2.0,-1.0,0.0,-4.0,1.0,1.0,0.0,1651086897301242.0
0.0,6.0,0.0,-5.0,-8.0,-2.0,-2.0,-1.0,1651086897301242.0
0.0,3.0,0.0,-4.0,-3.0,-3.0,0.0,-1.0,1651086897314593.0
-1.0,-4.0,1.0,8.0,17.0,6.0,1.0,-1.0,1651086897314593.0
0.0,-3.0,-7.0,-11.0,-14.0,-5.0,-3.0,-1.0,1651086897321757.0
-1.0,-7.0,-5.0,2.0,5.0,3.0,-1.0,-1.0,1651086897321757.0
-2.0,2.0,3.0,-4.0,-12.0,-6.0,-2.0,-3.0,1651086897337945.0
-2.0,3.0,1.0,2.0,0.0,-1.0,-1.0,1.0,1651086897337945.0
-2.0,-3.0,-3.0,-7.0,-6.0,-1.0,0.0,-1.0,1651086897338977.0
1.0,2.0,4.0,6.0,6.0,1.0,0.0,0.0,1651086897338977.0
-1.0,-2.0,-6.0,-1.0,6.0,3.0,-1.0,-1.0,1651086897360127.0
-1.0,-1.0,4.0,-3.0,-2.0,-1.0,-1.0,2.0,1651086897360127.0
0.0,-2.0,-2.0,-4.0,-3.0,-2.0,-1.0,-1.0,1651086897361126.0
-2.0,-2.0,4.0,2.0,0.0,-3.0,0.0,-1.0,1651086897361126.0
-1.0,0.0,-12.0,-6.0,-10.0,2.0,0.0,0.0,1651086897374226.0
-2.0,-3.0,4.0,8.0,15.0,7.0,2.0,1.0,1651086897374226.0
-3.0,-1.0,-3.0,6.0,2.0,-1.0,-3.0,-2.0,1651086897388953.0
-1.0,1.0,2.0,-11.0,-3.0,2.0,1.0,1.0,1651086897388953.0
-2.0,-7.0,-2.0,1.0,0.0,-2.0,0.0,-1.0,1651086897397574.0
3.0,14.0,0.0,-2.0,-13.0,-7.0,0.0,-1.0,1651086897397574.0
-4.0,-6.0,2.0,-2.0,-4.0,-3.0,-2.0,-2.0,1651086897398574.0
1.0,-1.0,-2.0,2.0,-2.0,-2.0,-1.0,-1.0,1651086897398574.0
-1.0,-6.0,-3.0,-4.0,8.0,4.0,2.0,1.0,1651086897420377.0
1.0,5.0,-2.0,-2.0,-5.0,-1.0,0.0,0.0,1651086897420377.0
0.0,-6.0,-1.0,2.0,5.0,0.0,-1.0,1.0,1651086897421271.0
0.0,10.0,8.0,-21.0,-20.0,-7.0,-2.0,0.0,1651086897421271.0
1.0,-5.0,0.0,35.0,18.0,4.0,1.0,1.0,1651086897434228.0
-1.0,-10.0,-5.0,-8.0,-5.0,-3.0,1.0,-1.0,1651086897434228.0
0.0,4.0,-4.0,-6.0,-4.0,-3.0,-1.0,-1.0,1651086897441210.0
1.0,-13.0,-1.0,10.0,7.0,2.0,0.0,-1.0,1651086897441210.0
1.0,3.0,-8.0,-11.0,-7.0,-3.0,0.0,0.0,1651086897457198.0
0.0,-2.0,7.0,-10.0,-10.0,-3.0,-2.0,-4.0,1651086897457198.0
0.0,3.0,5.0,7.0,3.0,-1.0,1.0,0.0,1651086897459161.0
0.0,6.0,-5.0,-1.0,-5.0,-3.0,-2.0,0.0,1651086897459161.0
-1.0,-7.0,6.0,-3.0,5.0,3.0,0.0,0.0,1651086897480372.0
-2.0,-4.0,-1.0,3.0,-4.0,-1.0,-2.0,-1.0,1651086897480372.0
0.0,-1.0,-4.0,-1.0,11.0,3.0,2.0,-1.0,1651086897481212.0
-1.0,2.0,4.0,11.0,9.0,4.0,1.0,1.0,1651086897481212.0
-1.0,1.0,4.0,0.0,2.0,-4.0,-2.0,-1.0,1651086897494394.0
-1.0,-5.0,-12.0,-8.0,2.0,0.0,-3.0,0.0,1651086897494394.0
2.0,4.0,7.0,11.0,2.0,4.0,0.0,1.0,1651086897508221.0
0.0,0.0,-4.0,-3.0,2.0,-1.0,0.0,0.0,1651086897508221.0
0.0,-2.0,-8.0,-14.0,-13.0,-4.0,-1.0,-1.0,1651086897517803.0
2.0,2.0,7.0,8.0,3.0,2.0,1.0,0.0,1651086897517803.0
-2.0,2.0,5.0,0.0,-4.0,-3.0,-1.0,-2.0,1651086897518803.0
-1.0,0.0,-20.0,5.0,9.0,2.0,1.0,0.0,1651086897518803.0
-5.0,-11.0,9.0,0.0,-19.0,-10.0,-4.0,-3.0,1651086897540324.0
0.0,-3.0,-8.0,-13.0,-5.0,-2.0,1.0,1.0,1651086897540324.0
0.0,4.0,24.0,27.0,14.0,4.0,2.0,2.0,1651086897541161.0
3.0,5.0,13.0,9.0,9.0,4.0,2.0,1.0,1651086897541161.0
-4.0,-1.0,-4.0,6.0,-2.0,-3.0,-1.0,-2.0,1651086897554392.0
0.0,4.0,48.0,33.0,8.0,2.0,0.0,-1.0,1651086897554392.0
-4.0,-16.0,-45.0,-46.0,-25.0,-10.0,-3.0,-3.0,1651086897560471.0
1.0,4.0,21.0,18.0,6.0,2.0,-1.0,1.0,1651086897560471.0
2.0,4.0,-24.0,-27.0,-8.0,-4.0,-2.0,-2.0,1651086897577807.0
0.0,-3.0,-5.0,8.0,4.0,-1.0,-1.0,-2.0,1651086897577807.0
-2.0,5.0,6.0,15.0,-3.0,-1.0,-1.0,-2.0,1651086897578807.0
-2.0,-8.0,-21.0,-13.0,-6.0,-3.0,-1.0,0.0,1651086897578807.0
0.0,0.0,18.0,-8.0,-6.0,0.0,1.0,0.0,1651086897599755.0
0.0,7.0,5.0,2.0,7.0,3.0,3.0,7.0,1651086897599755.0
0.0,-1.0,-11.0,1.0,0.0,-2.0,-2.0,-1.0,1651086897601746.0
-5.0,-1.0,-26.0,-7.0,-9.0,-8.0,-4.0,10.0,1651086897601746.0
-1.0,8.0,23.0,11.0,13.0,5.0,1.0,-17.0,1651086897613713.0
1.0,2.0,1.0,3.0,2.0,1.0,0.0,3.0,1651086897613713.0
0.0,0.0,10.0,7.0,-6.0,-4.0,-1.0,-5.0,1651086897621328.0
-1.0,-14.0,-2.0,-5.0,6.0,4.0,-1.0,-4.0,1651086897621328.0
-5.0,4.0,-26.0,-18.0,0.0,2.0,1.0,20.0,1651086897637724.0
0.0,-9.0,33.0,24.0,-12.0,-7.0,-1.0,-7.0,1651086897637724.0
-7.0,10.0,-31.0,-16.0,2.0,0.0,-5.0,-16.0,1651086897638735.0
-7.0,4.0,20.0,-2.0,-4.0,1.0,2.0,19.0,1651086897638735.0
6.0,1.0,20.0,20.0,7.0,2.0,-1.0,-1.0,1651086897661078.0
-4.0,-5.0,-45.0,-40.0,-5.0,-1.0,-3.0,-20.0,1651086897661078.0
3.0,1.0,35.0,28.0,5.0,3.0,3.0,6.0,1651086897666099.0
1.0,-7.0,-23.0,11.0,3.0,-3.0,-1.0,-3.0,1651086897666099.0
3.0,6.0,2.0,-11.0,-4.0,-2.0,-2.0,-6.0,1651086897673220.0
6.0,-4.0,0.0,-6.0,-7.0,0.0,3.0,23.0,1651086897673220.0
-1.0,7.0,4.0,-24.0,1.0,2.0,-2.0,-34.0,1651086897682283.0
0.0,7.0,34.0,29.0,3.0,-1.0,0.0,-3.0,1651086897682283.0
-20.0,-17.0,-59.0,-2.0,-3.0,-7.0,-7.0,-22.0,1651086897697245.0
9.0,3.0,-22.0,-29.0,-7.0,-3.0,-1.0,-3.0,1651086897697245.0
0.0,2.0,6.0,-9.0,2.0,2.0,0.0,7.0,1651086897699240.0
1.0,2.0,27.0,32.0,-5.0,-3.0,0.0,-6.0,1651086897699240.0
-7.0,-6.0,-38.0,-17.0,-9.0,-5.0,-4.0,4.0,1651086897727693.0
-3.0,13.0,-15.0,11.0,5.0,-1.0,-3.0,2.0,1651086897727693.0
-2.0,-5.0,3.0,-8.0,-1.0,1.0,1.0,8.0,1651086897728693.0
12.0,4.0,26.0,-4.0,8.0,7.0,6.0,4.0,1651086897728693.0
4.0,6.0,-3.0,-1.0,-8.0,-4.0,-8.0,-5.0,1651086897733704.0
-10.0,-17.0,-16.0,15.0,4.0,0.0,-2.0,-7.0,1651086897733704.0
12.0,7.0,8.0,6.0,1.0,3.0,7.0,26.0,1651086897742656.0
2.0,-1.0,-41.0,-37.0,-9.0,-4.0,-6.0,-28.0,1651086897742656.0
8.0,-3.0,-18.0,-13.0,-1.0,-1.0,3.0,8.0,1651086897757202.0
10.0,-5.0,-2.0,-6.0,2.0,4.0,2.0,6.0,1651086897757202.0
-14.0,-11.0,-19.0,14.0,-1.0,-3.0,-5.0,-20.0,1651086897759226.0
0.0,3.0,12.0,-7.0,-1.0,-1.0,2.0,14.0,1651086897759226.0
6.0,-2.0,21.0,21.0,5.0,0.0,-2.0,-21.0,1651086897779199.0
-4.0,-2.0,2.0,-14.0,3.0,3.0,0.0,-4.0,1651086897779199.0
8.0,3.0,-6.0,-5.0,-10.0,-3.0,3.0,19.0,1651086897786314.0
-21.0,-9.0,-23.0,0.0,-3.0,-3.0,-11.0,-15.0,1651086897786314.0
8.0,0.0,6.0,-18.0,-3.0,3.0,4.0,13.0,1651086897793295.0
-7.0,8.0,44.0,31.0,6.0,2.0,0.0,7.0,1651086897793295.0
-2.0,-3.0,-38.0,-15.0,1.0,-2.0,-5.0,-22.0,1651086897802043.0
12.0,6.0,51.0,20.0,1.0,1.0,-3.0,-1.0,1651086897802043.0
-14.0,-15.0,-33.0,8.0,0.0,-4.0,-3.0,20.0,1651086897817212.0
-3.0,4.0,-13.0,-25.0,0.0,0.0,1.0,0.0,1651086897817212.0
13.0,12.0,29.0,20.0,2.0,4.0,1.0,-4.0,1651086897819248.0
-23.0,-6.0,6.0,-7.0,4.0,-1.0,2.0,-12.0,1651086897819248.0
3.0,4.0,30.0,18.0,0.0,1.0,3.0,21.0,1651086897840189.0
-3.0,-7.0,-28.0,-8.0,-1.0,-1.0,-3.0,-11.0,1651086897840189.0
-3.0,-5.0,29.0,15.0,9.0,2.0,-10.0,-23.0,1651086897841093.0
9.0,2.0,-14.0,-27.0,-4.0,2.0,8.0,5.0,1651086897841093.0
7.0,9.0,21.0,32.0,2.0,3.0,2.0,0.0,1651086897854277.0
4.0,-5.0,-45.0,-40.0,1.0,0.0,2.0,31.0,1651086897854277.0
-13.0,-4.0,22.0,28.0,-5.0,-4.0,3.0,21.0,1651086897862360.0
10.0,-6.0,-13.0,5.0,2.0,3.0,-1.0,-16.0,1651086897862360.0
1.0,11.0,13.0,-17.0,-2.0,2.0,6.0,5.0,1651086897877655.0
40.0,-2.0,1.0,8.0,-4.0,-4.0,-12.0,-30.0,1651086897877655.0
1.0,-1.0,20.0,9.0,5.0,-1.0,1.0,20.0,1651086897878655.0
4.0,3.0,-35.0,-42.0,-2.0,2.0,-2.0,-5.0,1651086897878655.0
42.0,-1.0,-6.0,12.0,4.0,1.0,8.0,17.0,1651086897900273.0
-44.0,-3.0,30.0,-5.0,-9.0,-5.0,-2.0,18.0,1651086897900273.0
-5.0,-4.0,-60.0,-15.0,-6.0,-3.0,-3.0,-10.0,1651086897900877.0
-2.0,-8.0,5.0,-1.0,-3.0,-1.0,-3.0,1.0,1651086897900877.0
-6.0,-6.0,-52.0,-32.0,-4.0,-3.0,-5.0,-16.0,1651086897922735.0
11.0,14.0,-5.0,-17.0,5.0,1.0,1.0,-3.0,1651086897922735.0
-34.0,-36.0,20.0,18.0,2.0,-2.0,10.0,10.0,1651086897924094.0
4.0,11.0,-12.0,-4.0,-14.0,-5.0,-10.0,20.0,1651086897924094.0
-2.0,5.0,42.0,28.0,14.0,1.0,-7.0,-30.0,1651086897938272.0
-28.0,-1.0,-11.0,-33.0,-17.0,-3.0,6.0,-7.0,1651086897938272.0
-1.0,6.0,-1.0,1.0,1.0,-4.0,-6.0,23.0,1651086897943410.0
8.0,-9.0,-24.0,-11.0,0.0,-4.0,-3.0,-47.0,1651086897943410.0
-15.0,5.0,30.0,16.0,9.0,5.0,9.0,19.0,1651086897960340.0
-28.0,-4.0,28.0,35.0,1.0,-4.0,-6.0,-17.0,1651086897960340.0
17.0,-5.0,-43.0,-34.0,-8.0,5.0,0.0,9.0,1651086897961198.0
-11.0,-6.0,23.0,5.0,0.0,1.0,3.0,5.0,1651086897961198.0
-15.0,-7.0,14.0,-8.0,-11.0,-5.0,-3.0,-6.0,1651086897973210.0
21.0,-4.0,-2.0,9.0,1.0,-6.0,-7.0,-5.0,1651086897973210.0
-3.0,0.0,-9.0,6.0,-6.0,-1.0,7.0,24.0,1651086897982292.0
5.0,-1.0,2.0,-15.0,-5.0,-6.0,-5.0,-12.0,1651086897982292.0
3.0,-2.0,14.0,14.0,1.0,-4.0,-6.0,-15.0,1651086897996367.0
29.0,8.0,-18.0,24.0,4.0,3.0,9.0,38.0,1651086897996367.0
-11.0,-13.0,-9.0,-19.0,-1.0,-2.0,-11.0,-17.0,1651086898005363.0
16.0,24.0,21.0,21.0,5.0,7.0,7.0,20.0,1651086898005363.0
-5.0,-10.0,-38.0,-38.0,-4.0,2.0,2.0,3.0,1651086898020280.0
-5.0,-1.0,33.0,17.0,1.0,0.0,6.0,31.0,1651086898020280.0
9.0,-5.0,3.0,-18.0,-9.0,-4.0,-6.0,-44.0,1651086898021223.0
-8.0,-1.0,-23.0,-7.0,-1.0,6.0,7.0,18.0,1651086898021223.0
-13.0,-1.0,47.0,-4.0,-7.0,-4.0,-5.0,-7.0,1651086898034216.0
2.0,6.0,10.0,14.0,4.0,-2.0,-6.0,-12.0,1651086898034216.0
7.0,5.0,5.0,38.0,13.0,5.0,7.0,27.0,1651086898042006.0
-4.0,-10.0,1.0,-10.0,-1.0,-6.0,-6.0,-5.0,1651086898042006.0
-2.0,3.0,7.0,14.0,-5.0,0.0,3.0,5.0,1651086898057206.0
21.0,1.0,-31.0,-28.0,-3.0,2.0,0.0,-2.0,1651086898057206.0
-17.0,2.0,42.0,3.0,6.0,1.0,-2.0,-4.0,1651086898059184.0
-3.0,0.0,-18.0,-11.0,4.0,1.0,6.0,2.0,1651086898059184.0
10.0,2.0,16.0,17.0,-10.0,-2.0,0.0,23.0,1651086898079246.0
-4.0,3.0,15.0,24.0,7.0,2.0,-1.0,-28.0,1651086898079246.0
10.0,8.0,-16.0,-20.0,-4.0,0.0,5.0,-22.0,1651086898081296.0
3.0,-7.0,-4.0,13.0,-1.0,2.0,-1.0,17.0,1651086898081296.0
-6.0,2.0,21.0,-4.0,2.0,0.0,0.0,-20.0,1651086898094403.0
-8.0,-23.0,-61.0,-34.0,-10.0,-5.0,-4.0,-13.0,1651086898094403.0
10.0,5.0,7.0,-2.0,0.0,2.0,9.0,47.0,1651086898102532.0
-3.0,3.0,-15.0,19.0,4.0,-7.0,-10.0,-3.0,1651086898102532.0
1.0,3.0,-9.0,-14.0,0.0,0.0,1.0,2.0,1651086898118248.0
-6.0,2.0,43.0,47.0,1.0,2.0,-1.0,-15.0,1651086898118248.0
4.0,-2.0,-7.0,-26.0,4.0,-2.0,-3.0,5.0,1651086898119104.0
-2.0,-2.0,-5.0,7.0,-7.0,-2.0,6.0,4.0,1651086898119104.0
2.0,-2.0,-46.0,-34.0,0.0,1.0,1.0,-3.0,1651086898140378.0
-8.0,11.0,51.0,21.0,5.0,-1.0,1.0,6.0,1651086898140378.0
-11.0,-3.0,11.0,-3.0,-6.0,-5.0,-6.0,-14.0,1651086898141234.0
-11.0,-7.0,-28.0,0.0,9.0,6.0,2.0,5.0,1651086898141234.0
2.0,0.0,-12.0,-8.0,-2.0,-3.0,-3.0,-13.0,1651086898162926.0
3.0,-5.0,4.0,-13.0,-2.0,0.0,2.0,-1.0,1651086898162926.0
-8.0,22.0,27.0,1.0,0.0,-1.0,3.0,4.0,1651086898163962.0
-9.0,0.0,17.0,-15.0,-21.0,-10.0,-8.0,-6.0,1651086898163962.0
-4.0,-6.0,-32.0,9.0,8.0,6.0,5.0,-6.0,1651086898178227.0
13.0,-1.0,-3.0,-21.0,5.0,4.0,-1.0,25.0,1651086898178227.0
1.0,-8.0,-5.0,9.0,-3.0,1.0,-1.0,1.0,1651086898178917.0
-11.0,1.0,-24.0,-17.0,-6.0,-2.0,-2.0,-30.0,1651086898178917.0
0.0,-2.0,-15.0,-14.0,4.0,5.0,11.0,38.0,1651086898200371.0
-7.0,5.0,15.0,21.0,2.0,0.0,-6.0,-24.0,1651086898200371.0
24.0,-2.0,-12.0,6.0,4.0,-1.0,-3.0,-6.0,1651086898201226.0
2.0,-2.0,27.0,-12.0,-3.0,0.0,1.0,3.0,1651086898201226.0
-2.0,-13.0,-28.0,-2.0,-4.0,-4.0,-5.0,0.0,1651086898230350.0
-27.0,-6.0,-14.0,-11.0,-4.0,0.0,2.0,-2.0,1651086898230350.0
-25.0,-4.0,2.0,5.0,0.0,-2.0,-6.0,-22.0,1651086898231210.0
8.0,6.0,25.0,54.0,2.0,-4.0,1.0,-7.0,1651086898231210.0
11.0,1.0,-48.0,-38.0,-1.0,4.0,-7.0,-7.0,1651086898237227.0
-8.0,-6.0,-17.0,-13.0,8.0,-1.0,-2.0,-3.0,1651086898237227.0
11.0,-1.0,-5.0,-8.0,-11.0,-6.0,-6.0,-10.0,1651086898239223.0
1.0,-2.0,-27.0,-13.0,-1.0,0.0,3.0,7.0,1651086898239223.0
-4.0,4.0,58.0,40.0,7.0,2.0,-3.0,-12.0,1651086898260293.0
-4.0,-5.0,-20.0,-20.0,-7.0,-2.0,-1.0,2.0,1651086898260293.0
13.0,2.0,-67.0,-17.0,-5.0,-3.0,-2.0,11.0,1651086898261169.0
6.0,-6.0,36.0,13.0,7.0,7.0,9.0,51.0,1651086898261169.0
-12.0,11.0,43.0,61.0,11.0,0.0,-5.0,-18.0,1651086898281196.0
6.0,-1.0,-13.0,-31.0,-12.0,-3.0,0.0,8.0,1651086898281196.0
-28.0,-1.0,45.0,3.0,2.0,1.0,-7.0,-18.0,1651086898282192.0
-4.0,-2.0,73.0,43.0,2.0,0.0,0.0,5.0,1651086898282192.0
-8.0,-7.0,-91.0,-59.0,-9.0,-4.0,-1.0,12.0,1651086898296298.0
10.0,0.0,6.0,38.0,5.0,1.0,3.0,7.0,1651086898296298.0
5.0,8.0,37.0,9.0,0.0,2.0,6.0,19.0,1651086898304320.0
0.0,6.0,-23.0,-18.0,-3.0,-2.0,-5.0,-19.0,1651086898304320.0
1.0,3.0,56.0,25.0,0.0,0.0,0.0,7.0,1651086898319206.0
-1.0,-8.0,-26.0,-11.0,-3.0,-2.0,-9.0,-17.0,1651086898319206.0
14.0,-9.0,-76.0,-32.0,0.0,3.0,5.0,11.0,1651086898320239.0
9.0,2.0,-17.0,-16.0,8.0,0.0,-6.0,-14.0,1651086898320239.0
-5.0,3.0,69.0,39.0,-2.0,-2.0,4.0,8.0,1651086898341169.0
26.0,1.0,-41.0,-22.0,-13.0,-4.0,-4.0,-16.0,1651086898341169.0
4.0,1.0,17.0,9.0,3.0,-1.0,-1.0,-3.0,1651086898342165.0
0.0,0.0,-28.0,-6.0,10.0,5.0,7.0,-9.0,1651086898342165.0
-18.0,-8.0,-15.0,-14.0,-3.0,-1.0,-8.0,-35.0,1651086898356311.0
-5.0,4.0,47.0,22.0,3.0,0.0,0.0,9.0,1651086898356311.0
-33.0,-6.0,-16.0,1.0,-6.0,-4.0,-3.0,-22.0,1651086898364552.0
-12.0,-6.0,6.0,-21.0,-2.0,-1.0,-4.0,1.0,1651086898364552.0
0.0,-12.0,-20.0,-22.0,-2.0,2.0,1.0,13.0,1651086898379209.0
-5.0,-3.0,4.0,19.0,-1.0,0.0,3.0,13.0,1651086898379209.0
9.0,5.0,14.0,-28.0,-6.0,-3.0,-2.0,-1.0,1651086898380246.0
-1.0,3.0,7.0,42.0,14.0,4.0,5.0,8.0,1651086898380246.0
-3.0,4.0,28.0,-4.0,-7.0,-3.0,-2.0,1.0,1651086898402356.0
-3.0,-1.0,39.0,7.0,2.0,3.0,1.0,-4.0,1651086898402356.0
14.0,5.0,-31.0,-6.0,4.0,2.0,5.0,5.0,1651086898402356.0
7.0,-10.0,7.0,11.0,-11.0,-6.0,-4.0,-9.0,1651086898402356.0
-3.0,4.0,-23.0,-9.0,3.0,1.0,3.0,12.0,1651086898416690.0
3.0,5.0,12.0,-1.0,-1.0,0.0,-4.0,-21.0,1651086898416690.0
-13.0,-8.0,-21.0,4.0,1.0,0.0,0.0,2.0,1651086898424192.0
16.0,11.0,35.0,-8.0,10.0,8.0,0.0,22.0,1651086898424192.0
-8.0,2.0,-17.0,41.0,5.0,-3.0,-2.0,-28.0,1651086898439194.0
8.0,-1.0,17.0,-3.0,-2.0,0.0,1.0,9.0,1651086898439194.0
2.0,-1.0,-3.0,-35.0,-16.0,-3.0,-2.0,0.0,1651086898440224.0
-2.0,4.0,-3.0,-11.0,1.0,-5.0,-5.0,-2.0,1651086898440224.0
12.0,-10.0,30.0,-6.0,-10.0,-3.0,2.0,13.0,1651086898461385.0
-2.0,5.0,-31.0,-12.0,7.0,5.0,-1.0,11.0,1651086898461385.0
-1.0,-2.0,-2.0,27.0,-1.0,-2.0,1.0,-8.0,1651086898462385.0
2.0,2.0,-21.0,-26.0,-2.0,-1.0,-1.0,27.0,1651086898462385.0
8.0,9.0,1.0,15.0,4.0,1.0,-3.0,10.0,1651086898476392.0
-5.0,1.0,3.0,-5.0,-8.0,-5.0,2.0,-11.0,1651086898476392.0
-3.0,-8.0,8.0,1.0,3.0,1.0,2.0,9.0,1651086898484368.0
12.0,0.0,9.0,7.0,-8.0,0.0,1.0,-7.0,1651086898484368.0
6.0,0.0,-17.0,-22.0,-7.0,-3.0,-1.0,16.0,1651086898499203.0
6.0,-1.0,-8.0,14.0,1.0,-3.0,-4.0,3.0,1651086898499203.0
-22.0,-2.0,70.0,15.0,7.0,4.0,3.0,-16.0,1651086898499203.0
-8.0,-15.0,-79.0,-16.0,-10.0,-6.0,-11.0,-58.0,1651086898499203.0
-10.0,3.0,-28.0,-21.0,0.0,-3.0,-3.0,-10.0,1651086898522006.0
2.0,2.0,5.0,1.0,1.0,-1.0,1.0,2.0,1651086898522006.0
19.0,-10.0,-4.0,-1.0,-2.0,1.0,-2.0,6.0,1651086898522006.0
-11.0,7.0,22.0,16.0,-4.0,-6.0,-4.0,-17.0,1651086898522006.0
3.0,5.0,9.0,-7.0,3.0,2.0,2.0,-3.0,1651086898537748.0
-8.0,2.0,7.0,11.0,8.0,4.0,1.0,-7.0,1651086898537748.0
18.0,2.0,-34.0,-21.0,-9.0,2.0,5.0,7.0,1651086898544225.0
-17.0,-3.0,24.0,11.0,-4.0,-2.0,2.0,30.0,1651086898544225.0
0.0,-5.0,-3.0,-14.0,-7.0,-3.0,-9.0,0.0,1651086898559229.0
2.0,4.0,18.0,8.0,6.0,3.0,5.0,9.0,1651086898559229.0
-7.0,-3.0,5.0,-10.0,-2.0,-2.0,-1.0,8.0,1651086898560261.0
-22.0,-9.0,-1.0,23.0,6.0,4.0,2.0,-20.0,1651086898560261.0
19.0,16.0,45.0,27.0,6.0,0.0,-1.0,1.0,1651086898581419.0
-18.0,-8.0,1.0,-14.0,-9.0,-3.0,-2.0,9.0,1651086898581419.0
2.0,-1.0,-18.0,13.0,8.0,-1.0,-2.0,12.0,1651086898582407.0
-24.0,-6.0,-3.0,-12.0,4.0,1.0,-4.0,-31.0,1651086898582407.0
-8.0,-5.0,-2.0,6.0,-2.0,1.0,3.0,-6.0,1651086898596386.0
7.0,10.0,15.0,16.0,9.0,3.0,1.0,4.0,1651086898596386.0
17.0,-5.0,-52.0,-30.0,-9.0,-4.0,-5.0,-13.0,1651086898604227.0
-1.0,0.0,9.0,-3.0,-8.0,-3.0,3.0,19.0,1651086898604227.0
7.0,6.0,23.0,11.0,0.0,1.0,1.0,2.0,1651086898619237.0
1.0,-5.0,-18.0,-34.0,-6.0,0.0,2.0,-3.0,1651086898619237.0
15.0,10.0,28.0,40.0,10.0,1.0,1.0,-1.0,1651086898619237.0
-6.0,-6.0,-8.0,9.0,0.0,1.0,-6.0,3.0,1651086898619237.0
-3.0,-9.0,-31.0,-18.0,-5.0,-5.0,-3.0,-10.0,1651086898641245.0
0.0,-16.0,5.0,3.0,-9.0,-4.0,-4.0,-2.0,1651086898641245.0
-9.0,9.0,1.0,-2.0,-3.0,-3.0,-2.0,3.0,1651086898642243.0
11.0,4.0,-12.0,-11.0,0.0,3.0,-1.0,-19.0,1651086898642243.0
9.0,9.0,-9.0,-1.0,12.0,5.0,6.0,9.0,1651086898656363.0
0.0,-4.0,34.0,16.0,-1.0,-2.0,-1.0,6.0,1651086898656363.0
-13.0,-5.0,-25.0,-5.0,-1.0,1.0,-1.0,-4.0,1651086898664395.0
16.0,4.0,2.0,7.0,9.0,2.0,13.0,41.0,1651086898664395.0
-3.0,1.0,30.0,16.0,-4.0,-1.0,-7.0,12.0,1651086898679625.0
15.0,7.0,-39.0,-22.0,-3.0,-1.0,-1.0,-16.0,1651086898679625.0
-2.0,4.0,27.0,23.0,10.0,5.0,5.0,12.0,1651086898679625.0
-2.0,-4.0,-14.0,-34.0,2.0,5.0,6.0,8.0,1651086898679625.0
1.0,6.0,1.0,22.0,-1.0,-3.0,-1.0,-2.0,1651086898702334.0
-8.0,-6.0,-19.0,-17.0,-1.0,-2.0,-1.0,-7.0,1651086898702334.0
4.0,12.0,53.0,26.0,0.0,-1.0,-2.0,4.0,1651086898702334.0
-16.0,5.0,-6.0,1.0,-1.0,1.0,-3.0,-1.0,1651086898702334.0
-1.0,-7.0,11.0,-5.0,0.0,-1.0,0.0,-10.0,1651086898716317.0
-8.0,-5.0,-25.0,-15.0,-11.0,-6.0,-5.0,-7.0,1651086898716317.0
2.0,8.0,25.0,33.0,8.0,5.0,3.0,0.0,1651086898724201.0
6.0,-7.0,-16.0,-20.0,-2.0,-3.0,-4.0,0.0,1651086898724201.0
2.0,3.0,13.0,-7.0,-9.0,0.0,-2.0,-9.0,1651086898739212.0
-2.0,-19.0,-42.0,0.0,8.0,2.0,1.0,2.0,1651086898739212.0
-3.0,3.0,-18.0,-20.0,-12.0,-4.0,-1.0,8.0,1651086898740245.0
5.0,4.0,13.0,-10.0,-1.0,-1.0,-1.0,9.0,1651086898740245.0
4.0,-8.0,-20.0,17.0,8.0,2.0,1.0,7.0,1651086898762297.0
-8.0,-2.0,-20.0,-6.0,0.0,1.0,1.0,-20.0,1651086898762297.0
-10.0,2.0,12.0,-14.0,-11.0,-3.0,-1.0,11.0,1651086898762297.0
0.0,-6.0,10.0,10.0,-4.0,-4.0,-6.0,-18.0,1651086898762297.0
-3.0,-5.0,-26.0,-20.0,-2.0,-1.0,1.0,-13.0,1651086898776310.0
-10.0,1.0,19.0,8.0,4.0,3.0,2.0,13.0,1651086898776310.0
-3.0,0.0,-6.0,-10.0,-2.0,-3.0,-4.0,-17.0,1651086898784399.0
4.0,0.0,-5.0,8.0,1.0,-1.0,3.0,-1.0,1651086898784399.0
-20.0,-3.0,-6.0,8.0,4.0,3.0,-1.0,-2.0,1651086898799238.0
10.0,5.0,6.0,-7.0,-2.0,-3.0,-6.0,0.0,1651086898799238.0
13.0,-9.0,0.0,13.0,1.0,-7.0,-6.0,-4.0,1651086898799238.0
3.0,4.0,-19.0,-13.0,-9.0,-5.0,-2.0,-1.0,1651086898799238.0
0.0,-12.0,-2.0,-10.0,-1.0,-1.0,0.0,-2.0,1651086898822246.0
2.0,5.0,24.0,10.0,0.0,2.0,2.0,5.0,1651086898822246.0
-4.0,1.0,-18.0,0.0,4.0,4.0,-1.0,-20.0,1651086898822246.0
-6.0,4.0,19.0,-10.0,-3.0,-4.0,-3.0,-11.0,1651086898822246.0
2.0,-7.0,-26.0,-11.0,-3.0,1.0,2.0,10.0,1651086898846379.0
1.0,3.0,-43.0,-12.0,-8.0,-5.0,-4.0,-7.0,1651086898846379.0
-8.0,-3.0,17.0,-3.0,4.0,4.0,2.0,5.0,1651086898847223.0
15.0,-5.0,-10.0,12.0,7.0,1.0,-3.0,-26.0,1651086898847223.0
4.0,12.0,34.0,2.0,-1.0,0.0,-1.0,-1.0,1651086898867546.0
-8.0,-16.0,-16.0,-12.0,-8.0,-3.0,1.0,8.0,1651086898867546.0
0.0,15.0,6.0,2.0,8.0,0.0,-4.0,-18.0,1651086898868391.0
3.0,-11.0,-8.0,7.0,-5.0,-2.0,1.0,11.0,1651086898868391.0
-16.0,0.0,-6.0,-18.0,-4.0,1.0,-3.0,4.0,1651086898881740.0
-7.0,4.0,21.0,27.0,3.0,1.0,0.0,-17.0,1651086898881740.0
9.0,-4.0,20.0,8.0,4.0,0.0,-1.0,12.0,1651086898882739.0
11.0,-2.0,-4.0,-7.0,-2.0,3.0,3.0,3.0,1651086898882739.0
0.0,7.0,6.0,5.0,8.0,6.0,2.0,-1.0,1651086898896076.0
7.0,1.0,7.0,2.0,-6.0,0.0,11.0,2.0,1651086898896076.0
1.0,0.0,-4.0,-2.0,-4.0,-3.0,-6.0,8.0,1651086898904362.0
-6.0,3.0,27.0,-1.0,-3.0,0.0,-1.0,2.0,1651086898904362.0
-22.0,-14.0,13.0,16.0,1.0,-6.0,-1.0,7.0,1651086898919396.0
17.0,5.0,-26.0,-10.0,4.0,2.0,-1.0,-13.0,1651086898919396.0
13.0,-16.0,-42.0,-28.0,-4.0,-1.0,0.0,-9.0,1651086898919396.0
-31.0,4.0,5.0,33.0,4.0,2.0,2.0,-1.0,1651086898919396.0
21.0,-1.0,14.0,-33.0,-12.0,-3.0,4.0,19.0,1651086898941249.0
-2.0,11.0,11.0,20.0,16.0,7.0,0.0,11.0,1651086898941249.0
-11.0,-13.0,-40.0,-11.0,-4.0,-2.0,-3.0,-1.0,1651086898942248.0
10.0,3.0,9.0,-21.0,-8.0,-1.0,-1.0,10.0,1651086898942248.0
-5.0,-5.0,-37.0,-2.0,-2.0,-2.0,2.0,-11.0,1651086898965368.0
15.0,-2.0,-48.0,-24.0,6.0,0.0,-4.0,4.0,1651086898965368.0
-17.0,2.0,70.0,39.0,-6.0,-2.0,4.0,17.0,1651086898965368.0
7.0,-13.0,-28.0,-7.0,-13.0,-5.0,1.0,7.0,1651086898965368.0
2.0,9.0,-5.0,12.0,4.0,0.0,-2.0,-12.0,1651086898979283.0
-3.0,0.0,24.0,25.0,-4.0,-1.0,1.0,0.0,1651086898979283.0
-2.0,-1.0,-52.0,-69.0,-6.0,3.0,3.0,19.0,1651086898979283.0
7.0,7.0,-5.0,44.0,14.0,3.0,1.0,3.0,1651086898979283.0
15.0,-21.0,-65.0,-44.0,-16.0,-6.0,1.0,0.0,1651086899001891.0
-23.0,3.0,20.0,0.0,2.0,-1.0,-8.0,-20.0,1651086899001891.0
4.0,2.0,-12.0,-5.0,-2.0,0.0,3.0,-2.0,1651086899001891.0
-1.0,5.0,20.0,-6.0,2.0,2.0,-2.0,-15.0,1651086899001891.0
-3.0,-5.0,4.0,11.0,-4.0,-4.0,-3.0,-12.0,1651086899024244.0
-7.0,3.0,7.0,11.0,3.0,2.0,2.0,10.0,1651086899024244.0
3.0,3.0,24.0,13.0,1.0,-2.0,-3.0,-12.0,1651086899025304.0
-2.0,0.0,-15.0,-6.0,6.0,1.0,0.0,7.0,1651086899025304.0
-1.0,-1.0,-1.0,-11.0,6.0,0.0,2.0,7.0,1651086899039395.0
0.0,11.0,17.0,-3.0,-5.0,0.0,-3.0,-1.0,1651086899039395.0
-6.0,-11.0,20.0,25.0,4.0,1.0,0.0,-12.0,1651086899039395.0
-4.0,-4.0,3.0,-13.0,-11.0,-8.0,-5.0,4.0,1651086899039395.0
0.0,11.0,28.0,3.0,0.0,2.0,-1.0,-5.0,1651086899062630.0
-3.0,-9.0,-26.0,-10.0,-8.0,-6.0,-1.0,5.0,1651086899062630.0
6.0,6.0,-6.0,8.0,4.0,2.0,-1.0,-8.0,1651086899062630.0
-2.0,-1.0,0.0,-7.0,6.0,1.0,2.0,-1.0,1651086899062630.0
1.0,3.0,30.0,23.0,-1.0,1.0,-2.0,-1.0,1651086899085229.0
1.0,-1.0,18.0,13.0,-1.0,-1.0,0.0,3.0,1651086899085229.0
-3.0,-3.0,-17.0,-26.0,-6.0,-3.0,-2.0,-2.0,1651086899085229.0
-1.0,-4.0,-4.0,0.0,-7.0,-5.0,-3.0,0.0,1651086899085229.0
-1.0,3.0,16.0,12.0,16.0,5.0,-1.0,-3.0,1651086899099446.0
1.0,-1.0,8.0,-5.0,-1.0,2.0,2.0,4.0,1651086899099446.0
-3.0,-6.0,-29.0,-6.0,-6.0,-4.0,-1.0,-7.0,1651086899099446.0
-3.0,-8.0,1.0,-9.0,-13.0,-7.0,0.0,3.0,1651086899099446.0
3.0,4.0,-8.0,13.0,6.0,-1.0,-3.0,-2.0,1651086899122209.0
-2.0,-4.0,4.0,3.0,2.0,-2.0,0.0,1.0,1651086899122209.0
1.0,4.0,8.0,-10.0,-19.0,-7.0,-3.0,-2.0,1651086899122209.0
3.0,12.0,14.0,10.0,46.0,18.0,5.0,2.0,1651086899122209.0
-4.0,-4.0,-10.0,-6.0,-13.0,-5.0,-3.0,0.0,1651086899153210.0
-1.0,-1.0,4.0,0.0,4.0,-2.0,-1.0,-1.0,1651086899153210.0
-2.0,2.0,8.0,3.0,-8.0,-4.0,-2.0,-4.0,1651086899153210.0
-2.0,0.0,-6.0,-2.0,-14.0,-4.0,0.0,1.0,1651086899153210.0
-2.0,3.0,-2.0,-16.0,-17.0,-3.0,-1.0,-4.0,1651086899159197.0
1.0,-3.0,7.0,5.0,22.0,12.0,4.0,4.0,1651086899159197.0
-1.0,-2.0,0.0,4.0,4.0,1.0,0.0,-2.0,1651086899160229.0
0.0,2.0,3.0,3.0,3.0,0.0,-1.0,1.0,1651086899160229.0
-1.0,-2.0,0.0,-2.0,-11.0,-8.0,-3.0,-1.0,1651086899181599.0
-2.0,6.0,-3.0,-16.0,-23.0,-11.0,-3.0,-1.0,1651086899181599.0
-1.0,-3.0,8.0,5.0,10.0,7.0,0.0,1.0,1651086899182559.0
1.0,4.0,1.0,4.0,1.0,-3.0,1.0,1.0,1651086899182559.0
-1.0,-10.0,-22.0,-13.0,1.0,0.0,0.0,-2.0,1651086899204362.0
-2.0,-8.0,13.0,7.0,-1.0,-3.0,-1.0,-1.0,1651086899204362.0
-3.0,6.0,10.0,15.0,6.0,1.0,0.0,0.0,1651086899205249.0
0.0,11.0,6.0,-10.0,-10.0,-3.0,-1.0,1.0,1651086899205249.0
1.0,-4.0,-3.0,2.0,6.0,2.0,-2.0,1.0,1651086899219229.0
0.0,-13.0,-6.0,1.0,-3.0,-1.0,1.0,2.0,1651086899219229.0
0.0,0.0,-2.0,-4.0,-4.0,-4.0,-2.0,-2.0,1651086899220260.0
-2.0,-7.0,3.0,-2.0,-1.0,1.0,-1.0,-2.0,1651086899220260.0
-1.0,3.0,0.0,3.0,4.0,2.0,0.0,-2.0,1651086899242003.0
3.0,12.0,6.0,-1.0,0.0,2.0,1.0,0.0,1651086899242003.0
0.0,-4.0,2.0,1.0,0.0,-1.0,-1.0,-1.0,1651086899242003.0
-1.0,-7.0,-6.0,5.0,4.0,3.0,1.0,1.0,1651086899242003.0
-1.0,-4.0,2.0,3.0,3.0,1.0,-1.0,-1.0,1651086899264825.0
0.0,2.0,0.0,-3.0,-6.0,-4.0,-1.0,1.0,1651086899264825.0
-1.0,-3.0,-6.0,-1.0,2.0,-1.0,-1.0,-2.0,1651086899265818.0
-1.0,1.0,-1.0,-2.0,-5.0,-4.0,-2.0,0.0,1651086899265818.0
-2.0,2.0,6.0,4.0,1.0,-1.0,-1.0,-2.0,1651086899278966.0
-3.0,-2.0,-4.0,-7.0,-4.0,-2.0,-2.0,-2.0,1651086899278966.0
2.0,-1.0,1.0,8.0,16.0,4.0,0.0,0.0,1651086899279966.0
-1.0,-12.0,-3.0,-9.0,-7.0,-5.0,-4.0,-1.0,1651086899279966.0
0.0,7.0,8.0,8.0,2.0,1.0,-1.0,-1.0,1651086899301999.0
0.0,-10.0,-14.0,-1.0,4.0,-2.0,-1.0,0.0,1651086899301999.0
-2.0,1.0,2.0,-1.0,-1.0,0.0,1.0,-1.0,1651086899301999.0
-1.0,8.0,-1.0,-1.0,-3.0,-1.0,-2.0,0.0,1651086899301999.0
-1.0,8.0,4.0,0.0,3.0,-1.0,0.0,-1.0,1651086899324210.0
-3.0,-18.0,-5.0,-5.0,-9.0,-2.0,-1.0,-1.0,1651086899324210.0
-1.0,5.0,1.0,-5.0,-4.0,-3.0,-1.0,1.0,1651086899325239.0
1.0,-4.0,1.0,9.0,6.0,2.0,1.0,0.0,1651086899325239.0
-1.0,-5.0,-2.0,-1.0,2.0,-1.0,-1.0,-1.0,1651086899339221.0
-2.0,4.0,1.0,-1.0,0.0,-1.0,-1.0,0.0,1651086899339221.0
-1.0,-1.0,-3.0,-2.0,-2.0,-2.0,0.0,1.0,1651086899339221.0
0.0,-1.0,0.0,-5.0,-6.0,-3.0,-1.0,-2.0,1651086899339221.0
0.0,-3.0,-3.0,0.0,2.0,-1.0,1.0,-1.0,1651086899369214.0
0.0,4.0,2.0,1.0,2.0,2.0,1.0,-1.0,1651086899369214.0
-1.0,-1.0,0.0,-3.0,1.0,2.0,1.0,0.0,1651086899370246.0
0.0,-4.0,-7.0,1.0,-5.0,-4.0,0.0,0.0,1651086899370246.0
-1.0,0.0,-1.0,-2.0,2.0,2.0,0.0,-1.0,1651086899392359.0
3.0,4.0,-1.0,1.0,-1.0,-4.0,-2.0,1.0,1651086899392359.0
-3.0,-2.0,-6.0,-13.0,-10.0,-2.0,-1.0,-1.0,1651086899393242.0
0.0,2.0,4.0,16.0,9.0,4.0,0.0,1.0,1651086899393242.0
0.0,-4.0,-5.0,-1.0,-4.0,-3.0,2.0,0.0,1651086899399348.0
-1.0,8.0,2.0,1.0,-1.0,0.0,-1.0,-2.0,1651086899399348.0
0.0,6.0,0.0,-2.0,-4.0,-1.0,-1.0,0.0,1651086899400226.0
-2.0,-15.0,4.0,-6.0,2.0,2.0,0.0,0.0,1651086899400226.0
2.0,9.0,-5.0,2.0,-4.0,-3.0,-1.0,1.0,1651086899422205.0
0.0,1.0,4.0,4.0,12.0,5.0,1.0,0.0,1651086899422205.0
0.0,-7.0,-3.0,9.0,3.0,-2.0,-1.0,-2.0,1651086899422205.0
0.0,10.0,4.0,-5.0,-1.0,-1.0,0.0,-2.0,1651086899422205.0
1.0,-11.0,-7.0,2.0,0.0,2.0,-1.0,0.0,1651086899444393.0
-2.0,-2.0,-1.0,-6.0,-7.0,-2.0,-2.0,-2.0,1651086899444393.0
2.0,4.0,-3.0,-2.0,2.0,-1.0,1.0,1.0,1651086899444393.0
-2.0,-6.0,0.0,-4.0,-3.0,-3.0,-1.0,-1.0,1651086899444393.0
0.0,2.0,6.0,-3.0,-1.0,-1.0,0.0,-1.0,1651086899460591.0
0.0,-3.0,-23.0,-1.0,-3.0,0.0,1.0,0.0,1651086899460591.0
1.0,4.0,14.0,7.0,5.0,2.0,-1.0,0.0,1651086899461420.0
2.0,1.0,-8.0,-3.0,-7.0,-5.0,-2.0,0.0,1651086899461420.0
-1.0,0.0,4.0,-3.0,1.0,2.0,-1.0,-1.0,1651086899482004.0
1.0,2.0,6.0,2.0,1.0,-1.0,-2.0,0.0,1651086899482004.0
-1.0,-6.0,-1.0,2.0,-1.0,-1.0,0.0,-2.0,1651086899482004.0
1.0,4.0,1.0,-2.0,-2.0,-1.0,0.0,0.0,1651086899482004.0
-1.0,2.0,-3.0,3.0,2.0,-2.0,-2.0,-1.0,1651086899504337.0
-1.0,-2.0,3.0,0.0,-1.0,1.0,0.0,0.0,1651086899504337.0
-2.0,-4.0,-4.0,-1.0,-3.0,-1.0,0.0,-1.0,1651086899505203.0
1.0,4.0,0.0,-5.0,-6.0,-1.0,-1.0,-2.0,1651086899505203.0
-1.0,-4.0,-4.0,0.0,7.0,-1.0,-1.0,-1.0,1651086899519609.0
-1.0,0.0,2.0,8.0,8.0,3.0,0.0,0.0,1651086899519609.0
0.0,-3.0,1.0,0.0,2.0,2.0,1.0,-2.0,1651086899519609.0
-1.0,-19.0,-5.0,5.0,2.0,0.0,-1.0,-1.0,1651086899519609.0
0.0,19.0,4.0,-6.0,-4.0,-3.0,-2.0,-1.0,1651086899542025.0
0.0,4.0,-3.0,1.0,-2.0,-3.0,-1.0,-2.0,1651086899542025.0
-1.0,-8.0,9.0,2.0,-1.0,-2.0,-1.0,0.0,1651086899542025.0
1.0,2.0,-8.0,-2.0,1.0,0.0,-1.0,0.0,1651086899542025.0
0.0,-8.0,-1.0,-4.0,-9.0,-1.0,-1.0,-2.0,1651086899564222.0
-2.0,-1.0,4.0,-1.0,2.0,0.0,0.0,0.0,1651086899564222.0
-2.0,4.0,-2.0,-5.0,-2.0,1.0,-1.0,-1.0,1651086899564222.0
-3.0,-1.0,1.0,-1.0,-1.0,0.0,1.0,0.0,1651086899564222.0
2.0,-5.0,1.0,2.0,0.0,-1.0,0.0,0.0,1651086899579601.0
0.0,0.0,-1.0,-3.0,-1.0,1.0,2.0,0.0,1651086899579601.0
0.0,-15.0,-2.0,0.0,0.0,-1.0,-2.0,-1.0,1651086899579601.0
-1.0,14.0,4.0,0.0,-1.0,-1.0,0.0,-3.0,1651086899579601.0
-1.0,-1.0,1.0,2.0,-2.0,0.0,0.0,-1.0,1651086899602505.0
-2.0,-1.0,-2.0,-6.0,-4.0,0.0,0.0,-3.0,1651086899602505.0
1.0,-3.0,-5.0,-2.0,-3.0,1.0,1.0,0.0,1651086899610212.0
-1.0,-4.0,4.0,-2.0,-1.0,1.0,1.0,0.0,1651086899610212.0
0.0,6.0,-6.0,-5.0,-11.0,-5.0,-1.0,-1.0,1651086899624221.0
1.0,-8.0,0.0,11.0,10.0,2.0,-1.0,0.0,1651086899624221.0
0.0,13.0,1.0,10.0,7.0,0.0,-1.0,-1.0,1651086899625248.0
-1.0,-4.0,-2.0,0.0,7.0,2.0,0.0,-1.0,1651086899625248.0
0.0,-1.0,-2.0,-8.0,-9.0,-2.0,0.0,0.0,1651086899638517.0
-1.0,-3.0,-3.0,-11.0,-12.0,-6.0,-1.0,1.0,1651086899638517.0
-1.0,2.0,-1.0,-4.0,-7.0,-3.0,-2.0,-1.0,1651086899639518.0
-1.0,1.0,-4.0,0.0,0.0,-1.0,-1.0,-1.0,1651086899639518.0
-2.0,-6.0,1.0,6.0,8.0,2.0,2.0,-1.0,1651086899671642.0
0.0,1.0,2.0,-6.0,-9.0,-4.0,-1.0,-2.0,1651086899671642.0
2.0,-14.0,-3.0,0.0,3.0,0.0,1.0,-1.0,1651086899671642.0
-1.0,20.0,3.0,-6.0,-5.0,-1.0,-2.0,-1.0,1651086899671642.0
-2.0,-4.0,0.0,3.0,0.0,0.0,0.0,0.0,1651086899684530.0
-1.0,1.0,-7.0,12.0,13.0,2.0,0.0,-1.0,1651086899684530.0
-2.0,8.0,6.0,-7.0,-9.0,-3.0,-2.0,0.0,1651086899684530.0
-2.0,-15.0,-13.0,2.0,3.0,1.0,0.0,-1.0,1651086899684530.0
1.0,9.0,0.0,0.0,3.0,0.0,-1.0,-1.0,1651086899698792.0
0.0,-3.0,2.0,-6.0,-7.0,-2.0,-1.0,0.0,1651086899698792.0
0.0,-1.0,-8.0,-2.0,0.0,0.0,-2.0,0.0,1651086899706167.0
0.0,-2.0,1.0,0.0,-3.0,-2.0,-1.0,1.0,1651086899706167.0
-1.0,3.0,4.0,-6.0,-6.0,-3.0,-1.0,1.0,1651086899721944.0
-1.0,-3.0,-6.0,-7.0,-2.0,0.0,0.0,-1.0,1651086899721944.0
1.0,-2.0,3.0,8.0,7.0,4.0,1.0,1.0,1651086899721944.0
0.0,-1.0,5.0,9.0,6.0,-2.0,-1.0,-2.0,1651086899721944.0
0.0,-4.0,-1.0,5.0,7.0,6.0,1.0,1.0,1651086899744288.0
2.0,5.0,5.0,-1.0,-6.0,-3.0,1.0,-1.0,1651086899744288.0
0.0,3.0,-3.0,-2.0,1.0,0.0,-1.0,-3.0,1651086899745210.0
1.0,4.0,9.0,-4.0,-5.0,1.0,0.0,1.0,1651086899745210.0
-3.0,-5.0,-1.0,-2.0,4.0,1.0,-2.0,-1.0,1651086899767641.0
0.0,-2.0,4.0,1.0,-4.0,0.0,-1.0,-2.0,1651086899767641.0
-3.0,-14.0,-17.0,-14.0,-11.0,-4.0,-1.0,0.0,1651086899767641.0
-1.0,11.0,3.0,10.0,7.0,1.0,0.0,-2.0,1651086899767641.0
-1.0,-5.0,-1.0,-1.0,4.0,0.0,0.0,0.0,1651086899781889.0
2.0,-1.0,-1.0,1.0,2.0,2.0,-1.0,1.0,1651086899781889.0
0.0,3.0,3.0,0.0,-3.0,-4.0,-1.0,-2.0,1651086899781889.0
-2.0,-7.0,-3.0,-3.0,-3.0,1.0,0.0,1.0,1651086899781889.0
0.0,-1.0,-6.0,0.0,-4.0,-2.0,-1.0,-1.0,1651086899804340.0
-1.0,-1.0,0.0,3.0,2.0,0.0,-2.0,1.0,1651086899804340.0
1.0,1.0,0.0,-2.0,-4.0,-2.0,-1.0,-1.0,1651086899804340.0
0.0,-3.0,-5.0,-4.0,-4.0,-4.0,-1.0,-1.0,1651086899804340.0
-1.0,7.0,0.0,-7.0,-7.0,-3.0,0.0,0.0,1651086899818846.0
-3.0,-22.0,0.0,1.0,-3.0,0.0,-2.0,-1.0,1651086899818846.0
1.0,21.0,-1.0,1.0,13.0,7.0,1.0,1.0,1651086899827094.0
0.0,0.0,5.0,12.0,9.0,1.0,0.0,0.0,1651086899827094.0
0.0,-10.0,-8.0,-1.0,2.0,2.0,-1.0,0.0,1651086899841212.0
1.0,6.0,3.0,-4.0,-4.0,-4.0,1.0,1.0,1651086899841212.0
-2.0,-5.0,3.0,-7.0,-9.0,-4.0,-2.0,-1.0,1651086899842209.0
-4.0,-9.0,-14.0,-8.0,-7.0,-1.0,-3.0,-2.0,1651086899842209.0
0.0,5.0,2.0,4.0,2.0,1.0,0.0,-1.0,1651086899864353.0
-1.0,1.0,-2.0,-2.0,-2.0,-2.0,-1.0,-1.0,1651086899864353.0
-1.0,-2.0,0.0,3.0,-3.0,-1.0,1.0,1.0,1651086899864353.0
1.0,-3.0,-3.0,-10.0,-4.0,-2.0,-2.0,-1.0,1651086899864353.0
-2.0,4.0,2.0,4.0,-8.0,-2.0,0.0,0.0,1651086899878843.0
-2.0,4.0,-4.0,2.0,8.0,1.0,0.0,-2.0,1651086899878843.0
0.0,-1.0,3.0,2.0,2.0,-1.0,0.0,0.0,1651086899887087.0
0.0,-4.0,0.0,-6.0,-12.0,-5.0,-2.0,-1.0,1651086899887087.0
-1.0,-6.0,-3.0,-5.0,0.0,-1.0,-1.0,0.0,1651086899901534.0
-1.0,1.0,-5.0,-1.0,-1.0,-2.0,1.0,-1.0,1651086899901534.0
2.0,16.0,15.0,3.0,0.0,1.0,-1.0,0.0,1651086899902392.0
-1.0,-7.0,-6.0,9.0,11.0,4.0,0.0,0.0,1651086899902392.0
2.0,1.0,6.0,11.0,12.0,2.0,0.0,-1.0,1651086899924202.0
0.0,2.0,-5.0,-1.0,-5.0,-2.0,-2.0,-2.0,1651086899924202.0
-1.0,-8.0,-7.0,3.0,-1.0,-1.0,1.0,0.0,1651086899924202.0
0.0,6.0,6.0,-9.0,-6.0,-2.0,0.0,-2.0,1651086899924202.0
-2.0,-1.0,2.0,-5.0,-4.0,1.0,-1.0,-1.0,1651086899947188.0
-2.0,-6.0,0.0,3.0,-1.0,-1.0,-1.0,-2.0,1651086899947188.0
-1.0,3.0,-6.0,-4.0,8.0,3.0,0.0,-1.0,1651086899948186.0
0.0,-2.0,2.0,1.0,-1.0,-1.0,-1.0,0.0,1651086899948186.0
2.0,-3.0,-4.0,-5.0,-5.0,-5.0,-1.0,0.0,1651086899961317.0
2.0,4.0,4.0,-6.0,2.0,5.0,0.0,-1.0,1651086899961317.0
-1.0,-9.0,-10.0,6.0,-1.0,-2.0,0.0,-1.0,1651086899962317.0
0.0,3.0,0.0,4.0,11.0,4.0,1.0,1.0,1651086899962317.0
-2.0,-7.0,0.0,-1.0,-7.0,-3.0,-1.0,-2.0,1651086899984358.0
0.0,6.0,1.0,-7.0,-6.0,-2.0,-1.0,1.0,1651086899984358.0
-4.0,-3.0,3.0,-2.0,-5.0,-4.0,-1.0,-2.0,1651086899984358.0
1.0,8.0,5.0,2.0,0.0,-1.0,0.0,-1.0,1651086899984358.0
-2.0,-9.0,-3.0,-7.0,-4.0,-2.0,0.0,-1.0,1651086900007567.0
0.0,12.0,-2.0,4.0,6.0,2.0,2.0,0.0,1651086900007567.0
-3.0,-8.0,-5.0,-4.0,-2.0,0.0,0.0,-2.0,1651086900007567.0
1.0,2.0,-2.0,-2.0,-8.0,-4.0,-3.0,-2.0,1651086900007567.0
0.0,-1.0,2.0,-1.0,1.0,3.0,0.0,1.0,1651086900021575.0
-1.0,-5.0,-8.0,3.0,3.0,-4.0,-1.0,-1.0,1651086900021575.0
0.0,1.0,-3.0,-3.0,-2.0,-2.0,-1.0,0.0,1651086900022564.0
-2.0,-7.0,-3.0,-7.0,-3.0,-1.0,0.0,-3.0,1651086900022564.0
0.0,2.0,1.0,1.0,-2.0,0.0,0.0,0.0,1651086900044470.0
-2.0,-6.0,-5.0,-7.0,-10.0,-4.0,-1.0,-2.0,1651086900044470.0
0.0,1.0,1.0,-2.0,-11.0,-7.0,-3.0,-2.0,1651086900044470.0
2.0,-6.0,2.0,22.0,44.0,20.0,7.0,2.0,1651086900044470.0
-1.0,12.0,5.0,0.0,-1.0,-1.0,0.0,0.0,1651086900074558.0
0.0,5.0,1.0,-2.0,0.0,-1.0,-2.0,0.0,1651086900074558.0
1.0,-1.0,-1.0,-5.0,-8.0,-3.0,-1.0,-1.0,1651086900075555.0
-3.0,-8.0,-1.0,-10.0,-16.0,-8.0,-3.0,-2.0,1651086900075555.0
1.0,-7.0,-5.0,4.0,7.0,0.0,-1.0,-1.0,1651086900082561.0
0.0,-3.0,2.0,-3.0,-2.0,-1.0,0.0,1.0,1651086900082561.0
-2.0,11.0,10.0,1.0,1.0,1.0,-1.0,-2.0,1651086900082561.0
0.0,-2.0,-3.0,-1.0,-1.0,-1.0,-2.0,0.0,1651086900082561.0
-1.0,6.0,0.0,5.0,7.0,5.0,2.0,0.0,1651086900104009.0
-3.0,-7.0,6.0,-3.0,-5.0,-3.0,-2.0,0.0,1651086900104009.0
1.0,-10.0,-15.0,2.0,3.0,0.0,0.0,0.0,1651086900105007.0
0.0,7.0,8.0,1.0,-2.0,-3.0,-1.0,-1.0,1651086900105007.0
0.0,-2.0,-10.0,-4.0,-2.0,-3.0,-1.0,-1.0,1651086900128220.0
1.0,2.0,1.0,-5.0,-6.0,-1.0,-1.0,-1.0,1651086900128220.0
-1.0,-4.0,3.0,7.0,13.0,5.0,0.0,-1.0,1651086900128220.0
0.0,3.0,3.0,-4.0,-5.0,-1.0,1.0,2.0,1651086900128220.0
-2.0,-1.0,-7.0,-11.0,-11.0,-4.0,-2.0,-2.0,1651086900141894.0
0.0,-3.0,2.0,12.0,9.0,2.0,1.0,1.0,1651086900141894.0
0.0,-16.0,2.0,-2.0,-6.0,-1.0,0.0,0.0,1651086900141894.0
-2.0,20.0,2.0,-4.0,-6.0,-5.0,-4.0,-1.0,1651086900141894.0
0.0,-8.0,-2.0,-6.0,-5.0,-1.0,0.0,0.0,1651086900163867.0
1.0,1.0,-2.0,-5.0,-1.0,0.0,0.0,0.0,1651086900163867.0
-3.0,1.0,7.0,9.0,4.0,-1.0,0.0,-1.0,1651086900164730.0
0.0,-4.0,0.0,-3.0,3.0,3.0,3.0,0.0,1651086900164730.0
0.0,-4.0,-7.0,6.0,5.0,2.0,-1.0,-1.0,1651086900188157.0
-2.0,-2.0,-1.0,-5.0,-6.0,-3.0,-2.0,-3.0,1651086900188157.0
2.0,7.0,7.0,-3.0,4.0,1.0,0.0,0.0,1651086900188157.0
0.0,-10.0,-10.0,1.0,-7.0,-4.0,-2.0,0.0,1651086900188157.0
-2.0,0.0,9.0,1.0,2.0,-3.0,-3.0,-1.0,1651086900202203.0
0.0,-5.0,-9.0,2.0,6.0,5.0,2.0,0.0,1651086900202203.0
-1.0,2.0,-1.0,-7.0,-9.0,-5.0,0.0,-1.0,1651086900202203.0
1.0,3.0,3.0,-5.0,-4.0,2.0,0.0,-2.0,1651086900202203.0
0.0,0.0,-2.0,10.0,6.0,0.0,-3.0,0.0,1651086900224217.0
0.0,-1.0,3.0,-1.0,-3.0,-4.0,-2.0,-2.0,1651086900224217.0
0.0,3.0,4.0,-3.0,0.0,1.0,2.0,-1.0,1651086900225262.0
-1.0,-3.0,-9.0,-3.0,-3.0,-2.0,-1.0,-1.0,1651086900225262.0
1.0,1.0,0.0,2.0,2.0,1.0,2.0,0.0,1651086900247379.0
-1.0,0.0,2.0,-3.0,4.0,1.0,-2.0,0.0,1651086900247379.0
0.0,8.0,3.0,6.0,-8.0,-3.0,-1.0,0.0,1651086900248247.0
-2.0,-8.0,-3.0,-4.0,3.0,1.0,1.0,1.0,1651086900248247.0
-1.0,1.0,0.0,1.0,-2.0,-1.0,-1.0,-1.0,1651086900261894.0
-1.0,-5.0,-4.0,-2.0,-5.0,-2.0,0.0,0.0,1651086900261894.0
1.0,-13.0,-2.0,2.0,5.0,0.0,-2.0,-2.0,1651086900261894.0
-2.0,15.0,-2.0,1.0,-1.0,-2.0,-1.0,0.0,1651086900261894.0
0.0,-9.0,-4.0,-2.0,1.0,-1.0,0.0,-2.0,1651086900284384.0
1.0,-4.0,-1.0,-4.0,-4.0,-2.0,0.0,-2.0,1651086900284384.0
-2.0,0.0,-8.0,-3.0,4.0,4.0,0.0,0.0,1651086900284384.0
