EMG_s0,EMG_s1,EMG_s2,EMG_s3,EMG_s4,EMG_s5,EMG_s6,EMG_s7,timestamp
0.0,0.0,-1.0,-1.0,-2.0,1.0,-1.0,-2.0,1651069708514810.0
-1.0,-2.0,-1.0,2.0,-1.0,-1.0,0.0,1.0,1651069708514810.0
-1.0,-1.0,-1.0,-2.0,-1.0,-2.0,1.0,-1.0,1651069708515810.0
1.0,1.0,-3.0,-1.0,-1.0,0.0,0.0,0.0,1651069708515810.0
-2.0,1.0,-1.0,0.0,2.0,2.0,0.0,1.0,1651069708520823.0
0.0,0.0,2.0,-5.0,-3.0,-3.0,1.0,-1.0,1651069708520823.0
-3.0,-1.0,0.0,1.0,-1.0,1.0,-1.0,-2.0,1651069708529572.0
0.0,-1.0,0.0,0.0,3.0,0.0,-2.0,0.0,1651069708529572.0
1.0,-1.0,-1.0,-3.0,-5.0,-1.0,0.0,0.0,1651069708544537.0
-2.0,0.0,-5.0,0.0,-1.0,-1.0,0.0,1.0,1651069708544537.0
0.0,-1.0,-4.0,0.0,1.0,-1.0,-1.0,-1.0,1651069708544537.0
-2.0,0.0,-1.0,2.0,3.0,2.0,0.0,0.0,1651069708544537.0
-1.0,0.0,4.0,1.0,-1.0,-2.0,0.0,-1.0,1651069708566700.0
0.0,0.0,2.0,-1.0,0.0,0.0,-2.0,-1.0,1651069708566700.0
-2.0,0.0,0.0,0.0,-1.0,-1.0,-1.0,-1.0,1651069708567658.0
-1.0,-2.0,-3.0,-1.0,-4.0,-2.0,-3.0,1.0,1651069708567658.0
0.0,0.0,-4.0,1.0,0.0,-1.0,-1.0,-1.0,1651069708581278.0
0.0,-1.0,-2.0,-3.0,-1.0,1.0,0.0,0.0,1651069708581278.0
0.0,1.0,1.0,-1.0,1.0,-1.0,-1.0,1.0,1651069708589606.0
0.0,-2.0,1.0,-2.0,-2.0,-1.0,-1.0,-2.0,1651069708589606.0
-1.0,-1.0,1.0,-1.0,-1.0,0.0,-3.0,0.0,1651069708604561.0
0.0,-1.0,-5.0,-1.0,0.0,0.0,1.0,-2.0,1651069708604561.0
0.0,-1.0,1.0,0.0,0.0,0.0,0.0,1.0,1651069708604561.0
0.0,2.0,-1.0,-1.0,-1.0,0.0,1.0,-1.0,1651069708604561.0
0.0,-1.0,1.0,0.0,-1.0,-2.0,0.0,-2.0,1651069708626428.0
-1.0,0.0,-1.0,1.0,2.0,1.0,0.0,-1.0,1651069708626428.0
-1.0,-1.0,0.0,-4.0,-6.0,-2.0,-1.0,1.0,1651069708627358.0
-1.0,0.0,0.0,-1.0,-3.0,0.0,0.0,-1.0,1651069708627358.0
-1.0,-1.0,-1.0,0.0,0.0,-1.0,-2.0,0.0,1651069708641328.0
-1.0,0.0,0.0,1.0,0.0,0.0,0.0,0.0,1651069708641328.0
0.0,-1.0,0.0,1.0,0.0,2.0,-1.0,-1.0,1651069708648610.0
0.0,0.0,3.0,-1.0,-2.0,-3.0,-2.0,-2.0,1651069708648610.0
1.0,-1.0,-1.0,0.0,3.0,3.0,1.0,0.0,1651069708664480.0
0.0,-1.0,1.0,0.0,-2.0,-3.0,-1.0,-1.0,1651069708664480.0
-1.0,0.0,1.0,0.0,0.0,-1.0,-1.0,0.0,1651069708664480.0
0.0,-1.0,1.0,-1.0,0.0,0.0,0.0,-1.0,1651069708664480.0
-2.0,-1.0,-2.0,-1.0,-1.0,0.0,-1.0,-1.0,1651069708686579.0
0.0,1.0,1.0,1.0,1.0,0.0,0.0,-2.0,1651069708686579.0
0.0,1.0,-2.0,-3.0,-5.0,-2.0,0.0,-1.0,1651069708687521.0
0.0,-1.0,-2.0,1.0,0.0,0.0,1.0,-1.0,1651069708687521.0
0.0,1.0,2.0,-2.0,0.0,-3.0,-1.0,0.0,1651069708701336.0
0.0,-3.0,-7.0,-3.0,2.0,-1.0,-2.0,1.0,1651069708701336.0
0.0,-1.0,5.0,-1.0,-5.0,-2.0,-1.0,-2.0,1651069708708643.0
-1.0,0.0,-1.0,-1.0,0.0,0.0,-2.0,1.0,1651069708708643.0
-3.0,-1.0,0.0,-1.0,0.0,2.0,1.0,0.0,1651069708723797.0
-1.0,0.0,-4.0,-1.0,-2.0,0.0,0.0,-2.0,1651069708723797.0
-1.0,-1.0,-3.0,1.0,2.0,-1.0,0.0,0.0,1651069708724796.0
0.0,1.0,0.0,1.0,0.0,-2.0,-1.0,-1.0,1651069708724796.0
-1.0,-3.0,-2.0,1.0,3.0,2.0,0.0,0.0,1651069708746550.0
1.0,1.0,3.0,-4.0,-8.0,-2.0,-2.0,-1.0,1651069708746550.0
-2.0,-1.0,-2.0,0.0,2.0,1.0,1.0,-1.0,1651069708747481.0
0.0,0.0,0.0,0.0,-2.0,0.0,0.0,-1.0,1651069708747481.0
-1.0,1.0,0.0,-1.0,0.0,0.0,-1.0,1.0,1651069708760513.0
-1.0,0.0,2.0,1.0,0.0,1.0,1.0,0.0,1651069708760513.0
-1.0,-2.0,-3.0,-1.0,1.0,-1.0,-2.0,0.0,1651069708769487.0
-1.0,-1.0,2.0,0.0,2.0,0.0,2.0,2.0,1651069708769487.0
0.0,-1.0,-2.0,0.0,-2.0,-1.0,-3.0,-1.0,1651069708784460.0
-1.0,0.0,1.0,0.0,-1.0,-1.0,-1.0,0.0,1651069708784460.0
-1.0,-1.0,1.0,0.0,-1.0,-2.0,1.0,-1.0,1651069708784460.0
0.0,1.0,3.0,0.0,0.0,1.0,-1.0,-1.0,1651069708784460.0
-2.0,-3.0,-4.0,-2.0,-2.0,-3.0,-1.0,-2.0,1651069708806752.0
0.0,-2.0,-1.0,-1.0,-2.0,-2.0,-1.0,0.0,1651069708806752.0
0.0,0.0,-1.0,0.0,2.0,1.0,-2.0,1.0,1651069708807691.0
1.0,0.0,-4.0,-2.0,-4.0,-3.0,0.0,0.0,1651069708807691.0
0.0,0.0,-2.0,-3.0,-2.0,-2.0,0.0,0.0,1651069708829691.0
-2.0,-2.0,0.0,1.0,2.0,1.0,0.0,0.0,1651069708829691.0
2.0,-2.0,-2.0,-2.0,-3.0,-2.0,-2.0,-2.0,1651069708830630.0
0.0,-1.0,0.0,-1.0,1.0,1.0,-1.0,0.0,1651069708830630.0
-1.0,0.0,-1.0,-1.0,-2.0,1.0,1.0,1.0,1651069708843677.0
0.0,0.0,2.0,0.0,0.0,0.0,-2.0,-1.0,1651069708843677.0
0.0,-1.0,-4.0,1.0,0.0,-2.0,-2.0,0.0,1651069708844676.0
-1.0,0.0,-2.0,-2.0,0.0,0.0,0.0,1.0,1651069708844676.0
0.0,-1.0,1.0,-1.0,-3.0,-2.0,-1.0,-2.0,1651069708866772.0
0.0,0.0,-1.0,-2.0,1.0,-1.0,-1.0,0.0,1651069708866772.0
-1.0,0.0,-2.0,-1.0,1.0,1.0,0.0,-2.0,1651069708867790.0
-2.0,-1.0,-2.0,0.0,-1.0,-2.0,0.0,-3.0,1651069708867790.0
1.0,1.0,0.0,-1.0,0.0,-1.0,0.0,-1.0,1651069708889777.0
1.0,-1.0,1.0,1.0,-1.0,1.0,0.0,-1.0,1651069708889777.0
0.0,0.0,-1.0,0.0,0.0,1.0,-1.0,1.0,1651069708890748.0
-2.0,-1.0,-2.0,0.0,0.0,-1.0,-3.0,-1.0,1651069708890748.0
0.0,-1.0,1.0,-1.0,1.0,0.0,0.0,1.0,1651069708912744.0
0.0,-1.0,0.0,1.0,-2.0,-1.0,0.0,1.0,1651069708912744.0
1.0,-1.0,-1.0,1.0,-1.0,-2.0,0.0,1.0,1651069708912744.0
-1.0,-1.0,0.0,0.0,-1.0,0.0,-1.0,0.0,1651069708912744.0
0.0,1.0,2.0,1.0,1.0,0.0,1.0,0.0,1651069708926874.0
-1.0,1.0,-3.0,-2.0,1.0,0.0,-2.0,0.0,1651069708926874.0
-1.0,-2.0,0.0,0.0,0.0,1.0,0.0,-2.0,1651069708926874.0
0.0,0.0,1.0,0.0,0.0,-2.0,-1.0,1.0,1651069708926874.0
-1.0,1.0,1.0,-1.0,-1.0,-3.0,0.0,-1.0,1651069708957421.0
0.0,-3.0,-5.0,1.0,0.0,0.0,0.0,-1.0,1651069708957421.0
-2.0,2.0,1.0,-1.0,0.0,0.0,1.0,0.0,1651069708958425.0
2.0,-1.0,-1.0,-1.0,1.0,2.0,-2.0,0.0,1651069708958425.0
-1.0,-1.0,-4.0,-3.0,-6.0,-3.0,-3.0,-1.0,1651069708972569.0
0.0,1.0,-3.0,-2.0,-2.0,-2.0,0.0,-1.0,1651069708972569.0
0.0,0.0,2.0,0.0,-1.0,-2.0,-2.0,1.0,1651069708973502.0
0.0,-1.0,0.0,-1.0,-1.0,-1.0,0.0,-3.0,1651069708973502.0
-1.0,-1.0,0.0,1.0,0.0,0.0,-2.0,1.0,1651069708986369.0
-1.0,0.0,-3.0,-2.0,-3.0,-3.0,1.0,-1.0,1651069708986369.0
1.0,1.0,-2.0,1.0,1.0,0.0,-2.0,-1.0,1651069708994509.0
2.0,1.0,1.0,-1.0,-1.0,-1.0,2.0,0.0,1651069708994509.0
1.0,-1.0,-2.0,0.0,1.0,0.0,-1.0,0.0,1651069709010259.0
-3.0,-2.0,1.0,-1.0,2.0,-1.0,-1.0,0.0,1651069709010259.0
0.0,0.0,-1.0,-1.0,1.0,-1.0,0.0,-2.0,1651069709010259.0
-2.0,-1.0,-1.0,-1.0,-1.0,0.0,-2.0,-1.0,1651069709010259.0
-1.0,-1.0,-3.0,-1.0,1.0,1.0,-1.0,-1.0,1651069709032309.0
1.0,0.0,0.0,-1.0,-2.0,-1.0,-1.0,0.0,1651069709032309.0
0.0,-1.0,-2.0,-1.0,-2.0,-2.0,0.0,-1.0,1651069709033287.0
-1.0,-2.0,0.0,2.0,1.0,-2.0,0.0,0.0,1651069709033287.0
2.0,-1.0,0.0,-1.0,0.0,-2.0,-1.0,0.0,1651069709046413.0
1.0,0.0,1.0,1.0,1.0,1.0,-2.0,-2.0,1651069709046413.0
-2.0,-2.0,-1.0,-2.0,-2.0,-2.0,-2.0,-1.0,1651069709054463.0
0.0,0.0,0.0,-2.0,-4.0,-2.0,1.0,-1.0,1651069709054463.0
-1.0,1.0,0.0,2.0,0.0,0.0,0.0,-1.0,1651069709069644.0
1.0,-2.0,-1.0,0.0,0.0,-1.0,0.0,0.0,1651069709069644.0
-1.0,-1.0,1.0,1.0,0.0,0.0,-1.0,-2.0,1651069709070588.0
1.0,-2.0,-2.0,0.0,1.0,1.0,3.0,-1.0,1651069709070588.0
0.0,-1.0,0.0,-1.0,-1.0,-2.0,-1.0,0.0,1651069709092634.0
-1.0,-2.0,-6.0,-2.0,-1.0,-2.0,0.0,-1.0,1651069709092634.0
0.0,-1.0,3.0,0.0,0.0,0.0,0.0,0.0,1651069709092634.0
-1.0,-1.0,-1.0,-2.0,-4.0,-2.0,-1.0,-1.0,1651069709092634.0
-1.0,-2.0,-2.0,0.0,-2.0,-2.0,-1.0,1.0,1651069709105539.0
-3.0,-2.0,-3.0,-1.0,-1.0,-1.0,-2.0,-1.0,1651069709105539.0
0.0,-2.0,-3.0,-1.0,3.0,0.0,1.0,0.0,1651069709114513.0
-1.0,0.0,1.0,-1.0,-4.0,-2.0,-2.0,1.0,1651069709114513.0
0.0,0.0,0.0,0.0,1.0,0.0,1.0,0.0,1651069709129486.0
0.0,1.0,1.0,0.0,0.0,-1.0,1.0,-1.0,1651069709129486.0
-2.0,-3.0,-4.0,-1.0,-2.0,-2.0,-1.0,-2.0,1651069709129486.0
-1.0,-1.0,-1.0,1.0,-1.0,-2.0,-1.0,-2.0,1651069709129486.0
-1.0,-1.0,-4.0,-3.0,-2.0,-4.0,0.0,-2.0,1651069709152556.0
-2.0,1.0,4.0,2.0,0.0,0.0,-1.0,0.0,1651069709152556.0
2.0,-1.0,0.0,-2.0,-2.0,1.0,0.0,0.0,1651069709152556.0
0.0,-1.0,-4.0,0.0,-1.0,2.0,-1.0,-1.0,1651069709152556.0
0.0,1.0,1.0,1.0,0.0,0.0,-2.0,-1.0,1651069709166284.0
0.0,0.0,-2.0,-4.0,-5.0,-2.0,0.0,-1.0,1651069709166284.0
0.0,0.0,-2.0,2.0,2.0,0.0,1.0,-2.0,1651069709173663.0
-1.0,0.0,-1.0,-2.0,-4.0,-3.0,-2.0,0.0,1651069709173663.0
-2.0,0.0,1.0,-1.0,1.0,3.0,-2.0,0.0,1651069709188741.0
-1.0,0.0,-5.0,-1.0,1.0,0.0,-2.0,1.0,1651069709188741.0
-1.0,0.0,-2.0,-1.0,-3.0,0.0,1.0,0.0,1651069709189734.0
-1.0,-1.0,-2.0,-1.0,2.0,-1.0,0.0,-2.0,1651069709189734.0
-1.0,1.0,3.0,2.0,-2.0,0.0,1.0,1.0,1651069709211861.0
1.0,-1.0,-1.0,-2.0,-2.0,-1.0,0.0,-2.0,1651069709211861.0
-1.0,-1.0,-1.0,-1.0,-4.0,-2.0,-1.0,1.0,1651069709212794.0
0.0,2.0,1.0,3.0,1.0,2.0,2.0,1.0,1651069709212794.0
0.0,-1.0,-3.0,-1.0,0.0,-2.0,-1.0,0.0,1651069709226336.0
0.0,0.0,1.0,0.0,-1.0,-2.0,-1.0,0.0,1651069709226336.0
-1.0,0.0,1.0,-1.0,-2.0,1.0,-1.0,-1.0,1651069709234250.0
-1.0,-1.0,0.0,0.0,-1.0,0.0,-3.0,0.0,1651069709234250.0
-1.0,1.0,0.0,-1.0,-1.0,1.0,0.0,-1.0,1651069709249459.0
0.0,0.0,0.0,1.0,3.0,0.0,0.0,0.0,1651069709249459.0
0.0,-1.0,0.0,-2.0,-1.0,-1.0,-1.0,0.0,1651069709249459.0
1.0,0.0,-1.0,-1.0,-2.0,-2.0,-1.0,1.0,1651069709249459.0
0.0,-4.0,-1.0,0.0,-1.0,-1.0,-2.0,-1.0,1651069709272507.0
-1.0,0.0,2.0,3.0,1.0,2.0,1.0,0.0,1651069709272507.0
0.0,0.0,0.0,-2.0,-1.0,-1.0,0.0,0.0,1651069709272507.0
-2.0,-1.0,0.0,-1.0,1.0,0.0,-1.0,-2.0,1651069709272507.0
0.0,-2.0,0.0,-1.0,-1.0,-2.0,0.0,-2.0,1651069709294831.0
0.0,-1.0,1.0,0.0,0.0,-1.0,-1.0,1.0,1651069709294831.0
-1.0,-1.0,-1.0,1.0,0.0,0.0,1.0,-2.0,1651069709295758.0
0.0,-1.0,6.0,3.0,3.0,0.0,-1.0,-1.0,1651069709295758.0
-1.0,2.0,0.0,-6.0,-8.0,-3.0,0.0,-1.0,1651069709308835.0
0.0,1.0,0.0,-1.0,0.0,-1.0,-1.0,-2.0,1651069709308835.0
0.0,0.0,3.0,2.0,-1.0,1.0,-1.0,0.0,1651069709323833.0
-1.0,-2.0,-4.0,-2.0,2.0,1.0,0.0,0.0,1651069709323833.0
-3.0,-2.0,-2.0,1.0,0.0,-2.0,-1.0,-2.0,1651069709332733.0
0.0,0.0,1.0,-1.0,-3.0,-3.0,-2.0,0.0,1651069709332733.0
0.0,-1.0,-1.0,-1.0,3.0,-1.0,-1.0,-1.0,1651069709332733.0
-1.0,-2.0,-2.0,-3.0,-3.0,-2.0,2.0,0.0,1651069709332733.0
0.0,1.0,-1.0,-1.0,-1.0,1.0,0.0,2.0,1651069709355159.0
-1.0,0.0,1.0,-1.0,-1.0,1.0,1.0,-1.0,1651069709355159.0
-2.0,0.0,-2.0,0.0,-1.0,-2.0,-1.0,0.0,1651069709355304.0
-1.0,0.0,-1.0,0.0,-1.0,-1.0,-1.0,1.0,1651069709355304.0
0.0,1.0,-1.0,0.0,-1.0,-2.0,0.0,-2.0,1651069709369379.0
0.0,0.0,-2.0,1.0,-2.0,-1.0,-2.0,0.0,1651069709369379.0
-1.0,-1.0,-2.0,-1.0,-3.0,-1.0,-1.0,0.0,1651069709369379.0
1.0,1.0,-3.0,1.0,1.0,2.0,-1.0,-2.0,1651069709369379.0
1.0,-1.0,6.0,3.0,2.0,0.0,-2.0,0.0,1651069709392646.0
-1.0,0.0,0.0,2.0,3.0,1.0,1.0,-1.0,1651069709392646.0
1.0,-1.0,-3.0,-6.0,-7.0,-2.0,0.0,0.0,1651069709392646.0
0.0,-1.0,-2.0,-2.0,-2.0,-2.0,0.0,-1.0,1651069709392646.0
0.0,-2.0,0.0,1.0,0.0,1.0,0.0,0.0,1651069709415292.0
-1.0,-2.0,-1.0,-1.0,-2.0,-3.0,0.0,0.0,1651069709415292.0
-1.0,2.0,1.0,1.0,1.0,1.0,1.0,0.0,1651069709415292.0
1.0,0.0,-1.0,2.0,1.0,-1.0,-2.0,0.0,1651069709415292.0
-1.0,0.0,-4.0,-4.0,-1.0,-4.0,-1.0,1.0,1651069709429323.0
-2.0,-1.0,1.0,-1.0,-11.0,-3.0,-1.0,-1.0,1651069709429323.0
-1.0,0.0,-2.0,-5.0,19.0,5.0,0.0,-2.0,1651069709430254.0
1.0,0.0,-1.0,0.0,13.0,14.0,3.0,-1.0,1651069709430254.0
0.0,1.0,-2.0,-6.0,-25.0,-26.0,-9.0,-3.0,1651069709452362.0
1.0,-1.0,-4.0,18.0,51.0,47.0,10.0,3.0,1651069709452362.0
0.0,0.0,7.0,6.0,-9.0,-11.0,-2.0,-1.0,1651069709453293.0
0.0,0.0,0.0,-12.0,5.0,2.0,0.0,-1.0,1651069709453293.0
1.0,1.0,3.0,9.0,-15.0,-4.0,2.0,0.0,1651069709474758.0
-3.0,-1.0,2.0,9.0,-30.0,-18.0,-4.0,-4.0,1651069709474758.0
2.0,1.0,-1.0,-4.0,11.0,8.0,1.0,2.0,1651069709475688.0
-2.0,-1.0,-1.0,24.0,0.0,1.0,3.0,0.0,1651069709475688.0
-3.0,-1.0,-4.0,-9.0,6.0,-5.0,-4.0,-1.0,1651069709488721.0
-1.0,-1.0,-1.0,-14.0,-19.0,-18.0,-6.0,-3.0,1651069709488721.0
-2.0,-1.0,0.0,-9.0,-43.0,4.0,2.0,2.0,1651069709489651.0
3.0,0.0,-3.0,-4.0,17.0,0.0,1.0,0.0,1651069709489651.0
2.0,-1.0,-4.0,4.0,15.0,7.0,-1.0,4.0,1651069709512604.0
0.0,-3.0,-4.0,0.0,8.0,1.0,5.0,11.0,1651069709512604.0
-2.0,-3.0,-8.0,-11.0,-9.0,-9.0,-1.0,-4.0,1651069709512604.0
2.0,3.0,0.0,-8.0,-21.0,-12.0,-7.0,-7.0,1651069709512604.0
0.0,-1.0,2.0,10.0,17.0,10.0,3.0,-5.0,1651069709534837.0
0.0,2.0,0.0,-5.0,8.0,0.0,-6.0,-5.0,1651069709534837.0
-5.0,-4.0,-2.0,2.0,-2.0,-10.0,-1.0,-2.0,1651069709535855.0
-1.0,-3.0,-1.0,-11.0,-35.0,-19.0,0.0,4.0,1651069709535855.0
-1.0,-2.0,-3.0,4.0,21.0,9.0,2.0,5.0,1651069709548906.0
2.0,4.0,7.0,14.0,32.0,24.0,-2.0,-3.0,1651069709548906.0
-2.0,-1.0,-2.0,3.0,-1.0,-16.0,-3.0,-5.0,1651069709549878.0
-5.0,-3.0,-3.0,3.0,13.0,9.0,-1.0,-10.0,1651069709549878.0
-1.0,-1.0,-3.0,-16.0,-9.0,6.0,-3.0,0.0,1651069709572029.0
5.0,2.0,3.0,8.0,-19.0,2.0,7.0,8.0,1651069709572029.0
1.0,-1.0,-3.0,6.0,8.0,3.0,3.0,-1.0,1651069709572959.0
-2.0,1.0,8.0,3.0,-1.0,-6.0,-10.0,-7.0,1651069709572959.0
-4.0,-5.0,-12.0,-16.0,-15.0,-9.0,3.0,-2.0,1651069709595131.0
-2.0,-6.0,-1.0,-13.0,-14.0,-12.0,-5.0,1.0,1651069709595131.0
1.0,0.0,2.0,-2.0,-21.0,-10.0,0.0,1.0,1651069709595131.0
-4.0,-3.0,-3.0,5.0,20.0,6.0,0.0,-2.0,1651069709595131.0
3.0,4.0,4.0,2.0,4.0,8.0,-3.0,3.0,1651069709609182.0
1.0,2.0,4.0,13.0,21.0,11.0,-3.0,-11.0,1651069709609182.0
0.0,1.0,-2.0,-5.0,8.0,-2.0,1.0,-2.0,1651069709610113.0
-8.0,-5.0,-5.0,-13.0,-31.0,-4.0,-3.0,0.0,1651069709610113.0
11.0,9.0,8.0,11.0,-3.0,3.0,13.0,20.0,1651069709632242.0
3.0,0.0,-7.0,-10.0,-30.0,-18.0,-4.0,-3.0,1651069709632242.0
-3.0,-1.0,8.0,7.0,46.0,12.0,-3.0,-3.0,1651069709633172.0
-13.0,-13.0,3.0,24.0,12.0,0.0,-8.0,-12.0,1651069709633172.0
21.0,19.0,17.0,10.0,22.0,21.0,20.0,22.0,1651069709654433.0
6.0,4.0,-17.0,-24.0,-40.0,-26.0,-10.0,-3.0,1651069709654433.0
-3.0,1.0,-7.0,-7.0,0.0,5.0,-3.0,0.0,1651069709655372.0
5.0,4.0,-2.0,-6.0,4.0,7.0,8.0,4.0,1651069709655372.0
-19.0,-18.0,11.0,18.0,14.0,2.0,-3.0,-19.0,1651069709669261.0
-10.0,-7.0,-5.0,-15.0,-22.0,-18.0,3.0,2.0,1651069709669261.0
10.0,1.0,-4.0,1.0,-2.0,3.0,1.0,5.0,1651069709669261.0
9.0,7.0,7.0,3.0,19.0,0.0,-7.0,2.0,1651069709669261.0
-7.0,-11.0,-1.0,0.0,-13.0,-8.0,-8.0,-10.0,1651069709692284.0
-2.0,6.0,11.0,11.0,35.0,25.0,3.0,-2.0,1651069709692284.0
-1.0,20.0,-3.0,11.0,11.0,12.0,6.0,3.0,1651069709693244.0
-3.0,-30.0,-25.0,-20.0,-25.0,-9.0,14.0,10.0,1651069709693244.0
9.0,20.0,1.0,-9.0,6.0,-3.0,1.0,2.0,1651069709715295.0
-15.0,-25.0,-3.0,-12.0,-22.0,-27.0,-28.0,-17.0,1651069709715295.0
16.0,13.0,15.0,27.0,27.0,38.0,11.0,10.0,1651069709716295.0
2.0,6.0,4.0,-1.0,-3.0,2.0,4.0,5.0,1651069709716295.0
-2.0,-5.0,2.0,-9.0,-2.0,-1.0,1.0,-7.0,1651069709728268.0
3.0,9.0,1.0,7.0,-5.0,-3.0,7.0,3.0,1651069709728268.0
-3.0,-1.0,12.0,-1.0,-4.0,-12.0,-11.0,-6.0,1651069709737170.0
9.0,8.0,-5.0,-3.0,-1.0,0.0,-3.0,5.0,1651069709737170.0
-17.0,-20.0,-17.0,3.0,-1.0,1.0,-2.0,-11.0,1651069709752350.0
8.0,2.0,1.0,-15.0,10.0,11.0,5.0,3.0,1651069709752350.0
-6.0,-8.0,-6.0,9.0,2.0,-12.0,-8.0,-4.0,1651069709754323.0
-9.0,-23.0,-2.0,-2.0,-16.0,2.0,-5.0,-17.0,1651069709754323.0
-8.0,-5.0,-16.0,-14.0,-22.0,-27.0,-5.0,3.0,1651069709774351.0
-1.0,-4.0,5.0,19.0,21.0,17.0,9.0,4.0,1651069709774351.0
0.0,-4.0,-5.0,-17.0,-39.0,-23.0,-9.0,14.0,1651069709776346.0
16.0,46.0,11.0,2.0,44.0,7.0,7.0,3.0,1651069709776346.0
-2.0,-21.0,-1.0,8.0,33.0,49.0,-8.0,-24.0,1651069709788328.0
10.0,-3.0,-11.0,1.0,-42.0,-26.0,11.0,13.0,1651069709788328.0
-8.0,1.0,-6.0,-24.0,-20.0,1.0,2.0,-3.0,1651069709797673.0
-23.0,-22.0,-6.0,-28.0,-64.0,-32.0,-14.0,-5.0,1651069709797673.0
26.0,36.0,29.0,27.0,72.0,25.0,14.0,19.0,1651069709812685.0
-9.0,-18.0,-2.0,47.0,55.0,18.0,11.0,7.0,1651069709812685.0
2.0,-19.0,-16.0,10.0,28.0,40.0,12.0,16.0,1651069709813681.0
2.0,23.0,3.0,-8.0,-16.0,-14.0,-2.0,-14.0,1651069709813681.0
-16.0,-21.0,-7.0,-21.0,-72.0,-36.0,-14.0,-7.0,1651069709834482.0
-5.0,6.0,0.0,-5.0,-11.0,-4.0,-15.0,-17.0,1651069709834482.0
-9.0,-36.0,-6.0,-20.0,-1.0,-17.0,-19.0,-20.0,1651069709836505.0
-5.0,-9.0,-14.0,-1.0,5.0,13.0,0.0,-5.0,1651069709836505.0
-6.0,0.0,11.0,-8.0,-1.0,-4.0,1.0,10.0,1651069709848453.0
1.0,6.0,-9.0,-3.0,11.0,-5.0,7.0,7.0,1651069709848453.0
-12.0,9.0,22.0,37.0,35.0,6.0,-2.0,-27.0,1651069709857422.0
4.0,4.0,-43.0,-80.0,-50.0,-23.0,-4.0,13.0,1651069709857422.0
0.0,-20.0,-9.0,33.0,10.0,4.0,-2.0,-3.0,1651069709872692.0
21.0,24.0,-11.0,-34.0,-39.0,-14.0,3.0,26.0,1651069709872692.0
-14.0,-37.0,-9.0,-12.0,-1.0,9.0,11.0,-6.0,1651069709873681.0
-10.0,-36.0,16.0,62.0,24.0,1.0,-12.0,-15.0,1651069709873681.0
-5.0,41.0,1.0,-7.0,-25.0,-10.0,4.0,-1.0,1651069709902574.0
-5.0,4.0,9.0,3.0,47.0,4.0,4.0,5.0,1651069709902574.0
0.0,1.0,-10.0,-15.0,-45.0,-36.0,-16.0,-1.0,1651069709903503.0
-6.0,-16.0,10.0,34.0,53.0,48.0,3.0,-32.0,1651069709903503.0
2.0,5.0,-17.0,14.0,-34.0,-33.0,3.0,24.0,1651069709908488.0
-7.0,-42.0,21.0,36.0,40.0,39.0,1.0,-6.0,1651069709908488.0
16.0,13.0,-22.0,-32.0,-23.0,-24.0,-8.0,13.0,1651069709917465.0
17.0,31.0,12.0,17.0,54.0,28.0,24.0,45.0,1651069709917465.0
19.0,36.0,2.0,-42.0,-34.0,-14.0,2.0,2.0,1651069709940295.0
-18.0,-17.0,4.0,23.0,26.0,6.0,4.0,-20.0,1651069709940295.0
-16.0,-17.0,-11.0,-13.0,-44.0,-39.0,-18.0,-21.0,1651069709941293.0
29.0,34.0,21.0,38.0,23.0,5.0,-2.0,20.0,1651069709941293.0
-15.0,-21.0,-9.0,-21.0,-26.0,-4.0,-5.0,4.0,1651069709955158.0
-18.0,7.0,-3.0,9.0,-7.0,-12.0,-26.0,-51.0,1651069709955158.0
24.0,-10.0,12.0,-14.0,-33.0,-9.0,-3.0,66.0,1651069709956313.0
-29.0,0.0,-14.0,-21.0,-56.0,-21.0,12.0,-22.0,1651069709956313.0
1.0,-37.0,10.0,21.0,82.0,37.0,18.0,-8.0,1651069709968670.0
30.0,11.0,-14.0,-24.0,-37.0,0.0,-1.0,43.0,1651069709968670.0
-47.0,-49.0,-3.0,7.0,-10.0,-14.0,-12.0,-61.0,1651069709977646.0
9.0,22.0,-6.0,-22.0,-40.0,-24.0,-16.0,0.0,1651069709977646.0
-7.0,6.0,10.0,76.0,33.0,19.0,-16.0,-15.0,1651069709992368.0
-1.0,-4.0,-18.0,-79.0,-23.0,-4.0,4.0,-26.0,1651069709992368.0
7.0,2.0,2.0,32.0,34.0,25.0,19.0,36.0,1651069709994297.0
18.0,47.0,25.0,-18.0,-47.0,-25.0,0.0,4.0,1651069709994297.0
-18.0,-42.0,-21.0,-3.0,-38.0,-10.0,-20.0,-59.0,1651069710015240.0
7.0,13.0,-6.0,10.0,39.0,10.0,-6.0,22.0,1651069710015240.0
-2.0,28.0,10.0,4.0,17.0,11.0,-3.0,-39.0,1651069710016238.0
-6.0,-11.0,32.0,17.0,30.0,4.0,13.0,21.0,1651069710016238.0
24.0,10.0,-22.0,-54.0,18.0,9.0,15.0,42.0,1651069710028234.0
-21.0,-7.0,9.0,8.0,-43.0,-16.0,6.0,-48.0,1651069710028234.0
38.0,36.0,18.0,16.0,18.0,2.0,19.0,73.0,1651069710037187.0
-9.0,-8.0,-39.0,-32.0,-29.0,-12.0,-14.0,-27.0,1651069710037187.0
-8.0,-4.0,27.0,41.0,19.0,3.0,-15.0,-24.0,1651069710053235.0
-9.0,-11.0,-23.0,-85.0,-28.0,-7.0,17.0,0.0,1651069710053235.0
-7.0,47.0,0.0,1.0,-17.0,-12.0,-6.0,-33.0,1651069710058247.0
-1.0,-17.0,-9.0,-12.0,13.0,-6.0,4.0,13.0,1651069710058247.0
-15.0,-28.0,-8.0,8.0,-35.0,-15.0,-31.0,-12.0,1651069710075190.0
37.0,55.0,29.0,26.0,-17.0,3.0,21.0,20.0,1651069710075190.0
9.0,14.0,-2.0,-8.0,-31.0,-5.0,9.0,8.0,1651069710076249.0
-20.0,-25.0,-14.0,-18.0,-14.0,-23.0,-16.0,-23.0,1651069710076249.0
47.0,69.0,13.0,26.0,92.0,59.0,49.0,76.0,1651069710088210.0
-1.0,-13.0,2.0,33.0,-29.0,-22.0,-27.0,-20.0,1651069710088210.0
-13.0,-22.0,-8.0,-47.0,22.0,-6.0,-21.0,-64.0,1651069710097251.0
-22.0,-22.0,2.0,63.0,34.0,41.0,17.0,41.0,1651069710097251.0
-10.0,-17.0,-16.0,-71.0,-44.0,-32.0,-20.0,-45.0,1651069710112014.0
30.0,56.0,16.0,-36.0,-31.0,-34.0,-16.0,38.0,1651069710112014.0
-3.0,0.0,-6.0,38.0,127.0,91.0,15.0,-31.0,1651069710118067.0
-1.0,-22.0,-9.0,-5.0,-27.0,-24.0,-25.0,17.0,1651069710118067.0
-16.0,12.0,0.0,-17.0,-10.0,-6.0,6.0,-17.0,1651069710135035.0
13.0,-16.0,20.0,29.0,28.0,22.0,2.0,23.0,1651069710135035.0
-20.0,-13.0,-22.0,-38.0,-66.0,-29.0,-13.0,-16.0,1651069710136122.0
12.0,6.0,14.0,-10.0,34.0,15.0,1.0,-42.0,1651069710136122.0
-4.0,-6.0,-6.0,13.0,-13.0,-5.0,17.0,66.0,1651069710148067.0
-13.0,-16.0,4.0,12.0,0.0,6.0,-4.0,-21.0,1651069710148067.0
-5.0,29.0,12.0,8.0,-23.0,-15.0,-23.0,-20.0,1651069710157362.0
18.0,-19.0,-6.0,34.0,71.0,33.0,26.0,27.0,1651069710157362.0
-11.0,-2.0,2.0,-12.0,-11.0,-29.0,-19.0,-45.0,1651069710179662.0
1.0,-18.0,-24.0,-26.0,-7.0,-6.0,8.0,72.0,1651069710179662.0
15.0,21.0,16.0,27.0,22.0,11.0,24.0,25.0,1651069710181633.0
-31.0,-8.0,-5.0,-21.0,-36.0,-32.0,-28.0,-70.0,1651069710181633.0
35.0,25.0,15.0,63.0,-4.0,8.0,11.0,38.0,1651069710194748.0
-20.0,-14.0,-4.0,-27.0,32.0,12.0,-9.0,-26.0,1651069710194748.0
28.0,26.0,-13.0,-6.0,24.0,10.0,13.0,31.0,1651069710196745.0
0.0,-27.0,20.0,23.0,-35.0,-7.0,20.0,25.0,1651069710196745.0
-31.0,-13.0,-29.0,-18.0,26.0,-27.0,-32.0,-50.0,1651069710217435.0
4.0,7.0,21.0,20.0,4.0,25.0,-9.0,-21.0,1651069710217435.0
-24.0,-9.0,-24.0,10.0,-13.0,-18.0,-6.0,-16.0,1651069710218367.0
-9.0,-35.0,-13.0,-22.0,-14.0,9.0,-9.0,-39.0,1651069710218367.0
8.0,-3.0,-17.0,-53.0,-35.0,-17.0,4.0,67.0,1651069710232520.0
-15.0,-1.0,8.0,30.0,1.0,10.0,9.0,-40.0,1651069710232520.0
16.0,21.0,21.0,28.0,4.0,-11.0,9.0,44.0,1651069710233470.0
-3.0,-14.0,7.0,2.0,-18.0,10.0,0.0,-11.0,1651069710233470.0
-9.0,5.0,1.0,8.0,69.0,26.0,0.0,-53.0,1651069710254744.0
-3.0,-6.0,-14.0,-8.0,-21.0,-15.0,-1.0,40.0,1651069710254744.0
7.0,-12.0,10.0,-5.0,-23.0,-15.0,9.0,26.0,1651069710261331.0
-18.0,44.0,16.0,-3.0,25.0,21.0,-17.0,-66.0,1651069710261331.0
53.0,14.0,9.0,-24.0,-58.0,-11.0,35.0,85.0,1651069710277095.0
-7.0,-8.0,0.0,50.0,13.0,15.0,8.0,-12.0,1651069710277095.0
-14.0,-23.0,-32.0,-22.0,-5.0,-3.0,-5.0,-16.0,1651069710279053.0
14.0,23.0,22.0,16.0,-3.0,-17.0,-10.0,-11.0,1651069710279053.0
-37.0,-42.0,-8.0,-28.0,-21.0,-14.0,-17.0,1.0,1651069710291993.0
5.0,16.0,4.0,-4.0,28.0,25.0,10.0,-20.0,1651069710291993.0
23.0,12.0,23.0,26.0,12.0,25.0,20.0,30.0,1651069710298039.0
3.0,-2.0,-20.0,-20.0,-35.0,-28.0,-6.0,29.0,1651069710298039.0
-21.0,10.0,12.0,21.0,-3.0,19.0,-7.0,-71.0,1651069710314419.0
-4.0,-20.0,-22.0,-8.0,-25.0,-37.0,-20.0,28.0,1651069710314419.0
4.0,3.0,23.0,-6.0,-11.0,25.0,1.0,-30.0,1651069710316347.0
0.0,3.0,-16.0,-23.0,9.0,-6.0,-4.0,0.0,1651069710316347.0
22.0,35.0,23.0,10.0,2.0,18.0,10.0,37.0,1651069710337668.0
-18.0,-19.0,-9.0,-10.0,-10.0,-10.0,-31.0,-28.0,1651069710337668.0
7.0,0.0,-8.0,-32.0,-20.0,-10.0,20.0,13.0,1651069710338667.0
-1.0,-16.0,-1.0,2.0,-2.0,-9.0,9.0,29.0,1651069710338667.0
5.0,20.0,9.0,-9.0,-23.0,-5.0,2.0,-7.0,1651069710351751.0
-3.0,4.0,-5.0,-7.0,51.0,7.0,-8.0,-27.0,1651069710351751.0
3.0,-8.0,10.0,29.0,8.0,10.0,3.0,17.0,1651069710353711.0
34.0,44.0,11.0,-16.0,23.0,34.0,18.0,46.0,1651069710353711.0
-11.0,-18.0,-4.0,3.0,-22.0,-18.0,5.0,-24.0,1651069710375169.0
11.0,4.0,-3.0,-19.0,-21.0,-2.0,10.0,25.0,1651069710375169.0
-6.0,5.0,8.0,-4.0,0.0,-6.0,-9.0,-30.0,1651069710376299.0
-17.0,-42.0,-29.0,4.0,22.0,-3.0,-5.0,-10.0,1651069710376299.0
-8.0,-9.0,-9.0,-22.0,-29.0,-9.0,-5.0,11.0,1651069710397432.0
8.0,7.0,17.0,14.0,2.0,-10.0,7.0,10.0,1651069710397432.0
8.0,-11.0,-24.0,-33.0,-9.0,20.0,3.0,14.0,1651069710398362.0
-3.0,4.0,4.0,28.0,0.0,-2.0,3.0,9.0,1651069710398362.0
-1.0,1.0,-12.0,0.0,11.0,-11.0,-18.0,-33.0,1651069710411394.0
-22.0,-2.0,9.0,39.0,16.0,22.0,10.0,-19.0,1651069710411394.0
9.0,-1.0,-2.0,-18.0,-10.0,-13.0,-12.0,21.0,1651069710418325.0
21.0,11.0,11.0,0.0,-20.0,16.0,35.0,41.0,1651069710418325.0
-11.0,-18.0,-14.0,5.0,34.0,3.0,-1.0,-9.0,1651069710435181.0
2.0,13.0,10.0,13.0,14.0,-4.0,0.0,-9.0,1651069710435181.0
-19.0,-23.0,-8.0,9.0,-4.0,-11.0,-28.0,-28.0,1651069710436318.0
6.0,12.0,-2.0,-9.0,-1.0,-3.0,2.0,9.0,1651069710436318.0
3.0,2.0,9.0,6.0,-10.0,7.0,7.0,-5.0,1651069710457760.0
12.0,1.0,-1.0,-12.0,-15.0,-6.0,0.0,19.0,1651069710457760.0
-11.0,9.0,7.0,9.0,9.0,-5.0,-9.0,-14.0,1651069710458753.0
-6.0,-8.0,-2.0,-3.0,-1.0,-1.0,-2.0,4.0,1651069710458753.0
-5.0,-10.0,-7.0,1.0,-5.0,-5.0,-1.0,-3.0,1651069710471808.0
-5.0,-1.0,0.0,0.0,14.0,9.0,12.0,-6.0,1651069710471808.0
-2.0,-1.0,-5.0,-6.0,1.0,-3.0,4.0,-5.0,1651069710478788.0
4.0,17.0,2.0,4.0,-13.0,-13.0,-8.0,-5.0,1651069710478788.0
-1.0,-12.0,1.0,2.0,-2.0,6.0,-5.0,1.0,1651069710494545.0
-4.0,-8.0,-13.0,-17.0,-13.0,-10.0,-10.0,-8.0,1651069710494545.0
-6.0,-9.0,0.0,7.0,8.0,3.0,0.0,-1.0,1651069710496539.0
3.0,0.0,5.0,2.0,-10.0,-3.0,-2.0,-3.0,1651069710496539.0
-1.0,-5.0,-1.0,3.0,8.0,3.0,-8.0,-4.0,1651069710517424.0
2.0,-2.0,-3.0,-3.0,-4.0,-3.0,5.0,3.0,1651069710517424.0
-4.0,-7.0,-2.0,1.0,-6.0,-1.0,2.0,-4.0,1651069710518368.0
-1.0,2.0,4.0,7.0,11.0,3.0,-10.0,2.0,1651069710518368.0
2.0,5.0,0.0,-6.0,-8.0,-5.0,-1.0,-1.0,1651069710531346.0
-1.0,-2.0,-5.0,-9.0,-9.0,-5.0,-5.0,-3.0,1651069710531346.0
-3.0,-4.0,13.0,16.0,15.0,3.0,2.0,2.0,1651069710538300.0
-5.0,-2.0,-21.0,-26.0,-7.0,0.0,-4.0,-4.0,1651069710538300.0
7.0,4.0,8.0,5.0,-4.0,3.0,5.0,1.0,1651069710554509.0
0.0,-7.0,-16.0,6.0,3.0,-5.0,-6.0,3.0,1651069710554509.0
0.0,7.0,20.0,-8.0,-23.0,-4.0,-4.0,-2.0,1651069710556464.0
-3.0,2.0,-4.0,9.0,7.0,7.0,17.0,11.0,1651069710556464.0
9.0,-4.0,-2.0,-8.0,25.0,12.0,7.0,1.0,1651069710577537.0
-9.0,7.0,-4.0,-24.0,-9.0,-4.0,-6.0,-7.0,1651069710577537.0
-4.0,-21.0,-75.0,-38.0,-31.0,-18.0,-1.0,3.0,1651069710578468.0
-16.0,-4.0,58.0,26.0,7.0,4.0,2.0,-9.0,1651069710578468.0
-1.0,4.0,19.0,23.0,-7.0,-5.0,-10.0,-4.0,1651069710590503.0
1.0,-5.0,-2.0,-5.0,4.0,2.0,15.0,6.0,1651069710590503.0
12.0,18.0,6.0,1.0,13.0,6.0,0.0,3.0,1651069710600414.0
-4.0,-20.0,-31.0,-30.0,-5.0,-5.0,-11.0,-5.0,1651069710600414.0
-1.0,-2.0,-2.0,30.0,12.0,4.0,2.0,4.0,1651069710614530.0
0.0,5.0,19.0,19.0,2.0,0.0,-3.0,0.0,1651069710614530.0
3.0,3.0,22.0,18.0,25.0,7.0,3.0,0.0,1651069710616484.0
2.0,1.0,-27.0,-58.0,-27.0,-9.0,-5.0,-10.0,1651069710616484.0
-6.0,-13.0,-12.0,38.0,-7.0,-2.0,12.0,17.0,1651069710637564.0
7.0,7.0,-1.0,73.0,33.0,10.0,1.0,-2.0,1651069710637564.0
-18.0,-3.0,16.0,17.0,19.0,2.0,-3.0,0.0,1651069710638494.0
6.0,0.0,-12.0,-4.0,12.0,-1.0,5.0,2.0,1651069710638494.0
-4.0,2.0,-22.0,-28.0,-8.0,3.0,-7.0,-9.0,1651069710650561.0
0.0,-4.0,-13.0,-50.0,-27.0,-5.0,3.0,-1.0,1651069710650561.0
17.0,9.0,39.0,-13.0,-27.0,-5.0,3.0,7.0,1651069710659474.0
2.0,14.0,21.0,107.0,40.0,6.0,-7.0,-1.0,1651069710659474.0
-14.0,-9.0,-19.0,-32.0,-3.0,1.0,4.0,-5.0,1651069710674500.0
-2.0,8.0,16.0,35.0,17.0,0.0,-2.0,0.0,1651069710674500.0
-1.0,-17.0,-26.0,-60.0,-29.0,-8.0,-10.0,-8.0,1651069710676454.0
26.0,35.0,2.0,3.0,-2.0,0.0,3.0,7.0,1651069710676454.0
-18.0,-2.0,30.0,39.0,11.0,2.0,1.0,-6.0,1651069710697434.0
0.0,-6.0,-8.0,-32.0,-2.0,0.0,-3.0,-4.0,1651069710697434.0
4.0,-6.0,-14.0,25.0,1.0,-1.0,2.0,3.0,1651069710698373.0
-6.0,-6.0,19.0,-12.0,-11.0,-3.0,-5.0,-1.0,1651069710698373.0
14.0,11.0,-14.0,-8.0,-1.0,-4.0,-4.0,-4.0,1651069710711358.0
-7.0,-24.0,-1.0,-30.0,1.0,4.0,3.0,2.0,1651069710711358.0
0.0,1.0,-11.0,15.0,-9.0,-4.0,0.0,-1.0,1651069710720307.0
-9.0,5.0,-5.0,-1.0,4.0,-6.0,-4.0,-3.0,1651069710720307.0
-7.0,-4.0,5.0,-31.0,2.0,1.0,-3.0,-3.0,1651069710735278.0
5.0,-13.0,-13.0,-54.0,-25.0,-11.0,-1.0,1.0,1651069710735278.0
-2.0,-1.0,2.0,2.0,7.0,5.0,6.0,2.0,1651069710736264.0
0.0,-4.0,6.0,4.0,-2.0,2.0,0.0,-4.0,1651069710736264.0
12.0,7.0,2.0,2.0,-6.0,-7.0,-3.0,5.0,1651069710757423.0
-3.0,-4.0,2.0,-4.0,-2.0,-1.0,-1.0,2.0,1651069710757423.0
1.0,13.0,9.0,37.0,13.0,0.0,0.0,-1.0,1651069710758354.0
-16.0,-19.0,-12.0,-15.0,2.0,2.0,-1.0,-1.0,1651069710758354.0
-3.0,-3.0,7.0,-27.0,-13.0,-4.0,-2.0,-5.0,1651069710771365.0
4.0,-3.0,-16.0,31.0,3.0,2.0,3.0,4.0,1651069710771365.0
-6.0,-10.0,-5.0,-3.0,4.0,-1.0,-1.0,-3.0,1651069710780297.0
1.0,2.0,3.0,3.0,1.0,-1.0,-1.0,0.0,1651069710780297.0
1.0,-4.0,-13.0,-25.0,-17.0,-6.0,0.0,1.0,1651069710795259.0
-2.0,5.0,17.0,25.0,1.0,-3.0,-3.0,-4.0,1651069710795259.0
-5.0,-2.0,-1.0,8.0,1.0,-1.0,0.0,-2.0,1651069710801306.0
0.0,-5.0,-10.0,-27.0,-2.0,2.0,0.0,1.0,1651069710801306.0
2.0,-1.0,5.0,10.0,2.0,-1.0,-2.0,-2.0,1651069710817263.0
2.0,8.0,0.0,4.0,-6.0,0.0,0.0,2.0,1651069710817263.0
-4.0,-2.0,0.0,-2.0,3.0,2.0,-1.0,-2.0,1651069710819239.0
5.0,0.0,5.0,11.0,1.0,2.0,0.0,0.0,1651069710819239.0
-1.0,-4.0,-13.0,-2.0,-2.0,-3.0,-2.0,-2.0,1651069710831162.0
-4.0,3.0,-12.0,-26.0,-10.0,-6.0,-2.0,-1.0,1651069710831162.0
0.0,-7.0,-14.0,0.0,5.0,1.0,-1.0,1.0,1651069710840135.0
0.0,3.0,30.0,6.0,0.0,0.0,-3.0,-2.0,1651069710840135.0
3.0,3.0,10.0,10.0,2.0,0.0,-1.0,-1.0,1651069710855254.0
-2.0,-4.0,-45.0,-33.0,-10.0,0.0,0.0,0.0,1651069710855254.0
-2.0,0.0,28.0,19.0,6.0,0.0,-1.0,0.0,1651069710856246.0
3.0,-7.0,-46.0,-6.0,-4.0,-3.0,-1.0,-2.0,1651069710856246.0
0.0,2.0,6.0,3.0,3.0,1.0,1.0,-2.0,1651069710877667.0
0.0,2.0,-6.0,8.0,3.0,2.0,0.0,2.0,1651069710877667.0
-2.0,-1.0,-3.0,-4.0,0.0,0.0,-3.0,-2.0,1651069710878673.0
-1.0,-2.0,-3.0,4.0,-2.0,-1.0,-3.0,1.0,1651069710878673.0
-1.0,-3.0,-10.0,2.0,-1.0,-4.0,-1.0,-1.0,1651069710891305.0
0.0,1.0,17.0,7.0,-1.0,0.0,-2.0,-1.0,1651069710891305.0
-1.0,-3.0,-3.0,-3.0,1.0,2.0,1.0,-2.0,1651069710899595.0
1.0,3.0,21.0,5.0,1.0,1.0,0.0,0.0,1651069710899595.0
-1.0,-5.0,-30.0,-13.0,-3.0,1.0,1.0,-2.0,1651069710914625.0
-1.0,8.0,49.0,19.0,3.0,-1.0,-3.0,-2.0,1651069710914625.0
-3.0,-4.0,-3.0,-8.0,-5.0,-2.0,0.0,0.0,1651069710916579.0
0.0,-2.0,-25.0,-13.0,-3.0,-2.0,-1.0,-1.0,1651069710916579.0
0.0,2.0,13.0,1.0,-2.0,-2.0,-3.0,-1.0,1651069710937517.0
0.0,0.0,-1.0,4.0,1.0,1.0,0.0,0.0,1651069710937517.0
1.0,-1.0,-8.0,1.0,1.0,-1.0,2.0,1.0,1651069710938500.0
0.0,-1.0,16.0,5.0,1.0,-2.0,-2.0,0.0,1651069710938500.0
1.0,9.0,29.0,1.0,-2.0,-1.0,0.0,-1.0,1651069710950458.0
-2.0,-2.0,2.0,3.0,-3.0,-2.0,-1.0,-1.0,1651069710950458.0
-2.0,1.0,-2.0,-7.0,-2.0,0.0,0.0,0.0,1651069710959502.0
2.0,-2.0,-1.0,-1.0,-2.0,-1.0,-1.0,-2.0,1651069710959502.0
-1.0,-1.0,3.0,-1.0,-2.0,0.0,0.0,1.0,1651069710973744.0
-2.0,-2.0,-4.0,2.0,1.0,-1.0,1.0,-1.0,1651069710973744.0
1.0,1.0,6.0,0.0,2.0,1.0,0.0,0.0,1651069710982687.0
-1.0,-3.0,-10.0,-5.0,-2.0,-1.0,0.0,1.0,1651069710982687.0
0.0,0.0,4.0,8.0,3.0,1.0,0.0,2.0,1651069710997777.0
2.0,0.0,-2.0,-6.0,-2.0,-1.0,0.0,-1.0,1651069710997777.0
-1.0,-1.0,8.0,6.0,0.0,0.0,-1.0,-1.0,1651069710998765.0
-2.0,0.0,-5.0,-1.0,1.0,1.0,-1.0,0.0,1651069710998765.0
-1.0,-1.0,2.0,-6.0,-4.0,-1.0,-1.0,-1.0,1651069711010799.0
-1.0,0.0,1.0,0.0,0.0,-1.0,0.0,1.0,1651069711010799.0
1.0,-2.0,1.0,-1.0,-1.0,0.0,-1.0,-2.0,1651069711019709.0
1.0,3.0,7.0,-5.0,0.0,2.0,1.0,1.0,1651069711019709.0
1.0,2.0,-5.0,1.0,-1.0,-1.0,-1.0,-2.0,1651069711034926.0
-2.0,-2.0,-6.0,0.0,-1.0,-1.0,0.0,-1.0,1651069711034926.0
-1.0,1.0,9.0,-2.0,-2.0,-1.0,-1.0,0.0,1651069711035953.0
1.0,0.0,7.0,0.0,-3.0,0.0,0.0,1.0,1651069711035953.0
-1.0,-2.0,-6.0,0.0,-1.0,0.0,0.0,-2.0,1651069711057177.0
0.0,0.0,-2.0,-2.0,1.0,-1.0,-1.0,0.0,1651069711057177.0
1.0,-4.0,-16.0,-4.0,0.0,0.0,0.0,0.0,1651069711059104.0
-1.0,-1.0,-4.0,2.0,0.0,-3.0,1.0,0.0,1651069711059104.0
-2.0,-1.0,-8.0,-2.0,-1.0,-2.0,-2.0,0.0,1651069711071212.0
1.0,0.0,16.0,4.0,0.0,1.0,1.0,-1.0,1651069711071212.0
0.0,1.0,-3.0,-2.0,1.0,0.0,0.0,1.0,1651069711080188.0
-1.0,0.0,0.0,1.0,-1.0,0.0,1.0,0.0,1651069711080188.0
0.0,-1.0,-3.0,-3.0,-1.0,0.0,-1.0,0.0,1651069711095294.0
0.0,-2.0,-8.0,-1.0,0.0,0.0,0.0,-2.0,1651069711095294.0
-1.0,0.0,-6.0,1.0,-1.0,0.0,-2.0,-1.0,1651069711096294.0
-2.0,0.0,12.0,-2.0,-3.0,-3.0,-2.0,-2.0,1651069711096294.0
-1.0,-2.0,-8.0,0.0,0.0,1.0,0.0,-1.0,1651069711117396.0
0.0,0.0,-4.0,-2.0,-2.0,-1.0,0.0,-1.0,1651069711117396.0
2.0,0.0,5.0,0.0,-2.0,-1.0,-1.0,-3.0,1651069711118328.0
1.0,-2.0,-9.0,-3.0,-1.0,0.0,1.0,-1.0,1651069711118328.0
-2.0,-2.0,0.0,-3.0,-1.0,0.0,1.0,0.0,1651069711131360.0
0.0,1.0,7.0,3.0,-2.0,1.0,-1.0,-1.0,1651069711131360.0
0.0,-1.0,-4.0,-1.0,-3.0,-2.0,-1.0,0.0,1651069711140405.0
-1.0,0.0,-2.0,-1.0,0.0,-2.0,0.0,-1.0,1651069711140405.0
1.0,-2.0,1.0,0.0,1.0,0.0,-1.0,1.0,1651069711154483.0
0.0,2.0,-3.0,-1.0,0.0,0.0,-1.0,0.0,1651069711154483.0
-1.0,1.0,-2.0,-1.0,2.0,1.0,0.0,2.0,1651069711156478.0
-1.0,-2.0,-5.0,-1.0,0.0,-1.0,-1.0,0.0,1651069711156478.0
-1.0,-2.0,14.0,3.0,-1.0,-2.0,-1.0,-1.0,1651069711177373.0
-1.0,0.0,-19.0,-7.0,-1.0,0.0,-2.0,0.0,1651069711177373.0
-1.0,-2.0,-3.0,-1.0,-1.0,-1.0,0.0,-1.0,1651069711178349.0
-1.0,-2.0,9.0,2.0,-1.0,1.0,0.0,1.0,1651069711178349.0
0.0,-1.0,-1.0,3.0,1.0,0.0,2.0,0.0,1651069711207698.0
0.0,-2.0,1.0,1.0,-2.0,-1.0,-1.0,-2.0,1651069711207698.0
-1.0,-2.0,-2.0,-2.0,0.0,-2.0,-2.0,-1.0,1651069711208667.0
0.0,-1.0,-1.0,1.0,-1.0,1.0,-1.0,-1.0,1651069711208667.0
0.0,-1.0,-7.0,-2.0,1.0,2.0,0.0,0.0,1651069711214678.0
-1.0,0.0,2.0,1.0,-2.0,-1.0,-1.0,1.0,1651069711214678.0
-1.0,-1.0,2.0,1.0,-2.0,-2.0,-1.0,0.0,1651069711216645.0
0.0,-1.0,-4.0,0.0,0.0,1.0,1.0,0.0,1651069711216645.0
-2.0,0.0,-1.0,-2.0,-2.0,-1.0,-3.0,-1.0,1651069711237589.0
-1.0,0.0,10.0,5.0,3.0,-1.0,1.0,-1.0,1651069711237589.0
-1.0,-1.0,-1.0,-4.0,0.0,-1.0,1.0,0.0,1651069711238601.0
-1.0,-2.0,-4.0,-1.0,-1.0,-2.0,-2.0,-1.0,1651069711238601.0
-1.0,1.0,-3.0,-1.0,0.0,-1.0,1.0,0.0,1651069711260123.0
-2.0,-1.0,2.0,-2.0,-7.0,-6.0,-4.0,-1.0,1651069711260123.0
-1.0,0.0,4.0,4.0,4.0,4.0,0.0,-1.0,1651069711261124.0
-2.0,0.0,-3.0,2.0,8.0,4.0,1.0,0.0,1651069711261124.0
0.0,0.0,1.0,1.0,-1.0,-2.0,-1.0,0.0,1651069711275290.0
-1.0,0.0,9.0,2.0,-2.0,-3.0,-1.0,0.0,1651069711275290.0
-1.0,-2.0,-10.0,-6.0,-7.0,-4.0,-2.0,-1.0,1651069711276293.0
1.0,3.0,-2.0,-3.0,-4.0,0.0,-1.0,-1.0,1651069711276293.0
-1.0,1.0,1.0,0.0,0.0,-3.0,-1.0,0.0,1651069711297292.0
0.0,-2.0,1.0,2.0,10.0,10.0,3.0,-1.0,1651069711297292.0
1.0,1.0,-2.0,-1.0,-3.0,-3.0,0.0,0.0,1651069711299263.0
-1.0,-1.0,-2.0,1.0,-2.0,-1.0,0.0,1.0,1651069711299263.0
-1.0,0.0,-4.0,-4.0,-4.0,-2.0,-3.0,-1.0,1651069711320147.0
-2.0,-2.0,-4.0,-2.0,-2.0,-4.0,-2.0,-1.0,1651069711320147.0
-1.0,0.0,1.0,-1.0,-2.0,0.0,-1.0,-2.0,1651069711321077.0
-1.0,0.0,-3.0,0.0,6.0,2.0,0.0,-1.0,1651069711321077.0
1.0,0.0,5.0,1.0,-1.0,-1.0,0.0,1.0,1651069711334501.0
0.0,-3.0,-10.0,-5.0,1.0,0.0,1.0,0.0,1651069711334501.0
2.0,2.0,7.0,-1.0,3.0,-1.0,-1.0,-1.0,1651069711340846.0
-1.0,-2.0,1.0,2.0,-4.0,-5.0,-1.0,0.0,1651069711340846.0
0.0,-1.0,-4.0,0.0,-1.0,2.0,-2.0,-2.0,1651069711357095.0
-1.0,0.0,-6.0,-2.0,1.0,0.0,0.0,0.0,1651069711357095.0
-1.0,0.0,0.0,-2.0,-2.0,-2.0,-1.0,-1.0,1651069711359022.0
-1.0,1.0,7.0,0.0,-4.0,-6.0,-3.0,-3.0,1651069711359022.0
-2.0,0.0,-4.0,-2.0,1.0,1.0,0.0,-1.0,1651069711380189.0
0.0,1.0,0.0,-1.0,-6.0,-2.0,0.0,1.0,1651069711380189.0
-1.0,-1.0,-3.0,1.0,3.0,3.0,0.0,1.0,1651069711381199.0
-1.0,-1.0,0.0,0.0,-1.0,-1.0,1.0,0.0,1651069711381199.0
0.0,-2.0,-3.0,1.0,5.0,4.0,1.0,-2.0,1651069711394257.0
2.0,0.0,3.0,-1.0,-6.0,-2.0,-1.0,0.0,1651069711394257.0
-1.0,-1.0,-3.0,-3.0,-1.0,-2.0,2.0,-1.0,1651069711401337.0
-1.0,-2.0,-4.0,-2.0,-4.0,-2.0,-2.0,-1.0,1651069711401337.0
0.0,-1.0,0.0,-2.0,-3.0,-1.0,1.0,1.0,1651069711417421.0
-2.0,0.0,2.0,0.0,-2.0,-3.0,-1.0,-1.0,1651069711417421.0
-1.0,-2.0,1.0,1.0,-5.0,-2.0,-2.0,-1.0,1651069711418362.0
1.0,-1.0,-26.0,-11.0,-2.0,0.0,-2.0,-1.0,1651069711418362.0
0.0,2.0,16.0,6.0,8.0,6.0,1.0,1.0,1651069711440188.0
-2.0,0.0,-2.0,-1.0,0.0,2.0,0.0,-2.0,1651069711440188.0
-1.0,-1.0,-4.0,-3.0,-3.0,-4.0,-1.0,0.0,1651069711441189.0
-1.0,-2.0,2.0,-2.0,-4.0,-3.0,-2.0,-2.0,1651069711441189.0
0.0,-1.0,-3.0,-4.0,-8.0,-5.0,-3.0,0.0,1651069711454077.0
0.0,-1.0,-6.0,-1.0,0.0,-1.0,0.0,-2.0,1651069711454077.0
-1.0,-2.0,-10.0,1.0,3.0,1.0,0.0,-1.0,1651069711461062.0
2.0,2.0,9.0,4.0,-1.0,1.0,-2.0,0.0,1651069711461062.0
0.0,0.0,-4.0,-1.0,-1.0,-3.0,-3.0,0.0,1651069711477100.0
1.0,0.0,3.0,-1.0,2.0,6.0,0.0,0.0,1651069711477100.0
-3.0,0.0,-6.0,-3.0,-1.0,2.0,-1.0,-1.0,1651069711479122.0
0.0,1.0,3.0,1.0,-2.0,-2.0,1.0,-1.0,1651069711479122.0
-1.0,-2.0,-4.0,-3.0,-3.0,-2.0,-1.0,0.0,1651069711499263.0
-1.0,-2.0,-3.0,0.0,-1.0,-3.0,-2.0,0.0,1651069711499263.0
0.0,-1.0,-3.0,-2.0,-1.0,0.0,0.0,0.0,1651069711501199.0
-1.0,-1.0,8.0,0.0,-2.0,-3.0,-2.0,-1.0,1651069711501199.0
0.0,-2.0,1.0,2.0,10.0,12.0,3.0,0.0,1651069711514253.0
-1.0,-5.0,-3.0,-1.0,1.0,0.0,0.0,-1.0,1651069711514253.0
-1.0,2.0,11.0,2.0,1.0,-1.0,-1.0,0.0,1651069711521237.0
0.0,1.0,1.0,-2.0,-4.0,-3.0,1.0,1.0,1651069711521237.0
-1.0,-1.0,-8.0,-3.0,-5.0,-4.0,-2.0,-2.0,1651069711537501.0
0.0,0.0,1.0,2.0,2.0,-2.0,-1.0,-1.0,1651069711537501.0
-1.0,-1.0,1.0,1.0,-1.0,-1.0,-1.0,-1.0,1651069711538442.0
-1.0,-2.0,-3.0,-2.0,0.0,0.0,-1.0,-1.0,1651069711538442.0
0.0,0.0,0.0,-1.0,-1.0,-3.0,-1.0,-1.0,1651069711567436.0
0.0,0.0,-4.0,0.0,0.0,0.0,-1.0,0.0,1651069711567436.0
1.0,-1.0,3.0,0.0,-3.0,-3.0,1.0,-1.0,1651069711568367.0
-2.0,-1.0,0.0,3.0,3.0,1.0,-1.0,-2.0,1651069711568367.0
0.0,0.0,6.0,0.0,-3.0,-2.0,-2.0,1.0,1651069711573379.0
1.0,1.0,2.0,0.0,3.0,-1.0,0.0,0.0,1651069711573379.0
-1.0,-3.0,-4.0,-3.0,-4.0,-2.0,-1.0,0.0,1651069711582329.0
-1.0,0.0,-1.0,0.0,2.0,0.0,2.0,0.0,1651069711582329.0
-1.0,0.0,-2.0,-1.0,-2.0,4.0,0.0,-1.0,1651069711597509.0
-1.0,0.0,5.0,3.0,1.0,-1.0,0.0,0.0,1651069711597509.0
-2.0,0.0,2.0,-3.0,-4.0,-1.0,-1.0,0.0,1651069711598452.0
1.0,0.0,-2.0,-1.0,-2.0,1.0,0.0,0.0,1651069711598452.0
-1.0,-2.0,-2.0,-1.0,-5.0,-6.0,-2.0,-3.0,1651069711620113.0
0.0,-1.0,-3.0,-3.0,-2.0,-4.0,-1.0,-1.0,1651069711620113.0
1.0,0.0,-2.0,0.0,5.0,5.0,2.0,-1.0,1651069711621082.0
1.0,-1.0,-3.0,0.0,3.0,3.0,-2.0,1.0,1651069711621082.0
-2.0,-2.0,-4.0,0.0,1.0,-3.0,0.0,-1.0,1651069711634505.0
-1.0,-1.0,-5.0,-2.0,-3.0,-2.0,0.0,0.0,1651069711634505.0
1.0,0.0,8.0,3.0,0.0,-2.0,-2.0,-1.0,1651069711641138.0
-1.0,0.0,10.0,2.0,-2.0,-3.0,0.0,-2.0,1651069711641138.0
0.0,-1.0,-13.0,-6.0,-5.0,-3.0,-1.0,0.0,1651069711657419.0
-2.0,0.0,0.0,-1.0,-1.0,3.0,0.0,0.0,1651069711657419.0
-2.0,-2.0,-8.0,-3.0,-3.0,0.0,1.0,0.0,1651069711658349.0
0.0,-1.0,2.0,0.0,-3.0,-3.0,0.0,-2.0,1651069711658349.0
0.0,0.0,1.0,1.0,3.0,1.0,0.0,1.0,1651069711680420.0
0.0,-1.0,1.0,-2.0,-5.0,-4.0,0.0,-1.0,1651069711680420.0
1.0,-2.0,0.0,0.0,0.0,-2.0,-1.0,0.0,1651069711681383.0
-1.0,-1.0,-5.0,-3.0,-1.0,3.0,0.0,0.0,1651069711681383.0
-1.0,0.0,2.0,1.0,0.0,0.0,2.0,0.0,1651069711693604.0
-2.0,-1.0,-6.0,-3.0,-1.0,1.0,0.0,0.0,1651069711693604.0
-1.0,-1.0,2.0,-3.0,-11.0,-6.0,-1.0,0.0,1651069711702582.0
-2.0,-3.0,-12.0,-3.0,6.0,-1.0,-2.0,-2.0,1651069711702582.0
-1.0,1.0,5.0,2.0,-1.0,-1.0,1.0,-1.0,1651069711717693.0
-1.0,1.0,3.0,-1.0,-2.0,1.0,-1.0,-2.0,1651069711717693.0
0.0,-2.0,-4.0,-2.0,-1.0,-2.0,-1.0,-1.0,1651069711718656.0
0.0,0.0,-1.0,-4.0,-14.0,-8.0,-1.0,-1.0,1651069711718656.0
-1.0,-1.0,0.0,1.0,3.0,-2.0,-1.0,-1.0,1651069711740187.0
0.0,-1.0,0.0,1.0,6.0,4.0,0.0,1.0,1651069711740187.0
-1.0,2.0,-1.0,1.0,4.0,1.0,-1.0,-1.0,1651069711741197.0
0.0,-2.0,-3.0,0.0,1.0,-1.0,-1.0,0.0,1651069711741197.0
0.0,0.0,1.0,1.0,-1.0,1.0,-2.0,0.0,1651069711762281.0
0.0,0.0,1.0,0.0,-8.0,-6.0,0.0,1.0,1651069711762281.0
-1.0,-3.0,-3.0,1.0,-1.0,-2.0,-2.0,-1.0,1651069711764240.0
0.0,0.0,4.0,2.0,6.0,7.0,0.0,2.0,1651069711764240.0
-2.0,-1.0,-2.0,-4.0,0.0,-1.0,-2.0,-2.0,1651069711777208.0
-1.0,-1.0,1.0,-2.0,-5.0,-9.0,-3.0,-2.0,1651069711777208.0
0.0,-1.0,13.0,5.0,2.0,8.0,4.0,1.0,1651069711779221.0
0.0,1.0,-18.0,-7.0,5.0,-6.0,0.0,0.0,1651069711779221.0
0.0,-2.0,1.0,2.0,-5.0,0.0,1.0,1.0,1651069711799731.0
1.0,0.0,-4.0,-2.0,3.0,6.0,-1.0,-1.0,1651069711799731.0
-1.0,-1.0,6.0,1.0,-1.0,-2.0,0.0,-2.0,1651069711801659.0
1.0,1.0,5.0,3.0,-3.0,-2.0,-2.0,0.0,1651069711801659.0
-1.0,-3.0,-5.0,-4.0,-4.0,-4.0,-1.0,1.0,1651069711813685.0
-2.0,-2.0,-1.0,0.0,-4.0,-6.0,-1.0,-3.0,1651069711813685.0
-1.0,1.0,-3.0,2.0,12.0,7.0,0.0,0.0,1651069711822603.0
1.0,-2.0,-1.0,-3.0,-2.0,1.0,-1.0,-1.0,1651069711822603.0
0.0,0.0,-1.0,-1.0,-9.0,-8.0,-4.0,-2.0,1651069711836788.0
-1.0,-1.0,1.0,-1.0,1.0,-4.0,-2.0,-2.0,1651069711836788.0
1.0,-3.0,-8.0,1.0,15.0,15.0,5.0,1.0,1651069711843772.0
-2.0,-1.0,1.0,1.0,-5.0,-3.0,0.0,0.0,1651069711843772.0
1.0,0.0,2.0,-3.0,2.0,0.0,-2.0,-1.0,1651069711860006.0
-1.0,0.0,0.0,-3.0,-12.0,-6.0,-3.0,-1.0,1651069711860006.0
0.0,0.0,-3.0,-8.0,-9.0,-9.0,-2.0,-2.0,1651069711860937.0
-1.0,-3.0,-1.0,2.0,5.0,5.0,1.0,-1.0,1651069711860937.0
-1.0,1.0,-2.0,0.0,-6.0,-1.0,-1.0,0.0,1651069711872972.0
0.0,0.0,1.0,3.0,14.0,10.0,5.0,1.0,1651069711872972.0
-2.0,-2.0,-5.0,-5.0,-14.0,-14.0,-6.0,-2.0,1651069711882681.0
-2.0,-1.0,3.0,-1.0,1.0,1.0,-2.0,-1.0,1651069711882681.0
0.0,0.0,4.0,7.0,8.0,1.0,2.0,0.0,1651069711897732.0
1.0,-1.0,-3.0,-1.0,1.0,-2.0,1.0,-1.0,1651069711897732.0
1.0,1.0,1.0,6.0,27.0,25.0,5.0,3.0,1651069711898708.0
-1.0,1.0,0.0,-2.0,-10.0,0.0,2.0,0.0,1651069711898708.0
-1.0,0.0,-3.0,-10.0,-11.0,-6.0,-3.0,-2.0,1651069711919850.0
-1.0,-2.0,-2.0,1.0,1.0,3.0,0.0,1.0,1651069711919850.0
-1.0,-1.0,1.0,-1.0,-8.0,-8.0,-4.0,-3.0,1651069711920781.0
0.0,0.0,0.0,6.0,9.0,13.0,-1.0,-1.0,1651069711920781.0
-2.0,-3.0,-5.0,-7.0,-6.0,-2.0,2.0,1.0,1651069711933745.0
2.0,0.0,3.0,5.0,7.0,14.0,3.0,2.0,1651069711933745.0
-3.0,-1.0,-1.0,-5.0,-8.0,-11.0,-2.0,0.0,1651069711942722.0
-2.0,-1.0,1.0,0.0,-2.0,-7.0,-1.0,-3.0,1651069711942722.0
0.0,1.0,-1.0,2.0,5.0,2.0,-1.0,-2.0,1651069711957359.0
-1.0,-1.0,-2.0,-1.0,-1.0,2.0,-1.0,-2.0,1651069711957359.0
2.0,-1.0,-2.0,-2.0,-14.0,-10.0,-3.0,-1.0,1651069711959292.0
-2.0,-1.0,2.0,-2.0,-3.0,-5.0,2.0,-2.0,1651069711959292.0
-1.0,-4.0,-9.0,-10.0,-13.0,-6.0,2.0,7.0,1651069711979432.0
3.0,0.0,0.0,4.0,3.0,-6.0,-2.0,4.0,1651069711979432.0
3.0,5.0,4.0,8.0,4.0,20.0,7.0,-4.0,1651069711981361.0
-4.0,-4.0,-1.0,-7.0,-9.0,-8.0,-1.0,0.0,1651069711981361.0
-1.0,-4.0,-5.0,-3.0,21.0,9.0,-4.0,-7.0,1651069711993439.0
-1.0,2.0,5.0,6.0,-1.0,-2.0,3.0,4.0,1651069711993439.0
0.0,-1.0,-2.0,-3.0,-6.0,-9.0,-5.0,1.0,1651069712002873.0
2.0,3.0,4.0,2.0,8.0,5.0,2.0,7.0,1651069712002873.0
2.0,0.0,5.0,1.0,-8.0,1.0,9.0,3.0,1651069712017540.0
1.0,0.0,-2.0,1.0,31.0,16.0,-7.0,-10.0,1651069712017540.0
-2.0,-2.0,-2.0,-3.0,-4.0,-7.0,-3.0,-3.0,1651069712018471.0
3.0,3.0,2.0,0.0,-6.0,-3.0,1.0,2.0,1651069712018471.0
0.0,-1.0,1.0,-5.0,1.0,6.0,1.0,1.0,1651069712039354.0
0.0,2.0,4.0,4.0,-5.0,-4.0,2.0,1.0,1651069712039354.0
6.0,6.0,8.0,8.0,7.0,4.0,5.0,5.0,1651069712041349.0
-3.0,-2.0,0.0,0.0,-13.0,-8.0,-5.0,-10.0,1651069712041349.0
-2.0,-2.0,-4.0,0.0,3.0,-3.0,-1.0,5.0,1651069712053800.0
-3.0,-1.0,-2.0,-12.0,-19.0,-6.0,-2.0,-9.0,1651069712053800.0
2.0,-2.0,-8.0,14.0,33.0,23.0,6.0,5.0,1651069712062060.0
2.0,0.0,-2.0,-10.0,-10.0,-8.0,0.0,5.0,1651069712062060.0
0.0,3.0,6.0,4.0,1.0,5.0,0.0,-2.0,1651069712077054.0
-3.0,-1.0,1.0,-6.0,-16.0,-7.0,-2.0,2.0,1651069712077054.0
-1.0,-2.0,-6.0,-16.0,-23.0,-22.0,-1.0,4.0,1651069712083071.0
-3.0,-2.0,-1.0,5.0,27.0,17.0,-8.0,-19.0,1651069712083071.0
-7.0,-3.0,1.0,10.0,13.0,5.0,0.0,-6.0,1651069712100031.0
3.0,1.0,-2.0,-10.0,-6.0,-9.0,-1.0,-1.0,1651069712100031.0
6.0,4.0,6.0,4.0,-5.0,-1.0,6.0,14.0,1651069712100963.0
-4.0,-7.0,-21.0,-16.0,-18.0,-18.0,-5.0,-1.0,1651069712100963.0
0.0,4.0,-3.0,4.0,-3.0,-5.0,-14.0,-11.0,1651069712122101.0
-6.0,-10.0,-1.0,1.0,11.0,5.0,-9.0,-7.0,1651069712122101.0
-6.0,-8.0,-11.0,-12.0,-3.0,2.0,11.0,0.0,1651069712124103.0
10.0,23.0,6.0,0.0,-6.0,10.0,4.0,5.0,1651069712124103.0
-1.0,-8.0,-7.0,-7.0,-7.0,-10.0,5.0,6.0,1651069712136178.0
-5.0,-4.0,1.0,-1.0,-10.0,-8.0,-8.0,-8.0,1651069712136178.0
-8.0,-4.0,6.0,9.0,11.0,-2.0,-7.0,-11.0,1651069712143161.0
0.0,-10.0,-6.0,-6.0,6.0,6.0,0.0,2.0,1651069712143161.0
0.0,7.0,7.0,3.0,-2.0,2.0,-3.0,-1.0,1651069712160114.0
-2.0,-5.0,-6.0,-1.0,3.0,-7.0,-2.0,1.0,1651069712160114.0
13.0,29.0,24.0,14.0,6.0,7.0,5.0,10.0,1651069712161052.0
-3.0,-17.0,-4.0,-3.0,-12.0,0.0,7.0,7.0,1651069712161052.0
10.0,7.0,2.0,5.0,8.0,-3.0,0.0,5.0,1651069712182712.0
-15.0,-15.0,-19.0,-10.0,-2.0,0.0,0.0,-12.0,1651069712182712.0
0.0,-20.0,4.0,3.0,-8.0,-3.0,-3.0,4.0,1651069712183683.0
1.0,17.0,5.0,4.0,-4.0,-9.0,-13.0,-11.0,1651069712183683.0
7.0,-8.0,8.0,1.0,18.0,22.0,12.0,11.0,1651069712195718.0
7.0,8.0,0.0,-1.0,1.0,3.0,19.0,11.0,1651069712195718.0
-10.0,-7.0,-15.0,-11.0,-20.0,-10.0,-7.0,-10.0,1651069712204676.0
-1.0,0.0,9.0,9.0,9.0,1.0,1.0,-2.0,1651069712204676.0
-5.0,-8.0,-8.0,0.0,1.0,1.0,-10.0,-4.0,1651069712220129.0
6.0,28.0,19.0,16.0,12.0,4.0,-2.0,-12.0,1651069712220129.0
-7.0,-17.0,-20.0,-23.0,-15.0,2.0,-5.0,-2.0,1651069712220903.0
1.0,-25.0,-3.0,9.0,12.0,3.0,9.0,8.0,1651069712220903.0
2.0,14.0,7.0,-8.0,-26.0,-14.0,3.0,6.0,1651069712242738.0
-5.0,-15.0,-7.0,-1.0,0.0,1.0,-3.0,-2.0,1651069712242738.0
-2.0,8.0,1.0,0.0,5.0,-3.0,-12.0,-9.0,1651069712243737.0
-6.0,4.0,-2.0,-3.0,-22.0,-15.0,-6.0,-6.0,1651069712243737.0
-8.0,-30.0,-18.0,-7.0,12.0,6.0,-4.0,-6.0,1651069712256370.0
-7.0,-8.0,-1.0,-14.0,-65.0,-30.0,-7.0,-3.0,1651069712256370.0
20.0,24.0,7.0,22.0,77.0,43.0,14.0,11.0,1651069712263866.0
-4.0,-5.0,-9.0,-10.0,-13.0,-3.0,-2.0,0.0,1651069712263866.0
-4.0,4.0,9.0,7.0,15.0,3.0,0.0,-8.0,1651069712280120.0
5.0,-2.0,-9.0,-17.0,-33.0,-21.0,-8.0,5.0,1651069712280120.0
-2.0,9.0,4.0,2.0,-9.0,-9.0,-3.0,-12.0,1651069712281121.0
-3.0,-4.0,-2.0,-3.0,19.0,16.0,-1.0,4.0,1651069712281121.0
-9.0,-6.0,-6.0,-15.0,-62.0,-32.0,-13.0,-14.0,1651069712302736.0
9.0,16.0,7.0,5.0,29.0,11.0,9.0,18.0,1651069712302736.0
8.0,23.0,7.0,7.0,6.0,1.0,5.0,1.0,1651069712303736.0
-8.0,-12.0,9.0,6.0,9.0,-12.0,-11.0,-5.0,1651069712303736.0
-4.0,-6.0,-12.0,-33.0,-43.0,-18.0,-6.0,-16.0,1651069712316768.0
-6.0,-10.0,-8.0,9.0,13.0,-11.0,-1.0,18.0,1651069712316768.0
-22.0,8.0,0.0,-14.0,21.0,13.0,-24.0,-51.0,1651069712323749.0
23.0,-2.0,-5.0,-25.0,-38.0,-19.0,16.0,43.0,1651069712323749.0
-8.0,-4.0,9.0,62.0,46.0,26.0,16.0,7.0,1651069712339651.0
13.0,-3.0,-6.0,-17.0,3.0,0.0,-2.0,9.0,1651069712339651.0
-7.0,-12.0,-1.0,5.0,-18.0,-19.0,-15.0,-14.0,1651069712341623.0
-7.0,-24.0,-33.0,-41.0,-22.0,-3.0,-25.0,-5.0,1651069712341623.0
-4.0,17.0,9.0,6.0,26.0,11.0,16.0,-4.0,1651069712362570.0
-8.0,-41.0,-2.0,21.0,25.0,18.0,7.0,-13.0,1651069712362570.0
-7.0,-25.0,10.0,-27.0,-35.0,-25.0,-2.0,5.0,1651069712363573.0
3.0,11.0,-5.0,30.0,-1.0,13.0,7.0,3.0,1651069712363573.0
25.0,27.0,22.0,37.0,15.0,-6.0,-19.0,10.0,1651069712375599.0
-19.0,17.0,-6.0,-16.0,-64.0,-11.0,19.0,-18.0,1651069712375599.0
12.0,0.0,11.0,-11.0,46.0,16.0,8.0,7.0,1651069712385344.0
7.0,38.0,6.0,-1.0,-27.0,-12.0,-9.0,14.0,1651069712385344.0
2.0,-50.0,0.0,-12.0,72.0,57.0,12.0,16.0,1651069712400543.0
2.0,20.0,2.0,18.0,-3.0,-7.0,-10.0,-21.0,1651069712400543.0
-16.0,-43.0,-17.0,1.0,-76.0,-38.0,-25.0,-14.0,1651069712401544.0
-2.0,17.0,9.0,-22.0,-49.0,3.0,32.0,-13.0,1651069712401544.0
30.0,34.0,17.0,-1.0,38.0,16.0,-7.0,36.0,1651069712422682.0
-9.0,-18.0,-4.0,-1.0,6.0,8.0,6.0,-18.0,1651069712422682.0
-19.0,-22.0,-24.0,-26.0,-18.0,-24.0,-15.0,-5.0,1651069712423679.0
13.0,17.0,7.0,-10.0,11.0,5.0,-17.0,-9.0,1651069712423679.0
30.0,75.0,29.0,46.0,20.0,21.0,62.0,41.0,1651069712435715.0
-10.0,-61.0,-9.0,-31.0,-11.0,-15.0,-18.0,1.0,1651069712435715.0
0.0,21.0,3.0,18.0,8.0,8.0,16.0,5.0,1651069712444751.0
-17.0,-4.0,16.0,53.0,-11.0,-2.0,-9.0,-19.0,1651069712444751.0
-4.0,6.0,-23.0,-52.0,-81.0,-50.0,-25.0,-48.0,1651069712459931.0
39.0,38.0,12.0,22.0,59.0,40.0,15.0,58.0,1651069712459931.0
-13.0,-21.0,-19.0,12.0,-21.0,-11.0,-8.0,-13.0,1651069712460889.0
-12.0,-18.0,2.0,-4.0,-26.0,-24.0,5.0,-3.0,1651069712460889.0
-27.0,-25.0,-16.0,-47.0,-81.0,-31.0,-18.0,-28.0,1651069712483257.0
15.0,37.0,27.0,34.0,59.0,35.0,8.0,7.0,1651069712483257.0
19.0,-4.0,6.0,29.0,42.0,14.0,12.0,46.0,1651069712485254.0
1.0,2.0,-8.0,0.0,45.0,13.0,0.0,-13.0,1651069712485254.0
-15.0,-13.0,-14.0,4.0,31.0,1.0,-25.0,-29.0,1651069712496291.0
-29.0,-22.0,-14.0,-10.0,-49.0,-33.0,-36.0,-15.0,1651069712496291.0
37.0,53.0,12.0,-25.0,-4.0,21.0,66.0,43.0,1651069712505361.0
4.0,-20.0,0.0,5.0,39.0,20.0,5.0,-12.0,1651069712505361.0
-15.0,-25.0,-9.0,0.0,-58.0,-18.0,-7.0,-6.0,1651069712520183.0
-19.0,2.0,-3.0,25.0,15.0,-1.0,-45.0,-11.0,1651069712520183.0
-6.0,-19.0,-8.0,-35.0,-19.0,1.0,42.0,5.0,1651069712521194.0
-4.0,4.0,8.0,-6.0,-18.0,-17.0,-28.0,-16.0,1651069712521194.0
-1.0,-17.0,-2.0,-16.0,29.0,6.0,-2.0,0.0,1651069712542723.0
-1.0,-8.0,-11.0,34.0,14.0,14.0,35.0,-10.0,1651069712542723.0
24.0,26.0,7.0,6.0,-49.0,-19.0,-32.0,78.0,1651069712543694.0
-3.0,-13.0,3.0,3.0,36.0,-1.0,-13.0,-17.0,1651069712543694.0
-17.0,5.0,-10.0,-17.0,17.0,7.0,-5.0,-32.0,1651069712555837.0
3.0,11.0,7.0,-2.0,-35.0,-23.0,-3.0,-7.0,1651069712555837.0
-16.0,-34.0,-1.0,4.0,39.0,9.0,-6.0,-21.0,1651069712564788.0
0.0,-4.0,-5.0,15.0,16.0,11.0,-2.0,-7.0,1651069712564788.0
6.0,10.0,-8.0,20.0,-6.0,-5.0,-4.0,21.0,1651069712579926.0
-19.0,3.0,4.0,-40.0,-20.0,-20.0,1.0,-33.0,1651069712579926.0
7.0,-27.0,-2.0,7.0,-8.0,-3.0,-11.0,-1.0,1651069712580887.0
9.0,31.0,16.0,52.0,24.0,27.0,19.0,34.0,1651069712580887.0
-21.0,-27.0,-1.0,-16.0,-26.0,-2.0,0.0,-24.0,1651069712601975.0
10.0,7.0,-1.0,27.0,-1.0,-8.0,3.0,32.0,1651069712601975.0
-29.0,-35.0,-12.0,-7.0,-17.0,-7.0,-10.0,-62.0,1651069712603904.0
-14.0,-9.0,-17.0,-4.0,21.0,15.0,-6.0,-19.0,1651069712603904.0
31.0,17.0,4.0,-3.0,-60.0,-29.0,8.0,51.0,1651069712616051.0
-3.0,29.0,6.0,-17.0,28.0,29.0,1.0,-1.0,1651069712616051.0
-15.0,4.0,9.0,15.0,-16.0,-10.0,-22.0,-54.0,1651069712624868.0
27.0,7.0,14.0,-1.0,-33.0,-5.0,16.0,38.0,1651069712624868.0
6.0,20.0,-7.0,-23.0,26.0,12.0,4.0,6.0,1651069712640006.0
-9.0,1.0,-5.0,-32.0,-17.0,-8.0,4.0,0.0,1651069712640006.0
10.0,18.0,12.0,74.0,76.0,40.0,19.0,15.0,1651069712640968.0
-36.0,-18.0,-31.0,-82.0,-55.0,-11.0,7.0,-66.0,1651069712640968.0
54.0,9.0,21.0,48.0,81.0,22.0,14.0,95.0,1651069712662065.0
18.0,19.0,-7.0,-45.0,-73.0,-32.0,-9.0,-21.0,1651069712662065.0
9.0,-5.0,-5.0,-5.0,-35.0,8.0,-18.0,-17.0,1651069712664083.0
15.0,26.0,24.0,18.0,86.0,30.0,45.0,35.0,1651069712664083.0
-25.0,-13.0,-15.0,-14.0,-70.0,-41.0,-24.0,-40.0,1651069712676301.0
-4.0,2.0,7.0,32.0,28.0,17.0,-3.0,4.0,1651069712676301.0
-7.0,-25.0,-13.0,-38.0,-48.0,-19.0,-2.0,-24.0,1651069712685312.0
0.0,32.0,24.0,20.0,38.0,5.0,-31.0,8.0,1651069712685312.0
9.0,-28.0,7.0,6.0,-57.0,-14.0,19.0,18.0,1651069712700276.0
-5.0,-23.0,-25.0,-23.0,25.0,20.0,12.0,-1.0,1651069712700276.0
-4.0,27.0,12.0,10.0,-8.0,-28.0,-22.0,-8.0,1651069712701300.0
9.0,2.0,0.0,33.0,22.0,0.0,-4.0,24.0,1651069712701300.0
-4.0,13.0,-4.0,-63.0,-85.0,-39.0,1.0,-35.0,1651069712722683.0
0.0,-19.0,11.0,40.0,37.0,41.0,-2.0,4.0,1651069712722683.0
-14.0,-6.0,5.0,-12.0,-3.0,-1.0,7.0,-30.0,1651069712723682.0
-21.0,-11.0,-7.0,24.0,34.0,-13.0,-16.0,-12.0,1651069712723682.0
19.0,8.0,-1.0,11.0,33.0,24.0,13.0,26.0,1651069712735873.0
-25.0,-28.0,-34.0,-21.0,-36.0,-18.0,-29.0,-38.0,1651069712735873.0
18.0,28.0,0.0,-31.0,6.0,-1.0,23.0,17.0,1651069712744625.0
-22.0,-38.0,-21.0,-16.0,-47.0,-29.0,-28.0,-7.0,1651069712744625.0
11.0,47.0,37.0,31.0,61.0,45.0,45.0,29.0,1651069712759365.0
14.0,6.0,14.0,47.0,6.0,9.0,-5.0,-26.0,1651069712759365.0
0.0,19.0,-10.0,-17.0,9.0,3.0,6.0,55.0,1651069712761292.0
-7.0,-1.0,-33.0,-65.0,-69.0,-31.0,-28.0,-44.0,1651069712761292.0
-20.0,-7.0,19.0,32.0,24.0,-6.0,-1.0,-22.0,1651069712782398.0
26.0,4.0,-1.0,-52.0,-21.0,22.0,23.0,58.0,1651069712782398.0
-22.0,-11.0,3.0,75.0,98.0,37.0,-16.0,-39.0,1651069712783407.0
23.0,3.0,12.0,-3.0,29.0,34.0,23.0,20.0,1651069712783407.0
-7.0,24.0,-1.0,-10.0,-3.0,-13.0,-19.0,-8.0,1651069712796383.0
-12.0,-34.0,-22.0,-22.0,-29.0,-33.0,-15.0,-47.0,1651069712796383.0
-5.0,-5.0,-12.0,-1.0,-56.0,-7.0,-11.0,45.0,1651069712804507.0
20.0,21.0,11.0,27.0,55.0,31.0,23.0,27.0,1651069712804507.0
-20.0,-50.0,1.0,43.0,-8.0,-7.0,12.0,-15.0,1651069712819468.0
20.0,28.0,8.0,-14.0,-30.0,-22.0,-2.0,22.0,1651069712819468.0
1.0,-9.0,-14.0,-44.0,3.0,-15.0,5.0,-15.0,1651069712821396.0
8.0,-19.0,-5.0,27.0,22.0,33.0,-1.0,24.0,1651069712821396.0
-10.0,-12.0,-2.0,15.0,7.0,7.0,-25.0,-37.0,1651069712842529.0
4.0,34.0,8.0,-9.0,1.0,-14.0,21.0,27.0,1651069712842529.0
6.0,-44.0,-2.0,19.0,18.0,17.0,38.0,12.0,1651069712843460.0
8.0,20.0,20.0,-4.0,-44.0,-31.0,-23.0,-3.0,1651069712843460.0
1.0,-4.0,-17.0,-10.0,31.0,10.0,-3.0,20.0,1651069712855494.0
-12.0,-9.0,5.0,23.0,21.0,5.0,-23.0,-34.0,1651069712855494.0
-3.0,16.0,-9.0,-34.0,-85.0,-51.0,-9.0,-32.0,1651069712865424.0
5.0,4.0,15.0,-28.0,-42.0,3.0,25.0,39.0,1651069712865424.0
-43.0,-18.0,-9.0,57.0,98.0,28.0,-24.0,-121.0,1651069712880194.0
12.0,-58.0,-18.0,-11.0,-10.0,-16.0,4.0,96.0,1651069712880194.0
28.0,43.0,9.0,-23.0,-40.0,1.0,-5.0,-8.0,1651069712881193.0
-20.0,-5.0,-8.0,-12.0,-5.0,-12.0,-6.0,-61.0,1651069712881193.0
5.0,-4.0,-12.0,-47.0,-65.0,-42.0,-14.0,42.0,1651069712910093.0
-9.0,-6.0,17.0,48.0,42.0,27.0,13.0,-28.0,1651069712910093.0
7.0,20.0,0.0,20.0,56.0,38.0,-11.0,19.0,1651069712911069.0
-9.0,-15.0,-17.0,-39.0,-59.0,-37.0,4.0,-34.0,1651069712911069.0
-10.0,-12.0,-17.0,0.0,6.0,16.0,-25.0,16.0,1651069712916076.0
-8.0,24.0,48.0,59.0,40.0,-1.0,13.0,-8.0,1651069712916076.0
12.0,-17.0,-35.0,-39.0,-14.0,4.0,12.0,28.0,1651069712925046.0
-27.0,-36.0,-33.0,-1.0,-58.0,-47.0,-15.0,-20.0,1651069712925046.0
15.0,-5.0,4.0,33.0,45.0,22.0,16.0,44.0,1651069712940001.0
-6.0,16.0,-7.0,-68.0,-83.0,-44.0,-25.0,-21.0,1651069712940001.0
31.0,53.0,62.0,44.0,40.0,35.0,-27.0,4.0,1651069712940989.0
-37.0,-26.0,-27.0,-20.0,16.0,11.0,-6.0,-59.0,1651069712940989.0
15.0,13.0,-17.0,-24.0,-11.0,-16.0,-16.0,9.0,1651069712961934.0
14.0,-17.0,-1.0,15.0,0.0,8.0,60.0,50.0,1651069712961934.0
-11.0,31.0,18.0,6.0,33.0,-16.0,-15.0,-37.0,1651069712963927.0
11.0,26.0,28.0,17.0,48.0,42.0,20.0,30.0,1651069712963927.0
8.0,9.0,9.0,-9.0,-91.0,-29.0,-17.0,-50.0,1651069712975902.0
14.0,19.0,0.0,47.0,92.0,51.0,10.0,37.0,1651069712975902.0
3.0,6.0,-2.0,-29.0,-29.0,-22.0,-5.0,16.0,1651069712984872.0
10.0,-32.0,8.0,10.0,25.0,6.0,-2.0,-33.0,1651069712984872.0
-27.0,-25.0,-4.0,12.0,-39.0,-23.0,9.0,50.0,1651069712999861.0
16.0,11.0,-8.0,-20.0,9.0,10.0,-2.0,-29.0,1651069712999861.0
6.0,1.0,10.0,22.0,-14.0,-19.0,-4.0,6.0,1651069713000861.0
-12.0,-7.0,-4.0,-4.0,-40.0,-21.0,13.0,17.0,1651069713000861.0
-4.0,7.0,-1.0,38.0,99.0,61.0,32.0,-38.0,1651069713021810.0
-10.0,-1.0,-22.0,-55.0,-56.0,-31.0,-19.0,-7.0,1651069713021810.0
20.0,0.0,15.0,44.0,43.0,17.0,26.0,80.0,1651069713023803.0
3.0,33.0,6.0,-15.0,-8.0,-12.0,-12.0,-54.0,1651069713023803.0
-17.0,-51.0,-9.0,-11.0,2.0,6.0,-8.0,24.0,1651069713035774.0
-9.0,-11.0,8.0,21.0,-1.0,12.0,-21.0,-31.0,1651069713035774.0
-21.0,-20.0,-27.0,-25.0,-33.0,-12.0,8.0,-38.0,1651069713044745.0
25.0,10.0,-2.0,14.0,11.0,4.0,-23.0,57.0,1651069713044745.0
4.0,12.0,-3.0,-43.0,-71.0,2.0,52.0,24.0,1651069713058606.0
6.0,15.0,20.0,47.0,40.0,9.0,-11.0,-27.0,1651069713058606.0
-40.0,-30.0,-5.0,-9.0,-18.0,-8.0,-22.0,-28.0,1651069713067583.0
12.0,-3.0,-13.0,2.0,-6.0,1.0,27.0,52.0,1651069713067583.0
-7.0,12.0,-6.0,-3.0,9.0,-13.0,-49.0,-47.0,1651069713082542.0
4.0,-1.0,14.0,-22.0,-28.0,-10.0,21.0,7.0,1651069713082542.0
8.0,-31.0,-4.0,28.0,71.0,34.0,14.0,25.0,1651069713083540.0
0.0,4.0,-8.0,-4.0,-26.0,-12.0,-1.0,-11.0,1651069713083540.0
5.0,15.0,4.0,-14.0,9.0,7.0,-6.0,-16.0,1651069713104483.0
-7.0,-5.0,-15.0,-38.0,0.0,-5.0,3.0,8.0,1651069713104483.0
-1.0,11.0,-3.0,-5.0,-16.0,3.0,6.0,-10.0,1651069713106483.0
-17.0,-26.0,-7.0,-5.0,-6.0,-10.0,-22.0,-17.0,1651069713106483.0
31.0,6.0,16.0,2.0,8.0,27.0,26.0,47.0,1651069713119444.0
-10.0,-4.0,-6.0,5.0,-1.0,-9.0,-16.0,-16.0,1651069713119444.0
0.0,6.0,-1.0,-4.0,-7.0,3.0,3.0,-8.0,1651069713121439.0
1.0,0.0,9.0,15.0,12.0,5.0,1.0,16.0,1651069713121439.0
-9.0,-3.0,-13.0,-20.0,-18.0,-18.0,-14.0,-25.0,1651069713142382.0
4.0,10.0,5.0,-10.0,-4.0,-2.0,-16.0,-1.0,1651069713142382.0
-5.0,-15.0,-31.0,-22.0,-22.0,-7.0,16.0,5.0,1651069713143380.0
9.0,19.0,32.0,24.0,7.0,10.0,22.0,24.0,1651069713143380.0
-4.0,-7.0,-4.0,-3.0,17.0,0.0,-22.0,-28.0,1651069713164323.0
-10.0,-19.0,-7.0,-7.0,-18.0,0.0,15.0,3.0,1651069713164323.0
20.0,23.0,2.0,8.0,1.0,-6.0,-15.0,12.0,1651069713166319.0
0.0,0.0,-7.0,-13.0,-7.0,-13.0,-17.0,-11.0,1651069713166319.0
1.0,-3.0,6.0,4.0,11.0,10.0,18.0,14.0,1651069713179288.0
-11.0,-6.0,-7.0,-8.0,0.0,1.0,-15.0,-18.0,1651069713179288.0
-8.0,-2.0,3.0,17.0,-7.0,-10.0,11.0,-9.0,1651069713181279.0
6.0,-3.0,-1.0,1.0,8.0,5.0,1.0,13.0,1651069713181279.0
-4.0,5.0,4.0,2.0,-14.0,-10.0,-22.0,-18.0,1651069713202361.0
9.0,5.0,-4.0,-13.0,-4.0,0.0,24.0,17.0,1651069713202361.0
-6.0,-6.0,-1.0,6.0,6.0,-7.0,-11.0,-13.0,1651069713203361.0
1.0,3.0,-8.0,6.0,9.0,5.0,3.0,4.0,1651069713203361.0
-4.0,0.0,6.0,1.0,-20.0,-16.0,-8.0,-9.0,1651069713224304.0
1.0,4.0,6.0,4.0,-3.0,10.0,-2.0,1.0,1651069713224304.0
-5.0,-6.0,-9.0,-4.0,-4.0,-4.0,-3.0,-7.0,1651069713231383.0
0.0,-4.0,-24.0,-7.0,8.0,10.0,8.0,-1.0,1651069713231383.0
-4.0,2.0,30.0,10.0,-11.0,-9.0,1.0,-1.0,1651069713239265.0
1.0,1.0,22.0,3.0,1.0,-7.0,-6.0,4.0,1651069713239265.0
-6.0,-6.0,-28.0,-23.0,-14.0,-7.0,-10.0,-7.0,1651069713246245.0
0.0,2.0,7.0,22.0,20.0,11.0,8.0,2.0,1651069713246245.0
-2.0,-3.0,-8.0,-9.0,6.0,-7.0,-10.0,-12.0,1651069713261886.0
10.0,10.0,-8.0,20.0,19.0,5.0,3.0,11.0,1651069713261886.0
4.0,-9.0,-32.0,-7.0,1.0,12.0,37.0,20.0,1651069713263881.0
-11.0,8.0,71.0,-14.0,-29.0,-6.0,7.0,0.0,1651069713263881.0
-5.0,-14.0,-22.0,-11.0,2.0,-4.0,-5.0,-2.0,1651069713284407.0
6.0,3.0,8.0,27.0,22.0,8.0,1.0,-1.0,1651069713284407.0
-5.0,2.0,-5.0,-2.0,-3.0,2.0,-14.0,-10.0,1651069713286291.0
3.0,0.0,-20.0,2.0,10.0,3.0,1.0,3.0,1651069713286291.0
7.0,9.0,22.0,16.0,3.0,2.0,17.0,7.0,1651069713299327.0
-11.0,-3.0,-1.0,-3.0,-1.0,-4.0,-10.0,-6.0,1651069713299327.0
3.0,-4.0,-12.0,-9.0,-14.0,-6.0,-5.0,-6.0,1651069713306297.0
-3.0,-9.0,-15.0,-15.0,-18.0,-10.0,-8.0,-3.0,1651069713306297.0
0.0,5.0,-2.0,13.0,16.0,5.0,-3.0,0.0,1651069713322724.0
0.0,-5.0,-1.0,-9.0,-15.0,-7.0,3.0,3.0,1651069713322724.0
-6.0,5.0,40.0,29.0,6.0,1.0,-8.0,-9.0,1651069713323720.0
-3.0,-2.0,-3.0,-20.0,2.0,-2.0,-15.0,-13.0,1651069713323720.0
6.0,4.0,-15.0,26.0,19.0,9.0,10.0,5.0,1651069713344449.0
-3.0,-1.0,-9.0,-12.0,-1.0,-3.0,4.0,8.0,1651069713344449.0
-14.0,-24.0,-7.0,-54.0,-41.0,-15.0,-14.0,-7.0,1651069713346446.0
2.0,5.0,-15.0,11.0,15.0,3.0,5.0,3.0,1651069713346446.0
22.0,13.0,-9.0,-41.0,-16.0,-4.0,-6.0,-5.0,1651069713358426.0
-18.0,-10.0,30.0,49.0,13.0,5.0,4.0,-1.0,1651069713358426.0
-2.0,4.0,4.0,0.0,3.0,-2.0,0.0,0.0,1651069713367391.0
-1.0,-14.0,-17.0,-20.0,-6.0,-5.0,-2.0,1.0,1651069713367391.0
-8.0,-5.0,-7.0,-24.0,-4.0,-2.0,-2.0,-4.0,1651069713382417.0
7.0,6.0,-25.0,-37.0,-8.0,-9.0,-12.0,-9.0,1651069713382417.0
4.0,2.0,1.0,38.0,18.0,4.0,3.0,4.0,1651069713383347.0
-7.0,-17.0,2.0,-1.0,-13.0,-1.0,4.0,2.0,1651069713383347.0
-1.0,10.0,8.0,5.0,-11.0,1.0,3.0,1.0,1651069713404291.0
0.0,-4.0,-20.0,-32.0,-21.0,-4.0,-6.0,-2.0,1651069713404291.0
5.0,8.0,34.0,26.0,12.0,0.0,1.0,0.0,1651069713406285.0
7.0,12.0,-13.0,-4.0,16.0,5.0,0.0,0.0,1651069713406285.0
-2.0,-2.0,0.0,-1.0,-7.0,-4.0,-4.0,-1.0,1651069713418258.0
-4.0,-4.0,8.0,-14.0,0.0,-1.0,-1.0,1.0,1651069713418258.0
0.0,-3.0,-19.0,17.0,-3.0,-2.0,-11.0,-11.0,1651069713427230.0
5.0,11.0,29.0,-7.0,4.0,4.0,15.0,14.0,1651069713427230.0
-3.0,-1.0,-11.0,-26.0,-4.0,-1.0,0.0,2.0,1651069713442247.0
4.0,6.0,-3.0,-4.0,8.0,5.0,1.0,-5.0,1651069713442247.0
-4.0,1.0,28.0,37.0,13.0,2.0,-2.0,-3.0,1651069713444236.0
4.0,0.0,-11.0,29.0,5.0,4.0,-2.0,-2.0,1651069713444236.0
-5.0,-9.0,-5.0,5.0,11.0,1.0,1.0,1.0,1651069713464302.0
0.0,-2.0,-24.0,-32.0,-17.0,-6.0,1.0,3.0,1651069713464302.0
-1.0,0.0,5.0,-30.0,-12.0,-3.0,-4.0,-3.0,1651069713466306.0
4.0,7.0,9.0,24.0,-1.0,1.0,-1.0,0.0,1651069713466306.0
-4.0,-6.0,-2.0,-1.0,4.0,2.0,5.0,4.0,1651069713479321.0
1.0,-4.0,-4.0,15.0,2.0,-2.0,-1.0,-4.0,1651069713479321.0
-2.0,1.0,0.0,-27.0,-8.0,0.0,0.0,1.0,1651069713486293.0
0.0,0.0,-16.0,-1.0,8.0,3.0,0.0,-2.0,1651069713486293.0
-1.0,-1.0,6.0,13.0,1.0,-1.0,1.0,-1.0,1651069713509421.0
0.0,2.0,15.0,23.0,0.0,0.0,1.0,1.0,1651069713509421.0
-4.0,-7.0,-23.0,-42.0,-6.0,-2.0,0.0,-4.0,1651069713511360.0
-1.0,1.0,8.0,-3.0,4.0,2.0,0.0,4.0,1651069713511360.0
-3.0,-3.0,5.0,10.0,-2.0,-2.0,-4.0,-5.0,1651069713524376.0
1.0,0.0,-6.0,1.0,-3.0,0.0,2.0,1.0,1651069713524376.0
-2.0,4.0,9.0,10.0,9.0,1.0,1.0,1.0,1651069713526306.0
-1.0,-5.0,-14.0,-18.0,-18.0,-8.0,-4.0,-5.0,1651069713526306.0
1.0,-3.0,-9.0,-17.0,-2.0,0.0,1.0,2.0,1651069713538282.0
0.0,8.0,16.0,34.0,9.0,2.0,-1.0,-2.0,1651069713538282.0
-2.0,-4.0,-7.0,-26.0,-5.0,-1.0,-1.0,-1.0,1651069713547260.0
0.0,-2.0,-2.0,-2.0,-2.0,-3.0,0.0,-2.0,1651069713547260.0
0.0,2.0,3.0,10.0,8.0,2.0,1.0,2.0,1651069713562661.0
3.0,2.0,-2.0,5.0,-4.0,0.0,-1.0,-1.0,1651069713562661.0
0.0,0.0,5.0,11.0,2.0,0.0,-1.0,-2.0,1651069713563654.0
-1.0,-2.0,-10.0,-25.0,-8.0,-2.0,1.0,-3.0,1651069713563654.0
-1.0,-1.0,-4.0,-7.0,-4.0,-1.0,0.0,1.0,1651069713585298.0
2.0,3.0,7.0,33.0,15.0,2.0,2.0,-1.0,1651069713585298.0
-3.0,-2.0,-9.0,-30.0,-15.0,-6.0,-1.0,-1.0,1651069713586298.0
0.0,1.0,10.0,19.0,11.0,3.0,-1.0,0.0,1651069713586298.0
0.0,1.0,3.0,2.0,-1.0,1.0,0.0,-2.0,1651069713598266.0
1.0,-4.0,-10.0,0.0,-1.0,-1.0,-1.0,-1.0,1651069713598266.0
-2.0,-4.0,-1.0,-3.0,-4.0,-3.0,-1.0,-1.0,1651069713607242.0
-2.0,0.0,3.0,12.0,1.0,-1.0,-1.0,-2.0,1651069713607242.0
-2.0,-1.0,2.0,-1.0,-5.0,-2.0,-1.0,-1.0,1651069713623200.0
-2.0,-4.0,-10.0,-13.0,-5.0,-2.0,-1.0,0.0,1651069713623200.0
1.0,4.0,6.0,12.0,6.0,4.0,0.0,-1.0,1651069713628186.0
0.0,2.0,15.0,19.0,1.0,-1.0,-3.0,-1.0,1651069713628186.0
-2.0,-5.0,-18.0,-21.0,-5.0,-2.0,2.0,-3.0,1651069713644698.0
-1.0,-2.0,-2.0,-11.0,-6.0,-3.0,1.0,1.0,1651069713644698.0
2.0,0.0,-19.0,-1.0,3.0,1.0,1.0,1.0,1651069713646661.0
-1.0,0.0,24.0,19.0,3.0,1.0,1.0,-2.0,1651069713646661.0
0.0,0.0,5.0,7.0,7.0,-1.0,0.0,2.0,1651069713658634.0
-2.0,-2.0,4.0,-11.0,-4.0,-1.0,-2.0,-1.0,1651069713658634.0
0.0,-1.0,3.0,13.0,1.0,0.0,0.0,1.0,1651069713667608.0
0.0,2.0,-11.0,-9.0,0.0,0.0,-1.0,0.0,1651069713667608.0
-1.0,-3.0,11.0,10.0,0.0,-1.0,0.0,-1.0,1651069713682569.0
-2.0,-5.0,-17.0,-9.0,0.0,-2.0,0.0,-1.0,1651069713682569.0
-1.0,1.0,9.0,5.0,-2.0,-2.0,-1.0,-1.0,1651069713683579.0
1.0,3.0,7.0,-5.0,0.0,-1.0,-1.0,2.0,1651069713683579.0
-1.0,-1.0,6.0,11.0,0.0,0.0,-1.0,-1.0,1651069713704578.0
-1.0,2.0,-10.0,-20.0,-3.0,-2.0,-1.0,-2.0,1651069713704578.0
-1.0,-2.0,3.0,9.0,2.0,0.0,0.0,0.0,1651069713706532.0
-2.0,-4.0,-17.0,-12.0,-6.0,-2.0,0.0,-1.0,1651069713706532.0
-2.0,-5.0,-32.0,-7.0,-1.0,-1.0,-4.0,-1.0,1651069713718474.0
-1.0,2.0,37.0,9.0,-1.0,0.0,-2.0,-1.0,1651069713718474.0
-1.0,3.0,23.0,3.0,-1.0,-1.0,-2.0,-1.0,1651069713727450.0
2.0,1.0,-3.0,-5.0,2.0,1.0,0.0,0.0,1651069713727450.0
1.0,-4.0,-9.0,-5.0,1.0,-1.0,0.0,-1.0,1651069713742457.0
-2.0,-7.0,-26.0,-7.0,-4.0,1.0,1.0,1.0,1651069713742457.0
-2.0,0.0,-5.0,-1.0,-1.0,0.0,-1.0,0.0,1651069713743467.0
0.0,3.0,18.0,5.0,1.0,-1.0,-1.0,1.0,1651069713743467.0
-1.0,1.0,8.0,0.0,-3.0,0.0,1.0,0.0,1651069713764562.0
-2.0,-2.0,0.0,1.0,0.0,0.0,-2.0,0.0,1651069713764562.0
0.0,-3.0,-5.0,-2.0,-1.0,-1.0,2.0,0.0,1651069713766558.0
0.0,-1.0,-5.0,3.0,2.0,-1.0,0.0,-1.0,1651069713766558.0
1.0,3.0,-1.0,-3.0,-2.0,-1.0,-1.0,0.0,1651069713778525.0
1.0,1.0,3.0,3.0,-1.0,0.0,0.0,0.0,1651069713778525.0
-2.0,-3.0,-21.0,-7.0,0.0,2.0,-1.0,0.0,1651069713787501.0
0.0,-3.0,-4.0,-2.0,-2.0,-1.0,0.0,-2.0,1651069713787501.0
0.0,2.0,-6.0,-4.0,-3.0,0.0,-1.0,-2.0,1651069713802529.0
-2.0,0.0,8.0,3.0,-1.0,-1.0,0.0,-2.0,1651069713802529.0
0.0,-4.0,-16.0,-3.0,-2.0,-2.0,-1.0,1.0,1651069713803468.0
1.0,0.0,11.0,1.0,2.0,2.0,0.0,0.0,1651069713803468.0
-2.0,-1.0,2.0,0.0,-2.0,-2.0,1.0,0.0,1651069713824637.0
-1.0,0.0,-5.0,-3.0,-3.0,-1.0,-3.0,-2.0,1651069713824637.0
0.0,0.0,-1.0,0.0,-1.0,1.0,-2.0,-1.0,1651069713826665.0
-1.0,0.0,-10.0,-1.0,-1.0,0.0,-1.0,0.0,1651069713826665.0
-2.0,0.0,2.0,1.0,7.0,3.0,0.0,1.0,1651069713838718.0
0.0,-1.0,3.0,-1.0,-3.0,-2.0,0.0,-2.0,1651069713838718.0
0.0,-1.0,5.0,-1.0,0.0,-2.0,-1.0,-1.0,1651069713847804.0
-2.0,-4.0,-7.0,0.0,0.0,3.0,1.0,-1.0,1651069713847804.0
-1.0,2.0,23.0,5.0,-1.0,-1.0,0.0,-1.0,1651069713869813.0
1.0,-1.0,-9.0,-3.0,-1.0,-1.0,0.0,2.0,1651069713869813.0
0.0,1.0,27.0,6.0,0.0,1.0,0.0,0.0,1651069713871760.0
0.0,-1.0,-23.0,-9.0,-2.0,-2.0,-2.0,-1.0,1651069713871760.0
2.0,1.0,0.0,-1.0,-1.0,0.0,-1.0,-1.0,1651069713885096.0
0.0,-2.0,2.0,-3.0,0.0,-1.0,-2.0,-1.0,1651069713885096.0
1.0,1.0,13.0,3.0,-1.0,-2.0,-1.0,0.0,1651069713886026.0
0.0,-1.0,-2.0,2.0,1.0,1.0,-2.0,2.0,1651069713886026.0
-1.0,-4.0,-18.0,-4.0,-1.0,0.0,-1.0,0.0,1651069713898108.0
-1.0,3.0,5.0,-1.0,0.0,-2.0,-1.0,-2.0,1651069713898108.0
-2.0,0.0,-2.0,-3.0,0.0,0.0,0.0,-1.0,1651069713907174.0
-1.0,-4.0,-4.0,1.0,0.0,-3.0,1.0,-1.0,1651069713907174.0
-2.0,6.0,22.0,5.0,-4.0,-2.0,-2.0,0.0,1651069713922337.0
-1.0,-3.0,-5.0,-3.0,-2.0,1.0,0.0,2.0,1651069713922337.0
-2.0,-1.0,-8.0,-3.0,0.0,1.0,0.0,0.0,1651069713923267.0
-1.0,2.0,1.0,0.0,1.0,-1.0,0.0,-2.0,1651069713923267.0
-1.0,0.0,14.0,3.0,0.0,-1.0,1.0,-2.0,1651069713944432.0
1.0,2.0,-16.0,-3.0,1.0,1.0,1.0,-2.0,1651069713944432.0
0.0,-1.0,-6.0,-4.0,0.0,-1.0,-1.0,-2.0,1651069713946359.0
0.0,-1.0,5.0,2.0,-1.0,0.0,-1.0,0.0,1651069713946359.0
-1.0,-1.0,-6.0,-3.0,0.0,0.0,1.0,2.0,1651069713958334.0
-1.0,-1.0,5.0,0.0,0.0,-2.0,-1.0,0.0,1651069713958334.0
-1.0,-3.0,-10.0,-4.0,0.0,-2.0,-2.0,-2.0,1651069713967418.0
1.0,-2.0,0.0,-1.0,-1.0,-1.0,-1.0,-1.0,1651069713967418.0
0.0,-1.0,-8.0,-1.0,-1.0,0.0,-1.0,-2.0,1651069713982375.0
-1.0,-4.0,-1.0,-2.0,0.0,0.0,0.0,-1.0,1651069713982375.0
-1.0,4.0,10.0,3.0,0.0,0.0,0.0,1.0,1651069713983449.0
-1.0,2.0,19.0,5.0,-1.0,-1.0,-1.0,-1.0,1651069713983449.0
-1.0,-3.0,-2.0,-4.0,-2.0,-1.0,-1.0,-1.0,1651069714004572.0
0.0,0.0,-2.0,0.0,-1.0,2.0,0.0,0.0,1651069714004572.0
1.0,-1.0,-5.0,-3.0,-2.0,-2.0,-1.0,0.0,1651069714006570.0
-2.0,-1.0,-1.0,0.0,-1.0,-1.0,1.0,1.0,1651069714006570.0
-1.0,-2.0,4.0,3.0,0.0,-1.0,-1.0,-1.0,1651069714027654.0
-2.0,-1.0,-13.0,-3.0,0.0,1.0,-1.0,0.0,1651069714027654.0
-1.0,-3.0,-10.0,-2.0,1.0,0.0,1.0,-1.0,1651069714028595.0
-1.0,-1.0,-14.0,-4.0,-1.0,1.0,1.0,-1.0,1651069714028595.0
1.0,-1.0,0.0,-1.0,-1.0,0.0,0.0,1.0,1651069714042558.0
1.0,1.0,5.0,3.0,-3.0,-2.0,1.0,0.0,1651069714042558.0
0.0,-2.0,-8.0,-3.0,0.0,-1.0,-2.0,-1.0,1651069714043556.0
-1.0,-1.0,1.0,1.0,1.0,-1.0,1.0,1.0,1651069714043556.0
-1.0,1.0,-8.0,-2.0,0.0,1.0,0.0,1.0,1651069714064500.0
-2.0,-2.0,-6.0,-2.0,-1.0,0.0,-3.0,0.0,1651069714064500.0
-1.0,-1.0,0.0,0.0,-2.0,-1.0,0.0,-1.0,1651069714066528.0
-1.0,-1.0,1.0,-3.0,0.0,-1.0,-2.0,-2.0,1651069714066528.0
0.0,0.0,0.0,0.0,1.0,-2.0,-2.0,0.0,1651069714087654.0
-2.0,-2.0,-1.0,-1.0,1.0,-2.0,-1.0,1.0,1651069714087654.0
-1.0,0.0,6.0,1.0,0.0,2.0,1.0,-1.0,1651069714088620.0
-2.0,-2.0,-9.0,-3.0,-1.0,-2.0,-1.0,0.0,1651069714088620.0
-1.0,2.0,27.0,5.0,0.0,0.0,-1.0,-1.0,1651069714102624.0
-1.0,0.0,3.0,1.0,-1.0,1.0,-2.0,-3.0,1651069714102624.0
0.0,0.0,-1.0,0.0,-1.0,1.0,0.0,0.0,1651069714103552.0
0.0,1.0,-3.0,-3.0,0.0,1.0,-2.0,0.0,1651069714103552.0
0.0,0.0,-9.0,-1.0,-2.0,0.0,0.0,-1.0,1651069714125154.0
1.0,-1.0,2.0,0.0,0.0,-2.0,2.0,-1.0,1651069714125154.0
-1.0,-1.0,4.0,-1.0,-1.0,-2.0,-1.0,-2.0,1651069714126295.0
0.0,3.0,11.0,3.0,-1.0,1.0,-2.0,-2.0,1651069714126295.0
1.0,-1.0,-5.0,-2.0,-3.0,-3.0,1.0,-1.0,1651069714147728.0
0.0,-1.0,2.0,0.0,-1.0,-2.0,1.0,-1.0,1651069714147728.0
-1.0,0.0,-3.0,-2.0,0.0,0.0,-1.0,1.0,1651069714148683.0
-1.0,0.0,-2.0,-2.0,-2.0,0.0,0.0,-2.0,1651069714148683.0
-1.0,-4.0,-12.0,-4.0,1.0,-1.0,-3.0,-1.0,1651069714161246.0
0.0,1.0,-1.0,2.0,-2.0,-1.0,1.0,0.0,1651069714161246.0
-1.0,2.0,2.0,0.0,0.0,-3.0,0.0,-1.0,1651069714168204.0
1.0,-2.0,3.0,1.0,0.0,-1.0,0.0,-1.0,1651069714168204.0
-2.0,-1.0,-2.0,-2.0,-1.0,1.0,-1.0,-1.0,1651069714185145.0
-1.0,-1.0,1.0,-1.0,-1.0,1.0,-1.0,-1.0,1651069714185145.0
-2.0,-3.0,0.0,-1.0,-1.0,1.0,1.0,-1.0,1651069714186114.0
0.0,0.0,-3.0,0.0,-1.0,-2.0,-1.0,-1.0,1651069714186114.0
-1.0,-2.0,-5.0,0.0,-1.0,-1.0,1.0,-1.0,1651069714207201.0
0.0,-1.0,13.0,2.0,-1.0,-1.0,-1.0,0.0,1651069714207201.0
0.0,0.0,0.0,-2.0,-1.0,-2.0,-1.0,-1.0,1651069714209220.0
1.0,-1.0,8.0,0.0,1.0,-1.0,1.0,0.0,1651069714209220.0
-1.0,-2.0,-4.0,-1.0,1.0,1.0,-1.0,1.0,1651069714221334.0
-1.0,-1.0,-1.0,0.0,1.0,2.0,-2.0,-2.0,1651069714221334.0
2.0,1.0,3.0,0.0,-1.0,1.0,-1.0,0.0,1651069714228283.0
0.0,-1.0,0.0,0.0,-2.0,-2.0,0.0,-1.0,1651069714228283.0
-1.0,-4.0,-3.0,-2.0,-2.0,-3.0,-1.0,0.0,1651069714244729.0
-3.0,-1.0,0.0,0.0,0.0,1.0,-1.0,-1.0,1651069714244729.0
-1.0,-2.0,-5.0,-2.0,0.0,0.0,0.0,-1.0,1651069714246664.0
0.0,-1.0,-4.0,-2.0,-1.0,0.0,-2.0,1.0,1651069714246664.0
0.0,-1.0,-3.0,-1.0,-1.0,-1.0,0.0,2.0,1651069714267750.0
0.0,0.0,-1.0,-1.0,0.0,2.0,1.0,-1.0,1651069714267750.0
-1.0,-1.0,-3.0,1.0,-2.0,-1.0,1.0,-1.0,1651069714268742.0
-1.0,0.0,2.0,2.0,2.0,1.0,2.0,0.0,1651069714268742.0
0.0,-2.0,-4.0,-2.0,-2.0,-1.0,-1.0,-3.0,1651069714281257.0
0.0,-1.0,-1.0,-1.0,0.0,-2.0,0.0,1.0,1651069714281257.0
0.0,-1.0,0.0,0.0,0.0,0.0,-1.0,0.0,1651069714288258.0
0.0,-4.0,-6.0,-4.0,-1.0,-1.0,2.0,1.0,1651069714288258.0
0.0,2.0,2.0,1.0,-1.0,0.0,0.0,-1.0,1651069714303419.0
-1.0,-1.0,-4.0,-2.0,-3.0,-3.0,-1.0,-1.0,1651069714303419.0
0.0,0.0,-14.0,-3.0,1.0,0.0,-2.0,-1.0,1651069714312392.0
-1.0,-1.0,0.0,0.0,-1.0,-1.0,0.0,-1.0,1651069714312392.0
-2.0,0.0,2.0,1.0,0.0,1.0,0.0,-1.0,1651069714327463.0
-1.0,-2.0,-4.0,-3.0,-1.0,0.0,-2.0,-1.0,1651069714327463.0
0.0,-2.0,5.0,0.0,-1.0,-2.0,-1.0,-1.0,1651069714328405.0
0.0,-1.0,0.0,-1.0,-2.0,0.0,0.0,-2.0,1651069714328405.0
1.0,0.0,-6.0,-4.0,-2.0,-1.0,0.0,1.0,1651069714342245.0
-1.0,-2.0,2.0,-1.0,0.0,-1.0,-1.0,0.0,1651069714342245.0
-1.0,-2.0,4.0,0.0,0.0,-1.0,0.0,-1.0,1651069714348219.0
0.0,0.0,2.0,2.0,-1.0,-1.0,-1.0,0.0,1651069714348219.0
0.0,0.0,0.0,0.0,-1.0,-1.0,-1.0,-2.0,1651069714364545.0
-1.0,-3.0,-4.0,-1.0,0.0,1.0,1.0,0.0,1651069714364545.0
-1.0,1.0,1.0,0.0,-2.0,2.0,0.0,-1.0,1651069714366543.0
-1.0,-3.0,-8.0,0.0,-3.0,-1.0,0.0,-3.0,1651069714366543.0
0.0,-1.0,4.0,1.0,1.0,0.0,0.0,-2.0,1651069714387534.0
0.0,0.0,0.0,0.0,-1.0,-1.0,-2.0,0.0,1651069714387534.0
0.0,-2.0,-2.0,0.0,-1.0,-1.0,0.0,-1.0,1651069714388470.0
-1.0,0.0,-2.0,-1.0,-1.0,1.0,0.0,-1.0,1651069714388470.0
-1.0,-3.0,-3.0,-2.0,-1.0,1.0,-2.0,1.0,1651069714401497.0
-1.0,2.0,0.0,0.0,-1.0,0.0,-1.0,-1.0,1651069714401497.0
-1.0,1.0,-4.0,-1.0,0.0,0.0,1.0,-1.0,1651069714408412.0
0.0,0.0,-1.0,-3.0,0.0,-2.0,-2.0,-3.0,1651069714408412.0
0.0,0.0,-3.0,2.0,2.0,1.0,-1.0,-2.0,1651069714425173.0
0.0,0.0,7.0,2.0,-1.0,0.0,-2.0,-1.0,1651069714425173.0
1.0,0.0,3.0,3.0,1.0,1.0,-1.0,1.0,1651069714426293.0
-1.0,-1.0,1.0,0.0,0.0,0.0,-2.0,0.0,1651069714426293.0
1.0,-1.0,-2.0,0.0,1.0,0.0,-1.0,-1.0,1651069714455124.0
-1.0,-3.0,-15.0,-4.0,-2.0,-1.0,0.0,-2.0,1651069714455124.0
-2.0,1.0,8.0,-1.0,-2.0,-1.0,-1.0,0.0,1651069714456354.0
-1.0,1.0,1.0,-2.0,-1.0,-3.0,0.0,-1.0,1651069714456354.0
-1.0,-2.0,-3.0,-1.0,-1.0,1.0,-2.0,0.0,1651069714461340.0
0.0,-1.0,2.0,1.0,0.0,-1.0,0.0,0.0,1651069714461340.0
0.0,0.0,-1.0,-2.0,-1.0,-1.0,-1.0,0.0,1651069714468295.0
-1.0,-1.0,-1.0,-2.0,-1.0,-1.0,-2.0,0.0,1651069714468295.0
0.0,0.0,-1.0,-1.0,0.0,-1.0,2.0,1.0,1651069714484507.0
-1.0,1.0,1.0,-1.0,0.0,1.0,0.0,0.0,1651069714484507.0
-1.0,0.0,1.0,1.0,0.0,1.0,-2.0,0.0,1651069714486525.0
1.0,0.0,4.0,3.0,0.0,0.0,0.0,0.0,1651069714486525.0
-1.0,-1.0,-3.0,-2.0,0.0,0.0,0.0,0.0,1651069714507678.0
1.0,0.0,5.0,2.0,0.0,-1.0,0.0,0.0,1651069714507678.0
-1.0,-1.0,-3.0,-2.0,0.0,0.0,1.0,0.0,1651069714508614.0
1.0,0.0,1.0,1.0,0.0,-1.0,0.0,0.0,1651069714508614.0
-2.0,0.0,0.0,-1.0,-2.0,-1.0,-3.0,-2.0,1651069714521323.0
0.0,0.0,-3.0,-2.0,0.0,0.0,1.0,0.0,1651069714521323.0
-2.0,-2.0,-2.0,0.0,-1.0,0.0,-1.0,0.0,1651069714537713.0
-2.0,0.0,-2.0,1.0,-1.0,-1.0,0.0,1.0,1651069714537713.0
0.0,-2.0,0.0,0.0,-3.0,-1.0,1.0,-1.0,1651069714544760.0
1.0,2.0,10.0,0.0,0.0,0.0,-2.0,-1.0,1651069714544760.0
-1.0,-2.0,-2.0,0.0,-1.0,-2.0,-2.0,-2.0,1651069714546687.0
0.0,-1.0,-3.0,-2.0,0.0,0.0,-1.0,1.0,1651069714546687.0
-1.0,-1.0,0.0,-2.0,0.0,-1.0,0.0,0.0,1651069714566940.0
-1.0,0.0,-1.0,-1.0,-3.0,-2.0,-1.0,0.0,1651069714566940.0
-1.0,1.0,-1.0,-2.0,1.0,-1.0,0.0,1.0,1651069714568868.0
-1.0,1.0,7.0,1.0,-3.0,-1.0,0.0,-1.0,1651069714568868.0
-1.0,0.0,-3.0,1.0,0.0,-1.0,0.0,0.0,1651069714580902.0
0.0,-2.0,-5.0,-1.0,1.0,-2.0,-2.0,0.0,1651069714580902.0
0.0,-2.0,5.0,-1.0,0.0,0.0,-2.0,-1.0,1651069714589558.0
-1.0,-1.0,-6.0,-1.0,0.0,1.0,-1.0,0.0,1651069714589558.0
0.0,0.0,3.0,0.0,-2.0,-2.0,0.0,0.0,1651069714604786.0
-1.0,-3.0,-3.0,-1.0,1.0,1.0,0.0,-1.0,1651069714604786.0
-1.0,-2.0,-7.0,-2.0,-3.0,-3.0,-1.0,-2.0,1651069714606725.0
2.0,-3.0,0.0,-1.0,1.0,1.0,-2.0,0.0,1651069714606725.0
-2.0,-1.0,1.0,0.0,-1.0,-3.0,0.0,1.0,1651069714627751.0
-1.0,0.0,-4.0,0.0,-1.0,-1.0,2.0,-1.0,1651069714627751.0
-1.0,0.0,-1.0,-2.0,-2.0,-3.0,-1.0,-1.0,1651069714628744.0
-2.0,-1.0,-5.0,-2.0,-3.0,-2.0,-1.0,0.0,1651069714628744.0
0.0,2.0,7.0,1.0,1.0,0.0,0.0,-2.0,1651069714640783.0
-1.0,1.0,-3.0,1.0,-2.0,0.0,-1.0,-2.0,1651069714640783.0
-1.0,1.0,0.0,1.0,-2.0,-1.0,0.0,-1.0,1651069714649693.0
0.0,-2.0,-1.0,-1.0,2.0,-1.0,-1.0,-1.0,1651069714649693.0
2.0,-2.0,-3.0,-1.0,-3.0,-2.0,-1.0,1.0,1651069714664740.0
-1.0,0.0,5.0,1.0,-1.0,-3.0,-3.0,-3.0,1651069714664740.0
0.0,0.0,7.0,0.0,2.0,3.0,1.0,0.0,1651069714666670.0
-1.0,2.0,1.0,0.0,2.0,1.0,-1.0,-1.0,1651069714666670.0
0.0,-1.0,-5.0,-2.0,-3.0,-3.0,-3.0,-2.0,1651069714687658.0
0.0,-1.0,-1.0,-3.0,1.0,-1.0,-1.0,0.0,1651069714687658.0
-1.0,-1.0,-3.0,-1.0,-9.0,3.0,2.0,1.0,1651069714688612.0
-1.0,-2.0,0.0,4.0,10.0,2.0,1.0,0.0,1651069714688612.0
0.0,-1.0,-3.0,-2.0,-4.0,-4.0,-2.0,-1.0,1651069714700647.0
-1.0,1.0,-4.0,0.0,4.0,-1.0,-2.0,1.0,1651069714700647.0
-3.0,-1.0,0.0,-1.0,-3.0,-4.0,-1.0,0.0,1651069714709606.0
0.0,1.0,0.0,-2.0,-6.0,-1.0,-1.0,-1.0,1651069714709606.0
-2.0,1.0,1.0,1.0,7.0,7.0,1.0,-1.0,1651069714724882.0
-1.0,0.0,-2.0,-1.0,-5.0,-1.0,-1.0,-1.0,1651069714724882.0
0.0,-2.0,-3.0,-2.0,-1.0,-3.0,-2.0,-1.0,1651069714725909.0
-2.0,-2.0,-1.0,-2.0,1.0,-4.0,0.0,-1.0,1651069714725909.0
0.0,0.0,1.0,3.0,1.0,5.0,0.0,0.0,1651069714747037.0
0.0,-3.0,-1.0,-2.0,-1.0,-1.0,1.0,1.0,1651069714747037.0
1.0,0.0,1.0,2.0,5.0,2.0,-1.0,0.0,1651069714748966.0
-1.0,-1.0,-1.0,-3.0,-9.0,-5.0,-2.0,-1.0,1651069714748966.0
0.0,-2.0,-2.0,1.0,3.0,1.0,-1.0,-1.0,1651069714760961.0
-1.0,0.0,-3.0,0.0,1.0,0.0,-1.0,-1.0,1651069714760961.0
1.0,-2.0,0.0,-3.0,-8.0,0.0,-2.0,-1.0,1651069714769534.0
0.0,-2.0,-4.0,0.0,5.0,-2.0,-1.0,-1.0,1651069714769534.0
-1.0,1.0,0.0,1.0,9.0,1.0,2.0,0.0,1651069714784782.0
1.0,-1.0,-1.0,-1.0,-5.0,2.0,0.0,0.0,1651069714784782.0
0.0,0.0,0.0,0.0,2.0,0.0,-2.0,0.0,1651069714785810.0
-3.0,-1.0,0.0,-3.0,-12.0,-6.0,-3.0,-1.0,1651069714785810.0
-1.0,0.0,1.0,-2.0,-2.0,-1.0,-1.0,0.0,1651069714807007.0
-2.0,-1.0,-3.0,0.0,3.0,0.0,0.0,-3.0,1651069714807007.0
0.0,0.0,1.0,1.0,-1.0,0.0,2.0,-1.0,1651069714808967.0
1.0,1.0,1.0,-1.0,3.0,5.0,1.0,-1.0,1651069714808967.0
1.0,1.0,0.0,3.0,-1.0,-1.0,-1.0,1.0,1651069714821323.0
0.0,0.0,1.0,-2.0,-4.0,-3.0,-1.0,-1.0,1651069714821323.0
-2.0,-2.0,-4.0,-4.0,-3.0,-4.0,-2.0,-3.0,1651069714829559.0
0.0,-1.0,0.0,2.0,0.0,-2.0,0.0,-1.0,1651069714829559.0
0.0,-1.0,0.0,-1.0,-3.0,-4.0,-2.0,-1.0,1651069714844760.0
-1.0,-2.0,-1.0,-2.0,-6.0,-5.0,-2.0,0.0,1651069714844760.0
1.0,-1.0,0.0,-2.0,2.0,5.0,1.0,1.0,1651069714850772.0
0.0,1.0,-1.0,5.0,-2.0,0.0,0.0,0.0,1651069714850772.0
-1.0,-3.0,-3.0,0.0,0.0,-3.0,-1.0,-1.0,1651069714867031.0
-2.0,-3.0,-1.0,-8.0,-20.0,-13.0,-4.0,-1.0,1651069714867031.0
1.0,0.0,3.0,7.0,31.0,2.0,-1.0,0.0,1651069714868992.0
-1.0,1.0,1.0,3.0,7.0,12.0,3.0,1.0,1651069714868992.0
-1.0,0.0,-3.0,-2.0,-3.0,-4.0,-1.0,0.0,1651069714881298.0
0.0,0.0,0.0,4.0,0.0,-6.0,-2.0,-1.0,1651069714881298.0
-2.0,0.0,-3.0,-11.0,-13.0,0.0,1.0,1.0,1651069714897658.0
-2.0,-3.0,-1.0,-4.0,-8.0,-6.0,-3.0,-1.0,1651069714897658.0
0.0,1.0,1.0,4.0,16.0,7.0,2.0,-1.0,1651069714903703.0
2.0,0.0,0.0,2.0,11.0,5.0,2.0,0.0,1651069714903703.0
-1.0,-3.0,0.0,3.0,1.0,-4.0,-2.0,-3.0,1651069714910600.0
0.0,-2.0,0.0,3.0,-5.0,3.0,1.0,0.0,1651069714910600.0
0.0,-3.0,-2.0,-9.0,-19.0,-8.0,-2.0,-1.0,1651069714927583.0
-1.0,0.0,3.0,6.0,13.0,12.0,2.0,1.0,1651069714927583.0
-1.0,-4.0,-7.0,-5.0,-3.0,-4.0,-2.0,-1.0,1651069714928567.0
-1.0,-1.0,-1.0,2.0,-10.0,-5.0,1.0,-1.0,1651069714928567.0
-2.0,-1.0,-3.0,-4.0,-12.0,-5.0,-4.0,-2.0,1651069714949518.0
1.0,1.0,1.0,8.0,31.0,22.0,7.0,0.0,1651069714949518.0
1.0,2.0,3.0,-3.0,-13.0,-1.0,-1.0,0.0,1651069714951446.0
-2.0,-4.0,-1.0,5.0,24.0,-2.0,-4.0,-1.0,1651069714951446.0
0.0,-4.0,-4.0,1.0,-2.0,15.0,6.0,5.0,1651069714964479.0
3.0,2.0,2.0,-7.0,-11.0,-7.0,2.0,6.0,1651069714964479.0
-5.0,1.0,-1.0,12.0,18.0,14.0,-2.0,-7.0,1651069714971297.0
1.0,2.0,-2.0,-10.0,-6.0,-9.0,-4.0,1.0,1651069714971297.0
-2.0,-2.0,2.0,1.0,-1.0,-4.0,-1.0,-4.0,1651069714987703.0
-1.0,-1.0,-3.0,-3.0,-4.0,-7.0,-3.0,-1.0,1651069714987703.0
1.0,-2.0,-2.0,-5.0,-7.0,-5.0,3.0,2.0,1651069714988611.0
1.0,-1.0,-3.0,-5.0,-1.0,0.0,-1.0,-1.0,1651069714988611.0
2.0,4.0,7.0,13.0,14.0,6.0,3.0,1.0,1651069715009790.0
-3.0,-4.0,-4.0,2.0,6.0,2.0,0.0,-1.0,1651069715009790.0
-4.0,-4.0,-7.0,-5.0,-19.0,-14.0,-3.0,-2.0,1651069715011719.0
0.0,1.0,2.0,-1.0,7.0,8.0,1.0,1.0,1651069715011719.0
-1.0,-2.0,-1.0,-9.0,-10.0,-10.0,-5.0,0.0,1651069715023694.0
-4.0,-2.0,3.0,11.0,21.0,14.0,0.0,-3.0,1651069715023694.0
0.0,1.0,-4.0,0.0,-8.0,-7.0,-2.0,-2.0,1651069715030735.0
5.0,-2.0,-8.0,-18.0,-14.0,7.0,7.0,7.0,1651069715030735.0
1.0,2.0,4.0,4.0,10.0,3.0,2.0,-2.0,1651069715046892.0
-4.0,-1.0,1.0,-9.0,-25.0,-18.0,-10.0,-13.0,1651069715046892.0
-2.0,-1.0,3.0,9.0,15.0,3.0,5.0,3.0,1651069715048820.0
-2.0,0.0,2.0,5.0,-5.0,0.0,0.0,3.0,1651069715048820.0
4.0,5.0,2.0,-6.0,2.0,1.0,-1.0,0.0,1651069715069599.0
0.0,-2.0,-6.0,-5.0,-10.0,-6.0,-1.0,1.0,1651069715069599.0
-1.0,-1.0,4.0,1.0,10.0,2.0,-3.0,-8.0,1651069715071594.0
-1.0,1.0,4.0,3.0,-16.0,-10.0,-4.0,6.0,1651069715071594.0
-1.0,-4.0,-2.0,4.0,10.0,8.0,3.0,-1.0,1651069715083759.0
-4.0,0.0,2.0,-2.0,-5.0,2.0,-3.0,-6.0,1651069715083759.0
0.0,-3.0,-8.0,-3.0,10.0,1.0,0.0,2.0,1651069715091272.0
-1.0,-2.0,2.0,3.0,-12.0,-3.0,3.0,0.0,1651069715091272.0
-1.0,1.0,5.0,10.0,10.0,-4.0,-5.0,-3.0,1651069715107625.0
4.0,2.0,-2.0,-6.0,-4.0,1.0,6.0,6.0,1651069715107625.0
4.0,2.0,3.0,0.0,-9.0,4.0,1.0,8.0,1651069715108584.0
-7.0,-8.0,-7.0,0.0,12.0,-1.0,-3.0,-11.0,1651069715108584.0
-1.0,3.0,-3.0,1.0,8.0,4.0,1.0,5.0,1651069715129782.0
3.0,-1.0,-5.0,-1.0,-12.0,-14.0,-7.0,-5.0,1651069715129782.0
-2.0,-7.0,3.0,4.0,8.0,5.0,3.0,1.0,1651069715131708.0
-2.0,-4.0,-8.0,-7.0,-10.0,-3.0,-2.0,1.0,1651069715131708.0
-5.0,-1.0,-1.0,-11.0,-26.0,-16.0,-11.0,-10.0,1651069715143745.0
4.0,3.0,7.0,2.0,-4.0,2.0,2.0,3.0,1651069715143745.0
-1.0,3.0,-5.0,-2.0,-1.0,-9.0,0.0,2.0,1651069715150659.0
-1.0,-7.0,3.0,4.0,12.0,12.0,3.0,-4.0,1651069715150659.0
-5.0,-4.0,-6.0,-5.0,-7.0,-4.0,-5.0,-2.0,1651069715174860.0
-2.0,2.0,-2.0,-8.0,-20.0,-7.0,1.0,-2.0,1651069715174860.0
1.0,3.0,6.0,10.0,17.0,8.0,-3.0,-2.0,1651069715175791.0
-3.0,0.0,-4.0,-9.0,-15.0,-12.0,-1.0,1.0,1651069715175791.0
0.0,-2.0,-1.0,6.0,-4.0,-7.0,1.0,1.0,1651069715190002.0
4.0,7.0,-4.0,-7.0,4.0,7.0,-1.0,-4.0,1651069715190002.0
-1.0,1.0,3.0,3.0,-18.0,-7.0,-8.0,-5.0,1651069715191005.0
-4.0,-4.0,-9.0,-11.0,2.0,1.0,8.0,-3.0,1651069715191005.0
0.0,0.0,-4.0,-10.0,-12.0,-10.0,-4.0,-3.0,1651069715203038.0
-5.0,-9.0,5.0,19.0,17.0,6.0,5.0,7.0,1651069715203038.0
1.0,-3.0,6.0,4.0,2.0,3.0,-1.0,-1.0,1651069715212074.0
-6.0,-1.0,-8.0,-17.0,-17.0,-5.0,-13.0,-8.0,1651069715212074.0
0.0,-8.0,-8.0,-17.0,-23.0,-4.0,14.0,1.0,1651069715227747.0
6.0,16.0,1.0,8.0,8.0,0.0,9.0,11.0,1651069715227747.0
-6.0,-27.0,-8.0,2.0,5.0,7.0,9.0,0.0,1651069715228709.0
8.0,26.0,8.0,9.0,9.0,2.0,-4.0,-1.0,1651069715228709.0
-1.0,-6.0,3.0,1.0,3.0,6.0,2.0,2.0,1651069715249738.0
-2.0,4.0,-1.0,-2.0,2.0,-6.0,-10.0,-2.0,1651069715249738.0
2.0,16.0,0.0,1.0,-6.0,-2.0,0.0,-1.0,1651069715251750.0
0.0,-6.0,4.0,10.0,12.0,0.0,-2.0,-2.0,1651069715251750.0
-4.0,-10.0,-18.0,-6.0,-4.0,2.0,1.0,-2.0,1651069715263745.0
-2.0,-4.0,-1.0,2.0,11.0,11.0,-4.0,-3.0,1651069715263745.0
-3.0,-7.0,-6.0,-10.0,-17.0,-11.0,-6.0,-3.0,1651069715272768.0
6.0,9.0,4.0,3.0,1.0,-6.0,1.0,1.0,1651069715272768.0
6.0,20.0,17.0,19.0,41.0,16.0,3.0,6.0,1651069715286951.0
-7.0,-16.0,1.0,-5.0,-23.0,-10.0,2.0,-3.0,1651069715286951.0
-3.0,-2.0,-5.0,-1.0,-10.0,-2.0,-4.0,-3.0,1651069715288906.0
-3.0,-11.0,-5.0,-14.0,-19.0,-8.0,-2.0,-3.0,1651069715288906.0
3.0,8.0,1.0,6.0,15.0,2.0,0.0,5.0,1651069715309503.0
-12.0,-8.0,-13.0,-24.0,-20.0,-10.0,-9.0,-11.0,1651069715309503.0
-2.0,-12.0,2.0,23.0,22.0,13.0,6.0,-1.0,1651069715311442.0
3.0,1.0,1.0,8.0,1.0,2.0,1.0,0.0,1651069715311442.0
-6.0,-14.0,1.0,-5.0,-19.0,-5.0,-4.0,0.0,1651069715323465.0
7.0,15.0,1.0,1.0,26.0,-1.0,-1.0,1.0,1651069715323465.0
3.0,14.0,9.0,-3.0,-22.0,-12.0,-14.0,-5.0,1651069715332502.0
-1.0,-5.0,-2.0,3.0,7.0,11.0,28.0,19.0,1651069715332502.0
-2.0,-5.0,-8.0,-7.0,-8.0,-3.0,1.0,-2.0,1651069715347653.0
0.0,0.0,3.0,-2.0,-3.0,-3.0,-3.0,-3.0,1651069715347653.0
2.0,-2.0,-4.0,-3.0,10.0,7.0,12.0,7.0,1651069715348654.0
1.0,14.0,4.0,0.0,3.0,0.0,-11.0,-7.0,1651069715348654.0
-9.0,-32.0,1.0,1.0,-14.0,-12.0,-7.0,-5.0,1651069715369668.0
-1.0,-15.0,-1.0,-3.0,-21.0,1.0,5.0,2.0,1651069715369668.0
-2.0,5.0,-5.0,-11.0,-16.0,-5.0,-8.0,-4.0,1651069715371623.0
-2.0,3.0,9.0,20.0,69.0,23.0,4.0,0.0,1651069715371623.0
2.0,6.0,1.0,-6.0,-26.0,-12.0,-4.0,0.0,1651069715383445.0
-1.0,-2.0,-14.0,-8.0,4.0,5.0,1.0,1.0,1651069715383445.0
-1.0,-7.0,-6.0,-9.0,-11.0,-28.0,-6.0,-3.0,1651069715392863.0
1.0,2.0,6.0,14.0,22.0,33.0,7.0,1.0,1651069715392863.0
8.0,22.0,12.0,-7.0,-15.0,-1.0,-2.0,2.0,1651069715406894.0
-2.0,-14.0,1.0,29.0,45.0,8.0,4.0,3.0,1651069715406894.0
-2.0,8.0,-7.0,-24.0,-21.0,-4.0,-1.0,-2.0,1651069715408823.0
2.0,-5.0,4.0,6.0,-11.0,-7.0,1.0,4.0,1651069715408823.0
3.0,14.0,2.0,1.0,17.0,1.0,-3.0,-3.0,1651069715430171.0
-2.0,-1.0,-5.0,-8.0,-16.0,3.0,-2.0,0.0,1651069715430171.0
2.0,5.0,8.0,-4.0,-2.0,1.0,5.0,3.0,1651069715431745.0
4.0,-3.0,-4.0,-2.0,1.0,-5.0,-8.0,-1.0,1651069715431745.0
-7.0,-8.0,-11.0,2.0,5.0,8.0,0.0,-6.0,1651069715443825.0
3.0,20.0,10.0,-4.0,-9.0,-3.0,3.0,4.0,1651069715443825.0
4.0,-7.0,-3.0,-3.0,16.0,8.0,19.0,28.0,1651069715451905.0
-9.0,-9.0,-5.0,-1.0,-19.0,-12.0,-13.0,-31.0,1651069715451905.0
5.0,7.0,8.0,-4.0,8.0,-11.0,1.0,1.0,1651069715467699.0
6.0,24.0,6.0,46.0,35.0,42.0,17.0,8.0,1651069715467699.0
-18.0,-51.0,-15.0,-25.0,-10.0,-6.0,-23.0,-15.0,1651069715468670.0
-8.0,18.0,-9.0,-27.0,-42.0,-26.0,13.0,17.0,1651069715468670.0
20.0,11.0,13.0,-18.0,11.0,28.0,4.0,22.0,1651069715490162.0
2.0,-12.0,-6.0,39.0,63.0,20.0,7.0,-6.0,1651069715490162.0
24.0,33.0,0.0,30.0,49.0,26.0,-7.0,4.0,1651069715491161.0
-24.0,-36.0,-17.0,11.0,-40.0,-16.0,-8.0,-15.0,1651069715491161.0
-22.0,1.0,-3.0,0.0,46.0,13.0,2.0,-26.0,1651069715503798.0
12.0,28.0,-3.0,-41.0,-44.0,-29.0,-13.0,-5.0,1651069715503798.0
-12.0,-48.0,2.0,-17.0,9.0,20.0,-45.0,11.0,1651069715512699.0
40.0,27.0,23.0,51.0,19.0,32.0,89.0,51.0,1651069715512699.0
-33.0,-57.0,-27.0,-27.0,-95.0,-65.0,-23.0,-28.0,1651069715526733.0
3.0,-30.0,-13.0,9.0,48.0,40.0,25.0,21.0,1651069715526733.0
-36.0,-9.0,1.0,14.0,-2.0,-19.0,-1.0,-65.0,1651069715533715.0
29.0,36.0,-2.0,-8.0,33.0,6.0,-29.0,31.0,1651069715533715.0
16.0,24.0,21.0,27.0,-52.0,-15.0,-7.0,-17.0,1651069715549511.0
-17.0,-15.0,-18.0,-119.0,-39.0,-22.0,-2.0,-1.0,1651069715549511.0
-7.0,3.0,-7.0,22.0,-19.0,0.0,-5.0,-10.0,1651069715551440.0
1.0,-24.0,-9.0,-33.0,1.0,1.0,11.0,23.0,1651069715551440.0
4.0,40.0,6.0,72.0,-25.0,-20.0,-16.0,-31.0,1651069715572655.0
-4.0,-3.0,12.0,-9.0,31.0,-8.0,-15.0,0.0,1651069715572655.0
12.0,13.0,7.0,-4.0,-5.0,-12.0,14.0,31.0,1651069715573608.0
-1.0,24.0,13.0,-7.0,-17.0,3.0,-7.0,-14.0,1651069715573608.0
-8.0,-23.0,-23.0,15.0,45.0,24.0,-10.0,-2.0,1651069715587640.0
-21.0,-15.0,-14.0,-3.0,-34.0,-29.0,-41.0,-65.0,1651069715587640.0
53.0,47.0,38.0,37.0,-12.0,10.0,83.0,105.0,1651069715588569.0
-19.0,-14.0,-20.0,-18.0,-5.0,8.0,-8.0,-33.0,1651069715588569.0
26.0,23.0,18.0,-1.0,34.0,1.0,-1.0,40.0,1651069715610204.0
-18.0,-49.0,4.0,28.0,-31.0,-9.0,33.0,1.0,1651069715610204.0
6.0,31.0,5.0,-53.0,-6.0,5.0,-8.0,-34.0,1651069715611213.0
-10.0,-58.0,-25.0,13.0,5.0,-12.0,-27.0,20.0,1651069715611213.0
-12.0,-8.0,-21.0,-51.0,-11.0,-3.0,-6.0,-11.0,1651069715623238.0
-5.0,2.0,21.0,18.0,25.0,21.0,30.0,25.0,1651069715623238.0
-2.0,6.0,2.0,18.0,-40.0,-25.0,-22.0,-19.0,1651069715632693.0
-5.0,-2.0,10.0,-4.0,20.0,-7.0,-6.0,-16.0,1651069715632693.0
-10.0,-3.0,-12.0,-3.0,-16.0,7.0,-12.0,-37.0,1651069715646901.0
10.0,-1.0,19.0,-8.0,-24.0,-14.0,8.0,53.0,1651069715646901.0
3.0,0.0,-18.0,12.0,75.0,22.0,10.0,-12.0,1651069715648830.0
-6.0,7.0,29.0,33.0,4.0,4.0,-11.0,-21.0,1651069715648830.0
-19.0,-24.0,-37.0,-58.0,-3.0,-10.0,3.0,4.0,1651069715670920.0
30.0,44.0,3.0,-26.0,-55.0,-26.0,-10.0,22.0,1651069715670920.0
-8.0,-10.0,-10.0,20.0,46.0,34.0,9.0,-4.0,1651069715672917.0
0.0,7.0,-5.0,-19.0,-29.0,-25.0,-17.0,-15.0,1651069715672917.0
-19.0,-23.0,17.0,10.0,-8.0,1.0,-1.0,-15.0,1651069715683770.0
16.0,17.0,-8.0,13.0,46.0,31.0,1.0,16.0,1651069715683770.0
-7.0,-34.0,-16.0,-22.0,-30.0,-11.0,4.0,7.0,1651069715692883.0
-5.0,18.0,1.0,13.0,-4.0,-7.0,-41.0,-42.0,1651069715692883.0
18.0,-1.0,10.0,14.0,-16.0,3.0,55.0,68.0,1651069715707505.0
5.0,9.0,-5.0,-24.0,-12.0,-3.0,-6.0,-14.0,1651069715707505.0
-14.0,-38.0,-4.0,-4.0,-21.0,-16.0,-19.0,-32.0,1651069715708436.0
-18.0,-22.0,2.0,22.0,32.0,-16.0,-32.0,-22.0,1651069715708436.0
34.0,34.0,16.0,21.0,30.0,37.0,42.0,49.0,1651069715729517.0
-17.0,-1.0,-3.0,25.0,-34.0,-1.0,-15.0,-21.0,1651069715729517.0
-12.0,0.0,-5.0,-4.0,11.0,0.0,-5.0,-14.0,1651069715731484.0
-7.0,12.0,4.0,-44.0,-42.0,-23.0,3.0,-24.0,1651069715731484.0
33.0,1.0,23.0,82.0,98.0,36.0,15.0,57.0,1651069715743518.0
15.0,0.0,-2.0,-14.0,4.0,6.0,-8.0,-4.0,1651069715743518.0
-13.0,-2.0,11.0,-18.0,-36.0,-25.0,-16.0,-30.0,1651069715752430.0
14.0,32.0,12.0,-26.0,15.0,29.0,58.0,33.0,1651069715752430.0
5.0,-16.0,-46.0,-21.0,-20.0,-11.0,-4.0,44.0,1651069715767454.0
-12.0,-18.0,-11.0,17.0,-17.0,-20.0,-15.0,-30.0,1651069715767454.0
-24.0,3.0,17.0,29.0,-15.0,-7.0,-26.0,-36.0,1651069715768385.0
-3.0,-13.0,-6.0,-45.0,-11.0,-3.0,-4.0,22.0,1651069715768385.0
-1.0,2.0,-2.0,26.0,78.0,32.0,1.0,-28.0,1651069715789527.0
4.0,1.0,-7.0,4.0,-18.0,-9.0,0.0,6.0,1651069715789527.0
11.0,13.0,17.0,-11.0,-39.0,-21.0,-8.0,38.0,1651069715791551.0
-5.0,-7.0,-2.0,13.0,1.0,-7.0,-3.0,-16.0,1651069715791551.0
-9.0,18.0,0.0,-22.0,-1.0,2.0,-19.0,-49.0,1651069715812299.0
-2.0,-34.0,-7.0,-13.0,6.0,-2.0,25.0,24.0,1651069715812299.0
13.0,31.0,6.0,-3.0,3.0,15.0,26.0,12.0,1651069715814297.0
1.0,-4.0,-1.0,-6.0,-32.0,-12.0,-4.0,7.0,1651069715814297.0
-12.0,-22.0,6.0,-24.0,25.0,1.0,-13.0,-34.0,1651069715827632.0
-13.0,2.0,7.0,1.0,-8.0,-13.0,-19.0,-24.0,1651069715827632.0
8.0,-19.0,-24.0,-15.0,-13.0,-4.0,9.0,24.0,1651069715828563.0
14.0,29.0,10.0,4.0,12.0,20.0,10.0,-4.0,1651069715828563.0
2.0,-7.0,-5.0,-13.0,-40.0,-17.0,-13.0,7.0,1651069715849822.0
2.0,7.0,16.0,19.0,-32.0,-4.0,11.0,16.0,1651069715849822.0
1.0,13.0,-18.0,-5.0,68.0,20.0,-5.0,-3.0,1651069715850822.0
2.0,-31.0,-11.0,6.0,-26.0,-12.0,5.0,9.0,1651069715850822.0
-18.0,6.0,19.0,10.0,15.0,-8.0,-3.0,-18.0,1651069715863300.0
15.0,19.0,12.0,-15.0,-18.0,13.0,6.0,16.0,1651069715863300.0
-10.0,-8.0,-15.0,-22.0,-30.0,-20.0,-28.0,-10.0,1651069715872275.0
13.0,20.0,13.0,35.0,45.0,24.0,29.0,12.0,1651069715872275.0
-14.0,-34.0,-19.0,-32.0,-31.0,-15.0,0.0,-3.0,1651069715887384.0
13.0,26.0,3.0,5.0,10.0,-13.0,-13.0,-13.0,1651069715887384.0
-20.0,-29.0,1.0,34.0,20.0,5.0,8.0,-4.0,1651069715893795.0
-2.0,1.0,-18.0,-20.0,14.0,1.0,-24.0,-35.0,1651069715893795.0
0.0,0.0,19.0,-15.0,-47.0,-25.0,0.0,32.0,1651069715909613.0
-20.0,3.0,-2.0,16.0,50.0,21.0,-23.0,-68.0,1651069715909613.0
20.0,-4.0,-6.0,-9.0,-29.0,-13.0,31.0,42.0,1651069715911541.0
8.0,-9.0,-8.0,30.0,28.0,6.0,8.0,43.0,1651069715911541.0
-7.0,3.0,-8.0,-24.0,-8.0,5.0,-25.0,-35.0,1651069715932723.0
-8.0,-10.0,-19.0,18.0,-34.0,-27.0,-3.0,10.0,1651069715932723.0
5.0,8.0,15.0,-18.0,16.0,21.0,10.0,-7.0,1651069715933691.0
-10.0,-17.0,3.0,18.0,-33.0,-26.0,-13.0,-4.0,1651069715933691.0
13.0,1.0,-6.0,0.0,41.0,37.0,2.0,5.0,1651069715947700.0
-6.0,-16.0,-22.0,14.0,1.0,0.0,-8.0,21.0,1651069715947700.0
6.0,22.0,4.0,-19.0,-46.0,-15.0,-3.0,2.0,1651069715948651.0
-4.0,-12.0,-2.0,5.0,26.0,11.0,12.0,-7.0,1651069715948651.0
-1.0,5.0,14.0,13.0,-36.0,-7.0,7.0,28.0,1651069715969634.0
10.0,2.0,-1.0,-2.0,70.0,23.0,17.0,15.0,1651069715969634.0
3.0,6.0,0.0,-11.0,-9.0,5.0,0.0,-8.0,1651069715971591.0
-13.0,6.0,-12.0,-15.0,19.0,8.0,-12.0,-14.0,1651069715971591.0
1.0,-10.0,7.0,-4.0,-19.0,-8.0,-9.0,-27.0,1651069715992573.0
1.0,14.0,13.0,6.0,1.0,6.0,18.0,34.0,1651069715992573.0
27.0,-2.0,9.0,16.0,24.0,19.0,17.0,53.0,1651069715993503.0
-5.0,-10.0,-6.0,-18.0,-8.0,-17.0,-28.0,-28.0,1651069715993503.0
-8.0,33.0,-9.0,-36.0,-20.0,-14.0,9.0,-18.0,1651069716007533.0
11.0,-20.0,6.0,56.0,2.0,0.0,-17.0,20.0,1651069716007533.0
-2.0,37.0,12.0,-37.0,8.0,14.0,16.0,-5.0,1651069716008463.0
2.0,-11.0,-6.0,23.0,3.0,23.0,8.0,10.0,1651069716008463.0
1.0,8.0,4.0,5.0,-3.0,-13.0,-5.0,-22.0,1651069716029559.0
6.0,0.0,3.0,-26.0,-20.0,6.0,12.0,22.0,1651069716029559.0
6.0,8.0,1.0,28.0,16.0,1.0,-9.0,18.0,1651069716031580.0
-7.0,-19.0,4.0,-3.0,22.0,2.0,25.0,-4.0,1651069716031580.0
1.0,37.0,-5.0,9.0,-33.0,-17.0,-23.0,-2.0,1651069716052505.0
-22.0,-46.0,4.0,11.0,26.0,2.0,8.0,-48.0,1651069716052505.0
8.0,3.0,17.0,31.0,-30.0,-16.0,-6.0,44.0,1651069716053524.0
17.0,38.0,-18.0,-52.0,-6.0,0.0,-12.0,4.0,1651069716053524.0
-8.0,-12.0,-7.0,18.0,13.0,14.0,13.0,-12.0,1651069716066832.0
-2.0,9.0,-3.0,-18.0,-25.0,-28.0,-15.0,-7.0,1651069716066832.0
13.0,13.0,3.0,23.0,42.0,22.0,20.0,-8.0,1651069716073799.0
-8.0,-8.0,16.0,-14.0,-49.0,-18.0,-16.0,-12.0,1651069716073799.0
21.0,-17.0,-2.0,6.0,17.0,-1.0,25.0,50.0,1651069716090206.0
0.0,49.0,-6.0,7.0,38.0,24.0,-8.0,-5.0,1651069716090206.0
-7.0,-16.0,0.0,-7.0,-1.0,-7.0,3.0,-40.0,1651069716091206.0
4.0,21.0,3.0,32.0,-17.0,-6.0,-1.0,21.0,1651069716091206.0
-14.0,-33.0,-9.0,-71.0,10.0,5.0,2.0,-20.0,1651069716112721.0
-8.0,-26.0,-34.0,-19.0,-19.0,-14.0,-1.0,-9.0,1651069716112721.0
8.0,33.0,1.0,10.0,-26.0,-15.0,-22.0,-13.0,1651069716113696.0
-5.0,-6.0,21.0,28.0,38.0,20.0,4.0,11.0,1651069716113696.0
-10.0,-1.0,-5.0,-9.0,8.0,-4.0,-6.0,-17.0,1651069716126634.0
4.0,4.0,9.0,-21.0,-25.0,-21.0,-10.0,-8.0,1651069716126634.0
-3.0,-8.0,-30.0,-18.0,-22.0,-1.0,-2.0,-12.0,1651069716133795.0
11.0,-2.0,4.0,-13.0,-40.0,-26.0,-6.0,26.0,1651069716133795.0
-18.0,7.0,9.0,15.0,33.0,14.0,-2.0,2.0,1651069716149553.0
6.0,-11.0,-4.0,10.0,14.0,18.0,3.0,-3.0,1651069716149553.0
-11.0,-3.0,-5.0,5.0,-12.0,-15.0,-10.0,-25.0,1651069716151509.0
-7.0,-18.0,3.0,-4.0,34.0,3.0,-7.0,-2.0,1651069716151509.0
6.0,15.0,10.0,26.0,13.0,4.0,5.0,2.0,1651069716171990.0
-14.0,-6.0,-4.0,7.0,-26.0,-12.0,-24.0,-31.0,1651069716171990.0
-1.0,-4.0,-4.0,5.0,9.0,10.0,22.0,14.0,1651069716174013.0
2.0,9.0,-12.0,-18.0,2.0,6.0,14.0,9.0,1651069716174013.0
5.0,-8.0,-5.0,-11.0,-29.0,-17.0,0.0,15.0,1651069716187004.0
-7.0,-1.0,12.0,0.0,26.0,21.0,4.0,-15.0,1651069716187004.0
-6.0,8.0,8.0,3.0,-5.0,-13.0,-15.0,-13.0,1651069716193931.0
0.0,-29.0,3.0,9.0,11.0,9.0,-2.0,3.0,1651069716193931.0
10.0,12.0,-17.0,7.0,15.0,22.0,8.0,8.0,1651069716210055.0
7.0,11.0,10.0,-4.0,-11.0,-12.0,6.0,-1.0,1651069716210055.0
-14.0,-16.0,-7.0,-7.0,18.0,3.0,-23.0,-15.0,1651069716210985.0
-7.0,-14.0,2.0,-3.0,-16.0,-8.0,1.0,14.0,1651069716210985.0
1.0,2.0,2.0,13.0,-13.0,-5.0,-2.0,-6.0,1651069716232707.0
-4.0,-3.0,4.0,-3.0,8.0,3.0,-3.0,-3.0,1651069716232707.0
-5.0,-3.0,-10.0,-11.0,5.0,-4.0,0.0,3.0,1651069716233707.0
-4.0,6.0,0.0,5.0,-10.0,-7.0,-12.0,-27.0,1651069716233707.0
-1.0,-10.0,-1.0,2.0,-10.0,-7.0,-6.0,-3.0,1651069716246671.0
6.0,8.0,-4.0,-4.0,2.0,4.0,11.0,20.0,1651069716246671.0
-7.0,-14.0,2.0,-5.0,2.0,-2.0,-10.0,-17.0,1651069716253778.0
3.0,7.0,-3.0,-1.0,-4.0,5.0,3.0,3.0,1651069716253778.0
2.0,-7.0,-21.0,2.0,-1.0,-1.0,8.0,8.0,1651069716269438.0
2.0,2.0,-7.0,-9.0,-3.0,-4.0,4.0,5.0,1651069716269438.0
-4.0,-7.0,21.0,7.0,7.0,3.0,-6.0,-5.0,1651069716271367.0
-3.0,-2.0,-10.0,1.0,2.0,3.0,-4.0,-8.0,1651069716271367.0
-5.0,-3.0,-30.0,-18.0,-14.0,-6.0,8.0,12.0,1651069716292705.0
2.0,12.0,64.0,25.0,1.0,-7.0,-12.0,-9.0,1651069716292705.0
7.0,-9.0,-26.0,-12.0,9.0,9.0,8.0,1.0,1651069716293711.0
10.0,7.0,0.0,6.0,-3.0,0.0,1.0,-2.0,1651069716293711.0
-29.0,-21.0,0.0,-38.0,-17.0,-8.0,-9.0,-3.0,1651069716306737.0
0.0,-12.0,-35.0,-1.0,-7.0,-6.0,-1.0,5.0,1651069716306737.0
-1.0,3.0,25.0,23.0,9.0,0.0,-5.0,-3.0,1651069716313785.0
9.0,15.0,11.0,-19.0,-4.0,2.0,3.0,0.0,1651069716313785.0
4.0,1.0,-12.0,65.0,36.0,10.0,-8.0,-8.0,1651069716329975.0
-16.0,-29.0,9.0,-49.0,-19.0,-9.0,0.0,-1.0,1651069716329975.0
-12.0,-11.0,-8.0,-32.0,-34.0,-8.0,-2.0,5.0,1651069716330894.0
-5.0,-3.0,-9.0,-3.0,-2.0,-4.0,-4.0,-5.0,1651069716330894.0
11.0,0.0,-2.0,-15.0,-11.0,1.0,6.0,4.0,1651069716352712.0
8.0,9.0,-30.0,4.0,12.0,8.0,-1.0,0.0,1651069716352712.0
3.0,10.0,35.0,31.0,26.0,2.0,-6.0,-6.0,1651069716353681.0
-17.0,-11.0,-2.0,-17.0,-29.0,-10.0,5.0,-1.0,1651069716353681.0
7.0,9.0,29.0,33.0,26.0,6.0,-2.0,-1.0,1651069716366299.0
-10.0,-7.0,-18.0,-5.0,4.0,-4.0,-3.0,-5.0,1651069716366299.0
8.0,1.0,-18.0,-18.0,-20.0,-11.0,-12.0,-2.0,1651069716375330.0
6.0,5.0,-21.0,10.0,14.0,10.0,15.0,8.0,1651069716375330.0
0.0,10.0,48.0,-6.0,-9.0,-7.0,-6.0,-2.0,1651069716389473.0
14.0,-6.0,-18.0,-9.0,-3.0,-1.0,-1.0,1.0,1651069716389473.0
-15.0,-4.0,-1.0,-7.0,22.0,11.0,9.0,2.0,1651069716391441.0
-3.0,-1.0,-3.0,21.0,-21.0,-10.0,-6.0,-5.0,1651069716391441.0
0.0,2.0,3.0,3.0,4.0,2.0,2.0,-1.0,1651069716412587.0
1.0,0.0,2.0,-31.0,-21.0,-4.0,1.0,2.0,1651069716412587.0
5.0,10.0,14.0,11.0,-2.0,-1.0,2.0,3.0,1651069716413587.0
5.0,8.0,-16.0,-26.0,13.0,2.0,1.0,-2.0,1651069716413587.0
1.0,-2.0,5.0,1.0,-6.0,-3.0,-4.0,-2.0,1651069716425806.0
-15.0,-6.0,-10.0,-5.0,-19.0,-4.0,-2.0,-4.0,1651069716425806.0
2.0,-4.0,-12.0,28.0,15.0,4.0,4.0,3.0,1651069716434589.0
1.0,3.0,12.0,-23.0,-26.0,-11.0,-6.0,-6.0,1651069716434589.0
3.0,-2.0,-20.0,24.0,6.0,-1.0,1.0,0.0,1651069716449774.0
1.0,3.0,35.0,37.0,10.0,2.0,1.0,1.0,1651069716449774.0
0.0,-5.0,-31.0,-43.0,-13.0,-2.0,1.0,1.0,1651069716451700.0
0.0,-2.0,12.0,9.0,25.0,8.0,2.0,2.0,1651069716451700.0
4.0,-2.0,-7.0,-27.0,-31.0,-16.0,-9.0,-7.0,1651069716471761.0
-11.0,-4.0,6.0,20.0,4.0,-1.0,3.0,4.0,1651069716471761.0
-1.0,-5.0,-16.0,-16.0,-6.0,1.0,4.0,-1.0,1651069716479839.0
2.0,-1.0,5.0,13.0,1.0,2.0,2.0,1.0,1651069716479839.0
0.0,-4.0,1.0,12.0,8.0,4.0,1.0,3.0,1651069716485908.0
3.0,13.0,9.0,-11.0,3.0,1.0,0.0,-1.0,1651069716485908.0
-1.0,-7.0,-8.0,34.0,4.0,-1.0,3.0,3.0,1651069716494807.0
-4.0,-6.0,-2.0,-14.0,1.0,-1.0,-1.0,-3.0,1651069716494807.0
2.0,5.0,10.0,4.0,-1.0,0.0,1.0,1.0,1651069716510826.0
4.0,-1.0,-1.0,-18.0,6.0,4.0,2.0,0.0,1651069716510826.0
-2.0,0.0,0.0,1.0,-7.0,-4.0,-2.0,-1.0,1651069716512837.0
1.0,1.0,1.0,17.0,6.0,2.0,1.0,-1.0,1651069716512837.0
2.0,6.0,35.0,26.0,16.0,4.0,0.0,2.0,1651069716531900.0
-3.0,-12.0,-46.0,-53.0,-29.0,-13.0,-5.0,-5.0,1651069716531900.0
-2.0,-1.0,8.0,7.0,9.0,1.0,-1.0,-3.0,1651069716533877.0
-1.0,0.0,1.0,2.0,-3.0,0.0,0.0,-1.0,1651069716533877.0
-3.0,-3.0,-5.0,-9.0,2.0,0.0,0.0,-1.0,1651069716546370.0
1.0,5.0,5.0,10.0,1.0,2.0,0.0,2.0,1651069716546370.0
2.0,2.0,15.0,33.0,8.0,0.0,2.0,0.0,1651069716555342.0
0.0,-4.0,-6.0,-9.0,-10.0,-7.0,-4.0,-3.0,1651069716555342.0
-1.0,-5.0,-19.0,-20.0,-19.0,-6.0,-1.0,-2.0,1651069716569714.0
3.0,6.0,9.0,11.0,7.0,4.0,1.0,0.0,1651069716569714.0
-3.0,-2.0,-1.0,-11.0,-3.0,-1.0,0.0,-1.0,1651069716571667.0
1.0,2.0,7.0,22.0,13.0,4.0,-1.0,0.0,1651069716571667.0
-4.0,-4.0,-8.0,-15.0,-2.0,1.0,0.0,-1.0,1651069716592681.0
2.0,4.0,4.0,10.0,5.0,1.0,1.0,1.0,1651069716592681.0
0.0,-2.0,-3.0,-10.0,0.0,0.0,-1.0,0.0,1651069716593680.0
-3.0,-2.0,-4.0,-4.0,-3.0,-2.0,-2.0,-2.0,1651069716593680.0
1.0,2.0,-1.0,8.0,-2.0,-3.0,-1.0,1.0,1651069716606130.0
0.0,1.0,6.0,3.0,3.0,2.0,-1.0,-1.0,1651069716606130.0
-1.0,-1.0,-2.0,-8.0,-2.0,-1.0,-1.0,-3.0,1651069716614982.0
-1.0,-2.0,-3.0,0.0,-2.0,0.0,0.0,0.0,1651069716614982.0
-2.0,0.0,15.0,0.0,0.0,0.0,0.0,-1.0,1651069716630147.0
1.0,3.0,-16.0,10.0,9.0,2.0,2.0,1.0,1651069716630147.0
0.0,-1.0,4.0,-13.0,-4.0,-3.0,-1.0,0.0,1651069716631118.0
-2.0,0.0,1.0,-2.0,-3.0,-2.0,-3.0,0.0,1651069716631118.0
-1.0,-2.0,6.0,3.0,3.0,1.0,1.0,-2.0,1651069716652239.0
0.0,-1.0,3.0,10.0,3.0,1.0,-1.0,1.0,1651069716652239.0
-1.0,2.0,20.0,-4.0,-4.0,-1.0,-2.0,-3.0,1651069716654193.0
-3.0,-1.0,-8.0,1.0,3.0,0.0,-2.0,-1.0,1651069716654193.0
-1.0,-5.0,-21.0,-10.0,-1.0,2.0,1.0,1.0,1651069716666367.0
3.0,6.0,19.0,19.0,2.0,0.0,1.0,0.0,1651069716666367.0
-3.0,-6.0,-3.0,-21.0,-10.0,-2.0,-2.0,0.0,1651069716675084.0
2.0,2.0,-17.0,4.0,4.0,0.0,0.0,1.0,1651069716675084.0
1.0,2.0,12.0,5.0,-1.0,-2.0,-2.0,0.0,1651069716690079.0
0.0,-3.0,-17.0,-3.0,1.0,1.0,1.0,2.0,1651069716690079.0
2.0,-1.0,7.0,5.0,1.0,0.0,1.0,-2.0,1651069716691043.0
-2.0,-2.0,0.0,-3.0,-2.0,-1.0,-1.0,-2.0,1651069716691043.0
0.0,-4.0,-16.0,-11.0,-4.0,-2.0,-3.0,-2.0,1651069716712020.0
0.0,1.0,2.0,2.0,5.0,0.0,2.0,0.0,1651069716712020.0
0.0,-1.0,-9.0,-2.0,0.0,0.0,0.0,2.0,1651069716713981.0
0.0,-4.0,-3.0,-1.0,-1.0,0.0,0.0,0.0,1651069716713981.0
0.0,1.0,-1.0,0.0,0.0,-2.0,-1.0,1.0,1651069716725977.0
0.0,2.0,16.0,-1.0,-1.0,0.0,0.0,0.0,1651069716725977.0
0.0,-2.0,-16.0,-3.0,1.0,1.0,-1.0,-2.0,1651069716734926.0
-2.0,-2.0,7.0,2.0,-2.0,-1.0,1.0,0.0,1651069716734926.0
-2.0,-3.0,-21.0,-9.0,1.0,-1.0,-1.0,-1.0,1651069716750005.0
-1.0,1.0,11.0,2.0,-3.0,-2.0,-2.0,-1.0,1651069716750005.0
-1.0,1.0,6.0,2.0,0.0,-1.0,-1.0,2.0,1651069716751016.0
0.0,0.0,6.0,-2.0,-1.0,1.0,0.0,-3.0,1651069716751016.0
-1.0,-1.0,1.0,-1.0,-1.0,2.0,1.0,1.0,1651069716772174.0
0.0,-1.0,-5.0,-1.0,0.0,0.0,1.0,-1.0,1651069716772174.0
1.0,1.0,17.0,3.0,0.0,0.0,-1.0,-1.0,1651069716774101.0
1.0,1.0,1.0,-2.0,0.0,-3.0,0.0,0.0,1651069716774101.0
-2.0,0.0,-1.0,-1.0,-1.0,-1.0,-2.0,-2.0,1651069716786234.0
0.0,4.0,16.0,2.0,-2.0,-1.0,0.0,-1.0,1651069716786234.0
-1.0,-2.0,-9.0,3.0,2.0,1.0,-1.0,0.0,1651069716795143.0
-2.0,-5.0,-8.0,-6.0,-3.0,0.0,0.0,-1.0,1651069716795143.0
0.0,0.0,10.0,3.0,-1.0,-2.0,0.0,-1.0,1651069716810203.0
-1.0,-4.0,-7.0,-4.0,-1.0,-3.0,-2.0,1.0,1651069716810203.0
1.0,-1.0,-14.0,-3.0,0.0,-2.0,-1.0,-1.0,1651069716811200.0
0.0,-2.0,13.0,4.0,3.0,1.0,1.0,0.0,1651069716811200.0
0.0,1.0,7.0,-1.0,0.0,1.0,0.0,0.0,1651069716839332.0
0.0,0.0,-1.0,-2.0,0.0,0.0,-1.0,-2.0,1651069716839332.0
-1.0,0.0,-10.0,-14.0,-5.0,-4.0,0.0,-1.0,1651069716841271.0
0.0,-1.0,-2.0,-1.0,-3.0,-2.0,-1.0,1.0,1651069716841271.0
-1.0,2.0,25.0,11.0,2.0,-1.0,0.0,-1.0,1651069716854395.0
1.0,0.0,-14.0,-4.0,-3.0,-1.0,0.0,-1.0,1651069716854395.0
1.0,-1.0,17.0,10.0,1.0,1.0,1.0,-1.0,1651069716856361.0
-1.0,0.0,-3.0,-5.0,0.0,-1.0,1.0,0.0,1651069716856361.0
-1.0,0.0,-4.0,-5.0,-3.0,-3.0,1.0,0.0,1651069716869839.0
-1.0,2.0,26.0,6.0,2.0,-1.0,-2.0,-2.0,1651069716869839.0
-2.0,-3.0,-21.0,-5.0,1.0,0.0,1.0,1.0,1651069716870839.0
0.0,1.0,17.0,6.0,0.0,-1.0,-2.0,-2.0,1651069716870839.0
-1.0,0.0,-9.0,0.0,0.0,-1.0,0.0,0.0,1651069716892703.0
-1.0,-4.0,-22.0,-6.0,-2.0,-2.0,-2.0,-1.0,1651069716892703.0
-2.0,0.0,-6.0,0.0,-2.0,1.0,0.0,0.0,1651069716893711.0
0.0,3.0,3.0,1.0,0.0,1.0,-2.0,1.0,1651069716893711.0
1.0,0.0,-4.0,-4.0,0.0,0.0,-1.0,-1.0,1651069716914501.0
-2.0,0.0,3.0,2.0,0.0,1.0,1.0,1.0,1651069716914501.0
0.0,-1.0,3.0,-2.0,-2.0,-2.0,-1.0,-3.0,1651069716916488.0
0.0,-3.0,-4.0,-3.0,-1.0,-1.0,0.0,0.0,1651069716916488.0
0.0,-2.0,-8.0,-1.0,-1.0,-1.0,1.0,-1.0,1651069716929520.0
-1.0,-1.0,12.0,1.0,-2.0,0.0,-2.0,-2.0,1651069716929520.0
0.0,0.0,-5.0,0.0,1.0,-2.0,-1.0,-1.0,1651069716931448.0
-1.0,-1.0,-11.0,-3.0,1.0,0.0,2.0,0.0,1651069716931448.0
-2.0,3.0,29.0,3.0,-1.0,1.0,-1.0,0.0,1651069716952474.0
0.0,-2.0,-10.0,-5.0,-2.0,-2.0,-1.0,0.0,1651069716952474.0
1.0,0.0,-11.0,-1.0,0.0,0.0,0.0,0.0,1651069716953432.0
0.0,1.0,11.0,2.0,-1.0,-1.0,-1.0,0.0,1651069716953432.0
1.0,-3.0,-10.0,-1.0,1.0,0.0,1.0,1.0,1651069716975118.0
-1.0,-1.0,-8.0,0.0,2.0,-1.0,1.0,-1.0,1651069716975118.0
-1.0,-1.0,3.0,2.0,1.0,2.0,0.0,-3.0,1651069716976292.0
-1.0,-2.0,-7.0,-4.0,-6.0,-2.0,-1.0,0.0,1651069716976292.0
2.0,0.0,0.0,0.0,-2.0,0.0,0.0,-2.0,1651069716989323.0
-1.0,-1.0,-5.0,-4.0,-2.0,-1.0,-3.0,-1.0,1651069716989323.0
0.0,-2.0,11.0,4.0,2.0,0.0,-1.0,-2.0,1651069716995547.0
-1.0,1.0,1.0,0.0,-2.0,-3.0,-2.0,0.0,1651069716995547.0
-2.0,0.0,-8.0,0.0,1.0,0.0,-1.0,-1.0,1651069717012504.0
0.0,1.0,3.0,1.0,1.0,2.0,2.0,-1.0,1651069717012504.0
0.0,0.0,2.0,0.0,-1.0,0.0,0.0,1.0,1651069717013502.0
-1.0,-2.0,-5.0,-3.0,1.0,-2.0,-1.0,-1.0,1651069717013502.0
-1.0,0.0,1.0,-1.0,-2.0,-3.0,-1.0,-2.0,1651069717035558.0
-2.0,-1.0,-4.0,-1.0,0.0,1.0,0.0,-1.0,1651069717035558.0
-2.0,0.0,-3.0,-2.0,0.0,-1.0,-1.0,-1.0,1651069717036488.0
-2.0,0.0,-6.0,-1.0,-1.0,-1.0,-1.0,0.0,1651069717036488.0
-1.0,1.0,-5.0,-1.0,-3.0,-2.0,-1.0,-2.0,1651069717049471.0
-1.0,-3.0,-3.0,1.0,-1.0,-1.0,-4.0,0.0,1651069717049471.0
-1.0,0.0,-2.0,-4.0,-5.0,-3.0,-1.0,0.0,1651069717055555.0
0.0,-3.0,-17.0,-1.0,2.0,1.0,0.0,-1.0,1651069717055555.0
0.0,1.0,29.0,7.0,0.0,-1.0,0.0,1.0,1651069717072622.0
1.0,0.0,3.0,-1.0,-1.0,-3.0,0.0,1.0,1651069717072622.0
-1.0,-2.0,-4.0,-1.0,0.0,0.0,-2.0,0.0,1651069717073599.0
0.0,0.0,-2.0,0.0,3.0,0.0,0.0,-2.0,1651069717073599.0
-1.0,-2.0,-3.0,-2.0,-1.0,-1.0,0.0,0.0,1651069717094421.0
0.0,-1.0,-2.0,-1.0,0.0,0.0,2.0,0.0,1651069717094421.0
0.0,0.0,0.0,-1.0,-1.0,2.0,-1.0,0.0,1651069717096350.0
-2.0,1.0,9.0,0.0,-1.0,-1.0,-1.0,-2.0,1651069717096350.0
-2.0,-2.0,-8.0,-2.0,1.0,1.0,0.0,-1.0,1651069717109319.0
-1.0,-2.0,-4.0,-3.0,-2.0,-2.0,-1.0,-2.0,1651069717109319.0
-2.0,0.0,-4.0,-2.0,-1.0,-1.0,0.0,-1.0,1651069717117293.0
-1.0,-2.0,0.0,2.0,1.0,1.0,2.0,-2.0,1651069717117293.0
0.0,1.0,-6.0,-3.0,0.0,0.0,1.0,1.0,1651069717132637.0
-1.0,-2.0,-8.0,-4.0,-1.0,-3.0,-1.0,0.0,1651069717132637.0
-1.0,1.0,3.0,1.0,0.0,0.0,-1.0,-1.0,1651069717133625.0
0.0,0.0,4.0,-2.0,-1.0,0.0,1.0,0.0,1651069717133625.0
-2.0,-2.0,-3.0,-1.0,-1.0,-1.0,-1.0,-1.0,1651069717154563.0
2.0,0.0,2.0,-1.0,-2.0,0.0,0.0,-1.0,1651069717154563.0
-1.0,-3.0,-16.0,-4.0,0.0,0.0,-1.0,-1.0,1651069717156586.0
0.0,-2.0,3.0,0.0,-5.0,-3.0,-1.0,-1.0,1651069717156586.0
0.0,0.0,-6.0,-2.0,-1.0,1.0,1.0,1.0,1651069717169551.0
0.0,1.0,-2.0,-2.0,0.0,0.0,2.0,0.0,1651069717169551.0
-1.0,1.0,3.0,-1.0,1.0,-2.0,0.0,0.0,1651069717175575.0
0.0,-1.0,-7.0,-3.0,1.0,0.0,0.0,0.0,1651069717175575.0
0.0,0.0,-1.0,-1.0,-2.0,-2.0,-2.0,-1.0,1651069717192619.0
-1.0,-1.0,0.0,0.0,-1.0,-2.0,-1.0,-1.0,1651069717192619.0
1.0,0.0,9.0,2.0,-1.0,0.0,0.0,-1.0,1651069717193562.0
1.0,0.0,1.0,-1.0,1.0,1.0,-1.0,0.0,1651069717193562.0
-2.0,-2.0,-1.0,-2.0,-3.0,0.0,2.0,-1.0,1651069717214560.0
0.0,-1.0,-5.0,0.0,2.0,3.0,0.0,1.0,1651069717214560.0
0.0,1.0,2.0,0.0,-2.0,0.0,0.0,-1.0,1651069717216516.0
1.0,2.0,0.0,-2.0,-3.0,-1.0,-1.0,-2.0,1651069717216516.0
0.0,-1.0,-8.0,0.0,0.0,0.0,-2.0,-1.0,1651069717229977.0
1.0,0.0,6.0,1.0,0.0,0.0,0.0,-1.0,1651069717229977.0
0.0,-1.0,-4.0,-1.0,0.0,0.0,2.0,0.0,1651069717236030.0
-2.0,-1.0,2.0,0.0,0.0,1.0,-1.0,-1.0,1651069717236030.0
1.0,0.0,2.0,-1.0,-2.0,-3.0,-2.0,-1.0,1651069717252162.0
0.0,-1.0,-22.0,-8.0,-1.0,0.0,-1.0,0.0,1651069717252162.0
0.0,0.0,3.0,3.0,0.0,0.0,-1.0,0.0,1651069717254090.0
-1.0,1.0,0.0,1.0,0.0,1.0,1.0,-1.0,1651069717254090.0
1.0,0.0,5.0,0.0,1.0,-2.0,0.0,-1.0,1651069717275158.0
-1.0,1.0,4.0,-1.0,-1.0,-2.0,-1.0,-1.0,1651069717275158.0
0.0,0.0,8.0,2.0,-1.0,-2.0,-1.0,1.0,1651069717276115.0
-1.0,-2.0,-5.0,-3.0,-1.0,1.0,0.0,-1.0,1651069717276115.0
-1.0,0.0,-5.0,-1.0,1.0,0.0,0.0,-2.0,1651069717289080.0
-1.0,1.0,4.0,2.0,1.0,0.0,-1.0,1.0,1651069717289080.0
0.0,-1.0,-6.0,-4.0,-1.0,-2.0,0.0,-2.0,1651069717296090.0
-3.0,0.0,3.0,3.0,-2.0,-2.0,-2.0,-1.0,1651069717296090.0
-1.0,-1.0,1.0,0.0,1.0,0.0,0.0,-1.0,1651069717312086.0
-1.0,-2.0,-1.0,0.0,0.0,-1.0,0.0,-2.0,1651069717312086.0
0.0,-2.0,-2.0,-3.0,0.0,1.0,0.0,1.0,1651069717314040.0
0.0,1.0,2.0,-1.0,-2.0,0.0,0.0,0.0,1651069717314040.0
-1.0,0.0,-5.0,-1.0,-2.0,1.0,1.0,1.0,1651069717335143.0
-2.0,-1.0,0.0,0.0,-1.0,0.0,-1.0,-2.0,1651069717335143.0
0.0,-3.0,-2.0,-2.0,-3.0,-2.0,0.0,-2.0,1651069717336296.0
0.0,0.0,5.0,3.0,0.0,0.0,-2.0,0.0,1651069717336296.0
-3.0,-2.0,-12.0,-3.0,-3.0,0.0,-3.0,1.0,1651069717348266.0
-1.0,-1.0,3.0,2.0,-1.0,-2.0,-1.0,0.0,1651069717348266.0
-2.0,-1.0,-1.0,1.0,-1.0,-1.0,-1.0,-2.0,1651069717357239.0
-1.0,-2.0,-4.0,-3.0,0.0,-2.0,-1.0,0.0,1651069717357239.0
-1.0,-2.0,-2.0,-2.0,2.0,0.0,-1.0,-1.0,1651069717372658.0
0.0,-1.0,1.0,0.0,-2.0,0.0,1.0,0.0,1651069717372658.0
0.0,-1.0,12.0,4.0,1.0,1.0,-1.0,0.0,1651069717373620.0
-1.0,2.0,-19.0,-7.0,0.0,-2.0,-1.0,0.0,1651069717373620.0
2.0,0.0,3.0,0.0,0.0,0.0,-1.0,0.0,1651069717394808.0
0.0,-1.0,0.0,-1.0,1.0,-1.0,-2.0,0.0,1651069717394808.0
-1.0,1.0,3.0,-1.0,0.0,-2.0,-2.0,0.0,1651069717396736.0
0.0,1.0,5.0,1.0,1.0,0.0,0.0,-1.0,1651069717396736.0
-1.0,-1.0,0.0,-1.0,1.0,-2.0,1.0,-1.0,1651069717408800.0
0.0,0.0,-1.0,-1.0,1.0,2.0,-1.0,-1.0,1651069717408800.0
-1.0,0.0,-7.0,-4.0,0.0,0.0,0.0,-2.0,1651069717417768.0
1.0,0.0,1.0,-1.0,0.0,0.0,-2.0,-1.0,1651069717417768.0
-1.0,-1.0,-3.0,-1.0,-1.0,-3.0,-2.0,-2.0,1651069717432003.0
-2.0,-2.0,-2.0,-2.0,-3.0,0.0,2.0,0.0,1651069717432003.0
-1.0,0.0,-9.0,-2.0,-2.0,-1.0,-2.0,0.0,1651069717434030.0
1.0,-2.0,3.0,2.0,2.0,2.0,1.0,1.0,1651069717434030.0
1.0,0.0,1.0,0.0,0.0,0.0,0.0,1.0,1651069717455058.0
0.0,-2.0,-3.0,-2.0,-1.0,-1.0,-1.0,-2.0,1651069717455058.0
-2.0,-1.0,1.0,0.0,-3.0,-2.0,0.0,0.0,1651069717456056.0
0.0,-1.0,0.0,-1.0,-3.0,-1.0,-1.0,0.0,1651069717456056.0
-1.0,-1.0,-3.0,-1.0,-1.0,0.0,1.0,-1.0,1651069717468090.0
0.0,-1.0,-1.0,-1.0,-2.0,-5.0,-1.0,-2.0,1651069717468090.0
0.0,1.0,-2.0,-1.0,-2.0,4.0,1.0,0.0,1651069717477066.0
-1.0,-1.0,1.0,-2.0,0.0,-3.0,0.0,1.0,1651069717477066.0
-1.0,-1.0,3.0,0.0,-6.0,-3.0,-2.0,-1.0,1651069717492706.0
-1.0,0.0,-2.0,0.0,2.0,1.0,-2.0,0.0,1651069717492706.0
0.0,0.0,1.0,-2.0,-10.0,-12.0,-5.0,-1.0,1651069717493703.0
-1.0,-2.0,-1.0,1.0,5.0,4.0,0.0,0.0,1651069717493703.0
2.0,2.0,3.0,9.0,18.0,11.0,5.0,5.0,1651069717514704.0
-2.0,-1.0,0.0,-4.0,-1.0,-4.0,-2.0,-1.0,1651069717514704.0
0.0,-1.0,-2.0,-1.0,-1.0,2.0,0.0,-1.0,1651069717516633.0
-2.0,1.0,1.0,-4.0,-17.0,-13.0,-4.0,-3.0,1651069717516633.0
-1.0,-3.0,-5.0,-7.0,-3.0,-6.0,-3.0,-3.0,1651069717528667.0
0.0,-1.0,1.0,5.0,2.0,3.0,0.0,0.0,1651069717528667.0
-2.0,-1.0,-3.0,-2.0,1.0,-3.0,-1.0,0.0,1651069717537412.0
-1.0,-1.0,1.0,0.0,6.0,2.0,0.0,-2.0,1651069717537412.0
0.0,0.0,-2.0,-3.0,-7.0,-1.0,0.0,-1.0,1651069717559914.0
0.0,0.0,2.0,-1.0,-1.0,-3.0,-2.0,0.0,1651069717559914.0
0.0,-1.0,-2.0,0.0,-1.0,5.0,1.0,2.0,1651069717560845.0
-1.0,1.0,-2.0,1.0,-1.0,-1.0,-1.0,-2.0,1651069717560845.0
-1.0,0.0,1.0,2.0,9.0,4.0,0.0,-2.0,1651069717574958.0
0.0,0.0,0.0,-2.0,-4.0,-3.0,1.0,1.0,1651069717574958.0
0.0,0.0,-2.0,-3.0,1.0,2.0,0.0,-1.0,1651069717575964.0
-1.0,-2.0,-1.0,1.0,3.0,1.0,0.0,-1.0,1651069717575964.0
-4.0,-2.0,-1.0,-5.0,-10.0,-11.0,-5.0,-2.0,1651069717587928.0
-1.0,0.0,1.0,2.0,0.0,5.0,1.0,0.0,1651069717587928.0
-1.0,-2.0,-1.0,4.0,11.0,6.0,2.0,-1.0,1651069717596968.0
0.0,1.0,5.0,0.0,-1.0,1.0,1.0,1.0,1651069717596968.0
0.0,0.0,-2.0,-1.0,2.0,-3.0,-1.0,0.0,1651069717612589.0
-2.0,-1.0,-1.0,-3.0,-3.0,-2.0,0.0,-1.0,1651069717612589.0
0.0,2.0,2.0,-1.0,-1.0,-7.0,-1.0,1.0,1651069717613988.0
0.0,-1.0,-3.0,-2.0,-4.0,3.0,0.0,-2.0,1651069717613988.0
-1.0,0.0,2.0,1.0,5.0,12.0,2.0,1.0,1651069717635142.0
-1.0,0.0,-2.0,-1.0,0.0,-3.0,-1.0,-1.0,1651069717635142.0
0.0,-1.0,-2.0,-3.0,-3.0,-2.0,-1.0,-3.0,1651069717636316.0
0.0,-1.0,-2.0,-4.0,-19.0,-13.0,-2.0,1.0,1651069717636316.0
-2.0,-1.0,-2.0,-3.0,-6.0,-1.0,-1.0,-1.0,1651069717648283.0
1.0,2.0,2.0,4.0,8.0,12.0,3.0,1.0,1651069717648283.0
-1.0,0.0,4.0,2.0,8.0,2.0,1.0,0.0,1651069717657260.0
0.0,1.0,-1.0,-1.0,5.0,6.0,0.0,0.0,1651069717657260.0
-4.0,-1.0,-2.0,-4.0,-1.0,-6.0,-3.0,-2.0,1651069717672704.0
-1.0,-3.0,-1.0,-3.0,-4.0,3.0,-1.0,-1.0,1651069717672704.0
-1.0,-3.0,-2.0,-2.0,-10.0,-4.0,0.0,0.0,1651069717674709.0
0.0,2.0,4.0,3.0,4.0,2.0,1.0,0.0,1651069717674709.0
0.0,-1.0,-3.0,-1.0,-5.0,1.0,-1.0,-1.0,1651069717694815.0
-2.0,0.0,0.0,-2.0,-6.0,-2.0,2.0,-2.0,1651069717694815.0
-1.0,-2.0,-5.0,-1.0,-2.0,-4.0,-3.0,-1.0,1651069717696768.0
0.0,-2.0,-2.0,1.0,-3.0,-1.0,-2.0,-2.0,1651069717696768.0
1.0,2.0,2.0,0.0,5.0,7.0,0.0,1.0,1651069717708796.0
2.0,1.0,1.0,0.0,2.0,-6.0,0.0,1.0,1651069717708796.0
0.0,0.0,2.0,6.0,20.0,8.0,2.0,0.0,1651069717717731.0
0.0,-1.0,1.0,-6.0,-13.0,-4.0,-2.0,-1.0,1651069717717731.0
0.0,2.0,0.0,10.0,13.0,6.0,2.0,2.0,1651069717731317.0
-3.0,-1.0,-1.0,-9.0,-19.0,-1.0,-1.0,-2.0,1651069717731317.0
2.0,-1.0,0.0,7.0,35.0,16.0,5.0,8.0,1651069717739657.0
-2.0,-6.0,-14.0,-6.0,-8.0,-9.0,-5.0,-4.0,1651069717739657.0
-2.0,-3.0,-3.0,-7.0,-11.0,-10.0,-6.0,-6.0,1651069717754886.0
0.0,1.0,-1.0,2.0,-3.0,-5.0,0.0,-1.0,1651069717754886.0
1.0,0.0,3.0,0.0,-2.0,15.0,4.0,0.0,1651069717755897.0
-1.0,-2.0,1.0,1.0,6.0,-1.0,-1.0,2.0,1651069717755897.0
0.0,-1.0,-2.0,-5.0,-12.0,-3.0,-3.0,-1.0,1651069717777012.0
-1.0,-1.0,-3.0,5.0,3.0,-6.0,-4.0,-3.0,1651069717777012.0
1.0,2.0,0.0,-9.0,-27.0,-19.0,-4.0,-3.0,1651069717778968.0
-2.0,-2.0,-5.0,3.0,14.0,4.0,0.0,-2.0,1651069717778968.0
0.0,3.0,4.0,1.0,2.0,7.0,2.0,4.0,1651069717791972.0
-1.0,-4.0,-6.0,-7.0,-4.0,-5.0,-1.0,0.0,1651069717791972.0
0.0,1.0,6.0,3.0,-5.0,-4.0,0.0,-1.0,1651069717797961.0
-1.0,0.0,-5.0,-2.0,4.0,5.0,5.0,3.0,1651069717797961.0
-6.0,-6.0,-5.0,-11.0,-19.0,-10.0,-7.0,-11.0,1651069717814758.0
-1.0,3.0,2.0,5.0,24.0,14.0,1.0,0.0,1651069717814758.0
-1.0,-1.0,-4.0,0.0,-9.0,-6.0,-3.0,-1.0,1651069717816693.0
0.0,-1.0,-2.0,-11.0,-16.0,-11.0,6.0,12.0,1651069717816693.0
-1.0,-5.0,-7.0,-7.0,-11.0,-9.0,-9.0,-16.0,1651069717836866.0
0.0,0.0,3.0,13.0,20.0,13.0,2.0,-1.0,1651069717836866.0
-3.0,1.0,1.0,-2.0,-7.0,-4.0,-4.0,-7.0,1651069717838802.0
-2.0,1.0,7.0,3.0,7.0,5.0,2.0,0.0,1651069717838802.0
1.0,-2.0,-6.0,-3.0,-5.0,-2.0,3.0,6.0,1651069717851928.0
0.0,-3.0,-5.0,3.0,15.0,5.0,-7.0,-4.0,1651069717851928.0
-3.0,0.0,-2.0,2.0,-1.0,-7.0,-9.0,-9.0,1651069717857980.0
2.0,-1.0,4.0,9.0,4.0,3.0,4.0,7.0,1651069717857980.0
1.0,-1.0,2.0,-3.0,-14.0,-6.0,9.0,12.0,1651069717875144.0
-2.0,-1.0,-2.0,-4.0,-21.0,-18.0,-5.0,-3.0,1651069717875144.0
4.0,4.0,-2.0,2.0,14.0,11.0,-3.0,-1.0,1651069717876125.0
-1.0,1.0,-3.0,-6.0,-6.0,6.0,-1.0,-7.0,1651069717876125.0
-7.0,-4.0,2.0,10.0,11.0,0.0,-4.0,5.0,1651069717897310.0
7.0,5.0,-1.0,-11.0,-22.0,-8.0,11.0,8.0,1651069717897310.0
1.0,2.0,5.0,9.0,5.0,-8.0,-4.0,1.0,1651069717899237.0
-3.0,-2.0,-3.0,4.0,10.0,4.0,-4.0,-11.0,1651069717899237.0
1.0,3.0,5.0,2.0,1.0,-2.0,-4.0,1.0,1651069717911297.0
-4.0,-4.0,-9.0,-10.0,5.0,7.0,3.0,-1.0,1651069717911297.0
-5.0,-9.0,-5.0,-13.0,-19.0,-9.0,2.0,-1.0,1651069717926366.0
0.0,3.0,15.0,34.0,33.0,9.0,-1.0,-4.0,1651069717926366.0
-6.0,-13.0,-14.0,-12.0,4.0,2.0,3.0,0.0,1651069717934513.0
-6.0,-4.0,3.0,-4.0,-34.0,-19.0,-9.0,-3.0,1651069717934513.0
9.0,15.0,-2.0,-7.0,4.0,8.0,10.0,4.0,1651069717936441.0
-5.0,-10.0,1.0,-8.0,-6.0,4.0,-1.0,0.0,1651069717936441.0
1.0,4.0,3.0,9.0,15.0,11.0,-6.0,-7.0,1651069717957530.0
-1.0,-1.0,1.0,-10.0,-20.0,-7.0,-1.0,-2.0,1651069717957530.0
-6.0,-6.0,-2.0,-7.0,-20.0,-15.0,-11.0,-4.0,1651069717958527.0
-3.0,6.0,0.0,-10.0,-21.0,-13.0,8.0,4.0,1651069717958527.0
-5.0,-6.0,0.0,6.0,28.0,12.0,8.0,-1.0,1651069717971559.0
7.0,10.0,-2.0,4.0,8.0,-5.0,-14.0,-3.0,1651069717971559.0
4.0,-3.0,-5.0,-2.0,7.0,18.0,24.0,15.0,1651069717978475.0
5.0,12.0,-1.0,-7.0,0.0,-4.0,-8.0,-1.0,1651069717978475.0
-2.0,-20.0,-4.0,0.0,-5.0,-3.0,4.0,5.0,1651069717995116.0
-7.0,-9.0,-4.0,-4.0,1.0,-3.0,-1.0,-5.0,1651069717995116.0
5.0,4.0,6.0,9.0,14.0,8.0,-1.0,2.0,1651069717996305.0
-9.0,0.0,-11.0,-7.0,-11.0,-9.0,-9.0,-5.0,1651069717996305.0
-2.0,-6.0,4.0,9.0,9.0,6.0,6.0,-1.0,1651069718017394.0
2.0,-2.0,-4.0,-1.0,1.0,4.0,1.0,4.0,1651069718017394.0
2.0,1.0,5.0,4.0,-3.0,0.0,3.0,5.0,1651069718018436.0
-6.0,-4.0,-11.0,-16.0,-32.0,-16.0,-12.0,-11.0,1651069718018436.0
6.0,9.0,4.0,22.0,25.0,7.0,0.0,3.0,1651069718031477.0
8.0,6.0,6.0,3.0,23.0,14.0,16.0,13.0,1651069718031477.0
-1.0,-1.0,-6.0,-7.0,-9.0,-5.0,-2.0,-1.0,1651069718038474.0
1.0,-4.0,2.0,4.0,-7.0,-7.0,-1.0,-3.0,1651069718038474.0
0.0,3.0,-10.0,-3.0,6.0,-3.0,-7.0,-1.0,1651069718054632.0
-1.0,8.0,9.0,11.0,6.0,21.0,5.0,2.0,1651069718054632.0
-2.0,-3.0,-1.0,-1.0,10.0,1.0,4.0,4.0,1651069718056561.0
1.0,-2.0,6.0,10.0,9.0,1.0,-2.0,-8.0,1651069718056561.0
7.0,14.0,8.0,-9.0,-29.0,-9.0,3.0,9.0,1651069718077426.0
-5.0,-7.0,-1.0,11.0,16.0,-6.0,-5.0,-11.0,1651069718077426.0
-6.0,-2.0,-3.0,-18.0,-26.0,-9.0,-4.0,-5.0,1651069718078358.0
15.0,11.0,9.0,13.0,7.0,5.0,7.0,17.0,1651069718078358.0
-2.0,-9.0,-10.0,-16.0,-9.0,1.0,1.0,-2.0,1651069718091331.0
5.0,6.0,-2.0,1.0,21.0,7.0,-7.0,-8.0,1651069718091331.0
-8.0,-14.0,-11.0,1.0,3.0,1.0,-3.0,-4.0,1651069718100298.0
-5.0,-1.0,0.0,-11.0,-12.0,-5.0,0.0,3.0,1651069718100298.0
9.0,19.0,12.0,10.0,24.0,9.0,8.0,-6.0,1651069718114715.0
-3.0,-2.0,-5.0,-11.0,-5.0,-8.0,-6.0,1.0,1651069718114715.0
-6.0,-25.0,2.0,26.0,27.0,-2.0,-4.0,0.0,1651069718116662.0
0.0,-3.0,-4.0,-12.0,-2.0,3.0,-1.0,2.0,1651069718116662.0
2.0,14.0,5.0,5.0,-9.0,-4.0,-7.0,-12.0,1651069718137708.0
-10.0,-6.0,0.0,-15.0,-35.0,-8.0,-4.0,-12.0,1651069718137708.0
-1.0,-4.0,-8.0,5.0,16.0,-8.0,2.0,1.0,1651069718138660.0
-4.0,-11.0,-5.0,7.0,30.0,24.0,6.0,7.0,1651069718138660.0
0.0,1.0,4.0,-7.0,-13.0,-4.0,-1.0,-3.0,1651069718150627.0
-2.0,1.0,-10.0,-10.0,-9.0,1.0,4.0,12.0,1651069718150627.0
-3.0,-9.0,5.0,-10.0,-29.0,-11.0,-14.0,-15.0,1651069718160302.0
1.0,1.0,0.0,-6.0,8.0,-18.0,2.0,3.0,1651069718160302.0
8.0,23.0,7.0,0.0,-10.0,11.0,-2.0,3.0,1651069718175243.0
-10.0,-16.0,3.0,6.0,30.0,-3.0,-22.0,-26.0,1651069718175243.0
5.0,22.0,-19.0,-8.0,-35.0,-6.0,27.0,35.0,1651069718176340.0
20.0,22.0,34.0,2.0,32.0,20.0,-15.0,1.0,1651069718176340.0
-19.0,-9.0,-25.0,-19.0,-66.0,-39.0,-14.0,-31.0,1651069718197166.0
-1.0,-22.0,-15.0,17.0,26.0,10.0,1.0,16.0,1651069718197166.0
-2.0,9.0,33.0,-9.0,-11.0,-12.0,-21.0,-27.0,1651069718199179.0
-1.0,-8.0,-25.0,-61.0,-100.0,-41.0,3.0,10.0,1651069718199179.0
22.0,39.0,39.0,107.0,99.0,63.0,32.0,18.0,1651069718211180.0
-4.0,-8.0,-15.0,-67.0,-55.0,6.0,-13.0,13.0,1651069718211180.0
2.0,6.0,-2.0,22.0,-1.0,-3.0,19.0,-10.0,1651069718237267.0
-40.0,-42.0,-30.0,-27.0,-11.0,-8.0,-38.0,-75.0,1651069718237267.0
6.0,-19.0,5.0,-4.0,-6.0,-20.0,-5.0,15.0,1651069718238262.0
52.0,47.0,8.0,-9.0,-10.0,3.0,16.0,42.0,1651069718238262.0
-18.0,-21.0,12.0,28.0,71.0,36.0,11.0,-29.0,1651069718241285.0
-4.0,-4.0,-11.0,3.0,-3.0,-15.0,-13.0,-4.0,1651069718241285.0
-20.0,-19.0,-8.0,-60.0,-49.0,-32.0,-22.0,-44.0,1651069718256221.0
-25.0,-18.0,0.0,54.0,14.0,7.0,-1.0,-26.0,1651069718256221.0
4.0,-5.0,2.0,-31.0,-37.0,-15.0,-14.0,27.0,1651069718257212.0
-10.0,13.0,1.0,22.0,27.0,13.0,23.0,-20.0,1651069718257212.0
25.0,-5.0,10.0,-26.0,-7.0,-8.0,-2.0,47.0,1651069718279476.0
6.0,16.0,20.0,52.0,-22.0,-9.0,13.0,10.0,1651069718279476.0
0.0,44.0,-8.0,-62.0,-36.0,-17.0,-15.0,-32.0,1651069718279476.0
2.0,-24.0,-7.0,19.0,18.0,-1.0,12.0,-1.0,1651069718279476.0
15.0,18.0,8.0,15.0,-5.0,5.0,-5.0,45.0,1651069718294466.0
9.0,5.0,3.0,-17.0,15.0,3.0,5.0,-7.0,1651069718294466.0
-8.0,-2.0,13.0,31.0,-7.0,-8.0,11.0,-13.0,1651069718294466.0
17.0,26.0,4.0,-24.0,-26.0,-4.0,4.0,55.0,1651069718294466.0
-1.0,-10.0,-12.0,16.0,23.0,4.0,-18.0,-41.0,1651069718316447.0
-5.0,5.0,19.0,3.0,-4.0,-13.0,22.0,22.0,1651069718316447.0
-9.0,-9.0,-28.0,-5.0,1.0,3.0,-25.0,-26.0,1651069718317377.0
29.0,3.0,22.0,5.0,-17.0,17.0,56.0,57.0,1651069718317377.0
-3.0,11.0,-15.0,-23.0,34.0,3.0,1.0,-23.0,1651069718338792.0
-13.0,0.0,-18.0,29.0,13.0,1.0,-8.0,1.0,1651069718338792.0
7.0,-13.0,26.0,12.0,43.0,27.0,-4.0,-3.0,1651069718339799.0
-3.0,3.0,-13.0,5.0,-18.0,-11.0,-23.0,-14.0,1651069718339799.0
-14.0,-17.0,13.0,6.0,-19.0,-3.0,-4.0,-16.0,1651069718354416.0
-17.0,-17.0,-9.0,-21.0,-11.0,0.0,-2.0,-17.0,1651069718354416.0
11.0,-28.0,0.0,37.0,48.0,12.0,13.0,32.0,1651069718354416.0
-30.0,-15.0,-35.0,-44.0,-76.0,-26.0,-23.0,-65.0,1651069718354416.0
53.0,32.0,30.0,24.0,55.0,55.0,51.0,89.0,1651069718376739.0
-25.0,-7.0,-18.0,-22.0,-19.0,-26.0,-25.0,-44.0,1651069718376739.0
4.0,3.0,-1.0,14.0,-8.0,6.0,-6.0,-3.0,1651069718377669.0
16.0,7.0,20.0,-4.0,11.0,12.0,20.0,11.0,1651069718377669.0
-19.0,-26.0,-25.0,25.0,-16.0,-32.0,-9.0,-16.0,1651069718398680.0
-10.0,4.0,-3.0,22.0,-3.0,-9.0,-10.0,9.0,1651069718398680.0
5.0,-4.0,19.0,8.0,3.0,6.0,17.0,8.0,1651069718399625.0
-22.0,-30.0,-24.0,-31.0,21.0,-1.0,-17.0,-37.0,1651069718399625.0
-10.0,30.0,-10.0,0.0,-43.0,-12.0,9.0,11.0,1651069718414571.0
13.0,-15.0,19.0,20.0,15.0,6.0,1.0,-4.0,1651069718414571.0
-15.0,-22.0,-25.0,3.0,-7.0,-20.0,-9.0,-4.0,1651069718414571.0
5.0,19.0,13.0,-12.0,-61.0,-20.0,-9.0,6.0,1651069718414571.0
23.0,2.0,12.0,5.0,94.0,54.0,23.0,31.0,1651069718436967.0
-10.0,19.0,-2.0,-42.0,-77.0,-43.0,-14.0,-16.0,1651069718436967.0
-1.0,11.0,19.0,43.0,35.0,14.0,-15.0,-20.0,1651069718436967.0
-13.0,-18.0,-28.0,-24.0,16.0,13.0,-2.0,0.0,1651069718436967.0
-18.0,-41.0,-11.0,-11.0,-70.0,-42.0,-11.0,-20.0,1651069718459149.0
35.0,21.0,4.0,5.0,16.0,20.0,23.0,35.0,1651069718459149.0
-9.0,2.0,-7.0,-6.0,-57.0,-7.0,-24.0,-5.0,1651069718460106.0
8.0,13.0,6.0,8.0,29.0,8.0,8.0,22.0,1651069718460106.0
-46.0,-43.0,-18.0,-46.0,-60.0,-34.0,-25.0,-48.0,1651069718474465.0
-8.0,-25.0,14.0,33.0,78.0,23.0,5.0,-25.0,1651069718474465.0
-3.0,-7.0,-35.0,-89.0,-81.0,-42.0,-24.0,17.0,1651069718474465.0
0.0,-8.0,14.0,49.0,40.0,11.0,-4.0,-19.0,1651069718474465.0
-6.0,15.0,-6.0,-5.0,-18.0,-17.0,-23.0,-31.0,1651069718505140.0
21.0,34.0,5.0,-61.0,-48.0,-14.0,27.0,40.0,1651069718505140.0
7.0,-13.0,-2.0,10.0,-10.0,23.0,11.0,24.0,1651069718505307.0
2.0,16.0,19.0,40.0,53.0,13.0,-21.0,-16.0,1651069718505307.0
-3.0,-11.0,4.0,-15.0,-1.0,2.0,49.0,16.0,1651069718520175.0
-5.0,-16.0,-18.0,-24.0,-14.0,-19.0,-3.0,-23.0,1651069718520175.0
6.0,8.0,7.0,34.0,35.0,26.0,13.0,13.0,1651069718520175.0
37.0,24.0,22.0,29.0,-3.0,10.0,5.0,72.0,1651069718520175.0
-29.0,-16.0,-38.0,-51.0,-3.0,-15.0,-20.0,-47.0,1651069718533747.0
3.0,-5.0,3.0,-28.0,-75.0,-19.0,-29.0,-25.0,1651069718533747.0
-12.0,-3.0,-9.0,11.0,51.0,18.0,19.0,39.0,1651069718534690.0
7.0,29.0,5.0,4.0,6.0,13.0,4.0,-23.0,1651069718534690.0
11.0,-18.0,16.0,22.0,-2.0,-3.0,-9.0,3.0,1651069718556806.0
-8.0,-3.0,-5.0,12.0,14.0,16.0,0.0,-22.0,1651069718556806.0
5.0,-8.0,-6.0,-20.0,26.0,0.0,2.0,19.0,1651069718557733.0
-2.0,0.0,-7.0,37.0,-12.0,-18.0,-13.0,-36.0,1651069718557733.0
-8.0,-11.0,3.0,-45.0,-13.0,4.0,-2.0,31.0,1651069718587522.0
18.0,20.0,11.0,21.0,9.0,-5.0,-10.0,-7.0,1651069718587522.0
13.0,15.0,4.0,31.0,52.0,19.0,24.0,26.0,1651069718587522.0
-16.0,-7.0,-4.0,13.0,4.0,2.0,6.0,-1.0,1651069718587522.0
8.0,16.0,-1.0,-24.0,-14.0,-6.0,6.0,0.0,1651069718595430.0
3.0,15.0,0.0,-15.0,-4.0,-12.0,-15.0,-5.0,1651069718595430.0
17.0,7.0,10.0,14.0,-21.0,-5.0,5.0,22.0,1651069718596428.0
-7.0,-23.0,-2.0,-16.0,12.0,10.0,15.0,-2.0,1651069718596428.0
-7.0,-7.0,-7.0,7.0,-19.0,-5.0,-8.0,-5.0,1651069718616372.0
2.0,10.0,9.0,32.0,60.0,23.0,6.0,3.0,1651069718616372.0
-5.0,-5.0,-8.0,-46.0,-25.0,-18.0,-2.0,-19.0,1651069718617313.0
-4.0,9.0,3.0,-20.0,-32.0,-10.0,2.0,-6.0,1651069718617313.0
-17.0,-11.0,6.0,55.0,71.0,43.0,-5.0,-29.0,1651069718638497.0
1.0,-11.0,-13.0,-55.0,-60.0,-22.0,-7.0,38.0,1651069718638497.0
10.0,30.0,5.0,44.0,75.0,33.0,-7.0,-33.0,1651069718639489.0
-9.0,-53.0,8.0,-8.0,5.0,-7.0,-1.0,7.0,1651069718639489.0
-1.0,7.0,-23.0,-6.0,-1.0,-14.0,-8.0,11.0,1651069718654484.0
-9.0,-9.0,-3.0,-1.0,3.0,8.0,5.0,-26.0,1651069718654484.0
-20.0,-11.0,-12.0,-4.0,-25.0,-20.0,-31.0,-44.0,1651069718654484.0
3.0,7.0,-2.0,-8.0,2.0,-5.0,22.0,57.0,1651069718654484.0
11.0,36.0,17.0,1.0,4.0,-2.0,-24.0,-16.0,1651069718676587.0
-6.0,-41.0,-1.0,40.0,37.0,21.0,9.0,2.0,1651069718676587.0
1.0,-6.0,-10.0,-75.0,-30.0,-25.0,-10.0,-7.0,1651069718677517.0
-23.0,-6.0,-4.0,53.0,19.0,10.0,-2.0,-60.0,1651069718677517.0
23.0,8.0,6.0,17.0,-56.0,-8.0,-2.0,60.0,1651069718699527.0
12.0,26.0,16.0,19.0,71.0,36.0,52.0,20.0,1651069718699527.0
4.0,7.0,4.0,-3.0,-60.0,-34.0,-23.0,-19.0,1651069718700456.0
-23.0,-15.0,-21.0,-33.0,-3.0,-1.0,4.0,-19.0,1651069718700456.0
2.0,-5.0,4.0,8.0,26.0,2.0,-2.0,12.0,1651069718714487.0
-2.0,8.0,19.0,4.0,-16.0,9.0,-2.0,10.0,1651069718714487.0
34.0,16.0,-7.0,3.0,1.0,-19.0,11.0,38.0,1651069718714487.0
4.0,12.0,15.0,9.0,-14.0,21.0,-5.0,1.0,1651069718714487.0
-11.0,-1.0,-1.0,-13.0,-28.0,-14.0,0.0,-34.0,1651069718736704.0
-3.0,3.0,-7.0,15.0,2.0,2.0,-2.0,11.0,1651069718736704.0
4.0,9.0,7.0,-13.0,-10.0,-2.0,3.0,-15.0,1651069718737661.0
19.0,0.0,-9.0,-2.0,24.0,-3.0,18.0,58.0,1651069718737661.0
0.0,-1.0,0.0,-18.0,-3.0,25.0,-4.0,-23.0,1651069718758772.0
-25.0,-27.0,-9.0,-16.0,-8.0,-3.0,-3.0,3.0,1651069718758772.0
-22.0,5.0,8.0,35.0,3.0,2.0,9.0,-51.0,1651069718759708.0
-5.0,6.0,-6.0,-27.0,-6.0,-12.0,-36.0,11.0,1651069718759708.0
25.0,-14.0,-9.0,14.0,9.0,5.0,28.0,53.0,1651069718782715.0
-14.0,-5.0,6.0,5.0,-12.0,-23.0,-18.0,-30.0,1651069718782715.0
5.0,2.0,-12.0,1.0,14.0,39.0,17.0,31.0,1651069718782715.0
3.0,18.0,24.0,12.0,-1.0,-3.0,-4.0,-25.0,1651069718782715.0
-22.0,-7.0,-11.0,16.0,35.0,2.0,3.0,-22.0,1651069718796809.0
9.0,-15.0,-11.0,18.0,-30.0,-22.0,-13.0,25.0,1651069718796809.0
-7.0,4.0,0.0,-52.0,-10.0,-6.0,-12.0,-15.0,1651069718796809.0
6.0,-2.0,16.0,34.0,43.0,29.0,22.0,-19.0,1651069718796809.0
15.0,4.0,-18.0,-43.0,-15.0,-20.0,-15.0,46.0,1651069718818985.0
3.0,13.0,1.0,19.0,20.0,8.0,-10.0,-40.0,1651069718818985.0
-30.0,-54.0,6.0,6.0,-21.0,-15.0,-3.0,-6.0,1651069718819984.0
29.0,19.0,5.0,-17.0,-29.0,-10.0,1.0,40.0,1651069718819984.0
-11.0,5.0,9.0,18.0,5.0,15.0,1.0,-25.0,1651069718834134.0
-13.0,-11.0,-21.0,-20.0,40.0,5.0,-3.0,-16.0,1651069718834134.0
0.0,-4.0,9.0,5.0,-22.0,-9.0,18.0,38.0,1651069718835063.0
20.0,15.0,0.0,5.0,1.0,-10.0,-17.0,-2.0,1651069718835063.0
-13.0,-10.0,0.0,6.0,21.0,18.0,6.0,-21.0,1651069718856165.0
24.0,7.0,2.0,-37.0,-22.0,-11.0,5.0,33.0,1651069718856165.0
-1.0,13.0,5.0,-1.0,-43.0,-15.0,12.0,4.0,1651069718864076.0
-9.0,-30.0,-10.0,35.0,65.0,22.0,-17.0,-11.0,1651069718864076.0
16.0,65.0,30.0,-14.0,3.0,1.0,10.0,-15.0,1651069718879180.0
1.0,-35.0,-29.0,17.0,9.0,19.0,3.0,21.0,1651069718879180.0
-28.0,-29.0,-4.0,-10.0,-5.0,-6.0,-16.0,-29.0,1651069718880156.0
25.0,45.0,19.0,27.0,13.0,-3.0,12.0,37.0,1651069718880156.0
2.0,-19.0,-14.0,-13.0,-70.0,-31.0,-15.0,-2.0,1651069718901775.0
-5.0,-4.0,12.0,-9.0,50.0,31.0,1.0,-15.0,1651069718901775.0
1.0,6.0,-9.0,-10.0,-19.0,-30.0,-22.0,-6.0,1651069718902776.0
-23.0,-11.0,-9.0,11.0,0.0,43.0,28.0,-39.0,1651069718902776.0
21.0,20.0,15.0,11.0,18.0,-6.0,-5.0,64.0,1651069718916802.0
10.0,17.0,7.0,23.0,-8.0,-3.0,13.0,-10.0,1651069718916802.0
-5.0,-14.0,-31.0,-60.0,-29.0,-5.0,-9.0,-10.0,1651069718916802.0
-23.0,-14.0,3.0,12.0,12.0,-12.0,-17.0,-40.0,1651069718916802.0
-1.0,14.0,-15.0,-4.0,24.0,6.0,3.0,-4.0,1651069718938870.0
8.0,-14.0,23.0,23.0,20.0,9.0,-10.0,25.0,1651069718938870.0
13.0,21.0,22.0,0.0,-4.0,-3.0,15.0,11.0,1651069718939801.0
-18.0,-22.0,-23.0,-13.0,-42.0,-23.0,-9.0,-25.0,1651069718939801.0
10.0,-29.0,-11.0,-40.0,-42.0,-12.0,12.0,21.0,1651069718955958.0
-2.0,3.0,-5.0,16.0,29.0,14.0,1.0,5.0,1651069718955958.0
7.0,5.0,13.0,24.0,13.0,15.0,-7.0,-5.0,1651069718955958.0
-2.0,22.0,0.0,-14.0,32.0,1.0,25.0,2.0,1651069718955958.0
-19.0,-30.0,0.0,6.0,-14.0,-20.0,-17.0,-27.0,1651069718976927.0
17.0,11.0,6.0,0.0,-12.0,-15.0,2.0,22.0,1651069718976927.0
11.0,15.0,7.0,21.0,52.0,60.0,40.0,2.0,1651069718977856.0
4.0,13.0,-17.0,-37.0,-29.0,-16.0,-21.0,18.0,1651069718977856.0
-21.0,-10.0,13.0,3.0,-3.0,-11.0,-6.0,-4.0,1651069718999033.0
2.0,-8.0,-7.0,-4.0,-18.0,-14.0,-1.0,14.0,1651069718999033.0
