,EMG_s0,EMG_s1,EMG_s2,EMG_s3,EMG_s4,EMG_s5,EMG_s6,EMG_s7,timestamp,signal
0,-1.0,1.0,1.0,0.0,2.0,-1.0,-1.0,-1.0,1651067449349712.0,0
1,-1.0,-1.0,0.0,7.0,1.0,-1.0,0.0,1.0,1651067449349712.0,0
2,-1.0,-1.0,1.0,-6.0,4.0,6.0,2.0,0.0,1651067449370344.0,0
3,0.0,0.0,-1.0,-4.0,-4.0,-5.0,-1.0,0.0,1651067449370344.0,0
4,-3.0,0.0,-3.0,-4.0,-1.0,2.0,1.0,0.0,1651067449372369.0,0
5,-1.0,0.0,1.0,6.0,1.0,1.0,-3.0,2.0,1651067449372369.0,0
6,-1.0,1.0,-1.0,-8.0,0.0,-1.0,-1.0,1.0,1651067449384431.0,0
7,-1.0,-1.0,-3.0,-2.0,-1.0,0.0,0.0,0.0,1651067449384431.0,0
8,0.0,-2.0,2.0,8.0,0.0,-4.0,-2.0,0.0,1651067449399416.0,0
9,0.0,1.0,0.0,-15.0,-7.0,-3.0,-1.0,-3.0,1651067449399416.0,0
10,1.0,0.0,2.0,3.0,2.0,0.0,0.0,-1.0,1651067449408373.0,0
11,-3.0,-7.0,-4.0,3.0,1.0,3.0,-1.0,-3.0,1651067449408373.0,0
12,-1.0,0.0,-1.0,-6.0,-3.0,-3.0,-1.0,1.0,1651067449409327.0,0
13,-1.0,0.0,1.0,4.0,-1.0,0.0,1.0,1.0,1651067449409327.0,0
14,0.0,-2.0,-3.0,-1.0,0.0,-1.0,-1.0,0.0,1651067449430508.0,0
15,-1.0,2.0,2.0,-1.0,-2.0,2.0,-1.0,0.0,1651067449430508.0,0
16,0.0,-2.0,-3.0,0.0,5.0,3.0,3.0,1.0,1651067449431535.0,0
17,0.0,0.0,-3.0,1.0,-1.0,-2.0,-2.0,0.0,1651067449431535.0,0
18,0.0,1.0,0.0,0.0,1.0,-1.0,-1.0,-1.0,1651067449443924.0,0
19,-1.0,-2.0,0.0,-1.0,1.0,3.0,2.0,2.0,1651067449443924.0,0
20,-1.0,-1.0,0.0,0.0,0.0,-1.0,-2.0,-2.0,1651067449452723.0,0
21,-1.0,-1.0,-1.0,2.0,-2.0,-1.0,0.0,0.0,1651067449452723.0,0
22,0.0,1.0,-1.0,0.0,2.0,-2.0,-2.0,0.0,1651067449467587.0,0
23,1.0,1.0,0.0,-1.0,-2.0,-2.0,0.0,-1.0,1651067449467587.0,0
24,1.0,0.0,2.0,4.0,1.0,0.0,-1.0,-1.0,1651067449481687.0,0
25,0.0,-1.0,-4.0,-9.0,-3.0,-1.0,1.0,1.0,1651067449481687.0,0
26,0.0,-3.0,-2.0,0.0,-3.0,2.0,1.0,-1.0,1651067449490831.0,0
27,-1.0,1.0,0.0,-4.0,-4.0,-3.0,-3.0,0.0,1651067449490831.0,0
28,1.0,1.0,1.0,10.0,6.0,5.0,0.0,-1.0,1651067449491644.0,0
29,-2.0,2.0,3.0,-2.0,0.0,0.0,2.0,-1.0,1651067449491644.0,0
30,-3.0,-1.0,-1.0,0.0,-1.0,-1.0,-2.0,0.0,1651067449512825.0,0
31,-1.0,1.0,1.0,2.0,-1.0,-2.0,0.0,-1.0,1651067449512825.0,0
32,-2.0,-2.0,-1.0,-7.0,-5.0,-8.0,-4.0,-3.0,1651067449514847.0,0
33,1.0,0.0,0.0,6.0,3.0,6.0,2.0,0.0,1651067449514847.0,0
34,0.0,-2.0,-1.0,-4.0,0.0,1.0,1.0,1.0,1651067449527588.0,0
35,-1.0,-1.0,1.0,3.0,3.0,0.0,1.0,0.0,1651067449527588.0,0
36,0.0,-1.0,-5.0,-4.0,-3.0,-5.0,-2.0,-2.0,1651067449529598.0,0
37,-2.0,-2.0,1.0,2.0,0.0,-5.0,-2.0,0.0,1651067449529598.0,0
38,-1.0,0.0,1.0,-4.0,-5.0,2.0,0.0,1.0,1651067449550846.0,0
39,1.0,0.0,-4.0,-3.0,-3.0,-2.0,-2.0,-1.0,1651067449550846.0,0
40,-1.0,-1.0,0.0,-6.0,-2.0,0.0,0.0,0.0,1651067449551817.0,0
41,-1.0,-2.0,-2.0,-3.0,-2.0,-2.0,-1.0,-2.0,1651067449551817.0,0
42,0.0,-1.0,0.0,4.0,0.0,-2.0,-1.0,-2.0,1651067449572702.0,0
43,2.0,-1.0,0.0,0.0,2.0,6.0,1.0,2.0,1651067449572702.0,0
44,-1.0,0.0,-1.0,0.0,0.0,2.0,2.0,0.0,1651067449574637.0,0
45,0.0,-2.0,-2.0,-2.0,-2.0,-6.0,-3.0,-1.0,1651067449574637.0,0
46,-1.0,0.0,0.0,2.0,2.0,-1.0,1.0,-1.0,1651067449587578.0,0
47,-1.0,2.0,0.0,-1.0,-2.0,-3.0,-1.0,-1.0,1651067449587578.0,0
48,1.0,-3.0,-2.0,0.0,0.0,2.0,2.0,0.0,1651067449594455.0,0
49,-1.0,-1.0,-2.0,1.0,1.0,5.0,0.0,1.0,1651067449594455.0,0
50,0.0,0.0,-1.0,-4.0,-2.0,-5.0,-4.0,-1.0,1651067449610768.0,0
51,0.0,-1.0,-2.0,-1.0,-3.0,-2.0,-1.0,-2.0,1651067449610768.0,0
52,0.0,-1.0,4.0,11.0,7.0,1.0,1.0,-1.0,1651067449611768.0,0
53,-1.0,0.0,-3.0,-6.0,-2.0,-1.0,-2.0,-2.0,1651067449611768.0,0
54,-1.0,-1.0,0.0,1.0,-2.0,1.0,0.0,-1.0,1651067449632812.0,0
55,0.0,-2.0,-2.0,-1.0,1.0,-3.0,1.0,-1.0,1651067449632812.0,0
56,0.0,2.0,0.0,-4.0,-7.0,0.0,-1.0,0.0,1651067449634837.0,0
57,-1.0,0.0,1.0,10.0,5.0,5.0,2.0,0.0,1651067449634837.0,0
58,-1.0,0.0,-3.0,-4.0,-3.0,-2.0,-1.0,1.0,1651067449647842.0,0
59,-2.0,-3.0,-2.0,0.0,-2.0,-3.0,-3.0,0.0,1651067449647842.0,0
60,0.0,-1.0,0.0,-3.0,-4.0,-3.0,-3.0,1.0,1651067449649796.0,0
61,2.0,-1.0,1.0,-1.0,-2.0,2.0,1.0,-1.0,1651067449649796.0,0
62,-1.0,0.0,-2.0,-2.0,-2.0,-2.0,-3.0,-3.0,1651067449671031.0,0
63,0.0,2.0,1.0,1.0,2.0,0.0,1.0,-1.0,1651067449671031.0,0
64,-3.0,-1.0,-1.0,-8.0,-3.0,-2.0,2.0,0.0,1651067449672009.0,0
65,0.0,-1.0,2.0,4.0,3.0,-2.0,-2.0,-2.0,1651067449672009.0,0
66,0.0,0.0,1.0,-2.0,-4.0,-2.0,0.0,-1.0,1651067449693188.0,0
67,-1.0,-1.0,1.0,9.0,11.0,4.0,-1.0,1.0,1651067449693188.0,0
68,0.0,-2.0,-5.0,-8.0,-1.0,1.0,-1.0,-1.0,1651067449694197.0,0
69,1.0,0.0,-1.0,0.0,1.0,0.0,1.0,0.0,1651067449694197.0,0
70,1.0,1.0,0.0,1.0,-4.0,-2.0,1.0,0.0,1651067449708220.0,0
71,-1.0,0.0,0.0,2.0,-3.0,-4.0,1.0,0.0,1651067449708220.0,0
72,0.0,0.0,2.0,-2.0,-1.0,-2.0,-2.0,-1.0,1651067449709148.0,0
73,-3.0,-3.0,-3.0,-1.0,3.0,-1.0,-2.0,-1.0,1651067449709148.0,0
74,-1.0,-2.0,-4.0,-7.0,-2.0,1.0,0.0,0.0,1651067449729420.0,0
75,0.0,0.0,1.0,1.0,-2.0,-2.0,0.0,0.0,1651067449729420.0,0
76,-1.0,0.0,-3.0,0.0,0.0,0.0,-1.0,-1.0,1651067449738339.0,0
77,-1.0,0.0,1.0,-6.0,-6.0,-5.0,-1.0,-1.0,1651067449738339.0,0
78,-1.0,-1.0,0.0,8.0,4.0,0.0,-2.0,0.0,1651067449753352.0,0
79,1.0,1.0,1.0,-2.0,-3.0,2.0,1.0,-1.0,1651067449753352.0,0
80,-1.0,-1.0,-3.0,2.0,0.0,0.0,0.0,-2.0,1651067449754354.0,0
81,-1.0,0.0,0.0,0.0,0.0,0.0,-2.0,0.0,1651067449754354.0,0
82,1.0,1.0,0.0,-2.0,-4.0,-4.0,0.0,-1.0,1651067449775649.0,0
83,-2.0,1.0,0.0,1.0,6.0,0.0,0.0,1.0,1651067449775649.0,0
84,0.0,-2.0,-2.0,2.0,4.0,6.0,0.0,-1.0,1651067449776580.0,0
85,-1.0,0.0,1.0,-2.0,-2.0,-3.0,0.0,-4.0,1651067449776580.0,0
86,-2.0,-1.0,0.0,-3.0,4.0,5.0,0.0,-2.0,1651067449789546.0,0
87,0.0,-2.0,-3.0,-4.0,-4.0,-2.0,-2.0,0.0,1651067449789546.0,0
88,-2.0,1.0,0.0,-1.0,-4.0,-4.0,0.0,0.0,1651067449798585.0,0
89,1.0,0.0,0.0,2.0,-1.0,-1.0,1.0,3.0,1651067449798585.0,0
90,0.0,-1.0,1.0,3.0,0.0,-1.0,-1.0,1.0,1651067449812531.0,0
91,0.0,-1.0,1.0,-1.0,0.0,1.0,0.0,1.0,1651067449812531.0,0
92,0.0,0.0,-1.0,-6.0,-4.0,-3.0,-3.0,-1.0,1651067449814526.0,0
93,-1.0,-1.0,1.0,0.0,-1.0,-2.0,-1.0,1.0,1651067449814526.0,0
94,-2.0,0.0,0.0,1.0,1.0,-3.0,-2.0,-1.0,1651067449835708.0,0
95,-1.0,-3.0,-4.0,-2.0,-1.0,3.0,-1.0,-2.0,1651067449835708.0,0
96,0.0,1.0,0.0,-2.0,-1.0,0.0,2.0,1.0,1651067449836663.0,0
97,-1.0,-1.0,1.0,3.0,-2.0,0.0,1.0,-1.0,1651067449836663.0,0
98,-1.0,-1.0,-2.0,-4.0,-4.0,-4.0,-2.0,-2.0,1651067449848719.0,0
99,-2.0,-1.0,-3.0,-2.0,4.0,1.0,-2.0,-1.0,1651067449848719.0,0
100,0.0,0.0,1.0,-1.0,1.0,5.0,4.0,0.0,1651067449857713.0,0
101,-1.0,1.0,-1.0,0.0,-2.0,-2.0,0.0,-2.0,1651067449857713.0,0
102,0.0,-1.0,-1.0,-2.0,2.0,2.0,0.0,0.0,1651067449872672.0,0
103,0.0,1.0,1.0,1.0,-2.0,-2.0,-3.0,-1.0,1651067449872672.0,0
104,0.0,-1.0,-1.0,-2.0,-2.0,-1.0,0.0,1.0,1651067449874694.0,0
105,-1.0,0.0,-2.0,-1.0,1.0,3.0,-1.0,0.0,1651067449874694.0,0
106,-2.0,-2.0,-3.0,0.0,-2.0,-3.0,-1.0,-1.0,1651067449895211.0,0
107,-1.0,-1.0,0.0,-1.0,-2.0,-3.0,0.0,0.0,1651067449895211.0,0
108,0.0,-1.0,0.0,1.0,4.0,0.0,-4.0,0.0,1651067449897207.0,0
109,-1.0,2.0,0.0,-1.0,-2.0,-1.0,-1.0,-1.0,1651067449897207.0,0
110,-2.0,1.0,0.0,2.0,3.0,2.0,0.0,1.0,1651067449909240.0,0
111,1.0,-1.0,-3.0,-6.0,-3.0,-2.0,1.0,-1.0,1651067449909240.0,0
112,-1.0,-1.0,0.0,1.0,-2.0,-5.0,-3.0,-1.0,1651067449918151.0,0
113,-1.0,0.0,2.0,8.0,1.0,0.0,0.0,-1.0,1651067449918151.0,0
114,-1.0,0.0,-1.0,-12.0,-1.0,1.0,0.0,-1.0,1651067449933257.0,0
115,-1.0,-1.0,0.0,0.0,-3.0,-3.0,0.0,0.0,1651067449933257.0,0
116,-1.0,0.0,-1.0,0.0,-3.0,4.0,-1.0,0.0,1651067449934257.0,0
117,0.0,-3.0,-2.0,-2.0,-5.0,-8.0,-3.0,-1.0,1651067449934257.0,0
118,2.0,0.0,2.0,4.0,6.0,11.0,1.0,-2.0,1651067449955426.0,0
119,0.0,0.0,-1.0,0.0,-2.0,-1.0,1.0,-2.0,1651067449955426.0,0
120,0.0,0.0,-3.0,0.0,-3.0,-6.0,-2.0,-1.0,1651067449957394.0,0
121,0.0,1.0,1.0,-3.0,-2.0,0.0,-2.0,1.0,1651067449957394.0,0
122,-1.0,-1.0,-2.0,0.0,-2.0,-2.0,1.0,0.0,1651067449969428.0,0
123,0.0,-1.0,0.0,0.0,-1.0,-2.0,-3.0,-2.0,1651067449969428.0,0
124,0.0,1.0,1.0,6.0,0.0,-2.0,1.0,1.0,1651067449978338.0,0
125,0.0,0.0,0.0,-2.0,3.0,4.0,2.0,0.0,1651067449978338.0,0
126,0.0,-2.0,-2.0,1.0,-4.0,-4.0,-1.0,-1.0,1651067449993325.0,0
127,-1.0,-1.0,-1.0,-2.0,-2.0,-2.0,-1.0,-1.0,1651067449993325.0,0
128,-2.0,-1.0,-1.0,-1.0,-2.0,-4.0,-2.0,-3.0,1651067449994296.0,0
129,0.0,-2.0,-2.0,0.0,-1.0,0.0,0.0,-1.0,1651067449994296.0,0
130,1.0,-1.0,0.0,2.0,4.0,1.0,-1.0,1.0,1651067450015246.0,0
131,-1.0,0.0,0.0,2.0,1.0,2.0,3.0,1.0,1651067450015246.0,0
132,-1.0,-1.0,0.0,-4.0,-1.0,-2.0,0.0,-1.0,1651067450017260.0,0
133,-2.0,-1.0,-3.0,-1.0,-1.0,-2.0,-1.0,-1.0,1651067450017260.0,0
134,0.0,-1.0,1.0,0.0,-1.0,2.0,-2.0,-1.0,1651067450029268.0,0
135,0.0,-1.0,-2.0,0.0,-1.0,-1.0,0.0,0.0,1651067450029268.0,0
136,-1.0,-2.0,1.0,-4.0,0.0,-2.0,-1.0,-1.0,1651067450038178.0,0
137,-1.0,-1.0,0.0,-2.0,1.0,4.0,0.0,-1.0,1651067450038178.0,0
138,-2.0,-1.0,-3.0,4.0,-1.0,-4.0,-3.0,-1.0,1651067450053392.0,0
139,1.0,0.0,1.0,-3.0,-5.0,-3.0,-1.0,1.0,1651067450053392.0,0
140,1.0,-1.0,0.0,1.0,2.0,0.0,3.0,2.0,1651067450054288.0,0
141,0.0,0.0,-1.0,-2.0,-3.0,-2.0,-1.0,-1.0,1651067450054288.0,0
142,0.0,1.0,1.0,1.0,1.0,4.0,0.0,2.0,1651067450075693.0,0
143,0.0,1.0,0.0,7.0,1.0,-1.0,-1.0,-1.0,1651067450075693.0,0
144,-1.0,0.0,-3.0,-8.0,-1.0,2.0,0.0,-2.0,1651067450076651.0,0
145,0.0,0.0,1.0,1.0,-2.0,-3.0,-1.0,-1.0,1651067450076651.0,0
146,-1.0,-2.0,-2.0,-3.0,-8.0,-6.0,-3.0,-3.0,1651067450097636.0,0
147,-2.0,-1.0,1.0,1.0,2.0,3.0,0.0,1.0,1651067450097636.0,0
148,0.0,1.0,-2.0,3.0,-1.0,-3.0,-3.0,-3.0,1651067450099593.0,0
149,-1.0,1.0,-2.0,-7.0,0.0,-1.0,-1.0,-1.0,1651067450099593.0,0
150,1.0,0.0,-3.0,-4.0,-5.0,0.0,0.0,-2.0,1651067450112528.0,0
151,1.0,-1.0,0.0,-2.0,-1.0,1.0,-1.0,-1.0,1651067450112528.0,0
152,-1.0,-2.0,0.0,-1.0,3.0,0.0,-1.0,-1.0,1651067450114550.0,0
153,1.0,-2.0,2.0,3.0,2.0,-1.0,-2.0,-1.0,1651067450114550.0,0
154,1.0,0.0,3.0,1.0,2.0,0.0,-1.0,-1.0,1651067450135742.0,0
155,-1.0,0.0,-4.0,-6.0,-1.0,-2.0,-1.0,-1.0,1651067450135742.0,0
156,-1.0,-3.0,-2.0,2.0,1.0,1.0,-2.0,-2.0,1651067450136675.0,0
157,-1.0,-1.0,-2.0,0.0,0.0,2.0,2.0,0.0,1651067450136675.0,0
158,1.0,-1.0,2.0,0.0,-1.0,-1.0,1.0,2.0,1651067450158269.0,0
159,-1.0,-2.0,2.0,0.0,1.0,2.0,-1.0,-1.0,1651067450158269.0,0
160,-1.0,-1.0,0.0,-1.0,-3.0,-5.0,-2.0,-1.0,1651067450159210.0,0
161,0.0,0.0,-1.0,-1.0,0.0,0.0,-1.0,-1.0,1651067450159210.0,0
162,-1.0,0.0,2.0,6.0,1.0,1.0,-2.0,0.0,1651067450173281.0,0
163,-2.0,-1.0,-3.0,-1.0,-2.0,-3.0,1.0,-1.0,1651067450173281.0,0
164,0.0,0.0,3.0,2.0,1.0,7.0,1.0,2.0,1651067450174277.0,0
165,-1.0,1.0,0.0,2.0,-1.0,-2.0,-2.0,-1.0,1651067450174277.0,0
166,1.0,1.0,0.0,-2.0,-1.0,2.0,3.0,2.0,1651067450195498.0,0
167,1.0,0.0,-2.0,-2.0,0.0,0.0,0.0,-2.0,1651067450195498.0,0
168,0.0,-1.0,0.0,0.0,-1.0,-1.0,-2.0,-1.0,1651067450197394.0,0
169,-1.0,0.0,-2.0,0.0,0.0,0.0,-2.0,-2.0,1651067450197394.0,0
170,-1.0,1.0,1.0,-4.0,-4.0,-3.0,1.0,3.0,1651067450225547.0,0
171,-2.0,0.0,-1.0,0.0,-1.0,0.0,-2.0,-1.0,1651067450225547.0,0
172,-1.0,1.0,-3.0,-2.0,-1.0,0.0,0.0,-1.0,1651067450227397.0,0
173,-2.0,-1.0,2.0,-1.0,-1.0,1.0,-1.0,1.0,1651067450227397.0,0
174,-4.0,-1.0,-5.0,-2.0,0.0,-5.0,-3.0,-3.0,1651067450232410.0,0
175,1.0,0.0,0.0,5.0,1.0,1.0,0.0,1.0,1651067450232410.0,0
176,-2.0,-1.0,0.0,-7.0,-1.0,-2.0,-1.0,0.0,1651067450239385.0,0
177,1.0,-1.0,-1.0,-6.0,-1.0,0.0,-1.0,-1.0,1651067450239385.0,0
178,0.0,0.0,-4.0,-3.0,-2.0,-3.0,-1.0,-1.0,1651067450255566.0,0
179,-3.0,0.0,0.0,-1.0,2.0,0.0,-1.0,2.0,1651067450255566.0,0
180,0.0,1.0,-1.0,4.0,1.0,2.0,0.0,-1.0,1651067450257466.0,0
181,2.0,0.0,1.0,4.0,1.0,0.0,2.0,0.0,1651067450257466.0,0
182,0.0,-2.0,0.0,-3.0,2.0,1.0,-1.0,-1.0,1651067450277460.0,0
183,-1.0,-1.0,1.0,-3.0,-5.0,-1.0,-1.0,-2.0,1651067450277460.0,0
184,0.0,-1.0,-1.0,-3.0,-2.0,-5.0,-1.0,-1.0,1651067450279445.0,0
185,0.0,-2.0,-5.0,-4.0,-3.0,1.0,0.0,-1.0,1651067450279445.0,0
186,0.0,-1.0,-3.0,2.0,1.0,-2.0,-1.0,-1.0,1651067450292476.0,0
187,0.0,0.0,2.0,0.0,-2.0,-4.0,-2.0,1.0,1651067450292476.0,0
188,-1.0,-1.0,-1.0,0.0,2.0,9.0,2.0,-2.0,1651067450299459.0,0
189,-1.0,-3.0,-7.0,1.0,-3.0,-3.0,0.0,-2.0,1651067450299459.0,0
190,0.0,2.0,12.0,4.0,-3.0,0.0,-1.0,0.0,1651067450315612.0,0
191,0.0,1.0,1.0,-3.0,3.0,-2.0,0.0,-1.0,1651067450315612.0,0
192,-1.0,-2.0,-4.0,-4.0,-19.0,-9.0,-3.0,-1.0,1651067450316492.0,0
193,-1.0,0.0,-1.0,5.0,14.0,2.0,-1.0,0.0,1651067450316492.0,0
194,-1.0,2.0,6.0,5.0,3.0,2.0,2.0,1.0,1651067450338651.0,0
195,-2.0,-6.0,-11.0,-16.0,-25.0,-6.0,-3.0,-2.0,1651067450338651.0,0
196,0.0,2.0,6.0,8.0,14.0,14.0,4.0,3.0,1651067450339583.0,0
197,-2.0,0.0,-9.0,-2.0,11.0,6.0,4.0,0.0,1651067450339583.0,0
198,0.0,-6.0,-15.0,-6.0,1.0,-3.0,0.0,4.0,1651067450352255.0,1
199,-1.0,-3.0,2.0,4.0,-4.0,-4.0,1.0,-2.0,1651067450352255.0,1
200,1.0,3.0,2.0,0.0,-7.0,-4.0,-2.0,0.0,1651067450359175.0,1
201,-3.0,-3.0,2.0,-2.0,-12.0,-7.0,-5.0,-1.0,1651067450359175.0,1
202,-2.0,6.0,18.0,9.0,7.0,-4.0,-4.0,-2.0,1651067450375905.0,1
203,-6.0,-6.0,-8.0,-3.0,-6.0,-3.0,-2.0,-6.0,1651067450375905.0,1
204,11.0,3.0,-5.0,-2.0,0.0,-12.0,-2.0,6.0,1651067450376681.0,1
205,9.0,9.0,8.0,18.0,32.0,30.0,11.0,9.0,1651067450376681.0,1
206,1.0,-8.0,-14.0,-11.0,-11.0,0.0,0.0,10.0,1651067450397681.0,1
207,2.0,3.0,8.0,1.0,4.0,1.0,3.0,0.0,1651067450397681.0,1
208,-9.0,-9.0,-13.0,-12.0,-7.0,-4.0,-4.0,-10.0,1651067450399614.0,1
209,-3.0,-3.0,1.0,-6.0,-23.0,-10.0,-2.0,-7.0,1651067450399614.0,1
210,-4.0,0.0,0.0,2.0,4.0,-2.0,-2.0,-9.0,1651067450412575.0,1
211,3.0,7.0,11.0,11.0,15.0,11.0,5.0,4.0,1651067450412575.0,1
212,-2.0,-5.0,-5.0,6.0,9.0,2.0,1.0,-1.0,1651067450419558.0,1
213,-1.0,0.0,-1.0,-5.0,-9.0,-7.0,-3.0,-3.0,1651067450419558.0,1
214,1.0,3.0,3.0,4.0,0.0,2.0,-2.0,-2.0,1651067450435484.0,1
215,-2.0,-9.0,-20.0,-14.0,-6.0,-3.0,-4.0,-2.0,1651067450435484.0,1
216,1.0,3.0,7.0,3.0,3.0,4.0,1.0,0.0,1651067450437360.0,1
217,-3.0,-2.0,-3.0,-8.0,-12.0,-10.0,-3.0,-1.0,1651067450437360.0,1
218,-1.0,-2.0,-1.0,-4.0,-4.0,-4.0,-3.0,-2.0,1651067450458363.0,1
219,4.0,0.0,1.0,9.0,20.0,11.0,3.0,2.0,1651067450458363.0,1
220,-1.0,1.0,0.0,-3.0,-9.0,-6.0,-1.0,-2.0,1651067450459360.0,1
221,2.0,-5.0,-19.0,-18.0,-15.0,-11.0,0.0,8.0,1651067450459360.0,1
222,2.0,0.0,2.0,0.0,4.0,3.0,0.0,-6.0,1651067450472467.0,1
223,-5.0,1.0,8.0,-2.0,-13.0,-16.0,-5.0,5.0,1651067450472467.0,1
224,-8.0,-5.0,-2.0,4.0,25.0,23.0,2.0,-2.0,1651067450479416.0,1
225,6.0,5.0,1.0,1.0,-2.0,4.0,12.0,8.0,1651067450479416.0,1
226,8.0,-5.0,-3.0,-4.0,-5.0,-4.0,-2.0,14.0,1651067450502714.0,1
227,0.0,2.0,0.0,-4.0,-12.0,-7.0,-5.0,-9.0,1651067450502714.0,1
228,3.0,3.0,4.0,6.0,0.0,-5.0,-3.0,4.0,1651067450504678.0,1
229,-5.0,-2.0,2.0,3.0,-1.0,-2.0,-7.0,-2.0,1651067450504678.0,1
230,-8.0,-12.0,-24.0,-15.0,-3.0,3.0,3.0,-4.0,1651067450517709.0,1
231,0.0,3.0,9.0,8.0,11.0,10.0,8.0,3.0,1651067450517709.0,1
232,-2.0,-7.0,-10.0,-5.0,1.0,2.0,-2.0,-2.0,1651067450519638.0,1
233,-4.0,-5.0,-2.0,-2.0,-7.0,-14.0,-11.0,-16.0,1651067450519638.0,1
234,5.0,8.0,11.0,22.0,16.0,6.0,0.0,5.0,1651067450531718.0,1
235,-7.0,1.0,0.0,-4.0,-6.0,1.0,1.0,-13.0,1651067450531718.0,1
236,7.0,-4.0,-7.0,-2.0,1.0,0.0,6.0,12.0,1651067450540667.0,1
237,0.0,6.0,9.0,-4.0,-10.0,-6.0,6.0,10.0,1651067450540667.0,1
238,-10.0,1.0,0.0,3.0,0.0,4.0,11.0,1.0,1651067450555712.0,1
239,17.0,5.0,3.0,3.0,4.0,-1.0,-2.0,13.0,1651067450555712.0,1
240,19.0,17.0,20.0,14.0,12.0,14.0,2.0,7.0,1651067450556646.0,1
241,-11.0,-7.0,2.0,3.0,1.0,-4.0,-21.0,-33.0,1651067450556646.0,1
242,-10.0,-5.0,-6.0,-14.0,-14.0,-7.0,-3.0,-1.0,1651067450577837.0,1
243,14.0,6.0,5.0,8.0,3.0,10.0,24.0,31.0,1651067450577837.0,1
244,-7.0,-5.0,-6.0,-9.0,-18.0,-12.0,-2.0,8.0,1651067450579766.0,1
245,3.0,-2.0,-7.0,0.0,8.0,1.0,-18.0,-10.0,1651067450579766.0,1
246,0.0,5.0,3.0,-1.0,-4.0,3.0,23.0,-5.0,1651067450591857.0,1
247,-18.0,-14.0,-21.0,-11.0,2.0,-6.0,-14.0,-22.0,1651067450591857.0,1
248,-1.0,-2.0,1.0,-3.0,-2.0,-1.0,10.0,18.0,1651067450600836.0,1
249,-7.0,4.0,11.0,3.0,11.0,13.0,8.0,-16.0,1651067450600836.0,1
250,10.0,4.0,2.0,3.0,-3.0,-7.0,-12.0,17.0,1651067450615828.0,1
251,3.0,-3.0,-18.0,-10.0,-8.0,-13.0,-21.0,-22.0,1651067450615828.0,1
252,-6.0,3.0,14.0,5.0,-4.0,4.0,9.0,9.0,1651067450616806.0,1
253,-15.0,-11.0,-12.0,-12.0,-16.0,-7.0,-16.0,-8.0,1651067450616806.0,1
254,19.0,-3.0,1.0,-5.0,-3.0,-13.0,-21.0,15.0,1651067450637920.0,1
255,-7.0,17.0,31.0,19.0,-3.0,7.0,16.0,0.0,1651067450637920.0,1
256,-25.0,-12.0,-13.0,-4.0,20.0,-2.0,10.0,-26.0,1651067450639847.0,1
257,40.0,14.0,7.0,6.0,5.0,9.0,28.0,72.0,1651067450639847.0,1
258,-26.0,-4.0,3.0,-4.0,-20.0,-17.0,-50.0,-61.0,1651067450651880.0,1
259,-9.0,-9.0,-1.0,-3.0,-8.0,-9.0,-6.0,-12.0,1651067450651880.0,1
260,13.0,9.0,5.0,6.0,0.0,0.0,-2.0,1.0,1651067450660806.0,1
261,-1.0,-2.0,-3.0,-16.0,-25.0,-6.0,8.0,-17.0,1651067450660806.0,1
262,-6.0,-3.0,-3.0,2.0,12.0,9.0,22.0,23.0,1651067450675847.0,1
263,5.0,3.0,6.0,2.0,0.0,-5.0,0.0,6.0,1651067450675847.0,1
264,-12.0,-12.0,-23.0,-12.0,-7.0,-4.0,-14.0,-21.0,1651067450676845.0,1
265,9.0,-4.0,-8.0,7.0,14.0,-2.0,-4.0,8.0,1651067450676845.0,1
266,12.0,6.0,-2.0,1.0,2.0,6.0,10.0,16.0,1651067450697548.0,1
267,-11.0,-13.0,-14.0,-10.0,-4.0,2.0,14.0,6.0,1651067450697548.0,1
268,14.0,6.0,3.0,0.0,0.0,2.0,9.0,8.0,1651067450699476.0,1
269,1.0,1.0,5.0,17.0,12.0,7.0,-6.0,6.0,1651067450699476.0,1
270,-19.0,-14.0,-15.0,-4.0,11.0,1.0,-10.0,-28.0,1651067450711450.0,1
271,-11.0,-4.0,-5.0,1.0,-2.0,-7.0,-16.0,-11.0,1651067450711450.0,1
272,-8.0,2.0,6.0,5.0,17.0,8.0,4.0,-23.0,1651067450720244.0,1
273,29.0,14.0,16.0,8.0,0.0,11.0,22.0,54.0,1651067450720244.0,1
274,9.0,7.0,12.0,5.0,-1.0,5.0,8.0,1.0,1651067450735334.0,1
275,8.0,-9.0,-19.0,-10.0,-1.0,-1.0,0.0,6.0,1651067450735334.0,1
276,-8.0,5.0,11.0,0.0,-10.0,-3.0,1.0,-8.0,1651067450737330.0,1
277,-5.0,-1.0,0.0,-1.0,-1.0,-1.0,1.0,-12.0,1651067450737330.0,1
278,6.0,-1.0,-8.0,-3.0,-5.0,4.0,13.0,5.0,1651067450757482.0,1
279,10.0,5.0,4.0,4.0,17.0,12.0,-3.0,19.0,1651067450757482.0,1
280,-15.0,-7.0,-2.0,-5.0,-13.0,-8.0,-6.0,-19.0,1651067450759465.0,1
281,-3.0,7.0,14.0,8.0,12.0,4.0,3.0,-7.0,1651067450759465.0,1
282,-3.0,-4.0,-2.0,-1.0,-9.0,-9.0,3.0,-4.0,1651067450771591.0,1
283,-5.0,1.0,-1.0,2.0,5.0,2.0,-8.0,-10.0,1651067450771591.0,1
284,4.0,-1.0,3.0,1.0,-4.0,-7.0,-10.0,15.0,1651067450788367.0,1
285,8.0,4.0,2.0,-9.0,-11.0,-6.0,6.0,14.0,1651067450788367.0,1
286,-9.0,-4.0,-10.0,-3.0,4.0,-1.0,-1.0,-14.0,1651067450795362.0,1
287,-2.0,1.0,-2.0,-5.0,-5.0,1.0,7.0,-3.0,1651067450795362.0,1
288,8.0,0.0,-6.0,-4.0,-6.0,-3.0,9.0,21.0,1651067450797359.0,1
289,-4.0,2.0,3.0,0.0,3.0,-2.0,-5.0,-18.0,1651067450797359.0,1
290,-5.0,-6.0,-15.0,-16.0,-15.0,-7.0,-3.0,5.0,1651067450817589.0,1
291,0.0,4.0,14.0,8.0,19.0,24.0,16.0,-6.0,1651067450817589.0,1
292,-8.0,-15.0,-26.0,-15.0,-9.0,-7.0,-14.0,-26.0,1651067450819518.0,1
293,7.0,1.0,-8.0,-5.0,-5.0,-4.0,4.0,31.0,1651067450819518.0,1
294,1.0,5.0,9.0,7.0,-3.0,-5.0,-10.0,-20.0,1651067450831675.0,1
295,3.0,0.0,2.0,-2.0,-10.0,-3.0,3.0,17.0,1651067450831675.0,1
296,3.0,1.0,8.0,8.0,25.0,15.0,-11.0,0.0,1651067450840584.0,1
297,-14.0,-9.0,-2.0,3.0,6.0,3.0,9.0,-22.0,1651067450840584.0,1
298,2.0,-2.0,-6.0,-1.0,6.0,2.0,-3.0,10.0,1651067450854613.0,1
299,7.0,4.0,1.0,3.0,2.0,2.0,-2.0,-4.0,1651067450854613.0,1
300,-2.0,3.0,3.0,0.0,-10.0,-8.0,-7.0,-1.0,1651067450863289.0,1
301,-14.0,-7.0,-4.0,-1.0,-2.0,-4.0,-3.0,-25.0,1651067450863289.0,1
302,13.0,7.0,12.0,5.0,6.0,7.0,5.0,28.0,1651067450878267.0,1
303,-12.0,-11.0,-18.0,-13.0,-15.0,-15.0,-22.0,-30.0,1651067450878267.0,1
304,6.0,3.0,1.0,-1.0,-17.0,-11.0,13.0,7.0,1651067450879199.0,1
305,-10.0,-3.0,-2.0,4.0,12.0,8.0,-12.0,-19.0,1651067450879199.0,1
306,10.0,0.0,4.0,1.0,-12.0,4.0,13.0,-4.0,1651067450891166.0,1
307,-16.0,-10.0,-3.0,0.0,19.0,-7.0,-22.0,15.0,1651067450891166.0,1
308,1.0,-2.0,-7.0,-6.0,0.0,-2.0,1.0,-5.0,1651067450900212.0,1
309,-7.0,-2.0,-5.0,-7.0,-14.0,-7.0,-4.0,-9.0,1651067450900212.0,1
310,-6.0,-6.0,-6.0,-9.0,-7.0,-5.0,-8.0,-13.0,1651067450915322.0,1
311,6.0,8.0,11.0,8.0,1.0,2.0,2.0,2.0,1651067450915322.0,1
312,-2.0,-7.0,-6.0,-3.0,-5.0,-5.0,-2.0,2.0,1651067450917250.0,1
313,-2.0,4.0,5.0,1.0,7.0,4.0,-1.0,8.0,1651067450917250.0,1
314,-6.0,-1.0,2.0,2.0,3.0,4.0,-3.0,-14.0,1651067450937734.0,1
315,2.0,-3.0,-5.0,-2.0,-8.0,-3.0,9.0,10.0,1651067450937734.0,1
316,2.0,0.0,-2.0,4.0,6.0,4.0,-4.0,12.0,1651067450939662.0,1
317,2.0,0.0,0.0,0.0,0.0,3.0,-9.0,-10.0,1651067450939662.0,1
318,-9.0,-6.0,-6.0,-3.0,7.0,-2.0,3.0,2.0,1651067450951447.0,1
319,15.0,4.0,-4.0,-7.0,-10.0,-4.0,0.0,3.0,1651067450951447.0,1
320,-8.0,-4.0,-1.0,-7.0,-27.0,-18.0,-8.0,-9.0,1651067450960426.0,1
321,-3.0,-2.0,-1.0,8.0,37.0,20.0,-2.0,-1.0,1651067450960426.0,1
322,-2.0,0.0,2.0,5.0,16.0,5.0,1.0,3.0,1651067450975600.0,1
323,3.0,2.0,6.0,5.0,1.0,-1.0,0.0,10.0,1651067450975600.0,1
324,-8.0,-3.0,-3.0,-4.0,-2.0,-3.0,-13.0,-17.0,1651067450977600.0,1
325,2.0,-3.0,-1.0,-6.0,-16.0,-11.0,5.0,-3.0,1651067450977600.0,1
326,14.0,8.0,3.0,5.0,4.0,1.0,-4.0,27.0,1651067450998188.0,1
327,-8.0,-5.0,-5.0,-2.0,5.0,9.0,-5.0,-27.0,1651067450998188.0,1
328,12.0,7.0,5.0,2.0,4.0,3.0,12.0,17.0,1651067450999168.0,1
329,-3.0,-1.0,1.0,1.0,-7.0,-3.0,4.0,2.0,1651067450999168.0,1
330,12.0,9.0,5.0,1.0,2.0,-1.0,-3.0,6.0,1651067451020461.0,1
331,-5.0,-6.0,-6.0,-3.0,-11.0,-9.0,-2.0,-3.0,1651067451020461.0,1
332,2.0,3.0,4.0,3.0,6.0,2.0,-3.0,-5.0,1651067451022390.0,1
333,-1.0,-1.0,-3.0,2.0,9.0,5.0,-2.0,2.0,1651067451022390.0,1
334,-8.0,-4.0,0.0,-4.0,-26.0,-6.0,3.0,-4.0,1651067451035505.0,1
335,6.0,7.0,7.0,9.0,42.0,23.0,10.0,13.0,1651067451035505.0,1
336,-5.0,-1.0,3.0,2.0,0.0,1.0,-6.0,-7.0,1651067451037433.0,1
337,9.0,-3.0,-8.0,-2.0,-1.0,-5.0,6.0,24.0,1651067451037433.0,1
338,-1.0,2.0,6.0,2.0,2.0,-4.0,-11.0,-16.0,1651067451058592.0,1
339,-3.0,2.0,4.0,-1.0,-9.0,5.0,13.0,0.0,1651067451058592.0,1
340,-1.0,-2.0,-6.0,0.0,4.0,-2.0,-12.0,-11.0,1651067451059524.0,1
341,-5.0,1.0,-3.0,-7.0,-22.0,-19.0,-12.0,2.0,1651067451059524.0,1
342,-11.0,1.0,6.0,8.0,25.0,19.0,11.0,-16.0,1651067451080534.0,1
343,5.0,2.0,-1.0,-5.0,-10.0,-11.0,-1.0,9.0,1651067451080534.0,1
344,-1.0,0.0,2.0,1.0,0.0,6.0,4.0,7.0,1651067451081465.0,1
345,-11.0,-10.0,-10.0,-9.0,-16.0,-11.0,-12.0,-19.0,1651067451081465.0,1
346,-5.0,-2.0,-9.0,-5.0,4.0,2.0,0.0,-21.0,1651067451095609.0,1
347,1.0,4.0,6.0,3.0,-2.0,0.0,12.0,-2.0,1651067451095609.0,1
348,3.0,-2.0,3.0,3.0,-2.0,-2.0,-3.0,13.0,1651067451096539.0,1
349,-4.0,-1.0,3.0,1.0,3.0,-1.0,-8.0,-3.0,1651067451096539.0,1
350,2.0,-1.0,-3.0,-3.0,-4.0,2.0,12.0,12.0,1651067451118431.0,1
351,-1.0,-5.0,-4.0,4.0,13.0,1.0,-5.0,-1.0,1651067451118431.0,1
352,7.0,0.0,1.0,1.0,-6.0,-3.0,11.0,15.0,1651067451119429.0,1
353,-4.0,-5.0,-8.0,-3.0,-1.0,3.0,-5.0,-13.0,1651067451119429.0,1
354,5.0,2.0,4.0,-1.0,-5.0,-6.0,-2.0,11.0,1651067451140400.0,1
355,-3.0,-3.0,-3.0,-5.0,-11.0,-11.0,-9.0,-6.0,1651067451140400.0,1
356,1.0,2.0,2.0,-5.0,-5.0,-1.0,2.0,2.0,1651067451142419.0,1
357,2.0,-1.0,0.0,5.0,24.0,5.0,-3.0,-3.0,1651067451142419.0,1
358,-1.0,0.0,1.0,1.0,-9.0,-2.0,3.0,0.0,1651067451155399.0,1
359,-5.0,-2.0,2.0,-6.0,-30.0,-14.0,1.0,5.0,1651067451155399.0,1
360,3.0,0.0,1.0,5.0,28.0,7.0,-1.0,-4.0,1651067451157328.0,1
361,6.0,6.0,2.0,5.0,4.0,1.0,-3.0,11.0,1651067451157328.0,1
362,-15.0,-12.0,-9.0,-9.0,-14.0,-18.0,-15.0,-22.0,1651067451178353.0,1
363,11.0,2.0,-4.0,-1.0,4.0,5.0,6.0,10.0,1651067451178353.0,1
364,0.0,1.0,-3.0,-5.0,-15.0,-4.0,-2.0,-6.0,1651067451179360.0,1
365,-7.0,-5.0,-1.0,-6.0,-13.0,-9.0,0.0,-2.0,1651067451179360.0,1
366,4.0,2.0,3.0,6.0,13.0,14.0,5.0,-2.0,1651067451200803.0,1
367,-5.0,-7.0,-9.0,-6.0,-11.0,-10.0,-3.0,-5.0,1651067451200803.0,1
368,-2.0,2.0,-1.0,-7.0,-6.0,2.0,-3.0,-4.0,1651067451202384.0,1
369,1.0,2.0,1.0,4.0,5.0,4.0,4.0,-10.0,1651067451202384.0,1
370,1.0,0.0,-3.0,-6.0,-10.0,-7.0,-7.0,11.0,1651067451214410.0,1
371,-4.0,1.0,2.0,8.0,8.0,5.0,-2.0,-15.0,1651067451214410.0,1
372,2.0,-2.0,-4.0,1.0,2.0,-2.0,4.0,11.0,1651067451222040.0,1
373,-2.0,-3.0,-2.0,-6.0,-9.0,1.0,-6.0,-7.0,1651067451222040.0,1
374,-3.0,-1.0,0.0,2.0,6.0,4.0,13.0,3.0,1651067451238136.0,1
375,-2.0,-2.0,1.0,2.0,7.0,1.0,-9.0,-1.0,1651067451238136.0,1
376,-1.0,0.0,-3.0,-1.0,0.0,-1.0,-5.0,-5.0,1651067451239075.0,1
377,0.0,2.0,4.0,-1.0,-10.0,2.0,12.0,8.0,1651067451239075.0,1
378,0.0,1.0,1.0,2.0,7.0,-3.0,2.0,5.0,1651067451260232.0,1
379,-1.0,3.0,5.0,6.0,1.0,6.0,-10.0,-13.0,1651067451260232.0,1
380,0.0,1.0,-2.0,-4.0,0.0,2.0,15.0,3.0,1651067451262160.0,1
381,7.0,6.0,7.0,-2.0,-1.0,-1.0,-3.0,14.0,1651067451262160.0,1
382,-7.0,-11.0,-14.0,-12.0,-24.0,-12.0,3.0,-5.0,1651067451275144.0,1
383,-1.0,-1.0,-7.0,-2.0,17.0,8.0,2.0,-1.0,1651067451275144.0,1
384,-2.0,2.0,5.0,4.0,-4.0,5.0,-6.0,-9.0,1651067451281156.0,1
385,7.0,2.0,-2.0,-2.0,-5.0,0.0,10.0,0.0,1651067451281156.0,1
386,4.0,2.0,1.0,-1.0,3.0,4.0,0.0,13.0,1651067451297383.0,1
387,-7.0,-2.0,0.0,1.0,1.0,-4.0,1.0,-5.0,1651067451297383.0,1
388,2.0,1.0,5.0,6.0,6.0,3.0,-10.0,-1.0,1651067451299378.0,1
389,-11.0,-8.0,-8.0,-2.0,5.0,0.0,0.0,-14.0,1651067451299378.0,1
390,3.0,2.0,3.0,3.0,0.0,0.0,-4.0,-8.0,1651067451320802.0,1
391,-4.0,-4.0,-3.0,-5.0,-10.0,-1.0,-2.0,-6.0,1651067451320802.0,1
392,-5.0,-2.0,1.0,-5.0,-11.0,-5.0,-6.0,4.0,1651067451322409.0,1
393,8.0,0.0,0.0,3.0,17.0,3.0,-8.0,8.0,1651067451322409.0,1
394,-4.0,-1.0,2.0,-1.0,-6.0,-1.0,4.0,-8.0,1651067451342663.0,1
395,4.0,2.0,1.0,2.0,11.0,0.0,-3.0,13.0,1651067451342663.0,1
396,1.0,0.0,0.0,-3.0,-6.0,-1.0,2.0,-5.0,1651067451344437.0,1
397,-3.0,-2.0,-1.0,-3.0,-9.0,-4.0,-3.0,-2.0,1651067451344437.0,1
398,5.0,-4.0,-10.0,-1.0,7.0,4.0,-9.0,5.0,1651067451357455.0,1
399,0.0,-5.0,-9.0,-6.0,-7.0,-5.0,4.0,1.0,1651067451357455.0,1
400,-3.0,-1.0,-3.0,1.0,-3.0,-3.0,-2.0,-1.0,1651067451359397.0,1
401,-3.0,-2.0,-5.0,-6.0,-7.0,-3.0,6.0,-6.0,1651067451359397.0,1
402,-3.0,2.0,5.0,3.0,5.0,-3.0,-9.0,2.0,1651067451380533.0,1
403,-2.0,-1.0,-2.0,0.0,-6.0,-1.0,-2.0,-9.0,1651067451380533.0,1
404,3.0,-1.0,-1.0,-4.0,5.0,2.0,0.0,7.0,1651067451381553.0,1
405,-7.0,-2.0,-2.0,-1.0,-8.0,-6.0,-5.0,-13.0,1651067451381553.0,1
406,-3.0,-4.0,-3.0,-5.0,1.0,-1.0,-17.0,-3.0,1651067451394690.0,1
407,2.0,2.0,3.0,-1.0,-4.0,1.0,12.0,2.0,1651067451394690.0,1
408,-3.0,-2.0,1.0,3.0,3.0,0.0,-5.0,0.0,1651067451401794.0,1
409,-4.0,-3.0,-2.0,0.0,1.0,-1.0,6.0,-3.0,1651067451401794.0,1
410,3.0,1.0,3.0,2.0,0.0,-5.0,-9.0,-2.0,1651067451417822.0,1
411,-1.0,2.0,2.0,0.0,-1.0,1.0,-3.0,1.0,1651067451417822.0,1
412,0.0,1.0,-1.0,0.0,3.0,5.0,8.0,1.0,1651067451419749.0,1
413,-1.0,-1.0,0.0,-1.0,-6.0,-3.0,-7.0,-4.0,1651067451419749.0,1
414,2.0,4.0,1.0,1.0,3.0,2.0,8.0,6.0,1651067451440577.0,1
415,2.0,2.0,5.0,0.0,-1.0,-4.0,-2.0,4.0,1651067451440577.0,1
416,-5.0,-3.0,0.0,-1.0,-2.0,-3.0,3.0,-9.0,1651067451446564.0,1
417,0.0,-1.0,-4.0,-2.0,0.0,-2.0,-6.0,-1.0,1651067451446564.0,1
418,-1.0,0.0,0.0,1.0,4.0,3.0,4.0,4.0,1651067451454610.0,1
419,1.0,-2.0,-5.0,-1.0,-1.0,0.0,2.0,-1.0,1651067451454610.0,1
420,-2.0,0.0,-3.0,-1.0,-4.0,-6.0,-8.0,-5.0,1651067451461635.0,1
421,3.0,1.0,3.0,6.0,10.0,5.0,3.0,9.0,1651067451461635.0,1
422,-2.0,1.0,2.0,-1.0,1.0,0.0,0.0,-7.0,1651067451477746.0,1
423,-1.0,-2.0,0.0,-2.0,-3.0,-3.0,2.0,3.0,1651067451477746.0,1
424,1.0,0.0,2.0,-2.0,-1.0,0.0,-1.0,0.0,1651067451479674.0,1
425,-1.0,-1.0,-1.0,1.0,3.0,1.0,-3.0,-5.0,1651067451479674.0,1
426,2.0,3.0,1.0,0.0,3.0,3.0,11.0,7.0,1651067451500919.0,1
427,-2.0,-1.0,-1.0,-1.0,0.0,-3.0,-6.0,1.0,1651067451500919.0,1
428,1.0,0.0,-2.0,0.0,1.0,0.0,0.0,1.0,1651067451501945.0,1
429,-1.0,0.0,2.0,1.0,0.0,4.0,6.0,1.0,1651067451501945.0,1
430,-1.0,-1.0,-2.0,-3.0,-1.0,-2.0,-2.0,-3.0,1651067451514000.0,1
431,-1.0,1.0,1.0,0.0,-2.0,-3.0,-2.0,-1.0,1651067451514000.0,1
432,1.0,-1.0,-2.0,2.0,3.0,0.0,1.0,2.0,1651067451531027.0,1
433,-2.0,-1.0,-1.0,-3.0,-2.0,0.0,-1.0,1.0,1651067451531027.0,1
434,-1.0,-2.0,-3.0,-3.0,-6.0,-2.0,1.0,1.0,1651067451538078.0,1
435,0.0,-1.0,0.0,-1.0,-1.0,-1.0,-3.0,-3.0,1651067451538078.0,1
436,1.0,0.0,2.0,-4.0,1.0,1.0,-1.0,-3.0,1651067451539036.0,1
437,-2.0,-1.0,-4.0,5.0,1.0,0.0,1.0,3.0,1651067451539036.0,1
438,1.0,0.0,-2.0,-5.0,2.0,0.0,-1.0,0.0,1651067451560172.0,1
439,1.0,-1.0,-1.0,-4.0,-6.0,-2.0,-3.0,-3.0,1651067451560172.0,1
440,2.0,-1.0,-2.0,15.0,-1.0,-1.0,4.0,7.0,1651067451562128.0,1
441,1.0,2.0,2.0,-11.0,-3.0,-2.0,0.0,0.0,1651067451562128.0,1
442,0.0,-3.0,-1.0,-10.0,0.0,0.0,0.0,-1.0,1651067451574117.0,1
443,-1.0,-2.0,1.0,14.0,6.0,-2.0,-1.0,-1.0,1651067451574117.0,1
444,-2.0,0.0,-2.0,-5.0,-1.0,-1.0,-2.0,-2.0,1651067451583096.0,1
445,-1.0,0.0,0.0,5.0,2.0,-1.0,0.0,0.0,1651067451583096.0,1
446,-2.0,-3.0,-6.0,1.0,-1.0,-5.0,-4.0,-2.0,1651067451598368.0,1
447,0.0,1.0,-1.0,-14.0,-10.0,-3.0,0.0,0.0,1651067451598368.0,1
448,0.0,1.0,1.0,0.0,-2.0,-1.0,-4.0,-1.0,1651067451599366.0,1
449,-1.0,-1.0,0.0,3.0,1.0,1.0,2.0,3.0,1651067451599366.0,1
450,1.0,3.0,7.0,-4.0,4.0,2.0,-3.0,-2.0,1651067451620544.0,1
451,2.0,-1.0,-6.0,0.0,1.0,1.0,7.0,1.0,1651067451620544.0,1
452,-2.0,-3.0,-6.0,-9.0,-4.0,-5.0,-1.0,-2.0,1651067451621544.0,1
453,0.0,-1.0,-3.0,-1.0,-4.0,0.0,0.0,-2.0,1651067451621544.0,1
454,-1.0,0.0,-1.0,-7.0,-5.0,0.0,0.0,0.0,1651067451634525.0,1
455,-2.0,-1.0,2.0,5.0,5.0,2.0,-4.0,-1.0,1651067451634525.0,1
456,-3.0,-3.0,-7.0,-19.0,-12.0,-5.0,-3.0,-3.0,1651067451642561.0,1
457,0.0,2.0,2.0,7.0,5.0,1.0,-2.0,-2.0,1651067451642561.0,1
458,0.0,1.0,0.0,13.0,5.0,2.0,4.0,0.0,1651067451657785.0,1
459,1.0,-1.0,-2.0,-7.0,-8.0,-2.0,0.0,0.0,1651067451657785.0,1
460,1.0,1.0,0.0,0.0,8.0,4.0,-2.0,-2.0,1651067451659733.0,1
461,-2.0,-3.0,-12.0,-21.0,-11.0,-8.0,-5.0,-1.0,1651067451659733.0,1
462,0.0,0.0,-1.0,7.0,-1.0,0.0,2.0,-2.0,1651067451680422.0,1
463,-1.0,1.0,2.0,1.0,7.0,1.0,-2.0,1.0,1651067451680422.0,1
464,2.0,2.0,2.0,-8.0,-1.0,2.0,4.0,0.0,1651067451682395.0,1
465,-3.0,-4.0,0.0,6.0,5.0,-2.0,-2.0,-2.0,1651067451682395.0,1
466,-3.0,-5.0,-7.0,-12.0,-7.0,-4.0,-1.0,-2.0,1651067451694428.0,1
467,-3.0,-3.0,-7.0,-6.0,-2.0,0.0,-2.0,1.0,1651067451694428.0,1
468,2.0,2.0,8.0,7.0,2.0,0.0,-3.0,-1.0,1651067451703427.0,1
469,1.0,3.0,3.0,-6.0,3.0,5.0,3.0,4.0,1651067451703427.0,1
470,1.0,2.0,5.0,16.0,3.0,-1.0,-4.0,-2.0,1651067451717565.0,1
471,-1.0,-2.0,-3.0,-13.0,4.0,3.0,1.0,0.0,1651067451717565.0,1
472,1.0,1.0,0.0,1.0,-3.0,-1.0,2.0,2.0,1651067451719522.0,1
473,0.0,-1.0,-5.0,-1.0,-6.0,-5.0,-2.0,-1.0,1651067451719522.0,1
474,-1.0,1.0,4.0,6.0,0.0,1.0,1.0,1.0,1651067451740630.0,1
475,-1.0,1.0,-4.0,-5.0,-4.0,-2.0,-3.0,-5.0,1651067451740630.0,1
476,-6.0,-9.0,-4.0,1.0,4.0,1.0,1.0,1.0,1651067451741617.0,1
477,0.0,1.0,4.0,13.0,0.0,1.0,-2.0,0.0,1651067451741617.0,1
478,0.0,-1.0,0.0,-11.0,-2.0,0.0,2.0,1.0,1651067451753699.0,1
479,2.0,0.0,2.0,-2.0,0.0,1.0,0.0,0.0,1651067451753699.0,1
480,-5.0,-3.0,-6.0,6.0,-2.0,-2.0,-2.0,-3.0,1651067451762711.0,1
481,0.0,0.0,3.0,-1.0,-3.0,0.0,0.0,-2.0,1651067451762711.0,1
482,0.0,-1.0,-3.0,-3.0,-2.0,0.0,0.0,-1.0,1651067451778356.0,1
483,0.0,0.0,6.0,-1.0,4.0,1.0,-1.0,0.0,1651067451778356.0,1
484,2.0,0.0,5.0,11.0,4.0,1.0,0.0,0.0,1651067451779283.0,1
485,-2.0,-2.0,-4.0,-3.0,-1.0,-2.0,0.0,0.0,1651067451779283.0,1
486,1.0,2.0,4.0,2.0,-2.0,-2.0,-2.0,0.0,1651067451799744.0,1
487,-1.0,-2.0,-1.0,7.0,-3.0,-3.0,-1.0,-2.0,1651067451799744.0,1
488,-3.0,-3.0,-9.0,-17.0,-3.0,-1.0,1.0,-3.0,1651067451806725.0,1
489,0.0,0.0,0.0,-6.0,-3.0,-2.0,-2.0,-1.0,1651067451806725.0,1
490,1.0,1.0,1.0,7.0,5.0,1.0,1.0,-1.0,1651067451813652.0,1
491,0.0,1.0,1.0,-1.0,-2.0,-1.0,-1.0,-2.0,1651067451813652.0,1
492,0.0,1.0,3.0,12.0,9.0,5.0,4.0,6.0,1651067451822654.0,1
493,0.0,0.0,-2.0,-6.0,-2.0,1.0,0.0,0.0,1651067451822654.0,1
494,-3.0,-3.0,-4.0,-6.0,-1.0,0.0,0.0,-1.0,1651067451838402.0,1
495,0.0,1.0,1.0,3.0,-3.0,0.0,0.0,1.0,1651067451838402.0,1
496,1.0,1.0,0.0,-5.0,-5.0,-1.0,-1.0,-2.0,1651067451839360.0,1
497,-1.0,-1.0,3.0,4.0,2.0,-3.0,-1.0,-2.0,1651067451839360.0,1
498,1.0,1.0,0.0,-4.0,-1.0,3.0,-1.0,-1.0,1651067451860828.0,1
499,0.0,0.0,1.0,4.0,-1.0,0.0,0.0,1.0,1651067451860828.0,1
500,-1.0,1.0,-1.0,1.0,-3.0,-2.0,-2.0,0.0,1651067451861639.0,1
501,-1.0,-1.0,-1.0,0.0,1.0,2.0,0.0,1.0,1651067451861639.0,1
502,-1.0,0.0,0.0,1.0,2.0,1.0,0.0,0.0,1651067451874426.0,1
503,-1.0,-1.0,1.0,16.0,3.0,-2.0,-1.0,0.0,1651067451874426.0,1
504,0.0,-2.0,-2.0,-11.0,-4.0,-2.0,0.0,-2.0,1651067451890215.0,1
505,-1.0,-2.0,-2.0,0.0,0.0,-2.0,-1.0,0.0,1651067451890215.0,1
506,1.0,1.0,0.0,-8.0,-6.0,-4.0,0.0,2.0,1651067451898263.0,1
507,-1.0,-1.0,-1.0,1.0,4.0,3.0,3.0,1.0,1651067451898263.0,1
508,-1.0,2.0,4.0,8.0,4.0,1.0,-2.0,0.0,1651067451899193.0,1
509,1.0,1.0,1.0,5.0,-3.0,-3.0,-3.0,0.0,1651067451899193.0,1
510,-2.0,0.0,-2.0,1.0,2.0,2.0,2.0,1.0,1651067451920204.0,1
511,0.0,0.0,-1.0,-10.0,-8.0,-2.0,0.0,2.0,1651067451920204.0,1
512,-2.0,1.0,-2.0,2.0,-3.0,-4.0,-1.0,-2.0,1651067451922159.0,1
513,-1.0,-1.0,0.0,0.0,2.0,2.0,1.0,-1.0,1651067451922159.0,1
514,0.0,0.0,-2.0,3.0,-3.0,-8.0,-5.0,-1.0,1651067451942692.0,1
515,0.0,0.0,2.0,-4.0,3.0,7.0,1.0,1.0,1651067451942692.0,1
516,3.0,-1.0,-1.0,-6.0,-1.0,0.0,1.0,2.0,1651067451944712.0,1
517,-1.0,-1.0,-1.0,3.0,-1.0,-2.0,0.0,0.0,1651067451944712.0,1
518,0.0,0.0,-4.0,0.0,0.0,1.0,0.0,0.0,1651067451958361.0,1
519,-2.0,-2.0,-4.0,0.0,-4.0,-4.0,-2.0,-2.0,1651067451958361.0,1
520,-1.0,1.0,-1.0,-6.0,-5.0,-3.0,-2.0,-2.0,1651067451959351.0,1
521,-1.0,-2.0,-1.0,5.0,3.0,0.0,0.0,0.0,1651067451959351.0,1
522,-2.0,-1.0,2.0,3.0,-1.0,2.0,-1.0,0.0,1651067451980827.0,1
523,-1.0,-1.0,0.0,-1.0,0.0,0.0,0.0,-1.0,1651067451980827.0,1
524,-1.0,-2.0,-4.0,1.0,-1.0,0.0,0.0,0.0,1651067451982377.0,1
525,0.0,1.0,0.0,-2.0,-3.0,-1.0,0.0,1.0,1651067451982377.0,1
526,0.0,-1.0,-1.0,1.0,1.0,0.0,1.0,0.0,1651067452002715.0,1
527,1.0,-1.0,0.0,-5.0,0.0,-1.0,-2.0,-2.0,1651067452002715.0,1
528,0.0,-1.0,0.0,3.0,1.0,2.0,4.0,0.0,1651067452004711.0,1
529,0.0,0.0,1.0,1.0,1.0,2.0,-1.0,-1.0,1651067452004711.0,1
530,2.0,-1.0,1.0,-3.0,-2.0,0.0,-1.0,-1.0,1651067452017891.0,1
531,-2.0,0.0,0.0,-1.0,0.0,-4.0,-2.0,-1.0,1651067452017891.0,1
532,2.0,-1.0,-3.0,-2.0,0.0,-1.0,-3.0,2.0,1651067452019839.0,1
533,1.0,-1.0,1.0,1.0,0.0,3.0,3.0,0.0,1651067452019839.0,1
534,-1.0,-1.0,1.0,1.0,3.0,3.0,3.0,0.0,1651067452040109.0,1
535,-1.0,0.0,1.0,1.0,1.0,-2.0,0.0,-1.0,1651067452040109.0,1
536,0.0,0.0,-1.0,-9.0,-4.0,-5.0,-1.0,-1.0,1651067452042037.0,1
537,-1.0,-1.0,-1.0,-5.0,-1.0,1.0,0.0,-2.0,1651067452042037.0,1
538,0.0,-1.0,1.0,8.0,-6.0,-1.0,0.0,0.0,1651067452062730.0,1
539,-1.0,0.0,-1.0,-6.0,5.0,4.0,0.0,0.0,1651067452062730.0,1
540,0.0,-1.0,0.0,1.0,-2.0,-2.0,-1.0,-1.0,1651067452064727.0,1
541,0.0,-2.0,-1.0,-1.0,-1.0,1.0,-1.0,1.0,1651067452064727.0,1
542,-3.0,-2.0,-2.0,1.0,2.0,-2.0,-2.0,-3.0,1651067452077426.0,1
543,-2.0,0.0,-1.0,1.0,-4.0,-1.0,1.0,0.0,1651067452077426.0,1
544,-1.0,-1.0,0.0,2.0,0.0,-3.0,-1.0,0.0,1651067452084476.0,1
545,-2.0,1.0,0.0,-4.0,-5.0,-5.0,-3.0,1.0,1651067452084476.0,1
546,-1.0,0.0,-1.0,-1.0,7.0,9.0,3.0,1.0,1651067452100322.0,1
547,-1.0,-3.0,-2.0,1.0,-2.0,0.0,0.0,-1.0,1651067452100322.0,1
548,-2.0,2.0,2.0,-1.0,-1.0,-1.0,-1.0,-1.0,1651067452102250.0,1
549,0.0,0.0,0.0,-1.0,-5.0,-5.0,-1.0,0.0,1651067452102250.0,1
550,-2.0,-2.0,0.0,-3.0,-2.0,-5.0,-1.0,0.0,1651067452123221.0,1
551,1.0,-2.0,-2.0,0.0,-1.0,1.0,-1.0,2.0,1651067452123221.0,1
552,0.0,1.0,-1.0,0.0,1.0,1.0,1.0,0.0,1651067452124192.0,1
553,0.0,0.0,-1.0,-1.0,2.0,2.0,0.0,-1.0,1651067452124192.0,1
554,-2.0,-1.0,-4.0,-3.0,-2.0,-6.0,-2.0,-1.0,1651067452137327.0,1
555,0.0,-1.0,-2.0,-4.0,-1.0,-1.0,-3.0,2.0,1651067452137327.0,1
556,0.0,-4.0,-2.0,1.0,0.0,2.0,1.0,0.0,1651067452144312.0,1
557,-1.0,2.0,1.0,-4.0,-4.0,-1.0,-1.0,-2.0,1651067452144312.0,1
558,1.0,-1.0,-2.0,-1.0,3.0,3.0,1.0,-2.0,1651067452159350.0,1
559,0.0,-1.0,-1.0,4.0,-1.0,-3.0,-1.0,-3.0,1651067452159350.0,1
560,-1.0,-1.0,0.0,-1.0,0.0,0.0,-2.0,0.0,1651067452167871.0,1
561,0.0,1.0,0.0,4.0,1.0,1.0,-1.0,-1.0,1651067452167871.0,1
562,0.0,0.0,1.0,2.0,0.0,2.0,1.0,2.0,1651067452182823.0,1
563,-1.0,1.0,2.0,3.0,-5.0,-8.0,-3.0,-2.0,1651067452182823.0,1
564,0.0,-1.0,0.0,0.0,3.0,4.0,3.0,-1.0,1651067452184818.0,1
565,-1.0,-2.0,-3.0,-3.0,-2.0,-2.0,1.0,0.0,1651067452184818.0,1
566,1.0,-1.0,-2.0,-6.0,-5.0,-2.0,-3.0,-1.0,1651067452196852.0,1
567,0.0,1.0,1.0,8.0,4.0,0.0,0.0,-1.0,1651067452196852.0,1
568,-2.0,-1.0,-2.0,-1.0,0.0,1.0,1.0,1.0,1651067452203834.0,1
569,0.0,-1.0,-4.0,-5.0,-5.0,-2.0,1.0,0.0,1651067452203834.0,1
570,0.0,1.0,-1.0,0.0,1.0,-2.0,-2.0,-1.0,1651067452220856.0,1
571,-2.0,-1.0,0.0,-1.0,0.0,-1.0,-1.0,1.0,1651067452220856.0,1
572,-1.0,-1.0,0.0,1.0,-1.0,1.0,-3.0,1.0,1651067452221858.0,1
573,-1.0,-2.0,0.0,0.0,3.0,4.0,2.0,1.0,1651067452221858.0,1
574,-1.0,0.0,1.0,3.0,1.0,-2.0,-1.0,1.0,1651067452242809.0,1
575,0.0,-1.0,-3.0,2.0,0.0,2.0,1.0,0.0,1651067452242809.0,1
576,0.0,0.0,-4.0,-9.0,2.0,1.0,-1.0,-1.0,1651067452244821.0,0
577,0.0,0.0,2.0,8.0,0.0,-1.0,-1.0,-2.0,1651067452244821.0,0
578,-2.0,-2.0,0.0,-2.0,3.0,0.0,-1.0,-1.0,1651067452256828.0,0
579,-1.0,0.0,-2.0,3.0,1.0,1.0,0.0,-2.0,1651067452256828.0,0
580,1.0,0.0,0.0,1.0,-2.0,0.0,-3.0,0.0,1651067452263811.0,0
581,-1.0,1.0,-1.0,-1.0,1.0,1.0,2.0,-2.0,1651067452263811.0,0
582,0.0,0.0,0.0,0.0,-6.0,-5.0,-1.0,1.0,1651067452280764.0,0
583,2.0,0.0,-1.0,-1.0,1.0,2.0,0.0,1.0,1651067452280764.0,0
584,0.0,-1.0,0.0,5.0,2.0,-4.0,-3.0,-2.0,1651067452281696.0,0
585,-1.0,-1.0,0.0,1.0,7.0,7.0,1.0,-1.0,1651067452281696.0,0
586,-2.0,0.0,-1.0,3.0,-3.0,0.0,0.0,-2.0,1651067452302640.0,0
587,-1.0,-1.0,0.0,-6.0,-3.0,3.0,2.0,-1.0,1651067452302640.0,0
588,-1.0,1.0,-1.0,-1.0,-4.0,-7.0,-3.0,-1.0,1651067452304635.0,0
589,1.0,-2.0,-1.0,0.0,2.0,-1.0,-3.0,1.0,1651067452304635.0,0
590,2.0,-1.0,-2.0,-2.0,-2.0,1.0,-1.0,-1.0,1651067452317575.0,0
591,-1.0,0.0,2.0,6.0,-1.0,0.0,0.0,0.0,1651067452317575.0,0
592,-1.0,-3.0,-4.0,-13.0,-7.0,-4.0,-1.0,-3.0,1651067452324532.0,0
593,0.0,-1.0,0.0,8.0,0.0,-3.0,-1.0,-1.0,1651067452324532.0,0
594,1.0,-1.0,-2.0,-10.0,1.0,3.0,0.0,-1.0,1651067452340557.0,0
595,0.0,0.0,0.0,-1.0,0.0,-3.0,-2.0,0.0,1651067452340557.0,0
596,-2.0,-2.0,-1.0,5.0,1.0,2.0,1.0,0.0,1651067452341489.0,0
597,-2.0,-1.0,0.0,-4.0,-2.0,-1.0,-1.0,1.0,1651067452341489.0,0
598,-1.0,-2.0,0.0,0.0,-2.0,-1.0,-2.0,0.0,1651067452363775.0,0
599,-1.0,-1.0,-1.0,-4.0,-1.0,2.0,1.0,-1.0,1651067452363775.0,0
600,0.0,0.0,1.0,1.0,4.0,2.0,0.0,-3.0,1651067452365332.0,0
601,1.0,1.0,1.0,0.0,-3.0,-4.0,-2.0,0.0,1651067452365332.0,0
602,-1.0,-1.0,-1.0,2.0,1.0,1.0,1.0,-1.0,1651067452377186.0,0
603,0.0,-1.0,0.0,-3.0,1.0,-5.0,-2.0,-1.0,1651067452377186.0,0
604,0.0,2.0,2.0,5.0,2.0,6.0,4.0,3.0,1651067452384117.0,0
605,0.0,-1.0,-3.0,-14.0,-5.0,-1.0,1.0,-1.0,1651067452384117.0,0
606,0.0,0.0,1.0,7.0,1.0,-2.0,-1.0,0.0,1651067452400142.0,0
607,-1.0,-2.0,-2.0,-3.0,-1.0,0.0,0.0,2.0,1651067452400142.0,0
608,1.0,-1.0,2.0,3.0,-2.0,-2.0,-1.0,-1.0,1651067452402096.0,0
609,-3.0,0.0,0.0,2.0,-2.0,-3.0,-2.0,-2.0,1651067452402096.0,0
610,-1.0,2.0,0.0,-3.0,-2.0,0.0,-1.0,-3.0,1651067452423369.0,0
611,-2.0,0.0,0.0,-2.0,-2.0,-1.0,0.0,0.0,1651067452423369.0,0
612,-2.0,-1.0,-1.0,5.0,3.0,0.0,-1.0,-1.0,1651067452424334.0,0
613,0.0,-1.0,3.0,1.0,1.0,0.0,0.0,1.0,1651067452424334.0,0
614,-2.0,-1.0,-5.0,-8.0,-3.0,-2.0,-1.0,-1.0,1651067452436367.0,0
615,-1.0,-2.0,-2.0,0.0,-1.0,1.0,-1.0,-1.0,1651067452436367.0,0
616,0.0,1.0,1.0,-3.0,-4.0,-1.0,-2.0,0.0,1651067452445277.0,0
617,-2.0,1.0,-3.0,-2.0,1.0,1.0,0.0,-1.0,1651067452445277.0,0
618,-1.0,0.0,1.0,3.0,2.0,-2.0,0.0,0.0,1651067452460265.0,0
619,-1.0,-1.0,0.0,-5.0,-4.0,0.0,0.0,-1.0,1651067452460265.0,0
620,-2.0,-2.0,-2.0,-1.0,-3.0,0.0,-1.0,0.0,1651067452462232.0,0
621,-1.0,-1.0,-2.0,2.0,-2.0,0.0,-2.0,-2.0,1651067452462232.0,0
622,2.0,-2.0,-3.0,-2.0,1.0,0.0,-3.0,-1.0,1651067452482442.0,0
623,-1.0,0.0,-1.0,-1.0,-1.0,2.0,1.0,-2.0,1651067452482442.0,0
624,0.0,-1.0,-1.0,0.0,-4.0,-3.0,-2.0,0.0,1651067452484438.0,0
625,0.0,0.0,5.0,-1.0,0.0,2.0,0.0,2.0,1651067452484438.0,0
626,-1.0,-2.0,-2.0,1.0,-5.0,-4.0,-3.0,-1.0,1651067452496669.0,0
627,0.0,0.0,-2.0,-6.0,-2.0,-3.0,-1.0,0.0,1651067452496669.0,0
628,0.0,-2.0,0.0,4.0,2.0,3.0,1.0,-1.0,1651067452505376.0,0
629,-1.0,0.0,0.0,1.0,0.0,-3.0,-1.0,0.0,1651067452505376.0,0
630,-2.0,-1.0,2.0,-1.0,0.0,2.0,0.0,0.0,1651067452527445.0,0
631,-1.0,-1.0,-2.0,-2.0,-3.0,-4.0,-2.0,0.0,1651067452527445.0,0
632,-1.0,0.0,2.0,4.0,-3.0,-2.0,-1.0,1.0,1651067452529443.0,0
633,-1.0,-1.0,-2.0,-3.0,2.0,0.0,-1.0,-1.0,1651067452529443.0,0
634,1.0,-1.0,2.0,4.0,-1.0,-1.0,-1.0,-2.0,1651067452542980.0,0
635,1.0,1.0,-4.0,-7.0,-1.0,-1.0,1.0,-1.0,1651067452542980.0,0
636,0.0,0.0,-1.0,3.0,3.0,-1.0,0.0,0.0,1651067452544010.0,0
637,-2.0,-2.0,-2.0,0.0,-1.0,0.0,-2.0,-1.0,1651067452544010.0,0
638,0.0,-2.0,-3.0,2.0,-2.0,-2.0,-2.0,-2.0,1651067452556291.0,0
639,1.0,1.0,3.0,1.0,1.0,1.0,-1.0,0.0,1651067452556291.0,0
640,1.0,0.0,-1.0,-4.0,0.0,2.0,1.0,-1.0,1651067452565739.0,0
641,0.0,-1.0,-2.0,0.0,0.0,1.0,-1.0,-2.0,1651067452565739.0,0
642,0.0,0.0,-1.0,-7.0,1.0,0.0,4.0,0.0,1651067452580459.0,0
643,-2.0,-1.0,-2.0,3.0,-2.0,-3.0,-3.0,-1.0,1651067452580459.0,0
644,0.0,0.0,0.0,2.0,2.0,6.0,1.0,1.0,1651067452582398.0,0
645,0.0,0.0,0.0,0.0,0.0,2.0,4.0,0.0,1651067452582398.0,0
646,0.0,0.0,2.0,2.0,0.0,2.0,1.0,1.0,1651067452603352.0,0
647,0.0,-1.0,1.0,-1.0,0.0,-1.0,0.0,-1.0,1651067452603352.0,0
648,-3.0,0.0,1.0,-5.0,-4.0,-4.0,-3.0,-1.0,1651067452604366.0,0
649,1.0,2.0,2.0,1.0,0.0,1.0,2.0,0.0,1651067452604366.0,0
650,-2.0,-3.0,-3.0,5.0,-4.0,-3.0,-1.0,0.0,1651067452616482.0,0
651,-1.0,-1.0,1.0,-12.0,0.0,-2.0,-2.0,-2.0,1651067452616482.0,0
652,2.0,-1.0,0.0,6.0,6.0,-1.0,-1.0,-2.0,1651067452625570.0,0
653,-1.0,0.0,-1.0,-3.0,-4.0,0.0,-1.0,0.0,1651067452625570.0,0
654,0.0,-1.0,-4.0,-4.0,-1.0,-1.0,0.0,0.0,1651067452640614.0,0
655,1.0,2.0,3.0,5.0,-2.0,1.0,0.0,0.0,1651067452640614.0,0
656,0.0,0.0,0.0,2.0,-2.0,-1.0,1.0,-2.0,1651067452641571.0,0
657,-1.0,-1.0,-2.0,-5.0,-1.0,-2.0,-1.0,0.0,1651067452641571.0,0
658,0.0,0.0,2.0,2.0,-2.0,-3.0,-4.0,0.0,1651067452662668.0,0
659,-1.0,-2.0,0.0,5.0,1.0,1.0,1.0,1.0,1651067452662668.0,0
660,-1.0,-1.0,-3.0,-8.0,0.0,3.0,1.0,1.0,1651067452664653.0,0
661,0.0,-2.0,0.0,2.0,-3.0,-6.0,-1.0,0.0,1651067452664653.0,0
662,-1.0,2.0,-1.0,-1.0,1.0,-1.0,0.0,-2.0,1651067452676648.0,0
663,-2.0,0.0,-2.0,2.0,0.0,1.0,0.0,-1.0,1651067452676648.0,0
664,-1.0,-1.0,-2.0,-2.0,0.0,-1.0,-3.0,0.0,1651067452685747.0,0
665,0.0,0.0,0.0,2.0,1.0,3.0,3.0,2.0,1651067452685747.0,0
666,0.0,-1.0,-3.0,-11.0,-3.0,-3.0,-3.0,-1.0,1651067452700650.0,0
667,-1.0,-1.0,-2.0,1.0,0.0,-2.0,-2.0,-2.0,1651067452700650.0,0
668,0.0,0.0,0.0,-1.0,-4.0,-4.0,1.0,-1.0,1651067452701589.0,0
669,-1.0,1.0,-4.0,-2.0,-1.0,0.0,-3.0,-2.0,1651067452701589.0,0
670,-2.0,-1.0,0.0,4.0,5.0,3.0,1.0,-2.0,1651067452722592.0,0
671,0.0,0.0,0.0,-3.0,0.0,-1.0,0.0,-1.0,1651067452722592.0,0
672,0.0,-2.0,-3.0,2.0,-3.0,-1.0,-3.0,0.0,1651067452724519.0,0
673,0.0,0.0,-1.0,-5.0,-3.0,-1.0,-2.0,-1.0,1651067452724519.0,0
674,-2.0,-1.0,2.0,-1.0,-7.0,-3.0,-2.0,-1.0,1651067452736671.0,0
675,0.0,-3.0,-3.0,0.0,7.0,-1.0,-1.0,1.0,1651067452736671.0,0
676,0.0,0.0,2.0,-1.0,-2.0,1.0,0.0,0.0,1651067452745529.0,0
677,0.0,0.0,0.0,0.0,1.0,0.0,1.0,-1.0,1651067452745529.0,0
678,-1.0,-3.0,-4.0,1.0,1.0,2.0,2.0,0.0,1651067452760457.0,0
679,-1.0,-1.0,1.0,-2.0,-5.0,-5.0,-4.0,-1.0,1651067452760457.0,0
680,1.0,0.0,-3.0,-2.0,-3.0,-6.0,-5.0,-2.0,1651067452761454.0,0
681,-1.0,0.0,1.0,1.0,4.0,0.0,2.0,1.0,1651067452761454.0,0
682,0.0,1.0,0.0,-2.0,-1.0,1.0,-1.0,1.0,1651067452783202.0,0
683,-1.0,-3.0,-3.0,2.0,-3.0,-4.0,-2.0,-1.0,1651067452783202.0,0
684,-1.0,-2.0,-1.0,-5.0,0.0,0.0,0.0,0.0,1651067452784213.0,0
685,-1.0,-1.0,-2.0,0.0,-2.0,3.0,0.0,-1.0,1651067452784213.0,0
686,0.0,0.0,0.0,-1.0,-4.0,-6.0,-1.0,-1.0,1651067452796363.0,0
687,0.0,1.0,1.0,1.0,0.0,3.0,1.0,1.0,1651067452796363.0,0
688,-1.0,0.0,-1.0,-3.0,-1.0,-1.0,0.0,1.0,1651067452805270.0,0
689,-1.0,-1.0,-2.0,-3.0,-7.0,-3.0,-2.0,-1.0,1651067452805270.0,0
690,1.0,1.0,2.0,5.0,5.0,1.0,0.0,0.0,1651067452820825.0,0
691,0.0,2.0,-2.0,-5.0,4.0,-1.0,-1.0,-3.0,1651067452820825.0,0
692,-3.0,-2.0,-4.0,-2.0,-5.0,-2.0,0.0,-1.0,1651067452822227.0,0
693,0.0,1.0,2.0,0.0,5.0,3.0,0.0,0.0,1651067452822227.0,0
694,-2.0,-1.0,-3.0,1.0,-3.0,-3.0,-2.0,0.0,1651067452843069.0,0
695,0.0,-1.0,1.0,2.0,-3.0,-2.0,-1.0,-2.0,1651067452843069.0,0
696,1.0,0.0,-1.0,-3.0,1.0,2.0,3.0,2.0,1651067452844067.0,0
697,-1.0,-1.0,-4.0,-3.0,-4.0,-2.0,0.0,-2.0,1651067452844067.0,0
698,0.0,1.0,1.0,0.0,2.0,-1.0,0.0,-1.0,1651067452857044.0,0
699,-1.0,1.0,1.0,6.0,10.0,6.0,2.0,0.0,1651067452857044.0,0
700,1.0,0.0,2.0,0.0,-4.0,-5.0,0.0,-1.0,1651067452866017.0,0
701,0.0,-1.0,-3.0,0.0,-5.0,-6.0,-5.0,-1.0,1651067452866017.0,0
702,1.0,-1.0,-1.0,1.0,12.0,15.0,3.0,1.0,1651067452880777.0,0
703,-1.0,-1.0,-3.0,-1.0,-8.0,0.0,1.0,0.0,1651067452880777.0,0
704,-1.0,0.0,3.0,0.0,8.0,5.0,1.0,-1.0,1651067452882453.0,0
705,0.0,-2.0,1.0,-4.0,-8.0,3.0,1.0,1.0,1651067452882453.0,0
706,0.0,-2.0,-1.0,0.0,-10.0,-9.0,-4.0,-2.0,1651067452902779.0,0
707,1.0,0.0,0.0,-1.0,0.0,-5.0,-3.0,2.0,1651067452902779.0,0
708,1.0,2.0,2.0,1.0,-4.0,0.0,2.0,2.0,1651067452904776.0,0
709,-1.0,-1.0,1.0,0.0,1.0,-4.0,-2.0,-2.0,1651067452904776.0,0
710,-1.0,-1.0,-4.0,-6.0,-6.0,-3.0,-2.0,-3.0,1651067452925870.0,0
711,0.0,2.0,4.0,7.0,14.0,16.0,4.0,0.0,1651067452925870.0,0
712,-3.0,-4.0,-8.0,-3.0,-7.0,-10.0,-6.0,-5.0,1651067452926829.0,0
713,0.0,-2.0,-3.0,-6.0,3.0,3.0,0.0,-2.0,1651067452926829.0,0
714,-1.0,-2.0,3.0,-1.0,-1.0,-1.0,1.0,0.0,1651067452940777.0,0
715,0.0,-2.0,1.0,-2.0,-6.0,-10.0,-2.0,-1.0,1651067452940777.0,0
716,0.0,-2.0,-4.0,1.0,1.0,6.0,-1.0,1.0,1651067452941774.0,0
717,0.0,0.0,-3.0,1.0,0.0,-5.0,1.0,-1.0,1651067452941774.0,0
718,0.0,2.0,7.0,3.0,4.0,5.0,0.0,0.0,1651067452962607.0,0
719,-4.0,-7.0,-14.0,-11.0,-10.0,-6.0,-1.0,-5.0,1651067452962607.0,0
720,-1.0,0.0,0.0,-3.0,-1.0,-7.0,-4.0,-1.0,1651067452964543.0,0
721,2.0,-1.0,-2.0,2.0,1.0,-2.0,1.0,0.0,1651067452964543.0,0
722,2.0,1.0,2.0,-2.0,-10.0,1.0,5.0,1.0,1651067452985305.0,0
723,0.0,1.0,5.0,3.0,8.0,6.0,1.0,0.0,1651067452985305.0,0
724,-1.0,-2.0,-2.0,4.0,1.0,4.0,0.0,-2.0,1651067452987330.0,0
725,-2.0,-3.0,-7.0,-4.0,-2.0,-9.0,-7.0,-2.0,1651067452987330.0,0
726,0.0,1.0,6.0,2.0,-2.0,-5.0,-2.0,1.0,1651067453000334.0,0
727,0.0,-3.0,-9.0,-4.0,-8.0,0.0,2.0,0.0,1651067453000334.0,0
728,-2.0,0.0,0.0,-4.0,-1.0,-2.0,-1.0,-1.0,1651067453002292.0,0
729,-1.0,1.0,4.0,3.0,5.0,2.0,-1.0,-1.0,1651067453002292.0,0
730,-1.0,-1.0,-7.0,-8.0,-2.0,-3.0,-2.0,1.0,1651067453023356.0,0
731,1.0,1.0,3.0,-1.0,-5.0,2.0,0.0,0.0,1651067453023356.0,0
732,1.0,2.0,2.0,8.0,2.0,-7.0,-4.0,-2.0,1651067453024355.0,0
733,-1.0,3.0,10.0,6.0,4.0,9.0,5.0,1.0,1651067453024355.0,0
734,-3.0,-8.0,-16.0,-7.0,1.0,-1.0,-1.0,-1.0,1651067453045938.0,0
735,-1.0,-1.0,2.0,4.0,-4.0,-3.0,0.0,0.0,1651067453045938.0,0
736,-2.0,-3.0,-6.0,-4.0,-4.0,-6.0,-3.0,-1.0,1651067453046935.0,0
737,-3.0,-1.0,1.0,-2.0,-1.0,4.0,-2.0,-1.0,1651067453046935.0,0
738,1.0,5.0,13.0,15.0,12.0,4.0,0.0,-2.0,1651067453060087.0,2
739,-2.0,-6.0,-17.0,-15.0,-9.0,-8.0,-2.0,-2.0,1651067453060087.0,2
740,1.0,3.0,12.0,14.0,13.0,11.0,4.0,0.0,1651067453067049.0,2
741,-1.0,-4.0,-12.0,-13.0,-17.0,-14.0,-6.0,-3.0,1651067453067049.0,2
742,-3.0,-5.0,-9.0,-7.0,6.0,8.0,0.0,-1.0,1651067453082965.0,2
743,5.0,5.0,5.0,3.0,-1.0,-3.0,2.0,4.0,1651067453082965.0,2
744,0.0,3.0,3.0,3.0,1.0,-3.0,-5.0,-2.0,1651067453084962.0,2
745,1.0,0.0,1.0,5.0,9.0,12.0,3.0,1.0,1651067453084962.0,2
746,1.0,3.0,6.0,-3.0,-5.0,0.0,4.0,-1.0,1651067453105360.0,2
747,-4.0,-5.0,-6.0,2.0,4.0,-1.0,-3.0,-2.0,1651067453105360.0,2
748,-2.0,-5.0,-9.0,-11.0,-7.0,-2.0,1.0,-1.0,1651067453107380.0,2
749,3.0,3.0,7.0,4.0,-2.0,-1.0,-1.0,0.0,1651067453107380.0,2
750,-2.0,-2.0,-6.0,-1.0,0.0,-3.0,-3.0,0.0,1651067453119426.0,2
751,0.0,3.0,9.0,3.0,2.0,1.0,-2.0,-1.0,1651067453119426.0,2
752,2.0,4.0,10.0,4.0,5.0,7.0,5.0,-2.0,1651067453126474.0,2
753,0.0,-5.0,-12.0,-6.0,-4.0,0.0,6.0,6.0,1651067453126474.0,2
754,2.0,8.0,16.0,11.0,2.0,-1.0,-2.0,-2.0,1651067453142756.0,2
755,-4.0,-6.0,-9.0,-10.0,-6.0,-8.0,-5.0,-1.0,1651067453142756.0,2
756,-3.0,-6.0,-6.0,2.0,7.0,4.0,-1.0,-3.0,1651067453144699.0,2
757,-1.0,1.0,2.0,2.0,-6.0,-11.0,-7.0,-1.0,1651067453144699.0,2
758,-4.0,-3.0,-10.0,-8.0,-6.0,-7.0,-5.0,1.0,1651067453165362.0,2
759,0.0,1.0,7.0,6.0,4.0,5.0,3.0,-5.0,1651067453165362.0,2
760,-2.0,-5.0,-8.0,-2.0,-6.0,-1.0,0.0,0.0,1651067453167363.0,2
761,-1.0,-1.0,-3.0,-4.0,0.0,1.0,0.0,0.0,1651067453167363.0,2
762,0.0,-4.0,-5.0,-2.0,-4.0,-5.0,-8.0,-7.0,1651067453179477.0,2
763,0.0,3.0,4.0,-1.0,-2.0,2.0,7.0,5.0,1651067453179477.0,2
764,2.0,6.0,10.0,7.0,2.0,2.0,-1.0,4.0,1651067453188422.0,2
765,-2.0,-4.0,-6.0,-1.0,-2.0,-4.0,-3.0,-5.0,1651067453188422.0,2
766,-1.0,-5.0,-11.0,-7.0,-3.0,-2.0,-12.0,-6.0,1651067453202676.0,2
767,3.0,7.0,12.0,15.0,15.0,12.0,17.0,16.0,1651067453202676.0,2
768,-2.0,3.0,7.0,-5.0,-15.0,-8.0,1.0,-3.0,1651067453204702.0,2
769,-2.0,2.0,5.0,2.0,-2.0,-3.0,-5.0,-3.0,1651067453204702.0,2
770,3.0,-5.0,-8.0,-5.0,2.0,5.0,0.0,5.0,1651067453225902.0,2
771,-14.0,-7.0,-10.0,-5.0,-4.0,-5.0,-9.0,-27.0,1651067453225902.0,2
772,7.0,-2.0,-2.0,-3.0,-1.0,2.0,1.0,15.0,1651067453226898.0,2
773,14.0,3.0,5.0,5.0,7.0,4.0,6.0,15.0,1651067453226898.0,2
774,-4.0,3.0,7.0,4.0,0.0,0.0,2.0,-4.0,1651067453238932.0,2
775,8.0,13.0,23.0,12.0,-3.0,-1.0,4.0,9.0,1651067453238932.0,2
776,-13.0,-11.0,-22.0,-16.0,-12.0,-8.0,-7.0,-21.0,1651067453247845.0,2
777,-4.0,1.0,6.0,5.0,17.0,5.0,-7.0,-7.0,1651067453247845.0,2
778,11.0,5.0,8.0,5.0,5.0,9.0,21.0,19.0,1651067453262728.0,2
779,-10.0,-5.0,-5.0,-5.0,-3.0,-4.0,-11.0,-18.0,1651067453262728.0,2
780,3.0,1.0,-1.0,-1.0,-1.0,-4.0,-2.0,0.0,1651067453264751.0,2
781,5.0,0.0,2.0,5.0,4.0,5.0,3.0,15.0,1651067453264751.0,2
782,-5.0,2.0,3.0,-1.0,-5.0,-4.0,7.0,-7.0,1651067453285737.0,2
783,0.0,-2.0,-3.0,-4.0,1.0,2.0,-6.0,-1.0,1651067453285737.0,2
784,1.0,-3.0,-1.0,2.0,-1.0,2.0,6.0,3.0,1651067453286672.0,2
785,-1.0,-5.0,-14.0,-15.0,-15.0,-8.0,-3.0,-7.0,1651067453286672.0,2
786,0.0,-2.0,1.0,2.0,4.0,-2.0,5.0,4.0,1651067453298698.0,2
787,2.0,7.0,10.0,6.0,0.0,-1.0,0.0,-1.0,1651067453298698.0,2
788,-6.0,-3.0,-3.0,-6.0,0.0,1.0,-3.0,-4.0,1651067453308621.0,2
789,-14.0,-2.0,1.0,2.0,-2.0,-5.0,-7.0,-17.0,1651067453308621.0,2
790,9.0,3.0,2.0,2.0,-6.0,-4.0,-2.0,-9.0,1651067453322807.0,2
791,5.0,0.0,4.0,-4.0,-5.0,3.0,8.0,27.0,1651067453322807.0,2
792,4.0,-3.0,-16.0,-10.0,-5.0,-4.0,-5.0,0.0,1651067453324804.0,2
793,-15.0,-3.0,3.0,3.0,-2.0,-3.0,-13.0,-28.0,1651067453324804.0,2
794,-1.0,-5.0,-8.0,-6.0,-4.0,-1.0,-4.0,15.0,1651067453344982.0,2
795,5.0,2.0,-2.0,1.0,5.0,6.0,18.0,4.0,1651067453344982.0,2
796,-2.0,2.0,14.0,9.0,6.0,0.0,-3.0,-6.0,1651067453346980.0,2
797,10.0,6.0,5.0,0.0,-5.0,-7.0,-5.0,3.0,1651067453346980.0,2
798,-17.0,-12.0,-11.0,-6.0,-3.0,-2.0,-10.0,-24.0,1651067453359508.0,2
799,7.0,-3.0,-10.0,-4.0,-1.0,-3.0,-9.0,1.0,1651067453359508.0,2
800,-4.0,5.0,10.0,6.0,3.0,0.0,4.0,5.0,1651067453368362.0,2
801,-3.0,-3.0,0.0,3.0,1.0,7.0,7.0,-8.0,1651067453368362.0,2
802,4.0,8.0,11.0,5.0,4.0,0.0,4.0,12.0,1651067453382715.0,2
803,-4.0,-9.0,-12.0,-6.0,-5.0,-3.0,-1.0,0.0,1651067453382715.0,2
804,2.0,-1.0,-5.0,3.0,2.0,-4.0,-10.0,-13.0,1651067453384678.0,2
805,1.0,-3.0,-4.0,-5.0,0.0,-2.0,3.0,4.0,1651067453384678.0,2
806,-8.0,-2.0,-5.0,2.0,4.0,2.0,4.0,0.0,1651067453405406.0,2
807,1.0,-5.0,-5.0,-1.0,-2.0,0.0,9.0,19.0,1651067453405406.0,2
808,7.0,1.0,0.0,0.0,1.0,-1.0,-14.0,-11.0,1651067453407409.0,2
809,6.0,-4.0,-15.0,-12.0,-3.0,-2.0,-8.0,4.0,1651067453407409.0,2
810,-4.0,-2.0,0.0,6.0,3.0,4.0,4.0,-16.0,1651067453419383.0,2
811,-9.0,-3.0,0.0,1.0,1.0,-5.0,-17.0,-25.0,1651067453419383.0,2
812,-5.0,3.0,-2.0,-4.0,-3.0,1.0,7.0,4.0,1651067453427724.0,2
813,8.0,4.0,2.0,-2.0,-4.0,4.0,9.0,21.0,1651067453427724.0,2
814,9.0,8.0,12.0,11.0,6.0,-1.0,-1.0,18.0,1651067453442700.0,2
815,-10.0,-12.0,-16.0,-16.0,-7.0,-3.0,-9.0,-29.0,1651067453442700.0,2
816,5.0,1.0,5.0,1.0,-3.0,-1.0,8.0,8.0,1651067453444674.0,2
817,-7.0,-1.0,3.0,0.0,-1.0,-3.0,-7.0,1.0,1651067453444674.0,2
818,1.0,3.0,6.0,0.0,-3.0,0.0,-6.0,-7.0,1651067453465672.0,2
819,3.0,-3.0,-8.0,-4.0,-4.0,1.0,6.0,10.0,1651067453465672.0,2
820,2.0,-1.0,-5.0,-4.0,-1.0,-2.0,-1.0,-3.0,1651067453466615.0,2
821,0.0,3.0,12.0,13.0,9.0,9.0,9.0,6.0,1651067453466615.0,2
822,1.0,-8.0,-18.0,-13.0,-9.0,-4.0,2.0,6.0,1651067453478585.0,2
823,-3.0,0.0,2.0,10.0,13.0,0.0,-9.0,-10.0,1651067453478585.0,2
824,-4.0,3.0,6.0,0.0,-3.0,4.0,12.0,3.0,1651067453488544.0,2
825,-4.0,-4.0,-5.0,-2.0,-6.0,-4.0,2.0,-1.0,1651067453488544.0,2
826,2.0,-3.0,-2.0,-1.0,5.0,2.0,0.0,7.0,1651067453502625.0,2
827,4.0,5.0,2.0,0.0,1.0,3.0,-2.0,-5.0,1651067453502625.0,2
828,0.0,-3.0,-6.0,-5.0,-14.0,-6.0,0.0,9.0,1651067453504609.0,2
829,-5.0,-6.0,-5.0,-3.0,19.0,6.0,-5.0,-8.0,1651067453504609.0,2
830,-8.0,-6.0,-7.0,-8.0,-17.0,-11.0,-8.0,-19.0,1651067453525782.0,2
831,2.0,5.0,9.0,3.0,1.0,-7.0,1.0,4.0,1651067453525782.0,2
832,2.0,1.0,4.0,2.0,5.0,7.0,-4.0,5.0,1651067453526713.0,2
833,2.0,-3.0,-3.0,-6.0,-11.0,-5.0,4.0,6.0,1651067453526713.0,2
834,-2.0,0.0,-1.0,-1.0,2.0,1.0,4.0,-2.0,1651067453538747.0,2
835,-2.0,0.0,3.0,1.0,-4.0,-5.0,-10.0,9.0,1651067453538747.0,2
836,5.0,3.0,4.0,4.0,5.0,3.0,5.0,2.0,1651067453555874.0,2
837,-6.0,-4.0,-6.0,3.0,2.0,-1.0,-12.0,-15.0,1651067453555874.0,2
838,2.0,-5.0,-6.0,-5.0,-3.0,-2.0,13.0,13.0,1651067453562778.0,2
839,6.0,6.0,1.0,3.0,1.0,9.0,9.0,14.0,1651067453562778.0,2
840,-7.0,-1.0,5.0,-5.0,0.0,-1.0,-2.0,-7.0,1651067453564774.0,2
841,9.0,6.0,-1.0,0.0,-20.0,-1.0,9.0,15.0,1651067453564774.0,2
842,-1.0,1.0,4.0,8.0,29.0,-2.0,-11.0,-10.0,1651067453585702.0,2
843,-1.0,-3.0,-6.0,-6.0,-9.0,-1.0,9.0,12.0,1651067453585702.0,2
844,3.0,1.0,8.0,4.0,6.0,4.0,3.0,-6.0,1651067453586679.0,2
845,-5.0,-3.0,-5.0,-4.0,-1.0,3.0,0.0,-12.0,1651067453586679.0,2
846,-5.0,1.0,7.0,-1.0,-11.0,-5.0,-5.0,-4.0,1651067453598703.0,2
847,5.0,3.0,4.0,-1.0,-2.0,-1.0,5.0,7.0,1651067453598703.0,2
848,-9.0,-6.0,-2.0,0.0,4.0,-5.0,0.0,1.0,1651067453607679.0,2
849,1.0,-1.0,3.0,1.0,4.0,8.0,1.0,-10.0,1651067453607679.0,2
850,-6.0,-1.0,-3.0,-1.0,-3.0,-2.0,-8.0,-7.0,1651067453622725.0,2
851,2.0,3.0,4.0,2.0,1.0,-3.0,-11.0,-3.0,1651067453622725.0,2
852,2.0,-1.0,-6.0,-2.0,-5.0,0.0,12.0,10.0,1651067453624810.0,2
853,9.0,2.0,5.0,3.0,1.0,-8.0,-3.0,15.0,1651067453624810.0,2
854,-12.0,-9.0,-4.0,0.0,-1.0,1.0,-4.0,-8.0,1651067453645151.0,2
855,-2.0,2.0,2.0,-3.0,-8.0,0.0,-6.0,-14.0,1651067453645151.0,2
856,0.0,2.0,-3.0,2.0,10.0,2.0,0.0,6.0,1651067453647149.0,2
857,1.0,-1.0,-7.0,-7.0,-6.0,-6.0,-5.0,1.0,1651067453647149.0,2
858,-11.0,-8.0,-4.0,-6.0,-14.0,-4.0,1.0,-2.0,1651067453659151.0,2
859,-1.0,-3.0,-6.0,-2.0,-2.0,-8.0,2.0,-2.0,1651067453659151.0,2
860,-3.0,1.0,2.0,3.0,4.0,5.0,-11.0,-18.0,1651067453668065.0,2
861,-2.0,1.0,6.0,2.0,-4.0,-2.0,4.0,12.0,1651067453668065.0,2
862,7.0,4.0,1.0,2.0,5.0,2.0,-2.0,-2.0,1651067453683175.0,2
863,-2.0,0.0,2.0,1.0,-5.0,0.0,-2.0,-3.0,1651067453683175.0,2
864,-6.0,-4.0,-4.0,-4.0,-4.0,-4.0,-2.0,-2.0,1651067453684107.0,2
865,2.0,0.0,0.0,4.0,10.0,6.0,1.0,-14.0,1651067453684107.0,2
866,0.0,5.0,7.0,1.0,-6.0,-1.0,-1.0,6.0,1651067453705241.0,2
867,-3.0,-1.0,2.0,2.0,3.0,-1.0,0.0,1.0,1651067453705241.0,2
868,2.0,1.0,-1.0,3.0,2.0,0.0,-3.0,2.0,1651067453707196.0,2
869,-3.0,-6.0,-11.0,-7.0,0.0,0.0,3.0,6.0,1651067453707196.0,2
870,6.0,6.0,3.0,3.0,2.0,4.0,5.0,6.0,1651067453719204.0,2
871,-4.0,-5.0,-6.0,-3.0,5.0,-3.0,-10.0,-12.0,1651067453719204.0,2
872,5.0,2.0,3.0,0.0,-3.0,1.0,5.0,9.0,1651067453728114.0,2
873,0.0,-2.0,-2.0,-4.0,-15.0,-7.0,4.0,1.0,1651067453728114.0,2
874,2.0,-2.0,0.0,7.0,21.0,1.0,-1.0,-8.0,1651067453743272.0,2
875,-6.0,-4.0,-5.0,-4.0,-5.0,3.0,4.0,4.0,1651067453743272.0,2
876,1.0,-7.0,-9.0,-6.0,-7.0,-8.0,-2.0,2.0,1651067453744153.0,2
877,5.0,4.0,6.0,3.0,4.0,3.0,6.0,6.0,1651067453744153.0,2
878,8.0,7.0,4.0,0.0,-6.0,2.0,4.0,16.0,1651067453765372.0,2
879,-13.0,1.0,9.0,4.0,-1.0,-2.0,-13.0,-30.0,1651067453765372.0,2
880,5.0,-8.0,-11.0,-7.0,-4.0,-4.0,4.0,11.0,1651067453767309.0,2
881,3.0,4.0,2.0,-1.0,-13.0,-4.0,5.0,18.0,1651067453767309.0,2
882,0.0,-3.0,-4.0,0.0,15.0,9.0,-3.0,-7.0,1651067453779278.0,2
883,-1.0,-1.0,-1.0,1.0,6.0,1.0,-1.0,3.0,1651067453779278.0,2
884,-6.0,1.0,4.0,-1.0,-7.0,2.0,2.0,-15.0,1651067453788270.0,2
885,0.0,4.0,7.0,4.0,3.0,-2.0,5.0,12.0,1651067453788270.0,2
886,-7.0,-6.0,-6.0,-3.0,-3.0,-3.0,-4.0,-4.0,1651067453803331.0,2
887,3.0,-2.0,-9.0,-4.0,-6.0,-2.0,-4.0,2.0,1651067453803331.0,2
888,2.0,2.0,1.0,1.0,0.0,-3.0,-7.0,-3.0,1651067453804325.0,2
889,-3.0,-2.0,2.0,2.0,-1.0,-3.0,-1.0,-6.0,1651067453804325.0,2
890,0.0,-6.0,-10.0,-6.0,-2.0,3.0,-3.0,-9.0,1651067453833397.0,2
891,4.0,3.0,6.0,4.0,6.0,3.0,4.0,4.0,1651067453833397.0,2
892,-13.0,-4.0,-4.0,0.0,-5.0,-4.0,-10.0,-13.0,1651067453834337.0,2
893,0.0,0.0,0.0,-3.0,1.0,7.0,0.0,-5.0,1651067453834337.0,2
894,6.0,3.0,4.0,2.0,-6.0,-2.0,6.0,18.0,1651067453848327.0,2
895,4.0,-3.0,-5.0,-4.0,-2.0,3.0,4.0,0.0,1651067453848327.0,2
896,3.0,5.0,4.0,5.0,7.0,3.0,-7.0,-4.0,1651067453849297.0,2
897,-5.0,-3.0,-1.0,4.0,9.0,0.0,6.0,-10.0,1651067453849297.0,2
898,10.0,3.0,0.0,0.0,-4.0,2.0,-2.0,22.0,1651067453863364.0,2
899,7.0,3.0,0.0,0.0,-4.0,-1.0,9.0,13.0,1651067453863364.0,2
900,-1.0,4.0,6.0,5.0,4.0,5.0,7.0,6.0,1651067453864358.0,2
901,1.0,4.0,5.0,2.0,3.0,-3.0,-3.0,-6.0,1651067453864358.0,2
902,-6.0,-5.0,-11.0,-10.0,-10.0,-8.0,-10.0,-14.0,1651067453885649.0,2
903,4.0,1.0,3.0,5.0,0.0,3.0,15.0,9.0,1651067453885649.0,2
904,-1.0,-4.0,-8.0,-11.0,-12.0,-5.0,-7.0,-5.0,1651067453886649.0,2
905,-2.0,1.0,1.0,4.0,24.0,7.0,1.0,-3.0,1651067453886649.0,2
906,-10.0,-2.0,2.0,0.0,-14.0,-3.0,0.0,-12.0,1651067453907657.0,2
907,7.0,0.0,-1.0,0.0,-5.0,-6.0,-9.0,9.0,1651067453907657.0,2
908,0.0,-1.0,2.0,-1.0,-3.0,-4.0,-1.0,9.0,1651067453909585.0,2
909,-3.0,-3.0,-5.0,-1.0,2.0,0.0,-12.0,-7.0,1651067453909585.0,2
910,0.0,4.0,9.0,1.0,-5.0,-4.0,6.0,4.0,1651067453922694.0,2
911,-4.0,-5.0,-5.0,-4.0,5.0,2.0,-3.0,-14.0,1651067453922694.0,2
912,1.0,-7.0,-11.0,-7.0,-4.0,-4.0,7.0,15.0,1651067453924690.0,2
913,-13.0,-7.0,-1.0,-2.0,-9.0,-1.0,-5.0,-4.0,1651067453924690.0,2
914,4.0,6.0,11.0,6.0,6.0,2.0,2.0,-3.0,1651067453945764.0,2
915,-2.0,-5.0,-11.0,-7.0,-6.0,-1.0,-5.0,-2.0,1651067453945764.0,2
916,-3.0,-1.0,5.0,7.0,9.0,4.0,-2.0,-2.0,1651067453946746.0,2
917,3.0,1.0,-2.0,-1.0,-5.0,-2.0,-1.0,-4.0,1651067453946746.0,2
918,0.0,0.0,-4.0,-4.0,-3.0,-5.0,-9.0,-6.0,1651067453967754.0,2
919,-5.0,-2.0,1.0,2.0,1.0,0.0,2.0,2.0,1651067453967754.0,2
920,-3.0,-1.0,-3.0,-5.0,-6.0,-3.0,-3.0,-10.0,1651067453969706.0,2
921,5.0,2.0,0.0,3.0,5.0,-2.0,-1.0,10.0,1651067453969706.0,2
922,-3.0,-1.0,-3.0,-3.0,-2.0,-3.0,-11.0,-22.0,1651067453982674.0,2
923,7.0,1.0,4.0,1.0,-7.0,-3.0,2.0,19.0,1651067453982674.0,2
924,-1.0,-1.0,-4.0,1.0,11.0,5.0,7.0,-2.0,1651067453984633.0,2
925,1.0,2.0,1.0,4.0,-5.0,-4.0,-3.0,3.0,1651067453984633.0,2
926,-4.0,-5.0,-1.0,1.0,3.0,5.0,5.0,-8.0,1651067454005857.0,2
927,-5.0,-3.0,0.0,1.0,2.0,0.0,-5.0,-6.0,1651067454005857.0,2
928,2.0,3.0,9.0,6.0,-1.0,0.0,4.0,7.0,1651067454006834.0,2
929,4.0,4.0,4.0,0.0,1.0,1.0,0.0,1.0,1651067454006834.0,2
930,3.0,2.0,3.0,1.0,-2.0,-1.0,4.0,10.0,1651067454027838.0,2
931,-4.0,1.0,1.0,3.0,2.0,5.0,-4.0,-11.0,1651067454027838.0,2
932,-5.0,-2.0,-2.0,-5.0,-3.0,-2.0,8.0,-1.0,1651067454029767.0,2
933,2.0,1.0,-1.0,2.0,-6.0,1.0,4.0,-5.0,1651067454029767.0,2
934,-2.0,-8.0,-17.0,-7.0,0.0,-7.0,-6.0,12.0,1651067454042731.0,2
935,0.0,0.0,2.0,1.0,11.0,5.0,1.0,-6.0,1651067454042731.0,2
936,1.0,4.0,3.0,-2.0,-4.0,-5.0,-7.0,-2.0,1651067454048781.0,2
937,-3.0,-5.0,-13.0,-10.0,-8.0,-3.0,3.0,-6.0,1651067454048781.0,2
938,-8.0,-8.0,-9.0,-4.0,0.0,2.0,6.0,-1.0,1651067454065753.0,2
939,-1.0,-7.0,-11.0,-5.0,-2.0,-3.0,-3.0,-1.0,1651067454065753.0,2
940,1.0,0.0,1.0,-1.0,4.0,0.0,-10.0,-12.0,1651067454066684.0,2
941,-9.0,-6.0,-6.0,-4.0,-9.0,-6.0,-4.0,-10.0,1651067454066684.0,2
942,0.0,2.0,4.0,4.0,-1.0,2.0,-2.0,4.0,1651067454087735.0,2
943,-2.0,3.0,3.0,-2.0,-3.0,-6.0,2.0,-1.0,1651067454087735.0,2
944,2.0,-3.0,-2.0,2.0,-2.0,3.0,-7.0,-3.0,1651067454089692.0,2
945,-3.0,0.0,0.0,0.0,4.0,0.0,3.0,1.0,1651067454089692.0,2
946,-1.0,1.0,5.0,2.0,-3.0,-2.0,-5.0,-12.0,1651067454110909.0,2
947,-5.0,0.0,3.0,0.0,2.0,-1.0,6.0,6.0,1651067454110909.0,2
948,0.0,2.0,-1.0,-2.0,-4.0,5.0,-1.0,-1.0,1651067454111906.0,2
949,2.0,-3.0,-1.0,3.0,4.0,0.0,-6.0,1.0,1651067454111906.0,2
950,3.0,2.0,5.0,0.0,-2.0,0.0,4.0,-2.0,1651067454125839.0,2
951,-9.0,-3.0,-3.0,-6.0,-8.0,-5.0,-5.0,-15.0,1651067454125839.0,2
952,2.0,-1.0,-3.0,1.0,-13.0,-4.0,2.0,4.0,1651067454126673.0,2
953,-3.0,-5.0,-6.0,1.0,17.0,0.0,-4.0,1.0,1651067454126673.0,2
954,2.0,3.0,-3.0,-1.0,-4.0,4.0,0.0,-7.0,1651067454147774.0,2
955,5.0,-1.0,0.0,-5.0,-12.0,-7.0,-5.0,22.0,1651067454147774.0,2
956,-1.0,4.0,2.0,5.0,10.0,0.0,6.0,-2.0,1651067454149730.0,2
957,6.0,0.0,-4.0,-6.0,-6.0,-1.0,-1.0,7.0,1651067454149730.0,2
958,2.0,-3.0,-2.0,-7.0,-7.0,-5.0,-7.0,-1.0,1651067454162695.0,2
959,0.0,2.0,3.0,3.0,3.0,0.0,1.0,1.0,1651067454162695.0,2
960,-1.0,-4.0,-2.0,0.0,-2.0,-2.0,-4.0,0.0,1651067454169512.0,2
961,-4.0,0.0,3.0,3.0,-4.0,1.0,-6.0,-9.0,1651067454169512.0,2
962,3.0,6.0,4.0,2.0,10.0,8.0,8.0,11.0,1651067454185359.0,2
963,-8.0,-7.0,-10.0,-3.0,-3.0,-1.0,-9.0,-14.0,1651067454185359.0,2
964,1.0,2.0,6.0,4.0,0.0,4.0,8.0,3.0,1651067454187383.0,2
965,-4.0,-4.0,-4.0,-5.0,-1.0,-1.0,-1.0,-4.0,1651067454187383.0,2
966,3.0,-2.0,-1.0,-1.0,-4.0,-2.0,3.0,9.0,1651067454207627.0,2
967,-1.0,-1.0,0.0,3.0,3.0,2.0,-5.0,-5.0,1651067454207627.0,2
968,0.0,0.0,-1.0,-2.0,2.0,-2.0,1.0,-1.0,1651067454209612.0,2
969,-1.0,1.0,2.0,-1.0,-8.0,2.0,-1.0,-3.0,1651067454209612.0,2
970,-3.0,-2.0,-2.0,4.0,13.0,2.0,1.0,9.0,1651067454222667.0,2
971,-4.0,-1.0,1.0,1.0,4.0,1.0,6.0,-7.0,1651067454222667.0,2
972,2.0,1.0,0.0,0.0,6.0,-4.0,-6.0,-2.0,1651067454229557.0,2
973,6.0,0.0,2.0,3.0,-6.0,6.0,-7.0,4.0,1651067454229557.0,2
974,2.0,2.0,2.0,0.0,-9.0,-4.0,-3.0,1.0,1651067454244734.0,2
975,2.0,2.0,2.0,2.0,4.0,3.0,2.0,0.0,1651067454244734.0,2
976,-5.0,-4.0,-6.0,-4.0,-1.0,-6.0,-13.0,-7.0,1651067454245666.0,2
977,1.0,6.0,8.0,2.0,0.0,1.0,16.0,6.0,1651067454245666.0,2
978,3.0,0.0,0.0,-1.0,-3.0,-4.0,-11.0,-3.0,1651067454267677.0,2
979,7.0,4.0,0.0,5.0,8.0,7.0,11.0,4.0,1651067454267677.0,2
980,-6.0,-3.0,-2.0,-7.0,-9.0,-1.0,0.0,5.0,1651067454267677.0,2
981,-5.0,-1.0,1.0,1.0,4.0,-5.0,-3.0,-3.0,1651067454267677.0,2
982,-1.0,-1.0,3.0,-2.0,-2.0,4.0,0.0,-3.0,1651067454282675.0,2
983,7.0,1.0,2.0,4.0,7.0,2.0,5.0,14.0,1651067454282675.0,2
984,0.0,-1.0,1.0,-2.0,-9.0,1.0,1.0,2.0,1651067454289613.0,2
985,0.0,1.0,-2.0,2.0,16.0,3.0,6.0,-2.0,1651067454289613.0,2
986,-1.0,2.0,-1.0,-1.0,-4.0,-5.0,-6.0,-4.0,1651067454304703.0,2
987,-6.0,-3.0,-1.0,-1.0,-10.0,-9.0,-8.0,-11.0,1651067454304703.0,2
988,6.0,3.0,5.0,-2.0,7.0,6.0,2.0,6.0,1651067454305702.0,2
989,-10.0,-6.0,-7.0,-3.0,-10.0,-6.0,0.0,-11.0,1651067454305702.0,2
990,1.0,-1.0,-1.0,3.0,0.0,-3.0,1.0,1.0,1651067454326781.0,2
991,3.0,2.0,5.0,1.0,6.0,0.0,1.0,6.0,1651067454326781.0,2
992,0.0,-2.0,-3.0,4.0,-3.0,-4.0,-4.0,-3.0,1651067454327712.0,2
993,-2.0,-2.0,0.0,-1.0,1.0,-2.0,-6.0,-4.0,1651067454327712.0,2
994,-2.0,1.0,3.0,-4.0,-5.0,1.0,4.0,4.0,1651067454341921.0,2
995,12.0,6.0,6.0,4.0,6.0,4.0,5.0,10.0,1651067454341921.0,2
996,-4.0,-2.0,-2.0,-2.0,-4.0,-6.0,-4.0,-3.0,1651067454349804.0,2
997,3.0,-2.0,-2.0,-2.0,5.0,11.0,13.0,8.0,1651067454349804.0,2
998,-3.0,0.0,1.0,0.0,1.0,-7.0,-16.0,-13.0,1651067454364751.0,2
999,-5.0,-3.0,-5.0,-4.0,-9.0,-4.0,-4.0,-15.0,1651067454364751.0,2
1000,2.0,0.0,-1.0,4.0,3.0,5.0,15.0,16.0,1651067454365683.0,2
1001,1.0,5.0,11.0,3.0,-3.0,-6.0,-8.0,-5.0,1651067454365683.0,2
1002,3.0,0.0,-4.0,1.0,1.0,0.0,4.0,0.0,1651067454387730.0,2
1003,-4.0,1.0,-1.0,-7.0,-5.0,-1.0,-5.0,0.0,1651067454387730.0,2
1004,-4.0,-9.0,-13.0,-6.0,-3.0,-4.0,-2.0,-1.0,1651067454387730.0,2
1005,7.0,1.0,1.0,6.0,7.0,6.0,3.0,2.0,1651067454387730.0,2
1006,0.0,-1.0,1.0,2.0,2.0,0.0,4.0,8.0,1651067454401844.0,2
1007,-2.0,-1.0,-3.0,-3.0,-6.0,-1.0,-3.0,-9.0,1651067454401844.0,2
1008,-1.0,-2.0,0.0,-2.0,-1.0,-1.0,0.0,-1.0,1651067454410208.0,2
1009,-2.0,0.0,-3.0,-10.0,-11.0,-10.0,-5.0,6.0,1651067454410208.0,2
1010,3.0,-2.0,-8.0,1.0,7.0,3.0,1.0,-6.0,1651067454424308.0,2
1011,-10.0,-3.0,1.0,-1.0,-9.0,-3.0,-2.0,0.0,1651067454424308.0,2
1012,2.0,-4.0,-5.0,2.0,13.0,5.0,5.0,3.0,1651067454425246.0,2
1013,-1.0,0.0,1.0,2.0,-3.0,-1.0,-1.0,2.0,1651067454425246.0,2
1014,-5.0,-3.0,3.0,-3.0,-3.0,-8.0,-8.0,-17.0,1651067454447542.0,2
1015,0.0,0.0,0.0,-3.0,-17.0,-5.0,8.0,4.0,1651067454447542.0,2
1016,-1.0,-2.0,-6.0,-1.0,4.0,8.0,-2.0,3.0,1651067454447542.0,2
1017,-2.0,-2.0,0.0,-4.0,-5.0,-6.0,-2.0,-5.0,1651067454447542.0,2
1018,2.0,2.0,0.0,5.0,3.0,7.0,9.0,15.0,1651067454470349.0,2
1019,-4.0,-6.0,-2.0,-2.0,2.0,-5.0,-17.0,-17.0,1651067454470349.0,2
1020,3.0,6.0,6.0,-1.0,-7.0,-6.0,0.0,-3.0,1651067454471347.0,2
1021,1.0,1.0,-3.0,0.0,7.0,4.0,5.0,-2.0,1651067454471347.0,2
1022,-2.0,3.0,7.0,3.0,-4.0,0.0,3.0,5.0,1651067454484372.0,2
1023,-7.0,-4.0,-7.0,-6.0,-4.0,-3.0,-12.0,-20.0,1651067454484372.0,2
1024,4.0,1.0,3.0,1.0,2.0,4.0,14.0,15.0,1651067454485310.0,2
1025,-8.0,-4.0,-4.0,-4.0,-6.0,-4.0,-2.0,-12.0,1651067454485310.0,2
1026,5.0,1.0,5.0,5.0,7.0,7.0,7.0,18.0,1651067454507433.0,2
1027,5.0,1.0,-1.0,0.0,11.0,6.0,0.0,-2.0,1651067454507433.0,2
1028,1.0,5.0,4.0,-4.0,-24.0,-10.0,-7.0,-6.0,1651067454508379.0,2
1029,-1.0,2.0,2.0,6.0,24.0,1.0,-9.0,-4.0,1651067454508379.0,2
1030,-8.0,-9.0,-8.0,-3.0,-9.0,-6.0,0.0,-3.0,1651067454530072.0,2
1031,6.0,1.0,2.0,-1.0,4.0,6.0,4.0,11.0,1651067454530072.0,2
1032,-5.0,-1.0,1.0,0.0,-2.0,-2.0,-9.0,-11.0,1651067454531083.0,2
1033,5.0,0.0,0.0,1.0,-3.0,0.0,1.0,14.0,1651067454531083.0,2
1034,-3.0,0.0,-3.0,-4.0,3.0,1.0,-6.0,-12.0,1651067454545114.0,2
1035,1.0,1.0,1.0,3.0,5.0,3.0,3.0,8.0,1651067454545114.0,2
1036,-3.0,-2.0,2.0,2.0,2.0,-2.0,-7.0,-8.0,1651067454545114.0,2
1037,-3.0,-3.0,-4.0,-5.0,-10.0,-6.0,-5.0,-1.0,1651067454545114.0,2
1038,0.0,-2.0,-3.0,1.0,3.0,-2.0,1.0,5.0,1651067454567250.0,2
1039,0.0,1.0,-1.0,-3.0,2.0,2.0,1.0,0.0,1651067454567250.0,2
1040,0.0,-2.0,-4.0,-4.0,2.0,1.0,0.0,0.0,1651067454568212.0,2
1041,0.0,0.0,0.0,0.0,1.0,3.0,1.0,-2.0,1651067454568212.0,2
1042,0.0,1.0,1.0,-1.0,-2.0,2.0,2.0,-1.0,1651067454590357.0,2
1043,0.0,-3.0,-4.0,-5.0,-12.0,-9.0,2.0,4.0,1651067454590357.0,2
1044,-3.0,0.0,2.0,8.0,10.0,2.0,-3.0,-6.0,1651067454591358.0,2
1045,-4.0,-3.0,0.0,-5.0,-5.0,-1.0,-11.0,-6.0,1651067454591358.0,2
1046,0.0,2.0,5.0,2.0,-2.0,-2.0,5.0,0.0,1651067454604451.0,2
1047,0.0,1.0,4.0,4.0,5.0,-1.0,1.0,-1.0,1651067454604451.0,2
1048,2.0,2.0,0.0,2.0,4.0,4.0,4.0,2.0,1651067454605450.0,2
1049,1.0,1.0,-3.0,0.0,-3.0,-1.0,-1.0,-2.0,1651067454605450.0,2
1050,-4.0,-3.0,-3.0,-6.0,-2.0,-4.0,-7.0,-8.0,1651067454627636.0,2
1051,0.0,1.0,4.0,4.0,2.0,1.0,5.0,6.0,1651067454627636.0,2
1052,0.0,1.0,4.0,1.0,1.0,-3.0,-2.0,3.0,1651067454627636.0,2
1053,-1.0,-2.0,-4.0,-1.0,-2.0,2.0,4.0,5.0,1651067454627636.0,2
1054,4.0,-1.0,-5.0,-2.0,-2.0,-1.0,-1.0,2.0,1651067454650820.0,2
1055,1.0,1.0,2.0,1.0,1.0,-1.0,2.0,1.0,1651067454650820.0,2
1056,-3.0,-1.0,0.0,-5.0,-2.0,0.0,2.0,-1.0,1651067454651614.0,2
1057,-1.0,-1.0,3.0,3.0,-3.0,1.0,1.0,0.0,1651067454651614.0,2
1058,-4.0,-1.0,-2.0,-2.0,3.0,1.0,3.0,-4.0,1651067454665578.0,2
1059,0.0,-1.0,-3.0,-1.0,-1.0,-3.0,-4.0,0.0,1651067454665578.0,2
1060,-1.0,-1.0,-3.0,-1.0,-3.0,0.0,-4.0,-4.0,1651067454665578.0,2
1061,-2.0,-1.0,2.0,2.0,2.0,0.0,3.0,-3.0,1651067454665578.0,2
1062,-2.0,-1.0,-4.0,-2.0,-4.0,0.0,-4.0,-1.0,1651067454687607.0,2
1063,3.0,2.0,0.0,0.0,0.0,2.0,5.0,4.0,1651067454687607.0,2
1064,-1.0,-1.0,0.0,0.0,3.0,-1.0,0.0,0.0,1651067454687607.0,2
1065,0.0,2.0,0.0,-4.0,-6.0,-3.0,-3.0,-5.0,1651067454687607.0,2
1066,0.0,-1.0,-3.0,0.0,-1.0,1.0,0.0,-1.0,1651067454710712.0,2
1067,-1.0,-1.0,0.0,4.0,4.0,1.0,-3.0,-2.0,1651067454710712.0,2
1068,0.0,-2.0,-2.0,-2.0,1.0,1.0,0.0,-1.0,1651067454710712.0,2
1069,-1.0,0.0,1.0,3.0,-3.0,-4.0,-3.0,1.0,1651067454710712.0,2
1070,0.0,-1.0,-3.0,-8.0,-2.0,-2.0,2.0,2.0,1651067454724855.0,2
1071,0.0,1.0,2.0,4.0,1.0,0.0,-2.0,-1.0,1651067454724855.0,2
1072,-3.0,-2.0,-5.0,-8.0,-1.0,0.0,-2.0,-4.0,1651067454725786.0,2
1073,-1.0,-1.0,1.0,-1.0,-2.0,0.0,0.0,2.0,1651067454725786.0,2
1074,-1.0,-2.0,-2.0,-5.0,-1.0,0.0,3.0,1.0,1651067454746797.0,2
1075,-1.0,-2.0,-10.0,-16.0,-5.0,0.0,-2.0,-1.0,1651067454746797.0,2
1076,1.0,1.0,2.0,11.0,1.0,-2.0,0.0,-1.0,1651067454747739.0,2
1077,-2.0,0.0,1.0,5.0,0.0,-2.0,-1.0,0.0,1651067454747739.0,2
1078,1.0,2.0,8.0,10.0,6.0,3.0,2.0,2.0,1651067454769774.0,2
1079,-5.0,-10.0,-20.0,-37.0,-11.0,-10.0,-8.0,-8.0,1651067454769774.0,2
1080,-1.0,-1.0,-8.0,1.0,4.0,1.0,4.0,1.0,1651067454770705.0,2
1081,1.0,0.0,-7.0,-27.0,-13.0,-3.0,0.0,3.0,1651067454770705.0,2
1082,1.0,-1.0,-6.0,-13.0,-12.0,-2.0,-4.0,-1.0,1651067454785095.0,2
1083,3.0,5.0,29.0,74.0,36.0,11.0,2.0,0.0,1651067454785095.0,2
1084,-2.0,0.0,-1.0,-5.0,-11.0,-2.0,-1.0,1.0,1651067454785295.0,2
1085,1.0,1.0,14.0,11.0,7.0,2.0,4.0,-1.0,1651067454785295.0,2
1086,3.0,4.0,3.0,-7.0,1.0,-1.0,-3.0,-3.0,1651067454806794.0,2
1087,0.0,-1.0,-6.0,-20.0,-14.0,-2.0,1.0,3.0,1651067454806794.0,2
1088,-1.0,-1.0,1.0,-1.0,2.0,-2.0,-2.0,-4.0,1651067454807733.0,2
1089,-1.0,-4.0,-7.0,1.0,-1.0,-2.0,1.0,-2.0,1651067454807733.0,2
1090,0.0,-1.0,-4.0,-5.0,-4.0,0.0,0.0,-1.0,1651067454830153.0,2
1091,1.0,0.0,-1.0,-2.0,-1.0,-1.0,0.0,4.0,1651067454830153.0,2
1092,4.0,2.0,-6.0,-3.0,4.0,-1.0,2.0,0.0,1651067454830153.0,2
1093,-1.0,-2.0,15.0,19.0,-6.0,-2.0,3.0,2.0,1651067454830153.0,2
1094,-4.0,-6.0,-1.0,9.0,0.0,-1.0,-1.0,-2.0,1651067454845095.0,2
1095,-2.0,-5.0,-32.0,-19.0,-14.0,-1.0,0.0,-2.0,1651067454845095.0,2
1096,1.0,3.0,19.0,-6.0,-1.0,1.0,-1.0,-1.0,1651067454845294.0,2
1097,1.0,2.0,0.0,3.0,11.0,4.0,-1.0,-4.0,1651067454845294.0,2
1098,-1.0,-3.0,-1.0,-4.0,0.0,-2.0,-2.0,-2.0,1651067454867101.0,2
1099,2.0,2.0,2.0,-6.0,-8.0,0.0,2.0,1.0,1651067454867101.0,2
1100,-3.0,-7.0,-17.0,-34.0,-19.0,-6.0,1.0,1.0,1651067454868031.0,2
1101,-1.0,2.0,6.0,18.0,11.0,-2.0,-3.0,-3.0,1651067454868031.0,2
1102,5.0,6.0,12.0,15.0,-2.0,-1.0,2.0,0.0,1651067454889471.0,2
1103,-3.0,1.0,-12.0,10.0,4.0,0.0,0.0,-2.0,1651067454889471.0,2
1104,-1.0,-4.0,6.0,14.0,0.0,-3.0,-3.0,-1.0,1651067454890433.0,2
1105,5.0,0.0,-16.0,-28.0,-18.0,-4.0,-1.0,5.0,1651067454890433.0,2
1106,-9.0,-4.0,6.0,1.0,4.0,-1.0,3.0,-2.0,1651067454904624.0,2
1107,7.0,14.0,8.0,-6.0,2.0,4.0,5.0,5.0,1651067454904624.0,2
1108,-5.0,-5.0,6.0,13.0,6.0,2.0,-4.0,-4.0,1651067454905556.0,2
1109,0.0,-4.0,-14.0,-22.0,-4.0,-2.0,-1.0,-3.0,1651067454905556.0,2
1110,3.0,2.0,0.0,5.0,7.0,2.0,0.0,2.0,1651067454927669.0,2
1111,3.0,3.0,5.0,-10.0,-6.0,-5.0,-4.0,-6.0,1651067454927669.0,2
1112,2.0,0.0,2.0,14.0,5.0,1.0,-3.0,0.0,1651067454927669.0,2
1113,-3.0,-3.0,-1.0,6.0,-6.0,1.0,0.0,-1.0,1651067454927669.0,2
1114,0.0,2.0,-6.0,-9.0,-5.0,-4.0,-4.0,0.0,1651067454949421.0,2
1115,-4.0,-3.0,10.0,12.0,0.0,1.0,3.0,-2.0,1651067454949421.0,2
1116,0.0,-1.0,-7.0,-3.0,4.0,5.0,2.0,2.0,1651067454950363.0,2
1117,-2.0,-3.0,1.0,-13.0,-4.0,-4.0,-2.0,-4.0,1651067454950363.0,2
1118,0.0,-2.0,0.0,19.0,4.0,0.0,2.0,0.0,1651067454964438.0,2
1119,-4.0,-6.0,-12.0,0.0,1.0,0.0,0.0,-1.0,1651067454964438.0,2
1120,0.0,0.0,-3.0,-10.0,-3.0,-1.0,0.0,0.0,1651067454965440.0,2
1121,2.0,4.0,0.0,-6.0,2.0,2.0,-1.0,-1.0,1651067454965440.0,2
1122,-1.0,-1.0,2.0,2.0,-1.0,-1.0,-1.0,-1.0,1651067454987600.0,2
1123,-1.0,-6.0,4.0,0.0,0.0,-2.0,-2.0,-1.0,1651067454987600.0,2
1124,0.0,1.0,0.0,1.0,-2.0,0.0,-2.0,-3.0,1651067454987600.0,2
1125,-1.0,-1.0,2.0,12.0,9.0,1.0,2.0,3.0,1651067454987600.0,2
1126,-2.0,-3.0,-7.0,-12.0,-11.0,-4.0,0.0,-1.0,1651067455010120.0,2
1127,2.0,-1.0,1.0,-2.0,-4.0,-1.0,-1.0,-1.0,1651067455010120.0,2
1128,-1.0,1.0,0.0,-1.0,1.0,3.0,-2.0,-1.0,1651067455010671.0,2
1129,-2.0,1.0,-1.0,5.0,-1.0,-2.0,0.0,0.0,1651067455010671.0,2
1130,2.0,-1.0,2.0,12.0,7.0,2.0,-2.0,-1.0,1651067455025072.0,2
1131,0.0,-3.0,0.0,-9.0,1.0,1.0,1.0,0.0,1651067455025072.0,2
1132,-1.0,-1.0,0.0,-6.0,-7.0,-4.0,-2.0,-2.0,1651067455025309.0,2
1133,-3.0,-3.0,-5.0,7.0,4.0,0.0,1.0,-2.0,1651067455025309.0,2
1134,1.0,0.0,-3.0,-2.0,-4.0,-4.0,-1.0,-1.0,1651067455055677.0,2
1135,-1.0,-1.0,1.0,-3.0,2.0,0.0,-2.0,-1.0,1651067455055677.0,2
1136,-1.0,-1.0,-1.0,2.0,0.0,0.0,1.0,1.0,1651067455055677.0,2
1137,1.0,-1.0,-1.0,-5.0,-4.0,0.0,-1.0,-3.0,1651067455055677.0,2
1138,-2.0,0.0,0.0,2.0,2.0,4.0,0.0,-3.0,1651067455069400.0,2
1139,-3.0,-4.0,0.0,-5.0,-6.0,-6.0,-3.0,-3.0,1651067455069400.0,2
1140,-1.0,1.0,-1.0,9.0,5.0,-3.0,0.0,0.0,1651067455070332.0,2
1141,-1.0,1.0,0.0,-1.0,1.0,1.0,0.0,-1.0,1651067455070332.0,2
1142,0.0,0.0,2.0,-2.0,2.0,1.0,-2.0,0.0,1651067455084360.0,2
1143,0.0,1.0,3.0,4.0,1.0,0.0,1.0,4.0,1651067455084360.0,2
1144,0.0,0.0,1.0,-8.0,-4.0,0.0,0.0,-1.0,1651067455085291.0,2
1145,-1.0,-2.0,0.0,12.0,4.0,-1.0,-1.0,-1.0,1651067455085291.0,2
1146,0.0,-1.0,-4.0,-24.0,-5.0,0.0,2.0,0.0,1651067455107422.0,2
1147,0.0,0.0,3.0,8.0,0.0,-1.0,-2.0,-1.0,1651067455107422.0,2
1148,0.0,0.0,-3.0,-1.0,-3.0,-2.0,-2.0,-1.0,1651067455108354.0,2
1149,0.0,0.0,0.0,1.0,1.0,2.0,1.0,3.0,1651067455108354.0,2
1150,0.0,-2.0,-1.0,2.0,2.0,0.0,-1.0,-1.0,1651067455129421.0,2
1151,-1.0,-1.0,1.0,2.0,-1.0,2.0,-3.0,-1.0,1651067455129421.0,2
1152,-1.0,1.0,-1.0,-1.0,0.0,0.0,1.0,1.0,1651067455130353.0,2
1153,-1.0,0.0,-2.0,-8.0,-3.0,-4.0,-1.0,-3.0,1651067455130353.0,2
1154,-1.0,-1.0,-4.0,-5.0,-10.0,-4.0,-1.0,1.0,1651067455144381.0,2
1155,-1.0,1.0,1.0,2.0,5.0,1.0,-1.0,-1.0,1651067455144381.0,2
1156,2.0,-2.0,0.0,11.0,6.0,-1.0,-3.0,-1.0,1651067455145312.0,2
1157,1.0,-1.0,-3.0,-16.0,-4.0,4.0,2.0,0.0,1651067455145312.0,2
1158,0.0,-1.0,0.0,7.0,5.0,1.0,3.0,1.0,1651067455167388.0,2
1159,-1.0,1.0,1.0,4.0,0.0,0.0,-3.0,-1.0,1651067455167388.0,2
1160,0.0,0.0,-1.0,-3.0,-7.0,-5.0,-2.0,-2.0,1651067455168346.0,2
1161,-1.0,0.0,2.0,2.0,2.0,-1.0,-1.0,-1.0,1651067455168346.0,2
1162,-1.0,-1.0,-4.0,-5.0,-3.0,-4.0,-3.0,-3.0,1651067455190132.0,2
1163,-2.0,-2.0,0.0,-1.0,0.0,-1.0,1.0,-1.0,1651067455190132.0,2
1164,-2.0,1.0,-1.0,0.0,3.0,1.0,0.0,0.0,1651067455190132.0,2
1165,0.0,-2.0,0.0,5.0,0.0,-2.0,-1.0,-1.0,1651067455190132.0,2
1166,-1.0,1.0,-1.0,0.0,2.0,2.0,-2.0,0.0,1651067455204847.0,2
1167,1.0,0.0,1.0,1.0,-8.0,-6.0,-3.0,-2.0,1651067455204847.0,2
1168,0.0,-2.0,-5.0,-14.0,-5.0,0.0,2.0,-1.0,1651067455205845.0,2
1169,-2.0,-1.0,0.0,9.0,1.0,-1.0,-3.0,-2.0,1651067455205845.0,2
1170,0.0,2.0,2.0,6.0,3.0,-1.0,0.0,0.0,1651067455227328.0,2
1171,-1.0,0.0,-1.0,-3.0,3.0,0.0,0.0,-1.0,1651067455227328.0,2
1172,1.0,0.0,-1.0,1.0,0.0,3.0,2.0,-1.0,1651067455228259.0,2
1173,-1.0,0.0,-1.0,-8.0,-2.0,0.0,-1.0,-1.0,1651067455228259.0,2
1174,0.0,-1.0,-3.0,1.0,-1.0,0.0,-2.0,2.0,1651067455249230.0,2
1175,0.0,-2.0,-1.0,-1.0,-1.0,-3.0,-1.0,0.0,1651067455249230.0,2
1176,0.0,0.0,1.0,-2.0,1.0,3.0,2.0,2.0,1651067455250200.0,2
1177,0.0,1.0,-1.0,4.0,4.0,2.0,-2.0,0.0,1651067455250200.0,2
1178,-2.0,1.0,-2.0,-3.0,-2.0,0.0,0.0,1.0,1651067455264742.0,2
1179,0.0,-2.0,1.0,-2.0,0.0,-2.0,-3.0,0.0,1651067455264742.0,2
1180,0.0,0.0,1.0,1.0,-1.0,-3.0,-3.0,-2.0,1651067455265694.0,2
1181,0.0,0.0,1.0,-2.0,1.0,0.0,-1.0,0.0,1651067455265694.0,2
1182,0.0,0.0,-1.0,-1.0,-4.0,-2.0,-1.0,-2.0,1651067455287581.0,2
1183,-1.0,0.0,-2.0,-5.0,-4.0,1.0,-1.0,-1.0,1651067455287581.0,2
1184,0.0,-1.0,0.0,-8.0,-1.0,0.0,-2.0,-1.0,1651067455287581.0,2
1185,-1.0,0.0,1.0,9.0,3.0,1.0,-2.0,-2.0,1651067455287581.0,2
1186,-1.0,-3.0,-5.0,-14.0,-4.0,-3.0,-2.0,-1.0,1651067455309588.0,2
1187,1.0,-2.0,0.0,-1.0,1.0,0.0,1.0,0.0,1651067455309588.0,2
1188,-1.0,1.0,0.0,3.0,-1.0,-3.0,-1.0,-1.0,1651067455310519.0,2
1189,1.0,2.0,0.0,0.0,1.0,3.0,2.0,0.0,1651067455310519.0,2
1190,-1.0,-1.0,0.0,-2.0,-3.0,1.0,1.0,1.0,1651067455324682.0,2
1191,-1.0,-1.0,-4.0,0.0,-2.0,-1.0,-2.0,-2.0,1651067455324682.0,2
1192,0.0,-2.0,1.0,3.0,2.0,-1.0,-2.0,-1.0,1651067455325708.0,2
1193,0.0,-2.0,-2.0,-5.0,-1.0,-2.0,0.0,1.0,1651067455325708.0,2
1194,0.0,-1.0,2.0,1.0,1.0,2.0,1.0,-1.0,1651067455346993.0,2
1195,0.0,-1.0,-2.0,-8.0,-11.0,-4.0,-3.0,-4.0,1651067455346993.0,2
1196,0.0,-1.0,0.0,4.0,3.0,1.0,1.0,0.0,1651067455347924.0,2
1197,-2.0,-2.0,-4.0,-2.0,-5.0,-6.0,-3.0,-2.0,1651067455347924.0,2
1198,0.0,2.0,1.0,4.0,2.0,0.0,2.0,1.0,1651067455370119.0,2
1199,-3.0,0.0,0.0,-1.0,-1.0,-2.0,-2.0,-2.0,1651067455370119.0,2
1200,-1.0,0.0,2.0,6.0,6.0,3.0,0.0,0.0,1651067455370583.0,2
1201,-1.0,-2.0,-4.0,-4.0,-6.0,-5.0,-1.0,0.0,1651067455370583.0,2
1202,-1.0,1.0,1.0,7.0,2.0,1.0,-1.0,0.0,1651067455384469.0,2
1203,0.0,0.0,-3.0,0.0,2.0,4.0,3.0,2.0,1651067455384469.0,2
1204,0.0,0.0,-3.0,-7.0,-11.0,-4.0,-2.0,0.0,1651067455392422.0,2
1205,-1.0,0.0,1.0,6.0,4.0,1.0,1.0,-2.0,1651067455392422.0,2
1206,1.0,0.0,-3.0,-7.0,-1.0,-3.0,-1.0,-2.0,1651067455407722.0,2
1207,-2.0,0.0,-2.0,0.0,-1.0,-3.0,3.0,0.0,1651067455407722.0,2
1208,-2.0,-1.0,1.0,0.0,0.0,2.0,1.0,-1.0,1651067455407722.0,2
1209,-1.0,-2.0,-2.0,-3.0,-4.0,-3.0,-4.0,-2.0,1651067455407722.0,2
1210,2.0,0.0,0.0,0.0,0.0,-1.0,-1.0,-1.0,1651067455430178.0,2
1211,0.0,0.0,0.0,1.0,3.0,1.0,1.0,1.0,1651067455430178.0,2
1212,-1.0,-1.0,-1.0,-2.0,-1.0,-1.0,-2.0,-3.0,1651067455430178.0,2
1213,-2.0,-1.0,-2.0,1.0,-1.0,1.0,0.0,0.0,1651067455430178.0,2
1214,-1.0,-1.0,0.0,1.0,0.0,-2.0,0.0,1.0,1651067455444469.0,2
1215,1.0,-1.0,0.0,-2.0,0.0,-1.0,-1.0,-1.0,1651067455444469.0,2
1216,0.0,-2.0,1.0,6.0,0.0,-4.0,-3.0,0.0,1651067455452620.0,2
1217,-1.0,0.0,1.0,-2.0,-2.0,1.0,3.0,1.0,1651067455452620.0,2
1218,-2.0,-3.0,-2.0,-3.0,0.0,0.0,-3.0,-2.0,1651067455467363.0,2
1219,-1.0,0.0,1.0,0.0,0.0,1.0,1.0,-1.0,1651067455467363.0,2
1220,-3.0,-2.0,-4.0,0.0,3.0,1.0,0.0,-2.0,1651067455468321.0,2
1221,1.0,0.0,0.0,-9.0,-1.0,-2.0,0.0,-1.0,1651067455468321.0,0
1222,-2.0,0.0,2.0,12.0,2.0,-4.0,-2.0,-1.0,1651067455489409.0,0
1223,0.0,-1.0,-1.0,-4.0,-2.0,-1.0,0.0,1.0,1651067455489409.0,0
1224,0.0,-2.0,-3.0,1.0,1.0,1.0,-1.0,0.0,1651067455497672.0,0
1225,0.0,0.0,-3.0,-8.0,-4.0,0.0,1.0,0.0,1651067455497672.0,0
1226,-1.0,-1.0,-2.0,-7.0,-2.0,0.0,0.0,0.0,1651067455503720.0,0
1227,-1.0,-1.0,1.0,7.0,2.0,0.0,0.0,-3.0,1651067455503720.0,0
1228,1.0,0.0,2.0,-4.0,-3.0,-2.0,0.0,1.0,1651067455512516.0,0
1229,-2.0,-1.0,-2.0,2.0,0.0,1.0,-3.0,-4.0,1651067455512516.0,0
1230,-1.0,-1.0,0.0,-1.0,0.0,-1.0,-1.0,-2.0,1651067455527438.0,0
1231,2.0,0.0,1.0,1.0,0.0,3.0,1.0,-1.0,1651067455527438.0,0
1232,0.0,0.0,-3.0,-5.0,-1.0,-3.0,1.0,2.0,1651067455528402.0,0
1233,-1.0,0.0,2.0,8.0,-4.0,-1.0,2.0,1.0,1651067455528402.0,0
1234,-1.0,-1.0,-1.0,-4.0,-1.0,0.0,-1.0,-1.0,1651067455549470.0,0
1235,-1.0,-1.0,-2.0,1.0,1.0,-3.0,-2.0,2.0,1651067455549470.0,0
1236,-1.0,2.0,-1.0,-3.0,-1.0,1.0,1.0,-1.0,1651067455550465.0,0
1237,2.0,0.0,1.0,-1.0,2.0,1.0,-1.0,2.0,1651067455550465.0,0
1238,-1.0,-1.0,0.0,0.0,-1.0,-1.0,2.0,1.0,1651067455564444.0,0
1239,0.0,-1.0,0.0,-1.0,-1.0,0.0,-2.0,-3.0,1651067455564444.0,0
1240,0.0,-1.0,1.0,-2.0,2.0,0.0,-1.0,1.0,1651067455572592.0,0
1241,0.0,1.0,1.0,2.0,-1.0,1.0,1.0,2.0,1651067455572592.0,0
1242,0.0,-1.0,-5.0,-3.0,-7.0,0.0,-1.0,-3.0,1651067455587306.0,0
1243,-2.0,0.0,2.0,6.0,4.0,-1.0,-2.0,1.0,1651067455587306.0,0
1244,1.0,0.0,-1.0,2.0,-2.0,0.0,2.0,0.0,1651067455588236.0,0
1245,-2.0,-1.0,1.0,-2.0,2.0,1.0,-1.0,-1.0,1651067455588236.0,0
1246,1.0,0.0,0.0,-3.0,-2.0,-1.0,1.0,-1.0,1651067455609266.0,0
1247,0.0,0.0,-1.0,-3.0,-1.0,-4.0,-1.0,-2.0,1651067455609266.0,0
1248,-1.0,-2.0,-2.0,2.0,1.0,1.0,0.0,0.0,1651067455610236.0,0
1249,0.0,0.0,-1.0,-1.0,0.0,-2.0,-2.0,-1.0,1651067455610236.0,0
1250,1.0,1.0,0.0,1.0,1.0,-2.0,-3.0,0.0,1651067455624308.0,0
1251,-2.0,0.0,-2.0,0.0,-2.0,1.0,-1.0,-1.0,1651067455624308.0,0
1252,-1.0,0.0,1.0,-1.0,0.0,1.0,1.0,0.0,1651067455631680.0,0
1253,-1.0,-1.0,-2.0,2.0,0.0,0.0,0.0,-1.0,1651067455631680.0,0
1254,0.0,0.0,-2.0,-2.0,0.0,-3.0,0.0,2.0,1651067455646867.0,0
1255,-1.0,2.0,1.0,-2.0,0.0,-1.0,0.0,2.0,1651067455646867.0,0
1256,-1.0,-4.0,-4.0,-2.0,-4.0,-1.0,-1.0,-3.0,1651067455647799.0,0
1257,0.0,0.0,-2.0,-2.0,-2.0,-3.0,-1.0,-1.0,1651067455647799.0,0
1258,-1.0,0.0,2.0,2.0,1.0,2.0,1.0,0.0,1651067455669958.0,0
1259,1.0,0.0,-1.0,-3.0,-2.0,-1.0,-1.0,0.0,1651067455669958.0,0
1260,1.0,1.0,0.0,-3.0,-2.0,0.0,-1.0,-1.0,1651067455670890.0,0
1261,-3.0,0.0,-1.0,3.0,0.0,1.0,-1.0,-1.0,1651067455670890.0,0
1262,0.0,-1.0,0.0,-2.0,-1.0,-2.0,0.0,0.0,1651067455683856.0,0
1263,-1.0,0.0,2.0,5.0,1.0,-1.0,0.0,0.0,1651067455683856.0,0
1264,0.0,0.0,0.0,-2.0,-4.0,-4.0,-1.0,2.0,1651067455691900.0,0
1265,0.0,-1.0,-1.0,1.0,4.0,1.0,0.0,-1.0,1651067455691900.0,0
1266,0.0,1.0,-3.0,-4.0,1.0,4.0,3.0,-1.0,1651067455707097.0,0
1267,1.0,-1.0,-3.0,-3.0,-1.0,-1.0,-1.0,0.0,1651067455707097.0,0
1268,0.0,1.0,1.0,2.0,-5.0,-6.0,-4.0,-3.0,1651067455708028.0,0
1269,1.0,0.0,-1.0,0.0,-2.0,0.0,0.0,1.0,1651067455708028.0,0
1270,-1.0,0.0,-4.0,-6.0,3.0,1.0,1.0,0.0,1651067455729373.0,0
1271,-1.0,-1.0,0.0,-1.0,0.0,2.0,2.0,-2.0,1651067455729373.0,0
1272,-1.0,-1.0,-2.0,-3.0,-2.0,0.0,1.0,-1.0,1651067455730339.0,0
1273,-2.0,-1.0,-2.0,1.0,-3.0,-3.0,-1.0,-1.0,1651067455730339.0,0
1274,-1.0,-1.0,0.0,2.0,-1.0,-2.0,-2.0,-1.0,1651067455753190.0,0
1275,1.0,-2.0,-2.0,-3.0,-2.0,-2.0,-1.0,0.0,1651067455753190.0,0
1276,0.0,0.0,0.0,0.0,-1.0,2.0,-2.0,0.0,1651067455753190.0,0
1277,0.0,-2.0,1.0,-5.0,1.0,1.0,2.0,-1.0,1651067455753190.0,0
1278,-1.0,-1.0,2.0,5.0,3.0,1.0,-1.0,-1.0,1651067455767261.0,0
1279,-2.0,-2.0,-3.0,-7.0,-4.0,-1.0,1.0,0.0,1651067455767261.0,0
1280,-1.0,0.0,0.0,4.0,8.0,0.0,-3.0,-1.0,1651067455775172.0,0
1281,0.0,0.0,-2.0,-3.0,-1.0,-2.0,-1.0,0.0,1651067455775172.0,0
1282,1.0,0.0,-2.0,-1.0,-3.0,1.0,-1.0,-1.0,1651067455789927.0,0
1283,0.0,-2.0,-3.0,3.0,-3.0,0.0,-1.0,0.0,1651067455789927.0,0
1284,0.0,-1.0,-2.0,-3.0,-1.0,1.0,0.0,0.0,1651067455790859.0,0
1285,0.0,-1.0,-1.0,1.0,-1.0,-2.0,0.0,-1.0,1651067455790859.0,0
1286,-1.0,0.0,0.0,1.0,1.0,1.0,1.0,0.0,1651067455812711.0,0
1287,-1.0,-1.0,0.0,2.0,2.0,2.0,0.0,-1.0,1651067455812711.0,0
1288,0.0,-1.0,-1.0,-4.0,-1.0,-1.0,-1.0,-2.0,1651067455813680.0,0
1289,-1.0,-2.0,2.0,1.0,-2.0,-5.0,-4.0,0.0,1651067455813680.0,0
1290,-1.0,-1.0,0.0,-1.0,-4.0,-3.0,-2.0,2.0,1651067455827428.0,0
1291,0.0,0.0,1.0,0.0,2.0,3.0,0.0,0.0,1651067455827428.0,0
1292,-2.0,-2.0,-1.0,-2.0,1.0,1.0,2.0,0.0,1651067455828360.0,0
1293,1.0,-1.0,0.0,-1.0,0.0,0.0,1.0,-1.0,1651067455828360.0,0
1294,0.0,1.0,2.0,1.0,-2.0,-3.0,-2.0,-2.0,1651067455849353.0,0
1295,-1.0,-1.0,-1.0,-4.0,1.0,-4.0,-1.0,-2.0,1651067455849353.0,0
1296,0.0,0.0,-4.0,-9.0,-7.0,0.0,1.0,1.0,1651067455850351.0,0
1297,-2.0,0.0,-2.0,-4.0,-3.0,1.0,0.0,-1.0,1651067455850351.0,0
1298,-1.0,0.0,1.0,2.0,1.0,-1.0,-1.0,-1.0,1651067455873402.0,0
1299,-1.0,0.0,2.0,3.0,-1.0,2.0,1.0,-1.0,1651067455873402.0,0
1300,-2.0,0.0,5.0,4.0,-3.0,-4.0,-1.0,-2.0,1651067455873402.0,0
1301,0.0,0.0,-2.0,-3.0,4.0,-3.0,-3.0,-1.0,1651067455873402.0,0
1302,0.0,0.0,-4.0,-4.0,1.0,5.0,3.0,0.0,1651067455887622.0,0
1303,-1.0,1.0,-1.0,2.0,0.0,-1.0,-3.0,0.0,1651067455887622.0,0
1304,-1.0,-2.0,-1.0,2.0,1.0,0.0,1.0,0.0,1651067455887622.0,0
1305,1.0,0.0,0.0,-2.0,-6.0,-3.0,-3.0,-1.0,1651067455887622.0,0
1306,1.0,-1.0,0.0,-1.0,-1.0,1.0,0.0,0.0,1651067455910119.0,0
1307,2.0,0.0,0.0,-2.0,-2.0,0.0,0.0,0.0,1651067455910119.0,0
1308,-3.0,0.0,2.0,3.0,2.0,1.0,-2.0,0.0,1651067455910537.0,0
1309,0.0,0.0,-1.0,-9.0,1.0,3.0,0.0,1.0,1651067455910537.0,0
1310,-2.0,0.0,0.0,-3.0,-5.0,-8.0,-3.0,-1.0,1651067455932615.0,0
1311,0.0,-1.0,-3.0,-3.0,-2.0,1.0,0.0,-2.0,1651067455932615.0,0
1312,0.0,1.0,0.0,3.0,-5.0,-8.0,-4.0,1.0,1651067455933615.0,0
1313,-1.0,-1.0,-2.0,2.0,12.0,9.0,5.0,2.0,1651067455933615.0,0
1314,0.0,-2.0,2.0,2.0,5.0,2.0,0.0,-2.0,1651067455947596.0,0
1315,-1.0,-1.0,3.0,4.0,2.0,5.0,0.0,2.0,1651067455947596.0,0
1316,-1.0,0.0,-1.0,-3.0,2.0,-4.0,0.0,0.0,1651067455947596.0,0
1317,-2.0,0.0,-2.0,3.0,-12.0,-10.0,-4.0,-1.0,1651067455947596.0,0
1318,0.0,0.0,-3.0,-2.0,13.0,14.0,5.0,1.0,1651067455969586.0,0
1319,-1.0,-1.0,1.0,1.0,-5.0,-7.0,-1.0,-2.0,1651067455969586.0,0
1320,0.0,0.0,0.0,-3.0,-8.0,-3.0,2.0,0.0,1651067455970516.0,0
1321,0.0,-1.0,0.0,6.0,0.0,1.0,0.0,-1.0,1651067455970516.0,0
1322,-1.0,-2.0,-2.0,-8.0,-6.0,-8.0,-5.0,-1.0,1651067455992708.0,0
1323,-1.0,1.0,-1.0,-8.0,3.0,-1.0,1.0,2.0,1651067455992708.0,0
1324,0.0,2.0,0.0,0.0,-1.0,2.0,2.0,0.0,1651067455993749.0,0
1325,-2.0,-3.0,-4.0,-3.0,-4.0,-6.0,-2.0,-2.0,1651067455993749.0,0
1326,-1.0,-2.0,0.0,2.0,-4.0,-5.0,-3.0,-3.0,1651067456007668.0,0
1327,0.0,-2.0,0.0,7.0,4.0,3.0,0.0,-2.0,1651067456007668.0,0
1328,1.0,1.0,-1.0,-3.0,-5.0,-2.0,0.0,0.0,1651067456007668.0,0
1329,1.0,1.0,2.0,1.0,6.0,0.0,-2.0,0.0,1651067456007668.0,0
1330,-1.0,1.0,1.0,-1.0,-13.0,-1.0,0.0,0.0,1651067456030118.0,0
1331,-2.0,-3.0,-7.0,-1.0,4.0,0.0,-1.0,-1.0,1651067456030118.0,0
1332,0.0,-1.0,0.0,3.0,3.0,4.0,-1.0,0.0,1651067456030790.0,0
1333,0.0,1.0,2.0,-1.0,-9.0,-5.0,-4.0,-2.0,1651067456030790.0,0
1334,-1.0,-1.0,-2.0,-1.0,-10.0,-4.0,-2.0,2.0,1651067456053670.0,0
1335,-1.0,-2.0,-8.0,-6.0,5.0,0.0,0.0,0.0,1651067456053670.0,0
1336,-2.0,-1.0,-1.0,3.0,2.0,4.0,0.0,-1.0,1651067456053670.0,0
1337,0.0,0.0,0.0,-1.0,2.0,3.0,2.0,2.0,1651067456053670.0,0
1338,0.0,-2.0,3.0,0.0,1.0,1.0,-2.0,-1.0,1651067456067358.0,0
1339,0.0,0.0,2.0,1.0,-6.0,-3.0,0.0,0.0,1651067456067358.0,0
1340,0.0,-2.0,-1.0,2.0,0.0,-4.0,-1.0,-2.0,1651067456068371.0,0
1341,2.0,2.0,0.0,-3.0,-5.0,-2.0,-1.0,-1.0,1651067456068371.0,0
1342,1.0,-2.0,-2.0,2.0,6.0,2.0,1.0,0.0,1651067456089584.0,0
1343,-1.0,0.0,-1.0,0.0,-4.0,-1.0,-3.0,-1.0,1651067456089584.0,0
1344,-1.0,-1.0,0.0,1.0,3.0,2.0,-1.0,-1.0,1651067456090516.0,0
1345,-1.0,-1.0,-1.0,0.0,-1.0,-3.0,-3.0,-2.0,1651067456090516.0,0
1346,-1.0,2.0,0.0,-2.0,0.0,-1.0,2.0,-1.0,1651067456112522.0,0
1347,-1.0,0.0,-1.0,4.0,2.0,2.0,0.0,-1.0,1651067456112522.0,0
1348,-1.0,0.0,-2.0,-1.0,-3.0,-2.0,-1.0,-1.0,1651067456113461.0,0
1349,0.0,1.0,0.0,1.0,2.0,3.0,3.0,3.0,1651067456113461.0,0
1350,-1.0,-2.0,-2.0,-2.0,-10.0,-7.0,-5.0,-1.0,1651067456127482.0,0
1351,0.0,1.0,2.0,-3.0,6.0,2.0,-1.0,-2.0,1651067456127482.0,0
1352,0.0,-1.0,-2.0,2.0,0.0,-2.0,-2.0,-1.0,1651067456127482.0,0
1353,0.0,-2.0,0.0,-1.0,-2.0,3.0,3.0,-1.0,1651067456127482.0,0
1354,1.0,1.0,3.0,0.0,-1.0,-1.0,2.0,0.0,1651067456149424.0,0
1355,0.0,-2.0,-2.0,-1.0,-9.0,-4.0,1.0,1.0,1651067456149424.0,0
1356,0.0,-2.0,-2.0,0.0,2.0,-1.0,-1.0,-2.0,1651067456150366.0,0
1357,1.0,0.0,1.0,1.0,1.0,-1.0,-1.0,-1.0,1651067456150366.0,0
1358,0.0,0.0,-1.0,0.0,-2.0,0.0,0.0,-1.0,1651067456173302.0,0
1359,0.0,-1.0,-1.0,-2.0,-6.0,-6.0,-2.0,-2.0,1651067456173302.0,0
1360,1.0,-2.0,-2.0,3.0,3.0,1.0,0.0,0.0,1651067456173302.0,0
1361,-2.0,-1.0,0.0,3.0,1.0,3.0,-1.0,-1.0,1651067456173302.0,0
1362,-1.0,0.0,1.0,0.0,3.0,0.0,-1.0,-2.0,1651067456187258.0,0
1363,1.0,2.0,0.0,-1.0,0.0,1.0,0.0,1.0,1651067456187258.0,0
1364,0.0,0.0,-1.0,-8.0,-2.0,-2.0,-1.0,1.0,1651067456188189.0,0
1365,-2.0,-2.0,-3.0,0.0,-2.0,-3.0,-1.0,-1.0,1651067456188189.0,0
1366,-1.0,0.0,-3.0,-2.0,-2.0,-2.0,-1.0,0.0,1651067456209290.0,0
1367,-2.0,-1.0,2.0,2.0,1.0,-3.0,-3.0,-1.0,1651067456209290.0,0
1368,-1.0,0.0,0.0,-1.0,1.0,1.0,-2.0,-3.0,1651067456210236.0,0
1369,-1.0,0.0,1.0,-2.0,-3.0,1.0,0.0,-1.0,1651067456210236.0,0
1370,-2.0,-2.0,-1.0,6.0,8.0,4.0,1.0,-1.0,1651067456233244.0,0
1371,1.0,2.0,5.0,0.0,-3.0,-1.0,-3.0,-1.0,1651067456233244.0,0
1372,-1.0,2.0,2.0,3.0,0.0,-2.0,0.0,-2.0,1651067456233244.0,0
1373,-1.0,-3.0,-4.0,-5.0,-2.0,-2.0,-2.0,-2.0,1651067456233244.0,0
1374,-3.0,-2.0,-2.0,-2.0,1.0,-1.0,-1.0,0.0,1651067456247276.0,0
1375,-2.0,1.0,1.0,1.0,-5.0,-3.0,-2.0,-1.0,1651067456247276.0,0
1376,-2.0,-1.0,0.0,0.0,2.0,2.0,-2.0,-1.0,1651067456248234.0,0
1377,0.0,1.0,0.0,0.0,2.0,2.0,4.0,1.0,1651067456248234.0,0
1378,1.0,0.0,3.0,2.0,0.0,-1.0,0.0,-1.0,1651067456269470.0,0
1379,0.0,-2.0,-5.0,-4.0,-3.0,-1.0,-1.0,1.0,1651067456269470.0,0
1380,2.0,1.0,3.0,1.0,0.0,1.0,2.0,2.0,1651067456270410.0,0
1381,-3.0,-3.0,-7.0,-1.0,0.0,-1.0,0.0,1.0,1651067456270410.0,0
1382,0.0,1.0,2.0,-1.0,-1.0,-1.0,2.0,1.0,1651067456293324.0,0
1383,-3.0,-1.0,-2.0,-1.0,0.0,-1.0,-2.0,0.0,1651067456293324.0,0
1384,-1.0,-4.0,-3.0,-2.0,-4.0,-3.0,0.0,0.0,1651067456293324.0,0
1385,2.0,3.0,5.0,2.0,5.0,2.0,-4.0,0.0,1651067456293324.0,0
1386,0.0,1.0,-1.0,-4.0,-6.0,-6.0,-5.0,-3.0,1651067456306768.0,0
1387,2.0,4.0,8.0,5.0,5.0,3.0,4.0,-1.0,1651067456306768.0,0
1388,-2.0,-6.0,-11.0,-10.0,-4.0,-3.0,-2.0,-1.0,1651067456307767.0,0
1389,0.0,-2.0,0.0,-3.0,-1.0,3.0,-2.0,-3.0,1651067456307767.0,0
1390,0.0,-1.0,1.0,1.0,-5.0,-4.0,-1.0,-2.0,1651067456330153.0,0
1391,1.0,0.0,-1.0,0.0,4.0,1.0,-2.0,0.0,1651067456330153.0,0
1392,2.0,2.0,7.0,4.0,2.0,1.0,0.0,0.0,1651067456330153.0,0
1393,-3.0,-3.0,-2.0,-2.0,-6.0,-1.0,2.0,-1.0,1651067456330153.0,0
1394,0.0,0.0,-2.0,0.0,2.0,3.0,1.0,0.0,1651067456353248.0,0
1395,-2.0,-1.0,-4.0,-4.0,-4.0,-5.0,-3.0,-1.0,1651067456353248.0,0
1396,0.0,1.0,0.0,-1.0,1.0,1.0,-1.0,-4.0,1651067456353248.0,0
1397,-2.0,-1.0,-1.0,0.0,-1.0,-3.0,-4.0,-1.0,1651067456353248.0,0
1398,1.0,1.0,1.0,-1.0,0.0,0.0,4.0,2.0,1651067456366327.0,0
1399,-1.0,-1.0,1.0,-1.0,1.0,3.0,2.0,-1.0,1651067456366327.0,0
1400,0.0,-2.0,-3.0,-3.0,-2.0,-2.0,-7.0,-6.0,1651067456374239.0,0
1401,1.0,-1.0,-4.0,2.0,6.0,2.0,5.0,6.0,1651067456374239.0,0
1402,-1.0,-3.0,-4.0,-2.0,1.0,1.0,-2.0,-1.0,1651067456390197.0,0
1403,-1.0,-1.0,-1.0,2.0,-1.0,-1.0,-4.0,-2.0,1651067456390197.0,0
1404,-1.0,-4.0,-7.0,-9.0,-7.0,-2.0,5.0,3.0,1651067456390197.0,0
1405,-2.0,1.0,5.0,0.0,0.0,-1.0,-1.0,-1.0,1651067456390197.0,0
1406,-1.0,-1.0,4.0,3.0,2.0,1.0,-2.0,-1.0,1651067456412463.0,0
1407,-1.0,-4.0,-9.0,-7.0,-4.0,-3.0,-1.0,0.0,1651067456412463.0,0
1408,0.0,6.0,12.0,5.0,-1.0,-1.0,3.0,4.0,1651067456413463.0,0
1409,-3.0,-7.0,-16.0,-7.0,-4.0,-3.0,-4.0,-2.0,1651067456413463.0,0
1410,1.0,0.0,-1.0,-1.0,0.0,0.0,2.0,1.0,1651067456426496.0,0
1411,-1.0,2.0,5.0,1.0,0.0,1.0,-2.0,-5.0,1651067456426496.0,0
1412,1.0,1.0,-1.0,2.0,0.0,-1.0,-1.0,-1.0,1651067456434887.0,0
1413,2.0,1.0,5.0,3.0,-2.0,-2.0,-2.0,0.0,1651067456434887.0,0
1414,0.0,-1.0,-3.0,2.0,3.0,2.0,0.0,-1.0,1651067456450133.0,0
1415,0.0,1.0,3.0,0.0,-5.0,-3.0,2.0,3.0,1651067456450133.0,0
1416,-1.0,-1.0,1.0,1.0,4.0,2.0,-2.0,-3.0,1651067456450133.0,0
1417,-1.0,0.0,2.0,-3.0,-6.0,-9.0,0.0,0.0,1651067456450133.0,0
1418,0.0,0.0,-2.0,-2.0,3.0,6.0,6.0,5.0,1651067456473214.0,0
1419,0.0,-1.0,0.0,2.0,-1.0,0.0,2.0,0.0,1651067456473214.0,0
1420,-1.0,-2.0,-2.0,2.0,1.0,0.0,-1.0,0.0,1651067456473214.0,0
1421,-2.0,2.0,5.0,0.0,3.0,4.0,4.0,-3.0,1651067456473214.0,0
1422,-4.0,-5.0,-10.0,-7.0,-16.0,-14.0,-8.0,-3.0,1651067456486180.0,0
1423,6.0,9.0,11.0,12.0,18.0,3.0,3.0,4.0,1651067456486180.0,0
1424,-2.0,0.0,0.0,-1.0,-3.0,2.0,-2.0,-1.0,1651067456494719.0,0
1425,-1.0,-5.0,-11.0,-1.0,0.0,-2.0,2.0,3.0,1651067456494719.0,0
1426,-1.0,-3.0,-3.0,0.0,-2.0,4.0,2.0,-2.0,1651067456509664.0,0
1427,-1.0,0.0,1.0,-3.0,-6.0,-1.0,-1.0,-3.0,1651067456509664.0,0
1428,2.0,1.0,5.0,6.0,2.0,-1.0,-3.0,3.0,1651067456510662.0,0
1429,-2.0,1.0,3.0,-1.0,-1.0,-1.0,-4.0,-3.0,1651067456510662.0,0
1430,0.0,1.0,4.0,2.0,4.0,3.0,3.0,0.0,1651067456532696.0,0
1431,-4.0,-4.0,-6.0,-4.0,-3.0,0.0,0.0,0.0,1651067456532696.0,0
1432,-2.0,-4.0,-7.0,-3.0,-1.0,-5.0,-1.0,-3.0,1651067456533694.0,0
1433,2.0,2.0,3.0,0.0,-6.0,-5.0,-6.0,-2.0,1651067456533694.0,0
1434,1.0,1.0,-1.0,1.0,4.0,3.0,2.0,2.0,1651067456546664.0,0
1435,-3.0,-8.0,-18.0,-5.0,4.0,4.0,1.0,3.0,1651067456546664.0,0
1436,-2.0,-2.0,-2.0,-1.0,5.0,3.0,2.0,-2.0,1651067456554714.0,0
1437,-1.0,-1.0,0.0,-1.0,-4.0,2.0,0.0,-7.0,1651067456554714.0,0
1438,-1.0,-3.0,-5.0,-1.0,2.0,-2.0,1.0,6.0,1651067456570117.0,0
1439,-6.0,-5.0,0.0,0.0,-1.0,-2.0,-2.0,-9.0,1651067456570117.0,0
1440,-14.0,-5.0,-12.0,-8.0,-5.0,-4.0,-5.0,-22.0,1651067456570117.0,0
1441,-3.0,3.0,9.0,12.0,15.0,11.0,8.0,0.0,1651067456570117.0,0
1442,20.0,8.0,1.0,-2.0,-5.0,-5.0,1.0,42.0,1651067456593324.0,3
1443,3.0,-2.0,-1.0,-5.0,-11.0,-5.0,-4.0,0.0,1651067456593324.0,3
1444,8.0,1.0,-3.0,-1.0,3.0,3.0,-4.0,0.0,1651067456593324.0,3
1445,-26.0,-8.0,-3.0,1.0,-2.0,-5.0,-12.0,-41.0,1651067456593324.0,3
1446,-3.0,0.0,2.0,4.0,6.0,0.0,0.0,6.0,1651067456615362.0,3
1447,24.0,11.0,11.0,4.0,5.0,6.0,9.0,36.0,1651067456615362.0,3
1448,-10.0,2.0,8.0,1.0,-6.0,-4.0,6.0,-16.0,1651067456616361.0,3
1449,-9.0,-7.0,-12.0,-9.0,6.0,15.0,25.0,-1.0,1651067456616361.0,3
1450,13.0,1.0,-3.0,-8.0,-17.0,-18.0,-24.0,8.0,1651067456629438.0,3
1451,-6.0,1.0,3.0,4.0,5.0,-2.0,-17.0,-19.0,1651067456629438.0,3
1452,9.0,-1.0,0.0,1.0,-3.0,-2.0,-8.0,5.0,1651067456630404.0,3
1453,-3.0,1.0,-1.0,1.0,-1.0,-7.0,-3.0,18.0,1651067456630404.0,3
1454,2.0,5.0,11.0,3.0,0.0,10.0,9.0,6.0,1651067456653322.0,3
1455,-7.0,-6.0,-11.0,-11.0,-14.0,-8.0,-7.0,-21.0,1651067456653322.0,3
1456,9.0,10.0,4.0,7.0,15.0,12.0,17.0,13.0,1651067456653322.0,3
1457,-5.0,-2.0,3.0,-2.0,-6.0,-5.0,-4.0,-17.0,1651067456653322.0,3
1458,-8.0,-5.0,1.0,-2.0,-3.0,-9.0,-12.0,0.0,1651067456666623.0,3
1459,10.0,15.0,24.0,19.0,9.0,5.0,5.0,11.0,1651067456666623.0,3
1460,-9.0,-9.0,-9.0,-12.0,-8.0,-4.0,-5.0,-11.0,1651067456674601.0,3
1461,-7.0,-10.0,-10.0,-6.0,-4.0,-1.0,-9.0,-10.0,1651067456674601.0,3
1462,8.0,4.0,-2.0,-4.0,-5.0,2.0,7.0,-13.0,1651067456689199.0,3
1463,1.0,1.0,-1.0,4.0,9.0,2.0,-2.0,-3.0,1651067456689199.0,3
1464,-1.0,-1.0,-1.0,-3.0,-3.0,2.0,7.0,21.0,1651067456690128.0,3
1465,7.0,3.0,5.0,5.0,0.0,-1.0,0.0,19.0,1651067456690128.0,3
1466,-20.0,-7.0,0.0,-4.0,-2.0,-4.0,1.0,-43.0,1651067456720769.0,3
1467,13.0,3.0,0.0,0.0,1.0,4.0,12.0,25.0,1651067456720769.0,3
1468,4.0,2.0,3.0,4.0,2.0,1.0,-5.0,9.0,1651067456720769.0,3
1469,4.0,0.0,-5.0,-10.0,-9.0,-7.0,-6.0,5.0,1651067456720769.0,3
1470,-9.0,-1.0,6.0,8.0,4.0,1.0,0.0,-16.0,1651067456735603.0,3
1471,-11.0,-2.0,2.0,2.0,2.0,4.0,8.0,-8.0,1651067456735603.0,3
1472,4.0,-4.0,-5.0,-6.0,-6.0,-7.0,-11.0,-7.0,1651067456736611.0,3
1473,9.0,6.0,8.0,5.0,1.0,2.0,0.0,13.0,1651067456736611.0,3
1474,-4.0,1.0,-3.0,0.0,7.0,5.0,-3.0,-13.0,1651067456749737.0,3
1475,-2.0,-13.0,-21.0,-12.0,-2.0,2.0,10.0,15.0,1651067456749737.0,3
1476,-9.0,-6.0,-4.0,-6.0,-3.0,-4.0,-6.0,-2.0,1651067456750737.0,3
1477,9.0,5.0,2.0,2.0,5.0,0.0,-9.0,-8.0,1651067456750737.0,3
1478,1.0,3.0,8.0,8.0,6.0,4.0,10.0,13.0,1651067456772801.0,3
1479,-9.0,-2.0,-2.0,-8.0,-12.0,-10.0,-8.0,-14.0,1651067456772801.0,3
1480,1.0,9.0,19.0,10.0,1.0,7.0,7.0,11.0,1651067456773802.0,3
1481,-1.0,4.0,5.0,4.0,12.0,-3.0,-8.0,-22.0,1651067456773802.0,3
1482,6.0,-2.0,-7.0,-5.0,3.0,5.0,9.0,15.0,1651067456794852.0,3
1483,1.0,-2.0,-5.0,-5.0,-8.0,1.0,7.0,9.0,1651067456794852.0,3
1484,3.0,3.0,2.0,0.0,-5.0,-4.0,0.0,1.0,1651067456802660.0,3
1485,2.0,2.0,0.0,-3.0,-8.0,-3.0,-2.0,1.0,1651067456802660.0,3
1486,-10.0,-1.0,5.0,3.0,3.0,-2.0,-9.0,-8.0,1651067456810126.0,3
1487,-4.0,-4.0,-2.0,-3.0,-1.0,5.0,5.0,-8.0,1651067456810126.0,3
1488,8.0,-2.0,-7.0,-6.0,0.0,4.0,5.0,16.0,1651067456810126.0,3
1489,8.0,1.0,1.0,1.0,-1.0,-1.0,-1.0,5.0,1651067456810126.0,3
1490,-6.0,-2.0,-5.0,-4.0,-4.0,-2.0,-7.0,-11.0,1651067456832409.0,3
1491,-4.0,1.0,-1.0,-1.0,-4.0,3.0,11.0,4.0,1651067456832409.0,3
1492,2.0,7.0,14.0,9.0,2.0,-3.0,-4.0,-2.0,1651067456839419.0,3
1493,1.0,-4.0,-7.0,-1.0,9.0,6.0,5.0,11.0,1651067456839419.0,3
1494,-1.0,-4.0,-10.0,-2.0,-1.0,-4.0,-3.0,-6.0,1651067456855692.0,3
1495,1.0,2.0,4.0,2.0,1.0,-8.0,-17.0,-1.0,1651067456855692.0,3
1496,-17.0,-12.0,-17.0,-12.0,-11.0,-6.0,-5.0,-26.0,1651067456855692.0,3
1497,4.0,1.0,-3.0,-2.0,-5.0,-2.0,0.0,9.0,1651067456855692.0,3
1498,1.0,-3.0,-3.0,-3.0,3.0,5.0,2.0,-2.0,1651067456869655.0,3
1499,-5.0,-3.0,-6.0,-8.0,-7.0,-5.0,-6.0,-6.0,1651067456869655.0,3
1500,0.0,-3.0,-7.0,-4.0,2.0,5.0,4.0,4.0,1651067456870585.0,3
1501,3.0,0.0,-2.0,0.0,-3.0,-4.0,-2.0,0.0,1651067456870585.0,3
1502,4.0,4.0,4.0,3.0,5.0,7.0,12.0,5.0,1651067456892687.0,3
1503,5.0,-3.0,-2.0,-1.0,-2.0,1.0,7.0,21.0,1651067456892687.0,3
1504,-4.0,-2.0,1.0,2.0,-3.0,-4.0,-6.0,-6.0,1651067456893639.0,3
1505,-6.0,-3.0,3.0,3.0,-2.0,0.0,-4.0,-19.0,1651067456893639.0,3
1506,3.0,-2.0,-5.0,1.0,5.0,7.0,9.0,13.0,1651067456915793.0,3
1507,-3.0,-4.0,-8.0,-6.0,-2.0,-5.0,-7.0,-13.0,1651067456915793.0,3
1508,3.0,2.0,5.0,8.0,5.0,0.0,2.0,2.0,1651067456916628.0,3
1509,-2.0,-6.0,-8.0,-4.0,-2.0,4.0,1.0,5.0,1651067456916628.0,3
1510,-2.0,-1.0,-3.0,-4.0,-13.0,-8.0,-13.0,-9.0,1651067456930176.0,3
1511,-2.0,0.0,3.0,7.0,13.0,2.0,-2.0,-6.0,1651067456930176.0,3
1512,6.0,-2.0,-6.0,-1.0,0.0,2.0,4.0,14.0,1651067456930176.0,3
1513,5.0,5.0,1.0,0.0,4.0,3.0,6.0,-2.0,1651067456930176.0,3
1514,-14.0,-8.0,-4.0,-2.0,0.0,-2.0,-5.0,-7.0,1651067456953325.0,3
1515,3.0,2.0,-3.0,0.0,-5.0,-4.0,-7.0,-12.0,1651067456953325.0,3
1516,4.0,1.0,-1.0,3.0,1.0,-2.0,-1.0,4.0,1651067456953325.0,3
1517,-1.0,1.0,1.0,-3.0,-1.0,3.0,0.0,13.0,1651067456953325.0,3
1518,2.0,-2.0,-9.0,-6.0,-3.0,-5.0,-3.0,-9.0,1651067456975814.0,3
1519,-14.0,-10.0,0.0,-1.0,-3.0,1.0,-10.0,-16.0,1651067456975814.0,3
1520,-2.0,-7.0,-7.0,-1.0,-2.0,-7.0,-3.0,-4.0,1651067456975814.0,3
1521,4.0,3.0,0.0,-3.0,-4.0,-3.0,9.0,12.0,1651067456975814.0,3
1522,-1.0,-2.0,0.0,-1.0,-3.0,-4.0,-2.0,9.0,1651067456990086.0,3
1523,-6.0,-7.0,-10.0,-7.0,-5.0,-3.0,-5.0,-10.0,1651067456990086.0,3
1524,1.0,2.0,6.0,3.0,9.0,6.0,-3.0,-6.0,1651067456990086.0,3
1525,-5.0,0.0,4.0,2.0,-3.0,-2.0,5.0,-8.0,1651067456990086.0,3
1526,10.0,6.0,7.0,1.0,-7.0,-2.0,-9.0,7.0,1651067457012708.0,3
1527,-8.0,0.0,0.0,0.0,-3.0,-3.0,8.0,1.0,1651067457012708.0,3
1528,-3.0,-2.0,-1.0,-1.0,9.0,11.0,2.0,-7.0,1651067457013705.0,3
1529,-1.0,-1.0,3.0,2.0,-2.0,-2.0,-8.0,-3.0,1651067457013705.0,3
1530,11.0,6.0,2.0,-1.0,4.0,4.0,22.0,26.0,1651067457035824.0,3
1531,-3.0,-3.0,3.0,-3.0,-11.0,-6.0,-5.0,-9.0,1651067457035824.0,3
1532,10.0,4.0,2.0,1.0,-1.0,-1.0,6.0,22.0,1651067457035824.0,3
1533,5.0,1.0,1.0,-2.0,1.0,2.0,0.0,8.0,1651067457035824.0,3
1534,-12.0,-3.0,2.0,2.0,-3.0,-1.0,-7.0,-20.0,1651067457050153.0,3
1535,5.0,9.0,10.0,6.0,7.0,0.0,-1.0,0.0,1651067457050153.0,3
1536,-5.0,-1.0,-1.0,-2.0,-2.0,-3.0,1.0,-12.0,1651067457050153.0,3
1537,-3.0,-1.0,3.0,2.0,0.0,-1.0,-5.0,-4.0,1651067457050153.0,3
1538,0.0,0.0,-2.0,2.0,1.0,-1.0,0.0,0.0,1651067457080623.0,3
1539,11.0,1.0,-1.0,4.0,6.0,3.0,6.0,9.0,1651067457080623.0,3
1540,-11.0,-4.0,-3.0,-7.0,-11.0,-6.0,-6.0,-14.0,1651067457080623.0,3
1541,11.0,7.0,3.0,-1.0,-2.0,-4.0,5.0,21.0,1651067457080623.0,3
1542,-5.0,-2.0,-2.0,-1.0,3.0,-3.0,-10.0,-11.0,1651067457095796.0,3
1543,8.0,-1.0,-4.0,-3.0,-1.0,0.0,-5.0,3.0,1651067457095796.0,3
1544,-9.0,-7.0,-5.0,-1.0,1.0,7.0,-4.0,-15.0,1651067457095796.0,3
1545,-5.0,-2.0,-1.0,-1.0,-3.0,-7.0,-3.0,0.0,1651067457095796.0,3
1546,-1.0,-2.0,1.0,-2.0,-2.0,6.0,8.0,0.0,1651067457109848.0,3
1547,-2.0,0.0,1.0,-4.0,-2.0,-4.0,-4.0,4.0,1651067457109848.0,3
1548,-1.0,-3.0,-4.0,-2.0,-6.0,-10.0,-9.0,-4.0,1651067457110848.0,3
1549,-4.0,-1.0,2.0,2.0,-1.0,3.0,2.0,-5.0,1651067457110848.0,3
1550,1.0,-1.0,0.0,0.0,-5.0,-8.0,-9.0,-3.0,1651067457133291.0,3
1551,-4.0,0.0,4.0,2.0,2.0,3.0,5.0,-4.0,1651067457133291.0,3
1552,-5.0,-5.0,-6.0,-2.0,-4.0,-2.0,-3.0,-3.0,1651067457134070.0,3
1553,1.0,-3.0,-5.0,-3.0,0.0,0.0,-3.0,-5.0,1651067457134070.0,3
1554,0.0,-1.0,-3.0,-2.0,-4.0,-3.0,-1.0,4.0,1651067457162754.0,3
1555,-2.0,0.0,0.0,2.0,-7.0,-4.0,-5.0,-7.0,1651067457162754.0,3
1556,-3.0,1.0,0.0,5.0,15.0,7.0,-6.0,-5.0,1651067457163724.0,3
1557,1.0,-3.0,-2.0,0.0,2.0,1.0,13.0,5.0,1651067457163724.0,3
1558,4.0,2.0,5.0,2.0,6.0,5.0,1.0,1.0,1651067457169710.0,3
1559,-2.0,-4.0,-10.0,-7.0,-3.0,-1.0,4.0,-1.0,1651067457169710.0,3
1560,5.0,3.0,-1.0,-1.0,-6.0,-4.0,0.0,8.0,1651067457170705.0,3
1561,-2.0,-3.0,-4.0,-2.0,-2.0,-1.0,-4.0,-7.0,1651067457170705.0,3
1562,6.0,4.0,4.0,1.0,0.0,4.0,3.0,8.0,1651067457192591.0,3
1563,-4.0,1.0,5.0,3.0,4.0,5.0,6.0,-1.0,1651067457192591.0,3
1564,4.0,-1.0,-2.0,-4.0,-4.0,-3.0,6.0,-1.0,1651067457192591.0,3
1565,-1.0,-2.0,-4.0,-1.0,-3.0,-4.0,-7.0,-4.0,1651067457192591.0,3
1566,-9.0,-6.0,-7.0,-3.0,-10.0,-10.0,-12.0,-5.0,1651067457215790.0,3
1567,3.0,3.0,7.0,5.0,8.0,2.0,-5.0,-5.0,1651067457215790.0,3
1568,-1.0,0.0,-2.0,-2.0,5.0,0.0,6.0,5.0,1651067457216604.0,3
1569,-9.0,-1.0,1.0,0.0,-1.0,0.0,-3.0,-10.0,1651067457216604.0,3
1570,3.0,-3.0,-3.0,-4.0,-7.0,-4.0,-5.0,1.0,1651067457229759.0,3
1571,0.0,-1.0,-1.0,0.0,2.0,8.0,10.0,6.0,1651067457229759.0,3
1572,1.0,5.0,8.0,2.0,-5.0,-4.0,-6.0,0.0,1651067457230718.0,3
1573,-4.0,-5.0,-6.0,-3.0,-3.0,-3.0,2.0,-13.0,1651067457230718.0,3
1574,-2.0,-3.0,-5.0,-3.0,5.0,8.0,8.0,2.0,1651067457251852.0,3
1575,5.0,0.0,-2.0,-2.0,-2.0,-4.0,-6.0,4.0,1651067457251852.0,3
1576,6.0,2.0,8.0,1.0,1.0,0.0,6.0,6.0,1651067457252783.0,3
1577,1.0,3.0,1.0,-3.0,-4.0,-1.0,-2.0,-1.0,1651067457252783.0,3
1578,-2.0,-2.0,-1.0,0.0,-1.0,0.0,3.0,-7.0,1651067457275406.0,3
1579,-4.0,0.0,-2.0,-1.0,-1.0,-4.0,1.0,0.0,1651067457275406.0,3
1580,7.0,5.0,2.0,-3.0,-5.0,2.0,7.0,17.0,1651067457276486.0,3
1581,0.0,1.0,5.0,5.0,9.0,7.0,-4.0,0.0,1651067457276486.0,3
1582,-3.0,-3.0,-4.0,0.0,-2.0,-3.0,-1.0,-7.0,1651067457289438.0,3
1583,-6.0,-7.0,-8.0,-2.0,0.0,1.0,-1.0,-8.0,1651067457289438.0,3
1584,-2.0,0.0,0.0,-1.0,-3.0,-4.0,0.0,3.0,1651067457297417.0,3
1585,2.0,-1.0,-5.0,-4.0,-7.0,-8.0,-13.0,-2.0,1651067457297417.0,3
1586,1.0,1.0,2.0,1.0,1.0,-1.0,2.0,2.0,1651067457312311.0,3
1587,5.0,1.0,-2.0,-1.0,-3.0,2.0,-1.0,3.0,1651067457312311.0,3
1588,-2.0,-3.0,-6.0,-1.0,9.0,7.0,6.0,4.0,1651067457313335.0,3
1589,-6.0,-6.0,-3.0,0.0,-2.0,-4.0,-5.0,-3.0,1651067457313335.0,3
1590,3.0,5.0,6.0,1.0,3.0,3.0,-3.0,-3.0,1651067457335097.0,3
1591,-2.0,2.0,4.0,1.0,-5.0,-4.0,-2.0,-4.0,1651067457335097.0,3
1592,-2.0,-1.0,1.0,0.0,-3.0,0.0,-1.0,-3.0,1651067457336028.0,3
1593,0.0,3.0,2.0,2.0,3.0,2.0,-5.0,-2.0,1651067457336028.0,3
1594,3.0,-1.0,-2.0,-6.0,-7.0,-3.0,9.0,10.0,1651067457349112.0,3
1595,2.0,1.0,1.0,0.0,3.0,2.0,9.0,19.0,1651067457349112.0,3
1596,1.0,1.0,3.0,5.0,4.0,3.0,1.0,-3.0,1651067457357162.0,3
1597,-1.0,0.0,-2.0,-2.0,-2.0,-2.0,-1.0,-5.0,1651067457357162.0,3
1598,-8.0,-4.0,-1.0,-2.0,-1.0,1.0,-5.0,-9.0,1651067457372235.0,3
1599,-1.0,-2.0,-4.0,-3.0,-2.0,-4.0,-6.0,-6.0,1651067457372235.0,3
1600,2.0,3.0,4.0,4.0,5.0,7.0,7.0,1.0,1651067457373166.0,3
1601,0.0,5.0,6.0,6.0,3.0,3.0,5.0,2.0,1651067457373166.0,3
1602,0.0,2.0,2.0,2.0,1.0,-3.0,0.0,4.0,1651067457395581.0,3
1603,5.0,1.0,1.0,-1.0,0.0,2.0,-2.0,-4.0,1651067457395581.0,3
1604,-1.0,-3.0,-1.0,-6.0,-9.0,-6.0,-3.0,-2.0,1651067457396581.0,3
1605,0.0,-4.0,-4.0,-7.0,-4.0,0.0,5.0,10.0,1651067457396581.0,3
1606,-1.0,2.0,-1.0,3.0,6.0,1.0,-5.0,-10.0,1651067457408669.0,3
1607,-2.0,0.0,-4.0,-1.0,1.0,-1.0,5.0,17.0,1651067457408669.0,3
1608,-2.0,2.0,0.0,-2.0,-5.0,2.0,-1.0,-9.0,1651067457417426.0,3
1609,4.0,4.0,7.0,5.0,4.0,2.0,2.0,10.0,1651067457417426.0,3
1610,-4.0,-7.0,-12.0,-6.0,0.0,-3.0,-4.0,-7.0,1651067457431565.0,3
1611,0.0,-1.0,-2.0,-4.0,-5.0,-5.0,2.0,-5.0,1651067457431565.0,3
1612,-4.0,-3.0,-2.0,0.0,0.0,-1.0,-4.0,-7.0,1651067457439543.0,3
1613,4.0,1.0,0.0,1.0,-2.0,2.0,2.0,6.0,1651067457439543.0,3
1614,-1.0,1.0,0.0,2.0,3.0,-1.0,2.0,-2.0,1651067457455501.0,3
1615,-4.0,-2.0,2.0,1.0,2.0,2.0,-6.0,-10.0,1651067457455501.0,3
1616,-3.0,-4.0,-3.0,-3.0,-5.0,-4.0,-2.0,2.0,1651067457456432.0,3
1617,1.0,1.0,1.0,1.0,-1.0,-1.0,1.0,-5.0,1651067457456432.0,3
1618,1.0,-2.0,1.0,2.0,-2.0,0.0,-3.0,5.0,1651067457469407.0,3
1619,2.0,5.0,5.0,4.0,-5.0,-1.0,-3.0,-3.0,1651067457469407.0,3
1620,0.0,-3.0,-6.0,-2.0,5.0,-1.0,2.0,2.0,1651067457477442.0,3
1621,4.0,0.0,0.0,-3.0,-9.0,-6.0,-2.0,7.0,1651067457477442.0,3
1622,0.0,0.0,-2.0,0.0,-3.0,3.0,2.0,-4.0,1651067457492596.0,3
1623,-2.0,0.0,2.0,1.0,2.0,2.0,-2.0,-11.0,1651067457492596.0,3
1624,5.0,0.0,-7.0,-2.0,-6.0,-3.0,-6.0,26.0,1651067457492596.0,3
1625,-4.0,-2.0,-4.0,-3.0,-1.0,-4.0,-5.0,-13.0,1651067457492596.0,3
1626,4.0,1.0,2.0,0.0,3.0,3.0,6.0,7.0,1651067457514403.0,3
1627,2.0,0.0,0.0,1.0,1.0,0.0,0.0,-1.0,1651067457514403.0,3
1628,-7.0,-3.0,1.0,-1.0,-3.0,-2.0,-7.0,-13.0,1651067457522382.0,3
1629,-2.0,-1.0,-7.0,-2.0,1.0,2.0,5.0,8.0,1651067457522382.0,3
1630,-2.0,-3.0,-4.0,-4.0,-4.0,-6.0,-3.0,-3.0,1651067457529363.0,3
1631,-1.0,-3.0,-6.0,-6.0,-4.0,-4.0,-4.0,3.0,1651067457529363.0,3
1632,-3.0,-2.0,-5.0,-2.0,-2.0,0.0,-2.0,-10.0,1651067457537342.0,3
1633,0.0,-2.0,-3.0,-3.0,3.0,5.0,1.0,-5.0,1651067457537342.0,3
1634,3.0,5.0,6.0,6.0,7.0,3.0,7.0,7.0,1651067457552474.0,3
1635,-3.0,-4.0,-5.0,-4.0,-2.0,-3.0,-3.0,0.0,1651067457552474.0,3
1636,2.0,2.0,2.0,1.0,1.0,-1.0,0.0,1.0,1651067457553399.0,3
1637,1.0,0.0,-2.0,-3.0,-1.0,2.0,4.0,-3.0,1651067457553399.0,3
1638,1.0,0.0,-1.0,-1.0,-3.0,0.0,-5.0,-1.0,1651067457575402.0,3
1639,-5.0,-2.0,-3.0,-2.0,-2.0,-7.0,-11.0,-12.0,1651067457575402.0,3
1640,0.0,3.0,3.0,4.0,-1.0,-1.0,-3.0,2.0,1651067457576409.0,3
1641,3.0,0.0,2.0,0.0,1.0,6.0,14.0,11.0,1651067457576409.0,3
1642,0.0,3.0,7.0,2.0,1.0,1.0,0.0,-7.0,1651067457589427.0,3
1643,3.0,0.0,-3.0,-1.0,-1.0,1.0,0.0,8.0,1651067457589427.0,3
1644,-1.0,-3.0,-2.0,-1.0,-3.0,-4.0,-7.0,-14.0,1651067457597405.0,3
1645,-4.0,-6.0,-12.0,-5.0,-4.0,-5.0,-14.0,-13.0,1651067457597405.0,3
1646,0.0,-2.0,-3.0,0.0,2.0,4.0,13.0,20.0,1651067457612589.0,3
1647,-1.0,0.0,0.0,0.0,0.0,0.0,1.0,-4.0,1651067457612589.0,3
1648,0.0,-2.0,-3.0,0.0,-3.0,-6.0,-2.0,2.0,1651067457612589.0,3
1649,-1.0,1.0,6.0,3.0,2.0,1.0,2.0,1.0,1651067457612589.0,3
1650,-2.0,1.0,-1.0,-2.0,-3.0,-2.0,-5.0,-3.0,1651067457635615.0,3
1651,1.0,0.0,1.0,0.0,-1.0,1.0,4.0,3.0,1651067457635615.0,3
1652,-2.0,-3.0,-4.0,-4.0,-1.0,-1.0,-3.0,-2.0,1651067457636613.0,3
1653,2.0,-1.0,-2.0,2.0,-1.0,-1.0,4.0,0.0,1651067457636613.0,3
1654,-1.0,1.0,0.0,-3.0,-2.0,-5.0,-4.0,-14.0,1651067457657744.0,3
1655,-1.0,-1.0,0.0,0.0,3.0,3.0,2.0,7.0,1651067457657744.0,3
1656,2.0,2.0,0.0,0.0,-1.0,0.0,4.0,-1.0,1651067457658675.0,3
1657,-1.0,0.0,0.0,0.0,2.0,-1.0,-5.0,-1.0,1651067457658675.0,3
1658,-2.0,-3.0,-4.0,0.0,-1.0,1.0,-5.0,-3.0,1651067457672722.0,3
1659,-1.0,-1.0,-1.0,-4.0,-7.0,-1.0,1.0,-2.0,1651067457672722.0,3
1660,1.0,0.0,1.0,0.0,-2.0,-1.0,1.0,0.0,1651067457672722.0,3
1661,1.0,1.0,0.0,1.0,1.0,2.0,5.0,4.0,1651067457672722.0,3
1662,-2.0,-1.0,0.0,1.0,3.0,-1.0,-3.0,-6.0,1651067457695867.0,3
1663,3.0,-1.0,0.0,5.0,2.0,3.0,1.0,1.0,1651067457695867.0,3
1664,-1.0,0.0,-1.0,0.0,-1.0,0.0,-2.0,-4.0,1651067457695867.0,3
1665,-2.0,-1.0,-3.0,-5.0,-7.0,-6.0,-1.0,0.0,1651067457695867.0,3
1666,0.0,-3.0,-4.0,-5.0,-4.0,-5.0,-2.0,0.0,1651067457718766.0,3
1667,-1.0,-1.0,1.0,2.0,2.0,1.0,0.0,-2.0,1651067457718766.0,3
1668,0.0,-1.0,1.0,1.0,2.0,2.0,1.0,0.0,1651067457718766.0,3
1669,0.0,0.0,2.0,3.0,0.0,-1.0,-3.0,-2.0,1651067457718766.0,3
1670,1.0,0.0,0.0,-3.0,-4.0,-3.0,-5.0,-1.0,1651067457732566.0,3
1671,-1.0,-2.0,-4.0,-5.0,-6.0,0.0,2.0,5.0,1651067457732566.0,3
1672,0.0,1.0,3.0,5.0,4.0,3.0,3.0,1.0,1651067457732566.0,3
1673,-1.0,-3.0,-3.0,-7.0,-6.0,-6.0,-3.0,-1.0,1651067457732566.0,3
1674,-3.0,-4.0,-9.0,-23.0,-12.0,-2.0,-1.0,-2.0,1651067457755565.0,3
1675,1.0,2.0,6.0,14.0,6.0,1.0,-1.0,1.0,1651067457755565.0,3
1676,-2.0,-1.0,-5.0,-20.0,-15.0,-5.0,-1.0,0.0,1651067457756608.0,3
1677,1.0,2.0,20.0,54.0,24.0,5.0,3.0,0.0,1651067457756608.0,3
1678,0.0,1.0,-12.0,-2.0,5.0,1.0,0.0,1.0,1651067457777570.0,3
1679,1.0,0.0,3.0,-12.0,-6.0,-5.0,1.0,-1.0,1651067457777570.0,3
1680,0.0,0.0,-4.0,-15.0,-9.0,0.0,0.0,-1.0,1651067457778509.0,3
1681,-1.0,-2.0,-6.0,-13.0,-6.0,-2.0,-3.0,-2.0,1651067457778509.0,3
1682,-2.0,-1.0,8.0,10.0,11.0,4.0,-5.0,-9.0,1651067457791571.0,3
1683,-1.0,1.0,8.0,43.0,22.0,7.0,5.0,6.0,1651067457791571.0,3
1684,4.0,3.0,-1.0,0.0,-7.0,-1.0,-1.0,2.0,1651067457799552.0,3
1685,1.0,1.0,-8.0,-18.0,-5.0,-1.0,-1.0,-5.0,1651067457799552.0,3
1686,-1.0,-2.0,-2.0,-13.0,-12.0,-3.0,9.0,9.0,1651067457815725.0,3
1687,-1.0,1.0,12.0,-1.0,7.0,3.0,-2.0,-7.0,1651067457815725.0,3
1688,7.0,7.0,-9.0,-11.0,2.0,0.0,1.0,2.0,1651067457815725.0,3
1689,-3.0,-1.0,-11.0,0.0,3.0,0.0,-1.0,-2.0,1651067457815725.0,3
1690,-13.0,-27.0,-16.0,-10.0,-14.0,-5.0,-2.0,2.0,1651067457838365.0,3
1691,-2.0,-1.0,7.0,-6.0,-7.0,-5.0,-5.0,-2.0,1651067457838365.0,3
1692,3.0,-1.0,2.0,2.0,4.0,3.0,-2.0,-6.0,1651067457838365.0,3
1693,3.0,6.0,22.0,46.0,10.0,2.0,-2.0,3.0,1651067457838365.0,3
1694,-2.0,0.0,-14.0,-30.0,-5.0,-4.0,-1.0,-7.0,1651067457852558.0,3
1695,5.0,3.0,-7.0,-5.0,-1.0,2.0,7.0,6.0,1651067457852558.0,3
1696,-8.0,-5.0,5.0,4.0,-1.0,-2.0,-3.0,-4.0,1651067457852558.0,3
1697,1.0,1.0,0.0,-2.0,-1.0,3.0,-1.0,0.0,1651067457852558.0,3
1698,-2.0,4.0,14.0,23.0,16.0,4.0,-4.0,-3.0,1651067457875524.0,3
1699,-3.0,-3.0,-9.0,-10.0,-12.0,-6.0,-5.0,-3.0,1651067457875524.0,3
1700,-1.0,1.0,-4.0,-1.0,2.0,1.0,1.0,-2.0,1651067457875524.0,3
1701,-5.0,-5.0,-9.0,-21.0,-9.0,0.0,0.0,2.0,1651067457875524.0,3
1702,7.0,9.0,7.0,9.0,1.0,1.0,3.0,3.0,1651067457897695.0,3
1703,-1.0,-4.0,-8.0,-2.0,8.0,2.0,-2.0,1.0,1651067457897695.0,3
1704,-4.0,-1.0,10.0,10.0,6.0,-2.0,1.0,4.0,1651067457898624.0,3
1705,1.0,3.0,13.0,-4.0,-13.0,-2.0,-2.0,-1.0,1651067457898624.0,3
1706,-3.0,-5.0,-6.0,23.0,15.0,3.0,-2.0,-1.0,1651067457912615.0,3
1707,-1.0,-2.0,-12.0,-27.0,-19.0,-8.0,-7.0,-4.0,1651067457912615.0,3
1708,-1.0,0.0,6.0,16.0,9.0,0.0,2.0,0.0,1651067457912615.0,3
1709,-1.0,0.0,-2.0,-5.0,4.0,-1.0,1.0,1.0,1651067457912615.0,3
1710,3.0,5.0,3.0,-4.0,-6.0,-3.0,-2.0,-1.0,1651067457935643.0,3
1711,-2.0,0.0,6.0,12.0,4.0,0.0,-2.0,-2.0,1651067457935643.0,3
1712,-3.0,-3.0,-7.0,-9.0,2.0,4.0,5.0,2.0,1651067457936585.0,3
1713,-1.0,1.0,-5.0,-13.0,-6.0,-4.0,-2.0,-1.0,1651067457936585.0,3
1714,-1.0,4.0,6.0,25.0,5.0,-1.0,-5.0,-4.0,1651067457957718.0,3
1715,1.0,-2.0,-7.0,-18.0,-1.0,4.0,11.0,4.0,1651067457957718.0,3
1716,2.0,2.0,3.0,-2.0,-3.0,-1.0,-1.0,-1.0,1651067457958646.0,3
1717,1.0,-3.0,-8.0,-18.0,-12.0,-5.0,-2.0,-1.0,1651067457958646.0,3
1718,-3.0,0.0,3.0,-1.0,1.0,0.0,0.0,-2.0,1651067457971792.0,3
1719,4.0,5.0,4.0,16.0,11.0,5.0,1.0,4.0,1651067457971792.0,3
1720,-2.0,-4.0,-6.0,-2.0,-6.0,-5.0,-3.0,-5.0,1651067457972721.0,3
1721,-2.0,-1.0,-3.0,-10.0,0.0,-2.0,3.0,3.0,1651067457972721.0,3
1722,1.0,2.0,0.0,8.0,0.0,-2.0,-2.0,-1.0,1651067457995931.0,3
1723,-6.0,-6.0,-3.0,-2.0,-4.0,-1.0,-2.0,-2.0,1651067457995931.0,3
1724,1.0,-1.0,-5.0,-14.0,-3.0,-3.0,-2.0,1.0,1651067457996863.0,3
1725,-2.0,-2.0,-3.0,-4.0,3.0,0.0,0.0,-1.0,1651067457996863.0,3
1726,3.0,2.0,6.0,16.0,0.0,3.0,1.0,2.0,1651067458017850.0,3
1727,-1.0,-2.0,-9.0,-24.0,-8.0,-2.0,-3.0,-2.0,1651067458017850.0,3
1728,0.0,-1.0,4.0,23.0,0.0,-2.0,-2.0,-1.0,1651067458018782.0,3
1729,-3.0,-8.0,-3.0,-9.0,1.0,0.0,-1.0,-1.0,1651067458018782.0,3
1730,2.0,0.0,-4.0,-25.0,-8.0,-1.0,1.0,-1.0,1651067458032589.0,3
1731,1.0,0.0,3.0,13.0,2.0,0.0,-1.0,-2.0,1651067458032589.0,3
1732,-1.0,1.0,0.0,2.0,-1.0,0.0,-4.0,-1.0,1651067458032589.0,3
1733,0.0,2.0,4.0,20.0,2.0,-2.0,-4.0,-1.0,1651067458032589.0,3
1734,0.0,-1.0,-2.0,-12.0,3.0,5.0,6.0,4.0,1651067458055358.0,3
1735,-3.0,-2.0,-2.0,-2.0,-5.0,-3.0,-6.0,-4.0,1651067458055358.0,3
1736,2.0,0.0,0.0,-1.0,0.0,2.0,8.0,7.0,1651067458056386.0,3
1737,0.0,-1.0,-2.0,0.0,0.0,0.0,-2.0,-2.0,1651067458056386.0,3
1738,0.0,1.0,2.0,3.0,2.0,0.0,-1.0,0.0,1651067458077752.0,3
1739,0.0,0.0,-2.0,-2.0,-4.0,-3.0,-3.0,-3.0,1651067458077752.0,3
1740,-2.0,-2.0,0.0,-7.0,-2.0,-1.0,-2.0,-2.0,1651067458078683.0,3
1741,0.0,-2.0,-1.0,13.0,3.0,-1.0,0.0,-1.0,1651067458078683.0,3
1742,0.0,0.0,1.0,-6.0,-4.0,0.0,0.0,3.0,1651067458091838.0,3
1743,0.0,0.0,0.0,-2.0,0.0,-1.0,0.0,1.0,1651067458091838.0,3
1744,-2.0,-3.0,2.0,3.0,2.0,-1.0,2.0,0.0,1651067458092770.0,3
1745,0.0,-1.0,-7.0,-11.0,-4.0,1.0,1.0,0.0,1651067458092770.0,3
1746,1.0,2.0,3.0,-4.0,-1.0,-1.0,-1.0,-1.0,1651067458115128.0,3
1747,-1.0,2.0,-1.0,17.0,5.0,1.0,-1.0,0.0,1651067458115128.0,3
1748,-2.0,-2.0,2.0,4.0,2.0,-1.0,-2.0,-3.0,1651067458116058.0,3
1749,0.0,0.0,-2.0,-8.0,-3.0,0.0,0.0,-1.0,1651067458116058.0,3
1750,-1.0,-2.0,-6.0,-9.0,-6.0,-3.0,-1.0,-2.0,1651067458138119.0,3
1751,-2.0,0.0,-1.0,-1.0,0.0,-1.0,-1.0,0.0,1651067458138119.0,3
1752,-1.0,-1.0,-3.0,1.0,0.0,-2.0,-1.0,0.0,1651067458139113.0,3
1753,-2.0,-1.0,-1.0,0.0,2.0,3.0,1.0,-4.0,1651067458139113.0,3
1754,0.0,0.0,1.0,2.0,-4.0,0.0,-1.0,0.0,1651067458152259.0,3
1755,-3.0,-2.0,1.0,2.0,3.0,1.0,3.0,0.0,1651067458152259.0,3
1756,1.0,0.0,-1.0,6.0,1.0,2.0,1.0,0.0,1651067458153190.0,3
1757,-1.0,0.0,-2.0,-8.0,-3.0,-3.0,-2.0,0.0,1651067458153190.0,3
1758,2.0,1.0,2.0,3.0,-1.0,-2.0,-1.0,1.0,1651067458175285.0,3
1759,0.0,2.0,3.0,6.0,1.0,2.0,0.0,0.0,1651067458175285.0,3
1760,1.0,-2.0,-2.0,-4.0,-1.0,-2.0,-2.0,-2.0,1651067458176218.0,3
1761,-2.0,-2.0,-1.0,-5.0,-3.0,-1.0,1.0,-1.0,1651067458176218.0,3
1762,-1.0,-1.0,-3.0,4.0,4.0,4.0,2.0,0.0,1651067458198392.0,3
1763,-2.0,-2.0,0.0,-2.0,-3.0,-4.0,-3.0,0.0,1651067458198392.0,3
1764,-1.0,1.0,0.0,0.0,1.0,-1.0,0.0,1.0,1651067458198392.0,3
1765,0.0,0.0,0.0,3.0,0.0,-3.0,-1.0,0.0,1651067458198392.0,3
1766,-2.0,1.0,1.0,3.0,-1.0,-1.0,0.0,0.0,1651067458212381.0,3
1767,1.0,-1.0,-2.0,-12.0,1.0,-1.0,-2.0,-2.0,1651067458212381.0,3
1768,-2.0,-2.0,-7.0,-8.0,-6.0,-2.0,1.0,0.0,1651067458213313.0,3
1769,-1.0,1.0,3.0,2.0,2.0,-1.0,-1.0,-1.0,1651067458213313.0,3
1770,0.0,-2.0,1.0,-2.0,-3.0,-5.0,-4.0,-1.0,1651067458235634.0,3
1771,-1.0,0.0,2.0,10.0,3.0,4.0,-1.0,0.0,1651067458235634.0,3
1772,0.0,-1.0,-1.0,-3.0,-3.0,2.0,3.0,0.0,1651067458236583.0,3
1773,0.0,-2.0,-2.0,0.0,0.0,0.0,-1.0,-1.0,1651067458236583.0,3
1774,2.0,0.0,1.0,2.0,-4.0,-2.0,3.0,4.0,1651067458257591.0,3
1775,-1.0,-1.0,-6.0,-7.0,-3.0,-4.0,-5.0,-3.0,1651067458257591.0,3
1776,0.0,2.0,1.0,0.0,-1.0,2.0,2.0,0.0,1651067458259520.0,3
1777,1.0,0.0,0.0,2.0,1.0,0.0,-1.0,1.0,1651067458259520.0,3
1778,-2.0,0.0,-1.0,-1.0,0.0,1.0,-2.0,-2.0,1651067458271496.0,3
1779,0.0,0.0,-2.0,-1.0,-3.0,-2.0,1.0,-2.0,1651067458271496.0,3
1780,0.0,0.0,-2.0,2.0,2.0,0.0,0.0,-2.0,1651067458280206.0,3
1781,0.0,0.0,-1.0,1.0,-1.0,-2.0,-2.0,-1.0,1651067458280206.0,3
1782,-2.0,-2.0,-1.0,-7.0,-4.0,-1.0,-3.0,-2.0,1651067458295675.0,3
1783,-2.0,-2.0,0.0,3.0,1.0,-2.0,-2.0,0.0,1651067458295675.0,3
1784,0.0,-1.0,1.0,2.0,0.0,0.0,0.0,-2.0,1651067458296675.0,3
1785,0.0,0.0,-2.0,0.0,2.0,4.0,0.0,0.0,1651067458296675.0,3
1786,1.0,0.0,3.0,-3.0,-2.0,-1.0,-1.0,0.0,1651067458317684.0,3
1787,1.0,-1.0,2.0,12.0,0.0,0.0,0.0,0.0,1651067458317684.0,3
1788,0.0,0.0,-3.0,-25.0,-4.0,-1.0,0.0,1.0,1651067458319610.0,3
1789,-1.0,-2.0,4.0,17.0,4.0,-1.0,-1.0,0.0,1651067458319610.0,3
1790,0.0,1.0,-2.0,1.0,2.0,-1.0,2.0,0.0,1651067458331684.0,3
1791,-1.0,0.0,-1.0,-5.0,-3.0,0.0,-1.0,-3.0,1651067458331684.0,3
1792,0.0,2.0,6.0,11.0,5.0,-3.0,-1.0,3.0,1651067458340229.0,3
1793,1.0,-2.0,-5.0,-6.0,-2.0,2.0,3.0,1.0,1651067458340229.0,3
1794,-1.0,-2.0,-1.0,-4.0,-2.0,1.0,0.0,-3.0,1651067458356255.0,3
1795,0.0,0.0,0.0,2.0,-4.0,-2.0,1.0,2.0,1651067458356255.0,3
1796,-2.0,-2.0,-2.0,-3.0,-7.0,-4.0,-4.0,-2.0,1651067458357187.0,3
1797,-2.0,-1.0,-1.0,3.0,2.0,-2.0,-1.0,0.0,1651067458357187.0,3
1798,-1.0,-1.0,-1.0,4.0,4.0,2.0,1.0,2.0,1651067458378317.0,3
1799,0.0,-2.0,-2.0,-8.0,-2.0,-1.0,0.0,-1.0,1651067458378317.0,3
1800,-2.0,0.0,1.0,1.0,0.0,0.0,-2.0,-1.0,1651067458379288.0,3
1801,-1.0,0.0,1.0,-2.0,-3.0,-3.0,-2.0,0.0,1651067458379288.0,3
1802,0.0,-2.0,-1.0,-2.0,1.0,1.0,0.0,-1.0,1651067458391441.0,3
1803,1.0,0.0,1.0,-1.0,-1.0,3.0,3.0,0.0,1651067458391441.0,3
1804,-1.0,-1.0,-1.0,8.0,0.0,-9.0,-3.0,-2.0,1651067458400352.0,3
1805,-2.0,-1.0,3.0,-2.0,-2.0,0.0,1.0,0.0,1651067458400352.0,3
1806,-2.0,-1.0,-4.0,0.0,-1.0,-1.0,-1.0,0.0,1651067458415377.0,3
1807,0.0,-2.0,0.0,-4.0,-2.0,-2.0,-3.0,1.0,1651067458415377.0,3
1808,-1.0,-3.0,0.0,4.0,1.0,0.0,0.0,0.0,1651067458417333.0,3
1809,0.0,-1.0,-3.0,-5.0,1.0,2.0,1.0,0.0,1651067458417333.0,3
1810,-1.0,-2.0,1.0,1.0,0.0,-2.0,-4.0,-3.0,1651067458437566.0,3
1811,1.0,0.0,0.0,1.0,-3.0,-3.0,-2.0,0.0,1651067458437566.0,3
1812,1.0,1.0,-1.0,-6.0,1.0,1.0,3.0,6.0,1651067458439555.0,3
1813,-1.0,-2.0,-2.0,-6.0,-8.0,-3.0,-1.0,0.0,1651067458439555.0,3
1814,0.0,0.0,1.0,5.0,0.0,-1.0,1.0,-1.0,1651067458451657.0,3
1815,-1.0,0.0,-1.0,-2.0,3.0,0.0,0.0,1.0,1651067458451657.0,3
1816,-1.0,-1.0,0.0,3.0,3.0,3.0,-1.0,-2.0,1651067458460634.0,3
1817,2.0,0.0,0.0,0.0,1.0,1.0,-1.0,1.0,1651067458460634.0,3
1818,1.0,-1.0,-2.0,0.0,-2.0,-1.0,0.0,1.0,1651067458475448.0,3
1819,-1.0,-1.0,-2.0,-2.0,0.0,-2.0,0.0,0.0,1651067458475448.0,3
1820,-1.0,-1.0,-1.0,1.0,-1.0,1.0,-2.0,-3.0,1651067458477379.0,3
1821,1.0,-1.0,-2.0,-3.0,-1.0,3.0,2.0,-1.0,1651067458477379.0,3
1822,-1.0,-1.0,4.0,2.0,0.0,-2.0,-4.0,-1.0,1651067458497513.0,3
1823,0.0,0.0,-1.0,-1.0,-2.0,-2.0,-4.0,-1.0,1651067458497513.0,3
1824,0.0,-1.0,0.0,0.0,0.0,5.0,4.0,2.0,1651067458499444.0,3
1825,-1.0,0.0,0.0,0.0,2.0,0.0,-1.0,-1.0,1651067458499444.0,3
1826,-1.0,1.0,-2.0,-1.0,-1.0,1.0,0.0,0.0,1651067458511603.0,3
1827,-3.0,-2.0,-2.0,-2.0,-1.0,-3.0,0.0,-1.0,1651067458511603.0,3
1828,-1.0,2.0,0.0,1.0,-1.0,-3.0,-4.0,-1.0,1651067458520512.0,3
1829,1.0,-1.0,-1.0,-1.0,-1.0,0.0,2.0,0.0,1651067458520512.0,3
1830,1.0,-1.0,1.0,2.0,2.0,4.0,2.0,1.0,1651067458535637.0,3
1831,0.0,0.0,0.0,5.0,-3.0,0.0,1.0,1.0,1651067458535637.0,0
1832,-1.0,-3.0,-3.0,-3.0,-5.0,-3.0,-1.0,-1.0,1651067458536600.0,0
1833,0.0,-1.0,1.0,0.0,0.0,0.0,0.0,0.0,1651067458536600.0,0
1834,-2.0,0.0,2.0,-1.0,1.0,-1.0,-1.0,0.0,1651067458558431.0,0
1835,0.0,-2.0,-2.0,-3.0,0.0,2.0,2.0,-1.0,1651067458558431.0,0
1836,-1.0,-1.0,0.0,3.0,1.0,0.0,-1.0,-2.0,1651067458559434.0,0
1837,-1.0,1.0,-2.0,-7.0,-5.0,-3.0,-2.0,-1.0,1651067458559434.0,0
1838,1.0,2.0,0.0,7.0,4.0,0.0,0.0,3.0,1651067458580787.0,0
1839,0.0,0.0,0.0,2.0,-1.0,0.0,-2.0,-1.0,1651067458580787.0,0
1840,-1.0,-1.0,-1.0,-3.0,-2.0,3.0,3.0,0.0,1651067458581550.0,0
1841,-1.0,1.0,0.0,1.0,0.0,0.0,-1.0,0.0,1651067458581550.0,0
1842,0.0,1.0,-3.0,-4.0,-2.0,-3.0,-2.0,-2.0,1651067458595742.0,0
1843,-1.0,0.0,0.0,-3.0,-1.0,-3.0,-1.0,-1.0,1651067458595742.0,0
1844,-1.0,-1.0,-2.0,2.0,-1.0,-2.0,-1.0,-1.0,1651067458596681.0,0
1845,-1.0,-2.0,-3.0,-9.0,0.0,-3.0,0.0,-2.0,1651067458596681.0,0
1846,0.0,-1.0,0.0,2.0,-3.0,-3.0,-3.0,-2.0,1651067458617514.0,0
1847,-1.0,0.0,0.0,-2.0,-1.0,2.0,1.0,0.0,1651067458617514.0,0
1848,1.0,1.0,0.0,2.0,1.0,4.0,0.0,0.0,1651067458619440.0,0
1849,-1.0,-2.0,-1.0,1.0,-1.0,0.0,-2.0,-1.0,1651067458619440.0,0
1850,-2.0,0.0,-2.0,-5.0,0.0,-2.0,0.0,-1.0,1651067458640535.0,0
1851,-1.0,-3.0,-2.0,-2.0,-1.0,-1.0,1.0,0.0,1651067458640535.0,0
1852,0.0,-1.0,-4.0,-4.0,0.0,-1.0,-1.0,-1.0,1651067458641533.0,0
1853,0.0,1.0,2.0,6.0,0.0,-4.0,-2.0,-1.0,1651067458641533.0,0
1854,0.0,0.0,0.0,-3.0,-3.0,3.0,1.0,0.0,1651067458655498.0,0
1855,-1.0,0.0,0.0,1.0,-2.0,0.0,1.0,1.0,1651067458655498.0,0
1856,0.0,-2.0,-1.0,2.0,2.0,0.0,-1.0,-1.0,1651067458656522.0,0
1857,0.0,-1.0,0.0,2.0,2.0,1.0,1.0,1.0,1651067458656522.0,0
1858,1.0,-3.0,-2.0,-1.0,1.0,-1.0,1.0,-1.0,1651067458677573.0,0
1859,0.0,0.0,0.0,-4.0,0.0,0.0,-2.0,0.0,1651067458677573.0,0
1860,-3.0,-1.0,-1.0,1.0,-4.0,-5.0,-2.0,-1.0,1651067458679581.0,0
1861,0.0,0.0,-1.0,-9.0,-3.0,-2.0,0.0,-1.0,1651067458679581.0,0
1862,-1.0,-2.0,-1.0,1.0,-1.0,-1.0,0.0,-1.0,1651067458700636.0,0
1863,-1.0,-1.0,-1.0,4.0,3.0,0.0,0.0,0.0,1651067458700636.0,0
1864,-1.0,-1.0,1.0,-1.0,0.0,0.0,-2.0,-1.0,1651067458701623.0,0
1865,-1.0,-1.0,0.0,2.0,0.0,-1.0,-3.0,0.0,1651067458701623.0,0
1866,-1.0,0.0,-3.0,-5.0,-2.0,0.0,1.0,0.0,1651067458715478.0,0
1867,-1.0,-1.0,-2.0,-1.0,3.0,3.0,0.0,-2.0,1651067458715478.0,0
1868,-1.0,0.0,2.0,0.0,-1.0,-1.0,1.0,-1.0,1651067458716505.0,0
1869,0.0,-2.0,-1.0,1.0,-1.0,-1.0,-2.0,0.0,1651067458716505.0,0
1870,2.0,1.0,1.0,4.0,1.0,-3.0,-3.0,1.0,1651067458736662.0,0
1871,-1.0,-1.0,2.0,0.0,-3.0,-2.0,-2.0,-2.0,1651067458736662.0,0
1872,-1.0,0.0,-1.0,1.0,0.0,3.0,2.0,0.0,1651067458745641.0,0
1873,-2.0,-1.0,0.0,0.0,2.0,2.0,1.0,-2.0,1651067458745641.0,0
1874,-2.0,-1.0,-3.0,-3.0,-3.0,-2.0,-2.0,-1.0,1651067458760784.0,0
1875,0.0,0.0,-2.0,-1.0,-2.0,-2.0,-2.0,0.0,1651067458760784.0,0
1876,-1.0,-1.0,-1.0,-3.0,0.0,-1.0,-4.0,0.0,1651067458761714.0,0
1877,0.0,-1.0,-1.0,1.0,2.0,4.0,2.0,1.0,1651067458761714.0,0
1878,-1.0,-2.0,-3.0,-2.0,-6.0,-7.0,-3.0,-2.0,1651067458774677.0,0
1879,0.0,1.0,4.0,0.0,4.0,-1.0,0.0,-1.0,1651067458774677.0,0
1880,1.0,-1.0,0.0,-3.0,-2.0,0.0,2.0,1.0,1651067458781675.0,0
1881,-1.0,0.0,0.0,1.0,0.0,1.0,-1.0,-1.0,1651067458781675.0,0
1882,-1.0,-2.0,-1.0,-2.0,-3.0,0.0,-1.0,1.0,1651067458797700.0,0
1883,-2.0,-1.0,-2.0,-5.0,-2.0,-3.0,-1.0,-3.0,1651067458797700.0,0
1884,-2.0,-2.0,-2.0,1.0,0.0,0.0,-1.0,-1.0,1651067458799629.0,0
1885,-2.0,-2.0,0.0,3.0,0.0,-4.0,-3.0,0.0,1651067458799629.0,0
1886,1.0,0.0,0.0,0.0,2.0,-1.0,1.0,0.0,1651067458820752.0,0
1887,1.0,0.0,0.0,2.0,-7.0,-3.0,-2.0,1.0,1651067458820752.0,0
1888,0.0,-1.0,-1.0,0.0,2.0,0.0,-2.0,-1.0,1651067458821684.0,0
1889,1.0,0.0,-1.0,3.0,0.0,2.0,3.0,0.0,1651067458821684.0,0
1890,-2.0,-2.0,-4.0,-3.0,1.0,0.0,-1.0,-1.0,1651067458834712.0,0
1891,-1.0,1.0,2.0,3.0,2.0,0.0,0.0,0.0,1651067458834712.0,0
1892,-1.0,0.0,-2.0,1.0,-1.0,-2.0,-2.0,-2.0,1651067458841686.0,0
1893,0.0,0.0,-2.0,-1.0,-2.0,-2.0,-1.0,-1.0,1651067458841686.0,0
1894,0.0,1.0,0.0,-3.0,2.0,3.0,3.0,0.0,1651067458857762.0,0
1895,1.0,0.0,0.0,4.0,1.0,3.0,2.0,0.0,1651067458857762.0,0
1896,-2.0,-2.0,-3.0,-5.0,-5.0,-3.0,-2.0,0.0,1651067458859715.0,0
1897,-2.0,-2.0,-1.0,-4.0,-1.0,-2.0,-2.0,-2.0,1651067458859715.0,0
1898,-3.0,0.0,0.0,0.0,-1.0,0.0,0.0,-1.0,1651067458880568.0,0
1899,3.0,1.0,1.0,-2.0,3.0,6.0,2.0,1.0,1651067458880568.0,0
1900,-1.0,1.0,-2.0,-1.0,-1.0,-3.0,-1.0,-2.0,1651067458881529.0,0
1901,3.0,0.0,-1.0,5.0,2.0,0.0,1.0,2.0,1651067458881529.0,0
1902,0.0,1.0,1.0,1.0,0.0,0.0,-1.0,-1.0,1651067458894531.0,0
1903,-2.0,-3.0,-1.0,-2.0,-2.0,-4.0,-1.0,-2.0,1651067458894531.0,0
1904,1.0,1.0,3.0,1.0,3.0,2.0,1.0,1.0,1651067458901513.0,0
1905,0.0,-1.0,-3.0,-5.0,-3.0,-1.0,-1.0,-2.0,1651067458901513.0,0
1906,0.0,0.0,3.0,5.0,2.0,1.0,-2.0,-2.0,1651067458917717.0,0
1907,0.0,1.0,-3.0,-2.0,-3.0,-5.0,-2.0,-1.0,1651067458917717.0,0
1908,-1.0,0.0,0.0,0.0,-2.0,0.0,0.0,1.0,1651067458919668.0,0
1909,-1.0,-1.0,0.0,-1.0,-1.0,-1.0,-1.0,1.0,1651067458919668.0,0
1910,1.0,-1.0,-2.0,-4.0,-3.0,-1.0,-2.0,-2.0,1651067458940741.0,0
1911,1.0,-2.0,-1.0,-4.0,-1.0,-1.0,-1.0,0.0,1651067458940741.0,0
1912,0.0,-2.0,1.0,2.0,1.0,2.0,1.0,1.0,1651067458941672.0,0
1913,-2.0,0.0,-1.0,3.0,3.0,0.0,-1.0,-1.0,1651067458941672.0,0
1914,0.0,-2.0,-4.0,-9.0,-3.0,-1.0,2.0,-1.0,1651067458954530.0,0
1915,-1.0,-1.0,-3.0,-2.0,-1.0,0.0,0.0,0.0,1651067458954530.0,0
1916,-1.0,0.0,-1.0,-3.0,-2.0,-3.0,-1.0,-2.0,1651067458961580.0,0
1917,1.0,0.0,2.0,0.0,-3.0,-5.0,-2.0,2.0,1651067458961580.0,0
1918,-1.0,-1.0,1.0,7.0,3.0,3.0,3.0,1.0,1651067458977602.0,0
1919,-2.0,0.0,0.0,-7.0,-1.0,2.0,1.0,1.0,1651067458977602.0,0
1920,0.0,-3.0,-1.0,3.0,1.0,0.0,1.0,-1.0,1651067458979531.0,0
1921,-1.0,-1.0,-1.0,-4.0,2.0,0.0,-2.0,-2.0,1651067458979531.0,0
1922,0.0,0.0,0.0,-2.0,-3.0,-5.0,-4.0,-1.0,1651067459000660.0,0
1923,0.0,1.0,0.0,-1.0,2.0,3.0,1.0,1.0,1651067459000660.0,0
1924,-1.0,0.0,-1.0,-1.0,-3.0,-2.0,0.0,1.0,1651067459001589.0,0
1925,-2.0,0.0,1.0,3.0,2.0,2.0,-1.0,-1.0,1651067459001589.0,0
1926,0.0,-1.0,-1.0,-1.0,-1.0,6.0,0.0,-1.0,1651067459014529.0,0
1927,-3.0,-2.0,0.0,3.0,1.0,1.0,2.0,-4.0,1651067459014529.0,0
1928,0.0,0.0,-1.0,-1.0,2.0,1.0,-1.0,-1.0,1651067459021578.0,0
1929,1.0,0.0,2.0,2.0,-2.0,-3.0,-1.0,-2.0,1651067459021578.0,0
1930,-1.0,0.0,-3.0,-13.0,-8.0,-8.0,-2.0,1.0,1651067459037594.0,0
1931,2.0,-1.0,3.0,4.0,2.0,6.0,1.0,2.0,1651067459037594.0,0
1932,1.0,0.0,2.0,2.0,9.0,2.0,2.0,-1.0,1651067459039524.0,0
