,EMG_s0,EMG_s1,EMG_s2,EMG_s3,EMG_s4,EMG_s5,EMG_s6,EMG_s7,timestamp,signal
0,-1.0,-2.0,-3.0,2.0,6.0,0.0,1.0,0.0,1651067576952202.0,0
1,-1.0,-2.0,-1.0,-3.0,-6.0,-2.0,0.0,-3.0,1651067576952202.0,0
2,1.0,-2.0,0.0,0.0,2.0,-4.0,-2.0,-1.0,1651067576966428.0,0
3,0.0,1.0,-2.0,0.0,-1.0,4.0,0.0,0.0,1651067576966428.0,0
4,-1.0,1.0,0.0,1.0,-9.0,-4.0,-3.0,0.0,1651067576967369.0,0
5,-2.0,-1.0,-1.0,-2.0,-3.0,0.0,-2.0,-1.0,1651067576967369.0,0
6,0.0,0.0,-1.0,0.0,10.0,-2.0,-2.0,0.0,1651067576989615.0,0
7,0.0,0.0,-2.0,-4.0,-14.0,-4.0,2.0,0.0,1651067576989615.0,0
8,1.0,0.0,1.0,2.0,3.0,3.0,0.0,0.0,1651067576990579.0,0
9,0.0,0.0,-2.0,0.0,7.0,0.0,1.0,-1.0,1651067576990579.0,0
10,0.0,1.0,3.0,-1.0,-6.0,-2.0,1.0,-1.0,1651067577011637.0,0
11,-1.0,-3.0,-5.0,-2.0,1.0,-5.0,-3.0,1.0,1651067577011637.0,0
12,-1.0,0.0,-1.0,-3.0,-2.0,1.0,1.0,0.0,1651067577012636.0,0
13,1.0,0.0,-2.0,0.0,5.0,4.0,0.0,0.0,1651067577012636.0,0
14,-1.0,1.0,2.0,-2.0,-8.0,-5.0,-3.0,-2.0,1651067577026670.0,0
15,0.0,1.0,2.0,5.0,6.0,0.0,-1.0,-3.0,1651067577026670.0,0
16,0.0,1.0,1.0,0.0,2.0,5.0,1.0,0.0,1651067577027670.0,0
17,-1.0,1.0,0.0,-3.0,-6.0,-3.0,0.0,0.0,1651067577027670.0,0
18,-2.0,-3.0,-2.0,0.0,4.0,1.0,0.0,0.0,1651067577049814.0,0
19,-1.0,-1.0,0.0,-1.0,0.0,-2.0,-1.0,0.0,1651067577049814.0,0
20,0.0,0.0,-1.0,-1.0,-10.0,-2.0,-1.0,-1.0,1651067577049814.0,0
21,-1.0,-3.0,-2.0,2.0,13.0,1.0,-2.0,-3.0,1651067577049814.0,0
22,0.0,-1.0,-2.0,-3.0,-8.0,0.0,2.0,2.0,1651067577072364.0,0
23,-2.0,-2.0,-1.0,2.0,-1.0,-3.0,-3.0,-2.0,1651067577072364.0,0
24,-2.0,-1.0,-3.0,-4.0,-5.0,-2.0,-1.0,1.0,1651067577072364.0,0
25,1.0,3.0,2.0,3.0,-1.0,-2.0,-1.0,-2.0,1651067577072364.0,0
26,-1.0,-3.0,-1.0,0.0,-2.0,-2.0,-2.0,-1.0,1651067577087365.0,0
27,1.0,-2.0,-3.0,-3.0,0.0,-1.0,2.0,1.0,1651067577087365.0,0
28,-2.0,-1.0,-2.0,-1.0,-1.0,-2.0,-1.0,-1.0,1651067577087365.0,0
29,-1.0,0.0,2.0,0.0,3.0,4.0,1.0,1.0,1651067577087365.0,0
30,-2.0,-3.0,-5.0,-4.0,-9.0,-6.0,-4.0,-2.0,1651067577109480.0,0
31,0.0,0.0,0.0,1.0,6.0,5.0,3.0,1.0,1651067577109480.0,0
32,-1.0,-1.0,-1.0,0.0,-1.0,-3.0,-1.0,0.0,1651067577110467.0,0
33,-1.0,-2.0,-1.0,1.0,7.0,9.0,2.0,1.0,1651067577110467.0,0
34,0.0,0.0,2.0,0.0,-1.0,-2.0,-1.0,-1.0,1651067577132311.0,0
35,0.0,-1.0,0.0,1.0,-6.0,-4.0,-3.0,-1.0,1651067577132311.0,0
36,0.0,1.0,-1.0,0.0,2.0,0.0,-2.0,-2.0,1651067577132311.0,0
37,-1.0,-2.0,-1.0,-3.0,0.0,-2.0,-2.0,-2.0,1651067577132311.0,0
38,-1.0,2.0,0.0,-1.0,0.0,2.0,0.0,2.0,1651067577147271.0,0
39,-1.0,0.0,-1.0,-2.0,-2.0,0.0,-1.0,-1.0,1651067577147271.0,0
40,2.0,3.0,4.0,5.0,7.0,4.0,4.0,1.0,1651067577147271.0,0
41,-1.0,-2.0,-6.0,-2.0,-5.0,-3.0,-1.0,-2.0,1651067577147271.0,0
42,-1.0,1.0,-1.0,0.0,5.0,1.0,-1.0,0.0,1651067577169647.0,0
43,-3.0,1.0,4.0,-1.0,-7.0,-2.0,0.0,-1.0,1651067577169647.0,0
44,-1.0,0.0,-1.0,-1.0,7.0,4.0,1.0,0.0,1651067577170621.0,0
45,1.0,1.0,-2.0,-1.0,-3.0,0.0,-1.0,-1.0,1651067577170621.0,0
46,-1.0,-1.0,-1.0,-1.0,-2.0,2.0,1.0,-3.0,1651067577191957.0,0
47,-1.0,0.0,0.0,0.0,4.0,2.0,1.0,0.0,1651067577191957.0,0
48,-2.0,-1.0,-2.0,-2.0,0.0,-5.0,-1.0,-1.0,1651067577192887.0,0
49,-1.0,0.0,2.0,1.0,3.0,2.0,1.0,1.0,1651067577192887.0,0
50,1.0,0.0,-2.0,1.0,-2.0,-3.0,-1.0,-1.0,1651067577206428.0,0
51,-1.0,1.0,2.0,2.0,-1.0,2.0,-1.0,0.0,1651067577206428.0,0
52,-2.0,-1.0,0.0,1.0,-4.0,-4.0,-3.0,-1.0,1651067577214228.0,0
53,-2.0,0.0,-1.0,-1.0,1.0,2.0,2.0,1.0,1651067577214228.0,0
54,-2.0,1.0,2.0,-1.0,-2.0,-1.0,0.0,0.0,1651067577229258.0,0
55,3.0,1.0,0.0,1.0,4.0,1.0,1.0,0.0,1651067577229258.0,0
56,1.0,0.0,-1.0,-2.0,2.0,-1.0,-1.0,-1.0,1651067577230188.0,0
57,-1.0,-2.0,-1.0,-1.0,-1.0,-2.0,-2.0,0.0,1651067577230188.0,0
58,0.0,0.0,0.0,-1.0,-3.0,-3.0,-1.0,0.0,1651067577252328.0,0
59,0.0,1.0,0.0,0.0,1.0,2.0,-1.0,0.0,1651067577252328.0,0
60,-1.0,-2.0,-5.0,-2.0,-5.0,-4.0,-1.0,0.0,1651067577252328.0,0
61,0.0,2.0,7.0,2.0,-5.0,-2.0,-1.0,-1.0,1651067577252328.0,0
62,0.0,-2.0,0.0,-1.0,6.0,1.0,-1.0,0.0,1651067577267052.0,0
63,1.0,-2.0,-2.0,-1.0,1.0,6.0,2.0,1.0,1651067577267052.0,0
64,-1.0,1.0,-2.0,1.0,-2.0,-3.0,-3.0,-3.0,1651067577267983.0,0
65,-2.0,0.0,-1.0,-5.0,-10.0,-6.0,-2.0,0.0,1651067577267983.0,0
66,0.0,-2.0,0.0,1.0,5.0,1.0,2.0,0.0,1651067577289037.0,0
67,-2.0,-1.0,1.0,-1.0,-1.0,-4.0,-1.0,-2.0,1651067577289037.0,0
68,1.0,-1.0,0.0,-4.0,-4.0,0.0,1.0,0.0,1651067577290011.0,0
69,-1.0,0.0,-1.0,2.0,3.0,4.0,2.0,-1.0,1651067577290011.0,0
70,-1.0,-1.0,-1.0,-3.0,-9.0,-6.0,-3.0,-1.0,1651067577320149.0,0
71,-1.0,-1.0,-3.0,-1.0,2.0,3.0,0.0,0.0,1651067577320149.0,0
72,-1.0,1.0,0.0,1.0,6.0,-1.0,0.0,0.0,1651067577321107.0,0
73,0.0,0.0,-1.0,0.0,-3.0,-4.0,-1.0,-2.0,1651067577321107.0,0
74,-1.0,-1.0,0.0,0.0,-2.0,1.0,2.0,2.0,1651067577326080.0,0
75,-2.0,-2.0,-1.0,-2.0,-4.0,-3.0,0.0,-1.0,1651067577326080.0,0
76,-1.0,-2.0,-3.0,1.0,1.0,7.0,0.0,-1.0,1651067577334113.0,0
77,0.0,0.0,-1.0,-2.0,-1.0,-3.0,-3.0,0.0,1651067577334113.0,0
78,-1.0,0.0,-2.0,0.0,2.0,1.0,1.0,-1.0,1651067577349026.0,0
79,0.0,0.0,1.0,-2.0,-3.0,-4.0,-1.0,0.0,1651067577349026.0,0
80,-1.0,-1.0,0.0,-3.0,-3.0,1.0,-2.0,-2.0,1651067577349964.0,0
81,0.0,-1.0,-3.0,-1.0,-6.0,-3.0,1.0,-2.0,1651067577349964.0,0
82,-1.0,0.0,-2.0,4.0,16.0,12.0,1.0,0.0,1651067577371645.0,0
83,-3.0,-1.0,-2.0,-4.0,-4.0,-4.0,-1.0,-2.0,1651067577371645.0,0
84,1.0,-2.0,3.0,0.0,1.0,0.0,0.0,0.0,1651067577372577.0,0
85,0.0,0.0,-1.0,1.0,-6.0,-3.0,-2.0,0.0,1651067577372577.0,0
86,0.0,-1.0,-1.0,-3.0,-7.0,-2.0,-2.0,-1.0,1651067577386605.0,0
87,0.0,-3.0,-2.0,1.0,1.0,2.0,-2.0,1.0,1651067577386605.0,0
88,0.0,1.0,0.0,0.0,5.0,1.0,1.0,0.0,1651067577393587.0,0
89,1.0,-1.0,0.0,-1.0,4.0,0.0,0.0,1.0,1651067577393587.0,0
90,1.0,0.0,1.0,1.0,-2.0,-2.0,-1.0,0.0,1651067577409805.0,0
91,1.0,0.0,-1.0,-2.0,-3.0,0.0,0.0,-2.0,1651067577409805.0,0
92,0.0,-1.0,-3.0,-2.0,-3.0,-3.0,0.0,-1.0,1651067577410451.0,0
93,0.0,0.0,2.0,-1.0,0.0,-1.0,0.0,-1.0,1651067577410451.0,0
94,0.0,1.0,-1.0,0.0,1.0,4.0,2.0,1.0,1651067577431445.0,0
95,0.0,1.0,1.0,-1.0,-5.0,-1.0,1.0,-1.0,1651067577431445.0,0
96,0.0,0.0,1.0,1.0,3.0,0.0,-2.0,-1.0,1651067577432447.0,0
97,0.0,-1.0,-3.0,-2.0,4.0,3.0,0.0,-1.0,1651067577432447.0,0
98,-1.0,-2.0,-4.0,-5.0,-9.0,-7.0,-1.0,-2.0,1651067577446432.0,0
99,0.0,-1.0,0.0,1.0,2.0,0.0,0.0,1.0,1651067577446432.0,0
100,0.0,1.0,-3.0,-1.0,-3.0,-3.0,-1.0,-2.0,1651067577453389.0,0
101,-3.0,-1.0,-1.0,0.0,2.0,0.0,-1.0,0.0,1651067577453389.0,0
102,-1.0,0.0,0.0,-2.0,-9.0,-4.0,1.0,0.0,1651067577469746.0,0
103,0.0,0.0,-2.0,2.0,8.0,-2.0,-1.0,-1.0,1651067577469746.0,0
104,-1.0,0.0,0.0,-1.0,0.0,3.0,2.0,2.0,1651067577469746.0,0
105,-2.0,-2.0,-2.0,-2.0,-3.0,-2.0,-2.0,-2.0,1651067577469746.0,0
106,-1.0,0.0,0.0,2.0,-2.0,-2.0,-2.0,-2.0,1651067577491784.0,0
107,-2.0,-2.0,-2.0,-4.0,-6.0,-1.0,1.0,1.0,1651067577491784.0,0
108,0.0,-3.0,-1.0,1.0,-2.0,-1.0,2.0,-1.0,1651067577492779.0,0
109,1.0,0.0,2.0,0.0,1.0,-1.0,-1.0,0.0,1651067577492779.0,0
110,1.0,0.0,2.0,0.0,0.0,-3.0,-2.0,-1.0,1651067577505921.0,0
111,2.0,0.0,0.0,-1.0,1.0,4.0,0.0,0.0,1651067577505921.0,0
112,-2.0,0.0,0.0,1.0,-3.0,-4.0,-1.0,0.0,1651067577514016.0,0
113,0.0,-1.0,1.0,0.0,2.0,5.0,1.0,0.0,1651067577514016.0,0
114,0.0,1.0,2.0,0.0,-2.0,-4.0,-1.0,0.0,1651067577529777.0,0
115,0.0,-2.0,-2.0,-1.0,1.0,0.0,0.0,0.0,1651067577529777.0,0
116,-2.0,-1.0,-2.0,-1.0,1.0,1.0,1.0,-1.0,1651067577529777.0,0
117,-1.0,0.0,0.0,2.0,-4.0,-2.0,-1.0,0.0,1651067577529777.0,0
118,-1.0,0.0,0.0,3.0,8.0,2.0,0.0,0.0,1651067577551687.0,0
119,1.0,-3.0,-2.0,2.0,5.0,12.0,0.0,0.0,1651067577551687.0,0
120,0.0,2.0,5.0,0.0,-5.0,-4.0,-4.0,-1.0,1651067577552685.0,0
121,-1.0,-3.0,-3.0,-2.0,1.0,0.0,0.0,0.0,1651067577552685.0,0
122,1.0,0.0,-2.0,-2.0,-4.0,-2.0,-1.0,-2.0,1651067577574803.0,0
123,-1.0,-2.0,0.0,1.0,5.0,-6.0,-2.0,0.0,1651067577574803.0,0
124,-1.0,-2.0,-1.0,-2.0,-3.0,1.0,2.0,0.0,1651067577574803.0,0
125,-1.0,-2.0,-4.0,0.0,3.0,0.0,-2.0,-2.0,1651067577574803.0,0
126,-1.0,-1.0,1.0,0.0,0.0,2.0,-2.0,1.0,1651067577597597.0,0
127,-1.0,1.0,-2.0,1.0,-4.0,-6.0,-2.0,-3.0,1651067577597597.0,0
128,-1.0,-1.0,-1.0,-3.0,0.0,2.0,0.0,-1.0,1651067577598528.0,0
129,0.0,0.0,2.0,1.0,4.0,2.0,2.0,0.0,1651067577598528.0,0
130,1.0,0.0,-5.0,-3.0,-4.0,-2.0,0.0,0.0,1651067577611561.0,0
131,-3.0,-1.0,1.0,2.0,-1.0,-4.0,-1.0,-3.0,1651067577611561.0,0
132,0.0,-3.0,1.0,0.0,-6.0,-3.0,-2.0,0.0,1651067577612490.0,0
133,1.0,0.0,-1.0,0.0,4.0,7.0,1.0,0.0,1651067577612490.0,0
134,0.0,-3.0,1.0,2.0,2.0,-2.0,-1.0,-1.0,1651067577634598.0,0
135,-1.0,0.0,-2.0,-2.0,-3.0,-1.0,1.0,-1.0,1651067577634598.0,0
136,-2.0,-1.0,-2.0,-1.0,-2.0,-3.0,-1.0,0.0,1651067577635529.0,0
137,-2.0,0.0,-1.0,-5.0,-10.0,-7.0,-2.0,-1.0,1651067577635529.0,0
138,-3.0,-2.0,-2.0,1.0,15.0,11.0,2.0,1.0,1651067577657686.0,0
139,0.0,1.0,3.0,0.0,-3.0,-2.0,-1.0,1.0,1651067577657686.0,0
140,0.0,-3.0,-5.0,1.0,2.0,0.0,0.0,-1.0,1651067577658648.0,0
141,-1.0,0.0,1.0,1.0,-5.0,-3.0,0.0,0.0,1651067577658648.0,0
142,-1.0,-3.0,-4.0,-3.0,-2.0,1.0,0.0,-1.0,1651067577671649.0,0
143,0.0,0.0,1.0,1.0,0.0,-2.0,0.0,0.0,1651067577671649.0,0
144,1.0,1.0,1.0,0.0,2.0,1.0,0.0,0.0,1651067577672580.0,0
145,-1.0,-1.0,-2.0,-4.0,-5.0,-2.0,-2.0,0.0,1651067577672580.0,0
146,-1.0,0.0,1.0,1.0,1.0,-2.0,0.0,0.0,1651067577694742.0,0
147,-1.0,1.0,-2.0,-5.0,-1.0,3.0,0.0,-1.0,1651067577694742.0,0
148,2.0,0.0,0.0,1.0,-8.0,-6.0,-2.0,0.0,1651067577694742.0,0
149,0.0,-1.0,-2.0,0.0,10.0,10.0,3.0,-1.0,1651067577694742.0,0
150,0.0,-1.0,2.0,0.0,-6.0,-4.0,-1.0,0.0,1651067577717318.0,0
151,0.0,-4.0,-1.0,-1.0,-1.0,1.0,1.0,1.0,1651067577717318.0,0
152,-1.0,0.0,1.0,-2.0,-2.0,-2.0,0.0,-1.0,1651067577718250.0,0
153,-1.0,0.0,0.0,0.0,-1.0,-1.0,-2.0,-1.0,1651067577718250.0,0
154,-1.0,-1.0,-3.0,0.0,-4.0,-1.0,0.0,-1.0,1651067577732278.0,0
155,-2.0,0.0,1.0,1.0,3.0,0.0,-1.0,-2.0,1651067577732278.0,0
156,-2.0,-3.0,2.0,3.0,-1.0,-1.0,-1.0,-1.0,1651067577732278.0,0
157,1.0,0.0,-1.0,1.0,2.0,-3.0,-2.0,0.0,1651067577732278.0,0
158,-1.0,1.0,-2.0,0.0,-1.0,2.0,-2.0,0.0,1651067577754555.0,0
159,1.0,-1.0,-2.0,-1.0,-4.0,-6.0,-3.0,0.0,1651067577754555.0,0
160,-1.0,-2.0,-3.0,-2.0,3.0,2.0,0.0,-1.0,1651067577755565.0,0
161,-1.0,-1.0,1.0,-1.0,-7.0,-7.0,1.0,0.0,1651067577755565.0,0
162,-1.0,-1.0,-3.0,-1.0,-1.0,2.0,0.0,-1.0,1651067577777765.0,0
163,-2.0,0.0,2.0,-1.0,2.0,-3.0,2.0,1.0,1651067577777765.0,0
164,0.0,1.0,0.0,1.0,1.0,5.0,1.0,-1.0,1651067577778722.0,0
165,-1.0,-1.0,-3.0,-1.0,-4.0,-1.0,-1.0,-1.0,1651067577778722.0,0
166,0.0,-1.0,0.0,0.0,6.0,-1.0,-3.0,-1.0,1651067577792302.0,0
167,0.0,-1.0,-3.0,-2.0,-5.0,-5.0,0.0,0.0,1651067577792302.0,0
168,0.0,1.0,0.0,0.0,1.0,1.0,0.0,-1.0,1651067577792302.0,0
169,0.0,0.0,-1.0,0.0,1.0,-1.0,1.0,-2.0,1651067577792302.0,0
170,-2.0,-1.0,1.0,-1.0,-7.0,-1.0,1.0,2.0,1651067577814426.0,0
171,-2.0,-3.0,-3.0,2.0,2.0,2.0,0.0,0.0,1651067577814426.0,0
172,0.0,0.0,0.0,-1.0,-1.0,-3.0,-3.0,1.0,1651067577815357.0,0
173,1.0,-2.0,-1.0,-1.0,0.0,-1.0,-2.0,-1.0,1651067577815357.0,0
174,-1.0,0.0,1.0,1.0,1.0,-1.0,0.0,-2.0,1651067577837365.0,0
175,-1.0,0.0,0.0,-1.0,-4.0,-2.0,-2.0,-2.0,1651067577837365.0,0
176,-2.0,-1.0,-1.0,-5.0,-7.0,-6.0,-2.0,0.0,1651067577838295.0,0
177,-2.0,-2.0,-5.0,0.0,0.0,1.0,-2.0,1.0,1651067577838295.0,0
178,1.0,-1.0,1.0,-1.0,8.0,1.0,1.0,1.0,1651067577851327.0,0
179,1.0,0.0,0.0,2.0,2.0,3.0,1.0,0.0,1651067577851327.0,0
180,0.0,-1.0,-2.0,-4.0,-7.0,-4.0,-1.0,-1.0,1651067577859247.0,0
181,0.0,0.0,-2.0,-1.0,2.0,-2.0,0.0,-1.0,1651067577859247.0,0
182,-1.0,-2.0,-1.0,-1.0,-7.0,-3.0,-1.0,0.0,1651067577874453.0,0
183,-2.0,0.0,-2.0,0.0,-4.0,-1.0,-3.0,-2.0,1651067577874453.0,0
184,-1.0,-1.0,0.0,-1.0,6.0,3.0,1.0,-1.0,1651067577875452.0,0
185,0.0,0.0,0.0,-2.0,-2.0,-1.0,1.0,1.0,1651067577875452.0,0
186,1.0,1.0,1.0,0.0,-7.0,-5.0,-2.0,0.0,1651067577897428.0,0
187,0.0,-1.0,0.0,0.0,11.0,9.0,0.0,-1.0,1651067577897428.0,0
188,1.0,1.0,-2.0,2.0,0.0,3.0,4.0,2.0,1651067577898427.0,0
189,-2.0,0.0,-2.0,0.0,2.0,1.0,-1.0,0.0,1651067577898427.0,0
190,-2.0,0.0,1.0,0.0,-4.0,-1.0,-1.0,-1.0,1651067577911454.0,0
191,-1.0,-3.0,-1.0,-3.0,-6.0,-7.0,-3.0,-1.0,1651067577911454.0,0
192,-1.0,-1.0,-3.0,0.0,3.0,1.0,-2.0,-2.0,1651067577919374.0,0
193,0.0,1.0,4.0,2.0,2.0,1.0,0.0,2.0,1651067577919374.0,0
194,0.0,-2.0,-5.0,-3.0,-5.0,-8.0,-2.0,0.0,1651067577934624.0,0
195,-1.0,1.0,0.0,-1.0,-3.0,4.0,0.0,1.0,1651067577934624.0,0
196,-1.0,-2.0,2.0,2.0,17.0,4.0,0.0,1.0,1651067577935568.0,0
197,-1.0,-2.0,2.0,-1.0,-5.0,-4.0,-3.0,-2.0,1651067577935568.0,0
198,-1.0,0.0,-1.0,-3.0,-3.0,-4.0,-1.0,-2.0,1651067577957569.0,0
199,-1.0,-1.0,0.0,-2.0,-2.0,0.0,1.0,-2.0,1651067577957569.0,0
200,-1.0,0.0,-2.0,-5.0,-12.0,-5.0,-1.0,-2.0,1651067577958498.0,0
201,-1.0,-2.0,-4.0,1.0,8.0,1.0,-1.0,0.0,1651067577958498.0,0
202,0.0,-1.0,-2.0,0.0,3.0,9.0,1.0,-1.0,1651067577971657.0,0
203,-1.0,2.0,3.0,5.0,14.0,3.0,0.0,0.0,1651067577971657.0,0
204,-2.0,-1.0,-3.0,-5.0,-5.0,-6.0,-1.0,-1.0,1651067577979599.0,0
205,-1.0,-1.0,2.0,-2.0,-9.0,1.0,-1.0,-1.0,1651067577979599.0,0
206,0.0,0.0,-1.0,-3.0,-4.0,1.0,0.0,0.0,1651067577994521.0,0
207,0.0,-2.0,-3.0,-4.0,-5.0,-4.0,-1.0,-1.0,1651067577994521.0,0
208,-1.0,-1.0,1.0,2.0,0.0,0.0,-2.0,0.0,1651067577995453.0,0
209,-2.0,1.0,-1.0,-2.0,-2.0,-1.0,-1.0,-1.0,1651067577995453.0,0
210,-2.0,0.0,-1.0,1.0,2.0,1.0,0.0,0.0,1651067578017557.0,0
211,-1.0,-1.0,-5.0,-1.0,-2.0,0.0,-2.0,-1.0,1651067578017557.0,0
212,1.0,-3.0,-1.0,1.0,0.0,-1.0,-2.0,-3.0,1651067578018488.0,0
213,0.0,-1.0,0.0,-3.0,-3.0,-2.0,1.0,-1.0,1651067578018488.0,0
214,-1.0,-1.0,-1.0,2.0,9.0,4.0,0.0,-1.0,1651067578031520.0,0
215,0.0,-1.0,1.0,-3.0,-2.0,-4.0,-1.0,-2.0,1651067578031520.0,0
216,1.0,-1.0,0.0,1.0,1.0,3.0,1.0,1.0,1651067578039499.0,0
217,0.0,-1.0,0.0,-3.0,-5.0,-5.0,-3.0,0.0,1651067578039499.0,0
218,0.0,0.0,-3.0,-1.0,6.0,4.0,0.0,1.0,1651067578054462.0,0
219,-1.0,-1.0,-2.0,-1.0,-7.0,-8.0,0.0,-1.0,1651067578054462.0,0
220,-1.0,0.0,15.0,12.0,10.0,6.0,2.0,-1.0,1651067578055390.0,0
221,1.0,0.0,-22.0,-6.0,5.0,7.0,1.0,2.0,1651067578055390.0,0
222,-2.0,0.0,11.0,-1.0,-3.0,-5.0,-2.0,-3.0,1651067578077597.0,0
223,0.0,-2.0,-3.0,-1.0,-7.0,-7.0,-3.0,-2.0,1651067578077597.0,0
224,-3.0,-2.0,-5.0,-3.0,-8.0,-3.0,-2.0,0.0,1651067578078528.0,0
225,-1.0,0.0,7.0,5.0,6.0,-2.0,-1.0,-2.0,1651067578078528.0,0
226,0.0,-2.0,-5.0,-2.0,-7.0,-5.0,-1.0,0.0,1651067578091551.0,0
227,0.0,-1.0,-1.0,0.0,9.0,12.0,4.0,1.0,1651067578091551.0,0
228,-1.0,1.0,4.0,0.0,-14.0,-7.0,-2.0,-1.0,1651067578099531.0,0
229,-3.0,0.0,1.0,2.0,10.0,-1.0,-1.0,2.0,1651067578099531.0,0
230,0.0,-1.0,-8.0,-5.0,-10.0,0.0,-1.0,-1.0,1651067578114483.0,0
231,-1.0,4.0,16.0,6.0,0.0,-3.0,-1.0,1.0,1651067578114483.0,0
232,-1.0,-1.0,0.0,-1.0,-17.0,-15.0,-8.0,-1.0,1651067578115477.0,0
233,-2.0,-5.0,-24.0,-3.0,35.0,30.0,5.0,0.0,1651067578115477.0,0
234,1.0,2.0,17.0,16.0,12.0,9.0,2.0,1.0,1651067578137472.0,1
235,-1.0,2.0,-5.0,-11.0,-9.0,2.0,0.0,0.0,1651067578137472.0,1
236,-3.0,-10.0,-27.0,-19.0,-7.0,-1.0,1.0,-1.0,1651067578138467.0,1
237,-3.0,1.0,28.0,27.0,32.0,12.0,2.0,-1.0,1651067578138467.0,1
238,3.0,-2.0,-28.0,-7.0,-14.0,-11.0,1.0,3.0,1651067578151490.0,1
239,2.0,0.0,23.0,1.0,3.0,-1.0,0.0,2.0,1651067578151490.0,1
240,2.0,4.0,2.0,-6.0,1.0,-6.0,0.0,0.0,1651067578159839.0,1
241,-2.0,0.0,-13.0,-13.0,-19.0,-11.0,-5.0,-4.0,1651067578159839.0,1
242,-3.0,3.0,9.0,8.0,9.0,3.0,0.0,1.0,1651067578174004.0,1
243,1.0,3.0,1.0,1.0,-12.0,-9.0,-2.0,-7.0,1651067578174004.0,1
244,-3.0,3.0,-6.0,3.0,9.0,4.0,1.0,2.0,1651067578175002.0,1
245,-5.0,-7.0,8.0,-2.0,-19.0,-12.0,-2.0,0.0,1651067578175002.0,1
246,-2.0,-5.0,-11.0,-8.0,6.0,6.0,-3.0,-7.0,1651067578197941.0,1
247,-2.0,-5.0,-19.0,-12.0,-16.0,-10.0,-3.0,0.0,1651067578197941.0,1
248,4.0,10.0,21.0,12.0,12.0,12.0,5.0,2.0,1651067578197941.0,1
249,1.0,4.0,0.0,-12.0,-21.0,-20.0,-4.0,-1.0,1651067578197941.0,1
250,-6.0,-8.0,-13.0,-5.0,-12.0,1.0,0.0,2.0,1651067578219741.0,1
251,2.0,-1.0,-7.0,10.0,27.0,20.0,-1.0,0.0,1651067578219741.0,1
252,2.0,-4.0,-8.0,-1.0,-4.0,-5.0,4.0,0.0,1651067578220741.0,1
253,2.0,1.0,0.0,-2.0,0.0,16.0,14.0,5.0,1651067578220741.0,1
254,-4.0,-7.0,2.0,-14.0,-36.0,-42.0,-11.0,-9.0,1651067578234761.0,1
255,4.0,-2.0,-15.0,1.0,25.0,31.0,14.0,7.0,1651067578234761.0,1
256,-3.0,6.0,20.0,10.0,0.0,-8.0,-8.0,-12.0,1651067578234761.0,1
257,1.0,-1.0,6.0,-6.0,-23.0,-9.0,-5.0,2.0,1651067578234761.0,1
258,6.0,2.0,3.0,10.0,10.0,0.0,1.0,8.0,1651067578256790.0,1
259,6.0,8.0,23.0,11.0,-10.0,-4.0,0.0,5.0,1651067578256790.0,1
260,-11.0,-14.0,-33.0,-12.0,22.0,16.0,0.0,-7.0,1651067578257783.0,1
261,1.0,-1.0,-3.0,-7.0,-27.0,-25.0,-4.0,-9.0,1651067578257783.0,1
262,2.0,6.0,11.0,0.0,8.0,9.0,-4.0,-2.0,1651067578280461.0,1
263,-9.0,-4.0,2.0,3.0,4.0,-4.0,-4.0,-8.0,1651067578280461.0,1
264,-5.0,-6.0,-9.0,-1.0,5.0,9.0,3.0,4.0,1651067578280461.0,1
265,3.0,1.0,4.0,-6.0,-5.0,-6.0,-3.0,2.0,1651067578280461.0,1
266,-4.0,-7.0,-17.0,-15.0,-8.0,-5.0,-2.0,-11.0,1651067578294490.0,1
267,5.0,4.0,0.0,3.0,7.0,7.0,6.0,4.0,1651067578294490.0,1
268,0.0,5.0,14.0,1.0,-6.0,-3.0,1.0,0.0,1651067578295422.0,1
269,-3.0,-1.0,0.0,6.0,6.0,6.0,5.0,4.0,1651067578295422.0,1
270,9.0,7.0,11.0,2.0,9.0,4.0,4.0,8.0,1651067578316787.0,1
271,0.0,-6.0,-6.0,-12.0,-22.0,-15.0,-6.0,-1.0,1651067578316787.0,1
272,2.0,10.0,28.0,25.0,0.0,0.0,1.0,-2.0,1651067578317723.0,1
273,-4.0,3.0,3.0,6.0,10.0,-1.0,-7.0,-3.0,1651067578317723.0,1
274,-10.0,6.0,18.0,27.0,36.0,26.0,3.0,-17.0,1651067578340479.0,1
275,11.0,-6.0,-17.0,-5.0,-6.0,-4.0,4.0,28.0,1651067578340479.0,1
276,0.0,-9.0,-17.0,-14.0,-12.0,-4.0,-8.0,-2.0,1651067578340479.0,1
277,-4.0,-3.0,-1.0,0.0,0.0,4.0,9.0,0.0,1651067578340479.0,1
278,-3.0,7.0,20.0,19.0,24.0,17.0,-1.0,6.0,1651067578354458.0,1
279,2.0,0.0,-7.0,-18.0,-16.0,-12.0,6.0,2.0,1651067578354458.0,1
280,-1.0,-2.0,-2.0,-4.0,-13.0,-6.0,8.0,5.0,1651067578355389.0,1
281,-6.0,8.0,18.0,20.0,22.0,23.0,9.0,-20.0,1651067578355389.0,1
282,10.0,-10.0,-27.0,-30.0,-18.0,-17.0,-2.0,11.0,1651067578376529.0,1
283,14.0,9.0,14.0,19.0,23.0,32.0,9.0,38.0,1651067578376529.0,1
284,7.0,4.0,10.0,4.0,-5.0,-5.0,-4.0,1.0,1651067578377460.0,1
285,-18.0,-18.0,-29.0,-23.0,-14.0,-19.0,-12.0,-18.0,1651067578377460.0,1
286,-5.0,-2.0,4.0,4.0,-3.0,2.0,7.0,8.0,1651067578400560.0,1
287,-10.0,-4.0,-8.0,-5.0,-10.0,-9.0,-12.0,-22.0,1651067578400560.0,1
288,23.0,14.0,8.0,11.0,42.0,9.0,2.0,15.0,1651067578400560.0,1
289,3.0,7.0,17.0,10.0,3.0,10.0,1.0,10.0,1651067578400560.0,1
290,-5.0,-11.0,-21.0,-23.0,-33.0,-27.0,-5.0,-17.0,1651067578414469.0,1
291,-16.0,-13.0,-12.0,9.0,18.0,9.0,-3.0,-18.0,1651067578414469.0,1
292,-10.0,0.0,3.0,-7.0,-9.0,3.0,-3.0,-2.0,1651067578415495.0,1
293,6.0,-4.0,-10.0,-12.0,-14.0,-15.0,-7.0,-5.0,1651067578415495.0,1
294,-1.0,2.0,11.0,4.0,-3.0,-7.0,-23.0,-7.0,1651067578437408.0,1
295,-9.0,-3.0,-3.0,6.0,7.0,-3.0,13.0,-5.0,1651067578437408.0,1
296,-1.0,-3.0,-7.0,-3.0,-6.0,-2.0,13.0,6.0,1651067578437408.0,1
297,-1.0,-3.0,-3.0,-4.0,-3.0,-1.0,3.0,-3.0,1651067578437408.0,1
298,7.0,1.0,-1.0,-7.0,-16.0,-6.0,-3.0,4.0,1651067578460499.0,1
299,0.0,2.0,6.0,-2.0,-1.0,-2.0,-2.0,2.0,1651067578460499.0,1
300,-6.0,4.0,-5.0,-9.0,-19.0,-8.0,-7.0,-9.0,1651067578460499.0,1
301,9.0,-6.0,-14.0,-14.0,-2.0,0.0,6.0,12.0,1651067578460499.0,1
302,-3.0,-4.0,-3.0,7.0,9.0,7.0,10.0,2.0,1651067578474494.0,1
303,-3.0,15.0,29.0,17.0,9.0,-6.0,-20.0,-28.0,1651067578474494.0,1
304,-4.0,-13.0,-16.0,-19.0,-26.0,-12.0,-6.0,-3.0,1651067578475425.0,1
305,12.0,9.0,6.0,13.0,16.0,30.0,3.0,7.0,1651067578475425.0,1
306,-3.0,2.0,5.0,14.0,25.0,10.0,-4.0,-5.0,1651067578497394.0,1
307,0.0,-3.0,-10.0,-24.0,-28.0,-19.0,-2.0,8.0,1651067578497394.0,1
308,-7.0,-4.0,-6.0,-6.0,-11.0,-5.0,10.0,4.0,1651067578497394.0,1
309,8.0,8.0,6.0,15.0,13.0,3.0,-5.0,3.0,1651067578497394.0,1
310,1.0,-3.0,4.0,10.0,15.0,1.0,-3.0,-18.0,1651067578519732.0,1
311,-6.0,-15.0,-16.0,-4.0,3.0,9.0,-8.0,7.0,1651067578519732.0,1
312,-5.0,-3.0,-4.0,0.0,4.0,-2.0,-6.0,-19.0,1651067578520664.0,1
313,3.0,2.0,2.0,-2.0,3.0,-7.0,-2.0,19.0,1651067578520664.0,1
314,-1.0,-8.0,-7.0,-7.0,-6.0,-3.0,6.0,11.0,1651067578534533.0,1
315,-3.0,3.0,5.0,-13.0,-24.0,-17.0,-9.0,-10.0,1651067578534533.0,1
316,-7.0,-17.0,-22.0,-3.0,1.0,-3.0,-13.0,-13.0,1651067578535464.0,1
317,-10.0,-4.0,10.0,6.0,-5.0,-4.0,9.0,8.0,1651067578535464.0,1
318,8.0,12.0,3.0,6.0,12.0,9.0,17.0,-2.0,1651067578556519.0,1
319,-9.0,-14.0,-17.0,-22.0,-34.0,-19.0,-2.0,1.0,1651067578556519.0,1
320,3.0,11.0,15.0,16.0,24.0,12.0,-1.0,2.0,1651067578557449.0,1
321,1.0,2.0,7.0,5.0,16.0,10.0,-2.0,-13.0,1651067578557449.0,1
322,-6.0,1.0,-11.0,-21.0,-18.0,-11.0,-3.0,-6.0,1651067578579649.0,1
323,10.0,8.0,16.0,17.0,22.0,11.0,1.0,12.0,1651067578579649.0,1
324,-2.0,0.0,5.0,4.0,-1.0,-9.0,-3.0,-1.0,1651067578580627.0,1
325,-5.0,-3.0,-1.0,-5.0,-21.0,-14.0,-9.0,-5.0,1651067578580627.0,1
326,1.0,7.0,13.0,16.0,30.0,25.0,13.0,9.0,1651067578594533.0,1
327,-4.0,-2.0,3.0,6.0,10.0,0.0,-1.0,-22.0,1651067578594533.0,1
328,11.0,13.0,4.0,1.0,24.0,7.0,-1.0,11.0,1651067578595491.0,1
329,-4.0,-11.0,-7.0,3.0,-18.0,-11.0,-1.0,22.0,1651067578595491.0,1
330,-6.0,-17.0,12.0,3.0,0.0,4.0,3.0,-2.0,1651067578616358.0,1
331,11.0,16.0,5.0,12.0,14.0,3.0,1.0,9.0,1651067578616358.0,1
332,2.0,-20.0,-23.0,-32.0,-38.0,-13.0,-10.0,-7.0,1651067578624335.0,1
333,-7.0,6.0,3.0,-1.0,3.0,-4.0,-8.0,-22.0,1651067578624335.0,1
334,3.0,8.0,2.0,0.0,-10.0,-3.0,15.0,12.0,1651067578640510.0,1
335,-1.0,-4.0,1.0,3.0,10.0,8.0,-1.0,-3.0,1651067578640510.0,1
336,-6.0,-4.0,1.0,4.0,-4.0,2.0,0.0,-6.0,1651067578640510.0,1
337,7.0,7.0,0.0,-7.0,0.0,-6.0,-10.0,-6.0,1651067578640510.0,1
338,-7.0,-6.0,-4.0,8.0,12.0,10.0,-8.0,-4.0,1651067578654542.0,1
339,-1.0,-1.0,-8.0,-3.0,6.0,-4.0,0.0,-4.0,1651067578654542.0,1
340,-6.0,2.0,5.0,-2.0,-15.0,-2.0,10.0,11.0,1651067578655600.0,1
341,-10.0,-17.0,-17.0,-12.0,-3.0,-11.0,-13.0,-13.0,1651067578655600.0,1
342,-3.0,-2.0,-11.0,2.0,1.0,1.0,-4.0,-5.0,1651067578677414.0,1
343,-2.0,-5.0,-10.0,-8.0,-8.0,-1.0,13.0,6.0,1651067578677414.0,1
344,6.0,-4.0,-2.0,1.0,4.0,1.0,-14.0,-10.0,1651067578677414.0,1
345,1.0,-1.0,-11.0,-16.0,-28.0,-14.0,6.0,4.0,1651067578677414.0,1
346,-9.0,-6.0,3.0,-2.0,0.0,-2.0,4.0,11.0,1651067578699418.0,1
347,-1.0,6.0,0.0,4.0,-3.0,-2.0,-4.0,-9.0,1651067578699418.0,1
348,-5.0,1.0,9.0,15.0,12.0,6.0,6.0,-5.0,1651067578700349.0,1
349,20.0,12.0,9.0,11.0,25.0,13.0,0.0,11.0,1651067578700349.0,1
350,-13.0,-10.0,-19.0,-20.0,-21.0,-13.0,-15.0,-28.0,1651067578714339.0,1
351,7.0,-8.0,-5.0,-6.0,-3.0,8.0,14.0,13.0,1651067578714339.0,1
352,-7.0,1.0,5.0,9.0,15.0,1.0,-9.0,6.0,1651067578715441.0,1
353,-6.0,-8.0,-16.0,-13.0,-16.0,-9.0,-6.0,-6.0,1651067578715441.0,1
354,6.0,-1.0,-9.0,-11.0,-13.0,-1.0,8.0,10.0,1651067578737401.0,1
355,2.0,5.0,8.0,5.0,-5.0,-5.0,-1.0,2.0,1651067578737401.0,1
356,2.0,-8.0,-20.0,-6.0,1.0,5.0,6.0,2.0,1651067578737401.0,1
357,-6.0,-7.0,-2.0,-4.0,-23.0,-9.0,-7.0,-4.0,1651067578737401.0,1
358,2.0,2.0,2.0,6.0,32.0,16.0,9.0,7.0,1651067578759729.0,1
359,-1.0,2.0,1.0,2.0,0.0,8.0,-7.0,-12.0,1651067578759729.0,1
360,5.0,19.0,14.0,11.0,2.0,-2.0,-5.0,3.0,1651067578760660.0,1
361,2.0,-6.0,16.0,15.0,4.0,9.0,24.0,10.0,1651067578760660.0,1
362,6.0,3.0,-5.0,-10.0,-20.0,-11.0,-3.0,0.0,1651067578774690.0,1
363,-6.0,-7.0,-7.0,-7.0,-11.0,-11.0,-7.0,-12.0,1651067578774690.0,1
364,-2.0,2.0,3.0,9.0,13.0,4.0,3.0,6.0,1651067578775620.0,1
365,-3.0,2.0,2.0,-4.0,-5.0,-1.0,-2.0,-10.0,1651067578775620.0,1
366,7.0,11.0,12.0,7.0,9.0,-5.0,-6.0,0.0,1651067578796796.0,1
367,-3.0,2.0,4.0,1.0,7.0,6.0,-5.0,-1.0,1651067578796796.0,1
368,-3.0,0.0,5.0,-1.0,-6.0,-5.0,-1.0,-14.0,1651067578797728.0,1
369,-1.0,3.0,-2.0,-8.0,-16.0,-3.0,9.0,6.0,1651067578797728.0,1
370,-3.0,-2.0,3.0,14.0,35.0,9.0,-8.0,-11.0,1651067578820377.0,1
371,1.0,1.0,-1.0,-14.0,-23.0,-13.0,-3.0,14.0,1651067578820377.0,1
372,5.0,4.0,3.0,3.0,7.0,8.0,2.0,-1.0,1651067578821316.0,1
373,-2.0,0.0,-3.0,12.0,26.0,4.0,-7.0,-7.0,1651067578821316.0,1
374,-9.0,-6.0,-1.0,-6.0,-26.0,-9.0,-13.0,-11.0,1651067578833698.0,1
375,-4.0,-3.0,-5.0,-3.0,-3.0,-5.0,14.0,-2.0,1651067578833698.0,1
376,9.0,-3.0,-4.0,-5.0,4.0,-7.0,-1.0,8.0,1651067578841748.0,1
377,-1.0,1.0,2.0,8.0,9.0,18.0,1.0,-6.0,1651067578841748.0,1
378,8.0,-1.0,-2.0,-5.0,-14.0,2.0,10.0,22.0,1651067578856792.0,1
379,-13.0,-11.0,-13.0,-7.0,-3.0,-9.0,-5.0,-20.0,1651067578856792.0,1
380,-14.0,-13.0,-15.0,-16.0,-33.0,-17.0,-10.0,-6.0,1651067578857754.0,1
381,4.0,0.0,-7.0,-2.0,20.0,11.0,1.0,1.0,1651067578857754.0,1
382,-2.0,-1.0,-4.0,-5.0,-13.0,-9.0,-7.0,3.0,1651067578879731.0,1
383,-3.0,-4.0,-6.0,5.0,11.0,3.0,-4.0,-6.0,1651067578879731.0,1
384,1.0,0.0,3.0,-7.0,-23.0,-4.0,8.0,14.0,1651067578880663.0,1
385,-7.0,-5.0,-8.0,-8.0,1.0,-7.0,-10.0,-11.0,1651067578880663.0,1
386,6.0,3.0,6.0,2.0,-8.0,-3.0,4.0,4.0,1651067578893794.0,1
387,6.0,7.0,5.0,7.0,15.0,3.0,5.0,11.0,1651067578893794.0,1
388,-3.0,-3.0,-9.0,-5.0,2.0,5.0,-1.0,-17.0,1651067578901684.0,1
389,7.0,7.0,4.0,-1.0,3.0,4.0,7.0,18.0,1651067578901684.0,1
390,-12.0,-16.0,-17.0,-22.0,-33.0,-18.0,-6.0,-9.0,1651067578917041.0,1
391,-2.0,-1.0,7.0,6.0,13.0,3.0,-1.0,0.0,1651067578917041.0,1
392,8.0,7.0,9.0,13.0,30.0,10.0,4.0,2.0,1651067578917973.0,1
393,2.0,-5.0,-11.0,-7.0,-24.0,-7.0,3.0,14.0,1651067578917973.0,1
394,-1.0,5.0,1.0,2.0,4.0,5.0,7.0,-6.0,1651067578940080.0,1
395,-1.0,1.0,10.0,4.0,-6.0,-1.0,-11.0,-15.0,1651067578940080.0,1
396,7.0,-2.0,-6.0,-4.0,-2.0,4.0,6.0,36.0,1651067578941079.0,1
397,2.0,2.0,6.0,-1.0,-1.0,-8.0,-4.0,-17.0,1651067578941079.0,1
398,7.0,10.0,10.0,16.0,1.0,-5.0,-8.0,5.0,1651067578954124.0,1
399,-9.0,-14.0,-11.0,-4.0,-8.0,7.0,0.0,-3.0,1651067578954124.0,1
400,0.0,0.0,-2.0,6.0,24.0,11.0,3.0,-8.0,1651067578962172.0,1
401,-4.0,-2.0,2.0,2.0,8.0,2.0,-4.0,-2.0,1651067578962172.0,1
402,0.0,6.0,17.0,5.0,-2.0,-1.0,8.0,-6.0,1651067578984716.0,1
403,13.0,13.0,0.0,-1.0,1.0,0.0,3.0,16.0,1651067578984716.0,1
404,0.0,1.0,4.0,-7.0,-33.0,-14.0,-4.0,-15.0,1651067578985653.0,1
405,-6.0,2.0,9.0,21.0,39.0,12.0,-2.0,-11.0,1651067578985653.0,1
406,0.0,-1.0,-4.0,-4.0,0.0,8.0,0.0,-7.0,1651067578999674.0,1
407,27.0,-1.0,-16.0,-20.0,-12.0,-8.0,15.0,50.0,1651067578999674.0,1
408,-7.0,-3.0,-9.0,-2.0,-11.0,-3.0,-1.0,-11.0,1651067579000607.0,1
409,0.0,3.0,4.0,-3.0,-6.0,-2.0,-1.0,-3.0,1651067579000607.0,1
410,-2.0,3.0,5.0,-1.0,-10.0,-6.0,-5.0,0.0,1651067579013637.0,1
411,-5.0,2.0,7.0,3.0,-9.0,-1.0,-4.0,-5.0,1651067579013637.0,1
412,3.0,-6.0,-2.0,-1.0,16.0,3.0,2.0,9.0,1651067579021557.0,1
413,-6.0,-4.0,-5.0,-6.0,-9.0,-4.0,-14.0,-8.0,1651067579021557.0,1
414,-1.0,0.0,-1.0,-5.0,-10.0,2.0,19.0,12.0,1651067579036576.0,1
415,-8.0,-7.0,-8.0,-6.0,5.0,-1.0,-15.0,-15.0,1651067579036576.0,1
416,2.0,1.0,3.0,7.0,9.0,1.0,6.0,9.0,1651067579037513.0,1
417,-3.0,-4.0,-7.0,-4.0,-7.0,2.0,4.0,-5.0,1651067579037513.0,1
418,3.0,-1.0,-4.0,-8.0,-12.0,-4.0,-4.0,6.0,1651067579060474.0,1
419,-5.0,-4.0,-4.0,7.0,5.0,0.0,-10.0,-15.0,1651067579060474.0,1
420,-7.0,2.0,4.0,-5.0,-16.0,-3.0,5.0,-4.0,1651067579061118.0,1
421,7.0,-3.0,0.0,8.0,23.0,8.0,6.0,-1.0,1651067579061118.0,1
422,-5.0,-11.0,-5.0,2.0,-5.0,-7.0,-5.0,9.0,1651067579074159.0,1
423,7.0,4.0,5.0,2.0,0.0,-1.0,-1.0,-2.0,1651067579074159.0,1
424,-4.0,0.0,4.0,5.0,8.0,5.0,-6.0,-6.0,1651067579081700.0,1
425,-7.0,-2.0,-2.0,-8.0,-25.0,-17.0,-17.0,-7.0,1651067579081700.0,1
426,-3.0,0.0,-1.0,1.0,-2.0,-5.0,5.0,-10.0,1651067579096755.0,1
427,-2.0,1.0,5.0,14.0,22.0,23.0,29.0,12.0,1651067579096755.0,1
428,4.0,0.0,2.0,-1.0,0.0,-5.0,-4.0,3.0,1651067579104791.0,1
429,3.0,6.0,6.0,2.0,-12.0,-8.0,-9.0,-1.0,1651067579104791.0,1
430,-3.0,-3.0,-6.0,-6.0,7.0,3.0,2.0,-3.0,1651067579120458.0,1
431,-14.0,-1.0,4.0,-4.0,-22.0,-10.0,-1.0,-13.0,1651067579120458.0,1
432,4.0,2.0,-3.0,3.0,34.0,17.0,3.0,2.0,1651067579121395.0,1
433,8.0,2.0,6.0,10.0,6.0,5.0,6.0,16.0,1651067579121395.0,1
434,-1.0,-2.0,-4.0,5.0,19.0,-1.0,-13.0,-3.0,1651067579133493.0,1
435,-4.0,-1.0,0.0,-3.0,-6.0,6.0,8.0,-3.0,1651067579133493.0,1
436,0.0,-1.0,-1.0,-5.0,-15.0,-11.0,-4.0,3.0,1651067579142407.0,1
437,-2.0,0.0,7.0,1.0,-2.0,-2.0,-1.0,-4.0,1651067579142407.0,1
438,5.0,3.0,5.0,-4.0,2.0,2.0,-1.0,3.0,1651067579156736.0,1
439,-1.0,0.0,0.0,2.0,6.0,-15.0,-20.0,-12.0,1651067579156736.0,1
440,-4.0,-6.0,-13.0,-16.0,-35.0,-21.0,-13.0,-1.0,1651067579157678.0,1
441,-3.0,-1.0,-1.0,4.0,11.0,2.0,8.0,-1.0,1651067579157678.0,1
442,2.0,-4.0,-12.0,-3.0,0.0,4.0,0.0,-6.0,1651067579180508.0,1
443,8.0,2.0,6.0,5.0,-3.0,-4.0,-13.0,0.0,1651067579180508.0,1
444,0.0,3.0,2.0,-9.0,-6.0,-5.0,1.0,2.0,1651067579180508.0,1
445,5.0,-1.0,-4.0,-3.0,-12.0,2.0,13.0,13.0,1651067579180508.0,1
446,-2.0,-2.0,6.0,2.0,2.0,0.0,-7.0,-6.0,1651067579202451.0,1
447,-2.0,2.0,5.0,7.0,2.0,2.0,-3.0,-3.0,1651067579202451.0,1
448,-3.0,-2.0,-3.0,0.0,2.0,2.0,11.0,-2.0,1651067579203449.0,1
449,1.0,0.0,-6.0,-8.0,-2.0,-1.0,-7.0,1.0,1651067579203449.0,1
450,-4.0,0.0,-4.0,-2.0,2.0,-1.0,0.0,-3.0,1651067579217302.0,1
451,4.0,-2.0,-10.0,-11.0,-11.0,-3.0,0.0,8.0,1651067579217302.0,1
452,1.0,1.0,3.0,7.0,1.0,-1.0,3.0,-4.0,1651067579217302.0,1
453,-2.0,-1.0,-6.0,-6.0,-8.0,-1.0,0.0,-7.0,1651067579217302.0,1
454,5.0,4.0,-1.0,-3.0,6.0,-1.0,-1.0,5.0,1651067579240479.0,1
455,-5.0,-1.0,-3.0,-12.0,-19.0,-13.0,-2.0,-3.0,1651067579240479.0,1
456,2.0,0.0,-1.0,11.0,21.0,23.0,0.0,1.0,1651067579240479.0,1
457,-1.0,1.0,3.0,11.0,15.0,5.0,0.0,0.0,1651067579240479.0,1
458,5.0,3.0,1.0,-1.0,-13.0,-1.0,-3.0,6.0,1651067579262749.0,1
459,-6.0,-1.0,5.0,-1.0,-2.0,-3.0,2.0,-9.0,1651067579262749.0,1
460,-4.0,-2.0,-4.0,3.0,13.0,2.0,-7.0,3.0,1651067579263747.0,1
461,2.0,4.0,4.0,-4.0,-15.0,4.0,2.0,-4.0,1651067579263747.0,1
462,-6.0,-2.0,-4.0,7.0,21.0,3.0,3.0,2.0,1651067579276781.0,1
463,3.0,3.0,3.0,7.0,20.0,12.0,2.0,5.0,1651067579276781.0,1
464,-16.0,-9.0,-2.0,-3.0,-10.0,-5.0,-8.0,-27.0,1651067579277712.0,1
465,16.0,5.0,4.0,-2.0,3.0,0.0,3.0,21.0,1651067579277712.0,1
466,4.0,1.0,-2.0,-2.0,-11.0,-5.0,-4.0,4.0,1651067579299665.0,1
467,-2.0,-4.0,-6.0,-5.0,-9.0,-7.0,-5.0,-5.0,1651067579299665.0,1
468,-4.0,1.0,5.0,2.0,-2.0,-1.0,-4.0,-8.0,1651067579300663.0,1
469,-9.0,-4.0,-1.0,-5.0,-2.0,-3.0,-7.0,-10.0,1651067579300663.0,1
470,3.0,1.0,3.0,4.0,6.0,4.0,10.0,2.0,1651067579322657.0,1
471,-4.0,0.0,2.0,13.0,11.0,3.0,-4.0,-6.0,1651067579322657.0,1
472,3.0,3.0,2.0,-6.0,-7.0,-2.0,1.0,7.0,1651067579323652.0,1
473,-5.0,-2.0,0.0,-1.0,4.0,-2.0,1.0,-3.0,1651067579323652.0,1
474,-2.0,-2.0,2.0,0.0,-4.0,-1.0,-12.0,-13.0,1651067579336684.0,1
475,-1.0,-2.0,-6.0,-6.0,-3.0,0.0,13.0,6.0,1651067579336684.0,1
476,4.0,5.0,8.0,10.0,7.0,2.0,11.0,8.0,1651067579337614.0,1
477,-2.0,-5.0,-6.0,-5.0,-3.0,-4.0,-2.0,2.0,1651067579337614.0,1
478,-4.0,-1.0,0.0,1.0,2.0,2.0,-7.0,-7.0,1651067579360509.0,1
479,2.0,1.0,0.0,-1.0,1.0,1.0,2.0,1.0,1651067579360509.0,1
480,0.0,0.0,1.0,6.0,4.0,1.0,-3.0,-1.0,1651067579360509.0,1
481,1.0,-3.0,-4.0,-9.0,-6.0,-2.0,5.0,5.0,1651067579360509.0,1
482,-1.0,-5.0,-9.0,-3.0,-7.0,-4.0,-2.0,-1.0,1651067579382220.0,1
483,-3.0,-1.0,2.0,-1.0,2.0,-1.0,-4.0,-3.0,1651067579382220.0,1
484,5.0,-1.0,-5.0,-2.0,0.0,1.0,-1.0,3.0,1651067579383244.0,1
485,-3.0,3.0,9.0,16.0,4.0,-2.0,-8.0,-9.0,1651067579383244.0,1
486,-1.0,-3.0,-15.0,-19.0,-1.0,0.0,7.0,11.0,1651067579397250.0,1
487,-2.0,-5.0,5.0,-3.0,-6.0,0.0,4.0,4.0,1651067579397250.0,1
488,1.0,2.0,16.0,12.0,-3.0,-3.0,-6.0,-6.0,1651067579397250.0,1
489,-1.0,-6.0,-14.0,7.0,8.0,1.0,0.0,1.0,1651067579397250.0,1
490,-2.0,-1.0,12.0,8.0,-2.0,-1.0,-7.0,-2.0,1651067579420188.0,1
491,1.0,-1.0,0.0,-3.0,-5.0,1.0,8.0,2.0,1651067579420188.0,1
492,1.0,-3.0,-23.0,-34.0,-6.0,-3.0,-1.0,0.0,1651067579421146.0,1
493,-4.0,-3.0,-3.0,27.0,7.0,4.0,4.0,0.0,1651067579421146.0,1
494,-3.0,-2.0,-5.0,-26.0,-13.0,-6.0,-6.0,-5.0,1651067579442244.0,1
495,-2.0,1.0,8.0,21.0,28.0,4.0,-5.0,-3.0,1651067579442244.0,1
496,2.0,2.0,8.0,-3.0,-27.0,-6.0,4.0,1.0,1651067579443242.0,1
497,1.0,0.0,-14.0,-15.0,0.0,1.0,-1.0,-1.0,1651067579443242.0,1
498,3.0,4.0,9.0,21.0,14.0,2.0,0.0,-4.0,1651067579457301.0,1
499,-2.0,-3.0,5.0,6.0,1.0,1.0,1.0,-1.0,1651067579457301.0,1
500,2.0,2.0,-4.0,-13.0,9.0,5.0,-1.0,1.0,1651067579457301.0,1
501,-8.0,-9.0,8.0,2.0,-16.0,-7.0,-3.0,-6.0,1651067579457301.0,1
502,10.0,7.0,-1.0,4.0,-6.0,-1.0,3.0,5.0,1651067579480504.0,1
503,-5.0,-1.0,-17.0,-6.0,-4.0,-7.0,-1.0,-4.0,1651067579480504.0,1
504,-6.0,2.0,-2.0,19.0,12.0,3.0,2.0,2.0,1651067579480504.0,1
505,6.0,6.0,18.0,-30.0,-6.0,0.0,0.0,-2.0,1651067579480504.0,1
506,-3.0,4.0,14.0,35.0,19.0,7.0,5.0,2.0,1651067579502322.0,1
507,8.0,6.0,5.0,4.0,-4.0,-1.0,-4.0,-2.0,1651067579502322.0,1
508,-1.0,-4.0,-13.0,-1.0,1.0,0.0,-1.0,-4.0,1651067579503251.0,1
509,-4.0,-4.0,-8.0,-8.0,2.0,1.0,0.0,2.0,1651067579503251.0,1
510,7.0,7.0,15.0,-8.0,-6.0,-2.0,2.0,1.0,1651067579516320.0,1
511,1.0,-4.0,-8.0,-4.0,-3.0,-3.0,-2.0,0.0,1651067579516320.0,1
512,-3.0,-1.0,6.0,0.0,-7.0,1.0,-1.0,-2.0,1651067579517321.0,1
513,4.0,2.0,2.0,8.0,9.0,1.0,3.0,2.0,1651067579517321.0,1
514,-2.0,-1.0,0.0,2.0,-7.0,0.0,0.0,0.0,1651067579540262.0,1
515,-4.0,-5.0,-16.0,-19.0,-9.0,-4.0,-4.0,-2.0,1651067579540262.0,1
516,-3.0,-4.0,1.0,1.0,8.0,0.0,-2.0,-4.0,1651067579541252.0,1
517,4.0,3.0,2.0,-3.0,-13.0,-2.0,0.0,3.0,1651067579541252.0,1
518,-3.0,-6.0,-16.0,-13.0,0.0,1.0,-1.0,1.0,1651067579563032.0,1
519,10.0,15.0,23.0,21.0,5.0,2.0,1.0,-2.0,1651067579563032.0,1
520,-16.0,-26.0,-15.0,-6.0,3.0,1.0,-1.0,2.0,1651067579563032.0,1
521,-1.0,3.0,13.0,3.0,5.0,-2.0,-3.0,-1.0,1651067579563032.0,1
522,-10.0,-3.0,0.0,-1.0,-5.0,-2.0,-1.0,-3.0,1651067579577174.0,1
523,9.0,-5.0,-10.0,-26.0,-10.0,0.0,-4.0,1.0,1651067579577174.0,1
524,5.0,13.0,9.0,19.0,8.0,-2.0,-2.0,0.0,1651067579577174.0,1
525,-5.0,-4.0,-18.0,-5.0,0.0,2.0,-1.0,-4.0,1651067579577174.0,1
526,-2.0,-8.0,6.0,-12.0,-3.0,1.0,1.0,3.0,1651067579600073.0,1
527,-2.0,-4.0,-2.0,5.0,3.0,0.0,-2.0,-1.0,1651067579600073.0,1
528,2.0,12.0,-4.0,-15.0,-4.0,-2.0,-1.0,-2.0,1651067579601043.0,1
529,-2.0,0.0,0.0,2.0,-2.0,-3.0,-1.0,-1.0,1651067579601043.0,1
530,1.0,4.0,-6.0,6.0,1.0,-1.0,0.0,-3.0,1651067579623102.0,1
531,-3.0,-4.0,-8.0,-8.0,0.0,3.0,0.0,-1.0,1651067579623102.0,1
532,3.0,-1.0,10.0,8.0,-3.0,-1.0,1.0,0.0,1651067579623102.0,1
533,2.0,1.0,-2.0,-1.0,-4.0,-1.0,0.0,1.0,1651067579623102.0,1
534,-2.0,-5.0,-1.0,4.0,4.0,0.0,1.0,2.0,1651067579637130.0,1
535,-4.0,-3.0,-1.0,3.0,0.0,-1.0,1.0,3.0,1651067579637130.0,1
536,-1.0,-2.0,10.0,8.0,-6.0,-1.0,-4.0,-2.0,1651067579638070.0,1
537,-2.0,-1.0,-16.0,0.0,4.0,0.0,-1.0,0.0,1651067579638070.0,1
538,2.0,-1.0,-3.0,-9.0,-3.0,-1.0,-1.0,0.0,1651067579660474.0,1
539,-6.0,-3.0,-2.0,0.0,1.0,1.0,-1.0,-1.0,1651067579660474.0,1
540,2.0,3.0,1.0,-5.0,-5.0,-2.0,0.0,1.0,1651067579661016.0,1
541,1.0,-1.0,2.0,-10.0,0.0,0.0,1.0,0.0,1651067579661016.0,1
542,-1.0,1.0,-2.0,11.0,0.0,-1.0,-1.0,-1.0,1651067579682684.0,1
543,-2.0,-1.0,-6.0,-7.0,0.0,-1.0,0.0,0.0,1651067579682684.0,1
544,0.0,-2.0,0.0,4.0,2.0,0.0,-1.0,0.0,1651067579683682.0,1
545,0.0,-2.0,-1.0,-1.0,2.0,-1.0,-2.0,-2.0,1651067579683682.0,1
546,-1.0,-1.0,-4.0,-11.0,-4.0,-2.0,0.0,-2.0,1651067579704733.0,1
547,0.0,1.0,0.0,16.0,0.0,0.0,-2.0,-1.0,1651067579704733.0,1
548,2.0,-2.0,9.0,-13.0,-9.0,-4.0,-2.0,-1.0,1651067579705790.0,1
549,-1.0,-3.0,-3.0,-10.0,-7.0,-3.0,-1.0,0.0,1651067579705790.0,1
550,-1.0,2.0,-1.0,4.0,1.0,3.0,0.0,0.0,1651067579719691.0,1
551,-2.0,-1.0,-2.0,-6.0,-2.0,0.0,-2.0,-2.0,1651067579719691.0,1
552,1.0,-2.0,-3.0,7.0,5.0,3.0,2.0,1.0,1651067579720624.0,1
553,0.0,2.0,-7.0,0.0,-5.0,0.0,1.0,1.0,1651067579720624.0,1
554,1.0,-3.0,1.0,-8.0,5.0,-1.0,-1.0,-3.0,1651067579742450.0,1
555,-2.0,1.0,7.0,2.0,-3.0,-6.0,-1.0,0.0,1651067579742450.0,1
556,-1.0,0.0,-8.0,-5.0,-4.0,3.0,1.0,-1.0,1651067579743473.0,1
557,0.0,-1.0,6.0,2.0,2.0,-6.0,1.0,0.0,1651067579743473.0,1
558,-2.0,-2.0,-6.0,-5.0,6.0,5.0,0.0,0.0,1651067579756478.0,1
559,-3.0,-2.0,3.0,-2.0,2.0,4.0,0.0,-1.0,1651067579756478.0,1
560,2.0,0.0,0.0,-3.0,-8.0,-7.0,-4.0,-1.0,1651067579764457.0,1
561,1.0,-1.0,1.0,9.0,12.0,7.0,0.0,0.0,1651067579764457.0,1
562,2.0,1.0,9.0,8.0,11.0,13.0,2.0,0.0,1651067579780311.0,1
563,0.0,1.0,-2.0,-1.0,0.0,1.0,2.0,2.0,1651067579780311.0,1
564,-1.0,1.0,6.0,-4.0,-8.0,-3.0,1.0,1.0,1651067579781313.0,1
565,-1.0,-2.0,-8.0,-6.0,-10.0,-4.0,1.0,0.0,1651067579781313.0,1
566,-3.0,-1.0,-6.0,4.0,-4.0,-10.0,-6.0,-2.0,1651067579802320.0,1
567,-1.0,1.0,-1.0,-2.0,-2.0,3.0,1.0,-1.0,1651067579802320.0,1
568,0.0,-1.0,-8.0,-2.0,5.0,0.0,-1.0,-3.0,1651067579804249.0,1
569,-1.0,-2.0,4.0,1.0,0.0,-1.0,-2.0,-1.0,1651067579804249.0,1
570,-1.0,-1.0,1.0,3.0,-1.0,-3.0,-2.0,0.0,1651067579816406.0,1
571,-1.0,1.0,-9.0,-13.0,-2.0,-2.0,-2.0,0.0,1651067579816406.0,1
572,-1.0,-1.0,-5.0,10.0,1.0,-2.0,0.0,-2.0,1651067579825296.0,1
573,-1.0,0.0,5.0,0.0,5.0,2.0,-1.0,-1.0,1651067579825296.0,1
574,-1.0,0.0,-1.0,-1.0,-7.0,-3.0,-1.0,-1.0,1651067579840278.0,1
575,1.0,-3.0,0.0,-2.0,0.0,-1.0,1.0,0.0,1651067579840278.0,1
576,0.0,0.0,-2.0,-12.0,2.0,1.0,-2.0,0.0,1651067579841248.0,1
577,-1.0,1.0,7.0,9.0,1.0,2.0,2.0,0.0,1651067579841248.0,1
578,0.0,0.0,-1.0,-2.0,-2.0,1.0,1.0,3.0,1651067579862258.0,1
579,0.0,-1.0,0.0,-3.0,-5.0,-7.0,-2.0,-3.0,1651067579862258.0,1
580,0.0,0.0,2.0,13.0,8.0,4.0,0.0,1.0,1651067579864186.0,1
581,-1.0,-1.0,-4.0,-9.0,0.0,1.0,-2.0,2.0,1651067579864186.0,1
582,-2.0,-1.0,2.0,1.0,-4.0,-5.0,-1.0,-1.0,1651067579876220.0,1
583,0.0,0.0,6.0,10.0,6.0,3.0,3.0,1.0,1651067579876220.0,1
584,-2.0,-1.0,-7.0,-4.0,-2.0,-3.0,-2.0,-3.0,1651067579885296.0,1
585,-2.0,1.0,3.0,3.0,-5.0,-2.0,-1.0,0.0,1651067579885296.0,1
586,0.0,-2.0,0.0,-1.0,-3.0,-1.0,0.0,-1.0,1651067579900478.0,1
587,0.0,0.0,-5.0,-5.0,-2.0,-3.0,-2.0,1.0,1651067579900478.0,1
588,-1.0,0.0,0.0,4.0,3.0,2.0,1.0,0.0,1651067579901474.0,1
589,-1.0,-1.0,-3.0,-4.0,-7.0,0.0,-2.0,-2.0,1651067579901474.0,1
590,0.0,-2.0,2.0,-3.0,-2.0,-5.0,-1.0,-4.0,1651067579922588.0,1
591,-1.0,-2.0,0.0,2.0,6.0,6.0,0.0,-2.0,1651067579922588.0,1
592,1.0,-2.0,-6.0,-11.0,-3.0,-3.0,2.0,0.0,1651067579924586.0,1
593,0.0,0.0,2.0,-1.0,0.0,0.0,-1.0,-1.0,1651067579924586.0,1
594,0.0,-1.0,-6.0,-3.0,-3.0,0.0,-2.0,1.0,1651067579936601.0,1
595,0.0,0.0,1.0,3.0,-3.0,-5.0,-2.0,-1.0,1651067579936601.0,1
596,0.0,1.0,3.0,3.0,4.0,7.0,3.0,1.0,1651067579945520.0,1
597,-1.0,-3.0,-2.0,-3.0,-4.0,-5.0,-1.0,-1.0,1651067579945520.0,1
598,1.0,-1.0,-5.0,1.0,5.0,5.0,2.0,-1.0,1651067579960549.0,1
599,-1.0,0.0,-4.0,2.0,-2.0,-1.0,0.0,-1.0,1651067579960549.0,1
600,-1.0,-1.0,-5.0,1.0,1.0,-1.0,-1.0,-1.0,1651067579961548.0,1
601,1.0,0.0,7.0,1.0,-1.0,-2.0,1.0,1.0,1651067579961548.0,1
602,-1.0,1.0,-1.0,-1.0,-2.0,-1.0,0.0,-1.0,1651067579982699.0,1
603,-2.0,0.0,-2.0,-3.0,-5.0,-2.0,-1.0,0.0,1651067579982699.0,1
604,0.0,0.0,7.0,2.0,-2.0,-3.0,0.0,0.0,1651067579983695.0,1
605,1.0,-2.0,-18.0,-4.0,2.0,0.0,0.0,-1.0,1651067579983695.0,1
606,-1.0,1.0,-1.0,-6.0,-3.0,-1.0,-2.0,0.0,1651067579996639.0,1
607,0.0,-2.0,1.0,-2.0,-1.0,-1.0,0.0,-1.0,1651067579996639.0,1
608,1.0,-1.0,-4.0,-3.0,-2.0,-3.0,-2.0,0.0,1651067580005616.0,1
609,0.0,-1.0,4.0,5.0,3.0,1.0,0.0,-1.0,1651067580005616.0,1
610,-2.0,0.0,-3.0,-1.0,1.0,0.0,-1.0,0.0,1651067580020465.0,1
611,-1.0,-1.0,-7.0,-3.0,-2.0,-1.0,-1.0,0.0,1651067580020465.0,1
612,-1.0,0.0,6.0,3.0,1.0,1.0,1.0,-1.0,1651067580021942.0,1
613,1.0,0.0,2.0,1.0,-2.0,0.0,1.0,0.0,1651067580021942.0,1
614,-1.0,-3.0,-6.0,-1.0,-5.0,-3.0,0.0,-2.0,1651067580043006.0,1
615,0.0,1.0,4.0,5.0,13.0,7.0,1.0,0.0,1651067580043006.0,1
616,-1.0,0.0,-6.0,-1.0,-5.0,-3.0,-2.0,-1.0,1651067580044007.0,1
617,0.0,1.0,1.0,0.0,2.0,-1.0,-1.0,0.0,1651067580044007.0,1
618,-1.0,0.0,-1.0,-1.0,-5.0,0.0,0.0,3.0,1651067580055973.0,1
619,-2.0,-1.0,-2.0,-2.0,-2.0,-1.0,-1.0,0.0,1651067580055973.0,1
620,0.0,0.0,0.0,1.0,0.0,0.0,-1.0,-2.0,1651067580065068.0,1
621,0.0,2.0,-4.0,-9.0,0.0,1.0,1.0,-2.0,1651067580065068.0,1
622,-1.0,-3.0,7.0,2.0,-5.0,-4.0,-1.0,0.0,1651067580080533.0,1
623,1.0,-1.0,1.0,2.0,-2.0,0.0,-2.0,-2.0,1651067580080533.0,1
624,0.0,-1.0,-2.0,-3.0,1.0,-3.0,1.0,0.0,1651067580081546.0,1
625,-1.0,1.0,-1.0,6.0,8.0,11.0,3.0,0.0,1651067580081546.0,1
626,-1.0,1.0,1.0,-5.0,-6.0,-3.0,-1.0,-2.0,1651067580102844.0,1
627,0.0,1.0,2.0,4.0,13.0,6.0,1.0,1.0,1651067580102844.0,1
628,-1.0,-2.0,-1.0,-2.0,-8.0,-6.0,-5.0,0.0,1651067580103840.0,1
629,-1.0,-3.0,-2.0,3.0,0.0,-6.0,1.0,0.0,1651067580103840.0,1
630,1.0,0.0,-3.0,-3.0,3.0,5.0,2.0,0.0,1651067580125108.0,1
631,-1.0,-1.0,-1.0,-3.0,-9.0,-5.0,-2.0,-2.0,1651067580125108.0,1
632,1.0,-1.0,-1.0,-1.0,1.0,-1.0,-1.0,0.0,1651067580127035.0,1
633,-1.0,0.0,1.0,1.0,-1.0,-5.0,-3.0,-2.0,1651067580127035.0,1
634,0.0,1.0,0.0,4.0,7.0,3.0,3.0,1.0,1651067580140116.0,1
635,-2.0,0.0,-1.0,-2.0,-4.0,-6.0,-1.0,-2.0,1651067580140116.0,1
636,0.0,-2.0,-2.0,-2.0,-1.0,5.0,2.0,-1.0,1651067580142082.0,1
637,0.0,-2.0,-3.0,-5.0,-2.0,-4.0,-2.0,0.0,1651067580142082.0,1
638,0.0,1.0,4.0,0.0,-6.0,-5.0,-1.0,0.0,1651067580162659.0,1
639,0.0,0.0,-2.0,-2.0,1.0,0.0,0.0,-1.0,1651067580162659.0,1
640,0.0,1.0,3.0,3.0,5.0,1.0,1.0,-1.0,1651067580163655.0,1
641,-2.0,-1.0,1.0,1.0,-3.0,-1.0,-1.0,1.0,1651067580163655.0,1
642,0.0,0.0,-1.0,0.0,5.0,5.0,1.0,-1.0,1651067580184728.0,1
643,0.0,-1.0,-2.0,-5.0,-8.0,-5.0,-2.0,-1.0,1651067580184728.0,1
644,-2.0,-1.0,-1.0,0.0,1.0,-1.0,0.0,-2.0,1651067580186723.0,1
645,-2.0,0.0,2.0,0.0,-7.0,-3.0,-1.0,1.0,1651067580186723.0,1
646,-1.0,-2.0,-3.0,1.0,3.0,-1.0,0.0,1.0,1651067580199747.0,1
647,1.0,2.0,3.0,-1.0,-3.0,-2.0,0.0,0.0,1651067580199747.0,1
648,-1.0,-1.0,-4.0,-5.0,0.0,0.0,0.0,-1.0,1651067580201683.0,0
649,0.0,0.0,0.0,4.0,1.0,1.0,1.0,-1.0,1651067580201683.0,0
650,-3.0,-2.0,-2.0,1.0,-1.0,0.0,0.0,-1.0,1651067580222695.0,0
651,0.0,-2.0,-4.0,-1.0,-2.0,-1.0,0.0,0.0,1651067580222695.0,0
652,0.0,-1.0,-1.0,-2.0,-1.0,2.0,-2.0,0.0,1651067580223691.0,0
653,1.0,-2.0,1.0,0.0,-2.0,-5.0,-1.0,-3.0,1651067580223691.0,0
654,-1.0,-1.0,-2.0,-2.0,-1.0,-1.0,-2.0,-1.0,1651067580244719.0,0
655,0.0,-1.0,-1.0,-3.0,-2.0,4.0,-1.0,1.0,1651067580244719.0,0
656,0.0,0.0,0.0,9.0,-5.0,-3.0,-1.0,0.0,1651067580246716.0,0
657,-1.0,-3.0,-2.0,-7.0,-1.0,-3.0,-2.0,0.0,1651067580246716.0,0
658,-1.0,-1.0,-2.0,1.0,4.0,3.0,1.0,2.0,1651067580259748.0,0
659,-1.0,0.0,1.0,3.0,3.0,0.0,-1.0,0.0,1651067580259748.0,0
660,-1.0,0.0,1.0,-1.0,-3.0,-2.0,1.0,0.0,1651067580266694.0,0
661,0.0,-1.0,0.0,0.0,-4.0,1.0,-1.0,1.0,1651067580266694.0,0
662,-1.0,0.0,-3.0,-2.0,-7.0,-4.0,-2.0,0.0,1651067580282673.0,0
663,-1.0,-1.0,-1.0,-3.0,-13.0,-4.0,-1.0,-1.0,1651067580282673.0,0
664,-1.0,-2.0,-2.0,2.0,20.0,2.0,0.0,2.0,1651067580288714.0,0
665,-2.0,-2.0,-4.0,9.0,2.0,1.0,0.0,-3.0,1651067580288714.0,0
666,0.0,5.0,7.0,-8.0,-1.0,-3.0,-3.0,1.0,1651067580304700.0,0
667,-1.0,-1.0,-3.0,-3.0,-2.0,-2.0,-1.0,0.0,1651067580304700.0,0
668,1.0,0.0,-1.0,-1.0,-6.0,-2.0,-2.0,0.0,1651067580306636.0,0
669,-3.0,1.0,-3.0,0.0,1.0,4.0,1.0,-2.0,1651067580306636.0,0
670,-1.0,-1.0,-1.0,3.0,4.0,1.0,-1.0,-2.0,1651067580319660.0,0
671,1.0,-2.0,-3.0,0.0,-2.0,-3.0,-1.0,-1.0,1651067580319660.0,0
672,-2.0,-1.0,3.0,-4.0,-14.0,-8.0,-3.0,-1.0,1651067580326617.0,0
673,1.0,2.0,3.0,3.0,18.0,9.0,1.0,2.0,1651067580326617.0,0
674,0.0,-2.0,-4.0,-3.0,-7.0,0.0,1.0,-1.0,1651067580342675.0,0
675,0.0,-1.0,2.0,5.0,3.0,1.0,2.0,0.0,1651067580342675.0,0
676,-1.0,-1.0,-4.0,-2.0,-3.0,-1.0,-1.0,-1.0,1651067580343671.0,0
677,0.0,-1.0,-1.0,-3.0,-8.0,-5.0,-1.0,-1.0,1651067580343671.0,0
678,-1.0,0.0,-1.0,1.0,-1.0,-2.0,-3.0,-2.0,1651067580372850.0,0
679,-1.0,0.0,-1.0,-3.0,3.0,1.0,-1.0,-1.0,1651067580372850.0,0
680,-1.0,0.0,0.0,0.0,2.0,1.0,1.0,0.0,1651067580373856.0,0
681,-1.0,-1.0,1.0,-3.0,-7.0,-4.0,-3.0,0.0,1651067580373856.0,0
682,0.0,-2.0,-2.0,0.0,-2.0,-2.0,1.0,0.0,1651067580378861.0,0
683,-2.0,0.0,1.0,4.0,13.0,8.0,0.0,1.0,1651067580378861.0,0
684,0.0,-1.0,-3.0,1.0,-2.0,4.0,1.0,0.0,1651067580385842.0,0
685,1.0,1.0,3.0,-5.0,-5.0,0.0,-1.0,-2.0,1651067580385842.0,0
686,-2.0,-2.0,-1.0,4.0,-3.0,-5.0,-2.0,1.0,1651067580402923.0,0
687,-2.0,-3.0,1.0,-1.0,-4.0,-3.0,-2.0,0.0,1651067580402923.0,0
688,-1.0,-1.0,0.0,-3.0,2.0,-2.0,-2.0,0.0,1651067580403856.0,0
689,-2.0,0.0,-1.0,0.0,-2.0,-3.0,-2.0,0.0,1651067580403856.0,0
690,0.0,1.0,0.0,-2.0,-7.0,-5.0,-3.0,-2.0,1651067580424675.0,0
691,0.0,1.0,1.0,1.0,4.0,5.0,4.0,0.0,1651067580424675.0,0
692,-1.0,0.0,-1.0,0.0,2.0,-1.0,1.0,0.0,1651067580426669.0,0
693,-2.0,-2.0,-1.0,-1.0,-1.0,-2.0,-1.0,-1.0,1651067580426669.0,0
694,-1.0,-2.0,0.0,-1.0,-6.0,-3.0,0.0,-1.0,1651067580439634.0,0
695,0.0,1.0,1.0,-1.0,-1.0,1.0,-1.0,0.0,1651067580439634.0,0
696,1.0,-2.0,-3.0,0.0,0.0,-1.0,-1.0,-1.0,1651067580446650.0,0
697,0.0,0.0,-3.0,1.0,-2.0,-2.0,-2.0,1.0,1651067580446650.0,0
698,-1.0,0.0,1.0,0.0,-2.0,-1.0,-1.0,-1.0,1651067580462771.0,0
699,-1.0,1.0,-1.0,2.0,10.0,6.0,0.0,-2.0,1651067580462771.0,0
700,-2.0,0.0,0.0,-1.0,-2.0,2.0,1.0,0.0,1651067580463781.0,0
701,0.0,-1.0,0.0,-2.0,0.0,-2.0,0.0,-2.0,1651067580463781.0,0
702,1.0,-2.0,-3.0,2.0,3.0,1.0,0.0,-1.0,1651067580485336.0,0
703,0.0,0.0,-1.0,-4.0,-6.0,-4.0,-1.0,-1.0,1651067580485336.0,0
704,-2.0,1.0,1.0,-2.0,-3.0,0.0,-2.0,-1.0,1651067580486336.0,0
705,-3.0,-1.0,-2.0,2.0,1.0,3.0,2.0,0.0,1651067580486336.0,0
706,0.0,0.0,0.0,-3.0,1.0,-1.0,-2.0,-1.0,1651067580499359.0,0
707,-1.0,-3.0,-2.0,-1.0,-5.0,-6.0,-1.0,-1.0,1651067580499359.0,0
708,1.0,1.0,2.0,1.0,-1.0,4.0,2.0,0.0,1651067580506638.0,0
709,-1.0,0.0,1.0,2.0,4.0,4.0,0.0,1.0,1651067580506638.0,0
710,0.0,-1.0,-1.0,-3.0,-1.0,-2.0,0.0,-1.0,1651067580522718.0,0
711,0.0,-1.0,0.0,5.0,11.0,6.0,-2.0,0.0,1651067580522718.0,0
712,-1.0,0.0,-1.0,-2.0,-3.0,0.0,-1.0,0.0,1651067580523737.0,0
713,-2.0,0.0,-1.0,-3.0,-6.0,-3.0,-1.0,-1.0,1651067580523737.0,0
714,1.0,1.0,0.0,-2.0,5.0,3.0,-1.0,-1.0,1651067580545355.0,0
715,-1.0,0.0,-1.0,1.0,1.0,4.0,1.0,1.0,1651067580545355.0,0
716,0.0,-1.0,-1.0,1.0,3.0,3.0,-1.0,-2.0,1651067580546368.0,0
717,-2.0,0.0,-1.0,0.0,0.0,-3.0,-1.0,0.0,1651067580546368.0,0
718,0.0,-1.0,-1.0,-1.0,-2.0,-4.0,0.0,1.0,1651067580559883.0,0
719,-2.0,-2.0,-3.0,-2.0,-12.0,-7.0,1.0,0.0,1651067580559883.0,0
720,0.0,1.0,-1.0,1.0,9.0,2.0,-1.0,0.0,1651067580565928.0,0
721,0.0,0.0,-1.0,2.0,0.0,2.0,1.0,1.0,1651067580565928.0,0
722,0.0,1.0,1.0,-2.0,-10.0,-4.0,0.0,-1.0,1651067580583006.0,0
723,-1.0,-1.0,-3.0,1.0,10.0,-1.0,-1.0,-3.0,1651067580583006.0,0
724,-2.0,-2.0,0.0,-1.0,-9.0,-4.0,1.0,0.0,1651067580583960.0,0
725,0.0,0.0,-2.0,-1.0,2.0,-1.0,-1.0,-2.0,1651067580583960.0,0
726,0.0,0.0,3.0,-1.0,4.0,6.0,1.0,3.0,1651067580605069.0,0
727,0.0,0.0,0.0,-7.0,-13.0,-8.0,-3.0,-1.0,1651067580605069.0,0
728,0.0,0.0,-3.0,-2.0,4.0,4.0,0.0,0.0,1651067580607012.0,0
729,0.0,-3.0,-3.0,1.0,-4.0,-4.0,-2.0,0.0,1651067580607012.0,0
730,-2.0,-3.0,-4.0,0.0,1.0,0.0,2.0,-1.0,1651067580619007.0,0
731,0.0,0.0,-1.0,0.0,-4.0,-2.0,-1.0,-1.0,1651067580619007.0,0
732,0.0,-2.0,-1.0,-2.0,0.0,-1.0,1.0,-2.0,1651067580627956.0,0
733,0.0,-2.0,-4.0,-6.0,-9.0,-4.0,-1.0,-2.0,1651067580627956.0,0
734,-3.0,0.0,-1.0,1.0,12.0,11.0,1.0,1.0,1651067580642974.0,0
735,-1.0,1.0,0.0,-1.0,0.0,-3.0,-2.0,-1.0,1651067580642974.0,0
736,0.0,1.0,0.0,0.0,-6.0,-8.0,-3.0,-2.0,1651067580643918.0,0
737,0.0,0.0,2.0,2.0,6.0,8.0,2.0,1.0,1651067580643918.0,0
738,0.0,-1.0,-3.0,-3.0,-6.0,-9.0,-2.0,-2.0,1651067580664947.0,0
739,-2.0,-1.0,-2.0,-1.0,-8.0,-2.0,-1.0,0.0,1651067580664947.0,0
740,-1.0,0.0,-1.0,0.0,2.0,3.0,0.0,-1.0,1651067580666902.0,0
741,0.0,0.0,0.0,-1.0,-6.0,-7.0,-2.0,0.0,1651067580666902.0,0
742,-1.0,0.0,1.0,1.0,-4.0,-1.0,0.0,1.0,1651067580678909.0,0
743,0.0,-2.0,1.0,-3.0,7.0,5.0,-2.0,1.0,1651067580678909.0,0
744,-2.0,-1.0,1.0,2.0,-1.0,-4.0,-1.0,0.0,1651067580687821.0,0
745,0.0,-3.0,-4.0,-2.0,4.0,-2.0,1.0,0.0,1651067580687821.0,0
746,0.0,0.0,6.0,4.0,-3.0,4.0,0.0,0.0,1651067580702616.0,0
747,1.0,1.0,2.0,6.0,20.0,12.0,8.0,2.0,1651067580702616.0,0
748,0.0,-2.0,0.0,-2.0,-8.0,-3.0,-2.0,-1.0,1651067580703640.0,0
749,1.0,4.0,8.0,-3.0,-3.0,4.0,4.0,0.0,1651067580703640.0,0
750,-2.0,-3.0,-6.0,-4.0,-3.0,-10.0,-6.0,-3.0,1651067580724750.0,0
751,0.0,-1.0,0.0,0.0,-2.0,-1.0,-1.0,-2.0,1651067580724750.0,0
752,0.0,-1.0,-1.0,0.0,1.0,-3.0,0.0,-1.0,1651067580731695.0,0
753,0.0,1.0,1.0,0.0,-6.0,-4.0,0.0,-1.0,1651067580731695.0,0
754,2.0,1.0,0.0,-1.0,0.0,-1.0,3.0,0.0,1651067580738713.0,0
755,-1.0,-2.0,-1.0,-2.0,-4.0,-3.0,-1.0,-3.0,1651067580738713.0,0
756,0.0,0.0,-3.0,-5.0,-1.0,0.0,1.0,1.0,1651067580747622.0,0
757,-1.0,-1.0,-3.0,0.0,-9.0,-10.0,-5.0,-2.0,1651067580747622.0,0
758,-1.0,1.0,2.0,3.0,11.0,5.0,1.0,0.0,1651067580762700.0,0
759,0.0,-3.0,-4.0,-4.0,-8.0,-2.0,-1.0,1.0,1651067580762700.0,0
760,-2.0,-1.0,1.0,2.0,0.0,-1.0,-2.0,0.0,1651067580764693.0,0
761,-1.0,-2.0,-3.0,0.0,7.0,-1.0,-2.0,-2.0,1651067580764693.0,0
762,-1.0,-2.0,-2.0,-3.0,-8.0,-2.0,1.0,-2.0,1651067580784895.0,0
763,1.0,3.0,6.0,0.0,-8.0,-5.0,-1.0,-2.0,1651067580784895.0,0
764,0.0,0.0,-3.0,-4.0,0.0,-3.0,-2.0,-1.0,1651067580786818.0,0
765,-1.0,0.0,2.0,1.0,8.0,7.0,3.0,1.0,1651067580786818.0,0
766,0.0,0.0,-4.0,2.0,6.0,6.0,0.0,-2.0,1651067580798897.0,0
767,-1.0,0.0,-2.0,-1.0,-10.0,-6.0,-1.0,-1.0,1651067580798897.0,0
768,-1.0,-1.0,-1.0,-2.0,-8.0,-6.0,-1.0,-1.0,1651067580807383.0,0
769,0.0,2.0,4.0,2.0,1.0,5.0,0.0,-2.0,1651067580807383.0,0
770,-1.0,-4.0,-6.0,2.0,15.0,14.0,3.0,2.0,1651067580822607.0,0
771,2.0,1.0,1.0,-1.0,0.0,3.0,2.0,0.0,1651067580822607.0,0
772,1.0,2.0,3.0,3.0,5.0,2.0,1.0,-1.0,1651067580824603.0,0
773,0.0,0.0,2.0,-2.0,-1.0,-1.0,-1.0,0.0,1651067580824603.0,0
774,-2.0,-1.0,-4.0,-3.0,-6.0,-7.0,-5.0,-3.0,1651067580845473.0,0
775,1.0,3.0,6.0,3.0,-2.0,-4.0,-2.0,0.0,1651067580845473.0,0
776,-1.0,-6.0,-11.0,-3.0,5.0,3.0,0.0,0.0,1651067580846473.0,0
777,-1.0,-2.0,-3.0,-2.0,-9.0,-2.0,-3.0,0.0,1651067580846473.0,0
778,2.0,3.0,13.0,10.0,10.0,9.0,4.0,3.0,1651067580858497.0,0
779,-1.0,-2.0,-7.0,-8.0,-6.0,-5.0,-4.0,-3.0,1651067580858497.0,0
780,0.0,2.0,9.0,6.0,3.0,-3.0,-1.0,0.0,1651067580867416.0,0
781,2.0,2.0,0.0,-5.0,-2.0,3.0,1.0,1.0,1651067580867416.0,0
782,-2.0,-3.0,-3.0,-2.0,-13.0,-10.0,-2.0,-1.0,1651067580882467.0,0
783,-3.0,0.0,-2.0,2.0,8.0,-1.0,-1.0,1.0,1651067580882467.0,0
784,3.0,9.0,22.0,8.0,2.0,16.0,4.0,2.0,1651067580884491.0,0
785,-4.0,-9.0,-19.0,-8.0,14.0,10.0,3.0,-1.0,1651067580884491.0,0
786,0.0,-1.0,-2.0,-7.0,-9.0,-5.0,-1.0,0.0,1651067580904845.0,0
787,-1.0,1.0,7.0,0.0,-3.0,-3.0,0.0,-2.0,1651067580904845.0,0
788,-2.0,-3.0,-16.0,-10.0,-9.0,-9.0,-5.0,-1.0,1651067580906774.0,0
789,2.0,5.0,13.0,9.0,5.0,0.0,-1.0,-1.0,1651067580906774.0,0
790,0.0,2.0,-1.0,2.0,2.0,2.0,-4.0,-1.0,1651067580927870.0,0
791,-1.0,-4.0,-6.0,-2.0,9.0,9.0,5.0,1.0,1651067580927870.0,0
792,1.0,3.0,12.0,5.0,2.0,-1.0,0.0,0.0,1651067580928809.0,0
793,-2.0,-3.0,-7.0,-7.0,-12.0,-6.0,-3.0,-1.0,1651067580928809.0,0
794,-2.0,-6.0,-12.0,-9.0,-13.0,-11.0,-4.0,0.0,1651067580942953.0,0
795,2.0,0.0,2.0,3.0,9.0,1.0,-4.0,0.0,1651067580942953.0,2
796,-4.0,-3.0,4.0,2.0,17.0,11.0,3.0,-1.0,1651067580943892.0,2
797,0.0,-3.0,-8.0,-6.0,-9.0,-6.0,0.0,0.0,1651067580943892.0,2
798,-1.0,1.0,0.0,-2.0,-4.0,-4.0,0.0,-1.0,1651067580965144.0,2
799,-3.0,-5.0,-8.0,-9.0,-11.0,-7.0,-3.0,1.0,1651067580965144.0,2
800,4.0,1.0,-1.0,-3.0,-7.0,-8.0,0.0,0.0,1651067580966139.0,2
801,-3.0,-3.0,-4.0,2.0,16.0,12.0,1.0,-3.0,1651067580966139.0,2
802,-3.0,-1.0,-5.0,-5.0,0.0,0.0,0.0,0.0,1651067580979151.0,2
803,4.0,2.0,3.0,-4.0,-24.0,-10.0,-1.0,-2.0,1651067580979151.0,2
804,-3.0,-4.0,-4.0,1.0,3.0,-3.0,-2.0,-1.0,1651067580988082.0,2
805,3.0,2.0,4.0,10.0,24.0,11.0,4.0,3.0,1651067580988082.0,2
806,1.0,4.0,4.0,1.0,-3.0,-1.0,-1.0,1.0,1651067581001412.0,2
807,-4.0,-1.0,3.0,5.0,9.0,3.0,-1.0,-3.0,1651067581001412.0,2
808,0.0,-4.0,-11.0,-4.0,-14.0,-2.0,0.0,-2.0,1651067581010324.0,2
809,3.0,10.0,22.0,7.0,-3.0,-3.0,1.0,4.0,1651067581010324.0,2
810,-3.0,-8.0,-13.0,-10.0,-3.0,-5.0,-5.0,-5.0,1651067581025293.0,2
811,1.0,-1.0,-8.0,-5.0,5.0,1.0,4.0,8.0,1651067581025293.0,2
812,-2.0,2.0,6.0,9.0,8.0,0.0,-4.0,-9.0,1651067581026350.0,2
813,-3.0,-3.0,-4.0,-3.0,-6.0,-3.0,0.0,-1.0,1651067581026350.0,2
814,-5.0,0.0,1.0,4.0,8.0,5.0,-2.0,-4.0,1651067581039360.0,2
815,-2.0,-5.0,-12.0,-3.0,-10.0,-7.0,-7.0,-7.0,1651067581039360.0,2
816,-13.0,-8.0,-3.0,-10.0,-1.0,0.0,-1.0,1.0,1651067581047351.0,2
817,1.0,-2.0,-7.0,1.0,8.0,-5.0,-3.0,-17.0,1651067581047351.0,2
818,30.0,6.0,-3.0,-11.0,-14.0,-7.0,15.0,66.0,1651067581061707.0,2
819,-2.0,9.0,20.0,19.0,9.0,7.0,5.0,-5.0,1651067581061707.0,2
820,-8.0,-12.0,-21.0,-9.0,-11.0,-13.0,-16.0,-22.0,1651067581068706.0,2
821,1.0,3.0,0.0,-14.0,-30.0,-9.0,8.0,2.0,1651067581068706.0,2
822,-28.0,-16.0,-15.0,-3.0,8.0,0.0,-8.0,-32.0,1651067581084835.0,2
823,2.0,-10.0,-32.0,-18.0,-1.0,-1.0,3.0,3.0,1651067581084835.0,2
824,12.0,-1.0,-7.0,-17.0,-30.0,-18.0,-2.0,31.0,1651067581086769.0,2
825,-10.0,-10.0,-9.0,0.0,9.0,-4.0,-12.0,-12.0,1651067581086769.0,2
826,11.0,12.0,16.0,11.0,13.0,9.0,0.0,-12.0,1651067581107187.0,2
827,-13.0,-14.0,-12.0,-16.0,-19.0,-14.0,-13.0,2.0,1651067581107187.0,2
828,-10.0,-2.0,-1.0,9.0,4.0,7.0,3.0,-19.0,1651067581109119.0,2
829,17.0,6.0,6.0,20.0,47.0,27.0,4.0,32.0,1651067581109119.0,2
830,-24.0,-16.0,-11.0,-25.0,-40.0,-24.0,-11.0,-26.0,1651067581122250.0,2
831,-13.0,-2.0,0.0,3.0,3.0,-4.0,-2.0,-42.0,1651067581122250.0,2
832,23.0,10.0,9.0,3.0,-6.0,5.0,-2.0,55.0,1651067581129234.0,2
833,9.0,12.0,23.0,20.0,33.0,14.0,-1.0,4.0,1651067581129234.0,2
834,1.0,6.0,8.0,9.0,0.0,0.0,1.0,-17.0,1651067581145357.0,2
835,-6.0,-5.0,-8.0,1.0,5.0,5.0,-5.0,-8.0,1651067581145357.0,2
836,-23.0,-16.0,-15.0,-13.0,-10.0,-7.0,-2.0,-35.0,1651067581146357.0,2
837,9.0,0.0,-5.0,-2.0,-18.0,-10.0,-1.0,50.0,1651067581146357.0,2
838,2.0,8.0,9.0,-12.0,-23.0,-4.0,8.0,-6.0,1651067581167555.0,2
839,-12.0,-11.0,-5.0,4.0,28.0,11.0,-1.0,-25.0,1651067581167555.0,2
840,27.0,17.0,11.0,10.0,24.0,11.0,6.0,29.0,1651067581169484.0,2
841,-17.0,-11.0,-21.0,-18.0,-21.0,-15.0,-16.0,-36.0,1651067581169484.0,2
842,3.0,-1.0,0.0,2.0,3.0,-9.0,-8.0,6.0,1651067581181518.0,2
843,-1.0,-4.0,-6.0,-10.0,-21.0,3.0,8.0,8.0,1651067581181518.0,2
844,-3.0,9.0,16.0,5.0,0.0,-1.0,10.0,-13.0,1651067581188500.0,2
845,2.0,-2.0,-2.0,0.0,-16.0,-13.0,1.0,5.0,1651067581188500.0,2
846,-3.0,-3.0,-2.0,1.0,15.0,8.0,5.0,3.0,1651067581205607.0,2
847,10.0,11.0,18.0,8.0,12.0,3.0,-1.0,10.0,1651067581205607.0,2
848,-4.0,-4.0,-11.0,-24.0,-23.0,-6.0,8.0,1.0,1651067581207535.0,2
849,-3.0,-2.0,-1.0,-8.0,-19.0,-11.0,-12.0,-8.0,1651067581207535.0,2
850,0.0,11.0,13.0,14.0,0.0,4.0,15.0,-8.0,1651067581227678.0,2
851,10.0,6.0,6.0,-6.0,1.0,7.0,28.0,32.0,1651067581227678.0,2
852,3.0,-1.0,1.0,19.0,21.0,12.0,-6.0,-11.0,1651067581228637.0,2
853,-2.0,0.0,9.0,2.0,-5.0,-7.0,1.0,-6.0,1651067581228637.0,2
854,4.0,-2.0,-4.0,-21.0,-18.0,-5.0,-8.0,6.0,1651067581241710.0,2
855,-2.0,12.0,14.0,31.0,31.0,5.0,-10.0,-5.0,1651067581241710.0,2
856,-4.0,-22.0,-14.0,-13.0,14.0,11.0,5.0,-2.0,1651067581248758.0,2
857,-6.0,-1.0,-1.0,0.0,-11.0,3.0,13.0,-5.0,1651067581248758.0,2
858,8.0,-4.0,-3.0,8.0,-4.0,-6.0,-24.0,17.0,1651067581265359.0,2
859,18.0,13.0,17.0,-2.0,-10.0,-6.0,3.0,20.0,1651067581265359.0,2
860,-14.0,-5.0,-8.0,-7.0,-6.0,-13.0,-12.0,-14.0,1651067581266359.0,2
861,-9.0,-4.0,0.0,0.0,-23.0,-1.0,0.0,-20.0,1651067581266359.0,2
862,-1.0,0.0,6.0,10.0,32.0,9.0,2.0,-6.0,1651067581287482.0,2
863,0.0,1.0,-5.0,-13.0,-24.0,-6.0,5.0,7.0,1651067581287482.0,2
864,2.0,-3.0,-7.0,-7.0,-6.0,-7.0,-10.0,-1.0,1651067581289440.0,2
865,3.0,-1.0,-6.0,-17.0,-14.0,-6.0,-1.0,9.0,1651067581289440.0,2
866,-4.0,1.0,3.0,11.0,14.0,-2.0,0.0,-5.0,1651067581301687.0,2
867,-9.0,-8.0,-4.0,5.0,19.0,17.0,-1.0,-14.0,1651067581301687.0,2
868,19.0,12.0,5.0,24.0,19.0,13.0,9.0,31.0,1651067581315836.0,2
869,-13.0,-14.0,-9.0,-12.0,-6.0,0.0,-10.0,-25.0,1651067581315836.0,2
870,7.0,-1.0,-9.0,1.0,-10.0,5.0,11.0,26.0,1651067581324813.0,2
871,8.0,-2.0,-9.0,-12.0,6.0,-2.0,9.0,10.0,1651067581324813.0,2
872,-8.0,2.0,14.0,35.0,9.0,3.0,-5.0,-18.0,1651067581326741.0,2
873,-2.0,6.0,9.0,-10.0,-8.0,-9.0,-15.0,-16.0,1651067581326741.0,2
874,-7.0,-2.0,4.0,14.0,13.0,5.0,-6.0,-6.0,1651067581347901.0,2
875,-6.0,-14.0,-20.0,-31.0,-36.0,-6.0,3.0,6.0,1651067581347901.0,2
876,5.0,2.0,1.0,3.0,17.0,4.0,5.0,4.0,1651067581348832.0,2
877,-3.0,4.0,4.0,13.0,9.0,-7.0,1.0,-2.0,1651067581348832.0,2
878,2.0,5.0,12.0,-6.0,-16.0,1.0,-5.0,-11.0,1651067581361864.0,2
879,-2.0,8.0,10.0,18.0,30.0,6.0,-4.0,-7.0,1651067581361864.0,2
880,-9.0,-15.0,-21.0,-18.0,-15.0,-9.0,-8.0,-6.0,1651067581368845.0,2
881,18.0,-1.0,0.0,13.0,4.0,5.0,2.0,20.0,1651067581368845.0,2
882,-6.0,-5.0,-13.0,-16.0,4.0,12.0,20.0,-4.0,1651067581385362.0,2
883,4.0,10.0,23.0,19.0,2.0,-12.0,-16.0,-3.0,1651067581385362.0,2
884,-7.0,5.0,-5.0,-19.0,-25.0,1.0,1.0,-13.0,1651067581386362.0,2
885,-4.0,-1.0,-4.0,-4.0,21.0,-2.0,-11.0,15.0,1651067581386362.0,2
886,13.0,5.0,10.0,6.0,0.0,3.0,10.0,11.0,1651067581407705.0,2
887,0.0,-9.0,-5.0,-2.0,-12.0,-11.0,-2.0,2.0,1651067581407705.0,2
888,0.0,11.0,12.0,4.0,-12.0,-10.0,0.0,-11.0,1651067581408635.0,2
889,-4.0,-2.0,-8.0,-7.0,0.0,13.0,12.0,0.0,1651067581408635.0,2
890,-5.0,-6.0,-4.0,1.0,3.0,-9.0,-22.0,-9.0,1651067581421853.0,2
891,-3.0,-5.0,-10.0,-11.0,-14.0,-8.0,-13.0,-5.0,1651067581421853.0,2
892,-6.0,-6.0,9.0,7.0,4.0,-8.0,-6.0,-6.0,1651067581429057.0,2
893,-3.0,5.0,9.0,3.0,7.0,12.0,3.0,-11.0,1651067581429057.0,2
894,1.0,6.0,6.0,6.0,-1.0,-7.0,-2.0,3.0,1651067581445281.0,2
895,5.0,4.0,5.0,2.0,-5.0,6.0,13.0,6.0,1651067581445281.0,2
896,-1.0,-1.0,-8.0,-8.0,5.0,-4.0,-11.0,0.0,1651067581446315.0,2
897,3.0,2.0,0.0,9.0,15.0,9.0,20.0,10.0,1651067581446315.0,2
898,-4.0,-3.0,-4.0,3.0,9.0,4.0,0.0,-7.0,1651067581467385.0,2
899,-7.0,-1.0,-6.0,-5.0,-9.0,-2.0,-10.0,-30.0,1651067581467385.0,2
900,13.0,5.0,4.0,0.0,-5.0,-7.0,10.0,40.0,1651067581469342.0,2
901,-1.0,-8.0,-17.0,-17.0,-9.0,-6.0,7.0,0.0,1651067581469342.0,2
902,-6.0,-6.0,-6.0,-3.0,-6.0,1.0,-2.0,-7.0,1651067581482690.0,2
903,-8.0,-4.0,-7.0,-6.0,-3.0,-8.0,-4.0,-5.0,1651067581482690.0,2
904,-12.0,-5.0,0.0,4.0,-10.0,8.0,0.0,-30.0,1651067581489149.0,2
905,11.0,7.0,0.0,-2.0,14.0,-1.0,-4.0,26.0,1651067581489149.0,2
906,1.0,3.0,4.0,-1.0,-9.0,-4.0,-2.0,3.0,1651067581505487.0,2
907,-3.0,-5.0,1.0,1.0,7.0,-4.0,-11.0,-14.0,1651067581505487.0,2
908,0.0,6.0,10.0,-4.0,6.0,11.0,7.0,-1.0,1651067581506391.0,2
909,1.0,-1.0,-1.0,3.0,-13.0,-6.0,2.0,3.0,1651067581506391.0,2
910,-2.0,-3.0,-13.0,-11.0,0.0,-3.0,-1.0,-11.0,1651067581527497.0,2
911,-1.0,-7.0,1.0,-4.0,-21.0,-7.0,-5.0,6.0,1651067581527497.0,2
912,5.0,3.0,5.0,10.0,10.0,3.0,5.0,10.0,1651067581529426.0,2
913,-9.0,-3.0,-5.0,-4.0,6.0,9.0,-8.0,-27.0,1651067581529426.0,2
914,7.0,9.0,6.0,0.0,8.0,2.0,14.0,19.0,1651067581542391.0,2
915,10.0,5.0,10.0,11.0,-7.0,3.0,5.0,19.0,1651067581542391.0,2
916,3.0,-2.0,-7.0,-2.0,15.0,0.0,-4.0,-1.0,1651067581548442.0,2
917,-6.0,-2.0,3.0,4.0,11.0,4.0,-2.0,-13.0,1651067581548442.0,2
918,-4.0,-1.0,-6.0,-2.0,-5.0,2.0,-6.0,-22.0,1651067581565861.0,2
919,16.0,5.0,6.0,5.0,9.0,3.0,3.0,49.0,1651067581565861.0,2
920,-9.0,3.0,14.0,8.0,-5.0,-9.0,0.0,-21.0,1651067581566671.0,2
921,3.0,3.0,-1.0,-3.0,-2.0,0.0,-9.0,2.0,1651067581566671.0,2
922,1.0,-2.0,2.0,10.0,26.0,4.0,2.0,6.0,1651067581587360.0,2
923,-7.0,-2.0,-7.0,-4.0,-1.0,0.0,-3.0,-15.0,1651067581587360.0,2
924,-10.0,-7.0,-10.0,-10.0,-11.0,-5.0,-12.0,-3.0,1651067581589354.0,2
925,-2.0,-5.0,-3.0,-7.0,-21.0,-15.0,1.0,-10.0,1651067581589354.0,2
926,-3.0,1.0,-3.0,9.0,17.0,2.0,-5.0,-5.0,1651067581601471.0,2
927,17.0,11.0,12.0,7.0,6.0,2.0,6.0,24.0,1651067581601471.0,2
928,0.0,-6.0,-12.0,-8.0,-10.0,3.0,6.0,0.0,1651067581610467.0,2
929,-3.0,2.0,8.0,2.0,-12.0,-7.0,-8.0,-8.0,1651067581610467.0,2
930,-1.0,-7.0,-4.0,-2.0,5.0,3.0,4.0,11.0,1651067581625410.0,2
931,-10.0,-6.0,-8.0,-15.0,-18.0,-16.0,1.0,-17.0,1651067581625410.0,2
932,-6.0,-7.0,-6.0,7.0,28.0,26.0,-3.0,-11.0,1651067581626406.0,2
933,-4.0,1.0,-2.0,0.0,-20.0,-9.0,1.0,1.0,1651067581626406.0,2
934,1.0,1.0,-2.0,3.0,-3.0,-4.0,-9.0,4.0,1651067581647565.0,2
935,7.0,8.0,11.0,4.0,14.0,10.0,14.0,9.0,1651067581647565.0,2
936,-7.0,-8.0,-14.0,-17.0,-22.0,-21.0,-13.0,-16.0,1651067581649494.0,2
937,4.0,1.0,3.0,2.0,-16.0,-2.0,7.0,6.0,1651067581649494.0,2
938,-1.0,-2.0,5.0,4.0,14.0,4.0,10.0,6.0,1651067581661464.0,2
939,-4.0,1.0,-6.0,8.0,17.0,-5.0,-9.0,-17.0,1651067581661464.0,2
940,6.0,12.0,13.0,5.0,-8.0,1.0,4.0,8.0,1651067581670438.0,2
941,0.0,-7.0,-16.0,-17.0,-9.0,-6.0,-4.0,-2.0,1651067581670438.0,2
942,4.0,-6.0,-3.0,-11.0,-20.0,-13.0,-19.0,15.0,1651067581685224.0,2
943,6.0,0.0,-1.0,8.0,5.0,18.0,23.0,6.0,1651067581685224.0,2
944,-18.0,-10.0,-4.0,-3.0,13.0,-3.0,-5.0,-21.0,1651067581686373.0,2
945,-4.0,0.0,0.0,2.0,-4.0,0.0,-7.0,1.0,1651067581686373.0,2
946,13.0,5.0,9.0,10.0,9.0,7.0,5.0,8.0,1651067581707384.0,2
947,-5.0,-5.0,-7.0,-11.0,-3.0,-2.0,-10.0,-2.0,1651067581707384.0,2
948,12.0,6.0,8.0,8.0,1.0,4.0,12.0,14.0,1651067581709339.0,2
949,-9.0,7.0,8.0,9.0,16.0,3.0,0.0,-12.0,1651067581709339.0,2
950,-1.0,-5.0,1.0,-3.0,-17.0,0.0,1.0,1.0,1651067581721282.0,2
951,0.0,-4.0,-4.0,3.0,6.0,1.0,-7.0,-2.0,1651067581721282.0,2
952,4.0,3.0,-1.0,-4.0,4.0,7.0,6.0,7.0,1651067581730256.0,2
953,2.0,-1.0,3.0,-7.0,-20.0,-10.0,3.0,3.0,1651067581730256.0,2
954,-1.0,0.0,-4.0,11.0,18.0,8.0,-4.0,-5.0,1651067581745435.0,2
955,-11.0,-7.0,-9.0,-8.0,-5.0,-6.0,-17.0,-14.0,1651067581745435.0,2
956,7.0,2.0,-2.0,3.0,5.0,-7.0,12.0,25.0,1651067581746365.0,2
957,7.0,1.0,2.0,1.0,-1.0,6.0,10.0,4.0,1651067581746365.0,2
958,-2.0,2.0,3.0,1.0,-1.0,-4.0,-1.0,0.0,1651067581767665.0,2
959,-6.0,1.0,0.0,4.0,5.0,1.0,-3.0,-12.0,1651067581767665.0,2
960,3.0,0.0,-3.0,0.0,-5.0,-11.0,-14.0,-1.0,1651067581769614.0,2
961,0.0,7.0,13.0,16.0,21.0,14.0,15.0,14.0,1651067581769614.0,2
962,-3.0,-2.0,2.0,-15.0,-14.0,-6.0,-7.0,-10.0,1651067581781653.0,2
963,2.0,1.0,4.0,2.0,-4.0,-5.0,-1.0,-2.0,1651067581781653.0,2
964,3.0,1.0,-1.0,-1.0,-2.0,-1.0,3.0,14.0,1651067581789822.0,2
965,7.0,3.0,0.0,8.0,15.0,4.0,-1.0,4.0,1651067581789822.0,2
966,-15.0,-4.0,-7.0,-11.0,-17.0,-1.0,-2.0,-12.0,1651067581804721.0,2
967,-2.0,-2.0,4.0,10.0,36.0,16.0,6.0,-3.0,1651067581804721.0,2
968,5.0,-2.0,-11.0,-3.0,-21.0,-11.0,3.0,10.0,1651067581806715.0,2
969,11.0,2.0,12.0,3.0,7.0,7.0,4.0,30.0,1651067581806715.0,2
970,-1.0,-1.0,-10.0,-13.0,-18.0,-9.0,10.0,-4.0,1651067581828000.0,2
971,-3.0,1.0,-3.0,-6.0,-9.0,4.0,3.0,-4.0,1651067581828000.0,2
972,-2.0,0.0,3.0,5.0,19.0,2.0,1.0,-2.0,1651067581829000.0,2
973,-13.0,-6.0,-5.0,-1.0,-2.0,-9.0,-15.0,-22.0,1651067581829000.0,2
974,4.0,8.0,9.0,9.0,8.0,8.0,5.0,3.0,1651067581841054.0,2
975,9.0,6.0,1.0,-5.0,-22.0,-15.0,-6.0,8.0,1651067581841054.0,2
976,-7.0,-5.0,-11.0,-5.0,3.0,5.0,-3.0,-12.0,1651067581849882.0,2
977,2.0,-2.0,-4.0,3.0,-4.0,-5.0,0.0,4.0,1651067581849882.0,2
978,-7.0,-8.0,-4.0,-8.0,-12.0,-13.0,-5.0,-9.0,1651067581864545.0,2
979,3.0,4.0,3.0,7.0,26.0,24.0,12.0,4.0,1651067581864545.0,2
980,2.0,3.0,2.0,-12.0,-29.0,-9.0,-6.0,-8.0,1651067581872312.0,2
981,0.0,-6.0,-11.0,-1.0,7.0,-14.0,-6.0,0.0,1651067581872312.0,2
982,1.0,-1.0,3.0,10.0,21.0,10.0,-6.0,1.0,1651067581887532.0,2
983,-6.0,-2.0,-7.0,-16.0,-18.0,-13.0,5.0,-7.0,1651067581887532.0,2
984,3.0,2.0,3.0,-1.0,0.0,3.0,9.0,19.0,1651067581889525.0,2
985,-6.0,0.0,-4.0,2.0,1.0,-1.0,5.0,-16.0,1651067581889525.0,2
986,9.0,4.0,2.0,1.0,0.0,7.0,2.0,6.0,1651067581909643.0,2
987,-7.0,-2.0,6.0,6.0,-3.0,-1.0,-1.0,-7.0,1651067581909643.0,2
988,-5.0,-4.0,2.0,0.0,-9.0,-7.0,-6.0,0.0,1651067581911638.0,2
989,0.0,2.0,2.0,-4.0,-8.0,1.0,-3.0,-6.0,1651067581911638.0,2
990,-1.0,-6.0,-8.0,-4.0,-19.0,-8.0,2.0,-1.0,1651067581925477.0,2
991,0.0,-2.0,-2.0,-1.0,-7.0,1.0,1.0,5.0,1651067581925477.0,2
992,-3.0,4.0,4.0,3.0,0.0,-6.0,-3.0,-14.0,1651067581926359.0,2
993,4.0,-3.0,-3.0,-2.0,8.0,5.0,1.0,16.0,1651067581926359.0,2
994,-3.0,-2.0,-4.0,-6.0,-4.0,0.0,-9.0,-4.0,1651067581947157.0,2
995,2.0,-3.0,0.0,3.0,-5.0,-5.0,9.0,5.0,1651067581947157.0,2
996,-1.0,-2.0,-1.0,-5.0,0.0,3.0,-2.0,-6.0,1651067581949086.0,2
997,-3.0,-3.0,-2.0,-3.0,8.0,5.0,-1.0,-1.0,1651067581949086.0,2
998,4.0,5.0,-1.0,5.0,6.0,2.0,8.0,4.0,1651067581961120.0,2
999,-2.0,-1.0,4.0,-1.0,0.0,-5.0,-15.0,-8.0,1651067581961120.0,2
1000,-2.0,-1.0,-3.0,-8.0,-10.0,-1.0,0.0,5.0,1651067581970036.0,2
1001,-3.0,-3.0,0.0,2.0,8.0,-3.0,-10.0,-11.0,1651067581970036.0,2
1002,0.0,-2.0,0.0,-5.0,-7.0,-2.0,14.0,8.0,1651067581985679.0,2
1003,-1.0,-1.0,8.0,-2.0,-6.0,-2.0,-1.0,1.0,1651067581985679.0,2
1004,-1.0,0.0,-16.0,1.0,7.0,7.0,-10.0,-7.0,1651067581986555.0,2
1005,0.0,-1.0,2.0,-4.0,-4.0,3.0,-1.0,1.0,1651067581986555.0,2
1006,-3.0,-1.0,0.0,2.0,0.0,-4.0,7.0,1.0,1651067582007756.0,2
1007,-2.0,0.0,-2.0,3.0,4.0,0.0,-1.0,-3.0,1651067582007756.0,2
1008,-1.0,0.0,8.0,1.0,6.0,5.0,1.0,-7.0,1651067582009685.0,2
1009,0.0,-3.0,-5.0,-1.0,-2.0,-1.0,-7.0,9.0,1651067582009685.0,2
1010,-3.0,-3.0,-5.0,-9.0,-10.0,-6.0,-10.0,-7.0,1651067582037350.0,2
1011,0.0,1.0,0.0,3.0,1.0,2.0,0.0,5.0,1651067582037350.0,2
1012,0.0,-4.0,-1.0,1.0,-2.0,-3.0,-1.0,-3.0,1651067582039333.0,2
1013,-2.0,-1.0,-4.0,0.0,-1.0,1.0,5.0,-5.0,1651067582039333.0,2
1014,1.0,2.0,13.0,4.0,8.0,3.0,-4.0,0.0,1651067582045403.0,2
1015,-4.0,-5.0,-12.0,-3.0,-8.0,-2.0,-3.0,0.0,1651067582045403.0,2
1016,4.0,1.0,0.0,0.0,5.0,0.0,-3.0,3.0,1651067582046319.0,2
1017,-2.0,0.0,1.0,-1.0,-1.0,1.0,-1.0,-8.0,1651067582046319.0,2
1018,0.0,3.0,6.0,8.0,6.0,5.0,14.0,2.0,1651067582066428.0,2
1019,3.0,0.0,-5.0,-2.0,-10.0,-7.0,-7.0,8.0,1651067582066428.0,2
1020,3.0,3.0,13.0,3.0,7.0,7.0,8.0,2.0,1651067582075294.0,2
1021,-3.0,-4.0,-5.0,-3.0,-3.0,-2.0,-5.0,-2.0,1651067582075294.0,2
1022,-2.0,-3.0,-4.0,1.0,2.0,0.0,-7.0,-9.0,1651067582090551.0,2
1023,-1.0,0.0,-1.0,-2.0,-4.0,-5.0,-1.0,-2.0,1651067582090551.0,2
1024,-1.0,-1.0,-3.0,5.0,5.0,2.0,2.0,4.0,1651067582091551.0,2
1025,1.0,-1.0,3.0,-1.0,5.0,4.0,11.0,4.0,1651067582091551.0,2
1026,1.0,0.0,3.0,-2.0,-8.0,-3.0,4.0,3.0,1651067582105021.0,2
1027,0.0,-4.0,-22.0,-7.0,2.0,1.0,0.0,0.0,1651067582105021.0,2
1028,0.0,2.0,6.0,-1.0,-6.0,2.0,-3.0,-2.0,1651067582107021.0,2
1029,0.0,1.0,0.0,-3.0,-3.0,-2.0,0.0,-3.0,1651067582107021.0,2
1030,-2.0,-1.0,2.0,1.0,2.0,3.0,-2.0,-2.0,1651067582128073.0,2
1031,-2.0,0.0,0.0,-1.0,-1.0,-2.0,-2.0,1.0,1651067582128073.0,2
1032,0.0,-2.0,-3.0,-2.0,-1.0,-1.0,1.0,0.0,1651067582129070.0,2
1033,0.0,0.0,-2.0,-2.0,-4.0,-1.0,-1.0,0.0,1651067582129070.0,2
1034,-1.0,0.0,-6.0,1.0,14.0,-4.0,-8.0,-3.0,1651067582150288.0,2
1035,-1.0,-1.0,2.0,1.0,-2.0,4.0,1.0,-2.0,1651067582150288.0,2
1036,0.0,0.0,3.0,4.0,12.0,2.0,-1.0,2.0,1651067582156258.0,2
1037,1.0,0.0,4.0,-2.0,-4.0,-4.0,-3.0,-2.0,1651067582156258.0,2
1038,-1.0,-2.0,-3.0,1.0,-6.0,-2.0,-1.0,-2.0,1651067582164828.0,2
1039,-3.0,-3.0,-6.0,3.0,8.0,-1.0,-10.0,-9.0,1651067582164828.0,2
1040,2.0,0.0,10.0,-10.0,-6.0,0.0,4.0,8.0,1651067582171634.0,2
1041,-1.0,1.0,-8.0,-19.0,-17.0,-4.0,2.0,1.0,1651067582171634.0,2
1042,-1.0,2.0,-1.0,3.0,4.0,1.0,-3.0,-3.0,1651067582187581.0,2
1043,-2.0,-3.0,-2.0,-12.0,-8.0,-2.0,3.0,-1.0,1651067582187581.0,2
1044,0.0,3.0,2.0,15.0,-3.0,-1.0,2.0,-1.0,1651067582189564.0,2
1045,-3.0,-4.0,-6.0,2.0,7.0,1.0,-8.0,-4.0,1651067582189564.0,2
1046,3.0,4.0,18.0,-10.0,-17.0,1.0,13.0,3.0,1651067582209762.0,2
1047,1.0,-1.0,-4.0,5.0,6.0,2.0,7.0,8.0,1651067582209762.0,2
1048,-1.0,-3.0,-5.0,-18.0,-8.0,-8.0,-4.0,-6.0,1651067582211691.0,2
1049,0.0,2.0,0.0,5.0,11.0,3.0,-1.0,0.0,1651067582211691.0,2
1050,-3.0,-4.0,-14.0,-2.0,0.0,-5.0,-6.0,-4.0,1651067582224796.0,2
1051,1.0,-1.0,22.0,18.0,-3.0,0.0,-1.0,-1.0,1651067582224796.0,2
1052,-2.0,-1.0,-7.0,13.0,8.0,-1.0,-1.0,-3.0,1651067582230849.0,2
1053,0.0,1.0,0.0,-2.0,3.0,4.0,7.0,4.0,1651067582230849.0,2
1054,-1.0,-3.0,-6.0,0.0,-2.0,-3.0,-11.0,-4.0,1651067582247804.0,2
1055,-1.0,3.0,4.0,-6.0,3.0,1.0,6.0,1.0,1651067582247804.0,2
1056,1.0,-2.0,-4.0,-5.0,-4.0,2.0,7.0,2.0,1651067582248733.0,2
1057,-3.0,-3.0,-14.0,1.0,-5.0,-5.0,-14.0,-9.0,1651067582248733.0,2
1058,2.0,4.0,20.0,-2.0,3.0,6.0,24.0,18.0,1651067582270468.0,2
1059,-3.0,-2.0,6.0,25.0,6.0,-3.0,-8.0,-5.0,1651067582270468.0,2
1060,-2.0,-3.0,-19.0,-2.0,15.0,2.0,-1.0,-4.0,1651067582272182.0,2
1061,1.0,4.0,17.0,10.0,-18.0,-5.0,-2.0,0.0,1651067582272182.0,2
1062,1.0,-4.0,-24.0,-13.0,-14.0,-4.0,-1.0,4.0,1651067582284793.0,2
1063,-3.0,-5.0,6.0,-42.0,-8.0,-6.0,3.0,-2.0,1651067582284793.0,2
1064,-3.0,-2.0,14.0,49.0,17.0,4.0,4.0,3.0,1651067582291358.0,2
1065,0.0,-2.0,-6.0,-48.0,0.0,2.0,2.0,-2.0,1651067582291358.0,2
1066,-4.0,-5.0,-7.0,34.0,12.0,-6.0,-9.0,-6.0,1651067582315362.0,2
1067,3.0,6.0,1.0,17.0,-7.0,2.0,3.0,3.0,1651067582315362.0,2
1068,0.0,1.0,2.0,-17.0,0.0,1.0,-6.0,-4.0,1651067582316362.0,2
1069,0.0,-1.0,8.0,7.0,-5.0,-3.0,3.0,3.0,1651067582316362.0,2
1070,-1.0,6.0,9.0,-9.0,-7.0,-2.0,-4.0,-4.0,1651067582330503.0,2
1071,-1.0,-7.0,-28.0,-2.0,7.0,2.0,-1.0,-1.0,1651067582330503.0,2
1072,0.0,7.0,37.0,-2.0,-11.0,-5.0,-4.0,-2.0,1651067582331522.0,2
1073,-1.0,-4.0,-19.0,14.0,5.0,-2.0,1.0,0.0,1651067582331522.0,2
1074,2.0,0.0,-5.0,-5.0,3.0,4.0,0.0,-1.0,1651067582343976.0,2
1075,-1.0,2.0,11.0,-4.0,-5.0,-1.0,-3.0,-1.0,1651067582343976.0,2
1076,-2.0,-5.0,-28.0,-27.0,-8.0,-3.0,-6.0,-2.0,1651067582352258.0,2
1077,0.0,3.0,13.0,26.0,9.0,2.0,8.0,2.0,1651067582352258.0,2
1078,-3.0,-2.0,9.0,-8.0,-1.0,-1.0,-6.0,-5.0,1651067582367443.0,2
1079,14.0,14.0,10.0,4.0,-2.0,-5.0,-6.0,-2.0,1651067582367443.0,2
1080,-29.0,-27.0,-17.0,2.0,6.0,3.0,4.0,1.0,1651067582369371.0,2
1081,-3.0,-6.0,-11.0,-14.0,-12.0,-5.0,-2.0,-4.0,1651067582369371.0,2
1082,-2.0,0.0,-1.0,7.0,3.0,1.0,-4.0,1.0,1651067582390549.0,2
1083,6.0,3.0,2.0,-1.0,1.0,6.0,4.0,1.0,1651067582390549.0,2
1084,10.0,8.0,4.0,-14.0,-6.0,-1.0,-2.0,0.0,1651067582391531.0,2
1085,0.0,2.0,12.0,32.0,11.0,4.0,0.0,0.0,1651067582391531.0,2
1086,-1.0,-4.0,-20.0,-15.0,-5.0,-2.0,-2.0,-2.0,1651067582403619.0,2
1087,-6.0,-3.0,2.0,1.0,1.0,-3.0,-4.0,-2.0,1651067582403619.0,2
1088,5.0,4.0,20.0,1.0,-6.0,-4.0,-3.0,-3.0,1651067582412598.0,2
1089,0.0,-2.0,-16.0,-10.0,0.0,2.0,1.0,4.0,1651067582412598.0,2
1090,5.0,6.0,19.0,8.0,3.0,2.0,3.0,1.0,1651067582427624.0,2
1091,-6.0,-4.0,-2.0,4.0,0.0,-3.0,0.0,0.0,1651067582427624.0,2
1092,4.0,5.0,-4.0,8.0,-6.0,0.0,1.0,1.0,1651067582429553.0,2
1093,3.0,1.0,0.0,-7.0,-1.0,0.0,-1.0,-1.0,1651067582429553.0,2
1094,-3.0,-6.0,-11.0,-6.0,-4.0,-3.0,-5.0,-4.0,1651067582449833.0,2
1095,-3.0,-1.0,7.0,-3.0,-9.0,-4.0,-1.0,-1.0,1651067582449833.0,2
1096,3.0,0.0,-8.0,9.0,5.0,1.0,1.0,1.0,1651067582451761.0,2
1097,-2.0,-3.0,-6.0,-20.0,-4.0,3.0,-1.0,-1.0,1651067582451761.0,2
1098,-2.0,1.0,3.0,9.0,14.0,4.0,1.0,-1.0,1651067582464177.0,2
1099,-5.0,-6.0,-35.0,-15.0,-9.0,-6.0,-2.0,-1.0,1651067582464177.0,2
1100,4.0,1.0,10.0,-3.0,-7.0,-2.0,0.0,0.0,1651067582472408.0,2
1101,0.0,7.0,47.0,12.0,-2.0,-3.0,-3.0,-2.0,1651067582472408.0,2
1102,1.0,-4.0,-18.0,-8.0,0.0,1.0,0.0,3.0,1651067582487750.0,2
1103,1.0,3.0,14.0,-7.0,0.0,0.0,-4.0,-6.0,1651067582487750.0,2
1104,0.0,3.0,4.0,13.0,3.0,0.0,0.0,2.0,1651067582488701.0,2
1105,17.0,14.0,-26.0,-23.0,-11.0,-5.0,4.0,1.0,1651067582488701.0,2
1106,-32.0,-32.0,11.0,4.0,2.0,-3.0,0.0,-4.0,1651067582510389.0,2
1107,-1.0,1.0,-1.0,-3.0,-8.0,-4.0,-3.0,-3.0,1651067582510389.0,2
1108,2.0,0.0,-1.0,3.0,2.0,0.0,-1.0,1.0,1651067582511356.0,2
1109,0.0,-1.0,-8.0,7.0,10.0,2.0,0.0,-1.0,1651067582511356.0,2
1110,9.0,10.0,-7.0,4.0,-7.0,-4.0,-1.0,0.0,1651067582524202.0,2
1111,-1.0,2.0,6.0,5.0,10.0,6.0,5.0,4.0,1651067582524202.0,2
1112,-1.0,-4.0,2.0,-1.0,0.0,-1.0,0.0,-3.0,1651067582532350.0,2
1113,-2.0,-6.0,-3.0,5.0,-4.0,-1.0,-1.0,0.0,1651067582532350.0,2
1114,5.0,7.0,-8.0,2.0,1.0,1.0,0.0,1.0,1651067582547381.0,2
1115,-5.0,-12.0,-15.0,-31.0,-9.0,-4.0,-2.0,-3.0,1651067582547381.0,2
1116,7.0,9.0,-3.0,-17.0,-6.0,-3.0,1.0,1.0,1651067582549342.0,2
1117,-7.0,-8.0,-1.0,9.0,5.0,2.0,-1.0,-1.0,1651067582549342.0,2
1118,2.0,5.0,4.0,-20.0,-18.0,-5.0,-1.0,-1.0,1651067582570507.0,2
1119,1.0,-2.0,0.0,12.0,9.0,5.0,3.0,4.0,1651067582570507.0,2
1120,-2.0,-1.0,-13.0,-6.0,-4.0,-1.0,-1.0,0.0,1651067582571467.0,2
1121,-4.0,-5.0,-25.0,-9.0,4.0,3.0,0.0,0.0,1651067582571467.0,2
1122,3.0,8.0,49.0,17.0,4.0,-1.0,-5.0,-1.0,1651067582592832.0,2
1123,2.0,2.0,14.0,-2.0,-10.0,-3.0,-1.0,0.0,1651067582592832.0,2
1124,-1.0,-4.0,-45.0,6.0,6.0,5.0,1.0,-3.0,1651067582593809.0,2
1125,-2.0,4.0,36.0,11.0,2.0,0.0,1.0,2.0,1651067582593809.0,2
1126,3.0,-2.0,-21.0,-17.0,-3.0,-1.0,-2.0,-2.0,1651067582607315.0,2
1127,1.0,3.0,12.0,19.0,6.0,-1.0,-1.0,-1.0,1651067582607315.0,2
1128,-2.0,1.0,-6.0,-13.0,-5.0,-4.0,0.0,1.0,1651067582609242.0,2
1129,-2.0,-3.0,-3.0,1.0,0.0,1.0,0.0,-1.0,1651067582609242.0,2
1130,3.0,4.0,5.0,9.0,0.0,-2.0,-2.0,-3.0,1651067582629877.0,2
1131,-2.0,0.0,-10.0,-5.0,-4.0,-2.0,0.0,0.0,1651067582629877.0,2
1132,-1.0,-5.0,-15.0,-12.0,-6.0,-2.0,-2.0,-1.0,1651067582631872.0,2
1133,0.0,0.0,34.0,11.0,1.0,-2.0,-1.0,0.0,1651067582631872.0,2
1134,-1.0,-1.0,-10.0,-10.0,-1.0,0.0,1.0,-2.0,1651067582643877.0,2
1135,-1.0,-2.0,-38.0,-1.0,12.0,8.0,2.0,1.0,1651067582643877.0,2
1136,1.0,5.0,31.0,8.0,-7.0,-1.0,1.0,2.0,1651067582652783.0,2
1137,-3.0,-4.0,0.0,0.0,-2.0,-4.0,-2.0,2.0,1651067582652783.0,2
1138,-5.0,-8.0,-27.0,-12.0,-4.0,0.0,0.0,0.0,1651067582667141.0,2
1139,1.0,4.0,22.0,11.0,5.0,2.0,1.0,-1.0,1651067582667141.0,2
1140,-1.0,-1.0,-6.0,8.0,3.0,0.0,1.0,0.0,1651067582669069.0,2
1141,-2.0,0.0,7.0,-13.0,-3.0,-3.0,-2.0,-3.0,1651067582669069.0,2
1142,1.0,0.0,-5.0,8.0,3.0,0.0,-2.0,-2.0,1651067582690467.0,2
1143,0.0,-3.0,-15.0,3.0,-1.0,0.0,1.0,0.0,1651067582690467.0,2
1144,-3.0,-3.0,12.0,-12.0,-2.0,-5.0,-3.0,-2.0,1651067582691845.0,2
1145,0.0,1.0,8.0,-1.0,-6.0,-1.0,-1.0,-2.0,1651067582691845.0,2
1146,1.0,0.0,-27.0,-2.0,2.0,-2.0,-1.0,-1.0,1651067582704152.0,2
1147,0.0,-2.0,-2.0,-3.0,-4.0,-1.0,-2.0,1.0,1651067582704152.0,2
1148,-1.0,0.0,12.0,5.0,2.0,2.0,-1.0,-2.0,1651067582712314.0,2
1149,-2.0,-2.0,-19.0,-2.0,4.0,-1.0,-1.0,-2.0,1651067582712314.0,2
1150,1.0,2.0,19.0,8.0,-1.0,-1.0,1.0,0.0,1651067582727322.0,2
1151,0.0,-2.0,-7.0,-19.0,-9.0,-4.0,-2.0,0.0,1651067582727322.0,2
1152,0.0,1.0,1.0,-4.0,0.0,2.0,0.0,-2.0,1651067582729351.0,2
1153,0.0,0.0,0.0,10.0,8.0,6.0,0.0,0.0,1651067582729351.0,2
1154,0.0,-2.0,-6.0,0.0,1.0,-1.0,1.0,1.0,1651067582749408.0,2
1155,-3.0,-4.0,-14.0,-2.0,-5.0,-4.0,0.0,-2.0,1651067582749408.0,2
1156,0.0,3.0,31.0,5.0,-6.0,-2.0,-2.0,0.0,1651067582757349.0,2
1157,0.0,-4.0,-3.0,4.0,-6.0,-1.0,1.0,-2.0,1651067582757349.0,2
1158,-1.0,-1.0,-18.0,-10.0,3.0,3.0,1.0,-1.0,1651067582764163.0,2
1159,-1.0,-1.0,7.0,-3.0,-1.0,1.0,1.0,0.0,1651067582764163.0,2
1160,-1.0,-2.0,-4.0,6.0,2.0,-2.0,-2.0,0.0,1651067582772285.0,2
1161,-2.0,4.0,5.0,6.0,0.0,-3.0,-2.0,2.0,1651067582772285.0,2
1162,1.0,1.0,8.0,3.0,1.0,1.0,-1.0,0.0,1651067582787391.0,2
1163,-1.0,2.0,4.0,0.0,-6.0,-3.0,0.0,-2.0,1651067582787391.0,2
1164,-1.0,-4.0,-5.0,0.0,4.0,5.0,1.0,0.0,1651067582789372.0,2
1165,1.0,-1.0,-7.0,-7.0,-8.0,-5.0,-2.0,-2.0,1651067582789372.0,2
1166,1.0,0.0,8.0,-1.0,0.0,-1.0,-1.0,1.0,1651067582810513.0,2
1167,0.0,-2.0,3.0,6.0,5.0,2.0,0.0,-1.0,1651067582810513.0,2
1168,1.0,0.0,-3.0,4.0,0.0,1.0,3.0,1.0,1651067582811513.0,2
1169,0.0,0.0,2.0,-5.0,-4.0,-2.0,1.0,1.0,1651067582811513.0,2
1170,-1.0,-1.0,-2.0,-3.0,-8.0,-6.0,-4.0,0.0,1651067582823872.0,2
1171,2.0,1.0,-3.0,-1.0,2.0,2.0,-2.0,0.0,1651067582823872.0,2
1172,-2.0,-4.0,-3.0,-9.0,-5.0,-3.0,-1.0,-1.0,1651067582833027.0,2
1173,0.0,-2.0,0.0,0.0,6.0,1.0,1.0,0.0,1651067582833027.0,2
1174,-1.0,3.0,23.0,27.0,3.0,1.0,0.0,0.0,1651067582847080.0,2
1175,-2.0,-5.0,-27.0,-27.0,-5.0,1.0,1.0,-1.0,1651067582847080.0,2
1176,0.0,3.0,7.0,-3.0,-11.0,-5.0,0.0,0.0,1651067582849072.0,2
1177,1.0,1.0,-5.0,-4.0,13.0,9.0,2.0,0.0,1651067582849072.0,2
1178,-2.0,-4.0,9.0,-1.0,-2.0,0.0,0.0,-1.0,1651067582870422.0,2
1179,-1.0,0.0,-2.0,6.0,-3.0,-5.0,-1.0,-2.0,1651067582870422.0,2
1180,1.0,-3.0,-2.0,2.0,4.0,5.0,2.0,1.0,1651067582872363.0,2
1181,0.0,3.0,-3.0,0.0,-4.0,-2.0,1.0,-1.0,1651067582872363.0,2
1182,-1.0,1.0,0.0,2.0,12.0,7.0,2.0,-1.0,1651067582883387.0,2
1183,-2.0,0.0,-2.0,-6.0,-3.0,-1.0,-2.0,-2.0,1651067582883387.0,2
1184,-3.0,-3.0,-6.0,-6.0,-1.0,-3.0,0.0,-1.0,1651067582892320.0,2
1185,-2.0,-1.0,-4.0,1.0,0.0,1.0,-3.0,-1.0,1651067582892320.0,2
1186,1.0,-1.0,-1.0,-6.0,-5.0,-1.0,-1.0,-1.0,1651067582907359.0,2
1187,0.0,-1.0,-2.0,3.0,4.0,0.0,0.0,0.0,1651067582907359.0,2
1188,-1.0,-1.0,-7.0,8.0,5.0,-2.0,-2.0,-2.0,1651067582909285.0,2
1189,-1.0,-3.0,-9.0,-7.0,-2.0,-2.0,-1.0,-1.0,1651067582909285.0,2
1190,-2.0,-2.0,-7.0,-4.0,-6.0,-3.0,2.0,-3.0,1651067582929720.0,2
1191,0.0,2.0,13.0,6.0,0.0,-3.0,-1.0,0.0,1651067582929720.0,2
1192,0.0,0.0,-3.0,-1.0,3.0,4.0,2.0,1.0,1651067582931745.0,2
1193,0.0,-2.0,-11.0,0.0,-4.0,-4.0,0.0,0.0,1651067582931745.0,2
1194,-1.0,1.0,13.0,-3.0,-3.0,-2.0,-2.0,-1.0,1651067582952475.0,2
1195,0.0,-1.0,11.0,12.0,4.0,-4.0,1.0,0.0,1651067582952475.0,2
1196,-2.0,-1.0,-9.0,1.0,4.0,2.0,1.0,-3.0,1651067582954500.0,2
1197,-1.0,0.0,-1.0,7.0,-1.0,-1.0,-1.0,1.0,1651067582954500.0,2
1198,1.0,-2.0,-3.0,-17.0,-1.0,-2.0,-1.0,0.0,1651067582967425.0,2
1199,-2.0,0.0,22.0,1.0,-4.0,-3.0,-1.0,0.0,1651067582967425.0,2
1200,-2.0,-2.0,11.0,8.0,4.0,-1.0,-3.0,-2.0,1651067582969380.0,2
1201,0.0,-1.0,-22.0,-19.0,-7.0,1.0,1.0,-1.0,1651067582969380.0,2
1202,-1.0,0.0,4.0,11.0,1.0,0.0,-3.0,-1.0,1651067582990441.0,2
1203,-1.0,-2.0,-12.0,-3.0,-2.0,2.0,-1.0,1.0,1651067582990441.0,2
1204,-1.0,0.0,-11.0,-8.0,-2.0,-4.0,-1.0,-2.0,1651067582991422.0,2
1205,1.0,4.0,31.0,4.0,-1.0,0.0,-2.0,-2.0,1651067582991422.0,2
1206,-1.0,-4.0,-12.0,-3.0,-4.0,-4.0,-1.0,0.0,1651067583012478.0,2
1207,1.0,1.0,8.0,0.0,3.0,8.0,1.0,1.0,1651067583012478.0,2
1208,-2.0,-2.0,-6.0,0.0,3.0,0.0,-1.0,0.0,1651067583014491.0,2
1209,-1.0,-2.0,-7.0,-1.0,-6.0,-7.0,-2.0,0.0,1651067583014491.0,2
1210,0.0,4.0,0.0,-3.0,-11.0,0.0,2.0,1.0,1651067583027618.0,2
1211,-1.0,0.0,-2.0,1.0,10.0,0.0,0.0,-2.0,1651067583027618.0,2
1212,1.0,1.0,-3.0,-4.0,-7.0,-3.0,-1.0,-1.0,1651067583029544.0,2
1213,-1.0,-3.0,18.0,6.0,0.0,-2.0,-1.0,-1.0,1651067583029544.0,2
1214,-1.0,-6.0,-25.0,-12.0,2.0,0.0,-2.0,-2.0,1651067583050526.0,2
1215,-1.0,-1.0,-9.0,4.0,-6.0,-4.0,0.0,-1.0,1651067583050526.0,2
1216,0.0,3.0,17.0,3.0,-5.0,-2.0,-1.0,1.0,1651067583051542.0,2
1217,-2.0,-3.0,-12.0,-6.0,2.0,-2.0,-1.0,-2.0,1651067583051542.0,2
1218,0.0,2.0,8.0,10.0,-1.0,3.0,1.0,0.0,1651067583072671.0,2
1219,0.0,1.0,14.0,0.0,6.0,4.0,2.0,0.0,1651067583072671.0,2
1220,1.0,-1.0,-10.0,6.0,8.0,3.0,-2.0,-3.0,1651067583074673.0,2
1221,0.0,-3.0,-8.0,-7.0,-10.0,-5.0,-1.0,0.0,1651067583074673.0,2
1222,-1.0,4.0,16.0,6.0,3.0,-4.0,-2.0,-1.0,1651067583087690.0,2
1223,1.0,-1.0,-8.0,-4.0,-7.0,-1.0,-1.0,-1.0,1651067583087690.0,2
1224,1.0,-1.0,-2.0,0.0,6.0,2.0,0.0,0.0,1651067583088629.0,2
1225,-1.0,-2.0,-3.0,-9.0,-3.0,-5.0,-4.0,-2.0,1651067583088629.0,2
1226,-1.0,-2.0,3.0,8.0,3.0,2.0,1.0,0.0,1651067583109845.0,2
1227,0.0,0.0,-13.0,-2.0,4.0,1.0,0.0,0.0,1651067583109845.0,2
1228,1.0,1.0,5.0,-2.0,-10.0,-5.0,0.0,0.0,1651067583111843.0,2
1229,-1.0,0.0,0.0,2.0,2.0,4.0,1.0,0.0,1651067583111843.0,2
1230,1.0,-1.0,-1.0,-13.0,-5.0,-4.0,-1.0,0.0,1651067583132941.0,2
1231,0.0,1.0,29.0,14.0,-7.0,-3.0,-4.0,0.0,1651067583132941.0,2
1232,-1.0,2.0,-6.0,-6.0,6.0,3.0,1.0,-2.0,1651067583133855.0,2
1233,0.0,-1.0,-4.0,0.0,-1.0,-4.0,0.0,1.0,1651067583133855.0,2
1234,-1.0,0.0,-1.0,-1.0,-1.0,2.0,3.0,2.0,1651067583147821.0,2
1235,-2.0,-5.0,-6.0,-3.0,-2.0,-3.0,1.0,-1.0,1651067583147821.0,2
1236,-1.0,0.0,11.0,1.0,-7.0,-5.0,-3.0,-2.0,1651067583153919.0,2
1237,0.0,-2.0,-18.0,-1.0,1.0,1.0,2.0,-2.0,1651067583153919.0,2
1238,-1.0,-3.0,-3.0,-3.0,5.0,-2.0,-3.0,-3.0,1651067583169947.0,2
1239,1.0,0.0,-2.0,-1.0,-8.0,-1.0,1.0,-1.0,1651067583169947.0,2
1240,-2.0,-3.0,2.0,5.0,-2.0,-5.0,-1.0,2.0,1651067583171874.0,2
1241,0.0,3.0,-1.0,3.0,8.0,4.0,0.0,1.0,1651067583171874.0,2
1242,-1.0,2.0,-3.0,0.0,-3.0,-1.0,-1.0,-1.0,1651067583192460.0,2
1243,-1.0,-1.0,-4.0,-1.0,4.0,2.0,2.0,1.0,1651067583192460.0,2
1244,0.0,-3.0,-18.0,-2.0,-9.0,-3.0,-1.0,0.0,1651067583194457.0,2
1245,-1.0,1.0,27.0,-3.0,-2.0,0.0,-1.0,-1.0,1651067583194457.0,2
1246,-1.0,-1.0,-2.0,6.0,0.0,0.0,0.0,-1.0,1651067583206426.0,2
1247,0.0,-1.0,5.0,0.0,14.0,1.0,-4.0,0.0,1651067583206426.0,2
1248,1.0,-1.0,-18.0,-9.0,-17.0,0.0,1.0,0.0,1651067583213407.0,2
1249,-1.0,-1.0,-1.0,12.0,15.0,3.0,-1.0,0.0,1651067583213407.0,2
1250,0.0,-3.0,1.0,-7.0,-5.0,0.0,-1.0,-1.0,1651067583229498.0,2
1251,-1.0,0.0,-3.0,3.0,-1.0,-3.0,-2.0,0.0,1651067583229498.0,2
1252,-2.0,0.0,7.0,-2.0,4.0,-4.0,-3.0,0.0,1651067583231480.0,2
1253,-1.0,0.0,-5.0,-1.0,-7.0,0.0,1.0,0.0,1651067583231480.0,2
1254,-1.0,-1.0,-6.0,1.0,2.0,0.0,2.0,1.0,1651067583251647.0,2
1255,0.0,-3.0,-5.0,0.0,6.0,1.0,-2.0,-1.0,1651067583251647.0,2
1256,1.0,-1.0,0.0,-5.0,-1.0,-2.0,-1.0,0.0,1651067583260558.0,2
1257,0.0,1.0,-4.0,-2.0,-7.0,-4.0,-1.0,0.0,1651067583260558.0,2
1258,-1.0,0.0,-1.0,-5.0,1.0,6.0,2.0,0.0,1651067583266613.0,2
1259,0.0,0.0,-3.0,-2.0,-3.0,0.0,1.0,-2.0,1651067583266613.0,2
1260,-2.0,-2.0,8.0,-6.0,1.0,-3.0,-3.0,-2.0,1651067583273521.0,2
1261,-1.0,-3.0,-8.0,4.0,4.0,9.0,3.0,2.0,1651067583273521.0,2
1262,1.0,-3.0,-10.0,-4.0,-6.0,-6.0,-4.0,-1.0,1651067583289590.0,2
1263,-2.0,3.0,3.0,2.0,2.0,-1.0,0.0,-1.0,1651067583289590.0,2
1264,0.0,-1.0,-2.0,1.0,-2.0,-1.0,0.0,1.0,1651067583291588.0,2
1265,-1.0,0.0,3.0,4.0,1.0,-5.0,-2.0,-1.0,1651067583291588.0,2
1266,-2.0,-4.0,-17.0,-5.0,1.0,4.0,1.0,-2.0,1651067583312723.0,2
1267,0.0,4.0,23.0,3.0,-12.0,-5.0,0.0,0.0,1651067583312723.0,2
1268,-1.0,-2.0,-5.0,1.0,9.0,2.0,0.0,-1.0,1651067583313729.0,2
1269,-1.0,-3.0,-3.0,-6.0,-12.0,-4.0,-1.0,-1.0,1651067583313729.0,2
1270,0.0,0.0,-2.0,1.0,-1.0,-3.0,0.0,0.0,1651067583327356.0,2
1271,1.0,1.0,-5.0,2.0,2.0,0.0,0.0,0.0,1651067583327356.0,2
1272,1.0,1.0,0.0,1.0,0.0,3.0,0.0,-2.0,1651067583334176.0,2
1273,-2.0,-2.0,-9.0,-8.0,-3.0,-3.0,-1.0,-2.0,1651067583334176.0,2
1274,-2.0,-2.0,-8.0,0.0,4.0,3.0,0.0,-1.0,1651067583350466.0,2
1275,-1.0,2.0,15.0,1.0,-6.0,-2.0,-3.0,1.0,1651067583350466.0,2
1276,1.0,0.0,-3.0,2.0,2.0,2.0,1.0,0.0,1651067583351362.0,2
1277,-1.0,1.0,8.0,4.0,2.0,-3.0,-2.0,1.0,1651067583351362.0,2
1278,-1.0,1.0,-7.0,-1.0,-3.0,-7.0,-5.0,0.0,1651067583372706.0,2
1279,-2.0,-3.0,-6.0,-4.0,-11.0,-7.0,-1.0,-2.0,1651067583372706.0,2
1280,-2.0,0.0,1.0,4.0,11.0,10.0,4.0,3.0,1651067583373694.0,2
1281,-1.0,-2.0,1.0,-5.0,-4.0,-1.0,-1.0,-1.0,1651067583373694.0,2
1282,0.0,2.0,3.0,3.0,-5.0,-3.0,0.0,0.0,1651067583386686.0,2
1283,0.0,-3.0,-18.0,-6.0,6.0,0.0,-3.0,0.0,1651067583386686.0,2
1284,-1.0,0.0,7.0,5.0,-6.0,-6.0,-3.0,-2.0,1651067583393710.0,2
1285,1.0,-2.0,-1.0,-9.0,-5.0,-1.0,0.0,1.0,1651067583393710.0,2
1286,0.0,2.0,10.0,13.0,3.0,4.0,0.0,1.0,1651067583410441.0,2
1287,-1.0,-1.0,-1.0,-3.0,-2.0,2.0,1.0,-1.0,1651067583410441.0,2
1288,-1.0,0.0,-3.0,0.0,-2.0,3.0,0.0,-1.0,1651067583411376.0,2
1289,1.0,-1.0,7.0,8.0,8.0,1.0,-1.0,0.0,1651067583411376.0,2
1290,0.0,0.0,-4.0,-16.0,-7.0,-5.0,-2.0,-1.0,1651067583432436.0,2
1291,1.0,2.0,-9.0,0.0,2.0,7.0,5.0,2.0,1651067583432436.0,2
1292,-2.0,0.0,14.0,4.0,-1.0,-4.0,-3.0,-1.0,1651067583434409.0,2
1293,0.0,-1.0,-2.0,0.0,-2.0,-1.0,0.0,-1.0,1651067583434409.0,2
1294,-1.0,-2.0,13.0,5.0,-1.0,0.0,1.0,-1.0,1651067583446416.0,2
1295,-2.0,-4.0,-14.0,-3.0,10.0,-3.0,-1.0,-1.0,1651067583446416.0,2
1296,1.0,4.0,-1.0,-9.0,-4.0,0.0,1.0,-1.0,1651067583455326.0,2
1297,-1.0,-1.0,3.0,0.0,-3.0,-1.0,-3.0,0.0,1651067583455326.0,2
1298,-1.0,2.0,8.0,20.0,0.0,-2.0,-2.0,-1.0,1651067583470404.0,2
1299,0.0,-1.0,-4.0,-12.0,-6.0,0.0,0.0,1.0,1651067583470404.0,2
1300,-1.0,-2.0,-1.0,0.0,-2.0,-4.0,-4.0,-2.0,1651067583471415.0,2
1301,-1.0,0.0,0.0,1.0,5.0,-1.0,1.0,1.0,1651067583471415.0,2
1302,0.0,2.0,2.0,2.0,2.0,4.0,3.0,0.0,1651067583492960.0,2
1303,-2.0,-1.0,3.0,0.0,-5.0,0.0,0.0,0.0,1651067583492960.0,2
1304,-1.0,-3.0,-6.0,-6.0,2.0,-2.0,-3.0,0.0,1651067583493951.0,2
1305,-1.0,-3.0,-25.0,-3.0,0.0,0.0,1.0,-2.0,1651067583493951.0,2
1306,1.0,0.0,14.0,6.0,2.0,1.0,1.0,0.0,1651067583505946.0,2
1307,-1.0,-3.0,-7.0,-3.0,-7.0,-5.0,-2.0,-3.0,1651067583505946.0,2
1308,0.0,0.0,-1.0,-3.0,5.0,2.0,-3.0,0.0,1651067583514995.0,2
1309,-2.0,2.0,5.0,2.0,-9.0,-3.0,-1.0,-1.0,1651067583514995.0,2
1310,-1.0,-2.0,-2.0,-3.0,14.0,8.0,0.0,-1.0,1651067583530048.0,2
1311,1.0,-3.0,-8.0,-4.0,-7.0,-4.0,1.0,-1.0,1651067583530048.0,2
1312,2.0,-1.0,0.0,0.0,-4.0,-5.0,-1.0,0.0,1651067583532038.0,2
1313,1.0,2.0,3.0,3.0,2.0,2.0,-1.0,0.0,1651067583532038.0,2
1314,0.0,1.0,0.0,-6.0,1.0,-3.0,-2.0,0.0,1651067583552355.0,2
1315,1.0,0.0,11.0,4.0,-3.0,2.0,-3.0,1.0,1651067583552355.0,2
1316,0.0,-4.0,-4.0,-5.0,-9.0,-4.0,1.0,-2.0,1651067583554311.0,2
1317,1.0,2.0,6.0,6.0,13.0,6.0,4.0,2.0,1651067583554311.0,2
1318,-2.0,-4.0,-15.0,-9.0,-8.0,-12.0,-2.0,-2.0,1651067583566250.0,2
1319,1.0,4.0,13.0,9.0,18.0,7.0,2.0,1.0,1651067583566250.0,2
1320,-1.0,2.0,2.0,-3.0,-12.0,-3.0,-1.0,-2.0,1651067583575303.0,2
1321,-3.0,-5.0,-9.0,-5.0,-2.0,5.0,2.0,0.0,1651067583575303.0,2
1322,0.0,0.0,1.0,-1.0,-3.0,-6.0,-2.0,-2.0,1651067583590439.0,2
1323,-1.0,2.0,8.0,3.0,3.0,4.0,0.0,-2.0,1651067583590439.0,2
1324,-1.0,-3.0,-6.0,-3.0,-5.0,0.0,1.0,2.0,1651067583592436.0,2
1325,-2.0,-2.0,-5.0,1.0,9.0,-1.0,-2.0,-2.0,1651067583592436.0,2
1326,0.0,-3.0,-3.0,-9.0,-12.0,-6.0,-2.0,0.0,1651067583612691.0,2
1327,-1.0,-1.0,1.0,-2.0,-1.0,-3.0,0.0,0.0,1651067583612691.0,2
1328,-1.0,2.0,1.0,1.0,2.0,2.0,-1.0,-1.0,1651067583613684.0,2
1329,2.0,3.0,6.0,3.0,6.0,6.0,1.0,0.0,1651067583613684.0,2
1330,-2.0,-4.0,-5.0,-5.0,2.0,2.0,-3.0,-1.0,1651067583626649.0,2
1331,0.0,-1.0,-3.0,1.0,-13.0,-11.0,-2.0,-2.0,1651067583626649.0,2
1332,0.0,2.0,7.0,7.0,12.0,9.0,1.0,-1.0,1651067583635626.0,2
1333,0.0,3.0,4.0,-5.0,-12.0,-10.0,-4.0,-1.0,1651067583635626.0,2
1334,0.0,-2.0,3.0,16.0,16.0,11.0,2.0,-1.0,1651067583649831.0,2
1335,-2.0,-6.0,-19.0,-15.0,-9.0,-1.0,-2.0,0.0,1651067583649831.0,2
1336,-4.0,-3.0,-13.0,-12.0,-7.0,-7.0,-3.0,-1.0,1651067583651822.0,2
1337,1.0,2.0,4.0,-1.0,-15.0,-7.0,-1.0,1.0,1651067583651822.0,2
1338,1.0,3.0,14.0,14.0,40.0,17.0,4.0,1.0,1651067583672890.0,2
1339,-2.0,-3.0,-6.0,-3.0,-6.0,-10.0,-2.0,-1.0,1651067583672890.0,2
1340,-1.0,-1.0,1.0,-1.0,-13.0,-7.0,-1.0,-2.0,1651067583673889.0,2
1341,-2.0,-7.0,-9.0,-11.0,-3.0,1.0,-4.0,-3.0,1651067583673889.0,2
1342,-2.0,-2.0,-7.0,-10.0,-28.0,-18.0,-6.0,0.0,1651067583686464.0,2
1343,1.0,3.0,8.0,10.0,18.0,14.0,3.0,0.0,1651067583686464.0,2
1344,2.0,2.0,9.0,6.0,3.0,0.0,3.0,3.0,1651067583695292.0,2
1345,0.0,2.0,6.0,2.0,-3.0,-8.0,-3.0,-1.0,1651067583695292.0,2
1346,-1.0,-1.0,0.0,-6.0,-8.0,-3.0,-2.0,0.0,1651067583710399.0,2
1347,-2.0,-1.0,-4.0,0.0,-7.0,-1.0,-1.0,-2.0,1651067583710399.0,2
1348,0.0,0.0,1.0,-1.0,6.0,-2.0,-2.0,0.0,1651067583711411.0,2
1349,-2.0,-7.0,-15.0,-9.0,-7.0,-1.0,0.0,-2.0,1651067583711411.0,2
1350,1.0,2.0,6.0,-3.0,-12.0,-5.0,1.0,0.0,1651067583732694.0,2
1351,-1.0,1.0,3.0,3.0,11.0,6.0,1.0,-1.0,1651067583732694.0,2
1352,-3.0,-6.0,-13.0,-8.0,-2.0,-3.0,-3.0,-1.0,1651067583733719.0,2
1353,5.0,13.0,29.0,27.0,23.0,13.0,3.0,1.0,1651067583733719.0,2
1354,-3.0,-4.0,-8.0,-14.0,-11.0,1.0,2.0,-2.0,1651067583746439.0,2
1355,-3.0,-7.0,-14.0,-8.0,-4.0,-1.0,0.0,-2.0,1651067583746439.0,2
1356,0.0,-2.0,-7.0,-3.0,-13.0,-8.0,0.0,0.0,1651067583755356.0,2
1357,-2.0,-3.0,2.0,3.0,8.0,5.0,1.0,1.0,1651067583755356.0,2
1358,0.0,3.0,5.0,0.0,-4.0,-3.0,1.0,2.0,1651067583770500.0,2
1359,0.0,5.0,13.0,8.0,-5.0,1.0,-3.0,-1.0,1651067583770500.0,2
1360,-1.0,-5.0,-3.0,-5.0,-11.0,0.0,0.0,0.0,1651067583771500.0,2
1361,-2.0,-4.0,-8.0,3.0,20.0,5.0,0.0,-2.0,1651067583771500.0,2
1362,3.0,6.0,16.0,18.0,4.0,6.0,3.0,0.0,1651067583792498.0,2
1363,-2.0,-7.0,-20.0,-26.0,-16.0,-19.0,-3.0,0.0,1651067583792498.0,2
1364,1.0,5.0,7.0,4.0,2.0,5.0,2.0,0.0,1651067583794438.0,2
1365,5.0,6.0,11.0,-8.0,-24.0,-13.0,-3.0,1.0,1651067583794438.0,2
1366,-4.0,-6.0,-10.0,-6.0,2.0,-8.0,-11.0,-7.0,1651067583815541.0,2
1367,2.0,1.0,3.0,8.0,15.0,16.0,16.0,8.0,1651067583815541.0,2
1368,-2.0,6.0,21.0,17.0,6.0,-1.0,-4.0,-4.0,1651067583816541.0,2
1369,1.0,-1.0,-11.0,-18.0,-10.0,-2.0,5.0,7.0,1651067583816541.0,2
1370,1.0,4.0,0.0,0.0,7.0,0.0,-3.0,-1.0,1651067583829563.0,2
1371,-3.0,-4.0,-1.0,3.0,-4.0,-5.0,-11.0,-9.0,1651067583829563.0,2
1372,1.0,-4.0,-5.0,5.0,14.0,12.0,11.0,9.0,1651067583836543.0,2
1373,-3.0,6.0,17.0,12.0,9.0,5.0,3.0,0.0,1651067583836543.0,2
1374,2.0,-4.0,-16.0,-13.0,-2.0,1.0,1.0,0.0,1651067583852974.0,2
1375,8.0,-1.0,-5.0,-11.0,-13.0,-3.0,2.0,16.0,1651067583852974.0,2
1376,1.0,2.0,-1.0,-1.0,8.0,5.0,4.0,-1.0,1651067583853975.0,2
1377,-6.0,0.0,4.0,1.0,-11.0,-9.0,-6.0,-11.0,1651067583853975.0,2
1378,0.0,6.0,8.0,10.0,19.0,6.0,-4.0,1.0,1651067583866009.0,2
1379,-8.0,-6.0,-3.0,4.0,5.0,-2.0,5.0,-6.0,1651067583866009.0,2
1380,2.0,-4.0,-10.0,1.0,-2.0,-5.0,-6.0,-7.0,1651067583874918.0,2
1381,-5.0,-9.0,-16.0,-14.0,-19.0,-10.0,-11.0,-4.0,1651067583874918.0,2
1382,4.0,3.0,1.0,-5.0,-6.0,4.0,4.0,-3.0,1651067583889917.0,2
1383,-14.0,-6.0,-5.0,6.0,10.0,-2.0,-8.0,-21.0,1651067583889917.0,2
1384,-1.0,1.0,4.0,5.0,-2.0,-8.0,-15.0,-4.0,1651067583895928.0,2
1385,13.0,-4.0,-12.0,7.0,29.0,20.0,30.0,38.0,1651067583895928.0,2
1386,-1.0,2.0,6.0,-4.0,-13.0,1.0,-8.0,-18.0,1651067583912433.0,2
1387,-2.0,3.0,10.0,5.0,0.0,-10.0,-21.0,-10.0,1651067583912433.0,2
1388,-1.0,3.0,2.0,4.0,10.0,17.0,30.0,10.0,1651067583914337.0,2
1389,-9.0,-1.0,-4.0,2.0,0.0,-4.0,-8.0,-4.0,1651067583914337.0,2
1390,4.0,-3.0,-6.0,0.0,10.0,0.0,-11.0,-4.0,1651067583934559.0,2
1391,11.0,-6.0,-16.0,-19.0,-29.0,-14.0,1.0,21.0,1651067583934559.0,2
1392,-5.0,6.0,11.0,-1.0,-8.0,-8.0,-9.0,-12.0,1651067583936554.0,2
1393,-2.0,-2.0,-8.0,-11.0,-4.0,5.0,5.0,9.0,1651067583936554.0,2
1394,6.0,-4.0,-7.0,1.0,-4.0,1.0,13.0,10.0,1651067583949523.0,2
1395,-6.0,11.0,24.0,17.0,15.0,10.0,1.0,-6.0,1651067583949523.0,2
1396,-2.0,-8.0,-12.0,-2.0,4.0,0.0,-8.0,16.0,1651067583956568.0,0
1397,-14.0,-6.0,-4.0,-6.0,-5.0,-7.0,1.0,-19.0,1651067583956568.0,3
1398,11.0,0.0,-4.0,-9.0,-14.0,-12.0,-13.0,21.0,1651067583972632.0,3
1399,-3.0,10.0,24.0,23.0,18.0,11.0,-19.0,-26.0,1651067583972632.0,3
1400,18.0,-2.0,-18.0,-26.0,-21.0,-10.0,15.0,38.0,1651067583978659.0,3
1401,-10.0,-5.0,3.0,6.0,5.0,0.0,-9.0,-21.0,1651067583978659.0,3
1402,-5.0,-1.0,0.0,8.0,4.0,1.0,1.0,-9.0,1651067583994819.0,3
1403,1.0,-5.0,-16.0,-10.0,-9.0,-1.0,13.0,7.0,1651067583994819.0,3
1404,-8.0,3.0,15.0,9.0,12.0,5.0,-2.0,-10.0,1651067583996749.0,3
1405,-7.0,-6.0,-1.0,-5.0,-11.0,-2.0,-1.0,-14.0,1651067583996749.0,3
1406,-2.0,-3.0,-1.0,1.0,1.0,-4.0,-22.0,-17.0,1651067584009780.0,3
1407,26.0,20.0,19.0,-1.0,-14.0,0.0,23.0,37.0,1651067584009780.0,3
1408,-17.0,-10.0,-5.0,3.0,24.0,13.0,5.0,-33.0,1651067584016695.0,3
1409,22.0,23.0,22.0,16.0,3.0,5.0,3.0,22.0,1651067584016695.0,3
1410,-9.0,-17.0,-12.0,-9.0,4.0,2.0,9.0,11.0,1651067584032042.0,3
1411,1.0,1.0,4.0,5.0,4.0,9.0,6.0,3.0,1651067584032042.0,3
1412,0.0,-7.0,-8.0,-1.0,-5.0,-6.0,-3.0,1.0,1651067584034017.0,3
1413,-9.0,-3.0,-1.0,5.0,1.0,-6.0,-15.0,-23.0,1651067584034017.0,3
1414,-6.0,3.0,1.0,7.0,14.0,6.0,19.0,-1.0,1651067584055318.0,3
1415,4.0,1.0,-4.0,-9.0,-15.0,-13.0,-14.0,-5.0,1651067584055318.0,3
1416,2.0,-1.0,-3.0,16.0,42.0,23.0,1.0,1.0,1651067584056327.0,3
1417,4.0,-7.0,-17.0,-21.0,-23.0,-10.0,2.0,9.0,1651067584056327.0,3
1418,3.0,3.0,7.0,11.0,2.0,-1.0,13.0,8.0,1651067584069876.0,3
1419,-31.0,-38.0,-24.0,-14.0,0.0,-3.0,2.0,-23.0,1651067584069876.0,3
1420,9.0,15.0,7.0,-6.0,-30.0,-19.0,-7.0,7.0,1651067584075864.0,3
1421,14.0,16.0,7.0,4.0,7.0,5.0,-13.0,9.0,1651067584075864.0,3
1422,-8.0,-14.0,-19.0,-20.0,-18.0,0.0,22.0,0.0,1651067584092964.0,3
1423,2.0,8.0,5.0,4.0,19.0,12.0,0.0,0.0,1651067584092964.0,3
1424,3.0,2.0,13.0,-6.0,-18.0,-7.0,14.0,-5.0,1651067584093968.0,3
1425,0.0,-3.0,-10.0,8.0,6.0,4.0,7.0,7.0,1651067584093968.0,3
1426,-5.0,-10.0,-11.0,-9.0,-15.0,-11.0,-8.0,4.0,1651067584115031.0,3
1427,2.0,5.0,6.0,23.0,48.0,16.0,-5.0,1.0,1651067584115031.0,3
1428,-9.0,-4.0,-7.0,-15.0,-13.0,1.0,-7.0,-10.0,1651067584117017.0,3
1429,1.0,1.0,4.0,3.0,9.0,1.0,-10.0,-3.0,1651067584117017.0,3
1430,5.0,5.0,9.0,2.0,2.0,4.0,1.0,3.0,1651067584129124.0,3
1431,-13.0,-10.0,-9.0,-9.0,-22.0,-12.0,5.0,-2.0,1651067584129124.0,3
1432,1.0,-4.0,-3.0,3.0,-3.0,-1.0,-12.0,-4.0,1651067584136173.0,3
1433,2.0,-6.0,-11.0,-2.0,17.0,7.0,22.0,5.0,1651067584136173.0,3
1434,-9.0,-2.0,8.0,5.0,-9.0,-11.0,-11.0,-1.0,1651067584152376.0,3
1435,-1.0,3.0,-4.0,-3.0,-3.0,-6.0,-12.0,-32.0,1651067584152376.0,3
1436,4.0,12.0,10.0,12.0,-8.0,2.0,1.0,16.0,1651067584154304.0,3
1437,-10.0,-19.0,-8.0,-7.0,18.0,8.0,2.0,-10.0,1651067584154304.0,3
1438,-8.0,14.0,12.0,8.0,3.0,0.0,-15.0,-20.0,1651067584175322.0,3
1439,19.0,-3.0,-11.0,-10.0,-2.0,-6.0,-1.0,30.0,1651067584175322.0,3
1440,2.0,16.0,13.0,7.0,-9.0,-2.0,-5.0,-11.0,1651067584176330.0,3
1441,-7.0,-3.0,6.0,14.0,-14.0,-11.0,-18.0,-19.0,1651067584176330.0,3
1442,10.0,4.0,-6.0,-26.0,-8.0,1.0,9.0,8.0,1651067584188356.0,3
1443,-16.0,-8.0,5.0,10.0,15.0,11.0,4.0,-2.0,1651067584188356.0,3
1444,2.0,-3.0,-6.0,-1.0,7.0,-1.0,0.0,1.0,1651067584197265.0,3
1445,9.0,3.0,-1.0,-15.0,-9.0,-3.0,-7.0,8.0,1651067584197265.0,3
1446,-7.0,3.0,12.0,12.0,6.0,7.0,6.0,-13.0,1651067584212825.0,3
1447,4.0,-4.0,-8.0,-7.0,-22.0,-9.0,1.0,16.0,1651067584212825.0,3
1448,-5.0,-17.0,-17.0,-13.0,5.0,-7.0,-6.0,-5.0,1651067584213824.0,3
1449,3.0,3.0,-5.0,7.0,0.0,-9.0,-9.0,-4.0,1651067584213824.0,3
1450,2.0,2.0,1.0,3.0,-6.0,4.0,1.0,-3.0,1651067584234869.0,3
1451,-3.0,-3.0,0.0,-9.0,-5.0,-5.0,-2.0,-2.0,1651067584234869.0,3
1452,-2.0,-1.0,-2.0,5.0,25.0,3.0,-9.0,-8.0,1651067584236798.0,3
1453,-4.0,-1.0,-2.0,-12.0,-15.0,-9.0,-4.0,-2.0,1651067584236798.0,3
1454,2.0,-3.0,-4.0,-6.0,-1.0,7.0,-6.0,-2.0,1651067584257422.0,3
1455,7.0,18.0,9.0,12.0,0.0,-2.0,14.0,4.0,1651067584257422.0,3
1456,0.0,-10.0,-2.0,3.0,6.0,-1.0,-6.0,-5.0,1651067584259351.0,3
1457,-9.0,1.0,3.0,-6.0,-24.0,-1.0,6.0,-5.0,1651067584259351.0,3
1458,7.0,-8.0,-9.0,-1.0,-2.0,-10.0,-10.0,33.0,1651067584272458.0,3
1459,-8.0,-1.0,3.0,6.0,-1.0,-2.0,-11.0,-17.0,1651067584272458.0,3
1460,-2.0,2.0,-8.0,-19.0,-20.0,-13.0,-7.0,-6.0,1651067584274453.0,3
1461,15.0,20.0,13.0,13.0,5.0,7.0,18.0,16.0,1651067584274453.0,3
1462,-16.0,-14.0,-18.0,-2.0,2.0,2.0,-11.0,-18.0,1651067584295363.0,3
1463,11.0,0.0,-1.0,-2.0,-1.0,2.0,12.0,26.0,1651067584295363.0,3
1464,-9.0,-15.0,-13.0,-17.0,-22.0,-10.0,11.0,4.0,1651067584296369.0,3
1465,-1.0,2.0,6.0,9.0,9.0,0.0,-13.0,-11.0,1651067584296369.0,3
1466,6.0,7.0,12.0,6.0,9.0,4.0,11.0,17.0,1651067584309356.0,3
1467,1.0,-5.0,-6.0,-7.0,-1.0,5.0,3.0,1.0,1651067584309356.0,3
1468,5.0,7.0,4.0,5.0,2.0,2.0,0.0,0.0,1651067584316658.0,3
1469,-8.0,-8.0,-1.0,-4.0,-10.0,2.0,6.0,-6.0,1651067584316658.0,3
1470,6.0,0.0,-1.0,14.0,25.0,0.0,-7.0,-3.0,1651067584340449.0,3
1471,-8.0,0.0,-5.0,-7.0,-5.0,-4.0,-5.0,-12.0,1651067584340449.0,3
1472,-2.0,-1.0,-1.0,-1.0,-5.0,5.0,19.0,13.0,1651067584341404.0,3
1473,1.0,-3.0,-3.0,1.0,7.0,-5.0,-7.0,2.0,1651067584341404.0,3
1474,2.0,6.0,5.0,-8.0,-16.0,-9.0,6.0,6.0,1651067584355543.0,3
1475,3.0,-2.0,7.0,2.0,-2.0,1.0,-2.0,1.0,1651067584355543.0,3
1476,0.0,5.0,3.0,3.0,6.0,4.0,-14.0,-10.0,1651067584356580.0,3
1477,-4.0,-2.0,6.0,-1.0,-2.0,0.0,8.0,7.0,1651067584356580.0,3
1478,-1.0,3.0,-1.0,0.0,1.0,-2.0,-10.0,-8.0,1651067584369545.0,3
1479,1.0,4.0,3.0,-2.0,-2.0,-1.0,0.0,-1.0,1651067584369545.0,3
1480,0.0,1.0,8.0,1.0,-4.0,-2.0,-3.0,0.0,1651067584376525.0,3
1481,1.0,-3.0,-3.0,2.0,10.0,9.0,0.0,1.0,1651067584376525.0,3
1482,6.0,7.0,1.0,1.0,-5.0,-1.0,17.0,13.0,1651067584392533.0,3
1483,-7.0,-7.0,-4.0,-2.0,12.0,-1.0,-9.0,-9.0,1651067584392533.0,3
1484,-4.0,-6.0,-6.0,4.0,-2.0,-1.0,1.0,2.0,1651067584394528.0,3
1485,-2.0,-3.0,-9.0,-14.0,-18.0,-12.0,-8.0,-5.0,1651067584394528.0,3
1486,-3.0,2.0,0.0,7.0,29.0,23.0,4.0,-9.0,1651067584415442.0,3
1487,-2.0,-1.0,3.0,3.0,-5.0,-2.0,8.0,4.0,1651067584415442.0,3
1488,-5.0,-13.0,-9.0,-9.0,-16.0,-7.0,1.0,5.0,1651067584416374.0,3
1489,9.0,6.0,-3.0,6.0,29.0,11.0,-10.0,12.0,1651067584416374.0,3
1490,-2.0,-7.0,-1.0,3.0,0.0,-2.0,10.0,7.0,1651067584428407.0,3
1491,2.0,3.0,3.0,-1.0,-6.0,0.0,-4.0,-9.0,1651067584428407.0,3
1492,-1.0,-2.0,-3.0,-3.0,4.0,-1.0,-6.0,-2.0,1651067584437422.0,3
1493,-8.0,-10.0,-6.0,-9.0,-14.0,-6.0,6.0,-2.0,1651067584437422.0,3
1494,-4.0,-4.0,-1.0,-3.0,-17.0,-9.0,-9.0,-9.0,1651067584452698.0,3
1495,6.0,6.0,0.0,0.0,13.0,12.0,0.0,2.0,1651067584452698.0,3
1496,4.0,3.0,0.0,-1.0,18.0,9.0,7.0,6.0,1651067584454692.0,3
1497,-4.0,-5.0,6.0,1.0,-8.0,-9.0,-3.0,-11.0,1651067584454692.0,3
1498,-2.0,0.0,-4.0,-4.0,-16.0,-14.0,-10.0,-3.0,1651067584475279.0,3
1499,-2.0,1.0,-2.0,2.0,-3.0,2.0,4.0,-8.0,1651067584475279.0,3
1500,-6.0,-3.0,-1.0,-4.0,-8.0,-4.0,-10.0,-4.0,1651067584476276.0,3
1501,2.0,-1.0,0.0,0.0,3.0,-7.0,-4.0,-5.0,1651067584476276.0,3
1502,9.0,11.0,16.0,7.0,13.0,12.0,7.0,20.0,1651067584488312.0,3
1503,4.0,-3.0,-10.0,-2.0,-2.0,-2.0,7.0,-1.0,1651067584488312.0,3
1504,0.0,4.0,0.0,0.0,4.0,-3.0,-12.0,-13.0,1651067584497371.0,3
1505,-3.0,-3.0,-2.0,0.0,3.0,3.0,8.0,7.0,1651067584497371.0,3
1506,-11.0,-4.0,-1.0,-4.0,-10.0,-6.0,-1.0,-12.0,1651067584512756.0,3
1507,5.0,4.0,6.0,-6.0,-19.0,-11.0,-5.0,5.0,1651067584512756.0,3
1508,-2.0,3.0,6.0,10.0,18.0,14.0,8.0,-2.0,1651067584513754.0,3
1509,5.0,0.0,-4.0,-1.0,-8.0,0.0,2.0,8.0,1651067584513754.0,3
1510,2.0,0.0,3.0,-4.0,-1.0,2.0,-3.0,-3.0,1651067584535232.0,3
1511,1.0,5.0,1.0,-2.0,-11.0,-2.0,-1.0,-1.0,1651067584535232.0,3
1512,-6.0,-8.0,-4.0,-5.0,-11.0,-8.0,5.0,1.0,1651067584537161.0,3
1513,2.0,-1.0,-4.0,0.0,5.0,12.0,6.0,5.0,1651067584537161.0,3
1514,4.0,8.0,6.0,3.0,21.0,5.0,0.0,-3.0,1651067584549154.0,3
1515,-8.0,-14.0,-11.0,-2.0,1.0,-6.0,-4.0,-7.0,1651067584549154.0,3
1516,0.0,1.0,4.0,2.0,-13.0,-6.0,-7.0,2.0,1651067584558106.0,3
1517,-6.0,-4.0,-2.0,-3.0,-3.0,-8.0,-10.0,-17.0,1651067584558106.0,3
1518,-8.0,-7.0,-6.0,-3.0,-1.0,-2.0,-7.0,-8.0,1651067584572403.0,3
1519,9.0,1.0,0.0,-3.0,-2.0,3.0,0.0,19.0,1651067584572403.0,3
1520,-6.0,-3.0,-3.0,-3.0,4.0,-8.0,-11.0,-20.0,1651067584574150.0,3
1521,-9.0,-3.0,0.0,-1.0,-2.0,-6.0,-15.0,-5.0,1651067584574150.0,3
1522,4.0,4.0,3.0,-1.0,-9.0,5.0,13.0,5.0,1651067584595105.0,3
1523,5.0,8.0,4.0,7.0,9.0,2.0,-1.0,11.0,1651067584595105.0,3
1524,1.0,-1.0,-3.0,-1.0,-3.0,3.0,7.0,15.0,1651067584597059.0,3
1525,-3.0,0.0,-3.0,-5.0,-14.0,-9.0,-8.0,-12.0,1651067584597059.0,3
1526,-4.0,-3.0,-2.0,0.0,7.0,0.0,2.0,-7.0,1651067584609001.0,3
1527,-13.0,-6.0,-1.0,5.0,22.0,9.0,-2.0,-7.0,1651067584609001.0,3
1528,14.0,7.0,6.0,2.0,-11.0,2.0,16.0,9.0,1651067584617998.0,3
1529,-1.0,-4.0,-6.0,-1.0,-5.0,-6.0,-9.0,-5.0,1651067584617998.0,3
1530,-1.0,-7.0,-10.0,-8.0,-21.0,-7.0,6.0,9.0,1651067584632064.0,3
1531,-4.0,1.0,0.0,-2.0,-10.0,-11.0,-9.0,-8.0,1651067584632064.0,3
1532,1.0,1.0,-3.0,1.0,8.0,5.0,-8.0,-6.0,1651067584634049.0,3
1533,6.0,6.0,8.0,0.0,-2.0,-2.0,1.0,6.0,1651067584634049.0,3
1534,-5.0,-8.0,-9.0,-7.0,-6.0,4.0,1.0,-4.0,1651067584655189.0,3
1535,3.0,-1.0,0.0,4.0,23.0,9.0,12.0,19.0,1651067584655189.0,3
1536,-5.0,4.0,7.0,3.0,1.0,0.0,-11.0,-11.0,1651067584656129.0,3
1537,3.0,-4.0,-2.0,-2.0,0.0,6.0,20.0,11.0,1651067584656129.0,3
1538,-5.0,0.0,1.0,1.0,-3.0,-5.0,-16.0,-15.0,1651067584669139.0,3
1539,-8.0,-2.0,-1.0,-13.0,-26.0,-13.0,-9.0,-8.0,1651067584669139.0,3
1540,13.0,7.0,8.0,11.0,32.0,9.0,3.0,14.0,1651067584678071.0,3
1541,2.0,2.0,3.0,0.0,0.0,13.0,15.0,8.0,1651067584678071.0,3
1542,0.0,1.0,2.0,0.0,-3.0,-13.0,-12.0,5.0,1651067584692409.0,3
1543,-4.0,2.0,-2.0,2.0,20.0,9.0,2.0,-22.0,1651067584692409.0,3
1544,3.0,5.0,9.0,4.0,-29.0,-7.0,-4.0,11.0,1651067584694426.0,3
1545,0.0,-3.0,-6.0,-2.0,17.0,14.0,18.0,9.0,1651067584694426.0,3
1546,-1.0,-2.0,0.0,-3.0,-6.0,-5.0,0.0,-8.0,1651067584715444.0,3
1547,-4.0,-2.0,-2.0,-11.0,-31.0,-15.0,-14.0,-12.0,1651067584715444.0,3
1548,-2.0,-5.0,-7.0,6.0,35.0,17.0,9.0,2.0,1651067584716432.0,3
1549,2.0,2.0,4.0,1.0,-5.0,-3.0,0.0,4.0,1651067584716432.0,3
1550,7.0,3.0,-3.0,9.0,9.0,5.0,5.0,12.0,1651067584728456.0,3
1551,0.0,-6.0,-3.0,-9.0,-2.0,-1.0,-1.0,-1.0,1651067584728456.0,3
1552,-2.0,-3.0,-5.0,-4.0,-7.0,-1.0,7.0,-5.0,1651067584737391.0,3
1553,-2.0,-1.0,-4.0,-9.0,-11.0,-10.0,-11.0,-7.0,1651067584737391.0,3
1554,-3.0,-1.0,3.0,5.0,-8.0,-7.0,-9.0,-5.0,1651067584752397.0,3
1555,3.0,2.0,5.0,9.0,13.0,2.0,-1.0,6.0,1651067584752397.0,3
1556,4.0,0.0,-2.0,-7.0,-3.0,0.0,10.0,10.0,1651067584754333.0,3
1557,-3.0,1.0,6.0,13.0,21.0,8.0,3.0,-2.0,1651067584754333.0,3
1558,5.0,0.0,-2.0,-5.0,-4.0,4.0,4.0,7.0,1651067584775361.0,3
1559,-6.0,-2.0,0.0,2.0,-2.0,-3.0,-3.0,-8.0,1651067584775361.0,3
1560,-4.0,-4.0,-7.0,-10.0,-16.0,-4.0,1.0,-2.0,1651067584776360.0,3
1561,4.0,5.0,3.0,-4.0,-6.0,-12.0,-3.0,2.0,1651067584776360.0,3
1562,-6.0,0.0,5.0,9.0,24.0,10.0,-4.0,-16.0,1651067584789147.0,3
1563,5.0,-2.0,1.0,-2.0,-27.0,-12.0,-4.0,12.0,1651067584789147.0,3
1564,-4.0,-3.0,-10.0,1.0,15.0,4.0,-6.0,-12.0,1651067584797381.0,3
1565,-2.0,-2.0,-2.0,-5.0,-19.0,2.0,3.0,-4.0,1651067584797381.0,3
1566,-3.0,-4.0,-8.0,-9.0,3.0,2.0,6.0,5.0,1651067584813411.0,3
1567,-4.0,-2.0,-1.0,0.0,3.0,4.0,-4.0,-3.0,1651067584813411.0,3
1568,0.0,1.0,2.0,-6.0,-21.0,-14.0,-16.0,-8.0,1651067584814343.0,3
1569,-3.0,-1.0,-3.0,8.0,13.0,6.0,5.0,7.0,1651067584814343.0,3
1570,0.0,1.0,3.0,-4.0,-18.0,-7.0,-6.0,-6.0,1651067584835434.0,3
1571,3.0,0.0,-6.0,1.0,16.0,7.0,-3.0,1.0,1651067584835434.0,3
1572,1.0,0.0,0.0,-4.0,-7.0,-3.0,9.0,5.0,1651067584836393.0,3
1573,-2.0,-1.0,2.0,7.0,13.0,4.0,-3.0,-2.0,1651067584836393.0,3
1574,0.0,-3.0,-2.0,-1.0,-1.0,-2.0,-5.0,-4.0,1651067584857499.0,3
1575,5.0,4.0,3.0,5.0,5.0,3.0,14.0,12.0,1651067584857499.0,3
1576,-1.0,-3.0,-4.0,-6.0,-10.0,-5.0,1.0,-2.0,1651067584859437.0,3
1577,0.0,3.0,3.0,-4.0,-16.0,-11.0,-8.0,-4.0,1651067584859437.0,3
1578,-2.0,0.0,-1.0,8.0,24.0,8.0,7.0,3.0,1651067584872447.0,3
1579,1.0,0.0,-2.0,2.0,9.0,8.0,1.0,-1.0,1651067584872447.0,3
1580,0.0,-3.0,-5.0,-3.0,-1.0,-4.0,-10.0,3.0,1651067584874396.0,3
1581,-1.0,1.0,0.0,-4.0,-12.0,-4.0,-6.0,-6.0,1651067584874396.0,3
1582,2.0,2.0,2.0,-1.0,-3.0,-2.0,-1.0,2.0,1651067584895362.0,3
1583,-5.0,0.0,0.0,-3.0,-5.0,-8.0,-9.0,-9.0,1651067584895362.0,3
1584,2.0,-1.0,0.0,4.0,7.0,9.0,18.0,8.0,1651067584896364.0,3
1585,0.0,-4.0,-3.0,3.0,4.0,1.0,-5.0,-2.0,1651067584896364.0,3
1586,3.0,1.0,2.0,1.0,-1.0,-4.0,-5.0,2.0,1651067584917736.0,3
1587,-6.0,-5.0,-5.0,-5.0,-4.0,-2.0,-15.0,-12.0,1651067584917736.0,3
1588,-1.0,2.0,4.0,0.0,-4.0,-1.0,0.0,-2.0,1651067584918693.0,3
1589,2.0,1.0,-1.0,-3.0,-2.0,1.0,7.0,4.0,1651067584918693.0,3
1590,-1.0,-3.0,-3.0,-2.0,-2.0,-2.0,3.0,2.0,1651067584932722.0,3
1591,0.0,2.0,2.0,2.0,-5.0,0.0,3.0,2.0,1651067584932722.0,3
1592,-3.0,1.0,1.0,1.0,-3.0,-2.0,-11.0,-7.0,1651067584933710.0,3
1593,2.0,0.0,-1.0,3.0,15.0,-1.0,10.0,7.0,1651067584933710.0,3
1594,-2.0,-2.0,-4.0,-4.0,-5.0,-1.0,-2.0,-1.0,1651067584954888.0,3
1595,1.0,-1.0,-3.0,0.0,0.0,2.0,5.0,3.0,1651067584954888.0,3
1596,-2.0,0.0,2.0,5.0,2.0,0.0,-2.0,0.0,1651067584956845.0,3
1597,-5.0,-2.0,-4.0,0.0,-4.0,-1.0,-15.0,-10.0,1651067584956845.0,3
1598,1.0,0.0,2.0,2.0,-1.0,2.0,17.0,9.0,1651067584977994.0,3
1599,2.0,0.0,3.0,6.0,5.0,1.0,1.0,1.0,1651067584977994.0,3
1600,-1.0,0.0,-2.0,-3.0,-1.0,0.0,-2.0,-6.0,1651067584978970.0,3
1601,2.0,1.0,0.0,2.0,-4.0,2.0,0.0,11.0,1651067584978970.0,3
1602,0.0,0.0,-1.0,-11.0,-4.0,-2.0,2.0,-1.0,1651067584992289.0,3
1603,0.0,-1.0,-3.0,-8.0,-5.0,-2.0,2.0,1.0,1651067584992289.0,3
1604,-4.0,-3.0,-2.0,3.0,4.0,0.0,-10.0,-10.0,1651067585006075.0,3
1605,0.0,-1.0,-4.0,-2.0,7.0,2.0,-1.0,0.0,1651067585006075.0,3
1606,0.0,-1.0,0.0,3.0,-1.0,-1.0,3.0,4.0,1651067585015109.0,3
1607,2.0,1.0,1.0,2.0,0.0,2.0,12.0,7.0,1651067585015109.0,3
1608,-1.0,-1.0,-4.0,-15.0,-4.0,-2.0,-3.0,-2.0,1651067585016106.0,3
1609,-3.0,-1.0,-4.0,-3.0,-4.0,-2.0,-2.0,0.0,1651067585016106.0,3
1610,-1.0,0.0,19.0,30.0,5.0,0.0,-3.0,-4.0,1651067585044930.0,3
1611,-3.0,-5.0,-20.0,-24.0,-12.0,-7.0,-4.0,-5.0,1651067585044930.0,3
1612,2.0,2.0,4.0,3.0,-6.0,-3.0,-2.0,2.0,1651067585046886.0,3
1613,-1.0,-5.0,-15.0,-24.0,-4.0,-4.0,-2.0,-2.0,1651067585046886.0,3
1614,0.0,2.0,7.0,-1.0,-2.0,-4.0,-3.0,3.0,1651067585051872.0,3
1615,0.0,1.0,9.0,23.0,7.0,4.0,1.0,-1.0,1651067585051872.0,3
1616,-3.0,-7.0,-17.0,-5.0,20.0,5.0,3.0,1.0,1651067585058827.0,3
1617,-3.0,2.0,11.0,-4.0,-15.0,-6.0,-1.0,-5.0,1651067585058827.0,3
1618,-3.0,-4.0,-14.0,-10.0,-12.0,-5.0,-5.0,-6.0,1651067585075304.0,3
1619,2.0,3.0,4.0,-13.0,1.0,0.0,-3.0,2.0,1651067585075304.0,3
1620,-3.0,-1.0,-1.0,16.0,0.0,0.0,8.0,3.0,1651067585076325.0,3
1621,2.0,-1.0,-5.0,-19.0,8.0,-1.0,-7.0,-3.0,1651067585076325.0,3
1622,2.0,1.0,-4.0,6.0,5.0,6.0,14.0,8.0,1651067585097969.0,3
1623,-2.0,-2.0,-9.0,-1.0,-5.0,-3.0,-2.0,-3.0,1651067585097969.0,3
1624,0.0,4.0,21.0,3.0,-3.0,-3.0,-6.0,-2.0,1651067585098967.0,3
1625,3.0,0.0,1.0,21.0,6.0,1.0,8.0,2.0,1651067585098967.0,3
1626,-3.0,-1.0,-2.0,-15.0,-8.0,-5.0,-4.0,0.0,1651067585111688.0,3
1627,16.0,17.0,6.0,6.0,12.0,5.0,0.0,1.0,1651067585111688.0,3
1628,-31.0,-33.0,-14.0,-6.0,-11.0,-1.0,-3.0,-2.0,1651067585119814.0,3
1629,-1.0,1.0,0.0,0.0,-4.0,3.0,0.0,-2.0,1651067585119814.0,3
1630,-4.0,-5.0,0.0,4.0,7.0,0.0,-6.0,-2.0,1651067585134928.0,3
1631,3.0,4.0,8.0,0.0,0.0,-4.0,4.0,3.0,1651067585134928.0,3
1632,9.0,7.0,1.0,42.0,3.0,-5.0,-3.0,1.0,1651067585136884.0,3
1633,-3.0,-5.0,-14.0,-36.0,-11.0,-5.0,-3.0,-2.0,1651067585136884.0,3
1634,-2.0,-2.0,-1.0,-1.0,-3.0,4.0,-1.0,-1.0,1651067585157733.0,3
1635,-6.0,-4.0,0.0,0.0,-1.0,-3.0,1.0,0.0,1651067585157733.0,3
1636,7.0,7.0,-12.0,-6.0,3.0,1.0,5.0,4.0,1651067585158665.0,3
1637,-3.0,0.0,28.0,22.0,6.0,3.0,1.0,0.0,1651067585158665.0,3
1638,6.0,5.0,-8.0,-1.0,4.0,2.0,-2.0,1.0,1651067585171666.0,3
1639,-3.0,-2.0,6.0,4.0,4.0,0.0,-1.0,-1.0,1651067585171666.0,3
1640,0.0,1.0,1.0,-13.0,8.0,2.0,0.0,0.0,1651067585179836.0,3
1641,2.0,-1.0,-15.0,-7.0,-20.0,-9.0,-1.0,-1.0,1651067585179836.0,3
1642,-1.0,4.0,22.0,-1.0,-4.0,4.0,0.0,2.0,1651067585195409.0,3
1643,1.0,-2.0,-3.0,5.0,0.0,1.0,-2.0,1.0,1651067585195409.0,3
1644,3.0,3.0,-6.0,-12.0,2.0,3.0,5.0,1.0,1651067585196414.0,3
1645,1.0,1.0,3.0,21.0,18.0,5.0,0.0,-1.0,1651067585196414.0,3
1646,-2.0,-3.0,-4.0,-13.0,-7.0,-6.0,-6.0,-3.0,1651067585218002.0,3
1647,-5.0,-4.0,-7.0,8.0,-2.0,-2.0,-1.0,1.0,1651067585218002.0,3
1648,2.0,4.0,8.0,-6.0,-6.0,-4.0,0.0,-2.0,1651067585218969.0,3
1649,-1.0,1.0,1.0,3.0,1.0,1.0,-1.0,-3.0,1651067585218969.0,3
1650,-3.0,-2.0,-13.0,-7.0,-2.0,-2.0,-3.0,-3.0,1651067585231002.0,3
1651,-1.0,-3.0,-2.0,-24.0,-12.0,-6.0,-2.0,0.0,1651067585231002.0,3
1652,1.0,0.0,-8.0,-4.0,-2.0,2.0,1.0,1.0,1651067585239913.0,3
1653,-1.0,2.0,5.0,5.0,-3.0,-2.0,1.0,2.0,1651067585239913.0,3
1654,1.0,0.0,0.0,7.0,4.0,-1.0,0.0,-1.0,1651067585255361.0,3
1655,-2.0,-2.0,-3.0,1.0,2.0,3.0,-1.0,-2.0,1651067585255361.0,3
1656,2.0,3.0,11.0,5.0,5.0,1.0,0.0,2.0,1651067585256362.0,3
1657,0.0,0.0,-2.0,-1.0,0.0,2.0,3.0,1.0,1651067585256362.0,3
1658,-3.0,-3.0,-7.0,-4.0,-5.0,-3.0,-6.0,-6.0,1651067585277405.0,3
1659,-4.0,-2.0,2.0,-1.0,2.0,5.0,0.0,0.0,1651067585277405.0,3
1660,3.0,3.0,1.0,-2.0,-3.0,0.0,2.0,1.0,1651067585279428.0,3
1661,0.0,-1.0,0.0,1.0,3.0,4.0,-3.0,-4.0,1651067585279428.0,3
1662,0.0,-1.0,0.0,0.0,3.0,0.0,1.0,-2.0,1651067585291616.0,3
1663,0.0,-2.0,-5.0,-13.0,-7.0,-2.0,1.0,-1.0,1651067585291616.0,3
1664,-1.0,-2.0,2.0,6.0,1.0,1.0,-1.0,-1.0,1651067585300606.0,3
1665,-1.0,0.0,-6.0,-15.0,3.0,-2.0,-2.0,-1.0,1651067585300606.0,3
1666,-2.0,-1.0,-1.0,13.0,-10.0,-3.0,0.0,0.0,1651067585315249.0,3
1667,-1.0,-5.0,-6.0,-9.0,0.0,0.0,0.0,0.0,1651067585315249.0,3
1668,-1.0,0.0,3.0,-3.0,-3.0,-2.0,-2.0,-3.0,1651067585316180.0,3
1669,3.0,2.0,1.0,7.0,1.0,-1.0,0.0,0.0,1651067585316180.0,3
1670,0.0,-1.0,-3.0,-4.0,1.0,2.0,1.0,0.0,1651067585337190.0,3
1671,-1.0,0.0,13.0,9.0,1.0,1.0,-1.0,-1.0,1651067585337190.0,3
1672,-2.0,-2.0,-19.0,-13.0,-8.0,-1.0,-3.0,-1.0,1651067585339119.0,3
1673,-1.0,-1.0,2.0,-2.0,-3.0,-1.0,0.0,1.0,1651067585339119.0,3
1674,0.0,0.0,3.0,6.0,9.0,1.0,-4.0,-2.0,1651067585351152.0,3
1675,0.0,-1.0,-5.0,2.0,-3.0,-3.0,0.0,0.0,1651067585351152.0,3
1676,0.0,-2.0,4.0,-4.0,-3.0,-2.0,-1.0,-1.0,1651067585360062.0,3
1677,-1.0,2.0,-2.0,3.0,0.0,-1.0,0.0,0.0,1651067585360062.0,3
1678,-1.0,-2.0,-7.0,-9.0,-3.0,-2.0,-1.0,-1.0,1651067585375367.0,3
1679,-1.0,-1.0,0.0,5.0,0.0,-2.0,-2.0,-1.0,1651067585375367.0,3
1680,1.0,-2.0,-2.0,11.0,-1.0,1.0,0.0,-1.0,1651067585376367.0,3
1681,0.0,0.0,2.0,-11.0,1.0,0.0,-2.0,-2.0,1651067585376367.0,3
1682,-1.0,-1.0,0.0,3.0,0.0,-4.0,-1.0,0.0,1651067585397611.0,3
1683,-2.0,-1.0,-4.0,-16.0,-4.0,3.0,1.0,-1.0,1651067585397611.0,3
1684,0.0,1.0,13.0,7.0,-12.0,-9.0,1.0,2.0,1651067585399566.0,3
1685,0.0,-3.0,-11.0,4.0,20.0,9.0,2.0,0.0,1651067585399566.0,3
1686,0.0,2.0,10.0,-2.0,11.0,6.0,1.0,1.0,1651067585411538.0,3
1687,-2.0,1.0,3.0,13.0,-8.0,-12.0,-4.0,-2.0,1651067585411538.0,3
1688,1.0,1.0,4.0,-4.0,17.0,11.0,3.0,1.0,1651067585420484.0,3
1689,-2.0,-3.0,1.0,2.0,-15.0,-7.0,-1.0,-1.0,1651067585420484.0,3
1690,-1.0,-2.0,-7.0,-6.0,-5.0,-4.0,-2.0,-1.0,1651067585435584.0,3
1691,-1.0,0.0,3.0,2.0,1.0,2.0,0.0,-1.0,1651067585435584.0,3
1692,-1.0,-1.0,-2.0,-5.0,-6.0,-8.0,-2.0,0.0,1651067585436560.0,3
1693,-2.0,-2.0,1.0,4.0,-4.0,0.0,-4.0,-3.0,1651067585436560.0,3
1694,0.0,0.0,-5.0,-1.0,3.0,3.0,0.0,1.0,1651067585457974.0,3
1695,0.0,0.0,2.0,3.0,-3.0,1.0,2.0,1.0,1651067585457974.0,3
1696,0.0,0.0,-4.0,-4.0,-2.0,-2.0,-3.0,0.0,1651067585458975.0,3
1697,0.0,-1.0,-4.0,-3.0,-4.0,-1.0,0.0,1.0,1651067585458975.0,3
1698,-1.0,1.0,8.0,4.0,4.0,0.0,2.0,0.0,1651067585470947.0,3
1699,-1.0,0.0,-3.0,0.0,-1.0,-2.0,-2.0,-3.0,1651067585470947.0,3
1700,0.0,-1.0,0.0,-2.0,2.0,4.0,-1.0,-1.0,1651067585479920.0,3
1701,-1.0,2.0,4.0,4.0,-2.0,-1.0,-1.0,0.0,1651067585479920.0,3
1702,0.0,-3.0,-7.0,-3.0,-6.0,-4.0,0.0,0.0,1651067585494686.0,3
1703,2.0,-1.0,0.0,1.0,0.0,1.0,2.0,1.0,1651067585494686.0,3
1704,-2.0,0.0,-1.0,1.0,8.0,4.0,0.0,0.0,1651067585496680.0,3
1705,-2.0,-2.0,2.0,1.0,-5.0,-5.0,-1.0,-2.0,1651067585496680.0,3
1706,-1.0,0.0,-3.0,-3.0,-6.0,-8.0,-2.0,0.0,1651067585517448.0,3
1707,-1.0,0.0,-2.0,0.0,6.0,8.0,1.0,2.0,1651067585517448.0,3
1708,1.0,0.0,1.0,-1.0,-5.0,-1.0,0.0,-1.0,1651067585519375.0,3
1709,-1.0,-1.0,1.0,0.0,-2.0,-2.0,-1.0,0.0,1651067585519375.0,3
1710,-2.0,-1.0,-1.0,-1.0,1.0,0.0,0.0,-2.0,1651067585531519.0,3
1711,0.0,0.0,-1.0,0.0,1.0,-2.0,0.0,0.0,1651067585531519.0,3
1712,0.0,0.0,-1.0,0.0,2.0,1.0,-1.0,-1.0,1651067585540427.0,3
1713,2.0,-1.0,-4.0,1.0,0.0,0.0,1.0,-1.0,1651067585540427.0,3
1714,1.0,-1.0,1.0,-2.0,-5.0,0.0,-2.0,-1.0,1651067585555361.0,3
1715,-2.0,-1.0,-1.0,-3.0,-5.0,-9.0,-3.0,-2.0,1651067585555361.0,3
1716,0.0,1.0,0.0,1.0,3.0,10.0,2.0,2.0,1651067585556370.0,3
1717,0.0,0.0,-1.0,-2.0,0.0,0.0,0.0,0.0,1651067585556370.0,3
1718,0.0,-2.0,-4.0,-1.0,-2.0,1.0,3.0,0.0,1651067585577394.0,3
1719,-1.0,-2.0,-4.0,-1.0,-2.0,-4.0,-4.0,-1.0,1651067585577394.0,3
1720,0.0,-1.0,-3.0,-4.0,-5.0,-1.0,1.0,-2.0,1651067585579416.0,3
1721,0.0,0.0,4.0,3.0,1.0,1.0,-2.0,1.0,1651067585579416.0,3
1722,0.0,0.0,1.0,-3.0,-3.0,0.0,-1.0,0.0,1651067585591428.0,3
1723,0.0,0.0,-2.0,0.0,1.0,5.0,3.0,0.0,1651067585591428.0,3
1724,-1.0,-2.0,0.0,-1.0,-1.0,-5.0,-3.0,-2.0,1651067585600612.0,3
1725,-1.0,0.0,-1.0,0.0,1.0,1.0,-1.0,2.0,1651067585600612.0,3
1726,-1.0,-2.0,-1.0,-2.0,-5.0,-2.0,-3.0,-1.0,1651067585615514.0,3
1727,-1.0,1.0,-1.0,2.0,9.0,3.0,-1.0,-1.0,1651067585615514.0,3
1728,1.0,2.0,0.0,-2.0,-2.0,4.0,0.0,1.0,1651067585616502.0,3
1729,0.0,-1.0,1.0,1.0,0.0,2.0,-1.0,-1.0,1651067585616502.0,3
1730,1.0,0.0,-1.0,-1.0,-1.0,0.0,-2.0,0.0,1651067585644821.0,3
1731,1.0,-1.0,-3.0,-3.0,-4.0,-4.0,-2.0,-1.0,1651067585644821.0,3
1732,-2.0,0.0,1.0,-1.0,-3.0,-1.0,2.0,0.0,1651067585646789.0,3
1733,0.0,-1.0,-2.0,-2.0,-6.0,-6.0,-2.0,-2.0,1651067585646789.0,3
1734,-1.0,-3.0,-4.0,-2.0,3.0,1.0,-1.0,-2.0,1651067585650778.0,3
1735,1.0,0.0,1.0,1.0,-2.0,0.0,-2.0,-1.0,1651067585650778.0,3
1736,-1.0,0.0,-1.0,-2.0,6.0,-2.0,0.0,-2.0,1651067585659816.0,3
1737,-1.0,0.0,1.0,-1.0,-1.0,-1.0,1.0,-2.0,1651067585659816.0,3
1738,-1.0,2.0,0.0,0.0,0.0,3.0,1.0,0.0,1651067585675363.0,3
1739,-2.0,-2.0,-1.0,-1.0,-1.0,-2.0,-2.0,-1.0,1651067585675363.0,3
1740,-1.0,-1.0,0.0,-1.0,-5.0,-5.0,-3.0,-1.0,1651067585676366.0,3
1741,-1.0,-1.0,-3.0,0.0,6.0,2.0,3.0,0.0,1651067585676366.0,3
1742,-1.0,0.0,1.0,0.0,-1.0,-2.0,-3.0,-1.0,1651067585697554.0,3
1743,-1.0,-1.0,1.0,-4.0,-17.0,-7.0,-2.0,-2.0,1651067585697554.0,3
1744,1.0,-2.0,-2.0,4.0,19.0,8.0,2.0,1.0,1651067585699515.0,3
1745,-3.0,-1.0,-3.0,-3.0,-4.0,-2.0,-2.0,-2.0,1651067585699515.0,3
1746,-1.0,-1.0,-1.0,-1.0,-2.0,0.0,-2.0,-1.0,1651067585711587.0,0
1747,0.0,2.0,1.0,1.0,1.0,-1.0,0.0,0.0,1651067585711587.0,0
1748,-1.0,-1.0,-1.0,-5.0,-11.0,-11.0,-3.0,-3.0,1651067585727671.0,0
1749,0.0,-1.0,0.0,0.0,-3.0,1.0,0.0,0.0,1651067585727671.0,0
1750,0.0,2.0,0.0,2.0,12.0,3.0,0.0,0.0,1651067585734730.0,0
1751,-1.0,0.0,1.0,-1.0,-7.0,-2.0,1.0,-1.0,1651067585734730.0,0
1752,-2.0,-1.0,-1.0,-2.0,-7.0,-5.0,-2.0,-2.0,1651067585736755.0,0
1753,1.0,-1.0,1.0,0.0,-1.0,-5.0,-2.0,-1.0,1651067585736755.0,0
1754,1.0,-2.0,0.0,0.0,-2.0,7.0,4.0,1.0,1651067585757451.0,0
1755,0.0,-1.0,0.0,1.0,4.0,0.0,2.0,0.0,1651067585757451.0,0
1756,0.0,0.0,-1.0,-2.0,-10.0,-6.0,-2.0,-1.0,1651067585759413.0,0
1757,-1.0,0.0,-1.0,0.0,2.0,-7.0,-2.0,-2.0,1651067585759413.0,0
1758,-1.0,1.0,1.0,0.0,9.0,1.0,1.0,0.0,1651067585780524.0,0
1759,0.0,-2.0,-1.0,-1.0,-5.0,-1.0,0.0,1.0,1651067585780524.0,0
1760,0.0,0.0,0.0,1.0,1.0,0.0,-1.0,0.0,1651067585781524.0,0
1761,-1.0,-2.0,-2.0,-4.0,-8.0,-4.0,-2.0,-1.0,1651067585781524.0,0
1762,0.0,0.0,-1.0,-1.0,-2.0,-4.0,-1.0,-2.0,1651067585795487.0,0
1763,1.0,0.0,-3.0,-1.0,4.0,4.0,2.0,-2.0,1651067585795487.0,0
1764,0.0,-1.0,-2.0,0.0,-5.0,-4.0,-4.0,-2.0,1651067585796484.0,0
1765,0.0,-1.0,1.0,1.0,3.0,3.0,-1.0,1.0,1651067585796484.0,0
1766,0.0,0.0,-2.0,-1.0,-2.0,0.0,1.0,0.0,1651067585817754.0,0
1767,-1.0,-1.0,1.0,-1.0,-1.0,-1.0,-3.0,-1.0,1651067585817754.0,0
1768,0.0,1.0,3.0,0.0,3.0,1.0,0.0,0.0,1651067585818709.0,0
1769,0.0,-1.0,-3.0,-1.0,2.0,0.0,0.0,1.0,1651067585818709.0,0
1770,-1.0,-1.0,1.0,-2.0,-3.0,1.0,0.0,0.0,1651067585840941.0,0
1771,1.0,0.0,-1.0,1.0,2.0,1.0,0.0,0.0,1651067585840941.0,0
1772,-2.0,-1.0,0.0,1.0,1.0,-1.0,-1.0,1.0,1651067585841882.0,0
1773,0.0,0.0,0.0,1.0,-2.0,-1.0,-1.0,0.0,1651067585841882.0,0
1774,-2.0,0.0,-2.0,-2.0,-7.0,-3.0,0.0,-3.0,1651067585855066.0,0
1775,0.0,-1.0,-1.0,3.0,5.0,1.0,1.0,0.0,1651067585855066.0,0
1776,-1.0,1.0,-2.0,-3.0,-1.0,-1.0,1.0,-2.0,1651067585857002.0,0
1777,1.0,1.0,2.0,-1.0,-2.0,5.0,1.0,1.0,1651067585857002.0,0
1778,-1.0,-3.0,-4.0,-3.0,-5.0,-7.0,-4.0,0.0,1651067585878020.0,0
1779,-1.0,0.0,1.0,-4.0,-7.0,-2.0,0.0,0.0,1651067585878020.0,0
1780,0.0,0.0,-2.0,0.0,11.0,0.0,0.0,-1.0,1651067585879019.0,0
1781,0.0,0.0,1.0,2.0,1.0,0.0,1.0,-1.0,1651067585879019.0,0
1782,0.0,0.0,-1.0,-1.0,-2.0,-1.0,0.0,-1.0,1651067585900063.0,0
1783,-2.0,-2.0,-1.0,1.0,1.0,-1.0,0.0,-1.0,1651067585900063.0,0
1784,0.0,-3.0,-2.0,-1.0,-5.0,-5.0,0.0,0.0,1651067585902027.0,0
1785,-2.0,1.0,2.0,-1.0,-1.0,0.0,-2.0,-1.0,1651067585902027.0,0
1786,-1.0,0.0,1.0,2.0,1.0,-1.0,-3.0,0.0,1651067585922684.0,0
1787,0.0,0.0,1.0,0.0,0.0,2.0,2.0,1.0,1651067585922684.0,0
1788,-1.0,-1.0,-2.0,-1.0,-3.0,0.0,-1.0,-1.0,1651067585923715.0,0
1789,-1.0,-1.0,0.0,-1.0,3.0,0.0,0.0,-2.0,1651067585923715.0,0
1790,1.0,-2.0,-1.0,1.0,-6.0,-3.0,-1.0,-1.0,1651067585937820.0,0
1791,-1.0,0.0,-2.0,-1.0,7.0,-1.0,-1.0,0.0,1651067585937820.0,0
1792,-3.0,-4.0,-3.0,1.0,-2.0,-3.0,0.0,-1.0,1651067585938758.0,0
1793,-2.0,0.0,-2.0,1.0,5.0,7.0,2.0,0.0,1651067585938758.0,0
1794,0.0,0.0,1.0,-1.0,-2.0,-3.0,-2.0,0.0,1651067585960476.0,0
1795,0.0,1.0,0.0,-2.0,0.0,-2.0,-1.0,-1.0,1651067585960476.0,0
1796,0.0,1.0,1.0,0.0,0.0,4.0,3.0,0.0,1651067585961443.0,0
1797,0.0,-1.0,-2.0,-2.0,-4.0,-2.0,-2.0,-2.0,1651067585961443.0,0
1798,-1.0,1.0,0.0,0.0,-4.0,-2.0,1.0,-2.0,1651067585974566.0,0
1799,-1.0,-2.0,-1.0,-2.0,-9.0,-5.0,-2.0,0.0,1651067585974566.0,0
1800,-1.0,2.0,-1.0,5.0,19.0,14.0,0.0,0.0,1651067585981655.0,0
1801,-1.0,-1.0,1.0,-1.0,-2.0,-3.0,0.0,-2.0,1651067585981655.0,0
1802,-1.0,-2.0,0.0,3.0,2.0,3.0,2.0,0.0,1651067586005373.0,0
1803,-1.0,-3.0,-2.0,-2.0,-7.0,-4.0,-3.0,-2.0,1651067586005373.0,0
1804,0.0,-1.0,2.0,-1.0,-6.0,-3.0,-2.0,0.0,1651067586006382.0,0
1805,-2.0,-3.0,-6.0,-2.0,-4.0,-2.0,-2.0,-2.0,1651067586006382.0,0
1806,-1.0,0.0,4.0,1.0,1.0,0.0,0.0,1.0,1651067586020463.0,0
1807,1.0,-1.0,-2.0,1.0,1.0,0.0,-1.0,0.0,1651067586020463.0,0
1808,-1.0,-1.0,-2.0,-5.0,-8.0,-7.0,-3.0,-1.0,1651067586021461.0,0
1809,-1.0,-1.0,0.0,1.0,9.0,6.0,2.0,-2.0,1651067586021461.0,0
1810,0.0,2.0,-3.0,-1.0,-4.0,-4.0,0.0,-2.0,1651067586034761.0,0
1811,-2.0,1.0,0.0,0.0,3.0,4.0,0.0,-2.0,1651067586034761.0,0
1812,0.0,-1.0,1.0,1.0,-6.0,-3.0,-1.0,-1.0,1651067586041339.0,0
1813,0.0,0.0,1.0,-1.0,-4.0,-6.0,0.0,1.0,1651067586041339.0,0
1814,1.0,-2.0,-2.0,-3.0,-7.0,-4.0,-2.0,0.0,1651067586057269.0,0
1815,-1.0,-1.0,-4.0,1.0,12.0,5.0,1.0,0.0,1651067586057269.0,0
1816,0.0,0.0,-1.0,-3.0,-4.0,-3.0,-1.0,0.0,1651067586059258.0,0
1817,0.0,-3.0,-1.0,0.0,1.0,1.0,-1.0,-2.0,1651067586059258.0,0
1818,0.0,-2.0,0.0,-2.0,2.0,1.0,2.0,1.0,1651067586080348.0,0
1819,0.0,0.0,1.0,-1.0,0.0,0.0,-2.0,0.0,1651067586080348.0,0
1820,-1.0,-1.0,-1.0,-1.0,-1.0,-2.0,1.0,-1.0,1651067586081292.0,0
1821,-1.0,1.0,-2.0,0.0,-2.0,-3.0,-3.0,-1.0,1651067586081292.0,0
1822,-1.0,1.0,0.0,0.0,-8.0,-6.0,-3.0,0.0,1651067586094785.0,0
1823,1.0,0.0,0.0,0.0,5.0,2.0,1.0,0.0,1651067586094785.0,0
1824,-1.0,-1.0,0.0,3.0,9.0,5.0,0.0,0.0,1651067586101315.0,0
1825,-1.0,1.0,-1.0,-3.0,-6.0,-3.0,-1.0,0.0,1651067586101315.0,0
1826,-2.0,0.0,-1.0,-1.0,4.0,0.0,-2.0,0.0,1651067586117349.0,0
1827,-1.0,-1.0,2.0,-1.0,-5.0,3.0,3.0,1.0,1651067586117349.0,0
1828,0.0,0.0,-2.0,-2.0,-4.0,-2.0,-2.0,0.0,1651067586119372.0,0
1829,0.0,-1.0,1.0,1.0,3.0,1.0,1.0,1.0,1651067586119372.0,0
1830,0.0,0.0,-3.0,-2.0,0.0,0.0,-2.0,-2.0,1651067586140430.0,0
1831,-1.0,0.0,-2.0,-2.0,-1.0,-4.0,-4.0,-2.0,1651067586140430.0,0
1832,1.0,-1.0,-2.0,-5.0,-9.0,-1.0,1.0,-2.0,1651067586141383.0,0
1833,-2.0,0.0,-2.0,0.0,7.0,5.0,0.0,0.0,1651067586141383.0,0
1834,-1.0,0.0,-1.0,0.0,-3.0,-2.0,-2.0,0.0,1651067586154314.0,0
1835,-1.0,-1.0,0.0,2.0,5.0,5.0,1.0,-1.0,1651067586154314.0,0
1836,0.0,-1.0,1.0,0.0,-2.0,2.0,0.0,0.0,1651067586161365.0,0
1837,-1.0,0.0,0.0,-2.0,-8.0,-6.0,-2.0,-1.0,1651067586161365.0,0
1838,0.0,-1.0,2.0,-1.0,-1.0,4.0,1.0,1.0,1651067586177647.0,0
1839,0.0,0.0,-3.0,1.0,14.0,3.0,0.0,2.0,1651067586177647.0,0
1840,-2.0,-1.0,1.0,-1.0,-5.0,-5.0,-4.0,-2.0,1651067586179584.0,0
1841,0.0,-2.0,0.0,2.0,-3.0,0.0,0.0,-1.0,1651067586179584.0,0
1842,0.0,-1.0,0.0,1.0,8.0,7.0,1.0,-1.0,1651067586200462.0,0
1843,-1.0,-2.0,-1.0,-3.0,-7.0,-4.0,-2.0,-1.0,1651067586200462.0,0
1844,-1.0,0.0,0.0,2.0,0.0,-2.0,-2.0,0.0,1651067586201433.0,0
1845,1.0,1.0,0.0,-2.0,0.0,-3.0,0.0,1.0,1651067586201433.0,0
1846,-1.0,-1.0,-1.0,-1.0,3.0,3.0,0.0,0.0,1651067586214533.0,0
1847,0.0,1.0,-1.0,-1.0,-2.0,-4.0,-2.0,0.0,1651067586214533.0,0
1848,-1.0,0.0,1.0,-1.0,2.0,4.0,4.0,1.0,1651067586221578.0,0
1849,-3.0,0.0,-3.0,-2.0,-3.0,-2.0,-2.0,-1.0,1651067586221578.0,0
1850,-1.0,0.0,0.0,-1.0,1.0,-1.0,-1.0,-1.0,1651067586237534.0,0
1851,0.0,-1.0,0.0,-2.0,-2.0,0.0,-1.0,-1.0,1651067586237534.0,0
1852,1.0,0.0,0.0,0.0,-6.0,-3.0,-1.0,-1.0,1651067586239496.0,0
1853,-1.0,2.0,0.0,1.0,10.0,6.0,2.0,0.0,1651067586239496.0,0
1854,2.0,1.0,0.0,0.0,-1.0,-2.0,0.0,1.0,1651067586260497.0,0
1855,1.0,0.0,-1.0,-1.0,-4.0,-2.0,0.0,-1.0,1651067586260497.0,0
1856,-2.0,-1.0,-1.0,-3.0,-6.0,-2.0,-2.0,-2.0,1651067586261491.0,0
1857,0.0,-1.0,0.0,-3.0,-2.0,-3.0,-2.0,0.0,1651067586261491.0,0
1858,-2.0,-1.0,-3.0,3.0,9.0,11.0,1.0,0.0,1651067586274167.0,0
1859,-1.0,0.0,0.0,1.0,-4.0,-2.0,-3.0,-2.0,1651067586274167.0,0
1860,-1.0,2.0,0.0,0.0,1.0,-3.0,-3.0,1.0,1651067586282207.0,0
1861,2.0,-1.0,-1.0,-1.0,-11.0,-4.0,-2.0,0.0,1651067586282207.0,0
1862,0.0,0.0,-2.0,0.0,5.0,2.0,2.0,-1.0,1651067586297383.0,0
1863,0.0,0.0,-2.0,0.0,0.0,2.0,-2.0,0.0,1651067586297383.0,0
1864,0.0,0.0,2.0,-3.0,1.0,-1.0,1.0,0.0,1651067586299348.0,0
1865,0.0,-1.0,1.0,1.0,-4.0,-2.0,-1.0,-1.0,1651067586299348.0,0
1866,-2.0,-4.0,-4.0,0.0,3.0,-6.0,-2.0,-3.0,1651067586320374.0,0
1867,-1.0,0.0,0.0,-4.0,-6.0,2.0,3.0,0.0,1651067586320374.0,0
1868,0.0,0.0,-1.0,1.0,7.0,0.0,-3.0,-2.0,1651067586321373.0,0
1869,-1.0,2.0,1.0,-1.0,0.0,3.0,1.0,-1.0,1651067586321373.0,0
1870,0.0,-1.0,0.0,1.0,-4.0,-5.0,-1.0,2.0,1651067586333743.0,0
1871,0.0,-1.0,-1.0,-2.0,-4.0,-1.0,-2.0,-1.0,1651067586333743.0,0
1872,-1.0,-4.0,-3.0,0.0,1.0,4.0,1.0,0.0,1651067586342679.0,0
1873,0.0,0.0,-2.0,0.0,5.0,2.0,-1.0,-1.0,1651067586342679.0,0
1874,0.0,2.0,3.0,-1.0,-5.0,0.0,0.0,-1.0,1651067586357405.0,0
1875,-2.0,-2.0,-6.0,0.0,-2.0,-8.0,-3.0,-1.0,1651067586357405.0,0
1876,1.0,2.0,-3.0,-1.0,1.0,2.0,1.0,0.0,1651067586359342.0,0
1877,-1.0,-4.0,0.0,0.0,-2.0,-1.0,-1.0,1.0,1651067586359342.0,0
1878,-1.0,-3.0,2.0,-2.0,-4.0,-2.0,-3.0,-1.0,1651067586380463.0,0
1879,-1.0,0.0,0.0,1.0,-2.0,-7.0,-3.0,-2.0,1651067586380463.0,0
1880,-2.0,0.0,-1.0,-2.0,1.0,2.0,1.0,0.0,1651067586381439.0,0
1881,2.0,-1.0,-1.0,1.0,3.0,4.0,2.0,0.0,1651067586381439.0,0
1882,-2.0,1.0,-3.0,-3.0,-6.0,-6.0,-2.0,-1.0,1651067586393510.0,0
1883,1.0,-1.0,0.0,3.0,11.0,5.0,1.0,0.0,1651067586393510.0,0
1884,0.0,-1.0,2.0,-3.0,-15.0,-10.0,-3.0,0.0,1651067586402475.0,0
1885,-1.0,-1.0,-3.0,-3.0,6.0,2.0,-1.0,-1.0,1651067586402475.0,0
1886,0.0,-3.0,-2.0,0.0,-5.0,-3.0,-2.0,-2.0,1651067586417640.0,0
1887,-2.0,2.0,1.0,-1.0,1.0,4.0,0.0,-1.0,1651067586417640.0,0
1888,-1.0,-1.0,2.0,-1.0,1.0,0.0,-1.0,1.0,1651067586418579.0,0
1889,-2.0,-1.0,-1.0,1.0,-3.0,-6.0,-2.0,-2.0,1651067586418579.0,0
1890,1.0,-1.0,1.0,-1.0,-8.0,-7.0,-1.0,-1.0,1651067586440522.0,0
1891,0.0,-2.0,-1.0,0.0,-1.0,1.0,0.0,1.0,1651067586440522.0,0
1892,0.0,0.0,-2.0,0.0,-3.0,1.0,-1.0,-1.0,1651067586441528.0,0
1893,0.0,2.0,1.0,-4.0,-16.0,-6.0,-2.0,1.0,1651067586441528.0,0
1894,0.0,-1.0,0.0,2.0,19.0,9.0,3.0,2.0,1651067586453552.0,0
1895,0.0,0.0,3.0,3.0,-2.0,-1.0,1.0,1.0,1651067586453552.0,0
1896,-1.0,-3.0,-5.0,-4.0,1.0,0.0,0.0,0.0,1651067586462646.0,0
1897,-1.0,-1.0,-2.0,-2.0,-7.0,-4.0,-1.0,0.0,1651067586462646.0,0
1898,-3.0,1.0,0.0,-1.0,-4.0,-3.0,-2.0,-2.0,1651067586477742.0,0
1899,0.0,2.0,1.0,0.0,2.0,-1.0,-1.0,0.0,1651067586477742.0,0
1900,0.0,-1.0,1.0,2.0,0.0,1.0,0.0,1.0,1651067586478697.0,0
1901,-1.0,0.0,1.0,3.0,6.0,2.0,-1.0,-1.0,1651067586478697.0,0
1902,0.0,-1.0,-1.0,-2.0,-4.0,-2.0,1.0,0.0,1651067586499681.0,0
1903,0.0,-4.0,-1.0,-2.0,-1.0,-3.0,1.0,0.0,1651067586499681.0,0
1904,-1.0,0.0,1.0,-1.0,0.0,-3.0,-3.0,-1.0,1651067586501609.0,0
1905,0.0,-2.0,-4.0,-2.0,-7.0,-4.0,-2.0,-2.0,1651067586501609.0,0
1906,0.0,-1.0,-4.0,0.0,11.0,0.0,-1.0,0.0,1651067586513603.0,0
1907,1.0,-1.0,0.0,-2.0,-6.0,4.0,3.0,0.0,1651067586513603.0,0
1908,-2.0,-4.0,-6.0,-1.0,6.0,-3.0,-1.0,-2.0,1651067586522687.0,0
1909,-1.0,-1.0,1.0,-1.0,-1.0,-1.0,1.0,1.0,1651067586522687.0,0
1910,1.0,2.0,2.0,-5.0,-15.0,-7.0,-3.0,0.0,1651067586537800.0,0
1911,-1.0,3.0,8.0,5.0,6.0,6.0,0.0,-2.0,1651067586537800.0,0
1912,-1.0,-1.0,-3.0,-1.0,7.0,5.0,0.0,2.0,1651067586538774.0,0
1913,-2.0,-4.0,0.0,2.0,-6.0,-5.0,-2.0,0.0,1651067586538774.0,0
1914,-2.0,-6.0,-13.0,-10.0,5.0,2.0,1.0,0.0,1651067586560496.0,0
1915,0.0,1.0,3.0,0.0,-3.0,-6.0,-1.0,-1.0,1651067586560496.0,0
