,EMG_s0,EMG_s1,EMG_s2,EMG_s3,EMG_s4,EMG_s5,EMG_s6,EMG_s7,timestamp,signal
0,-1.0,-1.0,-5.0,0.0,0.0,-2.0,-3.0,-1.0,1651067768997276.0,0
1,0.0,0.0,2.0,1.0,-2.0,-6.0,-3.0,-1.0,1651067768997276.0,0
2,1.0,-2.0,8.0,3.0,0.0,5.0,3.0,1.0,1651067768998233.0,0
3,1.0,-1.0,-6.0,1.0,9.0,4.0,1.0,1.0,1651067768998233.0,0
4,1.0,-1.0,2.0,0.0,-3.0,-4.0,0.0,-1.0,1651067769011198.0,0
5,1.0,-3.0,-6.0,-2.0,1.0,4.0,2.0,-1.0,1651067769011198.0,0
6,-2.0,-2.0,6.0,0.0,-6.0,-3.0,-4.0,-2.0,1651067769019217.0,0
7,0.0,-2.0,-5.0,-2.0,-4.0,-3.0,0.0,1.0,1651067769019217.0,0
8,-2.0,-1.0,-1.0,0.0,0.0,-1.0,-1.0,-2.0,1651067769034950.0,0
9,-2.0,-1.0,-1.0,0.0,-1.0,-1.0,-2.0,-1.0,1651067769034950.0,0
10,-1.0,0.0,0.0,-3.0,0.0,-4.0,-3.0,-2.0,1651067769035193.0,0
11,0.0,0.0,2.0,3.0,0.0,1.0,2.0,2.0,1651067769035193.0,0
12,1.0,-1.0,-8.0,-3.0,10.0,5.0,1.0,0.0,1651067769057428.0,0
13,1.0,1.0,4.0,2.0,-6.0,-4.0,0.0,0.0,1651067769057428.0,0
14,0.0,-2.0,-3.0,-7.0,-10.0,-4.0,-2.0,-2.0,1651067769057428.0,0
15,-1.0,-1.0,4.0,2.0,3.0,-2.0,0.0,-2.0,1651067769057428.0,0
16,-1.0,-2.0,3.0,2.0,-3.0,-4.0,2.0,-2.0,1651067769070433.0,0
17,-1.0,1.0,2.0,-6.0,10.0,2.0,0.0,-1.0,1651067769070433.0,0
18,-1.0,0.0,-16.0,-6.0,2.0,0.0,-2.0,0.0,1651067769079389.0,0
19,0.0,-3.0,-4.0,-2.0,-8.0,2.0,0.0,1.0,1651067769079389.0,0
20,0.0,1.0,3.0,2.0,3.0,1.0,-1.0,1.0,1651067769094490.0,0
21,0.0,-3.0,-1.0,1.0,-9.0,-3.0,-1.0,0.0,1651067769094490.0,0
22,1.0,1.0,3.0,1.0,12.0,-1.0,-4.0,-1.0,1651067769095511.0,0
23,-2.0,-1.0,9.0,5.0,-3.0,0.0,-2.0,-1.0,1651067769095511.0,0
24,0.0,2.0,-3.0,-3.0,1.0,1.0,1.0,-1.0,1651067769117463.0,0
25,-1.0,-1.0,-4.0,-1.0,-10.0,-5.0,-2.0,-2.0,1651067769117463.0,0
26,0.0,0.0,6.0,0.0,6.0,3.0,3.0,0.0,1651067769117463.0,0
27,1.0,-1.0,5.0,5.0,-3.0,0.0,0.0,1.0,1651067769117463.0,0
28,-1.0,-1.0,0.0,-1.0,-1.0,3.0,1.0,-1.0,1651067769131124.0,0
29,-1.0,-1.0,-6.0,2.0,0.0,-2.0,-2.0,-1.0,1651067769131124.0,0
30,0.0,1.0,3.0,0.0,-3.0,-2.0,1.0,-1.0,1651067769139386.0,0
31,-2.0,2.0,-4.0,-6.0,0.0,-1.0,-1.0,-2.0,1651067769139386.0,0
32,1.0,-1.0,2.0,-1.0,-6.0,-3.0,-2.0,0.0,1651067769154274.0,0
33,-2.0,-1.0,-11.0,-7.0,-4.0,-3.0,-1.0,-2.0,1651067769154274.0,0
34,2.0,0.0,5.0,8.0,8.0,6.0,1.0,1.0,1651067769154274.0,0
35,-1.0,0.0,0.0,0.0,2.0,3.0,1.0,-1.0,1651067769154274.0,0
36,0.0,0.0,-2.0,1.0,-1.0,-3.0,0.0,0.0,1651067769176754.0,0
37,-1.0,-1.0,1.0,-10.0,2.0,-2.0,-1.0,0.0,1651067769176754.0,0
38,0.0,-2.0,-11.0,-4.0,-9.0,-1.0,-1.0,-1.0,1651067769177684.0,0
39,1.0,3.0,10.0,2.0,-1.0,-1.0,0.0,-1.0,1651067769177684.0,0
40,0.0,0.0,-2.0,2.0,-3.0,-3.0,-3.0,-1.0,1651067769191218.0,0
41,0.0,0.0,8.0,5.0,4.0,1.0,1.0,0.0,1651067769191218.0,0
42,0.0,-1.0,-18.0,-11.0,-10.0,-4.0,-1.0,-2.0,1651067769199265.0,0
43,0.0,-2.0,-4.0,-4.0,1.0,-3.0,-2.0,-1.0,1651067769199265.0,0
44,-3.0,-3.0,-1.0,1.0,11.0,7.0,1.0,0.0,1651067769214286.0,0
45,2.0,-1.0,-1.0,0.0,-3.0,-1.0,0.0,0.0,1651067769214286.0,0
46,0.0,1.0,6.0,2.0,-4.0,-6.0,-5.0,0.0,1651067769214286.0,0
47,0.0,-1.0,-6.0,-2.0,-9.0,-2.0,0.0,0.0,1651067769214286.0,0
48,-1.0,0.0,0.0,0.0,2.0,0.0,-2.0,0.0,1651067769237224.0,0
49,-1.0,1.0,1.0,1.0,1.0,3.0,2.0,-1.0,1651067769237224.0,0
50,-2.0,-2.0,-3.0,2.0,3.0,-1.0,2.0,0.0,1651067769238222.0,0
51,-1.0,2.0,3.0,-1.0,-5.0,-4.0,-2.0,-1.0,1651067769238222.0,0
52,0.0,-4.0,-9.0,-5.0,0.0,1.0,0.0,1.0,1651067769250218.0,0
53,-1.0,0.0,0.0,6.0,11.0,2.0,1.0,0.0,1651067769250218.0,0
54,-1.0,0.0,6.0,4.0,-4.0,1.0,0.0,0.0,1651067769259233.0,0
55,-2.0,-3.0,-5.0,-2.0,0.0,4.0,0.0,0.0,1651067769259233.0,0
56,-1.0,-1.0,-9.0,-6.0,-5.0,-2.0,-2.0,-2.0,1651067769274258.0,0
57,0.0,1.0,6.0,2.0,-4.0,-3.0,-1.0,-1.0,1651067769274258.0,0
58,0.0,0.0,2.0,2.0,5.0,1.0,0.0,-2.0,1651067769274258.0,0
59,0.0,-1.0,-7.0,-3.0,-4.0,5.0,-1.0,0.0,1651067769274258.0,0
60,-1.0,-1.0,4.0,2.0,2.0,-2.0,1.0,-1.0,1651067769297157.0,0
61,-1.0,-3.0,-6.0,0.0,-4.0,-2.0,-2.0,-1.0,1651067769297157.0,0
62,0.0,-1.0,5.0,-1.0,-1.0,-3.0,-1.0,-3.0,1651067769298154.0,0
63,0.0,3.0,9.0,6.0,2.0,0.0,1.0,-1.0,1651067769298154.0,0
64,0.0,-1.0,-17.0,-12.0,-10.0,-3.0,1.0,-2.0,1651067769311119.0,0
65,0.0,1.0,-2.0,0.0,0.0,4.0,1.0,-1.0,1651067769311119.0,0
66,-1.0,-1.0,3.0,0.0,2.0,-1.0,-1.0,0.0,1651067769319097.0,0
67,-2.0,-2.0,-5.0,-8.0,-9.0,-6.0,2.0,0.0,1651067769319097.0,0
68,0.0,-1.0,0.0,7.0,13.0,9.0,1.0,0.0,1651067769334057.0,0
69,0.0,1.0,3.0,1.0,3.0,1.0,1.0,-2.0,1651067769334057.0,0
70,-2.0,-2.0,-2.0,-3.0,-2.0,2.0,1.0,-1.0,1651067769335055.0,0
71,0.0,-1.0,-2.0,-4.0,-5.0,-3.0,-4.0,-2.0,1651067769335055.0,0
72,-1.0,0.0,8.0,3.0,-6.0,-6.0,-5.0,-2.0,1651067769357055.0,0
73,-1.0,0.0,-9.0,-2.0,0.0,-4.0,-3.0,-1.0,1651067769357055.0,0
74,-1.0,-3.0,3.0,-6.0,2.0,6.0,1.0,0.0,1651067769357994.0,0
75,1.0,0.0,-1.0,1.0,3.0,0.0,0.0,1.0,1651067769357994.0,0
76,-1.0,-1.0,-2.0,-4.0,-7.0,0.0,0.0,0.0,1651067769371014.0,0
77,-2.0,-1.0,12.0,7.0,3.0,2.0,-1.0,-2.0,1651067769371014.0,0
78,0.0,-2.0,-18.0,-8.0,-4.0,-2.0,1.0,1.0,1651067769379409.0,0
79,1.0,-1.0,2.0,2.0,4.0,3.0,-3.0,-2.0,1651067769379409.0,0
80,0.0,2.0,2.0,-2.0,-4.0,-3.0,-1.0,0.0,1651067769394273.0,0
81,0.0,0.0,1.0,-4.0,-9.0,-2.0,1.0,1.0,1651067769394273.0,0
82,-2.0,-1.0,16.0,11.0,7.0,0.0,0.0,-2.0,1651067769394485.0,0
83,-2.0,-2.0,-22.0,-12.0,2.0,0.0,-1.0,-2.0,1651067769394485.0,0
84,1.0,1.0,1.0,0.0,-6.0,-1.0,-3.0,-1.0,1651067769416673.0,0
85,0.0,0.0,4.0,2.0,1.0,-2.0,-3.0,0.0,1651067769416673.0,0
86,0.0,-1.0,1.0,1.0,5.0,4.0,3.0,2.0,1651067769417612.0,0
87,0.0,0.0,1.0,4.0,-9.0,-3.0,-1.0,1.0,1651067769417612.0,0
88,0.0,1.0,8.0,3.0,11.0,3.0,0.0,-2.0,1651067769440007.0,0
89,0.0,-1.0,-6.0,1.0,4.0,0.0,1.0,0.0,1651067769440007.0,0
90,0.0,0.0,10.0,3.0,-6.0,-2.0,-1.0,-1.0,1651067769440007.0,0
91,0.0,-2.0,-13.0,-4.0,-1.0,-2.0,-2.0,-1.0,1651067769440007.0,0
92,-1.0,-2.0,-3.0,-11.0,-9.0,-6.0,-4.0,1.0,1651067769454298.0,0
93,-1.0,-4.0,-5.0,-2.0,7.0,8.0,0.0,1.0,1651067769454298.0,0
94,0.0,2.0,7.0,4.0,-3.0,-3.0,-1.0,-1.0,1651067769454298.0,0
95,-1.0,1.0,5.0,3.0,5.0,2.0,1.0,-3.0,1651067769454298.0,0
96,0.0,0.0,2.0,3.0,-3.0,-5.0,0.0,-3.0,1651067769477528.0,0
97,0.0,-2.0,-5.0,-3.0,-2.0,1.0,0.0,0.0,1651067769477528.0,0
98,1.0,1.0,-1.0,1.0,-4.0,-3.0,-5.0,-1.0,1651067769477528.0,0
99,-1.0,-2.0,-1.0,-3.0,0.0,-1.0,0.0,-1.0,1651067769477528.0,0
100,2.0,1.0,3.0,5.0,2.0,6.0,5.0,1.0,1651067769500031.0,0
101,-3.0,-3.0,-8.0,-5.0,-3.0,-1.0,0.0,-1.0,1651067769500031.0,0
102,0.0,0.0,0.0,-1.0,4.0,-3.0,-4.0,0.0,1651067769500031.0,0
103,0.0,2.0,9.0,2.0,6.0,7.0,2.0,1.0,1651067769500031.0,0
104,-1.0,0.0,-1.0,2.0,-4.0,-5.0,-3.0,1.0,1651067769513946.0,0
105,-1.0,0.0,-3.0,0.0,-1.0,-1.0,1.0,-1.0,1651067769513946.0,0
106,-1.0,1.0,-6.0,-6.0,-10.0,-5.0,-1.0,0.0,1651067769514946.0,0
107,-2.0,-1.0,5.0,2.0,0.0,-2.0,-2.0,1.0,1651067769514946.0,0
108,-1.0,-3.0,-10.0,-1.0,5.0,4.0,0.0,2.0,1651067769536911.0,0
109,0.0,2.0,5.0,1.0,-5.0,-2.0,-4.0,-2.0,1651067769536911.0,0
110,-1.0,0.0,-4.0,-3.0,2.0,5.0,3.0,1.0,1651067769537841.0,0
111,0.0,-2.0,5.0,11.0,3.0,-2.0,-1.0,0.0,1651067769537841.0,0
112,-3.0,1.0,1.0,2.0,0.0,-1.0,-2.0,-2.0,1651067769559850.0,0
113,0.0,0.0,1.0,-1.0,-13.0,-11.0,-3.0,-2.0,1651067769559850.0,0
114,0.0,-3.0,-7.0,-4.0,14.0,12.0,3.0,-1.0,1651067769560781.0,0
115,-2.0,1.0,5.0,2.0,-4.0,-3.0,1.0,0.0,1651067769560781.0,0
116,1.0,-2.0,-2.0,0.0,0.0,-2.0,0.0,-2.0,1651067769573812.0,0
117,0.0,2.0,1.0,-3.0,-2.0,-2.0,-2.0,0.0,1651067769573812.0,0
118,-1.0,2.0,2.0,0.0,-4.0,-4.0,0.0,1.0,1651067769574756.0,0
119,0.0,-1.0,-3.0,-4.0,-1.0,4.0,0.0,-1.0,1651067769574756.0,0
120,-2.0,0.0,0.0,-2.0,1.0,2.0,0.0,0.0,1651067769595465.0,0
121,1.0,4.0,8.0,1.0,3.0,1.0,1.0,0.0,1651067769595465.0,0
122,-1.0,-3.0,-18.0,-6.0,-7.0,-7.0,-1.0,-1.0,1651067769604326.0,0
123,1.0,-3.0,1.0,1.0,0.0,-3.0,0.0,-3.0,1651067769604326.0,0
124,0.0,2.0,9.0,2.0,-2.0,0.0,2.0,0.0,1651067769619831.0,0
125,-1.0,-2.0,-2.0,1.0,4.0,4.0,2.0,-2.0,1651067769619831.0,0
126,0.0,1.0,4.0,0.0,-9.0,-2.0,-2.0,-2.0,1651067769625997.0,0
127,0.0,1.0,-5.0,-4.0,6.0,1.0,0.0,1.0,1651067769625997.0,0
128,-1.0,1.0,6.0,5.0,-2.0,-9.0,-3.0,-2.0,1651067769642437.0,0
129,0.0,-5.0,-6.0,0.0,1.0,4.0,1.0,0.0,1651067769642437.0,0
130,-1.0,-1.0,-6.0,-5.0,0.0,0.0,0.0,1.0,1651067769643437.0,0
131,-1.0,-2.0,-3.0,-4.0,-1.0,-3.0,-2.0,0.0,1651067769643437.0,0
132,1.0,1.0,10.0,2.0,-4.0,-1.0,1.0,1.0,1651067769655586.0,0
133,-1.0,-1.0,-4.0,3.0,6.0,3.0,-1.0,-2.0,1651067769655586.0,0
134,-1.0,0.0,2.0,2.0,-3.0,-6.0,-3.0,-2.0,1651067769664503.0,0
135,1.0,-1.0,-2.0,-2.0,-1.0,0.0,-1.0,0.0,1651067769664503.0,0
136,0.0,0.0,-2.0,-4.0,-6.0,-3.0,-1.0,-1.0,1651067769679613.0,0
137,-2.0,-1.0,9.0,-2.0,-9.0,-4.0,-1.0,-1.0,1651067769679613.0,0
138,1.0,-2.0,-15.0,-3.0,21.0,8.0,0.0,0.0,1651067769681555.0,0
139,-2.0,-1.0,1.0,0.0,-4.0,-1.0,2.0,0.0,1651067769681555.0,0
140,0.0,0.0,-4.0,-1.0,1.0,1.0,-2.0,-1.0,1651067769701734.0,0
141,0.0,0.0,-1.0,-5.0,-5.0,-6.0,-2.0,1.0,1651067769701734.0,0
142,-2.0,1.0,6.0,3.0,-4.0,3.0,-1.0,-1.0,1651067769703717.0,0
143,0.0,1.0,10.0,5.0,-2.0,1.0,3.0,-1.0,1651067769703717.0,0
144,0.0,-3.0,-24.0,-12.0,3.0,2.0,2.0,-2.0,1651067769715884.0,0
145,0.0,-2.0,-5.0,-8.0,-1.0,-5.0,-2.0,0.0,1651067769715884.0,0
146,1.0,0.0,11.0,6.0,-1.0,-3.0,-1.0,0.0,1651067769724660.0,0
147,0.0,-2.0,-8.0,-3.0,0.0,0.0,-3.0,-2.0,1651067769724660.0,0
148,-1.0,2.0,17.0,4.0,-6.0,3.0,3.0,0.0,1651067769740008.0,0
149,1.0,-1.0,-5.0,0.0,8.0,3.0,-1.0,-1.0,1651067769740008.0,0
150,-2.0,0.0,-1.0,0.0,2.0,2.0,0.0,-1.0,1651067769741012.0,0
151,-2.0,0.0,1.0,-3.0,-4.0,-1.0,2.0,-1.0,1651067769741012.0,0
152,0.0,-3.0,-9.0,1.0,2.0,-2.0,-2.0,0.0,1651067769762387.0,0
153,-2.0,0.0,-3.0,-3.0,-7.0,-3.0,0.0,0.0,1651067769762387.0,0
154,-1.0,-1.0,5.0,1.0,-4.0,-5.0,-3.0,-1.0,1651067769763385.0,0
155,-2.0,-1.0,-9.0,-2.0,-3.0,-3.0,0.0,-1.0,1651067769763385.0,0
156,-2.0,-1.0,3.0,5.0,5.0,5.0,0.0,0.0,1651067769775353.0,0
157,-1.0,2.0,-2.0,1.0,2.0,4.0,1.0,-1.0,1651067769775353.0,0
158,1.0,-2.0,-5.0,-3.0,-5.0,-3.0,0.0,-2.0,1651067769784365.0,0
159,0.0,0.0,4.0,-3.0,-12.0,-7.0,-6.0,-3.0,1651067769784365.0,0
160,1.0,-2.0,-2.0,8.0,16.0,8.0,0.0,3.0,1651067769799477.0,0
161,-1.0,-1.0,1.0,0.0,-5.0,0.0,3.0,2.0,1651067769799477.0,0
162,-2.0,-1.0,-6.0,-1.0,-4.0,-5.0,-1.0,0.0,1651067769801427.0,0
163,0.0,2.0,5.0,3.0,2.0,0.0,-3.0,0.0,1651067769801427.0,0
164,0.0,0.0,5.0,-2.0,-6.0,-6.0,-3.0,-2.0,1651067769821681.0,0
165,0.0,-2.0,-4.0,2.0,4.0,2.0,-1.0,0.0,1651067769821681.0,0
166,0.0,1.0,9.0,6.0,-6.0,0.0,2.0,-1.0,1651067769823690.0,0
167,0.0,0.0,-3.0,-2.0,4.0,1.0,0.0,0.0,1651067769823690.0,0
168,-3.0,-2.0,-8.0,-4.0,-4.0,0.0,0.0,-1.0,1651067769835711.0,0
169,0.0,0.0,1.0,-2.0,0.0,-1.0,-2.0,0.0,1651067769835711.0,0
170,1.0,-1.0,3.0,0.0,-2.0,0.0,0.0,2.0,1651067769844622.0,0
171,0.0,0.0,-2.0,-2.0,-1.0,-3.0,-1.0,0.0,1651067769844622.0,0
172,0.0,2.0,9.0,1.0,-7.0,-3.0,2.0,-1.0,1651067769859594.0,0
173,-1.0,-3.0,-7.0,-3.0,4.0,-1.0,-1.0,-3.0,1651067769859594.0,0
174,-1.0,0.0,-5.0,-1.0,6.0,0.0,-2.0,1.0,1651067769861589.0,0
175,0.0,1.0,2.0,0.0,-5.0,-5.0,0.0,1.0,1651067769861589.0,0
176,-1.0,-1.0,-2.0,-2.0,1.0,0.0,0.0,1.0,1651067769881523.0,0
177,-1.0,0.0,2.0,0.0,-2.0,-1.0,3.0,1.0,1651067769881523.0,0
178,-2.0,-1.0,5.0,0.0,-9.0,-5.0,-1.0,-3.0,1651067769883532.0,0
179,-1.0,-3.0,-13.0,-10.0,11.0,4.0,-2.0,-2.0,1651067769883532.0,0
180,0.0,-1.0,-2.0,-6.0,-8.0,-3.0,-2.0,-1.0,1651067769895665.0,0
181,0.0,0.0,1.0,2.0,-1.0,0.0,0.0,0.0,1651067769895665.0,0
182,1.0,0.0,1.0,-1.0,8.0,4.0,0.0,-1.0,1651067769904574.0,0
183,0.0,0.0,3.0,5.0,-6.0,-3.0,1.0,-1.0,1651067769904574.0,0
184,-2.0,-1.0,-3.0,-5.0,-3.0,-1.0,-2.0,-1.0,1651067769920034.0,0
185,-1.0,1.0,1.0,2.0,-2.0,-2.0,-1.0,0.0,1651067769920034.0,0
186,-2.0,-1.0,-4.0,2.0,-1.0,-1.0,0.0,-1.0,1651067769921041.0,0
187,-1.0,2.0,1.0,0.0,-1.0,0.0,0.0,1.0,1651067769921041.0,0
188,-2.0,2.0,4.0,0.0,3.0,2.0,-1.0,-1.0,1651067769941678.0,0
189,-1.0,-1.0,-2.0,-4.0,-6.0,-4.0,-2.0,-1.0,1651067769941678.0,0
190,0.0,-1.0,-4.0,2.0,4.0,1.0,-2.0,0.0,1651067769943702.0,0
191,0.0,0.0,4.0,5.0,14.0,10.0,4.0,0.0,1651067769943702.0,0
192,0.0,-1.0,-11.0,-11.0,-6.0,-3.0,0.0,0.0,1651067769964788.0,0
193,-1.0,0.0,-5.0,-5.0,-4.0,-2.0,-1.0,-1.0,1651067769964788.0,0
194,-1.0,1.0,12.0,4.0,-8.0,1.0,2.0,0.0,1651067769965719.0,0
195,0.0,-3.0,-11.0,-8.0,-3.0,-1.0,-1.0,0.0,1651067769965719.0,0
196,-1.0,0.0,-3.0,-2.0,-1.0,-1.0,-1.0,0.0,1651067769979749.0,0
197,-1.0,-1.0,1.0,1.0,-1.0,-1.0,-4.0,-2.0,1651067769979749.0,0
198,0.0,0.0,0.0,-3.0,1.0,0.0,0.0,-1.0,1651067769980705.0,0
199,0.0,0.0,3.0,4.0,-2.0,-1.0,-1.0,0.0,1651067769980705.0,0
200,-1.0,-1.0,2.0,3.0,-2.0,-3.0,-1.0,-1.0,1651067770001703.0,0
201,-1.0,0.0,-1.0,0.0,3.0,2.0,-1.0,-1.0,1651067770001703.0,0
202,2.0,1.0,0.0,-1.0,-2.0,2.0,4.0,-1.0,1651067770003701.0,0
203,-2.0,-3.0,1.0,-1.0,-3.0,-3.0,-3.0,-4.0,1651067770003701.0,0
204,0.0,-1.0,-5.0,-1.0,-4.0,-1.0,-2.0,-2.0,1651067770024825.0,0
205,-1.0,-2.0,4.0,6.0,17.0,6.0,-1.0,-2.0,1651067770024825.0,0
206,0.0,-2.0,-8.0,-6.0,-5.0,-3.0,0.0,1.0,1651067770025777.0,0
207,-1.0,0.0,-6.0,0.0,-3.0,1.0,0.0,1.0,1651067770025777.0,0
208,-1.0,0.0,10.0,3.0,8.0,4.0,-2.0,-1.0,1651067770039789.0,0
209,-2.0,-1.0,-3.0,-2.0,-4.0,-5.0,-3.0,1.0,1651067770039789.0,0
210,0.0,0.0,-4.0,0.0,-1.0,1.0,0.0,-1.0,1651067770040716.0,0
211,-2.0,0.0,13.0,6.0,-4.0,-4.0,-1.0,-2.0,1651067770040716.0,0
212,-1.0,-2.0,-19.0,-9.0,-3.0,-4.0,0.0,0.0,1651067770061726.0,0
213,0.0,0.0,5.0,-1.0,5.0,3.0,0.0,1.0,1651067770061726.0,0
214,-1.0,0.0,-5.0,-2.0,0.0,-2.0,-3.0,-2.0,1651067770063655.0,0
215,-1.0,-1.0,0.0,-4.0,-13.0,-6.0,-1.0,-1.0,1651067770063655.0,0
216,1.0,-1.0,4.0,5.0,13.0,8.0,1.0,0.0,1651067770084792.0,0
217,1.0,-1.0,5.0,1.0,-3.0,-2.0,1.0,-1.0,1651067770084792.0,0
218,0.0,-2.0,-5.0,-6.0,-4.0,-5.0,-4.0,0.0,1651067770085722.0,0
219,0.0,-1.0,1.0,-2.0,1.0,4.0,1.0,-1.0,1651067770085722.0,0
220,-1.0,1.0,4.0,4.0,-11.0,-7.0,-3.0,-2.0,1651067770098755.0,0
221,0.0,-1.0,-4.0,-1.0,5.0,5.0,2.0,0.0,1651067770098755.0,0
222,0.0,-2.0,-9.0,-1.0,-2.0,0.0,-2.0,-2.0,1651067770105736.0,0
223,0.0,1.0,9.0,3.0,4.0,-3.0,-2.0,-1.0,1651067770105736.0,0
224,0.0,0.0,2.0,0.0,-2.0,-1.0,-1.0,-2.0,1651067770121737.0,0
225,-2.0,-1.0,-5.0,-7.0,-15.0,-4.0,1.0,-1.0,1651067770121737.0,0
226,-1.0,-1.0,-7.0,0.0,13.0,1.0,-2.0,0.0,1651067770123708.0,0
227,-1.0,-1.0,2.0,2.0,1.0,2.0,0.0,1.0,1651067770123708.0,0
228,0.0,-2.0,0.0,-7.0,-7.0,-4.0,0.0,-1.0,1651067770144805.0,0
229,1.0,-1.0,2.0,2.0,0.0,-2.0,0.0,0.0,1651067770144805.0,0
230,-1.0,-3.0,2.0,0.0,-6.0,-1.0,0.0,0.0,1651067770145734.0,0
231,-1.0,0.0,-4.0,-2.0,0.0,0.0,0.0,-1.0,1651067770145734.0,0
232,-3.0,0.0,2.0,3.0,6.0,-2.0,0.0,0.0,1651067770158743.0,0
233,0.0,-3.0,-3.0,-3.0,-10.0,4.0,2.0,-1.0,1651067770158743.0,0
234,-1.0,1.0,5.0,3.0,-1.0,-3.0,-2.0,-1.0,1651067770165687.0,0
235,0.0,-3.0,-7.0,3.0,13.0,9.0,3.0,1.0,1651067770165687.0,0
236,-2.0,-1.0,-7.0,-1.0,-3.0,-3.0,-2.0,-1.0,1651067770182702.0,0
237,-1.0,1.0,5.0,2.0,-4.0,-5.0,-3.0,0.0,1651067770182702.0,0
238,-1.0,-2.0,0.0,-1.0,0.0,-1.0,1.0,-2.0,1651067770183633.0,0
239,0.0,0.0,-4.0,-13.0,-6.0,-4.0,-4.0,0.0,1651067770183633.0,0
240,1.0,0.0,-1.0,6.0,11.0,10.0,5.0,1.0,1651067770204998.0,0
241,1.0,2.0,9.0,-2.0,-15.0,-14.0,-6.0,-3.0,1651067770204998.0,0
242,3.0,1.0,2.0,4.0,4.0,3.0,0.0,1.0,1651067770206296.0,0
243,0.0,-8.0,-15.0,-1.0,0.0,8.0,2.0,0.0,1651067770206296.0,0
244,1.0,1.0,18.0,4.0,6.0,-3.0,-4.0,-1.0,1651067770219351.0,0
245,0.0,-3.0,-33.0,-16.0,3.0,1.0,-2.0,-3.0,1651067770219351.0,0
246,-4.0,-3.0,14.0,6.0,-9.0,-7.0,-1.0,-2.0,1651067770225312.0,0
247,1.0,5.0,-6.0,-6.0,-1.0,-3.0,0.0,-1.0,1651067770225312.0,0
248,0.0,0.0,2.0,6.0,-2.0,9.0,4.0,2.0,1651067770241694.0,0
249,0.0,0.0,3.0,5.0,8.0,4.0,2.0,0.0,1651067770241694.0,0
250,-2.0,-3.0,-9.0,-3.0,8.0,2.0,0.0,-2.0,1651067770243692.0,0
251,-3.0,1.0,19.0,7.0,-10.0,-10.0,-5.0,-1.0,1651067770243692.0,0
252,3.0,3.0,2.0,-2.0,-6.0,-4.0,0.0,0.0,1651067770264943.0,0
253,-3.0,-7.0,-48.0,-8.0,14.0,1.0,-3.0,-2.0,1651067770264943.0,0
254,-2.0,3.0,59.0,7.0,3.0,7.0,-1.0,-2.0,1651067770266082.0,0
255,2.0,0.0,-16.0,-4.0,-2.0,-7.0,-1.0,7.0,1651067770266082.0,0
256,1.0,-2.0,-11.0,-13.0,-9.0,11.0,5.0,-1.0,1651067770278978.0,0
257,-5.0,0.0,3.0,0.0,-3.0,-4.0,-3.0,-4.0,1651067770278978.0,0
258,5.0,6.0,-10.0,13.0,15.0,14.0,4.0,6.0,1651067770293050.0,0
259,-1.0,-5.0,12.0,0.0,8.0,0.0,-1.0,0.0,1651067770293050.0,0
260,0.0,6.0,6.0,6.0,-6.0,-14.0,-6.0,-2.0,1651067770302241.0,0
261,4.0,0.0,8.0,-6.0,0.0,4.0,8.0,7.0,1651067770302241.0,0
262,-8.0,-6.0,-9.0,0.0,-12.0,-3.0,-2.0,-6.0,1651067770303263.0,0
263,-1.0,9.0,22.0,16.0,10.0,13.0,4.0,-1.0,1651067770303263.0,0
264,-2.0,-13.0,-38.0,-27.0,-18.0,-13.0,-4.0,0.0,1651067770324945.0,0
265,-1.0,0.0,9.0,0.0,-1.0,3.0,0.0,-1.0,1651067770324945.0,0
266,1.0,1.0,0.0,-3.0,-5.0,-10.0,-2.0,2.0,1651067770326312.0,0
267,2.0,1.0,-5.0,9.0,9.0,8.0,5.0,-2.0,1651067770326312.0,0
268,-4.0,-6.0,-7.0,-17.0,-18.0,-13.0,-8.0,-6.0,1651067770338327.0,0
269,-1.0,3.0,8.0,4.0,0.0,-5.0,-2.0,0.0,1651067770338327.0,0
270,5.0,9.0,17.0,10.0,12.0,16.0,8.0,6.0,1651067770347677.0,1
271,0.0,-2.0,-6.0,-12.0,-26.0,-18.0,-5.0,1.0,1651067770347677.0,1
272,-7.0,-2.0,17.0,13.0,9.0,-1.0,-8.0,-8.0,1651067770361697.0,1
273,-1.0,2.0,17.0,12.0,10.0,3.0,4.0,1.0,1651067770361697.0,1
274,0.0,4.0,-10.0,-15.0,-22.0,-13.0,1.0,2.0,1651067770363624.0,1
275,-2.0,-9.0,-11.0,-9.0,-11.0,-30.0,-19.0,-4.0,1651067770363624.0,1
276,2.0,0.0,-6.0,2.0,28.0,44.0,20.0,-1.0,1651067770384970.0,1
277,4.0,4.0,4.0,4.0,0.0,-2.0,-3.0,1.0,1651067770384970.0,1
278,8.0,-9.0,-21.0,-3.0,-8.0,-1.0,0.0,12.0,1651067770386323.0,1
279,-1.0,3.0,-14.0,-18.0,-16.0,-9.0,0.0,-8.0,1651067770386323.0,1
280,-9.0,-6.0,3.0,13.0,13.0,-1.0,-7.0,-6.0,1651067770398318.0,1
281,6.0,3.0,-3.0,0.0,9.0,9.0,3.0,14.0,1651067770398318.0,1
282,-16.0,-10.0,-10.0,-5.0,0.0,-5.0,-15.0,-27.0,1651067770406977.0,1
283,-2.0,-1.0,2.0,8.0,16.0,12.0,0.0,-6.0,1651067770406977.0,1
284,3.0,-7.0,-23.0,-13.0,-1.0,-3.0,3.0,8.0,1651067770422145.0,1
285,-6.0,4.0,19.0,11.0,-1.0,5.0,-1.0,-17.0,1651067770422145.0,1
286,3.0,-2.0,-22.0,-11.0,6.0,-3.0,-2.0,7.0,1651067770424085.0,1
287,-3.0,0.0,6.0,4.0,10.0,10.0,2.0,-3.0,1651067770424085.0,1
288,8.0,1.0,-1.0,-1.0,2.0,2.0,5.0,12.0,1651067770444624.0,1
289,-9.0,-15.0,-26.0,-24.0,-22.0,-16.0,-6.0,-10.0,1651067770444624.0,1
290,5.0,-1.0,-3.0,-10.0,-18.0,-8.0,1.0,-1.0,1651067770446620.0,1
291,-13.0,-7.0,-7.0,0.0,13.0,5.0,-4.0,-13.0,1651067770446620.0,1
292,9.0,10.0,13.0,1.0,-15.0,-12.0,3.0,19.0,1651067770458656.0,1
293,-14.0,-12.0,-14.0,-11.0,-15.0,-10.0,-3.0,-12.0,1651067770458656.0,1
294,3.0,3.0,-3.0,5.0,13.0,2.0,-13.0,-22.0,1651067770467566.0,1
295,6.0,0.0,-6.0,-12.0,-21.0,-6.0,6.0,17.0,1651067770467566.0,1
296,-3.0,-4.0,8.0,4.0,-2.0,0.0,5.0,8.0,1651067770482015.0,1
297,4.0,7.0,13.0,7.0,3.0,0.0,1.0,2.0,1651067770482015.0,1
298,6.0,2.0,4.0,-10.0,-25.0,-18.0,2.0,30.0,1651067770484011.0,1
299,-12.0,-3.0,0.0,10.0,27.0,14.0,1.0,-13.0,1651067770484011.0,1
300,1.0,-6.0,-20.0,-22.0,-26.0,-19.0,-16.0,-13.0,1651067770504996.0,1
301,-9.0,-5.0,-3.0,0.0,2.0,8.0,2.0,-9.0,1651067770504996.0,1
302,-14.0,-9.0,-9.0,-3.0,0.0,-1.0,-5.0,-14.0,1651067770506236.0,1
303,13.0,4.0,-3.0,-9.0,-16.0,-11.0,-3.0,11.0,1651067770506236.0,1
304,-12.0,-2.0,3.0,13.0,13.0,6.0,-5.0,-3.0,1651067770518154.0,1
305,-9.0,0.0,5.0,-2.0,0.0,6.0,11.0,-19.0,1651067770518154.0,1
306,20.0,4.0,-2.0,-3.0,-8.0,-6.0,-2.0,44.0,1651067770527234.0,1
307,-4.0,-12.0,-11.0,-4.0,-3.0,1.0,3.0,6.0,1651067770527234.0,1
308,3.0,5.0,7.0,2.0,-3.0,-2.0,4.0,-13.0,1651067770542343.0,1
309,5.0,2.0,1.0,-4.0,-9.0,-11.0,-25.0,-6.0,1651067770542343.0,1
310,-18.0,-11.0,-10.0,-9.0,-8.0,-4.0,-6.0,-17.0,1651067770543339.0,1
311,-2.0,12.0,11.0,10.0,5.0,0.0,-9.0,-20.0,1651067770543339.0,1
312,16.0,1.0,6.0,-3.0,-13.0,-5.0,13.0,42.0,1651067770564621.0,1
313,0.0,-3.0,-10.0,2.0,12.0,9.0,16.0,13.0,1651067770564621.0,1
314,-4.0,1.0,6.0,7.0,9.0,3.0,-9.0,-16.0,1651067770566549.0,1
315,-5.0,-4.0,-4.0,-13.0,-18.0,-4.0,-4.0,-12.0,1651067770566549.0,1
316,-7.0,8.0,22.0,13.0,15.0,2.0,-3.0,-10.0,1651067770578585.0,1
317,16.0,10.0,8.0,14.0,27.0,8.0,10.0,33.0,1651067770578585.0,1
318,-17.0,-10.0,-11.0,-8.0,-7.0,-1.0,2.0,-24.0,1651067770587359.0,1
319,9.0,12.0,12.0,5.0,-5.0,1.0,5.0,8.0,1651067770587359.0,1
320,-3.0,-10.0,-5.0,16.0,23.0,3.0,-11.0,-4.0,1651067770601605.0,1
321,9.0,12.0,15.0,5.0,-3.0,7.0,2.0,13.0,1651067770601605.0,1
322,4.0,2.0,-3.0,0.0,11.0,5.0,-1.0,-2.0,1651067770603586.0,1
323,0.0,4.0,9.0,6.0,0.0,5.0,15.0,15.0,1651067770603586.0,1
324,-10.0,3.0,9.0,3.0,6.0,3.0,-1.0,-22.0,1651067770624134.0,1
325,-10.0,-12.0,-3.0,-2.0,-13.0,-7.0,-17.0,-24.0,1651067770624134.0,1
326,1.0,-1.0,-12.0,3.0,26.0,8.0,7.0,0.0,1651067770626150.0,1
327,6.0,6.0,7.0,3.0,4.0,10.0,-1.0,7.0,1651067770626150.0,1
328,-1.0,0.0,-2.0,-3.0,1.0,-3.0,-5.0,2.0,1651067770638070.0,1
329,-8.0,-9.0,-10.0,3.0,-6.0,-1.0,0.0,-1.0,1651067770638070.0,1
330,3.0,5.0,12.0,-7.0,-4.0,-1.0,12.0,2.0,1651067770653057.0,1
331,2.0,-5.0,0.0,4.0,-8.0,-1.0,-5.0,-2.0,1651067770653057.0,1
332,7.0,7.0,3.0,-7.0,-3.0,2.0,8.0,14.0,1651067770662441.0,1
333,0.0,-1.0,-1.0,2.0,3.0,1.0,2.0,-4.0,1651067770662441.0,1
334,3.0,-4.0,13.0,6.0,-4.0,9.0,6.0,13.0,1651067770663390.0,1
335,-2.0,4.0,-3.0,-2.0,7.0,-9.0,-10.0,-1.0,1651067770663390.0,1
336,9.0,13.0,8.0,14.0,4.0,5.0,15.0,2.0,1651067770684404.0,1
337,-5.0,-7.0,-1.0,-15.0,-30.0,-17.0,-10.0,3.0,1651067770684404.0,1
338,1.0,-2.0,-5.0,-5.0,-8.0,-9.0,1.0,-6.0,1651067770686331.0,1
339,0.0,-8.0,-2.0,6.0,15.0,12.0,8.0,13.0,1651067770686331.0,1
340,-2.0,-3.0,3.0,-1.0,-11.0,-1.0,-4.0,-22.0,1651067770698366.0,1
341,7.0,4.0,0.0,13.0,44.0,25.0,1.0,10.0,1651067770698366.0,1
342,7.0,11.0,5.0,11.0,1.0,5.0,1.0,3.0,1651067770707697.0,1
343,-5.0,1.0,1.0,-6.0,-9.0,-1.0,7.0,1.0,1651067770707697.0,1
344,-6.0,0.0,2.0,3.0,-5.0,-6.0,4.0,-4.0,1651067770721712.0,1
345,-1.0,-9.0,-5.0,-5.0,-7.0,-8.0,1.0,4.0,1651067770721712.0,1
346,9.0,12.0,12.0,-1.0,-10.0,-1.0,-11.0,15.0,1651067770723640.0,1
347,3.0,13.0,-2.0,9.0,27.0,7.0,0.0,-14.0,1651067770723640.0,1
348,-10.0,-34.0,-24.0,-18.0,-16.0,-14.0,-11.0,-3.0,1651067770744743.0,1
349,-16.0,3.0,0.0,-2.0,-10.0,-4.0,0.0,-14.0,1651067770744743.0,1
350,-6.0,-4.0,-1.0,4.0,-4.0,-1.0,0.0,-2.0,1651067770745680.0,1
351,1.0,-2.0,1.0,-4.0,7.0,-3.0,-7.0,5.0,1651067770745680.0,1
352,13.0,12.0,7.0,20.0,7.0,11.0,9.0,15.0,1651067770758666.0,1
353,-6.0,-6.0,-3.0,-14.0,-2.0,-4.0,-6.0,-5.0,1651067770758666.0,1
354,-1.0,-1.0,2.0,-1.0,-1.0,2.0,0.0,-3.0,1651067770767630.0,1
355,1.0,-2.0,4.0,-7.0,-25.0,-13.0,0.0,2.0,1651067770767630.0,1
356,-4.0,3.0,-2.0,12.0,13.0,15.0,2.0,-7.0,1651067770782500.0,1
357,11.0,0.0,-5.0,0.0,-11.0,-6.0,9.0,20.0,1651067770782500.0,1
358,-3.0,6.0,7.0,-1.0,-3.0,-5.0,2.0,4.0,1651067770783497.0,1
359,3.0,-7.0,5.0,-2.0,-7.0,-1.0,-5.0,-16.0,1651067770783497.0,1
360,-16.0,-10.0,-11.0,-5.0,2.0,-3.0,-4.0,-9.0,1651067770804800.0,1
361,13.0,12.0,7.0,1.0,-4.0,4.0,-2.0,4.0,1651067770804800.0,1
362,-4.0,-1.0,-2.0,-1.0,6.0,1.0,4.0,-2.0,1651067770805764.0,1
363,-13.0,-14.0,-10.0,-3.0,-6.0,0.0,8.0,1.0,1651067770805764.0,1
364,5.0,12.0,7.0,-10.0,-12.0,-11.0,-7.0,0.0,1651067770817766.0,1
365,3.0,4.0,10.0,6.0,3.0,1.0,2.0,-2.0,1651067770817766.0,1
366,0.0,0.0,-15.0,-8.0,10.0,5.0,0.0,-6.0,1651067770826699.0,1
367,1.0,-10.0,4.0,11.0,1.0,-1.0,-6.0,1.0,1651067770826699.0,1
368,0.0,3.0,-8.0,-5.0,2.0,3.0,2.0,2.0,1651067770842557.0,1
369,-3.0,-5.0,5.0,2.0,13.0,-2.0,-8.0,-8.0,1651067770842557.0,1
370,-13.0,-6.0,-4.0,-4.0,-24.0,-11.0,-11.0,-26.0,1651067770843556.0,1
371,11.0,8.0,-4.0,-1.0,16.0,3.0,1.0,11.0,1651067770843556.0,1
372,1.0,6.0,9.0,1.0,0.0,-1.0,4.0,6.0,1651067770864652.0,1
373,-5.0,-7.0,-16.0,-9.0,-24.0,-18.0,-14.0,-6.0,1651067770864652.0,1
374,5.0,3.0,13.0,11.0,18.0,4.0,-4.0,-4.0,1651067770866578.0,1
375,-4.0,-10.0,4.0,-4.0,-17.0,-5.0,-3.0,-3.0,1651067770866578.0,1
376,-6.0,-11.0,-19.0,-13.0,-18.0,-17.0,-5.0,-8.0,1651067770887382.0,1
377,4.0,20.0,19.0,25.0,31.0,8.0,7.0,7.0,1651067770887382.0,1
378,-1.0,5.0,18.0,4.0,-10.0,3.0,4.0,1.0,1651067770888312.0,1
379,-17.0,-16.0,-26.0,-20.0,-4.0,-7.0,-7.0,-8.0,1651067770888312.0,1
380,7.0,6.0,12.0,2.0,1.0,4.0,-3.0,4.0,1651067770902295.0,1
381,3.0,0.0,-3.0,3.0,13.0,0.0,-1.0,0.0,1651067770902295.0,1
382,2.0,-1.0,-1.0,-4.0,-9.0,0.0,7.0,4.0,1651067770903272.0,1
383,1.0,8.0,11.0,6.0,10.0,3.0,2.0,6.0,1651067770903272.0,1
384,2.0,4.0,-6.0,1.0,-7.0,-1.0,-6.0,2.0,1651067770923594.0,1
385,-5.0,-8.0,-14.0,-18.0,-23.0,-9.0,-2.0,-10.0,1651067770923594.0,1
386,1.0,4.0,17.0,10.0,22.0,9.0,4.0,5.0,1651067770932502.0,1
387,10.0,3.0,-15.0,-1.0,4.0,8.0,8.0,11.0,1651067770932502.0,1
388,-8.0,-11.0,-10.0,-12.0,-34.0,-15.0,-8.0,-9.0,1651067770947548.0,1
389,1.0,10.0,17.0,17.0,33.0,19.0,9.0,0.0,1651067770947548.0,1
390,-8.0,-20.0,-15.0,-7.0,-9.0,-10.0,-13.0,-2.0,1651067770948496.0,1
391,1.0,-1.0,-4.0,2.0,-10.0,-7.0,-7.0,-5.0,1651067770948496.0,1
392,-4.0,0.0,5.0,2.0,7.0,11.0,7.0,-1.0,1651067770962221.0,1
393,-2.0,-10.0,-8.0,-8.0,-18.0,-3.0,4.0,8.0,1651067770962221.0,1
394,5.0,3.0,-4.0,4.0,2.0,0.0,3.0,2.0,1651067770963234.0,1
395,-10.0,2.0,7.0,1.0,-2.0,1.0,-2.0,-12.0,1651067770963234.0,1
396,4.0,-5.0,-3.0,-2.0,11.0,-3.0,-6.0,1.0,1651067770984237.0,1
397,6.0,-1.0,1.0,-6.0,-13.0,-3.0,3.0,4.0,1651067770984237.0,1
398,-8.0,-13.0,-13.0,0.0,12.0,2.0,-1.0,-3.0,1651067770986265.0,1
399,0.0,4.0,1.0,0.0,-11.0,-4.0,1.0,7.0,1651067770986265.0,1
400,-1.0,0.0,-7.0,-1.0,5.0,2.0,0.0,-3.0,1651067771014970.0,1
401,2.0,-1.0,8.0,1.0,-1.0,0.0,3.0,11.0,1651067771014970.0,1
402,4.0,7.0,-3.0,-4.0,-5.0,-2.0,3.0,5.0,1651067771016324.0,1
403,-4.0,-6.0,1.0,-2.0,-11.0,-8.0,-6.0,-11.0,1651067771016324.0,1
404,-5.0,1.0,8.0,10.0,26.0,11.0,-1.0,-5.0,1651067771021309.0,1
405,-4.0,-4.0,-6.0,-3.0,-3.0,0.0,3.0,-8.0,1651067771021309.0,1
406,3.0,-2.0,-5.0,-9.0,-16.0,-9.0,-4.0,6.0,1651067771028267.0,1
407,-3.0,1.0,-12.0,-4.0,17.0,12.0,2.0,-4.0,1651067771028267.0,1
408,5.0,4.0,17.0,12.0,7.0,1.0,2.0,13.0,1651067771044741.0,1
409,-8.0,-5.0,-7.0,-3.0,-13.0,-8.0,-8.0,-11.0,1651067771044741.0,1
410,1.0,-3.0,4.0,3.0,24.0,14.0,9.0,-2.0,1651067771045711.0,1
411,9.0,9.0,9.0,-2.0,-7.0,-16.0,-8.0,11.0,1651067771045711.0,1
412,-8.0,-8.0,-6.0,-1.0,4.0,17.0,-4.0,-14.0,1651067771067483.0,1
413,3.0,-5.0,3.0,2.0,2.0,-2.0,-3.0,2.0,1651067771067483.0,1
414,-10.0,5.0,-3.0,-1.0,-10.0,-4.0,4.0,-9.0,1651067771068443.0,1
415,-1.0,-8.0,-7.0,-4.0,7.0,0.0,-9.0,-13.0,1651067771068443.0,1
416,-2.0,3.0,2.0,-4.0,-10.0,-7.0,-7.0,0.0,1651067771081470.0,1
417,7.0,-7.0,-8.0,-2.0,-4.0,0.0,6.0,21.0,1651067771081470.0,1
418,-2.0,3.0,17.0,3.0,-3.0,4.0,2.0,-5.0,1651067771088450.0,1
419,4.0,1.0,-21.0,-9.0,-19.0,-6.0,4.0,2.0,1651067771088450.0,1
420,4.0,5.0,18.0,6.0,7.0,2.0,8.0,4.0,1651067771104996.0,1
421,4.0,1.0,1.0,2.0,9.0,-1.0,-9.0,2.0,1651067771104996.0,1
422,5.0,3.0,-1.0,5.0,8.0,12.0,8.0,7.0,1651067771106316.0,1
423,-5.0,-2.0,-2.0,-8.0,-10.0,-6.0,-5.0,-7.0,1651067771106316.0,1
424,3.0,-1.0,-3.0,-8.0,-8.0,-7.0,-4.0,0.0,1651067771127385.0,1
425,-6.0,-7.0,-7.0,-4.0,5.0,-5.0,-2.0,-1.0,1651067771127385.0,1
426,3.0,6.0,5.0,1.0,4.0,-3.0,-2.0,5.0,1651067771128382.0,1
427,-2.0,-8.0,-3.0,0.0,5.0,8.0,9.0,-1.0,1651067771128382.0,1
428,1.0,2.0,6.0,-1.0,-5.0,-7.0,-2.0,2.0,1651067771141528.0,1
429,1.0,11.0,-12.0,-4.0,0.0,3.0,0.0,-3.0,1651067771141528.0,1
430,-4.0,-11.0,-15.0,-9.0,-18.0,-8.0,-7.0,-2.0,1651067771148510.0,1
431,-5.0,-1.0,5.0,8.0,13.0,2.0,2.0,1.0,1651067771148510.0,1
432,-2.0,-11.0,-5.0,-3.0,-7.0,-3.0,2.0,3.0,1651067771164467.0,1
433,-3.0,7.0,8.0,3.0,-2.0,4.0,4.0,-5.0,1651067771164467.0,1
434,7.0,2.0,-4.0,-1.0,5.0,-1.0,-5.0,0.0,1651067771166422.0,1
435,0.0,3.0,3.0,-2.0,-9.0,-2.0,-3.0,-5.0,1651067771166422.0,1
436,-6.0,-3.0,-4.0,-1.0,3.0,0.0,7.0,-2.0,1651067771186738.0,1
437,-1.0,-5.0,-8.0,-3.0,-3.0,-2.0,-5.0,2.0,1651067771186738.0,1
438,3.0,2.0,2.0,-7.0,-9.0,-4.0,1.0,2.0,1651067771188666.0,1
439,-1.0,-2.0,4.0,1.0,-2.0,-3.0,-5.0,-3.0,1651067771188666.0,1
440,-3.0,-2.0,-15.0,2.0,15.0,4.0,6.0,-1.0,1651067771201641.0,1
441,-5.0,-2.0,4.0,-6.0,-13.0,-4.0,-1.0,-5.0,1651067771201641.0,1
442,-5.0,-6.0,-5.0,1.0,2.0,-3.0,-1.0,-6.0,1651067771208676.0,1
443,6.0,4.0,8.0,5.0,9.0,8.0,11.0,13.0,1651067771208676.0,1
444,3.0,2.0,-3.0,-3.0,-7.0,-2.0,-3.0,5.0,1651067771224912.0,1
445,1.0,4.0,-1.0,1.0,0.0,2.0,-6.0,-5.0,1651067771224912.0,1
446,-1.0,-3.0,1.0,5.0,6.0,2.0,1.0,-2.0,1651067771225912.0,1
447,-2.0,-1.0,5.0,2.0,2.0,-3.0,-5.0,-5.0,1651067771225912.0,1
448,2.0,3.0,-5.0,-5.0,-6.0,2.0,14.0,4.0,1651067771247051.0,1
449,0.0,-1.0,0.0,0.0,3.0,-3.0,0.0,-1.0,1651067771247051.0,1
450,-1.0,-3.0,-3.0,-3.0,-3.0,-1.0,-1.0,-2.0,1651067771248979.0,1
451,-2.0,-1.0,-1.0,0.0,-3.0,-1.0,-2.0,-1.0,1651067771248979.0,1
452,-1.0,2.0,2.0,0.0,2.0,-1.0,-11.0,-4.0,1651067771260951.0,1
453,-5.0,-5.0,-7.0,-4.0,-2.0,-2.0,-4.0,-10.0,1651067771260951.0,1
454,-1.0,-3.0,-15.0,1.0,5.0,2.0,3.0,3.0,1651067771267995.0,1
455,4.0,11.0,35.0,15.0,7.0,3.0,2.0,-1.0,1651067771267995.0,1
456,-2.0,-4.0,-14.0,-6.0,1.0,1.0,-2.0,-4.0,1651067771292501.0,1
457,-4.0,0.0,0.0,0.0,-4.0,-5.0,0.0,-2.0,1651067771292501.0,1
458,-1.0,-1.0,6.0,3.0,0.0,-2.0,-7.0,-1.0,1651067771293501.0,1
459,-2.0,0.0,-7.0,1.0,3.0,5.0,3.0,3.0,1651067771293501.0,1
460,3.0,3.0,16.0,2.0,-4.0,-5.0,-6.0,-5.0,1651067771307491.0,1
461,-2.0,-2.0,-21.0,-1.0,-3.0,-2.0,-1.0,0.0,1651067771307491.0,1
462,1.0,4.0,9.0,0.0,4.0,3.0,3.0,2.0,1651067771308473.0,1
463,-1.0,0.0,-1.0,2.0,-2.0,-2.0,2.0,0.0,1651067771308473.0,1
464,1.0,1.0,17.0,2.0,0.0,-2.0,-3.0,-2.0,1651067771321119.0,1
465,1.0,-4.0,-27.0,-10.0,-8.0,2.0,1.0,1.0,1651067771321119.0,1
466,0.0,2.0,-3.0,-13.0,-5.0,-3.0,-3.0,-3.0,1651067771330191.0,1
467,-4.0,-7.0,-11.0,-13.0,2.0,0.0,-7.0,-7.0,1651067771330191.0,1
468,5.0,12.0,12.0,34.0,16.0,2.0,1.0,3.0,1651067771344346.0,1
469,-7.0,-15.0,17.0,6.0,-7.0,0.0,1.0,-1.0,1651067771344346.0,1
470,1.0,-1.0,-29.0,-14.0,-8.0,-5.0,-1.0,-1.0,1651067771346341.0,1
471,4.0,2.0,-6.0,-5.0,5.0,6.0,8.0,6.0,1651067771346341.0,1
472,3.0,-5.0,-19.0,-19.0,-15.0,-4.0,-2.0,-3.0,1651067771366567.0,1
473,-6.0,13.0,16.0,5.0,22.0,7.0,0.0,-3.0,1651067771366567.0,1
474,2.0,-2.0,6.0,14.0,-4.0,-4.0,3.0,4.0,1651067771373624.0,1
475,0.0,-12.0,-44.0,-43.0,-17.0,-6.0,-5.0,-2.0,1651067771373624.0,1
476,-3.0,8.0,75.0,38.0,17.0,5.0,-5.0,-4.0,1651067771380596.0,1
477,20.0,10.0,-12.0,32.0,0.0,2.0,-1.0,-1.0,1651067771380596.0,1
478,-15.0,-5.0,5.0,4.0,1.0,2.0,8.0,4.0,1651067771390176.0,1
479,-4.0,-2.0,0.0,-31.0,4.0,-4.0,-2.0,-1.0,1651067771390176.0,1
480,-3.0,-15.0,-43.0,-67.0,-35.0,-10.0,-3.0,-2.0,1651067771403326.0,1
481,0.0,5.0,17.0,3.0,-3.0,1.0,-2.0,-1.0,1651067771403326.0,1
482,9.0,5.0,11.0,18.0,11.0,5.0,-3.0,1.0,1651067771412274.0,1
483,2.0,-2.0,12.0,10.0,-5.0,-1.0,1.0,1.0,1651067771412274.0,1
484,-10.0,-5.0,-31.0,1.0,11.0,2.0,-3.0,-5.0,1651067771427423.0,1
485,7.0,9.0,17.0,-14.0,8.0,-2.0,1.0,2.0,1651067771427423.0,1
486,-1.0,-3.0,-13.0,-11.0,-22.0,-6.0,-3.0,1.0,1651067771428364.0,1
487,1.0,7.0,41.0,41.0,10.0,1.0,0.0,0.0,1651067771428364.0,1
488,-3.0,-9.0,-36.0,-41.0,-11.0,-4.0,-4.0,-3.0,1651067771441119.0,1
489,-3.0,-6.0,-17.0,-7.0,-7.0,-4.0,0.0,3.0,1651067771441119.0,1
490,1.0,0.0,4.0,-4.0,4.0,4.0,0.0,-2.0,1651067771449380.0,1
491,-1.0,5.0,10.0,34.0,8.0,1.0,-4.0,-3.0,1651067771449380.0,1
492,-9.0,-6.0,19.0,34.0,13.0,4.0,1.0,-1.0,1651067771464527.0,1
493,0.0,-6.0,-13.0,-19.0,-4.0,0.0,4.0,0.0,1651067771464527.0,1
494,-6.0,6.0,2.0,-10.0,-2.0,-2.0,-3.0,-3.0,1651067771466455.0,1
495,20.0,8.0,-1.0,4.0,-11.0,-2.0,3.0,7.0,1651067771466455.0,1
496,-11.0,-7.0,-4.0,8.0,5.0,1.0,0.0,-1.0,1651067771487014.0,1
497,-9.0,-7.0,-7.0,-6.0,-10.0,-6.0,-1.0,-3.0,1651067771487014.0,1
498,2.0,-1.0,-8.0,-11.0,-1.0,0.0,-3.0,-3.0,1651067771489038.0,1
499,-6.0,-6.0,1.0,8.0,1.0,-2.0,-2.0,-3.0,1651067771489038.0,1
500,9.0,17.0,12.0,32.0,3.0,-3.0,-3.0,-1.0,1651067771501004.0,1
501,5.0,-2.0,-19.0,-24.0,-9.0,-3.0,-5.0,-1.0,1651067771501004.0,1
502,-6.0,-9.0,22.0,-7.0,-2.0,5.0,9.0,4.0,1651067771509958.0,1
503,-3.0,-3.0,-24.0,28.0,15.0,1.0,-2.0,-3.0,1651067771509958.0,1
504,0.0,-7.0,-15.0,-35.0,-13.0,-3.0,1.0,1.0,1651067771524636.0,1
505,-4.0,4.0,17.0,7.0,6.0,1.0,-3.0,-3.0,1651067771524636.0,1
506,2.0,-1.0,-19.0,-6.0,-4.0,-4.0,-5.0,-3.0,1651067771526563.0,1
507,-5.0,-3.0,7.0,-16.0,-9.0,0.0,2.0,1.0,1651067771526563.0,1
508,0.0,4.0,11.0,27.0,5.0,1.0,-2.0,-1.0,1651067771546663.0,1
509,1.0,-4.0,-13.0,-30.0,-6.0,-3.0,0.0,-1.0,1651067771546663.0,1
510,0.0,-3.0,6.0,14.0,4.0,0.0,-3.0,0.0,1651067771548591.0,1
511,-4.0,-2.0,-17.0,-10.0,-2.0,3.0,2.0,-2.0,1651067771548591.0,1
512,6.0,5.0,14.0,-4.0,-3.0,-4.0,-3.0,-2.0,1651067771561144.0,1
513,-1.0,3.0,18.0,15.0,5.0,2.0,2.0,2.0,1651067771561144.0,1
514,0.0,-1.0,-7.0,2.0,6.0,-1.0,0.0,2.0,1651067771570120.0,1
515,-2.0,0.0,4.0,-8.0,-9.0,-6.0,-3.0,-5.0,1651067771570120.0,1
516,3.0,-2.0,-5.0,-9.0,-6.0,1.0,2.0,0.0,1651067771584238.0,1
517,-3.0,-1.0,2.0,7.0,7.0,4.0,3.0,0.0,1651067771584238.0,1
518,-2.0,-2.0,-2.0,-5.0,0.0,-4.0,-4.0,-3.0,1651067771586233.0,1
519,1.0,0.0,-4.0,1.0,1.0,-1.0,0.0,1.0,1651067771586233.0,1
520,-1.0,-3.0,7.0,-6.0,-8.0,-1.0,1.0,0.0,1651067771607491.0,1
521,-2.0,0.0,6.0,-9.0,-1.0,0.0,0.0,-1.0,1651067771607491.0,1
522,2.0,4.0,-2.0,27.0,8.0,0.0,-2.0,-1.0,1651067771608421.0,1
523,-2.0,0.0,12.0,-7.0,-6.0,-1.0,-2.0,-1.0,1651067771608421.0,1
524,0.0,-2.0,-14.0,-1.0,0.0,-3.0,0.0,0.0,1651067771621095.0,1
525,0.0,2.0,7.0,11.0,0.0,-1.0,-1.0,3.0,1651067771621095.0,1
526,0.0,0.0,0.0,-4.0,-4.0,-2.0,-2.0,0.0,1651067771629446.0,1
527,-3.0,-5.0,-23.0,-7.0,-2.0,-1.0,0.0,-2.0,1651067771629446.0,1
528,-1.0,4.0,11.0,-12.0,-3.0,-1.0,2.0,0.0,1651067771644847.0,1
529,0.0,-2.0,5.0,11.0,3.0,1.0,0.0,-1.0,1651067771644847.0,1
530,-1.0,-2.0,-1.0,-4.0,-1.0,-1.0,-2.0,0.0,1651067771646295.0,1
531,-1.0,1.0,8.0,9.0,0.0,1.0,1.0,2.0,1651067771646295.0,1
532,-1.0,-3.0,-8.0,1.0,2.0,0.0,-1.0,0.0,1651067771667392.0,1
533,-3.0,-1.0,-3.0,1.0,1.0,2.0,1.0,0.0,1651067771667392.0,1
534,-2.0,-1.0,1.0,0.0,-12.0,-6.0,-5.0,-2.0,1651067771668392.0,1
535,0.0,1.0,2.0,-10.0,-10.0,-5.0,-1.0,-1.0,1651067771668392.0,1
536,2.0,1.0,-4.0,10.0,17.0,14.0,3.0,3.0,1651067771680425.0,1
537,-1.0,-1.0,-4.0,-1.0,17.0,8.0,1.0,1.0,1651067771680425.0,1
538,-1.0,3.0,8.0,6.0,3.0,1.0,-1.0,-3.0,1651067771689379.0,1
539,0.0,0.0,4.0,-1.0,-7.0,-3.0,0.0,0.0,1651067771689379.0,1
540,0.0,-1.0,-10.0,-21.0,-13.0,-7.0,-2.0,0.0,1651067771704361.0,1
541,-1.0,0.0,2.0,17.0,1.0,-4.0,0.0,-2.0,1651067771704361.0,1
542,-1.0,-3.0,5.0,-16.0,0.0,4.0,1.0,0.0,1651067771706289.0,1
543,0.0,-1.0,-16.0,-5.0,-1.0,0.0,0.0,-2.0,1651067771706289.0,1
544,-1.0,1.0,12.0,7.0,3.0,-2.0,-2.0,0.0,1651067771726741.0,1
545,0.0,2.0,4.0,-5.0,-5.0,2.0,-1.0,0.0,1651067771726741.0,1
546,-1.0,-2.0,-10.0,-6.0,-6.0,-5.0,0.0,-1.0,1651067771728669.0,1
547,-1.0,-2.0,3.0,3.0,2.0,1.0,-1.0,0.0,1651067771728669.0,1
548,-1.0,0.0,9.0,6.0,0.0,-1.0,0.0,-2.0,1651067771740703.0,1
549,0.0,-3.0,-29.0,-10.0,-11.0,-6.0,-2.0,-1.0,1651067771740703.0,1
550,0.0,3.0,14.0,3.0,4.0,5.0,2.0,0.0,1651067771749613.0,1
551,-2.0,0.0,0.0,-4.0,0.0,-2.0,-4.0,0.0,1651067771749613.0,1
552,1.0,0.0,-1.0,4.0,-2.0,0.0,1.0,-1.0,1651067771764761.0,1
553,-3.0,-2.0,9.0,-2.0,-14.0,-7.0,-1.0,-3.0,1651067771764761.0,1
554,0.0,-1.0,-9.0,1.0,8.0,1.0,0.0,-2.0,1651067771765718.0,1
555,-1.0,-1.0,0.0,-4.0,3.0,-2.0,-2.0,0.0,1651067771765718.0,1
556,0.0,0.0,1.0,4.0,-4.0,-3.0,2.0,0.0,1651067771787499.0,1
557,0.0,0.0,-10.0,-7.0,1.0,2.0,2.0,2.0,1651067771787499.0,1
558,1.0,3.0,2.0,1.0,-2.0,-4.0,-1.0,0.0,1651067771788439.0,1
559,-1.0,-3.0,3.0,-2.0,-2.0,-1.0,0.0,-2.0,1651067771788439.0,1
560,-2.0,1.0,-4.0,-3.0,-1.0,3.0,0.0,0.0,1651067771800474.0,1
561,0.0,-4.0,-4.0,10.0,7.0,2.0,-1.0,-1.0,1651067771800474.0,1
562,-1.0,-3.0,19.0,-5.0,-6.0,-4.0,-1.0,-2.0,1651067771809382.0,1
563,2.0,1.0,-17.0,-8.0,7.0,8.0,2.0,0.0,1651067771809382.0,1
564,-2.0,-2.0,-7.0,-3.0,-5.0,-4.0,-1.0,-1.0,1651067771824526.0,1
565,-1.0,-2.0,3.0,0.0,1.0,0.0,-1.0,0.0,1651067771824526.0,1
566,1.0,0.0,4.0,5.0,-4.0,-3.0,-1.0,-1.0,1651067771826481.0,1
567,1.0,0.0,2.0,-2.0,-2.0,1.0,-1.0,-1.0,1651067771826481.0,1
568,-1.0,-3.0,-1.0,-4.0,-1.0,-2.0,-2.0,-1.0,1651067771847463.0,1
569,1.0,2.0,-3.0,1.0,3.0,-1.0,-1.0,1.0,1651067771847463.0,1
570,0.0,-1.0,-7.0,10.0,1.0,0.0,0.0,1.0,1651067771848412.0,1
571,-1.0,-2.0,4.0,-13.0,-6.0,-3.0,1.0,-2.0,1651067771848412.0,1
572,-1.0,-3.0,-14.0,-4.0,4.0,1.0,-2.0,-1.0,1651067771869569.0,1
573,-1.0,3.0,18.0,2.0,-4.0,-1.0,-2.0,-2.0,1651067771869569.0,1
574,1.0,0.0,-7.0,-4.0,-5.0,-1.0,-2.0,0.0,1651067771871517.0,1
575,-3.0,0.0,2.0,4.0,10.0,1.0,1.0,-1.0,1651067771871517.0,1
576,0.0,0.0,3.0,7.0,0.0,-1.0,-2.0,-1.0,1651067771884529.0,1
577,0.0,0.0,-3.0,-6.0,-14.0,-4.0,2.0,-1.0,1651067771884529.0,1
578,-4.0,-1.0,6.0,4.0,14.0,2.0,-3.0,-1.0,1651067771886457.0,1
579,0.0,-3.0,-9.0,-2.0,-6.0,0.0,0.0,1.0,1651067771886457.0,1
580,-2.0,-2.0,-2.0,2.0,7.0,0.0,1.0,-1.0,1651067771906975.0,1
581,0.0,0.0,7.0,-4.0,-3.0,-2.0,-2.0,1.0,1651067771906975.0,1
582,-1.0,0.0,-7.0,5.0,-5.0,-3.0,-1.0,-2.0,1651067771908930.0,1
583,0.0,1.0,10.0,-14.0,-1.0,2.0,1.0,-1.0,1651067771908930.0,1
584,-1.0,-2.0,-18.0,15.0,9.0,-1.0,0.0,-1.0,1651067771929201.0,1
585,0.0,0.0,7.0,6.0,-3.0,-4.0,-1.0,1.0,1651067771929201.0,1
586,0.0,-1.0,-3.0,-2.0,0.0,1.0,2.0,0.0,1651067771931223.0,1
587,-1.0,0.0,8.0,4.0,-2.0,-5.0,-3.0,0.0,1651067771931223.0,1
588,-1.0,-1.0,-3.0,-6.0,0.0,5.0,1.0,-1.0,1651067771944524.0,1
589,-2.0,-3.0,-2.0,-1.0,5.0,4.0,2.0,-2.0,1651067771944524.0,1
590,-1.0,-1.0,-4.0,-5.0,-5.0,-3.0,-3.0,0.0,1651067771946453.0,1
591,-1.0,1.0,-3.0,6.0,-2.0,-2.0,-1.0,-1.0,1651067771946453.0,1
592,1.0,2.0,-1.0,-8.0,-14.0,-11.0,-6.0,0.0,1651067771967516.0,1
593,-2.0,0.0,-6.0,-2.0,11.0,9.0,3.0,2.0,1651067771967516.0,1
594,-2.0,0.0,-6.0,-2.0,-4.0,1.0,1.0,0.0,1651067771968512.0,1
595,1.0,-2.0,0.0,10.0,12.0,7.0,2.0,-3.0,1651067771968512.0,1
596,-1.0,0.0,6.0,-1.0,-4.0,-1.0,0.0,1.0,1651067771989517.0,1
597,-1.0,-1.0,5.0,2.0,1.0,-4.0,-4.0,-3.0,1651067771989517.0,1
598,0.0,0.0,-7.0,-5.0,-4.0,0.0,0.0,-1.0,1651067771991481.0,1
599,-3.0,0.0,3.0,-1.0,-4.0,-4.0,-1.0,-1.0,1651067771991481.0,1
600,0.0,-1.0,2.0,-1.0,-2.0,-3.0,1.0,-2.0,1651067772003420.0,1
601,-1.0,-2.0,-5.0,-2.0,-1.0,0.0,-2.0,-1.0,1651067772003420.0,1
602,0.0,1.0,5.0,2.0,2.0,0.0,-2.0,2.0,1651067772010455.0,1
603,-1.0,1.0,3.0,5.0,-2.0,1.0,3.0,-1.0,1651067772010455.0,1
604,0.0,-1.0,-1.0,-6.0,2.0,3.0,-1.0,-1.0,1651067772027439.0,1
605,-1.0,-3.0,-5.0,-3.0,-6.0,-3.0,0.0,0.0,1651067772027439.0,0
606,0.0,0.0,1.0,4.0,8.0,2.0,-1.0,-1.0,1651067772028448.0,0
607,0.0,1.0,3.0,2.0,-4.0,-5.0,-1.0,0.0,1651067772028448.0,0
608,-2.0,0.0,8.0,-1.0,2.0,2.0,3.0,0.0,1651067772049562.0,0
609,1.0,-3.0,-14.0,-6.0,-1.0,0.0,-1.0,0.0,1651067772049562.0,0
610,1.0,0.0,9.0,-2.0,-2.0,0.0,0.0,2.0,1651067772051490.0,0
611,0.0,-3.0,-9.0,2.0,3.0,-6.0,-2.0,0.0,1651067772051490.0,0
612,0.0,2.0,20.0,1.0,-1.0,2.0,-1.0,0.0,1651067772063475.0,0
613,-1.0,1.0,11.0,3.0,0.0,2.0,5.0,0.0,1651067772063475.0,0
614,-1.0,-3.0,-8.0,-5.0,-2.0,-2.0,0.0,-1.0,1651067772070525.0,0
615,-1.0,0.0,-8.0,-4.0,-6.0,-5.0,-1.0,0.0,1651067772070525.0,0
616,-1.0,-2.0,-1.0,0.0,-6.0,-5.0,-3.0,-2.0,1651067772087535.0,0
617,0.0,0.0,1.0,6.0,14.0,6.0,-1.0,0.0,1651067772087535.0,0
618,0.0,-2.0,-4.0,-13.0,-6.0,-2.0,-1.0,0.0,1651067772088499.0,0
619,-1.0,0.0,2.0,2.0,-3.0,0.0,-1.0,1.0,1651067772088499.0,0
620,0.0,-2.0,-9.0,5.0,8.0,2.0,1.0,0.0,1651067772110030.0,0
621,0.0,3.0,10.0,0.0,-5.0,-1.0,-1.0,-1.0,1651067772110030.0,0
622,-1.0,1.0,-18.0,-6.0,4.0,-1.0,1.0,-1.0,1651067772111030.0,0
623,0.0,-5.0,-15.0,-2.0,-1.0,4.0,-1.0,1.0,1651067772111030.0,0
624,1.0,1.0,8.0,-4.0,-6.0,-5.0,-3.0,-2.0,1651067772124293.0,0
625,0.0,0.0,-1.0,1.0,0.0,-2.0,-1.0,1.0,1651067772124293.0,0
626,-1.0,-3.0,6.0,1.0,-3.0,3.0,1.0,-1.0,1651067772130341.0,0
627,-2.0,0.0,4.0,0.0,1.0,-2.0,-1.0,-1.0,1651067772130341.0,0
628,-2.0,-2.0,-13.0,-4.0,-1.0,1.0,0.0,2.0,1651067772147422.0,0
629,-2.0,-2.0,3.0,2.0,-2.0,-4.0,-1.0,-2.0,1651067772147422.0,0
630,1.0,0.0,-3.0,-7.0,-3.0,-4.0,-2.0,-1.0,1651067772148353.0,0
631,1.0,1.0,7.0,8.0,6.0,-2.0,-2.0,-2.0,1651067772148353.0,0
632,-2.0,-1.0,-2.0,6.0,0.0,2.0,0.0,-1.0,1651067772169523.0,0
633,-1.0,-1.0,-4.0,-5.0,-3.0,-1.0,-3.0,-3.0,1651067772169523.0,0
634,-3.0,0.0,0.0,1.0,-2.0,-2.0,1.0,0.0,1651067772171543.0,0
635,0.0,0.0,-1.0,-4.0,-3.0,1.0,1.0,1.0,1651067772171543.0,0
636,1.0,-2.0,14.0,6.0,1.0,-2.0,-1.0,1.0,1651067772183543.0,0
637,-1.0,-1.0,-30.0,-18.0,-3.0,-4.0,0.0,-2.0,1651067772183543.0,0
638,0.0,-3.0,-17.0,-4.0,-15.0,-6.0,-3.0,-2.0,1651067772190467.0,0
639,0.0,1.0,11.0,8.0,16.0,7.0,-1.0,-1.0,1651067772190467.0,0
640,0.0,2.0,0.0,2.0,5.0,5.0,2.0,0.0,1651067772207577.0,0
641,0.0,0.0,8.0,4.0,-4.0,-1.0,-2.0,-1.0,1651067772207577.0,0
642,2.0,-2.0,3.0,2.0,1.0,-1.0,1.0,1.0,1651067772208574.0,0
643,-1.0,-1.0,-5.0,-8.0,-13.0,-9.0,-2.0,-3.0,1651067772208574.0,0
644,-1.0,-3.0,-11.0,-8.0,-2.0,1.0,-2.0,-2.0,1651067772228381.0,0
645,1.0,-1.0,-1.0,1.0,3.0,2.0,0.0,0.0,1651067772228381.0,0
646,-1.0,0.0,20.0,8.0,-3.0,0.0,-3.0,-1.0,1651067772237362.0,0
647,-1.0,2.0,3.0,-2.0,-10.0,-6.0,-1.0,-1.0,1651067772237362.0,0
648,0.0,-2.0,-20.0,-3.0,15.0,8.0,2.0,1.0,1651067772244267.0,0
649,0.0,1.0,4.0,6.0,-4.0,-6.0,-3.0,2.0,1651067772244267.0,0
650,0.0,-1.0,6.0,2.0,1.0,1.0,1.0,1.0,1651067772251143.0,0
651,-2.0,-2.0,1.0,-2.0,-2.0,1.0,3.0,-1.0,1651067772251143.0,0
652,0.0,1.0,-2.0,-3.0,-9.0,-5.0,-3.0,-2.0,1651067772266673.0,0
653,-1.0,-2.0,3.0,1.0,-1.0,-3.0,-2.0,-1.0,1651067772266673.0,0
654,0.0,-1.0,-6.0,-2.0,2.0,5.0,2.0,-1.0,1651067772268671.0,0
655,0.0,-2.0,-2.0,1.0,-1.0,0.0,-1.0,0.0,1651067772268671.0,0
656,-1.0,0.0,-5.0,-5.0,-5.0,-4.0,-1.0,1.0,1651067772289729.0,0
657,0.0,-2.0,-2.0,2.0,3.0,1.0,-1.0,0.0,1651067772289729.0,0
658,-3.0,0.0,-3.0,-2.0,8.0,4.0,-1.0,-1.0,1651067772290729.0,0
659,1.0,-1.0,-1.0,1.0,-2.0,-2.0,0.0,0.0,1651067772290729.0,0
660,-1.0,0.0,1.0,2.0,7.0,9.0,1.0,-2.0,1651067772304293.0,0
661,-1.0,0.0,4.0,-3.0,-7.0,-3.0,-3.0,-1.0,1651067772304293.0,0
662,-1.0,0.0,-2.0,4.0,5.0,0.0,0.0,0.0,1651067772310775.0,0
663,1.0,-1.0,0.0,-3.0,-2.0,-1.0,0.0,0.0,1651067772310775.0,0
664,0.0,-2.0,-18.0,-6.0,-6.0,-4.0,-1.0,-1.0,1651067772326990.0,0
665,-1.0,-1.0,1.0,3.0,1.0,0.0,2.0,0.0,1651067772326990.0,0
666,1.0,1.0,-1.0,0.0,4.0,3.0,0.0,0.0,1651067772328944.0,0
667,-2.0,-1.0,-1.0,0.0,-7.0,-2.0,-2.0,-2.0,1651067772328944.0,0
668,-1.0,1.0,6.0,3.0,2.0,7.0,1.0,-1.0,1651067772349238.0,0
669,0.0,-1.0,3.0,1.0,2.0,-1.0,1.0,0.0,1651067772349238.0,0
670,-3.0,-1.0,12.0,7.0,-2.0,-4.0,-2.0,-1.0,1651067772351209.0,0
671,-1.0,0.0,-12.0,-11.0,-1.0,0.0,3.0,0.0,1651067772351209.0,0
672,-1.0,1.0,5.0,2.0,2.0,-4.0,-1.0,-1.0,1651067772363186.0,0
673,-1.0,-2.0,0.0,0.0,-1.0,3.0,0.0,0.0,1651067772363186.0,0
674,0.0,1.0,-7.0,-4.0,-4.0,-4.0,-1.0,-1.0,1651067772372128.0,0
675,-1.0,0.0,6.0,2.0,3.0,2.0,-2.0,0.0,1651067772372128.0,0
676,-1.0,-1.0,1.0,-5.0,-5.0,-6.0,-1.0,-1.0,1651067772387083.0,0
677,-1.0,-2.0,-4.0,0.0,2.0,0.0,1.0,-1.0,1651067772387083.0,0
678,-1.0,1.0,11.0,4.0,-6.0,-7.0,-2.0,0.0,1651067772389111.0,0
679,2.0,0.0,-8.0,1.0,14.0,13.0,5.0,4.0,1651067772389111.0,0
680,1.0,0.0,2.0,-2.0,2.0,1.0,2.0,0.0,1651067772409215.0,0
681,1.0,0.0,5.0,4.0,-2.0,-1.0,-1.0,-1.0,1651067772409215.0,0
682,0.0,-2.0,-1.0,-3.0,-6.0,-4.0,-3.0,-2.0,1651067772411142.0,0
683,0.0,-1.0,-5.0,-3.0,-4.0,1.0,-2.0,-2.0,1651067772411142.0,0
684,-1.0,-1.0,6.0,-1.0,0.0,-2.0,2.0,-1.0,1651067772423177.0,0
685,-1.0,-1.0,-1.0,0.0,2.0,1.0,0.0,-2.0,1651067772423177.0,0
686,1.0,-1.0,-5.0,-3.0,-1.0,-6.0,-3.0,1.0,1651067772432681.0,0
687,-2.0,0.0,-3.0,-1.0,0.0,2.0,-5.0,-1.0,1651067772432681.0,0
688,-1.0,-1.0,-2.0,-3.0,-7.0,-4.0,1.0,0.0,1651067772447606.0,0
689,-1.0,-1.0,-3.0,-1.0,2.0,1.0,0.0,-1.0,1651067772447606.0,0
690,-2.0,-1.0,-5.0,0.0,5.0,1.0,-1.0,-3.0,1651067772448597.0,0
691,0.0,-1.0,-4.0,3.0,8.0,2.0,0.0,1.0,1651067772448597.0,0
692,1.0,-1.0,2.0,-2.0,-9.0,-2.0,-2.0,2.0,1651067772469653.0,0
693,0.0,1.0,13.0,3.0,7.0,2.0,0.0,-1.0,1651067772469653.0,0
694,1.0,-6.0,-37.0,-27.0,-6.0,1.0,4.0,-1.0,1651067772470651.0,0
695,-1.0,0.0,8.0,5.0,-2.0,-4.0,-2.0,-1.0,1651067772470651.0,0
696,-2.0,0.0,-1.0,-1.0,-5.0,-6.0,-4.0,-1.0,1651067772483730.0,0
697,-1.0,0.0,0.0,-4.0,-3.0,-1.0,2.0,1.0,1651067772483730.0,0
698,1.0,0.0,7.0,7.0,3.0,3.0,0.0,-1.0,1651067772492744.0,0
699,-2.0,-3.0,-7.0,-9.0,-12.0,-2.0,0.0,-1.0,1651067772492744.0,0
700,-1.0,-3.0,-6.0,-2.0,8.0,-2.0,-1.0,0.0,1651067772506678.0,0
701,0.0,0.0,-1.0,1.0,-10.0,-3.0,0.0,1.0,1651067772506678.0,0
702,0.0,1.0,5.0,3.0,-6.0,1.0,2.0,1.0,1651067772508676.0,0
703,0.0,2.0,5.0,2.0,10.0,7.0,2.0,1.0,1651067772508676.0,0
704,-1.0,0.0,10.0,5.0,-4.0,-7.0,-1.0,-1.0,1651067772529727.0,0
705,-1.0,-1.0,-4.0,-1.0,-4.0,3.0,0.0,2.0,1651067772529727.0,0
706,-2.0,0.0,9.0,1.0,-9.0,-10.0,-3.0,-1.0,1651067772530659.0,0
707,1.0,-4.0,-37.0,-15.0,0.0,1.0,-1.0,-2.0,1651067772530659.0,0
708,0.0,2.0,-1.0,0.0,1.0,4.0,1.0,0.0,1651067772543349.0,0
709,-1.0,2.0,2.0,2.0,-4.0,-3.0,1.0,1.0,1651067772543349.0,0
710,-2.0,-2.0,-1.0,-4.0,-7.0,-6.0,-2.0,0.0,1651067772552258.0,0
711,-2.0,-1.0,9.0,8.0,-2.0,-10.0,-5.0,-3.0,1651067772552258.0,0
712,0.0,-2.0,-3.0,-10.0,2.0,7.0,0.0,2.0,1651067772567533.0,0
713,0.0,1.0,-11.0,-4.0,9.0,-2.0,1.0,-1.0,1651067772567533.0,0
714,-1.0,1.0,6.0,8.0,10.0,12.0,4.0,1.0,1651067772568501.0,0
715,1.0,0.0,8.0,0.0,-10.0,-6.0,1.0,0.0,1651067772568501.0,0
716,1.0,-2.0,-4.0,1.0,0.0,-3.0,-2.0,-1.0,1651067772589551.0,0
717,-3.0,-3.0,-4.0,-6.0,-7.0,-4.0,-3.0,-1.0,1651067772589551.0,0
718,1.0,2.0,10.0,-1.0,-9.0,-6.0,-1.0,1.0,1651067772591517.0,0
719,0.0,2.0,9.0,7.0,11.0,2.0,2.0,0.0,1651067772591517.0,0
720,-3.0,-3.0,-9.0,-6.0,-14.0,-7.0,-4.0,-2.0,1651067772603552.0,0
721,1.0,-1.0,-2.0,-1.0,10.0,1.0,-1.0,-2.0,1651067772603552.0,0
722,2.0,0.0,0.0,12.0,24.0,21.0,8.0,2.0,1651067772612461.0,0
723,-1.0,0.0,-1.0,-6.0,-16.0,-5.0,-1.0,0.0,1651067772612461.0,0
724,1.0,2.0,27.0,21.0,16.0,3.0,1.0,1.0,1651067772627518.0,0
725,0.0,-1.0,-34.0,-22.0,-14.0,-9.0,-7.0,-4.0,1651067772627518.0,0
726,-1.0,-3.0,-2.0,-5.0,-13.0,-9.0,-3.0,-1.0,1651067772628505.0,0
727,0.0,3.0,11.0,7.0,24.0,17.0,3.0,1.0,1651067772628505.0,0
728,-1.0,-2.0,-4.0,-3.0,-4.0,-3.0,-3.0,0.0,1651067772649465.0,0
729,0.0,-2.0,10.0,6.0,2.0,-1.0,-1.0,1.0,1651067772649465.0,0
730,0.0,0.0,-5.0,-2.0,5.0,4.0,0.0,-2.0,1651067772651431.0,0
731,0.0,-2.0,-5.0,-10.0,-23.0,-13.0,-3.0,-2.0,1651067772651431.0,0
732,0.0,1.0,-1.0,5.0,10.0,1.0,0.0,-1.0,1651067772663514.0,0
733,0.0,3.0,11.0,8.0,6.0,3.0,1.0,0.0,1651067772663514.0,0
734,-4.0,-4.0,-14.0,-13.0,-10.0,-7.0,-4.0,-4.0,1651067772679481.0,0
735,0.0,1.0,8.0,2.0,-4.0,-2.0,1.0,0.0,1651067772679481.0,0
736,2.0,3.0,0.0,0.0,-1.0,7.0,-1.0,1.0,1651067772686462.0,0
737,1.0,4.0,16.0,10.0,6.0,0.0,4.0,0.0,1651067772686462.0,0
738,-2.0,-3.0,-2.0,7.0,25.0,15.0,2.0,1.0,1651067772693547.0,0
739,0.0,-6.0,-15.0,-13.0,-4.0,0.0,-1.0,1.0,1651067772693547.0,0
740,0.0,-1.0,-6.0,-6.0,-7.0,-3.0,-1.0,-1.0,1651067772709988.0,0
741,0.0,-2.0,-4.0,-6.0,-9.0,0.0,1.0,-1.0,1651067772709988.0,0
742,0.0,4.0,7.0,0.0,-12.0,-1.0,0.0,-2.0,1651067772710988.0,0
743,1.0,5.0,11.0,19.0,26.0,6.0,1.0,0.0,1651067772710988.0,0
744,-3.0,-8.0,-24.0,-14.0,-12.0,-6.0,-2.0,-3.0,1651067772722998.0,0
745,-1.0,0.0,17.0,5.0,7.0,0.0,-2.0,-1.0,1651067772722998.0,0
746,-2.0,-4.0,-8.0,-7.0,-9.0,-7.0,-1.0,0.0,1651067772732194.0,0
747,-1.0,-1.0,5.0,4.0,-5.0,-4.0,-3.0,-2.0,1651067772732194.0,0
748,0.0,0.0,2.0,7.0,3.0,4.0,1.0,-1.0,1651067772746223.0,0
749,-2.0,-2.0,-10.0,-8.0,-6.0,-6.0,-1.0,-2.0,1651067772746223.0,0
750,3.0,7.0,11.0,10.0,10.0,10.0,3.0,1.0,1651067772753317.0,0
751,-1.0,-2.0,-2.0,-6.0,-4.0,-5.0,-1.0,0.0,1651067772753317.0,0
752,-2.0,-3.0,-8.0,-2.0,-3.0,-2.0,2.0,0.0,1651067772769723.0,0
753,-4.0,-4.0,-4.0,-2.0,-8.0,-9.0,-6.0,-3.0,1651067772769723.0,0
754,2.0,3.0,1.0,-8.0,-8.0,-5.0,-1.0,1.0,1651067772770723.0,0
755,0.0,2.0,6.0,9.0,8.0,-2.0,-2.0,-1.0,1651067772770723.0,0
756,0.0,-1.0,-3.0,-5.0,-2.0,-2.0,3.0,2.0,1651067772792487.0,0
757,2.0,5.0,16.0,12.0,7.0,9.0,5.0,1.0,1651067772792487.0,0
758,-4.0,-7.0,-15.0,-9.0,-1.0,-2.0,-4.0,-3.0,1651067772793458.0,0
759,-1.0,-2.0,-5.0,-6.0,-13.0,-9.0,-6.0,-2.0,1651067772793458.0,0
760,2.0,4.0,11.0,2.0,-9.0,-7.0,-3.0,2.0,1651067772806490.0,0
761,-1.0,-2.0,-2.0,3.0,7.0,6.0,3.0,2.0,1651067772806490.0,0
762,1.0,4.0,9.0,12.0,5.0,1.0,-1.0,1.0,1651067772813611.0,0
763,-4.0,-9.0,-22.0,-19.0,-6.0,0.0,1.0,-1.0,1651067772813611.0,0
764,-1.0,-1.0,0.0,-1.0,-2.0,0.0,-1.0,-3.0,1651067772829424.0,0
765,1.0,1.0,2.0,-1.0,-6.0,-5.0,-4.0,3.0,1651067772829424.0,0
766,0.0,-6.0,-6.0,3.0,8.0,0.0,1.0,-2.0,1651067772831371.0,0
767,0.0,1.0,6.0,-1.0,-8.0,-2.0,0.0,1.0,1651067772831371.0,0
768,1.0,1.0,4.0,3.0,4.0,1.0,0.0,-1.0,1651067772851724.0,0
769,0.0,-5.0,-15.0,-9.0,-5.0,-1.0,-2.0,-2.0,1651067772851724.0,0
770,-3.0,0.0,0.0,-4.0,-7.0,-5.0,-2.0,-2.0,1651067772853653.0,0
771,1.0,1.0,6.0,7.0,5.0,0.0,1.0,0.0,1651067772853653.0,0
772,-1.0,-3.0,-7.0,-8.0,-11.0,-2.0,0.0,-1.0,1651067772866681.0,0
773,3.0,4.0,9.0,10.0,8.0,0.0,-3.0,-1.0,1651067772866681.0,0
774,-2.0,-1.0,-4.0,3.0,3.0,5.0,3.0,0.0,1651067772873634.0,0
775,5.0,4.0,4.0,2.0,-5.0,-5.0,-7.0,-3.0,1651067772873634.0,0
776,-1.0,-3.0,-7.0,-5.0,0.0,4.0,12.0,7.0,1651067772889928.0,0
777,-1.0,-1.0,0.0,4.0,12.0,11.0,4.0,2.0,1651067772889928.0,0
778,4.0,5.0,10.0,6.0,4.0,0.0,-1.0,2.0,1651067772890667.0,0
779,0.0,3.0,13.0,22.0,24.0,11.0,1.0,3.0,1651067772890667.0,0
780,-5.0,-6.0,-13.0,-14.0,-14.0,-8.0,-8.0,-13.0,1651067772911743.0,2
781,1.0,1.0,-6.0,-7.0,-8.0,-2.0,6.0,-3.0,1651067772911743.0,2
782,4.0,3.0,3.0,1.0,1.0,3.0,-4.0,2.0,1651067772913741.0,2
783,-1.0,-1.0,-1.0,-7.0,-1.0,1.0,8.0,3.0,1651067772913741.0,2
784,-1.0,0.0,3.0,1.0,6.0,0.0,0.0,13.0,1651067772926773.0,2
785,1.0,-6.0,-9.0,-6.0,-3.0,-4.0,-1.0,0.0,1651067772926773.0,2
786,-5.0,2.0,4.0,5.0,-4.0,-3.0,-1.0,-9.0,1651067772933652.0,2
787,1.0,-2.0,-6.0,-11.0,-2.0,-1.0,-3.0,-2.0,1651067772933652.0,2
788,-5.0,-3.0,-4.0,0.0,2.0,3.0,-4.0,-4.0,1651067772948875.0,2
789,-8.0,-8.0,-7.0,-9.0,-14.0,-11.0,-7.0,-3.0,1651067772948875.0,2
790,-5.0,4.0,12.0,8.0,4.0,1.0,0.0,-14.0,1651067772956876.0,2
791,3.0,-7.0,-21.0,-10.0,-10.0,-9.0,-7.0,-10.0,1651067772956876.0,2
792,6.0,5.0,7.0,7.0,12.0,12.0,9.0,25.0,1651067772971683.0,2
793,9.0,-2.0,-12.0,-12.0,-9.0,1.0,2.0,24.0,1651067772971683.0,2
794,-9.0,0.0,9.0,4.0,1.0,-5.0,-13.0,-38.0,1651067772973681.0,2
795,-9.0,1.0,7.0,2.0,-6.0,-4.0,4.0,1.0,1651067772973681.0,2
796,17.0,7.0,7.0,2.0,4.0,3.0,9.0,24.0,1651067772986714.0,2
797,-9.0,-3.0,0.0,-3.0,-4.0,-3.0,-3.0,-13.0,1651067772986714.0,2
798,6.0,-5.0,-15.0,-7.0,-3.0,-1.0,6.0,29.0,1651067772993672.0,2
799,-3.0,3.0,3.0,-2.0,-2.0,2.0,-3.0,-22.0,1651067772993672.0,2
800,-3.0,-3.0,-3.0,8.0,14.0,3.0,-7.0,-21.0,1651067773009991.0,2
801,-5.0,-1.0,2.0,2.0,-2.0,2.0,6.0,13.0,1651067773009991.0,2
802,0.0,-8.0,-16.0,-10.0,-1.0,-4.0,-6.0,-2.0,1651067773010834.0,2
803,1.0,3.0,12.0,4.0,-1.0,-3.0,3.0,8.0,1651067773010834.0,2
804,2.0,-1.0,-8.0,-6.0,-9.0,-7.0,1.0,-1.0,1651067773031907.0,2
805,-10.0,-1.0,11.0,15.0,15.0,11.0,-2.0,-18.0,1651067773031907.0,2
806,-2.0,-8.0,-15.0,-17.0,-13.0,-1.0,11.0,20.0,1651067773033867.0,2
807,6.0,4.0,0.0,1.0,7.0,6.0,-7.0,-13.0,1651067773033867.0,2
808,-8.0,-5.0,5.0,-3.0,-13.0,-11.0,-17.0,-2.0,1651067773045359.0,2
809,-8.0,-6.0,-10.0,-12.0,-11.0,-5.0,-2.0,-17.0,1651067773045359.0,2
810,9.0,8.0,11.0,7.0,5.0,5.0,16.0,14.0,1651067773054337.0,2
811,2.0,-1.0,1.0,3.0,3.0,-2.0,-4.0,23.0,1651067773054337.0,2
812,-15.0,-6.0,-4.0,-5.0,-1.0,-4.0,-8.0,-35.0,1651067773069728.0,2
813,4.0,4.0,4.0,1.0,-7.0,-5.0,-5.0,-2.0,1651067773069728.0,2
814,3.0,3.0,3.0,5.0,12.0,4.0,-5.0,-2.0,1651067773071657.0,2
815,-2.0,-3.0,-6.0,3.0,5.0,0.0,3.0,3.0,1651067773071657.0,2
816,-3.0,6.0,14.0,1.0,-5.0,-5.0,-2.0,-12.0,1651067773091838.0,2
817,-4.0,-8.0,-11.0,-4.0,1.0,8.0,1.0,-1.0,1651067773091838.0,2
818,11.0,-1.0,-2.0,-3.0,-14.0,-6.0,7.0,24.0,1651067773093766.0,2
819,-6.0,-2.0,-4.0,-5.0,-10.0,-4.0,4.0,-10.0,1651067773093766.0,2
820,1.0,-5.0,-11.0,-7.0,-3.0,-1.0,-7.0,5.0,1651067773106193.0,2
821,11.0,11.0,10.0,9.0,4.0,-3.0,7.0,12.0,1651067773106193.0,2
822,-28.0,-15.0,-8.0,-7.0,-1.0,-1.0,-19.0,-33.0,1651067773114286.0,2
823,3.0,-3.0,-5.0,-1.0,2.0,1.0,0.0,1.0,1651067773114286.0,2
824,7.0,11.0,11.0,3.0,-3.0,5.0,3.0,3.0,1651067773129472.0,2
825,2.0,6.0,-3.0,-5.0,1.0,-10.0,-7.0,3.0,1651067773129472.0,2
826,1.0,-10.0,-4.0,1.0,18.0,6.0,-1.0,-3.0,1651067773131443.0,2
827,-6.0,-8.0,-8.0,-4.0,-18.0,-11.0,-3.0,2.0,1651067773131443.0,2
828,2.0,6.0,7.0,13.0,20.0,9.0,6.0,1.0,1651067773151682.0,2
829,7.0,0.0,1.0,-3.0,-12.0,2.0,-1.0,6.0,1651067773151682.0,2
830,-10.0,0.0,-1.0,-6.0,-11.0,-8.0,1.0,-3.0,1651067773153685.0,2
831,-2.0,-2.0,-4.0,1.0,17.0,2.0,1.0,2.0,1651067773153685.0,2
832,4.0,2.0,2.0,0.0,-4.0,1.0,2.0,3.0,1651067773166730.0,2
833,-3.0,0.0,-1.0,-1.0,-9.0,0.0,-1.0,-11.0,1651067773166730.0,2
834,7.0,9.0,16.0,10.0,8.0,-2.0,2.0,9.0,1651067773173711.0,2
835,-8.0,-8.0,-8.0,3.0,-1.0,12.0,5.0,-3.0,1651067773173711.0,2
836,1.0,-3.0,-12.0,-6.0,-3.0,-5.0,0.0,3.0,1651067773189421.0,2
837,3.0,-1.0,4.0,2.0,2.0,0.0,2.0,2.0,1651067773189421.0,2
838,-2.0,1.0,2.0,-8.0,-26.0,-10.0,-7.0,-12.0,1651067773191375.0,2
839,-4.0,1.0,6.0,-1.0,-1.0,1.0,4.0,-10.0,1651067773191375.0,2
840,2.0,-2.0,-2.0,5.0,11.0,3.0,-6.0,13.0,1651067773212498.0,2
841,-1.0,-7.0,-12.0,-8.0,-3.0,1.0,1.0,-12.0,1651067773212498.0,2
842,6.0,1.0,2.0,2.0,2.0,0.0,1.0,5.0,1651067773213497.0,2
843,3.0,1.0,-3.0,-5.0,-14.0,-4.0,4.0,9.0,1651067773213497.0,2
844,-2.0,-2.0,2.0,7.0,19.0,13.0,4.0,-1.0,1651067773234662.0,2
845,-4.0,-8.0,-4.0,2.0,-2.0,-7.0,-8.0,-2.0,1651067773234662.0,2
846,4.0,2.0,-5.0,0.0,5.0,4.0,0.0,3.0,1651067773236604.0,2
847,-6.0,-2.0,-2.0,-3.0,2.0,-2.0,-10.0,-7.0,1651067773236604.0,2
848,-6.0,-2.0,1.0,-6.0,-14.0,-9.0,-4.0,-16.0,1651067773249312.0,2
849,-2.0,1.0,6.0,2.0,-4.0,-1.0,-2.0,6.0,1651067773249312.0,2
850,6.0,-5.0,-5.0,1.0,17.0,10.0,6.0,10.0,1651067773251282.0,2
851,0.0,5.0,9.0,2.0,-18.0,-10.0,-8.0,-8.0,1651067773251282.0,2
852,2.0,1.0,5.0,8.0,9.0,5.0,5.0,2.0,1651067773272443.0,2
853,3.0,5.0,3.0,-5.0,-3.0,2.0,-1.0,2.0,1651067773272443.0,2
854,-12.0,-10.0,-12.0,-3.0,16.0,2.0,-13.0,-20.0,1651067773273444.0,2
855,2.0,0.0,0.0,-6.0,-10.0,-1.0,2.0,11.0,1651067773273444.0,2
856,6.0,3.0,4.0,0.0,0.0,4.0,-1.0,6.0,1651067773285367.0,2
857,-7.0,-6.0,-2.0,1.0,0.0,-4.0,-4.0,2.0,1651067773285367.0,2
858,1.0,3.0,0.0,2.0,-3.0,3.0,1.0,0.0,1651067773294345.0,2
859,0.0,-2.0,-2.0,-5.0,-4.0,-6.0,-6.0,-5.0,1651067773294345.0,2
860,-2.0,-10.0,-10.0,-5.0,-5.0,2.0,14.0,10.0,1651067773309487.0,2
861,8.0,10.0,8.0,6.0,10.0,5.0,1.0,3.0,1651067773309487.0,2
862,-1.0,-7.0,-14.0,-12.0,-16.0,-8.0,-1.0,-3.0,1651067773311477.0,2
863,3.0,4.0,4.0,5.0,12.0,2.0,-2.0,5.0,1651067773311477.0,2
864,-4.0,-3.0,3.0,0.0,-5.0,-3.0,-7.0,-13.0,1651067773332394.0,2
865,-1.0,-2.0,-1.0,-2.0,-3.0,-1.0,2.0,2.0,1651067773332394.0,2
866,-3.0,8.0,13.0,5.0,0.0,0.0,-6.0,-8.0,1651067773333394.0,2
867,8.0,-4.0,-5.0,-3.0,-10.0,-1.0,5.0,14.0,1651067773333394.0,2
868,-3.0,-7.0,-11.0,-10.0,8.0,3.0,0.0,-1.0,1651067773345429.0,2
869,-3.0,-6.0,-10.0,-2.0,-5.0,-6.0,-6.0,-4.0,1651067773345429.0,2
870,1.0,4.0,4.0,0.0,-4.0,-4.0,2.0,0.0,1651067773354488.0,2
871,-4.0,-1.0,2.0,4.0,6.0,3.0,0.0,-1.0,1651067773354488.0,2
872,19.0,13.0,12.0,4.0,-5.0,-2.0,7.0,30.0,1651067773369533.0,2
873,-21.0,-14.0,-9.0,-5.0,3.0,-7.0,-16.0,-31.0,1651067773369533.0,2
874,1.0,0.0,-1.0,2.0,-6.0,0.0,2.0,5.0,1651067773371527.0,2
875,-1.0,-1.0,-3.0,-8.0,-9.0,-5.0,-4.0,-7.0,1651067773371527.0,2
876,1.0,4.0,5.0,6.0,7.0,-4.0,-3.0,0.0,1651067773392499.0,2
877,7.0,4.0,1.0,6.0,21.0,13.0,2.0,9.0,1651067773392499.0,2
878,1.0,-2.0,-2.0,-8.0,-20.0,-12.0,2.0,10.0,1651067773393503.0,2
879,-2.0,1.0,4.0,3.0,11.0,15.0,-3.0,-4.0,1651067773393503.0,2
880,-4.0,-2.0,-1.0,-1.0,-7.0,-3.0,8.0,-7.0,1651067773405468.0,2
881,1.0,4.0,8.0,3.0,1.0,0.0,1.0,-2.0,1651067773405468.0,2
882,2.0,-3.0,-4.0,-5.0,-4.0,0.0,1.0,8.0,1651067773414539.0,2
883,0.0,-2.0,-7.0,-8.0,0.0,-5.0,-2.0,-13.0,1651067773414539.0,2
884,-7.0,-4.0,-4.0,-1.0,-8.0,-4.0,-4.0,-7.0,1651067773429704.0,2
885,8.0,5.0,6.0,3.0,1.0,-1.0,4.0,9.0,1651067773429704.0,2
886,1.0,1.0,-1.0,0.0,1.0,1.0,-2.0,2.0,1651067773431699.0,2
887,-5.0,3.0,6.0,2.0,3.0,1.0,-1.0,-5.0,1651067773431699.0,2
888,-7.0,-3.0,-3.0,1.0,6.0,2.0,-5.0,-11.0,1651067773451957.0,2
889,1.0,-2.0,-2.0,-3.0,-5.0,-3.0,1.0,2.0,1651067773451957.0,2
890,2.0,0.0,-2.0,2.0,7.0,2.0,3.0,2.0,1651067773453887.0,2
891,5.0,3.0,3.0,6.0,10.0,9.0,4.0,9.0,1651067773453887.0,2
892,-5.0,-2.0,2.0,-3.0,-12.0,-8.0,-2.0,-10.0,1651067773465880.0,2
893,-1.0,4.0,3.0,4.0,12.0,7.0,3.0,3.0,1651067773465880.0,2
894,-10.0,-5.0,-2.0,-3.0,0.0,0.0,-6.0,-10.0,1651067773474829.0,2
895,6.0,-2.0,-6.0,0.0,2.0,-7.0,2.0,10.0,1651067773474829.0,2
896,-2.0,4.0,3.0,-2.0,-10.0,-5.0,-6.0,0.0,1651067773489937.0,2
897,4.0,1.0,0.0,-1.0,-11.0,-4.0,-4.0,3.0,1651067773489937.0,2
898,6.0,1.0,-2.0,-4.0,-2.0,-3.0,2.0,3.0,1651067773490941.0,2
899,0.0,2.0,1.0,0.0,6.0,4.0,4.0,1.0,1651067773490941.0,2
900,-9.0,-6.0,-4.0,-2.0,-7.0,-8.0,-9.0,-12.0,1651067773512998.0,2
901,-4.0,-3.0,-2.0,5.0,6.0,4.0,2.0,-1.0,1651067773512998.0,2
902,-2.0,1.0,3.0,2.0,-6.0,1.0,0.0,-6.0,1651067773514008.0,2
903,-3.0,-5.0,-7.0,-3.0,-3.0,-2.0,-3.0,-4.0,1651067773514008.0,2
904,4.0,1.0,0.0,-2.0,-1.0,1.0,3.0,12.0,1651067773526120.0,2
905,0.0,0.0,-2.0,-5.0,-1.0,1.0,1.0,-4.0,1651067773526120.0,2
906,5.0,3.0,5.0,6.0,4.0,-4.0,-1.0,4.0,1651067773534674.0,2
907,-4.0,-6.0,-5.0,-4.0,-11.0,-3.0,-1.0,-3.0,1651067773534674.0,2
908,-4.0,-2.0,-3.0,0.0,10.0,10.0,2.0,-9.0,1651067773549697.0,2
909,-5.0,-9.0,-11.0,-9.0,-17.0,-5.0,-1.0,0.0,1651067773549697.0,2
910,-5.0,-3.0,-1.0,4.0,15.0,0.0,-6.0,-3.0,1651067773550692.0,2
911,3.0,3.0,2.0,1.0,-2.0,-6.0,-2.0,2.0,1651067773550692.0,2
912,-1.0,-2.0,-3.0,1.0,3.0,2.0,1.0,2.0,1651067773572410.0,2
913,2.0,3.0,3.0,-2.0,-10.0,-2.0,0.0,-2.0,1651067773572410.0,2
914,0.0,3.0,6.0,1.0,4.0,6.0,10.0,-1.0,1651067773573411.0,2
915,0.0,-1.0,-3.0,-2.0,0.0,-7.0,-4.0,-1.0,1651067773573411.0,2
916,2.0,-4.0,-4.0,1.0,0.0,2.0,-2.0,15.0,1651067773585445.0,2
917,-1.0,2.0,3.0,1.0,0.0,1.0,2.0,-5.0,1651067773585445.0,2
918,-1.0,2.0,1.0,-1.0,-6.0,-7.0,-10.0,-6.0,1651067773594342.0,2
919,1.0,3.0,3.0,2.0,8.0,5.0,8.0,2.0,1651067773594342.0,2
920,-2.0,-1.0,0.0,-5.0,-12.0,-8.0,-6.0,-8.0,1651067773609327.0,2
921,1.0,-3.0,-2.0,-1.0,3.0,10.0,3.0,4.0,1651067773609327.0,2
922,-4.0,-5.0,-4.0,1.0,-2.0,-2.0,-6.0,-7.0,1651067773611254.0,2
923,0.0,-1.0,-1.0,0.0,-1.0,4.0,-1.0,-2.0,1651067773611254.0,2
924,-1.0,-1.0,-3.0,-3.0,-5.0,-5.0,-2.0,-4.0,1651067773631929.0,2
925,1.0,1.0,2.0,2.0,8.0,-2.0,4.0,-1.0,1651067773631929.0,2
926,2.0,-1.0,0.0,-1.0,-7.0,1.0,-2.0,3.0,1651067773633953.0,2
927,-1.0,-3.0,-6.0,-2.0,-8.0,-5.0,1.0,3.0,1651067773633953.0,2
928,4.0,4.0,7.0,7.0,3.0,-1.0,0.0,-1.0,1651067773646115.0,2
929,-10.0,-10.0,-8.0,-4.0,5.0,3.0,-1.0,-7.0,1651067773646115.0,2
930,0.0,2.0,-1.0,1.0,2.0,2.0,4.0,-3.0,1651067773654610.0,2
931,1.0,1.0,3.0,-2.0,-9.0,-2.0,4.0,5.0,1651067773654610.0,2
932,6.0,3.0,2.0,3.0,0.0,0.0,1.0,5.0,1651067773669383.0,2
933,5.0,4.0,4.0,3.0,3.0,-2.0,-1.0,2.0,1651067773669383.0,2
934,0.0,0.0,-2.0,-5.0,-7.0,-1.0,1.0,3.0,1651067773675369.0,2
935,-1.0,1.0,0.0,4.0,6.0,-2.0,-3.0,-2.0,1651067773675369.0,2
936,-3.0,0.0,-1.0,-1.0,15.0,7.0,1.0,-10.0,1651067773692467.0,2
937,3.0,3.0,5.0,2.0,3.0,1.0,-1.0,5.0,1651067773692467.0,2
938,1.0,-2.0,-2.0,0.0,-3.0,-1.0,2.0,4.0,1651067773693401.0,2
939,-5.0,-4.0,-4.0,-1.0,-1.0,1.0,3.0,0.0,1651067773693401.0,2
940,-1.0,-7.0,-11.0,-9.0,-5.0,-8.0,-4.0,1.0,1651067773714681.0,2
941,0.0,1.0,-2.0,0.0,-14.0,-6.0,-5.0,-1.0,1651067773714681.0,2
942,-1.0,1.0,-1.0,7.0,25.0,9.0,0.0,0.0,1651067773716621.0,2
943,0.0,4.0,5.0,0.0,-4.0,-1.0,4.0,0.0,1651067773716621.0,2
944,-4.0,-2.0,1.0,1.0,-4.0,1.0,4.0,2.0,1651067773729686.0,2
945,6.0,4.0,0.0,0.0,8.0,3.0,0.0,3.0,1651067773729686.0,2
946,0.0,-2.0,-2.0,-3.0,-19.0,-16.0,-8.0,-8.0,1651067773730684.0,2
947,-5.0,0.0,9.0,4.0,6.0,2.0,-9.0,9.0,1651067773730684.0,2
948,3.0,-1.0,-3.0,-1.0,2.0,-1.0,0.0,-3.0,1651067773751795.0,2
949,1.0,1.0,2.0,-1.0,-3.0,-1.0,4.0,-1.0,1651067773751795.0,2
950,1.0,-2.0,1.0,-2.0,-8.0,8.0,4.0,-1.0,1651067773753723.0,2
951,-5.0,-3.0,-3.0,6.0,20.0,2.0,-3.0,-10.0,1651067773753723.0,2
952,-1.0,1.0,-1.0,-4.0,-9.0,-5.0,0.0,3.0,1651067773775027.0,2
953,-2.0,1.0,-2.0,-3.0,-7.0,-9.0,-5.0,4.0,1651067773775027.0,2
954,-3.0,3.0,2.0,0.0,-3.0,-2.0,2.0,-3.0,1651067773776011.0,2
955,0.0,-3.0,-4.0,-8.0,-9.0,-4.0,-3.0,-4.0,1651067773776011.0,2
956,-3.0,-2.0,-3.0,-4.0,-14.0,-4.0,4.0,1.0,1651067773789978.0,2
957,-1.0,-2.0,0.0,5.0,27.0,8.0,6.0,-2.0,1651067773789978.0,2
958,1.0,-3.0,-5.0,3.0,-7.0,-1.0,-2.0,6.0,1651067773790969.0,2
959,3.0,2.0,2.0,0.0,-2.0,-2.0,-2.0,3.0,1651067773790969.0,2
960,-6.0,0.0,3.0,-3.0,0.0,5.0,-2.0,-7.0,1651067773812524.0,2
961,2.0,5.0,-1.0,1.0,-13.0,-7.0,1.0,5.0,1651067773812524.0,2
962,-4.0,-6.0,-10.0,-7.0,-2.0,-5.0,-1.0,-3.0,1651067773813533.0,2
963,-2.0,0.0,0.0,-1.0,-7.0,-1.0,2.0,-5.0,1651067773813533.0,2
964,3.0,2.0,2.0,1.0,4.0,-3.0,-11.0,-7.0,1651067773834939.0,2
965,-1.0,-2.0,-3.0,-2.0,-2.0,0.0,3.0,1.0,1651067773834939.0,2
966,3.0,3.0,4.0,-1.0,2.0,1.0,-1.0,0.0,1651067773836320.0,2
967,0.0,0.0,0.0,2.0,2.0,3.0,2.0,-1.0,1651067773836320.0,2
968,-5.0,-2.0,-2.0,-3.0,0.0,-2.0,-5.0,-8.0,1651067773849259.0,2
969,-3.0,0.0,2.0,1.0,0.0,-2.0,-4.0,-5.0,1651067773849259.0,2
970,-1.0,-1.0,-3.0,3.0,3.0,-2.0,-1.0,3.0,1651067773851253.0,2
971,-2.0,-6.0,-12.0,-6.0,-3.0,0.0,1.0,1.0,1651067773851253.0,2
972,0.0,0.0,0.0,2.0,3.0,-1.0,1.0,-1.0,1651067773872197.0,2
973,-6.0,-5.0,-3.0,-3.0,-9.0,-5.0,-5.0,-6.0,1651067773872197.0,2
974,0.0,0.0,-1.0,-4.0,0.0,-2.0,-5.0,1.0,1651067773873222.0,2
975,2.0,4.0,7.0,3.0,1.0,1.0,4.0,-1.0,1651067773873222.0,2
976,3.0,1.0,-2.0,0.0,-5.0,0.0,7.0,10.0,1651067773894703.0,2
977,1.0,-2.0,-4.0,0.0,6.0,4.0,3.0,2.0,1651067773894703.0,2
978,-4.0,1.0,5.0,-2.0,-10.0,-8.0,-2.0,-3.0,1651067773896629.0,2
979,-3.0,-4.0,-7.0,0.0,3.0,6.0,-3.0,-20.0,1651067773896629.0,2
980,4.0,2.0,-2.0,-3.0,-2.0,-7.0,1.0,20.0,1651067773908665.0,2
981,0.0,0.0,4.0,3.0,3.0,8.0,-1.0,2.0,1651067773908665.0,2
982,0.0,-1.0,-6.0,-2.0,1.0,0.0,-3.0,0.0,1651067773915933.0,2
983,0.0,7.0,21.0,7.0,-4.0,-2.0,-6.0,-4.0,1651067773915933.0,2
984,-4.0,-3.0,0.0,1.0,-7.0,-1.0,6.0,-5.0,1651067773932690.0,2
985,3.0,1.0,0.0,-1.0,-1.0,-2.0,-2.0,9.0,1651067773932690.0,2
986,-4.0,-3.0,0.0,0.0,-1.0,-1.0,-3.0,-7.0,1651067773933678.0,2
987,0.0,-1.0,-1.0,-3.0,-10.0,-8.0,0.0,2.0,1651067773933678.0,2
988,0.0,2.0,4.0,3.0,7.0,4.0,-2.0,-4.0,1651067773954857.0,2
989,0.0,3.0,7.0,6.0,12.0,0.0,0.0,1.0,1651067773954857.0,2
990,1.0,1.0,-2.0,-1.0,3.0,4.0,4.0,2.0,1651067773955980.0,2
991,0.0,0.0,-5.0,-2.0,0.0,-1.0,0.0,0.0,1651067773955980.0,2
992,-3.0,-1.0,-3.0,-1.0,-5.0,2.0,-1.0,-5.0,1651067773968886.0,2
993,1.0,-1.0,-2.0,0.0,7.0,0.0,2.0,-2.0,1651067773968886.0,2
994,2.0,0.0,2.0,-1.0,-3.0,0.0,-3.0,-3.0,1651067773976024.0,2
995,-1.0,-6.0,-9.0,-5.0,3.0,1.0,5.0,6.0,1651067773976024.0,2
996,2.0,1.0,-1.0,-1.0,-5.0,-4.0,-2.0,5.0,1651067773991824.0,2
997,-7.0,-5.0,-3.0,1.0,-9.0,-3.0,-8.0,-17.0,1651067773991824.0,2
998,1.0,1.0,4.0,1.0,9.0,4.0,1.0,5.0,1651067773993753.0,2
999,1.0,0.0,-3.0,-1.0,0.0,0.0,4.0,5.0,1651067773993753.0,2
1000,0.0,-2.0,-5.0,-8.0,0.0,-4.0,-4.0,-6.0,1651067774014922.0,2
1001,2.0,8.0,13.0,8.0,-2.0,0.0,3.0,-3.0,1651067774014922.0,2
1002,-14.0,-10.0,-11.0,1.0,7.0,0.0,-6.0,-13.0,1651067774015980.0,2
1003,11.0,3.0,-1.0,-1.0,-3.0,2.0,6.0,16.0,1651067774015980.0,2
1004,2.0,-3.0,-5.0,-1.0,0.0,-2.0,0.0,3.0,1651067774028881.0,2
1005,2.0,-1.0,-5.0,-4.0,2.0,0.0,1.0,1.0,1651067774028881.0,2
1006,2.0,2.0,1.0,-3.0,-8.0,-4.0,2.0,3.0,1651067774035995.0,2
1007,-3.0,1.0,3.0,0.0,0.0,1.0,-3.0,-5.0,1651067774035995.0,2
1008,-1.0,0.0,3.0,3.0,6.0,3.0,-1.0,-4.0,1651067774051823.0,2
1009,-1.0,-3.0,-2.0,-5.0,-13.0,-4.0,0.0,3.0,1651067774051823.0,2
1010,2.0,3.0,3.0,-2.0,-10.0,-3.0,0.0,2.0,1651067774053751.0,2
1011,-5.0,-2.0,2.0,7.0,25.0,5.0,-5.0,-8.0,1651067774053751.0,2
1012,3.0,2.0,1.0,-2.0,-4.0,-1.0,1.0,4.0,1651067774075152.0,2
1013,-1.0,-2.0,-6.0,-3.0,-5.0,-2.0,-5.0,-3.0,1651067774075152.0,2
1014,0.0,1.0,3.0,0.0,2.0,1.0,3.0,-1.0,1651067774077081.0,2
1015,0.0,1.0,0.0,-3.0,-8.0,-6.0,-6.0,-4.0,1651067774077081.0,2
1016,-1.0,0.0,1.0,2.0,4.0,2.0,7.0,5.0,1651067774089040.0,2
1017,0.0,1.0,2.0,3.0,2.0,1.0,-5.0,-1.0,1651067774089040.0,2
1018,2.0,-2.0,-1.0,-1.0,1.0,-1.0,8.0,-5.0,1651067774096088.0,2
1019,2.0,-4.0,-6.0,-5.0,-9.0,-5.0,2.0,24.0,1651067774096088.0,2
1020,0.0,3.0,7.0,9.0,11.0,5.0,-4.0,-13.0,1651067774112431.0,2
1021,-2.0,-4.0,-8.0,-4.0,-2.0,-2.0,0.0,7.0,1651067774112431.0,2
1022,-2.0,-3.0,-1.0,-5.0,-6.0,-3.0,-4.0,-3.0,1651067774113422.0,2
1023,0.0,0.0,1.0,0.0,-3.0,-1.0,-2.0,-3.0,1651067774113422.0,2
1024,-2.0,-2.0,-5.0,-2.0,0.0,-2.0,-1.0,0.0,1651067774134943.0,2
1025,4.0,3.0,4.0,2.0,1.0,0.0,-1.0,0.0,1651067774134943.0,2
1026,2.0,1.0,-2.0,2.0,1.0,0.0,-5.0,2.0,1651067774135946.0,2
1027,-1.0,-3.0,0.0,1.0,-2.0,0.0,3.0,-4.0,1651067774135946.0,2
1028,0.0,-2.0,-7.0,-7.0,-4.0,-2.0,-4.0,1.0,1651067774148906.0,2
1029,-2.0,-1.0,2.0,0.0,-2.0,0.0,3.0,-5.0,1651067774148906.0,2
1030,1.0,1.0,8.0,1.0,2.0,-1.0,0.0,6.0,1651067774156037.0,2
1031,-4.0,-2.0,-7.0,-3.0,-1.0,-1.0,-7.0,-4.0,1651067774156037.0,2
1032,-2.0,1.0,6.0,4.0,1.0,1.0,-1.0,-3.0,1651067774171682.0,2
1033,-2.0,-1.0,-12.0,-6.0,-5.0,-3.0,0.0,-3.0,1651067774171682.0,2
1034,2.0,0.0,-1.0,3.0,3.0,5.0,1.0,5.0,1651067774173707.0,2
1035,-2.0,-1.0,4.0,3.0,2.0,2.0,-2.0,-7.0,1651067774173707.0,2
1036,0.0,-3.0,-6.0,-3.0,-4.0,-2.0,-5.0,-3.0,1651067774194690.0,2
1037,0.0,3.0,13.0,4.0,4.0,1.0,-3.0,0.0,1651067774194690.0,2
1038,-1.0,1.0,0.0,4.0,7.0,2.0,-4.0,0.0,1651067774195822.0,2
1039,-1.0,-3.0,-5.0,-7.0,-7.0,-1.0,1.0,-4.0,1651067774195822.0,2
1040,0.0,-1.0,5.0,0.0,2.0,0.0,1.0,2.0,1651067774208668.0,2
1041,-2.0,-1.0,-2.0,-1.0,0.0,-1.0,2.0,-3.0,1651067774208668.0,2
1042,0.0,0.0,-9.0,-2.0,-2.0,-2.0,-1.0,1.0,1651067774217653.0,2
1043,-1.0,3.0,13.0,10.0,8.0,6.0,-3.0,-3.0,1651067774217653.0,2
1044,-1.0,-1.0,0.0,-10.0,-9.0,-4.0,-1.0,1.0,1651067774232458.0,2
1045,-3.0,-5.0,-8.0,-4.0,-4.0,-2.0,4.0,1.0,1651067774232458.0,2
1046,2.0,0.0,-8.0,-2.0,1.0,0.0,3.0,2.0,1651067774233444.0,2
1047,0.0,3.0,5.0,5.0,2.0,0.0,0.0,-1.0,1651067774233444.0,2
1048,-4.0,-2.0,-6.0,2.0,1.0,1.0,-3.0,-2.0,1651067774254558.0,2
1049,4.0,3.0,2.0,8.0,4.0,-4.0,-3.0,-2.0,1651067774254558.0,2
1050,-4.0,-6.0,2.0,-6.0,-3.0,0.0,-2.0,0.0,1651067774256486.0,2
1051,-2.0,0.0,5.0,-16.0,-20.0,-7.0,-2.0,-1.0,1651067774256486.0,2
1052,-4.0,-4.0,-16.0,5.0,10.0,0.0,-1.0,-3.0,1651067774268521.0,2
1053,-2.0,-3.0,-6.0,-11.0,-3.0,-2.0,-2.0,1.0,1651067774268521.0,2
1054,2.0,3.0,-12.0,4.0,-2.0,1.0,3.0,2.0,1651067774277430.0,2
1055,1.0,3.0,19.0,-1.0,-4.0,-6.0,-1.0,0.0,1651067774277430.0,2
1056,-3.0,-3.0,-4.0,11.0,4.0,0.0,-2.0,-1.0,1651067774292391.0,2
1057,-1.0,-2.0,-1.0,-14.0,-1.0,1.0,2.0,1.0,1651067774292391.0,2
1058,-1.0,1.0,3.0,15.0,11.0,2.0,-1.0,0.0,1651067774293400.0,2
1059,-2.0,-2.0,-15.0,-12.0,-8.0,-1.0,2.0,-2.0,1651067774293400.0,2
1060,2.0,4.0,-9.0,3.0,1.0,2.0,-1.0,-2.0,1651067774314938.0,2
1061,0.0,2.0,29.0,8.0,9.0,4.0,5.0,3.0,1651067774314938.0,2
1062,-1.0,-4.0,-6.0,-6.0,-11.0,-8.0,0.0,1.0,1651067774316333.0,2
1063,1.0,-1.0,-2.0,14.0,13.0,3.0,-2.0,0.0,1651067774316333.0,2
1064,-3.0,-2.0,-11.0,-23.0,-9.0,-7.0,-6.0,-6.0,1651067774328274.0,2
1065,11.0,7.0,-11.0,-2.0,-10.0,-6.0,2.0,5.0,1651067774328274.0,2
1066,-12.0,-6.0,17.0,-8.0,2.0,2.0,-1.0,-6.0,1651067774337358.0,2
1067,1.0,3.0,3.0,13.0,5.0,0.0,2.0,1.0,1651067774337358.0,2
1068,3.0,0.0,-9.0,-12.0,-8.0,0.0,0.0,3.0,1651067774352345.0,2
1069,-3.0,-4.0,3.0,12.0,3.0,-3.0,-9.0,-5.0,1651067774352345.0,2
1070,6.0,3.0,9.0,12.0,4.0,1.0,0.0,0.0,1651067774353354.0,2
1071,4.0,4.0,-4.0,0.0,9.0,5.0,6.0,3.0,1651067774353354.0,2
1072,-2.0,-2.0,10.0,2.0,3.0,4.0,2.0,-2.0,1651067774382496.0,2
1073,-1.0,0.0,-9.0,-13.0,-9.0,-1.0,0.0,1.0,1651067774382496.0,2
1074,0.0,1.0,2.0,8.0,-2.0,-4.0,-2.0,-1.0,1651067774383497.0,2
1075,5.0,1.0,-4.0,2.0,5.0,1.0,-3.0,-3.0,1651067774383497.0,2
1076,-14.0,-8.0,14.0,5.0,-5.0,-4.0,0.0,0.0,1651067774388482.0,2
1077,-5.0,-7.0,-13.0,-5.0,-8.0,-1.0,-1.0,-2.0,1651067774388482.0,2
1078,1.0,0.0,-26.0,-29.0,-3.0,1.0,-2.0,0.0,1651067774397458.0,2
1079,12.0,8.0,15.0,-4.0,-10.0,-9.0,-4.0,-3.0,1651067774397458.0,2
1080,-15.0,-26.0,14.0,50.0,17.0,6.0,5.0,0.0,1651067774412429.0,2
1081,-1.0,5.0,-18.0,-7.0,2.0,2.0,-2.0,0.0,1651067774412429.0,2
1082,-5.0,-3.0,12.0,-6.0,1.0,1.0,3.0,2.0,1651067774413419.0,2
1083,3.0,9.0,0.0,-8.0,-8.0,-6.0,-3.0,-1.0,1651067774413419.0,2
1084,33.0,15.0,2.0,-13.0,-2.0,-2.0,-1.0,1.0,1651067774434440.0,2
1085,-41.0,-15.0,-4.0,4.0,-7.0,-2.0,2.0,-5.0,1651067774434440.0,2
1086,5.0,-8.0,-18.0,1.0,-5.0,-1.0,2.0,3.0,1651067774436461.0,2
1087,-9.0,-9.0,3.0,1.0,2.0,1.0,-1.0,-1.0,1651067774436461.0,2
1088,1.0,4.0,9.0,5.0,7.0,2.0,-2.0,-1.0,1651067774457498.0,2
1089,10.0,1.0,-2.0,-18.0,-9.0,-4.0,-3.0,1.0,1651067774457498.0,2
1090,3.0,8.0,4.0,0.0,-3.0,-2.0,-2.0,-1.0,1651067774458497.0,2
1091,-7.0,-8.0,1.0,17.0,4.0,0.0,1.0,2.0,1651067774458497.0,2
1092,2.0,3.0,-18.0,-23.0,-6.0,-1.0,-2.0,1.0,1651067774472481.0,2
1093,17.0,12.0,9.0,23.0,2.0,-1.0,-3.0,1.0,1651067774472481.0,2
1094,-8.0,-6.0,2.0,-3.0,3.0,2.0,-1.0,-2.0,1651067774473444.0,2
1095,-14.0,-14.0,-7.0,0.0,3.0,1.0,0.0,0.0,1651067774473444.0,2
1096,-4.0,4.0,25.0,9.0,1.0,3.0,1.0,2.0,1651067774494388.0,2
1097,4.0,1.0,-19.0,0.0,2.0,1.0,1.0,-1.0,1651067774494388.0,2
1098,6.0,-2.0,-18.0,-19.0,-8.0,-3.0,-1.0,0.0,1651067774496411.0,2
1099,-3.0,-2.0,5.0,-2.0,2.0,1.0,-2.0,-1.0,1651067774496411.0,2
1100,3.0,10.0,9.0,4.0,5.0,1.0,2.0,3.0,1651067774508418.0,2
1101,-2.0,-9.0,0.0,4.0,6.0,4.0,2.0,-1.0,1651067774508418.0,2
1102,-2.0,0.0,12.0,18.0,-4.0,-4.0,-6.0,-2.0,1651067774517500.0,2
1103,0.0,1.0,-20.0,-30.0,-9.0,-3.0,-2.0,-1.0,1651067774517500.0,2
1104,-3.0,2.0,-4.0,-1.0,2.0,0.0,1.0,0.0,1651067774531683.0,2
1105,6.0,2.0,14.0,2.0,8.0,2.0,0.0,2.0,1651067774531683.0,2
1106,-2.0,-5.0,-21.0,-28.0,-20.0,-7.0,-1.0,-4.0,1651067774533607.0,2
1107,0.0,-2.0,-6.0,5.0,8.0,2.0,3.0,4.0,1651067774533607.0,2
1108,2.0,-1.0,0.0,5.0,-6.0,-1.0,-1.0,-1.0,1651067774554988.0,2
1109,-1.0,3.0,6.0,1.0,0.0,-2.0,1.0,1.0,1651067774554988.0,2
1110,0.0,-5.0,3.0,1.0,5.0,1.0,-2.0,0.0,1651067774556319.0,2
1111,-2.0,-4.0,-3.0,0.0,1.0,0.0,-3.0,-4.0,1651067774556319.0,2
1112,-3.0,1.0,1.0,-4.0,-9.0,-4.0,2.0,0.0,1651067774568675.0,2
1113,1.0,-5.0,-9.0,-1.0,-3.0,-1.0,-3.0,-2.0,1651067774568675.0,2
1114,1.0,4.0,-3.0,3.0,1.0,-2.0,0.0,2.0,1651067774577649.0,2
1115,1.0,3.0,23.0,6.0,6.0,2.0,2.0,-1.0,1651067774577649.0,2
1116,-2.0,0.0,-17.0,-13.0,-3.0,-2.0,-2.0,-1.0,1651067774591606.0,2
1117,-2.0,-2.0,4.0,-4.0,-2.0,-2.0,-2.0,-2.0,1651067774591606.0,2
1118,2.0,3.0,1.0,8.0,11.0,2.0,1.0,0.0,1651067774598628.0,2
1119,1.0,2.0,16.0,42.0,6.0,2.0,-1.0,-4.0,1651067774598628.0,2
1120,-6.0,-7.0,-16.0,-42.0,-20.0,-9.0,-5.0,-2.0,1651067774622533.0,2
1121,-2.0,-3.0,-1.0,1.0,3.0,0.0,2.0,1.0,1651067774622533.0,2
1122,0.0,2.0,4.0,5.0,5.0,3.0,1.0,-1.0,1651067774623535.0,2
1123,3.0,2.0,2.0,9.0,-2.0,-1.0,-3.0,0.0,1651067774623535.0,2
1124,1.0,1.0,4.0,3.0,7.0,2.0,-1.0,1.0,1651067774628508.0,2
1125,3.0,0.0,-2.0,1.0,-8.0,-3.0,-1.0,-1.0,1651067774628508.0,2
1126,-1.0,0.0,3.0,0.0,5.0,-2.0,-2.0,-1.0,1651067774637484.0,2
1127,0.0,-1.0,-6.0,-17.0,-7.0,0.0,-1.0,-3.0,1651067774637484.0,2
1128,1.0,1.0,12.0,10.0,-2.0,2.0,0.0,-2.0,1651067774651448.0,2
1129,-2.0,-5.0,-15.0,-21.0,-9.0,-1.0,1.0,-1.0,1651067774651448.0,2
1130,-1.0,7.0,14.0,10.0,3.0,0.0,-1.0,1.0,1651067774658488.0,2
1131,0.0,2.0,14.0,33.0,3.0,-2.0,-3.0,0.0,1651067774658488.0,2
1132,-1.0,-6.0,-33.0,-54.0,-5.0,-1.0,1.0,0.0,1651067774674566.0,2
1133,-1.0,2.0,3.0,-1.0,3.0,3.0,2.0,0.0,1651067774674566.0,2
1134,2.0,4.0,22.0,25.0,-6.0,-2.0,-1.0,-2.0,1651067774676534.0,2
1135,-1.0,-1.0,-17.0,-29.0,4.0,2.0,-2.0,1.0,1651067774676534.0,2
1136,-5.0,-6.0,-12.0,3.0,7.0,0.0,-1.0,1.0,1651067774697564.0,2
1137,0.0,-2.0,0.0,2.0,-20.0,-7.0,-4.0,-1.0,1651067774697564.0,2
1138,-1.0,-4.0,-10.0,-12.0,-2.0,1.0,3.0,2.0,1651067774698562.0,2
1139,0.0,0.0,-12.0,-30.0,-8.0,-2.0,2.0,0.0,1651067774698562.0,2
1140,3.0,7.0,15.0,19.0,5.0,1.0,-1.0,-2.0,1651067774711595.0,2
1141,-3.0,-4.0,-6.0,-5.0,2.0,0.0,0.0,-2.0,1651067774711595.0,2
1142,0.0,-1.0,4.0,-2.0,-1.0,2.0,-2.0,0.0,1651067774718562.0,2
1143,-1.0,-5.0,-12.0,-2.0,-3.0,-4.0,-2.0,-2.0,1651067774718562.0,2
1144,-1.0,1.0,8.0,0.0,-4.0,-1.0,-1.0,0.0,1651067774734568.0,2
1145,0.0,2.0,8.0,10.0,3.0,-1.0,-1.0,-1.0,1651067774734568.0,2
1146,0.0,-1.0,0.0,-1.0,-1.0,0.0,0.0,-2.0,1651067774736565.0,2
1147,-1.0,0.0,0.0,-1.0,0.0,0.0,0.0,0.0,1651067774736565.0,2
1148,-2.0,-4.0,-8.0,2.0,0.0,-1.0,-1.0,0.0,1651067774756708.0,2
1149,-1.0,2.0,9.0,0.0,3.0,0.0,1.0,0.0,1651067774756708.0,2
1150,-1.0,0.0,0.0,-1.0,3.0,1.0,-2.0,-2.0,1651067774758730.0,2
1151,1.0,0.0,-5.0,-1.0,-1.0,0.0,4.0,4.0,1651067774758730.0,2
1152,1.0,0.0,13.0,-1.0,-8.0,-5.0,-2.0,-2.0,1651067774771684.0,2
1153,-2.0,-4.0,-3.0,7.0,9.0,0.0,-4.0,-3.0,1651067774771684.0,2
1154,1.0,0.0,-6.0,-2.0,-1.0,2.0,2.0,1.0,1651067774773695.0,2
1155,-1.0,-1.0,-7.0,-1.0,-3.0,0.0,-2.0,-1.0,1651067774773695.0,2
1156,1.0,2.0,4.0,21.0,3.0,1.0,1.0,-1.0,1651067774794668.0,2
1157,-1.0,-4.0,-3.0,-23.0,-4.0,-2.0,-1.0,0.0,1651067774794668.0,2
1158,-1.0,1.0,5.0,2.0,0.0,-2.0,-1.0,-1.0,1651067774796067.0,2
1159,-2.0,-4.0,-17.0,-11.0,-6.0,-3.0,-2.0,-1.0,1651067774796067.0,2
1160,0.0,3.0,6.0,14.0,2.0,-1.0,0.0,0.0,1651067774817081.0,2
1161,1.0,2.0,1.0,0.0,4.0,2.0,0.0,1.0,1651067774817081.0,2
1162,-2.0,-3.0,1.0,-9.0,-9.0,-2.0,0.0,-2.0,1651067774819006.0,2
1163,-3.0,-2.0,6.0,-5.0,-1.0,0.0,0.0,-1.0,1651067774819006.0,2
1164,-2.0,-4.0,0.0,8.0,4.0,-1.0,0.0,0.0,1651067774831040.0,2
1165,-2.0,-2.0,-3.0,-2.0,0.0,-2.0,0.0,-1.0,1651067774831040.0,2
1166,0.0,0.0,4.0,1.0,-2.0,-2.0,-2.0,0.0,1651067774838024.0,2
1167,0.0,-1.0,-9.0,9.0,4.0,2.0,2.0,-1.0,1651067774838024.0,2
1168,0.0,1.0,-4.0,-5.0,1.0,2.0,0.0,1.0,1651067774855046.0,2
1169,0.0,0.0,0.0,4.0,2.0,0.0,-1.0,1.0,1651067774855046.0,2
1170,-2.0,0.0,1.0,-1.0,0.0,0.0,-3.0,-1.0,1651067774856046.0,2
1171,0.0,0.0,1.0,-8.0,-4.0,-1.0,1.0,-1.0,1651067774856046.0,2
1172,0.0,-1.0,1.0,12.0,4.0,2.0,2.0,-1.0,1651067774876671.0,2
1173,-2.0,-1.0,2.0,4.0,-5.0,-1.0,0.0,-2.0,1651067774876671.0,2
1174,0.0,1.0,7.0,9.0,3.0,-2.0,0.0,0.0,1651067774878602.0,2
1175,0.0,-4.0,-15.0,-11.0,-2.0,-5.0,-3.0,-1.0,1651067774878602.0,2
1176,0.0,0.0,2.0,5.0,-1.0,3.0,-2.0,2.0,1651067774891566.0,2
1177,1.0,2.0,6.0,-6.0,2.0,3.0,3.0,1.0,1651067774891566.0,2
1178,-1.0,-2.0,-2.0,2.0,0.0,-2.0,-2.0,0.0,1651067774898584.0,2
1179,-1.0,-2.0,-2.0,-7.0,-6.0,0.0,-1.0,-2.0,1651067774898584.0,2
1180,-1.0,-2.0,0.0,11.0,4.0,-1.0,-1.0,-1.0,1651067774914565.0,2
1181,-1.0,1.0,4.0,3.0,-3.0,-3.0,-4.0,-4.0,1651067774914565.0,2
1182,1.0,0.0,-11.0,-6.0,2.0,2.0,1.0,0.0,1651067774916525.0,2
1183,-1.0,-2.0,5.0,1.0,-1.0,0.0,2.0,1.0,1651067774916525.0,2
1184,0.0,-1.0,-2.0,-9.0,0.0,-1.0,1.0,0.0,1651067774937593.0,2
1185,1.0,-1.0,5.0,14.0,2.0,0.0,0.0,0.0,1651067774937593.0,2
1186,0.0,0.0,5.0,0.0,-4.0,-3.0,-1.0,-1.0,1651067774938590.0,2
1187,-1.0,0.0,-14.0,-2.0,0.0,2.0,0.0,0.0,1651067774938590.0,2
1188,-3.0,-1.0,-3.0,-12.0,-6.0,-1.0,2.0,0.0,1651067774950627.0,2
1189,-2.0,-1.0,-3.0,5.0,4.0,1.0,-1.0,0.0,1651067774950627.0,2
1190,-1.0,1.0,12.0,1.0,-1.0,-2.0,0.0,-2.0,1651067774959534.0,2
1191,-2.0,0.0,2.0,-1.0,-2.0,-3.0,-3.0,-2.0,1651067774959534.0,2
1192,-1.0,-2.0,-6.0,-5.0,-3.0,2.0,0.0,-1.0,1651067774974578.0,2
1193,1.0,1.0,4.0,21.0,5.0,-2.0,-4.0,-1.0,1651067774974578.0,2
1194,1.0,-3.0,-23.0,-39.0,-5.0,1.0,4.0,4.0,1651067774976597.0,2
1195,-1.0,1.0,8.0,14.0,1.0,0.0,-1.0,0.0,1651067774976597.0,2
1196,1.0,-1.0,1.0,-5.0,0.0,-2.0,0.0,-2.0,1651067774997205.0,2
1197,-1.0,-1.0,-3.0,-4.0,-3.0,1.0,-1.0,-1.0,1651067774997205.0,2
1198,-1.0,-1.0,-1.0,12.0,1.0,1.0,-1.0,-1.0,1651067774998144.0,2
1199,1.0,3.0,2.0,-2.0,0.0,-3.0,1.0,2.0,1651067774998144.0,2
1200,0.0,1.0,4.0,8.0,-2.0,-2.0,-3.0,-2.0,1651067775011168.0,2
1201,0.0,-3.0,4.0,-6.0,0.0,-2.0,-1.0,-3.0,1651067775011168.0,2
1202,0.0,-1.0,-11.0,5.0,2.0,2.0,1.0,-3.0,1651067775018090.0,2
1203,-1.0,-2.0,1.0,-4.0,-3.0,-1.0,0.0,-1.0,1651067775018090.0,2
1204,-1.0,-1.0,0.0,0.0,-3.0,-3.0,-1.0,-1.0,1651067775034272.0,2
1205,2.0,4.0,1.0,1.0,5.0,4.0,0.0,2.0,1651067775034272.0,2
1206,-2.0,1.0,5.0,2.0,1.0,1.0,-2.0,-1.0,1651067775036270.0,2
1207,0.0,-2.0,-1.0,3.0,1.0,3.0,1.0,-1.0,1651067775036270.0,2
1208,0.0,0.0,-3.0,-5.0,-2.0,-2.0,-2.0,-1.0,1651067775056610.0,2
1209,-2.0,-3.0,-9.0,-5.0,-5.0,-3.0,-1.0,-2.0,1651067775056610.0,2
1210,1.0,1.0,3.0,1.0,1.0,-1.0,2.0,2.0,1651067775058549.0,2
1211,0.0,1.0,8.0,11.0,0.0,1.0,-1.0,0.0,1651067775058549.0,2
1212,-1.0,-2.0,-9.0,-15.0,4.0,-1.0,-2.0,0.0,1651067775071566.0,2
1213,-1.0,-2.0,-7.0,-8.0,-2.0,-1.0,-1.0,1.0,1651067775071566.0,2
1214,-1.0,-1.0,0.0,8.0,-2.0,-2.0,-2.0,-1.0,1651067775078548.0,2
1215,-2.0,0.0,1.0,0.0,1.0,-3.0,0.0,-1.0,1651067775078548.0,2
1216,0.0,1.0,5.0,0.0,-1.0,1.0,2.0,0.0,1651067775094937.0,2
1217,-1.0,-1.0,1.0,-2.0,-2.0,-2.0,-1.0,0.0,1651067775094937.0,2
1218,-1.0,0.0,10.0,2.0,-2.0,-1.0,-1.0,-1.0,1651067775096330.0,2
1219,0.0,0.0,-13.0,-12.0,-1.0,0.0,-1.0,-2.0,1651067775096330.0,2
1220,1.0,-2.0,-5.0,13.0,0.0,-1.0,-2.0,0.0,1651067775117465.0,2
1221,0.0,-1.0,-1.0,-7.0,2.0,1.0,1.0,2.0,1651067775117465.0,2
1222,0.0,-1.0,4.0,5.0,-2.0,-2.0,-1.0,-2.0,1651067775118420.0,2
1223,-1.0,-2.0,-3.0,-7.0,0.0,0.0,1.0,-1.0,1651067775118420.0,2
1224,-2.0,0.0,4.0,3.0,0.0,0.0,-2.0,0.0,1651067775131452.0,2
1225,1.0,-1.0,-1.0,4.0,-3.0,-2.0,-2.0,0.0,1651067775131452.0,2
1226,-1.0,-2.0,-8.0,-1.0,1.0,1.0,1.0,-1.0,1651067775138433.0,2
1227,1.0,1.0,17.0,4.0,1.0,-1.0,-2.0,-1.0,1651067775138433.0,2
1228,-1.0,-3.0,-10.0,-13.0,-7.0,-5.0,-1.0,-3.0,1651067775154937.0,2
1229,-2.0,0.0,1.0,7.0,2.0,1.0,-1.0,-2.0,1651067775154937.0,2
1230,-1.0,-1.0,-5.0,-4.0,0.0,-1.0,-2.0,-3.0,1651067775156292.0,2
1231,-2.0,-1.0,-5.0,-3.0,-2.0,-2.0,-2.0,-1.0,1651067775156292.0,0
1232,1.0,-1.0,7.0,9.0,3.0,1.0,0.0,-1.0,1651067775177626.0,0
1233,-1.0,0.0,-7.0,-13.0,-4.0,-2.0,1.0,-2.0,1651067775177626.0,0
1234,-2.0,-1.0,-1.0,-4.0,-2.0,-1.0,0.0,-2.0,1651067775179553.0,0
1235,2.0,0.0,-4.0,3.0,2.0,0.0,1.0,-1.0,1651067775179553.0,0
1236,1.0,1.0,3.0,9.0,2.0,-2.0,-2.0,-1.0,1651067775190529.0,0
1237,0.0,-3.0,-4.0,-10.0,-5.0,-2.0,-1.0,1.0,1651067775190529.0,0
1238,1.0,-1.0,-1.0,-1.0,3.0,3.0,3.0,1.0,1651067775199501.0,0
1239,-1.0,-3.0,1.0,-5.0,-3.0,-1.0,-1.0,0.0,1651067775199501.0,0
1240,-2.0,1.0,1.0,-2.0,0.0,2.0,0.0,0.0,1651067775214962.0,0
1241,-2.0,0.0,-1.0,3.0,-3.0,-2.0,-1.0,-2.0,1651067775214962.0,0
1242,0.0,1.0,4.0,1.0,-2.0,-5.0,-2.0,-1.0,1651067775216321.0,0
1243,1.0,1.0,-5.0,0.0,1.0,3.0,2.0,1.0,1651067775216321.0,0
1244,1.0,-2.0,4.0,-2.0,-3.0,1.0,0.0,0.0,1651067775237357.0,0
1245,1.0,1.0,1.0,1.0,2.0,0.0,-1.0,-1.0,1651067775237357.0,0
1246,0.0,1.0,-2.0,1.0,-4.0,0.0,-1.0,-2.0,1651067775238288.0,0
1247,-2.0,-4.0,-2.0,-1.0,-3.0,-4.0,-2.0,1.0,1651067775238288.0,0
1248,0.0,1.0,-4.0,0.0,2.0,4.0,3.0,2.0,1651067775251087.0,0
1249,0.0,0.0,-6.0,-3.0,-5.0,1.0,-1.0,-1.0,1651067775251087.0,0
1250,0.0,3.0,12.0,3.0,11.0,2.0,-1.0,-1.0,1651067775259325.0,0
1251,-2.0,-1.0,0.0,0.0,1.0,0.0,-4.0,-2.0,1651067775259325.0,0
1252,1.0,-2.0,0.0,-3.0,-2.0,-2.0,-1.0,-1.0,1651067775274355.0,0
1253,-1.0,-1.0,11.0,1.0,2.0,-1.0,2.0,-1.0,1651067775274355.0,0
1254,-2.0,-5.0,-27.0,-10.0,-5.0,1.0,1.0,0.0,1651067775276309.0,0
1255,0.0,0.0,2.0,3.0,0.0,-4.0,0.0,-1.0,1651067775276309.0,0
1256,-2.0,2.0,0.0,-7.0,-2.0,-2.0,-3.0,-2.0,1651067775297294.0,0
1257,1.0,2.0,3.0,9.0,3.0,1.0,1.0,1.0,1651067775297294.0,0
1258,0.0,-1.0,-2.0,-4.0,-1.0,0.0,0.0,0.0,1651067775298226.0,0
1259,-1.0,-2.0,-1.0,-1.0,1.0,2.0,-1.0,0.0,1651067775298226.0,0
1260,-2.0,-1.0,1.0,-2.0,-3.0,-2.0,-4.0,0.0,1651067775310369.0,0
1261,-1.0,0.0,6.0,6.0,-1.0,0.0,1.0,-1.0,1651067775310369.0,0
1262,-1.0,-5.0,-9.0,-8.0,3.0,-1.0,-1.0,0.0,1651067775319344.0,0
1263,-2.0,-1.0,-1.0,-7.0,-5.0,-4.0,-2.0,0.0,1651067775319344.0,0
1264,2.0,1.0,-1.0,5.0,0.0,5.0,2.0,0.0,1651067775334541.0,0
1265,-1.0,-2.0,-2.0,-4.0,0.0,-1.0,-1.0,-1.0,1651067775334541.0,0
1266,0.0,0.0,1.0,-4.0,-4.0,-1.0,2.0,-2.0,1651067775336465.0,0
1267,0.0,2.0,6.0,8.0,0.0,0.0,0.0,-1.0,1651067775336465.0,0
1268,-1.0,0.0,-4.0,-5.0,0.0,-3.0,-2.0,-1.0,1651067775357429.0,0
1269,0.0,0.0,-1.0,-1.0,-3.0,0.0,0.0,-1.0,1651067775357429.0,0
1270,-1.0,-1.0,0.0,6.0,-4.0,-1.0,-1.0,2.0,1651067775358438.0,0
1271,-1.0,1.0,13.0,1.0,0.0,0.0,-3.0,-1.0,1651067775358438.0,0
1272,-1.0,-2.0,-24.0,-1.0,2.0,2.0,2.0,1.0,1651067775371111.0,0
1273,-1.0,2.0,9.0,-2.0,-2.0,0.0,0.0,0.0,1651067775371111.0,0
1274,0.0,0.0,1.0,0.0,-2.0,-2.0,-4.0,-2.0,1651067775380155.0,0
1275,-1.0,-2.0,4.0,8.0,0.0,-3.0,-2.0,0.0,1651067775380155.0,0
1276,-1.0,0.0,7.0,4.0,-1.0,1.0,3.0,-1.0,1651067775394251.0,0
1277,1.0,-1.0,-3.0,-10.0,4.0,1.0,-1.0,-1.0,1651067775394251.0,0
1278,-1.0,1.0,1.0,1.0,-3.0,1.0,-1.0,1.0,1651067775396414.0,0
1279,1.0,-1.0,-7.0,-4.0,5.0,1.0,-1.0,-3.0,1651067775396414.0,0
1280,-1.0,-1.0,2.0,-2.0,-11.0,-12.0,-3.0,-3.0,1651067775417415.0,0
1281,0.0,0.0,-7.0,3.0,26.0,15.0,1.0,2.0,1651067775417415.0,0
1282,-2.0,-1.0,3.0,4.0,-1.0,3.0,3.0,1.0,1651067775418358.0,0
1283,0.0,0.0,-4.0,0.0,-2.0,-1.0,0.0,1.0,1651067775418358.0,0
1284,-1.0,-1.0,12.0,1.0,-5.0,-7.0,-3.0,-3.0,1651067775430380.0,0
1285,0.0,-1.0,-9.0,-6.0,-7.0,-3.0,-2.0,-1.0,1651067775430380.0,0
1286,0.0,0.0,2.0,3.0,6.0,-1.0,-3.0,-1.0,1651067775439316.0,0
1287,-1.0,-3.0,-15.0,-6.0,-8.0,-3.0,1.0,1.0,1651067775439316.0,0
1288,-1.0,0.0,8.0,-4.0,11.0,3.0,0.0,1.0,1651067775455199.0,0
1289,-1.0,-2.0,3.0,6.0,-6.0,-1.0,1.0,0.0,1651067775455199.0,0
1290,0.0,-1.0,-3.0,-6.0,-7.0,-8.0,-2.0,-1.0,1651067775456222.0,0
1291,-2.0,-3.0,-6.0,0.0,7.0,2.0,0.0,-2.0,1651067775456222.0,0
1292,0.0,1.0,2.0,2.0,-1.0,-2.0,-2.0,-1.0,1651067775477432.0,0
1293,0.0,-1.0,-10.0,-17.0,-10.0,-8.0,-5.0,-1.0,1651067775477432.0,0
1294,-1.0,-2.0,-11.0,-1.0,-12.0,-6.0,-2.0,0.0,1651067775478361.0,0
1295,1.0,0.0,6.0,-2.0,4.0,-1.0,-1.0,-2.0,1651067775478361.0,0
1296,0.0,-2.0,-8.0,-5.0,-8.0,-2.0,-2.0,-1.0,1651067775490721.0,0
1297,-2.0,1.0,15.0,12.0,15.0,6.0,0.0,0.0,1651067775490721.0,0
1298,1.0,0.0,-15.0,-11.0,-18.0,-6.0,1.0,-3.0,1651067775499377.0,0
1299,-1.0,0.0,-6.0,-1.0,6.0,-2.0,0.0,-2.0,1651067775499377.0,0
1300,-2.0,-1.0,9.0,6.0,12.0,12.0,2.0,0.0,1651067775514267.0,0
1301,0.0,-2.0,-13.0,-7.0,-14.0,-8.0,0.0,-2.0,1651067775514267.0,0
1302,-3.0,1.0,11.0,-3.0,-3.0,-11.0,-4.0,-2.0,1651067775516409.0,0
1303,1.0,-1.0,5.0,9.0,8.0,14.0,1.0,0.0,1651067775516409.0,0
1304,0.0,-1.0,0.0,-5.0,-5.0,-8.0,-1.0,-1.0,1651067775537447.0,0
1305,-3.0,-5.0,-10.0,-4.0,-13.0,-5.0,-2.0,0.0,1651067775537447.0,0
1306,-1.0,-1.0,-3.0,2.0,4.0,5.0,0.0,1.0,1651067775538369.0,0
1307,0.0,1.0,10.0,4.0,-12.0,-6.0,0.0,0.0,1651067775538369.0,0
1308,-2.0,-1.0,-5.0,2.0,-8.0,-7.0,-3.0,-1.0,1651067775551115.0,0
1309,-1.0,2.0,1.0,2.0,2.0,-2.0,0.0,0.0,1651067775551115.0,0
1310,0.0,0.0,9.0,2.0,2.0,-1.0,-2.0,-2.0,1651067775566845.0,0
1311,-1.0,1.0,-3.0,0.0,-4.0,2.0,-1.0,-1.0,1651067775566845.0,0
1312,0.0,-2.0,-3.0,0.0,0.0,-2.0,-1.0,-1.0,1651067775574753.0,0
1313,-1.0,2.0,2.0,-2.0,-7.0,-10.0,-3.0,-2.0,1651067775574753.0,0
1314,0.0,0.0,3.0,16.0,34.0,26.0,7.0,2.0,1651067775575900.0,0
1315,0.0,1.0,-7.0,-11.0,-8.0,-4.0,-1.0,-1.0,1651067775575900.0,0
1316,-1.0,1.0,1.0,2.0,-2.0,-7.0,-3.0,-2.0,1651067775597468.0,0
1317,3.0,2.0,4.0,-1.0,-6.0,8.0,6.0,1.0,1651067775597468.0,0
1318,-2.0,-7.0,-14.0,-4.0,5.0,-10.0,-7.0,-3.0,1651067775598387.0,0
1319,0.0,0.0,13.0,0.0,2.0,6.0,2.0,0.0,1651067775598387.0,0
1320,-1.0,0.0,-8.0,1.0,9.0,11.0,-1.0,-1.0,1651067775619370.0,0
1321,-2.0,-2.0,1.0,0.0,-7.0,-7.0,-2.0,0.0,1651067775619370.0,0
1322,-1.0,1.0,5.0,-3.0,-10.0,-6.0,-2.0,-2.0,1651067775621365.0,0
1323,2.0,0.0,-8.0,-7.0,-15.0,-4.0,2.0,3.0,1651067775621365.0,0
1324,-1.0,0.0,-2.0,6.0,24.0,10.0,-1.0,-2.0,1651067775634358.0,0
1325,1.0,1.0,1.0,5.0,3.0,5.0,1.0,0.0,1651067775634358.0,0
1326,-4.0,-5.0,-8.0,-7.0,-5.0,2.0,-1.0,-4.0,1651067775640432.0,0
1327,0.0,3.0,0.0,-4.0,-5.0,-3.0,-1.0,1.0,1651067775640432.0,0
1328,3.0,1.0,4.0,-6.0,-9.0,-4.0,2.0,1.0,1651067775657525.0,0
1329,-2.0,-1.0,0.0,13.0,12.0,8.0,3.0,1.0,1651067775657525.0,0
1330,1.0,3.0,16.0,-4.0,-10.0,-1.0,0.0,-2.0,1651067775658510.0,0
1331,-3.0,-3.0,-10.0,-4.0,-4.0,-4.0,-3.0,-3.0,1651067775658510.0,0
1332,-1.0,1.0,-1.0,2.0,8.0,7.0,3.0,2.0,1651067775679473.0,0
1333,0.0,3.0,10.0,6.0,0.0,-2.0,-1.0,0.0,1651067775679473.0,0
1334,1.0,-1.0,-7.0,1.0,8.0,8.0,3.0,-1.0,1651067775681495.0,0
1335,-3.0,1.0,11.0,4.0,-13.0,-13.0,-6.0,-2.0,1651067775681495.0,0
1336,-2.0,-4.0,-17.0,-12.0,-7.0,-2.0,0.0,-1.0,1651067775693555.0,0
1337,-3.0,-7.0,-15.0,-9.0,12.0,7.0,-3.0,1.0,1651067775693555.0,0
1338,3.0,3.0,6.0,5.0,-2.0,-1.0,-1.0,-2.0,1651067775700645.0,0
1339,-2.0,-1.0,4.0,5.0,8.0,0.0,-1.0,-2.0,1651067775700645.0,0
1340,1.0,1.0,0.0,-5.0,-16.0,-4.0,5.0,1.0,1651067775716905.0,0
1341,1.0,5.0,18.0,12.0,1.0,-1.0,-2.0,-2.0,1651067775716905.0,0
1342,-1.0,-6.0,-17.0,-5.0,1.0,1.0,-1.0,0.0,1651067775718833.0,0
1343,0.0,-3.0,-11.0,-8.0,2.0,-4.0,-3.0,-1.0,1651067775718833.0,0
1344,1.0,-2.0,-2.0,-5.0,-13.0,-8.0,-2.0,0.0,1651067775740024.0,0
1345,-4.0,-3.0,-10.0,-7.0,1.0,4.0,-1.0,-2.0,1651067775740024.0,0
1346,-3.0,3.0,5.0,7.0,1.0,0.0,2.0,5.0,1651067775741033.0,0
1347,0.0,1.0,6.0,2.0,-4.0,-1.0,-3.0,-5.0,1651067775741033.0,0
1348,8.0,8.0,13.0,16.0,11.0,0.0,-2.0,6.0,1651067775754288.0,0
1349,-1.0,-5.0,-8.0,-11.0,-9.0,-1.0,5.0,1.0,1651067775754288.0,0
1350,-4.0,1.0,11.0,2.0,-11.0,-11.0,-4.0,-5.0,1651067775761006.0,0
1351,-5.0,-4.0,-8.0,-3.0,5.0,2.0,3.0,4.0,1651067775761006.0,0
1352,2.0,-1.0,1.0,1.0,1.0,4.0,8.0,6.0,1651067775777010.0,0
1353,0.0,-1.0,-3.0,-4.0,-10.0,-10.0,-7.0,-9.0,1651067775777010.0,0
1354,-2.0,1.0,2.0,1.0,5.0,3.0,-1.0,-3.0,1651067775778979.0,0
1355,1.0,4.0,6.0,5.0,4.0,3.0,-5.0,-4.0,1651067775778979.0,0
1356,-3.0,-7.0,-8.0,-5.0,-4.0,-6.0,-7.0,-1.0,1651067775800024.0,0
1357,0.0,0.0,-2.0,-4.0,-6.0,-7.0,1.0,4.0,1651067775800024.0,0
1358,4.0,-4.0,-7.0,-5.0,-5.0,3.0,7.0,3.0,1651067775801030.0,0
1359,2.0,1.0,-3.0,3.0,7.0,1.0,-6.0,-5.0,1651067775801030.0,0
1360,-5.0,-3.0,-7.0,-10.0,-14.0,-11.0,-8.0,-9.0,1651067775814311.0,0
1361,-1.0,-2.0,-5.0,-5.0,3.0,3.0,-4.0,-3.0,1651067775814311.0,0
1362,-2.0,2.0,11.0,7.0,7.0,2.0,6.0,0.0,1651067775820302.0,0
1363,-1.0,-2.0,-4.0,-13.0,-7.0,3.0,15.0,7.0,1651067775820302.0,0
1364,9.0,7.0,9.0,8.0,5.0,-1.0,-10.0,6.0,1651067775844412.0,0
1365,-4.0,0.0,3.0,10.0,1.0,-4.0,-7.0,-6.0,1651067775844412.0,0
1366,1.0,-10.0,-20.0,-11.0,5.0,0.0,16.0,4.0,1651067775846321.0,0
1367,2.0,-7.0,-14.0,-7.0,-8.0,-4.0,-11.0,6.0,1651067775846321.0,0
1368,-8.0,-6.0,-15.0,-12.0,-5.0,-4.0,2.0,-16.0,1651067775859403.0,0
1369,1.0,3.0,7.0,4.0,1.0,-2.0,-1.0,-4.0,1651067775859403.0,0
1370,-5.0,6.0,17.0,11.0,0.0,-6.0,-31.0,-13.0,1651067775861339.0,0
1371,-9.0,0.0,4.0,9.0,9.0,10.0,40.0,4.0,1651067775861339.0,3
1372,6.0,-9.0,-20.0,-17.0,-16.0,-3.0,-13.0,3.0,1651067775873366.0,3
1373,5.0,6.0,7.0,11.0,13.0,6.0,-9.0,9.0,1651067775873366.0,3
1374,11.0,4.0,1.0,-2.0,1.0,6.0,21.0,18.0,1651067775882295.0,3
1375,-12.0,-8.0,-7.0,-5.0,-4.0,-12.0,-32.0,-23.0,1651067775882295.0,3
1376,-7.0,6.0,15.0,10.0,11.0,11.0,23.0,-11.0,1651067775896996.0,3
1377,3.0,6.0,11.0,-5.0,-13.0,-9.0,-3.0,3.0,1651067775896996.0,3
1378,4.0,4.0,0.0,2.0,3.0,6.0,-4.0,-2.0,1651067775898960.0,3
1379,15.0,9.0,13.0,6.0,9.0,4.0,5.0,22.0,1651067775898960.0,3
1380,-18.0,-14.0,-24.0,-6.0,7.0,2.0,-4.0,-33.0,1651067775919140.0,3
1381,13.0,-2.0,-9.0,-7.0,-18.0,-14.0,-12.0,49.0,1651067775919140.0,3
1382,11.0,7.0,10.0,13.0,25.0,11.0,1.0,7.0,1651067775921067.0,3
1383,-5.0,1.0,-5.0,8.0,10.0,5.0,17.0,-17.0,1651067775921067.0,3
1384,21.0,-13.0,-27.0,-22.0,-15.0,-7.0,-11.0,76.0,1651067775933036.0,3
1385,-15.0,-2.0,2.0,-1.0,-2.0,7.0,8.0,-41.0,1651067775933036.0,3
1386,-22.0,-17.0,-13.0,-11.0,-5.0,-15.0,-13.0,-13.0,1651067775942010.0,3
1387,8.0,12.0,16.0,15.0,7.0,8.0,5.0,3.0,1651067775942010.0,3
1388,-24.0,-4.0,11.0,2.0,0.0,0.0,-11.0,-49.0,1651067775956778.0,3
1389,-2.0,-4.0,-12.0,-8.0,-3.0,0.0,9.0,-8.0,1651067775956778.0,3
1390,18.0,7.0,4.0,1.0,-9.0,1.0,9.0,41.0,1651067775958706.0,3
1391,-20.0,-7.0,4.0,-4.0,0.0,-5.0,-2.0,-36.0,1651067775958706.0,3
1392,28.0,15.0,9.0,3.0,3.0,12.0,32.0,74.0,1651067775979935.0,3
1393,10.0,0.0,1.0,-1.0,1.0,-4.0,-7.0,-7.0,1651067775979935.0,3
1394,-12.0,0.0,5.0,1.0,-5.0,-9.0,-24.0,-34.0,1651067775980727.0,3
1395,14.0,5.0,6.0,1.0,-16.0,1.0,9.0,21.0,1651067775980727.0,3
1396,-13.0,3.0,14.0,14.0,26.0,14.0,-9.0,-36.0,1651067775992697.0,3
1397,-4.0,-4.0,-7.0,-4.0,6.0,10.0,26.0,6.0,1651067775992697.0,3
1398,-10.0,-10.0,-10.0,-5.0,-3.0,-3.0,0.0,-7.0,1651067776008682.0,3
1399,1.0,-4.0,-10.0,-4.0,-9.0,-7.0,-13.0,-2.0,1651067776008682.0,3
1400,14.0,7.0,3.0,7.0,1.0,-5.0,4.0,22.0,1651067776016700.0,3
1401,-3.0,-1.0,-3.0,-3.0,4.0,9.0,-3.0,-5.0,1651067776016700.0,3
1402,-22.0,-3.0,5.0,3.0,-8.0,-14.0,-28.0,-72.0,1651067776018628.0,3
1403,19.0,4.0,-2.0,-10.0,-7.0,-6.0,-2.0,42.0,1651067776018628.0,3
1404,4.0,8.0,16.0,8.0,-2.0,3.0,9.0,-13.0,1651067776039793.0,3
1405,-1.0,-6.0,-7.0,-6.0,-4.0,-4.0,6.0,17.0,1651067776039793.0,3
1406,-5.0,-1.0,0.0,3.0,5.0,-3.0,-3.0,-10.0,1651067776040746.0,3
1407,-1.0,-5.0,-7.0,-9.0,-8.0,1.0,-6.0,-1.0,1651067776040746.0,3
1408,13.0,12.0,11.0,7.0,5.0,9.0,1.0,8.0,1651067776061817.0,3
1409,-9.0,-5.0,-5.0,-1.0,3.0,-1.0,0.0,-7.0,1651067776061817.0,3
1410,2.0,-2.0,-12.0,-11.0,-9.0,6.0,7.0,3.0,1651067776061817.0,3
1411,-10.0,-12.0,-13.0,-5.0,0.0,-5.0,0.0,-21.0,1651067776061817.0,3
1412,-8.0,-10.0,-14.0,-12.0,-14.0,-8.0,4.0,9.0,1651067776076032.0,3
1413,4.0,4.0,7.0,4.0,9.0,-2.0,-8.0,-5.0,1651067776076032.0,3
1414,3.0,9.0,20.0,14.0,10.0,0.0,-9.0,-3.0,1651067776076968.0,3
1415,3.0,1.0,-3.0,-1.0,3.0,5.0,7.0,12.0,1651067776076968.0,3
1416,-6.0,1.0,0.0,1.0,-2.0,-6.0,-1.0,-6.0,1651067776098588.0,3
1417,4.0,3.0,1.0,-1.0,2.0,-1.0,-12.0,1.0,1651067776098588.0,3
1418,4.0,0.0,2.0,2.0,-1.0,6.0,19.0,16.0,1651067776099518.0,3
1419,-2.0,-1.0,1.0,1.0,5.0,0.0,-2.0,-4.0,1651067776099518.0,3
1420,8.0,5.0,12.0,-4.0,-15.0,-11.0,-9.0,7.0,1651067776121655.0,3
1421,0.0,-2.0,-6.0,5.0,6.0,3.0,-4.0,-8.0,1651067776121655.0,3
1422,-4.0,-4.0,-3.0,-5.0,-2.0,-5.0,0.0,3.0,1651067776122582.0,3
1423,22.0,14.0,10.0,7.0,9.0,16.0,14.0,51.0,1651067776122582.0,3
1424,-16.0,-13.0,-10.0,-5.0,-3.0,4.0,18.0,-23.0,1651067776136612.0,3
1425,-2.0,-2.0,-5.0,-9.0,-12.0,-9.0,1.0,1.0,1651067776136612.0,3
1426,7.0,1.0,-3.0,-6.0,-8.0,-3.0,-1.0,15.0,1651067776137543.0,3
1427,-14.0,-6.0,1.0,-2.0,-9.0,-13.0,-22.0,-26.0,1651067776137543.0,3
1428,-9.0,-5.0,-2.0,2.0,-8.0,-7.0,-15.0,-30.0,1651067776158705.0,3
1429,8.0,7.0,5.0,8.0,25.0,14.0,13.0,28.0,1651067776158705.0,3
1430,-5.0,-5.0,-12.0,-12.0,-15.0,-2.0,-2.0,-3.0,1651067776159636.0,3
1431,-6.0,1.0,8.0,3.0,0.0,-2.0,-4.0,-16.0,1651067776159636.0,3
1432,-2.0,-1.0,-8.0,0.0,-1.0,-9.0,-6.0,-8.0,1651067776182264.0,3
1433,-5.0,-4.0,-2.0,0.0,-5.0,12.0,1.0,-1.0,1651067776182264.0,3
1434,14.0,4.0,4.0,6.0,8.0,-9.0,-2.0,22.0,1651067776183262.0,3
1435,1.0,-2.0,-8.0,-10.0,5.0,8.0,-5.0,-6.0,1651067776183262.0,3
1436,-10.0,-9.0,-4.0,-7.0,-9.0,-6.0,-6.0,-20.0,1651067776196293.0,3
1437,-5.0,-1.0,0.0,1.0,-6.0,-3.0,2.0,-4.0,1651067776196293.0,3
1438,3.0,4.0,-1.0,0.0,7.0,5.0,1.0,2.0,1651067776197223.0,3
1439,-1.0,-6.0,-2.0,2.0,-5.0,-3.0,4.0,9.0,1651067776197223.0,3
1440,-1.0,2.0,3.0,-1.0,0.0,2.0,-7.0,0.0,1651067776219234.0,3
1441,-1.0,12.0,12.0,3.0,12.0,-6.0,-24.0,-30.0,1651067776219234.0,3
1442,7.0,-3.0,-10.0,-8.0,-13.0,6.0,26.0,36.0,1651067776219234.0,3
1443,-10.0,-4.0,-1.0,2.0,1.0,-9.0,-17.0,-38.0,1651067776219234.0,3
1444,-8.0,-15.0,-18.0,-3.0,2.0,3.0,3.0,24.0,1651067776242369.0,3
1445,4.0,2.0,1.0,0.0,-7.0,-8.0,-2.0,3.0,1651067776242369.0,3
1446,-2.0,-2.0,-2.0,-4.0,-6.0,-2.0,-6.0,-4.0,1651067776242369.0,3
1447,-2.0,0.0,-11.0,-3.0,-11.0,-11.0,-1.0,-2.0,1651067776242369.0,3
1448,6.0,13.0,26.0,19.0,33.0,20.0,1.0,4.0,1651067776256671.0,3
1449,-13.0,-18.0,-18.0,-14.0,-24.0,-18.0,-17.0,-17.0,1651067776256671.0,3
1450,0.0,0.0,-8.0,-3.0,1.0,2.0,4.0,-7.0,1651067776256671.0,3
1451,1.0,2.0,3.0,1.0,-7.0,-10.0,5.0,9.0,1651067776256671.0,3
1452,-2.0,6.0,7.0,2.0,-5.0,-1.0,-6.0,-9.0,1651067776278770.0,3
1453,2.0,-10.0,-8.0,0.0,7.0,-4.0,4.0,1.0,1651067776278770.0,3
1454,-3.0,-2.0,1.0,-4.0,-5.0,-4.0,-1.0,-2.0,1651067776279699.0,3
1455,5.0,3.0,4.0,-5.0,-8.0,0.0,6.0,14.0,1651067776279699.0,3
1456,2.0,-2.0,-11.0,1.0,2.0,1.0,15.0,7.0,1651067776302520.0,3
1457,-8.0,-7.0,-6.0,-6.0,-8.0,-4.0,-2.0,-9.0,1651067776302520.0,3
1458,-5.0,-2.0,5.0,0.0,-8.0,-2.0,-7.0,-21.0,1651067776302520.0,3
1459,15.0,10.0,5.0,10.0,16.0,11.0,9.0,39.0,1651067776302520.0,3
1460,1.0,9.0,3.0,-6.0,-7.0,-9.0,-17.0,-19.0,1651067776316722.0,3
1461,0.0,1.0,6.0,1.0,0.0,-3.0,-5.0,-3.0,1651067776316722.0,3
1462,-4.0,-3.0,-3.0,4.0,8.0,11.0,17.0,2.0,1651067776316722.0,3
1463,-19.0,-8.0,-2.0,-4.0,-1.0,-2.0,-13.0,-22.0,1651067776316722.0,3
1464,14.0,4.0,7.0,1.0,-4.0,-5.0,6.0,12.0,1651067776339366.0,3
1465,2.0,6.0,6.0,4.0,-19.0,-8.0,-1.0,19.0,1651067776339366.0,3
1466,-7.0,-2.0,2.0,2.0,13.0,8.0,-11.0,-25.0,1651067776339366.0,3
1467,1.0,4.0,2.0,-1.0,4.0,3.0,9.0,-1.0,1651067776339366.0,3
1468,-3.0,-11.0,-15.0,-3.0,-2.0,-3.0,-1.0,6.0,1651067776361475.0,3
1469,8.0,5.0,5.0,0.0,-3.0,3.0,-3.0,4.0,1651067776361475.0,3
1470,-5.0,-4.0,-2.0,1.0,-9.0,-2.0,-2.0,1.0,1651067776368458.0,3
1471,2.0,3.0,4.0,1.0,2.0,-3.0,-4.0,-6.0,1651067776368458.0,3
1472,-13.0,-5.0,3.0,2.0,4.0,7.0,-2.0,-15.0,1651067776376367.0,3
1473,1.0,2.0,3.0,11.0,17.0,2.0,2.0,-14.0,1651067776376367.0,3
1474,10.0,2.0,-3.0,-2.0,1.0,6.0,6.0,47.0,1651067776377365.0,3
1475,-16.0,-14.0,-16.0,-4.0,-5.0,-10.0,-14.0,-39.0,1651067776377365.0,3
1476,10.0,8.0,4.0,-1.0,-9.0,0.0,9.0,18.0,1651067776398358.0,3
1477,-3.0,-1.0,1.0,0.0,0.0,5.0,3.0,-8.0,1651067776398358.0,3
1478,-3.0,0.0,-2.0,-3.0,-3.0,-14.0,-21.0,-12.0,1651067776399364.0,3
1479,2.0,9.0,5.0,1.0,-17.0,2.0,21.0,3.0,1651067776399364.0,3
1480,19.0,3.0,2.0,13.0,57.0,32.0,18.0,66.0,1651067776421582.0,3
1481,-11.0,-10.0,-16.0,-13.0,-9.0,-4.0,-1.0,-31.0,1651067776421582.0,3
1482,0.0,-4.0,-1.0,-1.0,-7.0,-5.0,-3.0,9.0,1651067776421582.0,3
1483,-4.0,-6.0,-2.0,-6.0,-3.0,0.0,-8.0,-12.0,1651067776421582.0,3
1484,-10.0,-2.0,-2.0,3.0,9.0,0.0,-9.0,-23.0,1651067776436595.0,3
1485,6.0,6.0,5.0,9.0,0.0,5.0,13.0,32.0,1651067776436595.0,3
1486,-8.0,-3.0,-4.0,-5.0,-12.0,-4.0,-7.0,-21.0,1651067776437527.0,3
1487,10.0,3.0,3.0,6.0,11.0,5.0,9.0,23.0,1651067776437527.0,3
1488,7.0,3.0,3.0,-4.0,-17.0,-9.0,2.0,-1.0,1651067776458739.0,3
1489,-3.0,-10.0,-12.0,-11.0,-14.0,-8.0,-8.0,1.0,1651067776458739.0,3
1490,6.0,6.0,8.0,5.0,18.0,6.0,5.0,3.0,1651067776459673.0,3
1491,-9.0,-7.0,-5.0,10.0,28.0,12.0,-3.0,-17.0,1651067776459673.0,3
1492,-10.0,-8.0,-8.0,-12.0,-20.0,-19.0,-17.0,-26.0,1651067776481788.0,3
1493,10.0,-1.0,3.0,-4.0,-10.0,0.0,8.0,49.0,1651067776481788.0,3
1494,7.0,3.0,-1.0,-2.0,-2.0,4.0,8.0,0.0,1651067776481788.0,3
1495,7.0,2.0,-2.0,-4.0,0.0,-3.0,1.0,19.0,1651067776481788.0,3
1496,-14.0,-7.0,-7.0,0.0,4.0,6.0,-8.0,-21.0,1651067776496743.0,3
1497,1.0,9.0,6.0,11.0,10.0,-2.0,3.0,-15.0,1651067776496743.0,3
1498,-5.0,-4.0,2.0,3.0,2.0,8.0,1.0,-4.0,1651067776496743.0,3
1499,3.0,-5.0,-9.0,-12.0,-11.0,-3.0,-2.0,12.0,1651067776496743.0,3
1500,-1.0,-1.0,4.0,0.0,-10.0,-11.0,-12.0,-14.0,1651067776518678.0,3
1501,1.0,3.0,5.0,10.0,5.0,4.0,25.0,6.0,1651067776518678.0,3
1502,5.0,3.0,-6.0,-6.0,2.0,-3.0,2.0,10.0,1651067776519615.0,3
1503,-3.0,-2.0,-6.0,-4.0,-4.0,1.0,0.0,1.0,1651067776519615.0,3
1504,-4.0,-6.0,1.0,2.0,0.0,-4.0,-11.0,-12.0,1651067776541698.0,3
1505,-2.0,-2.0,-6.0,-8.0,-3.0,-3.0,-9.0,-16.0,1651067776541698.0,3
1506,-8.0,-1.0,4.0,2.0,-13.0,-5.0,1.0,-9.0,1651067776541698.0,3
1507,5.0,4.0,4.0,0.0,-2.0,-2.0,-2.0,-3.0,1651067776541698.0,3
1508,-4.0,-7.0,-11.0,-7.0,10.0,1.0,1.0,13.0,1651067776564955.0,3
1509,4.0,-4.0,1.0,0.0,-1.0,2.0,3.0,18.0,1651067776564955.0,3
1510,-3.0,0.0,-2.0,-1.0,-5.0,-9.0,-3.0,-18.0,1651067776565292.0,3
1511,-12.0,-2.0,-4.0,-8.0,-11.0,-7.0,-16.0,-18.0,1651067776565292.0,3
1512,16.0,9.0,7.0,1.0,-14.0,-5.0,7.0,7.0,1651067776579311.0,3
1513,-2.0,-1.0,1.0,-2.0,2.0,-3.0,5.0,23.0,1651067776579311.0,3
1514,-5.0,-5.0,-3.0,0.0,3.0,-4.0,-11.0,-18.0,1651067776579311.0,3
1515,-6.0,-5.0,0.0,1.0,-5.0,0.0,8.0,2.0,1651067776579311.0,3
1516,-1.0,1.0,3.0,10.0,25.0,7.0,-2.0,-8.0,1651067776601386.0,3
1517,-12.0,-17.0,-21.0,-11.0,-12.0,-7.0,-9.0,-11.0,1651067776601386.0,3
1518,5.0,5.0,-3.0,-1.0,6.0,-5.0,2.0,5.0,1651067776602328.0,3
1519,-2.0,-5.0,0.0,2.0,5.0,2.0,-1.0,10.0,1651067776602328.0,3
1520,-5.0,-2.0,-6.0,-4.0,-15.0,-6.0,3.0,-14.0,1651067776616460.0,3
1521,-3.0,2.0,4.0,-6.0,-11.0,-6.0,-8.0,-20.0,1651067776616460.0,3
1522,-1.0,-4.0,0.0,6.0,19.0,12.0,6.0,11.0,1651067776617391.0,3
1523,13.0,16.0,18.0,11.0,-2.0,-5.0,-7.0,-3.0,1651067776617391.0,3
1524,6.0,-3.0,-4.0,-19.0,-15.0,-1.0,3.0,19.0,1651067776639371.0,3
1525,-2.0,1.0,6.0,4.0,13.0,14.0,-1.0,1.0,1651067776639371.0,3
1526,3.0,0.0,3.0,1.0,5.0,3.0,1.0,3.0,1651067776639371.0,3
1527,-7.0,0.0,6.0,4.0,4.0,-2.0,-13.0,-19.0,1651067776639371.0,3
1528,0.0,2.0,-2.0,1.0,-8.0,-8.0,0.0,7.0,1651067776661441.0,3
1529,0.0,-1.0,-3.0,-5.0,-6.0,-2.0,-3.0,-11.0,1651067776661441.0,3
1530,-2.0,-1.0,2.0,-1.0,-13.0,-7.0,-1.0,1.0,1651067776662371.0,3
1531,2.0,0.0,-5.0,0.0,22.0,10.0,-1.0,-4.0,1651067776662371.0,3
1532,-8.0,1.0,3.0,0.0,-11.0,-5.0,-4.0,-14.0,1651067776676333.0,3
1533,-7.0,-3.0,-3.0,5.0,12.0,-1.0,-11.0,-19.0,1651067776676333.0,3
1534,6.0,5.0,4.0,2.0,-14.0,-2.0,8.0,18.0,1651067776677331.0,3
1535,-4.0,-5.0,-6.0,2.0,8.0,1.0,4.0,-7.0,1651067776677331.0,3
1536,-6.0,-5.0,-5.0,1.0,11.0,10.0,0.0,-1.0,1651067776698737.0,3
1537,13.0,12.0,7.0,3.0,4.0,4.0,6.0,20.0,1651067776698737.0,3
1538,-5.0,0.0,-1.0,-1.0,-2.0,0.0,-9.0,-13.0,1651067776699667.0,3
1539,-9.0,-12.0,-13.0,-13.0,-15.0,-7.0,-2.0,-1.0,1651067776699667.0,3
1540,-3.0,7.0,7.0,9.0,6.0,-1.0,-3.0,-6.0,1651067776721364.0,3
1541,8.0,5.0,0.0,-1.0,-2.0,11.0,6.0,8.0,1651067776721364.0,3
1542,-4.0,-4.0,-4.0,0.0,14.0,-2.0,-4.0,-3.0,1651067776722362.0,3
1543,1.0,2.0,2.0,-1.0,-4.0,2.0,3.0,3.0,1651067776722362.0,3
1544,-3.0,-3.0,-1.0,-1.0,-4.0,4.0,20.0,-6.0,1651067776737422.0,3
1545,-3.0,0.0,3.0,-4.0,-5.0,-9.0,-6.0,0.0,1651067776737422.0,3
1546,8.0,6.0,3.0,-1.0,-2.0,0.0,1.0,13.0,1651067776738367.0,3
1547,-2.0,-1.0,-1.0,-1.0,-4.0,0.0,-1.0,-13.0,1651067776738367.0,3
1548,2.0,3.0,6.0,-1.0,-13.0,-5.0,-8.0,8.0,1651067776758615.0,3
1549,1.0,-3.0,-6.0,-1.0,0.0,3.0,14.0,7.0,1651067776758615.0,3
1550,6.0,-6.0,-9.0,-3.0,8.0,12.0,5.0,17.0,1651067776759555.0,3
1551,-2.0,-2.0,0.0,3.0,-3.0,-4.0,1.0,3.0,1651067776759555.0,3
1552,-1.0,2.0,-3.0,-9.0,-8.0,-5.0,-2.0,0.0,1651067776781537.0,3
1553,-4.0,2.0,5.0,-1.0,-1.0,1.0,-3.0,-23.0,1651067776781537.0,3
1554,-8.0,-7.0,0.0,4.0,9.0,-1.0,-11.0,-15.0,1651067776782539.0,3
1555,2.0,2.0,-2.0,-3.0,-5.0,1.0,0.0,1.0,1651067776782539.0,3
1556,5.0,7.0,9.0,5.0,5.0,4.0,5.0,17.0,1651067776796566.0,3
1557,-6.0,-3.0,-2.0,-5.0,0.0,-6.0,-20.0,-25.0,1651067776796566.0,3
1558,3.0,3.0,0.0,-2.0,-5.0,-3.0,22.0,21.0,1651067776797497.0,3
1559,-2.0,3.0,1.0,-1.0,1.0,4.0,6.0,-6.0,1651067776797497.0,3
1560,-3.0,-4.0,3.0,-1.0,0.0,0.0,-1.0,-5.0,1651067776818621.0,3
1561,4.0,5.0,3.0,5.0,12.0,-2.0,-9.0,-6.0,1651067776818621.0,3
1562,2.0,1.0,5.0,1.0,-5.0,2.0,6.0,7.0,1651067776819552.0,3
1563,5.0,-2.0,-2.0,0.0,4.0,5.0,13.0,10.0,1651067776819552.0,3
1564,3.0,3.0,3.0,0.0,1.0,2.0,3.0,-4.0,1651067776841686.0,3
1565,-7.0,-6.0,-5.0,-2.0,-3.0,-1.0,0.0,2.0,1651067776841686.0,3
1566,6.0,1.0,-3.0,-4.0,-15.0,-6.0,-2.0,12.0,1651067776842615.0,3
1567,8.0,6.0,7.0,4.0,2.0,-5.0,-6.0,11.0,1651067776842615.0,3
1568,-7.0,-11.0,-7.0,5.0,27.0,11.0,-2.0,-13.0,1651067776856386.0,3
1569,5.0,6.0,9.0,1.0,-3.0,-4.0,-3.0,16.0,1651067776856386.0,3
1570,-12.0,-8.0,-5.0,-9.0,-14.0,-8.0,-9.0,-20.0,1651067776857316.0,3
1571,-4.0,-3.0,-5.0,-4.0,-8.0,-4.0,-2.0,-1.0,1651067776857316.0,3
1572,-4.0,-4.0,-3.0,2.0,-7.0,-10.0,-6.0,-2.0,1651067776878541.0,3
1573,1.0,-3.0,-2.0,2.0,11.0,4.0,2.0,5.0,1651067776878541.0,3
1574,-1.0,3.0,5.0,4.0,3.0,1.0,-5.0,-10.0,1651067776879472.0,3
1575,4.0,0.0,-1.0,-5.0,-3.0,-3.0,1.0,5.0,1651067776879472.0,3
1576,-4.0,-1.0,-6.0,-5.0,-3.0,-3.0,-5.0,-8.0,1651067776901687.0,3
1577,-1.0,-1.0,-2.0,0.0,0.0,4.0,9.0,-1.0,1651067776901687.0,3
1578,-1.0,4.0,4.0,1.0,-1.0,-4.0,-10.0,1.0,1651067776901687.0,3
1579,-5.0,-1.0,3.0,3.0,3.0,2.0,-8.0,-7.0,1651067776901687.0,3
1580,5.0,2.0,-1.0,-3.0,-5.0,0.0,0.0,-5.0,1651067776916418.0,3
1581,1.0,-3.0,0.0,1.0,2.0,3.0,25.0,18.0,1651067776916418.0,3
1582,7.0,3.0,1.0,0.0,3.0,-1.0,-3.0,-1.0,1651067776917353.0,3
1583,-5.0,-2.0,-1.0,-3.0,-3.0,-3.0,-8.0,-6.0,1651067776917353.0,3
1584,-2.0,-1.0,0.0,4.0,4.0,2.0,5.0,4.0,1651067776939355.0,3
1585,-6.0,-3.0,-7.0,-8.0,-10.0,-12.0,-14.0,-22.0,1651067776939355.0,3
1586,2.0,1.0,4.0,2.0,5.0,5.0,8.0,-11.0,1651067776939355.0,3
1587,1.0,0.0,-2.0,0.0,0.0,3.0,11.0,14.0,1651067776939355.0,3
1588,10.0,9.0,8.0,2.0,-3.0,0.0,-9.0,1.0,1651067776961712.0,3
1589,-6.0,-3.0,-2.0,-1.0,-1.0,0.0,5.0,2.0,1651067776961712.0,3
1590,-2.0,-4.0,-8.0,-4.0,-2.0,-1.0,-2.0,-1.0,1651067776961712.0,3
1591,0.0,0.0,-1.0,-4.0,-1.0,-2.0,-1.0,3.0,1651067776961712.0,3
1592,-3.0,0.0,-1.0,-1.0,-1.0,-2.0,1.0,-2.0,1651067776976841.0,3
1593,1.0,0.0,0.0,1.0,-2.0,1.0,-5.0,1.0,1651067776976841.0,3
1594,0.0,-1.0,-4.0,1.0,2.0,2.0,4.0,2.0,1651067776976841.0,3
1595,0.0,-2.0,-1.0,2.0,1.0,-2.0,-4.0,-4.0,1651067776976841.0,3
1596,-2.0,-4.0,-4.0,-4.0,-3.0,-6.0,-12.0,-3.0,1651067776998747.0,3
1597,4.0,1.0,2.0,1.0,0.0,5.0,7.0,4.0,1651067776998747.0,3
1598,-3.0,-3.0,-3.0,-2.0,-3.0,-1.0,-3.0,-1.0,1651067776999677.0,3
1599,-2.0,0.0,3.0,3.0,1.0,-2.0,-2.0,-4.0,1651067776999677.0,3
1600,2.0,0.0,-1.0,-1.0,-2.0,1.0,3.0,3.0,1651067777021699.0,3
1601,-4.0,-4.0,-6.0,-6.0,-4.0,-4.0,-5.0,-3.0,1651067777021699.0,3
1602,-2.0,1.0,0.0,0.0,0.0,-3.0,-1.0,-2.0,1651067777021699.0,3
1603,3.0,-1.0,2.0,2.0,1.0,1.0,2.0,0.0,1651067777021699.0,3
1604,1.0,-3.0,-6.0,-7.0,-9.0,-4.0,2.0,2.0,1651067777044114.0,3
1605,-2.0,0.0,2.0,3.0,0.0,-1.0,-4.0,-4.0,1651067777044114.0,3
1606,-2.0,-2.0,-3.0,0.0,1.0,0.0,-5.0,-3.0,1651067777045045.0,3
1607,0.0,-1.0,-4.0,0.0,1.0,4.0,-1.0,1.0,1651067777045045.0,3
1608,0.0,0.0,1.0,-1.0,-9.0,-6.0,5.0,3.0,1651067777059296.0,3
1609,-2.0,-1.0,-1.0,-1.0,-1.0,-2.0,-5.0,-3.0,1651067777059296.0,3
1610,-1.0,-1.0,-4.0,0.0,9.0,4.0,6.0,1.0,1651067777059296.0,3
1611,-4.0,-3.0,-7.0,-18.0,-6.0,-3.0,-3.0,-2.0,1651067777059296.0,3
1612,0.0,2.0,10.0,-3.0,-15.0,-7.0,-1.0,-4.0,1651067777081738.0,3
1613,1.0,2.0,3.0,0.0,4.0,0.0,-1.0,2.0,1651067777081738.0,3
1614,-2.0,-2.0,6.0,14.0,5.0,-1.0,-5.0,-2.0,1651067777081738.0,3
1615,1.0,-1.0,-2.0,-2.0,1.0,1.0,-2.0,-1.0,1651067777081738.0,3
1616,-1.0,-2.0,-8.0,-6.0,4.0,2.0,5.0,5.0,1651067777095671.0,3
1617,0.0,1.0,7.0,4.0,-3.0,0.0,-1.0,0.0,1651067777095671.0,3
1618,-1.0,0.0,-8.0,-19.0,-13.0,-4.0,-3.0,-1.0,1651067777103754.0,3
1619,-5.0,-5.0,-6.0,-1.0,4.0,-2.0,-2.0,-2.0,1651067777103754.0,3
1620,-1.0,-1.0,0.0,6.0,0.0,-3.0,-1.0,0.0,1651067777119703.0,3
1621,-1.0,-1.0,-3.0,6.0,-4.0,-6.0,-4.0,-1.0,1651067777119703.0,3
1622,1.0,2.0,5.0,4.0,1.0,3.0,3.0,2.0,1651067777119703.0,3
1623,0.0,1.0,3.0,0.0,4.0,4.0,2.0,0.0,1651067777119703.0,3
1624,-1.0,-2.0,-5.0,-10.0,-2.0,1.0,0.0,0.0,1651067777141628.0,3
1625,0.0,0.0,-14.0,5.0,11.0,4.0,0.0,-3.0,1651067777141628.0,3
1626,8.0,6.0,12.0,9.0,-4.0,-2.0,1.0,1.0,1651067777142571.0,3
1627,-5.0,7.0,6.0,3.0,-2.0,0.0,2.0,1.0,1651067777142571.0,3
1628,-1.0,1.0,10.0,-21.0,-21.0,-4.0,3.0,2.0,1651067777155693.0,3
1629,1.0,0.0,-6.0,-10.0,3.0,7.0,-4.0,-4.0,1651067777155693.0,3
1630,-4.0,0.0,18.0,50.0,16.0,3.0,-2.0,-2.0,1651067777163720.0,3
1631,23.0,11.0,-21.0,-14.0,10.0,3.0,-1.0,1.0,1651067777163720.0,3
1632,-26.0,-22.0,-12.0,49.0,31.0,6.0,1.0,-2.0,1651067777179343.0,3
1633,1.0,-5.0,-11.0,-17.0,-9.0,-9.0,0.0,6.0,1651067777179343.0,3
1634,3.0,11.0,35.0,-35.0,-35.0,-11.0,-7.0,-3.0,1651067777179343.0,3
1635,-4.0,-1.0,22.0,20.0,2.0,-2.0,-1.0,-2.0,1651067777179343.0,3
1636,8.0,9.0,-3.0,5.0,18.0,10.0,5.0,2.0,1651067777201697.0,3
1637,-2.0,-4.0,-7.0,-17.0,-14.0,-1.0,-2.0,-4.0,1651067777201697.0,3
1638,-4.0,-10.0,-24.0,5.0,6.0,-1.0,-2.0,-2.0,1651067777201697.0,3
1639,0.0,1.0,12.0,1.0,-5.0,4.0,3.0,4.0,1651067777201697.0,3
1640,1.0,-1.0,-12.0,-6.0,3.0,2.0,-2.0,-2.0,1651067777215731.0,3
1641,0.0,2.0,22.0,19.0,16.0,7.0,2.0,-1.0,1651067777215731.0,3
1642,2.0,-3.0,-26.0,-26.0,-6.0,0.0,3.0,1.0,1651067777231838.0,3
1643,-5.0,-3.0,12.0,9.0,-6.0,-3.0,-1.0,1.0,1651067777231838.0,3
1644,2.0,-3.0,-47.0,-6.0,5.0,-2.0,-6.0,-3.0,1651067777238799.0,3
1645,0.0,7.0,64.0,10.0,-2.0,0.0,-1.0,-1.0,1651067777238799.0,3
1646,-3.0,-1.0,-4.0,-3.0,5.0,4.0,2.0,1.0,1651067777239776.0,3
1647,-3.0,-9.0,-12.0,4.0,0.0,-7.0,-1.0,-2.0,1651067777239776.0,3
1648,2.0,1.0,4.0,1.0,-1.0,2.0,0.0,-1.0,1651067777261750.0,3
1649,1.0,3.0,-13.0,-11.0,-5.0,1.0,2.0,0.0,1651067777261750.0,3
1650,0.0,-1.0,-2.0,2.0,3.0,1.0,0.0,0.0,1651067777261750.0,3
1651,0.0,-1.0,4.0,8.0,-6.0,0.0,1.0,2.0,1651067777261750.0,3
1652,2.0,2.0,5.0,-18.0,-10.0,-6.0,0.0,2.0,1651067777284667.0,3
1653,-3.0,-5.0,-16.0,10.0,7.0,-3.0,-2.0,1.0,1651067777284667.0,3
1654,-1.0,1.0,6.0,-11.0,-4.0,-1.0,-1.0,-1.0,1651067777285667.0,3
1655,0.0,-2.0,1.0,-4.0,-1.0,-2.0,-1.0,-2.0,1651067777285667.0,3
1656,-2.0,-1.0,-11.0,-1.0,-4.0,-6.0,-5.0,-3.0,1651067777298692.0,3
1657,4.0,6.0,14.0,-8.0,-7.0,-3.0,5.0,5.0,1651067777298692.0,3
1658,-2.0,-4.0,-15.0,-3.0,4.0,1.0,-5.0,-2.0,1651067777299630.0,3
1659,-2.0,-3.0,-4.0,-7.0,-7.0,-4.0,-1.0,-2.0,1651067777299630.0,3
1660,2.0,-1.0,8.0,-5.0,-7.0,-3.0,-3.0,-1.0,1651067777321698.0,3
1661,0.0,-1.0,-6.0,4.0,1.0,-3.0,2.0,2.0,1651067777321698.0,3
1662,-1.0,-2.0,-7.0,6.0,0.0,-3.0,-4.0,-1.0,1651067777321698.0,3
1663,-2.0,-1.0,-4.0,-5.0,2.0,0.0,-3.0,-3.0,1651067777321698.0,3
1664,2.0,0.0,-2.0,1.0,3.0,0.0,0.0,0.0,1651067777335850.0,3
1665,-2.0,-1.0,-1.0,0.0,-8.0,-4.0,0.0,0.0,1651067777335850.0,3
1666,0.0,0.0,7.0,-2.0,-5.0,-4.0,2.0,1.0,1651067777351859.0,3
1667,-2.0,-4.0,-12.0,-13.0,-8.0,-5.0,1.0,0.0,1651067777351859.0,3
1668,1.0,5.0,25.0,11.0,7.0,0.0,1.0,1.0,1651067777358886.0,3
1669,-3.0,-4.0,-25.0,2.0,5.0,4.0,-8.0,-6.0,1651067777358886.0,3
1670,0.0,-1.0,1.0,1.0,-1.0,-5.0,3.0,1.0,1651067777359825.0,3
1671,0.0,1.0,-6.0,-3.0,-2.0,-3.0,-1.0,0.0,1651067777359825.0,3
1672,-1.0,0.0,9.0,-2.0,0.0,9.0,-1.0,-3.0,1651067777381885.0,3
1673,-2.0,-2.0,-3.0,-2.0,-3.0,0.0,-2.0,-2.0,1651067777381885.0,3
1674,-1.0,-1.0,-2.0,-1.0,-2.0,-3.0,0.0,0.0,1651067777381885.0,3
1675,2.0,3.0,3.0,3.0,3.0,2.0,2.0,0.0,1651067777381885.0,3
1676,0.0,-1.0,5.0,2.0,0.0,2.0,0.0,0.0,1651067777395871.0,3
1677,2.0,-1.0,-1.0,2.0,-7.0,-3.0,-1.0,0.0,1651067777395871.0,3
1678,0.0,-1.0,1.0,9.0,4.0,-1.0,-1.0,0.0,1651067777403887.0,3
1679,0.0,-1.0,-7.0,-9.0,0.0,-3.0,0.0,2.0,1651067777403887.0,3
1680,0.0,0.0,13.0,-5.0,-4.0,0.0,0.0,0.0,1651067777418882.0,3
1681,0.0,1.0,-7.0,1.0,1.0,1.0,-2.0,-3.0,1651067777418882.0,3
1682,-1.0,-2.0,-3.0,-5.0,0.0,3.0,-1.0,0.0,1651067777419812.0,3
1683,-1.0,-1.0,1.0,8.0,3.0,3.0,0.0,-1.0,1651067777419812.0,3
1684,1.0,-1.0,-7.0,-7.0,-6.0,-4.0,2.0,-2.0,1651067777441728.0,3
1685,-1.0,0.0,-1.0,-5.0,1.0,-3.0,-1.0,-1.0,1651067777441728.0,3
1686,0.0,1.0,1.0,9.0,1.0,2.0,0.0,-1.0,1651067777441728.0,3
1687,-3.0,-2.0,-2.0,5.0,5.0,2.0,0.0,-1.0,1651067777441728.0,3
1688,-1.0,-2.0,-3.0,2.0,-3.0,-4.0,-4.0,0.0,1651067777464929.0,3
1689,0.0,-1.0,15.0,2.0,-2.0,-2.0,3.0,3.0,1651067777464929.0,3
1690,0.0,-2.0,-3.0,-4.0,1.0,2.0,1.0,1.0,1651067777464929.0,3
1691,-1.0,-1.0,-7.0,-1.0,1.0,1.0,-2.0,-1.0,1651067777464929.0,3
1692,0.0,3.0,2.0,2.0,-1.0,-4.0,-1.0,-2.0,1651067777478891.0,3
1693,-2.0,-2.0,-10.0,-3.0,1.0,2.0,1.0,-2.0,1651067777478891.0,3
1694,1.0,0.0,2.0,-5.0,0.0,1.0,0.0,-2.0,1651067777479822.0,3
1695,1.0,-2.0,1.0,-3.0,-7.0,-3.0,-3.0,-2.0,1651067777479822.0,3
1696,2.0,-2.0,1.0,2.0,0.0,-1.0,1.0,1.0,1651067777501072.0,3
1697,0.0,-1.0,-5.0,0.0,2.0,-2.0,-3.0,0.0,1651067777501072.0,3
1698,-1.0,-3.0,0.0,-4.0,0.0,0.0,-2.0,-1.0,1651067777502080.0,3
1699,-1.0,1.0,3.0,1.0,-1.0,2.0,3.0,0.0,1651067777502080.0,3
1700,1.0,0.0,-4.0,1.0,-1.0,1.0,-1.0,0.0,1651067777524500.0,3
1701,-2.0,-3.0,-2.0,-9.0,-2.0,1.0,1.0,0.0,1651067777524500.0,3
1702,1.0,-1.0,0.0,1.0,1.0,-1.0,1.0,-3.0,1651067777525498.0,3
1703,-2.0,-3.0,-6.0,-1.0,0.0,-1.0,-3.0,-2.0,1651067777525498.0,3
1704,-1.0,0.0,12.0,2.0,-2.0,-1.0,1.0,-1.0,1651067777539460.0,3
1705,-1.0,-1.0,-1.0,3.0,1.0,1.0,1.0,0.0,1651067777539460.0,3
1706,0.0,0.0,0.0,2.0,-3.0,-2.0,0.0,1.0,1651067777539460.0,3
1707,-1.0,-1.0,2.0,-5.0,3.0,2.0,0.0,-2.0,1651067777539460.0,3
1708,0.0,0.0,-9.0,-6.0,1.0,-1.0,-1.0,0.0,1651067777561570.0,3
1709,1.0,0.0,-1.0,3.0,1.0,-2.0,-1.0,0.0,1651067777561570.0,3
1710,-1.0,0.0,2.0,3.0,-1.0,-1.0,-2.0,-1.0,1651067777562571.0,3
1711,-1.0,0.0,4.0,8.0,-1.0,-2.0,0.0,1.0,1651067777562571.0,3
1712,0.0,-1.0,1.0,-10.0,-2.0,0.0,0.0,-1.0,1651067777584751.0,3
1713,-1.0,-2.0,-3.0,-3.0,-1.0,0.0,-1.0,-1.0,1651067777584751.0,3
1714,-1.0,-2.0,-6.0,-3.0,-4.0,-3.0,-1.0,-2.0,1651067777585699.0,3
1715,0.0,-2.0,2.0,6.0,3.0,-1.0,0.0,-1.0,1651067777585699.0,3
1716,-1.0,0.0,-1.0,0.0,-3.0,-2.0,-1.0,0.0,1651067777598401.0,3
1717,0.0,1.0,-2.0,1.0,0.0,1.0,4.0,0.0,1651067777598401.0,3
1718,-1.0,-2.0,4.0,0.0,10.0,5.0,0.0,-1.0,1651067777599398.0,3
1719,1.0,-1.0,-8.0,-3.0,-3.0,-3.0,-1.0,1.0,1651067777599398.0,3
1720,-1.0,0.0,0.0,2.0,1.0,0.0,0.0,-1.0,1651067777629369.0,3
1721,-2.0,0.0,-1.0,-1.0,-3.0,-3.0,-1.0,0.0,1651067777629369.0,3
1722,-2.0,-2.0,0.0,0.0,-1.0,0.0,1.0,1.0,1651067777630394.0,3
1723,-1.0,1.0,2.0,-2.0,0.0,0.0,-1.0,0.0,1651067777630394.0,3
1724,0.0,-2.0,-4.0,-2.0,-2.0,-2.0,0.0,0.0,1651067777644396.0,3
1725,0.0,0.0,0.0,2.0,0.0,-2.0,-1.0,0.0,1651067777644396.0,3
1726,2.0,-1.0,9.0,0.0,-2.0,0.0,1.0,0.0,1651067777645326.0,3
1727,-1.0,-2.0,-24.0,-11.0,-1.0,0.0,0.0,-1.0,1651067777645326.0,3
1728,-1.0,0.0,2.0,1.0,-3.0,-2.0,-1.0,-2.0,1651067777659325.0,3
1729,0.0,-1.0,-1.0,1.0,-4.0,-3.0,-2.0,0.0,1651067777659325.0,3
1730,0.0,0.0,-9.0,-5.0,0.0,0.0,0.0,-1.0,1651067777659325.0,3
1731,0.0,-1.0,8.0,2.0,10.0,5.0,1.0,1.0,1651067777659325.0,3
1732,0.0,0.0,-1.0,2.0,-2.0,-2.0,-1.0,-1.0,1651067777681590.0,3
1733,-2.0,-3.0,-1.0,-3.0,7.0,4.0,3.0,-1.0,1651067777681590.0,3
1734,-2.0,-1.0,-9.0,1.0,-3.0,-3.0,-1.0,-1.0,1651067777682601.0,0
1735,-1.0,1.0,5.0,0.0,-8.0,-3.0,1.0,1.0,1651067777682601.0,0
1736,1.0,0.0,-2.0,-1.0,-4.0,-1.0,-1.0,0.0,1651067777704517.0,0
1737,-2.0,-2.0,10.0,3.0,-1.0,-2.0,-2.0,-2.0,1651067777704517.0,0
1738,2.0,1.0,-6.0,-4.0,-2.0,-6.0,-2.0,-1.0,1651067777705471.0,0
1739,-1.0,3.0,7.0,5.0,7.0,9.0,3.0,-1.0,1651067777705471.0,0
1740,-1.0,0.0,-2.0,-4.0,-6.0,-5.0,-3.0,-2.0,1651067777718479.0,0
1741,1.0,1.0,-4.0,1.0,-2.0,0.0,3.0,1.0,1651067777718479.0,0
1742,-1.0,0.0,15.0,8.0,-2.0,-2.0,-4.0,-4.0,1651067777719409.0,0
1743,0.0,-1.0,-5.0,-3.0,-2.0,-4.0,-3.0,-1.0,1651067777719409.0,0
1744,0.0,0.0,2.0,-3.0,-3.0,-1.0,0.0,-1.0,1651067777741673.0,0
1745,-1.0,-1.0,-6.0,-1.0,-3.0,-4.0,1.0,-3.0,1651067777741673.0,0
1746,0.0,-1.0,-1.0,-1.0,0.0,2.0,-1.0,-1.0,1651067777741673.0,0
1747,-1.0,-1.0,-1.0,-1.0,-9.0,-5.0,-2.0,-3.0,1651067777741673.0,0
1748,2.0,-1.0,3.0,3.0,12.0,7.0,2.0,-1.0,1651067777764683.0,0
1749,-1.0,-1.0,-4.0,3.0,3.0,-1.0,-2.0,-1.0,1651067777764683.0,0
1750,0.0,-2.0,-8.0,-17.0,-6.0,-1.0,0.0,0.0,1651067777765682.0,0
1751,-1.0,0.0,3.0,1.0,0.0,0.0,-2.0,-1.0,1651067777765682.0,0
1752,-1.0,0.0,-4.0,1.0,-1.0,-1.0,0.0,0.0,1651067777786516.0,0
1753,0.0,1.0,-2.0,-1.0,2.0,1.0,0.0,0.0,1651067777786516.0,0
1754,-1.0,-1.0,-4.0,-3.0,-6.0,-3.0,0.0,0.0,1651067777793535.0,0
1755,1.0,1.0,4.0,4.0,2.0,1.0,-2.0,0.0,1651067777793535.0,0
1756,-1.0,-1.0,2.0,1.0,-2.0,-1.0,-1.0,-1.0,1651067777801583.0,0
1757,0.0,-1.0,-3.0,0.0,0.0,-1.0,-6.0,-4.0,1651067777801583.0,0
1758,-1.0,0.0,4.0,0.0,2.0,1.0,1.0,0.0,1651067777802541.0,0
1759,0.0,-1.0,2.0,-1.0,-2.0,-2.0,0.0,-1.0,1651067777802541.0,0
1760,0.0,-2.0,-1.0,2.0,2.0,0.0,3.0,1.0,1651067777824170.0,0
1761,-1.0,-1.0,3.0,-2.0,-1.0,1.0,0.0,0.0,1651067777824170.0,0
1762,-1.0,-1.0,-15.0,-4.0,0.0,1.0,-2.0,-1.0,1651067777825177.0,0
1763,1.0,-1.0,-1.0,-2.0,-2.0,-1.0,-1.0,0.0,1651067777825177.0,0
1764,0.0,-1.0,1.0,7.0,5.0,0.0,0.0,0.0,1651067777839199.0,0
1765,0.0,0.0,-2.0,-7.0,-6.0,-1.0,0.0,-1.0,1651067777839199.0,0
1766,-1.0,1.0,3.0,7.0,11.0,3.0,2.0,0.0,1651067777839199.0,0
1767,0.0,1.0,0.0,-1.0,-2.0,-3.0,0.0,2.0,1651067777839199.0,0
1768,-2.0,-1.0,-5.0,-4.0,0.0,1.0,-1.0,1.0,1651067777860895.0,0
1769,1.0,1.0,2.0,0.0,-1.0,0.0,-2.0,-1.0,1651067777860895.0,0
1770,-1.0,-3.0,-5.0,-4.0,-7.0,-5.0,-3.0,1.0,1651067777861906.0,0
1771,-1.0,0.0,0.0,-2.0,1.0,0.0,0.0,0.0,1651067777861906.0,0
1772,-1.0,-1.0,4.0,13.0,16.0,7.0,-1.0,0.0,1651067777884557.0,0
1773,0.0,-1.0,0.0,-2.0,-1.0,3.0,2.0,1.0,1651067777884557.0,0
1774,1.0,-1.0,1.0,2.0,0.0,1.0,1.0,1.0,1651067777885557.0,0
1775,-3.0,-3.0,-3.0,-4.0,-7.0,-4.0,-2.0,-1.0,1651067777885557.0,0
1776,-3.0,0.0,2.0,-4.0,-8.0,-4.0,-1.0,-1.0,1651067777898590.0,0
1777,-3.0,-1.0,-1.0,1.0,1.0,0.0,-1.0,0.0,1651067777898590.0,0
1778,1.0,2.0,2.0,1.0,-2.0,-1.0,1.0,1.0,1651067777899518.0,0
1779,-1.0,-2.0,-3.0,-1.0,-1.0,0.0,-4.0,-3.0,1651067777899518.0,0
1780,0.0,-2.0,-2.0,-6.0,-10.0,-5.0,-2.0,-1.0,1651067777921744.0,0
1781,1.0,0.0,-10.0,4.0,4.0,1.0,-1.0,-1.0,1651067777921744.0,0
1782,1.0,-2.0,0.0,-6.0,10.0,6.0,5.0,1.0,1651067777921744.0,0
1783,0.0,1.0,4.0,6.0,-4.0,-4.0,1.0,-2.0,1651067777921744.0,0
1784,1.0,-1.0,-6.0,-5.0,-1.0,0.0,1.0,0.0,1651067777944518.0,0
1785,0.0,-1.0,5.0,-1.0,-5.0,-7.0,-5.0,0.0,1651067777944518.0,0
1786,-2.0,0.0,2.0,2.0,-5.0,-1.0,-1.0,1.0,1651067777945447.0,0
1787,0.0,-1.0,-4.0,-1.0,4.0,5.0,1.0,1.0,1651067777945447.0,0
1788,-3.0,-2.0,-1.0,-1.0,-3.0,-3.0,-2.0,-3.0,1651067777958481.0,0
1789,-2.0,-1.0,1.0,-2.0,-4.0,0.0,1.0,0.0,1651067777958481.0,0
1790,0.0,1.0,0.0,1.0,1.0,0.0,-1.0,-2.0,1651067777959411.0,0
1791,-1.0,0.0,1.0,-1.0,1.0,-1.0,-3.0,1.0,1651067777959411.0,0
1792,1.0,2.0,2.0,-2.0,-3.0,-3.0,-1.0,1.0,1651067777981471.0,0
1793,1.0,-1.0,-2.0,1.0,-1.0,-2.0,0.0,1.0,1651067777981471.0,0
1794,-2.0,2.0,12.0,2.0,5.0,6.0,-1.0,-1.0,1651067777982494.0,0
1795,1.0,-2.0,-5.0,-2.0,-1.0,-2.0,1.0,-1.0,1651067777982494.0,0
1796,0.0,0.0,3.0,9.0,15.0,11.0,3.0,1.0,1651067778004476.0,0
1797,-2.0,0.0,-3.0,-4.0,-1.0,-3.0,0.0,1.0,1651067778004476.0,0
1798,-2.0,-1.0,-3.0,0.0,-7.0,-6.0,-1.0,-2.0,1651067778005407.0,0
1799,0.0,0.0,-2.0,-4.0,-8.0,-4.0,-3.0,-1.0,1651067778005407.0,0
1800,1.0,0.0,1.0,0.0,-1.0,0.0,-2.0,-1.0,1651067778018440.0,0
1801,0.0,-1.0,-1.0,0.0,2.0,1.0,-1.0,0.0,1651067778018440.0,0
1802,-2.0,-1.0,-2.0,-1.0,-5.0,-4.0,-1.0,-3.0,1651067778019373.0,0
1803,-2.0,-1.0,3.0,0.0,4.0,2.0,2.0,-1.0,1651067778019373.0,0
1804,-1.0,-2.0,-1.0,-3.0,-4.0,-2.0,-2.0,-1.0,1651067778041530.0,0
1805,0.0,-1.0,1.0,0.0,2.0,2.0,0.0,1.0,1651067778041530.0,0
1806,0.0,-3.0,-5.0,-5.0,-6.0,-4.0,-2.0,-2.0,1651067778042541.0,0
1807,1.0,1.0,2.0,1.0,2.0,2.0,0.0,0.0,1651067778042541.0,0
1808,0.0,0.0,-2.0,0.0,7.0,-1.0,1.0,0.0,1651067778064798.0,0
1809,-1.0,-2.0,1.0,-2.0,-8.0,-7.0,-4.0,-3.0,1651067778064798.0,0
1810,-1.0,0.0,1.0,3.0,1.0,-1.0,-1.0,-2.0,1651067778065732.0,0
1811,0.0,-1.0,-1.0,-1.0,-2.0,-2.0,1.0,1.0,1651067778065732.0,0
1812,-1.0,1.0,-1.0,-3.0,-5.0,0.0,-1.0,-1.0,1651067778078693.0,0
1813,0.0,-3.0,-6.0,-4.0,3.0,2.0,-1.0,-1.0,1651067778078693.0,0
1814,1.0,1.0,13.0,5.0,-2.0,-3.0,0.0,0.0,1651067778086737.0,0
1815,0.0,-1.0,-20.0,-5.0,3.0,1.0,-1.0,-2.0,1651067778086737.0,0
1816,0.0,0.0,6.0,2.0,3.0,6.0,2.0,0.0,1651067778101616.0,0
1817,-1.0,-2.0,-8.0,-3.0,4.0,2.0,0.0,0.0,1651067778101616.0,0
1818,0.0,0.0,1.0,1.0,-3.0,-2.0,-1.0,-1.0,1651067778101616.0,0
1819,-1.0,-2.0,1.0,0.0,-3.0,-2.0,-2.0,0.0,1651067778101616.0,0
1820,0.0,1.0,-2.0,-3.0,-11.0,-7.0,-2.0,-1.0,1651067778124075.0,0
1821,0.0,2.0,6.0,2.0,-5.0,1.0,1.0,1.0,1651067778124075.0,0
1822,0.0,-2.0,-9.0,-1.0,6.0,2.0,0.0,1.0,1651067778125070.0,0
1823,0.0,1.0,3.0,2.0,-5.0,-1.0,0.0,0.0,1651067778125070.0,0
1824,-1.0,-2.0,-1.0,-1.0,-3.0,-4.0,-2.0,1.0,1651067778138102.0,0
1825,0.0,1.0,3.0,2.0,0.0,0.0,0.0,-1.0,1651067778138102.0,0
1826,-1.0,-1.0,-4.0,-4.0,-5.0,-4.0,-1.0,0.0,1651067778146042.0,0
1827,0.0,3.0,10.0,7.0,0.0,-1.0,-1.0,-2.0,1651067778146042.0,0
1828,-1.0,-3.0,-21.0,-13.0,-1.0,1.0,-1.0,0.0,1651067778161278.0,0
1829,-2.0,-1.0,-1.0,-1.0,-1.0,0.0,-2.0,-2.0,1651067778161278.0,0
1830,-1.0,0.0,-1.0,1.0,2.0,0.0,0.0,0.0,1651067778162209.0,0
1831,-1.0,-3.0,3.0,2.0,4.0,-1.0,-1.0,0.0,1651067778162209.0,0
1832,-2.0,0.0,2.0,0.0,-2.0,0.0,1.0,0.0,1651067778184560.0,0
1833,0.0,3.0,2.0,0.0,0.0,0.0,1.0,-1.0,1651067778184560.0,0
1834,0.0,-1.0,-6.0,-2.0,8.0,6.0,3.0,0.0,1651067778185489.0,0
1835,-1.0,-2.0,-3.0,-2.0,-1.0,-2.0,-1.0,0.0,1651067778185489.0,0
1836,0.0,1.0,2.0,-1.0,-3.0,-3.0,-3.0,1.0,1651067778198203.0,0
1837,-1.0,-2.0,-3.0,-4.0,-3.0,-4.0,-1.0,-1.0,1651067778198203.0,0
1838,1.0,-2.0,6.0,3.0,-1.0,-4.0,-1.0,1.0,1651067778206451.0,0
1839,1.0,-1.0,-5.0,-5.0,-1.0,5.0,0.0,-1.0,1651067778206451.0,0
1840,0.0,-1.0,2.0,2.0,-1.0,-2.0,0.0,-1.0,1651067778229411.0,0
1841,1.0,-2.0,-1.0,0.0,2.0,-4.0,-3.0,0.0,1651067778229411.0,0
1842,0.0,-1.0,-5.0,-2.0,-3.0,-2.0,-2.0,-3.0,1651067778230357.0,0
1843,-1.0,-1.0,4.0,3.0,9.0,2.0,0.0,1.0,1651067778230357.0,0
1844,-1.0,0.0,-6.0,-2.0,7.0,12.0,2.0,1.0,1651067778244956.0,0
1845,0.0,-1.0,2.0,-1.0,-2.0,-1.0,2.0,-2.0,1651067778244956.0,0
1846,-2.0,-1.0,-2.0,-2.0,-5.0,-2.0,0.0,-1.0,1651067778245378.0,0
1847,0.0,0.0,2.0,-3.0,-5.0,-3.0,-2.0,0.0,1651067778245378.0,0
1848,0.0,-1.0,1.0,0.0,-4.0,-4.0,-1.0,-1.0,1651067778258354.0,0
1849,0.0,-2.0,-1.0,1.0,2.0,2.0,2.0,1.0,1651067778258354.0,0
1850,-2.0,1.0,-1.0,-1.0,0.0,2.0,-1.0,0.0,1651067778266379.0,0
1851,-1.0,-1.0,-2.0,-1.0,-3.0,-5.0,1.0,0.0,1651067778266379.0,0
1852,-1.0,-1.0,2.0,2.0,3.0,-4.0,-2.0,-1.0,1651067778281002.0,0
1853,-1.0,0.0,0.0,-1.0,-4.0,-3.0,-3.0,-1.0,1651067778281002.0,0
1854,0.0,-1.0,-3.0,-1.0,1.0,7.0,2.0,1.0,1651067778281999.0,0
1855,1.0,0.0,4.0,3.0,-3.0,-1.0,1.0,0.0,1651067778281999.0,0
1856,-2.0,0.0,-1.0,-1.0,-8.0,-5.0,-1.0,-2.0,1651067778304931.0,0
1857,0.0,0.0,0.0,0.0,2.0,3.0,-1.0,0.0,1651067778304931.0,0
1858,1.0,-1.0,-1.0,3.0,10.0,2.0,-2.0,-1.0,1651067778305405.0,0
1859,0.0,0.0,0.0,-2.0,-1.0,-1.0,-1.0,-1.0,1651067778305405.0,0
1860,0.0,-1.0,0.0,-1.0,-2.0,0.0,2.0,1.0,1651067778318314.0,0
1861,-3.0,0.0,-2.0,-5.0,-9.0,-6.0,-2.0,0.0,1651067778318314.0,0
1862,-1.0,-1.0,-1.0,1.0,10.0,2.0,1.0,0.0,1651067778326390.0,0
1863,0.0,-1.0,-4.0,0.0,-3.0,1.0,3.0,0.0,1651067778326390.0,0
1864,-1.0,-1.0,4.0,0.0,-3.0,-8.0,-4.0,-2.0,1651067778341623.0,0
1865,-1.0,-3.0,-2.0,0.0,0.0,2.0,1.0,2.0,1651067778341623.0,0
1866,1.0,-1.0,1.0,0.0,2.0,3.0,-1.0,-2.0,1651067778341623.0,0
1867,-1.0,2.0,0.0,-4.0,-7.0,-3.0,-2.0,-1.0,1651067778341623.0,0
1868,1.0,-1.0,-1.0,2.0,-2.0,0.0,1.0,-1.0,1651067778364555.0,0
1869,0.0,1.0,0.0,3.0,9.0,7.0,1.0,1.0,1651067778364555.0,0
1870,-1.0,0.0,1.0,-2.0,-7.0,-7.0,-3.0,-2.0,1651067778365618.0,0
1871,0.0,-3.0,-2.0,-2.0,3.0,-2.0,-2.0,-1.0,1651067778365618.0,0
1872,0.0,0.0,-7.0,-3.0,-7.0,-4.0,1.0,-1.0,1651067778378261.0,0
1873,-1.0,1.0,6.0,4.0,-1.0,-2.0,2.0,-2.0,1651067778378261.0,0
1874,0.0,0.0,0.0,0.0,7.0,6.0,2.0,2.0,1651067778386482.0,0
1875,-3.0,-3.0,-7.0,-3.0,-6.0,-2.0,-2.0,-1.0,1651067778386482.0,0
1876,-1.0,-1.0,11.0,3.0,10.0,2.0,-1.0,-1.0,1651067778401885.0,0
1877,0.0,0.0,-5.0,-1.0,2.0,-3.0,-1.0,0.0,1651067778401885.0,0
1878,-1.0,1.0,0.0,-2.0,-13.0,-6.0,-1.0,-2.0,1651067778401885.0,0
1879,1.0,1.0,-1.0,-1.0,-1.0,-1.0,0.0,0.0,1651067778401885.0,0
1880,0.0,0.0,9.0,6.0,1.0,5.0,0.0,0.0,1651067778425466.0,0
1881,-1.0,-1.0,-19.0,-8.0,-1.0,-2.0,-2.0,-1.0,1651067778425466.0,0
1882,0.0,-1.0,4.0,-1.0,-7.0,-5.0,0.0,1.0,1651067778425534.0,0
1883,-1.0,-2.0,-3.0,0.0,2.0,0.0,1.0,-1.0,1651067778425534.0,0
1884,0.0,0.0,-1.0,-5.0,0.0,0.0,0.0,-1.0,1651067778446669.0,0
1885,0.0,0.0,5.0,-1.0,-4.0,-5.0,-3.0,-1.0,1651067778446669.0,0
1886,-1.0,-2.0,-6.0,-3.0,-11.0,-3.0,-2.0,-1.0,1651067778447674.0,0
1887,1.0,2.0,2.0,5.0,17.0,10.0,2.0,1.0,1651067778447674.0,0
1888,-1.0,2.0,-3.0,1.0,-1.0,-4.0,-4.0,2.0,1651067778461721.0,0
1889,1.0,1.0,3.0,1.0,14.0,16.0,8.0,1.0,1651067778461721.0,0
1890,-1.0,3.0,0.0,-1.0,-9.0,-9.0,0.0,-1.0,1651067778461721.0,0
1891,-3.0,-3.0,0.0,-3.0,-4.0,-3.0,-2.0,-3.0,1651067778461721.0,0
1892,-1.0,-2.0,-4.0,-6.0,-8.0,-7.0,-4.0,0.0,1651067778484575.0,0
1893,0.0,-2.0,-2.0,1.0,-8.0,-7.0,-4.0,-2.0,1651067778484575.0,0
1894,1.0,-2.0,-3.0,-1.0,3.0,4.0,2.0,-1.0,1651067778485591.0,0
1895,1.0,2.0,4.0,9.0,13.0,16.0,4.0,1.0,1651067778485591.0,0
1896,-2.0,-1.0,-3.0,-6.0,-6.0,-1.0,0.0,-2.0,1651067778507488.0,0
1897,-2.0,-4.0,-5.0,-5.0,-11.0,-7.0,-2.0,-2.0,1651067778507488.0,0
1898,1.0,2.0,6.0,1.0,11.0,2.0,0.0,2.0,1651067778507488.0,0
1899,-2.0,-2.0,-5.0,-4.0,-13.0,-9.0,-1.0,0.0,1651067778507488.0,0
1900,-1.0,0.0,-1.0,3.0,4.0,4.0,0.0,0.0,1651067778521645.0,0
1901,0.0,-2.0,-1.0,-1.0,-2.0,-2.0,-3.0,-1.0,1651067778521645.0,0
1902,-1.0,2.0,2.0,0.0,-9.0,-3.0,-3.0,-2.0,1651067778521645.0,0
1903,-1.0,1.0,0.0,-3.0,7.0,5.0,2.0,2.0,1651067778521645.0,0
1904,-1.0,0.0,-3.0,0.0,-3.0,0.0,1.0,0.0,1651067778544679.0,0
1905,0.0,0.0,5.0,5.0,12.0,-2.0,-4.0,-2.0,1651067778544679.0,0
1906,1.0,-3.0,-5.0,0.0,3.0,2.0,0.0,0.0,1651067778545726.0,0
1907,-1.0,-4.0,-4.0,-12.0,-10.0,-10.0,-5.0,-2.0,1651067778545726.0,0
1908,-1.0,1.0,-1.0,5.0,1.0,1.0,1.0,0.0,1651067778566732.0,0
1909,-1.0,0.0,3.0,1.0,0.0,-1.0,-1.0,-1.0,1651067778566732.0,0
1910,-1.0,-1.0,-1.0,-4.0,-6.0,-2.0,-2.0,-2.0,1651067778567706.0,0
1911,2.0,4.0,13.0,10.0,0.0,2.0,1.0,0.0,1651067778567706.0,0
1912,-3.0,-9.0,-11.0,-6.0,-8.0,-5.0,-2.0,-5.0,1651067778581737.0,0
1913,1.0,1.0,-1.0,2.0,15.0,13.0,4.0,1.0,1651067778581737.0,0
1914,1.0,3.0,5.0,-1.0,-7.0,-2.0,-1.0,-1.0,1651067778581737.0,0
1915,0.0,-1.0,-2.0,4.0,22.0,12.0,3.0,2.0,1651067778581737.0,0
1916,4.0,7.0,13.0,7.0,6.0,-1.0,-3.0,1.0,1651067778604290.0,0
1917,-3.0,-10.0,-22.0,-15.0,-16.0,-3.0,-2.0,-3.0,1651067778604290.0,0
1918,-1.0,3.0,14.0,13.0,-8.0,-6.0,-3.0,-1.0,1651067778604290.0,0
1919,-3.0,-3.0,-11.0,-6.0,1.0,4.0,-1.0,-4.0,1651067778604290.0,0
1920,-3.0,-5.0,-16.0,-17.0,-9.0,-12.0,-4.0,-1.0,1651067778627458.0,0
