,EMG_s0,EMG_s1,EMG_s2,EMG_s3,EMG_s4,EMG_s5,EMG_s6,EMG_s7,timestamp,signal
0,0.0,0.0,-2.0,1.0,-2.0,-1.0,1.0,0.0,1651067682005171.0,0
1,0.0,-2.0,2.0,1.0,-3.0,-5.0,-3.0,-3.0,1651067682005171.0,0
2,1.0,-1.0,-4.0,-2.0,1.0,-1.0,-3.0,0.0,1651067682005305.0,0
3,0.0,1.0,11.0,2.0,-4.0,-2.0,-1.0,1.0,1651067682005305.0,0
4,1.0,-1.0,-4.0,-1.0,5.0,1.0,-2.0,1.0,1651067682019386.0,0
5,-2.0,1.0,-2.0,-1.0,-5.0,-3.0,1.0,3.0,1651067682019386.0,0
6,0.0,1.0,1.0,3.0,10.0,6.0,1.0,-2.0,1651067682019386.0,0
7,1.0,-1.0,0.0,2.0,-3.0,-2.0,0.0,0.0,1651067682019386.0,0
8,0.0,-1.0,-2.0,-1.0,1.0,0.0,0.0,0.0,1651067682042053.0,0
9,0.0,0.0,-3.0,0.0,-6.0,-6.0,-1.0,-2.0,1651067682042053.0,0
10,-2.0,-3.0,-3.0,-1.0,-3.0,-2.0,-1.0,2.0,1651067682042053.0,0
11,-3.0,0.0,-2.0,0.0,10.0,8.0,-1.0,-1.0,1651067682042053.0,0
12,-1.0,1.0,8.0,0.0,-6.0,-4.0,-2.0,-1.0,1651067682065127.0,0
13,0.0,0.0,-3.0,-4.0,2.0,3.0,0.0,1.0,1651067682065127.0,0
14,-3.0,-1.0,2.0,-3.0,-10.0,-6.0,-1.0,-1.0,1651067682065127.0,0
15,0.0,-2.0,-11.0,-2.0,2.0,2.0,2.0,-1.0,1651067682065127.0,0
16,-1.0,-1.0,12.0,4.0,1.0,-1.0,-2.0,0.0,1651067682079147.0,0
17,0.0,-1.0,-1.0,0.0,-5.0,-2.0,-1.0,-1.0,1651067682079147.0,0
18,3.0,3.0,-1.0,-1.0,4.0,0.0,-1.0,-1.0,1651067682080078.0,0
19,0.0,-2.0,-1.0,1.0,10.0,1.0,-1.0,-1.0,1651067682080078.0,0
20,-2.0,0.0,-5.0,-2.0,1.0,3.0,0.0,0.0,1651067682101224.0,0
21,-1.0,0.0,2.0,2.0,1.0,-2.0,-1.0,0.0,1651067682101224.0,0
22,-2.0,-1.0,1.0,1.0,-1.0,5.0,2.0,0.0,1651067682102223.0,0
23,-1.0,0.0,-4.0,-3.0,-3.0,-5.0,-1.0,0.0,1651067682102223.0,0
24,1.0,-2.0,-2.0,-2.0,-2.0,-2.0,0.0,-2.0,1651067682124922.0,0
25,-2.0,-1.0,-1.0,-3.0,-2.0,-4.0,-2.0,-2.0,1651067682124922.0,0
26,-1.0,0.0,-2.0,-2.0,-8.0,-1.0,-1.0,1.0,1651067682125294.0,0
27,0.0,0.0,0.0,2.0,10.0,10.0,2.0,0.0,1651067682125294.0,0
28,-2.0,-1.0,2.0,0.0,1.0,-1.0,-1.0,0.0,1651067682139544.0,0
29,0.0,0.0,2.0,1.0,-2.0,0.0,0.0,0.0,1651067682139544.0,0
30,0.0,-2.0,-5.0,1.0,1.0,-1.0,0.0,0.0,1651067682139544.0,0
31,-2.0,0.0,0.0,-2.0,-7.0,-5.0,-2.0,-1.0,1651067682139544.0,0
32,0.0,1.0,-1.0,-1.0,0.0,-1.0,0.0,-1.0,1651067682161423.0,0
33,-1.0,1.0,3.0,1.0,0.0,2.0,0.0,-2.0,1651067682161423.0,0
34,-1.0,-2.0,1.0,3.0,4.0,2.0,0.0,-1.0,1651067682162423.0,0
35,-1.0,0.0,-2.0,-2.0,-6.0,-2.0,0.0,1.0,1651067682162423.0,0
36,1.0,-3.0,-3.0,1.0,0.0,-1.0,0.0,0.0,1651067682184432.0,0
37,1.0,0.0,-2.0,-3.0,-3.0,-2.0,0.0,-2.0,1651067682184432.0,0
38,-2.0,0.0,2.0,-3.0,-1.0,-2.0,1.0,0.0,1651067682185363.0,0
39,-1.0,0.0,0.0,-1.0,-3.0,-1.0,1.0,2.0,1651067682185363.0,0
40,-1.0,-1.0,0.0,-4.0,-8.0,-5.0,-3.0,0.0,1651067682198449.0,0
41,0.0,-1.0,-5.0,3.0,11.0,6.0,0.0,0.0,1651067682198449.0,0
42,-1.0,0.0,0.0,-2.0,-7.0,-3.0,-1.0,-2.0,1651067682223382.0,0
43,1.0,0.0,0.0,1.0,1.0,0.0,-2.0,-2.0,1651067682223382.0,0
44,-1.0,1.0,-4.0,-2.0,-5.0,-3.0,2.0,1.0,1651067682224392.0,0
45,0.0,-1.0,-1.0,0.0,4.0,2.0,-2.0,-1.0,1651067682224392.0,0
46,-1.0,-1.0,-2.0,-1.0,-1.0,-2.0,-2.0,-1.0,1651067682225406.0,0
47,0.0,1.0,-2.0,-1.0,-6.0,-5.0,-3.0,0.0,1651067682225406.0,0
48,-2.0,-2.0,-5.0,-1.0,2.0,1.0,-1.0,-3.0,1651067682245171.0,0
49,0.0,-2.0,4.0,1.0,-3.0,0.0,0.0,1.0,1651067682245171.0,0
50,-1.0,-1.0,4.0,1.0,-1.0,-4.0,-1.0,-1.0,1651067682245293.0,0
51,-1.0,-1.0,-5.0,-3.0,-4.0,-2.0,2.0,1.0,1651067682245293.0,0
52,-1.0,0.0,-2.0,2.0,10.0,0.0,0.0,-2.0,1651067682258330.0,0
53,0.0,3.0,3.0,3.0,1.0,4.0,2.0,1.0,1651067682258330.0,0
54,1.0,-1.0,-1.0,-2.0,-1.0,-2.0,0.0,0.0,1651067682266306.0,0
55,-1.0,-3.0,3.0,1.0,2.0,2.0,-1.0,-1.0,1651067682266306.0,0
56,0.0,-1.0,0.0,-2.0,-1.0,-1.0,0.0,-1.0,1651067682281711.0,0
57,-1.0,-2.0,2.0,0.0,-6.0,-3.0,-3.0,1.0,1651067682281711.0,0
58,-1.0,0.0,-5.0,-6.0,-2.0,-2.0,-1.0,-1.0,1651067682282788.0,0
59,0.0,0.0,0.0,2.0,3.0,1.0,2.0,-1.0,1651067682282788.0,0
60,-2.0,-1.0,-3.0,0.0,0.0,3.0,1.0,-1.0,1651067682305297.0,0
61,0.0,0.0,-1.0,-1.0,-4.0,-1.0,0.0,1.0,1651067682305297.0,0
62,0.0,0.0,3.0,1.0,3.0,3.0,0.0,-1.0,1651067682305297.0,0
63,0.0,-1.0,1.0,-3.0,-2.0,-1.0,-2.0,-2.0,1651067682305297.0,0
64,1.0,-1.0,-4.0,0.0,2.0,5.0,0.0,-1.0,1651067682318285.0,0
65,0.0,0.0,-3.0,-2.0,-8.0,-8.0,0.0,-1.0,1651067682318285.0,0
66,-1.0,-1.0,-4.0,0.0,1.0,2.0,0.0,1.0,1651067682326312.0,0
67,1.0,0.0,0.0,-2.0,0.0,-3.0,-2.0,0.0,1651067682326312.0,0
68,1.0,1.0,0.0,-1.0,-5.0,-2.0,-2.0,0.0,1651067682341423.0,0
69,-2.0,-3.0,-6.0,0.0,5.0,3.0,-1.0,0.0,1651067682341423.0,0
70,0.0,-2.0,0.0,-1.0,0.0,0.0,-1.0,-2.0,1651067682342361.0,0
71,0.0,0.0,1.0,1.0,1.0,-1.0,-2.0,0.0,1651067682342361.0,0
72,0.0,-2.0,-1.0,-1.0,-4.0,0.0,1.0,0.0,1651067682364533.0,0
73,-1.0,2.0,2.0,-2.0,-1.0,-1.0,-1.0,-1.0,1651067682364533.0,0
74,-4.0,-1.0,-1.0,-1.0,-6.0,-2.0,-1.0,-1.0,1651067682365462.0,0
75,0.0,-2.0,0.0,1.0,1.0,3.0,0.0,-2.0,1651067682365462.0,0
76,0.0,0.0,-1.0,0.0,-1.0,-2.0,-2.0,1.0,1651067682378423.0,0
77,-2.0,-3.0,-3.0,-5.0,-1.0,-2.0,-1.0,-1.0,1651067682378423.0,0
78,1.0,1.0,-4.0,1.0,5.0,2.0,1.0,0.0,1651067682386403.0,0
79,-1.0,2.0,6.0,-5.0,-8.0,-5.0,-3.0,-1.0,1651067682386403.0,0
80,-3.0,-4.0,-8.0,-2.0,2.0,3.0,-2.0,0.0,1651067682409469.0,0
81,1.0,0.0,-2.0,-1.0,-3.0,-3.0,-1.0,-1.0,1651067682409469.0,0
82,1.0,2.0,4.0,0.0,-2.0,1.0,0.0,0.0,1651067682410436.0,0
83,-1.0,0.0,5.0,2.0,-1.0,-2.0,2.0,0.0,1651067682410436.0,0
84,-1.0,0.0,-4.0,-1.0,5.0,1.0,0.0,-1.0,1651067682424550.0,0
85,-1.0,-1.0,-1.0,0.0,5.0,2.0,0.0,-3.0,1651067682424550.0,0
86,-2.0,-2.0,1.0,-1.0,-2.0,-5.0,-3.0,-2.0,1651067682425550.0,0
87,0.0,0.0,-5.0,-3.0,-5.0,-2.0,0.0,0.0,1651067682425550.0,0
88,-1.0,-2.0,3.0,0.0,-2.0,-6.0,-2.0,-1.0,1651067682438516.0,0
89,0.0,0.0,-1.0,0.0,-4.0,-3.0,-1.0,1.0,1651067682438516.0,0
90,1.0,0.0,0.0,0.0,4.0,4.0,2.0,2.0,1651067682446670.0,0
91,0.0,-1.0,2.0,0.0,-4.0,-3.0,-1.0,0.0,1651067682446670.0,0
92,1.0,1.0,-1.0,1.0,1.0,4.0,2.0,0.0,1651067682462023.0,0
93,0.0,1.0,-6.0,-2.0,-1.0,2.0,1.0,0.0,1651067682462023.0,0
94,-1.0,0.0,8.0,0.0,-2.0,-3.0,0.0,1.0,1651067682462023.0,0
95,-1.0,-1.0,-6.0,-3.0,1.0,-1.0,0.0,-2.0,1651067682462023.0,0
96,0.0,1.0,2.0,3.0,7.0,6.0,2.0,-1.0,1651067682484099.0,0
97,-1.0,0.0,4.0,1.0,-2.0,-3.0,0.0,-2.0,1651067682484099.0,0
98,-3.0,0.0,2.0,3.0,0.0,1.0,2.0,-1.0,1651067682492096.0,0
99,-1.0,-1.0,-2.0,-3.0,-6.0,0.0,-1.0,-1.0,1651067682492096.0,0
100,-1.0,-2.0,-1.0,-3.0,-2.0,-2.0,1.0,1.0,1651067682507125.0,0
101,0.0,-1.0,-2.0,-1.0,1.0,0.0,-1.0,-1.0,1651067682507125.0,0
102,1.0,0.0,-2.0,-1.0,-1.0,0.0,-2.0,-1.0,1651067682508056.0,0
103,1.0,2.0,6.0,5.0,3.0,1.0,1.0,-2.0,1651067682508056.0,0
104,-2.0,-1.0,-6.0,-3.0,0.0,-2.0,-1.0,-1.0,1651067682530170.0,0
105,0.0,-1.0,0.0,0.0,-2.0,1.0,0.0,1.0,1651067682530170.0,0
106,-1.0,-1.0,-1.0,-2.0,-2.0,3.0,1.0,-2.0,1651067682530170.0,0
107,-1.0,-2.0,-6.0,-1.0,-5.0,0.0,-1.0,0.0,1651067682530170.0,0
108,2.0,-1.0,-3.0,1.0,12.0,-3.0,0.0,1.0,1651067682544489.0,0
109,0.0,-1.0,10.0,-2.0,-3.0,-3.0,1.0,0.0,1651067682544489.0,0
110,-1.0,-2.0,-4.0,-2.0,-5.0,-4.0,-3.0,0.0,1651067682544489.0,0
111,-3.0,0.0,-1.0,1.0,8.0,4.0,1.0,0.0,1651067682544489.0,0
112,0.0,2.0,1.0,-3.0,-9.0,-3.0,-1.0,-2.0,1651067682558407.0,0
113,-2.0,-3.0,-4.0,-2.0,-2.0,-3.0,-2.0,1.0,1651067682558407.0,0
114,0.0,2.0,0.0,1.0,2.0,-1.0,0.0,-1.0,1651067682566413.0,0
115,0.0,0.0,0.0,-2.0,-5.0,-3.0,1.0,2.0,1651067682566413.0,0
116,-2.0,-2.0,0.0,0.0,-2.0,-2.0,-2.0,0.0,1651067682581533.0,0
117,-1.0,3.0,5.0,4.0,7.0,3.0,-1.0,-1.0,1651067682581533.0,0
118,0.0,-1.0,0.0,-2.0,-5.0,-2.0,0.0,-1.0,1651067682582480.0,0
119,0.0,-3.0,-6.0,-2.0,3.0,3.0,3.0,1.0,1651067682582480.0,0
120,0.0,1.0,3.0,1.0,-3.0,-3.0,-2.0,-1.0,1651067682603475.0,0
121,0.0,-1.0,-1.0,2.0,3.0,6.0,2.0,-1.0,1651067682603475.0,0
122,0.0,-2.0,-6.0,0.0,-2.0,-3.0,-2.0,0.0,1651067682612391.0,0
123,-1.0,0.0,2.0,0.0,-5.0,-2.0,-1.0,0.0,1651067682612391.0,0
124,0.0,0.0,6.0,4.0,4.0,-2.0,0.0,1.0,1651067682627387.0,0
125,-1.0,0.0,-7.0,-6.0,-5.0,-3.0,-1.0,0.0,1651067682627387.0,0
126,1.0,1.0,3.0,1.0,0.0,1.0,-2.0,-2.0,1651067682628355.0,0
127,-1.0,-1.0,-3.0,-1.0,4.0,-1.0,1.0,-1.0,1651067682628355.0,0
128,1.0,0.0,-1.0,-3.0,-10.0,-1.0,-3.0,0.0,1651067682649716.0,0
129,0.0,2.0,8.0,2.0,-4.0,-2.0,-2.0,0.0,1651067682649716.0,0
130,-2.0,-3.0,-1.0,1.0,5.0,1.0,1.0,-1.0,1651067682651746.0,0
131,0.0,-3.0,-5.0,-4.0,-3.0,-3.0,-1.0,-1.0,1651067682651746.0,0
132,0.0,0.0,0.0,-2.0,0.0,2.0,0.0,-2.0,1651067682663785.0,0
133,-3.0,-3.0,-4.0,0.0,2.0,2.0,-1.0,0.0,1651067682663785.0,0
134,0.0,0.0,0.0,-2.0,-4.0,-1.0,-1.0,-1.0,1651067682672161.0,0
135,-1.0,-3.0,0.0,1.0,-2.0,-5.0,-5.0,-2.0,1651067682672161.0,0
136,-2.0,0.0,0.0,1.0,2.0,2.0,0.0,-2.0,1651067682687018.0,0
137,1.0,-2.0,-7.0,-5.0,-2.0,-5.0,-1.0,-1.0,1651067682687018.0,0
138,0.0,2.0,5.0,2.0,2.0,2.0,-1.0,-1.0,1651067682689044.0,0
139,-1.0,-1.0,-4.0,-1.0,2.0,2.0,0.0,0.0,1651067682689044.0,0
140,-1.0,0.0,0.0,-3.0,-6.0,-2.0,1.0,0.0,1651067682709429.0,0
141,0.0,1.0,0.0,1.0,10.0,6.0,1.0,1.0,1651067682709429.0,0
142,-1.0,-3.0,-7.0,-2.0,3.0,-1.0,-3.0,-2.0,1651067682711356.0,0
143,-2.0,1.0,2.0,0.0,0.0,-3.0,-1.0,-2.0,1651067682711356.0,0
144,0.0,-1.0,-5.0,-1.0,-10.0,0.0,-2.0,-1.0,1651067682723444.0,0
145,-1.0,-1.0,2.0,-1.0,0.0,0.0,0.0,-1.0,1651067682723444.0,0
146,0.0,-1.0,-1.0,0.0,1.0,1.0,0.0,1.0,1651067682732682.0,0
147,0.0,0.0,3.0,-3.0,-6.0,-1.0,-3.0,0.0,1651067682732682.0,0
148,-2.0,-1.0,1.0,-1.0,2.0,-2.0,1.0,0.0,1651067682746899.0,0
149,-2.0,-1.0,-2.0,-2.0,-9.0,-7.0,-3.0,-1.0,1651067682746899.0,0
150,-1.0,-2.0,-2.0,-2.0,0.0,2.0,1.0,-1.0,1651067682748826.0,0
151,-2.0,0.0,-1.0,0.0,-9.0,-2.0,0.0,-2.0,1651067682748826.0,0
152,1.0,2.0,1.0,4.0,16.0,9.0,1.0,2.0,1651067682770556.0,0
153,2.0,0.0,0.0,-3.0,-1.0,-1.0,1.0,0.0,1651067682770556.0,0
154,0.0,0.0,-1.0,-4.0,-5.0,-3.0,-1.0,0.0,1651067682771557.0,0
155,0.0,-3.0,-3.0,3.0,6.0,4.0,1.0,0.0,1651067682771557.0,0
156,0.0,-1.0,1.0,-3.0,-3.0,-2.0,-1.0,-1.0,1651067682783583.0,0
157,-1.0,-3.0,-3.0,1.0,2.0,-2.0,-1.0,-1.0,1651067682783583.0,0
158,-1.0,-1.0,11.0,-1.0,-8.0,-5.0,-1.0,0.0,1651067682792454.0,0
159,-2.0,-2.0,-7.0,-3.0,-1.0,-2.0,-1.0,0.0,1651067682792454.0,0
160,0.0,2.0,4.0,2.0,4.0,-1.0,0.0,-1.0,1651067682807721.0,0
161,1.0,-1.0,-5.0,-2.0,-1.0,0.0,1.0,-1.0,1651067682807721.0,0
162,-1.0,0.0,-1.0,-2.0,0.0,-2.0,0.0,-1.0,1651067682808650.0,0
163,0.0,0.0,-1.0,-2.0,1.0,0.0,-1.0,0.0,1651067682808650.0,0
164,-2.0,-3.0,1.0,1.0,-3.0,0.0,0.0,0.0,1651067682829423.0,0
165,-1.0,-1.0,-3.0,-3.0,-3.0,-4.0,-1.0,-3.0,1651067682829423.0,0
166,-1.0,-1.0,-3.0,0.0,1.0,4.0,-1.0,0.0,1651067682831354.0,0
167,0.0,0.0,1.0,1.0,0.0,-1.0,1.0,1.0,1651067682831354.0,0
168,-1.0,-1.0,-5.0,1.0,2.0,-1.0,-2.0,0.0,1651067682843845.0,0
169,-2.0,1.0,2.0,-4.0,-15.0,-6.0,-2.0,-1.0,1651067682843845.0,0
170,1.0,-1.0,-5.0,1.0,10.0,6.0,1.0,0.0,1651067682852374.0,0
171,0.0,-2.0,3.0,0.0,-4.0,-4.0,-2.0,-2.0,1651067682852374.0,0
172,-1.0,-1.0,1.0,-3.0,-2.0,-2.0,1.0,-2.0,1651067682867629.0,0
173,-1.0,-2.0,1.0,1.0,-1.0,-2.0,0.0,0.0,1651067682867629.0,0
174,0.0,-1.0,-3.0,2.0,2.0,-1.0,-1.0,-1.0,1651067682868625.0,0
175,-1.0,0.0,-2.0,-5.0,-3.0,0.0,-2.0,-1.0,1651067682868625.0,0
176,1.0,0.0,8.0,6.0,4.0,3.0,0.0,-1.0,1651067682889839.0,0
177,-1.0,-3.0,-8.0,-3.0,2.0,1.0,-3.0,0.0,1651067682889839.0,0
178,-1.0,0.0,2.0,-2.0,-9.0,-4.0,0.0,1.0,1651067682891773.0,0
179,-1.0,1.0,0.0,2.0,4.0,2.0,-1.0,0.0,1651067682891773.0,0
180,-3.0,-3.0,-1.0,-3.0,-2.0,-4.0,-2.0,-1.0,1651067682903796.0,0
181,0.0,1.0,5.0,2.0,4.0,4.0,2.0,0.0,1651067682903796.0,0
182,0.0,-4.0,-12.0,-5.0,0.0,-3.0,1.0,-3.0,1651067682912613.0,0
183,-1.0,0.0,0.0,-1.0,-5.0,-3.0,0.0,0.0,1651067682912613.0,0
184,0.0,1.0,0.0,-1.0,-3.0,0.0,1.0,0.0,1651067682927669.0,0
185,-1.0,0.0,2.0,1.0,2.0,0.0,1.0,0.0,1651067682927669.0,0
186,-2.0,-1.0,-1.0,-2.0,-8.0,-5.0,-2.0,0.0,1651067682928665.0,0
187,0.0,-1.0,3.0,1.0,10.0,3.0,-2.0,-1.0,1651067682928665.0,0
188,-1.0,-3.0,-6.0,-3.0,-6.0,-4.0,-1.0,0.0,1651067682949676.0,0
189,1.0,1.0,0.0,1.0,1.0,1.0,0.0,-1.0,1651067682949676.0,0
190,1.0,3.0,4.0,-2.0,-1.0,0.0,1.0,1.0,1651067682951635.0,0
191,0.0,-1.0,-5.0,-1.0,-1.0,-1.0,2.0,-2.0,1651067682951635.0,0
192,1.0,0.0,-4.0,0.0,0.0,0.0,-1.0,-1.0,1651067682963870.0,0
193,0.0,-1.0,2.0,0.0,1.0,2.0,-1.0,-1.0,1651067682963870.0,0
194,0.0,-1.0,-1.0,1.0,-7.0,-7.0,-2.0,0.0,1651067682972711.0,0
195,-1.0,1.0,2.0,2.0,6.0,4.0,1.0,-1.0,1651067682972711.0,0
196,0.0,1.0,0.0,-3.0,-4.0,-5.0,0.0,0.0,1651067682987712.0,0
197,-3.0,-2.0,-4.0,1.0,4.0,4.0,2.0,0.0,1651067682987712.0,0
198,-1.0,-1.0,0.0,0.0,2.0,2.0,-2.0,-2.0,1651067682988680.0,0
199,-1.0,-1.0,-4.0,-3.0,0.0,-2.0,-1.0,1.0,1651067682988680.0,0
200,1.0,-1.0,2.0,-6.0,-19.0,-6.0,-2.0,0.0,1651067683009828.0,0
201,1.0,-1.0,1.0,0.0,8.0,3.0,0.0,-1.0,1651067683009828.0,0
202,0.0,-2.0,-3.0,0.0,4.0,0.0,-1.0,-1.0,1651067683011825.0,0
203,-1.0,-1.0,0.0,0.0,-1.0,-1.0,-2.0,-1.0,1651067683011825.0,0
204,-1.0,-2.0,0.0,2.0,3.0,3.0,0.0,0.0,1651067683023861.0,0
205,-1.0,1.0,2.0,-1.0,-6.0,-4.0,0.0,-3.0,1651067683023861.0,0
206,-2.0,0.0,5.0,4.0,2.0,1.0,1.0,-1.0,1651067683032450.0,0
207,-2.0,0.0,-3.0,-2.0,-2.0,0.0,0.0,0.0,1651067683032450.0,0
208,-2.0,-3.0,-4.0,-3.0,-2.0,-6.0,-4.0,-3.0,1651067683047477.0,0
209,-1.0,-1.0,-6.0,-1.0,-3.0,2.0,1.0,0.0,1651067683047477.0,0
210,0.0,1.0,6.0,0.0,0.0,-3.0,-1.0,1.0,1651067683048407.0,0
211,3.0,0.0,0.0,-1.0,-6.0,-3.0,1.0,-1.0,1651067683048407.0,0
212,-2.0,-1.0,-1.0,2.0,8.0,7.0,1.0,1.0,1651067683069466.0,0
213,-1.0,-1.0,1.0,0.0,-3.0,-2.0,-2.0,-2.0,1651067683069466.0,0
214,-1.0,-1.0,-3.0,-2.0,-2.0,-1.0,0.0,0.0,1651067683071435.0,0
215,2.0,-1.0,-1.0,0.0,-2.0,-3.0,0.0,0.0,1651067683071435.0,0
216,-2.0,0.0,-4.0,-1.0,5.0,2.0,-2.0,-1.0,1651067683092693.0,0
217,1.0,-1.0,4.0,2.0,4.0,-2.0,-1.0,1.0,1651067683092693.0,0
218,-1.0,-3.0,-5.0,-4.0,1.0,3.0,1.0,0.0,1651067683093730.0,0
219,0.0,0.0,1.0,0.0,-5.0,-4.0,-1.0,-3.0,1651067683093730.0,0
220,0.0,-1.0,-2.0,1.0,3.0,-1.0,0.0,0.0,1651067683107440.0,0
221,-1.0,1.0,4.0,1.0,-4.0,-3.0,0.0,1.0,1651067683107440.0,0
222,-1.0,-1.0,-3.0,-2.0,0.0,1.0,-3.0,0.0,1651067683108397.0,0
223,-1.0,-1.0,2.0,-2.0,-2.0,-3.0,-1.0,0.0,1651067683108397.0,0
224,0.0,-1.0,-3.0,0.0,3.0,11.0,4.0,0.0,1651067683130258.0,0
225,0.0,1.0,5.0,-2.0,-6.0,-5.0,-2.0,-1.0,1651067683130258.0,0
226,-1.0,-1.0,-6.0,-2.0,6.0,-3.0,-1.0,-1.0,1651067683131258.0,0
227,1.0,1.0,4.0,4.0,2.0,2.0,1.0,1.0,1651067683131258.0,0
228,0.0,1.0,2.0,-2.0,-3.0,-9.0,-2.0,2.0,1651067683152672.0,0
229,0.0,-1.0,-1.0,-7.0,-11.0,-12.0,-4.0,-3.0,1651067683152672.0,0
230,0.0,1.0,-7.0,-1.0,-15.0,-3.0,0.0,1.0,1651067683153656.0,0
231,-4.0,-3.0,-1.0,-4.0,1.0,-12.0,-5.0,-3.0,1651067683153656.0,0
232,1.0,2.0,2.0,4.0,10.0,4.0,5.0,-1.0,1651067683167740.0,0
233,-4.0,-5.0,-5.0,6.0,0.0,16.0,4.0,1.0,1651067683167740.0,0
234,2.0,0.0,0.0,-1.0,-2.0,-8.0,-1.0,1.0,1651067683168739.0,0
235,1.0,0.0,-1.0,-5.0,-12.0,-4.0,-3.0,-2.0,1651067683168739.0,0
236,-2.0,2.0,3.0,-3.0,-7.0,-7.0,-5.0,-2.0,1651067683189747.0,0
237,-2.0,-3.0,-9.0,-8.0,-4.0,-15.0,-7.0,-4.0,1651067683189747.0,0
238,-1.0,-1.0,0.0,-1.0,1.0,2.0,1.0,-2.0,1651067683191677.0,0
239,0.0,-2.0,-3.0,3.0,4.0,9.0,3.0,1.0,1651067683191677.0,0
240,0.0,-2.0,-2.0,-2.0,-3.0,-8.0,-5.0,-2.0,1651067683211773.0,0
241,3.0,7.0,10.0,5.0,3.0,7.0,3.0,2.0,1651067683211773.0,0
242,-2.0,-5.0,-5.0,4.0,6.0,4.0,-4.0,-2.0,1651067683213763.0,0
243,1.0,4.0,11.0,9.0,3.0,0.0,1.0,-1.0,1651067683213763.0,0
244,-4.0,-10.0,-18.0,-18.0,-6.0,0.0,1.0,-1.0,1651067683227351.0,0
245,0.0,1.0,0.0,-2.0,1.0,-2.0,1.0,0.0,1651067683227351.0,0
246,-3.0,-1.0,-8.0,-6.0,0.0,5.0,2.0,-2.0,1651067683229288.0,0
247,-1.0,3.0,8.0,2.0,-11.0,-6.0,1.0,-1.0,1651067683229288.0,0
248,0.0,1.0,1.0,12.0,23.0,12.0,3.0,0.0,1651067683249370.0,0
249,1.0,0.0,-1.0,-1.0,0.0,1.0,-1.0,1.0,1651067683249370.0,0
250,-1.0,2.0,6.0,0.0,0.0,-5.0,-3.0,0.0,1651067683251311.0,0
251,0.0,-1.0,-2.0,-2.0,-5.0,4.0,1.0,1.0,1651067683251311.0,0
252,0.0,-1.0,1.0,0.0,-6.0,-5.0,-2.0,-1.0,1651067683272358.0,0
253,-1.0,-2.0,-6.0,-3.0,-1.0,-2.0,1.0,-1.0,1651067683272358.0,0
254,-1.0,1.0,7.0,4.0,4.0,2.0,-1.0,-1.0,1651067683273389.0,0
255,0.0,0.0,-4.0,-5.0,3.0,1.0,0.0,0.0,1651067683273389.0,0
256,-1.0,0.0,9.0,10.0,2.0,0.0,-1.0,0.0,1651067683286504.0,0
257,0.0,4.0,12.0,7.0,4.0,2.0,-3.0,0.0,1651067683286504.0,0
258,-5.0,-12.0,-30.0,-22.0,-9.0,-5.0,0.0,-3.0,1651067683293484.0,0
259,-2.0,0.0,4.0,6.0,-3.0,-6.0,-5.0,-2.0,1651067683293484.0,0
260,1.0,0.0,-2.0,-12.0,-8.0,-6.0,-2.0,-1.0,1651067683309443.0,0
261,-3.0,-6.0,-18.0,-4.0,11.0,24.0,7.0,2.0,1651067683309443.0,0
262,2.0,5.0,14.0,4.0,2.0,-1.0,2.0,2.0,1651067683311377.0,0
263,-2.0,-3.0,-10.0,-6.0,-2.0,-5.0,-2.0,-1.0,1651067683311377.0,0
264,1.0,5.0,19.0,6.0,-5.0,3.0,2.0,2.0,1651067683332367.0,0
265,-1.0,-4.0,-3.0,2.0,-1.0,-5.0,-2.0,-3.0,1651067683332367.0,0
266,1.0,1.0,3.0,9.0,9.0,9.0,2.0,-1.0,1651067683333356.0,0
267,-4.0,-2.0,-5.0,-6.0,-2.0,-4.0,-1.0,0.0,1651067683333356.0,0
268,1.0,0.0,1.0,-5.0,-7.0,-4.0,-2.0,1.0,1651067683346296.0,1
269,-4.0,-5.0,-13.0,-7.0,0.0,0.0,-1.0,-3.0,1651067683346296.0,1
270,1.0,1.0,2.0,0.0,0.0,4.0,2.0,0.0,1651067683353725.0,1
271,1.0,5.0,16.0,12.0,11.0,6.0,1.0,-1.0,1651067683353725.0,1
272,-6.0,-9.0,-20.0,-8.0,-7.0,-6.0,-5.0,-5.0,1651067683369704.0,1
273,5.0,3.0,7.0,5.0,0.0,-4.0,1.0,5.0,1651067683369704.0,1
274,-4.0,-1.0,6.0,-2.0,-2.0,-10.0,-2.0,-7.0,1651067683371665.0,1
275,1.0,-3.0,-10.0,-11.0,-1.0,2.0,0.0,1.0,1651067683371665.0,1
276,-1.0,-4.0,-12.0,-5.0,4.0,3.0,1.0,0.0,1651067683392261.0,1
277,-2.0,-1.0,4.0,0.0,-12.0,-9.0,-2.0,-4.0,1651067683392261.0,1
278,4.0,1.0,-3.0,-4.0,-7.0,-1.0,0.0,3.0,1651067683394277.0,1
279,-6.0,-8.0,-4.0,4.0,9.0,4.0,1.0,-1.0,1651067683394277.0,1
280,1.0,4.0,5.0,3.0,-1.0,-1.0,-1.0,1.0,1651067683406406.0,1
281,-2.0,-4.0,-8.0,-13.0,-20.0,-21.0,-8.0,3.0,1651067683406406.0,1
282,-3.0,-8.0,-17.0,-2.0,6.0,13.0,0.0,-9.0,1651067683413880.0,1
283,9.0,7.0,10.0,9.0,16.0,7.0,8.0,8.0,1651067683413880.0,1
284,-13.0,-9.0,-21.0,-15.0,-8.0,-9.0,-10.0,-19.0,1651067683430026.0,1
285,-12.0,-9.0,-11.0,-9.0,-8.0,-11.0,-4.0,-8.0,1651067683430026.0,1
286,21.0,5.0,7.0,2.0,1.0,4.0,5.0,27.0,1651067683436020.0,1
287,-11.0,3.0,5.0,-6.0,-20.0,-12.0,-8.0,-17.0,1651067683436020.0,1
288,-14.0,-7.0,-4.0,-8.0,-16.0,-8.0,-4.0,-15.0,1651067683452747.0,1
289,11.0,7.0,8.0,14.0,29.0,5.0,4.0,14.0,1651067683452747.0,1
290,-3.0,8.0,19.0,13.0,3.0,-3.0,-10.0,-15.0,1651067683453671.0,1
291,9.0,-9.0,-21.0,-7.0,10.0,18.0,2.0,-1.0,1651067683453671.0,1
292,18.0,13.0,16.0,7.0,2.0,3.0,6.0,19.0,1651067683465778.0,1
293,-15.0,-5.0,-3.0,-14.0,-27.0,-18.0,-10.0,-10.0,1651067683465778.0,1
294,6.0,14.0,23.0,18.0,12.0,9.0,19.0,18.0,1651067683474756.0,1
295,13.0,2.0,-5.0,-1.0,0.0,-10.0,-16.0,7.0,1651067683474756.0,1
296,-2.0,2.0,2.0,1.0,-8.0,-4.0,4.0,-9.0,1651067683489741.0,1
297,0.0,5.0,9.0,-5.0,2.0,12.0,-10.0,-18.0,1651067683489741.0,1
298,-9.0,-4.0,3.0,0.0,-12.0,-8.0,13.0,-2.0,1651067683491709.0,1
299,1.0,1.0,7.0,3.0,10.0,10.0,21.0,31.0,1651067683491709.0,1
300,-7.0,-15.0,-23.0,-15.0,-6.0,-7.0,-15.0,-23.0,1651067683511919.0,1
301,-5.0,3.0,0.0,4.0,6.0,13.0,19.0,0.0,1651067683511919.0,1
302,-2.0,-1.0,9.0,1.0,-5.0,-8.0,-21.0,-12.0,1651067683513917.0,1
303,-2.0,-3.0,-10.0,-10.0,-5.0,-1.0,-6.0,-3.0,1651067683513917.0,1
304,7.0,6.0,16.0,-3.0,-19.0,-10.0,5.0,14.0,1651067683525728.0,1
305,-2.0,2.0,2.0,-7.0,-26.0,-19.0,-12.0,-27.0,1651067683525728.0,1
306,-36.0,-23.0,-25.0,-16.0,5.0,-4.0,-10.0,-37.0,1651067683534574.0,1
307,27.0,-7.0,-26.0,0.0,-6.0,-4.0,6.0,48.0,1651067683534574.0,1
308,3.0,14.0,16.0,20.0,36.0,15.0,-33.0,-41.0,1651067683550396.0,1
309,12.0,4.0,3.0,-4.0,0.0,19.0,52.0,57.0,1651067683550396.0,1
310,-7.0,-6.0,-11.0,-11.0,-12.0,-6.0,3.0,-16.0,1651067683551368.0,1
311,1.0,5.0,2.0,-11.0,-21.0,-9.0,-12.0,-6.0,1651067683551368.0,1
312,-2.0,-3.0,10.0,30.0,29.0,15.0,9.0,28.0,1651067683572727.0,1
313,-27.0,-9.0,-3.0,-1.0,2.0,-5.0,-28.0,-58.0,1651067683572727.0,1
314,-4.0,-3.0,-9.0,12.0,10.0,2.0,5.0,-1.0,1651067683573680.0,1
315,-12.0,-1.0,9.0,-5.0,-4.0,-4.0,-30.0,-31.0,1651067683573680.0,1
316,45.0,17.0,20.0,5.0,-9.0,4.0,24.0,58.0,1651067683585659.0,1
317,3.0,-12.0,-30.0,-15.0,0.0,2.0,16.0,16.0,1651067683585659.0,1
318,-1.0,-1.0,-2.0,-10.0,-12.0,-5.0,4.0,14.0,1651067683602815.0,1
319,-15.0,8.0,18.0,1.0,2.0,-4.0,12.0,-18.0,1651067683602815.0,1
320,-12.0,-2.0,0.0,5.0,1.0,-3.0,9.0,-5.0,1651067683609860.0,1
321,5.0,-4.0,6.0,10.0,0.0,-6.0,-26.0,9.0,1651067683609860.0,1
322,17.0,15.0,3.0,-3.0,9.0,14.0,18.0,-4.0,1651067683611794.0,1
323,-6.0,-10.0,-17.0,-11.0,-5.0,-10.0,-20.0,-16.0,1651067683611794.0,1
324,9.0,14.0,17.0,8.0,17.0,11.0,-21.0,1.0,1651067683632729.0,1
325,9.0,-1.0,9.0,8.0,4.0,4.0,31.0,18.0,1651067683632729.0,1
326,-10.0,1.0,6.0,1.0,-7.0,-3.0,1.0,12.0,1651067683633688.0,1
327,7.0,8.0,16.0,-5.0,-11.0,-6.0,6.0,-3.0,1651067683633688.0,1
328,-23.0,-23.0,-26.0,-3.0,5.0,6.0,16.0,1.0,1651067683645674.0,1
329,6.0,7.0,7.0,4.0,15.0,0.0,-33.0,-22.0,1651067683645674.0,1
330,0.0,-8.0,0.0,4.0,1.0,0.0,-18.0,-7.0,1651067683654648.0,1
331,-6.0,-3.0,-1.0,15.0,13.0,8.0,1.0,-10.0,1651067683654648.0,1
332,13.0,15.0,10.0,5.0,-4.0,-2.0,8.0,20.0,1651067683669585.0,1
333,-12.0,-14.0,-18.0,-6.0,1.0,1.0,16.0,11.0,1651067683669585.0,1
334,9.0,9.0,3.0,-5.0,-4.0,-3.0,0.0,-6.0,1651067683671616.0,1
335,-7.0,-12.0,-8.0,6.0,13.0,5.0,-4.0,-9.0,1651067683671616.0,1
336,-16.0,-15.0,-9.0,-16.0,-28.0,-18.0,-8.0,-20.0,1651067683692766.0,1
337,3.0,5.0,3.0,3.0,22.0,11.0,1.0,1.0,1651067683692766.0,1
338,15.0,23.0,21.0,11.0,13.0,3.0,7.0,39.0,1651067683693739.0,1
339,-5.0,-18.0,-16.0,-9.0,-5.0,2.0,-3.0,-18.0,1651067683693739.0,1
340,-1.0,1.0,4.0,5.0,-5.0,-5.0,2.0,-3.0,1651067683705771.0,1
341,5.0,-1.0,-13.0,-3.0,14.0,7.0,-7.0,1.0,1651067683705771.0,1
342,4.0,-4.0,-7.0,-4.0,-15.0,-6.0,6.0,19.0,1651067683714542.0,1
343,-3.0,11.0,7.0,3.0,6.0,-1.0,7.0,5.0,1651067683714542.0,1
344,-4.0,3.0,5.0,-2.0,2.0,-1.0,-9.0,-11.0,1651067683729631.0,1
345,13.0,2.0,2.0,7.0,4.0,8.0,-5.0,-9.0,1651067683729631.0,1
346,-9.0,-5.0,-7.0,-1.0,10.0,4.0,-12.0,-7.0,1651067683731598.0,1
347,1.0,-2.0,-6.0,-1.0,9.0,13.0,15.0,20.0,1651067683731598.0,1
348,4.0,4.0,-1.0,-1.0,2.0,6.0,11.0,0.0,1651067683751824.0,1
349,-4.0,0.0,4.0,1.0,-11.0,-14.0,-10.0,8.0,1651067683751824.0,1
350,-8.0,-19.0,-15.0,-8.0,-9.0,-8.0,-27.0,-32.0,1651067683753818.0,1
351,2.0,5.0,-1.0,-7.0,-17.0,-3.0,14.0,-2.0,1651067683753818.0,1
352,-12.0,-1.0,-4.0,4.0,20.0,8.0,-4.0,0.0,1651067683765924.0,1
353,1.0,-5.0,0.0,-2.0,-5.0,-5.0,11.0,9.0,1651067683765924.0,1
354,10.0,11.0,11.0,-3.0,-6.0,-5.0,-6.0,8.0,1651067683774876.0,1
355,-10.0,-11.0,5.0,19.0,21.0,7.0,-3.0,-12.0,1651067683774876.0,1
356,0.0,7.0,-12.0,-15.0,-14.0,-7.0,5.0,3.0,1651067683797721.0,1
357,18.0,13.0,1.0,3.0,-8.0,-6.0,7.0,26.0,1651067683797721.0,1
358,-10.0,-4.0,11.0,7.0,4.0,3.0,-14.0,-18.0,1651067683798679.0,1
359,-4.0,15.0,19.0,12.0,1.0,-3.0,-7.0,-17.0,1651067683798679.0,1
360,13.0,-14.0,-15.0,-13.0,-24.0,-4.0,14.0,30.0,1651067683812631.0,1
361,-20.0,-14.0,2.0,5.0,6.0,-10.0,-18.0,-37.0,1651067683812631.0,1
362,3.0,-3.0,-6.0,-7.0,-6.0,8.0,7.0,17.0,1651067683813629.0,1
363,6.0,13.0,7.0,17.0,41.0,9.0,-3.0,0.0,1651067683813629.0,1
364,-15.0,-13.0,-7.0,-8.0,-7.0,0.0,-17.0,-33.0,1651067683825664.0,1
365,10.0,-4.0,-15.0,-29.0,-49.0,-16.0,10.0,24.0,1651067683825664.0,1
366,-3.0,-5.0,-5.0,4.0,26.0,13.0,5.0,-2.0,1651067683835293.0,1
367,0.0,-9.0,-10.0,-9.0,-19.0,-6.0,7.0,12.0,1651067683835293.0,1
368,3.0,13.0,11.0,6.0,5.0,-4.0,-8.0,-15.0,1651067683850218.0,1
369,4.0,7.0,1.0,0.0,-3.0,12.0,7.0,16.0,1651067683850218.0,1
370,-4.0,-13.0,-15.0,-6.0,1.0,-10.0,7.0,-10.0,1651067683850919.0,1
371,2.0,2.0,-2.0,-7.0,-9.0,-4.0,-13.0,-7.0,1651067683850919.0,1
372,4.0,-8.0,-3.0,3.0,3.0,12.0,16.0,31.0,1651067683879381.0,1
373,-3.0,5.0,12.0,12.0,22.0,4.0,-15.0,-29.0,1651067683879381.0,1
374,-6.0,-4.0,-6.0,-8.0,-21.0,-12.0,5.0,-10.0,1651067683881349.0,1
375,-18.0,-3.0,2.0,-4.0,-12.0,-10.0,-18.0,-29.0,1651067683881349.0,1
376,11.0,2.0,-5.0,-7.0,-4.0,6.0,12.0,25.0,1651067683886336.0,1
377,-4.0,-4.0,-2.0,8.0,18.0,0.0,-10.0,2.0,1651067683886336.0,1
378,1.0,9.0,19.0,22.0,14.0,11.0,12.0,-4.0,1651067683895350.0,1
379,-6.0,-4.0,-2.0,-3.0,-2.0,-4.0,10.0,8.0,1651067683895350.0,1
380,4.0,6.0,8.0,1.0,-9.0,1.0,-6.0,-9.0,1651067683910229.0,1
381,-3.0,-2.0,1.0,3.0,-2.0,3.0,2.0,0.0,1651067683910229.0,1
382,3.0,3.0,-1.0,-3.0,-12.0,-9.0,-22.0,-11.0,1651067683911230.0,1
383,-4.0,-10.0,-12.0,-2.0,10.0,11.0,20.0,16.0,1651067683911230.0,1
384,6.0,7.0,15.0,11.0,17.0,1.0,12.0,39.0,1651067683932749.0,1
385,9.0,12.0,15.0,1.0,7.0,6.0,-7.0,-21.0,1651067683932749.0,1
386,-3.0,-8.0,-8.0,-7.0,-19.0,-17.0,-20.0,-1.0,1651067683933719.0,1
387,5.0,5.0,5.0,-2.0,-7.0,-1.0,4.0,3.0,1651067683933719.0,1
388,-12.0,-10.0,-13.0,-4.0,2.0,-7.0,-6.0,-8.0,1651067683945754.0,1
389,-3.0,9.0,12.0,7.0,1.0,16.0,14.0,-7.0,1651067683945754.0,1
390,1.0,-1.0,7.0,11.0,35.0,17.0,9.0,-10.0,1651067683954663.0,1
391,5.0,6.0,-5.0,-3.0,-2.0,-4.0,-12.0,12.0,1651067683954663.0,1
392,-10.0,-6.0,1.0,2.0,0.0,-2.0,-4.0,-32.0,1651067683969769.0,1
393,-3.0,-8.0,-15.0,-12.0,-19.0,-15.0,-8.0,21.0,1651067683969769.0,1
394,0.0,1.0,-4.0,-11.0,-23.0,-4.0,7.0,6.0,1651067683971758.0,1
395,-1.0,-5.0,-6.0,2.0,9.0,1.0,3.0,18.0,1651067683971758.0,1
396,-5.0,-3.0,-5.0,-7.0,-8.0,-9.0,-10.0,-32.0,1651067683992447.0,1
397,-1.0,1.0,3.0,2.0,5.0,14.0,2.0,0.0,1651067683992447.0,1
398,10.0,4.0,5.0,-1.0,-5.0,1.0,9.0,27.0,1651067683993445.0,1
399,-7.0,-5.0,-4.0,-7.0,-9.0,-3.0,-11.0,-17.0,1651067683993445.0,1
400,-5.0,-11.0,-19.0,-8.0,-5.0,-1.0,2.0,-3.0,1651067684006419.0,1
401,5.0,2.0,0.0,-1.0,-1.0,-6.0,15.0,7.0,1651067684006419.0,1
402,1.0,-2.0,-4.0,-5.0,-6.0,-16.0,-17.0,-2.0,1651067684015394.0,1
403,3.0,4.0,5.0,1.0,2.0,14.0,16.0,5.0,1651067684015394.0,1
404,0.0,-1.0,0.0,6.0,13.0,0.0,-6.0,-5.0,1651067684029625.0,1
405,1.0,2.0,3.0,5.0,-3.0,-11.0,-4.0,6.0,1651067684029625.0,1
406,-11.0,-6.0,-10.0,-5.0,-4.0,7.0,5.0,-13.0,1651067684031576.0,1
407,5.0,1.0,2.0,-1.0,-4.0,-14.0,-9.0,20.0,1651067684031576.0,1
408,-3.0,-1.0,0.0,-6.0,-13.0,-12.0,-12.0,-13.0,1651067684052685.0,1
409,-6.0,-2.0,3.0,0.0,18.0,16.0,-10.0,-11.0,1651067684052685.0,1
410,-1.0,-11.0,-6.0,-4.0,-7.0,-1.0,16.0,6.0,1651067684053682.0,1
411,4.0,-1.0,-4.0,4.0,-2.0,2.0,2.0,2.0,1651067684053682.0,1
412,-4.0,0.0,3.0,4.0,3.0,-5.0,-16.0,-6.0,1651067684074574.0,1
413,0.0,0.0,-2.0,-6.0,-8.0,7.0,7.0,8.0,1651067684074574.0,1
414,-7.0,2.0,9.0,8.0,4.0,-1.0,-5.0,-13.0,1651067684076571.0,1
415,8.0,-2.0,-5.0,-3.0,-2.0,1.0,-6.0,6.0,1651067684076571.0,1
416,-4.0,-5.0,-4.0,-2.0,0.0,-2.0,-1.0,-5.0,1651067684090193.0,1
417,-4.0,0.0,-6.0,4.0,-2.0,-4.0,2.0,-8.0,1651067684090193.0,1
418,10.0,5.0,-1.0,-2.0,-10.0,-6.0,2.0,22.0,1651067684091574.0,1
419,-5.0,-1.0,5.0,0.0,-1.0,-2.0,7.0,-10.0,1651067684091574.0,1
420,1.0,-1.0,-6.0,5.0,19.0,5.0,-20.0,-1.0,1651067684112719.0,1
421,0.0,0.0,6.0,0.0,-5.0,-2.0,14.0,5.0,1651067684112719.0,1
422,5.0,0.0,-4.0,-2.0,-11.0,-3.0,-3.0,18.0,1651067684113673.0,1
423,0.0,0.0,-4.0,1.0,6.0,-5.0,11.0,9.0,1651067684113673.0,1
424,-1.0,3.0,10.0,6.0,2.0,4.0,-11.0,-9.0,1651067684134796.0,1
425,1.0,-4.0,-2.0,-2.0,-2.0,-2.0,8.0,12.0,1651067684134796.0,1
426,-3.0,2.0,0.0,-3.0,2.0,-2.0,-3.0,-9.0,1651067684136730.0,1
427,-5.0,-3.0,-2.0,0.0,-3.0,-3.0,-4.0,-11.0,1651067684136730.0,1
428,2.0,3.0,4.0,4.0,1.0,0.0,15.0,9.0,1651067684157505.0,1
429,-7.0,-4.0,-7.0,-3.0,-1.0,-2.0,-17.0,-16.0,1651067684157505.0,1
430,-1.0,1.0,-1.0,0.0,-2.0,-8.0,-19.0,-6.0,1651067684158459.0,1
431,3.0,-3.0,-2.0,2.0,5.0,13.0,21.0,27.0,1651067684158459.0,1
432,-1.0,-3.0,-4.0,-4.0,-1.0,2.0,10.0,10.0,1651067684172394.0,1
433,-3.0,-4.0,-2.0,-5.0,-12.0,-10.0,-6.0,-8.0,1651067684172394.0,1
434,2.0,3.0,0.0,0.0,6.0,0.0,-1.0,-5.0,1651067684173419.0,1
435,-4.0,-2.0,-3.0,-1.0,2.0,3.0,-12.0,-19.0,1651067684173419.0,1
436,-4.0,-3.0,-7.0,-6.0,-7.0,-4.0,-1.0,-2.0,1651067684194544.0,1
437,4.0,0.0,-1.0,1.0,0.0,-3.0,-1.0,4.0,1651067684194544.0,1
438,-5.0,-2.0,-3.0,-1.0,5.0,4.0,-5.0,-12.0,1651067684196562.0,1
439,-2.0,-3.0,-6.0,-5.0,-9.0,-7.0,-4.0,-3.0,1651067684196562.0,1
440,5.0,3.0,0.0,-3.0,-2.0,6.0,16.0,13.0,1651067684209550.0,1
441,-3.0,-2.0,0.0,2.0,-1.0,-6.0,-9.0,-8.0,1651067684209550.0,1
442,0.0,-2.0,-6.0,-3.0,1.0,0.0,0.0,3.0,1651067684216488.0,1
443,0.0,0.0,2.0,-2.0,-10.0,-7.0,-12.0,-9.0,1651067684216488.0,1
444,-2.0,-2.0,-3.0,0.0,1.0,-2.0,-1.0,-3.0,1651067684232039.0,1
445,-6.0,-4.0,-2.0,-3.0,-1.0,-1.0,-10.0,-7.0,1651067684232039.0,1
446,3.0,0.0,-3.0,-2.0,2.0,2.0,16.0,12.0,1651067684233994.0,1
447,-1.0,1.0,1.0,-2.0,-5.0,-3.0,-9.0,-8.0,1651067684233994.0,1
448,1.0,-4.0,-9.0,-2.0,2.0,1.0,15.0,7.0,1651067684254623.0,1
449,-3.0,-3.0,-5.0,-5.0,-4.0,-2.0,9.0,6.0,1651067684254623.0,1
450,0.0,0.0,-1.0,-3.0,1.0,1.0,-3.0,-1.0,1651067684256593.0,1
451,-2.0,0.0,4.0,-4.0,-4.0,-2.0,-3.0,-7.0,1651067684256593.0,1
452,1.0,2.0,1.0,2.0,0.0,-3.0,3.0,3.0,1651067684268732.0,1
453,-1.0,-2.0,2.0,3.0,4.0,-1.0,-6.0,-5.0,1651067684268732.0,1
454,1.0,-2.0,-5.0,1.0,2.0,3.0,1.0,1.0,1651067684277710.0,1
455,2.0,2.0,3.0,2.0,-1.0,-1.0,8.0,6.0,1651067684277710.0,1
456,-1.0,2.0,4.0,2.0,2.0,3.0,-8.0,-5.0,1651067684292630.0,1
457,1.0,-1.0,0.0,2.0,1.0,-3.0,-1.0,-2.0,1651067684292630.0,1
458,-2.0,-2.0,-2.0,-3.0,-5.0,-5.0,-2.0,0.0,1651067684293626.0,1
459,-2.0,-2.0,1.0,0.0,-2.0,-1.0,-5.0,-5.0,1651067684293626.0,1
460,1.0,1.0,4.0,-3.0,-5.0,-4.0,-3.0,-2.0,1651067684314443.0,1
461,-1.0,1.0,-4.0,3.0,7.0,3.0,-2.0,-4.0,1651067684314443.0,1
462,0.0,-1.0,3.0,-1.0,0.0,2.0,1.0,-2.0,1651067684316449.0,1
463,-2.0,-1.0,-3.0,-1.0,-3.0,-3.0,-16.0,-9.0,1651067684316449.0,1
464,2.0,2.0,5.0,0.0,1.0,5.0,17.0,14.0,1651067684329470.0,1
465,0.0,-3.0,-5.0,-2.0,0.0,4.0,11.0,4.0,1651067684329470.0,1
466,-3.0,-1.0,-3.0,1.0,0.0,-2.0,-1.0,-4.0,1651067684336383.0,1
467,3.0,3.0,6.0,-1.0,-2.0,2.0,14.0,13.0,1651067684336383.0,1
468,-4.0,-4.0,-10.0,-4.0,-2.0,-3.0,-18.0,-12.0,1651067684352494.0,1
469,2.0,4.0,7.0,1.0,-3.0,-2.0,0.0,5.0,1651067684352494.0,1
470,0.0,2.0,7.0,5.0,7.0,5.0,2.0,1.0,1651067684353513.0,1
471,-1.0,-3.0,-8.0,-3.0,3.0,2.0,3.0,-3.0,1651067684353513.0,1
472,-3.0,-3.0,-2.0,-2.0,-7.0,-5.0,-8.0,-9.0,1651067684374547.0,1
473,1.0,0.0,1.0,5.0,6.0,-1.0,-1.0,3.0,1651067684374547.0,1
474,-2.0,0.0,-5.0,-6.0,-3.0,-1.0,-9.0,-6.0,1651067684376554.0,1
475,3.0,2.0,1.0,0.0,-11.0,-4.0,12.0,8.0,1651067684376554.0,1
476,-2.0,-3.0,-1.0,2.0,3.0,2.0,0.0,0.0,1651067684389571.0,1
477,-2.0,3.0,-20.0,-8.0,-3.0,-4.0,-10.0,-7.0,1651067684389571.0,1
478,0.0,3.0,20.0,8.0,6.0,3.0,1.0,1.0,1651067684395560.0,1
479,-2.0,-2.0,-6.0,3.0,9.0,1.0,-3.0,-1.0,1651067684395560.0,1
480,-1.0,1.0,3.0,0.0,1.0,-2.0,-3.0,-3.0,1651067684412693.0,1
481,-2.0,-3.0,-1.0,-15.0,-11.0,-4.0,-3.0,-1.0,1651067684412693.0,1
482,-1.0,-3.0,-7.0,6.0,-9.0,-8.0,1.0,2.0,1651067684413561.0,1
483,-2.0,-4.0,-9.0,-2.0,0.0,-1.0,-3.0,-2.0,1651067684413561.0,1
484,-1.0,2.0,9.0,11.0,10.0,0.0,2.0,0.0,1651067684435621.0,1
485,-1.0,0.0,4.0,-1.0,0.0,3.0,-3.0,-3.0,1651067684435621.0,1
486,1.0,2.0,-2.0,-10.0,-1.0,-3.0,-5.0,3.0,1651067684436598.0,1
487,1.0,-1.0,2.0,0.0,2.0,3.0,5.0,0.0,1651067684436598.0,1
488,-1.0,1.0,0.0,2.0,-5.0,-2.0,1.0,0.0,1651067684449629.0,1
489,-1.0,-2.0,0.0,-12.0,-2.0,-4.0,-5.0,-5.0,1651067684449629.0,1
490,1.0,0.0,4.0,-10.0,-6.0,-1.0,2.0,5.0,1651067684455681.0,1
491,2.0,1.0,-7.0,19.0,10.0,5.0,0.0,-1.0,1651067684455681.0,1
492,-1.0,-1.0,-5.0,-6.0,-2.0,-1.0,-2.0,-2.0,1651067684472767.0,1
493,0.0,1.0,9.0,41.0,7.0,1.0,-10.0,-9.0,1651067684472767.0,1
494,-1.0,-1.0,-5.0,-28.0,-1.0,5.0,15.0,9.0,1651067684473738.0,1
495,-2.0,0.0,4.0,0.0,-3.0,-3.0,-7.0,-4.0,1651067684473738.0,1
496,2.0,0.0,-3.0,-7.0,-7.0,-2.0,5.0,5.0,1651067684494511.0,1
497,0.0,-1.0,2.0,0.0,-2.0,-3.0,-7.0,-5.0,1651067684494511.0,1
498,-1.0,0.0,-8.0,4.0,1.0,-1.0,-2.0,-3.0,1651067684496508.0,1
499,1.0,0.0,3.0,-7.0,-7.0,-3.0,0.0,2.0,1651067684496508.0,1
500,0.0,-2.0,-5.0,3.0,-4.0,-2.0,-3.0,-2.0,1651067684508543.0,1
501,-3.0,0.0,3.0,-10.0,1.0,-1.0,6.0,4.0,1651067684508543.0,1
502,5.0,-1.0,4.0,1.0,1.0,1.0,-2.0,-3.0,1651067684517451.0,1
503,1.0,-1.0,-3.0,-6.0,-4.0,-1.0,2.0,3.0,1651067684517451.0,1
504,-1.0,-2.0,-1.0,6.0,5.0,1.0,-5.0,-2.0,1651067684532543.0,1
505,-1.0,-3.0,-3.0,-4.0,-3.0,-1.0,5.0,3.0,1651067684532543.0,1
506,3.0,3.0,-2.0,4.0,-6.0,-4.0,1.0,0.0,1651067684533539.0,1
507,-3.0,10.0,7.0,-14.0,-5.0,-3.0,-2.0,-2.0,1651067684533539.0,1
508,-2.0,-7.0,8.0,11.0,6.0,1.0,1.0,1.0,1651067684554512.0,1
509,7.0,12.0,-7.0,-2.0,4.0,2.0,3.0,2.0,1651067684554512.0,1
510,-8.0,-4.0,-5.0,-2.0,-3.0,0.0,-3.0,-2.0,1651067684556478.0,1
511,5.0,2.0,5.0,2.0,-2.0,-3.0,-3.0,-2.0,1651067684556478.0,1
512,-1.0,3.0,0.0,-6.0,2.0,2.0,1.0,-1.0,1651067684568514.0,1
513,0.0,-3.0,-1.0,-5.0,2.0,4.0,4.0,2.0,1651067684568514.0,1
514,3.0,0.0,-2.0,25.0,-1.0,-4.0,-5.0,-2.0,1651067684577422.0,1
515,-3.0,-1.0,1.0,-16.0,1.0,0.0,-1.0,-1.0,1651067684577422.0,1
516,1.0,3.0,1.0,-12.0,-4.0,-2.0,1.0,1.0,1651067684592723.0,1
517,-2.0,-4.0,0.0,7.0,3.0,4.0,-1.0,-2.0,1651067684592723.0,1
518,-1.0,-1.0,-1.0,-2.0,0.0,0.0,0.0,-2.0,1651067684593723.0,1
519,-3.0,-3.0,-2.0,5.0,0.0,-2.0,-4.0,-1.0,1651067684593723.0,1
520,0.0,-2.0,-3.0,-2.0,0.0,0.0,2.0,0.0,1651067684614501.0,1
521,1.0,1.0,3.0,1.0,-2.0,-1.0,1.0,1.0,1651067684614501.0,1
522,-2.0,-3.0,-1.0,-5.0,1.0,0.0,-2.0,-1.0,1651067684616496.0,1
523,0.0,-1.0,-1.0,4.0,0.0,1.0,-1.0,-2.0,1651067684616496.0,1
524,0.0,-1.0,-8.0,1.0,4.0,-1.0,-3.0,-3.0,1651067684628523.0,1
525,-2.0,0.0,6.0,-3.0,-11.0,-4.0,0.0,0.0,1651067684628523.0,1
526,-1.0,0.0,-2.0,2.0,3.0,2.0,0.0,0.0,1651067684637439.0,1
527,2.0,-3.0,-1.0,2.0,0.0,0.0,-1.0,-2.0,1651067684637439.0,1
528,0.0,-1.0,-1.0,0.0,-2.0,1.0,-1.0,1.0,1651067684652695.0,1
529,-1.0,-2.0,-1.0,3.0,4.0,0.0,1.0,-1.0,1651067684652695.0,1
530,1.0,-1.0,-1.0,-4.0,-1.0,-1.0,0.0,-1.0,1651067684653680.0,1
531,-1.0,-1.0,2.0,2.0,-3.0,0.0,0.0,0.0,1651067684653680.0,1
532,-1.0,0.0,0.0,-4.0,-4.0,-1.0,0.0,-1.0,1651067684674881.0,1
533,-1.0,0.0,-3.0,-2.0,2.0,0.0,-1.0,1.0,1651067684674881.0,1
534,0.0,-2.0,-2.0,1.0,-1.0,2.0,1.0,-1.0,1651067684676806.0,1
535,-1.0,0.0,2.0,2.0,0.0,-1.0,-2.0,-1.0,1651067684676806.0,1
536,0.0,0.0,0.0,-2.0,-3.0,-3.0,-1.0,0.0,1651067684688842.0,1
537,0.0,-2.0,-3.0,0.0,0.0,-2.0,-1.0,-1.0,1651067684688842.0,1
538,-1.0,3.0,9.0,5.0,0.0,-2.0,0.0,0.0,1651067684697751.0,1
539,-2.0,-6.0,-2.0,-7.0,-1.0,3.0,0.0,0.0,1651067684697751.0,1
540,0.0,-1.0,-3.0,2.0,4.0,7.0,2.0,1.0,1651067684713158.0,1
541,0.0,0.0,3.0,-3.0,-10.0,-8.0,-3.0,-2.0,1651067684713158.0,1
542,-2.0,-6.0,-7.0,6.0,6.0,-1.0,-1.0,-1.0,1651067684714130.0,1
543,1.0,2.0,7.0,1.0,4.0,5.0,1.0,2.0,1651067684714130.0,1
544,-1.0,1.0,2.0,-2.0,-2.0,-4.0,-2.0,-3.0,1651067684734862.0,1
545,-1.0,0.0,-1.0,-5.0,-4.0,1.0,1.0,1.0,1651067684734862.0,1
546,0.0,0.0,-3.0,-5.0,-10.0,-9.0,-4.0,-2.0,1651067684736810.0,1
547,-2.0,-2.0,-1.0,3.0,-1.0,-5.0,-5.0,-2.0,1651067684736810.0,1
548,-1.0,-1.0,0.0,-1.0,1.0,3.0,1.0,1.0,1651067684748212.0,1
549,-1.0,-2.0,-5.0,-2.0,-7.0,-5.0,-2.0,-1.0,1651067684748212.0,1
550,0.0,0.0,0.0,0.0,3.0,1.0,-2.0,-1.0,1651067684757199.0,1
551,-1.0,0.0,-3.0,0.0,-2.0,3.0,2.0,0.0,1651067684757199.0,1
552,0.0,-1.0,-3.0,0.0,1.0,0.0,-2.0,0.0,1651067684772336.0,1
553,0.0,1.0,11.0,5.0,1.0,0.0,-1.0,-1.0,1651067684772336.0,1
554,0.0,1.0,-2.0,-1.0,2.0,4.0,2.0,1.0,1651067684774328.0,1
555,0.0,-1.0,-3.0,2.0,9.0,1.0,-2.0,-1.0,1651067684774328.0,1
556,-1.0,0.0,-2.0,-3.0,-5.0,-6.0,0.0,1.0,1651067684795266.0,1
557,1.0,0.0,-2.0,1.0,-5.0,0.0,1.0,-1.0,1651067684795266.0,1
558,0.0,-1.0,-1.0,-1.0,17.0,13.0,1.0,-2.0,1651067684796261.0,1
559,0.0,1.0,2.0,-1.0,-8.0,-8.0,-2.0,-2.0,1651067684796261.0,1
560,-1.0,-1.0,1.0,1.0,6.0,3.0,1.0,-1.0,1651067684808293.0,1
561,-1.0,-1.0,-4.0,0.0,-3.0,-1.0,0.0,-1.0,1651067684808293.0,1
562,0.0,-1.0,2.0,-1.0,3.0,2.0,1.0,1.0,1651067684817543.0,1
563,0.0,0.0,-4.0,0.0,-3.0,3.0,1.0,-2.0,1651067684817543.0,1
564,0.0,1.0,0.0,-3.0,-3.0,-2.0,-1.0,0.0,1651067684832659.0,1
565,-2.0,-1.0,-4.0,-3.0,1.0,-2.0,-4.0,-1.0,1651067684832659.0,1
566,-1.0,1.0,8.0,4.0,-4.0,0.0,1.0,0.0,1651067684833654.0,1
567,0.0,-2.0,-4.0,-1.0,4.0,0.0,0.0,0.0,1651067684833654.0,1
568,-1.0,0.0,-1.0,-3.0,-6.0,-4.0,-1.0,-2.0,1651067684854644.0,1
569,-2.0,-2.0,1.0,0.0,5.0,2.0,1.0,0.0,1651067684854644.0,1
570,0.0,-2.0,-6.0,-4.0,-10.0,-6.0,-3.0,-3.0,1651067684856639.0,1
571,0.0,-1.0,-1.0,0.0,-1.0,-2.0,1.0,-1.0,1651067684856639.0,1
572,1.0,1.0,5.0,2.0,-2.0,-2.0,-2.0,0.0,1651067684868674.0,1
573,0.0,-2.0,-5.0,-2.0,3.0,-1.0,-2.0,-1.0,1651067684868674.0,1
574,0.0,-1.0,-4.0,-2.0,-2.0,2.0,0.0,1.0,1651067684877583.0,1
575,-1.0,-1.0,2.0,2.0,-1.0,4.0,-1.0,1.0,1651067684877583.0,1
576,-2.0,0.0,-1.0,-1.0,0.0,-1.0,-4.0,-2.0,1651067684892720.0,1
577,-1.0,1.0,2.0,2.0,2.0,4.0,-1.0,-1.0,1651067684892720.0,1
578,0.0,-1.0,-2.0,-1.0,-1.0,-4.0,0.0,0.0,1651067684893690.0,1
579,0.0,-2.0,-4.0,0.0,-6.0,-6.0,-1.0,-1.0,1651067684893690.0,1
580,0.0,-2.0,-1.0,1.0,1.0,-2.0,-2.0,-2.0,1651067684914842.0,1
581,2.0,-2.0,2.0,1.0,3.0,10.0,3.0,1.0,1651067684914842.0,1
582,1.0,1.0,-1.0,-4.0,-2.0,-3.0,-2.0,-1.0,1651067684916837.0,1
583,-2.0,2.0,0.0,3.0,4.0,0.0,-1.0,0.0,1651067684916837.0,1
584,-2.0,-2.0,1.0,-1.0,-3.0,-2.0,-1.0,0.0,1651067684928848.0,1
585,-1.0,-2.0,0.0,0.0,1.0,-2.0,1.0,0.0,1651067684928848.0,0
586,-1.0,-1.0,1.0,-1.0,-3.0,-2.0,-1.0,-1.0,1651067684937781.0,0
587,1.0,-3.0,-5.0,-4.0,-3.0,0.0,0.0,0.0,1651067684937781.0,0
588,-1.0,0.0,-2.0,-4.0,-12.0,-4.0,-1.0,-1.0,1651067684952460.0,0
589,-1.0,-1.0,-1.0,0.0,7.0,1.0,-2.0,-4.0,1651067684952460.0,0
590,0.0,0.0,0.0,0.0,5.0,2.0,1.0,1.0,1651067684953444.0,0
591,2.0,0.0,1.0,-2.0,-3.0,-1.0,1.0,0.0,1651067684953444.0,0
592,-1.0,-2.0,-3.0,0.0,-1.0,0.0,-2.0,1.0,1651067684974741.0,0
593,-1.0,-2.0,-1.0,-1.0,-5.0,-3.0,0.0,0.0,1651067684974741.0,0
594,-2.0,0.0,-2.0,-2.0,-1.0,-1.0,-1.0,-2.0,1651067684976670.0,0
595,-2.0,-3.0,-2.0,-1.0,0.0,-1.0,-4.0,-1.0,1651067684976670.0,0
596,2.0,0.0,2.0,-1.0,-3.0,-2.0,-1.0,-1.0,1651067684997793.0,0
597,0.0,-1.0,1.0,1.0,-1.0,-2.0,-2.0,0.0,1651067684997793.0,0
598,-1.0,-1.0,1.0,0.0,1.0,0.0,0.0,0.0,1651067684998764.0,0
599,-2.0,0.0,1.0,-2.0,-1.0,-3.0,0.0,-3.0,1651067684998764.0,0
600,-1.0,0.0,0.0,1.0,4.0,9.0,5.0,3.0,1651067685012752.0,0
601,1.0,-1.0,1.0,-1.0,1.0,-2.0,-2.0,1.0,1651067685012752.0,0
602,0.0,-1.0,-2.0,0.0,-1.0,-2.0,-1.0,-1.0,1651067685013764.0,0
603,-1.0,-1.0,-1.0,-2.0,1.0,-1.0,-1.0,1.0,1651067685013764.0,0
604,0.0,0.0,-1.0,-2.0,-2.0,-3.0,0.0,0.0,1651067685034746.0,0
605,0.0,-1.0,-1.0,-2.0,-3.0,-2.0,0.0,1.0,1651067685034746.0,0
606,0.0,-1.0,-1.0,-3.0,-4.0,-4.0,-1.0,-1.0,1651067685036681.0,0
607,-2.0,-1.0,-2.0,-4.0,-9.0,-5.0,-5.0,-1.0,1651067685036681.0,0
608,-1.0,0.0,-1.0,6.0,18.0,6.0,2.0,-1.0,1651067685057721.0,0
609,0.0,-1.0,0.0,0.0,-4.0,0.0,1.0,0.0,1651067685057721.0,0
610,-2.0,0.0,1.0,0.0,-4.0,-3.0,-3.0,1.0,1651067685058628.0,0
611,1.0,2.0,1.0,0.0,0.0,0.0,0.0,0.0,1651067685058628.0,0
612,-1.0,-3.0,-2.0,-4.0,-5.0,-2.0,-2.0,-1.0,1651067685071651.0,0
613,-1.0,-1.0,-2.0,-1.0,0.0,-4.0,0.0,-1.0,1651067685071651.0,0
614,-1.0,-2.0,-1.0,-1.0,2.0,3.0,1.0,-1.0,1651067685078634.0,0
615,0.0,-3.0,-1.0,1.0,0.0,0.0,0.0,0.0,1651067685078634.0,0
616,-2.0,0.0,0.0,-1.0,-3.0,-2.0,0.0,0.0,1651067685094674.0,0
617,-1.0,3.0,-2.0,1.0,-1.0,-2.0,-2.0,-2.0,1651067685094674.0,0
618,0.0,-1.0,-1.0,-2.0,-3.0,-4.0,-1.0,-3.0,1651067685096662.0,0
619,0.0,-1.0,0.0,1.0,6.0,6.0,1.0,1.0,1651067685096662.0,0
620,-1.0,1.0,-1.0,0.0,-3.0,-2.0,-1.0,0.0,1651067685116751.0,0
621,-1.0,-4.0,-4.0,-3.0,-1.0,1.0,-1.0,0.0,1651067685116751.0,0
622,-1.0,0.0,0.0,0.0,-1.0,1.0,0.0,0.0,1651067685118741.0,0
623,-2.0,0.0,-3.0,1.0,-1.0,-5.0,-3.0,-2.0,1651067685118741.0,0
624,-2.0,-3.0,1.0,-2.0,-2.0,0.0,1.0,0.0,1651067685131733.0,0
625,1.0,-1.0,-2.0,-3.0,-2.0,-1.0,0.0,0.0,1651067685131733.0,0
626,0.0,-1.0,-1.0,-1.0,1.0,-2.0,1.0,-1.0,1651067685138687.0,0
627,0.0,-1.0,-2.0,1.0,-4.0,-2.0,-2.0,-1.0,1651067685138687.0,0
628,0.0,0.0,1.0,3.0,9.0,8.0,1.0,0.0,1651067685154675.0,0
629,-2.0,0.0,0.0,-1.0,-2.0,-4.0,-3.0,-1.0,1651067685154675.0,0
630,0.0,1.0,2.0,1.0,-1.0,1.0,1.0,0.0,1651067685156690.0,0
631,-1.0,-1.0,-1.0,1.0,0.0,2.0,2.0,-1.0,1651067685156690.0,0
632,0.0,-2.0,-2.0,-3.0,-9.0,-5.0,-2.0,-3.0,1651067685177647.0,0
633,-1.0,0.0,1.0,3.0,11.0,1.0,-2.0,0.0,1651067685177647.0,0
634,-2.0,0.0,-1.0,-1.0,-3.0,-2.0,-1.0,0.0,1651067685178639.0,0
635,1.0,1.0,0.0,-1.0,-1.0,-2.0,2.0,1.0,1651067685178639.0,0
636,-1.0,0.0,-2.0,1.0,2.0,6.0,1.0,1.0,1651067685192461.0,0
637,-1.0,-1.0,0.0,-2.0,-4.0,0.0,0.0,-1.0,1651067685192461.0,0
638,-1.0,-1.0,-3.0,-2.0,-3.0,-4.0,-2.0,-2.0,1651067685198496.0,0
639,1.0,1.0,1.0,-1.0,-1.0,-2.0,0.0,0.0,1651067685198496.0,0
640,0.0,-1.0,0.0,-2.0,-1.0,-3.0,0.0,-1.0,1651067685214592.0,0
641,1.0,-1.0,1.0,0.0,-3.0,-1.0,0.0,0.0,1651067685214592.0,0
642,-1.0,1.0,-1.0,0.0,-1.0,0.0,0.0,1.0,1651067685216590.0,0
643,-1.0,0.0,0.0,-1.0,2.0,-1.0,-1.0,-1.0,1651067685216590.0,0
644,0.0,0.0,1.0,0.0,-2.0,-4.0,-2.0,-2.0,1651067685237647.0,0
645,1.0,1.0,0.0,-1.0,1.0,2.0,2.0,-1.0,1651067685237647.0,0
646,-1.0,-1.0,0.0,-1.0,-9.0,-3.0,0.0,0.0,1651067685238656.0,0
647,0.0,-1.0,0.0,1.0,9.0,4.0,0.0,-1.0,1651067685238656.0,0
648,-2.0,-1.0,-2.0,-1.0,-3.0,-6.0,-4.0,0.0,1651067685251691.0,0
649,-1.0,-1.0,-2.0,1.0,-2.0,-1.0,-3.0,-2.0,1651067685251691.0,0
650,-1.0,-2.0,-1.0,1.0,1.0,1.0,-1.0,-2.0,1651067685258741.0,0
651,-2.0,0.0,1.0,0.0,-5.0,-2.0,-1.0,0.0,1651067685258741.0,0
652,0.0,-2.0,-2.0,-2.0,-2.0,-1.0,-2.0,0.0,1651067685274647.0,0
653,1.0,1.0,0.0,-1.0,-2.0,0.0,-1.0,0.0,1651067685274647.0,0
654,0.0,-1.0,-2.0,0.0,1.0,0.0,0.0,1.0,1651067685276576.0,0
655,0.0,-2.0,-1.0,-1.0,-3.0,-2.0,0.0,0.0,1651067685276576.0,0
656,0.0,0.0,-1.0,0.0,2.0,2.0,-2.0,-3.0,1651067685297667.0,0
657,-1.0,-1.0,-2.0,-1.0,-5.0,0.0,3.0,-1.0,1651067685297667.0,0
658,-1.0,-2.0,0.0,0.0,5.0,1.0,-2.0,-2.0,1651067685298597.0,0
659,0.0,-2.0,0.0,-1.0,-4.0,-3.0,-1.0,1.0,1651067685298597.0,0
660,0.0,0.0,1.0,0.0,0.0,-4.0,0.0,-1.0,1651067685312054.0,0
661,-2.0,-3.0,1.0,-2.0,-4.0,-1.0,-2.0,-1.0,1651067685312054.0,0
662,-1.0,-2.0,-2.0,3.0,2.0,3.0,-1.0,-1.0,1651067685318107.0,0
663,-1.0,0.0,0.0,0.0,0.0,0.0,1.0,-1.0,1651067685318107.0,0
664,1.0,1.0,2.0,0.0,-2.0,-2.0,0.0,0.0,1651067685334728.0,0
665,0.0,1.0,1.0,1.0,0.0,-4.0,-1.0,1.0,1651067685334728.0,0
666,1.0,0.0,-2.0,-2.0,0.0,-4.0,-1.0,0.0,1651067685336677.0,0
667,0.0,0.0,0.0,1.0,6.0,5.0,0.0,0.0,1651067685336677.0,0
668,-1.0,-2.0,-2.0,0.0,-4.0,-2.0,0.0,0.0,1651067685357714.0,0
669,2.0,-1.0,1.0,-1.0,-4.0,-2.0,-1.0,1.0,1651067685357714.0,0
670,1.0,-1.0,0.0,-1.0,5.0,1.0,2.0,2.0,1651067685358706.0,0
671,0.0,0.0,1.0,5.0,6.0,7.0,3.0,1.0,1651067685358706.0,0
672,0.0,-4.0,-3.0,-1.0,1.0,-5.0,-2.0,-2.0,1651067685371794.0,0
673,0.0,-3.0,-1.0,-1.0,-3.0,3.0,0.0,0.0,1651067685371794.0,0
674,-1.0,1.0,1.0,-2.0,-4.0,-3.0,0.0,0.0,1651067685378847.0,0
675,1.0,-1.0,-1.0,-2.0,-4.0,-1.0,-1.0,-2.0,1651067685378847.0,0
676,-2.0,0.0,-1.0,-3.0,-4.0,-1.0,0.0,0.0,1651067685394746.0,0
677,0.0,2.0,0.0,1.0,-9.0,-5.0,-2.0,-1.0,1651067685394746.0,0
678,0.0,-1.0,-1.0,0.0,9.0,7.0,1.0,0.0,1651067685396701.0,0
679,-1.0,-2.0,0.0,-2.0,-2.0,1.0,1.0,1.0,1651067685396701.0,0
680,1.0,-1.0,-1.0,-1.0,0.0,0.0,-1.0,1.0,1651067685417728.0,0
681,0.0,1.0,0.0,-4.0,-8.0,-4.0,0.0,-1.0,1651067685417728.0,0
682,-1.0,0.0,-1.0,-1.0,-5.0,-4.0,-3.0,0.0,1651067685418680.0,0
683,-2.0,1.0,0.0,0.0,-1.0,-3.0,-1.0,-2.0,1651067685418680.0,0
684,1.0,-2.0,0.0,1.0,5.0,-2.0,1.0,-1.0,1651067685431445.0,0
685,-2.0,-2.0,-4.0,-1.0,8.0,11.0,5.0,1.0,1651067685431445.0,0
686,0.0,0.0,0.0,1.0,-5.0,-3.0,-2.0,-3.0,1651067685438455.0,0
687,-4.0,-3.0,-5.0,-4.0,0.0,-5.0,-4.0,-2.0,1651067685438455.0,0
688,0.0,1.0,-2.0,-2.0,-5.0,0.0,-1.0,0.0,1651067685454291.0,0
689,-2.0,-2.0,0.0,0.0,1.0,-6.0,-4.0,-3.0,1651067685454291.0,0
690,0.0,-1.0,1.0,-1.0,-3.0,0.0,-1.0,1.0,1651067685456298.0,0
691,1.0,1.0,0.0,4.0,4.0,1.0,0.0,-1.0,1651067685456298.0,0
692,2.0,-1.0,0.0,-2.0,-3.0,4.0,2.0,1.0,1651067685477573.0,0
693,-1.0,0.0,-1.0,2.0,13.0,15.0,3.0,2.0,1651067685477573.0,0
694,-4.0,-1.0,-2.0,-3.0,-8.0,-6.0,-3.0,-4.0,1651067685478504.0,0
695,0.0,0.0,2.0,-3.0,-3.0,-6.0,-1.0,-1.0,1651067685478504.0,0
696,-1.0,0.0,1.0,6.0,7.0,9.0,3.0,1.0,1651067685490537.0,0
697,0.0,-1.0,1.0,4.0,8.0,4.0,1.0,0.0,1651067685490537.0,0
698,0.0,1.0,2.0,1.0,6.0,8.0,0.0,1.0,1651067685499448.0,0
699,-1.0,-2.0,-3.0,-3.0,-5.0,-3.0,-3.0,-3.0,1651067685499448.0,0
700,-1.0,3.0,1.0,-3.0,-10.0,-5.0,-1.0,0.0,1651067685514561.0,0
701,0.0,-1.0,-1.0,1.0,0.0,-6.0,-4.0,-1.0,1651067685514561.0,0
702,0.0,0.0,-1.0,-3.0,-1.0,-3.0,-4.0,-1.0,1651067685516558.0,0
703,-2.0,-3.0,-3.0,0.0,-3.0,1.0,0.0,0.0,1651067685516558.0,0
704,-2.0,1.0,0.0,-2.0,-13.0,-8.0,-2.0,-1.0,1651067685545291.0,0
705,-3.0,-3.0,-7.0,-3.0,2.0,-5.0,-1.0,-2.0,1651067685545291.0,0
706,0.0,0.0,-2.0,0.0,-6.0,-5.0,2.0,-1.0,1651067685546249.0,0
707,1.0,-3.0,-8.0,-4.0,3.0,7.0,1.0,0.0,1651067685546249.0,0
708,-2.0,-2.0,0.0,-1.0,-3.0,-6.0,-3.0,-2.0,1651067685551264.0,0
709,0.0,-1.0,0.0,1.0,4.0,2.0,1.0,-2.0,1651067685551264.0,0
710,1.0,1.0,2.0,-1.0,-4.0,-3.0,4.0,1.0,1651067685560212.0,0
711,0.0,-2.0,-3.0,-3.0,-9.0,-4.0,-2.0,-1.0,1651067685560212.0,0
712,-3.0,-3.0,-5.0,-4.0,5.0,-3.0,-6.0,-3.0,1651067685575189.0,0
713,0.0,1.0,4.0,3.0,6.0,5.0,0.0,-1.0,1651067685575189.0,0
714,-2.0,-6.0,-5.0,-6.0,-6.0,-8.0,-1.0,0.0,1651067685576325.0,0
715,2.0,3.0,13.0,12.0,15.0,6.0,3.0,2.0,1651067685576325.0,0
716,-1.0,-5.0,-13.0,-13.0,0.0,0.0,0.0,-2.0,1651067685597490.0,0
717,-1.0,0.0,0.0,-1.0,-2.0,0.0,-2.0,1.0,1651067685597490.0,0
718,0.0,-1.0,0.0,1.0,-11.0,-4.0,-3.0,0.0,1651067685598449.0,0
719,-1.0,1.0,1.0,-3.0,-8.0,-5.0,0.0,0.0,1651067685598449.0,0
720,-2.0,-1.0,-4.0,-1.0,-1.0,-5.0,-5.0,-1.0,1651067685611340.0,0
721,1.0,-1.0,-2.0,1.0,-2.0,1.0,0.0,-1.0,1651067685611340.0,0
722,2.0,2.0,1.0,4.0,12.0,16.0,5.0,3.0,1651067685619575.0,0
723,-1.0,3.0,11.0,5.0,-1.0,-4.0,-4.0,-1.0,1651067685619575.0,0
724,-1.0,-2.0,-5.0,-2.0,-3.0,0.0,4.0,2.0,1651067685634758.0,0
725,0.0,-1.0,-6.0,-9.0,-12.0,-7.0,-1.0,1.0,1651067685634758.0,0
726,-2.0,2.0,11.0,8.0,7.0,1.0,1.0,0.0,1651067685636708.0,0
727,-2.0,-2.0,-6.0,-5.0,-1.0,0.0,-2.0,-2.0,1651067685636708.0,0
728,-1.0,0.0,6.0,6.0,1.0,0.0,-1.0,-2.0,1651067685657648.0,0
729,-2.0,1.0,2.0,3.0,0.0,-1.0,-3.0,-2.0,1651067685657648.0,0
730,1.0,0.0,-7.0,-11.0,-13.0,-3.0,3.0,0.0,1651067685658580.0,0
731,1.0,3.0,5.0,9.0,14.0,6.0,3.0,0.0,1651067685658580.0,0
732,-3.0,-1.0,2.0,-1.0,-7.0,-3.0,2.0,-1.0,1651067685670729.0,0
733,0.0,1.0,4.0,4.0,16.0,8.0,-1.0,1.0,1651067685670729.0,0
734,-2.0,-1.0,0.0,-2.0,-6.0,-5.0,-3.0,0.0,1651067685679641.0,0
735,1.0,1.0,4.0,3.0,2.0,3.0,5.0,2.0,1651067685679641.0,0
736,1.0,3.0,5.0,4.0,3.0,4.0,0.0,1.0,1651067685694664.0,0
737,-1.0,-1.0,-3.0,-6.0,-5.0,-5.0,-2.0,-1.0,1651067685694664.0,0
738,0.0,2.0,9.0,10.0,6.0,1.0,0.0,-1.0,1651067685696620.0,0
739,-3.0,-5.0,-14.0,-13.0,-10.0,-1.0,-3.0,-4.0,1651067685696620.0,0
740,0.0,2.0,11.0,4.0,13.0,2.0,-3.0,-3.0,1651067685717622.0,0
741,0.0,0.0,-2.0,-3.0,-6.0,-3.0,6.0,2.0,1651067685717622.0,0
742,-1.0,-4.0,-8.0,-8.0,-5.0,-4.0,-4.0,0.0,1651067685718618.0,0
743,-1.0,4.0,0.0,-1.0,-7.0,-5.0,-4.0,-3.0,1651067685718618.0,0
744,1.0,3.0,14.0,8.0,8.0,11.0,9.0,6.0,1651067685730641.0,0
745,-8.0,-12.0,-16.0,-13.0,-14.0,-9.0,-5.0,-3.0,1651067685730641.0,0
746,-7.0,-9.0,-11.0,-1.0,5.0,2.0,-6.0,-18.0,1651067685739562.0,0
747,2.0,1.0,-9.0,-5.0,-5.0,-7.0,2.0,7.0,1651067685739562.0,0
748,11.0,2.0,-2.0,2.0,6.0,8.0,2.0,14.0,1651067685755298.0,0
749,2.0,5.0,10.0,-2.0,-16.0,-11.0,1.0,3.0,1651067685755298.0,0
750,-1.0,-5.0,-7.0,-3.0,6.0,7.0,1.0,0.0,1651067685756297.0,2
751,-5.0,-2.0,-4.0,-7.0,-10.0,-10.0,-15.0,-9.0,1651067685756297.0,2
752,-4.0,0.0,6.0,5.0,8.0,4.0,1.0,-1.0,1651067685777308.0,2
753,2.0,-1.0,0.0,5.0,11.0,8.0,6.0,6.0,1651067685777308.0,2
754,3.0,2.0,-3.0,-3.0,-4.0,1.0,14.0,10.0,1651067685779263.0,2
755,-1.0,5.0,11.0,2.0,-6.0,-5.0,-3.0,-5.0,1651067685779263.0,2
756,-1.0,-1.0,-7.0,-4.0,0.0,3.0,-1.0,-4.0,1651067685791272.0,2
757,-2.0,-1.0,0.0,3.0,6.0,2.0,-6.0,-11.0,1651067685791272.0,2
758,-6.0,-4.0,-8.0,-6.0,-7.0,-11.0,-17.0,-2.0,1651067685800181.0,2
759,-3.0,-8.0,-10.0,-6.0,-4.0,0.0,8.0,-4.0,1651067685800181.0,2
760,-2.0,-4.0,-8.0,-3.0,-2.0,-6.0,-7.0,-3.0,1651067685822308.0,2
761,-4.0,4.0,2.0,3.0,4.0,6.0,0.0,-13.0,1651067685822308.0,2
762,4.0,2.0,8.0,4.0,10.0,4.0,-1.0,11.0,1651067685824253.0,2
763,19.0,10.0,17.0,10.0,9.0,9.0,9.0,29.0,1651067685824253.0,2
764,-5.0,-4.0,0.0,-2.0,-7.0,-3.0,-3.0,-6.0,1651067685837284.0,2
765,4.0,0.0,-7.0,-6.0,-10.0,-8.0,-7.0,-3.0,1651067685837284.0,2
766,1.0,1.0,-2.0,-2.0,2.0,0.0,10.0,2.0,1651067685839213.0,2
767,-18.0,-9.0,-9.0,0.0,7.0,1.0,-13.0,-24.0,1651067685839213.0,2
768,8.0,6.0,3.0,-2.0,-5.0,1.0,8.0,5.0,1651067685851248.0,2
769,0.0,6.0,8.0,2.0,4.0,3.0,-4.0,0.0,1651067685851248.0,2
770,3.0,-2.0,0.0,1.0,1.0,3.0,5.0,7.0,1651067685860272.0,2
771,-5.0,-6.0,-4.0,5.0,8.0,0.0,-10.0,-9.0,1651067685860272.0,2
772,-5.0,-12.0,-22.0,-25.0,-29.0,-20.0,-5.0,-10.0,1651067685874404.0,2
773,-3.0,6.0,9.0,8.0,2.0,3.0,0.0,4.0,1651067685874404.0,2
774,-5.0,-2.0,-4.0,1.0,16.0,6.0,-3.0,-14.0,1651067685881417.0,2
775,-3.0,-8.0,-11.0,-4.0,1.0,-1.0,4.0,7.0,1651067685881417.0,2
776,16.0,6.0,9.0,-2.0,-5.0,-2.0,1.0,29.0,1651067685897212.0,2
777,1.0,-4.0,-7.0,-9.0,-15.0,-12.0,-12.0,-2.0,1651067685897212.0,2
778,-1.0,0.0,-6.0,-3.0,-11.0,-14.0,-18.0,-10.0,1651067685899236.0,2
779,-7.0,-4.0,-1.0,-5.0,-9.0,-2.0,7.0,-17.0,1651067685899236.0,2
780,-5.0,-2.0,-3.0,4.0,9.0,6.0,10.0,0.0,1651067685919425.0,2
781,0.0,-1.0,2.0,-3.0,-4.0,-3.0,10.0,14.0,1651067685919425.0,2
782,-4.0,-5.0,-5.0,-6.0,-7.0,-2.0,-9.0,-9.0,1651067685921354.0,2
783,-7.0,-2.0,2.0,8.0,9.0,-2.0,-1.0,-4.0,1651067685921354.0,2
784,-1.0,2.0,-7.0,-6.0,-16.0,-9.0,-7.0,2.0,1651067685933854.0,2
785,3.0,1.0,9.0,12.0,19.0,10.0,6.0,2.0,1651067685933854.0,2
786,6.0,-1.0,-3.0,-4.0,-2.0,1.0,5.0,-3.0,1651067685940837.0,2
787,1.0,4.0,11.0,4.0,0.0,2.0,6.0,11.0,1651067685940837.0,2
788,-9.0,-7.0,-4.0,-6.0,-3.0,0.0,-4.0,-29.0,1651067685957027.0,2
789,3.0,-1.0,-5.0,3.0,7.0,1.0,-5.0,2.0,1651067685957027.0,2
790,20.0,6.0,0.0,2.0,2.0,6.0,30.0,57.0,1651067685958952.0,2
791,8.0,3.0,-4.0,-8.0,-7.0,-3.0,-3.0,-7.0,1651067685958952.0,2
792,-14.0,2.0,12.0,14.0,3.0,-3.0,-18.0,-27.0,1651067685979423.0,2
793,-3.0,-1.0,1.0,2.0,15.0,6.0,12.0,9.0,1651067685979423.0,2
794,-6.0,-7.0,-12.0,-17.0,-23.0,-3.0,-3.0,-13.0,1651067685981350.0,2
795,7.0,2.0,-6.0,2.0,1.0,3.0,9.0,23.0,1651067685981350.0,2
796,0.0,0.0,-2.0,-1.0,1.0,0.0,3.0,-2.0,1651067685994387.0,2
797,-3.0,-3.0,-7.0,-6.0,-10.0,-15.0,-15.0,-9.0,1651067685994387.0,2
798,2.0,2.0,6.0,4.0,2.0,5.0,5.0,11.0,1651067685996338.0,2
799,-4.0,-5.0,-9.0,2.0,0.0,-3.0,-7.0,-18.0,1651067685996338.0,2
800,11.0,14.0,16.0,4.0,0.0,-3.0,-4.0,8.0,1651067686017471.0,2
801,-9.0,-22.0,-33.0,-18.0,-10.0,0.0,-1.0,4.0,1651067686017471.0,2
802,-4.0,4.0,11.0,4.0,-1.0,-4.0,0.0,-6.0,1651067686018508.0,2
803,5.0,2.0,7.0,-4.0,-10.0,-4.0,-1.0,6.0,1651067686018508.0,2
804,5.0,4.0,6.0,14.0,25.0,16.0,12.0,9.0,1651067686039704.0,2
805,-4.0,-2.0,-3.0,-7.0,-11.0,2.0,0.0,-2.0,1651067686039704.0,2
806,7.0,6.0,8.0,5.0,1.0,-2.0,-12.0,5.0,1651067686041700.0,2
807,0.0,0.0,-5.0,-7.0,-10.0,4.0,20.0,12.0,1651067686041700.0,2
808,-9.0,-7.0,-7.0,0.0,11.0,-2.0,-6.0,0.0,1651067686054731.0,2
809,1.0,1.0,9.0,10.0,-11.0,-6.0,-1.0,-19.0,1651067686054731.0,2
810,-6.0,-6.0,-9.0,3.0,25.0,6.0,-12.0,-17.0,1651067686056659.0,2
811,2.0,-6.0,-4.0,-3.0,-3.0,-5.0,2.0,2.0,1651067686056659.0,2
812,0.0,1.0,-1.0,-5.0,-9.0,-7.0,-2.0,9.0,1651067686077358.0,2
813,-1.0,-6.0,-13.0,-8.0,-13.0,-4.0,10.0,3.0,1651067686077358.0,2
814,3.0,11.0,16.0,15.0,-1.0,-1.0,4.0,0.0,1651067686079351.0,2
815,2.0,11.0,13.0,3.0,11.0,3.0,3.0,2.0,1651067686079351.0,2
816,1.0,-5.0,-11.0,-6.0,1.0,2.0,6.0,8.0,1651067686100311.0,2
817,5.0,5.0,12.0,9.0,18.0,8.0,-1.0,-11.0,1651067686100311.0,2
818,-2.0,4.0,6.0,-1.0,-11.0,-7.0,-7.0,-2.0,1651067686102298.0,2
819,-7.0,-7.0,-11.0,-10.0,-15.0,-9.0,-9.0,-6.0,1651067686102298.0,2
820,-4.0,-8.0,-9.0,-4.0,-2.0,1.0,-2.0,-8.0,1651067686114508.0,2
821,3.0,4.0,1.0,-2.0,0.0,0.0,-10.0,-1.0,1651067686114508.0,2
822,-2.0,-3.0,-2.0,3.0,4.0,1.0,-2.0,-12.0,1651067686121318.0,2
823,5.0,1.0,3.0,-1.0,-1.0,0.0,4.0,17.0,1651067686121318.0,2
824,-13.0,-9.0,-9.0,-10.0,-15.0,-9.0,-10.0,-18.0,1651067686137665.0,2
825,0.0,-3.0,-1.0,-6.0,-14.0,-13.0,-12.0,3.0,1651067686137665.0,2
826,-11.0,-9.0,-10.0,1.0,11.0,9.0,15.0,-3.0,1651067686138663.0,2
827,-10.0,-2.0,-1.0,-1.0,-2.0,-6.0,-18.0,-27.0,1651067686138663.0,2
828,6.0,5.0,4.0,11.0,-1.0,0.0,0.0,8.0,1651067686160190.0,2
829,3.0,1.0,5.0,6.0,23.0,13.0,-1.0,6.0,1651067686160190.0,2
830,-2.0,2.0,5.0,1.0,-2.0,-4.0,-3.0,-2.0,1651067686161195.0,2
831,-6.0,-11.0,-9.0,0.0,7.0,9.0,-7.0,-12.0,1651067686161195.0,2
832,4.0,15.0,10.0,5.0,2.0,-1.0,-4.0,-5.0,1651067686173677.0,2
833,0.0,0.0,4.0,4.0,2.0,2.0,8.0,4.0,1651067686173677.0,2
834,2.0,1.0,-3.0,-4.0,-7.0,-3.0,-2.0,-5.0,1651067686180726.0,2
835,2.0,0.0,-2.0,-3.0,-6.0,-2.0,6.0,9.0,1651067686180726.0,2
836,10.0,6.0,6.0,13.0,32.0,23.0,3.0,2.0,1651067686197712.0,2
837,-1.0,4.0,8.0,3.0,-4.0,-4.0,1.0,0.0,1651067686197712.0,2
838,-6.0,-7.0,-9.0,-6.0,-6.0,-1.0,3.0,-6.0,1651067686198711.0,2
839,9.0,9.0,7.0,-3.0,-9.0,-6.0,-5.0,5.0,1651067686198711.0,2
840,-2.0,-4.0,-3.0,0.0,-4.0,-4.0,1.0,5.0,1651067686219853.0,2
841,0.0,3.0,5.0,-2.0,-9.0,-2.0,-6.0,-5.0,1651067686219853.0,2
842,2.0,1.0,-5.0,3.0,6.0,3.0,5.0,2.0,1651067686221808.0,2
843,4.0,4.0,3.0,2.0,14.0,11.0,-6.0,-5.0,1651067686221808.0,2
844,-2.0,-7.0,-6.0,-2.0,-7.0,-3.0,12.0,18.0,1651067686233858.0,2
845,-1.0,4.0,2.0,-1.0,2.0,-1.0,0.0,-9.0,1651067686233858.0,2
846,-8.0,-9.0,-8.0,-5.0,-8.0,-7.0,-19.0,-11.0,1651067686240841.0,2
847,9.0,5.0,-2.0,3.0,6.0,9.0,31.0,19.0,1651067686240841.0,2
848,-7.0,-5.0,0.0,-1.0,2.0,0.0,0.0,-7.0,1651067686256851.0,2
849,2.0,0.0,-6.0,-6.0,-13.0,-9.0,3.0,3.0,1651067686256851.0,2
850,-4.0,-5.0,0.0,1.0,3.0,-2.0,-11.0,-9.0,1651067686258847.0,2
851,5.0,0.0,3.0,4.0,4.0,4.0,8.0,8.0,1651067686258847.0,2
852,-4.0,-3.0,-2.0,-4.0,-1.0,-2.0,-4.0,-11.0,1651067686280107.0,2
853,0.0,1.0,-1.0,-4.0,-10.0,-5.0,-1.0,-3.0,1651067686280107.0,2
854,-1.0,0.0,2.0,0.0,4.0,0.0,-5.0,0.0,1651067686281039.0,2
855,-3.0,-2.0,0.0,-1.0,-2.0,-4.0,-7.0,-1.0,1651067686281039.0,2
856,-2.0,-1.0,-3.0,-6.0,-9.0,-8.0,-6.0,-6.0,1651067686295023.0,2
857,2.0,4.0,4.0,6.0,1.0,-3.0,-2.0,-3.0,1651067686295023.0,2
858,9.0,7.0,4.0,1.0,6.0,9.0,15.0,20.0,1651067686300986.0,2
859,-10.0,-6.0,-4.0,-5.0,-11.0,-4.0,-11.0,-15.0,1651067686300986.0,2
860,3.0,-3.0,-7.0,4.0,17.0,8.0,4.0,10.0,1651067686317160.0,2
861,-1.0,-3.0,-6.0,-2.0,0.0,0.0,3.0,-1.0,1651067686317160.0,2
862,0.0,0.0,8.0,1.0,-8.0,-11.0,-3.0,5.0,1651067686319116.0,2
863,-6.0,-6.0,-9.0,-2.0,4.0,3.0,-17.0,-24.0,1651067686319116.0,2
864,6.0,2.0,2.0,-3.0,-15.0,-2.0,28.0,25.0,1651067686339929.0,2
865,7.0,2.0,3.0,5.0,16.0,5.0,-5.0,9.0,1651067686339929.0,2
866,-1.0,2.0,5.0,-2.0,-14.0,-4.0,-3.0,-7.0,1651067686340953.0,2
867,0.0,1.0,4.0,-2.0,0.0,0.0,0.0,6.0,1651067686340953.0,2
868,2.0,1.0,-1.0,-4.0,-6.0,-10.0,-19.0,-8.0,1651067686353892.0,2
869,-8.0,-5.0,-5.0,-13.0,-22.0,2.0,12.0,3.0,1651067686353892.0,2
870,-3.0,-2.0,-8.0,0.0,20.0,-5.0,-7.0,-4.0,1651067686362879.0,2
871,3.0,2.0,2.0,7.0,17.0,14.0,0.0,5.0,1651067686362879.0,2
872,-3.0,-3.0,-3.0,-8.0,-6.0,-2.0,-1.0,-9.0,1651067686377369.0,2
873,6.0,1.0,-6.0,-9.0,-18.0,-10.0,-4.0,16.0,1651067686377369.0,2
874,-9.0,-7.0,-6.0,0.0,11.0,5.0,-3.0,-23.0,1651067686379320.0,2
875,-4.0,-3.0,2.0,4.0,-7.0,-14.0,-2.0,6.0,1651067686379320.0,2
876,-3.0,-3.0,-1.0,-2.0,-7.0,-4.0,-14.0,-11.0,1651067686399485.0,2
877,-3.0,-1.0,1.0,1.0,2.0,0.0,5.0,3.0,1651067686399485.0,2
878,7.0,2.0,-2.0,-5.0,-10.0,-2.0,17.0,16.0,1651067686401415.0,2
879,1.0,-1.0,-4.0,5.0,11.0,3.0,2.0,-3.0,1651067686401415.0,2
880,0.0,-3.0,-3.0,-3.0,-5.0,0.0,1.0,3.0,1651067686413449.0,2
881,-8.0,-4.0,0.0,4.0,0.0,-8.0,-15.0,-20.0,1651067686413449.0,2
882,4.0,2.0,0.0,2.0,-8.0,9.0,14.0,9.0,1651067686422681.0,2
883,-7.0,-2.0,-4.0,-6.0,-2.0,-5.0,-4.0,-5.0,1651067686422681.0,2
884,5.0,3.0,5.0,3.0,2.0,4.0,-4.0,0.0,1651067686437192.0,2
885,-2.0,-1.0,2.0,3.0,28.0,10.0,-2.0,-9.0,1651067686437192.0,2
886,8.0,1.0,-5.0,-7.0,-17.0,-5.0,17.0,17.0,1651067686439147.0,2
887,0.0,-2.0,-6.0,-2.0,-9.0,-3.0,2.0,5.0,1651067686439147.0,2
888,-5.0,0.0,1.0,0.0,0.0,-5.0,-12.0,-11.0,1651067686459948.0,2
889,3.0,1.0,1.0,2.0,0.0,4.0,6.0,13.0,1651067686459948.0,2
890,1.0,3.0,4.0,0.0,-7.0,-7.0,-19.0,-9.0,1651067686460946.0,2
891,-4.0,0.0,4.0,0.0,2.0,0.0,4.0,-5.0,1651067686460946.0,2
892,0.0,0.0,3.0,3.0,-4.0,-4.0,-2.0,-12.0,1651067686473511.0,2
893,1.0,-4.0,-7.0,-4.0,2.0,1.0,0.0,9.0,1651067686473511.0,2
894,-5.0,-4.0,-4.0,-3.0,-5.0,-5.0,-10.0,-11.0,1651067686488353.0,2
895,-1.0,-2.0,-3.0,-6.0,-14.0,-8.0,-6.0,-2.0,1651067686488353.0,2
896,2.0,1.0,-2.0,3.0,14.0,4.0,-2.0,2.0,1651067686497330.0,2
897,0.0,1.0,7.0,3.0,-3.0,6.0,14.0,2.0,1651067686497330.0,2
898,-6.0,-2.0,2.0,3.0,11.0,2.0,1.0,-6.0,1651067686499260.0,2
899,4.0,0.0,-1.0,-1.0,0.0,-17.0,-9.0,-3.0,1651067686499260.0,2
900,-2.0,-1.0,2.0,-6.0,-3.0,17.0,11.0,-2.0,1651067686520265.0,2
901,0.0,-3.0,-5.0,-3.0,-2.0,-5.0,-4.0,1.0,1651067686520265.0,2
902,3.0,4.0,8.0,3.0,0.0,2.0,1.0,2.0,1651067686521202.0,2
903,-3.0,0.0,0.0,-1.0,-12.0,-3.0,-1.0,0.0,1651067686521202.0,2
904,-2.0,0.0,-1.0,0.0,-6.0,-10.0,-5.0,0.0,1651067686533235.0,2
905,0.0,1.0,-5.0,-3.0,6.0,9.0,4.0,-6.0,1651067686533235.0,2
906,2.0,4.0,7.0,4.0,-3.0,1.0,1.0,7.0,1651067686542158.0,2
907,-2.0,-4.0,0.0,0.0,-2.0,-1.0,-2.0,-2.0,1651067686542158.0,2
908,-1.0,-1.0,0.0,4.0,6.0,3.0,3.0,-2.0,1651067686557291.0,2
909,-1.0,0.0,1.0,0.0,-5.0,-4.0,-2.0,-2.0,1651067686557291.0,2
910,-4.0,-5.0,-4.0,-7.0,-15.0,-10.0,-3.0,3.0,1651067686559231.0,2
911,8.0,4.0,5.0,7.0,28.0,21.0,10.0,8.0,1651067686559231.0,2
912,4.0,2.0,2.0,0.0,-2.0,-2.0,8.0,6.0,1651067686579518.0,2
913,-6.0,-4.0,-5.0,-2.0,-12.0,-11.0,-9.0,-10.0,1651067686579518.0,2
914,-7.0,0.0,2.0,2.0,15.0,7.0,-9.0,-8.0,1651067686581470.0,2
915,-1.0,3.0,2.0,2.0,-6.0,0.0,-2.0,-2.0,1651067686581470.0,2
916,3.0,1.0,0.0,6.0,5.0,2.0,1.0,-2.0,1651067686593476.0,2
917,0.0,0.0,2.0,-3.0,0.0,2.0,-3.0,-1.0,1651067686593476.0,2
918,4.0,2.0,0.0,-3.0,-12.0,-9.0,-3.0,7.0,1651067686602618.0,2
919,-2.0,3.0,6.0,8.0,21.0,18.0,2.0,2.0,1651067686602618.0,2
920,4.0,4.0,3.0,-2.0,-1.0,1.0,2.0,12.0,1651067686617737.0,2
921,-11.0,-6.0,-5.0,-2.0,6.0,2.0,6.0,-7.0,1651067686617737.0,2
922,-1.0,-2.0,-6.0,-4.0,1.0,5.0,-4.0,-3.0,1651067686618724.0,2
923,0.0,0.0,0.0,-5.0,-16.0,-11.0,1.0,2.0,1651067686618724.0,2
924,-7.0,-3.0,-3.0,-1.0,2.0,-9.0,-16.0,-23.0,1651067686639769.0,2
925,8.0,1.0,0.0,8.0,21.0,11.0,20.0,22.0,1651067686639769.0,2
926,1.0,-2.0,-2.0,-5.0,-7.0,1.0,-3.0,0.0,1651067686641697.0,2
927,-5.0,-3.0,-3.0,-5.0,-8.0,-4.0,4.0,-3.0,1651067686641697.0,2
928,-3.0,-7.0,-14.0,-6.0,-4.0,-3.0,8.0,3.0,1651067686653812.0,2
929,-3.0,0.0,4.0,0.0,-9.0,-4.0,-3.0,-8.0,1651067686653812.0,2
930,0.0,-2.0,-4.0,0.0,10.0,2.0,3.0,0.0,1651067686662056.0,2
931,-3.0,-2.0,-6.0,-5.0,-4.0,-5.0,-12.0,-7.0,1651067686662056.0,2
932,-3.0,2.0,3.0,-2.0,-9.0,-5.0,-3.0,-2.0,1651067686677205.0,2
933,-2.0,2.0,1.0,-3.0,5.0,-2.0,1.0,-8.0,1651067686677205.0,2
934,6.0,3.0,4.0,2.0,-7.0,-12.0,-10.0,10.0,1651067686679160.0,2
935,-1.0,1.0,1.0,2.0,7.0,10.0,6.0,0.0,1651067686679160.0,2
936,-4.0,-4.0,-6.0,6.0,18.0,9.0,10.0,4.0,1651067686700192.0,2
937,3.0,0.0,-4.0,1.0,-4.0,-3.0,-15.0,-7.0,1651067686700192.0,2
938,-6.0,-1.0,-1.0,-3.0,-6.0,-3.0,-3.0,-12.0,1651067686701192.0,2
939,8.0,1.0,-1.0,-7.0,-6.0,-11.0,1.0,9.0,1651067686701192.0,2
940,0.0,1.0,3.0,0.0,-5.0,-5.0,1.0,1.0,1651067686713812.0,2
941,-4.0,-3.0,-5.0,1.0,6.0,7.0,-16.0,-1.0,1651067686713812.0,2
942,-2.0,-2.0,-6.0,4.0,6.0,0.0,9.0,2.0,1651067686722823.0,2
943,-2.0,-3.0,-4.0,-3.0,-5.0,-2.0,-2.0,0.0,1651067686722823.0,2
944,-1.0,0.0,-1.0,-4.0,-8.0,-6.0,-5.0,-1.0,1651067686736897.0,2
945,5.0,6.0,10.0,1.0,1.0,-2.0,-4.0,-1.0,1651067686736897.0,2
946,2.0,2.0,-3.0,-1.0,-9.0,-2.0,1.0,0.0,1651067686738824.0,2
947,1.0,0.0,1.0,-4.0,-5.0,2.0,4.0,5.0,1651067686738824.0,2
948,4.0,1.0,2.0,6.0,16.0,7.0,1.0,7.0,1651067686758927.0,2
949,-3.0,-1.0,-1.0,-3.0,-14.0,-4.0,2.0,0.0,1651067686758927.0,2
950,0.0,2.0,2.0,1.0,10.0,15.0,-2.0,-3.0,1651067686767858.0,2
951,-2.0,-1.0,-1.0,3.0,0.0,-4.0,-5.0,-7.0,1651067686767858.0,2
952,-2.0,-5.0,-5.0,-6.0,-11.0,-2.0,-2.0,6.0,1651067686773819.0,2
953,5.0,2.0,-2.0,0.0,-7.0,-1.0,25.0,16.0,1651067686773819.0,2
954,1.0,4.0,3.0,3.0,13.0,0.0,-8.0,-4.0,1651067686781905.0,2
955,2.0,3.0,6.0,5.0,0.0,0.0,12.0,2.0,1651067686781905.0,2
956,-6.0,-4.0,-1.0,-3.0,-10.0,-4.0,-16.0,-10.0,1651067686796905.0,2
957,0.0,0.0,1.0,2.0,12.0,7.0,5.0,9.0,1651067686796905.0,2
958,-8.0,-2.0,2.0,-1.0,-9.0,-5.0,3.0,-7.0,1651067686798839.0,2
959,0.0,-2.0,-4.0,3.0,-1.0,-3.0,-1.0,2.0,1651067686798839.0,2
960,0.0,-1.0,-1.0,-2.0,1.0,3.0,-6.0,-6.0,1651067686819786.0,2
961,-4.0,-3.0,-2.0,-5.0,-8.0,-4.0,-1.0,-7.0,1651067686819786.0,2
962,2.0,2.0,3.0,5.0,6.0,0.0,-2.0,1.0,1651067686821783.0,2
963,-2.0,-5.0,-5.0,-5.0,-1.0,0.0,6.0,-2.0,1651067686821783.0,2
964,-2.0,0.0,-1.0,-2.0,-12.0,-5.0,1.0,-4.0,1651067686833855.0,2
965,0.0,0.0,-1.0,2.0,-1.0,-3.0,-9.0,-6.0,1651067686833855.0,2
966,2.0,-4.0,-3.0,-4.0,-5.0,2.0,9.0,17.0,1651067686848841.0,2
967,-2.0,-2.0,2.0,-1.0,-5.0,-7.0,-15.0,-11.0,1651067686848841.0,2
968,2.0,1.0,0.0,3.0,11.0,4.0,5.0,1.0,1651067686856972.0,2
969,0.0,0.0,0.0,-2.0,-4.0,-1.0,2.0,2.0,1651067686856972.0,2
970,-3.0,-4.0,-3.0,-3.0,-1.0,-5.0,-11.0,-12.0,1651067686863937.0,2
971,4.0,4.0,4.0,2.0,3.0,4.0,10.0,9.0,1651067686863937.0,2
972,-1.0,-2.0,-5.0,-2.0,0.0,3.0,5.0,0.0,1651067686880041.0,2
973,-1.0,-3.0,-1.0,2.0,-1.0,-4.0,-10.0,-8.0,1651067686880041.0,2
974,-2.0,1.0,0.0,-1.0,-2.0,-1.0,7.0,0.0,1651067686881019.0,2
975,0.0,1.0,-3.0,-2.0,1.0,3.0,0.0,3.0,1651067686881019.0,2
976,-4.0,1.0,2.0,-2.0,-8.0,-6.0,-5.0,-7.0,1651067686902696.0,2
977,2.0,0.0,0.0,2.0,4.0,8.0,24.0,14.0,1651067686902696.0,2
978,-2.0,-6.0,-8.0,-5.0,-1.0,2.0,-3.0,-6.0,1651067686903704.0,2
979,-2.0,1.0,2.0,-1.0,-4.0,-5.0,-11.0,-8.0,1651067686903704.0,2
980,-1.0,-1.0,3.0,0.0,0.0,1.0,-3.0,1.0,1651067686917738.0,2
981,-1.0,1.0,4.0,2.0,3.0,-2.0,-8.0,-2.0,1651067686917738.0,2
982,0.0,-2.0,0.0,-8.0,-9.0,-3.0,-4.0,-3.0,1651067686918656.0,2
983,-3.0,-2.0,1.0,3.0,2.0,1.0,-2.0,2.0,1651067686918656.0,2
984,0.0,-1.0,-8.0,-2.0,0.0,-4.0,-1.0,2.0,1651067686940290.0,2
985,0.0,1.0,1.0,3.0,6.0,2.0,4.0,0.0,1651067686940290.0,2
986,-1.0,2.0,3.0,4.0,6.0,4.0,5.0,0.0,1651067686941242.0,2
987,-2.0,-1.0,-2.0,-2.0,-1.0,-1.0,-11.0,-3.0,1651067686941242.0,2
988,0.0,-2.0,-7.0,1.0,-3.0,1.0,13.0,5.0,1651067686962769.0,2
989,0.0,0.0,6.0,0.0,-2.0,-5.0,-14.0,-9.0,1651067686962769.0,2
990,1.0,3.0,4.0,4.0,0.0,0.0,4.0,2.0,1651067686963784.0,2
991,-1.0,-1.0,2.0,-1.0,-2.0,-1.0,-6.0,-2.0,1651067686963784.0,2
992,-1.0,0.0,3.0,4.0,4.0,4.0,3.0,1.0,1651067686976801.0,2
993,-3.0,-2.0,-4.0,-4.0,-3.0,0.0,4.0,1.0,1651067686976801.0,2
994,-5.0,-3.0,-5.0,-4.0,-5.0,-3.0,-2.0,-1.0,1651067686983783.0,2
995,-1.0,-1.0,-5.0,-1.0,4.0,4.0,1.0,-1.0,1651067686983783.0,2
996,3.0,-1.0,-1.0,-6.0,-5.0,-5.0,1.0,3.0,1651067686999784.0,2
997,-2.0,2.0,9.0,20.0,12.0,1.0,-6.0,-3.0,1651067686999784.0,2
998,0.0,-1.0,-3.0,-6.0,-3.0,-1.0,5.0,3.0,1651067687001766.0,2
999,-3.0,-4.0,-15.0,-4.0,-6.0,1.0,-1.0,-6.0,1651067687001766.0,2
1000,1.0,2.0,10.0,2.0,9.0,3.0,2.0,4.0,1651067687021903.0,2
1001,-1.0,-3.0,-7.0,-19.0,-9.0,-7.0,1.0,0.0,1651067687021903.0,2
1002,0.0,5.0,19.0,16.0,3.0,-1.0,2.0,0.0,1651067687023829.0,2
1003,-1.0,-4.0,-12.0,-2.0,-1.0,-1.0,4.0,2.0,1651067687023829.0,2
1004,-1.0,-2.0,6.0,10.0,-14.0,-6.0,-5.0,-4.0,1651067687036794.0,2
1005,0.0,2.0,-5.0,-16.0,7.0,1.0,-7.0,-5.0,1651067687036794.0,2
1006,-3.0,-1.0,22.0,22.0,7.0,1.0,-2.0,-1.0,1651067687043851.0,2
1007,-1.0,-3.0,-39.0,-22.0,-13.0,-7.0,-8.0,-5.0,1651067687043851.0,2
1008,1.0,0.0,2.0,14.0,10.0,6.0,14.0,7.0,1651067687060262.0,2
1009,-3.0,-1.0,1.0,5.0,-1.0,-2.0,-10.0,-5.0,1651067687060262.0,2
1010,-1.0,-4.0,-22.0,-24.0,-12.0,-1.0,13.0,7.0,1651067687061274.0,2
1011,-3.0,-1.0,15.0,-11.0,-1.0,-2.0,-8.0,-5.0,1651067687061274.0,2
1012,2.0,5.0,19.0,-13.0,-11.0,-4.0,1.0,5.0,1651067687082725.0,2
1013,1.0,-2.0,-24.0,11.0,11.0,4.0,-2.0,-2.0,1651067687082725.0,2
1014,0.0,3.0,19.0,33.0,18.0,6.0,-4.0,-5.0,1651067687083695.0,2
1015,2.0,0.0,4.0,-5.0,-5.0,-5.0,3.0,3.0,1651067687083695.0,2
1016,-1.0,-1.0,-19.0,-2.0,6.0,1.0,-6.0,-4.0,1651067687096850.0,2
1017,0.0,-5.0,-4.0,-21.0,-11.0,-2.0,4.0,4.0,1651067687096850.0,2
1018,-1.0,-1.0,-13.0,-19.0,-7.0,-1.0,-9.0,-5.0,1651067687103830.0,2
1019,0.0,0.0,0.0,8.0,4.0,1.0,5.0,2.0,1651067687103830.0,2
1020,-4.0,-5.0,-3.0,-10.0,-7.0,-4.0,-8.0,-9.0,1651067687119713.0,2
1021,1.0,1.0,7.0,7.0,-9.0,-5.0,-3.0,0.0,1651067687119713.0,2
1022,-3.0,-6.0,-19.0,-12.0,0.0,0.0,-5.0,-7.0,1651067687121771.0,2
1023,1.0,5.0,29.0,25.0,14.0,4.0,7.0,4.0,1651067687121771.0,2
1024,12.0,5.0,-17.0,-10.0,0.0,-2.0,-8.0,-5.0,1651067687141841.0,2
1025,-17.0,-12.0,25.0,8.0,1.0,3.0,0.0,-4.0,1651067687141841.0,2
1026,2.0,0.0,-13.0,-10.0,-10.0,-4.0,2.0,5.0,1651067687143836.0,2
1027,0.0,1.0,6.0,0.0,3.0,2.0,0.0,-2.0,1651067687143836.0,2
1028,-5.0,-4.0,-5.0,9.0,6.0,0.0,-2.0,1.0,1651067687155870.0,2
1029,1.0,1.0,-10.0,5.0,-1.0,-2.0,-6.0,-6.0,1651067687155870.0,2
1030,1.0,1.0,15.0,4.0,1.0,-1.0,-1.0,0.0,1651067687165026.0,2
1031,0.0,-2.0,-7.0,1.0,2.0,1.0,0.0,3.0,1651067687165026.0,2
1032,-3.0,0.0,15.0,0.0,-3.0,1.0,2.0,0.0,1651067687180221.0,2
1033,0.0,-4.0,-9.0,-26.0,-15.0,-5.0,-4.0,-2.0,1651067687180221.0,2
1034,-2.0,-2.0,-4.0,11.0,11.0,-1.0,1.0,2.0,1651067687181222.0,2
1035,3.0,3.0,-2.0,1.0,-8.0,-2.0,3.0,3.0,1651067687181222.0,2
1036,-4.0,-3.0,-4.0,-4.0,-3.0,-3.0,-5.0,-4.0,1651067687202448.0,2
1037,0.0,4.0,14.0,10.0,9.0,7.0,5.0,3.0,1651067687202448.0,2
1038,3.0,1.0,-4.0,-6.0,-3.0,-2.0,2.0,2.0,1651067687203468.0,2
1039,-3.0,-2.0,-4.0,-6.0,-2.0,-1.0,-3.0,-7.0,1651067687203468.0,2
1040,-2.0,-1.0,-1.0,0.0,1.0,-3.0,-5.0,2.0,1651067687216412.0,2
1041,2.0,-1.0,-8.0,-4.0,-3.0,-2.0,2.0,7.0,1651067687216412.0,2
1042,-1.0,0.0,-7.0,4.0,0.0,1.0,7.0,0.0,1651067687225409.0,2
1043,-2.0,2.0,14.0,-10.0,-1.0,1.0,-4.0,-3.0,1651067687225409.0,2
1044,-3.0,0.0,4.0,18.0,12.0,9.0,7.0,6.0,1651067687239596.0,2
1045,4.0,2.0,-7.0,-5.0,-2.0,-3.0,-4.0,-3.0,1651067687239596.0,2
1046,-1.0,-3.0,-2.0,-4.0,-3.0,-1.0,-8.0,-5.0,1651067687241505.0,2
1047,-1.0,-2.0,1.0,5.0,-1.0,-1.0,7.0,5.0,1651067687241505.0,2
1048,1.0,-1.0,-11.0,-7.0,1.0,-1.0,-1.0,0.0,1651067687262700.0,2
1049,2.0,3.0,10.0,6.0,-1.0,-1.0,2.0,2.0,1651067687262700.0,2
1050,-1.0,1.0,3.0,0.0,5.0,2.0,2.0,-1.0,1651067687263655.0,2
1051,-3.0,-4.0,-2.0,3.0,1.0,0.0,-2.0,-2.0,1651067687263655.0,2
1052,-1.0,-2.0,-5.0,-5.0,-3.0,0.0,-1.0,-4.0,1651067687275753.0,2
1053,-3.0,0.0,5.0,11.0,1.0,-2.0,-1.0,-1.0,1651067687275753.0,2
1054,0.0,-1.0,-7.0,-3.0,1.0,1.0,1.0,-1.0,1651067687284795.0,2
1055,0.0,-2.0,-2.0,-4.0,-1.0,-2.0,-2.0,-1.0,1651067687284795.0,2
1056,0.0,-3.0,-2.0,-4.0,-4.0,-2.0,-1.0,-2.0,1651067687299821.0,2
1057,0.0,4.0,1.0,1.0,1.0,2.0,5.0,2.0,1651067687299821.0,2
1058,-1.0,-1.0,8.0,-1.0,-4.0,-2.0,-3.0,-1.0,1651067687301750.0,2
1059,-1.0,1.0,-4.0,0.0,-3.0,-1.0,-3.0,-1.0,1651067687301750.0,2
1060,0.0,-2.0,-1.0,-2.0,-4.0,-1.0,2.0,-1.0,1651067687322723.0,2
1061,0.0,-1.0,-4.0,-2.0,-2.0,-3.0,-3.0,-3.0,1651067687322723.0,2
1062,-1.0,-3.0,5.0,1.0,2.0,2.0,0.0,1.0,1651067687323695.0,2
1063,0.0,-1.0,-7.0,-6.0,-3.0,0.0,1.0,0.0,1651067687323695.0,2
1064,-1.0,-2.0,1.0,-3.0,1.0,2.0,0.0,0.0,1651067687335729.0,2
1065,0.0,0.0,-2.0,14.0,-4.0,-5.0,-3.0,-1.0,1651067687335729.0,2
1066,-2.0,1.0,-2.0,-10.0,-1.0,0.0,-2.0,-1.0,1651067687344754.0,2
1067,-1.0,0.0,-3.0,1.0,0.0,0.0,-2.0,-3.0,1651067687344754.0,2
1068,-1.0,0.0,1.0,-2.0,-1.0,0.0,-1.0,-1.0,1651067687359351.0,2
1069,1.0,-1.0,-5.0,-7.0,1.0,2.0,-1.0,0.0,1651067687359351.0,2
1070,0.0,-2.0,1.0,5.0,0.0,0.0,-1.0,-1.0,1651067687361346.0,2
1071,-2.0,-3.0,-3.0,2.0,0.0,-1.0,-1.0,1.0,1651067687361346.0,2
1072,-1.0,0.0,-2.0,-3.0,-1.0,-1.0,-1.0,1.0,1651067687382385.0,2
1073,-2.0,-1.0,-1.0,-4.0,1.0,-1.0,0.0,-1.0,1651067687382385.0,2
1074,0.0,-1.0,-5.0,-4.0,-7.0,-6.0,-1.0,0.0,1651067687383370.0,2
1075,1.0,0.0,0.0,2.0,-1.0,1.0,1.0,0.0,1651067687383370.0,2
1076,0.0,1.0,4.0,2.0,-5.0,-4.0,2.0,1.0,1651067687396386.0,2
1077,1.0,0.0,1.0,-2.0,1.0,0.0,-1.0,0.0,1651067687396386.0,2
1078,-2.0,-3.0,-2.0,-1.0,0.0,-1.0,-2.0,-2.0,1651067687404621.0,2
1079,-1.0,0.0,3.0,1.0,-2.0,-3.0,-4.0,-2.0,1651067687404621.0,2
1080,0.0,-2.0,-1.0,-1.0,1.0,2.0,0.0,1.0,1651067687419439.0,2
1081,0.0,-1.0,-3.0,-4.0,-3.0,0.0,0.0,-1.0,1651067687419439.0,2
1082,0.0,-1.0,1.0,-2.0,1.0,1.0,0.0,-1.0,1651067687421462.0,2
1083,-1.0,0.0,-1.0,3.0,1.0,-4.0,0.0,1.0,1651067687421462.0,2
1084,-2.0,0.0,1.0,1.0,0.0,-4.0,-3.0,-1.0,1651067687442726.0,2
1085,0.0,0.0,-10.0,-6.0,0.0,1.0,-1.0,0.0,1651067687442726.0,2
1086,0.0,3.0,11.0,4.0,2.0,7.0,1.0,0.0,1651067687443690.0,2
1087,-1.0,-2.0,-1.0,-3.0,-7.0,-4.0,-3.0,-1.0,1651067687443690.0,2
1088,1.0,0.0,2.0,7.0,26.0,16.0,3.0,-1.0,1651067687455727.0,2
1089,0.0,0.0,-5.0,-2.0,-8.0,-2.0,3.0,2.0,1651067687455727.0,2
1090,-1.0,-1.0,-3.0,1.0,2.0,-3.0,0.0,-1.0,1651067687464637.0,2
1091,0.0,-1.0,4.0,-1.0,-2.0,-1.0,0.0,-1.0,1651067687464637.0,2
1092,-1.0,-3.0,-2.0,-7.0,-9.0,-6.0,-3.0,-3.0,1651067687487363.0,2
1093,-1.0,0.0,2.0,-1.0,-6.0,-9.0,-5.0,-2.0,1651067687487363.0,2
1094,1.0,1.0,-6.0,3.0,8.0,8.0,3.0,0.0,1651067687489351.0,2
1095,0.0,1.0,2.0,3.0,2.0,1.0,1.0,-1.0,1651067687489351.0,2
1096,-1.0,0.0,-2.0,0.0,-3.0,-2.0,-1.0,-3.0,1651067687502330.0,2
1097,0.0,-1.0,0.0,1.0,-1.0,1.0,0.0,1.0,1651067687502330.0,2
1098,-1.0,0.0,10.0,1.0,-6.0,-5.0,-5.0,-1.0,1651067687504313.0,2
1099,-1.0,-3.0,-18.0,-8.0,2.0,2.0,-2.0,-1.0,1651067687504313.0,2
1100,1.0,1.0,0.0,-3.0,-5.0,-2.0,1.0,0.0,1651067687516313.0,2
1101,-1.0,0.0,0.0,-2.0,-3.0,-1.0,-2.0,-2.0,1651067687516313.0,2
1102,1.0,0.0,0.0,-1.0,-2.0,-3.0,0.0,-2.0,1651067687525256.0,2
1103,1.0,-2.0,6.0,4.0,7.0,7.0,2.0,2.0,1651067687525256.0,2
1104,1.0,-1.0,-2.0,0.0,-4.0,-4.0,-1.0,2.0,1651067687540245.0,2
1105,-1.0,-1.0,-3.0,-5.0,-3.0,-4.0,0.0,0.0,1651067687540245.0,2
1106,0.0,0.0,3.0,2.0,1.0,-1.0,-1.0,-1.0,1651067687541251.0,2
1107,-1.0,1.0,2.0,2.0,4.0,6.0,-2.0,-1.0,1651067687541251.0,2
1108,-1.0,0.0,-3.0,-1.0,-4.0,-3.0,-3.0,-1.0,1651067687562718.0,2
1109,0.0,-2.0,-1.0,-1.0,0.0,-2.0,-1.0,-1.0,1651067687562718.0,2
1110,0.0,0.0,-6.0,-4.0,-6.0,-4.0,-1.0,-1.0,1651067687563719.0,2
1111,1.0,0.0,5.0,2.0,0.0,-1.0,-1.0,0.0,1651067687563719.0,2
1112,-2.0,2.0,1.0,1.0,3.0,0.0,0.0,1.0,1651067687585184.0,2
1113,0.0,-2.0,1.0,0.0,3.0,4.0,0.0,0.0,1651067687585184.0,2
1114,-1.0,1.0,-2.0,-2.0,-3.0,-3.0,0.0,-1.0,1651067687586334.0,2
1115,-2.0,0.0,3.0,-1.0,0.0,0.0,1.0,0.0,1651067687586334.0,2
1116,-1.0,-1.0,-1.0,0.0,-2.0,-1.0,-2.0,-1.0,1651067687600247.0,2
1117,-2.0,-2.0,1.0,-2.0,-2.0,-2.0,-2.0,-3.0,1651067687600247.0,2
1118,1.0,-2.0,-5.0,-3.0,-1.0,0.0,0.0,-1.0,1651067687601256.0,2
1119,2.0,1.0,3.0,3.0,5.0,-3.0,1.0,2.0,1651067687601256.0,2
1120,-1.0,1.0,0.0,-1.0,-4.0,-1.0,1.0,0.0,1651067687622234.0,2
1121,-2.0,0.0,-1.0,2.0,3.0,2.0,2.0,-1.0,1651067687622234.0,2
1122,-2.0,-2.0,-6.0,-2.0,-2.0,-2.0,-2.0,-1.0,1651067687624212.0,2
1123,-2.0,-1.0,2.0,1.0,-4.0,-1.0,-1.0,-2.0,1651067687624212.0,2
1124,-1.0,-2.0,-4.0,-4.0,0.0,-3.0,-2.0,1.0,1651067687636220.0,2
1125,1.0,0.0,1.0,1.0,4.0,1.0,1.0,-2.0,1651067687636220.0,2
1126,0.0,-3.0,-8.0,-3.0,-6.0,-3.0,-2.0,1.0,1651067687645129.0,2
1127,0.0,1.0,9.0,4.0,5.0,4.0,0.0,-2.0,1651067687645129.0,2
1128,-1.0,-4.0,-4.0,-4.0,-9.0,-3.0,0.0,-2.0,1651067687660147.0,2
1129,0.0,1.0,7.0,2.0,4.0,2.0,-1.0,0.0,1651067687660147.0,2
1130,1.0,0.0,1.0,-3.0,0.0,-1.0,-1.0,1.0,1651067687661144.0,2
1131,1.0,0.0,-2.0,-2.0,-4.0,-4.0,-2.0,-1.0,1651067687661144.0,2
1132,-1.0,-1.0,-2.0,2.0,1.0,2.0,-1.0,-1.0,1651067687682115.0,2
1133,-1.0,0.0,-1.0,-1.0,-5.0,2.0,2.0,0.0,1651067687682115.0,2
1134,-3.0,-3.0,-4.0,-3.0,-3.0,-4.0,-4.0,-3.0,1651067687684105.0,0
1135,0.0,0.0,0.0,1.0,0.0,-2.0,-1.0,-1.0,1651067687684105.0,0
1136,0.0,1.0,0.0,-1.0,-4.0,-3.0,-2.0,0.0,1651067687696117.0,0
1137,0.0,-3.0,-3.0,-1.0,4.0,-1.0,-2.0,-1.0,1651067687696117.0,0
1138,0.0,2.0,-2.0,1.0,6.0,7.0,2.0,4.0,1651067687705151.0,0
1139,-1.0,-1.0,1.0,2.0,-2.0,-1.0,-1.0,0.0,1651067687705151.0,0
1140,1.0,1.0,3.0,-1.0,0.0,0.0,0.0,1.0,1651067687720218.0,0
1141,-2.0,-2.0,-1.0,0.0,-5.0,-6.0,-3.0,0.0,1651067687720218.0,0
1142,-1.0,0.0,-2.0,2.0,2.0,2.0,3.0,-2.0,1651067687721216.0,0
1143,-1.0,-2.0,-6.0,-3.0,-2.0,0.0,0.0,0.0,1651067687721216.0,0
1144,0.0,2.0,3.0,3.0,1.0,-1.0,0.0,1.0,1651067687742451.0,0
1145,0.0,-1.0,-3.0,-2.0,-2.0,-2.0,0.0,0.0,1651067687742451.0,0
1146,0.0,-1.0,1.0,2.0,1.0,0.0,-1.0,0.0,1651067687743449.0,0
1147,-1.0,-2.0,-4.0,-3.0,0.0,1.0,0.0,1.0,1651067687743449.0,0
1148,-1.0,-2.0,-1.0,-2.0,1.0,0.0,-1.0,-2.0,1651067687756439.0,0
1149,-3.0,0.0,-2.0,-2.0,2.0,0.0,-3.0,0.0,1651067687756439.0,0
1150,0.0,-2.0,-1.0,-3.0,-6.0,-7.0,-1.0,-1.0,1651067687765435.0,0
1151,0.0,0.0,-2.0,-1.0,-3.0,2.0,-1.0,-1.0,1651067687765435.0,0
1152,1.0,0.0,2.0,4.0,2.0,-1.0,0.0,-1.0,1651067687779453.0,0
1153,1.0,-2.0,-1.0,2.0,4.0,4.0,3.0,1.0,1651067687779453.0,0
1154,0.0,1.0,2.0,0.0,0.0,0.0,-2.0,-2.0,1651067687781425.0,0
1155,-1.0,-3.0,-4.0,-5.0,-1.0,-4.0,-2.0,0.0,1651067687781425.0,0
1156,-1.0,1.0,0.0,-3.0,0.0,2.0,-1.0,-2.0,1651067687802486.0,0
1157,1.0,0.0,0.0,1.0,-1.0,-1.0,-2.0,-1.0,1651067687802486.0,0
1158,-2.0,-1.0,-3.0,0.0,0.0,-1.0,-1.0,1.0,1651067687803475.0,0
1159,-1.0,1.0,-1.0,0.0,0.0,-2.0,0.0,-2.0,1651067687803475.0,0
1160,0.0,-1.0,1.0,0.0,0.0,2.0,1.0,1.0,1651067687824573.0,0
1161,-2.0,0.0,1.0,-1.0,-1.0,-2.0,0.0,-3.0,1651067687824573.0,0
1162,0.0,0.0,1.0,-1.0,-4.0,-4.0,-1.0,0.0,1651067687826571.0,0
1163,-1.0,0.0,0.0,2.0,-5.0,-10.0,-1.0,0.0,1651067687826571.0,0
1164,0.0,0.0,2.0,7.0,20.0,19.0,2.0,0.0,1651067687839603.0,0
1165,-3.0,-2.0,-2.0,-3.0,-3.0,-1.0,0.0,-1.0,1651067687839603.0,0
1166,0.0,-1.0,0.0,-1.0,1.0,1.0,-1.0,-1.0,1651067687841565.0,0
1167,0.0,-1.0,1.0,0.0,-7.0,-4.0,-3.0,-2.0,1651067687841565.0,0
1168,0.0,0.0,-4.0,-5.0,-9.0,-8.0,-3.0,-3.0,1651067687862258.0,0
1169,0.0,-1.0,-1.0,0.0,1.0,-1.0,-3.0,1.0,1651067687862258.0,0
1170,-1.0,0.0,-1.0,1.0,2.0,3.0,1.0,-1.0,1651067687864254.0,0
1171,1.0,-2.0,-1.0,-2.0,-1.0,0.0,-1.0,0.0,1651067687864254.0,0
1172,-1.0,-2.0,-1.0,-1.0,-2.0,-1.0,-1.0,1.0,1651067687884730.0,0
1173,0.0,0.0,1.0,0.0,2.0,1.0,1.0,-1.0,1651067687884730.0,0
1174,-1.0,-1.0,-2.0,-1.0,-3.0,-3.0,-3.0,-2.0,1651067687886693.0,0
1175,1.0,1.0,1.0,-2.0,0.0,-1.0,1.0,1.0,1651067687886693.0,0
1176,-1.0,1.0,3.0,3.0,1.0,1.0,1.0,-1.0,1651067687899689.0,0
1177,2.0,2.0,1.0,3.0,2.0,7.0,4.0,1.0,1651067687899689.0,0
1178,-1.0,-1.0,-1.0,0.0,1.0,-1.0,-2.0,-2.0,1651067687901626.0,0
1179,-1.0,-1.0,-3.0,-1.0,0.0,-2.0,-2.0,-2.0,1651067687901626.0,0
1180,-3.0,0.0,-2.0,-3.0,-5.0,-7.0,1.0,-1.0,1651067687922698.0,0
1181,-2.0,-1.0,0.0,-2.0,-2.0,-3.0,-3.0,-2.0,1651067687922698.0,0
1182,-1.0,0.0,0.0,0.0,-1.0,2.0,0.0,1.0,1651067687923654.0,0
1183,-1.0,-1.0,-1.0,1.0,2.0,2.0,1.0,-1.0,1651067687923654.0,0
1184,1.0,-1.0,-1.0,-2.0,-7.0,-8.0,-3.0,0.0,1651067687945303.0,0
1185,-1.0,-1.0,-1.0,-3.0,-10.0,0.0,0.0,-1.0,1651067687945303.0,0
1186,0.0,0.0,1.0,-1.0,6.0,0.0,0.0,-2.0,1651067687946303.0,0
1187,0.0,-1.0,1.0,3.0,4.0,3.0,-1.0,-1.0,1651067687946303.0,0
1188,0.0,-2.0,-2.0,-4.0,-10.0,-1.0,3.0,0.0,1651067687959267.0,0
1189,-1.0,-1.0,-1.0,-1.0,2.0,-2.0,-5.0,-1.0,1651067687959267.0,0
1190,-2.0,0.0,1.0,-2.0,-12.0,-5.0,0.0,-3.0,1651067687966308.0,0
1191,-1.0,2.0,-1.0,0.0,1.0,-2.0,-1.0,-2.0,1651067687966308.0,0
1192,-2.0,0.0,0.0,1.0,4.0,-2.0,-2.0,0.0,1651067687982234.0,0
1193,0.0,-2.0,-1.0,-2.0,-2.0,0.0,0.0,0.0,1651067687982234.0,0
1194,0.0,-1.0,-4.0,0.0,0.0,2.0,1.0,0.0,1651067687984201.0,0
1195,-1.0,0.0,3.0,0.0,-3.0,-2.0,-1.0,1.0,1651067687984201.0,0
1196,1.0,-1.0,0.0,0.0,-2.0,3.0,1.0,0.0,1651067688004759.0,0
1197,0.0,0.0,-1.0,0.0,2.0,3.0,2.0,0.0,1651067688004759.0,0
1198,0.0,0.0,-2.0,1.0,1.0,0.0,0.0,0.0,1651067688006749.0,0
1199,-2.0,1.0,3.0,1.0,-4.0,-1.0,-2.0,-1.0,1651067688006749.0,0
1200,-4.0,-1.0,-1.0,-1.0,-2.0,-4.0,-1.0,-1.0,1651067688018825.0,0
1201,0.0,0.0,1.0,3.0,3.0,0.0,0.0,-1.0,1651067688018825.0,0
1202,-1.0,-2.0,-1.0,-2.0,2.0,0.0,-2.0,-1.0,1651067688025835.0,0
1203,1.0,0.0,-4.0,-1.0,-3.0,-1.0,-3.0,0.0,1651067688025835.0,0
1204,-1.0,2.0,3.0,2.0,-1.0,0.0,-1.0,1.0,1651067688041948.0,0
1205,-1.0,-1.0,-4.0,-2.0,-11.0,-4.0,-1.0,-1.0,1651067688041948.0,0
1206,1.0,0.0,1.0,2.0,11.0,4.0,0.0,0.0,1651067688043917.0,0
1207,1.0,0.0,2.0,-1.0,-3.0,-4.0,1.0,-1.0,1651067688043917.0,0
1208,0.0,-1.0,-2.0,-1.0,0.0,-4.0,-2.0,0.0,1651067688065161.0,0
1209,-2.0,-2.0,0.0,-1.0,0.0,0.0,0.0,0.0,1651067688065161.0,0
1210,0.0,1.0,1.0,0.0,-4.0,0.0,-1.0,-1.0,1651067688066300.0,0
1211,-1.0,0.0,0.0,-1.0,0.0,1.0,1.0,0.0,1651067688066300.0,0
1212,1.0,-2.0,-1.0,-1.0,-1.0,1.0,1.0,-2.0,1651067688079333.0,0
1213,0.0,0.0,1.0,-1.0,-1.0,-6.0,-4.0,1.0,1651067688079333.0,0
1214,-1.0,0.0,1.0,-2.0,-5.0,-1.0,-2.0,0.0,1651067688086360.0,0
1215,-1.0,0.0,-4.0,0.0,5.0,5.0,-1.0,1.0,1651067688086360.0,0
1216,0.0,-1.0,0.0,-1.0,-1.0,-1.0,-2.0,-1.0,1651067688102714.0,0
1217,-1.0,0.0,2.0,1.0,4.0,2.0,-1.0,1.0,1651067688102714.0,0
1218,-1.0,0.0,1.0,1.0,-2.0,-3.0,-1.0,0.0,1651067688103702.0,0
1219,-1.0,1.0,-1.0,-1.0,-3.0,1.0,1.0,0.0,1651067688103702.0,0
1220,0.0,-1.0,0.0,0.0,0.0,1.0,-2.0,0.0,1651067688124553.0,0
1221,-2.0,0.0,-1.0,2.0,-2.0,-2.0,1.0,0.0,1651067688124553.0,0
1222,1.0,0.0,1.0,-3.0,-4.0,-4.0,0.0,0.0,1651067688126577.0,0
1223,-1.0,-2.0,-5.0,2.0,9.0,7.0,2.0,2.0,1651067688126577.0,0
1224,0.0,0.0,6.0,5.0,8.0,3.0,0.0,0.0,1651067688138671.0,0
1225,-1.0,0.0,-1.0,-1.0,1.0,0.0,0.0,-2.0,1651067688138671.0,0
1226,-1.0,-2.0,-3.0,-4.0,-5.0,-4.0,0.0,-1.0,1651067688145699.0,0
1227,-2.0,0.0,1.0,-1.0,-3.0,1.0,0.0,-2.0,1651067688145699.0,0
1228,-1.0,-2.0,-6.0,-4.0,-3.0,-2.0,-1.0,-2.0,1651067688162757.0,0
1229,-1.0,-3.0,0.0,2.0,5.0,2.0,-1.0,-1.0,1651067688162757.0,0
1230,2.0,2.0,3.0,1.0,-3.0,3.0,3.0,2.0,1651067688163702.0,0
1231,-1.0,-1.0,-2.0,-1.0,0.0,-4.0,-2.0,-2.0,1651067688163702.0,0
1232,-1.0,1.0,-1.0,-2.0,-2.0,0.0,-1.0,0.0,1651067688185184.0,0
1233,1.0,1.0,-1.0,-2.0,-2.0,-2.0,-1.0,0.0,1651067688185184.0,0
1234,-1.0,-1.0,-2.0,-2.0,1.0,0.0,-2.0,-1.0,1651067688186319.0,0
1235,-1.0,-2.0,-1.0,-3.0,-3.0,-2.0,-1.0,0.0,1651067688186319.0,0
1236,1.0,1.0,2.0,0.0,2.0,2.0,1.0,1.0,1651067688198738.0,0
1237,0.0,1.0,0.0,-2.0,-3.0,-3.0,-3.0,-1.0,1651067688198738.0,0
1238,-2.0,-1.0,-1.0,1.0,-1.0,-2.0,-2.0,-3.0,1651067688205719.0,0
1239,-1.0,-1.0,-3.0,-4.0,-2.0,-1.0,0.0,-1.0,1651067688205719.0,0
1240,-2.0,-1.0,-1.0,-3.0,-11.0,-6.0,-3.0,-1.0,1651067688222674.0,0
1241,0.0,0.0,-1.0,-1.0,9.0,6.0,1.0,0.0,1651067688222674.0,0
1242,-1.0,-2.0,-2.0,-1.0,2.0,2.0,2.0,1.0,1651067688223603.0,0
1243,-2.0,0.0,3.0,1.0,-6.0,-6.0,-2.0,-2.0,1651067688223603.0,0
1244,0.0,0.0,-2.0,0.0,5.0,2.0,1.0,0.0,1651067688244751.0,0
1245,1.0,1.0,-1.0,-1.0,-4.0,-1.0,0.0,1.0,1651067688244751.0,0
1246,0.0,-1.0,1.0,-2.0,-3.0,-4.0,1.0,-1.0,1651067688246716.0,0
1247,0.0,-2.0,0.0,1.0,3.0,6.0,0.0,-1.0,1651067688246716.0,0
1248,0.0,0.0,-2.0,1.0,-6.0,-5.0,-1.0,0.0,1651067688259287.0,0
1249,-1.0,-3.0,-11.0,0.0,8.0,2.0,0.0,1.0,1651067688259287.0,0
1250,1.0,1.0,9.0,3.0,3.0,-2.0,-3.0,0.0,1651067688266224.0,0
1251,0.0,1.0,0.0,-3.0,-4.0,-1.0,1.0,2.0,1651067688266224.0,0
1252,0.0,-2.0,-3.0,-1.0,1.0,4.0,1.0,-3.0,1651067688282291.0,0
1253,-1.0,1.0,2.0,-1.0,-7.0,-1.0,-3.0,-2.0,1651067688282291.0,0
1254,-1.0,-1.0,-4.0,-1.0,-2.0,-1.0,1.0,-1.0,1651067688288283.0,0
1255,1.0,0.0,0.0,0.0,-3.0,-3.0,-2.0,-2.0,1651067688288283.0,0
1256,-1.0,0.0,5.0,4.0,13.0,8.0,1.0,0.0,1651067688304354.0,0
1257,-1.0,-3.0,-2.0,-5.0,-9.0,-8.0,0.0,-1.0,1651067688304354.0,0
1258,0.0,0.0,-4.0,0.0,3.0,2.0,-1.0,2.0,1651067688306351.0,0
1259,0.0,1.0,3.0,0.0,-6.0,-4.0,1.0,0.0,1651067688306351.0,0
1260,0.0,-2.0,-7.0,-1.0,10.0,6.0,2.0,-1.0,1651067688318500.0,0
1261,0.0,0.0,1.0,1.0,-1.0,1.0,2.0,-1.0,1651067688318500.0,0
1262,0.0,0.0,-1.0,-3.0,-14.0,-2.0,-3.0,0.0,1651067688327409.0,0
1263,-2.0,-4.0,-4.0,-2.0,0.0,-4.0,-2.0,-1.0,1651067688327409.0,0
1264,0.0,1.0,5.0,2.0,8.0,6.0,0.0,0.0,1651067688342701.0,0
1265,-2.0,-3.0,-4.0,0.0,4.0,-1.0,1.0,-1.0,1651067688342701.0,0
1266,-1.0,-1.0,-4.0,-2.0,2.0,1.0,2.0,0.0,1651067688343671.0,0
1267,0.0,1.0,-2.0,0.0,-1.0,-2.0,-2.0,1.0,1651067688343671.0,0
1268,0.0,-1.0,-3.0,-5.0,-12.0,-5.0,-3.0,-1.0,1651067688365184.0,0
1269,-1.0,-1.0,1.0,-2.0,-4.0,0.0,-5.0,-3.0,1651067688365184.0,0
1270,-1.0,-1.0,-1.0,1.0,10.0,3.0,0.0,-1.0,1651067688366329.0,0
1271,0.0,-2.0,-1.0,2.0,1.0,0.0,0.0,-1.0,1651067688366329.0,0
1272,0.0,1.0,5.0,1.0,-8.0,-9.0,-1.0,0.0,1651067688378364.0,0
1273,0.0,-1.0,-2.0,-3.0,3.0,4.0,0.0,0.0,1651067688378364.0,0
1274,-1.0,-1.0,-2.0,1.0,-2.0,-4.0,-3.0,0.0,1651067688387672.0,0
1275,0.0,0.0,1.0,2.0,12.0,7.0,3.0,0.0,1651067688387672.0,0
1276,-3.0,0.0,-2.0,0.0,-6.0,3.0,-1.0,-1.0,1651067688402706.0,0
1277,0.0,1.0,2.0,2.0,2.0,0.0,1.0,2.0,1651067688402706.0,0
1278,0.0,-1.0,0.0,-3.0,-4.0,0.0,1.0,1.0,1651067688403678.0,0
1279,-1.0,3.0,5.0,-1.0,6.0,-3.0,-2.0,-1.0,1651067688403678.0,0
1280,-3.0,-5.0,-10.0,-6.0,-9.0,-6.0,-2.0,-2.0,1651067688424816.0,0
1281,2.0,2.0,7.0,4.0,3.0,0.0,2.0,-1.0,1651067688424816.0,0
1282,1.0,3.0,-1.0,2.0,1.0,-4.0,-1.0,0.0,1651067688430741.0,0
1283,0.0,1.0,1.0,2.0,10.0,16.0,2.0,3.0,1651067688430741.0,0
1284,0.0,4.0,11.0,3.0,1.0,-4.0,0.0,1.0,1651067688438748.0,0
1285,-1.0,-3.0,-11.0,-7.0,1.0,2.0,1.0,-1.0,1651067688438748.0,0
1286,0.0,1.0,8.0,2.0,-9.0,-6.0,-2.0,-2.0,1651067688447724.0,0
1287,-1.0,-2.0,-5.0,-6.0,-7.0,-6.0,-2.0,-2.0,1651067688447724.0,0
1288,2.0,1.0,4.0,5.0,4.0,2.0,-1.0,2.0,1651067688462769.0,0
1289,2.0,1.0,3.0,-4.0,-8.0,-3.0,0.0,0.0,1651067688462769.0,0
1290,-3.0,-4.0,-3.0,-1.0,4.0,0.0,-2.0,-2.0,1651067688463758.0,0
1291,-2.0,-2.0,-7.0,-4.0,1.0,-4.0,0.0,-1.0,1651067688463758.0,0
1292,-1.0,-3.0,-5.0,-6.0,-6.0,2.0,1.0,-1.0,1651067688484903.0,0
1293,0.0,1.0,4.0,0.0,-7.0,-4.0,-1.0,-1.0,1651067688484903.0,0
1294,1.0,-2.0,-2.0,-2.0,-4.0,-5.0,-3.0,-1.0,1651067688485867.0,0
1295,-1.0,-4.0,-6.0,-1.0,8.0,3.0,-2.0,-2.0,1651067688485867.0,0
1296,0.0,2.0,1.0,0.0,-6.0,-5.0,-3.0,0.0,1651067688498865.0,0
1297,-3.0,-4.0,-3.0,-2.0,-3.0,-7.0,-3.0,-2.0,1651067688498865.0,0
1298,0.0,0.0,-4.0,-3.0,-2.0,2.0,1.0,-1.0,1651067688513858.0,0
1299,0.0,0.0,3.0,0.0,-9.0,-4.0,-1.0,-1.0,1651067688513858.0,0
1300,-1.0,-1.0,-2.0,1.0,9.0,1.0,2.0,-2.0,1651067688522719.0,0
1301,-1.0,-2.0,-5.0,0.0,-2.0,-3.0,-2.0,-3.0,1651067688522719.0,0
1302,-1.0,1.0,6.0,0.0,-7.0,-3.0,-3.0,0.0,1651067688523726.0,0
1303,2.0,0.0,-6.0,-2.0,-5.0,-4.0,-3.0,0.0,1651067688523726.0,0
1304,2.0,-1.0,-6.0,-6.0,1.0,2.0,4.0,2.0,1651067688544790.0,0
1305,-3.0,-1.0,3.0,2.0,3.0,6.0,0.0,1.0,1651067688544790.0,0
1306,1.0,0.0,-1.0,3.0,12.0,11.0,4.0,-3.0,1651067688546828.0,0
1307,1.0,6.0,13.0,4.0,-4.0,-3.0,1.0,6.0,1651067688546828.0,0
1308,-2.0,-5.0,-11.0,-4.0,-1.0,-5.0,-4.0,-6.0,1651067688558842.0,0
1309,-2.0,-1.0,-3.0,-6.0,-15.0,-7.0,-2.0,-2.0,1651067688558842.0,0
1310,4.0,4.0,9.0,12.0,24.0,16.0,6.0,5.0,1651067688567720.0,0
1311,-4.0,-7.0,-10.0,-4.0,-14.0,-7.0,-4.0,-5.0,1651067688567720.0,0
1312,3.0,3.0,4.0,-1.0,0.0,0.0,-2.0,5.0,1651067688582199.0,0
1313,-2.0,0.0,5.0,4.0,8.0,2.0,-2.0,-6.0,1651067688582199.0,0
1314,-4.0,-3.0,-4.0,-4.0,-9.0,-4.0,-2.0,2.0,1651067688584223.0,0
1315,1.0,0.0,0.0,0.0,6.0,3.0,3.0,-4.0,1651067688584223.0,0
1316,-1.0,1.0,2.0,-3.0,-10.0,-6.0,-2.0,-8.0,1651067688604363.0,0
1317,-2.0,-1.0,-1.0,-3.0,-1.0,-3.0,-2.0,4.0,1651067688604363.0,0
1318,6.0,3.0,6.0,8.0,6.0,2.0,1.0,2.0,1651067688606290.0,0
1319,-4.0,-2.0,-9.0,-5.0,2.0,5.0,-3.0,5.0,1651067688606290.0,0
1320,0.0,-1.0,2.0,4.0,2.0,3.0,5.0,1.0,1651067688618325.0,0
1321,3.0,5.0,7.0,1.0,0.0,-1.0,0.0,-3.0,1651067688618325.0,0
1322,-9.0,-6.0,-2.0,-3.0,-3.0,-5.0,-4.0,-9.0,1651067688627233.0,0
1323,2.0,5.0,10.0,15.0,13.0,5.0,-1.0,-4.0,1651067688627233.0,0
1324,0.0,0.0,3.0,0.0,3.0,4.0,-1.0,1.0,1651067688642409.0,0
1325,2.0,-1.0,-1.0,2.0,0.0,-1.0,4.0,9.0,1651067688642409.0,0
1326,-2.0,0.0,-2.0,-3.0,0.0,-1.0,-1.0,-1.0,1651067688643421.0,0
1327,4.0,-2.0,-7.0,-7.0,-6.0,1.0,5.0,1.0,1651067688643421.0,0
1328,-1.0,4.0,12.0,14.0,16.0,3.0,-2.0,-1.0,1651067688665031.0,0
1329,-2.0,-5.0,-9.0,-11.0,-7.0,2.0,2.0,-4.0,1651067688665031.0,0
1330,-3.0,-1.0,0.0,-1.0,-4.0,-1.0,-4.0,-5.0,1651067688666027.0,3
1331,-1.0,-2.0,3.0,-8.0,-16.0,-11.0,-6.0,-1.0,1651067688666027.0,3
1332,-3.0,-7.0,-15.0,-5.0,-1.0,-1.0,-6.0,-4.0,1651067688678022.0,3
1333,4.0,3.0,6.0,0.0,-6.0,-3.0,1.0,-2.0,1651067688678022.0,3
1334,0.0,-6.0,-15.0,8.0,19.0,5.0,4.0,12.0,1651067688687013.0,3
1335,-2.0,2.0,5.0,-3.0,-7.0,-7.0,-8.0,-9.0,1651067688687013.0,3
1336,-1.0,-4.0,-4.0,-8.0,-11.0,-4.0,4.0,6.0,1651067688701698.0,3
1337,-2.0,-2.0,-4.0,0.0,4.0,4.0,7.0,5.0,1651067688701698.0,3
1338,4.0,5.0,6.0,-2.0,-2.0,4.0,0.0,-5.0,1651067688708750.0,3
1339,-6.0,-7.0,-6.0,1.0,5.0,0.0,3.0,3.0,1651067688708750.0,3
1340,0.0,1.0,-1.0,3.0,-1.0,-4.0,-5.0,-5.0,1651067688725306.0,3
1341,5.0,12.0,23.0,17.0,14.0,4.0,-4.0,-3.0,1651067688725306.0,3
1342,4.0,0.0,0.0,-12.0,-13.0,-4.0,2.0,1.0,1651067688726308.0,3
1343,-4.0,-2.0,-8.0,-4.0,-9.0,-2.0,6.0,-3.0,1651067688726308.0,3
1344,0.0,2.0,2.0,-8.0,-10.0,-5.0,0.0,4.0,1651067688747618.0,3
1345,4.0,2.0,1.0,3.0,-1.0,4.0,7.0,26.0,1651067688747618.0,3
1346,3.0,-3.0,-10.0,0.0,16.0,10.0,8.0,1.0,1651067688748547.0,3
1347,3.0,-1.0,-2.0,-2.0,-6.0,-6.0,-11.0,0.0,1651067688748547.0,3
1348,-14.0,-8.0,-4.0,-3.0,-5.0,-8.0,-13.0,-28.0,1651067688762517.0,3
1349,-6.0,-6.0,-12.0,-7.0,-3.0,-5.0,-11.0,-16.0,1651067688762517.0,3
1350,-4.0,1.0,5.0,-4.0,-15.0,-8.0,-9.0,-5.0,1651067688768558.0,3
1351,-1.0,-8.0,-17.0,-7.0,4.0,-1.0,1.0,7.0,1651067688768558.0,3
1352,-2.0,1.0,2.0,12.0,12.0,12.0,22.0,4.0,1651067688785158.0,3
1353,4.0,-3.0,-8.0,-10.0,-11.0,-11.0,-20.0,-3.0,1651067688785158.0,3
1354,1.0,1.0,3.0,-8.0,-18.0,-8.0,12.0,4.0,1651067688786612.0,3
1355,-5.0,2.0,9.0,0.0,-1.0,1.0,-3.0,-9.0,1651067688786612.0,3
1356,5.0,2.0,3.0,15.0,20.0,10.0,-2.0,3.0,1651067688807736.0,3
1357,-8.0,-11.0,-18.0,-10.0,-2.0,2.0,1.0,-8.0,1651067688807736.0,3
1358,-8.0,-2.0,-2.0,1.0,-2.0,-3.0,-9.0,-6.0,1651067688808731.0,3
1359,8.0,3.0,6.0,7.0,7.0,2.0,1.0,-7.0,1651067688808731.0,3
1360,5.0,4.0,3.0,2.0,2.0,4.0,12.0,13.0,1651067688821809.0,3
1361,-5.0,-2.0,4.0,0.0,-2.0,-2.0,0.0,2.0,1651067688821809.0,3
1362,8.0,0.0,-5.0,-6.0,2.0,3.0,10.0,21.0,1651067688828761.0,3
1363,4.0,3.0,4.0,-4.0,-11.0,-9.0,-10.0,-10.0,1651067688828761.0,3
1364,-6.0,-5.0,-2.0,-1.0,-5.0,-8.0,-13.0,-1.0,1651067688844786.0,3
1365,5.0,3.0,5.0,9.0,8.0,9.0,4.0,-3.0,1651067688844786.0,3
1366,0.0,0.0,-2.0,-4.0,-4.0,-1.0,3.0,-5.0,1651067688846714.0,3
1367,-1.0,2.0,9.0,4.0,-9.0,-3.0,2.0,11.0,1651067688846714.0,3
1368,1.0,-2.0,-10.0,-4.0,10.0,-1.0,9.0,7.0,1651067688874798.0,3
1369,5.0,-1.0,-7.0,-8.0,-9.0,-5.0,6.0,16.0,1651067688874798.0,3
1370,-7.0,-5.0,-2.0,0.0,-1.0,-4.0,-25.0,-28.0,1651067688876784.0,3
1371,3.0,5.0,6.0,7.0,10.0,10.0,11.0,4.0,1651067688876784.0,3
1372,-9.0,-2.0,0.0,-7.0,-10.0,-5.0,-16.0,-16.0,1651067688881798.0,3
1373,-5.0,-1.0,2.0,7.0,13.0,10.0,25.0,11.0,1651067688881798.0,3
1374,4.0,-1.0,-1.0,-1.0,2.0,-2.0,-8.0,9.0,1651067688888763.0,3
1375,-3.0,-1.0,-2.0,3.0,3.0,-2.0,-8.0,-13.0,1651067688888763.0,3
1376,-3.0,-3.0,-4.0,-5.0,-5.0,-1.0,2.0,-1.0,1651067688904745.0,3
1377,1.0,4.0,8.0,11.0,12.0,2.0,-5.0,-6.0,1651067688904745.0,3
1378,-4.0,-4.0,-4.0,1.0,1.0,-3.0,-6.0,-9.0,1651067688906674.0,3
1379,-3.0,-1.0,0.0,3.0,9.0,7.0,12.0,14.0,1651067688906674.0,3
1380,2.0,-2.0,-2.0,-4.0,-10.0,-3.0,5.0,-1.0,1651067688927212.0,3
1381,-2.0,0.0,5.0,4.0,3.0,-1.0,-9.0,-9.0,1651067688927212.0,3
1382,-2.0,-1.0,-5.0,-5.0,-2.0,3.0,3.0,-3.0,1651067688929169.0,3
1383,0.0,-3.0,-10.0,-6.0,-6.0,-7.0,-6.0,4.0,1651067688929169.0,3
1384,4.0,4.0,7.0,3.0,-4.0,5.0,9.0,14.0,1651067688942083.0,3
1385,-1.0,2.0,1.0,1.0,14.0,-1.0,-21.0,-22.0,1651067688942083.0,3
1386,-6.0,-6.0,0.0,1.0,-1.0,0.0,7.0,-12.0,1651067688948137.0,3
1387,-1.0,-1.0,1.0,-1.0,3.0,2.0,5.0,6.0,1651067688948137.0,3
1388,14.0,1.0,-9.0,-17.0,-18.0,-2.0,13.0,22.0,1651067688964299.0,3
1389,-5.0,-2.0,-3.0,-5.0,-14.0,-4.0,-2.0,0.0,1651067688964299.0,3
1390,5.0,2.0,3.0,0.0,4.0,-4.0,1.0,12.0,1651067688966297.0,3
1391,-4.0,-3.0,-1.0,2.0,6.0,2.0,-3.0,3.0,1651067688966297.0,3
1392,-3.0,0.0,6.0,6.0,5.0,-4.0,-9.0,-19.0,1651067688987307.0,3
1393,-1.0,-7.0,-10.0,-12.0,-11.0,0.0,2.0,-7.0,1651067688987307.0,3
1394,1.0,5.0,1.0,2.0,5.0,3.0,2.0,4.0,1651067688989236.0,3
1395,-2.0,0.0,1.0,-4.0,-13.0,-9.0,1.0,-7.0,1651067688989236.0,3
1396,5.0,4.0,5.0,4.0,8.0,7.0,-7.0,0.0,1651067689001272.0,3
1397,-2.0,-3.0,-4.0,-1.0,-5.0,-4.0,2.0,2.0,1651067689001272.0,3
1398,-8.0,-3.0,0.0,-6.0,-13.0,-5.0,-8.0,-14.0,1651067689008251.0,3
1399,7.0,-1.0,1.0,0.0,15.0,3.0,0.0,3.0,1651067689008251.0,3
1400,-2.0,-8.0,-11.0,-9.0,-3.0,-6.0,2.0,-1.0,1651067689025256.0,3
1401,-4.0,1.0,2.0,1.0,-6.0,-4.0,0.0,-7.0,1651067689025256.0,3
1402,7.0,5.0,12.0,10.0,12.0,11.0,10.0,10.0,1651067689026272.0,3
1403,-4.0,-7.0,-15.0,-8.0,-9.0,-5.0,-2.0,-8.0,1651067689026272.0,3
1404,0.0,-1.0,-4.0,-4.0,-5.0,-4.0,-7.0,1.0,1651067689046999.0,3
1405,1.0,1.0,-1.0,-5.0,-4.0,-6.0,-22.0,-2.0,1651067689046999.0,3
1406,2.0,2.0,2.0,0.0,-8.0,-4.0,24.0,18.0,1651067689048926.0,3
1407,1.0,3.0,2.0,3.0,5.0,4.0,0.0,-4.0,1651067689048926.0,3
1408,-10.0,-10.0,-11.0,-4.0,1.0,-3.0,-10.0,-8.0,1651067689062007.0,3
1409,-5.0,-3.0,-4.0,-2.0,-5.0,-3.0,2.0,-12.0,1651067689062007.0,3
1410,-1.0,-1.0,-2.0,1.0,-11.0,-2.0,-7.0,0.0,1651067689068056.0,3
1411,-6.0,-8.0,-7.0,0.0,9.0,5.0,-6.0,-5.0,1651067689068056.0,3
1412,-1.0,1.0,2.0,3.0,-2.0,-7.0,1.0,-3.0,1651067689084764.0,3
1413,2.0,5.0,6.0,11.0,14.0,10.0,4.0,8.0,1651067689084764.0,3
1414,-6.0,-6.0,-5.0,-5.0,-2.0,-5.0,-10.0,-14.0,1651067689086774.0,3
1415,0.0,3.0,5.0,-3.0,-7.0,2.0,7.0,-1.0,1651067689086774.0,3
1416,-8.0,-2.0,1.0,-1.0,-15.0,-14.0,-13.0,-15.0,1651067689106848.0,3
1417,8.0,9.0,15.0,9.0,8.0,17.0,22.0,7.0,1651067689106848.0,3
1418,2.0,-5.0,-8.0,-1.0,13.0,3.0,-1.0,7.0,1651067689108815.0,3
1419,5.0,5.0,3.0,-5.0,-14.0,-5.0,-8.0,0.0,1651067689108815.0,3
1420,-9.0,1.0,6.0,3.0,9.0,6.0,-4.0,-16.0,1651067689121686.0,3
1421,-1.0,-1.0,-3.0,-14.0,-24.0,-17.0,-4.0,-4.0,1651067689121686.0,3
1422,0.0,0.0,-1.0,4.0,8.0,7.0,-10.0,-1.0,1651067689128736.0,3
1423,2.0,4.0,4.0,-3.0,-6.0,-1.0,14.0,6.0,1651067689128736.0,3
1424,2.0,-2.0,-1.0,-1.0,3.0,5.0,1.0,3.0,1651067689152356.0,3
1425,-14.0,-7.0,-2.0,1.0,-1.0,-6.0,-4.0,-8.0,1651067689152356.0,3
1426,5.0,5.0,5.0,3.0,-1.0,-4.0,-12.0,-4.0,1651067689154374.0,3
1427,-5.0,-7.0,-2.0,-2.0,-6.0,2.0,-4.0,3.0,1651067689154374.0,3
1428,-1.0,1.0,2.0,6.0,15.0,7.0,-3.0,-7.0,1651067689166899.0,3
1429,3.0,-4.0,-10.0,-1.0,3.0,2.0,6.0,12.0,1651067689166899.0,3
1430,-2.0,-3.0,-4.0,-4.0,-3.0,2.0,0.0,-2.0,1651067689168895.0,3
1431,5.0,4.0,3.0,0.0,-10.0,-5.0,9.0,7.0,1651067689168895.0,3
1432,0.0,1.0,2.0,1.0,20.0,8.0,7.0,16.0,1651067689181859.0,3
1433,6.0,-1.0,-5.0,-4.0,2.0,2.0,-2.0,4.0,1651067689181859.0,3
1434,-4.0,-6.0,-9.0,-2.0,-6.0,-2.0,8.0,3.0,1651067689188893.0,3
1435,-1.0,-3.0,-2.0,-3.0,-5.0,-2.0,-7.0,-10.0,1651067689188893.0,3
1436,-3.0,2.0,1.0,0.0,-12.0,-1.0,-2.0,-8.0,1651067689204369.0,3
1437,1.0,1.0,-2.0,-4.0,1.0,-8.0,-9.0,1.0,1651067689204369.0,3
1438,1.0,3.0,5.0,1.0,1.0,3.0,4.0,5.0,1651067689206367.0,3
1439,-5.0,-5.0,-8.0,-4.0,2.0,3.0,-7.0,-15.0,1651067689206367.0,3
1440,-4.0,-4.0,-6.0,-5.0,-8.0,-6.0,-3.0,3.0,1651067689227377.0,3
1441,3.0,-3.0,-6.0,-8.0,-4.0,0.0,0.0,14.0,1651067689227377.0,3
1442,2.0,0.0,0.0,2.0,4.0,-8.0,-1.0,-2.0,1651067689228307.0,3
1443,-8.0,-3.0,3.0,9.0,9.0,0.0,-6.0,-11.0,1651067689228307.0,3
1444,-1.0,1.0,2.0,-4.0,-10.0,1.0,5.0,-5.0,1651067689241339.0,3
1445,0.0,0.0,-2.0,8.0,10.0,1.0,-1.0,0.0,1651067689241339.0,3
1446,3.0,-3.0,-8.0,-4.0,-1.0,1.0,12.0,25.0,1651067689248320.0,3
1447,4.0,5.0,5.0,6.0,13.0,12.0,13.0,-1.0,1651067689248320.0,3
1448,8.0,1.0,0.0,-5.0,-15.0,-8.0,8.0,15.0,1651067689264327.0,3
1449,-4.0,-3.0,-1.0,0.0,-5.0,1.0,-5.0,-9.0,1651067689264327.0,3
1450,-4.0,1.0,3.0,1.0,6.0,2.0,-12.0,-12.0,1651067689266320.0,3
1451,4.0,-3.0,-8.0,-6.0,-4.0,-6.0,2.0,6.0,1651067689266320.0,3
1452,3.0,-1.0,-2.0,-1.0,-6.0,-1.0,-1.0,-2.0,1651067689287445.0,3
1453,-8.0,-2.0,3.0,1.0,-3.0,-2.0,4.0,-11.0,1651067689287445.0,3
1454,-4.0,0.0,-2.0,-9.0,-16.0,-7.0,-9.0,-4.0,1651067689288376.0,3
1455,-6.0,-4.0,-8.0,7.0,16.0,-3.0,1.0,-2.0,1651067689288376.0,3
1456,6.0,0.0,-3.0,-5.0,2.0,3.0,2.0,10.0,1651067689301331.0,3
1457,3.0,0.0,2.0,-1.0,-8.0,-2.0,3.0,13.0,1651067689301331.0,3
1458,-4.0,3.0,6.0,5.0,3.0,2.0,-1.0,-17.0,1651067689309575.0,3
1459,0.0,2.0,4.0,-8.0,-13.0,-3.0,-2.0,-4.0,1651067689309575.0,3
1460,4.0,1.0,3.0,5.0,4.0,-1.0,-2.0,5.0,1651067689324941.0,3
1461,-3.0,-3.0,-1.0,-3.0,-2.0,-3.0,0.0,1.0,1651067689324941.0,3
1462,0.0,2.0,5.0,1.0,-7.0,2.0,0.0,-14.0,1651067689325867.0,3
1463,2.0,2.0,3.0,3.0,3.0,2.0,-6.0,5.0,1651067689325867.0,3
1464,-7.0,2.0,2.0,-1.0,0.0,-1.0,2.0,10.0,1651067689347000.0,3
1465,4.0,2.0,-3.0,-6.0,-16.0,-5.0,0.0,1.0,1651067689347000.0,3
1466,-3.0,-5.0,-3.0,3.0,22.0,0.0,-10.0,-7.0,1651067689348956.0,3
1467,6.0,3.0,1.0,2.0,5.0,8.0,9.0,10.0,1651067689348956.0,3
1468,-4.0,-3.0,-3.0,-3.0,-2.0,-3.0,-5.0,-12.0,1651067689361012.0,3
1469,-2.0,8.0,12.0,8.0,0.0,0.0,-2.0,-12.0,1651067689361012.0,3
1470,-9.0,-5.0,-10.0,-6.0,-7.0,-7.0,-1.0,-11.0,1651067689369991.0,3
1471,3.0,-4.0,-4.0,-6.0,-7.0,-3.0,-8.0,12.0,1651067689369991.0,3
1472,5.0,0.0,1.0,2.0,4.0,5.0,8.0,8.0,1651067689385255.0,3
1473,-2.0,-2.0,1.0,1.0,8.0,-5.0,-6.0,-5.0,1651067689385255.0,3
1474,6.0,4.0,3.0,2.0,-7.0,9.0,11.0,5.0,1651067689386223.0,3
1475,-3.0,-1.0,3.0,0.0,0.0,0.0,-3.0,3.0,1651067689386223.0,3
1476,-6.0,-3.0,-5.0,-4.0,-4.0,-6.0,-3.0,-7.0,1651067689407375.0,3
1477,4.0,1.0,1.0,0.0,-7.0,-6.0,1.0,-1.0,1651067689407375.0,3
1478,2.0,1.0,-1.0,9.0,34.0,10.0,1.0,18.0,1651067689408363.0,3
1479,2.0,2.0,-2.0,-5.0,-9.0,-2.0,-3.0,-3.0,1651067689408363.0,3
1480,2.0,1.0,0.0,-2.0,-6.0,-6.0,-7.0,-4.0,1651067689421358.0,3
1481,0.0,-1.0,-2.0,2.0,2.0,6.0,9.0,8.0,1651067689421358.0,3
1482,-2.0,1.0,2.0,-7.0,-23.0,-12.0,-7.0,-7.0,1651067689430304.0,3
1483,-3.0,-3.0,-2.0,1.0,4.0,0.0,3.0,3.0,1651067689430304.0,3
1484,5.0,3.0,4.0,8.0,1.0,6.0,-1.0,3.0,1651067689445282.0,3
1485,-4.0,-7.0,-11.0,-3.0,3.0,0.0,-5.0,-21.0,1651067689445282.0,3
1486,5.0,2.0,2.0,1.0,-7.0,-6.0,-2.0,12.0,1651067689446281.0,3
1487,0.0,0.0,0.0,-1.0,3.0,0.0,9.0,9.0,1651067689446281.0,3
1488,-3.0,-6.0,-3.0,2.0,-2.0,-8.0,-6.0,2.0,1651067689467293.0,3
1489,-3.0,-2.0,-5.0,-4.0,5.0,7.0,-3.0,0.0,1651067689467293.0,3
1490,-5.0,-5.0,1.0,-5.0,-10.0,-6.0,-4.0,0.0,1651067689469221.0,3
1491,-4.0,2.0,0.0,5.0,8.0,1.0,0.0,-21.0,1651067689469221.0,3
1492,-1.0,-4.0,-6.0,-10.0,-4.0,-1.0,-5.0,5.0,1651067689481255.0,3
1493,3.0,3.0,0.0,1.0,-1.0,1.0,1.0,8.0,1651067689481255.0,3
1494,-1.0,-1.0,-3.0,-6.0,-6.0,-8.0,-2.0,-9.0,1651067689490246.0,3
1495,-3.0,-1.0,3.0,3.0,0.0,8.0,-2.0,6.0,1651067689490246.0,3
1496,3.0,2.0,3.0,1.0,6.0,2.0,2.0,3.0,1651067689504431.0,3
1497,5.0,-1.0,-1.0,-4.0,2.0,0.0,-2.0,4.0,1651067689504431.0,3
1498,-6.0,-5.0,-2.0,4.0,-1.0,4.0,8.0,1.0,1651067689506359.0,3
1499,-5.0,-1.0,-1.0,-3.0,-3.0,-7.0,-5.0,-16.0,1651067689506359.0,3
1500,3.0,3.0,2.0,4.0,4.0,-1.0,5.0,5.0,1651067689527698.0,3
1501,4.0,3.0,2.0,2.0,2.0,5.0,-2.0,3.0,1651067689527698.0,3
1502,1.0,2.0,4.0,1.0,-1.0,0.0,-1.0,1.0,1651067689528671.0,3
1503,-3.0,-5.0,-5.0,-2.0,-6.0,-3.0,0.0,4.0,1651067689528671.0,3
1504,-6.0,-3.0,-1.0,5.0,20.0,14.0,3.0,-17.0,1651067689541008.0,3
1505,1.0,2.0,5.0,0.0,-5.0,-6.0,-1.0,21.0,1651067689541008.0,3
1506,2.0,0.0,-1.0,-3.0,-3.0,-2.0,-4.0,-3.0,1651067689549965.0,3
1507,0.0,1.0,5.0,3.0,3.0,0.0,-4.0,-7.0,1651067689549965.0,3
1508,-1.0,-2.0,-3.0,-6.0,-9.0,-4.0,-5.0,-3.0,1651067689565267.0,3
1509,-6.0,-2.0,1.0,0.0,3.0,-3.0,-4.0,-8.0,1651067689565267.0,3
1510,5.0,0.0,0.0,1.0,-3.0,-3.0,3.0,5.0,1651067689566341.0,3
1511,-1.0,-1.0,1.0,-2.0,1.0,2.0,-3.0,-1.0,1651067689566341.0,3
1512,-3.0,3.0,4.0,0.0,0.0,-1.0,-3.0,-6.0,1651067689587249.0,3
1513,-6.0,-7.0,-8.0,-2.0,-2.0,-2.0,6.0,5.0,1651067689587249.0,3
1514,3.0,3.0,-1.0,-4.0,-3.0,-1.0,0.0,4.0,1651067689589206.0,3
1515,0.0,-1.0,-2.0,-2.0,-7.0,-4.0,1.0,0.0,1651067689589206.0,3
1516,1.0,3.0,5.0,0.0,-2.0,-2.0,-6.0,-10.0,1651067689601218.0,3
1517,-6.0,-4.0,-3.0,0.0,0.0,1.0,7.0,-8.0,1651067689601218.0,3
1518,5.0,1.0,1.0,-1.0,1.0,4.0,8.0,14.0,1651067689610127.0,3
1519,3.0,2.0,0.0,0.0,-1.0,-3.0,-6.0,-1.0,1651067689610127.0,3
1520,-3.0,-3.0,-4.0,-2.0,-4.0,-2.0,-3.0,-7.0,1651067689625153.0,3
1521,1.0,2.0,3.0,2.0,4.0,2.0,3.0,3.0,1651067689625153.0,3
1522,-4.0,-1.0,2.0,5.0,7.0,7.0,1.0,-3.0,1651067689626185.0,3
1523,-1.0,1.0,-1.0,-2.0,-2.0,-3.0,-2.0,-2.0,1651067689626185.0,3
1524,-3.0,-1.0,-1.0,2.0,-1.0,-1.0,-4.0,-2.0,1651067689647161.0,3
1525,2.0,3.0,3.0,-1.0,0.0,2.0,-2.0,-6.0,1651067689647161.0,3
1526,-3.0,-5.0,-3.0,-5.0,-2.0,-2.0,2.0,-1.0,1651067689649169.0,3
1527,0.0,-2.0,-5.0,0.0,-3.0,-3.0,-2.0,7.0,1651067689649169.0,3
1528,2.0,-1.0,-5.0,-7.0,-5.0,-5.0,2.0,0.0,1651067689661208.0,3
1529,-2.0,-2.0,-4.0,0.0,2.0,3.0,0.0,-6.0,1651067689661208.0,3
1530,-1.0,-3.0,-2.0,-2.0,-3.0,-2.0,0.0,6.0,1651067689670117.0,3
1531,-1.0,-1.0,-1.0,-1.0,3.0,0.0,-4.0,-6.0,1651067689670117.0,3
1532,0.0,0.0,-1.0,2.0,0.0,-1.0,3.0,0.0,1651067689684282.0,3
1533,0.0,0.0,1.0,0.0,1.0,-4.0,-7.0,-5.0,1651067689684282.0,3
1534,-4.0,-1.0,-3.0,-4.0,-3.0,1.0,-7.0,-5.0,1651067689690676.0,3
1535,1.0,-1.0,-2.0,-2.0,-4.0,1.0,11.0,4.0,1651067689690676.0,3
1536,-2.0,1.0,1.0,3.0,1.0,0.0,-4.0,3.0,1651067689707672.0,3
1537,2.0,0.0,1.0,1.0,-1.0,-1.0,1.0,3.0,1651067689707672.0,3
1538,0.0,1.0,-5.0,-1.0,0.0,2.0,0.0,-4.0,1651067689708690.0,3
1539,-1.0,0.0,2.0,1.0,1.0,-2.0,-7.0,-3.0,1651067689708690.0,3
1540,-1.0,-2.0,-2.0,-1.0,-1.0,-1.0,1.0,4.0,1651067689730259.0,3
1541,-2.0,-1.0,2.0,0.0,3.0,3.0,-4.0,-2.0,1651067689730259.0,3
1542,-2.0,0.0,-2.0,-2.0,-1.0,-5.0,3.0,-3.0,1651067689731262.0,3
1543,-3.0,-6.0,-11.0,-10.0,-9.0,-4.0,1.0,2.0,1651067689731262.0,3
1544,-1.0,-2.0,-8.0,-2.0,-11.0,-4.0,-2.0,1.0,1651067689744365.0,3
1545,1.0,0.0,8.0,7.0,22.0,3.0,-3.0,2.0,1651067689744365.0,3
1546,-3.0,-1.0,-8.0,-3.0,-2.0,0.0,0.0,-4.0,1651067689746362.0,3
1547,1.0,7.0,24.0,9.0,3.0,2.0,0.0,-1.0,1651067689746362.0,3
1548,0.0,-2.0,-3.0,-4.0,-4.0,-3.0,0.0,-1.0,1651067689767473.0,3
1549,-3.0,-2.0,-6.0,-5.0,-8.0,0.0,1.0,-1.0,1651067689767473.0,3
1550,-1.0,-1.0,-3.0,6.0,8.0,1.0,-1.0,0.0,1651067689768400.0,3
1551,-2.0,-3.0,-10.0,-4.0,-4.0,-3.0,-3.0,-1.0,1651067689768400.0,3
1552,-1.0,2.0,6.0,5.0,11.0,8.0,-2.0,-3.0,1651067689790240.0,3
1553,1.0,0.0,4.0,1.0,-3.0,-1.0,5.0,5.0,1651067689790240.0,3
1554,0.0,3.0,1.0,1.0,5.0,0.0,-3.0,-4.0,1651067689791240.0,3
1555,-1.0,0.0,0.0,-1.0,-2.0,-3.0,-1.0,2.0,1651067689791240.0,3
1556,0.0,-6.0,-4.0,-4.0,1.0,-3.0,-7.0,-2.0,1651067689805181.0,3
1557,0.0,-3.0,-8.0,-3.0,-1.0,2.0,0.0,0.0,1651067689805181.0,3
1558,0.0,2.0,2.0,1.0,-9.0,-4.0,-1.0,1.0,1651067689806319.0,3
1559,1.0,-1.0,5.0,4.0,12.0,7.0,3.0,-1.0,1651067689806319.0,3
1560,-1.0,0.0,-5.0,-10.0,-11.0,-3.0,1.0,1.0,1651067689826947.0,3
1561,0.0,-1.0,5.0,1.0,-5.0,-3.0,2.0,2.0,1651067689826947.0,3
1562,-2.0,-2.0,3.0,-4.0,-3.0,-4.0,-8.0,-5.0,1651067689828875.0,3
1563,-2.0,-9.0,-33.0,-5.0,2.0,4.0,-4.0,-2.0,1651067689828875.0,3
1564,-1.0,-1.0,5.0,6.0,4.0,3.0,4.0,3.0,1651067689850033.0,3
1565,0.0,6.0,6.0,0.0,0.0,-1.0,5.0,2.0,1651067689850033.0,3
1566,2.0,2.0,17.0,8.0,0.0,0.0,1.0,2.0,1651067689850964.0,3
1567,1.0,1.0,-42.0,-10.0,-2.0,-2.0,-3.0,0.0,1651067689850964.0,3
1568,0.0,0.0,28.0,-2.0,2.0,2.0,2.0,0.0,1651067689864068.0,3
1569,-3.0,-6.0,-27.0,9.0,0.0,0.0,-3.0,-3.0,1651067689864068.0,3
1570,-1.0,-1.0,13.0,-24.0,-2.0,-1.0,1.0,-1.0,1651067689871356.0,3
1571,0.0,0.0,-7.0,10.0,2.0,-1.0,2.0,2.0,1651067689871356.0,3
1572,0.0,5.0,6.0,-9.0,0.0,-3.0,-6.0,-2.0,1651067689887429.0,3
1573,2.0,5.0,12.0,19.0,-3.0,2.0,16.0,6.0,1651067689887429.0,3
1574,-2.0,-10.0,-23.0,0.0,11.0,2.0,2.0,2.0,1651067689888385.0,3
1575,-3.0,2.0,28.0,6.0,-16.0,-6.0,-4.0,-2.0,1651067689888385.0,3
1576,4.0,3.0,0.0,15.0,12.0,3.0,4.0,2.0,1651067689909499.0,3
1577,-5.0,-6.0,-2.0,-32.0,-13.0,-7.0,-17.0,-13.0,1651067689909499.0,3
1578,1.0,2.0,-6.0,-2.0,-11.0,-1.0,11.0,5.0,1651067689911470.0,3
1579,2.0,-5.0,-28.0,-12.0,2.0,1.0,12.0,7.0,1651067689911470.0,3
1580,-1.0,5.0,37.0,10.0,-3.0,-2.0,2.0,0.0,1651067689924455.0,3
1581,-1.0,4.0,1.0,14.0,15.0,3.0,-4.0,-2.0,1651067689924455.0,3
1582,0.0,-1.0,-8.0,-2.0,6.0,1.0,-4.0,-2.0,1651067689930530.0,3
1583,-1.0,0.0,12.0,-10.0,-2.0,-1.0,-7.0,-3.0,1651067689930530.0,3
1584,-1.0,-6.0,-25.0,11.0,1.0,3.0,5.0,-1.0,1651067689947612.0,3
1585,-1.0,-3.0,-22.0,-32.0,-11.0,0.0,-2.0,2.0,1651067689947612.0,3
1586,-2.0,3.0,26.0,-20.0,-32.0,-12.0,-6.0,-3.0,1651067689948544.0,3
1587,1.0,4.0,14.0,13.0,8.0,0.0,0.0,3.0,1651067689948544.0,3
1588,-3.0,-2.0,-1.0,36.0,22.0,4.0,-1.0,0.0,1651067689970270.0,3
1589,1.0,2.0,-4.0,-11.0,-1.0,-3.0,-1.0,0.0,1651067689970270.0,3
1590,-2.0,-2.0,-8.0,-1.0,-1.0,1.0,0.0,0.0,1651067689971270.0,3
1591,0.0,1.0,8.0,-12.0,-8.0,-2.0,0.0,-3.0,1651067689971270.0,3
1592,0.0,-1.0,-10.0,-9.0,5.0,3.0,0.0,0.0,1651067689984272.0,3
1593,0.0,-1.0,-1.0,7.0,2.0,0.0,-4.0,-1.0,1651067689984272.0,3
1594,-2.0,3.0,2.0,8.0,5.0,1.0,-1.0,-1.0,1651067689992574.0,3
1595,1.0,0.0,10.0,-3.0,2.0,0.0,-3.0,-4.0,1651067689992574.0,3
1596,-3.0,-5.0,-19.0,-8.0,-2.0,1.0,-1.0,-1.0,1651067690007692.0,3
1597,3.0,1.0,9.0,9.0,2.0,4.0,4.0,2.0,1651067690007692.0,3
1598,0.0,-4.0,-20.0,-4.0,-3.0,-3.0,-2.0,-2.0,1651067690008647.0,3
1599,-2.0,0.0,11.0,-5.0,-13.0,-7.0,-4.0,-2.0,1651067690008647.0,3
1600,0.0,0.0,5.0,-5.0,-3.0,-5.0,0.0,0.0,1651067690029798.0,3
1601,-3.0,-3.0,-11.0,-12.0,-4.0,-1.0,-1.0,3.0,1651067690029798.0,3
1602,0.0,4.0,16.0,20.0,14.0,4.0,-2.0,-3.0,1651067690031795.0,3
1603,-5.0,-11.0,-28.0,-22.0,-3.0,-2.0,-4.0,-1.0,1651067690031795.0,3
1604,1.0,4.0,15.0,-10.0,-6.0,-3.0,0.0,1.0,1651067690043808.0,3
1605,1.0,1.0,-8.0,-3.0,2.0,-1.0,-1.0,-1.0,1651067690043808.0,3
1606,2.0,4.0,33.0,21.0,6.0,4.0,0.0,-3.0,1651067690052685.0,3
1607,-2.0,-2.0,-1.0,26.0,7.0,2.0,-7.0,-2.0,1651067690052685.0,3
1608,5.0,-3.0,-15.0,-14.0,-6.0,3.0,22.0,15.0,1651067690067721.0,3
1609,-3.0,-3.0,7.0,-11.0,-7.0,-1.0,-2.0,0.0,1651067690067721.0,3
1610,-1.0,-1.0,-11.0,-1.0,7.0,2.0,-1.0,0.0,1651067690068675.0,3
1611,-1.0,0.0,3.0,-11.0,-11.0,-4.0,-3.0,-3.0,1651067690068675.0,3
1612,0.0,-3.0,-15.0,1.0,-1.0,-2.0,-7.0,-6.0,1651067690090146.0,3
1613,2.0,6.0,18.0,23.0,8.0,2.0,3.0,1.0,1651067690090146.0,3
1614,-2.0,-2.0,13.0,-5.0,-4.0,-3.0,1.0,-1.0,1651067690091710.0,3
1615,1.0,-1.0,-15.0,-6.0,7.0,5.0,0.0,0.0,1651067690091710.0,3
1616,-3.0,0.0,-4.0,-1.0,-7.0,-3.0,-5.0,-3.0,1651067690103705.0,3
1617,-1.0,-2.0,-6.0,1.0,1.0,2.0,1.0,0.0,1651067690103705.0,3
1618,-3.0,0.0,-3.0,-12.0,-8.0,-3.0,-9.0,-4.0,1651067690112683.0,3
1619,3.0,2.0,5.0,0.0,0.0,1.0,9.0,5.0,1651067690112683.0,3
1620,3.0,5.0,9.0,12.0,13.0,4.0,-4.0,-2.0,1651067690127355.0,3
1621,10.0,10.0,27.0,34.0,6.0,2.0,-6.0,-7.0,1651067690127355.0,3
1622,-22.0,-33.0,-32.0,-32.0,-18.0,-11.0,3.0,10.0,1651067690129284.0,3
1623,2.0,2.0,0.0,-3.0,5.0,0.0,1.0,-2.0,1651067690129284.0,3
1624,-3.0,-1.0,-3.0,-10.0,-13.0,-4.0,0.0,-2.0,1651067690149493.0,3
1625,1.0,3.0,9.0,3.0,1.0,-1.0,-3.0,-1.0,1651067690149493.0,3
1626,6.0,8.0,-1.0,5.0,8.0,1.0,-7.0,-6.0,1651067690151423.0,3
1627,1.0,1.0,9.0,2.0,1.0,1.0,7.0,3.0,1651067690151423.0,3
1628,1.0,-2.0,-3.0,3.0,-1.0,-2.0,-4.0,-2.0,1651067690163721.0,3
1629,-3.0,-4.0,-19.0,-10.0,-12.0,-8.0,-2.0,-2.0,1651067690163721.0,3
1630,0.0,1.0,12.0,6.0,10.0,4.0,2.0,-3.0,1651067690179581.0,3
1631,-1.0,-2.0,5.0,1.0,-10.0,-4.0,-2.0,2.0,1651067690179581.0,3
1632,0.0,1.0,-3.0,-12.0,-2.0,-3.0,-6.0,-4.0,1651067690187622.0,3
1633,-2.0,-2.0,-1.0,-10.0,-3.0,2.0,6.0,2.0,1651067690187622.0,3
1634,2.0,1.0,-8.0,21.0,6.0,3.0,-1.0,-1.0,1651067690188553.0,3
1635,-1.0,0.0,2.0,-12.0,-4.0,1.0,0.0,-1.0,1651067690188553.0,3
1636,-3.0,-1.0,-9.0,0.0,1.0,-4.0,-4.0,-1.0,1651067690209690.0,3
1637,0.0,-1.0,8.0,-5.0,-4.0,0.0,0.0,2.0,1651067690209690.0,3
1638,-1.0,2.0,-5.0,-3.0,1.0,1.0,-5.0,-7.0,1651067690211643.0,3
1639,5.0,6.0,7.0,10.0,9.0,5.0,15.0,12.0,1651067690211643.0,3
1640,-2.0,-4.0,-6.0,-13.0,-8.0,-6.0,-4.0,-2.0,1651067690223651.0,3
1641,-3.0,-3.0,-11.0,-11.0,-7.0,-2.0,7.0,4.0,1651067690223651.0,3
1642,4.0,5.0,3.0,16.0,2.0,0.0,3.0,1.0,1651067690232562.0,3
1643,-3.0,0.0,4.0,7.0,0.0,-1.0,-7.0,-6.0,1651067690232562.0,3
1644,0.0,-2.0,0.0,-6.0,1.0,1.0,-1.0,-2.0,1651067690247608.0,3
1645,-1.0,-1.0,4.0,10.0,2.0,-4.0,-4.0,0.0,1651067690247608.0,3
1646,2.0,-1.0,-2.0,-9.0,-4.0,-2.0,0.0,-2.0,1651067690248603.0,3
1647,-2.0,-3.0,-9.0,-5.0,-2.0,-3.0,-4.0,-4.0,1651067690248603.0,3
1648,1.0,2.0,5.0,7.0,5.0,4.0,3.0,0.0,1651067690269781.0,3
1649,-4.0,-3.0,-2.0,0.0,-2.0,-2.0,-5.0,-5.0,1651067690269781.0,3
1650,2.0,1.0,-4.0,0.0,-2.0,0.0,1.0,4.0,1651067690271778.0,3
1651,-2.0,0.0,-2.0,13.0,4.0,-3.0,-4.0,-2.0,1651067690271778.0,3
1652,0.0,2.0,6.0,-3.0,-6.0,0.0,0.0,1.0,1651067690283905.0,3
1653,-1.0,-3.0,-10.0,-26.0,1.0,2.0,2.0,1.0,1651067690283905.0,3
1654,-3.0,-3.0,-6.0,18.0,2.0,-4.0,-2.0,0.0,1651067690292841.0,3
1655,1.0,2.0,4.0,11.0,13.0,3.0,-3.0,-2.0,1651067690292841.0,3
1656,0.0,3.0,14.0,-9.0,-10.0,-4.0,-3.0,-2.0,1651067690307069.0,3
1657,-1.0,-2.0,-2.0,20.0,1.0,-2.0,3.0,1.0,1651067690307069.0,3
1658,1.0,1.0,-3.0,-28.0,-7.0,-1.0,-1.0,-2.0,1651067690309065.0,3
1659,-2.0,-2.0,5.0,2.0,-2.0,-5.0,-5.0,-3.0,1651067690309065.0,3
1660,-3.0,-4.0,-12.0,-13.0,-7.0,-5.0,-3.0,-3.0,1651067690330036.0,3
1661,1.0,1.0,7.0,6.0,1.0,4.0,3.0,0.0,1651067690330036.0,3
1662,2.0,0.0,-1.0,7.0,3.0,2.0,4.0,2.0,1651067690331005.0,3
1663,-2.0,2.0,4.0,0.0,-1.0,2.0,-6.0,-3.0,1651067690331005.0,3
1664,-2.0,-1.0,-5.0,-1.0,5.0,2.0,-3.0,-2.0,1651067690343006.0,3
1665,-3.0,0.0,2.0,1.0,0.0,-4.0,-2.0,2.0,1651067690343006.0,3
1666,2.0,2.0,4.0,12.0,-1.0,0.0,1.0,-1.0,1651067690351976.0,3
1667,1.0,-3.0,1.0,-19.0,-6.0,-3.0,-1.0,-3.0,1651067690351976.0,3
1668,1.0,-3.0,-7.0,3.0,2.0,3.0,2.0,2.0,1651067690382290.0,3
1669,-2.0,-2.0,-3.0,0.0,12.0,3.0,-5.0,-3.0,1651067690382290.0,3
1670,-1.0,0.0,2.0,1.0,-4.0,0.0,1.0,3.0,1651067690384275.0,3
1671,-1.0,-1.0,0.0,-4.0,-1.0,3.0,2.0,2.0,1651067690384275.0,3
1672,1.0,-1.0,-3.0,9.0,1.0,0.0,0.0,1.0,1651067690389287.0,3
1673,0.0,0.0,5.0,-2.0,-12.0,-1.0,-3.0,-3.0,1651067690389287.0,3
1674,-3.0,-2.0,-6.0,-11.0,-1.0,-4.0,0.0,-3.0,1651067690391255.0,3
1675,-1.0,0.0,1.0,13.0,4.0,1.0,1.0,-1.0,1651067690391255.0,3
1676,1.0,0.0,3.0,13.0,7.0,0.0,1.0,1.0,1651067690403396.0,3
1677,-2.0,-3.0,-3.0,2.0,-1.0,-2.0,-2.0,-2.0,1651067690403396.0,3
1678,-1.0,0.0,-8.0,-25.0,-5.0,1.0,-4.0,-3.0,1651067690412308.0,3
1679,0.0,1.0,10.0,10.0,1.0,-4.0,-4.0,-3.0,1651067690412308.0,3
1680,2.0,3.0,6.0,12.0,4.0,4.0,10.0,8.0,1651067690426272.0,3
1681,-2.0,-2.0,-12.0,-7.0,-4.0,-5.0,0.0,0.0,1651067690426272.0,3
1682,1.0,2.0,-7.0,-11.0,-3.0,-2.0,1.0,1.0,1651067690435260.0,3
1683,-2.0,-3.0,-6.0,-6.0,-1.0,1.0,0.0,-1.0,1651067690435260.0,3
1684,-3.0,-3.0,-4.0,-6.0,-2.0,-3.0,-6.0,-2.0,1651067690449263.0,3
1685,0.0,2.0,0.0,5.0,0.0,-1.0,-1.0,-1.0,1651067690449263.0,3
1686,0.0,1.0,9.0,1.0,3.0,5.0,1.0,2.0,1651067690457204.0,3
1687,1.0,-1.0,-4.0,-1.0,0.0,1.0,-4.0,-2.0,1651067690457204.0,3
1688,-2.0,0.0,-2.0,-1.0,-2.0,-1.0,-1.0,-1.0,1651067690463255.0,3
1689,-2.0,-2.0,-4.0,-8.0,1.0,3.0,0.0,-1.0,1651067690463255.0,3
1690,-1.0,-1.0,3.0,2.0,3.0,-1.0,-2.0,-2.0,1651067690472451.0,3
1691,-1.0,0.0,0.0,-1.0,-8.0,-4.0,-2.0,1.0,1651067690472451.0,3
1692,-1.0,-2.0,-5.0,-8.0,-3.0,-1.0,0.0,-2.0,1651067690487462.0,3
1693,1.0,2.0,2.0,-2.0,-2.0,-4.0,0.0,-1.0,1651067690487462.0,3
1694,-2.0,-2.0,-1.0,0.0,-1.0,-2.0,-1.0,-2.0,1651067690488419.0,3
1695,0.0,1.0,5.0,6.0,6.0,5.0,5.0,3.0,1651067690488419.0,3
1696,0.0,-3.0,-13.0,-8.0,-4.0,-1.0,2.0,-2.0,1651067690508574.0,3
1697,-1.0,-1.0,2.0,0.0,2.0,0.0,-4.0,-1.0,1651067690508574.0,3
1698,1.0,2.0,3.0,14.0,-1.0,0.0,1.0,0.0,1651067690517522.0,3
1699,0.0,-3.0,-11.0,-26.0,-6.0,-3.0,-2.0,-3.0,1651067690517522.0,3
1700,0.0,1.0,7.0,-5.0,-7.0,-1.0,-1.0,1.0,1651067690523573.0,3
1701,0.0,4.0,5.0,11.0,9.0,2.0,4.0,-1.0,1651067690523573.0,3
1702,0.0,-3.0,-11.0,-4.0,-4.0,-1.0,-1.0,0.0,1651067690548665.0,3
1703,-1.0,-3.0,0.0,0.0,-6.0,-2.0,-1.0,-1.0,1651067690548665.0,3
1704,-2.0,-1.0,4.0,0.0,5.0,0.0,-4.0,-3.0,1651067690549669.0,3
1705,-1.0,-1.0,-2.0,-9.0,-11.0,-4.0,-5.0,2.0,1651067690549669.0,3
1706,-1.0,0.0,3.0,7.0,2.0,0.0,1.0,1.0,1651067690554669.0,3
1707,1.0,2.0,1.0,7.0,-2.0,-4.0,0.0,0.0,1651067690554669.0,3
1708,0.0,-4.0,-2.0,-2.0,3.0,7.0,2.0,0.0,1651067690569849.0,3
1709,-1.0,0.0,-8.0,-3.0,-5.0,-2.0,-1.0,-3.0,1651067690569849.0,3
1710,2.0,-1.0,2.0,1.0,7.0,1.0,1.0,-1.0,1651067690571784.0,3
1711,0.0,-2.0,-1.0,0.0,0.0,1.0,2.0,-1.0,1651067690571784.0,3
1712,1.0,1.0,-1.0,6.0,-5.0,-3.0,1.0,-1.0,1651067690583836.0,3
1713,-1.0,3.0,13.0,2.0,4.0,-2.0,-2.0,-1.0,1651067690583836.0,3
1714,-2.0,0.0,-2.0,-3.0,-4.0,1.0,-3.0,-2.0,1651067690607749.0,3
1715,0.0,-2.0,2.0,1.0,5.0,3.0,3.0,2.0,1651067690607749.0,3
1716,0.0,-1.0,-4.0,3.0,-1.0,-2.0,-1.0,-1.0,1651067690609742.0,3
1717,1.0,-1.0,-5.0,-4.0,-3.0,0.0,-2.0,-1.0,1651067690609742.0,3
1718,-1.0,-2.0,1.0,-1.0,-2.0,-3.0,1.0,-1.0,1651067690610739.0,3
1719,0.0,0.0,0.0,4.0,2.0,-1.0,-3.0,-1.0,1651067690610739.0,3
1720,0.0,2.0,-3.0,-1.0,-1.0,-2.0,-2.0,1.0,1651067690628859.0,3
1721,1.0,0.0,6.0,-2.0,0.0,0.0,2.0,1.0,1651067690628859.0,3
1722,-1.0,-2.0,1.0,-4.0,-2.0,-2.0,-1.0,-2.0,1651067690629803.0,3
1723,-2.0,0.0,-6.0,-2.0,3.0,3.0,-1.0,-3.0,1651067690629803.0,3
1724,-2.0,-2.0,6.0,0.0,-2.0,-1.0,-1.0,-1.0,1651067690651734.0,3
1725,0.0,-4.0,-9.0,-7.0,0.0,3.0,1.0,-1.0,1651067690651734.0,3
1726,1.0,1.0,3.0,9.0,11.0,4.0,2.0,2.0,1651067690652664.0,3
1727,-2.0,-1.0,-2.0,6.0,1.0,-2.0,-1.0,-1.0,1651067690652664.0,3
1728,1.0,1.0,18.0,-4.0,-3.0,2.0,0.0,0.0,1651067690666941.0,3
1729,-1.0,-2.0,-4.0,0.0,-2.0,2.0,0.0,0.0,1651067690666941.0,3
1730,-2.0,-2.0,-1.0,-1.0,-2.0,-2.0,0.0,0.0,1651067690666941.0,3
1731,0.0,-1.0,-4.0,-4.0,-1.0,-1.0,-2.0,-1.0,1651067690666941.0,3
1732,-1.0,2.0,14.0,17.0,3.0,-1.0,-3.0,-1.0,1651067690689565.0,3
1733,2.0,-1.0,-14.0,-8.0,-6.0,-1.0,0.0,0.0,1651067690689565.0,3
1734,2.0,-1.0,-6.0,-13.0,0.0,1.0,4.0,3.0,1651067690689565.0,3
1735,-3.0,-2.0,-6.0,0.0,1.0,0.0,-2.0,-2.0,1651067690689565.0,3
1736,-1.0,-3.0,-1.0,-1.0,0.0,-1.0,0.0,3.0,1651067690711879.0,3
1737,0.0,-1.0,5.0,4.0,-1.0,0.0,-1.0,0.0,1651067690711879.0,3
1738,0.0,2.0,-4.0,1.0,-1.0,-1.0,0.0,-1.0,1651067690711879.0,3
1739,1.0,-1.0,-2.0,-4.0,-5.0,-1.0,-3.0,0.0,1651067690711879.0,3
1740,0.0,0.0,-3.0,-5.0,1.0,0.0,2.0,0.0,1651067690726992.0,3
1741,-1.0,-3.0,-3.0,-9.0,-1.0,0.0,-2.0,-3.0,1651067690726992.0,3
1742,-1.0,-1.0,-1.0,0.0,-6.0,-3.0,-3.0,-2.0,1651067690726992.0,3
1743,-1.0,1.0,3.0,-4.0,-1.0,0.0,0.0,1.0,1651067690726992.0,3
1744,0.0,-2.0,-10.0,-2.0,1.0,0.0,-1.0,-2.0,1651067690748598.0,3
1745,-2.0,-2.0,-1.0,-1.0,-3.0,-5.0,-2.0,1.0,1651067690748598.0,3
1746,-1.0,-2.0,2.0,0.0,-1.0,3.0,-1.0,-1.0,1651067690749602.0,3
1747,-1.0,0.0,2.0,8.0,9.0,3.0,4.0,0.0,1651067690749602.0,3
1748,-3.0,0.0,-5.0,-4.0,-3.0,-3.0,-3.0,-1.0,1651067690772008.0,3
1749,-1.0,0.0,5.0,2.0,-1.0,0.0,0.0,1.0,1651067690772008.0,3
1750,-1.0,-1.0,-5.0,-5.0,-7.0,-1.0,0.0,0.0,1651067690772008.0,3
1751,-2.0,0.0,11.0,14.0,4.0,0.0,-1.0,0.0,1651067690772008.0,3
1752,-1.0,0.0,-13.0,-13.0,-5.0,-6.0,-3.0,-2.0,1651067690786684.0,3
1753,2.0,1.0,2.0,3.0,5.0,3.0,1.0,0.0,1651067690786684.0,3
1754,0.0,-3.0,-1.0,-3.0,-1.0,2.0,-1.0,-1.0,1651067690787705.0,3
1755,2.0,1.0,4.0,1.0,-1.0,0.0,1.0,-1.0,1651067690787705.0,3
1756,-1.0,-1.0,3.0,0.0,-1.0,1.0,1.0,-2.0,1651067690825153.0,3
1757,0.0,0.0,-1.0,0.0,-8.0,-5.0,-1.0,-1.0,1651067690825153.0,3
1758,-3.0,1.0,1.0,1.0,10.0,3.0,-4.0,-2.0,1651067690825294.0,3
1759,-2.0,-4.0,-12.0,-5.0,-5.0,1.0,2.0,1.0,1651067690825294.0,3
1760,0.0,-1.0,1.0,2.0,4.0,-1.0,-1.0,0.0,1651067690831281.0,3
1761,0.0,2.0,-4.0,-1.0,-1.0,-2.0,-3.0,-2.0,1651067690831281.0,3
1762,1.0,1.0,5.0,5.0,-4.0,-1.0,1.0,0.0,1651067690832278.0,3
1763,0.0,-2.0,-2.0,-9.0,-8.0,-2.0,-1.0,0.0,1651067690832278.0,3
1764,1.0,-1.0,-2.0,-4.0,-7.0,-2.0,-2.0,-1.0,1651067690846308.0,3
1765,0.0,-2.0,0.0,11.0,9.0,1.0,-1.0,2.0,1651067690846308.0,3
1766,-1.0,0.0,5.0,-1.0,-5.0,-3.0,-3.0,-1.0,1651067690847238.0,3
1767,0.0,1.0,0.0,-2.0,-3.0,-3.0,-2.0,-2.0,1651067690847238.0,3
1768,-1.0,-1.0,8.0,2.0,0.0,3.0,2.0,1.0,1651067690869320.0,3
1769,0.0,1.0,-2.0,1.0,1.0,0.0,0.0,-1.0,1651067690869320.0,3
1770,-1.0,-2.0,-7.0,-2.0,-3.0,-1.0,-2.0,-1.0,1651067690876252.0,3
1771,-1.0,0.0,2.0,-3.0,-1.0,0.0,1.0,-1.0,1651067690876252.0,3
1772,-1.0,-1.0,-1.0,6.0,1.0,0.0,1.0,-1.0,1651067690891522.0,3
1773,-2.0,-1.0,2.0,-6.0,1.0,-4.0,-3.0,-1.0,1651067690891522.0,3
1774,-1.0,1.0,-2.0,1.0,-1.0,1.0,0.0,1.0,1651067690892521.0,3
1775,1.0,0.0,-1.0,-4.0,1.0,-2.0,-1.0,-1.0,1651067690892521.0,3
1776,0.0,2.0,-5.0,-2.0,-3.0,3.0,0.0,-1.0,1651067690906389.0,3
1777,-1.0,-4.0,0.0,0.0,-2.0,0.0,2.0,0.0,1651067690906389.0,3
1778,0.0,-1.0,5.0,11.0,-1.0,-4.0,-2.0,0.0,1651067690907359.0,3
1779,1.0,-4.0,-8.0,-11.0,1.0,0.0,-1.0,-1.0,1651067690907359.0,3
1780,-1.0,-1.0,2.0,2.0,-7.0,-1.0,0.0,-2.0,1651067690937401.0,3
1781,-1.0,0.0,-6.0,-2.0,12.0,5.0,1.0,0.0,1651067690937401.0,3
1782,-2.0,-2.0,-2.0,-5.0,-5.0,-4.0,1.0,-1.0,1651067690938333.0,3
1783,1.0,3.0,12.0,10.0,4.0,-2.0,0.0,0.0,1651067690938333.0,3
1784,0.0,-3.0,-5.0,-2.0,-2.0,-1.0,-2.0,-1.0,1651067690951364.0,3
1785,0.0,0.0,2.0,-4.0,-4.0,-3.0,1.0,0.0,1651067690951364.0,3
1786,0.0,-1.0,-7.0,1.0,2.0,1.0,-2.0,-1.0,1651067690952295.0,3
1787,0.0,0.0,-2.0,4.0,-2.0,2.0,0.0,1.0,1651067690952295.0,3
1788,0.0,-1.0,0.0,-12.0,1.0,0.0,1.0,0.0,1651067690966258.0,3
1789,-1.0,0.0,6.0,4.0,0.0,-1.0,-1.0,-2.0,1651067690966258.0,3
1790,-1.0,0.0,8.0,6.0,3.0,4.0,3.0,1.0,1651067690974479.0,3
1791,-1.0,-3.0,-25.0,-13.0,-3.0,-1.0,-2.0,0.0,1651067690974479.0,3
1792,-1.0,1.0,3.0,2.0,5.0,0.0,-1.0,1.0,1651067690988736.0,3
1793,1.0,0.0,-1.0,-4.0,-6.0,-2.0,0.0,1.0,1651067690988736.0,3
1794,0.0,-1.0,1.0,3.0,2.0,0.0,0.0,-2.0,1651067690989674.0,3
1795,-2.0,-2.0,3.0,-2.0,-2.0,0.0,1.0,-1.0,1651067690989674.0,3
1796,-1.0,1.0,0.0,4.0,-3.0,-7.0,-4.0,0.0,1651067691011489.0,3
1797,-1.0,-4.0,-6.0,-13.0,7.0,10.0,4.0,1.0,1651067691011489.0,3
1798,-1.0,0.0,0.0,2.0,7.0,-1.0,0.0,1.0,1651067691012429.0,3
1799,-1.0,-1.0,4.0,-1.0,-3.0,-1.0,-1.0,-1.0,1651067691012429.0,3
1800,0.0,-2.0,-1.0,3.0,3.0,0.0,-2.0,-1.0,1651067691026604.0,3
1801,-1.0,-1.0,-2.0,1.0,-6.0,-4.0,-1.0,-1.0,1651067691026604.0,0
1802,-1.0,-2.0,-4.0,-9.0,0.0,3.0,-1.0,-1.0,1651067691027632.0,0
1803,-3.0,1.0,4.0,2.0,4.0,-2.0,-1.0,0.0,1651067691027632.0,0
1804,0.0,-1.0,-5.0,-1.0,-12.0,-3.0,-1.0,0.0,1651067691049539.0,0
1805,-1.0,1.0,9.0,8.0,8.0,1.0,0.0,0.0,1651067691049539.0,0
1806,0.0,1.0,-6.0,-6.0,-5.0,-4.0,-2.0,-1.0,1651067691049539.0,0
1807,0.0,-1.0,0.0,-1.0,-2.0,-1.0,-1.0,-2.0,1651067691049539.0,0
1808,0.0,-2.0,-5.0,-5.0,-8.0,-4.0,-1.0,-1.0,1651067691071549.0,0
1809,-1.0,-1.0,5.0,4.0,9.0,2.0,-1.0,-1.0,1651067691071549.0,0
1810,1.0,0.0,2.0,8.0,10.0,4.0,0.0,1.0,1651067691072480.0,0
1811,1.0,0.0,-1.0,1.0,-1.0,-2.0,-2.0,0.0,1651067691072480.0,0
1812,0.0,1.0,-2.0,-1.0,2.0,3.0,3.0,0.0,1651067691094982.0,0
1813,-1.0,-2.0,0.0,-6.0,-21.0,-9.0,0.0,1.0,1651067691094982.0,0
1814,-2.0,-3.0,-2.0,-7.0,-4.0,-9.0,-5.0,-1.0,1651067691095941.0,0
1815,0.0,1.0,2.0,4.0,14.0,12.0,4.0,3.0,1651067691095941.0,0
1816,-1.0,0.0,1.0,3.0,1.0,-4.0,-2.0,-1.0,1651067691108877.0,0
1817,-1.0,-1.0,-3.0,4.0,2.0,-3.0,-4.0,-2.0,1651067691108877.0,0
1818,0.0,2.0,0.0,-8.0,-12.0,-6.0,-2.0,-1.0,1651067691109875.0,0
1819,0.0,-2.0,0.0,-3.0,-8.0,-2.0,-2.0,-1.0,1651067691109875.0,0
1820,0.0,-1.0,-6.0,-5.0,-6.0,-6.0,0.0,1.0,1651067691132086.0,0
1821,3.0,1.0,2.0,11.0,38.0,33.0,8.0,2.0,1651067691132086.0,0
1822,-1.0,-2.0,-4.0,-3.0,-7.0,-5.0,0.0,-1.0,1651067691132086.0,4
1823,-1.0,-1.0,-2.0,-1.0,1.0,3.0,-1.0,0.0,1651067691132086.0,4
1824,1.0,-2.0,4.0,2.0,1.0,1.0,0.0,-1.0,1651067691146205.0,4
1825,1.0,1.0,0.0,-4.0,-15.0,-16.0,-7.0,-2.0,1651067691146205.0,4
1826,0.0,-2.0,-2.0,5.0,5.0,2.0,1.0,2.0,1651067691154185.0,4
1827,-2.0,-1.0,-1.0,0.0,1.0,3.0,0.0,0.0,1651067691154185.0,4
1828,-1.0,0.0,3.0,3.0,-2.0,-2.0,-2.0,0.0,1651067691169257.0,4
1829,-2.0,-2.0,-8.0,-1.0,5.0,2.0,-1.0,0.0,1651067691169257.0,4
1830,2.0,2.0,5.0,-3.0,2.0,12.0,4.0,0.0,1651067691170188.0,4
1831,-1.0,-1.0,0.0,0.0,-16.0,-15.0,-3.0,-4.0,1651067691170188.0,4
1832,-2.0,-1.0,-7.0,-12.0,2.0,2.0,-1.0,-2.0,1651067691191200.0,4
1833,0.0,2.0,3.0,-2.0,-13.0,-9.0,-1.0,1.0,1651067691191200.0,4
1834,0.0,-5.0,-6.0,-2.0,-1.0,-1.0,-2.0,-2.0,1651067691192137.0,4
1835,-1.0,3.0,9.0,7.0,-2.0,-4.0,-2.0,-1.0,1651067691192137.0,4
1836,-3.0,-4.0,-8.0,-8.0,-1.0,1.0,-2.0,-1.0,1651067691206160.0,4
1837,-2.0,-4.0,-5.0,-1.0,4.0,2.0,0.0,0.0,1651067691206160.0,4
1838,-1.0,1.0,-1.0,-5.0,-3.0,0.0,0.0,-1.0,1651067691214137.0,4
1839,1.0,-1.0,-1.0,-1.0,-2.0,-3.0,-1.0,-1.0,1651067691214137.0,4
1840,-2.0,-2.0,5.0,6.0,4.0,5.0,2.0,0.0,1651067691229252.0,4
1841,2.0,2.0,-3.0,-11.0,-28.0,-15.0,0.0,1.0,1651067691229252.0,4
1842,2.0,3.0,9.0,12.0,27.0,11.0,2.0,4.0,1651067691230182.0,4
1843,-1.0,-2.0,-7.0,-4.0,-4.0,-5.0,-3.0,-4.0,1651067691230182.0,4
1844,-3.0,-4.0,-3.0,-2.0,-5.0,2.0,1.0,2.0,1651067691251130.0,4
1845,-3.0,-1.0,0.0,-2.0,-4.0,-1.0,-3.0,-8.0,1651067691251130.0,4
1846,2.0,-2.0,-4.0,-1.0,-1.0,-2.0,-2.0,6.0,1651067691252142.0,4
1847,1.0,2.0,6.0,0.0,-4.0,-5.0,-3.0,-2.0,1651067691252142.0,4
1848,4.0,2.0,5.0,3.0,11.0,5.0,5.0,0.0,1651067691275129.0,4
1849,-5.0,-2.0,2.0,1.0,2.0,6.0,2.0,-2.0,1651067691275129.0,4
1850,1.0,1.0,-4.0,-5.0,-9.0,-7.0,-2.0,-4.0,1651067691276074.0,4
1851,-5.0,1.0,9.0,7.0,8.0,5.0,2.0,4.0,1651067691276074.0,4
1852,-3.0,-7.0,-11.0,-12.0,-11.0,-4.0,-3.0,-1.0,1651067691289091.0,4
1853,6.0,4.0,6.0,5.0,13.0,2.0,0.0,6.0,1651067691289091.0,4
1854,-3.0,-3.0,-6.0,-3.0,-2.0,9.0,0.0,-11.0,1651067691290022.0,4
1855,2.0,4.0,9.0,13.0,9.0,6.0,1.0,8.0,1651067691290022.0,4
1856,-4.0,-6.0,-12.0,-15.0,-21.0,-13.0,0.0,-11.0,1651067691311150.0,4
1857,-2.0,0.0,-2.0,-7.0,-22.0,-18.0,-12.0,-3.0,1651067691311150.0,4
1858,-1.0,5.0,7.0,8.0,13.0,-6.0,-6.0,-2.0,1651067691312117.0,4
1859,7.0,2.0,-5.0,-3.0,1.0,18.0,5.0,5.0,1651067691312117.0,4
1860,-2.0,0.0,10.0,11.0,12.0,8.0,-1.0,-3.0,1651067691334271.0,4
1861,-3.0,-3.0,-7.0,-5.0,-6.0,-6.0,-1.0,-2.0,1651067691334271.0,4
1862,-5.0,1.0,13.0,7.0,-8.0,-8.0,-3.0,-6.0,1651067691335271.0,4
1863,-5.0,-13.0,-29.0,-9.0,1.0,-9.0,-4.0,-1.0,1651067691335271.0,4
1864,-3.0,3.0,-7.0,-2.0,6.0,8.0,4.0,1.0,1651067691349245.0,4
1865,-3.0,-6.0,-10.0,2.0,20.0,18.0,8.0,3.0,1651067691349245.0,4
1866,4.0,14.0,12.0,7.0,6.0,9.0,7.0,2.0,1651067691350232.0,4
1867,6.0,-1.0,8.0,3.0,-2.0,-8.0,-7.0,-1.0,1651067691350232.0,4
1868,-5.0,-1.0,3.0,7.0,3.0,-1.0,-8.0,-14.0,1651067691371363.0,4
1869,-16.0,-19.0,-39.0,-27.0,-19.0,-13.0,-13.0,-23.0,1651067691371363.0,4
1870,14.0,0.0,-4.0,0.0,-3.0,-3.0,5.0,37.0,1651067691372294.0,4
1871,11.0,1.0,6.0,0.0,7.0,12.0,20.0,20.0,1651067691372294.0,4
1872,-3.0,1.0,4.0,4.0,-3.0,-7.0,-11.0,-3.0,1651067691394351.0,4
1873,-6.0,12.0,34.0,24.0,3.0,-1.0,-5.0,-14.0,1651067691394351.0,4
1874,-15.0,-17.0,-22.0,-15.0,-5.0,-9.0,-20.0,-24.0,1651067691395351.0,4
1875,-5.0,-1.0,-10.0,-11.0,-11.0,-8.0,6.0,-9.0,1651067691395351.0,4
1876,10.0,-3.0,-10.0,-5.0,3.0,13.0,3.0,13.0,1651067691409379.0,4
1877,7.0,10.0,16.0,5.0,-1.0,1.0,14.0,11.0,1651067691409379.0,4
1878,-12.0,-1.0,12.0,5.0,-1.0,-2.0,2.0,-13.0,1651067691410310.0,4
1879,-21.0,-13.0,-10.0,-12.0,-23.0,-22.0,-28.0,-20.0,1651067691410310.0,4
1880,14.0,14.0,6.0,4.0,1.0,-4.0,-2.0,12.0,1651067691431448.0,4
1881,25.0,1.0,-5.0,8.0,15.0,8.0,18.0,47.0,1651067691431448.0,4
1882,-2.0,-2.0,-7.0,-10.0,-9.0,-3.0,1.0,-8.0,1651067691432450.0,4
1883,-2.0,2.0,9.0,2.0,-6.0,4.0,10.0,1.0,1651067691432450.0,4
1884,-11.0,-3.0,7.0,6.0,0.0,-5.0,-7.0,-7.0,1651067691454759.0,4
1885,-1.0,6.0,18.0,9.0,-2.0,-7.0,-15.0,-23.0,1651067691454759.0,4
1886,-1.0,-1.0,2.0,1.0,7.0,10.0,-4.0,-1.0,1651067691455690.0,4
1887,-9.0,-13.0,-26.0,-24.0,-6.0,-2.0,2.0,-6.0,1651067691455690.0,4
1888,-10.0,-8.0,-2.0,6.0,15.0,-1.0,-9.0,-3.0,1651067691468669.0,4
1889,18.0,22.0,16.0,10.0,4.0,2.0,13.0,25.0,1651067691468669.0,4
1890,4.0,-5.0,-8.0,-3.0,-6.0,3.0,2.0,5.0,1651067691469665.0,4
1891,0.0,14.0,2.0,-2.0,3.0,6.0,-1.0,-17.0,1651067691469665.0,4
1892,-4.0,-1.0,8.0,6.0,3.0,3.0,14.0,-6.0,1651067691491980.0,4
1893,2.0,-1.0,0.0,-7.0,-5.0,-4.0,-6.0,5.0,1651067691491980.0,4
1894,-6.0,0.0,8.0,0.0,-15.0,-14.0,-23.0,-20.0,1651067691491980.0,4
1895,8.0,7.0,11.0,21.0,36.0,21.0,13.0,17.0,1651067691491980.0,4
1896,18.0,14.0,14.0,5.0,-6.0,-6.0,-16.0,9.0,1651067691514287.0,4
1897,-22.0,-19.0,-12.0,-12.0,-10.0,1.0,7.0,-31.0,1651067691514287.0,4
1898,-5.0,-13.0,-17.0,-14.0,-19.0,-12.0,-4.0,19.0,1651067691521336.0,4
1899,7.0,-3.0,-9.0,1.0,8.0,7.0,16.0,4.0,1651067691521336.0,4
1900,0.0,16.0,-2.0,-3.0,0.0,-6.0,-3.0,-13.0,1651067691529417.0,4
1901,-4.0,-6.0,-3.0,-1.0,3.0,7.0,-1.0,1.0,1651067691529417.0,4
1902,3.0,3.0,-3.0,-6.0,-13.0,-7.0,0.0,0.0,1651067691529417.0,4
1903,-9.0,-11.0,15.0,20.0,-4.0,-13.0,-21.0,-11.0,1651067691529417.0,4
1904,1.0,-25.0,-27.0,-42.0,-22.0,-1.0,28.0,19.0,1651067691551863.0,4
1905,24.0,31.0,4.0,11.0,4.0,9.0,1.0,14.0,1651067691551863.0,4
1906,-8.0,-8.0,-13.0,17.0,17.0,0.0,-6.0,-15.0,1651067691551863.0,4
1907,-2.0,12.0,21.0,31.0,8.0,-6.0,-12.0,-11.0,1651067691551863.0,4
1908,5.0,7.0,9.0,-16.0,-1.0,5.0,4.0,14.0,1651067691573746.0,4
1909,-9.0,-15.0,-9.0,-16.0,-12.0,-12.0,-1.0,-4.0,1651067691573746.0,4
1910,1.0,7.0,10.0,-4.0,-13.0,3.0,4.0,-1.0,1651067691574676.0,4
1911,-2.0,1.0,-1.0,11.0,29.0,10.0,1.0,-3.0,1651067691574676.0,4
1912,5.0,5.0,7.0,18.0,6.0,3.0,4.0,13.0,1651067691588706.0,4
1913,-9.0,4.0,9.0,13.0,9.0,5.0,-19.0,-26.0,1651067691588706.0,4
1914,6.0,10.0,14.0,2.0,6.0,0.0,8.0,9.0,1651067691589650.0,4
1915,-2.0,-8.0,-23.0,-16.0,-16.0,-16.0,-18.0,-10.0,1651067691589650.0,4
1916,-18.0,-28.0,-19.0,-10.0,-10.0,-5.0,-9.0,-24.0,1651067691611752.0,4
1917,9.0,-2.0,-32.0,-21.0,-15.0,-11.0,5.0,27.0,1651067691611752.0,4
1918,-1.0,6.0,7.0,4.0,-3.0,0.0,-1.0,-10.0,1651067691612688.0,4
1919,-4.0,-9.0,12.0,-4.0,-2.0,2.0,2.0,0.0,1651067691612688.0,4
1920,2.0,24.0,5.0,7.0,3.0,-1.0,5.0,2.0,1651067691633669.0,4
1921,-2.0,0.0,14.0,9.0,9.0,10.0,1.0,-10.0,1651067691633669.0,4
