EMG_s0,EMG_s1,EMG_s2,EMG_s3,EMG_s4,EMG_s5,EMG_s6,EMG_s7,timestamp
-1.0,0.0,1.0,0.0,-5.0,-2.0,0.0,-2.0,1651070774433211.0
0.0,0.0,-2.0,-1.0,1.0,-1.0,-1.0,-1.0,1651070774433211.0
-1.0,-2.0,-3.0,0.0,0.0,-1.0,-2.0,-2.0,1651070774444876.0
0.0,3.0,5.0,-2.0,-3.0,-1.0,-1.0,0.0,1651070774444876.0
-2.0,-10.0,-11.0,1.0,-4.0,-5.0,-1.0,-3.0,1651070774453785.0
0.0,-3.0,0.0,-2.0,2.0,6.0,0.0,0.0,1651070774453785.0
1.0,2.0,1.0,-1.0,1.0,-2.0,1.0,1.0,1651070774468894.0
0.0,-3.0,-1.0,0.0,1.0,1.0,0.0,0.0,1651070774468894.0
0.0,3.0,1.0,-1.0,1.0,-1.0,1.0,-3.0,1651070774469825.0
-2.0,-1.0,-1.0,-3.0,-7.0,-4.0,-2.0,-1.0,1651070774469825.0
-1.0,-2.0,-5.0,0.0,-2.0,-1.0,-3.0,1.0,1651070774491635.0
0.0,0.0,6.0,1.0,1.0,-1.0,-2.0,-2.0,1651070774491635.0
1.0,2.0,4.0,1.0,0.0,1.0,-1.0,-1.0,1651070774492635.0
0.0,0.0,-2.0,-3.0,-10.0,-3.0,-1.0,0.0,1651070774492635.0
0.0,-1.0,0.0,1.0,16.0,2.0,-1.0,-5.0,1651070774505444.0
-1.0,-1.0,-1.0,1.0,0.0,1.0,2.0,3.0,1651070774505444.0
0.0,-3.0,-5.0,-2.0,-2.0,-2.0,0.0,0.0,1651070774513499.0
0.0,3.0,4.0,1.0,-1.0,4.0,2.0,-1.0,1651070774513499.0
-1.0,-4.0,-2.0,1.0,-4.0,0.0,1.0,-1.0,1651070774528667.0
-1.0,0.0,1.0,0.0,0.0,-2.0,-1.0,-2.0,1651070774528667.0
-3.0,0.0,0.0,0.0,-2.0,-2.0,-1.0,-2.0,1651070774530621.0
-2.0,0.0,1.0,-1.0,0.0,-3.0,-1.0,0.0,1651070774530621.0
0.0,0.0,1.0,-3.0,-1.0,-1.0,1.0,-1.0,1651070774551080.0
-1.0,-3.0,-3.0,-3.0,-1.0,2.0,0.0,-1.0,1651070774551080.0
0.0,1.0,4.0,-1.0,-2.0,2.0,0.0,0.0,1651070774553040.0
0.0,-3.0,-2.0,3.0,2.0,-1.0,1.0,0.0,1651070774553040.0
-2.0,0.0,1.0,0.0,0.0,1.0,0.0,0.0,1651070774565126.0
0.0,-3.0,-6.0,0.0,1.0,-4.0,-1.0,-1.0,1651070774565126.0
0.0,2.0,-2.0,0.0,1.0,3.0,0.0,0.0,1651070774574073.0
0.0,0.0,5.0,-1.0,2.0,1.0,1.0,-1.0,1651070774574073.0
1.0,-3.0,-2.0,-2.0,-2.0,0.0,-2.0,2.0,1651070774589105.0
0.0,0.0,2.0,-1.0,-7.0,-5.0,-1.0,0.0,1651070774589105.0
-2.0,-1.0,-2.0,0.0,2.0,2.0,1.0,0.0,1651070774590031.0
-1.0,-2.0,-5.0,-1.0,0.0,-1.0,-2.0,1.0,1651070774590031.0
1.0,2.0,0.0,0.0,-1.0,1.0,-2.0,1.0,1651070774610827.0
0.0,-1.0,-2.0,-2.0,-1.0,-3.0,-3.0,-7.0,1651070774610827.0
-1.0,0.0,2.0,-3.0,-11.0,-6.0,-1.0,2.0,1651070774612819.0
-1.0,1.0,-2.0,0.0,4.0,-1.0,0.0,1.0,1651070774612819.0
-1.0,-2.0,-7.0,3.0,7.0,7.0,3.0,2.0,1651070774634114.0
-1.0,-1.0,0.0,0.0,4.0,0.0,1.0,-1.0,1651070774634114.0
1.0,-1.0,0.0,0.0,5.0,1.0,0.0,-4.0,1651070774634950.0
-1.0,0.0,4.0,-3.0,-9.0,-2.0,0.0,-1.0,1651070774634950.0
-2.0,0.0,1.0,-3.0,-5.0,-3.0,-3.0,2.0,1651070774648979.0
-1.0,0.0,0.0,1.0,-2.0,-1.0,-1.0,0.0,1651070774648979.0
-2.0,0.0,0.0,-1.0,-4.0,-2.0,-2.0,-1.0,1651070774649910.0
0.0,-1.0,-5.0,0.0,-2.0,-5.0,-2.0,-2.0,1651070774649910.0
0.0,0.0,3.0,-3.0,-3.0,-3.0,-1.0,-2.0,1651070774678644.0
0.0,-1.0,-4.0,0.0,2.0,5.0,0.0,1.0,1651070774678644.0
-1.0,2.0,1.0,-2.0,-2.0,-1.0,-1.0,1.0,1651070774680599.0
0.0,1.0,0.0,0.0,3.0,1.0,2.0,-1.0,1651070774680599.0
-1.0,0.0,1.0,-1.0,2.0,-4.0,-1.0,0.0,1651070774693537.0
1.0,1.0,0.0,-1.0,-3.0,-2.0,0.0,0.0,1651070774693537.0
-1.0,-3.0,-2.0,-1.0,-1.0,1.0,0.0,0.0,1651070774695562.0
-1.0,-1.0,3.0,-1.0,-4.0,-1.0,-1.0,0.0,1651070774695562.0
-1.0,-5.0,-7.0,-3.0,1.0,-1.0,-2.0,-3.0,1651070774708610.0
-1.0,-1.0,-4.0,0.0,3.0,-1.0,-3.0,7.0,1651070774708610.0
0.0,0.0,2.0,0.0,2.0,0.0,-1.0,-2.0,1651070774710626.0
-1.0,1.0,0.0,2.0,1.0,0.0,0.0,0.0,1651070774710626.0
-1.0,0.0,4.0,0.0,-3.0,0.0,0.0,-2.0,1651070774730817.0
-1.0,0.0,-1.0,0.0,-1.0,0.0,1.0,-1.0,1651070774730817.0
1.0,1.0,-3.0,-1.0,-4.0,-4.0,-1.0,1.0,1651070774732745.0
0.0,-5.0,-7.0,0.0,6.0,0.0,-1.0,-2.0,1651070774732745.0
1.0,2.0,2.0,1.0,1.0,5.0,2.0,0.0,1651070774753814.0
1.0,1.0,-1.0,0.0,0.0,-1.0,-2.0,-2.0,1651070774753814.0
-1.0,-1.0,2.0,-2.0,-3.0,0.0,-2.0,-2.0,1651070774754814.0
0.0,-2.0,-1.0,0.0,-1.0,-3.0,-2.0,-2.0,1651070774754814.0
-1.0,-1.0,0.0,1.0,1.0,-2.0,0.0,0.0,1651070774767781.0
-1.0,-1.0,1.0,-1.0,-3.0,0.0,0.0,0.0,1651070774767781.0
2.0,1.0,1.0,-1.0,-3.0,-1.0,1.0,-2.0,1651070774774827.0
-1.0,-1.0,1.0,-5.0,-20.0,-8.0,-3.0,2.0,1651070774774827.0
0.0,-3.0,-3.0,2.0,27.0,6.0,0.0,1.0,1651070774790281.0
0.0,1.0,1.0,2.0,7.0,9.0,3.0,1.0,1651070774790281.0
-1.0,-2.0,-4.0,1.0,0.0,-1.0,-1.0,1.0,1651070774799260.0
-1.0,-1.0,-1.0,1.0,-3.0,1.0,0.0,-1.0,1651070774799260.0
0.0,0.0,2.0,-2.0,-19.0,-9.0,-4.0,7.0,1651070774814100.0
-4.0,-1.0,-1.0,-4.0,-2.0,-3.0,-1.0,-2.0,1651070774814100.0
-1.0,0.0,2.0,1.0,3.0,2.0,0.0,0.0,1651070774815575.0
-1.0,0.0,1.0,1.0,7.0,-1.0,0.0,-2.0,1651070774815575.0
1.0,2.0,-1.0,-2.0,-8.0,-1.0,-1.0,-1.0,1651070774835763.0
-2.0,-7.0,-5.0,-2.0,1.0,-3.0,1.0,0.0,1651070774835763.0
1.0,-2.0,-1.0,1.0,2.0,2.0,-1.0,-1.0,1651070774837691.0
0.0,0.0,7.0,3.0,5.0,2.0,0.0,0.0,1651070774837691.0
0.0,1.0,3.0,2.0,-1.0,-1.0,1.0,0.0,1651070774849659.0
0.0,2.0,3.0,0.0,-7.0,-2.0,0.0,-1.0,1651070774849659.0
-2.0,-2.0,-4.0,-3.0,-4.0,-4.0,-1.0,-1.0,1651070774858635.0
0.0,3.0,0.0,-3.0,5.0,2.0,1.0,-1.0,1651070774858635.0
-2.0,-7.0,-8.0,-1.0,-6.0,-2.0,-1.0,-1.0,1651070774874047.0
1.0,0.0,-3.0,0.0,-2.0,0.0,-1.0,-1.0,1651070774874047.0
-1.0,0.0,-1.0,0.0,5.0,-1.0,0.0,1.0,1651070774875608.0
0.0,1.0,-2.0,1.0,5.0,0.0,-1.0,1.0,1651070774875608.0
-1.0,1.0,0.0,-3.0,-3.0,-2.0,1.0,-1.0,1651070774896617.0
0.0,-3.0,0.0,-2.0,-2.0,-3.0,-3.0,0.0,1651070774896617.0
-2.0,-2.0,1.0,0.0,0.0,1.0,-2.0,-9.0,1651070774897595.0
0.0,-2.0,-2.0,-1.0,-4.0,-2.0,-1.0,8.0,1651070774897595.0
1.0,-1.0,-4.0,-4.0,-2.0,-3.0,0.0,-1.0,1651070774910250.0
-1.0,2.0,2.0,4.0,7.0,1.0,0.0,1.0,1651070774910250.0
-1.0,-2.0,1.0,-2.0,0.0,4.0,1.0,2.0,1651070774918626.0
0.0,-2.0,-1.0,-1.0,-4.0,-1.0,0.0,-5.0,1651070774918626.0
-1.0,1.0,-2.0,-1.0,-7.0,-2.0,-1.0,-2.0,1651070774933650.0
-1.0,1.0,3.0,-1.0,-8.0,-5.0,-3.0,0.0,1651070774933650.0
-2.0,-3.0,-3.0,-2.0,-3.0,-2.0,0.0,1.0,1651070774935601.0
-2.0,-6.0,-12.0,-3.0,13.0,4.0,0.0,0.0,1651070774935601.0
0.0,2.0,9.0,6.0,10.0,5.0,1.0,2.0,1651070774956570.0
1.0,-2.0,-2.0,0.0,-1.0,1.0,3.0,-2.0,1651070774956570.0
-1.0,1.0,-1.0,-1.0,-7.0,-4.0,0.0,0.0,1651070774957519.0
0.0,-1.0,-2.0,-2.0,-5.0,-4.0,-2.0,0.0,1651070774957519.0
1.0,1.0,-1.0,-1.0,2.0,0.0,-2.0,-1.0,1651070774970265.0
-2.0,-5.0,-6.0,-3.0,-6.0,-2.0,0.0,-2.0,1651070774970265.0
1.0,1.0,0.0,2.0,1.0,-1.0,0.0,2.0,1651070774986346.0
0.0,0.0,-3.0,-1.0,-1.0,1.0,-1.0,-2.0,1651070774986346.0
0.0,2.0,0.0,-1.0,3.0,1.0,0.0,0.0,1651070774993386.0
1.0,0.0,2.0,1.0,1.0,0.0,-1.0,-2.0,1651070774993386.0
0.0,-1.0,-3.0,-1.0,-3.0,-1.0,1.0,1.0,1651070774995315.0
1.0,1.0,4.0,1.0,1.0,1.0,1.0,-2.0,1651070774995315.0
-1.0,-1.0,-3.0,-1.0,-4.0,-3.0,-3.0,-2.0,1651070775016592.0
-1.0,-1.0,0.0,-4.0,-6.0,-2.0,-2.0,0.0,1651070775016592.0
1.0,2.0,5.0,1.0,1.0,-1.0,-1.0,5.0,1651070775017586.0
0.0,0.0,-1.0,2.0,7.0,4.0,2.0,-2.0,1651070775017586.0
-1.0,0.0,7.0,2.0,1.0,0.0,0.0,1.0,1651070775030257.0
1.0,-2.0,-2.0,-2.0,3.0,0.0,2.0,-3.0,1651070775030257.0
0.0,0.0,1.0,0.0,-4.0,-2.0,-3.0,-2.0,1651070775038682.0
0.0,0.0,2.0,0.0,-9.0,-4.0,-1.0,0.0,1651070775038682.0
-1.0,-2.0,-5.0,-3.0,-5.0,-2.0,1.0,-3.0,1651070775053424.0
-1.0,-2.0,-1.0,-1.0,-2.0,0.0,-1.0,1.0,1651070775053424.0
0.0,2.0,0.0,3.0,10.0,6.0,1.0,-1.0,1651070775055423.0
-1.0,-3.0,-2.0,-2.0,0.0,0.0,-1.0,0.0,1651070775055423.0
0.0,-2.0,1.0,-1.0,3.0,1.0,-1.0,0.0,1651070775076646.0
-1.0,-1.0,1.0,-1.0,-3.0,-2.0,-2.0,-2.0,1651070775076646.0
-1.0,-3.0,-3.0,-5.0,-2.0,-3.0,1.0,-1.0,1651070775077585.0
0.0,-1.0,-2.0,-2.0,-1.0,-1.0,-1.0,-2.0,1651070775077585.0
0.0,-3.0,-1.0,0.0,-3.0,-1.0,-2.0,-2.0,1651070775098556.0
1.0,5.0,-2.0,-5.0,-8.0,-6.0,-2.0,-1.0,1651070775098556.0
-2.0,-9.0,-5.0,3.0,11.0,2.0,0.0,-1.0,1651070775100544.0
0.0,2.0,0.0,1.0,4.0,1.0,0.0,1.0,1651070775100544.0
0.0,0.0,-2.0,0.0,-2.0,-1.0,-1.0,1.0,1651070775112672.0
1.0,0.0,-4.0,-1.0,-2.0,0.0,0.0,1.0,1651070775112672.0
1.0,3.0,4.0,-2.0,-2.0,-2.0,0.0,-3.0,1651070775119708.0
-1.0,-2.0,-2.0,-2.0,-4.0,-4.0,-2.0,-1.0,1651070775119708.0
-2.0,-2.0,-1.0,1.0,-7.0,-4.0,-2.0,0.0,1651070775136589.0
0.0,2.0,1.0,-2.0,-1.0,-2.0,-5.0,1.0,1651070775136589.0
2.0,3.0,-1.0,2.0,-7.0,3.0,-1.0,1.0,1651070775137555.0
-2.0,-5.0,-4.0,2.0,7.0,-1.0,-2.0,-6.0,1651070775137555.0
-1.0,-1.0,2.0,-1.0,-1.0,-2.0,-1.0,5.0,1651070775158558.0
1.0,0.0,6.0,0.0,0.0,-2.0,1.0,-3.0,1651070775158558.0
-1.0,-2.0,-4.0,-2.0,-6.0,-3.0,1.0,-1.0,1651070775160487.0
-2.0,0.0,-2.0,-3.0,-10.0,-4.0,1.0,1.0,1651070775160487.0
0.0,2.0,-2.0,3.0,3.0,-4.0,1.0,-3.0,1651070775174074.0
0.0,9.0,9.0,-4.0,10.0,8.0,2.0,3.0,1651070775174074.0
-3.0,-20.0,-54.0,-9.0,-1.0,5.0,1.0,-1.0,1651070775175507.0
0.0,3.0,28.0,11.0,9.0,1.0,0.0,0.0,1651070775175507.0
-2.0,2.0,-7.0,-4.0,-9.0,-5.0,-1.0,-2.0,1651070775196547.0
-1.0,-1.0,8.0,1.0,-9.0,-6.0,-1.0,1.0,1651070775196547.0
2.0,6.0,2.0,-3.0,-17.0,-13.0,-4.0,-2.0,1651070775197478.0
1.0,20.0,53.0,9.0,8.0,2.0,-1.0,-1.0,1651070775197478.0
-2.0,-13.0,-66.0,-13.0,14.0,6.0,2.0,2.0,1651070775218652.0
0.0,1.0,2.0,1.0,8.0,5.0,2.0,0.0,1651070775218652.0
-1.0,1.0,6.0,-3.0,-2.0,0.0,0.0,-2.0,1651070775220646.0
0.0,0.0,-3.0,-2.0,-16.0,-9.0,-2.0,-2.0,1651070775220646.0
-1.0,5.0,21.0,4.0,-11.0,-4.0,-3.0,-2.0,1651070775233697.0
-1.0,-11.0,-3.0,4.0,12.0,6.0,1.0,-1.0,1651070775233697.0
-1.0,5.0,14.0,3.0,0.0,-3.0,-1.0,-1.0,1651070775234703.0
-1.0,-7.0,-24.0,-10.0,-5.0,-1.0,-1.0,7.0,1651070775234703.0
1.0,2.0,26.0,1.0,4.0,5.0,0.0,-3.0,1651070775256648.0
-1.0,-3.0,-39.0,-5.0,-8.0,-8.0,-2.0,0.0,1651070775256648.0
-2.0,-6.0,12.0,5.0,6.0,2.0,-1.0,-2.0,1651070775257606.0
0.0,2.0,-13.0,-1.0,8.0,6.0,1.0,-1.0,1651070775257606.0
0.0,0.0,3.0,-3.0,-4.0,2.0,-1.0,-1.0,1651070775279156.0
0.0,3.0,11.0,4.0,-10.0,-5.0,-3.0,-1.0,1651070775279156.0
-3.0,7.0,-1.0,-3.0,8.0,2.0,1.0,-9.0,1651070775280139.0
-3.0,-6.0,11.0,8.0,7.0,0.0,-2.0,-6.0,1651070775280139.0
2.0,-10.0,-27.0,-8.0,-1.0,-2.0,-3.0,10.0,1651070775293401.0
4.0,1.0,5.0,4.0,0.0,6.0,6.0,7.0,1651070775293401.0
1.0,5.0,-1.0,-5.0,-8.0,-5.0,-2.0,2.0,1651070775299323.0
-2.0,-8.0,-7.0,-7.0,-11.0,-3.0,0.0,-4.0,1651070775299323.0
-5.0,4.0,16.0,2.0,-5.0,-3.0,-3.0,-10.0,1651070775316566.0
-4.0,-6.0,-6.0,1.0,5.0,2.0,-1.0,-2.0,1651070775316566.0
-2.0,-3.0,-7.0,0.0,3.0,2.0,0.0,0.0,1651070775317577.0
-1.0,3.0,13.0,0.0,-1.0,-2.0,0.0,-5.0,1651070775317577.0
-2.0,-1.0,11.0,1.0,2.0,0.0,1.0,0.0,1651070775337578.0
-3.0,-4.0,-8.0,-4.0,0.0,-2.0,-1.0,-1.0,1651070775337578.0
0.0,0.0,10.0,4.0,3.0,0.0,-2.0,1.0,1651070775346584.0
-1.0,-3.0,-17.0,-5.0,-3.0,2.0,0.0,2.0,1651070775346584.0
2.0,3.0,-2.0,4.0,1.0,1.0,1.0,-1.0,1651070775353373.0
-2.0,0.0,9.0,0.0,0.0,1.0,0.0,-2.0,1651070775353373.0
-2.0,-1.0,5.0,2.0,3.0,-3.0,-2.0,-1.0,1651070775359360.0
0.0,-2.0,-15.0,-4.0,-5.0,-1.0,2.0,3.0,1651070775359360.0
-2.0,-5.0,3.0,3.0,3.0,2.0,0.0,-1.0,1651070775376315.0
0.0,4.0,10.0,7.0,3.0,-1.0,-1.0,-4.0,1651070775376315.0
1.0,-8.0,-11.0,-4.0,0.0,3.0,0.0,2.0,1651070775377313.0
2.0,0.0,-5.0,-2.0,-3.0,1.0,0.0,-1.0,1651070775377313.0
0.0,0.0,2.0,0.0,-1.0,-2.0,-1.0,-3.0,1651070775406235.0
-1.0,3.0,2.0,-2.0,0.0,-1.0,-3.0,0.0,1651070775406235.0
0.0,3.0,-2.0,2.0,-2.0,1.0,-1.0,2.0,1651070775407253.0
0.0,-1.0,0.0,-4.0,1.0,-2.0,0.0,0.0,1651070775407253.0
1.0,1.0,-2.0,-2.0,-14.0,-5.0,-1.0,-3.0,1651070775412218.0
0.0,0.0,4.0,4.0,31.0,13.0,3.0,1.0,1651070775412218.0
2.0,-4.0,-4.0,-3.0,-1.0,-2.0,0.0,-1.0,1651070775421194.0
-1.0,-1.0,-7.0,-2.0,0.0,-1.0,0.0,-1.0,1651070775421194.0
1.0,0.0,4.0,0.0,-4.0,-2.0,0.0,1.0,1651070775436611.0
-2.0,-1.0,-3.0,-2.0,-12.0,-9.0,-2.0,-2.0,1651070775436611.0
-3.0,-1.0,6.0,-1.0,-1.0,-1.0,-2.0,-1.0,1651070775437571.0
-1.0,-2.0,-4.0,1.0,-1.0,-1.0,-1.0,0.0,1651070775437571.0
1.0,3.0,3.0,2.0,-1.0,-1.0,-1.0,1.0,1651070775458698.0
-2.0,-9.0,-21.0,-8.0,-4.0,-2.0,-1.0,-3.0,1651070775458698.0
-1.0,4.0,9.0,2.0,4.0,1.0,3.0,1.0,1651070775460643.0
-2.0,-5.0,-19.0,-5.0,-6.0,-2.0,-2.0,-3.0,1651070775460643.0
1.0,4.0,6.0,-2.0,4.0,0.0,0.0,0.0,1651070775473399.0
-1.0,-4.0,-8.0,-2.0,-6.0,-3.0,-1.0,-2.0,1651070775473399.0
-1.0,3.0,0.0,-1.0,-1.0,-4.0,0.0,1.0,1651070775479729.0
2.0,2.0,1.0,0.0,1.0,3.0,2.0,0.0,1651070775479729.0
2.0,-1.0,-5.0,1.0,3.0,3.0,-1.0,-2.0,1651070775495932.0
1.0,1.0,4.0,-2.0,-10.0,-2.0,-1.0,-1.0,1651070775495932.0
-2.0,-2.0,6.0,3.0,4.0,0.0,0.0,-3.0,1651070775497783.0
-1.0,-4.0,-9.0,0.0,9.0,1.0,-1.0,1.0,1651070775497783.0
-1.0,-2.0,2.0,0.0,4.0,-2.0,0.0,0.0,1651070775518950.0
0.0,3.0,3.0,-4.0,-10.0,-3.0,-2.0,0.0,1651070775518950.0
1.0,1.0,1.0,-1.0,-4.0,-1.0,1.0,1.0,1651070775519900.0
1.0,10.0,32.0,1.0,-2.0,-1.0,-2.0,-1.0,1651070775519900.0
-2.0,-7.0,-33.0,-1.0,-1.0,-1.0,0.0,-1.0,1651070775533965.0
1.0,3.0,2.0,-7.0,-1.0,-3.0,-2.0,-1.0,1651070775533965.0
1.0,2.0,5.0,-3.0,-3.0,-1.0,-1.0,-1.0,1651070775540017.0
1.0,-3.0,-16.0,-2.0,-1.0,-1.0,1.0,2.0,1651070775540017.0
1.0,6.0,19.0,5.0,0.0,-1.0,0.0,0.0,1651070775556173.0
-2.0,-3.0,5.0,1.0,-1.0,-1.0,0.0,-1.0,1651070775556173.0
2.0,8.0,3.0,-3.0,-1.0,-1.0,-4.0,-1.0,1651070775558012.0
-1.0,-5.0,2.0,-2.0,-3.0,0.0,-3.0,1.0,1651070775558012.0
-2.0,-10.0,-13.0,-5.0,1.0,1.0,0.0,-1.0,1651070775578954.0
0.0,0.0,-5.0,2.0,3.0,0.0,2.0,-1.0,1651070775578954.0
-3.0,-5.0,-1.0,-2.0,-2.0,-1.0,-1.0,-1.0,1651070775579925.0
-1.0,1.0,1.0,4.0,0.0,-1.0,0.0,0.0,1651070775579925.0
0.0,-1.0,2.0,0.0,4.0,1.0,0.0,2.0,1651070775592754.0
0.0,5.0,30.0,-2.0,3.0,-1.0,1.0,2.0,1651070775592754.0
-1.0,-13.0,-26.0,2.0,-2.0,0.0,-2.0,0.0,1651070775601732.0
-3.0,-14.0,-19.0,3.0,-3.0,-1.0,-1.0,-1.0,1651070775601732.0
0.0,-3.0,-12.0,-6.0,-1.0,-2.0,-1.0,-1.0,1651070775615854.0
0.0,6.0,19.0,7.0,0.0,-1.0,-1.0,-1.0,1651070775615854.0
2.0,3.0,6.0,-3.0,-1.0,1.0,0.0,1.0,1651070775617696.0
0.0,3.0,6.0,1.0,0.0,-2.0,-1.0,-2.0,1651070775617696.0
-3.0,-4.0,32.0,13.0,4.0,4.0,0.0,2.0,1651070775638759.0
0.0,-5.0,-13.0,-1.0,0.0,1.0,0.0,-1.0,1651070775638759.0
-4.0,2.0,9.0,0.0,-2.0,-3.0,0.0,0.0,1651070775640706.0
1.0,1.0,9.0,-4.0,-4.0,0.0,-1.0,0.0,1651070775640706.0
-2.0,12.0,-1.0,-9.0,-4.0,-3.0,0.0,2.0,1651070775652753.0
-2.0,-7.0,8.0,2.0,0.0,-1.0,-1.0,-1.0,1651070775652753.0
-2.0,-5.0,-25.0,3.0,1.0,1.0,-1.0,0.0,1651070775661618.0
-2.0,-7.0,-4.0,3.0,-3.0,-4.0,0.0,0.0,1651070775661618.0
-3.0,1.0,0.0,-8.0,-2.0,-1.0,-1.0,-11.0,1651070775676631.0
1.0,4.0,14.0,10.0,2.0,3.0,1.0,7.0,1651070775676631.0
1.0,-13.0,4.0,6.0,-2.0,-3.0,-1.0,-2.0,1651070775677623.0
-3.0,3.0,-4.0,-7.0,-4.0,-2.0,0.0,-1.0,1651070775677623.0
2.0,11.0,6.0,4.0,15.0,5.0,-2.0,0.0,1651070775698627.0
-1.0,4.0,-30.0,-3.0,-1.0,0.0,1.0,-3.0,1651070775698627.0
7.0,9.0,51.0,9.0,3.0,-1.0,-1.0,4.0,1651070775700561.0
0.0,-5.0,-15.0,-10.0,3.0,8.0,3.0,14.0,1651070775700561.0
-5.0,-17.0,-31.0,3.0,-4.0,-2.0,2.0,-4.0,1651070775721398.0
-4.0,-17.0,-4.0,-6.0,-3.0,-1.0,1.0,3.0,1651070775721398.0
-1.0,11.0,6.0,8.0,-18.0,-6.0,-6.0,-14.0,1651070775722337.0
-3.0,7.0,10.0,-4.0,-3.0,-15.0,-6.0,-8.0,1651070775722337.0
6.0,11.0,10.0,-3.0,15.0,19.0,3.0,2.0,1651070775736380.0
6.0,3.0,-10.0,-6.0,12.0,4.0,2.0,8.0,1651070775736380.0
-2.0,-5.0,-8.0,6.0,3.0,1.0,3.0,2.0,1651070775737297.0
-2.0,6.0,8.0,-1.0,-17.0,-12.0,-5.0,-12.0,1651070775737297.0
-8.0,-17.0,0.0,-17.0,-23.0,-12.0,-7.0,1.0,1651070775759009.0
-5.0,10.0,-1.0,3.0,-4.0,-6.0,5.0,-12.0,1651070775759009.0
-4.0,-9.0,-30.0,-12.0,2.0,6.0,2.0,4.0,1651070775759943.0
18.0,17.0,22.0,12.0,16.0,12.0,-2.0,-1.0,1651070775759943.0
11.0,-11.0,-4.0,-13.0,1.0,-3.0,2.0,5.0,1651070775771967.0
0.0,15.0,-3.0,9.0,-9.0,-3.0,2.0,-2.0,1651070775771967.0
-15.0,-33.0,16.0,-9.0,-7.0,-1.0,2.0,-11.0,1651070775788862.0
-17.0,-15.0,-28.0,4.0,4.0,-6.0,-9.0,-10.0,1651070775788862.0
15.0,29.0,5.0,2.0,8.0,8.0,5.0,26.0,1651070775795972.0
27.0,-23.0,0.0,7.0,-7.0,-9.0,-11.0,36.0,1651070775795972.0
24.0,54.0,10.0,-4.0,8.0,5.0,12.0,22.0,1651070775797865.0
-32.0,-28.0,-10.0,-16.0,-3.0,3.0,1.0,-57.0,1651070775797865.0
-44.0,-12.0,1.0,6.0,-23.0,-10.0,-7.0,-57.0,1651070775818717.0
9.0,1.0,-9.0,-11.0,-7.0,-15.0,-10.0,16.0,1651070775818717.0
17.0,18.0,32.0,27.0,40.0,26.0,20.0,62.0,1651070775819711.0
33.0,49.0,-32.0,13.0,35.0,26.0,13.0,13.0,1651070775819711.0
-11.0,-16.0,25.0,-8.0,-27.0,-19.0,-20.0,-61.0,1651070775832694.0
-64.0,-59.0,21.0,-6.0,-13.0,-6.0,-6.0,-42.0,1651070775832694.0
32.0,87.0,30.0,16.0,-29.0,-12.0,-6.0,1.0,1651070775841623.0
18.0,-31.0,-33.0,1.0,20.0,3.0,25.0,-49.0,1651070775841623.0
-1.0,72.0,8.0,9.0,15.0,12.0,-12.0,99.0,1651070775856265.0
10.0,-23.0,-26.0,6.0,-4.0,16.0,13.0,-66.0,1651070775856265.0
10.0,-110.0,-25.0,-23.0,-3.0,-12.0,-4.0,87.0,1651070775858009.0
35.0,87.0,41.0,4.0,-13.0,-10.0,4.0,73.0,1651070775858009.0
-15.0,-29.0,-4.0,5.0,-34.0,-22.0,10.0,0.0,1651070775879058.0
8.0,37.0,6.0,-10.0,32.0,18.0,-6.0,-10.0,1651070775879058.0
-9.0,-87.0,-23.0,7.0,19.0,8.0,-5.0,-16.0,1651070775880058.0
22.0,94.0,47.0,15.0,-7.0,3.0,-3.0,-7.0,1651070775880058.0
-20.0,-128.0,50.0,-4.0,-5.0,-11.0,-18.0,-64.0,1651070775892753.0
8.0,105.0,-58.0,-6.0,-21.0,-3.0,12.0,25.0,1651070775892753.0
-34.0,-14.0,-56.0,-21.0,-1.0,2.0,-5.0,-104.0,1651070775901157.0
-23.0,-55.0,12.0,39.0,19.0,-1.0,-11.0,25.0,1651070775901157.0
22.0,97.0,13.0,-24.0,16.0,13.0,14.0,24.0,1651070775915362.0
-20.0,-90.0,6.0,12.0,-3.0,-1.0,-3.0,2.0,1651070775915362.0
21.0,43.0,12.0,11.0,-14.0,-2.0,-1.0,2.0,1651070775922728.0
-25.0,-81.0,-74.0,-36.0,-6.0,0.0,-11.0,-28.0,1651070775922728.0
15.0,24.0,5.0,21.0,27.0,10.0,15.0,65.0,1651070775939088.0
16.0,-47.0,16.0,-15.0,2.0,0.0,15.0,53.0,1651070775939088.0
25.0,20.0,-19.0,10.0,-4.0,1.0,-2.0,16.0,1651070775940053.0
-45.0,2.0,55.0,-13.0,-46.0,-19.0,-17.0,-94.0,1651070775940053.0
1.0,-31.0,-77.0,-3.0,-1.0,-8.0,-22.0,-24.0,1651070775952025.0
30.0,50.0,28.0,11.0,51.0,18.0,5.0,1.0,1651070775952025.0
-35.0,-41.0,10.0,-7.0,-15.0,-14.0,-8.0,5.0,1651070775961369.0
0.0,-4.0,21.0,6.0,7.0,9.0,10.0,24.0,1651070775961369.0
15.0,21.0,-35.0,-2.0,-21.0,-16.0,-1.0,0.0,1651070775975388.0
-9.0,-36.0,11.0,-9.0,-23.0,-5.0,-8.0,-26.0,1651070775975388.0
-31.0,-24.0,23.0,-17.0,19.0,6.0,-16.0,-93.0,1651070775982439.0
18.0,8.0,-60.0,-13.0,-18.0,-4.0,17.0,112.0,1651070775982439.0
30.0,1.0,23.0,29.0,19.0,6.0,16.0,39.0,1651070776000363.0
-5.0,-9.0,22.0,29.0,6.0,-5.0,-2.0,18.0,1651070776000363.0
-20.0,-8.0,-41.0,-27.0,-12.0,-1.0,-8.0,-63.0,1651070776001349.0
-39.0,-9.0,12.0,-21.0,-40.0,-15.0,-13.0,-23.0,1651070776001349.0
37.0,-21.0,-44.0,-9.0,33.0,28.0,19.0,51.0,1651070776021709.0
9.0,22.0,3.0,26.0,19.0,3.0,6.0,17.0,1651070776021709.0
5.0,19.0,0.0,1.0,7.0,10.0,19.0,-32.0,1651070776022735.0
-15.0,-40.0,-29.0,21.0,-4.0,-6.0,-16.0,35.0,1651070776022735.0
-14.0,-14.0,-39.0,-62.0,-21.0,-11.0,-3.0,-42.0,1651070776035683.0
8.0,108.0,-17.0,-18.0,-15.0,-8.0,-5.0,-21.0,1651070776035683.0
-14.0,-71.0,14.0,15.0,5.0,0.0,-12.0,39.0,1651070776042722.0
13.0,-10.0,36.0,-28.0,0.0,5.0,7.0,-2.0,1651070776042722.0
-23.0,-46.0,-21.0,10.0,-15.0,-5.0,8.0,-24.0,1651070776066494.0
2.0,-10.0,10.0,8.0,39.0,11.0,-10.0,-22.0,1651070776066494.0
-2.0,11.0,-15.0,1.0,9.0,6.0,12.0,31.0,1651070776067490.0
11.0,61.0,60.0,26.0,-3.0,-8.0,-12.0,2.0,1651070776067490.0
4.0,5.0,-25.0,-4.0,-26.0,-11.0,-8.0,-4.0,1651070776081629.0
-29.0,-68.0,-29.0,-27.0,-24.0,-12.0,-6.0,-25.0,1651070776081629.0
0.0,24.0,0.0,-9.0,25.0,7.0,4.0,11.0,1651070776082629.0
8.0,23.0,-26.0,-15.0,14.0,8.0,11.0,0.0,1651070776082629.0
15.0,30.0,58.0,18.0,4.0,3.0,-5.0,17.0,1651070776095662.0
-61.0,-57.0,-1.0,-3.0,-37.0,-18.0,-20.0,-101.0,1651070776095662.0
14.0,19.0,-9.0,-2.0,-19.0,-10.0,-21.0,7.0,1651070776102693.0
46.0,-10.0,-11.0,-12.0,16.0,7.0,21.0,66.0,1651070776102693.0
-30.0,-19.0,25.0,7.0,-3.0,-10.0,-14.0,-47.0,1651070776118677.0
16.0,44.0,-39.0,-6.0,-8.0,-1.0,3.0,28.0,1651070776118677.0
-21.0,5.0,34.0,20.0,-2.0,-8.0,-14.0,-43.0,1651070776120644.0
-15.0,-24.0,-8.0,-36.0,-11.0,2.0,9.0,-14.0,1651070776120644.0
-5.0,-4.0,20.0,18.0,26.0,8.0,-11.0,-51.0,1651070776140788.0
5.0,-10.0,-21.0,-14.0,-24.0,-4.0,-4.0,64.0,1651070776140788.0
10.0,11.0,-7.0,5.0,20.0,3.0,12.0,3.0,1651070776142733.0
12.0,24.0,25.0,30.0,9.0,-3.0,-3.0,23.0,1651070776142733.0
-15.0,-52.0,-30.0,-16.0,-19.0,-3.0,3.0,-11.0,1651070776155749.0
16.0,53.0,43.0,9.0,1.0,6.0,5.0,5.0,1651070776155749.0
-2.0,-19.0,23.0,-11.0,-16.0,-10.0,-7.0,25.0,1651070776162697.0
-4.0,-23.0,-28.0,-15.0,-25.0,-3.0,-5.0,-49.0,1651070776162697.0
5.0,-4.0,1.0,2.0,33.0,3.0,7.0,25.0,1651070776178731.0
-24.0,15.0,11.0,-20.0,-46.0,-16.0,-10.0,-19.0,1651070776178731.0
15.0,9.0,-17.0,-3.0,9.0,7.0,13.0,19.0,1651070776180693.0
26.0,-75.0,77.0,50.0,35.0,13.0,8.0,22.0,1651070776180693.0
-2.0,26.0,-80.0,-48.0,-3.0,9.0,7.0,-33.0,1651070776201639.0
32.0,11.0,-1.0,32.0,10.0,-1.0,11.0,74.0,1651070776201639.0
-30.0,19.0,-4.0,-35.0,-22.0,-10.0,-16.0,-39.0,1651070776202601.0
-32.0,-11.0,4.0,4.0,-16.0,-17.0,-16.0,-26.0,1651070776202601.0
6.0,10.0,33.0,28.0,7.0,2.0,0.0,17.0,1651070776215636.0
-1.0,-70.0,11.0,3.0,10.0,6.0,7.0,-9.0,1651070776215636.0
15.0,56.0,-7.0,-14.0,-8.0,0.0,2.0,-22.0,1651070776222546.0
-5.0,58.0,-19.0,-3.0,0.0,-2.0,-10.0,-15.0,1651070776222546.0
-11.0,-77.0,-4.0,7.0,-13.0,-8.0,-6.0,-6.0,1651070776238432.0
2.0,21.0,15.0,2.0,26.0,9.0,2.0,-23.0,1651070776238432.0
-3.0,-46.0,21.0,30.0,-9.0,-5.0,-1.0,27.0,1651070776240427.0
0.0,-4.0,-46.0,-22.0,-14.0,-2.0,-7.0,-32.0,1651070776240427.0
2.0,-4.0,-8.0,-29.0,21.0,5.0,5.0,19.0,1651070776262080.0
-7.0,19.0,19.0,14.0,-3.0,-4.0,1.0,-2.0,1651070776262080.0
14.0,26.0,6.0,30.0,-15.0,-9.0,16.0,60.0,1651070776263080.0
6.0,-3.0,-28.0,-6.0,44.0,21.0,9.0,4.0,1651070776263080.0
-2.0,36.0,16.0,-3.0,-12.0,0.0,-4.0,-1.0,1651070776275449.0
17.0,-23.0,-23.0,15.0,27.0,9.0,1.0,7.0,1651070776275449.0
-10.0,10.0,-9.0,-33.0,-18.0,-5.0,0.0,-15.0,1651070776282500.0
-10.0,-7.0,21.0,32.0,4.0,-7.0,-8.0,-3.0,1651070776282500.0
-7.0,8.0,4.0,3.0,-7.0,5.0,5.0,5.0,1651070776298458.0
-8.0,-7.0,5.0,-15.0,11.0,0.0,-2.0,-1.0,1651070776298458.0
2.0,-5.0,-20.0,-3.0,-7.0,1.0,0.0,-16.0,1651070776300385.0
-3.0,-35.0,-13.0,5.0,-14.0,-3.0,4.0,35.0,1651070776300385.0
-6.0,10.0,38.0,-2.0,8.0,4.0,-4.0,-54.0,1651070776321526.0
15.0,75.0,-2.0,-10.0,-6.0,-5.0,1.0,30.0,1651070776321526.0
5.0,-24.0,-13.0,10.0,4.0,2.0,9.0,22.0,1651070776322456.0
5.0,-3.0,6.0,17.0,-10.0,-1.0,-1.0,-19.0,1651070776322456.0
-4.0,-18.0,18.0,7.0,28.0,14.0,1.0,-13.0,1651070776335422.0
-3.0,-17.0,8.0,-9.0,-13.0,-5.0,1.0,17.0,1651070776335422.0
0.0,10.0,-1.0,-4.0,8.0,2.0,0.0,-7.0,1651070776342470.0
-7.0,-9.0,-9.0,-10.0,-14.0,-3.0,-4.0,0.0,1651070776342470.0
12.0,1.0,12.0,26.0,3.0,-2.0,7.0,45.0,1651070776358972.0
1.0,30.0,-25.0,-3.0,1.0,5.0,-4.0,-11.0,1651070776358972.0
2.0,-2.0,-10.0,-14.0,7.0,-3.0,-4.0,-13.0,1651070776359903.0
-2.0,8.0,-33.0,-6.0,-2.0,-1.0,-4.0,-26.0,1651070776359903.0
-4.0,-26.0,-7.0,4.0,-12.0,-4.0,3.0,14.0,1651070776380961.0
9.0,58.0,14.0,-23.0,0.0,-3.0,-13.0,-15.0,1651070776380961.0
6.0,43.0,39.0,16.0,4.0,15.0,9.0,18.0,1651070776382981.0
-16.0,-58.0,-26.0,11.0,3.0,-6.0,-4.0,1.0,1651070776382981.0
13.0,45.0,-21.0,-19.0,-9.0,0.0,6.0,54.0,1651070776396085.0
-5.0,-21.0,18.0,16.0,0.0,-3.0,-5.0,-11.0,1651070776396085.0
-4.0,-25.0,14.0,9.0,23.0,14.0,3.0,-4.0,1651070776402099.0
2.0,11.0,1.0,2.0,22.0,9.0,0.0,-9.0,1651070776402099.0
3.0,15.0,40.0,0.0,-7.0,-8.0,-3.0,8.0,1651070776418465.0
-1.0,-16.0,-16.0,10.0,-14.0,3.0,7.0,-6.0,1651070776418465.0
7.0,-2.0,42.0,4.0,1.0,-6.0,1.0,25.0,1651070776420394.0
6.0,38.0,-88.0,-28.0,-6.0,2.0,3.0,-3.0,1651070776420394.0
-9.0,-11.0,-1.0,-15.0,-18.0,-11.0,-3.0,-8.0,1651070776441411.0
-12.0,-51.0,1.0,-15.0,-3.0,-5.0,-11.0,-15.0,1651070776441411.0
-11.0,38.0,2.0,12.0,-6.0,-3.0,-8.0,-36.0,1651070776442342.0
-17.0,-54.0,22.0,-8.0,1.0,-2.0,-5.0,-18.0,1651070776442342.0
12.0,66.0,11.0,12.0,-9.0,-12.0,-14.0,8.0,1651070776455374.0
13.0,-30.0,-27.0,3.0,25.0,7.0,4.0,22.0,1651070776455374.0
-7.0,-37.0,-49.0,-15.0,-5.0,-5.0,-1.0,0.0,1651070776462355.0
-5.0,-36.0,40.0,-6.0,-5.0,-1.0,-6.0,-21.0,1651070776462355.0
-12.0,-7.0,-39.0,23.0,-8.0,-2.0,-5.0,-25.0,1651070776478499.0
0.0,-2.0,26.0,-18.0,-22.0,-4.0,2.0,-11.0,1651070776478499.0
-4.0,-22.0,-33.0,-17.0,9.0,-4.0,-9.0,2.0,1651070776480431.0
-5.0,2.0,-6.0,6.0,5.0,3.0,0.0,-8.0,1651070776480431.0
3.0,7.0,38.0,-1.0,-6.0,-2.0,5.0,10.0,1651070776501462.0
-4.0,-14.0,-72.0,-5.0,2.0,3.0,-3.0,-4.0,1651070776501462.0
2.0,1.0,52.0,8.0,-27.0,-10.0,3.0,11.0,1651070776502472.0
4.0,39.0,-34.0,-16.0,36.0,7.0,5.0,25.0,1651070776502472.0
5.0,-11.0,13.0,35.0,26.0,15.0,7.0,6.0,1651070776515454.0
-2.0,14.0,32.0,-6.0,-7.0,-4.0,-1.0,-16.0,1651070776515454.0
-4.0,-8.0,-27.0,-32.0,-14.0,-8.0,-7.0,-15.0,1651070776522474.0
-2.0,1.0,28.0,6.0,-9.0,0.0,6.0,20.0,1651070776522474.0
-2.0,8.0,-12.0,-22.0,1.0,2.0,-1.0,-12.0,1651070776538519.0
-21.0,-18.0,0.0,-3.0,5.0,2.0,-9.0,-50.0,1651070776538519.0
-14.0,-3.0,1.0,25.0,0.0,-2.0,0.0,49.0,1651070776540473.0
42.0,49.0,48.0,4.0,2.0,6.0,9.0,45.0,1651070776540473.0
6.0,-11.0,-27.0,-11.0,-6.0,-3.0,-1.0,4.0,1651070776560871.0
2.0,-13.0,14.0,11.0,-2.0,0.0,5.0,8.0,1651070776560871.0
-3.0,11.0,-11.0,-18.0,-5.0,-6.0,-6.0,-25.0,1651070776561617.0
-16.0,-55.0,16.0,9.0,-24.0,-8.0,-12.0,-30.0,1651070776561617.0
0.0,18.0,11.0,-3.0,25.0,11.0,6.0,21.0,1651070776583749.0
-2.0,-16.0,34.0,2.0,17.0,5.0,0.0,6.0,1651070776583749.0
3.0,-9.0,-102.0,3.0,2.0,1.0,1.0,-12.0,1651070776584706.0
0.0,24.0,25.0,11.0,-11.0,-8.0,-3.0,8.0,1651070776584706.0
-4.0,-8.0,-2.0,-38.0,-20.0,-8.0,-5.0,-19.0,1651070776597770.0
-5.0,-12.0,7.0,3.0,-2.0,-2.0,0.0,8.0,1651070776597770.0
9.0,23.0,28.0,20.0,9.0,6.0,7.0,1.0,1651070776598777.0
-1.0,19.0,19.0,25.0,1.0,-1.0,-1.0,-2.0,1651070776598777.0
21.0,-5.0,-13.0,15.0,4.0,2.0,-1.0,-9.0,1651070776620815.0
-41.0,-2.0,-31.0,-34.0,-7.0,-4.0,4.0,14.0,1651070776620815.0
9.0,-1.0,1.0,-6.0,-7.0,-4.0,-5.0,3.0,1651070776621832.0
-3.0,-7.0,-31.0,-24.0,-7.0,-6.0,-5.0,-12.0,1651070776621832.0
-8.0,6.0,14.0,21.0,4.0,0.0,-1.0,-22.0,1651070776651539.0
17.0,7.0,-3.0,19.0,1.0,1.0,6.0,31.0,1651070776651539.0
6.0,-2.0,20.0,-23.0,6.0,5.0,1.0,-6.0,1651070776651539.0
-24.0,-4.0,4.0,24.0,1.0,-2.0,0.0,-4.0,1651070776651539.0
-3.0,2.0,-5.0,-2.0,-5.0,-1.0,0.0,-3.0,1651070776657484.0
9.0,3.0,-14.0,-23.0,-6.0,-2.0,1.0,-1.0,1651070776657484.0
-6.0,-8.0,3.0,28.0,6.0,-2.0,-3.0,-5.0,1651070776658455.0
9.0,13.0,4.0,-14.0,1.0,2.0,2.0,-2.0,1651070776658455.0
-10.0,-10.0,-12.0,9.0,-3.0,-8.0,-6.0,6.0,1651070776680497.0
4.0,-4.0,-9.0,-25.0,-6.0,0.0,2.0,-5.0,1651070776680497.0
-1.0,3.0,8.0,-1.0,-9.0,-2.0,-3.0,0.0,1651070776681494.0
11.0,12.0,14.0,2.0,8.0,3.0,3.0,0.0,1651070776681494.0
-2.0,-1.0,3.0,-6.0,2.0,3.0,5.0,2.0,1651070776703449.0
-1.0,1.0,0.0,34.0,1.0,-4.0,-4.0,-3.0,1651070776703449.0
-1.0,-4.0,5.0,-5.0,-2.0,3.0,4.0,-9.0,1651070776703449.0
6.0,4.0,-11.0,-28.0,-5.0,-3.0,0.0,12.0,1651070776703449.0
-18.0,-2.0,6.0,24.0,2.0,-1.0,0.0,-3.0,1651070776717853.0
-4.0,2.0,-10.0,-19.0,1.0,-2.0,-2.0,-4.0,1651070776717853.0
18.0,-3.0,-1.0,6.0,1.0,-1.0,0.0,5.0,1651070776718797.0
0.0,2.0,12.0,7.0,-7.0,-2.0,-2.0,0.0,1651070776718797.0
3.0,-2.0,11.0,36.0,4.0,1.0,-2.0,-5.0,1651070776740422.0
3.0,6.0,-10.0,-5.0,0.0,1.0,0.0,3.0,1651070776740422.0
-1.0,3.0,14.0,-21.0,13.0,9.0,6.0,0.0,1651070776741351.0
-9.0,-7.0,-2.0,-29.0,4.0,6.0,4.0,1.0,1651070776741351.0
14.0,-3.0,-9.0,-35.0,-20.0,-5.0,-1.0,4.0,1651070776763350.0
1.0,-9.0,1.0,24.0,-5.0,-5.0,-3.0,-4.0,1651070776763350.0
6.0,8.0,6.0,23.0,7.0,-2.0,-2.0,1.0,1651070776763675.0
-2.0,5.0,27.0,24.0,5.0,-1.0,-4.0,-6.0,1651070776763675.0
2.0,18.0,-13.0,16.0,14.0,8.0,2.0,3.0,1651070776777707.0
2.0,3.0,9.0,-28.0,-10.0,-1.0,4.0,2.0,1651070776777707.0
-1.0,-14.0,-38.0,-3.0,-5.0,-5.0,-4.0,-2.0,1651070776778638.0
0.0,12.0,13.0,4.0,1.0,0.0,0.0,-2.0,1651070776778638.0
0.0,-3.0,15.0,-12.0,-3.0,1.0,-1.0,-3.0,1651070776800848.0
-3.0,0.0,-5.0,50.0,18.0,4.0,0.0,2.0,1651070776800848.0
-4.0,10.0,4.0,-34.0,-11.0,-5.0,-2.0,1.0,1651070776801614.0
-1.0,-1.0,29.0,0.0,-8.0,-4.0,-2.0,-2.0,1651070776801614.0
8.0,12.0,-17.0,-6.0,6.0,5.0,1.0,4.0,1651070776823969.0
22.0,2.0,-22.0,-28.0,-2.0,4.0,1.0,1.0,1651070776823969.0
-17.0,-14.0,34.0,11.0,-13.0,-7.0,-5.0,-4.0,1651070776824957.0
-8.0,-4.0,23.0,44.0,-1.0,-3.0,-1.0,-4.0,1651070776824957.0
-6.0,-9.0,-14.0,-37.0,1.0,-3.0,0.0,1.0,1651070776837986.0
8.0,7.0,14.0,50.0,10.0,0.0,-2.0,0.0,1651070776837986.0
2.0,-5.0,-31.0,-30.0,3.0,-1.0,-1.0,-1.0,1651070776838919.0
1.0,1.0,-32.0,-24.0,-1.0,-1.0,-2.0,-3.0,1651070776838919.0
-2.0,-8.0,2.0,-3.0,-13.0,-5.0,-2.0,-2.0,1651070776860997.0
-1.0,-1.0,-5.0,-28.0,-17.0,-4.0,-1.0,-1.0,1651070776860997.0
-3.0,5.0,14.0,20.0,16.0,4.0,2.0,1.0,1651070776860997.0
1.0,-1.0,3.0,33.0,-1.0,-2.0,-1.0,0.0,1651070776860997.0
-4.0,1.0,-2.0,1.0,2.0,-1.0,-2.0,-1.0,1651070776883036.0
-6.0,-8.0,-11.0,-20.0,-1.0,2.0,0.0,0.0,1651070776883036.0
-3.0,2.0,5.0,6.0,-2.0,0.0,-1.0,0.0,1651070776884026.0
4.0,-8.0,-32.0,-27.0,1.0,1.0,3.0,-1.0,1651070776884026.0
1.0,4.0,11.0,-24.0,-5.0,-2.0,-1.0,-4.0,1651070776898347.0
-21.0,-14.0,-2.0,3.0,-4.0,-2.0,-3.0,0.0,1651070776898347.0
2.0,4.0,27.0,41.0,3.0,-1.0,1.0,0.0,1651070776898347.0
2.0,-6.0,-34.0,-7.0,6.0,2.0,-3.0,-2.0,1651070776898347.0
0.0,-1.0,9.0,4.0,13.0,9.0,3.0,2.0,1651070776920550.0
-1.0,2.0,9.0,4.0,4.0,-4.0,-3.0,-4.0,1651070776920550.0
2.0,1.0,-2.0,6.0,-7.0,-1.0,0.0,-1.0,1651070776921529.0
-2.0,0.0,-6.0,-21.0,-7.0,-2.0,0.0,1.0,1651070776921529.0
-1.0,2.0,-7.0,-14.0,-10.0,-5.0,-1.0,-2.0,1651070776943065.0
0.0,-7.0,1.0,3.0,3.0,1.0,0.0,-1.0,1651070776943065.0
0.0,-3.0,4.0,24.0,-2.0,-1.0,-2.0,1.0,1651070776944089.0
0.0,1.0,-13.0,-25.0,-2.0,-4.0,-4.0,-1.0,1651070776944089.0
-3.0,-2.0,-11.0,-5.0,-5.0,-2.0,-2.0,-1.0,1651070776958351.0
2.0,5.0,21.0,33.0,8.0,3.0,0.0,0.0,1651070776958351.0
-9.0,-1.0,-9.0,-23.0,-3.0,3.0,-2.0,-8.0,1651070776958351.0
14.0,5.0,-6.0,-13.0,-6.0,0.0,1.0,3.0,1651070776958351.0
2.0,-6.0,1.0,19.0,5.0,-1.0,2.0,14.0,1651070776980961.0
-3.0,2.0,-4.0,-11.0,-8.0,-5.0,-3.0,-14.0,1651070776980961.0
8.0,8.0,-21.0,-27.0,0.0,4.0,-1.0,16.0,1651070776980961.0
-3.0,7.0,14.0,20.0,1.0,2.0,-1.0,-4.0,1651070776980961.0
-3.0,-7.0,-6.0,12.0,-2.0,-4.0,-1.0,-6.0,1651070777003423.0
-1.0,4.0,10.0,-30.0,6.0,3.0,0.0,1.0,1651070777003423.0
1.0,-3.0,-2.0,20.0,2.0,-3.0,-3.0,-9.0,1651070777003423.0
0.0,-6.0,-11.0,-15.0,-4.0,-1.0,0.0,0.0,1651070777003423.0
-6.0,2.0,-4.0,2.0,-7.0,-3.0,-2.0,1.0,1651070777017907.0
0.0,0.0,3.0,0.0,-10.0,-7.0,-2.0,2.0,1651070777017907.0
-1.0,-8.0,-1.0,-3.0,5.0,5.0,2.0,-1.0,1651070777018847.0
1.0,1.0,4.0,-1.0,5.0,1.0,0.0,4.0,1651070777018847.0
-7.0,-5.0,3.0,20.0,-5.0,0.0,-2.0,-5.0,1651070777040907.0
-4.0,-1.0,-3.0,-14.0,-4.0,1.0,-1.0,-17.0,1651070777040907.0
11.0,4.0,-1.0,-9.0,-1.0,0.0,2.0,22.0,1651070777040907.0
3.0,-1.0,-11.0,-6.0,-5.0,-1.0,4.0,11.0,1651070777040907.0
-1.0,-8.0,6.0,28.0,8.0,-4.0,-2.0,-6.0,1651070777063379.0
0.0,4.0,-13.0,2.0,2.0,1.0,0.0,4.0,1651070777063379.0
-4.0,7.0,14.0,-12.0,1.0,-2.0,1.0,-11.0,1651070777063379.0
-8.0,-17.0,-26.0,-19.0,-5.0,-1.0,-4.0,-6.0,1651070777063379.0
-2.0,1.0,-6.0,-7.0,-10.0,-5.0,-4.0,-2.0,1651070777078470.0
2.0,0.0,6.0,22.0,-19.0,-4.0,2.0,3.0,1651070777078470.0
-3.0,-3.0,-28.0,-40.0,14.0,1.0,1.0,-4.0,1651070777078470.0
-1.0,0.0,-3.0,9.0,7.0,5.0,0.0,1.0,1651070777078470.0
-3.0,4.0,14.0,10.0,5.0,0.0,0.0,-3.0,1651070777100419.0
3.0,-3.0,-7.0,-3.0,0.0,2.0,1.0,4.0,1651070777100419.0
-1.0,-4.0,6.0,2.0,-12.0,-5.0,-1.0,-3.0,1651070777101347.0
-6.0,-3.0,6.0,4.0,1.0,-1.0,2.0,-4.0,1651070777101347.0
3.0,4.0,1.0,1.0,0.0,2.0,1.0,-2.0,1651070777123429.0
1.0,-5.0,6.0,-2.0,7.0,3.0,3.0,9.0,1651070777123429.0
-6.0,-3.0,-15.0,-11.0,-4.0,-1.0,-2.0,-17.0,1651070777123429.0
7.0,1.0,7.0,2.0,4.0,0.0,-2.0,21.0,1651070777123429.0
4.0,3.0,8.0,4.0,-3.0,0.0,-1.0,1.0,1651070777138399.0
1.0,1.0,2.0,11.0,7.0,2.0,-2.0,1.0,1651070777138399.0
-3.0,-4.0,-3.0,-13.0,-1.0,-1.0,-4.0,-4.0,1651070777138399.0
-6.0,-2.0,-3.0,0.0,-1.0,0.0,-1.0,-10.0,1651070777138399.0
1.0,2.0,5.0,-1.0,0.0,1.0,0.0,4.0,1651070777160452.0
1.0,1.0,7.0,0.0,0.0,-1.0,-2.0,4.0,1651070777160452.0
-2.0,-1.0,-13.0,16.0,-1.0,-2.0,0.0,-2.0,1651070777161453.0
-3.0,2.0,-6.0,-16.0,-11.0,-2.0,0.0,-4.0,1651070777161453.0
0.0,3.0,5.0,-6.0,9.0,1.0,-1.0,3.0,1651070777182463.0
-3.0,-6.0,-9.0,6.0,1.0,-3.0,-3.0,-6.0,1651070777182463.0
0.0,2.0,10.0,3.0,-1.0,-2.0,-1.0,0.0,1651070777183457.0
7.0,2.0,-2.0,22.0,2.0,0.0,0.0,11.0,1651070777183457.0
-2.0,-5.0,6.0,-6.0,-4.0,-1.0,-1.0,-4.0,1651070777197479.0
-3.0,0.0,-7.0,-15.0,-3.0,-2.0,-2.0,-3.0,1651070777197479.0
-1.0,0.0,6.0,24.0,4.0,2.0,0.0,2.0,1651070777205457.0
-10.0,-4.0,-4.0,-3.0,-4.0,-1.0,-3.0,-16.0,1651070777205457.0
3.0,0.0,-12.0,-30.0,-1.0,-1.0,-3.0,5.0,1651070777220465.0
0.0,0.0,3.0,11.0,3.0,-1.0,0.0,5.0,1651070777220465.0
-1.0,0.0,6.0,4.0,-4.0,-2.0,1.0,1.0,1651070777221466.0
-2.0,1.0,5.0,6.0,4.0,0.0,2.0,-5.0,1651070777221466.0
-1.0,1.0,4.0,23.0,-2.0,-2.0,0.0,-4.0,1651070777242518.0
1.0,0.0,-2.0,-12.0,1.0,1.0,3.0,1.0,1651070777242518.0
-2.0,-6.0,-7.0,-16.0,-3.0,0.0,1.0,4.0,1651070777243486.0
-1.0,-1.0,1.0,1.0,-1.0,-2.0,0.0,-2.0,1651070777243486.0
1.0,2.0,0.0,-12.0,0.0,1.0,0.0,-2.0,1651070777258449.0
0.0,0.0,0.0,0.0,-13.0,-4.0,1.0,1.0,1651070777258449.0
1.0,-4.0,1.0,20.0,7.0,-1.0,-1.0,1.0,1651070777258449.0
-3.0,-2.0,-4.0,-11.0,1.0,-2.0,-1.0,-3.0,1651070777258449.0
-1.0,-1.0,-1.0,7.0,9.0,1.0,-1.0,-9.0,1651070777280564.0
5.0,3.0,10.0,-11.0,1.0,2.0,2.0,14.0,1651070777280564.0
-3.0,-1.0,1.0,8.0,-6.0,-2.0,-4.0,-4.0,1651070777281503.0
1.0,2.0,-5.0,-1.0,-8.0,-6.0,-3.0,-4.0,1651070777281503.0
-3.0,-1.0,4.0,-10.0,-5.0,-4.0,0.0,2.0,1651070777303437.0
-5.0,-6.0,-1.0,15.0,7.0,4.0,0.0,-7.0,1651070777303437.0
2.0,-1.0,-9.0,-32.0,-8.0,-1.0,-1.0,-1.0,1651070777303437.0
4.0,3.0,8.0,12.0,5.0,1.0,-3.0,10.0,1651070777303437.0
-1.0,-1.0,-3.0,3.0,-4.0,-1.0,1.0,-5.0,1651070777317562.0
-1.0,-5.0,-13.0,0.0,1.0,-2.0,-1.0,-2.0,1651070777317562.0
-3.0,1.0,18.0,12.0,-2.0,-1.0,0.0,0.0,1651070777318492.0
-3.0,-2.0,-7.0,-16.0,-3.0,1.0,1.0,-7.0,1651070777318492.0
2.0,-5.0,-10.0,7.0,1.0,-1.0,-2.0,3.0,1651070777340630.0
0.0,3.0,-13.0,-14.0,-6.0,-2.0,-1.0,0.0,1651070777340630.0
-1.0,1.0,12.0,11.0,10.0,5.0,1.0,1.0,1651070777341594.0
-1.0,-3.0,-3.0,0.0,2.0,0.0,1.0,-1.0,1651070777341594.0
0.0,-6.0,-6.0,-16.0,-6.0,-3.0,2.0,3.0,1651070777363455.0
-1.0,2.0,1.0,7.0,-2.0,-2.0,-1.0,-5.0,1651070777363455.0
-1.0,-3.0,-2.0,1.0,-1.0,0.0,2.0,1.0,1651070777363455.0
1.0,1.0,5.0,-4.0,-1.0,-2.0,0.0,1.0,1651070777363455.0
-2.0,5.0,-2.0,3.0,4.0,3.0,-1.0,-10.0,1651070777377605.0
4.0,-3.0,3.0,-2.0,-9.0,-4.0,-5.0,8.0,1651070777377605.0
2.0,0.0,0.0,4.0,16.0,7.0,0.0,3.0,1651070777378543.0
-1.0,0.0,9.0,14.0,7.0,4.0,-1.0,-2.0,1651070777378543.0
-3.0,-1.0,-4.0,-2.0,-6.0,-4.0,-1.0,-1.0,1651070777400890.0
-4.0,0.0,7.0,-5.0,-3.0,-3.0,-3.0,-8.0,1651070777400890.0
-3.0,-2.0,-3.0,0.0,-10.0,-4.0,-4.0,-5.0,1651070777401607.0
1.0,1.0,-5.0,-13.0,-2.0,0.0,-1.0,2.0,1651070777401607.0
4.0,-3.0,-1.0,12.0,3.0,2.0,0.0,2.0,1651070777423330.0
0.0,2.0,-3.0,-16.0,-5.0,-3.0,-1.0,-2.0,1651070777423330.0
1.0,-2.0,-4.0,-6.0,-5.0,-2.0,0.0,3.0,1651070777423330.0
-3.0,0.0,8.0,0.0,15.0,8.0,-1.0,-7.0,1651070777423330.0
0.0,-1.0,-3.0,1.0,-1.0,3.0,-1.0,2.0,1651070777438231.0
-5.0,1.0,3.0,5.0,2.0,1.0,-2.0,-7.0,1651070777438231.0
8.0,0.0,-7.0,9.0,-2.0,-2.0,-1.0,7.0,1651070777438231.0
-4.0,-1.0,-2.0,-14.0,-9.0,-3.0,1.0,0.0,1651070777438231.0
1.0,-8.0,4.0,3.0,4.0,-1.0,0.0,-3.0,1651070777460894.0
-1.0,-3.0,-7.0,-6.0,4.0,1.0,1.0,6.0,1651070777460894.0
-4.0,5.0,7.0,0.0,-1.0,0.0,-2.0,-6.0,1651070777461617.0
5.0,2.0,4.0,14.0,-3.0,0.0,0.0,2.0,1651070777461617.0
-3.0,-6.0,-4.0,-18.0,-15.0,-5.0,-3.0,0.0,1651070777482564.0
-3.0,-3.0,-13.0,2.0,2.0,0.0,-1.0,-7.0,1651070777482564.0
-2.0,4.0,-1.0,-4.0,3.0,0.0,1.0,1.0,1651070777483560.0
0.0,-3.0,5.0,4.0,2.0,0.0,0.0,1.0,1651070777483560.0
-6.0,-2.0,4.0,5.0,0.0,0.0,-1.0,-11.0,1651070777497583.0
5.0,1.0,10.0,6.0,3.0,0.0,1.0,10.0,1651070777497583.0
1.0,-1.0,0.0,-5.0,-12.0,-1.0,0.0,3.0,1651070777498520.0
-2.0,-2.0,-4.0,-6.0,7.0,0.0,0.0,-2.0,1651070777498520.0
-1.0,5.0,-9.0,-1.0,-3.0,1.0,-2.0,0.0,1651070777520700.0
-2.0,-3.0,16.0,19.0,9.0,3.0,0.0,-6.0,1651070777520700.0
3.0,2.0,5.0,-2.0,-1.0,1.0,0.0,1.0,1651070777521708.0
-5.0,-4.0,-4.0,-8.0,-4.0,-4.0,-2.0,-3.0,1651070777521708.0
0.0,-3.0,-5.0,-1.0,0.0,-1.0,0.0,4.0,1651070777542749.0
2.0,4.0,-2.0,0.0,-2.0,0.0,-2.0,0.0,1651070777542749.0
-1.0,-2.0,2.0,4.0,0.0,-1.0,1.0,-2.0,1651070777543679.0
1.0,0.0,2.0,2.0,-5.0,-2.0,-2.0,-2.0,1651070777543679.0
3.0,5.0,-8.0,-24.0,-6.0,-5.0,-2.0,4.0,1651070777557881.0
-3.0,-4.0,-7.0,-2.0,-2.0,0.0,0.0,1.0,1651070777557881.0
-3.0,1.0,2.0,10.0,10.0,-1.0,-1.0,-5.0,1651070777558811.0
-5.0,-1.0,1.0,7.0,1.0,0.0,0.0,-4.0,1651070777558811.0
4.0,3.0,11.0,3.0,3.0,2.0,2.0,-1.0,1651070777580869.0
5.0,-1.0,-17.0,-12.0,-16.0,-6.0,1.0,14.0,1651070777580869.0
-2.0,-5.0,2.0,1.0,1.0,-1.0,-1.0,-1.0,1651070777581640.0
0.0,5.0,0.0,1.0,1.0,0.0,0.0,2.0,1651070777581640.0
-3.0,-2.0,5.0,14.0,1.0,-1.0,0.0,-3.0,1651070777602751.0
-2.0,3.0,0.0,-22.0,0.0,-2.0,-2.0,-7.0,1651070777602751.0
-1.0,-6.0,-3.0,-8.0,-2.0,0.0,-1.0,2.0,1651070777603693.0
0.0,-2.0,1.0,14.0,1.0,-1.0,-2.0,0.0,1651070777603693.0
-3.0,-5.0,-9.0,0.0,1.0,0.0,0.0,2.0,1651070777617428.0
-1.0,6.0,15.0,10.0,-1.0,-1.0,1.0,-4.0,1651070777617428.0
1.0,2.0,-8.0,-14.0,0.0,-2.0,0.0,2.0,1651070777625969.0
3.0,5.0,11.0,9.0,-5.0,-2.0,-2.0,-2.0,1651070777625969.0
2.0,1.0,-5.0,-4.0,-3.0,3.0,1.0,3.0,1651070777640417.0
-1.0,-5.0,-6.0,2.0,4.0,-3.0,-1.0,-1.0,1651070777640417.0
-2.0,1.0,6.0,4.0,10.0,7.0,2.0,-1.0,1651070777641347.0
-1.0,0.0,-8.0,-11.0,-7.0,-3.0,-1.0,-1.0,1651070777641347.0
0.0,0.0,7.0,-15.0,-12.0,-5.0,-3.0,4.0,1651070777663401.0
1.0,0.0,-4.0,12.0,21.0,10.0,0.0,-2.0,1651070777663401.0
0.0,0.0,-4.0,1.0,-6.0,-3.0,-2.0,-1.0,1651070777663401.0
-1.0,-5.0,-3.0,-2.0,2.0,-1.0,-1.0,0.0,1651070777663401.0
-1.0,0.0,-8.0,-3.0,4.0,1.0,2.0,1.0,1651070777677436.0
-1.0,11.0,14.0,3.0,-10.0,-4.0,-1.0,-2.0,1651070777677436.0
-1.0,-5.0,-9.0,-9.0,-2.0,-3.0,-2.0,-1.0,1651070777685456.0
1.0,-3.0,3.0,11.0,6.0,5.0,2.0,2.0,1651070777685456.0
-1.0,4.0,2.0,-4.0,2.0,-1.0,-2.0,-2.0,1651070777699985.0
-1.0,-4.0,-5.0,-6.0,-3.0,-1.0,-1.0,-2.0,1651070777699985.0
1.0,5.0,-4.0,-3.0,-2.0,-1.0,1.0,-1.0,1651070777700988.0
0.0,1.0,-1.0,-10.0,-6.0,-4.0,0.0,1.0,1651070777700988.0
-1.0,-4.0,0.0,1.0,-7.0,-2.0,-2.0,-1.0,1651070777723348.0
-1.0,0.0,3.0,8.0,10.0,-2.0,-1.0,-3.0,1651070777723348.0
2.0,-2.0,4.0,-1.0,-5.0,0.0,-2.0,-9.0,1651070777724105.0
2.0,1.0,-4.0,-3.0,-1.0,-1.0,0.0,9.0,1651070777724105.0
-2.0,1.0,7.0,2.0,7.0,5.0,3.0,0.0,1651070777737178.0
-2.0,-7.0,-3.0,6.0,-5.0,-3.0,-1.0,-3.0,1651070777737178.0
-2.0,-1.0,-3.0,-5.0,-2.0,-4.0,-3.0,1.0,1651070777745255.0
-5.0,-1.0,-2.0,3.0,1.0,0.0,0.0,-13.0,1651070777745255.0
3.0,-1.0,-1.0,1.0,-2.0,-3.0,0.0,10.0,1651070777761369.0
-1.0,-2.0,-5.0,-6.0,-4.0,-3.0,-2.0,0.0,1651070777761369.0
-1.0,1.0,2.0,3.0,10.0,5.0,1.0,0.0,1651070777761369.0
0.0,0.0,-1.0,-5.0,-13.0,-3.0,-3.0,0.0,1651070777761369.0
-3.0,1.0,-2.0,3.0,6.0,0.0,-1.0,-3.0,1651070777782644.0
0.0,-10.0,-8.0,-3.0,6.0,6.0,4.0,-3.0,1651070777782644.0
-1.0,1.0,6.0,10.0,-7.0,-4.0,-3.0,1.0,1651070777783628.0
-1.0,0.0,-5.0,-21.0,2.0,3.0,-1.0,0.0,1651070777783628.0
-2.0,-3.0,-8.0,-4.0,-5.0,-6.0,-4.0,-4.0,1651070777797752.0
0.0,3.0,-1.0,0.0,-7.0,-1.0,-3.0,2.0,1651070777797752.0
-2.0,0.0,1.0,-6.0,-6.0,-5.0,-1.0,-1.0,1651070777805702.0
0.0,-5.0,-7.0,4.0,8.0,-1.0,0.0,0.0,1651070777805702.0
2.0,5.0,2.0,-2.0,2.0,2.0,1.0,0.0,1651070777820416.0
1.0,-1.0,0.0,-2.0,-1.0,-1.0,1.0,0.0,1651070777820416.0
-1.0,-1.0,-7.0,-13.0,-8.0,-3.0,0.0,0.0,1651070777821346.0
-2.0,1.0,5.0,9.0,2.0,-1.0,1.0,-1.0,1651070777821346.0
-1.0,3.0,-5.0,-3.0,-3.0,-3.0,0.0,0.0,1651070777842891.0
-3.0,-7.0,-1.0,-1.0,-6.0,-5.0,-2.0,-1.0,1651070777842891.0
0.0,-7.0,1.0,6.0,10.0,5.0,2.0,1.0,1651070777843823.0
1.0,4.0,-6.0,1.0,-4.0,-3.0,-2.0,1.0,1651070777843823.0
-3.0,-12.0,5.0,-2.0,12.0,8.0,-3.0,-5.0,1651070777856958.0
2.0,9.0,-2.0,7.0,-2.0,-1.0,0.0,2.0,1651070777856958.0
-1.0,0.0,-7.0,-8.0,-9.0,-2.0,-2.0,-1.0,1651070777865376.0
0.0,0.0,-1.0,3.0,10.0,0.0,0.0,0.0,1651070777865376.0
-1.0,-4.0,-3.0,3.0,-9.0,-8.0,-2.0,-1.0,1651070777880893.0
-1.0,3.0,-3.0,-2.0,0.0,4.0,1.0,0.0,1651070777880893.0
-2.0,-4.0,7.0,8.0,8.0,2.0,1.0,-1.0,1651070777881420.0
1.0,3.0,2.0,-8.0,-13.0,-6.0,-3.0,-1.0,1651070777881420.0
0.0,-3.0,1.0,1.0,-2.0,3.0,2.0,0.0,1651070777903395.0
0.0,3.0,1.0,-4.0,3.0,1.0,0.0,0.0,1651070777903395.0
-2.0,4.0,6.0,-4.0,-7.0,-2.0,0.0,1.0,1651070777903395.0
-2.0,-6.0,-15.0,13.0,1.0,1.0,-1.0,-1.0,1651070777903395.0
2.0,0.0,16.0,4.0,0.0,-3.0,-3.0,-1.0,1651070777926479.0
-3.0,-5.0,-8.0,4.0,2.0,0.0,0.0,-4.0,1651070777926479.0
-1.0,1.0,-1.0,-1.0,-4.0,-2.0,-2.0,-2.0,1651070777926479.0
0.0,-1.0,18.0,-3.0,6.0,0.0,1.0,-3.0,1651070777926479.0
2.0,2.0,-3.0,8.0,5.0,2.0,2.0,0.0,1651070777940868.0
-2.0,-3.0,0.0,-7.0,-15.0,-8.0,-2.0,1.0,1651070777940868.0
0.0,-2.0,-8.0,-3.0,14.0,6.0,0.0,0.0,1651070777941614.0
0.0,8.0,1.0,3.0,2.0,2.0,5.0,2.0,1651070777941614.0
-2.0,-10.0,-9.0,-9.0,2.0,-1.0,-1.0,-3.0,1651070777963403.0
0.0,3.0,8.0,3.0,-2.0,-6.0,-2.0,-3.0,1651070777963403.0
-3.0,-4.0,-4.0,4.0,-12.0,-5.0,-3.0,-1.0,1651070777963403.0
-3.0,0.0,5.0,2.0,4.0,4.0,-2.0,-1.0,1651070777963403.0
0.0,4.0,2.0,11.0,4.0,-3.0,-1.0,0.0,1651070777985951.0
3.0,-1.0,-2.0,-12.0,0.0,2.0,1.0,5.0,1651070777985951.0
0.0,1.0,0.0,-1.0,-7.0,-6.0,0.0,-2.0,1651070777986890.0
-1.0,-8.0,-13.0,-4.0,-2.0,-2.0,-2.0,2.0,1651070777986890.0
-2.0,1.0,1.0,1.0,-9.0,-1.0,0.0,-2.0,1651070777999855.0
0.0,-6.0,-1.0,-3.0,-1.0,-2.0,0.0,0.0,1651070777999855.0
-1.0,6.0,-12.0,-6.0,8.0,3.0,1.0,-1.0,1651070778007895.0
0.0,-8.0,10.0,4.0,4.0,4.0,1.0,-2.0,1651070778007895.0
1.0,3.0,6.0,1.0,-12.0,-7.0,-2.0,-1.0,1651070778022604.0
2.0,7.0,10.0,-2.0,2.0,0.0,-2.0,-1.0,1651070778022604.0
1.0,-7.0,5.0,1.0,-8.0,-3.0,-1.0,-1.0,1651070778023574.0
0.0,3.0,-5.0,-8.0,9.0,1.0,-1.0,-2.0,1651070778023574.0
-1.0,-2.0,-6.0,1.0,7.0,0.0,0.0,0.0,1651070778045622.0
-4.0,-4.0,-2.0,-7.0,-3.0,-2.0,-1.0,-1.0,1651070778045622.0
0.0,2.0,2.0,-2.0,-3.0,-4.0,-1.0,0.0,1651070778046603.0
-4.0,1.0,2.0,-9.0,-5.0,-3.0,0.0,2.0,1651070778046603.0
3.0,8.0,5.0,13.0,-9.0,-1.0,0.0,-2.0,1651070778060654.0
1.0,-8.0,-5.0,0.0,7.0,2.0,3.0,-2.0,1651070778060654.0
1.0,-1.0,-1.0,5.0,11.0,5.0,2.0,2.0,1651070778061663.0
3.0,2.0,1.0,2.0,5.0,2.0,-1.0,1.0,1651070778061663.0
-1.0,-1.0,-8.0,-11.0,-3.0,-3.0,-1.0,1.0,1651070778083043.0
-2.0,0.0,-4.0,-5.0,-28.0,-10.0,-4.0,-4.0,1651070778083043.0
-2.0,-4.0,4.0,9.0,19.0,8.0,1.0,-7.0,1651070778083707.0
0.0,-2.0,-12.0,-2.0,-5.0,-6.0,-1.0,3.0,1651070778083707.0
-2.0,-4.0,11.0,3.0,1.0,4.0,1.0,5.0,1651070778106456.0
-1.0,1.0,-6.0,-7.0,5.0,5.0,1.0,-1.0,1651070778106456.0
2.0,4.0,8.0,-3.0,-16.0,-9.0,-1.0,3.0,1651070778106456.0
2.0,1.0,4.0,0.0,-5.0,-1.0,-1.0,-5.0,1651070778106456.0
-4.0,-10.0,-1.0,-3.0,0.0,-3.0,-3.0,-7.0,1651070778120527.0
-3.0,-8.0,-20.0,2.0,3.0,0.0,-1.0,-1.0,1651070778120527.0
0.0,-1.0,-10.0,0.0,-5.0,-2.0,-2.0,-2.0,1651070778121527.0
2.0,1.0,19.0,5.0,4.0,-1.0,-2.0,6.0,1651070778121527.0
7.0,6.0,1.0,-1.0,1.0,2.0,-1.0,2.0,1651070778142739.0
-1.0,5.0,13.0,5.0,7.0,2.0,-1.0,0.0,1651070778142739.0
1.0,1.0,1.0,0.0,3.0,4.0,0.0,-2.0,1651070778143686.0
-3.0,-1.0,-14.0,-7.0,-8.0,-1.0,2.0,-3.0,1651070778143686.0
-4.0,9.0,-7.0,0.0,8.0,-3.0,-3.0,-4.0,1651070778166621.0
3.0,1.0,26.0,4.0,-4.0,4.0,1.0,-1.0,1651070778166621.0
-1.0,-24.0,-7.0,-2.0,-1.0,-4.0,0.0,6.0,1651070778166621.0
-2.0,-3.0,-43.0,-18.0,-25.0,-8.0,-6.0,2.0,1651070778166621.0
-2.0,0.0,-3.0,-1.0,18.0,2.0,0.0,-6.0,1651070778180862.0
1.0,7.0,-2.0,7.0,4.0,1.0,-2.0,-3.0,1651070778180862.0
-8.0,-6.0,3.0,-5.0,-8.0,-2.0,-1.0,0.0,1651070778181636.0
-2.0,7.0,37.0,0.0,4.0,0.0,0.0,-10.0,1651070778181636.0
-1.0,-22.0,-24.0,4.0,-5.0,5.0,4.0,3.0,1651070778203836.0
6.0,13.0,10.0,10.0,9.0,4.0,2.0,20.0,1651070778203836.0
4.0,-10.0,-12.0,-10.0,13.0,4.0,-1.0,2.0,1651070778204463.0
-1.0,-5.0,-8.0,-5.0,-3.0,-4.0,2.0,2.0,1651070778204463.0
-6.0,-3.0,-4.0,-6.0,-9.0,-2.0,-1.0,1.0,1651070778226664.0
-7.0,1.0,23.0,9.0,0.0,3.0,4.0,-15.0,1651070778226664.0
-6.0,24.0,23.0,-3.0,-19.0,-13.0,-14.0,-32.0,1651070778226664.0
1.0,12.0,-31.0,0.0,11.0,1.0,-6.0,14.0,1651070778226664.0
8.0,-34.0,-1.0,-2.0,13.0,12.0,3.0,23.0,1651070778240583.0
0.0,16.0,-14.0,-13.0,-14.0,-10.0,0.0,-3.0,1651070778240583.0
-10.0,10.0,-7.0,2.0,-2.0,-4.0,1.0,3.0,1651070778241582.0
-4.0,12.0,30.0,4.0,-4.0,5.0,1.0,-34.0,1651070778241582.0
6.0,-36.0,1.0,2.0,0.0,9.0,1.0,-6.0,1651070778263431.0
13.0,40.0,9.0,7.0,15.0,2.0,2.0,40.0,1651070778263431.0
4.0,-33.0,-4.0,-3.0,1.0,0.0,9.0,10.0,1651070778263431.0
-7.0,26.0,-5.0,3.0,0.0,-3.0,-10.0,-20.0,1651070778263431.0
-15.0,-1.0,-10.0,-18.0,-11.0,-8.0,-3.0,-15.0,1651070778286476.0
0.0,9.0,20.0,12.0,8.0,7.0,3.0,-20.0,1651070778286476.0
7.0,26.0,28.0,12.0,7.0,4.0,-4.0,18.0,1651070778286476.0
3.0,-60.0,-27.0,3.0,-1.0,-4.0,10.0,39.0,1651070778286476.0
3.0,39.0,32.0,3.0,0.0,1.0,1.0,-1.0,1651070778300412.0
-12.0,-36.0,-50.0,-33.0,-14.0,-7.0,-2.0,-22.0,1651070778300412.0
-2.0,26.0,46.0,14.0,1.0,7.0,9.0,15.0,1651070778301413.0
-3.0,-23.0,-6.0,-4.0,-2.0,-6.0,-14.0,-33.0,1651070778301413.0
-4.0,-9.0,-22.0,-7.0,-8.0,-10.0,-13.0,-26.0,1651070778322485.0
4.0,-22.0,-41.0,9.0,12.0,7.0,-7.0,15.0,1651070778322485.0
13.0,14.0,-29.0,-16.0,1.0,0.0,4.0,-18.0,1651070778323483.0
-12.0,-8.0,-2.0,-6.0,-6.0,4.0,9.0,-22.0,1651070778323483.0
-3.0,22.0,7.0,7.0,-6.0,-6.0,1.0,61.0,1651070778346599.0
2.0,-23.0,59.0,7.0,-13.0,-1.0,6.0,-14.0,1651070778346599.0
2.0,30.0,-71.0,-5.0,26.0,8.0,8.0,21.0,1651070778346599.0
8.0,-42.0,8.0,-4.0,6.0,1.0,-5.0,22.0,1651070778346599.0
-1.0,38.0,-8.0,3.0,-8.0,-2.0,-3.0,-28.0,1651070778360613.0
-5.0,26.0,47.0,10.0,0.0,0.0,0.0,4.0,1651070778360613.0
-10.0,-39.0,-1.0,-13.0,-20.0,-5.0,-4.0,-26.0,1651070778361649.0
-12.0,19.0,-29.0,2.0,-16.0,-2.0,-2.0,-28.0,1651070778361649.0
7.0,-64.0,15.0,8.0,13.0,4.0,7.0,39.0,1651070778382720.0
14.0,43.0,-12.0,-6.0,7.0,2.0,8.0,51.0,1651070778382720.0
-2.0,-24.0,28.0,4.0,-6.0,-9.0,-6.0,3.0,1651070778383652.0
1.0,32.0,3.0,-6.0,-7.0,-5.0,0.0,17.0,1651070778383652.0
-13.0,-9.0,1.0,-5.0,3.0,7.0,-3.0,-72.0,1651070778405826.0
-3.0,4.0,-39.0,-4.0,-8.0,-15.0,-17.0,-5.0,1651070778405826.0
11.0,-7.0,-4.0,-4.0,-8.0,2.0,10.0,26.0,1651070778406756.0
2.0,0.0,79.0,17.0,6.0,5.0,7.0,11.0,1651070778406756.0
5.0,23.0,-19.0,-7.0,-12.0,-9.0,-2.0,1.0,1651070778420892.0
-5.0,-27.0,-7.0,17.0,22.0,4.0,-3.0,-16.0,1651070778420892.0
-2.0,8.0,-33.0,-8.0,-17.0,-4.0,1.0,8.0,1651070778421614.0
5.0,14.0,25.0,-16.0,7.0,2.0,-4.0,-6.0,1651070778421614.0
-16.0,-33.0,1.0,-3.0,-10.0,-5.0,-3.0,-15.0,1651070778442736.0
-1.0,-2.0,-20.0,-6.0,7.0,14.0,2.0,-3.0,1651070778442736.0
1.0,4.0,38.0,32.0,6.0,1.0,-5.0,-3.0,1651070778443667.0
-5.0,-11.0,-20.0,7.0,-1.0,-3.0,-8.0,-14.0,1651070778443667.0
1.0,28.0,-11.0,-8.0,18.0,1.0,4.0,9.0,1651070778465902.0
-1.0,-7.0,30.0,-1.0,-11.0,-2.0,-2.0,-30.0,1651070778465902.0
1.0,-33.0,-61.0,-20.0,-7.0,-7.0,-7.0,46.0,1651070778466832.0
-2.0,-2.0,18.0,-2.0,-7.0,-7.0,-6.0,-15.0,1651070778466832.0
11.0,16.0,-12.0,5.0,3.0,3.0,5.0,8.0,1651070778480866.0
-12.0,13.0,8.0,-1.0,-8.0,-6.0,-8.0,-27.0,1651070778480866.0
4.0,1.0,52.0,-1.0,-3.0,7.0,-1.0,-12.0,1651070778481649.0
-1.0,0.0,-63.0,-6.0,9.0,-3.0,-1.0,13.0,1651070778481649.0
-12.0,0.0,19.0,6.0,0.0,-1.0,-14.0,-57.0,1651070778503439.0
2.0,-3.0,6.0,-12.0,-12.0,-8.0,0.0,39.0,1651070778503439.0
13.0,-20.0,30.0,5.0,6.0,6.0,11.0,10.0,1651070778503439.0
8.0,6.0,-40.0,-6.0,-19.0,-7.0,1.0,22.0,1651070778503439.0
8.0,38.0,28.0,5.0,3.0,1.0,2.0,9.0,1651070778525671.0
-9.0,-5.0,-24.0,-8.0,14.0,9.0,2.0,-25.0,1651070778525671.0
-11.0,11.0,13.0,-1.0,-14.0,-10.0,-8.0,-15.0,1651070778526654.0
9.0,13.0,32.0,3.0,23.0,6.0,3.0,5.0,1651070778526654.0
-1.0,-22.0,-14.0,-2.0,-16.0,-5.0,4.0,12.0,1651070778539673.0
-5.0,-22.0,-37.0,0.0,-7.0,0.0,3.0,2.0,1651070778539673.0
-6.0,21.0,-7.0,-12.0,-3.0,-4.0,-8.0,-17.0,1651070778547654.0
-2.0,-5.0,31.0,15.0,-3.0,6.0,9.0,10.0,1651070778547654.0
8.0,22.0,-5.0,-8.0,-1.0,-7.0,-3.0,18.0,1651070778563403.0
-2.0,-23.0,-5.0,-5.0,12.0,-1.0,-3.0,1.0,1651070778563403.0
-1.0,2.0,6.0,12.0,8.0,10.0,4.0,-3.0,1651070778563403.0
-3.0,-17.0,-27.0,-18.0,-7.0,-6.0,-3.0,0.0,1651070778563403.0
6.0,28.0,31.0,22.0,21.0,19.0,17.0,35.0,1651070778586500.0
1.0,5.0,15.0,-12.0,-19.0,-12.0,-1.0,-19.0,1651070778586500.0
-5.0,-16.0,-42.0,2.0,6.0,-2.0,-10.0,-5.0,1651070778586500.0
-2.0,10.0,29.0,2.0,-17.0,-6.0,-1.0,-34.0,1651070778586500.0
5.0,-15.0,-1.0,-3.0,4.0,3.0,11.0,23.0,1651070778599527.0
13.0,-2.0,9.0,10.0,-7.0,-1.0,3.0,18.0,1651070778599527.0
-1.0,14.0,24.0,19.0,3.0,1.0,-2.0,-4.0,1651070778608469.0
-1.0,9.0,-22.0,-13.0,5.0,3.0,3.0,4.0,1651070778608469.0
2.0,-2.0,-36.0,-9.0,-17.0,-7.0,-8.0,-11.0,1651070778622924.0
-13.0,-22.0,-10.0,-4.0,12.0,2.0,-2.0,-12.0,1651070778622924.0
1.0,-3.0,72.0,16.0,-25.0,-4.0,0.0,-11.0,1651070778623924.0
1.0,-17.0,-63.0,-10.0,22.0,7.0,3.0,18.0,1651070778623924.0
-3.0,21.0,-9.0,-5.0,-3.0,-6.0,-6.0,-13.0,1651070778646518.0
9.0,4.0,-5.0,-15.0,-15.0,-9.0,1.0,15.0,1651070778646518.0
-8.0,14.0,-16.0,-8.0,12.0,9.0,-1.0,-27.0,1651070778646518.0
1.0,-16.0,8.0,18.0,-1.0,-3.0,0.0,11.0,1651070778646518.0
11.0,9.0,31.0,3.0,1.0,-3.0,5.0,14.0,1651070778659522.0
-3.0,5.0,44.0,13.0,12.0,5.0,2.0,10.0,1651070778659522.0
5.0,-13.0,-64.0,-17.0,-10.0,-5.0,3.0,-3.0,1651070778668552.0
-4.0,7.0,7.0,6.0,7.0,4.0,-1.0,0.0,1651070778668552.0
-6.0,-1.0,-9.0,3.0,-1.0,-1.0,-7.0,-16.0,1651070778682581.0
-5.0,3.0,-33.0,-15.0,-17.0,-8.0,-8.0,-29.0,1651070778682581.0
0.0,-22.0,9.0,16.0,8.0,2.0,5.0,25.0,1651070778683520.0
1.0,-19.0,-34.0,-15.0,-2.0,-1.0,-2.0,1.0,1651070778683520.0
-5.0,6.0,7.0,-2.0,-2.0,-5.0,-5.0,2.0,1651070778706450.0
6.0,-1.0,32.0,15.0,3.0,2.0,3.0,3.0,1651070778706450.0
-8.0,-8.0,-80.0,-27.0,-6.0,-3.0,-8.0,-24.0,1651070778706450.0
3.0,26.0,76.0,30.0,-4.0,-1.0,0.0,5.0,1651070778706450.0
0.0,-36.0,-6.0,-7.0,9.0,4.0,3.0,2.0,1651070778720277.0
2.0,18.0,-34.0,8.0,2.0,0.0,1.0,16.0,1651070778720277.0
-3.0,-14.0,12.0,-8.0,14.0,6.0,-3.0,-13.0,1651070778728324.0
6.0,9.0,5.0,-8.0,-10.0,-4.0,2.0,11.0,1651070778728324.0
-11.0,14.0,20.0,-1.0,-5.0,-3.0,-5.0,-20.0,1651070778743284.0
-6.0,-23.0,-21.0,4.0,0.0,2.0,-3.0,3.0,1651070778743284.0
2.0,29.0,17.0,8.0,2.0,-3.0,-2.0,-10.0,1651070778744215.0
0.0,-13.0,-25.0,-1.0,0.0,2.0,6.0,12.0,1651070778744215.0
4.0,-1.0,-4.0,2.0,6.0,2.0,-1.0,8.0,1651070778766333.0
1.0,13.0,13.0,2.0,-3.0,1.0,-3.0,-2.0,1651070778766333.0
-8.0,-11.0,9.0,-2.0,0.0,1.0,5.0,12.0,1651070778767375.0
9.0,9.0,2.0,-2.0,-15.0,-3.0,-1.0,-11.0,1651070778767375.0
-3.0,2.0,-23.0,-5.0,3.0,-2.0,-4.0,-4.0,1651070778780252.0
-1.0,-15.0,37.0,10.0,-4.0,-5.0,1.0,15.0,1651070778780252.0
1.0,-12.0,-32.0,-13.0,22.0,9.0,6.0,-13.0,1651070778788299.0
-6.0,-4.0,52.0,26.0,1.0,4.0,-2.0,4.0,1651070778788299.0
9.0,39.0,21.0,1.0,-6.0,4.0,5.0,15.0,1651070778803317.0
-7.0,-7.0,-13.0,-4.0,-2.0,-5.0,-8.0,-34.0,1651070778803317.0
0.0,-1.0,-6.0,-4.0,-12.0,-7.0,1.0,7.0,1651070778803317.0
-4.0,-2.0,-3.0,-14.0,-2.0,-1.0,-6.0,-4.0,1651070778803317.0
10.0,1.0,45.0,17.0,2.0,0.0,0.0,6.0,1651070778826260.0
5.0,6.0,-25.0,-7.0,8.0,5.0,5.0,-3.0,1651070778826260.0
-4.0,18.0,1.0,5.0,-5.0,-3.0,-9.0,-28.0,1651070778827255.0
1.0,6.0,7.0,-3.0,-7.0,-2.0,2.0,14.0,1651070778827255.0
1.0,-24.0,-24.0,6.0,8.0,1.0,3.0,25.0,1651070778840229.0
3.0,1.0,25.0,6.0,11.0,6.0,1.0,-1.0,1651070778840229.0
-10.0,-21.0,-17.0,-20.0,-5.0,-4.0,0.0,7.0,1651070778848266.0
-8.0,20.0,-4.0,-7.0,1.0,0.0,-6.0,-41.0,1651070778848266.0
-5.0,-22.0,-13.0,-5.0,-20.0,-4.0,-2.0,3.0,1651070778863455.0
0.0,-1.0,-7.0,-3.0,-7.0,-5.0,2.0,3.0,1651070778863455.0
4.0,10.0,19.0,8.0,11.0,1.0,-4.0,7.0,1651070778863455.0
4.0,27.0,43.0,12.0,15.0,4.0,3.0,-1.0,1651070778863455.0
-8.0,-39.0,-23.0,-9.0,-6.0,0.0,-2.0,-6.0,1651070778886549.0
6.0,14.0,4.0,2.0,-9.0,-5.0,3.0,3.0,1651070778886549.0
1.0,-13.0,-7.0,-7.0,-13.0,-6.0,3.0,12.0,1651070778886549.0
-2.0,4.0,7.0,-3.0,3.0,-2.0,-3.0,-5.0,1651070778886549.0
-7.0,6.0,-50.0,-21.0,-16.0,-10.0,-5.0,-9.0,1651070778908627.0
-1.0,-18.0,-9.0,-3.0,-3.0,2.0,-1.0,-11.0,1651070778908627.0
4.0,21.0,18.0,14.0,13.0,6.0,3.0,14.0,1651070778909624.0
-8.0,-32.0,-26.0,-9.0,6.0,-2.0,-3.0,-24.0,1651070778909624.0
-4.0,10.0,22.0,4.0,0.0,-2.0,-4.0,-21.0,1651070778923454.0
2.0,-29.0,-22.0,-5.0,-4.0,-4.0,4.0,42.0,1651070778923454.0
0.0,18.0,26.0,1.0,-4.0,-3.0,-4.0,-3.0,1651070778923454.0
0.0,0.0,-5.0,13.0,-3.0,-2.0,-3.0,8.0,1651070778923454.0
-4.0,9.0,-16.0,-14.0,-13.0,-1.0,-3.0,-22.0,1651070778946334.0
-10.0,-23.0,10.0,7.0,13.0,3.0,-5.0,-8.0,1651070778946334.0
7.0,5.0,18.0,-2.0,-11.0,-3.0,4.0,11.0,1651070778947327.0
0.0,-10.0,-3.0,3.0,3.0,0.0,-1.0,5.0,1651070778947327.0
0.0,4.0,-9.0,-4.0,7.0,1.0,-1.0,-6.0,1651070778968502.0
-1.0,6.0,27.0,7.0,-5.0,-2.0,-2.0,-3.0,1651070778968502.0
0.0,26.0,-24.0,-8.0,0.0,-1.0,1.0,-6.0,1651070778969473.0
6.0,-24.0,-18.0,-4.0,-3.0,-3.0,3.0,8.0,1651070778969473.0
3.0,9.0,5.0,0.0,-4.0,-2.0,3.0,-4.0,1651070778983435.0
-3.0,21.0,17.0,-1.0,3.0,0.0,-10.0,2.0,1651070778983435.0
2.0,-10.0,9.0,10.0,8.0,3.0,4.0,8.0,1651070778983435.0
-5.0,17.0,-12.0,-12.0,-4.0,-3.0,-5.0,-7.0,1651070778983435.0
-8.0,-49.0,16.0,14.0,2.0,2.0,0.0,-1.0,1651070779006561.0
5.0,33.0,-18.0,-27.0,7.0,4.0,-2.0,2.0,1651070779006561.0
-5.0,-16.0,-25.0,1.0,-11.0,-6.0,-6.0,-14.0,1651070779006561.0
-2.0,-24.0,15.0,1.0,3.0,4.0,1.0,2.0,1651070779006561.0
0.0,-15.0,-7.0,-9.0,-2.0,3.0,7.0,38.0,1651070779028734.0
4.0,10.0,1.0,21.0,2.0,0.0,4.0,-1.0,1651070779028734.0
-3.0,12.0,19.0,5.0,-1.0,-2.0,-3.0,-4.0,1651070779028734.0
-1.0,-4.0,-15.0,-10.0,2.0,2.0,2.0,0.0,1651070779028734.0
-2.0,4.0,-7.0,4.0,1.0,-1.0,-7.0,-30.0,1651070779043366.0
-2.0,15.0,25.0,1.0,-9.0,0.0,6.0,14.0,1651070779043366.0
7.0,-16.0,17.0,0.0,3.0,-3.0,0.0,0.0,1651070779043687.0
2.0,17.0,-1.0,5.0,14.0,6.0,1.0,16.0,1651070779043687.0
3.0,17.0,4.0,-1.0,4.0,0.0,2.0,-6.0,1651070779065493.0
-3.0,-2.0,-20.0,-10.0,1.0,-4.0,1.0,8.0,1651070779065493.0
-1.0,3.0,6.0,4.0,-9.0,-5.0,-5.0,-16.0,1651070779066493.0
-6.0,-30.0,-34.0,1.0,-12.0,0.0,4.0,0.0,1651070779066493.0
2.0,-12.0,9.0,12.0,16.0,0.0,-3.0,6.0,1651070779088611.0
-3.0,-9.0,-14.0,-18.0,0.0,2.0,0.0,-9.0,1651070779088611.0
-7.0,1.0,-8.0,4.0,-1.0,-2.0,-5.0,-7.0,1651070779089542.0
-6.0,-3.0,2.0,-6.0,-6.0,0.0,5.0,9.0,1651070779089542.0
9.0,25.0,24.0,-3.0,-13.0,-7.0,-3.0,8.0,1651070779102642.0
-1.0,-14.0,-5.0,15.0,-9.0,0.0,1.0,-10.0,1651070779102642.0
-4.0,11.0,-56.0,-20.0,16.0,8.0,0.0,-2.0,1651070779103624.0
8.0,-19.0,10.0,7.0,8.0,5.0,10.0,33.0,1651070779103624.0
-5.0,-17.0,13.0,4.0,2.0,-1.0,-1.0,-4.0,1651070779125637.0
-3.0,-2.0,-18.0,-4.0,-10.0,-4.0,-1.0,5.0,1651070779125637.0
-2.0,7.0,20.0,1.0,-7.0,-3.0,-1.0,-1.0,1651070779126634.0
-3.0,23.0,5.0,2.0,-3.0,0.0,-9.0,-36.0,1651070779126634.0
-1.0,-8.0,-19.0,-8.0,-2.0,1.0,2.0,17.0,1651070779148642.0
-3.0,-22.0,-6.0,2.0,-1.0,1.0,0.0,-13.0,1651070779148642.0
1.0,-15.0,18.0,7.0,3.0,-1.0,-1.0,19.0,1651070779149572.0
-1.0,3.0,6.0,1.0,6.0,-4.0,-1.0,-19.0,1651070779149572.0
2.0,-2.0,9.0,-1.0,-3.0,1.0,4.0,19.0,1651070779162653.0
-1.0,11.0,-25.0,-19.0,3.0,3.0,-6.0,-21.0,1651070779162653.0
0.0,-23.0,15.0,10.0,1.0,1.0,2.0,-7.0,1651070779163654.0
1.0,7.0,-19.0,-10.0,-14.0,-11.0,-4.0,3.0,1651070779163654.0
3.0,15.0,36.0,11.0,12.0,3.0,5.0,9.0,1651070779185573.0
-2.0,-15.0,-32.0,-10.0,0.0,-4.0,1.0,-1.0,1651070779185573.0
5.0,11.0,23.0,19.0,8.0,5.0,4.0,20.0,1651070779186541.0
3.0,15.0,43.0,8.0,-9.0,-4.0,-4.0,-6.0,1651070779186541.0
-3.0,-5.0,-24.0,-14.0,-12.0,0.0,1.0,-13.0,1651070779208796.0
-1.0,-13.0,12.0,1.0,2.0,-4.0,-8.0,-5.0,1651070779208796.0
-4.0,-10.0,-20.0,0.0,4.0,0.0,-1.0,-8.0,1651070779209767.0
2.0,0.0,22.0,7.0,7.0,6.0,3.0,3.0,1651070779209767.0
0.0,13.0,-4.0,-5.0,-7.0,0.0,-3.0,-2.0,1651070779223423.0
-4.0,-1.0,5.0,7.0,6.0,2.0,-2.0,-5.0,1651070779223423.0
1.0,-8.0,-23.0,-5.0,-11.0,-3.0,1.0,6.0,1651070779223423.0
5.0,18.0,-4.0,-8.0,0.0,2.0,1.0,-6.0,1651070779223423.0
-5.0,-1.0,-7.0,-1.0,3.0,-1.0,-6.0,-28.0,1651070779245433.0
4.0,6.0,14.0,9.0,1.0,0.0,2.0,23.0,1651070779245433.0
-13.0,-7.0,18.0,1.0,-5.0,-1.0,-7.0,-46.0,1651070779246356.0
-11.0,-7.0,-5.0,-3.0,-15.0,-8.0,-2.0,-7.0,1651070779246356.0
14.0,1.0,-12.0,1.0,10.0,2.0,4.0,55.0,1651070779268622.0
3.0,10.0,18.0,8.0,15.0,5.0,2.0,-4.0,1651070779268622.0
3.0,13.0,12.0,-6.0,1.0,0.0,-3.0,1.0,1651070779269622.0
-5.0,-9.0,-34.0,-13.0,-8.0,-5.0,-5.0,-24.0,1651070779269622.0
-7.0,13.0,10.0,3.0,-11.0,-5.0,-5.0,-26.0,1651070779282654.0
-3.0,-11.0,8.0,9.0,-4.0,-1.0,0.0,2.0,1651070779282654.0
4.0,-6.0,-9.0,-9.0,0.0,1.0,5.0,10.0,1651070779283591.0
0.0,7.0,-15.0,-10.0,2.0,1.0,-1.0,4.0,1651070779283591.0
-1.0,-1.0,-3.0,4.0,2.0,1.0,0.0,-2.0,1651070779305753.0
4.0,5.0,-3.0,-6.0,-1.0,-2.0,3.0,4.0,1651070779305753.0
1.0,14.0,4.0,4.0,-1.0,0.0,0.0,6.0,1651070779306691.0
1.0,-12.0,3.0,5.0,-3.0,-4.0,-6.0,-10.0,1651070779306691.0
2.0,-12.0,-1.0,-6.0,-1.0,-2.0,5.0,11.0,1651070779329069.0
-3.0,3.0,-14.0,-11.0,9.0,6.0,2.0,-8.0,1651070779329069.0
0.0,1.0,-2.0,8.0,-2.0,0.0,-1.0,-2.0,1651070779329069.0
1.0,-5.0,-1.0,5.0,0.0,-1.0,2.0,17.0,1651070779329069.0
-16.0,-20.0,1.0,-3.0,-1.0,-2.0,-8.0,-21.0,1651070779343101.0
12.0,44.0,22.0,-2.0,-12.0,-3.0,2.0,3.0,1651070779343101.0
1.0,0.0,-5.0,2.0,4.0,-3.0,-2.0,3.0,1651070779344031.0
0.0,-5.0,-20.0,-4.0,-2.0,-2.0,-1.0,2.0,1651070779344031.0
-2.0,-1.0,0.0,-6.0,2.0,1.0,1.0,-2.0,1651070779365619.0
-4.0,-8.0,9.0,9.0,-3.0,-2.0,0.0,-2.0,1651070779365619.0
1.0,11.0,7.0,-19.0,-6.0,1.0,-1.0,5.0,1651070779366550.0
5.0,1.0,2.0,13.0,1.0,-1.0,-1.0,-5.0,1651070779366550.0
-2.0,3.0,1.0,4.0,-1.0,-2.0,-3.0,-1.0,1651070779389124.0
-1.0,5.0,-8.0,-13.0,-6.0,-4.0,-2.0,-1.0,1651070779389124.0
1.0,0.0,8.0,7.0,5.0,3.0,2.0,8.0,1651070779389124.0
-2.0,-6.0,-3.0,3.0,0.0,1.0,-1.0,-6.0,1651070779389124.0
4.0,2.0,1.0,0.0,0.0,2.0,2.0,1.0,1651070779403089.0
-1.0,-10.0,-2.0,1.0,4.0,-1.0,-1.0,0.0,1651070779403089.0
-3.0,-7.0,-16.0,-12.0,-13.0,-6.0,-3.0,-5.0,1651070779404114.0
-2.0,2.0,10.0,4.0,-6.0,-2.0,0.0,2.0,1651070779404114.0
2.0,6.0,-2.0,8.0,23.0,7.0,1.0,2.0,1651070779425550.0
-3.0,-12.0,-4.0,10.0,-8.0,-2.0,2.0,3.0,1651070779425550.0
6.0,6.0,0.0,-4.0,1.0,0.0,2.0,6.0,1651070779426548.0
0.0,2.0,-13.0,-22.0,3.0,3.0,2.0,9.0,1651070779426548.0
-7.0,-2.0,19.0,12.0,-9.0,-4.0,-2.0,-11.0,1651070779448568.0
-7.0,-19.0,-16.0,-6.0,2.0,-2.0,-3.0,-8.0,1651070779448568.0
3.0,-10.0,-1.0,2.0,-5.0,-2.0,1.0,1.0,1651070779449565.0
4.0,16.0,7.0,5.0,0.0,-1.0,-1.0,10.0,1651070779449565.0
17.0,19.0,-5.0,-4.0,14.0,7.0,3.0,-2.0,1651070779462597.0
-4.0,-21.0,-10.0,5.0,0.0,-3.0,1.0,9.0,1651070779462597.0
-3.0,1.0,-1.0,-13.0,-5.0,-6.0,-2.0,-1.0,1651070779463538.0
-5.0,-9.0,-6.0,7.0,-3.0,-5.0,-2.0,-3.0,1651070779463538.0
-10.0,-4.0,-6.0,-8.0,-4.0,-5.0,-2.0,-6.0,1651070779485639.0
-7.0,0.0,8.0,5.0,-7.0,0.0,-1.0,-2.0,1651070779485639.0
16.0,16.0,-7.0,3.0,9.0,6.0,4.0,-1.0,1651070779486580.0
5.0,7.0,17.0,6.0,5.0,2.0,2.0,7.0,1651070779486580.0
0.0,-13.0,-5.0,-4.0,-5.0,-1.0,1.0,3.0,1651070779508510.0
-4.0,-2.0,5.0,2.0,-2.0,-4.0,-4.0,-11.0,1651070779508510.0
-9.0,-17.0,-6.0,-12.0,-5.0,0.0,-3.0,3.0,1651070779509508.0
7.0,8.0,2.0,6.0,-1.0,0.0,3.0,12.0,1651070779509508.0
6.0,10.0,0.0,7.0,16.0,3.0,-1.0,0.0,1651070779522645.0
-1.0,2.0,-10.0,-20.0,-7.0,1.0,-2.0,-2.0,1651070779522645.0
-10.0,-4.0,6.0,11.0,5.0,0.0,0.0,-5.0,1651070779530590.0
-2.0,-4.0,9.0,-13.0,-1.0,0.0,0.0,-1.0,1651070779530590.0
-1.0,-6.0,-10.0,5.0,-11.0,-2.0,0.0,-1.0,1651070779545654.0
1.0,4.0,2.0,-8.0,1.0,0.0,-2.0,-4.0,1651070779545654.0
-2.0,5.0,0.0,3.0,-1.0,2.0,2.0,1.0,1651070779546618.0
0.0,-1.0,-2.0,8.0,5.0,0.0,-1.0,-3.0,1651070779546618.0
0.0,0.0,5.0,-12.0,-5.0,-1.0,0.0,1.0,1651070779569122.0
2.0,9.0,-5.0,4.0,1.0,0.0,0.0,-2.0,1651070779569122.0
0.0,-2.0,3.0,-9.0,-1.0,0.0,0.0,0.0,1651070779569122.0
-1.0,-6.0,-16.0,-11.0,-3.0,1.0,1.0,0.0,1651070779569122.0
-4.0,-4.0,2.0,4.0,2.0,1.0,-1.0,-2.0,1651070779590760.0
3.0,3.0,7.0,2.0,0.0,-1.0,-1.0,1.0,1651070779590760.0
-1.0,-1.0,-2.0,14.0,1.0,-2.0,-2.0,-1.0,1651070779591709.0
-2.0,3.0,6.0,12.0,0.0,-1.0,1.0,-1.0,1651070779591709.0
-2.0,-6.0,-7.0,2.0,-7.0,-3.0,-1.0,-1.0,1651070779605589.0
3.0,1.0,10.0,2.0,6.0,2.0,1.0,2.0,1651070779605589.0
-3.0,-1.0,-8.0,-23.0,-2.0,-2.0,0.0,-1.0,1651070779606531.0
4.0,-5.0,-6.0,-7.0,-5.0,-4.0,-2.0,-4.0,1651070779606531.0
-13.0,-10.0,-19.0,-40.0,-9.0,-3.0,1.0,1.0,1651070779628727.0
-1.0,-5.0,-4.0,13.0,-5.0,-3.0,-2.0,0.0,1651070779628727.0
-1.0,-2.0,11.0,29.0,8.0,1.0,-2.0,-2.0,1651070779629738.0
2.0,4.0,16.0,21.0,5.0,1.0,-2.0,3.0,1651070779629738.0
0.0,-1.0,-12.0,-16.0,-7.0,-1.0,-2.0,-1.0,1651070779642789.0
-1.0,4.0,10.0,12.0,2.0,1.0,2.0,0.0,1651070779642789.0
-1.0,-1.0,-3.0,1.0,-1.0,-3.0,-1.0,0.0,1651070779650890.0
-1.0,4.0,7.0,11.0,6.0,2.0,1.0,-1.0,1651070779650890.0
-1.0,-9.0,-21.0,-23.0,-5.0,0.0,-1.0,0.0,1651070779665742.0
-1.0,-3.0,-4.0,-8.0,-6.0,1.0,0.0,0.0,1651070779665742.0
2.0,6.0,34.0,-13.0,0.0,0.0,-1.0,-1.0,1651070779673390.0
-3.0,4.0,-31.0,10.0,-1.0,-4.0,-2.0,-1.0,1651070779673390.0
2.0,6.0,26.0,25.0,12.0,2.0,0.0,0.0,1651070779688929.0
7.0,7.0,4.0,3.0,-3.0,-1.0,-1.0,-2.0,1651070779688929.0
-11.0,-15.0,-1.0,-26.0,-12.0,-2.0,0.0,1.0,1651070779689885.0
2.0,17.0,-17.0,-13.0,7.0,2.0,-1.0,0.0,1651070779689885.0
-1.0,-19.0,-4.0,13.0,8.0,0.0,0.0,0.0,1651070779702851.0
0.0,-2.0,1.0,3.0,-17.0,-5.0,-1.0,1.0,1651070779702851.0
5.0,11.0,1.0,14.0,0.0,-1.0,0.0,2.0,1651070779710819.0
-1.0,-4.0,16.0,-26.0,-3.0,3.0,0.0,0.0,1651070779710819.0
-1.0,8.0,-18.0,17.0,-1.0,-2.0,-2.0,-1.0,1651070779725763.0
1.0,12.0,35.0,9.0,13.0,1.0,-3.0,-2.0,1651070779725763.0
1.0,-16.0,-12.0,-19.0,0.0,2.0,2.0,0.0,1651070779725763.0
-6.0,-17.0,-36.0,6.0,-11.0,-8.0,-5.0,-2.0,1651070779725763.0
5.0,17.0,16.0,9.0,-7.0,-2.0,-2.0,0.0,1651070779748650.0
-2.0,0.0,20.0,-7.0,-4.0,-5.0,-1.0,0.0,1651070779748650.0
2.0,8.0,-16.0,11.0,28.0,15.0,3.0,2.0,1651070779749588.0
-2.0,-8.0,22.0,19.0,9.0,5.0,4.0,1.0,1651070779749588.0
-1.0,-17.0,-18.0,-10.0,-14.0,-6.0,-1.0,-1.0,1651070779762659.0
-2.0,-3.0,-12.0,-30.0,-10.0,-8.0,-4.0,-2.0,1651070779762659.0
-2.0,-2.0,19.0,12.0,-11.0,-5.0,-3.0,-1.0,1651070779770644.0
-3.0,-5.0,-21.0,-11.0,6.0,1.0,-1.0,-1.0,1651070779770644.0
-1.0,1.0,-1.0,5.0,1.0,0.0,-2.0,-1.0,1651070779785806.0
-5.0,-8.0,-33.0,4.0,1.0,2.0,0.0,-1.0,1651070779785806.0
1.0,1.0,2.0,2.0,-2.0,-5.0,-3.0,-1.0,1651070779785806.0
1.0,7.0,36.0,1.0,6.0,3.0,0.0,0.0,1651070779785806.0
2.0,3.0,13.0,-3.0,2.0,0.0,-2.0,-1.0,1651070779808800.0
-1.0,-3.0,-28.0,12.0,14.0,5.0,1.0,1.0,1651070779808800.0
0.0,6.0,-24.0,-16.0,-9.0,-1.0,0.0,0.0,1651070779809730.0
-2.0,-10.0,15.0,-10.0,-26.0,-6.0,-2.0,-2.0,1651070779809730.0
0.0,2.0,5.0,-3.0,1.0,0.0,2.0,0.0,1651070779830952.0
1.0,-3.0,10.0,6.0,4.0,1.0,-1.0,-3.0,1651070779830952.0
0.0,-1.0,-14.0,9.0,3.0,1.0,-1.0,0.0,1651070779831887.0
0.0,5.0,15.0,-17.0,-3.0,-3.0,-1.0,-2.0,1651070779831887.0
-1.0,0.0,-2.0,24.0,4.0,5.0,-1.0,-1.0,1651070779845681.0
1.0,-4.0,-16.0,-20.0,-8.0,-1.0,-1.0,0.0,1651070779845681.0
0.0,8.0,15.0,14.0,3.0,0.0,-1.0,0.0,1651070779846618.0
-3.0,-10.0,-21.0,-20.0,-23.0,-6.0,-3.0,-2.0,1651070779846618.0
-1.0,0.0,4.0,-1.0,10.0,-2.0,-2.0,1.0,1651070779869580.0
-1.0,2.0,5.0,8.0,20.0,11.0,3.0,4.0,1651070779869580.0
0.0,2.0,10.0,-3.0,-9.0,-3.0,0.0,-2.0,1651070779869580.0
1.0,6.0,-5.0,-3.0,4.0,-1.0,1.0,1.0,1651070779869580.0
0.0,2.0,8.0,2.0,-22.0,-10.0,-1.0,-2.0,1651070779891619.0
1.0,3.0,-4.0,-11.0,-6.0,-2.0,-1.0,-1.0,1651070779891619.0
2.0,0.0,12.0,15.0,3.0,-2.0,-1.0,-1.0,1651070779891619.0
0.0,0.0,-10.0,0.0,-1.0,1.0,-1.0,-1.0,1651070779891619.0
1.0,1.0,-5.0,-21.0,-2.0,0.0,-3.0,-1.0,1651070779905647.0
0.0,2.0,31.0,16.0,4.0,2.0,0.0,0.0,1651070779905647.0
-4.0,-14.0,-34.0,-9.0,-1.0,1.0,1.0,-2.0,1651070779906582.0
-1.0,1.0,19.0,11.0,2.0,1.0,0.0,0.0,1651070779906582.0
1.0,7.0,-5.0,-4.0,-1.0,1.0,2.0,-1.0,1651070779928712.0
-2.0,-3.0,-9.0,-7.0,2.0,0.0,0.0,0.0,1651070779928712.0
-3.0,-9.0,-18.0,3.0,-8.0,-3.0,-2.0,-1.0,1651070779929684.0
0.0,-11.0,-8.0,6.0,9.0,6.0,5.0,2.0,1651070779929684.0
-2.0,-1.0,11.0,-1.0,4.0,1.0,0.0,-2.0,1651070779950866.0
0.0,-3.0,-5.0,5.0,-7.0,-3.0,-1.0,-7.0,1651070779950866.0
4.0,0.0,-4.0,-12.0,-2.0,-2.0,-2.0,8.0,1651070779951866.0
0.0,2.0,-2.0,-6.0,5.0,0.0,1.0,1.0,1651070779951866.0
-2.0,-7.0,-10.0,0.0,-3.0,0.0,-2.0,-1.0,1651070779965894.0
0.0,3.0,4.0,-8.0,1.0,-1.0,0.0,0.0,1651070779965894.0
-2.0,0.0,1.0,5.0,1.0,-2.0,-2.0,-6.0,1651070779965894.0
1.0,0.0,-3.0,-5.0,-5.0,0.0,1.0,-2.0,1651070779965894.0
-1.0,0.0,2.0,-5.0,-11.0,-5.0,-2.0,1.0,1651070779988374.0
-2.0,-4.0,-4.0,-15.0,-13.0,-7.0,0.0,-3.0,1651070779988374.0
0.0,2.0,4.0,20.0,23.0,8.0,2.0,-5.0,1651070779989305.0
3.0,2.0,-2.0,-11.0,10.0,6.0,0.0,4.0,1651070779989305.0
-1.0,-8.0,-25.0,0.0,1.0,0.0,-1.0,-1.0,1651070780011477.0
2.0,-2.0,0.0,1.0,-9.0,-6.0,-4.0,1.0,1651070780011477.0
-2.0,4.0,-1.0,-7.0,-12.0,-5.0,-1.0,0.0,1651070780011477.0
-5.0,-7.0,-1.0,-6.0,-3.0,-5.0,-2.0,-4.0,1651070780011477.0
-1.0,1.0,13.0,-10.0,4.0,1.0,-1.0,-2.0,1651070780025512.0
-1.0,-4.0,-9.0,3.0,1.0,0.0,0.0,2.0,1651070780025512.0
-3.0,1.0,5.0,4.0,-3.0,-2.0,-4.0,-5.0,1651070780026439.0
2.0,0.0,5.0,11.0,7.0,0.0,-1.0,-6.0,1651070780026439.0
0.0,0.0,6.0,8.0,-2.0,1.0,1.0,8.0,1651070780049096.0
-2.0,-5.0,-12.0,-14.0,-4.0,-1.0,1.0,-5.0,1651070780049096.0
3.0,-3.0,0.0,-10.0,0.0,-1.0,0.0,7.0,1651070780049096.0
-2.0,3.0,-4.0,3.0,-2.0,-2.0,0.0,-3.0,1651070780049096.0
0.0,5.0,3.0,2.0,1.0,-2.0,-1.0,-2.0,1651070780070822.0
0.0,3.0,3.0,5.0,5.0,2.0,2.0,2.0,1651070780070822.0
-2.0,-8.0,-10.0,2.0,-4.0,0.0,-1.0,-3.0,1651070780071792.0
1.0,6.0,-2.0,0.0,0.0,0.0,-1.0,1.0,1651070780071792.0
-1.0,-4.0,-12.0,-1.0,1.0,0.0,1.0,-2.0,1651070780085680.0
0.0,-2.0,-6.0,-24.0,-1.0,3.0,1.0,1.0,1651070780085680.0
0.0,2.0,6.0,5.0,-5.0,-4.0,-1.0,-1.0,1651070780086611.0
-3.0,-3.0,0.0,0.0,-6.0,-5.0,-1.0,2.0,1651070780086611.0
-2.0,3.0,12.0,2.0,8.0,-2.0,-1.0,-2.0,1651070780108826.0
2.0,2.0,3.0,14.0,1.0,2.0,-3.0,1.0,1651070780108826.0
-2.0,-2.0,-4.0,-7.0,-3.0,-1.0,1.0,1.0,1651070780109830.0
0.0,-1.0,4.0,-1.0,-1.0,0.0,-1.0,-2.0,1651070780109830.0
-2.0,1.0,1.0,9.0,0.0,1.0,2.0,-3.0,1651070780131662.0
-4.0,-3.0,2.0,5.0,0.0,-4.0,-2.0,-7.0,1651070780131662.0
8.0,0.0,-5.0,-4.0,10.0,3.0,2.0,14.0,1651070780131662.0
1.0,2.0,2.0,15.0,-4.0,-6.0,0.0,7.0,1651070780131662.0
1.0,3.0,-5.0,-22.0,-5.0,0.0,-2.0,-3.0,1651070780145683.0
-4.0,-2.0,-7.0,-5.0,-1.0,-3.0,-3.0,1.0,1651070780145683.0
-4.0,1.0,9.0,-3.0,-6.0,-3.0,-3.0,-10.0,1651070780146745.0
-1.0,1.0,-1.0,7.0,4.0,-1.0,-1.0,-3.0,1651070780146745.0
-3.0,-9.0,-8.0,-1.0,-3.0,-2.0,-2.0,0.0,1651070780168717.0
0.0,3.0,1.0,-4.0,-1.0,1.0,0.0,-1.0,1651070780168717.0
0.0,8.0,39.0,14.0,1.0,2.0,2.0,2.0,1651070780169648.0
1.0,-5.0,-28.0,-5.0,-3.0,-1.0,-2.0,0.0,1651070780169648.0
0.0,-7.0,-8.0,-3.0,-5.0,-3.0,-2.0,-2.0,1651070780191491.0
1.0,0.0,3.0,14.0,2.0,-2.0,-2.0,2.0,1651070780191491.0
0.0,2.0,-1.0,-19.0,5.0,1.0,1.0,0.0,1651070780191491.0
-4.0,-1.0,-5.0,-5.0,-3.0,0.0,-3.0,-3.0,1651070780191491.0
0.0,1.0,2.0,-3.0,0.0,3.0,3.0,-1.0,1651070780205577.0
0.0,0.0,2.0,-3.0,-10.0,-4.0,0.0,1.0,1651070780205577.0
-2.0,0.0,-5.0,1.0,-4.0,-3.0,-2.0,-6.0,1651070780206507.0
4.0,2.0,7.0,6.0,3.0,2.0,3.0,0.0,1651070780206507.0
0.0,1.0,-4.0,1.0,0.0,1.0,0.0,2.0,1651070780228708.0
1.0,-1.0,6.0,0.0,0.0,-1.0,0.0,2.0,1651070780228708.0
-5.0,0.0,-8.0,-1.0,0.0,-2.0,-3.0,-9.0,1651070780229675.0
2.0,-3.0,1.0,1.0,7.0,5.0,0.0,-5.0,1651070780229675.0
7.0,6.0,12.0,19.0,9.0,0.0,2.0,11.0,1651070780258710.0
3.0,-2.0,-5.0,-9.0,1.0,2.0,3.0,4.0,1651070780258710.0
-5.0,-9.0,-28.0,-19.0,-12.0,-7.0,-2.0,-4.0,1651070780259644.0
-4.0,2.0,9.0,8.0,-4.0,-1.0,0.0,-3.0,1651070780259644.0
-4.0,-5.0,-13.0,4.0,-2.0,-4.0,-2.0,-5.0,1651070780265653.0
-1.0,7.0,6.0,2.0,-1.0,-2.0,-2.0,-3.0,1651070780265653.0
-1.0,-6.0,-5.0,-9.0,0.0,0.0,1.0,1.0,1651070780266649.0
-2.0,-2.0,3.0,-5.0,-4.0,-1.0,1.0,2.0,1651070780266649.0
1.0,4.0,7.0,-8.0,3.0,3.0,3.0,0.0,1651070780289095.0
-2.0,-5.0,-3.0,16.0,1.0,1.0,0.0,-1.0,1651070780289095.0
3.0,5.0,-1.0,-1.0,-2.0,2.0,0.0,-1.0,1651070780289095.0
2.0,-19.0,5.0,-14.0,-6.0,-3.0,-2.0,5.0,1651070780289095.0
-1.0,1.0,8.0,5.0,-5.0,-1.0,-1.0,-1.0,1651070780311698.0
0.0,5.0,8.0,-2.0,2.0,2.0,-1.0,-1.0,1651070780311698.0
-1.0,-3.0,-9.0,12.0,5.0,3.0,-2.0,1.0,1651070780312652.0
-1.0,9.0,9.0,6.0,1.0,-2.0,0.0,-1.0,1651070780312652.0
-2.0,-4.0,-12.0,-15.0,-5.0,0.0,-1.0,-3.0,1651070780325689.0
-7.0,-8.0,-4.0,-8.0,-4.0,-1.0,-2.0,-7.0,1651070780325689.0
4.0,3.0,5.0,12.0,0.0,-1.0,0.0,2.0,1651070780326628.0
6.0,4.0,4.0,9.0,4.0,1.0,1.0,16.0,1651070780326628.0
-3.0,-3.0,-7.0,-8.0,0.0,2.0,0.0,-4.0,1651070780348796.0
1.0,1.0,-6.0,-5.0,1.0,-1.0,0.0,1.0,1651070780348796.0
-5.0,-2.0,0.0,-9.0,-17.0,-5.0,-2.0,-7.0,1651070780349726.0
-2.0,-3.0,-2.0,0.0,6.0,-2.0,-2.0,-7.0,1651070780349726.0
1.0,-5.0,4.0,11.0,6.0,4.0,2.0,2.0,1651070780379166.0
0.0,-2.0,-10.0,-21.0,1.0,-1.0,1.0,1.0,1651070780379166.0
1.0,0.0,1.0,1.0,-8.0,-4.0,0.0,1.0,1651070780379166.0
-1.0,3.0,-5.0,-12.0,-15.0,-4.0,-3.0,-1.0,1651070780379166.0
-2.0,3.0,14.0,21.0,27.0,9.0,0.0,3.0,1651070780385143.0
0.0,2.0,-2.0,-5.0,-1.0,3.0,-2.0,-4.0,1651070780385143.0
3.0,-8.0,-10.0,-14.0,-2.0,-3.0,0.0,6.0,1651070780386110.0
-2.0,1.0,-8.0,3.0,-6.0,-1.0,0.0,0.0,1651070780386110.0
0.0,-1.0,0.0,-11.0,-10.0,-5.0,-1.0,-5.0,1651070780408297.0
1.0,2.0,18.0,12.0,0.0,0.0,-1.0,2.0,1651070780408297.0
-3.0,0.0,1.0,3.0,6.0,0.0,-3.0,-2.0,1651070780409232.0
0.0,2.0,-1.0,-4.0,0.0,0.0,-1.0,-5.0,1651070780409232.0
0.0,-3.0,-5.0,2.0,-7.0,-2.0,-2.0,0.0,1651070780431465.0
1.0,-5.0,-14.0,-7.0,3.0,1.0,0.0,-2.0,1651070780431465.0
-3.0,-4.0,10.0,16.0,-4.0,2.0,2.0,0.0,1651070780431465.0
-2.0,3.0,4.0,-10.0,1.0,1.0,-2.0,-5.0,1651070780431465.0
1.0,3.0,-25.0,-8.0,-5.0,-3.0,0.0,0.0,1651070780444486.0
1.0,6.0,33.0,5.0,-2.0,-1.0,-2.0,2.0,1651070780444486.0
-6.0,-19.0,-43.0,0.0,0.0,0.0,-1.0,-2.0,1651070780453425.0
-1.0,-3.0,-5.0,1.0,3.0,3.0,-1.0,-5.0,1651070780453425.0
4.0,1.0,11.0,0.0,-4.0,-2.0,0.0,13.0,1651070780468748.0
0.0,3.0,-2.0,4.0,1.0,0.0,2.0,1.0,1651070780468748.0
1.0,9.0,10.0,0.0,1.0,-1.0,0.0,1.0,1651070780469710.0
-2.0,-3.0,4.0,1.0,-2.0,-1.0,1.0,-1.0,1651070780469710.0
-9.0,-4.0,-7.0,-15.0,2.0,2.0,-1.0,-9.0,1651070780490800.0
5.0,-4.0,-15.0,17.0,10.0,5.0,1.0,3.0,1651070780490800.0
5.0,5.0,9.0,-4.0,4.0,1.0,0.0,10.0,1651070780491808.0
0.0,-6.0,-1.0,-5.0,-8.0,-4.0,0.0,-3.0,1651070780491808.0
-2.0,1.0,12.0,0.0,-7.0,-4.0,0.0,-3.0,1651070780504793.0
-5.0,-1.0,-7.0,-6.0,-2.0,-2.0,-3.0,-4.0,1651070780504793.0
-2.0,0.0,6.0,8.0,-4.0,1.0,-1.0,-4.0,1651070780513453.0
1.0,2.0,-13.0,-16.0,4.0,0.0,-2.0,2.0,1651070780513453.0
0.0,3.0,0.0,1.0,6.0,0.0,1.0,-1.0,1651070780529101.0
-1.0,-2.0,-6.0,0.0,-8.0,-4.0,-3.0,-1.0,1651070780529101.0
2.0,4.0,8.0,9.0,3.0,1.0,2.0,0.0,1651070780529101.0
-1.0,0.0,7.0,4.0,0.0,0.0,-2.0,1.0,1651070780529101.0
-1.0,-9.0,-2.0,-4.0,-8.0,-2.0,-2.0,-3.0,1651070780551665.0
2.0,6.0,-1.0,6.0,-2.0,-5.0,0.0,3.0,1651070780551665.0
-3.0,-1.0,2.0,-6.0,6.0,1.0,1.0,-2.0,1651070780551665.0
-2.0,-1.0,0.0,1.0,-1.0,0.0,1.0,-3.0,1651070780551665.0
4.0,2.0,0.0,1.0,1.0,1.0,0.0,3.0,1651070780564671.0
0.0,-2.0,1.0,2.0,-7.0,-1.0,0.0,2.0,1651070780564671.0
-2.0,-1.0,-3.0,-8.0,3.0,0.0,-3.0,-2.0,1651070780573450.0
-1.0,-1.0,2.0,10.0,8.0,4.0,1.0,1.0,1651070780573450.0
2.0,4.0,6.0,8.0,-3.0,-1.0,-2.0,-3.0,1651070780588687.0
-3.0,-13.0,-22.0,-14.0,-1.0,-2.0,1.0,-1.0,1651070780588687.0
-1.0,2.0,-6.0,-14.0,-1.0,0.0,-1.0,-2.0,1651070780589686.0
-1.0,-6.0,-5.0,2.0,3.0,0.0,1.0,-1.0,1651070780589686.0
0.0,2.0,10.0,8.0,-7.0,-4.0,-1.0,1.0,1651070780611618.0
-2.0,2.0,4.0,2.0,0.0,1.0,-3.0,0.0,1651070780611618.0
-2.0,-1.0,-1.0,0.0,1.0,0.0,1.0,-1.0,1651070780611618.0
1.0,2.0,2.0,-1.0,-2.0,-2.0,-1.0,2.0,1651070780611618.0
-1.0,-1.0,0.0,2.0,-2.0,0.0,0.0,0.0,1651070780624636.0
1.0,2.0,2.0,1.0,2.0,1.0,2.0,0.0,1651070780624636.0
-1.0,2.0,0.0,-9.0,-4.0,-1.0,0.0,-2.0,1651070780632676.0
-2.0,-7.0,-9.0,8.0,2.0,1.0,-1.0,-8.0,1651070780632676.0
5.0,1.0,1.0,-1.0,2.0,2.0,1.0,11.0,1651070780649638.0
1.0,2.0,5.0,3.0,2.0,0.0,2.0,0.0,1651070780649638.0
0.0,2.0,2.0,-7.0,-4.0,-4.0,-4.0,-1.0,1651070780649638.0
-4.0,1.0,0.0,2.0,-3.0,-1.0,0.0,-6.0,1651070780649638.0
-1.0,-9.0,-5.0,-3.0,1.0,-2.0,0.0,-1.0,1651070780671260.0
1.0,-5.0,1.0,6.0,2.0,1.0,2.0,1.0,1651070780671260.0
0.0,0.0,-5.0,2.0,-2.0,1.0,2.0,0.0,1651070780671613.0
-4.0,-2.0,-10.0,-28.0,-6.0,-1.0,-2.0,0.0,1651070780671613.0
-6.0,-2.0,-5.0,3.0,0.0,-2.0,-6.0,-9.0,1651070780684649.0
2.0,-1.0,3.0,0.0,-2.0,1.0,0.0,0.0,1651070780684649.0
2.0,1.0,5.0,16.0,1.0,2.0,1.0,3.0,1651070780701615.0
0.0,4.0,0.0,1.0,-2.0,1.0,0.0,1.0,1651070780701615.0
-3.0,-1.0,-1.0,-2.0,-1.0,-1.0,0.0,0.0,1651070780708666.0
-3.0,-6.0,2.0,0.0,3.0,-1.0,0.0,0.0,1651070780708666.0
-1.0,-4.0,-12.0,-4.0,0.0,-1.0,-1.0,-3.0,1651070780710620.0
1.0,-4.0,-10.0,-4.0,-1.0,0.0,2.0,3.0,1651070780710620.0
0.0,4.0,1.0,-3.0,-3.0,-2.0,-1.0,-1.0,1651070780731541.0
0.0,2.0,1.0,8.0,2.0,0.0,-4.0,-4.0,1651070780731541.0
1.0,0.0,4.0,-7.0,-9.0,-4.0,-2.0,-1.0,1651070780732555.0
1.0,4.0,8.0,8.0,8.0,0.0,0.0,1.0,1651070780732555.0
0.0,4.0,2.0,6.0,0.0,2.0,0.0,-1.0,1651070780744570.0
-2.0,-5.0,0.0,-1.0,-6.0,-1.0,-1.0,-3.0,1651070780744570.0
-1.0,-6.0,-5.0,-3.0,-3.0,-1.0,-2.0,0.0,1651070780753521.0
1.0,5.0,-4.0,-11.0,-4.0,-4.0,-1.0,2.0,1651070780753521.0
1.0,1.0,0.0,-2.0,-1.0,0.0,-1.0,-1.0,1651070780767749.0
0.0,4.0,5.0,13.0,0.0,-1.0,-1.0,1.0,1651070780767749.0
-1.0,-1.0,2.0,-6.0,0.0,-1.0,-1.0,0.0,1651070780774732.0
0.0,0.0,7.0,12.0,0.0,0.0,-2.0,1.0,1651070780774732.0
0.0,-2.0,-12.0,-8.0,2.0,0.0,0.0,-3.0,1651070780791670.0
0.0,4.0,0.0,-5.0,-1.0,0.0,1.0,0.0,1651070780791670.0
-2.0,4.0,9.0,-3.0,0.0,2.0,0.0,1.0,1651070780792697.0
-3.0,-9.0,-9.0,2.0,-1.0,0.0,0.0,-1.0,1651070780792697.0
0.0,0.0,1.0,-2.0,-5.0,-5.0,-1.0,2.0,1651070780813820.0
-3.0,-4.0,-10.0,-7.0,-3.0,0.0,-2.0,-1.0,1651070780813820.0
0.0,3.0,4.0,16.0,7.0,-1.0,1.0,-1.0,1651070780814833.0
2.0,2.0,-2.0,-5.0,-9.0,-2.0,-1.0,2.0,1651070780814833.0
-1.0,-6.0,4.0,6.0,1.0,-2.0,0.0,1.0,1651070780827830.0
1.0,0.0,0.0,-10.0,6.0,-2.0,-1.0,-2.0,1651070780827830.0
0.0,0.0,10.0,11.0,5.0,4.0,1.0,1.0,1651070780834811.0
1.0,1.0,-4.0,-7.0,3.0,0.0,0.0,0.0,1651070780834811.0
-2.0,-1.0,0.0,-6.0,-11.0,-3.0,-1.0,-2.0,1651070780850906.0
-1.0,0.0,-4.0,-3.0,-1.0,-2.0,-2.0,-1.0,1651070780850906.0
-2.0,-10.0,3.0,4.0,2.0,-2.0,-2.0,1.0,1651070780852834.0
1.0,2.0,-2.0,4.0,2.0,0.0,0.0,-1.0,1651070780852834.0
-2.0,-4.0,8.0,6.0,2.0,2.0,1.0,0.0,1651070780874063.0
-2.0,-4.0,-19.0,-15.0,-10.0,-4.0,0.0,0.0,1651070780874063.0
1.0,8.0,14.0,1.0,-3.0,0.0,0.0,0.0,1651070780875637.0
-1.0,-4.0,4.0,4.0,-1.0,-3.0,0.0,0.0,1651070780875637.0
-1.0,-3.0,-6.0,0.0,1.0,-1.0,-1.0,-1.0,1651070780887647.0
1.0,5.0,2.0,1.0,5.0,3.0,1.0,1.0,1651070780887647.0
-2.0,-8.0,-13.0,-8.0,0.0,-1.0,-1.0,-2.0,1651070780896565.0
0.0,5.0,7.0,13.0,-7.0,-3.0,-3.0,-2.0,1651070780896565.0
0.0,0.0,-1.0,2.0,15.0,3.0,0.0,-2.0,1651070780911531.0
-2.0,-5.0,0.0,0.0,-9.0,-7.0,-4.0,-3.0,1651070780911531.0
-2.0,-1.0,-3.0,-6.0,0.0,0.0,-1.0,1.0,1651070780912522.0
0.0,-1.0,4.0,-5.0,-1.0,3.0,0.0,1.0,1651070780912522.0
0.0,0.0,-8.0,0.0,-8.0,-5.0,-3.0,-1.0,1651070780933850.0
0.0,-1.0,4.0,-9.0,0.0,0.0,1.0,-1.0,1651070780933850.0
1.0,6.0,0.0,3.0,-2.0,-1.0,-1.0,-1.0,1651070780934807.0
-3.0,-6.0,2.0,1.0,3.0,0.0,0.0,0.0,1651070780934807.0
1.0,3.0,1.0,-3.0,2.0,1.0,0.0,-1.0,1651070780947767.0
-1.0,3.0,-6.0,-1.0,-3.0,1.0,-1.0,2.0,1651070780947767.0
-2.0,-1.0,-3.0,2.0,-1.0,-1.0,-1.0,-3.0,1651070780956726.0
1.0,1.0,5.0,4.0,-4.0,-3.0,-2.0,0.0,1651070780956726.0
0.0,-1.0,-3.0,-3.0,3.0,0.0,1.0,0.0,1651070780969865.0
1.0,6.0,6.0,-2.0,-5.0,-2.0,1.0,-1.0,1651070780969865.0
-1.0,-6.0,-27.0,1.0,13.0,6.0,2.0,-1.0,1651070780978773.0
-2.0,1.0,12.0,-1.0,-2.0,-4.0,-2.0,-1.0,1651070780978773.0
0.0,-1.0,2.0,-3.0,-6.0,-3.0,-1.0,-1.0,1651070780993843.0
-1.0,-3.0,5.0,8.0,3.0,-4.0,-2.0,0.0,1651070780993843.0
0.0,4.0,3.0,-4.0,-2.0,4.0,-2.0,0.0,1651070780994843.0
-2.0,-1.0,-19.0,-8.0,-16.0,-5.0,-1.0,-1.0,1651070780994843.0
-1.0,4.0,25.0,6.0,-8.0,-3.0,-1.0,-2.0,1651070781007708.0
-1.0,-7.0,1.0,-3.0,6.0,4.0,1.0,-1.0,1651070781007708.0
4.0,9.0,8.0,12.0,12.0,4.0,2.0,1.0,1651070781014815.0
2.0,-4.0,-5.0,-5.0,-4.0,-3.0,-2.0,0.0,1651070781014815.0
-2.0,-3.0,-8.0,2.0,-8.0,-1.0,-2.0,0.0,1651070781030800.0
-1.0,-6.0,-13.0,-3.0,-6.0,-2.0,-3.0,0.0,1651070781030800.0
-3.0,-2.0,0.0,-7.0,-5.0,-3.0,-3.0,-2.0,1651070781032763.0
-3.0,4.0,4.0,7.0,8.0,2.0,1.0,-2.0,1651070781032763.0
0.0,0.0,-3.0,-2.0,-2.0,-3.0,-1.0,1.0,1651070781060768.0
-2.0,-2.0,7.0,7.0,4.0,3.0,0.0,-2.0,1651070781060768.0
-1.0,-1.0,-8.0,-14.0,-4.0,-1.0,1.0,1.0,1651070781062766.0
2.0,-1.0,-4.0,-3.0,4.0,-1.0,0.0,0.0,1651070781062766.0
-1.0,-2.0,-4.0,0.0,7.0,1.0,1.0,0.0,1651070781067752.0
-2.0,2.0,-2.0,2.0,0.0,3.0,1.0,-1.0,1651070781067752.0
-1.0,0.0,12.0,4.0,-6.0,-4.0,0.0,0.0,1651070781074761.0
-2.0,-5.0,5.0,-4.0,2.0,3.0,1.0,0.0,1651070781074761.0
-1.0,0.0,-11.0,4.0,3.0,1.0,-1.0,2.0,1651070781090728.0
-1.0,2.0,17.0,-1.0,-3.0,-2.0,1.0,0.0,1651070781090728.0
-1.0,-4.0,-13.0,-2.0,-12.0,-6.0,-3.0,-7.0,1651070781092665.0
-2.0,-2.0,-3.0,-7.0,-12.0,-5.0,-5.0,-10.0,1651070781092665.0
-1.0,8.0,-2.0,3.0,33.0,18.0,1.0,1.0,1651070781114062.0
2.0,0.0,2.0,1.0,10.0,7.0,2.0,10.0,1651070781114062.0
-4.0,-2.0,9.0,5.0,3.0,2.0,1.0,0.0,1651070781115582.0
8.0,4.0,-8.0,0.0,-1.0,-1.0,3.0,13.0,1651070781115582.0
-1.0,-4.0,-2.0,-13.0,-22.0,-10.0,-1.0,-1.0,1651070781127560.0
-4.0,-3.0,-3.0,-1.0,-3.0,-2.0,-1.0,-2.0,1651070781127560.0
-3.0,-1.0,-2.0,-4.0,-6.0,0.0,-2.0,-6.0,1651070781134598.0
-5.0,-11.0,0.0,4.0,7.0,1.0,-3.0,-7.0,1651070781134598.0
1.0,-1.0,13.0,2.0,-2.0,0.0,1.0,1.0,1651070781151621.0
3.0,-5.0,-28.0,7.0,13.0,3.0,2.0,1.0,1651070781151621.0
-1.0,2.0,-2.0,-5.0,-17.0,-7.0,-3.0,2.0,1651070781152634.0
-4.0,6.0,0.0,2.0,10.0,-2.0,-1.0,-15.0,1651070781152634.0
-2.0,4.0,14.0,1.0,-6.0,-1.0,-2.0,0.0,1651070781173765.0
-1.0,-4.0,5.0,-13.0,-3.0,-4.0,-3.0,6.0,1651070781173765.0
1.0,1.0,-8.0,-7.0,0.0,-1.0,0.0,3.0,1651070781174726.0
-1.0,5.0,14.0,9.0,3.0,7.0,1.0,3.0,1651070781174726.0
-1.0,-17.0,-11.0,-3.0,3.0,-1.0,0.0,-5.0,1651070781187728.0
-3.0,7.0,2.0,2.0,-5.0,-2.0,-1.0,-7.0,1651070781187728.0
0.0,-4.0,-4.0,1.0,-6.0,-3.0,-2.0,1.0,1651070781194709.0
-1.0,2.0,11.0,-2.0,10.0,2.0,3.0,4.0,1651070781194709.0
1.0,0.0,-4.0,1.0,-11.0,-5.0,0.0,-10.0,1651070781210774.0
4.0,3.0,-5.0,0.0,0.0,-2.0,0.0,10.0,1651070781210774.0
6.0,7.0,17.0,1.0,15.0,9.0,6.0,3.0,1651070781212702.0
-2.0,-9.0,-31.0,-3.0,-8.0,-3.0,-3.0,-1.0,1651070781212702.0
-4.0,-13.0,-11.0,-8.0,-19.0,-5.0,-3.0,-9.0,1651070781233760.0
-9.0,0.0,-2.0,0.0,-6.0,-8.0,-6.0,-20.0,1651070781233760.0
-2.0,5.0,31.0,0.0,8.0,-1.0,-4.0,-7.0,1651070781234731.0
6.0,0.0,-22.0,5.0,11.0,7.0,2.0,21.0,1651070781234731.0
4.0,7.0,2.0,4.0,-1.0,-1.0,0.0,5.0,1651070781247762.0
3.0,-3.0,0.0,-4.0,-12.0,-2.0,0.0,-4.0,1651070781247762.0
0.0,3.0,-9.0,-2.0,-6.0,-7.0,-1.0,-6.0,1651070781256682.0
-4.0,3.0,25.0,-1.0,-3.0,0.0,1.0,-9.0,1651070781256682.0
-1.0,3.0,-9.0,-10.0,-12.0,-3.0,0.0,4.0,1651070781271464.0
-2.0,-8.0,6.0,8.0,8.0,0.0,-2.0,-4.0,1651070781271464.0
-1.0,-8.0,-19.0,-1.0,4.0,4.0,0.0,1.0,1651070781272464.0
1.0,-4.0,-4.0,-7.0,-7.0,-5.0,-2.0,0.0,1651070781272464.0
-1.0,5.0,0.0,-2.0,-2.0,-3.0,-1.0,3.0,1651070781293598.0
-2.0,1.0,-4.0,-3.0,6.0,6.0,2.0,0.0,1651070781293598.0
1.0,-4.0,4.0,2.0,-21.0,-13.0,-4.0,-1.0,1651070781295526.0
-3.0,0.0,2.0,-5.0,24.0,5.0,0.0,-6.0,1651070781295526.0
-1.0,0.0,2.0,9.0,15.0,8.0,3.0,7.0,1651070781307560.0
1.0,3.0,-11.0,8.0,-7.0,-5.0,0.0,1.0,1651070781307560.0
-1.0,-6.0,6.0,-10.0,-2.0,-1.0,0.0,1.0,1651070781316632.0
2.0,5.0,1.0,17.0,-19.0,-9.0,-3.0,-1.0,1651070781316632.0
-4.0,-2.0,6.0,-7.0,-1.0,-2.0,-3.0,-8.0,1651070781345708.0
-3.0,3.0,-2.0,-6.0,3.0,1.0,2.0,-6.0,1651070781345708.0
-3.0,-8.0,-8.0,0.0,-11.0,-5.0,-2.0,12.0,1651070781347636.0
2.0,-1.0,10.0,0.0,8.0,14.0,6.0,4.0,1651070781347636.0
3.0,7.0,-31.0,-7.0,9.0,-1.0,-7.0,-4.0,1651070781353619.0
2.0,-5.0,-7.0,4.0,-3.0,0.0,-2.0,7.0,1651070781353619.0
3.0,-10.0,6.0,11.0,6.0,3.0,2.0,4.0,1651070781355614.0
-4.0,5.0,-3.0,-10.0,-12.0,-7.0,-4.0,-19.0,1651070781355614.0
-5.0,-11.0,13.0,2.0,7.0,6.0,18.0,15.0,1651070781367648.0
-6.0,13.0,-4.0,-13.0,-7.0,-3.0,-22.0,-13.0,1651070781367648.0
6.0,-6.0,-7.0,5.0,21.0,2.0,0.0,2.0,1651070781376558.0
3.0,-6.0,12.0,-2.0,1.0,-2.0,-3.0,11.0,1651070781376558.0
-2.0,-8.0,1.0,6.0,-8.0,-4.0,-4.0,-9.0,1651070781391645.0
-1.0,-4.0,0.0,6.0,-12.0,-6.0,5.0,-21.0,1651070781391645.0
-6.0,10.0,-2.0,-4.0,-3.0,-2.0,1.0,7.0,1651070781392646.0
-7.0,-16.0,-20.0,-14.0,-7.0,-5.0,-3.0,-5.0,1651070781392646.0
7.0,4.0,5.0,1.0,6.0,4.0,4.0,18.0,1651070781414061.0
7.0,3.0,-1.0,-8.0,-3.0,3.0,6.0,12.0,1651070781414061.0
-5.0,0.0,-10.0,1.0,0.0,-4.0,-8.0,-14.0,1651070781415629.0
-1.0,23.0,9.0,-5.0,-1.0,-4.0,1.0,-6.0,1651070781415629.0
-14.0,34.0,9.0,-10.0,-14.0,-4.0,-2.0,-32.0,1651070781427594.0
4.0,-47.0,1.0,15.0,15.0,5.0,-5.0,5.0,1651070781427594.0
5.0,-11.0,-27.0,-9.0,-4.0,-3.0,1.0,20.0,1651070781436601.0
13.0,-1.0,-4.0,1.0,-3.0,2.0,5.0,20.0,1651070781436601.0
-7.0,8.0,11.0,0.0,8.0,3.0,1.0,-22.0,1651070781451620.0
-18.0,-6.0,6.0,7.0,0.0,1.0,-6.0,-9.0,1651070781451620.0
-1.0,15.0,29.0,-2.0,-6.0,6.0,15.0,-26.0,1651070781452618.0
17.0,24.0,-6.0,1.0,5.0,-8.0,-16.0,32.0,1651070781452618.0
18.0,-45.0,2.0,4.0,1.0,6.0,10.0,34.0,1651070781473799.0
-8.0,11.0,-10.0,-5.0,10.0,3.0,6.0,-17.0,1651070781473799.0
-9.0,-8.0,4.0,3.0,5.0,0.0,-12.0,-6.0,1651070781474810.0
-13.0,-25.0,-28.0,-5.0,-4.0,5.0,6.0,-8.0,1651070781474810.0
-2.0,10.0,-12.0,-6.0,-16.0,-13.0,-11.0,-15.0,1651070781487768.0
9.0,21.0,36.0,10.0,18.0,9.0,-1.0,-20.0,1651070781487768.0
-3.0,-9.0,2.0,31.0,1.0,1.0,1.0,17.0,1651070781496735.0
-1.0,24.0,18.0,-24.0,5.0,9.0,13.0,-7.0,1651070781496735.0
-10.0,-29.0,-50.0,-24.0,-28.0,-20.0,-12.0,1.0,1651070781511623.0
3.0,-8.0,5.0,-2.0,-5.0,-3.0,7.0,32.0,1651070781511623.0
5.0,25.0,1.0,5.0,12.0,4.0,-3.0,-20.0,1651070781512610.0
-8.0,-17.0,17.0,17.0,1.0,-2.0,-4.0,-7.0,1651070781512610.0
2.0,-1.0,-10.0,16.0,13.0,9.0,5.0,7.0,1651070781534609.0
2.0,47.0,30.0,-13.0,-18.0,-8.0,-4.0,-7.0,1651070781534609.0
0.0,-52.0,-43.0,-2.0,-2.0,-4.0,-3.0,5.0,1651070781535614.0
0.0,13.0,-1.0,0.0,1.0,4.0,4.0,-1.0,1651070781535614.0
0.0,-4.0,27.0,5.0,12.0,3.0,3.0,16.0,1651070781547643.0
0.0,-3.0,-23.0,-9.0,-7.0,-6.0,-4.0,-10.0,1651070781547643.0
1.0,-9.0,9.0,14.0,4.0,2.0,0.0,-3.0,1651070781556553.0
1.0,-6.0,-7.0,-19.0,-5.0,-2.0,4.0,0.0,1651070781556553.0
-7.0,3.0,-4.0,-2.0,0.0,0.0,-2.0,-4.0,1651070781570838.0
7.0,7.0,20.0,-3.0,2.0,0.0,-1.0,32.0,1651070781570838.0
4.0,15.0,8.0,9.0,-4.0,-1.0,4.0,6.0,1651070781572863.0
-3.0,-7.0,0.0,0.0,-1.0,-3.0,-6.0,-24.0,1651070781572863.0
4.0,23.0,12.0,0.0,0.0,1.0,-4.0,4.0,1651070781594121.0
-7.0,-18.0,-19.0,2.0,-20.0,-11.0,-1.0,-2.0,1651070781594121.0
-5.0,3.0,12.0,6.0,36.0,22.0,12.0,-1.0,1651070781595121.0
-5.0,-3.0,6.0,22.0,8.0,-1.0,-6.0,-20.0,1651070781595121.0
8.0,16.0,0.0,-25.0,17.0,3.0,1.0,20.0,1651070781607089.0
-5.0,-38.0,-35.0,-3.0,-16.0,-5.0,-2.0,1.0,1651070781607089.0
-10.0,1.0,-8.0,-39.0,-24.0,-10.0,-9.0,-30.0,1651070781616065.0
-3.0,9.0,35.0,14.0,-5.0,-2.0,3.0,27.0,1651070781616065.0
-5.0,-32.0,-6.0,37.0,4.0,3.0,-4.0,-25.0,1651070781631432.0
4.0,1.0,-7.0,-23.0,3.0,0.0,2.0,2.0,1651070781631432.0
11.0,40.0,15.0,7.0,-4.0,1.0,3.0,6.0,1651070781632360.0
-4.0,-24.0,-3.0,8.0,5.0,-1.0,-8.0,-12.0,1651070781632360.0
-3.0,12.0,-18.0,-8.0,-7.0,-2.0,1.0,-27.0,1651070781654602.0
-1.0,-18.0,5.0,-3.0,-11.0,-3.0,-6.0,27.0,1651070781654602.0
4.0,5.0,10.0,9.0,20.0,5.0,6.0,25.0,1651070781655613.0
-3.0,-3.0,-19.0,-22.0,-8.0,-3.0,-5.0,-9.0,1651070781655613.0
-1.0,4.0,20.0,17.0,8.0,-1.0,-1.0,-11.0,1651070781667636.0
-6.0,-15.0,-16.0,10.0,-3.0,-4.0,-2.0,-1.0,1651070781667636.0
3.0,7.0,0.0,-15.0,-13.0,-5.0,-2.0,4.0,1651070781676145.0
5.0,-6.0,-24.0,-2.0,-3.0,-3.0,2.0,14.0,1651070781676145.0
-5.0,-4.0,7.0,-1.0,1.0,4.0,-1.0,-15.0,1651070781690855.0
7.0,7.0,14.0,15.0,10.0,7.0,12.0,3.0,1651070781690855.0
-5.0,2.0,-10.0,-16.0,-14.0,-6.0,-1.0,12.0,1651070781692871.0
2.0,5.0,-7.0,4.0,0.0,2.0,6.0,1.0,1651070781692871.0
5.0,5.0,-2.0,-13.0,-3.0,-3.0,1.0,5.0,1651070781713994.0
2.0,10.0,9.0,10.0,5.0,9.0,4.0,-9.0,1651070781713994.0
-1.0,-3.0,-4.0,15.0,6.0,-3.0,-4.0,7.0,1651070781714962.0
-6.0,-20.0,-5.0,-17.0,18.0,14.0,3.0,-18.0,1651070781714962.0
-1.0,8.0,-1.0,3.0,-9.0,-2.0,-3.0,15.0,1651070781736328.0
6.0,17.0,2.0,-12.0,-2.0,-8.0,0.0,13.0,1651070781736328.0
-7.0,-22.0,-12.0,0.0,6.0,4.0,-3.0,-36.0,1651070781737323.0
-4.0,7.0,7.0,34.0,-4.0,-5.0,-1.0,16.0,1651070781737323.0
5.0,13.0,13.0,2.0,-1.0,-3.0,1.0,8.0,1651070781751352.0
-10.0,-35.0,-44.0,-32.0,3.0,2.0,-2.0,-40.0,1651070781751352.0
0.0,18.0,8.0,-1.0,-12.0,-10.0,-6.0,20.0,1651070781752282.0
3.0,-2.0,-4.0,-10.0,1.0,-2.0,-3.0,-4.0,1651070781752282.0
-1.0,-20.0,-4.0,3.0,2.0,1.0,6.0,19.0,1651070781773338.0
-1.0,16.0,18.0,11.0,-2.0,-2.0,-3.0,-13.0,1651070781773338.0
-2.0,-2.0,2.0,6.0,-3.0,1.0,1.0,-8.0,1651070781775336.0
-8.0,-3.0,-28.0,-25.0,-5.0,0.0,-1.0,-8.0,1651070781775336.0
9.0,-2.0,5.0,-3.0,-9.0,-5.0,2.0,25.0,1651070781796280.0
7.0,15.0,15.0,16.0,18.0,6.0,4.0,-10.0,1651070781796280.0
-4.0,-17.0,15.0,-8.0,-1.0,1.0,-2.0,5.0,1651070781797277.0
8.0,42.0,21.0,11.0,2.0,-3.0,5.0,2.0,1651070781797277.0
-13.0,-30.0,12.0,42.0,-1.0,-2.0,-6.0,-19.0,1651070781811684.0
-3.0,-2.0,-44.0,-44.0,-8.0,-3.0,-4.0,9.0,1651070781811684.0
-7.0,-16.0,-27.0,-36.0,1.0,-2.0,2.0,-3.0,1651070781812711.0
5.0,0.0,27.0,4.0,-11.0,-3.0,-2.0,9.0,1651070781812711.0
-1.0,16.0,-27.0,-11.0,-2.0,3.0,-2.0,-5.0,1651070781833767.0
2.0,5.0,25.0,27.0,22.0,8.0,2.0,9.0,1651070781833767.0
-3.0,-3.0,9.0,22.0,-4.0,-2.0,-1.0,-12.0,1651070781834767.0
-7.0,-7.0,9.0,-3.0,-5.0,-5.0,-2.0,-2.0,1651070781834767.0
7.0,-1.0,-6.0,-18.0,-2.0,0.0,2.0,12.0,1651070781856215.0
0.0,26.0,42.0,22.0,-8.0,-6.0,-8.0,-17.0,1651070781856215.0
-5.0,-29.0,-52.0,-24.0,-6.0,-1.0,1.0,-21.0,1651070781857213.0
2.0,-6.0,-2.0,2.0,4.0,2.0,1.0,27.0,1651070781857213.0
6.0,12.0,7.0,20.0,2.0,-2.0,2.0,13.0,1651070781871243.0
-2.0,-1.0,-5.0,-12.0,4.0,8.0,7.0,5.0,1651070781871243.0
1.0,4.0,-4.0,-14.0,-6.0,-4.0,-3.0,-14.0,1651070781873194.0
-1.0,7.0,7.0,9.0,4.0,-1.0,-4.0,-14.0,1651070781873194.0
-6.0,-18.0,-4.0,-13.0,4.0,3.0,-3.0,-11.0,1651070781894612.0
-2.0,-1.0,-17.0,-17.0,-7.0,-3.0,-1.0,11.0,1651070781894612.0
-3.0,0.0,16.0,10.0,-10.0,-4.0,-6.0,-11.0,1651070781895614.0
0.0,-3.0,7.0,4.0,1.0,4.0,10.0,11.0,1651070781895614.0
8.0,26.0,-6.0,-6.0,-2.0,-7.0,-9.0,-9.0,1651070781916615.0
-8.0,-16.0,-21.0,-8.0,17.0,-1.0,0.0,1.0,1651070781916615.0
7.0,-4.0,36.0,34.0,12.0,13.0,8.0,20.0,1651070781917567.0
-3.0,0.0,-28.0,-45.0,-6.0,-3.0,-5.0,-28.0,1651070781917567.0
-4.0,-5.0,-21.0,8.0,-7.0,0.0,4.0,3.0,1651070781930631.0
-2.0,0.0,3.0,-12.0,-12.0,-7.0,-8.0,-2.0,1651070781930631.0
-3.0,6.0,11.0,-2.0,-6.0,-4.0,-1.0,3.0,1651070781937670.0
3.0,3.0,13.0,27.0,4.0,3.0,4.0,4.0,1651070781937670.0
-4.0,-2.0,0.0,-20.0,0.0,0.0,-2.0,-6.0,1651070781953627.0
-3.0,-24.0,-4.0,12.0,-3.0,-2.0,-1.0,-9.0,1651070781953627.0
0.0,8.0,-9.0,4.0,0.0,-1.0,1.0,7.0,1651070781955555.0
4.0,37.0,45.0,-2.0,-3.0,0.0,-2.0,-7.0,1651070781955555.0
1.0,-31.0,-35.0,3.0,0.0,-1.0,-3.0,14.0,1651070781976634.0
0.0,8.0,-9.0,-18.0,-11.0,-7.0,-1.0,5.0,1651070781976634.0
2.0,0.0,10.0,11.0,4.0,0.0,-1.0,-6.0,1651070781977565.0
-6.0,-13.0,-29.0,-15.0,-2.0,-2.0,-2.0,-7.0,1651070781977565.0
-1.0,13.0,31.0,-18.0,-11.0,-4.0,-7.0,-10.0,1651070781990576.0
7.0,6.0,2.0,15.0,5.0,0.0,3.0,15.0,1651070781990576.0
3.0,4.0,3.0,1.0,2.0,0.0,2.0,6.0,1651070781997606.0
3.0,0.0,-10.0,4.0,-1.0,-2.0,-5.0,6.0,1651070781997606.0
-6.0,-5.0,9.0,10.0,-1.0,0.0,0.0,-11.0,1651070782013711.0
4.0,14.0,-8.0,-3.0,-6.0,-2.0,-2.0,0.0,1651070782013711.0
-3.0,-8.0,-12.0,-23.0,-5.0,2.0,-3.0,-2.0,1651070782014715.0
5.0,-2.0,9.0,20.0,19.0,5.0,1.0,-7.0,1651070782014715.0
-6.0,-13.0,-15.0,-4.0,3.0,-1.0,-3.0,-9.0,1651070782035699.0
-2.0,8.0,40.0,3.0,-5.0,6.0,2.0,10.0,1651070782035699.0
6.0,17.0,-9.0,8.0,-2.0,-7.0,-4.0,9.0,1651070782037627.0
-4.0,-14.0,-24.0,-7.0,-13.0,-8.0,-10.0,-14.0,1651070782037627.0
-1.0,5.0,0.0,-9.0,0.0,-1.0,-2.0,-2.0,1651070782049742.0
-5.0,8.0,29.0,19.0,4.0,1.0,-3.0,-22.0,1651070782049742.0
-5.0,-5.0,-24.0,-10.0,1.0,-3.0,-4.0,-3.0,1651070782058731.0
0.0,10.0,16.0,4.0,-6.0,-2.0,-3.0,6.0,1651070782058731.0
0.0,-3.0,2.0,-7.0,-2.0,-1.0,4.0,14.0,1651070782073511.0
-5.0,-13.0,-5.0,2.0,0.0,-1.0,-4.0,-31.0,1651070782073511.0
0.0,2.0,0.0,-8.0,0.0,3.0,1.0,16.0,1651070782075468.0
-1.0,-2.0,-8.0,9.0,-1.0,-3.0,0.0,1.0,1651070782075468.0
2.0,8.0,7.0,8.0,4.0,0.0,2.0,-7.0,1651070782096471.0
0.0,-5.0,-12.0,-15.0,-2.0,-2.0,1.0,17.0,1651070782096471.0
-4.0,1.0,10.0,-4.0,-5.0,-4.0,-3.0,-14.0,1651070782097467.0
-1.0,-10.0,-13.0,-9.0,-8.0,-4.0,-5.0,0.0,1651070782097467.0
0.0,7.0,23.0,15.0,1.0,5.0,-2.0,2.0,1651070782111285.0
-4.0,-31.0,-25.0,5.0,6.0,1.0,-4.0,-30.0,1651070782111285.0
3.0,20.0,-10.0,-12.0,-7.0,-5.0,-1.0,23.0,1651070782118613.0
3.0,-6.0,6.0,6.0,0.0,-1.0,2.0,19.0,1651070782118613.0
2.0,5.0,8.0,-5.0,2.0,-1.0,0.0,9.0,1651070782133603.0
4.0,18.0,5.0,21.0,5.0,1.0,5.0,9.0,1651070782133603.0
-7.0,-24.0,10.0,22.0,2.0,2.0,-7.0,-38.0,1651070782135531.0
2.0,-7.0,1.0,-7.0,6.0,3.0,7.0,19.0,1651070782135531.0
2.0,18.0,28.0,-9.0,-5.0,3.0,-3.0,-6.0,1651070782156600.0
1.0,-11.0,-24.0,-25.0,-7.0,-2.0,0.0,9.0,1651070782156600.0
2.0,1.0,-7.0,-1.0,16.0,6.0,4.0,-5.0,1651070782157598.0
-2.0,-9.0,-8.0,18.0,-5.0,-3.0,-5.0,-7.0,1651070782157598.0
-1.0,24.0,17.0,-12.0,3.0,0.0,2.0,-3.0,1651070782170729.0
-2.0,1.0,16.0,10.0,-4.0,-3.0,-2.0,-10.0,1651070782170729.0
6.0,8.0,5.0,-7.0,-2.0,-1.0,2.0,-2.0,1651070782177687.0
-3.0,-13.0,8.0,-5.0,0.0,3.0,4.0,-8.0,1651070782177687.0
3.0,-8.0,-18.0,15.0,3.0,-4.0,2.0,16.0,1651070782200747.0
-3.0,3.0,-5.0,12.0,-2.0,0.0,3.0,6.0,1651070782200747.0
2.0,12.0,-5.0,-30.0,-10.0,-6.0,-1.0,5.0,1651070782202753.0
1.0,-15.0,-8.0,6.0,3.0,1.0,-4.0,-30.0,1651070782202753.0
-10.0,-11.0,-13.0,9.0,3.0,0.0,2.0,16.0,1651070782215777.0
13.0,19.0,15.0,-6.0,-2.0,2.0,6.0,13.0,1651070782215777.0
-1.0,-9.0,-21.0,2.0,-4.0,-3.0,-5.0,-6.0,1651070782217705.0
13.0,23.0,14.0,8.0,4.0,3.0,10.0,29.0,1651070782217705.0
-8.0,-27.0,-15.0,-12.0,-11.0,-7.0,-8.0,-27.0,1651070782229844.0
-2.0,-2.0,-7.0,-8.0,7.0,1.0,-5.0,15.0,1651070782229844.0
4.0,11.0,21.0,26.0,1.0,2.0,0.0,-13.0,1651070782238820.0
-12.0,-6.0,-24.0,-9.0,2.0,-3.0,-7.0,-12.0,1651070782238820.0
-7.0,-17.0,-11.0,-5.0,-1.0,-3.0,-3.0,-23.0,1651070782253847.0
-7.0,-18.0,-4.0,6.0,-7.0,1.0,5.0,18.0,1651070782253847.0
6.0,-3.0,0.0,-20.0,-6.0,0.0,10.0,10.0,1651070782254778.0
-3.0,-13.0,-11.0,5.0,17.0,7.0,-2.0,2.0,1651070782254778.0
6.0,4.0,5.0,0.0,5.0,6.0,6.0,12.0,1651070782275894.0
1.0,4.0,2.0,8.0,-1.0,-3.0,-3.0,-15.0,1651070782275894.0
0.0,-4.0,-8.0,-35.0,-8.0,-1.0,3.0,12.0,1651070782277848.0
1.0,19.0,16.0,21.0,-7.0,-8.0,-4.0,-3.0,1651070782277848.0
-1.0,-12.0,-28.0,-5.0,1.0,0.0,1.0,-9.0,1651070782289902.0
5.0,-2.0,-14.0,3.0,-6.0,-4.0,-4.0,10.0,1651070782289902.0
-22.0,-16.0,-1.0,-4.0,0.0,-1.0,-1.0,-5.0,1651070782298881.0
0.0,8.0,18.0,-11.0,-2.0,0.0,-4.0,-35.0,1651070782298881.0
1.0,13.0,9.0,2.0,-2.0,-1.0,-3.0,25.0,1651070782313666.0
-2.0,9.0,11.0,16.0,-3.0,-5.0,-5.0,-20.0,1651070782313666.0
3.0,-9.0,-23.0,7.0,15.0,8.0,3.0,5.0,1651070782315620.0
4.0,5.0,15.0,-26.0,-11.0,-3.0,9.0,25.0,1651070782315620.0
-3.0,0.0,-18.0,-10.0,-4.0,-2.0,-4.0,-23.0,1651070782336547.0
-3.0,-22.0,-8.0,-10.0,-2.0,1.0,3.0,7.0,1651070782336547.0
1.0,13.0,15.0,20.0,4.0,-2.0,-7.0,-2.0,1651070782337545.0
-6.0,11.0,-12.0,-17.0,-6.0,-2.0,-3.0,-8.0,1651070782337545.0
3.0,-10.0,4.0,8.0,6.0,3.0,3.0,4.0,1651070782349503.0
-2.0,6.0,17.0,-2.0,8.0,1.0,0.0,-8.0,1651070782349503.0
3.0,-6.0,0.0,15.0,-2.0,-2.0,-1.0,-1.0,1651070782364545.0
0.0,-6.0,-2.0,1.0,-3.0,0.0,-2.0,13.0,1651070782364545.0
1.0,10.0,11.0,2.0,0.0,0.0,1.0,-4.0,1651070782373590.0
0.0,1.0,0.0,-6.0,-1.0,2.0,0.0,-1.0,1651070782373590.0
7.0,8.0,-6.0,-18.0,-4.0,-2.0,-3.0,-11.0,1651070782375521.0
-15.0,-18.0,-4.0,-7.0,-8.0,-3.0,-4.0,6.0,1651070782375521.0
1.0,0.0,-5.0,6.0,3.0,3.0,13.0,27.0,1651070782396632.0
6.0,12.0,5.0,5.0,5.0,3.0,-1.0,-5.0,1651070782396632.0
4.0,-8.0,36.0,37.0,2.0,0.0,2.0,12.0,1651070782397602.0
-3.0,-10.0,-40.0,-54.0,-5.0,-3.0,-4.0,-19.0,1651070782397602.0
-4.0,-9.0,6.0,7.0,-6.0,-3.0,-6.0,-14.0,1651070782409683.0
-5.0,0.0,-9.0,-12.0,-7.0,0.0,-1.0,5.0,1651070782409683.0
-4.0,3.0,11.0,13.0,-1.0,-1.0,0.0,1.0,1651070782418637.0
-3.0,-8.0,2.0,21.0,3.0,3.0,1.0,-18.0,1651070782418637.0
9.0,14.0,14.0,-7.0,0.0,-1.0,2.0,14.0,1651070782433813.0
0.0,-6.0,-3.0,8.0,-3.0,-2.0,1.0,6.0,1651070782433813.0
0.0,-2.0,-8.0,-27.0,3.0,0.0,-5.0,-8.0,1651070782434744.0
-4.0,-8.0,1.0,15.0,-4.0,2.0,3.0,7.0,1651070782434744.0
0.0,-5.0,-13.0,1.0,-4.0,-6.0,-5.0,-12.0,1651070782455904.0
-2.0,2.0,14.0,4.0,6.0,3.0,-4.0,-11.0,1651070782455904.0
1.0,3.0,0.0,2.0,0.0,-2.0,-1.0,17.0,1651070782457859.0
4.0,-6.0,-7.0,-1.0,-2.0,0.0,3.0,10.0,1651070782457859.0
-1.0,4.0,-10.0,-26.0,-6.0,-4.0,-3.0,-11.0,1651070782469867.0
-6.0,-1.0,-7.0,8.0,-4.0,-3.0,-1.0,1.0,1651070782469867.0
-4.0,-4.0,-6.0,-11.0,-15.0,-2.0,1.0,-13.0,1651070782478785.0
15.0,20.0,-3.0,8.0,10.0,-1.0,0.0,19.0,1651070782478785.0
-3.0,-18.0,-13.0,21.0,19.0,5.0,-2.0,-11.0,1651070782493875.0
-2.0,5.0,2.0,-4.0,-3.0,1.0,-1.0,-5.0,1651070782493875.0
2.0,-3.0,-20.0,-19.0,-2.0,-2.0,-1.0,0.0,1651070782494875.0
-18.0,-7.0,5.0,4.0,-10.0,-4.0,-2.0,-2.0,1651070782494875.0
3.0,11.0,6.0,6.0,-5.0,-1.0,1.0,-3.0,1651070782515704.0
1.0,1.0,5.0,-3.0,4.0,3.0,1.0,5.0,1651070782515704.0
-2.0,0.0,-4.0,1.0,-6.0,-5.0,-3.0,-10.0,1651070782517687.0
3.0,-8.0,3.0,11.0,4.0,0.0,-2.0,-3.0,1651070782517687.0
-3.0,4.0,11.0,-2.0,-7.0,-2.0,-4.0,10.0,1651070782538862.0
2.0,3.0,-10.0,-5.0,1.0,-3.0,3.0,4.0,1651070782538862.0
0.0,-3.0,2.0,8.0,8.0,3.0,3.0,-1.0,1651070782539844.0
-5.0,-10.0,-13.0,-17.0,-3.0,-3.0,-4.0,-10.0,1651070782539844.0
-9.0,-5.0,13.0,20.0,-4.0,-2.0,-3.0,-14.0,1651070782554059.0
7.0,4.0,-10.0,-6.0,0.0,0.0,1.0,0.0,1651070782554059.0
4.0,5.0,13.0,17.0,-4.0,-5.0,4.0,33.0,1651070782555661.0
0.0,1.0,1.0,-6.0,-1.0,-2.0,-2.0,-2.0,1651070782555661.0
1.0,-2.0,1.0,-8.0,-3.0,1.0,0.0,2.0,1651070782576632.0
-5.0,-2.0,4.0,5.0,-5.0,-4.0,-1.0,-9.0,1651070782576632.0
-4.0,-6.0,5.0,14.0,3.0,0.0,-1.0,-9.0,1651070782577630.0
4.0,1.0,-2.0,-6.0,3.0,3.0,3.0,11.0,1651070782577630.0
-1.0,4.0,-12.0,-25.0,-7.0,-3.0,-4.0,-11.0,1651070782589711.0
-5.0,-6.0,0.0,-7.0,0.0,-2.0,0.0,10.0,1651070782589711.0
-10.0,-3.0,-3.0,7.0,3.0,2.0,-3.0,-19.0,1651070782598690.0
13.0,13.0,10.0,15.0,-13.0,-5.0,2.0,18.0,1651070782598690.0
2.0,0.0,3.0,9.0,10.0,8.0,3.0,2.0,1651070782613736.0
-2.0,-4.0,1.0,-4.0,9.0,-2.0,0.0,0.0,1651070782613736.0
-7.0,-10.0,-16.0,-13.0,-5.0,0.0,-3.0,-2.0,1651070782614733.0
-4.0,-1.0,1.0,4.0,-6.0,-6.0,-3.0,-10.0,1651070782614733.0
-4.0,-2.0,5.0,2.0,-4.0,-2.0,-1.0,-2.0,1651070782643805.0
5.0,-1.0,-2.0,-2.0,-5.0,0.0,2.0,5.0,1651070782643805.0
4.0,2.0,4.0,13.0,-2.0,-1.0,3.0,6.0,1651070782644736.0
1.0,-2.0,2.0,-14.0,7.0,3.0,0.0,-3.0,1651070782644736.0
-1.0,1.0,-8.0,-6.0,-2.0,-2.0,0.0,8.0,1651070782649753.0
-5.0,-6.0,11.0,32.0,0.0,0.0,0.0,-7.0,1651070782649753.0
-1.0,3.0,-12.0,-28.0,1.0,-2.0,0.0,-3.0,1651070782658698.0
-1.0,-4.0,-2.0,-12.0,4.0,0.0,0.0,-1.0,1651070782658698.0
-2.0,-12.0,4.0,10.0,7.0,3.0,1.0,0.0,1651070782673802.0
-2.0,2.0,-3.0,1.0,-3.0,-2.0,-3.0,-4.0,1651070782673802.0
3.0,2.0,2.0,4.0,-3.0,-2.0,-1.0,8.0,1651070782674802.0
-1.0,-6.0,0.0,10.0,0.0,2.0,2.0,2.0,1651070782674802.0
6.0,4.0,1.0,-14.0,2.0,-1.0,-2.0,-3.0,1651070782695976.0
2.0,0.0,3.0,4.0,-3.0,1.0,1.0,1.0,1651070782695976.0
0.0,2.0,3.0,3.0,4.0,3.0,0.0,0.0,1651070782697903.0
2.0,-1.0,-3.0,-4.0,0.0,1.0,-1.0,-3.0,1651070782697903.0
1.0,-1.0,-13.0,-15.0,-7.0,-7.0,-1.0,2.0,1651070782719029.0
-3.0,-5.0,-8.0,-14.0,-3.0,0.0,1.0,-2.0,1651070782719029.0
-1.0,3.0,5.0,9.0,0.0,0.0,-1.0,-1.0,1651070782720010.0
-2.0,6.0,2.0,15.0,7.0,2.0,1.0,-1.0,1651070782720010.0
5.0,2.0,30.0,28.0,3.0,-2.0,0.0,3.0,1651070782733526.0
-19.0,-12.0,-23.0,-50.0,-10.0,-5.0,-4.0,-4.0,1651070782733526.0
1.0,2.0,-1.0,-8.0,-4.0,-4.0,-1.0,-2.0,1651070782735550.0
-1.0,-1.0,2.0,17.0,4.0,0.0,-1.0,-1.0,1651070782735550.0
0.0,0.0,-5.0,20.0,8.0,2.0,1.0,0.0,1651070782755753.0
-3.0,0.0,-1.0,-41.0,0.0,0.0,0.0,-1.0,1651070782755753.0
3.0,-2.0,4.0,15.0,3.0,1.0,1.0,1.0,1651070782757682.0
-4.0,-6.0,-4.0,0.0,-14.0,-5.0,-3.0,-5.0,1651070782757682.0
-5.0,2.0,-13.0,-33.0,-7.0,-4.0,-1.0,-2.0,1651070782778701.0
8.0,4.0,16.0,41.0,3.0,-1.0,-2.0,3.0,1651070782778701.0
-2.0,1.0,-8.0,-19.0,-1.0,2.0,1.0,-4.0,1651070782780650.0
3.0,6.0,12.0,16.0,17.0,6.0,1.0,1.0,1651070782780650.0
1.0,-7.0,5.0,21.0,4.0,1.0,-1.0,0.0,1651070782793994.0
2.0,-2.0,-5.0,-3.0,-2.0,3.0,0.0,3.0,1651070782793994.0
-5.0,0.0,11.0,-14.0,-11.0,-8.0,-4.0,-4.0,1651070782794923.0
4.0,-3.0,-15.0,-16.0,-13.0,-7.0,-2.0,-2.0,1651070782794923.0
-5.0,8.0,0.0,-9.0,12.0,5.0,1.0,0.0,1651070782816029.0
2.0,1.0,6.0,25.0,8.0,4.0,3.0,1.0,1651070782816029.0
-1.0,-4.0,-12.0,-19.0,-7.0,-2.0,-3.0,-1.0,1651070782817955.0
4.0,-7.0,-24.0,8.0,10.0,4.0,0.0,-1.0,1651070782817955.0
0.0,7.0,19.0,-2.0,-6.0,-3.0,1.0,-3.0,1651070782838707.0
2.0,-5.0,-10.0,-6.0,1.0,-1.0,0.0,0.0,1651070782838707.0
1.0,1.0,-10.0,-5.0,-9.0,-3.0,-2.0,0.0,1651070782840639.0
-7.0,-5.0,5.0,-30.0,-12.0,-7.0,-4.0,-3.0,1651070782840639.0
-2.0,-5.0,-19.0,-8.0,-9.0,-5.0,-2.0,-4.0,1651070782852727.0
0.0,6.0,7.0,17.0,-3.0,-2.0,-2.0,0.0,1651070782852727.0
-1.0,-3.0,-4.0,11.0,17.0,4.0,2.0,2.0,1651070782861664.0
-4.0,3.0,17.0,-6.0,1.0,3.0,-2.0,-1.0,1651070782861664.0
0.0,1.0,4.0,21.0,6.0,3.0,0.0,0.0,1651070782876550.0
3.0,4.0,1.0,-14.0,-5.0,-3.0,-3.0,-1.0,1651070782876550.0
-1.0,4.0,-1.0,1.0,-8.0,-2.0,1.0,-6.0,1651070782877567.0
0.0,0.0,9.0,-1.0,-6.0,-1.0,2.0,10.0,1651070782877567.0
0.0,2.0,7.0,2.0,2.0,0.0,-1.0,-1.0,1651070782898491.0
-1.0,1.0,-9.0,-10.0,-6.0,-1.0,-2.0,-1.0,1651070782898491.0
0.0,-1.0,8.0,42.0,13.0,2.0,0.0,2.0,1651070782900486.0
0.0,0.0,-7.0,-33.0,-3.0,-2.0,0.0,-5.0,1651070782900486.0
-14.0,-9.0,-8.0,-25.0,-13.0,-2.0,-4.0,0.0,1651070782912564.0
-1.0,1.0,19.0,-4.0,14.0,5.0,2.0,-2.0,1651070782912564.0
-3.0,-12.0,-30.0,0.0,-1.0,3.0,-1.0,1.0,1651070782919597.0
-3.0,-1.0,-12.0,11.0,-26.0,-13.0,-3.0,-4.0,1651070782919597.0
4.0,1.0,-2.0,7.0,24.0,9.0,4.0,2.0,1651070782936486.0
1.0,4.0,18.0,3.0,-13.0,-5.0,-1.0,-2.0,1651070782936486.0
4.0,11.0,4.0,5.0,19.0,12.0,2.0,3.0,1651070782937482.0
0.0,4.0,-1.0,-4.0,1.0,2.0,-1.0,0.0,1651070782937482.0
2.0,0.0,-13.0,-20.0,-12.0,-3.0,-1.0,-2.0,1651070782958908.0
0.0,5.0,2.0,25.0,0.0,-2.0,1.0,1.0,1651070782958908.0
0.0,-3.0,2.0,-13.0,-6.0,-3.0,-2.0,-2.0,1651070782959908.0
-2.0,-2.0,5.0,10.0,6.0,1.0,-1.0,-2.0,1651070782959908.0
0.0,-1.0,-2.0,-10.0,2.0,5.0,0.0,-4.0,1651070782973050.0
0.0,1.0,-2.0,3.0,-2.0,-3.0,-1.0,0.0,1651070782973050.0
2.0,2.0,12.0,13.0,-4.0,-2.0,0.0,-5.0,1651070782980038.0
-1.0,5.0,-2.0,-17.0,6.0,3.0,1.0,5.0,1651070782980038.0
-5.0,-15.0,-15.0,-8.0,-11.0,-7.0,-4.0,-4.0,1651070782995674.0
1.0,-2.0,-3.0,2.0,-1.0,-1.0,0.0,0.0,1651070782995674.0
-3.0,-1.0,4.0,-5.0,-3.0,-2.0,-2.0,0.0,1651070783003653.0
0.0,9.0,21.0,17.0,6.0,3.0,0.0,-1.0,1651070783003653.0
4.0,7.0,3.0,10.0,-4.0,-2.0,-1.0,1.0,1651070783018785.0
-2.0,-5.0,-11.0,-3.0,-2.0,-1.0,0.0,-2.0,1651070783018785.0
-3.0,-7.0,1.0,6.0,0.0,-3.0,-3.0,-2.0,1651070783019713.0
-2.0,-4.0,1.0,-7.0,-2.0,1.0,1.0,-2.0,1651070783019713.0
-1.0,9.0,5.0,7.0,-5.0,-4.0,-2.0,-1.0,1651070783032859.0
0.0,-11.0,-17.0,-25.0,1.0,1.0,0.0,-2.0,1651070783032859.0
-1.0,1.0,1.0,3.0,3.0,-2.0,0.0,3.0,1651070783040186.0
1.0,-2.0,-8.0,10.0,6.0,3.0,0.0,-1.0,1651070783040186.0
1.0,-7.0,-3.0,-13.0,-16.0,-4.0,2.0,-2.0,1651070783056754.0
0.0,6.0,-7.0,-1.0,-11.0,-5.0,-1.0,0.0,1651070783056754.0
2.0,1.0,-2.0,-7.0,0.0,-2.0,0.0,1.0,1651070783058708.0
-1.0,-2.0,6.0,4.0,11.0,1.0,1.0,-1.0,1651070783058708.0
-3.0,2.0,6.0,-7.0,6.0,0.0,0.0,1.0,1651070783077883.0
-2.0,-3.0,10.0,29.0,-2.0,-3.0,-3.0,-3.0,1651070783077883.0
4.0,3.0,-6.0,-15.0,-4.0,7.0,2.0,5.0,1651070783085806.0
0.0,-3.0,-6.0,5.0,-4.0,-3.0,-2.0,5.0,1651070783085806.0
2.0,4.0,-2.0,-4.0,4.0,2.0,-1.0,-1.0,1651070783092776.0
-2.0,-2.0,-3.0,-8.0,-5.0,-4.0,-2.0,0.0,1651070783092776.0
-7.0,-2.0,4.0,-6.0,-3.0,-4.0,0.0,-5.0,1651070783099824.0
-1.0,-2.0,0.0,9.0,1.0,3.0,-2.0,-3.0,1651070783099824.0
0.0,0.0,-4.0,13.0,-3.0,-3.0,-1.0,3.0,1651070783115884.0
0.0,-6.0,10.0,2.0,12.0,6.0,3.0,0.0,1651070783115884.0
-2.0,-11.0,-24.0,-31.0,-23.0,-8.0,-3.0,-3.0,1651070783117839.0
-4.0,-8.0,-1.0,21.0,15.0,0.0,-1.0,-3.0,1651070783117839.0
0.0,-5.0,2.0,3.0,7.0,4.0,1.0,1.0,1651070783139752.0
1.0,5.0,-1.0,3.0,-2.0,0.0,-3.0,0.0,1651070783139752.0
1.0,5.0,6.0,3.0,3.0,0.0,2.0,2.0,1651070783140766.0
0.0,-2.0,-5.0,-12.0,-12.0,-7.0,-1.0,0.0,1651070783140766.0
2.0,2.0,3.0,5.0,-3.0,-1.0,1.0,-4.0,1651070783152745.0
1.0,7.0,-8.0,-4.0,4.0,2.0,0.0,0.0,1651070783152745.0
-4.0,-9.0,7.0,3.0,0.0,-2.0,0.0,1.0,1651070783159727.0
1.0,3.0,-1.0,-2.0,-14.0,-1.0,-2.0,-4.0,1651070783159727.0
-1.0,-6.0,1.0,13.0,25.0,11.0,3.0,0.0,1651070783175738.0
2.0,1.0,-7.0,-11.0,-5.0,-4.0,-1.0,1.0,1651070783175738.0
0.0,2.0,10.0,4.0,11.0,3.0,2.0,-5.0,1651070783177666.0
0.0,0.0,-6.0,-6.0,3.0,-1.0,-1.0,3.0,1651070783177666.0
-1.0,-3.0,-3.0,-1.0,-10.0,-4.0,-1.0,-1.0,1651070783198776.0
-1.0,-3.0,-2.0,-1.0,-5.0,-2.0,-2.0,-2.0,1651070783198776.0
0.0,4.0,1.0,-2.0,-6.0,-1.0,-1.0,0.0,1651070783200800.0
1.0,1.0,2.0,1.0,-2.0,0.0,2.0,-4.0,1651070783200800.0
1.0,2.0,1.0,-3.0,-4.0,-2.0,1.0,1.0,1651070783212742.0
-4.0,-3.0,-3.0,-2.0,7.0,2.0,-1.0,2.0,1651070783212742.0
1.0,1.0,4.0,7.0,-4.0,-1.0,0.0,-2.0,1651070783221726.0
-1.0,1.0,-2.0,0.0,6.0,4.0,1.0,0.0,1651070783221726.0
-1.0,2.0,-6.0,-10.0,-13.0,-5.0,-2.0,0.0,1651070783235903.0
0.0,-7.0,14.0,9.0,8.0,2.0,1.0,1.0,1651070783235903.0
1.0,-1.0,-6.0,-15.0,14.0,4.0,0.0,2.0,1651070783237831.0
-1.0,-1.0,2.0,19.0,-1.0,-1.0,-2.0,-1.0,1651070783237831.0
0.0,0.0,-1.0,-4.0,-2.0,-3.0,0.0,-1.0,1651070783258668.0
-2.0,0.0,-14.0,-15.0,-11.0,-3.0,-1.0,-1.0,1651070783258668.0
0.0,3.0,-2.0,-7.0,-3.0,-2.0,-1.0,1.0,1651070783259671.0
-2.0,-5.0,-2.0,1.0,4.0,0.0,1.0,1.0,1651070783259671.0
-3.0,-3.0,9.0,-7.0,-10.0,-5.0,-3.0,-3.0,1651070783272710.0
1.0,4.0,8.0,6.0,3.0,1.0,2.0,1.0,1651070783272710.0
1.0,-1.0,-7.0,-5.0,4.0,-1.0,-2.0,-1.0,1651070783281605.0
-3.0,-4.0,-7.0,-11.0,-2.0,-2.0,-2.0,-4.0,1651070783281605.0
2.0,2.0,1.0,18.0,2.0,-2.0,-1.0,-1.0,1651070783296600.0
1.0,-1.0,15.0,7.0,-7.0,-4.0,0.0,6.0,1651070783296600.0
-1.0,1.0,-5.0,2.0,-5.0,6.0,1.0,-2.0,1651070783297567.0
1.0,-1.0,7.0,11.0,11.0,-1.0,0.0,2.0,1651070783297567.0
-1.0,4.0,4.0,-9.0,9.0,7.0,1.0,-1.0,1651070783318700.0
0.0,0.0,-7.0,-8.0,-3.0,-3.0,-1.0,-4.0,1651070783318700.0
-1.0,1.0,1.0,6.0,-5.0,-3.0,-1.0,1.0,1651070783320662.0
-2.0,-5.0,-2.0,-5.0,-8.0,-2.0,-1.0,-2.0,1651070783320662.0
-1.0,-4.0,-4.0,-13.0,0.0,-3.0,0.0,0.0,1651070783332740.0
0.0,-3.0,-4.0,19.0,3.0,4.0,0.0,-1.0,1651070783332740.0
-2.0,3.0,1.0,-11.0,-10.0,-3.0,-1.0,1.0,1651070783341760.0
0.0,-1.0,-7.0,-22.0,-5.0,-3.0,-1.0,-3.0,1651070783341760.0
-3.0,-8.0,-10.0,12.0,8.0,1.0,-4.0,-4.0,1651070783355782.0
-1.0,-9.0,3.0,5.0,1.0,0.0,-2.0,-1.0,1651070783355782.0
1.0,1.0,14.0,3.0,1.0,-4.0,0.0,-2.0,1651070783357716.0
-1.0,2.0,1.0,-7.0,-3.0,1.0,1.0,1.0,1651070783357716.0
-3.0,-5.0,-1.0,-6.0,-5.0,-1.0,3.0,0.0,1651070783378755.0
-2.0,1.0,-13.0,-1.0,0.0,-1.0,0.0,-2.0,1651070783378755.0
-2.0,-6.0,-1.0,7.0,3.0,2.0,-1.0,-1.0,1651070783380683.0
1.0,0.0,0.0,3.0,2.0,-1.0,0.0,-1.0,1651070783380683.0
0.0,4.0,0.0,1.0,-2.0,0.0,-2.0,1.0,1651070783392746.0
1.0,1.0,-1.0,-10.0,2.0,2.0,0.0,-8.0,1651070783392746.0
2.0,5.0,11.0,-5.0,2.0,-1.0,-1.0,7.0,1651070783400748.0
-3.0,-8.0,-9.0,12.0,-9.0,-3.0,-4.0,-3.0,1651070783400748.0
0.0,-3.0,2.0,13.0,4.0,0.0,2.0,1.0,1651070783415722.0
1.0,2.0,1.0,-9.0,3.0,0.0,-1.0,-1.0,1651070783415722.0
0.0,-3.0,-8.0,-9.0,-1.0,-1.0,-2.0,-4.0,1651070783417659.0
1.0,7.0,3.0,1.0,1.0,1.0,2.0,2.0,1651070783417659.0
2.0,1.0,1.0,-1.0,-7.0,-1.0,-1.0,1.0,1651070783439115.0
-1.0,-1.0,-3.0,-2.0,-3.0,-2.0,-1.0,-1.0,1651070783439115.0
-2.0,1.0,-3.0,9.0,1.0,-1.0,-2.0,-2.0,1651070783440117.0
-2.0,1.0,1.0,0.0,-1.0,1.0,1.0,0.0,1651070783440117.0
-1.0,-1.0,-5.0,-5.0,-3.0,-3.0,-2.0,-3.0,1651070783452150.0
-2.0,3.0,1.0,-8.0,-4.0,-2.0,-1.0,3.0,1651070783452150.0
-1.0,0.0,-3.0,24.0,-4.0,4.0,1.0,1.0,1651070783461059.0
-2.0,-2.0,14.0,-12.0,25.0,7.0,1.0,-1.0,1651070783461059.0
-1.0,-6.0,2.0,6.0,-4.0,-9.0,-4.0,-3.0,1651070783476685.0
3.0,2.0,-1.0,0.0,12.0,9.0,3.0,2.0,1651070783476685.0
-1.0,-1.0,0.0,-7.0,-11.0,-2.0,-1.0,-1.0,1651070783477682.0
1.0,1.0,0.0,4.0,-7.0,-3.0,0.0,0.0,1651070783477682.0
1.0,5.0,0.0,-5.0,-1.0,0.0,0.0,1.0,1651070783498774.0
-2.0,-3.0,-2.0,-2.0,-2.0,-3.0,-1.0,-2.0,1651070783498774.0
0.0,-5.0,-3.0,6.0,2.0,2.0,0.0,-1.0,1651070783500710.0
-1.0,1.0,-5.0,0.0,-5.0,-1.0,0.0,-3.0,1651070783500710.0
1.0,7.0,3.0,-4.0,-3.0,-1.0,0.0,2.0,1651070783512785.0
-4.0,-15.0,-11.0,-1.0,3.0,2.0,0.0,1.0,1651070783512785.0
-3.0,-1.0,-1.0,-1.0,5.0,-1.0,0.0,-1.0,1651070783521614.0
0.0,-1.0,-4.0,0.0,-5.0,-3.0,1.0,-7.0,1651070783521614.0
1.0,1.0,0.0,-6.0,-6.0,-3.0,0.0,5.0,1651070783535822.0
1.0,4.0,1.0,1.0,-1.0,-2.0,1.0,-2.0,1651070783535822.0
0.0,0.0,1.0,-3.0,3.0,-1.0,-1.0,2.0,1651070783537750.0
-1.0,-3.0,2.0,-3.0,-1.0,-2.0,-1.0,3.0,1651070783537750.0
-1.0,0.0,-3.0,2.0,1.0,-1.0,0.0,-2.0,1651070783558760.0
0.0,2.0,0.0,-3.0,-2.0,-3.0,0.0,1.0,1651070783558760.0
-1.0,-3.0,1.0,-1.0,1.0,-3.0,-1.0,0.0,1651070783560689.0
1.0,1.0,-2.0,5.0,-4.0,-1.0,-1.0,-1.0,1651070783560689.0
-2.0,-2.0,-1.0,-2.0,2.0,3.0,1.0,0.0,1651070783572709.0
-2.0,-1.0,-2.0,-2.0,-5.0,-5.0,-2.0,0.0,1651070783572709.0
0.0,-1.0,-2.0,-1.0,-1.0,0.0,1.0,-1.0,1651070783588718.0
-1.0,-1.0,1.0,3.0,3.0,5.0,-1.0,0.0,1651070783588718.0
-2.0,-1.0,-3.0,-11.0,0.0,2.0,-1.0,-3.0,1651070783595765.0
-1.0,3.0,7.0,12.0,-6.0,-3.0,-2.0,-1.0,1651070783595765.0
-1.0,0.0,-1.0,-1.0,1.0,1.0,0.0,-1.0,1651070783597695.0
1.0,-1.0,-8.0,-7.0,-8.0,-1.0,2.0,4.0,1651070783597695.0
-5.0,-13.0,-11.0,2.0,7.0,0.0,-1.0,0.0,1651070783618990.0
0.0,6.0,16.0,4.0,13.0,5.0,0.0,1.0,1651070783618990.0
0.0,0.0,3.0,-6.0,-1.0,0.0,-1.0,2.0,1651070783619920.0
-1.0,-1.0,-1.0,7.0,-5.0,-2.0,-5.0,-4.0,1651070783619920.0
2.0,3.0,-2.0,-9.0,-9.0,-2.0,-2.0,-2.0,1651070783640931.0
-1.0,0.0,-3.0,3.0,-8.0,-6.0,-2.0,-2.0,1651070783640931.0
0.0,-1.0,2.0,1.0,6.0,6.0,2.0,-5.0,1651070783642859.0
2.0,2.0,2.0,-10.0,3.0,4.0,0.0,9.0,1651070783642859.0
-1.0,1.0,-6.0,-3.0,-1.0,-2.0,2.0,-2.0,1651070783655891.0
1.0,-1.0,-6.0,1.0,-1.0,-1.0,1.0,1.0,1651070783655891.0
0.0,1.0,6.0,13.0,0.0,-3.0,0.0,-3.0,1651070783657819.0
-2.0,0.0,-4.0,-4.0,-9.0,-1.0,-1.0,-2.0,1651070783657819.0
1.0,2.0,5.0,-1.0,0.0,-1.0,-3.0,-1.0,1651070783678762.0
-3.0,-4.0,-7.0,-7.0,-2.0,0.0,-2.0,-1.0,1651070783678762.0
-2.0,-3.0,-1.0,-7.0,-4.0,-2.0,-2.0,0.0,1651070783679718.0
-1.0,-1.0,-2.0,6.0,9.0,-1.0,0.0,0.0,1651070783679718.0
2.0,4.0,6.0,4.0,-3.0,0.0,2.0,2.0,1651070783700781.0
1.0,-2.0,-14.0,-6.0,-5.0,-2.0,-1.0,-2.0,1651070783700781.0
0.0,-5.0,-1.0,-1.0,-4.0,-3.0,-4.0,-1.0,1651070783702709.0
-1.0,-2.0,8.0,4.0,4.0,0.0,-1.0,-2.0,1651070783702709.0
1.0,-1.0,-9.0,2.0,-1.0,0.0,-2.0,-1.0,1651070783715760.0
0.0,1.0,1.0,1.0,7.0,4.0,1.0,1.0,1651070783715760.0
0.0,1.0,3.0,-8.0,-4.0,-4.0,0.0,0.0,1651070783722719.0
-1.0,1.0,-1.0,1.0,-7.0,-4.0,-2.0,-2.0,1651070783722719.0
-2.0,2.0,4.0,-1.0,4.0,-1.0,-2.0,-4.0,1651070783739092.0
-2.0,-2.0,1.0,7.0,-6.0,-1.0,-1.0,-3.0,1651070783739092.0
-1.0,1.0,-4.0,0.0,0.0,-5.0,-1.0,-4.0,1651070783740091.0
0.0,0.0,5.0,-1.0,17.0,10.0,2.0,16.0,1651070783740091.0
-2.0,-4.0,-2.0,6.0,-6.0,-3.0,1.0,-3.0,1651070783760862.0
0.0,1.0,0.0,-8.0,-5.0,-4.0,0.0,2.0,1651070783760862.0
0.0,1.0,-1.0,5.0,-6.0,-4.0,-1.0,-3.0,1651070783762857.0
-2.0,1.0,1.0,-13.0,-6.0,-4.0,-2.0,-7.0,1651070783762857.0
-1.0,-4.0,-4.0,0.0,2.0,1.0,1.0,3.0,1651070783775889.0
0.0,1.0,1.0,-3.0,-1.0,0.0,-2.0,0.0,1651070783775889.0
0.0,-1.0,-5.0,3.0,6.0,8.0,0.0,0.0,1651070783777818.0
2.0,3.0,3.0,2.0,-6.0,-2.0,-2.0,-2.0,1651070783777818.0
-1.0,-4.0,1.0,0.0,0.0,1.0,-1.0,2.0,1651070783798701.0
-1.0,-7.0,1.0,-2.0,2.0,-1.0,3.0,-2.0,1651070783798701.0
-1.0,-1.0,-3.0,-17.0,-4.0,-1.0,-1.0,2.0,1651070783800635.0
-1.0,-5.0,-12.0,6.0,-5.0,-5.0,0.0,-3.0,1651070783800635.0
1.0,3.0,13.0,6.0,-4.0,0.0,0.0,1.0,1651070783820725.0
0.0,5.0,-13.0,-1.0,1.0,0.0,0.0,1.0,1651070783820725.0
-2.0,-4.0,5.0,-1.0,5.0,-1.0,-1.0,2.0,1651070783822722.0
0.0,3.0,2.0,-6.0,-2.0,-3.0,-2.0,-2.0,1651070783822722.0
-1.0,-5.0,-4.0,2.0,-2.0,-4.0,-1.0,-3.0,1651070783835755.0
0.0,1.0,8.0,0.0,-1.0,0.0,-2.0,-1.0,1651070783835755.0
-1.0,3.0,-6.0,5.0,-1.0,2.0,2.0,2.0,1651070783842713.0
-2.0,-1.0,-15.0,-11.0,-3.0,-2.0,-1.0,-5.0,1651070783842713.0
0.0,4.0,11.0,15.0,1.0,1.0,0.0,4.0,1651070783858802.0
0.0,-3.0,-2.0,-7.0,3.0,0.0,-3.0,0.0,1651070783858802.0
0.0,-1.0,0.0,7.0,-2.0,-5.0,-1.0,-2.0,1651070783864803.0
0.0,-2.0,5.0,3.0,5.0,6.0,1.0,-7.0,1651070783864803.0
0.0,-2.0,-4.0,-3.0,-3.0,-1.0,1.0,7.0,1651070783880903.0
-2.0,-3.0,-3.0,-9.0,-4.0,-2.0,-1.0,0.0,1651070783880903.0
-1.0,-1.0,0.0,7.0,-5.0,-7.0,-2.0,-1.0,1651070783882900.0
2.0,1.0,7.0,-8.0,14.0,12.0,3.0,-6.0,1651070783882900.0
0.0,-1.0,-2.0,5.0,0.0,-1.0,0.0,3.0,1651070783895893.0
-1.0,7.0,4.0,3.0,0.0,-2.0,-1.0,0.0,1651070783895893.0
1.0,-5.0,-3.0,-4.0,-5.0,-2.0,1.0,0.0,1651070783902768.0
1.0,0.0,-18.0,-5.0,-17.0,-9.0,-5.0,-3.0,1651070783902768.0
-1.0,-1.0,16.0,0.0,10.0,-1.0,-1.0,-5.0,1651070783918932.0
-1.0,-1.0,-6.0,3.0,2.0,0.0,0.0,0.0,1651070783918932.0
0.0,4.0,0.0,-3.0,-10.0,-2.0,-2.0,0.0,1651070783919928.0
-2.0,-3.0,-8.0,0.0,3.0,1.0,2.0,3.0,1651070783919928.0
0.0,1.0,-7.0,-9.0,-3.0,-2.0,-2.0,-2.0,1651070783941025.0
0.0,0.0,4.0,3.0,-4.0,0.0,-1.0,1.0,1651070783941025.0
0.0,1.0,9.0,-8.0,4.0,0.0,0.0,-2.0,1651070783943049.0
-4.0,-7.0,1.0,26.0,-9.0,-5.0,3.0,2.0,1651070783943049.0
1.0,9.0,-1.0,-18.0,1.0,-2.0,1.0,-1.0,1651070783955811.0
-1.0,-7.0,-3.0,3.0,1.0,0.0,0.0,-1.0,1651070783955811.0
0.0,-1.0,-3.0,-3.0,4.0,1.0,0.0,1.0,1651070783962724.0
2.0,2.0,12.0,-3.0,-3.0,2.0,-1.0,2.0,1651070783962724.0
-1.0,-4.0,-7.0,0.0,0.0,-1.0,-2.0,-3.0,1651070783978717.0
1.0,-1.0,0.0,-1.0,-8.0,-3.0,-1.0,-3.0,1651070783978717.0
0.0,1.0,-14.0,-3.0,13.0,7.0,0.0,1.0,1651070783980711.0
0.0,0.0,2.0,-4.0,-9.0,-7.0,-3.0,-1.0,1651070783980711.0
-1.0,2.0,2.0,8.0,7.0,3.0,-1.0,-3.0,1651070784008891.0
-4.0,-10.0,10.0,-5.0,-4.0,-3.0,-1.0,1.0,1651070784008891.0
-2.0,-7.0,-11.0,0.0,-4.0,-2.0,-2.0,1.0,1651070784009857.0
-2.0,-4.0,-4.0,0.0,5.0,-1.0,1.0,0.0,1651070784009857.0
-1.0,0.0,-7.0,-3.0,-5.0,-1.0,-4.0,-4.0,1651070784015840.0
2.0,2.0,6.0,-6.0,-3.0,0.0,-1.0,1.0,1651070784015840.0
-1.0,2.0,12.0,19.0,1.0,0.0,0.0,0.0,1651070784021824.0
-1.0,0.0,-6.0,-14.0,-2.0,-2.0,-3.0,1.0,1651070784021824.0
-1.0,-1.0,2.0,-3.0,-3.0,0.0,3.0,-5.0,1651070784038910.0
-2.0,-5.0,-4.0,4.0,6.0,2.0,-1.0,5.0,1651070784038910.0
0.0,0.0,-1.0,0.0,-1.0,-2.0,-1.0,-2.0,1651070784039840.0
0.0,-5.0,8.0,7.0,4.0,-1.0,1.0,2.0,1651070784039840.0
-1.0,-3.0,-5.0,-2.0,-2.0,1.0,-1.0,-3.0,1651070784061019.0
-3.0,3.0,-1.0,-2.0,0.0,2.0,0.0,1.0,1651070784061019.0
-2.0,-4.0,0.0,-4.0,-7.0,-5.0,-1.0,4.0,1651070784062929.0
0.0,4.0,-7.0,-2.0,3.0,1.0,-2.0,-2.0,1651070784062929.0
-1.0,-2.0,7.0,-2.0,2.0,-1.0,0.0,0.0,1651070784075986.0
0.0,0.0,-7.0,3.0,0.0,-2.0,-1.0,-7.0,1651070784075986.0
-1.0,-1.0,-2.0,-3.0,4.0,4.0,1.0,-1.0,1651070784081945.0
-2.0,-2.0,6.0,2.0,1.0,0.0,-1.0,0.0,1651070784081945.0
-1.0,0.0,-5.0,-1.0,-2.0,-1.0,-3.0,-5.0,1651070784098725.0
2.0,5.0,7.0,-1.0,-1.0,-2.0,-2.0,-3.0,1651070784098725.0
-1.0,-3.0,0.0,-5.0,-5.0,-1.0,0.0,-1.0,1651070784100652.0
-1.0,-3.0,-4.0,1.0,11.0,3.0,-2.0,-1.0,1651070784100652.0
-9.0,-5.0,2.0,3.0,3.0,-2.0,-3.0,-12.0,1651070784120662.0
0.0,-2.0,-12.0,-17.0,-11.0,0.0,-1.0,-12.0,1651070784120662.0
10.0,1.0,4.0,2.0,-3.0,2.0,4.0,16.0,1651070784122589.0
3.0,7.0,8.0,12.0,2.0,-3.0,5.0,21.0,1651070784122589.0
2.0,-6.0,-7.0,4.0,-1.0,0.0,4.0,8.0,1651070784134626.0
0.0,-3.0,7.0,-3.0,2.0,-4.0,-4.0,1.0,1651070784134626.0
-6.0,4.0,-17.0,-11.0,-4.0,-1.0,-4.0,-18.0,1651070784143575.0
-4.0,5.0,8.0,-7.0,-17.0,-7.0,-5.0,-21.0,1651070784143575.0
-4.0,-7.0,-4.0,-1.0,-3.0,1.0,-3.0,3.0,1651070784159113.0
1.0,5.0,-4.0,9.0,7.0,3.0,0.0,9.0,1651070784159113.0
0.0,4.0,3.0,-7.0,2.0,1.0,-1.0,-3.0,1651070784160128.0
-2.0,-8.0,-7.0,6.0,0.0,-3.0,0.0,5.0,1651070784160128.0
-3.0,3.0,3.0,-10.0,-12.0,-9.0,-3.0,-5.0,1651070784180860.0
1.0,6.0,17.0,16.0,3.0,8.0,4.0,-3.0,1651070784180860.0
1.0,-5.0,-9.0,-1.0,4.0,0.0,-3.0,12.0,1651070784182857.0
1.0,-3.0,-1.0,9.0,3.0,1.0,-1.0,-1.0,1651070784182857.0
3.0,0.0,-7.0,-8.0,-6.0,-3.0,-1.0,3.0,1651070784194940.0
0.0,-7.0,4.0,8.0,4.0,-2.0,0.0,-2.0,1651070784194940.0
-6.0,-5.0,2.0,-4.0,-2.0,-5.0,-3.0,-4.0,1651070784203941.0
-2.0,5.0,6.0,-7.0,-1.0,3.0,1.0,-6.0,1651070784203941.0
2.0,-7.0,-8.0,-12.0,2.0,-2.0,-1.0,3.0,1651070784218903.0
1.0,6.0,2.0,13.0,10.0,10.0,3.0,8.0,1651070784218903.0
-3.0,-2.0,-10.0,4.0,-3.0,-5.0,-1.0,-13.0,1651070784219901.0
-2.0,-5.0,-5.0,-7.0,-8.0,-1.0,-6.0,1.0,1651070784219901.0
3.0,6.0,10.0,5.0,6.0,1.0,3.0,14.0,1651070784241109.0
-2.0,0.0,-4.0,-6.0,-8.0,-1.0,-2.0,-7.0,1651070784241109.0
2.0,2.0,4.0,-5.0,-4.0,-5.0,-3.0,-4.0,1651070784243137.0
1.0,-2.0,1.0,-6.0,2.0,2.0,2.0,-3.0,1651070784243137.0
-3.0,-1.0,-11.0,1.0,-4.0,0.0,-1.0,-4.0,1651070784255075.0
-4.0,-5.0,-2.0,-2.0,-18.0,-6.0,-2.0,-3.0,1651070784255075.0
0.0,4.0,5.0,7.0,7.0,1.0,-3.0,-3.0,1651070784264024.0
-2.0,2.0,7.0,3.0,-1.0,-4.0,-1.0,-2.0,1651070784264024.0
3.0,12.0,21.0,5.0,8.0,4.0,3.0,8.0,1651070784278772.0
1.0,-8.0,-24.0,-9.0,-2.0,-7.0,-2.0,-3.0,1651070784278772.0
-6.0,-11.0,-2.0,-6.0,-6.0,1.0,-3.0,0.0,1651070784279768.0
5.0,-1.0,-11.0,13.0,-4.0,-9.0,-3.0,-9.0,1651070784279768.0
4.0,-2.0,9.0,-3.0,7.0,8.0,5.0,11.0,1651070784301052.0
-5.0,-3.0,0.0,1.0,6.0,4.0,2.0,-5.0,1651070784301052.0
-2.0,8.0,-2.0,-12.0,-5.0,-2.0,-3.0,-1.0,1651070784315833.0
-2.0,-8.0,10.0,2.0,-3.0,0.0,1.0,3.0,1651070784315833.0
7.0,-2.0,-16.0,-11.0,-6.0,0.0,3.0,-8.0,1651070784315833.0
2.0,4.0,4.0,-7.0,-10.0,-10.0,-4.0,8.0,1651070784315833.0
-2.0,5.0,-1.0,1.0,0.0,-1.0,2.0,-1.0,1651070784323758.0
1.0,5.0,-2.0,-3.0,4.0,-1.0,1.0,12.0,1651070784323758.0
-7.0,3.0,14.0,6.0,3.0,1.0,1.0,-7.0,1651070784338861.0
0.0,22.0,11.0,-2.0,4.0,4.0,4.0,0.0,1651070784338861.0
2.0,-36.0,-8.0,9.0,-1.0,-5.0,-2.0,-1.0,1651070784339792.0
-3.0,3.0,-15.0,-9.0,-1.0,-2.0,-2.0,-4.0,1651070784339792.0
0.0,-5.0,3.0,-2.0,-7.0,-3.0,-5.0,-3.0,1651070784360881.0
-6.0,1.0,-8.0,-3.0,1.0,1.0,0.0,-1.0,1651070784360881.0
2.0,-1.0,6.0,-4.0,0.0,1.0,0.0,-13.0,1651070784362810.0
9.0,25.0,3.0,-1.0,2.0,5.0,6.0,15.0,1651070784362810.0
-13.0,-9.0,-4.0,12.0,0.0,2.0,0.0,0.0,1651070784374844.0
-13.0,-12.0,-4.0,-7.0,-2.0,-6.0,-6.0,-12.0,1651070784374844.0
4.0,5.0,22.0,-4.0,1.0,5.0,4.0,6.0,1651070784389853.0
5.0,-31.0,-54.0,-33.0,-7.0,2.0,0.0,-4.0,1651070784389853.0
25.0,34.0,-6.0,29.0,7.0,1.0,5.0,12.0,1651070784397866.0
-14.0,-19.0,10.0,34.0,0.0,-5.0,-6.0,-4.0,1651070784397866.0
5.0,20.0,4.0,5.0,1.0,-1.0,-2.0,1.0,1651070784404841.0
3.0,-13.0,7.0,1.0,0.0,-3.0,-1.0,-2.0,1651070784404841.0
21.0,16.0,0.0,-8.0,0.0,4.0,6.0,11.0,1651070784421952.0
15.0,3.0,-9.0,-24.0,-3.0,-1.0,2.0,6.0,1651070784421952.0
-53.0,-8.0,-9.0,11.0,2.0,1.0,-4.0,-7.0,1651070784422882.0
-18.0,-7.0,19.0,-7.0,-2.0,2.0,-2.0,-5.0,1651070784422882.0
12.0,1.0,18.0,-2.0,-1.0,-1.0,-6.0,-10.0,1651070784434916.0
3.0,27.0,-15.0,0.0,4.0,1.0,-2.0,-9.0,1651070784434916.0
21.0,3.0,-20.0,-11.0,-1.0,3.0,10.0,21.0,1651070784443882.0
-1.0,4.0,-1.0,15.0,0.0,-3.0,0.0,-4.0,1651070784443882.0
-66.0,-25.0,11.0,-1.0,-2.0,-2.0,-6.0,-7.0,1651070784459038.0
0.0,22.0,22.0,21.0,11.0,2.0,-9.0,-16.0,1651070784459038.0
22.0,-17.0,3.0,4.0,5.0,3.0,3.0,9.0,1651070784459968.0
11.0,0.0,-19.0,-11.0,-9.0,1.0,8.0,16.0,1651070784459968.0
4.0,-1.0,19.0,-5.0,-10.0,-7.0,-5.0,-4.0,1651070784480862.0
-4.0,-8.0,-18.0,-26.0,-6.0,-4.0,-7.0,-18.0,1651070784480862.0
-47.0,5.0,-16.0,12.0,5.0,1.0,-2.0,-1.0,1651070784482859.0
2.0,1.0,23.0,-1.0,0.0,0.0,-5.0,-6.0,1651070784482859.0
1.0,-13.0,0.0,-1.0,-2.0,1.0,2.0,5.0,1651070784494793.0
-26.0,-4.0,-12.0,11.0,-8.0,-2.0,4.0,9.0,1651070784494793.0
39.0,-2.0,17.0,4.0,3.0,2.0,2.0,3.0,1651070784503477.0
-4.0,13.0,2.0,12.0,8.0,-5.0,-12.0,-13.0,1651070784503477.0
8.0,37.0,23.0,-7.0,2.0,0.0,-2.0,-4.0,1651070784517813.0
31.0,-31.0,-24.0,-14.0,-4.0,-7.0,-3.0,6.0,1651070784517813.0
-27.0,-16.0,16.0,-3.0,-5.0,-2.0,-1.0,-11.0,1651070784524861.0
-35.0,-6.0,-43.0,-15.0,-8.0,-1.0,-9.0,-23.0,1651070784524861.0
24.0,-4.0,7.0,8.0,1.0,0.0,-1.0,6.0,1651070784540859.0
23.0,20.0,16.0,8.0,5.0,6.0,13.0,16.0,1651070784540859.0
25.0,-16.0,7.0,-3.0,-5.0,-3.0,-4.0,-1.0,1651070784542788.0
-47.0,9.0,15.0,6.0,4.0,1.0,-5.0,-7.0,1651070784542788.0
19.0,8.0,24.0,6.0,-3.0,0.0,3.0,9.0,1651070784554825.0
32.0,5.0,-59.0,-21.0,4.0,11.0,18.0,34.0,1651070784554825.0
28.0,12.0,-17.0,2.0,5.0,-5.0,-1.0,-8.0,1651070784563441.0
3.0,17.0,22.0,10.0,6.0,5.0,3.0,-3.0,1651070784563441.0
-16.0,-26.0,-25.0,-1.0,-5.0,-3.0,-12.0,-35.0,1651070784586585.0
3.0,-25.0,15.0,-2.0,-15.0,-6.0,-4.0,10.0,1651070784586585.0
7.0,10.0,14.0,10.0,0.0,0.0,5.0,30.0,1651070784587532.0
-8.0,-15.0,-3.0,-2.0,-2.0,-2.0,2.0,3.0,1651070784587532.0
-20.0,2.0,-14.0,9.0,4.0,-5.0,-2.0,0.0,1651070784601493.0
-6.0,-11.0,30.0,-1.0,34.0,19.0,5.0,-11.0,1651070784601493.0
-32.0,10.0,-28.0,-11.0,-22.0,-16.0,-12.0,-18.0,1651070784602487.0
30.0,6.0,13.0,3.0,-4.0,4.0,5.0,8.0,1651070784602487.0
-7.0,-16.0,9.0,2.0,-4.0,-5.0,-1.0,-6.0,1651070784623880.0
-12.0,8.0,-15.0,-1.0,-9.0,-6.0,-7.0,-19.0,1651070784623880.0
9.0,6.0,-12.0,5.0,7.0,6.0,1.0,19.0,1651070784624811.0
11.0,23.0,22.0,6.0,-5.0,-3.0,0.0,3.0,1651070784624811.0
1.0,12.0,4.0,1.0,-11.0,-3.0,-3.0,-1.0,1651070784637776.0
-5.0,-2.0,24.0,4.0,6.0,0.0,0.0,0.0,1651070784637776.0
-10.0,-18.0,-25.0,-23.0,-6.0,-2.0,-4.0,-28.0,1651070784644824.0
-9.0,12.0,15.0,3.0,3.0,1.0,-6.0,0.0,1651070784644824.0
-6.0,-81.0,-40.0,-1.0,11.0,5.0,8.0,37.0,1651070784661657.0
10.0,25.0,15.0,-4.0,-7.0,-5.0,-2.0,8.0,1651070784661657.0
-8.0,-11.0,15.0,-1.0,4.0,3.0,2.0,-10.0,1651070784662658.0
19.0,0.0,-18.0,-10.0,-4.0,0.0,1.0,0.0,1651070784662658.0
0.0,37.0,9.0,17.0,10.0,5.0,0.0,-13.0,1651070784684728.0
-19.0,-17.0,-9.0,-18.0,-24.0,-9.0,-8.0,-12.0,1651070784684728.0
12.0,26.0,18.0,-1.0,12.0,3.0,9.0,43.0,1651070784686729.0
0.0,-41.0,-1.0,8.0,11.0,2.0,-2.0,-12.0,1651070784686729.0
27.0,45.0,1.0,-1.0,-5.0,5.0,6.0,17.0,1651070784698758.0
-10.0,5.0,-25.0,-6.0,-6.0,-13.0,-7.0,-21.0,1651070784698758.0
9.0,-10.0,-1.0,-11.0,-13.0,-8.0,-9.0,-9.0,1651070784704703.0
-5.0,-19.0,-20.0,3.0,8.0,-2.0,1.0,9.0,1651070784704703.0
4.0,8.0,8.0,-17.0,-15.0,-2.0,3.0,4.0,1651070784721432.0
0.0,-7.0,3.0,-12.0,4.0,2.0,0.0,-3.0,1651070784721432.0
-14.0,-31.0,2.0,17.0,-2.0,-2.0,-6.0,-13.0,1651070784722374.0
9.0,6.0,-9.0,-6.0,-5.0,-1.0,3.0,7.0,1651070784722374.0
-19.0,16.0,-5.0,-9.0,-11.0,-7.0,-9.0,-36.0,1651070784743446.0
8.0,-40.0,7.0,18.0,6.0,4.0,5.0,24.0,1651070784743446.0
4.0,42.0,10.0,-2.0,1.0,0.0,1.0,4.0,1651070784745469.0
-4.0,-10.0,-24.0,-17.0,2.0,1.0,-1.0,-7.0,1651070784745469.0
-2.0,-5.0,4.0,17.0,6.0,0.0,-1.0,-3.0,1651070784758408.0
-11.0,20.0,-1.0,-3.0,-5.0,-3.0,-2.0,3.0,1651070784758408.0
-7.0,-2.0,0.0,-6.0,-2.0,5.0,1.0,-3.0,1651070784764459.0
5.0,1.0,9.0,15.0,-5.0,3.0,1.0,-1.0,1651070784764459.0
0.0,-22.0,-23.0,-17.0,5.0,1.0,-1.0,14.0,1651070784781510.0
-5.0,-6.0,39.0,-1.0,2.0,3.0,2.0,-6.0,1651070784781510.0
-22.0,-22.0,-51.0,11.0,0.0,-2.0,-2.0,-8.0,1651070784782510.0
5.0,24.0,19.0,-26.0,-4.0,-7.0,2.0,5.0,1651070784782510.0
-6.0,23.0,-8.0,6.0,4.0,4.0,-3.0,3.0,1651070784803855.0
-4.0,-23.0,-22.0,-1.0,-2.0,-1.0,2.0,-4.0,1651070784803855.0
14.0,17.0,26.0,9.0,-1.0,0.0,-7.0,-17.0,1651070784804828.0
7.0,7.0,9.0,-2.0,9.0,8.0,4.0,7.0,1651070784804828.0
-14.0,-29.0,-12.0,-3.0,-6.0,-6.0,-1.0,-10.0,1651070784817805.0
-1.0,47.0,19.0,15.0,12.0,4.0,2.0,-8.0,1651070784817805.0
5.0,-59.0,0.0,0.0,8.0,2.0,0.0,30.0,1651070784824839.0
6.0,9.0,-52.0,-6.0,-8.0,-5.0,-2.0,-5.0,1651070784824839.0
-6.0,-40.0,-13.0,-16.0,-1.0,-5.0,-3.0,-2.0,1651070784841617.0
-9.0,8.0,-3.0,-1.0,-8.0,-4.0,-2.0,-20.0,1651070784841617.0
0.0,7.0,16.0,-1.0,0.0,0.0,1.0,0.0,1651070784842621.0
-3.0,9.0,19.0,27.0,1.0,0.0,0.0,8.0,1651070784842621.0
11.0,-9.0,-9.0,-38.0,-8.0,3.0,3.0,1.0,1651070784863673.0
-7.0,7.0,-10.0,26.0,13.0,-1.0,-4.0,0.0,1651070784863673.0
-15.0,-6.0,22.0,27.0,3.0,-1.0,-3.0,-17.0,1651070784865666.0
4.0,12.0,0.0,-15.0,-1.0,-4.0,-3.0,0.0,1651070784865666.0
-5.0,-2.0,-9.0,-3.0,-4.0,-3.0,0.0,-2.0,1651070784877702.0
-6.0,-23.0,10.0,-11.0,-3.0,0.0,1.0,6.0,1651070784877702.0
17.0,36.0,1.0,-14.0,-1.0,0.0,2.0,6.0,1651070784884624.0
-6.0,-12.0,36.0,47.0,10.0,3.0,4.0,-2.0,1651070784884624.0
8.0,1.0,-29.0,-26.0,-11.0,-8.0,-2.0,5.0,1651070784900832.0
0.0,-4.0,-30.0,-11.0,-6.0,0.0,0.0,7.0,1651070784900832.0
-1.0,1.0,8.0,-21.0,-11.0,-4.0,-1.0,-4.0,1651070784902840.0
-8.0,-17.0,-10.0,12.0,-3.0,0.0,-5.0,-12.0,1651070784902840.0
4.0,-5.0,-5.0,-3.0,16.0,8.0,1.0,8.0,1651070784923868.0
13.0,38.0,23.0,41.0,5.0,2.0,6.0,8.0,1651070784923868.0
-2.0,17.0,-18.0,-36.0,-8.0,-5.0,-3.0,-22.0,1651070784924894.0
1.0,-15.0,17.0,4.0,2.0,2.0,4.0,17.0,1651070784924894.0
-1.0,-18.0,-19.0,3.0,6.0,3.0,2.0,2.0,1651070784945940.0
-6.0,-16.0,18.0,-1.0,-4.0,-2.0,-4.0,1.0,1651070784945940.0
-9.0,8.0,-23.0,0.0,3.0,1.0,1.0,-2.0,1651070784947868.0
-1.0,8.0,16.0,1.0,-3.0,-3.0,-3.0,-6.0,1651070784947868.0
6.0,4.0,-2.0,13.0,1.0,-1.0,-1.0,-11.0,1651070784960903.0
-6.0,-19.0,5.0,-17.0,-6.0,-4.0,0.0,18.0,1651070784960903.0
7.0,7.0,-9.0,15.0,-1.0,1.0,4.0,5.0,1651070784962911.0
-3.0,-21.0,-17.0,-20.0,-2.0,-3.0,-4.0,-3.0,1651070784962911.0
-2.0,17.0,17.0,-1.0,0.0,0.0,-1.0,-5.0,1651070784983749.0
0.0,-4.0,-10.0,-4.0,-3.0,-4.0,-6.0,-11.0,1651070784983749.0
8.0,-18.0,31.0,5.0,-2.0,1.0,5.0,15.0,1651070784985682.0
-9.0,-6.0,-7.0,2.0,-3.0,-1.0,-4.0,-9.0,1651070784985682.0
3.0,20.0,-5.0,-4.0,-2.0,-2.0,-1.0,-9.0,1651070784997711.0
-6.0,-22.0,-3.0,10.0,1.0,-2.0,0.0,6.0,1651070784997711.0
7.0,0.0,-11.0,-18.0,9.0,3.0,1.0,3.0,1651070785004692.0
-8.0,-4.0,6.0,16.0,0.0,-1.0,3.0,6.0,1651070785004692.0
-4.0,7.0,1.0,-4.0,-7.0,-3.0,-1.0,-5.0,1651070785029021.0
-3.0,-5.0,3.0,-5.0,-9.0,-4.0,-2.0,-2.0,1651070785029021.0
-13.0,-28.0,-24.0,6.0,-2.0,-2.0,0.0,-9.0,1651070785030027.0
10.0,3.0,6.0,-15.0,-3.0,3.0,-1.0,7.0,1651070785030027.0
-12.0,-17.0,-19.0,3.0,3.0,-3.0,-7.0,-24.0,1651070785044111.0
-20.0,21.0,5.0,-1.0,4.0,6.0,4.0,23.0,1651070785044111.0
5.0,-2.0,14.0,10.0,5.0,1.0,6.0,3.0,1651070785045111.0
17.0,30.0,-14.0,-2.0,3.0,-1.0,-3.0,-1.0,1651070785045111.0
