EMG_s0,EMG_s1,EMG_s2,EMG_s3,EMG_s4,EMG_s5,EMG_s6,EMG_s7,timestamp
-2.0,-1.0,-4.0,-3.0,-9.0,-5.0,-2.0,-2.0,1651072508007366.0
-1.0,0.0,4.0,0.0,2.0,-1.0,-1.0,-1.0,1651072508007366.0
1.0,-2.0,-2.0,-2.0,-5.0,-6.0,-1.0,1.0,1651072508009324.0
1.0,1.0,2.0,-1.0,8.0,4.0,-1.0,0.0,1651072508009324.0
-2.0,-1.0,-2.0,0.0,-1.0,2.0,-2.0,1.0,1651072508021438.0
-2.0,-2.0,-2.0,-2.0,-1.0,4.0,-1.0,0.0,1651072508021438.0
0.0,1.0,2.0,-2.0,0.0,-3.0,-2.0,0.0,1651072508028419.0
-2.0,-6.0,-9.0,-4.0,-8.0,-3.0,-2.0,-2.0,1651072508028419.0
-1.0,-5.0,-1.0,0.0,-1.0,-9.0,-4.0,-1.0,1651072508045362.0
-1.0,1.0,-1.0,2.0,6.0,13.0,0.0,0.0,1651072508045362.0
0.0,0.0,1.0,3.0,8.0,2.0,0.0,1.0,1651072508046361.0
1.0,0.0,2.0,-3.0,-2.0,-1.0,-1.0,-1.0,1651072508046361.0
1.0,1.0,0.0,-1.0,-9.0,0.0,0.0,0.0,1651072508067643.0
-1.0,-2.0,-2.0,-2.0,-7.0,-11.0,-1.0,-2.0,1651072508067643.0
-1.0,-2.0,-1.0,-1.0,4.0,3.0,0.0,-1.0,1651072508068600.0
1.0,1.0,2.0,3.0,4.0,6.0,1.0,-1.0,1651072508068600.0
-3.0,-1.0,0.0,0.0,0.0,-2.0,0.0,0.0,1651072508081642.0
-3.0,-1.0,0.0,-2.0,-2.0,-5.0,-1.0,0.0,1651072508081642.0
-2.0,-1.0,-2.0,-2.0,-5.0,-1.0,-1.0,-1.0,1651072508088623.0
0.0,-3.0,-2.0,-2.0,0.0,0.0,-2.0,0.0,1651072508088623.0
1.0,0.0,-3.0,-1.0,-1.0,-8.0,0.0,-2.0,1651072508104628.0
1.0,1.0,-1.0,1.0,-5.0,3.0,1.0,-2.0,1651072508104628.0
0.0,-1.0,0.0,1.0,9.0,5.0,-1.0,0.0,1651072508106649.0
-1.0,0.0,1.0,-1.0,-5.0,-3.0,-2.0,-1.0,1651072508106649.0
0.0,-1.0,2.0,-2.0,0.0,1.0,-1.0,1.0,1651072508134727.0
0.0,3.0,1.0,-1.0,-1.0,1.0,-1.0,0.0,1651072508134727.0
0.0,-6.0,-6.0,-2.0,-4.0,-5.0,-3.0,-3.0,1651072508136665.0
-1.0,1.0,-2.0,-2.0,-1.0,0.0,-1.0,0.0,1651072508136665.0
-1.0,1.0,2.0,1.0,5.0,2.0,1.0,0.0,1651072508141649.0
-2.0,-2.0,-2.0,-1.0,1.0,-9.0,-2.0,-2.0,1651072508141649.0
-1.0,0.0,2.0,1.0,-3.0,7.0,1.0,2.0,1651072508148631.0
1.0,1.0,-1.0,0.0,1.0,-4.0,1.0,0.0,1651072508148631.0
-2.0,1.0,1.0,1.0,5.0,3.0,0.0,-1.0,1651072508164723.0
-1.0,0.0,-2.0,-1.0,0.0,1.0,0.0,0.0,1651072508164723.0
-2.0,0.0,-3.0,-1.0,-2.0,-5.0,0.0,-2.0,1651072508166694.0
0.0,1.0,2.0,-2.0,-3.0,-2.0,-1.0,-1.0,1651072508166694.0
0.0,0.0,1.0,0.0,-3.0,-1.0,1.0,0.0,1651072508186657.0
1.0,-1.0,0.0,1.0,2.0,-4.0,1.0,-1.0,1651072508186657.0
-1.0,0.0,-2.0,1.0,3.0,3.0,-1.0,-2.0,1651072508187638.0
0.0,0.0,-1.0,0.0,-4.0,0.0,-1.0,-3.0,1651072508187638.0
-1.0,0.0,2.0,-2.0,-5.0,-9.0,0.0,-1.0,1651072508200792.0
0.0,-2.0,-2.0,-1.0,5.0,11.0,-1.0,0.0,1651072508200792.0
0.0,1.0,0.0,-1.0,-4.0,-3.0,1.0,0.0,1651072508208769.0
0.0,2.0,0.0,1.0,1.0,0.0,-2.0,0.0,1651072508208769.0
-1.0,-2.0,-4.0,0.0,4.0,4.0,-1.0,-1.0,1651072508223926.0
-1.0,-2.0,-2.0,-2.0,-9.0,-8.0,-1.0,-1.0,1651072508223926.0
0.0,-1.0,-1.0,0.0,-1.0,-1.0,-2.0,1.0,1651072508224857.0
-2.0,0.0,-1.0,-1.0,0.0,-1.0,-1.0,0.0,1651072508224857.0
1.0,-1.0,0.0,-1.0,-3.0,-2.0,-2.0,1.0,1651072508247367.0
0.0,-1.0,3.0,2.0,2.0,0.0,-2.0,-1.0,1651072508247367.0
-1.0,-3.0,-1.0,-3.0,0.0,0.0,-1.0,-1.0,1651072508247367.0
-1.0,-2.0,-2.0,-1.0,-1.0,-2.0,0.0,-1.0,1651072508247367.0
-1.0,0.0,-2.0,-1.0,1.0,1.0,-1.0,0.0,1651072508261486.0
0.0,1.0,1.0,-1.0,-3.0,0.0,-1.0,-1.0,1651072508261486.0
-3.0,-4.0,-7.0,-3.0,-3.0,-9.0,-1.0,-2.0,1651072508268537.0
-2.0,-1.0,5.0,1.0,-2.0,2.0,0.0,0.0,1651072508268537.0
-1.0,0.0,0.0,0.0,4.0,4.0,3.0,0.0,1651072508284607.0
2.0,1.0,1.0,0.0,-3.0,-3.0,0.0,0.0,1651072508284607.0
-1.0,2.0,0.0,-1.0,2.0,1.0,0.0,-1.0,1651072508285535.0
-2.0,-1.0,-2.0,0.0,-2.0,0.0,-1.0,0.0,1651072508285535.0
-1.0,-2.0,-2.0,0.0,0.0,-1.0,-1.0,-1.0,1651072508306654.0
-1.0,-5.0,-1.0,-2.0,-4.0,-2.0,-1.0,-1.0,1651072508306654.0
-1.0,1.0,1.0,0.0,0.0,-1.0,-1.0,-1.0,1651072508307584.0
-2.0,-2.0,-4.0,-1.0,2.0,2.0,2.0,0.0,1651072508307584.0
1.0,1.0,0.0,1.0,-10.0,-9.0,-3.0,-1.0,1651072508329643.0
-1.0,-2.0,-3.0,0.0,6.0,8.0,2.0,2.0,1651072508329643.0
-2.0,0.0,1.0,1.0,4.0,2.0,1.0,1.0,1651072508329643.0
0.0,1.0,0.0,-1.0,0.0,0.0,-1.0,1.0,1651072508329643.0
-2.0,-1.0,-1.0,-2.0,-1.0,0.0,-1.0,-1.0,1651072508344669.0
-3.0,-2.0,-2.0,-1.0,-4.0,-6.0,0.0,-1.0,1651072508344669.0
0.0,0.0,2.0,0.0,-4.0,-4.0,-1.0,-1.0,1651072508345294.0
0.0,2.0,3.0,1.0,-1.0,0.0,0.0,-1.0,1651072508345294.0
0.0,-7.0,-7.0,-3.0,-4.0,-3.0,-2.0,-2.0,1651072508367146.0
-1.0,0.0,-1.0,0.0,1.0,-2.0,-1.0,-3.0,1651072508367146.0
1.0,0.0,-1.0,0.0,4.0,7.0,1.0,2.0,1651072508367146.0
-1.0,0.0,0.0,0.0,-1.0,-2.0,-2.0,0.0,1651072508367146.0
-1.0,2.0,2.0,-2.0,-1.0,3.0,1.0,0.0,1651072508397638.0
-1.0,-2.0,1.0,-2.0,0.0,0.0,-1.0,0.0,1651072508397638.0
-2.0,-3.0,1.0,1.0,1.0,-11.0,-1.0,0.0,1651072508398636.0
0.0,2.0,2.0,-1.0,0.0,8.0,0.0,-1.0,1651072508398636.0
-1.0,0.0,-1.0,1.0,1.0,3.0,1.0,-1.0,1651072508403617.0
0.0,-1.0,0.0,-1.0,-1.0,-3.0,0.0,0.0,1651072508403617.0
0.0,3.0,1.0,-1.0,-6.0,-5.0,-1.0,-1.0,1651072508410626.0
1.0,-4.0,-4.0,1.0,5.0,0.0,-1.0,-2.0,1651072508410626.0
0.0,1.0,1.0,-1.0,2.0,3.0,1.0,-1.0,1651072508426718.0
-1.0,1.0,-1.0,-1.0,-3.0,-1.0,-1.0,0.0,1651072508426718.0
0.0,-1.0,0.0,-1.0,-5.0,-2.0,0.0,-1.0,1651072508427656.0
0.0,-1.0,-4.0,-1.0,-3.0,-4.0,1.0,0.0,1651072508427656.0
-2.0,1.0,2.0,-1.0,5.0,5.0,0.0,-1.0,1651072508449648.0
0.0,-2.0,-2.0,1.0,2.0,-1.0,-1.0,-1.0,1651072508449648.0
0.0,1.0,0.0,-1.0,-2.0,4.0,-1.0,0.0,1651072508449648.0
-1.0,-1.0,-3.0,-2.0,2.0,-3.0,1.0,-1.0,1651072508449648.0
-2.0,0.0,4.0,0.0,-1.0,-3.0,-1.0,0.0,1651072508464648.0
0.0,-1.0,-1.0,-1.0,1.0,1.0,0.0,-1.0,1651072508464648.0
2.0,-1.0,-1.0,-2.0,-2.0,2.0,-1.0,-1.0,1651072508464648.0
1.0,-1.0,0.0,-2.0,-10.0,-3.0,-1.0,0.0,1651072508464648.0
-1.0,-3.0,-2.0,0.0,7.0,-11.0,-2.0,-2.0,1651072508486746.0
-1.0,0.0,-1.0,2.0,4.0,18.0,2.0,1.0,1651072508486746.0
0.0,0.0,-1.0,-1.0,2.0,1.0,1.0,1.0,1651072508494724.0
0.0,-2.0,-2.0,0.0,-8.0,-5.0,-3.0,-2.0,1651072508494724.0
1.0,-4.0,-3.0,-2.0,-1.0,0.0,1.0,1.0,1651072508509699.0
-1.0,1.0,1.0,-3.0,-8.0,-8.0,-4.0,-1.0,1651072508509699.0
0.0,-3.0,-5.0,-2.0,2.0,1.0,-1.0,-1.0,1651072508509699.0
0.0,-1.0,4.0,1.0,-1.0,-2.0,-1.0,1.0,1651072508509699.0
1.0,0.0,0.0,-1.0,-2.0,0.0,0.0,-1.0,1651072508523781.0
-2.0,1.0,1.0,2.0,2.0,-1.0,-1.0,0.0,1651072508523781.0
1.0,2.0,3.0,-5.0,-6.0,5.0,1.0,0.0,1651072508524718.0
-2.0,-3.0,-5.0,-2.0,2.0,-6.0,-2.0,0.0,1651072508524718.0
-1.0,0.0,-2.0,1.0,0.0,3.0,-1.0,-1.0,1651072508546414.0
-2.0,0.0,-3.0,-11.0,-2.0,-3.0,0.0,-1.0,1651072508546414.0
-1.0,1.0,-1.0,-2.0,-1.0,0.0,-1.0,-1.0,1651072508547353.0
1.0,1.0,8.0,7.0,0.0,-1.0,1.0,0.0,1651072508547353.0
0.0,-2.0,-3.0,-6.0,-1.0,3.0,0.0,-1.0,1651072508577324.0
-2.0,-3.0,6.0,30.0,-2.0,-6.0,-1.0,-3.0,1651072508577324.0
-1.0,-1.0,6.0,1.0,0.0,0.0,-1.0,0.0,1651072508578259.0
-3.0,-5.0,-20.0,-33.0,-12.0,-5.0,-4.0,-3.0,1651072508578259.0
0.0,2.0,4.0,7.0,3.0,3.0,-3.0,0.0,1651072508584266.0
0.0,1.0,9.0,5.0,-5.0,-8.0,-2.0,1.0,1651072508584266.0
-1.0,-1.0,-1.0,9.0,13.0,2.0,-1.0,0.0,1651072508585241.0
-2.0,-2.0,-4.0,-19.0,-10.0,-3.0,-1.0,1.0,1651072508585241.0
1.0,1.0,10.0,14.0,5.0,8.0,2.0,0.0,1651072508606410.0
0.0,-2.0,-12.0,-28.0,-3.0,1.0,-1.0,-1.0,1651072508606410.0
-2.0,2.0,5.0,12.0,3.0,-4.0,0.0,-2.0,1651072508607185.0
2.0,4.0,10.0,-5.0,0.0,1.0,1.0,0.0,1651072508607185.0
0.0,-1.0,-1.0,1.0,-4.0,-3.0,1.0,-2.0,1651072508629405.0
-1.0,1.0,1.0,-3.0,-1.0,1.0,1.0,1.0,1651072508629405.0
1.0,-1.0,4.0,4.0,2.0,-1.0,2.0,0.0,1651072508630411.0
-1.0,0.0,4.0,25.0,10.0,3.0,-1.0,-1.0,1651072508630411.0
1.0,-2.0,-2.0,-5.0,-6.0,-2.0,-1.0,0.0,1651072508652041.0
0.0,-5.0,-12.0,-7.0,-5.0,-1.0,-2.0,-1.0,1651072508652041.0
1.0,-1.0,-4.0,0.0,-6.0,-2.0,-3.0,0.0,1651072508652041.0
-1.0,2.0,8.0,14.0,-4.0,-4.0,-1.0,0.0,1651072508652041.0
-2.0,2.0,-10.0,-29.0,-8.0,0.0,1.0,1.0,1651072508674772.0
0.0,-3.0,-6.0,-18.0,-1.0,2.0,0.0,-1.0,1651072508674772.0
-2.0,-1.0,4.0,23.0,-2.0,-4.0,-3.0,-2.0,1651072508675830.0
1.0,-1.0,0.0,-8.0,6.0,4.0,-2.0,-1.0,1651072508675830.0
0.0,3.0,5.0,13.0,2.0,-12.0,-1.0,1.0,1651072508689739.0
0.0,1.0,3.0,3.0,-4.0,11.0,1.0,-1.0,1651072508689739.0
-2.0,-3.0,-12.0,-20.0,1.0,-4.0,1.0,-1.0,1651072508690670.0
2.0,2.0,2.0,14.0,4.0,10.0,3.0,3.0,1651072508690670.0
-1.0,-1.0,-4.0,-6.0,7.0,-2.0,0.0,-1.0,1651072508711448.0
0.0,1.0,-2.0,2.0,-15.0,-10.0,-2.0,-2.0,1651072508711448.0
0.0,-1.0,-1.0,-2.0,3.0,2.0,0.0,-2.0,1651072508712448.0
-1.0,-1.0,-4.0,3.0,3.0,4.0,0.0,1.0,1651072508712448.0
0.0,-1.0,-3.0,-2.0,-2.0,-1.0,-2.0,1.0,1651072508725977.0
-1.0,0.0,1.0,10.0,15.0,2.0,2.0,-2.0,1651072508725977.0
-1.0,-2.0,-1.0,-12.0,-13.0,-4.0,-3.0,0.0,1651072508734668.0
-2.0,-3.0,-10.0,-15.0,-3.0,0.0,0.0,-1.0,1651072508734668.0
-1.0,-3.0,3.0,6.0,4.0,4.0,1.0,0.0,1651072508757565.0
-1.0,0.0,4.0,6.0,5.0,-3.0,-3.0,1.0,1651072508757565.0
1.0,0.0,1.0,-7.0,-3.0,-7.0,0.0,1.0,1651072508758495.0
-1.0,-1.0,-3.0,2.0,4.0,9.0,3.0,0.0,1651072508758495.0
2.0,0.0,6.0,14.0,-6.0,1.0,0.0,0.0,1651072508771526.0
-2.0,2.0,-3.0,-7.0,-9.0,-4.0,-1.0,-1.0,1651072508771526.0
-2.0,-1.0,-4.0,-5.0,6.0,-8.0,-3.0,-2.0,1651072508772458.0
0.0,-2.0,1.0,2.0,5.0,-3.0,0.0,-1.0,1651072508772458.0
0.0,2.0,-3.0,-10.0,3.0,5.0,1.0,0.0,1651072508785859.0
2.0,-1.0,-1.0,-6.0,6.0,6.0,4.0,2.0,1651072508785859.0
2.0,0.0,0.0,-1.0,-8.0,1.0,-2.0,-1.0,1651072508794642.0
-3.0,-3.0,7.0,25.0,-6.0,-12.0,-3.0,-3.0,1651072508794642.0
1.0,0.0,-4.0,-4.0,-16.0,-6.0,-5.0,-2.0,1651072508808954.0
-3.0,-5.0,-2.0,-4.0,9.0,-1.0,-2.0,-1.0,1651072508808954.0
0.0,2.0,0.0,-1.0,1.0,3.0,1.0,2.0,1651072508809884.0
-1.0,-3.0,-9.0,-15.0,9.0,3.0,-1.0,-2.0,1651072508809884.0
-2.0,-3.0,-1.0,6.0,-1.0,-3.0,-2.0,-2.0,1651072508831992.0
2.0,11.0,5.0,-2.0,-5.0,-9.0,-1.0,1.0,1651072508831992.0
0.0,-11.0,-4.0,1.0,6.0,19.0,1.0,-1.0,1651072508832998.0
-3.0,-5.0,0.0,0.0,-11.0,-11.0,-1.0,1.0,1651072508832998.0
0.0,4.0,-2.0,2.0,18.0,11.0,0.0,2.0,1651072508846439.0
-2.0,0.0,0.0,-1.0,-3.0,-5.0,-2.0,-2.0,1651072508846439.0
1.0,-5.0,-3.0,-3.0,-3.0,-2.0,0.0,0.0,1651072508854352.0
2.0,6.0,0.0,6.0,-1.0,0.0,0.0,-1.0,1651072508854352.0
-2.0,-2.0,-5.0,-13.0,-13.0,-7.0,-3.0,-4.0,1651072508869508.0
-3.0,-4.0,-4.0,-3.0,-10.0,-3.0,0.0,-1.0,1651072508869508.0
-3.0,4.0,-3.0,0.0,7.0,-2.0,-1.0,0.0,1651072508870487.0
-2.0,14.0,6.0,-1.0,-2.0,2.0,-2.0,-3.0,1651072508870487.0
2.0,-18.0,2.0,-6.0,1.0,0.0,2.0,3.0,1651072508891620.0
5.0,12.0,-3.0,12.0,5.0,5.0,2.0,1.0,1651072508891620.0
-3.0,-7.0,2.0,1.0,-10.0,-7.0,-4.0,-2.0,1651072508892553.0
-2.0,0.0,3.0,-3.0,3.0,-2.0,2.0,1.0,1651072508892553.0
-4.0,4.0,-2.0,2.0,-16.0,-12.0,-5.0,-3.0,1651072508906529.0
-3.0,-16.0,3.0,-7.0,15.0,5.0,0.0,1.0,1651072508906529.0
8.0,12.0,1.0,-6.0,3.0,13.0,7.0,4.0,1651072508921353.0
7.0,24.0,8.0,11.0,3.0,0.0,0.0,3.0,1651072508921353.0
-4.0,-9.0,11.0,28.0,3.0,-1.0,1.0,-2.0,1651072508928900.0
-1.0,-29.0,-16.0,-21.0,-11.0,-10.0,-4.0,-2.0,1651072508928900.0
-14.0,19.0,-13.0,-14.0,-12.0,-14.0,-3.0,-7.0,1651072508929830.0
-19.0,-17.0,-1.0,-16.0,2.0,10.0,-4.0,-10.0,1651072508929830.0
19.0,41.0,17.0,4.0,8.0,8.0,12.0,16.0,1651072508951447.0
20.0,-17.0,4.0,24.0,0.0,-2.0,1.0,11.0,1651072508951447.0
-2.0,-15.0,-6.0,8.0,1.0,-1.0,-4.0,-3.0,1651072508952446.0
-10.0,50.0,0.0,3.0,-11.0,-11.0,-8.0,-9.0,1651072508952446.0
-24.0,-46.0,-3.0,-19.0,0.0,0.0,-5.0,-9.0,1651072508966417.0
6.0,18.0,12.0,-15.0,7.0,7.0,1.0,1.0,1651072508966417.0
4.0,-4.0,8.0,28.0,14.0,9.0,4.0,4.0,1651072508974454.0
5.0,-17.0,-18.0,-2.0,-8.0,-5.0,3.0,4.0,1651072508974454.0
-8.0,-64.0,-15.0,1.0,-3.0,-4.0,-5.0,-7.0,1651072508989415.0
-30.0,-43.0,-8.0,-8.0,0.0,1.0,1.0,-8.0,1651072508989415.0
-11.0,73.0,18.0,-12.0,-6.0,-6.0,-8.0,-8.0,1651072508990345.0
8.0,-8.0,-3.0,20.0,8.0,6.0,5.0,5.0,1651072508990345.0
-16.0,-68.0,5.0,-13.0,-11.0,-6.0,-5.0,-9.0,1651072509011364.0
0.0,-63.0,-71.0,-24.0,-23.0,-13.0,-7.0,-7.0,1651072509011364.0
-19.0,3.0,7.0,-1.0,5.0,-5.0,-7.0,-11.0,1651072509012365.0
-18.0,7.0,8.0,-1.0,-10.0,-7.0,-8.0,-8.0,1651072509012365.0
-10.0,57.0,36.0,5.0,16.0,9.0,0.0,-7.0,1651072509035192.0
36.0,50.0,41.0,29.0,31.0,25.0,16.0,21.0,1651072509035192.0
20.0,-78.0,-6.0,-3.0,-13.0,-10.0,2.0,10.0,1651072509036122.0
18.0,23.0,-9.0,-18.0,-9.0,-9.0,-3.0,2.0,1651072509036122.0
-3.0,30.0,-50.0,-12.0,-63.0,-27.0,-10.0,-5.0,1651072509049088.0
-11.0,-5.0,37.0,41.0,55.0,24.0,3.0,-2.0,1651072509049088.0
-1.0,-16.0,-3.0,-19.0,-55.0,-15.0,-3.0,0.0,1651072509050094.0
1.0,-31.0,31.0,1.0,25.0,-5.0,5.0,7.0,1651072509050094.0
21.0,52.0,-9.0,-1.0,16.0,25.0,6.0,8.0,1651072509071841.0
-4.0,-13.0,21.0,24.0,64.0,18.0,2.0,-1.0,1651072509071841.0
-13.0,62.0,8.0,19.0,-9.0,-3.0,-1.0,-3.0,1651072509072842.0
19.0,-29.0,-12.0,-28.0,-39.0,-13.0,-2.0,2.0,1651072509072842.0
32.0,-19.0,-19.0,4.0,10.0,1.0,10.0,16.0,1651072509095545.0
6.0,-32.0,1.0,-16.0,-32.0,-12.0,-3.0,-1.0,1651072509095545.0
-21.0,-12.0,-30.0,-6.0,11.0,0.0,-7.0,-13.0,1651072509095545.0
-2.0,0.0,-5.0,1.0,-17.0,-3.0,1.0,2.0,1651072509095545.0
-16.0,-25.0,25.0,0.0,6.0,1.0,-5.0,-7.0,1651072509109578.0
11.0,53.0,7.0,-1.0,-32.0,-4.0,4.0,6.0,1651072509109578.0
-13.0,-37.0,9.0,0.0,23.0,7.0,-2.0,-5.0,1651072509109578.0
24.0,-13.0,-4.0,1.0,12.0,1.0,3.0,6.0,1651072509109578.0
9.0,72.0,33.0,14.0,54.0,13.0,3.0,2.0,1651072509132337.0
-10.0,-48.0,-40.0,-5.0,-22.0,-9.0,-5.0,-6.0,1651072509132337.0
6.0,3.0,-7.0,-3.0,2.0,-8.0,0.0,1.0,1651072509133334.0
-18.0,-54.0,-5.0,-4.0,-13.0,4.0,0.0,-4.0,1651072509133334.0
1.0,9.0,-9.0,-3.0,-7.0,-3.0,0.0,5.0,1651072509154464.0
-7.0,46.0,14.0,-2.0,5.0,-8.0,-6.0,-2.0,1651072509154464.0
17.0,-15.0,11.0,1.0,8.0,10.0,7.0,9.0,1651072509155458.0
-1.0,7.0,-12.0,15.0,29.0,22.0,6.0,1.0,1651072509155458.0
-10.0,-3.0,29.0,-7.0,-35.0,-23.0,-12.0,-8.0,1651072509168823.0
-3.0,32.0,-16.0,-9.0,-47.0,-16.0,-5.0,-6.0,1651072509168823.0
5.0,-25.0,4.0,4.0,19.0,6.0,-1.0,3.0,1651072509169759.0
-15.0,-18.0,-11.0,-1.0,5.0,4.0,-3.0,-10.0,1651072509169759.0
6.0,-19.0,-14.0,0.0,11.0,4.0,5.0,4.0,1651072509191932.0
-9.0,40.0,-11.0,-11.0,-15.0,-11.0,-7.0,-7.0,1651072509191932.0
4.0,38.0,-2.0,-6.0,-14.0,0.0,-1.0,2.0,1651072509192862.0
-6.0,-12.0,-3.0,-4.0,-17.0,-8.0,-2.0,-1.0,1651072509192862.0
5.0,0.0,2.0,18.0,44.0,20.0,6.0,1.0,1651072509214643.0
4.0,-3.0,2.0,-3.0,-6.0,0.0,2.0,0.0,1651072509214643.0
5.0,18.0,0.0,5.0,19.0,9.0,6.0,7.0,1651072509215067.0
5.0,29.0,31.0,-1.0,-29.0,-10.0,-3.0,-2.0,1651072509215067.0
-7.0,-35.0,-43.0,-6.0,19.0,-11.0,-7.0,-6.0,1651072509229727.0
-9.0,-5.0,19.0,7.0,-6.0,4.0,-3.0,-4.0,1651072509229727.0
4.0,20.0,-7.0,-9.0,-13.0,-9.0,-2.0,4.0,1651072509229727.0
-1.0,-20.0,2.0,-4.0,-6.0,5.0,2.0,5.0,1651072509229727.0
1.0,57.0,57.0,5.0,-23.0,-10.0,1.0,-11.0,1651072509251462.0
10.0,-31.0,-74.0,-8.0,34.0,8.0,0.0,2.0,1651072509251462.0
8.0,2.0,2.0,3.0,-4.0,5.0,5.0,3.0,1651072509252462.0
-22.0,2.0,-1.0,-6.0,-15.0,-8.0,-5.0,-6.0,1651072509252462.0
24.0,-26.0,15.0,-4.0,7.0,-1.0,3.0,6.0,1651072509274628.0
-28.0,-12.0,-5.0,-1.0,8.0,-2.0,-1.0,-5.0,1651072509274628.0
16.0,40.0,-2.0,0.0,-3.0,3.0,5.0,3.0,1651072509274628.0
7.0,25.0,6.0,11.0,36.0,12.0,1.0,2.0,1651072509274628.0
-16.0,74.0,33.0,-4.0,-23.0,-16.0,-9.0,-5.0,1651072509289547.0
11.0,-68.0,-30.0,-11.0,-30.0,-14.0,-3.0,6.0,1651072509289547.0
4.0,-26.0,-4.0,0.0,28.0,12.0,3.0,-1.0,1651072509290558.0
-5.0,-10.0,8.0,3.0,2.0,-1.0,1.0,-5.0,1651072509290558.0
-12.0,13.0,-30.0,-9.0,-11.0,-1.0,-2.0,-1.0,1651072509311647.0
6.0,-14.0,51.0,9.0,-7.0,6.0,9.0,8.0,1651072509311647.0
-5.0,-6.0,-38.0,-1.0,20.0,-1.0,-5.0,-5.0,1651072509312577.0
1.0,22.0,-5.0,-8.0,-16.0,-8.0,-6.0,-1.0,1651072509312577.0
-7.0,-53.0,-35.0,9.0,24.0,20.0,7.0,5.0,1651072509335360.0
5.0,61.0,12.0,-23.0,-59.0,-23.0,-4.0,-3.0,1651072509335360.0
-3.0,-18.0,5.0,7.0,29.0,14.0,0.0,-3.0,1651072509335360.0
6.0,0.0,9.0,8.0,19.0,3.0,1.0,3.0,1651072509335360.0
-12.0,1.0,-55.0,0.0,5.0,4.0,-4.0,-2.0,1651072509349352.0
5.0,-9.0,34.0,4.0,-4.0,2.0,11.0,9.0,1651072509349352.0
-12.0,-18.0,-19.0,-6.0,-28.0,-10.0,-3.0,1.0,1651072509350323.0
4.0,-6.0,6.0,8.0,17.0,7.0,3.0,2.0,1651072509350323.0
7.0,10.0,-1.0,-22.0,-72.0,-19.0,-7.0,-7.0,1651072509371696.0
-28.0,-8.0,26.0,26.0,91.0,28.0,3.0,-8.0,1651072509371696.0
23.0,25.0,-30.0,-9.0,-21.0,-13.0,-2.0,-1.0,1651072509372695.0
-9.0,15.0,8.0,-1.0,18.0,9.0,-2.0,1.0,1651072509372695.0
10.0,-56.0,-14.0,-1.0,2.0,-5.0,1.0,3.0,1651072509395349.0
8.0,66.0,19.0,-10.0,-44.0,-2.0,-5.0,-2.0,1651072509395349.0
-14.0,-57.0,0.0,10.0,23.0,5.0,1.0,2.0,1651072509395349.0
2.0,-1.0,-3.0,2.0,20.0,1.0,1.0,-3.0,1651072509395349.0
-11.0,-2.0,-8.0,-4.0,-20.0,1.0,0.0,-2.0,1651072509409379.0
5.0,14.0,-13.0,2.0,13.0,-4.0,-5.0,-1.0,1651072509409379.0
0.0,-8.0,34.0,-7.0,-20.0,-4.0,-4.0,-3.0,1651072509410310.0
0.0,-5.0,-18.0,-4.0,-15.0,-11.0,-7.0,-6.0,1651072509410310.0
1.0,14.0,19.0,11.0,39.0,14.0,8.0,6.0,1651072509431436.0
-1.0,5.0,-21.0,-4.0,0.0,-3.0,-4.0,-3.0,1651072509431436.0
-4.0,21.0,13.0,-5.0,-19.0,-4.0,0.0,-1.0,1651072509432365.0
-12.0,-53.0,7.0,5.0,5.0,2.0,3.0,-2.0,1651072509432365.0
19.0,21.0,-10.0,-7.0,-7.0,-3.0,-3.0,-7.0,1651072509454820.0
-6.0,-10.0,-6.0,-4.0,4.0,-4.0,-7.0,-2.0,1651072509454820.0
-13.0,-1.0,14.0,-2.0,-11.0,-4.0,-2.0,-6.0,1651072509455757.0
17.0,9.0,-1.0,7.0,21.0,4.0,2.0,6.0,1651072509455757.0
-21.0,-61.0,24.0,2.0,-6.0,-2.0,-1.0,-1.0,1651072509469744.0
9.0,33.0,-39.0,-6.0,-18.0,-10.0,-3.0,-6.0,1651072509469744.0
3.0,13.0,13.0,0.0,7.0,5.0,-1.0,-2.0,1651072509469744.0
1.0,14.0,-7.0,-8.0,-25.0,-2.0,0.0,3.0,1651072509469744.0
-3.0,-15.0,7.0,10.0,33.0,5.0,2.0,-1.0,1651072509492180.0
-4.0,-8.0,11.0,6.0,14.0,4.0,4.0,2.0,1651072509492180.0
-4.0,9.0,-1.0,-3.0,-38.0,-15.0,-6.0,-2.0,1651072509492180.0
-5.0,-28.0,-7.0,-8.0,16.0,3.0,-1.0,-5.0,1651072509492180.0
11.0,11.0,8.0,10.0,13.0,2.0,1.0,5.0,1651072509522419.0
0.0,-1.0,-17.0,-6.0,4.0,4.0,2.0,3.0,1651072509522419.0
1.0,-10.0,-3.0,-2.0,1.0,-1.0,1.0,-1.0,1651072509523417.0
6.0,13.0,-8.0,0.0,-3.0,-3.0,2.0,2.0,1651072509523417.0
-7.0,1.0,-26.0,-11.0,-12.0,-3.0,-2.0,4.0,1651072509529401.0
16.0,37.0,32.0,9.0,5.0,-1.0,-2.0,-6.0,1651072509529401.0
2.0,-3.0,-15.0,-3.0,-7.0,-3.0,-3.0,-2.0,1651072509530398.0
-6.0,1.0,-7.0,-4.0,-15.0,-17.0,-5.0,-2.0,1651072509530398.0
-10.0,-22.0,4.0,2.0,7.0,9.0,-3.0,-5.0,1651072509551409.0
4.0,0.0,-6.0,4.0,6.0,10.0,8.0,6.0,1651072509551409.0
0.0,-16.0,2.0,-4.0,0.0,-1.0,1.0,-1.0,1651072509552341.0
-1.0,22.0,0.0,1.0,-7.0,-3.0,-4.0,-1.0,1651072509552341.0
5.0,-6.0,4.0,-2.0,-2.0,-4.0,0.0,2.0,1651072509575004.0
-9.0,-8.0,11.0,-2.0,-13.0,-6.0,-3.0,-4.0,1651072509575004.0
3.0,4.0,4.0,5.0,8.0,3.0,2.0,3.0,1651072509575935.0
0.0,4.0,-3.0,0.0,24.0,5.0,3.0,2.0,1651072509575935.0
0.0,10.0,3.0,0.0,-7.0,0.0,1.0,2.0,1651072509588900.0
-5.0,-28.0,-4.0,-6.0,-6.0,-5.0,-6.0,-6.0,1651072509588900.0
0.0,2.0,-2.0,-5.0,-3.0,-1.0,1.0,0.0,1651072509589897.0
3.0,8.0,0.0,-5.0,-18.0,1.0,-1.0,0.0,1651072509589897.0
-8.0,-9.0,0.0,-2.0,-10.0,-7.0,-5.0,2.0,1651072509611935.0
4.0,14.0,6.0,-3.0,-9.0,-10.0,-1.0,2.0,1651072509611935.0
1.0,16.0,10.0,13.0,40.0,16.0,3.0,-5.0,1651072509612865.0
-10.0,-23.0,-31.0,-14.0,-39.0,-10.0,-3.0,-6.0,1651072509612865.0
-1.0,10.0,-8.0,1.0,14.0,-4.0,-5.0,-6.0,1651072509635373.0
-11.0,-27.0,5.0,2.0,-7.0,-2.0,-1.0,1.0,1651072509635373.0
2.0,-10.0,-5.0,0.0,-7.0,-5.0,3.0,0.0,1651072509635373.0
-6.0,21.0,9.0,8.0,8.0,5.0,-2.0,-5.0,1651072509635373.0
11.0,4.0,4.0,-11.0,-19.0,-2.0,2.0,4.0,1651072509649448.0
-1.0,-10.0,-4.0,10.0,39.0,7.0,1.0,0.0,1651072509649448.0
-3.0,5.0,2.0,-4.0,-14.0,-3.0,-3.0,-1.0,1651072509650422.0
3.0,-14.0,-2.0,5.0,26.0,11.0,3.0,1.0,1651072509650422.0
2.0,12.0,1.0,-4.0,-8.0,-7.0,-1.0,0.0,1651072509671448.0
-9.0,-2.0,4.0,-1.0,-9.0,-2.0,-2.0,-7.0,1651072509671448.0
1.0,3.0,5.0,-1.0,-5.0,-5.0,0.0,2.0,1651072509672448.0
13.0,27.0,1.0,0.0,-2.0,4.0,3.0,3.0,1651072509672448.0
-1.0,-20.0,8.0,13.0,8.0,3.0,2.0,4.0,1651072509694585.0
-3.0,0.0,-13.0,-5.0,9.0,1.0,-6.0,-1.0,1651072509694585.0
-9.0,-13.0,-3.0,-6.0,-21.0,-6.0,0.0,1.0,1651072509695515.0
5.0,22.0,8.0,4.0,16.0,-8.0,0.0,1.0,1651072509695515.0
2.0,-15.0,-2.0,-5.0,-5.0,12.0,1.0,-2.0,1651072509709477.0
-3.0,-11.0,-13.0,4.0,5.0,0.0,3.0,0.0,1651072509709477.0
-3.0,-3.0,16.0,3.0,4.0,6.0,-1.0,-4.0,1651072509710476.0
2.0,-11.0,-3.0,-3.0,-9.0,-6.0,-1.0,4.0,1651072509710476.0
1.0,15.0,-5.0,-4.0,0.0,-3.0,-1.0,-1.0,1651072509732202.0
-2.0,-18.0,19.0,7.0,-4.0,-2.0,0.0,2.0,1651072509732202.0
4.0,-15.0,-25.0,-4.0,6.0,2.0,3.0,3.0,1651072509732202.0
-1.0,26.0,-7.0,-4.0,-3.0,-4.0,-4.0,-8.0,1651072509732202.0
-2.0,8.0,11.0,3.0,0.0,-1.0,-2.0,-2.0,1651072509754385.0
6.0,-10.0,3.0,-1.0,-10.0,-1.0,-1.0,3.0,1651072509754385.0
-1.0,16.0,3.0,6.0,0.0,2.0,2.0,-2.0,1651072509755316.0
-3.0,-19.0,1.0,-4.0,-14.0,-5.0,-3.0,1.0,1651072509755316.0
-2.0,15.0,-4.0,2.0,10.0,4.0,0.0,-1.0,1651072509769461.0
-11.0,-10.0,-2.0,-5.0,-12.0,-5.0,-3.0,-7.0,1651072509769461.0
5.0,-20.0,-14.0,-2.0,-1.0,-4.0,-2.0,2.0,1651072509770422.0
-3.0,3.0,10.0,-2.0,-2.0,3.0,1.0,4.0,1651072509770422.0
7.0,-2.0,-1.0,-2.0,-13.0,-3.0,4.0,-1.0,1651072509791518.0
5.0,24.0,1.0,6.0,24.0,7.0,1.0,0.0,1651072509791518.0
-6.0,21.0,17.0,0.0,-17.0,-5.0,-4.0,-1.0,1651072509792451.0
-9.0,-35.0,-8.0,-3.0,11.0,3.0,-4.0,-4.0,1651072509792451.0
-3.0,-19.0,8.0,-2.0,-5.0,-4.0,4.0,1.0,1651072509814615.0
-2.0,9.0,-5.0,-3.0,-1.0,-7.0,-4.0,-6.0,1651072509814615.0
5.0,10.0,-1.0,2.0,23.0,5.0,0.0,-4.0,1651072509815291.0
7.0,10.0,4.0,5.0,2.0,0.0,0.0,6.0,1651072509815291.0
-6.0,-9.0,-8.0,-5.0,-12.0,-7.0,-8.0,-9.0,1651072509828315.0
-12.0,-7.0,-2.0,-2.0,-3.0,-2.0,-2.0,-9.0,1651072509828315.0
2.0,-8.0,-12.0,-5.0,-2.0,-3.0,-2.0,5.0,1651072509836669.0
7.0,8.0,11.0,0.0,-15.0,-3.0,3.0,-1.0,1651072509836669.0
1.0,22.0,0.0,4.0,27.0,10.0,0.0,3.0,1651072509851729.0
-2.0,-27.0,-4.0,-2.0,-8.0,-2.0,1.0,2.0,1651072509851729.0
0.0,18.0,16.0,-4.0,1.0,-6.0,-3.0,-2.0,1651072509852672.0
-3.0,-13.0,-7.0,7.0,5.0,4.0,1.0,-1.0,1651072509852672.0
-3.0,-8.0,-5.0,-4.0,-38.0,-10.0,1.0,2.0,1651072509873824.0
1.0,17.0,-1.0,-3.0,21.0,5.0,-4.0,-4.0,1651072509873824.0
-12.0,-21.0,9.0,5.0,3.0,1.0,1.0,0.0,1651072509874754.0
17.0,2.0,-9.0,-11.0,-17.0,-7.0,-1.0,3.0,1651072509874754.0
-4.0,7.0,4.0,0.0,2.0,2.0,3.0,5.0,1651072509888783.0
3.0,4.0,12.0,-2.0,-15.0,-3.0,0.0,-6.0,1651072509888783.0
-4.0,-19.0,-47.0,-2.0,14.0,2.0,-4.0,-3.0,1651072509896762.0
1.0,7.0,20.0,-2.0,-14.0,-3.0,-3.0,-2.0,1651072509896762.0
-5.0,-19.0,-32.0,-6.0,3.0,-1.0,-3.0,-1.0,1651072509911812.0
2.0,-2.0,12.0,-3.0,-14.0,-5.0,1.0,6.0,1651072509911812.0
7.0,15.0,16.0,-2.0,5.0,-6.0,-3.0,-1.0,1651072509912742.0
-6.0,-18.0,-5.0,7.0,26.0,19.0,5.0,-2.0,1651072509912742.0
-3.0,-8.0,-1.0,2.0,11.0,-2.0,-2.0,-1.0,1651072509934724.0
3.0,18.0,-4.0,-4.0,-16.0,-4.0,1.0,3.0,1651072509934724.0
-10.0,-23.0,12.0,2.0,-9.0,-6.0,-1.0,-5.0,1651072509934724.0
7.0,35.0,-6.0,-5.0,6.0,-2.0,2.0,3.0,1651072509934724.0
3.0,12.0,6.0,3.0,7.0,5.0,2.0,4.0,1651072509948799.0
3.0,-12.0,-6.0,0.0,-7.0,-1.0,-2.0,-2.0,1651072509948799.0
-6.0,17.0,2.0,-5.0,-8.0,-8.0,0.0,-3.0,1651072509956936.0
-1.0,-33.0,-6.0,4.0,19.0,13.0,2.0,0.0,1651072509956936.0
-1.0,-3.0,-5.0,-8.0,-9.0,-9.0,-5.0,-5.0,1651072509972165.0
9.0,23.0,10.0,5.0,-14.0,-1.0,2.0,5.0,1651072509972165.0
-1.0,-13.0,-19.0,1.0,10.0,5.0,-1.0,0.0,1651072509972165.0
-13.0,-25.0,8.0,0.0,-13.0,-10.0,-5.0,-3.0,1651072509972165.0
3.0,9.0,-1.0,5.0,12.0,7.0,1.0,-6.0,1651072509994640.0
-3.0,-12.0,-4.0,-10.0,-21.0,-10.0,-6.0,-3.0,1651072509994640.0
-3.0,-3.0,5.0,10.0,26.0,11.0,3.0,1.0,1651072509994755.0
8.0,15.0,13.0,-1.0,-17.0,-2.0,1.0,1.0,1651072509994755.0
-2.0,13.0,-13.0,-1.0,13.0,0.0,0.0,0.0,1651072510008823.0
-5.0,1.0,-7.0,-1.0,-10.0,-2.0,1.0,0.0,1651072510008823.0
10.0,13.0,-2.0,0.0,8.0,12.0,4.0,4.0,1651072510017372.0
-4.0,-8.0,1.0,0.0,5.0,-4.0,-3.0,-2.0,1651072510017372.0
-5.0,-9.0,0.0,-1.0,-3.0,1.0,-4.0,-1.0,1651072510031773.0
2.0,7.0,6.0,3.0,-27.0,-6.0,0.0,-3.0,1651072510031773.0
2.0,-19.0,-8.0,4.0,29.0,4.0,3.0,6.0,1651072510032772.0
-4.0,24.0,-9.0,-1.0,6.0,-2.0,-2.0,-1.0,1651072510032772.0
4.0,2.0,21.0,-4.0,0.0,-1.0,-2.0,-1.0,1651072510054640.0
-3.0,-39.0,-6.0,6.0,22.0,3.0,2.0,4.0,1651072510054640.0
-2.0,30.0,19.0,-5.0,-41.0,-11.0,-5.0,-8.0,1651072510055292.0
-1.0,3.0,-1.0,4.0,17.0,9.0,7.0,7.0,1651072510055292.0
-8.0,-7.0,5.0,-6.0,-17.0,-13.0,-8.0,-11.0,1651072510077434.0
2.0,19.0,7.0,1.0,15.0,2.0,1.0,3.0,1651072510077434.0
0.0,-26.0,-2.0,-3.0,-11.0,-2.0,-1.0,0.0,1651072510078464.0
-8.0,3.0,-15.0,-5.0,-11.0,-5.0,-3.0,-5.0,1651072510078464.0
3.0,5.0,6.0,-4.0,-6.0,3.0,3.0,5.0,1651072510091463.0
4.0,-1.0,4.0,-1.0,4.0,2.0,0.0,0.0,1651072510091463.0
-12.0,-33.0,0.0,2.0,15.0,2.0,-3.0,-5.0,1651072510092393.0
16.0,11.0,-15.0,-3.0,9.0,3.0,2.0,6.0,1651072510092393.0
-1.0,-10.0,-22.0,-7.0,-6.0,-1.0,-1.0,-1.0,1651072510114510.0
-1.0,15.0,-15.0,2.0,16.0,0.0,-4.0,-3.0,1651072510114510.0
-3.0,-3.0,16.0,0.0,-21.0,-3.0,0.0,2.0,1651072510115458.0
-8.0,-18.0,14.0,1.0,-11.0,-4.0,0.0,-4.0,1651072510115458.0
0.0,22.0,-4.0,-3.0,-5.0,-6.0,-3.0,-3.0,1651072510137452.0
1.0,-2.0,0.0,-1.0,17.0,8.0,4.0,2.0,1651072510137452.0
2.0,5.0,-7.0,-1.0,-6.0,-2.0,0.0,7.0,1651072510138388.0
-7.0,-8.0,-5.0,-5.0,-14.0,-8.0,-8.0,-13.0,1651072510138388.0
7.0,16.0,16.0,10.0,10.0,3.0,0.0,3.0,1651072510151463.0
-7.0,-20.0,-11.0,-7.0,-20.0,0.0,-1.0,-2.0,1651072510151463.0
0.0,2.0,-3.0,4.0,22.0,2.0,3.0,-2.0,1651072510152460.0
0.0,23.0,17.0,2.0,0.0,-1.0,-2.0,1.0,1651072510152460.0
10.0,-12.0,-12.0,-7.0,-21.0,-5.0,-1.0,3.0,1651072510174623.0
9.0,47.0,10.0,4.0,20.0,-2.0,-2.0,2.0,1651072510174623.0
-1.0,-7.0,-3.0,-4.0,-5.0,4.0,1.0,-9.0,1651072510174623.0
-6.0,-18.0,7.0,0.0,-13.0,-7.0,-5.0,5.0,1651072510174623.0
-6.0,-21.0,-17.0,-2.0,-11.0,5.0,1.0,-1.0,1651072510197604.0
-2.0,-2.0,1.0,5.0,18.0,-4.0,-2.0,-1.0,1651072510197604.0
2.0,13.0,6.0,-4.0,-14.0,-7.0,-3.0,-2.0,1651072510198559.0
-1.0,-4.0,-7.0,3.0,6.0,9.0,4.0,1.0,1651072510198559.0
-4.0,-1.0,1.0,-4.0,-4.0,-5.0,-2.0,-3.0,1651072510211565.0
-4.0,-16.0,-1.0,-6.0,-22.0,-5.0,0.0,3.0,1651072510211565.0
2.0,-8.0,5.0,13.0,36.0,15.0,3.0,-3.0,1651072510212506.0
14.0,88.0,-5.0,2.0,5.0,-2.0,-2.0,2.0,1651072510212506.0
-11.0,-73.0,-25.0,-4.0,-10.0,-5.0,-2.0,-1.0,1651072510234287.0
2.0,16.0,7.0,-3.0,7.0,0.0,0.0,-3.0,1651072510234287.0
0.0,-4.0,6.0,-1.0,-14.0,-11.0,1.0,3.0,1651072510235294.0
-1.0,-5.0,8.0,-1.0,1.0,7.0,1.0,0.0,1651072510235294.0
4.0,16.0,-5.0,3.0,17.0,13.0,3.0,1.0,1651072510257389.0
-2.0,-7.0,-9.0,-5.0,-4.0,-6.0,-2.0,-2.0,1651072510257389.0
-3.0,-4.0,-3.0,-4.0,-10.0,-8.0,-6.0,-2.0,1651072510258380.0
-5.0,-14.0,3.0,-1.0,-2.0,-6.0,-3.0,-3.0,1651072510258380.0
0.0,3.0,-3.0,-2.0,-1.0,-8.0,-1.0,-2.0,1651072510271693.0
-3.0,-23.0,25.0,6.0,3.0,6.0,3.0,-1.0,1651072510271693.0
7.0,36.0,-12.0,-4.0,-8.0,0.0,2.0,4.0,1651072510272699.0
-2.0,-19.0,-11.0,-1.0,2.0,-3.0,-1.0,-1.0,1651072510272699.0
3.0,22.0,22.0,0.0,-2.0,1.0,2.0,3.0,1651072510294640.0
-4.0,-15.0,-12.0,-3.0,-4.0,1.0,-3.0,-3.0,1651072510294640.0
-5.0,-16.0,-4.0,2.0,6.0,-1.0,-3.0,-2.0,1651072510295295.0
2.0,11.0,6.0,-4.0,-12.0,2.0,0.0,3.0,1651072510295295.0
3.0,12.0,2.0,10.0,31.0,13.0,4.0,2.0,1651072510317744.0
1.0,-1.0,5.0,-6.0,-2.0,-2.0,-2.0,0.0,1651072510317744.0
0.0,-8.0,-21.0,-6.0,-18.0,-10.0,-2.0,0.0,1651072510317744.0
6.0,-1.0,5.0,-3.0,0.0,8.0,1.0,-2.0,1651072510317744.0
-7.0,1.0,-1.0,3.0,-5.0,-2.0,1.0,4.0,1651072510331696.0
2.0,-2.0,1.0,-3.0,3.0,0.0,-5.0,-8.0,1651072510331696.0
4.0,6.0,-2.0,3.0,-6.0,0.0,1.0,3.0,1651072510332695.0
-11.0,-19.0,10.0,1.0,10.0,-5.0,-5.0,-5.0,1651072510332695.0
-1.0,6.0,-1.0,-3.0,-5.0,-2.0,-1.0,-1.0,1651072510354739.0
-5.0,0.0,-13.0,-1.0,-9.0,-1.0,1.0,2.0,1651072510354739.0
-3.0,1.0,-1.0,-2.0,-5.0,1.0,-1.0,-1.0,1651072510354739.0
2.0,-8.0,-8.0,1.0,-9.0,-5.0,2.0,0.0,1651072510354739.0
1.0,17.0,20.0,-8.0,2.0,-6.0,-5.0,-12.0,1651072510377836.0
-4.0,-22.0,-36.0,1.0,13.0,4.0,2.0,6.0,1651072510377836.0
-6.0,-7.0,4.0,-6.0,-7.0,-2.0,-5.0,-3.0,1651072510377836.0
4.0,-13.0,-8.0,-3.0,-3.0,4.0,1.0,-1.0,1651072510377836.0
-2.0,14.0,-14.0,2.0,3.0,-5.0,-5.0,-2.0,1651072510391731.0
-3.0,11.0,2.0,3.0,-2.0,2.0,2.0,-2.0,1651072510391731.0
-4.0,0.0,13.0,-5.0,-6.0,-4.0,-2.0,-1.0,1651072510392741.0
0.0,-8.0,3.0,1.0,-2.0,-3.0,0.0,0.0,1651072510392741.0
-7.0,-15.0,-7.0,2.0,2.0,2.0,1.0,-1.0,1651072510414705.0
4.0,3.0,-2.0,-8.0,-17.0,-12.0,-6.0,-1.0,1651072510414705.0
6.0,14.0,-3.0,12.0,40.0,27.0,9.0,8.0,1651072510414705.0
-4.0,-5.0,19.0,-1.0,-8.0,-6.0,-4.0,-6.0,1651072510414705.0
4.0,2.0,-2.0,-2.0,-5.0,0.0,0.0,2.0,1651072510437706.0
-5.0,14.0,11.0,7.0,1.0,-9.0,-3.0,-1.0,1651072510437706.0
8.0,-16.0,-27.0,-8.0,-24.0,2.0,4.0,3.0,1651072510438637.0
-5.0,2.0,17.0,8.0,20.0,6.0,1.0,2.0,1651072510438637.0
5.0,24.0,-3.0,6.0,1.0,-6.0,-3.0,-4.0,1651072510451732.0
0.0,-9.0,4.0,-2.0,9.0,10.0,0.0,1.0,1651072510451732.0
5.0,23.0,9.0,-4.0,-10.0,-12.0,-3.0,-2.0,1651072510452736.0
0.0,-16.0,-16.0,-2.0,-6.0,0.0,0.0,1.0,1651072510452736.0
-1.0,-5.0,6.0,6.0,5.0,2.0,2.0,4.0,1651072510474421.0
-2.0,-2.0,-2.0,-3.0,-1.0,2.0,0.0,-2.0,1651072510474421.0
-1.0,-2.0,0.0,1.0,6.0,-2.0,-4.0,-1.0,1651072510475351.0
-6.0,-9.0,-5.0,-2.0,-6.0,-3.0,-2.0,-5.0,1651072510475351.0
1.0,0.0,4.0,-3.0,-5.0,-4.0,1.0,-1.0,1651072510497508.0
5.0,3.0,-6.0,-2.0,-5.0,0.0,0.0,2.0,1651072510497508.0
-5.0,-3.0,9.0,-1.0,4.0,2.0,1.0,-2.0,1651072510498439.0
0.0,4.0,-6.0,1.0,2.0,-1.0,-2.0,-3.0,1651072510498439.0
1.0,-5.0,0.0,-5.0,-7.0,-1.0,1.0,0.0,1651072510511559.0
-4.0,-8.0,-8.0,-3.0,-3.0,-3.0,-3.0,0.0,1651072510511559.0
4.0,8.0,7.0,2.0,3.0,-1.0,-1.0,2.0,1651072510512559.0
-2.0,-3.0,-16.0,-5.0,1.0,0.0,0.0,-1.0,1651072510512559.0
1.0,0.0,6.0,0.0,1.0,-8.0,-1.0,2.0,1651072510534764.0
-3.0,-1.0,-11.0,-2.0,-5.0,10.0,0.0,-2.0,1651072510534764.0
1.0,-2.0,1.0,3.0,-10.0,-9.0,-1.0,0.0,1651072510534764.0
-4.0,-6.0,-9.0,-5.0,2.0,-3.0,-1.0,-1.0,1651072510534764.0
12.0,0.0,5.0,6.0,15.0,10.0,2.0,5.0,1651072510557440.0
0.0,5.0,9.0,3.0,3.0,-2.0,1.0,0.0,1651072510557440.0
-5.0,-1.0,-1.0,-3.0,-8.0,-4.0,-1.0,-3.0,1651072510558371.0
-5.0,-4.0,-3.0,-1.0,2.0,5.0,2.0,-1.0,1651072510558371.0
-4.0,-4.0,5.0,-4.0,-12.0,-9.0,-2.0,1.0,1651072510571513.0
4.0,5.0,-3.0,1.0,3.0,0.0,1.0,0.0,1651072510571513.0
-3.0,-3.0,-2.0,-2.0,1.0,4.0,-2.0,-2.0,1651072510572444.0
2.0,1.0,-1.0,3.0,6.0,-3.0,1.0,2.0,1651072510572444.0
-2.0,-3.0,2.0,-1.0,-6.0,0.0,1.0,0.0,1651072510594454.0
-1.0,-3.0,0.0,1.0,3.0,-2.0,0.0,2.0,1651072510594454.0
-5.0,-3.0,-2.0,-3.0,-2.0,8.0,-2.0,-2.0,1651072510595382.0
2.0,2.0,-3.0,-3.0,-13.0,-15.0,-1.0,1.0,1651072510595382.0
-3.0,-3.0,-1.0,2.0,9.0,14.0,1.0,0.0,1651072510617549.0
0.0,1.0,2.0,-1.0,2.0,2.0,1.0,0.0,1651072510617549.0
2.0,2.0,3.0,1.0,5.0,-6.0,-1.0,0.0,1651072510618479.0
-1.0,2.0,6.0,0.0,-3.0,-1.0,0.0,0.0,1651072510618479.0
-1.0,-5.0,-8.0,0.0,-1.0,-1.0,0.0,-1.0,1651072510631449.0
1.0,0.0,3.0,-2.0,-7.0,-4.0,0.0,0.0,1651072510631449.0
-1.0,-1.0,0.0,-4.0,-3.0,-2.0,-2.0,-1.0,1651072510632459.0
0.0,2.0,-2.0,2.0,0.0,3.0,0.0,1.0,1651072510632459.0
-3.0,-3.0,-2.0,0.0,1.0,0.0,-2.0,-2.0,1651072510654618.0
-1.0,2.0,-1.0,2.0,5.0,1.0,-1.0,-1.0,1651072510654618.0
3.0,0.0,8.0,1.0,-6.0,-5.0,1.0,0.0,1651072510655293.0
-2.0,-5.0,-5.0,-2.0,-3.0,1.0,-2.0,-1.0,1651072510655293.0
0.0,3.0,1.0,-2.0,-6.0,-1.0,-3.0,-1.0,1651072510677559.0
0.0,-5.0,-2.0,0.0,5.0,-2.0,0.0,-1.0,1651072510677559.0
0.0,3.0,-3.0,0.0,-3.0,0.0,1.0,-1.0,1651072510678490.0
1.0,0.0,-2.0,-3.0,4.0,-9.0,-1.0,-1.0,1651072510678490.0
-2.0,-1.0,-2.0,-3.0,-3.0,13.0,1.0,-1.0,1651072510691456.0
1.0,-3.0,1.0,-4.0,-2.0,-1.0,1.0,1.0,1651072510691456.0
-1.0,-1.0,2.0,1.0,0.0,-2.0,1.0,-1.0,1651072510692452.0
1.0,0.0,3.0,2.0,-3.0,-5.0,-3.0,-2.0,1651072510692452.0
0.0,-6.0,-14.0,-10.0,-1.0,-5.0,-2.0,0.0,1651072510714576.0
0.0,1.0,0.0,1.0,4.0,7.0,2.0,0.0,1651072510714576.0
7.0,2.0,9.0,0.0,2.0,-4.0,-2.0,0.0,1651072510715507.0
-19.0,-14.0,-19.0,1.0,-3.0,4.0,0.0,-1.0,1651072510715507.0
0.0,1.0,16.0,6.0,5.0,0.0,2.0,2.0,1651072510745345.0
-1.0,-2.0,-9.0,-7.0,-6.0,-4.0,-1.0,0.0,1651072510745345.0
0.0,2.0,-1.0,-3.0,2.0,0.0,-2.0,0.0,1651072510745345.0
6.0,2.0,1.0,-3.0,0.0,1.0,-1.0,0.0,1651072510745345.0
-3.0,1.0,10.0,12.0,-2.0,-8.0,-2.0,-1.0,1651072510751280.0
0.0,-1.0,-2.0,2.0,6.0,3.0,1.0,0.0,1651072510751280.0
4.0,-2.0,-11.0,-15.0,-6.0,-3.0,-1.0,-3.0,1651072510759286.0
-6.0,-6.0,-1.0,2.0,1.0,2.0,0.0,0.0,1651072510759286.0
24.0,17.0,1.0,-2.0,-3.0,-2.0,0.0,-2.0,1651072510773833.0
-22.0,-2.0,2.0,-6.0,-4.0,-1.0,-3.0,-1.0,1651072510773833.0
-4.0,-5.0,4.0,12.0,2.0,2.0,-1.0,0.0,1651072510774834.0
19.0,16.0,5.0,8.0,2.0,2.0,0.0,-1.0,1651072510774834.0
-19.0,-25.0,-10.0,4.0,1.0,-13.0,0.0,-2.0,1651072510797799.0
3.0,-1.0,8.0,9.0,-9.0,10.0,0.0,0.0,1651072510797799.0
-4.0,-1.0,-4.0,-14.0,6.0,-1.0,1.0,1.0,1651072510797799.0
-3.0,5.0,1.0,-4.0,1.0,4.0,-2.0,-1.0,1651072510797799.0
-1.0,8.0,12.0,1.0,-1.0,0.0,0.0,1.0,1651072510810805.0
10.0,-4.0,-16.0,-1.0,-2.0,-9.0,-1.0,-2.0,1651072510810805.0
-25.0,-5.0,0.0,3.0,5.0,9.0,3.0,0.0,1651072510819718.0
2.0,-5.0,-14.0,-14.0,-6.0,-3.0,-3.0,-2.0,1651072510819718.0
0.0,2.0,-2.0,-6.0,0.0,0.0,1.0,0.0,1651072510834736.0
-2.0,2.0,30.0,9.0,-3.0,-5.0,-1.0,-1.0,1651072510834736.0
9.0,0.0,-14.0,20.0,3.0,-1.0,0.0,-2.0,1651072510834736.0
-4.0,3.0,11.0,-1.0,1.0,0.0,-1.0,1.0,1651072510834736.0
2.0,-8.0,-16.0,-27.0,-9.0,-2.0,-3.0,-2.0,1651072510857905.0
6.0,-1.0,-3.0,-9.0,-3.0,-1.0,-1.0,0.0,1651072510857905.0
-14.0,-10.0,17.0,20.0,-6.0,-4.0,-3.0,-3.0,1651072510858843.0
27.0,8.0,-8.0,-9.0,0.0,2.0,1.0,1.0,1651072510858843.0
0.0,-1.0,-2.0,-3.0,4.0,1.0,-1.0,0.0,1651072510870866.0
-16.0,11.0,10.0,1.0,-1.0,-1.0,2.0,4.0,1651072510870866.0
1.0,-5.0,-3.0,9.0,0.0,-1.0,-2.0,-2.0,1651072510879789.0
-2.0,-10.0,-5.0,-11.0,5.0,3.0,3.0,2.0,1651072510879789.0
-1.0,0.0,18.0,-12.0,-11.0,-3.0,-4.0,-3.0,1651072510894009.0
62.0,24.0,-22.0,14.0,6.0,-1.0,-3.0,-2.0,1651072510894009.0
-66.0,-58.0,-38.0,-1.0,-3.0,-3.0,1.0,-2.0,1651072510895006.0
-9.0,16.0,10.0,24.0,-3.0,-2.0,-2.0,-5.0,1651072510895006.0
-3.0,-1.0,-13.0,-32.0,6.0,4.0,1.0,0.0,1651072510917159.0
0.0,-4.0,12.0,14.0,-3.0,0.0,2.0,1.0,1651072510917159.0
26.0,7.0,-81.0,-16.0,-10.0,-6.0,-3.0,-5.0,1651072510918101.0
-7.0,-6.0,21.0,2.0,1.0,-8.0,-3.0,0.0,1651072510918101.0
-15.0,8.0,-4.0,-4.0,10.0,16.0,3.0,-1.0,1651072510931155.0
0.0,-8.0,10.0,11.0,3.0,0.0,0.0,4.0,1651072510931155.0
33.0,19.0,34.0,-33.0,-3.0,0.0,-2.0,-1.0,1651072510939204.0
-40.0,-7.0,15.0,-10.0,-1.0,-1.0,1.0,0.0,1651072510939204.0
14.0,-1.0,-19.0,38.0,-5.0,-8.0,-3.0,-1.0,1651072510954284.0
-13.0,-2.0,-4.0,-23.0,-1.0,2.0,-2.0,-1.0,1651072510954284.0
8.0,9.0,31.0,10.0,4.0,-6.0,-2.0,3.0,1651072510955214.0
13.0,-5.0,-46.0,-24.0,-5.0,5.0,1.0,0.0,1651072510955214.0
1.0,-3.0,43.0,22.0,6.0,4.0,2.0,1.0,1651072510977748.0
-10.0,-6.0,-8.0,6.0,-1.0,-2.0,-2.0,-4.0,1651072510977748.0
1.0,4.0,17.0,0.0,0.0,-1.0,1.0,1.0,1651072510977748.0
8.0,4.0,7.0,5.0,-5.0,0.0,1.0,0.0,1651072510977748.0
-4.0,-2.0,-15.0,12.0,3.0,1.0,1.0,-1.0,1651072510990714.0
-7.0,-3.0,-7.0,-38.0,-6.0,-4.0,-2.0,-4.0,1651072510990714.0
8.0,12.0,24.0,45.0,6.0,1.0,1.0,1.0,1651072510999697.0
3.0,2.0,-7.0,14.0,7.0,4.0,1.0,1.0,1651072510999697.0
-4.0,-8.0,-11.0,-21.0,-10.0,-9.0,-4.0,-6.0,1651072511015088.0
-2.0,0.0,-7.0,2.0,1.0,1.0,0.0,0.0,1651072511015088.0
-2.0,0.0,-11.0,-38.0,-3.0,-2.0,-1.0,1.0,1651072511022301.0
1.0,-8.0,11.0,19.0,1.0,10.0,0.0,-1.0,1651072511022301.0
-4.0,1.0,10.0,7.0,-1.0,-3.0,0.0,-1.0,1651072511037442.0
0.0,4.0,0.0,-15.0,-2.0,-2.0,0.0,-1.0,1651072511037442.0
2.0,4.0,9.0,8.0,2.0,4.0,0.0,1.0,1651072511038397.0
1.0,-7.0,-4.0,7.0,-3.0,-7.0,-1.0,-1.0,1651072511038397.0
-5.0,7.0,-2.0,-2.0,-2.0,-1.0,1.0,0.0,1651072511051420.0
-4.0,-6.0,5.0,12.0,2.0,4.0,2.0,-1.0,1651072511051420.0
2.0,1.0,-10.0,-8.0,-1.0,0.0,0.0,-2.0,1651072511059401.0
-1.0,-3.0,-21.0,-32.0,-9.0,-7.0,-2.0,0.0,1651072511059401.0
5.0,4.0,3.0,21.0,7.0,5.0,1.0,3.0,1651072511074580.0
-6.0,-6.0,-2.0,-6.0,-6.0,-2.0,-4.0,-3.0,1651072511074580.0
-1.0,0.0,-4.0,-16.0,-3.0,1.0,-1.0,-1.0,1651072511074580.0
3.0,-1.0,5.0,6.0,1.0,-2.0,-2.0,-2.0,1651072511074580.0
1.0,1.0,8.0,-11.0,0.0,1.0,1.0,2.0,1651072511097035.0
-6.0,-2.0,-12.0,9.0,6.0,-2.0,1.0,1.0,1651072511097035.0
2.0,4.0,8.0,11.0,-3.0,3.0,-2.0,0.0,1651072511097979.0
-1.0,2.0,11.0,3.0,-1.0,-1.0,0.0,-3.0,1651072511097979.0
2.0,1.0,-11.0,-8.0,-3.0,-3.0,1.0,1.0,1651072511120110.0
0.0,-1.0,7.0,-7.0,-3.0,-1.0,-3.0,0.0,1651072511120110.0
-1.0,-1.0,-9.0,-6.0,0.0,-2.0,-1.0,0.0,1651072511121107.0
-2.0,-3.0,4.0,8.0,0.0,-2.0,0.0,0.0,1651072511121107.0
3.0,2.0,-3.0,5.0,1.0,1.0,-1.0,-1.0,1651072511134666.0
2.0,-5.0,2.0,-9.0,-2.0,-1.0,0.0,0.0,1651072511134666.0
1.0,5.0,-13.0,-15.0,-3.0,1.0,2.0,-2.0,1651072511134666.0
0.0,4.0,6.0,11.0,-1.0,0.0,0.0,-1.0,1651072511134666.0
0.0,-1.0,14.0,5.0,-5.0,-2.0,-1.0,-1.0,1651072511157816.0
-5.0,-7.0,-32.0,-5.0,4.0,-1.0,-3.0,-1.0,1651072511157816.0
-1.0,-3.0,20.0,2.0,1.0,1.0,-2.0,-2.0,1651072511157816.0
1.0,-3.0,10.0,-8.0,2.0,2.0,0.0,1.0,1651072511157816.0
0.0,-4.0,-7.0,14.0,-1.0,-2.0,-4.0,-2.0,1651072511179450.0
-1.0,6.0,6.0,3.0,-3.0,-2.0,-1.0,-1.0,1651072511179450.0
-1.0,-2.0,0.0,-4.0,-3.0,-1.0,-1.0,0.0,1651072511186574.0
-1.0,-14.0,-21.0,-14.0,-2.0,-2.0,-2.0,0.0,1651072511186574.0
-2.0,2.0,5.0,0.0,-1.0,-1.0,-1.0,-2.0,1651072511194586.0
-1.0,-5.0,-3.0,-1.0,-3.0,-1.0,1.0,0.0,1651072511194586.0
2.0,5.0,6.0,2.0,1.0,-1.0,2.0,1.0,1651072511194586.0
0.0,9.0,25.0,-1.0,-1.0,0.0,-1.0,0.0,1651072511194586.0
-1.0,-5.0,-5.0,21.0,3.0,0.0,-2.0,-1.0,1651072511217708.0
2.0,2.0,5.0,2.0,0.0,2.0,-1.0,-1.0,1651072511217708.0
-1.0,-4.0,-6.0,-9.0,-1.0,1.0,-1.0,-1.0,1651072511218649.0
1.0,9.0,-9.0,-3.0,-4.0,0.0,0.0,-1.0,1651072511218649.0
-1.0,-6.0,5.0,-4.0,2.0,2.0,0.0,0.0,1651072511239685.0
1.0,3.0,3.0,5.0,0.0,0.0,1.0,-1.0,1651072511239685.0
0.0,0.0,11.0,-4.0,-1.0,-1.0,0.0,-1.0,1651072511240658.0
0.0,3.0,-13.0,-7.0,0.0,0.0,-1.0,0.0,1651072511240658.0
-2.0,1.0,-1.0,23.0,5.0,-1.0,2.0,-1.0,1651072511254764.0
0.0,6.0,6.0,-4.0,-6.0,-4.0,-1.0,-1.0,1651072511254764.0
-3.0,-10.0,-13.0,-1.0,-2.0,-4.0,0.0,-2.0,1651072511254764.0
-1.0,-1.0,1.0,4.0,-1.0,0.0,-1.0,-2.0,1651072511254764.0
-3.0,-3.0,-2.0,-17.0,-3.0,-1.0,-2.0,0.0,1651072511277601.0
-3.0,-2.0,0.0,-2.0,-2.0,-1.0,-1.0,-1.0,1651072511277601.0
1.0,6.0,2.0,10.0,-2.0,0.0,-1.0,1.0,1651072511278604.0
0.0,-6.0,-3.0,4.0,4.0,-2.0,0.0,1.0,1651072511278604.0
2.0,3.0,6.0,-3.0,2.0,5.0,2.0,1.0,1651072511300396.0
1.0,-3.0,2.0,-2.0,-2.0,0.0,0.0,0.0,1651072511300396.0
1.0,6.0,0.0,-1.0,-5.0,-8.0,-3.0,-1.0,1651072511300396.0
-2.0,-7.0,6.0,23.0,5.0,0.0,-2.0,-1.0,1651072511300396.0
-2.0,-1.0,-19.0,-19.0,0.0,2.0,-2.0,-2.0,1651072511314428.0
-2.0,-1.0,-7.0,-3.0,0.0,5.0,-2.0,0.0,1651072511314428.0
0.0,1.0,-7.0,-10.0,-4.0,-2.0,-1.0,0.0,1651072511315358.0
2.0,2.0,10.0,2.0,0.0,-2.0,-2.0,0.0,1651072511315358.0
-1.0,0.0,-2.0,-8.0,-4.0,-4.0,0.0,-1.0,1651072511337582.0
-1.0,0.0,10.0,10.0,1.0,0.0,-1.0,-1.0,1651072511337582.0
0.0,-5.0,-7.0,9.0,2.0,2.0,0.0,-1.0,1651072511338598.0
1.0,7.0,1.0,-11.0,-4.0,-4.0,0.0,1.0,1651072511338598.0
0.0,2.0,12.0,-12.0,-2.0,2.0,0.0,0.0,1651072511360053.0
2.0,-4.0,1.0,5.0,4.0,1.0,1.0,-1.0,1651072511360053.0
-3.0,2.0,16.0,23.0,1.0,-2.0,-3.0,-3.0,1651072511361072.0
-1.0,-11.0,-19.0,-12.0,-5.0,-1.0,-2.0,-1.0,1651072511361072.0
0.0,0.0,-10.0,-21.0,-3.0,1.0,0.0,1.0,1651072511374560.0
-2.0,1.0,-5.0,-1.0,-4.0,-6.0,0.0,0.0,1651072511374560.0
0.0,7.0,17.0,3.0,3.0,2.0,0.0,0.0,1651072511374560.0
-1.0,-4.0,-12.0,-6.0,-1.0,0.0,-2.0,-1.0,1651072511374560.0
0.0,-2.0,1.0,8.0,-5.0,-5.0,-1.0,0.0,1651072511397735.0
0.0,-5.0,-10.0,-2.0,4.0,0.0,0.0,1.0,1651072511397735.0
-1.0,-4.0,0.0,3.0,0.0,2.0,1.0,-1.0,1651072511398671.0
-2.0,1.0,2.0,2.0,-1.0,1.0,2.0,-1.0,1651072511398671.0
0.0,0.0,-4.0,1.0,-2.0,-2.0,-2.0,1.0,1651072511419692.0
-2.0,1.0,4.0,3.0,1.0,-11.0,-1.0,-2.0,1651072511419692.0
0.0,-4.0,3.0,-3.0,0.0,14.0,0.0,1.0,1651072511420628.0
0.0,1.0,-5.0,-11.0,-1.0,1.0,1.0,0.0,1651072511420628.0
1.0,3.0,14.0,10.0,-1.0,-7.0,-1.0,4.0,1651072511434664.0
-5.0,-8.0,-16.0,-8.0,-8.0,-6.0,-3.0,-4.0,1651072511434664.0
2.0,8.0,19.0,-6.0,14.0,11.0,1.0,1.0,1651072511434664.0
-6.0,-15.0,-3.0,14.0,-2.0,-3.0,-5.0,-4.0,1651072511434664.0
0.0,2.0,0.0,-10.0,-3.0,-2.0,-1.0,-2.0,1651072511464474.0
0.0,-1.0,-1.0,-1.0,-10.0,-7.0,0.0,3.0,1651072511464474.0
1.0,1.0,2.0,2.0,0.0,-4.0,-1.0,0.0,1651072511465453.0
0.0,6.0,-2.0,-8.0,-1.0,5.0,2.0,1.0,1651072511465453.0
-1.0,-5.0,-3.0,0.0,2.0,-2.0,-1.0,-1.0,1651072511480415.0
-1.0,1.0,-2.0,7.0,1.0,4.0,-1.0,0.0,1651072511480415.0
0.0,-3.0,-15.0,-3.0,-3.0,-2.0,0.0,-1.0,1651072511480415.0
2.0,4.0,8.0,1.0,0.0,0.0,2.0,0.0,1651072511480415.0
-2.0,-6.0,-11.0,1.0,0.0,-1.0,-1.0,-1.0,1651072511494516.0
1.0,6.0,9.0,4.0,2.0,4.0,3.0,1.0,1651072511494516.0
-1.0,-7.0,-11.0,-7.0,-3.0,0.0,-1.0,-1.0,1651072511494516.0
0.0,2.0,-2.0,12.0,4.0,-2.0,-1.0,0.0,1651072511494516.0
0.0,-1.0,2.0,-12.0,-6.0,-7.0,-3.0,-3.0,1651072511517509.0
0.0,1.0,5.0,13.0,7.0,15.0,0.0,0.0,1651072511517509.0
1.0,-1.0,-5.0,-2.0,-2.0,-2.0,2.0,-1.0,1651072511518462.0
1.0,4.0,15.0,5.0,-13.0,-12.0,-1.0,0.0,1651072511518462.0
-1.0,3.0,-8.0,-9.0,1.0,5.0,0.0,-1.0,1651072511540373.0
2.0,-2.0,-7.0,-7.0,9.0,3.0,0.0,0.0,1651072511540373.0
-2.0,-2.0,-3.0,11.0,-3.0,-5.0,0.0,0.0,1651072511540373.0
-1.0,4.0,3.0,-4.0,6.0,9.0,1.0,1.0,1651072511540373.0
1.0,1.0,2.0,2.0,-4.0,-5.0,-2.0,-2.0,1651072511554413.0
-1.0,2.0,7.0,-2.0,-6.0,-6.0,-1.0,-2.0,1651072511554413.0
0.0,0.0,-2.0,-8.0,0.0,0.0,0.0,-1.0,1651072511555406.0
1.0,0.0,0.0,9.0,2.0,-1.0,0.0,1.0,1651072511555406.0
-1.0,-2.0,4.0,0.0,0.0,0.0,-1.0,0.0,1651072511577501.0
-2.0,-3.0,2.0,5.0,1.0,0.0,-1.0,-3.0,1651072511577501.0
0.0,-2.0,-5.0,-8.0,-3.0,-2.0,-2.0,-1.0,1651072511578497.0
0.0,-2.0,2.0,-5.0,-1.0,1.0,0.0,-2.0,1651072511578497.0
-1.0,-1.0,-5.0,8.0,1.0,1.0,-1.0,0.0,1651072511600398.0
1.0,7.0,14.0,-3.0,-3.0,2.0,1.0,1.0,1651072511600398.0
-4.0,-8.0,-14.0,6.0,-3.0,-17.0,-2.0,-1.0,1651072511600398.0
1.0,-1.0,-3.0,-17.0,1.0,15.0,0.0,1.0,1651072511600398.0
-2.0,-4.0,-1.0,16.0,6.0,7.0,1.0,1.0,1651072511614363.0
-1.0,0.0,4.0,-3.0,-4.0,-10.0,-2.0,-2.0,1651072511614363.0
0.0,1.0,-5.0,-3.0,0.0,-2.0,-2.0,0.0,1651072511615385.0
0.0,2.0,5.0,1.0,1.0,2.0,2.0,-1.0,1651072511615385.0
-1.0,-4.0,-17.0,-4.0,3.0,4.0,2.0,1.0,1651072511637451.0
-2.0,-5.0,-8.0,-1.0,2.0,5.0,0.0,0.0,1651072511637451.0
0.0,4.0,13.0,4.0,-5.0,-4.0,-1.0,-2.0,1651072511638422.0
-2.0,-3.0,-11.0,-11.0,-9.0,-7.0,-2.0,0.0,1651072511638422.0
1.0,-2.0,-7.0,-6.0,1.0,1.0,-1.0,-2.0,1651072511660023.0
0.0,-2.0,1.0,-6.0,-3.0,-5.0,0.0,-1.0,1651072511660023.0
0.0,-1.0,3.0,5.0,-1.0,2.0,-2.0,0.0,1651072511661016.0
0.0,2.0,3.0,-2.0,2.0,-3.0,0.0,-1.0,1651072511661016.0
-1.0,-1.0,-2.0,16.0,-4.0,-4.0,-2.0,-1.0,1651072511673785.0
1.0,1.0,3.0,-3.0,-1.0,-3.0,0.0,0.0,1651072511673785.0
0.0,-7.0,-12.0,-5.0,3.0,6.0,1.0,0.0,1651072511681765.0
-1.0,-2.0,-5.0,-7.0,-5.0,-1.0,-2.0,-1.0,1651072511681765.0
-2.0,-3.0,-9.0,-5.0,-2.0,-4.0,-3.0,0.0,1651072511697787.0
-1.0,-2.0,9.0,5.0,1.0,1.0,0.0,-2.0,1651072511697787.0
1.0,3.0,-4.0,0.0,1.0,5.0,1.0,1.0,1651072511697787.0
0.0,1.0,6.0,0.0,5.0,2.0,0.0,-1.0,1651072511697787.0
0.0,3.0,9.0,-1.0,-5.0,-3.0,0.0,0.0,1651072511719851.0
0.0,-8.0,-12.0,-1.0,0.0,0.0,0.0,0.0,1651072511719851.0
-2.0,-2.0,-4.0,-4.0,-1.0,-2.0,0.0,-1.0,1651072511720782.0
-2.0,-2.0,-1.0,5.0,0.0,-4.0,-3.0,-1.0,1651072511720782.0
0.0,3.0,4.0,-8.0,-1.0,0.0,1.0,2.0,1651072511742728.0
-1.0,1.0,-2.0,-5.0,-2.0,-1.0,-1.0,0.0,1651072511742728.0
-1.0,-2.0,-1.0,1.0,-2.0,-3.0,-2.0,-2.0,1651072511742728.0
0.0,-2.0,-1.0,0.0,0.0,0.0,0.0,-1.0,1651072511742728.0
2.0,1.0,-9.0,-13.0,-2.0,3.0,0.0,0.0,1651072511757749.0
-2.0,-10.0,-11.0,9.0,-1.0,-3.0,-2.0,-1.0,1651072511757749.0
0.0,0.0,-1.0,-2.0,1.0,3.0,-1.0,-1.0,1651072511757749.0
-1.0,1.0,2.0,1.0,2.0,-2.0,0.0,-2.0,1651072511757749.0
0.0,0.0,3.0,1.0,1.0,1.0,1.0,0.0,1651072511779748.0
-1.0,2.0,1.0,-2.0,-2.0,3.0,1.0,0.0,1651072511779748.0
0.0,1.0,-1.0,-3.0,-1.0,-1.0,-2.0,0.0,1651072511780678.0
0.0,-6.0,-5.0,-2.0,-6.0,-3.0,-2.0,-1.0,1651072511780678.0
-1.0,0.0,4.0,1.0,1.0,-8.0,0.0,-2.0,1651072511793695.0
0.0,3.0,0.0,18.0,-3.0,4.0,1.0,-1.0,1651072511793695.0
0.0,1.0,1.0,-5.0,4.0,0.0,1.0,0.0,1651072511801742.0
0.0,1.0,0.0,1.0,6.0,11.0,1.0,0.0,1651072511801742.0
2.0,-1.0,3.0,2.0,1.0,0.0,-1.0,-3.0,1651072511824767.0
-1.0,-4.0,-6.0,-13.0,-4.0,-6.0,-2.0,0.0,1651072511824767.0
-1.0,3.0,7.0,4.0,-6.0,-2.0,0.0,-1.0,1651072511825697.0
-2.0,-7.0,-11.0,-7.0,-7.0,-8.0,-1.0,-2.0,1651072511825697.0
-1.0,4.0,11.0,5.0,3.0,1.0,-2.0,1.0,1651072511839726.0
0.0,2.0,-1.0,-3.0,1.0,1.0,0.0,0.0,1651072511839726.0
1.0,0.0,4.0,5.0,1.0,1.0,-1.0,0.0,1651072511840664.0
-1.0,-1.0,-2.0,-5.0,-4.0,-4.0,-2.0,-2.0,1651072511840664.0
0.0,0.0,2.0,-2.0,0.0,3.0,1.0,1.0,1651072511853690.0
1.0,1.0,-5.0,-14.0,0.0,-1.0,0.0,3.0,1651072511853690.0
-2.0,-1.0,10.0,22.0,-3.0,0.0,-2.0,-1.0,1651072511861668.0
1.0,3.0,11.0,11.0,0.0,-4.0,0.0,1.0,1651072511861668.0
-2.0,-3.0,-7.0,-11.0,-4.0,-3.0,-2.0,-2.0,1651072511877632.0
1.0,1.0,-2.0,-8.0,6.0,6.0,3.0,1.0,1651072511877632.0
-1.0,-4.0,-17.0,-13.0,-5.0,1.0,0.0,1.0,1651072511878602.0
1.0,2.0,0.0,5.0,-3.0,-2.0,-2.0,2.0,1651072511878602.0
2.0,-4.0,0.0,4.0,6.0,1.0,1.0,0.0,1651072511899693.0
-1.0,1.0,3.0,-4.0,-8.0,-5.0,-2.0,-3.0,1651072511899693.0
-2.0,-1.0,0.0,3.0,5.0,2.0,0.0,-1.0,1651072511900691.0
-2.0,5.0,5.0,2.0,-1.0,-2.0,0.0,-1.0,1651072511900691.0
0.0,-3.0,-8.0,-1.0,-4.0,-2.0,1.0,-1.0,1651072511913724.0
1.0,3.0,5.0,0.0,1.0,4.0,-2.0,1.0,1651072511913724.0
0.0,0.0,-3.0,-11.0,-7.0,-5.0,-1.0,0.0,1651072511921766.0
-1.0,1.0,-3.0,0.0,2.0,1.0,0.0,1.0,1651072511921766.0
-2.0,-5.0,-8.0,1.0,-5.0,-1.0,-1.0,-2.0,1651072511936900.0
-1.0,-3.0,3.0,8.0,8.0,2.0,-1.0,-1.0,1651072511936900.0
-2.0,0.0,3.0,-7.0,-8.0,-1.0,0.0,0.0,1651072511937830.0
0.0,1.0,-9.0,-2.0,-2.0,-4.0,0.0,-1.0,1651072511937830.0
1.0,3.0,9.0,0.0,-5.0,3.0,1.0,1.0,1651072511960986.0
1.0,-1.0,-9.0,-2.0,-4.0,-6.0,1.0,1.0,1651072511960986.0
0.0,0.0,4.0,-1.0,4.0,-6.0,-2.0,0.0,1651072511961644.0
0.0,-2.0,-2.0,0.0,4.0,14.0,1.0,0.0,1651072511961644.0
1.0,1.0,11.0,8.0,8.0,7.0,3.0,2.0,1651072511974011.0
-1.0,-2.0,-3.0,2.0,0.0,1.0,0.0,-1.0,1651072511974011.0
1.0,0.0,1.0,0.0,-15.0,-12.0,0.0,-2.0,1651072511981600.0
-1.0,-1.0,5.0,-3.0,8.0,-2.0,0.0,-1.0,1651072511981600.0
-1.0,-1.0,-3.0,-4.0,-2.0,2.0,-2.0,0.0,1651072511996467.0
1.0,-1.0,4.0,4.0,4.0,-1.0,-1.0,1.0,1651072511996467.0
-1.0,-2.0,-7.0,-1.0,5.0,3.0,-1.0,2.0,1651072511997452.0
-1.0,0.0,0.0,-1.0,-14.0,-6.0,0.0,0.0,1651072511997452.0
-3.0,-1.0,-8.0,-9.0,-5.0,-3.0,0.0,-3.0,1651072512020190.0
0.0,2.0,1.0,-5.0,0.0,-3.0,0.0,0.0,1651072512020190.0
0.0,-8.0,1.0,3.0,6.0,2.0,0.0,-2.0,1651072512021165.0
0.0,-2.0,-4.0,1.0,-1.0,0.0,-1.0,0.0,1651072512021165.0
-2.0,5.0,3.0,-2.0,-1.0,-10.0,-1.0,-3.0,1651072512042717.0
-3.0,-1.0,-3.0,-3.0,-3.0,4.0,0.0,-2.0,1651072512042717.0
-1.0,-1.0,7.0,3.0,5.0,8.0,0.0,1.0,1651072512042717.0
0.0,-3.0,-10.0,0.0,2.0,0.0,-1.0,0.0,1651072512042717.0
0.0,-1.0,8.0,4.0,2.0,1.0,-4.0,-2.0,1651072512056634.0
0.0,1.0,-4.0,3.0,-7.0,-9.0,-2.0,0.0,1651072512056634.0
-2.0,-3.0,1.0,-3.0,-2.0,-2.0,-2.0,-2.0,1651072512057565.0
-2.0,-1.0,-3.0,-2.0,4.0,2.0,2.0,-1.0,1651072512057565.0
-2.0,0.0,-5.0,-6.0,-16.0,-4.0,0.0,0.0,1651072512079707.0
-3.0,-5.0,-17.0,5.0,6.0,-2.0,-2.0,-1.0,1651072512079707.0
0.0,5.0,8.0,-2.0,4.0,5.0,0.0,1.0,1651072512080637.0
0.0,-2.0,-4.0,-16.0,-9.0,-5.0,-2.0,0.0,1651072512080637.0
0.0,-1.0,-2.0,7.0,5.0,1.0,2.0,0.0,1651072512102766.0
-1.0,1.0,19.0,1.0,-7.0,-1.0,-1.0,1.0,1651072512102766.0
1.0,-5.0,-37.0,-11.0,0.0,-2.0,0.0,-1.0,1651072512102766.0
-2.0,-1.0,15.0,30.0,6.0,2.0,-1.0,-1.0,1651072512102766.0
-4.0,-3.0,-21.0,-3.0,2.0,1.0,-1.0,-1.0,1651072512116703.0
0.0,-4.0,-2.0,-7.0,2.0,3.0,0.0,1.0,1651072512116703.0
0.0,1.0,3.0,-4.0,-10.0,-6.0,-2.0,-1.0,1651072512117634.0
0.0,-2.0,-11.0,0.0,1.0,-4.0,-1.0,-2.0,1651072512117634.0
-8.0,-3.0,2.0,-10.0,-6.0,-3.0,-4.0,-5.0,1651072512140372.0
-1.0,0.0,4.0,1.0,2.0,3.0,0.0,-3.0,1651072512140372.0
6.0,7.0,3.0,2.0,8.0,5.0,6.0,4.0,1651072512140372.0
-6.0,-5.0,-4.0,-14.0,-4.0,-4.0,-3.0,-3.0,1651072512140372.0
-2.0,-19.0,6.0,0.0,-8.0,-7.0,-4.0,-2.0,1651072512162887.0
17.0,18.0,3.0,10.0,6.0,8.0,3.0,2.0,1651072512162887.0
-22.0,-15.0,0.0,8.0,-4.0,-7.0,-1.0,0.0,1651072512162887.0
1.0,11.0,5.0,3.0,9.0,2.0,-1.0,0.0,1651072512162887.0
-8.0,-9.0,6.0,-4.0,3.0,-2.0,-4.0,-6.0,1651072512176881.0
-2.0,14.0,-1.0,-10.0,-7.0,-4.0,-5.0,-6.0,1651072512176881.0
25.0,-15.0,2.0,-11.0,0.0,7.0,6.0,8.0,1651072512177849.0
0.0,-11.0,-16.0,-2.0,0.0,-1.0,2.0,0.0,1651072512177849.0
6.0,12.0,2.0,22.0,2.0,-1.0,0.0,1.0,1651072512200400.0
-1.0,-3.0,-4.0,-3.0,-2.0,-3.0,-3.0,-4.0,1651072512200400.0
9.0,27.0,19.0,7.0,4.0,2.0,-2.0,-1.0,1651072512200400.0
-17.0,8.0,4.0,-13.0,-7.0,-1.0,-3.0,-7.0,1651072512200400.0
-36.0,-44.0,-6.0,-3.0,5.0,3.0,3.0,4.0,1651072512222657.0
-15.0,31.0,20.0,4.0,5.0,1.0,-1.0,-3.0,1651072512222657.0
48.0,-19.0,-19.0,-5.0,-8.0,-4.0,1.0,-1.0,1651072512223604.0
-33.0,1.0,-11.0,-14.0,-7.0,-2.0,4.0,3.0,1651072512223604.0
15.0,7.0,16.0,23.0,6.0,0.0,1.0,2.0,1651072512236635.0
8.0,-42.0,6.0,6.0,-1.0,-1.0,2.0,5.0,1651072512236635.0
-21.0,55.0,8.0,-5.0,4.0,0.0,-4.0,-5.0,1651072512237570.0
29.0,-60.0,37.0,10.0,-1.0,1.0,-1.0,2.0,1651072512237570.0
39.0,67.0,-71.0,-37.0,-10.0,2.0,6.0,11.0,1651072512259682.0
-2.0,114.0,-1.0,-17.0,-6.0,-5.0,-3.0,2.0,1651072512259682.0
-7.0,-120.0,0.0,28.0,7.0,-2.0,-4.0,-5.0,1651072512260623.0
-49.0,-17.0,-19.0,3.0,-2.0,-9.0,-14.0,-24.0,1651072512260623.0
0.0,29.0,40.0,5.0,9.0,12.0,10.0,11.0,1651072512282743.0
-14.0,-41.0,-30.0,-19.0,-13.0,-10.0,-8.0,-11.0,1651072512282743.0
6.0,-29.0,2.0,-11.0,3.0,8.0,8.0,10.0,1651072512282743.0
-1.0,-60.0,-31.0,4.0,-7.0,-7.0,-1.0,2.0,1651072512282743.0
-9.0,45.0,-17.0,-26.0,-5.0,-4.0,-5.0,-9.0,1651072512296822.0
5.0,-20.0,14.0,44.0,13.0,2.0,-3.0,-3.0,1651072512296822.0
-16.0,-1.0,1.0,4.0,-7.0,-5.0,-5.0,-7.0,1651072512297752.0
0.0,10.0,21.0,0.0,-13.0,-3.0,4.0,3.0,1651072512297752.0
16.0,-81.0,-6.0,-15.0,11.0,5.0,1.0,4.0,1651072512319762.0
4.0,34.0,-14.0,-3.0,28.0,17.0,8.0,1.0,1651072512319762.0
4.0,5.0,25.0,23.0,-2.0,-1.0,1.0,0.0,1651072512320691.0
16.0,-22.0,-24.0,-22.0,-7.0,-4.0,-2.0,4.0,1651072512320691.0
-15.0,-2.0,2.0,-9.0,-29.0,-12.0,-7.0,-7.0,1651072512342799.0
6.0,-64.0,23.0,27.0,5.0,-5.0,1.0,1.0,1651072512342799.0
-18.0,13.0,-15.0,-14.0,10.0,8.0,1.0,0.0,1651072512342799.0
16.0,42.0,3.0,18.0,-13.0,-10.0,1.0,3.0,1651072512342799.0
0.0,38.0,38.0,38.0,28.0,11.0,2.0,-3.0,1651072512356637.0
-19.0,-101.0,-6.0,-38.0,-20.0,-3.0,-3.0,-2.0,1651072512356637.0
12.0,13.0,-61.0,-19.0,-5.0,-6.0,0.0,5.0,1651072512364621.0
4.0,-4.0,31.0,6.0,18.0,12.0,-1.0,-2.0,1651072512364621.0
-34.0,-1.0,-28.0,0.0,-20.0,-15.0,-16.0,-18.0,1651072512379656.0
-30.0,-60.0,28.0,9.0,-21.0,-11.0,-4.0,-10.0,1651072512379656.0
-10.0,91.0,-9.0,-7.0,5.0,7.0,2.0,-5.0,1651072512381642.0
41.0,80.0,18.0,-7.0,32.0,7.0,6.0,9.0,1651072512381642.0
-30.0,-98.0,32.0,29.0,41.0,11.0,2.0,-4.0,1651072512402708.0
59.0,127.0,1.0,-6.0,-11.0,5.0,9.0,17.0,1651072512402708.0
-42.0,-58.0,-19.0,-21.0,-30.0,-21.0,-17.0,-23.0,1651072512403711.0
-4.0,18.0,-1.0,17.0,8.0,7.0,6.0,6.0,1651072512403711.0
20.0,34.0,29.0,6.0,0.0,3.0,-4.0,0.0,1651072512415743.0
11.0,25.0,-46.0,-28.0,-6.0,3.0,6.0,9.0,1651072512415743.0
-11.0,-12.0,-2.0,0.0,-14.0,-13.0,-6.0,-6.0,1651072512424767.0
-4.0,20.0,12.0,13.0,-5.0,-13.0,-5.0,-5.0,1651072512424767.0
-6.0,-45.0,12.0,2.0,14.0,13.0,-1.0,-2.0,1651072512440184.0
18.0,35.0,50.0,-3.0,12.0,13.0,5.0,-1.0,1651072512440184.0
0.0,31.0,-65.0,-6.0,-18.0,-2.0,-1.0,6.0,1651072512441184.0
-24.0,-54.0,-29.0,-9.0,25.0,3.0,0.0,-8.0,1651072512441184.0
5.0,2.0,-18.0,-7.0,-12.0,-14.0,-7.0,-1.0,1651072512462449.0
4.0,-12.0,31.0,5.0,-1.0,1.0,5.0,6.0,1651072512462449.0
-9.0,11.0,52.0,16.0,20.0,14.0,2.0,-2.0,1651072512464416.0
43.0,97.0,-19.0,-7.0,-18.0,-3.0,2.0,4.0,1651072512464416.0
9.0,4.0,-7.0,-11.0,-23.0,-9.0,1.0,5.0,1651072512476451.0
-29.0,-42.0,-10.0,1.0,-5.0,-12.0,-10.0,-12.0,1651072512476451.0
20.0,43.0,39.0,7.0,10.0,2.0,6.0,8.0,1651072512485361.0
-15.0,-57.0,-34.0,-5.0,-16.0,3.0,4.0,4.0,1651072512485361.0
15.0,34.0,49.0,1.0,16.0,2.0,2.0,1.0,1651072512500335.0
-17.0,-42.0,-31.0,2.0,8.0,-4.0,-6.0,-3.0,1651072512500335.0
20.0,-4.0,-31.0,-5.0,-7.0,-9.0,-2.0,2.0,1651072512501746.0
-19.0,-19.0,24.0,5.0,-4.0,3.0,-2.0,-8.0,1651072512501746.0
29.0,64.0,-4.0,-4.0,-2.0,2.0,10.0,13.0,1651072512522893.0
-14.0,-89.0,-26.0,-5.0,-18.0,-9.0,-4.0,-4.0,1651072512522893.0
-4.0,-48.0,23.0,8.0,12.0,14.0,4.0,4.0,1651072512523893.0
13.0,81.0,9.0,-8.0,4.0,-2.0,-1.0,3.0,1651072512523893.0
6.0,-19.0,-15.0,5.0,3.0,3.0,0.0,-4.0,1651072512535929.0
-10.0,29.0,5.0,12.0,8.0,3.0,2.0,1.0,1651072512535929.0
1.0,-11.0,-8.0,-7.0,-18.0,-11.0,-7.0,-10.0,1651072512544837.0
2.0,32.0,6.0,-7.0,-2.0,-2.0,-4.0,3.0,1651072512544837.0
0.0,-1.0,-15.0,-4.0,2.0,5.0,5.0,5.0,1651072512559898.0
-2.0,1.0,-1.0,1.0,-1.0,-4.0,-1.0,-5.0,1651072512559898.0
-30.0,-55.0,47.0,2.0,6.0,-2.0,-3.0,-1.0,1651072512561827.0
17.0,29.0,29.0,-3.0,5.0,9.0,3.0,1.0,1651072512561827.0
0.0,3.0,-33.0,-10.0,-11.0,-4.0,-1.0,3.0,1651072512582887.0
1.0,62.0,-8.0,19.0,49.0,18.0,4.0,1.0,1651072512582887.0
0.0,4.0,9.0,-5.0,-13.0,-10.0,-2.0,-2.0,1651072512583884.0
-21.0,-46.0,36.0,6.0,16.0,7.0,3.0,2.0,1651072512583884.0
27.0,111.0,-22.0,-6.0,-18.0,-7.0,2.0,-1.0,1651072512595709.0
-2.0,-62.0,-22.0,-13.0,-25.0,-4.0,-5.0,-1.0,1651072512595709.0
8.0,-4.0,24.0,12.0,24.0,8.0,10.0,12.0,1651072512604767.0
-5.0,-27.0,-40.0,-14.0,-24.0,-9.0,-7.0,-9.0,1651072512604767.0
-20.0,2.0,11.0,6.0,-1.0,0.0,-4.0,-7.0,1651072512618737.0
2.0,29.0,-31.0,-16.0,-22.0,-12.0,-2.0,4.0,1651072512618737.0
10.0,74.0,16.0,6.0,28.0,8.0,1.0,-2.0,1651072512627658.0
-3.0,-31.0,-22.0,-5.0,-8.0,-9.0,-1.0,0.0,1651072512627658.0
-14.0,14.0,14.0,-1.0,4.0,0.0,-2.0,-3.0,1651072512642652.0
3.0,-55.0,-5.0,3.0,12.0,-1.0,-1.0,2.0,1651072512642652.0
12.0,31.0,25.0,-10.0,-13.0,3.0,3.0,5.0,1651072512644621.0
-15.0,-12.0,0.0,12.0,0.0,-4.0,-3.0,-5.0,1651072512644621.0
0.0,-45.0,-11.0,2.0,3.0,0.0,0.0,1.0,1651072512656481.0
-7.0,21.0,13.0,0.0,-13.0,-2.0,-2.0,-4.0,1651072512656481.0
4.0,74.0,-37.0,-10.0,0.0,-1.0,-3.0,-5.0,1651072512665458.0
-10.0,-70.0,-14.0,-3.0,-9.0,-7.0,-3.0,4.0,1651072512665458.0
11.0,69.0,-10.0,-2.0,1.0,3.0,-1.0,1.0,1651072512680418.0
-1.0,-47.0,4.0,-6.0,-12.0,-6.0,-4.0,-1.0,1651072512680418.0
6.0,-14.0,-14.0,4.0,3.0,2.0,1.0,-1.0,1651072512681414.0
8.0,38.0,11.0,3.0,11.0,4.0,1.0,-2.0,1651072512681414.0
-15.0,-28.0,18.0,3.0,-4.0,-4.0,-3.0,-2.0,1651072512702641.0
6.0,12.0,16.0,2.0,-9.0,-3.0,0.0,1.0,1651072512702641.0
-6.0,-69.0,-35.0,0.0,19.0,7.0,4.0,4.0,1651072512703641.0
5.0,32.0,7.0,-1.0,-3.0,2.0,-3.0,-6.0,1651072512703641.0
-6.0,-54.0,-9.0,0.0,0.0,-3.0,-2.0,-1.0,1651072512716617.0
-11.0,24.0,2.0,-1.0,-4.0,-3.0,-2.0,-5.0,1651072512716617.0
7.0,-16.0,3.0,-9.0,-36.0,-18.0,-5.0,0.0,1651072512725309.0
1.0,-20.0,-12.0,2.0,12.0,18.0,7.0,7.0,1651072512725309.0
-3.0,4.0,8.0,2.0,8.0,-3.0,-1.0,-4.0,1651072512739698.0
2.0,-3.0,-29.0,1.0,6.0,2.0,2.0,1.0,1651072512739698.0
7.0,39.0,5.0,0.0,0.0,-2.0,1.0,1.0,1651072512741693.0
-4.0,-13.0,13.0,-4.0,-14.0,-11.0,-7.0,-3.0,1651072512741693.0
-16.0,-52.0,21.0,0.0,-11.0,-4.0,0.0,-2.0,1651072512762666.0
10.0,48.0,-39.0,-11.0,4.0,3.0,-1.0,1.0,1651072512762666.0
-17.0,-37.0,4.0,1.0,1.0,2.0,0.0,-1.0,1651072512763666.0
23.0,63.0,1.0,3.0,2.0,-4.0,6.0,8.0,1651072512763666.0
1.0,-9.0,-1.0,-6.0,-5.0,6.0,-1.0,0.0,1651072512776621.0
-3.0,-4.0,18.0,14.0,28.0,6.0,3.0,1.0,1651072512776621.0
-11.0,-55.0,-13.0,-7.0,-7.0,-4.0,-5.0,-4.0,1651072512784641.0
-4.0,23.0,2.0,0.0,-12.0,-4.0,0.0,-3.0,1651072512784641.0
5.0,-14.0,-8.0,0.0,10.0,2.0,-3.0,0.0,1651072512799705.0
-5.0,-40.0,1.0,-5.0,-9.0,-2.0,0.0,1.0,1651072512799705.0
5.0,36.0,8.0,-1.0,-16.0,-3.0,-2.0,-2.0,1651072512801676.0
-4.0,-4.0,9.0,10.0,17.0,6.0,0.0,-1.0,1651072512801676.0
2.0,-21.0,-9.0,-21.0,-41.0,-18.0,-3.0,6.0,1651072512822740.0
1.0,22.0,21.0,16.0,40.0,14.0,2.0,2.0,1651072512822740.0
-4.0,-3.0,-13.0,3.0,6.0,1.0,1.0,-1.0,1651072512823740.0
-6.0,-41.0,1.0,-8.0,-14.0,-4.0,-4.0,-3.0,1651072512823740.0
-1.0,41.0,1.0,1.0,-17.0,-9.0,-4.0,-4.0,1651072512835774.0
7.0,30.0,-2.0,-4.0,15.0,8.0,4.0,3.0,1651072512835774.0
-3.0,31.0,-3.0,2.0,-5.0,3.0,-1.0,-4.0,1651072512844728.0
-1.0,-42.0,-2.0,0.0,6.0,-1.0,0.0,2.0,1651072512844728.0
-7.0,-25.0,2.0,-2.0,-15.0,-4.0,1.0,0.0,1651072512860309.0
-15.0,-27.0,-14.0,-2.0,2.0,-6.0,-3.0,-5.0,1651072512860309.0
11.0,5.0,9.0,4.0,21.0,8.0,2.0,0.0,1651072512861727.0
0.0,3.0,-13.0,-2.0,12.0,5.0,0.0,4.0,1651072512861727.0
-1.0,-1.0,8.0,2.0,11.0,4.0,-3.0,-10.0,1651072512882467.0
3.0,30.0,19.0,5.0,-17.0,-7.0,0.0,3.0,1651072512882467.0
0.0,5.0,-5.0,-8.0,-10.0,-5.0,-4.0,-2.0,1651072512884403.0
9.0,-14.0,12.0,-1.0,3.0,0.0,0.0,0.0,1651072512884403.0
1.0,35.0,-13.0,-4.0,-3.0,-3.0,1.0,2.0,1651072512896401.0
-5.0,-37.0,0.0,-3.0,-8.0,-5.0,-3.0,-2.0,1651072512896401.0
-7.0,3.0,9.0,-1.0,-15.0,-4.0,0.0,0.0,1651072512905517.0
2.0,0.0,14.0,4.0,0.0,-4.0,0.0,0.0,1651072512905517.0
9.0,7.0,11.0,7.0,23.0,17.0,6.0,6.0,1651072512920395.0
5.0,12.0,-31.0,-14.0,-18.0,-7.0,-6.0,-5.0,1651072512920395.0
-6.0,-36.0,3.0,1.0,6.0,-2.0,-2.0,0.0,1651072512921397.0
-4.0,19.0,-6.0,0.0,-7.0,0.0,0.0,-2.0,1651072512921397.0
-10.0,-8.0,-24.0,-1.0,4.0,-6.0,-4.0,-7.0,1651072512942763.0
7.0,10.0,28.0,-7.0,-25.0,-2.0,1.0,2.0,1651072512942763.0
12.0,17.0,-52.0,-2.0,13.0,-1.0,1.0,3.0,1651072512943714.0
-11.0,14.0,-9.0,-3.0,-1.0,-3.0,-5.0,-7.0,1651072512943714.0
6.0,-38.0,-21.0,6.0,6.0,1.0,2.0,4.0,1651072512955741.0
-10.0,8.0,6.0,3.0,-5.0,1.0,1.0,-1.0,1651072512955741.0
4.0,9.0,34.0,2.0,-6.0,-1.0,2.0,-4.0,1651072512964744.0
-13.0,-48.0,-17.0,-6.0,3.0,0.0,-3.0,-1.0,1651072512964744.0
18.0,31.0,-5.0,-2.0,-1.0,1.0,3.0,10.0,1651072512979666.0
3.0,21.0,20.0,4.0,-3.0,1.0,2.0,-1.0,1651072512979666.0
-4.0,-18.0,11.0,-2.0,-2.0,0.0,-1.0,-2.0,1651072512981661.0
-9.0,-30.0,-9.0,3.0,-16.0,-7.0,-4.0,-3.0,1651072512981661.0
1.0,12.0,-6.0,-6.0,17.0,7.0,3.0,-2.0,1651072513002682.0
5.0,16.0,8.0,1.0,2.0,-2.0,1.0,4.0,1651072513002682.0
1.0,19.0,4.0,-1.0,-6.0,3.0,-2.0,-1.0,1651072513003681.0
0.0,-26.0,1.0,8.0,13.0,3.0,-1.0,-1.0,1651072513003681.0
-15.0,-38.0,1.0,-6.0,-10.0,-7.0,-6.0,-6.0,1651072513024779.0
-4.0,-19.0,-11.0,-1.0,-2.0,-2.0,-3.0,-2.0,1651072513024779.0
0.0,21.0,1.0,-7.0,-23.0,-9.0,0.0,-1.0,1651072513026738.0
13.0,12.0,-1.0,3.0,12.0,6.0,6.0,5.0,1651072513026738.0
0.0,15.0,16.0,8.0,2.0,5.0,1.0,0.0,1651072513039670.0
-21.0,-41.0,-16.0,-2.0,9.0,-5.0,-5.0,-9.0,1651072513039670.0
15.0,7.0,-13.0,-1.0,-13.0,-3.0,-2.0,6.0,1651072513041666.0
-5.0,25.0,-7.0,0.0,17.0,13.0,4.0,4.0,1651072513041666.0
23.0,79.0,43.0,7.0,7.0,2.0,2.0,0.0,1651072513062775.0
-1.0,-19.0,-15.0,-6.0,-8.0,-1.0,-2.0,0.0,1651072513062775.0
-10.0,-14.0,3.0,2.0,3.0,-2.0,-2.0,0.0,1651072513063776.0
-5.0,14.0,3.0,-3.0,-18.0,-6.0,-3.0,-9.0,1651072513063776.0
2.0,-42.0,-8.0,-3.0,2.0,1.0,0.0,4.0,1651072513084766.0
0.0,17.0,11.0,1.0,-18.0,-7.0,-4.0,-2.0,1651072513084766.0
1.0,11.0,-50.0,-10.0,1.0,5.0,0.0,1.0,1651072513086722.0
11.0,18.0,22.0,11.0,39.0,9.0,3.0,6.0,1651072513086722.0
-15.0,-23.0,-5.0,0.0,-4.0,0.0,-3.0,-3.0,1651072513100308.0
3.0,13.0,3.0,-1.0,0.0,-2.0,-1.0,0.0,1651072513100308.0
-7.0,-40.0,4.0,-3.0,-9.0,-4.0,-2.0,-3.0,1651072513101710.0
2.0,51.0,9.0,-7.0,-21.0,-3.0,0.0,-2.0,1651072513101710.0
-8.0,-18.0,-21.0,-10.0,-11.0,-12.0,-8.0,-3.0,1651072513130396.0
14.0,13.0,7.0,6.0,18.0,8.0,2.0,7.0,1651072513130396.0
-1.0,11.0,20.0,6.0,11.0,3.0,2.0,1.0,1651072513131408.0
-4.0,-22.0,-4.0,-2.0,-4.0,0.0,0.0,-1.0,1651072513131408.0
-11.0,-2.0,8.0,6.0,2.0,3.0,1.0,-4.0,1651072513145415.0
12.0,10.0,10.0,2.0,-6.0,-2.0,2.0,0.0,1651072513145415.0
-12.0,-38.0,27.0,0.0,16.0,3.0,0.0,2.0,1651072513146413.0
7.0,-15.0,-67.0,-8.0,-8.0,-3.0,-1.0,-6.0,1651072513146413.0
-3.0,-8.0,1.0,0.0,-2.0,-3.0,-3.0,1.0,1651072513159446.0
-16.0,-26.0,6.0,0.0,2.0,3.0,0.0,-3.0,1651072513159446.0
-4.0,19.0,13.0,3.0,-1.0,-2.0,-6.0,-6.0,1651072513166359.0
17.0,-12.0,7.0,-2.0,-8.0,-2.0,5.0,10.0,1651072513166359.0
-5.0,0.0,3.0,-1.0,-7.0,-1.0,0.0,1.0,1651072513182211.0
-6.0,11.0,-6.0,5.0,8.0,1.0,0.0,-2.0,1651072513182211.0
19.0,12.0,-22.0,-2.0,8.0,3.0,4.0,3.0,1651072513184139.0
-21.0,8.0,13.0,-3.0,-4.0,-7.0,-5.0,-7.0,1651072513184139.0
9.0,-2.0,-15.0,1.0,0.0,3.0,2.0,1.0,1651072513204703.0
6.0,23.0,16.0,-1.0,-3.0,-1.0,3.0,2.0,1651072513204703.0
-8.0,-7.0,-16.0,-5.0,-13.0,-5.0,-2.0,-4.0,1651072513206670.0
-5.0,-30.0,-2.0,0.0,13.0,4.0,-2.0,-2.0,1651072513206670.0
0.0,1.0,11.0,0.0,-3.0,2.0,-1.0,1.0,1651072513219688.0
-5.0,-21.0,-24.0,-8.0,-7.0,-4.0,-3.0,-3.0,1651072513219688.0
-2.0,21.0,10.0,-1.0,-7.0,-1.0,-1.0,-4.0,1651072513225688.0
-5.0,-17.0,5.0,0.0,1.0,-1.0,-3.0,-3.0,1651072513225688.0
5.0,8.0,-12.0,-3.0,-4.0,-8.0,-1.0,0.0,1651072513242641.0
1.0,9.0,8.0,1.0,4.0,9.0,4.0,1.0,1651072513242641.0
-14.0,-10.0,0.0,1.0,3.0,-3.0,-5.0,-5.0,1651072513243572.0
1.0,11.0,34.0,1.0,-14.0,-7.0,-4.0,-1.0,1651072513243572.0
8.0,21.0,-69.0,-11.0,-1.0,0.0,1.0,-1.0,1651072513264925.0
-3.0,-13.0,-9.0,-2.0,5.0,-3.0,-3.0,-5.0,1651072513264925.0
5.0,2.0,16.0,11.0,15.0,8.0,3.0,3.0,1651072513266889.0
-10.0,-6.0,-28.0,-1.0,3.0,3.0,1.0,-1.0,1651072513266889.0
-1.0,-26.0,19.0,4.0,3.0,2.0,3.0,4.0,1651072513278856.0
0.0,23.0,-19.0,-9.0,-10.0,-6.0,-4.0,-5.0,1651072513278856.0
-2.0,-13.0,24.0,0.0,-9.0,-4.0,-1.0,-1.0,1651072513285870.0
16.0,46.0,4.0,-3.0,-1.0,2.0,3.0,4.0,1651072513285870.0
-1.0,-10.0,6.0,4.0,7.0,4.0,3.0,2.0,1651072513302646.0
-7.0,-22.0,-16.0,-1.0,5.0,-1.0,-3.0,-3.0,1651072513302646.0
-1.0,3.0,3.0,2.0,4.0,0.0,1.0,2.0,1651072513303893.0
-4.0,-8.0,5.0,-3.0,-16.0,-7.0,-3.0,-3.0,1651072513303893.0
-5.0,20.0,10.0,-5.0,-4.0,-3.0,-3.0,-3.0,1651072513332770.0
7.0,-11.0,2.0,-3.0,-12.0,1.0,1.0,3.0,1651072513332770.0
-1.0,-3.0,-12.0,8.0,24.0,8.0,0.0,-2.0,1651072513333770.0
3.0,-2.0,-8.0,-4.0,-6.0,-7.0,-2.0,0.0,1651072513333770.0
-6.0,-12.0,11.0,4.0,8.0,2.0,0.0,-2.0,1651072513338757.0
-7.0,11.0,-3.0,-5.0,-15.0,-5.0,-3.0,-2.0,1651072513338757.0
11.0,15.0,10.0,-4.0,-15.0,-5.0,2.0,5.0,1651072513345738.0
7.0,10.0,-21.0,8.0,32.0,9.0,0.0,1.0,1651072513345738.0
-8.0,-45.0,-5.0,-6.0,-6.0,-3.0,-5.0,-5.0,1651072513362154.0
-4.0,3.0,6.0,3.0,6.0,6.0,0.0,-4.0,1651072513362154.0
-4.0,4.0,2.0,-8.0,-17.0,-8.0,-2.0,-1.0,1651072513364172.0
-12.0,-9.0,7.0,-5.0,-12.0,-7.0,0.0,-3.0,1651072513364172.0
4.0,9.0,10.0,2.0,1.0,1.0,1.0,2.0,1651072513385295.0
4.0,1.0,-12.0,-3.0,3.0,-1.0,1.0,1.0,1651072513385295.0
-3.0,-2.0,-8.0,6.0,8.0,4.0,2.0,0.0,1651072513386163.0
1.0,1.0,17.0,1.0,-9.0,-4.0,-3.0,0.0,1651072513386163.0
-6.0,-7.0,-3.0,1.0,3.0,2.0,0.0,-2.0,1651072513399196.0
3.0,9.0,8.0,0.0,0.0,0.0,2.0,2.0,1651072513399196.0
0.0,0.0,-1.0,-1.0,-1.0,-2.0,-1.0,-2.0,1651072513407119.0
-3.0,-8.0,-1.0,-1.0,-4.0,0.0,-3.0,-9.0,1651072513407119.0
2.0,0.0,0.0,0.0,0.0,-2.0,1.0,10.0,1651072513422699.0
7.0,12.0,7.0,3.0,6.0,2.0,1.0,0.0,1651072513422699.0
-9.0,-26.0,-11.0,-2.0,-1.0,0.0,1.0,-1.0,1651072513423681.0
5.0,19.0,20.0,-5.0,-16.0,-5.0,-5.0,-4.0,1651072513423681.0
0.0,-11.0,-41.0,-2.0,2.0,1.0,-1.0,0.0,1651072513444713.0
5.0,8.0,19.0,4.0,9.0,1.0,-2.0,2.0,1651072513444713.0
-2.0,-5.0,2.0,3.0,6.0,2.0,-2.0,-4.0,1651072513446640.0
-6.0,1.0,9.0,-4.0,-9.0,-8.0,-1.0,1.0,1651072513446640.0
-4.0,-4.0,8.0,3.0,-4.0,4.0,2.0,-3.0,1651072513459685.0
3.0,14.0,9.0,-2.0,-8.0,5.0,-1.0,0.0,1651072513459685.0
8.0,13.0,-13.0,1.0,15.0,6.0,0.0,2.0,1651072513465655.0
0.0,-10.0,-3.0,-1.0,-5.0,-5.0,-1.0,2.0,1651072513465655.0
-7.0,-2.0,5.0,-3.0,-13.0,-12.0,-4.0,-4.0,1651072513482609.0
-2.0,-15.0,0.0,4.0,5.0,0.0,4.0,3.0,1651072513482609.0
-6.0,-3.0,-8.0,-4.0,3.0,-1.0,-5.0,-6.0,1651072513483541.0
-1.0,3.0,-6.0,-1.0,-3.0,6.0,3.0,5.0,1651072513483541.0
3.0,8.0,21.0,-2.0,-9.0,-8.0,-2.0,0.0,1651072513504704.0
4.0,-9.0,-27.0,0.0,11.0,7.0,1.0,1.0,1651072513504704.0
2.0,2.0,5.0,-1.0,10.0,5.0,0.0,3.0,1651072513506631.0
-2.0,-6.0,-9.0,-2.0,2.0,0.0,-1.0,-2.0,1651072513506631.0
-5.0,-2.0,5.0,-4.0,-5.0,-10.0,-4.0,-4.0,1651072513518995.0
-3.0,4.0,2.0,-2.0,-9.0,2.0,-1.0,1.0,1651072513518995.0
1.0,-5.0,-3.0,3.0,-1.0,5.0,2.0,1.0,1651072513527600.0
-1.0,2.0,-5.0,1.0,9.0,8.0,3.0,2.0,1651072513527600.0
-1.0,6.0,3.0,1.0,3.0,2.0,-2.0,-1.0,1651072513542689.0
-7.0,-8.0,-1.0,-6.0,-20.0,-15.0,-6.0,-4.0,1651072513542689.0
4.0,-3.0,1.0,-2.0,3.0,-2.0,1.0,0.0,1651072513543641.0
3.0,7.0,1.0,1.0,-1.0,-2.0,0.0,0.0,1651072513543641.0
-2.0,-6.0,-1.0,-1.0,-11.0,-3.0,0.0,-1.0,1651072513564664.0
-14.0,-12.0,1.0,-1.0,11.0,3.0,-1.0,-2.0,1651072513564664.0
0.0,8.0,0.0,-6.0,-21.0,-7.0,-4.0,-2.0,1651072513566673.0
16.0,10.0,-7.0,3.0,18.0,5.0,5.0,7.0,1651072513566673.0
0.0,3.0,7.0,3.0,12.0,7.0,1.0,0.0,1651072513578976.0
0.0,-6.0,-6.0,-4.0,-7.0,-4.0,-3.0,-2.0,1651072513578976.0
-7.0,0.0,18.0,-1.0,-6.0,-3.0,-2.0,-5.0,1651072513587970.0
-3.0,-10.0,-20.0,-4.0,-12.0,-5.0,-2.0,-3.0,1651072513587970.0
-5.0,-3.0,-3.0,1.0,1.0,-1.0,-4.0,-2.0,1651072513602644.0
7.0,1.0,1.0,0.0,6.0,6.0,2.0,4.0,1651072513602644.0
0.0,0.0,0.0,0.0,-1.0,-4.0,0.0,-1.0,1651072513604005.0
2.0,3.0,4.0,2.0,1.0,3.0,0.0,-1.0,1651072513604005.0
-12.0,-4.0,0.0,2.0,-3.0,-1.0,-3.0,-5.0,1651072513625090.0
-8.0,-7.0,-2.0,-2.0,-1.0,-7.0,1.0,-1.0,1651072513625090.0
-3.0,-6.0,-7.0,-3.0,3.0,-3.0,-2.0,0.0,1651072513626119.0
-8.0,-9.0,2.0,-2.0,-4.0,10.0,0.0,-2.0,1651072513626119.0
9.0,5.0,-9.0,0.0,3.0,2.0,2.0,0.0,1651072513638193.0
4.0,4.0,5.0,8.0,3.0,-2.0,-1.0,0.0,1651072513638193.0
8.0,-4.0,-8.0,-1.0,-3.0,-6.0,-1.0,1.0,1651072513647101.0
28.0,9.0,9.0,-3.0,2.0,2.0,0.0,-2.0,1651072513647101.0
-20.0,-5.0,1.0,-9.0,-9.0,-6.0,0.0,1.0,1651072513662681.0
7.0,1.0,-7.0,5.0,0.0,2.0,-1.0,0.0,1651072513662681.0
-20.0,-7.0,-6.0,-6.0,-2.0,2.0,0.0,-2.0,1651072513663680.0
13.0,2.0,1.0,1.0,1.0,-4.0,-3.0,-2.0,1651072513663680.0
28.0,7.0,7.0,6.0,5.0,1.0,-1.0,0.0,1651072513684789.0
-48.0,-12.0,-1.0,2.0,4.0,-4.0,1.0,2.0,1651072513684789.0
13.0,-3.0,-2.0,-1.0,-2.0,1.0,0.0,0.0,1651072513686736.0
-8.0,0.0,2.0,-9.0,-7.0,-7.0,0.0,3.0,1651072513686736.0
3.0,3.0,-12.0,-5.0,3.0,2.0,1.0,-4.0,1651072513699047.0
59.0,4.0,10.0,-4.0,0.0,-2.0,-5.0,-3.0,1651072513699047.0
-42.0,-4.0,-10.0,-3.0,-3.0,2.0,6.0,6.0,1651072513707095.0
-6.0,-3.0,0.0,11.0,2.0,-1.0,-1.0,-1.0,1651072513707095.0
-4.0,-9.0,0.0,7.0,1.0,3.0,-2.0,1.0,1651072513722205.0
34.0,14.0,5.0,15.0,4.0,3.0,6.0,0.0,1651072513722205.0
4.0,-14.0,-22.0,-16.0,0.0,0.0,-6.0,-5.0,1651072513724131.0
-16.0,0.0,2.0,-12.0,-4.0,-4.0,-1.0,1.0,1651072513724131.0
-4.0,0.0,-6.0,-4.0,-2.0,2.0,1.0,1.0,1651072513744743.0
-3.0,1.0,1.0,-2.0,-6.0,-3.0,-5.0,-3.0,1651072513744743.0
10.0,12.0,18.0,18.0,7.0,-1.0,0.0,1.0,1651072513746767.0
-12.0,-2.0,3.0,-13.0,-3.0,-3.0,0.0,-3.0,1651072513746767.0
8.0,-4.0,-11.0,-7.0,0.0,-2.0,0.0,-2.0,1651072513758755.0
-15.0,-2.0,8.0,-11.0,2.0,6.0,3.0,4.0,1651072513758755.0
-5.0,-2.0,-17.0,-7.0,-6.0,-5.0,-3.0,-4.0,1651072513767742.0
5.0,-3.0,0.0,-2.0,-8.0,-9.0,-2.0,1.0,1651072513767742.0
-3.0,7.0,12.0,8.0,6.0,8.0,0.0,-1.0,1651072513782646.0
-2.0,7.0,20.0,10.0,3.0,0.0,0.0,1.0,1651072513782646.0
7.0,-1.0,-11.0,-10.0,-3.0,-10.0,-2.0,-3.0,1651072513784381.0
2.0,-1.0,2.0,1.0,-1.0,15.0,2.0,1.0,1651072513784381.0
3.0,-2.0,-6.0,3.0,0.0,-6.0,-1.0,1.0,1651072513805373.0
-10.0,9.0,6.0,-11.0,2.0,-2.0,-2.0,0.0,1651072513805373.0
8.0,3.0,24.0,32.0,2.0,7.0,3.0,2.0,1651072513806322.0
-7.0,-8.0,-26.0,-13.0,-7.0,-11.0,-4.0,-2.0,1651072513806322.0
-4.0,2.0,12.0,4.0,2.0,2.0,3.0,1.0,1651072513818357.0
-5.0,-11.0,-24.0,-35.0,-6.0,-1.0,-4.0,-5.0,1651072513818357.0
4.0,-7.0,-9.0,-14.0,-5.0,-1.0,0.0,0.0,1651072513827352.0
-2.0,-2.0,13.0,19.0,-3.0,-4.0,0.0,0.0,1651072513827352.0
1.0,3.0,0.0,-5.0,12.0,8.0,2.0,2.0,1651072513842090.0
-5.0,2.0,9.0,4.0,3.0,2.0,1.0,-2.0,1651072513842090.0
6.0,8.0,9.0,2.0,0.0,-2.0,-2.0,-1.0,1651072513849067.0
-6.0,0.0,-10.0,6.0,1.0,1.0,-2.0,-2.0,1651072513849067.0
2.0,-2.0,4.0,4.0,-8.0,-9.0,-1.0,0.0,1651072513865036.0
-1.0,10.0,15.0,6.0,1.0,3.0,3.0,0.0,1651072513865036.0
1.0,-3.0,5.0,1.0,10.0,8.0,1.0,0.0,1651072513866022.0
-13.0,-3.0,-5.0,13.0,1.0,1.0,2.0,1.0,1651072513866022.0
-2.0,0.0,-12.0,-18.0,-8.0,-14.0,-6.0,-4.0,1651072513879022.0
-7.0,-14.0,-23.0,-5.0,-17.0,-1.0,-3.0,-1.0,1651072513879022.0
2.0,8.0,14.0,-12.0,-2.0,-7.0,0.0,1.0,1651072513887997.0
3.0,2.0,13.0,25.0,12.0,17.0,1.0,0.0,1651072513887997.0
0.0,0.0,-5.0,12.0,15.0,8.0,3.0,1.0,1651072513901684.0
-6.0,-8.0,-4.0,-24.0,-3.0,-7.0,-2.0,-1.0,1651072513901684.0
1.0,3.0,2.0,22.0,-12.0,-8.0,-4.0,-3.0,1651072513908693.0
1.0,-11.0,-25.0,-34.0,-4.0,-8.0,-3.0,-2.0,1651072513908693.0
-4.0,-1.0,29.0,3.0,-4.0,-1.0,-1.0,-2.0,1651072513924869.0
3.0,2.0,-5.0,24.0,3.0,0.0,1.0,1.0,1651072513924869.0
-2.0,-3.0,-8.0,-1.0,0.0,-1.0,-1.0,0.0,1651072513926888.0
1.0,-1.0,4.0,-12.0,2.0,-2.0,-2.0,0.0,1651072513926888.0
0.0,5.0,5.0,6.0,-9.0,-7.0,-5.0,-2.0,1651072513947695.0
-2.0,-9.0,-7.0,-6.0,5.0,3.0,-1.0,0.0,1651072513947695.0
-1.0,-2.0,-10.0,4.0,0.0,4.0,1.0,0.0,1651072513948625.0
-2.0,3.0,4.0,4.0,-1.0,-1.0,0.0,-2.0,1651072513948625.0
1.0,-5.0,-5.0,1.0,1.0,2.0,1.0,-1.0,1651072513962703.0
1.0,3.0,2.0,9.0,-4.0,-6.0,-2.0,-1.0,1651072513962703.0
0.0,-1.0,6.0,1.0,1.0,-2.0,0.0,0.0,1651072513964700.0
-1.0,-2.0,-17.0,-29.0,-3.0,6.0,1.0,1.0,1651072513964700.0
-9.0,-4.0,-3.0,4.0,-4.0,-2.0,-1.0,0.0,1651072513984737.0
0.0,4.0,5.0,3.0,2.0,-5.0,-3.0,-4.0,1651072513984737.0
1.0,3.0,14.0,11.0,3.0,4.0,0.0,0.0,1651072513986761.0
2.0,-4.0,13.0,10.0,1.0,-5.0,-2.0,-1.0,1651072513986761.0
0.0,-1.0,-7.0,-12.0,-4.0,2.0,-1.0,-1.0,1651072514007860.0
-3.0,2.0,-4.0,9.0,4.0,-2.0,1.0,0.0,1651072514007860.0
1.0,-12.0,-16.0,9.0,-3.0,1.0,-2.0,1.0,1651072514008839.0
1.0,3.0,4.0,-21.0,-7.0,-8.0,-2.0,0.0,1651072514008839.0
2.0,1.0,-3.0,8.0,3.0,6.0,2.0,-1.0,1651072514022804.0
2.0,-2.0,6.0,12.0,7.0,9.0,1.0,-1.0,1651072514022804.0
1.0,5.0,-32.0,10.0,9.0,1.0,1.0,0.0,1651072514023790.0
2.0,0.0,-10.0,-34.0,-8.0,1.0,1.0,1.0,1651072514023790.0
-2.0,-10.0,1.0,19.0,-10.0,-11.0,-6.0,-5.0,1651072514044753.0
0.0,4.0,1.0,-7.0,-4.0,-4.0,-1.0,-2.0,1651072514044753.0
-2.0,-1.0,8.0,-8.0,1.0,6.0,1.0,-2.0,1651072514046778.0
0.0,3.0,9.0,21.0,10.0,2.0,1.0,0.0,1651072514046778.0
-1.0,4.0,-3.0,-15.0,3.0,-2.0,1.0,-1.0,1651072514067785.0
1.0,-2.0,6.0,5.0,-12.0,-2.0,-1.0,-1.0,1651072514067785.0
-1.0,-2.0,-7.0,-26.0,2.0,0.0,0.0,-1.0,1651072514073772.0
2.0,1.0,2.0,20.0,0.0,-1.0,1.0,-1.0,1651072514073772.0
-1.0,2.0,-1.0,-22.0,4.0,6.0,0.0,1.0,1651072514082180.0
2.0,1.0,8.0,18.0,6.0,-1.0,0.0,1.0,1651072514082180.0
-9.0,-17.0,-15.0,-9.0,-11.0,-7.0,-3.0,-3.0,1651072514088234.0
1.0,-1.0,-1.0,9.0,3.0,1.0,-1.0,0.0,1651072514088234.0
3.0,2.0,1.0,2.0,-3.0,0.0,-1.0,1.0,1651072514104846.0
3.0,2.0,-19.0,-11.0,-4.0,0.0,0.0,-1.0,1651072514104846.0
0.0,4.0,1.0,-10.0,-10.0,-5.0,-2.0,-1.0,1651072514106784.0
-3.0,-6.0,2.0,5.0,2.0,-6.0,1.0,-1.0,1651072514106784.0
2.0,0.0,5.0,-1.0,10.0,12.0,1.0,0.0,1651072514127701.0
-4.0,-3.0,-13.0,-5.0,-3.0,-4.0,-1.0,-2.0,1651072514127701.0
2.0,6.0,17.0,-18.0,-7.0,1.0,-3.0,-1.0,1651072514128710.0
-2.0,0.0,1.0,12.0,-1.0,-5.0,-2.0,-3.0,1651072514128710.0
-1.0,-2.0,1.0,10.0,-5.0,-6.0,1.0,0.0,1651072514141788.0
-2.0,-2.0,-1.0,-8.0,2.0,4.0,1.0,0.0,1651072514141788.0
0.0,1.0,10.0,8.0,1.0,-4.0,0.0,-2.0,1651072514148794.0
2.0,-1.0,-11.0,-1.0,-1.0,0.0,-1.0,-1.0,1651072514148794.0
-1.0,1.0,4.0,-17.0,-6.0,-7.0,-3.0,1.0,1651072514164721.0
-3.0,-4.0,-8.0,-3.0,1.0,11.0,-3.0,-2.0,1651072514164721.0
1.0,0.0,15.0,13.0,3.0,1.0,2.0,2.0,1651072514166740.0
1.0,7.0,3.0,-8.0,0.0,2.0,0.0,1.0,1651072514166740.0
0.0,-8.0,-13.0,-5.0,-1.0,-5.0,-2.0,-1.0,1651072514187817.0
-3.0,-3.0,-6.0,-1.0,-5.0,-11.0,-2.0,-2.0,1651072514187817.0
3.0,4.0,12.0,8.0,3.0,2.0,0.0,0.0,1651072514188815.0
-1.0,-10.0,-19.0,-3.0,-7.0,-5.0,0.0,-2.0,1651072514188815.0
-2.0,-1.0,16.0,10.0,3.0,1.0,-1.0,-2.0,1651072514201682.0
1.0,5.0,5.0,-5.0,3.0,4.0,1.0,1.0,1651072514201682.0
-1.0,-2.0,-19.0,-2.0,-5.0,0.0,-2.0,-1.0,1651072514208665.0
3.0,7.0,32.0,2.0,7.0,0.0,1.0,1.0,1651072514208665.0
-3.0,-17.0,-26.0,-5.0,-2.0,1.0,1.0,-1.0,1651072514224820.0
0.0,-3.0,-8.0,9.0,4.0,-2.0,-2.0,1.0,1651072514224820.0
0.0,6.0,9.0,-7.0,0.0,1.0,0.0,-1.0,1651072514226747.0
1.0,1.0,11.0,4.0,-6.0,-1.0,-1.0,-2.0,1651072514226747.0
0.0,7.0,3.0,1.0,1.0,1.0,1.0,0.0,1651072514247742.0
0.0,-3.0,-1.0,-9.0,2.0,-1.0,1.0,-1.0,1651072514247742.0
0.0,1.0,-5.0,15.0,-3.0,-3.0,-2.0,0.0,1651072514248734.0
-1.0,-7.0,-13.0,-11.0,-5.0,0.0,-2.0,-3.0,1651072514248734.0
2.0,3.0,-4.0,-5.0,2.0,0.0,0.0,0.0,1651072514261868.0
-4.0,0.0,11.0,4.0,-1.0,-5.0,-2.0,-1.0,1651072514261868.0
1.0,4.0,-2.0,1.0,8.0,2.0,2.0,0.0,1651072514268847.0
1.0,-1.0,2.0,6.0,2.0,10.0,0.0,0.0,1651072514268847.0
0.0,4.0,-6.0,-10.0,0.0,1.0,1.0,1.0,1651072514284767.0
-2.0,-2.0,-3.0,-5.0,-6.0,-2.0,-1.0,-1.0,1651072514284767.0
-1.0,-3.0,5.0,-10.0,-4.0,-8.0,-3.0,-1.0,1651072514286766.0
-1.0,5.0,-5.0,11.0,8.0,3.0,0.0,2.0,1651072514286766.0
-2.0,-4.0,22.0,14.0,-4.0,0.0,-1.0,-1.0,1651072514307774.0
3.0,1.0,1.0,-12.0,-6.0,-6.0,1.0,0.0,1651072514307774.0
-4.0,-4.0,-5.0,-1.0,-2.0,2.0,0.0,-1.0,1651072514308705.0
3.0,0.0,-4.0,2.0,1.0,-2.0,-1.0,1.0,1651072514308705.0
-2.0,-4.0,-13.0,-15.0,-2.0,0.0,0.0,0.0,1651072514322197.0
2.0,4.0,11.0,7.0,-3.0,-2.0,0.0,0.0,1651072514322197.0
-2.0,-1.0,-1.0,-10.0,0.0,-2.0,-1.0,0.0,1651072514328250.0
-3.0,2.0,0.0,-2.0,-5.0,-2.0,-1.0,-3.0,1651072514328250.0
-1.0,1.0,0.0,4.0,4.0,-1.0,0.0,0.0,1651072514345321.0
-1.0,1.0,1.0,6.0,8.0,3.0,1.0,-2.0,1651072514345321.0
1.0,0.0,0.0,-12.0,-7.0,-3.0,0.0,-1.0,1651072514346290.0
-2.0,-5.0,3.0,23.0,-3.0,-3.0,-2.0,0.0,1651072514346290.0
1.0,1.0,-19.0,-13.0,-1.0,3.0,2.0,0.0,1651072514367749.0
1.0,-1.0,-1.0,10.0,-1.0,0.0,0.0,0.0,1651072514367749.0
-1.0,0.0,-4.0,-8.0,-2.0,-9.0,-2.0,1.0,1651072514368684.0
-3.0,-1.0,-4.0,-5.0,-1.0,9.0,1.0,-1.0,1651072514368684.0
0.0,-6.0,9.0,6.0,-4.0,2.0,0.0,0.0,1651072514381645.0
0.0,-4.0,-8.0,-9.0,-1.0,-3.0,-1.0,1.0,1651072514381645.0
1.0,3.0,6.0,14.0,4.0,3.0,1.0,0.0,1651072514388626.0
0.0,1.0,-2.0,-24.0,-3.0,-5.0,-1.0,-2.0,1651072514388626.0
-1.0,1.0,-12.0,-5.0,-5.0,-3.0,-3.0,-2.0,1651072514404804.0
-1.0,-2.0,9.0,5.0,-6.0,-2.0,-1.0,-1.0,1651072514404804.0
-1.0,-4.0,14.0,5.0,2.0,-2.0,-3.0,-2.0,1651072514406733.0
-1.0,1.0,6.0,7.0,6.0,4.0,2.0,2.0,1651072514406733.0
0.0,6.0,10.0,1.0,4.0,2.0,1.0,0.0,1651072514427507.0
0.0,-2.0,-9.0,-5.0,-1.0,2.0,0.0,0.0,1651072514427507.0
0.0,-1.0,0.0,3.0,0.0,0.0,0.0,-1.0,1651072514429460.0
0.0,1.0,0.0,-3.0,-3.0,-4.0,-1.0,0.0,1651072514429460.0
-1.0,-2.0,-3.0,-2.0,-10.0,-5.0,-1.0,0.0,1651072514441561.0
-2.0,0.0,0.0,-3.0,0.0,-1.0,-1.0,-2.0,1651072514441561.0
-3.0,-6.0,0.0,2.0,5.0,11.0,1.0,0.0,1651072514450493.0
0.0,0.0,4.0,6.0,-1.0,-3.0,1.0,0.0,1651072514450493.0
-1.0,5.0,5.0,2.0,0.0,-2.0,-1.0,-2.0,1651072514465674.0
-2.0,-10.0,-7.0,-3.0,-2.0,-4.0,-1.0,0.0,1651072514465674.0
1.0,0.0,-9.0,-13.0,-1.0,3.0,0.0,1.0,1651072514466604.0
-1.0,2.0,-3.0,22.0,4.0,-3.0,0.0,0.0,1651072514466604.0
1.0,3.0,16.0,12.0,9.0,11.0,1.0,1.0,1651072514487614.0
-1.0,-3.0,-15.0,-13.0,0.0,-1.0,-1.0,-1.0,1651072514487614.0
-1.0,2.0,-3.0,-9.0,-7.0,-3.0,1.0,0.0,1651072514488545.0
-2.0,-4.0,-31.0,0.0,-12.0,-8.0,-2.0,0.0,1651072514488545.0
-2.0,-1.0,7.0,6.0,3.0,-7.0,-4.0,-1.0,1651072514501570.0
-3.0,1.0,12.0,12.0,10.0,8.0,0.0,0.0,1651072514501570.0
2.0,-1.0,-12.0,-23.0,-8.0,-10.0,-1.0,0.0,1651072514517544.0
-2.0,-2.0,15.0,22.0,0.0,-1.0,-1.0,-2.0,1651072514517544.0
-1.0,-2.0,-7.0,-8.0,3.0,9.0,2.0,1.0,1651072514524593.0
-1.0,1.0,-10.0,-14.0,-4.0,-2.0,0.0,-1.0,1651072514524593.0
-2.0,-2.0,11.0,9.0,3.0,0.0,1.0,-2.0,1651072514526520.0
-1.0,-1.0,2.0,-13.0,-6.0,-4.0,-2.0,-3.0,1651072514526520.0
-1.0,3.0,2.0,3.0,2.0,-3.0,-1.0,-2.0,1651072514547692.0
-2.0,-9.0,0.0,4.0,-8.0,-3.0,-1.0,1.0,1651072514547692.0
-1.0,-9.0,-18.0,2.0,2.0,-1.0,-3.0,-1.0,1651072514548621.0
-1.0,-2.0,5.0,-6.0,5.0,3.0,-1.0,0.0,1651072514548621.0
0.0,1.0,-3.0,-3.0,-1.0,-4.0,0.0,1.0,1651072514561588.0
1.0,4.0,5.0,-1.0,-2.0,-2.0,0.0,0.0,1651072514561588.0
0.0,2.0,-2.0,-1.0,-4.0,-6.0,0.0,0.0,1651072514570562.0
-1.0,-2.0,0.0,-9.0,1.0,9.0,2.0,0.0,1651072514570562.0
-2.0,-2.0,-8.0,-12.0,-2.0,-2.0,-1.0,-1.0,1651072514584746.0
0.0,-1.0,-4.0,12.0,3.0,3.0,0.0,0.0,1651072514584746.0
-2.0,-1.0,9.0,14.0,1.0,1.0,-1.0,-2.0,1651072514586673.0
0.0,0.0,-6.0,-11.0,1.0,-2.0,0.0,1.0,1651072514586673.0
-4.0,-5.0,7.0,1.0,-11.0,-4.0,-2.0,-1.0,1651072514607734.0
1.0,5.0,-5.0,-15.0,-6.0,-5.0,1.0,0.0,1651072514607734.0
-1.0,1.0,-4.0,-4.0,4.0,4.0,-1.0,-1.0,1651072514608667.0
-2.0,1.0,5.0,7.0,-5.0,-11.0,-3.0,-1.0,1651072514608667.0
3.0,0.0,-1.0,3.0,4.0,11.0,2.0,0.0,1651072514629822.0
1.0,1.0,4.0,5.0,10.0,5.0,2.0,1.0,1651072514629822.0
1.0,4.0,-5.0,-13.0,-4.0,3.0,0.0,1.0,1651072514631821.0
-2.0,-4.0,8.0,-10.0,-11.0,-1.0,-2.0,-1.0,1651072514631821.0
-2.0,3.0,15.0,22.0,7.0,-8.0,-1.0,-2.0,1651072514644601.0
-3.0,-15.0,-20.0,-14.0,0.0,0.0,-2.0,-2.0,1651072514644601.0
1.0,4.0,2.0,2.0,7.0,3.0,1.0,1.0,1651072514646597.0
0.0,3.0,-9.0,-9.0,-3.0,-2.0,0.0,0.0,1651072514646597.0
0.0,1.0,0.0,-7.0,-8.0,-5.0,-1.0,-1.0,1651072514667502.0
-2.0,3.0,12.0,7.0,0.0,2.0,-1.0,0.0,1651072514667502.0
-1.0,-3.0,-7.0,-1.0,-4.0,-2.0,-3.0,0.0,1651072514669442.0
0.0,-3.0,7.0,5.0,0.0,0.0,-1.0,-1.0,1651072514669442.0
1.0,-1.0,6.0,-6.0,4.0,5.0,2.0,0.0,1651072514681465.0
1.0,2.0,8.0,13.0,1.0,-2.0,0.0,-3.0,1651072514681465.0
-1.0,-5.0,-3.0,-3.0,-5.0,-1.0,0.0,0.0,1651072514690374.0
-1.0,3.0,2.0,-5.0,0.0,-1.0,-2.0,0.0,1651072514690374.0
-1.0,-3.0,-8.0,0.0,-11.0,-7.0,-3.0,-1.0,1651072514704575.0
1.0,3.0,-2.0,-7.0,-2.0,1.0,1.0,0.0,1651072514704575.0
0.0,0.0,9.0,8.0,4.0,1.0,2.0,0.0,1651072514706503.0
0.0,-1.0,-2.0,6.0,2.0,-4.0,-1.0,0.0,1651072514706503.0
0.0,-3.0,-11.0,-7.0,5.0,3.0,-1.0,-1.0,1651072514727597.0
1.0,4.0,9.0,3.0,0.0,2.0,1.0,1.0,1651072514727597.0
-1.0,-3.0,-7.0,1.0,-1.0,3.0,1.0,-1.0,1651072514728620.0
-2.0,-2.0,-1.0,-6.0,0.0,1.0,0.0,-2.0,1651072514728620.0
-3.0,-4.0,-13.0,-7.0,-10.0,-4.0,-2.0,-1.0,1651072514740664.0
-2.0,2.0,4.0,-2.0,-3.0,-2.0,-1.0,-1.0,1651072514740664.0
-2.0,2.0,0.0,3.0,1.0,-1.0,-1.0,-2.0,1651072514749690.0
1.0,0.0,6.0,-1.0,-4.0,-4.0,-2.0,-2.0,1651072514749690.0
0.0,1.0,2.0,0.0,-6.0,-5.0,-4.0,1.0,1651072514764670.0
0.0,-1.0,7.0,-2.0,5.0,-1.0,-1.0,1.0,1651072514764670.0
0.0,3.0,9.0,-2.0,0.0,8.0,0.0,0.0,1651072514766598.0
0.0,-1.0,-1.0,8.0,1.0,2.0,0.0,-2.0,1651072514766598.0
-2.0,-2.0,-3.0,4.0,1.0,-3.0,0.0,-3.0,1651072514794508.0
0.0,1.0,-3.0,-9.0,-7.0,-5.0,0.0,-1.0,1651072514794508.0
-2.0,-3.0,-11.0,-5.0,-2.0,-2.0,-2.0,1.0,1651072514796436.0
1.0,2.0,6.0,-10.0,2.0,2.0,0.0,-2.0,1651072514796436.0
-1.0,1.0,-1.0,3.0,-8.0,-10.0,0.0,0.0,1651072514801428.0
-1.0,5.0,2.0,5.0,4.0,7.0,-1.0,-1.0,1651072514801428.0
-2.0,-6.0,-3.0,2.0,7.0,0.0,1.0,0.0,1651072514810399.0
0.0,6.0,7.0,-7.0,3.0,6.0,1.0,0.0,1651072514810399.0
0.0,-7.0,-13.0,-1.0,-3.0,-2.0,-2.0,-3.0,1651072514824580.0
-2.0,1.0,5.0,4.0,-6.0,-9.0,-1.0,-3.0,1651072514824580.0
1.0,4.0,4.0,3.0,-3.0,-1.0,0.0,-1.0,1651072514826508.0
0.0,-3.0,-11.0,-3.0,5.0,3.0,1.0,-1.0,1651072514826508.0
0.0,0.0,2.0,-3.0,3.0,2.0,1.0,1.0,1651072514847519.0
-2.0,-3.0,-3.0,5.0,-3.0,-1.0,-1.0,-1.0,1651072514847519.0
0.0,-2.0,-1.0,2.0,-3.0,-5.0,-1.0,-2.0,1651072514849458.0
-3.0,-3.0,-9.0,-2.0,-3.0,-4.0,-2.0,-2.0,1651072514849458.0
-1.0,0.0,-5.0,-9.0,2.0,-5.0,-1.0,0.0,1651072514869617.0
-1.0,-3.0,-7.0,-7.0,-5.0,10.0,-1.0,0.0,1651072514869617.0
-1.0,0.0,3.0,8.0,5.0,2.0,2.0,1.0,1651072514871545.0
0.0,-6.0,-4.0,-8.0,-2.0,-2.0,2.0,1.0,1651072514871545.0
-2.0,3.0,1.0,1.0,-7.0,0.0,-1.0,-2.0,1651072514884615.0
-1.0,-3.0,-8.0,-1.0,3.0,-10.0,0.0,-2.0,1651072514884615.0
0.0,-4.0,-5.0,3.0,0.0,0.0,0.0,-2.0,1651072514886632.0
-1.0,1.0,5.0,6.0,5.0,7.0,1.0,1.0,1651072514886632.0
-1.0,-6.0,-4.0,0.0,5.0,-1.0,-1.0,1.0,1651072514907927.0
1.0,0.0,1.0,1.0,2.0,3.0,-1.0,0.0,1651072514907927.0
-1.0,2.0,-7.0,-4.0,-5.0,-4.0,-1.0,-1.0,1651072514909866.0
-2.0,-4.0,-11.0,1.0,-4.0,-3.0,-2.0,-2.0,1651072514909866.0
1.0,5.0,7.0,0.0,5.0,4.0,-1.0,0.0,1651072514929998.0
1.0,3.0,-3.0,1.0,-3.0,-3.0,1.0,-1.0,1651072514929998.0
0.0,-4.0,6.0,-3.0,0.0,-3.0,-3.0,-2.0,1651072514930975.0
0.0,1.0,-7.0,9.0,0.0,2.0,1.0,-1.0,1651072514930975.0
-2.0,1.0,2.0,-3.0,-2.0,-4.0,-1.0,0.0,1651072514944744.0
0.0,-3.0,-4.0,-10.0,-6.0,6.0,-1.0,0.0,1651072514944744.0
0.0,1.0,-6.0,-7.0,-3.0,-4.0,-1.0,1.0,1651072514946700.0
0.0,1.0,3.0,6.0,0.0,0.0,1.0,0.0,1651072514946700.0
2.0,1.0,5.0,8.0,16.0,8.0,1.0,1.0,1651072514967640.0
-2.0,-5.0,-9.0,1.0,-3.0,-7.0,-1.0,1.0,1651072514967640.0
0.0,0.0,-1.0,-3.0,-4.0,-1.0,0.0,0.0,1651072514968648.0
1.0,2.0,17.0,0.0,5.0,4.0,0.0,1.0,1651072514968648.0
0.0,-1.0,-8.0,-13.0,-7.0,-4.0,-1.0,-2.0,1651072514990363.0
0.0,1.0,5.0,10.0,1.0,0.0,-1.0,0.0,1651072514990363.0
0.0,-1.0,1.0,-3.0,-10.0,-9.0,0.0,-1.0,1651072514991363.0
0.0,3.0,-4.0,-7.0,2.0,0.0,-1.0,0.0,1651072514991363.0
-4.0,-14.0,-7.0,1.0,2.0,7.0,-1.0,-2.0,1651072515004520.0
0.0,4.0,0.0,1.0,0.0,-1.0,-1.0,1.0,1651072515004520.0
-1.0,-5.0,-5.0,-1.0,-4.0,-2.0,-2.0,-4.0,1651072515010966.0
-1.0,-1.0,-4.0,1.0,-3.0,-4.0,-1.0,-1.0,1651072515010966.0
0.0,0.0,13.0,4.0,-1.0,1.0,2.0,0.0,1651072515027919.0
0.0,1.0,-7.0,-13.0,-5.0,-2.0,-2.0,1.0,1651072515027919.0
0.0,6.0,7.0,7.0,-1.0,-2.0,-4.0,-1.0,1651072515028917.0
-1.0,-3.0,-8.0,-8.0,-5.0,-1.0,-2.0,-2.0,1651072515028917.0
0.0,-4.0,-12.0,2.0,1.0,0.0,0.0,1.0,1651072515050363.0
1.0,1.0,7.0,8.0,5.0,3.0,4.0,2.0,1651072515050363.0
1.0,3.0,-1.0,-7.0,4.0,3.0,0.0,1.0,1651072515051363.0
-3.0,-5.0,1.0,5.0,6.0,3.0,-2.0,0.0,1651072515051363.0
-3.0,1.0,4.0,-1.0,-10.0,-5.0,-1.0,-2.0,1651072515072708.0
0.0,-2.0,-11.0,-12.0,-3.0,-7.0,-4.0,-2.0,1651072515072708.0
-1.0,9.0,6.0,9.0,2.0,4.0,2.0,-1.0,1651072515073708.0
-1.0,-14.0,-8.0,-10.0,-4.0,-1.0,0.0,-2.0,1651072515073708.0
2.0,4.0,4.0,1.0,3.0,3.0,1.0,0.0,1651072515087686.0
-3.0,1.0,-1.0,5.0,0.0,-2.0,0.0,1.0,1651072515087686.0
-3.0,0.0,3.0,1.0,-2.0,2.0,0.0,-1.0,1651072515088616.0
0.0,1.0,12.0,-6.0,-5.0,-8.0,-1.0,-2.0,1651072515088616.0
-1.0,-5.0,-6.0,19.0,6.0,0.0,0.0,-1.0,1651072515109627.0
1.0,-1.0,9.0,-6.0,2.0,5.0,0.0,0.0,1651072515109627.0
0.0,-2.0,-5.0,-4.0,-3.0,-5.0,-2.0,-1.0,1651072515111556.0
0.0,8.0,2.0,5.0,4.0,4.0,1.0,-1.0,1651072515111556.0
2.0,2.0,1.0,-15.0,-5.0,1.0,0.0,1.0,1651072515124589.0
-2.0,0.0,-1.0,1.0,-2.0,-6.0,-2.0,-4.0,1651072515124589.0
-2.0,-5.0,0.0,4.0,2.0,2.0,-2.0,0.0,1651072515131559.0
0.0,2.0,5.0,3.0,-2.0,-4.0,-1.0,-3.0,1651072515131559.0
0.0,14.0,-2.0,-6.0,-1.0,2.0,1.0,0.0,1651072515147525.0
-2.0,-16.0,-10.0,2.0,1.0,1.0,-1.0,1.0,1651072515147525.0
1.0,-8.0,-3.0,-4.0,-1.0,-2.0,0.0,0.0,1651072515149453.0
-1.0,-5.0,4.0,6.0,-1.0,-2.0,-2.0,0.0,1651072515149453.0
-1.0,2.0,-1.0,-1.0,0.0,3.0,1.0,-1.0,1651072515170406.0
2.0,6.0,12.0,-1.0,2.0,-1.0,2.0,0.0,1651072515170406.0
-1.0,4.0,-6.0,-1.0,0.0,2.0,1.0,0.0,1651072515171395.0
1.0,-7.0,-25.0,-7.0,-2.0,-4.0,0.0,3.0,1651072515171395.0
-1.0,4.0,13.0,14.0,2.0,3.0,0.0,-2.0,1651072515184427.0
-2.0,-1.0,-14.0,-4.0,-2.0,-3.0,-2.0,-1.0,1651072515184427.0
1.0,-2.0,15.0,0.0,-2.0,0.0,0.0,2.0,1651072515191408.0
2.0,4.0,-2.0,2.0,2.0,-2.0,1.0,-1.0,1651072515191408.0
0.0,-3.0,-7.0,-6.0,-6.0,-5.0,-2.0,-1.0,1651072515207740.0
1.0,9.0,6.0,-2.0,0.0,2.0,1.0,1.0,1651072515207740.0
-4.0,-2.0,-1.0,2.0,1.0,-3.0,0.0,-2.0,1651072515208680.0
0.0,17.0,15.0,-3.0,-1.0,3.0,-1.0,0.0,1651072515208680.0
1.0,-20.0,-8.0,-6.0,0.0,0.0,0.0,1.0,1651072515230390.0
-1.0,15.0,28.0,2.0,-2.0,-3.0,-2.0,-2.0,1651072515230390.0
-2.0,-9.0,-12.0,7.0,-1.0,-1.0,-1.0,0.0,1651072515231408.0
-3.0,-1.0,-5.0,0.0,-2.0,1.0,1.0,-1.0,1651072515231408.0
-3.0,2.0,1.0,-3.0,-2.0,-1.0,-2.0,-1.0,1651072515244705.0
0.0,-6.0,-3.0,-3.0,-3.0,-2.0,-2.0,-2.0,1651072515244705.0
0.0,3.0,1.0,-10.0,5.0,3.0,0.0,-1.0,1651072515250661.0
1.0,4.0,2.0,1.0,-2.0,0.0,-1.0,0.0,1651072515250661.0
0.0,-18.0,-5.0,5.0,6.0,1.0,1.0,2.0,1651072515267488.0
-1.0,-3.0,-9.0,-1.0,-3.0,1.0,0.0,0.0,1651072515267488.0
-1.0,-3.0,-4.0,-4.0,-7.0,-4.0,-1.0,-2.0,1651072515273531.0
-2.0,0.0,0.0,-1.0,-2.0,0.0,-3.0,-1.0,1651072515273531.0
3.0,9.0,2.0,-7.0,-3.0,-3.0,0.0,1.0,1651072515290667.0
-2.0,-4.0,-11.0,-1.0,0.0,0.0,0.0,-2.0,1651072515290667.0
0.0,-3.0,5.0,-5.0,-1.0,0.0,-1.0,-2.0,1651072515295656.0
-4.0,-11.0,-3.0,6.0,0.0,-1.0,-2.0,-1.0,1651072515295656.0
0.0,11.0,14.0,12.0,2.0,-1.0,-1.0,-2.0,1651072515304512.0
2.0,-12.0,-6.0,14.0,5.0,0.0,1.0,2.0,1651072515304512.0
1.0,8.0,3.0,-6.0,-1.0,-7.0,1.0,0.0,1651072515310510.0
-10.0,-16.0,-22.0,-8.0,0.0,12.0,-1.0,-5.0,1651072515310510.0
-4.0,3.0,0.0,-4.0,-3.0,2.0,1.0,-1.0,1651072515327622.0
4.0,-7.0,1.0,-5.0,2.0,-2.0,0.0,2.0,1651072515327622.0
8.0,3.0,-5.0,0.0,-4.0,-1.0,-1.0,4.0,1651072515328618.0
9.0,9.0,-3.0,-9.0,-3.0,-6.0,1.0,4.0,1651072515328618.0
-8.0,-15.0,0.0,10.0,1.0,-2.0,-6.0,-6.0,1651072515350682.0
-3.0,12.0,9.0,0.0,0.0,3.0,-2.0,-3.0,1651072515350682.0
-12.0,-10.0,-3.0,1.0,-2.0,1.0,-3.0,-4.0,1651072515351678.0
10.0,-7.0,-8.0,-19.0,1.0,0.0,4.0,5.0,1651072515351678.0
3.0,52.0,12.0,23.0,2.0,-1.0,-1.0,-1.0,1651072515363929.0
-15.0,-76.0,-17.0,-3.0,-4.0,-4.0,0.0,-3.0,1651072515363929.0
10.0,16.0,-11.0,-11.0,2.0,4.0,3.0,7.0,1651072515372443.0
-12.0,0.0,8.0,8.0,-1.0,-3.0,-4.0,-4.0,1651072515372443.0
1.0,-4.0,1.0,-5.0,5.0,3.0,2.0,2.0,1651072515387470.0
-19.0,5.0,8.0,2.0,-10.0,-4.0,-7.0,-6.0,1651072515387470.0
0.0,-37.0,5.0,-6.0,7.0,6.0,-1.0,-2.0,1651072515389417.0
7.0,76.0,4.0,-7.0,-4.0,-2.0,3.0,3.0,1651072515389417.0
6.0,-59.0,-8.0,29.0,-2.0,-2.0,0.0,3.0,1651072515410388.0
-7.0,8.0,-3.0,1.0,-2.0,-3.0,-6.0,-6.0,1651072515410388.0
-8.0,-2.0,-18.0,-8.0,-12.0,-3.0,-3.0,-6.0,1651072515411388.0
5.0,14.0,21.0,-12.0,-4.0,-4.0,1.0,1.0,1651072515411388.0
3.0,14.0,15.0,0.0,24.0,8.0,0.0,-2.0,1651072515423422.0
2.0,-21.0,-15.0,0.0,-1.0,-3.0,-2.0,-2.0,1651072515423422.0
1.0,29.0,-14.0,6.0,4.0,-5.0,-3.0,-5.0,1651072515432414.0
-5.0,-83.0,-18.0,4.0,0.0,3.0,-1.0,1.0,1651072515432414.0
-15.0,35.0,10.0,-20.0,-41.0,-14.0,-6.0,-6.0,1651072515447740.0
37.0,-9.0,-17.0,-7.0,38.0,18.0,13.0,18.0,1651072515447740.0
-1.0,72.0,20.0,13.0,11.0,2.0,1.0,0.0,1651072515448708.0
-24.0,-47.0,-20.0,6.0,-12.0,-6.0,-11.0,-14.0,1651072515448708.0
-3.0,-35.0,-17.0,-15.0,10.0,4.0,3.0,5.0,1651072515469610.0
37.0,83.0,5.0,0.0,9.0,12.0,9.0,15.0,1651072515469610.0
17.0,3.0,-8.0,-15.0,-20.0,-5.0,2.0,7.0,1651072515471632.0
-7.0,13.0,37.0,23.0,14.0,-4.0,-5.0,-5.0,1651072515471632.0
-31.0,-30.0,-9.0,-4.0,-26.0,-11.0,-8.0,-13.0,1651072515483724.0
9.0,30.0,-3.0,-3.0,9.0,4.0,2.0,0.0,1651072515483724.0
-7.0,30.0,17.0,3.0,30.0,16.0,6.0,3.0,1651072515492699.0
-5.0,-74.0,-24.0,4.0,-23.0,-17.0,-8.0,-5.0,1651072515492699.0
8.0,69.0,-21.0,-16.0,11.0,6.0,1.0,-1.0,1651072515507723.0
-39.0,-86.0,14.0,0.0,-11.0,-5.0,-5.0,-9.0,1651072515507723.0
22.0,-20.0,-3.0,8.0,3.0,8.0,6.0,6.0,1651072515508654.0
-1.0,56.0,45.0,-2.0,-1.0,-1.0,-2.0,-3.0,1651072515508654.0
-9.0,-5.0,-40.0,-15.0,-12.0,-8.0,-8.0,-6.0,1651072515529520.0
-4.0,37.0,11.0,-4.0,-17.0,-9.0,-3.0,-1.0,1651072515529520.0
-8.0,-32.0,15.0,5.0,4.0,-3.0,-2.0,-2.0,1651072515531486.0
0.0,-3.0,-2.0,6.0,-1.0,3.0,7.0,8.0,1651072515531486.0
9.0,-28.0,4.0,-1.0,10.0,3.0,3.0,6.0,1651072515543523.0
7.0,107.0,7.0,3.0,-17.0,-2.0,-4.0,-6.0,1651072515543523.0
-18.0,-97.0,-29.0,-8.0,-5.0,-12.0,-6.0,-3.0,1651072515552430.0
13.0,29.0,9.0,8.0,19.0,8.0,5.0,3.0,1651072515552430.0
-7.0,-64.0,28.0,4.0,-7.0,5.0,5.0,3.0,1651072515567544.0
10.0,44.0,-9.0,-4.0,-9.0,-8.0,-4.0,-1.0,1651072515567544.0
-18.0,5.0,18.0,13.0,20.0,12.0,-1.0,-6.0,1651072515568571.0
27.0,86.0,7.0,-4.0,-12.0,-10.0,0.0,6.0,1651072515568571.0
-9.0,-54.0,-54.0,-12.0,1.0,8.0,-3.0,-6.0,1651072515590329.0
-25.0,-106.0,36.0,4.0,-8.0,-4.0,-1.0,-1.0,1651072515590329.0
31.0,87.0,-20.0,3.0,-5.0,-7.0,1.0,5.0,1651072515591352.0
-11.0,-10.0,-11.0,-2.0,24.0,8.0,2.0,-13.0,1651072515591352.0
26.0,44.0,25.0,12.0,3.0,-1.0,1.0,16.0,1651072515603414.0
-16.0,-28.0,-8.0,-10.0,-13.0,-12.0,-7.0,-7.0,1651072515603414.0
-10.0,-20.0,18.0,6.0,1.0,6.0,-2.0,-4.0,1651072515612473.0
-15.0,-55.0,-8.0,-9.0,-3.0,11.0,2.0,-3.0,1651072515612473.0
17.0,65.0,51.0,15.0,0.0,-7.0,-1.0,-4.0,1651072515627618.0
3.0,-27.0,-67.0,-12.0,-7.0,1.0,3.0,6.0,1651072515627618.0
-12.0,-25.0,21.0,1.0,-14.0,-7.0,-1.0,1.0,1651072515628550.0
-55.0,-69.0,-13.0,1.0,5.0,2.0,-6.0,-24.0,1651072515628550.0
55.0,89.0,-4.0,-26.0,-12.0,-15.0,-4.0,9.0,1651072515649606.0
6.0,0.0,15.0,16.0,27.0,8.0,4.0,15.0,1651072515649606.0
9.0,31.0,2.0,5.0,8.0,1.0,0.0,-1.0,1651072515651602.0
-3.0,5.0,27.0,8.0,-3.0,3.0,4.0,8.0,1651072515651602.0
-18.0,-41.0,-9.0,-2.0,3.0,5.0,1.0,-1.0,1651072515663954.0
-13.0,9.0,5.0,-4.0,-24.0,-10.0,-8.0,-13.0,1651072515663954.0
7.0,-12.0,-7.0,-2.0,4.0,1.0,3.0,7.0,1651072515672375.0
3.0,-17.0,-6.0,2.0,20.0,8.0,-4.0,1.0,1651072515672375.0
-16.0,-30.0,13.0,2.0,-13.0,-6.0,1.0,-11.0,1651072515687581.0
17.0,47.0,-30.0,-4.0,30.0,13.0,9.0,20.0,1651072515687581.0
-26.0,-69.0,33.0,-2.0,-41.0,-9.0,-6.0,-11.0,1651072515689515.0
39.0,59.0,-2.0,7.0,13.0,2.0,2.0,4.0,1651072515689515.0
-22.0,-5.0,-13.0,-4.0,8.0,-6.0,-8.0,-6.0,1651072515709522.0
-13.0,-50.0,1.0,-6.0,-10.0,-8.0,-5.0,-11.0,1651072515709522.0
6.0,-58.0,15.0,6.0,23.0,11.0,2.0,4.0,1651072515711450.0
11.0,54.0,-15.0,-4.0,-16.0,-9.0,-2.0,2.0,1651072515711450.0
-14.0,-17.0,-47.0,-12.0,-1.0,0.0,1.0,-3.0,1651072515723444.0
5.0,33.0,34.0,6.0,-8.0,0.0,4.0,2.0,1651072515723444.0
-9.0,17.0,-6.0,-11.0,-16.0,-10.0,-7.0,-6.0,1651072515732507.0
5.0,-34.0,-20.0,-2.0,4.0,4.0,1.0,2.0,1651072515732507.0
6.0,5.0,12.0,1.0,3.0,4.0,1.0,2.0,1651072515747690.0
-9.0,-4.0,14.0,4.0,4.0,5.0,0.0,-5.0,1651072515747690.0
31.0,81.0,-23.0,-7.0,-15.0,-9.0,2.0,2.0,1651072515748622.0
-13.0,-30.0,-7.0,-11.0,2.0,2.0,-7.0,0.0,1651072515748622.0
-5.0,-6.0,10.0,7.0,2.0,-4.0,1.0,2.0,1651072515770405.0
2.0,-4.0,-20.0,-1.0,9.0,6.0,3.0,-3.0,1651072515770405.0
4.0,12.0,4.0,7.0,12.0,7.0,3.0,-7.0,1651072515771398.0
9.0,-15.0,22.0,3.0,-6.0,-4.0,3.0,14.0,1651072515771398.0
-10.0,19.0,-12.0,-3.0,-28.0,-8.0,-6.0,-5.0,1651072515783547.0
6.0,-5.0,5.0,-7.0,0.0,-10.0,-4.0,-4.0,1651072515783547.0
-3.0,35.0,-14.0,0.0,5.0,11.0,1.0,3.0,1651072515792580.0
5.0,4.0,-10.0,-7.0,-29.0,-4.0,5.0,7.0,1651072515792580.0
5.0,-13.0,1.0,-4.0,9.0,0.0,0.0,-7.0,1651072515807593.0
-11.0,-37.0,-15.0,5.0,19.0,11.0,3.0,6.0,1651072515807593.0
3.0,24.0,17.0,-4.0,-22.0,-11.0,-5.0,-2.0,1651072515809521.0
3.0,1.0,-7.0,-1.0,0.0,-3.0,-2.0,-7.0,1651072515809521.0
-5.0,-11.0,7.0,-2.0,-5.0,-2.0,0.0,10.0,1651072515829623.0
-3.0,8.0,-7.0,-14.0,-22.0,-14.0,-9.0,-16.0,1651072515829623.0
8.0,-8.0,-15.0,-3.0,14.0,-3.0,-1.0,8.0,1651072515831647.0
-19.0,-18.0,3.0,8.0,13.0,13.0,0.0,-6.0,1651072515831647.0
20.0,45.0,3.0,2.0,6.0,5.0,6.0,7.0,1651072515852548.0
-1.0,-31.0,25.0,6.0,0.0,-7.0,-2.0,-3.0,1651072515852548.0
-16.0,-37.0,-29.0,-5.0,-6.0,-2.0,-4.0,-6.0,1651072515854476.0
-8.0,30.0,-23.0,-7.0,-10.0,-10.0,-6.0,-6.0,1651072515854476.0
-3.0,-36.0,13.0,8.0,5.0,9.0,2.0,5.0,1651072515867624.0
17.0,34.0,-6.0,1.0,14.0,5.0,4.0,8.0,1651072515867624.0
-11.0,-4.0,22.0,3.0,-6.0,-3.0,-2.0,-2.0,1651072515869551.0
3.0,-4.0,-43.0,-9.0,-29.0,-17.0,-3.0,2.0,1651072515869551.0
-9.0,4.0,23.0,12.0,29.0,7.0,-3.0,-8.0,1651072515890364.0
4.0,31.0,-4.0,-5.0,-3.0,7.0,2.0,-2.0,1651072515890364.0
-1.0,5.0,-6.0,-4.0,0.0,2.0,3.0,2.0,1651072515891376.0
3.0,30.0,23.0,3.0,-12.0,-8.0,-3.0,0.0,1651072515891376.0
-1.0,1.0,-7.0,0.0,8.0,1.0,0.0,-4.0,1651072515912442.0
4.0,-34.0,-4.0,1.0,-15.0,-5.0,-1.0,1.0,1651072515912442.0
-7.0,11.0,10.0,-3.0,4.0,0.0,-3.0,-2.0,1651072515914455.0
13.0,6.0,-36.0,-12.0,-9.0,0.0,3.0,9.0,1651072515914455.0
1.0,-8.0,-12.0,-5.0,-9.0,-8.0,-8.0,-13.0,1651072515927461.0
-18.0,0.0,5.0,7.0,5.0,1.0,-4.0,-8.0,1651072515927461.0
3.0,-19.0,-14.0,0.0,1.0,1.0,4.0,4.0,1651072515929388.0
6.0,-14.0,37.0,3.0,3.0,2.0,3.0,5.0,1651072515929388.0
-2.0,-8.0,-34.0,-1.0,5.0,6.0,5.0,7.0,1651072515949543.0
2.0,-10.0,-21.0,-6.0,-11.0,-4.0,-1.0,-1.0,1651072515949543.0
-7.0,18.0,13.0,-2.0,-4.0,-8.0,-7.0,-5.0,1651072515951470.0
-3.0,-13.0,30.0,8.0,16.0,6.0,1.0,-1.0,1651072515951470.0
1.0,10.0,2.0,-2.0,-8.0,1.0,1.0,-3.0,1651072515972589.0
0.0,-10.0,19.0,-2.0,2.0,0.0,0.0,5.0,1651072515972589.0
-15.0,-11.0,-58.0,-19.0,-29.0,-12.0,-3.0,-2.0,1651072515974547.0
24.0,42.0,40.0,16.0,10.0,5.0,5.0,3.0,1651072515974547.0
-5.0,-28.0,0.0,1.0,18.0,5.0,-1.0,1.0,1651072515994748.0
-6.0,21.0,-4.0,-2.0,-10.0,-10.0,-3.0,2.0,1651072515994748.0
-1.0,-47.0,20.0,1.0,4.0,4.0,-1.0,-3.0,1651072515996677.0
-4.0,40.0,-25.0,-14.0,-9.0,-18.0,-3.0,0.0,1651072515996677.0
-6.0,-19.0,25.0,5.0,-3.0,11.0,-2.0,-6.0,1651072516017560.0
12.0,35.0,-2.0,-2.0,-7.0,-1.0,1.0,1.0,1651072516017560.0
5.0,-4.0,19.0,10.0,2.0,3.0,3.0,4.0,1651072516019493.0
-8.0,-21.0,-11.0,5.0,22.0,11.0,-1.0,-6.0,1651072516019493.0
3.0,-1.0,12.0,-6.0,-25.0,-16.0,-1.0,3.0,1651072516032676.0
-9.0,6.0,22.0,1.0,12.0,2.0,1.0,-1.0,1651072516032676.0
11.0,-5.0,-44.0,-1.0,-6.0,3.0,3.0,1.0,1651072516033640.0
-6.0,-14.0,14.0,3.0,12.0,0.0,-1.0,-2.0,1651072516033640.0
-9.0,-18.0,-15.0,-6.0,-9.0,-5.0,-1.0,-2.0,1651072516046421.0
7.0,31.0,30.0,9.0,-4.0,0.0,-2.0,0.0,1651072516046421.0
3.0,-4.0,-49.0,-1.0,4.0,1.0,4.0,5.0,1651072516053447.0
8.0,15.0,42.0,12.0,23.0,9.0,2.0,6.0,1651072516053447.0
-3.0,-36.0,-34.0,-9.0,-7.0,-8.0,-2.0,1.0,1651072516069471.0
8.0,32.0,-10.0,5.0,16.0,10.0,4.0,-2.0,1651072516069471.0
7.0,33.0,29.0,5.0,-14.0,-8.0,-3.0,0.0,1651072516071455.0
-15.0,-53.0,-52.0,-11.0,4.0,-2.0,-3.0,-1.0,1651072516071455.0
8.0,37.0,-4.0,-4.0,-3.0,-2.0,-4.0,-2.0,1651072516092695.0
-8.0,-31.0,9.0,0.0,1.0,-3.0,-1.0,-7.0,1651072516092695.0
-13.0,-21.0,-1.0,1.0,12.0,4.0,-3.0,-8.0,1651072516093656.0
-1.0,18.0,-7.0,-6.0,-20.0,-6.0,-4.0,-5.0,1651072516093656.0
-4.0,-8.0,11.0,8.0,-9.0,-3.0,-3.0,-1.0,1651072516106687.0
-4.0,-20.0,-15.0,-6.0,18.0,6.0,1.0,-11.0,1651072516106687.0
7.0,11.0,33.0,-2.0,-2.0,-2.0,0.0,18.0,1651072516113667.0
-5.0,-8.0,-8.0,1.0,-12.0,-5.0,1.0,-2.0,1651072516113667.0
1.0,14.0,-8.0,-9.0,-6.0,2.0,0.0,-8.0,1651072516130625.0
-5.0,-16.0,8.0,2.0,0.0,0.0,-2.0,-1.0,1651072516130625.0
0.0,7.0,-17.0,-3.0,0.0,-3.0,-4.0,1.0,1651072516131589.0
-3.0,-16.0,-3.0,-4.0,-9.0,0.0,3.0,0.0,1651072516131589.0
2.0,12.0,22.0,4.0,-4.0,-1.0,2.0,-4.0,1651072516152398.0
-4.0,-11.0,11.0,3.0,1.0,-2.0,-4.0,0.0,1651072516152398.0
-5.0,8.0,4.0,-6.0,-13.0,-6.0,-5.0,-12.0,1651072516154424.0
3.0,-12.0,9.0,0.0,7.0,0.0,-2.0,0.0,1651072516154424.0
-3.0,22.0,-27.0,3.0,28.0,17.0,2.0,0.0,1651072516166548.0
1.0,27.0,-7.0,-5.0,-31.0,-8.0,2.0,17.0,1651072516166548.0
-4.0,-44.0,29.0,9.0,41.0,8.0,-1.0,-9.0,1651072516181455.0
-7.0,-20.0,-17.0,-8.0,-20.0,-6.0,-5.0,-9.0,1651072516181455.0
3.0,16.0,37.0,2.0,-2.0,-3.0,2.0,9.0,1651072516189603.0
-1.0,-22.0,-28.0,-9.0,-10.0,-7.0,-4.0,4.0,1651072516189603.0
-13.0,-24.0,-11.0,-9.0,-21.0,-6.0,-2.0,-8.0,1651072516191599.0
16.0,47.0,20.0,6.0,12.0,3.0,1.0,7.0,1651072516191599.0
14.0,11.0,-4.0,12.0,35.0,19.0,12.0,17.0,1651072516212232.0
-5.0,45.0,-5.0,3.0,-11.0,-6.0,-3.0,-17.0,1651072516212232.0
-5.0,-42.0,-17.0,-1.0,3.0,-1.0,2.0,-8.0,1651072516214230.0
-3.0,-22.0,-43.0,-7.0,-3.0,3.0,0.0,9.0,1651072516214230.0
-6.0,-31.0,37.0,7.0,-11.0,-6.0,-2.0,-8.0,1651072516227202.0
11.0,25.0,-10.0,-6.0,-1.0,1.0,1.0,3.0,1651072516227202.0
-2.0,11.0,27.0,1.0,-8.0,3.0,0.0,6.0,1651072516233763.0
1.0,-26.0,-9.0,6.0,12.0,-1.0,-1.0,-6.0,1651072516233763.0
1.0,5.0,-14.0,-4.0,-4.0,-2.0,2.0,9.0,1651072516249720.0
-14.0,-40.0,26.0,4.0,11.0,2.0,-2.0,-2.0,1651072516249720.0
8.0,25.0,-1.0,1.0,-7.0,-9.0,-2.0,-13.0,1651072516251648.0
-1.0,20.0,25.0,-7.0,-15.0,1.0,-2.0,6.0,1651072516251648.0
-2.0,-7.0,-25.0,-5.0,-5.0,-4.0,3.0,9.0,1651072516272305.0
3.0,-4.0,9.0,3.0,12.0,1.0,-1.0,-7.0,1651072516272305.0
-2.0,9.0,-5.0,5.0,-6.0,3.0,1.0,0.0,1651072516274327.0
0.0,18.0,28.0,2.0,6.0,-1.0,-1.0,-1.0,1651072516274327.0
3.0,-25.0,-24.0,-6.0,-5.0,-2.0,-3.0,-12.0,1651072516286268.0
3.0,-9.0,3.0,1.0,-6.0,6.0,2.0,9.0,1651072516286268.0
5.0,28.0,-20.0,-5.0,-1.0,-3.0,1.0,1.0,1651072516301447.0
-13.0,-59.0,-43.0,-9.0,-16.0,-8.0,-5.0,-2.0,1651072516301447.0
0.0,55.0,14.0,-5.0,-10.0,1.0,-3.0,-7.0,1651072516310380.0
16.0,-8.0,-26.0,-3.0,4.0,-2.0,5.0,8.0,1651072516310380.0
3.0,-16.0,27.0,1.0,5.0,3.0,2.0,8.0,1651072516311355.0
-8.0,-4.0,1.0,0.0,4.0,1.0,-1.0,-9.0,1651072516311355.0
3.0,10.0,-10.0,5.0,2.0,-2.0,-1.0,-1.0,1651072516332673.0
-6.0,-12.0,3.0,-1.0,-11.0,-5.0,-3.0,-2.0,1651072516332673.0
0.0,12.0,9.0,1.0,5.0,5.0,4.0,-2.0,1651072516333580.0
5.0,25.0,11.0,-1.0,-7.0,1.0,3.0,5.0,1651072516333580.0
5.0,-37.0,-14.0,2.0,5.0,-3.0,-2.0,4.0,1651072516346554.0
-5.0,-1.0,35.0,2.0,5.0,-1.0,-1.0,1.0,1651072516346554.0
-3.0,5.0,-31.0,-2.0,9.0,4.0,-4.0,-9.0,1651072516355521.0
6.0,13.0,-4.0,2.0,8.0,8.0,5.0,5.0,1651072516355521.0
-5.0,-9.0,-1.0,-2.0,-3.0,-3.0,-1.0,-3.0,1651072516369468.0
0.0,12.0,4.0,0.0,-3.0,-2.0,-3.0,-5.0,1651072516369468.0
-3.0,-5.0,-16.0,-3.0,3.0,0.0,1.0,7.0,1651072516377448.0
-4.0,-2.0,22.0,2.0,-3.0,-11.0,-4.0,-10.0,1651072516377448.0
-3.0,29.0,-8.0,-3.0,-4.0,7.0,0.0,1.0,1651072516392475.0
3.0,-24.0,-10.0,6.0,0.0,1.0,5.0,6.0,1651072516392475.0
6.0,4.0,11.0,-11.0,-23.0,-13.0,-2.0,10.0,1651072516394403.0
5.0,28.0,-16.0,8.0,44.0,20.0,2.0,-8.0,1651072516394403.0
-3.0,-13.0,37.0,5.0,-1.0,-6.0,-2.0,4.0,1651072516406489.0
-10.0,-5.0,-15.0,-4.0,-7.0,-1.0,0.0,-4.0,1651072516406489.0
-3.0,3.0,17.0,5.0,-7.0,-1.0,-1.0,-4.0,1651072516415467.0
-4.0,-6.0,1.0,-6.0,-9.0,-6.0,-1.0,-2.0,1651072516415467.0
4.0,-39.0,-7.0,2.0,9.0,5.0,1.0,5.0,1651072516429550.0
0.0,15.0,-41.0,-6.0,1.0,1.0,-5.0,-13.0,1651072516429550.0
9.0,18.0,14.0,4.0,11.0,-1.0,-1.0,11.0,1651072516431554.0
0.0,7.0,3.0,-5.0,-17.0,-4.0,0.0,1.0,1651072516431554.0
-9.0,-21.0,7.0,-6.0,-12.0,-13.0,-4.0,-6.0,1651072516460412.0
-11.0,-1.0,-8.0,-3.0,-8.0,0.0,0.0,-9.0,1651072516460412.0
16.0,-3.0,6.0,8.0,25.0,9.0,4.0,1.0,1651072516461425.0
15.0,28.0,-12.0,-4.0,0.0,11.0,3.0,13.0,1651072516461425.0
-5.0,-3.0,3.0,0.0,4.0,4.0,0.0,-2.0,1651072516466425.0
7.0,9.0,-8.0,-6.0,-3.0,-4.0,0.0,-1.0,1651072516466425.0
-17.0,3.0,16.0,6.0,-5.0,-9.0,-6.0,-10.0,1651072516475376.0
-3.0,-20.0,-20.0,-2.0,-12.0,-5.0,0.0,-1.0,1651072516475376.0
0.0,19.0,-4.0,-7.0,-5.0,-6.0,-1.0,0.0,1651072516490394.0
-4.0,-3.0,-2.0,-1.0,3.0,1.0,2.0,6.0,1651072516490394.0
8.0,9.0,23.0,2.0,0.0,5.0,2.0,3.0,1651072516491365.0
-2.0,-8.0,21.0,5.0,2.0,1.0,5.0,-2.0,1651072516491365.0
1.0,17.0,3.0,1.0,-2.0,1.0,0.0,-3.0,1651072516512538.0
-6.0,-29.0,-18.0,-1.0,3.0,-2.0,1.0,6.0,1651072516512538.0
-12.0,-12.0,-18.0,-7.0,-13.0,-4.0,-6.0,-12.0,1651072516514467.0
7.0,0.0,11.0,5.0,11.0,2.0,0.0,1.0,1651072516514467.0
3.0,2.0,17.0,0.0,0.0,-4.0,-2.0,1.0,1651072516526578.0
1.0,1.0,11.0,6.0,10.0,5.0,1.0,3.0,1651072516526578.0
-8.0,2.0,-8.0,-3.0,-3.0,-1.0,-3.0,-13.0,1651072516535441.0
0.0,-5.0,-7.0,-7.0,-20.0,-8.0,-6.0,6.0,1651072516535441.0
-7.0,0.0,3.0,-6.0,-4.0,-1.0,3.0,-2.0,1651072516549500.0
14.0,6.0,5.0,9.0,12.0,3.0,1.0,6.0,1651072516549500.0
-4.0,10.0,-7.0,-4.0,-4.0,2.0,-2.0,0.0,1651072516551428.0
-9.0,-26.0,11.0,-2.0,-7.0,-6.0,-5.0,-5.0,1651072516551428.0
7.0,6.0,-18.0,5.0,18.0,4.0,4.0,3.0,1651072516572643.0
6.0,-2.0,12.0,3.0,5.0,6.0,1.0,5.0,1651072516572643.0
-1.0,1.0,-15.0,-2.0,8.0,3.0,2.0,2.0,1651072516573620.0
-3.0,-6.0,7.0,0.0,-3.0,-5.0,-2.0,-1.0,1651072516573620.0
-5.0,-3.0,0.0,-3.0,-9.0,-5.0,-6.0,-2.0,1651072516585600.0
-5.0,-2.0,5.0,-7.0,-14.0,-12.0,-6.0,-8.0,1651072516585600.0
5.0,1.0,6.0,3.0,4.0,-6.0,3.0,8.0,1651072516595563.0
1.0,7.0,9.0,3.0,19.0,22.0,7.0,0.0,1651072516595563.0
3.0,6.0,-13.0,2.0,-6.0,-3.0,0.0,-1.0,1651072516610415.0
-5.0,-9.0,-22.0,-10.0,0.0,-1.0,-4.0,-3.0,1651072516610415.0
-5.0,-20.0,-16.0,5.0,-1.0,-3.0,-1.0,1.0,1651072516611414.0
-5.0,3.0,8.0,-3.0,-11.0,-11.0,-4.0,-5.0,1651072516611414.0
9.0,7.0,-5.0,1.0,2.0,1.0,-1.0,-4.0,1651072516632515.0
0.0,-4.0,3.0,-3.0,-3.0,-3.0,1.0,3.0,1651072516632515.0
1.0,0.0,-1.0,-2.0,0.0,3.0,-1.0,-3.0,1651072516634470.0
0.0,2.0,-5.0,0.0,0.0,-4.0,-1.0,4.0,1651072516634470.0
-5.0,0.0,0.0,-2.0,1.0,2.0,1.0,2.0,1651072516646438.0
-3.0,-3.0,-1.0,-1.0,1.0,5.0,3.0,-1.0,1651072516646438.0
-1.0,-2.0,-2.0,-3.0,-1.0,-10.0,-2.0,-1.0,1651072516655490.0
3.0,3.0,-11.0,4.0,5.0,10.0,-1.0,-5.0,1651072516655490.0
0.0,9.0,9.0,0.0,-4.0,-2.0,-2.0,0.0,1651072516669508.0
-2.0,0.0,11.0,-3.0,-7.0,-7.0,-2.0,-3.0,1651072516669508.0
-5.0,-2.0,-1.0,-1.0,1.0,6.0,-2.0,0.0,1651072516671483.0
8.0,0.0,-10.0,-2.0,-3.0,-8.0,0.0,-3.0,1651072516671483.0
-3.0,-8.0,-3.0,2.0,-4.0,-5.0,-3.0,-1.0,1651072516692559.0
2.0,4.0,7.0,7.0,2.0,4.0,1.0,-3.0,1651072516692559.0
5.0,0.0,-1.0,-7.0,3.0,4.0,0.0,2.0,1651072516693529.0
-7.0,-4.0,-4.0,-3.0,-2.0,-4.0,-3.0,-3.0,1651072516693529.0
-2.0,1.0,4.0,-3.0,2.0,2.0,0.0,-1.0,1651072516706454.0
7.0,9.0,3.0,0.0,-6.0,-3.0,-2.0,0.0,1651072516706454.0
-11.0,-10.0,2.0,2.0,1.0,-1.0,0.0,3.0,1651072516714745.0
-8.0,0.0,0.0,5.0,2.0,0.0,0.0,-4.0,1651072516714745.0
-1.0,-3.0,-7.0,-7.0,-4.0,-2.0,-3.0,-2.0,1651072516728577.0
-4.0,-4.0,-6.0,-7.0,-3.0,-3.0,-2.0,0.0,1651072516728577.0
8.0,5.0,-4.0,-2.0,3.0,4.0,1.0,3.0,1651072516737517.0
-2.0,-5.0,0.0,-4.0,-2.0,5.0,-1.0,-2.0,1651072516737517.0
-1.0,-1.0,2.0,3.0,-5.0,-5.0,-1.0,0.0,1651072516752550.0
-1.0,-1.0,6.0,8.0,6.0,-8.0,0.0,0.0,1651072516752550.0
3.0,2.0,7.0,9.0,5.0,16.0,3.0,1.0,1651072516753549.0
-2.0,0.0,-9.0,-19.0,-6.0,-2.0,1.0,1.0,1651072516753549.0
0.0,-5.0,-3.0,6.0,1.0,-1.0,-2.0,0.0,1651072516774806.0
-6.0,-10.0,-3.0,0.0,-7.0,-5.0,-2.0,-1.0,1651072516774806.0
8.0,4.0,1.0,0.0,3.0,-3.0,0.0,-1.0,1651072516776761.0
5.0,3.0,4.0,6.0,1.0,-7.0,-2.0,-2.0,1651072516776761.0
-21.0,-4.0,-5.0,-11.0,-11.0,-4.0,1.0,-1.0,1651072516790334.0
47.0,10.0,24.0,16.0,11.0,16.0,2.0,3.0,1651072516790334.0
-65.0,-19.0,-9.0,-13.0,-3.0,-6.0,-2.0,-1.0,1651072516791342.0
-2.0,-9.0,-11.0,-9.0,-9.0,-3.0,-4.0,-3.0,1651072516791342.0
6.0,7.0,19.0,16.0,4.0,-2.0,1.0,0.0,1651072516812573.0
-4.0,-16.0,-29.0,-25.0,-4.0,-6.0,-2.0,-2.0,1651072516812573.0
47.0,14.0,3.0,0.0,-1.0,4.0,2.0,3.0,1651072516818532.0
-14.0,0.0,15.0,13.0,4.0,3.0,2.0,2.0,1651072516818532.0
-11.0,-20.0,-19.0,-4.0,-3.0,-3.0,-4.0,-4.0,1651072516834626.0
-8.0,5.0,12.0,13.0,2.0,1.0,-1.0,-3.0,1651072516834626.0
18.0,7.0,-1.0,-12.0,1.0,-2.0,-2.0,1.0,1651072516836553.0
-3.0,5.0,4.0,-2.0,-5.0,-5.0,1.0,2.0,1651072516836553.0
20.0,3.0,3.0,1.0,3.0,7.0,1.0,2.0,1651072516849588.0
-8.0,1.0,-6.0,-3.0,-4.0,1.0,-1.0,-1.0,1651072516849588.0
-8.0,-4.0,-6.0,1.0,-5.0,-9.0,0.0,-1.0,1651072516855620.0
6.0,2.0,12.0,0.0,3.0,0.0,-1.0,-2.0,1651072516855620.0
2.0,5.0,4.0,9.0,8.0,6.0,3.0,1.0,1651072516872698.0
-9.0,0.0,-11.0,-19.0,-13.0,-5.0,-2.0,-2.0,1651072516872698.0
-8.0,4.0,20.0,6.0,-4.0,0.0,-1.0,-1.0,1651072516873698.0
0.0,-2.0,-11.0,-2.0,-5.0,-2.0,0.0,-1.0,1651072516873698.0
4.0,-1.0,-45.0,-26.0,-3.0,-3.0,-3.0,-3.0,1651072516894883.0
-10.0,7.0,22.0,14.0,7.0,6.0,1.0,0.0,1651072516894883.0
0.0,-11.0,-3.0,-8.0,-4.0,-4.0,-3.0,-1.0,1651072516896847.0
4.0,13.0,16.0,9.0,-2.0,-2.0,-4.0,0.0,1651072516896847.0
-5.0,-24.0,-8.0,14.0,2.0,1.0,-1.0,-2.0,1651072516908846.0
0.0,0.0,-3.0,-17.0,-5.0,1.0,2.0,-1.0,1651072516908846.0
0.0,-7.0,-3.0,36.0,2.0,1.0,2.0,0.0,1651072516915828.0
3.0,6.0,4.0,-36.0,4.0,3.0,3.0,0.0,1651072516915828.0
0.0,9.0,10.0,-6.0,-7.0,1.0,-1.0,-1.0,1651072516931903.0
-4.0,13.0,31.0,-6.0,-2.0,-4.0,-1.0,0.0,1651072516931903.0
2.0,-30.0,-46.0,4.0,-9.0,-11.0,-3.0,-1.0,1651072516933865.0
7.0,6.0,1.0,13.0,13.0,7.0,1.0,1.0,1651072516933865.0
-9.0,-5.0,-7.0,-11.0,1.0,1.0,-1.0,-1.0,1651072516955202.0
0.0,8.0,17.0,21.0,10.0,8.0,0.0,0.0,1651072516955202.0
-1.0,4.0,0.0,-10.0,-3.0,0.0,0.0,-2.0,1651072516956136.0
2.0,2.0,1.0,8.0,-7.0,-9.0,-3.0,-2.0,1651072516956136.0
2.0,-1.0,-11.0,-3.0,-1.0,-3.0,-1.0,1.0,1651072516969163.0
-4.0,-14.0,-20.0,-4.0,-3.0,-2.0,-2.0,0.0,1651072516969163.0
1.0,7.0,9.0,-4.0,2.0,1.0,1.0,0.0,1651072516976144.0
-4.0,2.0,-12.0,4.0,-1.0,-3.0,1.0,-1.0,1651072516976144.0
2.0,10.0,24.0,-6.0,-5.0,-2.0,-2.0,-2.0,1651072516992223.0
-8.0,-20.0,-45.0,0.0,-1.0,-8.0,0.0,1.0,1651072516992223.0
2.0,10.0,8.0,-8.0,9.0,14.0,4.0,1.0,1651072516994170.0
-1.0,-3.0,6.0,-7.0,-4.0,-1.0,-1.0,-1.0,1651072516994170.0
1.0,2.0,-6.0,9.0,0.0,1.0,0.0,-1.0,1651072517015051.0
2.0,7.0,10.0,-3.0,-13.0,-11.0,-2.0,-1.0,1651072517015051.0
-2.0,1.0,1.0,-9.0,0.0,-5.0,-2.0,0.0,1651072517016979.0
-3.0,-8.0,-11.0,4.0,4.0,6.0,1.0,1.0,1651072517016979.0
0.0,3.0,-1.0,-6.0,11.0,1.0,-1.0,0.0,1651072517029014.0
0.0,5.0,18.0,3.0,6.0,7.0,2.0,-3.0,1651072517029014.0
-1.0,-5.0,-25.0,-5.0,-10.0,-6.0,-4.0,0.0,1651072517035959.0
-3.0,-5.0,3.0,10.0,4.0,1.0,-1.0,-1.0,1651072517035959.0
0.0,-2.0,-5.0,-2.0,-11.0,-7.0,1.0,1.0,1651072517052641.0
1.0,12.0,21.0,3.0,2.0,5.0,0.0,2.0,1651072517052641.0
-2.0,1.0,-9.0,-2.0,1.0,1.0,-2.0,-2.0,1651072517053900.0
-1.0,-5.0,-1.0,-8.0,-9.0,-5.0,-1.0,-2.0,1651072517053900.0
-1.0,-1.0,10.0,3.0,-2.0,-4.0,-3.0,-3.0,1651072517074546.0
-1.0,-5.0,-31.0,-13.0,-3.0,-1.0,0.0,-1.0,1651072517074546.0
-1.0,-3.0,-3.0,-7.0,2.0,0.0,1.0,0.0,1651072517076559.0
-3.0,-7.0,-25.0,7.0,4.0,1.0,-2.0,-1.0,1651072517076559.0
3.0,7.0,20.0,-4.0,-7.0,0.0,0.0,2.0,1651072517088571.0
-1.0,-3.0,6.0,2.0,-2.0,-7.0,-1.0,1.0,1651072517088571.0
-1.0,4.0,11.0,13.0,1.0,6.0,-2.0,0.0,1651072517097488.0
0.0,-1.0,7.0,7.0,6.0,2.0,3.0,0.0,1651072517097488.0
1.0,6.0,-4.0,-8.0,-1.0,2.0,-1.0,0.0,1651072517112527.0
5.0,-2.0,-4.0,7.0,1.0,-1.0,0.0,1.0,1651072517112527.0
-7.0,-3.0,-4.0,4.0,0.0,-6.0,-1.0,-1.0,1651072517114474.0
0.0,-1.0,-7.0,-15.0,-2.0,2.0,0.0,-1.0,1651072517114474.0
-2.0,0.0,-1.0,0.0,1.0,1.0,-1.0,-1.0,1651072517134542.0
2.0,-3.0,-7.0,3.0,-3.0,-3.0,-3.0,-2.0,1651072517134542.0
2.0,5.0,17.0,15.0,-3.0,-3.0,2.0,0.0,1651072517136552.0
-2.0,-5.0,-10.0,-5.0,5.0,4.0,-1.0,-1.0,1651072517136552.0
-4.0,-10.0,-12.0,-2.0,-4.0,-10.0,-4.0,-1.0,1651072517149662.0
-4.0,0.0,-6.0,3.0,3.0,6.0,1.0,0.0,1651072517149662.0
0.0,2.0,6.0,-8.0,12.0,6.0,0.0,0.0,1651072517155715.0
-5.0,-18.0,-17.0,8.0,-10.0,-2.0,-3.0,-1.0,1651072517155715.0
2.0,10.0,4.0,-1.0,2.0,-2.0,-1.0,0.0,1651072517172817.0
-4.0,-7.0,5.0,12.0,-8.0,-4.0,1.0,-1.0,1651072517172817.0
2.0,0.0,-29.0,-38.0,-8.0,2.0,-2.0,-1.0,1651072517173817.0
3.0,7.0,36.0,7.0,5.0,-1.0,0.0,0.0,1651072517173817.0
-3.0,-10.0,5.0,15.0,1.0,-1.0,0.0,-2.0,1651072517195410.0
-1.0,1.0,-1.0,-7.0,-1.0,0.0,0.0,-1.0,1651072517195410.0
0.0,1.0,14.0,19.0,0.0,-2.0,1.0,-3.0,1651072517196411.0
1.0,6.0,-9.0,-11.0,-5.0,-3.0,-1.0,0.0,1651072517196411.0
0.0,-5.0,-3.0,-5.0,-2.0,5.0,2.0,-1.0,1651072517209717.0
0.0,2.0,3.0,-5.0,5.0,0.0,-1.0,0.0,1651072517209717.0
0.0,5.0,-2.0,0.0,1.0,3.0,0.0,2.0,1651072517215708.0
-1.0,-2.0,-4.0,6.0,-4.0,-9.0,-3.0,-1.0,1651072517215708.0
-1.0,0.0,6.0,-1.0,-5.0,0.0,0.0,2.0,1651072517232607.0
2.0,-1.0,-17.0,-3.0,4.0,3.0,2.0,1.0,1651072517232607.0
-2.0,-1.0,6.0,-12.0,-3.0,-5.0,-1.0,-2.0,1651072517233565.0
-1.0,7.0,10.0,-6.0,-4.0,-1.0,-1.0,-1.0,1651072517233565.0
3.0,-1.0,-15.0,8.0,-8.0,-6.0,-4.0,-1.0,1651072517254553.0
0.0,-2.0,8.0,-17.0,3.0,-1.0,0.0,0.0,1651072517254553.0
2.0,7.0,3.0,9.0,6.0,10.0,2.0,0.0,1651072517256548.0
0.0,0.0,-12.0,2.0,-1.0,1.0,0.0,0.0,1651072517256548.0
-1.0,1.0,4.0,-3.0,4.0,5.0,-1.0,1.0,1651072517268583.0
-2.0,0.0,-3.0,-5.0,-8.0,-7.0,-5.0,-3.0,1651072517268583.0
-2.0,-3.0,4.0,21.0,-3.0,-6.0,-1.0,-4.0,1651072517277493.0
2.0,-4.0,-5.0,-9.0,-1.0,4.0,0.0,0.0,1651072517277493.0
0.0,0.0,1.0,-4.0,7.0,2.0,1.0,2.0,1651072517292746.0
-2.0,1.0,4.0,10.0,-2.0,-1.0,-1.0,-1.0,1651072517292746.0
0.0,-6.0,-21.0,-15.0,-7.0,-4.0,-2.0,-1.0,1651072517293686.0
0.0,-9.0,-7.0,-2.0,-4.0,-13.0,-1.0,-1.0,1651072517293686.0
0.0,8.0,15.0,6.0,12.0,23.0,3.0,1.0,1651072517314752.0
0.0,0.0,1.0,-8.0,-1.0,0.0,0.0,1.0,1651072517314752.0
1.0,5.0,9.0,7.0,-4.0,-1.0,0.0,1.0,1651072517316774.0
-1.0,6.0,5.0,1.0,-2.0,-5.0,-1.0,0.0,1651072517316774.0
-2.0,-6.0,-10.0,-15.0,-2.0,-5.0,0.0,0.0,1651072517328781.0
-1.0,-3.0,-19.0,4.0,0.0,3.0,0.0,0.0,1651072517328781.0
-1.0,-1.0,14.0,-6.0,-3.0,-3.0,-2.0,0.0,1651072517337691.0
0.0,-1.0,-2.0,-1.0,-1.0,2.0,-1.0,0.0,1651072517337691.0
-3.0,-3.0,-18.0,-1.0,0.0,-3.0,0.0,-2.0,1651072517352696.0
-2.0,4.0,7.0,-5.0,-5.0,-6.0,-1.0,-1.0,1651072517352696.0
-2.0,-9.0,3.0,0.0,5.0,6.0,1.0,1.0,1651072517353678.0
2.0,1.0,2.0,4.0,5.0,2.0,0.0,0.0,1651072517353678.0
1.0,0.0,2.0,2.0,-3.0,-4.0,0.0,-1.0,1651072517374614.0
-1.0,-1.0,2.0,-3.0,-1.0,2.0,1.0,1.0,1651072517374614.0
0.0,-5.0,-4.0,4.0,-1.0,-2.0,-1.0,-1.0,1651072517376611.0
-3.0,-8.0,-8.0,-8.0,-4.0,4.0,0.0,0.0,1651072517376611.0
0.0,2.0,5.0,-4.0,-5.0,-12.0,-2.0,-1.0,1651072517388643.0
-2.0,-2.0,15.0,16.0,-11.0,0.0,-3.0,-2.0,1651072517388643.0
1.0,1.0,-2.0,-3.0,14.0,11.0,3.0,2.0,1651072517404699.0
0.0,2.0,3.0,2.0,5.0,7.0,0.0,1.0,1651072517404699.0
-2.0,3.0,7.0,-3.0,-1.0,-1.0,0.0,-2.0,1651072517412789.0
-1.0,3.0,0.0,3.0,0.0,-4.0,0.0,-2.0,1651072517412789.0
0.0,1.0,5.0,-6.0,-8.0,-8.0,-2.0,0.0,1651072517413784.0
-3.0,-2.0,-7.0,-4.0,-5.0,-1.0,-2.0,1.0,1651072517413784.0
1.0,3.0,7.0,6.0,4.0,1.0,0.0,0.0,1651072517435401.0
0.0,-1.0,-7.0,-3.0,-5.0,-6.0,-2.0,-2.0,1651072517435401.0
0.0,0.0,3.0,2.0,2.0,5.0,0.0,-3.0,1651072517436368.0
2.0,3.0,-4.0,0.0,4.0,3.0,-1.0,0.0,1651072517436368.0
0.0,-5.0,-1.0,3.0,-3.0,-2.0,0.0,-1.0,1651072517448335.0
0.0,0.0,-12.0,-10.0,6.0,3.0,0.0,-1.0,1651072517448335.0
-2.0,-5.0,15.0,8.0,-5.0,-3.0,1.0,-1.0,1651072517457311.0
-3.0,-6.0,-10.0,-5.0,-2.0,-6.0,-1.0,-2.0,1651072517457311.0
1.0,5.0,10.0,2.0,7.0,3.0,-1.0,-1.0,1651072517472338.0
1.0,-3.0,0.0,9.0,-2.0,1.0,1.0,1.0,1651072517472338.0
2.0,3.0,-14.0,-27.0,-5.0,-3.0,-2.0,0.0,1651072517474266.0
1.0,7.0,8.0,6.0,1.0,2.0,-1.0,-1.0,1651072517474266.0
-3.0,-13.0,-28.0,2.0,1.0,-7.0,-1.0,-1.0,1651072517494558.0
0.0,8.0,8.0,3.0,2.0,13.0,2.0,2.0,1651072517494558.0
-2.0,-3.0,6.0,-1.0,-14.0,-8.0,-2.0,0.0,1651072517496485.0
0.0,2.0,5.0,13.0,9.0,2.0,0.0,-2.0,1651072517496485.0
2.0,0.0,-6.0,-11.0,-1.0,2.0,1.0,-1.0,1651072517508522.0
-1.0,-2.0,12.0,-11.0,-4.0,-7.0,-3.0,-1.0,1651072517508522.0
-1.0,-3.0,-16.0,22.0,3.0,1.0,0.0,0.0,1651072517517477.0
0.0,1.0,10.0,2.0,-6.0,1.0,-1.0,-2.0,1651072517517477.0
0.0,1.0,-4.0,-12.0,1.0,0.0,-1.0,0.0,1651072517532812.0
-1.0,-9.0,-14.0,-6.0,0.0,0.0,-1.0,-1.0,1651072517532812.0
-2.0,4.0,6.0,0.0,-6.0,-9.0,-3.0,0.0,1651072517533812.0
-2.0,-1.0,2.0,-1.0,6.0,6.0,1.0,-1.0,1651072517533812.0
-2.0,0.0,-7.0,6.0,3.0,6.0,0.0,1.0,1651072517554643.0
0.0,5.0,17.0,1.0,0.0,1.0,-1.0,1.0,1651072517554643.0
-2.0,-1.0,-11.0,-9.0,-3.0,-3.0,-1.0,-1.0,1651072517556571.0
1.0,0.0,-5.0,-6.0,-4.0,-4.0,0.0,1.0,1651072517556571.0
1.0,2.0,5.0,9.0,1.0,1.0,1.0,0.0,1651072517569536.0
-1.0,-3.0,-1.0,14.0,-9.0,-5.0,-2.0,0.0,1651072517569536.0
0.0,1.0,6.0,6.0,11.0,5.0,0.0,1.0,1651072517577521.0
0.0,2.0,-6.0,-10.0,0.0,0.0,0.0,0.0,1651072517577521.0
-2.0,0.0,4.0,-5.0,-15.0,-3.0,-1.0,-1.0,1651072517592163.0
-3.0,-7.0,-10.0,-8.0,9.0,-1.0,-1.0,0.0,1651072517592163.0
-4.0,-9.0,-9.0,1.0,-4.0,-1.0,-1.0,-2.0,1651072517594091.0
-2.0,-6.0,-11.0,-2.0,-1.0,-2.0,0.0,1.0,1651072517594091.0
-2.0,5.0,2.0,-4.0,-1.0,-2.0,-3.0,-1.0,1651072517615147.0
0.0,0.0,-2.0,0.0,-4.0,-2.0,-1.0,-2.0,1651072517615147.0
0.0,1.0,-5.0,-2.0,3.0,-5.0,-1.0,-2.0,1651072517616174.0
0.0,3.0,7.0,-1.0,-4.0,7.0,0.0,-2.0,1651072517616174.0
-1.0,-2.0,10.0,0.0,1.0,-4.0,0.0,-1.0,1651072517628179.0
-2.0,-3.0,2.0,15.0,0.0,-2.0,-1.0,-1.0,1651072517628179.0
2.0,2.0,1.0,-9.0,8.0,7.0,1.0,0.0,1651072517637089.0
0.0,-1.0,1.0,8.0,-2.0,-4.0,-2.0,-1.0,1651072517637089.0
1.0,0.0,2.0,-2.0,-3.0,1.0,-1.0,-2.0,1651072517652716.0
2.0,-2.0,-16.0,-17.0,-2.0,0.0,0.0,-2.0,1651072517652716.0
0.0,2.0,2.0,1.0,-4.0,-2.0,-1.0,0.0,1651072517653716.0
-1.0,0.0,3.0,6.0,1.0,-3.0,-1.0,-1.0,1651072517653716.0
-4.0,-10.0,-6.0,1.0,1.0,1.0,-2.0,0.0,1651072517674825.0
-1.0,3.0,-4.0,-6.0,1.0,2.0,-1.0,-1.0,1651072517674825.0
-2.0,2.0,9.0,8.0,2.0,2.0,0.0,0.0,1651072517676757.0
-2.0,-2.0,-5.0,-9.0,-3.0,-1.0,-1.0,-1.0,1651072517676757.0
0.0,3.0,4.0,12.0,1.0,0.0,0.0,-2.0,1651072517697762.0
0.0,2.0,3.0,5.0,-6.0,-2.0,0.0,0.0,1651072517697762.0
1.0,6.0,2.0,-5.0,-2.0,-1.0,0.0,0.0,1651072517698693.0
-3.0,-4.0,-4.0,-7.0,-2.0,-15.0,-2.0,-2.0,1651072517698693.0
-3.0,5.0,5.0,0.0,-1.0,9.0,2.0,0.0,1651072517712710.0
0.0,1.0,-2.0,1.0,10.0,10.0,2.0,1.0,1651072517712710.0
2.0,3.0,0.0,4.0,1.0,4.0,1.0,2.0,1651072517713734.0
-1.0,2.0,-4.0,0.0,-7.0,-4.0,0.0,0.0,1651072517713734.0
-1.0,-4.0,11.0,-2.0,-2.0,-6.0,-5.0,-2.0,1651072517734743.0
0.0,0.0,5.0,4.0,-7.0,-8.0,-1.0,0.0,1651072517734743.0
-4.0,2.0,0.0,-2.0,6.0,7.0,-1.0,0.0,1651072517736698.0
-1.0,-3.0,-6.0,-6.0,-3.0,2.0,1.0,-2.0,1651072517736698.0
0.0,-1.0,3.0,11.0,-2.0,-6.0,0.0,0.0,1651072517757641.0
0.0,-1.0,-5.0,-6.0,7.0,3.0,-2.0,-1.0,1651072517757641.0
1.0,-5.0,-2.0,-2.0,-3.0,-4.0,0.0,-1.0,1651072517758643.0
-1.0,1.0,9.0,1.0,-3.0,1.0,-2.0,-1.0,1651072517758643.0
-1.0,2.0,-7.0,-4.0,-2.0,0.0,0.0,-1.0,1651072517772732.0
-2.0,1.0,-5.0,-3.0,1.0,0.0,-2.0,-1.0,1651072517772732.0
-3.0,-8.0,-21.0,-7.0,-7.0,-5.0,-1.0,-1.0,1651072517773728.0
-1.0,5.0,6.0,8.0,-1.0,-2.0,0.0,1.0,1651072517773728.0
-1.0,-7.0,-4.0,0.0,6.0,4.0,1.0,0.0,1651072517794648.0
-1.0,-6.0,-3.0,0.0,7.0,3.0,1.0,-1.0,1651072517794648.0
0.0,0.0,8.0,0.0,-4.0,-1.0,-1.0,-3.0,1651072517796673.0
3.0,3.0,-5.0,2.0,-3.0,-5.0,-2.0,-1.0,1651072517796673.0
-1.0,-12.0,-12.0,-11.0,-10.0,2.0,-2.0,-1.0,1651072517817753.0
1.0,5.0,5.0,-2.0,1.0,-5.0,1.0,0.0,1651072517817753.0
1.0,3.0,2.0,-3.0,2.0,8.0,3.0,1.0,1651072517818703.0
-2.0,0.0,19.0,0.0,6.0,-1.0,-1.0,-1.0,1651072517818703.0
2.0,13.0,26.0,9.0,6.0,-1.0,-1.0,0.0,1651072517832448.0
-5.0,-7.0,-8.0,7.0,-7.0,-3.0,-2.0,-2.0,1651072517832448.0
-1.0,-2.0,-1.0,-16.0,-11.0,-12.0,-2.0,0.0,1651072517833472.0
0.0,0.0,-5.0,2.0,0.0,6.0,2.0,0.0,1651072517833472.0
0.0,5.0,6.0,-3.0,7.0,4.0,0.0,0.0,1651072517855448.0
1.0,-2.0,2.0,4.0,3.0,4.0,1.0,-2.0,1651072517855448.0
1.0,1.0,2.0,1.0,-7.0,-6.0,-2.0,1.0,1651072517856434.0
-1.0,-6.0,1.0,-7.0,-8.0,-4.0,-3.0,-1.0,1651072517856434.0
0.0,1.0,-10.0,13.0,7.0,3.0,1.0,2.0,1651072517877561.0
-1.0,-4.0,-2.0,-4.0,3.0,0.0,-1.0,1.0,1651072517877561.0
-2.0,-4.0,-5.0,6.0,-3.0,-2.0,-1.0,-2.0,1651072517878532.0
0.0,0.0,-5.0,-6.0,5.0,5.0,-1.0,0.0,1651072517878532.0
0.0,-5.0,-18.0,-12.0,-11.0,-17.0,-3.0,-1.0,1651072517891564.0
1.0,4.0,11.0,0.0,2.0,7.0,-1.0,-2.0,1651072517891564.0
-2.0,-3.0,1.0,9.0,5.0,7.0,2.0,0.0,1651072517898547.0
-1.0,-1.0,-4.0,4.0,-2.0,-2.0,-1.0,0.0,1651072517898547.0
-2.0,-4.0,-10.0,-5.0,3.0,-2.0,-2.0,-1.0,1651072517914503.0
0.0,1.0,-3.0,-2.0,-4.0,-1.0,1.0,1.0,1651072517914503.0
1.0,0.0,-4.0,-8.0,0.0,-2.0,-2.0,-2.0,1651072517916431.0
0.0,2.0,-3.0,5.0,7.0,4.0,1.0,0.0,1651072517916431.0
-2.0,-7.0,-13.0,-10.0,-9.0,0.0,-2.0,-2.0,1651072517937646.0
-1.0,0.0,-4.0,-7.0,-3.0,-12.0,-1.0,-1.0,1651072517937646.0
1.0,-2.0,5.0,10.0,10.0,10.0,0.0,1.0,1651072517938647.0
2.0,-3.0,-17.0,-4.0,1.0,2.0,1.0,2.0,1651072517938647.0
0.0,5.0,12.0,-5.0,-4.0,-3.0,0.0,-1.0,1651072517952215.0
-1.0,-5.0,3.0,1.0,-4.0,-2.0,-2.0,-1.0,1651072517952215.0
-2.0,1.0,-1.0,2.0,-3.0,-1.0,-1.0,0.0,1651072517958269.0
-2.0,-1.0,-10.0,-3.0,-1.0,-1.0,-2.0,-1.0,1651072517958269.0
-3.0,1.0,6.0,4.0,1.0,2.0,1.0,1.0,1651072517975224.0
0.0,-1.0,-4.0,-9.0,-3.0,2.0,0.0,1.0,1651072517975224.0
2.0,3.0,-2.0,1.0,-4.0,-5.0,-2.0,-2.0,1651072517976175.0
-3.0,-2.0,6.0,-3.0,-11.0,-18.0,-3.0,0.0,1651072517976175.0
1.0,2.0,0.0,-3.0,9.0,23.0,3.0,1.0,1651072517997501.0
-2.0,6.0,-1.0,3.0,10.0,3.0,-1.0,-2.0,1651072517997501.0
-2.0,-7.0,-1.0,-9.0,-1.0,-4.0,-2.0,0.0,1651072517999428.0
2.0,4.0,-1.0,9.0,-1.0,-5.0,-1.0,0.0,1651072517999428.0
-3.0,1.0,15.0,9.0,3.0,-4.0,-1.0,-2.0,1651072518011629.0
0.0,-7.0,4.0,-3.0,-11.0,-2.0,0.0,0.0,1651072518011629.0
0.0,1.0,-1.0,-10.0,6.0,6.0,1.0,-1.0,1651072518020618.0
-3.0,-3.0,-5.0,-5.0,-5.0,-2.0,-4.0,-2.0,1651072518020618.0
-1.0,1.0,-6.0,2.0,-5.0,-4.0,-2.0,-1.0,1651072518034638.0
1.0,7.0,-3.0,-6.0,-3.0,-5.0,-2.0,-2.0,1651072518034638.0
-1.0,-4.0,4.0,3.0,0.0,-3.0,1.0,0.0,1651072518036591.0
2.0,14.0,11.0,4.0,7.0,11.0,2.0,1.0,1651072518036591.0
-1.0,-16.0,-7.0,-6.0,-2.0,-2.0,0.0,-1.0,1651072518057576.0
-3.0,-2.0,0.0,2.0,1.0,1.0,0.0,1.0,1651072518057576.0
0.0,1.0,-7.0,-11.0,-11.0,-9.0,-2.0,-1.0,1651072518058533.0
0.0,-5.0,8.0,21.0,9.0,5.0,1.0,-2.0,1651072518058533.0
2.0,9.0,-1.0,-4.0,-6.0,-3.0,-1.0,-1.0,1651072518071471.0
-1.0,-1.0,-9.0,-4.0,-2.0,-8.0,-1.0,0.0,1651072518071471.0
-2.0,-5.0,-4.0,-4.0,2.0,11.0,2.0,-2.0,1651072518078514.0
-1.0,-2.0,3.0,-5.0,6.0,5.0,0.0,0.0,1651072518078514.0
-2.0,-7.0,0.0,2.0,-4.0,-4.0,-2.0,-1.0,1651072518094577.0
2.0,-1.0,-3.0,-4.0,-6.0,-4.0,1.0,0.0,1651072518094577.0
1.0,13.0,1.0,5.0,13.0,3.0,0.0,1.0,1651072518096575.0
-1.0,-10.0,2.0,-2.0,-7.0,-2.0,-1.0,-1.0,1651072518096575.0
-4.0,2.0,-3.0,-3.0,-4.0,-6.0,-1.0,-3.0,1651072518124647.0
-4.0,-10.0,-2.0,-4.0,-3.0,1.0,2.0,1.0,1651072518124647.0
10.0,18.0,1.0,12.0,5.0,1.0,1.0,3.0,1651072518126644.0
2.0,-10.0,-5.0,1.0,0.0,-2.0,-2.0,-1.0,1651072518126644.0
0.0,1.0,5.0,1.0,0.0,-2.0,-2.0,1.0,1651072518131658.0
-2.0,8.0,-10.0,-5.0,3.0,4.0,-2.0,-2.0,1651072518131658.0
-3.0,-6.0,10.0,-5.0,-5.0,-3.0,-1.0,-1.0,1651072518138639.0
-8.0,8.0,-6.0,-11.0,-5.0,-5.0,-1.0,-4.0,1651072518138639.0
3.0,-12.0,13.0,11.0,8.0,9.0,4.0,3.0,1651072518154552.0
16.0,20.0,0.0,21.0,2.0,5.0,4.0,5.0,1651072518154552.0
-1.0,-21.0,-21.0,-13.0,-12.0,-13.0,-4.0,-3.0,1651072518156507.0
-1.0,13.0,-5.0,-5.0,0.0,2.0,-1.0,0.0,1651072518156507.0
-8.0,0.0,-1.0,-9.0,1.0,-2.0,-1.0,-1.0,1651072518177725.0
-8.0,-3.0,6.0,-3.0,-3.0,2.0,-1.0,-1.0,1651072518177725.0
0.0,-21.0,2.0,4.0,-2.0,-4.0,-1.0,0.0,1651072518178673.0
-11.0,11.0,7.0,2.0,-1.0,-2.0,-1.0,-5.0,1651072518178673.0
8.0,14.0,-3.0,-1.0,3.0,4.0,2.0,2.0,1651072518191694.0
-7.0,-28.0,0.0,-2.0,6.0,4.0,2.0,0.0,1651072518191694.0
9.0,-13.0,-1.0,-2.0,-7.0,-3.0,2.0,6.0,1651072518205658.0
-9.0,-18.0,-10.0,9.0,-5.0,-2.0,-4.0,-6.0,1651072518205658.0
-3.0,22.0,5.0,-5.0,-2.0,-2.0,0.0,0.0,1651072518214686.0
5.0,8.0,-2.0,11.0,8.0,4.0,-2.0,-1.0,1651072518214686.0
-23.0,0.0,7.0,4.0,1.0,-3.0,-4.0,-10.0,1651072518216614.0
38.0,44.0,8.0,-2.0,-4.0,2.0,6.0,16.0,1651072518216614.0
1.0,-10.0,-10.0,-3.0,24.0,9.0,4.0,2.0,1651072518236510.0
-2.0,-11.0,2.0,-12.0,-14.0,-8.0,-2.0,-1.0,1651072518236510.0
-18.0,2.0,21.0,15.0,17.0,12.0,2.0,-3.0,1651072518245421.0
-7.0,-61.0,-34.0,1.0,-28.0,-13.0,-5.0,-5.0,1651072518245421.0
-21.0,-47.0,-39.0,-36.0,-35.0,-27.0,-17.0,-17.0,1651072518251478.0
29.0,17.0,5.0,9.0,51.0,32.0,15.0,20.0,1651072518251478.0
0.0,-16.0,7.0,24.0,-2.0,-2.0,-3.0,-2.0,1651072518260408.0
-8.0,10.0,19.0,2.0,1.0,2.0,2.0,-1.0,1651072518260408.0
-9.0,6.0,-14.0,1.0,-15.0,-11.0,-4.0,-2.0,1651072518274699.0
30.0,13.0,-4.0,-15.0,-27.0,-8.0,2.0,9.0,1651072518274699.0
1.0,93.0,1.0,-10.0,0.0,-5.0,-6.0,-4.0,1651072518276620.0
-6.0,-88.0,-9.0,-4.0,7.0,0.0,-5.0,-4.0,1651072518276620.0
12.0,3.0,-24.0,0.0,-9.0,2.0,5.0,5.0,1651072518297716.0
-49.0,-31.0,58.0,19.0,15.0,-1.0,-4.0,-14.0,1651072518297716.0
54.0,105.0,-25.0,1.0,9.0,10.0,10.0,17.0,1651072518298659.0
-5.0,40.0,59.0,-5.0,-1.0,-4.0,-1.0,-3.0,1651072518298659.0
-22.0,-31.0,-57.0,7.0,11.0,7.0,-8.0,-12.0,1651072518311463.0
16.0,14.0,-13.0,-6.0,-24.0,-24.0,-3.0,-1.0,1651072518311463.0
-30.0,-96.0,48.0,-4.0,4.0,11.0,0.0,-4.0,1651072518327563.0
20.0,11.0,-46.0,-8.0,-14.0,5.0,5.0,5.0,1651072518327563.0
0.0,-24.0,-1.0,-9.0,5.0,-5.0,-5.0,-4.0,1651072518334597.0
-20.0,1.0,59.0,15.0,-2.0,2.0,0.0,-2.0,1651072518334597.0
-13.0,-75.0,-54.0,-14.0,-19.0,-11.0,-3.0,-2.0,1651072518336526.0
18.0,92.0,-2.0,-10.0,-31.0,-13.0,-4.0,-2.0,1651072518336526.0
13.0,-6.0,42.0,16.0,41.0,24.0,16.0,18.0,1651072518357625.0
-23.0,-40.0,-17.0,-2.0,5.0,-5.0,-5.0,-5.0,1651072518357625.0
14.0,57.0,6.0,-5.0,-26.0,-12.0,0.0,2.0,1651072518358586.0
-23.0,-70.0,-11.0,-1.0,5.0,4.0,-1.0,-11.0,1651072518358586.0
15.0,31.0,13.0,-2.0,-19.0,-16.0,-5.0,2.0,1651072518370713.0
-31.0,-14.0,3.0,-10.0,-36.0,-11.0,-10.0,-15.0,1651072518370713.0
22.0,-4.0,-3.0,1.0,13.0,8.0,10.0,18.0,1651072518380619.0
18.0,93.0,15.0,-4.0,-1.0,-10.0,-2.0,-5.0,1651072518380619.0
-6.0,-80.0,18.0,19.0,32.0,20.0,2.0,-5.0,1651072518394374.0
-19.0,25.0,0.0,1.0,-3.0,1.0,-8.0,-13.0,1651072518394374.0
8.0,-26.0,-18.0,-7.0,10.0,1.0,-1.0,-10.0,1651072518402527.0
-25.0,-82.0,-27.0,9.0,21.0,4.0,4.0,39.0,1651072518402527.0
30.0,54.0,67.0,0.0,-16.0,-3.0,7.0,4.0,1651072518417734.0
22.0,0.0,-52.0,-2.0,4.0,3.0,-1.0,7.0,1651072518417734.0
-15.0,34.0,-24.0,-12.0,-6.0,-17.0,-11.0,-23.0,1651072518418667.0
-29.0,-34.0,19.0,5.0,25.0,9.0,-5.0,-17.0,1651072518418667.0
55.0,54.0,9.0,11.0,14.0,25.0,25.0,37.0,1651072518430698.0
19.0,17.0,23.0,2.0,9.0,0.0,1.0,1.0,1651072518430698.0
-15.0,-13.0,-19.0,-6.0,-29.0,-10.0,-6.0,-8.0,1651072518439690.0
-3.0,-18.0,10.0,4.0,6.0,-1.0,2.0,7.0,1651072518439690.0
-32.0,-24.0,4.0,-4.0,-22.0,-13.0,-10.0,-12.0,1651072518454755.0
4.0,16.0,-28.0,-5.0,7.0,10.0,5.0,-7.0,1651072518454755.0
12.0,-39.0,-5.0,-1.0,2.0,5.0,3.0,15.0,1651072518456713.0
11.0,25.0,-23.0,-1.0,20.0,10.0,1.0,-15.0,1651072518456713.0
17.0,82.0,7.0,2.0,-7.0,-13.0,-2.0,0.0,1651072518477540.0
-24.0,-70.0,-20.0,-3.0,13.0,3.0,1.0,11.0,1651072518477540.0
-8.0,18.0,47.0,12.0,7.0,-4.0,-9.0,-23.0,1651072518478471.0
-15.0,-15.0,13.0,-10.0,-44.0,-14.0,-6.0,4.0,1651072518478471.0
-14.0,-40.0,-37.0,-6.0,18.0,-3.0,-6.0,-7.0,1651072518491563.0
-6.0,4.0,-10.0,-9.0,3.0,-3.0,-3.0,-9.0,1651072518491563.0
-3.0,2.0,7.0,7.0,-7.0,0.0,2.0,8.0,1651072518500548.0
21.0,-3.0,55.0,8.0,2.0,7.0,6.0,2.0,1651072518500548.0
-26.0,2.0,-8.0,-10.0,-12.0,-6.0,-11.0,-18.0,1651072518515591.0
22.0,42.0,-23.0,1.0,-4.0,-4.0,6.0,9.0,1651072518515591.0
-25.0,-58.0,51.0,6.0,-2.0,0.0,-3.0,-5.0,1651072518521595.0
35.0,123.0,-46.0,0.0,20.0,2.0,3.0,3.0,1651072518521595.0
-27.0,-22.0,5.0,5.0,-24.0,-4.0,1.0,-1.0,1651072518537280.0
28.0,10.0,-11.0,-6.0,0.0,-11.0,-8.0,-1.0,1651072518537280.0
-6.0,24.0,-5.0,9.0,53.0,17.0,4.0,-1.0,1651072518539292.0
-13.0,-6.0,-31.0,-13.0,-9.0,-11.0,-7.0,-9.0,1651072518539292.0
-1.0,40.0,-4.0,-4.0,-29.0,-2.0,1.0,3.0,1651072518550871.0
-3.0,-18.0,16.0,0.0,-15.0,-1.0,4.0,-1.0,1651072518550871.0
26.0,93.0,7.0,-4.0,-7.0,-9.0,-2.0,6.0,1651072518567951.0
-15.0,-117.0,-18.0,-1.0,14.0,16.0,0.0,0.0,1651072518567951.0
1.0,-20.0,-1.0,7.0,15.0,4.0,5.0,0.0,1651072518574973.0
-19.0,-48.0,4.0,-6.0,-39.0,-13.0,-7.0,0.0,1651072518574973.0
8.0,15.0,-38.0,-2.0,19.0,4.0,-2.0,-3.0,1651072518576951.0
-1.0,26.0,-3.0,-5.0,-14.0,-3.0,3.0,2.0,1651072518576951.0
-5.0,15.0,33.0,6.0,6.0,-2.0,-6.0,-8.0,1651072518597663.0
-8.0,-6.0,-28.0,2.0,26.0,2.0,-3.0,-3.0,1651072518597663.0
38.0,63.0,26.0,-1.0,-8.0,6.0,9.0,19.0,1651072518598620.0
-24.0,-52.0,-50.0,-7.0,-4.0,-5.0,-4.0,-9.0,1651072518598620.0
37.0,66.0,41.0,-7.0,-17.0,-8.0,-3.0,4.0,1651072518620361.0
15.0,13.0,-3.0,4.0,33.0,12.0,2.0,5.0,1651072518620361.0
-9.0,-7.0,16.0,9.0,-4.0,6.0,0.0,-1.0,1651072518621362.0
-1.0,11.0,32.0,1.0,9.0,-2.0,0.0,0.0,1651072518621362.0
