EMG_s0,EMG_s1,EMG_s2,EMG_s3,EMG_s4,EMG_s5,EMG_s6,EMG_s7,timestamp
1.0,-2.0,1.0,0.0,5.0,6.0,3.0,0.0,1650917068222683.0
0.0,0.0,-2.0,-3.0,-1.0,0.0,-5.0,-1.0,1650917068222683.0
-1.0,-1.0,-1.0,-1.0,-5.0,-8.0,-1.0,0.0,1650917068223556.0
-1.0,-1.0,1.0,-4.0,-7.0,-11.0,-7.0,-3.0,1650917068223556.0
-1.0,-2.0,0.0,-2.0,-2.0,-1.0,4.0,1.0,1650917068246647.0
1.0,1.0,-2.0,0.0,4.0,12.0,6.0,3.0,1650917068246647.0
0.0,-2.0,0.0,2.0,6.0,5.0,-1.0,0.0,1650917068246647.0
0.0,-1.0,-1.0,-3.0,2.0,1.0,0.0,-1.0,1650917068246647.0
-2.0,-1.0,-3.0,-3.0,-7.0,-10.0,-6.0,-2.0,1650917068259814.0
-1.0,-1.0,3.0,1.0,-17.0,-14.0,-1.0,0.0,1650917068259814.0
-1.0,-1.0,-3.0,-4.0,2.0,-2.0,-5.0,-1.0,1650917068260674.0
0.0,1.0,0.0,2.0,12.0,14.0,3.0,1.0,1650917068260674.0
0.0,3.0,1.0,2.0,10.0,10.0,1.0,2.0,1650917068282127.0
1.0,-2.0,0.0,-2.0,5.0,11.0,3.0,2.0,1650917068282127.0
-1.0,0.0,1.0,2.0,-7.0,-1.0,-5.0,-1.0,1650917068282971.0
-2.0,-2.0,-5.0,-8.0,-14.0,-21.0,4.0,-2.0,1650917068282971.0
-1.0,-2.0,-2.0,-3.0,-7.0,-5.0,-6.0,-3.0,1650917068297289.0
0.0,-2.0,-2.0,0.0,2.0,-1.0,-1.0,1.0,1650917068297289.0
1.0,1.0,-3.0,0.0,6.0,4.0,4.0,-1.0,1650917068305455.0
0.0,0.0,2.0,0.0,2.0,3.0,-1.0,0.0,1650917068305455.0
-3.0,-1.0,1.0,1.0,-2.0,-3.0,-1.0,0.0,1650917068320533.0
1.0,-1.0,-3.0,-4.0,-5.0,-7.0,-5.0,-1.0,1650917068320533.0
0.0,-2.0,-5.0,-6.0,-5.0,-9.0,1.0,0.0,1650917068327750.0
-1.0,-2.0,5.0,9.0,0.0,1.0,1.0,-2.0,1650917068327750.0
1.0,0.0,-1.0,-2.0,5.0,5.0,-2.0,-1.0,1650917068342897.0
-1.0,1.0,-1.0,0.0,-2.0,-5.0,-2.0,1.0,1650917068342897.0
1.0,1.0,1.0,1.0,8.0,14.0,8.0,1.0,1650917068343985.0
0.0,0.0,-2.0,0.0,0.0,2.0,0.0,1.0,1650917068343985.0
0.0,-1.0,-1.0,2.0,0.0,-12.0,1.0,1.0,1650917068356703.0
0.0,-2.0,2.0,0.0,0.0,11.0,-5.0,-5.0,1650917068356703.0
0.0,-2.0,-1.0,-1.0,-4.0,-1.0,-1.0,0.0,1650917068364681.0
1.0,-2.0,-1.0,1.0,-3.0,-5.0,3.0,2.0,1650917068364681.0
0.0,0.0,-1.0,-1.0,0.0,-2.0,-6.0,0.0,1650917068380883.0
1.0,-2.0,-3.0,-3.0,-1.0,-10.0,-3.0,-4.0,1650917068380883.0
-4.0,0.0,1.0,-1.0,-4.0,-4.0,-1.0,-1.0,1650917068380883.0
-1.0,2.0,1.0,-1.0,-2.0,3.0,2.0,0.0,1650917068380883.0
1.0,1.0,-3.0,-3.0,4.0,1.0,4.0,0.0,1650917068403038.0
-2.0,-1.0,2.0,2.0,0.0,-4.0,-3.0,0.0,1650917068403038.0
1.0,-1.0,-3.0,-6.0,-6.0,-10.0,1.0,-1.0,1650917068403038.0
1.0,-1.0,-3.0,-5.0,4.0,10.0,-1.0,0.0,1650917068403038.0
-2.0,1.0,4.0,3.0,-3.0,5.0,2.0,0.0,1650917068426236.0
0.0,0.0,0.0,2.0,6.0,6.0,1.0,1.0,1650917068426236.0
-1.0,1.0,1.0,2.0,9.0,4.0,-6.0,0.0,1650917068426236.0
-3.0,1.0,-2.0,-2.0,-6.0,-4.0,4.0,0.0,1650917068426236.0
0.0,-1.0,-3.0,-2.0,-7.0,-11.0,-3.0,-2.0,1650917068440213.0
-2.0,-2.0,-2.0,-3.0,-8.0,-9.0,1.0,-1.0,1650917068440213.0
-1.0,0.0,0.0,1.0,-8.0,14.0,1.0,0.0,1650917068441213.0
1.0,0.0,1.0,2.0,17.0,9.0,0.0,2.0,1650917068441213.0
0.0,0.0,1.0,1.0,3.0,9.0,6.0,1.0,1650917068462516.0
0.0,-1.0,-2.0,-2.0,-4.0,-10.0,-4.0,-3.0,1650917068462516.0
-3.0,-2.0,-4.0,-4.0,-8.0,-17.0,4.0,-1.0,1650917068463352.0
0.0,-1.0,1.0,1.0,-4.0,-5.0,-8.0,-2.0,1650917068463352.0
-2.0,-1.0,-5.0,-6.0,0.0,0.0,0.0,-1.0,1650917068486779.0
0.0,-1.0,1.0,-1.0,1.0,7.0,1.0,1.0,1650917068486779.0
0.0,0.0,0.0,1.0,-9.0,-13.0,-2.0,0.0,1650917068486923.0
-1.0,-1.0,-3.0,-1.0,14.0,13.0,1.0,1.0,1650917068486923.0
-3.0,-1.0,0.0,2.0,0.0,-1.0,-2.0,-1.0,1650917068500050.0
-1.0,0.0,-3.0,-2.0,-6.0,-7.0,-2.0,-2.0,1650917068500050.0
0.0,-1.0,3.0,5.0,3.0,6.0,5.0,0.0,1650917068500888.0
0.0,-1.0,7.0,1.0,-6.0,-12.0,-1.0,-1.0,1650917068500888.0
2.0,1.0,-4.0,-2.0,-2.0,-10.0,-2.0,-2.0,1650917068522508.0
-2.0,0.0,0.0,-3.0,3.0,21.0,0.0,-1.0,1650917068522508.0
-1.0,1.0,-1.0,-3.0,-3.0,-1.0,0.0,0.0,1650917068523347.0
-2.0,-1.0,-2.0,-2.0,-5.0,-9.0,-3.0,0.0,1650917068523347.0
-1.0,1.0,-1.0,0.0,0.0,4.0,-1.0,2.0,1650917068545360.0
-1.0,-1.0,2.0,3.0,5.0,-3.0,3.0,2.0,1650917068545360.0
0.0,0.0,3.0,5.0,8.0,1.0,-2.0,-1.0,1650917068546326.0
0.0,-2.0,-5.0,-7.0,-10.0,-3.0,-1.0,-1.0,1650917068546326.0
-1.0,-2.0,0.0,-2.0,-3.0,0.0,-5.0,-2.0,1650917068559633.0
-1.0,0.0,2.0,0.0,0.0,-1.0,10.0,1.0,1650917068559633.0
1.0,0.0,2.0,3.0,-6.0,-7.0,-1.0,1.0,1650917068560477.0
0.0,-2.0,1.0,0.0,7.0,1.0,-3.0,-2.0,1650917068560477.0
0.0,-1.0,2.0,3.0,2.0,6.0,0.0,0.0,1650917068582964.0
1.0,0.0,-3.0,-2.0,3.0,2.0,1.0,1.0,1650917068582964.0
-2.0,-2.0,-2.0,-5.0,-2.0,-2.0,-9.0,-1.0,1650917068582964.0
-1.0,0.0,0.0,-1.0,-10.0,-7.0,8.0,1.0,1650917068582964.0
-1.0,-2.0,-1.0,-2.0,-2.0,-3.0,-2.0,-1.0,1650917068605292.0
-2.0,-1.0,-2.0,-2.0,2.0,-5.0,-6.0,-3.0,1650917068605292.0
-1.0,0.0,-1.0,0.0,-2.0,5.0,4.0,-2.0,1650917068606130.0
0.0,0.0,0.0,0.0,-9.0,2.0,-2.0,0.0,1650917068606130.0
1.0,1.0,4.0,9.0,12.0,10.0,0.0,-1.0,1650917068621055.0
1.0,1.0,-3.0,-5.0,2.0,-1.0,1.0,1.0,1650917068621055.0
-2.0,-1.0,0.0,0.0,-6.0,-11.0,-8.0,-2.0,1650917068621154.0
-2.0,-2.0,-3.0,-5.0,-2.0,-1.0,3.0,-1.0,1650917068621154.0
0.0,0.0,2.0,4.0,1.0,-1.0,-1.0,-1.0,1650917068642801.0
0.0,-1.0,2.0,4.0,4.0,3.0,-4.0,-1.0,1650917068642801.0
0.0,0.0,-3.0,-4.0,0.0,-2.0,-2.0,1.0,1650917068643653.0
-1.0,-1.0,0.0,-4.0,-3.0,1.0,-4.0,-1.0,1650917068643653.0
-1.0,-1.0,-1.0,-2.0,-14.0,-5.0,1.0,1.0,1650917068665766.0
-1.0,-1.0,4.0,6.0,6.0,7.0,1.0,0.0,1650917068665766.0
0.0,1.0,0.0,1.0,12.0,12.0,5.0,1.0,1650917068666765.0
-2.0,-1.0,-3.0,0.0,-1.0,-3.0,2.0,-1.0,1650917068666765.0
-3.0,-2.0,-2.0,-4.0,-6.0,-15.0,-5.0,-3.0,1650917068680954.0
-2.0,-2.0,-10.0,-10.0,-10.0,6.0,0.0,-1.0,1650917068680954.0
-2.0,-1.0,-1.0,0.0,0.0,6.0,0.0,-2.0,1650917068680954.0
0.0,1.0,3.0,5.0,3.0,-9.0,-10.0,-2.0,1650917068680954.0
0.0,0.0,1.0,-1.0,1.0,4.0,12.0,3.0,1650917068703269.0
-1.0,1.0,1.0,2.0,-3.0,-6.0,-3.0,-3.0,1650917068703269.0
0.0,-2.0,0.0,0.0,-2.0,-2.0,2.0,1.0,1650917068703269.0
0.0,1.0,-2.0,2.0,5.0,5.0,0.0,1.0,1650917068703269.0
0.0,1.0,-3.0,-4.0,-17.0,-18.0,-11.0,-2.0,1650917068726553.0
-1.0,0.0,-2.0,3.0,7.0,14.0,14.0,4.0,1650917068726553.0
0.0,-1.0,-3.0,-1.0,11.0,4.0,-2.0,0.0,1650917068726553.0
0.0,-1.0,4.0,3.0,2.0,1.0,-1.0,0.0,1650917068726553.0
-2.0,-2.0,0.0,-3.0,-8.0,-11.0,-4.0,-1.0,1650917068740480.0
-2.0,-1.0,-4.0,-5.0,-10.0,-6.0,-3.0,-1.0,1650917068740480.0
-1.0,0.0,-1.0,-1.0,0.0,5.0,0.0,-2.0,1650917068740480.0
0.0,0.0,3.0,8.0,6.0,6.0,4.0,1.0,1650917068740480.0
1.0,1.0,-9.0,-13.0,0.0,3.0,-3.0,-2.0,1650917068762734.0
1.0,-2.0,-1.0,-2.0,-9.0,-8.0,-6.0,-1.0,1650917068762734.0
-2.0,0.0,0.0,0.0,3.0,-1.0,1.0,0.0,1650917068763574.0
0.0,-1.0,0.0,0.0,1.0,1.0,0.0,0.0,1650917068763574.0
1.0,-2.0,-1.0,1.0,1.0,18.0,3.0,0.0,1650917068785929.0
0.0,-1.0,6.0,4.0,4.0,-8.0,-1.0,-1.0,1650917068785929.0
2.0,-2.0,-3.0,0.0,1.0,-3.0,-1.0,-2.0,1650917068785929.0
0.0,-1.0,-2.0,-3.0,-5.0,-6.0,-7.0,0.0,1650917068785929.0
-2.0,0.0,-1.0,0.0,3.0,2.0,9.0,1.0,1650917068800265.0
0.0,1.0,-2.0,-4.0,-11.0,-13.0,-1.0,-2.0,1650917068800265.0
1.0,-1.0,3.0,3.0,8.0,10.0,0.0,0.0,1650917068800265.0
0.0,-1.0,-2.0,-4.0,0.0,-5.0,-1.0,-2.0,1650917068800265.0
0.0,2.0,2.0,7.0,0.0,3.0,-1.0,0.0,1650917068822704.0
0.0,-1.0,-1.0,-1.0,1.0,0.0,-8.0,-2.0,1650917068822704.0
-2.0,-2.0,-1.0,-2.0,-8.0,-8.0,4.0,1.0,1650917068823542.0
-1.0,1.0,-2.0,0.0,-1.0,-1.0,5.0,-3.0,1650917068823542.0
0.0,-2.0,-2.0,-2.0,5.0,9.0,0.0,-2.0,1650917068846467.0
1.0,1.0,1.0,5.0,4.0,4.0,3.0,2.0,1650917068846467.0
0.0,1.0,-2.0,-2.0,-5.0,-4.0,-4.0,-1.0,1650917068846467.0
-1.0,-2.0,-1.0,-3.0,-8.0,-11.0,0.0,-1.0,1650917068846467.0
0.0,-1.0,3.0,3.0,1.0,-1.0,-3.0,-2.0,1650917068860703.0
-1.0,-1.0,-2.0,-1.0,5.0,12.0,3.0,1.0,1650917068860703.0
-1.0,-3.0,-3.0,-5.0,-7.0,-12.0,-6.0,-2.0,1650917068860703.0
-2.0,0.0,-5.0,-6.0,-4.0,0.0,-3.0,0.0,1650917068860703.0
-1.0,1.0,0.0,3.0,7.0,3.0,1.0,0.0,1650917068883098.0
1.0,-1.0,-3.0,-3.0,-1.0,-6.0,-5.0,0.0,1650917068883098.0
0.0,2.0,10.0,6.0,3.0,5.0,2.0,2.0,1650917068883098.0
1.0,0.0,3.0,7.0,2.0,2.0,8.0,0.0,1650917068883098.0
-1.0,-4.0,-11.0,-16.0,-3.0,-3.0,-5.0,-2.0,1650917068906456.0
-1.0,-2.0,-3.0,0.0,-4.0,-4.0,-6.0,-2.0,1650917068906456.0
-2.0,0.0,2.0,0.0,-10.0,-11.0,-2.0,0.0,1650917068906456.0
0.0,0.0,1.0,-1.0,-2.0,4.0,-3.0,-1.0,1650917068906456.0
0.0,1.0,4.0,7.0,13.0,15.0,3.0,1.0,1650917068920491.0
1.0,-1.0,-2.0,0.0,9.0,5.0,6.0,2.0,1650917068920491.0
1.0,-1.0,-6.0,-4.0,-3.0,-2.0,-2.0,-2.0,1650917068920491.0
0.0,0.0,0.0,3.0,-6.0,-12.0,-4.0,-2.0,1650917068920491.0
-1.0,-2.0,5.0,1.0,-11.0,-2.0,-8.0,-3.0,1650917068942569.0
-1.0,-1.0,0.0,-4.0,-1.0,-1.0,8.0,3.0,1650917068942569.0
-2.0,0.0,1.0,3.0,6.0,4.0,0.0,1.0,1650917068943418.0
-2.0,-1.0,-4.0,-5.0,-1.0,-2.0,-3.0,1.0,1650917068943418.0
2.0,2.0,-1.0,-2.0,0.0,-2.0,2.0,0.0,1650917068964811.0
-1.0,-1.0,1.0,1.0,-3.0,9.0,1.0,0.0,1650917068964811.0
2.0,0.0,-2.0,3.0,5.0,-2.0,0.0,0.0,1650917068972790.0
-1.0,-1.0,-5.0,-7.0,2.0,-1.0,0.0,-1.0,1650917068972790.0
-1.0,0.0,2.0,4.0,-1.0,-6.0,-10.0,-2.0,1650917068980768.0
0.0,-1.0,0.0,-2.0,-4.0,-8.0,4.0,0.0,1650917068980768.0
-1.0,0.0,-3.0,-3.0,-6.0,3.0,4.0,0.0,1650917068980768.0
0.0,-2.0,1.0,-1.0,1.0,4.0,-4.0,-2.0,1650917068980768.0
0.0,0.0,2.0,0.0,-1.0,1.0,4.0,1.0,1650917069002727.0
-2.0,-1.0,-4.0,1.0,-8.0,-12.0,2.0,-2.0,1650917069002727.0
1.0,-2.0,-3.0,-4.0,-2.0,-2.0,-12.0,-5.0,1650917069003627.0
0.0,0.0,3.0,7.0,11.0,17.0,10.0,2.0,1650917069003627.0
1.0,-1.0,-1.0,0.0,4.0,5.0,5.0,3.0,1650917069025929.0
1.0,1.0,2.0,0.0,1.0,0.0,-4.0,-1.0,1650917069025929.0
-1.0,0.0,1.0,2.0,-5.0,-12.0,-7.0,0.0,1650917069025929.0
-2.0,-2.0,-10.0,-10.0,-7.0,-3.0,1.0,-2.0,1650917069025929.0
-1.0,-2.0,-2.0,-2.0,0.0,0.0,-1.0,-2.0,1650917069039051.0
-1.0,1.0,0.0,1.0,4.0,6.0,-2.0,-2.0,1650917069039051.0
-1.0,-2.0,-3.0,-3.0,1.0,1.0,1.0,-1.0,1650917069048156.0
3.0,2.0,4.0,5.0,-1.0,0.0,-1.0,0.0,1650917069048156.0
-3.0,-2.0,-3.0,-3.0,-7.0,-8.0,1.0,0.0,1650917069063449.0
-2.0,-2.0,-1.0,-4.0,-10.0,-9.0,-7.0,-4.0,1650917069063449.0
-1.0,1.0,0.0,-1.0,5.0,7.0,3.0,2.0,1650917069070321.0
2.0,0.0,0.0,3.0,11.0,8.0,1.0,3.0,1650917069070321.0
-1.0,0.0,0.0,3.0,-9.0,-21.0,0.0,1.0,1650917069085462.0
-1.0,-1.0,6.0,4.0,5.0,14.0,-9.0,-4.0,1650917069085462.0
-2.0,-1.0,-2.0,-1.0,-2.0,2.0,8.0,0.0,1650917069086460.0
-1.0,0.0,-3.0,-5.0,-8.0,-9.0,-2.0,-2.0,1650917069086460.0
-1.0,-1.0,2.0,3.0,-3.0,-8.0,-6.0,-2.0,1650917069099764.0
2.0,0.0,-1.0,1.0,2.0,2.0,2.0,2.0,1650917069099764.0
0.0,-1.0,-1.0,0.0,10.0,6.0,15.0,4.0,1650917069107914.0
-1.0,-1.0,2.0,1.0,1.0,5.0,-4.0,-2.0,1650917069107914.0
-1.0,-1.0,-3.0,-5.0,1.0,8.0,3.0,-1.0,1650917069123157.0
-1.0,2.0,2.0,3.0,-4.0,-5.0,-4.0,-2.0,1650917069123157.0
-1.0,-2.0,-3.0,-7.0,-13.0,-11.0,-8.0,-3.0,1650917069123157.0
-2.0,0.0,-5.0,-3.0,-14.0,-24.0,1.0,1.0,1650917069123157.0
-1.0,0.0,1.0,-3.0,12.0,23.0,4.0,1.0,1650917069146291.0
1.0,1.0,-1.0,-2.0,5.0,10.0,4.0,4.0,1650917069146291.0
0.0,1.0,0.0,4.0,9.0,6.0,-1.0,0.0,1650917069146291.0
1.0,-1.0,-1.0,-3.0,-1.0,0.0,-1.0,0.0,1650917069146291.0
-1.0,-1.0,1.0,1.0,-8.0,-15.0,-4.0,-3.0,1650917069159166.0
-4.0,-5.0,-3.0,-2.0,-9.0,-12.0,-3.0,-3.0,1650917069159166.0
0.0,-2.0,-1.0,-2.0,-4.0,0.0,3.0,-2.0,1650917069167089.0
0.0,1.0,2.0,2.0,2.0,4.0,-3.0,-1.0,1650917069167089.0
3.0,-1.0,-3.0,0.0,6.0,-1.0,2.0,1.0,1650917069182050.0
-4.0,-2.0,-2.0,-3.0,5.0,2.0,0.0,-2.0,1650917069182050.0
0.0,1.0,-3.0,-2.0,0.0,8.0,-1.0,-1.0,1650917069183048.0
-3.0,-2.0,1.0,0.0,-1.0,2.0,-2.0,-4.0,1650917069183048.0
0.0,1.0,8.0,7.0,-3.0,-2.0,1.0,0.0,1650917069205984.0
-1.0,-2.0,-8.0,-16.0,-9.0,-11.0,-9.0,-3.0,1650917069205984.0
-3.0,-2.0,-2.0,-3.0,0.0,3.0,5.0,0.0,1650917069205984.0
2.0,3.0,2.0,1.0,4.0,1.0,2.0,2.0,1650917069205984.0
0.0,2.0,6.0,6.0,2.0,7.0,-1.0,0.0,1650917069220000.0
-1.0,-1.0,-8.0,-13.0,-5.0,-4.0,-4.0,2.0,1650917069220000.0
1.0,4.0,4.0,2.0,2.0,-4.0,-5.0,1.0,1650917069228212.0
-1.0,-4.0,3.0,4.0,0.0,10.0,4.0,0.0,1650917069228212.0
-1.0,0.0,0.0,2.0,-1.0,-2.0,3.0,1.0,1650917069243307.0
1.0,3.0,-2.0,2.0,-3.0,1.0,5.0,-1.0,1650917069243307.0
-3.0,-10.0,-7.0,-1.0,6.0,7.0,-1.0,-1.0,1650917069243307.0
-1.0,4.0,2.0,-1.0,2.0,-13.0,-15.0,-5.0,1650917069243307.0
-1.0,-1.0,-3.0,-2.0,-5.0,-5.0,3.0,1.0,1650917069266634.0
0.0,-1.0,11.0,8.0,4.0,11.0,8.0,2.0,1650917069266634.0
3.0,7.0,3.0,-1.0,-7.0,-10.0,-1.0,4.0,1650917069266806.0
-8.0,-5.0,-2.0,-4.0,-9.0,-8.0,-5.0,-3.0,1650917069266806.0
-4.0,-7.0,-10.0,-7.0,1.0,10.0,-3.0,-2.0,1650917069280173.0
5.0,6.0,5.0,7.0,6.0,3.0,1.0,3.0,1650917069280173.0
1.0,-2.0,5.0,8.0,2.0,-1.0,0.0,1.0,1650917069287853.0
1.0,-5.0,0.0,-6.0,1.0,2.0,4.0,4.0,1650917069287853.0
-1.0,-2.0,-4.0,-6.0,-6.0,3.0,-2.0,-2.0,1650917069302840.0
-3.0,-1.0,0.0,1.0,9.0,2.0,1.0,0.0,1650917069302840.0
6.0,9.0,5.0,4.0,-4.0,-6.0,-5.0,-1.0,1650917069303806.0
4.0,5.0,3.0,5.0,1.0,3.0,4.0,6.0,1650917069303806.0
-3.0,-10.0,-9.0,-14.0,-2.0,-4.0,1.0,-4.0,1650917069325789.0
-2.0,-6.0,3.0,1.0,-9.0,-8.0,-6.0,-9.0,1650917069325789.0
-2.0,10.0,-3.0,-5.0,-2.0,-1.0,-1.0,0.0,1650917069326744.0
-1.0,7.0,-1.0,8.0,6.0,7.0,2.0,0.0,1650917069326744.0
3.0,-4.0,-7.0,-13.0,3.0,7.0,5.0,17.0,1650917069347649.0
7.0,13.0,8.0,5.0,0.0,-4.0,1.0,-1.0,1650917069347649.0
-1.0,0.0,-3.0,-6.0,-8.0,-13.0,-4.0,-5.0,1650917069348644.0
-12.0,-12.0,-4.0,-4.0,-8.0,1.0,-5.0,-3.0,1650917069348644.0
-1.0,-29.0,-2.0,8.0,7.0,10.0,0.0,-20.0,1650917069362638.0
-4.0,-19.0,-22.0,-11.0,-1.0,-3.0,1.0,18.0,1650917069362638.0
7.0,14.0,3.0,2.0,-2.0,-13.0,4.0,18.0,1650917069363636.0
-5.0,13.0,-1.0,-1.0,-5.0,12.0,-6.0,-27.0,1650917069363636.0
-13.0,16.0,7.0,4.0,1.0,-2.0,-2.0,-17.0,1650917069385961.0
9.0,12.0,7.0,1.0,5.0,0.0,3.0,16.0,1650917069385961.0
25.0,32.0,4.0,10.0,7.0,8.0,4.0,13.0,1650917069385961.0
-11.0,-39.0,6.0,2.0,-4.0,-10.0,-2.0,-7.0,1650917069385961.0
-16.0,-30.0,-17.0,-6.0,-17.0,-14.0,-8.0,-2.0,1650917069408309.0
-3.0,-15.0,-6.0,-2.0,8.0,8.0,1.0,-7.0,1650917069408309.0
-12.0,-9.0,3.0,-14.0,1.0,5.0,3.0,8.0,1650917069409343.0
24.0,15.0,33.0,8.0,1.0,0.0,8.0,4.0,1650917069409343.0
33.0,7.0,-1.0,2.0,-13.0,-14.0,2.0,1.0,1650917069422787.0
-32.0,34.0,-11.0,-12.0,7.0,8.0,-2.0,5.0,1650917069422787.0
-22.0,-52.0,-7.0,-8.0,-8.0,-5.0,-13.0,-30.0,1650917069423623.0
-1.0,6.0,-31.0,-11.0,-1.0,5.0,-3.0,2.0,1650917069423623.0
30.0,84.0,41.0,41.0,22.0,9.0,19.0,31.0,1650917069445888.0
30.0,-1.0,-3.0,-11.0,-9.0,-6.0,5.0,14.0,1650917069445888.0
-90.0,-47.0,-3.0,8.0,-10.0,-7.0,-18.0,-60.0,1650917069446744.0
24.0,32.0,-15.0,-21.0,0.0,1.0,2.0,13.0,1650917069446744.0
47.0,44.0,15.0,16.0,18.0,1.0,1.0,13.0,1650917069468617.0
-35.0,-44.0,-22.0,4.0,-13.0,-12.0,-13.0,-45.0,1650917069468617.0
-1.0,48.0,5.0,3.0,-13.0,-12.0,3.0,26.0,1650917069469191.0
-23.0,20.0,25.0,0.0,-5.0,-15.0,-18.0,-16.0,1650917069469191.0
-40.0,47.0,-30.0,-32.0,1.0,7.0,0.0,-7.0,1650917069482633.0
65.0,99.0,54.0,27.0,8.0,21.0,5.0,27.0,1650917069482633.0
27.0,-3.0,-8.0,10.0,17.0,8.0,18.0,3.0,1650917069483466.0
-41.0,-112.0,-19.0,-8.0,0.0,-11.0,-12.0,-4.0,1650917069483466.0
33.0,22.0,11.0,-2.0,-7.0,-11.0,-5.0,14.0,1650917069505574.0
24.0,70.0,20.0,7.0,24.0,5.0,11.0,-18.0,1650917069505574.0
40.0,53.0,15.0,0.0,-17.0,6.0,8.0,-14.0,1650917069505696.0
-11.0,-55.0,-9.0,6.0,-5.0,-7.0,-13.0,-16.0,1650917069505696.0
2.0,59.0,13.0,-15.0,3.0,15.0,13.0,8.0,1650917069528956.0
-57.0,-112.0,-3.0,19.0,-15.0,-16.0,-6.0,-10.0,1650917069528956.0
40.0,127.0,15.0,-6.0,22.0,5.0,-9.0,35.0,1650917069528956.0
-39.0,-67.0,-20.0,-19.0,-25.0,-9.0,6.0,-13.0,1650917069528956.0
-65.0,-128.0,-36.0,-3.0,5.0,-8.0,-31.0,-35.0,1650917069543245.0
36.0,92.0,3.0,-8.0,8.0,16.0,24.0,33.0,1650917069543245.0
1.0,-52.0,-22.0,-4.0,8.0,3.0,-9.0,-25.0,1650917069543245.0
0.0,56.0,9.0,13.0,11.0,22.0,22.0,12.0,1650917069543245.0
-48.0,-15.0,-28.0,-2.0,-12.0,-18.0,-11.0,5.0,1650917069565394.0
46.0,39.0,-8.0,-7.0,-1.0,0.0,3.0,15.0,1650917069565394.0
1.0,-67.0,1.0,-4.0,-28.0,-13.0,-8.0,-5.0,1650917069565394.0
-56.0,4.0,-26.0,-11.0,-14.0,-16.0,-24.0,-48.0,1650917069565394.0
38.0,33.0,15.0,21.0,-10.0,-21.0,-1.0,10.0,1650917069589129.0
-37.0,24.0,3.0,-25.0,8.0,4.0,-6.0,-32.0,1650917069589129.0
4.0,-45.0,-6.0,-5.0,-13.0,10.0,6.0,62.0,1650917069589268.0
58.0,-51.0,-16.0,23.0,33.0,26.0,15.0,-8.0,1650917069589268.0
-61.0,42.0,9.0,-23.0,-24.0,-11.0,-8.0,8.0,1650917069602572.0
-79.0,-128.0,-51.0,-19.0,-17.0,-26.0,-40.0,-76.0,1650917069602572.0
41.0,92.0,8.0,-16.0,-14.0,-20.0,8.0,30.0,1650917069603412.0
31.0,127.0,28.0,5.0,18.0,32.0,22.0,27.0,1650917069603412.0
50.0,22.0,-2.0,14.0,15.0,13.0,-1.0,2.0,1650917069625710.0
-33.0,5.0,24.0,31.0,5.0,2.0,9.0,22.0,1650917069625710.0
8.0,-86.0,-10.0,-23.0,-21.0,-9.0,-15.0,-23.0,1650917069626699.0
-20.0,39.0,10.0,9.0,-14.0,-15.0,11.0,18.0,1650917069626699.0
41.0,20.0,-35.0,-6.0,1.0,-2.0,-6.0,-9.0,1650917069648875.0
-19.0,98.0,17.0,-1.0,4.0,-3.0,-2.0,2.0,1650917069648875.0
-28.0,-91.0,-25.0,27.0,34.0,13.0,-7.0,-24.0,1650917069648875.0
7.0,50.0,9.0,-6.0,-16.0,-8.0,11.0,32.0,1650917069648875.0
30.0,-43.0,-6.0,-21.0,-36.0,-5.0,8.0,34.0,1650917069663203.0
4.0,113.0,24.0,15.0,27.0,4.0,-8.0,-19.0,1650917069663203.0
14.0,51.0,8.0,3.0,-16.0,-17.0,11.0,12.0,1650917069663203.0
-51.0,-27.0,-10.0,-7.0,9.0,12.0,-2.0,-21.0,1650917069663203.0
-4.0,67.0,19.0,-4.0,-4.0,10.0,3.0,8.0,1650917069686347.0
69.0,42.0,15.0,22.0,51.0,16.0,2.0,29.0,1650917069686347.0
-50.0,10.0,9.0,28.0,13.0,19.0,4.0,-57.0,1650917069686347.0
13.0,26.0,-22.0,-23.0,-20.0,-29.0,-10.0,22.0,1650917069686347.0
-16.0,-35.0,-24.0,-31.0,-5.0,-7.0,3.0,-27.0,1650917069708462.0
20.0,-29.0,21.0,41.0,12.0,-9.0,7.0,26.0,1650917069708462.0
62.0,127.0,22.0,-4.0,-8.0,23.0,7.0,15.0,1650917069708462.0
54.0,54.0,20.0,19.0,16.0,14.0,12.0,27.0,1650917069708462.0
-45.0,-118.0,-8.0,13.0,-4.0,-7.0,-1.0,-1.0,1650917069722589.0
11.0,68.0,-14.0,-40.0,-30.0,-17.0,-25.0,-36.0,1650917069722589.0
-67.0,-103.0,-43.0,-19.0,-14.0,-15.0,9.0,3.0,1650917069723444.0
-59.0,-80.0,-21.0,7.0,12.0,-7.0,-1.0,8.0,1650917069723444.0
29.0,88.0,37.0,3.0,9.0,10.0,16.0,11.0,1650917069746506.0
22.0,58.0,3.0,9.0,-4.0,9.0,-8.0,11.0,1650917069746506.0
12.0,-47.0,-22.0,-6.0,27.0,14.0,7.0,-16.0,1650917069746506.0
11.0,-24.0,15.0,-27.0,-22.0,-15.0,-11.0,30.0,1650917069746506.0
-40.0,1.0,1.0,39.0,21.0,-13.0,-18.0,-73.0,1650917069768556.0
-34.0,-128.0,-34.0,-59.0,-53.0,-3.0,6.0,-10.0,1650917069768556.0
24.0,110.0,1.0,-10.0,1.0,6.0,-2.0,27.0,1650917069768556.0
27.0,-42.0,-14.0,14.0,1.0,-5.0,-2.0,-6.0,1650917069768556.0
29.0,14.0,0.0,18.0,23.0,7.0,-14.0,15.0,1650917069782684.0
-5.0,59.0,-2.0,-20.0,-24.0,1.0,16.0,-21.0,1650917069782684.0
-51.0,-29.0,2.0,12.0,-29.0,-34.0,-21.0,10.0,1650917069783553.0
27.0,-26.0,-6.0,-11.0,19.0,5.0,15.0,5.0,1650917069783553.0
-41.0,17.0,-7.0,-10.0,8.0,24.0,9.0,-19.0,1650917069805358.0
25.0,18.0,-3.0,18.0,10.0,-3.0,-17.0,-10.0,1650917069805358.0
17.0,11.0,6.0,-14.0,-11.0,17.0,17.0,-2.0,1650917069805358.0
-31.0,64.0,-20.0,10.0,1.0,-40.0,-26.0,16.0,1650917069805358.0
-19.0,-80.0,-1.0,-45.0,-28.0,1.0,-8.0,-40.0,1650917069828545.0
26.0,12.0,23.0,26.0,-7.0,16.0,29.0,61.0,1650917069828545.0
31.0,98.0,23.0,17.0,40.0,29.0,12.0,-4.0,1650917069828545.0
-15.0,2.0,24.0,28.0,-30.0,-5.0,-2.0,-45.0,1650917069828545.0
23.0,-107.0,-34.0,-39.0,-4.0,-10.0,-12.0,21.0,1650917069843020.0
-45.0,-47.0,-7.0,-1.0,-8.0,-14.0,6.0,-17.0,1650917069843020.0
1.0,-41.0,7.0,10.0,12.0,-7.0,-31.0,4.0,1650917069843020.0
23.0,75.0,-10.0,-10.0,-22.0,-11.0,-1.0,-23.0,1650917069843020.0
27.0,88.0,34.0,30.0,27.0,16.0,12.0,12.0,1650917069865370.0
12.0,-106.0,-34.0,-25.0,-1.0,1.0,10.0,8.0,1650917069865370.0
-6.0,34.0,0.0,13.0,-9.0,-13.0,1.0,5.0,1650917069865370.0
22.0,87.0,20.0,-12.0,17.0,14.0,-17.0,-6.0,1650917069865370.0
23.0,20.0,29.0,24.0,-5.0,-11.0,-10.0,-3.0,1650917069889173.0
-11.0,-80.0,-12.0,9.0,-21.0,-9.0,6.0,-8.0,1650917069889173.0
6.0,-3.0,4.0,25.0,33.0,11.0,-3.0,2.0,1650917069889173.0
18.0,-5.0,22.0,4.0,-12.0,18.0,18.0,2.0,1650917069889173.0
2.0,31.0,-11.0,-25.0,5.0,-3.0,-14.0,-3.0,1650917069902776.0
6.0,50.0,3.0,-7.0,-3.0,20.0,27.0,49.0,1650917069902776.0
5.0,-15.0,-5.0,-12.0,-41.0,-30.0,-20.0,-45.0,1650917069903617.0
-2.0,26.0,14.0,4.0,10.0,11.0,10.0,8.0,1650917069903617.0
-39.0,-58.0,-14.0,10.0,-7.0,-3.0,4.0,15.0,1650917069925917.0
-8.0,17.0,-13.0,-21.0,-15.0,-28.0,-37.0,-27.0,1650917069925917.0
59.0,20.0,17.0,7.0,12.0,-1.0,14.0,13.0,1650917069925917.0
-62.0,14.0,-15.0,-30.0,-20.0,-1.0,0.0,3.0,1650917069925917.0
41.0,69.0,4.0,-1.0,25.0,29.0,10.0,11.0,1650917069948779.0
-30.0,-21.0,-22.0,2.0,7.0,-7.0,-4.0,-10.0,1650917069948779.0
94.0,127.0,35.0,13.0,-13.0,-4.0,6.0,44.0,1650917069949189.0
-25.0,-114.0,-60.0,-39.0,34.0,0.0,-23.0,-29.0,1650917069949189.0
-32.0,-19.0,5.0,1.0,17.0,12.0,12.0,-5.0,1650917069962618.0
7.0,18.0,12.0,35.0,-10.0,-16.0,-1.0,0.0,1650917069962618.0
-12.0,81.0,-36.0,-39.0,1.0,-2.0,-4.0,1.0,1650917069970770.0
122.0,121.0,55.0,33.0,-7.0,-7.0,13.0,36.0,1650917069970770.0
-72.0,-98.0,-24.0,-16.0,-21.0,0.0,0.0,-5.0,1650917069985042.0
28.0,70.0,-32.0,-23.0,36.0,13.0,-19.0,-7.0,1650917069985042.0
-47.0,12.0,-4.0,-5.0,2.0,-5.0,21.0,18.0,1650917069985946.0
8.0,-24.0,-1.0,12.0,12.0,22.0,-5.0,-15.0,1650917069985946.0
40.0,104.0,35.0,24.0,-2.0,0.0,11.0,34.0,1650917070009163.0
55.0,108.0,21.0,0.0,-19.0,-6.0,4.0,7.0,1650917070009163.0
-85.0,-128.0,-28.0,27.0,41.0,-5.0,-2.0,17.0,1650917070009163.0
15.0,29.0,-2.0,-24.0,-21.0,-6.0,-18.0,-54.0,1650917070009163.0
-56.0,-67.0,-25.0,-11.0,-19.0,-15.0,-9.0,24.0,1650917070022461.0
52.0,53.0,11.0,-2.0,9.0,-6.0,1.0,-14.0,1650917070022461.0
-43.0,-61.0,11.0,13.0,-11.0,1.0,-19.0,-67.0,1650917070030511.0
59.0,56.0,37.0,26.0,30.0,32.0,31.0,51.0,1650917070030511.0
-21.0,-57.0,-5.0,8.0,-6.0,-4.0,-13.0,24.0,1650917070045632.0
-47.0,-46.0,-16.0,-3.0,3.0,-9.0,-12.0,-28.0,1650917070045632.0
34.0,-25.0,-18.0,-19.0,-8.0,-5.0,13.0,-35.0,1650917070045632.0
-3.0,-23.0,0.0,4.0,-7.0,3.0,4.0,31.0,1650917070045632.0
-34.0,-4.0,7.0,27.0,4.0,-10.0,-7.0,-94.0,1650917070068574.0
32.0,78.0,56.0,55.0,2.0,-11.0,7.0,55.0,1650917070068574.0
38.0,3.0,-7.0,-32.0,-13.0,2.0,-10.0,9.0,1650917070068574.0
-94.0,-117.0,-29.0,-14.0,-2.0,12.0,1.0,-44.0,1650917070068574.0
39.0,49.0,8.0,34.0,15.0,4.0,-1.0,-2.0,1650917070081874.0
-48.0,-77.0,-15.0,2.0,6.0,9.0,0.0,-2.0,1650917070081874.0
2.0,80.0,32.0,23.0,-17.0,-11.0,5.0,0.0,1650917070090029.0
61.0,89.0,16.0,20.0,-2.0,-23.0,2.0,64.0,1650917070090029.0
21.0,-49.0,-9.0,-49.0,-44.0,12.0,19.0,27.0,1650917070105274.0
-19.0,-21.0,-2.0,24.0,92.0,46.0,1.0,-18.0,1650917070105274.0
13.0,62.0,7.0,-8.0,-16.0,7.0,-15.0,8.0,1650917070106124.0
3.0,14.0,-8.0,7.0,10.0,-14.0,7.0,-13.0,1650917070106124.0
-34.0,127.0,21.0,-4.0,-45.0,-36.0,-13.0,-17.0,1650917070135802.0
-73.0,-117.0,-41.0,-26.0,-1.0,9.0,-10.0,-40.0,1650917070135802.0
-16.0,-41.0,-45.0,-40.0,12.0,23.0,18.0,6.0,1650917070136687.0
-48.0,63.0,7.0,56.0,0.0,-14.0,-12.0,14.0,1650917070136687.0
32.0,13.0,-29.0,-66.0,12.0,15.0,14.0,18.0,1650917070151670.0
47.0,-3.0,22.0,-5.0,-52.0,-24.0,-4.0,10.0,1650917070151670.0
14.0,73.0,8.0,15.0,39.0,6.0,-3.0,-2.0,1650917070152667.0
-75.0,-111.0,-42.0,-37.0,-49.0,-20.0,-21.0,-48.0,1650917070152667.0
9.0,30.0,-1.0,23.0,50.0,9.0,-5.0,-23.0,1650917070164782.0
10.0,35.0,2.0,-21.0,-48.0,-15.0,9.0,44.0,1650917070164782.0
34.0,47.0,-6.0,-15.0,-32.0,-8.0,1.0,24.0,1650917070165632.0
-2.0,-79.0,1.0,29.0,74.0,17.0,-4.0,-16.0,1650917070165632.0
20.0,1.0,5.0,-7.0,-22.0,-19.0,-18.0,-21.0,1650917070188740.0
-37.0,-26.0,-6.0,10.0,-9.0,-13.0,-17.0,-12.0,1650917070188740.0
0.0,64.0,31.0,0.0,13.0,27.0,33.0,8.0,1650917070189191.0
54.0,92.0,34.0,37.0,3.0,4.0,-2.0,24.0,1650917070189191.0
-15.0,-51.0,-11.0,-2.0,0.0,8.0,7.0,9.0,1650917070202321.0
-49.0,-111.0,-30.0,-23.0,-27.0,-15.0,-22.0,2.0,1650917070202321.0
0.0,-41.0,-7.0,13.0,-9.0,-17.0,-16.0,-27.0,1650917070210331.0
17.0,114.0,5.0,-42.0,-23.0,0.0,10.0,17.0,1650917070210331.0
68.0,127.0,35.0,54.0,50.0,13.0,10.0,2.0,1650917070225494.0
-60.0,-41.0,-30.0,-47.0,-18.0,0.0,7.0,-8.0,1650917070225494.0
-43.0,-73.0,-20.0,-11.0,20.0,2.0,-17.0,-4.0,1650917070225494.0
-4.0,-23.0,-15.0,-16.0,0.0,0.0,-6.0,-4.0,1650917070225494.0
24.0,42.0,6.0,6.0,4.0,-7.0,7.0,-2.0,1650917070248786.0
60.0,80.0,36.0,35.0,-50.0,-14.0,11.0,49.0,1650917070248786.0
-6.0,83.0,-18.0,-50.0,40.0,31.0,1.0,4.0,1650917070248786.0
-3.0,-103.0,-27.0,-32.0,-6.0,12.0,8.0,-9.0,1650917070248786.0
-75.0,-99.0,-19.0,-7.0,-38.0,-26.0,-6.0,-22.0,1650917070262118.0
42.0,127.0,28.0,6.0,40.0,15.0,10.0,18.0,1650917070262118.0
21.0,1.0,5.0,23.0,-13.0,-12.0,-14.0,-27.0,1650917070270291.0
56.0,0.0,5.0,-2.0,-1.0,-12.0,-10.0,16.0,1650917070270291.0
47.0,69.0,7.0,-3.0,-24.0,14.0,14.0,21.0,1650917070285057.0
-43.0,-82.0,-20.0,20.0,42.0,-3.0,-10.0,-11.0,1650917070285057.0
-24.0,22.0,-10.0,-43.0,-22.0,-14.0,-17.0,-12.0,1650917070286054.0
30.0,6.0,-4.0,38.0,51.0,13.0,10.0,-13.0,1650917070286054.0
-65.0,-36.0,8.0,-4.0,15.0,3.0,14.0,13.0,1650917070308642.0
0.0,-3.0,6.0,-3.0,-9.0,0.0,-20.0,-43.0,1650917070308642.0
-3.0,-25.0,20.0,39.0,1.0,0.0,18.0,86.0,1650917070308642.0
-12.0,-3.0,-15.0,-11.0,-15.0,-12.0,-21.0,-67.0,1650917070308642.0
35.0,67.0,11.0,21.0,-10.0,-10.0,11.0,33.0,1650917070331151.0
51.0,127.0,34.0,23.0,29.0,22.0,34.0,21.0,1650917070331151.0
-39.0,-32.0,-4.0,-33.0,-13.0,22.0,14.0,-34.0,1650917070331151.0
-27.0,23.0,-2.0,7.0,-26.0,-8.0,-5.0,23.0,1650917070331151.0
49.0,-128.0,3.0,-6.0,27.0,22.0,-2.0,26.0,1650917070345273.0
14.0,23.0,27.0,26.0,-13.0,-13.0,12.0,31.0,1650917070345273.0
-12.0,75.0,36.0,19.0,4.0,-4.0,-3.0,-44.0,1650917070345273.0
25.0,-49.0,-8.0,-28.0,-21.0,-6.0,11.0,15.0,1650917070345273.0
-5.0,86.0,-22.0,-32.0,-25.0,-9.0,-27.0,-90.0,1650917070368540.0
45.0,13.0,-39.0,11.0,15.0,-4.0,-8.0,16.0,1650917070368540.0
-117.0,-128.0,-52.0,-31.0,3.0,3.0,-13.0,29.0,1650917070368540.0
-72.0,121.0,15.0,-18.0,14.0,18.0,-2.0,-36.0,1650917070368540.0
25.0,115.0,24.0,25.0,-35.0,-29.0,-16.0,-24.0,1650917070391013.0
70.0,27.0,13.0,-1.0,10.0,20.0,27.0,52.0,1650917070391013.0
12.0,83.0,12.0,34.0,-30.0,-27.0,-13.0,-25.0,1650917070391873.0
17.0,63.0,4.0,-31.0,17.0,17.0,9.0,8.0,1650917070391873.0
-59.0,-128.0,-43.0,-34.0,-5.0,-3.0,-13.0,-30.0,1650917070404996.0
20.0,127.0,40.0,29.0,27.0,4.0,5.0,-5.0,1650917070404996.0
-8.0,-113.0,-33.0,-8.0,12.0,4.0,-18.0,-10.0,1650917070412976.0
-5.0,68.0,-6.0,-19.0,-33.0,-14.0,-9.0,17.0,1650917070412976.0
79.0,119.0,45.0,61.0,35.0,4.0,27.0,-23.0,1650917070429280.0
-68.0,-118.0,-17.0,-30.0,-29.0,13.0,-24.0,-29.0,1650917070429280.0
10.0,-106.0,-7.0,-12.0,32.0,14.0,22.0,20.0,1650917070429280.0
-77.0,-100.0,-6.0,0.0,-43.0,-35.0,-68.0,-45.0,1650917070429280.0
-34.0,25.0,-10.0,20.0,55.0,6.0,18.0,17.0,1650917070450368.0
-23.0,-40.0,-6.0,-17.0,-12.0,-11.0,33.0,9.0,1650917070450368.0
4.0,97.0,10.0,19.0,-17.0,1.0,-1.0,-20.0,1650917070451368.0
64.0,-40.0,14.0,9.0,15.0,36.0,90.0,49.0,1650917070451368.0
-26.0,-36.0,12.0,5.0,-24.0,-6.0,-19.0,24.0,1650917070464962.0
37.0,-44.0,-17.0,-30.0,-8.0,-4.0,-17.0,-61.0,1650917070464962.0
72.0,115.0,44.0,33.0,41.0,22.0,20.0,47.0,1650917070465799.0
90.0,73.0,13.0,-11.0,21.0,18.0,8.0,43.0,1650917070465799.0
-41.0,-94.0,-20.0,-19.0,-11.0,-4.0,-2.0,47.0,1650917070489102.0
-72.0,-45.0,-40.0,-8.0,-13.0,-23.0,-38.0,-95.0,1650917070489102.0
27.0,81.0,34.0,35.0,-40.0,-29.0,-3.0,29.0,1650917070489102.0
-79.0,-83.0,-22.0,-28.0,-8.0,11.0,-9.0,-13.0,1650917070489102.0
-13.0,-21.0,-11.0,-5.0,-17.0,-15.0,-6.0,4.0,1650917070511479.0
22.0,81.0,-13.0,-38.0,37.0,28.0,16.0,28.0,1650917070511479.0
25.0,4.0,-18.0,7.0,-17.0,-17.0,0.0,25.0,1650917070511479.0
-69.0,-41.0,-13.0,19.0,-10.0,-13.0,-10.0,-25.0,1650917070511479.0
1.0,100.0,3.0,11.0,4.0,-8.0,-10.0,-4.0,1650917070525321.0
-25.0,19.0,3.0,-20.0,-20.0,-1.0,-5.0,16.0,1650917070525321.0
75.0,19.0,19.0,12.0,7.0,0.0,13.0,-12.0,1650917070525321.0
-42.0,-1.0,3.0,40.0,24.0,14.0,16.0,16.0,1650917070525321.0
2.0,-116.0,-15.0,-38.0,-34.0,-18.0,-13.0,-6.0,1650917070548727.0
-39.0,-50.0,-28.0,-10.0,21.0,-3.0,-28.0,9.0,1650917070548727.0
-24.0,7.0,4.0,-10.0,0.0,-7.0,6.0,-1.0,1650917070548727.0
109.0,112.0,33.0,16.0,-4.0,4.0,-9.0,-1.0,1650917070548727.0
-18.0,-61.0,-8.0,29.0,33.0,20.0,17.0,27.0,1650917070571007.0
-11.0,4.0,2.0,-7.0,7.0,8.0,4.0,0.0,1650917070571007.0
-37.0,-15.0,-5.0,-14.0,-23.0,-12.0,-37.0,-27.0,1650917070571007.0
22.0,-2.0,-8.0,-9.0,-20.0,-13.0,26.0,7.0,1650917070571007.0
10.0,87.0,24.0,17.0,2.0,7.0,22.0,-27.0,1650917070585392.0
54.0,69.0,14.0,23.0,29.0,5.0,6.0,28.0,1650917070585392.0
-41.0,-38.0,-32.0,-47.0,-24.0,0.0,-4.0,-26.0,1650917070585392.0
49.0,69.0,15.0,17.0,6.0,-4.0,-5.0,40.0,1650917070585392.0
-91.0,-80.0,-21.0,3.0,17.0,8.0,6.0,-10.0,1650917070608697.0
7.0,14.0,-2.0,1.0,-22.0,-12.0,-15.0,-12.0,1650917070608697.0
35.0,98.0,-10.0,3.0,-6.0,-13.0,9.0,-3.0,1650917070608697.0
16.0,93.0,44.0,-8.0,19.0,-3.0,-14.0,-21.0,1650917070608697.0
38.0,11.0,-5.0,10.0,-5.0,7.0,-1.0,30.0,1650917070630678.0
7.0,23.0,4.0,18.0,74.0,44.0,10.0,-2.0,1650917070630678.0
-47.0,-87.0,0.0,-5.0,2.0,8.0,3.0,-2.0,1650917070631671.0
-48.0,-90.0,-8.0,7.0,-17.0,-22.0,-16.0,-16.0,1650917070631671.0
17.0,-3.0,2.0,-29.0,-34.0,-40.0,-56.0,-3.0,1650917070644921.0
-9.0,-10.0,17.0,12.0,-24.0,-4.0,34.0,-43.0,1650917070644921.0
9.0,-16.0,-12.0,-3.0,19.0,-2.0,-43.0,-9.0,1650917070645804.0
-22.0,-39.0,-21.0,2.0,21.0,24.0,50.0,-1.0,1650917070645804.0
24.0,51.0,4.0,-4.0,12.0,18.0,37.0,0.0,1650917070668025.0
-11.0,-4.0,1.0,-1.0,-20.0,-8.0,-5.0,41.0,1650917070668025.0
26.0,-28.0,9.0,12.0,-6.0,-15.0,-4.0,4.0,1650917070669022.0
-9.0,0.0,-10.0,-10.0,-25.0,-26.0,-22.0,-15.0,1650917070669022.0
31.0,38.0,0.0,-4.0,11.0,8.0,-1.0,-4.0,1650917070691520.0
17.0,-11.0,10.0,4.0,-20.0,-10.0,3.0,6.0,1650917070691520.0
-69.0,-26.0,0.0,12.0,17.0,24.0,6.0,-5.0,1650917070691520.0
8.0,-8.0,5.0,4.0,14.0,19.0,4.0,8.0,1650917070691520.0
10.0,26.0,-9.0,-11.0,-16.0,1.0,-5.0,5.0,1650917070705568.0
-14.0,-21.0,5.0,-1.0,-12.0,-32.0,-19.0,-23.0,1650917070705568.0
12.0,-10.0,-22.0,-15.0,-15.0,-17.0,-3.0,8.0,1650917070705568.0
-2.0,15.0,-2.0,-16.0,9.0,6.0,-1.0,-10.0,1650917070705568.0
5.0,14.0,12.0,7.0,17.0,28.0,7.0,1.0,1650917070728277.0
-4.0,-5.0,12.0,14.0,-2.0,4.0,-2.0,2.0,1650917070728277.0
4.0,0.0,26.0,25.0,1.0,-7.0,4.0,-9.0,1650917070729308.0
-2.0,-8.0,-25.0,-21.0,-15.0,-16.0,-6.0,-2.0,1650917070729308.0
16.0,7.0,5.0,-5.0,-12.0,-13.0,-15.0,2.0,1650917070750350.0
-16.0,-12.0,-12.0,-21.0,-11.0,1.0,12.0,4.0,1650917070750350.0
-2.0,3.0,11.0,13.0,11.0,10.0,7.0,-10.0,1650917070751347.0
14.0,-11.0,-1.0,12.0,6.0,-3.0,-29.0,-1.0,1650917070751347.0
-35.0,13.0,-4.0,-6.0,3.0,0.0,0.0,20.0,1650917070765350.0
32.0,-1.0,-13.0,-6.0,-12.0,1.0,30.0,-4.0,1650917070765350.0
-1.0,-3.0,1.0,-6.0,1.0,3.0,-4.0,1.0,1650917070765350.0
-4.0,-4.0,-1.0,2.0,1.0,-1.0,-5.0,4.0,1650917070765350.0
16.0,10.0,1.0,13.0,6.0,-2.0,-8.0,-6.0,1650917070788747.0
-29.0,-9.0,8.0,5.0,-7.0,-7.0,-1.0,-2.0,1650917070788747.0
8.0,-5.0,-11.0,-32.0,-2.0,5.0,6.0,5.0,1650917070788747.0
7.0,1.0,-1.0,-3.0,3.0,3.0,-6.0,-4.0,1650917070788747.0
-4.0,5.0,6.0,3.0,7.0,13.0,2.0,3.0,1650917070810690.0
-5.0,-3.0,-1.0,13.0,1.0,1.0,-6.0,-4.0,1650917070810690.0
5.0,-5.0,-4.0,0.0,-5.0,-9.0,3.0,-3.0,1650917070811688.0
-15.0,-1.0,-8.0,-7.0,-17.0,-19.0,-14.0,-7.0,1650917070811688.0
5.0,-5.0,1.0,0.0,-2.0,0.0,4.0,-12.0,1650917070824992.0
6.0,1.0,-4.0,-22.0,1.0,0.0,-15.0,0.0,1650917070824992.0
-1.0,3.0,13.0,17.0,10.0,8.0,24.0,7.0,1650917070825992.0
-2.0,-2.0,-2.0,14.0,6.0,5.0,-1.0,-2.0,1650917070825992.0
2.0,3.0,-15.0,-23.0,-7.0,-5.0,-3.0,2.0,1650917070848683.0
2.0,0.0,8.0,10.0,-7.0,-15.0,-27.0,-4.0,1650917070848683.0
-10.0,-1.0,14.0,6.0,-4.0,3.0,28.0,-1.0,1650917070849683.0
-7.0,-7.0,-7.0,18.0,6.0,4.0,26.0,5.0,1650917070849683.0
20.0,-1.0,1.0,39.0,18.0,23.0,12.0,5.0,1650917070871266.0
-12.0,3.0,-9.0,-61.0,-18.0,6.0,-3.0,-10.0,1650917070871266.0
3.0,-7.0,2.0,-3.0,-4.0,-7.0,-30.0,-6.0,1650917070871266.0
-2.0,5.0,5.0,3.0,-5.0,-13.0,-5.0,-2.0,1650917070871266.0
2.0,3.0,-12.0,5.0,-2.0,-12.0,6.0,-1.0,1650917070884133.0
3.0,1.0,3.0,6.0,5.0,-2.0,-7.0,3.0,1650917070884133.0
-4.0,-10.0,-19.0,-10.0,-2.0,8.0,-2.0,-2.0,1650917070892404.0
0.0,2.0,9.0,-6.0,0.0,7.0,6.0,-4.0,1650917070892404.0
-2.0,6.0,17.0,0.0,-6.0,-8.0,-10.0,-1.0,1650917070908609.0
6.0,4.0,24.0,35.0,-1.0,-5.0,-17.0,0.0,1650917070908609.0
7.0,-8.0,-34.0,-27.0,-1.0,0.0,45.0,2.0,1650917070909513.0
-10.0,-5.0,-19.0,-21.0,3.0,4.0,-6.0,-3.0,1650917070909513.0
4.0,0.0,-8.0,-18.0,-8.0,-5.0,-2.0,-4.0,1650917070931140.0
0.0,-5.0,-7.0,1.0,-6.0,-1.0,-6.0,2.0,1650917070931140.0
2.0,5.0,29.0,39.0,9.0,4.0,-7.0,1.0,1650917070932142.0
-2.0,-3.0,-1.0,-10.0,-5.0,-7.0,-16.0,-5.0,1650917070932142.0
3.0,0.0,9.0,0.0,-8.0,-11.0,8.0,-1.0,1650917070944748.0
4.0,2.0,-3.0,4.0,4.0,6.0,7.0,2.0,1650917070944748.0
-5.0,-4.0,-8.0,-7.0,8.0,7.0,-5.0,0.0,1650917070953200.0
2.0,3.0,4.0,9.0,7.0,5.0,7.0,-2.0,1650917070953200.0
-3.0,6.0,10.0,3.0,3.0,0.0,-6.0,-1.0,1650917070968466.0
-7.0,-17.0,-8.0,-7.0,-14.0,-15.0,1.0,-5.0,1650917070968466.0
-3.0,2.0,-2.0,2.0,-8.0,-8.0,-11.0,-3.0,1650917070969345.0
0.0,1.0,7.0,11.0,0.0,7.0,-10.0,4.0,1650917070969345.0
-1.0,7.0,1.0,-18.0,-2.0,-5.0,5.0,-3.0,1650917070991740.0
-4.0,-3.0,-4.0,5.0,4.0,9.0,-5.0,-2.0,1650917070991740.0
2.0,0.0,-1.0,-1.0,19.0,23.0,17.0,1.0,1650917070993736.0
-1.0,1.0,-6.0,1.0,1.0,4.0,9.0,3.0,1650917070993736.0
1.0,-4.0,3.0,-4.0,-10.0,-12.0,-8.0,-2.0,1650917071004753.0
-1.0,3.0,-4.0,0.0,-4.0,-12.0,-3.0,-4.0,1650917071004753.0
-1.0,-8.0,-9.0,-10.0,-8.0,-3.0,-14.0,-3.0,1650917071013003.0
2.0,6.0,22.0,15.0,2.0,5.0,2.0,-2.0,1650917071013003.0
-4.0,-6.0,-24.0,-19.0,-5.0,-5.0,-3.0,-3.0,1650917071028219.0
-4.0,-2.0,-2.0,-3.0,-3.0,-18.0,-1.0,-1.0,1650917071028219.0
2.0,6.0,11.0,12.0,3.0,11.0,-6.0,0.0,1650917071029251.0
2.0,-1.0,-2.0,-9.0,-10.0,0.0,3.0,0.0,1650917071029251.0
-2.0,-2.0,-3.0,5.0,6.0,2.0,-8.0,-4.0,1650917071050633.0
-5.0,-6.0,-10.0,-13.0,-8.0,-2.0,5.0,0.0,1650917071050633.0
2.0,-2.0,4.0,13.0,4.0,-9.0,-8.0,0.0,1650917071052634.0
1.0,-3.0,-10.0,-17.0,-1.0,0.0,9.0,2.0,1650917071052634.0
-7.0,1.0,-1.0,-7.0,-5.0,2.0,-15.0,-10.0,1650917071064772.0
-1.0,1.0,-10.0,-3.0,6.0,24.0,41.0,11.0,1650917071064772.0
1.0,0.0,3.0,-3.0,-9.0,-11.0,-10.0,-4.0,1650917071073761.0
-2.0,1.0,3.0,1.0,-2.0,-11.0,-8.0,-3.0,1650917071073761.0
0.0,-3.0,3.0,3.0,-5.0,-19.0,-13.0,-2.0,1650917071088696.0
-3.0,2.0,8.0,11.0,6.0,13.0,3.0,-1.0,1650917071088696.0
-2.0,2.0,2.0,4.0,7.0,17.0,5.0,3.0,1650917071089710.0
4.0,-1.0,3.0,0.0,5.0,2.0,-2.0,-1.0,1650917071089710.0
1.0,0.0,3.0,3.0,-3.0,12.0,10.0,3.0,1650917071110523.0
-4.0,-2.0,-8.0,-8.0,-5.0,-12.0,-12.0,-3.0,1650917071110523.0
-3.0,-2.0,13.0,1.0,-13.0,-18.0,-8.0,-4.0,1650917071112554.0
1.0,1.0,1.0,3.0,0.0,-10.0,-4.0,-1.0,1650917071112554.0
3.0,-1.0,-3.0,1.0,17.0,15.0,5.0,3.0,1650917071124778.0
1.0,-4.0,-3.0,0.0,6.0,13.0,3.0,1.0,1650917071124778.0
-2.0,-1.0,-17.0,-13.0,0.0,-8.0,-6.0,-2.0,1650917071132913.0
0.0,1.0,1.0,-6.0,-13.0,-14.0,-4.0,-3.0,1650917071132913.0
-3.0,-2.0,5.0,-2.0,-19.0,-7.0,1.0,0.0,1650917071148600.0
2.0,4.0,9.0,11.0,11.0,14.0,3.0,0.0,1650917071148600.0
-3.0,-4.0,-7.0,-5.0,11.0,12.0,3.0,0.0,1650917071149187.0
-2.0,0.0,-1.0,7.0,-1.0,-10.0,-18.0,-7.0,1650917071149187.0
0.0,0.0,-9.0,-18.0,-8.0,-4.0,22.0,9.0,1650917071170341.0
-1.0,2.0,-1.0,3.0,-6.0,-5.0,-1.0,-5.0,1650917071170341.0
1.0,-1.0,6.0,8.0,-4.0,-5.0,-3.0,-2.0,1650917071172338.0
-2.0,0.0,2.0,2.0,6.0,4.0,0.0,0.0,1650917071172338.0
1.0,1.0,9.0,9.0,11.0,9.0,-7.0,0.0,1650917071184336.0
0.0,1.0,1.0,-11.0,-8.0,-18.0,-8.0,-1.0,1650917071184336.0
-4.0,-6.0,-15.0,-3.0,-10.0,1.0,4.0,0.0,1650917071193471.0
10.0,1.0,-3.0,-5.0,-3.0,9.0,-1.0,3.0,1650917071193471.0
-15.0,-3.0,0.0,6.0,18.0,13.0,17.0,0.0,1650917071208651.0
0.0,3.0,5.0,4.0,-3.0,-11.0,-2.0,0.0,1650917071208651.0
-5.0,4.0,8.0,-1.0,-2.0,-10.0,-5.0,-4.0,1650917071209651.0
5.0,0.0,-5.0,-5.0,-4.0,-4.0,1.0,-1.0,1650917071209651.0
3.0,-2.0,7.0,8.0,1.0,6.0,-2.0,0.0,1650917071231056.0
-1.0,-2.0,-9.0,0.0,6.0,8.0,1.0,0.0,1650917071231056.0
2.0,4.0,7.0,1.0,2.0,2.0,-10.0,0.0,1650917071231914.0
-7.0,-1.0,3.0,3.0,-10.0,-9.0,5.0,-3.0,1650917071231914.0
1.0,-2.0,-8.0,-7.0,-2.0,-6.0,4.0,1.0,1650917071253100.0
0.0,-3.0,2.0,3.0,4.0,3.0,-10.0,-8.0,1650917071253100.0
2.0,-6.0,-4.0,-1.0,-6.0,-9.0,4.0,0.0,1650917071255071.0
-3.0,-6.0,1.0,0.0,0.0,8.0,2.0,1.0,1650917071255071.0
2.0,2.0,2.0,5.0,5.0,0.0,-2.0,1.0,1650917071268467.0
3.0,3.0,0.0,-3.0,12.0,8.0,-4.0,0.0,1650917071268467.0
1.0,-4.0,-3.0,-4.0,-7.0,-9.0,4.0,0.0,1650917071269256.0
-5.0,-1.0,-8.0,-7.0,-6.0,4.0,-2.0,-4.0,1650917071269256.0
2.0,0.0,-1.0,-4.0,-11.0,-3.0,-12.0,-4.0,1650917071290234.0
-1.0,3.0,4.0,7.0,-8.0,-7.0,9.0,4.0,1650917071290234.0
0.0,1.0,4.0,4.0,15.0,7.0,2.0,2.0,1650917071292215.0
-3.0,0.0,9.0,10.0,8.0,2.0,5.0,3.0,1650917071292215.0
6.0,-1.0,-11.0,-11.0,-3.0,-3.0,-12.0,-3.0,1650917071313157.0
-2.0,-4.0,-21.0,-17.0,-13.0,-6.0,-2.0,-2.0,1650917071313157.0
1.0,1.0,2.0,0.0,-8.0,-7.0,-3.0,-1.0,1650917071314153.0
0.0,-1.0,1.0,1.0,-1.0,-4.0,0.0,-1.0,1650917071314153.0
8.0,2.0,10.0,9.0,5.0,7.0,-2.0,-1.0,1650917071328622.0
-1.0,-2.0,-2.0,-2.0,2.0,6.0,6.0,1.0,1650917071328622.0
0.0,1.0,1.0,5.0,9.0,5.0,10.0,4.0,1650917071329623.0
-1.0,0.0,-7.0,-10.0,-1.0,-5.0,-6.0,-2.0,1650917071329623.0
1.0,0.0,1.0,1.0,2.0,-1.0,-7.0,-2.0,1650917071350751.0
-3.0,0.0,-3.0,-2.0,-2.0,-12.0,6.0,1.0,1650917071350751.0
6.0,6.0,-6.0,-7.0,0.0,15.0,-5.0,0.0,1650917071351785.0
3.0,-3.0,1.0,7.0,4.0,9.0,8.0,2.0,1650917071351785.0
-3.0,-1.0,2.0,0.0,-5.0,-5.0,-1.0,-1.0,1650917071372683.0
-2.0,-3.0,0.0,-3.0,-3.0,-5.0,-5.0,0.0,1650917071372683.0
-4.0,0.0,-8.0,-10.0,-10.0,-16.0,-21.0,-13.0,1650917071374680.0
0.0,1.0,-6.0,-8.0,-10.0,-11.0,22.0,2.0,1650917071374680.0
-4.0,-2.0,-2.0,0.0,3.0,6.0,-4.0,0.0,1650917071387679.0
0.0,-1.0,10.0,10.0,11.0,15.0,-1.0,1.0,1650917071387679.0
0.0,3.0,6.0,8.0,6.0,4.0,4.0,2.0,1650917071394656.0
-4.0,1.0,4.0,1.0,-3.0,-12.0,-14.0,-4.0,1650917071394656.0
-7.0,-6.0,-16.0,-18.0,-15.0,-8.0,6.0,0.0,1650917071410664.0
4.0,5.0,-2.0,-5.0,-4.0,4.0,1.0,0.0,1650917071410664.0
3.0,0.0,-4.0,6.0,14.0,9.0,-1.0,1.0,1650917071412660.0
1.0,-2.0,3.0,-2.0,6.0,5.0,-2.0,-2.0,1650917071412660.0
-3.0,1.0,4.0,12.0,2.0,-7.0,5.0,3.0,1650917071433002.0
-1.0,-3.0,-4.0,-6.0,-8.0,-7.0,-10.0,-3.0,1650917071433002.0
-3.0,-4.0,-6.0,-9.0,-12.0,-20.0,-6.0,0.0,1650917071434997.0
0.0,2.0,-5.0,0.0,5.0,15.0,-2.0,-2.0,1650917071434997.0
2.0,5.0,7.0,0.0,1.0,9.0,8.0,2.0,1650917071447974.0
-2.0,-4.0,2.0,5.0,3.0,-5.0,2.0,0.0,1650917071447974.0
2.0,-4.0,-6.0,-4.0,-2.0,0.0,2.0,-1.0,1650917071454103.0
-1.0,0.0,4.0,0.0,-7.0,-9.0,-6.0,1.0,1650917071454103.0
-2.0,-1.0,-5.0,-4.0,4.0,3.0,-2.0,0.0,1650917071471123.0
2.0,0.0,1.0,1.0,2.0,3.0,5.0,0.0,1650917071471123.0
-4.0,0.0,12.0,9.0,-6.0,-5.0,-2.0,-2.0,1650917071472122.0
0.0,-2.0,6.0,7.0,16.0,10.0,1.0,0.0,1650917071472122.0
-3.0,-6.0,-17.0,-15.0,-2.0,3.0,-1.0,-1.0,1650917071493306.0
2.0,0.0,6.0,7.0,1.0,-2.0,-9.0,-3.0,1650917071493306.0
-7.0,-3.0,-8.0,-9.0,-4.0,0.0,7.0,0.0,1650917071494303.0
8.0,2.0,-4.0,-6.0,-7.0,-1.0,3.0,0.0,1650917071494303.0
-19.0,-3.0,7.0,3.0,-2.0,-10.0,-8.0,-3.0,1650917071507274.0
1.0,0.0,-2.0,-3.0,-3.0,-7.0,2.0,1.0,1650917071507274.0
0.0,1.0,-2.0,-5.0,-9.0,3.0,-3.0,0.0,1650917071514250.0
-4.0,1.0,2.0,5.0,2.0,3.0,0.0,0.0,1650917071514250.0
5.0,0.0,0.0,0.0,10.0,1.0,-6.0,-2.0,1650917071531100.0
1.0,2.0,3.0,3.0,11.0,13.0,8.0,1.0,1650917071531100.0
-4.0,-1.0,4.0,5.0,0.0,-1.0,4.0,1.0,1650917071532413.0
0.0,-1.0,-9.0,-4.0,-15.0,-12.0,1.0,0.0,1650917071532413.0
5.0,-3.0,-2.0,-3.0,-6.0,-5.0,-4.0,-2.0,1650917071553423.0
-2.0,3.0,4.0,3.0,6.0,1.0,-6.0,0.0,1650917071553423.0
4.0,0.0,-5.0,-9.0,9.0,9.0,4.0,3.0,1650917071554389.0
-2.0,-2.0,2.0,0.0,-4.0,-1.0,-5.0,-2.0,1650917071554389.0
-1.0,2.0,-12.0,-14.0,-12.0,-26.0,-19.0,-7.0,1650917071567355.0
-2.0,-14.0,3.0,7.0,-3.0,14.0,34.0,4.0,1650917071567355.0
3.0,3.0,3.0,6.0,8.0,17.0,1.0,0.0,1650917071574367.0
-2.0,1.0,-7.0,-10.0,9.0,4.0,-1.0,1.0,1650917071574367.0
5.0,-1.0,1.0,3.0,-6.0,-11.0,1.0,1.0,1650917071590784.0
2.0,4.0,-2.0,-5.0,-7.0,-3.0,-16.0,-2.0,1650917071590784.0
-6.0,-9.0,-4.0,-6.0,-12.0,-11.0,-7.0,-4.0,1650917071592654.0
-4.0,-5.0,-3.0,-1.0,4.0,1.0,11.0,4.0,1650917071592654.0
2.0,0.0,5.0,8.0,8.0,8.0,8.0,1.0,1650917071612647.0
-1.0,1.0,-9.0,-15.0,-12.0,-15.0,-14.0,-7.0,1650917071612647.0
-1.0,1.0,12.0,12.0,-8.0,-2.0,10.0,3.0,1650917071614642.0
2.0,1.0,7.0,9.0,15.0,13.0,-5.0,0.0,1650917071614642.0
2.0,3.0,-1.0,5.0,20.0,16.0,7.0,3.0,1650917071627638.0
2.0,0.0,0.0,5.0,5.0,4.0,-3.0,-1.0,1650917071627638.0
-6.0,1.0,-2.0,-4.0,-12.0,-12.0,-12.0,-3.0,1650917071634735.0
-3.0,-2.0,-12.0,-15.0,-16.0,-17.0,-3.0,-5.0,1650917071634735.0
1.0,-1.0,8.0,3.0,-11.0,-15.0,-7.0,-3.0,1650917071650735.0
-2.0,1.0,-1.0,4.0,2.0,7.0,10.0,3.0,1650917071650735.0
3.0,-1.0,3.0,-6.0,4.0,4.0,-2.0,1.0,1650917071651734.0
1.0,-1.0,-2.0,4.0,6.0,19.0,11.0,3.0,1650917071651734.0
-2.0,-2.0,2.0,-1.0,2.0,8.0,-16.0,0.0,1650917071673232.0
-4.0,2.0,-6.0,-4.0,-12.0,-23.0,12.0,-2.0,1650917071673232.0
1.0,-9.0,-5.0,-2.0,1.0,-11.0,-2.0,0.0,1650917071675118.0
0.0,1.0,7.0,4.0,-1.0,1.0,-2.0,-2.0,1650917071675118.0
-4.0,-1.0,1.0,5.0,3.0,13.0,3.0,1.0,1650917071688026.0
-2.0,-4.0,4.0,1.0,1.0,5.0,-5.0,1.0,1650917071688026.0
2.0,2.0,-6.0,-7.0,-11.0,-13.0,3.0,1.0,1650917071694148.0
-2.0,-1.0,3.0,6.0,4.0,-13.0,-5.0,-4.0,1650917071694148.0
-2.0,-1.0,-8.0,-7.0,9.0,13.0,8.0,2.0,1650917071710466.0
0.0,0.0,1.0,1.0,1.0,4.0,-6.0,-2.0,1650917071710466.0
-3.0,-2.0,-8.0,-10.0,-17.0,-22.0,3.0,-1.0,1650917071712328.0
1.0,1.0,3.0,-3.0,-4.0,4.0,-8.0,-1.0,1650917071712328.0
-1.0,-3.0,0.0,1.0,-1.0,9.0,-4.0,-2.0,1650917071732801.0
-1.0,-2.0,0.0,2.0,10.0,8.0,14.0,4.0,1650917071732801.0
2.0,2.0,-1.0,-2.0,3.0,4.0,-12.0,1.0,1650917071734658.0
-3.0,0.0,0.0,1.0,-9.0,-10.0,16.0,0.0,1650917071734658.0
1.0,1.0,1.0,-1.0,-5.0,-13.0,0.0,-4.0,1650917071747277.0
-1.0,-1.0,-4.0,0.0,0.0,-6.0,-14.0,-2.0,1650917071747277.0
2.0,4.0,1.0,1.0,8.0,12.0,-1.0,-1.0,1650917071755763.0
-3.0,-3.0,4.0,6.0,-3.0,-6.0,-9.0,0.0,1650917071755763.0
0.0,1.0,4.0,3.0,0.0,-1.0,4.0,-1.0,1650917071770891.0
4.0,1.0,4.0,2.0,10.0,7.0,-2.0,1.0,1650917071770891.0
-2.0,0.0,-3.0,-1.0,3.0,1.0,-1.0,-1.0,1650917071771786.0
1.0,-1.0,0.0,-2.0,-3.0,0.0,-7.0,-1.0,1650917071771786.0
-1.0,-1.0,-1.0,2.0,-4.0,-1.0,12.0,1.0,1650917071793160.0
0.0,-1.0,-17.0,-18.0,2.0,-4.0,-9.0,-1.0,1650917071793160.0
-1.0,0.0,2.0,1.0,2.0,-1.0,2.0,0.0,1650917071794157.0
-1.0,-3.0,-3.0,-3.0,-8.0,-10.0,-3.0,-2.0,1650917071794157.0
1.0,0.0,-3.0,-6.0,-1.0,6.0,2.0,-2.0,1650917071807123.0
-2.0,1.0,5.0,7.0,6.0,17.0,-10.0,-3.0,1650917071807123.0
1.0,1.0,-1.0,3.0,9.0,12.0,24.0,5.0,1650917071816235.0
-1.0,4.0,8.0,6.0,-2.0,-1.0,-4.0,-2.0,1650917071816235.0
-1.0,2.0,-8.0,-10.0,-8.0,-21.0,-7.0,-2.0,1650917071830486.0
-3.0,-4.0,-4.0,-6.0,-8.0,-7.0,-8.0,-2.0,1650917071830486.0
1.0,4.0,5.0,6.0,3.0,8.0,0.0,-2.0,1650917071832516.0
1.0,-1.0,0.0,-1.0,3.0,2.0,7.0,4.0,1650917071832516.0
-2.0,-3.0,-4.0,1.0,4.0,3.0,1.0,2.0,1650917071853014.0
-2.0,-1.0,-5.0,-7.0,-2.0,-3.0,-1.0,-3.0,1650917071853014.0
-1.0,-1.0,2.0,-1.0,-7.0,-12.0,-6.0,-1.0,1650917071854900.0
0.0,1.0,-2.0,-1.0,-2.0,0.0,-7.0,-3.0,1650917071854900.0
0.0,-1.0,2.0,-1.0,0.0,8.0,3.0,2.0,1650917071866836.0
-1.0,0.0,2.0,4.0,-2.0,-9.0,2.0,-2.0,1650917071866836.0
0.0,-1.0,2.0,6.0,0.0,-4.0,-7.0,-2.0,1650917071875813.0
3.0,0.0,5.0,2.0,8.0,16.0,-3.0,1.0,1650917071875813.0
-1.0,-2.0,-5.0,-4.0,-3.0,6.0,22.0,3.0,1650917071891171.0
1.0,-2.0,3.0,2.0,-7.0,6.0,1.0,1.0,1650917071891171.0
0.0,1.0,-2.0,-2.0,-6.0,-15.0,-3.0,-2.0,1650917071892171.0
1.0,0.0,1.0,3.0,11.0,8.0,-2.0,0.0,1650917071892171.0
-3.0,-1.0,-3.0,4.0,0.0,0.0,-5.0,0.0,1650917071913157.0
0.0,3.0,1.0,0.0,-3.0,-5.0,1.0,-1.0,1650917071913157.0
-2.0,-5.0,-1.0,-9.0,-7.0,-4.0,-6.0,-2.0,1650917071914157.0
-2.0,2.0,1.0,1.0,-4.0,-9.0,-1.0,0.0,1650917071914157.0
1.0,-1.0,1.0,1.0,-1.0,-1.0,-7.0,-2.0,1650917071927092.0
-2.0,1.0,1.0,4.0,4.0,0.0,13.0,3.0,1650917071927092.0
0.0,-2.0,-3.0,-4.0,-5.0,-5.0,-16.0,-4.0,1650917071936064.0
-2.0,0.0,-7.0,-7.0,3.0,11.0,19.0,2.0,1650917071936064.0
3.0,0.0,6.0,7.0,6.0,5.0,-4.0,-1.0,1650917071950318.0
-1.0,3.0,3.0,2.0,0.0,0.0,-4.0,0.0,1650917071950318.0
3.0,1.0,2.0,0.0,4.0,-1.0,6.0,3.0,1650917071952279.0
-1.0,-5.0,-5.0,-6.0,-10.0,-18.0,-9.0,-2.0,1650917071952279.0
0.0,-1.0,-1.0,-3.0,-5.0,9.0,2.0,-1.0,1650917071973316.0
0.0,-2.0,2.0,-1.0,8.0,11.0,3.0,0.0,1650917071973316.0
-1.0,2.0,4.0,12.0,14.0,18.0,6.0,2.0,1650917071974314.0
-3.0,-2.0,-15.0,-14.0,-5.0,-7.0,-1.0,-1.0,1650917071974314.0
0.0,1.0,3.0,-2.0,-16.0,-22.0,-5.0,-3.0,1650917071986281.0
-3.0,-5.0,2.0,-2.0,-5.0,-13.0,-11.0,-3.0,1650917071986281.0
-1.0,-3.0,-9.0,-6.0,2.0,4.0,1.0,-1.0,1650917071995424.0
0.0,1.0,1.0,5.0,6.0,9.0,-5.0,1.0,1650917071995424.0
0.0,1.0,0.0,1.0,15.0,12.0,13.0,4.0,1650917072011128.0
1.0,-2.0,-1.0,0.0,-9.0,-1.0,-5.0,-3.0,1650917072011128.0
-1.0,1.0,-2.0,-3.0,-1.0,-4.0,-1.0,-3.0,1650917072012299.0
-2.0,-6.0,-5.0,-1.0,-11.0,-11.0,-3.0,-1.0,1650917072012299.0
-2.0,-2.0,1.0,0.0,0.0,-3.0,-5.0,-1.0,1650917072033400.0
-2.0,0.0,0.0,3.0,3.0,-17.0,0.0,-1.0,1650917072033400.0
0.0,0.0,0.0,0.0,-3.0,11.0,-6.0,-3.0,1650917072034398.0
2.0,3.0,-1.0,-2.0,0.0,11.0,3.0,1.0,1650917072034398.0
-1.0,-1.0,-1.0,-1.0,-1.0,-1.0,0.0,1.0,1650917072046465.0
1.0,-1.0,0.0,-2.0,-6.0,-7.0,-9.0,0.0,1650917072046465.0
-1.0,-4.0,-6.0,-4.0,-4.0,-4.0,17.0,3.0,1650917072055432.0
-2.0,0.0,4.0,5.0,13.0,9.0,-1.0,-1.0,1650917072055432.0
-1.0,-1.0,2.0,5.0,2.0,4.0,0.0,-1.0,1650917072070638.0
1.0,3.0,-1.0,-2.0,6.0,6.0,1.0,0.0,1650917072070638.0
0.0,1.0,-1.0,-2.0,-6.0,-7.0,-6.0,-1.0,1650917072072634.0
1.0,1.0,-2.0,-6.0,-9.0,-7.0,-2.0,0.0,1650917072072634.0
0.0,1.0,3.0,2.0,-3.0,-10.0,-5.0,-2.0,1650917072092860.0
0.0,1.0,-2.0,-1.0,-4.0,1.0,1.0,-2.0,1650917072092860.0
1.0,3.0,6.0,7.0,10.0,5.0,3.0,0.0,1650917072094748.0
0.0,-3.0,-2.0,-3.0,0.0,8.0,4.0,0.0,1650917072094748.0
5.0,2.0,-1.0,0.0,-4.0,-3.0,-6.0,-2.0,1650917072107136.0
-6.0,-2.0,-6.0,-4.0,-1.0,-4.0,-7.0,-2.0,1650917072107136.0
0.0,0.0,3.0,0.0,1.0,3.0,8.0,2.0,1650917072116115.0
0.0,2.0,1.0,2.0,-2.0,-1.0,-1.0,-3.0,1650917072116115.0
2.0,1.0,-1.0,0.0,0.0,-2.0,-1.0,0.0,1650917072130388.0
-1.0,-1.0,2.0,2.0,-4.0,1.0,1.0,-1.0,1650917072130388.0
-1.0,0.0,-2.0,-4.0,4.0,1.0,-2.0,0.0,1650917072136500.0
-2.0,-1.0,-3.0,-3.0,-4.0,-11.0,-6.0,-2.0,1650917072136500.0
-2.0,-4.0,1.0,0.0,-14.0,-5.0,-2.0,-1.0,1650917072153456.0
2.0,2.0,-6.0,-9.0,11.0,11.0,1.0,-1.0,1650917072153456.0
-2.0,-3.0,2.0,0.0,0.0,2.0,-2.0,0.0,1650917072154454.0
3.0,4.0,5.0,5.0,3.0,5.0,7.0,1.0,1650917072154454.0
-1.0,2.0,2.0,6.0,12.0,-1.0,5.0,3.0,1650917072175791.0
2.0,0.0,0.0,2.0,-1.0,10.0,0.0,0.0,1650917072175791.0
-6.0,-9.0,-8.0,-8.0,-6.0,2.0,-7.0,-1.0,1650917072177624.0
-3.0,-1.0,-4.0,-4.0,-8.0,-17.0,-7.0,-6.0,1650917072177624.0
-1.0,1.0,2.0,-2.0,-4.0,-9.0,-3.0,-3.0,1650917072190925.0
1.0,-4.0,-8.0,-2.0,-4.0,-13.0,2.0,1.0,1650917072190925.0
2.0,2.0,4.0,12.0,4.0,6.0,-2.0,-4.0,1650917072191761.0
-1.0,-2.0,-11.0,-20.0,1.0,12.0,0.0,1.0,1650917072191761.0
-5.0,-1.0,0.0,-3.0,6.0,12.0,1.0,-1.0,1650917072213240.0
-2.0,0.0,6.0,2.0,1.0,-10.0,2.0,-2.0,1650917072213240.0
1.0,-3.0,-2.0,-2.0,-6.0,-4.0,-5.0,1.0,1650917072215109.0
0.0,0.0,5.0,9.0,-3.0,-5.0,-2.0,1.0,1650917072215109.0
2.0,4.0,6.0,-4.0,9.0,10.0,2.0,1.0,1650917072235596.0
-3.0,-6.0,-9.0,-3.0,-9.0,-14.0,-1.0,-3.0,1650917072235596.0
-3.0,-3.0,2.0,8.0,6.0,3.0,-3.0,-2.0,1650917072237622.0
0.0,0.0,4.0,6.0,-2.0,4.0,0.0,3.0,1650917072237622.0
-3.0,0.0,-10.0,-17.0,-7.0,-2.0,-2.0,-15.0,1650917072250024.0
-2.0,-6.0,4.0,2.0,1.0,0.0,0.0,1.0,1650917072250024.0
2.0,8.0,-2.0,-2.0,-5.0,-8.0,2.0,5.0,1650917072258181.0
1.0,-3.0,7.0,6.0,9.0,0.0,1.0,1.0,1650917072258181.0
-2.0,-12.0,-6.0,2.0,1.0,1.0,-7.0,-10.0,1650917072273202.0
1.0,13.0,1.0,-6.0,-11.0,-8.0,-2.0,-1.0,1650917072273202.0
-1.0,0.0,-5.0,-3.0,3.0,4.0,0.0,-3.0,1650917072275067.0
3.0,5.0,5.0,0.0,7.0,8.0,4.0,15.0,1650917072275067.0
2.0,6.0,2.0,7.0,-1.0,-3.0,1.0,2.0,1650917072296482.0
0.0,-5.0,-5.0,-6.0,-4.0,-3.0,0.0,-6.0,1650917072296482.0
-2.0,-2.0,-1.0,-2.0,-12.0,-15.0,-4.0,-1.0,1650917072297354.0
-4.0,1.0,-6.0,-4.0,5.0,12.0,-2.0,-2.0,1650917072297354.0
1.0,-4.0,4.0,0.0,-4.0,2.0,4.0,17.0,1650917072310526.0
2.0,3.0,1.0,9.0,-3.0,4.0,-1.0,-1.0,1650917072310526.0
3.0,10.0,-1.0,-9.0,7.0,9.0,-2.0,-37.0,1650917072316817.0
-12.0,-15.0,-8.0,-4.0,-7.0,-13.0,-8.0,-4.0,1650917072316817.0
-5.0,-21.0,-6.0,-1.0,-13.0,-18.0,-3.0,6.0,1650917072333134.0
8.0,5.0,4.0,2.0,6.0,12.0,5.0,18.0,1650917072333134.0
2.0,4.0,1.0,0.0,-6.0,-2.0,2.0,17.0,1650917072335003.0
-4.0,9.0,6.0,15.0,4.0,-1.0,-7.0,-38.0,1650917072335003.0
2.0,11.0,1.0,-15.0,4.0,11.0,3.0,1.0,1650917072355239.0
3.0,4.0,3.0,0.0,-4.0,-8.0,-1.0,6.0,1650917072355239.0
-5.0,-21.0,-14.0,-13.0,-6.0,-12.0,-1.0,4.0,1650917072357069.0
-1.0,-7.0,-1.0,4.0,-4.0,-4.0,-1.0,8.0,1650917072357069.0
3.0,3.0,4.0,1.0,-1.0,3.0,1.0,-2.0,1650917072370010.0
1.0,18.0,13.0,15.0,7.0,3.0,3.0,-11.0,1650917072370010.0
5.0,15.0,-1.0,2.0,13.0,22.0,2.0,7.0,1650917072376991.0
12.0,5.0,2.0,-11.0,-11.0,-5.0,4.0,15.0,1650917072376991.0
-18.0,-13.0,1.0,10.0,3.0,-6.0,-1.0,-2.0,1650917072394265.0
-3.0,-2.0,-4.0,-14.0,1.0,1.0,1.0,-2.0,1650917072394265.0
-7.0,-12.0,0.0,7.0,-9.0,-23.0,-11.0,-21.0,1650917072395154.0
2.0,4.0,-1.0,5.0,-5.0,0.0,2.0,6.0,1650917072395154.0
44.0,48.0,10.0,12.0,27.0,32.0,9.0,24.0,1650917072416553.0
-6.0,-18.0,0.0,-14.0,-12.0,0.0,-1.0,-2.0,1650917072416553.0
-37.0,-6.0,-19.0,-15.0,7.0,-4.0,-4.0,-3.0,1650917072417400.0
-30.0,-54.0,-2.0,2.0,-8.0,-10.0,-6.0,-11.0,1650917072417400.0
19.0,7.0,12.0,7.0,-11.0,-11.0,0.0,18.0,1650917072430577.0
24.0,67.0,17.0,31.0,-4.0,-6.0,-4.0,-3.0,1650917072430577.0
28.0,12.0,-23.0,-20.0,8.0,11.0,7.0,8.0,1650917072436724.0
-27.0,-61.0,-15.0,-20.0,21.0,10.0,5.0,-5.0,1650917072436724.0
-54.0,-66.0,5.0,29.0,9.0,0.0,-10.0,-22.0,1650917072453519.0
12.0,-23.0,-4.0,-11.0,-13.0,11.0,5.0,-1.0,1650917072453519.0
48.0,19.0,14.0,0.0,-11.0,-13.0,-3.0,25.0,1650917072454519.0
-7.0,4.0,-6.0,-7.0,-21.0,-9.0,14.0,4.0,1650917072454519.0
-29.0,4.0,3.0,-6.0,8.0,-1.0,-16.0,-47.0,1650917072475863.0
11.0,-6.0,5.0,0.0,7.0,9.0,13.0,14.0,1650917072475863.0
4.0,22.0,-4.0,11.0,14.0,3.0,-4.0,8.0,1650917072476736.0
0.0,-14.0,-5.0,-4.0,-10.0,1.0,6.0,-12.0,1650917072476736.0
16.0,3.0,-8.0,4.0,-23.0,-30.0,-14.0,10.0,1650917072490845.0
-39.0,12.0,-27.0,-34.0,9.0,13.0,-8.0,-48.0,1650917072490845.0
-28.0,-84.0,7.0,0.0,-9.0,-14.0,-6.0,-1.0,1650917072497163.0
12.0,42.0,17.0,9.0,-1.0,5.0,0.0,15.0,1650917072497163.0
11.0,27.0,23.0,-15.0,-11.0,11.0,14.0,-5.0,1650917072513500.0
-9.0,-3.0,-14.0,33.0,27.0,-3.0,0.0,-6.0,1650917072513500.0
10.0,37.0,1.0,-18.0,-6.0,19.0,13.0,-11.0,1650917072514335.0
-24.0,-45.0,-11.0,-10.0,-8.0,-28.0,-21.0,6.0,1650917072514335.0
5.0,13.0,0.0,8.0,-20.0,-7.0,-6.0,-19.0,1650917072535796.0
15.0,7.0,-4.0,-13.0,7.0,4.0,-4.0,17.0,1650917072535796.0
7.0,36.0,18.0,11.0,4.0,2.0,4.0,8.0,1650917072537659.0
26.0,33.0,14.0,28.0,6.0,4.0,14.0,1.0,1650917072537659.0
-3.0,7.0,-1.0,3.0,4.0,2.0,-4.0,-6.0,1650917072550065.0
-41.0,-14.0,-14.0,-10.0,6.0,-2.0,-4.0,11.0,1650917072550065.0
-15.0,-56.0,-7.0,1.0,10.0,0.0,-10.0,4.0,1650917072556948.0
17.0,47.0,1.0,13.0,0.0,-7.0,-17.0,-29.0,1650917072556948.0
1.0,56.0,-45.0,-27.0,6.0,-2.0,-9.0,5.0,1650917072572992.0
3.0,-71.0,16.0,-10.0,-12.0,0.0,13.0,38.0,1650917072572992.0
-28.0,-21.0,-7.0,-4.0,-14.0,-7.0,-5.0,-5.0,1650917072574986.0
23.0,62.0,17.0,-4.0,5.0,17.0,33.0,49.0,1650917072574986.0
-33.0,-78.0,-22.0,5.0,11.0,-8.0,-31.0,-48.0,1650917072595316.0
27.0,70.0,9.0,0.0,-32.0,-24.0,-19.0,-23.0,1650917072595316.0
10.0,83.0,6.0,-14.0,-8.0,-8.0,0.0,-1.0,1650917072597346.0
-44.0,-79.0,-19.0,1.0,-22.0,3.0,-1.0,4.0,1650917072597346.0
37.0,38.0,0.0,-26.0,1.0,26.0,18.0,34.0,1650917072610508.0
-5.0,4.0,-4.0,-4.0,25.0,17.0,9.0,10.0,1650917072610508.0
7.0,27.0,13.0,24.0,-5.0,2.0,3.0,6.0,1650917072616691.0
26.0,15.0,-3.0,-9.0,2.0,-5.0,-5.0,-34.0,1650917072616691.0
-41.0,41.0,26.0,-5.0,-9.0,-15.0,0.0,-2.0,1650917072633680.0
11.0,-111.0,-30.0,-5.0,-16.0,-4.0,-6.0,-11.0,1650917072633680.0
14.0,-42.0,16.0,22.0,23.0,12.0,10.0,2.0,1650917072634709.0
-26.0,32.0,-5.0,8.0,10.0,-1.0,-12.0,4.0,1650917072634709.0
12.0,-11.0,-8.0,-17.0,7.0,0.0,10.0,21.0,1650917072655982.0
0.0,-20.0,5.0,1.0,4.0,-2.0,-2.0,4.0,1650917072655982.0
-29.0,-21.0,21.0,20.0,-5.0,-5.0,-17.0,-28.0,1650917072656979.0
64.0,22.0,12.0,18.0,5.0,0.0,12.0,15.0,1650917072656979.0
-5.0,-81.0,-27.0,-22.0,-18.0,0.0,6.0,1.0,1650917072679959.0
-21.0,-5.0,5.0,4.0,-16.0,-14.0,-10.0,6.0,1650917072679959.0
2.0,27.0,-11.0,-7.0,-8.0,-15.0,-8.0,-12.0,1650917072680914.0
-21.0,-55.0,-2.0,-4.0,-2.0,6.0,-21.0,8.0,1650917072680914.0
46.0,80.0,7.0,14.0,23.0,18.0,38.0,6.0,1650917072693213.0
-6.0,37.0,-3.0,-12.0,11.0,7.0,4.0,-1.0,1650917072693213.0
-26.0,-103.0,-24.0,21.0,30.0,22.0,1.0,22.0,1650917072695098.0
-3.0,47.0,-10.0,-24.0,9.0,-15.0,-25.0,-22.0,1650917072695098.0
11.0,-57.0,-1.0,14.0,-30.0,-21.0,-12.0,-15.0,1650917072723409.0
12.0,35.0,15.0,8.0,-11.0,-14.0,14.0,23.0,1650917072723409.0
15.0,52.0,-2.0,-13.0,18.0,31.0,22.0,23.0,1650917072724437.0
5.0,12.0,-4.0,-15.0,-13.0,-6.0,8.0,-8.0,1650917072724437.0
-23.0,-50.0,-12.0,11.0,15.0,6.0,-6.0,-1.0,1650917072729424.0
9.0,4.0,46.0,19.0,2.0,14.0,15.0,11.0,1650917072729424.0
9.0,46.0,6.0,-10.0,15.0,5.0,15.0,1.0,1650917072738369.0
-3.0,-71.0,-9.0,4.0,2.0,-1.0,-9.0,-2.0,1650917072738369.0
7.0,100.0,7.0,-10.0,-23.0,-17.0,-11.0,-6.0,1650917072753548.0
-31.0,-56.0,-25.0,-11.0,-14.0,-16.0,-27.0,-41.0,1650917072753548.0
32.0,49.0,19.0,32.0,-3.0,-9.0,7.0,15.0,1650917072754549.0
28.0,27.0,6.0,-16.0,26.0,16.0,26.0,23.0,1650917072754549.0
9.0,2.0,-6.0,-13.0,-33.0,-17.0,-19.0,5.0,1650917072775847.0
-7.0,35.0,2.0,13.0,-6.0,5.0,-1.0,6.0,1650917072775847.0
20.0,80.0,2.0,-35.0,27.0,42.0,6.0,-28.0,1650917072776847.0
-44.0,-51.0,-11.0,-2.0,-31.0,-10.0,-12.0,-19.0,1650917072776847.0
-5.0,-72.0,12.0,19.0,7.0,-18.0,-8.0,-24.0,1650917072789214.0
16.0,8.0,-20.0,-25.0,13.0,2.0,19.0,55.0,1650917072789214.0
-7.0,-38.0,-14.0,-13.0,-25.0,-18.0,-7.0,8.0,1650917072798123.0
26.0,69.0,23.0,27.0,-1.0,-3.0,4.0,-8.0,1650917072798123.0
-9.0,-65.0,-19.0,-6.0,24.0,4.0,7.0,47.0,1650917072813303.0
-35.0,-53.0,-13.0,-29.0,-24.0,5.0,-12.0,-62.0,1650917072813303.0
-30.0,-8.0,-2.0,15.0,-17.0,-24.0,-29.0,-42.0,1650917072814330.0
5.0,31.0,10.0,0.0,17.0,5.0,1.0,0.0,1650917072814330.0
10.0,16.0,1.0,-9.0,-16.0,-9.0,0.0,18.0,1650917072835662.0
16.0,23.0,28.0,49.0,30.0,0.0,11.0,0.0,1650917072835662.0
39.0,32.0,7.0,7.0,-9.0,5.0,2.0,7.0,1650917072837660.0
-51.0,-16.0,-14.0,3.0,19.0,1.0,-12.0,-14.0,1650917072837660.0
-14.0,31.0,8.0,-11.0,3.0,14.0,13.0,-38.0,1650917072850039.0
0.0,-7.0,-21.0,7.0,-19.0,-32.0,-23.0,19.0,1650917072850039.0
-11.0,18.0,11.0,-7.0,-38.0,-16.0,1.0,-42.0,1650917072859000.0
61.0,31.0,15.0,-24.0,-14.0,15.0,27.0,41.0,1650917072859000.0
-13.0,-1.0,15.0,34.0,53.0,22.0,1.0,7.0,1650917072873188.0
-34.0,21.0,-26.0,-46.0,-3.0,16.0,0.0,-1.0,1650917072873188.0
-7.0,-44.0,2.0,12.0,-4.0,-15.0,-8.0,-8.0,1650917072874217.0
13.0,0.0,-5.0,-9.0,-11.0,-17.0,-24.0,-12.0,1650917072874217.0
-26.0,-14.0,-14.0,0.0,3.0,4.0,8.0,1.0,1650917072896528.0
8.0,9.0,-4.0,-3.0,0.0,6.0,-17.0,-39.0,1650917072896528.0
-11.0,-83.0,-4.0,25.0,10.0,-1.0,12.0,22.0,1650917072897408.0
7.0,21.0,5.0,-18.0,15.0,21.0,23.0,21.0,1650917072897408.0
38.0,59.0,3.0,24.0,-15.0,-18.0,-28.0,-14.0,1650917072910397.0
-30.0,-42.0,3.0,-14.0,-28.0,-11.0,7.0,-3.0,1650917072910397.0
-6.0,0.0,-21.0,-22.0,12.0,0.0,18.0,19.0,1650917072917949.0
0.0,-26.0,1.0,46.0,16.0,0.0,-5.0,-19.0,1650917072917949.0
15.0,29.0,7.0,-3.0,17.0,18.0,14.0,36.0,1650917072933294.0
46.0,64.0,19.0,36.0,-30.0,-13.0,5.0,22.0,1650917072933294.0
-17.0,-58.0,-20.0,-44.0,23.0,6.0,-10.0,-21.0,1650917072935156.0
-2.0,-45.0,-26.0,-11.0,-18.0,-14.0,2.0,9.0,1650917072935156.0
-29.0,23.0,-1.0,-14.0,-2.0,-6.0,-7.0,-6.0,1650917072956381.0
-9.0,14.0,2.0,5.0,-2.0,-8.0,-1.0,8.0,1650917072956381.0
-36.0,-48.0,5.0,5.0,1.0,-5.0,-25.0,-64.0,1650917072957221.0
31.0,57.0,-20.0,-8.0,-16.0,-7.0,-21.0,-3.0,1650917072957221.0
6.0,18.0,35.0,35.0,46.0,21.0,43.0,12.0,1650917072970277.0
-2.0,-40.0,-7.0,0.0,18.0,15.0,2.0,-7.0,1650917072970277.0
41.0,78.0,53.0,36.0,-15.0,-3.0,6.0,65.0,1650917072978438.0
2.0,-25.0,-1.0,-14.0,-12.0,-4.0,-7.0,-25.0,1650917072978438.0
-52.0,-93.0,-29.0,-2.0,8.0,6.0,-14.0,3.0,1650917072993869.0
-13.0,9.0,-10.0,-14.0,-5.0,-5.0,-7.0,-23.0,1650917072993869.0
24.0,-23.0,-2.0,-11.0,-14.0,-9.0,-3.0,18.0,1650917072994710.0
-48.0,16.0,-3.0,16.0,20.0,11.0,-13.0,-9.0,1650917072994710.0
48.0,26.0,11.0,8.0,-40.0,-12.0,35.0,34.0,1650917073015667.0
-8.0,21.0,-18.0,-28.0,17.0,-5.0,-3.0,-13.0,1650917073015667.0
-20.0,-3.0,-1.0,28.0,-42.0,-31.0,-58.0,-73.0,1650917073017520.0
-12.0,1.0,6.0,-42.0,34.0,26.0,15.0,53.0,1650917073017520.0
32.0,16.0,1.0,10.0,11.0,3.0,-15.0,-42.0,1650917073029722.0
-8.0,-39.0,22.0,6.0,14.0,16.0,19.0,24.0,1650917073029722.0
10.0,66.0,-17.0,-25.0,-4.0,21.0,19.0,4.0,1650917073038910.0
-16.0,-7.0,20.0,25.0,-22.0,-45.0,-30.0,-64.0,1650917073038910.0
-50.0,-10.0,-37.0,-32.0,-19.0,-2.0,14.0,32.0,1650917073054095.0
26.0,-29.0,3.0,21.0,12.0,16.0,-17.0,-27.0,1650917073054095.0
-9.0,-1.0,-4.0,-6.0,38.0,28.0,21.0,37.0,1650917073054935.0
-6.0,-32.0,-4.0,9.0,-4.0,5.0,11.0,-14.0,1650917073054935.0
26.0,52.0,17.0,-16.0,-24.0,-26.0,-32.0,-22.0,1650917073076050.0
-11.0,43.0,5.0,27.0,7.0,-10.0,5.0,10.0,1650917073076050.0
-18.0,-48.0,-20.0,-5.0,-12.0,-1.0,13.0,15.0,1650917073077047.0
15.0,17.0,-4.0,6.0,23.0,28.0,12.0,10.0,1650917073077047.0
-36.0,-34.0,1.0,-22.0,-44.0,-12.0,2.0,-12.0,1650917073088818.0
4.0,-15.0,-32.0,-9.0,41.0,12.0,2.0,7.0,1650917073088818.0
27.0,48.0,27.0,8.0,1.0,-18.0,9.0,12.0,1650917073098047.0
25.0,8.0,7.0,-22.0,-40.0,-11.0,25.0,45.0,1650917073098047.0
3.0,33.0,7.0,0.0,38.0,18.0,-55.0,-76.0,1650917073113355.0
-12.0,-71.0,4.0,24.0,28.0,14.0,1.0,25.0,1650917073113355.0
-25.0,25.0,-23.0,-15.0,-13.0,9.0,27.0,-19.0,1650917073114245.0
-24.0,-6.0,4.0,24.0,1.0,-31.0,-23.0,1.0,1650917073114245.0
6.0,-10.0,-15.0,-32.0,-25.0,-4.0,7.0,-5.0,1650917073135501.0
16.0,8.0,16.0,24.0,18.0,1.0,-1.0,-9.0,1650917073135501.0
2.0,-36.0,-1.0,31.0,-4.0,-17.0,-7.0,17.0,1650917073137530.0
2.0,16.0,5.0,-11.0,28.0,28.0,8.0,-9.0,1650917073137530.0
-1.0,-3.0,-9.0,-20.0,-4.0,-7.0,-12.0,-18.0,1650917073158676.0
16.0,42.0,17.0,1.0,-43.0,-5.0,13.0,21.0,1650917073158676.0
-9.0,-51.0,-9.0,-18.0,17.0,3.0,-3.0,7.0,1650917073159676.0
-17.0,-11.0,-7.0,9.0,-10.0,-13.0,-24.0,-16.0,1650917073159676.0
12.0,1.0,14.0,9.0,-16.0,-21.0,6.0,-22.0,1650917073172675.0
-1.0,-13.0,-9.0,-14.0,0.0,9.0,5.0,11.0,1650917073172675.0
11.0,17.0,3.0,17.0,36.0,4.0,-29.0,-3.0,1650917073174636.0
6.0,7.0,-23.0,-37.0,-56.0,-23.0,-10.0,-16.0,1650917073174636.0
-20.0,-15.0,7.0,18.0,36.0,29.0,-7.0,-24.0,1650917073195886.0
-13.0,29.0,-26.0,-22.0,12.0,-3.0,-13.0,-1.0,1650917073195886.0
12.0,13.0,5.0,5.0,21.0,17.0,26.0,24.0,1650917073196776.0
-46.0,-30.0,-3.0,21.0,13.0,-9.0,-17.0,-41.0,1650917073196776.0
7.0,-63.0,3.0,23.0,-41.0,-22.0,5.0,35.0,1650917073218674.0
15.0,27.0,12.0,-16.0,-16.0,-4.0,6.0,-35.0,1650917073218674.0
-10.0,-6.0,-17.0,-61.0,-25.0,2.0,-9.0,14.0,1650917073219686.0
17.0,13.0,-1.0,4.0,4.0,-3.0,7.0,13.0,1650917073219686.0
25.0,30.0,10.0,4.0,44.0,23.0,22.0,23.0,1650917073232958.0
-6.0,10.0,6.0,-6.0,-6.0,-2.0,-5.0,8.0,1650917073232958.0
-12.0,-8.0,5.0,24.0,-6.0,2.0,1.0,-12.0,1650917073234814.0
5.0,-7.0,32.0,5.0,-16.0,-7.0,12.0,33.0,1650917073234814.0
4.0,-8.0,-23.0,2.0,4.0,-5.0,23.0,-7.0,1650917073256064.0
25.0,22.0,-14.0,-5.0,-2.0,0.0,-11.0,24.0,1650917073256064.0
20.0,-18.0,15.0,-10.0,-15.0,3.0,20.0,20.0,1650917073256921.0
-22.0,-14.0,-24.0,2.0,25.0,9.0,-17.0,-39.0,1650917073256921.0
14.0,8.0,2.0,13.0,-12.0,-14.0,-1.0,64.0,1650917073278654.0
-8.0,-33.0,0.0,-32.0,-8.0,-16.0,-29.0,-44.0,1650917073278654.0
4.0,82.0,-11.0,4.0,-36.0,4.0,70.0,85.0,1650917073279655.0
35.0,4.0,7.0,31.0,-32.0,-25.0,17.0,49.0,1650917073279655.0
-21.0,5.0,-31.0,-34.0,71.0,17.0,-25.0,-31.0,1650917073292934.0
-29.0,-85.0,-11.0,7.0,8.0,5.0,6.0,42.0,1650917073292934.0
-14.0,52.0,14.0,17.0,24.0,28.0,-28.0,-51.0,1650917073299766.0
1.0,-19.0,-3.0,-30.0,8.0,36.0,28.0,-2.0,1650917073299766.0
9.0,29.0,21.0,32.0,30.0,-13.0,7.0,15.0,1650917073316028.0
25.0,48.0,27.0,6.0,-35.0,-28.0,3.0,-3.0,1650917073316028.0
-13.0,-50.0,-31.0,-24.0,1.0,-22.0,-47.0,-50.0,1650917073317028.0
-12.0,7.0,-3.0,7.0,-6.0,-6.0,5.0,-6.0,1650917073317028.0
12.0,14.0,21.0,22.0,-24.0,0.0,5.0,17.0,1650917073338539.0
-10.0,29.0,1.0,-11.0,11.0,-3.0,-9.0,-23.0,1650917073338539.0
9.0,-64.0,-3.0,-35.0,-35.0,-2.0,11.0,6.0,1650917073339537.0
19.0,18.0,7.0,22.0,21.0,23.0,22.0,36.0,1650917073339537.0
3.0,41.0,-10.0,-33.0,-42.0,-2.0,16.0,25.0,1650917073352711.0
9.0,-1.0,0.0,20.0,-7.0,-24.0,-21.0,-21.0,1650917073352711.0
-27.0,-19.0,-4.0,17.0,-49.0,-85.0,-31.0,20.0,1650917073359579.0
-5.0,-19.0,-14.0,-31.0,57.0,26.0,-29.0,-42.0,1650917073359579.0
-17.0,-33.0,5.0,19.0,8.0,56.0,15.0,15.0,1650917073375735.0
22.0,31.0,-11.0,-27.0,35.0,42.0,40.0,-9.0,1650917073375735.0
-4.0,9.0,6.0,24.0,-22.0,-5.0,-11.0,-6.0,1650917073376707.0
19.0,82.0,21.0,2.0,-6.0,-4.0,-1.0,-45.0,1650917073376707.0
6.0,51.0,14.0,6.0,-18.0,-26.0,9.0,61.0,1650917073398568.0
-55.0,-17.0,-27.0,-37.0,8.0,-7.0,-18.0,-12.0,1650917073398568.0
-22.0,-22.0,-12.0,1.0,1.0,-17.0,-10.0,-23.0,1650917073399569.0
-10.0,-19.0,21.0,-7.0,-34.0,-7.0,-4.0,24.0,1650917073399569.0
18.0,-4.0,2.0,24.0,18.0,19.0,2.0,-23.0,1650917073411855.0
26.0,47.0,1.0,13.0,-4.0,2.0,8.0,20.0,1650917073411855.0
14.0,10.0,24.0,-10.0,14.0,4.0,-4.0,-4.0,1650917073420721.0
-11.0,-31.0,-2.0,17.0,-3.0,-10.0,-6.0,-20.0,1650917073420721.0
23.0,-11.0,13.0,-1.0,-19.0,-13.0,-3.0,1.0,1650917073434132.0
-4.0,-23.0,14.0,18.0,2.0,4.0,-14.0,-13.0,1650917073434132.0
25.0,52.0,3.0,-8.0,-18.0,-19.0,-10.0,-33.0,1650917073443274.0
-23.0,-74.0,-14.0,27.0,50.0,10.0,-1.0,8.0,1650917073443274.0
3.0,-14.0,17.0,0.0,2.0,5.0,-6.0,-17.0,1650917073458614.0
-57.0,-19.0,-13.0,-17.0,-4.0,7.0,8.0,4.0,1650917073458614.0
47.0,45.0,15.0,26.0,63.0,60.0,18.0,27.0,1650917073459616.0
12.0,24.0,21.0,2.0,32.0,20.0,11.0,-7.0,1650917073459616.0
-13.0,-35.0,-27.0,-16.0,9.0,0.0,3.0,46.0,1650917073472891.0
2.0,41.0,0.0,40.0,-29.0,-30.0,-20.0,-45.0,1650917073472891.0
-12.0,-57.0,-26.0,-35.0,24.0,11.0,3.0,-10.0,1650917073479773.0
-10.0,9.0,38.0,-11.0,-29.0,-20.0,-16.0,-4.0,1650917073479773.0
-7.0,-7.0,-25.0,-3.0,-10.0,-2.0,1.0,9.0,1650917073495652.0
11.0,-1.0,-10.0,-2.0,-14.0,2.0,10.0,-36.0,1650917073495652.0
9.0,-5.0,15.0,25.0,11.0,10.0,18.0,37.0,1650917073497649.0
18.0,71.0,0.0,-5.0,-11.0,-12.0,-3.0,29.0,1650917073497649.0
-23.0,-10.0,-16.0,-21.0,-1.0,6.0,-28.0,-25.0,1650917073518237.0
-3.0,-51.0,2.0,11.0,-8.0,-13.0,15.0,-31.0,1650917073518237.0
28.0,69.0,-5.0,-22.0,-37.0,-34.0,-9.0,34.0,1650917073520099.0
-43.0,-67.0,-41.0,-15.0,-12.0,-20.0,-5.0,32.0,1650917073520099.0
-22.0,17.0,11.0,11.0,7.0,-13.0,-60.0,-59.0,1650917073532386.0
34.0,10.0,26.0,43.0,63.0,95.0,109.0,39.0,1650917073532386.0
-15.0,-10.0,12.0,18.0,25.0,20.0,-7.0,-68.0,1650917073539357.0
36.0,47.0,2.0,-25.0,-14.0,-2.0,13.0,46.0,1650917073539357.0
5.0,-17.0,-19.0,-23.0,-31.0,-18.0,-17.0,2.0,1650917073556112.0
3.0,-24.0,7.0,-17.0,-1.0,-12.0,-35.0,10.0,1650917073556112.0
-7.0,-17.0,-38.0,-24.0,-17.0,-8.0,2.0,-12.0,1650917073557024.0
-4.0,-13.0,16.0,24.0,-13.0,-4.0,0.0,-6.0,1650917073557024.0
-11.0,-32.0,-26.0,-29.0,-23.0,-11.0,13.0,-14.0,1650917073578616.0
10.0,15.0,15.0,8.0,-10.0,-28.0,-36.0,14.0,1650917073578616.0
-16.0,-4.0,5.0,4.0,4.0,2.0,17.0,0.0,1650917073579617.0
3.0,5.0,-18.0,-5.0,5.0,8.0,-5.0,0.0,1650917073579617.0
2.0,-10.0,7.0,2.0,10.0,0.0,-11.0,-25.0,1650917073592916.0
8.0,24.0,-2.0,-10.0,-20.0,-16.0,18.0,37.0,1650917073592916.0
-1.0,-11.0,-1.0,-2.0,-12.0,-11.0,-45.0,-20.0,1650917073599769.0
-6.0,-15.0,-9.0,-1.0,12.0,36.0,53.0,-26.0,1650917073599769.0
-5.0,21.0,17.0,24.0,41.0,39.0,42.0,-8.0,1650917073615934.0
14.0,4.0,2.0,16.0,17.0,9.0,-13.0,33.0,1650917073615934.0
-17.0,-22.0,-19.0,-21.0,-5.0,-16.0,-21.0,-3.0,1650917073616898.0
-2.0,-2.0,22.0,-2.0,-28.0,-17.0,-8.0,-20.0,1650917073616898.0
-2.0,-8.0,-22.0,-6.0,-16.0,-23.0,-5.0,12.0,1650917073638126.0
-3.0,4.0,-17.0,-5.0,13.0,-7.0,-12.0,-7.0,1650917073638126.0
-12.0,-36.0,-17.0,-5.0,20.0,23.0,8.0,8.0,1650917073640121.0
3.0,14.0,-6.0,-18.0,-10.0,-1.0,-12.0,-3.0,1650917073640121.0
-1.0,6.0,30.0,18.0,-19.0,-39.0,-10.0,-1.0,1650917073652089.0
-8.0,-9.0,-27.0,-39.0,-20.0,12.0,6.0,-6.0,1650917073652089.0
9.0,0.0,13.0,26.0,19.0,24.0,16.0,12.0,1650917073661092.0
3.0,2.0,6.0,22.0,35.0,13.0,6.0,5.0,1650917073661092.0
-3.0,-9.0,-12.0,-1.0,0.0,-3.0,3.0,-1.0,1650917073675365.0
4.0,6.0,7.0,-3.0,-16.0,-18.0,-9.0,0.0,1650917073675365.0
-14.0,-3.0,4.0,1.0,-18.0,-10.0,4.0,-1.0,1650917073677363.0
-3.0,-8.0,-28.0,-4.0,-12.0,-15.0,-26.0,-15.0,1650917073677363.0
-3.0,4.0,3.0,-7.0,-4.0,-3.0,-20.0,-5.0,1650917073698651.0
5.0,-3.0,2.0,-15.0,-1.0,-1.0,24.0,21.0,1650917073698651.0
13.0,10.0,9.0,3.0,10.0,19.0,33.0,17.0,1650917073699651.0
-4.0,-2.0,5.0,8.0,8.0,8.0,4.0,-6.0,1650917073699651.0
1.0,0.0,-5.0,-9.0,-2.0,-12.0,5.0,-4.0,1650917073711677.0
-3.0,-8.0,-8.0,-5.0,-16.0,-10.0,-39.0,-2.0,1650917073711677.0
-9.0,-7.0,15.0,15.0,1.0,-1.0,-1.0,5.0,1650917073720683.0
2.0,-2.0,-14.0,3.0,8.0,9.0,11.0,-14.0,1650917073720683.0
4.0,3.0,-14.0,-41.0,-1.0,9.0,-5.0,5.0,1650917073743130.0
-2.0,1.0,9.0,9.0,-2.0,-14.0,-1.0,-6.0,1650917073743130.0
-2.0,2.0,3.0,6.0,2.0,8.0,-3.0,1.0,1650917073744985.0
1.0,4.0,8.0,12.0,7.0,7.0,-5.0,5.0,1650917073744985.0
0.0,2.0,3.0,0.0,-4.0,1.0,9.0,-2.0,1650917073758652.0
0.0,2.0,10.0,13.0,-6.0,-15.0,-7.0,-3.0,1650917073758652.0
-4.0,1.0,-4.0,-9.0,-12.0,-5.0,-3.0,-8.0,1650917073759652.0
-4.0,-5.0,-5.0,-4.0,-7.0,-12.0,-13.0,2.0,1650917073759652.0
2.0,0.0,7.0,-2.0,12.0,19.0,15.0,4.0,1650917073772259.0
1.0,-3.0,-12.0,-3.0,1.0,-2.0,-14.0,-6.0,1650917073772259.0
0.0,-1.0,-2.0,6.0,-3.0,-6.0,24.0,13.0,1650917073780449.0
-4.0,1.0,4.0,-20.0,-9.0,-2.0,-23.0,-16.0,1650917073780449.0
2.0,-3.0,4.0,1.0,4.0,-3.0,18.0,6.0,1650917073796005.0
0.0,6.0,8.0,14.0,5.0,10.0,-1.0,-4.0,1650917073796005.0
-3.0,-2.0,0.0,9.0,8.0,0.0,-13.0,-5.0,1650917073796866.0
1.0,-2.0,-5.0,3.0,-3.0,-12.0,-19.0,7.0,1650917073796866.0
5.0,0.0,-9.0,-1.0,-12.0,5.0,36.0,-5.0,1650917073818669.0
-1.0,4.0,13.0,2.0,7.0,0.0,-6.0,-2.0,1650917073818669.0
-4.0,-3.0,-10.0,-32.0,-13.0,4.0,5.0,3.0,1650917073819683.0
1.0,0.0,-10.0,10.0,15.0,-1.0,3.0,8.0,1650917073819683.0
-6.0,-6.0,4.0,9.0,-10.0,-33.0,-23.0,-4.0,1650917073831838.0
0.0,-2.0,1.0,2.0,-5.0,30.0,8.0,-2.0,1650917073831838.0
0.0,3.0,-2.0,-16.0,7.0,13.0,-11.0,-6.0,1650917073840840.0
2.0,2.0,10.0,14.0,13.0,13.0,29.0,8.0,1650917073840840.0
4.0,2.0,-3.0,-6.0,-7.0,1.0,0.0,3.0,1650917073855997.0
-3.0,-3.0,-7.0,0.0,-9.0,-19.0,1.0,-1.0,1650917073855997.0
-3.0,-9.0,0.0,5.0,-3.0,-13.0,-22.0,-6.0,1650917073856861.0
2.0,3.0,10.0,-4.0,1.0,3.0,-3.0,2.0,1650917073856861.0
-2.0,-1.0,2.0,-11.0,-13.0,-4.0,0.0,0.0,1650917073878575.0
-2.0,-4.0,-7.0,-19.0,-5.0,-1.0,5.0,0.0,1650917073878575.0
-3.0,4.0,2.0,-3.0,2.0,1.0,-5.0,-3.0,1650917073879323.0
0.0,0.0,-7.0,7.0,-5.0,-11.0,-12.0,2.0,1650917073879323.0
0.0,-1.0,10.0,32.0,17.0,13.0,11.0,2.0,1650917073901604.0
-6.0,1.0,-2.0,-19.0,-4.0,2.0,-2.0,-2.0,1650917073901604.0
0.0,-4.0,-8.0,-3.0,2.0,-5.0,5.0,0.0,1650917073903585.0
4.0,3.0,2.0,8.0,-10.0,-27.0,-8.0,6.0,1650917073903585.0
-6.0,-3.0,0.0,-22.0,-14.0,18.0,0.0,1.0,1650917073915870.0
0.0,8.0,22.0,30.0,15.0,10.0,-2.0,-5.0,1650917073915870.0
-1.0,-7.0,-25.0,8.0,16.0,1.0,7.0,0.0,1650917073916725.0
-1.0,-3.0,-10.0,-24.0,-13.0,-1.0,3.0,-1.0,1650917073916725.0
1.0,2.0,2.0,10.0,7.0,2.0,-15.0,-3.0,1650917073938296.0
3.0,3.0,-6.0,-7.0,-5.0,-4.0,12.0,6.0,1650917073938296.0
-1.0,5.0,29.0,16.0,-10.0,-14.0,-9.0,-5.0,1650917073940146.0
-6.0,-20.0,-24.0,-18.0,-16.0,-21.0,-5.0,-7.0,1650917073940146.0
-3.0,-7.0,-9.0,0.0,1.0,-19.0,-6.0,0.0,1650917073951571.0
1.0,0.0,-10.0,-12.0,9.0,41.0,5.0,-5.0,1650917073951571.0
0.0,4.0,16.0,16.0,5.0,11.0,-3.0,0.0,1650917073960570.0
0.0,1.0,-9.0,-33.0,-7.0,4.0,11.0,2.0,1650917073960570.0
1.0,7.0,6.0,5.0,2.0,-4.0,5.0,2.0,1650917073975802.0
2.0,-9.0,0.0,12.0,2.0,-22.0,-3.0,2.0,1650917073975802.0
0.0,-2.0,-10.0,-8.0,-10.0,-5.0,-12.0,-3.0,1650917073976811.0
-4.0,-3.0,-20.0,-5.0,-4.0,5.0,0.0,-2.0,1650917073976811.0
-4.0,-5.0,14.0,19.0,1.0,-11.0,-15.0,-2.0,1650917073998620.0
2.0,1.0,11.0,19.0,5.0,-3.0,9.0,2.0,1650917073998620.0
5.0,5.0,-14.0,-45.0,-12.0,2.0,2.0,-1.0,1650917073999620.0
-6.0,1.0,20.0,12.0,-1.0,5.0,5.0,2.0,1650917073999620.0
4.0,-2.0,-17.0,0.0,16.0,22.0,-1.0,5.0,1650917074011906.0
-1.0,2.0,8.0,0.0,9.0,8.0,-6.0,-2.0,1650917074011906.0
2.0,3.0,27.0,35.0,6.0,-14.0,12.0,1.0,1650917074020760.0
-6.0,-15.0,-32.0,-24.0,-25.0,-26.0,-26.0,-12.0,1650917074020760.0
-1.0,0.0,5.0,6.0,5.0,15.0,27.0,2.0,1650917074036035.0
-1.0,2.0,5.0,11.0,8.0,10.0,3.0,1.0,1650917074036035.0
-1.0,-4.0,-11.0,-21.0,7.0,7.0,0.0,-1.0,1650917074037035.0
6.0,6.0,13.0,5.0,5.0,-1.0,7.0,5.0,1650917074037035.0
-4.0,-5.0,-4.0,3.0,-8.0,-8.0,-11.0,-5.0,1650917074058605.0
0.0,2.0,4.0,2.0,-8.0,-9.0,-6.0,-2.0,1650917074058605.0
0.0,-2.0,-4.0,1.0,-8.0,-12.0,-3.0,1.0,1650917074059605.0
-3.0,-6.0,-11.0,0.0,-1.0,15.0,0.0,-3.0,1650917074059605.0
3.0,3.0,6.0,-5.0,-3.0,-1.0,-12.0,-4.0,1650917074080913.0
2.0,1.0,-3.0,-1.0,4.0,0.0,16.0,5.0,1650917074080913.0
-6.0,1.0,2.0,9.0,-2.0,-3.0,-7.0,-4.0,1650917074081914.0
6.0,10.0,11.0,3.0,11.0,7.0,3.0,2.0,1650917074081914.0
-2.0,-6.0,-1.0,-4.0,2.0,2.0,4.0,-1.0,1650917074096115.0
-3.0,0.0,-4.0,-6.0,-10.0,-12.0,-13.0,-4.0,1650917074096115.0
0.0,1.0,3.0,4.0,-11.0,-32.0,-9.0,-2.0,1650917074097042.0
-1.0,4.0,4.0,-1.0,0.0,18.0,18.0,8.0,1650917074097042.0
-1.0,1.0,-4.0,-2.0,9.0,21.0,-5.0,-9.0,1650917074118253.0
2.0,-1.0,5.0,7.0,5.0,3.0,11.0,6.0,1650917074118253.0
2.0,1.0,-1.0,-4.0,6.0,5.0,-1.0,0.0,1650917074120132.0
-1.0,-2.0,-8.0,-2.0,-2.0,-9.0,-5.0,-1.0,1650917074120132.0
-1.0,-2.0,-5.0,-9.0,-17.0,-24.0,-13.0,-4.0,1650917074140446.0
-2.0,-2.0,-2.0,0.0,3.0,9.0,0.0,-1.0,1650917074140446.0
0.0,-1.0,-8.0,-5.0,-1.0,4.0,3.0,1.0,1650917074142192.0
3.0,3.0,18.0,18.0,8.0,5.0,-3.0,-1.0,1650917074142192.0
3.0,0.0,-1.0,2.0,14.0,12.0,11.0,2.0,1650917074155384.0
-5.0,-7.0,-25.0,-27.0,-5.0,-4.0,-5.0,-4.0,1650917074155384.0
-1.0,-2.0,6.0,6.0,-8.0,-5.0,-4.0,-1.0,1650917074157237.0
-2.0,-2.0,1.0,1.0,-5.0,-6.0,-3.0,-1.0,1650917074157237.0
-1.0,-2.0,2.0,2.0,-8.0,-11.0,-2.0,1.0,1650917074178523.0
1.0,2.0,-5.0,-10.0,-2.0,-1.0,-8.0,-2.0,1650917074178523.0
-4.0,0.0,-2.0,0.0,6.0,0.0,0.0,-1.0,1650917074179380.0
1.0,0.0,11.0,11.0,6.0,-1.0,2.0,-2.0,1650917074179380.0
1.0,-1.0,5.0,2.0,-12.0,-15.0,-1.0,1.0,1650917074200672.0
-1.0,2.0,1.0,2.0,2.0,5.0,-3.0,-1.0,1650917074200672.0
-2.0,-10.0,-24.0,-16.0,-7.0,12.0,-3.0,0.0,1650917074202647.0
2.0,-5.0,2.0,-1.0,8.0,2.0,2.0,0.0,1650917074202647.0
2.0,6.0,-2.0,6.0,12.0,7.0,11.0,5.0,1650917074214603.0
-1.0,-1.0,-7.0,-10.0,-7.0,-11.0,-9.0,-1.0,1650917074214603.0
-2.0,2.0,6.0,4.0,-7.0,-8.0,1.0,-2.0,1650917074223579.0
-2.0,0.0,0.0,3.0,-1.0,7.0,-3.0,-4.0,1650917074223579.0
-3.0,-2.0,-10.0,-9.0,-3.0,-2.0,-3.0,1.0,1650917074238576.0
3.0,-1.0,13.0,8.0,-3.0,-7.0,-8.0,-2.0,1650917074238576.0
0.0,-2.0,-9.0,-11.0,0.0,1.0,2.0,-1.0,1650917074239537.0
0.0,2.0,-3.0,-5.0,-5.0,-15.0,-13.0,-3.0,1650917074239537.0
-3.0,0.0,11.0,8.0,4.0,14.0,16.0,2.0,1650917074260884.0
2.0,-6.0,-3.0,3.0,-1.0,8.0,1.0,0.0,1650917074260884.0
1.0,0.0,3.0,7.0,10.0,9.0,0.0,1.0,1650917074261884.0
3.0,5.0,0.0,1.0,0.0,-22.0,2.0,1.0,1650917074261884.0
1.0,4.0,-7.0,-15.0,-22.0,1.0,-12.0,-4.0,1650917074275163.0
-5.0,-5.0,-8.0,-9.0,-4.0,-5.0,-5.0,0.0,1650917074275163.0
2.0,0.0,10.0,11.0,11.0,11.0,14.0,0.0,1650917074282269.0
-1.0,-1.0,-2.0,-1.0,6.0,1.0,-4.0,-1.0,1650917074282269.0
2.0,3.0,9.0,11.0,9.0,-3.0,-5.0,0.0,1650917074298647.0
-1.0,-4.0,-11.0,-3.0,-4.0,-1.0,11.0,3.0,1650917074298647.0
1.0,8.0,1.0,-5.0,-14.0,-16.0,-9.0,-2.0,1650917074299647.0
-4.0,-13.0,1.0,5.0,-12.0,-7.0,-7.0,-4.0,1650917074299647.0
-1.0,2.0,-4.0,-3.0,11.0,20.0,10.0,1.0,1650917074321092.0
4.0,1.0,17.0,18.0,13.0,13.0,11.0,2.0,1650917074321092.0
-1.0,-4.0,-11.0,-8.0,-2.0,-9.0,-2.0,0.0,1650917074322058.0
0.0,2.0,2.0,2.0,1.0,9.0,7.0,4.0,1650917074322058.0
-2.0,1.0,-6.0,-6.0,-5.0,-6.0,-11.0,-4.0,1650917074335377.0
-3.0,-3.0,0.0,-11.0,-12.0,-33.0,-9.0,-4.0,1650917074335377.0
0.0,0.0,8.0,10.0,2.0,11.0,4.0,2.0,1650917074343358.0
1.0,2.0,9.0,6.0,6.0,14.0,1.0,0.0,1650917074343358.0
0.0,-2.0,0.0,4.0,13.0,1.0,1.0,1.0,1650917074357597.0
-1.0,-3.0,-6.0,-1.0,-13.0,-17.0,-6.0,-1.0,1650917074357597.0
-2.0,-3.0,-12.0,-17.0,-10.0,-15.0,-3.0,-2.0,1650917074359594.0
-1.0,1.0,-5.0,-6.0,-3.0,12.0,8.0,1.0,1650917074359594.0
3.0,0.0,1.0,1.0,12.0,15.0,1.0,0.0,1650917074380266.0
1.0,1.0,3.0,2.0,12.0,15.0,7.0,3.0,1650917074380266.0
0.0,1.0,11.0,15.0,-4.0,-2.0,-7.0,1.0,1650917074382260.0
-2.0,-4.0,-9.0,-15.0,-13.0,-17.0,-5.0,-4.0,1650917074382260.0
-3.0,-1.0,-8.0,-6.0,-6.0,-13.0,-3.0,-3.0,1650917074395226.0
0.0,7.0,9.0,15.0,-3.0,-5.0,-3.0,0.0,1650917074395226.0
-3.0,-4.0,-12.0,-16.0,13.0,20.0,6.0,1.0,1650917074402207.0
2.0,2.0,1.0,3.0,10.0,11.0,0.0,-1.0,1650917074402207.0
1.0,0.0,-3.0,-3.0,-6.0,-10.0,8.0,1.0,1650917074418165.0
-3.0,-5.0,-4.0,-3.0,-12.0,-18.0,-5.0,-4.0,1650917074418165.0
0.0,4.0,6.0,10.0,-3.0,10.0,0.0,0.0,1650917074419162.0
0.0,1.0,-4.0,0.0,7.0,7.0,5.0,2.0,1650917074419162.0
-2.0,-7.0,-7.0,-8.0,3.0,2.0,-22.0,-4.0,1650917074440564.0
1.0,3.0,7.0,3.0,-8.0,-20.0,16.0,1.0,1650917074440564.0
-1.0,-7.0,-6.0,-5.0,3.0,7.0,-9.0,-4.0,1650917074442339.0
-1.0,-2.0,-2.0,-4.0,-6.0,-7.0,14.0,4.0,1650917074442339.0
0.0,-4.0,-3.0,-1.0,-3.0,4.0,-2.0,-1.0,1650917074455444.0
4.0,3.0,1.0,-1.0,9.0,16.0,-1.0,-2.0,1650917074455444.0
-3.0,-1.0,10.0,6.0,-6.0,-17.0,-1.0,2.0,1650917074461448.0
-1.0,-3.0,-5.0,-1.0,-2.0,5.0,-13.0,-6.0,1650917074461448.0
-2.0,-4.0,-4.0,-1.0,9.0,3.0,10.0,2.0,1650917074478463.0
0.0,2.0,-9.0,-9.0,-3.0,-3.0,-5.0,0.0,1650917074478463.0
1.0,-3.0,-1.0,-3.0,-4.0,1.0,0.0,0.0,1650917074479462.0
-3.0,-2.0,8.0,2.0,1.0,5.0,0.0,-1.0,1650917074479462.0
-2.0,-3.0,-12.0,-1.0,-15.0,-12.0,1.0,-1.0,1650917074500599.0
-2.0,-8.0,-14.0,-13.0,7.0,12.0,-2.0,-1.0,1650917074500599.0
1.0,2.0,-3.0,3.0,15.0,-7.0,-1.0,-1.0,1650917074502597.0
-1.0,-3.0,7.0,8.0,3.0,-3.0,-1.0,-1.0,1650917074502597.0
0.0,-1.0,1.0,-6.0,-12.0,-2.0,-3.0,-1.0,1650917074514806.0
-3.0,0.0,6.0,3.0,-3.0,-2.0,-12.0,-5.0,1650917074514806.0
-1.0,0.0,4.0,7.0,-1.0,-1.0,11.0,5.0,1650917074522849.0
0.0,2.0,-5.0,-4.0,-6.0,-4.0,-2.0,0.0,1650917074522849.0
1.0,0.0,-18.0,-16.0,1.0,11.0,9.0,2.0,1650917074538134.0
1.0,-2.0,4.0,9.0,7.0,6.0,1.0,0.0,1650917074538134.0
-2.0,-1.0,-1.0,1.0,1.0,4.0,-5.0,-4.0,1650917074539971.0
-3.0,-7.0,5.0,2.0,-5.0,-12.0,-5.0,-2.0,1650917074539971.0
-1.0,2.0,-1.0,-6.0,-15.0,-33.0,-22.0,-4.0,1650917074561111.0
-3.0,1.0,5.0,2.0,1.0,-1.0,10.0,0.0,1650917074561111.0
3.0,1.0,14.0,11.0,10.0,41.0,8.0,2.0,1650917074562111.0
-2.0,-1.0,-22.0,-11.0,8.0,15.0,0.0,-3.0,1650917074562111.0
-2.0,-15.0,3.0,0.0,-13.0,-11.0,5.0,2.0,1650917074574360.0
-1.0,-1.0,-6.0,-3.0,0.0,-17.0,-7.0,-1.0,1650917074574360.0
0.0,2.0,0.0,1.0,9.0,-7.0,-4.0,-3.0,1650917074583415.0
1.0,5.0,6.0,4.0,3.0,6.0,4.0,1.0,1650917074583415.0
0.0,4.0,4.0,7.0,0.0,-2.0,-2.0,-1.0,1650917074598899.0
1.0,-3.0,-6.0,-10.0,-2.0,7.0,-6.0,0.0,1650917074598899.0
-8.0,-7.0,-14.0,-13.0,-18.0,-10.0,1.0,-3.0,1650917074599900.0
-1.0,3.0,13.0,6.0,4.0,-6.0,-11.0,-3.0,1650917074599900.0
0.0,4.0,3.0,5.0,9.0,3.0,15.0,5.0,1650917074621239.0
1.0,-3.0,-6.0,1.0,-7.0,-3.0,-4.0,-1.0,1650917074621239.0
0.0,0.0,2.0,5.0,1.0,2.0,-9.0,-2.0,1650917074622239.0
-1.0,-1.0,0.0,-1.0,-3.0,-5.0,19.0,2.0,1650917074622239.0
0.0,2.0,4.0,5.0,-1.0,6.0,-8.0,-1.0,1650917074634741.0
-6.0,-4.0,-4.0,-3.0,-4.0,-4.0,-4.0,-4.0,1650917074634741.0
1.0,-5.0,-4.0,-5.0,3.0,-1.0,-2.0,-2.0,1650917074643251.0
2.0,5.0,4.0,4.0,-8.0,-8.0,-5.0,3.0,1650917074643251.0
0.0,-1.0,10.0,10.0,12.0,16.0,3.0,-2.0,1650917074658594.0
0.0,5.0,-4.0,0.0,13.0,17.0,7.0,3.0,1650917074658594.0
-1.0,-3.0,-1.0,-2.0,-6.0,-6.0,-2.0,0.0,1650917074659594.0
2.0,-4.0,-12.0,-9.0,-3.0,-5.0,1.0,0.0,1650917074659594.0
-8.0,-1.0,2.0,-2.0,-6.0,-7.0,-1.0,-2.0,1650917074680897.0
1.0,2.0,9.0,8.0,-13.0,-8.0,-6.0,-2.0,1650917074680897.0
0.0,-1.0,-5.0,-6.0,6.0,-2.0,-6.0,1.0,1650917074681896.0
0.0,5.0,-5.0,-6.0,0.0,1.0,4.0,0.0,1650917074681896.0
2.0,-1.0,1.0,4.0,3.0,2.0,-3.0,-2.0,1650917074694837.0
0.0,0.0,5.0,8.0,1.0,4.0,-2.0,0.0,1650917074694837.0
-1.0,-3.0,-7.0,-8.0,-14.0,-34.0,-1.0,-1.0,1650917074711114.0
-3.0,0.0,-6.0,-6.0,-5.0,21.0,-5.0,-3.0,1650917074711114.0
1.0,3.0,4.0,9.0,20.0,19.0,2.0,-1.0,1650917074719260.0
1.0,3.0,2.0,-2.0,16.0,16.0,3.0,2.0,1650917074719260.0
0.0,3.0,4.0,3.0,-2.0,0.0,7.0,1.0,1650917074719430.0
0.0,-3.0,-2.0,-2.0,-12.0,-30.0,-10.0,0.0,1650917074719430.0
1.0,-1.0,-6.0,-9.0,-4.0,-7.0,-10.0,-7.0,1650917074740593.0
-2.0,-6.0,-8.0,-9.0,-6.0,-7.0,0.0,-2.0,1650917074740593.0
0.0,4.0,11.0,12.0,-2.0,10.0,6.0,-1.0,1650917074742617.0
1.0,2.0,-1.0,-2.0,10.0,10.0,2.0,1.0,1650917074742617.0
2.0,-2.0,-2.0,2.0,2.0,1.0,8.0,2.0,1650917074754749.0
-2.0,0.0,-2.0,1.0,2.0,3.0,1.0,0.0,1650917074754749.0
0.0,1.0,-4.0,-5.0,-1.0,-2.0,-5.0,-1.0,1650917074763651.0
-2.0,1.0,2.0,0.0,-5.0,-20.0,-3.0,-2.0,1650917074763651.0
-2.0,3.0,3.0,0.0,-1.0,4.0,-6.0,-1.0,1650917074779005.0
-1.0,-3.0,-1.0,-1.0,0.0,9.0,-1.0,-1.0,1650917074779005.0
-1.0,0.0,1.0,2.0,3.0,8.0,7.0,1.0,1650917074779878.0
0.0,0.0,-1.0,-3.0,-4.0,-9.0,-3.0,0.0,1650917074779878.0
1.0,0.0,-7.0,-5.0,-9.0,-17.0,-6.0,-1.0,1650917074801102.0
-2.0,-6.0,-6.0,-8.0,-8.0,-4.0,0.0,-2.0,1650917074801102.0
1.0,2.0,1.0,4.0,9.0,17.0,-2.0,2.0,1650917074801974.0
-2.0,-5.0,1.0,8.0,14.0,10.0,3.0,0.0,1650917074801974.0
0.0,1.0,-2.0,-2.0,-4.0,-12.0,4.0,0.0,1650917074815147.0
0.0,1.0,0.0,-10.0,-5.0,-4.0,-1.0,-1.0,1650917074815147.0
-1.0,-1.0,6.0,11.0,-4.0,7.0,1.0,0.0,1650917074823103.0
-2.0,-1.0,-7.0,-7.0,1.0,3.0,-1.0,-1.0,1650917074823103.0
-3.0,-5.0,11.0,9.0,1.0,2.0,2.0,2.0,1650917074838708.0
-1.0,-2.0,-12.0,-11.0,-9.0,-7.0,-11.0,-3.0,1650917074838708.0
3.0,0.0,-8.0,-9.0,-2.0,-11.0,14.0,3.0,1650917074839450.0
-2.0,-2.0,0.0,2.0,3.0,7.0,-4.0,-1.0,1650917074839450.0
-1.0,-5.0,1.0,0.0,0.0,3.0,-1.0,-1.0,1650917074860924.0
-3.0,1.0,3.0,3.0,0.0,-15.0,-1.0,-1.0,1650917074860924.0
0.0,-5.0,4.0,5.0,-7.0,-1.0,-4.0,-1.0,1650917074861924.0
-3.0,-8.0,-10.0,-10.0,-6.0,4.0,0.0,0.0,1650917074861924.0
1.0,-1.0,-4.0,-3.0,3.0,2.0,-1.0,1.0,1650917074874729.0
0.0,-1.0,5.0,9.0,0.0,0.0,2.0,1.0,1650917074874729.0
-1.0,-1.0,-6.0,-10.0,3.0,-2.0,2.0,-1.0,1650917074882873.0
0.0,1.0,8.0,13.0,2.0,-1.0,-7.0,-3.0,1650917074882873.0
-1.0,-2.0,-3.0,-4.0,3.0,7.0,3.0,0.0,1650917074899191.0
2.0,3.0,2.0,4.0,-2.0,-3.0,4.0,0.0,1650917074899191.0
-2.0,-1.0,-6.0,-8.0,-5.0,-5.0,-5.0,-2.0,1650917074899191.0
2.0,-1.0,-4.0,0.0,-6.0,-6.0,1.0,1.0,1650917074899191.0
-3.0,-2.0,8.0,2.0,-8.0,-8.0,-6.0,-1.0,1650917074921465.0
-1.0,2.0,-8.0,-2.0,5.0,13.0,5.0,1.0,1650917074921465.0
-1.0,-1.0,-2.0,0.0,7.0,4.0,-1.0,0.0,1650917074922464.0
1.0,2.0,-6.0,-8.0,6.0,8.0,-1.0,1.0,1650917074922464.0
0.0,1.0,5.0,6.0,-4.0,-3.0,0.0,-1.0,1650917074934741.0
1.0,0.0,0.0,-2.0,-16.0,-13.0,14.0,2.0,1650917074934741.0
-2.0,2.0,-1.0,-4.0,3.0,-13.0,-12.0,-4.0,1650917074944534.0
0.0,-4.0,-9.0,-8.0,-6.0,-6.0,3.0,-2.0,1650917074944534.0
0.0,-1.0,4.0,7.0,13.0,27.0,-3.0,0.0,1650917074959284.0
-1.0,-1.0,7.0,8.0,9.0,4.0,-3.0,0.0,1650917074959284.0
1.0,0.0,-6.0,-7.0,-5.0,1.0,2.0,-1.0,1650917074959284.0
0.0,2.0,7.0,5.0,-3.0,-11.0,2.0,0.0,1650917074959284.0
0.0,1.0,-7.0,-12.0,2.0,-2.0,1.0,-1.0,1650917074988066.0
-2.0,-4.0,-1.0,3.0,2.0,2.0,-3.0,-1.0,1650917074988066.0
1.0,0.0,7.0,8.0,1.0,4.0,-2.0,0.0,1650917074989906.0
-2.0,-2.0,-3.0,-5.0,-9.0,-9.0,0.0,-2.0,1650917074989906.0
1.0,1.0,-5.0,-6.0,-9.0,-12.0,-1.0,0.0,1650917075004047.0
-4.0,1.0,6.0,6.0,2.0,-9.0,-6.0,0.0,1650917075004047.0
-1.0,0.0,-4.0,-4.0,-4.0,-3.0,-4.0,-1.0,1650917075004884.0
-1.0,0.0,4.0,3.0,12.0,14.0,6.0,0.0,1650917075004884.0
2.0,4.0,2.0,5.0,12.0,23.0,9.0,2.0,1650917075018160.0
1.0,-1.0,-3.0,-9.0,-9.0,-9.0,-5.0,-2.0,1650917075018160.0
-1.0,-3.0,2.0,1.0,-24.0,-25.0,-12.0,-5.0,1650917075020154.0
-1.0,4.0,3.0,1.0,8.0,9.0,10.0,1.0,1650917075020154.0
-1.0,1.0,-5.0,-1.0,13.0,3.0,2.0,2.0,1650917075041493.0
1.0,3.0,5.0,5.0,17.0,14.0,1.0,0.0,1650917075041493.0
-2.0,-1.0,3.0,3.0,-10.0,-10.0,-4.0,-3.0,1650917075042524.0
1.0,-4.0,-6.0,-7.0,-14.0,-8.0,1.0,-3.0,1650917075042524.0
-1.0,-1.0,-2.0,-1.0,-7.0,2.0,-2.0,-1.0,1650917075063886.0
1.0,2.0,-3.0,-5.0,-3.0,-1.0,2.0,1.0,1650917075063886.0
-1.0,-2.0,-5.0,-4.0,2.0,5.0,2.0,2.0,1650917075064727.0
0.0,-2.0,1.0,5.0,0.0,-9.0,-8.0,-2.0,1650917075064727.0
-1.0,-1.0,1.0,-1.0,2.0,-2.0,-3.0,0.0,1650917075078983.0
-2.0,-2.0,-6.0,-2.0,-6.0,-2.0,-6.0,-3.0,1650917075078983.0
0.0,2.0,0.0,0.0,6.0,11.0,3.0,-1.0,1650917075080015.0
-1.0,-1.0,2.0,2.0,2.0,0.0,-2.0,0.0,1650917075080015.0
1.0,1.0,-1.0,-2.0,-11.0,-6.0,-1.0,-3.0,1650917075100939.0
-1.0,-7.0,-3.0,2.0,-6.0,-13.0,-2.0,-2.0,1650917075100939.0
0.0,6.0,-3.0,-2.0,12.0,-2.0,2.0,1.0,1650917075101939.0
-1.0,1.0,5.0,7.0,16.0,17.0,2.0,0.0,1650917075101939.0
0.0,-2.0,-1.0,-3.0,-6.0,2.0,2.0,2.0,1650917075123448.0
0.0,3.0,7.0,7.0,5.0,-3.0,-3.0,-1.0,1650917075123448.0
-1.0,0.0,7.0,9.0,0.0,5.0,5.0,1.0,1650917075124288.0
1.0,0.0,-16.0,-14.0,-10.0,0.0,-2.0,-3.0,1650917075124288.0
-2.0,5.0,1.0,-3.0,-2.0,-9.0,-3.0,0.0,1650917075138428.0
0.0,-5.0,1.0,3.0,-2.0,13.0,-1.0,0.0,1650917075138428.0
-2.0,-4.0,-1.0,-3.0,5.0,-5.0,-1.0,-1.0,1650917075139438.0
0.0,0.0,4.0,3.0,-11.0,-13.0,-3.0,0.0,1650917075139438.0
-1.0,-2.0,3.0,4.0,3.0,-4.0,-1.0,3.0,1650917075160839.0
0.0,3.0,-4.0,-7.0,5.0,12.0,4.0,-2.0,1650917075160839.0
-1.0,1.0,2.0,3.0,3.0,4.0,0.0,-1.0,1650917075161805.0
-1.0,2.0,9.0,6.0,-6.0,-11.0,-5.0,-2.0,1650917075161805.0
-2.0,-1.0,-6.0,-7.0,-6.0,-6.0,-1.0,-2.0,1650917075183323.0
-1.0,-1.0,-1.0,0.0,4.0,-4.0,-4.0,0.0,1650917075183323.0
0.0,-5.0,-10.0,-7.0,-2.0,-3.0,-1.0,0.0,1650917075184320.0
1.0,0.0,-3.0,-5.0,-6.0,-6.0,-2.0,3.0,1650917075184320.0
-2.0,-2.0,4.0,2.0,-10.0,-2.0,3.0,-2.0,1650917075197853.0
-3.0,-4.0,-2.0,-2.0,6.0,4.0,-1.0,-2.0,1650917075197853.0
-3.0,-3.0,-1.0,-1.0,8.0,25.0,4.0,-3.0,1650917075205002.0
0.0,-2.0,0.0,4.0,8.0,12.0,1.0,7.0,1650917075205002.0
3.0,3.0,1.0,4.0,5.0,-12.0,-3.0,1.0,1650917075221107.0
2.0,5.0,0.0,-1.0,-11.0,-16.0,-4.0,-9.0,1650917075221107.0
-4.0,-3.0,-3.0,-3.0,-13.0,-18.0,-5.0,-4.0,1650917075222107.0
-5.0,-4.0,-4.0,-5.0,-2.0,0.0,-2.0,-1.0,1650917075222107.0
0.0,4.0,-2.0,-6.0,-3.0,2.0,6.0,14.0,1650917075243659.0
1.0,-5.0,-3.0,3.0,4.0,9.0,2.0,-5.0,1650917075243659.0
-3.0,16.0,1.0,5.0,3.0,11.0,0.0,-8.0,1650917075244659.0
-2.0,-4.0,-7.0,-7.0,8.0,-4.0,-8.0,-4.0,1650917075244659.0
-3.0,-9.0,-1.0,2.0,-18.0,-21.0,-8.0,-9.0,1650917075257961.0
5.0,10.0,4.0,4.0,-1.0,3.0,-4.0,-3.0,1650917075257961.0
-3.0,-6.0,0.0,-13.0,5.0,11.0,7.0,6.0,1650917075265044.0
0.0,-6.0,3.0,5.0,7.0,7.0,8.0,4.0,1650917075265044.0
2.0,11.0,-4.0,-7.0,-7.0,-6.0,-1.0,15.0,1650917075281161.0
-8.0,0.0,-5.0,-1.0,-15.0,-20.0,-8.0,-7.0,1650917075281161.0
-3.0,-11.0,5.0,9.0,-5.0,2.0,-2.0,-11.0,1650917075282161.0
8.0,13.0,4.0,6.0,1.0,14.0,4.0,-3.0,1650917075282161.0
-1.0,-9.0,-1.0,-5.0,21.0,-8.0,-3.0,-15.0,1650917075303239.0
-7.0,-4.0,7.0,8.0,3.0,23.0,5.0,25.0,1650917075303239.0
6.0,7.0,-10.0,-7.0,-2.0,-6.0,7.0,23.0,1650917075305098.0
7.0,21.0,-1.0,-7.0,-1.0,-4.0,-4.0,-16.0,1650917075305098.0
25.0,40.0,20.0,31.0,12.0,1.0,-1.0,-23.0,1650917075318014.0
-10.0,28.0,-3.0,-12.0,13.0,6.0,9.0,20.0,1650917075318014.0
-43.0,-106.0,-20.0,0.0,-14.0,-21.0,-14.0,-2.0,1650917075324001.0
-15.0,-37.0,-4.0,-15.0,-3.0,1.0,-2.0,-2.0,1650917075324001.0
2.0,25.0,-1.0,4.0,1.0,4.0,3.0,4.0,1650917075341181.0
43.0,29.0,14.0,-6.0,3.0,2.0,9.0,24.0,1650917075341181.0
25.0,127.0,7.0,1.0,6.0,11.0,13.0,19.0,1650917075342180.0
-56.0,-103.0,-23.0,2.0,-15.0,-14.0,-16.0,-23.0,1650917075342180.0
-28.0,-44.0,-11.0,-2.0,-2.0,-10.0,-16.0,-63.0,1650917075363325.0
4.0,-5.0,4.0,11.0,6.0,3.0,3.0,4.0,1650917075363325.0
22.0,-5.0,8.0,-10.0,-2.0,5.0,2.0,-18.0,1650917075364215.0
13.0,51.0,19.0,10.0,13.0,18.0,13.0,40.0,1650917075364215.0
11.0,1.0,-15.0,-25.0,3.0,11.0,-4.0,4.0,1650917075377559.0
-13.0,12.0,7.0,3.0,-6.0,-7.0,2.0,-6.0,1650917075377559.0
-8.0,-61.0,2.0,9.0,-13.0,-19.0,-9.0,1.0,1650917075384328.0
2.0,67.0,7.0,18.0,10.0,-15.0,0.0,4.0,1650917075384328.0
-39.0,-128.0,-35.0,-24.0,-13.0,3.0,-11.0,-13.0,1650917075400288.0
-12.0,41.0,-17.0,7.0,15.0,19.0,8.0,-10.0,1650917075400288.0
46.0,31.0,13.0,4.0,15.0,8.0,-8.0,-10.0,1650917075402301.0
-17.0,-25.0,-21.0,-18.0,-10.0,-14.0,-10.0,-2.0,1650917075402301.0
3.0,51.0,25.0,7.0,-23.0,-12.0,-6.0,4.0,1650917075422654.0
26.0,42.0,-5.0,-12.0,-3.0,-10.0,-1.0,31.0,1650917075422654.0
-17.0,-39.0,6.0,-9.0,-14.0,1.0,4.0,-19.0,1650917075424649.0
-3.0,21.0,15.0,10.0,6.0,1.0,-1.0,-17.0,1650917075424649.0
5.0,-84.0,-21.0,-10.0,-4.0,-1.0,-10.0,-15.0,1650917075437832.0
-11.0,3.0,-3.0,6.0,-1.0,-28.0,12.0,30.0,1650917075437832.0
-1.0,36.0,-20.0,-3.0,-5.0,0.0,5.0,31.0,1650917075444737.0
29.0,57.0,11.0,-1.0,14.0,37.0,-1.0,-9.0,1650917075444737.0
32.0,86.0,31.0,23.0,24.0,33.0,20.0,20.0,1650917075460955.0
14.0,-14.0,10.0,5.0,-3.0,-4.0,-6.0,-21.0,1650917075460955.0
10.0,-1.0,5.0,27.0,10.0,-10.0,1.0,3.0,1650917075461954.0
-24.0,-49.0,-49.0,-54.0,-33.0,-22.0,-4.0,-6.0,1650917075461954.0
-12.0,33.0,4.0,7.0,4.0,-3.0,7.0,1.0,1650917075483199.0
-45.0,-100.0,-29.0,-26.0,-16.0,-11.0,-20.0,-34.0,1650917075483199.0
21.0,96.0,15.0,6.0,-13.0,-14.0,6.0,38.0,1650917075485109.0
-25.0,-46.0,7.0,9.0,22.0,18.0,4.0,-16.0,1650917075485109.0
8.0,-6.0,0.0,7.0,12.0,10.0,0.0,23.0,1650917075497841.0
-14.0,29.0,7.0,-2.0,12.0,9.0,-8.0,-13.0,1650917075497841.0
9.0,34.0,0.0,-20.0,-21.0,-3.0,9.0,-2.0,1650917075504589.0
94.0,127.0,10.0,37.0,17.0,-9.0,9.0,33.0,1650917075504589.0
-99.0,-64.0,-24.0,-28.0,-8.0,-9.0,-22.0,-42.0,1650917075520760.0
-1.0,62.0,20.0,26.0,1.0,4.0,1.0,-12.0,1650917075520760.0
10.0,55.0,-9.0,-9.0,-2.0,13.0,-8.0,-1.0,1650917075521792.0
54.0,82.0,18.0,11.0,33.0,12.0,-1.0,9.0,1650917075521792.0
5.0,24.0,-4.0,-3.0,1.0,0.0,22.0,19.0,1650917075543218.0
-33.0,24.0,-28.0,-21.0,-22.0,2.0,-14.0,1.0,1650917075543218.0
-5.0,-53.0,1.0,10.0,13.0,3.0,17.0,4.0,1650917075545070.0
7.0,59.0,13.0,12.0,2.0,-4.0,0.0,9.0,1650917075545070.0
22.0,2.0,5.0,-4.0,-29.0,-18.0,-7.0,0.0,1650917075556256.0
2.0,0.0,6.0,-5.0,1.0,-8.0,-6.0,-25.0,1650917075556256.0
-11.0,-5.0,2.0,-1.0,18.0,13.0,-10.0,-1.0,1650917075566246.0
2.0,-27.0,-7.0,-11.0,-4.0,-1.0,8.0,7.0,1650917075566246.0
30.0,96.0,18.0,14.0,14.0,2.0,-6.0,10.0,1650917075580651.0
15.0,-68.0,-3.0,12.0,-17.0,-4.0,5.0,12.0,1650917075580651.0
-86.0,-110.0,-33.0,-27.0,-19.0,-14.0,-35.0,-44.0,1650917075582647.0
-26.0,39.0,13.0,5.0,25.0,18.0,17.0,14.0,1650917075582647.0
49.0,127.0,32.0,19.0,3.0,-4.0,9.0,2.0,1650917075602923.0
-19.0,-73.0,-21.0,-3.0,-9.0,-5.0,-1.0,-17.0,1650917075602923.0
-28.0,-13.0,-15.0,-12.0,-5.0,-7.0,-22.0,-33.0,1650917075604780.0
-16.0,-47.0,-2.0,-8.0,-38.0,-20.0,-8.0,20.0,1650917075604780.0
11.0,2.0,-17.0,-11.0,19.0,3.0,-4.0,4.0,1650917075617080.0
71.0,127.0,41.0,26.0,25.0,23.0,24.0,13.0,1650917075617080.0
-16.0,-119.0,-23.0,-19.0,15.0,9.0,5.0,3.0,1650917075631352.0
-36.0,-63.0,-13.0,2.0,-35.0,-46.0,-23.0,-38.0,1650917075631352.0
-26.0,-102.0,-14.0,-8.0,1.0,14.0,0.0,11.0,1650917075640461.0
-4.0,-14.0,-14.0,-16.0,12.0,17.0,-5.0,-7.0,1650917075640461.0
16.0,104.0,23.0,31.0,18.0,25.0,16.0,11.0,1650917075642350.0
30.0,8.0,-15.0,-7.0,-9.0,1.0,1.0,-6.0,1650917075642350.0
1.0,-23.0,-9.0,-8.0,-5.0,-14.0,-3.0,22.0,1650917075663649.0
-46.0,-26.0,-6.0,-14.0,-18.0,-24.0,-16.0,-19.0,1650917075663649.0
64.0,127.0,51.0,44.0,11.0,0.0,19.0,28.0,1650917075664645.0
29.0,16.0,5.0,-13.0,2.0,8.0,12.0,21.0,1650917075664645.0
-82.0,-90.0,-37.0,-10.0,-21.0,-11.0,-10.0,-54.0,1650917075685249.0
-13.0,-9.0,-10.0,-15.0,3.0,15.0,5.0,14.0,1650917075685249.0
38.0,59.0,11.0,7.0,-4.0,-8.0,15.0,41.0,1650917075687215.0
19.0,84.0,19.0,-7.0,-16.0,-9.0,-27.0,-23.0,1650917075687215.0
-16.0,4.0,-3.0,4.0,-9.0,-12.0,9.0,-7.0,1650917075700483.0
-6.0,-73.0,-8.0,-7.0,5.0,4.0,10.0,23.0,1650917075700483.0
0.0,-32.0,-13.0,-21.0,-10.0,-7.0,-2.0,-26.0,1650917075702478.0
-12.0,11.0,9.0,12.0,13.0,15.0,18.0,32.0,1650917075702478.0
-19.0,-22.0,12.0,21.0,12.0,-2.0,-19.0,-14.0,1650917075723481.0
18.0,4.0,8.0,4.0,-5.0,5.0,9.0,-1.0,1650917075723481.0
-2.0,35.0,-10.0,-7.0,4.0,17.0,-3.0,6.0,1650917075724481.0
-19.0,-89.0,-13.0,-7.0,-2.0,1.0,-13.0,-24.0,1650917075724481.0
22.0,48.0,-9.0,-34.0,-15.0,-20.0,5.0,21.0,1650917075736482.0
0.0,22.0,13.0,18.0,-5.0,-22.0,-4.0,-5.0,1650917075736482.0
-7.0,-22.0,-15.0,-9.0,-6.0,2.0,-2.0,-9.0,1650917075745426.0
65.0,111.0,22.0,6.0,-11.0,15.0,19.0,55.0,1650917075745426.0
-62.0,-22.0,-17.0,-3.0,7.0,14.0,-9.0,-47.0,1650917075760654.0
10.0,0.0,6.0,14.0,5.0,-7.0,3.0,12.0,1650917075760654.0
-26.0,21.0,-8.0,-9.0,17.0,-2.0,-5.0,-5.0,1650917075761653.0
6.0,-27.0,-11.0,-8.0,1.0,-7.0,2.0,-20.0,1650917075761653.0
85.0,95.0,23.0,12.0,-19.0,-1.0,10.0,56.0,1650917075783094.0
-9.0,0.0,8.0,-10.0,17.0,14.0,-4.0,-10.0,1650917075783094.0
-4.0,-106.0,-22.0,1.0,-18.0,-16.0,-5.0,-6.0,1650917075784981.0
-63.0,-58.0,-8.0,-12.0,5.0,-8.0,-18.0,-34.0,1650917075784981.0
30.0,56.0,21.0,-1.0,-6.0,16.0,24.0,17.0,1650917075797306.0
67.0,109.0,20.0,2.0,1.0,2.0,16.0,27.0,1650917075797306.0
-1.0,-35.0,10.0,0.0,32.0,11.0,-21.0,-29.0,1650917075805424.0
-16.0,4.0,-17.0,13.0,-4.0,-2.0,-1.0,-1.0,1650917075805424.0
22.0,-20.0,12.0,12.0,-6.0,-7.0,-6.0,-3.0,1650917075820694.0
-23.0,-41.0,-12.0,-27.0,-7.0,6.0,-1.0,-7.0,1650917075820694.0
-21.0,73.0,5.0,2.0,-20.0,-21.0,-2.0,-4.0,1650917075822546.0
37.0,30.0,0.0,-3.0,0.0,18.0,12.0,10.0,1650917075822546.0
-10.0,-66.0,-18.0,4.0,11.0,9.0,3.0,13.0,1650917075843125.0
-6.0,3.0,-5.0,11.0,-7.0,-9.0,-11.0,-12.0,1650917075843125.0
33.0,-5.0,8.0,-16.0,1.0,-7.0,8.0,13.0,1650917075845013.0
-32.0,8.0,-2.0,7.0,-11.0,-18.0,-23.0,-59.0,1650917075845013.0
13.0,37.0,2.0,-10.0,-13.0,1.0,7.0,19.0,1650917075857102.0
-10.0,26.0,-17.0,-9.0,12.0,6.0,-9.0,-13.0,1650917075857102.0
-32.0,-108.0,5.0,13.0,-1.0,-5.0,-14.0,-11.0,1650917075866250.0
18.0,33.0,5.0,3.0,-3.0,3.0,21.0,25.0,1650917075866250.0
-50.0,-73.0,-11.0,-17.0,3.0,-3.0,-2.0,2.0,1650917075881065.0
-10.0,9.0,-14.0,8.0,-2.0,-29.0,-5.0,-16.0,1650917075881065.0
22.0,68.0,12.0,2.0,-12.0,18.0,3.0,1.0,1650917075882252.0
-14.0,47.0,28.0,28.0,22.0,28.0,21.0,-27.0,1650917075882252.0
24.0,-12.0,4.0,10.0,8.0,12.0,6.0,29.0,1650917075902855.0
-41.0,-100.0,-11.0,-9.0,6.0,-20.0,-20.0,-9.0,1650917075902855.0
-25.0,23.0,-13.0,-7.0,-17.0,-26.0,-13.0,-13.0,1650917075904708.0
5.0,-15.0,-3.0,-1.0,12.0,12.0,6.0,18.0,1650917075904708.0
28.0,38.0,-7.0,-13.0,-15.0,-2.0,-1.0,1.0,1650917075926073.0
45.0,5.0,2.0,9.0,17.0,11.0,13.0,13.0,1650917075926073.0
4.0,-25.0,12.0,18.0,-5.0,-8.0,0.0,4.0,1650917075926959.0
-2.0,18.0,18.0,8.0,-54.0,-36.0,-13.0,-1.0,1650917075926959.0
14.0,53.0,-45.0,-27.0,53.0,9.0,-8.0,8.0,1650917075940314.0
-6.0,0.0,9.0,-7.0,-19.0,-2.0,6.0,-11.0,1650917075940314.0
-8.0,-59.0,-12.0,0.0,4.0,10.0,2.0,-1.0,1650917075942207.0
-32.0,10.0,6.0,-5.0,11.0,1.0,-3.0,-17.0,1650917075942207.0
31.0,48.0,15.0,17.0,-8.0,-26.0,-3.0,15.0,1650917075963292.0
-37.0,-54.0,-8.0,15.0,9.0,22.0,13.0,7.0,1650917075963292.0
46.0,125.0,9.0,-16.0,-19.0,22.0,10.0,24.0,1650917075965144.0
-16.0,-78.0,-17.0,-6.0,44.0,21.0,4.0,-11.0,1650917075965144.0
-31.0,-16.0,-1.0,15.0,28.0,2.0,-7.0,-17.0,1650917075985528.0
105.0,103.0,16.0,3.0,-10.0,-9.0,15.0,33.0,1650917075985528.0
-35.0,-42.0,-5.0,12.0,-7.0,-16.0,-6.0,0.0,1650917075987403.0
-42.0,-46.0,-14.0,-13.0,-16.0,-10.0,-21.0,-13.0,1650917075987403.0
4.0,82.0,24.0,8.0,-11.0,-8.0,5.0,-8.0,1650917076008561.0
1.0,0.0,-15.0,-2.0,19.0,18.0,-1.0,-4.0,1650917076008561.0
-29.0,-43.0,-11.0,-7.0,-16.0,-2.0,7.0,5.0,1650917076009534.0
59.0,30.0,17.0,36.0,26.0,11.0,12.0,32.0,1650917076009534.0
-26.0,-75.0,-3.0,-24.0,-22.0,-1.0,-3.0,-24.0,1650917076023699.0
-33.0,-27.0,-19.0,-29.0,-63.0,-21.0,-18.0,3.0,1650917076023699.0
48.0,109.0,1.0,-14.0,21.0,8.0,14.0,-12.0,1650917076024696.0
-13.0,-93.0,-18.0,-10.0,-13.0,-14.0,-15.0,-7.0,1650917076024696.0
16.0,81.0,19.0,12.0,0.0,-2.0,-23.0,-14.0,1650917076045339.0
-7.0,-36.0,-10.0,-6.0,-1.0,10.0,31.0,19.0,1650917076045339.0
-32.0,-85.0,-21.0,-6.0,9.0,-9.0,-14.0,-8.0,1650917076047367.0
-11.0,-56.0,-25.0,-46.0,-37.0,-16.0,6.0,3.0,1650917076047367.0
16.0,72.0,19.0,38.0,37.0,-4.0,4.0,-25.0,1650917076061045.0
-13.0,2.0,23.0,12.0,-17.0,23.0,-9.0,8.0,1650917076061045.0
-34.0,-1.0,-22.0,7.0,8.0,18.0,4.0,-7.0,1650917076062274.0
-2.0,-7.0,12.0,0.0,33.0,13.0,0.0,-1.0,1650917076062274.0
-12.0,-34.0,-2.0,-7.0,-33.0,-17.0,-2.0,6.0,1650917076082691.0
0.0,63.0,14.0,17.0,24.0,-7.0,-11.0,-10.0,1650917076082691.0
38.0,60.0,12.0,0.0,-8.0,0.0,11.0,-7.0,1650917076084549.0
2.0,35.0,-12.0,20.0,31.0,-3.0,-8.0,11.0,1650917076084549.0
-46.0,-108.0,-13.0,-7.0,-11.0,22.0,10.0,-12.0,1650917076105793.0
-31.0,-62.0,-28.0,-16.0,15.0,-1.0,-8.0,-8.0,1650917076105793.0
-26.0,-16.0,4.0,-16.0,-14.0,-10.0,-2.0,25.0,1650917076106690.0
61.0,118.0,16.0,-5.0,-10.0,-7.0,9.0,-10.0,1650917076106690.0
12.0,45.0,31.0,31.0,-13.0,-2.0,0.0,11.0,1650917076119949.0
-15.0,-36.0,-26.0,-38.0,0.0,2.0,-11.0,-27.0,1650917076119949.0
-18.0,-24.0,-12.0,-8.0,-7.0,-6.0,7.0,10.0,1650917076127158.0
-15.0,-103.0,-7.0,-10.0,-28.0,-11.0,12.0,44.0,1650917076127158.0
38.0,56.0,2.0,-2.0,15.0,9.0,9.0,12.0,1650917076143539.0
73.0,107.0,27.0,23.0,1.0,-6.0,-10.0,12.0,1650917076143539.0
-27.0,7.0,25.0,20.0,-10.0,-12.0,-10.0,-33.0,1650917076144538.0
-1.0,62.0,-9.0,-11.0,6.0,19.0,7.0,20.0,1650917076144538.0
1.0,35.0,-4.0,0.0,-1.0,8.0,-5.0,-21.0,1650917076165776.0
-27.0,-39.0,-9.0,10.0,-17.0,-1.0,5.0,-26.0,1650917076165776.0
67.0,86.0,29.0,-31.0,13.0,3.0,1.0,45.0,1650917076166792.0
2.0,-41.0,2.0,35.0,-3.0,1.0,-11.0,-24.0,1650917076166792.0
-22.0,-3.0,4.0,13.0,8.0,-11.0,-2.0,15.0,1650917076180049.0
-19.0,-45.0,12.0,-42.0,-30.0,-20.0,-3.0,-2.0,1650917076180049.0
25.0,0.0,-27.0,10.0,20.0,14.0,-1.0,-12.0,1650917076187164.0
-58.0,0.0,8.0,-21.0,-12.0,15.0,5.0,-12.0,1650917076187164.0
51.0,90.0,8.0,-9.0,-17.0,1.0,17.0,43.0,1650917076202971.0
-35.0,-41.0,-21.0,10.0,7.0,-21.0,-23.0,-10.0,1650917076202971.0
-7.0,-105.0,-18.0,4.0,4.0,-11.0,-6.0,-24.0,1650917076204833.0
-49.0,-58.0,-16.0,-5.0,-7.0,-14.0,-6.0,-7.0,1650917076204833.0
5.0,48.0,15.0,8.0,-29.0,-6.0,-7.0,-18.0,1650917076226085.0
26.0,99.0,13.0,1.0,68.0,33.0,11.0,-1.0,1650917076226085.0
-11.0,28.0,-3.0,-22.0,-17.0,-22.0,-6.0,19.0,1650917076226939.0
46.0,15.0,-1.0,-7.0,-20.0,-25.0,-14.0,-9.0,1650917076226939.0
-37.0,-120.0,-7.0,-13.0,10.0,21.0,-3.0,-15.0,1650917076240038.0
18.0,53.0,16.0,31.0,10.0,20.0,32.0,37.0,1650917076240038.0
-11.0,12.0,28.0,25.0,-7.0,-3.0,-2.0,-9.0,1650917076247125.0
100.0,120.0,9.0,-24.0,8.0,10.0,10.0,20.0,1650917076247125.0
-85.0,-110.0,-35.0,-8.0,-14.0,-5.0,-18.0,-28.0,1650917076263111.0
33.0,65.0,-9.0,17.0,20.0,15.0,0.0,-24.0,1650917076263111.0
44.0,121.0,-4.0,-7.0,3.0,10.0,14.0,43.0,1650917076264954.0
-13.0,19.0,12.0,7.0,-8.0,-13.0,-18.0,-41.0,1650917076264954.0
-3.0,-64.0,-14.0,-6.0,1.0,-15.0,-6.0,-5.0,1650917076285939.0
18.0,19.0,5.0,-20.0,-38.0,-15.0,-6.0,13.0,1650917076285939.0
-16.0,-55.0,-14.0,1.0,-15.0,-15.0,-14.0,-27.0,1650917076286895.0
41.0,3.0,14.0,14.0,10.0,9.0,18.0,35.0,1650917076286895.0
-5.0,68.0,18.0,3.0,9.0,10.0,21.0,29.0,1650917076299890.0
-74.0,-67.0,-44.0,-36.0,-39.0,-25.0,-12.0,-40.0,1650917076299890.0
60.0,127.0,34.0,25.0,15.0,-26.0,-18.0,-6.0,1650917076306874.0
-58.0,-101.0,-36.0,4.0,6.0,16.0,7.0,-3.0,1650917076306874.0
-14.0,14.0,4.0,-1.0,10.0,23.0,6.0,-4.0,1650917076331127.0
28.0,42.0,16.0,-12.0,8.0,15.0,8.0,-2.0,1650917076331127.0
7.0,-11.0,11.0,12.0,7.0,5.0,13.0,11.0,1650917076332127.0
17.0,34.0,11.0,7.0,8.0,-8.0,-14.0,-10.0,1650917076332127.0
31.0,23.0,-17.0,-22.0,6.0,-12.0,-13.0,9.0,1650917076346286.0
-33.0,-94.0,15.0,17.0,-6.0,1.0,13.0,16.0,1650917076346286.0
-11.0,-30.0,-21.0,-9.0,3.0,4.0,-11.0,-21.0,1650917076347125.0
-26.0,7.0,3.0,-4.0,9.0,-5.0,6.0,-15.0,1650917076347125.0
52.0,-62.0,-12.0,5.0,23.0,5.0,-12.0,5.0,1650917076360503.0
-13.0,40.0,17.0,-2.0,-10.0,-12.0,-10.0,0.0,1650917076360503.0
-25.0,-79.0,-11.0,-4.0,0.0,17.0,3.0,-10.0,1650917076367103.0
-10.0,58.0,3.0,11.0,-25.0,-13.0,7.0,19.0,1650917076367103.0
-36.0,-81.0,-17.0,-19.0,0.0,3.0,-3.0,-38.0,1650917076382703.0
53.0,111.0,9.0,5.0,-18.0,-19.0,6.0,21.0,1650917076382703.0
-38.0,-121.0,-23.0,-4.0,14.0,0.0,-1.0,-7.0,1650917076384698.0
-34.0,-34.0,-12.0,-6.0,-13.0,-10.0,-26.0,-17.0,1650917076384698.0
0.0,50.0,1.0,-5.0,9.0,2.0,13.0,14.0,1650917076405820.0
13.0,12.0,5.0,24.0,21.0,5.0,-10.0,-16.0,1650917076405820.0
11.0,39.0,16.0,8.0,4.0,-20.0,5.0,0.0,1650917076406853.0
10.0,23.0,-2.0,-13.0,20.0,37.0,3.0,15.0,1650917076406853.0
41.0,102.0,16.0,-7.0,-15.0,9.0,2.0,-1.0,1650917076420146.0
-27.0,-79.0,-12.0,9.0,6.0,11.0,3.0,-5.0,1650917076420146.0
-43.0,4.0,-32.0,-16.0,-21.0,-22.0,-11.0,-20.0,1650917076434317.0
-15.0,27.0,-1.0,-2.0,-4.0,-22.0,-9.0,10.0,1650917076434317.0
5.0,-39.0,-11.0,-12.0,-27.0,-25.0,-2.0,3.0,1650917076443283.0
2.0,91.0,22.0,11.0,13.0,20.0,3.0,-12.0,1650917076443283.0
39.0,12.0,11.0,6.0,16.0,22.0,5.0,11.0,1650917076444279.0
-55.0,16.0,-5.0,-4.0,-6.0,-7.0,-20.0,-12.0,1650917076444279.0
46.0,41.0,14.0,8.0,-3.0,-12.0,17.0,28.0,1650917076465222.0
7.0,-21.0,-5.0,-3.0,-12.0,-4.0,-4.0,-11.0,1650917076465222.0
-62.0,-63.0,-17.0,-10.0,-6.0,5.0,0.0,-2.0,1650917076467217.0
9.0,20.0,-4.0,3.0,18.0,2.0,6.0,-9.0,1650917076467217.0
-14.0,25.0,10.0,17.0,-1.0,8.0,-7.0,-2.0,1650917076479766.0
27.0,5.0,4.0,0.0,25.0,14.0,-1.0,13.0,1650917076479766.0
11.0,33.0,3.0,-10.0,3.0,26.0,5.0,3.0,1650917076488765.0
2.0,-24.0,6.0,1.0,-23.0,-16.0,2.0,2.0,1650917076488765.0
-9.0,-12.0,-8.0,-9.0,-20.0,-22.0,-8.0,-6.0,1650917076502695.0
9.0,4.0,-12.0,2.0,9.0,-1.0,0.0,6.0,1650917076502695.0
1.0,-23.0,0.0,7.0,22.0,17.0,3.0,-3.0,1650917076504689.0
3.0,-18.0,11.0,9.0,3.0,2.0,9.0,2.0,1650917076504689.0
-6.0,8.0,4.0,14.0,-9.0,-9.0,-2.0,-11.0,1650917076526061.0
-13.0,-28.0,-22.0,-26.0,-31.0,-20.0,-14.0,-14.0,1650917076526061.0
16.0,32.0,4.0,-7.0,-11.0,-8.0,-4.0,9.0,1650917076526933.0
8.0,-3.0,-4.0,-1.0,4.0,8.0,9.0,-5.0,1650917076526933.0
-2.0,-20.0,-5.0,-5.0,4.0,2.0,-24.0,-8.0,1650917076539063.0
-10.0,-1.0,-4.0,-1.0,0.0,3.0,38.0,20.0,1650917076539063.0
13.0,20.0,4.0,6.0,3.0,4.0,2.0,9.0,1650917076548028.0
9.0,-12.0,-1.0,-5.0,-5.0,4.0,-3.0,-8.0,1650917076548028.0
-8.0,6.0,1.0,3.0,2.0,-2.0,3.0,-4.0,1650917076563367.0
-3.0,-18.0,-6.0,7.0,-2.0,-11.0,-8.0,18.0,1650917076563367.0
6.0,25.0,12.0,-5.0,-9.0,-2.0,-1.0,-15.0,1650917076565258.0
-1.0,-5.0,5.0,-4.0,-2.0,0.0,5.0,4.0,1650917076565258.0
-5.0,0.0,-17.0,-10.0,14.0,16.0,6.0,0.0,1650917076585356.0
1.0,-10.0,3.0,8.0,-7.0,6.0,-14.0,2.0,1650917076585356.0
12.0,7.0,3.0,13.0,7.0,11.0,12.0,9.0,1650917076587350.0
-22.0,-4.0,0.0,5.0,2.0,-5.0,-9.0,-2.0,1650917076587350.0
-5.0,-3.0,3.0,14.0,9.0,-3.0,9.0,1.0,1650917076599712.0
-5.0,-14.0,-8.0,-26.0,-19.0,-22.0,-12.0,-6.0,1650917076599712.0
1.0,12.0,1.0,-3.0,-10.0,-10.0,-6.0,0.0,1650917076607940.0
8.0,-2.0,-3.0,8.0,-12.0,-8.0,-1.0,-5.0,1650917076607940.0
-1.0,-4.0,10.0,7.0,6.0,-2.0,2.0,0.0,1650917076622945.0
-5.0,-11.0,3.0,3.0,0.0,2.0,-4.0,-2.0,1650917076622945.0
-4.0,6.0,-5.0,-14.0,-6.0,-4.0,-4.0,-8.0,1650917076624798.0
9.0,-3.0,-7.0,-8.0,0.0,-1.0,5.0,6.0,1650917076624798.0
-1.0,1.0,0.0,6.0,2.0,9.0,6.0,8.0,1650917076652967.0
10.0,-2.0,12.0,23.0,5.0,0.0,-10.0,-4.0,1650917076652967.0
-10.0,-3.0,-8.0,-23.0,-3.0,-8.0,0.0,-6.0,1650917076654823.0
4.0,-1.0,-4.0,-4.0,1.0,3.0,2.0,-1.0,1650917076654823.0
3.0,0.0,-4.0,-11.0,-10.0,-6.0,0.0,3.0,1650917076658812.0
-11.0,-6.0,-3.0,-1.0,11.0,6.0,-7.0,-5.0,1650917076658812.0
3.0,7.0,11.0,28.0,1.0,-15.0,-6.0,2.0,1650917076667786.0
1.0,-3.0,-6.0,-5.0,0.0,19.0,7.0,1.0,1650917076667786.0
-1.0,-2.0,-8.0,-10.0,2.0,17.0,4.0,0.0,1650917076683109.0
-5.0,-2.0,0.0,-18.0,-14.0,-13.0,-1.0,4.0,1650917076683109.0
-2.0,1.0,-5.0,-4.0,-7.0,-15.0,-3.0,-3.0,1650917076684997.0
4.0,5.0,2.0,11.0,4.0,-1.0,-12.0,-1.0,1650917076684997.0
-3.0,-4.0,-3.0,-10.0,3.0,4.0,5.0,1.0,1650917076705217.0
1.0,-3.0,3.0,16.0,5.0,3.0,-2.0,-2.0,1650917076705217.0
2.0,4.0,3.0,3.0,5.0,7.0,1.0,2.0,1650917076707214.0
-8.0,-4.0,-1.0,-5.0,-7.0,-11.0,-3.0,-10.0,1650917076707214.0
3.0,4.0,-2.0,-3.0,-12.0,-4.0,-3.0,0.0,1650917076719479.0
-6.0,-2.0,-2.0,-27.0,-22.0,-20.0,-3.0,-6.0,1650917076719479.0
-3.0,2.0,-1.0,9.0,14.0,5.0,0.0,-1.0,1650917076728605.0
3.0,2.0,5.0,-2.0,3.0,-7.0,3.0,2.0,1650917076728605.0
2.0,1.0,3.0,23.0,1.0,11.0,1.0,1.0,1650917076743566.0
-3.0,-3.0,4.0,-2.0,11.0,7.0,3.0,-2.0,1650917076743566.0
-2.0,-7.0,-16.0,-15.0,-8.0,-7.0,-7.0,-3.0,1650917076744560.0
10.0,-2.0,-1.0,-5.0,-9.0,-9.0,4.0,5.0,1650917076744560.0
-4.0,3.0,10.0,8.0,12.0,13.0,4.0,2.0,1650917076765334.0
2.0,0.0,-5.0,-1.0,-9.0,-13.0,-3.0,-3.0,1650917076765334.0
-1.0,1.0,6.0,-8.0,-10.0,7.0,3.0,-1.0,1650917076767331.0
-3.0,-3.0,-3.0,8.0,11.0,15.0,-3.0,0.0,1650917076767331.0
4.0,5.0,10.0,1.0,8.0,-7.0,-3.0,-1.0,1650917076779602.0
-11.0,-2.0,-2.0,11.0,4.0,-4.0,-1.0,-2.0,1650917076779602.0
-1.0,0.0,0.0,4.0,-3.0,1.0,2.0,2.0,1650917076795465.0
1.0,-2.0,-4.0,-12.0,-14.0,-5.0,-3.0,-1.0,1650917076795465.0
2.0,-2.0,-4.0,4.0,5.0,3.0,-5.0,-5.0,1650917076803622.0
3.0,-4.0,-15.0,-22.0,-7.0,-14.0,9.0,3.0,1650917076803622.0
-2.0,-8.0,-13.0,-3.0,-3.0,2.0,0.0,-2.0,1650917076804622.0
-2.0,0.0,3.0,4.0,4.0,14.0,1.0,0.0,1650917076804622.0
-1.0,0.0,1.0,4.0,2.0,-5.0,-2.0,1.0,1650917076825889.0
-2.0,2.0,16.0,16.0,3.0,2.0,3.0,1.0,1650917076825889.0
0.0,1.0,-7.0,-6.0,-7.0,-8.0,3.0,-6.0,1650917076826916.0
3.0,-1.0,5.0,9.0,14.0,3.0,1.0,1.0,1650917076826916.0
-4.0,-3.0,-8.0,-9.0,2.0,0.0,-2.0,-1.0,1650917076839659.0
0.0,-4.0,11.0,7.0,-6.0,-5.0,-7.0,-2.0,1650917076839659.0
-1.0,3.0,7.0,9.0,-13.0,-9.0,-12.0,2.0,1650917076847997.0
4.0,-3.0,-18.0,-13.0,-1.0,14.0,19.0,3.0,1650917076847997.0
0.0,2.0,-5.0,-15.0,-8.0,-9.0,-4.0,-4.0,1650917076862959.0
2.0,2.0,-8.0,-16.0,4.0,11.0,10.0,3.0,1650917076862959.0
-1.0,2.0,12.0,16.0,18.0,18.0,0.0,3.0,1650917076864954.0
-7.0,-3.0,5.0,11.0,1.0,-15.0,-9.0,0.0,1650917076864954.0
-1.0,-1.0,-2.0,-5.0,-3.0,-4.0,1.0,0.0,1650917076885931.0
4.0,5.0,11.0,18.0,3.0,6.0,0.0,-2.0,1650917076885931.0
2.0,-2.0,-7.0,-5.0,-1.0,-5.0,-2.0,2.0,1650917076886896.0
8.0,1.0,5.0,-3.0,-11.0,-7.0,-14.0,-3.0,1650917076886896.0
-23.0,-10.0,-9.0,-6.0,-10.0,-4.0,13.0,-3.0,1650917076907872.0
3.0,1.0,-4.0,-8.0,2.0,-5.0,-10.0,-2.0,1650917076907872.0
3.0,3.0,1.0,2.0,2.0,0.0,3.0,-1.0,1650917076909834.0
-2.0,1.0,10.0,7.0,4.0,11.0,0.0,-1.0,1650917076909834.0
5.0,3.0,7.0,7.0,12.0,10.0,0.0,1.0,1650917076922800.0
1.0,3.0,-1.0,4.0,5.0,5.0,0.0,2.0,1650917076922800.0
-6.0,-3.0,-6.0,-9.0,-3.0,-2.0,4.0,0.0,1650917076924795.0
11.0,0.0,-4.0,0.0,-6.0,-10.0,-4.0,-2.0,1650917076924795.0
-4.0,0.0,0.0,-13.0,-13.0,-18.0,-18.0,-2.0,1650917076945895.0
-2.0,-3.0,2.0,8.0,6.0,-5.0,10.0,-1.0,1650917076945895.0
3.0,2.0,-1.0,-3.0,2.0,13.0,-3.0,2.0,1650917076946893.0
-3.0,2.0,-2.0,-1.0,2.0,10.0,10.0,2.0,1650917076946893.0
1.0,-2.0,5.0,7.0,0.0,0.0,-4.0,-3.0,1650917076967838.0
1.0,-2.0,-12.0,-13.0,-12.0,-12.0,0.0,-2.0,1650917076967838.0
-3.0,-2.0,5.0,6.0,10.0,7.0,-6.0,3.0,1650917076969833.0
9.0,2.0,-2.0,-3.0,0.0,-8.0,6.0,-4.0,1650917076969833.0
-14.0,-5.0,-2.0,1.0,1.0,5.0,-9.0,-14.0,1650917076982798.0
10.0,1.0,2.0,5.0,2.0,9.0,2.0,6.0,1650917076982798.0
-1.0,-3.0,5.0,6.0,2.0,-2.0,-4.0,1.0,1650917076984792.0
-9.0,-6.0,-9.0,-9.0,-12.0,-23.0,-11.0,0.0,1650917076984792.0
21.0,10.0,-2.0,-11.0,-14.0,-27.0,1.0,-8.0,1650917077005776.0
8.0,-7.0,-3.0,-5.0,3.0,14.0,-8.0,-1.0,1650917077005776.0
-5.0,-8.0,15.0,19.0,15.0,26.0,10.0,3.0,1650917077006735.0
-2.0,1.0,-4.0,6.0,7.0,10.0,-3.0,2.0,1650917077006735.0
-3.0,-1.0,8.0,9.0,-3.0,-9.0,-1.0,1.0,1650917077027719.0
0.0,-1.0,1.0,-1.0,-9.0,-7.0,-5.0,0.0,1650917077027719.0
1.0,0.0,-8.0,-15.0,-12.0,-14.0,-2.0,-4.0,1650917077029673.0
-5.0,-5.0,-5.0,-5.0,-3.0,-2.0,0.0,0.0,1650917077029673.0
2.0,0.0,0.0,1.0,4.0,3.0,6.0,6.0,1650917077042690.0
-7.0,1.0,-6.0,-9.0,-1.0,-5.0,0.0,-2.0,1650917077042690.0
-1.0,1.0,7.0,10.0,6.0,4.0,0.0,-1.0,1650917077044654.0
-8.0,3.0,5.0,-3.0,1.0,10.0,2.0,-3.0,1650917077044654.0
6.0,-6.0,-29.0,-25.0,-1.0,1.0,5.0,6.0,1650917077072976.0
-5.0,-6.0,-1.0,8.0,-2.0,-3.0,-6.0,-2.0,1650917077072976.0
-1.0,2.0,-1.0,1.0,-3.0,-5.0,4.0,-7.0,1650917077074885.0
7.0,3.0,4.0,6.0,6.0,-1.0,1.0,4.0,1650917077074885.0
1.0,4.0,22.0,23.0,13.0,12.0,3.0,5.0,1650917077088512.0
-5.0,-1.0,-15.0,-15.0,-3.0,-4.0,-4.0,-2.0,1650917077088512.0
4.0,-4.0,-14.0,-10.0,-10.0,-7.0,-11.0,3.0,1650917077089512.0
-14.0,1.0,2.0,-4.0,4.0,7.0,13.0,0.0,1650917077089512.0
3.0,-3.0,6.0,6.0,2.0,3.0,0.0,0.0,1650917077102563.0
-11.0,-1.0,0.0,-2.0,-10.0,-8.0,-6.0,-2.0,1650917077102563.0
6.0,5.0,5.0,1.0,2.0,-3.0,6.0,-1.0,1650917077109518.0
0.0,-1.0,-1.0,0.0,-1.0,-7.0,-13.0,-3.0,1650917077109518.0
-1.0,1.0,3.0,1.0,3.0,10.0,11.0,3.0,1650917077125475.0
5.0,2.0,1.0,9.0,5.0,-2.0,2.0,0.0,1650917077125475.0
0.0,-2.0,-7.0,-11.0,-20.0,-7.0,-2.0,0.0,1650917077127470.0
-18.0,-7.0,-13.0,-8.0,-1.0,-2.0,-5.0,1.0,1650917077127470.0
2.0,2.0,-10.0,-6.0,1.0,-6.0,-1.0,-1.0,1650917077149186.0
-6.0,-4.0,-5.0,-6.0,-1.0,-4.0,-6.0,-8.0,1650917077149186.0
-3.0,0.0,4.0,3.0,-11.0,-16.0,0.0,-3.0,1650917077149186.0
2.0,-2.0,-1.0,-11.0,-5.0,0.0,-6.0,-3.0,1650917077149186.0
-3.0,0.0,5.0,8.0,18.0,20.0,18.0,8.0,1650917077162190.0
5.0,0.0,9.0,1.0,6.0,18.0,-2.0,-2.0,1650917077162190.0
3.0,4.0,6.0,6.0,8.0,1.0,-2.0,-1.0,1650917077169325.0
4.0,1.0,-1.0,-5.0,-21.0,-12.0,15.0,3.0,1650917077169325.0
-3.0,-5.0,-10.0,-8.0,-4.0,-6.0,-3.0,1.0,1650917077185086.0
2.0,3.0,5.0,10.0,12.0,0.0,-5.0,1.0,1650917077185086.0
-2.0,-3.0,1.0,-1.0,-6.0,6.0,-1.0,-2.0,1650917077187081.0
4.0,1.0,0.0,5.0,2.0,0.0,-3.0,0.0,1650917077187081.0
0.0,-2.0,9.0,2.0,-1.0,-2.0,-5.0,-4.0,1650917077208640.0
-8.0,0.0,-15.0,-9.0,-9.0,-10.0,7.0,2.0,1650917077208640.0
-2.0,1.0,-1.0,-3.0,0.0,-1.0,-5.0,1.0,1650917077209641.0
1.0,0.0,5.0,3.0,5.0,3.0,-3.0,2.0,1650917077209641.0
-14.0,-3.0,-10.0,-5.0,-5.0,-2.0,1.0,-1.0,1650917077222644.0
-1.0,-2.0,5.0,4.0,-5.0,-1.0,-1.0,-2.0,1650917077222644.0
-6.0,1.0,1.0,2.0,-1.0,-11.0,2.0,-2.0,1650917077229325.0
13.0,-1.0,3.0,6.0,2.0,4.0,-3.0,-2.0,1650917077229325.0
-5.0,0.0,1.0,2.0,6.0,7.0,-7.0,-4.0,1650917077245631.0
-1.0,5.0,9.0,9.0,6.0,10.0,4.0,5.0,1650917077245631.0
-1.0,1.0,-9.0,-10.0,3.0,7.0,2.0,1.0,1650917077247517.0
1.0,0.0,6.0,1.0,-8.0,-17.0,-3.0,-3.0,1650917077247517.0
4.0,0.0,2.0,-1.0,-27.0,-39.0,-6.0,1.0,1650917077268429.0
-5.0,-4.0,-5.0,-4.0,1.0,26.0,0.0,-8.0,1650917077268429.0
2.0,1.0,10.0,18.0,36.0,26.0,13.0,4.0,1650917077269426.0
-1.0,2.0,-1.0,1.0,15.0,8.0,-9.0,-1.0,1650917077269426.0
-1.0,-2.0,0.0,-5.0,-11.0,-14.0,-2.0,-2.0,1650917077282423.0
-4.0,-3.0,-9.0,-8.0,-16.0,-17.0,-3.0,0.0,1650917077282423.0
1.0,1.0,-1.0,-3.0,-5.0,-8.0,-7.0,-4.0,1650917077289373.0
-1.0,-2.0,-7.0,-8.0,-14.0,-5.0,2.0,-1.0,1650917077289373.0
-2.0,1.0,-1.0,-6.0,10.0,14.0,-1.0,0.0,1650917077305533.0
3.0,-5.0,8.0,11.0,4.0,0.0,-1.0,0.0,1650917077305533.0
-3.0,-3.0,-5.0,-8.0,-3.0,-5.0,3.0,-2.0,1650917077307530.0
-3.0,-1.0,-1.0,3.0,-4.0,-13.0,-2.0,2.0,1650917077307530.0
4.0,0.0,2.0,0.0,-4.0,7.0,0.0,0.0,1650917077328592.0
0.0,-1.0,-4.0,-8.0,1.0,-2.0,-7.0,-3.0,1650917077328592.0
0.0,-3.0,1.0,6.0,-2.0,-5.0,8.0,3.0,1650917077329592.0
-5.0,-6.0,-11.0,-13.0,-1.0,-14.0,0.0,-3.0,1650917077329592.0
5.0,0.0,-3.0,-1.0,2.0,22.0,-5.0,-4.0,1650917077357845.0
0.0,5.0,13.0,8.0,14.0,33.0,12.0,6.0,1650917077357845.0
2.0,-1.0,-6.0,-3.0,-5.0,-8.0,-9.0,-3.0,1650917077359943.0
-1.0,2.0,5.0,7.0,7.0,4.0,2.0,0.0,1650917077359943.0
6.0,-2.0,-5.0,-7.0,-7.0,-13.0,10.0,0.0,1650917077365894.0
-6.0,-5.0,-10.0,-8.0,-17.0,-27.0,-7.0,-4.0,1650917077365894.0
7.0,-1.0,-5.0,-10.0,-8.0,5.0,-2.0,0.0,1650917077366892.0
-3.0,1.0,7.0,10.0,11.0,7.0,-4.0,-11.0,1650917077366892.0
-1.0,0.0,3.0,1.0,-3.0,-9.0,-1.0,-1.0,1650917077387972.0
1.0,-2.0,-3.0,-4.0,3.0,13.0,0.0,5.0,1650917077387972.0
0.0,3.0,6.0,5.0,-5.0,9.0,4.0,1.0,1650917077389967.0
1.0,-1.0,-6.0,-8.0,-1.0,1.0,1.0,3.0,1650917077389967.0
-2.0,0.0,-2.0,-2.0,4.0,-1.0,1.0,0.0,1650917077402077.0
3.0,1.0,-2.0,1.0,-2.0,-18.0,-2.0,1.0,1650917077402077.0
-4.0,-2.0,2.0,5.0,-8.0,-14.0,-5.0,-3.0,1650917077411073.0
-1.0,-7.0,-15.0,-16.0,-10.0,1.0,-1.0,1.0,1650917077411073.0
-3.0,-1.0,3.0,7.0,12.0,23.0,-5.0,0.0,1650917077425330.0
4.0,2.0,-3.0,0.0,8.0,-1.0,6.0,1.0,1650917077425330.0
0.0,-2.0,-1.0,-2.0,4.0,4.0,0.0,0.0,1650917077427305.0
0.0,1.0,3.0,3.0,-2.0,2.0,1.0,3.0,1650917077427305.0
3.0,-1.0,1.0,-3.0,-8.0,-12.0,-1.0,-1.0,1650917077448590.0
1.0,0.0,5.0,2.0,2.0,2.0,-5.0,-2.0,1650917077448590.0
-6.0,-3.0,-15.0,-13.0,-10.0,-25.0,-7.0,-4.0,1650917077449597.0
-2.0,1.0,6.0,2.0,-9.0,-3.0,-4.0,0.0,1650917077449597.0
3.0,-3.0,-6.0,0.0,13.0,24.0,9.0,0.0,1650917077461573.0
0.0,5.0,9.0,9.0,16.0,26.0,16.0,3.0,1650917077461573.0
1.0,2.0,0.0,1.0,5.0,4.0,-1.0,1.0,1650917077470547.0
0.0,-2.0,-4.0,-10.0,-13.0,-15.0,-2.0,-1.0,1650917077470547.0
-6.0,-2.0,-1.0,8.0,-8.0,-19.0,-16.0,-7.0,1650917077485542.0
-1.0,1.0,3.0,-6.0,-14.0,-22.0,-8.0,-4.0,1650917077485542.0
5.0,0.0,-2.0,-6.0,-6.0,-15.0,3.0,6.0,1650917077487503.0
-4.0,3.0,2.0,4.0,11.0,24.0,5.0,2.0,1650917077487503.0
-1.0,0.0,0.0,2.0,10.0,19.0,0.0,1.0,1650917077508614.0
3.0,-5.0,-4.0,0.0,5.0,2.0,5.0,1.0,1650917077508614.0
-2.0,0.0,1.0,-1.0,1.0,-4.0,-18.0,-3.0,1650917077509614.0
3.0,1.0,3.0,1.0,-5.0,-3.0,19.0,4.0,1650917077509614.0
-3.0,1.0,-3.0,-7.0,-7.0,-14.0,-5.0,0.0,1650917077521898.0
-1.0,0.0,-3.0,-3.0,-6.0,-10.0,-1.0,1.0,1650917077521898.0
-6.0,-4.0,1.0,2.0,-7.0,-2.0,-4.0,-3.0,1650917077530902.0
2.0,-2.0,-4.0,-3.0,0.0,6.0,2.0,-5.0,1650917077530902.0
0.0,2.0,-5.0,-5.0,11.0,13.0,-3.0,7.0,1650917077546092.0
-7.0,-5.0,-10.0,-6.0,4.0,1.0,14.0,2.0,1650917077546092.0
4.0,3.0,4.0,3.0,7.0,11.0,2.0,2.0,1650917077547082.0
0.0,1.0,9.0,15.0,0.0,-1.0,-8.0,-10.0,1650917077547082.0
1.0,-3.0,-3.0,-6.0,-15.0,-23.0,-6.0,-4.0,1650917077568345.0
-9.0,-2.0,-2.0,-3.0,-5.0,-16.0,-12.0,-2.0,1650917077568345.0
-4.0,-1.0,-3.0,-4.0,-12.0,-7.0,0.0,-2.0,1650917077569348.0
-1.0,-5.0,-5.0,-3.0,9.0,31.0,5.0,4.0,1650917077569348.0
1.0,1.0,8.0,7.0,15.0,13.0,2.0,1.0,1650917077582345.0
8.0,1.0,7.0,7.0,8.0,18.0,13.0,6.0,1650917077582345.0
-2.0,-2.0,7.0,3.0,2.0,-9.0,2.0,-4.0,1650917077590291.0
-3.0,-7.0,-14.0,-7.0,-13.0,-24.0,-11.0,-4.0,1650917077590291.0
-6.0,-7.0,-6.0,-6.0,-14.0,-8.0,0.0,-3.0,1650917077605281.0
0.0,0.0,2.0,-2.0,-1.0,-5.0,-9.0,-4.0,1650917077605281.0
1.0,0.0,4.0,5.0,4.0,8.0,7.0,1.0,1650917077607246.0
0.0,4.0,5.0,3.0,3.0,1.0,-1.0,2.0,1650917077607246.0
0.0,1.0,2.0,-1.0,-11.0,-9.0,-1.0,-2.0,1650917077628628.0
1.0,0.0,-1.0,-2.0,3.0,2.0,-4.0,-2.0,1650917077628628.0
-2.0,0.0,-2.0,0.0,12.0,16.0,2.0,2.0,1650917077629187.0
2.0,5.0,2.0,-1.0,2.0,-3.0,7.0,2.0,1650917077629187.0
0.0,-8.0,-5.0,-3.0,-18.0,-24.0,-8.0,-6.0,1650917077642217.0
-2.0,-2.0,-2.0,0.0,-18.0,-33.0,-6.0,-2.0,1650917077642217.0
-1.0,-1.0,0.0,-4.0,7.0,25.0,3.0,0.0,1650917077650278.0
1.0,-1.0,1.0,5.0,26.0,27.0,0.0,1.0,1650917077650278.0
2.0,4.0,4.0,10.0,20.0,22.0,15.0,5.0,1650917077665578.0
0.0,1.0,-2.0,-2.0,-12.0,-8.0,-6.0,-1.0,1650917077665578.0
-2.0,-2.0,-1.0,-4.0,-11.0,-34.0,-6.0,-4.0,1650917077667576.0
-2.0,0.0,-2.0,-6.0,-20.0,-16.0,-9.0,-1.0,1650917077667576.0
-3.0,-6.0,-4.0,-5.0,-3.0,6.0,0.0,-1.0,1650917077688572.0
-1.0,1.0,3.0,3.0,10.0,14.0,-9.0,-5.0,1650917077688572.0
4.0,-1.0,-4.0,1.0,9.0,16.0,18.0,5.0,1650917077689571.0
0.0,1.0,10.0,8.0,3.0,-8.0,-1.0,1.0,1650917077689571.0
1.0,4.0,2.0,-4.0,-6.0,-12.0,-10.0,-2.0,1650917077701926.0
-1.0,-4.0,-11.0,-4.0,-9.0,-5.0,-1.0,-5.0,1650917077701926.0
-2.0,-1.0,-4.0,-1.0,3.0,4.0,-2.0,-2.0,1650917077710920.0
0.0,-3.0,-6.0,-9.0,-2.0,-5.0,-1.0,2.0,1650917077710920.0
0.0,0.0,-2.0,-4.0,-19.0,-36.0,-3.0,-2.0,1650917077726058.0
1.0,2.0,-6.0,-9.0,-5.0,12.0,-8.0,-2.0,1650917077726058.0
0.0,1.0,4.0,9.0,15.0,30.0,12.0,2.0,1650917077727021.0
4.0,-1.0,6.0,10.0,28.0,19.0,12.0,4.0,1650917077727021.0
-1.0,3.0,5.0,7.0,11.0,12.0,1.0,3.0,1650917077748154.0
-2.0,0.0,-1.0,-5.0,-10.0,-23.0,-4.0,-10.0,1650917077748154.0
-4.0,-4.0,-6.0,-9.0,-23.0,-20.0,-13.0,3.0,1650917077749151.0
-3.0,-2.0,0.0,1.0,-17.0,-4.0,-7.0,-11.0,1650917077749151.0
-1.0,-3.0,-6.0,-6.0,-4.0,-7.0,-3.0,0.0,1650917077761449.0
0.0,-3.0,0.0,-2.0,-7.0,-27.0,1.0,2.0,1650917077761449.0
-2.0,-7.0,0.0,2.0,9.0,26.0,6.0,0.0,1650917077770978.0
1.0,-1.0,-4.0,-2.0,14.0,8.0,4.0,3.0,1650917077770978.0
2.0,0.0,10.0,9.0,14.0,18.0,4.0,1.0,1650917077785970.0
1.0,2.0,3.0,4.0,4.0,10.0,3.0,0.0,1650917077785970.0
-2.0,1.0,1.0,-2.0,-14.0,-23.0,-10.0,-4.0,1650917077786935.0
-1.0,-2.0,-11.0,-14.0,-17.0,-23.0,-5.0,0.0,1650917077786935.0
-3.0,0.0,-4.0,-6.0,-14.0,-15.0,-4.0,-3.0,1650917077807877.0
3.0,-2.0,-6.0,-9.0,11.0,33.0,4.0,3.0,1650917077807877.0
-3.0,-4.0,1.0,8.0,13.0,0.0,1.0,-4.0,1650917077809871.0
1.0,2.0,3.0,8.0,3.0,9.0,7.0,3.0,1650917077809871.0
2.0,2.0,1.0,1.0,13.0,14.0,7.0,2.0,1650917077830746.0
-1.0,-2.0,6.0,8.0,6.0,3.0,0.0,0.0,1650917077830746.0
2.0,4.0,-7.0,-8.0,-11.0,-10.0,-7.0,-1.0,1650917077831743.0
-10.0,-4.0,-4.0,-9.0,-18.0,-19.0,-8.0,-2.0,1650917077831743.0
-4.0,-3.0,1.0,0.0,-11.0,-7.0,7.0,-7.0,1650917077845706.0
2.0,1.0,-5.0,-4.0,4.0,6.0,5.0,3.0,1650917077845706.0
3.0,2.0,7.0,8.0,10.0,-1.0,-6.0,-2.0,1650917077846704.0
1.0,-1.0,2.0,1.0,5.0,3.0,-4.0,-1.0,1650917077846704.0
-3.0,-1.0,-4.0,-5.0,0.0,6.0,0.0,0.0,1650917077867647.0
1.0,0.0,2.0,4.0,5.0,-3.0,0.0,1.0,1650917077867647.0
2.0,3.0,1.0,-3.0,-6.0,7.0,2.0,3.0,1650917077869643.0
0.0,-3.0,3.0,-1.0,-4.0,-3.0,-2.0,-1.0,1650917077869643.0
0.0,1.0,-8.0,-4.0,-1.0,-6.0,-9.0,-5.0,1650917077890292.0
-2.0,-1.0,-1.0,-4.0,-17.0,-33.0,-2.0,-1.0,1650917077890292.0
1.0,3.0,6.0,4.0,-7.0,-3.0,0.0,1.0,1650917077892256.0
1.0,2.0,-9.0,-3.0,14.0,25.0,7.0,2.0,1650917077892256.0
2.0,1.0,12.0,24.0,32.0,35.0,7.0,2.0,1650917077905262.0
-1.0,1.0,-1.0,-2.0,-2.0,-3.0,-6.0,1.0,1650917077905262.0
0.0,-2.0,-2.0,-8.0,-12.0,-24.0,-1.0,-3.0,1650917077907215.0
-2.0,2.0,-1.0,-2.0,-16.0,-15.0,-6.0,-5.0,1650917077907215.0
0.0,-1.0,-9.0,-13.0,-10.0,-7.0,-13.0,-2.0,1650917077928573.0
1.0,3.0,4.0,2.0,-4.0,5.0,13.0,0.0,1650917077928573.0
-1.0,-2.0,1.0,2.0,-4.0,-9.0,1.0,0.0,1650917077929574.0
1.0,-1.0,-5.0,-3.0,17.0,14.0,3.0,3.0,1650917077929574.0
1.0,-1.0,4.0,8.0,9.0,-10.0,3.0,3.0,1650917077950527.0
0.0,0.0,3.0,4.0,5.0,33.0,0.0,1.0,1650917077950527.0
2.0,0.0,-2.0,-3.0,7.0,21.0,3.0,-1.0,1650917077952520.0
-2.0,-2.0,-3.0,0.0,-8.0,-14.0,-2.0,2.0,1650917077952520.0
2.0,0.0,0.0,-6.0,-13.0,-20.0,-7.0,-5.0,1650917077965621.0
-1.0,-8.0,-3.0,-4.0,-10.0,-24.0,-5.0,-5.0,1650917077965621.0
-1.0,2.0,-3.0,-4.0,-1.0,5.0,3.0,-1.0,1650917077967480.0
0.0,-2.0,0.0,7.0,5.0,3.0,0.0,2.0,1650917077967480.0
0.0,1.0,3.0,3.0,9.0,12.0,4.0,3.0,1650917077988621.0
-2.0,0.0,-2.0,-2.0,3.0,5.0,5.0,1.0,1650917077988621.0
2.0,-2.0,-5.0,-7.0,-9.0,-11.0,-5.0,-1.0,1650917077989621.0
-1.0,-3.0,7.0,3.0,-5.0,-6.0,-3.0,-2.0,1650917077989621.0
0.0,2.0,-4.0,-6.0,2.0,4.0,2.0,1.0,1650917078011714.0
1.0,-2.0,2.0,10.0,4.0,-10.0,-4.0,-1.0,1650917078011714.0
-5.0,-7.0,-7.0,-6.0,5.0,10.0,-4.0,1.0,1650917078012664.0
1.0,-1.0,3.0,-1.0,-3.0,12.0,6.0,-1.0,1650917078012664.0
-1.0,-1.0,0.0,1.0,-11.0,-5.0,2.0,0.0,1650917078024947.0
1.0,1.0,0.0,0.0,18.0,8.0,2.0,1.0,1650917078024947.0
-2.0,0.0,-1.0,0.0,-4.0,-7.0,-6.0,-4.0,1650917078032013.0
0.0,2.0,1.0,-1.0,-8.0,4.0,0.0,-1.0,1650917078032013.0
2.0,-1.0,-4.0,-6.0,-8.0,-7.0,2.0,0.0,1650917078049221.0
-1.0,2.0,3.0,2.0,-1.0,-2.0,-6.0,-1.0,1650917078049221.0
-1.0,-1.0,-1.0,0.0,3.0,3.0,2.0,-1.0,1650917078050220.0
3.0,1.0,2.0,2.0,4.0,-1.0,-9.0,1.0,1650917078050220.0
-2.0,-1.0,-6.0,-6.0,-1.0,-5.0,1.0,-3.0,1650917078070203.0
4.0,-1.0,-1.0,-2.0,-4.0,2.0,7.0,1.0,1650917078070203.0
-6.0,-2.0,-2.0,1.0,1.0,-3.0,0.0,-2.0,1650917078072201.0
0.0,0.0,-2.0,-5.0,-9.0,-11.0,-4.0,-1.0,1650917078072201.0
-1.0,4.0,-3.0,-1.0,0.0,-6.0,-2.0,1.0,1650917078085199.0
-2.0,-2.0,-2.0,2.0,-8.0,6.0,-1.0,-2.0,1650917078085199.0
2.0,-1.0,2.0,3.0,17.0,19.0,2.0,-1.0,1650917078092148.0
1.0,-4.0,-2.0,0.0,-6.0,-23.0,-2.0,0.0,1650917078092148.0
-2.0,2.0,2.0,-1.0,6.0,26.0,2.0,1.0,1650917078108104.0
-1.0,-1.0,2.0,2.0,-3.0,12.0,3.0,-4.0,1650917078108104.0
1.0,1.0,0.0,0.0,-12.0,-17.0,-1.0,0.0,1650917078110098.0
-3.0,3.0,1.0,0.0,-4.0,-16.0,-2.0,-3.0,1650917078110098.0
-3.0,-6.0,-5.0,-7.0,-1.0,-2.0,-2.0,0.0,1650917078131045.0
-1.0,2.0,3.0,5.0,11.0,13.0,0.0,2.0,1650917078131045.0
-1.0,-1.0,-1.0,1.0,2.0,7.0,2.0,1.0,1650917078132217.0
1.0,0.0,1.0,0.0,2.0,-3.0,2.0,-2.0,1650917078132217.0
1.0,-1.0,3.0,1.0,-11.0,-10.0,-4.0,0.0,1650917078145339.0
0.0,-2.0,-10.0,-7.0,1.0,-7.0,-4.0,2.0,1650917078145339.0
3.0,0.0,-4.0,-2.0,-5.0,-2.0,0.0,-5.0,1650917078151327.0
-9.0,-2.0,2.0,3.0,-7.0,6.0,1.0,2.0,1650917078151327.0
1.0,1.0,2.0,-2.0,3.0,1.0,-1.0,-5.0,1650917078169151.0
-1.0,1.0,11.0,5.0,4.0,-7.0,-2.0,0.0,1650917078169151.0
-1.0,0.0,-4.0,1.0,2.0,-4.0,3.0,5.0,1650917078170152.0
2.0,-4.0,-2.0,-2.0,-3.0,10.0,1.0,-2.0,1650917078170152.0
-2.0,-2.0,-10.0,-3.0,-4.0,-15.0,-3.0,-1.0,1650917078191268.0
-1.0,1.0,-1.0,-3.0,0.0,6.0,-3.0,-2.0,1650917078191268.0
4.0,4.0,11.0,11.0,1.0,3.0,5.0,0.0,1650917078192149.0
-2.0,-4.0,-13.0,-12.0,5.0,23.0,6.0,7.0,1650917078192149.0
1.0,0.0,3.0,4.0,-2.0,-14.0,-1.0,-3.0,1650917078205115.0
0.0,-2.0,-5.0,-3.0,1.0,4.0,-2.0,-6.0,1650917078205115.0
-5.0,-4.0,9.0,10.0,3.0,-4.0,-11.0,-12.0,1650917078212129.0
-2.0,1.0,4.0,-1.0,-8.0,-24.0,-7.0,-10.0,1650917078212129.0
10.0,3.0,7.0,8.0,8.0,27.0,11.0,9.0,1650917078228051.0
2.0,-2.0,-13.0,-12.0,0.0,2.0,14.0,25.0,1650917078228051.0
-2.0,3.0,-7.0,-11.0,-6.0,0.0,-4.0,-4.0,1650917078230079.0
-2.0,-4.0,3.0,5.0,0.0,-8.0,-9.0,-7.0,1650917078230079.0
-8.0,-8.0,5.0,10.0,-12.0,-25.0,-12.0,-28.0,1650917078250247.0
0.0,6.0,4.0,-1.0,-2.0,10.0,-5.0,5.0,1650917078250247.0
5.0,2.0,13.0,15.0,8.0,7.0,8.0,-16.0,1650917078252243.0
-2.0,3.0,3.0,2.0,0.0,3.0,0.0,4.0,1650917078252243.0
2.0,-2.0,-10.0,-13.0,-4.0,-5.0,1.0,16.0,1650917078265240.0
0.0,1.0,-3.0,-1.0,0.0,-6.0,0.0,8.0,1650917078265240.0
-2.0,-4.0,-16.0,-13.0,-17.0,-14.0,-4.0,-9.0,1650917078279201.0
7.0,2.0,7.0,9.0,12.0,25.0,6.0,-3.0,1650917078279201.0
0.0,18.0,13.0,11.0,15.0,26.0,12.0,26.0,1650917078288177.0
-3.0,23.0,9.0,6.0,3.0,-9.0,-4.0,-26.0,1650917078288177.0
-11.0,-38.0,-15.0,-12.0,-10.0,-17.0,-9.0,-6.0,1650917078290145.0
-3.0,-24.0,-6.0,-2.0,-5.0,-6.0,-5.0,0.0,1650917078290145.0
6.0,3.0,-4.0,-6.0,-7.0,3.0,1.0,12.0,1650917078310135.0
8.0,7.0,1.0,-1.0,-2.0,-4.0,1.0,6.0,1650917078310135.0
4.0,30.0,13.0,5.0,9.0,15.0,11.0,7.0,1650917078317978.0
-5.0,-5.0,-11.0,-4.0,5.0,2.0,5.0,8.0,1650917078317978.0
-18.0,-22.0,-2.0,-2.0,-6.0,-10.0,-6.0,-24.0,1650917078324560.0
-5.0,-36.0,-1.0,2.0,-16.0,-9.0,-5.0,-3.0,1650917078324560.0
0.0,2.0,-21.0,-16.0,-1.0,-9.0,-12.0,-24.0,1650917078333536.0
2.0,-24.0,-5.0,0.0,11.0,6.0,3.0,29.0,1650917078333536.0
11.0,29.0,0.0,1.0,3.0,12.0,-2.0,5.0,1650917078348140.0
3.0,19.0,10.0,-4.0,-4.0,8.0,9.0,-23.0,1650917078348140.0
6.0,18.0,11.0,7.0,9.0,6.0,-1.0,0.0,1650917078350104.0
13.0,29.0,6.0,1.0,-11.0,-11.0,15.0,17.0,1650917078350104.0
-2.0,-41.0,-5.0,-7.0,-2.0,-14.0,-4.0,-4.0,1650917078370341.0
-3.0,-1.0,-6.0,7.0,2.0,2.0,-5.0,12.0,1650917078370341.0
-3.0,6.0,19.0,25.0,23.0,15.0,0.0,7.0,1650917078372336.0
11.0,32.0,-12.0,-24.0,-6.0,11.0,-14.0,-37.0,1650917078372336.0
1.0,-10.0,4.0,-2.0,-8.0,6.0,18.0,17.0,1650917078384304.0
2.0,16.0,-3.0,-20.0,-22.0,-19.0,-1.0,27.0,1650917078384304.0
-1.0,-42.0,-12.0,-9.0,7.0,3.0,11.0,7.0,1650917078393281.0
-18.0,45.0,8.0,10.0,7.0,-12.0,-3.0,0.0,1650917078393281.0
11.0,-50.0,0.0,7.0,3.0,2.0,-12.0,-29.0,1650917078408240.0
2.0,2.0,-1.0,-5.0,4.0,0.0,-8.0,-11.0,1650917078408240.0
2.0,2.0,19.0,8.0,-12.0,-4.0,-11.0,2.0,1650917078409274.0
-18.0,14.0,14.0,13.0,-12.0,-19.0,-2.0,1.0,1650917078409274.0
11.0,-12.0,-15.0,-21.0,7.0,13.0,12.0,5.0,1650917078431050.0
-5.0,-15.0,14.0,27.0,12.0,6.0,6.0,13.0,1650917078431050.0
-30.0,-23.0,-23.0,-27.0,-20.0,-15.0,-22.0,-25.0,1650917078432235.0
10.0,-12.0,-17.0,-9.0,-7.0,0.0,-18.0,-35.0,1650917078432235.0
41.0,45.0,31.0,32.0,11.0,-8.0,7.0,33.0,1650917078444235.0
21.0,67.0,16.0,15.0,9.0,4.0,3.0,38.0,1650917078444235.0
-31.0,-24.0,-9.0,-2.0,22.0,13.0,11.0,-4.0,1650917078453743.0
-52.0,-51.0,-15.0,-7.0,-6.0,3.0,-4.0,-26.0,1650917078453743.0
-12.0,34.0,-20.0,-17.0,-9.0,3.0,11.0,13.0,1650917078468803.0
31.0,4.0,-3.0,0.0,-1.0,-5.0,-7.0,-14.0,1650917078468803.0
28.0,58.0,6.0,6.0,-13.0,-11.0,7.0,-5.0,1650917078469804.0
2.0,0.0,-20.0,-16.0,-8.0,-5.0,-14.0,-5.0,1650917078469804.0
-25.0,-15.0,-30.0,-27.0,3.0,11.0,-5.0,-13.0,1650917078490982.0
-9.0,12.0,8.0,12.0,-5.0,-10.0,-5.0,-14.0,1650917078490982.0
-25.0,-79.0,-18.0,-13.0,-12.0,-9.0,-13.0,3.0,1650917078491934.0
24.0,4.0,-2.0,-5.0,-7.0,2.0,8.0,21.0,1650917078491934.0
-20.0,-4.0,10.0,26.0,17.0,5.0,-1.0,3.0,1650917078504690.0
9.0,-2.0,-10.0,-15.0,-10.0,-1.0,2.0,-13.0,1650917078504690.0
-7.0,6.0,-22.0,-13.0,-14.0,-8.0,6.0,34.0,1650917078512899.0
-12.0,-41.0,-2.0,11.0,10.0,-3.0,14.0,-67.0,1650917078512899.0
17.0,59.0,11.0,-7.0,3.0,-4.0,-20.0,13.0,1650917078528150.0
-50.0,-58.0,-10.0,-20.0,-8.0,6.0,-1.0,-32.0,1650917078528150.0
56.0,57.0,18.0,25.0,36.0,10.0,-2.0,41.0,1650917078530145.0
22.0,7.0,19.0,25.0,-15.0,-13.0,13.0,-7.0,1650917078530145.0
-24.0,-32.0,-8.0,13.0,-44.0,-26.0,-18.0,69.0,1650917078550093.0
-7.0,12.0,-13.0,-34.0,37.0,7.0,-10.0,-52.0,1650917078550093.0
1.0,4.0,17.0,-22.0,-19.0,17.0,10.0,0.0,1650917078552088.0
28.0,10.0,13.0,0.0,28.0,5.0,3.0,38.0,1650917078552088.0
6.0,17.0,-12.0,-16.0,-31.0,-21.0,-7.0,-31.0,1650917078564054.0
10.0,30.0,13.0,42.0,16.0,12.0,19.0,20.0,1650917078564054.0
-15.0,-17.0,-13.0,3.0,8.0,39.0,1.0,-2.0,1650917078573033.0
-40.0,-49.0,4.0,10.0,21.0,-7.0,-22.0,-14.0,1650917078573033.0
34.0,-8.0,12.0,-21.0,-5.0,13.0,28.0,56.0,1650917078595371.0
-15.0,44.0,-6.0,-2.0,-16.0,-4.0,7.0,-66.0,1650917078595371.0
2.0,-12.0,-16.0,-7.0,2.0,-22.0,12.0,15.0,1650917078597367.0
-9.0,79.0,11.0,7.0,-4.0,11.0,-12.0,41.0,1650917078597367.0
2.0,0.0,4.0,6.0,25.0,-1.0,-17.0,-72.0,1650917078610472.0
-43.0,-84.0,-17.0,0.0,-41.0,-19.0,14.0,18.0,1650917078610472.0
13.0,30.0,-1.0,-6.0,14.0,-21.0,-19.0,-17.0,1650917078612469.0
23.0,-6.0,-7.0,-36.0,-6.0,-7.0,-8.0,18.0,1650917078612469.0
-16.0,1.0,-5.0,-3.0,-19.0,-11.0,3.0,-13.0,1650917078624579.0
