,EMG_s0,EMG_s1,EMG_s2,EMG_s3,EMG_s4,EMG_s5,EMG_s6,EMG_s7,timestamp,signal
0,0.0,1.0,-1.0,-2.0,0.0,-29.0,-4.0,-2.0,1650915185001195.0,0
1,-1.0,0.0,-5.0,-5.0,-9.0,-13.0,-5.0,-3.0,1650915185001195.0,0
2,1.0,0.0,-1.0,-4.0,-10.0,9.0,0.0,-3.0,1650915185021646.0,0
3,-6.0,-1.0,0.0,2.0,11.0,14.0,1.0,1.0,1650915185021646.0,0
4,1.0,0.0,-2.0,-1.0,12.0,6.0,5.0,2.0,1650915185021646.0,0
5,0.0,1.0,10.0,10.0,1.0,10.0,0.0,-1.0,1650915185021646.0,0
6,-2.0,-1.0,-1.0,1.0,-8.0,-7.0,0.0,-1.0,1650915185035795.0,0
7,2.0,-3.0,-3.0,0.0,-4.0,-26.0,-4.0,1.0,1650915185035795.0,0
8,0.0,-2.0,-1.0,-1.0,-4.0,2.0,-4.0,-1.0,1650915185036793.0,0
9,-3.0,-2.0,-7.0,-8.0,-2.0,-9.0,-1.0,-1.0,1650915185036793.0,0
10,0.0,0.0,2.0,1.0,3.0,-2.0,-1.0,0.0,1650915185059002.0,0
11,-1.0,0.0,1.0,1.0,-1.0,2.0,-2.0,-2.0,1650915185059002.0,0
12,-1.0,0.0,-4.0,-1.0,8.0,19.0,2.0,0.0,1650915185059002.0,0
13,2.0,0.0,-5.0,-5.0,-1.0,11.0,4.0,1.0,1650915185059002.0,0
14,1.0,0.0,11.0,10.0,-1.0,-5.0,-1.0,0.0,1650915185081487.0,0
15,1.0,1.0,-5.0,-6.0,-6.0,-14.0,-3.0,0.0,1650915185081487.0,0
16,-1.0,0.0,-2.0,1.0,-13.0,-18.0,-6.0,-3.0,1650915185081487.0,0
17,-1.0,-2.0,-1.0,0.0,0.0,-11.0,-1.0,-3.0,1650915185081487.0,0
18,0.0,0.0,-6.0,-3.0,9.0,15.0,1.0,1.0,1650915185096344.0,0
19,-1.0,0.0,5.0,2.0,6.0,13.0,4.0,0.0,1650915185096344.0,0
20,1.0,1.0,-1.0,-3.0,2.0,4.0,2.0,1.0,1650915185096344.0,0
21,-1.0,-1.0,5.0,3.0,-6.0,-13.0,-5.0,-2.0,1650915185096344.0,0
22,-2.0,-2.0,-4.0,-3.0,2.0,-12.0,-4.0,-1.0,1650915185117317.0,0
23,-1.0,-1.0,7.0,5.0,-8.0,2.0,0.0,1.0,1650915185117317.0,0
24,0.0,0.0,-4.0,-5.0,-1.0,9.0,1.0,-1.0,1650915185133881.0,0
25,-1.0,-1.0,-2.0,-1.0,5.0,0.0,-5.0,-1.0,1650915185133881.0,0
26,0.0,0.0,-1.0,3.0,12.0,17.0,4.0,1.0,1650915185141025.0,0
27,2.0,1.0,0.0,3.0,4.0,5.0,3.0,2.0,1650915185141025.0,0
28,-3.0,0.0,2.0,0.0,-5.0,-22.0,-1.0,-1.0,1650915185141862.0,0
29,0.0,0.0,0.0,-3.0,-11.0,-3.0,-3.0,0.0,1650915185141862.0,0
30,-2.0,-3.0,-3.0,-4.0,-13.0,9.0,-2.0,-2.0,1650915185164313.0,0
31,3.0,-2.0,-4.0,-1.0,14.0,18.0,4.0,1.0,1650915185164313.0,0
32,-7.0,0.0,0.0,2.0,5.0,4.0,1.0,3.0,1650915185164313.0,0
33,2.0,2.0,-1.0,2.0,-3.0,-13.0,-1.0,1.0,1650915185164313.0,0
34,0.0,0.0,-1.0,-3.0,-9.0,-17.0,-3.0,-1.0,1650915185178618.0,0
35,-1.0,-1.0,-3.0,-9.0,-16.0,-11.0,-5.0,-4.0,1650915185178618.0,0
36,2.0,-2.0,4.0,5.0,5.0,5.0,-1.0,-3.0,1650915185185637.0,0
37,0.0,1.0,-4.0,-3.0,3.0,-8.0,0.0,0.0,1650915185185637.0,0
38,0.0,0.0,8.0,10.0,14.0,15.0,5.0,1.0,1650915185200965.0,0
39,1.0,0.0,-2.0,2.0,0.0,4.0,1.0,1.0,1650915185200965.0,0
40,1.0,-2.0,2.0,-2.0,-1.0,1.0,-2.0,-1.0,1650915185201800.0,0
41,-3.0,0.0,-1.0,-1.0,-2.0,6.0,1.0,-1.0,1650915185201800.0,0
42,0.0,-1.0,-2.0,-1.0,8.0,3.0,1.0,1.0,1650915185224248.0,0
43,0.0,1.0,-3.0,-3.0,-11.0,-15.0,-1.0,-1.0,1650915185224248.0,0
44,-1.0,-2.0,-7.0,-9.0,-13.0,-16.0,-8.0,-5.0,1650915185224248.0,0
45,0.0,-3.0,2.0,2.0,-5.0,0.0,1.0,-1.0,1650915185224248.0,0
46,0.0,0.0,-4.0,-3.0,15.0,24.0,6.0,2.0,1650915185238538.0,0
47,0.0,1.0,5.0,8.0,20.0,16.0,4.0,1.0,1650915185238538.0,0
48,0.0,1.0,-3.0,-4.0,-14.0,-1.0,-2.0,1.0,1650915185246863.0,0
49,-2.0,-2.0,0.0,-3.0,-5.0,-16.0,-2.0,-3.0,1650915185246863.0,0
50,-3.0,0.0,0.0,1.0,-8.0,-7.0,-4.0,-3.0,1650915185269059.0,0
51,2.0,-2.0,-6.0,-6.0,-9.0,-23.0,-6.0,-2.0,1650915185269059.0,0
52,-1.0,-1.0,-1.0,-2.0,-2.0,13.0,0.0,-3.0,1650915185270026.0,0
53,-1.0,0.0,4.0,5.0,11.0,12.0,1.0,1.0,1650915185270026.0,0
54,1.0,2.0,0.0,1.0,4.0,-3.0,2.0,1.0,1650915185284422.0,0
55,-2.0,0.0,3.0,0.0,-3.0,-9.0,-1.0,-1.0,1650915185284422.0,0
56,0.0,-2.0,-2.0,-1.0,14.0,-9.0,-3.0,-1.0,1650915185284422.0,0
57,-2.0,-1.0,-4.0,-5.0,5.0,29.0,-1.0,-2.0,1650915185284422.0,0
58,-1.0,0.0,-1.0,-2.0,-18.0,-7.0,0.0,0.0,1650915185298545.0,0
59,0.0,2.0,1.0,2.0,5.0,-3.0,2.0,1.0,1650915185298545.0,0
60,-1.0,0.0,3.0,6.0,-3.0,-8.0,3.0,1.0,1650915185306638.0,0
61,0.0,-1.0,-2.0,-4.0,-4.0,-8.0,0.0,0.0,1650915185306638.0,0
62,0.0,-3.0,-5.0,-5.0,-2.0,-5.0,-8.0,-2.0,1650915185321946.0,0
63,-1.0,-2.0,-1.0,-2.0,-12.0,3.0,-2.0,-2.0,1650915185321946.0,0
64,3.0,1.0,3.0,4.0,9.0,20.0,5.0,0.0,1650915185321946.0,0
65,2.0,2.0,4.0,6.0,10.0,5.0,4.0,3.0,1650915185321946.0,0
66,-2.0,0.0,-1.0,-1.0,-4.0,-12.0,-1.0,-2.0,1650915185351914.0,0
67,-2.0,-1.0,-1.0,-1.0,-1.0,-5.0,-3.0,-1.0,1650915185351914.0,0
68,-1.0,-3.0,1.0,-2.0,-3.0,3.0,-3.0,-1.0,1650915185351914.0,0
69,-1.0,-1.0,-4.0,-7.0,-11.0,-10.0,-3.0,-1.0,1650915185351914.0,0
70,0.0,-2.0,-3.0,-5.0,-11.0,-15.0,-3.0,-1.0,1650915185367294.0,0
71,1.0,0.0,7.0,7.0,8.0,9.0,1.0,1.0,1650915185367294.0,0
72,-2.0,0.0,-2.0,3.0,10.0,9.0,1.0,2.0,1650915185367294.0,0
73,0.0,1.0,3.0,2.0,2.0,6.0,1.0,1.0,1650915185367294.0,0
74,0.0,-3.0,-9.0,-6.0,-4.0,-7.0,-2.0,0.0,1650915185381302.0,0
75,-1.0,0.0,-6.0,-4.0,-1.0,6.0,0.0,0.0,1650915185381302.0,0
76,0.0,-2.0,-2.0,-5.0,-17.0,-9.0,-1.0,-1.0,1650915185381302.0,0
77,0.0,-1.0,-2.0,4.0,9.0,2.0,-2.0,0.0,1650915185381302.0,0
78,1.0,1.0,2.0,0.0,-1.0,-11.0,-2.0,-2.0,1650915185403984.0,0
79,-3.0,-1.0,-1.0,-2.0,4.0,-4.0,-1.0,-3.0,1650915185403984.0,0
80,0.0,0.0,-2.0,-2.0,-14.0,3.0,2.0,0.0,1650915185403984.0,0
81,0.0,-2.0,-2.0,-1.0,9.0,4.0,0.0,0.0,1650915185403984.0,0
82,0.0,2.0,3.0,4.0,4.0,24.0,4.0,2.0,1650915185427039.0,0
83,0.0,-1.0,-7.0,-4.0,4.0,2.0,-2.0,0.0,1650915185427039.0,0
84,1.0,1.0,10.0,10.0,8.0,-7.0,2.0,0.0,1650915185427874.0,0
85,-1.0,-1.0,4.0,2.0,-6.0,-11.0,0.0,-1.0,1650915185427874.0,0
86,-1.0,-1.0,-2.0,-3.0,-4.0,-14.0,-3.0,-2.0,1650915185441466.0,0
87,-1.0,-3.0,-1.0,-4.0,-7.0,-7.0,-2.0,0.0,1650915185441466.0,0
88,-1.0,-2.0,-6.0,-6.0,-7.0,7.0,-2.0,-2.0,1650915185441466.0,0
89,0.0,-1.0,-3.0,-2.0,-2.0,-1.0,0.0,-1.0,1650915185441466.0,0
90,-2.0,-2.0,4.0,4.0,5.0,-1.0,-3.0,-2.0,1650915185463977.0,0
91,-2.0,0.0,-2.0,-5.0,-11.0,-7.0,-3.0,-3.0,1650915185463977.0,0
92,1.0,1.0,-2.0,-1.0,14.0,12.0,0.0,1.0,1650915185463977.0,0
93,0.0,-1.0,-1.0,0.0,2.0,4.0,1.0,1.0,1650915185463977.0,0
94,2.0,2.0,7.0,10.0,3.0,12.0,3.0,1.0,1650915185487028.0,0
95,0.0,0.0,-3.0,-5.0,-6.0,-5.0,3.0,0.0,1650915185487028.0,0
96,0.0,0.0,-2.0,-2.0,-1.0,1.0,-3.0,-1.0,1650915185487028.0,0
97,0.0,0.0,-3.0,-6.0,-10.0,-7.0,-5.0,-3.0,1650915185487028.0,0
98,-1.0,0.0,1.0,-1.0,0.0,-4.0,1.0,0.0,1650915185501180.0,0
99,-1.0,-1.0,0.0,1.0,8.0,4.0,-1.0,1.0,1650915185501180.0,0
100,-1.0,0.0,2.0,0.0,-10.0,-10.0,-1.0,-1.0,1650915185502020.0,0
101,-2.0,-1.0,-8.0,-5.0,-2.0,1.0,-1.0,-1.0,1650915185502020.0,0
102,1.0,0.0,1.0,1.0,9.0,2.0,-1.0,0.0,1650915185524123.0,0
103,1.0,1.0,3.0,3.0,2.0,15.0,1.0,1.0,1650915185524123.0,0
104,3.0,0.0,-2.0,-1.0,2.0,5.0,1.0,1.0,1650915185524123.0,0
105,0.0,0.0,2.0,1.0,-13.0,-7.0,1.0,-1.0,1650915185524123.0,0
106,-2.0,-1.0,-1.0,0.0,1.0,-5.0,-1.0,-1.0,1650915185546415.0,0
107,-3.0,-1.0,-8.0,-3.0,3.0,-3.0,0.0,-1.0,1650915185546415.0,0
108,-1.0,1.0,8.0,4.0,3.0,13.0,0.0,0.0,1650915185553399.0,0
109,-1.0,0.0,2.0,2.0,4.0,5.0,1.0,0.0,1650915185553399.0,0
110,1.0,0.0,-4.0,-3.0,-7.0,-12.0,-2.0,-2.0,1650915185561538.0,0
111,0.0,-2.0,2.0,-1.0,-6.0,-14.0,-4.0,-2.0,1650915185561538.0,0
112,-3.0,-2.0,-6.0,-5.0,-2.0,-2.0,-4.0,-3.0,1650915185561538.0,0
113,-2.0,0.0,-3.0,-3.0,-4.0,-4.0,-4.0,-2.0,1650915185561538.0,0
114,1.0,0.0,1.0,-1.0,-9.0,0.0,1.0,0.0,1650915185583173.0,0
115,-2.0,0.0,-3.0,2.0,26.0,15.0,4.0,1.0,1650915185583173.0,0
116,-2.0,-1.0,2.0,6.0,7.0,9.0,3.0,1.0,1650915185584007.0,0
117,-1.0,0.0,1.0,1.0,5.0,7.0,1.0,-1.0,1650915185584007.0,0
118,2.0,-1.0,-2.0,-2.0,-5.0,-9.0,-1.0,0.0,1650915185607447.0,0
119,0.0,-2.0,-1.0,-5.0,-20.0,-5.0,-2.0,-2.0,1650915185607447.0,0
120,-2.0,-2.0,-4.0,-7.0,-18.0,-38.0,-6.0,-4.0,1650915185607447.0,0
121,-1.0,-2.0,-1.0,-1.0,4.0,1.0,-4.0,-1.0,1650915185607447.0,0
122,-1.0,1.0,0.0,2.0,22.0,32.0,7.0,0.0,1650915185629775.0,0
123,1.0,1.0,1.0,4.0,10.0,18.0,7.0,2.0,1650915185629775.0,0
124,1.0,1.0,0.0,3.0,6.0,8.0,5.0,2.0,1650915185629775.0,0
125,-1.0,-2.0,1.0,-1.0,-24.0,-39.0,-7.0,-3.0,1650915185629775.0,0
126,-2.0,-3.0,-2.0,-3.0,-4.0,-2.0,-5.0,-2.0,1650915185643944.0,0
127,-1.0,0.0,1.0,2.0,8.0,13.0,-2.0,0.0,1650915185643944.0,0
128,1.0,-2.0,-5.0,-4.0,0.0,-5.0,-1.0,-1.0,1650915185643944.0,0
129,0.0,0.0,-4.0,-7.0,-16.0,-23.0,-4.0,0.0,1650915185643944.0,0
130,-4.0,-2.0,3.0,0.0,-18.0,-19.0,-7.0,-1.0,1650915185667667.0,0
131,-2.0,0.0,2.0,2.0,16.0,27.0,5.0,-1.0,1650915185667667.0,0
132,-1.0,2.0,1.0,8.0,22.0,26.0,6.0,2.0,1650915185667667.0,0
133,3.0,2.0,3.0,6.0,18.0,13.0,6.0,5.0,1650915185667667.0,0
134,1.0,-1.0,-2.0,-4.0,-7.0,-7.0,-3.0,-3.0,1650915185680992.0,0
135,-1.0,-2.0,-1.0,-6.0,-26.0,-38.0,-7.0,-1.0,1650915185680992.0,0
136,-1.0,-2.0,-1.0,-6.0,-10.0,3.0,-5.0,-3.0,1650915185681833.0,0
137,-2.0,0.0,0.0,1.0,2.0,14.0,2.0,-1.0,1650915185681833.0,0
138,2.0,-1.0,-2.0,2.0,12.0,-4.0,0.0,1.0,1650915185712175.0,0
139,2.0,0.0,5.0,3.0,-3.0,-7.0,-2.0,0.0,1650915185712175.0,0
140,-2.0,-2.0,-3.0,-4.0,-1.0,5.0,2.0,0.0,1650915185712175.0,0
141,-1.0,1.0,1.0,3.0,4.0,0.0,-1.0,-1.0,1650915185712175.0,0
142,-1.0,0.0,-2.0,0.0,5.0,-1.0,0.0,0.0,1650915185727131.0,0
143,-1.0,-1.0,-2.0,-1.0,-3.0,9.0,2.0,-1.0,1650915185727131.0,0
144,-1.0,-1.0,0.0,-1.0,-4.0,-14.0,-3.0,-1.0,1650915185727131.0,0
145,1.0,-3.0,-3.0,-6.0,-7.0,12.0,-2.0,-1.0,1650915185727131.0,0
146,-2.0,-1.0,-1.0,-1.0,-5.0,-6.0,-1.0,-1.0,1650915185741373.0,0
147,3.0,-1.0,-3.0,-2.0,5.0,-2.0,2.0,0.0,1650915185741373.0,0
148,0.0,2.0,4.0,6.0,11.0,8.0,7.0,3.0,1650915185741373.0,0
149,-1.0,-1.0,2.0,0.0,-7.0,-5.0,-3.0,-2.0,1650915185741373.0,0
150,-1.0,0.0,-3.0,-4.0,-6.0,-13.0,-7.0,-1.0,1650915185764502.0,0
151,-2.0,-1.0,-8.0,-6.0,7.0,7.0,-4.0,-3.0,1650915185764502.0,0
152,1.0,1.0,4.0,4.0,-8.0,-2.0,5.0,3.0,1650915185764502.0,0
153,0.0,1.0,0.0,-1.0,15.0,8.0,2.0,0.0,1650915185764502.0,0
154,-1.0,-1.0,1.0,-1.0,-5.0,2.0,-1.0,1.0,1650915185785764.0,0
155,-2.0,-2.0,0.0,-3.0,-12.0,-8.0,-2.0,-1.0,1650915185785764.0,0
156,-1.0,-1.0,-2.0,-1.0,1.0,8.0,-1.0,-2.0,1650915185794087.0,0
157,-1.0,-1.0,0.0,0.0,1.0,-2.0,3.0,0.0,1650915185794087.0,0
158,-1.0,-1.0,0.0,-5.0,-2.0,14.0,-1.0,0.0,1650915185801057.0,0
159,-4.0,0.0,-2.0,4.0,2.0,-19.0,-5.0,-2.0,1650915185801057.0,0
160,1.0,-2.0,0.0,0.0,-1.0,6.0,-2.0,-1.0,1650915185801896.0,0
161,1.0,0.0,3.0,2.0,5.0,4.0,1.0,0.0,1650915185801896.0,0
162,-1.0,-1.0,-3.0,-4.0,-4.0,1.0,2.0,0.0,1650915185823844.0,0
163,1.0,2.0,-1.0,-5.0,-16.0,-15.0,-1.0,1.0,1650915185823844.0,0
164,-1.0,-1.0,12.0,14.0,-11.0,-21.0,-7.0,-3.0,1650915185823844.0,0
165,2.0,1.0,-4.0,-5.0,20.0,22.0,2.0,1.0,1650915185823844.0,0
166,-1.0,1.0,-1.0,5.0,13.0,14.0,6.0,1.0,1650915185847131.0,0
167,0.0,0.0,0.0,0.0,-3.0,-3.0,-3.0,-1.0,1650915185847131.0,0
168,1.0,0.0,-4.0,-7.0,-9.0,-8.0,-2.0,-1.0,1650915185847131.0,0
169,-2.0,-2.0,2.0,4.0,-6.0,-8.0,0.0,-1.0,1650915185847131.0,0
170,0.0,1.0,0.0,3.0,9.0,8.0,4.0,2.0,1650915185861185.0,0
171,-1.0,-1.0,2.0,2.0,0.0,-2.0,-3.0,-1.0,1650915185861185.0,0
172,-2.0,-1.0,-7.0,-6.0,-2.0,-4.0,-6.0,-2.0,1650915185862032.0,0
173,-1.0,-4.0,-8.0,-7.0,-8.0,-3.0,-2.0,-2.0,1650915185862032.0,0
174,0.0,-1.0,0.0,0.0,-9.0,-12.0,1.0,1.0,1650915185883017.0,0
175,0.0,-2.0,-1.0,0.0,0.0,-10.0,-3.0,0.0,1650915185883017.0,0
176,-1.0,0.0,-2.0,-3.0,8.0,7.0,1.0,-2.0,1650915185883970.0,0
177,-2.0,1.0,-4.0,0.0,4.0,12.0,3.0,0.0,1650915185883970.0,0
178,2.0,-1.0,4.0,6.0,20.0,25.0,2.0,2.0,1650915185906909.0,0
179,-1.0,3.0,0.0,1.0,-2.0,5.0,2.0,0.0,1650915185906909.0,0
180,-2.0,-2.0,-6.0,-8.0,-12.0,-20.0,-4.0,-2.0,1650915185906909.0,0
181,1.0,0.0,0.0,-5.0,-15.0,-23.0,-6.0,-1.0,1650915185906909.0,0
182,1.0,-2.0,-2.0,-5.0,-24.0,-25.0,-1.0,-4.0,1650915185919884.0,0
183,-5.0,-1.0,2.0,7.0,30.0,31.0,1.0,1.0,1650915185919884.0,0
184,0.0,0.0,-2.0,-3.0,9.0,20.0,4.0,1.0,1650915185928851.0,0
185,-2.0,1.0,-1.0,2.0,-3.0,-5.0,1.0,1.0,1650915185928851.0,0
186,0.0,1.0,3.0,2.0,-10.0,-6.0,-3.0,0.0,1650915185943824.0,0
187,0.0,-2.0,-4.0,-9.0,-16.0,-10.0,-4.0,-2.0,1650915185943824.0,0
188,0.0,0.0,-1.0,4.0,8.0,1.0,3.0,0.0,1650915185943824.0,0
189,1.0,-1.0,4.0,1.0,-7.0,-1.0,0.0,1.0,1650915185943824.0,0
190,-2.0,-2.0,0.0,2.0,-1.0,0.0,-1.0,-2.0,1650915185966943.0,0
191,0.0,1.0,2.0,2.0,-1.0,-2.0,-2.0,-1.0,1650915185966943.0,0
192,-1.0,-1.0,-3.0,-2.0,4.0,0.0,-3.0,-1.0,1650915185966943.0,0
193,-2.0,-1.0,1.0,1.0,-3.0,-10.0,-3.0,-2.0,1650915185966943.0,0
194,-2.0,-1.0,-5.0,-6.0,-9.0,-13.0,-1.0,-1.0,1650915185989855.0,0
195,0.0,-3.0,-1.0,1.0,-2.0,7.0,1.0,0.0,1650915185989855.0,0
196,1.0,0.0,1.0,2.0,-1.0,2.0,2.0,1.0,1650915185989855.0,0
197,0.0,-1.0,0.0,4.0,17.0,12.0,4.0,1.0,1650915185989855.0,0
198,-2.0,0.0,0.0,2.0,6.0,9.0,1.0,-1.0,1650915186003869.0,0
199,3.0,-1.0,-4.0,-2.0,1.0,5.0,1.0,-1.0,1650915186003869.0,0
200,0.0,-2.0,0.0,0.0,-15.0,-15.0,-4.0,-1.0,1650915186003869.0,0
201,-1.0,-2.0,-1.0,0.0,2.0,-9.0,-4.0,-1.0,1650915186003869.0,0
202,-2.0,0.0,-1.0,-2.0,-19.0,-27.0,-3.0,-1.0,1650915186033787.0,0
203,-1.0,0.0,7.0,1.0,-1.0,25.0,5.0,1.0,1650915186033787.0,0
204,-1.0,0.0,5.0,9.0,14.0,25.0,3.0,3.0,1650915186034745.0,0
205,0.0,0.0,0.0,0.0,7.0,0.0,-1.0,-2.0,1650915186034745.0,0
206,-1.0,-2.0,-5.0,-4.0,-3.0,0.0,0.0,-1.0,1650915186039761.0,0
207,-2.0,1.0,-2.0,-4.0,-7.0,-21.0,-3.0,-2.0,1650915186039761.0,0
208,-3.0,-2.0,-4.0,-8.0,-15.0,-36.0,-7.0,-2.0,1650915186048727.0,0
209,-4.0,-1.0,1.0,1.0,1.0,12.0,-1.0,0.0,1650915186048727.0,0
210,2.0,1.0,0.0,4.0,22.0,36.0,6.0,2.0,1650915186063711.0,0
211,1.0,0.0,1.0,3.0,4.0,8.0,4.0,4.0,1650915186063711.0,0
212,0.0,1.0,-5.0,-4.0,-1.0,-8.0,-2.0,-2.0,1650915186070897.0,0
213,-1.0,0.0,5.0,0.0,-27.0,-21.0,-3.0,-3.0,1650915186070897.0,0
214,-2.0,-2.0,0.0,-3.0,3.0,-5.0,-2.0,-1.0,1650915186086582.0,0
215,-1.0,0.0,0.0,4.0,5.0,10.0,1.0,-1.0,1650915186086582.0,0
216,1.0,-1.0,-6.0,-2.0,12.0,14.0,2.0,1.0,1650915186087501.0,0
217,2.0,0.0,-2.0,1.0,-2.0,-15.0,-3.0,0.0,1650915186087501.0,0
218,-2.0,-1.0,-2.0,-6.0,-25.0,-22.0,-2.0,0.0,1650915186108816.0,0
219,0.0,-4.0,5.0,2.0,6.0,6.0,-1.0,0.0,1650915186108816.0,0
220,0.0,0.0,0.0,1.0,10.0,16.0,2.0,0.0,1650915186109814.0,0
221,5.0,0.0,-1.0,1.0,14.0,11.0,3.0,0.0,1650915186109814.0,0
222,-5.0,1.0,2.0,-2.0,-3.0,-3.0,-3.0,0.0,1650915186123950.0,0
223,1.0,1.0,0.0,3.0,-14.0,-17.0,-3.0,-1.0,1650915186123950.0,0
224,-2.0,-2.0,-8.0,-11.0,-7.0,-8.0,-1.0,-2.0,1650915186123950.0,0
225,-2.0,-1.0,6.0,4.0,2.0,8.0,-1.0,-1.0,1650915186123950.0,0
226,1.0,0.0,0.0,-1.0,15.0,11.0,1.0,1.0,1650915186146906.0,0
227,0.0,0.0,-2.0,-1.0,-3.0,-2.0,3.0,-1.0,1650915186146906.0,0
228,0.0,-1.0,0.0,-3.0,-8.0,-13.0,-5.0,-2.0,1650915186146906.0,0
229,-4.0,-3.0,-8.0,-9.0,-14.0,-12.0,-6.0,-1.0,1650915186146906.0,0
230,0.0,-1.0,1.0,2.0,12.0,12.0,0.0,1.0,1650915186160016.0,0
231,-2.0,-1.0,1.0,-1.0,0.0,5.0,3.0,-1.0,1650915186160016.0,0
232,-1.0,1.0,7.0,10.0,8.0,7.0,4.0,-1.0,1650915186168774.0,0
233,0.0,1.0,-8.0,-6.0,-8.0,-8.0,-1.0,0.0,1650915186168774.0,0
234,3.0,1.0,-4.0,-1.0,-8.0,6.0,1.0,0.0,1650915186184429.0,0
235,0.0,1.0,5.0,3.0,17.0,16.0,0.0,0.0,1650915186184429.0,0
236,-2.0,1.0,1.0,2.0,-20.0,-23.0,-2.0,-2.0,1650915186185110.0,0
237,0.0,-2.0,1.0,-4.0,1.0,-2.0,-5.0,-1.0,1650915186185110.0,0
238,-2.0,-2.0,0.0,1.0,-5.0,7.0,0.0,-1.0,1650915186206544.0,0
239,1.0,0.0,-5.0,-4.0,-5.0,-13.0,0.0,-1.0,1650915186206544.0,0
240,0.0,-2.0,-1.0,0.0,-1.0,-11.0,-2.0,-1.0,1650915186207544.0,0
241,-2.0,1.0,5.0,7.0,17.0,22.0,3.0,-1.0,1650915186207544.0,0
242,0.0,0.0,2.0,5.0,13.0,12.0,4.0,0.0,1650915186220859.0,0
243,-3.0,0.0,-3.0,-1.0,-9.0,-10.0,-2.0,-1.0,1650915186220859.0,0
244,0.0,-3.0,-5.0,-10.0,-11.0,-5.0,-1.0,-1.0,1650915186229058.0,0
245,0.0,-3.0,-4.0,-4.0,-11.0,-3.0,-4.0,1.0,1650915186229058.0,0
246,2.0,-1.0,0.0,0.0,3.0,-7.0,-1.0,-1.0,1650915186244354.0,0
247,-2.0,-1.0,-4.0,-1.0,10.0,-1.0,-2.0,0.0,1650915186244354.0,0
248,1.0,0.0,8.0,6.0,9.0,9.0,1.0,2.0,1650915186244354.0,0
249,-2.0,-2.0,-5.0,-5.0,-11.0,-4.0,2.0,-1.0,1650915186244354.0,0
250,2.0,1.0,1.0,1.0,-7.0,3.0,0.0,-2.0,1650915186267469.0,0
251,-5.0,-2.0,-3.0,-1.0,6.0,3.0,0.0,0.0,1650915186267469.0,0
252,-2.0,1.0,-4.0,0.0,8.0,8.0,-1.0,0.0,1650915186267469.0,0
253,0.0,0.0,-1.0,0.0,2.0,-18.0,-3.0,0.0,1650915186267469.0,0
254,-2.0,-3.0,-2.0,-4.0,-18.0,2.0,-4.0,-1.0,1650915186290034.0,0
255,0.0,-2.0,-4.0,0.0,-5.0,4.0,1.0,0.0,1650915186290034.0,0
256,-2.0,-2.0,-4.0,-3.0,7.0,-12.0,-5.0,-3.0,1650915186290034.0,0
257,1.0,-3.0,1.0,3.0,-1.0,10.0,4.0,0.0,1650915186290034.0,0
258,1.0,3.0,-2.0,-2.0,7.0,-7.0,0.0,-1.0,1650915186303832.0,0
259,3.0,2.0,2.0,6.0,-1.0,3.0,1.0,1.0,1650915186303832.0,0
260,-1.0,1.0,0.0,-2.0,1.0,3.0,3.0,1.0,1650915186311971.0,0
261,-1.0,0.0,-2.0,-1.0,-5.0,-9.0,-5.0,-3.0,1650915186311971.0,0
262,-3.0,-2.0,-4.0,-6.0,-9.0,-12.0,-3.0,-1.0,1650915186326387.0,0
263,0.0,0.0,1.0,0.0,7.0,8.0,-1.0,-2.0,1650915186326387.0,0
264,0.0,-1.0,5.0,2.0,-8.0,-5.0,0.0,-1.0,1650915186327398.0,0
265,1.0,0.0,-5.0,-4.0,0.0,-4.0,-1.0,-1.0,1650915186327398.0,0
266,-2.0,-1.0,2.0,2.0,13.0,8.0,1.0,-2.0,1650915186349943.0,0
267,-1.0,-1.0,-4.0,-3.0,-5.0,2.0,0.0,-2.0,1650915186349943.0,0
268,1.0,1.0,-2.0,0.0,-6.0,3.0,3.0,2.0,1650915186349943.0,0
269,-2.0,0.0,0.0,-3.0,-10.0,4.0,-2.0,-1.0,1650915186349943.0,0
270,1.0,-1.0,-1.0,0.0,9.0,-3.0,-5.0,-1.0,1650915186364584.0,0
271,0.0,-3.0,-2.0,-2.0,-5.0,-27.0,-5.0,-3.0,1650915186364584.0,0
272,-1.0,0.0,-3.0,0.0,0.0,-1.0,0.0,0.0,1650915186364584.0,0
273,1.0,0.0,-1.0,-3.0,3.0,-1.0,2.0,2.0,1650915186364584.0,0
274,-2.0,-2.0,-1.0,-2.0,10.0,28.0,5.0,1.0,1650915186386222.0,0
275,2.0,0.0,5.0,5.0,2.0,-10.0,-1.0,1.0,1650915186386222.0,0
276,-1.0,-2.0,-3.0,-4.0,-15.0,6.0,-2.0,-1.0,1650915186394346.0,0
277,-2.0,-1.0,-2.0,-2.0,-3.0,-1.0,4.0,-1.0,1650915186394346.0,0
278,0.0,1.0,4.0,6.0,10.0,9.0,4.0,1.0,1650915186408920.0,0
279,0.0,1.0,0.0,3.0,15.0,18.0,6.0,1.0,1650915186408920.0,0
280,0.0,2.0,1.0,4.0,2.0,-6.0,-1.0,-1.0,1650915186409857.0,0
281,-2.0,-1.0,-3.0,-4.0,-4.0,-16.0,-5.0,-2.0,1650915186409857.0,0
282,1.0,-2.0,-7.0,-8.0,-10.0,2.0,-6.0,-1.0,1650915186424002.0,0
283,-2.0,-1.0,5.0,2.0,-10.0,0.0,-1.0,0.0,1650915186424002.0,0
284,0.0,1.0,0.0,5.0,14.0,-2.0,2.0,1.0,1650915186424002.0,0
285,1.0,0.0,1.0,2.0,-3.0,-1.0,0.0,-1.0,1650915186424002.0,0
286,-2.0,-1.0,0.0,-4.0,-6.0,-16.0,-5.0,0.0,1650915186446407.0,0
287,-2.0,-1.0,-7.0,-7.0,-8.0,7.0,1.0,-1.0,1650915186446407.0,0
288,-1.0,0.0,1.0,-1.0,-1.0,9.0,3.0,0.0,1650915186446407.0,0
289,1.0,0.0,1.0,1.0,0.0,1.0,-1.0,1.0,1650915186446407.0,0
290,-1.0,-1.0,-3.0,-1.0,2.0,-8.0,0.0,-2.0,1650915186468857.0,0
291,-2.0,-1.0,2.0,3.0,-9.0,-8.0,-3.0,-2.0,1650915186468857.0,0
292,1.0,0.0,3.0,3.0,11.0,1.0,1.0,2.0,1650915186469857.0,0
293,0.0,-2.0,-8.0,-11.0,-1.0,19.0,-1.0,-1.0,1650915186469857.0,0
294,2.0,1.0,-2.0,2.0,3.0,-10.0,0.0,-1.0,1650915186484512.0,0
295,-1.0,-1.0,-3.0,-7.0,-1.0,1.0,1.0,-1.0,1650915186484512.0,0
296,-2.0,-4.0,0.0,2.0,-3.0,1.0,0.0,-4.0,1650915186484512.0,0
297,0.0,-2.0,1.0,0.0,-1.0,-2.0,-2.0,-2.0,1650915186484512.0,0
298,0.0,-2.0,0.0,1.0,-7.0,-8.0,-1.0,0.0,1650915186505985.0,0
299,-1.0,-1.0,-5.0,-3.0,-9.0,-12.0,-3.0,-1.0,1650915186505985.0,0
300,0.0,0.0,-2.0,0.0,13.0,27.0,1.0,1.0,1650915186506985.0,0
301,-2.0,3.0,0.0,4.0,4.0,9.0,5.0,0.0,1650915186506985.0,0
302,0.0,0.0,2.0,-2.0,-7.0,-11.0,-3.0,0.0,1650915186529160.0,0
303,-1.0,-2.0,0.0,-4.0,-12.0,-19.0,-7.0,-2.0,1650915186529160.0,0
304,-1.0,0.0,-2.0,-3.0,-7.0,-9.0,-3.0,-1.0,1650915186530122.0,0
305,1.0,-2.0,3.0,6.0,14.0,12.0,2.0,1.0,1650915186530122.0,0
306,0.0,-1.0,1.0,5.0,8.0,3.0,3.0,-1.0,1650915186543425.0,0
307,-1.0,-1.0,-3.0,-6.0,-6.0,-13.0,-5.0,-2.0,1650915186543425.0,0
308,0.0,1.0,-4.0,-7.0,-7.0,4.0,-4.0,-1.0,1650915186544258.0,0
309,-1.0,0.0,2.0,8.0,5.0,4.0,0.0,-2.0,1650915186544258.0,0
310,-1.0,0.0,-2.0,-4.0,-4.0,-5.0,-1.0,-1.0,1650915186566585.0,0
311,-2.0,0.0,-2.0,-1.0,3.0,3.0,0.0,1.0,1650915186566585.0,0
312,2.0,-3.0,0.0,1.0,1.0,7.0,2.0,0.0,1650915186566726.0,0
313,-1.0,0.0,1.0,-1.0,-3.0,-10.0,1.0,1.0,1650915186566726.0,0
314,1.0,2.0,8.0,9.0,-3.0,5.0,1.0,0.0,1650915186589371.0,0
315,1.0,2.0,-3.0,-7.0,5.0,8.0,1.0,1.0,1650915186589371.0,0
316,-3.0,-1.0,-3.0,-1.0,-3.0,-10.0,-2.0,-2.0,1650915186590204.0,0
317,-2.0,-2.0,4.0,2.0,5.0,-1.0,-3.0,-2.0,1650915186590204.0,0
318,0.0,0.0,-2.0,3.0,11.0,4.0,1.0,0.0,1650915186604153.0,0
319,-1.0,-1.0,0.0,0.0,-4.0,0.0,0.0,0.0,1650915186604153.0,0
320,-2.0,0.0,-1.0,-5.0,-13.0,-18.0,-4.0,-1.0,1650915186604153.0,0
321,0.0,-3.0,-2.0,-4.0,-11.0,1.0,-2.0,-1.0,1650915186604153.0,0
322,-1.0,-2.0,3.0,-4.0,2.0,5.0,0.0,-1.0,1650915186627077.0,0
323,0.0,-1.0,-1.0,2.0,7.0,15.0,2.0,-1.0,1650915186627077.0,0
324,-1.0,0.0,3.0,2.0,3.0,-6.0,5.0,0.0,1650915186634329.0,0
325,-1.0,0.0,-4.0,-5.0,1.0,3.0,-2.0,-1.0,1650915186634329.0,0
326,-1.0,-1.0,-1.0,-2.0,-9.0,-26.0,-4.0,-2.0,1650915186656997.0,0
327,-1.0,-1.0,-2.0,-6.0,-14.0,-3.0,1.0,0.0,1650915186656997.0,0
328,-2.0,-1.0,-2.0,1.0,15.0,21.0,-3.0,-1.0,1650915186656997.0,0
329,1.0,1.0,2.0,4.0,14.0,17.0,7.0,2.0,1650915186656997.0,0
330,-1.0,-2.0,2.0,3.0,-3.0,1.0,2.0,0.0,1650915186663967.0,0
331,2.0,1.0,-4.0,-5.0,-9.0,-17.0,-3.0,0.0,1650915186663967.0,0
332,-3.0,0.0,4.0,3.0,-10.0,-12.0,-4.0,-4.0,1650915186663967.0,0
333,-2.0,-3.0,-11.0,-9.0,-4.0,-10.0,-5.0,0.0,1650915186663967.0,0
334,-5.0,-3.0,1.0,2.0,2.0,6.0,0.0,-2.0,1650915186685794.0,0
335,0.0,-1.0,-3.0,-3.0,-5.0,-4.0,0.0,-2.0,1650915186685794.0,0
336,1.0,-1.0,-1.0,-2.0,2.0,1.0,3.0,1.0,1650915186686792.0,0
337,-1.0,1.0,1.0,4.0,2.0,3.0,-1.0,-1.0,1650915186686792.0,0
338,-1.0,-1.0,0.0,0.0,-7.0,0.0,0.0,1.0,1650915186709256.0,0
339,0.0,0.0,3.0,1.0,6.0,-1.0,0.0,0.0,1650915186709256.0,0
340,2.0,0.0,1.0,3.0,3.0,3.0,1.0,1.0,1650915186710092.0,0
341,0.0,-2.0,-5.0,-1.0,-1.0,-9.0,-1.0,-2.0,1650915186710092.0,0
342,0.0,1.0,0.0,0.0,-11.0,-10.0,-2.0,-2.0,1650915186724016.0,0
343,-1.0,-1.0,8.0,4.0,3.0,6.0,1.0,1.0,1650915186724016.0,0
344,1.0,-1.0,-9.0,-3.0,15.0,9.0,1.0,5.0,1650915186724016.0,0
345,2.0,2.0,3.0,4.0,7.0,8.0,5.0,1.0,1650915186724016.0,0
346,0.0,-1.0,-8.0,-13.0,-8.0,2.0,0.0,2.0,1650915186746492.0,0
347,0.0,-2.0,6.0,10.0,0.0,-5.0,-3.0,-5.0,1650915186746492.0,0
348,-2.0,-1.0,-1.0,-6.0,-16.0,-12.0,-6.0,0.0,1650915186746492.0,0
349,-2.0,-1.0,-4.0,-4.0,-9.0,-7.0,-4.0,-2.0,1650915186746492.0,0
350,-5.0,-1.0,-2.0,-3.0,5.0,3.0,-2.0,-2.0,1650915186768723.0,0
351,4.0,-3.0,-6.0,-6.0,-5.0,-14.0,-4.0,2.0,1650915186768723.0,0
352,4.0,2.0,-2.0,-2.0,-14.0,-16.0,0.0,0.0,1650915186769723.0,0
353,-5.0,-1.0,13.0,13.0,11.0,24.0,2.0,0.0,1650915186769723.0,0
354,2.0,4.0,0.0,3.0,16.0,26.0,8.0,3.0,1650915186783844.0,0
355,-1.0,1.0,-2.0,-4.0,0.0,0.0,2.0,-1.0,1650915186783844.0,0
356,0.0,-2.0,-13.0,-5.0,-6.0,-6.0,-3.0,-3.0,1650915186783844.0,0
357,0.0,0.0,-1.0,-3.0,-6.0,-26.0,-5.0,-2.0,1650915186783844.0,0
358,-2.0,-2.0,2.0,3.0,0.0,4.0,0.0,-2.0,1650915186806172.0,0
359,-1.0,-1.0,-3.0,1.0,3.0,8.0,1.0,5.0,1650915186806172.0,0
360,-4.0,-5.0,-13.0,-9.0,-10.0,-4.0,-1.0,-9.0,1650915186807166.0,0
361,1.0,10.0,17.0,9.0,6.0,0.0,1.0,0.0,1650915186807166.0,0
362,-1.0,-6.0,-6.0,-8.0,7.0,6.0,0.0,1.0,1650915186829731.0,0
363,1.0,0.0,4.0,6.0,6.0,2.0,0.0,-1.0,1650915186829731.0,0
364,4.0,12.0,31.0,11.0,8.0,6.0,4.0,4.0,1650915186829863.0,0
365,-4.0,-6.0,-13.0,-6.0,-10.0,-2.0,-2.0,-1.0,1650915186829863.0,0
366,2.0,6.0,2.0,7.0,-6.0,-17.0,-6.0,-4.0,1650915186844196.0,0
367,-2.0,-9.0,-10.0,-7.0,-7.0,-6.0,-3.0,-3.0,1650915186844196.0,0
368,1.0,9.0,11.0,2.0,5.0,10.0,5.0,18.0,1650915186844196.0,0
369,-2.0,-15.0,-16.0,-11.0,-7.0,-1.0,-4.0,-12.0,1650915186844196.0,0
370,2.0,6.0,10.0,-4.0,-12.0,-10.0,-2.0,2.0,1650915186866544.0,0
371,-6.0,-6.0,-21.0,-3.0,10.0,8.0,3.0,-1.0,1650915186866544.0,0
372,0.0,-3.0,13.0,20.0,3.0,1.0,1.0,4.0,1650915186866674.0,0
373,4.0,0.0,-9.0,-15.0,1.0,0.0,4.0,12.0,1650915186866674.0,0
374,-5.0,-1.0,-11.0,-5.0,-6.0,-2.0,-5.0,-15.0,1650915186889933.0,0
375,6.0,7.0,12.0,1.0,-8.0,-11.0,-2.0,8.0,1650915186889933.0,0
376,-13.0,-23.0,-35.0,-19.0,-4.0,1.0,-3.0,-16.0,1650915186889933.0,0
377,8.0,4.0,-1.0,6.0,8.0,-7.0,2.0,16.0,1650915186889933.0,0
378,9.0,3.0,14.0,10.0,4.0,18.0,8.0,19.0,1650915186903889.0,0
379,-8.0,7.0,20.0,11.0,11.0,23.0,-2.0,-25.0,1650915186903889.0,0
380,1.0,-5.0,-10.0,-13.0,5.0,6.0,1.0,-1.0,1650915186911867.0,0
381,-2.0,8.0,24.0,12.0,-10.0,-8.0,1.0,-8.0,1650915186911867.0,0
382,3.0,3.0,15.0,7.0,-4.0,-19.0,-3.0,11.0,1650915186926222.0,0
383,7.0,1.0,6.0,6.0,0.0,-2.0,4.0,17.0,1650915186926222.0,0
384,-2.0,16.0,17.0,8.0,-8.0,-1.0,-7.0,-35.0,1650915186926222.0,0
385,-10.0,4.0,-3.0,-23.0,-9.0,-2.0,-5.0,-6.0,1650915186926222.0,0
386,1.0,-7.0,-15.0,2.0,1.0,-5.0,-2.0,2.0,1650915186949662.0,0
387,-15.0,-20.0,-7.0,-11.0,-11.0,-12.0,-6.0,-9.0,1650915186949662.0,0
388,10.0,-4.0,-4.0,14.0,13.0,-4.0,-1.0,2.0,1650915186949855.0,0
389,3.0,11.0,35.0,26.0,14.0,25.0,11.0,3.0,1650915186949855.0,0
390,-2.0,2.0,-18.0,-17.0,1.0,8.0,1.0,10.0,1650915186963969.0,0
391,7.0,13.0,8.0,4.0,2.0,-3.0,2.0,2.0,1650915186963969.0,0
392,-5.0,-6.0,-19.0,-13.0,-11.0,-8.0,-4.0,8.0,1650915186971280.0,0
393,4.0,-13.0,-6.0,-6.0,-13.0,-2.0,-3.0,-13.0,1650915186971280.0,0
394,1.0,7.0,10.0,-6.0,7.0,6.0,2.0,1.0,1650915186986321.0,0
395,7.0,3.0,-26.0,-9.0,8.0,-3.0,2.0,7.0,1650915186986321.0,0
396,-15.0,-20.0,-40.0,-7.0,-6.0,-4.0,-8.0,2.0,1650915186986321.0,0
397,17.0,7.0,44.0,23.0,2.0,0.0,2.0,13.0,1650915186986321.0,0
398,-14.0,-7.0,-11.0,-4.0,-7.0,-3.0,0.0,-14.0,1650915187016190.0,0
399,-2.0,5.0,0.0,-10.0,-12.0,-12.0,-4.0,-2.0,1650915187016190.0,0
400,-19.0,-7.0,17.0,3.0,-6.0,-5.0,-7.0,-3.0,1650915187017188.0,0
401,5.0,-7.0,-38.0,-8.0,4.0,5.0,2.0,6.0,1650915187017188.0,0
402,7.0,-19.0,-17.0,17.0,14.0,-2.0,-3.0,-26.0,1650915187023211.0,0
403,5.0,15.0,4.0,6.0,18.0,18.0,11.0,26.0,1650915187023211.0,0
404,0.0,0.0,27.0,-2.0,-5.0,4.0,-3.0,-7.0,1650915187031314.0,0
405,-16.0,-8.0,16.0,10.0,2.0,-2.0,-4.0,-1.0,1650915187031314.0,0
406,9.0,6.0,-7.0,-17.0,-19.0,-26.0,-3.0,-2.0,1650915187046469.0,0
407,-10.0,1.0,-23.0,-26.0,-17.0,-9.0,-5.0,-3.0,1650915187046469.0,0
408,11.0,3.0,12.0,13.0,17.0,22.0,7.0,3.0,1650915187046469.0,0
409,9.0,21.0,28.0,5.0,14.0,7.0,11.0,25.0,1650915187046469.0,0
410,4.0,-15.0,3.0,2.0,3.0,11.0,-4.0,13.0,1650915187069483.0,0
411,-30.0,-23.0,-12.0,13.0,-11.0,-29.0,-13.0,-38.0,1650915187069483.0,0
412,0.0,9.0,9.0,2.0,-1.0,7.0,3.0,-1.0,1650915187069483.0,1
413,1.0,-7.0,-1.0,-9.0,-3.0,3.0,0.0,-14.0,1650915187069483.0,1
414,-20.0,1.0,0.0,-16.0,-11.0,-7.0,-1.0,6.0,1650915187083046.0,1
415,5.0,-9.0,-12.0,1.0,3.0,7.0,7.0,21.0,1650915187083046.0,1
416,1.0,2.0,-5.0,4.0,4.0,-6.0,-3.0,-14.0,1650915187091179.0,1
417,-1.0,-7.0,-18.0,-8.0,3.0,-4.0,-8.0,-4.0,1650915187091179.0,1
418,-1.0,-1.0,-39.0,3.0,-1.0,-1.0,0.0,-13.0,1650915187105984.0,1
419,-4.0,-12.0,-14.0,-18.0,-5.0,-1.0,-1.0,-13.0,1650915187105984.0,1
420,4.0,6.0,11.0,-3.0,6.0,3.0,5.0,17.0,1650915187106980.0,1
421,-3.0,-27.0,-16.0,1.0,-6.0,0.0,-1.0,2.0,1650915187106980.0,1
422,0.0,13.0,22.0,-11.0,-3.0,-3.0,-5.0,-2.0,1650915187129142.0,1
423,0.0,-15.0,-11.0,2.0,-5.0,8.0,-1.0,-7.0,1650915187129142.0,1
424,-3.0,-6.0,6.0,9.0,-1.0,-3.0,2.0,17.0,1650915187130106.0,1
425,12.0,-7.0,7.0,2.0,-3.0,-5.0,-1.0,-18.0,1650915187130106.0,1
426,-20.0,-20.0,-40.0,-13.0,0.0,2.0,-5.0,-13.0,1650915187142602.0,1
427,6.0,4.0,21.0,9.0,-2.0,-11.0,3.0,9.0,1650915187142602.0,1
428,-1.0,12.0,25.0,-9.0,-4.0,3.0,5.0,11.0,1650915187151182.0,1
429,21.0,5.0,-28.0,-3.0,-2.0,8.0,6.0,26.0,1650915187151182.0,1
430,6.0,11.0,33.0,-4.0,3.0,4.0,-2.0,-26.0,1650915187166541.0,1
431,13.0,12.0,0.0,-22.0,-6.0,-2.0,-3.0,12.0,1650915187166541.0,1
432,-13.0,2.0,9.0,12.0,5.0,-6.0,-1.0,-17.0,1650915187166768.0,1
433,-16.0,4.0,0.0,15.0,0.0,-5.0,1.0,-6.0,1650915187166768.0,1
434,-2.0,-12.0,-12.0,-11.0,5.0,23.0,8.0,8.0,1650915187189702.0,1
435,13.0,-1.0,-1.0,3.0,11.0,7.0,-1.0,2.0,1650915187189702.0,1
436,9.0,-11.0,26.0,62.0,8.0,-7.0,3.0,6.0,1650915187189858.0,1
437,-14.0,11.0,-34.0,-75.0,-31.0,-40.0,-15.0,-8.0,1650915187189858.0,1
438,-8.0,-19.0,-17.0,8.0,-9.0,-8.0,-4.0,1.0,1650915187203228.0,1
439,1.0,12.0,44.0,14.0,-1.0,26.0,4.0,-7.0,1650915187203228.0,1
440,-4.0,-7.0,-17.0,-3.0,15.0,21.0,7.0,4.0,1650915187211375.0,1
441,5.0,8.0,-2.0,10.0,11.0,7.0,7.0,6.0,1650915187211375.0,1
442,8.0,-5.0,5.0,-2.0,-16.0,-21.0,-9.0,9.0,1650915187226517.0,1
443,-31.0,7.0,9.0,-14.0,-15.0,-17.0,-5.0,-16.0,1650915187226517.0,1
444,11.0,8.0,-14.0,-12.0,-2.0,-5.0,-8.0,-24.0,1650915187226517.0,1
445,-27.0,-1.0,4.0,18.0,-1.0,8.0,0.0,-4.0,1650915187226517.0,1
446,24.0,-2.0,33.0,28.0,25.0,12.0,7.0,9.0,1650915187249869.0,1
447,14.0,-8.0,0.0,11.0,14.0,9.0,6.0,10.0,1650915187249869.0,1
448,-6.0,0.0,-21.0,-48.0,-26.0,-14.0,-11.0,-14.0,1650915187249869.0,1
449,-5.0,7.0,21.0,17.0,4.0,-2.0,-1.0,-19.0,1650915187249869.0,1
450,10.0,9.0,15.0,10.0,-3.0,-12.0,2.0,28.0,1650915187272233.0,1
451,-3.0,11.0,16.0,21.0,1.0,-6.0,1.0,-13.0,1650915187272233.0,1
452,13.0,-24.0,-34.0,-12.0,-7.0,0.0,-1.0,5.0,1650915187272233.0,1
453,10.0,12.0,-16.0,-20.0,-10.0,11.0,-1.0,6.0,1650915187272233.0,1
454,0.0,-3.0,-26.0,20.0,22.0,21.0,9.0,-2.0,1650915187294874.0,1
455,-33.0,12.0,47.0,33.0,7.0,-1.0,2.0,4.0,1650915187294874.0,1
456,17.0,7.0,-19.0,-17.0,-4.0,-11.0,4.0,6.0,1650915187295190.0,1
457,-18.0,-1.0,20.0,39.0,7.0,4.0,-7.0,-32.0,1650915187295190.0,1
458,-7.0,-7.0,7.0,-30.0,-7.0,7.0,1.0,9.0,1650915187309485.0,1
459,-4.0,-18.0,-75.0,-62.0,-14.0,-15.0,-9.0,-10.0,1650915187309485.0,1
460,-8.0,-15.0,2.0,-10.0,-13.0,-18.0,-8.0,-4.0,1650915187309485.0,1
461,-2.0,-15.0,-15.0,3.0,-5.0,-1.0,-6.0,0.0,1650915187309485.0,1
462,0.0,35.0,26.0,-3.0,1.0,4.0,3.0,-1.0,1650915187332021.0,1
463,8.0,-34.0,-40.0,2.0,9.0,17.0,10.0,4.0,1650915187332021.0,1
464,-12.0,8.0,30.0,21.0,-5.0,-16.0,0.0,6.0,1650915187332021.0,1
465,12.0,-4.0,-21.0,-30.0,-6.0,-3.0,-5.0,3.0,1650915187332021.0,1
466,4.0,8.0,13.0,6.0,-8.0,2.0,-1.0,11.0,1650915187354872.0,1
467,16.0,-7.0,10.0,13.0,-1.0,-3.0,-1.0,-15.0,1650915187354872.0,1
468,-21.0,-2.0,-20.0,-20.0,14.0,18.0,2.0,-3.0,1650915187354872.0,1
469,-1.0,3.0,22.0,23.0,19.0,6.0,9.0,18.0,1650915187354872.0,1
470,-12.0,11.0,37.0,22.0,4.0,-4.0,7.0,9.0,1650915187368774.0,1
471,23.0,15.0,-14.0,3.0,-16.0,-11.0,-14.0,-14.0,1650915187368774.0,1
472,-10.0,-6.0,-47.0,-31.0,-27.0,-26.0,-7.0,9.0,1650915187369773.0,1
473,-7.0,-1.0,23.0,17.0,0.0,-4.0,-13.0,-41.0,1650915187369773.0,1
474,0.0,2.0,-27.0,-29.0,-9.0,1.0,-4.0,-3.0,1650915187392134.0,1
475,-9.0,19.0,46.0,16.0,21.0,25.0,11.0,12.0,1650915187392134.0,1
476,13.0,2.0,-10.0,-12.0,8.0,18.0,8.0,2.0,1650915187392134.0,1
477,-5.0,-12.0,-8.0,8.0,-7.0,-11.0,-1.0,5.0,1650915187392134.0,1
478,-13.0,-12.0,-28.0,-25.0,-19.0,-28.0,-17.0,-24.0,1650915187406161.0,1
479,14.0,6.0,-24.0,-1.0,-6.0,-9.0,-1.0,31.0,1650915187406161.0,1
480,-8.0,4.0,52.0,19.0,18.0,13.0,1.0,0.0,1650915187407161.0,1
481,18.0,2.0,-22.0,-18.0,-2.0,5.0,10.0,16.0,1650915187407161.0,1
482,-9.0,-2.0,56.0,19.0,3.0,-2.0,-5.0,-12.0,1650915187429805.0,1
483,-12.0,-7.0,-7.0,8.0,8.0,6.0,2.0,-5.0,1650915187429805.0,1
484,12.0,-14.0,-18.0,-2.0,-7.0,-4.0,5.0,16.0,1650915187429885.0,1
485,20.0,1.0,-35.0,-29.0,-13.0,-6.0,-4.0,5.0,1650915187429885.0,1
486,-30.0,3.0,-4.0,-8.0,-7.0,-4.0,2.0,-5.0,1650915187451180.0,1
487,-2.0,-17.0,-15.0,0.0,10.0,5.0,-3.0,-3.0,1650915187451180.0,1
488,-1.0,20.0,44.0,15.0,7.0,15.0,6.0,0.0,1650915187458980.0,1
489,-15.0,-14.0,23.0,34.0,15.0,-21.0,1.0,2.0,1650915187458980.0,1
490,8.0,32.0,22.0,-5.0,-8.0,8.0,-5.0,-23.0,1650915187466343.0,1
491,-3.0,-32.0,-49.0,3.0,-1.0,5.0,-3.0,1.0,1650915187466343.0,1
492,4.0,16.0,32.0,16.0,-1.0,4.0,4.0,-9.0,1650915187466343.0,1
493,-6.0,6.0,-24.0,-33.0,-12.0,-6.0,0.0,0.0,1650915187466343.0,1
494,5.0,-11.0,-6.0,13.0,7.0,-1.0,2.0,17.0,1650915187490599.0,1
495,-4.0,-11.0,-18.0,-18.0,-13.0,-15.0,-13.0,-15.0,1650915187490599.0,1
496,-4.0,13.0,21.0,15.0,2.0,2.0,6.0,22.0,1650915187490599.0,1
497,-3.0,-24.0,-37.0,3.0,-2.0,-13.0,-6.0,8.0,1650915187490599.0,1
498,6.0,9.0,-49.0,-32.0,-9.0,-13.0,2.0,-10.0,1650915187511878.0,1
499,11.0,16.0,37.0,24.0,8.0,25.0,5.0,12.0,1650915187511878.0,1
500,4.0,2.0,-12.0,-2.0,18.0,31.0,6.0,-10.0,1650915187512750.0,1
501,0.0,9.0,9.0,-1.0,-3.0,3.0,5.0,12.0,1650915187512750.0,1
502,1.0,-11.0,7.0,15.0,-4.0,-15.0,-5.0,15.0,1650915187526006.0,1
503,-9.0,1.0,8.0,-24.0,-11.0,-16.0,-7.0,-34.0,1650915187526006.0,1
504,-5.0,-12.0,-25.0,-27.0,-17.0,-20.0,-15.0,-9.0,1650915187526873.0,1
505,19.0,14.0,16.0,9.0,5.0,12.0,8.0,3.0,1650915187526873.0,1
506,3.0,-5.0,5.0,14.0,9.0,1.0,-1.0,-23.0,1650915187549330.0,1
507,3.0,12.0,73.0,19.0,1.0,-4.0,4.0,11.0,1650915187549330.0,1
508,-33.0,-12.0,-44.0,-10.0,0.0,1.0,-6.0,-25.0,1650915187550166.0,1
509,19.0,0.0,-25.0,-7.0,0.0,7.0,0.0,-2.0,1650915187550166.0,1
510,12.0,10.0,55.0,23.0,-10.0,-12.0,2.0,12.0,1650915187571848.0,1
511,-18.0,14.0,-16.0,-19.0,2.0,-2.0,2.0,4.0,1650915187571848.0,1
512,13.0,3.0,31.0,0.0,-2.0,2.0,3.0,5.0,1650915187572704.0,1
513,-17.0,-11.0,-11.0,8.0,4.0,2.0,-2.0,-10.0,1650915187572704.0,1
514,8.0,32.0,10.0,-3.0,15.0,7.0,2.0,8.0,1650915187585727.0,1
515,-8.0,-9.0,-56.0,-35.0,0.0,14.0,0.0,-1.0,1650915187585727.0,1
516,6.0,15.0,1.0,18.0,2.0,0.0,-2.0,0.0,1650915187586725.0,1
517,-6.0,-10.0,-1.0,-19.0,-3.0,7.0,1.0,7.0,1650915187586725.0,1
518,-2.0,-2.0,-21.0,-5.0,0.0,-3.0,-2.0,-6.0,1650915187609660.0,1
519,10.0,0.0,11.0,11.0,-8.0,-36.0,-4.0,4.0,1650915187609660.0,1
520,6.0,-6.0,-13.0,-22.0,-13.0,-6.0,-12.0,-21.0,1650915187609660.0,1
521,3.0,17.0,59.0,18.0,4.0,30.0,5.0,14.0,1650915187609660.0,1
522,4.0,-12.0,-52.0,5.0,5.0,6.0,4.0,3.0,1650915187632123.0,1
523,-8.0,-5.0,-3.0,-7.0,2.0,0.0,-4.0,-6.0,1650915187632123.0,1
524,21.0,12.0,6.0,21.0,9.0,-4.0,1.0,12.0,1650915187632123.0,1
525,-8.0,-18.0,5.0,-7.0,-8.0,-16.0,-11.0,-23.0,1650915187632123.0,1
526,2.0,-10.0,-13.0,-6.0,-9.0,-2.0,-7.0,3.0,1650915187646313.0,1
527,10.0,25.0,39.0,20.0,6.0,-2.0,1.0,2.0,1650915187646313.0,1
528,6.0,-5.0,-20.0,-6.0,-6.0,-24.0,0.0,13.0,1650915187647202.0,1
529,-3.0,4.0,-22.0,-7.0,10.0,29.0,9.0,2.0,1650915187647202.0,1
530,-5.0,-14.0,-2.0,-22.0,2.0,13.0,2.0,-7.0,1650915187669642.0,1
531,22.0,8.0,3.0,16.0,6.0,11.0,8.0,12.0,1650915187669642.0,1
532,1.0,2.0,23.0,-3.0,-14.0,-21.0,-6.0,-3.0,1650915187669642.0,1
533,-4.0,16.0,17.0,-3.0,-5.0,-18.0,0.0,10.0,1650915187669642.0,1
534,-4.0,-21.0,-30.0,29.0,3.0,8.0,-1.0,-11.0,1650915187692016.0,1
535,-6.0,3.0,-11.0,-33.0,0.0,9.0,-2.0,-5.0,1650915187692016.0,1
536,-6.0,-1.0,-10.0,9.0,8.0,6.0,10.0,31.0,1650915187692016.0,1
537,-7.0,-7.0,13.0,3.0,-1.0,-16.0,-6.0,-26.0,1650915187692016.0,1
538,12.0,5.0,15.0,9.0,8.0,16.0,11.0,22.0,1650915187706420.0,1
539,-8.0,-4.0,8.0,-1.0,-8.0,-4.0,-9.0,-23.0,1650915187706420.0,1
540,-10.0,4.0,0.0,12.0,4.0,5.0,1.0,0.0,1650915187706420.0,1
541,26.0,-10.0,-49.0,-26.0,-16.0,-22.0,-9.0,-15.0,1650915187706420.0,1
542,-10.0,-3.0,25.0,8.0,-10.0,-10.0,-5.0,5.0,1650915187728745.0,1
543,0.0,-10.0,-26.0,5.0,-10.0,-1.0,4.0,-1.0,1650915187728745.0,1
544,-11.0,5.0,6.0,-36.0,0.0,2.0,-4.0,-9.0,1650915187736372.0,1
545,15.0,-8.0,4.0,23.0,22.0,7.0,2.0,19.0,1650915187736372.0,1
546,-1.0,-3.0,15.0,3.0,1.0,2.0,1.0,-9.0,1650915187751882.0,1
547,1.0,7.0,-11.0,-3.0,-4.0,2.0,6.0,12.0,1650915187751882.0,1
548,0.0,-29.0,-5.0,-6.0,-8.0,3.0,-2.0,-1.0,1650915187751882.0,1
549,-19.0,4.0,-2.0,-17.0,1.0,12.0,3.0,8.0,1650915187751882.0,1
550,12.0,-4.0,-31.0,2.0,3.0,8.0,1.0,9.0,1650915187766139.0,1
551,-10.0,15.0,16.0,17.0,-6.0,-20.0,-7.0,1.0,1650915187766139.0,1
552,-9.0,-28.0,-35.0,-39.0,-9.0,-7.0,-8.0,-25.0,1650915187767151.0,1
553,-8.0,8.0,24.0,-4.0,-3.0,-5.0,0.0,9.0,1650915187767151.0,1
554,-13.0,-18.0,-21.0,-13.0,-2.0,-6.0,-3.0,-10.0,1650915187788843.0,1
555,22.0,23.0,-1.0,-11.0,-3.0,-3.0,4.0,12.0,1650915187788843.0,1
556,4.0,3.0,-35.0,13.0,-4.0,4.0,3.0,12.0,1650915187789730.0,1
557,-14.0,12.0,65.0,5.0,-11.0,-17.0,-11.0,-26.0,1650915187789730.0,1
558,-2.0,-14.0,-28.0,0.0,15.0,13.0,4.0,4.0,1650915187811585.0,1
559,-4.0,-4.0,0.0,-12.0,9.0,12.0,0.0,0.0,1650915187811585.0,1
560,14.0,35.0,39.0,34.0,18.0,22.0,9.0,3.0,1650915187812437.0,1
561,-18.0,-3.0,-9.0,-2.0,-6.0,5.0,-1.0,3.0,1650915187812437.0,1
562,-5.0,-3.0,-17.0,-8.0,-16.0,-22.0,-18.0,-28.0,1650915187825768.0,1
563,5.0,8.0,4.0,5.0,-2.0,-10.0,3.0,24.0,1650915187825768.0,1
564,6.0,-7.0,31.0,8.0,4.0,-5.0,2.0,22.0,1650915187833970.0,1
565,-13.0,-21.0,-80.0,-20.0,-4.0,0.0,-8.0,-42.0,1650915187833970.0,1
566,1.0,4.0,38.0,-3.0,-9.0,-7.0,-5.0,11.0,1650915187849993.0,1
567,-1.0,-1.0,-6.0,40.0,9.0,3.0,3.0,4.0,1650915187849993.0,1
568,-15.0,-7.0,11.0,-42.0,-16.0,-8.0,-8.0,-27.0,1650915187849993.0,1
569,16.0,16.0,22.0,12.0,8.0,6.0,7.0,18.0,1650915187849993.0,1
570,-1.0,11.0,-4.0,5.0,6.0,7.0,-2.0,-8.0,1650915187872329.0,1
571,-2.0,-22.0,-26.0,-6.0,4.0,6.0,0.0,-14.0,1650915187872329.0,1
572,17.0,19.0,16.0,15.0,-3.0,-5.0,2.0,1.0,1650915187872329.0,1
573,-27.0,-9.0,27.0,19.0,9.0,2.0,4.0,14.0,1650915187872329.0,1
574,-17.0,-15.0,-27.0,-14.0,-5.0,-2.0,2.0,-5.0,1650915187885476.0,1
575,-8.0,-7.0,18.0,-29.0,-8.0,-3.0,-6.0,-5.0,1650915187885476.0,1
576,8.0,3.0,-29.0,17.0,9.0,7.0,6.0,-6.0,1650915187893698.0,1
577,4.0,5.0,7.0,-19.0,-8.0,-7.0,-3.0,5.0,1650915187893698.0,1
578,12.0,-2.0,18.0,14.0,-5.0,-19.0,-2.0,13.0,1650915187908987.0,1
579,-9.0,-12.0,10.0,-4.0,-3.0,6.0,-1.0,1.0,1650915187908987.0,1
580,-7.0,-7.0,-32.0,-5.0,5.0,0.0,-8.0,-18.0,1650915187909824.0,1
581,9.0,13.0,-11.0,8.0,6.0,8.0,2.0,-3.0,1650915187909824.0,1
582,2.0,-11.0,14.0,20.0,4.0,5.0,2.0,-5.0,1650915187932388.0,1
583,-14.0,3.0,-9.0,-18.0,-10.0,-5.0,2.0,7.0,1650915187932388.0,1
584,2.0,-20.0,-23.0,-16.0,0.0,-4.0,-10.0,-18.0,1650915187932388.0,1
585,2.0,5.0,35.0,25.0,9.0,0.0,-4.0,-3.0,1650915187932388.0,1
586,-9.0,19.0,6.0,-16.0,-9.0,-5.0,-5.0,-9.0,1650915187945790.0,1
587,8.0,4.0,3.0,2.0,-1.0,4.0,3.0,17.0,1650915187945790.0,1
588,-8.0,-2.0,-11.0,-4.0,-2.0,7.0,1.0,-8.0,1650915187961180.0,1
589,-2.0,-7.0,-15.0,-2.0,-9.0,-7.0,4.0,4.0,1650915187961180.0,1
590,5.0,0.0,-12.0,6.0,0.0,2.0,-3.0,-7.0,1650915187968870.0,1
591,10.0,-12.0,21.0,5.0,-10.0,-11.0,-5.0,6.0,1650915187968870.0,1
592,-3.0,10.0,-3.0,3.0,-4.0,-10.0,6.0,16.0,1650915187969859.0,1
593,16.0,-8.0,9.0,-3.0,1.0,10.0,0.0,5.0,1650915187969859.0,1
594,-24.0,4.0,-15.0,-7.0,7.0,-13.0,-4.0,-25.0,1650915187991800.0,1
595,4.0,-14.0,-17.0,3.0,6.0,7.0,-4.0,2.0,1650915187991800.0,1
596,-6.0,-4.0,11.0,8.0,7.0,14.0,-3.0,-2.0,1650915187991800.0,1
597,6.0,-4.0,4.0,-1.0,-13.0,-11.0,5.0,5.0,1650915187991800.0,1
598,8.0,2.0,-12.0,-11.0,-3.0,2.0,2.0,16.0,1650915188014046.0,1
599,-3.0,8.0,4.0,-5.0,-11.0,-13.0,-7.0,-25.0,1650915188014046.0,1
600,-6.0,29.0,7.0,13.0,3.0,-7.0,-3.0,3.0,1650915188016037.0,1
601,12.0,-1.0,-10.0,6.0,10.0,18.0,4.0,5.0,1650915188016037.0,1
602,-22.0,4.0,19.0,14.0,11.0,10.0,2.0,4.0,1650915188029157.0,1
603,15.0,7.0,10.0,-20.0,2.0,3.0,10.0,9.0,1650915188029157.0,1
604,1.0,3.0,2.0,2.0,-20.0,-26.0,-7.0,13.0,1650915188031120.0,1
605,-6.0,-29.0,-35.0,-15.0,-24.0,-18.0,-7.0,3.0,1650915188031120.0,1
606,5.0,0.0,-11.0,4.0,9.0,6.0,-8.0,-22.0,1650915188052017.0,1
607,2.0,-1.0,-31.0,-2.0,0.0,7.0,-4.0,-7.0,1650915188052017.0,1
608,-15.0,-8.0,10.0,12.0,7.0,10.0,9.0,-7.0,1650915188053015.0,1
609,-5.0,15.0,3.0,-14.0,3.0,-1.0,7.0,6.0,1650915188053015.0,1
610,4.0,-15.0,-23.0,-4.0,-12.0,-10.0,9.0,10.0,1650915188066368.0,1
611,-4.0,-2.0,33.0,19.0,1.0,-13.0,-8.0,-2.0,1650915188066368.0,1
612,2.0,-23.0,-23.0,-19.0,-10.0,6.0,-7.0,0.0,1650915188074486.0,1
613,-11.0,-6.0,-9.0,0.0,11.0,13.0,4.0,-3.0,1650915188074486.0,1
614,18.0,7.0,17.0,3.0,14.0,9.0,15.0,24.0,1650915188089836.0,1
615,2.0,7.0,-1.0,7.0,7.0,-5.0,8.0,-11.0,1650915188089836.0,1
616,0.0,-20.0,7.0,1.0,-19.0,-15.0,-1.0,4.0,1650915188091086.0,1
617,-1.0,16.0,12.0,0.0,-6.0,2.0,-6.0,-2.0,1650915188091086.0,1
618,10.0,-7.0,-1.0,-3.0,0.0,21.0,-4.0,8.0,1650915188111790.0,1
619,-6.0,1.0,5.0,12.0,30.0,7.0,-3.0,-9.0,1650915188111790.0,1
620,1.0,-3.0,1.0,-7.0,-8.0,-39.0,14.0,1.0,1650915188112787.0,1
621,-7.0,-6.0,-8.0,5.0,-2.0,35.0,-7.0,-5.0,1650915188112787.0,1
622,6.0,8.0,15.0,4.0,23.0,28.0,9.0,4.0,1650915188126004.0,1
623,-1.0,0.0,-11.0,9.0,19.0,24.0,5.0,0.0,1650915188126004.0,1
624,0.0,7.0,20.0,5.0,-5.0,-12.0,-8.0,0.0,1650915188134220.0,1
625,1.0,-1.0,-5.0,-2.0,-19.0,-46.0,-8.0,-2.0,1650915188134220.0,1
626,-1.0,0.0,15.0,-17.0,-18.0,-18.0,-11.0,-1.0,1650915188149567.0,1
627,-15.0,-22.0,-27.0,-1.0,-11.0,3.0,2.0,-21.0,1650915188149567.0,1
628,9.0,17.0,38.0,15.0,12.0,13.0,1.0,10.0,1650915188150403.0,1
629,-4.0,-26.0,-15.0,-13.0,-4.0,-11.0,-6.0,-7.0,1650915188150403.0,1
630,-1.0,0.0,8.0,2.0,-13.0,-12.0,2.0,-5.0,1650915188171743.0,1
631,-7.0,-7.0,-16.0,-8.0,-1.0,-8.0,-13.0,0.0,1650915188171743.0,1
632,2.0,-2.0,-5.0,10.0,18.0,28.0,5.0,1.0,1650915188173608.0,1
633,-7.0,6.0,0.0,2.0,11.0,7.0,-11.0,-8.0,1650915188173608.0,1
634,-4.0,10.0,6.0,-4.0,-1.0,-4.0,4.0,0.0,1650915188195105.0,1
635,7.0,-2.0,4.0,-3.0,-17.0,-13.0,5.0,1.0,1650915188195105.0,1
636,-1.0,-7.0,-15.0,-9.0,-4.0,2.0,2.0,0.0,1650915188196193.0,1
637,3.0,18.0,9.0,5.0,5.0,3.0,-2.0,1.0,1650915188196193.0,1
638,2.0,-3.0,-3.0,4.0,4.0,-4.0,3.0,-1.0,1650915188209493.0,1
639,-5.0,6.0,2.0,-17.0,-22.0,-24.0,-10.0,-1.0,1650915188209493.0,1
640,-1.0,-1.0,-8.0,-2.0,-6.0,-1.0,-9.0,-5.0,1650915188210492.0,1
641,2.0,2.0,7.0,5.0,8.0,1.0,3.0,1.0,1650915188210492.0,1
642,1.0,6.0,-3.0,0.0,15.0,18.0,2.0,1.0,1650915188231963.0,1
643,2.0,-3.0,11.0,14.0,12.0,42.0,20.0,8.0,1650915188231963.0,1
644,2.0,0.0,-6.0,-8.0,13.0,-1.0,-2.0,2.0,1650915188232820.0,1
645,-1.0,-1.0,-3.0,-1.0,-6.0,-15.0,1.0,0.0,1650915188232820.0,1
646,-2.0,0.0,0.0,-4.0,-19.0,-9.0,-4.0,-4.0,1650915188255039.0,1
647,-3.0,-3.0,0.0,-1.0,-6.0,-13.0,-11.0,1.0,1650915188255039.0,1
648,-1.0,-2.0,-10.0,-5.0,-8.0,0.0,2.0,-2.0,1650915188255690.0,1
649,-1.0,2.0,-6.0,-9.0,-9.0,-14.0,-8.0,-1.0,1650915188255690.0,1
650,2.0,-2.0,3.0,-1.0,-8.0,-17.0,-4.0,-4.0,1650915188269624.0,1
651,-1.0,3.0,10.0,5.0,6.0,5.0,4.0,1.0,1650915188269624.0,1
652,-1.0,-6.0,-4.0,2.0,4.0,13.0,9.0,4.0,1650915188270886.0,1
653,2.0,0.0,-3.0,2.0,9.0,13.0,2.0,-5.0,1650915188270886.0,1
654,-3.0,-3.0,-2.0,-4.0,-1.0,-5.0,1.0,4.0,1650915188292016.0,1
655,0.0,10.0,10.0,3.0,-5.0,-8.0,-6.0,-1.0,1650915188292016.0,1
656,-3.0,-2.0,-22.0,-13.0,-4.0,-3.0,-12.0,-6.0,1650915188293012.0,1
657,-1.0,1.0,10.0,2.0,-9.0,-7.0,4.0,1.0,1650915188293012.0,1
658,-1.0,-4.0,-11.0,-11.0,-11.0,-2.0,1.0,-1.0,1650915188322512.0,1
659,-2.0,0.0,-7.0,-3.0,-4.0,-4.0,-5.0,-4.0,1650915188322512.0,1
660,-3.0,-3.0,-4.0,0.0,5.0,8.0,-1.0,1.0,1650915188323356.0,1
661,4.0,5.0,7.0,2.0,18.0,15.0,8.0,3.0,1650915188323356.0,1
662,0.0,-1.0,1.0,5.0,18.0,17.0,-1.0,0.0,1650915188328365.0,1
663,0.0,-1.0,11.0,11.0,6.0,-13.0,9.0,4.0,1650915188328365.0,1
664,2.0,2.0,4.0,6.0,0.0,16.0,2.0,0.0,1650915188335374.0,1
665,0.0,-2.0,-8.0,-8.0,-20.0,-20.0,-1.0,0.0,1650915188335374.0,1
666,-2.0,-3.0,-2.0,-5.0,-15.0,1.0,-3.0,-1.0,1650915188351568.0,1
667,-2.0,-1.0,-2.0,-3.0,0.0,-4.0,-6.0,-2.0,1650915188351568.0,1
668,-1.0,0.0,4.0,3.0,-1.0,-7.0,0.0,0.0,1650915188353595.0,1
669,-1.0,-1.0,-1.0,4.0,-2.0,-10.0,-1.0,1.0,1650915188353595.0,1
670,-1.0,-4.0,1.0,-3.0,-5.0,-12.0,-4.0,0.0,1650915188373945.0,1
671,-2.0,-1.0,-1.0,-3.0,10.0,22.0,2.0,0.0,1650915188373945.0,1
672,1.0,1.0,4.0,0.0,-3.0,-1.0,1.0,0.0,1650915188375943.0,1
673,0.0,-1.0,-1.0,1.0,2.0,3.0,0.0,-2.0,1650915188375943.0,1
674,0.0,1.0,-3.0,2.0,-12.0,-23.0,-7.0,-1.0,1650915188389138.0,1
675,-1.0,-3.0,-1.0,-5.0,-25.0,-21.0,-3.0,-1.0,1650915188389138.0,1
676,0.0,-2.0,3.0,5.0,22.0,20.0,5.0,3.0,1650915188403959.0,1
677,1.0,1.0,3.0,6.0,28.0,40.0,6.0,0.0,1650915188403959.0,1
678,1.0,-3.0,3.0,6.0,13.0,10.0,3.0,0.0,1650915188412175.0,1
679,-1.0,1.0,-1.0,-2.0,-14.0,-8.0,-1.0,0.0,1650915188412175.0,1
680,-2.0,-3.0,0.0,-5.0,-13.0,-14.0,-5.0,-2.0,1650915188413012.0,1
681,-2.0,-1.0,-5.0,-4.0,-6.0,-12.0,2.0,3.0,1650915188413012.0,1
682,-5.0,-5.0,-5.0,-7.0,-12.0,-32.0,-7.0,-1.0,1650915188434444.0,1
683,-2.0,-1.0,2.0,1.0,-2.0,24.0,-4.0,-11.0,1650915188434444.0,1
684,-6.0,-3.0,-5.0,-10.0,-8.0,-3.0,-1.0,-4.0,1650915188435442.0,1
685,0.0,1.0,3.0,6.0,12.0,11.0,3.0,2.0,1650915188435442.0,1
686,4.0,3.0,8.0,9.0,27.0,14.0,7.0,4.0,1650915188448318.0,1
687,-4.0,4.0,13.0,10.0,8.0,-3.0,5.0,4.0,1650915188448318.0,1
688,-1.0,-6.0,-35.0,-28.0,-16.0,-11.0,-18.0,-4.0,1650915188456950.0,1
689,1.0,-3.0,-1.0,-5.0,-31.0,-28.0,3.0,-5.0,1650915188456950.0,1
690,-3.0,0.0,-12.0,-11.0,-3.0,-5.0,-10.0,-2.0,1650915188472046.0,1
691,2.0,-2.0,11.0,10.0,4.0,15.0,16.0,7.0,1650915188472046.0,1
692,-1.0,4.0,22.0,20.0,18.0,15.0,5.0,-5.0,1650915188473045.0,1
693,-3.0,0.0,-1.0,-1.0,5.0,-14.0,-7.0,-3.0,1650915188473045.0,1
694,1.0,-1.0,-3.0,-8.0,-17.0,-4.0,-5.0,-3.0,1650915188494848.0,1
695,1.0,-1.0,2.0,3.0,9.0,18.0,-3.0,0.0,1650915188494848.0,1
696,1.0,-1.0,1.0,-1.0,4.0,-8.0,-1.0,2.0,1650915188495674.0,1
697,-1.0,1.0,1.0,3.0,2.0,12.0,6.0,3.0,1650915188495674.0,1
698,-2.0,-1.0,9.0,7.0,-3.0,-5.0,3.0,-2.0,1650915188508826.0,1
699,-2.0,-6.0,-16.0,-15.0,-7.0,-12.0,-9.0,-3.0,1650915188508826.0,1
700,0.0,3.0,-5.0,-6.0,-7.0,-31.0,-4.0,4.0,1650915188515995.0,1
701,-1.0,1.0,3.0,3.0,-6.0,11.0,-1.0,-4.0,1650915188515995.0,1
702,1.0,1.0,9.0,5.0,11.0,28.0,10.0,4.0,1650915188532346.0,1
703,5.0,6.0,9.0,5.0,-9.0,-12.0,2.0,3.0,1650915188532346.0,1
704,1.0,-7.0,-15.0,-1.0,10.0,13.0,-3.0,-2.0,1650915188533346.0,1
705,-1.0,-3.0,-5.0,-5.0,2.0,-9.0,-2.0,0.0,1650915188533346.0,1
706,-3.0,2.0,-7.0,-8.0,-25.0,-28.0,-7.0,-4.0,1650915188554289.0,1
707,2.0,3.0,-3.0,0.0,15.0,17.0,-6.0,1.0,1650915188554289.0,1
708,2.0,5.0,14.0,15.0,13.0,27.0,15.0,4.0,1650915188555287.0,1
709,0.0,1.0,0.0,3.0,6.0,5.0,-4.0,-2.0,1650915188555287.0,1
710,2.0,3.0,4.0,2.0,-8.0,-5.0,7.0,1.0,1650915188568474.0,1
711,-6.0,-6.0,-10.0,-16.0,-19.0,-36.0,-2.0,-5.0,1650915188568474.0,1
712,-5.0,-5.0,1.0,3.0,-14.0,-2.0,-14.0,-6.0,1650915188575429.0,1
713,0.0,1.0,4.0,8.0,13.0,29.0,18.0,4.0,1650915188575429.0,1
714,-1.0,0.0,-4.0,1.0,8.0,-6.0,-6.0,-2.0,1650915188598783.0,1
715,1.0,-4.0,-1.0,-5.0,-3.0,-23.0,-5.0,-2.0,1650915188598783.0,1
716,2.0,1.0,14.0,9.0,0.0,10.0,10.0,2.0,1650915188600621.0,1
717,-2.0,-5.0,-15.0,-13.0,-14.0,18.0,-5.0,-2.0,1650915188600621.0,1
718,-1.0,-1.0,-2.0,1.0,13.0,22.0,7.0,1.0,1650915188614177.0,1
719,1.0,2.0,-9.0,-6.0,-2.0,-5.0,-7.0,-1.0,1650915188614177.0,1
720,-4.0,-1.0,1.0,-3.0,-30.0,-37.0,-6.0,-3.0,1650915188616045.0,1
721,0.0,-1.0,3.0,1.0,22.0,-7.0,-1.0,0.0,1650915188616045.0,1
722,-1.0,-3.0,2.0,10.0,11.0,29.0,4.0,0.0,1650915188629242.0,1
723,0.0,-1.0,1.0,-2.0,1.0,7.0,3.0,1.0,1650915188629242.0,1
724,-1.0,-1.0,0.0,-1.0,-9.0,-15.0,1.0,-1.0,1650915188635685.0,1
725,-1.0,0.0,-4.0,-5.0,-10.0,-9.0,-9.0,-1.0,1650915188635685.0,1
726,-2.0,-2.0,-3.0,-4.0,-6.0,0.0,8.0,0.0,1650915188651975.0,1
727,1.0,1.0,-3.0,0.0,6.0,4.0,-1.0,-2.0,1650915188651975.0,1
728,2.0,1.0,7.0,2.0,-1.0,2.0,4.0,1.0,1650915188652985.0,1
729,-1.0,-1.0,-1.0,-1.0,-3.0,-4.0,-5.0,0.0,1650915188652985.0,1
730,0.0,1.0,-3.0,-3.0,-4.0,-14.0,-1.0,0.0,1650915188674300.0,1
731,-2.0,-2.0,-4.0,1.0,4.0,8.0,-1.0,-2.0,1650915188674300.0,1
732,1.0,0.0,-2.0,-1.0,2.0,10.0,0.0,-1.0,1650915188681991.0,1
733,-1.0,0.0,2.0,0.0,-5.0,-6.0,-2.0,-1.0,1650915188681991.0,1
734,-5.0,-5.0,3.0,1.0,9.0,6.0,-2.0,1.0,1650915188688142.0,1
735,1.0,4.0,8.0,8.0,2.0,-1.0,9.0,2.0,1650915188688142.0,1
736,0.0,-1.0,-2.0,-4.0,1.0,-3.0,-3.0,-2.0,1650915188697346.0,1
737,-1.0,-2.0,2.0,-4.0,-12.0,-30.0,-10.0,-3.0,1650915188697346.0,1
738,-1.0,-1.0,-2.0,-2.0,-8.0,1.0,-4.0,-2.0,1650915188712990.0,1
739,0.0,0.0,-7.0,-1.0,5.0,14.0,3.0,1.0,1650915188712990.0,1
740,1.0,1.0,3.0,6.0,-7.0,7.0,5.0,1.0,1650915188713836.0,1
741,0.0,0.0,5.0,6.0,22.0,18.0,9.0,3.0,1650915188713836.0,1
742,1.0,-1.0,-10.0,-10.0,9.0,3.0,-2.0,-1.0,1650915188734592.0,1
743,0.0,-1.0,8.0,4.0,6.0,-5.0,-8.0,-1.0,1650915188734592.0,1
744,-1.0,0.0,-9.0,-8.0,-19.0,-9.0,2.0,0.0,1650915188735593.0,1
745,-2.0,-1.0,-8.0,-5.0,-14.0,-8.0,-5.0,-2.0,1650915188735593.0,1
746,-1.0,1.0,13.0,15.0,12.0,7.0,3.0,0.0,1650915188748709.0,1
747,0.0,-1.0,-5.0,-5.0,6.0,14.0,1.0,1.0,1650915188748709.0,1
748,1.0,2.0,7.0,2.0,8.0,-2.0,2.0,1.0,1650915188756754.0,1
749,-2.0,0.0,-7.0,-9.0,-10.0,-24.0,-7.0,-3.0,1650915188756754.0,1
750,-2.0,-4.0,-5.0,-5.0,-15.0,4.0,-5.0,-3.0,1650915188772444.0,1
751,-1.0,0.0,5.0,5.0,2.0,-6.0,11.0,2.0,1650915188772444.0,1
752,-2.0,-2.0,-10.0,-8.0,2.0,-1.0,-12.0,-4.0,1650915188773477.0,1
753,0.0,0.0,4.0,6.0,5.0,9.0,10.0,-1.0,1650915188773477.0,1
754,2.0,0.0,0.0,2.0,-3.0,-1.0,-1.0,1.0,1650915188794829.0,1
755,3.0,-1.0,3.0,3.0,1.0,1.0,-5.0,1.0,1650915188794829.0,1
756,-1.0,-1.0,-3.0,-3.0,5.0,2.0,0.0,1.0,1650915188795860.0,1
757,-1.0,-2.0,-2.0,-2.0,-8.0,-8.0,-6.0,-1.0,1650915188795860.0,1
758,-3.0,-1.0,-1.0,-7.0,-32.0,-31.0,-6.0,-5.0,1650915188808213.0,1
759,-3.0,-3.0,-6.0,-1.0,13.0,14.0,-1.0,-1.0,1650915188808213.0,1
760,2.0,2.0,6.0,9.0,30.0,19.0,3.0,1.0,1650915188816493.0,1
761,2.0,3.0,4.0,4.0,3.0,19.0,6.0,3.0,1650915188816493.0,1
762,-1.0,1.0,6.0,9.0,3.0,-3.0,1.0,2.0,1650915188832165.0,1
763,0.0,-3.0,-6.0,-6.0,-17.0,-7.0,-5.0,-2.0,1650915188832165.0,1
764,-2.0,-1.0,1.0,-1.0,-2.0,-8.0,-2.0,-4.0,1650915188833166.0,1
765,1.0,-1.0,-2.0,-3.0,-2.0,-9.0,-5.0,-4.0,1650915188833166.0,1
766,-1.0,0.0,-2.0,-4.0,-2.0,-2.0,-1.0,0.0,1650915188854705.0,1
767,0.0,1.0,-2.0,-2.0,-14.0,-6.0,1.0,-1.0,1650915188854705.0,1
768,1.0,0.0,0.0,2.0,12.0,18.0,1.0,1.0,1650915188855705.0,1
769,0.0,-1.0,-4.0,0.0,1.0,-7.0,5.0,2.0,1650915188855705.0,1
770,0.0,-2.0,-3.0,-2.0,8.0,16.0,0.0,0.0,1650915188867913.0,1
771,-3.0,-1.0,4.0,4.0,-12.0,-13.0,-5.0,-1.0,1650915188867913.0,1
772,-2.0,-1.0,1.0,0.0,-1.0,-6.0,-1.0,-3.0,1650915188877104.0,1
773,-2.0,-3.0,-4.0,-5.0,4.0,2.0,-2.0,-1.0,1650915188877104.0,1
774,0.0,1.0,-2.0,1.0,10.0,-9.0,-1.0,2.0,1650915188891721.0,1
775,2.0,1.0,-1.0,0.0,2.0,7.0,2.0,2.0,1650915188891721.0,1
776,-1.0,-2.0,-4.0,-2.0,-15.0,-1.0,-8.0,-1.0,1650915188893618.0,1
777,-2.0,-1.0,-1.0,-5.0,-14.0,-22.0,8.0,2.0,1650915188893618.0,1
778,-1.0,0.0,-1.0,-3.0,8.0,15.0,5.0,-1.0,1650915188914540.0,1
779,-1.0,-1.0,-2.0,0.0,10.0,10.0,10.0,2.0,1650915188914540.0,1
780,0.0,1.0,-1.0,2.0,0.0,12.0,3.0,2.0,1650915188915540.0,1
781,-2.0,-1.0,10.0,9.0,5.0,5.0,-10.0,-3.0,1650915188915540.0,1
782,-1.0,-3.0,-9.0,-16.0,-18.0,-24.0,-8.0,-3.0,1650915188927541.0,1
783,-1.0,-2.0,3.0,4.0,-1.0,-19.0,-6.0,-2.0,1650915188927541.0,1
784,0.0,0.0,-3.0,-1.0,9.0,4.0,5.0,0.0,1650915188936512.0,1
785,2.0,1.0,-2.0,3.0,4.0,14.0,4.0,0.0,1650915188936512.0,1
786,0.0,0.0,12.0,6.0,-5.0,3.0,-1.0,-1.0,1650915188952024.0,1
787,-3.0,-2.0,-16.0,-18.0,-14.0,-11.0,-6.0,-4.0,1650915188952024.0,1
788,-1.0,-2.0,0.0,-2.0,0.0,-11.0,0.0,0.0,1650915188953021.0,1
789,-1.0,-1.0,-4.0,1.0,7.0,23.0,3.0,0.0,1650915188953021.0,0
790,2.0,3.0,4.0,12.0,26.0,13.0,6.0,3.0,1650915188974545.0,0
791,0.0,2.0,-1.0,-3.0,-16.0,-16.0,0.0,0.0,1650915188974545.0,0
792,-3.0,-2.0,1.0,-4.0,-9.0,-14.0,-6.0,-4.0,1650915188975579.0,0
793,-1.0,-3.0,0.0,-4.0,-8.0,4.0,-4.0,-3.0,1650915188975579.0,0
794,0.0,-1.0,-4.0,1.0,-12.0,-2.0,2.0,0.0,1650915188988736.0,0
795,0.0,-3.0,4.0,1.0,12.0,6.0,-5.0,0.0,1650915188988736.0,0
796,-1.0,-3.0,-3.0,0.0,-13.0,-13.0,0.0,-1.0,1650915188996873.0,0
797,-2.0,-2.0,1.0,-2.0,1.0,-5.0,0.0,-2.0,1650915188996873.0,0
798,-3.0,-1.0,0.0,1.0,-4.0,11.0,-5.0,-3.0,1650915189012174.0,0
799,2.0,1.0,1.0,4.0,11.0,16.0,10.0,2.0,1650915189012174.0,0
800,2.0,3.0,2.0,2.0,13.0,11.0,11.0,4.0,1650915189013013.0,0
801,-2.0,-1.0,-2.0,-3.0,-16.0,-23.0,-16.0,-5.0,1650915189013013.0,0
802,-1.0,-2.0,-3.0,-6.0,-13.0,-6.0,0.0,-2.0,1650915189034564.0,0
803,-2.0,0.0,-6.0,-11.0,-6.0,-3.0,-5.0,-3.0,1650915189034564.0,0
804,-1.0,-1.0,2.0,1.0,1.0,1.0,0.0,0.0,1650915189040712.0,0
805,4.0,2.0,2.0,6.0,12.0,4.0,6.0,2.0,1650915189040712.0,0
806,0.0,0.0,-2.0,1.0,14.0,-10.0,-3.0,0.0,1650915189048270.0,0
807,0.0,-2.0,0.0,1.0,-7.0,17.0,3.0,2.0,1650915189048270.0,0
808,0.0,0.0,0.0,-5.0,-5.0,-7.0,-2.0,-2.0,1650915189056989.0,0
809,-1.0,-2.0,6.0,10.0,-8.0,2.0,0.0,0.0,1650915189056989.0,0
810,-1.0,-1.0,-6.0,-10.0,-9.0,-10.0,-4.0,-1.0,1650915189072012.0,0
811,-1.0,-2.0,3.0,1.0,-1.0,0.0,0.0,-3.0,1650915189072012.0,0
812,-1.0,-1.0,-5.0,-5.0,2.0,-7.0,-1.0,-1.0,1650915189073011.0,0
813,2.0,1.0,-2.0,-2.0,16.0,6.0,-1.0,2.0,1650915189073011.0,0
814,1.0,1.0,4.0,3.0,8.0,5.0,4.0,1.0,1650915189094146.0,0
815,0.0,2.0,-1.0,4.0,4.0,4.0,4.0,3.0,1650915189094146.0,0
816,-1.0,-1.0,5.0,0.0,-6.0,-6.0,-4.0,-1.0,1650915189096142.0,0
817,-2.0,-5.0,0.0,-5.0,-21.0,-26.0,-5.0,-3.0,1650915189096142.0,0
818,-2.0,-3.0,-6.0,-1.0,0.0,11.0,-8.0,-2.0,1650915189107954.0,0
819,1.0,-1.0,-1.0,1.0,14.0,6.0,16.0,5.0,1650915189107954.0,0
820,2.0,0.0,2.0,6.0,14.0,22.0,7.0,1.0,1650915189124157.0,0
821,0.0,1.0,2.0,1.0,4.0,4.0,-2.0,0.0,1650915189124157.0,0
822,0.0,-1.0,1.0,-3.0,-10.0,-15.0,-4.0,0.0,1650915189132425.0,0
823,-1.0,-2.0,-3.0,-4.0,-21.0,-18.0,-16.0,-5.0,1650915189132425.0,0
824,-1.0,-3.0,-6.0,-6.0,2.0,-1.0,-2.0,0.0,1650915189133456.0,0
825,-1.0,-1.0,3.0,8.0,4.0,16.0,8.0,2.0,1650915189133456.0,0
826,0.0,1.0,2.0,4.0,15.0,2.0,6.0,0.0,1650915189162175.0,0
827,-3.0,-1.0,3.0,4.0,9.0,4.0,-2.0,0.0,1650915189162175.0,0
828,1.0,-1.0,-3.0,-4.0,-6.0,-3.0,-3.0,-1.0,1650915189163010.0,0
829,-2.0,0.0,-7.0,-9.0,-9.0,-11.0,-10.0,-2.0,1650915189163010.0,0
830,-1.0,-3.0,-1.0,-3.0,-24.0,-30.0,-3.0,-2.0,1650915189177302.0,0
831,-1.0,0.0,-4.0,-4.0,2.0,18.0,-5.0,-2.0,1650915189177302.0,0
832,1.0,-1.0,2.0,5.0,6.0,5.0,-1.0,0.0,1650915189178150.0,0
833,2.0,5.0,5.0,10.0,37.0,32.0,11.0,5.0,1650915189178150.0,0
834,2.0,2.0,4.0,4.0,8.0,14.0,6.0,2.0,1650915189192025.0,0
835,0.0,1.0,5.0,-3.0,-7.0,-15.0,-5.0,-2.0,1650915189192025.0,0
836,-3.0,-5.0,-12.0,-11.0,-30.0,-23.0,-5.0,-3.0,1650915189193022.0,0
837,-3.0,-5.0,-10.0,-11.0,-25.0,-31.0,-7.0,-4.0,1650915189193022.0,0
838,-2.0,-4.0,-2.0,1.0,13.0,22.0,2.0,-2.0,1650915189215336.0,0
839,2.0,1.0,2.0,5.0,14.0,14.0,3.0,0.0,1650915189215336.0,0
840,0.0,3.0,7.0,8.0,15.0,14.0,3.0,1.0,1650915189215676.0,0
841,1.0,-1.0,-2.0,-7.0,-6.0,-10.0,-1.0,1.0,1650915189215676.0,0
842,-2.0,-1.0,2.0,-1.0,-17.0,-39.0,-16.0,-5.0,1650915189237372.0,0
843,-2.0,-4.0,-9.0,-10.0,-19.0,0.0,0.0,-1.0,1650915189237372.0,0
844,-2.0,-2.0,5.0,4.0,2.0,20.0,-4.0,0.0,1650915189238211.0,0
845,1.0,1.0,8.0,14.0,29.0,22.0,16.0,2.0,1650915189238211.0,0
846,3.0,1.0,-14.0,-12.0,17.0,13.0,4.0,5.0,1650915189251928.0,0
847,-1.0,0.0,5.0,4.0,3.0,-11.0,-6.0,-2.0,1650915189251928.0,0
848,0.0,0.0,-7.0,-9.0,-17.0,-19.0,-4.0,-3.0,1650915189252928.0,0
849,-2.0,-2.0,-5.0,-13.0,-36.0,-35.0,-15.0,-6.0,1650915189252928.0,0
850,-4.0,-5.0,-2.0,-1.0,-15.0,-5.0,-5.0,-4.0,1650915189273876.0,0
851,1.0,-1.0,3.0,6.0,26.0,30.0,9.0,2.0,1650915189273876.0,0
852,1.0,3.0,1.0,7.0,31.0,27.0,7.0,5.0,1650915189275873.0,0
853,0.0,2.0,1.0,0.0,-1.0,5.0,2.0,2.0,1650915189275873.0,0
854,-1.0,-1.0,-1.0,-2.0,-7.0,-11.0,1.0,1.0,1650915189297246.0,0
855,-1.0,-2.0,-6.0,-8.0,-17.0,-13.0,-7.0,-3.0,1650915189297246.0,0
856,-2.0,-3.0,-2.0,-5.0,-16.0,-8.0,-2.0,-3.0,1650915189298085.0,0
857,0.0,0.0,-1.0,-1.0,8.0,3.0,-1.0,-2.0,1650915189298085.0,0
858,-1.0,-1.0,-4.0,-7.0,-4.0,1.0,1.0,0.0,1650915189319593.0,0
859,0.0,3.0,1.0,8.0,18.0,9.0,4.0,2.0,1650915189319593.0,0
860,0.0,-1.0,7.0,8.0,-4.0,-7.0,-2.0,1.0,1650915189320582.0,0
861,0.0,-1.0,-8.0,-10.0,-10.0,-25.0,-9.0,-2.0,1650915189320582.0,0
862,-2.0,-3.0,-1.0,-5.0,-9.0,12.0,4.0,0.0,1650915189334557.0,0
863,1.0,0.0,0.0,-2.0,3.0,19.0,4.0,0.0,1650915189334557.0,0
864,1.0,0.0,-3.0,-1.0,9.0,-5.0,3.0,1.0,1650915189335226.0,0
865,1.0,0.0,1.0,1.0,-7.0,-2.0,-2.0,-1.0,1650915189335226.0,0
866,-1.0,0.0,1.0,3.0,-1.0,-15.0,-4.0,-5.0,1650915189356535.0,0
867,-3.0,-2.0,-2.0,-3.0,3.0,-1.0,-3.0,-1.0,1650915189356535.0,0
868,-1.0,0.0,1.0,2.0,-9.0,-5.0,1.0,-1.0,1650915189358533.0,0
869,-1.0,0.0,0.0,0.0,21.0,30.0,4.0,-1.0,1650915189358533.0,0
870,-1.0,2.0,-2.0,1.0,1.0,-5.0,-2.0,1.0,1650915189371752.0,0
871,-2.0,-1.0,-1.0,-4.0,-19.0,-10.0,-4.0,-1.0,1650915189371752.0,0
872,-1.0,-1.0,-3.0,-3.0,-10.0,-9.0,-5.0,-2.0,1650915189378731.0,0
873,-2.0,-1.0,0.0,2.0,2.0,5.0,-1.0,0.0,1650915189378731.0,0
874,0.0,3.0,3.0,3.0,10.0,9.0,-1.0,-1.0,1650915189394659.0,0
875,-1.0,0.0,-2.0,-1.0,-9.0,-19.0,5.0,3.0,1650915189394659.0,0
876,0.0,-3.0,-4.0,-8.0,-14.0,-13.0,-6.0,-2.0,1650915189395659.0,0
877,-1.0,1.0,-4.0,-5.0,-18.0,-7.0,-3.0,-1.0,1650915189395659.0,0
878,0.0,0.0,-2.0,-3.0,8.0,-7.0,-4.0,-1.0,1650915189417138.0,0
879,-1.0,0.0,2.0,6.0,14.0,12.0,0.0,-1.0,1650915189417138.0,0
880,-1.0,1.0,6.0,5.0,21.0,28.0,6.0,2.0,1650915189417980.0,0
881,-1.0,-1.0,-5.0,-4.0,-3.0,-5.0,3.0,-1.0,1650915189417980.0,0
882,1.0,-2.0,-1.0,-6.0,-29.0,-16.0,-5.0,-2.0,1650915189431342.0,0
883,-1.0,0.0,-5.0,-5.0,-3.0,-9.0,-7.0,-3.0,1650915189431342.0,0
884,0.0,1.0,3.0,4.0,21.0,13.0,11.0,2.0,1650915189438483.0,0
885,2.0,1.0,5.0,9.0,7.0,7.0,3.0,2.0,1650915189438483.0,0
886,1.0,0.0,1.0,4.0,3.0,9.0,5.0,2.0,1650915189454862.0,0
887,-2.0,-3.0,-10.0,-12.0,-16.0,-22.0,-13.0,-4.0,1650915189454862.0,0
888,-1.0,-2.0,-3.0,-3.0,-14.0,-9.0,-3.0,-2.0,1650915189455674.0,0
889,-3.0,-2.0,-2.0,0.0,7.0,9.0,6.0,1.0,1650915189455674.0,0
890,0.0,0.0,3.0,4.0,13.0,23.0,4.0,0.0,1650915189477506.0,0
891,4.0,1.0,3.0,2.0,0.0,-13.0,-9.0,1.0,1650915189477506.0,0
892,-2.0,0.0,-3.0,-3.0,-6.0,-10.0,3.0,0.0,1650915189478347.0,0
893,-3.0,-2.0,-2.0,-2.0,-11.0,-16.0,-6.0,-3.0,1650915189478347.0,0
894,0.0,-1.0,0.0,-2.0,4.0,8.0,14.0,4.0,1650915189491830.0,0
895,-1.0,1.0,4.0,3.0,13.0,13.0,2.0,-1.0,1650915189491830.0,0
896,-1.0,1.0,-2.0,1.0,11.0,8.0,1.0,1.0,1650915189497818.0,0
897,-1.0,-2.0,4.0,0.0,-24.0,-21.0,-8.0,-2.0,1650915189497818.0,0
898,-1.0,-1.0,-1.0,-1.0,-5.0,9.0,4.0,2.0,1650915189515491.0,0
899,-1.0,-2.0,1.0,1.0,18.0,21.0,6.0,0.0,1650915189515491.0,0
900,1.0,-1.0,-8.0,-6.0,-9.0,-23.0,-4.0,-1.0,1650915189515967.0,0
901,-1.0,-2.0,-4.0,-4.0,3.0,12.0,-1.0,1.0,1650915189515967.0,0
902,1.0,-2.0,1.0,-1.0,-7.0,10.0,-3.0,-3.0,1650915189536705.0,0
903,0.0,-1.0,4.0,5.0,-14.0,-13.0,0.0,2.0,1650915189536705.0,0
904,1.0,-2.0,-1.0,-4.0,9.0,-11.0,9.0,0.0,1650915189538569.0,0
905,-1.0,-1.0,2.0,4.0,12.0,8.0,-7.0,-2.0,1650915189538569.0,0
906,-2.0,-1.0,2.0,-1.0,0.0,-8.0,-2.0,-1.0,1650915189551054.0,0
907,1.0,-1.0,-5.0,0.0,-7.0,-2.0,1.0,-1.0,1650915189551054.0,0
908,0.0,1.0,2.0,3.0,-2.0,20.0,-2.0,0.0,1650915189557874.0,0
909,-1.0,0.0,-1.0,-2.0,-2.0,-12.0,0.0,0.0,1650915189557874.0,0
910,-2.0,0.0,-4.0,-5.0,-7.0,-9.0,-7.0,-1.0,1650915189574505.0,0
911,-1.0,0.0,3.0,-3.0,0.0,-6.0,-3.0,-2.0,1650915189574505.0,0
912,-2.0,-1.0,3.0,3.0,-9.0,-6.0,-1.0,0.0,1650915189575506.0,0
913,0.0,1.0,-5.0,-3.0,12.0,14.0,3.0,-2.0,1650915189575506.0,0
914,-1.0,1.0,1.0,2.0,-1.0,12.0,-9.0,-1.0,1650915189597144.0,0
915,-2.0,0.0,-3.0,0.0,8.0,10.0,18.0,3.0,1650915189597144.0,0
916,1.0,1.0,1.0,3.0,4.0,-7.0,-3.0,-2.0,1650915189605485.0,0
917,0.0,0.0,-3.0,-8.0,-23.0,-13.0,1.0,1.0,1650915189605485.0,0
918,-1.0,-2.0,-3.0,0.0,19.0,3.0,-8.0,-4.0,1650915189611346.0,0
919,-1.0,-2.0,-6.0,-4.0,-14.0,-9.0,-4.0,-2.0,1650915189611346.0,0
920,0.0,1.0,0.0,0.0,5.0,8.0,3.0,1.0,1650915189618196.0,0
921,-2.0,0.0,6.0,8.0,4.0,-2.0,0.0,1.0,1650915189618196.0,0
922,1.0,-1.0,-4.0,-4.0,1.0,2.0,3.0,1.0,1650915189634015.0,0
923,-1.0,0.0,4.0,1.0,-6.0,-3.0,1.0,1.0,1650915189634015.0,0
924,-3.0,0.0,0.0,-3.0,-14.0,-16.0,-10.0,-3.0,1650915189636010.0,0
925,0.0,-1.0,3.0,-1.0,1.0,-11.0,-2.0,-1.0,1650915189636010.0,0
926,-1.0,-1.0,-3.0,2.0,6.0,4.0,1.0,1.0,1650915189657662.0,0
927,0.0,-2.0,1.0,-1.0,-3.0,7.0,4.0,0.0,1650915189657662.0,0
928,1.0,-1.0,0.0,2.0,11.0,20.0,2.0,1.0,1650915189658502.0,0
929,1.0,1.0,2.0,2.0,14.0,12.0,3.0,0.0,1650915189658502.0,0
930,-1.0,1.0,3.0,2.0,-5.0,-7.0,-1.0,-1.0,1650915189671176.0,0
931,0.0,-1.0,-2.0,-2.0,-14.0,-20.0,-6.0,-3.0,1650915189671176.0,0
932,-2.0,-2.0,-1.0,-4.0,1.0,-6.0,-4.0,-2.0,1650915189679155.0,0
933,2.0,-2.0,-3.0,1.0,11.0,18.0,3.0,0.0,1650915189679155.0,0
934,0.0,-1.0,0.0,3.0,9.0,6.0,5.0,0.0,1650915189695138.0,0
935,0.0,1.0,7.0,5.0,-8.0,-9.0,-5.0,-2.0,1650915189695138.0,0
936,-3.0,-4.0,-9.0,-9.0,-19.0,-6.0,2.0,-1.0,1650915189696037.0,0
937,-1.0,-2.0,-1.0,1.0,12.0,-5.0,-5.0,0.0,1650915189696037.0,0
938,0.0,-1.0,-4.0,-4.0,-14.0,-16.0,5.0,2.0,1650915189717538.0,0
939,-1.0,-2.0,3.0,1.0,-10.0,0.0,-16.0,-5.0,1650915189717538.0,0
940,-2.0,-2.0,-2.0,-1.0,14.0,18.0,6.0,0.0,1650915189718379.0,0
941,1.0,1.0,0.0,5.0,8.0,16.0,4.0,0.0,1650915189718379.0,0
942,0.0,-1.0,0.0,1.0,-6.0,-8.0,-1.0,-2.0,1650915189730510.0,0
943,-1.0,0.0,-3.0,-4.0,5.0,-5.0,0.0,0.0,1650915189730510.0,0
944,0.0,0.0,1.0,1.0,-2.0,11.0,-6.0,-3.0,1650915189739478.0,0
945,-1.0,-2.0,0.0,0.0,-7.0,-7.0,1.0,-2.0,1650915189739478.0,0
946,1.0,2.0,4.0,3.0,4.0,-5.0,-1.0,2.0,1650915189754817.0,0
947,1.0,-2.0,-7.0,-4.0,4.0,-4.0,1.0,-1.0,1650915189754817.0,0
948,-1.0,-1.0,5.0,-1.0,-5.0,-5.0,-5.0,1.0,1650915189755848.0,0
949,0.0,-2.0,-2.0,-3.0,-3.0,3.0,5.0,0.0,1650915189755848.0,0
950,-2.0,-1.0,0.0,-2.0,-6.0,-4.0,-4.0,-3.0,1650915189777195.0,0
951,-1.0,-1.0,-1.0,1.0,15.0,14.0,7.0,1.0,1650915189777195.0,0
952,0.0,1.0,-2.0,3.0,11.0,-7.0,-2.0,1.0,1650915189778037.0,0
953,0.0,-1.0,-4.0,-6.0,-12.0,-3.0,-4.0,0.0,1650915189778037.0,0
954,-1.0,-1.0,0.0,-2.0,-9.0,1.0,5.0,0.0,1650915189790519.0,0
955,0.0,1.0,-5.0,-6.0,6.0,-4.0,1.0,1.0,1650915189790519.0,0
956,-1.0,-2.0,2.0,6.0,8.0,6.0,3.0,2.0,1650915189799016.0,0
957,-3.0,0.0,0.0,-2.0,-10.0,-3.0,-11.0,-3.0,1650915189799016.0,0
958,-1.0,-1.0,-4.0,-5.0,-5.0,-6.0,11.0,1.0,1650915189815111.0,0
959,0.0,-2.0,1.0,3.0,7.0,0.0,2.0,-1.0,1650915189815111.0,0
960,2.0,0.0,1.0,-2.0,-7.0,0.0,-9.0,-5.0,1650915189816068.0,0
961,0.0,1.0,1.0,0.0,-1.0,-3.0,7.0,3.0,1650915189816068.0,0
962,0.0,-1.0,-2.0,2.0,1.0,4.0,-7.0,0.0,1650915189844957.0,0
963,-2.0,-1.0,1.0,0.0,10.0,-3.0,0.0,0.0,1650915189844957.0,0
964,1.0,1.0,-2.0,-4.0,-14.0,-24.0,-8.0,-4.0,1650915189845663.0,0
965,-3.0,-3.0,-5.0,-7.0,-11.0,9.0,-5.0,-4.0,1650915189845663.0,0
966,-1.0,0.0,1.0,1.0,-21.0,-21.0,8.0,1.0,1650915189850653.0,0
967,0.0,-1.0,0.0,3.0,24.0,33.0,2.0,2.0,1650915189850653.0,0
968,0.0,0.0,6.0,9.0,23.0,18.0,4.0,2.0,1650915189860023.0,0
969,2.0,2.0,2.0,7.0,2.0,3.0,5.0,1.0,1650915189860023.0,0
970,1.0,0.0,-1.0,-3.0,-6.0,-11.0,-6.0,-1.0,1650915189875225.0,0
971,-3.0,0.0,-7.0,-11.0,-33.0,-32.0,-8.0,-4.0,1650915189875225.0,0
972,-2.0,-3.0,-6.0,-5.0,-4.0,-5.0,-3.0,0.0,1650915189876174.0,0
973,-2.0,0.0,2.0,4.0,9.0,7.0,3.0,0.0,1650915189876174.0,0
974,-1.0,0.0,2.0,1.0,18.0,21.0,1.0,-1.0,1650915189897479.0,0
975,1.0,0.0,-1.0,0.0,0.0,2.0,4.0,2.0,1650915189897479.0,0
976,3.0,1.0,-3.0,-2.0,-15.0,-14.0,-1.0,-1.0,1650915189898315.0,0
977,-5.0,0.0,-3.0,-4.0,-5.0,0.0,1.0,-1.0,1650915189898315.0,0
978,-1.0,-1.0,2.0,3.0,6.0,10.0,-5.0,-3.0,1650915189910310.0,0
979,-1.0,-2.0,-1.0,0.0,-4.0,1.0,-1.0,4.0,1650915189910310.0,0
980,-2.0,0.0,-6.0,-6.0,-3.0,-12.0,0.0,-6.0,1650915189919612.0,0
981,0.0,-2.0,0.0,0.0,-4.0,-8.0,-2.0,0.0,1650915189919612.0,0
982,-4.0,-2.0,1.0,-5.0,-19.0,-20.0,-7.0,-5.0,1650915189934506.0,0
983,0.0,-1.0,1.0,3.0,1.0,-5.0,0.0,-2.0,1650915189934506.0,0
984,0.0,-1.0,1.0,3.0,-12.0,-8.0,-1.0,2.0,1650915189935524.0,0
985,3.0,3.0,0.0,2.0,46.0,43.0,9.0,5.0,1650915189935524.0,0
986,0.0,0.0,1.0,3.0,18.0,35.0,8.0,3.0,1650915189957262.0,0
987,2.0,3.0,7.0,7.0,-12.0,-3.0,5.0,2.0,1650915189957262.0,0
988,0.0,3.0,19.0,3.0,-11.0,-20.0,-4.0,-1.0,1650915189958095.0,0
989,0.0,-4.0,-22.0,-14.0,-16.0,-22.0,-10.0,-5.0,1650915189958095.0,0
990,2.0,1.0,3.0,2.0,-2.0,-14.0,-5.0,1.0,1650915189970434.0,0
991,0.0,-4.0,-5.0,5.0,3.0,-5.0,-5.0,-5.0,1650915189970434.0,0
992,-8.0,7.0,24.0,0.0,1.0,8.0,3.0,-4.0,1650915189995755.0,0
993,2.0,-7.0,-12.0,-4.0,-4.0,-5.0,1.0,7.0,1650915189995755.0,0
994,5.0,-3.0,-13.0,-12.0,6.0,7.0,2.0,9.0,1650915189995755.0,0
995,-11.0,0.0,14.0,5.0,-4.0,-7.0,-4.0,-12.0,1650915189995755.0,0
996,3.0,-6.0,1.0,9.0,4.0,9.0,1.0,9.0,1650915189997007.0,0
997,7.0,4.0,2.0,-1.0,2.0,-1.0,3.0,4.0,1650915189997007.0,0
998,-9.0,1.0,-11.0,-7.0,-2.0,-2.0,-1.0,-5.0,1650915190016513.0,0
999,5.0,-4.0,0.0,6.0,0.0,-1.0,-2.0,6.0,1650915190016513.0,0
1000,-2.0,-8.0,1.0,2.0,1.0,2.0,3.0,2.0,1650915190018349.0,0
1001,-7.0,-11.0,-19.0,3.0,8.0,-2.0,0.0,0.0,1650915190018349.0,0
1002,1.0,0.0,4.0,3.0,7.0,10.0,0.0,-4.0,1650915190030988.0,0
1003,4.0,8.0,8.0,2.0,-2.0,7.0,5.0,15.0,1650915190030988.0,0
1004,0.0,8.0,-10.0,9.0,0.0,0.0,0.0,-3.0,1650915190039088.0,0
1005,19.0,24.0,25.0,9.0,-8.0,-10.0,5.0,40.0,1650915190039088.0,0
1006,-10.0,2.0,-19.0,-11.0,-3.0,-13.0,-13.0,-47.0,1650915190055233.0,0
1007,-11.0,-9.0,12.0,4.0,-7.0,1.0,-5.0,-15.0,1650915190055233.0,0
1008,5.0,3.0,-6.0,-12.0,7.0,11.0,4.0,3.0,1650915190055233.0,0
1009,-6.0,-15.0,-6.0,6.0,-1.0,-4.0,1.0,-1.0,1650915190055233.0,0
1010,10.0,10.0,13.0,7.0,8.0,-16.0,3.0,16.0,1650915190076703.0,0
1011,-7.0,5.0,-7.0,-2.0,-2.0,16.0,-4.0,-12.0,1650915190076703.0,0
1012,14.0,7.0,7.0,1.0,3.0,27.0,12.0,21.0,1650915190077692.0,0
1013,-2.0,1.0,32.0,4.0,1.0,9.0,7.0,-11.0,1650915190077692.0,0
1014,-6.0,-16.0,-11.0,2.0,-4.0,-13.0,-7.0,5.0,1650915190099119.0,0
1015,3.0,12.0,7.0,-18.0,-10.0,-27.0,-8.0,-20.0,1650915190099119.0,0
1016,-9.0,-36.0,-61.0,-6.0,-6.0,-6.0,-6.0,6.0,1650915190101118.0,0
1017,-19.0,-2.0,-37.0,-30.0,-23.0,-8.0,-11.0,-39.0,1650915190101118.0,0
1018,6.0,12.0,32.0,19.0,0.0,0.0,7.0,20.0,1650915190114122.0,0
1019,1.0,13.0,-28.0,-19.0,23.0,10.0,0.0,-15.0,1650915190114122.0,0
1020,-2.0,7.0,49.0,16.0,12.0,7.0,2.0,-5.0,1650915190116115.0,0
1021,6.0,18.0,22.0,10.0,4.0,6.0,1.0,-1.0,1650915190116115.0,0
1022,-8.0,-13.0,15.0,12.0,-26.0,-17.0,-2.0,-4.0,1650915190137326.0,0
1023,-4.0,-1.0,-29.0,-25.0,-8.0,7.0,0.0,3.0,1650915190137326.0,0
1024,-1.0,-5.0,-19.0,-7.0,13.0,7.0,1.0,-3.0,1650915190138157.0,0
1025,4.0,-3.0,20.0,19.0,19.0,13.0,1.0,-1.0,1650915190138157.0,0
1026,-1.0,-6.0,-7.0,-7.0,-1.0,-5.0,2.0,5.0,1650915190159320.0,0
1027,8.0,1.0,1.0,-3.0,-14.0,-19.0,2.0,20.0,1650915190159320.0,0
1028,-12.0,-10.0,-23.0,-29.0,-24.0,-9.0,-7.0,-17.0,1650915190160194.0,0
1029,9.0,-1.0,27.0,16.0,7.0,0.0,-2.0,0.0,1650915190160194.0,0
1030,1.0,-3.0,-39.0,-7.0,17.0,18.0,7.0,11.0,1650915190173711.0,0
1031,8.0,-4.0,9.0,19.0,-2.0,3.0,3.0,18.0,1650915190173711.0,0
1032,-1.0,18.0,29.0,-17.0,-19.0,-16.0,-8.0,-3.0,1650915190175674.0,0
1033,-12.0,-1.0,-5.0,-14.0,-19.0,-16.0,-15.0,-39.0,1650915190175674.0,0
1034,3.0,11.0,-9.0,-6.0,2.0,0.0,-4.0,-8.0,1650915190197157.0,0
1035,17.0,-4.0,20.0,12.0,4.0,2.0,3.0,6.0,1650915190197157.0,0
1036,-16.0,-8.0,-58.0,-17.0,-12.0,-5.0,-8.0,-3.0,1650915190197995.0,0
1037,16.0,4.0,-1.0,-4.0,12.0,4.0,14.0,19.0,1650915190197995.0,0
1038,11.0,7.0,8.0,13.0,11.0,13.0,-2.0,9.0,1650915190219353.0,0
1039,2.0,10.0,28.0,0.0,-2.0,3.0,5.0,0.0,1650915190219353.0,0
1040,15.0,38.0,42.0,11.0,-7.0,-39.0,-12.0,-14.0,1650915190220313.0,0
1041,-15.0,-5.0,-23.0,-25.0,-15.0,11.0,-5.0,-3.0,1650915190220313.0,0
1042,12.0,9.0,12.0,15.0,22.0,34.0,9.0,0.0,1650915190234069.0,0
1043,-7.0,-10.0,-10.0,19.0,13.0,-4.0,4.0,16.0,1650915190234069.0,2
1044,-1.0,-4.0,-7.0,-30.0,-13.0,-18.0,0.0,4.0,1650915190240686.0,2
1045,-5.0,-10.0,0.0,34.0,-5.0,-8.0,-6.0,-5.0,1650915190240686.0,2
1046,-6.0,-13.0,-26.0,-51.0,6.0,7.0,2.0,9.0,1650915190264722.0,2
1047,5.0,0.0,8.0,5.0,3.0,15.0,6.0,14.0,1650915190264722.0,2
1048,-16.0,-4.0,-2.0,15.0,6.0,-5.0,-11.0,-59.0,1650915190265188.0,2
1049,5.0,-6.0,10.0,2.0,-2.0,-6.0,1.0,10.0,1650915190265188.0,2
1050,-1.0,15.0,19.0,3.0,-15.0,-6.0,0.0,6.0,1650915190279501.0,2
1051,-14.0,-16.0,-17.0,-21.0,-23.0,-24.0,-10.0,-26.0,1650915190279501.0,2
1052,4.0,-28.0,-11.0,7.0,10.0,4.0,-4.0,0.0,1650915190280391.0,2
1053,-17.0,3.0,-16.0,-3.0,-5.0,0.0,-2.0,1.0,1650915190280391.0,2
1054,-3.0,6.0,7.0,2.0,-4.0,-3.0,-4.0,-7.0,1650915190294170.0,2
1055,0.0,-3.0,0.0,-1.0,7.0,-2.0,0.0,5.0,1650915190294170.0,2
1056,-12.0,5.0,13.0,18.0,2.0,2.0,7.0,5.0,1650915190300042.0,2
1057,8.0,-2.0,-4.0,-13.0,-2.0,0.0,1.0,1.0,1650915190300042.0,2
1058,-10.0,-20.0,-13.0,9.0,0.0,-1.0,-5.0,-8.0,1650915190324656.0,2
1059,5.0,14.0,11.0,3.0,-3.0,2.0,2.0,5.0,1650915190324656.0,2
1060,-11.0,-28.0,-9.0,-3.0,-10.0,3.0,-2.0,-3.0,1650915190325656.0,2
1061,6.0,-11.0,-5.0,-35.0,2.0,-13.0,3.0,14.0,1650915190325656.0,2
1062,-4.0,11.0,28.0,28.0,27.0,24.0,3.0,-13.0,1650915190339778.0,2
1063,2.0,-4.0,-9.0,26.0,31.0,29.0,6.0,-8.0,1650915190339778.0,2
1064,3.0,-7.0,-23.0,-12.0,-5.0,4.0,8.0,20.0,1650915190340867.0,2
1065,-4.0,-9.0,-32.0,-8.0,-22.0,-23.0,-2.0,11.0,1650915190340867.0,2
1066,-3.0,-6.0,29.0,2.0,-22.0,-24.0,-14.0,-20.0,1650915190354002.0,2
1067,2.0,6.0,-8.0,-1.0,9.0,4.0,2.0,-2.0,1650915190354002.0,2
1068,-1.0,4.0,-4.0,0.0,9.0,15.0,5.0,11.0,1650915190360023.0,2
1069,-4.0,13.0,15.0,11.0,1.0,-9.0,-1.0,-2.0,1650915190360023.0,2
1070,3.0,-8.0,-7.0,-4.0,-15.0,-11.0,-4.0,7.0,1650915190377281.0,2
1071,33.0,6.0,17.0,6.0,2.0,8.0,-3.0,-1.0,1650915190377281.0,2
1072,-8.0,-9.0,-10.0,1.0,7.0,4.0,7.0,-6.0,1650915190378122.0,2
1073,-7.0,-24.0,12.0,10.0,8.0,10.0,-2.0,4.0,1650915190378122.0,2
1074,-5.0,2.0,4.0,2.0,-4.0,-5.0,5.0,0.0,1650915190399680.0,2
1075,2.0,6.0,-1.0,-20.0,-17.0,-20.0,-13.0,-9.0,1650915190399680.0,2
1076,22.0,3.0,2.0,9.0,2.0,17.0,6.0,7.0,1650915190400679.0,2
1077,-9.0,3.0,-22.0,-9.0,6.0,3.0,0.0,-11.0,1650915190400679.0,2
1078,7.0,14.0,26.0,20.0,4.0,-11.0,-2.0,4.0,1650915190414001.0,2
1079,-11.0,-34.0,-20.0,0.0,2.0,10.0,5.0,15.0,1650915190414001.0,2
1080,2.0,9.0,10.0,-11.0,12.0,8.0,-3.0,4.0,1650915190421182.0,2
1081,-7.0,-23.0,-19.0,14.0,11.0,17.0,4.0,-5.0,1650915190421182.0,2
1082,-4.0,-2.0,11.0,25.0,-4.0,0.0,-3.0,-2.0,1650915190437157.0,2
1083,-4.0,20.0,-11.0,-36.0,-22.0,-19.0,-3.0,-3.0,1650915190437157.0,2
1084,-11.0,-29.0,-19.0,1.0,-15.0,-17.0,-9.0,-9.0,1650915190437998.0,2
1085,16.0,11.0,-11.0,-7.0,1.0,5.0,4.0,10.0,1650915190437998.0,2
1086,-11.0,-15.0,-24.0,-13.0,9.0,4.0,-4.0,-1.0,1650915190459515.0,2
1087,-5.0,3.0,-3.0,-9.0,-1.0,6.0,4.0,-13.0,1650915190459515.0,2
1088,7.0,22.0,21.0,20.0,0.0,-8.0,4.0,10.0,1650915190460920.0,2
1089,17.0,13.0,12.0,-1.0,-19.0,-16.0,3.0,25.0,1650915190460920.0,2
1090,-18.0,-31.0,-40.0,-13.0,-3.0,-3.0,-7.0,-29.0,1650915190473862.0,2
1091,-11.0,-7.0,-3.0,9.0,-1.0,2.0,1.0,0.0,1650915190473862.0,2
1092,-2.0,1.0,-9.0,-12.0,6.0,4.0,-4.0,-9.0,1650915190480870.0,2
1093,33.0,14.0,15.0,11.0,2.0,-4.0,3.0,11.0,1650915190480870.0,2
1094,2.0,-5.0,-20.0,-24.0,-6.0,9.0,11.0,20.0,1650915190496988.0,2
1095,-45.0,-4.0,7.0,14.0,2.0,-16.0,-6.0,-19.0,1650915190496988.0,2
1096,7.0,17.0,70.0,15.0,1.0,15.0,5.0,12.0,1650915190497862.0,2
1097,-13.0,-8.0,-1.0,12.0,15.0,11.0,-4.0,-12.0,1650915190497862.0,2
1098,9.0,2.0,-17.0,-18.0,-2.0,-13.0,-4.0,-5.0,1650915190518703.0,2
1099,14.0,3.0,14.0,13.0,8.0,11.0,6.0,13.0,1650915190518703.0,2
1100,9.0,20.0,36.0,30.0,-3.0,-2.0,-1.0,9.0,1650915190520700.0,2
1101,-22.0,-8.0,-20.0,-31.0,-5.0,1.0,-4.0,-33.0,1650915190520700.0,2
1102,8.0,10.0,1.0,-5.0,-6.0,5.0,9.0,16.0,1650915190541992.0,2
1103,3.0,2.0,60.0,30.0,4.0,-9.0,-5.0,-3.0,1650915190541992.0,2
1104,-4.0,-2.0,-36.0,4.0,9.0,-5.0,-7.0,3.0,1650915190542992.0,2
1105,5.0,39.0,20.0,-3.0,-4.0,0.0,-1.0,-14.0,1650915190542992.0,2
1106,3.0,11.0,8.0,-5.0,-4.0,-3.0,-1.0,-5.0,1650915190557447.0,2
1107,-8.0,-12.0,-48.0,-19.0,-13.0,-10.0,-4.0,15.0,1650915190557447.0,2
1108,16.0,2.0,12.0,-5.0,-1.0,8.0,-3.0,-22.0,1650915190558292.0,2
1109,2.0,-20.0,-18.0,0.0,1.0,-3.0,-1.0,12.0,1650915190558292.0,2
1110,4.0,15.0,20.0,8.0,7.0,-2.0,3.0,4.0,1650915190579762.0,2
1111,17.0,-6.0,26.0,15.0,10.0,16.0,11.0,18.0,1650915190579762.0,2
1112,-13.0,-10.0,-37.0,-18.0,5.0,6.0,-4.0,-10.0,1650915190580926.0,2
1113,2.0,4.0,21.0,14.0,9.0,3.0,5.0,7.0,1650915190580926.0,2
1114,-1.0,-16.0,-28.0,-9.0,-9.0,-10.0,-4.0,-5.0,1650915190593870.0,2
1115,2.0,13.0,39.0,7.0,-7.0,0.0,-7.0,-8.0,1650915190593870.0,2
1116,3.0,-5.0,4.0,-9.0,1.0,-5.0,4.0,14.0,1650915190602013.0,2
1117,2.0,8.0,19.0,-5.0,-21.0,-2.0,2.0,-2.0,1650915190602013.0,2
1118,-18.0,-19.0,-39.0,-11.0,6.0,2.0,-12.0,-22.0,1650915190617476.0,2
1119,3.0,-2.0,-7.0,-18.0,-4.0,-16.0,0.0,10.0,1650915190617476.0,2
1120,-8.0,-21.0,-52.0,1.0,-13.0,-9.0,2.0,-10.0,1650915190618314.0,2
1121,-20.0,6.0,47.0,-4.0,3.0,-14.0,-18.0,-17.0,1650915190618314.0,2
1122,13.0,15.0,19.0,-11.0,-13.0,9.0,9.0,21.0,1650915190639613.0,2
1123,-6.0,-1.0,-56.0,-22.0,-8.0,14.0,0.0,-19.0,1650915190639613.0,2
1124,7.0,28.0,33.0,7.0,-4.0,-6.0,4.0,8.0,1650915190640454.0,2
1125,-8.0,-5.0,-4.0,13.0,12.0,3.0,-9.0,-24.0,1650915190640454.0,2
1126,3.0,-12.0,-29.0,-17.0,0.0,-2.0,2.0,4.0,1650915190653011.0,2
1127,12.0,18.0,20.0,6.0,-2.0,-13.0,-5.0,13.0,1650915190653011.0,2
1128,-5.0,-5.0,-13.0,-1.0,-1.0,3.0,1.0,-13.0,1650915190662387.0,2
1129,9.0,2.0,-16.0,1.0,-1.0,13.0,17.0,26.0,1650915190662387.0,2
1130,-3.0,-4.0,24.0,15.0,8.0,8.0,0.0,-5.0,1650915190677644.0,2
1131,8.0,10.0,-11.0,-6.0,6.0,6.0,7.0,13.0,1650915190677644.0,2
1132,1.0,3.0,26.0,11.0,-6.0,-15.0,-4.0,-1.0,1650915190678486.0,2
1133,-7.0,-5.0,-32.0,-24.0,-10.0,-4.0,-6.0,-7.0,1650915190678486.0,2
1134,-7.0,-1.0,31.0,14.0,-1.0,-4.0,-6.0,-5.0,1650915190698739.0,2
1135,9.0,-8.0,-26.0,9.0,9.0,6.0,16.0,15.0,1650915190698739.0,2
1136,-7.0,-12.0,-35.0,-37.0,5.0,2.0,-1.0,-1.0,1650915190700576.0,2
1137,-2.0,-5.0,16.0,15.0,7.0,5.0,0.0,5.0,1650915190700576.0,2
1138,4.0,-6.0,-15.0,-21.0,-13.0,0.0,2.0,1.0,1650915190713619.0,2
1139,-17.0,-1.0,10.0,15.0,-6.0,-18.0,-22.0,-33.0,1650915190713619.0,2
1140,9.0,16.0,8.0,-4.0,-4.0,-5.0,9.0,14.0,1650915190721628.0,2
1141,-6.0,-24.0,-30.0,-5.0,-1.0,-3.0,-4.0,2.0,1650915190721628.0,2
1142,0.0,18.0,7.0,21.0,12.0,14.0,3.0,0.0,1650915190736674.0,2
1143,-8.0,-20.0,-20.0,-33.0,-20.0,-15.0,-15.0,-29.0,1650915190736674.0,2
1144,6.0,16.0,8.0,6.0,-9.0,8.0,9.0,18.0,1650915190738537.0,2
1145,11.0,-3.0,8.0,2.0,22.0,16.0,1.0,8.0,1650915190738537.0,2
1146,2.0,24.0,42.0,17.0,17.0,5.0,0.0,-11.0,1650915190759394.0,2
1147,-3.0,-31.0,-7.0,13.0,0.0,-9.0,1.0,2.0,1650915190759394.0,2
1148,9.0,13.0,-4.0,-33.0,-16.0,-6.0,3.0,13.0,1650915190760922.0,2
1149,-21.0,0.0,0.0,-5.0,-30.0,-23.0,-11.0,-8.0,1650915190760922.0,2
1150,3.0,-31.0,-3.0,21.0,12.0,6.0,9.0,13.0,1650915190773671.0,2
1151,-5.0,9.0,12.0,2.0,13.0,3.0,-4.0,-19.0,1650915190773671.0,2
1152,-3.0,-15.0,10.0,-18.0,-6.0,-6.0,-5.0,1.0,1650915190782015.0,2
1153,-5.0,9.0,-2.0,1.0,-12.0,-11.0,-5.0,-19.0,1650915190782015.0,2
1154,-3.0,-25.0,-41.0,-12.0,-13.0,-9.0,-11.0,2.0,1650915190797161.0,2
1155,-2.0,0.0,-19.0,-16.0,-9.0,8.0,11.0,32.0,1650915190797161.0,2
1156,14.0,-1.0,25.0,34.0,37.0,20.0,-9.0,-33.0,1650915190798001.0,2
1157,-36.0,-5.0,12.0,7.0,13.0,18.0,8.0,-8.0,1650915190798001.0,2
1158,5.0,21.0,9.0,-4.0,-17.0,-14.0,1.0,6.0,1650915190820498.0,2
1159,-3.0,-16.0,-32.0,-10.0,-5.0,-7.0,-3.0,-1.0,1650915190820498.0,2
1160,-22.0,-14.0,-8.0,0.0,-8.0,-16.0,-13.0,2.0,1650915190821369.0,2
1161,29.0,14.0,-2.0,-3.0,-9.0,-11.0,2.0,10.0,1650915190821369.0,2
1162,0.0,14.0,-3.0,-8.0,5.0,2.0,-1.0,-9.0,1650915190833468.0,2
1163,-2.0,5.0,24.0,7.0,-12.0,-3.0,-6.0,6.0,1650915190833468.0,2
1164,-14.0,-17.0,18.0,32.0,21.0,11.0,-2.0,-12.0,1650915190841448.0,2
1165,8.0,7.0,0.0,-17.0,4.0,10.0,8.0,-4.0,1650915190841448.0,2
1166,-9.0,-14.0,-2.0,-19.0,-10.0,-3.0,-1.0,5.0,1650915190857148.0,2
1167,-3.0,-8.0,-7.0,14.0,-7.0,-9.0,-3.0,-19.0,1650915190857148.0,2
1168,6.0,1.0,-19.0,-8.0,3.0,3.0,2.0,12.0,1650915190857987.0,2
1169,22.0,-9.0,36.0,20.0,8.0,10.0,6.0,11.0,1650915190857987.0,2
1170,-21.0,5.0,36.0,23.0,18.0,3.0,1.0,4.0,1650915190879706.0,2
1171,-11.0,-10.0,-26.0,-29.0,-17.0,-8.0,-21.0,-45.0,1650915190879706.0,2
1172,5.0,8.0,-18.0,-8.0,-13.0,-21.0,-2.0,3.0,1650915190880739.0,2
1173,5.0,10.0,-12.0,-7.0,-2.0,7.0,12.0,21.0,1650915190880739.0,2
1174,9.0,16.0,29.0,5.0,1.0,4.0,0.0,1.0,1650915190901830.0,2
1175,13.0,-8.0,-34.0,5.0,10.0,5.0,10.0,20.0,1650915190901830.0,2
1176,-4.0,-4.0,-1.0,-1.0,4.0,3.0,2.0,10.0,1650915190902830.0,2
1177,2.0,9.0,-2.0,11.0,-6.0,-13.0,-12.0,-26.0,1650915190902830.0,2
1178,3.0,-3.0,-17.0,-7.0,-11.0,-1.0,2.0,14.0,1650915190916995.0,2
1179,22.0,15.0,17.0,14.0,16.0,13.0,14.0,29.0,1650915190916995.0,2
1180,-23.0,12.0,43.0,3.0,-3.0,-3.0,0.0,-5.0,1650915190917977.0,2
1181,-4.0,-22.0,-58.0,-21.0,-4.0,-5.0,-8.0,-4.0,1650915190917977.0,2
1182,-18.0,-18.0,0.0,8.0,2.0,-2.0,-4.0,-21.0,1650915190939341.0,2
1183,6.0,-3.0,33.0,18.0,0.0,1.0,1.0,7.0,1650915190939341.0,2
1184,3.0,8.0,-11.0,-23.0,16.0,17.0,4.0,-1.0,1650915190941177.0,2
1185,0.0,-14.0,-14.0,18.0,-10.0,-17.0,-4.0,2.0,1650915190941177.0,2
1186,5.0,-15.0,-26.0,-40.0,-2.0,1.0,-5.0,-12.0,1650915190953321.0,2
1187,-11.0,-2.0,14.0,-12.0,4.0,6.0,2.0,-1.0,1650915190953321.0,2
1188,5.0,-8.0,0.0,10.0,-13.0,-7.0,4.0,18.0,1650915190961884.0,2
1189,-11.0,-7.0,3.0,-11.0,-2.0,-4.0,-11.0,-46.0,1650915190961884.0,2
1190,2.0,-2.0,-15.0,21.0,-8.0,-8.0,-6.0,6.0,1650915190983901.0,2
1191,-2.0,25.0,3.0,-3.0,5.0,-1.0,3.0,-6.0,1650915190983901.0,2
1192,23.0,-23.0,-16.0,-5.0,-2.0,2.0,14.0,39.0,1650915190985883.0,2
1193,-11.0,13.0,2.0,-2.0,3.0,3.0,7.0,3.0,1650915190985883.0,2
1194,15.0,8.0,25.0,10.0,4.0,4.0,5.0,28.0,1650915190998974.0,2
1195,-13.0,-6.0,-33.0,-19.0,1.0,-1.0,-10.0,-11.0,1650915190998974.0,2
1196,0.0,1.0,26.0,2.0,-6.0,-1.0,-4.0,-6.0,1650915191000846.0,2
1197,-4.0,2.0,-27.0,-10.0,-8.0,-21.0,-12.0,-14.0,1650915191000846.0,2
1198,0.0,11.0,33.0,17.0,-10.0,-13.0,-1.0,-10.0,1650915191022177.0,2
1199,-3.0,13.0,-4.0,-1.0,14.0,21.0,6.0,-1.0,1650915191022177.0,2
1200,10.0,4.0,9.0,5.0,6.0,14.0,3.0,5.0,1650915191023008.0,2
1201,2.0,10.0,31.0,4.0,2.0,-2.0,-1.0,8.0,1650915191023008.0,2
1202,-4.0,-9.0,-58.0,-32.0,-1.0,-9.0,-3.0,-11.0,1650915191036559.0,2
1203,0.0,-2.0,28.0,32.0,8.0,14.0,-7.0,-6.0,1650915191036559.0,2
1204,-4.0,3.0,-8.0,-2.0,-10.0,-6.0,-4.0,-27.0,1650915191038446.0,2
1205,0.0,3.0,9.0,1.0,3.0,7.0,13.0,9.0,1650915191038446.0,2
1206,-2.0,12.0,10.0,-8.0,-5.0,7.0,6.0,1.0,1650915191058273.0,2
1207,7.0,-1.0,-13.0,-6.0,1.0,-11.0,2.0,5.0,1650915191058273.0,2
1208,3.0,12.0,4.0,0.0,-8.0,-5.0,-18.0,-6.0,1650915191066445.0,2
1209,-49.0,-33.0,1.0,28.0,-2.0,-10.0,-2.0,5.0,1650915191066445.0,2
1210,26.0,9.0,-12.0,-3.0,1.0,0.0,21.0,34.0,1650915191082114.0,2
1211,-6.0,2.0,29.0,-9.0,-9.0,-2.0,4.0,-8.0,1650915191082114.0,2
1212,-8.0,3.0,-2.0,4.0,4.0,0.0,-7.0,-11.0,1650915191082948.0,2
1213,12.0,-19.0,-7.0,3.0,10.0,7.0,9.0,15.0,1650915191082948.0,2
1214,-2.0,3.0,3.0,-27.0,-9.0,2.0,-9.0,-21.0,1650915191097387.0,2
1215,-5.0,-9.0,-9.0,6.0,3.0,0.0,1.0,6.0,1650915191097387.0,2
1216,-1.0,8.0,-38.0,-20.0,-14.0,-21.0,-5.0,-11.0,1650915191098221.0,2
1217,14.0,39.0,24.0,-6.0,4.0,6.0,-3.0,2.0,1650915191098221.0,2
1218,-6.0,5.0,14.0,36.0,12.0,17.0,7.0,-3.0,1650915191119204.0,2
1219,5.0,11.0,9.0,-15.0,-2.0,0.0,-1.0,-1.0,1650915191119204.0,2
1220,-2.0,-21.0,-15.0,13.0,10.0,6.0,3.0,-4.0,1650915191120196.0,2
1221,1.0,12.0,4.0,-24.0,-9.0,-1.0,-12.0,1.0,1650915191120196.0,2
1222,3.0,16.0,8.0,1.0,-6.0,-8.0,-5.0,-6.0,1650915191142193.0,2
1223,3.0,5.0,9.0,-8.0,-17.0,-28.0,-4.0,14.0,1650915191142193.0,2
1224,-8.0,3.0,0.0,6.0,2.0,18.0,1.0,-16.0,1650915191143024.0,2
1225,2.0,-5.0,-10.0,-5.0,13.0,14.0,6.0,19.0,1650915191143024.0,2
1226,-5.0,1.0,7.0,7.0,10.0,3.0,-11.0,-28.0,1650915191157340.0,2
1227,23.0,-11.0,-6.0,-5.0,-3.0,0.0,22.0,53.0,1650915191157340.0,2
1228,6.0,5.0,11.0,5.0,-4.0,-6.0,12.0,15.0,1650915191158175.0,2
1229,1.0,-3.0,1.0,-9.0,-14.0,-12.0,-7.0,-4.0,1650915191158175.0,2
1230,-4.0,-22.0,-31.0,-1.0,-9.0,1.0,3.0,-12.0,1650915191179770.0,2
1231,-2.0,13.0,38.0,20.0,10.0,7.0,-5.0,-5.0,1650915191179770.0,2
1232,-21.0,-29.0,-71.0,-34.0,5.0,2.0,-8.0,-32.0,1650915191180734.0,2
1233,14.0,3.0,-4.0,1.0,10.0,13.0,6.0,17.0,1650915191180734.0,2
1234,-4.0,-11.0,-30.0,6.0,-1.0,-4.0,-6.0,2.0,1650915191201833.0,2
1235,-11.0,-20.0,-24.0,-23.0,-3.0,0.0,-7.0,-19.0,1650915191201833.0,2
1236,12.0,9.0,26.0,4.0,-11.0,-4.0,2.0,11.0,1650915191202830.0,2
1237,6.0,2.0,22.0,37.0,3.0,1.0,13.0,16.0,1650915191202830.0,2
1238,-2.0,1.0,-12.0,-5.0,4.0,-2.0,-1.0,2.0,1650915191215838.0,2
1239,3.0,-1.0,-18.0,-8.0,-5.0,-4.0,-3.0,-6.0,1650915191215838.0,2
1240,-2.0,10.0,32.0,-1.0,-1.0,-7.0,-7.0,-7.0,1650915191223005.0,2
1241,-2.0,-18.0,-38.0,-17.0,-5.0,-4.0,-1.0,-8.0,1650915191223005.0,2
1242,11.0,-2.0,32.0,23.0,6.0,11.0,10.0,8.0,1650915191240019.0,2
1243,-11.0,-2.0,-32.0,-17.0,4.0,8.0,13.0,9.0,1650915191240019.0,2
1244,-5.0,2.0,-11.0,-21.0,-15.0,-22.0,-11.0,26.0,1650915191241021.0,2
1245,-2.0,4.0,20.0,21.0,-1.0,-4.0,-9.0,-34.0,1650915191241021.0,2
1246,-9.0,-12.0,-25.0,-16.0,-14.0,-15.0,-10.0,-32.0,1650915191262747.0,2
1247,7.0,-1.0,27.0,15.0,11.0,22.0,16.0,29.0,1650915191262747.0,2
1248,2.0,-1.0,-10.0,1.0,36.0,29.0,6.0,10.0,1650915191263443.0,2
1249,-1.0,6.0,3.0,19.0,21.0,22.0,-1.0,0.0,1650915191263443.0,2
1250,-8.0,7.0,17.0,-17.0,-10.0,-2.0,2.0,4.0,1650915191275511.0,2
1251,-11.0,-7.0,6.0,16.0,-6.0,-18.0,-24.0,-42.0,1650915191275511.0,2
1252,5.0,11.0,-41.0,-10.0,-25.0,-10.0,6.0,4.0,1650915191283276.0,2
1253,0.0,0.0,12.0,-16.0,-10.0,-13.0,-8.0,8.0,1650915191283276.0,2
1254,-9.0,-19.0,-36.0,-9.0,-1.0,-14.0,-16.0,-28.0,1650915191299490.0,2
1255,-6.0,18.0,20.0,16.0,-10.0,-12.0,-11.0,-13.0,1650915191299490.0,2
1256,15.0,15.0,32.0,25.0,-4.0,0.0,6.0,29.0,1650915191300344.0,2
1257,-34.0,-15.0,-38.0,-30.0,-5.0,-10.0,-13.0,-51.0,1650915191300344.0,2
1258,17.0,12.0,20.0,8.0,0.0,2.0,2.0,19.0,1650915191321754.0,2
1259,-11.0,12.0,6.0,-1.0,3.0,-2.0,-21.0,-7.0,1650915191321754.0,2
1260,1.0,-6.0,4.0,2.0,3.0,3.0,12.0,-10.0,1650915191323602.0,2
1261,18.0,-12.0,-39.0,-1.0,1.0,12.0,16.0,47.0,1650915191323602.0,2
1262,11.0,29.0,35.0,15.0,11.0,6.0,-5.0,7.0,1650915191345598.0,2
1263,-11.0,-14.0,-3.0,-19.0,-5.0,0.0,1.0,-12.0,1650915191345598.0,2
1264,0.0,-30.0,-12.0,27.0,5.0,-4.0,-26.0,-28.0,1650915191350344.0,2
1265,-1.0,26.0,34.0,-9.0,-4.0,-3.0,10.0,46.0,1650915191350344.0,2
1266,10.0,-3.0,-9.0,-4.0,-11.0,-9.0,0.0,-14.0,1650915191359841.0,2
1267,-2.0,-20.0,-64.0,-15.0,-3.0,11.0,15.0,3.0,1650915191359841.0,2
1268,-3.0,-4.0,23.0,11.0,17.0,-12.0,-5.0,-4.0,1650915191360875.0,2
1269,12.0,3.0,43.0,41.0,8.0,11.0,1.0,11.0,1650915191360875.0,2
1270,10.0,4.0,14.0,12.0,10.0,18.0,2.0,14.0,1650915191382199.0,2
1271,-7.0,-7.0,-36.0,-45.0,0.0,3.0,0.0,-5.0,1650915191382199.0,2
1272,2.0,2.0,-1.0,-9.0,-6.0,-2.0,-43.0,-1.0,1650915191383033.0,2
1273,7.0,2.0,-9.0,-5.0,-5.0,-1.0,58.0,-21.0,1650915191383033.0,2
1274,-25.0,6.0,25.0,3.0,2.0,-9.0,2.0,13.0,1650915191395679.0,2
1275,11.0,-1.0,7.0,10.0,-11.0,-9.0,-16.0,-14.0,1650915191395679.0,2
1276,-8.0,-1.0,5.0,-11.0,-7.0,7.0,24.0,17.0,1650915191403752.0,2
1277,8.0,9.0,0.0,-11.0,-6.0,-16.0,-28.0,-37.0,1650915191403752.0,2
1278,-15.0,-16.0,-3.0,-6.0,-6.0,-1.0,-1.0,1.0,1650915191419074.0,2
1279,5.0,4.0,7.0,9.0,3.0,-8.0,-43.0,-3.0,1650915191419074.0,2
1280,-6.0,-7.0,-3.0,-2.0,4.0,6.0,50.0,8.0,1650915191420940.0,2
1281,5.0,-2.0,-1.0,3.0,-2.0,6.0,6.0,7.0,1650915191420940.0,2
1282,9.0,0.0,-8.0,-6.0,1.0,3.0,30.0,14.0,1650915191441997.0,2
1283,-6.0,6.0,17.0,16.0,6.0,-6.0,-31.0,-8.0,1650915191441997.0,2
1284,-6.0,2.0,2.0,-3.0,-1.0,2.0,-3.0,-12.0,1650915191442832.0,2
1285,-10.0,-14.0,-16.0,-8.0,-6.0,-6.0,-9.0,-13.0,1650915191442832.0,2
1286,4.0,2.0,-2.0,-4.0,3.0,-6.0,-11.0,1.0,1650915191456397.0,2
1287,4.0,3.0,1.0,-2.0,-2.0,2.0,-4.0,5.0,1650915191456397.0,2
1288,-1.0,3.0,3.0,6.0,-3.0,8.0,21.0,-4.0,1650915191463351.0,2
1289,-2.0,1.0,5.0,2.0,7.0,6.0,-10.0,2.0,1650915191463351.0,2
1290,-4.0,-5.0,-22.0,-10.0,5.0,-6.0,-18.0,-2.0,1650915191478860.0,2
1291,6.0,6.0,13.0,2.0,-7.0,-2.0,24.0,5.0,1650915191478860.0,2
1292,-1.0,-11.0,-5.0,1.0,-8.0,-10.0,-2.0,-2.0,1650915191480888.0,2
1293,-5.0,-5.0,-4.0,-7.0,-2.0,-7.0,-12.0,-3.0,1650915191480888.0,2
1294,-2.0,-1.0,2.0,5.0,2.0,-1.0,-3.0,-3.0,1650915191501866.0,2
1295,-1.0,2.0,6.0,9.0,4.0,18.0,25.0,1.0,1650915191501866.0,2
1296,-2.0,2.0,-12.0,-16.0,-7.0,-9.0,-12.0,-5.0,1650915191502866.0,2
1297,-1.0,-2.0,-4.0,-3.0,-10.0,-9.0,-16.0,-2.0,1650915191502866.0,2
1298,-3.0,-8.0,-14.0,-20.0,3.0,5.0,6.0,-1.0,1650915191515947.0,2
1299,1.0,0.0,3.0,11.0,10.0,5.0,16.0,5.0,1650915191515947.0,2
1300,-1.0,4.0,4.0,-2.0,3.0,3.0,-12.0,-5.0,1650915191524091.0,2
1301,-1.0,-1.0,2.0,-1.0,-16.0,-20.0,-7.0,-2.0,1650915191524091.0,2
1302,0.0,-4.0,0.0,1.0,-6.0,3.0,3.0,0.0,1650915191540026.0,2
1303,-3.0,-1.0,-3.0,1.0,3.0,-5.0,-25.0,-6.0,1650915191540026.0,2
1304,-2.0,1.0,7.0,9.0,6.0,16.0,42.0,4.0,1650915191541025.0,2
1305,2.0,1.0,-1.0,0.0,7.0,0.0,-7.0,-1.0,1650915191541025.0,2
1306,-4.0,-3.0,3.0,1.0,-9.0,-8.0,-4.0,0.0,1650915191562368.0,2
1307,0.0,-6.0,-10.0,-9.0,5.0,-8.0,-4.0,-3.0,1650915191562368.0,2
1308,0.0,-4.0,2.0,4.0,3.0,18.0,-1.0,0.0,1650915191563401.0,2
1309,-9.0,-4.0,5.0,-1.0,-5.0,4.0,-2.0,-12.0,1650915191563401.0,2
1310,6.0,0.0,-10.0,-2.0,-4.0,-7.0,-2.0,2.0,1650915191576300.0,2
1311,-1.0,0.0,9.0,0.0,-13.0,-22.0,0.0,-3.0,1650915191576300.0,2
1312,1.0,1.0,-7.0,-8.0,-15.0,-17.0,-17.0,-2.0,1650915191584386.0,2
1313,-1.0,-1.0,1.0,0.0,11.0,16.0,9.0,1.0,1650915191584386.0,2
1314,-2.0,-1.0,8.0,10.0,22.0,22.0,-1.0,1.0,1650915191598691.0,2
1315,-2.0,-2.0,-2.0,0.0,4.0,-4.0,19.0,3.0,1650915191598691.0,2
1316,-1.0,3.0,-4.0,1.0,-9.0,-17.0,-16.0,-5.0,1650915191600644.0,2
1317,0.0,-6.0,-6.0,-5.0,4.0,30.0,-2.0,3.0,1650915191600644.0,2
1318,3.0,7.0,13.0,5.0,6.0,15.0,-6.0,-2.0,1650915191622174.0,2
1319,-1.0,0.0,-5.0,-5.0,-6.0,-12.0,19.0,8.0,1650915191622174.0,2
1320,0.0,1.0,4.0,2.0,-1.0,-1.0,-9.0,-3.0,1650915191623012.0,2
1321,3.0,-1.0,1.0,4.0,4.0,-8.0,-4.0,2.0,1650915191623012.0,2
1322,-1.0,-1.0,-5.0,-2.0,2.0,5.0,5.0,0.0,1650915191635162.0,2
1323,-1.0,1.0,6.0,7.0,-2.0,1.0,-15.0,-3.0,1650915191635162.0,2
1324,0.0,1.0,-3.0,-11.0,-8.0,-10.0,19.0,1.0,1650915191651476.0,2
1325,0.0,-4.0,-7.0,-4.0,-5.0,-9.0,2.0,2.0,1650915191651476.0,2
1326,-3.0,2.0,6.0,4.0,1.0,-2.0,2.0,2.0,1650915191659598.0,2
1327,0.0,-5.0,-9.0,-9.0,-10.0,-2.0,-4.0,-2.0,1650915191659598.0,2
1328,-1.0,-1.0,1.0,1.0,2.0,-8.0,-9.0,-2.0,1650915191660454.0,2
1329,-1.0,2.0,1.0,2.0,1.0,11.0,0.0,2.0,1650915191660454.0,2
1330,-2.0,0.0,-2.0,-2.0,5.0,-3.0,0.0,-2.0,1650915191681998.0,2
1331,2.0,3.0,3.0,8.0,9.0,12.0,9.0,3.0,1650915191681998.0,2
1332,3.0,-2.0,-1.0,-2.0,2.0,5.0,-16.0,-1.0,1650915191682836.0,2
1333,-1.0,0.0,-2.0,-8.0,-14.0,-20.0,10.0,3.0,1650915191682836.0,2
1334,-7.0,-7.0,-7.0,-9.0,-24.0,-14.0,-10.0,-6.0,1650915191696227.0,2
1335,3.0,-1.0,2.0,6.0,22.0,20.0,6.0,5.0,1650915191696227.0,2
1336,-1.0,0.0,7.0,11.0,17.0,4.0,-14.0,-6.0,1650915191704459.0,2
1337,-2.0,0.0,-5.0,-6.0,-14.0,-17.0,0.0,-6.0,1650915191704459.0,2
1338,0.0,-3.0,-14.0,-14.0,-12.0,-5.0,-3.0,3.0,1650915191719416.0,2
1339,-3.0,-2.0,2.0,6.0,3.0,25.0,8.0,3.0,1650915191719416.0,2
1340,3.0,3.0,4.0,7.0,13.0,16.0,0.0,3.0,1650915191720388.0,2
1341,1.0,0.0,-1.0,2.0,1.0,-4.0,-3.0,0.0,1650915191720388.0,2
1342,-4.0,-1.0,5.0,1.0,-15.0,-19.0,-4.0,-3.0,1650915191741172.0,2
1343,1.0,1.0,-6.0,-12.0,-13.0,-23.0,2.0,0.0,1650915191741172.0,2
1344,-4.0,4.0,5.0,1.0,0.0,8.0,-14.0,-7.0,1650915191743166.0,2
1345,-4.0,-9.0,-6.0,-3.0,4.0,4.0,-2.0,6.0,1650915191743166.0,2
1346,3.0,1.0,-8.0,2.0,10.0,6.0,8.0,5.0,1650915191764675.0,2
1347,-4.0,1.0,7.0,4.0,-6.0,-10.0,-6.0,-6.0,1650915191764675.0,2
1348,-1.0,-1.0,-5.0,-6.0,-16.0,-15.0,1.0,-1.0,1650915191765675.0,2
1349,1.0,0.0,0.0,2.0,9.0,-1.0,-2.0,0.0,1650915191765675.0,2
1350,0.0,0.0,1.0,2.0,6.0,24.0,1.0,0.0,1650915191779889.0,2
1351,0.0,1.0,-1.0,-3.0,9.0,16.0,6.0,0.0,1650915191779889.0,2
1352,2.0,-2.0,-3.0,-2.0,2.0,-2.0,6.0,1.0,1650915191780921.0,2
1353,-5.0,3.0,3.0,-1.0,-8.0,-7.0,-6.0,-3.0,1650915191780921.0,2
1354,1.0,-4.0,-5.0,-4.0,-1.0,-13.0,-9.0,5.0,1650915191800300.0,2
1355,-2.0,0.0,2.0,2.0,-15.0,-14.0,2.0,-2.0,1650915191800300.0,2
1356,-4.0,-8.0,-2.0,-3.0,-11.0,2.0,3.0,1.0,1650915191809554.0,2
1357,1.0,2.0,-8.0,-7.0,9.0,1.0,-2.0,1.0,1650915191809554.0,2
1358,1.0,3.0,19.0,17.0,23.0,16.0,3.0,2.0,1650915191815804.0,2
1359,-1.0,-1.0,-7.0,0.0,5.0,10.0,-10.0,-1.0,1650915191815804.0,2
1360,2.0,3.0,7.0,0.0,-12.0,-11.0,19.0,2.0,1650915191824653.0,2
1361,0.0,-2.0,-7.0,-3.0,-9.0,-9.0,-9.0,-2.0,1650915191824653.0,2
1362,-3.0,0.0,4.0,-2.0,-5.0,-13.0,-3.0,-3.0,1650915191838591.0,2
1363,-2.0,-4.0,-7.0,-8.0,-8.0,-4.0,0.0,-1.0,1650915191838591.0,2
1364,1.0,3.0,2.0,5.0,9.0,12.0,-7.0,-1.0,1650915191846629.0,2
1365,4.0,3.0,5.0,3.0,4.0,16.0,8.0,2.0,1650915191846629.0,2
1366,0.0,-3.0,-6.0,-4.0,-8.0,-13.0,-2.0,-1.0,1650915191861170.0,2
1367,0.0,1.0,5.0,0.0,5.0,-5.0,2.0,-2.0,1650915191861170.0,2
1368,-4.0,2.0,7.0,-3.0,1.0,-2.0,-6.0,-1.0,1650915191863012.0,0
1369,0.0,-14.0,-26.0,-3.0,2.0,1.0,2.0,1.0,1650915191863012.0,0
1370,-1.0,4.0,6.0,5.0,1.0,4.0,3.0,-2.0,1650915191876410.0,0
1371,4.0,2.0,-6.0,0.0,-11.0,-8.0,-2.0,1.0,1650915191876410.0,0
1372,-5.0,5.0,5.0,-5.0,-7.0,-7.0,-9.0,-4.0,1650915191884372.0,0
1373,3.0,3.0,11.0,4.0,4.0,19.0,16.0,4.0,1650915191884372.0,0
1374,0.0,-1.0,-6.0,-1.0,10.0,3.0,1.0,0.0,1650915191900018.0,0
1375,5.0,1.0,4.0,3.0,0.0,-16.0,-1.0,1.0,1650915191900018.0,0
1376,-2.0,-3.0,-18.0,-4.0,-2.0,-1.0,-13.0,-7.0,1650915191901019.0,0
1377,-2.0,4.0,14.0,3.0,-6.0,5.0,0.0,0.0,1650915191901019.0,0
1378,-1.0,-2.0,-8.0,-7.0,-12.0,-8.0,0.0,0.0,1650915191929726.0,0
1379,0.0,2.0,4.0,2.0,0.0,6.0,5.0,3.0,1650915191929726.0,0
1380,0.0,-3.0,0.0,8.0,12.0,2.0,5.0,2.0,1650915191930898.0,0
1381,2.0,4.0,3.0,-1.0,3.0,-6.0,-10.0,-3.0,1650915191930898.0,0
1382,-3.0,-2.0,8.0,-1.0,-7.0,-2.0,-11.0,-5.0,1650915191934856.0,0
1383,-2.0,-3.0,-16.0,-10.0,-7.0,-7.0,2.0,-1.0,1650915191934856.0,0
1384,-2.0,-1.0,3.0,4.0,-4.0,-2.0,3.0,-3.0,1650915191944090.0,0
1385,-1.0,6.0,8.0,3.0,9.0,1.0,-5.0,0.0,1650915191944090.0,0
1386,-2.0,-7.0,1.0,5.0,7.0,4.0,3.0,1.0,1650915191959087.0,0
1387,-1.0,0.0,-3.0,-7.0,-3.0,2.0,-9.0,-3.0,1650915191959087.0,0
1388,2.0,1.0,-2.0,-1.0,0.0,1.0,3.0,0.0,1650915191961079.0,0
1389,0.0,-1.0,-2.0,-1.0,-3.0,-5.0,-3.0,1.0,1650915191961079.0,0
1390,6.0,-2.0,-8.0,-7.0,-14.0,-18.0,7.0,-1.0,1650915191982341.0,0
1391,-8.0,-3.0,3.0,2.0,0.0,13.0,0.0,-3.0,1650915191982341.0,0
1392,2.0,-4.0,-2.0,-1.0,-3.0,10.0,4.0,2.0,1650915191983373.0,0
1393,-2.0,3.0,8.0,6.0,17.0,1.0,-14.0,-2.0,1650915191983373.0,0
1394,-1.0,-1.0,-8.0,-1.0,3.0,-2.0,12.0,1.0,1650915192004898.0,0
1395,-1.0,-6.0,-9.0,-6.0,-1.0,1.0,5.0,-1.0,1650915192004898.0,0
1396,2.0,0.0,-6.0,-6.0,3.0,8.0,4.0,5.0,1650915192005932.0,0
1397,-4.0,-1.0,4.0,3.0,-13.0,-14.0,-10.0,-1.0,1650915192005932.0,0
1398,-1.0,1.0,3.0,-3.0,-5.0,-13.0,5.0,-9.0,1650915192018865.0,0
1399,0.0,4.0,5.0,1.0,-5.0,-4.0,-9.0,-1.0,1650915192018865.0,0
1400,-4.0,0.0,-8.0,-5.0,-4.0,-2.0,-1.0,-6.0,1650915192020858.0,0
1401,0.0,0.0,1.0,0.0,10.0,2.0,10.0,3.0,1650915192020858.0,0
1402,-1.0,1.0,-3.0,6.0,15.0,22.0,-4.0,2.0,1650915192042077.0,0
1403,1.0,3.0,7.0,7.0,4.0,5.0,9.0,2.0,1650915192042077.0,0
1404,0.0,2.0,2.0,-5.0,-16.0,-29.0,-9.0,-1.0,1650915192043084.0,0
1405,-1.0,-5.0,-14.0,-2.0,1.0,21.0,2.0,1.0,1650915192043084.0,0
1406,-3.0,1.0,5.0,0.0,6.0,8.0,-3.0,-3.0,1650915192065074.0,0
1407,0.0,2.0,5.0,5.0,5.0,-4.0,9.0,1.0,1650915192065074.0,0
1408,2.0,-3.0,-3.0,-3.0,-6.0,-21.0,-10.0,0.0,1650915192065869.0,0
1409,1.0,-2.0,-6.0,-12.0,-26.0,-17.0,3.0,-4.0,1650915192065869.0,0
1410,-2.0,-1.0,-1.0,3.0,2.0,15.0,1.0,0.0,1650915192079594.0,0
1411,-2.0,-2.0,3.0,1.0,14.0,13.0,-5.0,-2.0,1650915192079594.0,0
1412,3.0,0.0,2.0,1.0,8.0,4.0,6.0,3.0,1650915192080712.0,0
1413,-4.0,-4.0,1.0,3.0,-5.0,-11.0,-4.0,-3.0,1650915192080712.0,0
1414,0.0,-6.0,-11.0,-10.0,-9.0,-4.0,-4.0,1.0,1650915192101709.0,0
1415,4.0,1.0,4.0,9.0,3.0,1.0,-1.0,0.0,1650915192101709.0,0
1416,-3.0,-4.0,3.0,1.0,5.0,4.0,8.0,-1.0,1650915192102709.0,0
1417,0.0,1.0,2.0,1.0,0.0,3.0,-1.0,-1.0,1650915192102709.0,0
1418,-1.0,4.0,2.0,-4.0,-12.0,-9.0,-5.0,0.0,1650915192123821.0,0
1419,-2.0,-10.0,-14.0,-11.0,-6.0,-21.0,-3.0,5.0,1650915192123821.0,0
1420,-3.0,-4.0,-2.0,5.0,3.0,15.0,-4.0,-1.0,1650915192125820.0,0
1421,5.0,0.0,2.0,2.0,8.0,13.0,3.0,1.0,1650915192125820.0,0
1422,0.0,6.0,0.0,0.0,3.0,-3.0,0.0,2.0,1650915192138495.0,0
1423,-1.0,1.0,-2.0,-3.0,-4.0,2.0,1.0,-2.0,1650915192138495.0,0
1424,-1.0,-1.0,-4.0,-4.0,-6.0,-6.0,-3.0,0.0,1650915192146252.0,0
1425,-1.0,1.0,5.0,-1.0,-16.0,-23.0,-3.0,-1.0,1650915192146252.0,0
1426,1.0,0.0,-2.0,3.0,3.0,0.0,-1.0,0.0,1650915192161841.0,0
1427,3.0,5.0,2.0,5.0,10.0,5.0,-3.0,-5.0,1650915192161841.0,0
1428,-6.0,-4.0,-3.0,-3.0,18.0,29.0,11.0,3.0,1650915192162675.0,0
1429,4.0,7.0,10.0,3.0,5.0,14.0,6.0,3.0,1650915192162675.0,0
1430,0.0,0.0,-2.0,-2.0,-8.0,-8.0,-5.0,-1.0,1650915192184355.0,0
1431,-3.0,-5.0,-13.0,-6.0,-18.0,-29.0,-7.0,-5.0,1650915192184355.0,0
1432,1.0,3.0,6.0,6.0,-18.0,-14.0,-11.0,-3.0,1650915192185264.0,0
1433,-2.0,-4.0,-9.0,-9.0,9.0,1.0,1.0,-3.0,1650915192185264.0,0
1434,1.0,7.0,9.0,6.0,0.0,4.0,8.0,7.0,1650915192198577.0,0
1435,-2.0,-5.0,5.0,6.0,16.0,14.0,-3.0,-2.0,1650915192198577.0,0
1436,0.0,4.0,3.0,2.0,2.0,5.0,2.0,0.0,1650915192206577.0,0
1437,-1.0,-1.0,-2.0,0.0,-4.0,-8.0,-7.0,2.0,1650915192206577.0,0
1438,-2.0,-2.0,3.0,5.0,4.0,0.0,9.0,3.0,1650915192222176.0,0
1439,2.0,1.0,-7.0,-7.0,-6.0,-7.0,1.0,-10.0,1650915192222176.0,0
1440,-1.0,-1.0,4.0,0.0,-2.0,-9.0,-17.0,-3.0,1650915192223019.0,0
1441,-2.0,-6.0,-4.0,-4.0,-8.0,11.0,23.0,3.0,1650915192223019.0,0
1442,5.0,-2.0,-1.0,0.0,-1.0,-4.0,-6.0,-2.0,1650915192244994.0,0
1443,-4.0,-1.0,-11.0,-15.0,-2.0,-4.0,1.0,7.0,1650915192244994.0,0
1444,-4.0,-3.0,4.0,8.0,-1.0,-2.0,-2.0,-7.0,1650915192246029.0,0
1445,-1.0,0.0,-8.0,-5.0,7.0,14.0,-6.0,-3.0,1650915192246029.0,0
1446,-3.0,-2.0,-1.0,-5.0,7.0,-2.0,-5.0,-2.0,1650915192259461.0,0
1447,1.0,6.0,9.0,8.0,2.0,11.0,11.0,2.0,1650915192259461.0,0
1448,1.0,1.0,-3.0,-5.0,-8.0,-7.0,-1.0,1.0,1650915192266476.0,0
1449,0.0,-1.0,1.0,3.0,5.0,-12.0,2.0,2.0,1650915192266476.0,0
1450,0.0,1.0,1.0,0.0,-8.0,-3.0,1.0,-2.0,1650915192281793.0,0
1451,-1.0,-6.0,-5.0,-7.0,-7.0,18.0,-5.0,-1.0,1650915192281793.0,0
1452,2.0,0.0,2.0,6.0,12.0,5.0,5.0,-1.0,1650915192283623.0,0
1453,0.0,-1.0,-5.0,-3.0,-8.0,-18.0,-5.0,-4.0,1650915192283623.0,0
1454,-2.0,0.0,-5.0,-3.0,-14.0,-14.0,-5.0,-2.0,1650915192304998.0,0
1455,-1.0,-2.0,6.0,-1.0,-1.0,-2.0,-3.0,1.0,1650915192304998.0,0
1456,2.0,1.0,-2.0,0.0,8.0,10.0,4.0,2.0,1650915192306115.0,0
1457,-1.0,-2.0,4.0,0.0,0.0,0.0,1.0,-3.0,1650915192306115.0,0
1458,-1.0,-3.0,-13.0,-8.0,-5.0,-15.0,-12.0,-1.0,1650915192318920.0,0
1459,-5.0,2.0,13.0,5.0,0.0,13.0,20.0,3.0,1650915192318920.0,0
1460,0.0,0.0,6.0,11.0,7.0,10.0,7.0,4.0,1650915192324734.0,0
1461,-1.0,0.0,0.0,-5.0,-4.0,-6.0,-6.0,-3.0,1650915192324734.0,0
1462,-2.0,-7.0,-10.0,-7.0,-7.0,-10.0,-5.0,-1.0,1650915192341365.0,0
1463,6.0,3.0,-4.0,2.0,5.0,1.0,-3.0,-1.0,1650915192341365.0,0
1464,-1.0,1.0,-1.0,-7.0,1.0,4.0,0.0,-1.0,1650915192343358.0,0
1465,-3.0,3.0,7.0,7.0,1.0,-2.0,-5.0,1.0,1650915192343358.0,0
1466,1.0,1.0,-3.0,-4.0,-11.0,0.0,2.0,-1.0,1650915192364693.0,0
1467,-4.0,1.0,12.0,11.0,11.0,10.0,-5.0,-4.0,1650915192364693.0,0
1468,2.0,-6.0,-17.0,-8.0,10.0,2.0,1.0,0.0,1650915192365693.0,0
1469,3.0,4.0,-1.0,4.0,2.0,8.0,0.0,0.0,1650915192365693.0,0
1470,-2.0,-1.0,11.0,10.0,1.0,2.0,1.0,-2.0,1650915192379158.0,0
1471,2.0,3.0,1.0,-4.0,-9.0,-15.0,-4.0,0.0,1650915192379158.0,0
1472,-3.0,-2.0,0.0,-7.0,-17.0,-16.0,-4.0,-3.0,1650915192385384.0,0
1473,-4.0,-5.0,-9.0,-10.0,-19.0,-18.0,-6.0,-3.0,1650915192385384.0,0
1474,1.0,4.0,4.0,4.0,2.0,12.0,12.0,4.0,1650915192401535.0,0
1475,3.0,-4.0,2.0,6.0,29.0,20.0,-14.0,2.0,1650915192401535.0,0
1476,7.0,4.0,7.0,15.0,18.0,22.0,24.0,2.0,1650915192403527.0,0
1477,-1.0,1.0,-6.0,-7.0,-1.0,-3.0,-5.0,-1.0,1650915192403527.0,0
1478,-3.0,-3.0,2.0,-1.0,-9.0,-7.0,-3.0,-3.0,1650915192424084.0,0
1479,-3.0,-1.0,-1.0,-2.0,-19.0,-16.0,-5.0,1.0,1650915192424084.0,0
1480,0.0,1.0,-6.0,-8.0,-6.0,-10.0,-8.0,-1.0,1650915192426080.0,0
1481,0.0,-2.0,5.0,-5.0,-25.0,-33.0,-7.0,-2.0,1650915192426080.0,0
1482,-5.0,-2.0,-3.0,0.0,12.0,9.0,-5.0,-3.0,1650915192439328.0,0
1483,0.0,-3.0,-9.0,4.0,22.0,40.0,15.0,-1.0,1650915192439328.0,0
1484,4.0,3.0,4.0,6.0,19.0,18.0,4.0,4.0,1650915192446112.0,0
1485,0.0,4.0,11.0,12.0,7.0,6.0,4.0,1.0,1650915192446112.0,0
1486,-2.0,-7.0,-13.0,-13.0,-13.0,-14.0,-4.0,0.0,1650915192462722.0,0
1487,-2.0,1.0,-2.0,-3.0,-20.0,-27.0,-9.0,-4.0,1650915192462722.0,0
1488,1.0,0.0,3.0,-3.0,-9.0,-8.0,-6.0,-3.0,1650915192463559.0,0
1489,-1.0,-1.0,-6.0,-2.0,1.0,2.0,-1.0,0.0,1650915192463559.0,0
1490,1.0,0.0,0.0,-4.0,-1.0,-7.0,-2.0,-2.0,1650915192484380.0,0
1491,0.0,0.0,2.0,-3.0,-4.0,0.0,4.0,2.0,1650915192484380.0,0
1492,-5.0,0.0,-2.0,2.0,3.0,17.0,4.0,-4.0,1650915192485383.0,0
1493,8.0,1.0,3.0,8.0,26.0,26.0,6.0,2.0,1650915192485383.0,0
1494,1.0,2.0,7.0,5.0,19.0,16.0,2.0,4.0,1650915192498352.0,0
1495,-5.0,-2.0,1.0,4.0,-10.0,-21.0,1.0,3.0,1650915192498352.0,0
1496,-3.0,0.0,3.0,-3.0,-22.0,-27.0,-13.0,-3.0,1650915192506349.0,0
1497,-2.0,-4.0,-9.0,-12.0,-21.0,-19.0,-2.0,-2.0,1650915192506349.0,0
1498,-3.0,0.0,3.0,4.0,10.0,9.0,1.0,-5.0,1650915192522159.0,0
1499,2.0,-1.0,-2.0,-1.0,5.0,3.0,1.0,3.0,1650915192522159.0,0
1500,-4.0,-13.0,-7.0,-2.0,3.0,2.0,-1.0,1.0,1650915192523159.0,0
1501,-2.0,2.0,0.0,3.0,2.0,7.0,0.0,-1.0,1650915192523159.0,0
1502,-1.0,-1.0,5.0,1.0,-5.0,2.0,-2.0,1.0,1650915192544637.0,0
1503,2.0,1.0,-9.0,-11.0,6.0,4.0,2.0,-3.0,1650915192544637.0,0
1504,2.0,5.0,7.0,12.0,1.0,-12.0,-2.0,0.0,1650915192545637.0,0
1505,-1.0,0.0,6.0,4.0,8.0,10.0,2.0,0.0,1650915192545637.0,0
1506,-1.0,-4.0,-13.0,-12.0,-8.0,-11.0,-4.0,-1.0,1650915192557924.0,0
1507,2.0,1.0,5.0,3.0,-6.0,-9.0,2.0,-1.0,1650915192557924.0,0
1508,-2.0,-1.0,-8.0,-8.0,2.0,7.0,-1.0,-2.0,1650915192572994.0,0
1509,0.0,0.0,1.0,2.0,-1.0,5.0,-1.0,-1.0,1650915192572994.0,0
1510,2.0,2.0,7.0,5.0,-1.0,-3.0,-4.0,0.0,1650915192581807.0,0
1511,-3.0,-4.0,-6.0,-5.0,-7.0,-2.0,-8.0,-5.0,1650915192581807.0,0
1512,4.0,3.0,8.0,-2.0,0.0,2.0,16.0,5.0,1650915192582805.0,0
1513,-8.0,-4.0,-4.0,-2.0,-1.0,-2.0,-3.0,-1.0,1650915192582805.0,0
1514,2.0,2.0,-5.0,0.0,7.0,7.0,3.0,5.0,1650915192603955.0,0
1515,-3.0,-3.0,5.0,5.0,-2.0,-4.0,-7.0,-15.0,1650915192603955.0,0
1516,-3.0,-3.0,-6.0,-2.0,-13.0,-19.0,1.0,-2.0,1650915192605790.0,0
1517,-1.0,1.0,1.0,-5.0,-13.0,-8.0,-6.0,0.0,1650915192605790.0,0
1518,1.0,3.0,1.0,4.0,13.0,34.0,12.0,1.0,1650915192617948.0,0
1519,1.0,2.0,1.0,1.0,8.0,2.0,2.0,5.0,1650915192617948.0,0
1520,0.0,3.0,-1.0,0.0,14.0,14.0,-6.0,1.0,1650915192627442.0,0
1521,0.0,-1.0,-2.0,2.0,5.0,-9.0,5.0,0.0,1650915192627442.0,0
1522,-1.0,4.0,4.0,1.0,-4.0,-4.0,-2.0,-1.0,1650915192642449.0,0
1523,0.0,-4.0,-11.0,-12.0,-12.0,1.0,0.0,5.0,1650915192642449.0,0
1524,-1.0,-2.0,-2.0,-1.0,-11.0,-15.0,-8.0,-4.0,1650915192643291.0,0
1525,-1.0,-1.0,-4.0,-6.0,-5.0,-8.0,0.0,2.0,1650915192643291.0,0
1526,1.0,-6.0,-2.0,2.0,-7.0,-2.0,0.0,-4.0,1650915192664695.0,0
1527,1.0,1.0,2.0,2.0,-2.0,1.0,-1.0,1.0,1650915192664695.0,0
1528,-1.0,-2.0,-3.0,-3.0,6.0,1.0,0.0,0.0,1650915192665694.0,0
1529,3.0,1.0,0.0,-1.0,-1.0,4.0,1.0,0.0,1650915192665694.0,0
1530,-4.0,-3.0,1.0,-7.0,-13.0,-14.0,-2.0,-2.0,1650915192677840.0,0
1531,-2.0,-2.0,4.0,9.0,6.0,9.0,-3.0,-2.0,1650915192677840.0,0
1532,0.0,-1.0,-7.0,-2.0,9.0,4.0,-3.0,1.0,1650915192686850.0,0
1533,2.0,2.0,4.0,8.0,10.0,15.0,4.0,1.0,1650915192686850.0,0
1534,1.0,1.0,-3.0,-5.0,-11.0,-11.0,1.0,3.0,1650915192701940.0,0
1535,0.0,-2.0,-5.0,-7.0,-9.0,-19.0,-5.0,-2.0,1650915192701940.0,0
1536,-2.0,-3.0,-1.0,-5.0,-18.0,-20.0,-15.0,-4.0,1650915192702940.0,0
1537,-1.0,-3.0,2.0,0.0,7.0,11.0,10.0,1.0,1650915192702940.0,0
1538,-1.0,-3.0,-3.0,6.0,6.0,4.0,2.0,1.0,1650915192731960.0,0
1539,-2.0,-3.0,-6.0,-10.0,-6.0,-1.0,2.0,1.0,1650915192731960.0,0
1540,0.0,2.0,0.0,1.0,15.0,22.0,2.0,1.0,1650915192732793.0,0
1541,0.0,-2.0,-2.0,-2.0,17.0,12.0,-1.0,-2.0,1650915192732793.0,0
1542,0.0,1.0,1.0,0.0,-3.0,-3.0,-1.0,-2.0,1650915192737810.0,0
1543,-1.0,0.0,3.0,-1.0,-27.0,-33.0,-8.0,-2.0,1650915192737810.0,0
1544,-4.0,-4.0,-8.0,-9.0,-7.0,2.0,8.0,2.0,1650915192747246.0,0
1545,-1.0,-7.0,-1.0,2.0,9.0,13.0,-6.0,-1.0,1650915192747246.0,0
1546,-1.0,-1.0,1.0,2.0,16.0,7.0,8.0,3.0,1650915192761946.0,0
1547,-2.0,3.0,1.0,4.0,1.0,-2.0,-13.0,-7.0,1650915192761946.0,0
1548,-2.0,-1.0,-3.0,-6.0,-21.0,-13.0,2.0,0.0,1650915192762944.0,0
1549,2.0,3.0,-4.0,-2.0,0.0,-24.0,-5.0,0.0,1650915192762944.0,0
1550,-1.0,-1.0,-3.0,-3.0,5.0,12.0,-6.0,-2.0,1650915192784424.0,0
1551,-3.0,-2.0,2.0,-2.0,1.0,-6.0,2.0,0.0,1650915192784424.0,0
1552,-1.0,-3.0,0.0,0.0,-6.0,1.0,-4.0,-2.0,1650915192785422.0,0
1553,3.0,2.0,1.0,0.0,-3.0,6.0,0.0,-1.0,1650915192785422.0,0
1554,-1.0,1.0,-2.0,2.0,10.0,6.0,6.0,-1.0,1650915192798742.0,0
1555,3.0,2.0,7.0,9.0,7.0,17.0,12.0,7.0,1650915192798742.0,0
1556,-2.0,1.0,-4.0,-8.0,-2.0,-10.0,-3.0,-2.0,1650915192806585.0,0
1557,-2.0,-3.0,-4.0,-1.0,-5.0,1.0,-5.0,-3.0,1650915192806585.0,0
1558,-1.0,-3.0,2.0,1.0,0.0,-17.0,-8.0,-3.0,1650915192821979.0,0
1559,-1.0,-2.0,-8.0,-12.0,-10.0,8.0,1.0,-3.0,1650915192821979.0,0
1560,2.0,2.0,10.0,17.0,5.0,0.0,2.0,1.0,1650915192828289.0,0
1561,-3.0,-1.0,-1.0,-8.0,-10.0,-12.0,-1.0,1.0,1650915192828289.0,0
1562,0.0,-1.0,5.0,5.0,12.0,5.0,1.0,-3.0,1650915192845074.0,0
1563,0.0,1.0,6.0,7.0,14.0,18.0,4.0,1.0,1650915192845074.0,0
1564,-1.0,1.0,-6.0,-5.0,-3.0,0.0,-1.0,1.0,1650915192846106.0,0
1565,-1.0,1.0,5.0,2.0,-9.0,-12.0,-9.0,-3.0,1650915192846106.0,0
1566,0.0,0.0,-2.0,-4.0,-18.0,-9.0,9.0,1.0,1650915192858240.0,0
1567,-7.0,-4.0,-10.0,-8.0,-10.0,-19.0,-4.0,1.0,1650915192858240.0,0
1568,3.0,1.0,7.0,5.0,3.0,2.0,-4.0,-2.0,1650915192866936.0,0
1569,-8.0,-2.0,6.0,5.0,10.0,9.0,3.0,0.0,1650915192866936.0,0
1570,0.0,0.0,-9.0,-2.0,0.0,2.0,-8.0,-1.0,1650915192882014.0,0
1571,1.0,0.0,-2.0,-3.0,-4.0,3.0,9.0,2.0,1650915192882014.0,0
1572,-2.0,-2.0,-2.0,-6.0,-11.0,-6.0,-7.0,-4.0,1650915192883014.0,0
1573,0.0,2.0,1.0,-5.0,-7.0,-16.0,-7.0,-4.0,1650915192883014.0,0
1574,2.0,0.0,14.0,15.0,7.0,29.0,14.0,5.0,1650915192905008.0,0
1575,3.0,1.0,-9.0,-6.0,16.0,14.0,3.0,7.0,1650915192905008.0,0
1576,0.0,-1.0,0.0,3.0,6.0,-3.0,-1.0,-3.0,1650915192906039.0,0
1577,0.0,-1.0,-5.0,-3.0,-9.0,-17.0,-3.0,0.0,1650915192906039.0,0
1578,-4.0,-2.0,-6.0,-10.0,-12.0,-16.0,-9.0,-2.0,1650915192926595.0,0
1579,0.0,-2.0,5.0,3.0,-5.0,6.0,-4.0,0.0,1650915192926595.0,0
1580,0.0,-1.0,-7.0,-4.0,11.0,6.0,5.0,0.0,1650915192928428.0,0
1581,1.0,2.0,9.0,10.0,5.0,4.0,1.0,1.0,1650915192928428.0,0
1582,-1.0,-3.0,-10.0,-8.0,-13.0,-9.0,-4.0,-4.0,1650915192942746.0,0
1583,-1.0,-1.0,1.0,1.0,-14.0,-16.0,-4.0,-5.0,1650915192942746.0,0
1584,-2.0,1.0,0.0,0.0,11.0,5.0,-2.0,-1.0,1650915192943620.0,0
1585,-1.0,-1.0,-7.0,0.0,22.0,14.0,11.0,3.0,1650915192943620.0,0
1586,2.0,3.0,4.0,4.0,2.0,16.0,-1.0,-1.0,1650915192965160.0,0
1587,2.0,3.0,10.0,7.0,1.0,-1.0,4.0,1.0,1650915192965160.0,0
1588,0.0,-2.0,-3.0,-6.0,-11.0,-10.0,-6.0,1.0,1650915192965160.0,0
1589,2.0,2.0,-4.0,-7.0,-12.0,-9.0,1.0,0.0,1650915192965160.0,0
1590,-6.0,-10.0,17.0,10.0,-9.0,-22.0,-8.0,-3.0,1650915192987233.0,0
1591,-1.0,0.0,-24.0,-13.0,0.0,13.0,-1.0,-2.0,1650915192987233.0,0
1592,0.0,-1.0,7.0,11.0,13.0,18.0,6.0,8.0,1650915192988074.0,0
1593,-2.0,-2.0,-10.0,-6.0,-1.0,8.0,-3.0,-3.0,1650915192988074.0,0
1594,4.0,6.0,-5.0,-7.0,-14.0,-28.0,0.0,-1.0,1650915193001022.0,0
1595,-3.0,-5.0,5.0,5.0,0.0,-3.0,-4.0,-2.0,1650915193001022.0,0
1596,0.0,1.0,13.0,6.0,9.0,0.0,2.0,1.0,1650915193009224.0,0
1597,4.0,5.0,-13.0,-9.0,3.0,15.0,3.0,1.0,1650915193009224.0,0
1598,-2.0,1.0,-9.0,-6.0,-4.0,3.0,-1.0,-2.0,1650915193024008.0,0
1599,1.0,-2.0,13.0,10.0,4.0,-13.0,-3.0,-3.0,1650915193024008.0,0
1600,1.0,0.0,-13.0,-10.0,-10.0,-2.0,-1.0,3.0,1650915193026003.0,0
1601,-2.0,0.0,8.0,7.0,-6.0,0.0,-3.0,-1.0,1650915193026003.0,0
1602,-6.0,-8.0,-1.0,1.0,3.0,0.0,-1.0,-4.0,1650915193047438.0,0
1603,3.0,9.0,17.0,9.0,3.0,2.0,-1.0,1.0,1650915193047438.0,0
1604,1.0,-3.0,-14.0,-15.0,-2.0,2.0,3.0,0.0,1650915193048278.0,0
1605,0.0,-2.0,6.0,8.0,-11.0,-7.0,2.0,2.0,1650915193048278.0,0
1606,5.0,1.0,-16.0,-10.0,5.0,-2.0,0.0,9.0,1650915193061195.0,0
1607,-10.0,-19.0,-16.0,-11.0,8.0,-1.0,-5.0,-7.0,1650915193061195.0,0
1608,4.0,7.0,30.0,17.0,-9.0,-9.0,-5.0,-4.0,1650915193068010.0,0
1609,-5.0,-2.0,-1.0,0.0,2.0,6.0,2.0,2.0,1650915193068010.0,0
1610,2.0,5.0,1.0,0.0,1.0,8.0,5.0,8.0,1650915193084337.0,0
1611,2.0,13.0,16.0,4.0,-2.0,-10.0,-3.0,7.0,1650915193084337.0,0
1612,2.0,-8.0,-33.0,-14.0,-8.0,-10.0,-1.0,0.0,1650915193085339.0,0
1613,1.0,-13.0,-1.0,1.0,6.0,8.0,-5.0,-2.0,1650915193085339.0,0
1614,7.0,15.0,26.0,7.0,12.0,19.0,13.0,3.0,1650915193107005.0,0
1615,-2.0,-6.0,-6.0,3.0,0.0,2.0,4.0,2.0,1650915193107005.0,0
1616,-10.0,-12.0,-19.0,-24.0,-17.0,-15.0,-9.0,-6.0,1650915193108003.0,0
1617,2.0,20.0,6.0,0.0,-9.0,-12.0,-9.0,-7.0,1650915193108003.0,0
1618,-6.0,-16.0,15.0,16.0,-1.0,-6.0,-2.0,-2.0,1650915193120003.0,0
1619,9.0,16.0,6.0,-8.0,1.0,9.0,4.0,6.0,1650915193120003.0,0
1620,-20.0,-3.0,6.0,6.0,3.0,-6.0,-11.0,-18.0,1650915193128946.0,0
1621,-1.0,-11.0,2.0,6.0,-3.0,-4.0,-2.0,-4.0,1650915193128946.0,0
1622,7.0,15.0,-9.0,-14.0,-1.0,1.0,-1.0,5.0,1650915193144571.0,0
1623,0.0,6.0,9.0,3.0,2.0,-1.0,2.0,-14.0,1650915193144571.0,0
1624,9.0,2.0,8.0,31.0,10.0,12.0,7.0,14.0,1650915193145571.0,0
1625,-13.0,-6.0,-12.0,-21.0,-7.0,-6.0,-6.0,1.0,1650915193145571.0,0
1626,-3.0,-2.0,-23.0,-7.0,3.0,6.0,-5.0,-29.0,1650915193167190.0,0
1627,-3.0,0.0,-5.0,-4.0,-7.0,-8.0,-6.0,-4.0,1650915193167190.0,0
1628,8.0,15.0,15.0,-9.0,-10.0,-10.0,3.0,15.0,1650915193168030.0,0
1629,-10.0,-2.0,-1.0,8.0,0.0,-8.0,1.0,-8.0,1650915193168030.0,0
1630,9.0,4.0,32.0,26.0,13.0,21.0,10.0,25.0,1650915193181518.0,0
1631,-6.0,-36.0,-66.0,-22.0,7.0,8.0,-3.0,-17.0,1650915193181518.0,0
1632,0.0,7.0,5.0,-9.0,-2.0,6.0,1.0,-9.0,1650915193188690.0,0
1633,2.0,-8.0,3.0,1.0,-2.0,-6.0,-3.0,5.0,1650915193188690.0,0
1634,-1.0,9.0,-7.0,-8.0,-3.0,-10.0,-4.0,1.0,1650915193205527.0,0
1635,-5.0,11.0,44.0,31.0,-2.0,-1.0,2.0,11.0,1650915193205527.0,0
1636,-6.0,-15.0,-17.0,-27.0,-10.0,-6.0,-2.0,-4.0,1650915193206473.0,0
1637,4.0,-2.0,-4.0,10.0,-2.0,-5.0,-1.0,-3.0,1650915193206473.0,0
1638,3.0,16.0,8.0,-10.0,0.0,-11.0,-3.0,5.0,1650915193226684.0,0
1639,1.0,-23.0,-23.0,5.0,-9.0,-7.0,-1.0,12.0,1650915193226684.0,0
1640,-11.0,3.0,-23.0,1.0,12.0,19.0,1.0,-17.0,1650915193228647.0,0
1641,7.0,3.0,43.0,12.0,15.0,26.0,12.0,-4.0,1650915193228647.0,0
1642,-2.0,5.0,16.0,-5.0,-5.0,-11.0,-3.0,-3.0,1650915193241432.0,0
1643,3.0,-12.0,-26.0,-9.0,-7.0,-11.0,2.0,6.0,1650915193241432.0,0
1644,2.0,3.0,12.0,11.0,-10.0,6.0,4.0,5.0,1650915193248445.0,0
1645,-1.0,-8.0,-58.0,-33.0,6.0,11.0,-8.0,-1.0,1650915193248445.0,0
1646,-14.0,-15.0,15.0,12.0,-6.0,-8.0,-2.0,-12.0,1650915193264944.0,0
1647,-1.0,1.0,11.0,-6.0,-1.0,-5.0,2.0,0.0,1650915193264944.0,0
1648,1.0,-7.0,-21.0,-5.0,0.0,-4.0,4.0,2.0,1650915193265869.0,0
1649,3.0,30.0,48.0,6.0,-12.0,-4.0,-2.0,-6.0,1650915193265869.0,0
1650,-6.0,-22.0,-64.0,-31.0,7.0,8.0,-4.0,-2.0,1650915193287167.0,0
1651,-2.0,34.0,39.0,15.0,4.0,-4.0,-6.0,1.0,1650915193287167.0,0
1652,-1.0,5.0,21.0,17.0,2.0,-3.0,2.0,-3.0,1650915193288008.0,0
1653,3.0,-5.0,-5.0,3.0,0.0,-6.0,0.0,1.0,1650915193288008.0,0
1654,5.0,5.0,-8.0,-12.0,-7.0,2.0,3.0,-1.0,1650915193301017.0,0
1655,-2.0,-12.0,-25.0,0.0,-1.0,9.0,5.0,12.0,1650915193301017.0,0
1656,-3.0,-3.0,-15.0,-29.0,-8.0,-3.0,-7.0,-9.0,1650915193308156.0,0
1657,1.0,10.0,22.0,16.0,-2.0,-14.0,-2.0,-3.0,1650915193308156.0,0
1658,-1.0,-5.0,8.0,7.0,1.0,-4.0,-2.0,3.0,1650915193324613.0,0
1659,7.0,18.0,1.0,-11.0,0.0,11.0,1.0,-1.0,1650915193324613.0,0
1660,6.0,0.0,7.0,12.0,7.0,-15.0,1.0,9.0,1650915193325540.0,0
1661,-15.0,-14.0,-16.0,3.0,16.0,19.0,11.0,7.0,1650915193325540.0,0
1662,1.0,2.0,-20.0,-18.0,-7.0,13.0,-2.0,-3.0,1650915193346870.0,0
1663,-3.0,-4.0,5.0,9.0,6.0,13.0,4.0,-5.0,1650915193346870.0,0
1664,2.0,1.0,4.0,-4.0,4.0,5.0,5.0,12.0,1650915193347871.0,0
1665,9.0,8.0,-10.0,0.0,-5.0,-15.0,-2.0,1.0,1650915193347871.0,0
1666,-11.0,-4.0,13.0,12.0,-12.0,-21.0,-10.0,-14.0,1650915193360988.0,0
1667,-3.0,-3.0,-11.0,-26.0,-12.0,-3.0,-1.0,-2.0,1650915193360988.0,0
1668,-2.0,-3.0,19.0,17.0,-2.0,-13.0,-7.0,-12.0,1650915193367846.0,0
1669,4.0,-24.0,-37.0,-26.0,7.0,17.0,8.0,23.0,1650915193367846.0,0
1670,-4.0,1.0,8.0,16.0,10.0,24.0,1.0,-12.0,1650915193384261.0,0
1671,-2.0,-1.0,2.0,10.0,2.0,-6.0,-1.0,-5.0,1650915193384261.0,3
1672,1.0,0.0,17.0,1.0,13.0,13.0,-2.0,-8.0,1650915193385263.0,3
1673,6.0,8.0,9.0,-6.0,-7.0,-3.0,0.0,9.0,1650915193385263.0,3
1674,-6.0,-6.0,3.0,23.0,-3.0,-13.0,-1.0,-1.0,1650915193406186.0,3
1675,10.0,19.0,50.0,14.0,4.0,-1.0,-1.0,6.0,1650915193406186.0,3
1676,-11.0,-16.0,-51.0,-5.0,-8.0,-6.0,-6.0,-2.0,1650915193408184.0,3
1677,1.0,4.0,12.0,7.0,-7.0,-10.0,-3.0,-5.0,1650915193408184.0,3
1678,0.0,-17.0,-23.0,-40.0,-13.0,-12.0,-3.0,11.0,1650915193420529.0,3
1679,10.0,5.0,0.0,5.0,5.0,6.0,-1.0,-14.0,1650915193420529.0,3
1680,-6.0,2.0,25.0,9.0,4.0,7.0,3.0,7.0,1650915193429502.0,3
1681,15.0,13.0,10.0,15.0,10.0,10.0,7.0,5.0,1650915193429502.0,3
1682,-15.0,-7.0,-26.0,-12.0,8.0,-1.0,-4.0,-26.0,1650915193445093.0,3
1683,15.0,-2.0,-26.0,-21.0,-3.0,-7.0,3.0,24.0,1650915193445093.0,3
1684,-8.0,-15.0,3.0,-2.0,-23.0,-21.0,-10.0,2.0,1650915193446093.0,3
1685,-2.0,4.0,15.0,-2.0,-12.0,-13.0,-15.0,-9.0,1650915193446093.0,3
1686,-1.0,11.0,27.0,27.0,10.0,19.0,10.0,-2.0,1650915193467512.0,3
1687,-8.0,-4.0,-22.0,-15.0,20.0,30.0,5.0,0.0,1650915193467512.0,3
1688,5.0,-33.0,-15.0,15.0,17.0,15.0,5.0,5.0,1650915193468387.0,3
1689,-14.0,-9.0,6.0,-12.0,-19.0,-22.0,-5.0,-2.0,1650915193468387.0,3
1690,9.0,3.0,12.0,-11.0,-9.0,-20.0,-4.0,15.0,1650915193481123.0,3
1691,-4.0,-2.0,-4.0,2.0,-12.0,-9.0,-7.0,-6.0,1650915193481123.0,3
1692,-1.0,13.0,-29.0,-9.0,1.0,16.0,4.0,-6.0,1650915193489991.0,3
1693,3.0,0.0,2.0,-14.0,7.0,10.0,4.0,0.0,1650915193489991.0,3
1694,9.0,6.0,9.0,-7.0,-12.0,-7.0,-5.0,4.0,1650915193504609.0,3
1695,-15.0,-21.0,22.0,22.0,4.0,-5.0,-2.0,-9.0,1650915193504609.0,3
1696,-1.0,23.0,32.0,0.0,0.0,-20.0,-6.0,0.0,1650915193505609.0,3
1697,0.0,9.0,3.0,8.0,1.0,7.0,1.0,3.0,1650915193505609.0,3
1698,11.0,-12.0,-47.0,-35.0,-12.0,7.0,3.0,1.0,1650915193526959.0,3
1699,-11.0,1.0,-3.0,1.0,7.0,3.0,-1.0,-19.0,1650915193526959.0,3
1700,9.0,13.0,27.0,8.0,13.0,18.0,9.0,10.0,1650915193527958.0,3
1701,-4.0,-2.0,-24.0,4.0,8.0,5.0,3.0,10.0,1650915193527958.0,3
1702,1.0,-5.0,10.0,9.0,-1.0,-8.0,1.0,-7.0,1650915193541173.0,3
1703,1.0,10.0,5.0,-8.0,-9.0,-10.0,-7.0,-5.0,1650915193541173.0,3
1704,9.0,0.0,2.0,-6.0,-8.0,2.0,1.0,-5.0,1650915193549257.0,3
1705,-1.0,-1.0,12.0,17.0,8.0,6.0,-2.0,-2.0,1650915193549257.0,3
1706,-12.0,-8.0,-9.0,4.0,9.0,1.0,-3.0,-6.0,1650915193564290.0,3
1707,-4.0,-7.0,2.0,9.0,-2.0,-11.0,2.0,-5.0,1650915193564290.0,3
1708,1.0,19.0,11.0,16.0,-9.0,-6.0,-1.0,8.0,1650915193566288.0,3
1709,5.0,1.0,-59.0,-52.0,-16.0,-18.0,0.0,5.0,1650915193566288.0,3
1710,2.0,-3.0,-3.0,-4.0,6.0,7.0,-5.0,-5.0,1650915193594788.0,3
1711,8.0,-7.0,6.0,12.0,8.0,16.0,3.0,-1.0,1650915193594788.0,3
1712,-16.0,9.0,6.0,-7.0,-5.0,-5.0,-1.0,-1.0,1650915193595823.0,3
1713,-2.0,2.0,20.0,13.0,6.0,6.0,0.0,8.0,1650915193595823.0,3
1714,-11.0,-26.0,-48.0,1.0,-4.0,-1.0,-4.0,-3.0,1650915193599808.0,3
1715,7.0,9.0,-24.0,-36.0,-9.0,-5.0,1.0,3.0,1650915193599808.0,3
1716,15.0,-4.0,16.0,24.0,0.0,-3.0,1.0,10.0,1650915193608966.0,3
1717,-8.0,-10.0,-23.0,-13.0,-10.0,-15.0,-11.0,-31.0,1650915193608966.0,3
1718,0.0,0.0,17.0,11.0,0.0,-1.0,-6.0,-1.0,1650915193624433.0,3
1719,16.0,22.0,48.0,26.0,12.0,19.0,22.0,40.0,1650915193624433.0,3
1720,-5.0,-18.0,-52.0,-24.0,2.0,3.0,0.0,-5.0,1650915193625433.0,3
1721,-4.0,14.0,38.0,0.0,-11.0,-4.0,2.0,-17.0,1650915193625433.0,3
1722,8.0,6.0,-15.0,3.0,4.0,-3.0,-3.0,5.0,1650915193646763.0,3
1723,-6.0,-2.0,16.0,0.0,-10.0,-5.0,1.0,-13.0,1650915193646763.0,3
1724,-2.0,-1.0,6.0,-6.0,3.0,-1.0,-2.0,6.0,1650915193647794.0,3
1725,12.0,-3.0,-9.0,14.0,14.0,14.0,11.0,14.0,1650915193647794.0,3
1726,-6.0,-20.0,16.0,7.0,-5.0,0.0,0.0,-2.0,1650915193661068.0,3
1727,-11.0,-6.0,-8.0,-5.0,-7.0,-15.0,-9.0,-5.0,1650915193661068.0,3
1728,7.0,9.0,-2.0,-2.0,0.0,-1.0,-2.0,-11.0,1650915193677314.0,3
1729,-11.0,-29.0,-37.0,-11.0,-1.0,4.0,-6.0,-10.0,1650915193677314.0,3
1730,7.0,45.0,65.0,23.0,-7.0,-5.0,-11.0,9.0,1650915193684298.0,3
1731,-4.0,-14.0,-16.0,-2.0,-2.0,-10.0,-5.0,-13.0,1650915193684298.0,3
1732,-1.0,-7.0,55.0,35.0,12.0,11.0,12.0,2.0,1650915193685300.0,3
1733,-4.0,-15.0,-39.0,-12.0,9.0,4.0,-4.0,0.0,1650915193685300.0,3
1734,6.0,11.0,-7.0,-6.0,8.0,8.0,14.0,12.0,1650915193707166.0,3
1735,-5.0,-9.0,-21.0,-9.0,-12.0,-9.0,-17.0,-13.0,1650915193707166.0,3
1736,-1.0,16.0,-4.0,-7.0,-6.0,0.0,4.0,19.0,1650915193708004.0,3
1737,-10.0,-6.0,27.0,4.0,-4.0,0.0,-6.0,-30.0,1650915193708004.0,3
1738,-5.0,-27.0,-18.0,-2.0,7.0,-2.0,-5.0,7.0,1650915193720489.0,3
1739,3.0,-6.0,-24.0,-6.0,-2.0,-11.0,5.0,1.0,1650915193720489.0,3
1740,11.0,5.0,8.0,3.0,-3.0,4.0,4.0,11.0,1650915193728991.0,3
1741,-11.0,5.0,11.0,-8.0,-6.0,-4.0,-18.0,-28.0,1650915193728991.0,3
1742,9.0,9.0,6.0,2.0,5.0,1.0,11.0,9.0,1650915193744890.0,3
1743,2.0,-4.0,-11.0,9.0,3.0,8.0,-3.0,3.0,1650915193744890.0,3
1744,-2.0,-4.0,1.0,-16.0,1.0,6.0,7.0,4.0,1650915193745198.0,3
1745,10.0,4.0,8.0,-7.0,-9.0,-4.0,5.0,12.0,1650915193745198.0,3
1746,-2.0,10.0,-3.0,44.0,39.0,33.0,1.0,-17.0,1650915193766716.0,3
1747,-3.0,4.0,-18.0,-43.0,3.0,14.0,1.0,7.0,1650915193766716.0,3
1748,-4.0,5.0,32.0,28.0,-11.0,-15.0,-8.0,-15.0,1650915193768553.0,3
1749,-6.0,6.0,-37.0,-30.0,-5.0,-16.0,-4.0,7.0,1650915193768553.0,3
1750,-4.0,-14.0,15.0,0.0,-20.0,-26.0,-5.0,7.0,1650915193780020.0,3
1751,6.0,32.0,45.0,29.0,-3.0,-14.0,-6.0,-2.0,1650915193780020.0,3
1752,5.0,-18.0,-61.0,-50.0,-12.0,0.0,-2.0,2.0,1650915193789111.0,3
1753,-13.0,-16.0,-60.0,-3.0,-9.0,-10.0,-12.0,-16.0,1650915193789111.0,3
1754,-10.0,-12.0,21.0,-11.0,0.0,-1.0,13.0,5.0,1650915193804619.0,3
1755,-3.0,0.0,-12.0,3.0,3.0,15.0,8.0,4.0,1650915193804619.0,3
1756,-11.0,-10.0,14.0,13.0,-2.0,-6.0,-22.0,-32.0,1650915193805620.0,3
1757,4.0,11.0,14.0,5.0,3.0,-2.0,9.0,27.0,1650915193805620.0,3
1758,16.0,9.0,-15.0,-17.0,-6.0,-19.0,-16.0,-9.0,1650915193826794.0,3
1759,-6.0,-22.0,-3.0,7.0,4.0,13.0,0.0,14.0,1650915193826794.0,3
1760,-7.0,1.0,-12.0,8.0,11.0,25.0,10.0,-1.0,1650915193827792.0,3
1761,7.0,13.0,20.0,6.0,14.0,17.0,7.0,0.0,1650915193827792.0,3
1762,-2.0,17.0,19.0,14.0,-2.0,-1.0,-4.0,2.0,1650915193840274.0,3
1763,-1.0,2.0,22.0,22.0,6.0,-15.0,-3.0,-7.0,1650915193840274.0,3
1764,9.0,2.0,-49.0,-34.0,-2.0,-1.0,1.0,6.0,1650915193849756.0,3
1765,1.0,-3.0,19.0,30.0,11.0,14.0,12.0,12.0,1650915193849756.0,3
1766,0.0,-10.0,-7.0,-15.0,-14.0,-1.0,2.0,2.0,1650915193864940.0,3
1767,-14.0,7.0,-4.0,-19.0,-12.0,-18.0,-15.0,-25.0,1650915193864940.0,3
1768,5.0,12.0,15.0,19.0,2.0,-7.0,2.0,10.0,1650915193871167.0,3
1769,3.0,-20.0,-4.0,7.0,-4.0,-7.0,-6.0,-12.0,1650915193871167.0,3
1770,-12.0,12.0,16.0,-16.0,-11.0,-2.0,-6.0,-14.0,1650915193887103.0,3
1771,4.0,-2.0,-18.0,-9.0,-1.0,9.0,12.0,-1.0,1650915193887103.0,3
1772,-1.0,5.0,3.0,0.0,14.0,3.0,-5.0,-7.0,1650915193887937.0,3
1773,-5.0,-11.0,13.0,2.0,-2.0,-5.0,-1.0,13.0,1650915193887937.0,3
1774,-3.0,-5.0,-31.0,-3.0,2.0,1.0,-4.0,0.0,1650915193909272.0,3
1775,7.0,-30.0,-10.0,-3.0,4.0,4.0,12.0,30.0,1650915193909272.0,3
1776,-3.0,7.0,25.0,15.0,-5.0,-13.0,-24.0,-20.0,1650915193911157.0,3
1777,15.0,-13.0,2.0,1.0,1.0,6.0,23.0,14.0,1650915193911157.0,3
1778,-19.0,-1.0,-20.0,-15.0,-2.0,5.0,-1.0,-6.0,1650915193924394.0,3
1779,-5.0,2.0,0.0,-17.0,-8.0,-4.0,-7.0,16.0,1650915193924394.0,3
1780,-11.0,-9.0,-1.0,6.0,-17.0,-15.0,19.0,1.0,1650915193925425.0,3
1781,5.0,24.0,18.0,9.0,12.0,10.0,-12.0,-11.0,1650915193925425.0,3
1782,4.0,-10.0,-10.0,-13.0,-15.0,-4.0,0.0,11.0,1650915193954507.0,3
1783,-3.0,18.0,28.0,15.0,11.0,0.0,-6.0,-24.0,1650915193954507.0,3
1784,11.0,-35.0,-74.0,-38.0,-3.0,-3.0,2.0,14.0,1650915193955508.0,3
1785,-7.0,14.0,16.0,3.0,1.0,-3.0,-1.0,-17.0,1650915193955508.0,3
1786,-1.0,17.0,58.0,15.0,12.0,21.0,15.0,7.0,1650915193969315.0,3
1787,-2.0,-21.0,-30.0,13.0,-11.0,-10.0,-10.0,-3.0,1650915193969315.0,3
1788,-8.0,0.0,0.0,3.0,-4.0,-5.0,-9.0,-10.0,1650915193970858.0,3
1789,3.0,4.0,3.0,-29.0,-11.0,3.0,4.0,7.0,1650915193970858.0,3
1790,5.0,-10.0,-15.0,7.0,10.0,11.0,13.0,8.0,1650915193984214.0,3
1791,8.0,-4.0,8.0,4.0,2.0,0.0,4.0,7.0,1650915193984214.0,3
1792,-14.0,-3.0,-3.0,-9.0,-2.0,-10.0,-5.0,-16.0,1650915193986036.0,3
1793,10.0,6.0,-39.0,-6.0,-5.0,1.0,7.0,24.0,1650915193986036.0,3
1794,-9.0,-21.0,-1.0,2.0,-1.0,-12.0,-10.0,3.0,1650915194006511.0,3
1795,-10.0,16.0,-1.0,1.0,0.0,0.0,-1.0,-15.0,1650915194006511.0,3
1796,-2.0,-5.0,1.0,-6.0,-3.0,-3.0,0.0,3.0,1650915194008507.0,3
1797,-2.0,7.0,3.0,2.0,0.0,-10.0,-16.0,-17.0,1650915194008507.0,3
1798,17.0,2.0,2.0,30.0,10.0,14.0,26.0,8.0,1650915194028780.0,3
1799,2.0,-3.0,8.0,-10.0,-4.0,-1.0,-5.0,8.0,1650915194028780.0,3
1800,-3.0,6.0,-7.0,-2.0,-4.0,10.0,21.0,12.0,1650915194030634.0,3
1801,-11.0,-1.0,9.0,-4.0,-12.0,-13.0,-9.0,-25.0,1650915194030634.0,3
1802,10.0,-9.0,-36.0,-7.0,3.0,-3.0,-8.0,5.0,1650915194043918.0,3
1803,-5.0,9.0,31.0,10.0,15.0,6.0,-6.0,-3.0,1650915194043918.0,3
1804,0.0,-5.0,-5.0,7.0,16.0,13.0,-1.0,-15.0,1650915194049991.0,3
1805,1.0,1.0,11.0,1.0,-2.0,6.0,6.0,21.0,1650915194049991.0,3
1806,-2.0,17.0,41.0,5.0,-17.0,-20.0,-7.0,-11.0,1650915194066274.0,3
1807,5.0,4.0,-23.0,-20.0,-14.0,-3.0,3.0,-5.0,1650915194066274.0,3
1808,0.0,4.0,32.0,19.0,5.0,-1.0,-8.0,-9.0,1650915194068271.0,3
1809,-13.0,-38.0,-35.0,0.0,15.0,-6.0,-8.0,18.0,1650915194068271.0,3
1810,5.0,-14.0,0.0,-6.0,2.0,5.0,-3.0,-16.0,1650915194088921.0,3
1811,-9.0,0.0,-30.0,-15.0,-8.0,1.0,5.0,-20.0,1650915194088921.0,3
1812,5.0,-6.0,-27.0,4.0,-8.0,-13.0,-5.0,20.0,1650915194090918.0,3
1813,17.0,12.0,9.0,-9.0,-5.0,3.0,1.0,8.0,1650915194090918.0,3
1814,-20.0,-16.0,6.0,12.0,6.0,4.0,-7.0,-13.0,1650915194102990.0,3
1815,3.0,0.0,11.0,5.0,2.0,3.0,3.0,5.0,1650915194102990.0,3
1816,8.0,18.0,35.0,8.0,-3.0,-4.0,-1.0,18.0,1650915194110002.0,3
1817,-6.0,-5.0,-5.0,2.0,-11.0,-6.0,3.0,-39.0,1650915194110002.0,3
1818,-6.0,2.0,-24.0,-15.0,-2.0,-14.0,-18.0,-4.0,1650915194126148.0,3
1819,15.0,7.0,9.0,0.0,10.0,15.0,16.0,12.0,1650915194126148.0,3
1820,-7.0,13.0,36.0,31.0,10.0,7.0,-10.0,-4.0,1650915194128183.0,3
1821,0.0,-13.0,-2.0,-29.0,-5.0,12.0,-1.0,8.0,1650915194128183.0,3
1822,0.0,18.0,-4.0,9.0,10.0,-6.0,-4.0,-14.0,1650915194149361.0,3
1823,-5.0,-17.0,-30.0,-29.0,-14.0,-16.0,-10.0,8.0,1650915194149361.0,3
1824,-11.0,-3.0,-16.0,-24.0,-10.0,-3.0,3.0,-23.0,1650915194151219.0,3
1825,2.0,9.0,29.0,18.0,-1.0,3.0,-6.0,-3.0,1650915194151219.0,3
1826,-1.0,6.0,1.0,-8.0,8.0,24.0,16.0,13.0,1650915194163531.0,3
1827,5.0,6.0,23.0,26.0,14.0,11.0,-1.0,3.0,1650915194163531.0,3
1828,8.0,-8.0,-39.0,-23.0,12.0,7.0,3.0,6.0,1650915194169996.0,3
1829,3.0,-5.0,-14.0,9.0,-1.0,-6.0,6.0,7.0,1650915194169996.0,3
1830,-4.0,4.0,22.0,-11.0,-22.0,-23.0,-17.0,3.0,1650915194187025.0,3
1831,-7.0,13.0,15.0,19.0,-1.0,-11.0,-5.0,-7.0,1650915194187025.0,3
1832,16.0,-13.0,-4.0,-2.0,-3.0,2.0,9.0,14.0,1650915194187876.0,3
1833,4.0,18.0,-24.0,-6.0,-1.0,2.0,3.0,7.0,1650915194187876.0,3
1834,-6.0,-2.0,36.0,3.0,4.0,-5.0,-8.0,-25.0,1650915194209207.0,3
1835,-3.0,4.0,11.0,10.0,-2.0,0.0,5.0,10.0,1650915194209207.0,3
1836,2.0,14.0,27.0,5.0,7.0,3.0,-12.0,-35.0,1650915194210238.0,3
1837,4.0,3.0,-8.0,10.0,7.0,-1.0,1.0,13.0,1650915194210238.0,3
1838,0.0,5.0,-19.0,-3.0,-3.0,4.0,0.0,10.0,1650915194223132.0,3
1839,-9.0,-9.0,11.0,-9.0,-15.0,-5.0,1.0,-13.0,1650915194223132.0,3
1840,1.0,4.0,23.0,9.0,9.0,3.0,3.0,10.0,1650915194230118.0,3
1841,7.0,16.0,27.0,36.0,13.0,6.0,-4.0,9.0,1650915194230118.0,3
1842,-2.0,-13.0,-17.0,-28.0,-12.0,-2.0,13.0,4.0,1650915194247133.0,3
1843,14.0,1.0,-32.0,-11.0,3.0,3.0,-7.0,22.0,1650915194247133.0,3
1844,-6.0,2.0,43.0,-2.0,-15.0,-14.0,1.0,-2.0,1650915194248097.0,3
1845,3.0,-2.0,-20.0,-1.0,-2.0,-2.0,12.0,-7.0,1650915194248097.0,3
1846,13.0,-21.0,-37.0,0.0,1.0,-5.0,-42.0,-9.0,1650915194269043.0,3
1847,6.0,-9.0,-8.0,-4.0,16.0,30.0,59.0,34.0,1650915194269043.0,3
1848,-23.0,-4.0,-8.0,-9.0,-11.0,-5.0,-1.0,-18.0,1650915194270857.0,3
1849,-6.0,-41.0,-27.0,-10.0,-4.0,-6.0,4.0,8.0,1650915194270857.0,3
1850,11.0,20.0,40.0,38.0,1.0,-5.0,0.0,5.0,1650915194283900.0,3
1851,-5.0,10.0,-30.0,-17.0,-14.0,-17.0,-28.0,-17.0,1650915194283900.0,3
1852,0.0,-19.0,-18.0,-9.0,4.0,7.0,-6.0,10.0,1650915194289920.0,3
1853,-6.0,23.0,50.0,-5.0,-13.0,-12.0,-7.0,-8.0,1650915194289920.0,3
1854,3.0,10.0,4.0,5.0,-4.0,-2.0,12.0,0.0,1650915194307809.0,3
1855,5.0,-3.0,-13.0,-12.0,15.0,7.0,-21.0,-3.0,1650915194307809.0,3
1856,1.0,3.0,22.0,46.0,20.0,21.0,15.0,11.0,1650915194308808.0,3
1857,0.0,-2.0,4.0,7.0,14.0,18.0,28.0,12.0,1650915194308808.0,3
1858,-5.0,5.0,-12.0,-7.0,2.0,8.0,4.0,-22.0,1650915194329069.0,3
1859,-7.0,2.0,6.0,-2.0,-17.0,-16.0,-10.0,-12.0,1650915194329069.0,3
1860,-3.0,-6.0,-29.0,-28.0,-22.0,-29.0,-60.0,-21.0,1650915194330921.0,3
1861,5.0,-4.0,-11.0,-8.0,-8.0,-5.0,20.0,15.0,1650915194330921.0,3
1862,-2.0,3.0,9.0,4.0,-2.0,8.0,34.0,16.0,1650915194343925.0,3
1863,14.0,-6.0,4.0,9.0,10.0,5.0,9.0,13.0,1650915194343925.0,3
1864,-20.0,-6.0,-18.0,-7.0,-6.0,-8.0,12.0,-4.0,1650915194349998.0,3
1865,-3.0,11.0,38.0,10.0,6.0,4.0,-14.0,-7.0,1650915194349998.0,3
1866,-4.0,-5.0,-41.0,-19.0,0.0,7.0,1.0,4.0,1650915194366238.0,3
1867,0.0,-2.0,11.0,10.0,0.0,0.0,-12.0,-2.0,1650915194366238.0,3
1868,3.0,2.0,0.0,1.0,-6.0,-9.0,19.0,10.0,1650915194368236.0,3
1869,-7.0,-5.0,-3.0,-8.0,-1.0,-1.0,-11.0,-5.0,1650915194368236.0,3
1870,5.0,0.0,-7.0,-17.0,-8.0,5.0,3.0,5.0,1650915194388801.0,3
1871,-10.0,-5.0,18.0,19.0,2.0,-6.0,-24.0,-19.0,1650915194388801.0,3
1872,5.0,-4.0,-31.0,-24.0,6.0,-5.0,4.0,-2.0,1650915194390832.0,3
1873,-5.0,-2.0,-4.0,-1.0,-1.0,2.0,3.0,-12.0,1650915194390832.0,3
1874,-6.0,-4.0,-1.0,5.0,5.0,9.0,3.0,0.0,1650915194403198.0,3
1875,-3.0,-5.0,-10.0,-11.0,-6.0,-1.0,5.0,-9.0,1650915194403198.0,3
1876,6.0,5.0,10.0,3.0,-5.0,-3.0,-8.0,-3.0,1650915194411993.0,3
1877,-1.0,-4.0,-4.0,1.0,-6.0,-10.0,-23.0,6.0,1650915194411993.0,3
1878,-5.0,-1.0,-4.0,-2.0,-1.0,-8.0,1.0,2.0,1650915194427342.0,3
1879,-3.0,-2.0,3.0,-3.0,-6.0,-5.0,3.0,-9.0,1650915194427342.0,3
1880,5.0,0.0,-5.0,-5.0,-1.0,-2.0,6.0,5.0,1650915194428228.0,3
1881,-5.0,-5.0,-5.0,-4.0,-1.0,4.0,-3.0,-5.0,1650915194428228.0,3
1882,0.0,1.0,4.0,9.0,2.0,1.0,-2.0,1.0,1650915194448638.0,3
1883,-1.0,-4.0,-5.0,-5.0,-6.0,-7.0,-2.0,14.0,1650915194448638.0,3
1884,8.0,-4.0,-8.0,-9.0,9.0,4.0,0.0,-7.0,1650915194450689.0,3
1885,-3.0,-3.0,1.0,7.0,0.0,7.0,0.0,-6.0,1650915194450689.0,3
1886,0.0,5.0,5.0,-2.0,1.0,2.0,-2.0,2.0,1650915194462950.0,3
1887,0.0,3.0,0.0,3.0,6.0,3.0,5.0,2.0,1650915194462950.0,3
1888,0.0,-5.0,-7.0,-6.0,-4.0,3.0,0.0,5.0,1650915194471846.0,3
1889,-1.0,-1.0,4.0,2.0,-7.0,-11.0,-8.0,-5.0,1650915194471846.0,3
1890,0.0,1.0,-5.0,4.0,9.0,-5.0,1.0,-2.0,1650915194487078.0,3
