EMG_s0,EMG_s1,EMG_s2,EMG_s3,EMG_s4,EMG_s5,EMG_s6,EMG_s7,timestamp
0.0,-2.0,1.0,3.0,3.0,-5.0,-2.0,-2.0,1650911541957665.0
0.0,-3.0,-3.0,1.0,0.0,2.0,-2.0,-2.0,1650911541957665.0
-3.0,-2.0,-3.0,-2.0,2.0,7.0,0.0,-1.0,1650911541958561.0
-1.0,-1.0,-1.0,-6.0,-10.0,-7.0,-1.0,-1.0,1650911541958561.0
-1.0,1.0,1.0,-1.0,-2.0,-9.0,1.0,4.0,1650911541958561.0
-3.0,-2.0,-3.0,0.0,9.0,-5.0,-1.0,0.0,1650911541958561.0
2.0,1.0,4.0,1.0,-4.0,18.0,2.0,4.0,1650911541959561.0
1.0,2.0,9.0,9.0,17.0,3.0,1.0,0.0,1650911541959561.0
2.0,2.0,2.0,5.0,14.0,5.0,2.0,-2.0,1650911541966541.0
3.0,4.0,5.0,-1.0,-3.0,-5.0,1.0,2.0,1650911541966541.0
1.0,0.0,-4.0,-4.0,-12.0,-7.0,-3.0,-1.0,1650911541970562.0
1.0,-1.0,2.0,-1.0,-6.0,-3.0,0.0,-1.0,1650911541970562.0
-1.0,-3.0,0.0,-4.0,-5.0,-1.0,-7.0,-4.0,1650911541986487.0
0.0,0.0,1.0,-2.0,0.0,4.0,0.0,-2.0,1650911541986487.0
-1.0,-1.0,-2.0,-3.0,2.0,-3.0,1.0,-1.0,1650911542002762.0
2.0,1.0,3.0,1.0,-5.0,0.0,1.0,2.0,1650911542002762.0
0.0,-2.0,3.0,4.0,3.0,5.0,2.0,0.0,1650911542005753.0
-2.0,-2.0,-6.0,-3.0,2.0,3.0,0.0,-2.0,1650911542005753.0
1.0,0.0,3.0,2.0,7.0,-7.0,-1.0,0.0,1650911542025132.0
-1.0,0.0,1.0,3.0,3.0,0.0,0.0,-1.0,1650911542025132.0
0.0,0.0,-5.0,-4.0,-7.0,10.0,0.0,2.0,1650911542025727.0
0.0,0.0,-2.0,-2.0,-2.0,-3.0,-2.0,1.0,1650911542025727.0
-1.0,1.0,-2.0,2.0,3.0,0.0,0.0,1.0,1650911542071092.0
0.0,0.0,1.0,4.0,15.0,5.0,2.0,0.0,1650911542071092.0
2.0,1.0,0.0,3.0,2.0,-1.0,2.0,0.0,1650911542072009.0
-2.0,-1.0,-5.0,-5.0,1.0,-1.0,-2.0,0.0,1650911542072009.0
-1.0,-1.0,0.0,-6.0,-7.0,7.0,-2.0,-3.0,1650911542073006.0
0.0,-1.0,-2.0,0.0,-10.0,-8.0,-1.0,-2.0,1650911542073006.0
0.0,-1.0,-4.0,0.0,11.0,6.0,1.0,2.0,1650911542075000.0
1.0,0.0,-2.0,-1.0,-1.0,-1.0,1.0,0.0,1650911542075000.0
-1.0,-3.0,-8.0,-8.0,-17.0,-9.0,-4.0,-4.0,1650911542083979.0
-2.0,1.0,2.0,-2.0,-5.0,0.0,-2.0,-2.0,1650911542083979.0
0.0,-1.0,3.0,2.0,1.0,3.0,1.0,-3.0,1650911542089961.0
0.0,2.0,5.0,9.0,14.0,7.0,1.0,-1.0,1650911542089961.0
0.0,-1.0,-4.0,-4.0,4.0,4.0,-1.0,-1.0,1650911542106354.0
-1.0,0.0,-3.0,-1.0,-5.0,-7.0,0.0,0.0,1650911542106354.0
-1.0,0.0,0.0,1.0,-7.0,-10.0,-3.0,-2.0,1650911542113494.0
0.0,-1.0,1.0,-1.0,4.0,0.0,-1.0,-1.0,1650911542113494.0
-1.0,-1.0,2.0,2.0,-4.0,3.0,1.0,-1.0,1650911542121314.0
-1.0,0.0,5.0,0.0,-5.0,4.0,1.0,0.0,1650911542121314.0
-1.0,0.0,-4.0,-2.0,-13.0,13.0,1.0,0.0,1650911542144904.0
0.0,-1.0,-3.0,-1.0,10.0,-16.0,2.0,0.0,1650911542144904.0
1.0,0.0,1.0,4.0,12.0,3.0,0.0,0.0,1650911542145842.0
1.0,-1.0,-3.0,-3.0,-3.0,-2.0,-3.0,0.0,1650911542145842.0
-1.0,-1.0,2.0,-4.0,-6.0,1.0,-3.0,-3.0,1650911542158008.0
-1.0,0.0,-1.0,-2.0,-8.0,0.0,-1.0,1.0,1650911542158008.0
1.0,0.0,0.0,2.0,6.0,-9.0,0.0,-2.0,1650911542166967.0
-1.0,-2.0,-2.0,-4.0,-10.0,-1.0,-4.0,-3.0,1650911542166967.0
-3.0,-3.0,-1.0,2.0,-9.0,-5.0,2.0,0.0,1650911542182004.0
-1.0,-1.0,4.0,3.0,21.0,14.0,4.0,-1.0,1650911542182004.0
1.0,2.0,1.0,3.0,8.0,4.0,3.0,1.0,1650911542183002.0
1.0,0.0,-8.0,-4.0,1.0,-8.0,-2.0,-1.0,1650911542183002.0
0.0,-2.0,1.0,-3.0,2.0,-7.0,-5.0,-3.0,1650911542204466.0
-1.0,-2.0,0.0,-4.0,-18.0,1.0,0.0,-1.0,1650911542204466.0
-2.0,1.0,0.0,1.0,-3.0,-1.0,-1.0,0.0,1650911542205466.0
2.0,-1.0,-1.0,2.0,-2.0,2.0,0.0,0.0,1650911542205466.0
-2.0,-3.0,-11.0,-14.0,-4.0,-10.0,-3.0,-2.0,1650911542217832.0
2.0,1.0,4.0,2.0,5.0,1.0,1.0,1.0,1650911542217832.0
0.0,0.0,0.0,-2.0,-6.0,5.0,0.0,0.0,1650911542226847.0
-2.0,-1.0,3.0,3.0,3.0,1.0,0.0,0.0,1650911542226847.0
0.0,-2.0,0.0,0.0,6.0,-4.0,-2.0,0.0,1650911542241518.0
-1.0,0.0,-2.0,0.0,-6.0,-6.0,-3.0,-3.0,1650911542241518.0
0.0,0.0,1.0,-2.0,0.0,4.0,0.0,-1.0,1650911542243383.0
-2.0,0.0,-2.0,1.0,7.0,6.0,1.0,0.0,1650911542243383.0
-1.0,1.0,2.0,3.0,4.0,7.0,3.0,-1.0,1650911542264221.0
-3.0,-2.0,0.0,-2.0,-10.0,0.0,-3.0,-1.0,1650911542264221.0
-1.0,-1.0,-3.0,-3.0,-7.0,-5.0,-1.0,1.0,1650911542265223.0
-2.0,0.0,-2.0,-4.0,-5.0,-7.0,1.0,-2.0,1650911542265223.0
1.0,3.0,3.0,3.0,1.0,1.0,0.0,2.0,1650911542278535.0
0.0,-1.0,-3.0,0.0,1.0,-8.0,-1.0,-2.0,1650911542278535.0
1.0,0.0,5.0,10.0,15.0,6.0,-1.0,0.0,1650911542286603.0
-1.0,-2.0,1.0,2.0,11.0,5.0,1.0,-1.0,1650911542286603.0
0.0,2.0,4.0,3.0,-3.0,4.0,2.0,0.0,1650911542302005.0
-2.0,-4.0,-21.0,-16.0,-14.0,-5.0,-5.0,-3.0,1650911542302005.0
0.0,-1.0,1.0,-1.0,0.0,-6.0,-3.0,0.0,1650911542302840.0
0.0,-1.0,0.0,1.0,-3.0,4.0,-1.0,1.0,1650911542302840.0
-1.0,4.0,1.0,3.0,-4.0,1.0,-1.0,1.0,1650911542325583.0
1.0,1.0,5.0,5.0,6.0,0.0,0.0,0.0,1650911542325583.0
-3.0,0.0,-2.0,1.0,6.0,6.0,3.0,-1.0,1650911542325841.0
0.0,-2.0,-7.0,-8.0,-5.0,-1.0,-1.0,-2.0,1650911542325841.0
-1.0,-3.0,-2.0,-5.0,-8.0,-5.0,-1.0,-2.0,1650911542347488.0
1.0,0.0,0.0,1.0,-15.0,-4.0,-2.0,0.0,1650911542347488.0
-3.0,0.0,-1.0,3.0,4.0,-6.0,-2.0,-1.0,1650911542348391.0
0.0,0.0,6.0,9.0,14.0,18.0,1.0,1.0,1650911542348391.0
-2.0,-2.0,-2.0,0.0,4.0,-7.0,1.0,0.0,1650911542362099.0
-1.0,-1.0,1.0,-1.0,-4.0,-3.0,-2.0,0.0,1650911542362099.0
-2.0,-4.0,-8.0,-11.0,-14.0,-5.0,-3.0,-2.0,1650911542362939.0
0.0,1.0,-1.0,0.0,-6.0,1.0,2.0,1.0,1650911542362939.0
0.0,2.0,0.0,1.0,6.0,2.0,-1.0,0.0,1650911542391715.0
1.0,0.0,6.0,5.0,-3.0,-3.0,0.0,-2.0,1650911542391715.0
1.0,-1.0,-3.0,0.0,-4.0,-4.0,0.0,0.0,1650911542392749.0
-1.0,1.0,-3.0,-6.0,1.0,4.0,-1.0,-3.0,1650911542392749.0
-1.0,-1.0,1.0,-3.0,-2.0,-5.0,-1.0,0.0,1650911542397703.0
-1.0,0.0,1.0,4.0,14.0,-2.0,-2.0,1.0,1650911542397703.0
-1.0,1.0,3.0,5.0,6.0,11.0,2.0,0.0,1650911542406899.0
0.0,-1.0,-2.0,-1.0,-5.0,-7.0,2.0,1.0,1650911542406899.0
-1.0,-1.0,2.0,4.0,4.0,-4.0,1.0,-2.0,1650911542422377.0
0.0,-2.0,0.0,-2.0,3.0,3.0,-1.0,-3.0,1650911542422377.0
-1.0,-3.0,-2.0,-4.0,-19.0,-9.0,0.0,-2.0,1650911542423215.0
0.0,1.0,2.0,2.0,2.0,1.0,-3.0,-1.0,1650911542423215.0
-1.0,-3.0,-5.0,-6.0,0.0,5.0,0.0,0.0,1650911542444670.0
-1.0,1.0,-1.0,1.0,4.0,5.0,0.0,0.0,1650911542444670.0
0.0,0.0,-3.0,-2.0,0.0,0.0,0.0,-1.0,1650911542445540.0
0.0,-2.0,1.0,0.0,-11.0,-12.0,-4.0,-2.0,1650911542445540.0
-2.0,-1.0,0.0,-1.0,-5.0,13.0,-3.0,-2.0,1650911542457539.0
-2.0,-2.0,-12.0,-7.0,7.0,-8.0,-1.0,-1.0,1650911542457539.0
0.0,0.0,3.0,3.0,4.0,2.0,1.0,1.0,1650911542473704.0
0.0,2.0,2.0,2.0,2.0,0.0,2.0,1.0,1650911542473704.0
2.0,2.0,-5.0,-3.0,-2.0,-9.0,-2.0,1.0,1650911542481660.0
-3.0,1.0,-2.0,-7.0,-18.0,5.0,-2.0,-1.0,1650911542481660.0
-1.0,1.0,-5.0,-5.0,-1.0,-2.0,-1.0,-2.0,1650911542482690.0
0.0,-1.0,5.0,7.0,17.0,-3.0,0.0,-1.0,1650911542482690.0
1.0,-1.0,0.0,2.0,3.0,4.0,2.0,2.0,1650911542504507.0
-1.0,0.0,2.0,-1.0,-6.0,-3.0,0.0,-2.0,1650911542504507.0
0.0,0.0,-1.0,-4.0,-5.0,-3.0,-2.0,-1.0,1650911542505507.0
0.0,-1.0,0.0,-3.0,-8.0,-2.0,-1.0,-2.0,1650911542505507.0
0.0,0.0,-3.0,0.0,3.0,7.0,0.0,-2.0,1650911542518682.0
-2.0,-1.0,0.0,3.0,-2.0,-1.0,-1.0,0.0,1650911542518682.0
-2.0,1.0,5.0,5.0,6.0,-3.0,0.0,-1.0,1650911542526680.0
-2.0,-1.0,-2.0,0.0,2.0,1.0,1.0,1.0,1650911542526680.0
1.0,-2.0,4.0,4.0,-10.0,-10.0,-2.0,-1.0,1650911542542106.0
2.0,-1.0,-6.0,-5.0,8.0,9.0,3.0,2.0,1650911542542106.0
-2.0,-3.0,3.0,-2.0,8.0,0.0,-2.0,-2.0,1650911542542946.0
-2.0,0.0,-6.0,-7.0,-30.0,-20.0,-5.0,-5.0,1650911542542946.0
-1.0,1.0,-2.0,-5.0,-6.0,-5.0,-2.0,-3.0,1650911542564133.0
0.0,0.0,8.0,12.0,15.0,10.0,1.0,1.0,1650911542564133.0
3.0,1.0,-2.0,6.0,14.0,3.0,4.0,2.0,1650911542565160.0
1.0,0.0,6.0,3.0,6.0,5.0,-1.0,0.0,1650911542565160.0
-1.0,-2.0,-3.0,-10.0,-13.0,-13.0,-3.0,-1.0,1650911542578116.0
0.0,-1.0,-10.0,-10.0,-33.0,-11.0,-4.0,-4.0,1650911542578116.0
0.0,-1.0,0.0,1.0,-2.0,2.0,-3.0,0.0,1650911542586673.0
-1.0,-1.0,0.0,4.0,23.0,17.0,2.0,-1.0,1650911542586673.0
1.0,4.0,8.0,9.0,15.0,0.0,3.0,2.0,1650911542602161.0
-1.0,0.0,2.0,2.0,6.0,1.0,2.0,1.0,1650911542602161.0
0.0,0.0,2.0,-3.0,-11.0,-5.0,0.0,-1.0,1650911542603003.0
1.0,-3.0,-4.0,-4.0,-14.0,-6.0,-3.0,0.0,1650911542603003.0
0.0,-2.0,-2.0,-4.0,-2.0,1.0,-2.0,-1.0,1650911542625003.0
0.0,0.0,-4.0,-4.0,3.0,-2.0,-1.0,0.0,1650911542625003.0
-2.0,-1.0,-2.0,-2.0,-20.0,-7.0,-4.0,-2.0,1650911542625840.0
-1.0,-3.0,1.0,-1.0,2.0,-3.0,0.0,-2.0,1650911542625840.0
0.0,2.0,7.0,12.0,26.0,11.0,3.0,2.0,1650911542637996.0
2.0,1.0,5.0,4.0,5.0,7.0,1.0,0.0,1650911542637996.0
0.0,1.0,-5.0,-3.0,-9.0,0.0,0.0,0.0,1650911542647303.0
-2.0,-3.0,-9.0,-8.0,-3.0,12.0,-3.0,-1.0,1650911542647303.0
-2.0,-1.0,1.0,0.0,-7.0,-11.0,0.0,0.0,1650911542662174.0
0.0,1.0,8.0,3.0,-1.0,-17.0,0.0,0.0,1650911542662174.0
-1.0,-1.0,-3.0,-3.0,4.0,-4.0,-1.0,0.0,1650911542663013.0
1.0,-2.0,-4.0,-4.0,4.0,-4.0,-1.0,2.0,1650911542663013.0
-1.0,-1.0,-2.0,-1.0,4.0,15.0,0.0,-1.0,1650911542684645.0
1.0,2.0,3.0,0.0,5.0,9.0,2.0,-1.0,1650911542684645.0
-2.0,-3.0,8.0,1.0,-17.0,0.0,-2.0,-4.0,1650911542685645.0
-1.0,-1.0,-4.0,-1.0,0.0,-12.0,-3.0,-2.0,1650911542685645.0
-1.0,-1.0,-1.0,-5.0,0.0,-10.0,-4.0,-2.0,1650911542697803.0
-3.0,-2.0,-5.0,0.0,-12.0,5.0,-3.0,-1.0,1650911542697803.0
0.0,-2.0,-4.0,-3.0,8.0,9.0,3.0,-1.0,1650911542714147.0
1.0,3.0,6.0,6.0,9.0,6.0,2.0,1.0,1650911542714147.0
-2.0,-1.0,-2.0,1.0,4.0,0.0,0.0,0.0,1650911542721171.0
-1.0,-2.0,1.0,0.0,-5.0,-6.0,-1.0,-1.0,1650911542721171.0
0.0,0.0,-2.0,-4.0,-16.0,-9.0,-4.0,0.0,1650911542723124.0
-1.0,0.0,0.0,1.0,1.0,2.0,0.0,0.0,1650911542723124.0
0.0,-1.0,-7.0,-5.0,12.0,9.0,2.0,0.0,1650911542744384.0
0.0,0.0,2.0,-1.0,1.0,1.0,2.0,2.0,1650911542744384.0
-3.0,-2.0,-3.0,-1.0,3.0,0.0,-1.0,-1.0,1650911542745382.0
-2.0,-1.0,0.0,-3.0,-14.0,-15.0,-3.0,1.0,1650911542745382.0
0.0,-1.0,3.0,1.0,-23.0,-8.0,-3.0,-2.0,1650911542767665.0
-1.0,-3.0,-6.0,0.0,19.0,11.0,-2.0,-1.0,1650911542767665.0
-1.0,1.0,6.0,10.0,28.0,15.0,5.0,0.0,1650911542768504.0
1.0,2.0,3.0,3.0,-2.0,-2.0,1.0,1.0,1650911542768504.0
-1.0,-1.0,-6.0,-5.0,-8.0,-1.0,-1.0,-1.0,1650911542781469.0
-1.0,0.0,2.0,-1.0,-13.0,-1.0,-2.0,-2.0,1650911542781469.0
0.0,2.0,-1.0,-1.0,-9.0,-20.0,-5.0,1.0,1650911542783464.0
0.0,-2.0,-1.0,-2.0,-4.0,-5.0,-2.0,0.0,1650911542783464.0
-1.0,0.0,2.0,2.0,0.0,9.0,0.0,-1.0,1650911542804560.0
0.0,-1.0,-3.0,1.0,5.0,-5.0,-1.0,0.0,1650911542804560.0
2.0,0.0,-1.0,1.0,12.0,5.0,1.0,1.0,1650911542805455.0
-3.0,-1.0,-1.0,0.0,-2.0,7.0,0.0,-2.0,1650911542805455.0
-1.0,-2.0,-5.0,-5.0,-13.0,-15.0,-3.0,-3.0,1650911542848431.0
0.0,0.0,5.0,-1.0,4.0,3.0,2.0,0.0,1650911542848431.0
-1.0,1.0,-3.0,2.0,8.0,-5.0,-1.0,0.0,1650911542858724.0
-1.0,-2.0,-14.0,-14.0,-13.0,-2.0,-1.0,-1.0,1650911542858724.0
2.0,0.0,2.0,3.0,0.0,9.0,0.0,1.0,1650911542859565.0
1.0,1.0,7.0,5.0,4.0,-5.0,1.0,2.0,1650911542859565.0
-1.0,1.0,-3.0,3.0,6.0,5.0,3.0,-1.0,1650911542864552.0
0.0,1.0,4.0,5.0,32.0,6.0,1.0,-3.0,1650911542864552.0
-3.0,-3.0,-13.0,-13.0,-21.0,9.0,-4.0,-3.0,1650911542865581.0
1.0,0.0,2.0,0.0,-11.0,-27.0,-4.0,-2.0,1650911542865581.0
-2.0,0.0,1.0,-3.0,-5.0,3.0,1.0,-2.0,1650911542866577.0
0.0,-2.0,0.0,3.0,7.0,8.0,2.0,-1.0,1650911542866577.0
-1.0,-2.0,4.0,-2.0,-3.0,-8.0,-3.0,-2.0,1650911542886975.0
-1.0,0.0,-6.0,-4.0,-6.0,1.0,-3.0,-3.0,1650911542886975.0
1.0,-3.0,-4.0,-6.0,2.0,-1.0,-3.0,0.0,1650911542887972.0
0.0,1.0,-1.0,-2.0,-6.0,3.0,0.0,2.0,1650911542887972.0
1.0,1.0,7.0,8.0,15.0,7.0,4.0,2.0,1650911542902964.0
-1.0,-3.0,-4.0,-3.0,-7.0,-2.0,-1.0,0.0,1650911542902964.0
0.0,-2.0,-1.0,-5.0,-9.0,-7.0,-2.0,-2.0,1650911542908078.0
-3.0,-1.0,1.0,-2.0,-8.0,-6.0,-4.0,-2.0,1650911542908078.0
-2.0,-1.0,-2.0,1.0,-6.0,-4.0,2.0,0.0,1650911542924124.0
-1.0,-1.0,-1.0,-1.0,13.0,7.0,1.0,0.0,1650911542924124.0
-1.0,1.0,2.0,3.0,1.0,2.0,1.0,1.0,1650911542925988.0
0.0,-1.0,-7.0,-4.0,3.0,7.0,1.0,0.0,1650911542925988.0
1.0,2.0,3.0,5.0,11.0,-6.0,-1.0,0.0,1650911542947437.0
-1.0,-3.0,-6.0,-4.0,-5.0,1.0,-3.0,0.0,1650911542947437.0
0.0,-1.0,-1.0,-1.0,-13.0,-4.0,-1.0,-1.0,1650911542948279.0
2.0,1.0,2.0,1.0,3.0,0.0,1.0,1.0,1650911542948279.0
-3.0,-1.0,-4.0,-8.0,1.0,-4.0,-1.0,1.0,1650911542961999.0
-1.0,1.0,1.0,-4.0,-13.0,0.0,-1.0,-1.0,1650911542961999.0
0.0,-3.0,-1.0,-1.0,1.0,0.0,-2.0,-2.0,1650911542962836.0
-1.0,0.0,3.0,7.0,-2.0,-10.0,-1.0,-1.0,1650911542962836.0
1.0,1.0,-2.0,-2.0,15.0,5.0,1.0,1.0,1650911542984947.0
-1.0,0.0,-2.0,0.0,-1.0,5.0,0.0,-1.0,1650911542984947.0
0.0,1.0,1.0,1.0,6.0,-2.0,-1.0,-1.0,1650911542985189.0
-2.0,-3.0,-6.0,-8.0,-11.0,4.0,-2.0,-3.0,1650911542985189.0
-1.0,-1.0,-2.0,-2.0,6.0,-1.0,-2.0,-1.0,1650911543007402.0
-2.0,-1.0,-3.0,-4.0,-21.0,-16.0,-2.0,0.0,1650911543007402.0
-3.0,-2.0,4.0,4.0,6.0,3.0,1.0,0.0,1650911543008269.0
-1.0,2.0,2.0,4.0,4.0,5.0,3.0,0.0,1650911543008269.0
1.0,2.0,0.0,1.0,9.0,3.0,-1.0,1.0,1650911543021191.0
0.0,-2.0,-3.0,-3.0,-10.0,2.0,0.0,0.0,1650911543021191.0
0.0,0.0,-3.0,0.0,6.0,-9.0,0.0,-1.0,1650911543028297.0
1.0,0.0,8.0,9.0,10.0,6.0,1.0,2.0,1650911543028297.0
2.0,-1.0,4.0,1.0,-6.0,2.0,2.0,2.0,1650911543043334.0
-2.0,-4.0,-21.0,-19.0,-4.0,-3.0,-3.0,0.0,1650911543043334.0
-1.0,-1.0,1.0,-3.0,-9.0,-2.0,-3.0,-1.0,1650911543052012.0
-1.0,0.0,-1.0,-7.0,-13.0,-7.0,-3.0,-3.0,1650911543052012.0
0.0,-1.0,8.0,8.0,5.0,3.0,0.0,-2.0,1650911543065980.0
0.0,2.0,5.0,6.0,10.0,2.0,0.0,0.0,1650911543065980.0
1.0,-1.0,-5.0,-6.0,-11.0,-1.0,0.0,0.0,1650911543081940.0
0.0,0.0,0.0,-3.0,-7.0,2.0,-1.0,-1.0,1650911543081940.0
-3.0,0.0,-3.0,5.0,11.0,5.0,-1.0,-1.0,1650911543088920.0
1.0,0.0,2.0,7.0,20.0,3.0,1.0,-1.0,1650911543088920.0
-2.0,0.0,-4.0,-1.0,5.0,8.0,2.0,0.0,1650911543090948.0
-2.0,0.0,5.0,3.0,-17.0,-16.0,0.0,1.0,1650911543090948.0
0.0,-1.0,-7.0,-6.0,-13.0,-10.0,-1.0,-1.0,1650911543102881.0
-1.0,-1.0,2.0,1.0,0.0,1.0,0.0,0.0,1650911543102881.0
0.0,1.0,1.0,-2.0,-9.0,0.0,-2.0,-1.0,1650911543119159.0
-2.0,-2.0,-4.0,-2.0,13.0,-9.0,-3.0,0.0,1650911543119159.0
-2.0,-3.0,-5.0,-6.0,-2.0,10.0,-1.0,-2.0,1650911543126814.0
1.0,-2.0,9.0,8.0,8.0,4.0,1.0,1.0,1650911543126814.0
1.0,0.0,-5.0,-4.0,-5.0,10.0,1.0,1.0,1650911543127653.0
1.0,-1.0,0.0,0.0,-4.0,-8.0,-2.0,-1.0,1650911543127653.0
-2.0,0.0,-5.0,-7.0,-9.0,-13.0,-4.0,-2.0,1650911543149141.0
-1.0,0.0,1.0,1.0,-7.0,4.0,0.0,-2.0,1650911543149141.0
0.0,1.0,6.0,5.0,4.0,1.0,1.0,0.0,1650911543154875.0
1.0,0.0,-2.0,-1.0,6.0,5.0,1.0,1.0,1650911543154875.0
0.0,-2.0,-3.0,-2.0,11.0,6.0,2.0,-1.0,1650911543162853.0
1.0,0.0,0.0,1.0,-6.0,4.0,-1.0,-1.0,1650911543162853.0
1.0,-1.0,-3.0,-4.0,-12.0,-17.0,-1.0,-1.0,1650911543177901.0
-2.0,-3.0,-2.0,-5.0,-7.0,-9.0,-4.0,-1.0,1650911543177901.0
0.0,1.0,-4.0,-1.0,-8.0,-1.0,-1.0,0.0,1650911543187009.0
-3.0,1.0,3.0,3.0,12.0,6.0,1.0,1.0,1650911543187009.0
-1.0,-2.0,-9.0,-1.0,9.0,2.0,1.0,-1.0,1650911543187839.0
0.0,0.0,0.0,1.0,5.0,9.0,2.0,-2.0,1650911543187839.0
0.0,-1.0,4.0,1.0,-6.0,2.0,0.0,-1.0,1650911543210198.0
0.0,-1.0,-3.0,-6.0,-11.0,-11.0,-2.0,-1.0,1650911543210198.0
-2.0,-3.0,-4.0,-5.0,-12.0,-4.0,-5.0,-3.0,1650911543211034.0
0.0,3.0,4.0,0.0,-4.0,-5.0,0.0,-1.0,1650911543211034.0
0.0,-1.0,3.0,4.0,1.0,3.0,-2.0,0.0,1650911543223145.0
0.0,1.0,-3.0,1.0,19.0,0.0,-1.0,2.0,1650911543223145.0
-1.0,0.0,2.0,6.0,9.0,6.0,-1.0,0.0,1650911543231990.0
-1.0,-1.0,-9.0,-4.0,-1.0,5.0,0.0,0.0,1650911543231990.0
1.0,2.0,5.0,3.0,-5.0,-2.0,4.0,2.0,1650911543246315.0
2.0,-1.0,-4.0,-3.0,-11.0,-3.0,0.0,-2.0,1650911543246315.0
-3.0,-3.0,1.0,-8.0,-11.0,-3.0,-2.0,-3.0,1650911543248344.0
-2.0,-2.0,-1.0,2.0,7.0,-5.0,-5.0,-2.0,1650911543248344.0
0.0,-1.0,0.0,2.0,7.0,-4.0,0.0,1.0,1650911543269155.0
1.0,0.0,2.0,3.0,5.0,6.0,1.0,2.0,1650911543269155.0
1.0,0.0,1.0,1.0,0.0,-3.0,3.0,2.0,1650911543271019.0
1.0,-1.0,2.0,-1.0,-12.0,-2.0,-1.0,-1.0,1650911543271019.0
-2.0,-1.0,-1.0,-1.0,-2.0,-3.0,-1.0,-2.0,1650911543283677.0
-1.0,1.0,1.0,-1.0,-3.0,-5.0,-1.0,-2.0,1650911543283677.0
-3.0,0.0,0.0,1.0,3.0,6.0,1.0,1.0,1650911543292282.0
-2.0,-2.0,-3.0,-5.0,3.0,7.0,-1.0,0.0,1650911543292282.0
0.0,-2.0,-1.0,-1.0,-16.0,-11.0,-3.0,0.0,1650911543307600.0
-1.0,-1.0,3.0,2.0,9.0,2.0,1.0,-2.0,1650911543307600.0
-1.0,0.0,2.0,1.0,2.0,-6.0,0.0,0.0,1650911543308475.0
-1.0,-1.0,-8.0,-3.0,-10.0,-9.0,-1.0,-2.0,1650911543308475.0
0.0,-1.0,-4.0,-6.0,-4.0,1.0,-2.0,-1.0,1650911543329998.0
0.0,0.0,2.0,-1.0,-2.0,3.0,-2.0,-1.0,1650911543329998.0
0.0,-2.0,6.0,7.0,15.0,1.0,-1.0,0.0,1650911543330999.0
-2.0,-3.0,-8.0,-6.0,6.0,8.0,-1.0,-1.0,1650911543330999.0
1.0,0.0,1.0,0.0,-16.0,-7.0,-1.0,0.0,1650911543343195.0
0.0,0.0,-1.0,-4.0,-15.0,-10.0,-2.0,-2.0,1650911543343195.0
0.0,-3.0,-7.0,-7.0,-2.0,8.0,0.0,-2.0,1650911543352176.0
1.0,4.0,8.0,14.0,35.0,14.0,4.0,1.0,1650911543352176.0
0.0,1.0,2.0,5.0,17.0,6.0,3.0,1.0,1650911543367155.0
-2.0,-2.0,-3.0,-2.0,-10.0,-4.0,-2.0,0.0,1650911543367155.0
-1.0,-1.0,-2.0,-4.0,-22.0,-10.0,-4.0,-2.0,1650911543367995.0
-2.0,0.0,-2.0,-7.0,-20.0,-10.0,-5.0,-2.0,1650911543367995.0
-3.0,-2.0,-1.0,-3.0,-10.0,-6.0,-3.0,-3.0,1650911543389677.0
0.0,1.0,2.0,9.0,10.0,2.0,3.0,3.0,1650911543389677.0
2.0,0.0,3.0,4.0,18.0,13.0,3.0,2.0,1650911543390888.0
0.0,0.0,2.0,2.0,2.0,4.0,3.0,2.0,1650911543390888.0
-1.0,1.0,0.0,0.0,7.0,-2.0,0.0,0.0,1650911543411834.0
0.0,-4.0,-7.0,-12.0,-15.0,-8.0,-5.0,-3.0,1650911543411834.0
-2.0,0.0,3.0,1.0,-6.0,-5.0,-3.0,-1.0,1650911543412828.0
-3.0,-2.0,-1.0,-3.0,-10.0,-6.0,-3.0,0.0,1650911543412828.0
-1.0,-3.0,0.0,-2.0,2.0,3.0,-1.0,-1.0,1650911543425989.0
-2.0,-1.0,1.0,-1.0,13.0,9.0,2.0,-1.0,1650911543425989.0
1.0,0.0,-1.0,2.0,6.0,5.0,1.0,1.0,1650911543433970.0
2.0,1.0,4.0,-2.0,-13.0,9.0,0.0,1.0,1650911543433970.0
0.0,-1.0,-2.0,-3.0,-4.0,-19.0,-3.0,-3.0,1650911543448555.0
-1.0,1.0,3.0,6.0,14.0,2.0,3.0,2.0,1650911543448555.0
-1.0,1.0,3.0,0.0,11.0,8.0,3.0,-1.0,1650911543456536.0
-1.0,-1.0,3.0,2.0,-1.0,2.0,1.0,0.0,1650911543456536.0
-2.0,1.0,0.0,-2.0,-9.0,0.0,-3.0,0.0,1650911543471803.0
0.0,-1.0,-8.0,-6.0,-10.0,-4.0,-4.0,0.0,1650911543471803.0
-1.0,0.0,-3.0,-4.0,-18.0,-12.0,-2.0,-1.0,1650911543472694.0
-1.0,1.0,0.0,4.0,7.0,-1.0,-2.0,-1.0,1650911543472694.0
-1.0,-1.0,-1.0,3.0,22.0,7.0,1.0,-2.0,1650911543487010.0
0.0,1.0,4.0,2.0,1.0,9.0,2.0,1.0,1650911543487010.0
-1.0,0.0,-2.0,-3.0,-20.0,4.0,2.0,1.0,1650911543488010.0
0.0,-1.0,-4.0,-2.0,6.0,-5.0,0.0,0.0,1650911543488010.0
-1.0,1.0,-2.0,-6.0,-5.0,-4.0,-2.0,0.0,1650911543509377.0
-1.0,0.0,2.0,-1.0,-9.0,-5.0,-2.0,-1.0,1650911543509377.0
-1.0,-1.0,1.0,1.0,9.0,-10.0,-2.0,-1.0,1650911543510246.0
-2.0,-3.0,-9.0,-1.0,-1.0,8.0,1.0,-1.0,1650911543510246.0
0.0,0.0,5.0,8.0,17.0,0.0,1.0,1.0,1650911543532060.0
-1.0,-3.0,-4.0,-6.0,3.0,7.0,1.0,-3.0,1650911543532060.0
-1.0,0.0,0.0,-3.0,-11.0,-4.0,-2.0,-1.0,1650911543533037.0
0.0,0.0,4.0,-1.0,-9.0,-2.0,-1.0,-1.0,1650911543533037.0
-1.0,-2.0,-1.0,-2.0,-12.0,-1.0,-3.0,-1.0,1650911543546151.0
-1.0,3.0,-1.0,2.0,13.0,3.0,-2.0,0.0,1650911543546151.0
-1.0,-2.0,-7.0,-1.0,8.0,4.0,-1.0,-1.0,1650911543553414.0
1.0,1.0,3.0,2.0,6.0,-1.0,2.0,1.0,1650911543553414.0
2.0,-2.0,-5.0,-3.0,-8.0,1.0,0.0,0.0,1650911543569724.0
-1.0,-1.0,1.0,-1.0,-11.0,-7.0,-1.0,-1.0,1650911543569724.0
-1.0,-3.0,-4.0,-5.0,5.0,-5.0,-2.0,0.0,1650911543570864.0
1.0,-1.0,3.0,2.0,-1.0,4.0,2.0,1.0,1650911543570864.0
0.0,-1.0,-2.0,-5.0,-9.0,-3.0,-1.0,0.0,1650911543592155.0
-1.0,-1.0,-3.0,-2.0,-12.0,-10.0,-3.0,1.0,1650911543592155.0
0.0,0.0,2.0,5.0,24.0,8.0,-1.0,-1.0,1650911543593009.0
-1.0,-1.0,-1.0,4.0,7.0,8.0,2.0,0.0,1650911543593009.0
0.0,1.0,2.0,4.0,12.0,-2.0,2.0,0.0,1650911543606027.0
1.0,1.0,1.0,2.0,-10.0,-6.0,0.0,1.0,1650911543606027.0
0.0,0.0,-2.0,-4.0,-6.0,-5.0,0.0,0.0,1650911543613290.0
-2.0,-2.0,-6.0,-9.0,-9.0,-1.0,-3.0,-3.0,1650911543613290.0
-1.0,-1.0,-3.0,1.0,3.0,2.0,1.0,-2.0,1650911543629379.0
-1.0,-3.0,1.0,2.0,3.0,3.0,1.0,-1.0,1650911543629379.0
1.0,2.0,3.0,2.0,-4.0,-8.0,-2.0,-2.0,1650911543630256.0
1.0,-1.0,2.0,1.0,-2.0,-4.0,-1.0,0.0,1650911543630256.0
0.0,-1.0,0.0,2.0,-5.0,4.0,0.0,0.0,1650911543651168.0
0.0,1.0,-1.0,-4.0,15.0,-2.0,-3.0,-1.0,1650911543651168.0
1.0,2.0,4.0,4.0,5.0,12.0,1.0,1.0,1650911543653014.0
-1.0,1.0,-1.0,-1.0,0.0,-8.0,0.0,0.0,1650911543653014.0
-1.0,-2.0,-5.0,-6.0,-13.0,2.0,0.0,0.0,1650911543666866.0
-1.0,-1.0,-1.0,-3.0,-13.0,-2.0,-1.0,-1.0,1650911543666866.0
-2.0,-1.0,-4.0,-5.0,-14.0,-8.0,-3.0,-1.0,1650911543680290.0
-2.0,-2.0,3.0,2.0,2.0,4.0,-2.0,-3.0,1650911543680290.0
0.0,2.0,3.0,7.0,27.0,4.0,3.0,0.0,1650911543689855.0
0.0,0.0,2.0,7.0,20.0,13.0,2.0,1.0,1650911543689855.0
0.0,2.0,-3.0,-1.0,-10.0,-6.0,2.0,1.0,1650911543690886.0
-2.0,-3.0,-3.0,-10.0,-16.0,-13.0,-5.0,-3.0,1650911543690886.0
0.0,-1.0,1.0,-1.0,-18.0,0.0,-3.0,-1.0,1650911543712192.0
-1.0,-2.0,0.0,-4.0,6.0,1.0,0.0,-1.0,1650911543712192.0
0.0,-1.0,1.0,3.0,-5.0,2.0,1.0,-2.0,1650911543713044.0
0.0,3.0,2.0,10.0,25.0,-3.0,4.0,1.0,1650911543713044.0
1.0,0.0,-3.0,-3.0,11.0,11.0,-2.0,0.0,1650911543726010.0
0.0,0.0,-4.0,-10.0,-23.0,-11.0,-5.0,-1.0,1650911543726010.0
0.0,-1.0,0.0,-2.0,-16.0,-2.0,-3.0,0.0,1650911543732990.0
0.0,2.0,-1.0,3.0,5.0,-4.0,-1.0,0.0,1650911543732990.0
-1.0,-1.0,0.0,2.0,2.0,0.0,0.0,-1.0,1650911543749647.0
1.0,-1.0,0.0,-3.0,-2.0,2.0,0.0,-1.0,1650911543749647.0
0.0,-1.0,3.0,2.0,3.0,2.0,1.0,1.0,1650911543754842.0
-3.0,-2.0,-12.0,-10.0,-7.0,-2.0,-2.0,-1.0,1650911543754842.0
-1.0,2.0,2.0,-2.0,-15.0,9.0,1.0,1.0,1650911543772027.0
-2.0,-2.0,-2.0,1.0,8.0,-15.0,2.0,2.0,1650911543772027.0
0.0,-1.0,4.0,4.0,22.0,4.0,1.0,-1.0,1650911543772963.0
3.0,0.0,1.0,1.0,2.0,-1.0,2.0,0.0,1650911543772963.0
0.0,-3.0,-5.0,-5.0,-12.0,-2.0,-2.0,-1.0,1650911543795366.0
0.0,1.0,-1.0,-1.0,-2.0,-2.0,-1.0,-1.0,1650911543795366.0
-2.0,-1.0,0.0,-3.0,-4.0,-8.0,-4.0,-2.0,1650911543796119.0
-1.0,0.0,1.0,0.0,-4.0,7.0,0.0,1.0,1650911543796119.0
0.0,0.0,-2.0,-3.0,0.0,-5.0,0.0,-1.0,1650911543817462.0
0.0,2.0,2.0,6.0,6.0,8.0,1.0,1.0,1650911543817462.0
0.0,-3.0,-2.0,3.0,12.0,0.0,2.0,2.0,1650911543818369.0
-1.0,-2.0,1.0,-1.0,-8.0,5.0,0.0,0.0,1650911543818369.0
0.0,-1.0,-1.0,-2.0,-10.0,-10.0,-1.0,0.0,1650911543830464.0
-1.0,-1.0,-4.0,-2.0,0.0,-10.0,-1.0,0.0,1650911543830464.0
0.0,0.0,-1.0,-1.0,-3.0,5.0,0.0,-2.0,1650911543839644.0
-1.0,-1.0,3.0,-2.0,7.0,2.0,-1.0,1.0,1650911543839644.0
-2.0,-2.0,-5.0,-1.0,-1.0,-3.0,-1.0,0.0,1650911543846487.0
-1.0,1.0,5.0,4.0,0.0,11.0,0.0,-1.0,1650911543846487.0
0.0,-1.0,-5.0,-3.0,-8.0,-11.0,-4.0,-2.0,1650911543861130.0
0.0,-2.0,-6.0,-7.0,-5.0,-7.0,-1.0,0.0,1650911543861130.0
-1.0,-1.0,4.0,1.0,11.0,2.0,1.0,0.0,1650911543869998.0
1.0,-2.0,-2.0,-2.0,-19.0,7.0,-1.0,-2.0,1650911543869998.0
-3.0,1.0,2.0,0.0,5.0,-7.0,0.0,0.0,1650911543870996.0
-1.0,0.0,2.0,1.0,1.0,-4.0,0.0,0.0,1650911543870996.0
0.0,-1.0,0.0,5.0,6.0,-1.0,-2.0,0.0,1650911543892376.0
-2.0,-1.0,0.0,4.0,10.0,4.0,0.0,0.0,1650911543892376.0
0.0,-2.0,-3.0,-3.0,-3.0,5.0,1.0,-1.0,1650911543893410.0
-1.0,0.0,-4.0,-2.0,-10.0,-4.0,-1.0,-1.0,1650911543893410.0
-1.0,-1.0,-3.0,-5.0,0.0,-11.0,-3.0,-3.0,1650911543905343.0
-1.0,-2.0,6.0,1.0,-22.0,-4.0,-5.0,-1.0,1650911543905343.0
0.0,-1.0,-7.0,-4.0,14.0,7.0,3.0,1.0,1650911543914527.0
1.0,1.0,2.0,1.0,16.0,3.0,1.0,0.0,1650911543914527.0
0.0,0.0,2.0,3.0,-6.0,9.0,2.0,0.0,1650911543928977.0
-1.0,0.0,0.0,3.0,3.0,-1.0,-2.0,1.0,1650911543928977.0
-3.0,-5.0,-14.0,-11.0,-12.0,3.0,-3.0,-2.0,1650911543930817.0
0.0,-1.0,5.0,1.0,3.0,-6.0,0.0,-4.0,1650911543930817.0
-1.0,-1.0,-8.0,-3.0,2.0,-3.0,1.0,-1.0,1650911543951644.0
2.0,0.0,3.0,3.0,3.0,-8.0,1.0,0.0,1650911543951644.0
-1.0,0.0,2.0,1.0,-9.0,-6.0,-1.0,0.0,1650911543953501.0
-1.0,-3.0,0.0,-1.0,-7.0,9.0,-2.0,-1.0,1650911543953501.0
-1.0,-1.0,2.0,0.0,-11.0,-4.0,-1.0,-1.0,1650911543965653.0
0.0,-1.0,-8.0,-8.0,7.0,2.0,0.0,1.0,1650911543965653.0
2.0,0.0,3.0,1.0,-5.0,-4.0,-2.0,0.0,1650911543973798.0
1.0,0.0,1.0,2.0,-5.0,5.0,0.0,1.0,1650911543973798.0
1.0,1.0,5.0,4.0,14.0,5.0,-2.0,-1.0,1650911543989113.0
0.0,-1.0,-5.0,-2.0,-4.0,-5.0,0.0,0.0,1650911543989113.0
-1.0,1.0,1.0,5.0,4.0,2.0,1.0,1.0,1650911543990981.0
0.0,2.0,3.0,4.0,7.0,1.0,1.0,0.0,1650911543990981.0
-1.0,-2.0,-4.0,-7.0,-15.0,-6.0,-2.0,-1.0,1650911544012009.0
-2.0,1.0,-2.0,-2.0,6.0,2.0,0.0,-1.0,1650911544012009.0
0.0,-1.0,4.0,1.0,-3.0,2.0,0.0,0.0,1650911544012849.0
-1.0,1.0,-3.0,-1.0,-10.0,-9.0,-1.0,-1.0,1650911544012849.0
0.0,1.0,-1.0,0.0,4.0,3.0,-1.0,0.0,1650911544026034.0
0.0,0.0,-1.0,0.0,-4.0,-4.0,-1.0,-1.0,1650911544026034.0
-1.0,0.0,1.0,-1.0,1.0,1.0,-1.0,0.0,1650911544034278.0
-4.0,-1.0,-7.0,-6.0,-11.0,7.0,-1.0,0.0,1650911544034278.0
1.0,0.0,-1.0,1.0,11.0,-3.0,2.0,1.0,1650911544049599.0
-1.0,0.0,-1.0,0.0,0.0,-2.0,-3.0,-1.0,1650911544049599.0
1.0,-1.0,3.0,2.0,-5.0,2.0,0.0,0.0,1650911544050599.0
0.0,-3.0,2.0,4.0,0.0,-6.0,-1.0,1.0,1650911544050599.0
-1.0,0.0,-2.0,-1.0,-7.0,-4.0,1.0,0.0,1650911544071869.0
-2.0,-2.0,1.0,2.0,0.0,2.0,2.0,0.0,1650911544071869.0
-2.0,-2.0,-3.0,-4.0,-15.0,-9.0,-4.0,-2.0,1650911544072758.0
0.0,-2.0,-3.0,-5.0,-7.0,-7.0,-3.0,-2.0,1650911544072758.0
0.0,-1.0,5.0,5.0,12.0,3.0,-2.0,-2.0,1650911544084702.0
2.0,1.0,3.0,10.0,24.0,19.0,6.0,1.0,1650911544084702.0
0.0,1.0,-2.0,2.0,15.0,8.0,2.0,1.0,1650911544093721.0
-1.0,0.0,-3.0,-4.0,-11.0,-4.0,-1.0,0.0,1650911544093721.0
-1.0,-3.0,-2.0,-6.0,-14.0,-14.0,-3.0,-2.0,1650911544109743.0
-2.0,-2.0,-3.0,-6.0,-22.0,-4.0,-3.0,-1.0,1650911544109743.0
-1.0,0.0,0.0,2.0,21.0,-7.0,-1.0,-2.0,1650911544110887.0
0.0,0.0,3.0,-1.0,1.0,2.0,-2.0,0.0,1650911544110887.0
-2.0,3.0,1.0,5.0,4.0,12.0,4.0,0.0,1650911544139553.0
-2.0,0.0,-1.0,-3.0,6.0,2.0,-1.0,-1.0,1650911544139553.0
0.0,-1.0,-1.0,-3.0,-13.0,-9.0,-2.0,-3.0,1650911544140886.0
0.0,0.0,2.0,2.0,6.0,3.0,-1.0,0.0,1650911544140886.0
0.0,-2.0,1.0,1.0,2.0,-3.0,-1.0,0.0,1650911544144876.0
-1.0,-2.0,-3.0,-6.0,-10.0,-7.0,-1.0,-2.0,1650911544144876.0
0.0,-1.0,-2.0,-3.0,-9.0,4.0,-1.0,0.0,1650911544159839.0
0.0,-1.0,-1.0,1.0,-4.0,-8.0,-1.0,0.0,1650911544159839.0
1.0,0.0,3.0,5.0,9.0,10.0,0.0,2.0,1650911544169743.0
1.0,2.0,0.0,4.0,26.0,6.0,2.0,0.0,1650911544169743.0
1.0,0.0,2.0,-1.0,-6.0,-1.0,1.0,0.0,1650911544170831.0
0.0,0.0,2.0,-4.0,-6.0,0.0,-3.0,-1.0,1650911544170831.0
-1.0,-2.0,-12.0,-8.0,-19.0,-7.0,-2.0,-2.0,1650911544192044.0
-2.0,-2.0,1.0,-2.0,-14.0,-10.0,-5.0,-1.0,1650911544192044.0
-3.0,0.0,-2.0,-2.0,11.0,11.0,2.0,1.0,1650911544194041.0
1.0,1.0,4.0,6.0,3.0,5.0,2.0,1.0,1650911544194041.0
-2.0,0.0,1.0,4.0,10.0,2.0,2.0,1.0,1650911544206304.0
1.0,0.0,-2.0,-2.0,-2.0,-4.0,0.0,2.0,1650911544206304.0
-1.0,-3.0,-2.0,-1.0,-6.0,-8.0,-3.0,-2.0,1650911544221962.0
-1.0,-1.0,-3.0,-6.0,1.0,9.0,-3.0,-2.0,1650911544221962.0
-2.0,0.0,2.0,0.0,-27.0,-11.0,-3.0,-3.0,1650911544229936.0
-1.0,-1.0,0.0,2.0,6.0,-1.0,0.0,-1.0,1650911544229936.0
1.0,0.0,4.0,4.0,11.0,6.0,1.0,1.0,1650911544230937.0
0.0,0.0,-1.0,1.0,7.0,1.0,3.0,-1.0,1650911544230937.0
0.0,0.0,-1.0,-1.0,4.0,1.0,0.0,-1.0,1650911544252167.0
-3.0,-2.0,1.0,-5.0,-13.0,0.0,-3.0,-1.0,1650911544252167.0
-1.0,-1.0,-3.0,0.0,-11.0,-3.0,0.0,-1.0,1650911544253007.0
-1.0,-1.0,-3.0,-1.0,12.0,-1.0,0.0,-1.0,1650911544253007.0
0.0,1.0,-2.0,-3.0,1.0,2.0,-2.0,1.0,1650911544265150.0
1.0,-2.0,-1.0,-3.0,-16.0,-7.0,-2.0,-1.0,1650911544265150.0
0.0,0.0,5.0,1.0,4.0,-2.0,-2.0,0.0,1650911544274300.0
-3.0,-3.0,-14.0,-5.0,3.0,0.0,-1.0,-1.0,1650911544274300.0
0.0,-2.0,3.0,3.0,5.0,1.0,0.0,0.0,1650911544290012.0
0.0,1.0,-3.0,4.0,15.0,7.0,1.0,-2.0,1650911544290012.0
-2.0,-1.0,-6.0,-4.0,-12.0,-2.0,0.0,-1.0,1650911544291012.0
-1.0,-1.0,5.0,0.0,-11.0,-9.0,-3.0,-3.0,1650911544291012.0
0.0,1.0,-1.0,-5.0,1.0,-8.0,-1.0,-2.0,1650911544312178.0
1.0,1.0,-1.0,0.0,3.0,4.0,1.0,2.0,1650911544312178.0
2.0,2.0,3.0,5.0,6.0,4.0,2.0,-1.0,1650911544313134.0
1.0,-1.0,-1.0,-1.0,-6.0,-7.0,-1.0,0.0,1650911544313134.0
0.0,-1.0,6.0,1.0,-9.0,0.0,-2.0,-2.0,1650911544334520.0
-2.0,0.0,-4.0,-7.0,-2.0,5.0,-2.0,0.0,1650911544334520.0
-2.0,-1.0,2.0,0.0,5.0,5.0,-2.0,-1.0,1650911544335519.0
1.0,-1.0,2.0,5.0,10.0,-17.0,1.0,1.0,1650911544335519.0
-2.0,-1.0,-1.0,0.0,0.0,1.0,-2.0,0.0,1650911544348814.0
0.0,-1.0,1.0,0.0,-2.0,6.0,0.0,-1.0,1650911544348814.0
-2.0,-3.0,-5.0,-4.0,-7.0,-10.0,-1.0,-1.0,1650911544350844.0
1.0,0.0,1.0,5.0,8.0,12.0,1.0,0.0,1650911544350844.0
0.0,-1.0,0.0,-1.0,1.0,1.0,0.0,-3.0,1650911544372345.0
0.0,1.0,1.0,0.0,-7.0,-7.0,-1.0,1.0,1650911544372345.0
-1.0,-1.0,-1.0,-1.0,1.0,2.0,0.0,0.0,1650911544372940.0
0.0,-1.0,3.0,1.0,-5.0,-6.0,-2.0,1.0,1650911544372940.0
0.0,-2.0,-5.0,-4.0,2.0,5.0,-1.0,-1.0,1650911544394307.0
0.0,-2.0,-1.0,3.0,8.0,5.0,1.0,0.0,1650911544394307.0
-1.0,0.0,-1.0,-2.0,-10.0,-6.0,-3.0,1.0,1650911544400293.0
-3.0,-1.0,-3.0,-4.0,-11.0,-6.0,-3.0,-3.0,1650911544400293.0
-2.0,-1.0,2.0,-1.0,-13.0,-7.0,-2.0,2.0,1650911544409113.0
-1.0,-1.0,3.0,2.0,7.0,2.0,-1.0,-1.0,1650911544409113.0
0.0,-1.0,-6.0,0.0,11.0,3.0,1.0,-2.0,1650911544410111.0
-1.0,-1.0,-4.0,0.0,-10.0,3.0,1.0,2.0,1650911544410111.0
-1.0,-2.0,-5.0,-4.0,12.0,-1.0,-1.0,-1.0,1650911544432052.0
-1.0,-2.0,6.0,4.0,-12.0,-5.0,0.0,-2.0,1650911544432052.0
1.0,1.0,2.0,3.0,2.0,1.0,-2.0,0.0,1650911544433019.0
0.0,2.0,1.0,-3.0,-6.0,4.0,2.0,-1.0,1650911544433019.0
-2.0,-2.0,-7.0,-6.0,-9.0,3.0,1.0,-1.0,1650911544454664.0
1.0,-1.0,-5.0,-7.0,4.0,-2.0,0.0,1.0,1650911544454664.0
-1.0,-1.0,-2.0,0.0,1.0,-1.0,0.0,-2.0,1650911544455568.0
-2.0,-2.0,0.0,2.0,-4.0,-6.0,-2.0,-1.0,1650911544455568.0
-1.0,0.0,2.0,1.0,-3.0,-5.0,-1.0,1.0,1650911544468696.0
-2.0,0.0,3.0,3.0,1.0,0.0,-3.0,-3.0,1650911544468696.0
0.0,0.0,-3.0,1.0,6.0,4.0,1.0,1.0,1650911544475862.0
-1.0,-1.0,-6.0,-4.0,-1.0,-1.0,1.0,0.0,1650911544475862.0
1.0,2.0,1.0,-3.0,-2.0,7.0,-1.0,-2.0,1650911544492338.0
-1.0,-1.0,0.0,-3.0,0.0,1.0,-1.0,0.0,1650911544492338.0
0.0,0.0,3.0,-1.0,-8.0,-9.0,-2.0,0.0,1650911544493370.0
-1.0,0.0,1.0,3.0,5.0,-7.0,-1.0,0.0,1650911544493370.0
0.0,-1.0,-2.0,-4.0,3.0,1.0,-2.0,0.0,1650911544514013.0
-3.0,-2.0,-3.0,-1.0,-22.0,-11.0,-2.0,0.0,1650911544514013.0
0.0,0.0,0.0,-2.0,11.0,6.0,0.0,0.0,1650911544516012.0
1.0,0.0,-1.0,1.0,10.0,20.0,2.0,0.0,1650911544516012.0
0.0,0.0,1.0,6.0,10.0,-4.0,0.0,1.0,1650911544529055.0
0.0,-1.0,-4.0,-3.0,-3.0,-7.0,-2.0,0.0,1650911544529055.0
-1.0,-1.0,1.0,0.0,-12.0,-7.0,1.0,0.0,1650911544543011.0
-1.0,1.0,1.0,0.0,2.0,3.0,-1.0,1.0,1650911544543011.0
0.0,-2.0,-4.0,-2.0,6.0,7.0,-1.0,2.0,1650911544552397.0
0.0,-1.0,-2.0,-2.0,0.0,-5.0,-2.0,0.0,1650911544552397.0
-1.0,-1.0,-2.0,0.0,-7.0,-3.0,-2.0,-1.0,1650911544553001.0
0.0,2.0,7.0,4.0,9.0,1.0,1.0,0.0,1650911544553001.0
-1.0,-1.0,1.0,-1.0,-2.0,-6.0,-1.0,0.0,1650911544575071.0
-3.0,-3.0,-8.0,-10.0,-15.0,1.0,0.0,-1.0,1650911544575071.0
1.0,-1.0,-5.0,-5.0,3.0,-4.0,2.0,1.0,1650911544575677.0
-1.0,1.0,3.0,3.0,6.0,-1.0,-1.0,1.0,1650911544575677.0
0.0,0.0,1.0,5.0,9.0,0.0,-1.0,0.0,1650911544589056.0
-1.0,1.0,2.0,4.0,9.0,5.0,1.0,-1.0,1650911544589056.0
0.0,0.0,0.0,-1.0,-8.0,7.0,-1.0,-1.0,1650911544595833.0
0.0,-2.0,-3.0,-4.0,-3.0,-2.0,-1.0,-1.0,1650911544595833.0
-1.0,-3.0,-12.0,-8.0,-7.0,4.0,-1.0,-3.0,1650911544612131.0
0.0,0.0,1.0,-2.0,-17.0,-23.0,-4.0,-1.0,1650911544612131.0
-1.0,0.0,2.0,2.0,0.0,9.0,-1.0,0.0,1650911544613118.0
1.0,-1.0,2.0,7.0,22.0,7.0,2.0,1.0,1650911544613118.0
2.0,1.0,6.0,3.0,4.0,3.0,4.0,3.0,1650911544634947.0
0.0,-2.0,-2.0,-2.0,1.0,-1.0,0.0,0.0,1650911544634947.0
-1.0,-1.0,-1.0,-5.0,-11.0,-11.0,-2.0,0.0,1650911544636048.0
-2.0,-1.0,-2.0,-5.0,-17.0,-3.0,-4.0,-1.0,1650911544636048.0
-1.0,2.0,0.0,1.0,8.0,-3.0,-1.0,-1.0,1650911544648016.0
1.0,-1.0,-1.0,-2.0,-5.0,4.0,-1.0,-1.0,1650911544648016.0
-2.0,-3.0,2.0,3.0,3.0,0.0,0.0,-3.0,1650911544655130.0
-2.0,-1.0,-2.0,0.0,-4.0,6.0,1.0,0.0,1650911544655130.0
1.0,1.0,0.0,1.0,1.0,5.0,4.0,2.0,1650911544671187.0
1.0,1.0,1.0,4.0,15.0,8.0,2.0,1.0,1650911544671187.0
0.0,-3.0,-2.0,-7.0,-8.0,-14.0,-5.0,-1.0,1650911544673215.0
-2.0,-3.0,-4.0,-6.0,-11.0,-2.0,-4.0,-3.0,1650911544673215.0
-3.0,0.0,1.0,2.0,-6.0,-9.0,-4.0,-3.0,1650911544695237.0
1.0,1.0,2.0,1.0,3.0,7.0,1.0,0.0,1650911544695237.0
1.0,0.0,0.0,1.0,5.0,-11.0,2.0,0.0,1650911544695237.0
1.0,0.0,-1.0,-1.0,5.0,6.0,1.0,0.0,1650911544695237.0
-1.0,-1.0,1.0,-2.0,-3.0,1.0,1.0,-1.0,1650911544709507.0
-2.0,-3.0,-1.0,1.0,3.0,1.0,0.0,0.0,1650911544709507.0
-2.0,-1.0,-1.0,-3.0,-6.0,6.0,0.0,-2.0,1650911544714736.0
-1.0,-2.0,-3.0,-4.0,-13.0,-12.0,-3.0,-1.0,1650911544714736.0
1.0,1.0,5.0,2.0,1.0,1.0,-2.0,-2.0,1650911544731518.0
1.0,2.0,-3.0,4.0,4.0,7.0,1.0,1.0,1650911544731518.0
-2.0,-3.0,-10.0,-11.0,7.0,7.0,1.0,-1.0,1650911544733514.0
1.0,0.0,4.0,0.0,-8.0,-13.0,-1.0,0.0,1650911544733514.0
-2.0,-2.0,-2.0,-4.0,-21.0,-7.0,-2.0,-2.0,1650911544754522.0
-1.0,-2.0,-7.0,-6.0,4.0,1.0,0.0,-1.0,1650911544754522.0
0.0,2.0,7.0,6.0,10.0,7.0,-1.0,2.0,1650911544761025.0
0.0,0.0,-4.0,-5.0,-15.0,-6.0,1.0,0.0,1650911544761025.0
-1.0,-2.0,1.0,4.0,8.0,-7.0,1.0,0.0,1650911544769224.0
0.0,-2.0,2.0,5.0,14.0,2.0,1.0,-1.0,1650911544769224.0
0.0,0.0,-3.0,-2.0,-7.0,-2.0,0.0,0.0,1650911544783847.0
-1.0,-1.0,-2.0,-4.0,-5.0,-4.0,-3.0,-2.0,1650911544783847.0
1.0,-1.0,1.0,4.0,7.0,4.0,1.0,0.0,1650911544792004.0
-2.0,0.0,2.0,5.0,15.0,5.0,2.0,1.0,1650911544792004.0
0.0,-1.0,0.0,4.0,9.0,6.0,2.0,1.0,1650911544793006.0
-2.0,-2.0,-3.0,-9.0,-11.0,-8.0,-3.0,-1.0,1650911544793006.0
-3.0,-2.0,-3.0,-8.0,-29.0,-6.0,-4.0,-2.0,1650911544813986.0
-2.0,-2.0,-3.0,-3.0,1.0,-11.0,-3.0,-2.0,1650911544813986.0
-1.0,0.0,5.0,7.0,10.0,7.0,-3.0,-1.0,1650911544822163.0
0.0,1.0,0.0,5.0,3.0,5.0,1.0,1.0,1650911544822163.0
1.0,-1.0,1.0,2.0,12.0,5.0,0.0,1.0,1650911544837635.0
0.0,1.0,2.0,0.0,6.0,6.0,1.0,0.0,1650911544837635.0
0.0,0.0,-2.0,-4.0,-19.0,0.0,0.0,-1.0,1650911544838470.0
0.0,0.0,1.0,3.0,7.0,-4.0,1.0,-1.0,1650911544838470.0
0.0,2.0,4.0,2.0,3.0,0.0,-1.0,0.0,1650911544859633.0
0.0,1.0,0.0,-2.0,-9.0,-4.0,-2.0,0.0,1650911544859633.0
-1.0,-1.0,-6.0,-6.0,-3.0,-5.0,-3.0,-1.0,1650911544860856.0
-2.0,-2.0,-1.0,0.0,5.0,0.0,0.0,-1.0,1650911544860856.0
-1.0,-1.0,-2.0,1.0,3.0,5.0,2.0,1.0,1650911544873857.0
0.0,-1.0,2.0,-1.0,-7.0,-5.0,-1.0,-1.0,1650911544873857.0
0.0,0.0,-2.0,-3.0,-8.0,-8.0,-3.0,-1.0,1650911544875816.0
-1.0,1.0,0.0,0.0,4.0,11.0,0.0,-2.0,1650911544875816.0
1.0,0.0,0.0,2.0,15.0,4.0,3.0,1.0,1650911544888110.0
1.0,0.0,0.0,3.0,-6.0,2.0,0.0,2.0,1650911544888110.0
-2.0,-1.0,-2.0,-1.0,5.0,1.0,2.0,0.0,1650911544896956.0
0.0,0.0,1.0,1.0,-10.0,-3.0,-3.0,-3.0,1650911544896956.0
-3.0,-4.0,-3.0,-9.0,-21.0,-16.0,-4.0,-1.0,1650911544918926.0
-5.0,-3.0,-1.0,-2.0,1.0,-2.0,12.0,12.0,1650911544918926.0
10.0,5.0,8.0,11.0,12.0,6.0,13.0,12.0,1650911544920916.0
11.0,2.0,-4.0,3.0,16.0,8.0,1.0,0.0,1650911544920916.0
4.0,10.0,2.0,3.0,-3.0,10.0,18.0,17.0,1650911544941833.0
-17.0,-17.0,-11.0,-11.0,-20.0,-8.0,-54.0,-52.0,1650911544941833.0
-27.0,-10.0,1.0,-5.0,-14.0,-20.0,-40.0,-37.0,1650911544942832.0
17.0,12.0,10.0,6.0,5.0,2.0,10.0,10.0,1650911544942832.0
10.0,11.0,0.0,5.0,8.0,7.0,23.0,24.0,1650911544947818.0
-11.0,-6.0,-6.0,-3.0,4.0,7.0,38.0,19.0,1650911544947818.0
20.0,-7.0,1.0,-1.0,7.0,5.0,26.0,27.0,1650911544956809.0
-7.0,0.0,-7.0,-4.0,1.0,-8.0,-40.0,-2.0,1650911544956809.0
7.0,16.0,-13.0,-12.0,-25.0,-16.0,-10.0,-14.0,1650911544971756.0
-2.0,-28.0,6.0,6.0,7.0,7.0,17.0,6.0,1650911544971756.0
-19.0,18.0,2.0,5.0,-2.0,3.0,-37.0,-21.0,1650911544972756.0
-4.0,-6.0,-1.0,-2.0,16.0,1.0,-8.0,-38.0,1650911544972756.0
46.0,27.0,8.0,9.0,8.0,6.0,3.0,14.0,1650911544993726.0
-35.0,-27.0,-2.0,-10.0,-8.0,-3.0,8.0,-16.0,1650911544993726.0
-21.0,-12.0,7.0,10.0,3.0,6.0,23.0,18.0,1650911544995689.0
46.0,20.0,11.0,10.0,8.0,12.0,25.0,45.0,1650911544995689.0
-12.0,-14.0,-11.0,-3.0,4.0,-3.0,-11.0,0.0,1650911545007691.0
38.0,29.0,22.0,-14.0,-12.0,-11.0,0.0,-4.0,1650911545007691.0
-8.0,-13.0,-21.0,-3.0,-4.0,-2.0,22.0,27.0,1650911545016634.0
4.0,-16.0,-21.0,-16.0,-23.0,1.0,-22.0,-48.0,1650911545016634.0
-60.0,-78.0,-1.0,-12.0,-25.0,-31.0,-66.0,-67.0,1650911545031919.0
-1.0,19.0,-16.0,2.0,12.0,-7.0,-20.0,4.0,1650911545031919.0
-31.0,-2.0,26.0,8.0,8.0,3.0,23.0,32.0,1650911545032916.0
50.0,59.0,14.0,13.0,12.0,10.0,40.0,67.0,1650911545032916.0
-51.0,-51.0,-21.0,-18.0,-11.0,19.0,-7.0,-90.0,1650911545062000.0
31.0,41.0,27.0,14.0,-7.0,-16.0,-5.0,34.0,1650911545062000.0
-12.0,8.0,-34.0,-8.0,-5.0,-9.0,-31.0,-39.0,1650911545063003.0
59.0,-18.0,3.0,1.0,8.0,10.0,22.0,26.0,1650911545063003.0
-53.0,-29.0,13.0,9.0,11.0,3.0,-5.0,-3.0,1650911545068021.0
26.0,10.0,-5.0,-1.0,-14.0,1.0,17.0,31.0,1650911545068021.0
40.0,29.0,13.0,0.0,-12.0,2.0,12.0,2.0,1650911545084322.0
-47.0,6.0,2.0,-6.0,-15.0,-16.0,-18.0,-44.0,1650911545084322.0
31.0,10.0,2.0,17.0,40.0,16.0,19.0,36.0,1650911545098458.0
-3.0,-53.0,-13.0,2.0,19.0,11.0,2.0,-7.0,1650911545098458.0
-3.0,-1.0,-1.0,-4.0,-4.0,-7.0,-15.0,-4.0,1650911545106442.0
-32.0,-19.0,2.0,-10.0,-28.0,-9.0,-4.0,-2.0,1650911545106442.0
10.0,14.0,-26.0,-18.0,-27.0,-17.0,-12.0,-5.0,1650911545114420.0
-3.0,6.0,-1.0,3.0,-12.0,-1.0,0.0,8.0,1650911545114420.0
4.0,-2.0,0.0,7.0,25.0,1.0,3.0,-7.0,1650911545115418.0
-14.0,-10.0,6.0,2.0,10.0,6.0,4.0,-12.0,1650911545115418.0
3.0,8.0,5.0,-7.0,-2.0,4.0,7.0,52.0,1650911545136217.0
-19.0,1.0,-6.0,3.0,-1.0,-2.0,-8.0,-28.0,1650911545136217.0
-6.0,-3.0,-3.0,-8.0,-18.0,5.0,-2.0,13.0,1650911545138211.0
1.0,-4.0,3.0,4.0,7.0,-15.0,-5.0,2.0,1650911545138211.0
23.0,19.0,-2.0,1.0,25.0,-1.0,9.0,16.0,1650911545151422.0
-10.0,12.0,11.0,4.0,-14.0,3.0,-7.0,-19.0,1650911545151422.0
30.0,9.0,3.0,-5.0,-6.0,-6.0,1.0,1.0,1650911545157532.0
-51.0,-33.0,-11.0,0.0,0.0,2.0,-6.0,-15.0,1650911545157532.0
7.0,8.0,12.0,-8.0,-29.0,-9.0,0.0,17.0,1650911545174212.0
-7.0,-12.0,-7.0,-3.0,14.0,0.0,-7.0,-5.0,1650911545174212.0
-1.0,23.0,1.0,9.0,30.0,10.0,3.0,-8.0,1650911545180017.0
0.0,-23.0,3.0,-7.0,-10.0,4.0,-5.0,-2.0,1650911545180017.0
24.0,29.0,-2.0,-1.0,-23.0,-8.0,-1.0,-7.0,1650911545188569.0
0.0,-4.0,-6.0,3.0,-1.0,-4.0,-5.0,1.0,1650911545188569.0
-10.0,-11.0,0.0,-4.0,2.0,7.0,0.0,-11.0,1650911545196570.0
17.0,15.0,3.0,7.0,15.0,4.0,4.0,10.0,1650911545196570.0
-3.0,-20.0,-24.0,10.0,14.0,4.0,5.0,6.0,1650911545212743.0
-6.0,13.0,17.0,-3.0,-8.0,-3.0,-3.0,-10.0,1650911545212743.0
-3.0,-15.0,-8.0,-14.0,-21.0,-7.0,-1.0,6.0,1650911545217761.0
-12.0,5.0,-7.0,-6.0,-8.0,-17.0,-10.0,-31.0,1650911545217761.0
1.0,14.0,9.0,10.0,3.0,6.0,20.0,35.0,1650911545235036.0
-7.0,-12.0,-8.0,8.0,10.0,10.0,2.0,-6.0,1650911545235036.0
8.0,4.0,37.0,4.0,12.0,11.0,0.0,-18.0,1650911545235933.0
8.0,35.0,7.0,2.0,4.0,14.0,9.0,29.0,1650911545235933.0
-17.0,-8.0,-8.0,-4.0,-9.0,-11.0,-4.0,-15.0,1650911545257394.0
-11.0,-27.0,-30.0,-20.0,-13.0,-23.0,-3.0,-5.0,1650911545257394.0
-4.0,-6.0,-16.0,1.0,-3.0,-7.0,-6.0,-3.0,1650911545258267.0
8.0,0.0,-4.0,6.0,4.0,-3.0,3.0,11.0,1650911545258267.0
-18.0,2.0,13.0,3.0,16.0,8.0,-5.0,-36.0,1650911545272521.0
22.0,-4.0,9.0,-2.0,-4.0,4.0,-2.0,11.0,1650911545272521.0
12.0,-3.0,-7.0,-5.0,-15.0,-6.0,-5.0,-18.0,1650911545273412.0
-21.0,5.0,1.0,-9.0,-10.0,-27.0,-2.0,17.0,1650911545273412.0
20.0,-33.0,-20.0,-2.0,2.0,13.0,10.0,18.0,1650911545294549.0
-1.0,27.0,10.0,8.0,25.0,24.0,5.0,6.0,1650911545294549.0
9.0,-6.0,4.0,13.0,9.0,11.0,4.0,10.0,1650911545295549.0
18.0,9.0,-4.0,-12.0,-13.0,-7.0,-1.0,5.0,1650911545295549.0
-38.0,22.0,15.0,8.0,7.0,-8.0,5.0,-1.0,1650911545324601.0
-9.0,13.0,-3.0,3.0,-5.0,-7.0,-8.0,-25.0,1650911545324601.0
1.0,17.0,26.0,9.0,0.0,-1.0,3.0,-1.0,1650911545325045.0
-15.0,-57.0,-16.0,-9.0,-13.0,-2.0,-8.0,-21.0,1650911545325045.0
18.0,8.0,-22.0,-21.0,-15.0,-8.0,-12.0,-15.0,1650911545332000.0
0.0,-18.0,0.0,3.0,12.0,10.0,9.0,22.0,1650911545332000.0
-36.0,21.0,4.0,9.0,4.0,1.0,2.0,6.0,1650911545338119.0
-36.0,-12.0,7.0,-3.0,12.0,-5.0,-5.0,-15.0,1650911545338119.0
21.0,-2.0,9.0,1.0,-15.0,-4.0,-1.0,1.0,1650911545354377.0
-20.0,7.0,-2.0,-6.0,-6.0,0.0,-4.0,-6.0,1650911545354377.0
31.0,-2.0,1.0,-2.0,-1.0,4.0,-2.0,9.0,1650911545355377.0
4.0,6.0,-8.0,11.0,5.0,-7.0,5.0,13.0,1650911545355377.0
2.0,18.0,25.0,4.0,11.0,-1.0,-7.0,-7.0,1650911545377513.0
8.0,-27.0,-36.0,-10.0,-12.0,1.0,5.0,10.0,1650911545377513.0
2.0,-13.0,-11.0,-4.0,-1.0,-5.0,-14.0,-14.0,1650911545378348.0
-24.0,-1.0,0.0,-3.0,-6.0,2.0,6.0,14.0,1650911545378348.0
21.0,13.0,9.0,2.0,5.0,8.0,-4.0,-7.0,1650911545391174.0
-1.0,7.0,13.0,5.0,11.0,5.0,5.0,4.0,1650911545391174.0
2.0,6.0,-2.0,-6.0,-5.0,-4.0,9.0,17.0,1650911545397735.0
0.0,-20.0,-22.0,2.0,14.0,10.0,-9.0,-26.0,1650911545397735.0
0.0,3.0,-1.0,2.0,-11.0,-2.0,0.0,2.0,1650911545414393.0
9.0,12.0,13.0,0.0,2.0,-4.0,-7.0,-5.0,1650911545414393.0
9.0,-3.0,-10.0,-17.0,-10.0,-17.0,-23.0,-22.0,1650911545415356.0
5.0,6.0,1.0,-4.0,-3.0,13.0,5.0,-1.0,1650911545415356.0
-32.0,3.0,4.0,-2.0,-13.0,-13.0,3.0,27.0,1650911545436601.0
30.0,22.0,12.0,4.0,14.0,-7.0,0.0,-1.0,1650911545436601.0
26.0,-27.0,-26.0,-6.0,-9.0,1.0,-6.0,-9.0,1650911545437599.0
26.0,40.0,32.0,3.0,-2.0,10.0,-2.0,-1.0,1650911545437599.0
11.0,5.0,3.0,3.0,14.0,10.0,4.0,-2.0,1650911545451056.0
-16.0,-34.0,-22.0,-7.0,-14.0,-8.0,-3.0,1.0,1650911545451056.0
-22.0,17.0,20.0,2.0,3.0,-9.0,0.0,2.0,1650911545458043.0
6.0,-25.0,-14.0,-5.0,-7.0,-1.0,-6.0,-17.0,1650911545458043.0
2.0,18.0,5.0,1.0,7.0,3.0,4.0,9.0,1650911545473770.0
6.0,4.0,15.0,6.0,-4.0,-5.0,-8.0,-8.0,1650911545473770.0
-10.0,-20.0,-4.0,5.0,25.0,3.0,1.0,-17.0,1650911545475601.0
-7.0,-5.0,-15.0,1.0,4.0,10.0,4.0,1.0,1650911545475601.0
7.0,-10.0,4.0,6.0,-4.0,-12.0,-4.0,-5.0,1650911545497230.0
1.0,1.0,-16.0,-17.0,-18.0,16.0,2.0,-15.0,1650911545497230.0
-1.0,6.0,-1.0,0.0,7.0,-4.0,11.0,19.0,1650911545498071.0
-13.0,-6.0,1.0,7.0,6.0,-8.0,-1.0,-9.0,1650911545498071.0
-16.0,-6.0,0.0,2.0,2.0,5.0,1.0,-1.0,1650911545511198.0
6.0,6.0,6.0,-5.0,-18.0,-12.0,4.0,15.0,1650911545511198.0
-5.0,3.0,-8.0,1.0,-6.0,10.0,1.0,4.0,1650911545518172.0
-3.0,9.0,2.0,6.0,5.0,3.0,1.0,-2.0,1650911545518172.0
1.0,-1.0,21.0,6.0,11.0,2.0,4.0,1.0,1650911545534572.0
-64.0,-35.0,-41.0,-6.0,-3.0,1.0,-14.0,-25.0,1650911545534572.0
-3.0,4.0,7.0,-3.0,-2.0,-2.0,5.0,6.0,1650911545535499.0
-1.0,18.0,23.0,3.0,1.0,1.0,2.0,10.0,1650911545535499.0
-28.0,-33.0,-34.0,-14.0,-22.0,-4.0,-4.0,-5.0,1650911545557331.0
43.0,16.0,15.0,10.0,18.0,-8.0,0.0,11.0,1650911545557331.0
-3.0,16.0,6.0,3.0,4.0,4.0,1.0,-2.0,1650911545558167.0
-18.0,-45.0,-29.0,-5.0,0.0,1.0,1.0,-1.0,1650911545558167.0
20.0,30.0,25.0,4.0,2.0,9.0,2.0,2.0,1650911545571854.0
1.0,-28.0,-27.0,-18.0,-21.0,-1.0,-3.0,3.0,1650911545571854.0
2.0,0.0,1.0,10.0,7.0,-18.0,1.0,2.0,1650911545586005.0
16.0,5.0,-3.0,4.0,-2.0,0.0,0.0,-7.0,1650911545586005.0
18.0,-3.0,-25.0,-13.0,13.0,6.0,1.0,25.0,1650911545594817.0
-4.0,16.0,23.0,13.0,-3.0,-8.0,-1.0,-12.0,1650911545594817.0
-4.0,-18.0,-17.0,-7.0,-10.0,5.0,7.0,20.0,1650911545595851.0
-3.0,22.0,0.0,-16.0,-18.0,-6.0,-7.0,-2.0,1650911545595851.0
31.0,2.0,-2.0,11.0,8.0,-3.0,0.0,-9.0,1650911545617166.0
-18.0,-2.0,5.0,0.0,3.0,1.0,9.0,16.0,1650911545617166.0
-1.0,-23.0,-5.0,-2.0,7.0,1.0,-6.0,-7.0,1650911545618005.0
15.0,15.0,-11.0,8.0,-4.0,4.0,4.0,4.0,1650911545618005.0
-15.0,4.0,24.0,5.0,12.0,8.0,-1.0,-2.0,1650911545631149.0
-3.0,19.0,35.0,5.0,4.0,-1.0,-1.0,-4.0,1650911545631149.0
40.0,-1.0,-16.0,-5.0,-25.0,-12.0,-3.0,-5.0,1650911545637296.0
-48.0,-25.0,-16.0,4.0,12.0,-5.0,-4.0,-4.0,1650911545637296.0
-17.0,-2.0,5.0,-1.0,-2.0,2.0,-6.0,-30.0,1650911545654500.0
13.0,22.0,-4.0,6.0,7.0,2.0,3.0,18.0,1650911545654500.0
-2.0,-22.0,5.0,-6.0,-7.0,7.0,0.0,1.0,1650911545655501.0
15.0,39.0,16.0,13.0,5.0,2.0,-2.0,1.0,1650911545655501.0
-19.0,-50.0,-13.0,-30.0,-50.0,-41.0,-11.0,-16.0,1650911545675652.0
-8.0,2.0,-6.0,9.0,30.0,6.0,-5.0,-22.0,1650911545675652.0
13.0,20.0,23.0,10.0,11.0,42.0,7.0,17.0,1650911545683863.0
0.0,2.0,8.0,-2.0,0.0,-24.0,-8.0,2.0,1650911545683863.0
-30.0,-6.0,13.0,11.0,16.0,1.0,0.0,2.0,1650911545691184.0
19.0,-31.0,-11.0,-16.0,-25.0,-19.0,-5.0,6.0,1650911545691184.0
-10.0,11.0,-3.0,-6.0,-18.0,-13.0,-4.0,-12.0,1650911545698032.0
14.0,-10.0,-5.0,4.0,4.0,16.0,-6.0,-10.0,1650911545698032.0
-31.0,-9.0,-7.0,-1.0,3.0,22.0,9.0,-4.0,1650911545713981.0
7.0,17.0,18.0,5.0,2.0,-2.0,6.0,9.0,1650911545713981.0
-16.0,-32.0,-2.0,2.0,10.0,0.0,5.0,5.0,1650911545715979.0
13.0,1.0,-6.0,-10.0,-11.0,-13.0,-6.0,-18.0,1650911545715979.0
6.0,24.0,-5.0,2.0,2.0,-2.0,-6.0,-8.0,1650911545737324.0
6.0,-12.0,-21.0,-10.0,-19.0,13.0,5.0,4.0,1650911545737324.0
10.0,26.0,0.0,16.0,13.0,2.0,4.0,10.0,1650911545743385.0
-30.0,-43.0,-11.0,-7.0,16.0,3.0,7.0,3.0,1650911545743385.0
-7.0,-15.0,-1.0,-3.0,-1.0,-1.0,-4.0,-4.0,1650911545750819.0
25.0,26.0,10.0,7.0,2.0,6.0,8.0,12.0,1650911545750819.0
-7.0,-19.0,-22.0,-17.0,-21.0,-14.0,-9.0,-10.0,1650911545758995.0
8.0,20.0,10.0,0.0,-9.0,-12.0,5.0,12.0,1650911545758995.0
16.0,10.0,-24.0,-3.0,-1.0,-2.0,-2.0,8.0,1650911545774769.0
-17.0,-6.0,7.0,-3.0,-2.0,-1.0,-12.0,-10.0,1650911545774769.0
16.0,5.0,-2.0,2.0,-6.0,5.0,7.0,-9.0,1650911545775672.0
-16.0,9.0,18.0,10.0,18.0,9.0,-1.0,9.0,1650911545775672.0
-10.0,-37.0,-24.0,-12.0,8.0,3.0,-1.0,1.0,1650911545797143.0
12.0,16.0,10.0,6.0,11.0,3.0,1.0,5.0,1650911545797143.0
-7.0,15.0,9.0,-2.0,-9.0,-8.0,-3.0,-12.0,1650911545798977.0
24.0,5.0,25.0,1.0,-16.0,4.0,2.0,28.0,1650911545798977.0
29.0,5.0,4.0,-3.0,-8.0,-11.0,4.0,9.0,1650911545810015.0
-57.0,-22.0,-19.0,2.0,6.0,-3.0,-5.0,-11.0,1650911545810015.0
-4.0,15.0,-1.0,2.0,16.0,2.0,-2.0,-2.0,1650911545825288.0
-7.0,-3.0,-7.0,-6.0,2.0,6.0,0.0,0.0,1650911545825288.0
17.0,10.0,23.0,19.0,3.0,7.0,2.0,0.0,1650911545834612.0
37.0,16.0,1.0,-6.0,-5.0,0.0,-4.0,10.0,1650911545834612.0
-14.0,-26.0,-1.0,-6.0,-27.0,-13.0,1.0,6.0,1650911545835644.0
0.0,3.0,11.0,13.0,22.0,6.0,6.0,3.0,1650911545835644.0
22.0,18.0,-7.0,10.0,12.0,1.0,3.0,1.0,1650911545857471.0
-13.0,23.0,15.0,6.0,-8.0,7.0,4.0,-4.0,1650911545857471.0
-41.0,-35.0,-38.0,-14.0,2.0,-9.0,-8.0,-12.0,1650911545858347.0
16.0,-28.0,-1.0,-5.0,-18.0,-1.0,0.0,-3.0,1650911545858347.0
-4.0,10.0,9.0,0.0,16.0,1.0,3.0,2.0,1650911545877837.0
12.0,3.0,-11.0,6.0,14.0,2.0,3.0,-4.0,1650911545877837.0
27.0,25.0,19.0,3.0,1.0,5.0,5.0,17.0,1650911545903128.0
-63.0,-19.0,-2.0,-13.0,-16.0,-10.0,-17.0,-37.0,1650911545903128.0
26.0,11.0,-12.0,-13.0,-17.0,6.0,6.0,14.0,1650911545903128.0
17.0,6.0,8.0,8.0,-2.0,-11.0,4.0,0.0,1650911545903128.0
-7.0,-33.0,-21.0,-11.0,-1.0,-9.0,-5.0,-4.0,1650911545904972.0
8.0,24.0,20.0,10.0,9.0,5.0,0.0,-7.0,1650911545904972.0
14.0,14.0,9.0,-2.0,-5.0,2.0,-2.0,-10.0,1650911545916750.0
31.0,34.0,19.0,-2.0,-5.0,5.0,8.0,13.0,1650911545916750.0
-15.0,-19.0,8.0,5.0,2.0,-1.0,-1.0,-15.0,1650911545924150.0
8.0,5.0,6.0,-13.0,-9.0,-13.0,1.0,8.0,1650911545924150.0
15.0,3.0,-14.0,1.0,-9.0,5.0,-1.0,4.0,1650911545930020.0
-29.0,-41.0,-24.0,-10.0,15.0,2.0,-2.0,-10.0,1650911545930020.0
22.0,22.0,8.0,-4.0,-13.0,1.0,4.0,15.0,1650911545939139.0
-4.0,-1.0,12.0,-4.0,-6.0,-17.0,-8.0,-16.0,1650911545939139.0
8.0,-22.0,12.0,10.0,10.0,7.0,9.0,19.0,1650911545954568.0
-1.0,5.0,-1.0,2.0,12.0,6.0,-2.0,-2.0,1650911545954568.0
3.0,19.0,18.0,9.0,17.0,9.0,5.0,1.0,1650911545955566.0
-1.0,7.0,4.0,5.0,-14.0,4.0,-5.0,16.0,1650911545955566.0
19.0,6.0,-19.0,-10.0,-31.0,-17.0,-1.0,3.0,1650911545977142.0
-8.0,-8.0,17.0,3.0,-1.0,-11.0,-4.0,-1.0,1650911545977142.0
3.0,-1.0,-14.0,0.0,9.0,0.0,-3.0,-11.0,1650911545979011.0
-15.0,-12.0,-27.0,-4.0,7.0,9.0,3.0,-7.0,1650911545979011.0
-12.0,27.0,28.0,6.0,-3.0,-3.0,-2.0,-2.0,1650911545990419.0
8.0,-12.0,13.0,0.0,-9.0,0.0,-7.0,-9.0,1650911545990419.0
0.0,4.0,10.0,1.0,10.0,1.0,-5.0,-10.0,1650911545998932.0
7.0,-24.0,-36.0,1.0,11.0,9.0,8.0,7.0,1650911545998932.0
-34.0,8.0,5.0,0.0,1.0,-4.0,-10.0,-17.0,1650911546013952.0
13.0,-9.0,-21.0,-13.0,-18.0,-11.0,-6.0,-2.0,1650911546013952.0
-9.0,19.0,17.0,8.0,-1.0,3.0,4.0,10.0,1650911546015981.0
-4.0,2.0,33.0,-2.0,-13.0,-13.0,-11.0,-20.0,1650911546015981.0
-27.0,3.0,12.0,15.0,13.0,9.0,4.0,1.0,1650911546037582.0
-18.0,-8.0,-22.0,-11.0,4.0,2.0,-5.0,-10.0,1650911546037582.0
19.0,-3.0,6.0,14.0,19.0,8.0,-2.0,-2.0,1650911546038434.0
5.0,6.0,-12.0,-9.0,-2.0,1.0,8.0,32.0,1650911546038434.0
-4.0,5.0,-5.0,-3.0,-3.0,-8.0,-2.0,-8.0,1650911546050754.0
6.0,-30.0,-6.0,-10.0,-11.0,-4.0,-5.0,-1.0,1650911546050754.0
-29.0,-5.0,9.0,-13.0,-19.0,-11.0,-7.0,-19.0,1650911546059727.0
6.0,-22.0,-19.0,10.0,7.0,1.0,7.0,8.0,1650911546059727.0
-28.0,-23.0,-6.0,-14.0,-4.0,-2.0,-9.0,0.0,1650911546074510.0
24.0,28.0,14.0,19.0,22.0,16.0,9.0,-7.0,1650911546074510.0
16.0,-35.0,-27.0,-6.0,-1.0,1.0,-1.0,-3.0,1650911546075511.0
12.0,48.0,52.0,10.0,-4.0,-1.0,-1.0,-2.0,1650911546075511.0
5.0,-37.0,-20.0,-9.0,-4.0,-9.0,-9.0,-9.0,1650911546096495.0
-58.0,-58.0,-6.0,-3.0,-9.0,-5.0,6.0,9.0,1650911546096495.0
17.0,19.0,-13.0,6.0,4.0,2.0,-6.0,13.0,1650911546098460.0
-5.0,-8.0,-19.0,-8.0,-4.0,-3.0,4.0,4.0,1650911546098460.0
14.0,3.0,2.0,3.0,9.0,5.0,0.0,-13.0,1650911546119177.0
12.0,30.0,1.0,-3.0,-5.0,1.0,2.0,6.0,1650911546119177.0
16.0,-13.0,-12.0,-14.0,-30.0,-12.0,-4.0,-4.0,1650911546121011.0
1.0,9.0,11.0,-4.0,-5.0,-6.0,-5.0,-5.0,1650911546121011.0
9.0,-6.0,-19.0,17.0,47.0,18.0,4.0,2.0,1650911546134427.0
-2.0,4.0,-14.0,-2.0,22.0,11.0,6.0,1.0,1650911546134427.0
-9.0,6.0,8.0,-1.0,-9.0,1.0,2.0,7.0,1650911546135426.0
11.0,13.0,-4.0,-10.0,-20.0,-6.0,-1.0,-3.0,1650911546135426.0
-7.0,-13.0,-36.0,-2.0,-16.0,-13.0,-1.0,2.0,1650911546156788.0
15.0,25.0,31.0,13.0,19.0,3.0,0.0,2.0,1650911546156788.0
-22.0,0.0,-9.0,-6.0,9.0,-4.0,-1.0,3.0,1650911546157788.0
0.0,-2.0,-2.0,-5.0,-13.0,-4.0,-4.0,-4.0,1650911546157788.0
0.0,6.0,9.0,1.0,-11.0,1.0,5.0,3.0,1650911546179503.0
-6.0,-1.0,5.0,5.0,-6.0,1.0,1.0,3.0,1650911546179503.0
0.0,-2.0,-6.0,8.0,12.0,6.0,2.0,1.0,1650911546180857.0
-1.0,1.0,-5.0,-9.0,6.0,-1.0,-1.0,-3.0,1650911546180857.0
1.0,3.0,7.0,-11.0,-13.0,-2.0,-1.0,4.0,1650911546194861.0
-3.0,-6.0,-7.0,-5.0,-20.0,-5.0,-3.0,-2.0,1650911546194861.0
-4.0,11.0,22.0,11.0,15.0,5.0,1.0,-8.0,1650911546195849.0
12.0,-1.0,-11.0,14.0,22.0,11.0,7.0,24.0,1650911546195849.0
-4.0,-2.0,17.0,-1.0,-10.0,-6.0,-3.0,-2.0,1650911546224833.0
-2.0,3.0,-9.0,-4.0,-23.0,0.0,1.0,-5.0,1650911546224833.0
-7.0,1.0,-15.0,-12.0,10.0,-9.0,-2.0,-3.0,1650911546225868.0
-3.0,-13.0,-8.0,2.0,19.0,18.0,1.0,-8.0,1650911546225868.0
-2.0,3.0,3.0,-3.0,3.0,-2.0,6.0,-5.0,1650911546239834.0
-17.0,0.0,-5.0,-3.0,-13.0,-13.0,-12.0,5.0,1650911546239834.0
19.0,13.0,24.0,20.0,-7.0,-4.0,12.0,14.0,1650911546246511.0
-10.0,-14.0,-22.0,-15.0,-20.0,-6.0,-19.0,-23.0,1650911546246511.0
4.0,-1.0,-6.0,-14.0,-5.0,-3.0,0.0,12.0,1650911546254482.0
5.0,3.0,-2.0,-2.0,19.0,4.0,1.0,-15.0,1650911546254482.0
-2.0,-4.0,-3.0,9.0,16.0,17.0,2.0,6.0,1650911546255486.0
-5.0,-2.0,-1.0,-5.0,3.0,-2.0,2.0,-13.0,1650911546255486.0
-7.0,-6.0,1.0,7.0,2.0,2.0,3.0,-7.0,1650911546277015.0
5.0,2.0,3.0,-13.0,-20.0,-15.0,-4.0,0.0,1650911546277015.0
8.0,3.0,16.0,25.0,-5.0,-2.0,-3.0,1.0,1650911546278016.0
-3.0,2.0,-12.0,0.0,-2.0,5.0,4.0,-2.0,1650911546278016.0
0.0,-4.0,-4.0,-7.0,6.0,5.0,-1.0,4.0,1650911546299161.0
-7.0,-14.0,-19.0,-18.0,6.0,-4.0,-5.0,-8.0,1650911546299161.0
-6.0,-5.0,-9.0,-26.0,-20.0,-7.0,-4.0,-9.0,1650911546300885.0
6.0,2.0,-1.0,1.0,-5.0,-1.0,7.0,11.0,1650911546300885.0
10.0,8.0,29.0,32.0,13.0,2.0,0.0,-1.0,1650911546314184.0
-24.0,-3.0,-26.0,-9.0,0.0,0.0,-1.0,11.0,1650911546314184.0
-2.0,-6.0,1.0,6.0,3.0,-2.0,-5.0,-21.0,1650911546315219.0
0.0,-11.0,9.0,-5.0,-8.0,-7.0,-3.0,2.0,1650911546315219.0
3.0,1.0,-8.0,-12.0,-8.0,-6.0,-4.0,1.0,1650911546336992.0
1.0,2.0,14.0,19.0,0.0,1.0,2.0,-3.0,1650911546336992.0
-10.0,-1.0,-9.0,-4.0,-2.0,-1.0,-2.0,16.0,1650911546337834.0
-26.0,-2.0,-23.0,-1.0,-1.0,6.0,0.0,-5.0,1650911546337834.0
-2.0,1.0,8.0,9.0,-1.0,-5.0,-2.0,-1.0,1650911546359260.0
14.0,-2.0,-19.0,-10.0,5.0,-4.0,1.0,1.0,1650911546359260.0
-10.0,-6.0,-16.0,-17.0,6.0,-6.0,-2.0,-6.0,1650911546360127.0
3.0,-5.0,10.0,-2.0,-7.0,1.0,0.0,0.0,1650911546360127.0
4.0,-1.0,-3.0,6.0,5.0,13.0,1.0,4.0,1650911546373400.0
2.0,12.0,16.0,16.0,0.0,2.0,2.0,2.0,1650911546373400.0
2.0,-8.0,-3.0,-12.0,-23.0,-24.0,-5.0,-5.0,1650911546380028.0
0.0,0.0,11.0,-1.0,7.0,6.0,-1.0,2.0,1650911546380028.0
3.0,10.0,9.0,21.0,25.0,19.0,5.0,0.0,1650911546396677.0
6.0,-5.0,13.0,11.0,18.0,9.0,3.0,1.0,1650911546396677.0
-5.0,-5.0,-11.0,-21.0,-25.0,6.0,-1.0,0.0,1650911546398542.0
5.0,2.0,-9.0,-9.0,-18.0,-23.0,-2.0,2.0,1650911546398542.0
-8.0,-2.0,-3.0,-6.0,2.0,-9.0,-3.0,-4.0,1650911546418677.0
10.0,7.0,23.0,15.0,11.0,5.0,-1.0,3.0,1650911546418677.0
-7.0,1.0,4.0,10.0,3.0,10.0,1.0,0.0,1650911546420673.0
3.0,-1.0,-14.0,-2.0,2.0,-4.0,3.0,-4.0,1650911546420673.0
5.0,2.0,14.0,-10.0,-11.0,-5.0,-2.0,5.0,1650911546433810.0
-5.0,-11.0,-42.0,-21.0,-17.0,3.0,2.0,3.0,1650911546433810.0
-2.0,-1.0,18.0,2.0,2.0,-3.0,-1.0,-7.0,1650911546447974.0
7.0,4.0,15.0,17.0,25.0,22.0,4.0,2.0,1650911546447974.0
0.0,2.0,-19.0,-5.0,4.0,-12.0,1.0,0.0,1650911546465208.0
4.0,-6.0,20.0,-1.0,-16.0,-10.0,-6.0,-3.0,1650911546465208.0
1.0,24.0,-7.0,-4.0,-10.0,-1.0,0.0,3.0,1650911546466120.0
-2.0,-1.0,11.0,5.0,5.0,-10.0,-3.0,0.0,1650911546466120.0
-3.0,-14.0,-27.0,-10.0,-10.0,3.0,0.0,0.0,1650911546479468.0
1.0,10.0,23.0,4.0,13.0,16.0,4.0,3.0,1650911546479468.0
-4.0,-12.0,-18.0,5.0,9.0,9.0,3.0,-1.0,1650911546480334.0
2.0,5.0,-7.0,-5.0,5.0,-2.0,3.0,3.0,1650911546480334.0
1.0,0.0,0.0,-6.0,-20.0,0.0,-4.0,-4.0,1650911546494218.0
-2.0,-8.0,-6.0,-6.0,-5.0,-12.0,-3.0,-2.0,1650911546494218.0
-1.0,7.0,19.0,6.0,14.0,0.0,0.0,-1.0,1650911546500239.0
3.0,-10.0,-16.0,5.0,2.0,9.0,0.0,1.0,1650911546500239.0
-2.0,8.0,13.0,-2.0,-13.0,-21.0,-2.0,-2.0,1650911546518008.0
-5.0,-13.0,-16.0,-4.0,-4.0,-3.0,0.0,-1.0,1650911546518008.0
3.0,2.0,17.0,8.0,13.0,2.0,0.0,1.0,1650911546518878.0
1.0,-5.0,-4.0,1.0,-19.0,-1.0,1.0,1.0,1650911546518878.0
-11.0,-35.0,-22.0,-10.0,-5.0,9.0,-3.0,-6.0,1650911546540366.0
-4.0,11.0,13.0,1.0,-2.0,-9.0,-3.0,-2.0,1650911546540366.0
5.0,-2.0,-9.0,-5.0,-7.0,-6.0,-1.0,2.0,1650911546542206.0
-6.0,-10.0,-6.0,-6.0,7.0,5.0,-1.0,-3.0,1650911546542206.0
4.0,14.0,18.0,7.0,1.0,9.0,3.0,2.0,1650911546553400.0
1.0,3.0,1.0,1.0,2.0,-8.0,0.0,0.0,1650911546553400.0
-2.0,-8.0,-4.0,5.0,-1.0,0.0,0.0,-2.0,1650911546560957.0
5.0,13.0,5.0,10.0,25.0,11.0,3.0,5.0,1650911546560957.0
0.0,0.0,-5.0,-4.0,-6.0,8.0,1.0,0.0,1650911546577001.0
5.0,17.0,10.0,4.0,-10.0,31.0,0.0,4.0,1650911546577001.0
-9.0,-36.0,-31.0,-31.0,-7.0,-53.0,-7.0,-12.0,1650911546577834.0
-15.0,5.0,16.0,12.0,-23.0,-3.0,0.0,-1.0,1650911546577834.0
5.0,5.0,4.0,10.0,53.0,5.0,0.0,0.0,1650911546606804.0
-3.0,-5.0,-7.0,5.0,-4.0,10.0,2.0,1.0,1650911546606804.0
4.0,6.0,3.0,0.0,-6.0,15.0,2.0,5.0,1650911546607678.0
1.0,1.0,2.0,-10.0,-16.0,-8.0,-1.0,0.0,1650911546607678.0
0.0,-2.0,0.0,-2.0,-13.0,-1.0,-1.0,-1.0,1650911546613665.0
0.0,0.0,3.0,9.0,25.0,-4.0,1.0,-1.0,1650911546613665.0
2.0,2.0,2.0,2.0,7.0,10.0,1.0,3.0,1650911546619773.0
-2.0,-10.0,0.0,-2.0,-3.0,-13.0,-4.0,-3.0,1650911546619773.0
3.0,8.0,3.0,0.0,-15.0,-1.0,0.0,2.0,1650911546636381.0
-5.0,-2.0,-6.0,-7.0,-11.0,1.0,-5.0,-3.0,1650911546636381.0
-2.0,0.0,0.0,6.0,-3.0,-8.0,0.0,-1.0,1650911546638220.0
6.0,4.0,5.0,3.0,9.0,10.0,2.0,4.0,1650911546638220.0
-2.0,4.0,12.0,-1.0,14.0,14.0,1.0,-1.0,1650911546666803.0
8.0,-6.0,-11.0,-5.0,-15.0,-17.0,0.0,-2.0,1650911546666803.0
-9.0,10.0,15.0,6.0,13.0,1.0,1.0,2.0,1650911546667638.0
3.0,9.0,3.0,-2.0,-3.0,2.0,-2.0,2.0,1650911546667638.0
-10.0,-21.0,-22.0,-11.0,-25.0,-12.0,-3.0,4.0,1650911546672660.0
11.0,3.0,5.0,3.0,9.0,-21.0,-5.0,-18.0,1650911546672660.0
6.0,5.0,1.0,1.0,6.0,17.0,2.0,3.0,1650911546682017.0
2.0,1.0,5.0,9.0,20.0,2.0,2.0,2.0,1650911546682017.0
1.0,9.0,9.0,4.0,-5.0,7.0,3.0,-2.0,1650911546696510.0
-6.0,-3.0,-1.0,-2.0,-11.0,-2.0,1.0,4.0,1650911546696510.0
-1.0,-6.0,-20.0,-12.0,-3.0,-5.0,-2.0,-2.0,1650911546698342.0
-1.0,-2.0,2.0,0.0,-3.0,-8.0,-4.0,-5.0,1650911546698342.0
-1.0,-5.0,-13.0,-7.0,2.0,-1.0,-7.0,-4.0,1650911546719050.0
1.0,-7.0,-8.0,1.0,-12.0,-8.0,-1.0,1.0,1650911546719050.0
0.0,0.0,-1.0,1.0,8.0,16.0,3.0,-1.0,1650911546720885.0
1.0,4.0,0.0,1.0,11.0,8.0,4.0,1.0,1650911546720885.0
0.0,7.0,5.0,2.0,2.0,-4.0,3.0,1.0,1650911546733786.0
1.0,5.0,2.0,0.0,7.0,-9.0,-2.0,2.0,1650911546733786.0
0.0,-1.0,-5.0,-1.0,-17.0,0.0,-2.0,0.0,1650911546742137.0
-3.0,-4.0,-3.0,-3.0,-6.0,0.0,-3.0,-2.0,1650911546742137.0
13.0,2.0,7.0,4.0,-8.0,-10.0,-1.0,-1.0,1650911546757614.0
-12.0,-16.0,-10.0,-4.0,6.0,4.0,-2.0,-1.0,1650911546757614.0
0.0,9.0,-2.0,-7.0,-11.0,-3.0,-2.0,-1.0,1650911546758455.0
-2.0,-2.0,-9.0,-7.0,-15.0,10.0,-2.0,-2.0,1650911546758455.0
1.0,7.0,7.0,6.0,21.0,-13.0,1.0,0.0,1650911546779392.0
-2.0,-12.0,-7.0,5.0,15.0,8.0,4.0,3.0,1650911546779392.0
-3.0,0.0,-1.0,-4.0,-4.0,3.0,2.0,-1.0,1650911546780356.0
-1.0,-12.0,-13.0,-4.0,-14.0,-15.0,-5.0,-3.0,1650911546780356.0
-5.0,3.0,-5.0,-11.0,-14.0,-2.0,-3.0,-1.0,1650911546793422.0
-1.0,11.0,10.0,4.0,-2.0,8.0,-1.0,1.0,1650911546793422.0
2.0,-5.0,5.0,4.0,-9.0,4.0,-2.0,-1.0,1650911546801842.0
-2.0,5.0,-1.0,-2.0,5.0,-13.0,-2.0,-1.0,1650911546801842.0
-4.0,-3.0,-7.0,3.0,13.0,7.0,1.0,0.0,1650911546816705.0
-3.0,-5.0,5.0,3.0,12.0,0.0,3.0,2.0,1650911546816705.0
5.0,0.0,5.0,0.0,-2.0,4.0,-2.0,0.0,1650911546818535.0
-4.0,-10.0,-6.0,0.0,-20.0,-9.0,0.0,-2.0,1650911546818535.0
-2.0,2.0,-2.0,-4.0,-5.0,0.0,-2.0,-2.0,1650911546839217.0
0.0,0.0,-7.0,-3.0,-1.0,8.0,-1.0,2.0,1650911546839217.0
-6.0,-2.0,5.0,5.0,8.0,-6.0,0.0,1.0,1650911546841079.0
3.0,-5.0,-4.0,-3.0,5.0,-5.0,-2.0,0.0,1650911546841079.0
-2.0,0.0,7.0,3.0,-4.0,-3.0,-1.0,-2.0,1650911546853313.0
-3.0,5.0,2.0,-7.0,-24.0,5.0,-2.0,-2.0,1650911546853313.0
1.0,-4.0,-4.0,3.0,19.0,6.0,3.0,-1.0,1650911546861451.0
2.0,8.0,4.0,14.0,25.0,4.0,3.0,2.0,1650911546861451.0
-4.0,-4.0,-6.0,-13.0,-9.0,0.0,1.0,1.0,1650911546876657.0
2.0,3.0,1.0,0.0,-11.0,-4.0,-2.0,-7.0,1650911546876657.0
1.0,2.0,3.0,-3.0,-13.0,-15.0,-5.0,-1.0,1650911546877656.0
0.0,-2.0,1.0,0.0,-3.0,6.0,0.0,-2.0,1650911546877656.0
-1.0,-6.0,-7.0,5.0,7.0,0.0,0.0,-1.0,1650911546899942.0
-2.0,1.0,1.0,-5.0,-8.0,-4.0,0.0,0.0,1650911546899942.0
0.0,1.0,-10.0,-5.0,1.0,12.0,0.0,-1.0,1650911546900777.0
0.0,1.0,1.0,6.0,0.0,-5.0,0.0,-2.0,1650911546900777.0
-1.0,4.0,5.0,2.0,5.0,-4.0,-2.0,-1.0,1650911546913086.0
-2.0,0.0,-3.0,2.0,6.0,-1.0,0.0,2.0,1650911546913086.0
-2.0,1.0,5.0,3.0,13.0,14.0,2.0,1.0,1650911546922063.0
4.0,-8.0,0.0,-6.0,-7.0,-4.0,0.0,1.0,1650911546922063.0
-25.0,-22.0,-21.0,-10.0,-13.0,-5.0,-5.0,-6.0,1650911546936164.0
-1.0,2.0,3.0,2.0,-1.0,-1.0,-1.0,3.0,1650911546936164.0
1.0,-2.0,-4.0,-9.0,-13.0,-11.0,-1.0,-2.0,1650911546937998.0
-2.0,-3.0,-6.0,-1.0,5.0,-1.0,-1.0,-1.0,1650911546937998.0
6.0,8.0,13.0,7.0,13.0,-3.0,0.0,0.0,1650911546959254.0
2.0,2.0,1.0,3.0,3.0,-1.0,-2.0,1.0,1650911546959254.0
-10.0,-5.0,-14.0,-11.0,-8.0,0.0,1.0,1.0,1650911546960089.0
0.0,0.0,3.0,0.0,-4.0,5.0,-1.0,-1.0,1650911546960089.0
6.0,4.0,5.0,1.0,-7.0,-6.0,-3.0,0.0,1650911546973206.0
-2.0,-5.0,-14.0,-7.0,-1.0,-6.0,0.0,2.0,1650911546973206.0
4.0,4.0,5.0,6.0,-6.0,2.0,-1.0,-1.0,1650911546982057.0
0.0,6.0,6.0,-2.0,6.0,-5.0,2.0,1.0,1650911546982057.0
5.0,2.0,3.0,2.0,0.0,-5.0,0.0,0.0,1650911546996925.0
-14.0,-3.0,-2.0,2.0,3.0,6.0,3.0,3.0,1650911546996925.0
3.0,-2.0,0.0,-3.0,-8.0,-8.0,-2.0,-1.0,1650911546997901.0
-1.0,2.0,4.0,-3.0,6.0,9.0,1.0,0.0,1650911546997901.0
-1.0,-2.0,-7.0,1.0,5.0,5.0,0.0,-1.0,1650911547026335.0
4.0,1.0,4.0,-2.0,-1.0,-5.0,-1.0,0.0,1650911547026335.0
0.0,2.0,2.0,-2.0,-16.0,1.0,-1.0,0.0,1650911547028203.0
-4.0,-7.0,-1.0,4.0,-5.0,-1.0,0.0,-2.0,1650911547028203.0
2.0,2.0,2.0,-1.0,3.0,-1.0,-2.0,0.0,1650911547032193.0
3.0,-2.0,1.0,3.0,9.0,1.0,-1.0,-3.0,1650911547032193.0
0.0,1.0,4.0,7.0,15.0,8.0,1.0,0.0,1650911547042197.0
2.0,1.0,3.0,-3.0,-6.0,-1.0,-1.0,1.0,1650911547042197.0
0.0,-8.0,-17.0,-8.0,-14.0,-4.0,-1.0,-1.0,1650911547055835.0
-4.0,6.0,-9.0,-12.0,-17.0,-5.0,-3.0,-4.0,1650911547055835.0
0.0,-1.0,10.0,4.0,5.0,-16.0,-3.0,0.0,1650911547063826.0
-3.0,2.0,4.0,1.0,-6.0,-1.0,-2.0,-1.0,1650911547063826.0
2.0,-1.0,3.0,3.0,8.0,15.0,2.0,1.0,1650911547080031.0
3.0,4.0,11.0,7.0,7.0,5.0,1.0,0.0,1650911547080031.0
2.0,4.0,-7.0,-3.0,7.0,-3.0,-1.0,-1.0,1650911547081077.0
0.0,-4.0,-4.0,2.0,-5.0,-11.0,-2.0,-1.0,1650911547081077.0
-15.0,-4.0,-7.0,-7.0,-1.0,3.0,-1.0,0.0,1650911547093034.0
3.0,-1.0,0.0,-1.0,-3.0,4.0,0.0,-1.0,1650911547093034.0
-1.0,3.0,9.0,9.0,-5.0,-5.0,-2.0,1.0,1650911547102341.0
-6.0,1.0,-13.0,-13.0,2.0,3.0,-1.0,-2.0,1650911547102341.0
3.0,1.0,6.0,9.0,4.0,8.0,3.0,1.0,1650911547116827.0
1.0,-8.0,5.0,3.0,11.0,-4.0,1.0,1.0,1650911547116827.0
1.0,7.0,-8.0,-12.0,-23.0,-9.0,-5.0,-3.0,1650911547117699.0
3.0,-2.0,-2.0,-5.0,-16.0,-9.0,-2.0,-1.0,1650911547117699.0
-1.0,0.0,-3.0,2.0,13.0,5.0,1.0,0.0,1650911547139968.0
3.0,2.0,2.0,6.0,16.0,12.0,3.0,1.0,1650911547139968.0
-5.0,-5.0,6.0,5.0,7.0,3.0,3.0,-2.0,1650911547140999.0
-1.0,1.0,-4.0,-5.0,-6.0,1.0,-2.0,0.0,1650911547140999.0
3.0,3.0,6.0,-4.0,-16.0,-9.0,-1.0,0.0,1650911547162032.0
-1.0,0.0,-1.0,3.0,-13.0,-4.0,-3.0,0.0,1650911547162032.0
-2.0,-7.0,-14.0,-12.0,-3.0,-12.0,-1.0,-2.0,1650911547163034.0
0.0,3.0,11.0,12.0,18.0,-1.0,4.0,-1.0,1650911547163034.0
0.0,2.0,8.0,10.0,23.0,15.0,4.0,5.0,1650911547177345.0
2.0,0.0,-5.0,-7.0,-7.0,0.0,-2.0,-5.0,1650911547177345.0
0.0,-3.0,-11.0,-3.0,-8.0,0.0,-1.0,0.0,1650911547178255.0
0.0,-2.0,3.0,-3.0,-6.0,4.0,-1.0,-3.0,1650911547178255.0
2.0,0.0,-5.0,-2.0,-11.0,-10.0,-2.0,-1.0,1650911547199708.0
-2.0,3.0,7.0,5.0,-4.0,0.0,1.0,2.0,1650911547199708.0
2.0,3.0,3.0,2.0,11.0,2.0,0.0,-1.0,1650911547200549.0
-1.0,1.0,-3.0,-1.0,4.0,3.0,-1.0,2.0,1650911547200549.0
-3.0,-8.0,-8.0,-7.0,-7.0,-5.0,-3.0,-2.0,1650911547221209.0
0.0,12.0,12.0,3.0,-8.0,-5.0,-1.0,3.0,1650911547221209.0
-8.0,-24.0,-27.0,-7.0,-6.0,-3.0,-2.0,-4.0,1650911547223241.0
-2.0,5.0,0.0,-1.0,-1.0,3.0,0.0,0.0,1650911547223241.0
1.0,0.0,3.0,2.0,10.0,6.0,2.0,-1.0,1650911547237558.0
0.0,-4.0,-10.0,-9.0,-2.0,1.0,-1.0,0.0,1650911547237558.0
3.0,5.0,14.0,13.0,12.0,8.0,3.0,2.0,1650911547238400.0
1.0,-2.0,-6.0,-3.0,-2.0,10.0,0.0,-1.0,1650911547238400.0
2.0,4.0,1.0,0.0,-17.0,-25.0,-3.0,-1.0,1650911547258916.0
-1.0,-2.0,-3.0,-2.0,6.0,-3.0,-1.0,-1.0,1650911547258916.0
-2.0,2.0,3.0,-3.0,-2.0,0.0,0.0,-1.0,1650911547260909.0
-3.0,-2.0,-3.0,-4.0,-18.0,13.0,-3.0,-3.0,1650911547260909.0
3.0,6.0,2.0,7.0,9.0,-13.0,0.0,-1.0,1650911547289166.0
6.0,-6.0,-13.0,-3.0,21.0,7.0,1.0,1.0,1650911547289166.0
-1.0,3.0,9.0,3.0,1.0,8.0,1.0,2.0,1650911547291025.0
-1.0,-1.0,-11.0,-7.0,-5.0,-6.0,-1.0,0.0,1650911547291025.0
-3.0,-1.0,5.0,0.0,-17.0,6.0,-2.0,-3.0,1650911547296134.0
2.0,-2.0,3.0,4.0,-1.0,-3.0,0.0,0.0,1650911547296134.0
-1.0,-2.0,-9.0,-6.0,5.0,-1.0,-1.0,-1.0,1650911547303096.0
-1.0,-2.0,-2.0,0.0,2.0,-5.0,-1.0,1.0,1650911547303096.0
3.0,-3.0,0.0,-7.0,-14.0,-2.0,-4.0,-1.0,1650911547320129.0
-7.0,-3.0,1.0,2.0,-3.0,-9.0,-3.0,-3.0,1650911547320129.0
2.0,1.0,6.0,5.0,0.0,8.0,2.0,1.0,1650911547325855.0
-1.0,0.0,4.0,1.0,4.0,-7.0,3.0,0.0,1650911547325855.0
0.0,1.0,-4.0,-1.0,10.0,1.0,2.0,1.0,1650911547342314.0
-1.0,0.0,0.0,0.0,8.0,17.0,0.0,-2.0,1650911547342314.0
0.0,2.0,7.0,1.0,-3.0,-14.0,-2.0,0.0,1650911547343348.0
-1.0,-5.0,-9.0,-4.0,-14.0,-11.0,-3.0,-1.0,1650911547343348.0
-4.0,-5.0,-8.0,-1.0,-4.0,2.0,0.0,-3.0,1650911547356506.0
-3.0,-7.0,5.0,5.0,23.0,20.0,3.0,-1.0,1650911547356506.0
5.0,3.0,2.0,9.0,10.0,16.0,5.0,2.0,1650911547363808.0
-1.0,3.0,4.0,0.0,2.0,-9.0,-1.0,-1.0,1650911547363808.0
-2.0,-1.0,0.0,-3.0,-18.0,-12.0,-4.0,-1.0,1650911547379254.0
-5.0,-7.0,-20.0,-19.0,-28.0,-21.0,-4.0,-2.0,1650911547379254.0
7.0,0.0,5.0,6.0,12.0,-2.0,-3.0,-3.0,1650911547380121.0
-13.0,1.0,1.0,1.0,10.0,2.0,1.0,1.0,1650911547380121.0
-2.0,-2.0,-1.0,-5.0,-8.0,1.0,-1.0,1.0,1650911547401522.0
2.0,4.0,5.0,2.0,-11.0,-12.0,-1.0,0.0,1650911547401522.0
1.0,7.0,6.0,6.0,7.0,8.0,2.0,1.0,1650911547403354.0
6.0,-1.0,0.0,4.0,13.0,11.0,3.0,1.0,1650911547403354.0
2.0,5.0,3.0,2.0,14.0,8.0,2.0,1.0,1650911547415993.0
-3.0,0.0,0.0,-2.0,-11.0,-3.0,-2.0,-1.0,1650911547415993.0
-4.0,-3.0,-6.0,-6.0,-11.0,-11.0,-4.0,-1.0,1650911547422676.0
1.0,-3.0,4.0,3.0,-1.0,-6.0,-3.0,0.0,1650911547422676.0
-3.0,-3.0,-5.0,-5.0,-4.0,4.0,0.0,-2.0,1650911547439824.0
3.0,3.0,2.0,0.0,-3.0,-18.0,-3.0,0.0,1650911547439824.0
-2.0,-2.0,0.0,3.0,15.0,4.0,1.0,-2.0,1650911547441696.0
2.0,2.0,1.0,4.0,12.0,12.0,5.0,-1.0,1650911547441696.0
2.0,1.0,-1.0,2.0,9.0,7.0,2.0,1.0,1650911547462344.0
-3.0,-1.0,-3.0,-4.0,-9.0,0.0,-2.0,0.0,1650911547462344.0
-2.0,-1.0,-3.0,-6.0,-26.0,-18.0,-6.0,-3.0,1650911547463288.0
1.0,-5.0,-3.0,0.0,9.0,0.0,-2.0,0.0,1650911547463288.0
-1.0,-1.0,3.0,3.0,2.0,0.0,-1.0,0.0,1650911547475634.0
0.0,1.0,0.0,-2.0,-2.0,4.0,-1.0,-1.0,1650911547475634.0
-3.0,-3.0,-1.0,-4.0,-4.0,-2.0,-4.0,-1.0,1650911547483853.0
4.0,0.0,-3.0,-2.0,-4.0,2.0,0.0,-1.0,1650911547483853.0
-1.0,0.0,-1.0,2.0,10.0,6.0,0.0,0.0,1650911547499924.0
0.0,2.0,1.0,0.0,1.0,0.0,3.0,-1.0,1650911547499924.0
-2.0,-1.0,-3.0,-5.0,-11.0,-6.0,-1.0,0.0,1650911547500957.0
-2.0,-3.0,-2.0,-5.0,-19.0,-2.0,-5.0,-4.0,1650911547500957.0
-1.0,1.0,-1.0,0.0,-8.0,-6.0,-1.0,0.0,1650911547522580.0
-1.0,0.0,0.0,5.0,20.0,6.0,5.0,1.0,1650911547522580.0
2.0,2.0,-1.0,3.0,4.0,-1.0,4.0,1.0,1650911547523581.0
-1.0,0.0,2.0,2.0,5.0,-5.0,1.0,0.0,1650911547523581.0
0.0,0.0,-4.0,-4.0,-9.0,0.0,-2.0,-1.0,1650911547544980.0
1.0,0.0,-1.0,-5.0,-14.0,-3.0,-6.0,-1.0,1650911547544980.0
-1.0,-3.0,-2.0,-1.0,-1.0,-1.0,-5.0,-1.0,1650911547551000.0
-1.0,-2.0,-2.0,1.0,10.0,1.0,-1.0,-2.0,1650911547551000.0
0.0,1.0,0.0,0.0,0.0,10.0,0.0,-1.0,1650911547559740.0
0.0,1.0,-1.0,2.0,0.0,-8.0,-3.0,1.0,1650911547559740.0
-1.0,0.0,-3.0,-1.0,2.0,10.0,2.0,2.0,1650911547560917.0
1.0,-1.0,1.0,-2.0,4.0,3.0,1.0,2.0,1650911547560917.0
2.0,0.0,2.0,5.0,7.0,0.0,1.0,0.0,1650911547581340.0
-1.0,-3.0,-3.0,0.0,-5.0,-4.0,-2.0,-2.0,1650911547581340.0
-1.0,0.0,-3.0,-3.0,-7.0,-6.0,-1.0,-2.0,1650911547583336.0
-1.0,-1.0,-3.0,-7.0,-16.0,-11.0,-4.0,-1.0,1650911547583336.0
-1.0,-4.0,-1.0,-9.0,-7.0,-5.0,-2.0,-1.0,1650911547596529.0
1.0,3.0,0.0,0.0,0.0,3.0,1.0,0.0,1650911547596529.0
-1.0,2.0,4.0,9.0,19.0,8.0,2.0,1.0,1650911547603542.0
2.0,0.0,0.0,5.0,12.0,9.0,1.0,0.0,1650911547603542.0
-1.0,-1.0,-1.0,-2.0,-1.0,-1.0,-1.0,-1.0,1650911547627002.0
-2.0,-2.0,-1.0,-4.0,-7.0,-9.0,0.0,-1.0,1650911547627002.0
0.0,-2.0,-2.0,-2.0,-5.0,-1.0,0.0,-2.0,1650911547627858.0
1.0,-1.0,0.0,0.0,2.0,3.0,0.0,2.0,1650911547627858.0
0.0,-2.0,0.0,-1.0,-1.0,-5.0,0.0,0.0,1650911547641138.0
-2.0,-2.0,-2.0,1.0,-4.0,3.0,-2.0,0.0,1650911547641138.0
-2.0,0.0,-1.0,0.0,1.0,0.0,-1.0,-1.0,1650911547656166.0
-1.0,0.0,-2.0,-2.0,0.0,-2.0,-1.0,-2.0,1650911547656166.0
0.0,-1.0,1.0,2.0,3.0,2.0,1.0,1.0,1650911547656166.0
0.0,1.0,0.0,-1.0,-1.0,8.0,-1.0,-1.0,1650911547656166.0
-2.0,-4.0,-2.0,-3.0,-11.0,-19.0,-4.0,-1.0,1650911547664147.0
-3.0,-3.0,-4.0,-4.0,-11.0,-10.0,-2.0,-1.0,1650911547664147.0
0.0,1.0,0.0,-2.0,-2.0,5.0,0.0,-1.0,1650911547679608.0
0.0,0.0,2.0,3.0,15.0,8.0,2.0,1.0,1650911547679608.0
2.0,1.0,1.0,4.0,8.0,8.0,1.0,-1.0,1650911547680740.0
-2.0,0.0,-3.0,0.0,-3.0,-2.0,-2.0,-1.0,1650911547680740.0
-1.0,1.0,-2.0,-4.0,-9.0,-10.0,-2.0,-2.0,1650911547701985.0
1.0,-2.0,-1.0,-4.0,-11.0,-7.0,-1.0,0.0,1650911547701985.0
-1.0,-2.0,-2.0,-6.0,-9.0,5.0,-1.0,0.0,1650911547703850.0
1.0,1.0,0.0,-1.0,9.0,4.0,-2.0,-1.0,1650911547703850.0
0.0,0.0,1.0,4.0,12.0,4.0,1.0,0.0,1650911547715505.0
0.0,0.0,-2.0,3.0,1.0,-2.0,1.0,-1.0,1650911547715505.0
2.0,4.0,4.0,3.0,3.0,-1.0,1.0,1.0,1650911547723818.0
0.0,0.0,3.0,4.0,5.0,2.0,4.0,2.0,1650911547723818.0
-1.0,-2.0,-2.0,-3.0,6.0,3.0,-2.0,1.0,1650911547738779.0
-4.0,-5.0,-2.0,-5.0,-7.0,-2.0,-3.0,-6.0,1650911547738779.0
-3.0,-5.0,-8.0,-15.0,-39.0,-19.0,-5.0,-3.0,1650911547744762.0
0.0,1.0,0.0,0.0,-4.0,-11.0,-3.0,-2.0,1650911547744762.0
2.0,1.0,3.0,9.0,26.0,16.0,5.0,3.0,1650911547761996.0
2.0,1.0,1.0,3.0,12.0,2.0,6.0,6.0,1650911547761996.0
5.0,2.0,1.0,1.0,0.0,5.0,1.0,-1.0,1650911547762831.0
0.0,-3.0,-4.0,-6.0,-15.0,-3.0,-2.0,-1.0,1650911547762831.0
-5.0,-1.0,-3.0,-6.0,-11.0,-8.0,-4.0,-5.0,1650911547775841.0
-2.0,-3.0,2.0,4.0,8.0,9.0,0.0,-5.0,1650911547775841.0
-2.0,-5.0,2.0,2.0,12.0,5.0,0.0,-1.0,1650911547784307.0
0.0,2.0,-3.0,-4.0,-11.0,-7.0,-4.0,-2.0,1650911547784307.0
1.0,-2.0,-2.0,-5.0,-7.0,2.0,-3.0,-2.0,1650911547806803.0
1.0,4.0,-2.0,-6.0,-12.0,-16.0,0.0,3.0,1650911547806803.0
7.0,2.0,-2.0,6.0,-1.0,7.0,5.0,3.0,1650911547807804.0
-1.0,2.0,3.0,12.0,45.0,16.0,2.0,1.0,1650911547807804.0
3.0,5.0,-3.0,0.0,2.0,19.0,8.0,9.0,1650911547822101.0
-8.0,-9.0,-2.0,-8.0,-23.0,-23.0,0.0,-2.0,1650911547822101.0
-4.0,-1.0,0.0,-2.0,-10.0,-9.0,-11.0,-9.0,1650911547822941.0
-2.0,-5.0,-6.0,-7.0,-5.0,-5.0,-4.0,-4.0,1650911547822941.0
4.0,5.0,4.0,6.0,3.0,1.0,7.0,10.0,1650911547836109.0
0.0,4.0,-4.0,2.0,13.0,8.0,-2.0,-6.0,1650911547836109.0
-7.0,-2.0,2.0,6.0,11.0,2.0,2.0,-11.0,1650911547844471.0
9.0,2.0,5.0,1.0,-10.0,2.0,-1.0,12.0,1650911547844471.0
6.0,-6.0,-5.0,-5.0,-12.0,-13.0,-6.0,-10.0,1650911547858935.0
6.0,2.0,4.0,-3.0,-8.0,6.0,13.0,28.0,1650911547858935.0
0.0,1.0,-5.0,-5.0,3.0,-10.0,-4.0,-4.0,1650911547860773.0
-12.0,-12.0,-6.0,1.0,2.0,4.0,-3.0,-12.0,1650911547860773.0
5.0,-1.0,1.0,4.0,3.0,3.0,0.0,-5.0,1650911547882529.0
1.0,9.0,3.0,7.0,17.0,20.0,6.0,7.0,1650911547882529.0
15.0,1.0,1.0,1.0,8.0,-10.0,-2.0,-2.0,1650911547883529.0
-2.0,-2.0,-1.0,-2.0,-25.0,-11.0,0.0,1.0,1650911547883529.0
5.0,-1.0,-1.0,2.0,4.0,-9.0,-4.0,-4.0,1650911547904472.0
-3.0,-3.0,-2.0,0.0,-5.0,3.0,-7.0,-10.0,1650911547904472.0
-4.0,4.0,-6.0,-8.0,10.0,16.0,-4.0,-2.0,1650911547905470.0
-13.0,-2.0,-1.0,-4.0,-6.0,-9.0,-11.0,-18.0,1650911547905470.0
6.0,1.0,8.0,-4.0,-18.0,-11.0,3.0,10.0,1650911547926570.0
-4.0,-15.0,-7.0,-2.0,1.0,-1.0,-2.0,1.0,1650911547926570.0
-1.0,1.0,0.0,-2.0,-1.0,1.0,-1.0,1.0,1650911547928442.0
24.0,12.0,2.0,7.0,9.0,1.0,-5.0,-9.0,1650911547928442.0
-40.0,-1.0,1.0,2.0,9.0,-2.0,-6.0,-12.0,1650911547942023.0
-11.0,-8.0,-9.0,0.0,5.0,3.0,-6.0,-16.0,1650911547942023.0
-12.0,-20.0,-3.0,-6.0,-9.0,-1.0,2.0,13.0,1650911547943023.0
18.0,8.0,-3.0,-8.0,-14.0,-1.0,14.0,22.0,1650911547943023.0
-17.0,1.0,7.0,0.0,-10.0,-2.0,-11.0,-3.0,1650911547956167.0
42.0,6.0,-2.0,-2.0,-2.0,-9.0,10.0,16.0,1650911547956167.0
-31.0,4.0,5.0,5.0,12.0,-1.0,1.0,-1.0,1650911547963749.0
-20.0,7.0,4.0,1.0,2.0,-7.0,-17.0,-29.0,1650911547963749.0
15.0,-7.0,-4.0,3.0,-8.0,-3.0,15.0,33.0,1650911547979186.0
18.0,30.0,4.0,-1.0,-2.0,0.0,-3.0,-4.0,1650911547979186.0
-8.0,-18.0,-4.0,0.0,8.0,8.0,2.0,-1.0,1650911547981021.0
-6.0,2.0,-1.0,-6.0,-2.0,-7.0,-1.0,4.0,1650911547981021.0
4.0,6.0,-5.0,-6.0,-9.0,-5.0,-7.0,-26.0,1650911548001867.0
8.0,1.0,3.0,3.0,0.0,-2.0,-3.0,6.0,1650911548001867.0
12.0,18.0,28.0,0.0,-14.0,-2.0,2.0,0.0,1650911548002830.0
-13.0,-21.0,-27.0,0.0,10.0,8.0,1.0,5.0,1650911548002830.0
-2.0,-5.0,3.0,0.0,4.0,-1.0,-2.0,-17.0,1650911548014824.0
-17.0,-2.0,8.0,-1.0,3.0,2.0,0.0,8.0,1650911548014824.0
13.0,5.0,-4.0,2.0,5.0,0.0,-1.0,1.0,1650911548024112.0
13.0,-16.0,10.0,-2.0,-16.0,-4.0,2.0,3.0,1650911548024112.0
-3.0,-22.0,-34.0,-13.0,-6.0,-1.0,-5.0,4.0,1650911548039492.0
-19.0,1.0,6.0,10.0,7.0,-1.0,2.0,-14.0,1650911548039492.0
-24.0,-6.0,-7.0,5.0,9.0,6.0,-2.0,-16.0,1650911548040492.0
14.0,11.0,-1.0,-4.0,18.0,10.0,8.0,15.0,1650911548040492.0
-10.0,-9.0,9.0,4.0,4.0,-7.0,-3.0,5.0,1650911548062168.0
-3.0,12.0,-1.0,-10.0,-26.0,-9.0,-9.0,-8.0,1650911548062168.0
13.0,-10.0,-24.0,-9.0,-7.0,-3.0,0.0,8.0,1650911548063011.0
0.0,22.0,38.0,20.0,3.0,9.0,0.0,-12.0,1650911548063011.0
7.0,7.0,1.0,1.0,2.0,-1.0,-1.0,-10.0,1650911548083221.0
-15.0,-2.0,13.0,4.0,8.0,15.0,3.0,-3.0,1650911548083221.0
17.0,-17.0,-18.0,-2.0,0.0,-1.0,13.0,18.0,1650911548084225.0
-3.0,7.0,7.0,-6.0,-3.0,-8.0,-7.0,-3.0,1650911548084225.0
0.0,-25.0,-11.0,-5.0,-1.0,-6.0,-2.0,-5.0,1650911548107562.0
4.0,1.0,16.0,2.0,0.0,-5.0,-5.0,-9.0,1650911548107562.0
-7.0,35.0,21.0,9.0,7.0,13.0,3.0,10.0,1650911548107562.0
-5.0,-24.0,-34.0,-8.0,3.0,-9.0,1.0,-10.0,1650911548107562.0
-13.0,-48.0,-27.0,-5.0,2.0,4.0,6.0,11.0,1650911548121398.0
20.0,3.0,-15.0,-2.0,-3.0,-3.0,3.0,13.0,1650911548121398.0
-9.0,-12.0,14.0,-7.0,-7.0,-13.0,-18.0,-33.0,1650911548121398.0
-11.0,6.0,-5.0,-4.0,-2.0,0.0,24.0,57.0,1650911548121398.0
17.0,42.0,16.0,-5.0,-7.0,3.0,-2.0,-1.0,1650911548143848.0
-3.0,-9.0,13.0,0.0,2.0,-6.0,-2.0,-1.0,1650911548143848.0
2.0,-19.0,-28.0,-1.0,-12.0,1.0,0.0,-5.0,1650911548143848.0
5.0,21.0,13.0,6.0,5.0,6.0,2.0,-11.0,1650911548143848.0
13.0,13.0,8.0,5.0,-7.0,1.0,7.0,16.0,1650911548166892.0
-15.0,-14.0,-12.0,-5.0,2.0,-6.0,-1.0,2.0,1650911548166892.0
-9.0,-3.0,-8.0,-3.0,19.0,13.0,-7.0,-5.0,1650911548174343.0
7.0,-19.0,2.0,9.0,-2.0,0.0,6.0,0.0,1650911548174343.0
1.0,13.0,-4.0,-4.0,4.0,-6.0,-1.0,0.0,1650911548181051.0
23.0,11.0,12.0,2.0,19.0,11.0,6.0,8.0,1650911548181051.0
-8.0,-4.0,-6.0,-5.0,-31.0,-10.0,-2.0,-3.0,1650911548182018.0
12.0,8.0,13.0,5.0,5.0,17.0,3.0,6.0,1650911548182018.0
-30.0,-12.0,-22.0,-20.0,-12.0,-12.0,-7.0,-5.0,1650911548203152.0
-15.0,-12.0,-22.0,6.0,-1.0,-3.0,-7.0,-18.0,1650911548203152.0
12.0,11.0,10.0,5.0,28.0,0.0,5.0,-1.0,1650911548204153.0
-5.0,3.0,3.0,-11.0,-28.0,-9.0,-5.0,4.0,1650911548204153.0
4.0,-7.0,2.0,5.0,-9.0,-2.0,-5.0,-9.0,1650911548218505.0
-6.0,4.0,-10.0,-5.0,3.0,4.0,-4.0,-8.0,1650911548218505.0
26.0,16.0,6.0,8.0,3.0,1.0,7.0,15.0,1650911548219340.0
-24.0,10.0,-1.0,-14.0,-11.0,-10.0,-9.0,-5.0,1650911548219340.0
21.0,-3.0,-11.0,5.0,18.0,0.0,1.0,10.0,1650911548241001.0
-31.0,-6.0,14.0,0.0,-20.0,0.0,-11.0,-25.0,1650911548241001.0
11.0,21.0,17.0,6.0,14.0,5.0,1.0,3.0,1650911548241834.0
16.0,-16.0,-41.0,-2.0,0.0,-1.0,5.0,1.0,1650911548241834.0
8.0,-9.0,0.0,3.0,12.0,8.0,-4.0,-4.0,1650911548263735.0
-5.0,-3.0,-20.0,-14.0,4.0,2.0,5.0,16.0,1650911548263735.0
-3.0,-1.0,0.0,-3.0,-13.0,-22.0,-10.0,-9.0,1650911548263735.0
-7.0,-13.0,-9.0,0.0,10.0,-1.0,2.0,-2.0,1650911548263735.0
8.0,29.0,27.0,4.0,-4.0,0.0,-3.0,-9.0,1650911548278041.0
5.0,-16.0,-18.0,-2.0,-13.0,-9.0,-4.0,-1.0,1650911548278041.0
-7.0,-2.0,-10.0,-12.0,-16.0,4.0,-3.0,-5.0,1650911548278930.0
3.0,2.0,2.0,-1.0,-3.0,-4.0,2.0,9.0,1650911548278930.0
-2.0,-1.0,11.0,10.0,8.0,12.0,10.0,2.0,1650911548301188.0
22.0,4.0,5.0,8.0,20.0,21.0,14.0,28.0,1650911548301188.0
-14.0,4.0,10.0,10.0,21.0,9.0,1.0,-14.0,1650911548302021.0
6.0,3.0,-5.0,-4.0,-2.0,-5.0,-5.0,-10.0,1650911548302021.0
-26.0,-1.0,11.0,-3.0,-18.0,-10.0,-1.0,7.0,1650911548323910.0
6.0,-29.0,-53.0,-23.0,-13.0,-19.0,-9.0,-8.0,1650911548323910.0
-3.0,1.0,19.0,3.0,12.0,-1.0,-2.0,-2.0,1650911548323910.0
18.0,1.0,14.0,8.0,-26.0,10.0,6.0,6.0,1650911548323910.0
-39.0,16.0,13.0,10.0,22.0,15.0,6.0,-11.0,1650911548339218.0
13.0,23.0,0.0,-4.0,1.0,4.0,10.0,18.0,1650911548339218.0
-12.0,-16.0,-18.0,-4.0,-8.0,-8.0,-6.0,-20.0,1650911548339218.0
13.0,-11.0,9.0,4.0,21.0,-1.0,-1.0,-4.0,1650911548339218.0
12.0,17.0,14.0,1.0,-6.0,5.0,-5.0,-1.0,1650911548361352.0
-17.0,-4.0,-6.0,-11.0,-34.0,-21.0,-7.0,-10.0,1650911548361352.0
-1.0,-17.0,0.0,2.0,4.0,0.0,3.0,16.0,1650911548361352.0
2.0,7.0,3.0,6.0,20.0,3.0,-3.0,-4.0,1650911548361352.0
7.0,-11.0,-9.0,-7.0,-11.0,4.0,-4.0,-12.0,1650911548383834.0
-9.0,-2.0,5.0,-2.0,0.0,7.0,-1.0,-2.0,1650911548383834.0
20.0,18.0,4.0,-7.0,-16.0,-12.0,-2.0,5.0,1650911548383834.0
0.0,10.0,16.0,-4.0,-4.0,5.0,7.0,8.0,1650911548383834.0
-8.0,-35.0,-37.0,-7.0,5.0,-7.0,0.0,8.0,1650911548397981.0
-5.0,15.0,30.0,19.0,17.0,11.0,-4.0,-11.0,1650911548397981.0
9.0,9.0,-3.0,-4.0,-3.0,5.0,4.0,15.0,1650911548398978.0
-21.0,-17.0,-7.0,0.0,-1.0,-2.0,-1.0,-4.0,1650911548398978.0
0.0,11.0,1.0,-6.0,-8.0,-15.0,-7.0,-4.0,1650911548420170.0
-6.0,7.0,42.0,7.0,5.0,-14.0,-6.0,-5.0,1650911548420170.0
4.0,-15.0,-26.0,-4.0,-20.0,9.0,3.0,16.0,1650911548428934.0
-27.0,-48.0,-54.0,-12.0,7.0,7.0,-5.0,-12.0,1650911548428934.0
16.0,5.0,1.0,-5.0,-6.0,-7.0,-1.0,-4.0,1650911548443904.0
1.0,7.0,1.0,9.0,16.0,5.0,2.0,12.0,1650911548443904.0
4.0,-29.0,-7.0,2.0,16.0,0.0,1.0,4.0,1650911548443904.0
-8.0,23.0,21.0,2.0,0.0,4.0,-3.0,-12.0,1650911548443904.0
4.0,-18.0,-8.0,-4.0,-17.0,-10.0,-2.0,-10.0,1650911548458117.0
17.0,-2.0,3.0,-3.0,-9.0,2.0,0.0,1.0,1650911548458117.0
-11.0,13.0,13.0,6.0,-1.0,-6.0,-4.0,-3.0,1650911548466147.0
34.0,25.0,33.0,5.0,-12.0,-4.0,-2.0,10.0,1650911548466147.0
-4.0,-5.0,-21.0,-1.0,9.0,0.0,-2.0,-14.0,1650911548489878.0
24.0,21.0,10.0,8.0,19.0,5.0,0.0,1.0,1650911548489878.0
-5.0,-4.0,-8.0,-3.0,-5.0,1.0,4.0,4.0,1650911548489878.0
6.0,-3.0,11.0,2.0,-8.0,-2.0,-4.0,-21.0,1650911548489878.0
-1.0,13.0,13.0,8.0,2.0,2.0,0.0,5.0,1650911548503219.0
0.0,-7.0,-23.0,-12.0,-14.0,-4.0,-4.0,-4.0,1650911548503219.0
6.0,8.0,14.0,2.0,-3.0,7.0,8.0,16.0,1650911548504220.0
-2.0,3.0,-13.0,-2.0,24.0,-4.0,-5.0,-12.0,1650911548504220.0
-2.0,21.0,29.0,3.0,-13.0,1.0,4.0,11.0,1650911548518577.0
-5.0,-30.0,-35.0,-2.0,-13.0,-1.0,-3.0,-3.0,1650911548518577.0
-11.0,0.0,5.0,8.0,15.0,5.0,4.0,-3.0,1650911548519444.0
5.0,18.0,37.0,0.0,2.0,8.0,-1.0,8.0,1650911548519444.0
-11.0,-3.0,-33.0,-12.0,-11.0,0.0,9.0,17.0,1650911548541182.0
-1.0,16.0,20.0,12.0,25.0,-8.0,5.0,3.0,1650911548541182.0
-2.0,-11.0,-16.0,-7.0,6.0,-2.0,-8.0,-20.0,1650911548542027.0
-7.0,-10.0,-17.0,1.0,-3.0,1.0,1.0,6.0,1650911548542027.0
16.0,10.0,28.0,1.0,0.0,4.0,-5.0,-4.0,1650911548563710.0
-24.0,14.0,-15.0,-7.0,-28.0,-5.0,0.0,-7.0,1650911548563710.0
-10.0,-7.0,-8.0,-7.0,-13.0,-10.0,-8.0,-14.0,1650911548564326.0
6.0,9.0,-2.0,1.0,2.0,-6.0,1.0,4.0,1650911548564326.0
10.0,4.0,6.0,12.0,25.0,14.0,9.0,3.0,1650911548578450.0
2.0,2.0,9.0,4.0,14.0,10.0,7.0,31.0,1650911548578450.0
-7.0,-12.0,1.0,-10.0,-5.0,1.0,-5.0,-9.0,1650911548585453.0
-13.0,-20.0,-37.0,-6.0,-13.0,-6.0,-1.0,-1.0,1650911548585453.0
9.0,10.0,6.0,-1.0,-12.0,-14.0,-6.0,-7.0,1650911548600978.0
-10.0,-17.0,-9.0,-9.0,-19.0,-3.0,1.0,5.0,1650911548600978.0
12.0,16.0,23.0,6.0,-8.0,2.0,3.0,19.0,1650911548601846.0
-14.0,-15.0,-5.0,0.0,5.0,4.0,-3.0,-4.0,1650911548601846.0
9.0,-5.0,4.0,8.0,19.0,1.0,-1.0,-1.0,1650911548623832.0
-12.0,-22.0,-16.0,-2.0,5.0,-5.0,-4.0,-12.0,1650911548623832.0
11.0,0.0,20.0,10.0,-7.0,2.0,3.0,9.0,1650911548623832.0
-30.0,2.0,-13.0,-19.0,-24.0,-10.0,-1.0,-7.0,1650911548623832.0
-1.0,-2.0,-21.0,1.0,8.0,3.0,-5.0,5.0,1650911548638013.0
9.0,15.0,39.0,13.0,17.0,-1.0,-7.0,-13.0,1650911548638013.0
7.0,15.0,-2.0,1.0,9.0,2.0,3.0,0.0,1650911548646307.0
-12.0,-23.0,-21.0,-4.0,8.0,-4.0,-14.0,-15.0,1650911548646307.0
4.0,8.0,14.0,-1.0,-12.0,1.0,8.0,16.0,1650911548661181.0
7.0,-6.0,-10.0,-8.0,-16.0,2.0,3.0,4.0,1650911548661181.0
5.0,2.0,-5.0,-7.0,0.0,-9.0,-4.0,-1.0,1650911548661181.0
-13.0,17.0,15.0,11.0,11.0,6.0,5.0,-1.0,1650911548661181.0
-4.0,6.0,2.0,1.0,-2.0,-4.0,-6.0,-5.0,1650911548684419.0
-9.0,-6.0,1.0,-5.0,-9.0,-8.0,-10.0,-12.0,1650911548684419.0
4.0,3.0,3.0,0.0,-2.0,4.0,2.0,-11.0,1650911548684419.0
24.0,26.0,20.0,8.0,4.0,9.0,12.0,21.0,1650911548684419.0
-4.0,-30.0,-29.0,-2.0,20.0,7.0,-7.0,-14.0,1650911548698751.0
-1.0,9.0,12.0,1.0,2.0,6.0,5.0,2.0,1650911548698751.0
4.0,14.0,-2.0,3.0,-2.0,-7.0,-4.0,-4.0,1650911548706856.0
3.0,-13.0,16.0,-5.0,-38.0,-15.0,-5.0,5.0,1650911548706856.0
-10.0,-9.0,-2.0,2.0,-11.0,-3.0,-1.0,-4.0,1650911548720656.0
37.0,12.0,14.0,-3.0,30.0,13.0,5.0,4.0,1650911548720656.0
-45.0,-15.0,-10.0,2.0,11.0,4.0,-1.0,-5.0,1650911548721654.0
8.0,14.0,3.0,4.0,7.0,-6.0,-8.0,-16.0,1650911548721654.0
1.0,-7.0,-21.0,-9.0,-14.0,-10.0,-3.0,6.0,1650911548743446.0
-13.0,12.0,21.0,-4.0,-17.0,12.0,-8.0,-16.0,1650911548743446.0
29.0,2.0,-1.0,6.0,-2.0,-14.0,3.0,9.0,1650911548744283.0
12.0,-18.0,-21.0,-13.0,-8.0,-3.0,-4.0,5.0,1650911548744283.0
-2.0,11.0,24.0,5.0,14.0,3.0,2.0,-12.0,1650911548757588.0
-33.0,0.0,6.0,12.0,14.0,0.0,-6.0,-13.0,1650911548757588.0
-17.0,-15.0,-36.0,-12.0,-9.0,-2.0,3.0,28.0,1650911548766382.0
6.0,17.0,10.0,8.0,12.0,1.0,1.0,10.0,1650911548766382.0
2.0,17.0,6.0,-11.0,-12.0,-1.0,6.0,5.0,1650911548781014.0
17.0,10.0,13.0,-1.0,-13.0,-6.0,0.0,6.0,1650911548781014.0
-10.0,-19.0,-16.0,-7.0,-1.0,-2.0,-5.0,-24.0,1650911548781014.0
-34.0,-35.0,-13.0,2.0,9.0,1.0,-4.0,-8.0,1650911548781014.0
-10.0,-10.0,8.0,-7.0,-22.0,-19.0,1.0,12.0,1650911548803730.0
-17.0,-15.0,-33.0,-9.0,-16.0,-4.0,-4.0,-20.0,1650911548803730.0
21.0,18.0,24.0,17.0,38.0,28.0,10.0,13.0,1650911548803730.0
8.0,9.0,8.0,5.0,7.0,2.0,-2.0,-8.0,1650911548803730.0
17.0,0.0,-5.0,0.0,11.0,7.0,3.0,-10.0,1650911548818011.0
-43.0,-31.0,-24.0,-10.0,-15.0,-17.0,2.0,11.0,1650911548818011.0
12.0,3.0,-2.0,-8.0,-34.0,-1.0,-9.0,-18.0,1650911548826328.0
14.0,8.0,3.0,-6.0,-7.0,-15.0,-4.0,-1.0,1650911548826328.0
-2.0,-7.0,12.0,16.0,26.0,9.0,-7.0,-19.0,1650911548841469.0
10.0,1.0,-6.0,-2.0,0.0,-11.0,2.0,14.0,1650911548841469.0
-11.0,5.0,1.0,-7.0,6.0,3.0,1.0,7.0,1650911548841469.0
4.0,28.0,35.0,18.0,-2.0,18.0,3.0,-2.0,1650911548841469.0
0.0,-25.0,-33.0,-12.0,-16.0,-15.0,-5.0,1.0,1650911548863415.0
1.0,0.0,11.0,5.0,18.0,3.0,9.0,7.0,1650911548863415.0
0.0,3.0,-5.0,0.0,-4.0,5.0,7.0,-6.0,1650911548864251.0
8.0,11.0,-24.0,-17.0,-11.0,-1.0,0.0,13.0,1650911548864251.0
-8.0,-4.0,3.0,2.0,-14.0,0.0,-3.0,-14.0,1650911548878505.0
2.0,-21.0,-15.0,4.0,13.0,4.0,-1.0,-5.0,1650911548878505.0
-15.0,19.0,8.0,-7.0,-6.0,-6.0,2.0,3.0,1650911548885822.0
3.0,-40.0,-36.0,-4.0,-1.0,2.0,-1.0,-6.0,1650911548885822.0
1.0,21.0,22.0,4.0,15.0,6.0,4.0,13.0,1650911548900826.0
18.0,6.0,-14.0,2.0,2.0,-2.0,-1.0,-4.0,1650911548900826.0
-12.0,-12.0,0.0,3.0,-5.0,-6.0,-1.0,4.0,1650911548901822.0
7.0,10.0,7.0,-5.0,-22.0,-4.0,-6.0,-7.0,1650911548901822.0
-19.0,4.0,-6.0,-1.0,13.0,3.0,6.0,19.0,1650911548924461.0
-18.0,-5.0,21.0,6.0,6.0,10.0,-4.0,-4.0,1650911548924461.0
5.0,-13.0,-20.0,-3.0,0.0,-4.0,1.0,3.0,1650911548924461.0
-5.0,-18.0,-10.0,-2.0,5.0,-6.0,-5.0,-11.0,1650911548924461.0
-5.0,8.0,0.0,-6.0,-28.0,-4.0,2.0,8.0,1650911548939135.0
21.0,-16.0,-6.0,-6.0,-7.0,3.0,-4.0,-18.0,1650911548939135.0
-9.0,23.0,17.0,5.0,4.0,-1.0,-2.0,13.0,1650911548946308.0
-14.0,-20.0,5.0,-2.0,10.0,-6.0,-6.0,-16.0,1650911548946308.0
-8.0,-14.0,-22.0,-6.0,8.0,4.0,-6.0,-14.0,1650911548960995.0
11.0,9.0,-6.0,1.0,-3.0,6.0,7.0,5.0,1650911548960995.0
6.0,11.0,9.0,-3.0,-19.0,-13.0,-4.0,-5.0,1650911548961868.0
-13.0,-2.0,-6.0,1.0,9.0,-2.0,-7.0,-10.0,1650911548961868.0
-3.0,-6.0,11.0,-2.0,-8.0,-4.0,-3.0,1.0,1650911548983923.0
4.0,11.0,5.0,-11.0,-4.0,1.0,1.0,15.0,1650911548983923.0
14.0,-12.0,-11.0,6.0,-6.0,2.0,4.0,-3.0,1650911548984211.0
-3.0,-3.0,-8.0,8.0,15.0,6.0,13.0,31.0,1650911548984211.0
2.0,-2.0,11.0,0.0,15.0,7.0,-4.0,-11.0,1650911548997232.0
16.0,19.0,8.0,10.0,3.0,-2.0,-4.0,2.0,1650911548997232.0
-11.0,-8.0,-2.0,2.0,2.0,4.0,0.0,-3.0,1650911549006271.0
5.0,-11.0,-14.0,-4.0,-3.0,0.0,7.0,9.0,1650911549006271.0
7.0,8.0,8.0,-1.0,-3.0,6.0,-4.0,-8.0,1650911549020572.0
-1.0,2.0,19.0,-2.0,-8.0,-13.0,17.0,26.0,1650911549020572.0
-18.0,-12.0,-4.0,2.0,5.0,0.0,-4.0,-2.0,1650911549021571.0
10.0,20.0,11.0,5.0,12.0,8.0,3.0,-8.0,1650911549021571.0
10.0,3.0,-1.0,2.0,7.0,2.0,-1.0,29.0,1650911549044151.0
-3.0,-6.0,-11.0,-4.0,-9.0,-3.0,-9.0,-17.0,1650911549044151.0
-8.0,2.0,0.0,-15.0,-13.0,-14.0,-8.0,-2.0,1650911549051177.0
-1.0,6.0,13.0,7.0,-3.0,4.0,3.0,5.0,1650911549051177.0
6.0,-15.0,-6.0,1.0,8.0,6.0,-1.0,-7.0,1650911549066878.0
-24.0,-6.0,-5.0,10.0,32.0,10.0,2.0,-4.0,1650911549066878.0
10.0,-3.0,-16.0,-8.0,-11.0,-13.0,-9.0,-5.0,1650911549066878.0
-4.0,8.0,10.0,-3.0,-12.0,-3.0,-2.0,0.0,1650911549066878.0
3.0,3.0,-5.0,-3.0,-16.0,-3.0,0.0,0.0,1650911549081034.0
-23.0,-4.0,-13.0,-4.0,-2.0,5.0,-2.0,-5.0,1650911549081034.0
12.0,-3.0,-1.0,2.0,-3.0,1.0,1.0,-4.0,1650911549082030.0
-12.0,1.0,17.0,-2.0,-4.0,-7.0,-4.0,-10.0,1650911549082030.0
0.0,-11.0,-11.0,-2.0,1.0,-7.0,-1.0,-3.0,1650911549103008.0
11.0,9.0,8.0,1.0,0.0,-2.0,-4.0,10.0,1650911549103008.0
12.0,7.0,-5.0,-2.0,10.0,11.0,-3.0,-18.0,1650911549103974.0
-13.0,-1.0,4.0,-7.0,-12.0,-6.0,-1.0,2.0,1650911549103974.0
5.0,-2.0,-6.0,-1.0,-9.0,-13.0,0.0,2.0,1650911549126630.0
-14.0,3.0,2.0,1.0,-8.0,5.0,-6.0,-18.0,1650911549126630.0
2.0,-5.0,10.0,10.0,2.0,-9.0,1.0,3.0,1650911549127469.0
10.0,11.0,-6.0,3.0,25.0,20.0,7.0,5.0,1650911549127469.0
-7.0,6.0,4.0,1.0,7.0,9.0,3.0,-2.0,1650911549140931.0
13.0,-5.0,-4.0,-1.0,-7.0,-6.0,-3.0,-7.0,1650911549140931.0
3.0,-3.0,3.0,-2.0,-3.0,-1.0,-1.0,3.0,1650911549141771.0
-6.0,-10.0,-11.0,-8.0,-21.0,-15.0,-5.0,-3.0,1650911549141771.0
0.0,8.0,5.0,5.0,-2.0,-6.0,-1.0,3.0,1650911549163395.0
10.0,-1.0,-13.0,-9.0,-11.0,7.0,0.0,-4.0,1650911549163395.0
0.0,-7.0,9.0,6.0,19.0,10.0,2.0,11.0,1650911549164395.0
2.0,2.0,-4.0,6.0,22.0,6.0,2.0,5.0,1650911549164395.0
-2.0,-11.0,-9.0,-6.0,-11.0,-3.0,2.0,-6.0,1650911549186599.0
-4.0,3.0,4.0,-3.0,-13.0,-18.0,-6.0,2.0,1650911549186599.0
-4.0,-9.0,-9.0,-6.0,-21.0,7.0,-2.0,-18.0,1650911549187623.0
20.0,17.0,14.0,6.0,3.0,4.0,-1.0,-4.0,1650911549187623.0
-20.0,-3.0,-9.0,-2.0,-1.0,-1.0,8.0,18.0,1650911549200908.0
8.0,-22.0,-13.0,-5.0,0.0,-9.0,-11.0,-28.0,1650911549200908.0
-19.0,4.0,10.0,1.0,-1.0,0.0,1.0,6.0,1650911549208885.0
3.0,-3.0,3.0,0.0,-3.0,0.0,-2.0,0.0,1650911549208885.0
2.0,5.0,0.0,6.0,9.0,6.0,0.0,-8.0,1650911549230027.0
10.0,1.0,4.0,-1.0,-1.0,-4.0,2.0,13.0,1650911549230027.0
-1.0,-2.0,-5.0,-14.0,-9.0,4.0,-2.0,0.0,1650911549238596.0
-1.0,-3.0,-3.0,1.0,-5.0,-15.0,-1.0,1.0,1650911549238596.0
-1.0,2.0,7.0,7.0,21.0,0.0,0.0,-2.0,1650911549246575.0
-1.0,7.0,16.0,22.0,23.0,6.0,4.0,6.0,1650911549246575.0
3.0,1.0,-7.0,0.0,-8.0,0.0,0.0,-6.0,1650911549247574.0
-9.0,-16.0,-31.0,-27.0,-25.0,0.0,-1.0,-1.0,1650911549247574.0
3.0,1.0,17.0,-1.0,-17.0,-9.0,-6.0,-2.0,1650911549269470.0
2.0,-3.0,-8.0,-2.0,-1.0,-5.0,1.0,-9.0,1650911549269470.0
5.0,6.0,14.0,7.0,20.0,6.0,-2.0,22.0,1650911549269470.0
-14.0,4.0,4.0,12.0,4.0,14.0,6.0,4.0,1650911549269470.0
1.0,1.0,-4.0,-18.0,1.0,-1.0,0.0,-4.0,1650911549283843.0
13.0,-3.0,-1.0,3.0,-2.0,-12.0,-5.0,8.0,1650911549283843.0
-17.0,-6.0,-14.0,-10.0,-16.0,-7.0,-3.0,-2.0,1650911549291028.0
4.0,15.0,9.0,5.0,16.0,9.0,4.0,-9.0,1650911549291028.0
1.0,-5.0,-3.0,6.0,3.0,4.0,-4.0,4.0,1650911549307326.0
-3.0,16.0,28.0,10.0,5.0,9.0,3.0,1.0,1650911549307326.0
7.0,-6.0,2.0,1.0,-7.0,-12.0,0.0,-4.0,1650911549307326.0
1.0,-8.0,-9.0,2.0,-2.0,-9.0,-4.0,4.0,1650911549307326.0
-2.0,0.0,3.0,-6.0,4.0,8.0,4.0,-7.0,1650911549320452.0
-3.0,-1.0,-14.0,-10.0,-12.0,-8.0,-4.0,1.0,1650911549320452.0
2.0,2.0,-2.0,9.0,4.0,-5.0,-1.0,1.0,1650911549321355.0
1.0,0.0,12.0,10.0,7.0,4.0,2.0,-1.0,1650911549321355.0
1.0,1.0,-17.0,-14.0,-5.0,-3.0,-3.0,0.0,1650911549343413.0
-6.0,-7.0,-4.0,-12.0,-12.0,10.0,-2.0,0.0,1650911549343413.0
7.0,5.0,15.0,0.0,-1.0,-3.0,4.0,-3.0,1650911549344256.0
-16.0,-4.0,6.0,5.0,6.0,2.0,-3.0,7.0,1650911549344256.0
-3.0,-12.0,-31.0,-12.0,1.0,-11.0,-3.0,1.0,1650911549367323.0
-5.0,-3.0,-5.0,-8.0,-12.0,-5.0,-2.0,-1.0,1650911549367323.0
3.0,4.0,16.0,7.0,6.0,1.0,2.0,-4.0,1650911549367323.0
8.0,4.0,7.0,13.0,-9.0,4.0,-2.0,-2.0,1650911549367323.0
2.0,8.0,3.0,0.0,3.0,5.0,1.0,2.0,1650911549380339.0
-9.0,-7.0,-6.0,4.0,5.0,2.0,7.0,2.0,1650911549380339.0
3.0,-2.0,-4.0,-13.0,-2.0,-5.0,-7.0,-18.0,1650911549381336.0
3.0,-3.0,3.0,-6.0,-18.0,-5.0,-1.0,2.0,1650911549381336.0
-3.0,-6.0,5.0,10.0,10.0,9.0,-2.0,-2.0,1650911549403272.0
-3.0,-7.0,-15.0,-9.0,0.0,2.0,0.0,-1.0,1650911549403272.0
11.0,7.0,12.0,13.0,8.0,3.0,4.0,0.0,1650911549404271.0
-12.0,-12.0,-54.0,-42.0,-25.0,-15.0,-5.0,-2.0,1650911549404271.0
0.0,0.0,14.0,9.0,-15.0,-7.0,-3.0,-5.0,1650911549426697.0
3.0,4.0,13.0,13.0,13.0,13.0,0.0,2.0,1650911549426697.0
3.0,0.0,-2.0,14.0,14.0,1.0,5.0,4.0,1650911549427552.0
5.0,4.0,17.0,12.0,23.0,7.0,2.0,-1.0,1650911549427552.0
3.0,4.0,-3.0,-7.0,-11.0,-4.0,-1.0,4.0,1650911549440484.0
-3.0,-5.0,11.0,-2.0,-23.0,-15.0,-7.0,-2.0,1650911549440484.0
-5.0,-3.0,-14.0,-15.0,-3.0,2.0,-1.0,2.0,1650911549449468.0
4.0,-1.0,0.0,1.0,9.0,5.0,1.0,-2.0,1650911549449468.0
0.0,7.0,8.0,14.0,12.0,4.0,4.0,-1.0,1650911549463599.0
2.0,4.0,2.0,10.0,3.0,0.0,-1.0,-3.0,1650911549463599.0
-6.0,-7.0,-11.0,-7.0,-7.0,-1.0,-5.0,-2.0,1650911549463599.0
-7.0,-14.0,-56.0,-36.0,-13.0,-20.0,-8.0,-6.0,1650911549463599.0
1.0,5.0,15.0,-5.0,-21.0,0.0,1.0,0.0,1650911549494902.0
-5.0,-9.0,8.0,1.0,-14.0,-1.0,-1.0,-3.0,1650911549494902.0
-1.0,3.0,-2.0,7.0,31.0,7.0,5.0,5.0,1650911549494902.0
4.0,0.0,19.0,24.0,24.0,15.0,4.0,3.0,1650911549494902.0
4.0,0.0,1.0,4.0,14.0,-1.0,1.0,2.0,1650911549516064.0
1.0,12.0,-22.0,-11.0,-7.0,-1.0,-1.0,1.0,1650911549516064.0
-4.0,0.0,5.0,-3.0,-20.0,11.0,-2.0,0.0,1650911549517109.0
3.0,2.0,5.0,-2.0,-36.0,-27.0,-3.0,-1.0,1650911549517109.0
-2.0,0.0,0.0,4.0,8.0,1.0,-1.0,-3.0,1650911549524201.0
10.0,-2.0,3.0,2.0,11.0,4.0,4.0,3.0,1650911549524201.0
-7.0,-5.0,-19.0,-6.0,3.0,-3.0,0.0,0.0,1650911549524201.0
1.0,2.0,10.0,4.0,6.0,7.0,-1.0,-1.0,1650911549524201.0
-1.0,-2.0,0.0,2.0,-11.0,-13.0,-6.0,0.0,1650911549547338.0
1.0,1.0,-12.0,-9.0,-9.0,-9.0,-3.0,1.0,1650911549547338.0
0.0,-3.0,-10.0,-14.0,10.0,6.0,-1.0,-6.0,1650911549554364.0
-1.0,-3.0,9.0,3.0,6.0,12.0,2.0,-2.0,1650911549554364.0
1.0,1.0,1.0,3.0,-3.0,-5.0,3.0,2.0,1650911549561740.0
-2.0,-2.0,-14.0,0.0,13.0,-1.0,0.0,-1.0,1650911549561740.0
-5.0,-4.0,12.0,5.0,-11.0,-5.0,0.0,1.0,1650911549561740.0
-2.0,4.0,9.0,-2.0,6.0,-8.0,-2.0,-4.0,1650911549561740.0
0.0,-4.0,-6.0,-5.0,-10.0,0.0,-1.0,-3.0,1650911549583842.0
-1.0,2.0,2.0,-5.0,-7.0,-11.0,0.0,2.0,1650911549583842.0
1.0,0.0,7.0,7.0,-11.0,-2.0,-1.0,1.0,1650911549583842.0
2.0,0.0,6.0,4.0,14.0,14.0,-1.0,-2.0,1650911549583842.0
-2.0,1.0,-4.0,-6.0,-14.0,1.0,-1.0,-1.0,1650911549606441.0
-2.0,-2.0,0.0,2.0,28.0,8.0,1.0,1.0,1650911549606441.0
1.0,-2.0,-4.0,2.0,0.0,3.0,2.0,1.0,1650911549607305.0
3.0,5.0,11.0,7.0,11.0,3.0,2.0,3.0,1650911549607305.0
-2.0,-1.0,-3.0,-1.0,-1.0,4.0,0.0,-1.0,1650911549621425.0
0.0,3.0,14.0,3.0,-10.0,-7.0,0.0,2.0,1650911549621425.0
-3.0,-5.0,-10.0,-7.0,-6.0,-5.0,-3.0,-4.0,1650911549621425.0
4.0,15.0,11.0,3.0,-8.0,-4.0,0.0,2.0,1650911549621425.0
4.0,-3.0,-1.0,0.0,0.0,3.0,0.0,2.0,1650911549643463.0
-1.0,-3.0,-2.0,-8.0,-7.0,-3.0,-2.0,-4.0,1650911549643463.0
-17.0,-1.0,2.0,3.0,-3.0,-6.0,-2.0,0.0,1650911549644426.0
-2.0,-8.0,-11.0,-4.0,1.0,-3.0,0.0,-1.0,1650911549644426.0
2.0,4.0,13.0,9.0,10.0,5.0,1.0,-1.0,1650911549666609.0
-1.0,-2.0,-7.0,-2.0,-5.0,5.0,1.0,0.0,1650911549666609.0
5.0,3.0,3.0,-2.0,5.0,1.0,2.0,2.0,1650911549667560.0
-2.0,-3.0,2.0,0.0,-10.0,-13.0,-2.0,-1.0,1650911549667560.0
-3.0,2.0,-1.0,-4.0,5.0,-4.0,1.0,1.0,1650911549680563.0
-4.0,-6.0,-4.0,-3.0,4.0,4.0,1.0,1.0,1650911549680563.0
2.0,3.0,4.0,7.0,3.0,2.0,2.0,2.0,1650911549688539.0
0.0,-1.0,3.0,-5.0,-14.0,4.0,-3.0,-1.0,1650911549688539.0
2.0,-2.0,-2.0,-6.0,-3.0,-6.0,-5.0,-1.0,1650911549703505.0
-3.0,-5.0,-6.0,4.0,-3.0,-3.0,-1.0,-1.0,1650911549703505.0
4.0,0.0,-2.0,0.0,12.0,8.0,3.0,2.0,1650911549703505.0
1.0,5.0,23.0,12.0,9.0,-2.0,2.0,1.0,1650911549703505.0
-4.0,-13.0,-36.0,-18.0,-5.0,2.0,-4.0,-3.0,1650911549725442.0
-2.0,2.0,3.0,0.0,-5.0,1.0,-2.0,-2.0,1650911549725442.0
0.0,0.0,-1.0,-5.0,-15.0,-4.0,-2.0,-2.0,1650911549726402.0
2.0,-1.0,10.0,6.0,0.0,-1.0,2.0,1.0,1650911549726402.0
-1.0,1.0,3.0,5.0,15.0,3.0,3.0,-2.0,1650911549740365.0
-3.0,-7.0,-1.0,1.0,1.0,-3.0,1.0,0.0,1650911549740365.0
2.0,-3.0,-6.0,-3.0,-4.0,-3.0,-3.0,0.0,1650911549748373.0
-3.0,-8.0,-15.0,-9.0,-13.0,-2.0,-1.0,-2.0,1650911549748373.0
-3.0,1.0,0.0,1.0,1.0,2.0,-2.0,-1.0,1650911549763634.0
0.0,-1.0,-2.0,-2.0,7.0,1.0,-1.0,0.0,1650911549763634.0
0.0,6.0,2.0,-6.0,-8.0,-3.0,-1.0,-2.0,1650911549770618.0
-1.0,-2.0,-5.0,-3.0,0.0,15.0,-1.0,-3.0,1650911549770618.0
0.0,-2.0,-8.0,-2.0,6.0,-13.0,1.0,-1.0,1650911549785716.0
2.0,4.0,3.0,6.0,0.0,4.0,0.0,-2.0,1650911549785716.0
0.0,-1.0,-4.0,-1.0,5.0,-2.0,1.0,1.0,1650911549786596.0
1.0,-4.0,-5.0,-3.0,0.0,2.0,-2.0,0.0,1650911549786596.0
-12.0,1.0,8.0,6.0,10.0,10.0,2.0,2.0,1650911549800907.0
-1.0,-1.0,-17.0,-19.0,-18.0,-7.0,-4.0,-3.0,1650911549800907.0
-2.0,-2.0,2.0,1.0,-8.0,-3.0,-5.0,-3.0,1650911549816219.0
-1.0,-6.0,-10.0,-2.0,0.0,-9.0,-1.0,0.0,1650911549816219.0
5.0,5.0,19.0,11.0,2.0,2.0,2.0,1.0,1650911549823833.0
1.0,-2.0,-11.0,-1.0,6.0,-5.0,0.0,0.0,1650911549823833.0
-3.0,-1.0,-4.0,-7.0,-9.0,-3.0,-3.0,-2.0,1650911549823833.0
-1.0,-6.0,-5.0,-8.0,-5.0,2.0,-3.0,-2.0,1650911549823833.0
1.0,1.0,6.0,2.0,0.0,6.0,0.0,1.0,1650911549846190.0
-2.0,-2.0,-20.0,-3.0,25.0,21.0,2.0,1.0,1650911549846190.0
6.0,3.0,4.0,7.0,-2.0,-13.0,1.0,0.0,1650911549846190.0
-3.0,0.0,-4.0,4.0,1.0,-9.0,-1.0,0.0,1650911549846190.0
0.0,-4.0,-6.0,-14.0,-20.0,-9.0,-3.0,-1.0,1650911549860635.0
-2.0,1.0,5.0,-1.0,-11.0,-3.0,-2.0,-1.0,1650911549860635.0
5.0,17.0,7.0,5.0,1.0,-3.0,-1.0,0.0,1650911549868638.0
-1.0,2.0,-2.0,-5.0,0.0,2.0,0.0,-1.0,1650911549868638.0
-1.0,-4.0,-2.0,6.0,6.0,7.0,2.0,0.0,1650911549883922.0
4.0,4.0,8.0,3.0,4.0,2.0,1.0,0.0,1650911549883922.0
-4.0,-5.0,5.0,0.0,-2.0,-2.0,-1.0,-2.0,1650911549883922.0
0.0,2.0,1.0,1.0,4.0,-4.0,2.0,0.0,1650911549883922.0
2.0,-1.0,5.0,3.0,-14.0,-2.0,-2.0,-2.0,1650911549906020.0
2.0,0.0,0.0,-3.0,1.0,-3.0,-1.0,1.0,1650911549906020.0
5.0,-1.0,15.0,12.0,16.0,6.0,0.0,-1.0,1650911549906886.0
-3.0,-3.0,-9.0,-6.0,12.0,5.0,0.0,-2.0,1650911549906886.0
-2.0,-4.0,3.0,2.0,-11.0,-10.0,-4.0,-1.0,1650911549919829.0
0.0,2.0,5.0,-2.0,-11.0,-6.0,0.0,1.0,1650911549919829.0
-1.0,-8.0,-7.0,-3.0,-3.0,11.0,3.0,0.0,1650911549929125.0
0.0,3.0,7.0,5.0,5.0,4.0,3.0,1.0,1650911549929125.0
-2.0,1.0,-5.0,-1.0,6.0,-1.0,0.0,0.0,1650911549944093.0
1.0,0.0,5.0,5.0,-8.0,-9.0,-3.0,-1.0,1650911549944093.0
-2.0,0.0,-5.0,-14.0,-17.0,-12.0,-7.0,-1.0,1650911549944093.0
-2.0,-3.0,1.0,1.0,-5.0,3.0,-4.0,-2.0,1650911549944093.0
0.0,0.0,0.0,5.0,14.0,-6.0,4.0,1.0,1650911549966475.0
-2.0,1.0,9.0,6.0,14.0,17.0,3.0,0.0,1650911549966475.0
-1.0,-3.0,-4.0,1.0,18.0,11.0,3.0,1.0,1650911549966475.0
2.0,3.0,3.0,0.0,0.0,-4.0,1.0,0.0,1650911549966475.0
1.0,0.0,-8.0,-5.0,-16.0,-2.0,-2.0,-1.0,1650911549989181.0
-2.0,-2.0,0.0,-5.0,-13.0,-15.0,-4.0,-1.0,1650911549989181.0
-3.0,-1.0,0.0,-3.0,-4.0,1.0,-3.0,-1.0,1650911549990018.0
1.0,2.0,-2.0,-2.0,-2.0,-6.0,-3.0,0.0,1650911549990018.0
0.0,1.0,-5.0,1.0,17.0,10.0,0.0,0.0,1650911550003971.0
2.0,0.0,3.0,5.0,0.0,0.0,2.0,1.0,1650911550003971.0
-1.0,-2.0,0.0,1.0,-1.0,0.0,1.0,1.0,1650911550003971.0
0.0,-3.0,-4.0,-6.0,-10.0,-6.0,-3.0,-3.0,1650911550003971.0
0.0,0.0,3.0,-4.0,-24.0,-6.0,-1.0,-3.0,1650911550025998.0
-5.0,-3.0,-10.0,-9.0,10.0,3.0,0.0,-2.0,1650911550025998.0
0.0,1.0,0.0,11.0,26.0,13.0,6.0,2.0,1650911550025998.0
1.0,0.0,3.0,8.0,13.0,18.0,3.0,3.0,1650911550025998.0
-2.0,-2.0,-12.0,-17.0,-15.0,-13.0,-2.0,0.0,1650911550049491.0
0.0,1.0,5.0,2.0,-12.0,-8.0,-4.0,-2.0,1650911550049491.0
-1.0,-2.0,-8.0,-8.0,-7.0,-14.0,-5.0,-2.0,1650911550049491.0
-1.0,-2.0,-2.0,-6.0,-4.0,-5.0,1.0,-2.0,1650911550049491.0
-1.0,0.0,-1.0,0.0,-1.0,5.0,-4.0,-1.0,1650911550063015.0
-2.0,0.0,4.0,0.0,-10.0,0.0,-1.0,-2.0,1650911550063015.0
-4.0,-5.0,-12.0,-7.0,3.0,1.0,1.0,-2.0,1650911550064012.0
1.0,3.0,15.0,16.0,27.0,13.0,5.0,2.0,1650911550064012.0
2.0,0.0,-6.0,-1.0,2.0,3.0,2.0,2.0,1650911550085135.0
2.0,3.0,-1.0,0.0,-2.0,-8.0,-1.0,-1.0,1650911550085135.0
0.0,1.0,5.0,0.0,-13.0,-7.0,-3.0,-2.0,1650911550093156.0
-2.0,-5.0,-9.0,-13.0,-15.0,2.0,-3.0,-3.0,1650911550093156.0
-3.0,-1.0,2.0,5.0,10.0,1.0,1.0,-2.0,1650911550116291.0
3.0,0.0,2.0,3.0,10.0,2.0,0.0,1.0,1650911550116291.0
0.0,-3.0,-2.0,0.0,1.0,5.0,-1.0,-1.0,1650911550117288.0
-1.0,0.0,-1.0,7.0,-9.0,-15.0,1.0,0.0,1650911550117288.0
1.0,0.0,-4.0,-5.0,17.0,6.0,-1.0,-2.0,1650911550123272.0
1.0,-1.0,-2.0,-5.0,-19.0,-3.0,0.0,-2.0,1650911550123272.0
-2.0,-2.0,-4.0,-5.0,-10.0,-11.0,-3.0,0.0,1650911550124270.0
-2.0,-2.0,-2.0,-2.0,2.0,6.0,1.0,-1.0,1650911550124270.0
2.0,5.0,18.0,15.0,18.0,14.0,3.0,2.0,1650911550146740.0
-2.0,-1.0,-4.0,0.0,12.0,2.0,2.0,2.0,1650911550146740.0
-4.0,-1.0,-3.0,-4.0,-4.0,-1.0,0.0,-1.0,1650911550146740.0
0.0,-1.0,-1.0,-3.0,-21.0,-13.0,-5.0,-3.0,1650911550146740.0
-2.0,-4.0,-4.0,-11.0,-20.0,-22.0,-5.0,-3.0,1650911550168834.0
-2.0,-2.0,-1.0,1.0,5.0,10.0,1.0,-1.0,1650911550168834.0
3.0,2.0,7.0,9.0,20.0,16.0,8.0,3.0,1650911550169835.0
1.0,1.0,-1.0,-4.0,4.0,0.0,0.0,1.0,1650911550169835.0
-1.0,-2.0,1.0,0.0,-9.0,-5.0,-2.0,-1.0,1650911550192125.0
-1.0,-2.0,2.0,0.0,-6.0,-5.0,-2.0,-2.0,1650911550192125.0
0.0,-1.0,-3.0,3.0,-2.0,-5.0,-3.0,0.0,1650911550192125.0
-2.0,-1.0,-7.0,-7.0,4.0,-2.0,0.0,-2.0,1650911550192125.0
-1.0,-1.0,1.0,-3.0,-5.0,6.0,-1.0,0.0,1650911550214290.0
2.0,1.0,1.0,0.0,-3.0,2.0,-1.0,0.0,1650911550214290.0
-1.0,-1.0,7.0,5.0,7.0,2.0,-1.0,-2.0,1650911550214290.0
1.0,4.0,6.0,3.0,6.0,0.0,0.0,-2.0,1650911550214290.0
-1.0,-1.0,-4.0,3.0,-4.0,-4.0,0.0,0.0,1650911550229481.0
-2.0,-1.0,3.0,3.0,8.0,4.0,0.0,-1.0,1650911550229481.0
1.0,-3.0,-5.0,-10.0,-21.0,-14.0,-4.0,-2.0,1650911550229854.0
0.0,-3.0,-1.0,-3.0,-6.0,-3.0,-1.0,-1.0,1650911550229854.0
-1.0,-2.0,2.0,0.0,3.0,10.0,1.0,-2.0,1650911550244252.0
-1.0,-1.0,-1.0,1.0,-1.0,-3.0,-1.0,-1.0,1650911550244252.0
-2.0,-1.0,-3.0,2.0,2.0,-8.0,-2.0,-1.0,1650911550244252.0
-1.0,-1.0,-4.0,-1.0,-2.0,3.0,1.0,-1.0,1650911550244252.0
1.0,3.0,11.0,6.0,3.0,7.0,2.0,2.0,1650911550266308.0
-2.0,-3.0,-12.0,-12.0,-7.0,-1.0,-1.0,-2.0,1650911550266308.0
1.0,0.0,-1.0,3.0,5.0,2.0,1.0,-1.0,1650911550266308.0
-1.0,0.0,3.0,7.0,19.0,1.0,0.0,0.0,1650911550266308.0
-1.0,2.0,5.0,8.0,11.0,2.0,5.0,1.0,1650911550289604.0
0.0,-1.0,-5.0,-8.0,-3.0,1.0,0.0,1.0,1650911550289604.0
-2.0,-2.0,-3.0,-9.0,-20.0,-11.0,-3.0,-2.0,1650911550289855.0
-2.0,0.0,-3.0,-4.0,-10.0,9.0,-4.0,-3.0,1650911550289855.0
0.0,0.0,-3.0,-1.0,4.0,-10.0,-1.0,0.0,1650911550302999.0
2.0,2.0,15.0,15.0,10.0,0.0,1.0,2.0,1650911550302999.0
-2.0,-5.0,-15.0,-15.0,-1.0,-1.0,-2.0,-2.0,1650911550303998.0
-1.0,-1.0,-6.0,-8.0,-14.0,-3.0,-1.0,1.0,1650911550303998.0
1.0,-2.0,-2.0,-1.0,2.0,0.0,-2.0,-1.0,1650911550326823.0
0.0,0.0,1.0,1.0,16.0,-2.0,1.0,-1.0,1650911550326823.0
2.0,2.0,2.0,6.0,2.0,4.0,1.0,1.0,1650911550326823.0
0.0,0.0,2.0,1.0,-3.0,1.0,-1.0,-1.0,1650911550326823.0
1.0,-1.0,-4.0,-7.0,-6.0,1.0,0.0,1.0,1650911550349955.0
-3.0,-1.0,-2.0,-1.0,-4.0,-5.0,-2.0,0.0,1650911550349955.0
-1.0,-2.0,-4.0,-6.0,2.0,9.0,0.0,0.0,1650911550349955.0
-1.0,1.0,3.0,3.0,-7.0,-11.0,-1.0,0.0,1650911550349955.0
-4.0,-4.0,-11.0,-9.0,-6.0,-7.0,-4.0,-3.0,1650911550362928.0
-1.0,0.0,6.0,3.0,7.0,-3.0,1.0,0.0,1650911550362928.0
0.0,1.0,0.0,3.0,9.0,3.0,2.0,-1.0,1650911550363772.0
-1.0,-1.0,2.0,7.0,-6.0,-2.0,2.0,0.0,1650911550363772.0
0.0,0.0,-2.0,-2.0,1.0,5.0,-1.0,0.0,1650911550386327.0
-1.0,-2.0,-6.0,-2.0,-6.0,1.0,-1.0,-1.0,1650911550386327.0
-4.0,0.0,2.0,-1.0,-1.0,0.0,0.0,-1.0,1650911550386327.0
0.0,-1.0,-1.0,0.0,-1.0,-3.0,-2.0,1.0,1650911550386327.0
-1.0,3.0,3.0,6.0,12.0,9.0,0.0,2.0,1650911550409822.0
-1.0,0.0,-1.0,-2.0,0.0,-5.0,1.0,1.0,1650911550409822.0
-1.0,1.0,-1.0,-5.0,-8.0,2.0,0.0,1.0,1650911550409890.0
-2.0,-1.0,-4.0,-4.0,-4.0,-7.0,-2.0,-1.0,1650911550409890.0
-1.0,-4.0,-4.0,-3.0,-9.0,-2.0,-1.0,-1.0,1650911550424172.0
-1.0,1.0,0.0,2.0,1.0,1.0,-1.0,0.0,1650911550424172.0
1.0,2.0,5.0,7.0,4.0,6.0,0.0,0.0,1650911550424172.0
-3.0,-6.0,-6.0,-12.0,-13.0,-4.0,-3.0,-3.0,1650911550424172.0
1.0,-4.0,-3.0,-2.0,-12.0,-12.0,-4.0,-1.0,1650911550446327.0
0.0,0.0,4.0,5.0,15.0,11.0,1.0,-2.0,1650911550446327.0
-1.0,3.0,12.0,8.0,22.0,1.0,2.0,1.0,1650911550446327.0
1.0,-5.0,-8.0,-4.0,-16.0,-4.0,-1.0,-1.0,1650911550446327.0
1.0,2.0,4.0,4.0,-1.0,2.0,2.0,-2.0,1650911550469742.0
1.0,0.0,-1.0,1.0,2.0,4.0,0.0,0.0,1650911550469742.0
2.0,2.0,2.0,3.0,4.0,1.0,1.0,1.0,1650911550469742.0
1.0,0.0,-7.0,-5.0,4.0,1.0,0.0,-3.0,1650911550469742.0
-3.0,-3.0,-2.0,-4.0,-12.0,-9.0,-1.0,-1.0,1650911550483862.0
-1.0,-3.0,-6.0,-9.0,-28.0,-12.0,-4.0,-2.0,1650911550483862.0
-1.0,-1.0,-1.0,2.0,1.0,18.0,-3.0,-2.0,1650911550483862.0
-1.0,4.0,5.0,11.0,33.0,-7.0,1.0,2.0,1650911550483862.0
-3.0,-2.0,-2.0,-1.0,9.0,8.0,2.0,0.0,1650911550506166.0
1.0,1.0,-1.0,-2.0,-4.0,11.0,1.0,-1.0,1650911550506166.0
0.0,-4.0,2.0,-1.0,-5.0,-3.0,1.0,-1.0,1650911550506166.0
1.0,2.0,-1.0,-1.0,1.0,11.0,3.0,1.0,1650911550506166.0
0.0,1.0,1.0,0.0,-14.0,-15.0,-3.0,-3.0,1650911550529672.0
-3.0,-3.0,-1.0,0.0,0.0,-15.0,-4.0,-2.0,1650911550529672.0
0.0,-1.0,-5.0,-5.0,-13.0,1.0,-3.0,-3.0,1650911550529855.0
0.0,0.0,1.0,4.0,11.0,4.0,1.0,0.0,1650911550529855.0
1.0,3.0,3.0,1.0,11.0,-3.0,0.0,1.0,1650911550543829.0
-3.0,-3.0,-6.0,-10.0,-19.0,-7.0,-3.0,-3.0,1650911550543829.0
-2.0,-3.0,-4.0,-6.0,-19.0,-8.0,-4.0,-2.0,1650911550543829.0
0.0,0.0,4.0,3.0,16.0,7.0,-1.0,1.0,1650911550543829.0
0.0,0.0,-2.0,0.0,6.0,16.0,4.0,3.0,1650911550566362.0
-2.0,1.0,-1.0,3.0,-1.0,-7.0,1.0,0.0,1650911550566362.0
-2.0,1.0,-2.0,1.0,6.0,-6.0,0.0,0.0,1650911550566532.0
-1.0,-3.0,-2.0,-2.0,-7.0,-5.0,-3.0,-1.0,1650911550566532.0
0.0,-2.0,7.0,10.0,11.0,2.0,0.0,-1.0,1650911550590012.0
1.0,-1.0,-7.0,-7.0,-4.0,1.0,0.0,2.0,1650911550590012.0
-1.0,0.0,-2.0,-4.0,-11.0,-8.0,-3.0,-2.0,1650911550590012.0
-1.0,0.0,-3.0,0.0,4.0,15.0,4.0,-1.0,1650911550590012.0
1.0,1.0,1.0,2.0,9.0,3.0,4.0,1.0,1650911550603148.0
-1.0,-1.0,3.0,2.0,7.0,-5.0,-1.0,-2.0,1650911550603148.0
-3.0,-3.0,-2.0,-2.0,-13.0,-11.0,-1.0,-1.0,1650911550611181.0
-2.0,-3.0,-5.0,-7.0,-4.0,-2.0,-6.0,-3.0,1650911550611181.0
-2.0,-1.0,-2.0,-3.0,-22.0,-13.0,-5.0,1.0,1650911550626320.0
1.0,1.0,1.0,5.0,10.0,7.0,0.0,0.0,1650911550626320.0
1.0,-4.0,-2.0,-1.0,14.0,5.0,-1.0,1.0,1650911550626320.0
0.0,-1.0,2.0,-1.0,-5.0,-4.0,2.0,1.0,1650911550626320.0
-2.0,-2.0,0.0,-4.0,-5.0,10.0,-1.0,-2.0,1650911550649856.0
0.0,2.0,-1.0,-1.0,-8.0,-2.0,2.0,2.0,1650911550649856.0
1.0,0.0,-1.0,1.0,1.0,-9.0,-1.0,0.0,1650911550649856.0
-2.0,0.0,0.0,3.0,-4.0,2.0,1.0,0.0,1650911550649856.0
0.0,0.0,-3.0,1.0,5.0,2.0,-1.0,0.0,1650911550672151.0
2.0,-1.0,1.0,0.0,8.0,7.0,-1.0,-1.0,1650911550672151.0
0.0,-1.0,1.0,7.0,4.0,5.0,2.0,-1.0,1650911550672151.0
1.0,-1.0,1.0,3.0,3.0,-1.0,0.0,0.0,1650911550672151.0
-1.0,0.0,-3.0,-6.0,-4.0,-6.0,-2.0,-2.0,1650911550686308.0
-4.0,-3.0,-3.0,-2.0,-12.0,-2.0,-3.0,-1.0,1650911550686308.0
-2.0,-1.0,-1.0,-8.0,-13.0,-9.0,-2.0,1.0,1650911550686308.0
-1.0,-1.0,0.0,0.0,-7.0,1.0,-1.0,-1.0,1650911550686308.0
0.0,0.0,1.0,5.0,21.0,10.0,1.0,0.0,1650911550709306.0
1.0,2.0,2.0,2.0,6.0,-3.0,3.0,2.0,1650911550709306.0
-1.0,-2.0,-4.0,-4.0,-10.0,-5.0,-2.0,-1.0,1650911550709306.0
0.0,0.0,-3.0,-4.0,-8.0,-8.0,-2.0,-1.0,1650911550709306.0
-1.0,0.0,0.0,-1.0,-1.0,-2.0,-2.0,-5.0,1650911550723268.0
3.0,1.0,3.0,2.0,-1.0,9.0,4.0,3.0,1650911550723268.0
-2.0,-1.0,-3.0,2.0,4.0,-1.0,-1.0,-2.0,1650911550731015.0
-4.0,-1.0,1.0,-5.0,-8.0,-3.0,-4.0,-3.0,1650911550731015.0
0.0,-1.0,-1.0,0.0,2.0,6.0,-2.0,0.0,1650911550745863.0
3.0,-2.0,0.0,-1.0,-3.0,-16.0,2.0,3.0,1650911550745863.0
1.0,-3.0,-1.0,1.0,3.0,9.0,3.0,1.0,1650911550746698.0
0.0,1.0,4.0,7.0,21.0,3.0,0.0,-1.0,1650911550746698.0
-4.0,-2.0,-4.0,-2.0,-7.0,-18.0,-6.0,-6.0,1650911550770020.0
0.0,-1.0,2.0,1.0,2.0,10.0,-2.0,-6.0,1650911550770020.0
7.0,5.0,1.0,2.0,3.0,11.0,7.0,8.0,1650911550770020.0
-1.0,-1.0,-8.0,-7.0,-11.0,-6.0,0.0,2.0,1650911550770020.0
-3.0,-4.0,0.0,-3.0,-9.0,-3.0,0.0,2.0,1650911550783024.0
-4.0,-5.0,-2.0,-4.0,-10.0,-6.0,-3.0,-6.0,1650911550783024.0
2.0,2.0,5.0,-1.0,7.0,-3.0,-2.0,-4.0,1650911550791098.0
-1.0,4.0,3.0,6.0,3.0,5.0,0.0,-1.0,1650911550791098.0
-1.0,-2.0,4.0,8.0,15.0,4.0,4.0,6.0,1650911550806136.0
-4.0,-5.0,-8.0,-2.0,4.0,6.0,-1.0,1.0,1650911550806136.0
-1.0,1.0,-6.0,-9.0,-3.0,-5.0,3.0,3.0,1650911550807003.0
-2.0,-1.0,1.0,-7.0,-23.0,-10.0,-7.0,-9.0,1650911550807003.0
5.0,3.0,1.0,0.0,5.0,4.0,6.0,6.0,1650911550830013.0
2.0,4.0,6.0,7.0,9.0,27.0,1.0,-2.0,1650911550830013.0
-8.0,-6.0,-4.0,0.0,0.0,-25.0,-4.0,-6.0,1650911550830013.0
5.0,5.0,4.0,2.0,-3.0,-8.0,0.0,1.0,1650911550830013.0
-1.0,-8.0,-10.0,-5.0,-3.0,4.0,8.0,8.0,1650911550843318.0
4.0,7.0,5.0,5.0,0.0,2.0,5.0,6.0,1650911550843318.0
-9.0,-15.0,-9.0,-3.0,7.0,0.0,-15.0,-21.0,1650911550851186.0
-4.0,-3.0,0.0,-2.0,3.0,5.0,5.0,-3.0,1650911550851186.0
8.0,9.0,1.0,-3.0,-13.0,-10.0,-4.0,7.0,1650911550866153.0
11.0,9.0,3.0,0.0,3.0,1.0,9.0,14.0,1650911550866153.0
-6.0,-14.0,-4.0,-3.0,-12.0,0.0,-7.0,-1.0,1650911550881149.0
-15.0,-3.0,-3.0,0.0,-6.0,-12.0,-4.0,-4.0,1650911550881149.0
-2.0,-10.0,-2.0,-6.0,11.0,5.0,3.0,-3.0,1650911550889546.0
3.0,1.0,-3.0,-5.0,-19.0,-11.0,-8.0,-12.0,1650911550889546.0
-10.0,-1.0,-1.0,6.0,16.0,0.0,-6.0,3.0,1650911550889855.0
14.0,-4.0,0.0,7.0,15.0,12.0,1.0,5.0,1650911550889855.0
-21.0,-3.0,-8.0,-3.0,-13.0,-10.0,-6.0,-8.0,1650911550902985.0
3.0,-2.0,-6.0,-7.0,-16.0,-12.0,-4.0,-7.0,1650911550902985.0
2.0,4.0,5.0,3.0,6.0,2.0,0.0,-15.0,1650911550910962.0
17.0,4.0,-1.0,-3.0,5.0,16.0,9.0,20.0,1650911550910962.0
-7.0,0.0,0.0,-3.0,-8.0,-8.0,1.0,10.0,1650911550925268.0
-4.0,-9.0,-5.0,-1.0,-6.0,-15.0,-5.0,-6.0,1650911550925268.0
10.0,17.0,7.0,9.0,5.0,12.0,5.0,4.0,1650911550926266.0
9.0,4.0,0.0,1.0,13.0,10.0,4.0,-12.0,1650911550926266.0
9.0,-7.0,2.0,7.0,7.0,14.0,16.0,35.0,1650911550949791.0
-9.0,-12.0,-12.0,-9.0,-3.0,-3.0,0.0,2.0,1650911550949791.0
4.0,12.0,5.0,2.0,-15.0,-5.0,2.0,8.0,1650911550949857.0
-19.0,-3.0,-1.0,-12.0,-13.0,-18.0,-8.0,-20.0,1650911550949857.0
1.0,-1.0,-5.0,-5.0,-11.0,0.0,-34.0,-64.0,1650911550971531.0
-5.0,-3.0,1.0,4.0,21.0,10.0,16.0,41.0,1650911550971531.0
-8.0,-23.0,-9.0,-1.0,-1.0,4.0,9.0,13.0,1650911550972529.0
4.0,8.0,6.0,8.0,18.0,1.0,0.0,4.0,1650911550972529.0
2.0,16.0,-8.0,-3.0,5.0,-2.0,5.0,-1.0,1650911550986329.0
21.0,16.0,22.0,4.0,-12.0,14.0,6.0,-1.0,1650911550986329.0
-8.0,-12.0,-8.0,-1.0,-3.0,-17.0,-8.0,-9.0,1650911550986329.0
-11.0,-6.0,-3.0,-1.0,-2.0,1.0,7.0,10.0,1650911550986329.0
1.0,-1.0,-4.0,-5.0,-3.0,-13.0,-5.0,-11.0,1650911551009555.0
36.0,3.0,-14.0,1.0,10.0,11.0,1.0,14.0,1650911551009555.0
-24.0,11.0,20.0,-1.0,0.0,19.0,4.0,2.0,1650911551009858.0
8.0,-20.0,-22.0,2.0,-2.0,-3.0,3.0,4.0,1650911551009858.0
-7.0,-2.0,21.0,7.0,-7.0,-5.0,-6.0,-12.0,1650911551031122.0
-10.0,-3.0,-22.0,-13.0,-8.0,-14.0,-8.0,-9.0,1650911551031122.0
31.0,14.0,2.0,0.0,5.0,4.0,-6.0,-15.0,1650911551032119.0
15.0,13.0,16.0,7.0,9.0,7.0,18.0,33.0,1650911551032119.0
10.0,1.0,7.0,3.0,11.0,5.0,-8.0,-7.0,1650911551046314.0
-45.0,1.0,4.0,13.0,9.0,6.0,2.0,-2.0,1650911551046314.0
-14.0,4.0,10.0,-2.0,-7.0,7.0,-2.0,-20.0,1650911551047315.0
-13.0,4.0,-3.0,-17.0,-25.0,-19.0,-26.0,-17.0,1650911551047315.0
3.0,-38.0,-14.0,-8.0,-8.0,-15.0,-5.0,-9.0,1650911551068968.0
-1.0,1.0,2.0,1.0,8.0,-7.0,-8.0,-14.0,1650911551068968.0
0.0,-3.0,-24.0,-3.0,-16.0,-3.0,-2.0,-3.0,1650911551069803.0
25.0,20.0,9.0,11.0,19.0,5.0,2.0,7.0,1650911551069803.0
-2.0,25.0,14.0,5.0,11.0,10.0,11.0,15.0,1650911551091670.0
-19.0,-36.0,-16.0,-4.0,4.0,-4.0,-7.0,-14.0,1650911551091670.0
-4.0,29.0,8.0,-1.0,-6.0,-7.0,-5.0,-8.0,1650911551092654.0
9.0,-9.0,-16.0,-1.0,-14.0,0.0,6.0,9.0,1650911551092654.0
-3.0,-13.0,-23.0,-3.0,2.0,12.0,3.0,1.0,1650911551106881.0
16.0,15.0,15.0,3.0,8.0,7.0,4.0,-7.0,1650911551106881.0
-9.0,-25.0,-2.0,-7.0,-9.0,-14.0,4.0,36.0,1650911551106881.0
-24.0,-19.0,-5.0,-15.0,-31.0,-21.0,-21.0,-47.0,1650911551106881.0
1.0,6.0,1.0,1.0,12.0,-2.0,2.0,8.0,1650911551129901.0
-10.0,2.0,-8.0,1.0,0.0,5.0,-2.0,-6.0,1650911551129901.0
12.0,15.0,27.0,14.0,25.0,9.0,8.0,8.0,1650911551129901.0
8.0,6.0,-18.0,-9.0,-10.0,-11.0,-4.0,-4.0,1650911551129901.0
-61.0,-31.0,-36.0,-16.0,-17.0,-6.0,1.0,8.0,1650911551151192.0
19.0,13.0,34.0,5.0,-4.0,-1.0,-10.0,-13.0,1650911551151192.0
37.0,-29.0,-34.0,-5.0,10.0,8.0,11.0,13.0,1650911551158008.0
-5.0,22.0,10.0,-3.0,-12.0,-3.0,-9.0,-22.0,1650911551158008.0
3.0,-2.0,-12.0,0.0,-10.0,2.0,-1.0,11.0,1650911551166305.0
-31.0,1.0,7.0,0.0,7.0,-10.0,-11.0,-17.0,1650911551166305.0
20.0,29.0,2.0,11.0,15.0,8.0,22.0,46.0,1650911551166305.0
-3.0,0.0,38.0,7.0,10.0,8.0,4.0,-2.0,1650911551166305.0
16.0,12.0,9.0,0.0,-12.0,-4.0,-3.0,-3.0,1650911551188802.0
11.0,-10.0,-23.0,-15.0,-19.0,-8.0,-7.0,-2.0,1650911551188802.0
-8.0,-6.0,2.0,-2.0,-2.0,-9.0,-4.0,0.0,1650911551189637.0
-3.0,-13.0,-6.0,-3.0,6.0,6.0,-7.0,-13.0,1650911551189637.0
22.0,27.0,31.0,12.0,4.0,6.0,3.0,4.0,1650911551212075.0
6.0,-14.0,-21.0,3.0,3.0,0.0,8.0,14.0,1650911551212075.0
-3.0,24.0,22.0,4.0,10.0,-1.0,-6.0,-15.0,1650911551212075.0
0.0,-23.0,-6.0,-6.0,-9.0,5.0,6.0,7.0,1650911551212075.0
-37.0,9.0,17.0,7.0,3.0,2.0,10.0,14.0,1650911551226102.0
11.0,-5.0,-3.0,-7.0,-5.0,-7.0,2.0,0.0,1650911551226102.0
23.0,21.0,5.0,7.0,-4.0,3.0,3.0,6.0,1650911551226102.0
-14.0,-21.0,-15.0,-3.0,5.0,-6.0,-8.0,-1.0,1650911551226102.0
20.0,11.0,-10.0,-8.0,-6.0,-4.0,5.0,4.0,1650911551250020.0
-14.0,-15.0,13.0,1.0,2.0,6.0,-2.0,-2.0,1650911551250020.0
-22.0,-7.0,0.0,-7.0,-4.0,0.0,-5.0,-21.0,1650911551250020.0
26.0,12.0,24.0,7.0,-3.0,-2.0,4.0,27.0,1650911551250020.0
8.0,7.0,-4.0,-7.0,-9.0,-6.0,-5.0,-11.0,1650911551272128.0
-27.0,15.0,-10.0,9.0,11.0,-6.0,3.0,14.0,1650911551272128.0
15.0,2.0,5.0,-2.0,10.0,2.0,-1.0,-6.0,1650911551272128.0
2.0,-25.0,-15.0,5.0,10.0,10.0,3.0,3.0,1650911551272128.0
-36.0,-1.0,-2.0,-6.0,-8.0,-5.0,-9.0,-21.0,1650911551286173.0
-6.0,15.0,13.0,-5.0,-19.0,-4.0,4.0,10.0,1650911551286173.0
-17.0,-27.0,-42.0,-7.0,-6.0,-7.0,2.0,-6.0,1650911551287008.0
8.0,23.0,5.0,1.0,3.0,-3.0,9.0,12.0,1650911551287008.0
33.0,-9.0,4.0,1.0,9.0,7.0,8.0,28.0,1650911551309972.0
4.0,1.0,10.0,2.0,0.0,3.0,-3.0,-27.0,1650911551309972.0
15.0,5.0,8.0,1.0,-1.0,2.0,2.0,12.0,1650911551309972.0
-46.0,-18.0,-14.0,-10.0,5.0,-2.0,-7.0,-15.0,1650911551309972.0
19.0,-13.0,6.0,3.0,3.0,-1.0,-7.0,-5.0,1650911551331278.0
11.0,3.0,-18.0,-1.0,2.0,4.0,7.0,14.0,1650911551331278.0
-23.0,14.0,33.0,-8.0,-20.0,-10.0,-11.0,-15.0,1650911551332276.0
-8.0,-2.0,-13.0,-5.0,-4.0,-5.0,-6.0,-4.0,1650911551332276.0
5.0,-12.0,-8.0,-5.0,-14.0,-6.0,6.0,-3.0,1650911551346352.0
-29.0,-9.0,-6.0,-3.0,-6.0,-9.0,-20.0,4.0,1650911551346352.0
-8.0,-11.0,-13.0,-1.0,1.0,9.0,2.0,-5.0,1650911551346352.0
6.0,34.0,3.0,17.0,24.0,13.0,14.0,19.0,1650911551346352.0
-11.0,-3.0,27.0,-6.0,2.0,-11.0,-6.0,-22.0,1650911551369417.0
-1.0,-18.0,-19.0,-7.0,-11.0,-9.0,-2.0,1.0,1650911551369417.0
26.0,4.0,0.0,-11.0,-6.0,-7.0,-10.0,-9.0,1650911551369417.0
-36.0,3.0,-5.0,0.0,-25.0,-7.0,0.0,-4.0,1650911551369417.0
27.0,-9.0,-29.0,11.0,22.0,1.0,0.0,12.0,1650911551392358.0
-14.0,5.0,31.0,6.0,17.0,13.0,7.0,-3.0,1650911551392358.0
-19.0,-29.0,-11.0,2.0,-2.0,1.0,6.0,13.0,1650911551392358.0
-7.0,-1.0,-6.0,-17.0,-21.0,4.0,-6.0,-17.0,1650911551392358.0
-11.0,18.0,-4.0,0.0,-16.0,-13.0,-9.0,-3.0,1650911551406196.0
11.0,-24.0,-9.0,-5.0,14.0,-4.0,1.0,-2.0,1650911551406196.0
-4.0,21.0,13.0,13.0,15.0,9.0,4.0,6.0,1650911551407159.0
5.0,-13.0,-18.0,-11.0,-4.0,-4.0,-10.0,0.0,1650911551407159.0
-15.0,-5.0,-6.0,-1.0,-6.0,3.0,0.0,-1.0,1650911551437286.0
5.0,-5.0,-6.0,-4.0,-12.0,2.0,3.0,2.0,1650911551437286.0
-10.0,-10.0,4.0,10.0,5.0,0.0,-3.0,-5.0,1650911551437286.0
27.0,-9.0,-10.0,0.0,1.0,-3.0,3.0,-8.0,1650911551437286.0
6.0,29.0,35.0,10.0,6.0,7.0,5.0,7.0,1650911551452181.0
15.0,-5.0,-26.0,-7.0,-8.0,-8.0,1.0,4.0,1650911551452181.0
11.0,4.0,6.0,-8.0,-5.0,-6.0,-6.0,-12.0,1650911551452181.0
9.0,-4.0,9.0,6.0,-3.0,4.0,1.0,2.0,1650911551452181.0
-3.0,-25.0,-28.0,-11.0,-1.0,11.0,3.0,-2.0,1650911551466343.0
11.0,35.0,27.0,5.0,2.0,-4.0,-5.0,-1.0,1650911551466343.0
-53.0,-67.0,-42.0,-14.0,-3.0,-6.0,2.0,-11.0,1650911551466343.0
-5.0,3.0,23.0,5.0,6.0,-10.0,5.0,8.0,1650911551466343.0
23.0,9.0,5.0,2.0,-9.0,0.0,0.0,-3.0,1650911551490005.0
-11.0,-20.0,-5.0,9.0,20.0,10.0,-1.0,-9.0,1650911551490005.0
1.0,19.0,5.0,-2.0,7.0,15.0,0.0,-3.0,1650911551490005.0
5.0,6.0,11.0,-1.0,-1.0,-3.0,-3.0,4.0,1650911551490005.0
-7.0,-32.0,-33.0,-9.0,-9.0,-10.0,-4.0,-5.0,1650911551511886.0
21.0,20.0,14.0,3.0,-11.0,-2.0,2.0,3.0,1650911551511886.0
8.0,6.0,14.0,-2.0,-9.0,-12.0,5.0,8.0,1650911551511886.0
-14.0,-46.0,-45.0,-8.0,-8.0,0.0,0.0,0.0,1650911551511886.0
17.0,17.0,7.0,14.0,27.0,6.0,4.0,7.0,1650911551526064.0
12.0,3.0,5.0,3.0,10.0,10.0,5.0,5.0,1650911551526064.0
8.0,13.0,-2.0,-1.0,0.0,0.0,-6.0,-4.0,1650911551534300.0
2.0,6.0,-2.0,9.0,-1.0,6.0,3.0,8.0,1650911551534300.0
30.0,10.0,14.0,-16.0,-16.0,-10.0,-6.0,1.0,1650911551549893.0
35.0,-8.0,-2.0,-2.0,-4.0,-1.0,-4.0,-17.0,1650911551549893.0
-3.0,-15.0,-5.0,-1.0,-5.0,-5.0,1.0,-2.0,1650911551549893.0
7.0,20.0,16.0,7.0,1.0,-5.0,1.0,1.0,1650911551549893.0
-37.0,-17.0,-6.0,-4.0,-8.0,-5.0,-5.0,-14.0,1650911551572312.0
25.0,21.0,8.0,2.0,9.0,10.0,8.0,-2.0,1650911551572312.0
25.0,23.0,-5.0,3.0,6.0,2.0,-3.0,23.0,1650911551572312.0
-13.0,-2.0,26.0,2.0,10.0,3.0,-2.0,-18.0,1650911551572312.0
-9.0,-15.0,-23.0,2.0,-6.0,4.0,10.0,27.0,1650911551586118.0
-23.0,-33.0,2.0,-15.0,-24.0,-11.0,-3.0,-5.0,1650911551586118.0
-11.0,6.0,-8.0,-4.0,-18.0,-15.0,-3.0,-10.0,1650911551593172.0
1.0,13.0,5.0,20.0,28.0,7.0,3.0,4.0,1650911551593172.0
-4.0,-6.0,-3.0,9.0,33.0,27.0,8.0,3.0,1650911551608992.0
-18.0,8.0,5.0,6.0,12.0,5.0,7.0,11.0,1650911551608992.0
6.0,2.0,-1.0,-11.0,-15.0,-6.0,-1.0,-2.0,1650911551609987.0
-9.0,5.0,8.0,-5.0,-11.0,-1.0,-1.0,-3.0,1650911551609987.0
25.0,0.0,-2.0,-10.0,-22.0,-18.0,-11.0,-14.0,1650911551630997.0
-35.0,-17.0,-11.0,-10.0,-12.0,-5.0,-8.0,-8.0,1650911551630997.0
9.0,-5.0,-4.0,3.0,8.0,6.0,5.0,9.0,1650911551631994.0
30.0,11.0,3.0,9.0,2.0,4.0,3.0,6.0,1650911551631994.0
-30.0,4.0,2.0,-5.0,6.0,-5.0,-4.0,-5.0,1650911551645260.0
-2.0,22.0,6.0,6.0,-6.0,5.0,1.0,6.0,1650911551645260.0
6.0,12.0,14.0,1.0,11.0,9.0,-5.0,-12.0,1650911551653444.0
-12.0,-28.0,-20.0,-3.0,-2.0,5.0,9.0,10.0,1650911551653444.0
-21.0,10.0,9.0,5.0,12.0,9.0,-4.0,-10.0,1650911551668766.0
28.0,15.0,18.0,-8.0,-19.0,-9.0,7.0,19.0,1650911551668766.0
5.0,18.0,-1.0,3.0,-17.0,-16.0,-7.0,-7.0,1650911551669622.0
-8.0,-21.0,-6.0,-1.0,19.0,5.0,-7.0,-14.0,1650911551669622.0
-2.0,7.0,10.0,11.0,14.0,5.0,0.0,6.0,1650911551691096.0
-3.0,4.0,1.0,2.0,11.0,1.0,-8.0,-11.0,1650911551691096.0
5.0,-17.0,-10.0,-1.0,-10.0,3.0,1.0,5.0,1650911551692065.0
13.0,29.0,5.0,-7.0,-13.0,-8.0,4.0,13.0,1650911551692065.0
-19.0,-1.0,15.0,6.0,-6.0,5.0,9.0,3.0,1650911551714004.0
-42.0,-21.0,-16.0,-9.0,-14.0,-4.0,-2.0,-2.0,1650911551714004.0
2.0,2.0,1.0,5.0,19.0,16.0,12.0,13.0,1650911551715002.0
12.0,2.0,6.0,5.0,15.0,1.0,0.0,7.0,1650911551715002.0
-8.0,-8.0,-4.0,-9.0,-20.0,-15.0,-7.0,-11.0,1650911551728965.0
18.0,19.0,2.0,8.0,13.0,2.0,2.0,2.0,1650911551728965.0
-20.0,2.0,5.0,9.0,16.0,19.0,7.0,8.0,1650911551729962.0
14.0,-4.0,14.0,-12.0,-17.0,-7.0,-5.0,-9.0,1650911551729962.0
31.0,1.0,-2.0,0.0,-3.0,-11.0,-6.0,-10.0,1650911551750932.0
-10.0,-19.0,-48.0,-8.0,-22.0,3.0,5.0,1.0,1650911551750932.0
0.0,12.0,22.0,1.0,-4.0,-11.0,1.0,9.0,1650911551751903.0
24.0,3.0,13.0,15.0,24.0,14.0,9.0,12.0,1650911551751903.0
-54.0,-22.0,-14.0,-7.0,5.0,1.0,-7.0,-13.0,1650911551764904.0
10.0,-9.0,-2.0,-4.0,-3.0,-6.0,-14.0,-17.0,1650911551764904.0
-14.0,8.0,21.0,4.0,0.0,1.0,-10.0,-22.0,1650911551772882.0
8.0,-27.0,-88.0,-32.0,-28.0,-13.0,-7.0,4.0,1650911551772882.0
18.0,21.0,27.0,4.0,-21.0,-8.0,0.0,11.0,1650911551788804.0
-12.0,-13.0,3.0,10.0,32.0,-1.0,-6.0,-5.0,1650911551788804.0
-10.0,-11.0,-3.0,12.0,27.0,18.0,5.0,4.0,1650911551789802.0
-26.0,17.0,-1.0,-4.0,4.0,1.0,-1.0,-3.0,1650911551789802.0
15.0,3.0,0.0,2.0,-4.0,1.0,3.0,1.0,1650911551811746.0
-10.0,-27.0,-29.0,-18.0,-38.0,-22.0,-3.0,-4.0,1650911551811746.0
19.0,2.0,-4.0,-6.0,-8.0,-16.0,-12.0,-13.0,1650911551811746.0
-25.0,0.0,0.0,5.0,13.0,8.0,2.0,-15.0,1650911551811746.0
9.0,12.0,23.0,11.0,20.0,19.0,9.0,18.0,1650911551824708.0
17.0,15.0,12.0,-1.0,-2.0,-8.0,-7.0,-2.0,1650911551824708.0
-3.0,-24.0,-24.0,-10.0,-16.0,1.0,-5.0,-14.0,1650911551833718.0
-10.0,2.0,7.0,-4.0,-15.0,-7.0,-2.0,-6.0,1650911551833718.0
-5.0,10.0,3.0,7.0,12.0,-2.0,-6.0,-9.0,1650911551848645.0
-2.0,33.0,26.0,6.0,-1.0,10.0,7.0,11.0,1650911551848645.0
-12.0,-52.0,-45.0,-10.0,-14.0,-10.0,-4.0,-13.0,1650911551849642.0
-3.0,-6.0,23.0,1.0,19.0,0.0,-1.0,11.0,1650911551849642.0
20.0,2.0,-15.0,1.0,2.0,-5.0,-1.0,-7.0,1650911551872003.0
2.0,28.0,-2.0,5.0,4.0,7.0,4.0,1.0,1650911551872003.0
17.0,-21.0,-15.0,-14.0,-18.0,1.0,2.0,12.0,1650911551872003.0
-6.0,24.0,31.0,9.0,6.0,8.0,11.0,30.0,1650911551872003.0
6.0,-15.0,-16.0,-7.0,6.0,-3.0,-8.0,-21.0,1650911551894572.0
2.0,4.0,0.0,-1.0,-5.0,-4.0,0.0,-1.0,1650911551894572.0
32.0,34.0,12.0,2.0,-1.0,-5.0,3.0,2.0,1650911551894572.0
-4.0,-23.0,6.0,1.0,-8.0,-7.0,6.0,6.0,1650911551894572.0
6.0,23.0,13.0,0.0,4.0,0.0,4.0,7.0,1650911551909754.0
7.0,-3.0,2.0,2.0,1.0,-1.0,0.0,2.0,1650911551909754.0
-2.0,-1.0,-1.0,-3.0,6.0,-3.0,-1.0,-4.0,1650911551909881.0
4.0,10.0,6.0,0.0,-8.0,-1.0,-8.0,-12.0,1650911551909881.0
-8.0,-2.0,5.0,6.0,3.0,9.0,-2.0,-11.0,1650911551931825.0
17.0,6.0,20.0,13.0,20.0,9.0,12.0,2.0,1650911551931825.0
-40.0,-9.0,1.0,-4.0,-5.0,0.0,8.0,20.0,1650911551932823.0
7.0,-7.0,-15.0,-7.0,-19.0,-12.0,-8.0,-12.0,1650911551932823.0
14.0,-1.0,-6.0,-14.0,-20.0,1.0,-2.0,6.0,1650911551955084.0
8.0,-9.0,5.0,1.0,7.0,-10.0,-7.0,-6.0,1650911551955084.0
5.0,14.0,15.0,7.0,5.0,7.0,5.0,8.0,1650911551955168.0
-9.0,-2.0,-3.0,2.0,4.0,2.0,-1.0,-5.0,1650911551955168.0
-5.0,-2.0,-3.0,-1.0,-10.0,-2.0,-3.0,-3.0,1650911551968309.0
2.0,-4.0,-3.0,-4.0,6.0,0.0,5.0,13.0,1650911551968309.0
-6.0,0.0,-1.0,0.0,-6.0,-2.0,-4.0,-3.0,1650911551977474.0
2.0,1.0,-5.0,4.0,9.0,7.0,-5.0,-4.0,1650911551977474.0
1.0,-5.0,-9.0,-4.0,7.0,-3.0,2.0,5.0,1650911551991620.0
-18.0,-9.0,-5.0,-1.0,-1.0,-5.0,-5.0,-5.0,1650911551991620.0
-1.0,-3.0,1.0,-2.0,-9.0,-11.0,-4.0,-6.0,1650911551992513.0
1.0,6.0,-3.0,-1.0,-15.0,7.0,0.0,0.0,1650911551992513.0
-3.0,-5.0,-1.0,6.0,19.0,5.0,4.0,5.0,1650911552013778.0
-7.0,-2.0,2.0,2.0,22.0,7.0,1.0,-2.0,1650911552013778.0
-1.0,3.0,-2.0,-5.0,-26.0,8.0,-3.0,-4.0,1650911552015803.0
5.0,1.0,-2.0,-1.0,-3.0,-30.0,-4.0,-1.0,1650911552015803.0
-3.0,-3.0,1.0,0.0,13.0,13.0,6.0,4.0,1650911552037294.0
-5.0,-5.0,-8.0,1.0,1.0,5.0,0.0,1.0,1650911552037294.0
2.0,2.0,-4.0,-5.0,1.0,-3.0,-3.0,-2.0,1650911552038134.0
-6.0,0.0,-1.0,-4.0,-10.0,-4.0,-3.0,-4.0,1650911552038134.0
-3.0,-7.0,-4.0,-6.0,-22.0,-4.0,-1.0,1.0,1650911552052178.0
-4.0,2.0,3.0,2.0,-2.0,6.0,-2.0,-2.0,1650911552052178.0
-1.0,-2.0,2.0,6.0,19.0,-2.0,1.0,-4.0,1650911552053018.0
0.0,1.0,0.0,2.0,-5.0,5.0,0.0,0.0,1650911552053018.0
-1.0,1.0,-2.0,5.0,7.0,0.0,0.0,0.0,1650911552074360.0
1.0,1.0,5.0,-2.0,6.0,-1.0,0.0,1.0,1650911552074360.0
-4.0,-2.0,-10.0,-10.0,-30.0,-1.0,-3.0,-4.0,1650911552076415.0
-3.0,-3.0,-18.0,-9.0,4.0,-24.0,-4.0,-5.0,1650911552076415.0
1.0,-1.0,5.0,5.0,3.0,-1.0,1.0,4.0,1650911552087306.0
-1.0,0.0,3.0,9.0,1.0,9.0,1.0,0.0,1650911552087306.0
10.0,3.0,10.0,11.0,26.0,15.0,4.0,-1.0,1650911552102514.0
-17.0,-3.0,-4.0,-1.0,7.0,12.0,1.0,0.0,1650911552102514.0
-3.0,-4.0,-8.0,-14.0,-18.0,-9.0,-3.0,-3.0,1650911552112192.0
-4.0,-1.0,-3.0,-4.0,-13.0,-10.0,-3.0,-1.0,1650911552112192.0
2.0,2.0,-4.0,-4.0,-1.0,-10.0,-2.0,5.0,1650911552113022.0
8.0,5.0,9.0,11.0,0.0,10.0,-1.0,-1.0,1650911552113022.0
-2.0,-6.0,-5.0,-9.0,-7.0,-3.0,-2.0,0.0,1650911552134947.0
-6.0,-4.0,-9.0,-12.0,-10.0,-5.0,-2.0,-2.0,1650911552134947.0
-1.0,0.0,1.0,7.0,7.0,-11.0,-2.0,0.0,1650911552135036.0
0.0,0.0,7.0,1.0,7.0,2.0,-2.0,-1.0,1650911552135036.0
-3.0,-1.0,-6.0,-3.0,-14.0,27.0,3.0,0.0,1650911552147249.0
2.0,-1.0,2.0,7.0,17.0,-4.0,2.0,1.0,1650911552147249.0
1.0,0.0,1.0,6.0,19.0,1.0,1.0,3.0,1650911552156368.0
0.0,4.0,12.0,-2.0,-9.0,-2.0,0.0,-1.0,1650911552156368.0
2.0,-1.0,-9.0,-3.0,-5.0,-15.0,-1.0,-1.0,1650911552171401.0
-2.0,-1.0,1.0,-5.0,-15.0,7.0,-3.0,-1.0,1650911552171401.0
-1.0,3.0,2.0,4.0,15.0,-5.0,3.0,0.0,1650911552173294.0
1.0,-3.0,-8.0,2.0,7.0,4.0,0.0,-1.0,1650911552173294.0
11.0,1.0,9.0,-1.0,-12.0,0.0,-2.0,0.0,1650911552194450.0
-9.0,-5.0,-5.0,-4.0,-9.0,-9.0,-2.0,-1.0,1650911552194450.0
-4.0,-5.0,-17.0,-19.0,-23.0,-13.0,-5.0,-6.0,1650911552195451.0
0.0,0.0,-2.0,-3.0,2.0,5.0,0.0,-3.0,1650911552195451.0
3.0,-1.0,-5.0,5.0,18.0,9.0,2.0,1.0,1650911552208756.0
2.0,0.0,16.0,8.0,8.0,1.0,-1.0,-1.0,1650911552208756.0
1.0,4.0,18.0,12.0,2.0,8.0,-1.0,1.0,1650911552215361.0
0.0,-9.0,-37.0,-32.0,-12.0,-6.0,1.0,-2.0,1650911552215361.0
-4.0,2.0,2.0,6.0,-9.0,-13.0,-3.0,1.0,1650911552231417.0
3.0,0.0,8.0,8.0,2.0,8.0,0.0,-1.0,1650911552231417.0
-6.0,-6.0,-28.0,-16.0,2.0,-10.0,-1.0,-3.0,1650911552233316.0
-2.0,3.0,10.0,11.0,-9.0,-5.0,0.0,4.0,1650911552233316.0
18.0,6.0,24.0,18.0,26.0,10.0,2.0,2.0,1650911552254343.0
-3.0,-2.0,-2.0,1.0,8.0,-6.0,0.0,2.0,1650911552254343.0
7.0,-2.0,-14.0,-19.0,-33.0,0.0,-3.0,0.0,1650911552255343.0
-17.0,1.0,14.0,8.0,4.0,-2.0,0.0,-1.0,1650911552255343.0
-3.0,-5.0,-21.0,-11.0,-5.0,-4.0,0.0,0.0,1650911552267628.0
2.0,1.0,8.0,5.0,5.0,10.0,0.0,-1.0,1650911552267628.0
1.0,2.0,3.0,4.0,-1.0,2.0,2.0,-1.0,1650911552276553.0
4.0,1.0,9.0,7.0,5.0,8.0,1.0,4.0,1650911552276553.0
-11.0,-4.0,-21.0,-16.0,-1.0,-16.0,-2.0,-1.0,1650911552291875.0
-2.0,-3.0,-8.0,-4.0,15.0,2.0,-2.0,-1.0,1650911552291875.0
-6.0,-2.0,12.0,8.0,-10.0,8.0,3.0,1.0,1650911552292843.0
7.0,3.0,-2.0,1.0,-4.0,3.0,0.0,-1.0,1650911552292843.0
-5.0,-2.0,27.0,9.0,-8.0,-4.0,-1.0,0.0,1650911552313817.0
3.0,-4.0,-27.0,-9.0,-12.0,-9.0,-4.0,-2.0,1650911552313817.0
-2.0,0.0,-2.0,-13.0,-1.0,-3.0,-5.0,-1.0,1650911552315816.0
3.0,-1.0,8.0,7.0,-9.0,-6.0,-2.0,-1.0,1650911552315816.0
-2.0,1.0,1.0,8.0,32.0,10.0,2.0,-2.0,1650911552328017.0
-1.0,1.0,4.0,1.0,11.0,4.0,4.0,3.0,1650911552328017.0
-1.0,-2.0,-10.0,-4.0,-2.0,-2.0,1.0,-1.0,1650911552336829.0
0.0,0.0,-7.0,-7.0,-8.0,-4.0,-3.0,-2.0,1650911552336829.0
-5.0,-1.0,6.0,-3.0,-16.0,-8.0,-5.0,-2.0,1650911552351146.0
-6.0,-3.0,-14.0,-11.0,-21.0,-6.0,-3.0,-4.0,1650911552351146.0
-1.0,2.0,21.0,8.0,-4.0,-6.0,-3.0,2.0,1650911552353029.0
1.0,-1.0,-11.0,0.0,18.0,20.0,4.0,0.0,1650911552353029.0
6.0,1.0,15.0,8.0,14.0,6.0,2.0,0.0,1650911552374392.0
1.0,8.0,11.0,6.0,-7.0,-2.0,1.0,3.0,1650911552374392.0
-3.0,-7.0,-15.0,-6.0,3.0,-7.0,-4.0,-4.0,1650911552375392.0
-1.0,-1.0,4.0,-5.0,-29.0,-17.0,-4.0,0.0,1650911552375392.0
-1.0,-3.0,-8.0,-6.0,-11.0,-4.0,-1.0,0.0,1650911552387837.0
2.0,0.0,11.0,13.0,38.0,24.0,2.0,-1.0,1650911552387837.0
-1.0,0.0,-14.0,-4.0,15.0,7.0,2.0,1.0,1650911552397015.0
1.0,1.0,8.0,3.0,-6.0,3.0,-1.0,0.0,1650911552397015.0
-3.0,2.0,3.0,1.0,-22.0,-19.0,-1.0,-1.0,1650911552412374.0
-1.0,-1.0,-2.0,-4.0,-5.0,-1.0,-1.0,-2.0,1650911552412374.0
-2.0,-1.0,1.0,7.0,13.0,11.0,3.0,0.0,1650911552413373.0
1.0,-1.0,13.0,2.0,10.0,5.0,0.0,-3.0,1650911552413373.0
-4.0,-2.0,-7.0,-9.0,-12.0,-7.0,-2.0,-1.0,1650911552433549.0
-1.0,1.0,1.0,-4.0,-20.0,-19.0,-4.0,-4.0,1650911552433549.0
-1.0,-2.0,3.0,1.0,2.0,1.0,-3.0,-2.0,1650911552435544.0
0.0,0.0,-6.0,2.0,29.0,11.0,2.0,1.0,1650911552435544.0
-2.0,2.0,-1.0,2.0,-2.0,11.0,3.0,2.0,1650911552447741.0
0.0,-1.0,-6.0,-4.0,-2.0,-4.0,0.0,0.0,1650911552447741.0
-1.0,2.0,20.0,16.0,-9.0,-5.0,-2.0,0.0,1650911552456864.0
0.0,-3.0,-15.0,-12.0,-4.0,-8.0,-4.0,-3.0,1650911552456864.0
-6.0,-6.0,-8.0,-5.0,17.0,-6.0,-5.0,-4.0,1650911552471704.0
1.0,0.0,-2.0,-1.0,-11.0,-2.0,0.0,3.0,1650911552471704.0
1.0,-1.0,5.0,0.0,-5.0,-11.0,0.0,-1.0,1650911552472668.0
5.0,7.0,13.0,14.0,5.0,-5.0,0.0,1.0,1650911552472668.0
0.0,1.0,-1.0,-1.0,3.0,11.0,3.0,0.0,1650911552494901.0
-4.0,-7.0,-11.0,-8.0,5.0,6.0,-2.0,-1.0,1650911552494901.0
0.0,3.0,8.0,8.0,29.0,6.0,3.0,2.0,1650911552495705.0
-2.0,-8.0,-19.0,-18.0,-18.0,0.0,-4.0,-3.0,1650911552495705.0
2.0,3.0,3.0,1.0,-4.0,-6.0,-2.0,0.0,1650911552508058.0
-3.0,-2.0,0.0,-11.0,-47.0,-11.0,-4.0,-2.0,1650911552508058.0
-1.0,1.0,7.0,2.0,-13.0,-1.0,-1.0,0.0,1650911552516894.0
0.0,4.0,2.0,10.0,18.0,-1.0,3.0,1.0,1650911552516894.0
-2.0,-3.0,-13.0,-8.0,-4.0,3.0,0.0,0.0,1650911552531854.0
0.0,1.0,15.0,11.0,19.0,15.0,4.0,0.0,1650911552531854.0
2.0,0.0,-9.0,-4.0,9.0,-3.0,2.0,0.0,1650911552532854.0
-3.0,-4.0,-7.0,-9.0,-16.0,-3.0,-2.0,0.0,1650911552532854.0
-1.0,-1.0,-2.0,0.0,1.0,-7.0,-2.0,-2.0,1650911552554257.0
-1.0,1.0,2.0,-2.0,-5.0,-8.0,-3.0,0.0,1650911552554257.0
-2.0,-2.0,-5.0,-9.0,-9.0,2.0,-3.0,0.0,1650911552555132.0
