,EMG_s0,EMG_s1,EMG_s2,EMG_s3,EMG_s4,EMG_s5,EMG_s6,EMG_s7,timestamp,signal
0,0.0,-3.0,-17.0,-1.0,-2.0,-1.0,0.0,0.0,1651072418210441.0,0
1,0.0,0.0,1.0,1.0,-3.0,-2.0,0.0,0.0,1651072418210441.0,0
2,0.0,-4.0,0.0,-1.0,-2.0,-1.0,1.0,1.0,1651072418211383.0,0
3,-2.0,2.0,-1.0,2.0,0.0,0.0,0.0,1.0,1651072418211383.0,0
4,-2.0,0.0,5.0,1.0,1.0,1.0,-1.0,0.0,1651072418224403.0,0
5,2.0,0.0,-1.0,-5.0,-7.0,-2.0,-2.0,-2.0,1651072418224403.0,0
6,-1.0,0.0,-5.0,-2.0,2.0,0.0,-2.0,0.0,1651072418231384.0,0
7,0.0,2.0,5.0,-2.0,5.0,-2.0,-1.0,-1.0,1651072418231384.0,0
8,-1.0,-1.0,3.0,-1.0,-7.0,0.0,-1.0,-3.0,1651072418247275.0,0
9,-2.0,-6.0,-4.0,3.0,6.0,-1.0,1.0,0.0,1651072418247275.0,0
10,1.0,2.0,3.0,-1.0,-4.0,0.0,0.0,0.0,1651072418249269.0,0
11,0.0,5.0,7.0,7.0,3.0,1.0,0.0,-1.0,1651072418249269.0,0
12,1.0,1.0,-4.0,-5.0,-1.0,1.0,0.0,-1.0,1651072418270104.0,0
13,0.0,1.0,-5.0,1.0,-4.0,-1.0,1.0,-1.0,1651072418270104.0,0
14,-1.0,3.0,2.0,-1.0,3.0,0.0,0.0,0.0,1651072418272131.0,0
15,1.0,-5.0,4.0,-6.0,-6.0,2.0,1.0,0.0,1651072418272131.0,0
16,0.0,2.0,4.0,11.0,1.0,-5.0,0.0,0.0,1651072418284068.0,0
17,-2.0,-2.0,-5.0,0.0,1.0,-1.0,-2.0,-1.0,1651072418284068.0,0
18,0.0,-1.0,0.0,2.0,1.0,-1.0,-1.0,-1.0,1651072418291117.0,0
19,-2.0,0.0,-2.0,-5.0,-1.0,0.0,1.0,0.0,1651072418291117.0,0
20,0.0,-1.0,1.0,1.0,-3.0,0.0,0.0,0.0,1651072418308128.0,0
21,0.0,1.0,2.0,-5.0,-8.0,-3.0,-2.0,-1.0,1651072418308128.0,0
22,-1.0,-1.0,2.0,1.0,5.0,-2.0,-2.0,0.0,1651072418309131.0,0
23,-1.0,0.0,0.0,5.0,-1.0,1.0,0.0,-1.0,1651072418309131.0,0
24,0.0,-4.0,-4.0,4.0,2.0,0.0,1.0,-2.0,1651072418330521.0,0
25,-2.0,2.0,1.0,-6.0,-3.0,-2.0,0.0,-2.0,1651072418330521.0,0
26,0.0,-2.0,-5.0,-3.0,2.0,0.0,0.0,0.0,1651072418331221.0,0
27,-1.0,-2.0,-6.0,3.0,5.0,-2.0,-2.0,-3.0,1651072418331221.0,0
28,0.0,4.0,5.0,1.0,-6.0,-2.0,0.0,1.0,1651072418344278.0,0
29,-1.0,1.0,4.0,-10.0,-9.0,-2.0,-1.0,0.0,1651072418344278.0,0
30,1.0,-5.0,-16.0,2.0,9.0,3.0,0.0,-2.0,1651072418351170.0,0
31,-2.0,-8.0,-16.0,1.0,2.0,0.0,0.0,-2.0,1651072418351170.0,0
32,0.0,1.0,-7.0,-1.0,3.0,2.0,-2.0,-1.0,1651072418367172.0,0
33,-1.0,-4.0,2.0,-1.0,-6.0,-3.0,-2.0,0.0,1651072418367172.0,0
34,0.0,1.0,7.0,-3.0,-2.0,0.0,-3.0,-1.0,1651072418369202.0,0
35,-2.0,1.0,-1.0,2.0,1.0,-1.0,-2.0,1.0,1651072418369202.0,0
36,-1.0,2.0,6.0,-5.0,-5.0,-2.0,-1.0,-1.0,1651072418390523.0,0
37,-1.0,-3.0,-9.0,0.0,4.0,0.0,-1.0,1.0,1651072418390523.0,0
38,0.0,-1.0,-2.0,-7.0,-1.0,0.0,-1.0,1.0,1651072418391205.0,0
39,-1.0,0.0,4.0,16.0,-1.0,-3.0,-2.0,-1.0,1651072418391205.0,0
40,0.0,1.0,9.0,-2.0,-1.0,-1.0,0.0,1.0,1651072418404259.0,0
41,-1.0,1.0,-5.0,2.0,1.0,2.0,1.0,1.0,1651072418404259.0,0
42,-2.0,2.0,9.0,3.0,0.0,1.0,0.0,-3.0,1651072418411242.0,0
43,-2.0,-3.0,0.0,-11.0,-10.0,-3.0,-2.0,-1.0,1651072418411242.0,0
44,-1.0,-2.0,-7.0,2.0,2.0,3.0,-1.0,-1.0,1651072418427349.0,0
45,-1.0,1.0,10.0,3.0,4.0,0.0,-1.0,0.0,1651072418427349.0,0
46,1.0,5.0,5.0,2.0,-3.0,0.0,0.0,1.0,1651072418429344.0,0
47,2.0,-5.0,-9.0,-8.0,-5.0,0.0,-1.0,0.0,1651072418429344.0,0
48,-3.0,-3.0,4.0,1.0,-4.0,-3.0,-3.0,-2.0,1651072418450326.0,0
49,0.0,4.0,3.0,-2.0,-2.0,0.0,1.0,-1.0,1651072418450326.0,0
50,-1.0,-8.0,-20.0,-5.0,-6.0,0.0,-1.0,-2.0,1651072418451277.0,0
51,-2.0,3.0,7.0,-6.0,13.0,4.0,0.0,0.0,1651072418451277.0,0
52,-1.0,-3.0,-1.0,16.0,8.0,2.0,0.0,0.0,1651072418464288.0,0
53,1.0,-1.0,-3.0,-3.0,1.0,0.0,-1.0,0.0,1651072418464288.0,0
54,-1.0,-5.0,2.0,5.0,-6.0,-3.0,-1.0,-2.0,1651072418471364.0,0
55,-1.0,-1.0,-9.0,-4.0,-4.0,0.0,-1.0,-1.0,1651072418471364.0,0
56,0.0,-1.0,0.0,-9.0,-2.0,-1.0,0.0,-1.0,1651072418487762.0,0
57,-1.0,-3.0,-5.0,4.0,0.0,1.0,0.0,-1.0,1651072418487762.0,0
58,0.0,1.0,5.0,-1.0,-5.0,-1.0,0.0,0.0,1651072418489711.0,0
59,1.0,-2.0,-10.0,-4.0,0.0,-2.0,-2.0,0.0,1651072418489711.0,0
60,0.0,5.0,19.0,0.0,1.0,0.0,0.0,0.0,1651072418509747.0,0
61,0.0,-4.0,-9.0,3.0,1.0,-2.0,-1.0,-2.0,1651072418509747.0,0
62,-1.0,-2.0,0.0,-1.0,0.0,-2.0,-1.0,-1.0,1651072418511726.0,0
63,-1.0,0.0,-1.0,3.0,-1.0,2.0,-1.0,0.0,1651072418511726.0,0
64,-2.0,-2.0,-10.0,-6.0,-3.0,0.0,0.0,0.0,1651072418532833.0,0
65,-3.0,-1.0,2.0,2.0,2.0,0.0,-1.0,-2.0,1651072418532833.0,0
66,-1.0,0.0,4.0,0.0,-4.0,0.0,-1.0,0.0,1651072418534707.0,0
67,1.0,4.0,5.0,2.0,5.0,2.0,1.0,1.0,1651072418534707.0,0
68,-1.0,-2.0,-3.0,-3.0,-5.0,-3.0,2.0,0.0,1651072418547789.0,0
69,1.0,-4.0,-3.0,-6.0,0.0,-2.0,-1.0,1.0,1651072418547789.0,0
70,-2.0,1.0,-3.0,11.0,0.0,-1.0,-1.0,0.0,1651072418548742.0,0
71,0.0,1.0,2.0,-3.0,-3.0,-3.0,0.0,1.0,1651072418548742.0,0
72,-3.0,-8.0,-18.0,-3.0,2.0,-1.0,-1.0,-2.0,1651072418569880.0,0
73,0.0,-5.0,-9.0,-2.0,1.0,1.0,-1.0,-2.0,1651072418569880.0,0
74,0.0,0.0,2.0,-1.0,1.0,-1.0,1.0,0.0,1651072418569880.0,0
75,0.0,-1.0,-3.0,-3.0,-4.0,1.0,0.0,-2.0,1651072418569880.0,0
76,1.0,1.0,0.0,-9.0,-1.0,1.0,-1.0,-3.0,1651072418591693.0,0
77,-1.0,0.0,7.0,8.0,-2.0,1.0,0.0,-2.0,1651072418591693.0,0
78,-3.0,-2.0,-12.0,-1.0,-5.0,0.0,-1.0,-1.0,1651072418592693.0,0
79,-2.0,4.0,11.0,2.0,9.0,2.0,0.0,0.0,1651072418592693.0,0
80,0.0,2.0,-3.0,-3.0,8.0,4.0,1.0,1.0,1651072418606724.0,0
81,-1.0,-2.0,-6.0,-1.0,-6.0,-2.0,-1.0,1.0,1651072418606724.0,0
82,0.0,-2.0,6.0,-1.0,1.0,-5.0,-1.0,-1.0,1651072418607653.0,0
83,0.0,2.0,5.0,3.0,2.0,3.0,0.0,-1.0,1651072418607653.0,0
84,0.0,1.0,1.0,-2.0,-5.0,-4.0,-1.0,-2.0,1651072418629846.0,0
85,-2.0,-3.0,-7.0,-6.0,6.0,1.0,0.0,-2.0,1651072418629846.0,0
86,0.0,1.0,-3.0,-5.0,-3.0,-3.0,1.0,0.0,1651072418629846.0,0
87,-3.0,-2.0,-2.0,3.0,-9.0,-6.0,-2.0,0.0,1651072418629846.0,0
88,1.0,0.0,0.0,-2.0,4.0,0.0,1.0,-1.0,1651072418652449.0,0
89,-2.0,2.0,2.0,1.0,-3.0,1.0,-1.0,-1.0,1651072418652449.0,0
90,1.0,-2.0,0.0,-2.0,-9.0,1.0,0.0,-2.0,1651072418652449.0,0
91,-1.0,-2.0,2.0,0.0,5.0,-2.0,0.0,-1.0,1651072418652449.0,0
92,0.0,6.0,17.0,5.0,0.0,-1.0,-2.0,0.0,1651072418667429.0,0
93,-2.0,-7.0,-17.0,-5.0,-2.0,-4.0,0.0,0.0,1651072418667429.0,0
94,-1.0,0.0,-2.0,-4.0,1.0,1.0,1.0,-2.0,1651072418667429.0,0
95,-2.0,0.0,3.0,9.0,1.0,-1.0,1.0,-3.0,1651072418667429.0,0
96,-1.0,0.0,1.0,-1.0,-6.0,-3.0,-1.0,-1.0,1651072418689907.0,0
97,0.0,1.0,-2.0,-2.0,3.0,1.0,1.0,-1.0,1651072418689907.0,0
98,0.0,2.0,4.0,-6.0,4.0,4.0,-2.0,0.0,1651072418689907.0,0
99,0.0,-1.0,-5.0,-3.0,-3.0,-2.0,-1.0,1.0,1651072418689907.0,0
100,-1.0,-1.0,-1.0,3.0,-5.0,-3.0,-2.0,-1.0,1651072418711448.0,0
101,0.0,7.0,20.0,0.0,9.0,5.0,2.0,2.0,1651072418711448.0,0
102,-1.0,-5.0,-11.0,4.0,4.0,-1.0,0.0,0.0,1651072418712452.0,0
103,1.0,3.0,8.0,0.0,-4.0,-1.0,-1.0,1.0,1651072418712452.0,0
104,-3.0,-2.0,-10.0,0.0,-1.0,-1.0,1.0,-2.0,1651072418727423.0,0
105,2.0,4.0,5.0,-4.0,-4.0,-1.0,0.0,0.0,1651072418727423.0,0
106,-1.0,-5.0,7.0,-4.0,-3.0,-2.0,0.0,0.0,1651072418727423.0,0
107,0.0,0.0,-5.0,-1.0,1.0,-1.0,-2.0,-2.0,1651072418727423.0,0
108,-1.0,-2.0,-3.0,-1.0,1.0,0.0,0.0,-1.0,1651072418749571.0,0
109,-1.0,-3.0,-5.0,2.0,4.0,1.0,0.0,-2.0,1651072418749571.0,0
110,0.0,3.0,3.0,-5.0,2.0,-1.0,-1.0,-1.0,1651072418750528.0,0
111,0.0,-2.0,-3.0,8.0,-6.0,-3.0,-1.0,-1.0,1651072418750528.0,0
112,0.0,0.0,0.0,0.0,3.0,3.0,-2.0,-1.0,1651072418780623.0,0
113,0.0,0.0,2.0,0.0,-3.0,-1.0,-2.0,0.0,1651072418780623.0,0
114,0.0,3.0,4.0,-1.0,-9.0,-3.0,-3.0,-1.0,1651072418780623.0,0
115,-1.0,-7.0,-19.0,-9.0,-3.0,-4.0,0.0,0.0,1651072418780623.0,0
116,1.0,1.0,-7.0,10.0,23.0,8.0,4.0,2.0,1651072418786624.0,0
117,-1.0,1.0,10.0,4.0,1.0,2.0,0.0,0.0,1651072418786624.0,0
118,0.0,0.0,-7.0,-3.0,-1.0,0.0,0.0,-1.0,1651072418787593.0,0
119,0.0,5.0,23.0,-3.0,-6.0,-2.0,-1.0,0.0,1651072418787593.0,0
120,-1.0,-2.0,-4.0,-4.0,-11.0,-5.0,-1.0,-1.0,1651072418817965.0,0
121,0.0,-1.0,-7.0,-3.0,1.0,1.0,0.0,0.0,1651072418817965.0,0
122,1.0,1.0,5.0,0.0,-1.0,-1.0,0.0,-1.0,1651072418817965.0,0
123,0.0,2.0,-3.0,-1.0,0.0,1.0,1.0,-2.0,1651072418817965.0,0
124,-1.0,-4.0,4.0,-1.0,-4.0,0.0,-2.0,-1.0,1651072418831996.0,0
125,1.0,0.0,-7.0,-1.0,-3.0,-3.0,-1.0,-1.0,1651072418831996.0,0
126,-2.0,0.0,1.0,4.0,5.0,1.0,1.0,-1.0,1651072418832926.0,0
127,-1.0,-2.0,-4.0,-1.0,6.0,1.0,0.0,-3.0,1651072418832926.0,0
128,0.0,-1.0,2.0,-2.0,-3.0,-1.0,-1.0,-1.0,1651072418854353.0,0
129,-1.0,-3.0,-6.0,-5.0,-5.0,1.0,-2.0,-1.0,1651072418854353.0,0
130,-3.0,-2.0,-2.0,-2.0,2.0,1.0,0.0,0.0,1651072418855277.0,0
131,0.0,-1.0,5.0,-3.0,-1.0,-1.0,-1.0,0.0,1651072418855277.0,0
132,-1.0,-1.0,2.0,4.0,0.0,-1.0,0.0,-2.0,1651072418868310.0,0
133,0.0,4.0,9.0,1.0,-1.0,-2.0,0.0,0.0,1651072418868310.0,0
134,1.0,3.0,7.0,2.0,2.0,0.0,0.0,0.0,1651072418877285.0,0
135,-4.0,-13.0,-24.0,-8.0,2.0,0.0,-1.0,-1.0,1651072418877285.0,0
136,0.0,2.0,7.0,-3.0,-9.0,-2.0,-1.0,-1.0,1651072418891474.0,0
137,0.0,4.0,0.0,1.0,2.0,0.0,1.0,0.0,1651072418891474.0,0
138,0.0,-4.0,-10.0,-1.0,-1.0,-1.0,-2.0,-1.0,1651072418892444.0,0
139,0.0,-2.0,-10.0,2.0,0.0,1.0,0.0,-2.0,1651072418892444.0,0
140,1.0,3.0,17.0,1.0,2.0,2.0,-1.0,-1.0,1651072418922899.0,0
141,-1.0,-3.0,-5.0,-11.0,-10.0,-5.0,-2.0,-3.0,1651072418922899.0,0
142,0.0,0.0,1.0,-4.0,-6.0,-3.0,1.0,0.0,1651072418922899.0,0
143,0.0,-2.0,10.0,22.0,26.0,11.0,3.0,3.0,1651072418922899.0,0
144,-2.0,-4.0,-2.0,5.0,-3.0,0.0,-1.0,-2.0,1651072418928885.0,0
145,-3.0,3.0,15.0,12.0,-2.0,-5.0,-3.0,-3.0,1651072418928885.0,0
146,0.0,3.0,-2.0,-29.0,-10.0,-4.0,-2.0,0.0,1651072418936930.0,0
147,1.0,-5.0,-3.0,0.0,-9.0,-3.0,-2.0,1.0,1651072418936930.0,0
148,-3.0,-2.0,5.0,13.0,7.0,-2.0,-4.0,-1.0,1651072418951826.0,0
149,0.0,-3.0,-9.0,-11.0,-1.0,2.0,0.0,-1.0,1651072418951826.0,0
150,0.0,1.0,4.0,9.0,5.0,2.0,-2.0,-3.0,1651072418952893.0,0
151,-4.0,8.0,-8.0,-10.0,-5.0,-2.0,-1.0,-2.0,1651072418952893.0,0
152,1.0,-18.0,-14.0,15.0,6.0,1.0,3.0,2.0,1651072418974744.0,0
153,9.0,10.0,3.0,-23.0,-6.0,-2.0,0.0,2.0,1651072418974744.0,0
154,-12.0,0.0,-5.0,16.0,-6.0,-6.0,-2.0,-3.0,1651072418975704.0,0
155,12.0,-1.0,6.0,-7.0,1.0,-1.0,0.0,-2.0,1651072418975704.0,0
156,-8.0,13.0,2.0,9.0,-3.0,-3.0,-1.0,-1.0,1651072418988710.0,0
157,0.0,-3.0,-6.0,-3.0,0.0,0.0,-1.0,0.0,1651072418988710.0,0
158,-4.0,2.0,1.0,1.0,6.0,2.0,1.0,0.0,1651072418996619.0,0
159,-5.0,-7.0,1.0,-2.0,-3.0,-2.0,0.0,-1.0,1651072418996619.0,0
160,7.0,-4.0,-3.0,-1.0,-8.0,-3.0,0.0,1.0,1651072419011685.0,0
161,0.0,5.0,0.0,8.0,4.0,-1.0,-1.0,-3.0,1651072419011685.0,0
162,6.0,6.0,-1.0,0.0,0.0,0.0,-2.0,0.0,1651072419012684.0,0
163,-4.0,-8.0,-3.0,-1.0,-4.0,0.0,-1.0,-1.0,1651072419012684.0,0
164,-3.0,3.0,-12.0,-26.0,5.0,2.0,0.0,0.0,1651072419034528.0,0
165,5.0,-3.0,6.0,2.0,-1.0,-1.0,-1.0,3.0,1651072419034528.0,0
166,-20.0,-7.0,-6.0,4.0,1.0,-1.0,-1.0,-3.0,1651072419035571.0,0
167,0.0,5.0,4.0,-5.0,-1.0,1.0,3.0,-1.0,1651072419035571.0,0
168,-3.0,-6.0,10.0,-7.0,-2.0,1.0,3.0,1.0,1651072419057701.0,0
169,3.0,0.0,-19.0,13.0,7.0,0.0,0.0,0.0,1651072419057701.0,0
170,7.0,-3.0,14.0,-3.0,-2.0,-1.0,-2.0,0.0,1651072419058659.0,0
171,-5.0,0.0,0.0,-5.0,-4.0,-3.0,-6.0,-2.0,1651072419058659.0,0
172,-5.0,9.0,-3.0,-14.0,-6.0,-2.0,-2.0,-6.0,1651072419072385.0,0
173,-10.0,18.0,-5.0,-10.0,-2.0,3.0,1.0,-2.0,1651072419072385.0,0
174,15.0,-54.0,-8.0,-14.0,7.0,6.0,7.0,11.0,1651072419072385.0,0
175,6.0,15.0,6.0,16.0,1.0,-6.0,-3.0,-1.0,1651072419072385.0,0
176,-1.0,1.0,-1.0,29.0,-10.0,-9.0,-7.0,-5.0,1651072419094548.0,0
177,-10.0,1.0,9.0,25.0,8.0,-3.0,-5.0,-4.0,1651072419094548.0,0
178,-9.0,2.0,-7.0,-8.0,-3.0,0.0,-2.0,-5.0,1651072419095637.0,0
179,2.0,-2.0,3.0,-30.0,-8.0,1.0,2.0,1.0,1651072419095637.0,0
180,-5.0,0.0,-6.0,-7.0,3.0,1.0,2.0,1.0,1651072419108628.0,0
181,-7.0,-3.0,6.0,2.0,-2.0,-2.0,0.0,-4.0,1651072419108628.0,0
182,2.0,1.0,6.0,3.0,1.0,1.0,-2.0,-1.0,1651072419116606.0,0
183,2.0,28.0,7.0,7.0,2.0,3.0,4.0,2.0,1651072419116606.0,0
184,0.0,-47.0,-8.0,-6.0,0.0,-2.0,-2.0,-2.0,1651072419131686.0,0
185,1.0,20.0,-5.0,2.0,2.0,3.0,0.0,-1.0,1651072419131686.0,0
186,13.0,3.0,-6.0,-12.0,-2.0,0.0,3.0,5.0,1651072419132610.0,0
187,-7.0,-3.0,-1.0,22.0,-2.0,-3.0,-3.0,-2.0,1651072419132610.0,0
188,-5.0,38.0,4.0,2.0,4.0,1.0,-1.0,-4.0,1651072419154365.0,0
189,11.0,-19.0,11.0,0.0,1.0,1.0,2.0,3.0,1651072419154365.0,1
190,3.0,40.0,-10.0,-3.0,-1.0,-4.0,-3.0,-2.0,1651072419155297.0,1
191,-10.0,36.0,-6.0,-14.0,-3.0,-2.0,-4.0,-4.0,1651072419155297.0,1
192,-5.0,-97.0,-3.0,-10.0,-4.0,1.0,2.0,3.0,1651072419170665.0,1
193,-8.0,35.0,-11.0,-10.0,-4.0,-2.0,1.0,-1.0,1651072419170665.0,1
194,2.0,1.0,10.0,26.0,11.0,0.0,-1.0,0.0,1651072419176716.0,1
195,-7.0,-69.0,-25.0,-25.0,-16.0,-6.0,-3.0,-4.0,1651072419176716.0,1
196,-10.0,24.0,11.0,20.0,5.0,2.0,1.0,-1.0,1651072419191628.0,1
197,19.0,17.0,22.0,-1.0,-2.0,1.0,0.0,2.0,1651072419191628.0,1
198,10.0,-1.0,-57.0,-13.0,-4.0,3.0,7.0,8.0,1651072419192606.0,1
199,16.0,-14.0,-9.0,6.0,8.0,-4.0,0.0,2.0,1651072419192606.0,1
200,2.0,19.0,1.0,-11.0,-4.0,-1.0,0.0,1.0,1651072419214845.0,1
201,-10.0,5.0,15.0,6.0,-3.0,-4.0,-3.0,-3.0,1651072419214845.0,1
202,-16.0,-4.0,34.0,10.0,-1.0,-1.0,-6.0,-8.0,1651072419214995.0,1
203,-7.0,3.0,5.0,7.0,1.0,2.0,-1.0,-2.0,1651072419214995.0,1
204,23.0,-1.0,-41.0,-4.0,2.0,5.0,3.0,5.0,1651072419229026.0,1
205,-4.0,-3.0,-15.0,-9.0,0.0,-4.0,-2.0,-4.0,1651072419229026.0,1
206,5.0,-11.0,12.0,-12.0,-3.0,-1.0,-1.0,2.0,1651072419237005.0,1
207,-7.0,15.0,15.0,17.0,2.0,-1.0,-1.0,-4.0,1651072419237005.0,1
208,-12.0,3.0,5.0,-7.0,-5.0,-4.0,-5.0,-7.0,1651072419251538.0,1
209,-8.0,-3.0,52.0,4.0,-26.0,-4.0,2.0,4.0,1651072419251538.0,1
210,2.0,-36.0,-53.0,-7.0,33.0,9.0,2.0,-1.0,1651072419252468.0,1
211,-14.0,3.0,2.0,-10.0,-8.0,-6.0,-8.0,-9.0,1651072419252468.0,1
212,7.0,54.0,6.0,20.0,1.0,1.0,1.0,2.0,1651072419274476.0,1
213,-8.0,-102.0,-21.0,1.0,-1.0,-7.0,-3.0,0.0,1651072419274476.0,1
214,-6.0,118.0,-14.0,-11.0,-26.0,-14.0,-4.0,-5.0,1651072419275427.0,1
215,13.0,22.0,53.0,2.0,-3.0,3.0,4.0,7.0,1651072419275427.0,1
216,-34.0,-12.0,-39.0,-32.0,-2.0,-15.0,-17.0,-21.0,1651072419296461.0,1
217,9.0,-19.0,14.0,16.0,15.0,18.0,7.0,10.0,1651072419296461.0,1
218,2.0,-32.0,-8.0,11.0,-15.0,-7.0,-6.0,-3.0,1651072419297465.0,1
219,-19.0,-44.0,-7.0,-7.0,-17.0,-19.0,-10.0,-10.0,1651072419297465.0,1
220,28.0,61.0,34.0,-6.0,13.0,11.0,12.0,15.0,1651072419313548.0,1
221,2.0,-48.0,-10.0,-1.0,15.0,9.0,7.0,5.0,1651072419313548.0,1
222,3.0,49.0,53.0,5.0,0.0,-5.0,-5.0,-12.0,1651072419314575.0,1
223,-10.0,28.0,-4.0,-4.0,-28.0,-4.0,-2.0,-7.0,1651072419314575.0,1
224,20.0,-83.0,-21.0,-10.0,-26.0,-12.0,0.0,15.0,1651072419334565.0,1
225,-8.0,23.0,5.0,9.0,36.0,9.0,2.0,1.0,1651072419334565.0,1
226,3.0,11.0,18.0,3.0,-8.0,-1.0,2.0,0.0,1651072419335492.0,1
227,-28.0,-52.0,9.0,6.0,-19.0,-12.0,-8.0,-13.0,1651072419335492.0,1
228,5.0,-13.0,-3.0,3.0,30.0,13.0,8.0,13.0,1651072419356625.0,1
229,19.0,80.0,-28.0,-15.0,-2.0,5.0,0.0,-1.0,1651072419356625.0,1
230,-24.0,-92.0,3.0,6.0,9.0,-3.0,-4.0,-9.0,1651072419357554.0,1
231,24.0,-22.0,-34.0,8.0,16.0,13.0,7.0,13.0,1651072419357554.0,1
232,-30.0,-36.0,28.0,2.0,-38.0,-23.0,-11.0,-15.0,1651072419371665.0,1
233,13.0,-4.0,-49.0,-25.0,-8.0,-3.0,-2.0,1.0,1651072419371665.0,1
234,-1.0,18.0,-11.0,8.0,29.0,19.0,6.0,3.0,1651072419372665.0,1
235,6.0,-16.0,19.0,1.0,-2.0,-4.0,1.0,-3.0,1651072419372665.0,1
236,16.0,32.0,-24.0,-5.0,-2.0,-1.0,1.0,4.0,1651072419394610.0,1
237,-36.0,-42.0,-24.0,-8.0,-22.0,-19.0,-10.0,-13.0,1651072419394610.0,1
238,12.0,19.0,38.0,-2.0,-25.0,-7.0,1.0,2.0,1651072419395610.0,1
239,-12.0,-56.0,3.0,-1.0,14.0,9.0,4.0,-6.0,1651072419395610.0,1
240,10.0,44.0,-17.0,3.0,7.0,2.0,-4.0,1.0,1651072419416620.0,1
241,7.0,47.0,27.0,7.0,-14.0,1.0,4.0,4.0,1651072419416620.0,1
242,-8.0,-7.0,24.0,-2.0,8.0,-3.0,-3.0,5.0,1651072419417563.0,1
243,14.0,84.0,7.0,-18.0,-29.0,-8.0,-3.0,-2.0,1651072419417563.0,1
244,-38.0,-77.0,-46.0,3.0,32.0,7.0,-1.0,-25.0,1651072419431580.0,1
245,36.0,40.0,29.0,5.0,-15.0,-7.0,-4.0,10.0,1651072419431580.0,1
246,-20.0,-51.0,27.0,8.0,26.0,19.0,8.0,-5.0,1651072419432511.0,1
247,26.0,104.0,16.0,1.0,-1.0,-3.0,0.0,12.0,1651072419432511.0,1
248,-3.0,16.0,-18.0,-8.0,-25.0,-8.0,-5.0,-12.0,1651072419454464.0,1
249,-18.0,-77.0,-26.0,-14.0,-35.0,-13.0,-7.0,-7.0,1651072419454464.0,1
250,8.0,9.0,-7.0,3.0,23.0,3.0,-5.0,5.0,1651072419455476.0,1
251,6.0,4.0,-47.0,-8.0,16.0,5.0,5.0,0.0,1651072419455476.0,1
252,-11.0,-55.0,38.0,5.0,-16.0,-1.0,1.0,3.0,1651072419477444.0,1
253,1.0,24.0,-25.0,9.0,26.0,9.0,2.0,-3.0,1651072419477444.0,1
254,-13.0,6.0,-25.0,-10.0,-38.0,-19.0,-6.0,-13.0,1651072419477444.0,1
255,-5.0,-36.0,14.0,8.0,32.0,17.0,5.0,12.0,1651072419477444.0,1
256,17.0,38.0,58.0,3.0,1.0,0.0,2.0,8.0,1651072419491535.0,1
257,-15.0,-36.0,-20.0,-8.0,-5.0,-4.0,-9.0,-11.0,1651072419491535.0,1
258,-10.0,-17.0,-29.0,-9.0,-39.0,-10.0,-1.0,6.0,1651072419492534.0,1
259,20.0,40.0,-19.0,17.0,54.0,15.0,4.0,-5.0,1651072419492534.0,1
260,-4.0,-46.0,-48.0,-8.0,3.0,9.0,0.0,-7.0,1651072419515766.0,1
261,-17.0,2.0,35.0,11.0,34.0,8.0,3.0,-3.0,1651072419515766.0,1
262,17.0,40.0,-41.0,-5.0,-11.0,-5.0,-6.0,-4.0,1651072419516769.0,1
263,-19.0,-58.0,11.0,-4.0,-7.0,-7.0,-2.0,-6.0,1651072419516769.0,1
264,2.0,16.0,17.0,-1.0,7.0,-2.0,3.0,12.0,1651072419536947.0,1
265,25.0,58.0,-3.0,-1.0,6.0,1.0,2.0,2.0,1651072419536947.0,1
266,-11.0,-49.0,-30.0,-1.0,-1.0,0.0,-2.0,-1.0,1651072419537944.0,1
267,-1.0,-10.0,19.0,-4.0,-33.0,-8.0,-3.0,-2.0,1651072419537944.0,1
268,-4.0,57.0,38.0,2.0,12.0,-2.0,0.0,2.0,1651072419552021.0,1
269,9.0,-12.0,13.0,6.0,17.0,10.0,4.0,-4.0,1651072419552021.0,1
270,13.0,8.0,10.0,1.0,11.0,5.0,2.0,5.0,1651072419553027.0,1
271,11.0,2.0,-10.0,-1.0,-11.0,-5.0,1.0,-7.0,1651072419553027.0,1
272,0.0,41.0,-13.0,-2.0,0.0,10.0,1.0,5.0,1651072419574900.0,1
273,-10.0,10.0,6.0,1.0,-7.0,-3.0,4.0,8.0,1651072419574900.0,1
274,-1.0,-45.0,-21.0,3.0,7.0,0.0,-2.0,-5.0,1651072419574900.0,1
275,-8.0,36.0,-6.0,0.0,-6.0,-4.0,0.0,0.0,1651072419574900.0,1
276,20.0,30.0,-16.0,6.0,3.0,7.0,4.0,4.0,1651072419597224.0,1
277,7.0,-11.0,27.0,-4.0,-18.0,-4.0,-2.0,-2.0,1651072419597224.0,1
278,-17.0,36.0,-58.0,-14.0,10.0,-5.0,-5.0,-8.0,1651072419597224.0,1
279,-6.0,-29.0,-29.0,2.0,11.0,4.0,-3.0,2.0,1651072419597224.0,1
280,-14.0,-13.0,8.0,-7.0,-44.0,-13.0,-5.0,-4.0,1651072419613274.0,1
281,5.0,-8.0,8.0,1.0,12.0,4.0,-4.0,-8.0,1651072419613274.0,1
282,9.0,10.0,63.0,6.0,5.0,6.0,4.0,11.0,1651072419614292.0,1
283,5.0,-6.0,-26.0,-6.0,-4.0,0.0,0.0,-3.0,1651072419614292.0,1
284,0.0,-22.0,19.0,0.0,-1.0,0.0,-3.0,-17.0,1651072419634821.0,1
285,-6.0,23.0,-4.0,-2.0,-12.0,-10.0,-4.0,11.0,1651072419634821.0,1
286,-3.0,-32.0,26.0,2.0,1.0,2.0,6.0,-2.0,1651072419634821.0,1
287,-3.0,3.0,-54.0,-3.0,5.0,1.0,-1.0,10.0,1651072419634821.0,1
288,-6.0,9.0,-10.0,-4.0,-3.0,-6.0,-4.0,-4.0,1651072419657398.0,1
289,-5.0,-15.0,26.0,2.0,14.0,6.0,3.0,-4.0,1651072419657398.0,1
290,5.0,21.0,9.0,3.0,2.0,0.0,0.0,-3.0,1651072419658328.0,1
291,-16.0,-39.0,21.0,-4.0,-9.0,-7.0,-6.0,-14.0,1651072419658328.0,1
292,23.0,-15.0,-17.0,0.0,-3.0,3.0,6.0,10.0,1651072419672346.0,1
293,-14.0,-38.0,-16.0,-1.0,-8.0,-2.0,0.0,1.0,1651072419672346.0,1
294,5.0,46.0,27.0,11.0,15.0,5.0,3.0,4.0,1651072419672346.0,1
295,1.0,1.0,21.0,-5.0,-7.0,-4.0,-1.0,2.0,1651072419672346.0,1
296,5.0,21.0,16.0,9.0,12.0,2.0,-1.0,4.0,1651072419695296.0,1
297,-15.0,-32.0,-23.0,-10.0,-14.0,-7.0,-4.0,-8.0,1651072419695296.0,1
298,13.0,15.0,81.0,13.0,2.0,3.0,6.0,3.0,1651072419695296.0,1
299,-15.0,-20.0,-25.0,0.0,-5.0,-7.0,-7.0,-5.0,1651072419695296.0,1
300,19.0,39.0,32.0,1.0,6.0,11.0,5.0,0.0,1651072419724750.0,1
301,9.0,2.0,-59.0,-7.0,22.0,2.0,6.0,14.0,1651072419724750.0,1
302,-9.0,-12.0,-20.0,3.0,21.0,2.0,-4.0,-8.0,1651072419725675.0,1
303,4.0,-7.0,32.0,1.0,-7.0,2.0,1.0,3.0,1651072419725675.0,1
304,-8.0,13.0,-24.0,-4.0,-3.0,-7.0,-3.0,3.0,1651072419731660.0,1
305,-10.0,-44.0,13.0,-4.0,-26.0,-10.0,-3.0,-5.0,1651072419731660.0,1
306,6.0,19.0,-9.0,-8.0,-14.0,-6.0,-4.0,-1.0,1651072419732668.0,1
307,-4.0,6.0,-4.0,5.0,17.0,4.0,1.0,-2.0,1651072419732668.0,1
308,-7.0,-39.0,-1.0,4.0,1.0,5.0,4.0,5.0,1651072419754625.0,1
309,20.0,31.0,55.0,14.0,2.0,3.0,2.0,1.0,1651072419754625.0,1
310,-3.0,14.0,-29.0,-12.0,-8.0,-7.0,-2.0,1.0,1651072419755616.0,1
311,-4.0,1.0,21.0,-1.0,-3.0,4.0,1.0,-4.0,1651072419755616.0,1
312,-1.0,-4.0,0.0,-3.0,1.0,-8.0,-4.0,2.0,1651072419776762.0,1
313,-1.0,21.0,-21.0,-4.0,-4.0,-5.0,-3.0,-10.0,1651072419776762.0,1
314,6.0,-23.0,-10.0,0.0,-15.0,0.0,-2.0,2.0,1651072419777767.0,1
315,-1.0,-24.0,3.0,4.0,-1.0,1.0,3.0,3.0,1651072419777767.0,1
316,-4.0,-20.0,-11.0,-12.0,2.0,-4.0,-5.0,-14.0,1651072419791719.0,1
317,-4.0,-4.0,-26.0,-1.0,17.0,2.0,-2.0,5.0,1651072419791719.0,1
318,-7.0,6.0,13.0,2.0,-15.0,-9.0,-2.0,-3.0,1651072419792649.0,1
319,2.0,-17.0,-2.0,-3.0,-3.0,6.0,-3.0,-7.0,1651072419792649.0,1
320,9.0,30.0,11.0,4.0,16.0,7.0,7.0,13.0,1651072419814690.0,1
321,2.0,2.0,-11.0,-8.0,-26.0,-8.0,-2.0,0.0,1651072419814690.0,1
322,-8.0,-38.0,-8.0,10.0,36.0,15.0,5.0,4.0,1651072419814690.0,1
323,8.0,31.0,11.0,0.0,-28.0,-5.0,2.0,6.0,1651072419814690.0,1
324,-3.0,-8.0,-15.0,8.0,35.0,7.0,0.0,-1.0,1651072419845360.0,1
325,-7.0,15.0,-20.0,-8.0,-17.0,-4.0,-6.0,-13.0,1651072419845360.0,1
326,1.0,3.0,-19.0,2.0,3.0,1.0,1.0,3.0,1651072419845360.0,1
327,3.0,3.0,-4.0,-1.0,5.0,-4.0,0.0,2.0,1651072419845360.0,1
328,7.0,8.0,2.0,-8.0,-22.0,-5.0,-1.0,-6.0,1651072419852343.0,1
329,4.0,11.0,13.0,10.0,22.0,4.0,1.0,-3.0,1651072419852343.0,1
330,-9.0,-27.0,-24.0,-6.0,-23.0,-9.0,-7.0,9.0,1651072419852343.0,1
331,4.0,19.0,20.0,-2.0,-18.0,-6.0,-2.0,-2.0,1651072419852343.0,1
332,-8.0,-22.0,-21.0,-4.0,18.0,6.0,-4.0,-7.0,1651072419874374.0,1
333,4.0,15.0,40.0,7.0,5.0,5.0,3.0,-8.0,1651072419874374.0,1
334,-7.0,-23.0,-21.0,-13.0,-19.0,-10.0,-5.0,-7.0,1651072419875375.0,1
335,10.0,0.0,-13.0,-1.0,17.0,4.0,7.0,20.0,1651072419875375.0,1
336,-10.0,-17.0,27.0,-1.0,-12.0,-3.0,-5.0,-14.0,1651072419896536.0,1
337,6.0,-9.0,-48.0,-6.0,2.0,-2.0,-1.0,3.0,1651072419896536.0,1
338,-2.0,11.0,24.0,3.0,0.0,6.0,5.0,-3.0,1651072419897476.0,1
339,3.0,43.0,-28.0,-7.0,-1.0,-1.0,-2.0,1.0,1651072419897476.0,1
340,-5.0,-5.0,44.0,-1.0,-18.0,-10.0,-4.0,-3.0,1651072419911463.0,1
341,-5.0,-18.0,-2.0,2.0,5.0,0.0,0.0,7.0,1651072419911463.0,1
342,-5.0,-24.0,-7.0,2.0,5.0,-3.0,-4.0,-6.0,1651072419919444.0,1
343,1.0,16.0,3.0,0.0,-9.0,-7.0,-5.0,-8.0,1651072419919444.0,1
344,0.0,18.0,9.0,-2.0,13.0,5.0,4.0,10.0,1651072419934579.0,1
345,-8.0,-16.0,50.0,13.0,14.0,5.0,-1.0,-1.0,1651072419934579.0,1
346,28.0,61.0,-30.0,-4.0,-9.0,-2.0,5.0,8.0,1651072419935593.0,1
347,-6.0,-25.0,12.0,1.0,2.0,2.0,-1.0,5.0,1651072419935593.0,1
348,8.0,-1.0,-43.0,1.0,-7.0,-6.0,-1.0,-3.0,1651072419956834.0,1
349,-9.0,11.0,5.0,-3.0,-9.0,-6.0,-2.0,-3.0,1651072419956834.0,1
350,0.0,-25.0,-10.0,5.0,10.0,5.0,-2.0,-15.0,1651072419957763.0,1
351,1.0,-5.0,-28.0,-8.0,-9.0,2.0,1.0,12.0,1651072419957763.0,1
352,-8.0,16.0,23.0,6.0,3.0,-9.0,-5.0,-3.0,1651072419972406.0,1
353,-4.0,-8.0,-52.0,-12.0,3.0,-3.0,1.0,-1.0,1651072419972406.0,1
354,-1.0,14.0,2.0,1.0,3.0,5.0,-4.0,-9.0,1651072419972406.0,1
355,-4.0,16.0,9.0,-1.0,1.0,3.0,2.0,-6.0,1651072419972406.0,1
356,-3.0,-12.0,-33.0,-3.0,5.0,4.0,1.0,4.0,1651072419994818.0,1
357,9.0,-10.0,6.0,0.0,-4.0,2.0,2.0,-5.0,1651072419994818.0,1
358,8.0,8.0,3.0,0.0,13.0,1.0,5.0,16.0,1651072419995296.0,1
359,-3.0,-12.0,21.0,6.0,3.0,1.0,-2.0,-1.0,1651072419995296.0,1
360,-4.0,13.0,-45.0,-10.0,-12.0,-5.0,-5.0,-2.0,1651072420017058.0,1
361,-3.0,9.0,-11.0,-5.0,-15.0,-5.0,-2.0,-9.0,1651072420017058.0,1
362,-9.0,-24.0,-10.0,-8.0,-7.0,-3.0,-1.0,9.0,1651072420018082.0,1
363,7.0,15.0,11.0,8.0,18.0,5.0,-1.0,-4.0,1651072420018082.0,1
364,7.0,10.0,66.0,9.0,-5.0,3.0,4.0,4.0,1651072420031062.0,1
365,4.0,8.0,-44.0,-5.0,-6.0,-3.0,-3.0,0.0,1651072420031062.0,1
366,-4.0,-21.0,0.0,-7.0,-7.0,-3.0,-2.0,-5.0,1651072420039074.0,1
367,-1.0,15.0,27.0,4.0,14.0,-2.0,3.0,5.0,1651072420039074.0,1
368,-17.0,-68.0,-14.0,-4.0,-3.0,6.0,-5.0,-14.0,1651072420054006.0,1
369,10.0,21.0,7.0,1.0,9.0,2.0,3.0,9.0,1651072420054006.0,1
370,2.0,5.0,-10.0,-5.0,-13.0,-4.0,-3.0,-4.0,1651072420055000.0,1
371,-12.0,-40.0,-39.0,-3.0,1.0,-1.0,1.0,-2.0,1651072420055000.0,1
372,10.0,24.0,-1.0,3.0,-10.0,-1.0,5.0,6.0,1651072420077092.0,1
373,5.0,16.0,38.0,1.0,6.0,3.0,1.0,8.0,1651072420077092.0,1
374,0.0,4.0,27.0,10.0,10.0,6.0,0.0,-5.0,1651072420078049.0,1
375,-1.0,-9.0,-14.0,-6.0,-4.0,-2.0,-2.0,-4.0,1651072420078049.0,1
376,9.0,-8.0,-15.0,-3.0,-8.0,-2.0,4.0,15.0,1651072420091071.0,1
377,-14.0,-7.0,9.0,4.0,8.0,2.0,-3.0,-6.0,1651072420091071.0,1
378,-12.0,2.0,-3.0,-1.0,-8.0,0.0,1.0,3.0,1651072420099119.0,1
379,13.0,34.0,0.0,0.0,4.0,3.0,-2.0,-17.0,1651072420099119.0,1
380,-6.0,-11.0,-1.0,2.0,8.0,2.0,-5.0,1.0,1651072420114110.0,1
381,-8.0,-46.0,15.0,1.0,-13.0,-7.0,3.0,7.0,1651072420114110.0,1
382,6.0,17.0,15.0,-1.0,10.0,7.0,1.0,-6.0,1651072420115109.0,1
383,-14.0,18.0,34.0,0.0,-12.0,-2.0,-3.0,-8.0,1651072420115109.0,1
384,17.0,-7.0,-33.0,0.0,9.0,-4.0,2.0,10.0,1651072420137164.0,1
385,-1.0,28.0,57.0,5.0,4.0,7.0,-1.0,2.0,1651072420137164.0,1
386,-3.0,-26.0,-74.0,-7.0,-4.0,-2.0,0.0,0.0,1651072420138095.0,1
387,-4.0,10.0,-31.0,-5.0,-4.0,-6.0,-1.0,-3.0,1651072420138095.0,1
388,-8.0,1.0,41.0,8.0,13.0,1.0,0.0,-4.0,1651072420151148.0,1
389,5.0,-3.0,24.0,6.0,2.0,3.0,0.0,-8.0,1651072420151148.0,1
390,-2.0,-13.0,35.0,-5.0,-16.0,-7.0,-2.0,5.0,1651072420159196.0,1
391,3.0,35.0,0.0,0.0,6.0,-3.0,-3.0,-4.0,1651072420159196.0,1
392,-2.0,0.0,-3.0,-6.0,-5.0,-2.0,-2.0,-2.0,1651072420174345.0,1
393,-5.0,1.0,-12.0,-10.0,-27.0,-12.0,-6.0,-1.0,1651072420174345.0,1
394,-2.0,0.0,8.0,8.0,21.0,6.0,1.0,-5.0,1651072420175331.0,1
395,-10.0,-42.0,12.0,8.0,9.0,2.0,-2.0,1.0,1651072420175331.0,1
396,7.0,14.0,19.0,2.0,-4.0,-1.0,3.0,0.0,1651072420196552.0,1
397,7.0,48.0,-43.0,-11.0,-11.0,-1.0,-2.0,0.0,1651072420196552.0,1
398,-1.0,11.0,44.0,9.0,-12.0,-7.0,3.0,3.0,1651072420197483.0,1
399,-1.0,-36.0,20.0,3.0,-5.0,4.0,-2.0,3.0,1651072420197483.0,1
400,-3.0,16.0,-21.0,-6.0,0.0,-1.0,-2.0,-1.0,1651072420211619.0,1
401,-9.0,-15.0,-19.0,0.0,-5.0,-2.0,0.0,4.0,1651072420211619.0,1
402,9.0,12.0,14.0,0.0,-10.0,-3.0,0.0,2.0,1651072420219868.0,1
403,3.0,-13.0,-21.0,-8.0,3.0,2.0,5.0,6.0,1651072420219868.0,1
404,-4.0,-3.0,-7.0,-5.0,-8.0,-5.0,-4.0,-12.0,1651072420234259.0,1
405,-6.0,3.0,-11.0,1.0,7.0,3.0,2.0,-2.0,1651072420234259.0,1
406,6.0,2.0,22.0,-5.0,-5.0,-5.0,-2.0,4.0,1651072420235278.0,1
407,4.0,13.0,3.0,3.0,-1.0,2.0,1.0,-1.0,1651072420235278.0,1
408,-3.0,-15.0,-7.0,0.0,0.0,-1.0,0.0,-1.0,1651072420257268.0,1
409,-3.0,-12.0,-2.0,0.0,1.0,1.0,-2.0,-1.0,1651072420257268.0,1
410,-2.0,9.0,47.0,4.0,2.0,-5.0,-2.0,-5.0,1651072420257268.0,1
411,12.0,5.0,-21.0,-3.0,0.0,5.0,5.0,6.0,1651072420257268.0,1
412,-4.0,-3.0,-17.0,-2.0,7.0,2.0,-2.0,-4.0,1651072420280249.0,1
413,-6.0,-28.0,-3.0,4.0,-5.0,-3.0,-5.0,-8.0,1651072420280249.0,1
414,-6.0,14.0,-19.0,-1.0,5.0,-2.0,-4.0,-4.0,1651072420281241.0,1
415,23.0,4.0,19.0,5.0,-1.0,1.0,6.0,7.0,1651072420281241.0,1
416,1.0,0.0,-5.0,-1.0,1.0,5.0,2.0,3.0,1651072420294407.0,1
417,-3.0,2.0,34.0,2.0,0.0,-2.0,1.0,-1.0,1651072420294407.0,1
418,-10.0,-34.0,-66.0,-22.0,-20.0,-9.0,-7.0,-7.0,1651072420295433.0,1
419,-5.0,-14.0,-37.0,0.0,21.0,3.0,3.0,2.0,1651072420295433.0,1
420,-8.0,2.0,-4.0,-2.0,0.0,4.0,-1.0,-8.0,1651072420316665.0,1
421,-2.0,10.0,17.0,6.0,21.0,7.0,1.0,5.0,1651072420316665.0,1
422,6.0,-22.0,-29.0,4.0,-4.0,2.0,5.0,7.0,1651072420317596.0,1
423,-8.0,-33.0,13.0,0.0,0.0,-8.0,-7.0,4.0,1651072420317596.0,1
424,10.0,29.0,-16.0,-2.0,-6.0,8.0,3.0,0.0,1651072420331618.0,1
425,-10.0,-10.0,-34.0,-4.0,0.0,-4.0,-3.0,-9.0,1651072420331618.0,1
426,-5.0,7.0,22.0,0.0,13.0,2.0,1.0,-1.0,1651072420339925.0,1
427,2.0,12.0,3.0,-1.0,-8.0,-1.0,-2.0,-2.0,1651072420339925.0,1
428,-2.0,-31.0,54.0,12.0,-2.0,-3.0,-3.0,1.0,1651072420354887.0,1
429,1.0,14.0,-31.0,-17.0,-25.0,-13.0,-7.0,-3.0,1651072420354887.0,1
430,-1.0,10.0,-11.0,7.0,16.0,10.0,3.0,0.0,1651072420354887.0,1
431,-8.0,-29.0,-30.0,-6.0,-3.0,-3.0,-1.0,-4.0,1651072420354887.0,1
432,8.0,36.0,-1.0,-3.0,-4.0,-6.0,-5.0,0.0,1651072420376995.0,1
433,0.0,-43.0,16.0,11.0,24.0,18.0,9.0,3.0,1651072420376995.0,1
434,3.0,32.0,19.0,-5.0,-3.0,-5.0,-6.0,-5.0,1651072420377953.0,1
435,-11.0,14.0,7.0,-9.0,-6.0,-3.0,-3.0,-4.0,1651072420377953.0,1
436,-1.0,-34.0,-5.0,1.0,-9.0,-6.0,0.0,2.0,1651072420400004.0,1
437,6.0,18.0,43.0,-1.0,-11.0,-6.0,-2.0,-4.0,1651072420400004.0,1
438,9.0,2.0,0.0,2.0,2.0,2.0,5.0,14.0,1651072420400967.0,1
439,-2.0,26.0,24.0,4.0,0.0,-1.0,-4.0,-4.0,1651072420400967.0,1
440,-13.0,-55.0,-25.0,-4.0,-8.0,0.0,-4.0,-4.0,1651072420414953.0,1
441,7.0,21.0,-39.0,-4.0,3.0,0.0,-4.0,0.0,1651072420414953.0,1
442,-16.0,-39.0,-33.0,-4.0,-3.0,-1.0,0.0,-9.0,1651072420414953.0,1
443,12.0,32.0,12.0,3.0,2.0,1.0,3.0,-3.0,1651072420414953.0,1
444,5.0,5.0,-4.0,-6.0,1.0,-6.0,-1.0,10.0,1651072420436430.0,1
445,-11.0,-16.0,-8.0,-1.0,1.0,2.0,0.0,-2.0,1651072420436430.0,1
446,6.0,9.0,7.0,3.0,2.0,3.0,5.0,2.0,1651072420444433.0,1
447,-11.0,-29.0,-10.0,-3.0,-4.0,-5.0,-3.0,-2.0,1651072420444433.0,1
448,20.0,41.0,22.0,7.0,15.0,11.0,7.0,1.0,1651072420460535.0,1
449,-1.0,-28.0,-8.0,0.0,4.0,1.0,3.0,11.0,1651072420460535.0,1
450,-4.0,12.0,-11.0,-7.0,-12.0,-8.0,-7.0,-6.0,1651072420460535.0,1
451,-6.0,-4.0,29.0,5.0,2.0,2.0,-2.0,-1.0,1651072420460535.0,1
452,-10.0,1.0,-10.0,0.0,-1.0,-4.0,-3.0,-8.0,1651072420482817.0,1
453,2.0,-8.0,-40.0,-15.0,-3.0,-2.0,0.0,4.0,1651072420482817.0,1
454,8.0,17.0,11.0,12.0,10.0,1.0,2.0,1.0,1651072420483834.0,1
455,-3.0,-13.0,-16.0,-6.0,-5.0,2.0,-1.0,-2.0,1651072420483834.0,1
456,-7.0,-1.0,-11.0,-4.0,-6.0,-4.0,-3.0,-8.0,1651072420496846.0,1
457,-1.0,10.0,19.0,7.0,-5.0,-1.0,2.0,0.0,1651072420496846.0,1
458,9.0,14.0,6.0,-3.0,-7.0,0.0,1.0,8.0,1651072420497786.0,1
459,7.0,-17.0,-14.0,-1.0,-2.0,-1.0,-3.0,-8.0,1651072420497786.0,1
460,-4.0,-7.0,31.0,4.0,10.0,-3.0,-1.0,1.0,1651072420518905.0,1
461,10.0,48.0,11.0,12.0,34.0,13.0,4.0,-1.0,1651072420518905.0,1
462,-3.0,-12.0,23.0,-5.0,-8.0,-2.0,-1.0,2.0,1651072420526884.0,1
463,3.0,-1.0,0.0,0.0,1.0,-1.0,0.0,3.0,1651072420526884.0,1
464,-13.0,1.0,-5.0,-4.0,-18.0,-8.0,-3.0,-4.0,1651072420534846.0,1
465,4.0,-15.0,7.0,-5.0,-12.0,-4.0,-2.0,-4.0,1651072420534846.0,1
466,-4.0,-6.0,-3.0,1.0,5.0,2.0,0.0,-3.0,1651072420534846.0,1
467,4.0,18.0,0.0,3.0,0.0,-1.0,-1.0,3.0,1651072420534846.0,1
468,-2.0,-6.0,-2.0,0.0,2.0,2.0,-2.0,-2.0,1651072420556857.0,1
469,-2.0,0.0,-3.0,-5.0,-2.0,-3.0,1.0,2.0,1651072420556857.0,1
470,-4.0,-5.0,11.0,6.0,-6.0,1.0,2.0,2.0,1651072420557787.0,1
471,-10.0,-16.0,-22.0,-9.0,-10.0,-5.0,-4.0,-8.0,1651072420557787.0,1
472,22.0,44.0,36.0,6.0,28.0,4.0,6.0,6.0,1651072420579925.0,1
473,3.0,17.0,6.0,3.0,1.0,1.0,-3.0,-2.0,1651072420579925.0,1
474,-5.0,-15.0,-17.0,-5.0,-11.0,-5.0,-5.0,-4.0,1651072420580891.0,1
475,-5.0,-2.0,12.0,6.0,1.0,2.0,0.0,-5.0,1651072420580891.0,1
476,-10.0,-7.0,-2.0,-6.0,-18.0,-7.0,-3.0,4.0,1651072420594817.0,1
477,6.0,1.0,-13.0,-5.0,-8.0,-5.0,-1.0,2.0,1651072420594817.0,1
478,-1.0,-16.0,-3.0,1.0,17.0,3.0,-2.0,-2.0,1651072420595292.0,1
479,1.0,5.0,8.0,0.0,-2.0,-2.0,-1.0,3.0,1651072420595292.0,1
480,-2.0,12.0,-1.0,0.0,-1.0,2.0,-1.0,-4.0,1651072420617320.0,1
481,-4.0,-9.0,1.0,-6.0,-8.0,-4.0,-3.0,-1.0,1651072420617320.0,1
482,-9.0,-7.0,4.0,-1.0,-7.0,-3.0,-2.0,-4.0,1651072420617320.0,1
483,6.0,3.0,-8.0,0.0,13.0,3.0,3.0,3.0,1651072420617320.0,1
484,5.0,3.0,-10.0,-3.0,-9.0,-4.0,0.0,1.0,1651072420640419.0,1
485,0.0,-11.0,3.0,6.0,7.0,3.0,-2.0,-1.0,1651072420640419.0,1
486,-4.0,6.0,9.0,16.0,3.0,1.0,0.0,-6.0,1651072420641350.0,1
487,-3.0,8.0,-6.0,-21.0,-1.0,-3.0,-2.0,3.0,1651072420641350.0,1
488,-8.0,-9.0,-11.0,-5.0,-7.0,-2.0,0.0,-1.0,1651072420654320.0,1
489,1.0,-6.0,10.0,-3.0,-8.0,-2.0,-3.0,-5.0,1651072420654320.0,1
490,7.0,7.0,-9.0,4.0,6.0,3.0,0.0,3.0,1651072420655313.0,1
491,-1.0,3.0,1.0,2.0,-2.0,1.0,0.0,1.0,1651072420655313.0,1
492,-3.0,-5.0,-5.0,2.0,6.0,2.0,0.0,-2.0,1651072420676629.0,1
493,-1.0,-1.0,-6.0,-8.0,-6.0,-2.0,-1.0,0.0,1651072420676629.0,1
494,2.0,4.0,-1.0,-8.0,-9.0,-2.0,0.0,-1.0,1651072420677629.0,1
495,4.0,2.0,0.0,9.0,3.0,1.0,2.0,3.0,1651072420677629.0,1
496,-2.0,-5.0,0.0,1.0,3.0,1.0,-1.0,-4.0,1651072420700417.0,1
497,3.0,0.0,-1.0,-2.0,-1.0,0.0,1.0,1.0,1651072420700417.0,1
498,2.0,5.0,2.0,0.0,-2.0,-2.0,0.0,-1.0,1651072420700417.0,1
499,-5.0,-10.0,-8.0,-2.0,-6.0,-3.0,-1.0,-3.0,1651072420700417.0,1
500,4.0,4.0,0.0,9.0,0.0,-2.0,0.0,2.0,1651072420722475.0,1
501,-3.0,-4.0,8.0,-7.0,-1.0,2.0,-1.0,0.0,1651072420722475.0,1
502,3.0,-2.0,-16.0,-4.0,-2.0,-2.0,-1.0,0.0,1651072420723473.0,1
503,-5.0,2.0,0.0,-2.0,-2.0,2.0,0.0,-1.0,1651072420723473.0,1
504,1.0,0.0,10.0,2.0,3.0,2.0,0.0,0.0,1651072420736622.0,1
505,4.0,0.0,0.0,9.0,5.0,2.0,2.0,1.0,1651072420736622.0,1
506,0.0,2.0,-6.0,-1.0,7.0,1.0,-1.0,-2.0,1651072420737553.0,1
507,4.0,2.0,25.0,6.0,-5.0,-2.0,0.0,2.0,1651072420737553.0,1
508,-36.0,-5.0,-13.0,-5.0,-5.0,-1.0,1.0,-3.0,1651072420760510.0,1
509,-8.0,-6.0,-13.0,-23.0,-16.0,-4.0,-2.0,-3.0,1651072420760510.0,1
510,-1.0,0.0,-4.0,-1.0,0.0,-4.0,-2.0,0.0,1651072420760510.0,1
511,-6.0,2.0,7.0,15.0,10.0,10.0,-1.0,1.0,1651072420760510.0,1
512,11.0,-3.0,3.0,-5.0,8.0,4.0,0.0,0.0,1651072420775528.0,1
513,-5.0,0.0,-17.0,-13.0,-14.0,-2.0,0.0,0.0,1651072420775528.0,1
514,15.0,2.0,-1.0,8.0,3.0,-2.0,0.0,-1.0,1651072420775528.0,1
515,0.0,-2.0,3.0,11.0,-3.0,-5.0,-2.0,0.0,1651072420775528.0,1
516,1.0,8.0,14.0,9.0,4.0,1.0,-1.0,-2.0,1651072420796613.0,1
517,-1.0,-3.0,-5.0,-1.0,3.0,-2.0,-1.0,1.0,1651072420796613.0,1
518,-5.0,-17.0,-9.0,-27.0,-10.0,-2.0,-4.0,-1.0,1651072420797547.0,1
519,-7.0,-2.0,1.0,10.0,10.0,1.0,2.0,2.0,1651072420797547.0,1
520,2.0,-2.0,2.0,17.0,2.0,3.0,0.0,0.0,1651072420820544.0,1
521,40.0,15.0,20.0,-3.0,-2.0,0.0,3.0,11.0,1651072420820544.0,1
522,-15.0,2.0,-6.0,-22.0,-13.0,-9.0,-8.0,-19.0,1651072420820544.0,1
523,-33.0,20.0,5.0,-7.0,-4.0,-2.0,-1.0,-3.0,1651072420820544.0,1
524,-15.0,-38.0,-26.0,-1.0,0.0,-2.0,0.0,3.0,1651072420834511.0,1
525,18.0,5.0,18.0,20.0,5.0,1.0,-2.0,-4.0,1651072420834511.0,1
526,-11.0,0.0,33.0,10.0,1.0,1.0,2.0,6.0,1651072420835442.0,1
527,20.0,3.0,-20.0,26.0,8.0,4.0,1.0,1.0,1651072420835442.0,1
528,66.0,29.0,20.0,-40.0,0.0,3.0,2.0,1.0,1651072420856750.0,1
529,-57.0,-13.0,-13.0,16.0,-4.0,-6.0,-4.0,-7.0,1651072420856750.0,1
530,3.0,13.0,20.0,1.0,2.0,1.0,0.0,4.0,1651072420857681.0,1
531,-10.0,10.0,27.0,-19.0,-7.0,-6.0,-3.0,-3.0,1651072420857681.0,1
532,10.0,-34.0,-68.0,-5.0,0.0,1.0,2.0,3.0,1651072420880504.0,1
533,13.0,-3.0,13.0,-5.0,4.0,0.0,-1.0,-2.0,1651072420880504.0,1
534,-1.0,-10.0,-12.0,22.0,-7.0,1.0,0.0,0.0,1651072420880504.0,1
535,5.0,4.0,-43.0,-21.0,1.0,2.0,3.0,3.0,1651072420880504.0,1
536,-20.0,-1.0,-5.0,10.0,-13.0,-11.0,-10.0,-7.0,1651072420894537.0,1
537,1.0,7.0,-49.0,-26.0,-2.0,-5.0,-3.0,-5.0,1651072420894537.0,1
538,3.0,3.0,8.0,11.0,3.0,3.0,2.0,1.0,1651072420895466.0,1
539,6.0,-9.0,13.0,23.0,7.0,5.0,1.0,2.0,1651072420895466.0,1
540,30.0,20.0,55.0,21.0,11.0,3.0,0.0,1.0,1651072420917402.0,1
541,-29.0,-11.0,-9.0,-38.0,-8.0,0.0,3.0,0.0,1651072420917402.0,1
542,2.0,-8.0,-4.0,30.0,-3.0,-7.0,-4.0,3.0,1651072420917402.0,1
543,-3.0,-37.0,-46.0,-41.0,-9.0,-3.0,-4.0,-8.0,1651072420917402.0,1
544,-8.0,11.0,15.0,-20.0,-2.0,-2.0,0.0,-2.0,1651072420940521.0,1
545,40.0,10.0,35.0,34.0,2.0,2.0,2.0,3.0,1651072420940521.0,1
546,-23.0,-2.0,-22.0,-9.0,10.0,3.0,0.0,1.0,1651072420940521.0,1
547,14.0,12.0,58.0,6.0,4.0,2.0,3.0,4.0,1651072420940521.0,1
548,-10.0,9.0,25.0,18.0,-2.0,-4.0,-1.0,-2.0,1651072420954530.0,1
549,-10.0,-10.0,1.0,3.0,3.0,1.0,2.0,0.0,1651072420954530.0,1
550,7.0,13.0,32.0,-8.0,-2.0,1.0,3.0,0.0,1651072420955455.0,1
551,4.0,-9.0,-20.0,-20.0,-3.0,-4.0,-3.0,-3.0,1651072420955455.0,1
552,-19.0,-5.0,-18.0,-20.0,-9.0,-2.0,-2.0,-1.0,1651072420976780.0,1
553,-3.0,12.0,47.0,64.0,9.0,-1.0,-4.0,-2.0,1651072420976780.0,1
554,-1.0,-8.0,-23.0,-23.0,8.0,3.0,0.0,-2.0,1651072420977710.0,1
555,0.0,9.0,15.0,1.0,-9.0,-3.0,-2.0,1.0,1651072420977710.0,1
556,1.0,5.0,-4.0,5.0,-10.0,-3.0,-1.0,-1.0,1651072421000992.0,1
557,-6.0,7.0,8.0,6.0,3.0,-1.0,-2.0,-1.0,1651072421000992.0,1
558,2.0,-5.0,-12.0,23.0,6.0,0.0,0.0,0.0,1651072421001617.0,1
559,6.0,-4.0,-13.0,1.0,-3.0,-2.0,-2.0,-1.0,1651072421001617.0,1
560,-8.0,-5.0,-27.0,-32.0,-1.0,3.0,0.0,0.0,1651072421013699.0,1
561,4.0,2.0,3.0,16.0,1.0,0.0,0.0,1.0,1651072421013699.0,1
562,-4.0,4.0,-22.0,-24.0,4.0,5.0,2.0,1.0,1651072421022678.0,1
563,0.0,-8.0,-7.0,-13.0,-6.0,-4.0,-2.0,-2.0,1651072421022678.0,1
564,-9.0,-6.0,-11.0,25.0,4.0,-1.0,-2.0,-1.0,1651072421036712.0,1
565,-4.0,-10.0,8.0,-13.0,1.0,2.0,0.0,-1.0,1651072421036712.0,1
566,8.0,-2.0,-52.0,-31.0,-9.0,-2.0,-1.0,-1.0,1651072421037642.0,1
567,-1.0,2.0,21.0,5.0,0.0,0.0,-3.0,-1.0,1651072421037642.0,1
568,-4.0,-1.0,0.0,25.0,5.0,1.0,2.0,1.0,1651072421060821.0,1
569,3.0,5.0,13.0,-7.0,-2.0,0.0,0.0,0.0,1651072421060821.0,1
570,-3.0,-19.0,-13.0,-30.0,-11.0,-5.0,-3.0,-2.0,1651072421061776.0,1
571,1.0,5.0,2.0,39.0,8.0,1.0,0.0,1.0,1651072421061776.0,1
572,-5.0,-6.0,-24.0,-16.0,-4.0,-1.0,-2.0,-1.0,1651072421074191.0,1
573,-4.0,3.0,4.0,6.0,2.0,1.0,-1.0,0.0,1651072421074191.0,1
574,5.0,23.0,61.0,22.0,6.0,1.0,1.0,2.0,1651072421081972.0,1
575,-5.0,-16.0,-36.0,-18.0,2.0,1.0,-1.0,0.0,1651072421081972.0,1
576,1.0,5.0,22.0,-4.0,-6.0,-1.0,-1.0,-1.0,1651072421096933.0,1
577,-4.0,-8.0,-15.0,8.0,-1.0,-2.0,-1.0,0.0,1651072421096933.0,1
578,4.0,12.0,19.0,-17.0,-5.0,-1.0,-1.0,-1.0,1651072421097863.0,1
579,-1.0,-6.0,1.0,-17.0,-3.0,-2.0,-1.0,0.0,1651072421097863.0,1
580,-3.0,2.0,15.0,35.0,6.0,-1.0,-1.0,0.0,1651072421120424.0,1
581,-4.0,-3.0,-25.0,-27.0,-4.0,-1.0,-1.0,0.0,1651072421120424.0,1
582,1.0,-2.0,-2.0,4.0,-1.0,-2.0,0.0,0.0,1651072421121383.0,1
583,-1.0,7.0,1.0,4.0,-4.0,0.0,0.0,1.0,1651072421121383.0,1
584,4.0,1.0,4.0,-2.0,1.0,-1.0,-1.0,-2.0,1651072421142843.0,1
585,-1.0,-3.0,-4.0,-9.0,-8.0,-3.0,-1.0,-1.0,1651072421142843.0,1
586,1.0,-1.0,-1.0,10.0,1.0,2.0,-3.0,1.0,1651072421143380.0,1
587,-2.0,-11.0,-2.0,-11.0,3.0,0.0,0.0,0.0,1651072421143380.0,1
588,-3.0,-3.0,-3.0,-3.0,-6.0,-2.0,-2.0,-1.0,1651072421156347.0,1
589,0.0,6.0,9.0,-10.0,2.0,-1.0,1.0,-1.0,1651072421156347.0,1
590,-7.0,-34.0,-69.0,6.0,-2.0,-1.0,1.0,-2.0,1651072421172304.0,1
591,4.0,9.0,-25.0,5.0,-2.0,-3.0,-1.0,-1.0,1651072421172304.0,1
592,-4.0,-1.0,4.0,-19.0,-7.0,-2.0,-3.0,-2.0,1651072421180350.0,1
593,-2.0,-2.0,-14.0,-2.0,0.0,2.0,-1.0,0.0,1651072421180350.0,1
594,1.0,7.0,26.0,-5.0,-2.0,0.0,-2.0,-1.0,1651072421181301.0,1
595,0.0,9.0,18.0,4.0,3.0,0.0,0.0,-1.0,1651072421181301.0,1
596,-2.0,-6.0,-3.0,3.0,1.0,0.0,1.0,1.0,1651072421194247.0,1
597,-2.0,-2.0,-2.0,-7.0,-1.0,-1.0,-1.0,-2.0,1651072421194247.0,1
598,3.0,4.0,18.0,6.0,1.0,-2.0,0.0,0.0,1651072421202291.0,1
599,0.0,-1.0,9.0,12.0,1.0,-1.0,-1.0,1.0,1651072421202291.0,1
600,1.0,-3.0,-3.0,-7.0,0.0,2.0,0.0,0.0,1651072421218362.0,1
601,1.0,-4.0,-5.0,0.0,-2.0,0.0,-1.0,0.0,1651072421218362.0,1
602,1.0,7.0,3.0,2.0,2.0,0.0,1.0,0.0,1651072421224322.0,1
603,-3.0,-4.0,5.0,-7.0,-5.0,-4.0,-3.0,-3.0,1651072421224322.0,1
604,-1.0,-4.0,-20.0,-10.0,-2.0,0.0,0.0,0.0,1651072421239935.0,1
605,-3.0,-1.0,-8.0,4.0,-1.0,-2.0,-1.0,-2.0,1651072421239935.0,1
606,1.0,5.0,15.0,5.0,6.0,3.0,0.0,1.0,1651072421240863.0,1
607,-1.0,4.0,-11.0,-4.0,2.0,1.0,2.0,-1.0,1651072421240863.0,1
608,-2.0,-7.0,-21.0,12.0,5.0,1.0,2.0,0.0,1651072421253902.0,1
609,-2.0,-5.0,26.0,-6.0,-2.0,0.0,-3.0,-2.0,1651072421253902.0,1
610,-1.0,3.0,31.0,10.0,-5.0,-1.0,0.0,0.0,1651072421261965.0,1
611,0.0,12.0,16.0,5.0,-4.0,-1.0,-2.0,1.0,1651072421261965.0,1
612,-1.0,-4.0,-12.0,-3.0,2.0,1.0,1.0,0.0,1651072421277430.0,1
613,2.0,-1.0,-12.0,-3.0,2.0,0.0,2.0,-1.0,1651072421277430.0,1
614,2.0,12.0,21.0,-13.0,0.0,2.0,1.0,0.0,1651072421278384.0,1
615,-3.0,-18.0,-3.0,11.0,0.0,-3.0,-2.0,-1.0,1651072421278384.0,1
616,-1.0,8.0,13.0,-4.0,-3.0,-2.0,1.0,1.0,1651072421300426.0,1
617,1.0,0.0,-13.0,4.0,1.0,0.0,0.0,0.0,1651072421300426.0,1
618,1.0,3.0,6.0,3.0,0.0,-1.0,-1.0,-1.0,1651072421300426.0,1
619,0.0,-7.0,-13.0,1.0,0.0,1.0,-1.0,0.0,1651072421300426.0,1
620,-2.0,3.0,-4.0,-3.0,-2.0,-3.0,0.0,-1.0,1651072421322556.0,1
621,0.0,-4.0,-1.0,-4.0,0.0,-2.0,0.0,0.0,1651072421322556.0,1
622,-3.0,-10.0,-23.0,3.0,-3.0,-1.0,0.0,0.0,1651072421323487.0,1
623,-2.0,0.0,-1.0,-9.0,1.0,1.0,1.0,0.0,1651072421323487.0,1
624,0.0,4.0,10.0,3.0,6.0,1.0,0.0,-2.0,1651072421337516.0,1
625,-2.0,-1.0,5.0,19.0,-3.0,-1.0,-1.0,0.0,1651072421337516.0,1
626,2.0,5.0,11.0,-9.0,3.0,3.0,-1.0,-1.0,1651072421338476.0,1
627,2.0,5.0,16.0,13.0,4.0,2.0,0.0,0.0,1651072421338476.0,1
628,1.0,5.0,12.0,-20.0,-9.0,-2.0,-1.0,-1.0,1651072421360246.0,1
629,-3.0,-5.0,19.0,12.0,6.0,3.0,-2.0,0.0,1651072421360246.0,1
630,-1.0,4.0,16.0,18.0,-5.0,-4.0,-2.0,-1.0,1651072421361200.0,1
631,-1.0,0.0,-15.0,-26.0,3.0,0.0,0.0,0.0,1651072421361200.0,1
632,0.0,-1.0,4.0,4.0,0.0,0.0,1.0,-1.0,1651072421382758.0,1
633,0.0,5.0,2.0,-18.0,-6.0,-4.0,-2.0,1.0,1651072421382758.0,1
634,-1.0,0.0,13.0,23.0,3.0,2.0,1.0,0.0,1651072421383692.0,1
635,-1.0,3.0,1.0,-5.0,-6.0,-2.0,1.0,1.0,1651072421383692.0,1
636,0.0,2.0,-2.0,-10.0,-5.0,-5.0,-2.0,-2.0,1651072421396721.0,1
637,-2.0,-6.0,-11.0,-7.0,0.0,-2.0,1.0,-1.0,1651072421396721.0,1
638,0.0,5.0,-4.0,-1.0,0.0,0.0,0.0,-2.0,1651072421397650.0,1
639,-2.0,-7.0,-12.0,4.0,-1.0,-1.0,1.0,-2.0,1651072421397650.0,1
640,2.0,4.0,14.0,6.0,5.0,1.0,-1.0,1.0,1651072421419778.0,1
641,1.0,1.0,-3.0,-6.0,-9.0,-2.0,-1.0,1.0,1651072421419778.0,1
642,-5.0,-8.0,-22.0,-9.0,9.0,-1.0,-4.0,-1.0,1651072421420709.0,1
643,1.0,6.0,17.0,17.0,3.0,2.0,0.0,1.0,1651072421420709.0,1
644,-4.0,-9.0,-14.0,-1.0,-2.0,-4.0,-3.0,-1.0,1651072421442898.0,1
645,1.0,0.0,-9.0,2.0,-1.0,1.0,1.0,-1.0,1651072421442898.0,1
646,-2.0,-7.0,-8.0,0.0,-4.0,-3.0,0.0,-1.0,1651072421442898.0,1
647,1.0,1.0,-18.0,-16.0,0.0,0.0,-1.0,1.0,1651072421442898.0,1
648,0.0,-2.0,5.0,2.0,-3.0,2.0,2.0,0.0,1651072421456581.0,1
649,1.0,-1.0,-3.0,4.0,4.0,-1.0,-1.0,-1.0,1651072421456581.0,1
650,1.0,-3.0,-11.0,-8.0,2.0,1.0,0.0,0.0,1651072421457578.0,1
651,-1.0,4.0,22.0,4.0,2.0,0.0,0.0,-1.0,1651072421457578.0,1
652,0.0,-5.0,-13.0,-6.0,-3.0,0.0,0.0,0.0,1651072421480641.0,1
653,-2.0,3.0,8.0,2.0,0.0,-2.0,0.0,-1.0,1651072421480641.0,1
654,-1.0,-2.0,-4.0,-5.0,-1.0,0.0,1.0,-2.0,1651072421480641.0,1
655,-1.0,-2.0,-6.0,5.0,-7.0,-5.0,-1.0,-1.0,1651072421480641.0,1
656,-2.0,-1.0,-8.0,8.0,0.0,0.0,0.0,-1.0,1651072421502745.0,1
657,-3.0,3.0,1.0,13.0,1.0,0.0,-1.0,-1.0,1651072421502745.0,1
658,4.0,7.0,27.0,1.0,-5.0,1.0,1.0,2.0,1651072421503684.0,1
659,0.0,-4.0,-29.0,-25.0,-2.0,-2.0,-2.0,-1.0,1651072421503684.0,1
660,-2.0,-1.0,-3.0,-11.0,-5.0,-2.0,-1.0,0.0,1651072421516707.0,1
661,0.0,-3.0,6.0,5.0,2.0,0.0,1.0,0.0,1651072421516707.0,1
662,-1.0,-4.0,-18.0,5.0,0.0,0.0,-1.0,-1.0,1651072421524686.0,1
663,3.0,4.0,22.0,6.0,-1.0,0.0,0.0,0.0,1651072421524686.0,1
664,1.0,0.0,6.0,5.0,1.0,-1.0,1.0,1.0,1651072421539628.0,1
665,-1.0,1.0,10.0,-9.0,-4.0,-2.0,-2.0,-1.0,1651072421539628.0,1
666,0.0,-1.0,-6.0,13.0,-2.0,-4.0,0.0,-1.0,1651072421540624.0,1
667,-1.0,-2.0,-7.0,-9.0,0.0,2.0,-1.0,-1.0,1651072421540624.0,1
668,-1.0,-2.0,-11.0,1.0,-3.0,-2.0,-3.0,-2.0,1651072421563022.0,1
669,1.0,0.0,-1.0,-2.0,2.0,2.0,0.0,0.0,1651072421563022.0,1
670,-1.0,-9.0,-12.0,-6.0,3.0,-1.0,0.0,0.0,1651072421563022.0,1
671,-1.0,0.0,-1.0,-2.0,1.0,0.0,-1.0,0.0,1651072421563022.0,1
672,1.0,3.0,12.0,-1.0,-2.0,0.0,-1.0,0.0,1651072421577053.0,1
673,1.0,-3.0,-18.0,-1.0,0.0,1.0,0.0,-1.0,1651072421577053.0,1
674,0.0,-2.0,-1.0,2.0,-5.0,-2.0,0.0,-1.0,1651072421578014.0,1
675,0.0,3.0,8.0,2.0,1.0,0.0,-2.0,0.0,1651072421578014.0,1
676,-2.0,-9.0,23.0,9.0,-4.0,-4.0,-2.0,-1.0,1651072421600391.0,1
677,1.0,1.0,-15.0,-6.0,1.0,2.0,-1.0,0.0,1651072421600391.0,1
678,0.0,-1.0,-7.0,-10.0,-2.0,-2.0,0.0,-1.0,1651072421601394.0,1
679,-1.0,-1.0,1.0,7.0,-5.0,-2.0,0.0,-2.0,1651072421601394.0,1
680,2.0,7.0,7.0,-4.0,1.0,1.0,0.0,1.0,1651072421622684.0,1
681,-2.0,-13.0,-25.0,-10.0,-2.0,0.0,0.0,-1.0,1651072421622684.0,1
682,1.0,5.0,7.0,1.0,2.0,2.0,-1.0,1.0,1651072421623625.0,1
683,-1.0,1.0,3.0,5.0,-10.0,-5.0,-4.0,-2.0,1651072421623625.0,1
684,-1.0,1.0,0.0,4.0,8.0,0.0,0.0,-1.0,1651072421636647.0,1
685,1.0,5.0,7.0,2.0,-2.0,0.0,0.0,-1.0,1651072421636647.0,1
686,0.0,-6.0,-12.0,-5.0,-3.0,-2.0,-1.0,0.0,1651072421637577.0,1
687,-1.0,1.0,0.0,-8.0,4.0,3.0,1.0,1.0,1651072421637577.0,1
688,0.0,-1.0,-2.0,10.0,-4.0,0.0,-1.0,1.0,1651072421659646.0,1
689,1.0,5.0,12.0,6.0,-3.0,-1.0,0.0,2.0,1651072421659646.0,1
690,-5.0,-15.0,-1.0,-2.0,-2.0,-3.0,-1.0,-1.0,1651072421666611.0,1
691,2.0,3.0,-6.0,-5.0,2.0,0.0,0.0,1.0,1651072421666611.0,1
692,0.0,-1.0,15.0,8.0,1.0,1.0,-1.0,-2.0,1651072421683038.0,1
693,-1.0,-10.0,-13.0,-9.0,0.0,1.0,-1.0,-1.0,1651072421683038.0,1
694,0.0,5.0,-4.0,10.0,-2.0,-1.0,0.0,0.0,1651072421683038.0,1
695,-1.0,-2.0,-7.0,-22.0,-1.0,-4.0,-1.0,-1.0,1651072421683038.0,1
696,-1.0,1.0,13.0,0.0,-7.0,-3.0,-2.0,-1.0,1651072421697069.0,1
697,1.0,2.0,0.0,-2.0,-4.0,0.0,0.0,-1.0,1651072421697069.0,1
698,-2.0,1.0,-4.0,-2.0,2.0,-2.0,-2.0,-1.0,1651072421698027.0,1
699,0.0,-5.0,-7.0,6.0,11.0,8.0,3.0,1.0,1651072421698027.0,1
700,2.0,6.0,-2.0,-3.0,11.0,3.0,2.0,1.0,1651072421719934.0,1
701,-4.0,-10.0,-19.0,-10.0,-7.0,-3.0,-1.0,-1.0,1651072421719934.0,1
702,-1.0,0.0,7.0,0.0,-7.0,-4.0,-1.0,-2.0,1651072421720864.0,1
703,1.0,-1.0,-3.0,3.0,-5.0,-4.0,-2.0,1.0,1651072421720864.0,1
704,0.0,-3.0,-16.0,-7.0,2.0,-1.0,0.0,2.0,1651072421742541.0,1
705,2.0,9.0,3.0,3.0,1.0,0.0,-1.0,-2.0,1651072421742541.0,1
706,-2.0,-2.0,7.0,-3.0,-2.0,1.0,-1.0,-1.0,1651072421743566.0,1
707,1.0,3.0,6.0,8.0,3.0,1.0,-1.0,-1.0,1651072421743566.0,1
708,-1.0,-7.0,-13.0,-5.0,-3.0,0.0,0.0,1.0,1651072421756571.0,1
709,-1.0,3.0,3.0,1.0,0.0,-3.0,0.0,0.0,1651072421756571.0,0
710,1.0,2.0,-4.0,-2.0,0.0,5.0,1.0,1.0,1651072421757501.0,0
711,1.0,2.0,5.0,8.0,2.0,-2.0,0.0,-2.0,1651072421757501.0,0
712,1.0,2.0,-2.0,-9.0,5.0,3.0,0.0,-1.0,1651072421787709.0,0
713,-2.0,-2.0,6.0,13.0,-10.0,-4.0,-1.0,0.0,1651072421787709.0,0
714,-1.0,0.0,-5.0,-7.0,12.0,5.0,0.0,0.0,1651072421788668.0,0
715,-1.0,-8.0,-8.0,4.0,-3.0,1.0,-1.0,0.0,1651072421788668.0,0
716,1.0,2.0,-1.0,-6.0,-4.0,-5.0,-1.0,-1.0,1651072421803058.0,0
717,0.0,-2.0,-4.0,-4.0,-5.0,-3.0,-1.0,-1.0,1651072421803058.0,0
718,0.0,-4.0,4.0,-5.0,-3.0,-3.0,-4.0,-1.0,1651072421803058.0,0
719,-1.0,0.0,1.0,4.0,-1.0,-2.0,-1.0,0.0,1651072421803058.0,0
720,-2.0,0.0,11.0,4.0,7.0,8.0,3.0,-2.0,1651072421816626.0,0
721,0.0,3.0,10.0,3.0,7.0,-1.0,-1.0,0.0,1651072421816626.0,0
722,0.0,-3.0,-8.0,-10.0,5.0,9.0,-1.0,1.0,1651072421817571.0,0
723,2.0,7.0,1.0,2.0,-3.0,-3.0,-3.0,-1.0,1651072421817571.0,0
724,-1.0,-3.0,-2.0,0.0,-11.0,-4.0,-2.0,-1.0,1651072421840538.0,0
725,-4.0,-10.0,-12.0,1.0,2.0,-2.0,0.0,-1.0,1651072421840538.0,0
726,0.0,4.0,0.0,-2.0,-8.0,-7.0,0.0,-2.0,1651072421840538.0,0
727,-1.0,-2.0,3.0,-4.0,-2.0,0.0,1.0,-1.0,1651072421840538.0,0
728,1.0,1.0,-5.0,-13.0,-6.0,-2.0,-2.0,-1.0,1651072421862645.0,0
729,1.0,1.0,2.0,9.0,12.0,6.0,0.0,0.0,1651072421862645.0,0
730,0.0,-2.0,-3.0,5.0,0.0,-4.0,-1.0,-1.0,1651072421863584.0,0
731,-1.0,-2.0,-4.0,-7.0,-8.0,0.0,1.0,0.0,1651072421863584.0,0
732,-3.0,0.0,4.0,8.0,-8.0,-7.0,-3.0,-1.0,1651072421876608.0,0
733,-1.0,0.0,-1.0,-5.0,15.0,6.0,2.0,0.0,1651072421876608.0,0
734,0.0,5.0,13.0,1.0,-13.0,-7.0,-2.0,-1.0,1651072421877546.0,0
735,0.0,-6.0,-3.0,-2.0,9.0,2.0,-2.0,-2.0,1651072421877546.0,0
736,-1.0,-1.0,-3.0,0.0,4.0,3.0,1.0,1.0,1651072421900546.0,0
737,1.0,2.0,1.0,-1.0,-4.0,-3.0,-1.0,0.0,1651072421900546.0,0
738,0.0,0.0,-1.0,4.0,-4.0,-4.0,1.0,-1.0,1651072421900546.0,0
739,-2.0,0.0,-3.0,-2.0,-13.0,-3.0,1.0,-1.0,1651072421900546.0,0
740,-1.0,-3.0,-6.0,-8.0,2.0,-4.0,-2.0,-1.0,1651072421922647.0,0
741,-1.0,1.0,25.0,-9.0,1.0,1.0,-2.0,-1.0,1651072421922647.0,0
742,1.0,2.0,-4.0,19.0,6.0,1.0,2.0,0.0,1651072421923608.0,0
743,-2.0,1.0,0.0,-4.0,-14.0,-6.0,0.0,-1.0,1651072421923608.0,0
744,-1.0,-2.0,-9.0,2.0,7.0,0.0,-1.0,-2.0,1651072421936581.0,0
745,0.0,2.0,1.0,-6.0,-5.0,2.0,1.0,0.0,1651072421936581.0,0
746,-1.0,-1.0,-2.0,-12.0,-1.0,-3.0,0.0,1.0,1651072421944560.0,0
747,0.0,-1.0,2.0,2.0,11.0,3.0,1.0,2.0,1651072421944560.0,0
748,1.0,-2.0,-1.0,6.0,-6.0,0.0,1.0,1.0,1651072421960600.0,0
749,-2.0,-1.0,-3.0,-14.0,-11.0,-7.0,-2.0,0.0,1651072421960600.0,0
750,-2.0,0.0,1.0,3.0,-9.0,-2.0,-2.0,-3.0,1651072421960600.0,0
751,0.0,-4.0,-3.0,10.0,5.0,-1.0,-3.0,-1.0,1651072421960600.0,0
752,-1.0,2.0,0.0,-3.0,-3.0,0.0,0.0,0.0,1651072421982753.0,0
753,0.0,-2.0,-1.0,1.0,-1.0,1.0,0.0,-1.0,1651072421982753.0,0
754,0.0,1.0,-5.0,-4.0,1.0,1.0,-1.0,-3.0,1651072421983711.0,0
755,-2.0,-2.0,3.0,-2.0,-4.0,-6.0,-1.0,-2.0,1651072421983711.0,0
756,1.0,-1.0,6.0,-3.0,4.0,2.0,1.0,4.0,1651072421996715.0,0
757,1.0,0.0,-3.0,15.0,1.0,4.0,1.0,0.0,1651072421996715.0,0
758,1.0,3.0,1.0,0.0,12.0,7.0,3.0,2.0,1651072422004572.0,0
759,-2.0,-2.0,4.0,0.0,-2.0,-2.0,-1.0,-1.0,1651072422004572.0,0
760,-1.0,2.0,-4.0,-6.0,-6.0,-2.0,0.0,-1.0,1651072422019708.0,0
761,-2.0,-1.0,5.0,7.0,-3.0,-7.0,-3.0,0.0,1651072422019708.0,0
762,2.0,0.0,-11.0,-8.0,4.0,4.0,0.0,3.0,1651072422020708.0,0
763,-1.0,-5.0,-2.0,14.0,1.0,2.0,0.0,0.0,1651072422020708.0,0
764,1.0,-4.0,-2.0,1.0,-5.0,-1.0,-2.0,-1.0,1651072422042751.0,0
765,0.0,-1.0,0.0,-17.0,-7.0,-2.0,1.0,1.0,1651072422042751.0,0
766,-5.0,-2.0,-19.0,-3.0,-6.0,-5.0,-5.0,0.0,1651072422043710.0,0
767,0.0,-7.0,-3.0,11.0,7.0,2.0,2.0,1.0,1651072422043710.0,0
768,2.0,3.0,-2.0,-16.0,1.0,1.0,-1.0,-1.0,1651072422056647.0,0
769,-2.0,-3.0,-11.0,3.0,-6.0,-1.0,-4.0,-2.0,1651072422056647.0,0
770,-6.0,-5.0,3.0,-6.0,-5.0,-3.0,-5.0,-9.0,1651072422064693.0,0
771,-3.0,1.0,10.0,17.0,0.0,-2.0,-1.0,2.0,1651072422064693.0,0
772,8.0,2.0,-3.0,0.0,12.0,6.0,4.0,6.0,1651072422080592.0,0
773,4.0,0.0,-7.0,7.0,14.0,4.0,3.0,0.0,1651072422080592.0,0
774,2.0,0.0,10.0,9.0,-7.0,-4.0,0.0,1.0,1651072422080592.0,0
775,1.0,16.0,5.0,-10.0,-9.0,-3.0,-4.0,-2.0,1651072422080592.0,0
776,-19.0,-20.0,-1.0,5.0,-10.0,-5.0,-7.0,-14.0,1651072422110501.0,0
777,-2.0,0.0,2.0,-8.0,5.0,1.0,0.0,2.0,1651072422110501.0,0
778,6.0,-6.0,-2.0,-8.0,6.0,4.0,6.0,10.0,1651072422110501.0,0
779,-1.0,11.0,0.0,-8.0,1.0,0.0,-1.0,-6.0,1651072422110501.0,0
780,4.0,9.0,6.0,17.0,-2.0,0.0,-2.0,1.0,1651072422116445.0,0
781,-12.0,-5.0,-6.0,-5.0,1.0,2.0,1.0,-3.0,1651072422116445.0,0
782,-2.0,-13.0,-6.0,-2.0,-12.0,-7.0,-6.0,-9.0,1651072422124463.0,0
783,10.0,1.0,7.0,-17.0,0.0,1.0,2.0,8.0,1651072422124463.0,0
784,9.0,-10.0,0.0,28.0,12.0,1.0,2.0,7.0,1651072422139540.0,0
785,7.0,-17.0,-13.0,-3.0,-5.0,-4.0,-5.0,-1.0,1651072422139540.0,0
786,58.0,22.0,12.0,-2.0,2.0,2.0,0.0,2.0,1651072422140494.0,0
787,-94.0,-23.0,-13.0,-22.0,-6.0,1.0,-1.0,-10.0,1651072422140494.0,0
788,-6.0,-38.0,18.0,10.0,3.0,1.0,-2.0,-5.0,1651072422162532.0,2
789,26.0,84.0,-12.0,-9.0,-3.0,1.0,2.0,7.0,1651072422162532.0,2
790,-13.0,-42.0,-14.0,-19.0,-9.0,-6.0,-9.0,-8.0,1651072422163461.0,2
791,35.0,13.0,6.0,4.0,12.0,2.0,4.0,8.0,1651072422163461.0,2
792,-6.0,28.0,6.0,26.0,0.0,-4.0,-3.0,-10.0,1651072422176575.0,2
793,-30.0,24.0,16.0,11.0,-3.0,-6.0,-12.0,-19.0,1651072422176575.0,2
794,9.0,-30.0,-12.0,-18.0,-2.0,2.0,6.0,10.0,1651072422184624.0,2
795,-25.0,-81.0,-41.0,-4.0,-10.0,-7.0,-7.0,0.0,1651072422184624.0,2
796,6.0,90.0,29.0,-11.0,8.0,6.0,3.0,-6.0,1651072422199517.0,2
797,46.0,-25.0,8.0,-15.0,-2.0,8.0,10.0,16.0,1651072422199517.0,2
798,-15.0,77.0,1.0,39.0,14.0,0.0,-1.0,7.0,1651072422200541.0,2
799,11.0,-7.0,7.0,-10.0,-3.0,-6.0,-2.0,5.0,1651072422200541.0,2
800,-10.0,-49.0,-6.0,-9.0,-8.0,-4.0,-4.0,-4.0,1651072422222751.0,2
801,-63.0,-71.0,-20.0,-2.0,-7.0,-10.0,-11.0,-20.0,1651072422222751.0,2
802,4.0,56.0,2.0,-9.0,-9.0,3.0,0.0,-5.0,1651072422223680.0,2
803,6.0,-25.0,-10.0,10.0,4.0,-7.0,-2.0,-4.0,1651072422223680.0,2
804,10.0,66.0,17.0,11.0,24.0,22.0,6.0,7.0,1651072422244774.0,2
805,12.0,-52.0,-22.0,-12.0,-12.0,-2.0,4.0,6.0,1651072422244774.0,2
806,-46.0,-4.0,-19.0,-18.0,-47.0,-24.0,-15.0,-25.0,1651072422245704.0,2
807,-6.0,85.0,18.0,8.0,22.0,2.0,-2.0,-11.0,1651072422245704.0,2
808,27.0,-110.0,-51.0,-13.0,-11.0,19.0,17.0,46.0,1651072422259838.0,2
809,5.0,83.0,3.0,21.0,60.0,12.0,7.0,9.0,1651072422259838.0,2
810,15.0,62.0,5.0,-8.0,-8.0,-4.0,2.0,8.0,1651072422259838.0,2
811,-16.0,-89.0,41.0,7.0,-87.0,-39.0,-21.0,-30.0,1651072422259838.0,2
812,-21.0,-3.0,71.0,-2.0,8.0,3.0,-2.0,-9.0,1651072422282827.0,2
813,14.0,-67.0,-15.0,-7.0,-8.0,-7.0,-4.0,2.0,1651072422282827.0,2
814,-12.0,8.0,-5.0,-1.0,32.0,3.0,-5.0,-2.0,1651072422283827.0,2
815,34.0,91.0,25.0,3.0,11.0,18.0,11.0,14.0,1651072422283827.0,2
816,-37.0,-84.0,-73.0,-8.0,-17.0,-15.0,-7.0,-18.0,1651072422305143.0,2
817,-21.0,-27.0,88.0,9.0,-41.0,-17.0,-7.0,-7.0,1651072422305143.0,2
818,38.0,33.0,-28.0,1.0,44.0,17.0,11.0,17.0,1651072422306101.0,2
819,-43.0,-69.0,-31.0,-12.0,4.0,0.0,-8.0,-39.0,1651072422306101.0,2
820,12.0,51.0,-38.0,1.0,7.0,-16.0,-8.0,-51.0,1651072422319040.0,2
821,-8.0,5.0,-4.0,1.0,43.0,40.0,6.0,57.0,1651072422319040.0,2
822,22.0,-21.0,60.0,21.0,-11.0,1.0,9.0,20.0,1651072422320037.0,2
823,27.0,45.0,-38.0,1.0,14.0,7.0,8.0,31.0,1651072422320037.0,2
824,-14.0,40.0,-15.0,-16.0,-18.0,-21.0,-10.0,-27.0,1651072422342194.0,2
825,-36.0,-87.0,-6.0,2.0,-2.0,-7.0,-6.0,-46.0,1651072422342194.0,2
826,-7.0,50.0,22.0,3.0,-5.0,5.0,1.0,-5.0,1651072422343128.0,2
827,22.0,32.0,20.0,5.0,4.0,10.0,11.0,35.0,1651072422343128.0,2
828,5.0,44.0,-26.0,-10.0,-7.0,-6.0,-6.0,4.0,1651072422364745.0,2
829,13.0,12.0,11.0,-11.0,-32.0,-17.0,-2.0,5.0,1651072422364745.0,2
830,-10.0,-66.0,-4.0,13.0,21.0,10.0,2.0,10.0,1651072422365673.0,2
831,29.0,77.0,-1.0,-4.0,-9.0,-9.0,0.0,-17.0,1651072422365673.0,2
832,-16.0,-30.0,-18.0,-5.0,-4.0,-5.0,-6.0,-6.0,1651072422387682.0,2
833,-11.0,27.0,42.0,3.0,35.0,21.0,0.0,1.0,1651072422387682.0,2
834,7.0,-53.0,-21.0,1.0,-46.0,-11.0,5.0,-8.0,1651072422388642.0,2
835,-9.0,31.0,-40.0,-5.0,62.0,16.0,0.0,-20.0,1651072422388642.0,2
836,28.0,-6.0,65.0,-2.0,-22.0,-7.0,2.0,58.0,1651072422402602.0,2
837,37.0,70.0,-59.0,-8.0,-21.0,-3.0,11.0,-9.0,1651072422402602.0,2
838,-46.0,-47.0,22.0,-11.0,-18.0,-16.0,-25.0,-33.0,1651072422403572.0,2
839,9.0,-52.0,56.0,16.0,7.0,5.0,14.0,47.0,1651072422403572.0,2
840,-2.0,35.0,17.0,-4.0,20.0,12.0,7.0,-9.0,1651072422424687.0,2
841,-7.0,-19.0,-9.0,14.0,16.0,4.0,3.0,-20.0,1651072422424687.0,2
842,-19.0,-7.0,-31.0,-14.0,-26.0,-19.0,-19.0,-39.0,1651072422425696.0,2
843,21.0,-13.0,-64.0,-2.0,17.0,5.0,-13.0,-28.0,1651072422425696.0,2
844,3.0,89.0,49.0,9.0,-26.0,-4.0,6.0,34.0,1651072422439645.0,2
845,-2.0,-7.0,-48.0,-7.0,35.0,1.0,5.0,5.0,1651072422439645.0,2
846,19.0,4.0,27.0,12.0,19.0,14.0,10.0,45.0,1651072422440600.0,2
847,-8.0,-9.0,15.0,-9.0,-22.0,-10.0,-3.0,-2.0,1651072422440600.0,2
848,4.0,-83.0,-19.0,6.0,8.0,6.0,0.0,-23.0,1651072422462855.0,2
849,-37.0,-44.0,-42.0,-10.0,-57.0,-21.0,-13.0,-26.0,1651072422462855.0,2
850,32.0,73.0,-5.0,-13.0,1.0,3.0,3.0,34.0,1651072422462855.0,2
851,3.0,-69.0,7.0,7.0,25.0,12.0,10.0,10.0,1651072422462855.0,2
852,-10.0,19.0,-66.0,-20.0,-15.0,-14.0,-7.0,-3.0,1651072422484996.0,2
853,-1.0,-14.0,60.0,17.0,-3.0,6.0,-2.0,-13.0,1651072422484996.0,2
854,-18.0,-48.0,-23.0,-3.0,12.0,-6.0,-4.0,-23.0,1651072422486924.0,2
855,13.0,68.0,37.0,2.0,-22.0,-4.0,4.0,25.0,1651072422486924.0,2
856,-25.0,-40.0,-19.0,-10.0,0.0,-2.0,-5.0,-13.0,1651072422499893.0,2
857,27.0,-14.0,34.0,9.0,8.0,2.0,5.0,16.0,1651072422499893.0,2
858,-14.0,-56.0,-50.0,5.0,32.0,10.0,9.0,-9.0,1651072422499893.0,2
859,-7.0,54.0,8.0,-8.0,-9.0,-1.0,-12.0,-12.0,1651072422499893.0,2
860,13.0,43.0,57.0,9.0,-2.0,0.0,5.0,6.0,1651072422522895.0,2
861,14.0,22.0,-43.0,-11.0,-9.0,-3.0,-1.0,10.0,1651072422522895.0,2
862,12.0,-14.0,55.0,16.0,4.0,6.0,13.0,42.0,1651072422522895.0,2
863,-19.0,-62.0,-69.0,-11.0,-7.0,-6.0,-7.0,-10.0,1651072422522895.0,2
864,2.0,31.0,22.0,-1.0,20.0,5.0,-1.0,-6.0,1651072422544681.0,2
865,-24.0,-67.0,-14.0,-11.0,-21.0,-12.0,-7.0,-9.0,1651072422544681.0,2
866,27.0,61.0,-7.0,1.0,4.0,8.0,9.0,-7.0,1651072422545690.0,2
867,-28.0,-23.0,37.0,5.0,4.0,-6.0,-5.0,-7.0,1651072422545690.0,2
868,31.0,-12.0,4.0,4.0,-9.0,0.0,6.0,12.0,1651072422559755.0,2
869,-5.0,39.0,-6.0,-1.0,-4.0,-4.0,-4.0,0.0,1651072422559755.0,2
870,-15.0,-28.0,-9.0,-7.0,-8.0,-2.0,-1.0,-10.0,1651072422559755.0,2
871,-3.0,8.0,-22.0,0.0,-2.0,-1.0,-2.0,-6.0,1651072422559755.0,2
872,18.0,4.0,2.0,5.0,25.0,20.0,4.0,4.0,1651072422582953.0,2
873,8.0,-2.0,-12.0,4.0,-9.0,-2.0,1.0,-5.0,1651072422582953.0,2
874,-14.0,12.0,34.0,6.0,0.0,-6.0,-2.0,6.0,1651072422583956.0,2
875,2.0,45.0,5.0,-10.0,-20.0,-8.0,0.0,-3.0,1651072422583956.0,2
876,-12.0,-35.0,-12.0,9.0,25.0,14.0,3.0,-1.0,1651072422605610.0,2
877,3.0,50.0,-14.0,3.0,25.0,0.0,-2.0,3.0,1651072422605610.0,2
878,3.0,-11.0,-2.0,-2.0,-11.0,1.0,0.0,-18.0,1651072422605610.0,2
879,-5.0,-27.0,23.0,-11.0,-41.0,-19.0,-1.0,3.0,1651072422605610.0,2
880,9.0,-42.0,-42.0,1.0,23.0,13.0,6.0,22.0,1651072422619605.0,2
881,3.0,20.0,19.0,7.0,1.0,1.0,-2.0,2.0,1651072422619605.0,2
882,-30.0,-79.0,3.0,0.0,2.0,1.0,-3.0,-13.0,1651072422620599.0,2
883,49.0,97.0,12.0,5.0,0.0,11.0,9.0,8.0,1651072422620599.0,2
884,-8.0,-7.0,59.0,7.0,13.0,-2.0,-4.0,-3.0,1651072422642511.0,2
885,-25.0,5.0,-7.0,-9.0,-27.0,-6.0,1.0,-20.0,1651072422642511.0,2
886,24.0,-22.0,-30.0,-6.0,9.0,1.0,-2.0,37.0,1651072422643536.0,2
887,9.0,26.0,29.0,17.0,10.0,10.0,3.0,-2.0,1651072422643536.0,2
888,-3.0,1.0,-47.0,-13.0,-10.0,-5.0,1.0,2.0,1651072422665741.0,2
889,7.0,-14.0,21.0,0.0,7.0,0.0,-3.0,-8.0,1651072422665741.0,2
890,-23.0,-34.0,2.0,4.0,12.0,3.0,0.0,-17.0,1651072422666700.0,2
891,-3.0,27.0,-6.0,-9.0,-28.0,-3.0,-3.0,8.0,1651072422666700.0,2
892,9.0,-42.0,42.0,7.0,17.0,-4.0,1.0,-7.0,1651072422679703.0,2
893,18.0,105.0,17.0,-5.0,-17.0,-10.0,-2.0,13.0,1651072422679703.0,2
894,1.0,43.0,22.0,1.0,2.0,8.0,0.0,-6.0,1651072422680659.0,2
895,1.0,-71.0,-32.0,5.0,12.0,3.0,5.0,14.0,1651072422680659.0,2
896,-38.0,16.0,18.0,-5.0,-14.0,-10.0,-13.0,-20.0,1651072422702470.0,2
897,25.0,1.0,-42.0,-10.0,-11.0,-5.0,2.0,16.0,1651072422702470.0,2
898,15.0,24.0,15.0,6.0,-13.0,-3.0,3.0,0.0,1651072422703480.0,2
899,-22.0,-23.0,9.0,2.0,45.0,10.0,-5.0,-11.0,1651072422703480.0,2
900,0.0,14.0,-35.0,-10.0,-26.0,-12.0,-5.0,-7.0,1651072422725509.0,2
901,-5.0,4.0,48.0,-2.0,-10.0,-5.0,-3.0,6.0,1651072422725509.0,2
902,-7.0,31.0,-9.0,2.0,8.0,2.0,1.0,-11.0,1651072422727504.0,2
903,6.0,-40.0,-2.0,-3.0,-8.0,-6.0,-2.0,0.0,1651072422727504.0,2
904,-2.0,-9.0,-24.0,-2.0,-6.0,-1.0,-1.0,-4.0,1651072422738547.0,2
905,14.0,-21.0,39.0,11.0,21.0,11.0,2.0,6.0,1651072422738547.0,2
906,-14.0,-61.0,-48.0,-17.0,-39.0,-13.0,-4.0,-17.0,1651072422747468.0,2
907,20.0,37.0,36.0,9.0,25.0,15.0,9.0,32.0,1651072422747468.0,2
908,-6.0,-12.0,-31.0,0.0,24.0,3.0,2.0,4.0,1651072422762476.0,2
909,-17.0,17.0,-12.0,-7.0,-22.0,-13.0,-14.0,-20.0,1651072422762476.0,2
910,-6.0,8.0,32.0,6.0,-8.0,-4.0,-5.0,-10.0,1651072422764432.0,2
911,-24.0,-23.0,10.0,-3.0,2.0,-2.0,-7.0,-37.0,1651072422764432.0,2
912,22.0,-13.0,-25.0,2.0,-8.0,-2.0,1.0,27.0,1651072422785415.0,2
913,-15.0,-31.0,-25.0,4.0,5.0,7.0,6.0,2.0,1651072422785415.0,2
914,-2.0,12.0,6.0,-8.0,24.0,4.0,-1.0,2.0,1651072422786347.0,2
915,2.0,29.0,-12.0,-10.0,-40.0,-21.0,-11.0,-12.0,1651072422786347.0,2
916,-13.0,-41.0,-18.0,-2.0,15.0,4.0,1.0,-4.0,1651072422798381.0,2
917,18.0,22.0,38.0,4.0,-7.0,-5.0,1.0,2.0,1651072422798381.0,2
918,-3.0,-2.0,6.0,7.0,17.0,3.0,2.0,17.0,1651072422807669.0,2
919,-28.0,-46.0,-19.0,-7.0,-22.0,-6.0,-9.0,-27.0,1651072422807669.0,2
920,0.0,34.0,63.0,10.0,0.0,3.0,3.0,3.0,1651072422821681.0,2
921,13.0,-39.0,-75.0,-22.0,-12.0,-4.0,4.0,18.0,1651072422821681.0,2
922,-2.0,-23.0,62.0,3.0,-5.0,-4.0,-6.0,-3.0,1651072422830660.0,2
923,6.0,7.0,-40.0,4.0,30.0,9.0,8.0,5.0,1651072422830660.0,2
924,-12.0,2.0,61.0,-1.0,-17.0,4.0,-4.0,-14.0,1651072422845620.0,2
925,-18.0,-36.0,-49.0,-1.0,16.0,9.0,3.0,-1.0,1651072422845620.0,2
926,16.0,60.0,-16.0,-10.0,-17.0,-9.0,-6.0,-1.0,1651072422846617.0,2
927,1.0,1.0,25.0,4.0,2.0,1.0,0.0,3.0,1651072422846617.0,2
928,-10.0,-28.0,-13.0,-8.0,-13.0,-16.0,-5.0,-8.0,1651072422858698.0,2
929,9.0,26.0,25.0,10.0,28.0,12.0,4.0,5.0,1651072422858698.0,2
930,-10.0,-38.0,-45.0,-6.0,-13.0,-3.0,-1.0,0.0,1651072422867645.0,2
931,12.0,25.0,31.0,2.0,-12.0,-6.0,2.0,7.0,1651072422867645.0,2
932,15.0,26.0,-1.0,-7.0,4.0,-1.0,0.0,11.0,1651072422882804.0,2
933,5.0,0.0,-8.0,-3.0,-28.0,-4.0,-3.0,-17.0,1651072422882804.0,2
934,0.0,12.0,-6.0,6.0,35.0,1.0,-2.0,3.0,1651072422883752.0,2
935,-4.0,-22.0,-6.0,7.0,4.0,3.0,-1.0,-12.0,1651072422883752.0,2
936,2.0,12.0,28.0,-9.0,-14.0,-4.0,2.0,6.0,1651072422905588.0,2
937,8.0,-15.0,29.0,1.0,-1.0,-8.0,2.0,30.0,1651072422905588.0,2
938,3.0,38.0,-7.0,-6.0,-4.0,3.0,0.0,-11.0,1651072422906383.0,2
939,-15.0,-53.0,-36.0,1.0,5.0,-2.0,1.0,2.0,1651072422906383.0,2
940,23.0,34.0,21.0,3.0,-8.0,7.0,3.0,-3.0,1651072422918409.0,2
941,-7.0,8.0,-14.0,5.0,15.0,1.0,-5.0,-15.0,1651072422918409.0,2
942,-10.0,-12.0,-35.0,-6.0,-12.0,0.0,-7.0,-9.0,1651072422927318.0,2
943,14.0,26.0,23.0,-6.0,-19.0,-9.0,2.0,17.0,1651072422927318.0,2
944,-7.0,-20.0,-34.0,4.0,33.0,9.0,2.0,15.0,1651072422943471.0,2
945,0.0,-31.0,43.0,9.0,8.0,3.0,5.0,7.0,1651072422943471.0,2
946,2.0,45.0,44.0,3.0,-9.0,2.0,4.0,5.0,1651072422944473.0,2
947,-9.0,-51.0,-53.0,-13.0,1.0,-12.0,-7.0,-24.0,1651072422944473.0,2
948,-13.0,-34.0,-28.0,0.0,-2.0,5.0,-2.0,-6.0,1651072422964716.0,2
949,14.0,63.0,44.0,8.0,12.0,7.0,1.0,3.0,1651072422964716.0,2
950,-13.0,-14.0,-34.0,-4.0,-10.0,-9.0,-5.0,-5.0,1651072422966684.0,2
951,4.0,8.0,14.0,-1.0,-5.0,6.0,0.0,-3.0,1651072422966684.0,2
952,-4.0,-15.0,-72.0,-14.0,-12.0,-9.0,-4.0,-7.0,1651072422978719.0,2
953,-7.0,-38.0,-19.0,2.0,34.0,8.0,3.0,9.0,1651072422978719.0,2
954,-3.0,13.0,7.0,4.0,-3.0,1.0,0.0,-21.0,1651072422987630.0,2
955,27.0,47.0,36.0,3.0,-13.0,-2.0,7.0,42.0,1651072422987630.0,2
956,0.0,26.0,34.0,4.0,7.0,4.0,1.0,-1.0,1651072423002809.0,2
957,-16.0,-24.0,-81.0,-5.0,-18.0,-6.0,-7.0,-24.0,1651072423002809.0,2
958,9.0,-32.0,25.0,1.0,9.0,-7.0,5.0,10.0,1651072423003829.0,2
959,-14.0,-62.0,-9.0,6.0,25.0,13.0,2.0,3.0,1651072423003829.0,2
960,5.0,66.0,70.0,6.0,-15.0,-5.0,-2.0,-7.0,1651072423025750.0,2
961,8.0,24.0,-50.0,-12.0,1.0,-6.0,-2.0,10.0,1651072423025750.0,2
962,-12.0,-32.0,4.0,2.0,-10.0,1.0,-4.0,-13.0,1651072423026776.0,2
963,-2.0,27.0,4.0,1.0,2.0,3.0,0.0,-6.0,1651072423026776.0,2
964,-16.0,-61.0,-8.0,-1.0,-11.0,-7.0,-5.0,-4.0,1651072423038781.0,2
965,16.0,53.0,58.0,6.0,-11.0,1.0,6.0,4.0,1651072423038781.0,2
966,-11.0,-71.0,-12.0,4.0,21.0,5.0,2.0,16.0,1651072423047691.0,2
967,8.0,17.0,10.0,-12.0,-29.0,-12.0,-1.0,-3.0,1651072423047691.0,2
968,25.0,54.0,-24.0,4.0,24.0,17.0,9.0,1.0,1651072423062733.0,2
969,-19.0,-24.0,24.0,4.0,-7.0,-8.0,-7.0,-2.0,1651072423062733.0,2
970,-2.0,12.0,7.0,-3.0,-9.0,-1.0,-1.0,-7.0,1651072423064695.0,2
971,1.0,-28.0,-23.0,1.0,25.0,8.0,4.0,6.0,1651072423064695.0,2
972,-23.0,-33.0,-6.0,-7.0,-43.0,-21.0,-9.0,-16.0,1651072423084839.0,2
973,12.0,23.0,-1.0,-4.0,10.0,10.0,1.0,7.0,1651072423084839.0,2
974,15.0,15.0,-12.0,11.0,41.0,22.0,6.0,4.0,1651072423086766.0,2
975,-15.0,-34.0,1.0,3.0,-5.0,-3.0,-4.0,-28.0,1651072423086766.0,2
976,2.0,6.0,-29.0,-14.0,-18.0,-12.0,-3.0,20.0,1651072423098798.0,2
977,-9.0,-39.0,-22.0,-1.0,-1.0,-1.0,2.0,-5.0,1651072423098798.0,2
978,5.0,-19.0,-5.0,-3.0,-29.0,-14.0,-5.0,4.0,1651072423107710.0,2
979,-3.0,22.0,-9.0,-1.0,-1.0,2.0,0.0,-3.0,1651072423107710.0,2
980,-4.0,4.0,41.0,14.0,34.0,12.0,5.0,0.0,1651072423122932.0,2
981,-4.0,-19.0,62.0,-1.0,-7.0,-6.0,-11.0,-37.0,1651072423122932.0,2
982,0.0,-8.0,-3.0,-9.0,-15.0,-5.0,4.0,20.0,1651072423123927.0,2
983,-1.0,-39.0,41.0,13.0,10.0,5.0,3.0,17.0,1651072423123927.0,2
984,-8.0,33.0,-48.0,-13.0,-45.0,-17.0,-5.0,-6.0,1651072423144804.0,2
985,28.0,44.0,-6.0,9.0,54.0,30.0,9.0,12.0,1651072423144804.0,2
986,4.0,35.0,-11.0,-7.0,-11.0,-5.0,-3.0,-12.0,1651072423146732.0,2
987,-5.0,-7.0,6.0,-1.0,9.0,-4.0,-4.0,-3.0,1651072423146732.0,2
988,9.0,-17.0,-8.0,11.0,-48.0,-2.0,3.0,3.0,1651072423158704.0,2
989,-8.0,3.0,-4.0,3.0,43.0,11.0,3.0,-2.0,1651072423158704.0,2
990,-6.0,-17.0,-43.0,-7.0,-3.0,-4.0,-3.0,-5.0,1651072423167675.0,2
991,10.0,53.0,5.0,-1.0,0.0,5.0,4.0,8.0,1651072423167675.0,2
992,-2.0,-11.0,9.0,-2.0,-6.0,-6.0,-3.0,-6.0,1651072423182776.0,2
993,-16.0,-25.0,19.0,-3.0,-31.0,-14.0,-5.0,-7.0,1651072423182776.0,2
994,13.0,2.0,0.0,5.0,14.0,11.0,11.0,16.0,1651072423183734.0,2
995,-5.0,51.0,-13.0,-8.0,-10.0,-6.0,-8.0,-13.0,1651072423183734.0,2
996,-6.0,-40.0,-10.0,-5.0,19.0,0.0,-3.0,-8.0,1651072423205480.0,2
997,-4.0,19.0,17.0,-2.0,-16.0,-4.0,-1.0,-5.0,1651072423205480.0,2
998,-3.0,-30.0,-9.0,3.0,6.0,1.0,1.0,10.0,1651072423206410.0,2
999,-6.0,2.0,-13.0,-3.0,-15.0,-4.0,-5.0,-6.0,1651072423206410.0,2
1000,14.0,8.0,16.0,-3.0,8.0,3.0,3.0,6.0,1651072423227103.0,2
1001,-4.0,21.0,-25.0,-2.0,-2.0,-3.0,-3.0,-1.0,1651072423227103.0,2
1002,-1.0,32.0,74.0,7.0,-19.0,-12.0,-3.0,-20.0,1651072423229102.0,2
1003,-14.0,-63.0,-59.0,-8.0,4.0,5.0,3.0,14.0,1651072423229102.0,2
1004,25.0,33.0,-2.0,5.0,20.0,9.0,5.0,20.0,1651072423242122.0,2
1005,-10.0,10.0,-2.0,-6.0,-20.0,-10.0,-6.0,-3.0,1651072423242122.0,2
1006,-11.0,-14.0,-11.0,-5.0,-8.0,-9.0,-9.0,-17.0,1651072423249106.0,2
1007,2.0,16.0,25.0,4.0,-10.0,-3.0,0.0,0.0,1651072423249106.0,2
1008,-18.0,-29.0,1.0,0.0,18.0,4.0,-3.0,-11.0,1651072423265225.0,2
1009,-6.0,-14.0,-1.0,-2.0,-16.0,-7.0,1.0,-4.0,1651072423265225.0,2
1010,1.0,6.0,25.0,-6.0,-40.0,-8.0,0.0,5.0,1651072423267148.0,2
1011,-1.0,-1.0,-25.0,-5.0,37.0,-1.0,-2.0,4.0,1651072423267148.0,2
1012,11.0,-43.0,-5.0,8.0,25.0,15.0,6.0,21.0,1651072423287094.0,2
1013,9.0,89.0,8.0,4.0,1.0,-3.0,0.0,-1.0,1651072423287094.0,2
1014,-15.0,-44.0,-21.0,-5.0,11.0,2.0,-2.0,-7.0,1651072423289096.0,2
1015,-9.0,-20.0,-5.0,-3.0,-28.0,-8.0,-5.0,-9.0,1651072423289096.0,2
1016,-5.0,6.0,7.0,-6.0,-13.0,-8.0,-6.0,-11.0,1651072423303177.0,2
1017,-11.0,-28.0,6.0,-2.0,0.0,0.0,-2.0,1.0,1651072423303177.0,2
1018,21.0,2.0,8.0,7.0,9.0,9.0,8.0,14.0,1651072423304195.0,2
1019,1.0,8.0,-29.0,-8.0,-4.0,-3.0,-2.0,-3.0,1651072423304195.0,2
1020,-2.0,14.0,11.0,2.0,9.0,-2.0,-3.0,-9.0,1651072423324680.0,2
1021,-2.0,-36.0,19.0,2.0,-7.0,0.0,1.0,2.0,1651072423324680.0,2
1022,6.0,28.0,-33.0,1.0,11.0,1.0,-3.0,-2.0,1651072423326677.0,2
1023,20.0,20.0,4.0,-4.0,-12.0,0.0,8.0,22.0,1651072423326677.0,2
1024,-4.0,7.0,-5.0,4.0,23.0,4.0,-1.0,-5.0,1651072423348023.0,2
1025,7.0,-26.0,15.0,7.0,-11.0,-7.0,1.0,7.0,1651072423348023.0,2
1026,-7.0,0.0,-52.0,-21.0,-4.0,1.0,-1.0,-6.0,1651072423348977.0,2
1027,-3.0,0.0,-3.0,8.0,17.0,8.0,-3.0,-8.0,1651072423348977.0,2
1028,-2.0,16.0,9.0,-2.0,-25.0,-10.0,2.0,0.0,1651072423362880.0,2
1029,-4.0,-11.0,-17.0,-5.0,0.0,-1.0,-1.0,0.0,1651072423362880.0,2
1030,-2.0,-4.0,29.0,8.0,10.0,2.0,1.0,2.0,1651072423363878.0,2
1031,-1.0,2.0,22.0,2.0,-9.0,-2.0,0.0,-5.0,1651072423363878.0,2
1032,-8.0,-11.0,-9.0,-7.0,-5.0,-1.0,0.0,-2.0,1651072423384992.0,2
1033,-7.0,-5.0,-13.0,4.0,6.0,4.0,1.0,5.0,1651072423384992.0,2
1034,14.0,22.0,-5.0,-7.0,-5.0,-6.0,-7.0,-10.0,1651072423386947.0,2
1035,-10.0,-23.0,28.0,4.0,-5.0,-2.0,-3.0,0.0,1651072423386947.0,2
1036,0.0,7.0,-9.0,-3.0,10.0,-4.0,-2.0,1.0,1651072423407854.0,2
1037,4.0,-4.0,-12.0,-3.0,-21.0,-1.0,0.0,-8.0,1651072423407854.0,2
1038,-11.0,-4.0,25.0,6.0,28.0,8.0,2.0,-5.0,1651072423408782.0,2
1039,21.0,41.0,22.0,5.0,7.0,2.0,2.0,21.0,1651072423408782.0,2
1040,-8.0,-9.0,-26.0,-8.0,-16.0,-5.0,-3.0,-8.0,1651072423421870.0,2
1041,-1.0,-13.0,18.0,6.0,-6.0,-2.0,-1.0,2.0,1651072423421870.0,2
1042,-7.0,4.0,-24.0,-6.0,-2.0,-2.0,-2.0,-5.0,1651072423429252.0,2
1043,-1.0,-19.0,-7.0,-1.0,8.0,4.0,3.0,-12.0,1651072423429252.0,2
1044,0.0,17.0,36.0,7.0,5.0,3.0,-1.0,1.0,1651072423444792.0,2
1045,-1.0,-1.0,-14.0,-11.0,-7.0,-5.0,-2.0,4.0,1651072423444792.0,2
1046,3.0,6.0,0.0,4.0,2.0,2.0,-1.0,2.0,1651072423446786.0,2
1047,-8.0,-14.0,-3.0,0.0,4.0,0.0,-2.0,-5.0,1651072423446786.0,2
1048,6.0,16.0,2.0,-6.0,-24.0,-7.0,0.0,5.0,1651072423467923.0,2
1049,-5.0,-11.0,-15.0,2.0,14.0,1.0,2.0,-7.0,1651072423467923.0,2
1050,2.0,3.0,24.0,7.0,8.0,2.0,1.0,8.0,1651072423468861.0,2
1051,1.0,-8.0,-13.0,-3.0,-7.0,0.0,0.0,0.0,1651072423468861.0,2
1052,-4.0,-3.0,-12.0,-3.0,4.0,-1.0,-4.0,-11.0,1651072423482336.0,2
1053,2.0,-2.0,5.0,0.0,1.0,-1.0,0.0,10.0,1651072423482336.0,2
1054,-1.0,3.0,-2.0,-3.0,-5.0,-3.0,-1.0,-1.0,1651072423488970.0,2
1055,-3.0,4.0,-1.0,-2.0,-3.0,1.0,1.0,-3.0,1651072423488970.0,2
1056,0.0,-5.0,-4.0,0.0,3.0,2.0,-1.0,-4.0,1651072423504694.0,2
1057,2.0,-2.0,-4.0,-2.0,8.0,-3.0,2.0,4.0,1651072423504694.0,2
1058,9.0,16.0,2.0,2.0,-5.0,0.0,1.0,0.0,1651072423506685.0,2
1059,-7.0,-8.0,-8.0,-2.0,2.0,1.0,-2.0,-6.0,1651072423506685.0,2
1060,-2.0,-13.0,3.0,1.0,-6.0,0.0,2.0,2.0,1651072423527800.0,2
1061,0.0,8.0,-2.0,-2.0,0.0,2.0,-1.0,-1.0,1651072423527800.0,2
1062,-4.0,2.0,4.0,0.0,1.0,-3.0,-3.0,2.0,1651072423528755.0,2
1063,0.0,-9.0,-5.0,1.0,-1.0,-2.0,5.0,-2.0,1651072423528755.0,2
1064,-3.0,1.0,-6.0,0.0,4.0,0.0,-4.0,-3.0,1651072423541741.0,2
1065,0.0,5.0,6.0,-3.0,0.0,1.0,12.0,6.0,1651072423541741.0,2
1066,6.0,-2.0,-24.0,-3.0,-5.0,-1.0,1.0,4.0,1651072423550711.0,2
1067,-4.0,-6.0,-1.0,1.0,0.0,0.0,-2.0,-4.0,1651072423550711.0,2
1068,0.0,4.0,-1.0,1.0,1.0,-1.0,-2.0,-2.0,1651072423564702.0,2
1069,-3.0,-3.0,-1.0,-1.0,1.0,3.0,-4.0,-4.0,1651072423564702.0,2
1070,-3.0,-5.0,-6.0,-5.0,-2.0,-1.0,1.0,2.0,1651072423566700.0,2
1071,7.0,14.0,18.0,8.0,5.0,1.0,2.0,1.0,1651072423566700.0,2
1072,-3.0,-16.0,-17.0,-1.0,-1.0,-1.0,-1.0,-2.0,1651072423587644.0,2
1073,4.0,1.0,1.0,0.0,-3.0,-2.0,-5.0,-4.0,1651072423587644.0,2
1074,-18.0,-3.0,9.0,4.0,5.0,3.0,-1.0,-1.0,1651072423589665.0,2
1075,2.0,3.0,-7.0,-16.0,-12.0,-5.0,-3.0,-1.0,1651072423589665.0,2
1076,-1.0,-1.0,-1.0,3.0,1.0,2.0,2.0,1.0,1651072423609802.0,2
1077,0.0,-2.0,-8.0,-5.0,-4.0,-1.0,-1.0,2.0,1651072423609802.0,2
1078,3.0,3.0,3.0,3.0,2.0,1.0,1.0,1.0,1651072423611729.0,2
1079,-2.0,-7.0,-1.0,2.0,2.0,-1.0,-1.0,-3.0,1651072423611729.0,2
1080,0.0,3.0,8.0,1.0,-4.0,-2.0,2.0,1.0,1651072423625472.0,2
1081,-1.0,0.0,-6.0,-8.0,0.0,-1.0,-3.0,-2.0,1651072423625472.0,2
1082,-1.0,-10.0,-2.0,5.0,1.0,0.0,0.0,0.0,1651072423626412.0,2
1083,-3.0,-2.0,-8.0,6.0,-3.0,-2.0,-2.0,0.0,1651072423626412.0,2
1084,3.0,0.0,-1.0,4.0,2.0,0.0,3.0,3.0,1651072423647605.0,2
1085,-2.0,1.0,-4.0,-1.0,-2.0,0.0,-2.0,-1.0,1651072423647605.0,2
1086,3.0,6.0,5.0,-8.0,1.0,-3.0,1.0,0.0,1651072423649533.0,2
1087,-2.0,5.0,19.0,-7.0,-5.0,1.0,0.0,0.0,1651072423649533.0,2
1088,-3.0,-10.0,-16.0,7.0,2.0,1.0,1.0,-2.0,1651072423661500.0,2
1089,-2.0,-2.0,2.0,-1.0,-8.0,-3.0,-5.0,-4.0,1651072423661500.0,2
1090,2.0,1.0,1.0,0.0,4.0,1.0,1.0,0.0,1651072423669923.0,2
1091,-2.0,-8.0,-7.0,20.0,4.0,-4.0,-2.0,-4.0,1651072423669923.0,2
1092,-1.0,6.0,23.0,-22.0,-6.0,-2.0,-1.0,-2.0,1651072423684690.0,2
1093,6.0,-2.0,-5.0,1.0,-2.0,-1.0,1.0,1.0,1651072423684690.0,2
1094,-9.0,12.0,24.0,6.0,0.0,-1.0,0.0,-2.0,1651072423686687.0,2
1095,-2.0,-8.0,3.0,0.0,6.0,4.0,2.0,1.0,1651072423686687.0,2
1096,-3.0,18.0,-12.0,6.0,8.0,2.0,1.0,0.0,1651072423707698.0,2
1097,0.0,-11.0,1.0,-19.0,-7.0,-5.0,1.0,2.0,1651072423707698.0,2
1098,4.0,21.0,5.0,-9.0,-10.0,-4.0,-1.0,-2.0,1651072423709652.0,2
1099,2.0,7.0,-7.0,-10.0,-2.0,0.0,-1.0,-1.0,1651072423709652.0,2
1100,-2.0,-10.0,8.0,17.0,1.0,1.0,1.0,4.0,1651072423721633.0,2
1101,2.0,0.0,9.0,8.0,7.0,2.0,0.0,-2.0,1651072423721633.0,2
1102,-2.0,-1.0,50.0,18.0,6.0,3.0,0.0,2.0,1651072423730704.0,2
1103,0.0,16.0,-4.0,-5.0,6.0,4.0,2.0,0.0,1651072423730704.0,2
1104,-40.0,-5.0,-38.0,5.0,-6.0,-4.0,-4.0,-6.0,1651072423744887.0,2
1105,4.0,3.0,-10.0,0.0,-4.0,0.0,-1.0,0.0,1651072423744887.0,2
1106,6.0,-4.0,1.0,-31.0,-10.0,-7.0,-4.0,-5.0,1651072423746843.0,2
1107,3.0,-11.0,18.0,23.0,2.0,-3.0,-3.0,-1.0,1651072423746843.0,2
1108,13.0,-1.0,8.0,-47.0,-10.0,-2.0,-3.0,-2.0,1651072423767789.0,2
1109,-4.0,7.0,-6.0,18.0,7.0,4.0,4.0,0.0,1651072423767789.0,2
1110,2.0,-6.0,-55.0,-4.0,2.0,1.0,2.0,0.0,1651072423782340.0,2
1111,3.0,-4.0,-41.0,-41.0,-9.0,-3.0,-1.0,1.0,1651072423782340.0,2
1112,4.0,8.0,26.0,14.0,-2.0,-2.0,-1.0,0.0,1651072423782340.0,2
1113,-2.0,-15.0,-33.0,-17.0,-1.0,2.0,2.0,-1.0,1651072423782340.0,2
1114,1.0,-6.0,11.0,79.0,8.0,-3.0,-4.0,-4.0,1651072423790323.0,2
1115,-4.0,14.0,23.0,-5.0,3.0,1.0,0.0,0.0,1651072423790323.0,2
1116,4.0,-7.0,1.0,19.0,7.0,1.0,-1.0,0.0,1651072423804662.0,2
1117,2.0,13.0,-12.0,-45.0,-8.0,0.0,0.0,1.0,1651072423804662.0,2
1118,-3.0,-2.0,12.0,-2.0,-5.0,-1.0,1.0,4.0,1651072423806660.0,2
1119,-8.0,-4.0,-12.0,9.0,-1.0,-7.0,-2.0,-1.0,1651072423806660.0,2
1120,9.0,11.0,12.0,-16.0,7.0,7.0,0.0,1.0,1651072423834918.0,2
1121,-1.0,-3.0,9.0,10.0,-4.0,-1.0,-2.0,1.0,1651072423834918.0,2
1122,-2.0,-2.0,-41.0,-19.0,-1.0,1.0,1.0,0.0,1651072423836912.0,2
1123,1.0,-1.0,-2.0,-18.0,-2.0,2.0,-1.0,-3.0,1651072423836912.0,2
1124,0.0,-9.0,-61.0,3.0,4.0,-2.0,2.0,1.0,1651072423840905.0,2
1125,-6.0,-5.0,8.0,4.0,-4.0,-7.0,-4.0,-1.0,1651072423840905.0,2
1126,7.0,0.0,8.0,17.0,-2.0,0.0,1.0,1.0,1651072423857938.0,2
1127,-7.0,-9.0,-2.0,-31.0,-7.0,-3.0,-1.0,-1.0,1651072423857938.0,2
1128,4.0,1.0,4.0,0.0,2.0,0.0,2.0,0.0,1651072423864988.0,2
1129,-2.0,-2.0,4.0,-4.0,5.0,3.0,0.0,-1.0,1651072423864988.0,2
1130,3.0,4.0,-19.0,-8.0,-6.0,-5.0,0.0,-1.0,1651072423866944.0,2
1131,3.0,2.0,12.0,19.0,-13.0,-2.0,-1.0,0.0,1651072423866944.0,2
1132,2.0,-4.0,9.0,14.0,36.0,16.0,5.0,1.0,1651072423887944.0,2
1133,-2.0,-4.0,-1.0,-25.0,-5.0,-3.0,-1.0,-3.0,1651072423887944.0,2
1134,-3.0,0.0,16.0,4.0,3.0,-2.0,-2.0,-1.0,1651072423888874.0,2
1135,1.0,2.0,-1.0,18.0,2.0,-2.0,0.0,-2.0,1651072423888874.0,2
1136,-1.0,-5.0,-9.0,-19.0,-26.0,-13.0,-3.0,-2.0,1651072423901022.0,2
1137,-1.0,3.0,19.0,27.0,1.0,0.0,0.0,-1.0,1651072423901022.0,2
1138,1.0,14.0,-4.0,-28.0,-1.0,2.0,-1.0,2.0,1651072423909954.0,2
1139,-7.0,-26.0,-35.0,7.0,1.0,-3.0,-4.0,-3.0,1651072423909954.0,2
1140,4.0,7.0,29.0,15.0,-5.0,-3.0,-2.0,-1.0,1651072423924715.0,2
1141,-1.0,-2.0,-20.0,11.0,5.0,-1.0,-1.0,1.0,1651072423924715.0,2
1142,-3.0,5.0,13.0,-28.0,-7.0,1.0,0.0,1.0,1651072423926712.0,2
1143,2.0,0.0,13.0,26.0,7.0,2.0,0.0,-1.0,1651072423926712.0,2
1144,2.0,-1.0,1.0,-11.0,-2.0,-2.0,0.0,0.0,1651072423947850.0,2
1145,-1.0,1.0,2.0,14.0,2.0,0.0,1.0,-2.0,1651072423947850.0,2
1146,-1.0,-6.0,1.0,-18.0,-7.0,-2.0,0.0,-1.0,1651072423948801.0,2
1147,3.0,0.0,-8.0,17.0,8.0,4.0,-1.0,0.0,1651072423948801.0,2
1148,-7.0,-18.0,-44.0,-13.0,-5.0,-2.0,-3.0,-1.0,1651072423961746.0,2
1149,1.0,5.0,7.0,7.0,1.0,0.0,-1.0,2.0,1651072423961746.0,2
1150,1.0,-5.0,-5.0,11.0,4.0,2.0,0.0,1.0,1651072423969947.0,2
1151,1.0,1.0,10.0,-13.0,0.0,0.0,2.0,2.0,1651072423969947.0,2
1152,2.0,16.0,17.0,-5.0,-6.0,-7.0,-2.0,-2.0,1651072423985089.0,2
1153,-2.0,-3.0,8.0,5.0,3.0,1.0,-2.0,-1.0,1651072423985089.0,2
1154,1.0,-1.0,-8.0,-4.0,-2.0,-1.0,1.0,0.0,1651072423987015.0,2
1155,-1.0,-3.0,-1.0,0.0,3.0,2.0,-1.0,-1.0,1651072423987015.0,2
1156,-1.0,0.0,16.0,12.0,0.0,-1.0,2.0,0.0,1651072424007184.0,2
1157,-2.0,-3.0,11.0,-10.0,-9.0,-4.0,-2.0,1.0,1651072424007184.0,2
1158,-2.0,-3.0,2.0,4.0,9.0,2.0,0.0,-2.0,1651072424009114.0,2
1159,0.0,3.0,-1.0,-6.0,-1.0,-2.0,1.0,-1.0,1651072424009114.0,2
1160,2.0,-6.0,-1.0,3.0,-4.0,3.0,-1.0,0.0,1651072424021161.0,2
1161,1.0,3.0,-5.0,5.0,3.0,-1.0,1.0,-1.0,1651072424021161.0,2
1162,-2.0,-7.0,-8.0,6.0,2.0,-1.0,-1.0,-1.0,1651072424030317.0,2
1163,0.0,-2.0,4.0,-12.0,-13.0,-1.0,1.0,0.0,1651072424030317.0,2
1164,-2.0,-1.0,-15.0,1.0,2.0,-2.0,-3.0,0.0,1651072424052655.0,2
1165,-2.0,-2.0,-2.0,3.0,-1.0,-2.0,-2.0,-1.0,1651072424052655.0,2
1166,-1.0,2.0,-8.0,-5.0,-7.0,-3.0,-1.0,-2.0,1651072424054610.0,2
1167,1.0,3.0,11.0,-9.0,3.0,0.0,1.0,-1.0,1651072424054610.0,2
1168,1.0,-3.0,-8.0,6.0,7.0,5.0,2.0,0.0,1651072424067790.0,2
1169,-1.0,3.0,15.0,9.0,-3.0,-3.0,0.0,0.0,1651072424067790.0,2
1170,-1.0,-3.0,2.0,2.0,9.0,4.0,1.0,0.0,1651072424068748.0,2
1171,0.0,-3.0,0.0,-19.0,-3.0,0.0,2.0,1.0,1651072424068748.0,2
1172,-1.0,2.0,10.0,20.0,-7.0,-4.0,-2.0,-3.0,1651072424081742.0,2
1173,0.0,1.0,4.0,-20.0,4.0,-1.0,-1.0,-1.0,1651072424081742.0,2
1174,-2.0,-3.0,-5.0,5.0,-12.0,-6.0,-2.0,-2.0,1651072424090663.0,2
1175,-3.0,1.0,11.0,0.0,1.0,1.0,-1.0,-3.0,1651072424090663.0,2
1176,2.0,7.0,18.0,-2.0,0.0,1.0,0.0,2.0,1651072424104845.0,2
1177,-1.0,-3.0,-19.0,-4.0,-2.0,0.0,-1.0,-1.0,1651072424104845.0,2
1178,-1.0,2.0,10.0,6.0,-4.0,-3.0,-1.0,1.0,1651072424106764.0,2
1179,-1.0,0.0,-8.0,0.0,3.0,-1.0,-1.0,-1.0,1651072424106764.0,2
1180,1.0,-4.0,14.0,-6.0,-1.0,-1.0,1.0,-2.0,1651072424143362.0,2
1181,-1.0,2.0,3.0,6.0,-1.0,-1.0,-2.0,-1.0,1651072424143362.0,2
1182,0.0,-10.0,-6.0,-9.0,1.0,1.0,0.0,0.0,1651072424144389.0,2
1183,1.0,-4.0,-12.0,9.0,6.0,1.0,-1.0,0.0,1651072424144389.0,2
1184,-4.0,-3.0,-7.0,-8.0,-9.0,-6.0,0.0,-1.0,1651072424145371.0,2
1185,-2.0,-2.0,-16.0,2.0,3.0,5.0,1.0,-2.0,1651072424145371.0,2
1186,-4.0,0.0,8.0,-1.0,2.0,-3.0,0.0,0.0,1651072424150345.0,2
1187,0.0,3.0,1.0,2.0,1.0,2.0,-1.0,0.0,1651072424150345.0,2
1188,1.0,5.0,2.0,-11.0,3.0,-1.0,-2.0,-1.0,1651072424165372.0,2
1189,-5.0,-25.0,-21.0,-10.0,-11.0,-4.0,-4.0,-3.0,1651072424165372.0,2
1190,-2.0,-3.0,-6.0,-4.0,-1.0,-2.0,1.0,-1.0,1651072424167328.0,2
1191,-1.0,0.0,-12.0,9.0,1.0,0.0,-1.0,-2.0,1651072424167328.0,2
1192,2.0,2.0,4.0,8.0,-3.0,-2.0,1.0,0.0,1651072424187738.0,2
1193,1.0,8.0,1.0,-8.0,1.0,0.0,2.0,0.0,1651072424187738.0,2
1194,0.0,1.0,6.0,2.0,6.0,4.0,0.0,-1.0,1651072424189667.0,2
1195,-1.0,-5.0,-3.0,-9.0,-8.0,-6.0,-1.0,-2.0,1651072424189667.0,2
1196,0.0,8.0,42.0,21.0,7.0,3.0,-2.0,1.0,1651072424208759.0,2
1197,2.0,-2.0,0.0,-1.0,3.0,-1.0,-1.0,0.0,1651072424208759.0,2
1198,-1.0,-6.0,-25.0,-13.0,-2.0,-1.0,-3.0,0.0,1651072424217695.0,2
1199,0.0,0.0,-1.0,-9.0,0.0,1.0,1.0,2.0,1651072424217695.0,2
1200,-4.0,-8.0,17.0,10.0,-3.0,-4.0,-3.0,-2.0,1651072424224722.0,2
1201,0.0,-3.0,2.0,3.0,-5.0,0.0,0.0,-1.0,1651072424224722.0,2
1202,1.0,5.0,9.0,8.0,2.0,-2.0,1.0,-1.0,1651072424226651.0,2
1203,-2.0,-1.0,-5.0,-8.0,5.0,5.0,1.0,0.0,1651072424226651.0,2
1204,-1.0,-8.0,-37.0,-16.0,-4.0,-1.0,0.0,-1.0,1651072424247661.0,2
1205,-1.0,6.0,15.0,7.0,5.0,1.0,1.0,-1.0,1651072424247661.0,2
1206,-2.0,-2.0,3.0,10.0,-6.0,-4.0,0.0,-2.0,1651072424249615.0,2
1207,-1.0,-3.0,4.0,3.0,0.0,-3.0,-1.0,-1.0,1651072424249615.0,2
1208,1.0,-1.0,-15.0,-9.0,-4.0,-1.0,0.0,-1.0,1651072424270490.0,2
1209,1.0,7.0,7.0,-2.0,0.0,-3.0,0.0,1.0,1651072424270490.0,2
1210,2.0,6.0,10.0,5.0,3.0,0.0,-1.0,2.0,1651072424271334.0,2
1211,-2.0,1.0,13.0,5.0,-5.0,-4.0,-2.0,-1.0,1651072424271334.0,2
1212,0.0,-6.0,-22.0,-11.0,0.0,1.0,-1.0,0.0,1651072424284759.0,2
1213,1.0,12.0,-4.0,5.0,-4.0,-1.0,-1.0,1.0,1651072424284759.0,2
1214,-3.0,-20.0,-15.0,-3.0,-4.0,-2.0,-4.0,-4.0,1651072424286687.0,2
1215,1.0,5.0,18.0,8.0,-3.0,-3.0,1.0,-2.0,1651072424286687.0,2
1216,2.0,-5.0,-14.0,-8.0,-9.0,-1.0,0.0,-1.0,1651072424307869.0,2
1217,1.0,8.0,5.0,-6.0,4.0,2.0,1.0,2.0,1651072424307869.0,2
1218,0.0,-1.0,4.0,17.0,12.0,2.0,2.0,1.0,1651072424308799.0,2
1219,-2.0,-4.0,-6.0,-5.0,-3.0,-1.0,-2.0,1.0,1651072424308799.0,2
1220,1.0,3.0,3.0,-8.0,-1.0,-1.0,0.0,-2.0,1651072424330828.0,2
1221,-2.0,-17.0,-24.0,-2.0,-8.0,-4.0,-2.0,-3.0,1651072424330828.0,2
1222,1.0,5.0,2.0,-20.0,-4.0,1.0,1.0,0.0,1651072424331835.0,2
1223,-2.0,-10.0,-20.0,19.0,3.0,-3.0,0.0,-3.0,1651072424331835.0,2
1224,0.0,4.0,9.0,-3.0,-1.0,0.0,3.0,1.0,1651072424344892.0,2
1225,0.0,-2.0,2.0,6.0,4.0,1.0,1.0,0.0,1651072424344892.0,2
1226,0.0,3.0,-10.0,-7.0,-2.0,2.0,-1.0,1.0,1651072424351739.0,2
1227,1.0,3.0,6.0,-8.0,0.0,0.0,-1.0,1.0,1651072424351739.0,2
1228,-2.0,5.0,4.0,-8.0,-6.0,-1.0,-1.0,-1.0,1651072424367792.0,2
1229,1.0,-3.0,-5.0,15.0,4.0,-3.0,-2.0,-1.0,1651072424367792.0,2
1230,-3.0,0.0,6.0,-15.0,-2.0,-3.0,-1.0,-2.0,1651072424368728.0,2
1231,0.0,3.0,0.0,3.0,0.0,-1.0,-1.0,-1.0,1651072424368728.0,2
1232,2.0,-2.0,-1.0,-1.0,2.0,4.0,-1.0,-1.0,1651072424390493.0,2
1233,1.0,1.0,6.0,0.0,-1.0,-1.0,-1.0,-1.0,1651072424390493.0,2
1234,2.0,0.0,2.0,4.0,-2.0,-1.0,1.0,0.0,1651072424391415.0,2
1235,0.0,-1.0,-2.0,0.0,2.0,4.0,0.0,-2.0,1651072424391415.0,2
1236,-1.0,-1.0,-5.0,1.0,3.0,1.0,0.0,0.0,1651072424404570.0,2
1237,0.0,0.0,10.0,-3.0,-3.0,-1.0,-1.0,1.0,1651072424404570.0,2
1238,-1.0,-12.0,-41.0,-9.0,-8.0,-1.0,-1.0,1.0,1651072424411685.0,2
1239,0.0,1.0,7.0,-12.0,-6.0,-5.0,-2.0,-1.0,1651072424411685.0,2
1240,-2.0,-2.0,-8.0,9.0,3.0,2.0,-1.0,0.0,1651072424427404.0,0
1241,-2.0,1.0,1.0,-1.0,-4.0,-2.0,-2.0,0.0,1651072424427404.0,0
1242,2.0,5.0,14.0,12.0,6.0,3.0,0.0,1.0,1651072424429332.0,0
1243,1.0,4.0,3.0,-10.0,-4.0,-2.0,0.0,1.0,1651072424429332.0,0
1244,-1.0,0.0,-13.0,-9.0,1.0,-1.0,0.0,0.0,1651072424450225.0,0
1245,1.0,-1.0,23.0,7.0,3.0,1.0,1.0,-1.0,1651072424450225.0,0
1246,1.0,3.0,22.0,0.0,-4.0,-3.0,1.0,0.0,1651072424452223.0,0
1247,0.0,-1.0,-10.0,3.0,12.0,2.0,2.0,-2.0,1651072424452223.0,0
1248,-3.0,-8.0,-6.0,2.0,-1.0,-3.0,-1.0,0.0,1651072424464258.0,0
1249,-1.0,1.0,-7.0,-3.0,2.0,3.0,-1.0,1.0,1651072424464258.0,0
1250,0.0,-1.0,4.0,10.0,0.0,-1.0,0.0,-1.0,1651072424471453.0,0
1251,-1.0,-1.0,-4.0,-1.0,-4.0,-2.0,-1.0,0.0,1651072424471453.0,0
1252,-2.0,0.0,17.0,7.0,-2.0,-2.0,-1.0,-1.0,1651072424487639.0,0
1253,-2.0,-5.0,-25.0,-13.0,-3.0,2.0,0.0,0.0,1651072424487639.0,0
1254,-2.0,-6.0,-22.0,-9.0,1.0,2.0,-1.0,0.0,1651072424489567.0,0
1255,1.0,2.0,13.0,21.0,1.0,-2.0,-1.0,1.0,1651072424489567.0,0
1256,-1.0,-5.0,-4.0,-5.0,-1.0,1.0,1.0,0.0,1651072424510590.0,0
1257,-1.0,-2.0,5.0,1.0,-4.0,-3.0,-2.0,-2.0,1651072424510590.0,0
1258,1.0,5.0,2.0,-6.0,-2.0,-2.0,-1.0,-1.0,1651072424511600.0,0
1259,-1.0,-3.0,-21.0,-2.0,1.0,1.0,2.0,0.0,1651072424511600.0,0
1260,0.0,-1.0,9.0,0.0,1.0,0.0,1.0,-1.0,1651072424524634.0,0
1261,-1.0,3.0,14.0,10.0,1.0,2.0,-2.0,-1.0,1651072424524634.0,0
1262,-2.0,-3.0,-5.0,-3.0,0.0,1.0,-1.0,1.0,1651072424531575.0,0
1263,0.0,2.0,5.0,7.0,1.0,2.0,0.0,0.0,1651072424531575.0,0
1264,2.0,2.0,6.0,3.0,4.0,-1.0,-1.0,-1.0,1651072424547682.0,0
1265,1.0,0.0,0.0,-7.0,-7.0,-4.0,1.0,0.0,1651072424547682.0,0
1266,0.0,2.0,6.0,-7.0,-3.0,-5.0,-1.0,-2.0,1651072424549690.0,0
1267,0.0,0.0,1.0,-3.0,6.0,5.0,-1.0,-1.0,1651072424549690.0,0
1268,-3.0,-1.0,-10.0,7.0,2.0,-1.0,-1.0,0.0,1651072424570634.0,0
1269,-2.0,-1.0,4.0,4.0,5.0,0.0,-1.0,-1.0,1651072424570634.0,0
1270,-2.0,3.0,10.0,1.0,-4.0,-4.0,-2.0,-1.0,1651072424571617.0,0
1271,-2.0,-1.0,-16.0,-19.0,-10.0,-3.0,-1.0,-1.0,1651072424571617.0,0
1272,2.0,1.0,-22.0,5.0,6.0,1.0,0.0,0.0,1651072424584478.0,0
1273,-1.0,5.0,28.0,1.0,1.0,-1.0,1.0,-1.0,1651072424584478.0,0
1274,1.0,6.0,28.0,10.0,6.0,5.0,1.0,-1.0,1651072424591459.0,0
1275,-2.0,-6.0,-5.0,0.0,-7.0,-3.0,0.0,-1.0,1651072424591459.0,0
1276,2.0,6.0,5.0,-14.0,-3.0,1.0,0.0,2.0,1651072424607583.0,0
1277,0.0,-5.0,-13.0,-5.0,-3.0,0.0,0.0,0.0,1651072424607583.0,0
1278,0.0,2.0,-3.0,-1.0,6.0,2.0,1.0,0.0,1651072424609532.0,0
1279,0.0,1.0,18.0,17.0,-1.0,-1.0,-2.0,0.0,1651072424609532.0,0
1280,-2.0,-2.0,5.0,9.0,-2.0,-3.0,-1.0,-1.0,1651072424628686.0,0
1281,0.0,4.0,2.0,-16.0,3.0,1.0,-2.0,-2.0,1651072424628686.0,0
1282,-1.0,-6.0,-11.0,-5.0,-8.0,-2.0,0.0,0.0,1651072424637663.0,0
1283,0.0,-8.0,-30.0,-1.0,8.0,2.0,0.0,-1.0,1651072424637663.0,0
1284,-1.0,-1.0,11.0,0.0,-2.0,0.0,1.0,1.0,1651072424644711.0,0
1285,0.0,-1.0,-11.0,8.0,2.0,-1.0,1.0,0.0,1651072424644711.0,0
1286,1.0,2.0,0.0,-1.0,-1.0,-1.0,-1.0,0.0,1651072424651692.0,0
1287,-1.0,2.0,5.0,-9.0,-10.0,-3.0,-1.0,1.0,1651072424651692.0,0
1288,-1.0,10.0,22.0,4.0,3.0,-2.0,0.0,-2.0,1651072424667649.0,0
1289,-1.0,-13.0,-22.0,-7.0,1.0,0.0,-2.0,0.0,1651072424667649.0,0
1290,-2.0,0.0,1.0,11.0,-6.0,-2.0,-2.0,-1.0,1651072424669597.0,0
1291,0.0,-4.0,-3.0,3.0,5.0,2.0,0.0,1.0,1651072424669597.0,0
1292,2.0,0.0,5.0,4.0,-1.0,-2.0,-2.0,-2.0,1651072424690568.0,0
1293,-1.0,2.0,-8.0,-12.0,-2.0,3.0,2.0,1.0,1651072424690568.0,0
1294,-1.0,-5.0,-12.0,-4.0,-1.0,-1.0,-2.0,-3.0,1651072424691552.0,0
1295,-1.0,1.0,7.0,1.0,1.0,1.0,-1.0,1.0,1651072424691552.0,0
1296,-2.0,-5.0,-4.0,-3.0,-1.0,-1.0,-1.0,1.0,1651072424703623.0,0
1297,0.0,3.0,7.0,1.0,-2.0,-2.0,0.0,-2.0,1651072424703623.0,0
1298,0.0,-7.0,-18.0,-11.0,-15.0,-6.0,-1.0,-1.0,1651072424712598.0,0
1299,-4.0,1.0,8.0,12.0,1.0,-1.0,-1.0,-2.0,1651072424712598.0,0
1300,2.0,-6.0,-18.0,-6.0,-1.0,2.0,1.0,2.0,1651072424727873.0,0
1301,-2.0,1.0,5.0,-12.0,-2.0,-3.0,0.0,-2.0,1651072424727873.0,0
1302,-1.0,4.0,8.0,0.0,5.0,3.0,1.0,-1.0,1651072424728801.0,0
1303,1.0,-6.0,-6.0,2.0,8.0,1.0,0.0,-2.0,1651072424728801.0,0
1304,-2.0,10.0,6.0,16.0,4.0,2.0,0.0,0.0,1651072424750620.0,0
1305,-10.0,-10.0,-14.0,-4.0,-19.0,-7.0,-3.0,-4.0,1651072424750620.0,0
1306,5.0,3.0,5.0,-4.0,2.0,3.0,2.0,2.0,1651072424751618.0,0
1307,-1.0,0.0,11.0,-4.0,-8.0,-3.0,-2.0,1.0,1651072424751618.0,0
1308,3.0,-1.0,4.0,-3.0,9.0,3.0,-2.0,-1.0,1651072424763701.0,0
1309,5.0,8.0,0.0,5.0,5.0,0.0,0.0,0.0,1651072424763701.0,0
1310,-6.0,4.0,10.0,16.0,1.0,-2.0,-1.0,-4.0,1651072424772678.0,0
1311,2.0,-11.0,-18.0,-16.0,-8.0,-2.0,0.0,1.0,1651072424772678.0,0
1312,6.0,2.0,-8.0,-13.0,-6.0,0.0,0.0,3.0,1651072424787788.0,0
1313,2.0,-2.0,-7.0,-6.0,7.0,2.0,-2.0,-1.0,1651072424787788.0,0
1314,-8.0,-3.0,12.0,31.0,10.0,1.0,0.0,0.0,1651072424789797.0,0
1315,-2.0,7.0,-5.0,-5.0,-5.0,-1.0,-1.0,-1.0,1651072424789797.0,0
1316,-9.0,-13.0,3.0,-4.0,-6.0,-3.0,0.0,-3.0,1651072424810533.0,0
1317,12.0,0.0,-3.0,-12.0,6.0,3.0,2.0,4.0,1651072424810533.0,0
1318,-7.0,0.0,-9.0,-13.0,-8.0,-2.0,0.0,1.0,1651072424811745.0,0
1319,-9.0,-12.0,0.0,12.0,8.0,-1.0,0.0,-1.0,1651072424811745.0,0
1320,8.0,2.0,16.0,1.0,-9.0,-2.0,-1.0,-1.0,1651072424823376.0,0
1321,7.0,-9.0,-52.0,-16.0,-4.0,-2.0,-2.0,3.0,1651072424823376.0,0
1322,-8.0,-6.0,26.0,1.0,-4.0,-1.0,-3.0,-7.0,1651072424832450.0,0
1323,2.0,7.0,12.0,-1.0,2.0,4.0,4.0,3.0,1651072424832450.0,3
1324,-3.0,-6.0,-12.0,-15.0,1.0,-3.0,0.0,-1.0,1651072424847627.0,3
1325,2.0,-1.0,-1.0,19.0,-7.0,-2.0,-2.0,-3.0,1651072424847627.0,3
1326,-1.0,-10.0,-14.0,-18.0,1.0,3.0,0.0,0.0,1651072424849582.0,3
1327,0.0,-1.0,-12.0,7.0,-5.0,-3.0,-3.0,-4.0,1651072424849582.0,3
1328,8.0,9.0,19.0,2.0,6.0,3.0,1.0,-1.0,1651072424870583.0,3
1329,-15.0,-6.0,10.0,-3.0,0.0,-1.0,0.0,0.0,1651072424870583.0,3
1330,8.0,8.0,-9.0,-1.0,-7.0,-3.0,0.0,-1.0,1651072424871583.0,3
1331,2.0,9.0,12.0,3.0,-6.0,-1.0,-2.0,-1.0,1651072424871583.0,3
1332,-7.0,-14.0,-12.0,2.0,-1.0,0.0,-3.0,-2.0,1651072424883617.0,3
1333,-10.0,18.0,25.0,2.0,2.0,0.0,-3.0,-5.0,1651072424883617.0,3
1334,6.0,-22.0,-4.0,-3.0,6.0,1.0,2.0,4.0,1651072424892526.0,3
1335,-2.0,19.0,-24.0,-3.0,-3.0,-3.0,-4.0,-6.0,1651072424892526.0,3
1336,-4.0,5.0,-11.0,6.0,1.0,1.0,-1.0,-1.0,1651072424907661.0,3
1337,1.0,0.0,15.0,-8.0,0.0,1.0,3.0,2.0,1651072424907661.0,3
1338,2.0,9.0,13.0,16.0,-5.0,-6.0,-4.0,-2.0,1651072424909692.0,3
1339,6.0,-31.0,-10.0,-11.0,-6.0,-1.0,-1.0,1.0,1651072424909692.0,3
1340,0.0,14.0,-7.0,-7.0,-3.0,0.0,-2.0,0.0,1651072424929664.0,3
1341,-2.0,0.0,16.0,29.0,1.0,1.0,-2.0,-3.0,1651072424929664.0,3
1342,26.0,-2.0,0.0,15.0,16.0,5.0,2.0,0.0,1651072424931660.0,3
1343,-32.0,15.0,14.0,-29.0,-10.0,-1.0,-1.0,-7.0,1651072424931660.0,3
1344,8.0,-8.0,-1.0,10.0,-10.0,0.0,3.0,7.0,1651072424943822.0,3
1345,-1.0,-42.0,-5.0,-15.0,-3.0,-3.0,-3.0,-2.0,1651072424943822.0,3
1346,12.0,15.0,-5.0,37.0,6.0,0.0,1.0,2.0,1651072424952919.0,3
1347,3.0,12.0,-1.0,11.0,10.0,2.0,-1.0,-1.0,1651072424952919.0,3
1348,-8.0,-4.0,-14.0,-19.0,-3.0,-2.0,-3.0,-5.0,1651072424967739.0,3
1349,-1.0,11.0,-39.0,-6.0,-6.0,-1.0,-1.0,0.0,1651072424967739.0,3
1350,-15.0,-12.0,26.0,-16.0,-5.0,-1.0,-2.0,0.0,1651072424968695.0,3
1351,3.0,3.0,4.0,4.0,11.0,3.0,-1.0,-1.0,1651072424968695.0,3
1352,-2.0,18.0,7.0,4.0,-5.0,-3.0,-5.0,-3.0,1651072424997686.0,3
1353,-3.0,-15.0,16.0,13.0,-2.0,1.0,3.0,3.0,1651072424997686.0,3
1354,1.0,1.0,-31.0,-15.0,1.0,2.0,1.0,-1.0,1651072424999619.0,3
1355,-3.0,-4.0,12.0,-22.0,-2.0,-2.0,-4.0,-4.0,1651072424999619.0,3
1356,6.0,-3.0,42.0,38.0,-4.0,-3.0,1.0,0.0,1651072425003602.0,3
1357,14.0,14.0,0.0,-1.0,3.0,-2.0,-4.0,-1.0,1651072425003602.0,3
1358,-6.0,22.0,-16.0,-10.0,4.0,3.0,1.0,4.0,1651072425012719.0,3
1359,-35.0,-35.0,-55.0,-6.0,-8.0,-3.0,4.0,2.0,1651072425012719.0,3
1360,-7.0,-28.0,-18.0,-18.0,3.0,0.0,-6.0,-8.0,1651072425027576.0,3
1361,9.0,18.0,16.0,12.0,0.0,-1.0,-1.0,-5.0,1651072425027576.0,3
1362,9.0,4.0,10.0,-3.0,-4.0,1.0,-1.0,0.0,1651072425029533.0,3
1363,22.0,6.0,27.0,27.0,8.0,3.0,3.0,4.0,1651072425029533.0,3
1364,1.0,10.0,-14.0,-11.0,8.0,3.0,5.0,4.0,1651072425050331.0,3
1365,-12.0,3.0,9.0,15.0,-1.0,-1.0,0.0,-2.0,1651072425050331.0,3
1366,-3.0,-10.0,25.0,-21.0,-13.0,-5.0,-5.0,-5.0,1651072425051261.0,3
1367,-7.0,-5.0,13.0,-9.0,-9.0,-4.0,-2.0,-7.0,1651072425051261.0,3
1368,-18.0,-18.0,8.0,20.0,5.0,-7.0,-8.0,-4.0,1651072425064232.0,3
1369,2.0,0.0,-21.0,-4.0,-3.0,-1.0,0.0,1.0,1651072425064232.0,3
1370,2.0,-4.0,7.0,-8.0,1.0,1.0,-1.0,2.0,1651072425073202.0,3
1371,-12.0,23.0,29.0,-17.0,-19.0,-3.0,3.0,5.0,1651072425073202.0,3
1372,4.0,9.0,19.0,18.0,11.0,0.0,-3.0,-5.0,1651072425087458.0,3
1373,10.0,-10.0,-15.0,-8.0,6.0,6.0,5.0,6.0,1651072425087458.0,3
1374,-22.0,10.0,-25.0,-3.0,-4.0,-4.0,-3.0,-6.0,1651072425089453.0,3
1375,15.0,3.0,48.0,19.0,7.0,1.0,-2.0,-2.0,1651072425089453.0,3
1376,14.0,9.0,14.0,-21.0,-2.0,6.0,6.0,6.0,1651072425110521.0,3
1377,-24.0,1.0,-40.0,6.0,-7.0,-5.0,-4.0,-5.0,1651072425110521.0,3
1378,35.0,13.0,-20.0,-16.0,-2.0,-3.0,-5.0,-1.0,1651072425111475.0,3
1379,-5.0,5.0,21.0,21.0,-4.0,1.0,0.0,4.0,1651072425111475.0,3
1380,3.0,-8.0,-3.0,-34.0,-4.0,0.0,3.0,4.0,1651072425133593.0,3
1381,16.0,-4.0,31.0,-1.0,2.0,-2.0,-3.0,0.0,1651072425133593.0,3
1382,72.0,40.0,-17.0,-12.0,1.0,4.0,2.0,-2.0,1651072425138608.0,3
1383,-32.0,-22.0,-19.0,10.0,9.0,1.0,0.0,4.0,1651072425138608.0,3
1384,-16.0,19.0,7.0,27.0,-23.0,-8.0,-6.0,-7.0,1651072425147557.0,3
1385,-4.0,-13.0,21.0,-20.0,1.0,6.0,6.0,4.0,1651072425147557.0,3
1386,-12.0,-15.0,-19.0,-6.0,-2.0,-5.0,-3.0,-2.0,1651072425149574.0,3
1387,18.0,18.0,-5.0,-18.0,7.0,2.0,-1.0,-1.0,1651072425149574.0,3
1388,14.0,-9.0,-11.0,16.0,0.0,4.0,5.0,4.0,1651072425170523.0,3
1389,-14.0,16.0,26.0,-16.0,2.0,0.0,-4.0,-2.0,1651072425170523.0,3
1390,-13.0,-21.0,26.0,50.0,10.0,0.0,2.0,4.0,1651072425171491.0,3
1391,-6.0,2.0,-34.0,-18.0,-9.0,-7.0,-10.0,-18.0,1651072425171491.0,3
1392,10.0,-50.0,-6.0,-9.0,-8.0,-1.0,5.0,15.0,1651072425192502.0,3
1393,13.0,-1.0,-36.0,-19.0,1.0,-1.0,2.0,-1.0,1651072425192502.0,3
1394,-48.0,-1.0,-15.0,15.0,6.0,5.0,2.0,-2.0,1651072425194457.0,3
1395,1.0,4.0,6.0,5.0,-8.0,-5.0,-6.0,-6.0,1651072425194457.0,3
1396,-5.0,-29.0,-11.0,-34.0,2.0,2.0,0.0,-5.0,1651072425207395.0,3
1397,-4.0,22.0,13.0,46.0,10.0,4.0,5.0,6.0,1651072425207395.0,3
1398,10.0,7.0,8.0,-25.0,-8.0,-1.0,4.0,10.0,1651072425209417.0,3
1399,11.0,-11.0,-14.0,-6.0,1.0,-2.0,-1.0,-3.0,1651072425209417.0,3
1400,-11.0,21.0,-5.0,31.0,8.0,-3.0,-6.0,-8.0,1651072425230061.0,3
1401,4.0,-13.0,0.0,-3.0,-2.0,1.0,0.0,0.0,1651072425230061.0,3
1402,-18.0,-25.0,-4.0,-10.0,-6.0,-2.0,-2.0,-3.0,1651072425232083.0,3
1403,2.0,-4.0,-1.0,4.0,-4.0,-2.0,-3.0,-3.0,1651072425232083.0,3
1404,7.0,14.0,-16.0,-7.0,3.0,1.0,1.0,2.0,1651072425252884.0,3
1405,-6.0,-16.0,2.0,11.0,8.0,0.0,0.0,-1.0,1651072425252884.0,3
1406,-9.0,-6.0,11.0,-1.0,-7.0,0.0,0.0,-2.0,1651072425253885.0,3
1407,-3.0,-14.0,2.0,-16.0,-10.0,-1.0,-2.0,3.0,1651072425253885.0,3
1408,13.0,8.0,-10.0,-1.0,5.0,2.0,6.0,8.0,1651072425266916.0,3
1409,-13.0,26.0,1.0,25.0,-1.0,-1.0,-4.0,-7.0,1651072425266916.0,3
1410,23.0,24.0,-4.0,-31.0,-4.0,1.0,4.0,11.0,1651072425273941.0,3
1411,1.0,-20.0,2.0,32.0,14.0,-3.0,-1.0,0.0,1651072425273941.0,3
1412,-24.0,3.0,7.0,-10.0,-8.0,-2.0,-6.0,-12.0,1651072425289970.0,3
1413,22.0,19.0,37.0,-3.0,-3.0,4.0,4.0,10.0,1651072425289970.0,3
1414,-3.0,13.0,5.0,6.0,2.0,6.0,8.0,6.0,1651072425291897.0,3
1415,-4.0,-8.0,-8.0,16.0,23.0,2.0,-1.0,-3.0,1651072425291897.0,3
1416,-9.0,-1.0,9.0,-22.0,-12.0,-5.0,-2.0,-6.0,1651072425313016.0,3
1417,-2.0,-45.0,-35.0,-23.0,-12.0,-12.0,-10.0,-8.0,1651072425313016.0,3
1418,-31.0,-34.0,-8.0,-16.0,-4.0,-2.0,-2.0,-8.0,1651072425314007.0,3
1419,36.0,31.0,-10.0,-8.0,7.0,18.0,8.0,9.0,1651072425314007.0,3
1420,3.0,10.0,-3.0,-1.0,2.0,-6.0,0.0,1.0,1651072425327457.0,3
1421,-22.0,-5.0,5.0,27.0,28.0,14.0,3.0,-2.0,1651072425327457.0,3
1422,15.0,4.0,14.0,13.0,-7.0,-10.0,-8.0,-1.0,1651072425333453.0,3
1423,-11.0,2.0,-3.0,-9.0,-20.0,-8.0,4.0,-4.0,1651072425333453.0,3
1424,10.0,7.0,-5.0,-8.0,-12.0,-4.0,-2.0,6.0,1651072425350527.0,3
1425,-4.0,0.0,-14.0,-18.0,-17.0,-13.0,-4.0,-3.0,1651072425350527.0,3
1426,-7.0,5.0,-3.0,15.0,21.0,12.0,-1.0,-6.0,1651072425352454.0,3
1427,-17.0,-43.0,24.0,0.0,2.0,6.0,2.0,-3.0,1651072425352454.0,3
1428,17.0,34.0,-18.0,4.0,0.0,3.0,0.0,2.0,1651072425372792.0,3
1429,2.0,14.0,-9.0,-1.0,-1.0,-3.0,0.0,1.0,1651072425372792.0,3
1430,4.0,-6.0,34.0,12.0,-4.0,-4.0,-3.0,0.0,1651072425373750.0,3
1431,-5.0,-22.0,-21.0,-4.0,-7.0,-3.0,-2.0,1.0,1651072425373750.0,3
1432,-16.0,-21.0,15.0,-15.0,-11.0,-5.0,-2.0,-5.0,1651072425386707.0,3
1433,7.0,1.0,12.0,14.0,19.0,8.0,3.0,3.0,1651072425386707.0,3
1434,-3.0,34.0,-32.0,-12.0,-12.0,-4.0,2.0,-2.0,1651072425395670.0,3
1435,18.0,4.0,34.0,0.0,6.0,0.0,1.0,5.0,1651072425395670.0,3
1436,-18.0,-31.0,-32.0,15.0,10.0,2.0,-1.0,-4.0,1651072425409731.0,3
1437,6.0,-12.0,30.0,22.0,-10.0,-2.0,-4.0,-1.0,1651072425409731.0,3
1438,14.0,41.0,-35.0,-15.0,-12.0,-3.0,3.0,8.0,1651072425411659.0,3
1439,9.0,3.0,-19.0,-2.0,20.0,-4.0,-2.0,-1.0,1651072425411659.0,3
1440,-11.0,0.0,25.0,10.0,16.0,14.0,1.0,-5.0,1651072425439872.0,3
1441,-32.0,-50.0,-5.0,-14.0,-15.0,-3.0,-1.0,-5.0,1651072425439872.0,3
1442,-2.0,5.0,2.0,7.0,2.0,-9.0,-12.0,-6.0,1651072425441800.0,3
1443,-10.0,-42.0,-43.0,-14.0,-4.0,-1.0,-2.0,3.0,1651072425441800.0,3
1444,9.0,45.0,-14.0,4.0,10.0,2.0,1.0,-3.0,1651072425446799.0,3
1445,-8.0,8.0,14.0,-10.0,-9.0,-8.0,-5.0,-8.0,1651072425446799.0,3
1446,-9.0,-37.0,30.0,10.0,2.0,-4.0,-3.0,-3.0,1651072425453797.0,3
1447,32.0,90.0,-40.0,-11.0,2.0,12.0,12.0,11.0,1651072425453797.0,3
1448,-23.0,-41.0,7.0,-1.0,-8.0,-6.0,-4.0,-4.0,1651072425470209.0,3
1449,21.0,21.0,1.0,-13.0,-2.0,0.0,2.0,7.0,1651072425470209.0,3
1450,-24.0,-40.0,68.0,11.0,2.0,-5.0,-5.0,-4.0,1651072425472206.0,3
1451,-4.0,42.0,-74.0,-7.0,-8.0,-8.0,-10.0,-16.0,1651072425472206.0,3
1452,12.0,8.0,-12.0,-3.0,4.0,3.0,2.0,9.0,1651072425492659.0,3
1453,-7.0,15.0,-6.0,-23.0,-8.0,-4.0,-1.0,0.0,1651072425492659.0,3
1454,19.0,-15.0,-1.0,9.0,14.0,7.0,7.0,10.0,1651072425494653.0,3
1455,9.0,30.0,66.0,13.0,-12.0,-2.0,2.0,11.0,1651072425494653.0,3
1456,-1.0,-5.0,-28.0,-6.0,3.0,-2.0,-2.0,-4.0,1651072425506804.0,3
1457,-9.0,-23.0,-49.0,-12.0,-11.0,-6.0,-4.0,-7.0,1651072425506804.0,3
1458,-7.0,-11.0,-17.0,-8.0,16.0,9.0,3.0,-5.0,1651072425513718.0,3
1459,-2.0,-23.0,55.0,17.0,-11.0,0.0,2.0,1.0,1651072425513718.0,3
1460,-1.0,5.0,-18.0,-1.0,-7.0,3.0,6.0,3.0,1651072425530351.0,3
1461,12.0,-4.0,5.0,17.0,18.0,0.0,-5.0,-2.0,1651072425530351.0,3
1462,-3.0,8.0,-39.0,-14.0,-14.0,-2.0,-1.0,0.0,1651072425531297.0,3
1463,-8.0,2.0,-7.0,0.0,-17.0,-10.0,-4.0,-5.0,1651072425531297.0,3
1464,5.0,-9.0,31.0,3.0,16.0,4.0,-3.0,4.0,1651072425552891.0,3
1465,4.0,-1.0,-8.0,12.0,0.0,4.0,3.0,0.0,1651072425552891.0,3
1466,2.0,20.0,16.0,-4.0,-7.0,0.0,1.0,-1.0,1651072425553911.0,3
1467,-4.0,-16.0,-19.0,1.0,12.0,4.0,1.0,3.0,1651072425553911.0,3
1468,-11.0,-5.0,1.0,-26.0,-10.0,-9.0,-7.0,-9.0,1651072425567052.0,3
1469,16.0,19.0,-19.0,4.0,-1.0,1.0,3.0,9.0,1651072425567052.0,3
1470,-17.0,45.0,30.0,19.0,0.0,-6.0,-10.0,-11.0,1651072425573996.0,3
1471,-3.0,-64.0,33.0,6.0,-3.0,4.0,3.0,-1.0,1651072425573996.0,3
1472,10.0,34.0,-3.0,8.0,-7.0,-6.0,0.0,5.0,1651072425590489.0,3
1473,-2.0,13.0,18.0,-9.0,12.0,4.0,1.0,-3.0,1651072425590489.0,3
1474,6.0,-24.0,9.0,-22.0,-4.0,1.0,4.0,11.0,1651072425591421.0,3
1475,-18.0,-25.0,-36.0,32.0,7.0,-2.0,-3.0,-6.0,1651072425591421.0,3
1476,15.0,21.0,21.0,14.0,-3.0,1.0,-1.0,-1.0,1651072425612849.0,3
1477,-6.0,-2.0,8.0,-13.0,-9.0,-2.0,-2.0,-2.0,1651072425612849.0,3
1478,-2.0,-56.0,-5.0,4.0,5.0,2.0,4.0,-2.0,1651072425613794.0,3
1479,6.0,31.0,25.0,-30.0,-3.0,1.0,-2.0,4.0,1651072425613794.0,3
1480,9.0,3.0,-25.0,-8.0,-2.0,-7.0,-2.0,2.0,1651072425626443.0,3
1481,-14.0,-5.0,3.0,14.0,-12.0,0.0,0.0,-4.0,1651072425626443.0,3
1482,8.0,7.0,-19.0,0.0,9.0,0.0,1.0,0.0,1651072425635749.0,3
1483,5.0,5.0,10.0,23.0,15.0,9.0,1.0,2.0,1651072425635749.0,3
1484,-2.0,-7.0,5.0,-23.0,-4.0,-2.0,1.0,0.0,1651072425650568.0,3
1485,0.0,16.0,0.0,-20.0,-19.0,-6.0,-3.0,-2.0,1651072425650568.0,3
1486,-8.0,-10.0,-6.0,13.0,4.0,0.0,-4.0,-1.0,1651072425651571.0,3
1487,-6.0,-3.0,3.0,-2.0,2.0,-4.0,-2.0,-1.0,1651072425651571.0,3
1488,6.0,-4.0,16.0,8.0,2.0,4.0,1.0,1.0,1651072425672890.0,3
1489,-6.0,-22.0,9.0,0.0,-1.0,-5.0,-4.0,-1.0,1651072425672890.0,3
1490,9.0,17.0,-25.0,1.0,5.0,7.0,7.0,4.0,1651072425673889.0,3
1491,2.0,34.0,4.0,-19.0,-7.0,-8.0,-4.0,-2.0,1651072425673889.0,3
1492,-13.0,-30.0,4.0,11.0,1.0,-1.0,0.0,-2.0,1651072425686134.0,3
1493,-5.0,-12.0,14.0,-4.0,-1.0,0.0,3.0,0.0,1651072425686134.0,3
1494,7.0,-8.0,2.0,7.0,10.0,9.0,0.0,-2.0,1651072425694997.0,3
1495,3.0,16.0,-16.0,-11.0,3.0,3.0,2.0,2.0,1651072425694997.0,3
1496,-6.0,-13.0,15.0,2.0,-14.0,-2.0,-1.0,-3.0,1651072425710479.0,3
1497,1.0,-5.0,-24.0,7.0,4.0,-3.0,-3.0,6.0,1651072425710479.0,3
1498,-17.0,13.0,16.0,2.0,-7.0,-6.0,-6.0,-8.0,1651072425711408.0,3
1499,21.0,-2.0,0.0,-6.0,2.0,2.0,5.0,6.0,1651072425711408.0,3
1500,5.0,27.0,12.0,11.0,-4.0,8.0,7.0,2.0,1651072425732313.0,3
1501,2.0,25.0,-6.0,-4.0,14.0,2.0,-4.0,-7.0,1651072425732313.0,3
1502,8.0,-40.0,-2.0,7.0,5.0,4.0,4.0,6.0,1651072425734301.0,3
1503,1.0,55.0,-7.0,-4.0,-7.0,-5.0,-4.0,-5.0,1651072425734301.0,3
1504,-8.0,-4.0,-2.0,-22.0,-5.0,-4.0,-2.0,-2.0,1651072425746441.0,3
1505,-5.0,-25.0,25.0,23.0,0.0,0.0,0.0,-1.0,1651072425746441.0,3
1506,-1.0,49.0,10.0,6.0,-6.0,-3.0,-5.0,-6.0,1651072425755391.0,3
1507,-4.0,-43.0,-8.0,-5.0,7.0,7.0,6.0,-3.0,1651072425755391.0,3
1508,-3.0,14.0,13.0,2.0,-2.0,-7.0,-3.0,4.0,1651072425770410.0,3
1509,-10.0,-31.0,-21.0,-7.0,3.0,0.0,0.0,-5.0,1651072425770410.0,3
1510,9.0,13.0,30.0,-10.0,-13.0,-4.0,1.0,3.0,1651072425771419.0,3
1511,-9.0,-26.0,-18.0,-1.0,-8.0,-6.0,-3.0,-3.0,1651072425771419.0,3
1512,3.0,37.0,-4.0,9.0,4.0,3.0,0.0,-5.0,1651072425791546.0,3
1513,-7.0,-24.0,0.0,-3.0,5.0,1.0,-4.0,-4.0,1651072425791546.0,3
1514,7.0,-9.0,7.0,4.0,2.0,-1.0,3.0,5.0,1651072425808678.0,3
1515,4.0,12.0,-12.0,-9.0,-12.0,-2.0,0.0,1.0,1651072425808678.0,3
1516,-7.0,-2.0,-3.0,5.0,5.0,2.0,-1.0,-4.0,1651072425808678.0,3
1517,19.0,41.0,-4.0,-1.0,-7.0,1.0,5.0,10.0,1651072425808678.0,3
1518,-13.0,-14.0,-26.0,-3.0,1.0,-3.0,-6.0,-8.0,1651072425815660.0,3
1519,-11.0,-36.0,34.0,11.0,6.0,0.0,-3.0,-1.0,1651072425815660.0,3
1520,17.0,8.0,-8.0,19.0,6.0,1.0,1.0,7.0,1651072425831604.0,3
1521,2.0,13.0,13.0,-28.0,-18.0,-3.0,-1.0,-2.0,1651072425831604.0,3
1522,-10.0,-14.0,-14.0,-5.0,-2.0,-4.0,-4.0,-4.0,1651072425836609.0,3
1523,-1.0,6.0,24.0,-2.0,-6.0,-4.0,-3.0,-1.0,1651072425836609.0,3
1524,-8.0,-21.0,-26.0,-1.0,10.0,5.0,2.0,-1.0,1651072425852819.0,3
1525,-2.0,-19.0,20.0,8.0,-1.0,-1.0,-2.0,-1.0,1651072425852819.0,3
1526,10.0,78.0,-13.0,-19.0,-9.0,-4.0,-1.0,1.0,1651072425853762.0,3
1527,-7.0,13.0,9.0,8.0,3.0,0.0,0.0,1.0,1651072425853762.0,3
1528,0.0,-39.0,-10.0,-2.0,1.0,-2.0,-1.0,-6.0,1651072425866747.0,3
1529,6.0,2.0,-4.0,-9.0,-5.0,4.0,0.0,0.0,1651072425866747.0,3
1530,-11.0,-22.0,-14.0,1.0,5.0,2.0,4.0,3.0,1651072425875625.0,3
1531,-3.0,1.0,-2.0,14.0,-2.0,-6.0,-7.0,-4.0,1651072425875625.0,3
1532,-6.0,4.0,-28.0,-14.0,-2.0,-4.0,-1.0,0.0,1651072425890632.0,3
1533,-3.0,-22.0,7.0,-2.0,4.0,1.0,2.0,-1.0,1651072425890632.0,3
1534,-4.0,-14.0,24.0,3.0,-13.0,-1.0,-1.0,1.0,1651072425891582.0,3
1535,-3.0,-40.0,-48.0,-10.0,4.0,-4.0,-7.0,-4.0,1651072425891582.0,3
1536,4.0,15.0,1.0,-4.0,-4.0,-1.0,2.0,5.0,1651072425912799.0,3
1537,-2.0,9.0,17.0,15.0,14.0,2.0,0.0,-2.0,1651072425912799.0,3
1538,0.0,11.0,-29.0,-7.0,0.0,2.0,0.0,-2.0,1651072425914797.0,3
1539,-8.0,-2.0,10.0,-3.0,-14.0,-6.0,-1.0,-3.0,1651072425914797.0,3
1540,-4.0,-6.0,38.0,4.0,1.0,-4.0,-6.0,-6.0,1651072425926709.0,3
1541,-6.0,1.0,-41.0,-13.0,-9.0,-3.0,-2.0,-1.0,1651072425926709.0,3
1542,7.0,-23.0,14.0,-1.0,-15.0,-1.0,0.0,1.0,1651072425935740.0,3
1543,21.0,-22.0,13.0,20.0,27.0,6.0,6.0,9.0,1651072425935740.0,3
1544,-5.0,22.0,-43.0,-17.0,-15.0,-4.0,-3.0,-6.0,1651072425949883.0,3
1545,3.0,12.0,-15.0,12.0,-1.0,0.0,0.0,3.0,1651072425949883.0,3
1546,-14.0,-22.0,-3.0,-10.0,2.0,-2.0,-6.0,-5.0,1651072425951838.0,3
1547,-1.0,-1.0,10.0,-8.0,-14.0,2.0,3.0,-1.0,1651072425951838.0,3
1548,-2.0,-33.0,11.0,12.0,8.0,1.0,-1.0,0.0,1651072425972840.0,3
1549,3.0,16.0,-2.0,-4.0,3.0,0.0,-2.0,0.0,1651072425972840.0,3
1550,-4.0,-8.0,-7.0,-3.0,-15.0,-6.0,-4.0,-2.0,1651072425973882.0,3
1551,1.0,17.0,4.0,2.0,5.0,1.0,-1.0,-3.0,1651072425973882.0,3
1552,-10.0,-38.0,20.0,1.0,-1.0,-3.0,-2.0,-1.0,1651072425995048.0,3
1553,7.0,-4.0,-12.0,-18.0,-11.0,0.0,0.0,2.0,1651072425995048.0,3
1554,3.0,22.0,-10.0,14.0,19.0,6.0,0.0,-2.0,1651072425997074.0,3
1555,-9.0,0.0,18.0,-9.0,-8.0,-4.0,-1.0,-9.0,1651072425997074.0,3
1556,3.0,12.0,11.0,12.0,9.0,7.0,4.0,10.0,1651072426010120.0,3
1557,2.0,-2.0,-12.0,1.0,-3.0,-6.0,-2.0,-3.0,1651072426010120.0,3
1558,-1.0,4.0,-17.0,2.0,7.0,-2.0,2.0,1.0,1651072426012140.0,3
1559,7.0,11.0,-15.0,-16.0,-9.0,-1.0,2.0,4.0,1651072426012140.0,3
1560,-13.0,-31.0,4.0,8.0,-4.0,-2.0,-4.0,-8.0,1651072426032879.0,3
1561,6.0,4.0,1.0,4.0,3.0,0.0,3.0,4.0,1651072426032879.0,3
1562,9.0,-5.0,0.0,-9.0,-9.0,-3.0,-1.0,2.0,1651072426033880.0,3
1563,-12.0,1.0,5.0,5.0,5.0,2.0,-1.0,-2.0,1651072426033880.0,3
1564,13.0,29.0,-5.0,0.0,10.0,0.0,1.0,3.0,1651072426055361.0,3
1565,-2.0,-7.0,-1.0,-2.0,2.0,3.0,-3.0,-1.0,1651072426055361.0,3
1566,-7.0,-19.0,-9.0,-2.0,-4.0,-4.0,-4.0,-4.0,1651072426056362.0,3
1567,7.0,6.0,8.0,-1.0,-5.0,-2.0,1.0,3.0,1651072426056362.0,3
1568,-7.0,-10.0,-27.0,-12.0,-9.0,1.0,0.0,-2.0,1651072426069443.0,3
1569,1.0,10.0,16.0,17.0,2.0,-1.0,-2.0,-2.0,1651072426069443.0,3
1570,0.0,20.0,-3.0,-3.0,11.0,0.0,-1.0,-3.0,1651072426085294.0,3
1571,-6.0,-12.0,-1.0,9.0,4.0,-2.0,-3.0,-2.0,1651072426085294.0,3
1572,1.0,13.0,10.0,-6.0,-1.0,2.0,-1.0,-2.0,1651072426092390.0,3
1573,6.0,-13.0,22.0,-4.0,-7.0,0.0,4.0,3.0,1651072426092390.0,3
1574,0.0,-12.0,-7.0,-5.0,-7.0,0.0,0.0,-1.0,1651072426094411.0,3
1575,1.0,-21.0,-16.0,-10.0,-7.0,-3.0,0.0,4.0,1651072426094411.0,3
1576,2.0,25.0,-1.0,10.0,10.0,1.0,-1.0,-1.0,1651072426115479.0,3
1577,-1.0,14.0,24.0,-4.0,5.0,6.0,2.0,1.0,1651072426115479.0,3
1578,-8.0,-24.0,1.0,7.0,-1.0,-1.0,-1.0,1.0,1651072426116478.0,3
1579,5.0,41.0,10.0,3.0,-11.0,-3.0,-4.0,-1.0,1651072426116478.0,3
1580,-7.0,-25.0,23.0,-6.0,4.0,3.0,0.0,-3.0,1651072426130536.0,3
1581,10.0,49.0,-16.0,8.0,2.0,2.0,2.0,3.0,1651072426130536.0,3
1582,0.0,-18.0,-9.0,-4.0,0.0,-10.0,-2.0,-1.0,1651072426131539.0,3
1583,-4.0,-19.0,5.0,-6.0,5.0,5.0,2.0,-1.0,1651072426131539.0,3
1584,2.0,1.0,9.0,-2.0,-9.0,-5.0,1.0,2.0,1651072426152828.0,3
1585,-5.0,8.0,0.0,3.0,2.0,0.0,-3.0,-3.0,1651072426152828.0,3
1586,0.0,-23.0,-18.0,4.0,-3.0,-1.0,1.0,1.0,1651072426153757.0,3
1587,-5.0,-25.0,5.0,-1.0,-3.0,-1.0,-3.0,-1.0,1651072426153757.0,3
1588,7.0,26.0,-12.0,-6.0,2.0,3.0,2.0,3.0,1651072426174853.0,3
1589,0.0,12.0,17.0,11.0,9.0,1.0,2.0,0.0,1651072426174853.0,3
1590,-3.0,14.0,2.0,-23.0,-12.0,-3.0,-2.0,-2.0,1651072426176780.0,3
1591,-4.0,-11.0,-9.0,7.0,-4.0,-2.0,-2.0,0.0,1651072426176780.0,3
1592,-6.0,-16.0,3.0,3.0,-2.0,-2.0,-4.0,-3.0,1651072426189809.0,3
1593,7.0,-15.0,-14.0,4.0,7.0,2.0,0.0,3.0,1651072426189809.0,3
1594,-1.0,4.0,19.0,8.0,5.0,2.0,4.0,2.0,1651072426191740.0,3
1595,0.0,12.0,5.0,-8.0,6.0,-1.0,-4.0,-1.0,1651072426191740.0,3
1596,7.0,-8.0,-24.0,-8.0,-8.0,0.0,4.0,2.0,1651072426212817.0,3
1597,-6.0,10.0,9.0,3.0,-7.0,-6.0,-4.0,-3.0,1651072426212817.0,3
1598,-6.0,-16.0,-1.0,9.0,2.0,0.0,-3.0,-3.0,1651072426214693.0,3
1599,1.0,0.0,-2.0,7.0,-6.0,-4.0,1.0,-2.0,1651072426214693.0,3
1600,18.0,15.0,-15.0,-11.0,-7.0,3.0,1.0,6.0,1651072426234941.0,3
1601,-9.0,-42.0,-37.0,-8.0,19.0,3.0,-1.0,-4.0,1651072426234941.0,3
1602,6.0,2.0,-15.0,7.0,5.0,3.0,0.0,3.0,1651072426236893.0,3
1603,-4.0,30.0,3.0,-1.0,-2.0,-4.0,0.0,-3.0,1651072426236893.0,3
1604,-8.0,-13.0,-7.0,3.0,-13.0,-7.0,-5.0,-5.0,1651072426249886.0,3
1605,-4.0,-9.0,-4.0,-15.0,-12.0,-2.0,-1.0,-1.0,1651072426249886.0,3
1606,5.0,16.0,19.0,0.0,3.0,5.0,2.0,3.0,1651072426256813.0,3
1607,6.0,-10.0,-18.0,-4.0,1.0,-2.0,1.0,2.0,1651072426256813.0,3
1608,-1.0,-11.0,5.0,-3.0,4.0,0.0,2.0,-1.0,1651072426273538.0,3
1609,1.0,21.0,13.0,6.0,-2.0,-2.0,-2.0,-1.0,1651072426273538.0,3
1610,-10.0,-8.0,10.0,14.0,0.0,-2.0,-3.0,-5.0,1651072426274539.0,3
1611,-4.0,3.0,-8.0,-17.0,-2.0,1.0,-3.0,0.0,1651072426274539.0,3
1612,-4.0,-4.0,9.0,-8.0,-4.0,-1.0,-2.0,-3.0,1651072426295591.0,3
1613,5.0,-18.0,-19.0,2.0,6.0,5.0,6.0,4.0,1651072426295591.0,3
1614,3.0,18.0,-7.0,-7.0,-4.0,-3.0,-1.0,2.0,1651072426296572.0,3
1615,11.0,17.0,24.0,2.0,-10.0,-2.0,2.0,2.0,1651072426296572.0,3
1616,-8.0,-7.0,-2.0,11.0,23.0,4.0,-1.0,-6.0,1651072426309606.0,3
1617,-17.0,-21.0,-13.0,-3.0,-12.0,-11.0,-7.0,-6.0,1651072426309606.0,3
1618,-15.0,-21.0,2.0,-9.0,1.0,2.0,0.0,-4.0,1651072426316593.0,3
1619,13.0,20.0,6.0,-1.0,-19.0,-3.0,0.0,3.0,1651072426316593.0,3
1620,-7.0,-43.0,-2.0,4.0,3.0,0.0,-3.0,-5.0,1651072426332412.0,3
1621,17.0,69.0,2.0,3.0,11.0,5.0,0.0,5.0,1651072426332412.0,3
1622,-17.0,-23.0,0.0,-8.0,-3.0,-3.0,-4.0,-7.0,1651072426334339.0,3
1623,-5.0,-5.0,-15.0,-4.0,2.0,0.0,-1.0,-3.0,1651072426334339.0,3
1624,1.0,18.0,12.0,1.0,-13.0,-4.0,0.0,1.0,1651072426354944.0,3
1625,-12.0,-34.0,11.0,-2.0,-8.0,0.0,2.0,-4.0,1651072426354944.0,3
1626,19.0,24.0,-5.0,-5.0,4.0,1.0,0.0,5.0,1651072426356872.0,3
1627,6.0,13.0,-12.0,4.0,7.0,4.0,5.0,4.0,1651072426356872.0,3
1628,1.0,26.0,15.0,-12.0,-12.0,-5.0,-1.0,-2.0,1651072426369948.0,3
1629,8.0,-20.0,22.0,14.0,7.0,2.0,2.0,3.0,1651072426369948.0,3
1630,-1.0,48.0,13.0,12.0,4.0,0.0,-1.0,-3.0,1651072426376003.0,3
1631,-2.0,-70.0,-28.0,-7.0,2.0,-1.0,-1.0,0.0,1651072426376003.0,3
1632,-2.0,7.0,4.0,4.0,2.0,1.0,-3.0,-4.0,1651072426392516.0,3
1633,-3.0,4.0,-9.0,-11.0,-9.0,-2.0,2.0,-1.0,1651072426392516.0,3
1634,3.0,-10.0,17.0,4.0,-1.0,0.0,3.0,2.0,1651072426394444.0,3
1635,-10.0,7.0,-4.0,-1.0,5.0,-1.0,-4.0,-5.0,1651072426394444.0,3
1636,17.0,4.0,6.0,9.0,3.0,6.0,5.0,8.0,1651072426414565.0,3
1637,-5.0,2.0,1.0,-6.0,-2.0,-5.0,-5.0,-3.0,1651072426414565.0,3
1638,3.0,-12.0,-15.0,1.0,-5.0,-3.0,0.0,0.0,1651072426416562.0,3
1639,-3.0,17.0,7.0,-11.0,7.0,2.0,3.0,-1.0,1651072426416562.0,3
1640,2.0,11.0,-2.0,6.0,-4.0,-4.0,-1.0,-1.0,1651072426429420.0,3
1641,4.0,9.0,1.0,7.0,-1.0,-1.0,0.0,2.0,1651072426429420.0,3
1642,-3.0,-15.0,-1.0,2.0,-2.0,0.0,-2.0,-2.0,1651072426444217.0,3
1643,-9.0,-4.0,2.0,1.0,-4.0,1.0,-3.0,-4.0,1651072426444217.0,3
1644,3.0,8.0,2.0,-7.0,4.0,1.0,-1.0,2.0,1651072426452884.0,3
1645,-2.0,-15.0,2.0,-5.0,0.0,0.0,2.0,2.0,1651072426452884.0,3
1646,3.0,-13.0,-1.0,-4.0,1.0,0.0,0.0,-1.0,1651072426453883.0,3
1647,0.0,17.0,-2.0,4.0,14.0,6.0,0.0,-1.0,1651072426453883.0,3
1648,1.0,-4.0,7.0,2.0,-1.0,-3.0,-1.0,2.0,1651072426475306.0,3
1649,-1.0,2.0,3.0,-4.0,-4.0,-1.0,-2.0,-2.0,1651072426475306.0,3
1650,-7.0,-6.0,-10.0,-7.0,-7.0,-3.0,-5.0,-3.0,1651072426476318.0,3
1651,0.0,4.0,-2.0,-4.0,0.0,0.0,1.0,4.0,1651072426476318.0,3
1652,3.0,4.0,-2.0,2.0,1.0,-3.0,1.0,2.0,1651072426489391.0,3
1653,-3.0,-6.0,-21.0,13.0,8.0,4.0,0.0,-1.0,1651072426489391.0,3
1654,-2.0,-3.0,0.0,-3.0,-1.0,-2.0,-2.0,-3.0,1651072426496542.0,3
1655,-5.0,-6.0,6.0,0.0,-1.0,-1.0,0.0,-3.0,1651072426496542.0,3
1656,-7.0,-7.0,-12.0,-8.0,-5.0,-4.0,-1.0,-3.0,1651072426512650.0,3
1657,1.0,0.0,6.0,-7.0,-5.0,-3.0,-2.0,-1.0,1651072426512650.0,3
1658,2.0,4.0,-4.0,3.0,1.0,1.0,-1.0,0.0,1651072426514605.0,3
1659,2.0,1.0,-5.0,1.0,-5.0,-5.0,-2.0,-1.0,1651072426514605.0,3
1660,-1.0,-1.0,-3.0,2.0,4.0,2.0,3.0,1.0,1651072426535364.0,3
1661,-1.0,2.0,1.0,-7.0,-1.0,2.0,0.0,-1.0,1651072426535364.0,3
1662,1.0,-1.0,-5.0,-5.0,1.0,1.0,-2.0,1.0,1651072426536369.0,3
1663,3.0,5.0,10.0,4.0,1.0,1.0,-1.0,1.0,1651072426536369.0,3
1664,-5.0,-9.0,-2.0,2.0,-6.0,-2.0,-5.0,-2.0,1651072426549333.0,3
1665,-3.0,-9.0,-1.0,-1.0,-2.0,-1.0,0.0,0.0,1651072426549333.0,3
1666,4.0,8.0,-1.0,-3.0,1.0,0.0,2.0,0.0,1651072426557671.0,3
1667,1.0,2.0,8.0,-3.0,5.0,0.0,0.0,-2.0,1651072426557671.0,3
1668,-2.0,-1.0,-1.0,11.0,1.0,5.0,-1.0,-1.0,1651072426572800.0,3
1669,-1.0,1.0,1.0,-1.0,-3.0,-3.0,0.0,-2.0,1651072426572800.0,3
1670,3.0,2.0,3.0,-2.0,-3.0,-1.0,0.0,0.0,1651072426573798.0,3
1671,2.0,-4.0,-1.0,-1.0,1.0,1.0,1.0,2.0,1651072426573798.0,3
1672,-3.0,-1.0,-1.0,-3.0,-3.0,-3.0,0.0,-1.0,1651072426594805.0,3
1673,1.0,1.0,0.0,-2.0,-5.0,-1.0,-3.0,-1.0,1651072426594805.0,3
1674,2.0,1.0,10.0,6.0,0.0,-1.0,1.0,1.0,1651072426596762.0,3
1675,-1.0,0.0,-10.0,-7.0,3.0,3.0,0.0,1.0,1651072426596762.0,3
1676,-4.0,-4.0,-6.0,-6.0,-1.0,-2.0,-3.0,-4.0,1651072426609209.0,3
1677,3.0,-1.0,-1.0,-7.0,1.0,-1.0,0.0,0.0,1651072426609209.0,3
1678,-2.0,-1.0,1.0,10.0,-2.0,0.0,0.0,0.0,1651072426618188.0,3
1679,-2.0,-3.0,2.0,7.0,-5.0,-2.0,-1.0,-2.0,1651072426618188.0,3
1680,4.0,2.0,-1.0,-3.0,0.0,1.0,0.0,2.0,1651072426632366.0,3
1681,3.0,2.0,3.0,0.0,0.0,1.0,0.0,1.0,1651072426632366.0,3
1682,-2.0,0.0,0.0,-6.0,3.0,-1.0,0.0,-3.0,1651072426634364.0,3
1683,-3.0,0.0,0.0,0.0,-2.0,-2.0,-8.0,-6.0,1651072426634364.0,3
1684,-4.0,-2.0,-9.0,0.0,-3.0,-2.0,-7.0,-2.0,1651072426655285.0,3
1685,1.0,1.0,-1.0,-8.0,0.0,-1.0,21.0,5.0,1651072426655285.0,3
1686,-1.0,-4.0,-4.0,-1.0,-7.0,-7.0,-1.0,2.0,1651072426656379.0,3
1687,1.0,-1.0,2.0,12.0,8.0,6.0,1.0,-1.0,1651072426656379.0,3
1688,4.0,2.0,-3.0,-14.0,0.0,-3.0,-5.0,-5.0,1651072426669209.0,3
1689,-13.0,3.0,-5.0,-2.0,-3.0,1.0,-6.0,-1.0,1651072426669209.0,3
1690,0.0,-7.0,2.0,5.0,-3.0,0.0,-3.0,-3.0,1651072426678019.0,3
1691,4.0,4.0,4.0,7.0,-2.0,-1.0,8.0,3.0,1651072426678019.0,3
1692,0.0,3.0,-5.0,-12.0,-3.0,-1.0,2.0,0.0,1651072426693333.0,3
1693,2.0,1.0,0.0,5.0,1.0,2.0,-2.0,-2.0,1651072426693333.0,3
1694,1.0,2.0,-9.0,-4.0,0.0,-1.0,0.0,1.0,1651072426699215.0,3
1695,-2.0,-1.0,0.0,-10.0,-7.0,-4.0,-2.0,-1.0,1651072426699215.0,3
1696,-3.0,-4.0,1.0,9.0,2.0,0.0,1.0,0.0,1651072426715362.0,3
1697,0.0,2.0,6.0,9.0,0.0,-1.0,-1.0,0.0,1651072426715362.0,3
1698,3.0,2.0,-3.0,-10.0,1.0,1.0,0.0,0.0,1651072426716370.0,3
1699,-2.0,1.0,4.0,15.0,5.0,2.0,5.0,2.0,1651072426716370.0,3
1700,-3.0,-7.0,-3.0,-6.0,-1.0,1.0,3.0,-1.0,1651072426728396.0,3
1701,0.0,0.0,3.0,-4.0,-4.0,-4.0,-6.0,-2.0,1651072426728396.0,3
1702,2.0,-3.0,-2.0,6.0,3.0,4.0,0.0,0.0,1651072426738084.0,3
1703,2.0,5.0,-2.0,-5.0,4.0,3.0,0.0,2.0,1651072426738084.0,3
1704,5.0,5.0,17.0,12.0,6.0,-2.0,1.0,0.0,1651072426752824.0,3
1705,0.0,-5.0,-6.0,0.0,-9.0,-2.0,-2.0,-1.0,1651072426752824.0,3
1706,0.0,1.0,8.0,-32.0,-1.0,1.0,-1.0,0.0,1651072426753823.0,3
1707,3.0,2.0,1.0,-3.0,5.0,2.0,-1.0,2.0,1651072426753823.0,3
1708,2.0,7.0,5.0,20.0,5.0,1.0,2.0,0.0,1651072426775525.0,3
1709,-1.0,-18.0,-35.0,-15.0,-4.0,-4.0,-2.0,-3.0,1651072426775525.0,3
1710,0.0,0.0,7.0,17.0,-5.0,-3.0,0.0,2.0,1651072426776376.0,3
1711,-1.0,5.0,-5.0,-12.0,-6.0,-4.0,-5.0,-3.0,1651072426776376.0,3
1712,1.0,3.0,-4.0,-1.0,1.0,2.0,1.0,2.0,1651072426788408.0,3
1713,-1.0,7.0,26.0,14.0,9.0,5.0,0.0,0.0,1651072426788408.0,3
1714,1.0,-8.0,-24.0,-10.0,2.0,2.0,2.0,0.0,1651072426805385.0,3
1715,-2.0,-1.0,-2.0,-4.0,-15.0,-5.0,-4.0,-2.0,1651072426805385.0,3
1716,-3.0,-8.0,-11.0,-15.0,-2.0,-1.0,0.0,0.0,1651072426812348.0,3
1717,-1.0,-4.0,-5.0,19.0,3.0,-2.0,-2.0,-3.0,1651072426812348.0,3
1718,3.0,10.0,-1.0,-9.0,6.0,0.0,-1.0,-1.0,1651072426814275.0,3
1719,-2.0,-7.0,23.0,7.0,-5.0,-2.0,1.0,-2.0,1651072426814275.0,3
1720,-2.0,-1.0,-15.0,-8.0,-2.0,-3.0,0.0,-1.0,1651072426834893.0,3
1721,4.0,-7.0,21.0,2.0,-2.0,-1.0,-2.0,-1.0,1651072426834893.0,3
1722,-2.0,5.0,-10.0,-6.0,3.0,3.0,2.0,0.0,1651072426836915.0,3
1723,-1.0,1.0,-1.0,-5.0,3.0,3.0,1.0,1.0,1651072426836915.0,3
1724,-6.0,-5.0,12.0,20.0,-8.0,-2.0,-1.0,-1.0,1651072426848922.0,3
1725,0.0,21.0,25.0,-1.0,-5.0,-4.0,-2.0,-1.0,1651072426848922.0,3
1726,-5.0,-23.0,-22.0,0.0,-3.0,-3.0,-2.0,0.0,1651072426857832.0,3
1727,0.0,0.0,-9.0,-3.0,2.0,4.0,1.0,2.0,1651072426857832.0,3
1728,2.0,2.0,-1.0,-20.0,-4.0,-1.0,-1.0,-1.0,1651072426872856.0,3
1729,1.0,1.0,-7.0,2.0,8.0,4.0,3.0,2.0,1651072426872856.0,3
1730,1.0,3.0,-2.0,-1.0,-6.0,0.0,0.0,-1.0,1651072426873816.0,3
1731,-1.0,-4.0,5.0,12.0,-5.0,-3.0,-3.0,0.0,1651072426873816.0,0
1732,0.0,3.0,15.0,-8.0,1.0,1.0,0.0,0.0,1651072426894713.0,0
1733,-3.0,-10.0,-11.0,21.0,-4.0,-3.0,-2.0,-1.0,1651072426894713.0,0
1734,-1.0,3.0,7.0,4.0,2.0,0.0,-1.0,-1.0,1651072426896706.0,0
1735,0.0,-5.0,-13.0,-2.0,5.0,1.0,2.0,0.0,1651072426896706.0,0
1736,0.0,-2.0,-12.0,10.0,6.0,4.0,1.0,-1.0,1651072426908789.0,0
1737,-1.0,-3.0,-5.0,-40.0,-3.0,0.0,-2.0,-1.0,1651072426908789.0,0
1738,-4.0,-2.0,8.0,30.0,-4.0,-2.0,-1.0,-1.0,1651072426917769.0,0
1739,0.0,0.0,-1.0,-10.0,3.0,-1.0,-2.0,0.0,1651072426917769.0,0
1740,3.0,-1.0,1.0,22.0,-1.0,-3.0,0.0,1.0,1651072426940590.0,0
1741,-1.0,0.0,-2.0,-24.0,-4.0,0.0,1.0,-1.0,1651072426940590.0,0
1742,0.0,-1.0,-5.0,-2.0,-8.0,-3.0,-1.0,-1.0,1651072426941596.0,0
1743,-3.0,0.0,10.0,-1.0,5.0,-1.0,-1.0,-1.0,1651072426941596.0,0
1744,1.0,-3.0,-6.0,-7.0,-2.0,-2.0,0.0,-1.0,1651072426954621.0,0
1745,-1.0,-5.0,-14.0,2.0,8.0,5.0,0.0,1.0,1651072426954621.0,0
1746,0.0,5.0,12.0,11.0,-1.0,1.0,0.0,0.0,1651072426956550.0,0
1747,2.0,2.0,8.0,21.0,-3.0,-2.0,-3.0,-2.0,1651072426956550.0,0
1748,-4.0,-10.0,-33.0,-14.0,-3.0,-2.0,0.0,-2.0,1651072426968584.0,0
1749,2.0,6.0,7.0,3.0,2.0,-1.0,-2.0,-1.0,1651072426968584.0,0
1750,-3.0,1.0,16.0,-11.0,2.0,1.0,1.0,-1.0,1651072426977733.0,0
1751,2.0,-4.0,-7.0,5.0,0.0,1.0,0.0,-1.0,1651072426977733.0,0
1752,-3.0,-3.0,-6.0,3.0,3.0,0.0,-2.0,1.0,1651072426992853.0,0
1753,7.0,9.0,9.0,-9.0,-4.0,-1.0,0.0,1.0,1651072426992853.0,0
1754,-14.0,-18.0,-16.0,-3.0,-2.0,0.0,-1.0,1.0,1651072426993885.0,0
1755,-2.0,-3.0,-4.0,-6.0,-2.0,-1.0,-1.0,-1.0,1651072426993885.0,0
1756,-2.0,-4.0,0.0,-1.0,-7.0,-1.0,-3.0,0.0,1651072427014904.0,0
1757,0.0,-6.0,-3.0,20.0,8.0,3.0,0.0,0.0,1651072427014904.0,0
1758,2.0,6.0,10.0,-20.0,3.0,2.0,0.0,0.0,1651072427016931.0,0
1759,-2.0,-2.0,-2.0,-22.0,-9.0,-3.0,0.0,0.0,1651072427016931.0,0
1760,-4.0,0.0,-2.0,4.0,-4.0,-2.0,-1.0,-3.0,1651072427037845.0,0
1761,0.0,-3.0,-2.0,12.0,-3.0,-5.0,-2.0,-2.0,1651072427037845.0,0
1762,1.0,2.0,0.0,6.0,5.0,0.0,0.0,0.0,1651072427038848.0,0
1763,-3.0,-3.0,-10.0,-1.0,1.0,-1.0,0.0,0.0,1651072427038848.0,0
1764,3.0,6.0,19.0,-3.0,1.0,4.0,2.0,0.0,1651072427052560.0,0
1765,-4.0,1.0,-5.0,-5.0,0.0,1.0,0.0,-1.0,1651072427052560.0,0
1766,0.0,-4.0,-5.0,-20.0,-8.0,-3.0,-1.0,-2.0,1651072427054508.0,0
1767,3.0,1.0,2.0,8.0,0.0,-1.0,-1.0,-2.0,1651072427054508.0,0
1768,-2.0,-2.0,1.0,5.0,2.0,2.0,1.0,0.0,1651072427074713.0,0
1769,-2.0,-2.0,-9.0,-6.0,-4.0,-2.0,0.0,-1.0,1651072427074713.0,0
1770,2.0,2.0,16.0,13.0,0.0,-1.0,0.0,-1.0,1651072427076654.0,0
1771,-3.0,-8.0,-19.0,-23.0,-3.0,-3.0,-2.0,0.0,1651072427076654.0,0
1772,0.0,-4.0,7.0,5.0,-1.0,-1.0,-1.0,-1.0,1651072427114304.0,0
1773,-3.0,1.0,1.0,15.0,4.0,1.0,0.0,-1.0,1651072427114304.0,0
1774,1.0,4.0,1.0,-6.0,-3.0,0.0,0.0,0.0,1651072427115023.0,0
1775,7.0,2.0,-2.0,-1.0,-3.0,-1.0,-1.0,0.0,1651072427115023.0,0
1776,-3.0,0.0,1.0,0.0,3.0,-2.0,-1.0,-1.0,1651072427116023.0,0
1777,1.0,-1.0,-2.0,-13.0,-2.0,1.0,-1.0,1.0,1651072427116023.0,0
1778,1.0,-2.0,-1.0,1.0,-2.0,-2.0,-1.0,-1.0,1651072427120011.0,0
1779,3.0,-1.0,-8.0,3.0,1.0,0.0,-1.0,1.0,1651072427120011.0,0
1780,3.0,7.0,34.0,13.0,2.0,0.0,1.0,0.0,1651072427135146.0,0
1781,-7.0,3.0,-10.0,-6.0,0.0,-4.0,-3.0,-4.0,1651072427135146.0,0
1782,1.0,-13.0,-32.0,-18.0,-7.0,-2.0,-2.0,-1.0,1651072427137145.0,0
1783,-4.0,-1.0,3.0,-1.0,-4.0,0.0,0.0,-1.0,1651072427137145.0,0
1784,0.0,2.0,-8.0,-9.0,-2.0,-3.0,-1.0,1.0,1651072427157171.0,0
1785,0.0,5.0,16.0,11.0,3.0,1.0,1.0,2.0,1651072427157171.0,0
1786,0.0,1.0,23.0,4.0,2.0,0.0,1.0,0.0,1651072427159131.0,0
1787,-4.0,-13.0,-32.0,-6.0,-2.0,-4.0,-1.0,-1.0,1651072427159131.0,0
1788,-1.0,-3.0,-2.0,-1.0,-2.0,3.0,-2.0,-1.0,1651072427172379.0,4
1789,3.0,-2.0,-1.0,-7.0,6.0,2.0,0.0,0.0,1651072427172379.0,4
1790,-1.0,1.0,-3.0,-3.0,-2.0,0.0,-2.0,-1.0,1651072427179186.0,4
1791,-1.0,1.0,8.0,-1.0,-4.0,-2.0,0.0,-1.0,1651072427179186.0,4
1792,-1.0,1.0,0.0,1.0,-1.0,-1.0,-2.0,-3.0,1651072427194897.0,4
1793,-1.0,-7.0,-12.0,-2.0,-7.0,-3.0,-3.0,0.0,1651072427194897.0,4
1794,2.0,5.0,-2.0,7.0,5.0,0.0,-1.0,0.0,1651072427196866.0,4
1795,-2.0,1.0,5.0,-1.0,2.0,2.0,0.0,1.0,1651072427196866.0,4
1796,-1.0,1.0,-3.0,-6.0,-4.0,-2.0,0.0,-1.0,1651072427217349.0,4
1797,1.0,-5.0,-6.0,-8.0,-3.0,0.0,1.0,-1.0,1651072427217349.0,4
1798,0.0,1.0,-1.0,3.0,3.0,3.0,1.0,0.0,1651072427219371.0,4
1799,0.0,2.0,5.0,4.0,1.0,-1.0,-1.0,-2.0,1651072427219371.0,4
1800,2.0,2.0,3.0,-2.0,-2.0,-3.0,-2.0,1.0,1651072427232359.0,4
1801,-3.0,-13.0,-3.0,-4.0,-4.0,-1.0,-1.0,0.0,1651072427232359.0,4
1802,1.0,1.0,2.0,0.0,4.0,2.0,-1.0,-1.0,1651072427239290.0,4
1803,0.0,3.0,6.0,6.0,0.0,0.0,0.0,0.0,1651072427239290.0,4
1804,-3.0,-5.0,-13.0,-22.0,-1.0,-3.0,-1.0,0.0,1651072427254869.0,4
1805,1.0,3.0,8.0,8.0,-4.0,-2.0,-1.0,-1.0,1651072427254869.0,4
1806,1.0,-2.0,-22.0,1.0,-2.0,-1.0,-2.0,-2.0,1651072427256894.0,4
1807,-1.0,9.0,27.0,7.0,1.0,2.0,1.0,0.0,1651072427256894.0,4
1808,0.0,-1.0,-8.0,-2.0,-1.0,0.0,0.0,1.0,1651072427277502.0,4
1809,-1.0,2.0,-1.0,-6.0,3.0,4.0,1.0,0.0,1651072427277502.0,4
1810,0.0,1.0,8.0,7.0,1.0,1.0,0.0,-2.0,1651072427279429.0,4
1811,-1.0,2.0,0.0,-3.0,-7.0,-2.0,-2.0,1.0,1651072427279429.0,4
1812,-2.0,-1.0,0.0,8.0,9.0,2.0,0.0,0.0,1651072427292406.0,4
1813,1.0,1.0,-11.0,-12.0,-7.0,-1.0,-1.0,0.0,1651072427292406.0,4
1814,2.0,2.0,-5.0,-4.0,-2.0,-1.0,0.0,1.0,1651072427300490.0,4
1815,-4.0,-10.0,-7.0,30.0,0.0,-2.0,-4.0,-4.0,1651072427300490.0,4
1816,0.0,-3.0,-3.0,-8.0,-6.0,-1.0,0.0,-4.0,1651072427315578.0,4
1817,-1.0,1.0,6.0,2.0,-2.0,-1.0,0.0,1.0,1651072427315578.0,4
1818,-1.0,2.0,2.0,-4.0,3.0,2.0,0.0,1.0,1651072427316565.0,4
1819,-1.0,-4.0,-3.0,-13.0,0.0,-1.0,0.0,1.0,1651072427316565.0,4
1820,0.0,3.0,-5.0,4.0,0.0,-1.0,-1.0,2.0,1651072427337729.0,4
1821,-2.0,1.0,-3.0,2.0,3.0,-1.0,0.0,0.0,1651072427337729.0,4
1822,3.0,-2.0,3.0,0.0,-5.0,-3.0,-1.0,0.0,1651072427339682.0,4
1823,-3.0,-3.0,-7.0,0.0,3.0,0.0,-2.0,-2.0,1651072427339682.0,4
1824,0.0,1.0,8.0,5.0,3.0,0.0,-1.0,0.0,1651072427351655.0,4
1825,-3.0,0.0,-2.0,-2.0,-2.0,-2.0,0.0,-1.0,1651072427351655.0,4
1826,-1.0,1.0,3.0,5.0,-2.0,-2.0,0.0,-1.0,1651072427358674.0,4
1827,4.0,15.0,11.0,1.0,0.0,0.0,2.0,2.0,1651072427358674.0,4
1828,-2.0,-13.0,-12.0,-5.0,0.0,-1.0,0.0,-1.0,1651072427374578.0,4
1829,2.0,1.0,14.0,-11.0,-10.0,-2.0,0.0,0.0,1651072427374578.0,4
1830,-2.0,-5.0,-35.0,17.0,1.0,0.0,-1.0,-1.0,1651072427382698.0,4
1831,1.0,6.0,14.0,0.0,7.0,0.0,0.0,2.0,1651072427382698.0,4
1832,-1.0,0.0,8.0,-2.0,-8.0,-1.0,-2.0,-1.0,1651072427397726.0,4
1833,1.0,0.0,10.0,13.0,5.0,-2.0,-1.0,0.0,1651072427397726.0,4
1834,-2.0,4.0,9.0,-18.0,1.0,1.0,2.0,-1.0,1651072427398683.0,4
1835,-1.0,-10.0,-12.0,0.0,-1.0,0.0,-2.0,-1.0,1651072427398683.0,4
1836,-4.0,4.0,8.0,13.0,-4.0,-4.0,-1.0,1.0,1651072427411616.0,4
1837,-1.0,-5.0,-11.0,-12.0,-5.0,-3.0,-2.0,-1.0,1651072427411616.0,4
1838,-1.0,2.0,8.0,4.0,1.0,4.0,-1.0,-2.0,1651072427418667.0,4
1839,0.0,-4.0,-10.0,-7.0,-1.0,0.0,1.0,1.0,1651072427418667.0,4
1840,1.0,-1.0,4.0,-4.0,2.0,0.0,0.0,-2.0,1651072427435370.0,4
1841,2.0,0.0,-1.0,8.0,0.0,0.0,0.0,1.0,1651072427435370.0,4
1842,-3.0,-5.0,1.0,1.0,-3.0,-1.0,1.0,-1.0,1651072427436379.0,4
1843,0.0,-1.0,0.0,-6.0,0.0,1.0,-1.0,-2.0,1651072427436379.0,4
1844,-1.0,-2.0,-1.0,3.0,0.0,0.0,-2.0,0.0,1651072427457697.0,4
1845,-2.0,-2.0,-19.0,-7.0,-1.0,0.0,-1.0,-1.0,1651072427457697.0,4
1846,0.0,0.0,11.0,-3.0,1.0,-1.0,1.0,1.0,1651072427459652.0,4
1847,-1.0,-4.0,-3.0,12.0,0.0,1.0,0.0,-2.0,1651072427459652.0,4
1848,1.0,4.0,0.0,2.0,-2.0,0.0,-1.0,-1.0,1651072427472392.0,4
1849,-2.0,-5.0,-5.0,-1.0,-1.0,-1.0,-2.0,-2.0,1651072427472392.0,4
1850,-1.0,1.0,4.0,-2.0,2.0,1.0,-2.0,0.0,1651072427478378.0,4
1851,1.0,1.0,-3.0,-11.0,-4.0,-1.0,0.0,-1.0,1651072427478378.0,4
1852,-1.0,-2.0,-5.0,-5.0,0.0,0.0,1.0,0.0,1651072427495333.0,4
1853,0.0,2.0,6.0,4.0,3.0,1.0,1.0,1.0,1651072427495333.0,4
1854,-1.0,0.0,-2.0,1.0,-4.0,-2.0,0.0,-3.0,1651072427497358.0,4
1855,-1.0,-2.0,-5.0,-8.0,6.0,4.0,0.0,0.0,1651072427497358.0,4
1856,2.0,0.0,3.0,7.0,2.0,2.0,0.0,-1.0,1651072427525408.0,4
1857,0.0,-5.0,0.0,-9.0,-6.0,-2.0,-1.0,0.0,1651072427525408.0,4
1858,0.0,-3.0,-1.0,5.0,2.0,-5.0,0.0,-1.0,1651072427526408.0,4
1859,-1.0,-1.0,-1.0,11.0,3.0,0.0,0.0,-1.0,1651072427526408.0,4
1860,-1.0,-1.0,-1.0,-4.0,-2.0,-1.0,0.0,-2.0,1651072427531395.0,4
1861,0.0,3.0,0.0,-2.0,-5.0,1.0,0.0,-1.0,1651072427531395.0,4
1862,0.0,1.0,8.0,-6.0,-6.0,-1.0,-1.0,0.0,1651072427539919.0,4
1863,-4.0,-6.0,11.0,3.0,0.0,-1.0,-1.0,-2.0,1651072427539919.0,4
1864,0.0,3.0,-9.0,-5.0,3.0,1.0,0.0,0.0,1651072427555030.0,4
1865,-1.0,2.0,7.0,3.0,2.0,-2.0,-1.0,-2.0,1651072427555030.0,4
1866,1.0,3.0,7.0,6.0,-3.0,-1.0,-2.0,0.0,1651072427556986.0,4
1867,0.0,0.0,0.0,-2.0,-4.0,-1.0,-1.0,0.0,1651072427556986.0,4
1868,1.0,-3.0,2.0,-1.0,0.0,-1.0,0.0,1.0,1651072427577423.0,4
1869,0.0,1.0,0.0,-1.0,2.0,1.0,1.0,0.0,1651072427577423.0,4
1870,-3.0,-3.0,-2.0,-4.0,-3.0,-1.0,-1.0,-1.0,1651072427579356.0,4
1871,1.0,0.0,-5.0,-1.0,-3.0,-3.0,-1.0,1.0,1651072427579356.0,4
1872,-2.0,-4.0,1.0,-5.0,-1.0,-1.0,1.0,-1.0,1651072427591346.0,4
1873,0.0,0.0,1.0,11.0,-3.0,-2.0,-2.0,-1.0,1651072427591346.0,4
1874,-1.0,-3.0,-6.0,-8.0,3.0,0.0,-1.0,1.0,1651072427607344.0,4
1875,0.0,-2.0,-4.0,-4.0,-2.0,-1.0,2.0,0.0,1651072427607344.0,4
1876,0.0,2.0,-2.0,0.0,3.0,1.0,-1.0,1.0,1651072427615299.0,4
1877,-1.0,-1.0,-3.0,-6.0,-1.0,-2.0,-1.0,0.0,1651072427615299.0,4
1878,-1.0,-1.0,0.0,4.0,0.0,0.0,-1.0,-2.0,1651072427616279.0,4
1879,-2.0,1.0,-2.0,-9.0,-7.0,-3.0,-1.0,-1.0,1651072427616279.0,4
1880,0.0,2.0,-4.0,6.0,5.0,-1.0,-1.0,-2.0,1651072427637597.0,4
1881,-3.0,-8.0,1.0,2.0,5.0,5.0,0.0,-1.0,1651072427637597.0,4
1882,0.0,0.0,-2.0,4.0,-1.0,-3.0,-3.0,-1.0,1651072427639552.0,4
1883,0.0,3.0,-4.0,-6.0,1.0,1.0,1.0,1.0,1651072427639552.0,4
1884,0.0,0.0,-3.0,-5.0,-8.0,-5.0,0.0,0.0,1651072427651678.0,4
1885,0.0,4.0,3.0,6.0,4.0,-1.0,0.0,1.0,1651072427651678.0,4
1886,0.0,-1.0,-1.0,-1.0,9.0,10.0,1.0,-1.0,1651072427659931.0,4
1887,2.0,0.0,1.0,3.0,-2.0,-2.0,0.0,-2.0,1651072427659931.0,4
1888,-1.0,0.0,1.0,3.0,1.0,1.0,0.0,0.0,1651072427675412.0,4
1889,1.0,-4.0,-5.0,-3.0,-3.0,-5.0,-2.0,-2.0,1651072427675412.0,4
1890,-1.0,-2.0,-7.0,-15.0,-6.0,-4.0,-1.0,0.0,1651072427676425.0,4
1891,-2.0,2.0,10.0,4.0,-8.0,-2.0,-2.0,-2.0,1651072427676425.0,4
1892,0.0,-2.0,-9.0,-3.0,8.0,1.0,1.0,-1.0,1651072427697735.0,4
1893,-1.0,-3.0,0.0,0.0,2.0,1.0,0.0,0.0,1651072427697735.0,4
1894,0.0,0.0,1.0,14.0,1.0,-2.0,-2.0,0.0,1651072427699686.0,4
1895,0.0,-2.0,1.0,0.0,-1.0,-1.0,-2.0,-1.0,1651072427699686.0,4
1896,1.0,1.0,4.0,-4.0,-7.0,-1.0,0.0,-1.0,1651072427720539.0,4
