,EMG_s0,EMG_s1,EMG_s2,EMG_s3,EMG_s4,EMG_s5,EMG_s6,EMG_s7,timestamp,signal
0,-1.0,-1.0,10.0,6.0,6.0,-6.0,-3.0,0.0,1651072632181644.0,0
1,0.0,1.0,-5.0,0.0,1.0,11.0,0.0,0.0,1651072632181644.0,0
2,0.0,-1.0,7.0,-1.0,-1.0,-2.0,1.0,0.0,1651072632182665.0,0
3,1.0,2.0,4.0,1.0,-1.0,-2.0,0.0,-2.0,1651072632182665.0,0
4,0.0,2.0,-2.0,2.0,1.0,0.0,0.0,-1.0,1651072632184666.0,0
5,-1.0,0.0,1.0,0.0,-3.0,-2.0,-1.0,1.0,1651072632184666.0,0
6,0.0,4.0,-1.0,0.0,-7.0,1.0,-1.0,-1.0,1651072632184666.0,0
7,-1.0,-3.0,-3.0,-4.0,4.0,-5.0,-2.0,0.0,1651072632184666.0,0
8,0.0,-1.0,-2.0,-3.0,-9.0,-9.0,0.0,0.0,1651072632192617.0,0
9,1.0,1.0,3.0,-2.0,7.0,6.0,0.0,-1.0,1651072632192617.0,0
10,1.0,-1.0,2.0,1.0,4.0,2.0,-2.0,-1.0,1651072632198600.0,0
11,0.0,0.0,-1.0,4.0,0.0,-4.0,-2.0,1.0,1651072632198600.0,0
12,1.0,-1.0,-4.0,-1.0,0.0,4.0,1.0,0.0,1651072632207607.0,0
13,1.0,0.0,2.0,-2.0,-4.0,-3.0,-1.0,0.0,1651072632207607.0,0
14,-1.0,-4.0,-8.0,-4.0,2.0,-2.0,0.0,0.0,1651072632222537.0,0
15,-3.0,-1.0,0.0,3.0,-2.0,1.0,0.0,0.0,1651072632222537.0,0
16,0.0,3.0,3.0,-2.0,0.0,0.0,0.0,-1.0,1651072632229550.0,0
17,-2.0,-5.0,-2.0,-2.0,-2.0,-6.0,-1.0,-3.0,1651072632229550.0,0
18,1.0,1.0,-9.0,-4.0,-4.0,0.0,1.0,1.0,1651072632243923.0,0
19,0.0,5.0,11.0,-3.0,2.0,2.0,-2.0,-2.0,1651072632243923.0,0
20,-4.0,-8.0,-7.0,2.0,1.0,-8.0,-3.0,-1.0,1651072632259630.0,0
21,-1.0,2.0,2.0,1.0,6.0,16.0,0.0,0.0,1651072632259630.0,0
22,-2.0,-5.0,-1.0,2.0,0.0,-4.0,-1.0,1.0,1651072632267614.0,0
23,-1.0,1.0,-3.0,-1.0,-3.0,-5.0,-1.0,-3.0,1651072632267614.0,0
24,-1.0,1.0,-2.0,-2.0,-3.0,0.0,2.0,0.0,1651072632306647.0,0
25,-1.0,-1.0,4.0,4.0,3.0,-3.0,-2.0,0.0,1651072632306647.0,0
26,0.0,-2.0,0.0,-1.0,-4.0,-6.0,-1.0,-1.0,1651072632307635.0,0
27,0.0,-3.0,-5.0,0.0,3.0,8.0,0.0,-2.0,1651072632307635.0,0
28,0.0,-1.0,1.0,1.0,0.0,-2.0,-2.0,-1.0,1651072632308656.0,0
29,-3.0,1.0,3.0,-2.0,1.0,-2.0,-2.0,0.0,1651072632308656.0,0
30,1.0,0.0,-1.0,-2.0,-4.0,-2.0,1.0,1.0,1651072632311627.0,0
31,-1.0,-2.0,1.0,-1.0,-1.0,-1.0,0.0,0.0,1651072632311627.0,0
32,-2.0,-1.0,-4.0,-4.0,-3.0,-3.0,-2.0,-1.0,1651072632318605.0,0
33,3.0,6.0,9.0,1.0,1.0,-1.0,1.0,0.0,1651072632318605.0,0
34,0.0,-9.0,-6.0,2.0,4.0,-1.0,-2.0,0.0,1651072632325662.0,0
35,0.0,-3.0,-8.0,2.0,-6.0,-1.0,-1.0,-1.0,1651072632325662.0,0
36,0.0,0.0,5.0,-1.0,-1.0,5.0,1.0,0.0,1651072632334573.0,0
37,0.0,2.0,-4.0,-1.0,2.0,3.0,1.0,0.0,1651072632334573.0,0
38,1.0,5.0,7.0,-2.0,-2.0,-5.0,-1.0,-2.0,1651072632348553.0,0
39,-1.0,-3.0,-8.0,-1.0,5.0,3.0,0.0,2.0,1651072632348553.0,0
40,0.0,-1.0,-6.0,2.0,-4.0,-6.0,-1.0,0.0,1651072632355537.0,0
41,-1.0,-1.0,-2.0,-2.0,-8.0,-8.0,-1.0,0.0,1651072632355537.0,0
42,-2.0,2.0,1.0,3.0,6.0,5.0,2.0,0.0,1651072632379509.0,0
43,0.0,-2.0,1.0,-3.0,-1.0,-2.0,0.0,-3.0,1651072632379509.0,0
44,0.0,0.0,5.0,1.0,2.0,2.0,0.0,-1.0,1651072632381451.0,0
45,0.0,-3.0,-6.0,1.0,-4.0,-7.0,-1.0,-2.0,1651072632381451.0,0
46,-1.0,0.0,-2.0,-2.0,1.0,6.0,0.0,-1.0,1651072632394423.0,0
47,-1.0,3.0,5.0,2.0,3.0,-3.0,0.0,1.0,1651072632394423.0,0
48,-1.0,0.0,2.0,-1.0,3.0,5.0,2.0,1.0,1651072632401057.0,0
49,0.0,-2.0,-2.0,-5.0,-3.0,2.0,-1.0,-1.0,1651072632401057.0,0
50,-1.0,0.0,-4.0,0.0,-4.0,-3.0,-1.0,-1.0,1651072632417262.0,0
51,1.0,2.0,4.0,-3.0,-2.0,-5.0,-2.0,-1.0,1651072632417262.0,0
52,0.0,1.0,1.0,-2.0,0.0,0.0,1.0,-1.0,1651072632419190.0,0
53,-1.0,-6.0,-8.0,-2.0,-1.0,2.0,-1.0,-1.0,1651072632419190.0,0
54,-1.0,1.0,-1.0,-3.0,-1.0,-1.0,-1.0,0.0,1651072632439317.0,0
55,-1.0,1.0,4.0,0.0,-5.0,-4.0,-2.0,1.0,1651072632439317.0,0
56,-1.0,-2.0,-3.0,-2.0,3.0,-2.0,-3.0,0.0,1651072632441285.0,0
57,0.0,3.0,0.0,1.0,0.0,4.0,2.0,2.0,1651072632441285.0,0
58,-1.0,-4.0,-3.0,-3.0,7.0,3.0,-2.0,0.0,1651072632454250.0,0
59,-1.0,-2.0,5.0,5.0,-8.0,-11.0,-3.0,-3.0,1651072632454250.0,0
60,0.0,1.0,0.0,2.0,-1.0,2.0,-2.0,-1.0,1651072632461270.0,0
61,-1.0,-1.0,1.0,0.0,-2.0,1.0,0.0,0.0,1651072632461270.0,0
62,-1.0,4.0,-1.0,-4.0,3.0,-1.0,0.0,-1.0,1651072632477193.0,0
63,-1.0,-5.0,-4.0,-2.0,-3.0,-2.0,0.0,0.0,1651072632477193.0,0
64,-1.0,0.0,-3.0,0.0,2.0,-2.0,-2.0,-1.0,1651072632479183.0,0
65,-2.0,1.0,4.0,-1.0,-3.0,-3.0,-1.0,-1.0,1651072632479183.0,0
66,0.0,-1.0,-8.0,0.0,-3.0,2.0,-1.0,0.0,1651072632500129.0,0
67,0.0,1.0,-1.0,-5.0,0.0,-5.0,0.0,2.0,1651072632500129.0,0
68,0.0,-1.0,1.0,-3.0,2.0,2.0,-1.0,-1.0,1651072632501125.0,0
69,-1.0,-5.0,-5.0,-1.0,-2.0,1.0,1.0,-1.0,1651072632501125.0,0
70,-1.0,2.0,2.0,-3.0,-3.0,-1.0,0.0,-2.0,1651072632514148.0,0
71,-1.0,1.0,2.0,-1.0,-1.0,-1.0,1.0,-1.0,1651072632514148.0,0
72,0.0,0.0,0.0,2.0,-2.0,0.0,-2.0,0.0,1651072632521223.0,0
73,-1.0,-4.0,-5.0,-6.0,-3.0,-2.0,0.0,-1.0,1651072632521223.0,0
74,-2.0,0.0,-1.0,3.0,0.0,-1.0,-1.0,-1.0,1651072632536797.0,0
75,0.0,3.0,3.0,1.0,2.0,2.0,0.0,-1.0,1651072632536797.0,0
76,1.0,-2.0,-4.0,2.0,-1.0,-9.0,-3.0,0.0,1651072632538732.0,0
77,-2.0,1.0,0.0,-2.0,-2.0,9.0,-2.0,-1.0,1651072632538732.0,0
78,-3.0,-1.0,8.0,7.0,2.0,0.0,1.0,1.0,1651072632559569.0,0
79,0.0,1.0,-3.0,-3.0,-1.0,1.0,-3.0,-1.0,1651072632559569.0,0
80,1.0,-2.0,0.0,-2.0,-2.0,-10.0,1.0,0.0,1651072632561592.0,0
81,0.0,2.0,2.0,1.0,7.0,16.0,1.0,0.0,1651072632561592.0,0
82,0.0,-2.0,-3.0,-4.0,-2.0,-4.0,0.0,1.0,1651072632573653.0,0
83,0.0,2.0,7.0,0.0,-1.0,2.0,0.0,-1.0,1651072632573653.0,0
84,-2.0,-10.0,-10.0,-2.0,-6.0,-8.0,-1.0,-2.0,1651072632582701.0,0
85,0.0,2.0,-1.0,0.0,2.0,-1.0,-1.0,-1.0,1651072632582701.0,0
86,1.0,0.0,-6.0,1.0,-11.0,-7.0,1.0,-2.0,1651072632597662.0,0
87,0.0,2.0,8.0,4.0,4.0,-1.0,0.0,1.0,1651072632597662.0,0
88,0.0,4.0,2.0,-1.0,5.0,11.0,2.0,-1.0,1651072632598658.0,0
89,-2.0,-2.0,-4.0,-2.0,2.0,-6.0,0.0,1.0,1651072632598658.0,0
90,-2.0,0.0,3.0,-1.0,-3.0,0.0,-1.0,0.0,1651072632627332.0,0
91,-1.0,-1.0,-7.0,-3.0,-4.0,-8.0,-2.0,0.0,1651072632627332.0,0
92,-2.0,-1.0,-1.0,1.0,-2.0,2.0,-3.0,-1.0,1651072632628263.0,0
93,1.0,-2.0,3.0,-1.0,-8.0,-1.0,-2.0,0.0,1651072632628263.0,0
94,-1.0,-1.0,-2.0,-1.0,6.0,-1.0,0.0,-1.0,1651072632634274.0,0
95,1.0,1.0,4.0,-1.0,2.0,2.0,2.0,-1.0,1651072632634274.0,0
96,0.0,-4.0,-1.0,-1.0,1.0,3.0,0.0,-2.0,1651072632641248.0,0
97,0.0,1.0,0.0,0.0,1.0,-5.0,-1.0,-2.0,1651072632641248.0,0
98,-1.0,2.0,-2.0,0.0,-5.0,-5.0,-2.0,-1.0,1651072632656737.0,0
99,-2.0,-8.0,-5.0,3.0,6.0,11.0,2.0,1.0,1651072632656737.0,0
100,-1.0,5.0,8.0,-1.0,1.0,4.0,2.0,0.0,1651072632658674.0,0
101,-1.0,-2.0,-1.0,-1.0,-4.0,-9.0,-2.0,-2.0,1651072632658674.0,0
102,0.0,0.0,-1.0,-4.0,-3.0,-6.0,-2.0,0.0,1651072632679467.0,0
103,0.0,0.0,-6.0,-3.0,0.0,4.0,-1.0,-2.0,1651072632679467.0,0
104,-1.0,1.0,-2.0,0.0,-8.0,-6.0,-1.0,-1.0,1651072632681437.0,0
105,-1.0,-2.0,-2.0,1.0,4.0,-4.0,-3.0,0.0,1651072632681437.0,0
106,0.0,-1.0,2.0,1.0,-2.0,12.0,1.0,1.0,1651072632693998.0,0
107,-2.0,-1.0,-1.0,-1.0,3.0,0.0,0.0,0.0,1651072632693998.0,0
108,0.0,5.0,7.0,-1.0,-2.0,-9.0,-1.0,0.0,1651072632702672.0,0
109,-1.0,-14.0,-27.0,-4.0,0.0,9.0,0.0,-1.0,1651072632702672.0,0
110,2.0,1.0,14.0,1.0,-2.0,-1.0,0.0,0.0,1651072632717512.0,0
111,-2.0,-2.0,-5.0,-3.0,-8.0,-5.0,-3.0,-2.0,1651072632717512.0,0
112,2.0,4.0,-4.0,-2.0,2.0,0.0,0.0,2.0,1651072632718443.0,0
113,-6.0,0.0,31.0,-3.0,-5.0,-5.0,-1.0,-3.0,1651072632718443.0,0
114,0.0,2.0,-3.0,0.0,-7.0,-8.0,-1.0,-1.0,1651072632740111.0,0
115,-1.0,-3.0,-11.0,-2.0,2.0,1.0,1.0,0.0,1651072632740111.0,0
116,-1.0,-1.0,8.0,6.0,13.0,8.0,2.0,0.0,1651072632741116.0,0
117,2.0,5.0,-6.0,3.0,-5.0,-5.0,-1.0,-1.0,1651072632741116.0,0
118,-2.0,-2.0,4.0,-2.0,1.0,5.0,-1.0,-3.0,1651072632753090.0,0
119,-1.0,2.0,5.0,-3.0,-7.0,-8.0,-1.0,-1.0,1651072632753090.0,0
120,0.0,-2.0,-9.0,-2.0,-6.0,-2.0,-1.0,-2.0,1651072632762556.0,0
121,1.0,7.0,3.0,3.0,3.0,2.0,3.0,1.0,1651072632762556.0,0
122,-3.0,-13.0,-1.0,-3.0,-3.0,-5.0,-2.0,-2.0,1651072632777417.0,0
123,1.0,0.0,-4.0,2.0,-3.0,-2.0,-1.0,-2.0,1651072632777417.0,0
124,1.0,1.0,1.0,0.0,-1.0,4.0,-2.0,1.0,1651072632778353.0,0
125,-1.0,-1.0,2.0,0.0,1.0,-2.0,-2.0,1.0,1651072632778353.0,0
126,-1.0,1.0,-6.0,-3.0,0.0,-2.0,-1.0,0.0,1651072632800081.0,0
127,-2.0,-5.0,-7.0,-2.0,-1.0,2.0,-1.0,0.0,1651072632800081.0,0
128,1.0,-3.0,4.0,0.0,2.0,-3.0,0.0,-1.0,1651072632801081.0,0
129,1.0,2.0,-3.0,-1.0,1.0,1.0,1.0,-1.0,1651072632801081.0,0
130,1.0,4.0,2.0,0.0,1.0,4.0,2.0,0.0,1651072632813782.0,0
131,-2.0,2.0,6.0,5.0,3.0,0.0,-2.0,0.0,1651072632813782.0,0
132,-1.0,-2.0,-5.0,-6.0,-4.0,-6.0,-3.0,-3.0,1651072632821762.0,0
133,0.0,0.0,-4.0,1.0,4.0,2.0,-1.0,-1.0,1651072632821762.0,0
134,0.0,0.0,1.0,3.0,4.0,4.0,1.0,1.0,1651072632837698.0,0
135,0.0,-1.0,-4.0,-3.0,-6.0,-6.0,0.0,0.0,1651072632837698.0,0
136,-2.0,-2.0,0.0,0.0,1.0,0.0,0.0,1.0,1651072632838668.0,0
137,-1.0,0.0,0.0,-3.0,3.0,3.0,2.0,-1.0,1651072632838668.0,0
138,0.0,0.0,-5.0,-3.0,-3.0,4.0,0.0,-2.0,1651072632860132.0,0
139,-1.0,-1.0,4.0,6.0,-2.0,-3.0,0.0,-1.0,1651072632860132.0,0
140,-1.0,-3.0,4.0,-1.0,-4.0,-3.0,-3.0,-1.0,1651072632861132.0,0
141,-1.0,6.0,3.0,1.0,-5.0,-5.0,0.0,0.0,1651072632861132.0,0
142,-3.0,-10.0,-14.0,0.0,3.0,-2.0,0.0,-2.0,1651072632873285.0,0
143,0.0,2.0,-4.0,-6.0,4.0,1.0,0.0,-1.0,1651072632873285.0,0
144,0.0,2.0,1.0,-3.0,-1.0,-1.0,-1.0,1.0,1651072632882690.0,0
145,0.0,0.0,9.0,-1.0,4.0,2.0,0.0,1.0,1651072632882690.0,0
146,0.0,1.0,-2.0,-4.0,-2.0,-2.0,-3.0,2.0,1651072632897646.0,0
147,1.0,4.0,5.0,0.0,1.0,3.0,-3.0,0.0,1651072632897646.0,0
148,-1.0,-3.0,-1.0,-2.0,-5.0,2.0,1.0,-1.0,1651072632898651.0,0
149,0.0,2.0,0.0,0.0,-7.0,-7.0,-2.0,-3.0,1651072632898651.0,0
150,-3.0,1.0,3.0,5.0,4.0,-3.0,0.0,-1.0,1651072632919765.0,0
151,0.0,-10.0,-7.0,-4.0,-1.0,2.0,-1.0,-1.0,1651072632919765.0,0
152,0.0,1.0,8.0,2.0,3.0,3.0,0.0,-2.0,1651072632921689.0,0
153,-1.0,1.0,-8.0,-2.0,-4.0,-2.0,-1.0,-2.0,1651072632921689.0,0
154,-1.0,0.0,1.0,2.0,2.0,-2.0,-1.0,-2.0,1651072632933683.0,0
155,-2.0,1.0,-1.0,-1.0,0.0,-2.0,0.0,0.0,1651072632933683.0,0
156,0.0,-2.0,-1.0,-3.0,-3.0,-2.0,0.0,-1.0,1651072632942779.0,0
157,-1.0,-3.0,0.0,0.0,-1.0,-2.0,0.0,0.0,1651072632942779.0,0
158,0.0,0.0,1.0,1.0,2.0,0.0,-2.0,-1.0,1651072632956902.0,0
159,-1.0,2.0,1.0,-2.0,-1.0,-1.0,2.0,-1.0,1651072632956902.0,0
160,-1.0,3.0,6.0,-1.0,-7.0,-7.0,-2.0,-3.0,1651072632958829.0,0
161,-2.0,-9.0,-16.0,-2.0,3.0,0.0,2.0,-1.0,1651072632958829.0,0
162,0.0,8.0,14.0,0.0,3.0,14.0,5.0,3.0,1651072632980156.0,0
163,-2.0,-16.0,-26.0,2.0,10.0,3.0,1.0,-1.0,1651072632980156.0,0
164,1.0,1.0,-4.0,2.0,-1.0,3.0,-2.0,-2.0,1651072632981157.0,0
165,0.0,2.0,2.0,2.0,-6.0,-7.0,-5.0,0.0,1651072632981157.0,0
166,1.0,-3.0,-6.0,-9.0,-8.0,-8.0,-4.0,-2.0,1651072632993696.0,0
167,1.0,4.0,6.0,0.0,-1.0,-1.0,1.0,-1.0,1651072632993696.0,0
168,0.0,-1.0,-3.0,2.0,-5.0,-3.0,1.0,0.0,1651072633009446.0,0
169,-1.0,-5.0,-7.0,-2.0,3.0,0.0,0.0,0.0,1651072633009446.0,0
170,-2.0,2.0,2.0,1.0,0.0,-2.0,0.0,-2.0,1651072633017496.0,0
171,0.0,6.0,15.0,-1.0,-11.0,2.0,1.0,-1.0,1651072633017496.0,0
172,-1.0,-3.0,-19.0,1.0,11.0,5.0,-1.0,1.0,1651072633018424.0,0
173,1.0,15.0,54.0,2.0,-5.0,1.0,-2.0,0.0,1651072633018424.0,0
174,-3.0,-17.0,-52.0,-7.0,2.0,-2.0,-3.0,-2.0,1651072633039548.0,0
175,1.0,2.0,2.0,4.0,4.0,-7.0,-1.0,1.0,1651072633039548.0,0
176,-2.0,0.0,-1.0,-1.0,2.0,8.0,-1.0,-2.0,1651072633041542.0,0
177,3.0,-2.0,-10.0,1.0,1.0,4.0,1.0,0.0,1651072633041542.0,0
178,2.0,5.0,11.0,-1.0,-6.0,-4.0,-2.0,-1.0,1651072633053550.0,0
179,0.0,2.0,9.0,1.0,0.0,-2.0,-2.0,-3.0,1651072633053550.0,0
180,0.0,-5.0,-14.0,-5.0,-6.0,-5.0,0.0,-1.0,1651072633062459.0,0
181,-1.0,-2.0,-3.0,-1.0,-2.0,-2.0,1.0,-1.0,1651072633062459.0,0
182,-2.0,-3.0,4.0,2.0,18.0,8.0,3.0,0.0,1651072633077603.0,0
183,-1.0,1.0,-5.0,0.0,-2.0,2.0,1.0,0.0,1651072633077603.0,0
184,0.0,4.0,17.0,-1.0,-2.0,-3.0,1.0,-1.0,1651072633078537.0,0
185,0.0,-5.0,-12.0,-3.0,-7.0,-4.0,-2.0,-1.0,1651072633078537.0,0
186,0.0,-4.0,-2.0,-1.0,-8.0,-11.0,-2.0,-1.0,1651072633099508.0,0
187,-1.0,0.0,3.0,-5.0,0.0,6.0,-1.0,0.0,1651072633099508.0,0
188,-1.0,-4.0,0.0,4.0,-8.0,-9.0,-2.0,-1.0,1651072633101476.0,0
189,-1.0,-2.0,-20.0,-1.0,20.0,21.0,4.0,1.0,1651072633101476.0,0
190,0.0,3.0,5.0,0.0,1.0,3.0,-1.0,2.0,1651072633122424.0,0
191,0.0,1.0,-4.0,0.0,15.0,3.0,1.0,-1.0,1651072633122424.0,0
192,-4.0,-7.0,1.0,0.0,-11.0,-7.0,-2.0,-1.0,1651072633123427.0,0
193,-1.0,-1.0,-2.0,-3.0,-8.0,-8.0,-2.0,0.0,1651072633123427.0,0
194,0.0,2.0,4.0,2.0,-1.0,-1.0,0.0,-2.0,1651072633136887.0,0
195,0.0,-2.0,-2.0,-4.0,-11.0,-4.0,-3.0,-1.0,1651072633136887.0,0
196,-1.0,1.0,0.0,-2.0,3.0,-9.0,0.0,-1.0,1651072633138813.0,0
197,-2.0,-2.0,2.0,3.0,2.0,13.0,1.0,0.0,1651072633138813.0,0
198,1.0,1.0,2.0,0.0,-4.0,-1.0,1.0,1.0,1651072633160072.0,0
199,-1.0,2.0,3.0,1.0,-4.0,0.0,-2.0,-1.0,1651072633160072.0,0
200,2.0,5.0,2.0,2.0,-2.0,-1.0,0.0,3.0,1651072633161086.0,0
201,-1.0,-18.0,-10.0,-5.0,4.0,-5.0,-3.0,-1.0,1651072633161086.0,0
202,-1.0,2.0,21.0,8.0,2.0,1.0,1.0,-2.0,1651072633181699.0,0
203,1.0,-2.0,-26.0,-3.0,-13.0,-4.0,0.0,0.0,1651072633181699.0,0
204,2.0,5.0,3.0,-8.0,4.0,0.0,-1.0,0.0,1651072633183703.0,0
205,-2.0,0.0,10.0,0.0,1.0,-15.0,-3.0,-2.0,1651072633183703.0,0
206,1.0,5.0,10.0,12.0,16.0,23.0,4.0,2.0,1651072633197672.0,1
207,-1.0,0.0,14.0,4.0,14.0,10.0,1.0,2.0,1651072633197672.0,1
208,-1.0,0.0,2.0,-2.0,-19.0,-6.0,-2.0,-3.0,1651072633198658.0,1
209,0.0,1.0,-5.0,-7.0,-15.0,-10.0,-3.0,-4.0,1651072633198658.0,1
210,0.0,-3.0,-1.0,-5.0,0.0,-4.0,-3.0,-2.0,1651072633220096.0,1
211,0.0,1.0,4.0,0.0,-5.0,-5.0,-1.0,-2.0,1651072633220096.0,1
212,-1.0,-4.0,-11.0,-4.0,3.0,7.0,2.0,0.0,1651072633220947.0,1
213,0.0,3.0,5.0,1.0,-3.0,-5.0,0.0,-1.0,1651072633220947.0,1
214,-1.0,-2.0,-8.0,-5.0,-11.0,-7.0,0.0,1.0,1651072633243356.0,1
215,0.0,-1.0,-4.0,-2.0,3.0,1.0,1.0,-1.0,1651072633243356.0,1
216,1.0,0.0,7.0,4.0,3.0,-3.0,1.0,-2.0,1651072633249422.0,1
217,0.0,-5.0,-13.0,3.0,4.0,8.0,1.0,2.0,1651072633249422.0,1
218,2.0,3.0,-7.0,-5.0,4.0,2.0,4.0,0.0,1651072633257471.0,1
219,-2.0,-10.0,-10.0,-3.0,-7.0,-5.0,-2.0,-3.0,1651072633257471.0,1
220,-1.0,0.0,-4.0,-4.0,3.0,1.0,0.0,-2.0,1651072633258413.0,1
221,-3.0,-2.0,-2.0,3.0,-5.0,-10.0,-1.0,-2.0,1651072633258413.0,1
222,-3.0,3.0,-9.0,2.0,-4.0,6.0,-1.0,0.0,1651072633278782.0,1
223,-3.0,-2.0,32.0,-3.0,-1.0,-7.0,1.0,-1.0,1651072633278782.0,1
224,-3.0,-7.0,-38.0,-7.0,-6.0,6.0,0.0,-2.0,1651072633286773.0,1
225,0.0,5.0,7.0,3.0,2.0,3.0,1.0,0.0,1651072633286773.0,1
226,0.0,1.0,6.0,2.0,1.0,-8.0,-3.0,-1.0,1651072633302407.0,1
227,3.0,6.0,-5.0,3.0,18.0,13.0,3.0,1.0,1651072633302407.0,1
228,3.0,-2.0,8.0,-2.0,-3.0,2.0,0.0,-1.0,1651072633303377.0,1
229,-1.0,1.0,5.0,7.0,-7.0,-5.0,-2.0,0.0,1651072633303377.0,1
230,0.0,4.0,4.0,-16.0,-29.0,-21.0,-6.0,-2.0,1651072633324543.0,1
231,-2.0,-4.0,-9.0,-2.0,-16.0,0.0,0.0,0.0,1651072633324543.0,1
232,-1.0,8.0,19.0,17.0,25.0,9.0,2.0,1.0,1651072633326477.0,1
233,-1.0,-16.0,-18.0,10.0,25.0,18.0,3.0,1.0,1651072633326477.0,1
234,-2.0,-6.0,-2.0,-19.0,16.0,5.0,1.0,-1.0,1651072633338505.0,1
235,3.0,5.0,0.0,-5.0,-3.0,-2.0,0.0,2.0,1651072633338505.0,1
236,-1.0,1.0,20.0,19.0,-14.0,-5.0,-3.0,-1.0,1651072633347363.0,1
237,1.0,8.0,0.0,-17.0,-12.0,-8.0,-2.0,-1.0,1651072633347363.0,1
238,-2.0,-3.0,1.0,15.0,0.0,-2.0,0.0,-1.0,1651072633363078.0,1
239,-1.0,0.0,3.0,6.0,3.0,-1.0,0.0,0.0,1651072633363078.0,1
240,-1.0,-4.0,-8.0,-7.0,-2.0,-2.0,1.0,-1.0,1651072633368070.0,1
241,1.0,5.0,10.0,13.0,3.0,1.0,-1.0,0.0,1651072633368070.0,1
242,0.0,-6.0,-5.0,1.0,1.0,1.0,-2.0,-2.0,1651072633384201.0,1
243,0.0,-2.0,-15.0,-18.0,-12.0,-7.0,-1.0,0.0,1651072633384201.0,1
244,-2.0,2.0,5.0,14.0,0.0,-3.0,-1.0,0.0,1651072633386168.0,1
245,-1.0,-6.0,-21.0,-35.0,-6.0,-1.0,0.0,0.0,1651072633386168.0,1
246,1.0,3.0,3.0,5.0,4.0,10.0,3.0,0.0,1651072633398203.0,1
247,-1.0,3.0,13.0,36.0,4.0,-5.0,-4.0,-4.0,1651072633398203.0,1
248,-2.0,-7.0,-11.0,-12.0,9.0,4.0,-1.0,-2.0,1651072633407123.0,1
249,0.0,-1.0,-9.0,-32.0,-11.0,-3.0,0.0,-1.0,1651072633407123.0,1
250,-3.0,1.0,1.0,0.0,-15.0,-11.0,-3.0,-1.0,1651072633422371.0,1
251,2.0,-5.0,-2.0,8.0,1.0,-1.0,-2.0,-2.0,1651072633422371.0,1
252,3.0,1.0,-1.0,-3.0,14.0,14.0,3.0,2.0,1651072633424305.0,1
253,2.0,4.0,16.0,18.0,2.0,0.0,0.0,0.0,1651072633424305.0,1
254,0.0,-2.0,-7.0,-11.0,-3.0,-1.0,0.0,0.0,1651072633444538.0,1
255,-3.0,1.0,-1.0,-7.0,0.0,-5.0,-4.0,-3.0,1651072633444538.0,1
256,0.0,-2.0,-7.0,-9.0,-13.0,-7.0,-1.0,0.0,1651072633446493.0,1
257,-1.0,0.0,5.0,4.0,-1.0,0.0,0.0,0.0,1651072633446493.0,1
258,1.0,0.0,-1.0,4.0,8.0,9.0,2.0,0.0,1651072633458616.0,1
259,-2.0,0.0,-3.0,-3.0,-7.0,-1.0,-1.0,0.0,1651072633458616.0,1
260,0.0,3.0,3.0,-10.0,6.0,3.0,-2.0,-2.0,1651072633467319.0,1
261,-1.0,3.0,2.0,13.0,-7.0,-16.0,-4.0,-2.0,1651072633467319.0,1
262,-2.0,-7.0,0.0,6.0,3.0,1.0,-3.0,-2.0,1651072633481680.0,1
263,1.0,-1.0,-3.0,-7.0,20.0,13.0,4.0,3.0,1651072633481680.0,1
264,0.0,-10.0,-3.0,3.0,-4.0,6.0,1.0,0.0,1651072633483680.0,1
265,-1.0,2.0,-7.0,-11.0,-12.0,-5.0,-1.0,-2.0,1651072633483680.0,1
266,-3.0,0.0,-1.0,-2.0,2.0,-5.0,-2.0,0.0,1651072633505176.0,1
267,0.0,1.0,4.0,-5.0,-13.0,-16.0,-6.0,-2.0,1651072633505176.0,1
268,-1.0,3.0,7.0,1.0,0.0,-5.0,-3.0,0.0,1651072633506172.0,1
269,0.0,-2.0,-5.0,2.0,-11.0,0.0,-2.0,-1.0,1651072633506172.0,1
270,3.0,3.0,4.0,5.0,9.0,11.0,6.0,2.0,1651072633518208.0,1
271,0.0,2.0,-18.0,-4.0,15.0,12.0,4.0,1.0,1651072633518208.0,1
272,0.0,0.0,8.0,4.0,-6.0,-10.0,0.0,1.0,1651072633533204.0,1
273,-3.0,2.0,0.0,7.0,17.0,13.0,2.0,0.0,1651072633533204.0,1
274,3.0,5.0,8.0,-9.0,-22.0,-18.0,-4.0,-1.0,1651072633541681.0,1
275,0.0,-6.0,0.0,5.0,-5.0,3.0,-1.0,-1.0,1651072633541681.0,1
276,-5.0,-9.0,-17.0,-25.0,-8.0,-2.0,0.0,2.0,1651072633548664.0,1
277,-4.0,11.0,-1.0,6.0,7.0,1.0,-2.0,-4.0,1651072633548664.0,1
278,-2.0,-11.0,4.0,6.0,1.0,-6.0,-1.0,-1.0,1651072633564803.0,1
279,4.0,-7.0,-7.0,-8.0,3.0,12.0,2.0,2.0,1651072633564803.0,1
280,9.0,5.0,-4.0,-18.0,6.0,5.0,3.0,3.0,1651072633566731.0,1
281,-3.0,-5.0,14.0,54.0,9.0,-1.0,-3.0,-2.0,1651072633566731.0,1
282,-5.0,-4.0,-8.0,-4.0,-6.0,-7.0,-2.0,-3.0,1651072633578750.0,1
283,-3.0,9.0,10.0,2.0,-11.0,-14.0,-2.0,-2.0,1651072633578750.0,1
284,-3.0,13.0,-5.0,-7.0,7.0,9.0,-1.0,-1.0,1651072633587678.0,1
285,-3.0,-33.0,-16.0,-17.0,2.0,3.0,1.0,0.0,1651072633587678.0,1
286,-5.0,12.0,0.0,-3.0,-2.0,0.0,-2.0,-4.0,1651072633601808.0,1
287,1.0,-1.0,0.0,-3.0,-10.0,-9.0,-2.0,1.0,1651072633601808.0,1
288,4.0,-20.0,0.0,6.0,0.0,-2.0,-1.0,2.0,1651072633608747.0,1
289,5.0,20.0,1.0,-7.0,2.0,-1.0,3.0,2.0,1651072633608747.0,1
290,1.0,-25.0,-6.0,5.0,-5.0,-1.0,-2.0,0.0,1651072633624746.0,1
291,-5.0,1.0,-2.0,-15.0,7.0,6.0,0.0,-4.0,1651072633624746.0,1
292,-1.0,35.0,25.0,31.0,1.0,-9.0,-4.0,-3.0,1651072633626674.0,1
293,3.0,-41.0,-1.0,-9.0,-2.0,-1.0,1.0,3.0,1651072633626674.0,1
294,-6.0,16.0,-15.0,3.0,4.0,6.0,3.0,-2.0,1651072633647668.0,1
295,0.0,-25.0,21.0,-12.0,-1.0,4.0,1.0,-3.0,1651072633647668.0,1
296,1.0,25.0,-18.0,3.0,0.0,-3.0,-6.0,-3.0,1651072633648652.0,1
297,-11.0,0.0,-4.0,0.0,-4.0,-7.0,1.0,-3.0,1651072633648652.0,1
298,2.0,-21.0,-13.0,-24.0,-10.0,-6.0,-3.0,-4.0,1651072633661859.0,1
299,13.0,38.0,3.0,8.0,-1.0,-2.0,3.0,5.0,1651072633661859.0,1
300,-1.0,-69.0,2.0,19.0,-5.0,3.0,0.0,1.0,1651072633668850.0,1
301,0.0,-21.0,1.0,6.0,6.0,0.0,-3.0,-3.0,1651072633668850.0,1
302,-1.0,44.0,-8.0,16.0,2.0,-1.0,-3.0,0.0,1651072633684918.0,1
303,-6.0,19.0,-16.0,-22.0,1.0,0.0,1.0,-5.0,1651072633684918.0,1
304,-13.0,-47.0,10.0,-9.0,-11.0,-12.0,-1.0,-4.0,1651072633685927.0,1
305,12.0,40.0,28.0,19.0,5.0,11.0,3.0,6.0,1651072633685927.0,1
306,-4.0,-49.0,13.0,4.0,0.0,3.0,4.0,4.0,1651072633707331.0,1
307,-31.0,-65.0,-41.0,-19.0,-11.0,-8.0,-4.0,-11.0,1651072633707331.0,1
308,5.0,54.0,-13.0,-9.0,-3.0,0.0,0.0,-3.0,1651072633708262.0,1
309,-6.0,9.0,13.0,3.0,10.0,6.0,2.0,1.0,1651072633708262.0,1
310,3.0,31.0,11.0,-5.0,-3.0,-8.0,-8.0,-7.0,1651072633721296.0,1
311,45.0,43.0,18.0,14.0,0.0,2.0,6.0,15.0,1651072633721296.0,1
312,-5.0,19.0,-28.0,1.0,9.0,1.0,-3.0,-3.0,1651072633728275.0,1
313,-5.0,15.0,-13.0,1.0,2.0,-4.0,-8.0,-8.0,1651072633728275.0,1
314,-37.0,-42.0,23.0,22.0,-4.0,2.0,-4.0,-11.0,1651072633745069.0,1
315,3.0,35.0,9.0,13.0,9.0,1.0,0.0,3.0,1651072633745069.0,1
316,-23.0,-40.0,15.0,-6.0,-17.0,-11.0,-6.0,-7.0,1651072633746306.0,1
317,19.0,53.0,-6.0,-18.0,2.0,10.0,5.0,0.0,1651072633746306.0,1
318,0.0,72.0,-4.0,-28.0,-11.0,-1.0,5.0,5.0,1651072633767368.0,1
319,1.0,-118.0,6.0,2.0,7.0,14.0,3.0,1.0,1651072633767368.0,1
320,45.0,72.0,-16.0,-6.0,30.0,4.0,7.0,16.0,1651072633768359.0,1
321,-43.0,-36.0,1.0,2.0,-28.0,-12.0,-5.0,-13.0,1651072633768359.0,1
322,5.0,19.0,6.0,13.0,19.0,-9.0,-8.0,-5.0,1651072633781480.0,1
323,-24.0,-2.0,-32.0,0.0,-5.0,16.0,3.0,-2.0,1651072633781480.0,1
324,17.0,-11.0,-49.0,-8.0,-9.0,-7.0,-4.0,-1.0,1651072633788531.0,1
325,1.0,12.0,25.0,-16.0,0.0,-1.0,-4.0,-1.0,1651072633788531.0,1
326,-1.0,19.0,24.0,2.0,0.0,3.0,-1.0,-2.0,1651072633805070.0,1
327,-3.0,-48.0,-18.0,6.0,-22.0,-22.0,-7.0,-3.0,1651072633805070.0,1
328,-20.0,-9.0,21.0,4.0,24.0,13.0,7.0,-3.0,1651072633806307.0,1
329,29.0,67.0,-23.0,6.0,-3.0,8.0,10.0,15.0,1651072633806307.0,1
330,-24.0,-29.0,30.0,1.0,5.0,-7.0,-4.0,-8.0,1651072633827465.0,1
331,28.0,41.0,-49.0,-20.0,-16.0,1.0,3.0,13.0,1651072633827465.0,1
332,-6.0,-7.0,16.0,-15.0,-43.0,-23.0,-11.0,-15.0,1651072633828407.0,1
333,2.0,5.0,11.0,9.0,3.0,-3.0,1.0,-1.0,1651072633828407.0,1
334,-6.0,-69.0,-12.0,5.0,37.0,17.0,0.0,-10.0,1651072633842369.0,1
335,11.0,57.0,19.0,6.0,5.0,2.0,3.0,22.0,1651072633842369.0,1
336,-10.0,40.0,74.0,13.0,-16.0,4.0,-3.0,-12.0,1651072633848408.0,1
337,-40.0,-82.0,-81.0,-30.0,-15.0,-24.0,-12.0,-12.0,1651072633848408.0,1
338,53.0,22.0,-14.0,-10.0,-17.0,-2.0,6.0,15.0,1651072633865069.0,1
339,-29.0,-43.0,7.0,13.0,23.0,8.0,-3.0,-12.0,1651072633865069.0,1
340,-1.0,-44.0,44.0,13.0,2.0,-2.0,5.0,5.0,1651072633866327.0,1
341,-24.0,-54.0,-3.0,-9.0,-7.0,3.0,-6.0,-7.0,1651072633866327.0,1
342,33.0,44.0,-48.0,-2.0,-2.0,17.0,16.0,23.0,1651072633887399.0,1
343,15.0,68.0,-3.0,-8.0,-12.0,-17.0,-9.0,-11.0,1651072633887399.0,1
344,-20.0,-12.0,8.0,8.0,32.0,14.0,1.0,-1.0,1651072633888330.0,1
345,13.0,-3.0,6.0,1.0,-13.0,-8.0,-3.0,-2.0,1651072633888330.0,1
346,17.0,1.0,-18.0,-9.0,-4.0,-10.0,0.0,-1.0,1651072633900369.0,1
347,-44.0,5.0,15.0,3.0,-23.0,-2.0,-10.0,-21.0,1651072633900369.0,1
348,29.0,7.0,-30.0,0.0,38.0,11.0,7.0,24.0,1651072633910326.0,1
349,50.0,19.0,61.0,10.0,11.0,11.0,9.0,15.0,1651072633910326.0,1
350,-55.0,-59.0,-26.0,-13.0,-18.0,-7.0,-13.0,-19.0,1651072633924389.0,1
351,2.0,-5.0,14.0,-1.0,-2.0,-15.0,-3.0,-12.0,1651072633924389.0,1
352,11.0,33.0,3.0,-3.0,5.0,7.0,4.0,0.0,1651072633926411.0,1
353,-36.0,-33.0,11.0,-3.0,-31.0,-9.0,-6.0,-8.0,1651072633926411.0,1
354,43.0,-7.0,-26.0,8.0,60.0,28.0,14.0,24.0,1651072633947422.0,1
355,16.0,37.0,30.0,4.0,-22.0,-16.0,-3.0,2.0,1651072633947422.0,1
356,-25.0,-34.0,28.0,7.0,29.0,23.0,2.0,-11.0,1651072633948353.0,1
357,-2.0,-54.0,-23.0,-2.0,-15.0,0.0,2.0,7.0,1651072633948353.0,1
358,19.0,8.0,11.0,-12.0,-37.0,-12.0,-1.0,-3.0,1651072633961346.0,1
359,-16.0,-70.0,-27.0,-6.0,24.0,-9.0,-9.0,2.0,1651072633961346.0,1
360,8.0,-65.0,8.0,11.0,2.0,4.0,2.0,2.0,1651072633970389.0,1
361,-10.0,69.0,-1.0,-5.0,-23.0,-8.0,-3.0,-7.0,1651072633970389.0,1
362,-19.0,-1.0,9.0,8.0,35.0,2.0,-4.0,-6.0,1651072633984501.0,1
363,-5.0,-9.0,23.0,-5.0,-39.0,-13.0,-5.0,-5.0,1651072633984501.0,1
364,-36.0,-67.0,-26.0,10.0,35.0,15.0,-2.0,-15.0,1651072633986497.0,1
365,81.0,94.0,26.0,-3.0,14.0,-2.0,6.0,28.0,1651072633986497.0,1
366,-12.0,92.0,19.0,7.0,-9.0,-8.0,-1.0,-9.0,1651072634007510.0,1
367,-5.0,-23.0,15.0,5.0,-10.0,20.0,3.0,-3.0,1651072634007510.0,1
368,24.0,32.0,-18.0,-12.0,-14.0,-3.0,5.0,14.0,1651072634008439.0,1
369,-21.0,-43.0,-55.0,-6.0,14.0,-2.0,-8.0,-2.0,1651072634008439.0,1
370,-9.0,55.0,-3.0,-11.0,-20.0,-13.0,-4.0,4.0,1651072634020600.0,1
371,24.0,-30.0,-5.0,-4.0,3.0,-5.0,2.0,7.0,1651072634020600.0,1
372,-16.0,18.0,3.0,8.0,0.0,-3.0,-2.0,-11.0,1651072634029526.0,1
373,24.0,-50.0,14.0,-3.0,10.0,10.0,6.0,1.0,1651072634029526.0,1
374,-12.0,-59.0,0.0,3.0,13.0,2.0,-2.0,3.0,1651072634044626.0,1
375,-13.0,5.0,31.0,14.0,15.0,6.0,6.0,-1.0,1651072634044626.0,1
376,14.0,22.0,-51.0,-23.0,-61.0,-21.0,-9.0,-2.0,1651072634046623.0,1
377,-13.0,-90.0,31.0,21.0,50.0,22.0,16.0,12.0,1651072634046623.0,1
378,5.0,23.0,-44.0,-17.0,-4.0,-5.0,-15.0,-19.0,1651072634067578.0,1
379,3.0,11.0,9.0,4.0,12.0,6.0,3.0,3.0,1651072634067578.0,1
380,2.0,1.0,-32.0,-20.0,-30.0,-19.0,-9.0,-2.0,1651072634068576.0,1
381,-14.0,5.0,20.0,5.0,-17.0,-2.0,1.0,-4.0,1651072634068576.0,1
382,1.0,-9.0,0.0,3.0,-5.0,5.0,7.0,1.0,1651072634081541.0,1
383,1.0,44.0,-37.0,-9.0,23.0,-2.0,-6.0,-1.0,1651072634081541.0,1
384,-6.0,-26.0,0.0,-3.0,-8.0,-10.0,-4.0,-2.0,1651072634088522.0,1
385,5.0,68.0,3.0,5.0,6.0,6.0,4.0,-4.0,1651072634088522.0,1
386,-3.0,-95.0,3.0,1.0,-14.0,-4.0,0.0,0.0,1651072634104507.0,1
387,3.0,16.0,4.0,-7.0,-16.0,-3.0,-1.0,2.0,1651072634104507.0,1
388,-16.0,60.0,6.0,8.0,22.0,9.0,2.0,0.0,1651072634106495.0,1
389,-13.0,-2.0,0.0,-11.0,-16.0,-9.0,-10.0,-22.0,1651072634106495.0,1
390,5.0,-105.0,17.0,12.0,1.0,-1.0,5.0,31.0,1651072634127446.0,1
391,-10.0,74.0,-38.0,-1.0,19.0,8.0,-1.0,-14.0,1651072634127446.0,1
392,5.0,-56.0,-1.0,-6.0,-17.0,-4.0,0.0,4.0,1651072634128425.0,1
393,-6.0,45.0,10.0,3.0,10.0,-1.0,3.0,-5.0,1651072634128425.0,1
394,-16.0,-12.0,-13.0,-12.0,-22.0,-6.0,-8.0,-14.0,1651072634140384.0,1
395,9.0,-40.0,6.0,12.0,25.0,4.0,5.0,11.0,1651072634140384.0,1
396,12.0,-51.0,30.0,5.0,13.0,14.0,5.0,2.0,1651072634150393.0,1
397,-3.0,41.0,-9.0,-4.0,-5.0,-7.0,-5.0,-2.0,1651072634150393.0,1
398,18.0,7.0,-15.0,1.0,-8.0,3.0,3.0,1.0,1651072634165095.0,1
399,-9.0,-29.0,15.0,-7.0,-19.0,-11.0,-3.0,-2.0,1651072634165095.0,1
400,3.0,49.0,0.0,10.0,23.0,4.0,1.0,-4.0,1651072634166376.0,1
401,-3.0,-29.0,-2.0,0.0,6.0,4.0,0.0,2.0,1651072634166376.0,1
402,7.0,26.0,37.0,5.0,0.0,5.0,4.0,8.0,1651072634187512.0,1
403,-4.0,-24.0,-28.0,-7.0,-9.0,-2.0,-5.0,-9.0,1651072634187512.0,1
404,3.0,66.0,-62.0,-9.0,-12.0,-7.0,-1.0,0.0,1651072634188444.0,1
405,-18.0,-72.0,-19.0,-7.0,5.0,-1.0,-7.0,-8.0,1651072634188444.0,1
406,-3.0,10.0,10.0,-1.0,-13.0,-9.0,-1.0,-3.0,1651072634201219.0,1
407,-4.0,2.0,1.0,1.0,9.0,9.0,2.0,-5.0,1651072634201219.0,1
408,0.0,-15.0,18.0,-3.0,-9.0,-10.0,-2.0,7.0,1651072634209458.0,1
409,-1.0,21.0,-19.0,4.0,15.0,7.0,-2.0,-1.0,1651072634209458.0,1
410,9.0,3.0,0.0,-8.0,-23.0,-16.0,-1.0,-3.0,1651072634224719.0,1
411,-13.0,-41.0,17.0,9.0,18.0,22.0,5.0,6.0,1651072634224719.0,1
412,5.0,7.0,-9.0,-8.0,-14.0,-4.0,0.0,1.0,1651072634225717.0,1
413,5.0,49.0,4.0,-4.0,1.0,-6.0,-3.0,-2.0,1651072634225717.0,1
414,-16.0,-22.0,26.0,2.0,-3.0,-2.0,3.0,0.0,1651072634247670.0,1
415,5.0,-22.0,-3.0,-6.0,-14.0,-13.0,-7.0,-6.0,1651072634247670.0,1
416,3.0,9.0,27.0,8.0,-4.0,4.0,3.0,3.0,1651072634248656.0,1
417,0.0,-10.0,3.0,4.0,15.0,7.0,0.0,3.0,1651072634248656.0,1
418,-24.0,-7.0,-15.0,0.0,8.0,5.0,-3.0,-7.0,1651072634260690.0,1
419,22.0,23.0,-20.0,-10.0,-16.0,-8.0,2.0,7.0,1651072634260690.0,1
420,-12.0,-30.0,25.0,16.0,25.0,11.0,2.0,-8.0,1651072634269599.0,1
421,23.0,48.0,-14.0,-13.0,-25.0,-10.0,1.0,9.0,1651072634269599.0,1
422,-19.0,-4.0,33.0,16.0,26.0,4.0,0.0,-7.0,1651072634284369.0,1
423,15.0,-3.0,-20.0,-4.0,-9.0,3.0,2.0,10.0,1651072634284369.0,1
424,-12.0,-42.0,2.0,-7.0,-12.0,-7.0,-3.0,-1.0,1651072634284759.0,1
425,1.0,1.0,0.0,0.0,-3.0,-2.0,1.0,-3.0,1651072634284759.0,1
426,1.0,25.0,3.0,2.0,-3.0,3.0,-1.0,0.0,1651072634306871.0,1
427,0.0,1.0,10.0,-3.0,-5.0,-7.0,2.0,4.0,1651072634306871.0,1
428,1.0,8.0,-50.0,-4.0,-1.0,-1.0,-4.0,-12.0,1651072634306871.0,1
429,-9.0,-21.0,6.0,1.0,-3.0,-1.0,-2.0,0.0,1651072634306871.0,1
430,16.0,12.0,-14.0,-16.0,-29.0,-6.0,-2.0,0.0,1651072634329012.0,1
431,-12.0,-29.0,17.0,12.0,38.0,3.0,-1.0,-6.0,1651072634329012.0,1
432,-11.0,21.0,-16.0,-4.0,-1.0,-5.0,-1.0,1.0,1651072634329950.0,1
433,15.0,-24.0,10.0,0.0,-9.0,0.0,3.0,2.0,1651072634329950.0,1
434,-3.0,9.0,2.0,-4.0,-7.0,-5.0,-8.0,-7.0,1651072634343934.0,1
435,-2.0,9.0,11.0,4.0,-3.0,2.0,4.0,2.0,1651072634343934.0,1
436,7.0,-8.0,-10.0,-4.0,-2.0,-1.0,0.0,-7.0,1651072634344909.0,1
437,-13.0,9.0,6.0,3.0,16.0,4.0,-2.0,5.0,1651072634344909.0,1
438,-12.0,-50.0,-3.0,-2.0,-1.0,-3.0,-2.0,-1.0,1651072634366752.0,1
439,27.0,45.0,10.0,1.0,-4.0,-1.0,1.0,6.0,1651072634366752.0,1
440,-5.0,-6.0,15.0,-2.0,-9.0,-3.0,-1.0,-4.0,1651072634366752.0,1
441,3.0,5.0,-1.0,1.0,-7.0,-1.0,1.0,-4.0,1651072634366752.0,1
442,6.0,-21.0,-4.0,1.0,15.0,8.0,3.0,3.0,1651072634389224.0,1
443,-24.0,-10.0,2.0,4.0,15.0,1.0,-5.0,-6.0,1651072634389224.0,1
444,17.0,33.0,25.0,-1.0,-15.0,-2.0,2.0,3.0,1651072634396206.0,1
445,5.0,21.0,-25.0,-4.0,6.0,-2.0,0.0,3.0,1651072634396206.0,1
446,8.0,25.0,16.0,1.0,-9.0,-6.0,-1.0,7.0,1651072634404184.0,1
447,-5.0,19.0,1.0,-2.0,13.0,8.0,2.0,-2.0,1651072634404184.0,1
448,-10.0,-53.0,-2.0,-1.0,2.0,-2.0,1.0,5.0,1651072634405115.0,1
449,-20.0,-32.0,25.0,-1.0,-13.0,-1.0,-4.0,-13.0,1651072634405115.0,1
450,47.0,90.0,-14.0,5.0,17.0,8.0,9.0,13.0,1651072634426280.0,1
451,-10.0,-10.0,1.0,-5.0,-21.0,-12.0,-5.0,-7.0,1651072634426280.0,1
452,5.0,45.0,10.0,1.0,8.0,-3.0,-2.0,3.0,1651072634427210.0,1
453,-11.0,-47.0,-3.0,-9.0,-18.0,-5.0,-1.0,-2.0,1651072634427210.0,1
454,-12.0,16.0,-3.0,10.0,25.0,11.0,0.0,-10.0,1651072634449262.0,1
455,-1.0,-23.0,0.0,-1.0,-5.0,-1.0,0.0,0.0,1651072634449262.0,1
456,4.0,12.0,5.0,-1.0,-21.0,-7.0,-2.0,0.0,1651072634449262.0,1
457,4.0,-25.0,-35.0,0.0,18.0,10.0,3.0,5.0,1651072634449262.0,1
458,-8.0,-3.0,7.0,-4.0,-8.0,-4.0,-3.0,-5.0,1651072634464319.0,1
459,-1.0,28.0,15.0,-2.0,-12.0,-7.0,-1.0,-4.0,1651072634464319.0,1
460,-6.0,-39.0,-13.0,3.0,6.0,5.0,1.0,-3.0,1651072634464319.0,1
461,12.0,21.0,9.0,0.0,-2.0,-4.0,0.0,4.0,1651072634464319.0,1
462,-8.0,-22.0,-6.0,-1.0,-5.0,-6.0,-2.0,-6.0,1651072634486422.0,1
463,0.0,19.0,-7.0,3.0,9.0,2.0,-4.0,3.0,1651072634486422.0,1
464,-8.0,-12.0,8.0,-4.0,0.0,1.0,-1.0,2.0,1651072634487407.0,1
465,-14.0,-14.0,-3.0,3.0,-6.0,-4.0,-6.0,-10.0,1651072634487407.0,1
466,6.0,19.0,-7.0,0.0,21.0,6.0,6.0,7.0,1651072634509246.0,1
467,-10.0,-25.0,-8.0,0.0,-10.0,-8.0,-6.0,-16.0,1651072634509246.0,1
468,14.0,11.0,0.0,-2.0,1.0,2.0,6.0,9.0,1651072634510252.0,1
469,-9.0,0.0,-9.0,-1.0,-1.0,0.0,-5.0,-6.0,1651072634510252.0,1
470,1.0,9.0,10.0,1.0,-10.0,-3.0,-2.0,2.0,1651072634524274.0,1
471,8.0,-9.0,-5.0,3.0,5.0,10.0,5.0,6.0,1651072634524274.0,1
472,2.0,13.0,5.0,3.0,9.0,-3.0,-3.0,-1.0,1651072634525205.0,1
473,2.0,-17.0,-4.0,-2.0,1.0,0.0,2.0,-1.0,1651072634525205.0,1
474,-5.0,-32.0,-22.0,-2.0,-6.0,-3.0,0.0,1.0,1651072634546402.0,1
475,3.0,4.0,20.0,8.0,21.0,9.0,3.0,4.0,1651072634546402.0,1
476,-8.0,-7.0,-32.0,-8.0,-3.0,1.0,-3.0,-8.0,1651072634547333.0,1
477,2.0,5.0,7.0,3.0,-1.0,-3.0,-2.0,1.0,1651072634547333.0,1
478,-10.0,-9.0,10.0,-9.0,-15.0,0.0,-4.0,-5.0,1651072634568742.0,1
479,6.0,-1.0,-12.0,1.0,-3.0,-5.0,3.0,0.0,1651072634568742.0,1
480,-6.0,-11.0,15.0,8.0,5.0,-2.0,-1.0,5.0,1651072634569678.0,1
481,8.0,10.0,-12.0,-9.0,9.0,1.0,0.0,-2.0,1651072634569678.0,1
482,6.0,25.0,8.0,-4.0,-4.0,0.0,0.0,2.0,1651072634583751.0,1
483,-14.0,-8.0,-8.0,-3.0,-11.0,-4.0,-2.0,-6.0,1651072634583751.0,1
484,1.0,-23.0,8.0,-1.0,-11.0,-9.0,-1.0,-4.0,1651072634584681.0,1
485,-6.0,-1.0,-3.0,-1.0,-3.0,8.0,1.0,0.0,1651072634584681.0,1
486,12.0,20.0,3.0,9.0,31.0,13.0,6.0,8.0,1651072634606691.0,1
487,8.0,13.0,7.0,-3.0,-8.0,4.0,2.0,4.0,1651072634606691.0,1
488,-9.0,-19.0,8.0,0.0,-2.0,-3.0,-3.0,-4.0,1651072634607650.0,1
489,-6.0,34.0,0.0,-8.0,-11.0,-10.0,-6.0,-9.0,1651072634607650.0,1
490,-6.0,-40.0,-12.0,-8.0,-23.0,-11.0,-4.0,-4.0,1651072634629403.0,1
491,7.0,6.0,4.0,3.0,4.0,3.0,0.0,4.0,1651072634629403.0,1
492,-3.0,7.0,-16.0,1.0,10.0,4.0,1.0,-4.0,1651072634629403.0,1
493,1.0,-28.0,27.0,8.0,-16.0,-4.0,-1.0,1.0,1651072634629403.0,1
494,-11.0,-5.0,-28.0,-7.0,16.0,3.0,1.0,-2.0,1651072634644398.0,1
495,-13.0,16.0,-40.0,-18.0,-41.0,-20.0,-11.0,-15.0,1651072634644398.0,1
496,12.0,19.0,16.0,5.0,20.0,3.0,2.0,5.0,1651072634644398.0,1
497,17.0,24.0,-15.0,5.0,20.0,16.0,7.0,7.0,1651072634644398.0,1
498,-8.0,-8.0,13.0,0.0,-10.0,-5.0,-5.0,-6.0,1651072634666522.0,1
499,-6.0,-28.0,13.0,5.0,18.0,4.0,0.0,3.0,1651072634666522.0,1
500,-3.0,30.0,-16.0,-14.0,-30.0,-10.0,-4.0,-6.0,1651072634674503.0,1
501,-18.0,-24.0,12.0,-1.0,-14.0,-6.0,-3.0,-9.0,1651072634674503.0,1
502,24.0,6.0,-11.0,10.0,27.0,10.0,4.0,15.0,1651072634689430.0,1
503,-8.0,4.0,-1.0,-2.0,-7.0,-4.0,1.0,-1.0,1651072634689430.0,1
504,18.0,11.0,1.0,-2.0,-2.0,5.0,7.0,10.0,1651072634689430.0,1
505,4.0,5.0,-17.0,0.0,13.0,4.0,-1.0,-1.0,1651072634689430.0,1
506,-7.0,-12.0,8.0,-3.0,-11.0,-3.0,-2.0,-6.0,1651072634703507.0,1
507,-1.0,-9.0,6.0,1.0,3.0,0.0,0.0,0.0,1651072634703507.0,1
508,-12.0,17.0,17.0,2.0,-13.0,-5.0,-5.0,-6.0,1651072634704515.0,1
509,9.0,-7.0,-8.0,-2.0,5.0,1.0,2.0,4.0,1651072634704515.0,1
510,12.0,33.0,4.0,0.0,3.0,4.0,4.0,6.0,1651072634726512.0,1
511,-1.0,-14.0,-1.0,-2.0,-12.0,-3.0,0.0,-1.0,1651072634726512.0,1
512,-8.0,0.0,-5.0,3.0,23.0,0.0,-4.0,-4.0,1651072634727442.0,1
513,-9.0,-37.0,14.0,1.0,-3.0,0.0,0.0,-1.0,1651072634727442.0,1
514,0.0,43.0,3.0,2.0,1.0,-1.0,-3.0,-7.0,1651072634749400.0,1
515,10.0,45.0,11.0,-1.0,-9.0,-15.0,4.0,6.0,1651072634749400.0,1
516,-1.0,-40.0,-5.0,-10.0,-7.0,17.0,4.0,1.0,1651072634749400.0,1
517,-4.0,6.0,4.0,10.0,15.0,-1.0,0.0,-1.0,1651072634749400.0,1
518,-7.0,-32.0,-1.0,-4.0,-6.0,-5.0,-3.0,-6.0,1651072634764406.0,1
519,-2.0,4.0,9.0,2.0,3.0,2.0,-1.0,1.0,1651072634764406.0,1
520,3.0,-5.0,-7.0,-3.0,-11.0,-10.0,-6.0,-2.0,1651072634764406.0,1
521,0.0,0.0,1.0,2.0,2.0,-3.0,0.0,3.0,1651072634764406.0,1
522,-1.0,4.0,3.0,-2.0,-6.0,2.0,-2.0,-4.0,1651072634786564.0,1
523,5.0,2.0,4.0,-1.0,2.0,2.0,0.0,0.0,1651072634786564.0,1
524,4.0,1.0,-12.0,-1.0,-7.0,-2.0,0.0,3.0,1651072634787533.0,1
525,-3.0,14.0,11.0,2.0,1.0,-15.0,0.0,-1.0,1651072634787533.0,1
526,-9.0,-20.0,5.0,5.0,6.0,14.0,1.0,-2.0,1651072634809492.0,1
527,1.0,-1.0,-5.0,-1.0,13.0,10.0,1.0,0.0,1651072634809492.0,1
528,2.0,2.0,-2.0,2.0,4.0,6.0,2.0,1.0,1651072634809492.0,1
529,-2.0,13.0,6.0,-1.0,-10.0,-3.0,-3.0,-2.0,1651072634809492.0,1
530,-7.0,-9.0,0.0,-6.0,-28.0,-18.0,-3.0,-7.0,1651072634824444.0,1
531,-1.0,-17.0,-14.0,3.0,22.0,7.0,3.0,7.0,1651072634824444.0,1
532,3.0,16.0,1.0,1.0,-2.0,-1.0,0.0,-6.0,1651072634824444.0,1
533,9.0,-15.0,-10.0,-1.0,-3.0,-5.0,-2.0,1.0,1651072634824444.0,1
534,-5.0,17.0,2.0,1.0,0.0,6.0,0.0,-3.0,1651072634846903.0,1
535,-11.0,-39.0,-9.0,-1.0,-5.0,1.0,-4.0,-5.0,1651072634846903.0,1
536,2.0,29.0,-6.0,2.0,-7.0,-6.0,1.0,4.0,1651072634846903.0,1
537,5.0,3.0,-3.0,-3.0,15.0,12.0,3.0,0.0,1651072634846903.0,1
538,-3.0,-22.0,14.0,-2.0,-4.0,-9.0,-1.0,-1.0,1651072634869071.0,1
539,5.0,22.0,-5.0,-6.0,4.0,1.0,-1.0,5.0,1651072634869071.0,1
540,0.0,-28.0,1.0,4.0,9.0,-4.0,1.0,2.0,1651072634869999.0,1
541,-5.0,3.0,-5.0,-8.0,-16.0,-2.0,-3.0,-3.0,1651072634869999.0,1
542,3.0,-4.0,-8.0,-1.0,4.0,9.0,0.0,-1.0,1651072634884345.0,1
543,-5.0,2.0,-14.0,-2.0,-12.0,-15.0,-3.0,-4.0,1651072634884345.0,1
544,-5.0,-15.0,14.0,2.0,1.0,1.0,2.0,2.0,1651072634885172.0,1
545,5.0,18.0,-7.0,1.0,15.0,9.0,1.0,1.0,1651072634885172.0,1
546,-1.0,-2.0,-9.0,-5.0,-25.0,-15.0,-4.0,-1.0,1651072634906369.0,1
547,-10.0,-6.0,23.0,4.0,8.0,9.0,2.0,0.0,1651072634906369.0,1
548,7.0,-7.0,-7.0,-5.0,-10.0,-13.0,-1.0,0.0,1651072634907312.0,1
549,-5.0,-10.0,-18.0,-3.0,-3.0,13.0,-3.0,-2.0,1651072634907312.0,1
550,1.0,11.0,6.0,1.0,5.0,0.0,2.0,1.0,1651072634929395.0,1
551,-1.0,-7.0,-6.0,-4.0,-13.0,-3.0,-1.0,-4.0,1651072634929395.0,1
552,-11.0,-1.0,3.0,2.0,5.0,-6.0,-1.0,0.0,1651072634929395.0,1
553,3.0,8.0,8.0,-1.0,-3.0,-4.0,0.0,1.0,1651072634929395.0,1
554,-9.0,-9.0,-5.0,-1.0,4.0,-3.0,-2.0,-4.0,1651072634944204.0,1
555,18.0,9.0,2.0,4.0,8.0,4.0,4.0,6.0,1651072634944204.0,1
556,-3.0,9.0,4.0,0.0,5.0,18.0,1.0,-3.0,1651072634951255.0,1
557,-1.0,-3.0,3.0,0.0,-11.0,-15.0,-3.0,0.0,1651072634951255.0,1
558,-1.0,-8.0,-7.0,3.0,19.0,7.0,2.0,-1.0,1651072634966367.0,1
559,-9.0,-18.0,-2.0,-1.0,-6.0,-4.0,-1.0,-3.0,1651072634966367.0,1
560,28.0,45.0,3.0,5.0,14.0,6.0,2.0,10.0,1651072634967309.0,1
561,-6.0,-14.0,-1.0,1.0,-5.0,-1.0,-1.0,-2.0,1651072634967309.0,1
562,0.0,-5.0,-3.0,-4.0,-16.0,-17.0,-1.0,0.0,1651072634989447.0,1
563,3.0,6.0,1.0,3.0,8.0,7.0,0.0,-3.0,1651072634989447.0,1
564,-9.0,-9.0,-7.0,-2.0,1.0,9.0,0.0,-3.0,1651072634989447.0,1
565,1.0,1.0,18.0,1.0,2.0,1.0,1.0,0.0,1651072634989447.0,1
566,2.0,-3.0,-21.0,-4.0,1.0,2.0,0.0,2.0,1651072635004425.0,1
567,2.0,-9.0,-2.0,3.0,-4.0,-9.0,0.0,2.0,1651072635004425.0,1
568,-1.0,7.0,-7.0,-7.0,-1.0,1.0,-6.0,-3.0,1651072635004425.0,1
569,2.0,11.0,20.0,3.0,0.0,-2.0,-3.0,1.0,1651072635004425.0,1
570,-6.0,-9.0,-21.0,-1.0,2.0,2.0,0.0,-4.0,1651072635026321.0,1
571,-7.0,-3.0,11.0,2.0,-1.0,-8.0,-3.0,-5.0,1651072635026321.0,1
572,-2.0,-12.0,-2.0,0.0,-7.0,7.0,2.0,2.0,1651072635027328.0,1
573,8.0,8.0,-6.0,0.0,7.0,3.0,4.0,1.0,1651072635027328.0,1
574,1.0,3.0,12.0,0.0,5.0,3.0,-3.0,-2.0,1651072635049418.0,1
575,1.0,-7.0,-9.0,-3.0,-3.0,-5.0,1.0,0.0,1651072635049418.0,1
576,-4.0,0.0,3.0,-2.0,-9.0,-10.0,-3.0,-3.0,1651072635049418.0,1
577,-1.0,5.0,-4.0,-1.0,1.0,-1.0,-2.0,1.0,1651072635049418.0,1
578,-2.0,-9.0,-4.0,2.0,6.0,-2.0,-1.0,1.0,1651072635064395.0,1
579,6.0,10.0,1.0,-1.0,6.0,10.0,-2.0,0.0,1651072635064395.0,1
580,-4.0,-5.0,4.0,-1.0,1.0,-3.0,1.0,-1.0,1651072635064395.0,1
581,-4.0,-8.0,-6.0,-4.0,-5.0,2.0,0.0,-1.0,1651072635064395.0,1
582,2.0,1.0,0.0,-1.0,-4.0,-7.0,0.0,0.0,1651072635086421.0,1
583,-3.0,6.0,4.0,-1.0,2.0,-1.0,-4.0,-2.0,1651072635086421.0,1
584,0.0,-8.0,-3.0,1.0,6.0,9.0,1.0,0.0,1651072635087207.0,1
585,-1.0,-1.0,-3.0,-1.0,-8.0,-14.0,-1.0,-2.0,1651072635087207.0,1
586,0.0,6.0,13.0,2.0,5.0,15.0,1.0,2.0,1651072635108666.0,1
587,-1.0,2.0,-11.0,0.0,-2.0,-2.0,4.0,0.0,1651072635108666.0,1
588,-4.0,-15.0,-9.0,-3.0,-1.0,-5.0,-2.0,-3.0,1651072635109664.0,1
589,0.0,1.0,-1.0,-1.0,-2.0,-4.0,-4.0,-2.0,1651072635109664.0,1
590,2.0,3.0,6.0,1.0,-5.0,-5.0,-2.0,0.0,1651072635123692.0,1
591,1.0,4.0,1.0,0.0,0.0,1.0,-1.0,0.0,1651072635123692.0,1
592,-3.0,4.0,4.0,2.0,-9.0,-6.0,-2.0,-2.0,1651072635124623.0,1
593,0.0,4.0,-7.0,0.0,1.0,0.0,0.0,-1.0,1651072635124623.0,1
594,3.0,-2.0,9.0,3.0,14.0,-4.0,0.0,-1.0,1651072635146751.0,1
595,-1.0,-2.0,3.0,-1.0,-2.0,15.0,1.0,0.0,1651072635146751.0,1
596,2.0,-1.0,2.0,-1.0,4.0,-1.0,-1.0,-1.0,1651072635146751.0,1
597,-2.0,-3.0,-7.0,-4.0,-9.0,-4.0,0.0,1.0,1651072635146751.0,1
598,3.0,3.0,-3.0,-2.0,-9.0,-5.0,1.0,-1.0,1651072635169214.0,1
599,-11.0,-2.0,2.0,7.0,11.0,5.0,-1.0,0.0,1651072635169214.0,1
600,8.0,1.0,1.0,-3.0,-5.0,-4.0,-4.0,0.0,1651072635169214.0,1
601,0.0,-4.0,0.0,0.0,-3.0,3.0,0.0,-1.0,1651072635169214.0,1
602,-2.0,-1.0,-1.0,-1.0,-3.0,0.0,-2.0,-2.0,1651072635183583.0,1
603,3.0,1.0,0.0,-3.0,-6.0,-8.0,-4.0,-2.0,1651072635183583.0,1
604,-1.0,0.0,-4.0,-1.0,-4.0,-2.0,-2.0,0.0,1651072635191630.0,1
605,-2.0,1.0,3.0,3.0,8.0,8.0,1.0,1.0,1651072635191630.0,1
606,-7.0,2.0,2.0,0.0,-2.0,-1.0,1.0,-1.0,1651072635206462.0,1
607,16.0,-8.0,-8.0,0.0,-3.0,-2.0,0.0,0.0,1651072635206462.0,1
608,-5.0,-1.0,1.0,8.0,5.0,6.0,1.0,-1.0,1651072635207392.0,1
609,4.0,5.0,-5.0,-6.0,-4.0,-5.0,-5.0,-6.0,1651072635207392.0,1
610,-1.0,-2.0,-2.0,-7.0,-5.0,0.0,3.0,5.0,1651072635229370.0,1
611,1.0,-4.0,-5.0,-8.0,-6.0,-7.0,3.0,-1.0,1651072635229370.0,1
612,-6.0,-2.0,4.0,3.0,-1.0,-2.0,1.0,-2.0,1651072635229370.0,1
613,30.0,5.0,4.0,8.0,-3.0,-10.0,-2.0,-4.0,1651072635229370.0,1
614,-59.0,-13.0,-1.0,7.0,5.0,8.0,-6.0,-3.0,1651072635243510.0,1
615,7.0,9.0,-3.0,7.0,16.0,12.0,6.0,0.0,1651072635243510.0,1
616,-21.0,10.0,4.0,-7.0,4.0,3.0,0.0,-1.0,1651072635251525.0,1
617,5.0,-13.0,-10.0,-30.0,-18.0,-5.0,3.0,0.0,1651072635251525.0,1
618,10.0,-2.0,1.0,5.0,-10.0,-12.0,-5.0,-3.0,1651072635266575.0,1
619,1.0,4.0,6.0,12.0,-5.0,-10.0,-5.0,0.0,1651072635266575.0,1
620,-5.0,-3.0,3.0,-2.0,7.0,4.0,-1.0,-3.0,1651072635267533.0,1
621,-11.0,7.0,6.0,21.0,14.0,6.0,2.0,0.0,1651072635267533.0,1
622,24.0,11.0,-1.0,-5.0,-3.0,0.0,2.0,2.0,1651072635289450.0,1
623,-19.0,-2.0,3.0,-6.0,-4.0,-1.0,0.0,0.0,1651072635289450.0,1
624,22.0,-11.0,-3.0,-13.0,-12.0,-6.0,-4.0,-3.0,1651072635289450.0,1
625,-11.0,-3.0,-4.0,-4.0,-1.0,1.0,-2.0,1.0,1651072635289450.0,1
626,7.0,-7.0,-2.0,1.0,4.0,0.0,2.0,-4.0,1651072635303601.0,1
627,13.0,12.0,11.0,4.0,3.0,2.0,-1.0,1.0,1651072635303601.0,1
628,-13.0,10.0,8.0,2.0,-1.0,0.0,0.0,-1.0,1651072635311647.0,1
629,-12.0,-11.0,-8.0,-4.0,2.0,2.0,0.0,-1.0,1651072635311647.0,1
630,-3.0,5.0,7.0,4.0,2.0,0.0,-1.0,0.0,1651072635326542.0,1
631,4.0,1.0,-2.0,-13.0,-11.0,-5.0,0.0,2.0,1651072635326542.0,1
632,7.0,11.0,-14.0,8.0,4.0,-1.0,0.0,0.0,1651072635327540.0,1
633,-15.0,-26.0,6.0,-3.0,0.0,0.0,0.0,0.0,1651072635327540.0,1
634,8.0,5.0,-13.0,-23.0,-5.0,2.0,-2.0,-2.0,1651072635348702.0,1
635,3.0,-8.0,-19.0,-12.0,-6.0,-3.0,-3.0,-3.0,1651072635348702.0,1
636,-5.0,-8.0,-10.0,7.0,-10.0,-17.0,-3.0,-1.0,1651072635349632.0,1
637,3.0,10.0,20.0,7.0,4.0,15.0,2.0,1.0,1651072635349632.0,1
638,3.0,6.0,-4.0,-9.0,-2.0,-2.0,3.0,2.0,1651072635363662.0,1
639,-2.0,-19.0,-17.0,-11.0,5.0,1.0,-1.0,1.0,1651072635363662.0,1
640,-2.0,1.0,5.0,16.0,6.0,4.0,-1.0,1.0,1651072635371685.0,1
641,0.0,3.0,3.0,6.0,0.0,-7.0,-3.0,1.0,1651072635371685.0,1
642,5.0,-1.0,-9.0,8.0,-4.0,-1.0,-2.0,0.0,1651072635386669.0,1
643,-11.0,4.0,11.0,4.0,4.0,6.0,0.0,0.0,1651072635386669.0,1
644,1.0,-6.0,-4.0,-2.0,2.0,-1.0,0.0,1.0,1651072635387709.0,1
645,6.0,8.0,9.0,1.0,-3.0,-3.0,-1.0,1.0,1651072635387709.0,1
646,1.0,-15.0,-22.0,-19.0,2.0,4.0,0.0,1.0,1651072635408805.0,1
647,5.0,10.0,6.0,9.0,-6.0,-4.0,0.0,-1.0,1651072635408805.0,1
648,0.0,-14.0,1.0,11.0,-8.0,-13.0,-2.0,-1.0,1651072635409736.0,1
649,0.0,9.0,11.0,7.0,17.0,18.0,4.0,2.0,1651072635409736.0,1
650,-2.0,-4.0,-2.0,-2.0,0.0,4.0,1.0,-1.0,1651072635423744.0,1
651,0.0,2.0,0.0,13.0,3.0,-1.0,0.0,0.0,1651072635423744.0,1
652,3.0,1.0,4.0,-32.0,1.0,0.0,-1.0,2.0,1651072635431429.0,1
653,-4.0,-6.0,-5.0,22.0,-13.0,-12.0,-3.0,-4.0,1651072635431429.0,1
654,0.0,4.0,2.0,-4.0,3.0,-3.0,-3.0,-1.0,1651072635446742.0,1
655,1.0,1.0,7.0,8.0,7.0,3.0,-1.0,-1.0,1651072635446742.0,1
656,2.0,-7.0,-20.0,-29.0,-16.0,-2.0,0.0,-1.0,1651072635447672.0,1
657,-1.0,1.0,1.0,12.0,6.0,-8.0,-1.0,-2.0,1651072635447672.0,1
658,-1.0,6.0,8.0,24.0,1.0,15.0,1.0,0.0,1651072635469431.0,1
659,-5.0,-1.0,6.0,-8.0,-6.0,-6.0,-2.0,-1.0,1651072635469431.0,1
660,1.0,4.0,0.0,-9.0,2.0,5.0,0.0,-1.0,1651072635469431.0,1
661,-14.0,-8.0,-12.0,-2.0,-8.0,-11.0,-1.0,0.0,1651072635469431.0,1
662,1.0,-3.0,6.0,-8.0,-2.0,-5.0,-1.0,-3.0,1651072635491749.0,1
663,2.0,0.0,4.0,11.0,5.0,1.0,0.0,0.0,1651072635491749.0,1
664,0.0,0.0,-1.0,3.0,6.0,8.0,2.0,1.0,1651072635492679.0,1
665,3.0,0.0,-7.0,-13.0,-5.0,-1.0,0.0,0.0,1651072635492679.0,1
666,3.0,4.0,1.0,5.0,3.0,-4.0,-1.0,1.0,1651072635507028.0,1
667,-4.0,-8.0,-3.0,2.0,-5.0,-2.0,-3.0,-2.0,1651072635507028.0,1
668,0.0,2.0,-2.0,-9.0,4.0,-11.0,-2.0,0.0,1651072635507959.0,1
669,1.0,2.0,-6.0,3.0,1.0,12.0,-1.0,-1.0,1651072635507959.0,1
670,-1.0,2.0,10.0,2.0,0.0,-2.0,0.0,1.0,1651072635529222.0,1
671,3.0,2.0,1.0,-9.0,-1.0,1.0,0.0,-2.0,1651072635529222.0,1
672,0.0,-1.0,3.0,17.0,2.0,0.0,1.0,0.0,1651072635529222.0,1
673,0.0,-4.0,-8.0,-13.0,0.0,-2.0,-1.0,-2.0,1651072635529222.0,1
674,-1.0,-3.0,-3.0,-4.0,-4.0,-3.0,0.0,0.0,1651072635551693.0,1
675,-11.0,-4.0,-6.0,-8.0,-4.0,-8.0,-1.0,-1.0,1651072635551693.0,1
676,5.0,11.0,0.0,-1.0,-2.0,4.0,1.0,0.0,1651072635552706.0,1
677,1.0,-6.0,-7.0,-7.0,0.0,-1.0,1.0,-2.0,1651072635552706.0,1
678,-1.0,1.0,15.0,9.0,-1.0,-1.0,-1.0,-2.0,1651072635566724.0,1
679,0.0,-1.0,-12.0,-4.0,-2.0,0.0,-2.0,-1.0,1651072635566724.0,1
680,1.0,0.0,3.0,6.0,-2.0,-2.0,-1.0,0.0,1651072635567700.0,1
681,2.0,6.0,-4.0,-19.0,1.0,1.0,1.0,2.0,1651072635567700.0,1
682,-1.0,-2.0,20.0,16.0,3.0,0.0,0.0,-1.0,1651072635597499.0,1
683,1.0,2.0,-22.0,-2.0,-9.0,-3.0,-3.0,-1.0,1651072635597499.0,1
684,-5.0,-9.0,0.0,-2.0,3.0,-7.0,-3.0,-2.0,1651072635597499.0,1
685,3.0,-1.0,5.0,1.0,2.0,7.0,0.0,1.0,1651072635597499.0,1
686,-2.0,7.0,3.0,-9.0,8.0,7.0,3.0,3.0,1651072635612447.0,1
687,0.0,0.0,13.0,17.0,5.0,8.0,0.0,0.0,1651072635612447.0,1
688,-2.0,-1.0,3.0,7.0,-4.0,-6.0,-3.0,0.0,1651072635613400.0,1
689,-3.0,-3.0,-10.0,-10.0,-13.0,-15.0,-2.0,-2.0,1651072635613400.0,1
690,2.0,2.0,3.0,-4.0,-2.0,-3.0,-1.0,0.0,1651072635626429.0,1
691,-1.0,-5.0,-12.0,-14.0,-3.0,1.0,-1.0,-3.0,1651072635626429.0,1
692,-4.0,0.0,-6.0,1.0,-2.0,0.0,0.0,-2.0,1651072635627362.0,1
693,3.0,5.0,10.0,1.0,4.0,1.0,-1.0,0.0,1651072635627362.0,1
694,-1.0,-5.0,-17.0,-3.0,-7.0,-3.0,-3.0,-1.0,1651072635649502.0,1
695,2.0,7.0,20.0,2.0,-5.0,-4.0,-1.0,-1.0,1651072635649502.0,1
696,-3.0,-5.0,-8.0,6.0,1.0,-1.0,0.0,-1.0,1651072635649502.0,1
697,-1.0,1.0,-11.0,-2.0,14.0,10.0,1.0,2.0,1651072635649502.0,1
698,-2.0,-3.0,12.0,4.0,-3.0,-2.0,-1.0,-2.0,1651072635672532.0,1
699,0.0,-5.0,-3.0,-10.0,-2.0,-3.0,-2.0,-1.0,1651072635672532.0,1
700,2.0,1.0,-3.0,0.0,-5.0,0.0,0.0,-2.0,1651072635672532.0,1
701,1.0,-1.0,-1.0,-2.0,-8.0,-4.0,0.0,0.0,1651072635672532.0,1
702,1.0,-4.0,-14.0,-3.0,-2.0,-3.0,-1.0,0.0,1651072635686639.0,1
703,-1.0,1.0,8.0,1.0,3.0,0.0,1.0,0.0,1651072635686639.0,1
704,-1.0,0.0,6.0,-3.0,-6.0,1.0,-2.0,1.0,1651072635687569.0,1
705,-2.0,-3.0,-8.0,-1.0,-9.0,-7.0,-2.0,-2.0,1651072635687569.0,1
706,-1.0,1.0,14.0,15.0,10.0,4.0,1.0,1.0,1651072635709430.0,1
707,-1.0,-3.0,-11.0,-6.0,3.0,9.0,2.0,0.0,1651072635709430.0,1
708,0.0,1.0,3.0,-1.0,2.0,2.0,1.0,-1.0,1651072635709430.0,1
709,-1.0,1.0,5.0,5.0,-4.0,-3.0,-1.0,-1.0,1651072635709430.0,1
710,1.0,0.0,-6.0,-7.0,-9.0,-10.0,-4.0,-1.0,1651072635731700.0,1
711,-1.0,0.0,2.0,-6.0,4.0,1.0,-2.0,-1.0,1651072635731700.0,1
712,0.0,-3.0,-4.0,1.0,2.0,3.0,-1.0,0.0,1651072635732714.0,1
713,-1.0,7.0,19.0,2.0,-2.0,-5.0,-2.0,-1.0,1651072635732714.0,1
714,-3.0,-10.0,-12.0,-3.0,2.0,2.0,-1.0,-3.0,1651072635746868.0,1
715,2.0,2.0,6.0,14.0,14.0,6.0,1.0,1.0,1651072635746868.0,1
716,-1.0,1.0,-4.0,-12.0,-4.0,-1.0,1.0,-1.0,1651072635746868.0,1
717,-1.0,-1.0,2.0,1.0,-3.0,-4.0,-2.0,0.0,1651072635746868.0,1
718,0.0,3.0,-3.0,-9.0,-6.0,-6.0,-2.0,-1.0,1651072635769489.0,1
719,-2.0,-6.0,0.0,15.0,1.0,-3.0,-1.0,0.0,1651072635769489.0,1
720,-1.0,2.0,3.0,1.0,-4.0,-1.0,0.0,0.0,1651072635769489.0,1
721,0.0,-1.0,-7.0,3.0,6.0,0.0,1.0,0.0,1651072635769489.0,1
722,0.0,-3.0,-3.0,-8.0,0.0,4.0,2.0,-1.0,1651072635792442.0,1
723,-1.0,-1.0,-6.0,-6.0,-3.0,-1.0,2.0,-1.0,1651072635792442.0,1
724,1.0,0.0,4.0,7.0,1.0,2.0,0.0,-1.0,1651072635793398.0,1
725,0.0,-3.0,-3.0,-1.0,-1.0,-8.0,-1.0,-1.0,1651072635793398.0,1
726,-2.0,2.0,2.0,-1.0,1.0,13.0,0.0,0.0,1651072635806537.0,1
727,0.0,0.0,-1.0,-7.0,-2.0,1.0,-1.0,2.0,1651072635806537.0,1
728,0.0,-2.0,5.0,7.0,1.0,4.0,1.0,-1.0,1651072635807492.0,1
729,-2.0,-5.0,-4.0,-8.0,4.0,2.0,-2.0,-2.0,1651072635807492.0,1
730,0.0,1.0,4.0,8.0,-5.0,-12.0,-1.0,-3.0,1651072635828613.0,1
731,0.0,0.0,5.0,-10.0,-4.0,-4.0,-1.0,-1.0,1651072635828613.0,1
732,0.0,-5.0,-7.0,16.0,2.0,2.0,0.0,-1.0,1651072635829623.0,1
733,0.0,2.0,1.0,-6.0,-2.0,5.0,0.0,-1.0,1651072635829623.0,1
734,1.0,1.0,-6.0,0.0,4.0,-3.0,0.0,0.0,1651072635852045.0,1
735,-2.0,-4.0,1.0,-1.0,-3.0,-1.0,-3.0,-1.0,1651072635852045.0,1
736,0.0,0.0,-4.0,-12.0,-3.0,-3.0,-2.0,0.0,1651072635853055.0,1
737,-1.0,1.0,-3.0,1.0,-2.0,0.0,-2.0,1.0,1651072635853055.0,1
738,-2.0,-2.0,-3.0,0.0,-1.0,-1.0,-1.0,0.0,1651072635866069.0,1
739,-1.0,3.0,-6.0,-5.0,-3.0,-4.0,-1.0,0.0,1651072635866069.0,1
740,-4.0,-4.0,7.0,2.0,-5.0,-7.0,0.0,0.0,1651072635867007.0,1
741,0.0,1.0,-1.0,5.0,6.0,9.0,1.0,1.0,1651072635867007.0,1
742,0.0,-1.0,-4.0,-5.0,1.0,2.0,1.0,-1.0,1651072635888948.0,1
743,1.0,-1.0,-3.0,2.0,-1.0,-1.0,-2.0,-2.0,1651072635888948.0,1
744,-1.0,3.0,0.0,0.0,1.0,3.0,-3.0,0.0,1651072635889972.0,1
745,-1.0,-3.0,1.0,-12.0,-4.0,-15.0,-3.0,-2.0,1651072635889972.0,1
746,-1.0,-5.0,5.0,15.0,1.0,2.0,-1.0,-1.0,1651072635912181.0,1
747,1.0,2.0,9.0,0.0,6.0,9.0,3.0,1.0,1651072635912181.0,1
748,2.0,1.0,-4.0,-11.0,-3.0,-2.0,1.0,2.0,1651072635913212.0,1
749,-1.0,1.0,-1.0,1.0,-5.0,-10.0,-1.0,-2.0,1651072635913212.0,1
750,1.0,4.0,14.0,3.0,2.0,10.0,-1.0,-1.0,1651072635926326.0,1
751,-1.0,-4.0,-9.0,0.0,-7.0,-6.0,1.0,0.0,1651072635926326.0,1
752,-1.0,-1.0,-4.0,-7.0,3.0,1.0,-1.0,-2.0,1651072635927260.0,1
753,-1.0,-1.0,-6.0,1.0,-2.0,5.0,0.0,0.0,1651072635927260.0,1
754,0.0,-1.0,-1.0,-5.0,-10.0,-16.0,-2.0,-2.0,1651072635949264.0,1
755,-1.0,-1.0,2.0,2.0,-1.0,2.0,0.0,0.0,1651072635949264.0,1
756,1.0,-1.0,-2.0,2.0,6.0,5.0,2.0,0.0,1651072635950220.0,1
757,0.0,-1.0,0.0,0.0,6.0,8.0,2.0,0.0,1651072635950220.0,1
758,-2.0,-1.0,-5.0,-6.0,-7.0,-4.0,-2.0,0.0,1651072635972135.0,1
759,0.0,2.0,2.0,-3.0,-4.0,-7.0,-5.0,-1.0,1651072635972135.0,1
760,0.0,-1.0,2.0,11.0,-3.0,-7.0,0.0,-2.0,1651072635973161.0,1
761,0.0,-1.0,0.0,5.0,4.0,9.0,0.0,1.0,1651072635973161.0,1
762,0.0,1.0,-3.0,-2.0,2.0,-8.0,-1.0,1.0,1651072635986243.0,1
763,0.0,1.0,-2.0,-1.0,-1.0,10.0,1.0,-1.0,1651072635986243.0,1
764,-3.0,-6.0,-9.0,-7.0,0.0,-5.0,-1.0,1.0,1651072635987095.0,0
765,0.0,-2.0,1.0,-3.0,-10.0,-9.0,-1.0,-1.0,1651072635987095.0,0
766,0.0,-2.0,-4.0,0.0,8.0,7.0,1.0,0.0,1651072636009104.0,0
767,-2.0,-1.0,1.0,-1.0,-2.0,-10.0,-4.0,-2.0,1651072636009104.0,0
768,1.0,2.0,2.0,2.0,-4.0,5.0,0.0,0.0,1651072636010061.0,0
769,1.0,1.0,-2.0,-1.0,0.0,7.0,4.0,1.0,1651072636010061.0,0
770,-1.0,0.0,0.0,-1.0,1.0,1.0,-2.0,0.0,1651072636032042.0,0
771,-1.0,-4.0,-3.0,-9.0,-1.0,-5.0,1.0,1.0,1651072636032042.0,0
772,-2.0,1.0,5.0,9.0,-2.0,-1.0,-4.0,-1.0,1651072636032985.0,0
773,-2.0,-2.0,3.0,5.0,-1.0,-1.0,-1.0,-2.0,1651072636032985.0,0
774,1.0,0.0,-5.0,-6.0,-2.0,1.0,-1.0,0.0,1651072636046953.0,0
775,0.0,1.0,1.0,0.0,-4.0,-4.0,-2.0,-1.0,1651072636046953.0,0
776,1.0,1.0,-7.0,-5.0,1.0,0.0,0.0,0.0,1651072636046953.0,0
777,1.0,-4.0,6.0,-5.0,-3.0,-2.0,-3.0,-1.0,1651072636046953.0,0
778,-1.0,-4.0,-4.0,7.0,5.0,-4.0,0.0,0.0,1651072636068723.0,0
779,-2.0,1.0,2.0,1.0,3.0,19.0,2.0,-1.0,1651072636068723.0,0
780,-1.0,0.0,-4.0,-3.0,0.0,-4.0,0.0,-2.0,1651072636069690.0,0
781,-1.0,-1.0,-3.0,2.0,0.0,-2.0,0.0,0.0,1651072636069690.0,0
782,0.0,-1.0,-2.0,-5.0,-10.0,-8.0,-2.0,-1.0,1651072636091999.0,0
783,-1.0,-3.0,-4.0,0.0,-5.0,-15.0,-2.0,-1.0,1651072636091999.0,0
784,1.0,10.0,14.0,-1.0,9.0,11.0,2.0,0.0,1651072636092934.0,0
785,-3.0,-5.0,-5.0,2.0,3.0,2.0,1.0,0.0,1651072636092934.0,0
786,-1.0,0.0,2.0,-8.0,1.0,3.0,-2.0,-1.0,1651072636105896.0,0
787,1.0,1.0,-2.0,8.0,-2.0,-2.0,0.0,0.0,1651072636105896.0,0
788,0.0,1.0,6.0,1.0,-8.0,-7.0,-3.0,-2.0,1651072636113874.0,0
789,-1.0,1.0,0.0,-2.0,2.0,-2.0,-3.0,0.0,1651072636113874.0,0
790,-1.0,-3.0,-6.0,-3.0,-1.0,4.0,-1.0,2.0,1651072636129391.0,0
791,-1.0,2.0,5.0,-5.0,2.0,1.0,0.0,0.0,1651072636129391.0,0
792,-1.0,-5.0,-5.0,-7.0,-3.0,-9.0,-4.0,-1.0,1651072636129391.0,0
793,3.0,1.0,-1.0,0.0,-3.0,11.0,7.0,1.0,1651072636129391.0,0
794,0.0,1.0,3.0,6.0,-2.0,1.0,2.0,-2.0,1651072636152464.0,0
795,2.0,-1.0,5.0,5.0,7.0,6.0,-1.0,0.0,1651072636152464.0,0
796,0.0,-4.0,-4.0,-1.0,-3.0,-9.0,-2.0,-2.0,1651072636152464.0,0
797,0.0,0.0,-6.0,-3.0,-1.0,9.0,-3.0,-1.0,1651072636152464.0,0
798,0.0,2.0,1.0,0.0,-4.0,-2.0,0.0,1.0,1651072636165606.0,0
799,0.0,-2.0,-1.0,0.0,-6.0,-15.0,-1.0,-1.0,1651072636165606.0,0
800,-2.0,-3.0,-2.0,10.0,7.0,16.0,1.0,-2.0,1651072636173587.0,0
801,0.0,1.0,0.0,0.0,-1.0,-10.0,-3.0,-1.0,1651072636173587.0,0
802,-1.0,0.0,0.0,-1.0,-4.0,-4.0,-1.0,-1.0,1651072636188662.0,0
803,0.0,-1.0,-4.0,-7.0,1.0,4.0,-1.0,0.0,1651072636188662.0,0
804,0.0,0.0,-1.0,-5.0,0.0,-6.0,0.0,1.0,1651072636189629.0,0
805,-1.0,0.0,-2.0,3.0,-4.0,-3.0,-3.0,-3.0,1651072636189629.0,0
806,1.0,-1.0,-4.0,2.0,4.0,3.0,0.0,0.0,1651072636212340.0,0
807,-1.0,-2.0,-2.0,0.0,2.0,-1.0,-1.0,-1.0,1651072636212340.0,0
808,-2.0,-1.0,0.0,0.0,-9.0,2.0,-1.0,-1.0,1651072636213311.0,0
809,-1.0,0.0,4.0,1.0,6.0,0.0,0.0,0.0,1651072636213311.0,0
810,0.0,-2.0,-7.0,-2.0,-4.0,-2.0,-2.0,0.0,1651072636225361.0,0
811,0.0,0.0,-1.0,-4.0,-1.0,-2.0,-1.0,0.0,1651072636225361.0,0
812,-2.0,-1.0,-1.0,-9.0,-9.0,-9.0,1.0,0.0,1651072636234406.0,0
813,0.0,3.0,8.0,10.0,10.0,15.0,3.0,1.0,1651072636234406.0,0
814,0.0,1.0,1.0,-3.0,4.0,4.0,0.0,0.0,1651072636248738.0,0
815,1.0,-4.0,1.0,12.0,2.0,2.0,2.0,-1.0,1651072636248738.0,0
816,0.0,1.0,0.0,-4.0,-3.0,-4.0,-1.0,-2.0,1651072636249665.0,0
817,-2.0,-4.0,-7.0,-6.0,-12.0,-11.0,-3.0,-1.0,1651072636249665.0,0
818,-1.0,0.0,3.0,-3.0,1.0,-16.0,-2.0,-2.0,1651072636271675.0,0
819,0.0,2.0,0.0,-2.0,0.0,19.0,2.0,-1.0,1651072636271675.0,0
820,0.0,1.0,0.0,-1.0,4.0,7.0,3.0,0.0,1651072636272618.0,0
821,-1.0,-6.0,-9.0,-1.0,-8.0,-15.0,-4.0,-1.0,1651072636272618.0,0
822,-2.0,-1.0,-3.0,3.0,6.0,13.0,1.0,-1.0,1651072636285526.0,0
823,1.0,0.0,0.0,-1.0,1.0,-7.0,-2.0,0.0,1651072636285526.0,0
824,-2.0,1.0,0.0,-3.0,0.0,-2.0,-2.0,1.0,1651072636294438.0,0
825,-1.0,2.0,-4.0,-4.0,-2.0,-1.0,0.0,-1.0,1651072636294438.0,0
826,-1.0,-2.0,2.0,0.0,-11.0,-8.0,-1.0,-1.0,1651072636308631.0,0
827,-1.0,-1.0,4.0,10.0,0.0,-4.0,-2.0,-2.0,1651072636308631.0,0
828,0.0,0.0,-1.0,0.0,-1.0,2.0,0.0,-1.0,1651072636309562.0,0
829,-1.0,0.0,-2.0,-3.0,6.0,9.0,0.0,2.0,1651072636309562.0,0
830,0.0,-1.0,-2.0,-2.0,7.0,-4.0,-4.0,-2.0,1651072636340042.0,0
831,0.0,1.0,-2.0,-2.0,-1.0,10.0,7.0,2.0,1651072636340042.0,0
832,0.0,1.0,1.0,-2.0,-4.0,-1.0,-2.0,0.0,1651072636340042.0,0
833,-1.0,0.0,-5.0,-4.0,-7.0,-8.0,-2.0,-2.0,1651072636340042.0,0
834,0.0,-1.0,-1.0,-1.0,-6.0,-5.0,0.0,1.0,1651072636346029.0,0
835,-2.0,-1.0,0.0,-2.0,1.0,12.0,-2.0,-1.0,1651072636346029.0,0
836,0.0,0.0,-2.0,3.0,10.0,-1.0,3.0,1.0,1651072636354073.0,0
837,-1.0,1.0,6.0,-4.0,-6.0,-8.0,-1.0,-1.0,1651072636354073.0,0
838,-3.0,1.0,-4.0,7.0,1.0,3.0,-1.0,-2.0,1651072636369168.0,0
839,0.0,-1.0,-3.0,-5.0,-4.0,-13.0,-3.0,-1.0,1651072636369168.0,0
840,1.0,-1.0,-2.0,-6.0,0.0,1.0,1.0,1.0,1651072636370107.0,0
841,0.0,-2.0,4.0,7.0,2.0,2.0,-3.0,-1.0,1651072636370107.0,0
842,1.0,-4.0,2.0,-1.0,-15.0,-11.0,0.0,-1.0,1651072636391111.0,0
843,0.0,2.0,-6.0,-6.0,12.0,11.0,2.0,-1.0,1651072636391111.0,0
844,1.0,0.0,0.0,5.0,7.0,2.0,-6.0,-2.0,1651072636392057.0,0
845,2.0,3.0,1.0,-1.0,0.0,5.0,3.0,0.0,1651072636392057.0,0
846,1.0,-1.0,6.0,3.0,1.0,-7.0,-1.0,0.0,1651072636406012.0,0
847,-3.0,-2.0,0.0,-5.0,-5.0,4.0,0.0,0.0,1651072636406012.0,0
848,1.0,3.0,4.0,2.0,0.0,2.0,0.0,0.0,1651072636413989.0,0
849,-3.0,-4.0,-4.0,-17.0,-10.0,-7.0,-4.0,-3.0,1651072636413989.0,0
850,-2.0,-5.0,-18.0,14.0,21.0,7.0,2.0,-1.0,1651072636428659.0,0
851,0.0,-3.0,0.0,5.0,-12.0,-14.0,-1.0,0.0,1651072636428659.0,0
852,-1.0,-2.0,3.0,1.0,8.0,7.0,-1.0,-1.0,1651072636429656.0,0
853,1.0,0.0,-7.0,-11.0,-15.0,-6.0,-1.0,-1.0,1651072636429656.0,0
854,-2.0,-1.0,5.0,-6.0,-5.0,-1.0,0.0,0.0,1651072636451849.0,0
855,0.0,0.0,-4.0,-10.0,-9.0,6.0,0.0,1.0,1651072636451849.0,0
856,-3.0,0.0,0.0,8.0,13.0,-3.0,0.0,0.0,1651072636451849.0,0
857,-1.0,-2.0,4.0,5.0,5.0,6.0,1.0,-1.0,1651072636451849.0,0
858,1.0,2.0,-3.0,-7.0,-7.0,5.0,-3.0,-1.0,1651072636474530.0,0
859,0.0,3.0,9.0,4.0,-16.0,-30.0,-4.0,-2.0,1651072636474530.0,0
860,0.0,-6.0,-7.0,-5.0,1.0,17.0,3.0,-1.0,1651072636475455.0,0
861,0.0,-2.0,-2.0,8.0,20.0,7.0,3.0,1.0,1651072636475455.0,0
862,-1.0,3.0,6.0,-3.0,-1.0,3.0,0.0,0.0,1651072636488488.0,0
863,-1.0,-7.0,-5.0,-14.0,-9.0,-7.0,-1.0,-2.0,1651072636488488.0,0
864,1.0,3.0,2.0,-1.0,-13.0,-10.0,-2.0,-2.0,1651072636489423.0,0
865,-1.0,2.0,3.0,8.0,7.0,0.0,-2.0,0.0,1651072636489423.0,0
866,-2.0,-6.0,-15.0,-1.0,-2.0,5.0,0.0,-1.0,1651072636511724.0,0
867,2.0,4.0,5.0,-2.0,-2.0,-4.0,-1.0,0.0,1651072636511724.0,0
868,0.0,-1.0,-2.0,-3.0,-1.0,0.0,0.0,0.0,1651072636512665.0,0
869,-1.0,-3.0,1.0,-3.0,-5.0,-8.0,-8.0,-3.0,1651072636512665.0,0
870,0.0,4.0,4.0,-9.0,-5.0,8.0,2.0,1.0,1651072636535040.0,0
871,0.0,-5.0,-14.0,4.0,6.0,-4.0,-2.0,0.0,1651072636535040.0,0
872,-1.0,0.0,12.0,2.0,-10.0,-1.0,-3.0,-2.0,1651072636535322.0,0
873,2.0,5.0,5.0,9.0,4.0,7.0,3.0,1.0,1651072636535322.0,0
874,-2.0,-6.0,-11.0,-12.0,-4.0,-5.0,-3.0,-2.0,1651072636549368.0,0
875,2.0,6.0,8.0,7.0,3.0,7.0,0.0,0.0,1651072636549368.0,0
876,2.0,-5.0,-1.0,-1.0,12.0,-2.0,0.0,4.0,1651072636549368.0,0
877,-2.0,1.0,6.0,23.0,-11.0,-12.0,-2.0,-2.0,1651072636549368.0,0
878,2.0,4.0,5.0,-2.0,2.0,4.0,2.0,-1.0,1651072636571527.0,0
879,-2.0,-3.0,-10.0,2.0,7.0,7.0,3.0,2.0,1651072636571527.0,0
880,-2.0,2.0,1.0,-10.0,-18.0,-7.0,-1.0,-2.0,1651072636572543.0,0
881,-2.0,-3.0,-2.0,-9.0,-1.0,-3.0,0.0,0.0,1651072636572543.0,0
882,0.0,-1.0,3.0,-1.0,4.0,3.0,1.0,-1.0,1651072636594744.0,0
883,-1.0,2.0,-1.0,-1.0,-2.0,-8.0,-4.0,-2.0,1651072636594744.0,0
884,1.0,1.0,2.0,10.0,2.0,0.0,1.0,0.0,1651072636595674.0,0
885,0.0,-1.0,-2.0,-7.0,0.0,0.0,-1.0,1.0,1651072636595674.0,0
886,-4.0,-6.0,4.0,2.0,-3.0,-1.0,-1.0,-3.0,1651072636608705.0,0
887,-5.0,2.0,-9.0,-18.0,-3.0,-15.0,-6.0,-4.0,1651072636608705.0,0
888,4.0,2.0,16.0,31.0,14.0,28.0,11.0,3.0,1651072636609645.0,0
889,0.0,-5.0,-3.0,-1.0,2.0,-6.0,1.0,0.0,1651072636609645.0,0
890,-1.0,-1.0,-7.0,-7.0,-12.0,4.0,-2.0,-1.0,1651072636631814.0,0
891,7.0,2.0,6.0,2.0,4.0,0.0,3.0,2.0,1651072636631814.0,0
892,-8.0,-12.0,-15.0,-7.0,-7.0,-16.0,-7.0,-4.0,1651072636631814.0,0
893,-6.0,-8.0,2.0,4.0,4.0,8.0,-1.0,-2.0,1651072636631814.0,0
894,11.0,18.0,8.0,11.0,-4.0,-7.0,-2.0,3.0,1651072636654823.0,0
895,-6.0,16.0,2.0,-5.0,0.0,-6.0,-4.0,-3.0,1651072636654823.0,0
896,0.0,-15.0,-8.0,-11.0,1.0,5.0,1.0,1.0,1651072636655780.0,0
897,-1.0,-7.0,1.0,10.0,3.0,4.0,0.0,-2.0,1651072636655780.0,0
898,-9.0,-8.0,4.0,5.0,7.0,-1.0,0.0,-3.0,1651072636669451.0,0
899,-1.0,-5.0,-4.0,-12.0,-11.0,3.0,-2.0,-1.0,1651072636669451.0,2
900,-2.0,-9.0,-2.0,5.0,-3.0,-9.0,-1.0,-2.0,1651072636669451.0,2
901,-3.0,-6.0,-12.0,-19.0,-4.0,0.0,-1.0,-4.0,1651072636669451.0,2
902,16.0,31.0,-1.0,-1.0,-5.0,0.0,3.0,6.0,1651072636691573.0,2
903,-3.0,-21.0,7.0,10.0,7.0,5.0,-1.0,-3.0,1651072636691573.0,2
904,4.0,3.0,-5.0,-12.0,3.0,0.0,-1.0,-1.0,1651072636692504.0,2
905,-1.0,11.0,1.0,8.0,-5.0,-3.0,0.0,2.0,1651072636692504.0,2
906,-18.0,-29.0,-4.0,6.0,3.0,-2.0,-3.0,-4.0,1651072636714507.0,2
907,-2.0,9.0,4.0,-3.0,0.0,3.0,2.0,-1.0,1651072636714507.0,2
908,22.0,19.0,-6.0,-17.0,-3.0,-2.0,2.0,7.0,1651072636715437.0,2
909,3.0,50.0,5.0,-4.0,0.0,0.0,1.0,0.0,1651072636715437.0,2
910,-6.0,-9.0,9.0,8.0,2.0,0.0,0.0,-2.0,1651072636729467.0,2
911,1.0,-11.0,-9.0,-6.0,-3.0,2.0,1.0,1.0,1651072636729467.0,2
912,-18.0,6.0,-4.0,-3.0,-6.0,-7.0,-4.0,-6.0,1651072636730398.0,2
913,0.0,0.0,7.0,7.0,3.0,3.0,0.0,0.0,1651072636730398.0,2
914,12.0,-2.0,-12.0,-9.0,-1.0,3.0,2.0,3.0,1651072636751493.0,2
915,0.0,8.0,-10.0,9.0,3.0,0.0,0.0,-1.0,1651072636751493.0,2
916,8.0,16.0,7.0,7.0,-5.0,-2.0,1.0,5.0,1651072636752424.0,2
917,-19.0,-23.0,-32.0,-23.0,-7.0,-5.0,-4.0,-8.0,1651072636752424.0,2
918,-3.0,-1.0,8.0,-4.0,-1.0,-5.0,-3.0,-3.0,1651072636782439.0,2
919,14.0,-26.0,0.0,1.0,-1.0,4.0,3.0,7.0,1651072636782439.0,2
920,-4.0,32.0,-2.0,-10.0,-1.0,1.0,-3.0,-5.0,1651072636783350.0,2
921,3.0,-38.0,33.0,35.0,26.0,8.0,1.0,2.0,1651072636783350.0,2
922,19.0,2.0,-32.0,-14.0,-5.0,-4.0,-1.0,7.0,1651072636789372.0,2
923,0.0,24.0,1.0,-6.0,4.0,-1.0,0.0,-1.0,1651072636789372.0,2
924,-23.0,-10.0,-5.0,1.0,-18.0,-8.0,-5.0,-8.0,1651072636789372.0,2
925,5.0,8.0,14.0,-2.0,-4.0,0.0,-1.0,1.0,1651072636789372.0,2
926,-6.0,-6.0,1.0,-6.0,0.0,-3.0,-1.0,0.0,1651072636811333.0,2
927,37.0,50.0,20.0,10.0,-1.0,5.0,7.0,16.0,1651072636811333.0,2
928,-6.0,-53.0,6.0,-14.0,7.0,5.0,2.0,-1.0,1651072636812264.0,2
929,-8.0,5.0,-30.0,-5.0,4.0,8.0,3.0,1.0,1651072636812264.0,2
930,-1.0,-6.0,9.0,6.0,-1.0,-1.0,-1.0,2.0,1651072636834290.0,2
931,-20.0,-6.0,-3.0,3.0,-9.0,-11.0,-8.0,-10.0,1651072636834290.0,2
932,-18.0,-6.0,9.0,11.0,14.0,6.0,-3.0,-9.0,1651072636835290.0,2
933,42.0,32.0,10.0,-1.0,-2.0,0.0,8.0,15.0,1651072636835290.0,2
934,-17.0,22.0,-7.0,1.0,-9.0,-7.0,-7.0,-9.0,1651072636849319.0,2
935,-14.0,-38.0,3.0,-1.0,8.0,-1.0,-3.0,-7.0,1651072636849319.0,2
936,28.0,40.0,-2.0,5.0,3.0,10.0,1.0,4.0,1651072636849319.0,2
937,-13.0,-19.0,4.0,-8.0,-13.0,-7.0,-5.0,-7.0,1651072636849319.0,2
938,-24.0,-38.0,8.0,2.0,-12.0,-12.0,-5.0,-6.0,1651072636871343.0,2
939,-4.0,-42.0,-29.0,-7.0,33.0,20.0,2.0,-3.0,1651072636871343.0,2
940,22.0,25.0,3.0,6.0,-1.0,-3.0,5.0,10.0,1651072636872347.0,2
941,-19.0,4.0,-2.0,5.0,15.0,3.0,-3.0,-8.0,1651072636872347.0,2
942,11.0,-35.0,-24.0,-1.0,-24.0,-16.0,2.0,8.0,1651072636894527.0,2
943,-5.0,11.0,-8.0,-9.0,-12.0,-3.0,-5.0,0.0,1651072636894527.0,2
944,-1.0,-6.0,16.0,-9.0,-16.0,-13.0,-2.0,0.0,1651072636895466.0,2
945,-13.0,40.0,20.0,4.0,36.0,20.0,0.0,-10.0,1651072636895466.0,2
946,10.0,-43.0,50.0,11.0,-6.0,-3.0,-2.0,-2.0,1651072636909418.0,2
947,9.0,3.0,33.0,22.0,28.0,9.0,7.0,1.0,1651072636909418.0,2
948,-20.0,-26.0,-82.0,-38.0,5.0,-2.0,-12.0,-13.0,1651072636909418.0,2
949,10.0,6.0,35.0,-5.0,-39.0,-19.0,-4.0,4.0,1651072636909418.0,2
950,-15.0,-23.0,-65.0,-16.0,6.0,2.0,-3.0,-8.0,1651072636931310.0,2
951,-17.0,1.0,38.0,12.0,-42.0,-16.0,-6.0,-6.0,1651072636931310.0,2
952,31.0,4.0,31.0,19.0,40.0,15.0,4.0,3.0,1651072636932300.0,2
953,-4.0,1.0,-3.0,-2.0,-6.0,-9.0,-5.0,-2.0,1651072636932300.0,2
954,-4.0,10.0,27.0,1.0,17.0,13.0,4.0,1.0,1651072636955088.0,2
955,-16.0,-14.0,-8.0,-8.0,-28.0,-15.0,-11.0,-12.0,1651072636955088.0,2
956,3.0,-21.0,-17.0,-1.0,-31.0,-5.0,7.0,10.0,1651072636955295.0,2
957,8.0,-2.0,-6.0,-12.0,-8.0,-8.0,-2.0,7.0,1651072636955295.0,2
958,23.0,32.0,5.0,12.0,29.0,17.0,13.0,13.0,1651072636969330.0,2
959,-26.0,-41.0,2.0,-2.0,5.0,3.0,-7.0,-4.0,1651072636969330.0,2
960,10.0,52.0,0.0,5.0,-3.0,1.0,2.0,-1.0,1651072636969330.0,2
961,7.0,-19.0,11.0,0.0,7.0,-1.0,-3.0,3.0,1651072636969330.0,2
962,8.0,78.0,15.0,-3.0,-8.0,-3.0,-1.0,-1.0,1651072636991203.0,2
963,10.0,-27.0,-28.0,-3.0,9.0,0.0,2.0,2.0,1651072636991203.0,2
964,-20.0,0.0,16.0,10.0,3.0,3.0,0.0,0.0,1651072636992199.0,2
965,37.0,33.0,5.0,1.0,-18.0,0.0,5.0,8.0,1651072636992199.0,2
966,-20.0,2.0,-33.0,-13.0,-2.0,-6.0,-12.0,-16.0,1651072637014342.0,2
967,21.0,-20.0,-7.0,7.0,0.0,0.0,10.0,15.0,1651072637014342.0,2
968,2.0,-17.0,35.0,-3.0,5.0,-2.0,-11.0,-8.0,1651072637015271.0,2
969,-9.0,39.0,-7.0,0.0,-1.0,0.0,2.0,-1.0,1651072637015271.0,2
970,1.0,-50.0,13.0,-1.0,4.0,8.0,2.0,1.0,1651072637028738.0,2
971,29.0,69.0,-6.0,-2.0,-13.0,-10.0,5.0,6.0,1651072637028738.0,2
972,-25.0,-26.0,19.0,1.0,-14.0,7.0,-1.0,-11.0,1651072637029669.0,2
973,-15.0,-36.0,-35.0,-1.0,1.0,4.0,2.0,-7.0,1651072637029669.0,2
974,-13.0,44.0,-34.0,-12.0,-20.0,-9.0,-8.0,3.0,1651072637051812.0,2
975,-10.0,-61.0,13.0,6.0,36.0,-1.0,1.0,9.0,1651072637051812.0,2
976,-15.0,16.0,-53.0,-7.0,-9.0,-13.0,-7.0,-12.0,1651072637051812.0,2
977,16.0,-22.0,41.0,-4.0,-13.0,-1.0,4.0,9.0,1651072637051812.0,2
978,11.0,16.0,20.0,6.0,-14.0,2.0,5.0,4.0,1651072637074594.0,2
979,9.0,-38.0,-23.0,-10.0,4.0,10.0,-2.0,-4.0,1651072637074594.0,2
980,5.0,30.0,-15.0,-3.0,7.0,-7.0,1.0,7.0,1651072637075592.0,2
981,-16.0,-45.0,-5.0,-2.0,1.0,0.0,-3.0,-8.0,1651072637075592.0,2
982,4.0,-1.0,3.0,0.0,-2.0,-3.0,1.0,1.0,1651072637088653.0,2
983,16.0,107.0,37.0,-1.0,-27.0,0.0,2.0,-1.0,1651072637088653.0,2
984,-15.0,-70.0,-14.0,2.0,33.0,-1.0,-2.0,-4.0,1651072637096675.0,2
985,-17.0,-30.0,-41.0,-10.0,-26.0,-15.0,-10.0,-9.0,1651072637096675.0,2
986,7.0,15.0,25.0,17.0,44.0,10.0,4.0,1.0,1651072637111416.0,2
987,-16.0,20.0,3.0,-1.0,8.0,9.0,-1.0,-6.0,1651072637111416.0,2
988,6.0,-31.0,13.0,3.0,-17.0,-5.0,4.0,7.0,1651072637112346.0,2
989,3.0,58.0,-57.0,-10.0,-8.0,-7.0,-4.0,-1.0,1651072637112346.0,2
990,-3.0,-38.0,-2.0,-4.0,-11.0,-4.0,-4.0,-1.0,1651072637134573.0,2
991,3.0,26.0,-12.0,-3.0,8.0,3.0,0.0,-9.0,1651072637134573.0,2
992,12.0,-6.0,13.0,7.0,-1.0,0.0,1.0,13.0,1651072637135502.0,2
993,-13.0,-11.0,13.0,-1.0,10.0,1.0,1.0,-4.0,1651072637135502.0,2
994,10.0,49.0,26.0,1.0,-21.0,-7.0,-1.0,0.0,1651072637148534.0,2
995,-5.0,-46.0,-22.0,4.0,8.0,6.0,0.0,-11.0,1651072637148534.0,2
996,8.0,7.0,18.0,1.0,-17.0,-1.0,2.0,6.0,1651072637156513.0,2
997,-4.0,-8.0,1.0,-2.0,9.0,-1.0,-2.0,1.0,1651072637156513.0,2
998,1.0,8.0,-27.0,-1.0,8.0,0.0,-3.0,-5.0,1651072637171684.0,2
999,-3.0,-8.0,14.0,2.0,-6.0,-6.0,-1.0,0.0,1651072637171684.0,2
1000,-12.0,-1.0,3.0,-2.0,-8.0,-2.0,-3.0,-5.0,1651072637172683.0,2
1001,6.0,-26.0,15.0,2.0,-10.0,-3.0,0.0,2.0,1651072637172683.0,2
1002,1.0,-2.0,7.0,-1.0,11.0,13.0,2.0,0.0,1651072637195038.0,2
1003,-9.0,8.0,-6.0,-4.0,-8.0,-6.0,-6.0,-2.0,1651072637195038.0,2
1004,8.0,31.0,28.0,7.0,8.0,4.0,3.0,3.0,1651072637195292.0,2
1005,-18.0,-62.0,-24.0,-9.0,-7.0,-4.0,-2.0,-6.0,1651072637195292.0,2
1006,5.0,17.0,2.0,2.0,9.0,2.0,2.0,4.0,1651072637208260.0,2
1007,0.0,-23.0,4.0,0.0,-8.0,-1.0,0.0,1.0,1651072637208260.0,2
1008,3.0,21.0,-9.0,-1.0,15.0,3.0,-3.0,0.0,1651072637216674.0,2
1009,-4.0,-46.0,-3.0,6.0,6.0,4.0,4.0,-1.0,1651072637216674.0,2
1010,-14.0,1.0,8.0,-6.0,-8.0,-3.0,-6.0,-10.0,1651072637231682.0,2
1011,13.0,-4.0,9.0,-5.0,-14.0,-4.0,1.0,7.0,1651072637231682.0,2
1012,-7.0,-1.0,-32.0,-4.0,2.0,-4.0,1.0,-12.0,1651072637231682.0,2
1013,-10.0,-25.0,18.0,11.0,11.0,8.0,4.0,11.0,1651072637231682.0,2
1014,39.0,50.0,-17.0,-7.0,-8.0,2.0,6.0,10.0,1651072637254690.0,2
1015,-8.0,26.0,-17.0,-2.0,3.0,-6.0,-6.0,-9.0,1651072637254690.0,2
1016,-8.0,-48.0,8.0,-2.0,-15.0,0.0,-1.0,1.0,1651072637255720.0,2
1017,-1.0,44.0,-4.0,6.0,13.0,-3.0,-6.0,-9.0,1651072637255720.0,2
1018,-11.0,-46.0,8.0,2.0,2.0,-1.0,0.0,-3.0,1651072637268653.0,2
1019,-9.0,-44.0,10.0,4.0,20.0,9.0,1.0,4.0,1651072637268653.0,2
1020,27.0,104.0,4.0,-4.0,-8.0,-7.0,0.0,5.0,1651072637276632.0,2
1021,3.0,10.0,-3.0,-6.0,-2.0,10.0,2.0,-2.0,1651072637276632.0,2
1022,-20.0,-49.0,1.0,-2.0,-15.0,-11.0,-9.0,-6.0,1651072637291772.0,2
1023,17.0,22.0,3.0,3.0,-12.0,-5.0,0.0,6.0,1651072637291772.0,2
1024,-13.0,-84.0,-7.0,4.0,13.0,10.0,6.0,1.0,1651072637291772.0,2
1025,9.0,40.0,15.0,-3.0,-10.0,-4.0,-4.0,-2.0,1651072637291772.0,2
1026,2.0,29.0,-26.0,-13.0,-14.0,-7.0,0.0,0.0,1651072637314830.0,2
1027,-12.0,34.0,-15.0,7.0,10.0,1.0,0.0,-4.0,1651072637314830.0,2
1028,-2.0,-47.0,2.0,-1.0,0.0,1.0,-1.0,4.0,1651072637315828.0,2
1029,12.0,45.0,10.0,-2.0,-4.0,-6.0,-4.0,2.0,1651072637315828.0,2
1030,-9.0,-50.0,5.0,2.0,-1.0,1.0,-2.0,-5.0,1651072637328126.0,2
1031,-3.0,14.0,4.0,-7.0,-34.0,-10.0,-1.0,-3.0,1651072637328126.0,2
1032,0.0,0.0,-8.0,-1.0,15.0,0.0,-3.0,7.0,1651072637336456.0,2
1033,-7.0,-65.0,4.0,4.0,14.0,8.0,3.0,-3.0,1651072637336456.0,2
1034,-16.0,16.0,-8.0,0.0,4.0,-4.0,-5.0,-5.0,1651072637351395.0,2
1035,-12.0,7.0,-6.0,-6.0,-5.0,0.0,-2.0,-6.0,1651072637351395.0,2
1036,9.0,23.0,-1.0,-3.0,-12.0,-5.0,-5.0,-6.0,1651072637352395.0,2
1037,2.0,-11.0,-27.0,-5.0,-1.0,-1.0,2.0,3.0,1651072637352395.0,2
1038,-5.0,-14.0,9.0,5.0,8.0,5.0,3.0,0.0,1651072637374725.0,2
1039,-5.0,-24.0,-10.0,-1.0,0.0,0.0,2.0,4.0,1651072637374725.0,2
1040,-9.0,35.0,22.0,-2.0,-7.0,-4.0,-3.0,-7.0,1651072637375764.0,2
1041,2.0,-21.0,-20.0,-8.0,-27.0,-7.0,-5.0,-1.0,1651072637375764.0,2
1042,11.0,17.0,-11.0,17.0,55.0,16.0,6.0,7.0,1651072637388714.0,2
1043,-1.0,6.0,1.0,-2.0,6.0,-1.0,-2.0,0.0,1651072637388714.0,2
1044,-19.0,-24.0,7.0,-3.0,-7.0,-4.0,-3.0,-6.0,1651072637396704.0,2
1045,16.0,34.0,4.0,0.0,-7.0,-1.0,1.0,0.0,1651072637396704.0,2
1046,4.0,13.0,20.0,1.0,-15.0,-9.0,-5.0,4.0,1651072637410961.0,2
1047,-7.0,-22.0,-17.0,-4.0,24.0,13.0,4.0,5.0,1651072637410961.0,2
1048,0.0,31.0,3.0,3.0,-4.0,-1.0,0.0,-8.0,1651072637411961.0,2
1049,-5.0,-19.0,-5.0,2.0,10.0,-1.0,-2.0,0.0,1651072637411961.0,2
1050,2.0,-16.0,11.0,-1.0,-14.0,3.0,2.0,-10.0,1651072637434701.0,2
1051,-2.0,1.0,15.0,1.0,5.0,-3.0,-3.0,9.0,1651072637434701.0,2
1052,9.0,45.0,3.0,-6.0,-18.0,-6.0,-1.0,2.0,1651072637435818.0,2
1053,-15.0,-28.0,2.0,8.0,18.0,9.0,5.0,-1.0,1651072637435818.0,2
1054,17.0,8.0,14.0,-3.0,-9.0,-2.0,-3.0,0.0,1651072637457670.0,2
1055,-5.0,5.0,-35.0,-9.0,-7.0,-4.0,-3.0,-6.0,1651072637457670.0,2
1056,-4.0,-29.0,7.0,6.0,5.0,0.0,-2.0,-2.0,1651072637457670.0,2
1057,15.0,1.0,-26.0,-1.0,9.0,3.0,2.0,7.0,1651072637457670.0,2
1058,-11.0,-15.0,12.0,3.0,-4.0,-1.0,1.0,4.0,1651072637471632.0,2
1059,3.0,1.0,4.0,-3.0,-6.0,-3.0,-4.0,-3.0,1651072637471632.0,2
1060,5.0,-23.0,-32.0,-6.0,-11.0,-5.0,-1.0,3.0,1651072637472603.0,2
1061,6.0,34.0,-4.0,-4.0,-2.0,-1.0,1.0,1.0,1651072637472603.0,2
1062,-16.0,-28.0,-7.0,-3.0,-2.0,-2.0,-3.0,-5.0,1651072637494691.0,2
1063,5.0,34.0,8.0,3.0,-2.0,-5.0,2.0,-1.0,1651072637494691.0,2
1064,-4.0,3.0,0.0,-15.0,-34.0,-10.0,-4.0,-2.0,1651072637495808.0,2
1065,-5.0,1.0,13.0,17.0,69.0,19.0,6.0,9.0,1651072637495808.0,2
1066,-3.0,6.0,-15.0,0.0,1.0,-1.0,4.0,-1.0,1651072637517637.0,2
1067,11.0,15.0,-6.0,-8.0,-13.0,-9.0,-7.0,-2.0,1651072637517637.0,2
1068,8.0,21.0,8.0,10.0,11.0,6.0,4.0,2.0,1651072637517637.0,2
1069,-5.0,-17.0,3.0,-15.0,-40.0,-14.0,-6.0,-5.0,1651072637517637.0,2
1070,-9.0,-16.0,6.0,3.0,4.0,0.0,0.0,-2.0,1651072637531595.0,2
1071,-3.0,-35.0,-5.0,5.0,15.0,1.0,-1.0,-3.0,1651072637531595.0,2
1072,-10.0,-20.0,-22.0,-5.0,-1.0,2.0,-1.0,-2.0,1651072637532593.0,2
1073,15.0,70.0,9.0,-1.0,-6.0,3.0,1.0,1.0,1651072637532593.0,2
1074,-1.0,-7.0,-11.0,0.0,-2.0,-2.0,0.0,-2.0,1651072637554601.0,2
1075,-3.0,-36.0,6.0,-1.0,-1.0,1.0,2.0,-2.0,1651072637554601.0,2
1076,-3.0,6.0,-6.0,0.0,1.0,-4.0,-1.0,1.0,1651072637555604.0,2
1077,-11.0,-6.0,12.0,1.0,-2.0,-1.0,-2.0,-6.0,1651072637555604.0,2
1078,21.0,45.0,0.0,-2.0,-2.0,2.0,4.0,9.0,1651072637577569.0,2
1079,1.0,20.0,7.0,-3.0,-20.0,-6.0,0.0,0.0,1651072637577569.0,2
1080,-8.0,-21.0,8.0,8.0,33.0,8.0,-1.0,-5.0,1651072637577569.0,2
1081,5.0,-20.0,-1.0,0.0,0.0,-2.0,0.0,8.0,1651072637577569.0,2
1082,-7.0,-12.0,-12.0,-6.0,-15.0,-4.0,-3.0,-4.0,1651072637591366.0,2
1083,1.0,27.0,9.0,6.0,19.0,6.0,1.0,-1.0,1651072637591366.0,2
1084,3.0,-9.0,-8.0,0.0,-13.0,-6.0,-2.0,0.0,1651072637592367.0,2
1085,-7.0,12.0,12.0,-5.0,-19.0,-7.0,-3.0,-7.0,1651072637592367.0,2
1086,-2.0,-6.0,-4.0,-3.0,9.0,7.0,0.0,1.0,1651072637614527.0,2
1087,-5.0,-46.0,4.0,3.0,-7.0,-1.0,1.0,-2.0,1651072637614527.0,2
1088,7.0,50.0,-2.0,-4.0,10.0,1.0,0.0,6.0,1651072637615607.0,2
1089,8.0,12.0,-5.0,2.0,10.0,2.0,2.0,0.0,1651072637615607.0,2
1090,4.0,10.0,11.0,5.0,0.0,-4.0,-4.0,-1.0,1651072637637592.0,2
1091,0.0,-34.0,9.0,5.0,-1.0,-2.0,2.0,2.0,1651072637637592.0,2
1092,-3.0,-33.0,1.0,2.0,-5.0,5.0,5.0,2.0,1651072637637592.0,2
1093,3.0,37.0,-16.0,-11.0,-10.0,-8.0,-5.0,-8.0,1651072637637592.0,2
1094,2.0,16.0,-7.0,-2.0,11.0,6.0,5.0,7.0,1651072637651550.0,2
1095,4.0,23.0,24.0,7.0,-11.0,-2.0,0.0,0.0,1651072637651550.0,2
1096,-2.0,-11.0,-5.0,0.0,8.0,-1.0,-1.0,-1.0,1651072637652481.0,2
1097,-6.0,-33.0,3.0,0.0,-6.0,-4.0,1.0,-4.0,1651072637652481.0,2
1098,-3.0,-14.0,5.0,-2.0,1.0,2.0,0.0,-13.0,1651072637674694.0,2
1099,-9.0,6.0,-15.0,-2.0,-7.0,-9.0,-6.0,5.0,1651072637674694.0,2
1100,-1.0,6.0,13.0,1.0,0.0,7.0,4.0,-1.0,1651072637675719.0,2
1101,7.0,-10.0,0.0,3.0,17.0,7.0,1.0,2.0,1651072637675719.0,2
1102,-4.0,6.0,-6.0,-7.0,-18.0,-14.0,-6.0,-3.0,1651072637696781.0,2
1103,-5.0,-3.0,-5.0,-4.0,7.0,6.0,0.0,-4.0,1651072637696781.0,2
1104,-2.0,-1.0,-6.0,0.0,-14.0,-7.0,-4.0,-1.0,1651072637697711.0,2
1105,-6.0,-24.0,-4.0,1.0,-2.0,-3.0,-1.0,-3.0,1651072637697711.0,2
1106,-1.0,-5.0,-27.0,-8.0,-9.0,-2.0,-1.0,0.0,1651072637711740.0,2
1107,11.0,7.0,-3.0,7.0,38.0,13.0,4.0,4.0,1651072637711740.0,2
1108,2.0,-6.0,-6.0,2.0,-3.0,-5.0,-3.0,2.0,1651072637712670.0,2
1109,-7.0,-5.0,17.0,6.0,-3.0,-3.0,3.0,0.0,1651072637712670.0,2
1110,1.0,-1.0,-4.0,-7.0,-5.0,4.0,3.0,1.0,1651072637734865.0,2
1111,-2.0,-8.0,5.0,-1.0,-6.0,-3.0,1.0,-2.0,1651072637734865.0,2
1112,4.0,7.0,2.0,-7.0,3.0,2.0,-1.0,-1.0,1651072637735826.0,2
1113,-4.0,-2.0,-4.0,0.0,-4.0,0.0,-4.0,-4.0,1651072637735826.0,2
1114,-3.0,-21.0,8.0,-1.0,4.0,-2.0,0.0,0.0,1651072637757455.0,2
1115,-5.0,33.0,15.0,5.0,-3.0,0.0,-2.0,-7.0,1651072637757455.0,2
1116,4.0,-31.0,12.0,3.0,4.0,3.0,5.0,4.0,1651072637757455.0,2
1117,7.0,24.0,-9.0,0.0,2.0,0.0,-2.0,7.0,1651072637757455.0,2
1118,-3.0,-5.0,9.0,2.0,-3.0,-2.0,-3.0,-2.0,1651072637771419.0,2
1119,-1.0,6.0,-4.0,-9.0,-8.0,-2.0,-4.0,-2.0,1651072637771419.0,2
1120,-4.0,-8.0,12.0,0.0,-23.0,-11.0,1.0,-2.0,1651072637772347.0,2
1121,-1.0,12.0,-24.0,-7.0,13.0,4.0,-1.0,-5.0,1651072637772347.0,2
1122,0.0,-9.0,10.0,11.0,8.0,3.0,1.0,0.0,1651072637795061.0,2
1123,-3.0,-13.0,8.0,3.0,4.0,-1.0,-1.0,0.0,1651072637795061.0,2
1124,3.0,-17.0,-47.0,-5.0,-3.0,1.0,-2.0,1.0,1651072637795299.0,2
1125,3.0,-2.0,30.0,-3.0,0.0,-2.0,1.0,4.0,1651072637795299.0,2
1126,9.0,34.0,10.0,5.0,10.0,7.0,4.0,5.0,1651072637817568.0,2
1127,-1.0,3.0,-39.0,-11.0,-15.0,-6.0,-5.0,-7.0,1651072637817568.0,2
1128,-8.0,-11.0,15.0,6.0,6.0,1.0,-4.0,-1.0,1651072637817568.0,2
1129,-8.0,-24.0,2.0,1.0,-7.0,0.0,-2.0,-3.0,1651072637817568.0,2
1130,-2.0,-3.0,-30.0,-7.0,-15.0,-8.0,-2.0,-2.0,1651072637831456.0,2
1131,-8.0,13.0,16.0,-4.0,1.0,1.0,1.0,0.0,1651072637831456.0,2
1132,20.0,19.0,-18.0,2.0,6.0,-1.0,1.0,-1.0,1651072637832467.0,2
1133,-5.0,-18.0,-12.0,-1.0,7.0,6.0,-1.0,8.0,1651072637832467.0,2
1134,3.0,-8.0,34.0,6.0,2.0,3.0,3.0,3.0,1651072637854411.0,2
1135,5.0,30.0,-17.0,-4.0,-7.0,-2.0,0.0,1.0,1651072637854411.0,2
1136,-10.0,6.0,16.0,-3.0,-5.0,0.0,-3.0,-5.0,1651072637855341.0,2
1137,-3.0,8.0,1.0,-4.0,-17.0,-13.0,-1.0,-3.0,1651072637855341.0,2
1138,1.0,-3.0,4.0,2.0,15.0,11.0,6.0,3.0,1651072637877526.0,2
1139,7.0,-5.0,-1.0,7.0,5.0,-2.0,-3.0,-2.0,1651072637877526.0,2
1140,-11.0,0.0,1.0,-10.0,-4.0,-7.0,-4.0,-7.0,1651072637877526.0,2
1141,0.0,-23.0,-7.0,6.0,-25.0,-8.0,-1.0,-5.0,1651072637877526.0,2
1142,-1.0,6.0,-4.0,-7.0,15.0,6.0,0.0,6.0,1651072637891557.0,2
1143,0.0,-31.0,6.0,-1.0,3.0,1.0,2.0,5.0,1651072637891557.0,2
1144,7.0,15.0,20.0,6.0,-3.0,-2.0,1.0,4.0,1651072637892487.0,2
1145,-3.0,9.0,5.0,-1.0,-2.0,-1.0,-6.0,-6.0,1651072637892487.0,2
1146,-9.0,-25.0,-20.0,-6.0,-10.0,-11.0,-8.0,-8.0,1651072637915037.0,2
1147,-1.0,-1.0,-7.0,3.0,2.0,1.0,1.0,-2.0,1651072637915037.0,2
1148,8.0,0.0,-1.0,-2.0,-3.0,-1.0,0.0,5.0,1651072637915296.0,2
1149,-3.0,23.0,35.0,-2.0,6.0,-2.0,-2.0,-1.0,1651072637915296.0,2
1150,-3.0,-9.0,-27.0,3.0,2.0,7.0,4.0,6.0,1651072637937548.0,2
1151,18.0,20.0,25.0,1.0,8.0,5.0,1.0,4.0,1651072637937548.0,2
1152,-2.0,-3.0,-37.0,-5.0,5.0,0.0,-2.0,-2.0,1651072637937548.0,2
1153,1.0,10.0,-1.0,0.0,-5.0,-2.0,2.0,0.0,1651072637937548.0,2
1154,-5.0,-43.0,-12.0,-4.0,-3.0,-4.0,-5.0,-6.0,1651072637951510.0,2
1155,-8.0,8.0,-7.0,-1.0,-1.0,1.0,0.0,0.0,1651072637951510.0,2
1156,-7.0,-9.0,11.0,-1.0,-3.0,-1.0,1.0,-1.0,1651072637952441.0,2
1157,0.0,-5.0,-19.0,-7.0,-7.0,-1.0,-5.0,-6.0,1651072637952441.0,2
1158,2.0,35.0,17.0,6.0,-19.0,-13.0,-4.0,-2.0,1651072637974549.0,2
1159,4.0,-35.0,-19.0,8.0,45.0,13.0,9.0,12.0,1651072637974549.0,2
1160,7.0,5.0,2.0,5.0,12.0,4.0,-3.0,-8.0,1651072637975492.0,2
1161,1.0,13.0,-10.0,-4.0,-4.0,-2.0,0.0,-3.0,1651072637975492.0,2
1162,-7.0,-3.0,22.0,0.0,-8.0,-2.0,-4.0,-6.0,1651072637996720.0,2
1163,1.0,6.0,13.0,-2.0,-15.0,-8.0,-4.0,-1.0,1651072637996720.0,2
1164,-4.0,-26.0,-14.0,-1.0,3.0,2.0,0.0,-1.0,1651072637997663.0,2
1165,-1.0,6.0,2.0,3.0,7.0,7.0,5.0,2.0,1651072637997663.0,2
1166,2.0,23.0,7.0,-4.0,-12.0,-5.0,-2.0,-2.0,1651072638010682.0,2
1167,-2.0,-4.0,-11.0,-8.0,-12.0,-6.0,-3.0,-7.0,1651072638010682.0,2
1168,-2.0,-29.0,-4.0,6.0,17.0,6.0,2.0,7.0,1651072638018661.0,2
1169,-3.0,3.0,-23.0,-4.0,-7.0,-4.0,0.0,-1.0,1651072638018661.0,2
1170,1.0,-6.0,6.0,5.0,7.0,2.0,2.0,-2.0,1651072638034618.0,2
1171,-3.0,7.0,7.0,-7.0,-15.0,-3.0,0.0,-2.0,1651072638034618.0,2
1172,-6.0,4.0,-14.0,-5.0,-12.0,-4.0,-2.0,-4.0,1651072638035558.0,2
1173,-2.0,-4.0,6.0,7.0,6.0,-8.0,-3.0,-2.0,1651072638035558.0,2
1174,2.0,-3.0,-14.0,-1.0,25.0,7.0,1.0,2.0,1651072638056740.0,2
1175,-4.0,-7.0,10.0,-4.0,-5.0,0.0,0.0,-4.0,1651072638056740.0,2
1176,0.0,17.0,14.0,3.0,-11.0,-2.0,-1.0,-2.0,1651072638057669.0,2
1177,-1.0,-9.0,4.0,2.0,-2.0,4.0,2.0,2.0,1651072638057669.0,2
1178,1.0,6.0,-8.0,-2.0,-6.0,-8.0,-2.0,-2.0,1651072638071211.0,2
1179,1.0,-3.0,-3.0,-3.0,-7.0,-12.0,-4.0,-3.0,1651072638071211.0,2
1180,-1.0,6.0,2.0,-4.0,5.0,12.0,3.0,4.0,1651072638079419.0,2
1181,5.0,1.0,-6.0,-3.0,5.0,6.0,-1.0,0.0,1651072638079419.0,2
1182,-2.0,-3.0,10.0,1.0,1.0,-5.0,2.0,0.0,1651072638094489.0,2
1183,-2.0,-2.0,-10.0,-4.0,-11.0,-1.0,-1.0,-2.0,1651072638094489.0,2
1184,-2.0,9.0,9.0,5.0,4.0,-2.0,-2.0,-2.0,1651072638095490.0,2
1185,2.0,-5.0,-3.0,1.0,8.0,6.0,1.0,1.0,1651072638095490.0,2
1186,1.0,-11.0,12.0,-3.0,-10.0,-5.0,0.0,0.0,1651072638117564.0,2
1187,5.0,5.0,-1.0,6.0,2.0,0.0,0.0,0.0,1651072638117564.0,2
1188,-2.0,4.0,-19.0,-6.0,1.0,-2.0,-2.0,-2.0,1651072638117564.0,2
1189,-3.0,-1.0,13.0,-1.0,-5.0,-2.0,-1.0,-1.0,1651072638117564.0,2
1190,2.0,5.0,-4.0,-4.0,-4.0,-2.0,-4.0,0.0,1651072638130576.0,2
1191,-1.0,-1.0,-5.0,-3.0,-3.0,-2.0,0.0,1.0,1651072638130576.0,2
1192,-4.0,0.0,14.0,6.0,1.0,1.0,0.0,3.0,1651072638139489.0,2
1193,3.0,-1.0,-6.0,-2.0,-5.0,-22.0,-3.0,-7.0,1651072638139489.0,2
1194,3.0,4.0,2.0,3.0,13.0,35.0,4.0,3.0,1651072638154994.0,2
1195,-3.0,-10.0,-10.0,5.0,3.0,4.0,5.0,1.0,1651072638154994.0,2
1196,1.0,5.0,2.0,-3.0,0.0,-4.0,-2.0,0.0,1651072638155300.0,2
1197,-5.0,-3.0,-1.0,-4.0,-12.0,-9.0,-2.0,-1.0,1651072638155300.0,2
1198,2.0,2.0,-5.0,-7.0,-15.0,-16.0,-4.0,-1.0,1651072638177663.0,2
1199,-2.0,-7.0,7.0,12.0,19.0,13.0,4.0,-1.0,1651072638177663.0,2
1200,0.0,2.0,7.0,2.0,2.0,-4.0,0.0,-1.0,1651072638177663.0,2
1201,0.0,-1.0,-2.0,9.0,-4.0,0.0,1.0,-3.0,1651072638177663.0,2
1202,-5.0,-1.0,4.0,-3.0,1.0,-2.0,-2.0,-4.0,1651072638191187.0,2
1203,0.0,-1.0,-9.0,-12.0,-5.0,2.0,-1.0,3.0,1651072638191187.0,2
1204,-1.0,-2.0,-8.0,-5.0,-4.0,-10.0,-3.0,-3.0,1651072638198640.0,2
1205,1.0,-1.0,1.0,-12.0,-4.0,6.0,-2.0,0.0,1651072638198640.0,2
1206,-8.0,-4.0,-2.0,10.0,-3.0,-2.0,4.0,2.0,1651072638214627.0,2
1207,1.0,11.0,2.0,3.0,7.0,4.0,-1.0,-1.0,1651072638214627.0,2
1208,-5.0,-2.0,6.0,1.0,11.0,4.0,3.0,1.0,1651072638215749.0,2
1209,1.0,-1.0,2.0,1.0,-1.0,12.0,0.0,3.0,1651072638215749.0,2
1210,2.0,0.0,-7.0,-5.0,0.0,-7.0,1.0,-1.0,1651072638237106.0,2
1211,3.0,-2.0,-1.0,1.0,-7.0,-7.0,0.0,-1.0,1651072638237106.0,2
1212,32.0,2.0,6.0,6.0,-5.0,-5.0,-4.0,-3.0,1651072638238045.0,2
1213,-43.0,5.0,-1.0,-8.0,5.0,2.0,1.0,1.0,1651072638238045.0,2
1214,1.0,-8.0,-19.0,-13.0,-5.0,-8.0,-4.0,-2.0,1651072638260027.0,2
1215,-3.0,-2.0,10.0,2.0,-5.0,-3.0,-4.0,-1.0,1651072638260027.0,2
1216,1.0,-3.0,-12.0,0.0,1.0,1.0,0.0,0.0,1651072638260027.0,2
1217,13.0,2.0,2.0,5.0,-4.0,-4.0,1.0,2.0,1651072638260027.0,2
1218,-5.0,-4.0,18.0,7.0,8.0,-5.0,-7.0,-5.0,1651072638275038.0,2
1219,42.0,2.0,-10.0,-2.0,1.0,11.0,6.0,2.0,1651072638275038.0,2
1220,-16.0,14.0,4.0,-9.0,-6.0,2.0,1.0,0.0,1651072638275987.0,2
1221,-28.0,-18.0,3.0,9.0,-2.0,0.0,-1.0,2.0,1651072638275987.0,2
1222,-5.0,-1.0,-17.0,-15.0,0.0,-2.0,-2.0,0.0,1651072638297162.0,2
1223,2.0,1.0,2.0,-1.0,-6.0,-5.0,-5.0,-2.0,1651072638297162.0,2
1224,4.0,2.0,9.0,4.0,-5.0,-8.0,0.0,-1.0,1651072638298088.0,2
1225,14.0,1.0,-3.0,-3.0,12.0,9.0,2.0,1.0,1651072638298088.0,2
1226,34.0,7.0,-8.0,7.0,1.0,2.0,-2.0,-3.0,1651072638311121.0,2
1227,-32.0,-14.0,2.0,0.0,3.0,-2.0,-4.0,1.0,1651072638311121.0,2
1228,29.0,8.0,1.0,1.0,-3.0,9.0,3.0,1.0,1651072638319087.0,2
1229,-73.0,-13.0,-9.0,-1.0,5.0,1.0,3.0,1.0,1651072638319087.0,2
1230,0.0,-3.0,30.0,22.0,4.0,5.0,0.0,1.0,1651072638334776.0,2
1231,-8.0,9.0,-9.0,-22.0,-14.0,-13.0,-2.0,-2.0,1651072638334776.0,2
1232,-13.0,-10.0,-4.0,-3.0,-5.0,-1.0,-2.0,-2.0,1651072638335774.0,2
1233,47.0,8.0,-4.0,0.0,0.0,-3.0,-1.0,0.0,1651072638335774.0,2
1234,-4.0,0.0,-3.0,2.0,5.0,4.0,1.0,2.0,1651072638364551.0,2
1235,-19.0,5.0,12.0,15.0,-1.0,1.0,-3.0,-1.0,1651072638364551.0,2
1236,30.0,-6.0,-4.0,0.0,4.0,-2.0,-2.0,1.0,1651072638365481.0,2
1237,-6.0,21.0,6.0,-14.0,-11.0,-1.0,2.0,-4.0,1651072638365481.0,2
1238,-11.0,-21.0,-30.0,-11.0,0.0,4.0,-2.0,-2.0,1651072638380124.0,2
1239,-2.0,-8.0,7.0,-3.0,0.0,-1.0,-2.0,-1.0,1651072638380124.0,2
1240,34.0,9.0,24.0,7.0,3.0,2.0,0.0,0.0,1651072638380124.0,2
1241,25.0,-4.0,-12.0,10.0,5.0,-3.0,-1.0,-1.0,1651072638380124.0,2
1242,-13.0,-10.0,-13.0,-1.0,-2.0,-1.0,3.0,7.0,1651072638394511.0,2
1243,7.0,-4.0,25.0,2.0,-3.0,-3.0,-4.0,-4.0,1651072638394511.0,2
1244,-8.0,9.0,-6.0,10.0,6.0,4.0,0.0,0.0,1651072638395442.0,2
1245,9.0,-15.0,-12.0,-8.0,0.0,1.0,-4.0,2.0,1651072638395442.0,2
1246,-8.0,15.0,9.0,-17.0,-11.0,-3.0,-1.0,-6.0,1651072638417688.0,2
1247,5.0,-7.0,-16.0,-18.0,-4.0,-4.0,-3.0,-2.0,1651072638417688.0,2
1248,-27.0,13.0,18.0,28.0,12.0,2.0,2.0,0.0,1651072638417688.0,2
1249,18.0,-9.0,0.0,9.0,4.0,10.0,0.0,-3.0,1651072638417688.0,2
1250,1.0,9.0,-12.0,-24.0,12.0,3.0,3.0,1.0,1651072638446863.0,2
1251,-15.0,0.0,0.0,-22.0,-7.0,1.0,1.0,2.0,1651072638446863.0,2
1252,-19.0,-3.0,26.0,15.0,-18.0,-20.0,-6.0,-5.0,1651072638447793.0,2
1253,5.0,-5.0,-26.0,-3.0,0.0,3.0,2.0,1.0,1651072638447793.0,2
1254,8.0,-12.0,-11.0,22.0,13.0,12.0,1.0,0.0,1651072638452806.0,2
1255,30.0,2.0,0.0,7.0,-2.0,-10.0,-1.0,-1.0,1651072638452806.0,2
1256,-27.0,-12.0,-50.0,-65.0,-3.0,15.0,1.0,2.0,1651072638461823.0,2
1257,3.0,5.0,25.0,43.0,1.0,-11.0,-1.0,0.0,1651072638461823.0,2
1258,5.0,16.0,-3.0,-30.0,-14.0,-6.0,-4.0,1.0,1651072638477368.0,2
1259,-4.0,-11.0,8.0,21.0,1.0,1.0,2.0,1.0,1651072638477368.0,2
1260,-3.0,5.0,3.0,22.0,8.0,2.0,0.0,1.0,1651072638478353.0,2
1261,-3.0,-20.0,-10.0,-23.0,-17.0,-12.0,-9.0,-7.0,1651072638478353.0,2
1262,0.0,5.0,1.0,-2.0,1.0,3.0,-1.0,-1.0,1651072638499749.0,2
1263,4.0,11.0,-12.0,3.0,6.0,1.0,2.0,3.0,1651072638499749.0,2
1264,-11.0,-12.0,-4.0,-23.0,2.0,3.0,3.0,1.0,1651072638501675.0,2
1265,-13.0,7.0,8.0,17.0,-2.0,4.0,1.0,-1.0,1651072638501675.0,2
1266,6.0,-4.0,8.0,-7.0,6.0,-6.0,-2.0,-1.0,1651072638513712.0,2
1267,-15.0,-11.0,-8.0,8.0,-14.0,-8.0,-7.0,-5.0,1651072638513712.0,2
1268,-1.0,8.0,12.0,0.0,-7.0,-6.0,0.0,0.0,1651072638522621.0,2
1269,4.0,-2.0,-16.0,-15.0,1.0,3.0,-4.0,1.0,1651072638522621.0,2
1270,-3.0,5.0,1.0,-6.0,-7.0,1.0,4.0,0.0,1651072638537429.0,2
1271,-2.0,4.0,1.0,5.0,14.0,12.0,3.0,1.0,1651072638537429.0,2
1272,2.0,-5.0,-6.0,22.0,-5.0,-6.0,-3.0,-2.0,1651072638538358.0,2
1273,0.0,9.0,-7.0,-38.0,-4.0,-7.0,-1.0,-1.0,1651072638538358.0,2
1274,2.0,0.0,9.0,25.0,-1.0,-3.0,-1.0,-1.0,1651072638567797.0,2
1275,-9.0,4.0,0.0,-8.0,1.0,4.0,3.0,1.0,1651072638567797.0,2
1276,-3.0,-4.0,-1.0,-16.0,-1.0,-4.0,-1.0,-1.0,1651072638568761.0,2
1277,12.0,5.0,4.0,-1.0,-2.0,-3.0,-2.0,0.0,1651072638568761.0,2
1278,-7.0,-18.0,3.0,52.0,1.0,-1.0,0.0,0.0,1651072638573714.0,2
1279,2.0,2.0,-9.0,-14.0,-4.0,-6.0,-2.0,0.0,1651072638573714.0,2
1280,-1.0,-10.0,-20.0,-13.0,5.0,6.0,0.0,0.0,1651072638582690.0,2
1281,5.0,4.0,12.0,2.0,2.0,3.0,-1.0,2.0,1651072638582690.0,2
1282,-1.0,6.0,-4.0,-25.0,-10.0,-1.0,-1.0,-1.0,1651072638597098.0,2
1283,-3.0,1.0,-4.0,1.0,0.0,-5.0,-4.0,-1.0,1651072638597098.0,2
1284,2.0,-9.0,-4.0,1.0,-3.0,-4.0,-1.0,-2.0,1651072638599055.0,2
1285,-2.0,-2.0,-18.0,-6.0,3.0,5.0,2.0,-2.0,1651072638599055.0,2
1286,4.0,12.0,4.0,15.0,-9.0,-14.0,-2.0,-2.0,1651072638620077.0,2
1287,-2.0,-7.0,-8.0,-19.0,1.0,7.0,-1.0,-2.0,1651072638620077.0,2
1288,-1.0,-2.0,3.0,11.0,-5.0,-3.0,-3.0,0.0,1651072638621082.0,2
1289,0.0,3.0,17.0,6.0,4.0,-6.0,-3.0,-1.0,1651072638621082.0,2
1290,5.0,1.0,-5.0,-24.0,1.0,6.0,4.0,3.0,1651072638633117.0,2
1291,-4.0,5.0,-11.0,41.0,3.0,8.0,-1.0,-2.0,1651072638633117.0,2
1292,1.0,0.0,19.0,-18.0,-6.0,-3.0,2.0,-1.0,1651072638642028.0,2
1293,2.0,1.0,-1.0,15.0,5.0,-4.0,-1.0,0.0,1651072638642028.0,2
1294,-1.0,-2.0,8.0,6.0,3.0,-4.0,-4.0,0.0,1651072638657142.0,2
1295,3.0,3.0,-6.0,-22.0,-9.0,-6.0,2.0,1.0,1651072638657142.0,2
1296,-6.0,-5.0,-14.0,7.0,2.0,5.0,1.0,0.0,1651072638659103.0,2
1297,-1.0,1.0,13.0,-4.0,0.0,2.0,2.0,-1.0,1651072638659103.0,2
1298,-8.0,-3.0,-20.0,-17.0,-4.0,0.0,-4.0,-4.0,1651072638679646.0,2
1299,-2.0,-1.0,2.0,9.0,1.0,0.0,-1.0,-1.0,1651072638679646.0,2
1300,-2.0,-2.0,-6.0,8.0,-6.0,-7.0,-4.0,-2.0,1651072638681660.0,2
1301,-2.0,0.0,7.0,-9.0,-2.0,-3.0,1.0,1.0,1651072638681660.0,2
1302,-1.0,3.0,7.0,-10.0,6.0,7.0,2.0,2.0,1651072638693672.0,2
1303,0.0,-11.0,6.0,6.0,-7.0,-5.0,-2.0,-1.0,1651072638693672.0,2
1304,3.0,12.0,11.0,-8.0,-1.0,-5.0,-1.0,0.0,1651072638701828.0,2
1305,-3.0,-20.0,-45.0,-7.0,-3.0,1.0,-1.0,-1.0,1651072638701828.0,2
1306,-2.0,-1.0,5.0,15.0,-4.0,-16.0,-3.0,-1.0,1651072638716958.0,2
1307,0.0,3.0,-1.0,-9.0,9.0,18.0,3.0,1.0,1651072638716958.0,2
1308,1.0,1.0,3.0,-2.0,-1.0,1.0,3.0,-1.0,1651072638718881.0,2
1309,0.0,6.0,20.0,8.0,3.0,3.0,-1.0,-1.0,1651072638718881.0,2
1310,-2.0,4.0,3.0,8.0,-1.0,-5.0,-3.0,-1.0,1651072638740090.0,2
1311,-1.0,-9.0,4.0,-7.0,-5.0,-5.0,0.0,-3.0,1651072638740090.0,2
1312,0.0,4.0,0.0,-2.0,3.0,9.0,2.0,0.0,1651072638741008.0,2
1313,-12.0,-4.0,-5.0,-7.0,-6.0,-2.0,-1.0,-2.0,1651072638741008.0,2
1314,1.0,-1.0,-1.0,6.0,-5.0,-6.0,-1.0,-1.0,1651072638753710.0,2
1315,4.0,7.0,8.0,9.0,7.0,2.0,-1.0,0.0,1651072638753710.0,2
1316,-5.0,-6.0,-13.0,0.0,0.0,1.0,0.0,-2.0,1651072638762577.0,2
1317,3.0,5.0,12.0,19.0,8.0,2.0,1.0,1.0,1651072638762577.0,2
1318,0.0,-2.0,1.0,-6.0,-4.0,-1.0,-2.0,-2.0,1651072638777386.0,2
1319,-3.0,-5.0,-17.0,-8.0,1.0,-3.0,-1.0,0.0,1651072638777386.0,2
1320,3.0,-2.0,-1.0,-9.0,-2.0,-3.0,-1.0,-2.0,1651072638778356.0,2
1321,7.0,8.0,1.0,-6.0,-3.0,-1.0,0.0,-1.0,1651072638778356.0,2
1322,-3.0,-8.0,-1.0,4.0,-3.0,-3.0,1.0,-2.0,1651072638799840.0,2
1323,2.0,3.0,4.0,10.0,0.0,4.0,0.0,2.0,1651072638799840.0,2
1324,-1.0,2.0,-1.0,-4.0,-3.0,-11.0,-2.0,0.0,1651072638800866.0,2
1325,3.0,3.0,9.0,-10.0,4.0,13.0,-2.0,0.0,1651072638800866.0,2
1326,0.0,-4.0,-1.0,-1.0,-4.0,5.0,2.0,0.0,1651072638813735.0,2
1327,-1.0,2.0,4.0,-1.0,-1.0,-14.0,-4.0,-1.0,1651072638813735.0,2
1328,-1.0,0.0,-5.0,20.0,2.0,6.0,2.0,3.0,1651072638821952.0,2
1329,-2.0,-1.0,-4.0,-19.0,-8.0,-2.0,0.0,0.0,1651072638821952.0,2
1330,-3.0,-7.0,-20.0,-6.0,0.0,1.0,-2.0,-2.0,1651072638837736.0,2
1331,-2.0,-2.0,-7.0,6.0,-3.0,-8.0,-1.0,1.0,1651072638837736.0,2
1332,0.0,0.0,6.0,6.0,3.0,0.0,-3.0,-3.0,1651072638839664.0,2
1333,0.0,1.0,9.0,10.0,-6.0,-6.0,-2.0,-2.0,1651072638839664.0,2
1334,1.0,-1.0,8.0,2.0,8.0,11.0,3.0,3.0,1651072638860084.0,2
1335,1.0,5.0,-5.0,-13.0,-5.0,-3.0,-1.0,1.0,1651072638860084.0,2
1336,-3.0,-11.0,-7.0,-7.0,0.0,-3.0,-2.0,-1.0,1651072638861084.0,2
1337,0.0,-2.0,0.0,-2.0,-6.0,0.0,3.0,1.0,1651072638861084.0,2
1338,-1.0,3.0,2.0,4.0,3.0,0.0,1.0,1.0,1651072638873685.0,2
1339,-1.0,1.0,4.0,2.0,0.0,0.0,2.0,0.0,1651072638873685.0,2
1340,3.0,0.0,3.0,6.0,0.0,0.0,-1.0,0.0,1651072638882586.0,2
1341,0.0,0.0,-3.0,1.0,11.0,8.0,2.0,1.0,1651072638882586.0,2
1342,-2.0,-7.0,-11.0,-23.0,-7.0,-6.0,-6.0,-3.0,1651072638896810.0,2
1343,0.0,-1.0,5.0,-1.0,0.0,1.0,0.0,-2.0,1651072638896810.0,2
1344,-1.0,0.0,-5.0,-9.0,-10.0,-3.0,-2.0,-1.0,1651072638898738.0,2
1345,1.0,2.0,1.0,4.0,-6.0,-20.0,-3.0,-1.0,1651072638898738.0,2
1346,-2.0,2.0,3.0,2.0,3.0,18.0,0.0,1.0,1651072638919752.0,2
1347,0.0,1.0,1.0,1.0,5.0,7.0,7.0,2.0,1651072638919752.0,2
1348,-2.0,-3.0,1.0,3.0,2.0,-1.0,-2.0,0.0,1651072638921677.0,2
1349,-1.0,0.0,0.0,8.0,1.0,-3.0,0.0,-1.0,1651072638921677.0,2
1350,-2.0,-2.0,-1.0,-22.0,-5.0,-6.0,-4.0,-3.0,1651072638933572.0,2
1351,-1.0,-3.0,1.0,14.0,-1.0,-1.0,0.0,-2.0,1651072638933572.0,2
1352,0.0,-5.0,-5.0,-7.0,-3.0,0.0,0.0,-2.0,1651072638941998.0,2
1353,0.0,-1.0,-3.0,6.0,-3.0,-4.0,-2.0,-1.0,1651072638941998.0,2
1354,1.0,-1.0,2.0,9.0,2.0,-6.0,2.0,1.0,1651072638957129.0,2
1355,1.0,2.0,-6.0,-22.0,-2.0,1.0,-2.0,1.0,1651072638957129.0,2
1356,-2.0,1.0,-2.0,-2.0,4.0,2.0,-2.0,0.0,1651072638959082.0,2
1357,-3.0,0.0,6.0,7.0,-7.0,-11.0,-4.0,-2.0,1651072638959082.0,2
1358,3.0,1.0,1.0,3.0,6.0,11.0,3.0,1.0,1651072638980139.0,2
1359,0.0,-3.0,-4.0,-3.0,2.0,1.0,0.0,-2.0,1651072638980139.0,2
1360,-1.0,0.0,-5.0,-12.0,-2.0,0.0,0.0,0.0,1651072638981140.0,2
1361,0.0,-1.0,2.0,6.0,1.0,-1.0,1.0,0.0,1651072638981140.0,2
1362,1.0,3.0,7.0,9.0,-1.0,-6.0,-2.0,1.0,1651072638993771.0,2
1363,0.0,7.0,3.0,0.0,-3.0,-1.0,-1.0,0.0,1651072638993771.0,2
1364,-1.0,-5.0,-9.0,-6.0,-1.0,0.0,-1.0,0.0,1651072639002750.0,2
1365,-2.0,-2.0,-11.0,-4.0,0.0,-5.0,-3.0,-2.0,1651072639002750.0,2
1366,1.0,3.0,12.0,8.0,1.0,15.0,10.0,3.0,1651072639016952.0,2
1367,0.0,1.0,-1.0,-6.0,4.0,0.0,-1.0,-1.0,1651072639016952.0,2
1368,-1.0,1.0,1.0,5.0,1.0,-1.0,0.0,-1.0,1651072639018879.0,2
1369,-1.0,-1.0,0.0,-3.0,1.0,1.0,-1.0,0.0,1651072639018879.0,2
1370,-1.0,0.0,-3.0,-7.0,-1.0,-9.0,-4.0,-2.0,1651072639040060.0,2
1371,0.0,-3.0,-6.0,-3.0,-1.0,-3.0,-2.0,-1.0,1651072639040060.0,2
1372,2.0,3.0,3.0,1.0,-1.0,3.0,0.0,1.0,1651072639040936.0,2
1373,3.0,-2.0,2.0,-2.0,-1.0,2.0,0.0,1.0,1651072639040936.0,2
1374,-2.0,0.0,-2.0,3.0,2.0,-2.0,-3.0,-3.0,1651072639052973.0,2
1375,0.0,-1.0,-2.0,-3.0,-11.0,-8.0,-1.0,0.0,1651072639052973.0,2
1376,0.0,-2.0,1.0,5.0,0.0,-2.0,0.0,0.0,1651072639061951.0,2
1377,-1.0,0.0,-2.0,2.0,9.0,10.0,2.0,1.0,1651072639061951.0,2
1378,-2.0,-2.0,1.0,7.0,0.0,-6.0,-2.0,-1.0,1651072639077078.0,2
1379,-1.0,-2.0,-2.0,3.0,0.0,-2.0,0.0,-2.0,1651072639077078.0,2
1380,1.0,2.0,4.0,1.0,0.0,-1.0,0.0,0.0,1651072639079033.0,2
1381,-1.0,-2.0,-5.0,-16.0,-7.0,-3.0,-1.0,0.0,1651072639079033.0,2
1382,-1.0,-2.0,3.0,3.0,-5.0,5.0,4.0,0.0,1651072639100121.0,2
1383,0.0,-1.0,1.0,4.0,1.0,-2.0,-2.0,0.0,1651072639100121.0,2
1384,-1.0,-3.0,-9.0,-10.0,0.0,-9.0,1.0,-2.0,1651072639101122.0,2
1385,1.0,0.0,8.0,14.0,2.0,12.0,-1.0,-1.0,1651072639101122.0,2
1386,-1.0,-3.0,-12.0,-8.0,3.0,-6.0,-1.0,-2.0,1651072639113735.0,2
1387,-1.0,-2.0,6.0,12.0,-5.0,-5.0,0.0,-1.0,1651072639113735.0,2
1388,-1.0,1.0,1.0,-1.0,3.0,7.0,0.0,-1.0,1651072639122251.0,2
1389,-1.0,0.0,-4.0,-12.0,2.0,0.0,1.0,1.0,1651072639122251.0,2
1390,0.0,1.0,3.0,-2.0,-5.0,-5.0,-4.0,-2.0,1651072639136740.0,2
1391,-1.0,-3.0,-4.0,-5.0,-2.0,-2.0,-1.0,-2.0,1651072639136740.0,2
1392,-1.0,0.0,2.0,5.0,1.0,-4.0,-3.0,-2.0,1651072639138679.0,2
1393,2.0,2.0,-4.0,-8.0,0.0,6.0,4.0,1.0,1651072639138679.0,2
1394,-1.0,-2.0,-2.0,12.0,10.0,6.0,3.0,2.0,1651072639160144.0,2
1395,-6.0,-8.0,-2.0,0.0,-6.0,-5.0,-4.0,-2.0,1651072639160144.0,2
1396,-1.0,-1.0,-1.0,2.0,-1.0,-7.0,-4.0,-1.0,1651072639161144.0,2
1397,1.0,1.0,0.0,-4.0,-7.0,-7.0,0.0,-2.0,1651072639161144.0,2
1398,1.0,2.0,-2.0,-5.0,-6.0,-1.0,0.0,1.0,1651072639173744.0,2
1399,2.0,1.0,0.0,1.0,9.0,14.0,3.0,1.0,1651072639173744.0,2
1400,-1.0,-2.0,-8.0,-1.0,-3.0,-2.0,1.0,-1.0,1651072639182735.0,2
1401,-1.0,-4.0,5.0,2.0,-3.0,-15.0,-5.0,-3.0,1651072639182735.0,2
1402,1.0,1.0,0.0,-2.0,-2.0,6.0,-4.0,-1.0,1651072639197323.0,2
1403,1.0,1.0,4.0,1.0,1.0,-2.0,2.0,1.0,1651072639197323.0,2
1404,-1.0,0.0,-2.0,-4.0,2.0,5.0,-2.0,-1.0,1651072639198280.0,2
1405,-3.0,-1.0,5.0,18.0,0.0,-4.0,-2.0,-2.0,1651072639198280.0,0
1406,-2.0,-3.0,-1.0,2.0,-6.0,-10.0,-2.0,-2.0,1651072639227693.0,0
1407,-2.0,-1.0,2.0,1.0,1.0,-2.0,0.0,1.0,1651072639227693.0,0
1408,0.0,0.0,-10.0,-13.0,2.0,6.0,2.0,0.0,1651072639228674.0,0
1409,1.0,0.0,-1.0,-6.0,2.0,8.0,1.0,0.0,1651072639228674.0,0
1410,-1.0,2.0,6.0,4.0,-3.0,-9.0,-2.0,-2.0,1651072639233660.0,0
1411,-1.0,-2.0,-3.0,-5.0,0.0,4.0,0.0,-1.0,1651072639233660.0,0
1412,1.0,2.0,5.0,8.0,6.0,1.0,0.0,0.0,1651072639242637.0,0
1413,-2.0,0.0,3.0,-2.0,0.0,-7.0,-6.0,-1.0,1651072639242637.0,0
1414,1.0,0.0,-3.0,0.0,0.0,9.0,5.0,-1.0,1651072639257372.0,0
1415,1.0,0.0,-6.0,-10.0,-10.0,-10.0,-3.0,0.0,1651072639257372.0,0
1416,0.0,-2.0,4.0,10.0,-11.0,-4.0,0.0,-1.0,1651072639258303.0,0
1417,0.0,3.0,7.0,4.0,3.0,3.0,0.0,-2.0,1651072639258303.0,0
1418,-1.0,2.0,1.0,2.0,15.0,1.0,-1.0,-1.0,1651072639280098.0,0
1419,0.0,0.0,-1.0,-5.0,-4.0,0.0,-1.0,1.0,1651072639280098.0,0
1420,-1.0,-1.0,2.0,1.0,-4.0,2.0,0.0,-2.0,1651072639281112.0,0
1421,1.0,-1.0,-7.0,-4.0,3.0,0.0,-1.0,0.0,1651072639281112.0,0
1422,-2.0,-4.0,2.0,-4.0,-7.0,-7.0,-4.0,-1.0,1651072639302108.0,0
1423,-1.0,-2.0,-2.0,3.0,6.0,10.0,2.0,-1.0,1651072639302108.0,0
1424,1.0,-1.0,2.0,1.0,1.0,3.0,0.0,2.0,1651072639304036.0,0
1425,-2.0,0.0,2.0,-2.0,-9.0,-3.0,0.0,-2.0,1651072639304036.0,0
1426,1.0,-1.0,-1.0,-3.0,-2.0,-4.0,-2.0,0.0,1651072639317001.0,0
1427,1.0,-2.0,1.0,11.0,-3.0,-2.0,0.0,-2.0,1651072639317001.0,0
1428,-1.0,0.0,-2.0,-5.0,-8.0,-3.0,-2.0,-1.0,1651072639318996.0,0
1429,-2.0,-1.0,-2.0,1.0,1.0,-6.0,3.0,1.0,1651072639318996.0,0
1430,-1.0,0.0,2.0,3.0,3.0,6.0,1.0,1.0,1651072639340007.0,0
1431,0.0,1.0,-1.0,1.0,1.0,3.0,-2.0,-2.0,1651072639340007.0,0
1432,0.0,0.0,1.0,0.0,-4.0,-3.0,-1.0,-1.0,1651072639340941.0,0
1433,-1.0,-1.0,-4.0,-5.0,-6.0,-10.0,-4.0,-1.0,1651072639340941.0,0
1434,-2.0,-2.0,0.0,-1.0,-7.0,0.0,2.0,0.0,1651072639362514.0,0
1435,0.0,-1.0,-3.0,-8.0,3.0,1.0,-1.0,0.0,1651072639362514.0,0
1436,1.0,2.0,4.0,4.0,-3.0,-2.0,0.0,1.0,1651072639363500.0,0
1437,0.0,0.0,-3.0,-5.0,2.0,2.0,0.0,-1.0,1651072639363500.0,0
1438,0.0,0.0,-3.0,8.0,0.0,-8.0,-3.0,-1.0,1651072639377529.0,0
1439,-1.0,1.0,-4.0,-6.0,-6.0,0.0,0.0,-2.0,1651072639377529.0,0
1440,-1.0,4.0,9.0,10.0,10.0,8.0,3.0,1.0,1651072639378460.0,0
1441,0.0,-7.0,-11.0,-7.0,-2.0,0.0,-1.0,-2.0,1651072639378460.0,0
1442,-2.0,1.0,1.0,-9.0,-3.0,0.0,-3.0,-1.0,1651072639399700.0,0
1443,-1.0,-2.0,-1.0,1.0,-5.0,-7.0,-2.0,-1.0,1651072639399700.0,0
1444,1.0,1.0,0.0,-3.0,-6.0,-2.0,-1.0,-2.0,1651072639401644.0,0
1445,-1.0,1.0,-2.0,0.0,-3.0,4.0,2.0,1.0,1651072639401644.0,0
1446,0.0,-2.0,-4.0,3.0,5.0,-4.0,1.0,-2.0,1651072639421793.0,0
1447,-1.0,1.0,4.0,0.0,-2.0,-6.0,-2.0,-1.0,1651072639421793.0,0
1448,0.0,-2.0,-1.0,2.0,15.0,11.0,3.0,1.0,1651072639423722.0,0
1449,-1.0,2.0,4.0,0.0,6.0,15.0,0.0,-1.0,1651072639423722.0,0
1450,0.0,-1.0,-3.0,-2.0,-1.0,7.0,6.0,2.0,1651072639437347.0,0
1451,1.0,-2.0,1.0,-1.0,-11.0,-9.0,-1.0,0.0,1651072639437347.0,0
1452,0.0,-3.0,-8.0,-12.0,-5.0,-8.0,0.0,-3.0,1651072639438278.0,0
1453,-2.0,-3.0,1.0,7.0,0.0,-7.0,-3.0,-2.0,1651072639438278.0,0
1454,0.0,4.0,3.0,-5.0,-10.0,-4.0,-3.0,-1.0,1651072639460084.0,0
1455,-1.0,-6.0,-11.0,-1.0,6.0,5.0,1.0,0.0,1651072639460084.0,0
1456,-2.0,1.0,7.0,4.0,-6.0,-9.0,-1.0,-1.0,1651072639461662.0,0
1457,-2.0,2.0,-7.0,-17.0,8.0,12.0,4.0,2.0,1651072639461662.0,0
1458,-1.0,-3.0,-4.0,7.0,-2.0,-5.0,-3.0,-3.0,1651072639482403.0,0
1459,0.0,2.0,2.0,2.0,4.0,1.0,-1.0,-1.0,1651072639482403.0,0
1460,-1.0,-2.0,-3.0,-3.0,-2.0,4.0,-1.0,-1.0,1651072639483357.0,0
1461,0.0,-1.0,3.0,8.0,1.0,0.0,0.0,0.0,1651072639483357.0,0
1462,0.0,0.0,-4.0,-9.0,-7.0,-1.0,-3.0,-2.0,1651072639496798.0,0
1463,0.0,1.0,2.0,-1.0,0.0,-11.0,-2.0,-1.0,1651072639496798.0,0
1464,0.0,-1.0,7.0,5.0,-1.0,-1.0,-1.0,0.0,1651072639503794.0,0
1465,2.0,-1.0,1.0,-5.0,1.0,6.0,4.0,1.0,1651072639503794.0,0
1466,-1.0,-2.0,4.0,13.0,6.0,4.0,-2.0,0.0,1651072639520146.0,0
1467,-2.0,1.0,-1.0,-7.0,-4.0,-5.0,-2.0,-2.0,1651072639520146.0,0
1468,0.0,-1.0,-3.0,-3.0,-8.0,-9.0,-2.0,-1.0,1651072639521146.0,0
1469,-1.0,0.0,2.0,3.0,-5.0,2.0,0.0,0.0,1651072639521146.0,0
1470,-1.0,0.0,-2.0,-6.0,11.0,-3.0,-4.0,-3.0,1651072639542409.0,0
1471,0.0,-2.0,0.0,1.0,-2.0,5.0,2.0,-1.0,1651072639542409.0,0
1472,-1.0,-3.0,-7.0,5.0,6.0,2.0,0.0,2.0,1651072639543378.0,0
1473,3.0,3.0,0.0,6.0,-7.0,-3.0,0.0,1.0,1651072639543378.0,0
1474,-4.0,-1.0,-10.0,-22.0,-5.0,1.0,-1.0,-3.0,1651072639556443.0,0
1475,-4.0,-3.0,2.0,6.0,-6.0,-4.0,-4.0,0.0,1651072639556443.0,0
1476,0.0,-3.0,-2.0,-11.0,-9.0,-9.0,-2.0,-5.0,1651072639563742.0,0
1477,1.0,0.0,-2.0,-14.0,8.0,6.0,3.0,1.0,1651072639563742.0,0
1478,-2.0,-3.0,4.0,10.0,-2.0,-1.0,-1.0,-1.0,1651072639580034.0,0
1479,-1.0,-3.0,5.0,26.0,5.0,-9.0,0.0,2.0,1651072639580034.0,0
1480,-5.0,4.0,-7.0,0.0,-11.0,9.0,-3.0,-4.0,1651072639580949.0,0
1481,1.0,-7.0,0.0,-8.0,5.0,-2.0,-2.0,-1.0,1651072639580949.0,0
1482,2.0,2.0,-3.0,-9.0,-2.0,2.0,2.0,2.0,1651072639602305.0,0
1483,0.0,21.0,-1.0,-14.0,-4.0,0.0,-3.0,-3.0,1651072639602305.0,0
1484,-5.0,-33.0,2.0,15.0,10.0,0.0,3.0,4.0,1651072639603275.0,0
1485,-6.0,-10.0,-3.0,4.0,2.0,0.0,-2.0,-3.0,1651072639603275.0,0
1486,16.0,11.0,4.0,2.0,0.0,-2.0,1.0,6.0,1651072639616427.0,0
1487,-7.0,-1.0,-9.0,-9.0,-4.0,3.0,-2.0,-6.0,1651072639616427.0,0
1488,0.0,22.0,6.0,-10.0,-9.0,-5.0,-3.0,-2.0,1651072639623409.0,0
1489,-2.0,-25.0,1.0,0.0,-2.0,-2.0,1.0,1.0,1651072639623409.0,0
1490,4.0,38.0,10.0,34.0,11.0,4.0,3.0,2.0,1651072639639730.0,0
1491,2.0,-7.0,-14.0,1.0,1.0,-3.0,-5.0,-3.0,1651072639639730.0,0
1492,1.0,6.0,3.0,-4.0,2.0,2.0,1.0,3.0,1651072639641658.0,0
1493,-10.0,-36.0,-10.0,-8.0,-7.0,-7.0,-4.0,-6.0,1651072639641658.0,0
1494,-16.0,8.0,10.0,-17.0,-7.0,-2.0,-4.0,-9.0,1651072639662363.0,0
1495,26.0,32.0,9.0,14.0,6.0,10.0,9.0,14.0,1651072639662363.0,0
1496,-13.0,-32.0,-6.0,5.0,4.0,-4.0,-3.0,-5.0,1651072639663360.0,0
1497,-26.0,-26.0,-4.0,12.0,4.0,2.0,-5.0,-8.0,1651072639663360.0,3
1498,6.0,47.0,36.0,11.0,6.0,5.0,4.0,4.0,1651072639676603.0,3
1499,19.0,-75.0,-10.0,-18.0,-7.0,2.0,5.0,8.0,1651072639676603.0,3
1500,-5.0,87.0,-4.0,-14.0,-1.0,-3.0,-7.0,-11.0,1651072639683584.0,3
1501,36.0,93.0,10.0,17.0,-6.0,-2.0,8.0,16.0,1651072639683584.0,3
1502,-57.0,-54.0,-25.0,-7.0,-4.0,-12.0,-18.0,-27.0,1651072639699731.0,3
1503,42.0,93.0,14.0,28.0,18.0,13.0,11.0,20.0,1651072639699731.0,3
1504,-9.0,-45.0,0.0,-17.0,-14.0,-5.0,-1.0,1.0,1651072639701659.0,3
1505,9.0,127.0,-9.0,-18.0,2.0,-1.0,-1.0,-5.0,1651072639701659.0,3
1506,-8.0,-83.0,6.0,-2.0,-13.0,-7.0,-6.0,-8.0,1651072639722433.0,3
1507,-8.0,-20.0,3.0,-14.0,4.0,10.0,11.0,7.0,1651072639722433.0,3
1508,8.0,-67.0,-2.0,-8.0,-29.0,-18.0,-5.0,4.0,1651072639723356.0,3
1509,9.0,-22.0,-7.0,15.0,19.0,9.0,0.0,7.0,1651072639723356.0,3
1510,8.0,-28.0,18.0,33.0,34.0,17.0,12.0,7.0,1651072639736310.0,3
1511,-24.0,-45.0,-47.0,-11.0,-10.0,-11.0,-15.0,-17.0,1651072639736310.0,3
1512,-21.0,19.0,20.0,2.0,-12.0,0.0,-2.0,-6.0,1651072639745421.0,3
1513,30.0,-8.0,2.0,-14.0,4.0,-5.0,1.0,4.0,1651072639745421.0,3
1514,-12.0,-21.0,-2.0,11.0,5.0,7.0,0.0,2.0,1651072639759535.0,3
1515,-32.0,-21.0,-9.0,-29.0,-8.0,-24.0,-20.0,-24.0,1651072639759535.0,3
1516,9.0,-51.0,-15.0,-7.0,35.0,26.0,13.0,10.0,1651072639761490.0,3
1517,-10.0,-4.0,41.0,16.0,-20.0,-11.0,-6.0,-6.0,1651072639761490.0,3
1518,13.0,60.0,-83.0,-25.0,-3.0,0.0,1.0,4.0,1651072639782500.0,3
1519,10.0,23.0,2.0,2.0,-22.0,-9.0,-2.0,2.0,1651072639782500.0,3
1520,17.0,22.0,34.0,13.0,19.0,13.0,4.0,7.0,1651072639783487.0,3
1521,-27.0,-98.0,-31.0,4.0,-1.0,-7.0,-1.0,-8.0,1651072639783487.0,3
1522,2.0,-1.0,29.0,0.0,-7.0,-2.0,5.0,5.0,1651072639796132.0,3
1523,-11.0,27.0,18.0,-6.0,-17.0,-9.0,-5.0,-2.0,1651072639796132.0,3
1524,2.0,32.0,-15.0,-5.0,5.0,0.0,4.0,1.0,1651072639805175.0,3
1525,-37.0,15.0,-2.0,4.0,20.0,10.0,-12.0,-21.0,1651072639805175.0,3
1526,52.0,66.0,7.0,-18.0,-17.0,-3.0,3.0,18.0,1651072639820098.0,3
1527,3.0,37.0,7.0,15.0,30.0,11.0,6.0,11.0,1651072639820098.0,3
1528,-10.0,-62.0,-34.0,14.0,-7.0,-11.0,-5.0,-4.0,1651072639821097.0,3
1529,-2.0,-10.0,-2.0,-3.0,3.0,8.0,2.0,-1.0,1651072639821097.0,3
1530,-7.0,-15.0,7.0,1.0,-15.0,-1.0,1.0,-4.0,1651072639841696.0,3
1531,1.0,17.0,-4.0,-2.0,27.0,14.0,4.0,-3.0,1651072639841696.0,3
1532,-1.0,3.0,15.0,1.0,-14.0,-5.0,-4.0,-9.0,1651072639843693.0,3
1533,-22.0,-18.0,7.0,-2.0,-23.0,-15.0,-3.0,-7.0,1651072639843693.0,3
1534,23.0,-12.0,-11.0,0.0,34.0,13.0,-3.0,2.0,1651072639855766.0,3
1535,6.0,-5.0,7.0,2.0,-12.0,1.0,4.0,0.0,1651072639855766.0,3
1536,8.0,73.0,13.0,0.0,-2.0,-6.0,-5.0,1.0,1651072639865188.0,3
1537,8.0,-13.0,-3.0,-7.0,3.0,-1.0,0.0,4.0,1651072639865188.0,3
1538,-25.0,16.0,24.0,4.0,-5.0,2.0,-2.0,-6.0,1651072639879364.0,3
1539,-13.0,-89.0,9.0,4.0,-6.0,0.0,2.0,-4.0,1651072639879364.0,3
1540,15.0,51.0,-33.0,-12.0,13.0,3.0,-7.0,-5.0,1651072639881329.0,3
1541,18.0,56.0,40.0,3.0,-33.0,-12.0,1.0,3.0,1651072639881329.0,3
1542,-22.0,-29.0,0.0,2.0,15.0,1.0,-4.0,-2.0,1651072639902302.0,3
1543,-3.0,-47.0,-65.0,-17.0,-25.0,-11.0,-3.0,-6.0,1651072639902302.0,3
1544,21.0,20.0,18.0,-6.0,-18.0,-1.0,-2.0,9.0,1651072639903300.0,3
1545,2.0,-27.0,7.0,15.0,33.0,5.0,4.0,7.0,1651072639903300.0,3
1546,16.0,64.0,24.0,2.0,-18.0,7.0,7.0,3.0,1651072639915447.0,3
1547,10.0,6.0,-13.0,1.0,27.0,21.0,6.0,0.0,1651072639915447.0,3
1548,-12.0,-15.0,31.0,12.0,7.0,-4.0,2.0,-3.0,1651072639924512.0,3
1549,10.0,-53.0,-40.0,-12.0,0.0,8.0,4.0,6.0,1651072639924512.0,3
1550,-12.0,-45.0,6.0,0.0,-19.0,-20.0,-10.0,-7.0,1651072639947489.0,3
1551,23.0,103.0,35.0,6.0,-5.0,-8.0,1.0,7.0,1651072639947489.0,3
1552,-23.0,-86.0,-53.0,-13.0,-14.0,-4.0,-2.0,-5.0,1651072639948418.0,3
1553,-1.0,49.0,13.0,8.0,-9.0,-7.0,-3.0,-6.0,1651072639948418.0,3
1554,5.0,-26.0,-5.0,-11.0,-3.0,2.0,2.0,4.0,1651072639962418.0,3
1555,-7.0,49.0,-6.0,8.0,12.0,3.0,-4.0,-7.0,1651072639962418.0,3
1556,15.0,-13.0,7.0,9.0,14.0,9.0,9.0,27.0,1651072639963393.0,3
1557,-14.0,-12.0,9.0,-6.0,-7.0,-4.0,-6.0,-12.0,1651072639963393.0,3
1558,2.0,-5.0,-22.0,-12.0,-12.0,-3.0,-1.0,0.0,1651072639975485.0,3
1559,-2.0,-5.0,23.0,6.0,3.0,2.0,2.0,-3.0,1651072639975485.0,3
1560,-10.0,-3.0,-11.0,-1.0,-17.0,-7.0,-1.0,-6.0,1651072639984849.0,3
1561,12.0,30.0,-16.0,-10.0,19.0,2.0,1.0,8.0,1651072639984849.0,3
1562,1.0,22.0,-2.0,-14.0,-42.0,-19.0,-4.0,-1.0,1651072639999579.0,3
1563,-22.0,-26.0,15.0,6.0,43.0,8.0,-11.0,-17.0,1651072639999579.0,3
1564,11.0,-25.0,20.0,17.0,17.0,4.0,5.0,3.0,1651072640001535.0,3
1565,16.0,41.0,2.0,-8.0,4.0,3.0,1.0,5.0,1651072640001535.0,3
1566,-13.0,-19.0,-20.0,-6.0,-3.0,-7.0,-6.0,-9.0,1651072640021760.0,3
1567,3.0,-4.0,53.0,2.0,-20.0,0.0,5.0,10.0,1651072640021760.0,3
1568,10.0,7.0,-45.0,-7.0,-17.0,-6.0,-2.0,-3.0,1651072640023688.0,3
1569,-18.0,-21.0,8.0,-1.0,-13.0,-2.0,0.0,-3.0,1651072640023688.0,3
1570,20.0,-5.0,7.0,-2.0,8.0,1.0,4.0,7.0,1651072640035795.0,3
1571,-20.0,-80.0,-34.0,-8.0,-21.0,-9.0,-7.0,-7.0,1651072640035795.0,3
1572,-8.0,38.0,33.0,15.0,34.0,13.0,-1.0,-9.0,1651072640044632.0,3
1573,16.0,-31.0,-32.0,-3.0,-7.0,3.0,5.0,13.0,1651072640044632.0,3
1574,-19.0,0.0,-22.0,-5.0,-11.0,-6.0,-6.0,-12.0,1651072640059658.0,3
1575,18.0,0.0,33.0,-2.0,-3.0,4.0,11.0,17.0,1651072640059658.0,3
1576,-6.0,33.0,6.0,5.0,27.0,-2.0,-5.0,-5.0,1651072640061586.0,3
1577,-5.0,3.0,6.0,5.0,-3.0,7.0,1.0,-5.0,1651072640061586.0,3
1578,9.0,6.0,-8.0,1.0,13.0,-1.0,3.0,8.0,1651072640081681.0,3
1579,-25.0,-63.0,3.0,0.0,-7.0,-6.0,-5.0,-11.0,1651072640081681.0,3
1580,20.0,68.0,8.0,-16.0,-18.0,-8.0,0.0,3.0,1651072640083678.0,3
1581,0.0,-12.0,-8.0,8.0,24.0,12.0,2.0,3.0,1651072640083678.0,3
1582,2.0,-4.0,-1.0,3.0,5.0,-1.0,0.0,-5.0,1651072640095323.0,3
1583,-9.0,11.0,-3.0,-5.0,-13.0,0.0,-4.0,-2.0,1651072640095323.0,3
1584,-6.0,-3.0,-28.0,-3.0,-20.0,0.0,2.0,0.0,1651072640105307.0,3
1585,-16.0,-6.0,22.0,-5.0,-11.0,-12.0,-9.0,-9.0,1651072640105307.0,3
1586,13.0,-9.0,-13.0,9.0,33.0,6.0,0.0,2.0,1651072640120114.0,3
1587,-3.0,-17.0,26.0,3.0,-4.0,-1.0,-2.0,-2.0,1651072640120114.0,3
1588,-1.0,34.0,8.0,-6.0,-10.0,0.0,0.0,1.0,1651072640121090.0,3
1589,-5.0,-35.0,-19.0,-10.0,-26.0,-12.0,-1.0,1.0,1651072640121090.0,3
1590,1.0,30.0,13.0,0.0,4.0,4.0,-4.0,-10.0,1651072640142379.0,3
1591,7.0,40.0,-16.0,4.0,8.0,-5.0,-3.0,2.0,1651072640142379.0,3
1592,-6.0,-36.0,-4.0,-3.0,-3.0,1.0,0.0,-4.0,1651072640143310.0,3
1593,-3.0,-20.0,3.0,3.0,7.0,5.0,1.0,2.0,1651072640143310.0,3
1594,3.0,-9.0,1.0,4.0,-1.0,0.0,3.0,7.0,1651072640156322.0,3
1595,9.0,11.0,-3.0,-1.0,0.0,0.0,1.0,0.0,1651072640156322.0,3
1596,-6.0,-23.0,-5.0,0.0,3.0,-2.0,-1.0,-5.0,1651072640165312.0,3
1597,1.0,1.0,-9.0,-7.0,-19.0,-16.0,-5.0,-6.0,1651072640165312.0,3
1598,-3.0,0.0,17.0,8.0,9.0,-4.0,1.0,9.0,1651072640179430.0,3
1599,-1.0,29.0,-16.0,-5.0,1.0,16.0,2.0,1.0,1651072640179430.0,3
1600,-23.0,-56.0,-2.0,3.0,8.0,2.0,-2.0,-4.0,1651072640181358.0,3
1601,22.0,59.0,37.0,0.0,-2.0,0.0,2.0,4.0,1651072640181358.0,3
1602,-5.0,-13.0,-17.0,-9.0,-7.0,-4.0,-2.0,-5.0,1651072640202395.0,3
1603,-3.0,4.0,-18.0,2.0,0.0,-9.0,-7.0,-5.0,1651072640202395.0,3
1604,-1.0,-19.0,12.0,4.0,1.0,2.0,1.0,3.0,1651072640203313.0,3
1605,-6.0,-24.0,8.0,-2.0,-17.0,-6.0,-1.0,0.0,1651072640203313.0,3
1606,-6.0,19.0,11.0,17.0,45.0,19.0,5.0,-3.0,1651072640224880.0,3
1607,17.0,9.0,-6.0,-1.0,1.0,0.0,3.0,7.0,1651072640224880.0,3
1608,5.0,12.0,13.0,-4.0,3.0,-1.0,-2.0,0.0,1651072640225816.0,3
1609,-13.0,-20.0,-6.0,1.0,-8.0,0.0,-1.0,-5.0,1651072640225816.0,3
1610,4.0,26.0,-16.0,-13.0,-29.0,-17.0,-6.0,2.0,1651072640239817.0,3
1611,0.0,-26.0,-6.0,-2.0,3.0,4.0,2.0,0.0,1651072640239817.0,3
1612,-8.0,-20.0,3.0,4.0,1.0,4.0,-1.0,-5.0,1651072640240774.0,3
1613,10.0,11.0,-5.0,9.0,29.0,12.0,2.0,5.0,1651072640240774.0,3
1614,-10.0,-12.0,1.0,-4.0,-12.0,-5.0,-3.0,-4.0,1651072640262408.0,3
1615,-17.0,-5.0,6.0,-1.0,-6.0,-7.0,-5.0,-6.0,1651072640262408.0,3
1616,20.0,26.0,2.0,-2.0,-10.0,-7.0,0.0,5.0,1651072640263380.0,3
1617,-3.0,-38.0,-24.0,-3.0,-9.0,-5.0,-3.0,-1.0,1651072640263380.0,3
1618,-4.0,-8.0,26.0,0.0,12.0,7.0,0.0,-2.0,1651072640284513.0,3
1619,3.0,30.0,-3.0,0.0,3.0,4.0,2.0,3.0,1651072640284513.0,3
1620,-8.0,-18.0,-1.0,-4.0,4.0,0.0,0.0,-3.0,1651072640286537.0,3
1621,2.0,3.0,-16.0,-6.0,1.0,-4.0,1.0,8.0,1651072640286537.0,3
1622,-6.0,1.0,1.0,0.0,-21.0,-12.0,-3.0,-2.0,1651072640299546.0,3
1623,10.0,3.0,-17.0,-6.0,-7.0,10.0,6.0,4.0,1651072640299546.0,3
1624,2.0,-24.0,-41.0,0.0,35.0,5.0,1.0,4.0,1651072640301470.0,3
1625,10.0,31.0,23.0,5.0,-3.0,-1.0,-3.0,-2.0,1651072640301470.0,3
1626,-5.0,-32.0,-14.0,-2.0,-10.0,1.0,-2.0,-1.0,1651072640322254.0,3
1627,0.0,-8.0,10.0,3.0,5.0,-3.0,2.0,0.0,1651072640322254.0,3
1628,6.0,6.0,6.0,-2.0,-9.0,-2.0,-2.0,-3.0,1651072640323225.0,3
1629,14.0,36.0,-11.0,-4.0,-7.0,-7.0,-2.0,-1.0,1651072640323225.0,3
1630,-11.0,-38.0,6.0,9.0,27.0,22.0,6.0,5.0,1651072640344168.0,3
1631,2.0,20.0,2.0,-2.0,-8.0,-7.0,-3.0,-2.0,1651072640344168.0,3
1632,13.0,24.0,8.0,1.0,-4.0,0.0,3.0,2.0,1651072640346163.0,3
1633,-17.0,-22.0,-23.0,-10.0,1.0,-10.0,-7.0,-5.0,1651072640346163.0,3
1634,11.0,9.0,5.0,16.0,32.0,9.0,0.0,-1.0,1651072640360125.0,3
1635,1.0,-26.0,-6.0,-7.0,-5.0,1.0,2.0,3.0,1651072640360125.0,3
1636,-19.0,-24.0,4.0,-3.0,-5.0,-2.0,-4.0,-6.0,1651072640361137.0,3
1637,7.0,9.0,9.0,-3.0,-9.0,0.0,5.0,-5.0,1651072640361137.0,3
1638,7.0,19.0,2.0,0.0,-5.0,-5.0,-1.0,11.0,1651072640382454.0,3
1639,-3.0,-7.0,19.0,3.0,9.0,3.0,0.0,-2.0,1651072640382454.0,3
1640,-5.0,-24.0,-8.0,-2.0,-20.0,-8.0,-1.0,-1.0,1651072640383461.0,3
1641,-5.0,45.0,-4.0,4.0,21.0,8.0,2.0,1.0,1651072640383461.0,3
1642,17.0,17.0,-24.0,-14.0,-30.0,-8.0,-5.0,-7.0,1651072640404448.0,3
1643,-15.0,-31.0,-6.0,12.0,22.0,3.0,-2.0,-3.0,1651072640404448.0,3
1644,-6.0,-9.0,8.0,5.0,-1.0,0.0,0.0,-1.0,1651072640406473.0,3
1645,1.0,-39.0,0.0,1.0,2.0,0.0,1.0,4.0,1651072640406473.0,3
1646,-5.0,3.0,-5.0,-11.0,-10.0,-1.0,-2.0,-4.0,1651072640418601.0,3
1647,-5.0,26.0,18.0,-7.0,-24.0,-14.0,-6.0,-4.0,1651072640418601.0,3
1648,1.0,-45.0,-22.0,-1.0,12.0,3.0,-1.0,1.0,1651072640425582.0,3
1649,4.0,32.0,6.0,0.0,3.0,6.0,2.0,-1.0,1651072640425582.0,3
1650,-10.0,-14.0,-9.0,4.0,4.0,-10.0,-3.0,-3.0,1651072640441654.0,3
1651,8.0,-2.0,12.0,2.0,13.0,5.0,-1.0,-2.0,1651072640441654.0,3
1652,-8.0,41.0,-4.0,-5.0,-8.0,-3.0,0.0,0.0,1651072640443588.0,3
1653,8.0,2.0,17.0,-3.0,-11.0,-3.0,-2.0,1.0,1651072640443588.0,3
1654,-3.0,-27.0,4.0,1.0,-7.0,4.0,3.0,1.0,1651072640464263.0,3
1655,-5.0,-14.0,-16.0,0.0,1.0,-4.0,-4.0,-9.0,1651072640464263.0,3
1656,-6.0,3.0,5.0,-5.0,-5.0,0.0,1.0,3.0,1651072640466260.0,3
1657,-5.0,-12.0,-6.0,0.0,6.0,0.0,-3.0,-2.0,1651072640466260.0,3
1658,4.0,36.0,33.0,1.0,2.0,1.0,3.0,2.0,1651072640479292.0,3
1659,0.0,-26.0,-29.0,-5.0,-6.0,0.0,-1.0,0.0,1651072640479292.0,3
1660,22.0,41.0,18.0,8.0,-4.0,5.0,4.0,2.0,1651072640486207.0,3
1661,-5.0,-2.0,3.0,3.0,6.0,4.0,1.0,4.0,1651072640486207.0,3
1662,-11.0,-8.0,-2.0,-4.0,-2.0,-1.0,-3.0,-10.0,1651072640502325.0,3
1663,-2.0,1.0,-2.0,-3.0,-18.0,-12.0,-2.0,2.0,1651072640502325.0,3
1664,-5.0,-11.0,-15.0,-2.0,14.0,7.0,-1.0,-3.0,1651072640508377.0,3
1665,5.0,-30.0,6.0,3.0,-1.0,3.0,4.0,5.0,1651072640508377.0,3
1666,7.0,18.0,-1.0,1.0,4.0,5.0,4.0,5.0,1651072640524828.0,3
1667,-5.0,4.0,-16.0,-6.0,-8.0,-6.0,-4.0,-3.0,1651072640524828.0,3
1668,-4.0,-10.0,9.0,7.0,8.0,2.0,2.0,-1.0,1651072640525789.0,3
1669,0.0,0.0,-4.0,-4.0,-7.0,-6.0,-7.0,-5.0,1651072640525789.0,3
1670,-5.0,6.0,6.0,-9.0,-19.0,-9.0,-4.0,-4.0,1651072640538791.0,3
1671,21.0,15.0,-13.0,-5.0,-1.0,1.0,4.0,8.0,1651072640538791.0,3
1672,0.0,10.0,6.0,7.0,11.0,-3.0,-3.0,1.0,1651072640545775.0,3
1673,-12.0,-17.0,1.0,3.0,5.0,6.0,-1.0,-4.0,1651072640545775.0,3
1674,-11.0,-25.0,-31.0,-8.0,-5.0,-3.0,-1.0,-2.0,1651072640562398.0,3
1675,-1.0,-4.0,21.0,2.0,-1.0,2.0,0.0,1.0,1651072640562398.0,3
1676,6.0,13.0,6.0,-2.0,-13.0,-7.0,-3.0,-4.0,1651072640563849.0,3
1677,-15.0,-4.0,-9.0,-3.0,-24.0,-11.0,-3.0,-4.0,1651072640563849.0,3
1678,7.0,-28.0,-4.0,-3.0,8.0,5.0,-3.0,0.0,1651072640585414.0,3
1679,10.0,44.0,2.0,9.0,27.0,10.0,5.0,8.0,1651072640585414.0,3
1680,-5.0,-13.0,-10.0,-6.0,-7.0,-1.0,-5.0,-3.0,1651072640586414.0,3
1681,7.0,19.0,18.0,-2.0,-7.0,-4.0,1.0,1.0,1651072640586414.0,3
1682,-6.0,-6.0,-10.0,-6.0,-12.0,-11.0,-5.0,-1.0,1651072640598628.0,3
1683,-13.0,-10.0,37.0,6.0,3.0,1.0,-1.0,-5.0,1651072640598628.0,3
1684,-5.0,8.0,-14.0,-8.0,-3.0,-3.0,-1.0,-3.0,1651072640605616.0,3
1685,5.0,0.0,-2.0,-1.0,-10.0,-3.0,-2.0,1.0,1651072640605616.0,3
1686,-4.0,0.0,10.0,5.0,-8.0,4.0,2.0,-5.0,1651072640621734.0,3
1687,17.0,44.0,-10.0,-4.0,10.0,5.0,2.0,11.0,1651072640621734.0,3
1688,-3.0,-34.0,8.0,4.0,7.0,6.0,3.0,-2.0,1651072640623736.0,3
1689,6.0,11.0,4.0,6.0,9.0,2.0,0.0,1.0,1651072640623736.0,3
1690,-1.0,2.0,-33.0,-4.0,-1.0,-4.0,-1.0,-4.0,1651072640644342.0,3
1691,-11.0,-26.0,-1.0,2.0,-7.0,-3.0,-1.0,-3.0,1651072640644342.0,3
1692,7.0,36.0,5.0,-3.0,-11.0,-3.0,-1.0,0.0,1651072640646339.0,3
1693,-4.0,-6.0,10.0,2.0,11.0,4.0,-1.0,-2.0,1651072640646339.0,3
1694,-2.0,6.0,8.0,-3.0,-4.0,-2.0,0.0,1.0,1651072640659397.0,3
1695,-6.0,-20.0,-13.0,-5.0,-15.0,-8.0,-3.0,-5.0,1651072640659397.0,3
1696,4.0,2.0,-9.0,0.0,15.0,3.0,-3.0,2.0,1651072640665456.0,3
1697,2.0,19.0,7.0,-2.0,1.0,3.0,1.0,-1.0,1651072640665456.0,3
1698,-1.0,-25.0,1.0,3.0,-4.0,-10.0,2.0,3.0,1651072640682423.0,3
1699,-9.0,-4.0,-4.0,1.0,7.0,13.0,1.0,-3.0,1651072640682423.0,3
1700,2.0,2.0,4.0,-1.0,-5.0,-1.0,1.0,0.0,1651072640683420.0,3
1701,-3.0,8.0,-3.0,-2.0,0.0,2.0,0.0,-1.0,1651072640683420.0,3
1702,3.0,-9.0,-4.0,0.0,3.0,0.0,-1.0,2.0,1651072640704531.0,3
1703,5.0,1.0,5.0,3.0,0.0,-5.0,-2.0,0.0,1651072640704531.0,3
1704,-4.0,3.0,1.0,-4.0,-4.0,-3.0,-1.0,-3.0,1651072640706526.0,3
1705,-5.0,-13.0,-17.0,-3.0,-2.0,-9.0,-3.0,-4.0,1651072640706526.0,3
1706,5.0,2.0,2.0,-4.0,-2.0,4.0,1.0,2.0,1651072640718561.0,3
1707,-6.0,-5.0,-9.0,0.0,-1.0,-1.0,1.0,-5.0,1651072640718561.0,3
1708,5.0,12.0,-1.0,1.0,6.0,7.0,1.0,3.0,1651072640725541.0,3
1709,-2.0,-13.0,-10.0,-5.0,-8.0,-12.0,0.0,1.0,1651072640725541.0,3
1710,0.0,1.0,3.0,6.0,16.0,14.0,0.0,-1.0,1651072640742587.0,3
1711,-2.0,-1.0,8.0,0.0,-13.0,-11.0,-1.0,-2.0,1651072640742587.0,3
1712,-4.0,6.0,-3.0,1.0,6.0,-2.0,-2.0,-4.0,1651072640743598.0,3
1713,0.0,-4.0,9.0,7.0,9.0,13.0,5.0,1.0,1651072640743598.0,3
1714,0.0,-2.0,-9.0,-3.0,-7.0,-3.0,2.0,1.0,1651072640764643.0,3
1715,-1.0,1.0,-3.0,-2.0,0.0,1.0,-1.0,-3.0,1651072640764643.0,3
1716,2.0,3.0,0.0,-2.0,-10.0,-9.0,-3.0,-2.0,1651072640766663.0,3
1717,-3.0,-11.0,-10.0,-3.0,0.0,-3.0,-6.0,-3.0,1651072640766663.0,3
1718,-6.0,10.0,12.0,2.0,8.0,9.0,4.0,-1.0,1651072640778671.0,3
1719,14.0,1.0,0.0,-4.0,-10.0,2.0,2.0,8.0,1651072640778671.0,3
1720,-6.0,-4.0,-6.0,2.0,0.0,4.0,0.0,-1.0,1651072640787355.0,3
1721,1.0,-1.0,-9.0,3.0,13.0,4.0,1.0,2.0,1651072640787355.0,3
1722,0.0,7.0,1.0,-1.0,-3.0,-2.0,-4.0,-3.0,1651072640802535.0,3
1723,-10.0,-10.0,-6.0,-7.0,-18.0,-22.0,-8.0,-7.0,1651072640802535.0,3
1724,6.0,8.0,12.0,2.0,3.0,11.0,6.0,5.0,1651072640803537.0,3
1725,1.0,-11.0,-6.0,1.0,5.0,9.0,5.0,4.0,1651072640803537.0,3
1726,3.0,9.0,2.0,3.0,5.0,-3.0,0.0,1.0,1651072640824516.0,3
1727,-5.0,-4.0,8.0,3.0,9.0,4.0,-3.0,-4.0,1651072640824516.0,3
1728,-6.0,-4.0,-1.0,-2.0,-16.0,-11.0,-8.0,-6.0,1651072640826444.0,3
1729,1.0,2.0,0.0,-7.0,-13.0,-4.0,1.0,-1.0,1651072640826444.0,3
1730,4.0,3.0,-8.0,-1.0,-2.0,-4.0,4.0,2.0,1651072640838478.0,3
1731,0.0,-2.0,-19.0,-1.0,18.0,19.0,2.0,2.0,1651072640838478.0,3
1732,5.0,6.0,9.0,1.0,5.0,-2.0,-1.0,0.0,1651072640847388.0,3
1733,-3.0,-3.0,-1.0,3.0,1.0,1.0,-2.0,-3.0,1651072640847388.0,3
1734,-4.0,-4.0,6.0,1.0,-17.0,-10.0,-4.0,-2.0,1651072640862389.0,3
1735,1.0,1.0,-9.0,-3.0,6.0,-1.0,-1.0,-1.0,1651072640862389.0,3
1736,-2.0,-4.0,1.0,-2.0,0.0,0.0,0.0,0.0,1651072640863367.0,3
1737,-1.0,-1.0,-2.0,-1.0,1.0,-2.0,-4.0,-3.0,1651072640863367.0,3
1738,0.0,5.0,8.0,5.0,-1.0,-1.0,-3.0,2.0,1651072640885081.0,3
1739,5.0,3.0,0.0,-4.0,-3.0,-2.0,-1.0,0.0,1651072640885081.0,3
1740,-3.0,1.0,7.0,-2.0,-3.0,-6.0,-1.0,-3.0,1651072640886300.0,3
1741,1.0,-7.0,-3.0,2.0,5.0,10.0,3.0,2.0,1651072640886300.0,3
1742,0.0,-1.0,-5.0,-4.0,-1.0,-1.0,-3.0,-1.0,1651072640898267.0,3
1743,0.0,8.0,17.0,11.0,5.0,2.0,0.0,0.0,1651072640898267.0,3
1744,1.0,-9.0,-17.0,-10.0,-6.0,-9.0,-2.0,2.0,1651072640907251.0,3
1745,6.0,4.0,-6.0,0.0,3.0,4.0,-5.0,-3.0,1651072640907251.0,3
1746,2.0,1.0,11.0,10.0,5.0,1.0,0.0,-1.0,1651072640922231.0,3
1747,-7.0,-1.0,-2.0,-8.0,-15.0,-8.0,-3.0,-2.0,1651072640922231.0,3
1748,11.0,2.0,-9.0,-1.0,-1.0,-5.0,-1.0,1.0,1651072640924231.0,3
1749,-27.0,-16.0,26.0,12.0,10.0,0.0,1.0,-1.0,1651072640924231.0,3
1750,12.0,19.0,-7.0,-2.0,12.0,23.0,3.0,0.0,1651072640944368.0,3
1751,1.0,-2.0,-2.0,-5.0,-3.0,-11.0,-2.0,-1.0,1651072640944368.0,3
1752,-2.0,-1.0,-1.0,1.0,-5.0,0.0,0.0,-2.0,1651072640946296.0,3
1753,2.0,5.0,3.0,0.0,-1.0,-6.0,1.0,2.0,1651072640946296.0,3
1754,80.0,20.0,8.0,2.0,-3.0,-1.0,-1.0,-2.0,1651072640958708.0,3
1755,-80.0,-41.0,-20.0,-9.0,3.0,7.0,5.0,3.0,1651072640958708.0,3
1756,-1.0,3.0,-5.0,5.0,-3.0,-4.0,-3.0,-2.0,1651072640967263.0,3
1757,-4.0,0.0,-4.0,-3.0,-4.0,-3.0,-6.0,-3.0,1651072640967263.0,3
1758,-11.0,-9.0,5.0,-6.0,-5.0,-9.0,-3.0,-5.0,1651072640982355.0,3
1759,36.0,13.0,-3.0,-22.0,-4.0,-2.0,-1.0,1.0,1651072640982355.0,3
1760,-3.0,-2.0,28.0,31.0,-2.0,-1.0,1.0,2.0,1651072640983285.0,3
1761,1.0,3.0,1.0,4.0,-3.0,5.0,0.0,-1.0,1651072640983285.0,3
1762,8.0,-6.0,-4.0,1.0,8.0,1.0,-1.0,0.0,1651072641004957.0,3
1763,-8.0,3.0,22.0,9.0,5.0,0.0,-1.0,0.0,1651072641004957.0,3
1764,-35.0,-24.0,-46.0,-23.0,2.0,6.0,2.0,-2.0,1651072641005992.0,3
1765,11.0,1.0,-4.0,0.0,-11.0,-7.0,-1.0,-1.0,1651072641005992.0,3
1766,7.0,-5.0,1.0,-15.0,-7.0,-8.0,-1.0,2.0,1651072641017924.0,3
1767,-18.0,-12.0,-14.0,-14.0,10.0,-4.0,-2.0,-1.0,1651072641017924.0,3
1768,40.0,37.0,49.0,31.0,-3.0,5.0,3.0,3.0,1651072641026898.0,3
1769,-15.0,-9.0,-12.0,-15.0,-17.0,-16.0,-7.0,-2.0,1651072641026898.0,3
1770,-19.0,-19.0,-23.0,-1.0,-6.0,8.0,0.0,3.0,1651072641042392.0,3
1771,8.0,7.0,-3.0,1.0,6.0,-1.0,-3.0,-6.0,1651072641042392.0,3
1772,7.0,-1.0,3.0,-9.0,6.0,9.0,3.0,0.0,1651072641043879.0,3
1773,5.0,0.0,-18.0,-27.0,4.0,2.0,0.0,1.0,1651072641043879.0,3
1774,-21.0,-3.0,0.0,27.0,-6.0,-8.0,-1.0,1.0,1651072641064838.0,3
1775,19.0,1.0,11.0,3.0,-2.0,2.0,-2.0,-2.0,1651072641064838.0,3
1776,-7.0,-2.0,-6.0,6.0,4.0,-4.0,-3.0,-1.0,1651072641065952.0,3
1777,6.0,8.0,11.0,18.0,10.0,10.0,4.0,0.0,1651072641065952.0,3
1778,-21.0,-14.0,-21.0,-34.0,-11.0,-10.0,-4.0,-1.0,1651072641078786.0,3
1779,6.0,2.0,-13.0,5.0,-5.0,0.0,-3.0,-2.0,1651072641078786.0,3
1780,1.0,-3.0,-5.0,-13.0,-3.0,-1.0,1.0,2.0,1651072641086763.0,3
1781,-5.0,9.0,15.0,1.0,-8.0,-6.0,-3.0,-3.0,1651072641086763.0,3
1782,-9.0,-5.0,2.0,26.0,14.0,-3.0,-5.0,-1.0,1651072641101921.0,3
1783,5.0,0.0,7.0,8.0,1.0,4.0,7.0,2.0,1651072641101921.0,3
1784,-6.0,-4.0,-14.0,-21.0,-4.0,9.0,-2.0,-2.0,1651072641107934.0,3
1785,8.0,9.0,19.0,1.0,2.0,-4.0,-1.0,0.0,1651072641107934.0,3
1786,-8.0,7.0,21.0,9.0,4.0,-1.0,3.0,0.0,1651072641124890.0,3
1787,14.0,8.0,-2.0,7.0,-3.0,-1.0,0.0,0.0,1651072641124890.0,3
1788,-9.0,-13.0,-18.0,5.0,9.0,-3.0,-1.0,-3.0,1651072641125932.0,3
1789,-6.0,-24.0,-19.0,-20.0,-8.0,2.0,-2.0,-4.0,1651072641125932.0,3
1790,-4.0,4.0,-3.0,20.0,-6.0,-9.0,-5.0,-3.0,1651072641138851.0,3
1791,4.0,5.0,5.0,-9.0,1.0,7.0,2.0,1.0,1651072641138851.0,3
1792,2.0,6.0,15.0,4.0,-7.0,-6.0,-3.0,-1.0,1651072641147760.0,3
1793,0.0,-1.0,0.0,-9.0,4.0,-5.0,-2.0,1.0,1651072641147760.0,3
1794,-4.0,2.0,1.0,-15.0,2.0,14.0,2.0,0.0,1651072641160875.0,3
1795,1.0,-2.0,4.0,17.0,1.0,-4.0,0.0,0.0,1651072641160875.0,3
1796,-2.0,-6.0,-14.0,-22.0,1.0,1.0,-2.0,-1.0,1651072641169851.0,3
1797,0.0,-1.0,-2.0,15.0,-1.0,-4.0,0.0,-2.0,1651072641169851.0,3
1798,-4.0,3.0,8.0,-19.0,-15.0,-8.0,-3.0,-2.0,1651072641185009.0,3
1799,3.0,4.0,-3.0,4.0,-6.0,-15.0,-7.0,-2.0,1651072641185009.0,3
1800,-1.0,0.0,-4.0,8.0,3.0,16.0,8.0,0.0,1651072641185939.0,3
1801,0.0,-3.0,-12.0,-13.0,4.0,6.0,0.0,0.0,1651072641185939.0,3
1802,-6.0,1.0,2.0,1.0,-5.0,-6.0,-2.0,-2.0,1651072641206944.0,3
1803,0.0,3.0,10.0,1.0,-3.0,-3.0,-1.0,-1.0,1651072641206944.0,3
1804,-1.0,-5.0,-27.0,-24.0,-5.0,-10.0,-4.0,-2.0,1651072641208902.0,3
1805,2.0,1.0,0.0,16.0,1.0,0.0,1.0,2.0,1651072641208902.0,3
1806,-1.0,-1.0,3.0,-4.0,12.0,11.0,2.0,1.0,1651072641230590.0,3
1807,-1.0,0.0,3.0,0.0,-12.0,-1.0,-1.0,-1.0,1651072641230590.0,3
1808,-2.0,-8.0,-14.0,-24.0,0.0,-5.0,-1.0,-3.0,1651072641231590.0,3
1809,-1.0,7.0,3.0,16.0,-1.0,3.0,2.0,2.0,1651072641231590.0,3
1810,-1.0,3.0,17.0,-7.0,1.0,-3.0,-2.0,-1.0,1651072641245055.0,3
1811,-4.0,-15.0,-23.0,3.0,-5.0,-11.0,-1.0,-1.0,1651072641245055.0,3
1812,3.0,9.0,24.0,24.0,0.0,8.0,2.0,2.0,1651072641246328.0,3
1813,2.0,1.0,-2.0,-12.0,5.0,13.0,1.0,-1.0,1651072641246328.0,3
1814,-4.0,-9.0,-13.0,-6.0,-2.0,-8.0,0.0,1.0,1651072641267383.0,3
1815,1.0,11.0,15.0,4.0,5.0,14.0,2.0,-1.0,1651072641267383.0,3
1816,0.0,-5.0,-8.0,-6.0,3.0,-10.0,-2.0,2.0,1651072641268340.0,3
1817,0.0,2.0,2.0,7.0,-10.0,-2.0,-1.0,-1.0,1651072641268340.0,3
1818,1.0,5.0,-10.0,6.0,-3.0,5.0,5.0,4.0,1651072641282484.0,3
1819,-2.0,-5.0,-2.0,-8.0,5.0,-1.0,0.0,1.0,1651072641282484.0,3
1820,1.0,2.0,5.0,-3.0,0.0,-3.0,-3.0,-1.0,1651072641283488.0,3
1821,-1.0,0.0,14.0,13.0,1.0,-2.0,-1.0,-1.0,1651072641283488.0,3
1822,-2.0,3.0,10.0,-1.0,-3.0,-4.0,-2.0,-1.0,1651072641304518.0,3
1823,2.0,-9.0,-47.0,-3.0,3.0,9.0,0.0,-1.0,1651072641304518.0,3
1824,2.0,7.0,18.0,15.0,6.0,4.0,2.0,1.0,1651072641306473.0,3
1825,1.0,0.0,9.0,-4.0,0.0,-5.0,-1.0,0.0,1651072641306473.0,3
1826,-3.0,-8.0,-20.0,-24.0,-4.0,0.0,0.0,0.0,1651072641327620.0,3
1827,-2.0,-2.0,13.0,5.0,-5.0,-4.0,-2.0,-3.0,1651072641327620.0,3
1828,-4.0,1.0,15.0,21.0,-3.0,-9.0,-2.0,-3.0,1651072641328586.0,3
1829,-2.0,-4.0,-17.0,-14.0,-4.0,4.0,0.0,-1.0,1651072641328586.0,3
1830,4.0,10.0,18.0,11.0,9.0,8.0,2.0,2.0,1651072641341562.0,3
1831,-3.0,-8.0,10.0,-3.0,1.0,-2.0,-2.0,0.0,1651072641341562.0,3
1832,1.0,-2.0,-7.0,0.0,-1.0,4.0,0.0,1.0,1651072641348533.0,3
1833,1.0,2.0,8.0,7.0,0.0,-6.0,-1.0,1.0,1651072641348533.0,3
1834,-1.0,-5.0,-5.0,-7.0,-1.0,0.0,-1.0,0.0,1651072641365024.0,3
1835,2.0,9.0,0.0,-7.0,1.0,5.0,0.0,1.0,1651072641365024.0,3
1836,-1.0,-4.0,7.0,3.0,-8.0,-4.0,-2.0,-2.0,1651072641366296.0,3
1837,-2.0,-6.0,-13.0,2.0,2.0,-2.0,-1.0,-2.0,1651072641366296.0,3
1838,-1.0,1.0,3.0,-2.0,-4.0,-1.0,-2.0,0.0,1651072641387562.0,3
1839,-3.0,-4.0,-15.0,-6.0,0.0,-5.0,1.0,-1.0,1651072641387562.0,3
1840,-1.0,-5.0,-18.0,6.0,-1.0,7.0,0.0,-4.0,1651072641388511.0,3
1841,4.0,10.0,4.0,-8.0,2.0,-5.0,-1.0,1.0,1651072641388511.0,3
1842,-6.0,-17.0,0.0,13.0,1.0,3.0,-1.0,-6.0,1651072641401541.0,3
1843,3.0,4.0,5.0,11.0,-2.0,1.0,3.0,2.0,1651072641401541.0,3
1844,1.0,4.0,8.0,-27.0,-2.0,-2.0,-1.0,-1.0,1651072641408527.0,3
1845,-4.0,0.0,0.0,25.0,1.0,3.0,0.0,-3.0,1651072641408527.0,3
1846,-2.0,-12.0,-17.0,-26.0,-4.0,-7.0,-1.0,-1.0,1651072641424673.0,3
1847,1.0,5.0,14.0,20.0,-1.0,-2.0,-1.0,-1.0,1651072641424673.0,3
1848,-1.0,2.0,8.0,-5.0,-4.0,-4.0,-1.0,-1.0,1651072641426630.0,3
1849,-1.0,-7.0,-11.0,-6.0,2.0,-6.0,-2.0,-1.0,1651072641426630.0,3
1850,1.0,5.0,-7.0,-10.0,6.0,15.0,3.0,-1.0,1651072641447045.0,3
1851,-1.0,-4.0,-7.0,-11.0,-5.0,0.0,1.0,0.0,1651072641447045.0,3
1852,0.0,-1.0,7.0,18.0,4.0,-1.0,-1.0,0.0,1651072641448973.0,3
1853,0.0,0.0,-7.0,-12.0,-12.0,-9.0,-1.0,-1.0,1651072641448973.0,3
1854,-1.0,0.0,-4.0,0.0,0.0,-14.0,-2.0,-1.0,1651072641461696.0,3
1855,1.0,4.0,0.0,-7.0,2.0,21.0,1.0,0.0,1651072641461696.0,3
1856,-2.0,2.0,9.0,-4.0,3.0,-1.0,2.0,1.0,1651072641468761.0,3
1857,1.0,-7.0,-10.0,-6.0,1.0,1.0,0.0,0.0,1651072641468761.0,3
1858,8.0,10.0,11.0,24.0,-2.0,-12.0,-6.0,0.0,1651072641484794.0,3
1859,-10.0,-5.0,-5.0,-23.0,-4.0,2.0,1.0,-3.0,1651072641484794.0,3
1860,3.0,5.0,14.0,16.0,-1.0,1.0,-2.0,1.0,1651072641486753.0,3
1861,-2.0,-1.0,6.0,0.0,0.0,0.0,-1.0,-1.0,1651072641486753.0,3
1862,3.0,5.0,2.0,3.0,7.0,8.0,1.0,0.0,1651072641506876.0,3
1863,4.0,5.0,13.0,1.0,-2.0,-9.0,-3.0,0.0,1651072641506876.0,3
1864,-2.0,-13.0,-35.0,-14.0,-9.0,-6.0,-1.0,-2.0,1651072641508812.0,3
1865,0.0,2.0,-7.0,-5.0,6.0,9.0,4.0,0.0,1651072641508812.0,3
1866,-4.0,-4.0,4.0,3.0,3.0,2.0,-2.0,1.0,1651072641521857.0,3
1867,0.0,1.0,3.0,1.0,0.0,-3.0,-1.0,0.0,1651072641521857.0,3
1868,-4.0,-2.0,-3.0,-14.0,0.0,0.0,0.0,0.0,1651072641535360.0,3
1869,2.0,-3.0,-9.0,3.0,-1.0,-3.0,-2.0,1.0,1651072641535360.0,3
1870,-2.0,-1.0,15.0,23.0,-1.0,-7.0,0.0,-2.0,1651072641544185.0,3
1871,1.0,5.0,9.0,0.0,-3.0,-5.0,-1.0,0.0,1651072641544185.0,3
1872,0.0,-9.0,-16.0,-8.0,0.0,11.0,-1.0,0.0,1651072641546182.0,3
1873,0.0,5.0,7.0,-6.0,2.0,1.0,1.0,0.0,1651072641546182.0,3
1874,-5.0,-11.0,-32.0,-16.0,-1.0,3.0,3.0,-1.0,1651072641567346.0,3
1875,2.0,6.0,29.0,16.0,-4.0,-20.0,-7.0,-2.0,1651072641567346.0,3
1876,0.0,1.0,-5.0,-5.0,2.0,10.0,7.0,0.0,1651072641569276.0,3
1877,-2.0,-3.0,2.0,-9.0,-1.0,0.0,-1.0,-1.0,1651072641569276.0,3
1878,-1.0,1.0,-1.0,1.0,-2.0,3.0,0.0,-1.0,1651072641581935.0,3
1879,0.0,-2.0,10.0,12.0,0.0,-6.0,-2.0,1.0,1651072641581935.0,3
1880,0.0,3.0,10.0,9.0,1.0,-5.0,-2.0,-1.0,1651072641587920.0,3
1881,-1.0,-4.0,0.0,-11.0,-4.0,-3.0,-2.0,0.0,1651072641587920.0,3
1882,-1.0,-2.0,2.0,1.0,-2.0,-4.0,-1.0,0.0,1651072641612461.0,3
1883,-1.0,-2.0,3.0,-15.0,3.0,13.0,3.0,-1.0,1651072641612461.0,3
1884,1.0,5.0,4.0,4.0,3.0,-4.0,-1.0,0.0,1651072641613461.0,3
1885,-2.0,2.0,1.0,12.0,-2.0,2.0,2.0,0.0,1651072641613461.0,3
1886,0.0,-9.0,-5.0,-7.0,1.0,-6.0,-4.0,1.0,1651072641627490.0,3
1887,-3.0,-5.0,-18.0,-4.0,-3.0,0.0,0.0,-1.0,1651072641627490.0,3
1888,0.0,5.0,1.0,-6.0,-8.0,-10.0,-2.0,-1.0,1651072641628430.0,3
1889,-3.0,-5.0,-6.0,-7.0,0.0,4.0,-3.0,-2.0,1651072641628430.0,3
1890,-3.0,5.0,-4.0,-3.0,-2.0,8.0,5.0,1.0,1651072641641569.0,3
1891,3.0,1.0,-4.0,-2.0,13.0,20.0,7.0,2.0,1651072641641569.0,3
1892,-1.0,-8.0,-9.0,2.0,-3.0,-6.0,-1.0,-1.0,1651072641648550.0,3
1893,0.0,2.0,3.0,2.0,-3.0,-9.0,-4.0,0.0,1651072641648550.0,3
1894,-2.0,2.0,15.0,-4.0,-9.0,-7.0,-3.0,-1.0,1651072641664719.0,3
1895,-2.0,-7.0,-19.0,-5.0,-11.0,-4.0,-3.0,-2.0,1651072641664719.0,3
1896,0.0,3.0,12.0,20.0,7.0,-7.0,-3.0,-1.0,1651072641666719.0,3
1897,0.0,-1.0,-1.0,0.0,7.0,8.0,2.0,0.0,1651072641666719.0,3
1898,1.0,2.0,-1.0,-11.0,4.0,8.0,4.0,0.0,1651072641695054.0,3
1899,-2.0,0.0,2.0,14.0,-4.0,-7.0,-3.0,-2.0,1651072641695054.0,3
1900,0.0,0.0,-3.0,-6.0,-6.0,-1.0,-1.0,0.0,1651072641696307.0,3
1901,-1.0,-1.0,5.0,0.0,1.0,-2.0,-2.0,-1.0,1651072641696307.0,3
1902,1.0,2.0,0.0,-3.0,-1.0,-1.0,-2.0,0.0,1651072641700325.0,3
1903,1.0,1.0,0.0,-2.0,-1.0,-16.0,-2.0,0.0,1651072641700325.0,3
