EMG_s0,EMG_s1,EMG_s2,EMG_s3,EMG_s4,EMG_s5,EMG_s6,EMG_s7,timestamp
0.0,8.0,-2.0,-8.0,-5.0,-3.0,-1.0,0.0,1651087139450244.0
1.0,-12.0,4.0,10.0,12.0,0.0,0.0,0.0,1651087139450244.0
-2.0,9.0,-4.0,-1.0,1.0,2.0,3.0,0.0,1651087139451068.0
-3.0,-14.0,3.0,0.0,-4.0,-2.0,-1.0,-2.0,1651087139451068.0
1.0,1.0,-4.0,1.0,10.0,8.0,0.0,1.0,1651087139464416.0
0.0,1.0,1.0,-5.0,-11.0,-7.0,-2.0,0.0,1651087139464416.0
0.0,0.0,0.0,-3.0,-1.0,-2.0,0.0,-2.0,1651087139480167.0
0.0,6.0,5.0,3.0,4.0,0.0,1.0,0.0,1651087139480167.0
-1.0,-2.0,-2.0,0.0,0.0,0.0,1.0,-2.0,1651087139487148.0
-1.0,1.0,-2.0,-7.0,-9.0,-2.0,-1.0,-3.0,1651087139487148.0
0.0,-6.0,1.0,3.0,-3.0,1.0,0.0,0.0,1651087139488113.0
-2.0,4.0,-3.0,-2.0,1.0,0.0,-1.0,-2.0,1651087139488113.0
0.0,-5.0,-2.0,0.0,2.0,1.0,1.0,0.0,1651087139510127.0
0.0,5.0,-4.0,-5.0,-4.0,-4.0,0.0,-1.0,1651087139510127.0
-1.0,-4.0,7.0,6.0,5.0,1.0,0.0,-2.0,1651087139511124.0
0.0,-4.0,6.0,1.0,1.0,1.0,0.0,-2.0,1651087139511124.0
-2.0,-1.0,-11.0,-1.0,2.0,1.0,2.0,-1.0,1651087139533225.0
0.0,6.0,1.0,-4.0,-9.0,-2.0,-2.0,0.0,1651087139533225.0
0.0,-5.0,-7.0,-4.0,-3.0,-1.0,0.0,0.0,1651087139533225.0
0.0,2.0,-1.0,1.0,1.0,1.0,-1.0,1.0,1651087139533225.0
-1.0,-4.0,6.0,-2.0,-1.0,-2.0,-1.0,-3.0,1651087139548537.0
1.0,-3.0,-11.0,-3.0,-6.0,-6.0,-2.0,0.0,1651087139548537.0
-1.0,-4.0,-7.0,-9.0,-4.0,3.0,0.0,0.0,1651087139548537.0
-2.0,-1.0,0.0,8.0,13.0,5.0,3.0,0.0,1651087139548537.0
0.0,3.0,3.0,-3.0,-2.0,-3.0,0.0,0.0,1651087139571157.0
-2.0,-10.0,-7.0,-2.0,-1.0,3.0,0.0,0.0,1651087139571157.0
-1.0,-2.0,-4.0,-1.0,-4.0,-4.0,-2.0,-2.0,1651087139572157.0
-1.0,5.0,-1.0,-2.0,-3.0,0.0,-1.0,0.0,1651087139572157.0
-1.0,-2.0,-3.0,2.0,-2.0,-1.0,-2.0,0.0,1651087139592332.0
-2.0,2.0,7.0,2.0,-1.0,-1.0,-1.0,-1.0,1651087139592332.0
2.0,2.0,-1.0,3.0,-3.0,-4.0,-1.0,0.0,1651087139593201.0
0.0,-3.0,-7.0,-17.0,-4.0,4.0,-1.0,-1.0,1651087139593201.0
-2.0,2.0,13.0,7.0,7.0,1.0,1.0,-1.0,1651087139608668.0
-3.0,-2.0,12.0,3.0,4.0,0.0,1.0,1.0,1651087139608668.0
-1.0,3.0,2.0,-1.0,-4.0,-3.0,-4.0,-1.0,1651087139609072.0
1.0,4.0,4.0,0.0,-6.0,-3.0,-3.0,1.0,1651087139609072.0
-1.0,-5.0,-16.0,-5.0,-1.0,0.0,1.0,1.0,1651087139629841.0
1.0,2.0,1.0,-4.0,-10.0,-4.0,-5.0,-1.0,1651087139629841.0
-2.0,7.0,0.0,-3.0,0.0,-3.0,-1.0,-3.0,1651087139630794.0
-2.0,-10.0,3.0,10.0,12.0,6.0,2.0,0.0,1651087139630794.0
1.0,5.0,-1.0,-5.0,-8.0,-1.0,0.0,-2.0,1651087139653043.0
-3.0,-11.0,1.0,7.0,8.0,4.0,-1.0,-1.0,1651087139653043.0
-1.0,-2.0,-2.0,-2.0,-1.0,-1.0,-1.0,0.0,1651087139653103.0
1.0,4.0,3.0,-3.0,-5.0,-5.0,0.0,-1.0,1651087139653103.0
-1.0,0.0,-2.0,1.0,3.0,3.0,-1.0,0.0,1651087139668065.0
0.0,-9.0,-5.0,-3.0,-5.0,-3.0,-1.0,-1.0,1651087139668065.0
-2.0,-4.0,0.0,-2.0,-1.0,1.0,1.0,-2.0,1651087139668065.0
0.0,4.0,2.0,-1.0,-1.0,-2.0,-2.0,0.0,1651087139668065.0
1.0,-7.0,-11.0,2.0,1.0,1.0,0.0,0.0,1651087139690229.0
1.0,10.0,2.0,6.0,8.0,2.0,0.0,1.0,1651087139690229.0
-1.0,-2.0,3.0,2.0,0.0,1.0,-1.0,-1.0,1651087139691258.0
0.0,-1.0,0.0,1.0,-4.0,-2.0,0.0,-1.0,1651087139691258.0
-1.0,-6.0,-6.0,-8.0,-10.0,-4.0,-2.0,-3.0,1651087139712381.0
0.0,-2.0,-3.0,-1.0,1.0,1.0,1.0,-1.0,1651087139712381.0
0.0,3.0,0.0,-1.0,1.0,-2.0,-1.0,1.0,1651087139713233.0
-3.0,-2.0,-8.0,-3.0,-5.0,-2.0,-1.0,0.0,1651087139713233.0
-2.0,2.0,11.0,-1.0,-2.0,-1.0,-2.0,1.0,1651087139727096.0
0.0,5.0,-2.0,0.0,-1.0,0.0,1.0,-1.0,1651087139727096.0
-2.0,-9.0,-4.0,4.0,6.0,3.0,2.0,0.0,1651087139728109.0
1.0,7.0,7.0,-7.0,1.0,-1.0,-1.0,-1.0,1651087139728109.0
1.0,-1.0,-1.0,0.0,0.0,-2.0,-1.0,0.0,1651087139750186.0
-1.0,-7.0,4.0,-10.0,-13.0,0.0,-1.0,0.0,1651087139750186.0
0.0,9.0,1.0,11.0,9.0,1.0,1.0,1.0,1651087139751045.0
0.0,-2.0,-4.0,2.0,0.0,1.0,-2.0,-1.0,1651087139751045.0
-1.0,-2.0,4.0,-1.0,-1.0,-4.0,0.0,0.0,1651087139773065.0
-2.0,-3.0,-8.0,1.0,4.0,3.0,-1.0,-1.0,1651087139773065.0
1.0,-6.0,8.0,-2.0,0.0,2.0,-1.0,0.0,1651087139773065.0
0.0,5.0,-2.0,1.0,1.0,-3.0,2.0,-2.0,1651087139773065.0
-1.0,-4.0,3.0,1.0,-1.0,-1.0,-1.0,-2.0,1651087139789299.0
-1.0,11.0,10.0,-6.0,-6.0,-4.0,-2.0,-1.0,1651087139789299.0
0.0,-2.0,-14.0,-1.0,2.0,-1.0,2.0,0.0,1651087139790298.0
-2.0,-4.0,1.0,3.0,-2.0,-1.0,-2.0,0.0,1651087139790298.0
0.0,-3.0,-7.0,-6.0,-5.0,-2.0,0.0,0.0,1651087139809229.0
-1.0,1.0,4.0,6.0,2.0,5.0,0.0,0.0,1651087139809229.0
0.0,10.0,8.0,-2.0,0.0,0.0,-1.0,0.0,1651087139818060.0
-1.0,-6.0,1.0,-3.0,1.0,-1.0,-1.0,0.0,1651087139818060.0
-1.0,4.0,3.0,7.0,10.0,2.0,-2.0,1.0,1651087139833091.0
-1.0,0.0,0.0,-4.0,-3.0,-3.0,-2.0,0.0,1651087139833091.0
0.0,2.0,3.0,-4.0,-9.0,-2.0,0.0,-1.0,1651087139833091.0
1.0,-2.0,-3.0,-3.0,-11.0,-4.0,-5.0,-1.0,1651087139833091.0
0.0,-4.0,-1.0,-3.0,1.0,2.0,1.0,1.0,1651087139855363.0
1.0,10.0,0.0,0.0,5.0,1.0,-2.0,0.0,1651087139855363.0
-3.0,-6.0,-1.0,0.0,4.0,1.0,0.0,0.0,1651087139856240.0
2.0,-4.0,0.0,-2.0,-4.0,-2.0,-1.0,-1.0,1651087139856240.0
-3.0,2.0,-12.0,-3.0,-6.0,0.0,-2.0,0.0,1651087139869219.0
-1.0,-5.0,-4.0,-5.0,-7.0,-7.0,0.0,-1.0,1651087139869219.0
0.0,-3.0,9.0,4.0,9.0,6.0,1.0,-1.0,1651087139877347.0
-1.0,-2.0,-12.0,-5.0,-4.0,-3.0,-2.0,-2.0,1651087139877347.0
0.0,3.0,7.0,-1.0,0.0,-3.0,-1.0,-1.0,1651087139892341.0
1.0,-2.0,-2.0,0.0,6.0,4.0,3.0,0.0,1651087139892341.0
0.0,0.0,4.0,2.0,-8.0,-4.0,-3.0,-1.0,1651087139893199.0
0.0,2.0,-5.0,-3.0,0.0,1.0,1.0,2.0,1651087139893199.0
0.0,6.0,7.0,8.0,10.0,7.0,1.0,1.0,1651087139923109.0
1.0,3.0,-4.0,1.0,-1.0,-4.0,1.0,1.0,1651087139923109.0
-4.0,-17.0,-10.0,4.0,1.0,-2.0,0.0,-2.0,1651087139924108.0
0.0,0.0,2.0,-2.0,-1.0,1.0,-1.0,0.0,1651087139924108.0
1.0,-8.0,-5.0,-4.0,-3.0,-1.0,2.0,1.0,1651087139929126.0
0.0,6.0,2.0,-2.0,-3.0,0.0,0.0,1.0,1651087139929126.0
0.0,-1.0,-4.0,-1.0,1.0,-1.0,0.0,2.0,1651087139938154.0
0.0,-3.0,6.0,5.0,4.0,1.0,-1.0,0.0,1651087139938154.0
-1.0,3.0,-11.0,0.0,0.0,-1.0,-1.0,-3.0,1651087139953223.0
-1.0,-11.0,0.0,-2.0,0.0,2.0,-1.0,-1.0,1651087139953223.0
4.0,16.0,8.0,0.0,-1.0,-2.0,1.0,0.0,1651087139953223.0
-3.0,-9.0,-7.0,-2.0,-1.0,-2.0,-1.0,-1.0,1651087139953223.0
2.0,5.0,7.0,-2.0,-4.0,0.0,-1.0,0.0,1651087139984318.0
1.0,-6.0,-12.0,-6.0,-6.0,-2.0,-2.0,-1.0,1651087139984318.0
-3.0,-3.0,-4.0,2.0,5.0,-1.0,-1.0,-4.0,1651087139984318.0
1.0,3.0,3.0,3.0,0.0,1.0,-1.0,-1.0,1651087139984318.0
-1.0,-4.0,2.0,3.0,3.0,0.0,1.0,-1.0,1651087139989250.0
1.0,4.0,0.0,0.0,0.0,0.0,-1.0,0.0,1651087139989250.0
0.0,-4.0,-6.0,-7.0,-6.0,2.0,-1.0,2.0,1651087140005393.0
-1.0,5.0,5.0,-4.0,-6.0,-4.0,3.0,1.0,1651087140005393.0
0.0,-1.0,-5.0,7.0,3.0,6.0,2.0,0.0,1651087140012208.0
0.0,-6.0,2.0,1.0,6.0,2.0,-1.0,-1.0,1651087140012208.0
1.0,2.0,4.0,-4.0,-4.0,-3.0,-3.0,0.0,1651087140013207.0
-2.0,2.0,-10.0,3.0,3.0,-1.0,-2.0,-2.0,1651087140013207.0
-1.0,2.0,6.0,-4.0,-6.0,-6.0,-1.0,0.0,1651087140043168.0
-2.0,-1.0,0.0,0.0,-6.0,0.0,1.0,0.0,1651087140043168.0
2.0,3.0,5.0,3.0,4.0,1.0,1.0,1.0,1651087140044121.0
1.0,-8.0,7.0,-1.0,-2.0,-3.0,0.0,-1.0,1651087140044121.0
-1.0,9.0,-16.0,-2.0,5.0,1.0,-1.0,0.0,1651087140066657.0
0.0,-4.0,6.0,3.0,1.0,-2.0,-1.0,-1.0,1651087140066657.0
-3.0,-5.0,-3.0,0.0,4.0,4.0,0.0,-1.0,1651087140066657.0
1.0,5.0,-2.0,5.0,-2.0,2.0,2.0,1.0,1651087140066657.0
-2.0,-5.0,-3.0,-13.0,-12.0,-5.0,-2.0,0.0,1651087140072515.0
0.0,-3.0,2.0,11.0,11.0,0.0,0.0,-2.0,1651087140072515.0
0.0,1.0,-6.0,-3.0,-5.0,-3.0,-1.0,-1.0,1651087140073478.0
0.0,1.0,-1.0,-4.0,-5.0,-1.0,-1.0,-1.0,1651087140073478.0
-1.0,-10.0,2.0,-1.0,-3.0,-1.0,-1.0,0.0,1651087140095400.0
-2.0,2.0,-4.0,-3.0,0.0,-2.0,1.0,1.0,1651087140095400.0
-1.0,-4.0,-2.0,-4.0,-4.0,0.0,1.0,1.0,1651087140096232.0
0.0,2.0,-2.0,-1.0,0.0,3.0,-2.0,0.0,1651087140096232.0
0.0,-3.0,-1.0,-2.0,-7.0,-4.0,-2.0,-2.0,1651087140119110.0
-2.0,3.0,4.0,-3.0,1.0,1.0,-1.0,-2.0,1651087140119110.0
0.0,-1.0,-4.0,4.0,2.0,-2.0,-1.0,1.0,1651087140119110.0
-1.0,-2.0,8.0,1.0,-2.0,0.0,0.0,0.0,1651087140119110.0
-2.0,-4.0,-5.0,1.0,8.0,5.0,0.0,0.0,1651087140133075.0
-3.0,-7.0,2.0,4.0,3.0,-1.0,1.0,-2.0,1651087140133075.0
-1.0,-1.0,-7.0,-6.0,-7.0,0.0,0.0,-2.0,1651087140133075.0
-1.0,11.0,6.0,-3.0,-2.0,-2.0,-2.0,0.0,1651087140133075.0
0.0,-10.0,1.0,2.0,-3.0,-1.0,1.0,-1.0,1651087140155390.0
0.0,3.0,-9.0,-2.0,-1.0,-2.0,-2.0,-1.0,1651087140155390.0
0.0,-7.0,-2.0,3.0,13.0,6.0,1.0,-2.0,1651087140155390.0
0.0,3.0,0.0,-6.0,0.0,-2.0,0.0,-1.0,1651087140155390.0
0.0,0.0,6.0,2.0,-1.0,-1.0,-1.0,1.0,1651087140178245.0
1.0,-7.0,-4.0,1.0,6.0,3.0,2.0,0.0,1651087140178245.0
0.0,-1.0,-13.0,-4.0,-10.0,-6.0,-4.0,-2.0,1651087140179089.0
-1.0,3.0,9.0,11.0,10.0,1.0,1.0,0.0,1651087140179089.0
-1.0,1.0,4.0,1.0,-3.0,-2.0,0.0,-1.0,1651087140201844.0
-2.0,-1.0,-3.0,4.0,-1.0,0.0,-1.0,-1.0,1651087140201844.0
0.0,3.0,10.0,-2.0,-4.0,1.0,1.0,2.0,1651087140201844.0
0.0,0.0,-8.0,-1.0,5.0,-2.0,-1.0,-3.0,1651087140201844.0
1.0,-2.0,1.0,2.0,8.0,2.0,0.0,0.0,1651087140215955.0
-2.0,-1.0,4.0,-3.0,-12.0,-4.0,-1.0,0.0,1651087140215955.0
1.0,-7.0,-3.0,2.0,11.0,2.0,2.0,0.0,1651087140215955.0
1.0,3.0,-4.0,-4.0,-5.0,0.0,-2.0,0.0,1651087140215955.0
-2.0,1.0,10.0,-1.0,-3.0,-1.0,0.0,-2.0,1651087140239094.0
-3.0,-1.0,-5.0,-6.0,-8.0,-1.0,-2.0,-1.0,1651087140239094.0
0.0,-3.0,4.0,14.0,13.0,2.0,2.0,0.0,1651087140239094.0
-2.0,-1.0,-3.0,3.0,14.0,5.0,0.0,0.0,1651087140239094.0
0.0,-4.0,-11.0,-2.0,-11.0,-7.0,-4.0,-1.0,1651087140261373.0
-1.0,5.0,7.0,-18.0,-13.0,-4.0,-1.0,-3.0,1651087140261373.0
-2.0,0.0,4.0,13.0,-10.0,-8.0,-2.0,-3.0,1651087140261373.0
0.0,-8.0,-11.0,4.0,22.0,16.0,4.0,2.0,1651087140261373.0
-2.0,7.0,-2.0,18.0,32.0,11.0,3.0,-1.0,1651087140275271.0
1.0,-5.0,5.0,-3.0,-24.0,-15.0,-4.0,0.0,1651087140275271.0
-2.0,-2.0,-10.0,1.0,13.0,9.0,-1.0,-2.0,1651087140276123.0
0.0,-5.0,6.0,0.0,-3.0,0.0,2.0,1.0,1651087140276123.0
0.0,2.0,-22.0,-17.0,-15.0,-8.0,-2.0,0.0,1651087140298470.0
-1.0,-7.0,16.0,17.0,20.0,9.0,2.0,0.0,1651087140298470.0
0.0,-6.0,-7.0,-12.0,-14.0,-10.0,-3.0,-2.0,1651087140299105.0
-2.0,-8.0,4.0,1.0,-10.0,-4.0,-3.0,-3.0,1651087140299105.0
-1.0,12.0,12.0,-2.0,-6.0,0.0,0.0,-1.0,1651087140312468.0
-2.0,7.0,-15.0,-8.0,-7.0,-5.0,-3.0,-2.0,1651087140312468.0
1.0,9.0,17.0,-6.0,-8.0,-2.0,0.0,2.0,1651087140313300.0
0.0,-10.0,-7.0,-3.0,-4.0,-2.0,0.0,1.0,1651087140313300.0
2.0,3.0,2.0,-4.0,-4.0,0.0,0.0,-1.0,1651087140344375.0
0.0,3.0,-6.0,3.0,10.0,4.0,2.0,0.0,1651087140344375.0
0.0,1.0,4.0,-9.0,0.0,2.0,0.0,0.0,1651087140344375.0
-2.0,7.0,0.0,-5.0,-18.0,-7.0,-1.0,-1.0,1651087140344375.0
0.0,-10.0,-4.0,7.0,11.0,2.0,2.0,-1.0,1651087140359152.0
0.0,4.0,-1.0,-2.0,-2.0,-2.0,-1.0,-1.0,1651087140359152.0
0.0,-4.0,0.0,7.0,13.0,10.0,1.0,1.0,1651087140359152.0
-1.0,4.0,0.0,6.0,-2.0,-5.0,-2.0,-3.0,1651087140359152.0
2.0,-13.0,-2.0,-13.0,-5.0,5.0,3.0,3.0,1651087140373092.0
-5.0,5.0,-7.0,4.0,15.0,2.0,-5.0,-4.0,1651087140373092.0
3.0,10.0,5.0,-8.0,-11.0,0.0,6.0,4.0,1651087140373092.0
2.0,-9.0,1.0,1.0,-7.0,-5.0,-3.0,1.0,1651087140373092.0
2.0,1.0,2.0,-4.0,-1.0,-7.0,-2.0,0.0,1651087140395381.0
-1.0,-2.0,-6.0,-15.0,-2.0,10.0,5.0,0.0,1651087140395381.0
-4.0,-1.0,-9.0,-4.0,-16.0,-11.0,-4.0,-6.0,1651087140396222.0
-2.0,-3.0,-2.0,8.0,12.0,1.0,-1.0,-2.0,1651087140396222.0
-2.0,-2.0,3.0,0.0,-11.0,-4.0,-2.0,-2.0,1651087140418528.0
2.0,11.0,-4.0,-2.0,3.0,-2.0,-1.0,0.0,1651087140418528.0
-1.0,5.0,3.0,-3.0,-2.0,-4.0,-2.0,-1.0,1651087140419364.0
-3.0,-13.0,-5.0,2.0,-1.0,6.0,0.0,-1.0,1651087140419364.0
0.0,-5.0,-8.0,-5.0,-4.0,-6.0,-4.0,-3.0,1651087140432819.0
-1.0,-6.0,-2.0,12.0,7.0,0.0,1.0,0.0,1651087140432819.0
3.0,4.0,4.0,-8.0,0.0,4.0,-2.0,0.0,1651087140433689.0
0.0,15.0,8.0,0.0,-8.0,-8.0,-1.0,0.0,1651087140433689.0
-6.0,-5.0,-1.0,14.0,18.0,10.0,2.0,1.0,1651087140456108.0
7.0,0.0,11.0,-6.0,-20.0,-7.0,-2.0,0.0,1651087140456108.0
-6.0,-4.0,-5.0,8.0,24.0,9.0,1.0,1.0,1651087140456108.0
8.0,-10.0,-15.0,-15.0,-10.0,-3.0,2.0,3.0,1651087140456108.0
-4.0,17.0,11.0,-3.0,-2.0,0.0,-2.0,-1.0,1651087140478270.0
-1.0,-13.0,4.0,21.0,14.0,5.0,4.0,3.0,1651087140478270.0
-12.0,-6.0,-4.0,-12.0,-12.0,-10.0,-5.0,-5.0,1651087140479304.0
-1.0,19.0,-6.0,1.0,4.0,6.0,1.0,1.0,1651087140479304.0
20.0,-9.0,8.0,-3.0,-8.0,-1.0,4.0,5.0,1651087140493311.0
8.0,19.0,-10.0,-14.0,-11.0,-6.0,-4.0,-6.0,1651087140493311.0
1.0,-25.0,-4.0,-3.0,-8.0,-3.0,-1.0,2.0,1651087140493311.0
-16.0,8.0,6.0,6.0,5.0,-1.0,-1.0,-3.0,1651087140493311.0
-3.0,-18.0,-24.0,0.0,10.0,2.0,-1.0,-2.0,1651087140516604.0
-12.0,-8.0,11.0,2.0,-3.0,0.0,-3.0,-1.0,1651087140516604.0
10.0,6.0,-6.0,-7.0,-2.0,-2.0,-2.0,-2.0,1651087140517444.0
28.0,15.0,11.0,-1.0,-5.0,-2.0,-1.0,3.0,1651087140517444.0
-17.0,-14.0,-5.0,-5.0,-15.0,-11.0,-6.0,-5.0,1651087140538767.0
-7.0,7.0,10.0,5.0,14.0,7.0,3.0,2.0,1651087140538767.0
8.0,15.0,2.0,6.0,4.0,1.0,3.0,2.0,1651087140539073.0
8.0,4.0,-4.0,-10.0,-8.0,-4.0,2.0,6.0,1651087140539073.0
8.0,14.0,11.0,9.0,6.0,5.0,1.0,2.0,1651087140553124.0
-26.0,-5.0,-16.0,-12.0,-4.0,-3.0,-7.0,-5.0,1651087140553124.0
6.0,10.0,9.0,5.0,-1.0,-3.0,0.0,-4.0,1651087140553124.0
36.0,-30.0,-8.0,-8.0,-2.0,-2.0,3.0,9.0,1651087140553124.0
-19.0,-22.0,-7.0,9.0,0.0,-2.0,-5.0,-11.0,1651087140575229.0
20.0,-1.0,7.0,-12.0,-6.0,-1.0,2.0,6.0,1651087140575229.0
-3.0,6.0,-1.0,0.0,-15.0,-9.0,-6.0,-4.0,1651087140576079.0
7.0,47.0,8.0,16.0,15.0,5.0,1.0,0.0,1651087140576079.0
16.0,-5.0,12.0,0.0,16.0,9.0,7.0,11.0,1651087140599238.0
-13.0,-55.0,-9.0,2.0,-12.0,-11.0,-8.0,-17.0,1651087140599238.0
-8.0,-7.0,1.0,17.0,7.0,6.0,-1.0,1.0,1651087140599238.0
4.0,-3.0,-8.0,-27.0,3.0,3.0,8.0,5.0,1651087140599238.0
24.0,22.0,6.0,22.0,12.0,6.0,3.0,-3.0,1651087140612508.0
15.0,-9.0,-3.0,-18.0,-17.0,-13.0,-3.0,19.0,1651087140612508.0
-64.0,-5.0,-22.0,-15.0,4.0,10.0,2.0,-7.0,1651087140620391.0
-17.0,6.0,3.0,15.0,-8.0,-13.0,-13.0,-32.0,1651087140620391.0
44.0,-9.0,14.0,-4.0,-25.0,-18.0,-27.0,-43.0,1651087140635732.0
44.0,52.0,3.0,0.0,6.0,16.0,18.0,40.0,1651087140635732.0
41.0,-56.0,-4.0,-5.0,32.0,6.0,1.0,-7.0,1651087140635732.0
-31.0,-1.0,8.0,18.0,5.0,11.0,16.0,42.0,1651087140635732.0
-38.0,-59.0,-12.0,2.0,5.0,3.0,2.0,-46.0,1651087140658997.0
92.0,24.0,-1.0,-7.0,-30.0,-29.0,-1.0,34.0,1651087140658997.0
-36.0,11.0,-3.0,15.0,10.0,5.0,-14.0,-2.0,1651087140659077.0
-45.0,5.0,-11.0,-15.0,-7.0,-9.0,-11.0,-10.0,1651087140659077.0
76.0,50.0,5.0,3.0,27.0,19.0,-25.0,-40.0,1651087140672442.0
-57.0,-19.0,-15.0,-13.0,2.0,-5.0,1.0,-27.0,1651087140672442.0
28.0,-25.0,15.0,-10.0,-29.0,0.0,16.0,30.0,1651087140680414.0
-34.0,-35.0,-6.0,26.0,26.0,-7.0,-13.0,-16.0,1651087140680414.0
21.0,81.0,20.0,-36.0,-44.0,-18.0,15.0,76.0,1651087140695389.0
-57.0,-64.0,-31.0,33.0,32.0,17.0,-4.0,-60.0,1651087140695389.0
62.0,41.0,-8.0,-18.0,-17.0,-8.0,-18.0,17.0,1651087140696224.0
20.0,47.0,26.0,7.0,-4.0,0.0,-7.0,-52.0,1651087140696224.0
-25.0,26.0,-35.0,6.0,33.0,5.0,5.0,48.0,1651087140719121.0
-15.0,-79.0,-34.0,-25.0,-13.0,-5.0,-1.0,19.0,1651087140719121.0
-24.0,72.0,63.0,46.0,8.0,-1.0,9.0,-31.0,1651087140719121.0
-65.0,-27.0,-22.0,-26.0,-18.0,-5.0,6.0,-3.0,1651087140719121.0
2.0,37.0,8.0,-12.0,-23.0,-6.0,2.0,11.0,1651087140732448.0
4.0,83.0,-9.0,-18.0,-15.0,-7.0,-6.0,-11.0,1651087140732448.0
45.0,-5.0,-10.0,9.0,43.0,18.0,7.0,-4.0,1651087140740311.0
30.0,50.0,1.0,-40.0,-58.0,-17.0,18.0,-19.0,1651087140740311.0
35.0,-33.0,6.0,30.0,18.0,-7.0,-31.0,27.0,1651087140763351.0
-16.0,-24.0,-10.0,-18.0,-15.0,2.0,-5.0,-61.0,1651087140763351.0
42.0,105.0,-11.0,-12.0,-19.0,-20.0,-3.0,61.0,1651087140764230.0
-73.0,-80.0,2.0,-6.0,8.0,10.0,-14.0,-4.0,1651087140764230.0
43.0,-38.0,-5.0,9.0,-1.0,6.0,24.0,15.0,1651087140778229.0
47.0,97.0,29.0,14.0,12.0,7.0,-5.0,-2.0,1651087140778229.0
26.0,-86.0,-32.0,-19.0,-31.0,-16.0,3.0,-71.0,1651087140778229.0
30.0,27.0,9.0,-24.0,0.0,-1.0,-19.0,32.0,1651087140778229.0
16.0,16.0,-14.0,52.0,47.0,18.0,16.0,21.0,1651087140792409.0
-15.0,3.0,22.0,-9.0,-14.0,0.0,-4.0,11.0,1651087140792409.0
30.0,25.0,-8.0,-2.0,-9.0,-8.0,2.0,-20.0,1651087140800406.0
-6.0,-65.0,-14.0,12.0,4.0,2.0,7.0,-9.0,1651087140800406.0
-58.0,-34.0,-2.0,-31.0,-32.0,-6.0,-24.0,-20.0,1651087140815563.0
31.0,20.0,12.0,8.0,15.0,2.0,6.0,17.0,1651087140815563.0
-90.0,8.0,27.0,32.0,28.0,15.0,6.0,4.0,1651087140815563.0
23.0,-35.0,-1.0,-1.0,-15.0,-7.0,-6.0,0.0,1651087140815563.0
-32.0,32.0,8.0,-4.0,-26.0,-10.0,14.0,7.0,1651087140837562.0
-73.0,-58.0,-10.0,-7.0,11.0,8.0,10.0,-1.0,1651087140837562.0
65.0,56.0,15.0,-2.0,-2.0,1.0,-16.0,-1.0,1651087140838587.0
-39.0,59.0,8.0,28.0,10.0,1.0,19.0,53.0,1651087140838587.0
-40.0,-5.0,1.0,-2.0,27.0,0.0,-14.0,-27.0,1651087140852513.0
-20.0,54.0,5.0,5.0,14.0,11.0,-7.0,-22.0,1651087140852513.0
48.0,13.0,-5.0,-2.0,-16.0,-6.0,13.0,42.0,1651087140860398.0
73.0,82.0,25.0,0.0,2.0,2.0,-6.0,8.0,1651087140860398.0
23.0,53.0,10.0,1.0,8.0,-4.0,-6.0,-6.0,1651087140875272.0
-16.0,-24.0,-19.0,-10.0,-19.0,-15.0,-3.0,1.0,1651087140875272.0
-76.0,-36.0,-15.0,-6.0,-15.0,-2.0,-9.0,-24.0,1651087140876134.0
26.0,-62.0,-21.0,-21.0,9.0,6.0,17.0,10.0,1651087140876134.0
-12.0,-52.0,1.0,3.0,-21.0,-6.0,-18.0,-14.0,1651087140898563.0
85.0,42.0,23.0,27.0,43.0,11.0,-2.0,-13.0,1651087140898563.0
21.0,62.0,4.0,6.0,6.0,4.0,11.0,46.0,1651087140899074.0
-15.0,-94.0,-32.0,-8.0,-12.0,-4.0,9.0,-34.0,1651087140899074.0
-22.0,-34.0,-17.0,-22.0,-3.0,-6.0,-12.0,-7.0,1651087140912310.0
44.0,48.0,20.0,15.0,9.0,12.0,17.0,-6.0,1651087140912310.0
-9.0,-128.0,-36.0,-16.0,-5.0,-7.0,-8.0,26.0,1651087140920397.0
1.0,17.0,3.0,-7.0,3.0,-1.0,-13.0,-22.0,1651087140920397.0
-98.0,-65.0,8.0,11.0,-30.0,-7.0,18.0,-3.0,1651087140935436.0
4.0,-81.0,-7.0,-4.0,-1.0,9.0,-3.0,-4.0,1651087140935436.0
-2.0,45.0,-2.0,-17.0,5.0,-1.0,6.0,3.0,1651087140935436.0
20.0,37.0,-12.0,11.0,-2.0,6.0,1.0,-13.0,1651087140935436.0
-21.0,17.0,-5.0,-11.0,5.0,5.0,4.0,-25.0,1651087140959004.0
56.0,-75.0,-5.0,-3.0,-11.0,-4.0,6.0,27.0,1651087140959004.0
-60.0,-68.0,-8.0,-5.0,-14.0,-6.0,-19.0,-5.0,1651087140959117.0
-4.0,21.0,12.0,20.0,37.0,4.0,-17.0,-13.0,1651087140959117.0
110.0,79.0,12.0,-30.0,-24.0,-5.0,20.0,4.0,1651087140981608.0
-26.0,2.0,16.0,44.0,18.0,2.0,26.0,67.0,1651087140981608.0
49.0,-40.0,-1.0,-7.0,-2.0,6.0,4.0,-60.0,1651087140981608.0
-17.0,1.0,-14.0,19.0,11.0,0.0,-13.0,43.0,1651087140981608.0
4.0,25.0,-21.0,-11.0,7.0,1.0,-25.0,-42.0,1651087140995376.0
19.0,46.0,7.0,-14.0,-20.0,-9.0,19.0,21.0,1651087140995376.0
-13.0,-15.0,2.0,5.0,1.0,-1.0,-16.0,-26.0,1651087140996206.0
5.0,11.0,11.0,-22.0,-28.0,-7.0,6.0,21.0,1651087140996206.0
-9.0,-94.0,-12.0,23.0,12.0,3.0,8.0,-2.0,1651087141018605.0
-50.0,27.0,4.0,12.0,4.0,-5.0,-19.0,-7.0,1651087141018605.0
1.0,53.0,13.0,1.0,-3.0,2.0,16.0,10.0,1651087141018605.0
-46.0,-44.0,-10.0,-1.0,-2.0,-4.0,-13.0,-39.0,1651087141018605.0
15.0,-46.0,-1.0,-25.0,-13.0,4.0,18.0,41.0,1651087141040235.0
32.0,-37.0,-5.0,-17.0,-18.0,-19.0,-43.0,-27.0,1651087141040235.0
-21.0,-25.0,-21.0,11.0,13.0,7.0,32.0,60.0,1651087141041282.0
-15.0,32.0,7.0,-5.0,-4.0,3.0,-6.0,-2.0,1651087141041282.0
-8.0,47.0,5.0,0.0,-21.0,-7.0,6.0,-10.0,1651087141055387.0
-83.0,-42.0,-3.0,4.0,33.0,6.0,-1.0,-6.0,1651087141055387.0
-23.0,29.0,5.0,-19.0,-13.0,-8.0,-23.0,-43.0,1651087141056251.0
16.0,42.0,4.0,20.0,-2.0,6.0,26.0,29.0,1651087141056251.0
-47.0,-45.0,-6.0,-9.0,13.0,-4.0,-20.0,-27.0,1651087141078411.0
7.0,96.0,14.0,4.0,-31.0,-6.0,-32.0,-41.0,1651087141078411.0
13.0,-41.0,-13.0,-8.0,31.0,12.0,12.0,35.0,1651087141079410.0
0.0,-25.0,1.0,11.0,14.0,-3.0,15.0,19.0,1651087141079410.0
9.0,86.0,15.0,16.0,-14.0,-1.0,-23.0,-77.0,1651087141101217.0
31.0,48.0,-9.0,2.0,9.0,16.0,32.0,62.0,1651087141101217.0
-36.0,32.0,14.0,-3.0,-15.0,-10.0,13.0,3.0,1651087141101217.0
48.0,26.0,25.0,17.0,30.0,9.0,-9.0,9.0,1651087141101217.0
10.0,-12.0,-18.0,-9.0,-8.0,-3.0,1.0,13.0,1651087141115350.0
-7.0,-66.0,6.0,-6.0,9.0,5.0,-15.0,-38.0,1651087141115350.0
-45.0,-35.0,-7.0,12.0,-9.0,0.0,9.0,-6.0,1651087141116199.0
55.0,52.0,-7.0,-18.0,-5.0,-5.0,-18.0,0.0,1651087141116199.0
-4.0,-47.0,-4.0,-10.0,-33.0,-11.0,8.0,-2.0,1651087141138200.0
15.0,-53.0,-15.0,27.0,28.0,12.0,-3.0,4.0,1651087141138200.0
35.0,67.0,18.0,-13.0,-6.0,-5.0,-2.0,-8.0,1651087141139198.0
26.0,-68.0,-34.0,-9.0,-14.0,-12.0,-22.0,-37.0,1651087141139198.0
-23.0,58.0,24.0,32.0,21.0,13.0,30.0,42.0,1651087141161448.0
-39.0,-55.0,-9.0,-31.0,-46.0,-21.0,-12.0,19.0,1651087141161448.0
-1.0,-11.0,-17.0,12.0,42.0,14.0,-8.0,-14.0,1651087141161448.0
1.0,73.0,13.0,-9.0,-15.0,-8.0,8.0,-3.0,1651087141161448.0
51.0,40.0,-6.0,-9.0,-5.0,-3.0,-2.0,3.0,1651087141175209.0
-37.0,7.0,7.0,16.0,25.0,7.0,21.0,20.0,1651087141175209.0
-19.0,-71.0,-6.0,-14.0,-29.0,-8.0,-14.0,-2.0,1651087141176086.0
-1.0,43.0,10.0,-3.0,6.0,1.0,-4.0,-2.0,1651087141176086.0
-36.0,-16.0,-13.0,6.0,22.0,6.0,-2.0,-9.0,1651087141198239.0
42.0,-31.0,-2.0,-16.0,1.0,-5.0,-8.0,-4.0,1651087141198239.0
-27.0,2.0,7.0,-1.0,-21.0,-14.0,-18.0,-22.0,1651087141199000.0
8.0,-25.0,-6.0,-1.0,9.0,14.0,-4.0,-16.0,1651087141199000.0
-13.0,-50.0,3.0,-1.0,1.0,-4.0,31.0,87.0,1651087141221235.0
-43.0,116.0,-7.0,-10.0,-17.0,-8.0,-19.0,2.0,1651087141221235.0
4.0,-21.0,8.0,6.0,22.0,1.0,-6.0,-27.0,1651087141221235.0
-30.0,-62.0,10.0,5.0,-16.0,-2.0,0.0,5.0,1651087141221235.0
29.0,40.0,-13.0,-16.0,-5.0,-3.0,7.0,-5.0,1651087141235367.0
0.0,-55.0,3.0,-17.0,-15.0,-6.0,-2.0,-25.0,1651087141235367.0
-56.0,62.0,-16.0,20.0,5.0,4.0,-2.0,-8.0,1651087141235367.0
-4.0,-54.0,-12.0,-1.0,-3.0,-7.0,-10.0,-9.0,1651087141235367.0
67.0,46.0,26.0,1.0,-2.0,5.0,0.0,20.0,1651087141257283.0
-40.0,28.0,4.0,8.0,11.0,10.0,13.0,-5.0,1651087141257283.0
68.0,49.0,1.0,-12.0,-10.0,-2.0,-17.0,-57.0,1651087141265408.0
-21.0,-56.0,6.0,7.0,15.0,5.0,18.0,72.0,1651087141265408.0
4.0,3.0,0.0,-2.0,-11.0,-4.0,-5.0,-7.0,1651087141281181.0
-67.0,6.0,3.0,23.0,5.0,2.0,5.0,-13.0,1651087141281181.0
69.0,88.0,11.0,-10.0,12.0,8.0,9.0,15.0,1651087141281181.0
16.0,61.0,-11.0,-3.0,-11.0,-8.0,-20.0,-4.0,1651087141281181.0
-37.0,-48.0,19.0,9.0,14.0,8.0,20.0,7.0,1651087141295334.0
-5.0,-38.0,-28.0,-31.0,-33.0,-15.0,-12.0,-9.0,1651087141295334.0
-33.0,-33.0,3.0,14.0,31.0,8.0,-1.0,-10.0,1651087141296224.0
-4.0,65.0,31.0,7.0,1.0,3.0,6.0,-5.0,1651087141296224.0
-21.0,-22.0,-26.0,-14.0,-10.0,-7.0,-18.0,-16.0,1651087141318733.0
22.0,25.0,5.0,2.0,-1.0,-4.0,0.0,-3.0,1651087141318733.0
7.0,-1.0,5.0,6.0,-7.0,-10.0,-20.0,-20.0,1651087141319072.0
-26.0,-96.0,-16.0,-8.0,8.0,3.0,29.0,33.0,1651087141319072.0
-14.0,22.0,8.0,-13.0,-10.0,0.0,-19.0,-20.0,1651087141340319.0
41.0,25.0,3.0,16.0,14.0,0.0,27.0,53.0,1651087141340319.0
-1.0,-17.0,-11.0,-18.0,-12.0,-3.0,-6.0,0.0,1651087141341320.0
-29.0,-21.0,2.0,25.0,-12.0,2.0,32.0,0.0,1651087141341320.0
29.0,16.0,-18.0,-5.0,32.0,12.0,-21.0,-48.0,1651087141355517.0
-2.0,50.0,25.0,-9.0,4.0,7.0,22.0,37.0,1651087141355517.0
-25.0,-22.0,-1.0,1.0,-30.0,-10.0,-2.0,-6.0,1651087141355517.0
30.0,-44.0,-17.0,-8.0,2.0,-3.0,-23.0,-28.0,1651087141355517.0
-29.0,-26.0,-13.0,-3.0,5.0,1.0,11.0,29.0,1651087141378165.0
50.0,15.0,-1.0,-2.0,-8.0,-5.0,-9.0,-31.0,1651087141378165.0
67.0,57.0,-2.0,4.0,1.0,4.0,10.0,32.0,1651087141379104.0
-20.0,9.0,17.0,1.0,-3.0,-1.0,-5.0,-37.0,1651087141379104.0
29.0,59.0,7.0,-23.0,-30.0,-25.0,-23.0,29.0,1651087141401190.0
-21.0,11.0,-13.0,11.0,0.0,2.0,7.0,24.0,1651087141401190.0
52.0,34.0,-14.0,-2.0,30.0,12.0,-12.0,-5.0,1651087141401190.0
-48.0,57.0,16.0,4.0,-13.0,-10.0,19.0,15.0,1651087141401190.0
1.0,-25.0,16.0,7.0,10.0,3.0,3.0,-7.0,1651087141415307.0
55.0,0.0,-15.0,-18.0,-20.0,-11.0,-15.0,-19.0,1651087141415307.0
-47.0,-37.0,8.0,-7.0,-22.0,-3.0,11.0,12.0,1651087141416175.0
60.0,106.0,0.0,13.0,11.0,8.0,-19.0,-13.0,1651087141416175.0
-59.0,-56.0,9.0,22.0,26.0,5.0,10.0,-5.0,1651087141439207.0
1.0,96.0,5.0,-4.0,2.0,5.0,6.0,0.0,1651087141439207.0
-59.0,-102.0,-29.0,-10.0,-5.0,-6.0,-21.0,-16.0,1651087141439207.0
26.0,-7.0,-3.0,-32.0,-20.0,-5.0,-6.0,-23.0,1651087141439207.0
-14.0,71.0,8.0,19.0,3.0,5.0,14.0,45.0,1651087141461347.0
-11.0,-128.0,-5.0,24.0,26.0,-3.0,-24.0,-20.0,1651087141461347.0
60.0,3.0,11.0,6.0,1.0,6.0,-3.0,4.0,1651087141461347.0
22.0,89.0,21.0,-12.0,6.0,6.0,35.0,20.0,1651087141461347.0
-14.0,-79.0,1.0,9.0,9.0,7.0,-14.0,-34.0,1651087141475320.0
6.0,55.0,-11.0,-24.0,-15.0,-1.0,10.0,14.0,1651087141475320.0
-71.0,-62.0,-6.0,19.0,16.0,1.0,-9.0,-23.0,1651087141476178.0
-11.0,-4.0,2.0,-8.0,-19.0,-10.0,-13.0,-12.0,1651087141476178.0
-46.0,6.0,4.0,17.0,42.0,19.0,5.0,17.0,1651087141498535.0
59.0,-14.0,-9.0,-6.0,-11.0,0.0,25.0,9.0,1651087141498535.0
0.0,48.0,12.0,7.0,-12.0,-10.0,-16.0,-1.0,1651087141499400.0
0.0,-8.0,-2.0,-12.0,1.0,-3.0,-8.0,-29.0,1651087141499400.0
-12.0,-2.0,-10.0,-4.0,-8.0,-1.0,17.0,30.0,1651087141521377.0
8.0,-26.0,2.0,3.0,7.0,-1.0,-21.0,-2.0,1651087141521377.0
-4.0,-24.0,11.0,-2.0,-2.0,-3.0,22.0,28.0,1651087141521377.0
12.0,-40.0,-6.0,8.0,6.0,13.0,5.0,-7.0,1651087141521377.0
13.0,-50.0,-19.0,-17.0,-25.0,-19.0,-25.0,-47.0,1651087141535362.0
-37.0,-15.0,10.0,1.0,-5.0,7.0,11.0,-34.0,1651087141535362.0
95.0,62.0,-1.0,18.0,24.0,3.0,17.0,53.0,1651087141536247.0
9.0,-28.0,-5.0,-6.0,5.0,6.0,-5.0,8.0,1651087141536247.0
24.0,29.0,-10.0,-4.0,3.0,-3.0,3.0,-17.0,1651087141560544.0
-11.0,24.0,15.0,10.0,-14.0,-6.0,-26.0,-35.0,1651087141560544.0
8.0,12.0,13.0,-2.0,-13.0,1.0,6.0,12.0,1651087141560544.0
-9.0,12.0,-13.0,-2.0,8.0,-2.0,-12.0,-20.0,1651087141560544.0
54.0,57.0,-11.0,-15.0,-9.0,-9.0,13.0,49.0,1651087141581184.0
-48.0,-31.0,3.0,23.0,32.0,14.0,3.0,14.0,1651087141581184.0
4.0,28.0,1.0,-6.0,-14.0,0.0,2.0,-24.0,1651087141581184.0
5.0,-31.0,-4.0,8.0,4.0,-1.0,14.0,57.0,1651087141581184.0
-13.0,4.0,11.0,-20.0,-30.0,-14.0,-22.0,-44.0,1651087141594197.0
6.0,38.0,-4.0,8.0,2.0,-2.0,-9.0,-16.0,1651087141594197.0
-36.0,-65.0,-11.0,-10.0,6.0,0.0,16.0,39.0,1651087141603213.0
-9.0,46.0,2.0,-5.0,1.0,1.0,-17.0,-26.0,1651087141603213.0
-10.0,-11.0,-12.0,-6.0,-1.0,3.0,8.0,2.0,1651087141618726.0
20.0,-49.0,27.0,3.0,-5.0,-6.0,15.0,12.0,1651087141618726.0
-17.0,-6.0,-4.0,-15.0,-3.0,-2.0,-6.0,-4.0,1651087141619070.0
-3.0,9.0,-16.0,12.0,-1.0,-5.0,-9.0,-14.0,1651087141619070.0
21.0,24.0,12.0,16.0,4.0,0.0,-9.0,-12.0,1651087141640224.0
6.0,46.0,5.0,-4.0,14.0,4.0,13.0,31.0,1651087141640224.0
-6.0,-61.0,-4.0,-1.0,-4.0,0.0,-6.0,-15.0,1651087141648485.0
-22.0,-46.0,-17.0,-16.0,-9.0,-4.0,7.0,-5.0,1651087141648485.0
14.0,11.0,10.0,-1.0,1.0,9.0,2.0,25.0,1651087141654204.0
-11.0,-1.0,-28.0,11.0,7.0,5.0,1.0,-38.0,1651087141654204.0
-7.0,27.0,10.0,-3.0,-7.0,-2.0,3.0,23.0,1651087141662212.0
55.0,8.0,-20.0,-4.0,2.0,0.0,3.0,13.0,1651087141662212.0
-19.0,13.0,11.0,13.0,-1.0,-1.0,-5.0,-1.0,1651087141678209.0
-31.0,-45.0,0.0,-14.0,-9.0,-4.0,-11.0,-3.0,1651087141678209.0
-11.0,26.0,-7.0,-7.0,-8.0,-3.0,4.0,-16.0,1651087141679242.0
-4.0,-8.0,17.0,16.0,7.0,5.0,10.0,17.0,1651087141679242.0
9.0,23.0,1.0,4.0,0.0,2.0,-8.0,-20.0,1651087141701536.0
8.0,7.0,-3.0,-10.0,-4.0,1.0,20.0,28.0,1651087141701536.0
-9.0,-19.0,-15.0,-1.0,0.0,1.0,-8.0,-28.0,1651087141701536.0
-39.0,-37.0,8.0,-8.0,-12.0,-8.0,-12.0,0.0,1651087141701536.0
18.0,16.0,-17.0,-2.0,-3.0,-1.0,11.0,-1.0,1651087141714569.0
3.0,4.0,0.0,0.0,2.0,1.0,-5.0,4.0,1651087141714569.0
-11.0,-11.0,-3.0,-6.0,-13.0,-4.0,3.0,-6.0,1651087141722963.0
11.0,34.0,-4.0,8.0,7.0,2.0,0.0,2.0,1651087141722963.0
-17.0,-5.0,18.0,11.0,-3.0,-3.0,-2.0,-1.0,1651087141738248.0
12.0,30.0,17.0,4.0,9.0,1.0,1.0,-6.0,1651087141738248.0
-4.0,15.0,-11.0,-9.0,-1.0,0.0,-3.0,15.0,1651087141738248.0
0.0,-11.0,0.0,-1.0,5.0,2.0,16.0,20.0,1651087141738248.0
7.0,1.0,-12.0,-11.0,-3.0,-4.0,-1.0,-10.0,1651087141761548.0
-16.0,-14.0,-9.0,-4.0,1.0,-1.0,-10.0,-5.0,1651087141761548.0
0.0,7.0,1.0,9.0,0.0,-2.0,1.0,9.0,1651087141761548.0
1.0,13.0,0.0,0.0,6.0,3.0,-6.0,-5.0,1651087141761548.0
-7.0,-42.0,-3.0,-5.0,-1.0,-4.0,-3.0,-13.0,1651087141774063.0
10.0,16.0,-3.0,-3.0,-10.0,-5.0,-19.0,-19.0,1651087141774063.0
0.0,14.0,5.0,2.0,5.0,1.0,17.0,28.0,1651087141783227.0
-2.0,-6.0,1.0,5.0,8.0,1.0,-7.0,-4.0,1651087141783227.0
-4.0,3.0,-4.0,-4.0,-1.0,0.0,7.0,6.0,1651087141798550.0
9.0,3.0,-6.0,-6.0,-5.0,-2.0,-10.0,-11.0,1651087141798550.0
-1.0,-1.0,6.0,5.0,1.0,1.0,5.0,5.0,1651087141798550.0
-4.0,0.0,2.0,0.0,-5.0,-4.0,-5.0,-8.0,1651087141798550.0
6.0,5.0,4.0,1.0,3.0,1.0,-1.0,-1.0,1651087141821387.0
-1.0,-6.0,-8.0,-5.0,0.0,-1.0,1.0,4.0,1651087141821387.0
-2.0,6.0,6.0,4.0,2.0,3.0,0.0,7.0,1651087141821387.0
-5.0,-6.0,-2.0,-4.0,-3.0,-3.0,-2.0,-2.0,1651087141821387.0
-1.0,-1.0,-3.0,-3.0,-2.0,-1.0,1.0,1.0,1651087141834353.0
1.0,-1.0,0.0,3.0,4.0,2.0,2.0,3.0,1651087141834353.0
-2.0,5.0,-4.0,-3.0,-3.0,-5.0,-5.0,-9.0,1651087141843131.0
0.0,0.0,1.0,2.0,3.0,2.0,-2.0,-5.0,1651087141843131.0
-2.0,-3.0,-5.0,-4.0,0.0,-2.0,3.0,6.0,1651087141857957.0
1.0,3.0,2.0,-1.0,-5.0,-1.0,1.0,3.0,1651087141857957.0
4.0,-1.0,-2.0,-3.0,-3.0,1.0,-6.0,-13.0,1651087141857957.0
-3.0,19.0,9.0,4.0,4.0,1.0,-2.0,-15.0,1651087141857957.0
-11.0,-6.0,6.0,4.0,4.0,0.0,6.0,22.0,1651087141882743.0
12.0,15.0,-7.0,-8.0,-9.0,-6.0,0.0,4.0,1651087141882743.0
-1.0,-5.0,0.0,-1.0,7.0,1.0,-3.0,-5.0,1651087141882743.0
0.0,-2.0,-4.0,0.0,-1.0,-1.0,-3.0,-4.0,1651087141882743.0
-1.0,1.0,2.0,0.0,0.0,1.0,-1.0,-6.0,1651087141904329.0
-2.0,5.0,2.0,1.0,1.0,1.0,0.0,0.0,1651087141904329.0
1.0,-3.0,-3.0,-2.0,-4.0,0.0,1.0,-1.0,1651087141904329.0
-1.0,-3.0,-2.0,-4.0,-6.0,-4.0,-3.0,-1.0,1651087141904329.0
3.0,6.0,3.0,0.0,1.0,2.0,-1.0,-1.0,1651087141926214.0
-4.0,-11.0,-2.0,-1.0,0.0,0.0,2.0,5.0,1651087141926214.0
2.0,5.0,6.0,-1.0,-1.0,-5.0,-1.0,-6.0,1651087141926214.0
-3.0,-13.0,-23.0,-4.0,5.0,5.0,4.0,4.0,1651087141926214.0
0.0,1.0,-8.0,-1.0,-3.0,2.0,0.0,-2.0,1651087141940219.0
-2.0,-3.0,-8.0,-5.0,-4.0,-1.0,1.0,0.0,1651087141940219.0
-4.0,4.0,14.0,6.0,-2.0,-1.0,-2.0,-1.0,1651087141941271.0
0.0,1.0,4.0,-2.0,2.0,1.0,-2.0,1.0,1651087141941271.0
4.0,-3.0,-4.0,-3.0,-1.0,-1.0,1.0,-1.0,1651087141963224.0
-1.0,0.0,1.0,4.0,0.0,3.0,-2.0,10.0,1651087141963224.0
1.0,2.0,-8.0,-10.0,-4.0,-8.0,-5.0,-22.0,1651087141964222.0
-8.0,-9.0,-15.0,-1.0,0.0,-1.0,-2.0,-3.0,1651087141964222.0
2.0,1.0,-9.0,-2.0,2.0,-1.0,-1.0,-6.0,1651087141978192.0
-5.0,-7.0,5.0,0.0,-6.0,-5.0,-2.0,-6.0,1651087141978192.0
18.0,4.0,7.0,2.0,1.0,6.0,6.0,35.0,1651087141978192.0
4.0,1.0,3.0,-1.0,0.0,6.0,-1.0,-10.0,1651087141978192.0
-4.0,-8.0,-2.0,-4.0,-2.0,4.0,1.0,-4.0,1651087142001253.0
-3.0,1.0,7.0,9.0,-2.0,-6.0,-3.0,-4.0,1651087142001253.0
-7.0,-2.0,12.0,13.0,1.0,1.0,0.0,1.0,1651087142001323.0
1.0,4.0,9.0,2.0,5.0,0.0,-1.0,10.0,1651087142001323.0
11.0,2.0,-2.0,-13.0,1.0,-2.0,0.0,-4.0,1651087142023063.0
-5.0,-2.0,-8.0,-4.0,0.0,-1.0,1.0,2.0,1651087142023063.0
-2.0,-4.0,-7.0,-7.0,-5.0,-3.0,-1.0,15.0,1651087142024065.0
-3.0,-2.0,5.0,3.0,-3.0,-5.0,-6.0,-21.0,1651087142024065.0
3.0,3.0,25.0,11.0,7.0,1.0,-3.0,-4.0,1651087142038219.0
0.0,-2.0,5.0,11.0,-1.0,1.0,6.0,16.0,1651087142038219.0
13.0,-3.0,20.0,16.0,4.0,2.0,2.0,14.0,1651087142038219.0
0.0,7.0,-3.0,-11.0,2.0,-2.0,-4.0,-12.0,1651087142038219.0
-8.0,0.0,-8.0,-13.0,-4.0,2.0,1.0,12.0,1651087142060320.0
6.0,1.0,-18.0,1.0,-5.0,-3.0,-5.0,-4.0,1651087142060320.0
-4.0,3.0,13.0,1.0,3.0,2.0,8.0,8.0,1651087142061320.0
8.0,-3.0,0.0,8.0,-4.0,-4.0,3.0,33.0,1651087142061320.0
-25.0,-1.0,12.0,12.0,4.0,2.0,2.0,-9.0,1651087142083196.0
23.0,4.0,-4.0,-11.0,4.0,1.0,-1.0,-5.0,1651087142083196.0
-10.0,-1.0,-9.0,5.0,3.0,1.0,0.0,-19.0,1651087142084227.0
20.0,-2.0,-15.0,-28.0,-16.0,-8.0,-2.0,17.0,1651087142084227.0
-23.0,1.0,-5.0,-2.0,-4.0,2.0,-1.0,-14.0,1651087142098030.0
6.0,4.0,30.0,3.0,3.0,4.0,3.0,29.0,1651087142098030.0
-14.0,-9.0,-60.0,-18.0,-2.0,-1.0,-8.0,-40.0,1651087142098030.0
-12.0,-2.0,19.0,9.0,5.0,1.0,-1.0,-3.0,1651087142098030.0
9.0,-2.0,-18.0,-1.0,-8.0,-4.0,-5.0,8.0,1651087142121203.0
-2.0,-4.0,-5.0,-2.0,2.0,3.0,4.0,13.0,1651087142121203.0
4.0,-3.0,-20.0,-16.0,-5.0,-6.0,-7.0,-17.0,1651087142121203.0
-2.0,-4.0,6.0,18.0,2.0,3.0,6.0,-2.0,1651087142121203.0
0.0,4.0,10.0,-3.0,-2.0,-4.0,-1.0,6.0,1651087142143199.0
-3.0,-4.0,-22.0,-10.0,-2.0,-2.0,3.0,-1.0,1651087142143199.0
-4.0,4.0,33.0,9.0,1.0,2.0,-2.0,2.0,1651087142144196.0
-10.0,-12.0,-12.0,-7.0,-5.0,-1.0,-1.0,-1.0,1651087142144196.0
13.0,1.0,-3.0,8.0,6.0,2.0,1.0,14.0,1651087142157923.0
-2.0,-1.0,-2.0,-2.0,-3.0,-1.0,-4.0,-18.0,1651087142157923.0
3.0,5.0,2.0,3.0,0.0,-3.0,1.0,2.0,1651087142157923.0
-22.0,-15.0,-1.0,-3.0,-1.0,-1.0,0.0,-16.0,1651087142157923.0
11.0,5.0,34.0,9.0,-1.0,-3.0,0.0,14.0,1651087142181087.0
-12.0,0.0,-27.0,-18.0,-6.0,-3.0,-5.0,-14.0,1651087142181087.0
1.0,1.0,8.0,9.0,-3.0,-1.0,3.0,17.0,1651087142181087.0
-7.0,8.0,6.0,6.0,9.0,4.0,0.0,-5.0,1651087142181087.0
6.0,-11.0,-10.0,2.0,0.0,-3.0,5.0,-12.0,1651087142203186.0
-14.0,-1.0,7.0,2.0,4.0,1.0,-2.0,-6.0,1651087142203186.0
23.0,2.0,1.0,-8.0,-4.0,1.0,0.0,-17.0,1651087142204048.0
-6.0,5.0,-4.0,-7.0,-6.0,-4.0,-5.0,-3.0,1651087142204048.0
-2.0,-10.0,-36.0,-14.0,-1.0,0.0,2.0,-3.0,1651087142217230.0
0.0,8.0,10.0,3.0,1.0,-1.0,-1.0,-10.0,1651087142217230.0
-8.0,-13.0,-7.0,-2.0,-3.0,-1.0,-3.0,2.0,1651087142218230.0
3.0,3.0,23.0,15.0,4.0,1.0,3.0,12.0,1651087142218230.0
8.0,3.0,-5.0,1.0,-1.0,-1.0,-2.0,-6.0,1651087142240248.0
-5.0,-1.0,5.0,0.0,-3.0,-4.0,-4.0,-4.0,1651087142240248.0
-7.0,-12.0,-25.0,1.0,6.0,0.0,-1.0,2.0,1651087142241212.0
6.0,-4.0,-23.0,-9.0,-5.0,-2.0,-1.0,-3.0,1651087142241212.0
0.0,7.0,17.0,-11.0,-8.0,-3.0,-2.0,-2.0,1651087142263212.0
3.0,-16.0,-2.0,19.0,4.0,5.0,2.0,-1.0,1651087142263212.0
-3.0,27.0,19.0,-12.0,0.0,-1.0,1.0,-2.0,1651087142264211.0
6.0,3.0,-1.0,6.0,0.0,-1.0,1.0,-1.0,1651087142264211.0
0.0,-5.0,0.0,7.0,5.0,-1.0,-3.0,2.0,1651087142278018.0
2.0,0.0,13.0,-4.0,-3.0,0.0,2.0,-10.0,1651087142278018.0
-4.0,-6.0,4.0,-2.0,-7.0,-1.0,0.0,2.0,1651087142278018.0
0.0,-3.0,-11.0,-3.0,2.0,-1.0,0.0,2.0,1651087142278018.0
1.0,9.0,18.0,6.0,0.0,0.0,0.0,-1.0,1651087142301234.0
-3.0,-3.0,6.0,4.0,2.0,0.0,0.0,6.0,1651087142301234.0
-2.0,0.0,-10.0,-6.0,1.0,1.0,1.0,1.0,1651087142301234.0
7.0,7.0,4.0,-1.0,-4.0,1.0,1.0,0.0,1651087142301234.0
-2.0,-24.0,-19.0,-7.0,-6.0,-4.0,-2.0,-2.0,1651087142323061.0
-1.0,8.0,17.0,4.0,1.0,-3.0,-1.0,-3.0,1651087142323061.0
-5.0,-7.0,-33.0,-9.0,-1.0,0.0,-1.0,-2.0,1651087142325090.0
1.0,3.0,10.0,6.0,-1.0,1.0,-1.0,-2.0,1651087142325090.0
-6.0,2.0,-12.0,-4.0,1.0,-1.0,-3.0,-5.0,1651087142338043.0
5.0,0.0,-1.0,-6.0,-5.0,-3.0,1.0,1.0,1651087142338043.0
-2.0,-10.0,3.0,5.0,5.0,1.0,-1.0,-1.0,1651087142338043.0
1.0,-12.0,-1.0,-4.0,-2.0,-3.0,1.0,2.0,1651087142338043.0
-8.0,7.0,-4.0,-1.0,-10.0,-2.0,-1.0,-4.0,1651087142361191.0
1.0,0.0,-8.0,5.0,4.0,0.0,-2.0,-1.0,1651087142361191.0
-2.0,4.0,3.0,-5.0,3.0,2.0,0.0,0.0,1651087142362493.0
5.0,-5.0,-5.0,-1.0,2.0,1.0,1.0,-3.0,1651087142362493.0
1.0,1.0,1.0,2.0,-3.0,-3.0,-1.0,2.0,1651087142383203.0
-1.0,-1.0,-7.0,-4.0,-3.0,0.0,0.0,-2.0,1651087142383203.0
0.0,-7.0,1.0,3.0,-4.0,-1.0,0.0,0.0,1651087142385231.0
-3.0,7.0,14.0,1.0,-1.0,-2.0,-3.0,0.0,1651087142385231.0
-1.0,-11.0,-13.0,-2.0,1.0,1.0,-1.0,1.0,1651087142397355.0
-2.0,5.0,8.0,-3.0,-1.0,-1.0,0.0,0.0,1651087142397355.0
0.0,1.0,2.0,-5.0,-1.0,-2.0,-2.0,0.0,1651087142406272.0
-1.0,0.0,14.0,12.0,0.0,1.0,0.0,0.0,1651087142406272.0
1.0,3.0,-3.0,-4.0,0.0,1.0,1.0,1.0,1651087142421690.0
-3.0,-3.0,-24.0,-8.0,1.0,0.0,0.0,-1.0,1651087142421690.0
-2.0,-16.0,-10.0,1.0,-2.0,-1.0,1.0,0.0,1651087142422690.0
-1.0,9.0,4.0,-10.0,-9.0,-2.0,-2.0,-2.0,1651087142422690.0
2.0,1.0,15.0,8.0,5.0,1.0,1.0,-2.0,1651087142443093.0
-3.0,-21.0,-15.0,2.0,6.0,2.0,2.0,-2.0,1651087142443093.0
2.0,21.0,-8.0,-7.0,-2.0,-2.0,-2.0,-1.0,1651087142444981.0
-1.0,-13.0,-9.0,2.0,2.0,2.0,1.0,-1.0,1651087142444981.0
0.0,4.0,10.0,2.0,-2.0,-2.0,0.0,0.0,1651087142456917.0
1.0,0.0,2.0,-3.0,-3.0,2.0,-2.0,0.0,1651087142456917.0
-4.0,-7.0,6.0,10.0,-5.0,-5.0,-3.0,-2.0,1651087142465894.0
-2.0,-4.0,-33.0,-14.0,2.0,3.0,-1.0,1.0,1651087142465894.0
0.0,2.0,2.0,3.0,2.0,1.0,0.0,0.0,1651087142481691.0
0.0,8.0,4.0,1.0,-2.0,-2.0,0.0,-1.0,1651087142481691.0
-1.0,-1.0,4.0,4.0,2.0,2.0,1.0,0.0,1651087142482692.0
-2.0,0.0,-1.0,-3.0,-4.0,-5.0,-2.0,-1.0,1651087142482692.0
-1.0,-6.0,-5.0,-5.0,-1.0,0.0,-2.0,-1.0,1651087142504182.0
-1.0,6.0,9.0,-1.0,0.0,-2.0,0.0,-1.0,1651087142504182.0
0.0,1.0,7.0,2.0,0.0,1.0,2.0,0.0,1651087142509168.0
0.0,-5.0,-11.0,-5.0,-2.0,-2.0,0.0,1.0,1651087142509168.0
2.0,8.0,9.0,4.0,5.0,1.0,-1.0,-2.0,1651087142517414.0
-2.0,-12.0,1.0,2.0,-1.0,-2.0,0.0,-1.0,1651087142517414.0
0.0,-2.0,12.0,4.0,0.0,0.0,0.0,0.0,1651087142526055.0
0.0,2.0,-5.0,3.0,1.0,-1.0,-1.0,0.0,1651087142526055.0
1.0,-5.0,-12.0,-8.0,1.0,0.0,-1.0,-3.0,1651087142540200.0
-1.0,18.0,5.0,3.0,4.0,3.0,1.0,0.0,1651087142540200.0
1.0,0.0,-10.0,-11.0,-2.0,0.0,1.0,0.0,1651087142542239.0
-1.0,-2.0,23.0,13.0,2.0,-3.0,0.0,0.0,1651087142542239.0
1.0,1.0,-2.0,-2.0,-9.0,-4.0,0.0,0.0,1651087142563193.0
0.0,-3.0,-1.0,-1.0,-4.0,2.0,-1.0,0.0,1651087142563193.0
1.0,9.0,11.0,3.0,4.0,-2.0,-3.0,-3.0,1651087142565191.0
-2.0,1.0,-20.0,-6.0,1.0,0.0,-1.0,-2.0,1651087142565191.0
-2.0,-3.0,4.0,2.0,5.0,6.0,1.0,2.0,1651087142577342.0
-2.0,-4.0,2.0,0.0,-5.0,-5.0,-2.0,-1.0,1651087142577342.0
0.0,3.0,9.0,3.0,-1.0,-3.0,-1.0,1.0,1651087142586332.0
0.0,2.0,-5.0,-6.0,-2.0,0.0,-2.0,-2.0,1651087142586332.0
-1.0,-3.0,-16.0,-2.0,-5.0,-4.0,-1.0,-1.0,1651087142601183.0
0.0,6.0,-1.0,-2.0,-1.0,0.0,-1.0,0.0,1651087142601183.0
-1.0,-9.0,-1.0,-1.0,3.0,1.0,1.0,0.0,1651087142602515.0
-1.0,0.0,1.0,0.0,6.0,1.0,-1.0,-2.0,1651087142602515.0
0.0,-6.0,-7.0,-3.0,-2.0,-2.0,0.0,1.0,1651087142623661.0
0.0,-5.0,7.0,5.0,0.0,1.0,0.0,0.0,1651087142623661.0
-2.0,4.0,-6.0,-9.0,-5.0,-3.0,-2.0,0.0,1651087142624658.0
0.0,7.0,12.0,6.0,-2.0,0.0,1.0,-2.0,1651087142624658.0
0.0,0.0,1.0,2.0,0.0,1.0,0.0,0.0,1651087142637344.0
4.0,-3.0,-18.0,-13.0,-7.0,-3.0,-3.0,1.0,1651087142637344.0
-6.0,-8.0,11.0,9.0,2.0,2.0,0.0,-2.0,1651087142645982.0
-1.0,-3.0,-15.0,-6.0,0.0,2.0,1.0,-1.0,1651087142645982.0
-2.0,7.0,-4.0,1.0,-1.0,-1.0,0.0,-1.0,1651087142660370.0
-1.0,-5.0,7.0,-1.0,-1.0,-4.0,-1.0,0.0,1651087142660370.0
0.0,-4.0,-1.0,-1.0,2.0,4.0,0.0,-2.0,1651087142662217.0
1.0,9.0,15.0,-1.0,-2.0,1.0,0.0,2.0,1651087142662217.0
-3.0,-7.0,0.0,1.0,-1.0,-1.0,0.0,0.0,1651087142683399.0
-2.0,-1.0,0.0,-3.0,-3.0,-1.0,-1.0,1.0,1651087142683399.0
3.0,-5.0,-21.0,-7.0,-3.0,-2.0,0.0,-2.0,1651087142684235.0
-4.0,-5.0,18.0,8.0,-1.0,-1.0,-1.0,-2.0,1651087142684235.0
2.0,11.0,16.0,3.0,3.0,1.0,0.0,0.0,1651087142697414.0
-3.0,-7.0,-6.0,-2.0,-3.0,-1.0,0.0,0.0,1651087142697414.0
0.0,7.0,2.0,-1.0,2.0,0.0,0.0,2.0,1651087142706233.0
1.0,-4.0,-7.0,-3.0,0.0,0.0,-1.0,1.0,1651087142706233.0
0.0,1.0,-7.0,-3.0,-2.0,-2.0,0.0,-1.0,1651087142721512.0
-3.0,2.0,4.0,2.0,0.0,1.0,-1.0,-2.0,1651087142721512.0
0.0,-3.0,-3.0,3.0,-4.0,-1.0,-1.0,-1.0,1651087142722546.0
0.0,0.0,0.0,-4.0,-5.0,-2.0,-2.0,0.0,1651087142722546.0
0.0,-6.0,-8.0,2.0,1.0,0.0,0.0,-1.0,1651087142744379.0
-1.0,-16.0,1.0,4.0,8.0,3.0,1.0,0.0,1651087142744379.0
-2.0,11.0,5.0,1.0,-1.0,-2.0,-2.0,-2.0,1651087142750447.0
-1.0,3.0,-4.0,0.0,-2.0,-1.0,0.0,-1.0,1651087142750447.0
0.0,0.0,4.0,-7.0,-7.0,-1.0,-2.0,-1.0,1651087142756697.0
1.0,0.0,6.0,8.0,6.0,3.0,1.0,0.0,1651087142756697.0
1.0,-1.0,-6.0,-1.0,0.0,-3.0,1.0,0.0,1651087142766075.0
-1.0,-2.0,1.0,1.0,0.0,-5.0,-3.0,-1.0,1651087142766075.0
1.0,-4.0,5.0,-2.0,0.0,4.0,-1.0,-1.0,1651087142781232.0
-2.0,8.0,-9.0,-7.0,-8.0,-5.0,-2.0,-2.0,1651087142781232.0
1.0,9.0,0.0,5.0,1.0,2.0,0.0,1.0,1651087142782233.0
-4.0,-10.0,2.0,-6.0,-1.0,2.0,2.0,1.0,1651087142782233.0
-1.0,2.0,4.0,5.0,-1.0,-2.0,-2.0,-1.0,1651087142811401.0
0.0,2.0,-13.0,-9.0,-1.0,-1.0,-2.0,-1.0,1651087142811401.0
0.0,-5.0,1.0,0.0,0.0,-3.0,-1.0,-1.0,1651087142812240.0
-1.0,-15.0,-6.0,5.0,4.0,2.0,2.0,0.0,1651087142812240.0
0.0,2.0,6.0,4.0,0.0,-1.0,-1.0,-2.0,1651087142826215.0
-1.0,-7.0,-11.0,-5.0,-2.0,-1.0,0.0,0.0,1651087142826215.0
2.0,-2.0,4.0,-3.0,-3.0,-1.0,-2.0,0.0,1651087142827056.0
0.0,17.0,-9.0,-14.0,-4.0,-1.0,-1.0,0.0,1651087142827056.0
-3.0,-4.0,1.0,12.0,6.0,3.0,1.0,-1.0,1651087142840246.0
-2.0,-3.0,-8.0,5.0,4.0,0.0,-2.0,-2.0,1651087142840246.0
1.0,-14.0,2.0,-3.0,-6.0,-1.0,0.0,2.0,1651087142842241.0
1.0,7.0,-4.0,-1.0,-8.0,-1.0,-1.0,-4.0,1651087142842241.0
0.0,3.0,7.0,-7.0,0.0,-2.0,-1.0,-1.0,1651087142871379.0
1.0,3.0,5.0,0.0,-2.0,0.0,-2.0,-1.0,1651087142871379.0
-2.0,-8.0,-9.0,2.0,2.0,0.0,2.0,-1.0,1651087142872234.0
-2.0,3.0,13.0,0.0,2.0,4.0,-2.0,-1.0,1651087142872234.0
0.0,1.0,-6.0,-5.0,-5.0,-1.0,0.0,2.0,1651087142887510.0
0.0,1.0,4.0,5.0,0.0,0.0,-1.0,-2.0,1651087142887510.0
-3.0,4.0,-9.0,-4.0,-2.0,-3.0,-1.0,0.0,1651087142887510.0
-2.0,-12.0,5.0,0.0,0.0,-2.0,-1.0,-2.0,1651087142887510.0
0.0,5.0,-5.0,-1.0,-1.0,-1.0,0.0,1.0,1651087142901359.0
-2.0,4.0,2.0,-2.0,-1.0,1.0,1.0,-1.0,1651087142901359.0
0.0,2.0,-4.0,-4.0,-4.0,1.0,-1.0,-1.0,1651087142902214.0
0.0,3.0,2.0,7.0,-2.0,-1.0,0.0,2.0,1651087142902214.0
-2.0,-12.0,-1.0,-1.0,2.0,-1.0,-1.0,-1.0,1651087142923061.0
0.0,3.0,-3.0,6.0,-1.0,1.0,1.0,0.0,1651087142923061.0
2.0,-4.0,7.0,-2.0,0.0,0.0,0.0,0.0,1651087142925091.0
0.0,15.0,-7.0,0.0,-1.0,-3.0,-1.0,-2.0,1651087142925091.0
-2.0,-5.0,7.0,-3.0,-2.0,1.0,0.0,0.0,1651087142945364.0
0.0,0.0,9.0,-1.0,-2.0,0.0,-1.0,0.0,1651087142945364.0
-3.0,4.0,-5.0,6.0,4.0,0.0,1.0,-1.0,1651087142953020.0
0.0,-14.0,6.0,0.0,0.0,-1.0,0.0,-1.0,1651087142953020.0
0.0,2.0,-9.0,0.0,-2.0,-1.0,0.0,-2.0,1651087142961362.0
0.0,1.0,-2.0,-4.0,-5.0,-2.0,0.0,-1.0,1651087142961362.0
0.0,-2.0,15.0,11.0,3.0,3.0,-1.0,-1.0,1651087142962217.0
0.0,3.0,-6.0,-4.0,-2.0,-3.0,-1.0,-1.0,1651087142962217.0
0.0,4.0,4.0,1.0,4.0,-1.0,-2.0,-1.0,1651087142983215.0
-1.0,-2.0,4.0,1.0,-1.0,2.0,1.0,2.0,1651087142983215.0
1.0,0.0,-1.0,-2.0,2.0,2.0,-1.0,-1.0,1651087142985245.0
-1.0,4.0,11.0,5.0,1.0,0.0,-1.0,-1.0,1651087142985245.0
0.0,-1.0,-8.0,-2.0,-1.0,-2.0,0.0,2.0,1651087143005522.0
1.0,-2.0,-2.0,0.0,-5.0,-3.0,-1.0,-1.0,1651087143005522.0
-1.0,-10.0,0.0,0.0,4.0,4.0,2.0,-1.0,1651087143007366.0
0.0,8.0,-1.0,4.0,3.0,2.0,1.0,-1.0,1651087143007366.0
1.0,-8.0,-2.0,-4.0,-2.0,-2.0,-1.0,-1.0,1651087143020491.0
0.0,3.0,4.0,4.0,0.0,-1.0,0.0,-1.0,1651087143020491.0
-3.0,-2.0,1.0,-2.0,-4.0,-2.0,-1.0,-2.0,1651087143034220.0
2.0,-14.0,-6.0,-9.0,-2.0,0.0,-1.0,0.0,1651087143034220.0
0.0,3.0,-10.0,0.0,-4.0,-1.0,-1.0,0.0,1651087143043217.0
1.0,0.0,-9.0,-6.0,1.0,-1.0,-2.0,0.0,1651087143043217.0
-1.0,1.0,6.0,-1.0,0.0,-1.0,0.0,0.0,1651087143045246.0
-1.0,-2.0,1.0,2.0,1.0,1.0,0.0,-2.0,1651087143045246.0
0.0,12.0,-5.0,-8.0,-4.0,-5.0,-1.0,0.0,1651087143065206.0
-2.0,-3.0,-1.0,-3.0,-7.0,-2.0,-2.0,-1.0,1651087143065206.0
-2.0,9.0,2.0,2.0,5.0,5.0,0.0,1.0,1651087143067200.0
-1.0,-3.0,-7.0,-1.0,2.0,-2.0,0.0,2.0,1651087143067200.0
-1.0,-7.0,10.0,-2.0,-2.0,-2.0,-2.0,-3.0,1651087143080208.0
-2.0,5.0,4.0,-1.0,-1.0,-3.0,-2.0,-2.0,1651087143080208.0
0.0,4.0,10.0,3.0,-2.0,-2.0,0.0,-2.0,1651087143087148.0
0.0,3.0,15.0,1.0,-3.0,-1.0,0.0,-1.0,1651087143087148.0
-2.0,-8.0,-34.0,0.0,1.0,2.0,-1.0,-2.0,1651087143103105.0
-2.0,1.0,13.0,5.0,7.0,2.0,0.0,-1.0,1651087143103105.0
0.0,11.0,-4.0,-7.0,-7.0,-4.0,-2.0,-1.0,1651087143105101.0
-3.0,-23.0,-6.0,0.0,-8.0,-4.0,-3.0,-2.0,1651087143105101.0
-1.0,22.0,17.0,-2.0,2.0,3.0,-1.0,0.0,1651087143126086.0
-2.0,3.0,1.0,0.0,-1.0,0.0,0.0,-1.0,1651087143126086.0
-3.0,-7.0,-17.0,-1.0,-2.0,-1.0,-4.0,0.0,1651087143127041.0
0.0,3.0,-9.0,-2.0,-11.0,-3.0,0.0,0.0,1651087143127041.0
0.0,0.0,-1.0,6.0,19.0,3.0,3.0,1.0,1651087143148029.0
-1.0,0.0,-3.0,1.0,-6.0,-4.0,-1.0,-1.0,1651087143148029.0
0.0,-5.0,9.0,-12.0,-1.0,0.0,-2.0,-1.0,1651087143150011.0
0.0,-7.0,-31.0,2.0,-2.0,2.0,-1.0,1.0,1651087143150011.0
-3.0,-11.0,6.0,5.0,-8.0,-2.0,-1.0,-2.0,1651087143163975.0
1.0,0.0,0.0,0.0,1.0,1.0,1.0,1.0,1651087143163975.0
1.0,0.0,-9.0,-2.0,-3.0,-3.0,1.0,-1.0,1651087143164971.0
0.0,9.0,13.0,-6.0,-2.0,-2.0,-2.0,-1.0,1651087143164971.0
0.0,-6.0,-15.0,-1.0,-4.0,0.0,-1.0,0.0,1651087143185916.0
-2.0,-6.0,-12.0,-3.0,2.0,0.0,0.0,0.0,1651087143185916.0
-1.0,-3.0,2.0,-6.0,-10.0,-1.0,0.0,-2.0,1651087143186913.0
-1.0,-5.0,0.0,1.0,7.0,4.0,1.0,-1.0,1651087143186913.0
0.0,-9.0,-4.0,-4.0,-11.0,-2.0,-2.0,-2.0,1651087143199877.0
-2.0,-7.0,1.0,4.0,-8.0,-4.0,0.0,-2.0,1651087143199877.0
0.0,-5.0,-9.0,-8.0,2.0,-3.0,0.0,-1.0,1651087143206828.0
3.0,12.0,10.0,0.0,-9.0,-2.0,3.0,3.0,1651087143206828.0
-2.0,-4.0,2.0,18.0,42.0,11.0,2.0,2.0,1651087143223814.0
2.0,-11.0,2.0,-8.0,-12.0,1.0,-1.0,-1.0,1651087143223814.0
-1.0,3.0,-13.0,-5.0,-8.0,-1.0,-1.0,-1.0,1651087143228801.0
1.0,6.0,7.0,6.0,7.0,1.0,0.0,-2.0,1651087143228801.0
-2.0,-19.0,-1.0,-23.0,-41.0,-22.0,-5.0,-2.0,1651087143252736.0
-3.0,10.0,4.0,3.0,1.0,4.0,0.0,-1.0,1651087143252736.0
2.0,-1.0,4.0,-6.0,2.0,3.0,0.0,0.0,1651087143254700.0
0.0,3.0,1.0,8.0,12.0,1.0,-1.0,0.0,1651087143254700.0
-3.0,-6.0,-7.0,-5.0,5.0,5.0,0.0,0.0,1651087143259719.0
-3.0,2.0,-5.0,-9.0,-4.0,-6.0,-2.0,-3.0,1651087143259719.0
4.0,5.0,0.0,1.0,-8.0,-5.0,-1.0,-1.0,1651087143266667.0
-4.0,-3.0,-7.0,-6.0,-3.0,0.0,0.0,-1.0,1651087143266667.0
-1.0,-7.0,17.0,5.0,5.0,3.0,1.0,0.0,1651087143282657.0
-1.0,-2.0,-1.0,3.0,5.0,0.0,0.0,3.0,1651087143282657.0
-3.0,4.0,2.0,3.0,3.0,0.0,-1.0,0.0,1651087143290604.0
0.0,-3.0,7.0,1.0,2.0,1.0,-1.0,-1.0,1651087143290604.0
-1.0,8.0,4.0,3.0,-4.0,2.0,0.0,0.0,1651087143305598.0
-2.0,-14.0,-3.0,4.0,14.0,6.0,1.0,1.0,1651087143305598.0
2.0,1.0,9.0,16.0,19.0,4.0,0.0,0.0,1651087143311588.0
-1.0,-3.0,-5.0,-1.0,-2.0,-1.0,1.0,2.0,1651087143311588.0
-4.0,17.0,-1.0,-3.0,-9.0,-2.0,-1.0,0.0,1651087143319557.0
3.0,-4.0,-5.0,-8.0,-4.0,-2.0,-1.0,1.0,1651087143319557.0
0.0,-1.0,0.0,0.0,-7.0,2.0,1.0,0.0,1651087143328536.0
-1.0,1.0,-1.0,1.0,4.0,-2.0,-1.0,-1.0,1651087143328536.0
3.0,3.0,-1.0,-4.0,0.0,1.0,1.0,0.0,1651087143344201.0
1.0,3.0,-4.0,2.0,2.0,-2.0,0.0,0.0,1651087143344201.0
-3.0,-3.0,6.0,10.0,6.0,-1.0,0.0,-3.0,1651087143345103.0
0.0,-2.0,-6.0,-13.0,-12.0,-2.0,-3.0,-1.0,1651087143345103.0
-1.0,2.0,-8.0,8.0,6.0,1.0,-1.0,0.0,1651087143365573.0
-1.0,-4.0,-6.0,6.0,9.0,5.0,0.0,0.0,1651087143365573.0
-1.0,-12.0,-4.0,-7.0,-2.0,0.0,0.0,1.0,1651087143367457.0
-1.0,14.0,3.0,1.0,4.0,0.0,-2.0,-1.0,1651087143367457.0
1.0,-1.0,12.0,2.0,-6.0,-1.0,-1.0,-1.0,1651087143379697.0
-2.0,4.0,-16.0,-8.0,0.0,-1.0,-2.0,-1.0,1651087143379697.0
-2.0,-5.0,-3.0,-4.0,-11.0,-6.0,-2.0,-1.0,1651087143388704.0
-3.0,-12.0,-8.0,-1.0,9.0,4.0,-1.0,-3.0,1651087143388704.0
2.0,-2.0,3.0,-11.0,-11.0,-6.0,-1.0,2.0,1651087143403214.0
0.0,15.0,20.0,16.0,-2.0,-2.0,-1.0,-2.0,1651087143403214.0
0.0,-1.0,-11.0,1.0,12.0,1.0,1.0,0.0,1651087143405242.0
-1.0,1.0,-2.0,7.0,-1.0,-1.0,0.0,-1.0,1651087143405242.0
1.0,3.0,8.0,-5.0,1.0,3.0,0.0,-1.0,1651087143426207.0
-1.0,-5.0,-6.0,-13.0,-7.0,-1.0,-1.0,0.0,1651087143426207.0
0.0,15.0,18.0,-8.0,-16.0,-5.0,-6.0,-3.0,1651087143427053.0
5.0,2.0,0.0,5.0,-4.0,-1.0,1.0,3.0,1651087143427053.0
-1.0,-10.0,-3.0,3.0,4.0,-2.0,-1.0,0.0,1651087143439216.0
-2.0,5.0,3.0,2.0,1.0,-2.0,0.0,-3.0,1651087143439216.0
-4.0,9.0,-2.0,3.0,2.0,0.0,-2.0,-2.0,1651087143448214.0
2.0,-24.0,-9.0,-9.0,2.0,4.0,0.0,3.0,1651087143448214.0
-10.0,-2.0,-6.0,-7.0,-11.0,-4.0,-2.0,-4.0,1651087143463210.0
-6.0,-8.0,11.0,5.0,-7.0,-4.0,-2.0,0.0,1651087143463210.0
4.0,-4.0,-11.0,2.0,15.0,5.0,2.0,3.0,1651087143465208.0
-5.0,3.0,2.0,-2.0,-15.0,-9.0,-2.0,-3.0,1651087143465208.0
16.0,5.0,2.0,-1.0,11.0,8.0,1.0,1.0,1651087143486233.0
1.0,-4.0,-7.0,-13.0,-9.0,-2.0,-2.0,-4.0,1651087143486233.0
-1.0,7.0,2.0,13.0,-5.0,-6.0,-5.0,-4.0,1651087143487196.0
4.0,-3.0,-5.0,-13.0,0.0,0.0,-1.0,3.0,1651087143487196.0
-21.0,-23.0,-4.0,7.0,-1.0,-3.0,-3.0,-7.0,1651087143499817.0
-1.0,0.0,-5.0,-6.0,7.0,5.0,2.0,1.0,1651087143499817.0
16.0,2.0,6.0,2.0,-1.0,-1.0,-2.0,-2.0,1651087143507959.0
4.0,10.0,7.0,-1.0,-1.0,-1.0,4.0,7.0,1651087143507959.0
10.0,7.0,0.0,3.0,-3.0,-2.0,-2.0,-1.0,1651087143523885.0
-7.0,-13.0,-4.0,-1.0,7.0,1.0,0.0,0.0,1651087143523885.0
-11.0,7.0,-4.0,-9.0,-7.0,-3.0,-1.0,-3.0,1651087143525878.0
1.0,4.0,-1.0,11.0,10.0,2.0,-1.0,-3.0,1651087143525878.0
-3.0,-5.0,-3.0,-4.0,4.0,1.0,4.0,3.0,1651087143545371.0
8.0,2.0,10.0,6.0,-3.0,-3.0,-2.0,0.0,1651087143545371.0
-22.0,-6.0,-6.0,-5.0,-6.0,0.0,1.0,1.0,1651087143547203.0
-6.0,-24.0,-1.0,-9.0,-5.0,-3.0,-3.0,-3.0,1651087143547203.0
31.0,36.0,-1.0,15.0,16.0,6.0,2.0,0.0,1651087143560453.0
4.0,-26.0,-1.0,9.0,10.0,4.0,2.0,4.0,1651087143560453.0
17.0,28.0,-6.0,-20.0,-24.0,-7.0,-1.0,1.0,1651087143568312.0
-29.0,-65.0,-5.0,-5.0,3.0,-1.0,-4.0,-5.0,1651087143568312.0
-14.0,29.0,-8.0,-9.0,-16.0,-9.0,-5.0,-8.0,1651087143583189.0
14.0,-1.0,24.0,10.0,-3.0,-7.0,-3.0,-1.0,1651087143583189.0
-7.0,-3.0,-7.0,8.0,18.0,12.0,4.0,1.0,1651087143591307.0
31.0,32.0,-9.0,-22.0,-12.0,-5.0,2.0,5.0,1651087143591307.0
-38.0,0.0,-1.0,-14.0,-9.0,-2.0,-1.0,2.0,1651087143607253.0
-26.0,-38.0,-4.0,14.0,19.0,8.0,-1.0,-6.0,1651087143607253.0
-5.0,-42.0,8.0,8.0,2.0,-3.0,4.0,4.0,1651087143608225.0
20.0,30.0,2.0,6.0,-8.0,-2.0,-5.0,-6.0,1651087143608225.0
-30.0,3.0,4.0,-4.0,-10.0,-1.0,8.0,-4.0,1651087143620412.0
30.0,27.0,-4.0,-4.0,-5.0,1.0,0.0,16.0,1651087143620412.0
-20.0,-2.0,-9.0,-1.0,5.0,-4.0,-17.0,-23.0,1651087143628258.0
11.0,13.0,0.0,-9.0,-8.0,-5.0,9.0,1.0,1651087143628258.0
4.0,-11.0,-5.0,10.0,18.0,4.0,6.0,42.0,1651087143643234.0
-19.0,-45.0,5.0,-2.0,-1.0,4.0,-3.0,-20.0,1651087143643234.0
25.0,90.0,-2.0,-12.0,-30.0,-14.0,-7.0,2.0,1651087143644268.0
-36.0,-58.0,1.0,13.0,27.0,7.0,-6.0,-2.0,1651087143644268.0
70.0,45.0,4.0,-8.0,-7.0,-2.0,-8.0,-18.0,1651087143666378.0
-9.0,-13.0,-10.0,-1.0,-10.0,-8.0,1.0,-3.0,1651087143666378.0
-31.0,-9.0,10.0,5.0,9.0,9.0,8.0,14.0,1651087143667236.0
-9.0,-11.0,-4.0,-15.0,-21.0,-16.0,-22.0,4.0,1651087143667236.0
-63.0,23.0,14.0,26.0,17.0,3.0,3.0,3.0,1651087143679735.0
20.0,1.0,1.0,-11.0,4.0,9.0,1.0,-2.0,1651087143679735.0
5.0,-19.0,-14.0,3.0,-29.0,-10.0,-5.0,-26.0,1651087143696324.0
-44.0,26.0,4.0,-1.0,18.0,13.0,9.0,-7.0,1651087143696324.0
36.0,39.0,9.0,15.0,8.0,0.0,-6.0,23.0,1651087143703199.0
-49.0,-40.0,-5.0,-11.0,-1.0,5.0,30.0,-1.0,1651087143703199.0
33.0,0.0,2.0,3.0,-4.0,-6.0,6.0,37.0,1651087143705240.0
46.0,14.0,-8.0,5.0,0.0,4.0,7.0,-3.0,1651087143705240.0
15.0,16.0,6.0,-9.0,-18.0,-9.0,-33.0,-3.0,1651087143726443.0
44.0,73.0,-6.0,9.0,13.0,2.0,15.0,12.0,1651087143726443.0
-26.0,-92.0,-2.0,-3.0,20.0,3.0,-7.0,-6.0,1651087143727311.0
40.0,60.0,-4.0,2.0,-7.0,10.0,5.0,2.0,1651087143727311.0
-56.0,-42.0,0.0,19.0,22.0,8.0,6.0,-11.0,1651087143739418.0
-19.0,-10.0,-21.0,-26.0,-16.0,-11.0,-16.0,-24.0,1651087143739418.0
-18.0,-42.0,0.0,-11.0,-10.0,-1.0,9.0,19.0,1651087143748004.0
-15.0,24.0,20.0,21.0,18.0,9.0,-6.0,-37.0,1651087143748004.0
-21.0,-35.0,10.0,-2.0,-25.0,-7.0,-2.0,-21.0,1651087143762304.0
-64.0,-37.0,-13.0,-9.0,3.0,-4.0,-3.0,26.0,1651087143762304.0
37.0,94.0,24.0,24.0,27.0,17.0,22.0,40.0,1651087143770067.0
-23.0,-18.0,-2.0,-16.0,-9.0,-4.0,8.0,3.0,1651087143770067.0
-15.0,68.0,10.0,-3.0,-23.0,-11.0,-5.0,6.0,1651087143786661.0
72.0,56.0,16.0,13.0,23.0,11.0,1.0,4.0,1651087143786661.0
-11.0,20.0,0.0,-16.0,-8.0,-2.0,-5.0,-13.0,1651087143787676.0
72.0,-34.0,-4.0,10.0,-29.0,-18.0,-7.0,18.0,1651087143787676.0
34.0,2.0,-7.0,4.0,66.0,28.0,18.0,-10.0,1651087143808687.0
69.0,-4.0,17.0,11.0,-12.0,-13.0,-18.0,22.0,1651087143808687.0
-51.0,-48.0,-4.0,9.0,-4.0,-7.0,-18.0,-15.0,1651087143810070.0
-11.0,6.0,-9.0,-10.0,-7.0,-5.0,-9.0,-11.0,1651087143810070.0
-15.0,0.0,7.0,-9.0,-7.0,-8.0,-19.0,-67.0,1651087143823190.0
6.0,18.0,-12.0,-6.0,-15.0,1.0,20.0,75.0,1651087143823190.0
59.0,127.0,8.0,-8.0,-8.0,4.0,9.0,2.0,1651087143825218.0
-11.0,-57.0,14.0,15.0,26.0,15.0,-1.0,-8.0,1651087143825218.0
46.0,-4.0,-27.0,-19.0,-15.0,-10.0,-3.0,24.0,1651087143846203.0
-45.0,45.0,6.0,-5.0,-5.0,0.0,2.0,-17.0,1651087143846203.0
26.0,71.0,15.0,12.0,-2.0,-5.0,-14.0,-29.0,1651087143847168.0
-26.0,-29.0,-10.0,-2.0,5.0,2.0,24.0,30.0,1651087143847168.0
-8.0,-35.0,-26.0,15.0,3.0,0.0,-10.0,6.0,1651087143868211.0
-40.0,8.0,24.0,-10.0,-8.0,-1.0,2.0,-6.0,1651087143868211.0
95.0,-58.0,-9.0,-3.0,18.0,2.0,5.0,-8.0,1651087143870139.0
4.0,78.0,23.0,12.0,-12.0,-10.0,-3.0,-6.0,1651087143870139.0
50.0,13.0,0.0,1.0,22.0,15.0,10.0,20.0,1651087143883189.0
-31.0,-8.0,-10.0,4.0,-13.0,-10.0,-6.0,-16.0,1651087143883189.0
-37.0,24.0,2.0,1.0,7.0,-3.0,-14.0,-15.0,1651087143885098.0
2.0,20.0,-4.0,-7.0,7.0,-1.0,-21.0,-9.0,1651087143885098.0
-12.0,-18.0,8.0,-25.0,-60.0,-18.0,10.0,7.0,1651087143905289.0
-65.0,-71.0,-12.0,16.0,34.0,10.0,-13.0,-26.0,1651087143905289.0
-93.0,-36.0,-14.0,12.0,14.0,4.0,-6.0,-22.0,1651087143907166.0
38.0,76.0,11.0,-16.0,-38.0,-11.0,3.0,10.0,1651087143907166.0
30.0,57.0,-2.0,2.0,15.0,10.0,19.0,29.0,1651087143928688.0
-5.0,-57.0,19.0,8.0,-7.0,-2.0,-18.0,-44.0,1651087143928688.0
0.0,34.0,-37.0,-23.0,-16.0,-8.0,3.0,6.0,1651087143930109.0
-36.0,-103.0,-8.0,-1.0,-14.0,-5.0,1.0,16.0,1651087143930109.0
41.0,19.0,1.0,8.0,16.0,4.0,-8.0,-26.0,1651087143943180.0
45.0,80.0,-2.0,-4.0,7.0,-1.0,0.0,18.0,1651087143943180.0
10.0,17.0,17.0,1.0,-6.0,-3.0,7.0,17.0,1651087143945178.0
64.0,46.0,13.0,-8.0,-25.0,-9.0,-12.0,-16.0,1651087143945178.0
-32.0,-97.0,-29.0,-8.0,4.0,-2.0,12.0,18.0,1651087143966173.0
-25.0,13.0,0.0,8.0,1.0,10.0,-1.0,-15.0,1651087143966173.0
11.0,-77.0,-17.0,-13.0,-18.0,-6.0,4.0,3.0,1651087143967202.0
-10.0,47.0,-16.0,-24.0,4.0,2.0,6.0,22.0,1651087143967202.0
-3.0,-29.0,-5.0,19.0,2.0,-2.0,-27.0,-35.0,1651087143988219.0
-5.0,59.0,2.0,20.0,3.0,-1.0,14.0,5.0,1651087143988219.0
55.0,86.0,18.0,2.0,9.0,6.0,23.0,16.0,1651087143990106.0
-82.0,-93.0,-24.0,-3.0,3.0,-2.0,-15.0,-28.0,1651087143990106.0
-12.0,7.0,0.0,1.0,-4.0,4.0,8.0,20.0,1651087144002367.0
20.0,-16.0,9.0,-9.0,-20.0,-16.0,-8.0,-11.0,1651087144002367.0
-27.0,-36.0,-25.0,-35.0,-26.0,-9.0,-6.0,15.0,1651087144009200.0
10.0,58.0,22.0,55.0,60.0,24.0,17.0,-7.0,1651087144009200.0
-27.0,-36.0,1.0,-14.0,-3.0,-2.0,4.0,23.0,1651087144027181.0
7.0,72.0,22.0,-3.0,-21.0,-3.0,-8.0,-16.0,1651087144027181.0
-94.0,-91.0,-34.0,-12.0,-2.0,-5.0,-10.0,-37.0,1651087144028082.0
67.0,122.0,1.0,-8.0,-1.0,-5.0,-32.0,-3.0,1651087144028082.0
29.0,-7.0,4.0,13.0,-4.0,5.0,28.0,-15.0,1651087144048332.0
-7.0,6.0,-7.0,0.0,16.0,5.0,-5.0,35.0,1651087144048332.0
1.0,-40.0,-5.0,-17.0,-15.0,-4.0,3.0,15.0,1651087144050209.0
-9.0,12.0,16.0,25.0,24.0,13.0,8.0,22.0,1651087144050209.0
-8.0,-68.0,-8.0,1.0,7.0,2.0,-10.0,-38.0,1651087144062507.0
6.0,-32.0,-21.0,-21.0,-23.0,-21.0,-46.0,-39.0,1651087144062507.0
33.0,37.0,7.0,6.0,16.0,8.0,37.0,60.0,1651087144069218.0
-17.0,-25.0,6.0,-8.0,-7.0,-6.0,-2.0,0.0,1651087144069218.0
-7.0,-23.0,2.0,-3.0,3.0,1.0,1.0,3.0,1651087144093196.0
17.0,-5.0,-22.0,-14.0,-13.0,0.0,-6.0,-33.0,1651087144093196.0
-5.0,-17.0,7.0,25.0,13.0,-3.0,-17.0,-2.0,1651087144095226.0
2.0,-24.0,0.0,3.0,11.0,10.0,25.0,31.0,1651087144095226.0
-28.0,62.0,-4.0,-23.0,-36.0,-25.0,-23.0,-23.0,1651087144108983.0
-2.0,-27.0,-7.0,-2.0,-18.0,-12.0,2.0,-2.0,1651087144108983.0
31.0,71.0,11.0,19.0,25.0,18.0,-1.0,2.0,1651087144110076.0
-15.0,-20.0,-11.0,-19.0,-16.0,-6.0,8.0,-13.0,1651087144110076.0
29.0,127.0,10.0,-7.0,-16.0,-6.0,-7.0,10.0,1651087144122795.0
-56.0,-74.0,-14.0,6.0,25.0,7.0,4.0,24.0,1651087144122795.0
14.0,45.0,10.0,9.0,6.0,6.0,-2.0,-14.0,1651087144129050.0
-4.0,-48.0,-4.0,-12.0,-11.0,-4.0,-2.0,-39.0,1651087144129050.0
-31.0,-1.0,3.0,3.0,2.0,4.0,7.0,45.0,1651087144146207.0
55.0,-35.0,-8.0,-19.0,-7.0,-1.0,13.0,-5.0,1651087144146207.0
-27.0,-61.0,0.0,7.0,7.0,-6.0,-35.0,-39.0,1651087144147236.0
-2.0,-31.0,-14.0,12.0,16.0,1.0,8.0,3.0,1651087144147236.0
-14.0,-25.0,21.0,-10.0,-15.0,-6.0,-10.0,3.0,1651087144169167.0
-4.0,57.0,5.0,1.0,7.0,12.0,23.0,12.0,1651087144169167.0
21.0,8.0,23.0,20.0,11.0,2.0,-3.0,9.0,1651087144170199.0
-30.0,6.0,-16.0,-6.0,-2.0,-5.0,-11.0,-16.0,1651087144170199.0
14.0,5.0,-2.0,5.0,18.0,2.0,4.0,-2.0,1651087144183296.0
-34.0,-10.0,-18.0,-14.0,-2.0,-1.0,-17.0,-15.0,1651087144183296.0
73.0,32.0,6.0,-13.0,-7.0,-7.0,8.0,4.0,1651087144189166.0
-72.0,63.0,21.0,25.0,-3.0,-1.0,-12.0,-2.0,1651087144189166.0
-11.0,36.0,-1.0,3.0,15.0,14.0,23.0,41.0,1651087144206134.0
49.0,34.0,-8.0,-3.0,-10.0,-6.0,-21.0,-39.0,1651087144206134.0
-50.0,-97.0,-17.0,7.0,-4.0,3.0,20.0,36.0,1651087144207070.0
27.0,45.0,12.0,-20.0,-16.0,-12.0,-7.0,-12.0,1651087144207070.0
9.0,-3.0,-7.0,-13.0,-21.0,-9.0,-7.0,-11.0,1651087144229126.0
19.0,44.0,16.0,20.0,22.0,14.0,6.0,10.0,1651087144229126.0
5.0,17.0,15.0,-3.0,-12.0,-11.0,-40.0,-60.0,1651087144230158.0
-32.0,15.0,-12.0,-7.0,20.0,9.0,22.0,43.0,1651087144230158.0
-12.0,-50.0,-13.0,1.0,-8.0,0.0,-4.0,-14.0,1651087144243159.0
15.0,43.0,-1.0,-20.0,-9.0,-7.0,-1.0,2.0,1651087144243159.0
-72.0,-65.0,-8.0,0.0,-11.0,-2.0,5.0,-3.0,1651087144249145.0
67.0,74.0,12.0,9.0,-2.0,5.0,9.0,17.0,1651087144249145.0
-11.0,-75.0,-4.0,6.0,4.0,-4.0,-7.0,-11.0,1651087144265225.0
-1.0,38.0,2.0,9.0,8.0,5.0,11.0,16.0,1651087144265225.0
46.0,114.0,10.0,-7.0,2.0,1.0,-9.0,-23.0,1651087144267220.0
-27.0,-55.0,-17.0,-29.0,-29.0,-16.0,-16.0,-34.0,1651087144267220.0
18.0,33.0,2.0,46.0,73.0,19.0,19.0,57.0,1651087144288835.0
28.0,17.0,13.0,4.0,-13.0,-5.0,-16.0,-42.0,1651087144288835.0
-43.0,-17.0,8.0,-3.0,-7.0,0.0,28.0,31.0,1651087144290074.0
29.0,-7.0,-9.0,10.0,12.0,8.0,16.0,38.0,1651087144290074.0
-21.0,-1.0,4.0,-8.0,-11.0,-6.0,-24.0,-40.0,1651087144303095.0
-28.0,-25.0,4.0,-4.0,6.0,2.0,22.0,32.0,1651087144303095.0
18.0,-29.0,-21.0,-32.0,-2.0,4.0,-17.0,-32.0,1651087144311463.0
-35.0,-32.0,-6.0,23.0,-8.0,-12.0,-27.0,-42.0,1651087144311463.0
22.0,27.0,-9.0,-18.0,-13.0,4.0,24.0,22.0,1651087144326351.0
-22.0,19.0,11.0,6.0,-16.0,-4.0,2.0,-4.0,1651087144326351.0
-16.0,21.0,1.0,21.0,19.0,9.0,14.0,16.0,1651087144327205.0
6.0,-12.0,-2.0,-10.0,-2.0,-8.0,-12.0,-2.0,1651087144327205.0
-34.0,-16.0,7.0,5.0,14.0,5.0,-12.0,-21.0,1651087144349151.0
58.0,24.0,-12.0,-27.0,-19.0,-9.0,-23.0,-57.0,1651087144349151.0
-35.0,-39.0,3.0,11.0,12.0,3.0,40.0,88.0,1651087144350152.0
96.0,94.0,17.0,7.0,1.0,8.0,0.0,6.0,1651087144350152.0
-24.0,-58.0,4.0,-6.0,-14.0,-2.0,3.0,-6.0,1651087144362339.0
31.0,-4.0,-11.0,-1.0,-7.0,2.0,2.0,4.0,1651087144362339.0
-8.0,-2.0,-1.0,-2.0,-2.0,1.0,-4.0,-21.0,1651087144371415.0
19.0,54.0,-1.0,9.0,2.0,0.0,-8.0,12.0,1651087144371415.0
-32.0,-72.0,-4.0,-12.0,-8.0,-7.0,6.0,4.0,1651087144386234.0
-28.0,-22.0,6.0,15.0,12.0,0.0,5.0,13.0,1651087144386234.0
66.0,63.0,10.0,-4.0,-18.0,-4.0,-19.0,-22.0,1651087144387200.0
-79.0,-116.0,-21.0,-6.0,18.0,1.0,2.0,-5.0,1651087144387200.0
2.0,82.0,6.0,1.0,-11.0,-5.0,-12.0,-15.0,1651087144408670.0
20.0,-28.0,-21.0,-32.0,-34.0,-13.0,-2.0,34.0,1651087144408670.0
32.0,39.0,21.0,54.0,62.0,20.0,7.0,12.0,1651087144410074.0
-14.0,-22.0,15.0,-9.0,-17.0,-2.0,3.0,9.0,1651087144410074.0
21.0,58.0,-6.0,-8.0,1.0,-3.0,-3.0,-21.0,1651087144422339.0
-69.0,-88.0,-14.0,-21.0,-10.0,-9.0,-2.0,16.0,1651087144422339.0
17.0,-10.0,1.0,-10.0,-16.0,0.0,4.0,5.0,1651087144431411.0
-16.0,8.0,-8.0,-5.0,-16.0,1.0,3.0,2.0,1651087144431411.0
9.0,-62.0,-11.0,16.0,15.0,4.0,-1.0,-20.0,1651087144446241.0
-31.0,28.0,5.0,-12.0,4.0,3.0,14.0,30.0,1651087144446241.0
-13.0,-6.0,-23.0,-14.0,-5.0,-5.0,-25.0,-34.0,1651087144447206.0
16.0,-3.0,23.0,15.0,-11.0,-2.0,0.0,-1.0,1651087144447206.0
5.0,74.0,-5.0,-15.0,4.0,-1.0,-20.0,-34.0,1651087144468691.0
-20.0,-82.0,17.0,9.0,-11.0,3.0,33.0,43.0,1651087144468691.0
-6.0,-43.0,-18.0,16.0,47.0,10.0,4.0,-6.0,1651087144470078.0
-35.0,-26.0,-7.0,-9.0,-9.0,-2.0,5.0,2.0,1651087144470078.0
22.0,45.0,19.0,22.0,-8.0,-5.0,-18.0,-21.0,1651087144482191.0
49.0,63.0,14.0,17.0,28.0,20.0,22.0,30.0,1651087144482191.0
-63.0,-33.0,1.0,-21.0,-16.0,-13.0,-28.0,-34.0,1651087144491221.0
111.0,13.0,-25.0,-9.0,6.0,5.0,27.0,23.0,1651087144491221.0
4.0,-52.0,16.0,9.0,-7.0,1.0,7.0,17.0,1651087144505348.0
-24.0,29.0,2.0,3.0,6.0,-7.0,-7.0,-11.0,1651087144505348.0
23.0,27.0,-7.0,-9.0,-28.0,-12.0,-1.0,-6.0,1651087144507197.0
-17.0,29.0,12.0,3.0,16.0,6.0,-18.0,-20.0,1651087144507197.0
7.0,23.0,-1.0,0.0,9.0,4.0,11.0,1.0,1651087144528181.0
21.0,-71.0,-23.0,-18.0,5.0,-8.0,-5.0,11.0,1651087144528181.0
-22.0,-45.0,5.0,8.0,2.0,2.0,2.0,-3.0,1651087144530133.0
-45.0,-12.0,-9.0,-6.0,-25.0,-13.0,1.0,-15.0,1651087144530133.0
-14.0,28.0,7.0,6.0,16.0,14.0,9.0,22.0,1651087144542411.0
32.0,-17.0,-25.0,3.0,-3.0,-2.0,-6.0,-10.0,1651087144542411.0
20.0,55.0,5.0,0.0,-7.0,-2.0,0.0,-1.0,1651087144551353.0
-37.0,-13.0,-2.0,-12.0,-5.0,-3.0,-8.0,3.0,1651087144551353.0
-28.0,-84.0,-14.0,-1.0,-12.0,-8.0,-3.0,1.0,1651087144565350.0
38.0,72.0,-8.0,7.0,10.0,2.0,-3.0,5.0,1651087144565350.0
5.0,-25.0,10.0,-13.0,-13.0,-2.0,20.0,45.0,1651087144567204.0
12.0,-42.0,-4.0,-9.0,-13.0,1.0,-8.0,-30.0,1651087144567204.0
5.0,39.0,7.0,10.0,19.0,5.0,-4.0,19.0,1651087144589149.0
-5.0,38.0,9.0,14.0,-5.0,-5.0,-25.0,-48.0,1651087144589149.0
-65.0,26.0,-13.0,-11.0,-16.0,5.0,14.0,11.0,1651087144590151.0
29.0,18.0,18.0,6.0,13.0,-2.0,15.0,17.0,1651087144590151.0
-15.0,-14.0,-25.0,-33.0,-30.0,-13.0,-33.0,-24.0,1651087144602459.0
-40.0,9.0,-2.0,18.0,11.0,2.0,6.0,-21.0,1651087144602459.0
41.0,55.0,12.0,-8.0,-26.0,-9.0,-13.0,26.0,1651087144618290.0
-35.0,-27.0,-9.0,-1.0,10.0,8.0,10.0,-20.0,1651087144618290.0
-7.0,30.0,26.0,35.0,22.0,0.0,8.0,26.0,1651087144626433.0
38.0,55.0,20.0,10.0,4.0,4.0,-8.0,-39.0,1651087144626433.0
-6.0,-26.0,-6.0,-24.0,-10.0,-4.0,-3.0,2.0,1651087144627266.0
43.0,-31.0,-19.0,3.0,15.0,8.0,21.0,41.0,1651087144627266.0
-24.0,-41.0,-4.0,-19.0,-26.0,-15.0,-1.0,-20.0,1651087144648381.0
-21.0,-8.0,-10.0,-16.0,-14.0,-6.0,3.0,0.0,1651087144648381.0
12.0,1.0,11.0,26.0,37.0,19.0,16.0,8.0,1651087144650247.0
-5.0,-21.0,-14.0,-12.0,-16.0,-13.0,-36.0,-45.0,1651087144650247.0
6.0,15.0,-8.0,-9.0,13.0,8.0,34.0,51.0,1651087144662635.0
-49.0,-103.0,0.0,-7.0,-7.0,-6.0,-28.0,-28.0,1651087144662635.0
-31.0,13.0,-2.0,-9.0,-17.0,-7.0,-3.0,-14.0,1651087144671417.0
-31.0,-30.0,-9.0,6.0,4.0,0.0,1.0,15.0,1651087144671417.0
30.0,19.0,19.0,-6.0,-19.0,-2.0,7.0,-18.0,1651087144686486.0
-13.0,-43.0,-16.0,5.0,23.0,4.0,0.0,3.0,1651087144686486.0
9.0,44.0,-2.0,-8.0,-7.0,-6.0,-23.0,-25.0,1651087144687332.0
-30.0,57.0,23.0,13.0,12.0,3.0,6.0,32.0,1651087144687332.0
60.0,16.0,-23.0,-6.0,-19.0,-13.0,-5.0,-18.0,1651087144709252.0
0.0,29.0,22.0,19.0,1.0,8.0,4.0,3.0,1651087144709252.0
-22.0,23.0,3.0,6.0,24.0,13.0,16.0,10.0,1651087144710252.0
-29.0,-52.0,-26.0,-21.0,-21.0,-7.0,-13.0,-21.0,1651087144710252.0
32.0,23.0,0.0,3.0,-7.0,-6.0,-26.0,-30.0,1651087144731119.0
-42.0,12.0,-2.0,-13.0,-13.0,0.0,40.0,52.0,1651087144731119.0
27.0,-37.0,3.0,15.0,19.0,-2.0,-18.0,-22.0,1651087144732116.0
31.0,59.0,26.0,17.0,10.0,3.0,11.0,0.0,1651087144732116.0
-25.0,-19.0,-2.0,-20.0,-10.0,0.0,-12.0,-18.0,1651087144745362.0
20.0,31.0,5.0,16.0,15.0,1.0,-4.0,14.0,1651087144745362.0
-26.0,-67.0,0.0,2.0,-8.0,-5.0,0.0,-10.0,1651087144747224.0
15.0,6.0,-11.0,-11.0,14.0,4.0,9.0,28.0,1651087144747224.0
35.0,-3.0,-8.0,-10.0,-11.0,1.0,-4.0,-10.0,1651087144769141.0
-19.0,-14.0,15.0,17.0,18.0,5.0,9.0,26.0,1651087144769141.0
22.0,-21.0,-41.0,-9.0,-13.0,-4.0,-12.0,-37.0,1651087144770140.0
-16.0,16.0,23.0,4.0,-15.0,-10.0,-6.0,15.0,1651087144770140.0
-5.0,3.0,1.0,8.0,31.0,16.0,13.0,18.0,1651087144790992.0
38.0,72.0,5.0,-8.0,-1.0,3.0,-2.0,25.0,1651087144790992.0
-22.0,6.0,0.0,-11.0,-19.0,-5.0,7.0,-10.0,1651087144792455.0
19.0,-24.0,4.0,11.0,5.0,2.0,-6.0,-41.0,1651087144792455.0
-18.0,-2.0,-8.0,-9.0,-9.0,-4.0,10.0,28.0,1651087144805389.0
25.0,47.0,8.0,7.0,6.0,9.0,0.0,-12.0,1651087144805389.0
-19.0,-34.0,-30.0,-30.0,-17.0,-8.0,-2.0,-4.0,1651087144807223.0
13.0,15.0,-2.0,1.0,9.0,4.0,-20.0,-11.0,1651087144807223.0
11.0,-1.0,5.0,11.0,-16.0,-5.0,20.0,52.0,1651087144828215.0
-17.0,5.0,1.0,2.0,20.0,7.0,-15.0,-29.0,1651087144828215.0
3.0,-8.0,10.0,8.0,4.0,-2.0,2.0,-18.0,1651087144830082.0
14.0,16.0,3.0,-4.0,1.0,2.0,20.0,34.0,1651087144830082.0
10.0,23.0,-33.0,-13.0,3.0,0.0,-18.0,-32.0,1651087144851250.0
-5.0,-68.0,-11.0,7.0,-14.0,-7.0,2.0,19.0,1651087144851250.0
-10.0,-11.0,23.0,6.0,-1.0,-1.0,17.0,22.0,1651087144852250.0
19.0,10.0,9.0,26.0,10.0,3.0,-10.0,-4.0,1651087144852250.0
-8.0,28.0,1.0,-6.0,7.0,1.0,26.0,22.0,1651087144865224.0
2.0,8.0,1.0,-20.0,-12.0,-7.0,-6.0,-4.0,1651087144865224.0
7.0,26.0,13.0,17.0,3.0,2.0,-19.0,-17.0,1651087144867219.0
-22.0,-5.0,-14.0,-20.0,-11.0,-5.0,2.0,8.0,1651087144867219.0
12.0,12.0,13.0,12.0,11.0,4.0,-1.0,7.0,1651087144895389.0
1.0,7.0,-11.0,-7.0,-5.0,-5.0,-12.0,-22.0,1651087144895389.0
-8.0,8.0,9.0,12.0,2.0,-1.0,0.0,-2.0,1651087144897221.0
-32.0,-34.0,3.0,-27.0,-14.0,-2.0,11.0,26.0,1651087144897221.0
-34.0,-61.0,2.0,10.0,9.0,3.0,-22.0,-21.0,1651087144911186.0
40.0,-1.0,-12.0,-11.0,-17.0,-9.0,-9.0,-26.0,1651087144911186.0
31.0,39.0,-13.0,12.0,21.0,4.0,26.0,58.0,1651087144912235.0
1.0,-9.0,2.0,2.0,-2.0,-3.0,-13.0,-27.0,1651087144912235.0
-6.0,0.0,15.0,2.0,-16.0,-7.0,-9.0,-22.0,1651087144926223.0
-19.0,-11.0,-14.0,6.0,30.0,9.0,19.0,32.0,1651087144926223.0
-9.0,-64.0,3.0,-19.0,-17.0,3.0,-12.0,-37.0,1651087144933029.0
10.0,23.0,1.0,22.0,28.0,13.0,9.0,6.0,1651087144933029.0
7.0,-1.0,-5.0,-7.0,-10.0,-9.0,-2.0,1.0,1651087144949242.0
-17.0,6.0,10.0,-3.0,-1.0,-3.0,-12.0,-21.0,1651087144949242.0
8.0,-8.0,-2.0,11.0,4.0,2.0,6.0,24.0,1651087144950243.0
-2.0,5.0,-2.0,2.0,1.0,-2.0,-5.0,-18.0,1651087144950243.0
-10.0,-5.0,6.0,0.0,-1.0,1.0,-4.0,-3.0,1651087144971344.0
8.0,6.0,4.0,0.0,-6.0,0.0,1.0,2.0,1651087144971344.0
5.0,8.0,-2.0,-4.0,-5.0,-3.0,7.0,15.0,1651087144972228.0
2.0,-11.0,10.0,4.0,-2.0,1.0,-11.0,-21.0,1651087144972228.0
-12.0,3.0,-16.0,-5.0,-8.0,-5.0,8.0,10.0,1651087144985334.0
-11.0,-17.0,-3.0,-4.0,-5.0,-4.0,-3.0,-3.0,1651087144985334.0
2.0,6.0,-7.0,-3.0,4.0,1.0,-4.0,1.0,1651087144992175.0
3.0,9.0,13.0,3.0,-7.0,-5.0,-4.0,-6.0,1651087144992175.0
-6.0,3.0,-6.0,-3.0,1.0,1.0,0.0,-10.0,1651087145023211.0
0.0,-6.0,3.0,7.0,4.0,2.0,7.0,12.0,1651087145023211.0
3.0,7.0,0.0,0.0,1.0,-2.0,-9.0,-9.0,1651087145025237.0
-4.0,13.0,-6.0,-5.0,-2.0,-4.0,4.0,4.0,1651087145025237.0
3.0,-3.0,1.0,-2.0,1.0,1.0,-1.0,4.0,1651087145030220.0
-3.0,-5.0,0.0,4.0,-5.0,-5.0,3.0,10.0,1651087145030220.0
-1.0,10.0,-2.0,-12.0,-5.0,0.0,-4.0,-21.0,1651087145032183.0
6.0,4.0,-6.0,0.0,1.0,9.0,0.0,-4.0,1651087145032183.0
1.0,-7.0,10.0,7.0,1.0,0.0,5.0,18.0,1651087145045146.0
6.0,-4.0,-6.0,1.0,3.0,1.0,2.0,4.0,1651087145045146.0
-2.0,8.0,-1.0,-3.0,-3.0,-6.0,-11.0,-7.0,1651087145052160.0
-2.0,2.0,2.0,-2.0,-4.0,-9.0,-3.0,-3.0,1651087145052160.0
4.0,-1.0,2.0,19.0,12.0,19.0,9.0,17.0,1651087145068127.0
-11.0,0.0,-11.0,-10.0,-7.0,-13.0,-5.0,-16.0,1651087145068127.0
-12.0,2.0,2.0,-10.0,-2.0,5.0,4.0,15.0,1651087145070082.0
7.0,1.0,-22.0,8.0,0.0,-15.0,-10.0,-10.0,1651087145070082.0
-31.0,-3.0,6.0,-9.0,0.0,-3.0,-1.0,-5.0,1651087145091061.0
-1.0,1.0,4.0,5.0,1.0,18.0,7.0,14.0,1651087145091061.0
33.0,4.0,-12.0,-11.0,-5.0,-1.0,6.0,7.0,1651087145092025.0
-19.0,0.0,17.0,12.0,2.0,5.0,1.0,2.0,1651087145092025.0
8.0,0.0,2.0,4.0,-1.0,-9.0,-8.0,-4.0,1651087145105080.0
-9.0,-5.0,2.0,-1.0,-2.0,-9.0,-7.0,9.0,1651087145105080.0
8.0,8.0,9.0,-4.0,0.0,-4.0,-7.0,-27.0,1651087145112030.0
4.0,-2.0,-8.0,1.0,2.0,5.0,10.0,45.0,1651087145112030.0
0.0,-2.0,-13.0,-11.0,1.0,-8.0,0.0,-25.0,1651087145129171.0
-2.0,-2.0,14.0,-16.0,-6.0,8.0,-6.0,4.0,1651087145129171.0
8.0,5.0,17.0,19.0,-1.0,1.0,7.0,29.0,1651087145130172.0
1.0,-4.0,-24.0,-21.0,-4.0,-3.0,2.0,8.0,1651087145130172.0
-5.0,2.0,16.0,20.0,-2.0,-3.0,-10.0,-25.0,1651087145152792.0
2.0,0.0,0.0,4.0,4.0,-1.0,1.0,-3.0,1651087145152792.0
-14.0,-1.0,-1.0,-4.0,0.0,-8.0,-6.0,-3.0,1651087145153638.0
0.0,7.0,13.0,-2.0,-5.0,-2.0,1.0,-5.0,1651087145153638.0
5.0,-2.0,-8.0,-4.0,-1.0,-1.0,-1.0,6.0,1651087145172912.0
0.0,1.0,-9.0,-2.0,-3.0,-2.0,2.0,-5.0,1651087145172912.0
-1.0,2.0,-4.0,1.0,9.0,4.0,-3.0,-5.0,1651087145174906.0
-1.0,4.0,0.0,1.0,4.0,0.0,0.0,-4.0,1651087145174906.0
1.0,3.0,-8.0,3.0,-1.0,2.0,0.0,0.0,1651087145188020.0
-1.0,0.0,8.0,-1.0,-3.0,-1.0,0.0,-15.0,1651087145188020.0
-3.0,-5.0,12.0,-2.0,-3.0,2.0,2.0,5.0,1651087145189867.0
3.0,-1.0,8.0,-2.0,-5.0,-3.0,-2.0,5.0,1651087145189867.0
-1.0,-5.0,-5.0,9.0,7.0,1.0,-4.0,-27.0,1651087145211217.0
-3.0,-8.0,-13.0,-6.0,-2.0,-1.0,4.0,4.0,1651087145211217.0
1.0,-6.0,-11.0,3.0,2.0,-1.0,-2.0,-2.0,1651087145212217.0
-3.0,-1.0,0.0,-5.0,-5.0,-2.0,-5.0,-3.0,1651087145212217.0
1.0,-7.0,-34.0,-28.0,-11.0,-3.0,3.0,6.0,1651087145225210.0
-2.0,0.0,-1.0,8.0,3.0,3.0,3.0,-3.0,1651087145225210.0
-13.0,1.0,2.0,4.0,-6.0,-1.0,-3.0,7.0,1651087145232343.0
4.0,1.0,9.0,0.0,1.0,-2.0,-5.0,-35.0,1651087145232343.0
5.0,0.0,12.0,-8.0,-3.0,1.0,2.0,11.0,1651087145247795.0
4.0,0.0,-8.0,7.0,4.0,1.0,-4.0,-21.0,1651087145247795.0
-1.0,-1.0,8.0,2.0,1.0,-6.0,4.0,1.0,1651087145262978.0
-5.0,-4.0,-33.0,-7.0,1.0,3.0,0.0,1.0,1651087145262978.0
5.0,0.0,17.0,-4.0,-2.0,-2.0,-2.0,9.0,1651087145271212.0
-3.0,-2.0,2.0,4.0,-5.0,-4.0,-3.0,-7.0,1651087145271212.0
-2.0,-1.0,-11.0,-7.0,0.0,1.0,0.0,4.0,1651087145272212.0
-3.0,-1.0,-9.0,6.0,3.0,2.0,1.0,-2.0,1651087145272212.0
-5.0,2.0,25.0,6.0,2.0,1.0,1.0,2.0,1651087145284355.0
1.0,-2.0,-10.0,-16.0,-6.0,-3.0,0.0,2.0,1651087145284355.0
3.0,1.0,-2.0,3.0,1.0,1.0,-2.0,-2.0,1651087145293043.0
-1.0,-5.0,-5.0,-10.0,-2.0,-3.0,-3.0,-2.0,1651087145293043.0
-2.0,10.0,2.0,-3.0,-5.0,1.0,1.0,4.0,1651087145308341.0
-1.0,1.0,25.0,16.0,1.0,-1.0,0.0,5.0,1651087145308341.0
-1.0,-13.0,-37.0,-17.0,-3.0,-2.0,-4.0,-10.0,1651087145310219.0
1.0,0.0,3.0,4.0,7.0,5.0,0.0,-1.0,1651087145310219.0
2.0,0.0,-4.0,-4.0,-2.0,-4.0,-1.0,15.0,1651087145330655.0
4.0,6.0,5.0,5.0,0.0,2.0,-1.0,-19.0,1651087145330655.0
1.0,2.0,7.0,6.0,0.0,-1.0,-3.0,-3.0,1651087145332535.0
-5.0,1.0,-6.0,0.0,-2.0,1.0,-1.0,1.0,1651087145332535.0
-2.0,-4.0,-6.0,-4.0,-1.0,0.0,0.0,2.0,1651087145344203.0
1.0,-1.0,-13.0,-14.0,-6.0,-3.0,-2.0,7.0,1651087145344203.0
-4.0,-2.0,-3.0,14.0,6.0,2.0,2.0,2.0,1651087145353093.0
0.0,1.0,3.0,0.0,-2.0,-3.0,-1.0,-2.0,1651087145353093.0
-3.0,-1.0,-6.0,-3.0,1.0,0.0,-1.0,-6.0,1651087145368664.0
3.0,-1.0,-4.0,-3.0,0.0,0.0,-1.0,4.0,1651087145368664.0
-1.0,4.0,10.0,-2.0,-4.0,-5.0,-1.0,-4.0,1651087145370102.0
-4.0,-1.0,4.0,-3.0,0.0,1.0,1.0,1.0,1651087145370102.0
7.0,0.0,12.0,18.0,0.0,-1.0,1.0,8.0,1651087145391307.0
-5.0,-2.0,-17.0,-15.0,-2.0,-3.0,-2.0,-3.0,1651087145391307.0
2.0,1.0,4.0,4.0,0.0,0.0,-1.0,3.0,1651087145392239.0
-1.0,1.0,12.0,-5.0,0.0,-2.0,0.0,-2.0,1651087145392239.0
-4.0,-5.0,-12.0,-8.0,-1.0,2.0,-1.0,-1.0,1651087145405391.0
1.0,5.0,-6.0,1.0,2.0,-1.0,-1.0,2.0,1651087145405391.0
-1.0,-8.0,5.0,4.0,-3.0,-2.0,-1.0,-5.0,1651087145413612.0
4.0,3.0,0.0,5.0,-2.0,1.0,0.0,-2.0,1651087145413612.0
-2.0,-2.0,5.0,-1.0,7.0,0.0,0.0,-5.0,1651087145429232.0
-1.0,0.0,2.0,8.0,-3.0,-1.0,0.0,5.0,1651087145429232.0
0.0,2.0,5.0,-7.0,-1.0,-3.0,-3.0,-3.0,1651087145430232.0
-1.0,-2.0,5.0,2.0,4.0,2.0,-1.0,0.0,1651087145430232.0
-2.0,5.0,-12.0,-1.0,3.0,1.0,2.0,-1.0,1651087145451369.0
0.0,-2.0,8.0,0.0,-3.0,-2.0,1.0,1.0,1651087145451369.0
1.0,-6.0,2.0,3.0,2.0,6.0,0.0,2.0,1651087145452209.0
-3.0,6.0,1.0,-4.0,-5.0,-5.0,-1.0,-2.0,1651087145452209.0
2.0,-2.0,-5.0,-7.0,-5.0,-3.0,-1.0,-3.0,1651087145464382.0
-1.0,0.0,-5.0,-4.0,1.0,3.0,0.0,1.0,1651087145464382.0
1.0,6.0,5.0,3.0,-3.0,-1.0,1.0,1.0,1651087145473194.0
-2.0,-8.0,8.0,1.0,-2.0,0.0,-1.0,-2.0,1651087145473194.0
0.0,2.0,10.0,1.0,2.0,3.0,-1.0,-4.0,1651087145489104.0
-3.0,-9.0,-3.0,2.0,1.0,-1.0,1.0,-2.0,1651087145489104.0
-1.0,5.0,-7.0,-4.0,-2.0,-2.0,-1.0,-1.0,1651087145490105.0
1.0,-6.0,-10.0,-9.0,-2.0,2.0,0.0,1.0,1651087145490105.0
1.0,7.0,-8.0,-4.0,0.0,-2.0,-3.0,-1.0,1651087145511419.0
1.0,1.0,19.0,10.0,5.0,1.0,0.0,2.0,1651087145511419.0
-1.0,-7.0,6.0,-3.0,-3.0,1.0,0.0,-1.0,1651087145512419.0
2.0,-8.0,-27.0,-3.0,1.0,-3.0,0.0,1.0,1651087145512419.0
-2.0,-6.0,13.0,4.0,-2.0,-1.0,-2.0,-3.0,1651087145533363.0
1.0,7.0,-9.0,-1.0,3.0,2.0,1.0,1.0,1651087145533363.0
-1.0,-5.0,3.0,-1.0,-5.0,-2.0,-2.0,-2.0,1651087145534360.0
0.0,0.0,5.0,-7.0,-4.0,0.0,-1.0,0.0,1651087145534360.0
-3.0,-3.0,1.0,-1.0,-5.0,-4.0,-3.0,-4.0,1651087145549239.0
-1.0,4.0,0.0,10.0,9.0,3.0,0.0,0.0,1651087145549239.0
-1.0,-1.0,-16.0,-10.0,0.0,-2.0,1.0,0.0,1651087145550240.0
0.0,4.0,5.0,3.0,-1.0,0.0,-1.0,-1.0,1651087145550240.0
1.0,2.0,-5.0,0.0,0.0,1.0,0.0,0.0,1651087145571323.0
-1.0,-2.0,3.0,-3.0,-4.0,-2.0,-3.0,-1.0,1651087145571323.0
-3.0,-10.0,6.0,4.0,-4.0,0.0,-1.0,0.0,1651087145572240.0
-1.0,5.0,-4.0,1.0,0.0,-1.0,0.0,-1.0,1651087145572240.0
-1.0,-4.0,-9.0,-2.0,0.0,2.0,1.0,-1.0,1651087145585385.0
-2.0,-2.0,0.0,0.0,-2.0,2.0,0.0,0.0,1651087145585385.0
0.0,3.0,-3.0,1.0,5.0,1.0,-1.0,0.0,1651087145593121.0
0.0,5.0,-3.0,-10.0,-5.0,-8.0,-1.0,0.0,1651087145593121.0
1.0,1.0,-19.0,6.0,-1.0,4.0,0.0,0.0,1651087145609237.0
-3.0,-15.0,-1.0,0.0,-2.0,-1.0,0.0,0.0,1651087145609237.0
0.0,7.0,10.0,-1.0,1.0,-2.0,-2.0,-2.0,1651087145610272.0
0.0,1.0,-2.0,3.0,4.0,2.0,-1.0,-1.0,1651087145610272.0
-1.0,-8.0,-2.0,-8.0,-1.0,-4.0,0.0,-1.0,1651087145631112.0
-2.0,17.0,6.0,-3.0,-7.0,-1.0,-2.0,0.0,1651087145631112.0
-1.0,4.0,-5.0,1.0,6.0,1.0,1.0,-2.0,1651087145632144.0
-1.0,-3.0,6.0,1.0,-1.0,-3.0,0.0,0.0,1651087145632144.0
1.0,-4.0,-17.0,0.0,-2.0,-3.0,-4.0,0.0,1651087145644259.0
0.0,-11.0,-5.0,1.0,-2.0,0.0,0.0,-1.0,1651087145644259.0
-1.0,12.0,3.0,-2.0,3.0,4.0,0.0,-2.0,1651087145653228.0
-2.0,-1.0,3.0,2.0,0.0,-1.0,-1.0,-1.0,1651087145653228.0
1.0,-3.0,-3.0,-4.0,-1.0,-1.0,-1.0,0.0,1651087145668397.0
0.0,1.0,10.0,-2.0,1.0,-2.0,-2.0,0.0,1651087145668397.0
1.0,2.0,5.0,-1.0,-9.0,-4.0,-2.0,1.0,1651087145670073.0
-2.0,-10.0,-9.0,0.0,2.0,4.0,1.0,0.0,1651087145670073.0
-1.0,1.0,3.0,1.0,2.0,-1.0,2.0,-2.0,1651087145691374.0
2.0,2.0,0.0,1.0,1.0,0.0,0.0,0.0,1651087145691374.0
1.0,-6.0,-17.0,-2.0,0.0,-1.0,-1.0,1.0,1651087145692375.0
-1.0,3.0,3.0,-1.0,-3.0,2.0,-2.0,0.0,1651087145692375.0
-1.0,-4.0,11.0,0.0,-2.0,-3.0,-2.0,0.0,1651087145713287.0
-1.0,2.0,-4.0,-4.0,-1.0,-1.0,0.0,0.0,1651087145713287.0
1.0,10.0,-6.0,-6.0,1.0,0.0,0.0,-1.0,1651087145715237.0
-1.0,-12.0,10.0,8.0,0.0,1.0,1.0,-2.0,1651087145715237.0
-1.0,3.0,3.0,-4.0,-2.0,-1.0,-3.0,-2.0,1651087145728226.0
1.0,-6.0,4.0,-4.0,3.0,1.0,1.0,1.0,1651087145728226.0
-1.0,14.0,-5.0,-3.0,-2.0,-2.0,-3.0,-1.0,1651087145730198.0
0.0,1.0,-13.0,-4.0,5.0,4.0,0.0,-1.0,1651087145730198.0
-1.0,1.0,8.0,1.0,-2.0,-2.0,0.0,-1.0,1651087145751843.0
1.0,2.0,2.0,1.0,-3.0,-2.0,-1.0,-1.0,1651087145751843.0
0.0,-8.0,-2.0,0.0,-3.0,-2.0,0.0,1.0,1651087145751843.0
-1.0,3.0,2.0,-1.0,-2.0,1.0,-1.0,0.0,1651087145751843.0
0.0,0.0,-3.0,-4.0,-5.0,-2.0,0.0,-1.0,1651087145772872.0
0.0,-11.0,-6.0,4.0,3.0,2.0,-2.0,-1.0,1651087145772872.0
-2.0,6.0,-2.0,-10.0,5.0,5.0,3.0,0.0,1651087145774901.0
-3.0,-5.0,9.0,10.0,1.0,-4.0,-1.0,-1.0,1651087145774901.0
-1.0,1.0,14.0,13.0,6.0,2.0,0.0,0.0,1651087145789003.0
-2.0,1.0,-19.0,-12.0,-8.0,-1.0,-1.0,-2.0,1651087145789003.0
0.0,-6.0,8.0,-2.0,-7.0,-3.0,-1.0,-2.0,1651087145790004.0
1.0,5.0,-3.0,-7.0,-3.0,-2.0,0.0,1.0,1651087145790004.0
-1.0,0.0,-3.0,-3.0,-3.0,-2.0,-2.0,0.0,1651087145811407.0
-1.0,3.0,8.0,5.0,1.0,-1.0,-1.0,1.0,1651087145811407.0
-1.0,-8.0,0.0,5.0,-1.0,1.0,-1.0,-1.0,1651087145812271.0
0.0,3.0,-4.0,0.0,-2.0,-2.0,-1.0,1.0,1651087145812271.0
-1.0,-1.0,-3.0,2.0,0.0,2.0,1.0,-1.0,1651087145833441.0
-2.0,1.0,0.0,3.0,6.0,1.0,2.0,0.0,1651087145833441.0
-2.0,-5.0,0.0,1.0,2.0,-3.0,-1.0,0.0,1651087145834439.0
1.0,0.0,0.0,-2.0,-2.0,-4.0,-1.0,-2.0,1651087145834439.0
0.0,0.0,-7.0,-7.0,-1.0,-1.0,-1.0,-1.0,1651087145848399.0
1.0,3.0,8.0,2.0,-4.0,-2.0,-2.0,-1.0,1651087145848399.0
-1.0,4.0,19.0,0.0,-4.0,-4.0,-1.0,-2.0,1651087145854219.0
0.0,-1.0,-21.0,0.0,4.0,7.0,0.0,-2.0,1651087145854219.0
2.0,5.0,5.0,6.0,-2.0,-2.0,-1.0,0.0,1651087145871312.0
-1.0,0.0,-4.0,-7.0,0.0,-2.0,-2.0,-1.0,1651087145871312.0
-2.0,-4.0,2.0,3.0,0.0,0.0,-1.0,-1.0,1651087145872343.0
-1.0,-5.0,11.0,2.0,-2.0,-1.0,1.0,-1.0,1651087145872343.0
1.0,-4.0,-9.0,-6.0,2.0,1.0,1.0,1.0,1651087145894394.0
-1.0,8.0,4.0,5.0,1.0,-1.0,1.0,0.0,1651087145894394.0
-1.0,-4.0,2.0,-6.0,-3.0,0.0,0.0,-2.0,1651087145894394.0
0.0,0.0,6.0,2.0,-1.0,-2.0,0.0,1.0,1651087145894394.0
0.0,0.0,-2.0,-7.0,0.0,2.0,0.0,-3.0,1651087145908562.0
1.0,1.0,14.0,16.0,2.0,-2.0,1.0,0.0,1651087145908562.0
0.0,-4.0,-7.0,-4.0,-2.0,2.0,-1.0,0.0,1651087145914062.0
0.0,10.0,5.0,-3.0,-5.0,-6.0,-3.0,-2.0,1651087145914062.0
-2.0,-12.0,-16.0,-7.0,-1.0,0.0,-1.0,0.0,1651087145939032.0
-1.0,-3.0,-1.0,0.0,1.0,1.0,0.0,0.0,1651087145939032.0
0.0,4.0,2.0,8.0,1.0,2.0,0.0,1.0,1651087145940110.0
0.0,0.0,-1.0,6.0,4.0,3.0,-2.0,1.0,1651087145940110.0
0.0,3.0,6.0,1.0,0.0,-2.0,-1.0,1.0,1651087145954271.0
-1.0,-6.0,-18.0,-11.0,0.0,1.0,-1.0,-1.0,1651087145954271.0
0.0,-8.0,-9.0,4.0,-2.0,-4.0,0.0,2.0,1651087145955247.0
-3.0,-3.0,7.0,-2.0,-3.0,0.0,-1.0,-2.0,1651087145955247.0
-2.0,6.0,1.0,2.0,7.0,4.0,1.0,-2.0,1651087145968180.0
0.0,-2.0,0.0,-2.0,-1.0,0.0,0.0,-1.0,1651087145968180.0
0.0,-3.0,-2.0,-1.0,-3.0,-4.0,0.0,0.0,1651087145975203.0
-1.0,2.0,7.0,-1.0,-4.0,-2.0,-2.0,0.0,1651087145975203.0
1.0,-4.0,-17.0,-7.0,0.0,1.0,1.0,1.0,1651087145990994.0
-1.0,0.0,0.0,-2.0,-5.0,-3.0,-1.0,1.0,1651087145990994.0
-2.0,1.0,9.0,4.0,9.0,4.0,1.0,0.0,1651087145991871.0
1.0,2.0,6.0,0.0,-3.0,-3.0,0.0,-1.0,1651087145991871.0
0.0,0.0,15.0,7.0,-3.0,-2.0,-1.0,0.0,1651087146013434.0
0.0,-2.0,-7.0,-11.0,-3.0,-2.0,1.0,0.0,1651087146013434.0
0.0,1.0,-8.0,6.0,2.0,-1.0,0.0,-1.0,1651087146014334.0
1.0,-2.0,-4.0,-6.0,2.0,-1.0,0.0,0.0,1651087146014334.0
0.0,-2.0,-7.0,-5.0,0.0,1.0,-2.0,-3.0,1651087146028195.0
0.0,2.0,5.0,4.0,0.0,-1.0,0.0,0.0,1651087146028195.0
-1.0,-4.0,-10.0,-9.0,-3.0,-1.0,0.0,0.0,1651087146035177.0
0.0,-2.0,5.0,11.0,6.0,3.0,2.0,0.0,1651087146035177.0
0.0,-3.0,-1.0,-2.0,1.0,2.0,0.0,1.0,1651087146051276.0
0.0,6.0,4.0,-5.0,-5.0,-4.0,-2.0,0.0,1651087146051276.0
-3.0,0.0,-6.0,-1.0,-2.0,-2.0,-1.0,-1.0,1651087146052276.0
-2.0,-9.0,-7.0,-4.0,-2.0,1.0,0.0,-1.0,1651087146052276.0
-2.0,-3.0,-11.0,0.0,-4.0,-3.0,-1.0,-2.0,1651087146073216.0
-1.0,-7.0,-10.0,-6.0,-2.0,-1.0,-1.0,-1.0,1651087146073216.0
1.0,-1.0,14.0,2.0,2.0,4.0,1.0,1.0,1651087146075211.0
-3.0,18.0,-2.0,-2.0,-3.0,-3.0,-1.0,-3.0,1651087146075211.0
-2.0,3.0,-9.0,4.0,1.0,-1.0,0.0,2.0,1651087146088062.0
-1.0,-2.0,5.0,5.0,2.0,3.0,0.0,0.0,1651087146088062.0
0.0,1.0,-24.0,-10.0,-5.0,-2.0,-4.0,-2.0,1651087146094197.0
1.0,-6.0,1.0,0.0,-1.0,0.0,1.0,-2.0,1651087146094197.0
0.0,-1.0,8.0,-4.0,-3.0,-2.0,0.0,-2.0,1651087146111377.0
0.0,4.0,-2.0,1.0,-1.0,-1.0,-2.0,-2.0,1651087146111377.0
-1.0,-6.0,2.0,5.0,6.0,1.0,2.0,1.0,1651087146112230.0
0.0,-1.0,2.0,0.0,-2.0,0.0,0.0,0.0,1651087146112230.0
-3.0,1.0,-1.0,4.0,2.0,-1.0,0.0,-1.0,1651087146132433.0
-3.0,-7.0,-19.0,-12.0,-4.0,-1.0,-2.0,1.0,1651087146132433.0
1.0,-1.0,-5.0,-5.0,-5.0,-3.0,-1.0,-1.0,1651087146141458.0
-2.0,-6.0,0.0,14.0,13.0,1.0,-2.0,-1.0,1651087146141458.0
3.0,-5.0,-4.0,-11.0,-4.0,0.0,-1.0,-1.0,1651087146148064.0
-1.0,6.0,21.0,11.0,-1.0,2.0,1.0,-1.0,1651087146148064.0
0.0,-4.0,-20.0,-7.0,-12.0,-6.0,-1.0,0.0,1651087146155352.0
0.0,3.0,-15.0,-8.0,7.0,4.0,1.0,1.0,1651087146155352.0
-2.0,2.0,9.0,7.0,5.0,0.0,1.0,-2.0,1651087146171272.0
1.0,-12.0,-1.0,-4.0,-5.0,1.0,-1.0,0.0,1651087146171272.0
0.0,7.0,22.0,13.0,-3.0,-4.0,-2.0,0.0,1651087146172215.0
-2.0,-9.0,-18.0,-7.0,-5.0,-1.0,-1.0,-2.0,1651087146172215.0
0.0,-6.0,12.0,3.0,-1.0,-1.0,0.0,-1.0,1651087146193370.0
0.0,18.0,-10.0,-7.0,1.0,-1.0,-1.0,-2.0,1651087146193370.0
-3.0,-1.0,13.0,1.0,-1.0,0.0,1.0,-1.0,1651087146195239.0
1.0,-1.0,-8.0,-4.0,-6.0,-5.0,0.0,-1.0,1651087146195239.0
0.0,4.0,12.0,6.0,5.0,3.0,1.0,0.0,1651087146207344.0
0.0,-7.0,8.0,3.0,-2.0,-1.0,-1.0,0.0,1651087146207344.0
1.0,-2.0,-3.0,1.0,6.0,3.0,1.0,-1.0,1651087146216181.0
0.0,6.0,13.0,2.0,-1.0,-1.0,-2.0,0.0,1651087146216181.0
-1.0,0.0,-8.0,-6.0,-9.0,-4.0,-1.0,-1.0,1651087146231277.0
0.0,-3.0,-4.0,7.0,-1.0,1.0,-1.0,-1.0,1651087146231277.0
0.0,3.0,-9.0,-6.0,10.0,2.0,1.0,0.0,1651087146232278.0
1.0,-6.0,21.0,7.0,3.0,2.0,0.0,0.0,1651087146232278.0
0.0,13.0,15.0,2.0,-4.0,-3.0,-1.0,1.0,1651087146254322.0
0.0,-15.0,-29.0,-13.0,-10.0,-7.0,-1.0,0.0,1651087146254322.0
-2.0,2.0,10.0,1.0,2.0,6.0,-2.0,-1.0,1651087146254322.0
-1.0,10.0,5.0,-1.0,1.0,1.0,-1.0,-1.0,1651087146254322.0
-1.0,-4.0,-2.0,5.0,2.0,-3.0,-1.0,-1.0,1651087146267520.0
2.0,10.0,14.0,6.0,10.0,9.0,4.0,2.0,1651087146267520.0
-2.0,-16.0,-1.0,-6.0,-16.0,-9.0,-2.0,-1.0,1651087146276498.0
0.0,-7.0,-31.0,-6.0,-12.0,-4.0,-1.0,-1.0,1651087146276498.0
-2.0,-2.0,3.0,-20.0,-16.0,-2.0,-2.0,-2.0,1651087146290364.0
1.0,-3.0,4.0,6.0,10.0,3.0,-1.0,0.0,1651087146290364.0
0.0,-4.0,9.0,12.0,8.0,3.0,-1.0,1.0,1651087146292231.0
-1.0,2.0,-12.0,-11.0,-6.0,-2.0,-1.0,-1.0,1651087146292231.0
-1.0,-11.0,-10.0,-4.0,-14.0,-7.0,-1.0,-2.0,1651087146313234.0
-1.0,-1.0,-6.0,-1.0,8.0,3.0,1.0,1.0,1651087146313234.0
-1.0,7.0,5.0,-2.0,-6.0,-2.0,-2.0,-1.0,1651087146315230.0
-2.0,-2.0,9.0,-2.0,-4.0,-3.0,-1.0,-1.0,1651087146315230.0
0.0,2.0,-17.0,-5.0,3.0,0.0,-1.0,0.0,1651087146327519.0
-1.0,-2.0,12.0,9.0,11.0,1.0,0.0,0.0,1651087146327519.0
-2.0,6.0,-5.0,8.0,6.0,3.0,1.0,-1.0,1651087146336394.0
0.0,0.0,0.0,-10.0,-6.0,-2.0,1.0,1.0,1651087146336394.0
1.0,1.0,-7.0,5.0,3.0,-3.0,-2.0,-1.0,1651087146351378.0
-4.0,-2.0,6.0,-4.0,-8.0,-1.0,0.0,-1.0,1651087146351378.0
0.0,-11.0,-16.0,-4.0,0.0,2.0,-3.0,-3.0,1651087146352218.0
-2.0,2.0,2.0,-1.0,3.0,3.0,2.0,1.0,1651087146352218.0
0.0,0.0,11.0,2.0,3.0,3.0,0.0,1.0,1651087146373393.0
-1.0,-1.0,-3.0,-8.0,-19.0,-12.0,-2.0,-3.0,1651087146373393.0
6.0,1.0,-3.0,6.0,19.0,6.0,3.0,2.0,1651087146374426.0
-3.0,-6.0,-8.0,1.0,-10.0,-7.0,-4.0,-3.0,1651087146374426.0
-2.0,-6.0,-12.0,-10.0,-12.0,-6.0,-4.0,-3.0,1651087146387371.0
0.0,0.0,14.0,20.0,31.0,14.0,3.0,2.0,1651087146387371.0
-2.0,5.0,5.0,3.0,-5.0,-1.0,2.0,1.0,1651087146396221.0
3.0,0.0,2.0,1.0,3.0,-2.0,-4.0,-1.0,1651087146396221.0
-5.0,-6.0,-1.0,15.0,22.0,8.0,5.0,0.0,1651087146410930.0
2.0,4.0,-6.0,-10.0,-18.0,-2.0,0.0,-1.0,1651087146410930.0
-3.0,-6.0,-2.0,4.0,-2.0,-2.0,-2.0,-1.0,1651087146411967.0
1.0,0.0,-2.0,5.0,3.0,-1.0,2.0,2.0,1651087146411967.0
-4.0,2.0,-1.0,-22.0,-16.0,-3.0,-3.0,-3.0,1651087146434312.0
0.0,1.0,-8.0,2.0,5.0,-2.0,-1.0,1.0,1651087146434312.0
2.0,5.0,5.0,-3.0,-3.0,-1.0,0.0,-2.0,1651087146434312.0
0.0,-2.0,-4.0,7.0,1.0,2.0,0.0,-1.0,1651087146434312.0
-1.0,7.0,3.0,2.0,0.0,0.0,1.0,0.0,1651087146447567.0
-4.0,-2.0,0.0,-3.0,-6.0,-3.0,-2.0,-2.0,1651087146447567.0
-2.0,2.0,7.0,-5.0,-5.0,-6.0,-2.0,-1.0,1651087146456218.0
-4.0,-16.0,0.0,-1.0,3.0,0.0,0.0,1.0,1651087146456218.0
6.0,-1.0,-3.0,-5.0,-2.0,-1.0,1.0,2.0,1651087146470477.0
-2.0,-1.0,-3.0,-4.0,-1.0,-2.0,0.0,-3.0,1651087146470477.0
-6.0,-8.0,-18.0,-7.0,-9.0,-5.0,-3.0,-1.0,1651087146472524.0
-2.0,5.0,16.0,4.0,4.0,4.0,0.0,-1.0,1651087146472524.0
1.0,2.0,3.0,15.0,17.0,9.0,2.0,2.0,1651087146493236.0
8.0,3.0,-2.0,-6.0,-2.0,-2.0,0.0,-2.0,1651087146493236.0
-11.0,12.0,-8.0,-25.0,-18.0,-9.0,-4.0,-6.0,1651087146494236.0
-6.0,-15.0,3.0,21.0,6.0,3.0,3.0,2.0,1651087146494236.0
-1.0,-5.0,0.0,-14.0,1.0,0.0,1.0,3.0,1651087146507350.0
-1.0,7.0,5.0,13.0,-8.0,-5.0,-3.0,0.0,1651087146507350.0
7.0,-9.0,-8.0,-19.0,8.0,3.0,0.0,-2.0,1651087146515543.0
8.0,18.0,22.0,7.0,9.0,7.0,1.0,3.0,1651087146515543.0
-8.0,-13.0,-22.0,-1.0,-5.0,-6.0,-4.0,-4.0,1651087146538213.0
1.0,-15.0,3.0,4.0,9.0,8.0,5.0,4.0,1651087146538213.0
0.0,16.0,5.0,7.0,-3.0,-4.0,-2.0,-3.0,1651087146540184.0
-1.0,-24.0,-24.0,-14.0,1.0,-6.0,-3.0,-3.0,1651087146540184.0
11.0,15.0,15.0,2.0,0.0,0.0,2.0,4.0,1651087146560366.0
-2.0,25.0,-17.0,-8.0,-6.0,0.0,-5.0,-5.0,1651087146560366.0
-4.0,-18.0,15.0,10.0,0.0,0.0,-1.0,-2.0,1651087146562217.0
-22.0,6.0,-17.0,-7.0,3.0,0.0,1.0,-1.0,1651087146562217.0
0.0,9.0,0.0,-6.0,-11.0,-3.0,-1.0,0.0,1651087146567203.0
9.0,-4.0,-1.0,-5.0,8.0,-1.0,-1.0,-3.0,1651087146567203.0
1.0,9.0,8.0,-7.0,-4.0,1.0,5.0,7.0,1651087146575611.0
3.0,6.0,5.0,-2.0,-2.0,1.0,-1.0,0.0,1651087146575611.0
-1.0,1.0,-1.0,3.0,5.0,1.0,0.0,-2.0,1651087146591173.0
-3.0,9.0,8.0,-19.0,-19.0,-5.0,2.0,7.0,1651087146591173.0
5.0,-7.0,-14.0,25.0,17.0,6.0,2.0,1.0,1651087146592067.0
1.0,-7.0,11.0,-1.0,-8.0,-4.0,0.0,-2.0,1651087146592067.0
-9.0,1.0,-3.0,-4.0,-7.0,-4.0,-5.0,-9.0,1651087146613096.0
12.0,-7.0,3.0,7.0,0.0,0.0,-5.0,-5.0,1651087146613096.0
6.0,13.0,-3.0,-11.0,-1.0,-2.0,3.0,-2.0,1651087146615122.0
-6.0,-6.0,3.0,-8.0,0.0,-2.0,-4.0,4.0,1651087146615122.0
15.0,0.0,-2.0,-1.0,-4.0,-3.0,-1.0,-4.0,1651087146635920.0
-5.0,17.0,6.0,9.0,1.0,3.0,8.0,13.0,1651087146635920.0
9.0,-15.0,-12.0,-11.0,-9.0,-3.0,-1.0,1.0,1651087146638016.0
-15.0,-20.0,-10.0,2.0,-15.0,-9.0,0.0,-6.0,1651087146638016.0
33.0,-3.0,16.0,10.0,23.0,11.0,-4.0,-7.0,1651087146651163.0
-53.0,-12.0,-7.0,-5.0,-9.0,-3.0,-1.0,2.0,1651087146651163.0
-2.0,-6.0,-7.0,-3.0,-10.0,-7.0,-4.0,-3.0,1651087146652163.0
1.0,8.0,-16.0,0.0,2.0,1.0,0.0,11.0,1651087146652163.0
-15.0,-1.0,1.0,5.0,2.0,5.0,-1.0,-7.0,1651087146673257.0
8.0,14.0,12.0,7.0,-1.0,0.0,4.0,-9.0,1651087146673257.0
5.0,-8.0,1.0,-1.0,8.0,4.0,5.0,20.0,1651087146675241.0
-8.0,26.0,6.0,-16.0,-16.0,-9.0,-16.0,-16.0,1651087146675241.0
4.0,1.0,-9.0,2.0,-2.0,-2.0,9.0,10.0,1651087146695359.0
8.0,-37.0,-8.0,1.0,9.0,0.0,-14.0,-24.0,1651087146695359.0
-23.0,-25.0,-2.0,2.0,-18.0,-6.0,7.0,10.0,1651087146697209.0
20.0,21.0,5.0,-4.0,7.0,1.0,-4.0,13.0,1651087146697209.0
-14.0,-22.0,-1.0,-4.0,-2.0,-4.0,-13.0,-23.0,1651087146711464.0
6.0,56.0,4.0,-15.0,-30.0,-16.0,11.0,13.0,1651087146711464.0
6.0,-25.0,4.0,15.0,17.0,14.0,3.0,2.0,1651087146712465.0
41.0,27.0,-15.0,10.0,14.0,12.0,9.0,9.0,1651087146712465.0
-40.0,-45.0,12.0,2.0,-19.0,-15.0,-3.0,4.0,1651087146733471.0
14.0,-8.0,-36.0,-2.0,36.0,18.0,1.0,26.0,1651087146733471.0
-10.0,-22.0,9.0,-1.0,-23.0,-11.0,-16.0,-37.0,1651087146734348.0
-30.0,2.0,-5.0,1.0,33.0,12.0,23.0,17.0,1651087146734348.0
4.0,5.0,5.0,-4.0,-3.0,2.0,-3.0,4.0,1651087146757226.0
35.0,-18.0,-5.0,-2.0,-20.0,-18.0,-4.0,3.0,1651087146757226.0
-34.0,25.0,21.0,-20.0,-5.0,-2.0,-14.0,-25.0,1651087146758223.0
11.0,-17.0,-5.0,9.0,2.0,1.0,-10.0,-13.0,1651087146758223.0
25.0,26.0,1.0,10.0,0.0,2.0,19.0,19.0,1651087146770414.0
-10.0,-35.0,6.0,-2.0,-1.0,5.0,0.0,0.0,1651087146770414.0
18.0,53.0,3.0,6.0,-1.0,-6.0,-12.0,-7.0,1651087146777386.0
-4.0,0.0,19.0,-9.0,-13.0,-11.0,-14.0,-4.0,1651087146777386.0
-11.0,-3.0,0.0,3.0,12.0,4.0,-4.0,-11.0,1651087146793233.0
28.0,23.0,-17.0,-12.0,-17.0,-8.0,-2.0,7.0,1651087146793233.0
10.0,31.0,16.0,15.0,22.0,6.0,-1.0,-45.0,1651087146794266.0
-38.0,-80.0,-18.0,-27.0,-32.0,-11.0,12.0,47.0,1651087146794266.0
-24.0,40.0,3.0,13.0,-2.0,-4.0,-14.0,-9.0,1651087146816595.0
28.0,60.0,-2.0,10.0,21.0,7.0,10.0,2.0,1651087146816595.0
-25.0,-116.0,-21.0,1.0,3.0,2.0,1.0,22.0,1651087146817461.0
31.0,93.0,14.0,-1.0,-8.0,2.0,3.0,-31.0,1651087146817461.0
58.0,27.0,-12.0,-27.0,-21.0,-5.0,0.0,-2.0,1651087146829403.0
-59.0,-39.0,11.0,5.0,4.0,-2.0,-7.0,-5.0,1651087146829403.0
92.0,105.0,7.0,15.0,16.0,7.0,-1.0,-6.0,1651087146838748.0
-24.0,18.0,30.0,38.0,45.0,18.0,7.0,20.0,1651087146838748.0
19.0,33.0,-6.0,-8.0,-5.0,1.0,5.0,-4.0,1651087146854279.0
10.0,9.0,8.0,-5.0,-16.0,-4.0,16.0,9.0,1651087146854279.0
-87.0,19.0,14.0,-4.0,19.0,8.0,-3.0,7.0,1651087146854279.0
89.0,47.0,-11.0,-16.0,-14.0,-6.0,-12.0,-38.0,1651087146854279.0
-67.0,-79.0,-15.0,-8.0,-26.0,-15.0,5.0,9.0,1651087146876380.0
17.0,8.0,0.0,13.0,20.0,15.0,8.0,2.0,1651087146876380.0
-18.0,53.0,1.0,-2.0,0.0,3.0,-5.0,0.0,1651087146877219.0
-77.0,-38.0,18.0,19.0,-6.0,-4.0,1.0,-9.0,1651087146877219.0
-21.0,-34.0,-38.0,-28.0,8.0,1.0,-8.0,1.0,1651087146890218.0
41.0,28.0,5.0,19.0,10.0,3.0,9.0,13.0,1651087146890218.0
1.0,-99.0,-8.0,7.0,-18.0,-10.0,-10.0,-2.0,1651087146897366.0
4.0,-46.0,-16.0,-28.0,-11.0,2.0,9.0,22.0,1651087146897366.0
63.0,74.0,34.0,42.0,26.0,12.0,4.0,-39.0,1651087146921253.0
24.0,-25.0,-40.0,-38.0,-38.0,-19.0,-12.0,42.0,1651087146921253.0
37.0,127.0,18.0,-2.0,12.0,7.0,25.0,10.0,1651087146922219.0
25.0,-76.0,-11.0,1.0,8.0,1.0,-16.0,-10.0,1651087146922219.0
-9.0,28.0,6.0,8.0,-8.0,0.0,5.0,-11.0,1651087146936322.0
69.0,120.0,26.0,9.0,16.0,7.0,-3.0,-7.0,1651087146936322.0
-51.0,-111.0,-18.0,-12.0,-1.0,-2.0,0.0,-7.0,1651087146937179.0
56.0,15.0,-1.0,-11.0,-36.0,-10.0,11.0,11.0,1651087146937179.0
-34.0,-10.0,-10.0,-4.0,21.0,9.0,0.0,25.0,1651087146951091.0
32.0,3.0,6.0,12.0,15.0,2.0,-22.0,-39.0,1651087146951091.0
27.0,92.0,2.0,4.0,-7.0,5.0,19.0,14.0,1651087146957221.0
-36.0,-78.0,-24.0,-34.0,-11.0,-11.0,-15.0,-12.0,1651087146957221.0
-12.0,-20.0,15.0,17.0,17.0,8.0,-10.0,-2.0,1651087146973218.0
-71.0,-115.0,11.0,-16.0,-2.0,5.0,9.0,-26.0,1651087146973218.0
38.0,-3.0,-41.0,4.0,17.0,-2.0,9.0,52.0,1651087146974215.0
6.0,54.0,-3.0,-19.0,-29.0,-15.0,-10.0,2.0,1651087146974215.0
5.0,47.0,16.0,20.0,9.0,6.0,7.0,12.0,1651087146995216.0
-54.0,5.0,-1.0,-1.0,6.0,-3.0,-14.0,-37.0,1651087146995216.0
1.0,53.0,18.0,1.0,-11.0,1.0,23.0,18.0,1651087146997211.0
-53.0,-9.0,-20.0,-10.0,-1.0,6.0,10.0,-5.0,1651087146997211.0
9.0,-83.0,-11.0,-2.0,0.0,-7.0,-6.0,9.0,1651087147010378.0
50.0,55.0,15.0,-4.0,-9.0,-2.0,2.0,7.0,1651087147010378.0
-77.0,-95.0,-16.0,-5.0,-14.0,-8.0,-9.0,-17.0,1651087147017354.0
29.0,127.0,17.0,27.0,32.0,5.0,-10.0,11.0,1651087147017354.0
2.0,48.0,-2.0,-6.0,-19.0,-1.0,-1.0,-24.0,1651087147033252.0
40.0,-34.0,-43.0,-16.0,9.0,-1.0,-2.0,11.0,1651087147033252.0
-45.0,12.0,1.0,-4.0,-9.0,-4.0,-9.0,0.0,1651087147041101.0
-8.0,40.0,11.0,9.0,-2.0,10.0,18.0,6.0,1651087147041101.0
-2.0,37.0,28.0,8.0,-2.0,-6.0,-20.0,-25.0,1651087147063210.0
-24.0,-30.0,6.0,6.0,-23.0,-7.0,3.0,3.0,1651087147063210.0
46.0,5.0,-13.0,5.0,8.0,0.0,-22.0,19.0,1651087147071926.0
-18.0,-20.0,-2.0,-7.0,-11.0,-7.0,-17.0,-45.0,1651087147071926.0
18.0,-26.0,-1.0,-33.0,-16.0,1.0,33.0,54.0,1651087147072927.0
-62.0,-37.0,-1.0,6.0,-16.0,-9.0,-35.0,-56.0,1651087147072927.0
41.0,38.0,10.0,-8.0,-8.0,0.0,15.0,35.0,1651087147076957.0
16.0,30.0,1.0,24.0,41.0,12.0,-3.0,-4.0,1651087147076957.0
-18.0,-4.0,-6.0,2.0,-7.0,-5.0,-3.0,-7.0,1651087147094258.0
-30.0,-14.0,-5.0,-9.0,-5.0,-8.0,-25.0,7.0,1651087147094258.0
12.0,57.0,27.0,9.0,-7.0,-3.0,18.0,-44.0,1651087147095119.0
-25.0,17.0,-15.0,-17.0,-23.0,-6.0,-8.0,6.0,1651087147095119.0
103.0,15.0,1.0,22.0,25.0,4.0,14.0,60.0,1651087147116552.0
-12.0,19.0,-7.0,-22.0,2.0,4.0,0.0,-24.0,1651087147116552.0
-37.0,-22.0,0.0,28.0,-6.0,-5.0,-10.0,-3.0,1651087147117420.0
-31.0,-44.0,11.0,-10.0,-11.0,4.0,35.0,-3.0,1651087147117420.0
49.0,80.0,22.0,25.0,48.0,19.0,4.0,15.0,1651087147130476.0
-41.0,-45.0,-14.0,-5.0,-11.0,-5.0,-8.0,-44.0,1651087147130476.0
29.0,-18.0,0.0,-17.0,10.0,0.0,-3.0,35.0,1651087147144398.0
51.0,-22.0,-15.0,-23.0,-22.0,-15.0,1.0,0.0,1651087147144398.0
-39.0,-20.0,-10.0,13.0,-17.0,-4.0,3.0,0.0,1651087147154305.0
10.0,-25.0,24.0,29.0,21.0,12.0,18.0,4.0,1651087147154305.0
-14.0,-45.0,-11.0,-8.0,7.0,5.0,-9.0,-28.0,1651087147154305.0
-36.0,-21.0,-11.0,2.0,0.0,-5.0,-17.0,-26.0,1651087147154305.0
-34.0,-16.0,-11.0,-22.0,-40.0,-19.0,-5.0,23.0,1651087147176354.0
44.0,67.0,13.0,-8.0,9.0,6.0,15.0,37.0,1651087147176354.0
-26.0,-91.0,-9.0,8.0,15.0,-2.0,-11.0,-26.0,1651087147177208.0
-2.0,28.0,-2.0,28.0,9.0,4.0,-6.0,-25.0,1651087147177208.0
1.0,-58.0,-16.0,-11.0,5.0,-4.0,-2.0,-3.0,1651087147189230.0
-36.0,4.0,6.0,-16.0,-22.0,-8.0,0.0,24.0,1651087147189230.0
9.0,-20.0,10.0,-1.0,7.0,11.0,17.0,-25.0,1651087147198333.0
3.0,8.0,-12.0,-7.0,-1.0,-3.0,-6.0,37.0,1651087147198333.0
-38.0,-40.0,0.0,-4.0,-9.0,2.0,-1.0,-20.0,1651087147214287.0
12.0,85.0,28.0,6.0,7.0,5.0,5.0,4.0,1651087147214287.0
3.0,-66.0,-22.0,-3.0,-21.0,-11.0,-13.0,-18.0,1651087147215208.0
52.0,53.0,2.0,16.0,14.0,0.0,9.0,11.0,1651087147215208.0
-88.0,41.0,-4.0,-14.0,-1.0,-2.0,-7.0,-16.0,1651087147236394.0
-27.0,-29.0,7.0,4.0,-3.0,5.0,14.0,17.0,1651087147236394.0
107.0,118.0,2.0,-9.0,3.0,4.0,3.0,-11.0,1651087147237227.0
-29.0,-55.0,17.0,9.0,-4.0,8.0,0.0,10.0,1651087147237227.0
22.0,8.0,-3.0,0.0,-2.0,-11.0,1.0,12.0,1651087147259192.0
28.0,-25.0,-12.0,-10.0,1.0,4.0,-6.0,-19.0,1651087147259192.0
-61.0,30.0,13.0,7.0,1.0,-11.0,2.0,20.0,1651087147260192.0
40.0,-97.0,-20.0,-5.0,-3.0,-1.0,13.0,37.0,1651087147260192.0
-40.0,-7.0,8.0,-3.0,-11.0,1.0,-14.0,-51.0,1651087147273280.0
10.0,21.0,3.0,2.0,2.0,-3.0,-13.0,-8.0,1651087147273280.0
-39.0,-6.0,0.0,2.0,-2.0,4.0,20.0,40.0,1651087147274245.0
-36.0,25.0,7.0,-6.0,-19.0,-1.0,-17.0,-18.0,1651087147274245.0
27.0,2.0,9.0,-12.0,0.0,-4.0,-12.0,-30.0,1651087147295949.0
-9.0,-2.0,4.0,31.0,40.0,16.0,15.0,25.0,1651087147295949.0
19.0,2.0,-1.0,12.0,13.0,2.0,-14.0,-1.0,1651087147296971.0
-40.0,-18.0,14.0,-4.0,-10.0,-8.0,-11.0,-35.0,1651087147296971.0
19.0,-34.0,-2.0,6.0,16.0,14.0,14.0,-17.0,1651087147309687.0
-21.0,41.0,1.0,-3.0,-13.0,-1.0,11.0,58.0,1651087147309687.0
-32.0,-87.0,-44.0,-32.0,-25.0,-12.0,-9.0,-9.0,1651087147318114.0
-15.0,24.0,13.0,20.0,22.0,8.0,-7.0,-9.0,1651087147318114.0
60.0,48.0,7.0,-13.0,-16.0,-8.0,-5.0,-13.0,1651087147333429.0
-78.0,-39.0,10.0,-8.0,-12.0,-10.0,-16.0,-16.0,1651087147333429.0
2.0,-5.0,-1.0,31.0,23.0,19.0,12.0,22.0,1651087147334294.0
7.0,24.0,4.0,-5.0,5.0,-2.0,-4.0,-10.0,1651087147334294.0
43.0,-16.0,-6.0,-19.0,-23.0,-12.0,-27.0,-7.0,1651087147355386.0
8.0,-15.0,-36.0,-9.0,-1.0,-1.0,-2.0,-29.0,1651087147355386.0
19.0,31.0,18.0,0.0,-13.0,-9.0,-8.0,9.0,1651087147357215.0
30.0,13.0,-12.0,2.0,12.0,3.0,21.0,1.0,1651087147357215.0
-73.0,30.0,11.0,2.0,0.0,-1.0,-7.0,14.0,1651087147370420.0
60.0,-60.0,-12.0,-3.0,27.0,12.0,13.0,16.0,1651087147370420.0
0.0,13.0,17.0,-12.0,-25.0,-12.0,-19.0,-31.0,1651087147378259.0
1.0,-14.0,-16.0,11.0,23.0,-3.0,-12.0,28.0,1651087147378259.0
-3.0,-47.0,-20.0,1.0,2.0,7.0,27.0,29.0,1651087147393227.0
20.0,30.0,10.0,-5.0,-15.0,-5.0,-11.0,-17.0,1651087147393227.0
-41.0,-38.0,-6.0,-13.0,1.0,-2.0,-5.0,-29.0,1651087147395256.0
56.0,72.0,20.0,-11.0,-11.0,1.0,-11.0,-7.0,1651087147395256.0
-3.0,-6.0,-5.0,17.0,16.0,8.0,13.0,24.0,1651087147416386.0
3.0,-27.0,-3.0,-12.0,-17.0,-11.0,-3.0,2.0,1651087147416386.0
1.0,48.0,-4.0,8.0,4.0,0.0,3.0,-6.0,1651087147417221.0
-47.0,-42.0,3.0,-24.0,-38.0,-11.0,-2.0,-27.0,1651087147417221.0
-11.0,-30.0,-12.0,30.0,49.0,15.0,0.0,16.0,1651087147430413.0
-19.0,-15.0,-12.0,19.0,7.0,-1.0,21.0,9.0,1651087147430413.0
-23.0,1.0,-21.0,-20.0,-17.0,-9.0,-7.0,-5.0,1651087147438216.0
61.0,105.0,21.0,-18.0,-20.0,-6.0,11.0,-40.0,1651087147438216.0
-18.0,18.0,-2.0,13.0,-5.0,-6.0,24.0,89.0,1651087147453204.0
-33.0,26.0,15.0,17.0,13.0,11.0,-4.0,-15.0,1651087147453204.0
58.0,44.0,25.0,-28.0,-20.0,-4.0,5.0,-1.0,1651087147455233.0
19.0,-17.0,-36.0,41.0,20.0,1.0,-4.0,12.0,1651087147455233.0
-11.0,-8.0,-19.0,-31.0,-22.0,-13.0,-20.0,-51.0,1651087147475347.0
20.0,40.0,21.0,10.0,-8.0,-2.0,11.0,2.0,1651087147475347.0
-42.0,2.0,-2.0,-7.0,11.0,5.0,7.0,21.0,1651087147477198.0
-13.0,-66.0,-21.0,-16.0,-22.0,-5.0,-21.0,-35.0,1651087147477198.0
44.0,39.0,34.0,22.0,34.0,14.0,25.0,44.0,1651087147489210.0
27.0,0.0,-1.0,-2.0,1.0,-5.0,-13.0,-3.0,1651087147489210.0
-8.0,26.0,-2.0,8.0,18.0,11.0,-13.0,-31.0,1651087147498369.0
-27.0,-25.0,6.0,2.0,-6.0,1.0,35.0,59.0,1651087147498369.0
-20.0,-49.0,-17.0,-2.0,0.0,-5.0,-34.0,-44.0,1651087147513354.0
17.0,5.0,-1.0,-5.0,-12.0,-5.0,6.0,-18.0,1651087147513354.0
30.0,-34.0,-4.0,-15.0,-23.0,-8.0,-6.0,36.0,1651087147514205.0
-39.0,-5.0,17.0,19.0,32.0,12.0,9.0,7.0,1651087147514205.0
-5.0,32.0,-22.0,-16.0,-15.0,-5.0,12.0,-11.0,1651087147536232.0
0.0,-30.0,-3.0,-5.0,12.0,-1.0,-14.0,-2.0,1651087147536232.0
0.0,46.0,-5.0,-4.0,-5.0,1.0,-8.0,-20.0,1651087147537195.0
29.0,44.0,22.0,6.0,-17.0,-3.0,-17.0,6.0,1651087147537195.0
-63.0,-27.0,3.0,-41.0,-14.0,-15.0,-2.0,-17.0,1651087147549221.0
-63.0,-18.0,-24.0,32.0,18.0,1.0,-29.0,-17.0,1651087147549221.0
71.0,14.0,-3.0,13.0,13.0,7.0,46.0,33.0,1651087147558035.0
-11.0,16.0,-18.0,-24.0,-11.0,-2.0,-4.0,12.0,1651087147558035.0
28.0,30.0,23.0,5.0,-29.0,-2.0,-16.0,-31.0,1651087147573493.0
-25.0,29.0,1.0,2.0,17.0,-1.0,1.0,28.0,1651087147573493.0
30.0,-50.0,4.0,5.0,1.0,-2.0,-16.0,-13.0,1651087147574494.0
-31.0,-34.0,8.0,0.0,0.0,-6.0,-4.0,-1.0,1651087147574494.0
42.0,-14.0,-11.0,2.0,-19.0,0.0,4.0,-7.0,1651087147595982.0
-18.0,16.0,-7.0,-4.0,7.0,4.0,23.0,29.0,1651087147595982.0
-1.0,-13.0,10.0,12.0,10.0,2.0,-2.0,-6.0,1651087147596982.0
26.0,8.0,-12.0,4.0,15.0,4.0,-8.0,-36.0,1651087147596982.0
27.0,58.0,1.0,-12.0,-24.0,-2.0,1.0,5.0,1651087147618659.0
6.0,-29.0,-6.0,8.0,-16.0,-10.0,1.0,13.0,1651087147618659.0
-12.0,5.0,-5.0,-9.0,9.0,9.0,-5.0,-14.0,1651087147620102.0
-33.0,-44.0,4.0,-4.0,-5.0,-4.0,2.0,4.0,1651087147620102.0
17.0,87.0,21.0,18.0,20.0,5.0,5.0,-11.0,1651087147633179.0
29.0,-4.0,26.0,4.0,-10.0,4.0,3.0,-9.0,1651087147633179.0
-2.0,-32.0,-2.0,-1.0,-5.0,-2.0,13.0,20.0,1651087147635061.0
53.0,79.0,18.0,14.0,24.0,6.0,-2.0,6.0,1651087147635061.0
-69.0,-109.0,-18.0,-19.0,-15.0,-11.0,-15.0,-18.0,1651087147655395.0
-12.0,22.0,5.0,6.0,-14.0,0.0,-4.0,-5.0,1651087147655395.0
-34.0,25.0,-9.0,17.0,13.0,-2.0,-3.0,9.0,1651087147657229.0
22.0,-15.0,25.0,-9.0,-6.0,5.0,13.0,4.0,1651087147657229.0
27.0,4.0,-42.0,0.0,16.0,7.0,14.0,27.0,1651087147678417.0
-42.0,-26.0,-28.0,-29.0,-20.0,-9.0,-8.0,-28.0,1651087147678417.0
3.0,1.0,12.0,2.0,-7.0,-4.0,-7.0,14.0,1651087147679467.0
-1.0,7.0,-2.0,-1.0,6.0,5.0,4.0,0.0,1651087147679467.0
-16.0,-41.0,17.0,15.0,2.0,3.0,8.0,2.0,1651087147693224.0
11.0,-18.0,-17.0,-6.0,8.0,4.0,-13.0,-17.0,1651087147693224.0
-13.0,64.0,-3.0,-3.0,-1.0,5.0,6.0,7.0,1651087147694254.0
-28.0,-11.0,-4.0,-28.0,-30.0,-15.0,-23.0,-28.0,1651087147694254.0
52.0,18.0,1.0,49.0,50.0,17.0,10.0,14.0,1651087147716595.0
-6.0,-91.0,-16.0,-10.0,1.0,3.0,15.0,18.0,1651087147716595.0
-2.0,30.0,7.0,-5.0,-24.0,-8.0,-1.0,-5.0,1651087147717461.0
25.0,40.0,12.0,19.0,35.0,18.0,12.0,-2.0,1651087147717461.0
-25.0,-86.0,-8.0,-28.0,-20.0,-13.0,-28.0,-15.0,1651087147738895.0
-1.0,19.0,0.0,18.0,-10.0,-7.0,12.0,11.0,1651087147738895.0
37.0,7.0,-2.0,-13.0,6.0,4.0,-11.0,-20.0,1651087147739896.0
-12.0,-73.0,-12.0,6.0,-5.0,-1.0,17.0,33.0,1651087147739896.0
-1.0,40.0,4.0,-15.0,-5.0,-4.0,-3.0,-1.0,1651087147753238.0
21.0,21.0,19.0,-12.0,-16.0,-1.0,10.0,-5.0,1651087147753238.0
-40.0,-48.0,-19.0,-16.0,-10.0,-10.0,-26.0,11.0,1651087147760387.0
-10.0,6.0,-2.0,24.0,22.0,9.0,14.0,16.0,1651087147760387.0
33.0,19.0,4.0,-10.0,-14.0,-10.0,-3.0,6.0,1651087147776572.0
35.0,-15.0,22.0,2.0,-5.0,4.0,-2.0,-12.0,1651087147776572.0
-47.0,5.0,-15.0,-5.0,13.0,3.0,11.0,-21.0,1651087147777403.0
11.0,20.0,3.0,5.0,8.0,1.0,-14.0,3.0,1651087147777403.0
-35.0,-56.0,-19.0,-5.0,-9.0,-6.0,-6.0,-12.0,1651087147799226.0
33.0,31.0,15.0,2.0,2.0,0.0,11.0,26.0,1651087147799226.0
20.0,-17.0,7.0,11.0,-6.0,0.0,-5.0,-20.0,1651087147799226.0
23.0,8.0,-8.0,-19.0,-3.0,-6.0,6.0,4.0,1651087147799226.0
-60.0,1.0,25.0,21.0,20.0,10.0,-14.0,-11.0,1651087147812539.0
28.0,61.0,16.0,-16.0,-8.0,-6.0,-1.0,21.0,1651087147812539.0
-17.0,-39.0,-22.0,14.0,12.0,3.0,25.0,16.0,1651087147820274.0
36.0,-1.0,-11.0,1.0,-4.0,-7.0,-12.0,-2.0,1651087147820274.0
-6.0,30.0,17.0,5.0,2.0,1.0,-16.0,-18.0,1651087147836568.0
-15.0,29.0,-8.0,5.0,9.0,6.0,15.0,15.0,1651087147836568.0
-16.0,26.0,7.0,-3.0,20.0,10.0,3.0,9.0,1651087147837416.0
-42.0,-33.0,0.0,15.0,-23.0,-13.0,-7.0,-13.0,1651087147837416.0
17.0,20.0,-17.0,-5.0,23.0,7.0,6.0,-6.0,1651087147859080.0
-15.0,24.0,2.0,-2.0,-8.0,-7.0,-20.0,-23.0,1651087147859080.0
-14.0,-47.0,5.0,-3.0,-12.0,-3.0,0.0,-7.0,1651087147859999.0
-9.0,8.0,2.0,-7.0,2.0,4.0,13.0,9.0,1651087147859999.0
21.0,1.0,9.0,5.0,-6.0,1.0,4.0,8.0,1651087147872518.0
-11.0,16.0,-7.0,-16.0,-9.0,-10.0,-12.0,-15.0,1651087147872518.0
25.0,7.0,7.0,13.0,8.0,6.0,5.0,-3.0,1651087147880711.0
-18.0,-31.0,0.0,-10.0,0.0,-9.0,-22.0,-9.0,1651087147880711.0
-3.0,21.0,-4.0,-6.0,-20.0,-5.0,11.0,8.0,1651087147895308.0
-2.0,-13.0,-18.0,-10.0,5.0,1.0,-16.0,-18.0,1651087147895308.0
11.0,6.0,11.0,3.0,-18.0,-10.0,-6.0,-8.0,1651087147897183.0
14.0,12.0,4.0,12.0,32.0,15.0,16.0,28.0,1651087147897183.0
-3.0,41.0,15.0,-3.0,0.0,3.0,7.0,-1.0,1651087147918679.0
5.0,-33.0,-29.0,3.0,4.0,-3.0,-13.0,-1.0,1651087147918679.0
5.0,-3.0,6.0,-8.0,-5.0,-1.0,2.0,1.0,1651087147920106.0
-16.0,0.0,-14.0,-10.0,-16.0,-7.0,-9.0,-18.0,1651087147920106.0
46.0,47.0,11.0,8.0,4.0,4.0,8.0,16.0,1651087147933005.0
-32.0,-24.0,5.0,7.0,10.0,3.0,-2.0,-7.0,1651087147933005.0
16.0,14.0,2.0,1.0,-10.0,-5.0,0.0,16.0,1651087147939189.0
-9.0,-12.0,8.0,-1.0,1.0,2.0,-5.0,-8.0,1651087147939189.0
-8.0,1.0,-8.0,-4.0,-2.0,-2.0,4.0,-2.0,1651087147955327.0
2.0,4.0,1.0,-2.0,-3.0,0.0,-2.0,-5.0,1651087147955327.0
8.0,-6.0,0.0,4.0,4.0,1.0,1.0,13.0,1651087147957184.0
-12.0,5.0,-2.0,-3.0,-7.0,-3.0,3.0,-7.0,1651087147957184.0
-6.0,-19.0,-16.0,-7.0,-4.0,-3.0,-2.0,-1.0,1651087147986223.0
3.0,5.0,3.0,7.0,5.0,2.0,5.0,3.0,1651087147986223.0
-1.0,-3.0,12.0,-1.0,-1.0,-6.0,-10.0,-9.0,1651087147987189.0
0.0,6.0,3.0,0.0,-1.0,2.0,5.0,2.0,1651087147987189.0
-2.0,-10.0,-32.0,-11.0,-8.0,-7.0,-8.0,-3.0,1651087147992211.0
-5.0,-9.0,-3.0,0.0,-3.0,1.0,2.0,0.0,1651087147992211.0
3.0,14.0,-1.0,1.0,-1.0,-2.0,-5.0,-4.0,1651087147999192.0
-6.0,0.0,0.0,2.0,-4.0,-4.0,2.0,0.0,1651087147999192.0
-3.0,-14.0,14.0,6.0,4.0,4.0,0.0,-3.0,1651087148015457.0
-3.0,7.0,-4.0,-5.0,-4.0,-4.0,2.0,0.0,1651087148015457.0
-1.0,-5.0,-9.0,-5.0,1.0,1.0,-4.0,-1.0,1651087148017362.0
-5.0,-1.0,-11.0,1.0,1.0,-4.0,-3.0,-4.0,1651087148017362.0
-3.0,-6.0,9.0,0.0,-3.0,-8.0,-5.0,5.0,1651087148038637.0
6.0,3.0,-4.0,-1.0,6.0,12.0,7.0,-3.0,1651087148038637.0
-3.0,0.0,4.0,-3.0,-9.0,-5.0,-3.0,-4.0,1651087148040075.0
-6.0,0.0,-7.0,-5.0,0.0,-9.0,-9.0,-5.0,1651087148040075.0
8.0,-4.0,-3.0,2.0,5.0,13.0,8.0,4.0,1651087148052717.0
-3.0,-1.0,4.0,-5.0,-7.0,-13.0,-5.0,15.0,1651087148052717.0
11.0,-2.0,6.0,4.0,2.0,8.0,1.0,-15.0,1651087148061341.0
-17.0,-1.0,-11.0,4.0,0.0,3.0,-9.0,-14.0,1651087148061341.0
-8.0,-7.0,-9.0,-5.0,-1.0,9.0,10.0,7.0,1651087148075579.0
21.0,6.0,7.0,3.0,1.0,-5.0,3.0,9.0,1651087148075579.0
4.0,-5.0,-9.0,0.0,2.0,6.0,1.0,10.0,1651087148077484.0
-1.0,6.0,14.0,-8.0,-9.0,-7.0,-2.0,-12.0,1651087148077484.0
-2.0,0.0,-12.0,-8.0,-2.0,-4.0,-5.0,-8.0,1651087148098648.0
-17.0,-4.0,-3.0,3.0,8.0,5.0,3.0,-8.0,1651087148098648.0
10.0,4.0,5.0,10.0,-6.0,-9.0,-4.0,4.0,1651087148100102.0
13.0,1.0,-2.0,3.0,2.0,8.0,10.0,7.0,1651087148100102.0
-3.0,8.0,16.0,9.0,3.0,-7.0,-7.0,3.0,1651087148112324.0
-1.0,-5.0,10.0,-2.0,-4.0,1.0,0.0,-1.0,1651087148112324.0
-4.0,-1.0,-15.0,-3.0,8.0,-1.0,-2.0,-16.0,1651087148121066.0
-3.0,-6.0,-27.0,-7.0,-2.0,0.0,0.0,6.0,1651087148121066.0
-1.0,1.0,-1.0,-6.0,-7.0,-4.0,-2.0,9.0,1651087148136349.0
-2.0,-1.0,1.0,4.0,2.0,-1.0,-1.0,-16.0,1651087148136349.0
-10.0,11.0,22.0,2.0,0.0,2.0,-2.0,2.0,1651087148137204.0
1.0,-7.0,-18.0,-16.0,-4.0,0.0,4.0,-1.0,1651087148137204.0
-4.0,-6.0,4.0,15.0,5.0,1.0,0.0,-2.0,1651087148158815.0
-3.0,4.0,21.0,3.0,-2.0,-3.0,1.0,12.0,1651087148158815.0
-4.0,-8.0,-14.0,-6.0,-4.0,-4.0,-2.0,-8.0,1651087148160107.0
-4.0,4.0,17.0,14.0,2.0,3.0,2.0,6.0,1651087148160107.0
-2.0,-4.0,1.0,-15.0,-2.0,1.0,2.0,-10.0,1651087148172379.0
-6.0,-16.0,-24.0,-5.0,-2.0,-3.0,-1.0,5.0,1651087148172379.0
-6.0,8.0,-14.0,-8.0,-2.0,1.0,-1.0,-12.0,1651087148180399.0
-5.0,2.0,-2.0,9.0,7.0,3.0,3.0,24.0,1651087148180399.0
4.0,-7.0,29.0,11.0,-6.0,-4.0,-6.0,-13.0,1651087148195225.0
1.0,3.0,22.0,3.0,-5.0,-2.0,0.0,-15.0,1651087148195225.0
-20.0,-4.0,-31.0,-17.0,2.0,2.0,-2.0,-6.0,1651087148197221.0
4.0,-6.0,29.0,18.0,1.0,-1.0,-3.0,-3.0,1651087148197221.0
-9.0,-2.0,-3.0,-3.0,0.0,-2.0,5.0,-7.0,1651087148219230.0
-16.0,2.0,-6.0,2.0,-4.0,-4.0,-6.0,7.0,1651087148219230.0
5.0,-8.0,5.0,6.0,0.0,1.0,0.0,5.0,1651087148219230.0
1.0,1.0,-29.0,-17.0,2.0,2.0,1.0,-7.0,1651087148219230.0
22.0,1.0,17.0,12.0,3.0,0.0,-1.0,0.0,1651087148233238.0
1.0,1.0,-11.0,-8.0,1.0,3.0,2.0,1.0,1651087148233238.0
1.0,0.0,0.0,-2.0,-3.0,-6.0,0.0,5.0,1651087148241362.0
-1.0,0.0,21.0,-3.0,-5.0,1.0,1.0,5.0,1651087148241362.0
-2.0,-8.0,-17.0,1.0,-1.0,-2.0,-2.0,-1.0,1651087148255384.0
5.0,17.0,12.0,11.0,4.0,2.0,3.0,7.0,1651087148255384.0
2.0,-1.0,18.0,3.0,3.0,2.0,-1.0,3.0,1651087148257216.0
1.0,-2.0,-9.0,-8.0,-4.0,-1.0,2.0,-6.0,1651087148257216.0
0.0,1.0,2.0,-3.0,-1.0,-1.0,-2.0,-2.0,1651087148278577.0
-7.0,-5.0,-10.0,-2.0,0.0,3.0,-1.0,-7.0,1651087148278577.0
11.0,-2.0,6.0,8.0,3.0,0.0,2.0,12.0,1651087148279576.0
-5.0,-5.0,-10.0,-11.0,-1.0,-1.0,-2.0,-33.0,1651087148279576.0
-2.0,2.0,-3.0,2.0,-2.0,-2.0,-5.0,-5.0,1651087148292971.0
4.0,1.0,-26.0,-8.0,-2.0,0.0,3.0,20.0,1651087148292971.0
-6.0,-20.0,17.0,9.0,-3.0,-4.0,-2.0,4.0,1651087148308501.0
1.0,13.0,-22.0,-14.0,-2.0,1.0,0.0,9.0,1651087148308501.0
16.0,2.0,10.0,11.0,2.0,3.0,0.0,14.0,1651087148316218.0
2.0,-2.0,-25.0,-9.0,2.0,1.0,-2.0,-28.0,1651087148316218.0
2.0,6.0,16.0,3.0,-4.0,-1.0,0.0,1.0,1651087148317055.0
3.0,1.0,-20.0,-4.0,-2.0,-2.0,1.0,-1.0,1651087148317055.0
-5.0,-7.0,-3.0,-2.0,-3.0,-3.0,2.0,16.0,1651087148338685.0
10.0,-5.0,10.0,4.0,1.0,3.0,-2.0,7.0,1651087148338685.0
3.0,8.0,2.0,2.0,4.0,0.0,0.0,-3.0,1651087148340104.0
3.0,-14.0,19.0,8.0,0.0,-1.0,-1.0,0.0,1651087148340104.0
-6.0,25.0,0.0,-6.0,0.0,-1.0,-2.0,-6.0,1651087148352434.0
-1.0,-6.0,-6.0,-2.0,-6.0,-6.0,-2.0,-2.0,1651087148352434.0
-6.0,0.0,-7.0,-3.0,1.0,1.0,-2.0,-5.0,1651087148361073.0
3.0,-1.0,-10.0,-4.0,3.0,3.0,-1.0,5.0,1651087148361073.0
-5.0,-21.0,-25.0,-8.0,-4.0,0.0,0.0,-3.0,1651087148375401.0
0.0,-3.0,31.0,5.0,-5.0,-1.0,0.0,-1.0,1651087148375401.0
7.0,12.0,-9.0,0.0,5.0,1.0,0.0,3.0,1651087148377251.0
-2.0,5.0,20.0,5.0,-3.0,-2.0,0.0,5.0,1651087148377251.0
-2.0,-1.0,-5.0,-1.0,2.0,1.0,1.0,-4.0,1651087148398664.0
-2.0,1.0,-4.0,-3.0,1.0,1.0,0.0,-2.0,1651087148398664.0
-3.0,-18.0,-13.0,-10.0,-5.0,0.0,-1.0,-1.0,1651087148400107.0
4.0,3.0,11.0,4.0,-1.0,0.0,-1.0,1.0,1651087148400107.0
-2.0,-1.0,-8.0,-3.0,2.0,-3.0,0.0,-6.0,1651087148412333.0
-5.0,1.0,0.0,4.0,0.0,2.0,-1.0,2.0,1651087148412333.0
-6.0,0.0,-1.0,-5.0,-2.0,0.0,2.0,1.0,1651087148421300.0
-2.0,-12.0,-15.0,-3.0,-4.0,-4.0,-4.0,1.0,1651087148421300.0
2.0,10.0,15.0,-1.0,-2.0,2.0,0.0,-3.0,1651087148443207.0
0.0,4.0,-7.0,-6.0,0.0,-4.0,-1.0,-2.0,1651087148443207.0
2.0,1.0,-10.0,-2.0,3.0,0.0,1.0,-1.0,1651087148445239.0
-1.0,-3.0,-11.0,3.0,-2.0,0.0,1.0,1.0,1651087148445239.0
-5.0,-18.0,-16.0,-2.0,2.0,4.0,-2.0,-1.0,1651087148458664.0
0.0,40.0,25.0,4.0,6.0,0.0,-1.0,2.0,1651087148458664.0
-4.0,-8.0,8.0,0.0,-3.0,-4.0,-4.0,-29.0,1651087148460139.0
-1.0,4.0,12.0,6.0,-1.0,-4.0,-1.0,1.0,1651087148460139.0
-4.0,-4.0,-11.0,-5.0,2.0,-1.0,1.0,0.0,1651087148472355.0
8.0,-2.0,3.0,5.0,0.0,2.0,-1.0,-4.0,1651087148472355.0
-3.0,-12.0,-20.0,-6.0,-1.0,-2.0,-1.0,5.0,1651087148481438.0
-1.0,6.0,11.0,2.0,2.0,0.0,-1.0,-1.0,1651087148481438.0
0.0,-3.0,2.0,0.0,-2.0,0.0,-2.0,-5.0,1651087148495208.0
-6.0,-5.0,-17.0,-10.0,-3.0,-2.0,1.0,1.0,1651087148495208.0
4.0,6.0,1.0,2.0,-5.0,-2.0,1.0,3.0,1651087148497203.0
0.0,-1.0,15.0,3.0,4.0,2.0,1.0,0.0,1651087148497203.0
-3.0,-2.0,0.0,-4.0,-1.0,-1.0,-2.0,2.0,1651087148518690.0
-2.0,-3.0,-8.0,1.0,4.0,1.0,2.0,0.0,1651087148518690.0
-3.0,-9.0,8.0,3.0,-2.0,0.0,-2.0,4.0,1651087148520076.0
-1.0,5.0,2.0,-4.0,1.0,0.0,1.0,-1.0,1651087148520076.0
-1.0,3.0,-8.0,-4.0,-3.0,-3.0,0.0,0.0,1651087148540383.0
0.0,-10.0,-3.0,-2.0,-3.0,-6.0,-2.0,-2.0,1651087148540383.0
1.0,28.0,9.0,-3.0,-6.0,1.0,1.0,1.0,1651087148542378.0
2.0,-9.0,-5.0,1.0,5.0,5.0,2.0,1.0,1651087148542378.0
-3.0,-9.0,-4.0,0.0,-2.0,-2.0,1.0,1.0,1651087148555374.0
2.0,-6.0,7.0,1.0,-1.0,-2.0,0.0,-1.0,1651087148555374.0
0.0,6.0,-13.0,2.0,2.0,-2.0,0.0,4.0,1651087148557338.0
1.0,-1.0,11.0,1.0,-4.0,-2.0,-2.0,1.0,1651087148557338.0
-1.0,13.0,1.0,-3.0,-4.0,-1.0,2.0,-1.0,1651087148577388.0
1.0,-9.0,-3.0,-1.0,-3.0,-2.0,-2.0,-1.0,1651087148577388.0
1.0,-6.0,2.0,2.0,1.0,-1.0,-2.0,2.0,1651087148586364.0
-1.0,2.0,0.0,0.0,-1.0,1.0,0.0,-1.0,1651087148586364.0
0.0,-13.0,-8.0,-4.0,1.0,2.0,0.0,0.0,1651087148601392.0
0.0,8.0,13.0,6.0,-2.0,-1.0,1.0,-1.0,1651087148601392.0
0.0,-6.0,0.0,-1.0,4.0,2.0,0.0,0.0,1651087148602229.0
1.0,3.0,1.0,-1.0,-2.0,-1.0,0.0,0.0,1651087148602229.0
2.0,5.0,5.0,3.0,-2.0,-2.0,-2.0,2.0,1651087148616542.0
-6.0,-8.0,-15.0,-2.0,-1.0,1.0,0.0,-1.0,1651087148616542.0
2.0,-1.0,3.0,0.0,-1.0,0.0,0.0,3.0,1651087148617417.0
-2.0,-7.0,-4.0,-2.0,0.0,-1.0,1.0,-1.0,1651087148617417.0
2.0,13.0,2.0,0.0,-1.0,-1.0,1.0,0.0,1651087148638836.0
-2.0,1.0,9.0,-2.0,-2.0,-2.0,-3.0,-1.0,1651087148638836.0
-1.0,-8.0,-3.0,-1.0,1.0,2.0,-1.0,-2.0,1651087148640093.0
1.0,6.0,2.0,0.0,-3.0,-6.0,-1.0,-1.0,1651087148640093.0
-2.0,1.0,0.0,0.0,-4.0,2.0,1.0,-1.0,1651087148661279.0
-4.0,-7.0,-3.0,3.0,6.0,1.0,1.0,1.0,1651087148661279.0
1.0,1.0,-3.0,-7.0,-5.0,-6.0,0.0,1.0,1651087148662404.0
-3.0,-9.0,-13.0,-2.0,1.0,-2.0,0.0,-3.0,1651087148662404.0
-3.0,1.0,22.0,1.0,-4.0,-5.0,-3.0,-2.0,1651087148675529.0
-1.0,1.0,-17.0,-3.0,-2.0,1.0,1.0,0.0,1651087148675529.0
-1.0,2.0,-1.0,1.0,3.0,2.0,0.0,2.0,1651087148681514.0
0.0,-10.0,5.0,3.0,-3.0,-2.0,-2.0,0.0,1651087148681514.0
1.0,7.0,1.0,-6.0,1.0,1.0,1.0,0.0,1651087148698611.0
-2.0,-4.0,2.0,5.0,0.0,3.0,1.0,-1.0,1651087148698611.0
0.0,2.0,-1.0,-2.0,-1.0,-1.0,-2.0,0.0,1651087148699465.0
-1.0,3.0,0.0,1.0,-2.0,1.0,0.0,0.0,1651087148699465.0
0.0,-3.0,-2.0,-4.0,-4.0,-3.0,-2.0,1.0,1651087148720448.0
1.0,7.0,7.0,-3.0,-1.0,-2.0,-2.0,1.0,1651087148720448.0
-4.0,-15.0,-23.0,-1.0,3.0,0.0,2.0,0.0,1651087148722446.0
-1.0,4.0,7.0,1.0,-4.0,-3.0,-3.0,-4.0,1651087148722446.0
-1.0,-6.0,3.0,5.0,4.0,2.0,0.0,0.0,1651087148735577.0
2.0,-1.0,-5.0,-5.0,-2.0,1.0,1.0,-1.0,1651087148735577.0
2.0,6.0,1.0,-1.0,-4.0,-2.0,0.0,0.0,1651087148742696.0
-1.0,-6.0,1.0,0.0,5.0,3.0,-2.0,0.0,1651087148742696.0
-1.0,-5.0,-10.0,-1.0,-2.0,-3.0,-1.0,0.0,1651087148759244.0
0.0,-1.0,2.0,-4.0,-3.0,-3.0,-3.0,-1.0,1651087148759244.0
-1.0,-3.0,5.0,2.0,-2.0,-2.0,-1.0,-3.0,1651087148759244.0
-4.0,-3.0,-10.0,0.0,2.0,5.0,2.0,1.0,1651087148759244.0
0.0,4.0,7.0,3.0,1.0,-1.0,-1.0,-1.0,1651087148781230.0
2.0,-16.0,-12.0,-1.0,-2.0,-1.0,-1.0,1.0,1651087148781230.0
-2.0,6.0,1.0,1.0,-1.0,-2.0,-1.0,-1.0,1651087148783183.0
-1.0,6.0,3.0,4.0,3.0,1.0,0.0,1.0,1651087148783183.0
-1.0,0.0,-1.0,-2.0,-1.0,-2.0,-1.0,0.0,1651087148794393.0
0.0,-3.0,-6.0,-1.0,-1.0,0.0,1.0,2.0,1651087148794393.0
0.0,-2.0,-1.0,-4.0,-5.0,-4.0,-2.0,-2.0,1651087148803223.0
5.0,12.0,5.0,-2.0,-6.0,-3.0,0.0,0.0,1651087148803223.0
-5.0,-23.0,-17.0,-1.0,-1.0,0.0,-2.0,-4.0,1651087148819232.0
-1.0,-5.0,1.0,-2.0,5.0,1.0,0.0,0.0,1651087148819232.0
-1.0,-2.0,-10.0,0.0,3.0,4.0,-1.0,0.0,1651087148819232.0
-1.0,2.0,4.0,3.0,1.0,0.0,1.0,1.0,1651087148819232.0
-1.0,-1.0,5.0,1.0,1.0,1.0,1.0,1.0,1651087148841118.0
1.0,2.0,2.0,-3.0,-5.0,-3.0,-2.0,-2.0,1651087148841118.0
0.0,-5.0,2.0,-3.0,-3.0,1.0,0.0,0.0,1651087148842118.0
1.0,-9.0,-2.0,-4.0,4.0,3.0,0.0,-1.0,1651087148842118.0
-2.0,0.0,-7.0,-1.0,-1.0,-2.0,-2.0,-2.0,1651087148855377.0
1.0,2.0,1.0,0.0,3.0,3.0,1.0,1.0,1651087148855377.0
-4.0,-14.0,-4.0,2.0,-2.0,-3.0,-2.0,-1.0,1651087148861373.0
-2.0,10.0,4.0,-4.0,-7.0,-4.0,-3.0,-3.0,1651087148861373.0
0.0,-1.0,-3.0,-2.0,3.0,-2.0,-1.0,0.0,1651087148878733.0
-3.0,4.0,15.0,5.0,1.0,0.0,1.0,-2.0,1651087148878733.0
1.0,-1.0,-3.0,2.0,-5.0,0.0,-1.0,0.0,1651087148879698.0
-1.0,1.0,-9.0,-1.0,4.0,0.0,-1.0,0.0,1651087148879698.0
0.0,-7.0,9.0,1.0,0.0,1.0,0.0,0.0,1651087148901221.0
-1.0,7.0,-11.0,-5.0,-4.0,-3.0,-1.0,0.0,1651087148901221.0
0.0,2.0,5.0,0.0,0.0,-2.0,-1.0,2.0,1651087148902055.0
-1.0,3.0,-3.0,-1.0,-3.0,-4.0,-2.0,0.0,1651087148902055.0
1.0,6.0,-8.0,-4.0,1.0,2.0,1.0,1.0,1651087148915313.0
-1.0,1.0,9.0,5.0,2.0,1.0,-1.0,-2.0,1651087148915313.0
0.0,2.0,11.0,4.0,0.0,0.0,-1.0,-1.0,1651087148922292.0
-2.0,4.0,-1.0,0.0,2.0,2.0,0.0,-1.0,1651087148922292.0
1.0,-5.0,-1.0,-2.0,-1.0,-2.0,0.0,0.0,1651087148938721.0
-2.0,-5.0,-4.0,-3.0,-6.0,-5.0,-2.0,-1.0,1651087148938721.0
2.0,-1.0,-8.0,-4.0,1.0,0.0,0.0,1.0,1651087148940075.0
-3.0,-2.0,2.0,0.0,0.0,2.0,-1.0,-3.0,1651087148940075.0
1.0,9.0,-10.0,-2.0,-3.0,1.0,2.0,-1.0,1651087148961148.0
-2.0,-3.0,8.0,3.0,2.0,0.0,-1.0,-1.0,1651087148961148.0
4.0,4.0,13.0,5.0,1.0,-1.0,0.0,2.0,1651087148962385.0
-6.0,-20.0,-30.0,-18.0,-9.0,-7.0,-3.0,-3.0,1651087148962385.0
-1.0,5.0,0.0,6.0,0.0,1.0,0.0,-2.0,1651087148975484.0
-2.0,0.0,-1.0,4.0,1.0,0.0,1.0,0.0,1651087148975484.0
0.0,8.0,13.0,-1.0,2.0,-1.0,1.0,-1.0,1651087148981467.0
2.0,-2.0,-6.0,2.0,2.0,2.0,1.0,2.0,1651087148981467.0
-1.0,4.0,2.0,-5.0,-7.0,-5.0,-4.0,0.0,1651087148998613.0
1.0,-9.0,-14.0,-4.0,-6.0,0.0,-1.0,-2.0,1651087148998613.0
-1.0,-4.0,-3.0,-2.0,5.0,2.0,2.0,-1.0,1651087148999447.0
-1.0,5.0,9.0,2.0,-2.0,-2.0,-1.0,-1.0,1651087148999447.0
-1.0,-8.0,3.0,2.0,1.0,-2.0,1.0,-1.0,1651087149021262.0
0.0,14.0,-2.0,-1.0,0.0,2.0,-3.0,0.0,1651087149021262.0
-2.0,0.0,-26.0,-5.0,0.0,0.0,-2.0,-1.0,1651087149022228.0
1.0,4.0,6.0,2.0,-1.0,-3.0,-1.0,1.0,1651087149022228.0
0.0,-4.0,0.0,1.0,2.0,2.0,1.0,0.0,1651087149034558.0
0.0,-2.0,4.0,-2.0,-3.0,-2.0,-1.0,-2.0,1651087149034558.0
0.0,-2.0,-2.0,-5.0,-9.0,-4.0,-1.0,0.0,1651087149043175.0
0.0,-8.0,-3.0,1.0,4.0,4.0,1.0,1.0,1651087149043175.0
1.0,12.0,5.0,5.0,4.0,-1.0,-1.0,0.0,1651087149058441.0
-1.0,0.0,-11.0,-8.0,5.0,1.0,-1.0,-2.0,1651087149058441.0
-3.0,-17.0,9.0,4.0,0.0,0.0,-1.0,-1.0,1651087149059305.0
0.0,-8.0,7.0,3.0,-7.0,-5.0,-1.0,-1.0,1651087149059305.0
-1.0,-1.0,-2.0,1.0,4.0,3.0,1.0,-1.0,1651087149089133.0
1.0,11.0,15.0,3.0,0.0,-1.0,1.0,0.0,1651087149089133.0
0.0,-4.0,-16.0,-4.0,1.0,0.0,-2.0,0.0,1651087149090134.0
0.0,-1.0,-1.0,-2.0,-2.0,0.0,-1.0,-1.0,1651087149090134.0
-2.0,-6.0,-2.0,6.0,2.0,1.0,-1.0,1.0,1651087149094155.0
-3.0,0.0,2.0,2.0,4.0,2.0,1.0,-2.0,1651087149094155.0
1.0,4.0,4.0,-2.0,-3.0,-2.0,-1.0,0.0,1651087149103101.0
2.0,-3.0,-1.0,-2.0,-3.0,-1.0,0.0,-1.0,1651087149103101.0
0.0,-3.0,-4.0,-2.0,-1.0,-2.0,0.0,-1.0,1651087149118910.0
-2.0,14.0,6.0,-1.0,1.0,-2.0,-2.0,-1.0,1651087149118910.0
-1.0,-1.0,-5.0,-4.0,-3.0,-1.0,-3.0,-2.0,1651087149120106.0
-1.0,6.0,-1.0,-1.0,2.0,-1.0,-1.0,1.0,1651087149120106.0
-1.0,-5.0,-13.0,-5.0,-1.0,3.0,1.0,-1.0,1651087149141198.0
-1.0,-5.0,5.0,4.0,0.0,0.0,1.0,-1.0,1651087149141198.0
-2.0,1.0,2.0,3.0,2.0,-1.0,-1.0,-1.0,1651087149142098.0
-1.0,-6.0,2.0,-2.0,-4.0,-2.0,-1.0,0.0,1651087149142098.0
2.0,21.0,-2.0,0.0,-2.0,-3.0,-1.0,0.0,1651087149155351.0
0.0,-14.0,-1.0,-3.0,-3.0,-2.0,-3.0,1.0,1651087149155351.0
-2.0,7.0,1.0,2.0,1.0,0.0,2.0,2.0,1651087149163366.0
0.0,-2.0,3.0,-7.0,9.0,4.0,2.0,2.0,1651087149163366.0
-2.0,2.0,13.0,6.0,-5.0,-3.0,-3.0,-4.0,1651087149178496.0
1.0,-4.0,-14.0,-2.0,-2.0,0.0,1.0,-1.0,1651087149178496.0
-1.0,8.0,15.0,3.0,-5.0,-1.0,-1.0,-4.0,1651087149179498.0
-2.0,0.0,2.0,-4.0,-4.0,-5.0,-2.0,-2.0,1651087149179498.0
1.0,-2.0,12.0,-2.0,-3.0,-1.0,-1.0,0.0,1651087149201367.0
-3.0,-2.0,-9.0,-3.0,-1.0,-1.0,0.0,0.0,1651087149201367.0
-2.0,-2.0,-11.0,-5.0,-4.0,-1.0,0.0,-2.0,1651087149202220.0
2.0,7.0,9.0,15.0,8.0,6.0,1.0,1.0,1651087149202220.0
-1.0,-17.0,-14.0,-14.0,-6.0,-1.0,-2.0,-1.0,1651087149214513.0
3.0,-6.0,-1.0,-5.0,-12.0,-6.0,-1.0,0.0,1651087149214513.0
0.0,2.0,12.0,9.0,12.0,8.0,1.0,1.0,1651087149223400.0
-3.0,1.0,-11.0,2.0,8.0,1.0,0.0,-2.0,1651087149223400.0
1.0,8.0,11.0,4.0,-6.0,-3.0,-2.0,0.0,1651087149238783.0
-2.0,-10.0,-3.0,-2.0,-8.0,-7.0,-2.0,-1.0,1651087149238783.0
-1.0,-5.0,1.0,6.0,18.0,8.0,2.0,0.0,1651087149240105.0
1.0,-1.0,-3.0,2.0,-1.0,2.0,0.0,1.0,1651087149240105.0
-2.0,2.0,14.0,-11.0,-8.0,-4.0,-1.0,-2.0,1651087149260334.0
-1.0,3.0,1.0,6.0,10.0,8.0,0.0,1.0,1651087149260334.0
1.0,3.0,0.0,0.0,-9.0,-8.0,-3.0,-1.0,1651087149262197.0
-1.0,1.0,11.0,-3.0,-9.0,-7.0,-3.0,-3.0,1651087149262197.0
-2.0,-2.0,-15.0,-2.0,5.0,2.0,0.0,-1.0,1651087149274202.0
1.0,-2.0,-2.0,-5.0,4.0,7.0,2.0,0.0,1651087149274202.0
1.0,0.0,7.0,-4.0,-12.0,-3.0,-2.0,-2.0,1651087149283491.0
1.0,-1.0,-2.0,0.0,1.0,-2.0,-1.0,0.0,1651087149283491.0
1.0,-6.0,-13.0,2.0,0.0,-4.0,-1.0,0.0,1651087149298633.0
1.0,2.0,8.0,-2.0,-3.0,-4.0,-1.0,-2.0,1651087149298633.0
1.0,-4.0,-17.0,-5.0,9.0,4.0,1.0,1.0,1651087149300103.0
-2.0,1.0,-2.0,-14.0,-23.0,-6.0,-3.0,0.0,1651087149300103.0
-2.0,2.0,-1.0,16.0,20.0,6.0,1.0,-1.0,1651087149321252.0
1.0,-5.0,-6.0,-1.0,-1.0,-2.0,-1.0,2.0,1651087149321252.0
-4.0,-9.0,-8.0,0.0,-13.0,-8.0,-1.0,-3.0,1651087149322217.0
-1.0,12.0,9.0,6.0,1.0,1.0,0.0,0.0,1651087149322217.0
-1.0,-5.0,0.0,-11.0,0.0,5.0,1.0,0.0,1651087149335274.0
3.0,-4.0,0.0,13.0,12.0,5.0,3.0,1.0,1651087149335274.0
-1.0,1.0,11.0,-6.0,-4.0,-5.0,-3.0,0.0,1651087149343091.0
0.0,-3.0,2.0,3.0,-3.0,-3.0,0.0,0.0,1651087149343091.0
-1.0,-1.0,-5.0,0.0,-12.0,-5.0,-2.0,-2.0,1651087149358661.0
-1.0,-1.0,-9.0,-8.0,-12.0,-3.0,-1.0,-2.0,1651087149358661.0
-1.0,-1.0,4.0,9.0,6.0,0.0,-1.0,-1.0,1651087149360070.0
0.0,-7.0,-9.0,11.0,16.0,3.0,0.0,-1.0,1651087149360070.0
1.0,1.0,6.0,-19.0,-10.0,-1.0,0.0,2.0,1651087149381225.0
-2.0,1.0,-3.0,-8.0,-17.0,-9.0,-3.0,-2.0,1651087149381225.0
0.0,2.0,1.0,15.0,31.0,12.0,1.0,0.0,1651087149382184.0
0.0,-6.0,-13.0,-5.0,2.0,2.0,0.0,-2.0,1651087149382184.0
-3.0,-5.0,4.0,13.0,15.0,-2.0,-3.0,0.0,1651087149394295.0
-1.0,10.0,3.0,-1.0,3.0,3.0,0.0,-3.0,1651087149394295.0
4.0,9.0,0.0,1.0,-12.0,-3.0,1.0,2.0,1651087149403313.0
-3.0,-9.0,-4.0,-3.0,4.0,-4.0,-3.0,-2.0,1651087149403313.0
0.0,5.0,-1.0,-1.0,6.0,9.0,4.0,0.0,1651087149418700.0
-3.0,1.0,2.0,-4.0,-1.0,-1.0,-4.0,-3.0,1651087149418700.0
-1.0,-1.0,0.0,-10.0,-4.0,4.0,2.0,0.0,1651087149419564.0
3.0,4.0,6.0,14.0,3.0,-2.0,1.0,2.0,1651087149419564.0
0.0,-6.0,-9.0,-8.0,-12.0,-6.0,-1.0,-1.0,1651087149441160.0
-3.0,7.0,9.0,10.0,-1.0,-3.0,-3.0,-4.0,1651087149441160.0
-5.0,-16.0,-20.0,-18.0,-10.0,-2.0,-2.0,0.0,1651087149442135.0
1.0,1.0,-2.0,-8.0,-6.0,-2.0,0.0,1.0,1651087149442135.0
2.0,6.0,17.0,5.0,-8.0,-1.0,-1.0,-2.0,1651087149454356.0
-1.0,-17.0,-2.0,1.0,14.0,3.0,1.0,2.0,1651087149454356.0
3.0,2.0,5.0,17.0,0.0,2.0,-1.0,2.0,1651087149463094.0
3.0,2.0,-3.0,-13.0,-11.0,-3.0,0.0,1.0,1651087149463094.0
-5.0,-6.0,-15.0,-5.0,6.0,7.0,-1.0,0.0,1651087149479107.0
-23.0,-5.0,10.0,17.0,-4.0,-5.0,-2.0,-3.0,1651087149479107.0
5.0,31.0,0.0,-9.0,-7.0,-2.0,0.0,-2.0,1651087149480108.0
-3.0,3.0,-2.0,8.0,5.0,1.0,-2.0,-1.0,1651087149480108.0
1.0,-1.0,-20.0,-20.0,-16.0,-13.0,-5.0,-2.0,1651087149501404.0
8.0,-1.0,-2.0,5.0,3.0,3.0,3.0,3.0,1651087149501404.0
-5.0,-8.0,4.0,8.0,14.0,7.0,3.0,0.0,1651087149502280.0
8.0,5.0,-2.0,-8.0,-4.0,3.0,1.0,-1.0,1651087149502280.0
-4.0,15.0,6.0,4.0,0.0,-2.0,1.0,2.0,1651087149523434.0
13.0,-18.0,-6.0,3.0,8.0,-1.0,-2.0,1.0,1651087149523434.0
-25.0,-5.0,9.0,-7.0,-10.0,-6.0,-1.0,-3.0,1651087149524432.0
-4.0,-17.0,-11.0,4.0,-12.0,-3.0,-1.0,-4.0,1651087149524432.0
-2.0,0.0,8.0,-5.0,15.0,6.0,1.0,0.0,1651087149538434.0
8.0,4.0,-1.0,18.0,7.0,2.0,0.0,3.0,1651087149538434.0
-1.0,4.0,-5.0,-14.0,2.0,2.0,1.0,-3.0,1651087149539390.0
2.0,-3.0,-5.0,-15.0,-10.0,-5.0,-3.0,-3.0,1651087149539390.0
6.0,5.0,7.0,43.0,21.0,6.0,6.0,4.0,1651087149561395.0
1.0,36.0,7.0,-12.0,-11.0,-1.0,-2.0,-3.0,1651087149561395.0
2.0,-35.0,-13.0,-7.0,-8.0,-6.0,-1.0,-1.0,1651087149562235.0
4.0,5.0,5.0,-2.0,2.0,3.0,-1.0,0.0,1651087149562235.0
5.0,-3.0,-11.0,-13.0,-11.0,-6.0,-1.0,-4.0,1651087149584264.0
6.0,-4.0,-13.0,-5.0,-7.0,-4.0,-4.0,-3.0,1651087149584264.0
-28.0,1.0,6.0,11.0,7.0,3.0,2.0,-1.0,1651087149584264.0
-4.0,16.0,-3.0,-10.0,-2.0,2.0,3.0,6.0,1651087149584264.0
5.0,-12.0,4.0,-8.0,-4.0,0.0,1.0,-2.0,1651087149598553.0
9.0,9.0,4.0,-2.0,12.0,5.0,0.0,0.0,1651087149598553.0
-14.0,10.0,-3.0,-8.0,-10.0,-3.0,-1.0,-1.0,1651087149605217.0
-2.0,-22.0,1.0,5.0,-4.0,-4.0,-4.0,-3.0,1651087149605217.0
7.0,20.0,8.0,10.0,11.0,2.0,5.0,5.0,1651087149621290.0
-24.0,-17.0,-12.0,-7.0,1.0,2.0,-1.0,-7.0,1651087149621290.0
17.0,8.0,0.0,11.0,-2.0,-5.0,-2.0,2.0,1651087149622323.0
12.0,15.0,7.0,13.0,38.0,18.0,6.0,2.0,1651087149622323.0
12.0,-10.0,1.0,-8.0,-10.0,-2.0,-3.0,-2.0,1651087149644242.0
-14.0,-1.0,-3.0,-18.0,-19.0,-7.0,0.0,1.0,1651087149644242.0
2.0,3.0,-8.0,5.0,4.0,-2.0,-2.0,-3.0,1651087149646213.0
-5.0,-11.0,-2.0,7.0,0.0,-1.0,-3.0,4.0,1651087149646213.0
6.0,-1.0,7.0,2.0,3.0,4.0,2.0,4.0,1651087149657309.0
-16.0,-34.0,-7.0,-9.0,-11.0,0.0,0.0,-5.0,1651087149657309.0
11.0,-19.0,-1.0,-2.0,-6.0,-7.0,-5.0,2.0,1651087149664307.0
-4.0,36.0,13.0,-7.0,-7.0,-3.0,-1.0,-16.0,1651087149664307.0
-10.0,9.0,-22.0,-3.0,-8.0,-11.0,-7.0,14.0,1651087149680809.0
13.0,8.0,5.0,7.0,1.0,4.0,4.0,4.0,1651087149680809.0
4.0,-15.0,0.0,12.0,14.0,7.0,-3.0,-5.0,1651087149682698.0
10.0,19.0,-10.0,-28.0,-29.0,-19.0,-6.0,-12.0,1651087149682698.0
-13.0,-10.0,0.0,-2.0,11.0,1.0,0.0,13.0,1651087149703212.0
12.0,42.0,9.0,3.0,-6.0,-1.0,2.0,5.0,1651087149703212.0
-14.0,-27.0,-5.0,-10.0,-3.0,-1.0,1.0,15.0,1651087149704211.0
-20.0,7.0,5.0,-2.0,-14.0,-6.0,-13.0,-24.0,1651087149704211.0
-3.0,-29.0,6.0,8.0,-5.0,-9.0,-25.0,-89.0,1651087149717987.0
-5.0,13.0,-19.0,-16.0,-6.0,-4.0,23.0,67.0,1651087149717987.0
25.0,12.0,20.0,10.0,3.0,8.0,-4.0,-10.0,1651087149723973.0
8.0,-26.0,-9.0,0.0,2.0,-5.0,-2.0,-11.0,1651087149723973.0
-26.0,-10.0,10.0,-7.0,-9.0,3.0,14.0,16.0,1651087149740264.0
19.0,59.0,25.0,23.0,22.0,-2.0,-27.0,-58.0,1651087149740264.0
12.0,-8.0,-5.0,-16.0,-32.0,-6.0,8.0,8.0,1651087149742629.0
-34.0,-21.0,-14.0,4.0,50.0,21.0,6.0,2.0,1651087149742629.0
-21.0,1.0,-9.0,-9.0,-30.0,-12.0,-13.0,-11.0,1651087149763378.0
31.0,25.0,17.0,0.0,6.0,11.0,12.0,31.0,1651087149763378.0
15.0,34.0,-24.0,1.0,-15.0,-12.0,-22.0,-18.0,1651087149764347.0
-41.0,-49.0,13.0,13.0,13.0,5.0,10.0,29.0,1651087149764347.0
27.0,-9.0,0.0,17.0,3.0,4.0,-8.0,-7.0,1651087149777480.0
-38.0,24.0,-11.0,-20.0,-10.0,1.0,19.0,4.0,1651087149777480.0
20.0,-62.0,7.0,-6.0,0.0,-5.0,-10.0,-37.0,1651087149784581.0
19.0,105.0,-8.0,6.0,27.0,16.0,18.0,22.0,1651087149784581.0
-4.0,-89.0,-13.0,-11.0,-13.0,-13.0,-10.0,1.0,1651087149800308.0
17.0,-5.0,19.0,15.0,16.0,7.0,-1.0,-9.0,1651087149800308.0
-21.0,-57.0,-11.0,-9.0,-4.0,-4.0,-1.0,-6.0,1651087149802184.0
23.0,5.0,6.0,-9.0,-26.0,-9.0,5.0,22.0,1651087149802184.0
20.0,76.0,17.0,22.0,22.0,8.0,2.0,-16.0,1651087149823177.0
35.0,-35.0,-28.0,-5.0,-8.0,-13.0,-3.0,-9.0,1651087149823177.0
-24.0,-6.0,7.0,-8.0,5.0,0.0,19.0,17.0,1651087149831400.0
87.0,55.0,-30.0,-26.0,-48.0,-27.0,-36.0,-17.0,1651087149831400.0
-43.0,32.0,10.0,18.0,39.0,20.0,21.0,24.0,1651087149838486.0
-48.0,10.0,-2.0,0.0,-10.0,-7.0,-8.0,-19.0,1651087149838486.0
23.0,-56.0,7.0,-4.0,6.0,3.0,1.0,12.0,1651087149845191.0
-29.0,41.0,20.0,7.0,17.0,15.0,22.0,21.0,1651087149845191.0
14.0,-25.0,-17.0,-6.0,-6.0,-7.0,-19.0,-11.0,1651087149861051.0
-9.0,68.0,-2.0,14.0,-4.0,-4.0,-4.0,-5.0,1651087149861051.0
-58.0,-18.0,15.0,7.0,30.0,11.0,13.0,-4.0,1651087149862220.0
-5.0,-7.0,-6.0,6.0,-4.0,-2.0,-2.0,-7.0,1651087149862220.0
24.0,27.0,-21.0,-22.0,-40.0,-21.0,-6.0,14.0,1651087149883344.0
33.0,43.0,17.0,13.0,42.0,18.0,2.0,-5.0,1651087149883344.0
-12.0,-42.0,-22.0,-14.0,-24.0,-14.0,-28.0,-20.0,1651087149884235.0
15.0,-45.0,9.0,14.0,4.0,-2.0,-4.0,8.0,1651087149884235.0
-52.0,40.0,-35.0,-22.0,-15.0,-3.0,0.0,6.0,1651087149897341.0
21.0,-10.0,-1.0,-4.0,16.0,4.0,10.0,-4.0,1651087149897341.0
18.0,79.0,27.0,23.0,4.0,6.0,-10.0,-1.0,1651087149905457.0
-79.0,3.0,6.0,2.0,10.0,6.0,16.0,-24.0,1651087149905457.0
-10.0,-110.0,-6.0,-2.0,-8.0,-7.0,-1.0,5.0,1651087149920351.0
-21.0,-13.0,-5.0,-8.0,-11.0,5.0,14.0,21.0,1651087149920351.0
