EMG_s0,EMG_s1,EMG_s2,EMG_s3,EMG_s4,EMG_s5,EMG_s6,EMG_s7,timestamp
-1.0,1.0,0.0,-1.0,0.0,-1.0,0.0,0.0,1651068571062534.0
0.0,1.0,0.0,1.0,-1.0,0.0,1.0,0.0,1651068571062534.0
-1.0,-3.0,-1.0,-1.0,0.0,-1.0,-2.0,0.0,1651068571064529.0
1.0,1.0,0.0,-2.0,-1.0,-2.0,-2.0,0.0,1651068571064529.0
-1.0,1.0,-1.0,1.0,2.0,2.0,1.0,0.0,1651068571064529.0
1.0,0.0,0.0,0.0,0.0,1.0,-1.0,-1.0,1651068571064529.0
0.0,-1.0,-2.0,-1.0,0.0,0.0,0.0,0.0,1651068571066501.0
-1.0,-2.0,1.0,-1.0,0.0,1.0,1.0,1.0,1651068571066501.0
0.0,0.0,-4.0,-1.0,-1.0,-2.0,-1.0,-3.0,1651068571076474.0
0.0,-1.0,-1.0,-2.0,1.0,-1.0,-2.0,0.0,1651068571076474.0
-1.0,2.0,0.0,-1.0,-2.0,-4.0,-1.0,0.0,1651068571081488.0
-2.0,2.0,2.0,-1.0,-3.0,1.0,-1.0,0.0,1651068571081488.0
-1.0,0.0,0.0,0.0,-1.0,0.0,-1.0,-2.0,1651068571090482.0
-1.0,-1.0,1.0,0.0,-1.0,-1.0,-1.0,0.0,1651068571090482.0
0.0,1.0,0.0,0.0,-1.0,1.0,5.0,2.0,1651068571105463.0
-1.0,-3.0,-1.0,-1.0,1.0,-1.0,-1.0,-1.0,1651068571105463.0
1.0,-1.0,0.0,-2.0,-1.0,-2.0,-2.0,-1.0,1651068571111446.0
-1.0,-2.0,-4.0,-1.0,-1.0,-2.0,-2.0,-1.0,1651068571111446.0
-1.0,0.0,0.0,0.0,-1.0,1.0,-2.0,-2.0,1651068571130356.0
0.0,-3.0,-4.0,-2.0,-2.0,0.0,-3.0,-1.0,1651068571130356.0
-1.0,-1.0,0.0,0.0,-2.0,-1.0,-2.0,0.0,1651068571134319.0
-2.0,0.0,1.0,1.0,1.0,2.0,2.0,-1.0,1651068571134319.0
0.0,-1.0,-1.0,-2.0,0.0,0.0,0.0,1.0,1651068571150048.0
0.0,0.0,3.0,1.0,-1.0,-2.0,0.0,-2.0,1651068571150048.0
1.0,-1.0,-1.0,-2.0,-2.0,-3.0,-1.0,0.0,1651068571150048.0
0.0,-3.0,-4.0,-2.0,-1.0,-3.0,0.0,-1.0,1651068571150048.0
0.0,2.0,1.0,0.0,-1.0,0.0,0.0,-1.0,1651068571196281.0
-1.0,0.0,-4.0,-1.0,-3.0,0.0,0.0,-3.0,1651068571196281.0
1.0,0.0,-1.0,-2.0,0.0,0.0,-2.0,-1.0,1651068571197212.0
-2.0,1.0,0.0,0.0,1.0,0.0,0.0,1.0,1651068571197212.0
-2.0,2.0,2.0,1.0,-1.0,-1.0,1.0,1.0,1651068571198236.0
0.0,1.0,0.0,-2.0,2.0,0.0,-2.0,-2.0,1651068571198236.0
-1.0,-1.0,-1.0,0.0,0.0,0.0,2.0,2.0,1651068571201200.0
2.0,0.0,-1.0,0.0,-4.0,-1.0,-1.0,-1.0,1651068571201200.0
0.0,0.0,-2.0,0.0,-2.0,1.0,-1.0,0.0,1651068571208182.0
-2.0,-1.0,2.0,0.0,1.0,-1.0,-2.0,-1.0,1651068571208182.0
-1.0,-1.0,-2.0,0.0,-2.0,-1.0,-1.0,-1.0,1651068571217186.0
-1.0,0.0,2.0,-1.0,-1.0,-3.0,-3.0,-1.0,1651068571217186.0
1.0,-2.0,-1.0,-1.0,0.0,0.0,-1.0,-2.0,1651068571224143.0
1.0,-1.0,0.0,1.0,0.0,1.0,2.0,0.0,1651068571224143.0
1.0,-1.0,0.0,-1.0,0.0,0.0,0.0,0.0,1651068571240219.0
-1.0,1.0,2.0,-1.0,-2.0,-2.0,1.0,-1.0,1651068571240219.0
-2.0,1.0,-2.0,0.0,0.0,-1.0,1.0,-1.0,1651068571246203.0
-1.0,0.0,-3.0,-1.0,-1.0,-1.0,-1.0,-1.0,1651068571246203.0
-1.0,-1.0,0.0,-2.0,1.0,-1.0,-1.0,-3.0,1651068571269348.0
-2.0,-1.0,-5.0,-2.0,0.0,-2.0,0.0,-2.0,1651068571269348.0
-2.0,-4.0,0.0,-1.0,-2.0,-2.0,0.0,-1.0,1651068571270350.0
-1.0,0.0,1.0,0.0,-2.0,-1.0,-1.0,-1.0,1651068571270350.0
-1.0,0.0,1.0,0.0,-2.0,-1.0,-1.0,-1.0,1651068571284503.0
-1.0,0.0,-3.0,1.0,1.0,0.0,-3.0,-1.0,1651068571284503.0
-1.0,-1.0,-2.0,-1.0,1.0,0.0,0.0,0.0,1651068571285424.0
-1.0,-1.0,2.0,0.0,0.0,-3.0,-2.0,0.0,1651068571285424.0
-1.0,0.0,1.0,0.0,0.0,0.0,-2.0,0.0,1651068571307379.0
-2.0,-4.0,-2.0,-1.0,-1.0,1.0,0.0,-1.0,1651068571307379.0
0.0,-2.0,2.0,-1.0,-1.0,-2.0,-1.0,-2.0,1651068571307379.0
-1.0,1.0,-1.0,-1.0,-2.0,-1.0,-1.0,-1.0,1651068571307379.0
-1.0,0.0,0.0,0.0,0.0,-2.0,-1.0,-1.0,1651068571329531.0
1.0,-1.0,-2.0,-1.0,1.0,0.0,2.0,1.0,1651068571329531.0
0.0,-1.0,-2.0,-3.0,0.0,1.0,-3.0,0.0,1651068571330462.0
0.0,0.0,-2.0,-1.0,0.0,-1.0,1.0,1.0,1651068571330462.0
-1.0,1.0,-1.0,-2.0,-3.0,0.0,2.0,-1.0,1651068571344739.0
-1.0,-3.0,-4.0,-5.0,-4.0,-1.0,-3.0,0.0,1651068571344739.0
0.0,-1.0,-1.0,-1.0,0.0,-1.0,-2.0,1.0,1651068571345293.0
-2.0,-1.0,0.0,0.0,1.0,0.0,-1.0,-1.0,1651068571345293.0
0.0,-3.0,-1.0,0.0,-2.0,-1.0,-1.0,1.0,1651068571366639.0
1.0,0.0,1.0,-1.0,-2.0,-2.0,-1.0,0.0,1651068571366639.0
2.0,1.0,0.0,-3.0,-1.0,0.0,1.0,-1.0,1651068571367637.0
-1.0,0.0,1.0,-1.0,-2.0,0.0,0.0,1.0,1651068571367637.0
-1.0,-1.0,-1.0,0.0,2.0,-1.0,0.0,-1.0,1651068571389561.0
-1.0,0.0,0.0,0.0,0.0,0.0,1.0,-1.0,1651068571389561.0
0.0,-1.0,-3.0,1.0,3.0,1.0,2.0,1.0,1651068571390505.0
0.0,-1.0,0.0,1.0,1.0,-1.0,1.0,1.0,1651068571390505.0
0.0,-1.0,-2.0,0.0,-3.0,-1.0,1.0,-1.0,1651068571405441.0
0.0,1.0,1.0,0.0,-1.0,1.0,-2.0,-2.0,1651068571405441.0
0.0,-1.0,-1.0,2.0,1.0,-3.0,-1.0,0.0,1651068571406422.0
-1.0,-2.0,-1.0,-1.0,1.0,2.0,3.0,0.0,1651068571406422.0
1.0,0.0,-2.0,-1.0,1.0,1.0,-1.0,-1.0,1651068571426468.0
-1.0,-1.0,1.0,0.0,1.0,-1.0,1.0,-1.0,1651068571426468.0
-1.0,0.0,0.0,1.0,-1.0,0.0,-2.0,-1.0,1651068571427465.0
1.0,2.0,0.0,0.0,-3.0,0.0,-2.0,0.0,1651068571427465.0
0.0,1.0,2.0,1.0,1.0,2.0,1.0,0.0,1651068571449685.0
1.0,1.0,0.0,1.0,0.0,0.0,2.0,-1.0,1651068571449685.0
-1.0,0.0,0.0,0.0,2.0,-1.0,2.0,-1.0,1651068571449685.0
-2.0,-1.0,-5.0,-1.0,-3.0,-3.0,-4.0,-3.0,1651068571449685.0
-1.0,0.0,-1.0,-2.0,-1.0,0.0,-1.0,0.0,1651068571464761.0
1.0,1.0,-1.0,0.0,-2.0,2.0,0.0,0.0,1651068571464761.0
-3.0,-2.0,-3.0,-1.0,-3.0,-1.0,-1.0,-1.0,1651068571465293.0
0.0,-2.0,-1.0,-2.0,0.0,0.0,0.0,-2.0,1651068571465293.0
-1.0,0.0,0.0,1.0,3.0,1.0,-1.0,0.0,1651068571487247.0
-1.0,1.0,1.0,1.0,0.0,0.0,-1.0,-1.0,1651068571487247.0
1.0,2.0,1.0,-1.0,0.0,0.0,-1.0,0.0,1651068571487247.0
-1.0,0.0,-2.0,-1.0,-1.0,1.0,1.0,0.0,1651068571487247.0
0.0,2.0,5.0,1.0,-1.0,-2.0,-2.0,0.0,1651068571509337.0
0.0,-4.0,-4.0,-3.0,1.0,-1.0,-1.0,0.0,1651068571509337.0
0.0,0.0,3.0,0.0,-1.0,1.0,-3.0,-1.0,1651068571510269.0
-1.0,0.0,2.0,-2.0,-1.0,-2.0,0.0,0.0,1651068571510269.0
0.0,-1.0,-1.0,-1.0,0.0,-1.0,-1.0,-1.0,1651068571524499.0
-1.0,0.0,0.0,-1.0,-2.0,-1.0,1.0,-1.0,1651068571524499.0
0.0,-2.0,0.0,-2.0,-3.0,-3.0,1.0,-1.0,1651068571525429.0
-1.0,-1.0,0.0,1.0,2.0,0.0,0.0,0.0,1651068571525429.0
-2.0,0.0,1.0,1.0,-1.0,0.0,-2.0,0.0,1651068571546562.0
-1.0,0.0,0.0,0.0,-1.0,-1.0,0.0,-1.0,1651068571546562.0
-2.0,-3.0,-4.0,-3.0,-1.0,-2.0,-1.0,-1.0,1651068571547492.0
0.0,-1.0,2.0,1.0,-1.0,0.0,0.0,0.0,1651068571547492.0
-2.0,-1.0,-2.0,-3.0,0.0,-2.0,0.0,-2.0,1651068571568920.0
0.0,0.0,1.0,0.0,-1.0,1.0,-2.0,-1.0,1651068571568920.0
0.0,-1.0,-3.0,-1.0,-2.0,1.0,1.0,0.0,1651068571569896.0
0.0,0.0,0.0,-2.0,1.0,1.0,-1.0,-2.0,1651068571569896.0
2.0,-1.0,-2.0,-1.0,-2.0,0.0,0.0,-1.0,1651068571584144.0
-1.0,-1.0,1.0,0.0,1.0,-3.0,0.0,-2.0,1651068571584144.0
0.0,-1.0,0.0,2.0,2.0,2.0,-1.0,-2.0,1651068571599346.0
0.0,1.0,0.0,-1.0,-1.0,-1.0,0.0,0.0,1651068571599346.0
-1.0,0.0,-1.0,-2.0,-3.0,-1.0,0.0,1.0,1651068571607360.0
0.0,-2.0,0.0,-1.0,-1.0,1.0,0.0,1.0,1651068571607360.0
0.0,-1.0,1.0,0.0,0.0,0.0,-1.0,0.0,1651068571608290.0
1.0,0.0,-1.0,-1.0,1.0,-1.0,-1.0,0.0,1651068571608290.0
-2.0,-2.0,-1.0,1.0,0.0,1.0,0.0,1.0,1651068571629358.0
-1.0,0.0,-2.0,-1.0,0.0,-1.0,-1.0,-2.0,1651068571629358.0
-1.0,-1.0,1.0,-1.0,-1.0,-2.0,-1.0,-2.0,1651068571630345.0
-1.0,0.0,-4.0,-2.0,-1.0,-4.0,-2.0,-1.0,1651068571630345.0
2.0,0.0,-1.0,-1.0,-2.0,-2.0,0.0,-3.0,1651068571643468.0
0.0,-3.0,-2.0,-2.0,-1.0,-1.0,-1.0,0.0,1651068571643468.0
-1.0,0.0,-2.0,-2.0,-1.0,3.0,2.0,-1.0,1651068571651568.0
-1.0,-3.0,-3.0,1.0,-3.0,-1.0,-3.0,-1.0,1651068571651568.0
-1.0,-1.0,0.0,0.0,0.0,0.0,-1.0,-2.0,1651068571666573.0
-1.0,-1.0,-1.0,1.0,3.0,1.0,0.0,-1.0,1651068571666573.0
-1.0,2.0,4.0,1.0,-1.0,-1.0,0.0,-1.0,1651068571667570.0
0.0,-1.0,-2.0,-1.0,-1.0,0.0,-1.0,-2.0,1651068571667570.0
-1.0,0.0,-1.0,-2.0,-2.0,1.0,1.0,-1.0,1651068571689355.0
-1.0,-1.0,0.0,-1.0,0.0,1.0,0.0,1.0,1651068571689355.0
-2.0,-2.0,-4.0,-1.0,0.0,-2.0,-1.0,0.0,1651068571690283.0
-1.0,1.0,1.0,1.0,-1.0,0.0,-1.0,1.0,1651068571690283.0
0.0,-2.0,-2.0,-1.0,2.0,-1.0,-1.0,-2.0,1651068571703402.0
-2.0,0.0,-2.0,-1.0,0.0,-1.0,-2.0,-1.0,1651068571703402.0
-1.0,0.0,-1.0,-3.0,-2.0,-2.0,-1.0,-1.0,1651068571711419.0
-1.0,0.0,0.0,-1.0,0.0,2.0,0.0,0.0,1651068571711419.0
-2.0,-2.0,-1.0,1.0,-1.0,0.0,0.0,-1.0,1651068571726438.0
0.0,-1.0,1.0,-1.0,-1.0,-2.0,1.0,3.0,1651068571726438.0
-2.0,-1.0,-4.0,1.0,-2.0,-2.0,-2.0,1.0,1651068571727363.0
-1.0,1.0,1.0,-2.0,-2.0,-1.0,-3.0,-1.0,1651068571727363.0
-1.0,0.0,-1.0,-2.0,-1.0,-1.0,-2.0,-3.0,1651068571749823.0
1.0,2.0,1.0,-3.0,-1.0,-1.0,0.0,-1.0,1651068571749823.0
0.0,1.0,1.0,1.0,-1.0,0.0,-1.0,-2.0,1651068571749823.0
0.0,1.0,2.0,-1.0,-1.0,0.0,0.0,0.0,1651068571749823.0
-2.0,-2.0,-2.0,-1.0,-1.0,-2.0,-1.0,1.0,1651068571764123.0
0.0,-2.0,1.0,0.0,-2.0,-1.0,-1.0,-2.0,1651068571764123.0
0.0,0.0,-4.0,-1.0,2.0,1.0,1.0,-2.0,1651068571771127.0
0.0,-1.0,0.0,-2.0,0.0,0.0,1.0,-2.0,1651068571771127.0
0.0,2.0,0.0,-1.0,0.0,0.0,-2.0,-1.0,1651068571787131.0
-2.0,0.0,1.0,1.0,2.0,2.0,3.0,2.0,1651068571787131.0
-3.0,0.0,2.0,0.0,-1.0,-2.0,-1.0,1.0,1651068571788065.0
0.0,-2.0,-3.0,1.0,-1.0,0.0,3.0,1.0,1651068571788065.0
0.0,-2.0,-4.0,0.0,-1.0,-1.0,-1.0,1.0,1651068571809313.0
-1.0,0.0,0.0,-1.0,1.0,-1.0,-2.0,-1.0,1651068571809313.0
0.0,-2.0,-2.0,0.0,-1.0,0.0,0.0,0.0,1651068571810295.0
0.0,1.0,0.0,-2.0,-2.0,-2.0,-2.0,-2.0,1651068571810295.0
0.0,-1.0,-1.0,-1.0,-1.0,-1.0,2.0,-2.0,1651068571824060.0
0.0,0.0,0.0,2.0,0.0,2.0,0.0,0.0,1651068571824060.0
-1.0,0.0,0.0,0.0,-1.0,0.0,-1.0,2.0,1651068571831420.0
-1.0,-3.0,-2.0,-1.0,0.0,-3.0,-2.0,-2.0,1651068571831420.0
-2.0,-2.0,-1.0,-1.0,1.0,-1.0,-1.0,-1.0,1651068571846495.0
0.0,0.0,-3.0,-2.0,-2.0,-2.0,-3.0,-2.0,1651068571846495.0
-1.0,-1.0,-4.0,-1.0,1.0,1.0,-1.0,-2.0,1651068571847425.0
-1.0,1.0,1.0,0.0,0.0,-1.0,0.0,0.0,1651068571847425.0
-1.0,1.0,1.0,-1.0,-1.0,1.0,2.0,2.0,1651068571877736.0
0.0,-1.0,-3.0,0.0,0.0,-1.0,0.0,0.0,1651068571877736.0
2.0,0.0,0.0,-3.0,-2.0,-2.0,-1.0,1.0,1651068571878667.0
-1.0,-1.0,-3.0,-2.0,-1.0,1.0,-2.0,-1.0,1651068571878667.0
1.0,0.0,-1.0,1.0,0.0,1.0,2.0,0.0,1651068571883653.0
-1.0,-2.0,1.0,0.0,-2.0,-1.0,-1.0,-3.0,1651068571883653.0
0.0,1.0,2.0,1.0,1.0,0.0,3.0,1.0,1651068571891659.0
0.0,-2.0,-2.0,0.0,1.0,0.0,-2.0,1.0,1651068571891659.0
-1.0,-1.0,-2.0,-1.0,-1.0,2.0,-1.0,2.0,1651068571906676.0
-2.0,2.0,-1.0,-1.0,-2.0,-2.0,-1.0,-2.0,1651068571906676.0
-1.0,-1.0,-1.0,0.0,0.0,0.0,-1.0,0.0,1651068571907605.0
-1.0,-2.0,-1.0,2.0,-1.0,1.0,2.0,-1.0,1651068571907605.0
2.0,-1.0,1.0,-1.0,0.0,0.0,-1.0,0.0,1651068571929774.0
1.0,2.0,1.0,-2.0,0.0,-1.0,1.0,1.0,1651068571929774.0
-1.0,-3.0,-4.0,-1.0,-2.0,-2.0,-3.0,-2.0,1651068571929774.0
-1.0,0.0,1.0,-2.0,0.0,-1.0,0.0,2.0,1651068571929774.0
-2.0,-3.0,-4.0,-2.0,-1.0,-1.0,-3.0,-3.0,1651068571943742.0
1.0,-2.0,0.0,-2.0,-1.0,-1.0,-1.0,2.0,1651068571943742.0
0.0,-1.0,3.0,-1.0,0.0,1.0,-1.0,-1.0,1651068571950744.0
-1.0,0.0,1.0,0.0,0.0,0.0,-1.0,-1.0,1651068571950744.0
1.0,0.0,2.0,1.0,0.0,-1.0,1.0,0.0,1651068571966705.0
-2.0,-3.0,-5.0,-1.0,0.0,-1.0,1.0,1.0,1651068571966705.0
-1.0,0.0,-1.0,-2.0,-1.0,-1.0,-1.0,-3.0,1651068571967708.0
0.0,-1.0,-1.0,0.0,-1.0,0.0,0.0,-3.0,1651068571967708.0
-3.0,-1.0,1.0,-1.0,-1.0,-4.0,-2.0,-1.0,1651068571989746.0
-1.0,0.0,-3.0,-2.0,-2.0,0.0,-3.0,1.0,1651068571989746.0
0.0,-2.0,1.0,-2.0,0.0,0.0,2.0,3.0,1651068571989746.0
-1.0,-1.0,1.0,1.0,-2.0,0.0,1.0,1.0,1651068571989746.0
0.0,0.0,2.0,2.0,-1.0,-1.0,-3.0,-1.0,1651068572011791.0
-1.0,-2.0,1.0,-1.0,-2.0,0.0,-2.0,-3.0,1651068572011791.0
0.0,0.0,0.0,1.0,-1.0,-2.0,1.0,0.0,1651068572012730.0
0.0,0.0,-2.0,-2.0,0.0,-2.0,-2.0,-1.0,1651068572012730.0
1.0,-1.0,0.0,-1.0,0.0,1.0,2.0,1.0,1651068572026751.0
0.0,-2.0,-1.0,-1.0,-1.0,-1.0,-1.0,-2.0,1651068572026751.0
-1.0,1.0,0.0,-1.0,-1.0,-2.0,-1.0,-1.0,1651068572027682.0
0.0,-1.0,1.0,0.0,1.0,0.0,1.0,0.0,1651068572027682.0
1.0,2.0,3.0,1.0,-2.0,-1.0,0.0,1.0,1651068572049550.0
-1.0,-1.0,-1.0,-1.0,2.0,-1.0,-1.0,-2.0,1651068572049550.0
-1.0,1.0,0.0,0.0,-2.0,0.0,0.0,-1.0,1651068572050495.0
0.0,-1.0,0.0,-1.0,-1.0,-2.0,-1.0,-2.0,1651068572050495.0
-3.0,-2.0,-2.0,-2.0,0.0,-1.0,-1.0,1.0,1651068572071572.0
1.0,0.0,3.0,-1.0,-1.0,-1.0,2.0,1.0,1651068572071572.0
1.0,1.0,0.0,0.0,1.0,1.0,0.0,0.0,1651068572072569.0
-1.0,0.0,-1.0,-1.0,1.0,0.0,-2.0,1.0,1651068572072569.0
-1.0,0.0,1.0,-1.0,1.0,0.0,0.0,-1.0,1651068572086596.0
-1.0,0.0,0.0,0.0,-1.0,1.0,-1.0,-1.0,1651068572086596.0
0.0,-2.0,-1.0,0.0,-1.0,-1.0,-2.0,-1.0,1651068572087529.0
1.0,1.0,-1.0,2.0,0.0,2.0,2.0,1.0,1651068572087529.0
-1.0,-2.0,-4.0,-2.0,-3.0,-2.0,-1.0,0.0,1651068572109378.0
0.0,1.0,1.0,-1.0,0.0,2.0,-1.0,1.0,1651068572109378.0
-2.0,-3.0,-4.0,-3.0,-1.0,-1.0,-3.0,-1.0,1651068572110336.0
0.0,-1.0,-2.0,-2.0,-2.0,-2.0,1.0,-1.0,1651068572110336.0
-2.0,-2.0,0.0,0.0,0.0,-1.0,0.0,-4.0,1651068572131526.0
-1.0,0.0,0.0,-1.0,-1.0,-3.0,-1.0,1.0,1651068572131526.0
0.0,0.0,1.0,0.0,2.0,-1.0,-1.0,0.0,1651068572132468.0
0.0,-1.0,-1.0,-1.0,0.0,-2.0,0.0,0.0,1651068572132468.0
1.0,-1.0,0.0,-1.0,0.0,1.0,1.0,1.0,1651068572146419.0
-1.0,-3.0,-3.0,-1.0,0.0,-1.0,1.0,0.0,1651068572146419.0
-1.0,-2.0,0.0,1.0,-1.0,-2.0,0.0,0.0,1651068572147436.0
1.0,1.0,-1.0,-1.0,0.0,-1.0,-3.0,0.0,1651068572147436.0
-2.0,-2.0,-2.0,-1.0,-2.0,-2.0,-1.0,-1.0,1651068572168447.0
-1.0,1.0,0.0,-1.0,-2.0,0.0,0.0,0.0,1651068572168447.0
-1.0,-2.0,-3.0,1.0,0.0,-2.0,0.0,-2.0,1651068572177357.0
-2.0,-1.0,1.0,1.0,0.0,2.0,0.0,1.0,1651068572177357.0
0.0,1.0,2.0,-1.0,-1.0,1.0,-1.0,0.0,1651068572192262.0
-1.0,-2.0,-3.0,0.0,0.0,-1.0,-1.0,-1.0,1651068572192262.0
0.0,2.0,2.0,-2.0,-4.0,1.0,1.0,0.0,1651068572192262.0
-2.0,-2.0,-2.0,-1.0,0.0,-1.0,-1.0,-2.0,1651068572192262.0
1.0,0.0,-2.0,-2.0,0.0,-2.0,0.0,0.0,1651068572215470.0
0.0,-2.0,-2.0,0.0,0.0,0.0,-2.0,-1.0,1651068572215470.0
0.0,0.0,0.0,-2.0,-1.0,-1.0,-1.0,-2.0,1651068572215470.0
-1.0,-1.0,-2.0,0.0,-2.0,-2.0,0.0,1.0,1651068572215470.0
0.0,1.0,-2.0,0.0,-3.0,0.0,-1.0,1.0,1651068572228281.0
-1.0,1.0,0.0,0.0,-1.0,-1.0,1.0,0.0,1651068572228281.0
-1.0,-1.0,0.0,1.0,2.0,0.0,-1.0,0.0,1651068572236669.0
0.0,-2.0,-1.0,-1.0,-1.0,-1.0,-2.0,-2.0,1651068572236669.0
0.0,0.0,-1.0,1.0,0.0,-2.0,-1.0,-1.0,1651068572251584.0
-2.0,2.0,0.0,0.0,0.0,0.0,0.0,-1.0,1651068572251584.0
-2.0,-2.0,-2.0,1.0,0.0,0.0,-3.0,-1.0,1651068572252515.0
0.0,-1.0,-3.0,-3.0,-1.0,-1.0,0.0,1.0,1651068572252515.0
-1.0,-1.0,-1.0,-1.0,0.0,0.0,1.0,-1.0,1651068572275481.0
1.0,-2.0,0.0,1.0,0.0,-2.0,0.0,-1.0,1651068572275481.0
-1.0,0.0,1.0,-2.0,-2.0,-1.0,2.0,0.0,1651068572275623.0
-1.0,1.0,1.0,0.0,-1.0,1.0,-1.0,1.0,1651068572275623.0
-1.0,-2.0,-2.0,0.0,-1.0,-2.0,-3.0,-2.0,1651068572288464.0
-1.0,-2.0,-2.0,-1.0,0.0,-1.0,-2.0,-1.0,1651068572288464.0
-1.0,-1.0,0.0,0.0,1.0,1.0,-1.0,-1.0,1651068572296425.0
0.0,-1.0,1.0,0.0,-1.0,1.0,2.0,0.0,1651068572296425.0
-1.0,-1.0,1.0,0.0,-1.0,2.0,0.0,-2.0,1651068572312311.0
0.0,-1.0,1.0,0.0,1.0,-1.0,-1.0,-1.0,1651068572312311.0
0.0,-1.0,-2.0,0.0,-2.0,-2.0,0.0,2.0,1651068572312311.0
-1.0,0.0,-1.0,-1.0,-1.0,1.0,0.0,-1.0,1651068572312311.0
-1.0,0.0,-2.0,-1.0,0.0,1.0,-2.0,-1.0,1651068572335289.0
0.0,-2.0,-1.0,-2.0,-1.0,-1.0,-1.0,-2.0,1651068572335289.0
-1.0,0.0,0.0,0.0,1.0,5.0,2.0,0.0,1651068572336246.0
-1.0,-1.0,-2.0,1.0,-2.0,-3.0,-1.0,-2.0,1651068572336246.0
0.0,-1.0,-2.0,-2.0,-3.0,-4.0,0.0,2.0,1651068572349191.0
0.0,1.0,2.0,1.0,-3.0,-1.0,0.0,1.0,1651068572349191.0
0.0,-1.0,-1.0,-2.0,-1.0,-2.0,-1.0,1.0,1651068572357160.0
-1.0,-3.0,-5.0,-2.0,1.0,1.0,1.0,-2.0,1651068572357160.0
0.0,1.0,2.0,-1.0,0.0,0.0,0.0,0.0,1651068572372119.0
0.0,-2.0,1.0,-1.0,1.0,0.0,1.0,-2.0,1651068572372119.0
-1.0,-1.0,-2.0,0.0,2.0,-1.0,0.0,0.0,1651068572372119.0
0.0,1.0,2.0,-1.0,0.0,0.0,-2.0,0.0,1651068572372119.0
-2.0,-1.0,-3.0,-2.0,0.0,-1.0,-2.0,-3.0,1651068572395281.0
-2.0,-2.0,-3.0,0.0,-1.0,-1.0,-2.0,0.0,1651068572395281.0
-1.0,2.0,-1.0,-1.0,-2.0,-3.0,0.0,-2.0,1651068572396216.0
-2.0,1.0,2.0,1.0,-1.0,0.0,-1.0,0.0,1651068572396216.0
0.0,-1.0,1.0,0.0,0.0,1.0,-1.0,-1.0,1651068572409175.0
-2.0,0.0,0.0,0.0,-2.0,-2.0,-2.0,1.0,1651068572409175.0
0.0,-1.0,-1.0,-1.0,0.0,-1.0,-1.0,0.0,1651068572417222.0
0.0,1.0,2.0,-1.0,-1.0,0.0,0.0,0.0,1651068572417222.0
0.0,-2.0,-5.0,-1.0,2.0,2.0,0.0,0.0,1651068572432181.0
1.0,0.0,0.0,-1.0,0.0,1.0,1.0,-1.0,1651068572432181.0
1.0,1.0,-1.0,0.0,-3.0,0.0,-2.0,0.0,1651068572432181.0
0.0,-2.0,-1.0,0.0,-2.0,-3.0,-3.0,-2.0,1651068572432181.0
-2.0,-3.0,-4.0,0.0,-1.0,-2.0,-2.0,-2.0,1651068572455358.0
1.0,1.0,1.0,0.0,-1.0,0.0,3.0,1.0,1651068572455358.0
-1.0,-4.0,-1.0,-1.0,-2.0,-1.0,-2.0,-1.0,1651068572455358.0
1.0,0.0,2.0,0.0,1.0,2.0,0.0,1.0,1651068572455358.0
1.0,1.0,-3.0,-1.0,-2.0,-4.0,-2.0,1.0,1651068572477424.0
-2.0,-2.0,-2.0,0.0,1.0,0.0,-2.0,-1.0,1651068572477424.0
-2.0,0.0,1.0,-2.0,0.0,0.0,-1.0,-1.0,1651068572478362.0
0.0,2.0,0.0,0.0,-1.0,-1.0,-1.0,-2.0,1651068572478362.0
-2.0,0.0,3.0,1.0,0.0,-2.0,0.0,-1.0,1651068572491487.0
-1.0,-2.0,-4.0,-2.0,-2.0,-1.0,-2.0,0.0,1651068572491487.0
1.0,0.0,2.0,0.0,0.0,2.0,1.0,0.0,1651068572492417.0
0.0,1.0,2.0,-2.0,0.0,0.0,-1.0,0.0,1651068572492417.0
1.0,2.0,-1.0,-3.0,0.0,-1.0,-2.0,0.0,1651068572515457.0
-1.0,1.0,2.0,0.0,0.0,-2.0,-1.0,-1.0,1651068572515457.0
0.0,1.0,0.0,0.0,-1.0,-3.0,-1.0,1.0,1651068572516458.0
-2.0,-2.0,-2.0,-2.0,-2.0,-2.0,1.0,0.0,1651068572516458.0
-1.0,0.0,2.0,-1.0,-2.0,1.0,0.0,-2.0,1651068572537599.0
-3.0,1.0,1.0,-1.0,1.0,0.0,0.0,0.0,1651068572537599.0
-2.0,-1.0,-1.0,0.0,0.0,0.0,-2.0,0.0,1651068572538538.0
2.0,1.0,-2.0,-1.0,0.0,-1.0,0.0,1.0,1651068572538538.0
0.0,-1.0,1.0,0.0,-1.0,0.0,1.0,1.0,1651068572551565.0
0.0,1.0,-1.0,-1.0,-1.0,0.0,0.0,-1.0,1651068572551565.0
0.0,-1.0,-2.0,-3.0,-3.0,-2.0,0.0,-1.0,1651068572552500.0
-2.0,-2.0,-2.0,1.0,0.0,-3.0,-2.0,-1.0,1651068572552500.0
1.0,0.0,3.0,1.0,1.0,0.0,-2.0,0.0,1651068572575540.0
0.0,1.0,-1.0,1.0,1.0,2.0,3.0,1.0,1651068572575540.0
1.0,-1.0,-1.0,-1.0,-2.0,-3.0,0.0,-1.0,1651068572575540.0
0.0,-4.0,-6.0,-2.0,-1.0,-2.0,-1.0,-1.0,1651068572575540.0
-1.0,-4.0,-4.0,-3.0,-2.0,-1.0,2.0,0.0,1651068572597524.0
1.0,-2.0,-1.0,-1.0,0.0,-2.0,1.0,0.0,1651068572597524.0
0.0,0.0,3.0,0.0,4.0,2.0,2.0,1.0,1651068572598486.0
-1.0,-2.0,0.0,0.0,0.0,0.0,-1.0,-1.0,1651068572598486.0
-3.0,1.0,-1.0,-2.0,-1.0,-1.0,-1.0,0.0,1651068572611484.0
-1.0,-2.0,-4.0,-2.0,0.0,-1.0,-3.0,-1.0,1651068572611484.0
-1.0,-1.0,-1.0,1.0,1.0,0.0,0.0,-2.0,1651068572612447.0
-1.0,2.0,3.0,1.0,-2.0,-1.0,-1.0,2.0,1651068572612447.0
0.0,-1.0,1.0,2.0,1.0,0.0,3.0,0.0,1651068572635559.0
0.0,0.0,2.0,-1.0,0.0,0.0,-1.0,0.0,1651068572635559.0
-1.0,-3.0,-2.0,-1.0,-2.0,-1.0,-1.0,0.0,1651068572635559.0
0.0,0.0,0.0,-1.0,-1.0,0.0,0.0,-1.0,1651068572635559.0
0.0,0.0,-1.0,0.0,-2.0,-1.0,2.0,-1.0,1651068572657567.0
-1.0,-2.0,-3.0,0.0,-2.0,-2.0,-3.0,-1.0,1651068572657567.0
0.0,-2.0,-1.0,0.0,0.0,0.0,-2.0,-1.0,1651068572658497.0
0.0,-1.0,-2.0,-1.0,0.0,0.0,0.0,0.0,1651068572658497.0
0.0,-3.0,-1.0,2.0,-1.0,1.0,-1.0,0.0,1651068572671580.0
-1.0,-2.0,1.0,0.0,0.0,1.0,-1.0,-1.0,1651068572671580.0
-2.0,-1.0,-1.0,0.0,-1.0,0.0,0.0,-1.0,1651068572672510.0
-2.0,0.0,-2.0,0.0,0.0,-1.0,-2.0,0.0,1651068572672510.0
1.0,1.0,1.0,-2.0,0.0,-1.0,-5.0,-1.0,1651068572695453.0
-1.0,1.0,-2.0,-1.0,0.0,-2.0,-1.0,-1.0,1651068572695453.0
0.0,-1.0,-1.0,-2.0,-1.0,0.0,0.0,-1.0,1651068572695453.0
-1.0,-2.0,-2.0,-2.0,-2.0,-1.0,0.0,-1.0,1651068572695453.0
-1.0,0.0,1.0,-1.0,-1.0,-1.0,0.0,1.0,1651068572717458.0
-2.0,0.0,0.0,-1.0,-3.0,-2.0,0.0,-4.0,1651068572717458.0
-1.0,-1.0,-1.0,-1.0,0.0,0.0,0.0,-2.0,1651068572718396.0
1.0,3.0,2.0,-2.0,0.0,0.0,0.0,0.0,1651068572718396.0
-1.0,-1.0,1.0,0.0,-1.0,0.0,0.0,0.0,1651068572731420.0
-1.0,-1.0,-3.0,-1.0,-2.0,0.0,0.0,0.0,1651068572731420.0
-1.0,-2.0,-4.0,0.0,-1.0,-2.0,1.0,-1.0,1651068572732350.0
1.0,-1.0,0.0,0.0,-1.0,-1.0,0.0,0.0,1651068572732350.0
0.0,-1.0,1.0,0.0,1.0,0.0,0.0,-2.0,1651068572755364.0
-1.0,0.0,1.0,0.0,0.0,-1.0,-1.0,1.0,1651068572755364.0
0.0,0.0,0.0,-3.0,-1.0,1.0,-2.0,-1.0,1651068572755364.0
-1.0,-1.0,-3.0,0.0,-1.0,-2.0,-1.0,-1.0,1651068572755364.0
-1.0,-2.0,-3.0,-1.0,0.0,2.0,1.0,0.0,1651068572777528.0
1.0,0.0,-2.0,-1.0,2.0,0.0,-3.0,0.0,1651068572777528.0
-1.0,-2.0,-1.0,1.0,1.0,0.0,-4.0,-1.0,1651068572778452.0
-3.0,-4.0,-4.0,1.0,1.0,0.0,-1.0,-2.0,1651068572778452.0
-2.0,2.0,4.0,-1.0,-1.0,0.0,1.0,2.0,1651068572791487.0
0.0,-1.0,0.0,1.0,-1.0,0.0,1.0,-1.0,1651068572791487.0
-1.0,1.0,1.0,2.0,1.0,0.0,0.0,0.0,1651068572792415.0
0.0,1.0,4.0,1.0,0.0,0.0,-2.0,0.0,1651068572792415.0
0.0,0.0,0.0,0.0,-2.0,-2.0,-2.0,-1.0,1651068572815535.0
-1.0,0.0,0.0,0.0,-2.0,-3.0,-1.0,-2.0,1651068572815535.0
0.0,0.0,2.0,-1.0,-1.0,2.0,3.0,1.0,1651068572815535.0
-2.0,-5.0,-6.0,-3.0,-12.0,-11.0,-4.0,-2.0,1651068572815535.0
1.0,1.0,1.0,1.0,17.0,15.0,4.0,2.0,1651068572837513.0
0.0,-1.0,0.0,3.0,-1.0,2.0,1.0,2.0,1651068572837513.0
1.0,2.0,2.0,3.0,5.0,4.0,2.0,0.0,1651068572838442.0
0.0,0.0,1.0,-2.0,-1.0,1.0,3.0,1.0,1651068572838442.0
1.0,-1.0,-1.0,-3.0,-6.0,-7.0,-1.0,-1.0,1651068572851474.0
-3.0,-3.0,-3.0,-3.0,-7.0,-2.0,-2.0,-6.0,1651068572851474.0
-1.0,-1.0,-2.0,-1.0,-5.0,-4.0,-3.0,0.0,1651068572852413.0
1.0,1.0,0.0,0.0,4.0,2.0,3.0,-1.0,1651068572852413.0
-2.0,-2.0,-3.0,-2.0,-8.0,-5.0,-2.0,-2.0,1651068572875440.0
4.0,3.0,4.0,1.0,5.0,0.0,2.0,5.0,1651068572875440.0
-5.0,-4.0,-4.0,-1.0,-6.0,-7.0,-5.0,-8.0,1651068572875440.0
1.0,2.0,0.0,-1.0,3.0,4.0,3.0,2.0,1651068572875440.0
-1.0,-1.0,-3.0,0.0,-2.0,-1.0,1.0,0.0,1651068572897498.0
0.0,0.0,1.0,1.0,2.0,1.0,0.0,-1.0,1651068572897498.0
1.0,0.0,1.0,-2.0,-3.0,-1.0,-1.0,1.0,1651068572898429.0
-1.0,-1.0,0.0,-1.0,0.0,-1.0,-1.0,1.0,1651068572898429.0
-3.0,-2.0,-1.0,-2.0,-6.0,-5.0,-2.0,-5.0,1651068572911475.0
-3.0,-4.0,-6.0,-5.0,-3.0,-8.0,-5.0,-4.0,1651068572911475.0
4.0,7.0,13.0,2.0,0.0,8.0,6.0,3.0,1651068572912480.0
-1.0,-5.0,-7.0,6.0,25.0,14.0,7.0,0.0,1651068572912480.0
-3.0,0.0,3.0,4.0,2.0,3.0,2.0,-2.0,1651068572935111.0
1.0,1.0,3.0,-6.0,-8.0,-4.0,-2.0,4.0,1651068572935111.0
-2.0,-1.0,-5.0,-4.0,-4.0,-5.0,-5.0,-8.0,1651068572936138.0
-1.0,3.0,6.0,-1.0,-8.0,-4.0,-4.0,-3.0,1651068572936138.0
3.0,0.0,-3.0,-4.0,-7.0,-4.0,-5.0,6.0,1651068572957182.0
0.0,0.0,1.0,2.0,8.0,5.0,3.0,-5.0,1651068572957182.0
1.0,-2.0,-6.0,-5.0,-8.0,-3.0,5.0,8.0,1651068572958179.0
-2.0,1.0,5.0,5.0,5.0,4.0,0.0,-2.0,1651068572958179.0
-2.0,-2.0,-2.0,-2.0,-3.0,-2.0,-4.0,-4.0,1651068572972210.0
1.0,1.0,2.0,0.0,-2.0,0.0,-1.0,-1.0,1651068572972210.0
3.0,-1.0,-3.0,5.0,12.0,6.0,4.0,7.0,1651068572973148.0
-3.0,-3.0,-6.0,-10.0,-16.0,-10.0,-6.0,-5.0,1651068572973148.0
2.0,-4.0,-10.0,0.0,6.0,3.0,2.0,1.0,1651068572994577.0
3.0,0.0,-2.0,-5.0,-9.0,0.0,4.0,7.0,1651068572994577.0
1.0,4.0,4.0,4.0,4.0,1.0,-2.0,-1.0,1651068572995580.0
-2.0,0.0,2.0,-2.0,-8.0,-5.0,-3.0,-3.0,1651068572995580.0
2.0,1.0,2.0,4.0,0.0,-2.0,1.0,2.0,1651068573017410.0
-6.0,0.0,5.0,3.0,-5.0,-6.0,-16.0,-13.0,1651068573017410.0
1.0,-7.0,-11.0,-5.0,5.0,8.0,22.0,8.0,1651068573018361.0
-6.0,-3.0,-1.0,0.0,-1.0,-4.0,-14.0,-10.0,1651068573018361.0
11.0,12.0,14.0,10.0,12.0,6.0,17.0,19.0,1651068573032311.0
-9.0,-5.0,-6.0,-5.0,0.0,5.0,5.0,-4.0,1651068573032311.0
-7.0,1.0,3.0,3.0,2.0,-12.0,-26.0,-18.0,1651068573032311.0
-16.0,-4.0,-5.0,-3.0,-13.0,-5.0,25.0,18.0,1651068573032311.0
19.0,1.0,1.0,0.0,8.0,9.0,8.0,-2.0,1651068573054391.0
7.0,4.0,2.0,-4.0,-6.0,-3.0,-10.0,11.0,1651068573054391.0
2.0,1.0,4.0,0.0,-7.0,-5.0,9.0,-3.0,1651068573055329.0
-5.0,-10.0,-12.0,-7.0,-2.0,0.0,-2.0,11.0,1651068573055329.0
-19.0,-1.0,0.0,5.0,0.0,-6.0,-16.0,-25.0,1651068573077482.0
1.0,1.0,-4.0,4.0,4.0,2.0,-3.0,-8.0,1651068573077482.0
9.0,3.0,-3.0,-21.0,-10.0,9.0,17.0,29.0,1651068573078445.0
1.0,0.0,3.0,2.0,0.0,-4.0,-19.0,-11.0,1651068573078445.0
-5.0,-3.0,0.0,26.0,-3.0,-13.0,-20.0,2.0,1651068573091445.0
0.0,-10.0,-20.0,-31.0,-4.0,-2.0,8.0,-6.0,1651068573091445.0
-16.0,-4.0,0.0,-9.0,-6.0,-6.0,7.0,-5.0,1651068573099423.0
10.0,10.0,3.0,-16.0,-6.0,-1.0,13.0,7.0,1651068573099423.0
3.0,2.0,4.0,19.0,11.0,7.0,-5.0,3.0,1651068573113944.0
-3.0,3.0,9.0,22.0,20.0,9.0,-10.0,-1.0,1651068573113944.0
-11.0,-16.0,-12.0,0.0,-11.0,-11.0,-19.0,-17.0,1651068573114944.0
10.0,9.0,8.0,-2.0,-2.0,-7.0,1.0,8.0,1651068573114944.0
-12.0,-7.0,0.0,15.0,-1.0,-7.0,0.0,-13.0,1651068573137359.0
23.0,9.0,-5.0,3.0,26.0,29.0,19.0,35.0,1651068573137359.0
-6.0,-2.0,-2.0,5.0,3.0,3.0,6.0,-14.0,1651068573138302.0
2.0,3.0,6.0,11.0,0.0,0.0,-7.0,-10.0,1651068573138302.0
-6.0,-7.0,-7.0,-16.0,-25.0,-16.0,-12.0,-7.0,1651068573151321.0
1.0,3.0,1.0,-1.0,-6.0,-5.0,7.0,5.0,1651068573151321.0
-2.0,-1.0,-1.0,9.0,5.0,-1.0,-16.0,-11.0,1651068573159299.0
-9.0,-5.0,-2.0,-3.0,-5.0,0.0,-1.0,-4.0,1651068573159299.0
-7.0,-6.0,-7.0,0.0,-6.0,-3.0,0.0,-13.0,1651068573174298.0
-4.0,-4.0,1.0,-28.0,-9.0,-7.0,-2.0,8.0,1651068573174298.0
10.0,14.0,20.0,11.0,20.0,8.0,-10.0,-11.0,1651068573175295.0
4.0,1.0,-5.0,-3.0,-10.0,3.0,11.0,6.0,1651068573175295.0
22.0,15.0,12.0,-3.0,11.0,16.0,34.0,42.0,1651068573197381.0
-17.0,-3.0,-1.0,-14.0,-43.0,-33.0,-16.0,-26.0,1651068573197381.0
-16.0,-8.0,-3.0,19.0,11.0,-1.0,-10.0,2.0,1651068573198351.0
17.0,9.0,12.0,38.0,28.0,18.0,5.0,15.0,1651068573198351.0
-10.0,-7.0,-19.0,-55.0,-26.0,-7.0,1.0,1.0,1651068573211376.0
3.0,4.0,-1.0,-5.0,-17.0,-8.0,0.0,-1.0,1651068573211376.0
16.0,11.0,5.0,2.0,-1.0,11.0,6.0,10.0,1651068573219355.0
-9.0,-5.0,-7.0,-7.0,-10.0,-22.0,-9.0,-15.0,1651068573219355.0
-1.0,-4.0,-8.0,-14.0,-4.0,26.0,9.0,-2.0,1651068573234396.0
-3.0,-2.0,9.0,26.0,20.0,2.0,1.0,-6.0,1651068573234396.0
-4.0,-4.0,5.0,17.0,19.0,5.0,-8.0,-8.0,1651068573235331.0
-11.0,-1.0,-1.0,7.0,-9.0,2.0,1.0,5.0,1651068573235331.0
-8.0,-1.0,1.0,-18.0,-3.0,-7.0,-6.0,-2.0,1651068573264781.0
2.0,2.0,-3.0,4.0,0.0,9.0,0.0,-5.0,1651068573264781.0
0.0,-18.0,-41.0,-102.0,-29.0,-9.0,11.0,17.0,1651068573265894.0
-5.0,1.0,3.0,1.0,12.0,8.0,13.0,7.0,1651068573265894.0
-3.0,-2.0,2.0,-3.0,-11.0,-14.0,-14.0,-16.0,1651068573270763.0
-2.0,8.0,17.0,37.0,27.0,6.0,7.0,-12.0,1651068573270763.0
5.0,-2.0,-3.0,40.0,7.0,3.0,-4.0,0.0,1651068573279814.0
18.0,3.0,-13.0,-42.0,-18.0,-8.0,-9.0,8.0,1651068573279814.0
-31.0,-17.0,-9.0,1.0,-14.0,-12.0,-22.0,-52.0,1651068573294379.0
2.0,-2.0,8.0,6.0,22.0,5.0,-7.0,11.0,1651068573294379.0
3.0,8.0,9.0,2.0,-23.0,-8.0,15.0,3.0,1651068573302334.0
-15.0,-12.0,-9.0,-5.0,6.0,-14.0,-21.0,-36.0,1651068573302334.0
20.0,4.0,-5.0,26.0,36.0,13.0,5.0,14.0,1651068573317413.0
-15.0,-11.0,-12.0,-12.0,-21.0,6.0,-2.0,-4.0,1651068573317413.0
8.0,9.0,10.0,-3.0,9.0,15.0,2.0,14.0,1651068573318348.0
1.0,-3.0,-2.0,15.0,-8.0,-3.0,1.0,1.0,1651068573318348.0
0.0,3.0,-3.0,-10.0,-30.0,-24.0,-7.0,1.0,1651068573331375.0
-8.0,-7.0,-10.0,0.0,28.0,-4.0,0.0,-7.0,1651068573331375.0
9.0,9.0,13.0,22.0,26.0,16.0,4.0,3.0,1651068573339356.0
11.0,12.0,2.0,1.0,3.0,8.0,0.0,5.0,1651068573339356.0
10.0,3.0,2.0,-6.0,-17.0,-7.0,23.0,24.0,1651068573354758.0
5.0,3.0,-2.0,2.0,0.0,-3.0,0.0,6.0,1651068573354758.0
-2.0,0.0,3.0,28.0,-8.0,-9.0,-7.0,-13.0,1651068573355292.0
6.0,4.0,2.0,-29.0,8.0,9.0,5.0,12.0,1651068573355292.0
-1.0,5.0,6.0,4.0,15.0,6.0,-7.0,-28.0,1651068573377502.0
-11.0,-8.0,0.0,8.0,-19.0,0.0,-1.0,-11.0,1651068573377502.0
6.0,8.0,5.0,-3.0,8.0,-2.0,4.0,5.0,1651068573378438.0
-8.0,-12.0,-7.0,5.0,-23.0,-21.0,-10.0,-15.0,1651068573378438.0
0.0,-3.0,-12.0,-27.0,22.0,34.0,3.0,14.0,1651068573391396.0
46.0,12.0,8.0,7.0,0.0,5.0,18.0,20.0,1651068573391396.0
-11.0,-8.0,-7.0,-14.0,-8.0,-11.0,-17.0,-16.0,1651068573399441.0
-7.0,-7.0,-8.0,-26.0,-14.0,-12.0,-8.0,-13.0,1651068573399441.0
11.0,7.0,16.0,25.0,15.0,8.0,3.0,12.0,1651068573414118.0
-28.0,-10.0,-7.0,14.0,-25.0,-15.0,-12.0,-28.0,1651068573414118.0
4.0,-2.0,0.0,17.0,7.0,4.0,32.0,42.0,1651068573415118.0
1.0,0.0,0.0,-32.0,-43.0,-19.0,-6.0,-12.0,1651068573415118.0
-11.0,-10.0,-10.0,10.0,20.0,-19.0,-14.0,-10.0,1651068573437246.0
10.0,13.0,16.0,16.0,32.0,52.0,20.0,19.0,1651068573437246.0
0.0,-2.0,-3.0,-6.0,-21.0,-12.0,-10.0,-5.0,1651068573438185.0
-6.0,-1.0,-4.0,4.0,29.0,16.0,-1.0,-4.0,1651068573438185.0
-2.0,0.0,9.0,-8.0,-30.0,-8.0,27.0,19.0,1651068573460232.0
-18.0,-14.0,-9.0,-9.0,-11.0,-23.0,-22.0,-17.0,1651068573460232.0
-19.0,1.0,10.0,8.0,4.0,1.0,3.0,-6.0,1651068573461212.0
17.0,2.0,-14.0,1.0,8.0,15.0,-7.0,1.0,1651068573461212.0
3.0,1.0,-2.0,4.0,17.0,7.0,-6.0,-3.0,1651068573474180.0
-6.0,0.0,10.0,4.0,2.0,-5.0,-2.0,0.0,1651068573474180.0
7.0,-2.0,-11.0,-35.0,-16.0,-6.0,-9.0,-9.0,1651068573475191.0
-8.0,-5.0,8.0,29.0,6.0,-4.0,4.0,-1.0,1651068573475191.0
-1.0,-1.0,-4.0,-10.0,-6.0,1.0,3.0,0.0,1651068573497252.0
-1.0,2.0,7.0,5.0,3.0,0.0,11.0,7.0,1651068573497252.0
-6.0,-7.0,-15.0,-12.0,-24.0,-13.0,-24.0,-19.0,1651068573498191.0
-6.0,3.0,12.0,11.0,37.0,16.0,1.0,-2.0,1651068573498191.0
2.0,-4.0,-6.0,5.0,-12.0,-16.0,-10.0,-5.0,1651068573520389.0
-2.0,-2.0,-6.0,-9.0,-12.0,-17.0,-27.0,-16.0,1651068573520389.0
2.0,4.0,6.0,4.0,10.0,19.0,31.0,9.0,1651068573520389.0
4.0,2.0,-3.0,-12.0,3.0,5.0,7.0,13.0,1651068573520389.0
-11.0,-4.0,-4.0,5.0,-10.0,-3.0,7.0,0.0,1651068573534462.0
-7.0,-4.0,-6.0,-10.0,-8.0,-13.0,-19.0,-18.0,1651068573534462.0
6.0,-6.0,-17.0,-29.0,-10.0,-12.0,-10.0,7.0,1651068573541477.0
-6.0,-4.0,2.0,19.0,11.0,-3.0,-12.0,-11.0,1651068573541477.0
4.0,6.0,10.0,3.0,-15.0,-5.0,-6.0,7.0,1651068573557867.0
-15.0,-10.0,-17.0,-25.0,1.0,-10.0,-5.0,3.0,1651068573557867.0
29.0,4.0,-5.0,-6.0,5.0,12.0,4.0,-5.0,1651068573557867.0
0.0,0.0,3.0,0.0,-13.0,0.0,15.0,6.0,1651068573557867.0
0.0,-1.0,-2.0,3.0,2.0,1.0,-10.0,-7.0,1651068573580251.0
3.0,2.0,0.0,10.0,-10.0,-6.0,-2.0,8.0,1651068573580251.0
-13.0,-5.0,1.0,9.0,3.0,-13.0,-9.0,0.0,1651068573581349.0
-5.0,-5.0,-11.0,-25.0,-1.0,1.0,-14.0,-19.0,1651068573581349.0
5.0,2.0,7.0,3.0,-4.0,-2.0,1.0,1.0,1651068573594275.0
14.0,5.0,5.0,5.0,25.0,16.0,8.0,13.0,1651068573594275.0
-2.0,-4.0,-2.0,-13.0,-25.0,-12.0,-7.0,0.0,1651068573595213.0
0.0,2.0,9.0,20.0,27.0,23.0,5.0,1.0,1651068573595213.0
-2.0,-1.0,-1.0,8.0,17.0,-3.0,-6.0,-6.0,1651068573617213.0
-2.0,-4.0,-8.0,-17.0,-11.0,2.0,7.0,-2.0,1651068573617213.0
-12.0,-1.0,4.0,5.0,-5.0,-5.0,-10.0,-25.0,1651068573618152.0
-5.0,-6.0,-6.0,13.0,7.0,8.0,0.0,2.0,1651068573618152.0
9.0,7.0,3.0,-8.0,6.0,6.0,14.0,12.0,1651068573640444.0
0.0,0.0,-2.0,-13.0,-12.0,-12.0,0.0,0.0,1651068573640444.0
1.0,2.0,5.0,11.0,8.0,7.0,-3.0,4.0,1651068573640444.0
-2.0,0.0,8.0,39.0,-12.0,-10.0,-3.0,-1.0,1651068573640444.0
-2.0,-4.0,-13.0,-50.0,2.0,6.0,-7.0,-11.0,1651068573654732.0
3.0,0.0,-4.0,-3.0,-6.0,-2.0,1.0,1.0,1651068573654732.0
-9.0,-6.0,-9.0,-20.0,-16.0,-14.0,-8.0,2.0,1651068573655291.0
-4.0,-3.0,2.0,-7.0,-19.0,-9.0,-8.0,-8.0,1651068573655291.0
1.0,1.0,6.0,18.0,17.0,-2.0,-16.0,-1.0,1651068573677617.0
9.0,7.0,12.0,27.0,9.0,13.0,34.0,26.0,1651068573677617.0
-6.0,-3.0,-4.0,-10.0,6.0,9.0,0.0,-3.0,1651068573678571.0
5.0,3.0,-2.0,-10.0,1.0,-3.0,0.0,6.0,1651068573678571.0
-5.0,-5.0,-8.0,-8.0,-19.0,-10.0,4.0,9.0,1651068573700406.0
10.0,7.0,8.0,-2.0,16.0,9.0,7.0,10.0,1651068573700406.0
-1.0,-1.0,-1.0,0.0,11.0,1.0,1.0,-8.0,1651068573700406.0
0.0,1.0,3.0,2.0,-4.0,3.0,1.0,5.0,1651068573700406.0
-6.0,-5.0,0.0,2.0,-15.0,-1.0,14.0,5.0,1651068573714363.0
1.0,-4.0,-12.0,-12.0,7.0,-7.0,-11.0,-6.0,1651068573714363.0
5.0,2.0,7.0,25.0,25.0,26.0,13.0,12.0,1651068573715339.0
4.0,4.0,0.0,-1.0,-1.0,0.0,-8.0,-10.0,1651068573715339.0
0.0,1.0,3.0,-4.0,6.0,2.0,2.0,6.0,1651068573737442.0
-7.0,-5.0,-3.0,0.0,-27.0,-21.0,-12.0,-9.0,1651068573737442.0
-2.0,-3.0,-9.0,-13.0,2.0,-2.0,-12.0,0.0,1651068573738373.0
7.0,3.0,-2.0,0.0,4.0,3.0,18.0,18.0,1651068573738373.0
3.0,6.0,10.0,17.0,4.0,7.0,-4.0,0.0,1651068573760406.0
-6.0,-9.0,-8.0,10.0,-4.0,-3.0,10.0,10.0,1651068573760406.0
2.0,3.0,3.0,-4.0,-13.0,-12.0,4.0,9.0,1651068573760406.0
-2.0,-2.0,0.0,5.0,18.0,17.0,6.0,-4.0,1651068573760406.0
5.0,4.0,2.0,6.0,22.0,11.0,3.0,-4.0,1651068573774138.0
-4.0,-3.0,-5.0,-4.0,-15.0,-5.0,-4.0,-10.0,1651068573774138.0
0.0,1.0,1.0,4.0,2.0,-4.0,-6.0,-1.0,1651068573782319.0
0.0,-1.0,-3.0,-16.0,-19.0,-12.0,-2.0,3.0,1651068573782319.0
-11.0,-7.0,-1.0,-1.0,-10.0,-5.0,-15.0,-19.0,1651068573797376.0
4.0,3.0,2.0,0.0,11.0,11.0,-11.0,-5.0,1651068573797376.0
-5.0,-5.0,-7.0,3.0,-13.0,-11.0,9.0,2.0,1651068573799364.0
-1.0,1.0,4.0,6.0,18.0,11.0,15.0,0.0,1651068573799364.0
2.0,1.0,0.0,-3.0,-5.0,-7.0,-13.0,-6.0,1651068573820431.0
-3.0,-4.0,-2.0,4.0,-10.0,-4.0,5.0,6.0,1651068573820431.0
-3.0,-2.0,-8.0,-20.0,-9.0,-4.0,-12.0,-13.0,1651068573821461.0
2.0,-1.0,-1.0,4.0,-3.0,-6.0,6.0,14.0,1651068573821461.0
-2.0,-1.0,-4.0,-1.0,-7.0,-5.0,-1.0,-2.0,1651068573833515.0
3.0,0.0,0.0,-10.0,15.0,15.0,5.0,9.0,1651068573833515.0
3.0,3.0,8.0,18.0,10.0,2.0,2.0,13.0,1651068573842500.0
0.0,1.0,0.0,-3.0,-7.0,-5.0,2.0,1.0,1651068573842500.0
-6.0,-5.0,-6.0,-3.0,-5.0,-3.0,-10.0,-7.0,1651068573857560.0
-1.0,2.0,4.0,-3.0,-11.0,-12.0,-7.0,-7.0,1651068573857560.0
0.0,3.0,5.0,8.0,6.0,7.0,-2.0,-5.0,1651068573859489.0
1.0,-2.0,-5.0,-16.0,-9.0,-5.0,3.0,3.0,1651068573859489.0
-3.0,-1.0,-1.0,1.0,-2.0,-2.0,-7.0,-8.0,1651068573880383.0
-1.0,0.0,-3.0,1.0,-1.0,5.0,14.0,2.0,1651068573880383.0
-3.0,-2.0,0.0,0.0,-1.0,-2.0,-1.0,-3.0,1651068573881383.0
1.0,-1.0,1.0,4.0,-11.0,-11.0,-8.0,1.0,1651068573881383.0
1.0,-1.0,-2.0,-3.0,9.0,6.0,-1.0,-6.0,1651068573902512.0
-2.0,-2.0,0.0,-1.0,13.0,8.0,-6.0,-4.0,1651068573902512.0
1.0,0.0,-1.0,2.0,-2.0,0.0,4.0,9.0,1651068573904439.0
-3.0,-2.0,-5.0,-14.0,-13.0,-5.0,3.0,1.0,1651068573904439.0
3.0,2.0,-1.0,7.0,4.0,3.0,11.0,9.0,1651068573917416.0
2.0,-1.0,-4.0,-9.0,-5.0,-5.0,5.0,7.0,1651068573917416.0
0.0,2.0,6.0,11.0,10.0,5.0,6.0,-2.0,1651068573919399.0
-3.0,-6.0,-7.0,-3.0,-8.0,-8.0,-9.0,1.0,1651068573919399.0
4.0,1.0,0.0,-4.0,0.0,3.0,14.0,17.0,1651068573939670.0
-3.0,1.0,0.0,12.0,7.0,5.0,-1.0,-9.0,1651068573939670.0
-8.0,-5.0,-7.0,-7.0,-10.0,-12.0,-24.0,-15.0,1651068573941668.0
9.0,3.0,3.0,4.0,5.0,1.0,10.0,20.0,1651068573941668.0
1.0,2.0,0.0,-5.0,1.0,4.0,17.0,6.0,1651068573954106.0
-16.0,-5.0,-6.0,-6.0,-2.0,-3.0,2.0,4.0,1651068573954106.0
-13.0,-1.0,4.0,2.0,5.0,2.0,8.0,5.0,1651068573962630.0
12.0,-1.0,-3.0,-11.0,-2.0,-4.0,-17.0,-10.0,1651068573962630.0
-4.0,-7.0,-9.0,-13.0,-7.0,0.0,-4.0,-2.0,1651068573977679.0
1.0,4.0,0.0,15.0,-4.0,-7.0,-8.0,-2.0,1651068573977679.0
-12.0,-2.0,2.0,-5.0,-6.0,-6.0,-14.0,-13.0,1651068573978638.0
-3.0,6.0,4.0,12.0,13.0,10.0,5.0,-1.0,1651068573978638.0
-1.0,1.0,-2.0,-9.0,-8.0,-6.0,-3.0,0.0,1651068574000400.0
4.0,-2.0,2.0,-8.0,-3.0,0.0,-1.0,-7.0,1651068574000400.0
7.0,0.0,-5.0,8.0,4.0,1.0,-6.0,-11.0,1651068574001343.0
-3.0,1.0,5.0,5.0,2.0,4.0,1.0,-3.0,1651068574001343.0
3.0,0.0,6.0,12.0,6.0,0.0,1.0,4.0,1651068574022393.0
0.0,-3.0,-10.0,-28.0,-6.0,-2.0,-4.0,-6.0,1651068574022393.0
3.0,-2.0,7.0,37.0,9.0,1.0,2.0,0.0,1651068574024422.0
-6.0,-1.0,-1.0,3.0,0.0,-4.0,-4.0,-6.0,1651068574024422.0
-7.0,-2.0,1.0,14.0,1.0,2.0,-3.0,-3.0,1651068574037430.0
4.0,2.0,-1.0,-23.0,-9.0,-3.0,-4.0,-2.0,1651068574037430.0
2.0,-1.0,0.0,-2.0,3.0,2.0,5.0,3.0,1651068574039384.0
-4.0,-4.0,-1.0,-4.0,-3.0,-1.0,0.0,-3.0,1651068574039384.0
2.0,2.0,0.0,10.0,1.0,-2.0,-1.0,0.0,1651068574060493.0
1.0,-2.0,2.0,-3.0,-6.0,-1.0,2.0,-2.0,1651068574060493.0
4.0,0.0,1.0,-2.0,1.0,0.0,2.0,4.0,1651068574061493.0
-4.0,-4.0,-4.0,7.0,6.0,0.0,-3.0,-3.0,1651068574061493.0
0.0,0.0,0.0,-6.0,-3.0,-2.0,-2.0,-1.0,1651068574074114.0
0.0,-1.0,3.0,-3.0,-10.0,-4.0,-2.0,0.0,1651068574074114.0
-2.0,-2.0,-4.0,-15.0,-3.0,0.0,1.0,-3.0,1651068574082251.0
-3.0,1.0,1.0,3.0,2.0,-1.0,-3.0,-4.0,1651068574082251.0
0.0,1.0,-4.0,-6.0,-2.0,0.0,-1.0,-1.0,1651068574098142.0
12.0,7.0,0.0,15.0,9.0,1.0,-1.0,-1.0,1651068574098142.0
-19.0,-14.0,-2.0,1.0,-3.0,1.0,2.0,0.0,1651068574099167.0
-2.0,-4.0,-7.0,-17.0,-17.0,-7.0,-3.0,-3.0,1651068574099167.0
1.0,-1.0,4.0,5.0,4.0,1.0,2.0,1.0,1651068574120435.0
0.0,-5.0,0.0,6.0,3.0,0.0,-2.0,1.0,1651068574120435.0
16.0,21.0,3.0,-1.0,-1.0,0.0,0.0,0.0,1651068574121436.0
9.0,15.0,2.0,5.0,6.0,0.0,-4.0,-7.0,1651068574121436.0
-24.0,-20.0,-5.0,-9.0,-2.0,-1.0,2.0,-1.0,1651068574133892.0
7.0,-4.0,0.0,9.0,-1.0,-1.0,0.0,1.0,1651068574133892.0
2.0,2.0,-3.0,-10.0,-5.0,-3.0,-1.0,-1.0,1651068574142870.0
-2.0,3.0,-1.0,3.0,2.0,2.0,-2.0,0.0,1651068574142870.0
9.0,7.0,1.0,-2.0,-2.0,-1.0,-2.0,-1.0,1651068574157432.0
-3.0,1.0,1.0,2.0,2.0,-1.0,1.0,0.0,1651068574157432.0
1.0,-4.0,-2.0,-5.0,-1.0,1.0,1.0,3.0,1651068574159362.0
-5.0,-4.0,0.0,0.0,0.0,1.0,2.0,0.0,1651068574159362.0
1.0,0.0,1.0,2.0,0.0,1.0,0.0,1.0,1651068574180465.0
-6.0,-3.0,-2.0,-3.0,-1.0,0.0,-1.0,-1.0,1651068574180465.0
0.0,0.0,-2.0,0.0,0.0,-1.0,-1.0,-1.0,1651068574181459.0
-5.0,-6.0,-1.0,1.0,0.0,-1.0,0.0,-1.0,1651068574181459.0
4.0,2.0,-1.0,-1.0,-1.0,0.0,0.0,1.0,1651068574194141.0
-5.0,1.0,-3.0,-2.0,1.0,-1.0,-1.0,-3.0,1651068574194141.0
2.0,-1.0,1.0,-1.0,-2.0,-2.0,-1.0,0.0,1651068574203126.0
0.0,-4.0,-1.0,-2.0,-1.0,-1.0,2.0,1.0,1651068574203126.0
-1.0,2.0,-4.0,-1.0,-2.0,-4.0,-2.0,-2.0,1651068574217109.0
-3.0,0.0,2.0,1.0,3.0,2.0,2.0,-1.0,1651068574217109.0
-3.0,-1.0,-1.0,-1.0,-2.0,-2.0,-1.0,-2.0,1651068574219076.0
-2.0,-7.0,-8.0,-3.0,0.0,-1.0,-1.0,-1.0,1651068574219076.0
2.0,2.0,0.0,3.0,-1.0,0.0,-2.0,-2.0,1651068574240407.0
-4.0,-1.0,1.0,-1.0,2.0,0.0,2.0,1.0,1651068574240407.0
1.0,-3.0,-1.0,-1.0,0.0,0.0,0.0,-1.0,1651068574241408.0
-1.0,1.0,-1.0,2.0,0.0,2.0,1.0,-1.0,1651068574241408.0
3.0,2.0,1.0,-3.0,-1.0,-1.0,-2.0,0.0,1651068574254083.0
-1.0,-2.0,-3.0,-3.0,-15.0,-12.0,-5.0,-3.0,1651068574254083.0
-1.0,-4.0,-1.0,5.0,19.0,10.0,3.0,2.0,1651068574262387.0
-1.0,-1.0,-1.0,1.0,-2.0,0.0,-2.0,-1.0,1651068574262387.0
-1.0,-1.0,-1.0,-1.0,0.0,-3.0,0.0,-1.0,1651068574277385.0
-2.0,0.0,-1.0,-2.0,-4.0,1.0,0.0,-1.0,1651068574277385.0
0.0,-1.0,-1.0,-3.0,-10.0,-5.0,-3.0,-3.0,1651068574284081.0
-2.0,0.0,3.0,1.0,2.0,-1.0,0.0,-2.0,1651068574284081.0
1.0,-1.0,0.0,0.0,1.0,-1.0,-2.0,-1.0,1651068574300108.0
-1.0,-1.0,-1.0,0.0,1.0,0.0,-1.0,1.0,1651068574300108.0
-1.0,0.0,-3.0,-3.0,-3.0,-1.0,0.0,2.0,1651068574302056.0
1.0,-4.0,-1.0,1.0,2.0,1.0,0.0,-2.0,1651068574302056.0
1.0,0.0,-2.0,-2.0,-3.0,-1.0,0.0,-1.0,1651068574314127.0
0.0,-1.0,-4.0,1.0,3.0,1.0,0.0,-1.0,1651068574314127.0
2.0,0.0,2.0,1.0,0.0,1.0,0.0,2.0,1651068574323191.0
-2.0,-2.0,-1.0,-2.0,-2.0,-2.0,-2.0,0.0,1651068574323191.0
1.0,-1.0,1.0,0.0,-1.0,1.0,0.0,-1.0,1651068574337503.0
-2.0,-1.0,-3.0,-1.0,2.0,2.0,0.0,0.0,1651068574337503.0
0.0,0.0,-1.0,-3.0,-2.0,0.0,1.0,-2.0,1651068574339431.0
0.0,2.0,4.0,0.0,-2.0,-1.0,1.0,1.0,1651068574339431.0
0.0,-2.0,-6.0,0.0,1.0,0.0,1.0,0.0,1651068574360405.0
-1.0,-2.0,0.0,0.0,3.0,2.0,0.0,-1.0,1651068574360405.0
-1.0,0.0,-2.0,-2.0,-3.0,-3.0,0.0,-1.0,1651068574361404.0
0.0,2.0,2.0,-1.0,0.0,1.0,-2.0,0.0,1651068574361404.0
-1.0,-2.0,0.0,0.0,-2.0,1.0,-1.0,1.0,1651068574382472.0
-1.0,-3.0,-2.0,0.0,1.0,-1.0,-4.0,-1.0,1651068574382472.0
-1.0,-2.0,0.0,0.0,0.0,-1.0,-1.0,0.0,1651068574384494.0
0.0,-1.0,-3.0,-2.0,0.0,-1.0,0.0,0.0,1651068574384494.0
0.0,2.0,2.0,0.0,-1.0,-2.0,-1.0,-1.0,1651068574397499.0
1.0,0.0,1.0,1.0,-1.0,0.0,-2.0,0.0,1651068574397499.0
-1.0,0.0,-2.0,-2.0,-2.0,0.0,2.0,-1.0,1651068574399427.0
-1.0,-2.0,-1.0,1.0,1.0,-1.0,1.0,1.0,1651068574399427.0
0.0,0.0,3.0,0.0,1.0,-2.0,1.0,-2.0,1651068574420437.0
-1.0,1.0,2.0,-1.0,0.0,-2.0,1.0,-1.0,1651068574420437.0
0.0,-1.0,-2.0,0.0,1.0,-3.0,0.0,-1.0,1651068574421393.0
-1.0,-1.0,-1.0,-1.0,-5.0,-2.0,-2.0,-1.0,1651068574421393.0
-2.0,1.0,-2.0,0.0,0.0,1.0,0.0,0.0,1651068574442379.0
-1.0,0.0,-1.0,0.0,0.0,1.0,-1.0,-1.0,1651068574442379.0
1.0,1.0,3.0,-1.0,-1.0,1.0,-1.0,0.0,1651068574444334.0
1.0,-2.0,-3.0,-1.0,0.0,-1.0,-1.0,-1.0,1651068574444334.0
0.0,-1.0,0.0,-1.0,-1.0,0.0,-3.0,0.0,1651068574457461.0
-1.0,-1.0,1.0,-1.0,-1.0,1.0,1.0,0.0,1651068574457461.0
0.0,-1.0,-1.0,-1.0,-2.0,-2.0,-2.0,-1.0,1651068574459388.0
0.0,0.0,-2.0,-1.0,0.0,-1.0,0.0,0.0,1651068574459388.0
-2.0,1.0,3.0,2.0,2.0,0.0,0.0,-2.0,1651068574480464.0
-1.0,0.0,4.0,7.0,-1.0,1.0,2.0,-1.0,1651068574480464.0
-1.0,-1.0,-5.0,-4.0,0.0,-2.0,-2.0,-1.0,1651068574481470.0
-1.0,1.0,3.0,0.0,-1.0,-2.0,-1.0,-1.0,1651068574481470.0
0.0,0.0,-2.0,-1.0,-4.0,-2.0,0.0,-1.0,1651068574502591.0
1.0,1.0,-1.0,0.0,3.0,0.0,1.0,-2.0,1651068574502591.0
-2.0,0.0,3.0,0.0,-3.0,-1.0,-2.0,-1.0,1651068574504538.0
0.0,0.0,0.0,0.0,0.0,2.0,1.0,0.0,1651068574504538.0
-3.0,-2.0,-1.0,0.0,-2.0,-2.0,-1.0,-1.0,1651068574517662.0
-1.0,0.0,-2.0,-1.0,-1.0,-1.0,-1.0,0.0,1651068574517662.0
0.0,-2.0,-2.0,-2.0,-2.0,-2.0,-1.0,0.0,1651068574518593.0
0.0,-1.0,2.0,0.0,0.0,0.0,-1.0,0.0,1651068574518593.0
-1.0,-2.0,-5.0,-1.0,2.0,1.0,2.0,1.0,1651068574540430.0
0.0,-2.0,-2.0,-2.0,-1.0,0.0,1.0,-1.0,1651068574540430.0
-1.0,1.0,3.0,8.0,5.0,0.0,0.0,-1.0,1651068574541654.0
-1.0,-3.0,-11.0,-23.0,-11.0,-4.0,-1.0,-1.0,1651068574541654.0
-1.0,0.0,1.0,-2.0,-2.0,-2.0,-1.0,-1.0,1651068574569586.0
-1.0,-1.0,-3.0,-4.0,0.0,-1.0,-1.0,0.0,1651068574569586.0
0.0,-1.0,0.0,5.0,1.0,2.0,0.0,-1.0,1651068574571587.0
1.0,-1.0,3.0,8.0,3.0,-2.0,-1.0,-1.0,1651068574571587.0
0.0,1.0,3.0,0.0,1.0,3.0,1.0,0.0,1651068574576568.0
-2.0,0.0,-2.0,0.0,-1.0,-1.0,0.0,0.0,1651068574576568.0
0.0,0.0,-3.0,-2.0,0.0,-1.0,-1.0,1.0,1651068574583576.0
-2.0,1.0,0.0,3.0,0.0,-1.0,-2.0,0.0,1651068574583576.0
0.0,-2.0,-3.0,-4.0,-2.0,-3.0,-2.0,-2.0,1651068574600383.0
0.0,1.0,2.0,1.0,0.0,0.0,-1.0,0.0,1651068574600383.0
-1.0,-2.0,-1.0,-2.0,-1.0,0.0,-1.0,-1.0,1651068574601349.0
-1.0,-1.0,0.0,0.0,0.0,-1.0,-1.0,-1.0,1651068574601349.0
-1.0,1.0,-1.0,1.0,0.0,-2.0,-1.0,-2.0,1651068574622310.0
0.0,-2.0,0.0,-1.0,-1.0,1.0,-2.0,1.0,1651068574622310.0
0.0,-2.0,-4.0,-4.0,-4.0,0.0,-1.0,-2.0,1651068574624332.0
-2.0,1.0,1.0,3.0,0.0,-1.0,0.0,0.0,1651068574624332.0
-1.0,1.0,1.0,0.0,0.0,0.0,0.0,0.0,1651068574636452.0
0.0,-1.0,-1.0,-3.0,-2.0,-2.0,-1.0,-1.0,1651068574636452.0
0.0,-1.0,0.0,-2.0,-3.0,-1.0,1.0,-2.0,1651068574643446.0
-2.0,0.0,0.0,2.0,2.0,1.0,-1.0,0.0,1651068574643446.0
0.0,1.0,0.0,-1.0,-2.0,0.0,-2.0,1.0,1651068574660586.0
0.0,-3.0,-2.0,-2.0,-1.0,-1.0,-3.0,-1.0,1651068574660586.0
-1.0,0.0,-1.0,-1.0,-2.0,-2.0,-2.0,0.0,1651068574661571.0
0.0,-1.0,-2.0,0.0,-1.0,-1.0,-1.0,0.0,1651068574661571.0
0.0,1.0,0.0,-2.0,-3.0,-2.0,1.0,-2.0,1651068574682576.0
0.0,0.0,-3.0,-1.0,0.0,-2.0,-2.0,-2.0,1651068574682576.0
0.0,0.0,1.0,-1.0,0.0,0.0,1.0,-2.0,1651068574684540.0
0.0,-1.0,1.0,1.0,1.0,1.0,1.0,1.0,1651068574684540.0
0.0,-1.0,0.0,1.0,0.0,2.0,1.0,-1.0,1651068574696628.0
0.0,2.0,0.0,-2.0,-2.0,-2.0,0.0,0.0,1651068574696628.0
0.0,-1.0,-4.0,-1.0,0.0,-2.0,-1.0,0.0,1651068574703675.0
-1.0,1.0,-1.0,1.0,1.0,-2.0,1.0,0.0,1651068574703675.0
0.0,-2.0,-2.0,1.0,0.0,-1.0,1.0,-1.0,1651068574719830.0
-1.0,0.0,3.0,0.0,0.0,2.0,1.0,0.0,1651068574719830.0
0.0,-2.0,0.0,0.0,-1.0,0.0,1.0,1.0,1651068574721759.0
0.0,-1.0,0.0,0.0,0.0,1.0,-1.0,0.0,1651068574721759.0
-1.0,-2.0,-5.0,-2.0,-5.0,-6.0,-2.0,-3.0,1651068574742542.0
-1.0,0.0,1.0,1.0,2.0,1.0,2.0,-2.0,1651068574742542.0
-4.0,-3.0,-5.0,-1.0,-1.0,-3.0,-3.0,-2.0,1651068574744498.0
-1.0,0.0,1.0,0.0,0.0,3.0,3.0,-1.0,1651068574744498.0
0.0,0.0,0.0,0.0,1.0,1.0,0.0,1.0,1651068574757384.0
2.0,0.0,-1.0,-1.0,0.0,0.0,1.0,2.0,1651068574757384.0
-1.0,-1.0,-1.0,-3.0,-2.0,-1.0,-2.0,0.0,1651068574771475.0
0.0,-1.0,0.0,-2.0,-2.0,-2.0,-2.0,-2.0,1651068574771475.0
0.0,-2.0,1.0,-2.0,-1.0,0.0,-1.0,1.0,1651068574780479.0
0.0,1.0,0.0,1.0,0.0,0.0,0.0,-2.0,1651068574780479.0
1.0,0.0,2.0,1.0,2.0,1.0,1.0,0.0,1651068574781449.0
-2.0,-2.0,-1.0,2.0,1.0,0.0,-1.0,-1.0,1651068574781449.0
-1.0,-2.0,-1.0,-1.0,0.0,0.0,1.0,1.0,1651068574802196.0
0.0,-2.0,-5.0,-1.0,-4.0,-4.0,-4.0,-2.0,1651068574802196.0
-2.0,-1.0,-1.0,-2.0,-1.0,-1.0,-1.0,0.0,1651068574804130.0
-1.0,-1.0,0.0,-1.0,0.0,0.0,-1.0,-1.0,1651068574804130.0
2.0,1.0,0.0,-1.0,0.0,2.0,1.0,3.0,1651068574817230.0
1.0,-3.0,-4.0,0.0,0.0,-1.0,1.0,0.0,1651068574817230.0
-1.0,0.0,2.0,-2.0,-2.0,-1.0,0.0,-1.0,1651068574823281.0
-1.0,-2.0,0.0,2.0,-3.0,-2.0,-3.0,0.0,1651068574823281.0
-1.0,2.0,2.0,0.0,0.0,-2.0,-3.0,-1.0,1651068574847414.0
0.0,0.0,0.0,0.0,2.0,1.0,1.0,-1.0,1651068574847414.0
1.0,0.0,2.0,0.0,-1.0,-1.0,2.0,0.0,1651068574849355.0
1.0,-1.0,-2.0,-2.0,0.0,0.0,-1.0,-1.0,1651068574849355.0
-1.0,-1.0,-3.0,-1.0,-1.0,-2.0,-3.0,-1.0,1651068574862967.0
-1.0,-2.0,-2.0,-1.0,0.0,1.0,-1.0,-1.0,1651068574862967.0
-1.0,0.0,1.0,2.0,0.0,2.0,0.0,0.0,1651068574863966.0
0.0,0.0,-2.0,-1.0,-3.0,-1.0,-4.0,-2.0,1651068574863966.0
0.0,0.0,1.0,1.0,0.0,1.0,2.0,0.0,1651068574876427.0
-1.0,0.0,0.0,1.0,-1.0,-1.0,-1.0,0.0,1651068574876427.0
1.0,0.0,-1.0,0.0,-1.0,-1.0,1.0,-1.0,1651068574885300.0
0.0,0.0,2.0,-1.0,0.0,0.0,3.0,-1.0,1651068574885300.0
0.0,-2.0,-2.0,-2.0,-1.0,-1.0,-3.0,-2.0,1651068574900478.0
0.0,0.0,2.0,1.0,-1.0,-2.0,-1.0,-1.0,1651068574900478.0
0.0,1.0,0.0,-2.0,0.0,2.0,-1.0,1.0,1651068574901411.0
0.0,0.0,-3.0,-2.0,-1.0,-1.0,-2.0,0.0,1651068574901411.0
-1.0,-2.0,0.0,0.0,0.0,0.0,-1.0,-2.0,1651068574930404.0
-1.0,-2.0,0.0,0.0,1.0,0.0,1.0,0.0,1651068574930404.0
-2.0,0.0,-3.0,1.0,0.0,-2.0,-1.0,-1.0,1651068574931403.0
-1.0,-2.0,-1.0,-1.0,-2.0,1.0,-1.0,-2.0,1651068574931403.0
-1.0,0.0,0.0,1.0,1.0,0.0,1.0,-1.0,1651068574936419.0
-1.0,0.0,0.0,-3.0,-4.0,-3.0,0.0,-1.0,1651068574936419.0
0.0,1.0,0.0,-1.0,0.0,-2.0,-2.0,-1.0,1651068574945367.0
-2.0,-2.0,-2.0,0.0,-2.0,-1.0,0.0,0.0,1651068574945367.0
-2.0,-1.0,-3.0,-4.0,-1.0,-2.0,-2.0,-2.0,1651068574967362.0
0.0,1.0,1.0,-1.0,0.0,0.0,1.0,1.0,1651068574967362.0
-1.0,0.0,1.0,-1.0,1.0,1.0,-1.0,0.0,1651068574969355.0
1.0,0.0,2.0,6.0,-1.0,1.0,0.0,2.0,1651068574969355.0
-1.0,-1.0,1.0,0.0,-1.0,1.0,0.0,0.0,1651068574982387.0
-1.0,1.0,-1.0,-2.0,-1.0,0.0,-2.0,0.0,1651068574982387.0
-1.0,0.0,-1.0,-1.0,1.0,-2.0,-1.0,1.0,1651068574984316.0
0.0,0.0,-1.0,-2.0,1.0,-1.0,0.0,-2.0,1651068574984316.0
-1.0,0.0,-2.0,1.0,1.0,-1.0,0.0,-2.0,1651068574996608.0
-1.0,-1.0,2.0,-2.0,-2.0,1.0,1.0,-1.0,1651068574996608.0
0.0,0.0,1.0,1.0,1.0,0.0,1.0,-2.0,1651068575004676.0
-1.0,-2.0,-5.0,-1.0,0.0,-2.0,-1.0,-1.0,1651068575004676.0
0.0,1.0,2.0,-2.0,-1.0,-2.0,-1.0,2.0,1651068575019913.0
-2.0,-6.0,-4.0,1.0,0.0,-2.0,-4.0,-3.0,1651068575019913.0
0.0,-1.0,-2.0,-1.0,-5.0,-1.0,2.0,1.0,1651068575021910.0
0.0,0.0,3.0,-1.0,0.0,1.0,0.0,-1.0,1651068575021910.0
0.0,0.0,-2.0,3.0,0.0,2.0,1.0,0.0,1651068575042618.0
1.0,1.0,4.0,5.0,1.0,-2.0,-1.0,1.0,1651068575042618.0
0.0,-2.0,-3.0,-4.0,-5.0,2.0,0.0,0.0,1651068575044625.0
-1.0,-1.0,-2.0,-6.0,-1.0,-2.0,-1.0,1.0,1651068575044625.0
-3.0,-1.0,-3.0,0.0,2.0,2.0,1.0,0.0,1651068575056611.0
0.0,1.0,2.0,2.0,0.0,-2.0,0.0,0.0,1651068575056611.0
-2.0,-3.0,-2.0,3.0,1.0,-2.0,-1.0,-2.0,1651068575065301.0
-1.0,0.0,-1.0,3.0,2.0,0.0,0.0,-2.0,1651068575065301.0
2.0,1.0,2.0,-5.0,-3.0,-4.0,0.0,0.0,1651068575080428.0
1.0,-2.0,-4.0,-2.0,2.0,1.0,0.0,0.0,1651068575080428.0
0.0,0.0,-2.0,0.0,0.0,0.0,-1.0,-1.0,1651068575081357.0
-2.0,-2.0,0.0,3.0,-1.0,-1.0,0.0,-1.0,1651068575081357.0
0.0,-1.0,-4.0,-8.0,-1.0,-3.0,1.0,0.0,1651068575102858.0
-1.0,2.0,-2.0,-1.0,-3.0,0.0,2.0,0.0,1651068575102858.0
-2.0,-2.0,-2.0,-2.0,1.0,-2.0,-1.0,-1.0,1651068575103859.0
2.0,-2.0,0.0,8.0,5.0,5.0,2.0,2.0,1651068575103859.0
-3.0,-5.0,-4.0,-6.0,-4.0,-3.0,-1.0,-3.0,1651068575125391.0
-1.0,0.0,1.0,-4.0,-4.0,-2.0,-2.0,0.0,1651068575125391.0
-1.0,-1.0,-1.0,-1.0,-1.0,-1.0,0.0,-2.0,1651068575126402.0
0.0,0.0,0.0,2.0,0.0,-2.0,1.0,0.0,1651068575126402.0
1.0,0.0,3.0,3.0,0.0,0.0,-1.0,0.0,1651068575140486.0
-1.0,-1.0,-1.0,1.0,1.0,1.0,4.0,2.0,1651068575140486.0
0.0,1.0,0.0,2.0,1.0,1.0,0.0,0.0,1651068575141506.0
-1.0,0.0,4.0,-3.0,-1.0,-3.0,-1.0,-1.0,1651068575141506.0
-1.0,-6.0,-8.0,0.0,1.0,3.0,-1.0,0.0,1651068575162965.0
-1.0,0.0,0.0,-5.0,-9.0,-7.0,-4.0,-1.0,1651068575162965.0
-2.0,-1.0,-1.0,4.0,1.0,0.0,2.0,2.0,1651068575163973.0
0.0,0.0,-2.0,-5.0,-1.0,0.0,1.0,0.0,1651068575163973.0
-2.0,-1.0,-3.0,0.0,0.0,0.0,-1.0,0.0,1651068575176074.0
1.0,-1.0,5.0,6.0,9.0,6.0,-2.0,-1.0,1651068575176074.0
0.0,-3.0,-4.0,-8.0,-5.0,-5.0,-1.0,0.0,1651068575184980.0
0.0,0.0,-1.0,-3.0,-5.0,-6.0,-1.0,-3.0,1651068575184980.0
1.0,1.0,6.0,7.0,5.0,4.0,3.0,1.0,1651068575200021.0
-1.0,-2.0,-4.0,-1.0,4.0,3.0,1.0,2.0,1651068575200021.0
1.0,1.0,2.0,-1.0,-7.0,-2.0,4.0,2.0,1651068575202052.0
0.0,0.0,6.0,4.0,9.0,5.0,2.0,1.0,1651068575202052.0
2.0,2.0,4.0,1.0,-3.0,-3.0,-2.0,-4.0,1651068575222565.0
-1.0,-1.0,-1.0,-3.0,-2.0,-1.0,2.0,3.0,1651068575222565.0
0.0,1.0,1.0,-2.0,7.0,5.0,0.0,-1.0,1651068575224493.0
-2.0,-2.0,-4.0,-2.0,-3.0,-2.0,-6.0,-4.0,1651068575224493.0
2.0,2.0,2.0,2.0,-4.0,0.0,10.0,8.0,1651068575236532.0
0.0,0.0,0.0,-3.0,3.0,0.0,-2.0,0.0,1651068575236532.0
-2.0,-4.0,-5.0,-1.0,1.0,2.0,-5.0,-7.0,1651068575245005.0
0.0,-1.0,-5.0,-6.0,-4.0,-1.0,7.0,8.0,1651068575245005.0
-2.0,2.0,7.0,10.0,3.0,-2.0,-11.0,-7.0,1651068575260441.0
-3.0,-6.0,-9.0,-13.0,-13.0,-6.0,3.0,-1.0,1651068575260441.0
-6.0,-6.0,-4.0,4.0,-3.0,-13.0,-23.0,-14.0,1651068575261443.0
1.0,1.0,1.0,-3.0,1.0,4.0,7.0,5.0,1651068575261443.0
-2.0,-5.0,-5.0,2.0,-3.0,0.0,0.0,-5.0,1651068575282927.0
1.0,2.0,4.0,8.0,4.0,1.0,2.0,5.0,1651068575282927.0
-2.0,0.0,1.0,-2.0,-4.0,-1.0,-2.0,-2.0,1651068575283927.0
-4.0,-1.0,5.0,11.0,4.0,-4.0,-22.0,-15.0,1651068575283927.0
-1.0,-2.0,-6.0,-2.0,5.0,2.0,-6.0,0.0,1651068575296019.0
4.0,2.0,-1.0,-12.0,-11.0,-4.0,13.0,4.0,1651068575296019.0
-3.0,1.0,0.0,1.0,7.0,2.0,1.0,-4.0,1651068575304941.0
3.0,0.0,2.0,-2.0,-10.0,-7.0,2.0,3.0,1651068575304941.0
-4.0,-4.0,-8.0,-7.0,-3.0,-4.0,-8.0,-7.0,1651068575319383.0
-2.0,1.0,3.0,5.0,2.0,-3.0,-17.0,-18.0,1651068575319383.0
4.0,1.0,-4.0,-16.0,0.0,8.0,24.0,22.0,1651068575326382.0
-3.0,-4.0,-4.0,-4.0,-5.0,-5.0,-8.0,-9.0,1651068575326382.0
1.0,1.0,0.0,-5.0,-7.0,-2.0,7.0,6.0,1651068575342986.0
-4.0,-4.0,-4.0,11.0,0.0,-6.0,-6.0,-5.0,1651068575342986.0
1.0,2.0,8.0,8.0,3.0,2.0,5.0,-3.0,1651068575343991.0
-4.0,-5.0,-7.0,-1.0,7.0,5.0,-7.0,-7.0,1651068575343991.0
5.0,4.0,1.0,0.0,0.0,-2.0,8.0,8.0,1651068575365240.0
-2.0,-1.0,0.0,-9.0,5.0,5.0,-1.0,-3.0,1651068575365240.0
4.0,1.0,1.0,9.0,-7.0,-2.0,-3.0,10.0,1651068575366171.0
-4.0,1.0,1.0,0.0,6.0,-1.0,-1.0,-5.0,1651068575366171.0
4.0,3.0,4.0,6.0,7.0,11.0,20.0,11.0,1651068575380280.0
-1.0,0.0,1.0,2.0,-7.0,-6.0,-9.0,-4.0,1651068575380280.0
-2.0,-5.0,-7.0,-6.0,-11.0,-10.0,-13.0,-10.0,1651068575381283.0
2.0,0.0,3.0,4.0,2.0,0.0,4.0,3.0,1651068575381283.0
3.0,4.0,1.0,-3.0,4.0,5.0,-3.0,2.0,1651068575402337.0
-7.0,-5.0,-4.0,-6.0,-3.0,1.0,-2.0,-6.0,1651068575402337.0
10.0,1.0,-2.0,4.0,4.0,5.0,9.0,24.0,1651068575404288.0
-11.0,-1.0,-1.0,-2.0,-11.0,-5.0,-9.0,-17.0,1651068575404288.0
5.0,0.0,2.0,-9.0,-1.0,1.0,14.0,1.0,1651068575425435.0
2.0,1.0,4.0,14.0,22.0,7.0,7.0,5.0,1651068575425435.0
-4.0,-1.0,-5.0,-18.0,-3.0,5.0,-7.0,-11.0,1651068575426388.0
4.0,1.0,6.0,27.0,-2.0,-5.0,2.0,10.0,1651068575426388.0
-3.0,-2.0,-13.0,-22.0,-6.0,2.0,-4.0,-1.0,1651068575439745.0
7.0,1.0,-7.0,-5.0,-8.0,-9.0,-4.0,15.0,1651068575439745.0
-14.0,-7.0,-3.0,2.0,-9.0,-9.0,-11.0,-25.0,1651068575441769.0
3.0,2.0,-1.0,-22.0,-5.0,-3.0,4.0,4.0,1651068575441769.0
-5.0,-5.0,1.0,18.0,-10.0,-8.0,-12.0,-8.0,1651068575462549.0
5.0,4.0,4.0,-30.0,1.0,3.0,5.0,16.0,1651068575462549.0
-5.0,-4.0,1.0,20.0,19.0,11.0,1.0,-9.0,1651068575464497.0
10.0,8.0,2.0,16.0,-7.0,11.0,19.0,18.0,1651068575464497.0
-10.0,-3.0,-2.0,-12.0,41.0,9.0,-2.0,-2.0,1651068575484592.0
-4.0,0.0,6.0,15.0,-15.0,-9.0,-8.0,-18.0,1651068575484592.0
10.0,9.0,1.0,9.0,7.0,14.0,11.0,22.0,1651068575486589.0
-7.0,-10.0,-13.0,-37.0,-16.0,-17.0,-17.0,-17.0,1651068575486589.0
-3.0,3.0,6.0,13.0,-11.0,-8.0,-5.0,-11.0,1651068575499782.0
8.0,4.0,2.0,0.0,-9.0,-3.0,2.0,14.0,1651068575499782.0
-16.0,-10.0,-10.0,-6.0,28.0,-2.0,-6.0,-25.0,1651068575506608.0
4.0,0.0,-6.0,-27.0,-13.0,-5.0,-1.0,6.0,1651068575506608.0
7.0,3.0,-1.0,4.0,-4.0,-3.0,0.0,1.0,1651068575522569.0
-6.0,-8.0,-12.0,-13.0,-12.0,-3.0,-6.0,-11.0,1651068575522569.0
10.0,10.0,17.0,26.0,5.0,6.0,30.0,29.0,1651068575524526.0
4.0,0.0,-7.0,-12.0,-6.0,0.0,-2.0,14.0,1651068575524526.0
3.0,-4.0,1.0,7.0,-9.0,-5.0,-2.0,9.0,1651068575545444.0
-10.0,-1.0,3.0,11.0,8.0,7.0,4.0,-29.0,1651068575545444.0
-1.0,-1.0,-4.0,-2.0,-22.0,-13.0,-7.0,0.0,1651068575546442.0
2.0,-2.0,-1.0,19.0,43.0,31.0,13.0,6.0,1651068575546442.0
-7.0,-1.0,10.0,7.0,-8.0,-6.0,-13.0,-12.0,1651068575559434.0
0.0,-1.0,-9.0,-13.0,-7.0,-2.0,4.0,8.0,1651068575559434.0
-1.0,4.0,8.0,1.0,27.0,29.0,12.0,-5.0,1651068575566455.0
-5.0,-4.0,-2.0,-10.0,-7.0,-10.0,2.0,-5.0,1651068575566455.0
10.0,-2.0,-12.0,-32.0,1.0,-2.0,0.0,15.0,1651068575582626.0
-9.0,-1.0,6.0,28.0,-15.0,-13.0,-6.0,-12.0,1651068575582626.0
2.0,1.0,4.0,-2.0,25.0,19.0,-4.0,-2.0,1651068575583628.0
7.0,5.0,3.0,-2.0,-5.0,1.0,13.0,20.0,1651068575583628.0
-8.0,-4.0,1.0,6.0,-25.0,-15.0,1.0,3.0,1651068575604754.0
16.0,6.0,1.0,1.0,24.0,12.0,7.0,31.0,1651068575604754.0
-5.0,-3.0,3.0,5.0,-18.0,-14.0,-5.0,-10.0,1651068575606707.0
-4.0,-7.0,-10.0,-5.0,17.0,9.0,2.0,3.0,1651068575606707.0
-7.0,-4.0,-1.0,20.0,-20.0,-11.0,-8.0,-1.0,1651068575618671.0
-3.0,-6.0,-13.0,-19.0,-7.0,-2.0,-2.0,-7.0,1651068575618671.0
9.0,6.0,8.0,4.0,-2.0,-7.0,-6.0,18.0,1651068575627624.0
-5.0,0.0,0.0,3.0,-13.0,-1.0,7.0,-3.0,1651068575627624.0
2.0,1.0,1.0,21.0,35.0,10.0,-5.0,2.0,1651068575642507.0
-9.0,-5.0,2.0,4.0,7.0,5.0,0.0,-21.0,1651068575642507.0
-2.0,-9.0,-12.0,-14.0,-10.0,-15.0,-21.0,-13.0,1651068575644461.0
5.0,3.0,7.0,-3.0,-21.0,-13.0,10.0,4.0,1651068575644461.0
-1.0,-1.0,-7.0,-19.0,-14.0,1.0,10.0,10.0,1651068575665528.0
9.0,8.0,13.0,35.0,37.0,19.0,-1.0,11.0,1651068575665528.0
-10.0,-8.0,-10.0,-19.0,-26.0,-13.0,0.0,-5.0,1651068575666490.0
-1.0,-1.0,2.0,10.0,14.0,-4.0,-12.0,-6.0,1651068575666490.0
6.0,8.0,9.0,17.0,5.0,8.0,0.0,-10.0,1651068575679522.0
-2.0,-4.0,-6.0,-32.0,-16.0,-6.0,5.0,-3.0,1651068575679522.0
-3.0,-4.0,-5.0,-2.0,2.0,5.0,-3.0,2.0,1651068575686438.0
5.0,5.0,9.0,20.0,1.0,-6.0,-2.0,-2.0,1651068575686438.0
-11.0,-11.0,-14.0,-32.0,1.0,1.0,-3.0,-23.0,1651068575702393.0
7.0,6.0,4.0,-6.0,-11.0,-8.0,-5.0,14.0,1651068575702393.0
-4.0,-1.0,1.0,-2.0,7.0,4.0,2.0,-15.0,1651068575704389.0
-1.0,-3.0,-1.0,0.0,-21.0,-8.0,-4.0,2.0,1651068575704389.0
11.0,5.0,6.0,14.0,22.0,4.0,3.0,12.0,1651068575725094.0
-5.0,-7.0,-7.0,-12.0,-3.0,11.0,-6.0,-9.0,1651068575725094.0
4.0,1.0,-2.0,-9.0,-14.0,-15.0,0.0,8.0,1651068575731147.0
-5.0,1.0,11.0,11.0,8.0,2.0,-10.0,-13.0,1651068575731147.0
-5.0,-4.0,-5.0,-15.0,-1.0,-3.0,0.0,-7.0,1651068575739125.0
-4.0,-4.0,-9.0,-6.0,-9.0,-8.0,15.0,3.0,1651068575739125.0
-1.0,-3.0,-1.0,20.0,20.0,5.0,2.0,3.0,1651068575746053.0
0.0,1.0,-3.0,-21.0,-11.0,5.0,9.0,5.0,1651068575746053.0
-6.0,-1.0,-1.0,-7.0,-2.0,-6.0,-13.0,-16.0,1651068575763051.0
6.0,3.0,8.0,23.0,22.0,15.0,10.0,16.0,1651068575763051.0
7.0,5.0,-1.0,-14.0,-9.0,-5.0,-2.0,-3.0,1651068575764043.0
-3.0,-4.0,-10.0,0.0,0.0,-6.0,-12.0,-8.0,1651068575764043.0
2.0,3.0,3.0,0.0,-6.0,2.0,1.0,-8.0,1651068575785451.0
-6.0,-6.0,-3.0,4.0,-12.0,-13.0,-8.0,-13.0,1651068575785451.0
6.0,-1.0,-6.0,-8.0,-4.0,4.0,5.0,25.0,1651068575786449.0
-9.0,-4.0,4.0,24.0,15.0,2.0,-8.0,-17.0,1651068575786449.0
-1.0,-6.0,-19.0,-46.0,-8.0,1.0,-4.0,2.0,1651068575799817.0
1.0,0.0,0.0,-5.0,-3.0,-9.0,-10.0,-6.0,1651068575799817.0
-8.0,-2.0,7.0,-1.0,-13.0,-4.0,-7.0,-21.0,1651068575805869.0
-2.0,-3.0,-2.0,4.0,14.0,5.0,3.0,-5.0,1651068575805869.0
-4.0,-2.0,-4.0,-6.0,-10.0,-3.0,-1.0,-2.0,1651068575822758.0
-9.0,-4.0,-3.0,7.0,-17.0,-13.0,-7.0,-7.0,1651068575822758.0
8.0,6.0,3.0,10.0,28.0,25.0,11.0,11.0,1651068575823757.0
3.0,5.0,0.0,-16.0,-10.0,-3.0,-2.0,4.0,1651068575823757.0
-5.0,-7.0,-6.0,18.0,-15.0,-10.0,-4.0,-8.0,1651068575844726.0
-3.0,-2.0,0.0,-12.0,6.0,-2.0,-6.0,-6.0,1651068575844726.0
7.0,2.0,0.0,2.0,-11.0,-3.0,6.0,2.0,1651068575846694.0
-7.0,-6.0,-4.0,-5.0,-1.0,-1.0,0.0,-3.0,1651068575846694.0
-12.0,-6.0,-2.0,-1.0,-9.0,-15.0,-12.0,-22.0,1651068575858693.0
6.0,4.0,-2.0,-2.0,19.0,26.0,13.0,13.0,1651068575858693.0
-5.0,-1.0,2.0,6.0,-10.0,-8.0,2.0,-7.0,1651068575867637.0
3.0,5.0,5.0,20.0,11.0,1.0,2.0,-1.0,1651068575867637.0
3.0,1.0,-2.0,-16.0,-14.0,-10.0,4.0,11.0,1651068575882597.0
-3.0,-3.0,-1.0,12.0,24.0,21.0,-1.0,-4.0,1651068575882597.0
1.0,1.0,-3.0,-10.0,-5.0,-9.0,-8.0,-3.0,1651068575883595.0
0.0,-1.0,-2.0,3.0,-3.0,1.0,0.0,-4.0,1651068575883595.0
2.0,5.0,8.0,2.0,0.0,-4.0,4.0,8.0,1651068575904546.0
7.0,4.0,-2.0,1.0,-1.0,-6.0,-5.0,13.0,1651068575904546.0
-11.0,-7.0,-3.0,-21.0,-19.0,-5.0,-2.0,-1.0,1651068575906533.0
-1.0,-2.0,-3.0,13.0,27.0,6.0,-2.0,0.0,1651068575906533.0
7.0,2.0,0.0,6.0,2.0,7.0,-1.0,5.0,1651068575918565.0
-6.0,-4.0,-1.0,10.0,-10.0,-12.0,-5.0,-16.0,1651068575918565.0
0.0,2.0,-2.0,-16.0,-6.0,-5.0,-2.0,0.0,1651068575927598.0
-4.0,-6.0,-5.0,-12.0,-17.0,-9.0,-17.0,-9.0,1651068575927598.0
-1.0,0.0,3.0,15.0,21.0,20.0,24.0,22.0,1651068575942400.0
-5.0,-2.0,1.0,0.0,-9.0,-7.0,-11.0,-24.0,1651068575942400.0
1.0,4.0,6.0,12.0,-10.0,-11.0,-6.0,-1.0,1651068575944328.0
3.0,0.0,-1.0,-5.0,-7.0,-4.0,10.0,7.0,1651068575944328.0
5.0,3.0,4.0,-7.0,13.0,14.0,-7.0,-4.0,1651068575965502.0
0.0,1.0,3.0,1.0,-9.0,5.0,6.0,15.0,1651068575965502.0
-8.0,-6.0,-2.0,7.0,3.0,-5.0,-3.0,-10.0,1651068575966485.0
1.0,2.0,1.0,-4.0,11.0,3.0,-7.0,-3.0,1651068575966485.0
6.0,1.0,-2.0,8.0,-4.0,2.0,10.0,10.0,1651068575978520.0
-3.0,0.0,0.0,-9.0,-14.0,-13.0,-3.0,-2.0,1651068575978520.0
2.0,0.0,-1.0,-6.0,4.0,1.0,-3.0,-1.0,1651068575987434.0
6.0,4.0,3.0,5.0,0.0,0.0,3.0,10.0,1651068575987434.0
-9.0,-6.0,-6.0,-6.0,-9.0,-11.0,-5.0,-3.0,1651068576002417.0
2.0,0.0,-1.0,-1.0,-1.0,2.0,1.0,3.0,1651068576002417.0
6.0,1.0,-2.0,10.0,9.0,3.0,5.0,5.0,1651068576004411.0
1.0,-3.0,-6.0,-18.0,-8.0,-6.0,0.0,4.0,1651068576004411.0
0.0,1.0,8.0,9.0,-4.0,5.0,3.0,-6.0,1651068576025502.0
-1.0,-2.0,-6.0,-16.0,5.0,-7.0,-11.0,-2.0,1651068576025502.0
-7.0,-8.0,-10.0,3.0,-3.0,-3.0,1.0,-11.0,1651068576026496.0
-9.0,-4.0,-4.0,0.0,-13.0,2.0,-7.0,-24.0,1651068576026496.0
6.0,2.0,4.0,1.0,-6.0,-9.0,-3.0,6.0,1651068576038530.0
0.0,0.0,11.0,18.0,29.0,22.0,8.0,2.0,1651068576038530.0
-3.0,-2.0,-10.0,-34.0,-8.0,5.0,-8.0,-6.0,1651068576047442.0
6.0,2.0,2.0,7.0,7.0,1.0,5.0,10.0,1651068576047442.0
-9.0,-3.0,-6.0,-8.0,-7.0,-5.0,-6.0,-5.0,1651068576062493.0
-2.0,2.0,6.0,0.0,-5.0,-8.0,-2.0,-3.0,1651068576062493.0
5.0,-1.0,0.0,11.0,14.0,8.0,12.0,23.0,1651068576064513.0
-1.0,-4.0,-5.0,-12.0,-20.0,-6.0,-1.0,-2.0,1651068576064513.0
-5.0,-2.0,0.0,3.0,1.0,0.0,-10.0,-18.0,1651068576085432.0
2.0,0.0,-1.0,6.0,0.0,-3.0,2.0,-7.0,1651068576085432.0
-7.0,-3.0,-2.0,0.0,5.0,7.0,11.0,-3.0,1651068576086429.0
13.0,6.0,5.0,3.0,2.0,2.0,-1.0,13.0,1651068576086429.0
-11.0,-4.0,-1.0,-1.0,-5.0,-11.0,-23.0,-35.0,1651068576098464.0
1.0,-3.0,-4.0,5.0,9.0,4.0,12.0,14.0,1651068576098464.0
3.0,1.0,2.0,-28.0,-12.0,-6.0,-8.0,-6.0,1651068576107391.0
-11.0,-8.0,-6.0,-12.0,-5.0,-6.0,-2.0,-10.0,1651068576107391.0
12.0,6.0,6.0,11.0,7.0,9.0,5.0,17.0,1651068576122530.0
-10.0,-3.0,-2.0,-2.0,-6.0,-7.0,-12.0,-20.0,1651068576122530.0
1.0,-3.0,-1.0,14.0,-1.0,-11.0,-8.0,-4.0,1651068576124527.0
0.0,2.0,-2.0,-4.0,11.0,12.0,10.0,2.0,1651068576124527.0
-5.0,-2.0,2.0,5.0,-10.0,1.0,2.0,4.0,1651068576145526.0
-2.0,-2.0,-6.0,-11.0,-1.0,4.0,1.0,2.0,1651068576145526.0
9.0,7.0,8.0,13.0,2.0,-6.0,-2.0,13.0,1651068576146488.0
-8.0,-5.0,-2.0,3.0,10.0,1.0,2.0,-5.0,1651068576146488.0
-1.0,-5.0,-6.0,-2.0,-4.0,-4.0,-6.0,-3.0,1651068576158523.0
3.0,-1.0,-7.0,-8.0,-8.0,-5.0,-1.0,10.0,1651068576158523.0
-2.0,0.0,-2.0,-1.0,-11.0,-1.0,6.0,0.0,1651068576167432.0
2.0,1.0,3.0,6.0,36.0,24.0,8.0,1.0,1651068576167432.0
2.0,3.0,7.0,8.0,3.0,1.0,1.0,5.0,1651068576182459.0
-2.0,-3.0,-3.0,-1.0,-3.0,-4.0,-5.0,-8.0,1651068576182459.0
-3.0,-3.0,-4.0,-6.0,-6.0,-2.0,0.0,-1.0,1651068576184414.0
-1.0,0.0,-1.0,-8.0,-12.0,-8.0,-6.0,-3.0,1651068576184414.0
0.0,-4.0,-5.0,7.0,0.0,-7.0,-2.0,3.0,1651068576204561.0
4.0,4.0,3.0,-2.0,-3.0,6.0,11.0,1.0,1651068576204561.0
-5.0,-1.0,2.0,8.0,-12.0,-7.0,-4.0,-1.0,1651068576206559.0
8.0,4.0,3.0,8.0,11.0,10.0,6.0,13.0,1651068576206559.0
3.0,3.0,-1.0,1.0,29.0,13.0,3.0,7.0,1651068576218638.0
-13.0,-10.0,-11.0,-23.0,-22.0,-16.0,-31.0,-29.0,1651068576218638.0
2.0,0.0,0.0,1.0,-11.0,1.0,19.0,9.0,1651068576227620.0
1.0,-2.0,1.0,-2.0,-24.0,-21.0,-5.0,5.0,1651068576227620.0
-3.0,-5.0,-2.0,-8.0,-7.0,2.0,-4.0,-11.0,1651068576242558.0
3.0,4.0,4.0,4.0,4.0,7.0,11.0,11.0,1651068576242558.0
-1.0,1.0,-1.0,-6.0,6.0,-2.0,-5.0,-2.0,1651068576244513.0
-3.0,-3.0,-4.0,-1.0,-4.0,3.0,-8.0,-13.0,1651068576244513.0
9.0,6.0,-1.0,-2.0,1.0,4.0,16.0,19.0,1651068576264500.0
-3.0,2.0,7.0,11.0,-10.0,-9.0,2.0,-2.0,1651068576264500.0
0.0,1.0,0.0,-3.0,16.0,8.0,-5.0,-5.0,1651068576272417.0
-4.0,-1.0,1.0,-7.0,-16.0,-12.0,1.0,-1.0,1651068576272417.0
-3.0,0.0,4.0,16.0,10.0,8.0,-1.0,-3.0,1651068576287454.0
8.0,5.0,11.0,48.0,20.0,17.0,12.0,21.0,1651068576287454.0
-2.0,-3.0,-6.0,-32.0,-11.0,-8.0,-11.0,2.0,1651068576289410.0
-8.0,-6.0,-7.0,-18.0,-16.0,-7.0,2.0,-1.0,1651068576289410.0
4.0,3.0,3.0,0.0,5.0,3.0,10.0,16.0,1651068576302413.0
5.0,1.0,-2.0,-14.0,-23.0,-11.0,7.0,6.0,1651068576302413.0
-9.0,-8.0,-6.0,21.0,36.0,15.0,-12.0,-19.0,1651068576304370.0
5.0,2.0,2.0,9.0,-2.0,5.0,8.0,6.0,1651068576304370.0
-5.0,-2.0,-6.0,-9.0,-5.0,-5.0,-4.0,-6.0,1651068576325409.0
3.0,1.0,-4.0,-17.0,-14.0,-6.0,-1.0,5.0,1651068576325409.0
-2.0,0.0,5.0,6.0,6.0,-8.0,-6.0,-8.0,1651068576326293.0
1.0,1.0,2.0,3.0,3.0,2.0,0.0,0.0,1651068576326293.0
15.0,7.0,4.0,2.0,5.0,5.0,1.0,11.0,1651068576347353.0
-14.0,-8.0,-8.0,-13.0,-2.0,-1.0,-4.0,-21.0,1651068576347353.0
4.0,3.0,3.0,10.0,6.0,7.0,1.0,4.0,1651068576349374.0
-9.0,-4.0,-2.0,10.0,-3.0,-6.0,7.0,-4.0,1651068576349374.0
-1.0,2.0,2.0,-9.0,-7.0,-3.0,-6.0,-8.0,1651068576361565.0
-1.0,-5.0,-9.0,-7.0,11.0,-4.0,-9.0,-3.0,1651068576361565.0
-2.0,-1.0,-2.0,-5.0,-36.0,-13.0,1.0,-5.0,1651068576368475.0
4.0,1.0,1.0,3.0,26.0,4.0,-9.0,3.0,1651068576368475.0
0.0,-2.0,-7.0,-1.0,-3.0,-2.0,5.0,5.0,1651068576385526.0
-8.0,-1.0,6.0,7.0,5.0,-1.0,2.0,-12.0,1651068576385526.0
0.0,-1.0,-6.0,-8.0,-7.0,-5.0,6.0,4.0,1651068576386480.0
1.0,0.0,-2.0,-6.0,-6.0,-10.0,-7.0,2.0,1651068576386480.0
1.0,0.0,-1.0,2.0,4.0,4.0,0.0,2.0,1651068576407491.0
-1.0,-1.0,0.0,-15.0,-7.0,-3.0,-6.0,-4.0,1651068576407491.0
1.0,-4.0,-3.0,9.0,4.0,-4.0,-11.0,-11.0,1651068576409445.0
0.0,0.0,-8.0,-17.0,-8.0,3.0,5.0,4.0,1651068576409445.0
-2.0,-4.0,0.0,8.0,3.0,-7.0,-3.0,-3.0,1651068576421445.0
12.0,7.0,7.0,11.0,21.0,24.0,8.0,15.0,1651068576421445.0
-1.0,0.0,0.0,0.0,-7.0,-4.0,-15.0,-3.0,1651068576428427.0
1.0,0.0,-1.0,-1.0,-1.0,1.0,14.0,5.0,1651068576428427.0
-2.0,-2.0,1.0,-5.0,-12.0,-7.0,-7.0,-3.0,1651068576445454.0
-1.0,-1.0,-4.0,9.0,-3.0,-7.0,-4.0,0.0,1651068576445454.0
-4.0,0.0,1.0,-12.0,1.0,1.0,-1.0,-7.0,1651068576446401.0
1.0,1.0,1.0,5.0,-2.0,5.0,1.0,0.0,1651068576446401.0
-5.0,-4.0,-4.0,-5.0,3.0,-6.0,-6.0,-5.0,1651068576467541.0
-4.0,-5.0,-3.0,5.0,5.0,0.0,-3.0,-7.0,1651068576467541.0
8.0,6.0,5.0,4.0,2.0,8.0,19.0,19.0,1651068576469482.0
-10.0,-5.0,-4.0,-2.0,-6.0,-11.0,-32.0,-27.0,1651068576469482.0
-2.0,0.0,-1.0,2.0,1.0,3.0,16.0,3.0,1651068576482501.0
-1.0,-2.0,-4.0,-7.0,0.0,2.0,4.0,3.0,1651068576482501.0
1.0,1.0,1.0,3.0,0.0,-2.0,-10.0,-6.0,1651068576488484.0
-1.0,-2.0,-4.0,-14.0,-4.0,0.0,9.0,-1.0,1651068576488484.0
9.0,5.0,-1.0,1.0,5.0,2.0,3.0,3.0,1651068576505503.0
-12.0,-7.0,-6.0,-1.0,5.0,1.0,7.0,18.0,1651068576505503.0
-17.0,-11.0,0.0,5.0,1.0,2.0,3.0,-4.0,1651068576506505.0
9.0,12.0,1.0,-9.0,-10.0,0.0,3.0,6.0,1651068576506505.0
3.0,1.0,10.0,3.0,-7.0,0.0,-3.0,-4.0,1651068576527610.0
15.0,11.0,4.0,15.0,16.0,3.0,-5.0,0.0,1651068576527610.0
-20.0,-16.0,-8.0,-28.0,-17.0,-4.0,4.0,3.0,1651068576529566.0
1.0,3.0,11.0,42.0,29.0,9.0,-2.0,3.0,1651068576529566.0
-12.0,-6.0,-16.0,-32.0,-22.0,-5.0,3.0,0.0,1651068576541541.0
3.0,2.0,2.0,-4.0,-13.0,-10.0,-15.0,-9.0,1651068576541541.0
12.0,7.0,1.0,5.0,14.0,5.0,3.0,2.0,1651068576548499.0
1.0,-4.0,-5.0,-4.0,-6.0,0.0,-1.0,1.0,1651068576548499.0
-1.0,-5.0,-4.0,0.0,11.0,4.0,5.0,-2.0,1651068576564570.0
2.0,-2.0,-1.0,-5.0,0.0,0.0,4.0,2.0,1651068576564570.0
9.0,2.0,-3.0,13.0,7.0,2.0,4.0,2.0,1651068576566563.0
-9.0,-6.0,-2.0,-5.0,-3.0,-1.0,1.0,-1.0,1651068576566563.0
-4.0,1.0,1.0,3.0,-6.0,-2.0,-8.0,-8.0,1651068576595468.0
5.0,1.0,0.0,-3.0,-8.0,-3.0,4.0,5.0,1651068576595468.0
-2.0,3.0,-1.0,5.0,0.0,-2.0,-2.0,3.0,1651068576596432.0
1.0,-2.0,3.0,10.0,5.0,1.0,-6.0,-6.0,1651068576596432.0
-1.0,0.0,-5.0,-8.0,-3.0,0.0,-3.0,-3.0,1651068576601445.0
0.0,-1.0,-2.0,-11.0,-5.0,-2.0,1.0,2.0,1651068576601445.0
1.0,4.0,9.0,20.0,7.0,2.0,-3.0,-4.0,1651068576608428.0
-2.0,-2.0,-7.0,-14.0,-4.0,-3.0,1.0,1.0,1651068576608428.0
1.0,-1.0,0.0,1.0,0.0,-2.0,-1.0,0.0,1651068576625420.0
-4.0,-1.0,-1.0,-2.0,-2.0,-1.0,1.0,1.0,1651068576625420.0
4.0,1.0,1.0,0.0,-3.0,-1.0,-2.0,-1.0,1651068576626351.0
0.0,-1.0,0.0,-5.0,-2.0,-1.0,-3.0,0.0,1651068576626351.0
-4.0,0.0,3.0,18.0,5.0,1.0,1.0,1.0,1651068576647422.0
0.0,0.0,-4.0,-14.0,0.0,-1.0,-2.0,-2.0,1651068576647422.0
2.0,0.0,-1.0,-12.0,-4.0,0.0,1.0,1.0,1651068576649444.0
-1.0,0.0,-2.0,-6.0,-4.0,-1.0,2.0,1.0,1651068576649444.0
1.0,-4.0,3.0,10.0,5.0,0.0,-3.0,-3.0,1651068576662405.0
-2.0,0.0,0.0,-5.0,-1.0,-1.0,-3.0,-2.0,1651068576662405.0
0.0,1.0,-1.0,4.0,1.0,0.0,1.0,-1.0,1651068576668434.0
-8.0,0.0,0.0,-4.0,-2.0,0.0,0.0,-1.0,1651068576668434.0
15.0,2.0,-2.0,-1.0,0.0,0.0,-1.0,-1.0,1651068576685469.0
-1.0,-5.0,3.0,5.0,-1.0,-2.0,-1.0,1.0,1651068576685469.0
-18.0,-14.0,-5.0,-4.0,-2.0,0.0,3.0,-1.0,1651068576686439.0
0.0,-2.0,-2.0,3.0,-1.0,-1.0,-2.0,0.0,1651068576686439.0
-7.0,-1.0,0.0,-5.0,0.0,0.0,0.0,-2.0,1651068576707452.0
4.0,1.0,1.0,5.0,1.0,-1.0,-1.0,1.0,1651068576707452.0
7.0,3.0,0.0,-3.0,-2.0,-2.0,1.0,0.0,1651068576709378.0
-3.0,-3.0,1.0,0.0,2.0,0.0,1.0,0.0,1651068576709378.0
-2.0,-2.0,-1.0,2.0,-1.0,-2.0,-2.0,1.0,1651068576721414.0
0.0,0.0,-4.0,-6.0,-2.0,0.0,0.0,0.0,1651068576721414.0
2.0,3.0,8.0,7.0,3.0,0.0,0.0,0.0,1651068576728395.0
1.0,-1.0,-4.0,-5.0,-2.0,-1.0,-3.0,-2.0,1651068576728395.0
-1.0,0.0,2.0,4.0,2.0,2.0,1.0,-1.0,1651068576745453.0
-1.0,-1.0,-3.0,-8.0,-4.0,-1.0,0.0,-2.0,1651068576745453.0
1.0,1.0,-1.0,4.0,-1.0,0.0,-1.0,0.0,1651068576746405.0
3.0,1.0,1.0,3.0,1.0,-1.0,1.0,2.0,1651068576746405.0
-5.0,1.0,0.0,-3.0,0.0,-1.0,-2.0,1.0,1651068576767531.0
-2.0,1.0,1.0,7.0,0.0,2.0,1.0,-2.0,1651068576767531.0
3.0,0.0,-3.0,-4.0,0.0,-1.0,-1.0,1.0,1651068576769457.0
1.0,1.0,-1.0,-1.0,-2.0,1.0,2.0,0.0,1651068576769457.0
-9.0,1.0,-2.0,-5.0,-3.0,-3.0,0.0,-1.0,1651068576781438.0
4.0,-8.0,-2.0,2.0,0.0,-1.0,2.0,2.0,1651068576781438.0
2.0,4.0,2.0,0.0,-2.0,1.0,-1.0,-2.0,1651068576790486.0
0.0,-1.0,-1.0,-1.0,1.0,0.0,-3.0,0.0,1651068576790486.0
-1.0,-2.0,3.0,0.0,0.0,0.0,1.0,-1.0,1651068576805462.0
-3.0,3.0,11.0,12.0,0.0,0.0,1.0,0.0,1651068576805462.0
1.0,-2.0,-2.0,-9.0,-2.0,-2.0,-3.0,0.0,1651068576806446.0
1.0,0.0,-2.0,0.0,-5.0,-2.0,0.0,0.0,1651068576806446.0
1.0,-2.0,-8.0,-3.0,0.0,1.0,-2.0,0.0,1651068576827627.0
-3.0,4.0,12.0,2.0,0.0,1.0,-1.0,-2.0,1651068576827627.0
2.0,1.0,4.0,7.0,2.0,0.0,2.0,0.0,1651068576829567.0
-3.0,-1.0,-5.0,-3.0,1.0,2.0,-1.0,-1.0,1651068576829567.0
1.0,-1.0,-3.0,-2.0,1.0,-1.0,0.0,-1.0,1651068576841545.0
-2.0,-1.0,-10.0,-4.0,-2.0,-2.0,-2.0,-1.0,1651068576841545.0
-1.0,2.0,23.0,5.0,-2.0,-1.0,-1.0,1.0,1651068576849612.0
0.0,-2.0,-32.0,-7.0,-2.0,1.0,2.0,-2.0,1651068576849612.0
-2.0,1.0,15.0,0.0,-1.0,-1.0,2.0,-2.0,1651068576864555.0
-1.0,0.0,-4.0,-1.0,0.0,-1.0,-2.0,1.0,1651068576864555.0
-1.0,-1.0,-3.0,-3.0,-2.0,0.0,-2.0,0.0,1651068576866558.0
0.0,0.0,0.0,6.0,2.0,-2.0,-1.0,0.0,1651068576866558.0
0.0,-3.0,-6.0,-4.0,-4.0,0.0,2.0,1.0,1651068576887559.0
0.0,3.0,0.0,-3.0,-2.0,0.0,2.0,-1.0,1651068576887559.0
0.0,-1.0,-9.0,-3.0,1.0,0.0,1.0,-1.0,1651068576889526.0
0.0,-1.0,-3.0,-1.0,2.0,-2.0,-1.0,0.0,1651068576889526.0
-2.0,0.0,1.0,-2.0,-3.0,-1.0,-4.0,-1.0,1651068576901580.0
-2.0,0.0,3.0,0.0,-1.0,-1.0,0.0,1.0,1651068576901580.0
2.0,0.0,-4.0,-1.0,-4.0,1.0,2.0,-3.0,1651068576910480.0
-1.0,-2.0,6.0,4.0,1.0,1.0,-1.0,1.0,1651068576910480.0
0.0,-2.0,-4.0,-1.0,2.0,0.0,-2.0,-1.0,1651068576925465.0
0.0,0.0,-5.0,0.0,0.0,-1.0,-1.0,0.0,1651068576925465.0
-1.0,-3.0,-5.0,-3.0,-2.0,-3.0,-1.0,0.0,1651068576926432.0
0.0,1.0,9.0,0.0,-2.0,-2.0,-2.0,1.0,1651068576926432.0
-1.0,0.0,1.0,-1.0,1.0,0.0,1.0,-1.0,1651068576947545.0
-1.0,-1.0,11.0,4.0,1.0,-2.0,-1.0,0.0,1651068576947545.0
-2.0,0.0,-21.0,-4.0,0.0,1.0,-1.0,0.0,1651068576948570.0
-1.0,-1.0,7.0,-3.0,-1.0,-2.0,-1.0,-2.0,1651068576948570.0
1.0,-3.0,-4.0,0.0,0.0,-2.0,0.0,1.0,1651068576961580.0
0.0,-1.0,-4.0,-1.0,2.0,3.0,0.0,-1.0,1651068576961580.0
0.0,-1.0,5.0,3.0,0.0,0.0,-1.0,0.0,1651068576970493.0
-2.0,-1.0,2.0,1.0,-2.0,-2.0,-1.0,-1.0,1651068576970493.0
-1.0,2.0,6.0,1.0,0.0,0.0,1.0,-1.0,1651068576984638.0
2.0,0.0,-5.0,-4.0,-1.0,0.0,1.0,0.0,1651068576984638.0
0.0,-2.0,-1.0,1.0,0.0,0.0,-2.0,0.0,1651068576986566.0
0.0,1.0,2.0,0.0,1.0,-2.0,0.0,-1.0,1651068576986566.0
-1.0,0.0,2.0,0.0,0.0,1.0,-2.0,1.0,1651068577007577.0
-1.0,-1.0,-2.0,-2.0,-2.0,-2.0,-2.0,-2.0,1651068577007577.0
0.0,2.0,2.0,-1.0,1.0,1.0,0.0,0.0,1651068577009533.0
0.0,-2.0,3.0,2.0,0.0,0.0,1.0,-1.0,1651068577009533.0
0.0,0.0,1.0,9.0,2.0,1.0,2.0,1.0,1651068577021472.0
-3.0,-3.0,-6.0,-11.0,-3.0,-2.0,-1.0,-1.0,1651068577021472.0
-1.0,2.0,-2.0,-3.0,-1.0,0.0,0.0,0.0,1651068577036577.0
-1.0,2.0,3.0,2.0,1.0,-1.0,0.0,1.0,1651068577036577.0
-2.0,0.0,-5.0,-1.0,0.0,-3.0,-1.0,-1.0,1651068577045500.0
-1.0,3.0,2.0,2.0,-3.0,0.0,0.0,1.0,1651068577045500.0
-2.0,-3.0,-7.0,-2.0,-2.0,-2.0,0.0,-1.0,1651068577046500.0
-2.0,1.0,16.0,-2.0,0.0,1.0,1.0,0.0,1651068577046500.0
-1.0,0.0,0.0,-5.0,-2.0,-1.0,-2.0,-1.0,1651068577067549.0
1.0,-2.0,-4.0,1.0,2.0,-2.0,0.0,0.0,1651068577067549.0
0.0,2.0,5.0,-4.0,-3.0,-3.0,-1.0,0.0,1651068577069477.0
0.0,-1.0,-4.0,3.0,-1.0,-2.0,-3.0,0.0,1651068577069477.0
-1.0,-1.0,-2.0,-3.0,1.0,-1.0,0.0,0.0,1651068577081477.0
-2.0,-3.0,-3.0,-2.0,-2.0,-1.0,0.0,-1.0,1651068577081477.0
1.0,-1.0,5.0,9.0,4.0,3.0,4.0,2.0,1651068577090421.0
-2.0,-2.0,-5.0,-11.0,-4.0,0.0,1.0,-3.0,1651068577090421.0
0.0,-1.0,-1.0,-2.0,-1.0,-2.0,-2.0,-2.0,1651068577104600.0
-2.0,-1.0,-3.0,2.0,-2.0,-1.0,-2.0,-2.0,1651068577104600.0
0.0,-2.0,0.0,-4.0,-1.0,-1.0,1.0,-2.0,1651068577106621.0
0.0,-1.0,-1.0,2.0,1.0,0.0,-1.0,-3.0,1651068577106621.0
-1.0,-2.0,-2.0,-4.0,0.0,1.0,1.0,-1.0,1651068577127703.0
1.0,1.0,0.0,2.0,-1.0,-1.0,0.0,-2.0,1651068577127703.0
-1.0,2.0,4.0,-1.0,-2.0,3.0,-1.0,0.0,1651068577128663.0
-2.0,-5.0,-8.0,-1.0,1.0,-1.0,-2.0,-1.0,1651068577128663.0
-2.0,-1.0,-8.0,-3.0,-1.0,-3.0,-1.0,-1.0,1651068577150425.0
-1.0,-2.0,1.0,2.0,2.0,1.0,1.0,1.0,1651068577150425.0
-1.0,-2.0,-1.0,-5.0,-4.0,-3.0,-1.0,-1.0,1651068577151427.0
-1.0,1.0,3.0,2.0,-1.0,1.0,0.0,-1.0,1651068577151427.0
0.0,-1.0,-1.0,-2.0,-2.0,-1.0,-1.0,-1.0,1651068577165387.0
0.0,0.0,-4.0,-2.0,-2.0,0.0,-1.0,0.0,1651068577165387.0
0.0,1.0,-1.0,-1.0,0.0,-1.0,-2.0,-1.0,1651068577166384.0
0.0,0.0,2.0,1.0,0.0,1.0,1.0,0.0,1651068577166384.0
1.0,1.0,2.0,1.0,-1.0,-1.0,0.0,1.0,1651068577187329.0
0.0,1.0,2.0,0.0,0.0,0.0,3.0,-1.0,1651068577187329.0
-2.0,-2.0,-2.0,-1.0,-2.0,-1.0,-2.0,-2.0,1651068577189346.0
0.0,0.0,-1.0,4.0,2.0,0.0,0.0,-1.0,1651068577189346.0
1.0,-1.0,1.0,-1.0,-2.0,-1.0,-1.0,-1.0,1651068577210400.0
0.0,-1.0,-1.0,-5.0,-1.0,-2.0,-2.0,1.0,1651068577210400.0
-2.0,-2.0,-1.0,-1.0,-1.0,-2.0,-2.0,-1.0,1651068577211400.0
1.0,-2.0,0.0,-1.0,0.0,-1.0,0.0,-1.0,1651068577211400.0
-1.0,1.0,2.0,2.0,-1.0,0.0,0.0,-2.0,1651068577225402.0
-1.0,0.0,1.0,-1.0,-3.0,0.0,-2.0,0.0,1651068577225402.0
-2.0,-3.0,-6.0,0.0,1.0,-1.0,-3.0,-1.0,1651068577226365.0
-1.0,-2.0,-1.0,-2.0,0.0,1.0,-2.0,0.0,1651068577226365.0
-1.0,-2.0,-1.0,-2.0,0.0,1.0,0.0,1.0,1651068577247450.0
0.0,1.0,3.0,0.0,1.0,-1.0,-1.0,-2.0,1651068577247450.0
0.0,1.0,-1.0,0.0,-2.0,-1.0,-1.0,1.0,1651068577249377.0
-1.0,1.0,0.0,-1.0,-1.0,0.0,-1.0,0.0,1651068577249377.0
1.0,0.0,0.0,-1.0,-1.0,-2.0,-2.0,0.0,1651068577270382.0
-2.0,-4.0,-2.0,-1.0,0.0,-3.0,-1.0,0.0,1651068577270382.0
-2.0,0.0,-1.0,-2.0,2.0,0.0,0.0,-1.0,1651068577271370.0
-1.0,0.0,0.0,0.0,0.0,0.0,2.0,-1.0,1651068577271370.0
0.0,-1.0,1.0,3.0,-2.0,-4.0,0.0,0.0,1651068577285402.0
0.0,0.0,-4.0,-10.0,-5.0,-4.0,-1.0,-1.0,1651068577285402.0
-1.0,-2.0,1.0,0.0,-1.0,-2.0,-1.0,1.0,1651068577286369.0
-1.0,-1.0,-1.0,0.0,0.0,-1.0,0.0,0.0,1651068577286369.0
0.0,-1.0,-3.0,0.0,-1.0,0.0,-3.0,0.0,1651068577307739.0
2.0,3.0,6.0,6.0,-2.0,0.0,-1.0,-1.0,1651068577307739.0
-1.0,-2.0,-8.0,1.0,1.0,2.0,2.0,-1.0,1651068577308669.0
-1.0,3.0,7.0,4.0,2.0,0.0,-2.0,0.0,1651068577308669.0
-3.0,1.0,-1.0,2.0,1.0,1.0,0.0,0.0,1651068577329700.0
-1.0,-1.0,-4.0,-5.0,-2.0,-1.0,1.0,0.0,1651068577329700.0
1.0,1.0,4.0,-1.0,-3.0,0.0,0.0,-1.0,1651068577331627.0
0.0,0.0,-2.0,-2.0,-2.0,-1.0,0.0,0.0,1651068577331627.0
1.0,-1.0,-2.0,1.0,0.0,1.0,0.0,0.0,1651068577345401.0
-2.0,-1.0,0.0,3.0,1.0,0.0,0.0,-2.0,1651068577345401.0
0.0,-2.0,-2.0,-2.0,-1.0,-4.0,0.0,-2.0,1651068577346375.0
-1.0,1.0,3.0,1.0,-1.0,-1.0,-2.0,-1.0,1651068577346375.0
-2.0,-5.0,-8.0,-2.0,0.0,0.0,-1.0,-1.0,1651068577367493.0
0.0,-1.0,-1.0,1.0,3.0,3.0,0.0,0.0,1651068577367493.0
0.0,-1.0,2.0,0.0,-3.0,0.0,0.0,1.0,1651068577369447.0
0.0,-2.0,0.0,0.0,-1.0,0.0,0.0,0.0,1651068577369447.0
1.0,1.0,3.0,0.0,-2.0,-1.0,0.0,-1.0,1651068577389868.0
-2.0,0.0,-3.0,-7.0,-3.0,-1.0,-1.0,-1.0,1651068577389868.0
0.0,0.0,0.0,3.0,-1.0,-1.0,0.0,0.0,1651068577391892.0
0.0,1.0,0.0,1.0,0.0,-1.0,-2.0,-1.0,1651068577391892.0
-2.0,-1.0,-4.0,-5.0,0.0,-1.0,-1.0,-2.0,1651068577404489.0
-1.0,-3.0,-4.0,5.0,2.0,1.0,0.0,-1.0,1651068577404489.0
1.0,1.0,3.0,-2.0,0.0,0.0,-1.0,-1.0,1651068577411438.0
0.0,-1.0,-3.0,-4.0,-3.0,-2.0,0.0,-1.0,1651068577411438.0
-1.0,-1.0,2.0,-2.0,0.0,0.0,0.0,1.0,1651068577428429.0
0.0,2.0,2.0,1.0,0.0,0.0,-1.0,1.0,1651068577428429.0
1.0,-1.0,-1.0,-2.0,-1.0,-3.0,-1.0,-1.0,1651068577429349.0
-1.0,-2.0,-1.0,0.0,-1.0,-2.0,-1.0,-1.0,1651068577429349.0
-1.0,-2.0,-2.0,0.0,0.0,-2.0,-2.0,-1.0,1651068577450429.0
-1.0,0.0,-1.0,1.0,0.0,0.0,0.0,0.0,1651068577450429.0
0.0,-1.0,-2.0,-2.0,0.0,1.0,0.0,-2.0,1651068577451346.0
0.0,-1.0,-1.0,-2.0,-2.0,-1.0,0.0,0.0,1651068577451346.0
0.0,0.0,0.0,-2.0,0.0,-1.0,-1.0,-1.0,1651068577464526.0
-1.0,-2.0,1.0,4.0,2.0,1.0,-2.0,-1.0,1651068577464526.0
-1.0,-1.0,-3.0,-3.0,-2.0,-1.0,-1.0,-1.0,1651068577471441.0
1.0,1.0,1.0,1.0,0.0,1.0,1.0,0.0,1651068577471441.0
-1.0,0.0,0.0,-1.0,-1.0,-1.0,-1.0,-2.0,1651068577487465.0
-2.0,-4.0,-2.0,2.0,2.0,-2.0,1.0,-2.0,1651068577487465.0
0.0,1.0,1.0,1.0,-1.0,-1.0,1.0,-1.0,1651068577489393.0
0.0,-1.0,-3.0,-1.0,-1.0,0.0,-2.0,-1.0,1651068577489393.0
1.0,2.0,3.0,0.0,-2.0,-1.0,0.0,0.0,1651068577510426.0
-2.0,0.0,-1.0,0.0,-1.0,-1.0,-3.0,-1.0,1651068577510426.0
-2.0,-1.0,1.0,0.0,-1.0,0.0,0.0,-1.0,1651068577511417.0
1.0,-2.0,-3.0,-4.0,-2.0,0.0,0.0,0.0,1651068577511417.0
0.0,0.0,0.0,-3.0,1.0,1.0,0.0,1.0,1651068577524344.0
2.0,0.0,0.0,1.0,-1.0,1.0,1.0,1.0,1651068577524344.0
-1.0,-2.0,-2.0,1.0,-1.0,2.0,-2.0,0.0,1651068577531395.0
-2.0,-1.0,-2.0,2.0,0.0,-3.0,-1.0,-1.0,1651068577531395.0
-3.0,-2.0,-1.0,-3.0,-3.0,0.0,0.0,1.0,1651068577547742.0
0.0,-2.0,-1.0,-2.0,-1.0,-2.0,-3.0,-2.0,1651068577547742.0
1.0,1.0,0.0,-1.0,3.0,2.0,0.0,-1.0,1651068577548673.0
-2.0,0.0,-1.0,1.0,-1.0,0.0,0.0,-2.0,1651068577548673.0
-2.0,0.0,-2.0,3.0,0.0,-1.0,0.0,1.0,1651068577569891.0
1.0,1.0,0.0,-1.0,-2.0,-3.0,1.0,0.0,1651068577569891.0
0.0,0.0,1.0,0.0,0.0,-4.0,-3.0,-2.0,1651068577571915.0
1.0,-3.0,-2.0,0.0,1.0,0.0,0.0,0.0,1651068577571915.0
2.0,1.0,2.0,0.0,0.0,2.0,3.0,-1.0,1651068577584037.0
-1.0,1.0,2.0,-2.0,-1.0,0.0,0.0,-1.0,1651068577584037.0
-2.0,-2.0,-4.0,0.0,-1.0,1.0,0.0,1.0,1651068577591017.0
-1.0,0.0,2.0,-2.0,-2.0,-3.0,-2.0,-2.0,1651068577591017.0
-1.0,-2.0,-2.0,1.0,0.0,0.0,-3.0,-1.0,1651068577607939.0
0.0,-1.0,0.0,0.0,-1.0,1.0,0.0,-2.0,1651068577607939.0
-1.0,-1.0,-3.0,2.0,-1.0,0.0,-1.0,-1.0,1651068577608917.0
-2.0,-3.0,-1.0,-1.0,-2.0,0.0,0.0,0.0,1651068577608917.0
0.0,-1.0,1.0,0.0,-2.0,-1.0,-1.0,0.0,1651068577630477.0
0.0,-2.0,0.0,0.0,-1.0,-1.0,1.0,0.0,1651068577630477.0
1.0,1.0,1.0,-2.0,0.0,1.0,0.0,-2.0,1651068577631442.0
0.0,0.0,-3.0,-2.0,1.0,-1.0,-2.0,-2.0,1651068577631442.0
0.0,-3.0,-2.0,0.0,2.0,-2.0,-1.0,0.0,1651068577644049.0
-2.0,-1.0,-4.0,-1.0,-2.0,-2.0,2.0,0.0,1651068577644049.0
0.0,0.0,1.0,-1.0,0.0,0.0,-2.0,1.0,1651068577652409.0
0.0,2.0,-4.0,-1.0,1.0,0.0,2.0,-1.0,1651068577652409.0
-1.0,-1.0,-1.0,3.0,-3.0,0.0,-2.0,-3.0,1651068577667429.0
0.0,-3.0,-1.0,-3.0,1.0,1.0,-2.0,-1.0,1651068577667429.0
-1.0,-1.0,-2.0,-3.0,-1.0,-4.0,1.0,1.0,1651068577669385.0
-1.0,-1.0,0.0,1.0,1.0,1.0,-1.0,0.0,1651068577669385.0
1.0,1.0,1.0,0.0,0.0,0.0,-1.0,0.0,1651068577690430.0
-2.0,0.0,1.0,0.0,-1.0,0.0,-1.0,-1.0,1651068577690430.0
-3.0,-1.0,0.0,-2.0,-3.0,-3.0,-1.0,-1.0,1651068577691355.0
-1.0,-3.0,-2.0,-1.0,-1.0,0.0,0.0,0.0,1651068577691355.0
-1.0,0.0,-1.0,-4.0,-2.0,-1.0,-1.0,-1.0,1651068577704388.0
0.0,0.0,-1.0,-1.0,-2.0,0.0,-1.0,-2.0,1651068577704388.0
0.0,-2.0,1.0,1.0,0.0,0.0,1.0,-1.0,1651068577712466.0
0.0,0.0,1.0,0.0,-2.0,-1.0,0.0,-1.0,1651068577712466.0
-1.0,1.0,-3.0,-1.0,-2.0,-1.0,1.0,0.0,1651068577727599.0
-1.0,0.0,0.0,0.0,1.0,-2.0,-2.0,-1.0,1651068577727599.0
1.0,-2.0,2.0,0.0,-3.0,-1.0,-1.0,-2.0,1651068577729559.0
0.0,-2.0,-3.0,-1.0,-1.0,-2.0,-3.0,1.0,1651068577729559.0
1.0,-1.0,1.0,0.0,1.0,-1.0,1.0,-2.0,1651068577750402.0
0.0,0.0,-1.0,-1.0,0.0,2.0,2.0,0.0,1651068577750402.0
-1.0,0.0,1.0,-1.0,-1.0,0.0,-1.0,-1.0,1651068577751382.0
-1.0,-1.0,1.0,0.0,-2.0,-2.0,-1.0,0.0,1651068577751382.0
0.0,0.0,0.0,-1.0,1.0,2.0,-1.0,0.0,1651068577763420.0
0.0,-2.0,-6.0,-1.0,-2.0,0.0,-1.0,-1.0,1651068577763420.0
-2.0,-2.0,-2.0,0.0,1.0,1.0,0.0,-1.0,1651068577772328.0
-1.0,2.0,4.0,5.0,1.0,1.0,1.0,0.0,1651068577772328.0
-2.0,-2.0,-3.0,-10.0,-4.0,-5.0,-2.0,-2.0,1651068577787551.0
-1.0,-3.0,-1.0,0.0,-3.0,-3.0,-2.0,-1.0,1651068577787551.0
0.0,0.0,-3.0,-5.0,-2.0,-2.0,2.0,0.0,1651068577789479.0
0.0,0.0,1.0,1.0,2.0,2.0,-1.0,0.0,1651068577789479.0
0.0,2.0,5.0,3.0,-2.0,0.0,-2.0,2.0,1651068577810508.0
0.0,2.0,2.0,-1.0,-1.0,2.0,2.0,0.0,1651068577810508.0
1.0,-1.0,0.0,-1.0,0.0,-2.0,-3.0,-2.0,1651068577811508.0
-1.0,-1.0,-4.0,-3.0,-2.0,-2.0,2.0,-2.0,1651068577811508.0
-1.0,1.0,-1.0,0.0,3.0,3.0,0.0,0.0,1651068577823604.0
0.0,0.0,0.0,0.0,0.0,-1.0,-2.0,0.0,1651068577823604.0
0.0,0.0,-2.0,3.0,3.0,2.0,0.0,1.0,1651068577832513.0
-2.0,-2.0,-2.0,-3.0,-3.0,-2.0,-1.0,-1.0,1651068577832513.0
-2.0,-2.0,-3.0,0.0,-3.0,-2.0,-1.0,-1.0,1651068577847435.0
-2.0,0.0,1.0,0.0,1.0,0.0,1.0,0.0,1651068577847435.0
0.0,1.0,1.0,-2.0,-5.0,-4.0,0.0,-1.0,1651068577849362.0
1.0,0.0,2.0,3.0,6.0,5.0,-1.0,0.0,1651068577849362.0
-4.0,-2.0,-3.0,2.0,0.0,-5.0,-3.0,-3.0,1651068577870426.0
-2.0,-2.0,0.0,1.0,2.0,2.0,3.0,1.0,1651068577870426.0
-1.0,0.0,1.0,-2.0,-3.0,-2.0,-1.0,1.0,1651068577871413.0
-2.0,1.0,-2.0,-4.0,-3.0,-1.0,-2.0,-1.0,1651068577871413.0
3.0,2.0,3.0,-2.0,-2.0,1.0,-1.0,1.0,1651068577883487.0
-1.0,-3.0,-5.0,-1.0,2.0,1.0,0.0,1.0,1651068577883487.0
-2.0,-2.0,-1.0,3.0,3.0,3.0,0.0,-1.0,1651068577892507.0
-2.0,0.0,-1.0,-2.0,-4.0,-2.0,1.0,-1.0,1651068577892507.0
-1.0,-2.0,-4.0,0.0,1.0,2.0,-1.0,-2.0,1651068577907520.0
-1.0,-1.0,-1.0,-2.0,-3.0,-3.0,-2.0,0.0,1651068577907520.0
2.0,1.0,-1.0,-2.0,0.0,2.0,-1.0,0.0,1651068577909475.0
-1.0,-1.0,-1.0,0.0,-1.0,-1.0,-2.0,-1.0,1651068577909475.0
0.0,-3.0,-1.0,-3.0,1.0,-1.0,2.0,1.0,1651068577930476.0
-1.0,0.0,1.0,-1.0,0.0,-2.0,-1.0,1.0,1651068577930476.0
-1.0,-1.0,1.0,0.0,-2.0,-4.0,-2.0,-3.0,1651068577931389.0
2.0,2.0,2.0,4.0,6.0,8.0,1.0,0.0,1651068577931389.0
0.0,-1.0,1.0,2.0,-2.0,-3.0,1.0,-1.0,1651068577943428.0
-2.0,-2.0,-4.0,-2.0,0.0,-1.0,-2.0,-3.0,1651068577943428.0
1.0,1.0,2.0,2.0,-1.0,-3.0,1.0,1.0,1651068577952449.0
-1.0,-3.0,-5.0,-14.0,-8.0,-4.0,-3.0,-1.0,1651068577952449.0
4.0,3.0,4.0,6.0,1.0,-1.0,5.0,2.0,1651068577967590.0
2.0,-1.0,4.0,3.0,1.0,5.0,0.0,0.0,1651068577967590.0
-2.0,1.0,2.0,1.0,1.0,2.0,-1.0,-1.0,1651068577969560.0
-1.0,-1.0,0.0,1.0,0.0,-2.0,-6.0,-1.0,1651068577969560.0
-2.0,-6.0,-14.0,-12.0,-2.0,-4.0,2.0,-1.0,1651068577990488.0
0.0,2.0,-1.0,0.0,-2.0,-5.0,-4.0,-1.0,1651068577990488.0
-2.0,0.0,0.0,-4.0,-2.0,1.0,2.0,0.0,1651068577991473.0
0.0,-1.0,-2.0,3.0,-2.0,-3.0,0.0,1.0,1651068577991473.0
1.0,1.0,4.0,4.0,6.0,6.0,-5.0,-4.0,1651068578003509.0
-6.0,-4.0,-4.0,-2.0,-1.0,-4.0,-15.0,-11.0,1651068578003509.0
6.0,3.0,4.0,6.0,-1.0,3.0,20.0,16.0,1651068578012426.0
-1.0,-2.0,-7.0,-3.0,-2.0,1.0,5.0,1.0,1651068578012426.0
-1.0,2.0,3.0,-3.0,-6.0,-4.0,-2.0,1.0,1651068578027445.0
-1.0,-1.0,-2.0,2.0,-1.0,-3.0,-3.0,-5.0,1651068578027445.0
-2.0,-3.0,0.0,2.0,2.0,5.0,-11.0,-9.0,1651068578029372.0
-1.0,-1.0,2.0,1.0,0.0,-3.0,-4.0,-2.0,1651068578029372.0
1.0,-1.0,-5.0,-3.0,-1.0,2.0,9.0,8.0,1651068578050398.0
0.0,2.0,4.0,2.0,0.0,0.0,3.0,2.0,1651068578050398.0
-2.0,-1.0,-1.0,-4.0,-2.0,-4.0,-3.0,-2.0,1651068578051398.0
0.0,1.0,3.0,1.0,2.0,-1.0,-5.0,-4.0,1651068578051398.0
-3.0,-3.0,2.0,-4.0,-12.0,-4.0,-6.0,-9.0,1651068578063431.0
4.0,0.0,-3.0,-3.0,3.0,-2.0,11.0,18.0,1651068578063431.0
-1.0,-2.0,-7.0,2.0,-1.0,-1.0,1.0,3.0,1651068578072349.0
0.0,-3.0,-3.0,1.0,3.0,1.0,3.0,0.0,1651068578072349.0
0.0,-1.0,-3.0,-11.0,-2.0,0.0,-8.0,-5.0,1651068578086547.0
1.0,2.0,1.0,-8.0,-5.0,4.0,14.0,9.0,1651068578086547.0
-2.0,-3.0,-4.0,-2.0,-1.0,-1.0,-6.0,-5.0,1651068578093530.0
1.0,2.0,1.0,1.0,-1.0,-6.0,-2.0,0.0,1651068578093530.0
0.0,-1.0,0.0,10.0,8.0,0.0,-7.0,-10.0,1651068578110570.0
5.0,2.0,3.0,12.0,2.0,6.0,19.0,24.0,1651068578110570.0
-3.0,-2.0,-7.0,-11.0,5.0,3.0,15.0,8.0,1651068578111563.0
-2.0,1.0,6.0,-4.0,-2.0,-1.0,-12.0,-11.0,1651068578111563.0
2.0,1.0,1.0,6.0,2.0,0.0,10.0,5.0,1651068578123532.0
-3.0,1.0,1.0,1.0,-4.0,-1.0,-11.0,-13.0,1651068578123532.0
0.0,2.0,8.0,6.0,1.0,-1.0,-3.0,-4.0,1651068578132512.0
0.0,-2.0,-3.0,3.0,2.0,2.0,0.0,3.0,1651068578132512.0
0.0,2.0,2.0,-11.0,-7.0,-6.0,-8.0,0.0,1651068578147367.0
-1.0,-4.0,-2.0,-6.0,-6.0,-6.0,-4.0,-3.0,1651068578147367.0
2.0,-2.0,-4.0,0.0,-6.0,-4.0,1.0,3.0,1651068578153418.0
0.0,1.0,3.0,3.0,4.0,5.0,8.0,2.0,1651068578153418.0
-2.0,1.0,6.0,5.0,5.0,0.0,-8.0,-1.0,1651068578170463.0
-1.0,0.0,1.0,5.0,3.0,2.0,0.0,-2.0,1651068578170463.0
-2.0,-2.0,-2.0,-13.0,-7.0,-8.0,-17.0,-9.0,1651068578171430.0
-3.0,-3.0,-5.0,0.0,-8.0,-8.0,-5.0,-2.0,1651068578171430.0
-1.0,-5.0,-13.0,-12.0,-4.0,1.0,6.0,7.0,1651068578192440.0
-7.0,-3.0,-5.0,-9.0,-8.0,-10.0,-23.0,-22.0,1651068578192440.0
6.0,6.0,8.0,4.0,1.0,3.0,8.0,0.0,1651068578194368.0
2.0,-2.0,-4.0,0.0,-1.0,1.0,21.0,15.0,1651068578194368.0
-5.0,-3.0,2.0,7.0,1.0,-4.0,-21.0,-11.0,1651068578207363.0
1.0,-2.0,-4.0,-7.0,5.0,9.0,24.0,11.0,1651068578207363.0
-7.0,-4.0,-8.0,-8.0,-4.0,-7.0,-24.0,-17.0,1651068578213384.0
3.0,-4.0,-6.0,-4.0,-1.0,4.0,15.0,16.0,1651068578213384.0
0.0,-2.0,-6.0,5.0,5.0,2.0,5.0,3.0,1651068578230422.0
-1.0,0.0,3.0,5.0,0.0,-6.0,-14.0,-9.0,1651068578230422.0
-2.0,1.0,6.0,8.0,6.0,2.0,-2.0,-1.0,1651068578231975.0
1.0,2.0,2.0,-4.0,-1.0,4.0,7.0,4.0,1651068578231975.0
0.0,-2.0,-2.0,1.0,0.0,-1.0,-3.0,2.0,1651068578260482.0
1.0,1.0,-1.0,0.0,-6.0,-5.0,1.0,-4.0,1651068578260482.0
-3.0,-2.0,-2.0,1.0,0.0,-1.0,-2.0,-6.0,1651068578261494.0
-8.0,-3.0,1.0,-3.0,-4.0,-6.0,-26.0,-17.0,1651068578261494.0
0.0,-7.0,-9.0,-4.0,3.0,-3.0,0.0,2.0,1651068578266468.0
-1.0,1.0,2.0,-9.0,-7.0,-3.0,-3.0,-5.0,1651068578266468.0
1.0,-3.0,-1.0,2.0,-1.0,0.0,4.0,-2.0,1651068578273478.0
-2.0,2.0,4.0,-6.0,-1.0,0.0,-12.0,-8.0,1651068578273478.0
2.0,3.0,4.0,16.0,7.0,8.0,25.0,8.0,1651068578289635.0
-1.0,0.0,-2.0,0.0,-3.0,-3.0,-10.0,-4.0,1651068578289635.0
0.0,-1.0,-4.0,-11.0,-9.0,-4.0,9.0,7.0,1651068578291648.0
-1.0,3.0,7.0,6.0,7.0,4.0,-13.0,-16.0,1651068578291648.0
1.0,1.0,-3.0,-15.0,-12.0,-3.0,9.0,12.0,1651068578312890.0
2.0,-3.0,-3.0,2.0,0.0,-3.0,-6.0,-4.0,1651068578312890.0
5.0,2.0,2.0,0.0,3.0,10.0,15.0,14.0,1651068578313666.0
-9.0,-6.0,-5.0,1.0,-8.0,-10.0,-11.0,-19.0,1651068578313666.0
0.0,4.0,4.0,2.0,0.0,-3.0,2.0,-6.0,1651068578326449.0
-6.0,-4.0,-5.0,4.0,5.0,6.0,12.0,2.0,1651068578326449.0
12.0,8.0,7.0,8.0,7.0,10.0,7.0,18.0,1651068578334180.0
7.0,2.0,0.0,3.0,-2.0,-1.0,2.0,7.0,1651068578334180.0
1.0,2.0,2.0,2.0,0.0,6.0,11.0,3.0,1651068578350438.0
-14.0,-10.0,-9.0,-24.0,-6.0,-9.0,-17.0,-23.0,1651068578350438.0
-1.0,-1.0,5.0,15.0,2.0,-7.0,-2.0,-2.0,1651068578351434.0
5.0,2.0,0.0,-6.0,5.0,9.0,8.0,10.0,1651068578351434.0
-3.0,-4.0,-1.0,1.0,6.0,2.0,-8.0,1.0,1651068578372759.0
17.0,10.0,13.0,22.0,3.0,0.0,12.0,22.0,1651068578372759.0
-17.0,-8.0,-9.0,-21.0,-4.0,-7.0,-11.0,-18.0,1651068578373745.0
7.0,2.0,-3.0,-18.0,-20.0,-23.0,-1.0,8.0,1651068578373745.0
-2.0,0.0,7.0,28.0,71.0,63.0,7.0,2.0,1651068578386669.0
2.0,4.0,11.0,35.0,4.0,0.0,1.0,7.0,1651068578386669.0
13.0,5.0,-12.0,-29.0,-22.0,-9.0,-8.0,3.0,1651068578393720.0
-11.0,-6.0,-4.0,-4.0,-4.0,-6.0,-9.0,-14.0,1651068578393720.0
-10.0,-5.0,-9.0,-18.0,-36.0,-18.0,-5.0,-12.0,1651068578410398.0
0.0,3.0,7.0,12.0,3.0,-3.0,-7.0,-5.0,1651068578410398.0
3.0,0.0,1.0,11.0,8.0,2.0,12.0,14.0,1651068578411400.0
0.0,-4.0,-7.0,-7.0,5.0,13.0,3.0,4.0,1651068578411400.0
-1.0,-3.0,-7.0,-19.0,-28.0,-24.0,-7.0,-11.0,1651068578432439.0
-1.0,-2.0,-6.0,-7.0,-4.0,0.0,-6.0,3.0,1651068578432439.0
-14.0,-11.0,-2.0,25.0,4.0,-5.0,-29.0,-29.0,1651068578434367.0
7.0,4.0,5.0,0.0,-5.0,9.0,37.0,29.0,1651068578434367.0
3.0,9.0,11.0,1.0,1.0,-9.0,-3.0,-12.0,1651068578447343.0
-5.0,-3.0,-6.0,-30.0,-18.0,-11.0,-4.0,-3.0,1651068578447343.0
7.0,5.0,5.0,10.0,33.0,24.0,4.0,18.0,1651068578453383.0
-8.0,-5.0,-3.0,15.0,6.0,-9.0,-17.0,-20.0,1651068578453383.0
5.0,8.0,10.0,18.0,-9.0,0.0,3.0,15.0,1651068578470421.0
-7.0,-7.0,-6.0,10.0,-12.0,-15.0,-8.0,-19.0,1651068578470421.0
7.0,-1.0,-13.0,-48.0,-12.0,-8.0,5.0,25.0,1651068578471329.0
-6.0,-5.0,4.0,19.0,16.0,12.0,-6.0,-11.0,1651068578471329.0
5.0,3.0,3.0,-14.0,-16.0,-16.0,-13.0,-2.0,1651068578492612.0
1.0,1.0,0.0,-1.0,7.0,8.0,6.0,-4.0,1651068578492612.0
-5.0,0.0,4.0,16.0,-11.0,-6.0,-13.0,-12.0,1651068578494547.0
12.0,4.0,0.0,-5.0,6.0,7.0,16.0,31.0,1651068578494547.0
-12.0,-10.0,-8.0,6.0,-2.0,-8.0,-10.0,-21.0,1651068578506614.0
0.0,-1.0,0.0,13.0,-10.0,1.0,1.0,3.0,1651068578506614.0
-3.0,-5.0,-15.0,-15.0,16.0,16.0,-5.0,-7.0,1651068578515436.0
-3.0,1.0,1.0,-2.0,0.0,-8.0,-2.0,-3.0,1651068578515436.0
2.0,-2.0,-2.0,-2.0,3.0,3.0,14.0,19.0,1651068578537444.0
7.0,7.0,3.0,-12.0,-7.0,-3.0,0.0,2.0,1651068578537444.0
-10.0,-1.0,10.0,-4.0,-4.0,-1.0,11.0,-9.0,1651068578539395.0
2.0,0.0,0.0,34.0,6.0,0.0,-20.0,-4.0,1651068578539395.0
12.0,2.0,-1.0,5.0,-3.0,4.0,24.0,30.0,1651068578552957.0
-11.0,-8.0,-11.0,-29.0,6.0,2.0,-14.0,-19.0,1651068578552957.0
0.0,2.0,10.0,19.0,-10.0,-18.0,0.0,-4.0,1651068578553957.0
9.0,2.0,-2.0,-26.0,-5.0,11.0,8.0,20.0,1651068578553957.0
-17.0,-11.0,-10.0,4.0,-6.0,-10.0,-18.0,-36.0,1651068578566515.0
3.0,4.0,6.0,5.0,0.0,-6.0,2.0,15.0,1651068578566515.0
5.0,5.0,5.0,15.0,12.0,16.0,1.0,-14.0,1651068578575424.0
-11.0,-5.0,-2.0,-17.0,-26.0,-18.0,10.0,-1.0,1651068578575424.0
1.0,2.0,1.0,8.0,31.0,14.0,6.0,8.0,1651068578590442.0
-4.0,-5.0,-4.0,-9.0,-10.0,-6.0,3.0,-3.0,1651068578590442.0
-6.0,-3.0,3.0,20.0,14.0,4.0,-1.0,-10.0,1651068578591382.0
1.0,0.0,-3.0,-4.0,-6.0,0.0,1.0,4.0,1651068578591382.0
0.0,1.0,-2.0,-14.0,-10.0,-12.0,-15.0,-10.0,1651068578612562.0
3.0,3.0,3.0,5.0,8.0,5.0,9.0,6.0,1651068578612562.0
3.0,-1.0,-1.0,-6.0,15.0,14.0,3.0,9.0,1651068578614489.0
-9.0,-5.0,-4.0,-8.0,-2.0,-1.0,-13.0,-19.0,1651068578614489.0
11.0,1.0,-1.0,14.0,0.0,-2.0,2.0,13.0,1651068578626605.0
-11.0,-6.0,-4.0,-12.0,6.0,1.0,-9.0,-18.0,1651068578626605.0
-1.0,0.0,-4.0,-1.0,-11.0,-6.0,2.0,4.0,1651068578633655.0
3.0,4.0,2.0,-12.0,7.0,1.0,7.0,10.0,1651068578633655.0
-8.0,-4.0,2.0,-15.0,-25.0,-9.0,-13.0,-15.0,1651068578650729.0
5.0,0.0,-4.0,31.0,44.0,13.0,2.0,17.0,1651068578650729.0
1.0,-1.0,-8.0,-18.0,-17.0,-12.0,-2.0,-8.0,1651068578651723.0
-4.0,-2.0,3.0,14.0,6.0,-1.0,2.0,-10.0,1651068578651723.0
4.0,7.0,8.0,-1.0,-3.0,7.0,3.0,8.0,1651068578672760.0
2.0,2.0,2.0,-10.0,-9.0,-5.0,7.0,8.0,1651068578672760.0
-4.0,-1.0,-2.0,3.0,-2.0,-4.0,-1.0,2.0,1651068578673761.0
2.0,-1.0,-4.0,2.0,8.0,-2.0,-5.0,1.0,1651068578673761.0
-4.0,-2.0,2.0,10.0,7.0,2.0,-8.0,-18.0,1651068578685728.0
9.0,4.0,-4.0,-10.0,-4.0,16.0,21.0,12.0,1651068578685728.0
-8.0,-6.0,-3.0,-5.0,-11.0,-10.0,-1.0,-3.0,1651068578695462.0
5.0,4.0,4.0,6.0,1.0,4.0,-1.0,1.0,1651068578695462.0
-8.0,-5.0,-8.0,-14.0,1.0,-8.0,-2.0,-13.0,1651068578710489.0
-8.0,-2.0,4.0,2.0,1.0,-2.0,-16.0,-16.0,1651068578710489.0
0.0,-2.0,-2.0,-8.0,-31.0,-13.0,7.0,7.0,1651068578711446.0
-4.0,-2.0,-2.0,9.0,42.0,15.0,2.0,-1.0,1651068578711446.0
4.0,1.0,0.0,4.0,3.0,9.0,7.0,8.0,1651068578732662.0
5.0,0.0,0.0,-1.0,-6.0,-1.0,-12.0,3.0,1651068578732662.0
-9.0,-3.0,0.0,4.0,-5.0,0.0,2.0,-7.0,1651068578733619.0
1.0,1.0,0.0,-9.0,-16.0,-13.0,-14.0,-6.0,1651068578733619.0
-1.0,2.0,1.0,-14.0,-2.0,4.0,15.0,17.0,1651068578746650.0
0.0,-1.0,-4.0,-6.0,-5.0,-1.0,1.0,2.0,1651068578746650.0
15.0,9.0,4.0,1.0,8.0,7.0,2.0,15.0,1651068578755565.0
-8.0,-5.0,-2.0,0.0,-7.0,-2.0,13.0,-7.0,1651068578755565.0
1.0,-2.0,-1.0,0.0,1.0,-2.0,-5.0,-2.0,1651068578769709.0
5.0,5.0,11.0,24.0,-11.0,-9.0,-3.0,0.0,1651068578769709.0
-3.0,-2.0,-7.0,-25.0,2.0,9.0,5.0,5.0,1651068578771637.0
8.0,4.0,-4.0,-6.0,-9.0,-1.0,-1.0,4.0,1651068578771637.0
-9.0,-6.0,-5.0,-7.0,-14.0,-20.0,-15.0,-16.0,1651068578792908.0
0.0,-2.0,-1.0,12.0,30.0,22.0,8.0,4.0,1651068578792908.0
1.0,0.0,1.0,2.0,-18.0,-14.0,0.0,1.0,1651068578793862.0
-1.0,-2.0,-3.0,4.0,17.0,12.0,2.0,1.0,1651068578793862.0
5.0,1.0,-2.0,-9.0,-17.0,-12.0,-1.0,12.0,1651068578805897.0
-1.0,-4.0,-5.0,-8.0,1.0,-7.0,-8.0,-6.0,1651068578805897.0
-2.0,-2.0,1.0,8.0,9.0,4.0,-2.0,-5.0,1651068578815587.0
5.0,3.0,0.0,-11.0,-17.0,-7.0,-1.0,6.0,1651068578815587.0
-9.0,-5.0,1.0,2.0,2.0,-1.0,-12.0,-10.0,1651068578830467.0
-2.0,-1.0,2.0,7.0,2.0,7.0,12.0,0.0,1651068578830467.0
-2.0,-1.0,-2.0,-6.0,-14.0,-12.0,-8.0,-11.0,1651068578831444.0
0.0,-4.0,-2.0,4.0,9.0,9.0,-7.0,-8.0,1651068578831444.0
9.0,3.0,-2.0,-1.0,3.0,7.0,20.0,20.0,1651068578852494.0
-12.0,-5.0,1.0,-2.0,-14.0,-11.0,-13.0,-23.0,1651068578852494.0
0.0,-3.0,-3.0,-2.0,6.0,0.0,1.0,0.0,1651068578854524.0
6.0,3.0,3.0,4.0,0.0,-7.0,-2.0,6.0,1651068578854524.0
-8.0,-4.0,-2.0,0.0,-4.0,3.0,-10.0,-15.0,1651068578866544.0
9.0,6.0,0.0,-21.0,-6.0,7.0,9.0,6.0,1651068578866544.0
-4.0,0.0,7.0,26.0,-2.0,-5.0,-2.0,-9.0,1651068578875462.0
-9.0,-7.0,-5.0,-1.0,4.0,-9.0,-4.0,-7.0,1651068578875462.0
6.0,4.0,6.0,-3.0,1.0,8.0,7.0,9.0,1651068578890436.0
-3.0,-5.0,-9.0,-8.0,-13.0,-10.0,-1.0,-2.0,1651068578890436.0
1.0,1.0,4.0,7.0,35.0,20.0,3.0,9.0,1651068578891436.0
0.0,-2.0,0.0,-5.0,1.0,3.0,1.0,1.0,1651068578891436.0
4.0,1.0,1.0,3.0,1.0,-3.0,-3.0,3.0,1651068578912954.0
-11.0,-6.0,-2.0,-1.0,-4.0,-2.0,-7.0,-17.0,1651068578912954.0
4.0,-1.0,-7.0,-8.0,-8.0,-12.0,-7.0,6.0,1651068578913954.0
-8.0,-2.0,4.0,10.0,-2.0,3.0,-2.0,-7.0,1651068578913954.0
3.0,2.0,-3.0,-10.0,-4.0,2.0,2.0,7.0,1651068578935064.0
7.0,3.0,2.0,3.0,10.0,10.0,15.0,15.0,1651068578935064.0
-3.0,-4.0,0.0,-3.0,-1.0,-3.0,-6.0,-12.0,1651068578937066.0
-3.0,-3.0,0.0,6.0,-16.0,-15.0,-3.0,2.0,1651068578937066.0
-5.0,-5.0,-14.0,-25.0,5.0,8.0,-9.0,-18.0,1651068578950156.0
9.0,5.0,5.0,5.0,-4.0,-3.0,9.0,26.0,1651068578950156.0
-4.0,-3.0,-3.0,11.0,1.0,0.0,4.0,-1.0,1651068578951124.0
4.0,3.0,-2.0,-4.0,-7.0,-9.0,-6.0,-4.0,1651068578951124.0
-6.0,-4.0,0.0,7.0,-2.0,-4.0,1.0,-5.0,1651068578979810.0
1.0,1.0,-3.0,-7.0,1.0,-5.0,-6.0,11.0,1651068578979810.0
0.0,-2.0,-3.0,-5.0,3.0,5.0,9.0,-1.0,1651068578981834.0
-1.0,2.0,13.0,16.0,-12.0,-2.0,-5.0,-8.0,1651068578981834.0
-5.0,-7.0,-8.0,-4.0,2.0,-5.0,-2.0,1.0,1651068578985796.0
2.0,2.0,1.0,3.0,11.0,8.0,-1.0,-3.0,1651068578985796.0
-1.0,3.0,6.0,9.0,3.0,-7.0,-10.0,-3.0,1651068578994772.0
1.0,0.0,-6.0,-14.0,-14.0,1.0,10.0,13.0,1651068578994772.0
2.0,2.0,12.0,26.0,26.0,5.0,-1.0,0.0,1651068579010491.0
-3.0,-8.0,-17.0,-20.0,-9.0,-4.0,-3.0,-1.0,1651068579010491.0
-1.0,-2.0,-3.0,-1.0,-8.0,-11.0,-23.0,-9.0,1651068579011462.0
-1.0,2.0,4.0,13.0,13.0,9.0,14.0,-4.0,1651068579011462.0
-1.0,1.0,-4.0,-18.0,-4.0,-2.0,-1.0,-7.0,1651068579031969.0
4.0,2.0,6.0,12.0,-1.0,-3.0,-3.0,0.0,1651068579031969.0
-3.0,-3.0,-4.0,-12.0,-6.0,-6.0,-11.0,-14.0,1651068579033963.0
-2.0,-3.0,-3.0,-9.0,-23.0,-26.0,-18.0,-10.0,1651068579033963.0
9.0,7.0,4.0,16.0,37.0,41.0,22.0,25.0,1651068579045990.0
-11.0,-6.0,-2.0,-2.0,-13.0,-12.0,-17.0,-27.0,1651068579045990.0
3.0,3.0,2.0,-1.0,-1.0,7.0,4.0,4.0,1651068579055533.0
6.0,3.0,1.0,-1.0,-8.0,-8.0,2.0,10.0,1651068579055533.0
-8.0,-1.0,1.0,-1.0,-7.0,-10.0,-3.0,-16.0,1651068579069596.0
4.0,3.0,3.0,4.0,-1.0,1.0,7.0,9.0,1651068579069596.0
0.0,-2.0,-3.0,-11.0,-16.0,-4.0,9.0,7.0,1651068579071567.0
0.0,-4.0,-3.0,15.0,23.0,12.0,1.0,-2.0,1651068579071567.0
2.0,5.0,8.0,2.0,0.0,-8.0,-13.0,-7.0,1651068579092578.0
-2.0,1.0,1.0,3.0,18.0,11.0,13.0,13.0,1651068579092578.0
-2.0,-1.0,-4.0,-7.0,-10.0,-3.0,2.0,-3.0,1651068579094506.0
-3.0,-2.0,-1.0,-5.0,-11.0,-6.0,0.0,1.0,1651068579094506.0
11.0,2.0,-3.0,8.0,3.0,11.0,3.0,10.0,1651068579114542.0
-16.0,-9.0,-3.0,-7.0,-6.0,-3.0,-13.0,-26.0,1651068579114542.0
12.0,9.0,8.0,9.0,37.0,26.0,21.0,35.0,1651068579116539.0
1.0,-1.0,-1.0,-4.0,-3.0,-3.0,-4.0,-6.0,1651068579116539.0
-6.0,-5.0,-2.0,3.0,-9.0,-12.0,-14.0,-13.0,1651068579130395.0
7.0,4.0,3.0,1.0,-7.0,-1.0,7.0,10.0,1651068579130395.0
4.0,0.0,1.0,3.0,-17.0,-5.0,2.0,1.0,1651068579131406.0
5.0,2.0,-7.0,-26.0,23.0,10.0,-8.0,1.0,1651068579131406.0
-5.0,0.0,2.0,-1.0,-16.0,-4.0,22.0,6.0,1651068579152450.0
4.0,2.0,4.0,23.0,29.0,15.0,-1.0,3.0,1651068579152450.0
-6.0,-5.0,-9.0,-20.0,-8.0,-7.0,-7.0,-10.0,1651068579154474.0
1.0,3.0,3.0,2.0,8.0,-1.0,9.0,7.0,1651068579154474.0
0.0,-1.0,-5.0,-3.0,-19.0,-12.0,-12.0,-4.0,1651068579174512.0
1.0,2.0,1.0,-1.0,15.0,18.0,17.0,15.0,1651068579174512.0
-5.0,-5.0,1.0,8.0,-4.0,-4.0,-9.0,-10.0,1651068579176524.0
-4.0,-3.0,0.0,-5.0,-4.0,0.0,1.0,-3.0,1651068579176524.0
2.0,2.0,-1.0,-9.0,-9.0,-8.0,-4.0,5.0,1651068579190486.0
8.0,3.0,-1.0,0.0,-2.0,-1.0,4.0,8.0,1651068579190486.0
-5.0,-2.0,-4.0,3.0,11.0,10.0,-1.0,-5.0,1651068579191459.0
-5.0,-2.0,3.0,-5.0,-4.0,-3.0,5.0,-3.0,1651068579191459.0
8.0,4.0,7.0,9.0,-6.0,-3.0,4.0,11.0,1651068579212552.0
-6.0,-5.0,-9.0,-14.0,-21.0,-19.0,-8.0,-7.0,1651068579212552.0
-7.0,-4.0,-4.0,-15.0,6.0,1.0,-4.0,-11.0,1651068579214480.0
5.0,3.0,2.0,-5.0,-9.0,-1.0,5.0,13.0,1651068579214480.0
-2.0,-1.0,2.0,12.0,7.0,-1.0,2.0,1.0,1651068579235444.0
-2.0,-4.0,-6.0,-9.0,-12.0,-6.0,2.0,0.0,1651068579235444.0
2.0,1.0,3.0,9.0,-2.0,-5.0,2.0,9.0,1651068579236421.0
2.0,2.0,0.0,-2.0,1.0,6.0,5.0,7.0,1651068579236421.0
-2.0,2.0,3.0,-3.0,-3.0,-4.0,-12.0,-9.0,1651068579250450.0
1.0,-1.0,-3.0,-9.0,-13.0,-9.0,8.0,9.0,1651068579250450.0
4.0,2.0,3.0,8.0,17.0,10.0,0.0,2.0,1651068579251381.0
-5.0,-4.0,-6.0,-2.0,-10.0,-8.0,-5.0,-12.0,1651068579251381.0
-4.0,-4.0,-2.0,14.0,4.0,-3.0,-6.0,-8.0,1651068579272954.0
3.0,2.0,2.0,-9.0,-10.0,-5.0,-8.0,-5.0,1651068579272954.0
-2.0,-1.0,-5.0,-19.0,-5.0,-2.0,-5.0,0.0,1651068579273954.0
-5.0,-6.0,-1.0,15.0,9.0,-3.0,-7.0,-5.0,1651068579273954.0
2.0,2.0,-4.0,3.0,13.0,20.0,9.0,-4.0,1651068579295484.0
-9.0,-4.0,-1.0,5.0,4.0,0.0,-3.0,-14.0,1651068579295484.0
4.0,2.0,3.0,-5.0,-24.0,-13.0,-8.0,2.0,1651068579296494.0
-3.0,0.0,1.0,10.0,22.0,11.0,-2.0,-5.0,1651068579296494.0
-1.0,0.0,2.0,-6.0,-4.0,-3.0,-2.0,3.0,1651068579309738.0
3.0,0.0,-1.0,-5.0,-9.0,-9.0,-7.0,2.0,1651068579309738.0
0.0,0.0,5.0,10.0,-3.0,-4.0,1.0,-5.0,1651068579315752.0
-8.0,-7.0,-10.0,-13.0,-9.0,0.0,-2.0,-9.0,1651068579315752.0
3.0,0.0,0.0,5.0,2.0,-1.0,18.0,16.0,1651068579332784.0
-3.0,-1.0,0.0,1.0,7.0,5.0,-13.0,-10.0,1651068579332784.0
-7.0,-2.0,1.0,-2.0,-4.0,-8.0,-10.0,-9.0,1651068579333826.0
10.0,5.0,1.0,15.0,33.0,28.0,2.0,0.0,1651068579333826.0
-3.0,-1.0,2.0,-4.0,0.0,-4.0,-4.0,-1.0,1651068579354947.0
-12.0,-9.0,-10.0,-11.0,-15.0,-10.0,-2.0,-16.0,1651068579354947.0
3.0,4.0,4.0,7.0,5.0,-1.0,2.0,-2.0,1651068579356902.0
4.0,3.0,2.0,2.0,-9.0,2.0,9.0,15.0,1651068579356902.0
-5.0,-6.0,-2.0,-3.0,3.0,0.0,-10.0,-12.0,1651068579369853.0
0.0,2.0,2.0,16.0,15.0,13.0,10.0,4.0,1651068579369853.0
5.0,0.0,-3.0,-5.0,-3.0,-3.0,1.0,13.0,1651068579375860.0
-3.0,0.0,4.0,-4.0,-16.0,-11.0,-9.0,-4.0,1651068579375860.0
0.0,-3.0,-7.0,-3.0,-8.0,-5.0,1.0,7.0,1651068579392973.0
-1.0,-2.0,3.0,0.0,0.0,-4.0,-2.0,-2.0,1651068579392973.0
-1.0,-1.0,-4.0,0.0,0.0,1.0,18.0,24.0,1651068579393978.0
-5.0,-2.0,-2.0,0.0,-13.0,-4.0,-7.0,-8.0,1651068579393978.0
10.0,6.0,6.0,-12.0,3.0,0.0,7.0,21.0,1651068579414555.0
-10.0,-5.0,-1.0,1.0,-3.0,-9.0,-11.0,-19.0,1651068579414555.0
1.0,1.0,0.0,4.0,-17.0,-5.0,0.0,-2.0,1651068579416552.0
-5.0,-1.0,0.0,1.0,24.0,6.0,-5.0,-8.0,1651068579416552.0
1.0,1.0,0.0,3.0,-2.0,5.0,5.0,3.0,1651068579429589.0
1.0,2.0,1.0,5.0,12.0,1.0,-9.0,-4.0,1651068579429589.0
1.0,1.0,0.0,-10.0,-9.0,-3.0,3.0,4.0,1651068579436498.0
-8.0,-6.0,-1.0,-3.0,-16.0,-14.0,-6.0,-7.0,1651068579436498.0
-2.0,2.0,2.0,1.0,12.0,8.0,4.0,-7.0,1651068579452527.0
5.0,-1.0,-4.0,-1.0,1.0,5.0,7.0,14.0,1651068579452527.0
-4.0,-1.0,3.0,9.0,2.0,2.0,-5.0,-13.0,1651068579454520.0
2.0,2.0,1.0,0.0,-5.0,-1.0,9.0,3.0,1651068579454520.0
-4.0,-5.0,-8.0,-17.0,-6.0,-8.0,-19.0,-13.0,1651068579474734.0
2.0,2.0,3.0,2.0,-9.0,-2.0,0.0,8.0,1651068579474734.0
1.0,-2.0,-4.0,3.0,11.0,8.0,3.0,1.0,1651068579476757.0
1.0,2.0,4.0,2.0,4.0,2.0,3.0,3.0,1651068579476757.0
-4.0,-3.0,-6.0,-5.0,-11.0,-7.0,1.0,-8.0,1651068579489774.0
4.0,3.0,1.0,-2.0,1.0,3.0,7.0,7.0,1651068579489774.0
-7.0,-4.0,-2.0,0.0,4.0,-5.0,-22.0,-13.0,1651068579495739.0
4.0,2.0,0.0,-5.0,-6.0,2.0,10.0,9.0,1651068579495739.0
-1.0,-1.0,-1.0,7.0,1.0,-6.0,-4.0,-3.0,1651068579512895.0
1.0,0.0,-1.0,-12.0,1.0,0.0,2.0,0.0,1651068579512895.0
0.0,0.0,2.0,0.0,4.0,2.0,4.0,-3.0,1651068579513646.0
0.0,-2.0,-2.0,-3.0,-6.0,-2.0,9.0,10.0,1651068579513646.0
0.0,-1.0,-2.0,1.0,2.0,5.0,3.0,5.0,1651068579535572.0
3.0,3.0,7.0,5.0,5.0,-1.0,-4.0,1.0,1651068579535572.0
3.0,1.0,-2.0,1.0,3.0,3.0,8.0,4.0,1651068579536571.0
-3.0,-3.0,-4.0,-5.0,-7.0,-7.0,-9.0,-9.0,1651068579536571.0
0.0,-3.0,0.0,0.0,-2.0,0.0,-2.0,-1.0,1651068579549805.0
1.0,-1.0,1.0,3.0,3.0,-1.0,2.0,4.0,1651068579549805.0
1.0,0.0,-1.0,1.0,3.0,3.0,0.0,2.0,1651068579555858.0
3.0,-1.0,1.0,2.0,-1.0,-1.0,3.0,3.0,1651068579555858.0
-3.0,-2.0,-3.0,-5.0,-4.0,-4.0,1.0,1.0,1651068579572567.0
-4.0,-2.0,0.0,-3.0,-6.0,-7.0,-17.0,-13.0,1651068579572567.0
-1.0,-1.0,-1.0,-1.0,0.0,3.0,10.0,4.0,1651068579574538.0
-4.0,1.0,1.0,-4.0,-2.0,-2.0,-17.0,-16.0,1651068579574538.0
1.0,0.0,-1.0,3.0,0.0,2.0,10.0,4.0,1651068579595097.0
3.0,-1.0,-5.0,-10.0,-2.0,0.0,2.0,-2.0,1651068579595097.0
-1.0,0.0,1.0,4.0,3.0,1.0,1.0,1.0,1651068579597025.0
-1.0,-2.0,-4.0,1.0,1.0,0.0,2.0,3.0,1651068579597025.0
-3.0,1.0,1.0,2.0,-4.0,-7.0,-7.0,-7.0,1651068579609075.0
-1.0,2.0,4.0,4.0,2.0,2.0,1.0,-2.0,1651068579609075.0
0.0,0.0,0.0,-1.0,3.0,2.0,3.0,0.0,1651068579617969.0
0.0,0.0,-4.0,-2.0,-2.0,0.0,1.0,0.0,1651068579617969.0
-2.0,2.0,0.0,0.0,0.0,-1.0,-8.0,-6.0,1651068579633017.0
3.0,-1.0,-2.0,4.0,1.0,6.0,16.0,12.0,1651068579633017.0
0.0,1.0,-1.0,1.0,-1.0,-2.0,-6.0,-1.0,1651068579634017.0
1.0,0.0,3.0,0.0,4.0,0.0,0.0,0.0,1651068579634017.0
-1.0,-1.0,3.0,-3.0,1.0,1.0,-1.0,0.0,1651068579655182.0
-2.0,-4.0,-4.0,1.0,0.0,-1.0,-12.0,-7.0,1651068579655182.0
-3.0,-2.0,1.0,1.0,1.0,-1.0,-6.0,-10.0,1651068579656138.0
1.0,2.0,-2.0,-7.0,-4.0,-1.0,5.0,5.0,1651068579656138.0
1.0,0.0,-2.0,0.0,-2.0,-2.0,5.0,6.0,1651068579669076.0
2.0,4.0,3.0,1.0,3.0,6.0,1.0,0.0,1651068579669076.0
-2.0,-2.0,-5.0,-4.0,2.0,-1.0,-4.0,-5.0,1651068579678054.0
-1.0,-2.0,-2.0,2.0,-3.0,-3.0,-6.0,1.0,1651068579678054.0
1.0,-2.0,0.0,-2.0,-2.0,0.0,5.0,4.0,1651068579692348.0
-2.0,3.0,6.0,12.0,-3.0,-3.0,0.0,-1.0,1651068579692348.0
-5.0,-4.0,-10.0,-17.0,-8.0,-4.0,-11.0,-6.0,1651068579694279.0
-2.0,0.0,0.0,-1.0,0.0,0.0,-4.0,-2.0,1651068579694279.0
-1.0,0.0,0.0,-1.0,0.0,1.0,2.0,0.0,1651068579714649.0
-3.0,-3.0,0.0,2.0,-2.0,-3.0,-6.0,-3.0,1651068579714649.0
3.0,2.0,1.0,1.0,1.0,1.0,1.0,3.0,1651068579716646.0
-3.0,-3.0,-2.0,1.0,-4.0,-4.0,-4.0,-6.0,1651068579716646.0
-1.0,0.0,1.0,-1.0,-1.0,-1.0,-7.0,-10.0,1651068579728725.0
-2.0,-3.0,-3.0,-3.0,-3.0,-7.0,-5.0,-3.0,1651068579728725.0
0.0,0.0,-1.0,-2.0,-1.0,1.0,5.0,2.0,1651068579737698.0
0.0,-3.0,-5.0,-9.0,1.0,2.0,2.0,0.0,1651068579737698.0
-1.0,1.0,1.0,5.0,3.0,1.0,-1.0,0.0,1651068579752541.0
2.0,1.0,0.0,-2.0,-3.0,-1.0,5.0,4.0,1651068579752541.0
-1.0,-2.0,-1.0,4.0,2.0,5.0,3.0,-1.0,1651068579754471.0
2.0,-1.0,3.0,1.0,-3.0,-3.0,-4.0,-5.0,1651068579754471.0
-1.0,-1.0,-2.0,-5.0,-2.0,1.0,12.0,7.0,1651068579775388.0
-2.0,-1.0,1.0,8.0,4.0,1.0,-1.0,-2.0,1651068579775388.0
-1.0,3.0,2.0,-1.0,0.0,-1.0,2.0,-1.0,1651068579776394.0
-1.0,0.0,2.0,1.0,2.0,3.0,0.0,1.0,1651068579776394.0
-3.0,-1.0,0.0,1.0,-3.0,-4.0,-5.0,-2.0,1651068579788420.0
1.0,-1.0,-3.0,0.0,3.0,1.0,-1.0,1.0,1651068579788420.0
0.0,-2.0,0.0,2.0,-5.0,0.0,4.0,0.0,1651068579797351.0
-2.0,-1.0,-2.0,-6.0,-4.0,-1.0,0.0,3.0,1651068579797351.0
0.0,0.0,-1.0,-2.0,-1.0,0.0,-5.0,-4.0,1651068579812898.0
-2.0,-2.0,-1.0,-2.0,-1.0,2.0,5.0,3.0,1651068579812898.0
0.0,0.0,1.0,10.0,4.0,0.0,-1.0,2.0,1651068579814396.0
-3.0,-2.0,-3.0,-3.0,-3.0,-5.0,-4.0,2.0,1651068579814396.0
-1.0,-1.0,-2.0,3.0,-2.0,-1.0,-9.0,-8.0,1651068579834533.0
1.0,1.0,2.0,-3.0,3.0,4.0,8.0,2.0,1651068579834533.0
-1.0,-4.0,-4.0,-4.0,-3.0,-1.0,3.0,3.0,1651068579841531.0
-1.0,-1.0,-3.0,-4.0,-2.0,-1.0,-5.0,-4.0,1651068579841531.0
1.0,-1.0,1.0,8.0,7.0,4.0,5.0,2.0,1651068579848582.0
1.0,-1.0,-4.0,-9.0,-8.0,-1.0,1.0,0.0,1651068579848582.0
-1.0,-1.0,2.0,-1.0,-3.0,-3.0,-5.0,-5.0,1651068579857491.0
-1.0,0.0,1.0,6.0,1.0,0.0,6.0,0.0,1651068579857491.0
0.0,-1.0,1.0,-6.0,-1.0,-1.0,-2.0,-1.0,1651068579872518.0
-2.0,-2.0,-4.0,3.0,1.0,0.0,-3.0,-1.0,1651068579872518.0
2.0,0.0,-1.0,2.0,-1.0,1.0,5.0,5.0,1651068579874474.0
0.0,-1.0,0.0,-6.0,-2.0,-2.0,1.0,0.0,1651068579874474.0
0.0,0.0,-2.0,-2.0,0.0,-1.0,0.0,1.0,1651068579894570.0
0.0,0.0,3.0,1.0,1.0,0.0,0.0,2.0,1651068579894570.0
-1.0,-2.0,-5.0,-1.0,2.0,-3.0,-2.0,1.0,1651068579896503.0
1.0,1.0,2.0,5.0,1.0,2.0,4.0,2.0,1651068579896503.0
-1.0,-1.0,-3.0,-4.0,-3.0,-2.0,-4.0,-3.0,1651068579908618.0
1.0,-1.0,-4.0,-5.0,0.0,-2.0,-4.0,-3.0,1651068579908618.0
2.0,0.0,3.0,1.0,-2.0,-1.0,8.0,6.0,1651068579924740.0
0.0,0.0,0.0,4.0,1.0,0.0,0.0,-2.0,1651068579924740.0
-1.0,-2.0,-1.0,0.0,1.0,1.0,1.0,2.0,1651068579932718.0
-2.0,0.0,-2.0,-3.0,-5.0,-2.0,-3.0,-1.0,1651068579932718.0
1.0,1.0,1.0,0.0,1.0,1.0,-2.0,-2.0,1651068579933676.0
0.0,1.0,0.0,0.0,0.0,0.0,1.0,-2.0,1651068579933676.0
0.0,-1.0,-2.0,1.0,-1.0,1.0,-2.0,2.0,1651068579955497.0
-1.0,0.0,0.0,-3.0,-2.0,-2.0,0.0,0.0,1651068579955497.0
-1.0,-1.0,0.0,-3.0,-1.0,-2.0,-1.0,-2.0,1651068579956490.0
-1.0,-2.0,-1.0,-1.0,-1.0,-2.0,-1.0,0.0,1651068579956490.0
-2.0,0.0,2.0,0.0,0.0,-3.0,-2.0,-2.0,1651068579968524.0
-1.0,0.0,-1.0,-4.0,0.0,1.0,4.0,1.0,1651068579968524.0
0.0,1.0,1.0,-1.0,-3.0,-2.0,1.0,-2.0,1651068579977435.0
-2.0,-1.0,-2.0,0.0,-1.0,0.0,-1.0,-1.0,1651068579977435.0
0.0,-2.0,-1.0,0.0,-2.0,-1.0,-1.0,0.0,1651068579992510.0
0.0,-1.0,0.0,-2.0,-2.0,-3.0,-2.0,-1.0,1651068579992510.0
-1.0,-1.0,-2.0,-2.0,0.0,-1.0,-5.0,-2.0,1651068579994533.0
-1.0,0.0,2.0,1.0,-2.0,0.0,0.0,1.0,1651068579994533.0
-2.0,0.0,-2.0,-2.0,-2.0,-2.0,-1.0,-1.0,1651068580014907.0
-1.0,-2.0,-3.0,-1.0,-1.0,0.0,-1.0,1.0,1651068580014907.0
-2.0,-1.0,-1.0,2.0,0.0,0.0,-2.0,-3.0,1651068580016862.0
1.0,0.0,0.0,-4.0,-5.0,-3.0,0.0,3.0,1651068580016862.0
-2.0,0.0,0.0,0.0,-2.0,1.0,-1.0,-2.0,1651068580028914.0
0.0,0.0,2.0,0.0,0.0,-1.0,0.0,-2.0,1651068580028914.0
0.0,-3.0,0.0,-1.0,3.0,0.0,1.0,2.0,1651068580037866.0
0.0,-1.0,-2.0,2.0,3.0,1.0,3.0,0.0,1651068580037866.0
-1.0,-1.0,-4.0,-3.0,-6.0,-3.0,-1.0,-3.0,1651068580052053.0
0.0,0.0,-1.0,-1.0,-2.0,-1.0,-1.0,0.0,1651068580052053.0
1.0,0.0,0.0,0.0,-1.0,0.0,0.0,1.0,1651068580059047.0
-3.0,0.0,-1.0,-1.0,0.0,0.0,-3.0,-3.0,1651068580059047.0
1.0,0.0,-1.0,0.0,1.0,0.0,-1.0,1.0,1651068580074640.0
0.0,0.0,-1.0,-1.0,-1.0,0.0,-1.0,0.0,1651068580074640.0
-2.0,0.0,0.0,-2.0,-4.0,-2.0,-2.0,-1.0,1651068580076664.0
2.0,-2.0,-3.0,0.0,0.0,-1.0,1.0,1.0,1651068580076664.0
0.0,-2.0,-1.0,-1.0,0.0,-2.0,1.0,2.0,1651068580097542.0
1.0,2.0,2.0,0.0,3.0,4.0,1.0,2.0,1651068580097542.0
-2.0,-1.0,1.0,-1.0,0.0,0.0,2.0,-1.0,1651068580099479.0
-1.0,0.0,-1.0,-1.0,-1.0,0.0,1.0,1.0,1651068580099479.0
-1.0,0.0,-1.0,-2.0,-1.0,-1.0,-3.0,0.0,1651068580111505.0
1.0,-1.0,-3.0,-1.0,-2.0,-2.0,-2.0,-1.0,1651068580111505.0
1.0,2.0,-1.0,2.0,1.0,1.0,0.0,2.0,1651068580118486.0
-2.0,-1.0,1.0,0.0,-1.0,2.0,-3.0,-2.0,1651068580118486.0
0.0,-2.0,-1.0,-2.0,-2.0,2.0,1.0,0.0,1651068580134618.0
-2.0,0.0,-2.0,0.0,-2.0,-1.0,-1.0,-2.0,1651068580134618.0
-1.0,-1.0,-2.0,1.0,0.0,1.0,1.0,-1.0,1651068580136615.0
0.0,-1.0,-2.0,-2.0,-2.0,-1.0,2.0,0.0,1651068580136615.0
-1.0,0.0,1.0,1.0,0.0,-1.0,-1.0,-1.0,1651068580157840.0
-1.0,-1.0,-1.0,0.0,1.0,0.0,1.0,0.0,1651068580157840.0
-1.0,0.0,0.0,-1.0,-2.0,-2.0,-2.0,-1.0,1651068580158770.0
-1.0,-2.0,0.0,0.0,0.0,-2.0,0.0,1.0,1651068580158770.0
0.0,-1.0,0.0,-1.0,-1.0,1.0,-1.0,-1.0,1651068580171917.0
-1.0,-1.0,-1.0,6.0,0.0,-1.0,-2.0,0.0,1651068580171917.0
0.0,0.0,-2.0,-5.0,-2.0,-2.0,1.0,-1.0,1651068580178898.0
0.0,2.0,0.0,-1.0,-1.0,0.0,-2.0,-3.0,1651068580178898.0
1.0,-1.0,0.0,1.0,2.0,3.0,3.0,1.0,1651068580194858.0
-2.0,-1.0,-1.0,-2.0,-2.0,0.0,0.0,-1.0,1651068580194858.0
-1.0,-1.0,-3.0,1.0,0.0,-1.0,-4.0,-1.0,1651068580196810.0
0.0,-1.0,-1.0,-2.0,-1.0,-2.0,-1.0,-1.0,1651068580196810.0
-2.0,1.0,0.0,-2.0,0.0,1.0,1.0,1.0,1651068580217794.0
0.0,0.0,-2.0,-2.0,-1.0,0.0,-1.0,1.0,1651068580217794.0
1.0,0.0,0.0,-1.0,-2.0,-1.0,0.0,-2.0,1651068580218738.0
0.0,-1.0,-2.0,-1.0,-1.0,0.0,-1.0,-1.0,1651068580218738.0
-1.0,-2.0,-3.0,0.0,0.0,0.0,-4.0,-3.0,1651068580232218.0
-1.0,1.0,1.0,-2.0,-2.0,-1.0,1.0,0.0,1651068580232218.0
-1.0,-1.0,-3.0,2.0,-1.0,0.0,0.0,1.0,1651068580238273.0
0.0,-2.0,0.0,1.0,0.0,-1.0,-1.0,-1.0,1651068580238273.0
-1.0,1.0,0.0,1.0,1.0,-1.0,-1.0,-1.0,1651068580255434.0
1.0,-1.0,-3.0,-3.0,0.0,0.0,0.0,0.0,1651068580255434.0
-1.0,-2.0,0.0,-1.0,-1.0,0.0,-3.0,-5.0,1651068580256250.0
0.0,-1.0,-1.0,-1.0,1.0,0.0,1.0,2.0,1651068580256250.0
0.0,-2.0,-4.0,-1.0,-2.0,-4.0,0.0,-2.0,1651068580277193.0
0.0,-1.0,0.0,-2.0,-1.0,-1.0,-1.0,-1.0,1651068580277193.0
-1.0,-2.0,-2.0,0.0,0.0,-1.0,0.0,-3.0,1651068580279188.0
-1.0,0.0,-2.0,-1.0,0.0,-1.0,-5.0,-1.0,1651068580279188.0
0.0,0.0,1.0,0.0,0.0,-1.0,-1.0,-2.0,1651068580291557.0
-1.0,2.0,-1.0,1.0,1.0,-1.0,-1.0,0.0,1651068580291557.0
-1.0,1.0,2.0,-1.0,-1.0,-1.0,0.0,3.0,1651068580298539.0
0.0,0.0,0.0,-1.0,0.0,1.0,-2.0,-1.0,1651068580298539.0
0.0,-2.0,-2.0,1.0,0.0,0.0,1.0,-1.0,1651068580314610.0
0.0,0.0,-1.0,-2.0,-2.0,-1.0,-1.0,0.0,1651068580314610.0
3.0,0.0,2.0,2.0,2.0,-1.0,-2.0,1.0,1651068580316538.0
-2.0,-1.0,-1.0,1.0,2.0,2.0,5.0,-3.0,1651068580316538.0
-1.0,-1.0,-3.0,-2.0,0.0,0.0,-1.0,1.0,1651068580337509.0
0.0,-1.0,3.0,0.0,0.0,-1.0,4.0,2.0,1651068580337509.0
-1.0,0.0,0.0,-1.0,0.0,1.0,0.0,-1.0,1651068580339477.0
0.0,0.0,0.0,1.0,-1.0,-5.0,0.0,-1.0,1651068580339477.0
0.0,1.0,-2.0,-3.0,-2.0,-2.0,0.0,0.0,1651068580351623.0
-1.0,-3.0,-2.0,-1.0,0.0,2.0,-2.0,-2.0,1651068580351623.0
-2.0,-1.0,-2.0,-1.0,0.0,0.0,-4.0,-1.0,1651068580358604.0
-1.0,0.0,3.0,0.0,0.0,-3.0,1.0,2.0,1651068580358604.0
-1.0,0.0,-1.0,-1.0,0.0,-1.0,0.0,-1.0,1651068580374639.0
0.0,2.0,-1.0,0.0,1.0,2.0,0.0,1.0,1651068580374639.0
-1.0,-1.0,-1.0,0.0,-2.0,-1.0,0.0,-3.0,1651068580376574.0
-1.0,-2.0,-3.0,-2.0,-2.0,1.0,-2.0,-2.0,1651068580376574.0
0.0,0.0,0.0,-1.0,-1.0,0.0,1.0,-1.0,1651068580397549.0
1.0,-1.0,-3.0,0.0,0.0,-1.0,-3.0,-3.0,1651068580397549.0
0.0,-1.0,-1.0,-2.0,-1.0,-1.0,1.0,0.0,1651068580399556.0
1.0,-2.0,-2.0,-1.0,-2.0,-1.0,0.0,1.0,1651068580399556.0
1.0,1.0,5.0,0.0,-1.0,-1.0,0.0,0.0,1651068580411571.0
-1.0,-3.0,-4.0,0.0,0.0,-2.0,-2.0,-1.0,1651068580411571.0
-1.0,-1.0,-1.0,0.0,4.0,0.0,0.0,-1.0,1651068580418553.0
1.0,1.0,0.0,1.0,-1.0,2.0,1.0,1.0,1651068580418553.0
1.0,1.0,3.0,3.0,0.0,1.0,4.0,1.0,1651068580434647.0
0.0,-1.0,1.0,-1.0,-3.0,-2.0,1.0,-2.0,1651068580434647.0
1.0,0.0,1.0,0.0,-2.0,1.0,2.0,-1.0,1651068580436645.0
-3.0,-1.0,-2.0,0.0,-2.0,-2.0,-3.0,-2.0,1651068580436645.0
-1.0,0.0,-1.0,-2.0,-1.0,0.0,-2.0,-3.0,1651068580457646.0
-2.0,-2.0,0.0,0.0,-1.0,-2.0,-1.0,-2.0,1651068580457646.0
-2.0,-1.0,-2.0,0.0,-1.0,-2.0,1.0,1.0,1651068580458603.0
1.0,0.0,-1.0,-1.0,-2.0,1.0,-2.0,-2.0,1651068580458603.0
-2.0,0.0,-1.0,-1.0,-1.0,-1.0,-3.0,-1.0,1651068580472648.0
0.0,0.0,2.0,-1.0,0.0,2.0,2.0,1.0,1651068580472648.0
1.0,0.0,-5.0,0.0,1.0,0.0,0.0,-1.0,1651068580479861.0
1.0,0.0,2.0,-2.0,-1.0,-1.0,0.0,0.0,1651068580479861.0
-1.0,-2.0,-3.0,-5.0,-4.0,-4.0,-4.0,-5.0,1651068580494478.0
0.0,-2.0,-2.0,0.0,2.0,2.0,-1.0,2.0,1651068580494478.0
0.0,-1.0,-1.0,-3.0,1.0,0.0,1.0,0.0,1651068580496481.0
-1.0,-1.0,-1.0,-1.0,-2.0,-2.0,-1.0,2.0,1651068580496481.0
-2.0,0.0,0.0,1.0,-2.0,0.0,2.0,1.0,1651068580517589.0
-1.0,0.0,0.0,-2.0,-1.0,-3.0,-2.0,-4.0,1651068580517589.0
-1.0,0.0,-1.0,0.0,-3.0,-2.0,-1.0,-1.0,1651068580519531.0
0.0,-1.0,0.0,-1.0,-1.0,-2.0,-2.0,0.0,1651068580519531.0
0.0,1.0,3.0,1.0,0.0,3.0,4.0,4.0,1651068580531551.0
-2.0,-7.0,-13.0,0.0,0.0,-1.0,1.0,-2.0,1651068580531551.0
0.0,-1.0,0.0,2.0,0.0,-1.0,-1.0,-3.0,1651068580538467.0
-1.0,0.0,1.0,1.0,2.0,1.0,0.0,1.0,1651068580538467.0
-1.0,0.0,-2.0,-1.0,-1.0,-2.0,-3.0,1.0,1651068580554577.0
1.0,3.0,3.0,-1.0,-2.0,-1.0,-2.0,0.0,1651068580554577.0
-3.0,-1.0,0.0,-1.0,-2.0,0.0,0.0,0.0,1651068580556574.0
-1.0,-2.0,-3.0,-1.0,0.0,-1.0,0.0,0.0,1651068580556574.0
-2.0,-1.0,-1.0,-1.0,2.0,-1.0,-3.0,-2.0,1651068580577543.0
0.0,1.0,1.0,-1.0,1.0,0.0,-2.0,0.0,1651068580577543.0
0.0,-1.0,-1.0,-1.0,0.0,-3.0,-6.0,-2.0,1651068580579500.0
0.0,0.0,0.0,2.0,0.0,3.0,8.0,5.0,1651068580579500.0
-2.0,-2.0,-4.0,1.0,1.0,-2.0,1.0,0.0,1651068580591549.0
1.0,-1.0,1.0,1.0,-2.0,1.0,-1.0,-1.0,1651068580591549.0
-1.0,0.0,0.0,0.0,-1.0,0.0,1.0,-1.0,1651068580600530.0
-2.0,0.0,-1.0,-2.0,-3.0,0.0,-5.0,-2.0,1651068580600530.0
2.0,-2.0,-1.0,-1.0,-2.0,1.0,2.0,0.0,1651068580614614.0
0.0,0.0,0.0,0.0,-2.0,-2.0,0.0,-1.0,1651068580614614.0
-1.0,-1.0,1.0,-2.0,-1.0,1.0,0.0,-1.0,1651068580616611.0
-1.0,-3.0,-1.0,-1.0,0.0,-2.0,-7.0,-3.0,1651068580616611.0
0.0,-1.0,0.0,1.0,1.0,3.0,4.0,0.0,1651068580637859.0
-1.0,1.0,-1.0,0.0,-1.0,-1.0,1.0,2.0,1651068580637859.0
0.0,-2.0,-1.0,-1.0,-2.0,-1.0,-2.0,-2.0,1651068580638856.0
0.0,1.0,1.0,1.0,3.0,1.0,6.0,2.0,1651068580638856.0
-1.0,-1.0,-1.0,-2.0,-1.0,-1.0,-4.0,-3.0,1651068580650924.0
0.0,-1.0,-1.0,0.0,-1.0,0.0,2.0,-1.0,1651068580650924.0
-1.0,-2.0,-2.0,1.0,-2.0,-1.0,-3.0,-2.0,1651068580660072.0
1.0,0.0,-4.0,-1.0,-1.0,-1.0,1.0,2.0,1651068580660072.0
1.0,-2.0,-3.0,-1.0,-2.0,-3.0,-4.0,-1.0,1651068580675278.0
-2.0,1.0,5.0,1.0,3.0,0.0,2.0,0.0,1651068580675278.0
0.0,0.0,0.0,-1.0,-3.0,-1.0,1.0,1.0,1651068580676215.0
0.0,0.0,3.0,0.0,-1.0,0.0,-1.0,-2.0,1651068580676215.0
-1.0,0.0,2.0,-1.0,-2.0,-1.0,-3.0,-1.0,1651068580697537.0
0.0,0.0,-3.0,-2.0,-1.0,-3.0,-1.0,-2.0,1651068580697537.0
-2.0,0.0,0.0,0.0,-1.0,-1.0,0.0,0.0,1651068580699492.0
-1.0,-1.0,-1.0,-2.0,-1.0,0.0,-1.0,-2.0,1651068580699492.0
-3.0,0.0,0.0,0.0,-1.0,-1.0,-3.0,-1.0,1651068580711553.0
0.0,1.0,0.0,-1.0,-2.0,-4.0,2.0,1.0,1651068580711553.0
2.0,-1.0,3.0,-1.0,-1.0,0.0,0.0,2.0,1651068580720404.0
0.0,-1.0,0.0,-1.0,-2.0,1.0,1.0,-2.0,1651068580720404.0
-2.0,-1.0,-2.0,0.0,0.0,0.0,1.0,-1.0,1651068580734536.0
-2.0,-1.0,-2.0,-2.0,-2.0,-1.0,-4.0,-1.0,1651068580734536.0
1.0,1.0,-1.0,-3.0,-2.0,-1.0,1.0,2.0,1651068580736533.0
-1.0,-2.0,1.0,0.0,-1.0,-2.0,-6.0,-3.0,1651068580736533.0
-2.0,-3.0,-4.0,1.0,3.0,2.0,8.0,2.0,1651068580757647.0
0.0,-2.0,-1.0,-1.0,-2.0,1.0,-1.0,1.0,1651068580757647.0
-1.0,0.0,-1.0,0.0,1.0,0.0,1.0,-2.0,1651068580758603.0
-2.0,-1.0,0.0,-2.0,-3.0,-1.0,-4.0,-5.0,1651068580758603.0
-1.0,1.0,1.0,0.0,-2.0,-4.0,-5.0,-2.0,1651068580771566.0
0.0,-1.0,-1.0,-1.0,0.0,-2.0,-2.0,-1.0,1651068580771566.0
1.0,-2.0,1.0,0.0,-1.0,2.0,1.0,0.0,1651068580779662.0
1.0,-2.0,-4.0,-1.0,-1.0,-1.0,1.0,-1.0,1651068580779662.0
-1.0,-1.0,-1.0,3.0,2.0,4.0,1.0,0.0,1651068580795442.0
-1.0,-1.0,-2.0,-1.0,0.0,-1.0,0.0,-2.0,1651068580795442.0
-1.0,-1.0,-2.0,0.0,-1.0,-2.0,-3.0,-3.0,1651068580796440.0
1.0,1.0,1.0,-1.0,-3.0,-3.0,4.0,6.0,1651068580796440.0
-1.0,1.0,0.0,0.0,-1.0,-2.0,-1.0,1.0,1651068580817702.0
0.0,1.0,1.0,0.0,-2.0,-1.0,-5.0,-1.0,1651068580817702.0
-2.0,1.0,0.0,-2.0,1.0,4.0,1.0,-4.0,1651068580818661.0
-1.0,-4.0,-4.0,-2.0,1.0,2.0,4.0,6.0,1651068580818661.0
-1.0,0.0,1.0,-4.0,-4.0,-1.0,-2.0,-2.0,1651068580831558.0
0.0,1.0,1.0,-1.0,0.0,-1.0,-1.0,0.0,1651068580831558.0
0.0,0.0,-2.0,1.0,-1.0,-3.0,0.0,-1.0,1651068580840553.0
-2.0,-1.0,0.0,0.0,2.0,-1.0,-3.0,-3.0,1651068580840553.0
0.0,1.0,0.0,-2.0,0.0,-1.0,-3.0,0.0,1651068580854971.0
-1.0,-3.0,-3.0,0.0,0.0,2.0,-1.0,0.0,1651068580854971.0
-1.0,0.0,-1.0,-1.0,-3.0,-1.0,0.0,0.0,1651068580856938.0
0.0,1.0,0.0,-1.0,0.0,2.0,-1.0,-3.0,1651068580856938.0
0.0,2.0,0.0,-1.0,0.0,-1.0,-2.0,0.0,1651068580877888.0
0.0,-1.0,0.0,0.0,1.0,1.0,1.0,-1.0,1651068580877888.0
0.0,-1.0,0.0,0.0,1.0,0.0,0.0,1.0,1651068580878880.0
-1.0,1.0,2.0,0.0,-1.0,-2.0,1.0,2.0,1651068580878880.0
0.0,-2.0,-2.0,2.0,0.0,0.0,0.0,-1.0,1651068580890881.0
0.0,0.0,-1.0,-1.0,-4.0,-3.0,-4.0,0.0,1651068580890881.0
1.0,-1.0,0.0,0.0,1.0,2.0,0.0,0.0,1651068580899838.0
-2.0,-3.0,0.0,1.0,-1.0,0.0,-1.0,-3.0,1651068580899838.0
1.0,0.0,2.0,-1.0,-2.0,-1.0,0.0,0.0,1651068580913823.0
-2.0,-2.0,-1.0,-1.0,0.0,0.0,1.0,-1.0,1651068580913823.0
-1.0,0.0,1.0,-1.0,0.0,0.0,-1.0,1.0,1651068580922762.0
0.0,1.0,0.0,-1.0,0.0,-2.0,-1.0,-1.0,1651068580922762.0
-1.0,-5.0,-7.0,-1.0,-1.0,-2.0,-5.0,1.0,1651068580937755.0
1.0,1.0,1.0,0.0,1.0,4.0,4.0,0.0,1651068580937755.0
0.0,-1.0,1.0,0.0,0.0,-2.0,-2.0,2.0,1651068580938724.0
0.0,0.0,-1.0,0.0,0.0,-1.0,-2.0,-4.0,1651068580938724.0
-1.0,0.0,2.0,-2.0,0.0,-1.0,-1.0,-2.0,1651068580950687.0
-1.0,1.0,1.0,0.0,-2.0,-2.0,-1.0,0.0,1651068580950687.0
-3.0,-3.0,-3.0,-1.0,-1.0,-1.0,0.0,-3.0,1651068580959663.0
-1.0,-1.0,0.0,-2.0,-1.0,-1.0,-2.0,2.0,1651068580959663.0
0.0,0.0,0.0,0.0,-2.0,0.0,1.0,-1.0,1651068580974651.0
0.0,0.0,-2.0,-1.0,0.0,1.0,-1.0,1.0,1651068580974651.0
-1.0,1.0,-1.0,0.0,1.0,1.0,0.0,1.0,1651068580981606.0
-1.0,-2.0,0.0,0.0,1.0,0.0,0.0,0.0,1651068580981606.0
-1.0,1.0,-1.0,-1.0,-1.0,-1.0,-1.0,-1.0,1651068580997563.0
-3.0,-1.0,-2.0,-1.0,-2.0,-2.0,0.0,-1.0,1651068580997563.0
0.0,0.0,0.0,0.0,-3.0,-1.0,-1.0,-1.0,1651068580998580.0
0.0,-1.0,-3.0,-2.0,0.0,0.0,-2.0,-1.0,1651068580998580.0
1.0,-2.0,-1.0,-2.0,-3.0,-2.0,-2.0,0.0,1651068581019532.0
0.0,1.0,1.0,2.0,2.0,-1.0,-1.0,-1.0,1651068581019532.0
-1.0,0.0,0.0,0.0,0.0,0.0,0.0,-1.0,1651068581021499.0
-1.0,-2.0,-5.0,0.0,0.0,2.0,0.0,0.0,1651068581021499.0
0.0,1.0,0.0,-2.0,0.0,-1.0,-2.0,0.0,1651068581034492.0
0.0,-2.0,-2.0,-2.0,-1.0,-4.0,-1.0,-1.0,1651068581034492.0
-1.0,-1.0,-1.0,0.0,0.0,0.0,-2.0,0.0,1651068581036458.0
0.0,0.0,-2.0,-1.0,-2.0,1.0,0.0,0.0,1651068581036458.0
-2.0,0.0,-2.0,1.0,0.0,-1.0,0.0,-3.0,1651068581057401.0
-2.0,-1.0,-2.0,-2.0,-1.0,-1.0,-2.0,0.0,1651068581057401.0
0.0,0.0,0.0,-1.0,-4.0,-4.0,2.0,2.0,1651068581059396.0
1.0,0.0,-1.0,3.0,3.0,1.0,3.0,1.0,1651068581059396.0
-1.0,-3.0,-2.0,0.0,1.0,2.0,0.0,0.0,1651068581080340.0
-2.0,-1.0,-2.0,-1.0,-3.0,-3.0,-3.0,-4.0,1651068581080340.0
-2.0,0.0,0.0,-1.0,-1.0,-2.0,0.0,0.0,1651068581081338.0
-2.0,-2.0,-1.0,-2.0,-3.0,-2.0,-2.0,-2.0,1651068581081338.0
0.0,1.0,2.0,-1.0,1.0,-2.0,-1.0,-2.0,1651068581095328.0
2.0,-3.0,0.0,0.0,6.0,5.0,2.0,1.0,1651068581095328.0
0.0,0.0,-1.0,0.0,-1.0,2.0,0.0,-2.0,1651068581096310.0
-1.0,-1.0,0.0,0.0,-3.0,-1.0,2.0,-1.0,1651068581096310.0
0.0,0.0,1.0,-1.0,0.0,1.0,-1.0,-2.0,1651068581117276.0
0.0,-1.0,1.0,-3.0,-2.0,-1.0,-1.0,-1.0,1651068581117276.0
0.0,0.0,-1.0,1.0,2.0,1.0,-2.0,0.0,1651068581119237.0
-2.0,0.0,0.0,0.0,1.0,-3.0,-5.0,-1.0,1651068581119237.0
-1.0,-1.0,1.0,-1.0,-5.0,-5.0,-1.0,1.0,1651068581140180.0
-1.0,1.0,-2.0,-1.0,-2.0,2.0,2.0,1.0,1651068581140180.0
-2.0,0.0,1.0,-1.0,2.0,-1.0,0.0,-2.0,1651068581141179.0
-1.0,0.0,-1.0,0.0,2.0,0.0,0.0,-2.0,1651068581141179.0
-2.0,-1.0,-3.0,2.0,1.0,0.0,-2.0,-2.0,1651068581154240.0
1.0,-1.0,-1.0,-2.0,-6.0,-5.0,0.0,0.0,1651068581154240.0
0.0,0.0,-2.0,-3.0,-4.0,-3.0,0.0,-1.0,1651068581161286.0
-1.0,-1.0,0.0,-4.0,0.0,-3.0,-3.0,-2.0,1651068581161286.0
-2.0,-1.0,-3.0,-1.0,1.0,5.0,4.0,1.0,1651068581177447.0
-1.0,1.0,-1.0,2.0,1.0,0.0,-2.0,-2.0,1651068581177447.0
1.0,-1.0,1.0,1.0,0.0,1.0,1.0,-1.0,1651068581179375.0
1.0,2.0,2.0,-3.0,-2.0,-1.0,2.0,0.0,1651068581179375.0
-1.0,-1.0,1.0,2.0,0.0,-1.0,-3.0,-3.0,1651068581200391.0
1.0,1.0,0.0,-2.0,2.0,0.0,2.0,4.0,1651068581200391.0
0.0,0.0,3.0,0.0,0.0,0.0,-1.0,-1.0,1651068581201689.0
-2.0,-4.0,-7.0,-1.0,-4.0,-1.0,-1.0,-2.0,1651068581201689.0
0.0,2.0,1.0,1.0,-2.0,-3.0,0.0,1.0,1651068581214806.0
2.0,2.0,0.0,-9.0,-4.0,-2.0,-1.0,4.0,1651068581214806.0
-6.0,-4.0,-7.0,-2.0,-2.0,-3.0,-7.0,-9.0,1651068581220759.0
0.0,0.0,4.0,1.0,1.0,1.0,0.0,-1.0,1651068581220759.0
0.0,-3.0,-4.0,-3.0,-3.0,1.0,-2.0,-3.0,1651068581237944.0
-2.0,1.0,2.0,5.0,-1.0,-1.0,-2.0,2.0,1651068581237944.0
4.0,-1.0,0.0,-2.0,-3.0,-3.0,1.0,2.0,1651068581238887.0
0.0,0.0,0.0,-3.0,0.0,4.0,1.0,-2.0,1651068581238887.0
2.0,3.0,5.0,4.0,4.0,1.0,3.0,2.0,1651068581260051.0
-2.0,-1.0,0.0,-3.0,-5.0,0.0,1.0,-4.0,1651068581260051.0
-1.0,1.0,0.0,2.0,1.0,5.0,2.0,0.0,1651068581261983.0
-4.0,-1.0,1.0,2.0,5.0,-1.0,-3.0,-5.0,1651068581261983.0
1.0,-1.0,0.0,-1.0,3.0,2.0,5.0,2.0,1651068581274012.0
0.0,-1.0,1.0,6.0,2.0,1.0,-2.0,-2.0,1651068581274012.0
0.0,-3.0,-4.0,-11.0,-5.0,-4.0,1.0,1.0,1651068581281093.0
0.0,-2.0,-4.0,1.0,0.0,-3.0,-4.0,0.0,1651068581281093.0
-2.0,-1.0,-1.0,-2.0,-4.0,-3.0,-6.0,0.0,1651068581297217.0
1.0,0.0,1.0,7.0,4.0,2.0,2.0,0.0,1651068581297217.0
-1.0,-2.0,-6.0,-3.0,-6.0,-3.0,-2.0,-1.0,1651068581299173.0
2.0,1.0,3.0,-5.0,-2.0,-1.0,-1.0,2.0,1651068581299173.0
-1.0,-2.0,-3.0,1.0,3.0,0.0,4.0,1.0,1651068581320089.0
-2.0,-1.0,0.0,1.0,0.0,-2.0,-1.0,-5.0,1651068581320089.0
0.0,-2.0,0.0,1.0,3.0,2.0,-2.0,0.0,1651068581321119.0
-2.0,-1.0,3.0,0.0,-2.0,-2.0,-3.0,-1.0,1651068581321119.0
1.0,-1.0,-3.0,-1.0,-4.0,-4.0,2.0,3.0,1651068581334660.0
-3.0,0.0,3.0,-1.0,3.0,1.0,-5.0,-10.0,1651068581334660.0
2.0,0.0,2.0,4.0,5.0,4.0,3.0,-1.0,1651068581340611.0
0.0,-4.0,-11.0,-3.0,-9.0,-6.0,8.0,8.0,1651068581340611.0
0.0,2.0,2.0,-1.0,-4.0,-3.0,-4.0,-3.0,1651068581357593.0
-1.0,-3.0,-4.0,0.0,2.0,-1.0,-1.0,-2.0,1651068581357593.0
1.0,1.0,1.0,0.0,3.0,1.0,1.0,4.0,1651068581359563.0
-2.0,0.0,2.0,3.0,2.0,4.0,-5.0,-8.0,1651068581359563.0
0.0,-1.0,2.0,0.0,1.0,-1.0,-5.0,-1.0,1651068581380409.0
2.0,1.0,-1.0,-3.0,3.0,3.0,16.0,10.0,1651068581380409.0
0.0,2.0,8.0,9.0,4.0,-3.0,-5.0,-3.0,1651068581381746.0
1.0,-7.0,-15.0,-10.0,-13.0,-7.0,-1.0,2.0,1651068581381746.0
-2.0,3.0,8.0,2.0,3.0,2.0,-9.0,-12.0,1651068581393916.0
-4.0,-5.0,-7.0,-6.0,-3.0,-1.0,-5.0,-2.0,1651068581393916.0
0.0,1.0,2.0,0.0,-5.0,-3.0,0.0,7.0,1651068581400843.0
-4.0,-3.0,-4.0,3.0,4.0,0.0,-6.0,-11.0,1651068581400843.0
1.0,1.0,0.0,0.0,-1.0,1.0,0.0,6.0,1651068581417852.0
-4.0,0.0,-1.0,1.0,1.0,-2.0,-3.0,-11.0,1651068581417852.0
1.0,2.0,0.0,-5.0,-8.0,-5.0,-3.0,2.0,1651068581418782.0
0.0,2.0,2.0,5.0,1.0,1.0,3.0,1.0,1651068581418782.0
-2.0,-3.0,-4.0,-3.0,3.0,3.0,-5.0,-8.0,1651068581439573.0
2.0,0.0,0.0,1.0,-2.0,0.0,3.0,5.0,1651068581439573.0
-2.0,-2.0,-5.0,1.0,1.0,-1.0,-6.0,-4.0,1651068581441540.0
2.0,5.0,9.0,4.0,2.0,2.0,4.0,0.0,1651068581441540.0
0.0,1.0,4.0,3.0,6.0,6.0,8.0,4.0,1651068581454600.0
5.0,3.0,2.0,-1.0,-5.0,-5.0,0.0,9.0,1651068581454600.0
-3.0,0.0,4.0,5.0,1.0,-3.0,-2.0,-5.0,1651068581461610.0
-13.0,-12.0,-15.0,-8.0,-5.0,-9.0,-40.0,-32.0,1651068581461610.0
2.0,1.0,-4.0,-7.0,-10.0,0.0,26.0,15.0,1651068581477609.0
2.0,2.0,3.0,1.0,1.0,5.0,6.0,8.0,1651068581477609.0
-2.0,0.0,2.0,-1.0,-8.0,0.0,11.0,5.0,1651068581479535.0
1.0,6.0,12.0,5.0,11.0,3.0,-5.0,-7.0,1651068581479535.0
-2.0,-1.0,-3.0,0.0,2.0,-5.0,-12.0,-6.0,1651068581499789.0
-3.0,-5.0,-6.0,-8.0,-15.0,-7.0,-1.0,-4.0,1651068581499789.0
-1.0,-1.0,1.0,2.0,5.0,0.0,-14.0,-16.0,1651068581501786.0
5.0,5.0,4.0,2.0,7.0,9.0,30.0,34.0,1651068581501786.0
9.0,5.0,6.0,-5.0,-9.0,0.0,2.0,13.0,1651068581513871.0
-2.0,-1.0,-2.0,2.0,8.0,3.0,2.0,-2.0,1651068581513871.0
-5.0,-4.0,-4.0,-2.0,-2.0,2.0,-1.0,-5.0,1651068581522781.0
4.0,2.0,5.0,1.0,-2.0,0.0,11.0,13.0,1651068581522781.0
-6.0,-4.0,-5.0,0.0,-1.0,1.0,-7.0,-6.0,1651068581537807.0
8.0,4.0,3.0,-1.0,1.0,2.0,1.0,8.0,1651068581537807.0
1.0,-2.0,-3.0,-1.0,-6.0,-6.0,-3.0,-6.0,1651068581538738.0
0.0,-2.0,-1.0,-5.0,0.0,-4.0,-4.0,2.0,1651068581538738.0
-5.0,-3.0,-3.0,-8.0,0.0,0.0,-4.0,-10.0,1651068581559724.0
-7.0,-6.0,-7.0,0.0,-7.0,-7.0,-14.0,-13.0,1651068581559724.0
0.0,1.0,5.0,11.0,7.0,0.0,0.0,17.0,1651068581561652.0
-6.0,-2.0,-4.0,-11.0,-11.0,1.0,4.0,-17.0,1651068581561652.0
3.0,-3.0,-3.0,0.0,-4.0,-2.0,-2.0,5.0,1651068581573562.0
12.0,6.0,1.0,-3.0,1.0,-10.0,-7.0,10.0,1651068581573562.0
-12.0,-7.0,-2.0,8.0,17.0,13.0,-3.0,-18.0,1651068581599670.0
2.0,1.0,2.0,-9.0,-3.0,-2.0,14.0,20.0,1651068581599670.0
-2.0,-2.0,-3.0,7.0,2.0,0.0,-2.0,1.0,1651068581600667.0
-6.0,-1.0,-2.0,1.0,-4.0,0.0,-3.0,-7.0,1651068581600667.0
6.0,3.0,-7.0,-9.0,-13.0,-12.0,9.0,15.0,1651068581603686.0
-5.0,-4.0,-5.0,14.0,20.0,23.0,0.0,-5.0,1651068581603686.0
4.0,5.0,5.0,-4.0,-10.0,-7.0,-3.0,0.0,1651068581620416.0
-2.0,-1.0,0.0,-5.0,-2.0,2.0,10.0,9.0,1651068581620416.0
6.0,0.0,-3.0,-9.0,-3.0,-1.0,-5.0,3.0,1651068581621701.0
-13.0,-8.0,-6.0,-1.0,-7.0,-8.0,-10.0,-24.0,1651068581621701.0
0.0,0.0,1.0,7.0,12.0,-3.0,-7.0,0.0,1651068581633884.0
-9.0,-4.0,2.0,4.0,-5.0,0.0,-4.0,-10.0,1651068581633884.0
10.0,5.0,6.0,-2.0,-10.0,-9.0,-4.0,11.0,1651068581642796.0
-11.0,-7.0,-5.0,-17.0,-5.0,-5.0,-17.0,-26.0,1651068581642796.0
-2.0,-4.0,-6.0,-1.0,-12.0,-10.0,1.0,1.0,1651068581657771.0
-8.0,-2.0,0.0,-1.0,5.0,3.0,-8.0,-19.0,1651068581657771.0
0.0,-1.0,-2.0,10.0,17.0,6.0,9.0,6.0,1651068581658707.0
13.0,10.0,10.0,-9.0,-9.0,-4.0,4.0,18.0,1651068581658707.0
-2.0,-1.0,-6.0,3.0,5.0,13.0,6.0,-2.0,1651068581679657.0
-5.0,1.0,0.0,-8.0,-9.0,-10.0,-9.0,-15.0,1651068581679657.0
9.0,3.0,0.0,6.0,6.0,4.0,14.0,13.0,1651068581681651.0
0.0,1.0,1.0,3.0,-17.0,-10.0,2.0,-2.0,1651068581681651.0
-4.0,-1.0,1.0,-6.0,-2.0,-6.0,-8.0,-8.0,1651068581693708.0
10.0,5.0,1.0,2.0,6.0,9.0,18.0,16.0,1651068581693708.0
-8.0,-3.0,-2.0,-6.0,-9.0,-4.0,-9.0,-11.0,1651068581702686.0
6.0,3.0,0.0,6.0,1.0,0.0,3.0,13.0,1651068581702686.0
0.0,2.0,0.0,-3.0,1.0,2.0,-6.0,-6.0,1651068581717660.0
5.0,4.0,4.0,7.0,7.0,6.0,17.0,20.0,1651068581717660.0
-14.0,-3.0,0.0,-9.0,-5.0,-4.0,-11.0,-22.0,1651068581718652.0
15.0,8.0,7.0,19.0,13.0,10.0,16.0,26.0,1651068581718652.0
-13.0,-14.0,-18.0,-19.0,-2.0,-9.0,-13.0,-22.0,1651068581739592.0
-6.0,-2.0,2.0,16.0,-9.0,-5.0,-10.0,-8.0,1651068581739592.0
-1.0,-1.0,-5.0,-12.0,26.0,22.0,11.0,1.0,1651068581741590.0
4.0,2.0,1.0,6.0,-3.0,-6.0,-3.0,3.0,1651068581741590.0
3.0,0.0,2.0,2.0,13.0,7.0,3.0,16.0,1651068581754040.0
-8.0,-3.0,-2.0,1.0,-8.0,4.0,12.0,-6.0,1651068581754040.0
0.0,-1.0,2.0,-1.0,-7.0,1.0,1.0,-4.0,1651068581762732.0
9.0,4.0,0.0,5.0,8.0,3.0,7.0,21.0,1651068581762732.0
-6.0,-2.0,-1.0,6.0,16.0,10.0,-12.0,-21.0,1651068581784673.0
-2.0,-4.0,-5.0,-16.0,4.0,-1.0,-10.0,-4.0,1651068581784673.0
-2.0,0.0,1.0,6.0,-18.0,-9.0,-13.0,-4.0,1651068581786671.0
-2.0,0.0,-3.0,-10.0,-7.0,0.0,3.0,-1.0,1651068581786671.0
20.0,14.0,12.0,13.0,-8.0,-4.0,11.0,19.0,1651068581799703.0
-6.0,-4.0,-1.0,0.0,11.0,3.0,-6.0,-14.0,1651068581799703.0
