EMG_s0,EMG_s1,EMG_s2,EMG_s3,EMG_s4,EMG_s5,EMG_s6,EMG_s7,timestamp
1.0,8.0,-2.0,-4.0,0.0,0.0,2.0,1.0,1651023363196613.0
-11.0,-18.0,-3.0,3.0,1.0,-2.0,-1.0,-4.0,1651023363196613.0
1.0,1.0,-10.0,-5.0,-3.0,-2.0,0.0,0.0,1651023363202600.0
-1.0,2.0,1.0,1.0,-2.0,-2.0,-1.0,-1.0,1651023363202600.0
-6.0,-12.0,3.0,4.0,-2.0,-3.0,-2.0,-3.0,1651023363205617.0
5.0,6.0,-4.0,-9.0,-3.0,0.0,-2.0,1.0,1651023363205617.0
-10.0,-13.0,-2.0,2.0,0.0,-2.0,-3.0,-5.0,1651023363205617.0
3.0,2.0,4.0,0.0,-1.0,1.0,0.0,0.0,1651023363205617.0
2.0,8.0,-16.0,-3.0,0.0,-1.0,-2.0,-2.0,1651023363209591.0
1.0,8.0,4.0,2.0,-1.0,-3.0,-2.0,-2.0,1651023363209591.0
-2.0,-19.0,-3.0,-3.0,-1.0,1.0,2.0,-1.0,1651023363223545.0
3.0,40.0,5.0,-8.0,-4.0,-2.0,-2.0,-2.0,1651023363223545.0
-7.0,-3.0,-3.0,6.0,4.0,0.0,-1.0,-2.0,1651023363234518.0
-2.0,-28.0,-7.0,2.0,-2.0,0.0,2.0,-1.0,1651023363234518.0
1.0,7.0,4.0,-4.0,-2.0,-2.0,-2.0,1.0,1651023363238505.0
-3.0,-8.0,-1.0,2.0,-1.0,-3.0,-2.0,-1.0,1651023363238505.0
0.0,0.0,-7.0,-8.0,-5.0,-2.0,-2.0,-1.0,1651023363253463.0
-1.0,5.0,4.0,0.0,4.0,-2.0,-1.0,0.0,1651023363253463.0
3.0,6.0,1.0,4.0,-1.0,2.0,0.0,2.0,1651023363268737.0
-3.0,-9.0,-4.0,-4.0,-1.0,0.0,0.0,-1.0,1651023363268737.0
-1.0,1.0,3.0,0.0,-2.0,0.0,-1.0,0.0,1651023363276737.0
3.0,9.0,4.0,0.0,-1.0,1.0,0.0,2.0,1651023363276737.0
4.0,14.0,2.0,-1.0,-1.0,-2.0,-1.0,0.0,1651023363291700.0
-1.0,-7.0,-3.0,0.0,0.0,-1.0,-2.0,-2.0,1651023363291700.0
-1.0,-8.0,0.0,2.0,0.0,0.0,0.0,0.0,1651023363331594.0
1.0,-7.0,1.0,1.0,1.0,-1.0,0.0,-1.0,1651023363331594.0
4.0,28.0,6.0,-1.0,-1.0,0.0,1.0,0.0,1651023363331594.0
-2.0,-9.0,-6.0,-4.0,1.0,0.0,-1.0,0.0,1651023363331594.0
0.0,-6.0,-3.0,-10.0,-5.0,-1.0,1.0,-1.0,1651023363332591.0
-3.0,20.0,2.0,10.0,0.0,-2.0,-3.0,-3.0,1651023363332591.0
3.0,8.0,1.0,8.0,4.0,1.0,0.0,-1.0,1651023363335609.0
-3.0,-5.0,-4.0,-5.0,-3.0,-2.0,-1.0,-3.0,1651023363335609.0
0.0,4.0,1.0,5.0,1.0,2.0,1.0,1.0,1651023363342590.0
-1.0,-6.0,-1.0,-13.0,-4.0,-1.0,-2.0,-1.0,1651023363342590.0
-4.0,4.0,-1.0,-2.0,-2.0,-2.0,1.0,1.0,1651023363351539.0
-1.0,-3.0,-11.0,-2.0,0.0,0.0,0.0,-2.0,1651023363351539.0
-1.0,-3.0,1.0,-4.0,0.0,-3.0,-1.0,-1.0,1651023363357536.0
0.0,0.0,4.0,4.0,0.0,0.0,-1.0,1.0,1651023363357536.0
-1.0,-8.0,4.0,1.0,3.0,-1.0,-2.0,0.0,1651023363373484.0
1.0,1.0,2.0,2.0,1.0,0.0,0.0,0.0,1651023363373484.0
-2.0,-2.0,-2.0,1.0,2.0,1.0,-2.0,-1.0,1651023363380525.0
1.0,-13.0,-2.0,1.0,-2.0,1.0,-1.0,-1.0,1651023363380525.0
0.0,6.0,-4.0,-2.0,-1.0,-2.0,-1.0,-1.0,1651023363395203.0
4.0,8.0,4.0,-1.0,-2.0,1.0,0.0,-1.0,1651023363395203.0
-1.0,-6.0,-4.0,-3.0,-1.0,0.0,-1.0,-2.0,1651023363403114.0
-2.0,-3.0,-3.0,-3.0,-3.0,-1.0,-1.0,-1.0,1651023363403114.0
-16.0,-49.0,-9.0,2.0,-1.0,0.0,-2.0,-3.0,1651023363418130.0
-1.0,-17.0,2.0,2.0,3.0,-2.0,3.0,3.0,1651023363418130.0
4.0,25.0,9.0,9.0,1.0,0.0,-1.0,-3.0,1651023363419096.0
-6.0,-24.0,-7.0,3.0,3.0,1.0,2.0,0.0,1651023363419096.0
-2.0,-10.0,-6.0,-13.0,-4.0,-1.0,-2.0,-2.0,1651023363441207.0
-2.0,1.0,1.0,4.0,-3.0,0.0,-1.0,-1.0,1651023363441207.0
-2.0,-16.0,-3.0,-4.0,-2.0,-1.0,0.0,0.0,1651023363442137.0
4.0,24.0,6.0,-2.0,0.0,1.0,2.0,3.0,1651023363442137.0
0.0,6.0,-1.0,-1.0,-3.0,-1.0,0.0,-2.0,1651023363456660.0
1.0,7.0,1.0,2.0,2.0,0.0,0.0,-2.0,1651023363456660.0
1.0,-1.0,0.0,-5.0,-5.0,-2.0,0.0,2.0,1651023363462713.0
0.0,-3.0,-8.0,1.0,0.0,-2.0,-1.0,-2.0,1651023363462713.0
2.0,4.0,1.0,-1.0,0.0,0.0,0.0,1.0,1651023363479091.0
3.0,19.0,1.0,-6.0,-4.0,-2.0,-2.0,1.0,1651023363479091.0
-2.0,-6.0,-2.0,3.0,2.0,0.0,0.0,0.0,1651023363479091.0
-5.0,-17.0,2.0,-3.0,1.0,1.0,1.0,-1.0,1651023363479091.0
-1.0,0.0,-4.0,1.0,-2.0,-1.0,-1.0,-2.0,1651023363500889.0
-4.0,8.0,3.0,3.0,-4.0,-2.0,-2.0,-3.0,1651023363500889.0
-2.0,-12.0,-5.0,-2.0,-1.0,-2.0,0.0,1.0,1651023363501828.0
1.0,10.0,6.0,2.0,1.0,0.0,-2.0,0.0,1651023363501828.0
7.0,-1.0,1.0,0.0,-2.0,0.0,0.0,0.0,1651023363515858.0
-4.0,-4.0,1.0,2.0,2.0,1.0,-1.0,-1.0,1651023363515858.0
-7.0,-22.0,-10.0,-5.0,-2.0,-1.0,-2.0,-4.0,1651023363522784.0
6.0,19.0,2.0,-6.0,-4.0,-3.0,-1.0,1.0,1651023363522784.0
-1.0,-8.0,-4.0,-8.0,1.0,1.0,2.0,0.0,1651023363538732.0
5.0,6.0,3.0,1.0,-1.0,0.0,0.0,1.0,1651023363538732.0
9.0,15.0,8.0,17.0,5.0,1.0,1.0,4.0,1651023363539727.0
-6.0,4.0,-9.0,-7.0,-4.0,-4.0,0.0,-1.0,1651023363539727.0
-1.0,-15.0,3.0,2.0,0.0,-3.0,-1.0,-1.0,1651023363560737.0
2.0,9.0,-2.0,0.0,-2.0,-1.0,0.0,1.0,1651023363560737.0
-6.0,-12.0,-2.0,-5.0,-4.0,-2.0,-2.0,-1.0,1651023363561668.0
2.0,2.0,4.0,7.0,2.0,1.0,-2.0,2.0,1651023363561668.0
2.0,10.0,0.0,-3.0,-2.0,0.0,1.0,2.0,1651023363575941.0
0.0,-4.0,4.0,-3.0,2.0,-2.0,0.0,1.0,1651023363575941.0
1.0,3.0,0.0,0.0,-2.0,-1.0,1.0,-1.0,1651023363582961.0
-2.0,-8.0,-2.0,1.0,-1.0,-1.0,1.0,-2.0,1651023363582961.0
-4.0,-1.0,-3.0,-6.0,-3.0,-1.0,-1.0,-1.0,1651023363598890.0
1.0,-7.0,-2.0,0.0,0.0,2.0,0.0,0.0,1651023363598890.0
1.0,21.0,-1.0,2.0,1.0,0.0,-1.0,-2.0,1651023363599888.0
-3.0,-10.0,-2.0,-2.0,1.0,-1.0,-1.0,-2.0,1651023363599888.0
4.0,16.0,3.0,6.0,-1.0,-2.0,0.0,0.0,1651023363620893.0
2.0,10.0,9.0,0.0,-1.0,1.0,2.0,0.0,1651023363620893.0
0.0,-1.0,-9.0,-4.0,-1.0,-1.0,0.0,0.0,1651023363621829.0
4.0,29.0,2.0,-7.0,-2.0,0.0,-1.0,0.0,1651023363621829.0
0.0,13.0,4.0,2.0,-2.0,-1.0,0.0,0.0,1651023363643837.0
-4.0,-5.0,6.0,1.0,2.0,0.0,-2.0,-1.0,1651023363643837.0
1.0,-2.0,-7.0,-2.0,-1.0,1.0,-1.0,0.0,1651023363644796.0
-3.0,3.0,9.0,4.0,-1.0,-1.0,0.0,1.0,1651023363644796.0
1.0,-13.0,-11.0,-1.0,4.0,1.0,1.0,1.0,1651023363658799.0
-10.0,-4.0,-3.0,-5.0,-4.0,-4.0,-3.0,-7.0,1651023363658799.0
-1.0,-3.0,5.0,-3.0,-2.0,-1.0,0.0,0.0,1651023363659755.0
-1.0,-18.0,-7.0,4.0,-3.0,-1.0,-1.0,-1.0,1651023363659755.0
-1.0,-2.0,1.0,0.0,-2.0,0.0,-1.0,-1.0,1651023363681011.0
4.0,-5.0,-9.0,-1.0,0.0,-1.0,1.0,-1.0,1651023363681011.0
-4.0,0.0,0.0,-2.0,-1.0,1.0,0.0,0.0,1651023363681945.0
1.0,-2.0,-3.0,-3.0,0.0,-1.0,0.0,-2.0,1651023363681945.0
1.0,7.0,5.0,-1.0,0.0,1.0,-1.0,2.0,1651023363703889.0
-7.0,-22.0,-18.0,-10.0,-1.0,-1.0,-1.0,-1.0,1651023363703889.0
6.0,35.0,15.0,15.0,4.0,0.0,-1.0,2.0,1651023363703889.0
0.0,-5.0,2.0,14.0,5.0,2.0,1.0,0.0,1651023363703889.0
0.0,-3.0,-2.0,4.0,2.0,1.0,1.0,-2.0,1651023363718906.0
2.0,-7.0,-1.0,-3.0,-1.0,0.0,1.0,1.0,1651023363718906.0
-3.0,-7.0,-5.0,-14.0,-5.0,-3.0,-1.0,1.0,1651023363719843.0
-2.0,10.0,1.0,0.0,-1.0,-2.0,0.0,-1.0,1651023363719843.0
-1.0,3.0,2.0,6.0,0.0,0.0,-1.0,0.0,1651023363741014.0
-3.0,3.0,-1.0,3.0,-2.0,0.0,-1.0,0.0,1651023363741014.0
-6.0,-14.0,1.0,0.0,1.0,2.0,0.0,-1.0,1651023363741946.0
0.0,9.0,-2.0,-4.0,-2.0,0.0,-3.0,-1.0,1651023363741946.0
-3.0,-8.0,-6.0,-4.0,0.0,-1.0,-1.0,0.0,1651023363764169.0
3.0,6.0,3.0,0.0,-1.0,1.0,0.0,2.0,1651023363764169.0
-12.0,-33.0,-6.0,-2.0,-3.0,-1.0,-2.0,-4.0,1651023363764169.0
8.0,16.0,2.0,1.0,3.0,0.0,2.0,0.0,1651023363764169.0
0.0,2.0,1.0,-3.0,0.0,-1.0,0.0,-1.0,1651023363779036.0
0.0,3.0,2.0,2.0,-2.0,-1.0,0.0,0.0,1651023363779036.0
1.0,3.0,-4.0,2.0,6.0,0.0,0.0,-1.0,1651023363779036.0
-5.0,-12.0,-6.0,-8.0,-5.0,-1.0,-1.0,-1.0,1651023363779036.0
1.0,9.0,11.0,13.0,6.0,2.0,1.0,1.0,1651023363800977.0
2.0,11.0,3.0,9.0,1.0,0.0,1.0,0.0,1651023363800977.0
3.0,8.0,-4.0,-3.0,-2.0,-1.0,-1.0,0.0,1651023363801918.0
-8.0,-27.0,-19.0,-8.0,-1.0,0.0,0.0,-2.0,1651023363801918.0
0.0,0.0,1.0,-9.0,-4.0,-1.0,-1.0,0.0,1651023363823916.0
-3.0,-11.0,-1.0,8.0,1.0,0.0,0.0,0.0,1651023363823916.0
1.0,18.0,10.0,1.0,-3.0,-1.0,-2.0,-3.0,1651023363824847.0
-8.0,-13.0,-5.0,5.0,1.0,0.0,-1.0,-3.0,1651023363824847.0
-5.0,-14.0,-3.0,0.0,-2.0,0.0,-1.0,-4.0,1651023363838809.0
4.0,6.0,0.0,-6.0,0.0,-1.0,1.0,2.0,1651023363838809.0
-3.0,-19.0,-2.0,2.0,0.0,-1.0,0.0,0.0,1651023363839807.0
6.0,18.0,10.0,-2.0,-1.0,0.0,0.0,3.0,1651023363839807.0
1.0,3.0,-6.0,-1.0,-2.0,-4.0,0.0,-2.0,1651023363861001.0
-6.0,-12.0,2.0,-2.0,1.0,0.0,0.0,-3.0,1651023363861001.0
7.0,6.0,2.0,2.0,-1.0,0.0,1.0,1.0,1651023363861937.0
-1.0,-9.0,2.0,5.0,3.0,2.0,1.0,0.0,1651023363861937.0
-1.0,1.0,-1.0,-9.0,-6.0,-2.0,0.0,1.0,1651023363884069.0
3.0,1.0,-1.0,-1.0,-2.0,-2.0,-1.0,0.0,1651023363884069.0
2.0,4.0,-3.0,-3.0,2.0,1.0,2.0,0.0,1651023363884864.0
-1.0,-2.0,3.0,1.0,0.0,-1.0,-1.0,-2.0,1651023363884864.0
-1.0,-3.0,-1.0,1.0,1.0,-1.0,1.0,0.0,1651023363898830.0
-1.0,-1.0,-6.0,-11.0,-6.0,0.0,-2.0,0.0,1651023363898830.0
-1.0,5.0,-1.0,1.0,2.0,-1.0,-1.0,-3.0,1651023363899827.0
1.0,-5.0,3.0,1.0,-1.0,0.0,0.0,1.0,1651023363899827.0
-3.0,-1.0,-5.0,-2.0,-2.0,0.0,-2.0,-2.0,1651023363920797.0
0.0,-2.0,0.0,-1.0,0.0,0.0,1.0,-1.0,1651023363920797.0
-4.0,-33.0,-5.0,-5.0,-3.0,-3.0,0.0,-2.0,1651023363921768.0
-1.0,0.0,-2.0,-1.0,-1.0,-1.0,1.0,-1.0,1651023363921768.0
2.0,4.0,4.0,-3.0,-2.0,-2.0,-2.0,-2.0,1651023363943946.0
-12.0,-15.0,-9.0,-2.0,-1.0,-1.0,-2.0,-4.0,1651023363943946.0
-1.0,7.0,-3.0,-11.0,-1.0,-2.0,-2.0,-2.0,1651023363944876.0
2.0,-3.0,0.0,8.0,0.0,-1.0,-1.0,-2.0,1651023363944876.0
-4.0,-20.0,-1.0,4.0,0.0,0.0,0.0,-1.0,1651023363958906.0
5.0,9.0,4.0,-3.0,0.0,-2.0,-1.0,0.0,1651023363958906.0
-3.0,8.0,-7.0,-7.0,-4.0,-3.0,-2.0,-1.0,1651023363959874.0
2.0,-10.0,-1.0,4.0,0.0,-2.0,0.0,0.0,1651023363959874.0
0.0,6.0,-1.0,0.0,0.0,0.0,0.0,1.0,1651023363981002.0
0.0,-2.0,0.0,3.0,1.0,1.0,-1.0,-2.0,1651023363981002.0
1.0,9.0,3.0,-3.0,-1.0,0.0,0.0,1.0,1651023363981937.0
-1.0,-7.0,-3.0,-8.0,-3.0,-1.0,0.0,-1.0,1651023363981937.0
1.0,5.0,6.0,3.0,0.0,-2.0,0.0,-2.0,1651023364004015.0
-2.0,-5.0,-12.0,-3.0,-1.0,0.0,0.0,0.0,1651023364004015.0
0.0,6.0,3.0,3.0,0.0,1.0,0.0,-2.0,1651023364004015.0
0.0,1.0,-1.0,-4.0,0.0,0.0,1.0,1.0,1651023364004015.0
1.0,13.0,3.0,0.0,0.0,0.0,-2.0,0.0,1651023364018976.0
3.0,-7.0,4.0,0.0,0.0,-1.0,-1.0,1.0,1651023364018976.0
-4.0,-18.0,-5.0,7.0,1.0,-2.0,2.0,-1.0,1651023364018976.0
-9.0,-11.0,-2.0,-5.0,-3.0,-2.0,-4.0,-1.0,1651023364018976.0
4.0,14.0,1.0,-5.0,-1.0,-2.0,1.0,0.0,1651023364041011.0
8.0,27.0,8.0,3.0,-2.0,0.0,0.0,1.0,1651023364041011.0
-9.0,-31.0,-5.0,-1.0,3.0,1.0,-1.0,-2.0,1651023364041941.0
-1.0,-13.0,-5.0,-9.0,-6.0,-2.0,0.0,0.0,1651023364041941.0
0.0,-1.0,9.0,23.0,11.0,2.0,0.0,0.0,1651023364063955.0
-2.0,-4.0,-6.0,1.0,-1.0,-1.0,1.0,0.0,1651023364063955.0
6.0,9.0,4.0,-3.0,-3.0,0.0,-1.0,0.0,1651023364063955.0
0.0,5.0,0.0,-9.0,-5.0,-3.0,-1.0,1.0,1651023364063955.0
-1.0,-6.0,-7.0,-7.0,-5.0,-1.0,-2.0,0.0,1651023364079045.0
-8.0,-8.0,4.0,3.0,3.0,0.0,0.0,-3.0,1651023364079045.0
3.0,14.0,8.0,3.0,0.0,-1.0,0.0,1.0,1651023364079045.0
0.0,5.0,-2.0,4.0,3.0,0.0,-1.0,0.0,1651023364079045.0
-4.0,-12.0,-15.0,-5.0,-3.0,-1.0,-1.0,-2.0,1651023364100954.0
-1.0,0.0,4.0,-1.0,1.0,0.0,0.0,-1.0,1651023364100954.0
1.0,15.0,1.0,0.0,-4.0,-2.0,-1.0,1.0,1651023364101894.0
2.0,-13.0,2.0,1.0,2.0,2.0,-1.0,-2.0,1651023364101894.0
-6.0,3.0,-1.0,-2.0,-2.0,-2.0,-1.0,-4.0,1651023364124000.0
-1.0,0.0,1.0,11.0,1.0,0.0,0.0,-2.0,1651023364124000.0
2.0,12.0,1.0,-2.0,-1.0,-1.0,0.0,0.0,1651023364124000.0
5.0,13.0,2.0,-3.0,-2.0,0.0,0.0,0.0,1651023364124000.0
1.0,-3.0,2.0,10.0,4.0,1.0,1.0,1.0,1651023364137996.0
-2.0,-6.0,-2.0,-1.0,4.0,0.0,-1.0,-2.0,1651023364137996.0
1.0,3.0,1.0,3.0,-1.0,-2.0,1.0,-1.0,1651023364146666.0
1.0,1.0,-4.0,-5.0,-3.0,0.0,0.0,1.0,1651023364146666.0
-1.0,1.0,-5.0,-12.0,-9.0,-6.0,-2.0,-2.0,1651023364161648.0
-1.0,2.0,-6.0,-7.0,0.0,4.0,1.0,2.0,1651023364161648.0
1.0,-8.0,5.0,10.0,4.0,0.0,-1.0,-1.0,1651023364161648.0
4.0,5.0,0.0,-1.0,5.0,3.0,1.0,-1.0,1651023364161648.0
-2.0,3.0,1.0,-6.0,0.0,2.0,0.0,-2.0,1651023364184009.0
0.0,-2.0,0.0,1.0,0.0,-2.0,-2.0,-3.0,1651023364184009.0
0.0,4.0,-1.0,-5.0,-5.0,0.0,1.0,-1.0,1651023364184009.0
-4.0,-2.0,-2.0,0.0,-2.0,-2.0,1.0,0.0,1651023364184009.0
3.0,-1.0,2.0,4.0,1.0,1.0,-1.0,0.0,1651023364197968.0
-4.0,-19.0,-8.0,2.0,-2.0,0.0,2.0,-2.0,1651023364197968.0
-3.0,-8.0,-11.0,-7.0,-1.0,1.0,-2.0,0.0,1651023364205951.0
-2.0,1.0,3.0,4.0,0.0,-2.0,-1.0,-2.0,1651023364205951.0
2.0,-1.0,1.0,-5.0,3.0,-1.0,1.0,2.0,1651023364221003.0
1.0,4.0,2.0,1.0,-2.0,-2.0,-1.0,1.0,1651023364221003.0
-1.0,-10.0,0.0,-4.0,2.0,0.0,2.0,0.0,1651023364221932.0
2.0,13.0,0.0,0.0,-2.0,-1.0,-1.0,1.0,1651023364221932.0
-2.0,-5.0,9.0,3.0,-1.0,-1.0,-4.0,-3.0,1651023364244099.0
1.0,3.0,-11.0,-5.0,-2.0,-2.0,-2.0,0.0,1651023364244099.0
-1.0,-4.0,-5.0,-11.0,-3.0,-3.0,0.0,-1.0,1651023364244854.0
1.0,3.0,1.0,-1.0,-4.0,1.0,-1.0,-1.0,1651023364244854.0
-1.0,0.0,2.0,5.0,11.0,-1.0,1.0,0.0,1651023364257889.0
-1.0,-2.0,0.0,-3.0,-2.0,2.0,-2.0,1.0,1651023364257889.0
4.0,5.0,10.0,8.0,3.0,-2.0,-1.0,2.0,1651023364265902.0
2.0,-1.0,-12.0,-2.0,1.0,0.0,0.0,0.0,1651023364265902.0
1.0,4.0,4.0,-2.0,-7.0,0.0,-2.0,2.0,1651023364281044.0
-7.0,-34.0,-6.0,-3.0,-1.0,-4.0,-3.0,-3.0,1651023364281044.0
-7.0,-5.0,-4.0,-3.0,-3.0,0.0,-1.0,-3.0,1651023364281970.0
2.0,3.0,7.0,3.0,-1.0,-1.0,1.0,-1.0,1651023364281970.0
1.0,0.0,-6.0,1.0,0.0,0.0,0.0,0.0,1651023364304108.0
5.0,7.0,6.0,-5.0,-1.0,-2.0,1.0,1.0,1651023364304108.0
4.0,16.0,5.0,-7.0,-6.0,0.0,0.0,0.0,1651023364304108.0
-7.0,1.0,11.0,8.0,7.0,-1.0,-3.0,-2.0,1651023364304108.0
0.0,-7.0,-24.0,2.0,1.0,0.0,1.0,0.0,1651023364327223.0
-1.0,-2.0,2.0,3.0,-2.0,0.0,-1.0,-1.0,1651023364327223.0
4.0,6.0,-2.0,-4.0,-6.0,0.0,0.0,0.0,1651023364327894.0
1.0,4.0,5.0,-5.0,-9.0,-1.0,-3.0,1.0,1651023364327894.0
-3.0,-7.0,5.0,3.0,17.0,3.0,2.0,0.0,1651023364349022.0
-1.0,26.0,-1.0,2.0,2.0,2.0,-1.0,-2.0,1651023364349022.0
-2.0,-8.0,-3.0,4.0,2.0,0.0,-1.0,-2.0,1651023364349951.0
2.0,2.0,-1.0,-1.0,-4.0,-3.0,0.0,1.0,1651023364349951.0
1.0,0.0,-1.0,-10.0,-6.0,-1.0,-2.0,0.0,1651023364363987.0
-4.0,-18.0,-21.0,-8.0,-1.0,-7.0,-1.0,0.0,1651023364363987.0
3.0,-4.0,6.0,10.0,1.0,3.0,1.0,4.0,1651023364363987.0
-17.0,-11.0,-11.0,-1.0,3.0,0.0,-1.0,-8.0,1651023364363987.0
2.0,-1.0,5.0,-1.0,-5.0,-3.0,-2.0,-2.0,1651023364386921.0
-1.0,-3.0,-3.0,-8.0,-3.0,-1.0,-2.0,-1.0,1651023364386921.0
5.0,1.0,2.0,1.0,-8.0,-7.0,-2.0,-3.0,1651023364387875.0
3.0,3.0,-1.0,-2.0,3.0,3.0,0.0,1.0,1651023364387875.0
-1.0,8.0,21.0,4.0,-8.0,1.0,1.0,-1.0,1651023364416909.0
-2.0,-1.0,-8.0,-6.0,11.0,5.0,3.0,0.0,1651023364416909.0
-5.0,-2.0,2.0,14.0,5.0,1.0,-1.0,0.0,1651023364417932.0
-6.0,-11.0,-11.0,-2.0,5.0,-3.0,-2.0,-1.0,1651023364417932.0
6.0,-11.0,-4.0,-9.0,-21.0,-6.0,0.0,-1.0,1651023364423913.0
8.0,12.0,28.0,8.0,6.0,0.0,-4.0,4.0,1651023364423913.0
-16.0,3.0,6.0,4.0,3.0,2.0,-1.0,-9.0,1651023364423913.0
-1.0,-15.0,-17.0,-6.0,-6.0,-2.0,-5.0,-3.0,1651023364423913.0
-10.0,-7.0,-32.0,-24.0,-19.0,-40.0,-8.0,3.0,1651023364447242.0
-10.0,-5.0,37.0,19.0,-8.0,-34.0,-11.0,-7.0,1651023364447242.0
14.0,12.0,-19.0,-4.0,15.0,44.0,15.0,4.0,1651023364447897.0
3.0,6.0,19.0,51.0,10.0,-49.0,-12.0,-1.0,1651023364447897.0
18.0,-20.0,-32.0,-28.0,18.0,112.0,28.0,3.0,1651023364469841.0
-49.0,9.0,12.0,-70.0,-26.0,62.0,21.0,3.0,1651023364469841.0
-22.0,-12.0,-38.0,41.0,35.0,19.0,3.0,-3.0,1651023364469841.0
10.0,1.0,78.0,27.0,6.0,-35.0,-15.0,-5.0,1651023364469841.0
-13.0,-19.0,-8.0,-7.0,-16.0,-61.0,-9.0,-19.0,1651023364483804.0
40.0,40.0,30.0,34.0,18.0,1.0,16.0,17.0,1651023364483804.0
-39.0,-22.0,-14.0,18.0,-16.0,-24.0,-47.0,-17.0,1651023364484828.0
34.0,12.0,-56.0,-53.0,-21.0,10.0,-16.0,16.0,1651023364484828.0
-27.0,7.0,22.0,-33.0,-31.0,-56.0,-23.0,-22.0,1651023364507275.0
-8.0,-42.0,-14.0,-21.0,-28.0,-14.0,-12.0,-21.0,1651023364507275.0
-1.0,-2.0,13.0,21.0,5.0,13.0,56.0,28.0,1651023364507275.0
-3.0,7.0,-10.0,-62.0,-4.0,13.0,-3.0,12.0,1651023364507275.0
8.0,-37.0,13.0,99.0,59.0,45.0,32.0,14.0,1651023364529231.0
18.0,23.0,-10.0,1.0,-4.0,-5.0,-21.0,-13.0,1651023364529231.0
2.0,80.0,47.0,-11.0,-30.0,-49.0,52.0,4.0,1651023364530159.0
-44.0,-74.0,-41.0,-66.0,-44.0,-41.0,-77.0,-27.0,1651023364530159.0
31.0,20.0,-22.0,-128.0,-56.0,32.0,41.0,2.0,1651023364544143.0
-32.0,22.0,69.0,112.0,95.0,0.0,-19.0,20.0,1651023364544143.0
-1.0,8.0,36.0,30.0,8.0,-99.0,12.0,-38.0,1651023364544143.0
-44.0,-16.0,-56.0,-64.0,14.0,101.0,103.0,22.0,1651023364544143.0
85.0,24.0,19.0,-42.0,-9.0,23.0,1.0,38.0,1651023364565987.0
-15.0,-11.0,-39.0,27.0,-10.0,-63.0,-76.0,-21.0,1651023364565987.0
-86.0,-48.0,-20.0,-43.0,-29.0,-52.0,-55.0,-40.0,1651023364566917.0
55.0,52.0,9.0,41.0,22.0,60.0,43.0,25.0,1651023364566917.0
-22.0,-74.0,-29.0,21.0,-19.0,-45.0,-1.0,-8.0,1651023364589048.0
-1.0,-17.0,-41.0,-60.0,-13.0,50.0,118.0,51.0,1651023364589048.0
19.0,16.0,23.0,-49.0,-32.0,-21.0,-37.0,14.0,1651023364589980.0
-30.0,-27.0,36.0,86.0,63.0,-2.0,-94.0,-72.0,1651023364589980.0
-21.0,40.0,-15.0,-6.0,14.0,25.0,34.0,2.0,1651023364604003.0
70.0,39.0,34.0,-52.0,-20.0,-18.0,6.0,35.0,1651023364604003.0
22.0,-23.0,-44.0,8.0,-2.0,7.0,-12.0,-15.0,1651023364604003.0
-13.0,-39.0,9.0,-14.0,-19.0,-13.0,5.0,31.0,1651023364604003.0
27.0,80.0,57.0,57.0,31.0,-37.0,-40.0,-3.0,1651023364626602.0
-30.0,-39.0,-55.0,-44.0,-33.0,-80.0,-18.0,-35.0,1651023364626602.0
58.0,22.0,1.0,-6.0,26.0,127.0,67.0,26.0,1651023364626602.0
107.0,44.0,32.0,43.0,10.0,-62.0,43.0,45.0,1651023364626602.0
-61.0,-65.0,-12.0,22.0,13.0,33.0,-56.0,-20.0,1651023364649852.0
-50.0,22.0,-5.0,-14.0,-10.0,22.0,98.0,24.0,1651023364649852.0
72.0,-12.0,-23.0,-85.0,-14.0,69.0,-121.0,-11.0,1651023364649852.0
0.0,6.0,33.0,37.0,21.0,-60.0,52.0,7.0,1651023364649852.0
-91.0,3.0,-12.0,3.0,4.0,-34.0,28.0,-19.0,1651023364663108.0
57.0,39.0,26.0,9.0,5.0,-1.0,15.0,2.0,1651023364663108.0
-88.0,-41.0,-1.0,5.0,-4.0,-30.0,-34.0,-26.0,1651023364671077.0
15.0,-32.0,-37.0,-3.0,-3.0,22.0,53.0,11.0,1651023364671077.0
-13.0,-11.0,11.0,-28.0,-2.0,-4.0,-29.0,-2.0,1651023364686089.0
5.0,-24.0,-29.0,28.0,7.0,40.0,-6.0,1.0,1651023364686089.0
20.0,29.0,27.0,9.0,15.0,-20.0,39.0,23.0,1651023364687019.0
2.0,-45.0,-36.0,-70.0,-42.0,8.0,-31.0,-12.0,1651023364687019.0
61.0,99.0,41.0,68.0,24.0,8.0,32.0,26.0,1651023364709027.0
-5.0,-6.0,-19.0,-26.0,-13.0,-40.0,-44.0,-17.0,1651023364709027.0
5.0,-24.0,-5.0,-13.0,2.0,-57.0,-83.0,-4.0,1651023364709958.0
17.0,58.0,19.0,28.0,-1.0,39.0,23.0,14.0,1651023364709958.0
-78.0,26.0,-4.0,-18.0,7.0,26.0,24.0,-16.0,1651023364722922.0
-33.0,-103.0,-30.0,-9.0,14.0,78.0,-24.0,-21.0,1651023364722922.0
1.0,-1.0,5.0,22.0,0.0,-41.0,40.0,2.0,1651023364730928.0
-99.0,67.0,15.0,-91.0,-25.0,51.0,27.0,0.0,1651023364730928.0
28.0,-17.0,-10.0,66.0,10.0,-55.0,-1.0,12.0,1651023364745917.0
49.0,-54.0,50.0,59.0,12.0,-23.0,-95.0,-40.0,1651023364745917.0
-32.0,1.0,-36.0,-51.0,-31.0,-37.0,9.0,-4.0,1651023364746859.0
-49.0,81.0,69.0,91.0,50.0,-12.0,-22.0,-32.0,1651023364746859.0
72.0,-46.0,-54.0,-51.0,-17.0,16.0,35.0,47.0,1651023364768800.0
-10.0,36.0,24.0,-9.0,-1.0,0.0,60.0,10.0,1651023364768800.0
57.0,-1.0,-16.0,19.0,6.0,33.0,1.0,16.0,1651023364769798.0
-44.0,-80.0,-53.0,-56.0,-32.0,-59.0,-71.0,-54.0,1651023364769798.0
-26.0,49.0,71.0,23.0,5.0,20.0,10.0,-7.0,1651023364782830.0
31.0,10.0,-16.0,-6.0,-8.0,-41.0,-38.0,-10.0,1651023364782830.0
-41.0,-22.0,-10.0,-20.0,-11.0,-34.0,24.0,13.0,1651023364790809.0
4.0,6.0,-5.0,6.0,10.0,77.0,44.0,11.0,1651023364790809.0
-15.0,-35.0,-9.0,9.0,-10.0,-50.0,12.0,-4.0,1651023364807705.0
18.0,-35.0,-31.0,-46.0,6.0,76.0,-29.0,-10.0,1651023364807705.0
-29.0,81.0,32.0,3.0,-13.0,-52.0,7.0,-15.0,1651023364807705.0
4.0,-59.0,-11.0,-2.0,-15.0,-52.0,-29.0,-8.0,1651023364807705.0
16.0,22.0,29.0,39.0,41.0,-8.0,20.0,9.0,1651023364829701.0
4.0,61.0,3.0,-22.0,-17.0,-46.0,-25.0,-6.0,1651023364829701.0
25.0,-53.0,-40.0,5.0,15.0,40.0,2.0,5.0,1651023364829701.0
-11.0,-18.0,-10.0,37.0,12.0,-5.0,17.0,1.0,1651023364829701.0
5.0,13.0,-3.0,-50.0,-26.0,3.0,-62.0,-15.0,1651023364842602.0
-23.0,39.0,32.0,58.0,29.0,22.0,109.0,41.0,1651023364842602.0
2.0,-41.0,-10.0,-20.0,-3.0,7.0,-54.0,-36.0,1651023364851579.0
30.0,16.0,-18.0,-24.0,-24.0,-39.0,-16.0,3.0,1651023364851579.0
-21.0,-37.0,-16.0,-16.0,-5.0,38.0,48.0,-1.0,1651023364866898.0
26.0,49.0,28.0,22.0,-5.0,-37.0,-68.0,0.0,1651023364866898.0
-40.0,-27.0,7.0,-1.0,-8.0,0.0,-9.0,-1.0,1651023364867895.0
-64.0,3.0,1.0,-2.0,-1.0,-6.0,40.0,-10.0,1651023364867895.0
90.0,5.0,-6.0,0.0,9.0,54.0,-7.0,10.0,1651023364889838.0
-40.0,-57.0,-37.0,-66.0,-25.0,-36.0,14.0,2.0,1651023364889838.0
-35.0,41.0,34.0,69.0,39.0,65.0,53.0,0.0,1651023364889838.0
40.0,20.0,4.0,-13.0,-24.0,-58.0,-65.0,0.0,1651023364889838.0
6.0,33.0,-8.0,-17.0,5.0,-6.0,3.0,6.0,1651023364902803.0
-15.0,-37.0,-2.0,58.0,7.0,0.0,40.0,3.0,1651023364902803.0
28.0,-27.0,-38.0,-84.0,-19.0,-21.0,-17.0,0.0,1651023364910845.0
16.0,25.0,23.0,87.0,29.0,31.0,12.0,6.0,1651023364910845.0
-82.0,-9.0,-40.0,-16.0,-20.0,-27.0,-31.0,-32.0,1651023364927234.0
29.0,-34.0,-8.0,-8.0,4.0,11.0,7.0,-2.0,1651023364927234.0
4.0,47.0,17.0,-9.0,6.0,12.0,17.0,14.0,1651023364927855.0
59.0,16.0,7.0,-32.0,-7.0,-6.0,-7.0,-6.0,1651023364927855.0
25.0,-27.0,-27.0,-25.0,-24.0,-37.0,-35.0,-5.0,1651023364949799.0
28.0,12.0,-5.0,-3.0,-18.0,4.0,0.0,10.0,1651023364949799.0
-83.0,18.0,37.0,36.0,35.0,4.0,82.0,20.0,1651023364949799.0
104.0,-28.0,-32.0,-44.0,-3.0,43.0,-109.0,-19.0,1651023364949799.0
-38.0,-15.0,18.0,30.0,3.0,32.0,28.0,0.0,1651023364971741.0
-37.0,-21.0,-5.0,-25.0,1.0,66.0,26.0,5.0,1651023364971741.0
63.0,70.0,-9.0,-16.0,-16.0,-31.0,33.0,15.0,1651023364972738.0
-82.0,15.0,43.0,51.0,4.0,-23.0,-41.0,-18.0,1651023364972738.0
-8.0,-6.0,22.0,38.0,17.0,-50.0,-46.0,-9.0,1651023364986713.0
0.0,11.0,8.0,-13.0,13.0,-8.0,4.0,1.0,1651023364986713.0
52.0,-104.0,-16.0,36.0,9.0,19.0,-4.0,-4.0,1651023364987698.0
-34.0,23.0,-31.0,-69.0,-22.0,-10.0,49.0,12.0,1651023364987698.0
36.0,-26.0,3.0,-10.0,-1.0,5.0,-6.0,10.0,1651023365009707.0
-7.0,36.0,25.0,69.0,20.0,2.0,-6.0,-3.0,1651023365009707.0
21.0,47.0,21.0,4.0,1.0,16.0,1.0,6.0,1651023365009707.0
-14.0,-31.0,-40.0,-39.0,-18.0,-26.0,1.0,-11.0,1651023365009707.0
-6.0,-21.0,16.0,-9.0,-9.0,-18.0,-28.0,1.0,1651023365032019.0
31.0,40.0,-16.0,-37.0,-7.0,-6.0,21.0,5.0,1651023365032019.0
18.0,-41.0,5.0,3.0,-4.0,25.0,2.0,17.0,1651023365032946.0
-5.0,25.0,27.0,32.0,0.0,-57.0,-32.0,-8.0,1651023365032946.0
9.0,-18.0,-28.0,-36.0,-14.0,75.0,61.0,1.0,1651023365046972.0
-57.0,-34.0,0.0,4.0,-7.0,-47.0,-48.0,-20.0,1651023365046972.0
-9.0,20.0,-14.0,-23.0,-25.0,-45.0,-21.0,2.0,1651023365047906.0
12.0,-36.0,-31.0,-59.0,-28.0,15.0,12.0,-5.0,1651023365047906.0
-32.0,12.0,44.0,43.0,34.0,-6.0,-7.0,-3.0,1651023365068851.0
27.0,13.0,-13.0,14.0,12.0,-8.0,-6.0,20.0,1651023365068851.0
-54.0,-5.0,-5.0,6.0,-2.0,10.0,-7.0,-5.0,1651023365069848.0
-18.0,-34.0,11.0,6.0,4.0,-6.0,29.0,3.0,1651023365069848.0
18.0,26.0,-9.0,-22.0,-5.0,3.0,37.0,18.0,1651023365091856.0
-11.0,-1.0,-20.0,-18.0,-14.0,8.0,-32.0,-34.0,1651023365091856.0
-13.0,10.0,5.0,-13.0,-3.0,-17.0,-18.0,-7.0,1651023365092786.0
12.0,7.0,9.0,22.0,21.0,42.0,69.0,15.0,1651023365092786.0
15.0,-9.0,-17.0,-3.0,-6.0,-44.0,-52.0,-7.0,1651023365105818.0
-89.0,-14.0,-4.0,-20.0,-9.0,18.0,-20.0,-16.0,1651023365105818.0
72.0,-25.0,10.0,26.0,13.0,0.0,-11.0,6.0,1651023365106751.0
-39.0,-6.0,-23.0,-15.0,0.0,2.0,25.0,-9.0,1651023365106751.0
-6.0,-11.0,-11.0,-19.0,-6.0,26.0,18.0,2.0,1651023365129751.0
41.0,39.0,23.0,33.0,17.0,-9.0,-24.0,0.0,1651023365129751.0
-46.0,-16.0,12.0,2.0,-3.0,-10.0,-21.0,-22.0,1651023365129751.0
-54.0,3.0,-4.0,-2.0,1.0,9.0,15.0,4.0,1651023365129751.0
79.0,9.0,-22.0,-7.0,-11.0,-48.0,-17.0,9.0,1651023365152922.0
6.0,13.0,11.0,29.0,19.0,3.0,71.0,11.0,1651023365152922.0
5.0,-6.0,24.0,53.0,16.0,34.0,-27.0,-4.0,1651023365154916.0
-28.0,-7.0,-4.0,3.0,-4.0,-9.0,0.0,11.0,1651023365154916.0
11.0,3.0,-9.0,-15.0,2.0,-4.0,0.0,-13.0,1651023365165950.0
-51.0,-14.0,6.0,-11.0,-17.0,-13.0,-7.0,-11.0,1651023365165950.0
43.0,-15.0,-29.0,-28.0,0.0,17.0,15.0,17.0,1651023365174864.0
12.0,25.0,2.0,-3.0,8.0,-5.0,-21.0,0.0,1651023365174864.0
-32.0,27.0,18.0,12.0,-18.0,-37.0,-22.0,-14.0,1651023365189006.0
-4.0,-11.0,-8.0,-11.0,-1.0,35.0,11.0,-9.0,1651023365189006.0
-29.0,18.0,-8.0,-12.0,11.0,4.0,22.0,15.0,1651023365189996.0
3.0,11.0,14.0,9.0,-3.0,-36.0,-21.0,4.0,1651023365189996.0
73.0,2.0,0.0,-3.0,13.0,111.0,33.0,13.0,1651023365211991.0
-26.0,-5.0,1.0,-4.0,-8.0,-57.0,-5.0,-1.0,1651023365211991.0
47.0,-13.0,-10.0,-41.0,-37.0,15.0,83.0,31.0,1651023365212948.0
-2.0,12.0,21.0,38.0,30.0,6.0,-80.0,-36.0,1651023365212948.0
-32.0,-65.0,3.0,39.0,5.0,-19.0,25.0,-1.0,1651023365225915.0
26.0,91.0,9.0,-44.0,-15.0,-12.0,-49.0,-6.0,1651023365225915.0
51.0,2.0,52.0,45.0,12.0,-4.0,4.0,1.0,1651023365233976.0
38.0,-15.0,-47.0,6.0,-5.0,4.0,58.0,33.0,1651023365233976.0
-87.0,-33.0,-16.0,-34.0,-12.0,-8.0,-38.0,-37.0,1651023365249010.0
27.0,-20.0,9.0,10.0,1.0,15.0,15.0,7.0,1651023365249010.0
-30.0,9.0,-15.0,-28.0,-6.0,-21.0,-14.0,-12.0,1651023365250941.0
72.0,-8.0,10.0,-7.0,-4.0,8.0,13.0,18.0,1651023365250941.0
-18.0,1.0,-9.0,3.0,-4.0,-27.0,-16.0,-12.0,1651023365271689.0
-92.0,15.0,7.0,2.0,1.0,-27.0,7.0,-8.0,1651023365271689.0
59.0,21.0,-14.0,-5.0,13.0,59.0,-19.0,-8.0,1651023365277736.0
-6.0,-86.0,6.0,14.0,9.0,-31.0,6.0,12.0,1651023365277736.0
-38.0,53.0,2.0,-15.0,-4.0,87.0,5.0,-9.0,1651023365285645.0
-36.0,-55.0,-27.0,-29.0,-22.0,-44.0,-38.0,-29.0,1651023365285645.0
-46.0,6.0,11.0,38.0,17.0,26.0,47.0,17.0,1651023365294886.0
23.0,-12.0,-24.0,-37.0,-8.0,-23.0,-41.0,-18.0,1651023365294886.0
-23.0,38.0,31.0,51.0,19.0,-15.0,57.0,5.0,1651023365309877.0
43.0,7.0,1.0,-42.0,-9.0,5.0,-27.0,8.0,1651023365309877.0
-41.0,-50.0,-41.0,45.0,21.0,-15.0,-3.0,-11.0,1651023365310896.0
26.0,42.0,1.0,-48.0,-17.0,28.0,4.0,15.0,1651023365310896.0
0.0,-9.0,47.0,69.0,32.0,-40.0,-42.0,0.0,1651023365331993.0
24.0,-29.0,-27.0,-26.0,-3.0,41.0,88.0,30.0,1651023365331993.0
28.0,58.0,-5.0,-34.0,-23.0,-46.0,-110.0,-35.0,1651023365332924.0
-50.0,-1.0,-7.0,-28.0,-6.0,26.0,13.0,-10.0,1651023365332924.0
26.0,-23.0,-30.0,-28.0,-10.0,-4.0,10.0,8.0,1651023365346088.0
45.0,18.0,18.0,29.0,4.0,-25.0,-23.0,3.0,1651023365346088.0
-70.0,-16.0,9.0,-19.0,-15.0,-7.0,35.0,1.0,1651023365354081.0
-49.0,1.0,0.0,30.0,13.0,7.0,-7.0,-17.0,1651023365354081.0
38.0,22.0,-12.0,-43.0,-37.0,-47.0,-19.0,0.0,1651023365369029.0
17.0,-21.0,-10.0,7.0,15.0,35.0,-7.0,4.0,1651023365369029.0
24.0,-29.0,-5.0,-16.0,10.0,72.0,67.0,11.0,1651023365371024.0
70.0,6.0,10.0,47.0,11.0,-1.0,-33.0,2.0,1651023365371024.0
-24.0,8.0,-10.0,-62.0,-28.0,-44.0,-23.0,2.0,1651023365390993.0
19.0,60.0,38.0,52.0,30.0,-23.0,31.0,11.0,1651023365390993.0
-56.0,-15.0,9.0,7.0,-11.0,-28.0,-13.0,-16.0,1651023365400001.0
20.0,-21.0,10.0,23.0,20.0,23.0,14.0,5.0,1651023365400001.0
58.0,43.0,17.0,-6.0,10.0,26.0,31.0,40.0,1651023365405938.0
-51.0,-67.0,-66.0,-35.0,-29.0,-3.0,-21.0,-49.0,1651023365405938.0
-32.0,49.0,20.0,-13.0,7.0,8.0,67.0,17.0,1651023365414832.0
17.0,-9.0,3.0,-3.0,-2.0,0.0,-42.0,3.0,1651023365414832.0
-57.0,-9.0,3.0,10.0,-2.0,-51.0,-53.0,-19.0,1651023365429801.0
61.0,-27.0,-30.0,-42.0,-10.0,42.0,20.0,20.0,1651023365429801.0
-41.0,-2.0,10.0,41.0,17.0,38.0,21.0,2.0,1651023365430793.0
-4.0,18.0,-10.0,-31.0,-26.0,-1.0,16.0,-6.0,1651023365430793.0
-49.0,8.0,19.0,19.0,11.0,14.0,6.0,-20.0,1651023365451840.0
99.0,-64.0,-36.0,-2.0,-3.0,-10.0,-40.0,25.0,1651023365451840.0
-1.0,-7.0,-52.0,-107.0,-41.0,-20.0,-16.0,-6.0,1651023365453835.0
17.0,52.0,81.0,74.0,59.0,9.0,25.0,14.0,1651023365453835.0
-40.0,-39.0,-24.0,-49.0,3.0,19.0,55.0,7.0,1651023365465867.0
-82.0,1.0,28.0,34.0,1.0,3.0,-61.0,-33.0,1651023365465867.0
43.0,-20.0,-16.0,-3.0,-12.0,-58.0,-23.0,0.0,1651023365474784.0
-4.0,18.0,-33.0,-27.0,-22.0,5.0,26.0,-4.0,1651023365474784.0
-24.0,7.0,-6.0,-7.0,2.0,3.0,-6.0,-10.0,1651023365489806.0
-45.0,29.0,21.0,8.0,12.0,29.0,69.0,24.0,1651023365489806.0
67.0,-68.0,-30.0,-13.0,-2.0,-8.0,-43.0,-9.0,1651023365490737.0
-13.0,48.0,23.0,-5.0,-5.0,2.0,27.0,24.0,1651023365490737.0
-33.0,-26.0,-19.0,5.0,-3.0,1.0,-28.0,-11.0,1651023365511748.0
12.0,46.0,2.0,-20.0,-10.0,2.0,23.0,-7.0,1651023365511748.0
72.0,24.0,40.0,48.0,12.0,-34.0,-62.0,10.0,1651023365513702.0
-35.0,-110.0,-65.0,-45.0,-9.0,46.0,49.0,2.0,1651023365513702.0
32.0,-11.0,-8.0,-5.0,-12.0,-27.0,-23.0,-10.0,1651023365525744.0
-26.0,32.0,-1.0,-52.0,-24.0,16.0,-51.0,-19.0,1651023365525744.0
23.0,54.0,71.0,104.0,77.0,16.0,75.0,36.0,1651023365534687.0
-14.0,-83.0,-19.0,7.0,-24.0,-43.0,-41.0,-40.0,1651023365534687.0
33.0,6.0,-2.0,-50.0,-23.0,-17.0,31.0,21.0,1651023365548836.0
-31.0,-29.0,-32.0,14.0,6.0,16.0,45.0,2.0,1651023365548836.0
-42.0,62.0,27.0,-4.0,-24.0,-27.0,-76.0,-30.0,1651023365555754.0
-69.0,-74.0,-49.0,-26.0,-7.0,-10.0,2.0,-20.0,1651023365555754.0
-32.0,5.0,26.0,18.0,16.0,21.0,21.0,17.0,1651023365571711.0
48.0,51.0,15.0,30.0,-3.0,-31.0,-24.0,-9.0,1651023365571711.0
-55.0,-33.0,-31.0,-31.0,9.0,21.0,12.0,-13.0,1651023365573706.0
18.0,20.0,44.0,26.0,3.0,-1.0,0.0,19.0,1651023365573706.0
-30.0,29.0,-26.0,-33.0,-21.0,-62.0,-27.0,-21.0,1651023365585330.0
-10.0,-8.0,12.0,2.0,10.0,78.0,6.0,-26.0,1651023365585330.0
40.0,-16.0,-31.0,-14.0,-11.0,-17.0,51.0,38.0,1651023365594201.0
-5.0,3.0,24.0,10.0,-9.0,-67.0,-85.0,-36.0,1651023365594201.0
84.0,16.0,20.0,42.0,28.0,33.0,68.0,47.0,1651023365609517.0
-47.0,5.0,12.0,6.0,-2.0,-24.0,-9.0,-1.0,1651023365609517.0
-49.0,-66.0,-41.0,-32.0,1.0,70.0,26.0,-5.0,1651023365610475.0
68.0,107.0,16.0,-17.0,-5.0,15.0,42.0,21.0,1651023365610475.0
17.0,-33.0,-9.0,33.0,10.0,1.0,-42.0,-17.0,1651023365639511.0
-21.0,3.0,18.0,-6.0,-13.0,-58.0,4.0,-4.0,1651023365639511.0
-5.0,31.0,-4.0,20.0,-9.0,-20.0,-37.0,-31.0,1651023365640478.0
53.0,-41.0,-20.0,-45.0,3.0,23.0,45.0,29.0,1651023365640478.0
-36.0,33.0,9.0,73.0,15.0,18.0,-50.0,-32.0,1651023365645488.0
-8.0,-31.0,7.0,-5.0,4.0,-7.0,10.0,36.0,1651023365645488.0
-16.0,20.0,-44.0,-48.0,-20.0,-19.0,-26.0,-22.0,1651023365654441.0
-35.0,12.0,4.0,-13.0,-15.0,-9.0,-12.0,-3.0,1651023365654441.0
43.0,-3.0,3.0,-22.0,-16.0,-24.0,30.0,0.0,1651023365669422.0
16.0,37.0,14.0,3.0,11.0,54.0,5.0,-5.0,1651023365669422.0
20.0,-23.0,-4.0,-20.0,-14.0,0.0,54.0,42.0,1651023365675387.0
38.0,61.0,65.0,65.0,29.0,-24.0,-36.0,6.0,1651023365675387.0
-81.0,-17.0,-53.0,-71.0,-19.0,3.0,-27.0,-23.0,1651023365692339.0
-15.0,-43.0,15.0,31.0,18.0,9.0,53.0,29.0,1651023365692339.0
16.0,-11.0,18.0,3.0,2.0,5.0,34.0,13.0,1651023365693339.0
-58.0,10.0,-40.0,-68.0,-33.0,3.0,-41.0,-33.0,1651023365693339.0
33.0,20.0,51.0,83.0,42.0,26.0,-16.0,1.0,1651023365705372.0
64.0,54.0,10.0,6.0,-16.0,-29.0,37.0,13.0,1651023365705372.0
-60.0,0.0,-10.0,14.0,25.0,-9.0,-66.0,-7.0,1651023365714281.0
36.0,20.0,2.0,14.0,0.0,-2.0,85.0,24.0,1651023365714281.0
3.0,-60.0,-22.0,-16.0,5.0,12.0,-57.0,-16.0,1651023365729362.0
-53.0,-22.0,-53.0,-53.0,-21.0,-31.0,-54.0,-33.0,1651023365729362.0
99.0,12.0,30.0,38.0,-6.0,-12.0,-23.0,-16.0,1651023365731352.0
-2.0,54.0,13.0,15.0,28.0,58.0,63.0,14.0,1651023365731352.0
-3.0,-72.0,-15.0,-24.0,-24.0,-18.0,13.0,4.0,1651023365751949.0
12.0,0.0,-15.0,-5.0,0.0,-48.0,-51.0,-30.0,1651023365751949.0
27.0,-1.0,13.0,-13.0,-4.0,34.0,56.0,39.0,1651023365753915.0
-26.0,6.0,14.0,20.0,2.0,-18.0,-72.0,-17.0,1651023365753915.0
49.0,87.0,23.0,2.0,7.0,77.0,57.0,13.0,1651023365766013.0
-108.0,-85.0,15.0,8.0,14.0,-5.0,31.0,12.0,1651023365766013.0
47.0,79.0,-12.0,-26.0,-27.0,-60.0,-88.0,-3.0,1651023365774966.0
-51.0,-63.0,-9.0,-3.0,-8.0,11.0,31.0,-7.0,1651023365774966.0
-26.0,-42.0,-24.0,-11.0,1.0,-7.0,13.0,18.0,1651023365788997.0
27.0,4.0,0.0,-37.0,-12.0,26.0,37.0,18.0,1651023365788997.0
-59.0,12.0,33.0,30.0,45.0,2.0,-33.0,-22.0,1651023365790924.0
1.0,-2.0,41.0,82.0,23.0,7.0,74.0,21.0,1651023365790924.0
-17.0,-17.0,-2.0,-15.0,-5.0,-19.0,-97.0,-24.0,1651023365811869.0
95.0,84.0,4.0,-7.0,4.0,22.0,14.0,49.0,1651023365811869.0
-20.0,-21.0,-41.0,-34.0,-13.0,9.0,83.0,-14.0,1651023365812866.0
7.0,-20.0,6.0,0.0,6.0,-8.0,-105.0,-31.0,1651023365812866.0
-33.0,-51.0,-49.0,-39.0,-31.0,-30.0,3.0,-11.0,1651023365825831.0
7.0,32.0,48.0,48.0,15.0,-17.0,6.0,14.0,1651023365825831.0
23.0,10.0,5.0,-21.0,-16.0,-45.0,-8.0,16.0,1651023365834807.0
-10.0,-16.0,-11.0,-6.0,9.0,47.0,13.0,-20.0,1651023365834807.0
-14.0,21.0,0.0,-10.0,-6.0,110.0,106.0,56.0,1651023365849798.0
26.0,-39.0,-24.0,-8.0,7.0,18.0,-84.0,-54.0,1651023365849798.0
-26.0,-47.0,-9.0,10.0,-11.0,-37.0,12.0,16.0,1651023365850773.0
-13.0,23.0,-21.0,-28.0,-13.0,-39.0,-31.0,-9.0,1651023365850773.0
56.0,36.0,36.0,21.0,17.0,-36.0,97.0,33.0,1651023365871918.0
-17.0,-25.0,-20.0,-38.0,-27.0,-26.0,-63.0,-28.0,1651023365871918.0
-13.0,-3.0,1.0,29.0,8.0,25.0,-16.0,-16.0,1651023365873885.0
-14.0,-4.0,4.0,-2.0,-1.0,-23.0,10.0,8.0,1651023365873885.0
-5.0,25.0,-27.0,-37.0,-6.0,-12.0,-26.0,-15.0,1651023365885899.0
13.0,-7.0,20.0,18.0,6.0,16.0,36.0,11.0,1651023365885899.0
-12.0,10.0,26.0,3.0,-11.0,-8.0,-21.0,-15.0,1651023365894834.0
2.0,7.0,-9.0,1.0,3.0,17.0,1.0,17.0,1651023365894834.0
-1.0,-11.0,17.0,6.0,-4.0,-36.0,-19.0,-13.0,1651023365909799.0
-13.0,-24.0,-37.0,-8.0,-11.0,-55.0,-17.0,-6.0,1651023365909799.0
-5.0,-9.0,14.0,8.0,14.0,101.0,34.0,10.0,1651023365910798.0
-18.0,6.0,-4.0,-1.0,-7.0,-61.0,0.0,-3.0,1651023365910798.0
-9.0,1.0,10.0,1.0,11.0,78.0,12.0,1.0,1651023365931820.0
-30.0,32.0,34.0,39.0,15.0,-21.0,9.0,6.0,1651023365931820.0
-45.0,-79.0,-60.0,-45.0,-2.0,28.0,91.0,11.0,1651023365933814.0
64.0,14.0,19.0,-13.0,-32.0,-48.0,-94.0,-42.0,1651023365933814.0
22.0,-6.0,-19.0,21.0,1.0,-57.0,-24.0,-4.0,1651023365945849.0
-16.0,12.0,-9.0,-65.0,-35.0,2.0,36.0,3.0,1651023365945849.0
-17.0,25.0,61.0,101.0,79.0,38.0,19.0,2.0,1651023365954759.0
-8.0,5.0,-22.0,-22.0,8.0,35.0,40.0,26.0,1651023365954759.0
0.0,6.0,17.0,3.0,-6.0,-31.0,-22.0,-13.0,1651023365968789.0
12.0,-4.0,-1.0,8.0,0.0,11.0,1.0,4.0,1651023365968789.0
2.0,-7.0,-31.0,-37.0,-21.0,-17.0,-34.0,-11.0,1651023365970726.0
13.0,1.0,0.0,-2.0,7.0,16.0,24.0,29.0,1651023365970726.0
12.0,15.0,-5.0,24.0,4.0,-4.0,-22.0,-3.0,1651023365992267.0
8.0,-10.0,15.0,8.0,6.0,32.0,28.0,15.0,1651023365992267.0
14.0,35.0,35.0,-8.0,-24.0,-26.0,-36.0,-26.0,1651023365993266.0
-20.0,-14.0,-10.0,1.0,5.0,-51.0,-9.0,-7.0,1651023365993266.0
-8.0,-4.0,-7.0,-8.0,-3.0,26.0,-1.0,-18.0,1651023366014844.0
13.0,-2.0,-9.0,12.0,16.0,11.0,31.0,30.0,1651023366014844.0
2.0,11.0,-14.0,-11.0,-26.0,-57.0,-34.0,-8.0,1651023366015844.0
-6.0,-2.0,2.0,-1.0,-6.0,53.0,-14.0,-22.0,1651023366015844.0
-13.0,-12.0,-6.0,-9.0,6.0,-39.0,-14.0,-12.0,1651023366029807.0
1.0,0.0,3.0,4.0,-9.0,-16.0,-9.0,-20.0,1651023366029807.0
11.0,1.0,18.0,10.0,12.0,18.0,-11.0,1.0,1651023366030805.0
4.0,32.0,6.0,0.0,1.0,6.0,27.0,23.0,1651023366030805.0
-4.0,4.0,16.0,3.0,4.0,-4.0,2.0,5.0,1651023366051478.0
-2.0,-19.0,-27.0,10.0,12.0,15.0,-2.0,-9.0,1651023366051478.0
-6.0,-6.0,0.0,-11.0,-17.0,-19.0,-5.0,-6.0,1651023366053406.0
4.0,-6.0,4.0,-5.0,3.0,31.0,13.0,14.0,1651023366053406.0
2.0,18.0,33.0,7.0,-9.0,-2.0,-9.0,-11.0,1651023366074560.0
-4.0,-15.0,-48.0,-20.0,-8.0,0.0,5.0,4.0,1651023366074560.0
-4.0,-18.0,-5.0,-16.0,-4.0,-8.0,-18.0,-2.0,1651023366075491.0
0.0,-4.0,12.0,13.0,4.0,-2.0,16.0,-2.0,1651023366075491.0
14.0,20.0,-12.0,3.0,4.0,27.0,6.0,25.0,1651023366089520.0
0.0,-11.0,25.0,2.0,-7.0,-9.0,-6.0,-5.0,1651023366089520.0
4.0,4.0,-30.0,-10.0,1.0,-24.0,-11.0,0.0,1651023366090450.0
-6.0,3.0,24.0,12.0,3.0,13.0,2.0,-5.0,1651023366090450.0
1.0,15.0,20.0,2.0,-10.0,-12.0,4.0,3.0,1651023366111462.0
9.0,23.0,28.0,10.0,9.0,10.0,-1.0,4.0,1651023366111462.0
-8.0,-19.0,-12.0,-6.0,-10.0,-5.0,-5.0,-15.0,1651023366113389.0
-8.0,-21.0,-59.0,-32.0,-14.0,-1.0,-1.0,7.0,1651023366113389.0
1.0,0.0,22.0,14.0,11.0,-9.0,0.0,3.0,1651023366133800.0
3.0,5.0,-18.0,3.0,3.0,6.0,-1.0,-1.0,1651023366133800.0
7.0,20.0,20.0,6.0,20.0,7.0,1.0,2.0,1651023366135797.0
2.0,3.0,24.0,16.0,2.0,-2.0,0.0,0.0,1651023366135797.0
-4.0,-10.0,-22.0,-18.0,-16.0,1.0,3.0,6.0,1651023366148989.0
-6.0,-4.0,2.0,-4.0,-9.0,-10.0,-5.0,-10.0,1651023366148989.0
-5.0,-4.0,-15.0,-20.0,-17.0,-3.0,-6.0,-8.0,1651023366155978.0
2.0,0.0,0.0,6.0,1.0,2.0,12.0,14.0,1651023366155978.0
3.0,16.0,-4.0,5.0,6.0,-1.0,-4.0,-4.0,1651023366171984.0
0.0,-7.0,2.0,0.0,9.0,6.0,1.0,1.0,1651023366171984.0
3.0,-9.0,28.0,13.0,6.0,3.0,1.0,8.0,1651023366172981.0
-5.0,6.0,-29.0,-1.0,-2.0,1.0,-3.0,-7.0,1651023366172981.0
0.0,-9.0,1.0,-1.0,-6.0,-2.0,2.0,-1.0,1651023366195231.0
1.0,8.0,-31.0,-26.0,-10.0,-9.0,-4.0,-4.0,1651023366195231.0
1.0,-11.0,-3.0,-5.0,-1.0,3.0,-1.0,3.0,1651023366196160.0
-2.0,-4.0,4.0,3.0,-7.0,-2.0,-1.0,-2.0,1651023366196160.0
-3.0,-3.0,8.0,12.0,21.0,4.0,-2.0,-1.0,1651023366209156.0
2.0,-4.0,-11.0,-5.0,-4.0,0.0,1.0,-2.0,1651023366209156.0
5.0,10.0,8.0,10.0,1.0,3.0,4.0,4.0,1651023366215177.0
-7.0,8.0,10.0,-8.0,-6.0,-2.0,-8.0,-19.0,1651023366215177.0
0.0,-2.0,2.0,5.0,-1.0,-1.0,3.0,6.0,1651023366231996.0
-4.0,-15.0,-16.0,3.0,3.0,-3.0,-4.0,-3.0,1651023366231996.0
2.0,17.0,17.0,-3.0,-8.0,-2.0,-2.0,-3.0,1651023366232950.0
0.0,-4.0,-18.0,-14.0,-2.0,0.0,5.0,5.0,1651023366232950.0
-6.0,-19.0,-1.0,-6.0,5.0,0.0,-2.0,-6.0,1651023366254866.0
1.0,6.0,13.0,15.0,10.0,5.0,1.0,-1.0,1651023366254866.0
1.0,0.0,-15.0,5.0,-9.0,0.0,2.0,5.0,1651023366255863.0
-6.0,-6.0,23.0,4.0,2.0,-5.0,-3.0,-4.0,1651023366255863.0
0.0,1.0,3.0,-1.0,-6.0,-2.0,0.0,1.0,1651023366267934.0
3.0,6.0,-21.0,-20.0,-7.0,-4.0,-1.0,3.0,1651023366267934.0
-1.0,-21.0,-1.0,4.0,4.0,1.0,0.0,-1.0,1651023366276913.0
-12.0,7.0,-5.0,-7.0,-2.0,-1.0,-1.0,-3.0,1651023366276913.0
0.0,-11.0,-10.0,-9.0,-7.0,-2.0,-1.0,-3.0,1651023366291952.0
-5.0,-8.0,7.0,4.0,-8.0,-7.0,-4.0,-3.0,1651023366291952.0
6.0,12.0,16.0,-3.0,-1.0,2.0,-1.0,-1.0,1651023366293880.0
3.0,-7.0,-12.0,8.0,21.0,4.0,2.0,4.0,1651023366293880.0
-3.0,9.0,-15.0,-12.0,1.0,2.0,0.0,-3.0,1651023366314868.0
-7.0,-29.0,10.0,9.0,5.0,2.0,0.0,-1.0,1651023366314868.0
-4.0,4.0,-17.0,-17.0,-15.0,-3.0,-4.0,-2.0,1651023366315866.0
4.0,4.0,23.0,6.0,-6.0,1.0,1.0,5.0,1651023366315866.0
-3.0,-5.0,-34.0,-10.0,-4.0,-5.0,-1.0,-4.0,1651023366329883.0
5.0,2.0,21.0,-3.0,4.0,1.0,0.0,0.0,1651023366329883.0
-1.0,27.0,15.0,10.0,-2.0,-3.0,0.0,-4.0,1651023366336810.0
3.0,-10.0,12.0,3.0,0.0,-3.0,-1.0,2.0,1651023366336810.0
0.0,4.0,-10.0,-19.0,-11.0,-2.0,-1.0,0.0,1651023366352058.0
-2.0,13.0,-14.0,6.0,7.0,2.0,0.0,-1.0,1651023366352058.0
-8.0,-50.0,-10.0,-12.0,-3.0,0.0,0.0,-2.0,1651023366353058.0
8.0,14.0,-12.0,0.0,-1.0,-1.0,1.0,4.0,1651023366353058.0
-8.0,-6.0,21.0,2.0,-6.0,-4.0,-3.0,-3.0,1651023366373943.0
3.0,10.0,12.0,0.0,-16.0,-6.0,1.0,1.0,1651023366373943.0
3.0,20.0,-16.0,-6.0,12.0,3.0,0.0,-2.0,1651023366375917.0
3.0,-2.0,-2.0,6.0,14.0,7.0,1.0,3.0,1651023366375917.0
-1.0,-7.0,3.0,16.0,5.0,2.0,1.0,0.0,1651023366388941.0
-1.0,13.0,13.0,4.0,-1.0,-1.0,-2.0,-2.0,1651023366388941.0
-2.0,-14.0,-6.0,-3.0,-17.0,-3.0,-2.0,-2.0,1651023366395863.0
3.0,7.0,-7.0,-5.0,5.0,-2.0,-1.0,0.0,1651023366395863.0
0.0,7.0,10.0,6.0,-2.0,2.0,-2.0,0.0,1651023366411946.0
7.0,10.0,-1.0,10.0,9.0,2.0,1.0,2.0,1651023366411946.0
-8.0,-15.0,-8.0,-6.0,-5.0,-2.0,1.0,-1.0,1651023366412990.0
0.0,5.0,-11.0,-6.0,-7.0,-2.0,-1.0,-2.0,1651023366412990.0
-4.0,-5.0,10.0,-2.0,-9.0,-2.0,1.0,-2.0,1651023366434835.0
0.0,6.0,-5.0,-1.0,4.0,-1.0,-2.0,-4.0,1651023366434835.0
-2.0,-19.0,-4.0,2.0,11.0,2.0,1.0,1.0,1651023366435842.0
2.0,3.0,11.0,3.0,-3.0,0.0,1.0,0.0,1651023366435842.0
1.0,2.0,-3.0,-1.0,-2.0,-2.0,-1.0,0.0,1651023366447871.0
-4.0,-11.0,-10.0,-5.0,-7.0,0.0,-2.0,-2.0,1651023366447871.0
-1.0,10.0,0.0,0.0,2.0,-2.0,-3.0,0.0,1651023366456781.0
-4.0,-8.0,-1.0,-10.0,0.0,3.0,1.0,-2.0,1651023366456781.0
3.0,-3.0,2.0,0.0,-1.0,0.0,1.0,-1.0,1651023366471815.0
0.0,-2.0,9.0,10.0,6.0,1.0,3.0,1.0,1651023366471815.0
0.0,13.0,-4.0,15.0,10.0,0.0,1.0,-2.0,1651023366473765.0
-5.0,-3.0,-10.0,-6.0,-7.0,-2.0,-2.0,0.0,1651023366473765.0
-1.0,-1.0,0.0,-3.0,-5.0,0.0,0.0,-3.0,1651023366494745.0
-10.0,-16.0,-4.0,-12.0,-3.0,-2.0,-2.0,-3.0,1651023366494745.0
7.0,38.0,7.0,-3.0,4.0,-2.0,0.0,1.0,1651023366495768.0
-4.0,-43.0,-10.0,-2.0,-6.0,-2.0,1.0,-1.0,1651023366495768.0
4.0,10.0,5.0,10.0,8.0,2.0,-1.0,1.0,1651023366507711.0
-2.0,-5.0,0.0,1.0,-3.0,-1.0,0.0,0.0,1651023366507711.0
-13.0,-23.0,-4.0,-2.0,-4.0,0.0,-1.0,-1.0,1651023366516618.0
17.0,34.0,8.0,1.0,-3.0,-2.0,0.0,1.0,1651023366516618.0
3.0,19.0,1.0,-2.0,3.0,0.0,0.0,1.0,1651023366531646.0
-2.0,-17.0,-9.0,3.0,2.0,3.0,0.0,-1.0,1651023366531646.0
-6.0,-21.0,1.0,-5.0,-6.0,-2.0,-1.0,-2.0,1651023366533590.0
-5.0,-9.0,-5.0,2.0,5.0,2.0,-1.0,-1.0,1651023366533590.0
-5.0,7.0,-2.0,1.0,4.0,1.0,0.0,-2.0,1651023366554593.0
6.0,11.0,9.0,-1.0,-2.0,-3.0,-1.0,0.0,1651023366554593.0
6.0,3.0,-2.0,-3.0,2.0,2.0,1.0,0.0,1651023366555590.0
-2.0,10.0,6.0,8.0,-1.0,-1.0,1.0,-2.0,1651023366555590.0
-4.0,-14.0,-7.0,-2.0,-4.0,0.0,-3.0,-3.0,1651023366567953.0
2.0,16.0,1.0,-6.0,2.0,-1.0,-2.0,-1.0,1651023366567953.0
-3.0,7.0,-11.0,-4.0,-4.0,-2.0,0.0,-2.0,1651023366577317.0
-13.0,-49.0,9.0,1.0,-4.0,-6.0,-2.0,-3.0,1651023366577317.0
-1.0,-6.0,1.0,2.0,5.0,1.0,1.0,-1.0,1651023366591408.0
0.0,6.0,0.0,-4.0,-2.0,1.0,-1.0,-2.0,1651023366591408.0
6.0,15.0,-2.0,-2.0,-13.0,-4.0,0.0,2.0,1651023366593414.0
-1.0,9.0,-9.0,-5.0,11.0,0.0,-2.0,-4.0,1651023366593414.0
5.0,-5.0,0.0,-1.0,6.0,3.0,0.0,1.0,1651023366614344.0
-13.0,-15.0,1.0,6.0,11.0,3.0,3.0,3.0,1651023366614344.0
13.0,9.0,-1.0,-6.0,-12.0,-2.0,-4.0,-2.0,1651023366616352.0
-12.0,-4.0,-6.0,-3.0,-6.0,-3.0,2.0,-2.0,1651023366616352.0
1.0,-11.0,-5.0,-3.0,-7.0,-3.0,-3.0,-2.0,1651023366628307.0
0.0,0.0,1.0,3.0,1.0,-1.0,-2.0,-1.0,1651023366628307.0
5.0,27.0,15.0,6.0,9.0,5.0,0.0,4.0,1651023366637284.0
15.0,2.0,-10.0,-1.0,-1.0,0.0,1.0,4.0,1651023366637284.0
-8.0,-14.0,3.0,-1.0,0.0,-3.0,0.0,-2.0,1651023366652243.0
-12.0,-37.0,-9.0,-5.0,-5.0,-3.0,-1.0,-6.0,1651023366652243.0
-3.0,-9.0,0.0,-4.0,-2.0,-3.0,1.0,-1.0,1651023366653240.0
2.0,11.0,1.0,3.0,2.0,1.0,-1.0,-3.0,1651023366653240.0
3.0,9.0,4.0,3.0,0.0,0.0,2.0,2.0,1651023366674623.0
5.0,8.0,-2.0,-18.0,-4.0,-4.0,-2.0,-1.0,1651023366674623.0
0.0,-8.0,5.0,16.0,0.0,-1.0,-1.0,-1.0,1651023366675595.0
-5.0,-8.0,-9.0,-8.0,1.0,1.0,-1.0,1.0,1651023366675595.0
4.0,32.0,9.0,1.0,0.0,-1.0,0.0,0.0,1651023366687575.0
2.0,2.0,2.0,2.0,-9.0,0.0,-1.0,-2.0,1651023366687575.0
-2.0,24.0,-5.0,-5.0,16.0,1.0,-1.0,-3.0,1651023366696562.0
-1.0,-6.0,3.0,-1.0,-8.0,-2.0,0.0,0.0,1651023366696562.0
-8.0,-32.0,-18.0,-1.0,-2.0,-3.0,0.0,-3.0,1651023366711527.0
-3.0,-6.0,0.0,-7.0,-5.0,-1.0,-1.0,-1.0,1651023366711527.0
-4.0,-9.0,0.0,-5.0,-8.0,-4.0,0.0,-2.0,1651023366713521.0
0.0,-7.0,2.0,2.0,4.0,2.0,-1.0,0.0,1651023366713521.0
-1.0,6.0,1.0,-1.0,-7.0,-2.0,-2.0,-1.0,1651023366734466.0
6.0,-7.0,1.0,9.0,12.0,-1.0,-1.0,-1.0,1651023366734466.0
-4.0,-16.0,-6.0,0.0,-3.0,1.0,-1.0,0.0,1651023366735462.0
0.0,13.0,4.0,5.0,1.0,0.0,1.0,1.0,1651023366735462.0
-1.0,-11.0,-5.0,-7.0,-7.0,-1.0,1.0,1.0,1651023366747534.0
2.0,12.0,0.0,0.0,-3.0,-1.0,-1.0,1.0,1651023366747534.0
7.0,3.0,3.0,7.0,10.0,1.0,0.0,-1.0,1651023366756576.0
-4.0,-1.0,-5.0,-7.0,-9.0,-3.0,-1.0,-3.0,1651023366756576.0
2.0,6.0,1.0,-5.0,2.0,2.0,0.0,-1.0,1651023366771472.0
0.0,2.0,-5.0,-4.0,-2.0,-1.0,1.0,0.0,1651023366771472.0
-3.0,9.0,6.0,5.0,-5.0,-1.0,-1.0,0.0,1651023366773467.0
6.0,6.0,-1.0,-7.0,-6.0,0.0,-1.0,2.0,1651023366773467.0
-1.0,4.0,12.0,23.0,-1.0,0.0,0.0,0.0,1651023366794609.0
4.0,13.0,2.0,-4.0,20.0,4.0,0.0,1.0,1651023366794609.0
5.0,23.0,-9.0,-8.0,-13.0,0.0,-1.0,2.0,1651023366795574.0
-5.0,-15.0,9.0,8.0,8.0,1.0,1.0,-3.0,1651023366795574.0
-2.0,6.0,-7.0,-6.0,-2.0,0.0,-3.0,1.0,1651023366808539.0
2.0,7.0,6.0,5.0,-4.0,-1.0,0.0,1.0,1651023366808539.0
-1.0,0.0,-1.0,-4.0,0.0,-3.0,-3.0,0.0,1651023366816575.0
-5.0,-12.0,-7.0,-2.0,-6.0,-3.0,-1.0,-1.0,1651023366816575.0
1.0,-7.0,1.0,-7.0,-5.0,-2.0,0.0,0.0,1651023366831540.0
-5.0,-3.0,-4.0,7.0,2.0,-1.0,0.0,-3.0,1651023366831540.0
-5.0,-24.0,3.0,1.0,4.0,1.0,0.0,-1.0,1651023366833473.0
-1.0,11.0,-1.0,-5.0,-5.0,-2.0,0.0,0.0,1651023366833473.0
-6.0,-21.0,-5.0,-1.0,4.0,-1.0,-1.0,-2.0,1651023366854024.0
2.0,5.0,0.0,4.0,-2.0,1.0,2.0,2.0,1651023366854024.0
4.0,7.0,-2.0,-7.0,-4.0,0.0,-1.0,-3.0,1651023366856047.0
0.0,-2.0,3.0,4.0,2.0,2.0,0.0,2.0,1651023366856047.0
12.0,21.0,-1.0,1.0,8.0,0.0,-1.0,1.0,1651023366867930.0
-3.0,-1.0,3.0,6.0,-4.0,-1.0,1.0,0.0,1651023366867930.0
-1.0,1.0,2.0,-1.0,5.0,0.0,0.0,-2.0,1651023366876909.0
2.0,-1.0,-1.0,3.0,-2.0,-1.0,0.0,1.0,1651023366876909.0
0.0,-10.0,-2.0,-6.0,-5.0,-4.0,-1.0,-1.0,1651023366891931.0
1.0,2.0,1.0,-7.0,-14.0,1.0,-2.0,-2.0,1651023366891931.0
-3.0,-7.0,-4.0,-1.0,10.0,-2.0,1.0,1.0,1651023366893864.0
7.0,8.0,0.0,3.0,8.0,-1.0,-1.0,0.0,1651023366893864.0
-3.0,33.0,9.0,8.0,0.0,0.0,0.0,1.0,1651023366914874.0
1.0,-8.0,6.0,9.0,3.0,-1.0,-1.0,-1.0,1651023366914874.0
-1.0,-9.0,-10.0,-7.0,-11.0,0.0,0.0,-1.0,1651023366915874.0
2.0,7.0,11.0,-2.0,0.0,0.0,-1.0,0.0,1651023366915874.0
-4.0,-14.0,-17.0,-9.0,-1.0,0.0,-2.0,-3.0,1651023366937254.0
-8.0,-9.0,4.0,1.0,-2.0,-1.0,0.0,-1.0,1651023366937254.0
-2.0,35.0,-3.0,-1.0,-1.0,-2.0,-3.0,-2.0,1651023366938906.0
4.0,21.0,2.0,-2.0,-1.0,-3.0,0.0,-1.0,1651023366938906.0
-5.0,-18.0,-2.0,-1.0,-1.0,1.0,1.0,0.0,1651023366951943.0
5.0,-4.0,-5.0,-2.0,-2.0,1.0,0.0,1.0,1651023366951943.0
-1.0,-22.0,2.0,-1.0,2.0,0.0,0.0,-1.0,1651023366952944.0
-4.0,-2.0,-3.0,-1.0,-2.0,1.0,0.0,-1.0,1651023366952944.0
3.0,11.0,4.0,0.0,-1.0,-1.0,-1.0,0.0,1651023366973987.0
2.0,-20.0,-6.0,-2.0,-4.0,-1.0,-1.0,-2.0,1651023366973987.0
-2.0,-14.0,0.0,1.0,3.0,0.0,0.0,0.0,1651023366975913.0
0.0,4.0,-1.0,2.0,-1.0,-1.0,0.0,0.0,1651023366975913.0
2.0,-7.0,-2.0,0.0,6.0,5.0,3.0,1.0,1651023366996915.0
-5.0,-12.0,-6.0,-5.0,0.0,-2.0,3.0,1.0,1651023366996915.0
-3.0,-5.0,3.0,4.0,-4.0,-1.0,-3.0,-4.0,1651023366998863.0
-2.0,-19.0,-7.0,-2.0,-8.0,-3.0,-2.0,-1.0,1651023366998863.0
7.0,29.0,9.0,-1.0,10.0,-1.0,-1.0,-1.0,1651023367011875.0
-3.0,12.0,-2.0,-2.0,3.0,0.0,0.0,-2.0,1651023367011875.0
-2.0,-8.0,0.0,-2.0,-5.0,-2.0,0.0,1.0,1651023367013811.0
-4.0,-24.0,-9.0,-1.0,1.0,0.0,-1.0,-1.0,1651023367013811.0
4.0,16.0,4.0,-3.0,-9.0,-3.0,-3.0,0.0,1651023367033880.0
4.0,32.0,5.0,0.0,0.0,-1.0,-3.0,-2.0,1651023367033880.0
-8.0,-47.0,-8.0,1.0,3.0,-2.0,-1.0,-1.0,1651023367035876.0
6.0,18.0,4.0,-1.0,-1.0,0.0,0.0,1.0,1651023367035876.0
-5.0,-21.0,-2.0,-1.0,-2.0,0.0,1.0,0.0,1651023367056818.0
2.0,12.0,0.0,-6.0,-2.0,-1.0,-2.0,0.0,1651023367056818.0
3.0,14.0,4.0,-2.0,2.0,2.0,1.0,-1.0,1651023367062803.0
-2.0,-7.0,-3.0,4.0,1.0,1.0,0.0,-2.0,1651023367062803.0
0.0,7.0,1.0,-4.0,-1.0,-1.0,-1.0,0.0,1651023367070780.0
-3.0,-12.0,-9.0,-12.0,-4.0,-3.0,-2.0,-1.0,1651023367070780.0
5.0,10.0,6.0,6.0,-3.0,-5.0,0.0,1.0,1651023367077790.0
-2.0,0.0,10.0,-6.0,-3.0,1.0,-1.0,-3.0,1651023367077790.0
3.0,-10.0,-9.0,3.0,3.0,1.0,0.0,1.0,1651023367094717.0
3.0,-30.0,-4.0,-1.0,3.0,2.0,2.0,0.0,1651023367094717.0
-7.0,-27.0,-8.0,-7.0,-3.0,1.0,-1.0,-1.0,1651023367095715.0
1.0,14.0,4.0,2.0,1.0,-3.0,-1.0,0.0,1651023367095715.0
-3.0,-10.0,-2.0,-3.0,-5.0,-4.0,0.0,-3.0,1651023367116686.0
3.0,13.0,1.0,0.0,-1.0,2.0,0.0,0.0,1651023367116686.0
2.0,2.0,1.0,2.0,-1.0,2.0,0.0,0.0,1651023367118673.0
1.0,1.0,0.0,2.0,-8.0,0.0,1.0,1.0,1651023367118673.0
-3.0,-10.0,-2.0,1.0,8.0,2.0,0.0,-2.0,1651023367130621.0
-1.0,5.0,1.0,6.0,4.0,1.0,0.0,-2.0,1651023367130621.0
2.0,14.0,3.0,4.0,6.0,-1.0,0.0,0.0,1651023367137630.0
-3.0,0.0,-5.0,-3.0,3.0,-1.0,-1.0,-2.0,1651023367137630.0
-3.0,1.0,-1.0,-3.0,-11.0,-3.0,-1.0,-1.0,1651023367154558.0
-3.0,-5.0,-1.0,2.0,0.0,-1.0,0.0,-1.0,1651023367154558.0
0.0,2.0,0.0,-2.0,0.0,0.0,1.0,0.0,1651023367155554.0
-7.0,-4.0,-7.0,-5.0,-8.0,-5.0,-3.0,-4.0,1651023367155554.0
-1.0,-6.0,2.0,3.0,5.0,1.0,-2.0,-1.0,1651023367177260.0
0.0,5.0,1.0,1.0,-1.0,-3.0,-1.0,1.0,1651023367177260.0
2.0,7.0,-2.0,-6.0,-3.0,1.0,1.0,2.0,1651023367178870.0
-2.0,7.0,15.0,3.0,2.0,2.0,-3.0,-3.0,1651023367178870.0
-7.0,-39.0,-25.0,-10.0,-3.0,-2.0,0.0,-1.0,1651023367190838.0
0.0,17.0,9.0,7.0,0.0,0.0,-1.0,-2.0,1651023367190838.0
3.0,12.0,0.0,9.0,1.0,1.0,-1.0,1.0,1651023367197855.0
2.0,6.0,3.0,-2.0,11.0,0.0,2.0,1.0,1651023367197855.0
0.0,3.0,7.0,2.0,-5.0,0.0,0.0,-3.0,1651023367221912.0
0.0,3.0,-6.0,-9.0,-4.0,-1.0,-2.0,0.0,1651023367221912.0
-3.0,-8.0,-3.0,-4.0,-8.0,-3.0,-1.0,-3.0,1651023367222910.0
3.0,-2.0,0.0,4.0,0.0,0.0,0.0,1.0,1651023367222910.0
-1.0,2.0,2.0,1.0,-1.0,-2.0,0.0,-1.0,1651023367236968.0
-2.0,-6.0,-7.0,0.0,3.0,0.0,-1.0,-1.0,1651023367236968.0
-2.0,8.0,2.0,-3.0,0.0,0.0,-1.0,-1.0,1651023367237898.0
-4.0,-3.0,-7.0,-4.0,1.0,-1.0,2.0,0.0,1651023367237898.0
3.0,2.0,6.0,9.0,0.0,1.0,1.0,5.0,1651023367250930.0
1.0,15.0,4.0,3.0,-1.0,-3.0,0.0,-1.0,1651023367250930.0
2.0,4.0,-3.0,-6.0,-5.0,-2.0,-2.0,-3.0,1651023367257912.0
-4.0,-8.0,-3.0,-8.0,-9.0,-3.0,0.0,-1.0,1651023367257912.0
-3.0,-8.0,12.0,4.0,3.0,1.0,-1.0,-1.0,1651023367273992.0
-3.0,-23.0,-13.0,9.0,-18.0,-3.0,0.0,-1.0,1651023367273992.0
3.0,43.0,15.0,2.0,30.0,4.0,-1.0,-2.0,1651023367275919.0
-2.0,-37.0,-13.0,-5.0,-9.0,0.0,1.0,0.0,1651023367275919.0
1.0,10.0,4.0,-3.0,1.0,-1.0,0.0,-1.0,1651023367304116.0
-1.0,-1.0,3.0,-1.0,0.0,-2.0,-1.0,-1.0,1651023367304116.0
0.0,-9.0,-4.0,-1.0,-7.0,-3.0,0.0,1.0,1651023367306042.0
0.0,12.0,-7.0,-3.0,-4.0,-2.0,-4.0,-2.0,1651023367306042.0
0.0,5.0,8.0,0.0,0.0,-2.0,0.0,0.0,1651023367311029.0
1.0,1.0,3.0,-1.0,2.0,0.0,-1.0,-1.0,1651023367311029.0
-5.0,-22.0,-6.0,3.0,-2.0,0.0,-1.0,0.0,1651023367318010.0
6.0,18.0,11.0,11.0,10.0,3.0,2.0,2.0,1651023367318010.0
-5.0,-2.0,-12.0,-6.0,-10.0,-2.0,-2.0,-3.0,1651023367341953.0
1.0,5.0,15.0,-2.0,-1.0,0.0,0.0,0.0,1651023367341953.0
0.0,-10.0,-17.0,0.0,6.0,-4.0,0.0,1.0,1651023367343885.0
2.0,-2.0,-12.0,0.0,8.0,8.0,4.0,2.0,1651023367343885.0
1.0,7.0,11.0,-1.0,-1.0,-1.0,0.0,0.0,1651023367356702.0
0.0,-3.0,5.0,2.0,4.0,-1.0,-1.0,0.0,1651023367356702.0
-3.0,-2.0,4.0,-3.0,-9.0,-1.0,-1.0,-2.0,1651023367358702.0
2.0,-5.0,-6.0,-6.0,-6.0,-5.0,-2.0,-2.0,1651023367358702.0
0.0,2.0,-8.0,-5.0,-5.0,-4.0,-2.0,-1.0,1651023367371744.0
-2.0,5.0,8.0,7.0,14.0,4.0,-1.0,1.0,1651023367371744.0
-2.0,-13.0,-2.0,-2.0,-6.0,0.0,1.0,0.0,1651023367377749.0
-4.0,5.0,4.0,5.0,1.0,1.0,-1.0,-1.0,1651023367377749.0
4.0,20.0,-1.0,-1.0,-6.0,-1.0,0.0,1.0,1651023367393917.0
-1.0,2.0,-5.0,-5.0,10.0,-2.0,-1.0,-2.0,1651023367393917.0
-4.0,-16.0,-15.0,-18.0,-19.0,-3.0,-1.0,-5.0,1651023367395912.0
1.0,6.0,12.0,30.0,-2.0,-3.0,-1.0,1.0,1651023367395912.0
-3.0,0.0,13.0,8.0,26.0,8.0,-1.0,0.0,1651023367417086.0
6.0,-1.0,-10.0,0.0,4.0,8.0,6.0,5.0,1651023367417086.0
1.0,16.0,5.0,7.0,-1.0,-3.0,-3.0,-2.0,1651023367418014.0
0.0,0.0,13.0,-10.0,-21.0,-3.0,0.0,-1.0,1651023367418014.0
-3.0,-13.0,-46.0,-13.0,-3.0,-6.0,-4.0,-4.0,1651023367430979.0
1.0,7.0,2.0,-1.0,9.0,2.0,0.0,0.0,1651023367430979.0
-1.0,-3.0,20.0,9.0,4.0,0.0,2.0,1.0,1651023367439960.0
-6.0,-10.0,-7.0,-10.0,-6.0,-16.0,-2.0,-5.0,1651023367439960.0
-2.0,0.0,15.0,9.0,9.0,25.0,4.0,0.0,1651023367453844.0
1.0,-7.0,-20.0,-8.0,-12.0,-4.0,-1.0,0.0,1651023367453844.0
-7.0,0.0,1.0,-12.0,-24.0,-8.0,-5.0,-6.0,1651023367461851.0
3.0,3.0,0.0,8.0,32.0,3.0,-3.0,4.0,1651023367461851.0
-4.0,7.0,14.0,7.0,-4.0,-5.0,1.0,-2.0,1651023367476982.0
5.0,0.0,-3.0,-6.0,-3.0,3.0,3.0,4.0,1651023367476982.0
-7.0,-15.0,-35.0,-7.0,-5.0,-3.0,2.0,5.0,1651023367477912.0
-18.0,-12.0,29.0,-7.0,-24.0,-28.0,-9.0,-9.0,1651023367477912.0
4.0,-4.0,4.0,33.0,33.0,53.0,7.0,-1.0,1651023367490958.0
-2.0,-6.0,-24.0,7.0,2.0,12.0,3.0,1.0,1651023367490958.0
4.0,22.0,53.0,-7.0,11.0,1.0,3.0,0.0,1651023367499989.0
3.0,-8.0,-17.0,38.0,29.0,18.0,3.0,2.0,1651023367499989.0
-7.0,-15.0,-39.0,-31.0,-31.0,-46.0,-10.0,-5.0,1651023367514087.0
-3.0,1.0,8.0,-4.0,0.0,2.0,-5.0,-8.0,1651023367514087.0
4.0,-12.0,-44.0,-6.0,9.0,10.0,10.0,5.0,1651023367516114.0
1.0,18.0,45.0,-5.0,-1.0,2.0,-4.0,-2.0,1651023367516114.0
3.0,-7.0,-14.0,-1.0,-17.0,-9.0,-1.0,1.0,1651023367536978.0
-9.0,13.0,47.0,-12.0,-8.0,-15.0,-6.0,-8.0,1651023367536978.0
6.0,11.0,3.0,18.0,9.0,-5.0,-1.0,1.0,1651023367537937.0
2.0,2.0,-17.0,-19.0,-9.0,-11.0,-7.0,-2.0,1651023367537937.0
-2.0,2.0,-21.0,-18.0,-2.0,4.0,-5.0,-6.0,1651023367550947.0
9.0,-5.0,-5.0,-3.0,-14.0,-11.0,12.0,16.0,1651023367550947.0
20.0,-6.0,0.0,22.0,28.0,32.0,24.0,22.0,1651023367559867.0
19.0,16.0,-2.0,-6.0,6.0,31.0,36.0,18.0,1651023367559867.0
-32.0,-18.0,-7.0,-27.0,-30.0,-49.0,-68.0,-20.0,1651023367573969.0
-18.0,-12.0,-10.0,12.0,16.0,-20.0,-10.0,-22.0,1651023367573969.0
10.0,22.0,13.0,-13.0,-19.0,-11.0,-2.0,-4.0,1651023367575896.0
34.0,20.0,23.0,19.0,4.0,-4.0,15.0,10.0,1651023367575896.0
-12.0,-22.0,-42.0,-56.0,-23.0,-19.0,-28.0,2.0,1651023367596840.0
-25.0,-11.0,13.0,0.0,23.0,79.0,22.0,-23.0,1651023367596840.0
-23.0,12.0,-2.0,0.0,-13.0,-30.0,-36.0,-12.0,1651023367598834.0
37.0,-11.0,7.0,24.0,9.0,23.0,36.0,27.0,1651023367598834.0
-6.0,30.0,11.0,-14.0,-8.0,-12.0,79.0,-4.0,1651023367611023.0
30.0,23.0,-14.0,-65.0,-36.0,-51.0,-15.0,13.0,1651023367611023.0
-28.0,-16.0,10.0,90.0,54.0,22.0,-85.0,-38.0,1651023367619907.0
-12.0,-45.0,-17.0,-39.0,-12.0,-6.0,46.0,-8.0,1651023367619907.0
-46.0,15.0,-15.0,-28.0,-4.0,22.0,73.0,11.0,1651023367633897.0
36.0,2.0,11.0,49.0,16.0,37.0,-15.0,25.0,1651023367633897.0
72.0,58.0,-22.0,-87.0,-36.0,-33.0,-7.0,-4.0,1651023367635865.0
-68.0,-44.0,1.0,33.0,5.0,-20.0,-64.0,2.0,1651023367635865.0
5.0,-13.0,24.0,58.0,12.0,-71.0,-76.0,-39.0,1651023367656867.0
25.0,-2.0,-53.0,-98.0,-31.0,40.0,42.0,2.0,1651023367656867.0
-59.0,-25.0,14.0,43.0,12.0,60.0,33.0,-4.0,1651023367658864.0
25.0,8.0,20.0,44.0,19.0,9.0,-11.0,6.0,1651023367658864.0
18.0,20.0,10.0,-24.0,8.0,55.0,83.0,36.0,1651023367670923.0
-16.0,-23.0,5.0,33.0,15.0,-29.0,-12.0,1.0,1651023367670923.0
8.0,-71.0,-35.0,-54.0,-35.0,-41.0,-19.0,4.0,1651023367679808.0
0.0,71.0,-2.0,-16.0,-3.0,23.0,-5.0,-27.0,1651023367679808.0
-5.0,-9.0,9.0,-1.0,-2.0,1.0,2.0,12.0,1651023367693877.0
-9.0,3.0,7.0,-22.0,-30.0,-32.0,-25.0,-16.0,1651023367693877.0
-11.0,-49.0,8.0,75.0,28.0,-19.0,-6.0,0.0,1651023367695874.0
-44.0,-11.0,-51.0,-51.0,-14.0,13.0,4.0,-28.0,1651023367695874.0
62.0,23.0,27.0,20.0,7.0,15.0,-40.0,20.0,1651023367716978.0
24.0,52.0,-18.0,-69.0,-35.0,-11.0,-13.0,0.0,1651023367716978.0
-72.0,-58.0,48.0,79.0,67.0,26.0,111.0,16.0,1651023367717935.0
18.0,-20.0,-22.0,-19.0,-13.0,-51.0,-120.0,-12.0,1651023367717935.0
5.0,-30.0,23.0,22.0,7.0,-16.0,0.0,-10.0,1651023367730903.0
-38.0,51.0,15.0,22.0,24.0,42.0,19.0,-7.0,1651023367730903.0
80.0,3.0,-17.0,-58.0,-49.0,-41.0,-11.0,5.0,1651023367739850.0
-6.0,28.0,22.0,11.0,12.0,68.0,127.0,30.0,1651023367739850.0
-31.0,-43.0,-19.0,9.0,13.0,-32.0,-115.0,-40.0,1651023367754810.0
-26.0,-41.0,7.0,37.0,17.0,-31.0,15.0,4.0,1651023367754810.0
-13.0,18.0,-13.0,-30.0,-20.0,45.0,13.0,-13.0,1651023367755908.0
2.0,-43.0,-33.0,-3.0,16.0,-22.0,6.0,8.0,1651023367755908.0
49.0,27.0,-10.0,-13.0,-7.0,13.0,36.0,17.0,1651023367776764.0
0.0,-28.0,-6.0,-4.0,-12.0,-7.0,24.0,16.0,1651023367776764.0
-25.0,27.0,10.0,26.0,3.0,-15.0,-75.0,-14.0,1651023367778773.0
24.0,-25.0,-28.0,-92.0,-23.0,41.0,49.0,11.0,1651023367778773.0
-38.0,28.0,51.0,65.0,38.0,16.0,-5.0,-5.0,1651023367791019.0
85.0,-23.0,-1.0,12.0,20.0,-5.0,10.0,25.0,1651023367791019.0
-40.0,-3.0,-26.0,-36.0,-19.0,-24.0,11.0,-3.0,1651023367799929.0
-22.0,31.0,17.0,18.0,-6.0,-49.0,-52.0,-22.0,1651023367799929.0
9.0,-34.0,-8.0,-18.0,1.0,51.0,19.0,21.0,1651023367813949.0
-8.0,50.0,5.0,1.0,1.0,10.0,47.0,-3.0,1651023367813949.0
64.0,37.0,32.0,9.0,7.0,0.0,-29.0,9.0,1651023367820933.0
-10.0,-2.0,-20.0,-11.0,-6.0,-22.0,31.0,1.0,1651023367820933.0
3.0,8.0,-1.0,-11.0,2.0,12.0,-51.0,-11.0,1651023367836977.0
8.0,-10.0,13.0,36.0,19.0,50.0,36.0,7.0,1651023367836977.0
0.0,27.0,11.0,-9.0,-10.0,-22.0,-34.0,-6.0,1651023367838003.0
-36.0,21.0,3.0,3.0,7.0,8.0,14.0,-8.0,1651023367838003.0
49.0,-33.0,-6.0,-27.0,-20.0,-18.0,69.0,30.0,1651023367858988.0
-75.0,-19.0,19.0,57.0,7.0,-42.0,-105.0,-41.0,1651023367858988.0
66.0,39.0,7.0,-23.0,3.0,21.0,101.0,45.0,1651023367860923.0
-23.0,-27.0,-33.0,-55.0,-28.0,-39.0,-108.0,-33.0,1651023367860923.0
30.0,37.0,32.0,84.0,26.0,0.0,-1.0,1.0,1651023367873880.0
-18.0,-24.0,1.0,1.0,-21.0,-17.0,11.0,4.0,1651023367873880.0
17.0,0.0,-1.0,-14.0,21.0,43.0,71.0,21.0,1651023367880877.0
14.0,-4.0,-22.0,-11.0,2.0,16.0,-4.0,5.0,1651023367880877.0
-53.0,17.0,19.0,36.0,-2.0,1.0,47.0,-14.0,1651023367896866.0
23.0,12.0,0.0,-13.0,-4.0,-14.0,-49.0,-12.0,1651023367896866.0
12.0,-32.0,-28.0,3.0,3.0,7.0,-35.0,-13.0,1651023367897893.0
0.0,5.0,8.0,-5.0,-23.0,-61.0,-6.0,16.0,1651023367897893.0
-22.0,-39.0,-19.0,-23.0,-11.0,10.0,-62.0,-40.0,1651023367919040.0
-24.0,-1.0,12.0,16.0,24.0,70.0,69.0,28.0,1651023367919040.0
-9.0,-5.0,-5.0,-10.0,-3.0,30.0,61.0,7.0,1651023367920994.0
-20.0,-4.0,6.0,19.0,6.0,-12.0,-33.0,-16.0,1651023367920994.0
26.0,-26.0,-35.0,-40.0,-24.0,-27.0,-50.0,-3.0,1651023367934094.0
-6.0,28.0,12.0,25.0,1.0,-25.0,-6.0,-11.0,1651023367934094.0
-37.0,36.0,7.0,-62.0,-29.0,-35.0,24.0,-9.0,1651023367940878.0
18.0,5.0,-3.0,57.0,11.0,14.0,4.0,2.0,1651023367940878.0
12.0,-27.0,17.0,4.0,3.0,0.0,-59.0,-9.0,1651023367956907.0
-14.0,38.0,-6.0,-26.0,3.0,-23.0,-6.0,-1.0,1651023367956907.0
12.0,-7.0,-1.0,31.0,-7.0,-7.0,-13.0,-2.0,1651023367957924.0
25.0,28.0,24.0,11.0,21.0,24.0,33.0,13.0,1651023367957924.0
-71.0,30.0,-11.0,-23.0,-2.0,12.0,37.0,12.0,1651023367979476.0
5.0,-40.0,-22.0,-14.0,-10.0,-2.0,-23.0,-7.0,1651023367979476.0
-64.0,-21.0,-8.0,-6.0,-4.0,2.0,-5.0,-20.0,1651023367980500.0
-33.0,-33.0,-5.0,-4.0,-11.0,-10.0,-31.0,-28.0,1651023367980500.0
16.0,19.0,-6.0,-5.0,-1.0,1.0,45.0,28.0,1651023367993053.0
6.0,-27.0,-13.0,-16.0,-17.0,-63.0,-42.0,-14.0,1651023367993053.0
-41.0,24.0,29.0,24.0,24.0,50.0,32.0,4.0,1651023368002007.0
74.0,-6.0,5.0,4.0,1.0,13.0,-11.0,4.0,1651023368002007.0
35.0,-3.0,-5.0,-9.0,1.0,6.0,27.0,7.0,1651023368017869.0
-21.0,-15.0,-3.0,2.0,-21.0,-45.0,-1.0,-2.0,1651023368017869.0
15.0,4.0,-30.0,-72.0,-32.0,-7.0,-33.0,-7.0,1651023368019868.0
-5.0,4.0,22.0,20.0,30.0,32.0,50.0,7.0,1651023368019868.0
-19.0,-18.0,-1.0,-18.0,2.0,-4.0,-66.0,-11.0,1651023368039035.0
27.0,3.0,36.0,78.0,16.0,8.0,13.0,3.0,1651023368039035.0
-10.0,-25.0,-48.0,-60.0,-30.0,-34.0,-50.0,-9.0,1651023368040966.0
-60.0,1.0,-13.0,5.0,-7.0,-2.0,11.0,6.0,1651023368040966.0
53.0,44.0,28.0,-13.0,-2.0,8.0,68.0,19.0,1651023368054569.0
-33.0,-20.0,-6.0,1.0,9.0,28.0,30.0,-1.0,1651023368054569.0
-31.0,10.0,32.0,32.0,19.0,-3.0,-95.0,-33.0,1651023368060888.0
90.0,-40.0,-27.0,-30.0,-23.0,-18.0,16.0,16.0,1651023368060888.0
-35.0,12.0,7.0,21.0,9.0,-11.0,3.0,-1.0,1651023368076824.0
8.0,7.0,3.0,-23.0,1.0,24.0,-5.0,9.0,1651023368076824.0
39.0,14.0,17.0,27.0,12.0,-2.0,78.0,29.0,1651023368078805.0
-38.0,-3.0,8.0,0.0,4.0,13.0,-29.0,-25.0,1651023368078805.0
2.0,-6.0,-29.0,-21.0,-23.0,-26.0,-18.0,-1.0,1651023368098948.0
12.0,-1.0,1.0,-6.0,19.0,82.0,93.0,32.0,1651023368098948.0
-9.0,-2.0,3.0,14.0,9.0,-45.0,-82.0,-26.0,1651023368100945.0
1.0,0.0,17.0,15.0,2.0,-4.0,-9.0,-11.0,1651023368100945.0
-19.0,2.0,-15.0,-66.0,-25.0,-9.0,9.0,-9.0,1651023368113979.0
12.0,29.0,33.0,79.0,20.0,-18.0,3.0,11.0,1651023368113979.0
27.0,-69.0,-37.0,-31.0,-3.0,22.0,82.0,11.0,1651023368120959.0
-34.0,40.0,21.0,29.0,-8.0,-22.0,-70.0,-10.0,1651023368120959.0
-15.0,21.0,-12.0,-4.0,13.0,1.0,-8.0,1.0,1651023368136915.0
-38.0,-28.0,-36.0,-54.0,-17.0,-11.0,-43.0,-15.0,1651023368136915.0
-2.0,29.0,37.0,37.0,13.0,1.0,-17.0,-9.0,1651023368138844.0
-26.0,-12.0,-14.0,-32.0,-14.0,4.0,30.0,3.0,1651023368138844.0
21.0,-31.0,-2.0,8.0,-2.0,15.0,31.0,7.0,1651023368159021.0
34.0,-6.0,-19.0,-9.0,2.0,-2.0,-25.0,-20.0,1651023368159021.0
0.0,-5.0,-8.0,-3.0,-15.0,-27.0,11.0,14.0,1651023368160949.0
3.0,-1.0,-10.0,-12.0,0.0,40.0,-9.0,18.0,1651023368160949.0
-11.0,15.0,28.0,37.0,10.0,-23.0,-11.0,-1.0,1651023368173928.0
14.0,-36.0,-21.0,-33.0,-15.0,-35.0,-52.0,-11.0,1651023368173928.0
12.0,26.0,9.0,21.0,19.0,22.0,9.0,4.0,1651023368180963.0
6.0,9.0,-26.0,-75.0,-21.0,-14.0,26.0,20.0,1651023368180963.0
-44.0,-42.0,35.0,96.0,47.0,79.0,65.0,-17.0,1651023368196759.0
65.0,50.0,2.0,12.0,5.0,-33.0,-68.0,-13.0,1651023368196759.0
-18.0,20.0,15.0,-14.0,-21.0,-27.0,-13.0,2.0,1651023368198753.0
-22.0,-12.0,-6.0,20.0,9.0,-20.0,1.0,-9.0,1651023368198753.0
20.0,21.0,-23.0,-35.0,-15.0,-5.0,19.0,1.0,1651023368219733.0
-24.0,-7.0,1.0,-22.0,-18.0,5.0,33.0,6.0,1651023368219733.0
0.0,25.0,11.0,34.0,22.0,14.0,11.0,1.0,1651023368220706.0
29.0,-5.0,2.0,-3.0,0.0,-4.0,-17.0,1.0,1651023368220706.0
-26.0,-4.0,-8.0,4.0,4.0,3.0,3.0,3.0,1651023368233723.0
25.0,23.0,6.0,-10.0,-11.0,-14.0,59.0,23.0,1651023368233723.0
41.0,-20.0,-6.0,-15.0,-20.0,-19.0,-101.0,-31.0,1651023368240649.0
-28.0,-17.0,0.0,20.0,22.0,33.0,52.0,7.0,1651023368240649.0
65.0,6.0,1.0,-10.0,0.0,-1.0,-25.0,6.0,1651023368256923.0
-37.0,-15.0,-11.0,-1.0,0.0,-4.0,-7.0,-10.0,1651023368256923.0
47.0,33.0,27.0,-4.0,-4.0,8.0,38.0,25.0,1651023368257908.0
-25.0,-36.0,-7.0,2.0,-12.0,24.0,57.0,7.0,1651023368257908.0
13.0,6.0,-1.0,7.0,1.0,-33.0,-105.0,-32.0,1651023368278982.0
-34.0,-6.0,-8.0,-8.0,3.0,7.0,32.0,-5.0,1651023368278982.0
-13.0,-49.0,-53.0,-103.0,-38.0,-26.0,-45.0,-16.0,1651023368280975.0
7.0,44.0,47.0,113.0,36.0,0.0,-5.0,-24.0,1651023368280975.0
-29.0,-15.0,-17.0,-21.0,-20.0,-15.0,-7.0,4.0,1651023368294006.0
7.0,13.0,-9.0,-30.0,-15.0,9.0,5.0,-3.0,1651023368294006.0
6.0,-38.0,-21.0,22.0,25.0,23.0,26.0,10.0,1651023368300948.0
5.0,15.0,1.0,-43.0,-20.0,-26.0,2.0,1.0,1651023368300948.0
-39.0,18.0,0.0,-8.0,-7.0,6.0,29.0,2.0,1651023368316946.0
51.0,24.0,41.0,43.0,18.0,1.0,-41.0,5.0,1651023368316946.0
1.0,-5.0,-9.0,-12.0,-2.0,25.0,45.0,20.0,1651023368318873.0
12.0,2.0,0.0,-5.0,-7.0,-16.0,-23.0,-13.0,1651023368318873.0
15.0,14.0,8.0,21.0,12.0,34.0,13.0,17.0,1651023368339887.0
25.0,5.0,4.0,-17.0,-3.0,10.0,14.0,14.0,1651023368339887.0
-50.0,-16.0,4.0,17.0,3.0,19.0,21.0,-17.0,1651023368340885.0
6.0,-1.0,4.0,-5.0,-19.0,-15.0,-2.0,27.0,1651023368340885.0
-16.0,13.0,-5.0,-46.0,-14.0,-49.0,-66.0,-39.0,1651023368353115.0
1.0,-12.0,-6.0,13.0,38.0,35.0,34.0,23.0,1651023368353115.0
-46.0,-63.0,-11.0,13.0,-6.0,-22.0,-39.0,-7.0,1651023368361871.0
40.0,39.0,-15.0,-36.0,-5.0,-13.0,-19.0,-19.0,1651023368361871.0
35.0,-8.0,-14.0,-9.0,-14.0,14.0,51.0,30.0,1651023368376835.0
-29.0,-11.0,5.0,-6.0,-21.0,-7.0,7.0,-8.0,1651023368376835.0
37.0,12.0,-15.0,-12.0,-2.0,-8.0,0.0,0.0,1651023368378826.0
-13.0,18.0,37.0,57.0,38.0,21.0,-5.0,3.0,1651023368378826.0
15.0,-10.0,-23.0,-22.0,-3.0,6.0,38.0,8.0,1651023368399811.0
26.0,15.0,-4.0,-8.0,-12.0,-20.0,1.0,-12.0,1651023368399811.0
-9.0,9.0,16.0,13.0,5.0,-29.0,-20.0,3.0,1651023368400767.0
-16.0,13.0,12.0,-4.0,8.0,57.0,-33.0,-14.0,1651023368400767.0
-39.0,-5.0,6.0,-1.0,6.0,2.0,32.0,12.0,1651023368412764.0
-42.0,-48.0,-10.0,15.0,-11.0,16.0,-33.0,-12.0,1651023368412764.0
-45.0,60.0,16.0,20.0,5.0,-14.0,-33.0,-26.0,1651023368421710.0
30.0,-35.0,-47.0,-38.0,-9.0,-21.0,2.0,15.0,1651023368421710.0
-16.0,-16.0,-8.0,-9.0,-1.0,2.0,16.0,1.0,1651023368436734.0
-27.0,4.0,44.0,31.0,9.0,4.0,61.0,-3.0,1651023368436734.0
-3.0,-14.0,-48.0,-60.0,-20.0,-11.0,-29.0,1.0,1651023368438666.0
5.0,23.0,36.0,25.0,3.0,-14.0,-16.0,-4.0,1651023368438666.0
-1.0,-12.0,19.0,54.0,36.0,14.0,-40.0,-6.0,1651023368459677.0
27.0,22.0,-23.0,-40.0,-32.0,-43.0,-3.0,-10.0,1651023368459677.0
23.0,24.0,7.0,-19.0,8.0,40.0,62.0,21.0,1651023368460617.0
-22.0,-9.0,11.0,28.0,1.0,3.0,3.0,5.0,1651023368460617.0
24.0,7.0,-5.0,-28.0,-11.0,-6.0,31.0,20.0,1651023368472619.0
26.0,-26.0,-23.0,-3.0,13.0,10.0,-29.0,-6.0,1651023368472619.0
-5.0,-16.0,8.0,27.0,2.0,14.0,29.0,-1.0,1651023368481612.0
-19.0,20.0,-7.0,-32.0,-18.0,-26.0,-47.0,-8.0,1651023368481612.0
71.0,4.0,22.0,30.0,2.0,-21.0,-4.0,12.0,1651023368496592.0
-82.0,-25.0,-15.0,-6.0,7.0,3.0,21.0,6.0,1651023368496592.0
3.0,7.0,0.0,4.0,2.0,26.0,-79.0,-28.0,1651023368498617.0
-27.0,-70.0,-21.0,-19.0,-4.0,5.0,29.0,-1.0,1651023368498617.0
-20.0,77.0,13.0,-9.0,-6.0,5.0,22.0,-7.0,1651023368519601.0
65.0,-43.0,-28.0,8.0,-3.0,-27.0,-62.0,-18.0,1651023368519601.0
-23.0,-13.0,-14.0,-60.0,-35.0,-31.0,13.0,-7.0,1651023368520557.0
28.0,37.0,67.0,106.0,70.0,42.0,42.0,23.0,1651023368520557.0
16.0,-36.0,-6.0,-16.0,-17.0,-45.0,-86.0,-19.0,1651023368532563.0
-30.0,24.0,-17.0,-67.0,-17.0,1.0,16.0,5.0,1651023368532563.0
-2.0,4.0,27.0,62.0,21.0,19.0,45.0,24.0,1651023368542478.0
27.0,-25.0,-27.0,-29.0,-13.0,-11.0,11.0,-8.0,1651023368542478.0
-21.0,-7.0,-6.0,-21.0,-4.0,-5.0,3.0,-4.0,1651023368556630.0
7.0,10.0,22.0,27.0,18.0,16.0,-4.0,3.0,1651023368556630.0
28.0,23.0,3.0,-3.0,-6.0,-2.0,5.0,5.0,1651023368558589.0
-16.0,-4.0,-31.0,-47.0,-32.0,-39.0,4.0,-2.0,1651023368558589.0
0.0,13.0,21.0,31.0,5.0,12.0,11.0,6.0,1651023368579502.0
-7.0,-4.0,-9.0,-20.0,-6.0,-31.0,-9.0,10.0,1651023368579502.0
-93.0,24.0,21.0,35.0,38.0,105.0,81.0,-16.0,1651023368580505.0
83.0,-30.0,-41.0,-35.0,-32.0,-70.0,-74.0,-14.0,1651023368580505.0
-27.0,-18.0,-10.0,1.0,2.0,10.0,-10.0,-12.0,1651023368592535.0
-2.0,9.0,-22.0,-50.0,-13.0,15.0,60.0,5.0,1651023368592535.0
-28.0,-13.0,53.0,100.0,25.0,-40.0,-56.0,-11.0,1651023368602468.0
-16.0,21.0,-2.0,-9.0,0.0,4.0,18.0,5.0,1651023368602468.0
15.0,-13.0,-37.0,-35.0,-20.0,-6.0,-29.0,-8.0,1651023368617250.0
-17.0,-6.0,9.0,11.0,-11.0,4.0,-4.0,-4.0,1651023368617250.0
22.0,-3.0,7.0,32.0,20.0,10.0,8.0,9.0,1651023368618902.0
16.0,10.0,-5.0,-14.0,8.0,16.0,19.0,2.0,1651023368618902.0
-5.0,-24.0,7.0,37.0,12.0,15.0,86.0,28.0,1651023368638842.0
-31.0,-11.0,0.0,-1.0,-15.0,-29.0,-97.0,-48.0,1651023368638842.0
35.0,-5.0,-37.0,-52.0,-26.0,-13.0,0.0,7.0,1651023368640837.0
2.0,17.0,22.0,5.0,-2.0,-16.0,-14.0,0.0,1651023368640837.0
-7.0,10.0,2.0,-7.0,-14.0,-37.0,-10.0,-15.0,1651023368652873.0
5.0,1.0,11.0,22.0,16.0,20.0,-15.0,1.0,1651023368652873.0
65.0,-16.0,-11.0,-14.0,-3.0,14.0,25.0,22.0,1651023368661780.0
-30.0,-4.0,-1.0,-5.0,14.0,60.0,99.0,3.0,1651023368661780.0
13.0,8.0,-8.0,-14.0,-11.0,-48.0,-73.0,-20.0,1651023368676808.0
32.0,10.0,17.0,31.0,-17.0,-58.0,-32.0,-2.0,1651023368676808.0
-12.0,-2.0,-1.0,-20.0,-17.0,-52.0,-47.0,-14.0,1651023368678759.0
-16.0,-17.0,-35.0,-58.0,-22.0,8.0,28.0,7.0,1651023368678759.0
-2.0,8.0,23.0,28.0,32.0,49.0,37.0,3.0,1651023368699681.0
2.0,15.0,30.0,60.0,21.0,10.0,-13.0,6.0,1651023368699681.0
10.0,40.0,-20.0,-22.0,1.0,-6.0,12.0,3.0,1651023368701699.0
-9.0,0.0,5.0,-35.0,-15.0,3.0,-22.0,-6.0,1651023368701699.0
-5.0,-32.0,-10.0,12.0,12.0,3.0,27.0,6.0,1651023368713103.0
1.0,7.0,-13.0,-36.0,-14.0,-8.0,-12.0,0.0,1651023368713103.0
-4.0,2.0,14.0,5.0,-5.0,-23.0,-3.0,-5.0,1651023368729952.0
-91.0,7.0,10.0,10.0,15.0,72.0,81.0,-4.0,1651023368729952.0
98.0,0.0,8.0,-5.0,-10.0,-37.0,-85.0,-13.0,1651023368737270.0
-63.0,-11.0,-11.0,4.0,2.0,18.0,41.0,-4.0,1651023368737270.0
-7.0,-25.0,-13.0,-9.0,-13.0,-48.0,5.0,7.0,1651023368738890.0
-10.0,19.0,7.0,20.0,17.0,48.0,-13.0,-13.0,1651023368738890.0
-28.0,-11.0,-1.0,-21.0,1.0,30.0,49.0,19.0,1651023368759849.0
21.0,15.0,8.0,15.0,16.0,23.0,20.0,15.0,1651023368759849.0
9.0,12.0,41.0,33.0,-6.0,-40.0,-33.0,-11.0,1651023368760841.0
16.0,-11.0,-21.0,18.0,8.0,-12.0,-17.0,13.0,1651023368760841.0
-14.0,-4.0,13.0,-7.0,11.0,20.0,7.0,-8.0,1651023368772871.0
9.0,-22.0,-20.0,10.0,7.0,0.0,0.0,6.0,1651023368772871.0
-17.0,-10.0,-11.0,-23.0,-3.0,10.0,-3.0,-5.0,1651023368781782.0
40.0,27.0,20.0,12.0,-10.0,-47.0,-3.0,11.0,1651023368781782.0
-17.0,-5.0,-19.0,-1.0,-19.0,2.0,7.0,9.0,1651023368796842.0
-17.0,2.0,1.0,-28.0,-13.0,-11.0,-25.0,-30.0,1651023368796842.0
16.0,1.0,11.0,5.0,13.0,-11.0,25.0,27.0,1651023368798858.0
4.0,-19.0,-1.0,17.0,7.0,40.0,-8.0,-8.0,1651023368798858.0
-11.0,-1.0,-8.0,-5.0,-3.0,0.0,-9.0,-3.0,1651023368819141.0
0.0,22.0,9.0,-6.0,-6.0,-13.0,15.0,9.0,1651023368819141.0
-7.0,-17.0,-26.0,-13.0,-8.0,23.0,-3.0,-2.0,1651023368821068.0
15.0,-5.0,4.0,-5.0,-22.0,-90.0,-66.0,-12.0,1651023368821068.0
-20.0,12.0,-3.0,-2.0,-8.0,21.0,12.0,-1.0,1651023368840958.0
8.0,4.0,9.0,10.0,26.0,19.0,24.0,4.0,1651023368840958.0
2.0,-6.0,-3.0,11.0,7.0,-1.0,-4.0,-4.0,1651023368849870.0
-3.0,-7.0,2.0,-7.0,-1.0,-11.0,-13.0,-3.0,1651023368849870.0
-5.0,-2.0,-13.0,4.0,-6.0,10.0,10.0,-4.0,1651023368857249.0
-1.0,-8.0,-2.0,-10.0,-24.0,-32.0,-5.0,4.0,1651023368857249.0
-2.0,-2.0,-3.0,-10.0,4.0,12.0,2.0,-11.0,1651023368858869.0
4.0,8.0,13.0,11.0,24.0,27.0,1.0,5.0,1651023368858869.0
-2.0,12.0,12.0,9.0,-6.0,-14.0,13.0,3.0,1651023368879936.0
3.0,-14.0,-28.0,-3.0,14.0,30.0,0.0,2.0,1651023368879936.0
-4.0,1.0,3.0,-7.0,-16.0,3.0,3.0,0.0,1651023368880932.0
4.0,3.0,7.0,2.0,-10.0,-20.0,-2.0,-3.0,1651023368880932.0
-3.0,1.0,3.0,3.0,-3.0,-36.0,-7.0,-2.0,1651023368901890.0
1.0,15.0,18.0,2.0,2.0,24.0,5.0,4.0,1651023368901890.0
-1.0,-17.0,-39.0,-8.0,9.0,40.0,9.0,1.0,1651023368903871.0
1.0,-3.0,6.0,4.0,5.0,0.0,-7.0,-2.0,1651023368903871.0
-1.0,13.0,15.0,8.0,5.0,-16.0,-1.0,0.0,1651023368916905.0
-9.0,-22.0,-26.0,-19.0,-14.0,-3.0,-2.0,-5.0,1651023368916905.0
4.0,8.0,11.0,3.0,0.0,1.0,4.0,3.0,1651023368918868.0
3.0,-6.0,-25.0,-3.0,4.0,-8.0,-3.0,0.0,1651023368918868.0
-5.0,3.0,21.0,6.0,-3.0,2.0,-2.0,0.0,1651023368939067.0
8.0,19.0,37.0,14.0,16.0,11.0,5.0,2.0,1651023368939067.0
2.0,-6.0,-2.0,-5.0,-10.0,4.0,0.0,0.0,1651023368940995.0
-3.0,-2.0,-5.0,3.0,-3.0,-21.0,-7.0,1.0,1651023368940995.0
-7.0,3.0,-8.0,2.0,-25.0,-1.0,3.0,-19.0,1651023368962034.0
-2.0,-27.0,-40.0,-15.0,19.0,21.0,3.0,15.0,1651023368962034.0
-12.0,0.0,14.0,-4.0,9.0,-10.0,0.0,-13.0,1651023368962965.0
5.0,13.0,26.0,8.0,-12.0,-3.0,-2.0,-17.0,1651023368962965.0
5.0,4.0,-29.0,0.0,10.0,7.0,-3.0,-3.0,1651023368975932.0
-1.0,-4.0,12.0,0.0,-3.0,-6.0,8.0,-4.0,1651023368975932.0
1.0,12.0,15.0,-3.0,-14.0,-11.0,-8.0,4.0,1651023368983435.0
6.0,0.0,-18.0,6.0,4.0,6.0,2.0,11.0,1651023368983435.0
-10.0,-30.0,-5.0,-10.0,-1.0,6.0,-2.0,-1.0,1651023368998445.0
1.0,13.0,13.0,3.0,-6.0,-12.0,-3.0,-3.0,1651023368998445.0
7.0,9.0,-19.0,-1.0,7.0,2.0,4.0,7.0,1651023369006645.0
-2.0,5.0,21.0,-7.0,-9.0,-1.0,0.0,2.0,1651023369006645.0
2.0,5.0,-8.0,-1.0,1.0,2.0,-2.0,5.0,1651023369021997.0
-3.0,-5.0,-1.0,16.0,11.0,2.0,1.0,2.0,1651023369021997.0
3.0,0.0,-7.0,-15.0,-14.0,-1.0,1.0,1.0,1651023369023926.0
-1.0,-4.0,3.0,2.0,3.0,-5.0,-7.0,-4.0,1651023369023926.0
-6.0,-4.0,-13.0,-11.0,-9.0,0.0,1.0,0.0,1651023369036662.0
-3.0,-1.0,8.0,-1.0,3.0,4.0,2.0,-1.0,1651023369036662.0
1.0,8.0,23.0,21.0,8.0,0.0,-8.0,-8.0,1651023369042659.0
0.0,-6.0,-30.0,-4.0,3.0,-1.0,-2.0,5.0,1651023369042659.0
-6.0,-14.0,-8.0,-11.0,0.0,1.0,2.0,-2.0,1651023369059606.0
3.0,14.0,24.0,3.0,-12.0,-4.0,-3.0,7.0,1651023369059606.0
-1.0,1.0,1.0,-9.0,-20.0,-8.0,-3.0,-8.0,1651023369060628.0
0.0,4.0,21.0,9.0,15.0,1.0,3.0,7.0,1651023369060628.0
2.0,0.0,-18.0,7.0,10.0,8.0,1.0,-16.0,1651023369081614.0
-2.0,1.0,4.0,0.0,-4.0,-4.0,1.0,-3.0,1651023369081614.0
-3.0,-9.0,-38.0,-13.0,1.0,-2.0,0.0,-4.0,1651023369083539.0
-4.0,-17.0,15.0,-2.0,-7.0,-2.0,-2.0,3.0,1651023369083539.0
10.0,13.0,2.0,0.0,4.0,3.0,3.0,12.0,1651023369096900.0
-13.0,-24.0,1.0,-1.0,-5.0,0.0,-2.0,-3.0,1651023369096900.0
9.0,7.0,7.0,7.0,-3.0,-1.0,2.0,13.0,1651023369104880.0
-1.0,4.0,-2.0,1.0,4.0,2.0,-2.0,-11.0,1651023369104880.0
-1.0,-30.0,15.0,6.0,5.0,0.0,0.0,5.0,1651023369119853.0
-6.0,22.0,-31.0,-10.0,-6.0,-3.0,-3.0,-9.0,1651023369119853.0
-2.0,-11.0,13.0,2.0,10.0,2.0,-1.0,4.0,1651023369120836.0
5.0,27.0,-11.0,-1.0,-1.0,-1.0,0.0,3.0,1651023369120836.0
0.0,-10.0,16.0,8.0,3.0,2.0,3.0,5.0,1651023369141870.0
-8.0,0.0,-17.0,-11.0,-8.0,-3.0,-3.0,-8.0,1651023369141870.0
-3.0,-2.0,-3.0,3.0,-1.0,-3.0,2.0,4.0,1651023369142867.0
1.0,0.0,-25.0,-15.0,-7.0,-2.0,1.0,-1.0,1651023369142867.0
0.0,17.0,19.0,9.0,9.0,2.0,0.0,-2.0,1651023369155900.0
10.0,0.0,-1.0,-1.0,-11.0,1.0,1.0,4.0,1651023369155900.0
-11.0,-13.0,-8.0,-2.0,13.0,-2.0,-1.0,-5.0,1651023369162881.0
0.0,11.0,22.0,2.0,-2.0,-1.0,-1.0,-2.0,1651023369162881.0
-5.0,-18.0,-14.0,-2.0,-3.0,-1.0,-2.0,1.0,1651023369179564.0
3.0,0.0,5.0,4.0,4.0,1.0,1.0,1.0,1651023369179564.0
3.0,-9.0,-7.0,-6.0,-10.0,-2.0,-1.0,0.0,1651023369180520.0
-11.0,-5.0,-6.0,-5.0,-6.0,-5.0,-1.0,-4.0,1651023369180520.0
0.0,15.0,15.0,2.0,2.0,3.0,0.0,-2.0,1651023369201553.0
1.0,-6.0,-5.0,-3.0,-1.0,0.0,0.0,1.0,1651023369201553.0
6.0,13.0,17.0,14.0,16.0,4.0,-1.0,0.0,1651023369203480.0
-5.0,-12.0,-7.0,4.0,-2.0,0.0,0.0,0.0,1651023369203480.0
-4.0,9.0,-24.0,-21.0,-7.0,-4.0,-1.0,-1.0,1651023369216557.0
3.0,-4.0,6.0,-5.0,-4.0,-3.0,0.0,-1.0,1651023369216557.0
-5.0,-3.0,-8.0,-7.0,-10.0,-2.0,-2.0,-2.0,1651023369222606.0
2.0,3.0,20.0,11.0,5.0,2.0,0.0,-1.0,1651023369222606.0
-6.0,-17.0,-23.0,-3.0,4.0,-2.0,-2.0,-5.0,1651023369238563.0
6.0,10.0,18.0,1.0,1.0,6.0,-4.0,-3.0,1651023369238563.0
0.0,-3.0,-10.0,2.0,-4.0,-1.0,0.0,0.0,1651023369246547.0
-2.0,-11.0,-22.0,-11.0,1.0,-3.0,-1.0,0.0,1651023369246547.0
2.0,15.0,28.0,2.0,-2.0,-3.0,-1.0,3.0,1651023369261499.0
-2.0,-1.0,0.0,6.0,14.0,7.0,0.0,-18.0,1651023369261499.0
1.0,0.0,8.0,4.0,-3.0,7.0,30.0,25.0,1651023369263459.0
9.0,-1.0,-6.0,-6.0,-4.0,-8.0,-26.0,5.0,1651023369263459.0
-5.0,-4.0,3.0,5.0,-4.0,-3.0,-4.0,-3.0,1651023369275499.0
-1.0,-1.0,-16.0,-8.0,-1.0,-2.0,2.0,5.0,1651023369275499.0
-3.0,9.0,1.0,-3.0,-6.0,-2.0,-1.0,-11.0,1651023369284375.0
-2.0,-9.0,2.0,-2.0,-7.0,0.0,8.0,-4.0,1651023369284375.0
3.0,10.0,10.0,4.0,3.0,-2.0,-1.0,4.0,1651023369299401.0
0.0,18.0,-1.0,1.0,-6.0,0.0,2.0,0.0,1651023369299401.0
2.0,2.0,-6.0,4.0,15.0,2.0,-7.0,-6.0,1651023369301330.0
-5.0,-10.0,-7.0,-4.0,-10.0,-1.0,1.0,0.0,1651023369301330.0
-1.0,0.0,-1.0,1.0,4.0,3.0,-3.0,-4.0,1651023369322300.0
8.0,-7.0,3.0,5.0,3.0,-1.0,6.0,6.0,1651023369322300.0
-6.0,10.0,-5.0,-5.0,-6.0,-3.0,-8.0,-8.0,1651023369323271.0
-2.0,8.0,0.0,-5.0,-3.0,-1.0,1.0,-5.0,1651023369323271.0
-4.0,9.0,2.0,-1.0,-5.0,-3.0,0.0,1.0,1651023369335427.0
3.0,-3.0,4.0,-6.0,-15.0,-3.0,-2.0,5.0,1651023369335427.0
4.0,5.0,10.0,6.0,23.0,0.0,-3.0,1.0,1651023369344215.0
-6.0,-27.0,-23.0,-2.0,-3.0,2.0,3.0,-6.0,1651023369344215.0
-4.0,5.0,8.0,-6.0,-5.0,-3.0,-2.0,-5.0,1651023369359174.0
-3.0,-5.0,-6.0,0.0,-5.0,-3.0,-2.0,2.0,1651023369359174.0
-1.0,-11.0,4.0,4.0,6.0,1.0,-4.0,-2.0,1651023369361170.0
4.0,10.0,-4.0,-2.0,-2.0,1.0,4.0,0.0,1651023369361170.0
-2.0,-9.0,0.0,-4.0,0.0,0.0,-1.0,-1.0,1651023369381505.0
0.0,3.0,5.0,1.0,0.0,-2.0,1.0,-1.0,1651023369381505.0
2.0,-12.0,-2.0,-2.0,-8.0,-3.0,-1.0,-1.0,1651023369383489.0
6.0,20.0,2.0,1.0,4.0,1.0,2.0,1.0,1651023369383489.0
2.0,-5.0,-17.0,-4.0,-2.0,2.0,2.0,3.0,1651023369395520.0
-6.0,-17.0,9.0,1.0,1.0,-1.0,0.0,1.0,1651023369395520.0
-4.0,0.0,-14.0,-3.0,-8.0,-3.0,-5.0,-7.0,1651023369404431.0
-3.0,-5.0,8.0,-1.0,2.0,-2.0,-1.0,0.0,1651023369404431.0
6.0,11.0,10.0,8.0,-3.0,2.0,-1.0,0.0,1651023369419034.0
-4.0,-18.0,-15.0,-1.0,12.0,3.0,1.0,1.0,1651023369419034.0
3.0,-2.0,0.0,-6.0,-5.0,-1.0,0.0,2.0,1651023369420961.0
-4.0,-4.0,9.0,3.0,3.0,-2.0,0.0,-2.0,1651023369420961.0
4.0,10.0,38.0,24.0,12.0,6.0,2.0,3.0,1651023369441998.0
-2.0,1.0,-38.0,-11.0,-6.0,-4.0,1.0,-1.0,1651023369441998.0
-6.0,-19.0,8.0,-25.0,-14.0,-4.0,-6.0,-2.0,1651023369442930.0
3.0,5.0,-12.0,-4.0,-7.0,-2.0,-1.0,-1.0,1651023369442930.0
-2.0,-6.0,-5.0,-8.0,0.0,0.0,-1.0,-1.0,1651023369455908.0
2.0,5.0,26.0,19.0,6.0,1.0,-3.0,0.0,1651023369455908.0
4.0,21.0,-13.0,4.0,-11.0,-4.0,-1.0,0.0,1651023369464881.0
-8.0,-26.0,3.0,-2.0,9.0,3.0,-2.0,-2.0,1651023369464881.0
0.0,-34.0,-6.0,2.0,5.0,2.0,1.0,2.0,1651023369478963.0
3.0,4.0,0.0,-2.0,-3.0,-2.0,1.0,0.0,1651023369478963.0
3.0,18.0,-4.0,3.0,-1.0,1.0,0.0,0.0,1651023369480894.0
3.0,7.0,10.0,2.0,-5.0,-3.0,0.0,2.0,1651023369480894.0
0.0,-5.0,-3.0,-3.0,-3.0,-4.0,-5.0,-5.0,1651023369501867.0
0.0,4.0,-8.0,0.0,6.0,2.0,3.0,-1.0,1651023369501867.0
-1.0,-4.0,6.0,5.0,-6.0,-1.0,-1.0,-1.0,1651023369503856.0
-2.0,-21.0,-6.0,-2.0,14.0,3.0,1.0,-2.0,1651023369503856.0
3.0,-5.0,-14.0,-12.0,-7.0,-2.0,0.0,0.0,1651023369514884.0
-10.0,0.0,19.0,-9.0,-17.0,-3.0,-2.0,-4.0,1651023369514884.0
-1.0,18.0,-17.0,3.0,14.0,2.0,-1.0,-1.0,1651023369524836.0
0.0,6.0,3.0,4.0,-4.0,1.0,0.0,-2.0,1651023369524836.0
8.0,4.0,-6.0,1.0,4.0,1.0,4.0,5.0,1651023369539847.0
-4.0,-22.0,8.0,3.0,0.0,-2.0,-1.0,2.0,1651023369539847.0
1.0,-10.0,-6.0,-1.0,-4.0,1.0,-1.0,2.0,1651023369540796.0
1.0,9.0,-6.0,-10.0,-5.0,-1.0,-3.0,0.0,1651023369540796.0
-10.0,-6.0,1.0,4.0,4.0,-3.0,-3.0,-2.0,1651023369561811.0
10.0,13.0,2.0,1.0,-4.0,-2.0,-2.0,0.0,1651023369561811.0
-4.0,5.0,10.0,5.0,4.0,1.0,0.0,-1.0,1651023369563735.0
1.0,0.0,-5.0,3.0,-1.0,-1.0,2.0,1.0,1651023369563735.0
1.0,18.0,-2.0,-11.0,-9.0,-5.0,-1.0,-3.0,1651023369575770.0
-16.0,-61.0,-9.0,3.0,6.0,2.0,0.0,-3.0,1651023369575770.0
2.0,3.0,-7.0,1.0,0.0,-2.0,2.0,0.0,1651023369584679.0
5.0,11.0,18.0,-5.0,-11.0,-3.0,-1.0,3.0,1651023369584679.0
-5.0,15.0,-1.0,-6.0,-3.0,0.0,-2.0,-4.0,1651023369599804.0
6.0,-13.0,-12.0,1.0,19.0,2.0,-2.0,1.0,1651023369599804.0
3.0,14.0,21.0,9.0,1.0,0.0,0.0,0.0,1651023369600727.0
-5.0,-23.0,-15.0,9.0,4.0,5.0,0.0,-4.0,1651023369600727.0
1.0,-10.0,-16.0,-10.0,-5.0,-2.0,0.0,2.0,1651023369622239.0
-3.0,17.0,12.0,-5.0,-6.0,-4.0,-1.0,-3.0,1651023369622239.0
-4.0,-16.0,0.0,-1.0,0.0,1.0,-2.0,-2.0,1651023369623252.0
-1.0,22.0,5.0,6.0,0.0,0.0,1.0,0.0,1651023369623252.0
6.0,2.0,1.0,5.0,12.0,5.0,3.0,6.0,1651023369635234.0
-2.0,30.0,5.0,1.0,-4.0,0.0,0.0,0.0,1651023369635234.0
-2.0,-15.0,-7.0,-4.0,-1.0,-1.0,0.0,0.0,1651023369644196.0
8.0,8.0,6.0,0.0,-1.0,2.0,1.0,2.0,1651023369644196.0
-13.0,-6.0,-2.0,0.0,3.0,1.0,0.0,-3.0,1651023369658994.0
1.0,12.0,-5.0,-3.0,-1.0,-1.0,-3.0,-2.0,1651023369658994.0
-14.0,-8.0,-4.0,-4.0,-5.0,-3.0,-2.0,-5.0,1651023369660926.0
8.0,28.0,0.0,-3.0,-7.0,-5.0,-1.0,0.0,1651023369660926.0
8.0,46.0,-3.0,3.0,4.0,2.0,-1.0,0.0,1651023369682023.0
7.0,17.0,17.0,2.0,0.0,-2.0,0.0,4.0,1651023369682023.0
-9.0,-42.0,-6.0,-4.0,-3.0,-3.0,0.0,0.0,1651023369683021.0
-9.0,-33.0,-20.0,-12.0,-10.0,-2.0,-2.0,-2.0,1651023369683021.0
4.0,2.0,9.0,7.0,13.0,1.0,1.0,3.0,1651023369696030.0
5.0,-15.0,-15.0,0.0,-2.0,3.0,1.0,0.0,1651023369696030.0
14.0,14.0,7.0,1.0,1.0,2.0,2.0,2.0,1651023369704968.0
-1.0,3.0,13.0,2.0,2.0,-2.0,-2.0,-1.0,1651023369704968.0
4.0,-5.0,-6.0,-1.0,-9.0,-4.0,-1.0,0.0,1651023369719989.0
-24.0,-26.0,-6.0,-4.0,-3.0,-3.0,-6.0,-10.0,1651023369719989.0
3.0,-5.0,-1.0,-2.0,2.0,-1.0,-1.0,-2.0,1651023369720920.0
0.0,-10.0,-11.0,-6.0,-4.0,0.0,0.0,1.0,1651023369720920.0
-1.0,18.0,4.0,2.0,-1.0,-3.0,-3.0,-5.0,1651023369741994.0
4.0,8.0,1.0,0.0,-12.0,-4.0,2.0,2.0,1651023369741994.0
5.0,0.0,0.0,3.0,13.0,6.0,1.0,2.0,1651023369742925.0
-18.0,-27.0,-1.0,2.0,0.0,-2.0,1.0,-5.0,1651023369742925.0
0.0,5.0,1.0,-4.0,-6.0,-1.0,0.0,-2.0,1651023369763982.0
1.0,0.0,-3.0,-1.0,-1.0,0.0,0.0,0.0,1651023369763982.0
4.0,5.0,7.0,0.0,-4.0,-1.0,-2.0,0.0,1651023369765921.0
-2.0,2.0,-3.0,-1.0,2.0,1.0,-1.0,-2.0,1651023369765921.0
-4.0,-22.0,-6.0,-1.0,-2.0,-1.0,-1.0,-1.0,1651023369779072.0
10.0,35.0,4.0,1.0,-4.0,-2.0,-4.0,-1.0,1651023369779072.0
-14.0,-19.0,-18.0,-10.0,-12.0,-4.0,-5.0,-5.0,1651023369785992.0
8.0,16.0,11.0,1.0,11.0,4.0,0.0,4.0,1651023369785992.0
-3.0,11.0,3.0,4.0,1.0,-1.0,0.0,-3.0,1651023369802062.0
7.0,6.0,-1.0,1.0,0.0,1.0,1.0,3.0,1651023369802062.0
5.0,-13.0,-3.0,-1.0,0.0,-1.0,2.0,1.0,1651023369803064.0
-5.0,-8.0,-14.0,-5.0,-11.0,-4.0,0.0,-1.0,1651023369803064.0
3.0,6.0,2.0,-5.0,1.0,1.0,0.0,0.0,1651023369824074.0
-5.0,1.0,7.0,5.0,9.0,2.0,2.0,-1.0,1651023369824074.0
6.0,16.0,5.0,3.0,0.0,0.0,-1.0,-1.0,1651023369826002.0
1.0,-1.0,1.0,2.0,3.0,1.0,0.0,2.0,1651023369826002.0
3.0,3.0,-8.0,-3.0,-4.0,-3.0,0.0,1.0,1651023369839003.0
-6.0,-3.0,-3.0,1.0,3.0,4.0,1.0,2.0,1651023369839003.0
1.0,20.0,12.0,4.0,-1.0,-1.0,0.0,-1.0,1651023369840931.0
8.0,21.0,11.0,2.0,-1.0,-2.0,-2.0,1.0,1651023369840931.0
-4.0,-29.0,-2.0,-1.0,-3.0,1.0,-1.0,1.0,1651023369862023.0
1.0,-20.0,-12.0,-6.0,3.0,0.0,0.0,3.0,1651023369862023.0
3.0,36.0,11.0,1.0,-4.0,-4.0,-4.0,-2.0,1651023369862981.0
-3.0,-1.0,-5.0,2.0,0.0,0.0,1.0,-2.0,1651023369862981.0
-1.0,3.0,4.0,0.0,-9.0,-5.0,-1.0,-1.0,1651023369884020.0
3.0,-14.0,-4.0,1.0,13.0,5.0,0.0,-1.0,1651023369884020.0
-12.0,-24.0,-6.0,0.0,0.0,1.0,2.0,-1.0,1651023369886041.0
0.0,-7.0,1.0,-1.0,2.0,0.0,-1.0,-2.0,1651023369886041.0
-2.0,-7.0,0.0,-1.0,-4.0,-1.0,-1.0,0.0,1651023369898979.0
1.0,9.0,-4.0,-4.0,-6.0,-3.0,-2.0,-1.0,1651023369898979.0
-7.0,-26.0,4.0,4.0,7.0,3.0,1.0,1.0,1651023369906026.0
0.0,-31.0,-8.0,-5.0,-3.0,-2.0,-2.0,-3.0,1651023369906026.0
-15.0,-27.0,-2.0,-2.0,0.0,1.0,0.0,-4.0,1651023369921997.0
9.0,28.0,1.0,-1.0,-2.0,-1.0,1.0,2.0,1651023369921997.0
-7.0,-12.0,1.0,1.0,0.0,0.0,0.0,-1.0,1651023369922929.0
-2.0,9.0,-9.0,2.0,1.0,-1.0,0.0,-1.0,1651023369922929.0
-1.0,-5.0,6.0,0.0,4.0,1.0,-1.0,-2.0,1651023369943926.0
0.0,-3.0,5.0,0.0,-2.0,-2.0,-1.0,-4.0,1651023369943926.0
2.0,0.0,-9.0,-5.0,-5.0,1.0,1.0,0.0,1651023369945923.0
6.0,2.0,4.0,4.0,3.0,3.0,3.0,4.0,1651023369945923.0
4.0,4.0,-3.0,0.0,1.0,0.0,1.0,3.0,1651023369958952.0
-9.0,-23.0,-3.0,2.0,-2.0,2.0,0.0,0.0,1651023369958952.0
8.0,18.0,17.0,-1.0,-7.0,-3.0,-2.0,-2.0,1651023369965880.0
-2.0,0.0,-2.0,0.0,5.0,-3.0,-2.0,-2.0,1651023369965880.0
4.0,7.0,1.0,1.0,2.0,4.0,1.0,0.0,1651023369981894.0
-1.0,-17.0,-10.0,-3.0,-2.0,0.0,-1.0,-2.0,1651023369981894.0
-4.0,-20.0,-9.0,-1.0,3.0,0.0,0.0,0.0,1651023369983830.0
7.0,20.0,7.0,-3.0,-6.0,-2.0,-2.0,-2.0,1651023369983830.0
-14.0,-8.0,-6.0,-2.0,-1.0,0.0,-1.0,-3.0,1651023370004815.0
1.0,19.0,2.0,-1.0,-3.0,-3.0,-3.0,-2.0,1651023370004815.0
2.0,-1.0,-5.0,-1.0,2.0,0.0,0.0,0.0,1651023370005815.0
8.0,5.0,0.0,2.0,0.0,2.0,1.0,2.0,1651023370005815.0
1.0,-12.0,1.0,0.0,-1.0,-1.0,-1.0,1.0,1651023370018847.0
-3.0,28.0,3.0,0.0,-11.0,0.0,0.0,-3.0,1651023370018847.0
6.0,6.0,6.0,3.0,18.0,1.0,0.0,3.0,1651023370025825.0
-1.0,-17.0,4.0,2.0,-1.0,0.0,-1.0,1.0,1651023370025825.0
-8.0,6.0,-23.0,-4.0,-6.0,-3.0,-2.0,-3.0,1651023370042762.0
-15.0,-41.0,-4.0,-4.0,-1.0,-1.0,0.0,-3.0,1651023370042762.0
-5.0,-8.0,-4.0,-2.0,-3.0,0.0,-1.0,-3.0,1651023370043713.0
-11.0,0.0,2.0,0.0,1.0,-1.0,0.0,-3.0,1651023370043713.0
3.0,-11.0,3.0,1.0,1.0,-1.0,1.0,1.0,1651023370064724.0
5.0,6.0,-1.0,1.0,-1.0,-1.0,1.0,2.0,1651023370064724.0
-9.0,1.0,-8.0,-3.0,-5.0,-1.0,-2.0,-4.0,1651023370065669.0
-3.0,-10.0,-6.0,-5.0,-1.0,0.0,-1.0,-1.0,1651023370065669.0
-5.0,-2.0,6.0,2.0,-2.0,0.0,-2.0,-3.0,1651023370078687.0
-1.0,-7.0,-2.0,1.0,0.0,2.0,2.0,2.0,1651023370078687.0
5.0,19.0,-1.0,-2.0,-1.0,-3.0,-2.0,-3.0,1651023370085665.0
1.0,11.0,-1.0,1.0,0.0,-1.0,0.0,0.0,1651023370085665.0
5.0,6.0,-2.0,-1.0,1.0,0.0,1.0,2.0,1651023370102337.0
-3.0,4.0,1.0,0.0,3.0,-2.0,-1.0,-2.0,1651023370102337.0
5.0,-8.0,3.0,1.0,-3.0,2.0,2.0,4.0,1651023370103346.0
1.0,7.0,0.0,-4.0,-4.0,-4.0,-4.0,-3.0,1651023370103346.0
3.0,11.0,0.0,2.0,4.0,0.0,-1.0,-1.0,1651023370124725.0
6.0,-4.0,1.0,-2.0,0.0,-2.0,-1.0,-1.0,1651023370124725.0
-6.0,-10.0,9.0,3.0,2.0,1.0,0.0,-1.0,1651023370125863.0
-12.0,-6.0,-22.0,-3.0,-1.0,-2.0,-1.0,-2.0,1651023370125863.0
-1.0,3.0,4.0,-1.0,-2.0,0.0,1.0,-1.0,1651023370138897.0
1.0,9.0,-1.0,-3.0,-2.0,-1.0,-2.0,-1.0,1651023370138897.0
1.0,10.0,-1.0,-3.0,-14.0,-3.0,-1.0,0.0,1651023370145883.0
2.0,3.0,8.0,3.0,19.0,4.0,0.0,2.0,1651023370145883.0
-6.0,-13.0,3.0,7.0,1.0,3.0,2.0,0.0,1651023370161440.0
-5.0,20.0,-2.0,0.0,-2.0,-2.0,0.0,-1.0,1651023370161440.0
-3.0,10.0,-5.0,-3.0,-3.0,-6.0,-1.0,-2.0,1651023370163429.0
-3.0,-7.0,9.0,0.0,-5.0,0.0,0.0,1.0,1651023370163429.0
8.0,27.0,-18.0,-6.0,-1.0,-1.0,-2.0,0.0,1651023370184740.0
2.0,-2.0,6.0,1.0,-1.0,1.0,-2.0,-1.0,1651023370184740.0
-2.0,12.0,-5.0,4.0,6.0,0.0,-3.0,-1.0,1651023370185866.0
-5.0,-31.0,-2.0,-5.0,-4.0,-1.0,0.0,-1.0,1651023370185866.0
3.0,2.0,5.0,-3.0,-2.0,-1.0,-1.0,1.0,1651023370198830.0
3.0,1.0,2.0,12.0,-1.0,-1.0,0.0,1.0,1651023370198830.0
3.0,-17.0,-7.0,-5.0,-1.0,1.0,0.0,1.0,1651023370205869.0
6.0,19.0,6.0,4.0,-2.0,2.0,-3.0,-1.0,1651023370205869.0
0.0,0.0,4.0,-6.0,-11.0,-1.0,-1.0,-2.0,1651023370221836.0
-4.0,-18.0,-12.0,-7.0,14.0,0.0,-1.0,-1.0,1651023370221836.0
2.0,-6.0,1.0,6.0,2.0,1.0,1.0,1.0,1651023370223793.0
5.0,21.0,5.0,0.0,-4.0,0.0,1.0,2.0,1651023370223793.0
-2.0,-22.0,3.0,-5.0,-7.0,-7.0,0.0,-1.0,1651023370244722.0
5.0,14.0,0.0,-1.0,-2.0,2.0,-1.0,1.0,1651023370244722.0
0.0,2.0,10.0,3.0,5.0,0.0,0.0,-1.0,1651023370245824.0
2.0,21.0,-8.0,-3.0,-9.0,-3.0,1.0,0.0,1651023370245824.0
2.0,-1.0,-5.0,-1.0,-10.0,-3.0,0.0,0.0,1651023370257737.0
4.0,23.0,8.0,6.0,28.0,6.0,-2.0,-1.0,1651023370257737.0
0.0,-19.0,-8.0,-8.0,-5.0,2.0,3.0,1.0,1651023370266703.0
3.0,1.0,-5.0,-5.0,-7.0,-2.0,-1.0,-1.0,1651023370266703.0
-2.0,21.0,26.0,21.0,11.0,2.0,0.0,1.0,1651023370281977.0
-1.0,-10.0,-5.0,-2.0,-10.0,-2.0,-3.0,0.0,1651023370281977.0
0.0,9.0,-2.0,-10.0,-4.0,-1.0,-2.0,0.0,1651023370283902.0
-1.0,20.0,-16.0,-9.0,-2.0,-3.0,0.0,0.0,1651023370283902.0
5.0,-4.0,0.0,0.0,9.0,0.0,0.0,1.0,1651023370304831.0
-13.0,11.0,7.0,0.0,-12.0,-4.0,-3.0,-6.0,1651023370304831.0
-1.0,18.0,10.0,11.0,5.0,0.0,-2.0,-3.0,1651023370305844.0
-2.0,-25.0,-17.0,1.0,-2.0,0.0,4.0,2.0,1651023370305844.0
2.0,0.0,-2.0,-3.0,6.0,2.0,-2.0,-1.0,1651023370317911.0
1.0,-13.0,-3.0,9.0,1.0,-1.0,0.0,0.0,1651023370317911.0
-9.0,-27.0,-5.0,-6.0,-11.0,-2.0,-1.0,-1.0,1651023370326863.0
10.0,-20.0,-6.0,0.0,13.0,-2.0,-2.0,1.0,1651023370326863.0
-1.0,-14.0,-13.0,-21.0,-2.0,4.0,-1.0,-2.0,1651023370341889.0
-15.0,10.0,10.0,-2.0,-8.0,-4.0,-3.0,-9.0,1651023370341889.0
-10.0,5.0,26.0,60.0,14.0,4.0,5.0,2.0,1651023370343844.0
8.0,16.0,7.0,-3.0,-2.0,4.0,1.0,4.0,1651023370343844.0
-9.0,-14.0,-12.0,-9.0,13.0,-4.0,-2.0,-5.0,1651023370364837.0
6.0,-21.0,-6.0,0.0,10.0,9.0,4.0,4.0,1651023370364837.0
3.0,-2.0,-28.0,-19.0,-6.0,-4.0,-1.0,-2.0,1651023370365836.0
-6.0,5.0,38.0,13.0,-2.0,2.0,1.0,-2.0,1651023370365836.0
0.0,-13.0,-31.0,-17.0,-23.0,-8.0,-4.0,2.0,1651023370377809.0
2.0,8.0,13.0,-13.0,-9.0,-8.0,0.0,2.0,1651023370377809.0
-3.0,-3.0,0.0,8.0,23.0,9.0,-4.0,-5.0,1651023370387342.0
8.0,10.0,11.0,0.0,-9.0,-3.0,1.0,0.0,1651023370387342.0
-12.0,-7.0,-9.0,-2.0,-7.0,0.0,1.0,-5.0,1651023370401802.0
1.0,1.0,-5.0,-21.0,-12.0,-4.0,-1.0,4.0,1651023370401802.0
9.0,3.0,-5.0,28.0,17.0,4.0,2.0,5.0,1651023370403797.0
-14.0,-29.0,-33.0,-13.0,23.0,9.0,-1.0,-9.0,1651023370403797.0
7.0,-8.0,-27.0,13.0,-4.0,-4.0,1.0,-2.0,1651023370423896.0
9.0,23.0,39.0,12.0,-5.0,0.0,-1.0,6.0,1651023370423896.0
22.0,6.0,-5.0,-9.0,-4.0,0.0,8.0,9.0,1651023370425893.0
-25.0,-14.0,2.0,-42.0,-30.0,-8.0,-4.0,-6.0,1651023370425893.0
-14.0,5.0,17.0,37.0,-62.0,-17.0,-3.0,-2.0,1651023370437925.0
-1.0,4.0,-31.0,12.0,75.0,20.0,-5.0,2.0,1651023370437925.0
25.0,-41.0,-57.0,-74.0,-22.0,-4.0,14.0,8.0,1651023370446885.0
-15.0,-8.0,-11.0,24.0,10.0,0.0,5.0,-7.0,1651023370446885.0
10.0,17.0,16.0,11.0,15.0,8.0,-8.0,-7.0,1651023370461845.0
-21.0,16.0,71.0,10.0,-40.0,-34.0,-7.0,-3.0,1651023370461845.0
17.0,8.0,15.0,18.0,10.0,26.0,55.0,20.0,1651023370463869.0
-6.0,-18.0,-54.0,-79.0,-11.0,15.0,-49.0,-15.0,1651023370463869.0
-13.0,34.0,21.0,15.0,3.0,9.0,-23.0,-19.0,1651023370483911.0
5.0,-43.0,-25.0,22.0,-2.0,-9.0,0.0,-7.0,1651023370483911.0
-22.0,7.0,19.0,-27.0,-19.0,-28.0,-24.0,-9.0,1651023370485911.0
-10.0,-27.0,-25.0,17.0,7.0,21.0,88.0,34.0,1651023370485911.0
2.0,3.0,27.0,-36.0,4.0,-9.0,5.0,1.0,1651023370497938.0
2.0,6.0,-57.0,-4.0,-15.0,-75.0,-48.0,-20.0,1651023370497938.0
-42.0,19.0,19.0,-2.0,-7.0,64.0,35.0,-19.0,1651023370506652.0
23.0,-15.0,41.0,25.0,1.0,65.0,-9.0,-14.0,1651023370506652.0
-4.0,-28.0,-8.0,-1.0,15.0,-22.0,9.0,22.0,1651023370521972.0
-10.0,14.0,-9.0,-13.0,4.0,102.0,56.0,22.0,1651023370521972.0
48.0,-31.0,-16.0,-41.0,-23.0,-91.0,-128.0,-10.0,1651023370522929.0
-46.0,26.0,23.0,67.0,14.0,-16.0,81.0,-9.0,1651023370522929.0
44.0,12.0,7.0,-63.0,-2.0,41.0,-3.0,25.0,1651023370543889.0
-22.0,-36.0,-25.0,-16.0,-1.0,-23.0,14.0,-28.0,1651023370543889.0
22.0,53.0,45.0,76.0,46.0,-10.0,-36.0,12.0,1651023370551824.0
26.0,-34.0,8.0,30.0,11.0,-16.0,-20.0,13.0,1651023370551824.0
-10.0,-20.0,-28.0,-6.0,-11.0,-31.0,36.0,-14.0,1651023370557875.0
22.0,53.0,23.0,-39.0,-12.0,32.0,8.0,27.0,1651023370557875.0
-15.0,1.0,-2.0,11.0,1.0,13.0,-15.0,-18.0,1651023370566784.0
3.0,31.0,6.0,-22.0,-3.0,-25.0,-6.0,-1.0,1651023370566784.0
-7.0,-60.0,-10.0,10.0,1.0,6.0,6.0,16.0,1651023370581743.0
15.0,-16.0,-13.0,-30.0,-23.0,-26.0,-24.0,-26.0,1651023370581743.0
-22.0,-27.0,-21.0,14.0,34.0,60.0,60.0,24.0,1651023370583738.0
-9.0,9.0,4.0,-17.0,-37.0,-52.0,-67.0,-24.0,1651023370583738.0
-11.0,35.0,-25.0,-66.0,-11.0,17.0,53.0,-6.0,1651023370604682.0
23.0,-23.0,68.0,95.0,71.0,55.0,16.0,30.0,1651023370604682.0
-20.0,-16.0,-58.0,-43.0,-54.0,-106.0,-2.0,-40.0,1651023370605679.0
-51.0,3.0,9.0,8.0,5.0,-72.0,43.0,-14.0,1651023370605679.0
54.0,-8.0,11.0,27.0,32.0,87.0,23.0,10.0,1651023370617653.0
18.0,34.0,8.0,-12.0,4.0,9.0,52.0,41.0,1651023370617653.0
-3.0,-27.0,-19.0,-80.0,-20.0,39.0,47.0,11.0,1651023370626631.0
15.0,-3.0,12.0,89.0,60.0,25.0,-45.0,3.0,1651023370626631.0
-28.0,10.0,8.0,29.0,4.0,-66.0,-66.0,-10.0,1651023370641597.0
-1.0,5.0,-6.0,-3.0,-20.0,-23.0,-30.0,-14.0,1651023370641597.0
-23.0,-1.0,16.0,0.0,-10.0,16.0,-9.0,-7.0,1651023370648576.0
24.0,25.0,27.0,-18.0,-7.0,-13.0,-8.0,12.0,1651023370648576.0
37.0,-66.0,-5.0,9.0,14.0,19.0,15.0,22.0,1651023370663525.0
-10.0,74.0,-28.0,-18.0,-20.0,-8.0,-9.0,-34.0,1651023370663525.0
2.0,28.0,35.0,19.0,-5.0,-38.0,-22.0,-6.0,1651023370671530.0
-36.0,-23.0,-13.0,-41.0,-22.0,-26.0,-6.0,6.0,1651023370671530.0
-7.0,60.0,44.0,39.0,29.0,66.0,84.0,28.0,1651023370686464.0
81.0,-64.0,-13.0,-7.0,6.0,37.0,-94.0,-2.0,1651023370686464.0
-40.0,-31.0,-29.0,-24.0,-26.0,-68.0,-47.0,-30.0,1651023370688486.0
33.0,16.0,26.0,20.0,15.0,83.0,24.0,27.0,1651023370688486.0
-45.0,20.0,-15.0,-52.0,-31.0,-22.0,-22.0,-32.0,1651023370708964.0
-51.0,-4.0,9.0,11.0,11.0,-6.0,40.0,8.0,1651023370708964.0
10.0,44.0,9.0,-11.0,2.0,-9.0,27.0,7.0,1651023370710892.0
34.0,-63.0,-43.0,-4.0,-8.0,-27.0,-45.0,-12.0,1651023370710892.0
-7.0,3.0,9.0,-2.0,15.0,-20.0,-16.0,3.0,1651023370724874.0
5.0,57.0,18.0,-12.0,-1.0,15.0,71.0,19.0,1651023370724874.0
69.0,-37.0,-7.0,31.0,5.0,5.0,-53.0,9.0,1651023370725874.0
-65.0,4.0,-1.0,-24.0,-17.0,-14.0,-11.0,-29.0,1651023370725874.0
-10.0,41.0,-11.0,-11.0,-13.0,-14.0,-20.0,-7.0,1651023370746898.0
-22.0,-49.0,-22.0,-26.0,-15.0,-21.0,2.0,-13.0,1651023370746898.0
18.0,15.0,27.0,38.0,24.0,-3.0,30.0,28.0,1651023370748844.0
29.0,20.0,-25.0,-33.0,-2.0,67.0,59.0,15.0,1651023370748844.0
25.0,20.0,31.0,42.0,27.0,-4.0,-49.0,-14.0,1651023370760857.0
-5.0,-12.0,-31.0,-19.0,-27.0,-59.0,-17.0,12.0,1651023370760857.0
-15.0,31.0,18.0,12.0,1.0,13.0,18.0,-11.0,1651023370767842.0
-1.0,12.0,5.0,-43.0,0.0,48.0,11.0,11.0,1651023370767842.0
0.0,-49.0,12.0,73.0,12.0,-7.0,-1.0,-22.0,1651023370784729.0
-19.0,-53.0,-5.0,-1.0,14.0,-21.0,-47.0,-13.0,1651023370784729.0
-2.0,25.0,-6.0,-17.0,-5.0,0.0,5.0,-8.0,1651023370785732.0
13.0,63.0,7.0,39.0,9.0,-41.0,-15.0,8.0,1651023370785732.0
20.0,-16.0,4.0,-2.0,-2.0,0.0,22.0,28.0,1651023370806716.0
-13.0,-15.0,-30.0,-11.0,-20.0,2.0,22.0,-17.0,1651023370806716.0
-33.0,-25.0,-2.0,-4.0,-2.0,16.0,-6.0,-5.0,1651023370808713.0
6.0,4.0,-34.0,-43.0,-13.0,-11.0,-2.0,-9.0,1651023370808713.0
-67.0,23.0,-10.0,-31.0,-12.0,0.0,-17.0,-13.0,1651023370821677.0
56.0,-43.0,-7.0,-1.0,-10.0,-55.0,-19.0,-5.0,1651023370821677.0
-9.0,27.0,2.0,-15.0,13.0,113.0,24.0,0.0,1651023370827729.0
-11.0,17.0,19.0,10.0,-2.0,-35.0,67.0,36.0,1651023370827729.0
5.0,-29.0,-14.0,-4.0,-13.0,-32.0,-98.0,-48.0,1651023370844758.0
-36.0,31.0,47.0,45.0,35.0,50.0,36.0,17.0,1651023370844758.0
16.0,-42.0,-33.0,-19.0,-4.0,9.0,23.0,10.0,1651023370845758.0
-38.0,56.0,11.0,-20.0,-19.0,-16.0,-53.0,-24.0,1651023370845758.0
-4.0,9.0,4.0,1.0,4.0,-14.0,60.0,-7.0,1651023370866863.0
-29.0,-41.0,-10.0,7.0,-1.0,-11.0,9.0,-1.0,1651023370866863.0
65.0,27.0,17.0,-7.0,1.0,8.0,61.0,35.0,1651023370868790.0
0.0,-37.0,-8.0,-4.0,3.0,-12.0,-83.0,-41.0,1651023370868790.0
-4.0,44.0,36.0,8.0,6.0,-12.0,4.0,16.0,1651023370881017.0
-3.0,-39.0,-8.0,9.0,-1.0,24.0,22.0,3.0,1651023370881017.0
-45.0,29.0,-41.0,-21.0,-19.0,-19.0,35.0,-4.0,1651023370887948.0
47.0,-22.0,-17.0,-12.0,-10.0,-2.0,-5.0,0.0,1651023370887948.0
-4.0,-13.0,-12.0,-26.0,-12.0,8.0,12.0,6.0,1651023370903980.0
56.0,6.0,33.0,17.0,12.0,8.0,12.0,12.0,1651023370903980.0
-32.0,9.0,-16.0,-17.0,-14.0,-11.0,-40.0,-27.0,1651023370911957.0
28.0,-20.0,-3.0,3.0,4.0,-1.0,-8.0,18.0,1651023370911957.0
-30.0,-15.0,-6.0,-1.0,-12.0,-67.0,-48.0,-33.0,1651023370927150.0
-80.0,-12.0,-15.0,-20.0,8.0,108.0,74.0,18.0,1651023370927150.0
9.0,13.0,7.0,8.0,0.0,-43.0,33.0,23.0,1651023370928150.0
42.0,-6.0,9.0,8.0,11.0,37.0,-56.0,-33.0,1651023370928150.0
12.0,-9.0,-29.0,-17.0,-6.0,9.0,26.0,15.0,1651023370941184.0
-20.0,-1.0,-7.0,-28.0,-29.0,-47.0,-45.0,-29.0,1651023370941184.0
32.0,-33.0,5.0,-22.0,-12.0,-1.0,16.0,29.0,1651023370948165.0
-112.0,-25.0,-4.0,49.0,24.0,-6.0,51.0,-8.0,1651023370948165.0
-15.0,-28.0,-9.0,16.0,1.0,-14.0,-52.0,-15.0,1651023370963993.0
39.0,11.0,-17.0,-34.0,-12.0,-10.0,-32.0,-18.0,1651023370963993.0
-41.0,5.0,14.0,-2.0,-1.0,7.0,-9.0,-5.0,1651023370965919.0
46.0,54.0,40.0,15.0,6.0,16.0,57.0,44.0,1651023370965919.0
5.0,32.0,5.0,1.0,3.0,2.0,17.0,18.0,1651023370986966.0
12.0,-38.0,-46.0,-27.0,-22.0,-28.0,-4.0,-5.0,1651023370986966.0
-10.0,-44.0,9.0,24.0,15.0,-20.0,-38.0,-16.0,1651023370988894.0
-46.0,-15.0,-6.0,-10.0,-12.0,-10.0,74.0,15.0,1651023370988894.0
-35.0,-36.0,-32.0,-30.0,-16.0,34.0,-68.0,-41.0,1651023371000929.0
19.0,31.0,27.0,23.0,15.0,12.0,20.0,18.0,1651023371000929.0
5.0,-16.0,16.0,30.0,6.0,-46.0,-44.0,-11.0,1651023371007914.0
35.0,11.0,7.0,-26.0,-9.0,46.0,49.0,4.0,1651023371007914.0
29.0,34.0,10.0,38.0,11.0,5.0,-37.0,-8.0,1651023371024879.0
-25.0,43.0,8.0,-32.0,-10.0,-35.0,-17.0,1.0,1651023371024879.0
23.0,40.0,26.0,41.0,24.0,25.0,16.0,-3.0,1651023371025879.0
-21.0,-31.0,-42.0,-14.0,9.0,-30.0,-36.0,-1.0,1651023371025879.0
-4.0,-11.0,8.0,13.0,-11.0,-5.0,25.0,5.0,1651023371046823.0
-12.0,9.0,23.0,-23.0,5.0,17.0,-16.0,-5.0,1651023371046823.0
21.0,19.0,-24.0,40.0,-5.0,-8.0,-16.0,-10.0,1651023371048817.0
26.0,66.0,8.0,-15.0,-12.0,8.0,29.0,18.0,1651023371048817.0
-7.0,-36.0,-4.0,-14.0,4.0,2.0,-11.0,-20.0,1651023371060813.0
-10.0,9.0,-37.0,-23.0,-7.0,1.0,12.0,23.0,1651023371060813.0
-59.0,-6.0,14.0,-21.0,-10.0,-41.0,-13.0,-25.0,1651023371067767.0
7.0,-7.0,18.0,16.0,3.0,16.0,-21.0,-15.0,1651023371067767.0
-44.0,-64.0,-47.0,-30.0,-7.0,-10.0,1.0,-25.0,1651023371084732.0
-3.0,1.0,3.0,24.0,-13.0,-83.0,-13.0,10.0,1651023371084732.0
-15.0,-6.0,11.0,4.0,28.0,96.0,50.0,21.0,1651023371085719.0
-44.0,-24.0,-16.0,-9.0,-4.0,46.0,-82.0,-34.0,1651023371085719.0
91.0,41.0,9.0,-22.0,-9.0,-31.0,4.0,23.0,1651023371106730.0
-2.0,34.0,21.0,15.0,16.0,-6.0,20.0,9.0,1651023371106730.0
-36.0,-26.0,13.0,72.0,14.0,-15.0,-30.0,-19.0,1651023371108658.0
74.0,-12.0,13.0,-11.0,-4.0,-46.0,-24.0,-10.0,1651023371108658.0
-41.0,55.0,3.0,9.0,-3.0,9.0,21.0,13.0,1651023371120819.0
52.0,-91.0,-28.0,-11.0,5.0,4.0,-31.0,-14.0,1651023371120819.0
-3.0,63.0,8.0,-55.0,-36.0,-5.0,2.0,15.0,1651023371127917.0
-54.0,-20.0,-14.0,-6.0,21.0,4.0,36.0,-5.0,1651023371127917.0
9.0,40.0,28.0,72.0,29.0,31.0,49.0,47.0,1651023371143915.0
12.0,24.0,1.0,14.0,-4.0,-1.0,-30.0,-21.0,1651023371143915.0
-57.0,-17.0,-6.0,-11.0,-3.0,-2.0,-14.0,-21.0,1651023371145913.0
65.0,-43.0,-35.0,-48.0,-27.0,-18.0,13.0,9.0,1651023371145913.0
-46.0,3.0,34.0,-7.0,3.0,17.0,-8.0,-10.0,1651023371167866.0
83.0,8.0,-10.0,12.0,-3.0,-37.0,16.0,40.0,1651023371167866.0
-46.0,-54.0,-36.0,-46.0,-27.0,-12.0,35.0,-17.0,1651023371169849.0
-46.0,27.0,43.0,45.0,28.0,51.0,-128.0,-71.0,1651023371169849.0
58.0,-23.0,-30.0,-34.0,6.0,46.0,106.0,65.0,1651023371180883.0
-50.0,15.0,-21.0,6.0,0.0,22.0,-85.0,-73.0,1651023371180883.0
76.0,15.0,39.0,29.0,4.0,-60.0,13.0,29.0,1651023371189797.0
40.0,31.0,-21.0,8.0,-16.0,-49.0,54.0,48.0,1651023371189797.0
-64.0,53.0,36.0,22.0,21.0,13.0,-6.0,-29.0,1651023371204873.0
-93.0,31.0,29.0,26.0,8.0,23.0,18.0,-8.0,1651023371204873.0
113.0,-75.0,-49.0,-26.0,-1.0,7.0,-1.0,29.0,1651023371205875.0
-26.0,18.0,18.0,20.0,4.0,-1.0,-16.0,-7.0,1651023371205875.0
49.0,-24.0,5.0,-15.0,-2.0,18.0,60.0,58.0,1651023371227243.0
-3.0,-50.0,-29.0,-48.0,-22.0,-32.0,-33.0,-30.0,1651023371227243.0
-15.0,37.0,32.0,46.0,20.0,27.0,-1.0,-8.0,1651023371228915.0
37.0,62.0,13.0,1.0,-2.0,-23.0,45.0,65.0,1651023371228915.0
-36.0,-65.0,-45.0,-40.0,-30.0,-42.0,-69.0,-89.0,1651023371240929.0
5.0,16.0,16.0,3.0,2.0,23.0,38.0,23.0,1651023371240929.0
-3.0,21.0,35.0,28.0,23.0,3.0,-48.0,42.0,1651023371249874.0
70.0,-18.0,-37.0,-36.0,-17.0,9.0,4.0,-12.0,1651023371249874.0
-2.0,1.0,8.0,9.0,4.0,-8.0,18.0,-12.0,1651023371264031.0
-20.0,3.0,15.0,33.0,5.0,1.0,-7.0,-3.0,1651023371264031.0
-13.0,-50.0,-51.0,-45.0,-22.0,-21.0,-89.0,-41.0,1651023371265959.0
-26.0,8.0,31.0,5.0,-8.0,-45.0,17.0,11.0,1651023371265959.0
-4.0,29.0,-29.0,-77.0,-32.0,-8.0,3.0,8.0,1651023371286903.0
13.0,6.0,27.0,28.0,27.0,22.0,38.0,-3.0,1651023371286903.0
0.0,17.0,-2.0,13.0,19.0,14.0,39.0,17.0,1651023371288901.0
11.0,-70.0,1.0,17.0,14.0,-3.0,9.0,10.0,1651023371288901.0
37.0,78.0,-15.0,-7.0,-15.0,-3.0,-19.0,-15.0,1651023371300908.0
7.0,6.0,3.0,-35.0,-12.0,14.0,23.0,22.0,1651023371300908.0
-14.0,41.0,14.0,-3.0,1.0,10.0,-1.0,-24.0,1651023371309842.0
-41.0,-43.0,-17.0,-11.0,3.0,13.0,-38.0,-1.0,1651023371309842.0
23.0,-62.0,23.0,39.0,20.0,0.0,50.0,19.0,1651023371324812.0
21.0,-20.0,-6.0,10.0,-9.0,-25.0,-31.0,12.0,1651023371324812.0
26.0,-5.0,-30.0,-23.0,-8.0,2.0,5.0,-2.0,1651023371325925.0
-71.0,21.0,18.0,10.0,10.0,53.0,23.0,-6.0,1651023371325925.0
31.0,11.0,27.0,25.0,-2.0,-19.0,-19.0,13.0,1651023371347740.0
-63.0,-90.0,-37.0,-4.0,-8.0,20.0,30.0,-19.0,1651023371347740.0
86.0,47.0,-7.0,-24.0,-14.0,-17.0,-32.0,-17.0,1651023371348736.0
-41.0,-12.0,-16.0,-28.0,-6.0,-15.0,22.0,-3.0,1651023371348736.0
-36.0,-20.0,25.0,20.0,10.0,1.0,-21.0,9.0,1651023371360768.0
77.0,2.0,11.0,69.0,24.0,4.0,25.0,9.0,1651023371360768.0
-25.0,74.0,41.0,30.0,15.0,10.0,16.0,4.0,1651023371369681.0
34.0,-28.0,-23.0,2.0,-8.0,-1.0,25.0,3.0,1651023371369681.0
-12.0,29.0,-6.0,-22.0,-6.0,-5.0,-8.0,1.0,1651023371384644.0
-30.0,7.0,-14.0,-40.0,-13.0,-6.0,-11.0,-17.0,1651023371384644.0
-31.0,-52.0,-10.0,-6.0,-8.0,13.0,4.0,-2.0,1651023371385744.0
-36.0,-10.0,2.0,-10.0,4.0,-19.0,-40.0,-28.0,1651023371385744.0
34.0,-76.0,-35.0,-6.0,-16.0,-13.0,1.0,-2.0,1651023371406641.0
7.0,3.0,4.0,-3.0,0.0,-12.0,-34.0,5.0,1651023371406641.0
-12.0,-6.0,-10.0,-6.0,2.0,16.0,80.0,15.0,1651023371408601.0
-50.0,-66.0,-32.0,-32.0,-25.0,0.0,-91.0,-41.0,1651023371408601.0
44.0,-19.0,-18.0,-11.0,-10.0,-40.0,2.0,-9.0,1651023371420555.0
28.0,82.0,30.0,7.0,11.0,36.0,23.0,16.0,1651023371420555.0
-35.0,-88.0,-23.0,-13.0,3.0,6.0,29.0,-1.0,1651023371429924.0
-70.0,66.0,20.0,11.0,-2.0,-1.0,-11.0,-6.0,1651023371429924.0
72.0,-30.0,-36.0,-4.0,-2.0,-23.0,-28.0,-7.0,1651023371444884.0
-12.0,30.0,1.0,-13.0,-7.0,-13.0,7.0,2.0,1651023371444884.0
16.0,23.0,23.0,0.0,7.0,25.0,0.0,17.0,1651023371445881.0
-1.0,-25.0,20.0,44.0,20.0,11.0,36.0,14.0,1651023371445881.0
-5.0,60.0,22.0,38.0,14.0,17.0,4.0,14.0,1651023371467823.0
7.0,-28.0,-10.0,15.0,-4.0,-20.0,-11.0,-2.0,1651023371467823.0
-52.0,28.0,-18.0,-43.0,-13.0,16.0,27.0,16.0,1651023371468823.0
40.0,-14.0,11.0,45.0,9.0,-13.0,-13.0,-8.0,1651023371468823.0
-55.0,-9.0,9.0,-9.0,-6.0,8.0,-1.0,-9.0,1651023371489801.0
-54.0,-22.0,-35.0,-22.0,1.0,-17.0,-10.0,-9.0,1651023371489801.0
-11.0,-53.0,-13.0,-5.0,-21.0,-20.0,-52.0,-49.0,1651023371490799.0
-4.0,24.0,-6.0,-26.0,-10.0,8.0,18.0,14.0,1651023371490799.0
26.0,16.0,33.0,29.0,20.0,-20.0,-13.0,4.0,1651023371504771.0
-38.0,-15.0,9.0,8.0,19.0,94.0,80.0,19.0,1651023371504771.0
36.0,69.0,7.0,-9.0,-9.0,-23.0,11.0,-3.0,1651023371505871.0
-18.0,-24.0,-17.0,-17.0,-12.0,-28.0,-74.0,-34.0,1651023371505871.0
-60.0,-32.0,-19.0,-19.0,-10.0,11.0,12.0,-23.0,1651023371526716.0
16.0,33.0,20.0,4.0,4.0,11.0,43.0,32.0,1651023371526716.0
21.0,37.0,11.0,-3.0,-5.0,-71.0,-113.0,-30.0,1651023371528643.0
21.0,-8.0,22.0,10.0,5.0,14.0,69.0,50.0,1651023371528643.0
39.0,118.0,42.0,57.0,32.0,15.0,3.0,-12.0,1651023371540283.0
7.0,-109.0,-36.0,-20.0,-10.0,-7.0,4.0,-8.0,1651023371540283.0
-21.0,12.0,-15.0,-16.0,-11.0,21.0,23.0,2.0,1651023371549191.0
40.0,36.0,13.0,-9.0,1.0,5.0,23.0,27.0,1651023371549191.0
-56.0,-13.0,-11.0,-28.0,-10.0,-5.0,-19.0,-10.0,1651023371564154.0
-29.0,3.0,15.0,-4.0,-17.0,-4.0,-14.0,-21.0,1651023371564154.0
48.0,-5.0,4.0,19.0,25.0,8.0,-8.0,12.0,1651023371566147.0
45.0,64.0,-8.0,-10.0,-3.0,-18.0,9.0,-7.0,1651023371566147.0
-54.0,-44.0,-1.0,-5.0,-3.0,12.0,33.0,7.0,1651023371587240.0
7.0,49.0,18.0,13.0,-5.0,-40.0,-90.0,-27.0,1651023371587240.0
-39.0,-59.0,-10.0,3.0,1.0,7.0,0.0,-9.0,1651023371588868.0
28.0,-4.0,2.0,9.0,11.0,17.0,2.0,-4.0,1651023371588868.0
-64.0,-19.0,-3.0,-5.0,-5.0,-2.0,3.0,-7.0,1651023371600899.0
57.0,76.0,-13.0,-36.0,-15.0,-18.0,-22.0,12.0,1651023371600899.0
4.0,-7.0,0.0,7.0,-17.0,-5.0,57.0,0.0,1651023371609818.0
-54.0,4.0,29.0,42.0,27.0,-11.0,-65.0,-25.0,1651023371609818.0
67.0,-23.0,-51.0,-90.0,-18.0,11.0,16.0,25.0,1651023371624806.0
4.0,77.0,54.0,99.0,37.0,0.0,-12.0,8.0,1651023371624806.0
-3.0,-2.0,4.0,-21.0,2.0,17.0,23.0,15.0,1651023371625793.0
57.0,70.0,-7.0,6.0,-20.0,14.0,65.0,-2.0,1651023371625793.0
77.0,42.0,37.0,21.0,13.0,15.0,-25.0,49.0,1651023371646909.0
-42.0,-17.0,-13.0,-32.0,-17.0,-29.0,-27.0,-24.0,1651023371646909.0
46.0,13.0,4.0,-7.0,1.0,17.0,24.0,13.0,1651023371647897.0
-49.0,-39.0,-4.0,-11.0,-11.0,-28.0,31.0,-1.0,1651023371647897.0
60.0,-5.0,-8.0,3.0,-1.0,3.0,-12.0,14.0,1651023371668909.0
-8.0,2.0,-7.0,-3.0,13.0,60.0,61.0,9.0,1651023371668909.0
23.0,-3.0,22.0,30.0,17.0,32.0,-19.0,-5.0,1651023371670835.0
-87.0,5.0,-8.0,-14.0,-1.0,25.0,108.0,34.0,1651023371670835.0
-38.0,-57.0,-31.0,-12.0,-29.0,-47.0,-109.0,-85.0,1651023371684881.0
51.0,4.0,7.0,-15.0,-28.0,-67.0,-39.0,-7.0,1651023371684881.0
-76.0,-20.0,-10.0,19.0,15.0,-7.0,18.0,-10.0,1651023371685881.0
16.0,-31.0,-10.0,-53.0,-14.0,-10.0,-5.0,14.0,1651023371685881.0
51.0,47.0,35.0,81.0,27.0,39.0,69.0,28.0,1651023371706893.0
-39.0,33.0,10.0,4.0,0.0,-6.0,4.0,-4.0,1651023371706893.0
66.0,-19.0,-27.0,0.0,2.0,18.0,16.0,45.0,1651023371708820.0
-12.0,-68.0,-15.0,16.0,-11.0,-23.0,-28.0,-45.0,1651023371708820.0
-117.0,22.0,-6.0,-21.0,-1.0,-17.0,-65.0,-52.0,1651023371729005.0
61.0,-73.0,-22.0,-13.0,-1.0,0.0,-13.0,-2.0,1651023371729005.0
50.0,55.0,42.0,32.0,11.0,-4.0,45.0,58.0,1651023371730941.0
12.0,31.0,-2.0,-24.0,-10.0,3.0,-41.0,-15.0,1651023371730941.0
-1.0,-50.0,-25.0,-15.0,-8.0,24.0,41.0,26.0,1651023371744050.0
50.0,24.0,11.0,16.0,9.0,-10.0,-14.0,-6.0,1651023371744050.0
-86.0,-36.0,-9.0,-24.0,-13.0,-38.0,-73.0,-56.0,1651023371746048.0
94.0,-16.0,8.0,28.0,4.0,-4.0,41.0,30.0,1651023371746048.0
-2.0,9.0,6.0,0.0,12.0,-17.0,12.0,7.0,1651023371766900.0
-65.0,2.0,9.0,16.0,22.0,71.0,57.0,22.0,1651023371766900.0
-3.0,13.0,0.0,-26.0,-4.0,21.0,-1.0,-4.0,1651023371768849.0
27.0,-12.0,1.0,15.0,11.0,-7.0,-35.0,3.0,1651023371768849.0
14.0,88.0,2.0,-28.0,-17.0,-16.0,12.0,27.0,1651023371789892.0
-58.0,-78.0,-37.0,7.0,1.0,-26.0,-19.0,-38.0,1651023371789892.0
-47.0,-15.0,-5.0,-2.0,-13.0,-14.0,0.0,-12.0,1651023371790889.0
1.0,-23.0,-16.0,-11.0,-6.0,-12.0,-46.0,-30.0,1651023371790889.0
23.0,-7.0,9.0,2.0,6.0,3.0,26.0,30.0,1651023371804047.0
58.0,19.0,-5.0,-27.0,-5.0,17.0,13.0,22.0,1651023371804047.0
-12.0,-3.0,-1.0,6.0,-8.0,-39.0,-32.0,-18.0,1651023371810971.0
-38.0,15.0,8.0,6.0,1.0,22.0,3.0,-3.0,1651023371810971.0
7.0,-20.0,-5.0,6.0,-7.0,33.0,48.0,11.0,1651023371826952.0
-15.0,4.0,2.0,-7.0,9.0,4.0,-33.0,-8.0,1651023371826952.0
-4.0,-3.0,5.0,19.0,29.0,7.0,-1.0,-10.0,1651023371827943.0
22.0,10.0,2.0,-1.0,-12.0,-11.0,-2.0,22.0,1651023371827943.0
-14.0,-15.0,-4.0,-12.0,-9.0,-36.0,-13.0,-20.0,1651023371848892.0
-6.0,3.0,6.0,-1.0,-14.0,-5.0,17.0,17.0,1651023371848892.0
4.0,-2.0,2.0,7.0,13.0,-3.0,1.0,4.0,1651023371850854.0
4.0,1.0,-17.0,-10.0,2.0,-3.0,-3.0,-2.0,1651023371850854.0
-22.0,-18.0,-3.0,3.0,-4.0,9.0,-5.0,-15.0,1651023371863819.0
-14.0,9.0,20.0,-2.0,-9.0,-7.0,5.0,-6.0,1651023371863819.0
23.0,7.0,-2.0,7.0,-5.0,1.0,-2.0,20.0,1651023371870902.0
-12.0,-5.0,-16.0,-3.0,4.0,4.0,-3.0,-19.0,1651023371870902.0
-14.0,-1.0,-1.0,3.0,5.0,21.0,4.0,-3.0,1651023371886916.0
10.0,0.0,13.0,-3.0,-4.0,-16.0,11.0,12.0,1651023371886916.0
7.0,2.0,-5.0,-12.0,-14.0,-34.0,-16.0,-7.0,1651023371888897.0
1.0,22.0,-5.0,-1.0,-11.0,-29.0,8.0,18.0,1651023371888897.0
-17.0,-48.0,-37.0,-4.0,32.0,92.0,26.0,0.0,1651023371909025.0
3.0,8.0,10.0,-6.0,-5.0,-68.0,-20.0,-6.0,1651023371909025.0
-4.0,-1.0,-3.0,3.0,6.0,82.0,-1.0,-27.0,1651023371910983.0
-5.0,4.0,14.0,8.0,-11.0,-33.0,1.0,15.0,1651023371910983.0
0.0,6.0,7.0,4.0,0.0,-31.0,-9.0,-1.0,1651023371923989.0
-3.0,6.0,-3.0,-3.0,1.0,12.0,4.0,6.0,1651023371923989.0
-3.0,-18.0,-22.0,-6.0,-13.0,-26.0,-12.0,-18.0,1651023371930902.0
0.0,4.0,16.0,-3.0,1.0,9.0,-8.0,-12.0,1651023371930902.0
-1.0,-6.0,-23.0,-18.0,-10.0,-4.0,-10.0,0.0,1651023371946951.0
-1.0,-19.0,-18.0,3.0,-1.0,12.0,0.0,-2.0,1651023371946951.0
-1.0,4.0,0.0,-18.0,-5.0,-18.0,-5.0,5.0,1651023371948894.0
-4.0,3.0,17.0,6.0,9.0,32.0,3.0,-17.0,1651023371948894.0
4.0,19.0,20.0,22.0,7.0,-12.0,6.0,20.0,1651023371969859.0
-3.0,-14.0,0.0,-2.0,-2.0,2.0,-3.0,-11.0,1651023371969859.0
6.0,-12.0,-29.0,-7.0,-2.0,12.0,22.0,32.0,1651023371970861.0
-5.0,-4.0,6.0,6.0,3.0,6.0,-8.0,-27.0,1651023371970861.0
-7.0,-4.0,-12.0,-9.0,-3.0,-21.0,3.0,1.0,1651023371983105.0
-4.0,13.0,23.0,-9.0,-8.0,10.0,-2.0,-20.0,1651023371983105.0
7.0,24.0,58.0,14.0,4.0,6.0,11.0,20.0,1651023371991860.0
-6.0,-29.0,-49.0,-9.0,-1.0,-14.0,-18.0,2.0,1651023371991860.0
0.0,-2.0,-16.0,4.0,-2.0,7.0,11.0,30.0,1651023372007239.0
-3.0,-5.0,-12.0,-12.0,-6.0,19.0,10.0,2.0,1651023372007239.0
-8.0,-10.0,-6.0,-9.0,-2.0,-13.0,-9.0,-21.0,1651023372007896.0
9.0,19.0,42.0,21.0,23.0,14.0,21.0,27.0,1651023372007896.0
3.0,3.0,7.0,6.0,-5.0,-9.0,-10.0,-7.0,1651023372029871.0
-1.0,-4.0,-16.0,-3.0,-1.0,4.0,-2.0,1.0,1651023372029871.0
-3.0,5.0,14.0,4.0,-11.0,-7.0,-2.0,-4.0,1651023372030867.0
-2.0,-1.0,2.0,1.0,-1.0,-1.0,0.0,-8.0,1651023372030867.0
-1.0,-3.0,-1.0,4.0,4.0,-4.0,-11.0,-5.0,1651023372042951.0
-1.0,6.0,12.0,6.0,3.0,3.0,4.0,0.0,1651023372042951.0
4.0,-1.0,-18.0,-9.0,-1.0,-6.0,2.0,-1.0,1651023372057946.0
-1.0,-18.0,-32.0,-11.0,-3.0,7.0,1.0,5.0,1651023372057946.0
-5.0,17.0,32.0,0.0,-7.0,-8.0,-11.0,-14.0,1651023372066922.0
-5.0,-13.0,-13.0,-7.0,-5.0,-7.0,-2.0,-1.0,1651023372066922.0
7.0,16.0,22.0,18.0,7.0,6.0,4.0,6.0,1651023372068870.0
-12.0,-15.0,-46.0,-22.0,-9.0,0.0,-7.0,-9.0,1651023372068870.0
1.0,-19.0,13.0,0.0,-4.0,-6.0,3.0,-3.0,1651023372097084.0
4.0,4.0,-17.0,4.0,6.0,-2.0,-1.0,3.0,1651023372097084.0
-9.0,-11.0,-3.0,1.0,11.0,3.0,-2.0,-3.0,1651023372098015.0
10.0,19.0,21.0,6.0,-6.0,0.0,-4.0,3.0,1651023372098015.0
2.0,3.0,1.0,-1.0,2.0,-5.0,-1.0,-4.0,1651023372103031.0
-6.0,-10.0,0.0,0.0,-3.0,1.0,0.0,-1.0,1651023372103031.0
-1.0,-12.0,-18.0,-8.0,-7.0,0.0,5.0,3.0,1651023372111978.0
-3.0,-12.0,9.0,-1.0,6.0,1.0,1.0,2.0,1651023372111978.0
2.0,9.0,5.0,3.0,2.0,-1.0,-1.0,-1.0,1651023372127276.0
1.0,-5.0,0.0,-3.0,-3.0,-1.0,2.0,6.0,1651023372127276.0
-5.0,-11.0,6.0,1.0,-3.0,0.0,-3.0,-4.0,1651023372128906.0
10.0,67.0,-5.0,-2.0,-1.0,-3.0,-1.0,-5.0,1651023372128906.0
-2.0,-12.0,3.0,1.0,-2.0,0.0,-3.0,-6.0,1651023372148906.0
3.0,6.0,7.0,3.0,4.0,4.0,4.0,6.0,1651023372148906.0
4.0,-1.0,-2.0,-2.0,-2.0,-2.0,0.0,-1.0,1651023372150841.0
3.0,4.0,20.0,1.0,-10.0,1.0,3.0,5.0,1651023372150841.0
-3.0,0.0,4.0,11.0,12.0,2.0,-1.0,0.0,1651023372164800.0
-17.0,-36.0,-22.0,-11.0,8.0,-3.0,-4.0,-12.0,1651023372164800.0
2.0,13.0,13.0,2.0,-5.0,-1.0,7.0,10.0,1651023372171782.0
-1.0,-21.0,1.0,-1.0,5.0,3.0,-1.0,0.0,1651023372171782.0
2.0,11.0,6.0,-1.0,-9.0,-4.0,-3.0,-3.0,1651023372186935.0
3.0,0.0,-2.0,3.0,-5.0,1.0,2.0,3.0,1651023372186935.0
-5.0,-3.0,-13.0,-7.0,-4.0,-3.0,-5.0,-5.0,1651023372188862.0
-6.0,-11.0,2.0,3.0,4.0,0.0,1.0,1.0,1651023372188862.0
4.0,-3.0,3.0,3.0,2.0,2.0,1.0,-1.0,1651023372208980.0
-1.0,16.0,4.0,0.0,-1.0,1.0,-1.0,-3.0,1651023372208980.0
-4.0,-4.0,-5.0,-4.0,-2.0,-1.0,-4.0,-4.0,1651023372215935.0
3.0,7.0,0.0,1.0,-2.0,0.0,0.0,1.0,1651023372215935.0
-7.0,-44.0,-10.0,-7.0,-6.0,-5.0,-3.0,-6.0,1651023372222940.0
8.0,30.0,2.0,2.0,2.0,2.0,3.0,3.0,1651023372222940.0
2.0,16.0,4.0,0.0,2.0,1.0,1.0,-1.0,1651023372231849.0
-12.0,-32.0,-12.0,1.0,1.0,-1.0,-7.0,-4.0,1651023372231849.0
-9.0,-7.0,-7.0,-9.0,-6.0,-3.0,-4.0,-4.0,1651023372247023.0
2.0,-1.0,1.0,1.0,-4.0,-2.0,-1.0,1.0,1651023372247023.0
-3.0,-14.0,-6.0,-1.0,-1.0,-1.0,-1.0,-2.0,1651023372248950.0
8.0,23.0,17.0,4.0,1.0,-1.0,2.0,1.0,1651023372248950.0
5.0,8.0,-1.0,1.0,-7.0,1.0,0.0,3.0,1651023372269046.0
-2.0,-6.0,-4.0,1.0,8.0,-3.0,-1.0,1.0,1651023372269046.0
5.0,13.0,4.0,2.0,5.0,3.0,-1.0,1.0,1651023372271007.0
2.0,-6.0,-4.0,-8.0,-7.0,0.0,2.0,0.0,1651023372271007.0
-6.0,-12.0,-5.0,-3.0,-8.0,-3.0,-2.0,-1.0,1651023372283039.0
-10.0,-29.0,-14.0,0.0,-3.0,-4.0,-1.0,-4.0,1651023372283039.0
10.0,16.0,6.0,2.0,15.0,5.0,-1.0,-2.0,1651023372291951.0
-2.0,10.0,12.0,1.0,-4.0,-1.0,2.0,0.0,1651023372291951.0
6.0,24.0,-6.0,-5.0,1.0,-1.0,0.0,1.0,1651023372307265.0
1.0,1.0,7.0,-4.0,-6.0,1.0,2.0,2.0,1651023372307265.0
1.0,18.0,-1.0,17.0,-1.0,-3.0,-2.0,-2.0,1651023372308867.0
-6.0,-4.0,-6.0,-3.0,3.0,1.0,-3.0,-4.0,1651023372308867.0
-2.0,-7.0,10.0,7.0,1.0,-2.0,0.0,-3.0,1651023372336980.0
2.0,8.0,-10.0,-7.0,-5.0,-1.0,0.0,0.0,1651023372336980.0
-12.0,-6.0,-6.0,-10.0,-5.0,-3.0,-1.0,-5.0,1651023372337914.0
3.0,4.0,2.0,-2.0,-5.0,0.0,1.0,1.0,1651023372337914.0
-4.0,-21.0,-6.0,-3.0,5.0,0.0,-2.0,-1.0,1651023372342927.0
-1.0,13.0,2.0,2.0,1.0,1.0,-1.0,0.0,1651023372342927.0
-7.0,-26.0,-4.0,-6.0,-3.0,-2.0,-1.0,-1.0,1651023372351888.0
7.0,19.0,7.0,5.0,5.0,1.0,0.0,3.0,1651023372351888.0
-7.0,-18.0,-6.0,-4.0,-6.0,-2.0,1.0,-2.0,1651023372366901.0
2.0,17.0,5.0,4.0,9.0,0.0,-1.0,0.0,1651023372366901.0
-1.0,3.0,1.0,1.0,-2.0,0.0,1.0,2.0,1651023372368858.0
2.0,-5.0,-11.0,-3.0,-2.0,-2.0,-2.0,-2.0,1651023372368858.0
-4.0,21.0,8.0,3.0,4.0,2.0,-2.0,0.0,1651023372389908.0
2.0,-4.0,2.0,-1.0,-9.0,-1.0,1.0,0.0,1651023372389908.0
-8.0,-15.0,-6.0,-2.0,-2.0,-1.0,-3.0,-3.0,1651023372390904.0
2.0,-16.0,0.0,-2.0,0.0,-2.0,2.0,3.0,1651023372390904.0
7.0,3.0,-5.0,-1.0,1.0,2.0,1.0,-1.0,1651023372402939.0
-19.0,-34.0,0.0,3.0,2.0,1.0,-2.0,-6.0,1651023372402939.0
6.0,-1.0,-7.0,-3.0,-1.0,-1.0,-3.0,-1.0,1651023372411944.0
-10.0,-18.0,9.0,0.0,-3.0,-2.0,-2.0,-2.0,1651023372411944.0
2.0,13.0,-5.0,-4.0,0.0,-3.0,-1.0,0.0,1651023372427130.0
8.0,1.0,-3.0,0.0,0.0,1.0,1.0,3.0,1651023372427130.0
-5.0,-4.0,16.0,4.0,3.0,3.0,2.0,0.0,1651023372428086.0
4.0,-6.0,-24.0,-4.0,-1.0,1.0,0.0,1.0,1651023372428086.0
0.0,3.0,14.0,-3.0,-15.0,-4.0,0.0,-1.0,1651023372449013.0
0.0,-8.0,-5.0,-1.0,16.0,-2.0,0.0,0.0,1651023372449013.0
-4.0,-2.0,-1.0,4.0,2.0,0.0,0.0,-1.0,1651023372451026.0
0.0,-18.0,-5.0,-5.0,-4.0,2.0,3.0,2.0,1651023372451026.0
-5.0,16.0,-4.0,2.0,4.0,-2.0,-2.0,-3.0,1651023372463422.0
6.0,-2.0,2.0,4.0,-11.0,1.0,1.0,3.0,1651023372463422.0
-16.0,1.0,-5.0,-10.0,-8.0,-4.0,-3.0,-6.0,1651023372472450.0
-5.0,-33.0,-3.0,-1.0,4.0,-2.0,0.0,-1.0,1651023372472450.0
10.0,10.0,-2.0,-2.0,0.0,0.0,0.0,2.0,1651023372494462.0
-3.0,12.0,1.0,-5.0,-9.0,-4.0,-2.0,-2.0,1651023372494462.0
4.0,-11.0,-1.0,0.0,2.0,1.0,1.0,2.0,1651023372496401.0
3.0,25.0,1.0,4.0,2.0,1.0,-1.0,-1.0,1651023372496401.0
-12.0,-11.0,0.0,-3.0,5.0,0.0,-3.0,-4.0,1651023372509597.0
2.0,-7.0,-1.0,2.0,0.0,3.0,1.0,3.0,1651023372509597.0
-3.0,-9.0,-5.0,-3.0,-4.0,-2.0,-2.0,-4.0,1651023372510527.0
-4.0,-2.0,3.0,-1.0,-2.0,-2.0,-1.0,-2.0,1651023372510527.0
7.0,2.0,3.0,1.0,2.0,0.0,1.0,3.0,1651023372522563.0
5.0,19.0,1.0,0.0,1.0,0.0,-1.0,2.0,1651023372522563.0
2.0,-7.0,-5.0,-3.0,-3.0,-2.0,2.0,2.0,1651023372532469.0
6.0,18.0,7.0,1.0,0.0,-1.0,-1.0,1.0,1651023372532469.0
-14.0,-58.0,-2.0,3.0,3.0,0.0,-2.0,-5.0,1651023372546973.0
0.0,21.0,-9.0,-8.0,-5.0,-1.0,1.0,-3.0,1651023372546973.0
1.0,6.0,-1.0,1.0,-1.0,-2.0,-3.0,-1.0,1651023372548903.0
5.0,-6.0,3.0,3.0,3.0,0.0,-1.0,-1.0,1651023372548903.0
0.0,21.0,-2.0,0.0,1.0,0.0,1.0,2.0,1651023372569018.0
-9.0,-21.0,-1.0,1.0,-3.0,-1.0,1.0,0.0,1651023372569018.0
-3.0,-8.0,-5.0,-2.0,0.0,-1.0,0.0,-1.0,1651023372575932.0
-2.0,0.0,-2.0,-1.0,0.0,-1.0,-2.0,-1.0,1651023372575932.0
3.0,1.0,3.0,0.0,1.0,2.0,-1.0,1.0,1651023372592047.0
6.0,5.0,2.0,2.0,1.0,0.0,0.0,3.0,1651023372592047.0
-8.0,-10.0,-12.0,-7.0,-6.0,-3.0,-3.0,-4.0,1651023372593047.0
-6.0,-13.0,0.0,1.0,0.0,1.0,1.0,0.0,1651023372593047.0
4.0,-18.0,-4.0,-1.0,0.0,0.0,1.0,3.0,1651023372614002.0
5.0,-1.0,1.0,1.0,0.0,1.0,-2.0,0.0,1651023372614002.0
6.0,20.0,2.0,-1.0,-5.0,0.0,3.0,3.0,1651023372615929.0
-10.0,-55.0,-15.0,-4.0,13.0,-3.0,-4.0,-6.0,1651023372615929.0
3.0,26.0,4.0,0.0,-5.0,-2.0,0.0,-2.0,1651023372628958.0
-1.0,5.0,3.0,-5.0,-7.0,-4.0,-2.0,1.0,1651023372628958.0
5.0,-4.0,-1.0,0.0,0.0,2.0,0.0,2.0,1651023372630888.0
-1.0,13.0,2.0,-2.0,-3.0,-1.0,1.0,-1.0,1651023372630888.0
-4.0,6.0,1.0,2.0,4.0,1.0,0.0,-1.0,1651023372651903.0
1.0,-5.0,13.0,0.0,-5.0,0.0,0.0,-1.0,1651023372651903.0
-3.0,-21.0,-23.0,-10.0,2.0,-1.0,0.0,-1.0,1651023372653834.0
-2.0,48.0,11.0,6.0,-7.0,-2.0,-1.0,0.0,1651023372653834.0
-3.0,-24.0,-2.0,3.0,4.0,0.0,0.0,0.0,1651023372666961.0
-2.0,4.0,-1.0,-5.0,-2.0,-1.0,-1.0,-3.0,1651023372666961.0
1.0,3.0,3.0,1.0,0.0,-2.0,-2.0,-1.0,1651023372668894.0
1.0,11.0,-2.0,-7.0,0.0,1.0,-1.0,1.0,1651023372668894.0
20.0,32.0,5.0,2.0,-1.0,1.0,1.0,5.0,1651023372689848.0
-8.0,-10.0,-4.0,1.0,-2.0,-1.0,-1.0,-4.0,1651023372689848.0
3.0,12.0,5.0,1.0,1.0,-1.0,-1.0,-1.0,1651023372690832.0
4.0,-34.0,5.0,4.0,0.0,0.0,3.0,1.0,1651023372690832.0
0.0,12.0,3.0,0.0,2.0,-1.0,0.0,-1.0,1651023372711842.0
-2.0,-7.0,-8.0,-1.0,2.0,0.0,0.0,-2.0,1651023372711842.0
1.0,-7.0,3.0,2.0,0.0,0.0,0.0,0.0,1651023372713797.0
6.0,11.0,6.0,1.0,-3.0,-1.0,-1.0,1.0,1651023372713797.0
2.0,5.0,-1.0,-4.0,-3.0,-3.0,-3.0,-3.0,1651023372726414.0
-7.0,-38.0,-13.0,-5.0,-8.0,-1.0,-1.0,-1.0,1651023372726414.0
-6.0,23.0,9.0,3.0,13.0,-1.0,-3.0,-4.0,1651023372734395.0
6.0,13.0,-12.0,2.0,-2.0,1.0,2.0,1.0,1651023372734395.0
-3.0,-6.0,0.0,-4.0,-4.0,-2.0,0.0,1.0,1651023372749162.0
13.0,35.0,9.0,2.0,5.0,2.0,-1.0,2.0,1651023372749162.0
5.0,7.0,5.0,0.0,-2.0,-1.0,1.0,0.0,1651023372751171.0
-4.0,1.0,2.0,-3.0,0.0,0.0,-2.0,-1.0,1651023372751171.0
-6.0,3.0,-7.0,0.0,3.0,-1.0,-1.0,-2.0,1651023372772088.0
11.0,19.0,4.0,0.0,-2.0,0.0,0.0,3.0,1651023372772088.0
0.0,-12.0,0.0,0.0,-4.0,-3.0,-2.0,0.0,1651023372773105.0
3.0,22.0,1.0,0.0,1.0,-2.0,-2.0,-1.0,1651023372773105.0
2.0,32.0,3.0,-1.0,-4.0,0.0,0.0,-3.0,1651023372786119.0
-14.0,-12.0,-1.0,0.0,2.0,-1.0,-3.0,-3.0,1651023372786119.0
4.0,-2.0,-3.0,-1.0,-1.0,1.0,0.0,1.0,1651023372793099.0
-4.0,-3.0,-3.0,-4.0,-3.0,-2.0,-1.0,-1.0,1651023372793099.0
0.0,-13.0,0.0,1.0,1.0,1.0,-1.0,1.0,1651023372809056.0
2.0,2.0,0.0,-1.0,2.0,-3.0,0.0,-1.0,1651023372809056.0
7.0,-7.0,0.0,2.0,-2.0,3.0,1.0,2.0,1651023372810984.0
-3.0,-20.0,-9.0,-7.0,-4.0,-4.0,-2.0,-3.0,1651023372810984.0
0.0,8.0,4.0,-2.0,-2.0,-2.0,-3.0,-6.0,1651023372831951.0
7.0,20.0,1.0,4.0,4.0,4.0,1.0,3.0,1651023372831951.0
-5.0,-6.0,0.0,1.0,-5.0,0.0,-1.0,0.0,1651023372833876.0
6.0,4.0,7.0,4.0,5.0,3.0,2.0,2.0,1651023372833876.0
-28.0,52.0,-1.0,-5.0,-1.0,-5.0,-5.0,-11.0,1651023372845971.0
1.0,26.0,1.0,-3.0,0.0,-1.0,-2.0,-1.0,1651023372845971.0
0.0,2.0,-1.0,-2.0,-5.0,0.0,0.0,-1.0,1651023372852913.0
-4.0,0.0,5.0,4.0,1.0,0.0,-1.0,1.0,1651023372852913.0
4.0,-35.0,-7.0,-3.0,-5.0,0.0,-3.0,0.0,1651023372869008.0
-10.0,-22.0,-14.0,-3.0,-3.0,-3.0,-2.0,-5.0,1651023372869008.0
-13.0,-6.0,0.0,-1.0,0.0,0.0,1.0,-4.0,1651023372870935.0
-3.0,-7.0,-2.0,-1.0,0.0,-2.0,-1.0,0.0,1651023372870935.0
2.0,-22.0,-3.0,1.0,-2.0,1.0,1.0,1.0,1651023372891879.0
5.0,25.0,8.0,1.0,1.0,-1.0,0.0,0.0,1651023372891879.0
10.0,4.0,-1.0,4.0,4.0,1.0,1.0,4.0,1651023372892878.0
15.0,44.0,0.0,-7.0,-5.0,-1.0,-1.0,0.0,1651023372892878.0
5.0,15.0,2.0,-2.0,-6.0,-1.0,0.0,3.0,1651023372906015.0
0.0,-13.0,3.0,2.0,3.0,2.0,0.0,1.0,1651023372906015.0
1.0,4.0,5.0,8.0,15.0,2.0,2.0,1.0,1651023372913164.0
-4.0,-5.0,4.0,2.0,-6.0,1.0,0.0,1.0,1651023372913164.0
13.0,40.0,2.0,2.0,2.0,0.0,1.0,2.0,1651023372929015.0
-13.0,-52.0,-11.0,-6.0,-8.0,0.0,-2.0,-4.0,1651023372929015.0
-2.0,-10.0,-4.0,-3.0,-4.0,-1.0,-2.0,-2.0,1651023372930967.0
-11.0,-20.0,-1.0,-3.0,2.0,-1.0,-3.0,-2.0,1651023372930967.0
-1.0,-31.0,-4.0,-4.0,0.0,2.0,2.0,2.0,1651023372952020.0
-5.0,-4.0,-4.0,-1.0,-1.0,-1.0,-1.0,-2.0,1651023372952020.0
-2.0,9.0,2.0,0.0,-2.0,0.0,-2.0,1.0,1651023372952978.0
-1.0,-15.0,-4.0,-2.0,0.0,0.0,-3.0,-5.0,1651023372952978.0
-1.0,26.0,-6.0,-1.0,-2.0,-1.0,0.0,2.0,1651023372965907.0
3.0,-9.0,4.0,3.0,4.0,0.0,1.0,0.0,1651023372965907.0
6.0,5.0,1.0,-1.0,-2.0,0.0,-1.0,-1.0,1651023372972889.0
8.0,65.0,7.0,0.0,-3.0,-2.0,1.0,-2.0,1651023372972889.0
0.0,-23.0,1.0,1.0,4.0,0.0,0.0,0.0,1651023372988960.0
-8.0,-11.0,-7.0,-2.0,-1.0,0.0,-3.0,-1.0,1651023372988960.0
4.0,24.0,-3.0,-5.0,-5.0,-4.0,-1.0,0.0,1651023372990897.0
-9.0,-20.0,-5.0,1.0,-2.0,-1.0,-1.0,0.0,1651023372990897.0
-3.0,-19.0,-1.0,-1.0,-5.0,1.0,0.0,-2.0,1651023373011898.0
7.0,21.0,3.0,0.0,6.0,0.0,2.0,1.0,1651023373011898.0
-1.0,-9.0,4.0,3.0,4.0,1.0,0.0,-1.0,1651023373013834.0
-4.0,4.0,-4.0,0.0,-3.0,0.0,0.0,1.0,1651023373013834.0
-8.0,-6.0,-13.0,-2.0,3.0,0.0,-2.0,-3.0,1651023373025861.0
6.0,-4.0,3.0,2.0,-7.0,-1.0,0.0,4.0,1651023373025861.0
-6.0,-18.0,-2.0,-5.0,-5.0,-1.0,-1.0,0.0,1651023373032776.0
-6.0,0.0,-2.0,-6.0,0.0,-2.0,-2.0,-4.0,1651023373032776.0
12.0,-8.0,8.0,7.0,2.0,2.0,2.0,2.0,1651023373049738.0
-5.0,16.0,0.0,2.0,3.0,1.0,0.0,-2.0,1651023373049738.0
-1.0,-3.0,-2.0,0.0,0.0,0.0,0.0,-2.0,1651023373050727.0
3.0,-3.0,2.0,0.0,0.0,2.0,2.0,1.0,1651023373050727.0
0.0,-15.0,-2.0,1.0,1.0,-1.0,0.0,0.0,1651023373071917.0
-7.0,-12.0,0.0,1.0,2.0,-1.0,-1.0,-4.0,1651023373071917.0
3.0,15.0,1.0,-3.0,-3.0,0.0,-2.0,-1.0,1651023373072910.0
-1.0,-13.0,-1.0,1.0,-1.0,0.0,0.0,1.0,1651023373072910.0
-4.0,-15.0,2.0,-1.0,1.0,-2.0,0.0,-3.0,1651023373085913.0
5.0,4.0,3.0,0.0,0.0,0.0,3.0,2.0,1651023373085913.0
-1.0,-4.0,-2.0,-2.0,-6.0,-1.0,-1.0,0.0,1651023373094828.0
-9.0,-11.0,2.0,0.0,-1.0,-2.0,1.0,-1.0,1651023373094828.0
1.0,-5.0,3.0,-6.0,-13.0,-3.0,-2.0,-2.0,1651023373109814.0
-4.0,1.0,2.0,4.0,12.0,2.0,2.0,1.0,1651023373109814.0
15.0,33.0,7.0,4.0,5.0,1.0,1.0,3.0,1651023373110785.0
2.0,-9.0,0.0,-1.0,-3.0,1.0,0.0,-1.0,1651023373110785.0
-1.0,0.0,-2.0,0.0,6.0,2.0,0.0,0.0,1651023373139865.0
-18.0,-40.0,-4.0,-5.0,-11.0,-1.0,0.0,-1.0,1651023373139865.0
5.0,45.0,0.0,-3.0,-2.0,-2.0,-2.0,-2.0,1651023373140890.0
-5.0,-8.0,-3.0,1.0,4.0,2.0,-1.0,-1.0,1651023373140890.0
-9.0,-13.0,-4.0,1.0,-3.0,-2.0,-3.0,-3.0,1651023373145876.0
2.0,-17.0,1.0,-2.0,-1.0,0.0,0.0,-1.0,1651023373145876.0
2.0,15.0,3.0,0.0,1.0,-1.0,0.0,-1.0,1651023373154855.0
-6.0,-14.0,-2.0,0.0,0.0,-1.0,0.0,-2.0,1651023373154855.0
6.0,16.0,3.0,0.0,3.0,2.0,2.0,3.0,1651023373169061.0
4.0,-2.0,0.0,2.0,3.0,1.0,1.0,1.0,1651023373169061.0
-10.0,-35.0,-2.0,0.0,-3.0,-1.0,1.0,-1.0,1651023373170993.0
19.0,47.0,0.0,4.0,1.0,2.0,2.0,3.0,1651023373170993.0
-4.0,12.0,3.0,2.0,1.0,-2.0,-2.0,-5.0,1651023373192004.0
14.0,13.0,-1.0,-1.0,-2.0,-1.0,0.0,2.0,1651023373192004.0
-8.0,-10.0,-4.0,-3.0,-6.0,-2.0,-3.0,-3.0,1651023373192961.0
-13.0,-91.0,-12.0,-5.0,-5.0,0.0,-2.0,-1.0,1651023373192961.0
-2.0,-22.0,0.0,4.0,19.0,2.0,1.0,2.0,1651023373205980.0
8.0,19.0,-3.0,-4.0,-9.0,1.0,-3.0,-1.0,1651023373205980.0
-13.0,-62.0,-1.0,2.0,-1.0,0.0,-1.0,-3.0,1651023373221886.0
2.0,37.0,5.0,1.0,-2.0,-2.0,0.0,-1.0,1651023373221886.0
-6.0,-6.0,-3.0,-4.0,-6.0,-3.0,-1.0,-4.0,1651023373228936.0
-2.0,-10.0,-7.0,0.0,-1.0,-3.0,-1.0,-2.0,1651023373228936.0
-1.0,-14.0,-2.0,1.0,2.0,3.0,3.0,4.0,1651023373230862.0
0.0,-15.0,-3.0,-3.0,-2.0,-3.0,-4.0,-3.0,1651023373230862.0
-2.0,-7.0,0.0,-2.0,-3.0,-1.0,2.0,3.0,1651023373251870.0
-2.0,9.0,0.0,1.0,0.0,-1.0,-3.0,-3.0,1651023373251870.0
18.0,5.0,3.0,3.0,3.0,2.0,3.0,6.0,1651023373253822.0
3.0,19.0,3.0,2.0,2.0,1.0,1.0,0.0,1651023373253822.0
11.0,36.0,4.0,0.0,-1.0,-1.0,0.0,1.0,1651023373265833.0
-2.0,-9.0,1.0,-2.0,-6.0,-6.0,1.0,-1.0,1651023373265833.0
-1.0,-13.0,-1.0,0.0,7.0,5.0,-1.0,-2.0,1651023373274745.0
-2.0,-7.0,-2.0,-4.0,-9.0,-1.0,0.0,-2.0,1651023373274745.0
0.0,-8.0,-1.0,3.0,14.0,0.0,-1.0,0.0,1651023373289735.0
6.0,34.0,2.0,0.0,-1.0,0.0,-1.0,0.0,1651023373289735.0
-10.0,13.0,-6.0,-6.0,-7.0,-5.0,-1.0,-4.0,1651023373290701.0
-1.0,11.0,1.0,0.0,-3.0,0.0,-2.0,-1.0,1651023373290701.0
5.0,41.0,2.0,5.0,-3.0,1.0,0.0,2.0,1651023373311714.0
-9.0,-2.0,4.0,-5.0,-2.0,-3.0,-2.0,-4.0,1651023373311714.0
-14.0,-34.0,-12.0,-5.0,-1.0,-3.0,-3.0,-5.0,1651023373313668.0
3.0,1.0,7.0,0.0,1.0,-2.0,1.0,1.0,1651023373313668.0
4.0,9.0,-7.0,0.0,0.0,2.0,1.0,2.0,1651023373325609.0
5.0,-28.0,2.0,4.0,4.0,2.0,0.0,0.0,1651023373325609.0
-2.0,13.0,4.0,-1.0,-4.0,-2.0,-1.0,-1.0,1651023373334709.0
-1.0,11.0,10.0,1.0,1.0,-1.0,-1.0,0.0,1651023373334709.0
-6.0,-25.0,-11.0,-2.0,-2.0,-2.0,1.0,-2.0,1651023373349800.0
11.0,35.0,3.0,0.0,0.0,1.0,1.0,2.0,1651023373349800.0
-15.0,-9.0,-7.0,-8.0,-22.0,-5.0,-2.0,-7.0,1651023373350798.0
-10.0,-22.0,-2.0,4.0,30.0,0.0,0.0,-4.0,1651023373350798.0
1.0,-5.0,6.0,2.0,-3.0,2.0,0.0,-2.0,1651023373371875.0
0.0,-2.0,1.0,-8.0,-11.0,-2.0,0.0,0.0,1651023373371875.0
5.0,14.0,0.0,6.0,9.0,4.0,1.0,2.0,1651023373373841.0
2.0,3.0,-7.0,-8.0,-11.0,0.0,1.0,5.0,1651023373373841.0
-1.0,-7.0,13.0,11.0,7.0,0.0,-2.0,-5.0,1651023373385948.0
-6.0,-10.0,-13.0,8.0,4.0,-1.0,0.0,-1.0,1651023373385948.0
4.0,14.0,12.0,-2.0,-4.0,-2.0,0.0,1.0,1651023373394924.0
-1.0,3.0,2.0,5.0,3.0,1.0,-1.0,0.0,1651023373394924.0
-5.0,-12.0,-7.0,-12.0,-3.0,-2.0,-3.0,-2.0,1651023373409863.0
4.0,14.0,-7.0,-12.0,-9.0,-1.0,-1.0,-1.0,1651023373409863.0
2.0,-24.0,-36.0,-11.0,-1.0,-2.0,0.0,3.0,1651023373410878.0
-21.0,6.0,26.0,13.0,7.0,1.0,1.0,-6.0,1651023373410878.0
0.0,1.0,1.0,7.0,-17.0,-3.0,0.0,0.0,1651023373431864.0
-5.0,-5.0,-3.0,-9.0,0.0,-7.0,-4.0,-3.0,1651023373431864.0
7.0,9.0,8.0,-2.0,12.0,9.0,-4.0,-2.0,1651023373433802.0
9.0,-7.0,-35.0,-16.0,-1.0,-4.0,-1.0,5.0,1651023373433802.0
-2.0,-12.0,12.0,41.0,10.0,7.0,7.0,7.0,1651023373453952.0
-6.0,4.0,17.0,-6.0,-6.0,-3.0,-1.0,-5.0,1651023373453952.0
10.0,7.0,1.0,0.0,-4.0,-5.0,-3.0,3.0,1651023373454889.0
4.0,5.0,3.0,-12.0,-6.0,3.0,-2.0,0.0,1651023373454889.0
2.0,-1.0,-11.0,-13.0,-19.0,-7.0,-2.0,2.0,1651023373468909.0
-8.0,-3.0,-2.0,17.0,18.0,9.0,2.0,-3.0,1651023373468909.0
-3.0,-1.0,6.0,3.0,10.0,-2.0,1.0,0.0,1651023373469846.0
6.0,8.0,5.0,7.0,-3.0,1.0,0.0,-3.0,1651023373469846.0
0.0,1.0,-8.0,-13.0,-3.0,-14.0,-6.0,-4.0,1651023373490787.0
-1.0,0.0,31.0,3.0,-11.0,-3.0,1.0,5.0,1651023373490787.0
-9.0,-13.0,-31.0,-15.0,-8.0,2.0,-6.0,-12.0,1651023373491786.0
-6.0,-5.0,-3.0,-5.0,6.0,-1.0,1.0,1.0,1651023373491786.0
-1.0,-2.0,17.0,4.0,-2.0,5.0,2.0,0.0,1651023373513843.0
7.0,6.0,-13.0,-3.0,1.0,-7.0,0.0,4.0,1651023373513843.0
1.0,11.0,52.0,33.0,14.0,1.0,-2.0,1.0,1651023373514833.0
2.0,-6.0,-30.0,-9.0,-10.0,-1.0,-2.0,-1.0,1651023373514833.0
1.0,2.0,-6.0,-19.0,-2.0,-5.0,-1.0,-1.0,1651023373528866.0
-4.0,-10.0,-2.0,11.0,-1.0,3.0,-1.0,-2.0,1651023373528866.0
-2.0,-7.0,-18.0,-12.0,-11.0,-1.0,2.0,1.0,1651023373529822.0
