EMG_s0,EMG_s1,EMG_s2,EMG_s3,EMG_s4,EMG_s5,EMG_s6,EMG_s7,timestamp
1.0,-2.0,-2.0,1.0,-1.0,0.0,1.0,-1.0,1651085048126372.0
-1.0,-2.0,-1.0,-2.0,-1.0,0.0,-2.0,0.0,1651085048126372.0
0.0,0.0,-1.0,-2.0,0.0,0.0,-1.0,0.0,1651085048139228.0
0.0,-1.0,-1.0,-4.0,-1.0,0.0,-2.0,1.0,1651085048139228.0
-1.0,-1.0,0.0,0.0,-2.0,-2.0,-1.0,-2.0,1651085048147826.0
-1.0,-3.0,0.0,1.0,1.0,-1.0,0.0,0.0,1651085048147826.0
-1.0,-2.0,0.0,-1.0,-1.0,-1.0,1.0,-1.0,1651085048163477.0
-1.0,1.0,-1.0,1.0,-1.0,0.0,-2.0,-2.0,1651085048163477.0
-1.0,-2.0,-1.0,0.0,-1.0,-1.0,0.0,-1.0,1651085048163477.0
-1.0,-1.0,-1.0,-3.0,0.0,-1.0,-1.0,-2.0,1651085048163477.0
-1.0,0.0,-1.0,-1.0,-2.0,-3.0,-2.0,-2.0,1651085048185848.0
-3.0,-1.0,1.0,-1.0,2.0,0.0,1.0,1.0,1651085048185848.0
0.0,-1.0,0.0,0.0,-1.0,-1.0,-1.0,1.0,1651085048185848.0
-2.0,0.0,0.0,0.0,-2.0,0.0,0.0,0.0,1651085048185848.0
-1.0,0.0,-1.0,1.0,1.0,0.0,1.0,-1.0,1651085048200796.0
0.0,-2.0,-1.0,-1.0,-1.0,1.0,1.0,0.0,1651085048200796.0
-1.0,-1.0,1.0,-2.0,-2.0,-2.0,-1.0,-1.0,1651085048207666.0
-1.0,-1.0,0.0,1.0,0.0,-1.0,-1.0,0.0,1651085048207666.0
-1.0,0.0,1.0,-3.0,-1.0,-2.0,-1.0,-2.0,1651085048223208.0
0.0,1.0,-1.0,-1.0,-1.0,0.0,0.0,-2.0,1651085048223208.0
2.0,0.0,-2.0,0.0,1.0,0.0,-1.0,-4.0,1651085048223208.0
0.0,-2.0,-1.0,-1.0,1.0,-1.0,-1.0,-1.0,1651085048223208.0
-3.0,0.0,0.0,1.0,-1.0,0.0,-1.0,-3.0,1651085048246168.0
-1.0,-2.0,-1.0,-1.0,0.0,-2.0,-1.0,-2.0,1651085048246168.0
-2.0,0.0,0.0,-1.0,0.0,-1.0,1.0,-1.0,1651085048246168.0
1.0,0.0,-1.0,-2.0,-2.0,-2.0,1.0,2.0,1651085048246168.0
0.0,-2.0,-2.0,-1.0,-2.0,0.0,-1.0,-1.0,1651085048268630.0
-1.0,-2.0,2.0,-1.0,0.0,-2.0,1.0,0.0,1651085048268630.0
0.0,1.0,-1.0,-2.0,-1.0,-1.0,0.0,1.0,1651085048269072.0
1.0,0.0,0.0,0.0,1.0,0.0,-1.0,-1.0,1651085048269072.0
0.0,-1.0,1.0,-1.0,-2.0,-2.0,0.0,0.0,1651085048283233.0
1.0,1.0,0.0,2.0,-2.0,0.0,0.0,-1.0,1651085048283233.0
-2.0,-2.0,0.0,1.0,0.0,0.0,0.0,-2.0,1651085048283233.0
-1.0,1.0,-1.0,-2.0,-1.0,-2.0,0.0,1.0,1651085048283233.0
0.0,-1.0,-3.0,-1.0,1.0,0.0,-1.0,0.0,1651085048306275.0
0.0,-1.0,-1.0,-2.0,-2.0,-1.0,-1.0,-1.0,1651085048306275.0
0.0,-2.0,-1.0,1.0,1.0,0.0,0.0,2.0,1651085048306275.0
-1.0,0.0,-2.0,-1.0,-3.0,-1.0,-1.0,0.0,1651085048306275.0
-2.0,1.0,0.0,0.0,1.0,0.0,0.0,-1.0,1651085048328251.0
-2.0,-2.0,1.0,1.0,1.0,1.0,1.0,-2.0,1651085048328251.0
-1.0,-2.0,1.0,-2.0,0.0,0.0,-2.0,-1.0,1651085048329175.0
-1.0,1.0,-2.0,-1.0,0.0,0.0,2.0,-2.0,1651085048329175.0
1.0,-1.0,0.0,-2.0,-1.0,-2.0,0.0,0.0,1651085048343683.0
-1.0,1.0,-2.0,-3.0,-2.0,-1.0,-4.0,-1.0,1651085048343683.0
-1.0,0.0,0.0,0.0,-1.0,-1.0,0.0,-1.0,1651085048343683.0
-2.0,-1.0,2.0,1.0,3.0,2.0,-1.0,-3.0,1651085048343683.0
1.0,-1.0,0.0,-1.0,-1.0,-1.0,-2.0,0.0,1651085048365867.0
0.0,-1.0,-2.0,2.0,1.0,-1.0,0.0,-1.0,1651085048365867.0
1.0,-2.0,-2.0,-3.0,-2.0,0.0,-1.0,-1.0,1651085048365867.0
0.0,-2.0,-3.0,-3.0,-2.0,-1.0,0.0,-1.0,1651085048365867.0
-1.0,0.0,0.0,0.0,1.0,0.0,-1.0,1.0,1651085048388920.0
0.0,0.0,0.0,0.0,-3.0,-1.0,-1.0,0.0,1651085048388920.0
1.0,0.0,-1.0,0.0,-2.0,-1.0,-1.0,-1.0,1651085048388920.0
0.0,-1.0,-1.0,-2.0,-2.0,-2.0,-1.0,-2.0,1651085048388920.0
-2.0,-1.0,-1.0,-1.0,-2.0,0.0,-1.0,-1.0,1651085048403210.0
-1.0,0.0,0.0,-1.0,1.0,-1.0,-1.0,-1.0,1651085048403210.0
-2.0,1.0,0.0,-1.0,0.0,1.0,-1.0,1.0,1651085048403210.0
-1.0,-1.0,0.0,-1.0,-2.0,-1.0,-1.0,0.0,1651085048403210.0
-1.0,-3.0,-2.0,-1.0,-2.0,-1.0,-1.0,0.0,1651085048426317.0
-1.0,0.0,-1.0,0.0,-1.0,-1.0,-2.0,-1.0,1651085048426317.0
-2.0,0.0,-2.0,0.0,-1.0,0.0,-1.0,0.0,1651085048426317.0
-1.0,1.0,1.0,0.0,1.0,1.0,-1.0,-1.0,1651085048426317.0
0.0,1.0,-2.0,0.0,-1.0,0.0,0.0,1.0,1651085048448461.0
0.0,0.0,0.0,0.0,-1.0,1.0,0.0,-1.0,1651085048448461.0
2.0,-2.0,-1.0,-1.0,0.0,-1.0,0.0,0.0,1651085048449073.0
0.0,-1.0,-1.0,-1.0,0.0,-1.0,-1.0,1.0,1651085048449073.0
-2.0,-1.0,-1.0,1.0,-1.0,0.0,0.0,1.0,1651085048463264.0
1.0,0.0,-1.0,-1.0,-3.0,-1.0,0.0,-1.0,1651085048463264.0
-2.0,1.0,0.0,-1.0,-2.0,-2.0,-2.0,0.0,1651085048463264.0
0.0,-1.0,-1.0,1.0,-2.0,0.0,-1.0,0.0,1651085048463264.0
1.0,0.0,1.0,0.0,1.0,1.0,1.0,-2.0,1651085048485093.0
-2.0,-1.0,-1.0,-2.0,1.0,-1.0,0.0,0.0,1651085048485093.0
-1.0,-1.0,1.0,1.0,-1.0,0.0,0.0,-3.0,1651085048493240.0
0.0,1.0,1.0,1.0,-2.0,-2.0,1.0,1.0,1651085048493240.0
0.0,-1.0,-2.0,-2.0,-1.0,1.0,1.0,0.0,1651085048508101.0
0.0,-1.0,1.0,1.0,-2.0,-2.0,-1.0,1.0,1651085048508101.0
-1.0,0.0,0.0,-2.0,1.0,0.0,-2.0,-2.0,1651085048509106.0
-2.0,0.0,-1.0,0.0,1.0,-1.0,-1.0,-1.0,1651085048509106.0
2.0,-2.0,-1.0,-1.0,0.0,-2.0,1.0,1.0,1651085048530305.0
-1.0,-1.0,0.0,-1.0,0.0,1.0,-1.0,0.0,1651085048530305.0
-2.0,-2.0,0.0,-1.0,-1.0,0.0,-1.0,-2.0,1651085048531171.0
-1.0,-2.0,-1.0,-3.0,-2.0,0.0,-1.0,-1.0,1651085048531171.0
-1.0,-1.0,0.0,0.0,0.0,-1.0,-2.0,-1.0,1651085048545180.0
0.0,0.0,0.0,0.0,1.0,0.0,-1.0,0.0,1651085048545180.0
2.0,1.0,0.0,-3.0,-3.0,-2.0,0.0,0.0,1651085048553233.0
0.0,-1.0,-1.0,-2.0,-1.0,-1.0,-1.0,0.0,1651085048553233.0
0.0,1.0,-1.0,0.0,-1.0,-1.0,0.0,-2.0,1651085048568513.0
-1.0,-1.0,-3.0,0.0,-1.0,0.0,1.0,0.0,1651085048568513.0
0.0,0.0,-1.0,0.0,2.0,0.0,0.0,1.0,1651085048569072.0
-2.0,-1.0,0.0,1.0,1.0,2.0,1.0,0.0,1651085048569072.0
1.0,-1.0,-2.0,-2.0,-2.0,0.0,0.0,0.0,1651085048590250.0
-2.0,0.0,0.0,-1.0,-1.0,0.0,-1.0,0.0,1651085048590250.0
0.0,0.0,-2.0,1.0,-3.0,-2.0,0.0,-1.0,1651085048591261.0
-1.0,0.0,-3.0,-1.0,0.0,-1.0,-2.0,-1.0,1651085048591261.0
0.0,0.0,1.0,1.0,0.0,-1.0,-2.0,-1.0,1651085048605393.0
0.0,-1.0,-1.0,-2.0,-2.0,0.0,0.0,0.0,1651085048605393.0
-2.0,-1.0,-1.0,0.0,-1.0,-1.0,0.0,0.0,1651085048613209.0
1.0,0.0,2.0,-2.0,0.0,0.0,-1.0,-1.0,1651085048613209.0
-2.0,0.0,-1.0,0.0,0.0,0.0,-1.0,0.0,1651085048628524.0
0.0,0.0,-2.0,-1.0,-2.0,-2.0,-1.0,0.0,1651085048628524.0
-1.0,-1.0,0.0,0.0,1.0,0.0,-1.0,-1.0,1651085048629074.0
0.0,-3.0,0.0,3.0,3.0,-1.0,0.0,0.0,1651085048629074.0
-1.0,-1.0,-2.0,-2.0,0.0,-2.0,-1.0,-1.0,1651085048651448.0
0.0,-1.0,0.0,-1.0,0.0,-1.0,-1.0,-2.0,1651085048651448.0
0.0,-1.0,-1.0,-2.0,-2.0,-1.0,-1.0,0.0,1651085048651448.0
0.0,1.0,0.0,-2.0,-2.0,-3.0,-2.0,1.0,1651085048651448.0
-2.0,1.0,0.0,0.0,1.0,-1.0,-1.0,-2.0,1651085048673223.0
0.0,-1.0,0.0,-1.0,2.0,1.0,0.0,1.0,1651085048673223.0
-1.0,-2.0,1.0,-1.0,-1.0,0.0,-1.0,0.0,1651085048674221.0
0.0,-2.0,-1.0,-2.0,-3.0,-2.0,1.0,-1.0,1651085048674221.0
1.0,0.0,1.0,0.0,-4.0,-3.0,-1.0,-1.0,1651085048688812.0
-1.0,0.0,1.0,2.0,1.0,-2.0,1.0,1.0,1651085048688812.0
0.0,-1.0,-1.0,2.0,0.0,0.0,1.0,-1.0,1651085048689112.0
0.0,-1.0,0.0,0.0,-1.0,-1.0,-2.0,-2.0,1651085048689112.0
-1.0,0.0,-1.0,-2.0,-1.0,0.0,-1.0,0.0,1651085048711126.0
-1.0,-1.0,0.0,-1.0,-1.0,1.0,-1.0,0.0,1651085048711126.0
1.0,1.0,-2.0,-1.0,-1.0,-3.0,1.0,0.0,1651085048711283.0
-1.0,-1.0,1.0,1.0,-1.0,-1.0,0.0,1.0,1651085048711283.0
0.0,-2.0,1.0,-1.0,1.0,1.0,1.0,-1.0,1651085048734332.0
0.0,1.0,0.0,0.0,-1.0,-1.0,-1.0,-2.0,1651085048734332.0
-1.0,-1.0,0.0,-1.0,-1.0,0.0,-1.0,0.0,1651085048734332.0
-2.0,1.0,-1.0,-1.0,-1.0,1.0,-1.0,0.0,1651085048734332.0
0.0,-2.0,-2.0,-2.0,-2.0,-1.0,-1.0,0.0,1651085048748436.0
0.0,0.0,0.0,0.0,0.0,1.0,0.0,-2.0,1651085048748436.0
1.0,1.0,-1.0,1.0,-1.0,0.0,1.0,-1.0,1651085048748436.0
-1.0,0.0,1.0,1.0,0.0,-3.0,-1.0,-1.0,1651085048748436.0
-2.0,-1.0,-2.0,-1.0,2.0,-1.0,-1.0,1.0,1651085048771308.0
-1.0,-3.0,-2.0,-2.0,1.0,1.0,0.0,-2.0,1651085048771308.0
-2.0,0.0,-1.0,-1.0,-1.0,0.0,-1.0,-1.0,1651085048771308.0
0.0,0.0,-2.0,0.0,-1.0,0.0,-2.0,-1.0,1651085048771308.0
-1.0,0.0,-1.0,-2.0,-2.0,0.0,-1.0,-2.0,1651085048794291.0
0.0,-1.0,-2.0,-1.0,-3.0,-1.0,-1.0,-2.0,1651085048794291.0
0.0,-1.0,0.0,0.0,1.0,-1.0,-2.0,-1.0,1651085048794291.0
-2.0,-1.0,0.0,-1.0,-1.0,1.0,0.0,-1.0,1651085048794291.0
2.0,-1.0,1.0,-1.0,-1.0,1.0,1.0,-1.0,1651085048808223.0
0.0,0.0,0.0,-1.0,1.0,1.0,-2.0,0.0,1651085048808223.0
0.0,0.0,-1.0,1.0,0.0,0.0,0.0,1.0,1651085048808223.0
1.0,1.0,-3.0,-2.0,-1.0,0.0,-2.0,0.0,1651085048808223.0
-1.0,-1.0,-2.0,-1.0,-1.0,-1.0,-1.0,-2.0,1651085048831307.0
0.0,-2.0,-2.0,-2.0,-2.0,-2.0,-1.0,0.0,1651085048831307.0
-1.0,1.0,1.0,-1.0,-1.0,-2.0,-1.0,-2.0,1651085048831307.0
-3.0,-1.0,0.0,1.0,2.0,2.0,1.0,0.0,1651085048831307.0
-2.0,0.0,-1.0,-2.0,-2.0,-1.0,-1.0,1.0,1651085048854247.0
-1.0,0.0,0.0,1.0,0.0,-2.0,0.0,-1.0,1651085048854247.0
-2.0,0.0,1.0,0.0,2.0,-1.0,0.0,-1.0,1651085048854247.0
1.0,0.0,-1.0,0.0,0.0,1.0,0.0,0.0,1651085048854247.0
0.0,-2.0,1.0,1.0,-1.0,-1.0,-1.0,-4.0,1651085048869114.0
0.0,-1.0,-1.0,0.0,-2.0,-1.0,-1.0,-1.0,1651085048869114.0
0.0,-4.0,-1.0,0.0,-2.0,-1.0,0.0,-2.0,1651085048869114.0
2.0,0.0,0.0,-2.0,0.0,0.0,-1.0,-2.0,1651085048869114.0
-1.0,0.0,-1.0,0.0,0.0,-1.0,0.0,-1.0,1651085048890178.0
0.0,-1.0,1.0,-1.0,0.0,-1.0,-3.0,0.0,1651085048890178.0
0.0,1.0,-1.0,0.0,1.0,1.0,1.0,-2.0,1651085048891173.0
-2.0,-2.0,0.0,0.0,1.0,0.0,0.0,1.0,1651085048891173.0
0.0,0.0,1.0,0.0,0.0,0.0,1.0,-1.0,1651085048913573.0
0.0,0.0,-1.0,-1.0,-4.0,-2.0,-3.0,1.0,1651085048913573.0
-1.0,-1.0,-3.0,-2.0,-1.0,1.0,-3.0,1.0,1651085048914571.0
1.0,-3.0,0.0,-2.0,-2.0,-2.0,0.0,-1.0,1651085048914571.0
0.0,0.0,-2.0,2.0,0.0,0.0,-1.0,-1.0,1651085048928313.0
-2.0,0.0,0.0,0.0,-1.0,1.0,1.0,-1.0,1651085048928313.0
0.0,0.0,0.0,-1.0,0.0,0.0,0.0,1.0,1651085048928313.0
-1.0,-1.0,-2.0,0.0,-2.0,0.0,1.0,1.0,1651085048928313.0
-2.0,-1.0,-1.0,-1.0,-1.0,-1.0,-2.0,0.0,1651085048951399.0
-2.0,0.0,-2.0,0.0,-1.0,-1.0,0.0,-1.0,1651085048951399.0
0.0,-1.0,1.0,-1.0,-1.0,-2.0,-1.0,0.0,1651085048951399.0
-1.0,-1.0,1.0,1.0,-1.0,-1.0,1.0,-2.0,1651085048951399.0
0.0,1.0,0.0,0.0,-1.0,1.0,-2.0,0.0,1651085048981443.0
0.0,-1.0,-4.0,-1.0,-1.0,0.0,-2.0,-1.0,1651085048981443.0
0.0,-1.0,-2.0,-2.0,-3.0,-1.0,-1.0,0.0,1651085048981443.0
0.0,0.0,-2.0,0.0,0.0,1.0,-2.0,-1.0,1651085048981443.0
-1.0,-1.0,-2.0,-2.0,-1.0,1.0,-2.0,-2.0,1651085048987462.0
0.0,-1.0,0.0,0.0,1.0,0.0,1.0,-3.0,1651085048987462.0
0.0,-3.0,-1.0,0.0,-1.0,0.0,-1.0,-1.0,1651085048988427.0
1.0,0.0,-1.0,-2.0,-2.0,-1.0,0.0,0.0,1651085048988427.0
0.0,0.0,0.0,1.0,1.0,-1.0,0.0,-2.0,1651085049010077.0
0.0,-1.0,0.0,2.0,2.0,1.0,-1.0,-1.0,1651085049010077.0
1.0,0.0,0.0,-2.0,-1.0,-2.0,0.0,-1.0,1651085049011074.0
-2.0,-2.0,-1.0,0.0,1.0,-2.0,0.0,0.0,1651085049011074.0
-1.0,-1.0,-2.0,-1.0,1.0,-2.0,0.0,0.0,1651085049033532.0
-1.0,-1.0,0.0,0.0,0.0,-2.0,0.0,-2.0,1651085049033532.0
-2.0,0.0,0.0,0.0,0.0,1.0,1.0,0.0,1651085049034530.0
2.0,1.0,0.0,0.0,0.0,1.0,-1.0,-1.0,1651085049034530.0
2.0,0.0,-1.0,-2.0,-3.0,-3.0,0.0,1.0,1651085049048390.0
-1.0,-2.0,0.0,0.0,-2.0,-1.0,-1.0,2.0,1651085049048390.0
-1.0,-1.0,-1.0,0.0,-2.0,-1.0,0.0,-1.0,1651085049048390.0
-1.0,-1.0,0.0,-1.0,0.0,-1.0,-1.0,-3.0,1651085049048390.0
0.0,0.0,-1.0,0.0,1.0,0.0,0.0,1.0,1651085049071220.0
-1.0,-1.0,-4.0,-2.0,0.0,1.0,0.0,0.0,1651085049071220.0
0.0,-1.0,-2.0,0.0,0.0,-2.0,1.0,0.0,1651085049071220.0
-1.0,-1.0,-1.0,-1.0,-1.0,-1.0,-1.0,-2.0,1651085049071220.0
-3.0,-1.0,0.0,3.0,2.0,1.0,1.0,-1.0,1651085049094027.0
1.0,0.0,1.0,0.0,1.0,2.0,0.0,0.0,1651085049094027.0
0.0,0.0,-2.0,-2.0,-1.0,-1.0,-2.0,0.0,1651085049094027.0
-1.0,-1.0,-2.0,-5.0,-2.0,-3.0,0.0,0.0,1651085049094027.0
0.0,-1.0,0.0,-3.0,-2.0,-1.0,-2.0,0.0,1651085049108097.0
-3.0,-1.0,4.0,9.0,1.0,1.0,0.0,-1.0,1651085049108097.0
-1.0,-1.0,-13.0,-7.0,-1.0,1.0,0.0,-2.0,1651085049108983.0
0.0,-1.0,2.0,2.0,0.0,1.0,0.0,1.0,1651085049108983.0
0.0,-2.0,0.0,-2.0,0.0,1.0,-2.0,-1.0,1651085049130139.0
-1.0,0.0,-2.0,-10.0,-13.0,-5.0,0.0,-1.0,1651085049130139.0
1.0,-1.0,0.0,0.0,-6.0,-4.0,-2.0,1.0,1651085049131145.0
2.0,5.0,1.0,-4.0,-4.0,0.0,-1.0,1.0,1651085049131145.0
-1.0,-1.0,6.0,19.0,12.0,1.0,0.0,-1.0,1651085049154333.0
0.0,-1.0,-3.0,0.0,4.0,0.0,1.0,1.0,1651085049154333.0
-2.0,-3.0,-9.0,-6.0,-21.0,-12.0,-2.0,-1.0,1651085049154333.0
-1.0,0.0,0.0,-1.0,10.0,3.0,-1.0,-2.0,1651085049154333.0
0.0,4.0,5.0,-18.0,-16.0,-1.0,2.0,0.0,1651085049168902.0
-1.0,-1.0,-3.0,-6.0,-15.0,-8.0,-3.0,-3.0,1651085049168902.0
0.0,4.0,-2.0,17.0,26.0,9.0,1.0,1.0,1651085049169073.0
-5.0,-11.0,-1.0,18.0,9.0,-2.0,1.0,-1.0,1651085049169073.0
-2.0,-3.0,-8.0,-5.0,-1.0,-3.0,-2.0,-1.0,1651085049190236.0
-1.0,-6.0,2.0,-7.0,-4.0,0.0,-2.0,-2.0,1651085049190236.0
-2.0,1.0,5.0,-10.0,-21.0,-7.0,-2.0,-1.0,1651085049191235.0
0.0,2.0,4.0,-8.0,-2.0,3.0,1.0,-1.0,1651085049191235.0
-1.0,-2.0,-8.0,5.0,10.0,5.0,2.0,-1.0,1651085049221529.0
6.0,4.0,0.0,-4.0,4.0,4.0,3.0,2.0,1651085049221529.0
-2.0,10.0,11.0,19.0,11.0,2.0,0.0,0.0,1651085049221529.0
-2.0,-5.0,-3.0,-1.0,-1.0,-3.0,0.0,-3.0,1651085049221529.0
-1.0,-9.0,-1.0,-1.0,-8.0,-5.0,-1.0,-1.0,1651085049227549.0
0.0,8.0,-8.0,-16.0,-8.0,-6.0,-4.0,-2.0,1651085049227549.0
4.0,-8.0,3.0,0.0,18.0,13.0,4.0,2.0,1651085049228514.0
-1.0,6.0,-1.0,12.0,3.0,-4.0,-3.0,0.0,1651085049228514.0
-3.0,3.0,-1.0,-11.0,-7.0,-1.0,-1.0,-1.0,1651085049250318.0
-2.0,-3.0,1.0,4.0,-15.0,-7.0,-1.0,-1.0,1651085049250318.0
0.0,5.0,6.0,11.0,8.0,-2.0,-5.0,-3.0,1651085049251228.0
1.0,-4.0,-6.0,-1.0,-13.0,5.0,2.0,2.0,1651085049251228.0
0.0,-10.0,-5.0,2.0,24.0,10.0,16.0,3.0,1651085049273105.0
0.0,32.0,21.0,5.0,10.0,10.0,7.0,0.0,1651085049273105.0
-2.0,-9.0,-3.0,-9.0,-14.0,-11.0,-7.0,-1.0,1651085049274138.0
4.0,11.0,3.0,-3.0,-4.0,-9.0,-4.0,6.0,1651085049274138.0
-1.0,-9.0,-6.0,-9.0,-21.0,-11.0,-8.0,-3.0,1651085049288874.0
-4.0,-9.0,1.0,12.0,16.0,6.0,4.0,-1.0,1651085049288874.0
-3.0,-1.0,3.0,-2.0,-4.0,6.0,8.0,-5.0,1651085049289072.0
-3.0,-11.0,-27.0,-18.0,-3.0,-3.0,-4.0,-5.0,1651085049289072.0
1.0,5.0,13.0,7.0,-1.0,1.0,2.0,-1.0,1651085049311382.0
-2.0,-8.0,-3.0,-1.0,2.0,-1.0,1.0,1.0,1651085049311382.0
-2.0,-1.0,-6.0,-20.0,-11.0,-5.0,-1.0,-3.0,1651085049311382.0
0.0,-3.0,5.0,7.0,8.0,5.0,2.0,-3.0,1651085049311382.0
2.0,9.0,3.0,5.0,-5.0,-4.0,-6.0,0.0,1651085049334264.0
-2.0,-9.0,-2.0,19.0,19.0,0.0,-8.0,-3.0,1651085049334264.0
1.0,-7.0,-14.0,-15.0,-1.0,4.0,0.0,2.0,1651085049334264.0
1.0,3.0,15.0,3.0,-1.0,-1.0,1.0,-1.0,1651085049334264.0
0.0,9.0,-5.0,-13.0,-5.0,5.0,1.0,-1.0,1651085049347777.0
-1.0,-12.0,1.0,15.0,13.0,0.0,-2.0,0.0,1651085049347777.0
1.0,16.0,7.0,-1.0,-9.0,-5.0,-1.0,-2.0,1651085049356337.0
1.0,3.0,-4.0,-14.0,-2.0,2.0,3.0,0.0,1651085049356337.0
0.0,-2.0,0.0,-1.0,-12.0,-7.0,-5.0,-5.0,1651085049371285.0
1.0,-7.0,1.0,-3.0,-1.0,-1.0,-1.0,3.0,1651085049371285.0
-3.0,-14.0,-11.0,-2.0,-1.0,3.0,1.0,1.0,1651085049371285.0
-2.0,8.0,-3.0,0.0,-2.0,-5.0,-1.0,-2.0,1651085049371285.0
-1.0,-6.0,0.0,6.0,12.0,2.0,-4.0,-10.0,1651085049394408.0
2.0,3.0,0.0,-19.0,-11.0,-1.0,3.0,16.0,1651085049394408.0
0.0,-2.0,4.0,10.0,6.0,1.0,-1.0,0.0,1651085049394408.0
-2.0,-3.0,4.0,5.0,-2.0,-3.0,-3.0,0.0,1651085049394408.0
-2.0,-2.0,6.0,7.0,-1.0,1.0,1.0,-1.0,1651085049407258.0
-3.0,-3.0,-50.0,-22.0,-2.0,2.0,1.0,-25.0,1651085049407258.0
0.0,15.0,13.0,-1.0,-3.0,-13.0,-9.0,17.0,1651085049416352.0
2.0,-11.0,3.0,-3.0,5.0,1.0,-3.0,11.0,1651085049416352.0
-1.0,6.0,5.0,10.0,11.0,2.0,1.0,6.0,1651085049430092.0
1.0,3.0,3.0,6.0,-4.0,3.0,-1.0,-3.0,1651085049430092.0
0.0,-7.0,-19.0,-6.0,-1.0,3.0,2.0,-11.0,1651085049431309.0
-3.0,4.0,13.0,-11.0,-15.0,-4.0,1.0,-7.0,1651085049431309.0
0.0,-4.0,-6.0,6.0,-1.0,-1.0,-3.0,5.0,1651085049453195.0
-2.0,-3.0,11.0,-2.0,-6.0,-6.0,-4.0,-5.0,1651085049453195.0
1.0,-2.0,3.0,5.0,14.0,9.0,6.0,1.0,1651085049454219.0
3.0,3.0,6.0,4.0,7.0,1.0,4.0,1.0,1651085049454219.0
2.0,7.0,-1.0,-8.0,-5.0,-1.0,-2.0,-2.0,1651085049467759.0
-1.0,-7.0,-1.0,3.0,-10.0,-5.0,-3.0,-9.0,1651085049467759.0
2.0,-1.0,-2.0,-2.0,9.0,16.0,23.0,4.0,1651085049475184.0
-6.0,-1.0,-4.0,5.0,-9.0,-26.0,-48.0,-11.0,1651085049475184.0
0.0,4.0,2.0,-4.0,1.0,-1.0,13.0,16.0,1651085049490207.0
2.0,2.0,3.0,-3.0,-3.0,-2.0,2.0,-5.0,1651085049490207.0
-2.0,-7.0,5.0,-4.0,-5.0,-1.0,-1.0,7.0,1651085049491239.0
3.0,5.0,0.0,1.0,4.0,13.0,20.0,1.0,1651085049491239.0
-1.0,-2.0,-18.0,-10.0,-8.0,-9.0,-14.0,-6.0,1651085049515597.0
-4.0,-19.0,8.0,11.0,7.0,1.0,3.0,5.0,1651085049515597.0
0.0,1.0,3.0,2.0,9.0,3.0,-3.0,-9.0,1651085049515597.0
0.0,-2.0,-16.0,1.0,-7.0,2.0,8.0,0.0,1651085049515597.0
-1.0,3.0,4.0,-4.0,7.0,1.0,-4.0,1.0,1651085049527778.0
2.0,4.0,8.0,-8.0,-17.0,-4.0,-1.0,2.0,1651085049527778.0
-1.0,-1.0,-3.0,16.0,20.0,1.0,-3.0,-4.0,1651085049535862.0
-1.0,-5.0,11.0,-2.0,-5.0,-1.0,-3.0,-2.0,1651085049535862.0
0.0,0.0,-9.0,-1.0,1.0,5.0,6.0,3.0,1651085049550959.0
1.0,7.0,-18.0,-9.0,-2.0,-1.0,0.0,4.0,1651085049550959.0
0.0,0.0,5.0,5.0,-7.0,-7.0,-5.0,0.0,1651085049551059.0
-3.0,-7.0,-6.0,-3.0,3.0,3.0,5.0,-1.0,1651085049551059.0
-1.0,-3.0,4.0,2.0,-2.0,-3.0,-4.0,-6.0,1651085049573110.0
1.0,-1.0,2.0,1.0,6.0,1.0,-2.0,-6.0,1651085049573110.0
-3.0,2.0,-8.0,-3.0,-7.0,-5.0,4.0,10.0,1651085049574110.0
2.0,0.0,-16.0,-5.0,2.0,1.0,-8.0,0.0,1651085049574110.0
-4.0,-15.0,13.0,4.0,-3.0,-1.0,-2.0,-5.0,1651085049587760.0
0.0,8.0,1.0,-1.0,3.0,1.0,-2.0,6.0,1651085049587760.0
5.0,0.0,0.0,-6.0,-12.0,-5.0,1.0,-6.0,1651085049595186.0
-2.0,-5.0,10.0,5.0,2.0,2.0,0.0,1.0,1651085049595186.0
-4.0,-2.0,-7.0,-7.0,-2.0,-3.0,-1.0,0.0,1651085049610934.0
5.0,13.0,0.0,3.0,5.0,2.0,-1.0,0.0,1651085049610934.0
-5.0,-14.0,8.0,-3.0,-4.0,2.0,-2.0,-3.0,1651085049611286.0
2.0,0.0,-21.0,-8.0,-5.0,-5.0,7.0,9.0,1651085049611286.0
0.0,2.0,-9.0,2.0,0.0,0.0,-5.0,-4.0,1651085049633197.0
-2.0,-8.0,5.0,1.0,0.0,1.0,3.0,9.0,1651085049633197.0
-1.0,3.0,2.0,-2.0,-1.0,5.0,8.0,-3.0,1651085049634220.0
0.0,-1.0,0.0,3.0,3.0,0.0,11.0,-2.0,1651085049634220.0
-1.0,4.0,8.0,4.0,1.0,-7.0,-18.0,1.0,1651085049647747.0
-3.0,-4.0,1.0,0.0,-1.0,-4.0,-6.0,-2.0,1651085049647747.0
2.0,6.0,4.0,4.0,-2.0,-2.0,-9.0,-11.0,1651085049656207.0
-2.0,-4.0,4.0,-3.0,0.0,6.0,9.0,4.0,1651085049656207.0
1.0,6.0,-14.0,-6.0,1.0,5.0,13.0,9.0,1651085049671008.0
-1.0,-10.0,7.0,3.0,2.0,-2.0,-4.0,-5.0,1651085049671008.0
3.0,-1.0,-12.0,-4.0,-3.0,-5.0,-8.0,8.0,1651085049671238.0
-4.0,6.0,19.0,7.0,5.0,5.0,2.0,-7.0,1651085049671238.0
8.0,-4.0,-28.0,-1.0,-1.0,2.0,2.0,21.0,1651085049694398.0
-5.0,0.0,7.0,-5.0,-3.0,-2.0,1.0,-3.0,1651085049694398.0
-1.0,0.0,-13.0,-3.0,-3.0,-2.0,-3.0,-11.0,1651085049694398.0
1.0,2.0,5.0,4.0,0.0,-4.0,-7.0,-1.0,1651085049694398.0
-1.0,3.0,3.0,-1.0,-2.0,-1.0,2.0,2.0,1651085049716374.0
0.0,0.0,8.0,4.0,0.0,-2.0,-3.0,-6.0,1651085049716374.0
-7.0,-8.0,-1.0,-3.0,-2.0,-2.0,7.0,18.0,1651085049717236.0
2.0,6.0,-6.0,0.0,1.0,2.0,-7.0,-5.0,1651085049717236.0
-3.0,-6.0,14.0,2.0,-1.0,-4.0,1.0,-11.0,1651085049731291.0
-1.0,0.0,-18.0,-2.0,-1.0,3.0,5.0,10.0,1651085049731291.0
-5.0,2.0,-1.0,0.0,-3.0,-1.0,-6.0,-11.0,1651085049731291.0
2.0,-2.0,-4.0,-2.0,0.0,0.0,-4.0,-4.0,1651085049731291.0
0.0,1.0,6.0,-1.0,-2.0,-1.0,2.0,0.0,1651085049754604.0
0.0,4.0,4.0,3.0,3.0,2.0,2.0,-1.0,1651085049754604.0
2.0,2.0,-3.0,-2.0,-1.0,-3.0,-11.0,3.0,1651085049754604.0
-2.0,-2.0,-3.0,-3.0,-5.0,-1.0,-1.0,-4.0,1651085049754604.0
-1.0,-6.0,11.0,7.0,0.0,-2.0,-4.0,-13.0,1651085049776557.0
-1.0,-2.0,-5.0,-7.0,-4.0,-2.0,1.0,21.0,1651085049776557.0
1.0,3.0,9.0,5.0,7.0,2.0,0.0,-4.0,1651085049776557.0
-2.0,-4.0,-8.0,-5.0,-1.0,-2.0,1.0,0.0,1651085049776557.0
0.0,2.0,2.0,-7.0,-6.0,2.0,-1.0,-13.0,1651085049790218.0
4.0,0.0,2.0,12.0,12.0,1.0,-8.0,-1.0,1651085049790218.0
-2.0,0.0,7.0,-2.0,-4.0,-2.0,4.0,3.0,1651085049791215.0
-1.0,-7.0,-15.0,-4.0,-1.0,-1.0,5.0,4.0,1651085049791215.0
-4.0,1.0,0.0,1.0,3.0,2.0,3.0,0.0,1651085049813203.0
0.0,0.0,-12.0,-10.0,-8.0,-3.0,-4.0,-7.0,1651085049813203.0
3.0,4.0,14.0,12.0,8.0,4.0,1.0,4.0,1651085049814203.0
-3.0,6.0,-5.0,-4.0,-3.0,-7.0,-9.0,-3.0,1651085049814203.0
-1.0,-10.0,0.0,-2.0,1.0,4.0,4.0,-3.0,1651085049836522.0
2.0,1.0,-7.0,-3.0,-2.0,-1.0,4.0,-1.0,1651085049836522.0
0.0,0.0,-3.0,-9.0,-4.0,-3.0,-2.0,1.0,1651085049836522.0
-2.0,-1.0,9.0,2.0,-2.0,2.0,0.0,-4.0,1651085049836522.0
-2.0,1.0,6.0,-1.0,-2.0,-3.0,-6.0,-2.0,1651085049850824.0
-2.0,1.0,-9.0,-6.0,-2.0,-1.0,-2.0,-3.0,1651085049850824.0
2.0,-5.0,-21.0,-7.0,-3.0,0.0,-2.0,-6.0,1651085049850824.0
2.0,-1.0,4.0,5.0,3.0,2.0,2.0,-2.0,1651085049850824.0
-1.0,2.0,8.0,-5.0,-5.0,-3.0,6.0,16.0,1651085049874129.0
1.0,-5.0,1.0,1.0,0.0,0.0,-8.0,-2.0,1651085049874129.0
0.0,-2.0,-4.0,-1.0,-5.0,-3.0,-1.0,-1.0,1651085049874129.0
0.0,-3.0,3.0,-5.0,-1.0,-1.0,-1.0,-6.0,1651085049874129.0
1.0,2.0,-2.0,0.0,-1.0,-1.0,1.0,4.0,1651085049896358.0
-4.0,1.0,6.0,3.0,1.0,1.0,6.0,-4.0,1651085049896358.0
-1.0,-2.0,10.0,1.0,0.0,-4.0,-8.0,1.0,1651085049897212.0
0.0,-3.0,-1.0,0.0,-1.0,0.0,-1.0,-4.0,1651085049897212.0
-2.0,-3.0,4.0,-1.0,0.0,0.0,-3.0,-8.0,1651085049910936.0
-3.0,-1.0,-6.0,-1.0,-3.0,0.0,-3.0,-3.0,1651085049910936.0
0.0,1.0,-3.0,-2.0,-3.0,-1.0,6.0,0.0,1651085049911206.0
3.0,-2.0,0.0,0.0,-1.0,0.0,6.0,8.0,1651085049911206.0
-1.0,0.0,-2.0,2.0,1.0,-1.0,-7.0,-9.0,1651085049933207.0
1.0,6.0,7.0,1.0,-2.0,-4.0,-1.0,3.0,1651085049933207.0
1.0,6.0,4.0,5.0,2.0,2.0,-3.0,-6.0,1651085049934206.0
-2.0,3.0,-9.0,0.0,3.0,1.0,2.0,3.0,1651085049934206.0
-1.0,-13.0,-5.0,1.0,2.0,0.0,-1.0,-4.0,1651085049957204.0
0.0,2.0,5.0,-2.0,-1.0,-2.0,-4.0,-14.0,1651085049957204.0
-4.0,-11.0,-10.0,-5.0,-4.0,-4.0,2.0,10.0,1651085049958202.0
-1.0,4.0,-2.0,-2.0,-3.0,0.0,1.0,1.0,1651085049958202.0
2.0,4.0,2.0,4.0,0.0,0.0,-7.0,-1.0,1651085049970956.0
1.0,-2.0,0.0,-3.0,-4.0,-1.0,3.0,-3.0,1651085049970956.0
-3.0,-2.0,1.0,2.0,5.0,2.0,-1.0,-1.0,1651085049971157.0
0.0,-1.0,4.0,2.0,0.0,0.0,-1.0,6.0,1651085049971157.0
-1.0,0.0,0.0,0.0,-2.0,0.0,1.0,-2.0,1651085049993219.0
0.0,-2.0,-4.0,0.0,-3.0,-2.0,2.0,6.0,1651085049993219.0
1.0,1.0,7.0,-3.0,-5.0,0.0,6.0,-5.0,1651085049994219.0
-1.0,-4.0,6.0,4.0,4.0,-5.0,-14.0,-1.0,1651085049994219.0
2.0,4.0,-5.0,-2.0,2.0,1.0,4.0,-4.0,1651085050016548.0
-2.0,-2.0,5.0,3.0,2.0,1.0,4.0,7.0,1651085050016548.0
0.0,-1.0,-10.0,-3.0,0.0,-1.0,-10.0,-7.0,1651085050016548.0
-4.0,-3.0,2.0,-2.0,-4.0,-2.0,3.0,-9.0,1651085050016548.0
-1.0,4.0,-2.0,-1.0,-1.0,2.0,-3.0,12.0,1651085050030849.0
0.0,-6.0,8.0,4.0,2.0,-2.0,-2.0,0.0,1651085050030849.0
-1.0,0.0,-11.0,-5.0,-5.0,0.0,2.0,-3.0,1651085050030849.0
5.0,-1.0,3.0,3.0,2.0,1.0,-3.0,-9.0,1651085050030849.0
0.0,12.0,-1.0,2.0,1.0,-2.0,7.0,24.0,1651085050054268.0
-4.0,-17.0,-3.0,-2.0,0.0,1.0,-1.0,-1.0,1651085050054268.0
-2.0,-3.0,6.0,2.0,-1.0,-1.0,-2.0,-2.0,1651085050054268.0
1.0,2.0,-1.0,-1.0,-2.0,0.0,0.0,1.0,1651085050054268.0
-1.0,1.0,-4.0,1.0,-1.0,-1.0,0.0,-9.0,1651085050076253.0
0.0,0.0,6.0,-1.0,1.0,1.0,-2.0,-1.0,1651085050076253.0
1.0,2.0,-5.0,0.0,0.0,2.0,7.0,9.0,1651085050077088.0
-3.0,-9.0,-3.0,-1.0,-1.0,-1.0,0.0,0.0,1651085050077088.0
-2.0,-4.0,-1.0,1.0,0.0,0.0,-3.0,-6.0,1651085050090233.0
2.0,6.0,0.0,-5.0,-6.0,-5.0,-1.0,-2.0,1651085050090233.0
1.0,0.0,8.0,5.0,4.0,3.0,2.0,-5.0,1651085050091229.0
1.0,5.0,5.0,0.0,0.0,-1.0,3.0,6.0,1651085050091229.0
-2.0,-4.0,-1.0,-5.0,-2.0,-4.0,-9.0,-7.0,1651085050113543.0
-2.0,2.0,-9.0,0.0,3.0,2.0,0.0,-2.0,1651085050113543.0
0.0,1.0,3.0,-1.0,-1.0,0.0,-1.0,3.0,1651085050114404.0
0.0,1.0,5.0,5.0,0.0,4.0,12.0,6.0,1651085050114404.0
0.0,-1.0,8.0,1.0,2.0,1.0,2.0,-3.0,1651085050144374.0
1.0,0.0,-4.0,-3.0,-2.0,-3.0,-3.0,-7.0,1651085050144374.0
3.0,5.0,-5.0,0.0,-2.0,-1.0,1.0,15.0,1651085050144374.0
-2.0,-12.0,3.0,0.0,-2.0,-3.0,-3.0,-4.0,1651085050144374.0
-1.0,-5.0,-1.0,1.0,1.0,1.0,4.0,-3.0,1651085050150241.0
-2.0,5.0,0.0,-5.0,-6.0,1.0,5.0,5.0,1651085050150241.0
-6.0,-8.0,0.0,2.0,4.0,1.0,-6.0,-9.0,1651085050151207.0
0.0,3.0,-6.0,1.0,0.0,0.0,-1.0,-4.0,1651085050151207.0
0.0,-2.0,-6.0,-4.0,-2.0,-6.0,-2.0,5.0,1651085050173095.0
1.0,1.0,-5.0,0.0,-1.0,0.0,3.0,1.0,1651085050173095.0
0.0,0.0,1.0,-5.0,-5.0,-4.0,-4.0,-2.0,1651085050174095.0
1.0,3.0,-3.0,0.0,2.0,2.0,-1.0,2.0,1651085050174095.0
-1.0,-1.0,-2.0,-2.0,0.0,0.0,1.0,-7.0,1651085050196235.0
1.0,-5.0,0.0,2.0,1.0,0.0,-1.0,2.0,1651085050196235.0
0.0,0.0,7.0,-1.0,-5.0,-3.0,0.0,-3.0,1651085050197267.0
-2.0,-1.0,-6.0,-4.0,-2.0,-1.0,-8.0,-3.0,1651085050197267.0
0.0,-3.0,-19.0,-4.0,0.0,3.0,6.0,-2.0,1651085050211390.0
-1.0,3.0,-15.0,0.0,-2.0,-3.0,-8.0,-3.0,1651085050211390.0
1.0,-1.0,11.0,0.0,-1.0,-4.0,-1.0,8.0,1651085050211390.0
0.0,2.0,7.0,-6.0,-3.0,-2.0,0.0,0.0,1651085050211390.0
-1.0,-1.0,8.0,2.0,1.0,2.0,1.0,-1.0,1651085050233237.0
-1.0,2.0,10.0,4.0,2.0,3.0,13.0,5.0,1651085050233237.0
-1.0,-6.0,-15.0,-2.0,-1.0,0.0,3.0,-8.0,1651085050234233.0
1.0,4.0,3.0,3.0,-2.0,-1.0,-5.0,2.0,1651085050234233.0
0.0,-1.0,5.0,1.0,-1.0,1.0,-8.0,-2.0,1651085050256369.0
-7.0,5.0,4.0,1.0,2.0,0.0,5.0,-8.0,1651085050256369.0
0.0,-4.0,4.0,0.0,-1.0,-2.0,-10.0,-3.0,1651085050257216.0
0.0,4.0,-5.0,-3.0,1.0,1.0,7.0,12.0,1651085050257216.0
0.0,-4.0,-4.0,-2.0,0.0,2.0,4.0,3.0,1651085050270365.0
-1.0,2.0,-2.0,-1.0,-2.0,-1.0,-3.0,-4.0,1651085050270365.0
-4.0,-8.0,-4.0,-3.0,-2.0,-3.0,-2.0,6.0,1651085050278423.0
-2.0,-1.0,-8.0,1.0,5.0,0.0,-6.0,-9.0,1651085050278423.0
3.0,3.0,1.0,1.0,2.0,2.0,2.0,8.0,1651085050293689.0
0.0,-1.0,-6.0,-10.0,-6.0,0.0,3.0,5.0,1651085050293689.0
1.0,1.0,-2.0,1.0,0.0,-2.0,-7.0,-9.0,1651085050294525.0
-3.0,-3.0,-12.0,-2.0,-2.0,-1.0,-1.0,0.0,1651085050294525.0
-2.0,-3.0,1.0,1.0,0.0,-2.0,-1.0,-2.0,1651085050316532.0
3.0,2.0,7.0,0.0,-2.0,0.0,1.0,1.0,1651085050316532.0
0.0,0.0,5.0,-4.0,3.0,1.0,2.0,-1.0,1651085050316532.0
0.0,-1.0,-18.0,-3.0,-1.0,0.0,4.0,1.0,1651085050316532.0
-1.0,-1.0,1.0,2.0,-3.0,-2.0,-1.0,-4.0,1651085050329833.0
-1.0,0.0,0.0,1.0,6.0,1.0,-1.0,1.0,1651085050329833.0
-1.0,11.0,-3.0,0.0,-2.0,1.0,-3.0,-4.0,1651085050338954.0
-1.0,-10.0,5.0,-2.0,-4.0,-2.0,-2.0,3.0,1651085050338954.0
-1.0,2.0,10.0,5.0,3.0,0.0,-1.0,-9.0,1651085050369217.0
-1.0,-1.0,-5.0,-1.0,0.0,-1.0,0.0,-5.0,1651085050369217.0
3.0,-4.0,-1.0,-3.0,2.0,1.0,7.0,20.0,1651085050369217.0
-2.0,4.0,10.0,4.0,-1.0,0.0,0.0,-3.0,1651085050369217.0
1.0,-4.0,-7.0,-4.0,-4.0,1.0,-5.0,-6.0,1651085050376232.0
1.0,4.0,2.0,5.0,2.0,-1.0,-3.0,-7.0,1651085050376232.0
-4.0,-5.0,12.0,3.0,1.0,1.0,5.0,2.0,1651085050377231.0
-6.0,-7.0,-19.0,-5.0,-6.0,-5.0,-4.0,2.0,1651085050377231.0
3.0,-5.0,8.0,0.0,0.0,-1.0,-5.0,-6.0,1651085050389216.0
-7.0,-4.0,4.0,4.0,1.0,1.0,1.0,-3.0,1651085050389216.0
3.0,6.0,-2.0,-5.0,-5.0,-1.0,-5.0,-4.0,1651085050398497.0
1.0,-1.0,0.0,0.0,-1.0,0.0,-3.0,-1.0,1651085050398497.0
-2.0,3.0,-8.0,-6.0,-5.0,-3.0,-1.0,0.0,1651085050412392.0
3.0,-3.0,2.0,0.0,-3.0,-2.0,-2.0,5.0,1651085050412392.0
0.0,4.0,-2.0,6.0,7.0,3.0,5.0,-2.0,1651085050420364.0
-3.0,-14.0,-1.0,-3.0,0.0,2.0,2.0,-4.0,1651085050420364.0
0.0,5.0,-7.0,-5.0,-4.0,-6.0,-6.0,-5.0,1651085050436376.0
-1.0,-1.0,-1.0,-2.0,-1.0,0.0,6.0,18.0,1651085050436376.0
1.0,3.0,-5.0,-1.0,0.0,1.0,-8.0,-14.0,1651085050437259.0
1.0,7.0,13.0,8.0,0.0,0.0,5.0,15.0,1651085050437259.0
-2.0,-5.0,-5.0,-4.0,2.0,1.0,4.0,-2.0,1651085050450479.0
-1.0,-5.0,-4.0,-1.0,-2.0,-2.0,-15.0,-10.0,1651085050450479.0
1.0,9.0,8.0,4.0,-1.0,-3.0,13.0,12.0,1651085050458971.0
0.0,-3.0,-14.0,-12.0,-2.0,0.0,-4.0,-9.0,1651085050458971.0
-2.0,-4.0,9.0,0.0,-6.0,-1.0,2.0,11.0,1651085050473095.0
-2.0,-4.0,4.0,0.0,2.0,0.0,-5.0,-3.0,1651085050473095.0
-1.0,-6.0,-7.0,-3.0,-1.0,-3.0,-5.0,-6.0,1651085050474096.0
2.0,3.0,13.0,5.0,-1.0,1.0,2.0,-3.0,1651085050474096.0
-1.0,5.0,-13.0,-4.0,3.0,-1.0,-1.0,2.0,1651085050496203.0
2.0,-3.0,-4.0,-5.0,-2.0,-1.0,-1.0,-1.0,1651085050496203.0
-1.0,-3.0,3.0,1.0,1.0,3.0,4.0,-4.0,1651085050497236.0
-1.0,4.0,13.0,2.0,1.0,-2.0,0.0,1.0,1651085050497236.0
1.0,4.0,-26.0,-4.0,-2.0,0.0,1.0,-3.0,1651085050510288.0
-2.0,1.0,5.0,1.0,-1.0,-2.0,-4.0,-2.0,1651085050510288.0
-3.0,-7.0,-5.0,-4.0,1.0,4.0,3.0,-11.0,1651085050519108.0
-2.0,4.0,0.0,4.0,-4.0,-7.0,-8.0,12.0,1651085050519108.0
0.0,3.0,15.0,8.0,9.0,5.0,5.0,2.0,1651085050533073.0
3.0,2.0,-8.0,-3.0,-3.0,-1.0,-3.0,-1.0,1651085050533073.0
-1.0,-2.0,0.0,-1.0,-4.0,-3.0,-2.0,0.0,1651085050534071.0
-2.0,-2.0,-5.0,-1.0,2.0,2.0,2.0,-11.0,1651085050534071.0
4.0,7.0,5.0,-1.0,-3.0,-3.0,-7.0,0.0,1651085050556345.0
-1.0,1.0,0.0,1.0,4.0,4.0,11.0,6.0,1651085050556345.0
3.0,-6.0,1.0,-2.0,-2.0,-1.0,-7.0,-6.0,1651085050557199.0
0.0,6.0,-1.0,-1.0,6.0,2.0,3.0,-1.0,1651085050557199.0
-3.0,-11.0,0.0,0.0,-3.0,-2.0,-1.0,1.0,1651085050579149.0
1.0,8.0,6.0,2.0,-2.0,1.0,-4.0,-4.0,1651085050579149.0
-1.0,-1.0,-2.0,-1.0,-4.0,-1.0,0.0,-4.0,1651085050579149.0
0.0,5.0,-2.0,0.0,3.0,0.0,-5.0,-9.0,1651085050579149.0
2.0,-4.0,2.0,2.0,1.0,-3.0,4.0,9.0,1651085050593225.0
0.0,4.0,1.0,-3.0,-3.0,-1.0,-2.0,-2.0,1651085050593225.0
-2.0,-10.0,-11.0,2.0,2.0,-1.0,2.0,4.0,1651085050593225.0
1.0,-7.0,0.0,-1.0,0.0,2.0,1.0,-1.0,1651085050593225.0
-4.0,1.0,15.0,1.0,-1.0,1.0,1.0,-6.0,1651085050616346.0
-2.0,-5.0,-15.0,-12.0,-7.0,-2.0,-2.0,0.0,1651085050616346.0
-2.0,4.0,2.0,0.0,-2.0,-5.0,-4.0,3.0,1651085050617226.0
5.0,4.0,8.0,0.0,-2.0,2.0,2.0,4.0,1651085050617226.0
-2.0,1.0,-2.0,-1.0,-5.0,2.0,7.0,-2.0,1651085050646304.0
-5.0,-7.0,-4.0,0.0,-1.0,-4.0,-8.0,-2.0,1651085050646304.0
5.0,4.0,-3.0,5.0,5.0,4.0,2.0,-2.0,1651085050647221.0
-3.0,-1.0,4.0,-4.0,-4.0,-4.0,-9.0,-8.0,1651085050647221.0
-2.0,-3.0,0.0,-5.0,1.0,1.0,4.0,-6.0,1651085050653196.0
3.0,4.0,17.0,7.0,-3.0,-2.0,2.0,18.0,1651085050653196.0
-7.0,-7.0,-17.0,-5.0,1.0,1.0,-5.0,-1.0,1651085050653196.0
-1.0,0.0,2.0,-1.0,1.0,-1.0,3.0,3.0,1651085050653196.0
-2.0,-4.0,-2.0,2.0,3.0,2.0,1.0,-5.0,1651085050676181.0
-2.0,-11.0,2.0,-3.0,-2.0,-3.0,1.0,-6.0,1651085050676181.0
-2.0,6.0,7.0,1.0,-1.0,-2.0,-1.0,-5.0,1651085050677052.0
2.0,-7.0,3.0,0.0,-1.0,2.0,3.0,3.0,1651085050677052.0
-2.0,-5.0,-8.0,-5.0,-4.0,0.0,-4.0,-2.0,1651085050699103.0
1.0,4.0,-2.0,5.0,2.0,-1.0,0.0,2.0,1651085050699103.0
4.0,4.0,2.0,-3.0,-5.0,-4.0,-3.0,-2.0,1651085050699103.0
-5.0,0.0,-5.0,-3.0,3.0,1.0,2.0,2.0,1651085050699103.0
-1.0,0.0,-5.0,1.0,0.0,-2.0,-3.0,4.0,1651085050713189.0
2.0,-2.0,4.0,5.0,3.0,1.0,2.0,-6.0,1651085050713189.0
-2.0,0.0,7.0,-2.0,-3.0,-1.0,0.0,-1.0,1651085050714190.0
-2.0,1.0,-6.0,-5.0,1.0,1.0,2.0,0.0,1651085050714190.0
3.0,0.0,5.0,1.0,-2.0,-3.0,-4.0,2.0,1651085050736402.0
0.0,1.0,-5.0,8.0,7.0,2.0,1.0,-2.0,1651085050736402.0
0.0,-3.0,5.0,-1.0,-1.0,0.0,0.0,1.0,1651085050736402.0
0.0,0.0,-13.0,-1.0,-2.0,-4.0,-5.0,-10.0,1651085050736402.0
0.0,-3.0,3.0,-3.0,-2.0,0.0,4.0,10.0,1651085050759243.0
-1.0,-2.0,-2.0,-5.0,-4.0,-1.0,-4.0,-1.0,1651085050759243.0
0.0,0.0,-3.0,0.0,1.0,2.0,5.0,7.0,1651085050759243.0
0.0,-2.0,1.0,-4.0,-2.0,-1.0,-2.0,-2.0,1651085050759243.0
1.0,5.0,-3.0,1.0,-3.0,0.0,6.0,-2.0,1651085050773232.0
-2.0,11.0,7.0,1.0,-3.0,1.0,9.0,3.0,1651085050773232.0
-3.0,-18.0,-10.0,4.0,10.0,-1.0,-11.0,5.0,1651085050773232.0
1.0,4.0,0.0,-1.0,-2.0,-1.0,-2.0,-3.0,1651085050773232.0
-2.0,0.0,5.0,6.0,6.0,0.0,-5.0,-2.0,1651085050796201.0
2.0,0.0,-11.0,-4.0,1.0,1.0,3.0,0.0,1651085050796201.0
2.0,5.0,1.0,-3.0,-8.0,-4.0,7.0,6.0,1651085050797194.0
-1.0,-3.0,-3.0,3.0,-3.0,-2.0,-2.0,0.0,1651085050797194.0
-4.0,-5.0,1.0,-5.0,-2.0,-1.0,-3.0,-4.0,1651085050818654.0
0.0,-2.0,0.0,0.0,4.0,2.0,1.0,-1.0,1651085050818654.0
-1.0,1.0,-7.0,-2.0,-2.0,0.0,-2.0,-5.0,1651085050819685.0
0.0,-3.0,3.0,-4.0,-6.0,-3.0,-3.0,0.0,1651085050819685.0
0.0,6.0,-1.0,6.0,1.0,1.0,1.0,1.0,1651085050833210.0
-3.0,-3.0,-6.0,-7.0,-1.0,-2.0,-4.0,-3.0,1651085050833210.0
0.0,2.0,3.0,-1.0,1.0,0.0,-2.0,0.0,1651085050833210.0
1.0,1.0,3.0,6.0,5.0,1.0,5.0,4.0,1651085050833210.0
-1.0,1.0,-6.0,-5.0,-3.0,-1.0,-5.0,-7.0,1651085050856349.0
0.0,-2.0,-4.0,-3.0,-3.0,-1.0,-1.0,8.0,1651085050856349.0
-2.0,3.0,2.0,-1.0,-3.0,-1.0,-1.0,-2.0,1651085050857202.0
-3.0,-1.0,-1.0,-2.0,-2.0,0.0,-1.0,-2.0,1651085050857202.0
3.0,1.0,-2.0,-2.0,-2.0,-6.0,-2.0,-3.0,1651085050878204.0
-2.0,-5.0,2.0,2.0,2.0,1.0,0.0,-4.0,1651085050878204.0
0.0,1.0,1.0,-3.0,-1.0,0.0,2.0,-1.0,1651085050879067.0
0.0,0.0,-1.0,0.0,2.0,2.0,-2.0,2.0,1651085050879067.0
-2.0,-7.0,-2.0,-2.0,-1.0,1.0,1.0,-6.0,1651085050893202.0
-1.0,3.0,1.0,0.0,0.0,1.0,1.0,10.0,1651085050893202.0
-3.0,1.0,-2.0,0.0,0.0,1.0,-4.0,-6.0,1651085050893202.0
0.0,-1.0,0.0,0.0,-1.0,-1.0,1.0,0.0,1651085050893202.0
-1.0,0.0,-3.0,-2.0,-3.0,-2.0,2.0,3.0,1651085050915334.0
2.0,-2.0,-4.0,-1.0,0.0,-2.0,-1.0,-3.0,1651085050915334.0
2.0,-2.0,1.0,2.0,0.0,0.0,-2.0,-2.0,1651085050923177.0
-1.0,6.0,-2.0,0.0,3.0,2.0,-1.0,-3.0,1651085050923177.0
-1.0,-4.0,0.0,4.0,8.0,1.0,-3.0,-7.0,1651085050939143.0
-1.0,-3.0,-3.0,-3.0,-4.0,-3.0,-1.0,-3.0,1651085050939143.0
-1.0,1.0,0.0,-1.0,-2.0,-2.0,2.0,15.0,1651085050939143.0
0.0,1.0,-1.0,-3.0,-4.0,0.0,-1.0,-2.0,1651085050939143.0
0.0,0.0,-2.0,-5.0,-4.0,-1.0,-2.0,0.0,1651085050953190.0
-1.0,-2.0,-2.0,-2.0,0.0,-2.0,-3.0,-4.0,1651085050953190.0
2.0,0.0,1.0,0.0,0.0,0.0,-1.0,-4.0,1651085050953190.0
-1.0,-3.0,-3.0,0.0,-1.0,-1.0,2.0,2.0,1651085050953190.0
-1.0,0.0,-1.0,2.0,1.0,1.0,1.0,7.0,1651085050976144.0
0.0,-2.0,8.0,-5.0,-3.0,-2.0,-5.0,-6.0,1651085050976144.0
1.0,0.0,-5.0,1.0,-3.0,-1.0,0.0,-2.0,1651085050977059.0
-2.0,-3.0,-9.0,0.0,5.0,2.0,1.0,1.0,1651085050977059.0
-1.0,1.0,-4.0,-4.0,-6.0,-1.0,-4.0,-1.0,1651085050999086.0
-1.0,0.0,-3.0,-2.0,-2.0,1.0,-2.0,-5.0,1651085050999086.0
0.0,-1.0,5.0,-2.0,1.0,-2.0,0.0,-3.0,1651085050999086.0
0.0,-1.0,2.0,0.0,-1.0,3.0,4.0,-1.0,1651085050999086.0
-1.0,0.0,-3.0,1.0,0.0,-1.0,-3.0,0.0,1651085051013191.0
-1.0,0.0,4.0,-1.0,2.0,-2.0,-2.0,-1.0,1651085051013191.0
-2.0,-3.0,-17.0,-5.0,0.0,3.0,4.0,0.0,1651085051013191.0
0.0,-3.0,4.0,-1.0,-5.0,-9.0,-9.0,-3.0,1651085051013191.0
0.0,1.0,1.0,-3.0,-1.0,-10.0,-4.0,-2.0,1651085051036402.0
1.0,1.0,2.0,4.0,0.0,12.0,10.0,3.0,1651085051036402.0
-2.0,-2.0,5.0,1.0,1.0,-5.0,-4.0,-3.0,1651085051037255.0
-1.0,0.0,3.0,0.0,1.0,5.0,6.0,2.0,1651085051037255.0
-2.0,1.0,11.0,3.0,-4.0,-5.0,-5.0,-1.0,1651085051059214.0
-2.0,-4.0,-38.0,-12.0,-2.0,2.0,0.0,0.0,1651085051059214.0
-2.0,0.0,-4.0,-3.0,0.0,2.0,-2.0,-1.0,1651085051060214.0
-2.0,-3.0,-20.0,-4.0,-2.0,0.0,2.0,2.0,1651085051060214.0
-2.0,-4.0,3.0,-5.0,-3.0,-5.0,-6.0,-6.0,1651085051072975.0
6.0,3.0,19.0,15.0,5.0,-3.0,-1.0,-2.0,1651085051072975.0
-1.0,0.0,9.0,-2.0,-4.0,1.0,-2.0,0.0,1651085051081355.0
1.0,2.0,3.0,-2.0,-2.0,-6.0,-8.0,-6.0,1651085051081355.0
3.0,0.0,-10.0,-2.0,3.0,5.0,7.0,4.0,1651085051096342.0
-2.0,-2.0,-2.0,-2.0,-2.0,-3.0,-2.0,0.0,1651085051096342.0
4.0,1.0,3.0,0.0,1.0,0.0,1.0,-2.0,1651085051098193.0
1.0,-1.0,-4.0,1.0,-3.0,-2.0,-1.0,5.0,1651085051098193.0
-2.0,-2.0,0.0,0.0,0.0,1.0,1.0,2.0,1651085051119250.0
-2.0,-2.0,-2.0,-2.0,-3.0,-1.0,0.0,-2.0,1651085051119250.0
0.0,1.0,9.0,6.0,-1.0,-3.0,-2.0,0.0,1651085051120281.0
0.0,-3.0,-17.0,-9.0,-1.0,-2.0,1.0,-1.0,1651085051120281.0
1.0,1.0,-5.0,-1.0,1.0,2.0,3.0,3.0,1651085051132375.0
-1.0,0.0,0.0,-3.0,0.0,-3.0,-1.0,-3.0,1651085051132375.0
-2.0,-3.0,-10.0,-6.0,-2.0,3.0,3.0,0.0,1651085051141755.0
0.0,0.0,15.0,0.0,1.0,0.0,0.0,1.0,1651085051141755.0
-1.0,-4.0,-20.0,-8.0,-3.0,0.0,-1.0,-3.0,1651085051156329.0
-1.0,2.0,7.0,0.0,2.0,-3.0,-3.0,1.0,1651085051156329.0
-3.0,-1.0,1.0,-2.0,0.0,-3.0,0.0,0.0,1651085051157223.0
1.0,1.0,1.0,0.0,-1.0,1.0,1.0,-1.0,1651085051157223.0
0.0,-1.0,6.0,1.0,-1.0,-1.0,1.0,2.0,1651085051179049.0
0.0,2.0,10.0,4.0,1.0,0.0,2.0,-1.0,1651085051179049.0
0.0,1.0,1.0,2.0,1.0,-1.0,-1.0,-1.0,1651085051180047.0
-1.0,-1.0,6.0,0.0,-1.0,-2.0,0.0,-1.0,1651085051180047.0
0.0,1.0,9.0,4.0,2.0,1.0,1.0,-1.0,1651085051192459.0
-2.0,-3.0,-15.0,-4.0,-3.0,-1.0,-2.0,-2.0,1651085051192459.0
0.0,0.0,7.0,3.0,2.0,1.0,1.0,-1.0,1651085051209368.0
0.0,-2.0,2.0,0.0,-4.0,-3.0,-3.0,-1.0,1651085051209368.0
0.0,-1.0,-8.0,-4.0,2.0,0.0,-1.0,0.0,1651085051216397.0
1.0,-1.0,7.0,4.0,0.0,-1.0,0.0,0.0,1651085051216397.0
-1.0,-1.0,-16.0,-9.0,-4.0,-2.0,-2.0,0.0,1651085051217399.0
0.0,2.0,13.0,11.0,1.0,1.0,0.0,0.0,1651085051217399.0
0.0,0.0,-1.0,-3.0,2.0,2.0,1.0,-1.0,1651085051239243.0
0.0,-2.0,-5.0,-1.0,-2.0,1.0,-1.0,0.0,1651085051239243.0
2.0,0.0,6.0,2.0,0.0,0.0,-1.0,2.0,1651085051240244.0
0.0,-1.0,-6.0,-3.0,-2.0,-1.0,-1.0,-3.0,1651085051240244.0
-1.0,1.0,-1.0,-1.0,-3.0,1.0,0.0,-2.0,1651085051253180.0
0.0,-1.0,2.0,0.0,0.0,-1.0,-2.0,0.0,1651085051253180.0
-1.0,2.0,-5.0,6.0,6.0,1.0,1.0,-2.0,1651085051261406.0
-1.0,-3.0,12.0,-3.0,-3.0,0.0,0.0,-1.0,1651085051261406.0
-1.0,0.0,-11.0,-1.0,-3.0,0.0,0.0,-1.0,1651085051276219.0
-2.0,-2.0,3.0,-4.0,-4.0,-3.0,-1.0,-1.0,1651085051276219.0
-1.0,0.0,-1.0,2.0,-2.0,0.0,0.0,2.0,1651085051278079.0
-2.0,0.0,-1.0,0.0,2.0,-1.0,0.0,1.0,1651085051278079.0
0.0,2.0,7.0,2.0,1.0,-1.0,0.0,1.0,1651085051299224.0
0.0,0.0,-2.0,-2.0,-3.0,-3.0,1.0,-2.0,1651085051299224.0
-1.0,1.0,0.0,0.0,3.0,-2.0,-1.0,-1.0,1651085051300224.0
0.0,-1.0,-5.0,-1.0,0.0,1.0,-1.0,1.0,1651085051300224.0
0.0,-4.0,5.0,1.0,-1.0,1.0,0.0,0.0,1651085051312574.0
-2.0,0.0,-4.0,-1.0,0.0,-1.0,-1.0,1.0,1651085051312574.0
0.0,-3.0,-2.0,-4.0,-4.0,-2.0,-1.0,-2.0,1651085051322139.0
-1.0,0.0,0.0,0.0,-1.0,-1.0,1.0,0.0,1651085051322139.0
0.0,-1.0,0.0,-1.0,0.0,0.0,0.0,-2.0,1651085051336099.0
0.0,1.0,-1.0,-1.0,0.0,-1.0,-1.0,1.0,1651085051336099.0
1.0,-3.0,0.0,0.0,-3.0,-1.0,-1.0,-1.0,1651085051342083.0
0.0,-1.0,-3.0,0.0,-1.0,0.0,-1.0,-1.0,1651085051342083.0
-1.0,-1.0,2.0,2.0,2.0,-2.0,-2.0,-2.0,1651085051359221.0
-1.0,-2.0,0.0,2.0,1.0,1.0,-1.0,-1.0,1651085051359221.0
-1.0,1.0,0.0,-4.0,-3.0,-1.0,-2.0,-1.0,1651085051360187.0
0.0,-3.0,-3.0,-3.0,-1.0,0.0,2.0,-1.0,1651085051360187.0
2.0,-1.0,4.0,0.0,-2.0,-2.0,-1.0,1.0,1651085051372946.0
-2.0,-1.0,0.0,0.0,-1.0,-1.0,-1.0,0.0,1651085051372946.0
-2.0,-1.0,1.0,0.0,1.0,3.0,2.0,-1.0,1651085051381645.0
-2.0,0.0,0.0,-1.0,1.0,2.0,-1.0,-1.0,1651085051381645.0
-1.0,0.0,0.0,2.0,0.0,0.0,0.0,-2.0,1651085051396201.0
-2.0,-2.0,-3.0,-2.0,-1.0,0.0,-1.0,-1.0,1651085051396201.0
-1.0,0.0,-2.0,-3.0,-2.0,-2.0,0.0,-1.0,1651085051397229.0
0.0,0.0,-1.0,-1.0,-1.0,-3.0,-1.0,1.0,1651085051397229.0
0.0,-1.0,1.0,-2.0,-4.0,0.0,-1.0,0.0,1651085051418519.0
0.0,1.0,-1.0,-2.0,-1.0,-1.0,0.0,-1.0,1651085051418519.0
-2.0,-2.0,0.0,1.0,-1.0,0.0,-1.0,-2.0,1651085051420422.0
-2.0,1.0,0.0,1.0,-1.0,-2.0,0.0,-3.0,1651085051420422.0
-1.0,-1.0,0.0,-1.0,-2.0,-1.0,0.0,-1.0,1651085051432755.0
0.0,-2.0,-3.0,1.0,-3.0,0.0,0.0,0.0,1651085051432755.0
0.0,0.0,0.0,-1.0,-1.0,-1.0,-1.0,0.0,1651085051441831.0
-1.0,-1.0,-1.0,-1.0,-1.0,-1.0,0.0,-1.0,1651085051441831.0
0.0,1.0,-2.0,-1.0,0.0,0.0,-1.0,0.0,1651085051456302.0
-1.0,-1.0,-1.0,-1.0,0.0,0.0,-1.0,-1.0,1651085051456302.0
0.0,-1.0,-1.0,-1.0,0.0,-2.0,-3.0,-1.0,1651085051457195.0
-1.0,0.0,-1.0,1.0,2.0,1.0,0.0,0.0,1651085051457195.0
-1.0,0.0,-1.0,-1.0,1.0,-2.0,-1.0,1.0,1651085051478531.0
-2.0,-2.0,0.0,-1.0,-1.0,0.0,-1.0,0.0,1651085051478531.0
0.0,-3.0,-1.0,-3.0,-2.0,-1.0,-2.0,0.0,1651085051480561.0
1.0,0.0,0.0,-1.0,-2.0,-2.0,-1.0,-1.0,1651085051480561.0
0.0,0.0,-1.0,-1.0,0.0,0.0,2.0,0.0,1651085051493206.0
0.0,0.0,0.0,1.0,1.0,0.0,1.0,-2.0,1651085051493206.0
0.0,-1.0,0.0,0.0,0.0,0.0,-2.0,-1.0,1651085051501338.0
0.0,-1.0,-1.0,1.0,-1.0,-2.0,-2.0,0.0,1651085051501338.0
-2.0,-1.0,0.0,-2.0,-2.0,-1.0,0.0,-2.0,1651085051516557.0
1.0,-1.0,0.0,-1.0,1.0,0.0,-3.0,0.0,1651085051516557.0
0.0,0.0,-1.0,0.0,-2.0,-2.0,-2.0,-1.0,1651085051517557.0
-1.0,0.0,1.0,0.0,1.0,0.0,0.0,2.0,1651085051517557.0
-1.0,0.0,0.0,2.0,1.0,-1.0,-1.0,-1.0,1651085051538849.0
0.0,0.0,-1.0,2.0,1.0,1.0,0.0,0.0,1651085051538849.0
-1.0,0.0,-2.0,0.0,-2.0,0.0,1.0,-1.0,1651085051539851.0
1.0,-1.0,-2.0,-4.0,-2.0,-2.0,-1.0,-1.0,1651085051539851.0
-1.0,-2.0,-1.0,0.0,2.0,0.0,1.0,0.0,1651085051553226.0
1.0,1.0,0.0,0.0,-2.0,-1.0,0.0,-1.0,1651085051553226.0
-1.0,-1.0,0.0,2.0,1.0,0.0,0.0,1.0,1651085051561411.0
0.0,-1.0,-1.0,-1.0,1.0,0.0,-1.0,0.0,1651085051561411.0
-1.0,0.0,1.0,-4.0,-1.0,-2.0,1.0,0.0,1651085051576387.0
0.0,0.0,-1.0,-3.0,-1.0,-1.0,0.0,-1.0,1651085051576387.0
0.0,1.0,-2.0,0.0,0.0,-1.0,0.0,-2.0,1651085051577265.0
-1.0,-1.0,1.0,0.0,1.0,1.0,-1.0,0.0,1651085051577265.0
0.0,-1.0,-1.0,1.0,0.0,1.0,1.0,1.0,1651085051599232.0
-2.0,-1.0,-2.0,-1.0,-2.0,-3.0,-2.0,-1.0,1651085051599232.0
0.0,0.0,0.0,0.0,2.0,0.0,-1.0,0.0,1651085051600196.0
-1.0,-1.0,0.0,1.0,2.0,0.0,3.0,0.0,1651085051600196.0
1.0,-2.0,0.0,-2.0,0.0,0.0,0.0,0.0,1651085051621461.0
-1.0,-1.0,-3.0,-2.0,-3.0,-2.0,0.0,-1.0,1651085051621461.0
0.0,-1.0,-1.0,-2.0,-1.0,-2.0,0.0,-1.0,1651085051622461.0
-1.0,-2.0,-1.0,0.0,-1.0,-1.0,-2.0,-1.0,1651085051622461.0
0.0,-1.0,-2.0,-1.0,-2.0,0.0,-2.0,0.0,1651085051636368.0
0.0,0.0,0.0,0.0,-1.0,-1.0,0.0,1.0,1651085051636368.0
0.0,1.0,0.0,0.0,0.0,-2.0,0.0,-1.0,1651085051637245.0
0.0,1.0,-2.0,1.0,1.0,-2.0,1.0,0.0,1651085051637245.0
-1.0,-1.0,-1.0,-1.0,-1.0,-1.0,-1.0,-1.0,1651085051659326.0
-1.0,0.0,0.0,-3.0,0.0,-1.0,-1.0,-1.0,1651085051659326.0
0.0,-2.0,-1.0,0.0,0.0,0.0,1.0,-1.0,1651085051660232.0
-1.0,-1.0,0.0,-2.0,-1.0,-1.0,-1.0,-1.0,1651085051660232.0
-1.0,1.0,-1.0,0.0,-1.0,-2.0,-1.0,0.0,1651085051682329.0
0.0,0.0,0.0,1.0,1.0,1.0,0.0,-2.0,1651085051682329.0
-1.0,-1.0,-1.0,-1.0,-1.0,1.0,0.0,-1.0,1651085051682329.0
1.0,1.0,1.0,-1.0,-2.0,-3.0,-1.0,-1.0,1651085051682329.0
-1.0,-1.0,-1.0,-1.0,-1.0,-2.0,1.0,-1.0,1651085051696337.0
-1.0,-2.0,0.0,1.0,1.0,1.0,-1.0,0.0,1651085051696337.0
-1.0,0.0,1.0,0.0,1.0,2.0,-1.0,1.0,1651085051697292.0
0.0,-2.0,-2.0,-1.0,-2.0,2.0,-1.0,-3.0,1651085051697292.0
1.0,0.0,0.0,-1.0,0.0,1.0,-2.0,-1.0,1651085051719225.0
1.0,-1.0,-1.0,-2.0,-2.0,-1.0,-1.0,-1.0,1651085051719225.0
-3.0,-2.0,-2.0,0.0,-3.0,-2.0,-3.0,-1.0,1651085051720257.0
-2.0,0.0,0.0,-2.0,-1.0,-3.0,0.0,1.0,1651085051720257.0
-1.0,-1.0,-1.0,1.0,-2.0,-2.0,1.0,-1.0,1651085051742296.0
0.0,-1.0,-1.0,0.0,1.0,-1.0,1.0,-1.0,1651085051742296.0
0.0,0.0,0.0,-2.0,0.0,0.0,-1.0,-1.0,1651085051742296.0
0.0,-2.0,-1.0,-1.0,0.0,1.0,-1.0,-2.0,1651085051742296.0
0.0,-2.0,0.0,1.0,1.0,0.0,0.0,-1.0,1651085051756292.0
-3.0,-1.0,0.0,-2.0,-3.0,-1.0,-1.0,-1.0,1651085051756292.0
1.0,-2.0,-1.0,-1.0,-1.0,-2.0,0.0,-1.0,1651085051762411.0
0.0,1.0,0.0,0.0,1.0,1.0,0.0,0.0,1651085051762411.0
0.0,-2.0,0.0,1.0,2.0,1.0,1.0,0.0,1651085051778207.0
1.0,0.0,-2.0,0.0,1.0,0.0,-3.0,-1.0,1651085051778207.0
-1.0,-1.0,-1.0,-3.0,-4.0,-4.0,0.0,1.0,1651085051780045.0
-1.0,1.0,-1.0,-2.0,-5.0,-4.0,-2.0,-2.0,1651085051780045.0
-1.0,0.0,0.0,1.0,2.0,0.0,-1.0,0.0,1651085051801833.0
-2.0,-1.0,-1.0,3.0,1.0,2.0,1.0,-1.0,1651085051801833.0
-1.0,-2.0,-2.0,-2.0,-1.0,-1.0,-1.0,-1.0,1651085051807711.0
-2.0,-1.0,-1.0,0.0,-1.0,-1.0,-2.0,0.0,1651085051807711.0
0.0,1.0,1.0,-2.0,-3.0,-1.0,-2.0,-1.0,1651085051815855.0
-1.0,0.0,-1.0,-1.0,0.0,-2.0,-1.0,-1.0,1651085051815855.0
0.0,0.0,1.0,0.0,0.0,0.0,0.0,-1.0,1651085051822933.0
-2.0,-1.0,-3.0,-1.0,-1.0,-1.0,2.0,0.0,1651085051822933.0
-1.0,0.0,-2.0,-3.0,-3.0,-2.0,-2.0,0.0,1651085051846389.0
1.0,0.0,1.0,0.0,0.0,-1.0,-1.0,-1.0,1651085051846389.0
-2.0,-1.0,3.0,3.0,6.0,4.0,2.0,1.0,1651085051847266.0
0.0,1.0,-1.0,0.0,0.0,-1.0,-1.0,-2.0,1651085051847266.0
-1.0,-1.0,0.0,0.0,-1.0,-1.0,-1.0,0.0,1651085051861394.0
0.0,-2.0,-2.0,-2.0,-2.0,-2.0,0.0,0.0,1651085051861394.0
0.0,0.0,-1.0,-2.0,-3.0,-2.0,-2.0,0.0,1651085051862396.0
-1.0,-1.0,0.0,0.0,0.0,0.0,-2.0,0.0,1651085051862396.0
-1.0,-1.0,-1.0,-3.0,-1.0,-1.0,0.0,-1.0,1651085051876192.0
-2.0,1.0,0.0,-1.0,1.0,0.0,0.0,-1.0,1651085051876192.0
1.0,-1.0,1.0,3.0,1.0,0.0,1.0,1.0,1651085051882584.0
0.0,-1.0,-1.0,3.0,1.0,0.0,-1.0,-1.0,1651085051882584.0
2.0,-1.0,0.0,-3.0,-3.0,-1.0,-1.0,-2.0,1651085051899212.0
0.0,0.0,1.0,-2.0,-3.0,-2.0,0.0,-1.0,1651085051899212.0
-1.0,2.0,1.0,0.0,-1.0,-1.0,-2.0,-1.0,1651085051900247.0
0.0,-1.0,-1.0,-2.0,-2.0,0.0,1.0,0.0,1651085051900247.0
-1.0,-1.0,2.0,3.0,1.0,1.0,0.0,-1.0,1651085051921358.0
0.0,-2.0,0.0,2.0,1.0,0.0,0.0,0.0,1651085051921358.0
-2.0,1.0,-1.0,-1.0,-1.0,-2.0,-1.0,0.0,1651085051922244.0
-5.0,2.0,1.0,-1.0,-1.0,-2.0,-1.0,-1.0,1651085051922244.0
0.0,1.0,-1.0,1.0,2.0,2.0,-1.0,0.0,1651085051936327.0
1.0,0.0,-2.0,-2.0,-1.0,-1.0,-1.0,0.0,1651085051936327.0
-3.0,-6.0,-3.0,-4.0,-3.0,-1.0,0.0,-3.0,1651085051942228.0
1.0,-1.0,-1.0,-1.0,-1.0,0.0,-1.0,-1.0,1651085051942228.0
-3.0,2.0,0.0,2.0,1.0,0.0,2.0,1.0,1651085051959241.0
-3.0,-7.0,-3.0,-1.0,0.0,0.0,-1.0,0.0,1651085051959241.0
2.0,5.0,0.0,0.0,-2.0,0.0,0.0,-1.0,1651085051960240.0
-2.0,-5.0,-3.0,-3.0,-2.0,-2.0,1.0,0.0,1651085051960240.0
0.0,1.0,0.0,-2.0,-3.0,-4.0,-2.0,-1.0,1651085051981568.0
2.0,0.0,1.0,1.0,0.0,0.0,-1.0,0.0,1651085051981568.0
-4.0,-3.0,1.0,0.0,4.0,2.0,0.0,-1.0,1651085051982572.0
1.0,0.0,1.0,2.0,2.0,4.0,2.0,1.0,1651085051982572.0
0.0,-2.0,-2.0,0.0,-1.0,-2.0,-1.0,-1.0,1651085051995405.0
-2.0,2.0,-3.0,-3.0,-4.0,-3.0,0.0,0.0,1651085051995405.0
-1.0,-2.0,-1.0,-1.0,-4.0,-2.0,-2.0,-1.0,1651085052002793.0
0.0,-1.0,-1.0,-2.0,-1.0,-1.0,-1.0,0.0,1651085052002793.0
-2.0,0.0,-1.0,0.0,-3.0,-1.0,2.0,0.0,1651085052019245.0
0.0,1.0,1.0,5.0,5.0,2.0,0.0,0.0,1651085052019245.0
1.0,-2.0,-1.0,-2.0,-2.0,1.0,-1.0,0.0,1651085052020276.0
1.0,-1.0,1.0,3.0,2.0,2.0,0.0,0.0,1651085052020276.0
0.0,-2.0,0.0,-3.0,-1.0,0.0,-1.0,0.0,1651085052041514.0
0.0,-1.0,1.0,-1.0,-4.0,-1.0,-2.0,0.0,1651085052041514.0
0.0,-2.0,1.0,0.0,-2.0,1.0,1.0,-1.0,1651085052042522.0
-1.0,-1.0,-6.0,-6.0,-3.0,-1.0,-2.0,0.0,1651085052042522.0
0.0,0.0,2.0,2.0,1.0,1.0,0.0,-1.0,1651085052055520.0
-1.0,2.0,-1.0,1.0,0.0,1.0,0.0,0.0,1651085052055520.0
1.0,0.0,2.0,2.0,1.0,0.0,0.0,-1.0,1651085052062460.0
1.0,-1.0,3.0,0.0,-2.0,-2.0,-1.0,-1.0,1651085052062460.0
0.0,-2.0,-2.0,-1.0,-1.0,-2.0,-2.0,0.0,1651085052086386.0
0.0,0.0,0.0,0.0,-1.0,-1.0,0.0,2.0,1651085052086386.0
0.0,1.0,0.0,-2.0,-2.0,-2.0,0.0,-1.0,1651085052087259.0
0.0,0.0,-2.0,1.0,0.0,0.0,0.0,-2.0,1651085052087259.0
-1.0,0.0,-2.0,-2.0,-1.0,-2.0,-2.0,-1.0,1651085052101361.0
-2.0,-1.0,0.0,-2.0,0.0,-1.0,-1.0,0.0,1651085052101361.0
0.0,-1.0,-1.0,-2.0,-1.0,1.0,0.0,1.0,1651085052102359.0
1.0,-2.0,-1.0,0.0,0.0,-1.0,-1.0,0.0,1651085052102359.0
-1.0,-1.0,-1.0,-1.0,0.0,-1.0,-1.0,-2.0,1651085052114359.0
-1.0,0.0,0.0,-2.0,-3.0,-3.0,-2.0,-1.0,1651085052114359.0
-1.0,0.0,-2.0,-1.0,1.0,1.0,0.0,-1.0,1651085052123675.0
-1.0,-1.0,0.0,0.0,1.0,1.0,1.0,0.0,1651085052123675.0
-1.0,-1.0,0.0,2.0,-2.0,-1.0,0.0,1.0,1651085052138983.0
0.0,-2.0,-2.0,-1.0,-2.0,0.0,1.0,-1.0,1651085052138983.0
0.0,-2.0,-2.0,0.0,-1.0,-2.0,-1.0,0.0,1651085052139826.0
-1.0,1.0,0.0,-2.0,-3.0,-2.0,-2.0,0.0,1651085052139826.0
-1.0,-1.0,-1.0,2.0,0.0,1.0,-2.0,-1.0,1651085052161405.0
-1.0,-1.0,0.0,1.0,1.0,0.0,-1.0,-2.0,1651085052161405.0
-1.0,1.0,-4.0,-1.0,-1.0,-2.0,-1.0,0.0,1651085052162270.0
0.0,1.0,0.0,0.0,2.0,0.0,-2.0,-1.0,1651085052162270.0
0.0,0.0,-1.0,-2.0,-2.0,-3.0,0.0,-1.0,1651085052175222.0
-1.0,-1.0,-2.0,-1.0,0.0,-1.0,0.0,-1.0,1651085052175222.0
0.0,-2.0,0.0,-5.0,-4.0,-2.0,-1.0,-2.0,1651085052183747.0
-2.0,-1.0,0.0,2.0,-1.0,-1.0,1.0,-1.0,1651085052183747.0
0.0,-2.0,1.0,6.0,5.0,1.0,1.0,0.0,1651085052199228.0
-1.0,0.0,-1.0,0.0,0.0,0.0,-1.0,-1.0,1651085052199228.0
-1.0,1.0,-2.0,-1.0,-1.0,-1.0,-2.0,-1.0,1651085052200260.0
0.0,-2.0,-4.0,-2.0,-3.0,-1.0,0.0,0.0,1651085052200260.0
-1.0,0.0,-1.0,-2.0,-1.0,0.0,0.0,-1.0,1651085052222192.0
-1.0,0.0,1.0,-2.0,-1.0,-1.0,-1.0,0.0,1651085052222192.0
0.0,-1.0,-1.0,0.0,0.0,-1.0,-1.0,-1.0,1651085052223064.0
0.0,-2.0,0.0,-1.0,-1.0,0.0,-1.0,-1.0,1651085052223064.0
0.0,1.0,0.0,0.0,3.0,1.0,0.0,-1.0,1651085052234352.0
0.0,-2.0,-1.0,-2.0,-4.0,-2.0,-2.0,-1.0,1651085052234352.0
-1.0,0.0,-1.0,0.0,-2.0,-3.0,-1.0,1.0,1651085052244350.0
1.0,0.0,2.0,4.0,14.0,6.0,0.0,1.0,1651085052244350.0
-2.0,-3.0,-4.0,-5.0,-3.0,-3.0,0.0,0.0,1651085052259235.0
1.0,0.0,-2.0,-2.0,0.0,0.0,-1.0,0.0,1651085052259235.0
-1.0,1.0,0.0,-5.0,-10.0,-2.0,-1.0,-2.0,1651085052260234.0
-1.0,-2.0,-1.0,1.0,-1.0,-2.0,-1.0,0.0,1651085052260234.0
0.0,-1.0,1.0,-2.0,-8.0,-1.0,0.0,0.0,1651085052281599.0
0.0,-3.0,0.0,9.0,12.0,1.0,0.0,1.0,1651085052281599.0
-2.0,-1.0,4.0,3.0,8.0,3.0,0.0,-2.0,1651085052282607.0
0.0,0.0,-1.0,-5.0,-9.0,-4.0,-2.0,-2.0,1651085052282607.0
-1.0,0.0,-2.0,-2.0,-1.0,0.0,-2.0,-1.0,1651085052295370.0
-2.0,-1.0,-3.0,-8.0,-11.0,-4.0,-1.0,-1.0,1651085052295370.0
-1.0,0.0,2.0,2.0,1.0,2.0,0.0,-1.0,1651085052304375.0
-2.0,0.0,0.0,1.0,3.0,1.0,0.0,-2.0,1651085052304375.0
-1.0,0.0,-1.0,-2.0,-1.0,-3.0,-3.0,0.0,1651085052319236.0
1.0,1.0,2.0,1.0,1.0,2.0,3.0,-1.0,1651085052319236.0
0.0,-2.0,-2.0,1.0,4.0,2.0,0.0,0.0,1651085052320267.0
1.0,2.0,-2.0,-10.0,-12.0,-4.0,-1.0,1.0,1651085052320267.0
0.0,0.0,-2.0,4.0,-8.0,-1.0,-1.0,1.0,1651085052341615.0
2.0,4.0,4.0,-7.0,13.0,10.0,2.0,2.0,1651085052341615.0
-2.0,-12.0,-17.0,2.0,5.0,-1.0,-1.0,-2.0,1651085052342615.0
-2.0,4.0,9.0,9.0,7.0,0.0,0.0,-1.0,1651085052342615.0
2.0,-2.0,-2.0,-5.0,-1.0,0.0,0.0,-1.0,1651085052355357.0
-1.0,0.0,-1.0,4.0,0.0,-2.0,-1.0,-2.0,1651085052355357.0
0.0,3.0,0.0,-15.0,-14.0,-5.0,-2.0,-2.0,1651085052364553.0
0.0,-3.0,-3.0,-1.0,-2.0,0.0,0.0,0.0,1651085052364553.0
-1.0,-3.0,1.0,4.0,5.0,-1.0,-1.0,0.0,1651085052379048.0
-2.0,0.0,0.0,-2.0,-9.0,-5.0,-1.0,-4.0,1651085052379048.0
1.0,-1.0,-4.0,-4.0,3.0,1.0,0.0,0.0,1651085052380048.0
0.0,-1.0,-5.0,0.0,0.0,-1.0,0.0,-1.0,1651085052380048.0
2.0,0.0,4.0,-2.0,4.0,4.0,2.0,1.0,1651085052401490.0
-2.0,-4.0,-9.0,-3.0,-6.0,-1.0,1.0,0.0,1651085052401490.0
-1.0,1.0,10.0,13.0,9.0,2.0,1.0,2.0,1651085052402490.0
-1.0,-2.0,0.0,-4.0,-2.0,0.0,-1.0,0.0,1651085052402490.0
-1.0,0.0,-1.0,-2.0,-5.0,-3.0,0.0,0.0,1651085052415376.0
2.0,-1.0,0.0,-1.0,2.0,-2.0,0.0,-1.0,1651085052415376.0
1.0,-2.0,-4.0,-12.0,-15.0,-5.0,-2.0,-1.0,1651085052423498.0
-1.0,-2.0,1.0,-3.0,-6.0,-1.0,-2.0,1.0,1651085052423498.0
-2.0,-1.0,0.0,15.0,18.0,3.0,-1.0,-1.0,1651085052439238.0
0.0,-2.0,0.0,2.0,6.0,3.0,0.0,0.0,1651085052439238.0
0.0,2.0,-2.0,-12.0,-19.0,-7.0,-1.0,0.0,1651085052440240.0
0.0,2.0,-11.0,-9.0,-13.0,-5.0,0.0,0.0,1651085052440240.0
1.0,-7.0,6.0,13.0,16.0,11.0,1.0,0.0,1651085052461402.0
-5.0,-2.0,0.0,-2.0,-10.0,-5.0,-1.0,-2.0,1651085052461402.0
0.0,0.0,1.0,8.0,9.0,1.0,1.0,0.0,1651085052462239.0
0.0,-1.0,-3.0,-6.0,-18.0,-8.0,-1.0,0.0,1651085052462239.0
-3.0,1.0,-4.0,-17.0,1.0,-4.0,-3.0,-3.0,1651085052475389.0
5.0,-9.0,-11.0,6.0,4.0,7.0,2.0,2.0,1651085052475389.0
1.0,4.0,5.0,7.0,0.0,-3.0,3.0,0.0,1651085052484385.0
-2.0,-4.0,-2.0,-7.0,-4.0,-2.0,-4.0,-1.0,1651085052484385.0
0.0,2.0,-4.0,8.0,-7.0,-2.0,-5.0,-19.0,1651085052499235.0
-5.0,-4.0,6.0,-1.0,18.0,3.0,5.0,19.0,1651085052499235.0
3.0,-6.0,-8.0,-12.0,0.0,5.0,10.0,13.0,1651085052500272.0
0.0,5.0,-2.0,15.0,-1.0,-8.0,-11.0,-10.0,1651085052500272.0
1.0,-5.0,2.0,0.0,5.0,3.0,1.0,1.0,1651085052521476.0
-4.0,-6.0,-5.0,-23.0,-40.0,-12.0,2.0,-3.0,1651085052521476.0
5.0,9.0,-2.0,-9.0,2.0,2.0,-1.0,10.0,1651085052522476.0
-1.0,-2.0,11.0,13.0,16.0,11.0,4.0,3.0,1651085052522476.0
-6.0,-2.0,-9.0,-4.0,-7.0,-5.0,-2.0,-2.0,1651085052544392.0
-3.0,-4.0,9.0,17.0,10.0,2.0,-3.0,-11.0,1651085052544392.0
4.0,5.0,0.0,-7.0,0.0,2.0,-3.0,-4.0,1651085052545232.0
-4.0,-15.0,-12.0,-2.0,-2.0,0.0,4.0,-7.0,1651085052545232.0
-4.0,-1.0,12.0,-3.0,3.0,-8.0,-12.0,0.0,1651085052558390.0
-2.0,9.0,10.0,3.0,-14.0,-2.0,5.0,2.0,1651085052558390.0
2.0,11.0,10.0,11.0,12.0,7.0,4.0,3.0,1651085052560253.0
-5.0,-13.0,5.0,3.0,14.0,4.0,3.0,2.0,1651085052560253.0
1.0,-7.0,-11.0,-2.0,-6.0,-3.0,1.0,14.0,1651085052581638.0
0.0,15.0,-24.0,-13.0,-2.0,-4.0,-3.0,-1.0,1651085052581638.0
-6.0,-6.0,9.0,5.0,-12.0,-9.0,-8.0,-12.0,1651085052582638.0
6.0,9.0,-5.0,-6.0,19.0,12.0,4.0,-4.0,1651085052582638.0
1.0,-14.0,2.0,0.0,-5.0,3.0,14.0,17.0,1651085052604351.0
3.0,-4.0,-1.0,-15.0,-13.0,-7.0,-17.0,-5.0,1651085052604351.0
-3.0,14.0,-6.0,20.0,12.0,4.0,11.0,9.0,1651085052605269.0
0.0,5.0,2.0,5.0,-1.0,-13.0,-15.0,0.0,1651085052605269.0
2.0,5.0,-4.0,-12.0,-12.0,-2.0,-1.0,-6.0,1651085052619244.0
4.0,3.0,-11.0,2.0,10.0,3.0,-2.0,-1.0,1651085052619244.0
-4.0,-9.0,-6.0,-8.0,-11.0,-3.0,-3.0,-13.0,1651085052620275.0
0.0,3.0,10.0,0.0,-5.0,-1.0,4.0,4.0,1651085052620275.0
1.0,4.0,6.0,6.0,4.0,1.0,-2.0,-1.0,1651085052642398.0
-2.0,-6.0,-6.0,-5.0,-3.0,3.0,11.0,-2.0,1651085052642398.0
-1.0,-6.0,-13.0,-1.0,4.0,-2.0,-1.0,0.0,1651085052643059.0
2.0,-1.0,6.0,-1.0,-2.0,1.0,2.0,3.0,1651085052643059.0
3.0,10.0,1.0,1.0,9.0,14.0,16.0,-7.0,1651085052665229.0
2.0,-5.0,9.0,8.0,3.0,-15.0,-26.0,10.0,1651085052665229.0
2.0,-4.0,11.0,-2.0,0.0,5.0,7.0,0.0,1651085052666259.0
3.0,8.0,-1.0,6.0,6.0,2.0,4.0,6.0,1651085052666259.0
-1.0,4.0,-20.0,-15.0,-16.0,-4.0,-5.0,-11.0,1651085052678380.0
-3.0,0.0,9.0,11.0,13.0,8.0,7.0,-6.0,1651085052678380.0
-1.0,-7.0,-3.0,-2.0,2.0,-3.0,-7.0,-1.0,1651085052685529.0
-1.0,2.0,-7.0,-11.0,-9.0,-2.0,-3.0,-3.0,1651085052685529.0
3.0,-4.0,0.0,-3.0,-2.0,-3.0,-2.0,-2.0,1651085052702038.0
0.0,11.0,-5.0,-13.0,-26.0,-6.0,-1.0,-5.0,1651085052702038.0
-2.0,-7.0,11.0,39.0,58.0,9.0,-11.0,0.0,1651085052703069.0
0.0,-1.0,5.0,3.0,-3.0,2.0,6.0,-2.0,1651085052703069.0
1.0,2.0,10.0,-7.0,-6.0,-6.0,-4.0,-2.0,1651085052724094.0
-3.0,-2.0,-12.0,-11.0,1.0,-4.0,-5.0,-11.0,1651085052724094.0
-4.0,4.0,3.0,-12.0,-16.0,-1.0,-1.0,11.0,1651085052725056.0
-1.0,0.0,-8.0,11.0,4.0,-2.0,-5.0,-1.0,1651085052725056.0
-2.0,3.0,0.0,0.0,4.0,-4.0,3.0,4.0,1651085052738697.0
0.0,-2.0,1.0,-2.0,-5.0,0.0,2.0,0.0,1651085052738697.0
-5.0,-1.0,-4.0,-5.0,-10.0,-3.0,-4.0,-15.0,1651085052745210.0
-3.0,-7.0,-5.0,-4.0,4.0,2.0,-3.0,0.0,1651085052745210.0
-1.0,-1.0,-2.0,-10.0,-14.0,-4.0,-5.0,1.0,1651085052769188.0
1.0,5.0,6.0,18.0,13.0,8.0,19.0,-3.0,1651085052769188.0
6.0,3.0,-7.0,-9.0,-11.0,-10.0,-23.0,-8.0,1651085052770189.0
-1.0,-9.0,7.0,1.0,4.0,-1.0,3.0,24.0,1651085052770189.0
-7.0,0.0,-4.0,0.0,2.0,2.0,9.0,1.0,1651085052784211.0
1.0,-2.0,7.0,1.0,5.0,1.0,-2.0,6.0,1651085052784211.0
-2.0,-1.0,2.0,-12.0,-18.0,-6.0,1.0,-4.0,1651085052785174.0
1.0,5.0,2.0,4.0,-7.0,-2.0,-1.0,-9.0,1651085052785174.0
2.0,2.0,2.0,9.0,10.0,6.0,-2.0,-1.0,1651085052798245.0
0.0,-4.0,-6.0,-3.0,-6.0,2.0,4.0,3.0,1651085052798245.0
-2.0,-5.0,-9.0,5.0,7.0,0.0,6.0,-1.0,1651085052805212.0
1.0,8.0,-2.0,-18.0,-11.0,-5.0,-5.0,-13.0,1651085052805212.0
-3.0,-15.0,-5.0,-5.0,-2.0,-4.0,-2.0,10.0,1651085052821432.0
1.0,-1.0,-11.0,6.0,15.0,7.0,0.0,-2.0,1651085052821432.0
-2.0,-4.0,-2.0,-10.0,-16.0,-4.0,-4.0,1.0,1651085052822433.0
0.0,3.0,-10.0,1.0,3.0,4.0,8.0,-2.0,1651085052822433.0
-2.0,6.0,14.0,3.0,-7.0,-4.0,-9.0,-4.0,1651085052844343.0
-2.0,-6.0,0.0,-7.0,-2.0,-2.0,-4.0,-2.0,1651085052844343.0
0.0,4.0,7.0,0.0,-1.0,3.0,3.0,-2.0,1651085052845243.0
-8.0,-14.0,-5.0,-3.0,1.0,0.0,2.0,-12.0,1651085052845243.0
2.0,10.0,7.0,8.0,-1.0,-4.0,-1.0,19.0,1651085052858868.0
3.0,-5.0,4.0,6.0,2.0,-5.0,-11.0,1.0,1651085052858868.0
-1.0,-5.0,-9.0,-2.0,1.0,1.0,8.0,4.0,1651085052865216.0
4.0,21.0,5.0,-3.0,-2.0,2.0,0.0,-4.0,1651085052865216.0
-3.0,-13.0,-5.0,-9.0,-7.0,-3.0,-9.0,-10.0,1651085052881507.0
-5.0,-10.0,9.0,3.0,3.0,2.0,4.0,-2.0,1651085052881507.0
-1.0,1.0,0.0,1.0,0.0,2.0,2.0,1.0,1651085052882508.0
1.0,-2.0,-8.0,-7.0,-2.0,-2.0,-6.0,1.0,1651085052882508.0
-1.0,2.0,15.0,-4.0,-8.0,-3.0,0.0,-4.0,1651085052904291.0
1.0,2.0,0.0,11.0,5.0,1.0,-2.0,5.0,1651085052904291.0
0.0,3.0,1.0,-1.0,-2.0,-2.0,2.0,-2.0,1651085052905207.0
-4.0,-5.0,-17.0,-7.0,-16.0,-5.0,1.0,3.0,1651085052905207.0
6.0,1.0,-1.0,8.0,16.0,5.0,-3.0,-7.0,1651085052918504.0
-3.0,4.0,3.0,7.0,5.0,-1.0,0.0,14.0,1651085052918504.0
-1.0,-1.0,1.0,-1.0,-1.0,2.0,0.0,-1.0,1651085052925217.0
-1.0,-3.0,-1.0,-3.0,-3.0,-2.0,2.0,1.0,1651085052925217.0
-1.0,-2.0,-19.0,-8.0,-9.0,-7.0,-4.0,-2.0,1651085052941248.0
0.0,1.0,7.0,-2.0,-6.0,-3.0,0.0,-9.0,1651085052941248.0
-2.0,0.0,8.0,1.0,-1.0,0.0,0.0,0.0,1651085052947386.0
-2.0,-9.0,1.0,-1.0,0.0,-2.0,-2.0,6.0,1651085052947386.0
-1.0,2.0,-16.0,0.0,6.0,3.0,4.0,-3.0,1651085052964469.0
-1.0,-2.0,3.0,-1.0,6.0,4.0,2.0,-4.0,1651085052964469.0
-1.0,2.0,-2.0,0.0,-1.0,-5.0,-6.0,1.0,1651085052965405.0
1.0,1.0,6.0,5.0,3.0,2.0,-1.0,-3.0,1651085052965405.0
0.0,-9.0,2.0,0.0,2.0,1.0,-6.0,-3.0,1651085052978207.0
0.0,12.0,-1.0,-1.0,-4.0,-2.0,6.0,-1.0,1651085052978207.0
-1.0,-13.0,-3.0,0.0,-3.0,-2.0,-8.0,-9.0,1651085052986179.0
0.0,4.0,4.0,0.0,1.0,5.0,11.0,7.0,1651085052986179.0
-2.0,0.0,3.0,2.0,-3.0,-1.0,5.0,16.0,1651085053002469.0
0.0,-2.0,-7.0,-3.0,0.0,-3.0,-9.0,-4.0,1651085053002469.0
2.0,5.0,0.0,-1.0,1.0,-2.0,1.0,-1.0,1651085053003062.0
2.0,-1.0,2.0,0.0,4.0,3.0,-4.0,-10.0,1651085053003062.0
-2.0,0.0,0.0,1.0,3.0,2.0,4.0,-6.0,1651085053023063.0
-1.0,-4.0,-3.0,-3.0,-2.0,-2.0,0.0,-1.0,1651085053023063.0
0.0,4.0,-3.0,-7.0,-5.0,0.0,3.0,0.0,1651085053025061.0
-1.0,-2.0,10.0,5.0,0.0,-5.0,-5.0,-1.0,1651085053025061.0
0.0,4.0,-7.0,-2.0,0.0,3.0,6.0,1.0,1651085053039071.0
-1.0,-5.0,4.0,-1.0,-3.0,-2.0,-5.0,-4.0,1651085053039071.0
0.0,-1.0,3.0,0.0,0.0,1.0,-2.0,4.0,1651085053046190.0
-1.0,-4.0,-19.0,-6.0,-3.0,-3.0,-4.0,4.0,1651085053046190.0
0.0,-1.0,6.0,4.0,3.0,-1.0,-2.0,-8.0,1651085053061514.0
-2.0,2.0,2.0,-1.0,-1.0,3.0,3.0,10.0,1651085053061514.0
1.0,0.0,1.0,1.0,2.0,-1.0,2.0,0.0,1651085053062515.0
0.0,-3.0,1.0,1.0,3.0,0.0,1.0,1.0,1651085053062515.0
-2.0,2.0,-4.0,-2.0,-3.0,-2.0,-5.0,-3.0,1651085053084505.0
1.0,2.0,3.0,1.0,-4.0,-1.0,-4.0,-5.0,1651085053084505.0
0.0,2.0,-19.0,-8.0,1.0,5.0,3.0,3.0,1651085053085410.0
-3.0,-12.0,3.0,6.0,5.0,-3.0,-5.0,-1.0,1651085053085410.0
0.0,-6.0,3.0,3.0,0.0,0.0,-1.0,0.0,1651085053097415.0
0.0,5.0,-1.0,-3.0,0.0,2.0,2.0,-3.0,1651085053097415.0
-4.0,-5.0,6.0,-2.0,-6.0,-9.0,0.0,5.0,1651085053106543.0
2.0,8.0,7.0,2.0,0.0,-1.0,-2.0,-2.0,1651085053106543.0
-3.0,-4.0,-8.0,-9.0,-8.0,-4.0,1.0,2.0,1651085053121663.0
2.0,-10.0,-4.0,-7.0,-13.0,-4.0,2.0,-1.0,1651085053121663.0
2.0,3.0,6.0,13.0,24.0,6.0,-10.0,-9.0,1651085053122500.0
-2.0,-1.0,1.0,5.0,11.0,9.0,7.0,7.0,1651085053122500.0
1.0,4.0,9.0,-7.0,-10.0,-8.0,-2.0,1.0,1651085053144399.0
-6.0,-5.0,-2.0,-8.0,-10.0,-1.0,-3.0,-4.0,1651085053144399.0
-1.0,-6.0,-4.0,-6.0,-7.0,2.0,7.0,3.0,1651085053150511.0
7.0,12.0,-6.0,2.0,-5.0,-7.0,-6.0,-1.0,1651085053150511.0
0.0,-11.0,-2.0,3.0,4.0,4.0,1.0,-1.0,1651085053157747.0
-2.0,-1.0,-5.0,-10.0,-9.0,-6.0,3.0,-4.0,1651085053157747.0
-3.0,-4.0,7.0,5.0,-3.0,-1.0,-2.0,-2.0,1651085053166126.0
-3.0,-4.0,-5.0,1.0,4.0,2.0,-2.0,-2.0,1651085053166126.0
0.0,0.0,-4.0,-7.0,-11.0,-5.0,-2.0,-5.0,1651085053181121.0
1.0,4.0,0.0,3.0,6.0,-2.0,-4.0,10.0,1651085053181121.0
-2.0,-8.0,-1.0,4.0,6.0,5.0,3.0,0.0,1651085053183118.0
-1.0,3.0,11.0,-2.0,-4.0,2.0,5.0,0.0,1651085053183118.0
0.0,4.0,-11.0,-6.0,1.0,-2.0,-4.0,-5.0,1651085053204267.0
-3.0,-6.0,7.0,3.0,3.0,1.0,-8.0,-9.0,1651085053204267.0
4.0,9.0,-7.0,2.0,2.0,1.0,5.0,7.0,1651085053205245.0
-2.0,-2.0,-6.0,-10.0,-13.0,-4.0,-5.0,-2.0,1651085053205245.0
0.0,5.0,12.0,16.0,14.0,1.0,-1.0,-1.0,1651085053218185.0
2.0,-3.0,1.0,1.0,5.0,5.0,1.0,1.0,1651085053218185.0
-1.0,7.0,8.0,-5.0,-7.0,0.0,0.0,-2.0,1651085053226243.0
-4.0,-6.0,1.0,1.0,0.0,-2.0,-1.0,-3.0,1651085053226243.0
1.0,3.0,-7.0,5.0,7.0,2.0,3.0,3.0,1651085053241216.0
2.0,1.0,-2.0,-3.0,-2.0,1.0,2.0,-2.0,1651085053241216.0
-2.0,-4.0,7.0,3.0,2.0,0.0,-8.0,-14.0,1651085053242237.0
0.0,-2.0,-7.0,-4.0,-3.0,-5.0,5.0,9.0,1651085053242237.0
-1.0,-4.0,4.0,-1.0,0.0,5.0,8.0,3.0,1651085053264344.0
-1.0,2.0,-12.0,-1.0,-1.0,-4.0,-6.0,-7.0,1651085053264344.0
1.0,-6.0,-2.0,-5.0,-12.0,-6.0,1.0,10.0,1651085053265192.0
1.0,-1.0,7.0,5.0,10.0,4.0,-2.0,-5.0,1651085053265192.0
1.0,3.0,0.0,-4.0,-6.0,-3.0,-8.0,1.0,1651085053278186.0
-2.0,-3.0,12.0,10.0,16.0,7.0,9.0,0.0,1651085053278186.0
-3.0,6.0,-5.0,-6.0,-8.0,-4.0,1.0,-3.0,1651085053286314.0
0.0,-4.0,-1.0,-4.0,-6.0,-3.0,-4.0,-3.0,1651085053286314.0
3.0,14.0,13.0,10.0,3.0,-1.0,3.0,3.0,1651085053301472.0
1.0,-6.0,-14.0,-6.0,-7.0,-5.0,-5.0,0.0,1651085053301472.0
0.0,-2.0,-6.0,2.0,5.0,3.0,-4.0,-10.0,1651085053302472.0
-2.0,0.0,2.0,0.0,-2.0,0.0,1.0,9.0,1651085053302472.0
2.0,-3.0,2.0,-9.0,-3.0,0.0,5.0,-2.0,1651085053323497.0
2.0,6.0,11.0,-3.0,-11.0,-7.0,-7.0,1.0,1651085053323497.0
-1.0,-11.0,-14.0,8.0,2.0,-2.0,-6.0,-6.0,1651085053325488.0
-2.0,0.0,0.0,-2.0,0.0,3.0,6.0,-2.0,1651085053325488.0
-2.0,-7.0,-3.0,0.0,3.0,-1.0,-9.0,-1.0,1651085053337763.0
5.0,5.0,-6.0,-3.0,-10.0,-6.0,1.0,2.0,1651085053337763.0
-3.0,2.0,-5.0,-7.0,8.0,4.0,3.0,1.0,1651085053346206.0
-2.0,-11.0,6.0,15.0,9.0,2.0,-2.0,-8.0,1651085053346206.0
-3.0,-9.0,9.0,5.0,2.0,6.0,7.0,5.0,1651085053361332.0
1.0,11.0,-3.0,-13.0,-7.0,-3.0,0.0,-1.0,1651085053361332.0
-2.0,-10.0,-20.0,2.0,-8.0,-6.0,-10.0,-1.0,1651085053362369.0
0.0,5.0,3.0,-8.0,-6.0,-3.0,-4.0,-5.0,1651085053362369.0
-1.0,0.0,-20.0,2.0,6.0,-4.0,8.0,1.0,1651085053384361.0
0.0,-1.0,10.0,6.0,5.0,5.0,0.0,6.0,1651085053384361.0
0.0,-2.0,11.0,-5.0,-3.0,0.0,7.0,2.0,1651085053385244.0
2.0,2.0,-11.0,5.0,5.0,0.0,-2.0,1.0,1651085053385244.0
-4.0,-4.0,2.0,-3.0,-6.0,-3.0,-2.0,-4.0,1651085053397306.0
-4.0,-2.0,-2.0,-1.0,-1.0,-2.0,-11.0,-8.0,1651085053397306.0
1.0,4.0,-2.0,-2.0,-1.0,3.0,9.0,-5.0,1651085053406187.0
0.0,-6.0,-2.0,-9.0,-8.0,-7.0,-2.0,14.0,1651085053406187.0
0.0,10.0,7.0,6.0,-4.0,-5.0,-6.0,3.0,1651085053421519.0
-3.0,-19.0,-15.0,3.0,8.0,4.0,6.0,2.0,1651085053421519.0
-3.0,2.0,16.0,1.0,-6.0,-1.0,-5.0,-12.0,1651085053422519.0
-3.0,1.0,-20.0,-10.0,-3.0,3.0,2.0,-1.0,1651085053422519.0
0.0,3.0,-3.0,-7.0,-6.0,1.0,5.0,0.0,1651085053444340.0
-3.0,-1.0,-3.0,8.0,7.0,3.0,3.0,0.0,1651085053444340.0
2.0,0.0,8.0,4.0,6.0,-3.0,-2.0,8.0,1651085053445237.0
-4.0,9.0,2.0,-5.0,-9.0,-5.0,-2.0,-7.0,1651085053445237.0
5.0,-16.0,-2.0,-4.0,-1.0,0.0,-6.0,1.0,1651085053473064.0
-2.0,5.0,-15.0,-4.0,-5.0,2.0,9.0,0.0,1651085053473064.0
1.0,6.0,-7.0,-1.0,5.0,-2.0,-6.0,-1.0,1651085053475063.0
2.0,4.0,6.0,0.0,-2.0,-1.0,1.0,1.0,1651085053475063.0
-4.0,-11.0,-4.0,7.0,2.0,2.0,-3.0,-6.0,1651085053481209.0
0.0,4.0,7.0,-3.0,0.0,-5.0,-1.0,-1.0,1651085053481209.0
-2.0,-4.0,7.0,8.0,3.0,6.0,6.0,5.0,1651085053483074.0
-1.0,-2.0,-5.0,-2.0,0.0,-2.0,-9.0,-2.0,1651085053483074.0
1.0,4.0,4.0,2.0,0.0,1.0,8.0,4.0,1651085053504336.0
-3.0,-11.0,-21.0,-9.0,-6.0,0.0,-2.0,-3.0,1651085053504336.0
2.0,8.0,6.0,-2.0,-2.0,-4.0,-2.0,0.0,1651085053505250.0
-2.0,-1.0,12.0,2.0,4.0,5.0,10.0,6.0,1651085053505250.0
-1.0,-1.0,-8.0,-4.0,-4.0,-5.0,-13.0,-19.0,1651085053526212.0
0.0,3.0,13.0,3.0,3.0,1.0,1.0,10.0,1651085053526212.0
3.0,-1.0,-7.0,-6.0,-2.0,2.0,4.0,10.0,1651085053527209.0
2.0,0.0,3.0,9.0,9.0,1.0,-1.0,-8.0,1651085053527209.0
-4.0,-7.0,2.0,-7.0,-8.0,-4.0,-3.0,1.0,1651085053541186.0
1.0,-2.0,-5.0,13.0,15.0,3.0,-2.0,-6.0,1651085053541186.0
0.0,0.0,-11.0,-5.0,-5.0,-1.0,0.0,-3.0,1651085053543044.0
2.0,4.0,5.0,-1.0,1.0,2.0,2.0,0.0,1651085053543044.0
-4.0,4.0,2.0,2.0,3.0,1.0,3.0,10.0,1651085053563190.0
-1.0,-8.0,7.0,-2.0,-6.0,-3.0,-5.0,1.0,1651085053563190.0
2.0,-3.0,-6.0,-5.0,1.0,-3.0,0.0,0.0,1651085053565187.0
-1.0,0.0,-5.0,4.0,0.0,2.0,-2.0,-1.0,1651085053565187.0
0.0,5.0,-5.0,-2.0,1.0,3.0,0.0,-4.0,1651085053586130.0
3.0,-2.0,2.0,-2.0,-2.0,-4.0,0.0,0.0,1651085053586130.0
-1.0,-2.0,13.0,1.0,-1.0,-3.0,1.0,6.0,1651085053588125.0
-1.0,-3.0,-8.0,-7.0,-6.0,-1.0,-1.0,-9.0,1651085053588125.0
2.0,9.0,-4.0,-2.0,-3.0,-3.0,-7.0,-1.0,1651085053601301.0
1.0,-10.0,7.0,1.0,6.0,4.0,4.0,-3.0,1651085053601301.0
-5.0,3.0,-1.0,0.0,0.0,-1.0,-8.0,-5.0,1651085053602332.0
-4.0,-19.0,1.0,0.0,0.0,0.0,-2.0,-3.0,1651085053602332.0
-2.0,3.0,-1.0,-4.0,-5.0,1.0,12.0,8.0,1651085053624094.0
0.0,6.0,3.0,-1.0,2.0,-3.0,-7.0,3.0,1651085053624094.0
2.0,1.0,-8.0,2.0,-3.0,-1.0,-3.0,-5.0,1651085053625059.0
-4.0,1.0,1.0,-3.0,-1.0,-2.0,-8.0,-12.0,1651085053625059.0
4.0,0.0,-3.0,-2.0,3.0,1.0,2.0,11.0,1651085053646356.0
-1.0,-1.0,-3.0,-3.0,-5.0,-2.0,4.0,-1.0,1651085053646356.0
-3.0,-2.0,4.0,0.0,2.0,3.0,-1.0,0.0,1651085053647238.0
2.0,0.0,10.0,0.0,9.0,4.0,4.0,3.0,1651085053647238.0
-1.0,-2.0,-11.0,1.0,-5.0,-5.0,-5.0,-7.0,1651085053660373.0
0.0,8.0,6.0,3.0,-4.0,2.0,1.0,-1.0,1651085053660373.0
-1.0,-4.0,-6.0,-8.0,-14.0,-9.0,-5.0,-7.0,1651085053667690.0
1.0,-3.0,-3.0,-1.0,-2.0,2.0,2.0,6.0,1651085053667690.0
-1.0,-1.0,8.0,-3.0,2.0,0.0,-3.0,-5.0,1651085053683672.0
-2.0,0.0,-7.0,-4.0,-9.0,-5.0,-3.0,0.0,1651085053683672.0
-4.0,1.0,-1.0,8.0,-2.0,-2.0,5.0,-5.0,1651085053685555.0
1.0,-2.0,-1.0,8.0,10.0,1.0,-4.0,5.0,1651085053685555.0
-1.0,-4.0,1.0,-2.0,-1.0,-1.0,-4.0,-2.0,1651085053706215.0
0.0,3.0,-2.0,-1.0,-5.0,-1.0,0.0,-1.0,1651085053706215.0
2.0,-2.0,-4.0,-13.0,-9.0,-4.0,4.0,3.0,1651085053707211.0
-2.0,8.0,-3.0,-2.0,-3.0,-1.0,-5.0,-2.0,1651085053707211.0
-2.0,-12.0,1.0,8.0,7.0,4.0,0.0,-1.0,1651085053720363.0
1.0,0.0,0.0,0.0,5.0,1.0,-1.0,0.0,1651085053720363.0
-1.0,0.0,4.0,3.0,5.0,1.0,-1.0,-1.0,1651085053727346.0
2.0,2.0,1.0,-2.0,-6.0,-4.0,5.0,5.0,1651085053727346.0
-4.0,-8.0,-3.0,-4.0,0.0,-2.0,-3.0,-7.0,1651085053743483.0
2.0,-2.0,3.0,-3.0,-5.0,-1.0,2.0,1.0,1651085053743483.0
1.0,-1.0,-4.0,1.0,5.0,7.0,3.0,6.0,1651085053750249.0
0.0,2.0,2.0,5.0,1.0,-2.0,-2.0,-2.0,1651085053750249.0
0.0,5.0,0.0,-4.0,-5.0,-2.0,-3.0,-2.0,1651085053766541.0
-3.0,-1.0,-1.0,3.0,5.0,2.0,0.0,-3.0,1651085053766541.0
-1.0,-4.0,6.0,3.0,2.0,-3.0,-1.0,3.0,1651085053767392.0
1.0,1.0,-5.0,-8.0,-13.0,-3.0,-1.0,0.0,1651085053767392.0
1.0,3.0,2.0,14.0,28.0,7.0,2.0,1.0,1651085053780358.0
-3.0,2.0,4.0,-6.0,-4.0,2.0,-1.0,1.0,1651085053780358.0
-1.0,-7.0,-9.0,-2.0,3.0,0.0,2.0,-1.0,1651085053787487.0
-3.0,0.0,-1.0,-3.0,-5.0,-3.0,4.0,9.0,1651085053787487.0
3.0,0.0,-1.0,-2.0,-9.0,-1.0,-6.0,-2.0,1651085053803080.0
-1.0,4.0,3.0,2.0,6.0,0.0,-5.0,0.0,1651085053803080.0
0.0,1.0,1.0,-2.0,0.0,0.0,1.0,3.0,1651085053805042.0
0.0,-6.0,-15.0,0.0,7.0,1.0,-2.0,-5.0,1651085053805042.0
-1.0,1.0,5.0,-2.0,-4.0,-1.0,0.0,-1.0,1651085053826179.0
-1.0,-2.0,-4.0,0.0,-2.0,-2.0,-1.0,-7.0,1651085053826179.0
-3.0,2.0,3.0,-1.0,-2.0,5.0,6.0,4.0,1651085053828033.0
0.0,-2.0,1.0,0.0,-6.0,-8.0,-6.0,2.0,1651085053828033.0
-1.0,2.0,-1.0,1.0,1.0,1.0,0.0,-2.0,1651085053840206.0
-1.0,-2.0,-4.0,-5.0,-4.0,-4.0,-2.0,-3.0,1651085053840206.0
0.0,-1.0,-1.0,3.0,4.0,2.0,1.0,-2.0,1651085053847729.0
-2.0,3.0,1.0,-2.0,-4.0,0.0,-3.0,-5.0,1651085053847729.0
0.0,2.0,1.0,3.0,7.0,-1.0,2.0,3.0,1651085053863366.0
-2.0,-7.0,-17.0,-5.0,-2.0,1.0,0.0,-2.0,1651085053863366.0
-2.0,0.0,2.0,0.0,-5.0,-3.0,-5.0,-2.0,1651085053865216.0
1.0,-2.0,4.0,0.0,1.0,0.0,1.0,0.0,1651085053865216.0
2.0,2.0,-2.0,-4.0,-3.0,-1.0,0.0,-2.0,1651085053886515.0
-1.0,-2.0,2.0,1.0,-1.0,0.0,0.0,0.0,1651085053886515.0
0.0,1.0,-2.0,-1.0,-2.0,-1.0,-2.0,1.0,1651085053887515.0
0.0,0.0,1.0,0.0,-2.0,0.0,-1.0,-2.0,1651085053887515.0
-2.0,-3.0,-2.0,-3.0,-7.0,-3.0,-4.0,-2.0,1651085053901395.0
1.0,2.0,-1.0,3.0,2.0,3.0,6.0,4.0,1651085053901395.0
1.0,-1.0,0.0,1.0,1.0,-1.0,-2.0,0.0,1651085053907365.0
0.0,0.0,3.0,-3.0,3.0,0.0,1.0,-11.0,1651085053907365.0
-2.0,-1.0,-3.0,2.0,-2.0,1.0,0.0,10.0,1651085053924096.0
-1.0,1.0,2.0,-2.0,-2.0,-1.0,-2.0,0.0,1651085053924096.0
-2.0,-1.0,0.0,-3.0,-4.0,-2.0,-1.0,-2.0,1651085053925060.0
0.0,-2.0,-5.0,-4.0,-6.0,-2.0,-1.0,-3.0,1651085053925060.0
-3.0,0.0,1.0,-3.0,-3.0,-1.0,-2.0,-5.0,1651085053946607.0
0.0,0.0,1.0,2.0,1.0,1.0,1.0,1.0,1651085053946607.0
-1.0,1.0,1.0,1.0,4.0,3.0,0.0,5.0,1651085053947474.0
-2.0,-1.0,0.0,3.0,5.0,0.0,-2.0,-6.0,1651085053947474.0
1.0,-2.0,-1.0,-6.0,-7.0,1.0,12.0,10.0,1651085053960599.0
-1.0,-1.0,3.0,3.0,0.0,-6.0,-19.0,-3.0,1651085053960599.0
-1.0,-3.0,-2.0,-2.0,-2.0,-2.0,-2.0,-2.0,1651085053969171.0
-2.0,0.0,0.0,-3.0,-6.0,-2.0,1.0,1.0,1651085053969171.0
-1.0,4.0,1.0,-2.0,-6.0,-1.0,-1.0,-5.0,1651085053984344.0
2.0,-5.0,-9.0,5.0,15.0,6.0,6.0,2.0,1651085053984344.0
-1.0,3.0,0.0,1.0,-2.0,3.0,-2.0,-2.0,1651085053985262.0
-1.0,-2.0,10.0,-8.0,-9.0,-5.0,-2.0,0.0,1651085053985262.0
0.0,2.0,-1.0,-3.0,8.0,6.0,0.0,-2.0,1651085054006229.0
-1.0,-1.0,-3.0,-1.0,-5.0,-3.0,6.0,-1.0,1651085054006229.0
0.0,1.0,1.0,12.0,22.0,4.0,-6.0,-6.0,1651085054007227.0
3.0,-1.0,-1.0,0.0,-4.0,-1.0,-2.0,2.0,1651085054007227.0
-1.0,0.0,1.0,0.0,-2.0,-4.0,1.0,0.0,1651085054020355.0
-3.0,-5.0,2.0,-3.0,-1.0,3.0,0.0,1.0,1651085054020355.0
0.0,2.0,-3.0,-3.0,-7.0,-4.0,1.0,-4.0,1651085054029232.0
-1.0,0.0,-1.0,0.0,3.0,1.0,1.0,2.0,1651085054029232.0
-1.0,0.0,-4.0,-4.0,-5.0,-3.0,-5.0,-3.0,1651085054044384.0
1.0,0.0,0.0,0.0,-4.0,-3.0,-1.0,-4.0,1651085054044384.0
-2.0,-4.0,-1.0,-3.0,-6.0,-4.0,0.0,1.0,1651085054045232.0
1.0,-3.0,-2.0,0.0,5.0,5.0,-1.0,0.0,1651085054045232.0
-1.0,-1.0,-3.0,-3.0,-1.0,-1.0,0.0,1.0,1651085054066597.0
2.0,1.0,1.0,-1.0,-5.0,-3.0,-2.0,1.0,1651085054066597.0
0.0,-2.0,2.0,-1.0,-1.0,0.0,1.0,1.0,1651085054067450.0
0.0,1.0,-2.0,0.0,3.0,-1.0,1.0,1.0,1651085054067450.0
0.0,-2.0,-1.0,2.0,3.0,1.0,-1.0,-3.0,1651085054079418.0
-2.0,-2.0,2.0,-4.0,-3.0,-2.0,-1.0,0.0,1651085054079418.0
0.0,-2.0,-2.0,-6.0,-4.0,-2.0,-2.0,-1.0,1651085054089074.0
-1.0,0.0,-3.0,0.0,1.0,-2.0,1.0,0.0,1651085054089074.0
-1.0,0.0,2.0,-1.0,0.0,3.0,-2.0,-1.0,1651085054104281.0
0.0,2.0,1.0,2.0,-1.0,-2.0,-1.0,2.0,1651085054104281.0
1.0,0.0,-2.0,-2.0,-3.0,-2.0,0.0,1.0,1651085054105245.0
0.0,-1.0,-2.0,1.0,0.0,0.0,0.0,1.0,1651085054105245.0
0.0,-1.0,2.0,-1.0,-1.0,-3.0,-1.0,-1.0,1651085054126207.0
0.0,1.0,7.0,0.0,-3.0,-1.0,0.0,0.0,1651085054126207.0
0.0,-4.0,1.0,2.0,-1.0,-1.0,1.0,-1.0,1651085054128085.0
0.0,-1.0,-20.0,-5.0,1.0,4.0,0.0,1.0,1651085054128085.0
-1.0,-2.0,-3.0,2.0,-4.0,-3.0,-2.0,-1.0,1651085054140213.0
-1.0,-1.0,-19.0,-8.0,-3.0,-1.0,-1.0,-3.0,1651085054140213.0
-2.0,0.0,11.0,10.0,2.0,2.0,0.0,-2.0,1651085054149102.0
-1.0,0.0,12.0,2.0,1.0,-1.0,0.0,1.0,1651085054149102.0
-1.0,-1.0,-6.0,-4.0,-3.0,-1.0,-2.0,-1.0,1651085054164332.0
0.0,1.0,1.0,0.0,1.0,0.0,-1.0,-1.0,1651085054164332.0
0.0,-1.0,-14.0,-3.0,5.0,5.0,0.0,1.0,1651085054165190.0
-1.0,-1.0,-1.0,-1.0,-2.0,0.0,-1.0,0.0,1651085054165190.0
-2.0,1.0,4.0,0.0,0.0,-2.0,-1.0,0.0,1651085054186783.0
2.0,2.0,7.0,0.0,-3.0,-3.0,1.0,0.0,1651085054186783.0
0.0,-1.0,-11.0,-7.0,-7.0,-5.0,-1.0,-1.0,1651085054187625.0
-1.0,-1.0,6.0,1.0,2.0,-1.0,0.0,0.0,1651085054187625.0
1.0,0.0,0.0,1.0,2.0,4.0,0.0,-1.0,1651085054200387.0
0.0,2.0,4.0,-1.0,0.0,-1.0,-2.0,1.0,1651085054200387.0
-1.0,-1.0,8.0,0.0,-1.0,-1.0,-1.0,0.0,1651085054209072.0
0.0,0.0,-1.0,4.0,-1.0,-1.0,0.0,-1.0,1651085054209072.0
-2.0,-4.0,1.0,-5.0,-4.0,-1.0,0.0,-1.0,1651085054224098.0
-2.0,0.0,0.0,2.0,3.0,2.0,0.0,-1.0,1651085054224098.0
-1.0,0.0,4.0,-1.0,-3.0,-1.0,-1.0,1.0,1651085054225062.0
1.0,0.0,-4.0,-1.0,-1.0,-1.0,-2.0,-1.0,1651085054225062.0
-1.0,-2.0,-4.0,1.0,2.0,-3.0,0.0,0.0,1651085054246460.0
0.0,-1.0,3.0,5.0,2.0,5.0,2.0,0.0,1651085054246460.0
-1.0,0.0,-4.0,-3.0,-2.0,-3.0,0.0,0.0,1651085054247460.0
1.0,-1.0,5.0,0.0,-3.0,-1.0,0.0,-1.0,1651085054247460.0
1.0,-1.0,-1.0,-2.0,-1.0,-2.0,-2.0,0.0,1651085054260381.0
-2.0,-3.0,-4.0,-3.0,-3.0,-3.0,0.0,0.0,1651085054260381.0
1.0,0.0,-1.0,-1.0,0.0,1.0,-1.0,-1.0,1651085054269345.0
-2.0,-1.0,0.0,-3.0,-1.0,-1.0,0.0,1.0,1651085054269345.0
0.0,-1.0,-2.0,-1.0,1.0,0.0,1.0,-1.0,1651085054284381.0
0.0,0.0,-5.0,0.0,0.0,-1.0,0.0,1.0,1651085054284381.0
0.0,0.0,3.0,-1.0,-1.0,1.0,0.0,-1.0,1651085054285220.0
-1.0,-1.0,0.0,0.0,-1.0,-1.0,-1.0,1.0,1651085054285220.0
-1.0,-1.0,-1.0,-2.0,-1.0,-2.0,-1.0,0.0,1651085054306219.0
-2.0,-1.0,3.0,2.0,2.0,0.0,-1.0,-1.0,1651085054306219.0
-3.0,-3.0,1.0,2.0,4.0,3.0,2.0,1.0,1651085054308244.0
-1.0,0.0,-3.0,-4.0,-2.0,-2.0,-1.0,-2.0,1651085054308244.0
-1.0,0.0,-1.0,0.0,-2.0,0.0,0.0,0.0,1651085054320328.0
-1.0,1.0,-2.0,-2.0,-2.0,-1.0,0.0,1.0,1651085054320328.0
1.0,0.0,-2.0,-3.0,-3.0,-1.0,-3.0,-1.0,1651085054328395.0
0.0,-1.0,-1.0,-2.0,-3.0,-4.0,-1.0,-1.0,1651085054328395.0
-1.0,-1.0,2.0,2.0,2.0,4.0,0.0,0.0,1651085054344407.0
-2.0,-2.0,-1.0,-1.0,0.0,-2.0,1.0,-1.0,1651085054344407.0
1.0,1.0,1.0,-2.0,-1.0,-2.0,-1.0,0.0,1651085054345239.0
0.0,-1.0,1.0,1.0,1.0,1.0,1.0,0.0,1651085054345239.0
-1.0,-2.0,-1.0,-1.0,-1.0,-3.0,0.0,-1.0,1651085054367123.0
0.0,0.0,0.0,-1.0,-2.0,-2.0,-1.0,0.0,1651085054367123.0
0.0,-1.0,-3.0,-3.0,-3.0,-2.0,0.0,-1.0,1651085054367992.0
-1.0,-1.0,-1.0,1.0,0.0,1.0,-1.0,1.0,1651085054367992.0
-1.0,-1.0,-2.0,-2.0,-2.0,-2.0,-1.0,-1.0,1651085054380066.0
-2.0,-1.0,-1.0,2.0,-1.0,0.0,0.0,0.0,1651085054380066.0
-1.0,1.0,2.0,1.0,2.0,0.0,1.0,-1.0,1651085054388902.0
-1.0,0.0,0.0,0.0,2.0,0.0,-2.0,0.0,1651085054388902.0
0.0,0.0,-1.0,-2.0,-1.0,-2.0,-1.0,-1.0,1651085054404270.0
0.0,-2.0,-1.0,-1.0,-1.0,-1.0,-2.0,-1.0,1651085054404270.0
0.0,0.0,-4.0,-3.0,-4.0,-3.0,-1.0,1.0,1651085054405266.0
0.0,-2.0,-1.0,0.0,-1.0,0.0,0.0,-2.0,1651085054405266.0
-1.0,0.0,-1.0,2.0,1.0,0.0,-1.0,0.0,1651085054426596.0
0.0,1.0,0.0,-1.0,-3.0,-1.0,-2.0,-1.0,1651085054426596.0
-2.0,-1.0,-1.0,-1.0,1.0,0.0,0.0,-2.0,1651085054427433.0
0.0,-1.0,-1.0,0.0,3.0,0.0,0.0,0.0,1651085054427433.0
1.0,0.0,0.0,0.0,-3.0,-1.0,0.0,-2.0,1651085054449240.0
-3.0,-1.0,0.0,0.0,0.0,0.0,0.0,-1.0,1651085054449240.0
0.0,-1.0,-2.0,-2.0,-1.0,0.0,1.0,1.0,1651085054450272.0
0.0,0.0,0.0,-3.0,-2.0,-1.0,0.0,-1.0,1651085054450272.0
-1.0,-2.0,0.0,1.0,-2.0,-2.0,0.0,0.0,1651085054464548.0
1.0,-1.0,-1.0,-1.0,1.0,2.0,-2.0,0.0,1651085054464548.0
-1.0,-1.0,-1.0,0.0,-2.0,-2.0,-2.0,-1.0,1651085054465450.0
0.0,0.0,-1.0,-1.0,1.0,-1.0,1.0,0.0,1651085054465450.0
-1.0,-1.0,-1.0,-1.0,1.0,0.0,1.0,0.0,1651085054486412.0
0.0,0.0,0.0,2.0,-1.0,0.0,0.0,-1.0,1651085054486412.0
0.0,-1.0,-2.0,0.0,0.0,0.0,-1.0,0.0,1651085054487413.0
0.0,0.0,-1.0,-1.0,-3.0,-1.0,-1.0,-1.0,1651085054487413.0
-2.0,0.0,-1.0,0.0,-2.0,-1.0,-2.0,0.0,1651085054509244.0
-1.0,0.0,-1.0,-2.0,-3.0,-3.0,-1.0,1.0,1651085054509244.0
0.0,-1.0,0.0,1.0,1.0,0.0,-1.0,-2.0,1651085054510244.0
-2.0,0.0,1.0,1.0,2.0,2.0,1.0,-1.0,1651085054510244.0
0.0,0.0,0.0,-1.0,-1.0,-1.0,0.0,-2.0,1651085054523063.0
1.0,-2.0,-2.0,0.0,0.0,0.0,0.0,-1.0,1651085054523063.0
0.0,-1.0,-1.0,-1.0,-3.0,-2.0,-2.0,-1.0,1651085054530178.0
-1.0,0.0,-1.0,-1.0,2.0,-1.0,-2.0,0.0,1651085054530178.0
-3.0,0.0,0.0,-1.0,0.0,1.0,0.0,-1.0,1651085054547363.0
0.0,-2.0,0.0,-1.0,1.0,0.0,0.0,-1.0,1651085054547363.0
-2.0,1.0,1.0,0.0,-3.0,0.0,0.0,-2.0,1651085054548214.0
-1.0,-3.0,0.0,-1.0,-1.0,-1.0,0.0,1.0,1651085054548214.0
2.0,1.0,-1.0,-2.0,1.0,-2.0,-1.0,0.0,1651085054569219.0
0.0,-1.0,-4.0,-2.0,-3.0,-2.0,1.0,0.0,1651085054569219.0
0.0,0.0,-1.0,-1.0,3.0,2.0,0.0,0.0,1651085054570220.0
-2.0,0.0,1.0,0.0,2.0,1.0,2.0,0.0,1651085054570220.0
-1.0,0.0,-2.0,-1.0,-2.0,-1.0,-1.0,-1.0,1651085054584332.0
-1.0,0.0,-1.0,-3.0,-2.0,-1.0,-2.0,1.0,1651085054584332.0
1.0,-1.0,-1.0,-1.0,-3.0,-1.0,0.0,-1.0,1651085054590166.0
-1.0,-1.0,0.0,2.0,1.0,-1.0,1.0,-3.0,1651085054590166.0
1.0,-2.0,-1.0,-1.0,0.0,-1.0,0.0,0.0,1651085054606224.0
-1.0,0.0,1.0,-1.0,-4.0,-1.0,0.0,-1.0,1651085054606224.0
-1.0,0.0,-1.0,-1.0,-1.0,-2.0,1.0,1.0,1651085054607220.0
0.0,0.0,-1.0,-1.0,-4.0,-2.0,-2.0,0.0,1651085054607220.0
0.0,-1.0,0.0,2.0,0.0,3.0,-1.0,0.0,1651085054628213.0
-4.0,-1.0,0.0,1.0,4.0,2.0,1.0,-1.0,1651085054628213.0
0.0,0.0,-1.0,-1.0,-2.0,-1.0,1.0,0.0,1651085054630049.0
0.0,0.0,-3.0,-3.0,-1.0,0.0,-2.0,-1.0,1651085054630049.0
1.0,0.0,-1.0,-1.0,-2.0,-1.0,0.0,0.0,1651085054652205.0
-1.0,0.0,-1.0,1.0,-2.0,-2.0,0.0,-2.0,1651085054652205.0
-1.0,-1.0,-1.0,-2.0,3.0,4.0,0.0,0.0,1651085054652205.0
-1.0,0.0,-1.0,0.0,-1.0,-3.0,-1.0,-2.0,1651085054652205.0
-1.0,0.0,-1.0,-1.0,-1.0,0.0,0.0,1.0,1651085054666497.0
0.0,0.0,-1.0,-1.0,-1.0,-3.0,0.0,-1.0,1651085054666497.0
0.0,-2.0,0.0,0.0,-1.0,-2.0,1.0,-1.0,1651085054667497.0
0.0,-2.0,-1.0,1.0,-1.0,0.0,-2.0,-1.0,1651085054667497.0
-1.0,0.0,-1.0,-1.0,1.0,-1.0,-1.0,-1.0,1651085054689210.0
-1.0,-1.0,0.0,1.0,1.0,-1.0,-2.0,-1.0,1651085054689210.0
-1.0,0.0,-3.0,-1.0,-4.0,-3.0,-1.0,0.0,1651085054690212.0
-1.0,-2.0,0.0,-2.0,0.0,-3.0,-2.0,-2.0,1651085054690212.0
-1.0,-1.0,1.0,3.0,2.0,0.0,1.0,-1.0,1651085054703219.0
0.0,0.0,-1.0,-3.0,1.0,1.0,0.0,0.0,1651085054703219.0
0.0,-1.0,-1.0,0.0,0.0,-1.0,-2.0,-1.0,1651085054711417.0
1.0,0.0,-2.0,-1.0,-2.0,1.0,1.0,-1.0,1651085054711417.0
-1.0,-1.0,-1.0,-1.0,-2.0,0.0,-3.0,-1.0,1651085054726201.0
0.0,0.0,1.0,-1.0,0.0,0.0,-2.0,0.0,1651085054726201.0
-1.0,-1.0,1.0,-2.0,-2.0,-1.0,-2.0,0.0,1651085054728084.0
-1.0,0.0,-1.0,0.0,-1.0,-3.0,-1.0,2.0,1651085054728084.0
-1.0,1.0,0.0,-2.0,1.0,-2.0,-1.0,-1.0,1651085054749198.0
1.0,-2.0,-2.0,0.0,-2.0,-1.0,1.0,-1.0,1651085054749198.0
-1.0,-1.0,1.0,-2.0,0.0,-2.0,1.0,-1.0,1651085054750198.0
-2.0,0.0,0.0,-1.0,1.0,3.0,0.0,1.0,1651085054750198.0
0.0,-1.0,-1.0,-2.0,0.0,-5.0,-1.0,0.0,1651085054763359.0
-1.0,0.0,1.0,2.0,3.0,1.0,0.0,0.0,1651085054763359.0
-1.0,-1.0,0.0,-2.0,-4.0,-3.0,-1.0,0.0,1651085054770620.0
0.0,0.0,-1.0,-3.0,-4.0,-1.0,-2.0,0.0,1651085054770620.0
-1.0,-2.0,-1.0,-2.0,-3.0,0.0,-1.0,0.0,1651085054786259.0
1.0,0.0,0.0,-1.0,0.0,0.0,0.0,0.0,1651085054786259.0
0.0,-2.0,-2.0,0.0,2.0,-1.0,-1.0,1.0,1651085054787118.0
-1.0,-1.0,-2.0,-3.0,-1.0,-3.0,0.0,-2.0,1651085054787118.0
-2.0,-1.0,-2.0,-2.0,0.0,0.0,0.0,2.0,1651085054809118.0
-2.0,-1.0,-1.0,-1.0,1.0,-1.0,0.0,-1.0,1651085054809118.0
-1.0,1.0,-1.0,1.0,1.0,2.0,-1.0,-1.0,1651085054810118.0
0.0,1.0,-1.0,1.0,1.0,-1.0,0.0,0.0,1651085054810118.0
-1.0,0.0,-1.0,0.0,-2.0,-2.0,-2.0,-1.0,1651085054823060.0
-1.0,-1.0,0.0,-3.0,-2.0,-1.0,-2.0,1.0,1651085054823060.0
-1.0,0.0,-1.0,0.0,0.0,-1.0,-2.0,-1.0,1651085054830162.0
0.0,-2.0,0.0,1.0,0.0,0.0,-1.0,-2.0,1651085054830162.0
-1.0,-1.0,1.0,0.0,-1.0,1.0,0.0,0.0,1651085054846491.0
-1.0,0.0,-2.0,-1.0,0.0,0.0,1.0,-1.0,1651085054846491.0
1.0,0.0,-3.0,-2.0,-2.0,-1.0,-1.0,0.0,1651085054847491.0
0.0,-1.0,0.0,1.0,0.0,-1.0,0.0,-2.0,1651085054847491.0
0.0,-1.0,-1.0,-4.0,-1.0,-2.0,0.0,0.0,1651085054869130.0
0.0,-1.0,-1.0,0.0,-2.0,-2.0,-2.0,-4.0,1651085054869130.0
-1.0,0.0,1.0,2.0,4.0,-1.0,1.0,-1.0,1651085054870131.0
-1.0,0.0,-1.0,0.0,3.0,4.0,1.0,1.0,1651085054870131.0
0.0,-3.0,0.0,-1.0,-2.0,-3.0,0.0,0.0,1651085054883169.0
1.0,-1.0,0.0,-3.0,-2.0,-3.0,-1.0,1.0,1651085054883169.0
-1.0,-1.0,-2.0,1.0,-2.0,-2.0,0.0,-2.0,1651085054889223.0
0.0,-1.0,0.0,0.0,0.0,0.0,-1.0,0.0,1651085054889223.0
0.0,0.0,1.0,1.0,-1.0,-1.0,-3.0,-1.0,1651085054906176.0
0.0,0.0,-1.0,1.0,-1.0,-1.0,0.0,0.0,1651085054906176.0
-2.0,-1.0,0.0,-1.0,0.0,1.0,-1.0,-1.0,1651085054907204.0
0.0,0.0,-1.0,1.0,0.0,2.0,-1.0,0.0,1651085054907204.0
0.0,0.0,-4.0,0.0,1.0,2.0,2.0,-1.0,1651085054929049.0
0.0,-1.0,-1.0,-3.0,-4.0,-1.0,-1.0,-1.0,1651085054929049.0
-2.0,-1.0,0.0,0.0,-2.0,-2.0,-2.0,0.0,1651085054930047.0
-1.0,0.0,1.0,0.0,1.0,-1.0,0.0,-1.0,1651085054930047.0
-1.0,-1.0,0.0,0.0,-1.0,1.0,0.0,0.0,1651085054942136.0
-2.0,-1.0,-1.0,1.0,2.0,1.0,0.0,0.0,1651085054942136.0
0.0,-1.0,0.0,1.0,2.0,-1.0,2.0,2.0,1651085054951023.0
-1.0,-2.0,-1.0,-4.0,-4.0,-2.0,-2.0,-2.0,1651085054951023.0
0.0,-1.0,0.0,-1.0,-1.0,-2.0,0.0,0.0,1651085054966579.0
0.0,0.0,0.0,1.0,2.0,0.0,1.0,-1.0,1651085054966579.0
-1.0,0.0,-2.0,-1.0,-1.0,-1.0,-1.0,-2.0,1651085054967600.0
-1.0,-1.0,0.0,0.0,-1.0,-2.0,-1.0,-1.0,1651085054967600.0
1.0,0.0,-1.0,1.0,-4.0,-1.0,0.0,-1.0,1651085054989002.0
-1.0,-1.0,0.0,0.0,-1.0,-1.0,-2.0,-1.0,1651085054989002.0
1.0,-3.0,0.0,-1.0,0.0,0.0,0.0,1.0,1651085054990004.0
0.0,0.0,0.0,-1.0,-1.0,-1.0,-1.0,-1.0,1651085054990004.0
0.0,-1.0,-1.0,-1.0,0.0,0.0,0.0,-2.0,1651085055002732.0
0.0,0.0,1.0,-1.0,-1.0,0.0,0.0,0.0,1651085055002732.0
0.0,-1.0,-3.0,-1.0,-2.0,-2.0,-3.0,-2.0,1651085055011099.0
-1.0,-1.0,1.0,-2.0,-1.0,-1.0,-1.0,-1.0,1651085055011099.0
0.0,-1.0,1.0,-2.0,0.0,1.0,0.0,1.0,1651085055026175.0
0.0,-2.0,-3.0,-1.0,1.0,-1.0,-2.0,0.0,1651085055026175.0
-1.0,2.0,1.0,0.0,-2.0,-1.0,-1.0,-1.0,1651085055028085.0
-1.0,-1.0,-1.0,-3.0,-2.0,-2.0,-1.0,1.0,1651085055028085.0
-1.0,-1.0,1.0,0.0,0.0,0.0,0.0,0.0,1651085055048294.0
-2.0,-1.0,0.0,0.0,0.0,2.0,1.0,-1.0,1651085055048294.0
-1.0,-2.0,-2.0,-2.0,-2.0,-1.0,-2.0,-1.0,1651085055050169.0
0.0,0.0,0.0,0.0,-2.0,-2.0,0.0,1.0,1651085055050169.0
-1.0,1.0,-1.0,0.0,-1.0,1.0,-1.0,-2.0,1651085055062525.0
-1.0,-1.0,-1.0,-1.0,1.0,2.0,-1.0,0.0,1651085055062525.0
-1.0,-2.0,1.0,0.0,2.0,3.0,0.0,-1.0,1651085055071401.0
-2.0,0.0,0.0,2.0,1.0,2.0,1.0,-1.0,1651085055071401.0
0.0,1.0,-1.0,0.0,0.0,-4.0,-1.0,-1.0,1651085055086340.0
0.0,-3.0,-3.0,-1.0,-5.0,-3.0,-1.0,0.0,1651085055086340.0
1.0,0.0,-2.0,-2.0,-3.0,-2.0,-2.0,-1.0,1651085055087228.0
-1.0,0.0,0.0,1.0,1.0,2.0,-2.0,-1.0,1651085055087228.0
-1.0,-1.0,0.0,2.0,3.0,2.0,3.0,0.0,1651085055108178.0
-1.0,1.0,-1.0,-1.0,-1.0,-1.0,-3.0,-1.0,1651085055108178.0
-2.0,0.0,0.0,-1.0,-2.0,-1.0,1.0,0.0,1651085055110132.0
0.0,-2.0,-1.0,-1.0,-2.0,-2.0,-1.0,-2.0,1651085055110132.0
1.0,-3.0,0.0,1.0,-1.0,-2.0,-1.0,0.0,1651085055122496.0
1.0,1.0,0.0,0.0,1.0,-2.0,0.0,1.0,1651085055122496.0
0.0,-2.0,1.0,-2.0,-4.0,-1.0,-2.0,0.0,1651085055139072.0
-1.0,0.0,0.0,0.0,1.0,-2.0,-1.0,-1.0,1651085055139072.0
-3.0,-1.0,1.0,1.0,4.0,3.0,0.0,-1.0,1651085055146055.0
-1.0,-2.0,-1.0,1.0,0.0,-1.0,0.0,-2.0,1651085055146055.0
-1.0,1.0,0.0,-1.0,0.0,-2.0,1.0,0.0,1651085055148074.0
0.0,-1.0,-2.0,-1.0,-4.0,-2.0,-1.0,0.0,1651085055148074.0
1.0,0.0,-1.0,-2.0,-1.0,-2.0,-2.0,-1.0,1651085055169246.0
-1.0,-1.0,-2.0,0.0,-2.0,0.0,-1.0,-2.0,1651085055169246.0
-2.0,1.0,0.0,1.0,1.0,0.0,-1.0,-1.0,1651085055170277.0
0.0,-1.0,-2.0,-1.0,-2.0,-3.0,0.0,-1.0,1651085055170277.0
0.0,-1.0,-1.0,-2.0,-4.0,-4.0,-2.0,-1.0,1651085055182375.0
0.0,0.0,2.0,2.0,4.0,2.0,2.0,2.0,1651085055182375.0
1.0,-2.0,1.0,-1.0,-2.0,0.0,1.0,0.0,1651085055191630.0
-1.0,-2.0,-1.0,0.0,4.0,2.0,1.0,1.0,1651085055191630.0
-1.0,-2.0,-1.0,0.0,1.0,0.0,-1.0,-2.0,1651085055206214.0
0.0,-1.0,-1.0,-1.0,-2.0,-2.0,-1.0,-1.0,1651085055206214.0
0.0,0.0,-1.0,-1.0,0.0,1.0,0.0,-1.0,1651085055207255.0
1.0,0.0,0.0,0.0,-2.0,-2.0,0.0,1.0,1651085055207255.0
0.0,0.0,-2.0,-2.0,-4.0,-2.0,-1.0,-1.0,1651085055228217.0
-2.0,-1.0,-2.0,-2.0,0.0,0.0,0.0,0.0,1651085055228217.0
1.0,-1.0,0.0,0.0,1.0,1.0,0.0,-1.0,1651085055230046.0
-1.0,0.0,-2.0,1.0,2.0,0.0,0.0,-1.0,1651085055230046.0
-1.0,-2.0,0.0,0.0,-1.0,0.0,0.0,-1.0,1651085055243171.0
-1.0,-1.0,-1.0,0.0,-1.0,-1.0,0.0,0.0,1651085055243171.0
0.0,-2.0,-1.0,-1.0,-2.0,0.0,-1.0,-1.0,1651085055251381.0
0.0,0.0,-2.0,0.0,-2.0,-1.0,0.0,-1.0,1651085055251381.0
0.0,0.0,-3.0,-3.0,-2.0,0.0,-3.0,0.0,1651085055266759.0
1.0,0.0,1.0,0.0,1.0,-1.0,-1.0,-2.0,1651085055266759.0
-1.0,1.0,-1.0,1.0,2.0,1.0,0.0,0.0,1651085055267600.0
1.0,-1.0,-1.0,-2.0,0.0,0.0,-1.0,-1.0,1651085055267600.0
0.0,0.0,-1.0,0.0,-4.0,-3.0,0.0,1.0,1651085055288953.0
0.0,0.0,-1.0,-3.0,-2.0,-1.0,-1.0,-1.0,1651085055288953.0
0.0,-1.0,-1.0,1.0,4.0,2.0,0.0,-1.0,1651085055289956.0
-1.0,0.0,1.0,-1.0,0.0,0.0,2.0,1.0,1651085055289956.0
-1.0,-1.0,-2.0,-1.0,-1.0,2.0,0.0,2.0,1651085055302925.0
0.0,0.0,-1.0,-2.0,-5.0,-3.0,-1.0,-2.0,1651085055302925.0
-2.0,0.0,-2.0,1.0,-2.0,-2.0,-1.0,-2.0,1651085055311278.0
-3.0,-4.0,0.0,1.0,1.0,2.0,0.0,0.0,1651085055311278.0
0.0,-1.0,1.0,-1.0,0.0,-1.0,-1.0,-2.0,1651085055326219.0
0.0,0.0,1.0,0.0,0.0,1.0,-1.0,0.0,1651085055326219.0
0.0,-2.0,-1.0,-1.0,0.0,0.0,0.0,-2.0,1651085055328083.0
0.0,1.0,0.0,-3.0,-2.0,-2.0,-2.0,-1.0,1651085055328083.0
-2.0,-2.0,0.0,0.0,2.0,0.0,-1.0,0.0,1651085055349136.0
-3.0,-1.0,-2.0,2.0,1.0,3.0,0.0,0.0,1651085055349136.0
0.0,0.0,-1.0,-2.0,-2.0,-3.0,-1.0,0.0,1651085055355280.0
1.0,-2.0,2.0,0.0,0.0,-1.0,-1.0,-1.0,1651085055355280.0
0.0,-1.0,-1.0,0.0,1.0,1.0,2.0,-1.0,1651085055371473.0
1.0,0.0,-1.0,-3.0,-3.0,-1.0,0.0,0.0,1651085055371473.0
-1.0,-1.0,-1.0,-1.0,-1.0,-3.0,-1.0,1.0,1651085055372473.0
-1.0,-1.0,-1.0,-3.0,-6.0,-1.0,-1.0,0.0,1651085055372473.0
-2.0,0.0,1.0,-1.0,-1.0,-1.0,-2.0,0.0,1651085055386382.0
-1.0,-2.0,2.0,4.0,3.0,3.0,-1.0,-1.0,1651085055386382.0
0.0,0.0,-1.0,-5.0,-10.0,-6.0,0.0,1.0,1651085055387246.0
0.0,1.0,1.0,15.0,40.0,14.0,2.0,2.0,1651085055387246.0
-1.0,-3.0,-3.0,-10.0,-12.0,-4.0,-1.0,0.0,1651085055409245.0
0.0,-1.0,-1.0,7.0,8.0,0.0,0.0,0.0,1651085055409245.0
-1.0,0.0,-1.0,-1.0,1.0,-1.0,-1.0,-1.0,1651085055415384.0
-2.0,4.0,0.0,6.0,1.0,-4.0,-1.0,-2.0,1651085055415384.0
-1.0,-7.0,-2.0,1.0,1.0,6.0,2.0,-1.0,1651085055431405.0
1.0,2.0,0.0,-5.0,-2.0,0.0,-1.0,1.0,1651085055431405.0
-1.0,-1.0,-2.0,-3.0,-5.0,-2.0,0.0,0.0,1651085055432239.0
-1.0,-1.0,-2.0,-3.0,-10.0,-6.0,-2.0,0.0,1651085055432239.0
-1.0,2.0,-1.0,-5.0,-1.0,-2.0,1.0,-1.0,1651085055446475.0
-2.0,-2.0,-3.0,0.0,-8.0,-4.0,-2.0,-1.0,1651085055446475.0
-1.0,-1.0,0.0,3.0,9.0,4.0,2.0,0.0,1651085055447476.0
0.0,-1.0,-1.0,-9.0,-11.0,-2.0,1.0,0.0,1651085055447476.0
0.0,-1.0,0.0,8.0,3.0,-3.0,-4.0,-2.0,1651085055469232.0
-1.0,-1.0,-3.0,-11.0,-14.0,-8.0,-3.0,-1.0,1651085055469232.0
1.0,2.0,-1.0,-5.0,0.0,0.0,0.0,0.0,1651085055470263.0
-1.0,-1.0,1.0,17.0,36.0,10.0,1.0,-1.0,1651085055470263.0
1.0,1.0,6.0,13.0,16.0,12.0,3.0,1.0,1651085055491471.0
-1.0,-3.0,1.0,-1.0,-5.0,-6.0,0.0,-1.0,1651085055491471.0
-1.0,1.0,-3.0,-7.0,-11.0,-4.0,-2.0,0.0,1651085055492471.0
3.0,0.0,-4.0,-10.0,-17.0,2.0,0.0,1.0,1651085055492471.0
-4.0,0.0,-1.0,-3.0,-3.0,-7.0,-2.0,-2.0,1651085055505384.0
3.0,9.0,7.0,3.0,0.0,0.0,1.0,-2.0,1651085055505384.0
-2.0,-7.0,6.0,8.0,11.0,3.0,-2.0,-3.0,1651085055514256.0
0.0,-2.0,-8.0,-4.0,-2.0,-2.0,-2.0,-1.0,1651085055514256.0
2.0,4.0,1.0,-12.0,-15.0,-11.0,-3.0,-1.0,1651085055529675.0
-3.0,-7.0,-11.0,10.0,34.0,20.0,1.0,0.0,1651085055529675.0
0.0,6.0,-3.0,-4.0,-17.0,-8.0,-2.0,-3.0,1651085055530517.0
2.0,10.0,7.0,15.0,22.0,4.0,0.0,2.0,1651085055530517.0
-5.0,-7.0,1.0,6.0,5.0,6.0,1.0,-6.0,1651085055551404.0
0.0,-3.0,2.0,-6.0,-12.0,-13.0,-8.0,2.0,1651085055551404.0
1.0,2.0,-2.0,9.0,6.0,-1.0,0.0,0.0,1651085055557632.0
-3.0,-9.0,-5.0,-31.0,-26.0,-9.0,-1.0,7.0,1651085055557632.0
2.0,5.0,-4.0,-2.0,-3.0,-3.0,0.0,0.0,1651085055565022.0
0.0,2.0,0.0,-3.0,-10.0,-1.0,3.0,-3.0,1651085055565022.0
1.0,-16.0,2.0,-1.0,3.0,3.0,0.0,-4.0,1651085055574173.0
1.0,15.0,3.0,-2.0,-18.0,-7.0,-5.0,-11.0,1651085055574173.0
1.0,-4.0,-3.0,-12.0,-5.0,-1.0,-1.0,10.0,1651085055589189.0
-1.0,5.0,-4.0,-3.0,7.0,6.0,3.0,3.0,1651085055589189.0
0.0,-7.0,4.0,8.0,-6.0,3.0,4.0,1.0,1651085055590191.0
-8.0,-8.0,-2.0,11.0,10.0,-4.0,1.0,-8.0,1651085055590191.0
0.0,-15.0,-7.0,4.0,7.0,-8.0,-18.0,-8.0,1651085055611416.0
0.0,16.0,5.0,5.0,-3.0,-4.0,-1.0,9.0,1651085055611416.0
-2.0,5.0,-5.0,-10.0,-6.0,-1.0,6.0,2.0,1651085055612245.0
0.0,-6.0,1.0,-2.0,-4.0,4.0,6.0,4.0,1651085055612245.0
-2.0,0.0,0.0,-2.0,-1.0,7.0,5.0,-4.0,1651085055626211.0
-2.0,-8.0,-3.0,4.0,5.0,-4.0,-3.0,-1.0,1651085055626211.0
1.0,2.0,-4.0,-6.0,-3.0,-3.0,-2.0,0.0,1651085055633019.0
-1.0,-6.0,-1.0,-5.0,-12.0,-6.0,-7.0,-2.0,1651085055633019.0
-2.0,-5.0,-2.0,8.0,19.0,9.0,3.0,3.0,1651085055649239.0
-1.0,5.0,0.0,-11.0,-14.0,-5.0,-5.0,-8.0,1651085055649239.0
-1.0,7.0,12.0,-2.0,-3.0,0.0,1.0,1.0,1651085055650238.0
1.0,-6.0,-8.0,12.0,16.0,9.0,2.0,0.0,1651085055650238.0
3.0,5.0,9.0,-10.0,-19.0,-6.0,0.0,2.0,1651085055671472.0
-3.0,2.0,-11.0,-15.0,-14.0,-8.0,-1.0,-1.0,1651085055671472.0
-1.0,2.0,3.0,11.0,18.0,12.0,0.0,-2.0,1651085055672472.0
2.0,5.0,6.0,-4.0,-15.0,-8.0,-4.0,0.0,1651085055672472.0
-3.0,-10.0,-6.0,-11.0,-7.0,0.0,6.0,1.0,1651085055694384.0
2.0,2.0,3.0,12.0,9.0,5.0,1.0,-5.0,1651085055694384.0
-3.0,1.0,2.0,-8.0,-10.0,-8.0,-14.0,-6.0,1651085055695229.0
1.0,4.0,2.0,-10.0,-11.0,1.0,4.0,9.0,1651085055695229.0
-2.0,4.0,-7.0,8.0,15.0,2.0,2.0,-12.0,1651085055709238.0
0.0,-9.0,5.0,-2.0,-6.0,-8.0,-3.0,13.0,1651085055709238.0
0.0,-1.0,-6.0,0.0,-6.0,0.0,6.0,-6.0,1651085055710238.0
-1.0,-4.0,4.0,0.0,8.0,-2.0,-10.0,2.0,1651085055710238.0
-1.0,6.0,-4.0,-7.0,-13.0,-3.0,-1.0,1.0,1651085055731606.0
-1.0,-8.0,-2.0,3.0,0.0,5.0,2.0,-9.0,1651085055731606.0
-2.0,-4.0,-15.0,-3.0,2.0,-1.0,-1.0,0.0,1651085055732607.0
-1.0,4.0,-10.0,-7.0,-20.0,-7.0,-1.0,-5.0,1651085055732607.0
-1.0,-5.0,3.0,0.0,-4.0,-4.0,3.0,3.0,1651085055745370.0
-1.0,0.0,4.0,-4.0,3.0,1.0,-7.0,-4.0,1651085055745370.0
2.0,0.0,9.0,4.0,9.0,4.0,2.0,4.0,1651085055754390.0
3.0,3.0,9.0,6.0,-2.0,-1.0,1.0,0.0,1651085055754390.0
-4.0,12.0,-5.0,-5.0,3.0,-3.0,-6.0,-4.0,1651085055769160.0
1.0,-5.0,-27.0,8.0,5.0,3.0,4.0,-3.0,1651085055769160.0
-4.0,-3.0,18.0,8.0,-2.0,-3.0,-1.0,-1.0,1651085055770160.0
-1.0,-2.0,-2.0,-9.0,0.0,0.0,1.0,-1.0,1651085055770160.0
2.0,2.0,-10.0,5.0,-1.0,0.0,3.0,4.0,1651085055791244.0
-1.0,-5.0,13.0,-8.0,-4.0,-2.0,0.0,0.0,1651085055791244.0
-1.0,4.0,-18.0,-2.0,3.0,7.0,6.0,-2.0,1651085055792272.0
-2.0,-3.0,4.0,7.0,2.0,-6.0,-9.0,-5.0,1651085055792272.0
2.0,-1.0,11.0,3.0,-6.0,-3.0,-9.0,1.0,1651085055805401.0
0.0,1.0,-2.0,3.0,9.0,5.0,12.0,3.0,1651085055805401.0
2.0,-3.0,-2.0,-3.0,2.0,-1.0,-1.0,4.0,1651085055814572.0
-2.0,-1.0,-5.0,2.0,1.0,6.0,10.0,-1.0,1651085055814572.0
0.0,0.0,8.0,-6.0,-7.0,-1.0,0.0,-2.0,1651085055829244.0
-2.0,2.0,-5.0,9.0,2.0,5.0,14.0,1.0,1651085055829244.0
0.0,-7.0,19.0,-2.0,2.0,-10.0,-34.0,-3.0,1651085055830245.0
2.0,-1.0,-19.0,-4.0,-5.0,-3.0,-3.0,2.0,1651085055830245.0
-2.0,-8.0,6.0,1.0,-1.0,-4.0,-9.0,-3.0,1651085055851567.0
0.0,-2.0,11.0,5.0,1.0,2.0,6.0,1.0,1651085055851567.0
0.0,2.0,-1.0,1.0,1.0,3.0,9.0,1.0,1651085055852568.0
2.0,2.0,0.0,-4.0,0.0,-1.0,-1.0,-3.0,1651085055852568.0
-1.0,5.0,11.0,3.0,-2.0,-1.0,0.0,-1.0,1651085055864405.0
0.0,0.0,3.0,-1.0,5.0,1.0,-2.0,0.0,1651085055864405.0
-1.0,-3.0,-8.0,-3.0,3.0,3.0,5.0,2.0,1651085055873658.0
-1.0,-2.0,0.0,-2.0,-1.0,-2.0,-6.0,-2.0,1651085055873658.0
1.0,-1.0,-1.0,5.0,4.0,5.0,9.0,2.0,1651085055889243.0
1.0,1.0,4.0,1.0,-2.0,0.0,-3.0,-1.0,1651085055889243.0
-2.0,-2.0,-18.0,-15.0,-9.0,-8.0,-5.0,-1.0,1651085055890269.0
0.0,1.0,8.0,3.0,3.0,2.0,3.0,0.0,1651085055890269.0
-2.0,-4.0,-4.0,-4.0,-2.0,-4.0,-3.0,0.0,1651085055911443.0
-2.0,-1.0,0.0,2.0,2.0,2.0,-2.0,-4.0,1651085055911443.0
1.0,-1.0,2.0,3.0,3.0,4.0,2.0,0.0,1651085055912438.0
1.0,3.0,5.0,-1.0,-5.0,-4.0,2.0,3.0,1651085055912438.0
3.0,7.0,-15.0,-4.0,0.0,0.0,-4.0,4.0,1651085055925219.0
-2.0,-6.0,9.0,-4.0,-1.0,-5.0,-8.0,-11.0,1651085055925219.0
-1.0,0.0,2.0,4.0,-4.0,1.0,6.0,3.0,1651085055934033.0
-1.0,-2.0,8.0,1.0,3.0,2.0,2.0,-3.0,1651085055934033.0
-1.0,4.0,4.0,2.0,2.0,5.0,3.0,2.0,1651085055949223.0
-3.0,-6.0,-17.0,-16.0,-11.0,-7.0,-6.0,2.0,1651085055949223.0
0.0,-2.0,-5.0,1.0,4.0,3.0,1.0,-3.0,1651085055950247.0
-1.0,4.0,8.0,13.0,8.0,0.0,4.0,11.0,1651085055950247.0
1.0,-2.0,10.0,-8.0,-6.0,-4.0,-6.0,-10.0,1651085055971398.0
2.0,-2.0,-26.0,-4.0,-1.0,1.0,4.0,2.0,1651085055971398.0
-2.0,0.0,10.0,1.0,-13.0,-6.0,0.0,0.0,1651085055972265.0
-3.0,-10.0,-18.0,0.0,19.0,4.0,-5.0,-1.0,1651085055972265.0
0.0,0.0,4.0,4.0,2.0,-2.0,-2.0,-1.0,1651085055985393.0
-3.0,-3.0,-1.0,-4.0,-2.0,-3.0,0.0,-4.0,1651085055985393.0
4.0,2.0,-1.0,-5.0,-7.0,-2.0,0.0,3.0,1651085055994395.0
-1.0,2.0,4.0,3.0,5.0,5.0,4.0,-5.0,1651085055994395.0
-1.0,-2.0,-1.0,3.0,1.0,-2.0,0.0,1.0,1651085056008893.0
0.0,2.0,-17.0,-7.0,-2.0,-5.0,-2.0,0.0,1651085056008893.0
-1.0,-2.0,-22.0,-2.0,-2.0,-2.0,-6.0,-3.0,1651085056009765.0
-2.0,-6.0,2.0,2.0,-6.0,-1.0,9.0,-3.0,1651085056009765.0
-1.0,-3.0,-6.0,-7.0,-4.0,-4.0,0.0,11.0,1651085056031481.0
0.0,-5.0,8.0,5.0,1.0,4.0,0.0,2.0,1651085056031481.0
0.0,10.0,16.0,5.0,4.0,-5.0,-19.0,-5.0,1651085056032481.0
-1.0,-2.0,-12.0,-14.0,-7.0,0.0,3.0,-1.0,1651085056032481.0
-3.0,-1.0,-12.0,11.0,8.0,5.0,12.0,-8.0,1651085056044381.0
4.0,7.0,16.0,3.0,-2.0,-7.0,-14.0,12.0,1651085056044381.0
-1.0,6.0,0.0,6.0,5.0,1.0,4.0,-1.0,1651085056054401.0
-3.0,-7.0,-8.0,-11.0,-5.0,-2.0,-9.0,-7.0,1651085056054401.0
1.0,2.0,2.0,0.0,-1.0,2.0,6.0,-4.0,1651085056069140.0
-2.0,-2.0,9.0,3.0,-3.0,1.0,2.0,-5.0,1651085056069140.0
1.0,-1.0,-9.0,-8.0,0.0,0.0,6.0,6.0,1651085056070141.0
-3.0,0.0,-10.0,-6.0,-6.0,0.0,1.0,0.0,1651085056070141.0
-1.0,-3.0,4.0,4.0,-1.0,0.0,-1.0,0.0,1651085056091627.0
0.0,4.0,-6.0,-4.0,1.0,2.0,-1.0,-3.0,1651085056091627.0
-1.0,-7.0,13.0,5.0,8.0,4.0,0.0,0.0,1651085056092628.0
0.0,5.0,-2.0,7.0,-2.0,-5.0,1.0,-1.0,1651085056092628.0
3.0,2.0,-13.0,-7.0,-8.0,-3.0,-9.0,0.0,1651085056105388.0
-2.0,-8.0,18.0,11.0,14.0,5.0,-3.0,-2.0,1651085056105388.0
-2.0,-12.0,-40.0,-19.0,-14.0,-2.0,5.0,-2.0,1651085056114575.0
0.0,-3.0,9.0,2.0,6.0,3.0,-4.0,4.0,1651085056114575.0
-3.0,7.0,4.0,11.0,0.0,-2.0,6.0,-9.0,1651085056128930.0
5.0,10.0,3.0,-7.0,-5.0,-2.0,1.0,9.0,1651085056128930.0
-4.0,-10.0,5.0,-1.0,1.0,1.0,5.0,-1.0,1651085056129822.0
-2.0,-2.0,-5.0,-7.0,-10.0,-1.0,1.0,0.0,1651085056129822.0
-1.0,-1.0,4.0,4.0,4.0,2.0,-10.0,-19.0,1651085056151514.0
2.0,3.0,8.0,6.0,2.0,-2.0,-3.0,9.0,1651085056151514.0
-2.0,4.0,-1.0,1.0,2.0,0.0,0.0,0.0,1651085056152515.0
3.0,2.0,5.0,0.0,-6.0,-5.0,-9.0,-5.0,1651085056152515.0
-3.0,-6.0,10.0,5.0,0.0,3.0,7.0,5.0,1651085056165375.0
-5.0,-5.0,-5.0,-2.0,-3.0,-1.0,4.0,-5.0,1651085056165375.0
-1.0,1.0,-19.0,-7.0,-2.0,-5.0,-5.0,-1.0,1651085056173637.0
-1.0,-4.0,-1.0,7.0,5.0,3.0,4.0,4.0,1651085056173637.0
-1.0,-2.0,-11.0,-10.0,6.0,4.0,0.0,7.0,1651085056189243.0
-2.0,0.0,4.0,3.0,-7.0,-3.0,0.0,-3.0,1651085056189243.0
-1.0,5.0,7.0,3.0,4.0,1.0,-2.0,-1.0,1651085056190243.0
-1.0,-9.0,5.0,4.0,-3.0,1.0,5.0,-4.0,1651085056190243.0
4.0,3.0,-13.0,-26.0,-10.0,-9.0,-11.0,6.0,1651085056211478.0
-2.0,0.0,-13.0,8.0,0.0,-1.0,-3.0,-7.0,1651085056211478.0
1.0,3.0,10.0,2.0,-6.0,-4.0,2.0,1.0,1651085056212477.0
-3.0,3.0,-11.0,10.0,19.0,4.0,0.0,5.0,1651085056212477.0
-2.0,-3.0,11.0,4.0,-1.0,2.0,-2.0,-2.0,1651085056225220.0
-3.0,-9.0,3.0,-14.0,-9.0,-1.0,13.0,4.0,1651085056225220.0
3.0,2.0,-14.0,1.0,-1.0,2.0,0.0,5.0,1651085056233978.0
0.0,-4.0,-4.0,-12.0,-13.0,-6.0,-6.0,4.0,1651085056233978.0
-3.0,9.0,5.0,-3.0,-4.0,-2.0,-3.0,-3.0,1651085056248372.0
-1.0,-16.0,-6.0,4.0,16.0,7.0,5.0,-5.0,1651085056248372.0
-1.0,3.0,6.0,4.0,-2.0,-2.0,-3.0,-4.0,1651085056250402.0
-2.0,-15.0,-6.0,-5.0,-2.0,-1.0,5.0,-1.0,1651085056250402.0
0.0,3.0,5.0,6.0,-1.0,-6.0,-9.0,1.0,1651085056271337.0
0.0,8.0,7.0,-1.0,-1.0,2.0,0.0,-1.0,1651085056271337.0
-3.0,-5.0,4.0,-3.0,0.0,-2.0,-8.0,-16.0,1651085056272250.0
1.0,8.0,11.0,0.0,-2.0,2.0,-1.0,-1.0,1651085056272250.0
-2.0,-12.0,-17.0,-12.0,-6.0,-4.0,3.0,2.0,1651085056285258.0
0.0,1.0,-1.0,6.0,5.0,0.0,1.0,3.0,1651085056285258.0
2.0,0.0,7.0,5.0,5.0,4.0,4.0,2.0,1651085056294232.0
-1.0,4.0,13.0,0.0,-2.0,-2.0,-4.0,-3.0,1651085056294232.0
-1.0,-1.0,-5.0,7.0,6.0,3.0,5.0,-2.0,1651085056309088.0
-3.0,-1.0,-8.0,-10.0,-11.0,-6.0,-7.0,5.0,1651085056309088.0
2.0,0.0,-1.0,-2.0,-4.0,-3.0,1.0,-1.0,1651085056310088.0
-1.0,-1.0,-13.0,-7.0,-5.0,-2.0,-6.0,-5.0,1651085056310088.0
1.0,7.0,-2.0,3.0,0.0,-2.0,3.0,0.0,1651085056331571.0
3.0,-7.0,4.0,-9.0,-7.0,-4.0,-8.0,-1.0,1651085056331571.0
-2.0,-2.0,-10.0,9.0,13.0,5.0,4.0,6.0,1651085056332454.0
3.0,11.0,5.0,-3.0,-2.0,4.0,11.0,0.0,1651085056332454.0
-3.0,-18.0,-4.0,4.0,4.0,-3.0,-10.0,-4.0,1651085056353214.0
-3.0,0.0,13.0,2.0,-3.0,-2.0,-6.0,3.0,1651085056353214.0
0.0,4.0,3.0,-24.0,-25.0,-9.0,-4.0,3.0,1651085056355246.0
1.0,-1.0,-14.0,24.0,26.0,8.0,8.0,2.0,1651085056355246.0
0.0,3.0,-10.0,-4.0,5.0,7.0,2.0,0.0,1651085056369128.0
3.0,6.0,0.0,5.0,2.0,2.0,3.0,-6.0,1651085056369128.0
-5.0,-20.0,6.0,-1.0,-1.0,2.0,3.0,2.0,1651085056370128.0
-1.0,9.0,0.0,-5.0,-9.0,-9.0,-13.0,-6.0,1651085056370128.0
-1.0,-2.0,9.0,-2.0,-2.0,-1.0,2.0,1.0,1651085056391443.0
1.0,1.0,-15.0,-4.0,1.0,-1.0,-1.0,-8.0,1651085056391443.0
-2.0,5.0,-11.0,-9.0,-2.0,1.0,3.0,9.0,1651085056392444.0
-2.0,-8.0,3.0,-8.0,-8.0,-3.0,-3.0,-2.0,1651085056392444.0
-3.0,-2.0,-6.0,7.0,-1.0,1.0,3.0,1.0,1651085056413350.0
-1.0,3.0,11.0,13.0,11.0,0.0,-2.0,-5.0,1651085056413350.0
2.0,2.0,13.0,3.0,3.0,1.0,1.0,-5.0,1651085056415217.0
0.0,6.0,4.0,-1.0,0.0,5.0,-2.0,-2.0,1651085056415217.0
1.0,3.0,-8.0,-10.0,-8.0,-9.0,-10.0,4.0,1651085056428317.0
-1.0,-12.0,11.0,2.0,-6.0,0.0,8.0,3.0,1651085056428317.0
-4.0,-3.0,-22.0,-5.0,-1.0,-2.0,0.0,-1.0,1651085056430177.0
2.0,0.0,7.0,0.0,3.0,-1.0,0.0,2.0,1651085056430177.0
1.0,3.0,3.0,3.0,3.0,3.0,0.0,-6.0,1651085056451403.0
0.0,2.0,0.0,3.0,1.0,2.0,7.0,2.0,1651085056451403.0
2.0,1.0,18.0,11.0,5.0,2.0,3.0,3.0,1651085056452404.0
1.0,2.0,-9.0,-13.0,-10.0,-7.0,-18.0,-24.0,1651085056452404.0
-1.0,-12.0,10.0,9.0,3.0,4.0,6.0,8.0,1651085056473225.0
-2.0,2.0,-14.0,-8.0,-6.0,-12.0,-15.0,1.0,1651085056473225.0
0.0,-4.0,1.0,-4.0,-4.0,-2.0,7.0,2.0,1651085056475220.0
-3.0,-2.0,-3.0,-1.0,-3.0,-1.0,5.0,1.0,1651085056475220.0
-1.0,3.0,6.0,-2.0,0.0,0.0,1.0,-4.0,1651085056488588.0
0.0,0.0,-10.0,-8.0,-4.0,2.0,0.0,-4.0,1651085056488588.0
-1.0,5.0,1.0,3.0,-1.0,1.0,-8.0,-7.0,1651085056494744.0
-1.0,-5.0,4.0,5.0,-5.0,-4.0,-2.0,2.0,1651085056494744.0
-1.0,-2.0,19.0,-4.0,5.0,3.0,8.0,0.0,1651085056512049.0
1.0,3.0,-13.0,-5.0,-6.0,-2.0,-6.0,4.0,1651085056512049.0
3.0,0.0,-18.0,-4.0,-4.0,-5.0,-7.0,-2.0,1651085056512890.0
-1.0,-3.0,9.0,6.0,1.0,0.0,2.0,4.0,1651085056512890.0
-1.0,1.0,4.0,-2.0,-5.0,0.0,6.0,6.0,1651085056534193.0
2.0,1.0,3.0,-4.0,0.0,3.0,-1.0,-4.0,1651085056534193.0
0.0,15.0,14.0,1.0,-4.0,-2.0,2.0,-2.0,1651085056535033.0
-2.0,-20.0,1.0,1.0,7.0,1.0,2.0,5.0,1651085056535033.0
-1.0,0.0,-25.0,0.0,3.0,1.0,-3.0,0.0,1651085056548990.0
-2.0,1.0,3.0,0.0,0.0,2.0,-3.0,-6.0,1651085056548990.0
0.0,1.0,2.0,10.0,9.0,2.0,-3.0,-10.0,1651085056555217.0
-2.0,0.0,7.0,-4.0,-13.0,-5.0,2.0,12.0,1651085056555217.0
1.0,-2.0,-9.0,0.0,1.0,-1.0,-3.0,-2.0,1651085056571480.0
-1.0,-1.0,0.0,-2.0,1.0,2.0,5.0,-3.0,1651085056571480.0
-3.0,-6.0,0.0,-3.0,-6.0,-2.0,4.0,11.0,1651085056572480.0
0.0,5.0,-6.0,-10.0,-10.0,-6.0,-16.0,3.0,1651085056572480.0
0.0,-4.0,10.0,13.0,5.0,-2.0,-2.0,-2.0,1651085056594381.0
0.0,5.0,-5.0,-8.0,-4.0,-3.0,-2.0,1.0,1651085056594381.0
0.0,-7.0,5.0,1.0,2.0,1.0,5.0,-3.0,1651085056595229.0
-1.0,-1.0,-23.0,-2.0,2.0,3.0,8.0,0.0,1651085056595229.0
-3.0,1.0,0.0,-4.0,-8.0,-3.0,-5.0,6.0,1651085056608605.0
1.0,-2.0,-9.0,2.0,1.0,0.0,0.0,1.0,1651085056608605.0
2.0,-2.0,1.0,-1.0,0.0,-1.0,-2.0,-2.0,1651085056615057.0
1.0,4.0,-1.0,1.0,2.0,0.0,-2.0,-2.0,1651085056615057.0
1.0,0.0,21.0,-3.0,-11.0,-3.0,0.0,-4.0,1651085056631603.0
-3.0,-3.0,-5.0,15.0,17.0,5.0,6.0,0.0,1651085056631603.0
0.0,3.0,-20.0,-8.0,-1.0,-2.0,-7.0,-1.0,1651085056632604.0
1.0,-5.0,5.0,-10.0,-9.0,-4.0,-1.0,2.0,1651085056632604.0
0.0,-1.0,-6.0,10.0,8.0,0.0,-3.0,-1.0,1651085056653243.0
-3.0,0.0,10.0,0.0,-3.0,2.0,-2.0,-3.0,1651085056653243.0
0.0,-2.0,-1.0,1.0,3.0,2.0,8.0,8.0,1651085056655273.0
2.0,2.0,9.0,5.0,15.0,9.0,6.0,-2.0,1651085056655273.0
-2.0,-2.0,-21.0,-7.0,-7.0,-6.0,-11.0,-1.0,1651085056668465.0
0.0,-2.0,6.0,-3.0,-11.0,-3.0,-6.0,-3.0,1651085056668465.0
0.0,2.0,0.0,3.0,2.0,0.0,-3.0,-4.0,1651085056675265.0
-2.0,1.0,-4.0,-8.0,-8.0,-1.0,5.0,-1.0,1651085056675265.0
0.0,1.0,14.0,5.0,3.0,-1.0,1.0,-4.0,1651085056691406.0
3.0,1.0,6.0,4.0,3.0,-4.0,-7.0,3.0,1651085056691406.0
0.0,-1.0,-4.0,-4.0,-5.0,-1.0,-2.0,-2.0,1651085056692236.0
-3.0,-6.0,1.0,0.0,0.0,-1.0,-2.0,0.0,1651085056692236.0
-1.0,2.0,-8.0,0.0,-1.0,3.0,5.0,-1.0,1651085056713209.0
2.0,6.0,7.0,1.0,-3.0,-3.0,2.0,-1.0,1651085056713209.0
1.0,-10.0,16.0,4.0,2.0,0.0,-1.0,-3.0,1651085056715236.0
0.0,4.0,-24.0,-10.0,-4.0,-1.0,-7.0,0.0,1651085056715236.0
0.0,-6.0,8.0,-1.0,3.0,4.0,8.0,7.0,1651085056728612.0
-1.0,3.0,5.0,0.0,8.0,-1.0,-4.0,-1.0,1651085056728612.0
-7.0,3.0,-9.0,4.0,2.0,1.0,-5.0,-13.0,1651085056735761.0
0.0,5.0,16.0,8.0,2.0,-1.0,-2.0,-1.0,1651085056735761.0
-2.0,-6.0,-29.0,-18.0,-14.0,-4.0,3.0,-5.0,1651085056752222.0
-4.0,-10.0,-11.0,-19.0,-14.0,-3.0,3.0,18.0,1651085056752222.0
-1.0,-3.0,13.0,11.0,0.0,-2.0,5.0,0.0,1651085056753092.0
2.0,4.0,13.0,14.0,14.0,5.0,5.0,5.0,1651085056753092.0
2.0,3.0,6.0,-4.0,4.0,2.0,3.0,0.0,1651085056774123.0
-2.0,-1.0,3.0,-14.0,-15.0,-5.0,-4.0,-8.0,1651085056774123.0
1.0,3.0,-14.0,2.0,-3.0,-1.0,-7.0,-1.0,1651085056775061.0
-2.0,-3.0,-2.0,-3.0,-4.0,3.0,11.0,2.0,1651085056775061.0
-1.0,0.0,8.0,1.0,-1.0,0.0,-4.0,-5.0,1651085056787764.0
3.0,-6.0,-15.0,0.0,5.0,-4.0,-15.0,-4.0,1651085056787764.0
2.0,7.0,9.0,-3.0,-1.0,-2.0,-2.0,4.0,1651085056803091.0
-1.0,-4.0,3.0,6.0,5.0,1.0,-3.0,-2.0,1651085056803091.0
1.0,-2.0,-12.0,0.0,4.0,2.0,6.0,1.0,1651085056811095.0
-5.0,4.0,0.0,3.0,-1.0,1.0,9.0,-9.0,1651085056811095.0
-1.0,-11.0,-9.0,-4.0,-3.0,0.0,-6.0,6.0,1651085056813124.0
0.0,5.0,12.0,5.0,4.0,3.0,-10.0,-3.0,1651085056813124.0
-4.0,-5.0,-36.0,-18.0,-10.0,-5.0,8.0,6.0,1651085056834346.0
2.0,-2.0,2.0,4.0,-5.0,-3.0,8.0,5.0,1651085056834346.0
2.0,6.0,0.0,-3.0,11.0,4.0,1.0,-2.0,1651085056835263.0
-1.0,-2.0,3.0,-1.0,-8.0,-4.0,-6.0,-3.0,1651085056835263.0
2.0,0.0,4.0,4.0,2.0,2.0,-6.0,-5.0,1651085056847693.0
-1.0,0.0,-11.0,1.0,3.0,-4.0,-9.0,-6.0,1651085056847693.0
-3.0,-3.0,11.0,-1.0,-2.0,2.0,7.0,3.0,1651085056856237.0
1.0,-1.0,-21.0,-6.0,-3.0,-4.0,-4.0,-3.0,1651085056856237.0
0.0,1.0,-17.0,-19.0,-15.0,-6.0,-2.0,2.0,1651085056871479.0
0.0,-2.0,22.0,42.0,37.0,11.0,5.0,-1.0,1651085056871479.0
-7.0,-8.0,3.0,-6.0,-7.0,-5.0,-1.0,-3.0,1651085056872484.0
3.0,2.0,-7.0,5.0,0.0,-3.0,-2.0,-2.0,1651085056872484.0
6.0,6.0,7.0,0.0,-2.0,-2.0,-1.0,0.0,1651085056894406.0
-2.0,-5.0,-2.0,-16.0,-17.0,-1.0,14.0,-6.0,1651085056894406.0
-1.0,12.0,2.0,15.0,18.0,2.0,-11.0,9.0,1651085056895240.0
-2.0,-19.0,14.0,-7.0,-8.0,-3.0,2.0,5.0,1651085056895240.0
0.0,4.0,-13.0,8.0,9.0,3.0,-2.0,-3.0,1651085056907208.0
1.0,5.0,-1.0,1.0,0.0,1.0,-2.0,2.0,1651085056907208.0
1.0,0.0,7.0,4.0,-5.0,0.0,6.0,-12.0,1651085056916347.0
-3.0,13.0,-3.0,-14.0,-8.0,-2.0,-3.0,-7.0,1651085056916347.0
-3.0,-26.0,-8.0,0.0,-4.0,-6.0,-1.0,7.0,1651085056931680.0
1.0,1.0,0.0,8.0,11.0,4.0,-3.0,-1.0,1651085056931680.0
-5.0,-5.0,-6.0,-2.0,-4.0,-1.0,5.0,0.0,1651085056932516.0
3.0,7.0,4.0,3.0,3.0,-2.0,-8.0,-3.0,1651085056932516.0
2.0,8.0,-9.0,-5.0,-2.0,1.0,-2.0,-5.0,1651085056953233.0
-2.0,-1.0,-11.0,-13.0,-8.0,-4.0,1.0,1.0,1651085056953233.0
3.0,-3.0,8.0,2.0,-2.0,-1.0,-1.0,0.0,1651085056955272.0
2.0,-2.0,3.0,8.0,2.0,0.0,3.0,1.0,1651085056955272.0
-4.0,5.0,21.0,13.0,6.0,3.0,-3.0,-3.0,1651085056968281.0
2.0,-2.0,8.0,-9.0,-6.0,-1.0,-1.0,1.0,1651085056968281.0
0.0,-1.0,-8.0,-7.0,-9.0,-1.0,-2.0,-1.0,1651085056976247.0
-3.0,-9.0,-6.0,-3.0,-4.0,-1.0,1.0,-5.0,1651085056976247.0
0.0,4.0,2.0,9.0,16.0,7.0,1.0,3.0,1651085056991608.0
3.0,9.0,8.0,2.0,-5.0,-2.0,1.0,3.0,1651085056991608.0
-1.0,-14.0,-2.0,-3.0,-3.0,-1.0,-2.0,-8.0,1651085056992608.0
-3.0,4.0,-2.0,-8.0,-11.0,-2.0,1.0,0.0,1651085056992608.0
0.0,-9.0,11.0,0.0,-5.0,-4.0,-6.0,-3.0,1651085057014541.0
-1.0,1.0,-3.0,1.0,1.0,2.0,0.0,4.0,1651085057014541.0
1.0,15.0,-7.0,-4.0,-2.0,-1.0,-4.0,-2.0,1651085057015476.0
-2.0,-10.0,-6.0,-1.0,3.0,1.0,-2.0,-7.0,1651085057015476.0
-2.0,-2.0,9.0,1.0,1.0,4.0,6.0,2.0,1651085057027626.0
-2.0,-2.0,-6.0,-7.0,-7.0,-9.0,0.0,18.0,1651085057027626.0
1.0,1.0,1.0,1.0,3.0,2.0,-1.0,2.0,1651085057036814.0
-2.0,-1.0,-1.0,5.0,3.0,1.0,8.0,1.0,1651085057036814.0
1.0,8.0,12.0,3.0,-3.0,-8.0,-16.0,-7.0,1651085057051653.0
0.0,-6.0,-16.0,-11.0,-2.0,9.0,8.0,-4.0,1651085057051653.0
1.0,0.0,1.0,3.0,3.0,-2.0,5.0,7.0,1651085057052654.0
-2.0,-3.0,-1.0,-2.0,-2.0,0.0,2.0,5.0,1651085057052654.0
-2.0,0.0,3.0,-2.0,-3.0,-1.0,0.0,-5.0,1651085057073821.0
0.0,-1.0,0.0,2.0,1.0,-2.0,-4.0,-6.0,1651085057073821.0
-2.0,-6.0,-2.0,-1.0,-1.0,1.0,0.0,0.0,1651085057080374.0
-1.0,0.0,-4.0,-1.0,-2.0,-3.0,0.0,-3.0,1651085057080374.0
0.0,1.0,2.0,2.0,-2.0,-2.0,1.0,1.0,1651085057087612.0
-5.0,-4.0,-1.0,0.0,3.0,2.0,-1.0,-3.0,1651085057087612.0
0.0,-2.0,0.0,-1.0,0.0,-2.0,-4.0,0.0,1651085057096382.0
0.0,-1.0,-2.0,-2.0,-1.0,-2.0,-2.0,0.0,1651085057096382.0
1.0,2.0,1.0,-1.0,0.0,1.0,0.0,3.0,1651085057111401.0
-1.0,-2.0,-2.0,0.0,-3.0,1.0,0.0,-2.0,1651085057111401.0
-2.0,0.0,-1.0,-3.0,-2.0,-3.0,1.0,-4.0,1651085057112269.0
0.0,3.0,5.0,6.0,2.0,0.0,-2.0,0.0,1651085057112269.0
-1.0,1.0,-5.0,1.0,6.0,2.0,2.0,1.0,1651085057134353.0
-2.0,-7.0,-6.0,-6.0,-3.0,-8.0,-6.0,-5.0,1651085057134353.0
-1.0,1.0,10.0,8.0,0.0,3.0,1.0,2.0,1651085057135270.0
-3.0,-1.0,-1.0,-5.0,-1.0,-3.0,-4.0,-6.0,1651085057135270.0
2.0,1.0,1.0,4.0,2.0,2.0,4.0,3.0,1651085057148268.0
0.0,0.0,2.0,-1.0,-1.0,-2.0,0.0,-2.0,1651085057148268.0
0.0,1.0,-2.0,-4.0,-6.0,-6.0,-3.0,3.0,1651085057156216.0
-2.0,-1.0,5.0,0.0,4.0,6.0,-2.0,3.0,1651085057156216.0
-1.0,-1.0,2.0,2.0,1.0,2.0,2.0,-1.0,1651085057171478.0
0.0,0.0,-2.0,-3.0,-1.0,-2.0,-7.0,-4.0,1651085057171478.0
-1.0,-3.0,-6.0,-1.0,-1.0,5.0,1.0,-1.0,1651085057172478.0
1.0,2.0,1.0,1.0,-2.0,-6.0,-3.0,-2.0,1651085057172478.0
-2.0,0.0,-5.0,-4.0,-4.0,-2.0,-1.0,-1.0,1651085057194348.0
0.0,3.0,3.0,6.0,1.0,3.0,0.0,-1.0,1651085057194348.0
2.0,-1.0,-10.0,-12.0,-1.0,-4.0,0.0,-1.0,1651085057195229.0
-2.0,-2.0,-5.0,3.0,1.0,1.0,0.0,-1.0,1651085057195229.0
1.0,-1.0,0.0,-4.0,-7.0,-4.0,-4.0,1.0,1651085057207690.0
-4.0,0.0,5.0,5.0,-1.0,-1.0,-2.0,-1.0,1651085057207690.0
-1.0,0.0,9.0,2.0,1.0,0.0,-1.0,-3.0,1651085057216013.0
1.0,0.0,-24.0,-7.0,0.0,3.0,2.0,1.0,1651085057216013.0
-2.0,-3.0,3.0,0.0,-1.0,0.0,-2.0,-2.0,1651085057231453.0
2.0,-1.0,1.0,-1.0,-3.0,-2.0,0.0,1.0,1651085057231453.0
-2.0,-2.0,6.0,-2.0,-2.0,-5.0,-3.0,0.0,1651085057232465.0
-1.0,-1.0,-1.0,0.0,0.0,1.0,3.0,1.0,1651085057232465.0
-1.0,1.0,10.0,5.0,3.0,1.0,1.0,-1.0,1651085057254403.0
0.0,-3.0,-13.0,-4.0,-2.0,1.0,-2.0,-2.0,1651085057254403.0
0.0,-1.0,-6.0,1.0,1.0,0.0,-1.0,-3.0,1651085057255270.0
2.0,0.0,13.0,3.0,2.0,1.0,0.0,0.0,1651085057255270.0
-2.0,-3.0,-21.0,-9.0,-1.0,1.0,-1.0,-1.0,1651085057276437.0
-1.0,-1.0,5.0,5.0,1.0,0.0,0.0,-1.0,1651085057276437.0
0.0,0.0,-6.0,2.0,0.0,1.0,-2.0,-1.0,1651085057277436.0
1.0,-1.0,-1.0,0.0,-3.0,-6.0,-2.0,1.0,1651085057277436.0
-1.0,0.0,5.0,6.0,-4.0,-5.0,1.0,-3.0,1651085057299243.0
-1.0,0.0,-7.0,-3.0,3.0,5.0,1.0,1.0,1651085057299243.0
-2.0,-2.0,2.0,2.0,3.0,3.0,1.0,2.0,1651085057300274.0
0.0,0.0,-9.0,-5.0,-1.0,-2.0,-1.0,-1.0,1651085057300274.0
0.0,0.0,5.0,0.0,-1.0,0.0,-2.0,1.0,1651085057321609.0
0.0,-3.0,-17.0,-7.0,-6.0,-2.0,-1.0,-2.0,1651085057321609.0
0.0,0.0,5.0,2.0,1.0,0.0,0.0,-1.0,1651085057322448.0
0.0,1.0,1.0,1.0,0.0,-1.0,2.0,1.0,1651085057322448.0
-2.0,-1.0,-6.0,-4.0,-1.0,-2.0,-1.0,0.0,1651085057336583.0
-2.0,0.0,8.0,2.0,-1.0,-2.0,-1.0,0.0,1651085057336583.0
-1.0,-1.0,-1.0,-3.0,0.0,0.0,0.0,1.0,1651085057337587.0
-1.0,0.0,3.0,2.0,5.0,3.0,0.0,0.0,1651085057337587.0
-1.0,0.0,-3.0,-1.0,-1.0,-1.0,-1.0,-2.0,1651085057351249.0
0.0,0.0,2.0,-1.0,-1.0,-1.0,-1.0,0.0,1651085057351249.0
1.0,-1.0,-4.0,0.0,-2.0,-2.0,-1.0,-2.0,1651085057357668.0
-2.0,-1.0,5.0,1.0,-1.0,1.0,0.0,-1.0,1651085057357668.0
0.0,-3.0,-1.0,1.0,2.0,2.0,-1.0,-1.0,1651085057373239.0
-1.0,0.0,6.0,0.0,0.0,1.0,1.0,0.0,1651085057373239.0
0.0,1.0,-7.0,-4.0,-2.0,-3.0,0.0,0.0,1651085057375234.0
0.0,-2.0,2.0,-1.0,-2.0,1.0,-1.0,0.0,1651085057375234.0
-1.0,0.0,6.0,2.0,1.0,2.0,1.0,0.0,1651085057396344.0
-1.0,1.0,-1.0,0.0,-1.0,0.0,-1.0,-1.0,1651085057396344.0
0.0,1.0,0.0,0.0,-1.0,1.0,1.0,0.0,1651085057397232.0
-1.0,-1.0,-5.0,-3.0,-3.0,-2.0,0.0,1.0,1651085057397232.0
0.0,1.0,0.0,-2.0,-1.0,-2.0,-2.0,-2.0,1651085057411247.0
1.0,-1.0,2.0,1.0,-1.0,-3.0,1.0,-1.0,1651085057411247.0
-1.0,-1.0,0.0,0.0,1.0,-2.0,0.0,-2.0,1651085057418311.0
-1.0,-1.0,-2.0,-1.0,0.0,2.0,-1.0,-1.0,1651085057418311.0
2.0,0.0,4.0,-1.0,-3.0,-2.0,-2.0,-2.0,1651085057433423.0
-1.0,-3.0,-3.0,-1.0,-2.0,-2.0,0.0,1.0,1651085057433423.0
-2.0,-1.0,-1.0,3.0,2.0,1.0,-1.0,-1.0,1651085057435449.0
0.0,-2.0,-4.0,-4.0,-2.0,-3.0,0.0,-1.0,1651085057435449.0
-1.0,-1.0,3.0,-1.0,-1.0,1.0,0.0,-1.0,1651085057456218.0
-1.0,-1.0,-5.0,-4.0,1.0,1.0,0.0,-1.0,1651085057456218.0
0.0,0.0,-1.0,-1.0,-4.0,-2.0,-1.0,1.0,1651085057457239.0
-2.0,2.0,4.0,1.0,-2.0,-2.0,0.0,-2.0,1651085057457239.0
-2.0,-2.0,-5.0,1.0,1.0,-2.0,-1.0,-1.0,1651085057471110.0
1.0,-1.0,3.0,-1.0,-2.0,-1.0,-1.0,0.0,1651085057471110.0
1.0,-1.0,0.0,0.0,1.0,0.0,-3.0,1.0,1651085057477608.0
1.0,0.0,-1.0,0.0,-1.0,2.0,2.0,-2.0,1651085057477608.0
-2.0,1.0,1.0,-2.0,0.0,-1.0,-4.0,0.0,1651085057494378.0
-2.0,-3.0,-4.0,-4.0,-3.0,-2.0,1.0,-1.0,1651085057494378.0
0.0,-1.0,3.0,3.0,-1.0,1.0,3.0,0.0,1651085057495226.0
2.0,0.0,0.0,-1.0,-1.0,-4.0,-1.0,1.0,1651085057495226.0
-2.0,-1.0,-1.0,0.0,4.0,1.0,1.0,-1.0,1651085057516693.0
1.0,1.0,0.0,2.0,1.0,0.0,1.0,0.0,1651085057516693.0
-3.0,-2.0,-1.0,-2.0,-5.0,-7.0,0.0,-3.0,1651085057517531.0
-1.0,0.0,3.0,3.0,2.0,7.0,-8.0,3.0,1651085057517531.0
0.0,-1.0,0.0,-1.0,-3.0,-4.0,-1.0,1.0,1651085057529499.0
5.0,3.0,0.0,0.0,1.0,7.0,3.0,0.0,1651085057529499.0
0.0,0.0,-9.0,-5.0,-1.0,1.0,2.0,0.0,1651085057539073.0
-4.0,-2.0,6.0,3.0,0.0,-5.0,3.0,-3.0,1651085057539073.0
2.0,0.0,-1.0,1.0,3.0,7.0,2.0,1.0,1651085057554351.0
-1.0,0.0,1.0,1.0,1.0,0.0,-2.0,0.0,1651085057554351.0
0.0,-1.0,0.0,-1.0,-2.0,8.0,-4.0,1.0,1651085057555241.0
3.0,-1.0,-5.0,-2.0,-5.0,-15.0,-22.0,-10.0,1651085057555241.0
0.0,0.0,-1.0,-2.0,1.0,7.0,7.0,1.0,1651085057577432.0
-3.0,-4.0,2.0,1.0,-2.0,0.0,-3.0,-2.0,1651085057577432.0
-3.0,0.0,-1.0,-2.0,-4.0,-27.0,-13.0,-7.0,1651085057578269.0
-1.0,0.0,-2.0,-2.0,1.0,7.0,-2.0,4.0,1651085057578269.0
-2.0,-2.0,0.0,0.0,0.0,6.0,12.0,2.0,1651085057589212.0
-4.0,-2.0,-3.0,-4.0,-4.0,-13.0,-18.0,-9.0,1651085057589212.0
1.0,1.0,4.0,3.0,7.0,21.0,15.0,5.0,1651085057599073.0
0.0,-1.0,-8.0,-3.0,-1.0,15.0,11.0,4.0,1651085057599073.0
1.0,0.0,-2.0,-4.0,-5.0,-4.0,-8.0,-2.0,1651085057613199.0
1.0,0.0,0.0,2.0,0.0,5.0,7.0,1.0,1651085057613199.0
0.0,-1.0,-1.0,0.0,-1.0,-6.0,-3.0,-1.0,1651085057615196.0
0.0,0.0,1.0,0.0,-1.0,-13.0,-5.0,-1.0,1651085057615196.0
-1.0,-1.0,0.0,0.0,0.0,8.0,5.0,-1.0,1651085057636345.0
-1.0,-2.0,-2.0,0.0,-2.0,-5.0,-5.0,-2.0,1651085057636345.0
-2.0,-2.0,1.0,-1.0,-3.0,-3.0,-2.0,-2.0,1651085057638232.0
1.0,-1.0,0.0,1.0,1.0,2.0,6.0,1.0,1651085057638232.0
-1.0,1.0,-1.0,0.0,-1.0,-9.0,-9.0,-3.0,1651085057650701.0
1.0,0.0,-1.0,-1.0,0.0,1.0,3.0,3.0,1651085057650701.0
0.0,-1.0,-1.0,0.0,0.0,-1.0,-3.0,0.0,1651085057659074.0
-2.0,0.0,0.0,0.0,-2.0,1.0,7.0,1.0,1651085057659074.0
1.0,-1.0,1.0,0.0,-1.0,-3.0,-5.0,0.0,1651085057673608.0
1.0,1.0,-1.0,-1.0,-3.0,-1.0,2.0,1.0,1651085057673608.0
1.0,-1.0,1.0,-2.0,-1.0,7.0,6.0,2.0,1651085057675631.0
0.0,0.0,-1.0,-1.0,2.0,2.0,-2.0,-2.0,1651085057675631.0
-1.0,-1.0,1.0,0.0,0.0,-4.0,-2.0,-4.0,1651085057696191.0
-1.0,-1.0,-1.0,1.0,5.0,3.0,4.0,1.0,1651085057696191.0
-1.0,-3.0,-2.0,-2.0,-2.0,-3.0,-3.0,-2.0,1651085057697221.0
1.0,-1.0,1.0,-1.0,-1.0,-1.0,1.0,0.0,1651085057697221.0
-1.0,-1.0,0.0,-2.0,-1.0,-1.0,-2.0,1.0,1651085057710229.0
-1.0,1.0,-2.0,-2.0,-4.0,-4.0,-1.0,-1.0,1651085057710229.0
-2.0,-3.0,3.0,1.0,0.0,0.0,-2.0,-1.0,1651085057719245.0
-1.0,-2.0,3.0,5.0,4.0,-1.0,4.0,-1.0,1651085057719245.0
0.0,-1.0,-17.0,-7.0,0.0,2.0,3.0,1.0,1651085057733280.0
-1.0,-2.0,1.0,1.0,-1.0,0.0,-3.0,1.0,1651085057733280.0
-1.0,-2.0,-1.0,-2.0,-2.0,1.0,-1.0,1.0,1651085057735163.0
1.0,-2.0,0.0,-1.0,-3.0,-1.0,-3.0,-1.0,1651085057735163.0
-1.0,-1.0,6.0,3.0,0.0,-5.0,-1.0,-1.0,1651085057756207.0
1.0,-3.0,-4.0,-3.0,1.0,-2.0,1.0,0.0,1651085057756207.0
1.0,0.0,-3.0,-1.0,-2.0,-1.0,-1.0,-1.0,1651085057757235.0
-1.0,-1.0,1.0,-2.0,1.0,2.0,0.0,-1.0,1651085057757235.0
0.0,-2.0,-1.0,-1.0,-2.0,-5.0,-3.0,0.0,1651085057770252.0
-1.0,0.0,-1.0,0.0,-2.0,0.0,0.0,-1.0,1651085057770252.0
0.0,1.0,3.0,3.0,3.0,2.0,0.0,1.0,1651085057778393.0
0.0,0.0,-3.0,-2.0,-5.0,-5.0,0.0,-2.0,1651085057778393.0
0.0,0.0,1.0,-1.0,0.0,-1.0,0.0,1.0,1651085057793220.0
-1.0,-1.0,-1.0,0.0,2.0,4.0,0.0,0.0,1651085057793220.0
-1.0,-3.0,-3.0,-2.0,-3.0,-3.0,-1.0,-2.0,1651085057795250.0
-1.0,-1.0,-1.0,0.0,2.0,2.0,1.0,1.0,1651085057795250.0
-1.0,1.0,0.0,0.0,-1.0,0.0,-1.0,0.0,1651085057816376.0
-1.0,1.0,0.0,1.0,1.0,1.0,1.0,-1.0,1651085057816376.0
-1.0,1.0,0.0,-1.0,-2.0,0.0,0.0,0.0,1651085057817214.0
-1.0,-2.0,-3.0,-3.0,-2.0,-4.0,-2.0,-1.0,1651085057817214.0
0.0,-2.0,-2.0,-1.0,-2.0,-3.0,1.0,-2.0,1651085057830477.0
-1.0,3.0,1.0,0.0,1.0,1.0,2.0,-3.0,1651085057830477.0
0.0,-1.0,-1.0,-1.0,0.0,-1.0,1.0,0.0,1651085057839072.0
0.0,-2.0,-3.0,0.0,-2.0,-2.0,-1.0,1.0,1651085057839072.0
-1.0,-1.0,-1.0,2.0,0.0,1.0,-2.0,-1.0,1651085057853228.0
0.0,0.0,1.0,-2.0,2.0,1.0,1.0,0.0,1651085057853228.0
0.0,0.0,-2.0,0.0,1.0,1.0,2.0,0.0,1651085057861428.0
-1.0,0.0,-1.0,-3.0,-4.0,-2.0,-2.0,-1.0,1651085057861428.0
0.0,-1.0,1.0,1.0,0.0,1.0,0.0,-1.0,1651085057876587.0
0.0,-1.0,2.0,2.0,-1.0,-3.0,-3.0,-1.0,1651085057876587.0
-2.0,-1.0,-8.0,-6.0,2.0,2.0,1.0,-1.0,1651085057877424.0
-1.0,-1.0,3.0,2.0,0.0,-2.0,-1.0,-1.0,1651085057877424.0
0.0,-2.0,-9.0,-8.0,-3.0,-1.0,-1.0,-2.0,1651085057889166.0
1.0,-1.0,1.0,2.0,1.0,4.0,2.0,3.0,1651085057889166.0
0.0,0.0,1.0,1.0,1.0,-3.0,1.0,-1.0,1651085057899074.0
-2.0,0.0,-4.0,-1.0,-1.0,-1.0,-1.0,-1.0,1651085057899074.0
-1.0,0.0,3.0,3.0,2.0,1.0,0.0,-1.0,1651085057914372.0
-1.0,-4.0,0.0,-1.0,-2.0,-1.0,-2.0,1.0,1651085057914372.0
0.0,0.0,-1.0,-1.0,-2.0,-2.0,-1.0,1.0,1651085057915268.0
-1.0,-1.0,-1.0,0.0,-1.0,-1.0,-1.0,2.0,1651085057915268.0
0.0,0.0,2.0,3.0,1.0,0.0,0.0,-1.0,1651085057936397.0
1.0,-1.0,-9.0,-5.0,-2.0,-2.0,-2.0,-1.0,1651085057936397.0
1.0,0.0,0.0,1.0,-3.0,-1.0,-1.0,1.0,1651085057937259.0
-2.0,-1.0,-2.0,-3.0,-2.0,-1.0,-1.0,-4.0,1651085057937259.0
2.0,2.0,1.0,-2.0,-4.0,-1.0,0.0,0.0,1651085057950314.0
-1.0,-2.0,0.0,0.0,-1.0,0.0,-1.0,-1.0,1651085057950314.0
-1.0,0.0,2.0,0.0,-1.0,-2.0,-1.0,-1.0,1651085057959074.0
-2.0,1.0,1.0,1.0,1.0,0.0,2.0,0.0,1651085057959074.0
-1.0,-1.0,1.0,-1.0,1.0,1.0,-1.0,1.0,1651085057973384.0
-2.0,0.0,-2.0,-3.0,-3.0,-1.0,-2.0,-1.0,1651085057973384.0
-1.0,1.0,1.0,0.0,3.0,2.0,2.0,0.0,1651085057975410.0
-1.0,0.0,-1.0,-1.0,-1.0,-1.0,-1.0,-1.0,1651085057975410.0
0.0,0.0,2.0,0.0,-2.0,0.0,-3.0,-1.0,1651085057996512.0
-1.0,1.0,1.0,0.0,-2.0,-5.0,0.0,-1.0,1651085057996512.0
-1.0,-4.0,1.0,2.0,1.0,2.0,0.0,-1.0,1651085057997513.0
1.0,-2.0,-2.0,-3.0,1.0,1.0,-1.0,-1.0,1651085057997513.0
0.0,-3.0,-2.0,0.0,1.0,-1.0,-1.0,1.0,1651085058010355.0
2.0,-1.0,0.0,-1.0,-3.0,-3.0,0.0,0.0,1651085058010355.0
0.0,-1.0,-1.0,0.0,-3.0,-4.0,-2.0,-1.0,1651085058019073.0
1.0,-1.0,0.0,-2.0,3.0,6.0,0.0,-1.0,1651085058019073.0
-2.0,-1.0,-2.0,1.0,2.0,-2.0,0.0,0.0,1651085058034180.0
-1.0,-1.0,1.0,-1.0,-1.0,1.0,0.0,0.0,1651085058034180.0
-2.0,-1.0,-1.0,-1.0,0.0,-2.0,-2.0,-2.0,1651085058035033.0
-1.0,0.0,0.0,2.0,0.0,-1.0,2.0,0.0,1651085058035033.0
-1.0,-1.0,0.0,-2.0,-4.0,0.0,0.0,-1.0,1651085058056202.0
0.0,-1.0,-2.0,-2.0,-2.0,-1.0,-1.0,1.0,1651085058056202.0
0.0,0.0,-2.0,-3.0,-2.0,-2.0,-2.0,-3.0,1651085058057231.0
0.0,0.0,1.0,2.0,2.0,0.0,-1.0,-1.0,1651085058057231.0
1.0,-1.0,5.0,-1.0,1.0,0.0,1.0,-1.0,1651085058070220.0
-2.0,0.0,0.0,-1.0,-1.0,-3.0,1.0,0.0,1651085058070220.0
0.0,-3.0,-6.0,-3.0,-3.0,-1.0,-2.0,0.0,1651085058079157.0
1.0,0.0,0.0,0.0,-2.0,-1.0,-1.0,-1.0,1651085058079157.0
-3.0,-1.0,-6.0,-2.0,1.0,0.0,-2.0,-1.0,1651085058094460.0
-1.0,1.0,2.0,0.0,0.0,1.0,-1.0,0.0,1651085058094460.0
-3.0,-1.0,-1.0,1.0,3.0,2.0,0.0,-2.0,1651085058095359.0
0.0,0.0,3.0,-1.0,1.0,0.0,1.0,1.0,1651085058095359.0
0.0,0.0,1.0,-1.0,-1.0,1.0,-1.0,0.0,1651085058116465.0
0.0,-2.0,-2.0,-1.0,0.0,-1.0,-1.0,0.0,1651085058116465.0
0.0,0.0,-1.0,-3.0,-2.0,-1.0,-2.0,-1.0,1651085058117468.0
0.0,0.0,-2.0,1.0,-2.0,-3.0,-1.0,0.0,1651085058117468.0
0.0,0.0,1.0,-1.0,0.0,1.0,0.0,-1.0,1651085058130342.0
-2.0,-1.0,0.0,1.0,2.0,2.0,3.0,-1.0,1651085058130342.0
0.0,0.0,1.0,2.0,0.0,0.0,0.0,-1.0,1651085058138220.0
-1.0,-3.0,-3.0,-1.0,0.0,1.0,1.0,1.0,1651085058138220.0
0.0,-2.0,-1.0,0.0,-2.0,0.0,0.0,-1.0,1651085058153180.0
0.0,0.0,0.0,1.0,-3.0,-3.0,-7.0,-2.0,1651085058153180.0
-1.0,2.0,-1.0,-3.0,-3.0,-3.0,0.0,1.0,1651085058155175.0
0.0,-2.0,-1.0,-4.0,-2.0,0.0,-2.0,-1.0,1651085058155175.0
-1.0,-1.0,-2.0,0.0,-2.0,-1.0,-1.0,0.0,1651085058176380.0
-1.0,-1.0,3.0,1.0,5.0,3.0,1.0,0.0,1651085058176380.0
1.0,0.0,0.0,0.0,1.0,1.0,-1.0,0.0,1651085058177213.0
-2.0,-1.0,-1.0,-1.0,-1.0,-3.0,-3.0,-2.0,1651085058177213.0
0.0,-1.0,0.0,2.0,-1.0,0.0,-1.0,0.0,1651085058199240.0
-1.0,-1.0,-2.0,-1.0,-2.0,-2.0,0.0,-1.0,1651085058199240.0
0.0,0.0,-1.0,-3.0,-1.0,-1.0,-2.0,1.0,1651085058200274.0
-1.0,-1.0,-1.0,-1.0,-2.0,-1.0,1.0,-1.0,1651085058200274.0
-1.0,0.0,-1.0,0.0,-1.0,-2.0,-1.0,-1.0,1651085058212613.0
-1.0,0.0,-1.0,-1.0,-1.0,0.0,-2.0,-1.0,1651085058212613.0
0.0,-2.0,0.0,2.0,2.0,1.0,-1.0,-1.0,1651085058220353.0
0.0,0.0,-1.0,-1.0,-1.0,-1.0,0.0,0.0,1651085058220353.0
0.0,-1.0,0.0,0.0,-1.0,-2.0,-1.0,-1.0,1651085058236380.0
1.0,-1.0,0.0,0.0,-1.0,-2.0,-2.0,-1.0,1651085058236380.0
-2.0,0.0,0.0,-4.0,-2.0,0.0,2.0,-2.0,1651085058237217.0
-1.0,-2.0,0.0,-3.0,-2.0,-3.0,-2.0,-2.0,1651085058237217.0
0.0,0.0,0.0,3.0,6.0,1.0,1.0,1.0,1651085058259247.0
-1.0,-1.0,2.0,2.0,4.0,5.0,1.0,0.0,1651085058259247.0
0.0,0.0,1.0,0.0,-3.0,-3.0,-1.0,0.0,1651085058260247.0
0.0,0.0,-7.0,-2.0,-1.0,-1.0,-1.0,0.0,1651085058260247.0
-1.0,0.0,0.0,-1.0,-3.0,-2.0,-1.0,-1.0,1651085058273232.0
-1.0,-1.0,0.0,-2.0,-2.0,0.0,1.0,-1.0,1651085058273232.0
0.0,-1.0,2.0,2.0,0.0,1.0,1.0,0.0,1651085058275228.0
0.0,1.0,0.0,2.0,-2.0,-1.0,0.0,1.0,1651085058275228.0
1.0,1.0,0.0,-2.0,-2.0,-2.0,-1.0,0.0,1651085058303228.0
-1.0,-1.0,-1.0,0.0,0.0,-1.0,-1.0,-1.0,1651085058303228.0
-2.0,-1.0,-1.0,2.0,2.0,1.0,1.0,-1.0,1651085058305256.0
-1.0,-2.0,-1.0,-1.0,-1.0,-2.0,-1.0,-1.0,1651085058305256.0
-2.0,-2.0,-1.0,-2.0,1.0,-1.0,-2.0,0.0,1651085058319227.0
-1.0,0.0,-3.0,-3.0,-1.0,-2.0,-1.0,-2.0,1651085058319227.0
-1.0,-1.0,-2.0,-1.0,1.0,-2.0,1.0,1.0,1651085058320227.0
0.0,-1.0,1.0,0.0,0.0,-2.0,-1.0,-2.0,1651085058320227.0
0.0,-1.0,-2.0,-2.0,-3.0,-2.0,1.0,1.0,1651085058334336.0
0.0,1.0,0.0,0.0,0.0,-2.0,-1.0,-1.0,1651085058334336.0
0.0,1.0,0.0,1.0,1.0,7.0,0.0,1.0,1651085058335187.0
-1.0,2.0,0.0,-2.0,-2.0,-2.0,0.0,0.0,1651085058335187.0
-1.0,-1.0,0.0,-1.0,-1.0,-1.0,-1.0,-2.0,1651085058356206.0
1.0,-1.0,-2.0,0.0,0.0,-1.0,1.0,1.0,1651085058356206.0
0.0,0.0,2.0,2.0,-1.0,-1.0,-1.0,0.0,1651085058357234.0
0.0,-1.0,-4.0,-4.0,0.0,1.0,-2.0,-1.0,1651085058357234.0
-2.0,2.0,0.0,1.0,1.0,0.0,0.0,2.0,1651085058378797.0
0.0,-1.0,-3.0,-2.0,-3.0,-3.0,0.0,-1.0,1651085058378797.0
0.0,0.0,-1.0,-3.0,-1.0,-2.0,-2.0,-1.0,1651085058379693.0
0.0,-1.0,2.0,2.0,-1.0,1.0,1.0,-1.0,1651085058379693.0
1.0,0.0,-5.0,-3.0,-2.0,-2.0,-2.0,-2.0,1651085058393194.0
-1.0,-2.0,1.0,-1.0,-1.0,0.0,-2.0,-2.0,1651085058393194.0
2.0,0.0,1.0,1.0,-2.0,-1.0,3.0,1.0,1651085058400191.0
1.0,-2.0,1.0,0.0,-5.0,-2.0,-1.0,1.0,1651085058400191.0
-3.0,-1.0,-1.0,-1.0,3.0,3.0,-1.0,-1.0,1651085058416489.0
-1.0,-1.0,0.0,1.0,2.0,0.0,0.0,0.0,1651085058416489.0
0.0,0.0,-2.0,-3.0,-3.0,-5.0,0.0,-2.0,1651085058417489.0
0.0,1.0,0.0,-1.0,-1.0,3.0,-1.0,0.0,1651085058417489.0
0.0,-2.0,2.0,4.0,3.0,1.0,2.0,0.0,1651085058438831.0
-1.0,1.0,-1.0,-4.0,-3.0,0.0,0.0,-1.0,1651085058438831.0
0.0,0.0,-1.0,-2.0,-2.0,-1.0,-2.0,-1.0,1651085058439832.0
0.0,-1.0,-2.0,0.0,-1.0,-5.0,-1.0,0.0,1651085058439832.0
2.0,0.0,-1.0,-1.0,-2.0,-1.0,0.0,-1.0,1651085058453101.0
-2.0,-1.0,2.0,3.0,2.0,1.0,1.0,1.0,1651085058453101.0
1.0,1.0,-2.0,0.0,-2.0,-1.0,-3.0,0.0,1651085058467695.0
-2.0,-1.0,-1.0,0.0,0.0,-2.0,-3.0,-1.0,1651085058467695.0
0.0,0.0,3.0,0.0,-2.0,1.0,-1.0,-1.0,1651085058476094.0
0.0,-3.0,-2.0,-1.0,-3.0,-4.0,-1.0,0.0,1651085058476094.0
-1.0,-1.0,0.0,-1.0,2.0,3.0,-1.0,0.0,1651085058477988.0
0.0,-1.0,-1.0,2.0,3.0,5.0,1.0,1.0,1651085058477988.0
-3.0,-2.0,1.0,0.0,-4.0,-3.0,-1.0,1.0,1651085058499044.0
1.0,-2.0,-1.0,-5.0,-3.0,-2.0,0.0,0.0,1651085058499044.0
-1.0,-1.0,0.0,4.0,-5.0,-3.0,-1.0,-1.0,1651085058500101.0
-1.0,1.0,-3.0,-16.0,-18.0,-5.0,-1.0,-3.0,1651085058500101.0
0.0,2.0,2.0,16.0,30.0,9.0,3.0,1.0,1651085058513096.0
-1.0,-1.0,4.0,-2.0,-5.0,-1.0,-1.0,-1.0,1651085058513096.0
-1.0,-1.0,-9.0,-5.0,-3.0,-5.0,-2.0,-2.0,1651085058520047.0
-2.0,-1.0,0.0,0.0,-14.0,-7.0,-1.0,-1.0,1651085058520047.0
-1.0,1.0,-6.0,-15.0,-11.0,-6.0,-3.0,0.0,1651085058536147.0
-1.0,0.0,1.0,2.0,2.0,2.0,1.0,1.0,1651085058536147.0
-1.0,2.0,6.0,4.0,-2.0,4.0,3.0,2.0,1651085058538031.0
-1.0,0.0,1.0,16.0,13.0,1.0,0.0,0.0,1651085058538031.0
0.0,1.0,-3.0,-18.0,-8.0,-1.0,-2.0,-2.0,1651085058558126.0
-2.0,-4.0,-6.0,1.0,-5.0,-5.0,-1.0,0.0,1651085058558126.0
-4.0,-3.0,0.0,11.0,23.0,8.0,1.0,0.0,1651085058560121.0
3.0,-3.0,2.0,-6.0,-12.0,-7.0,-1.0,-1.0,1651085058560121.0
3.0,4.0,-1.0,21.0,7.0,2.0,2.0,0.0,1651085058573297.0
-5.0,-2.0,-3.0,-6.0,11.0,3.0,-2.0,-2.0,1651085058573297.0
1.0,1.0,0.0,-16.0,-16.0,-4.0,-1.0,0.0,1651085058579281.0
-1.0,-1.0,-1.0,-2.0,-5.0,0.0,1.0,2.0,1651085058579281.0
-2.0,-8.0,12.0,9.0,32.0,10.0,3.0,2.0,1651085058596198.0
3.0,4.0,-12.0,4.0,5.0,-2.0,-1.0,-2.0,1651085058596198.0
-3.0,-8.0,-8.0,8.0,6.0,1.0,1.0,-2.0,1651085058597219.0
1.0,1.0,-7.0,-3.0,0.0,2.0,0.0,-1.0,1651085058597219.0
-3.0,4.0,-2.0,-13.0,-24.0,-8.0,-2.0,-1.0,1651085058619120.0
0.0,0.0,-5.0,-7.0,-15.0,-2.0,0.0,0.0,1651085058619120.0
2.0,0.0,1.0,0.0,-4.0,-5.0,-2.0,-5.0,1651085058620121.0
-6.0,-13.0,-7.0,-3.0,0.0,-5.0,-1.0,6.0,1651085058620121.0
-2.0,-3.0,-8.0,-3.0,-13.0,0.0,-4.0,-13.0,1651085058632754.0
2.0,1.0,7.0,11.0,16.0,10.0,4.0,13.0,1651085058632754.0
-2.0,8.0,-2.0,-27.0,-16.0,-6.0,-3.0,-1.0,1651085058641373.0
0.0,0.0,1.0,11.0,-4.0,1.0,0.0,-3.0,1651085058641373.0
-1.0,-1.0,1.0,0.0,21.0,6.0,1.0,1.0,1651085058656210.0
0.0,-1.0,-2.0,-6.0,-15.0,-6.0,1.0,1.0,1651085058656210.0
0.0,-2.0,-6.0,-11.0,-6.0,-6.0,-3.0,-2.0,1651085058657241.0
0.0,0.0,7.0,-3.0,-9.0,-1.0,2.0,-1.0,1651085058657241.0
-3.0,-5.0,-1.0,-4.0,-15.0,-8.0,-3.0,1.0,1651085058678624.0
0.0,2.0,1.0,-13.0,-16.0,-2.0,-4.0,-6.0,1651085058678624.0
1.0,4.0,-1.0,21.0,24.0,7.0,4.0,5.0,1651085058680621.0
-2.0,-16.0,-21.0,-15.0,2.0,4.0,-1.0,-13.0,1651085058680621.0
0.0,9.0,5.0,19.0,20.0,12.0,3.0,5.0,1651085058692715.0
1.0,-8.0,-6.0,-7.0,9.0,1.0,9.0,4.0,1651085058692715.0
-2.0,-5.0,-4.0,-21.0,-35.0,-16.0,-13.0,-11.0,1651085058701752.0
3.0,10.0,9.0,35.0,44.0,13.0,6.0,11.0,1651085058701752.0
2.0,-12.0,-3.0,-4.0,-5.0,0.0,2.0,-1.0,1651085058716236.0
-4.0,3.0,3.0,-9.0,-10.0,-5.0,-2.0,-7.0,1651085058716236.0
-1.0,-8.0,-9.0,-2.0,1.0,4.0,-3.0,0.0,1651085058718086.0
1.0,5.0,1.0,-3.0,4.0,-2.0,0.0,-4.0,1651085058718086.0
-1.0,-2.0,-2.0,-9.0,-17.0,-5.0,4.0,1.0,1651085058746468.0
1.0,1.0,-1.0,13.0,18.0,-3.0,-11.0,-6.0,1651085058746468.0
-2.0,-2.0,3.0,4.0,-3.0,3.0,2.0,1.0,1651085058747343.0
1.0,5.0,-2.0,-8.0,4.0,2.0,0.0,2.0,1651085058747343.0
-1.0,2.0,3.0,-15.0,-27.0,-9.0,-3.0,-3.0,1651085058754448.0
2.0,0.0,10.0,27.0,33.0,16.0,3.0,-5.0,1651085058754448.0
-1.0,1.0,-5.0,10.0,1.0,-2.0,4.0,2.0,1651085058761324.0
2.0,3.0,4.0,-9.0,-2.0,-3.0,-6.0,2.0,1651085058761324.0
-4.0,-17.0,-20.0,-16.0,-1.0,1.0,5.0,0.0,1651085058776389.0
1.0,3.0,14.0,18.0,8.0,0.0,-9.0,-5.0,1651085058776389.0
0.0,-9.0,0.0,-14.0,-8.0,-4.0,0.0,2.0,1651085058777256.0
-5.0,15.0,3.0,19.0,10.0,0.0,-1.0,-3.0,1651085058777256.0
4.0,3.0,5.0,-9.0,-18.0,-8.0,-5.0,0.0,1651085058799232.0
-4.0,-6.0,-35.0,-11.0,-13.0,-2.0,14.0,20.0,1651085058799232.0
0.0,4.0,17.0,3.0,11.0,2.0,-6.0,4.0,1651085058800264.0
-1.0,-8.0,-13.0,-18.0,-19.0,-8.0,-3.0,-7.0,1651085058800264.0
1.0,6.0,11.0,16.0,12.0,3.0,2.0,6.0,1651085058812235.0
-1.0,-4.0,-8.0,-8.0,-8.0,-6.0,-8.0,-15.0,1651085058812235.0
3.0,6.0,9.0,9.0,6.0,3.0,7.0,-2.0,1651085058821210.0
1.0,-2.0,3.0,3.0,-4.0,-2.0,6.0,11.0,1651085058821210.0
-5.0,-5.0,-8.0,-1.0,5.0,-2.0,-5.0,-9.0,1651085058836540.0
3.0,0.0,9.0,-4.0,-3.0,1.0,4.0,2.0,1651085058836540.0
-1.0,-3.0,-9.0,-10.0,-9.0,-2.0,2.0,-1.0,1651085058837540.0
-1.0,1.0,-13.0,1.0,1.0,0.0,-10.0,-7.0,1651085058837540.0
0.0,4.0,4.0,5.0,-5.0,-3.0,-3.0,1.0,1651085058859234.0
-1.0,-2.0,10.0,-3.0,6.0,0.0,-2.0,-9.0,1651085058859234.0
0.0,4.0,-2.0,-3.0,-2.0,0.0,6.0,10.0,1651085058860234.0
-2.0,-3.0,-2.0,9.0,3.0,-2.0,-1.0,9.0,1651085058860234.0
3.0,5.0,-1.0,-9.0,-11.0,-2.0,7.0,-12.0,1651085058872477.0
-7.0,-5.0,6.0,-3.0,-4.0,-4.0,-7.0,27.0,1651085058872477.0
0.0,2.0,4.0,6.0,-3.0,1.0,0.0,-7.0,1651085058881803.0
-1.0,-3.0,6.0,-6.0,-1.0,1.0,0.0,-5.0,1651085058881803.0
-2.0,-3.0,-9.0,-5.0,-4.0,0.0,2.0,-5.0,1651085058895235.0
-2.0,0.0,-16.0,0.0,-6.0,-9.0,-8.0,-12.0,1651085058895235.0
0.0,-9.0,-1.0,3.0,7.0,0.0,-7.0,-1.0,1651085058902773.0
-2.0,6.0,1.0,-4.0,-5.0,-2.0,-1.0,1.0,1651085058902773.0
0.0,6.0,23.0,17.0,7.0,1.0,-4.0,3.0,1651085058919240.0
0.0,-3.0,-20.0,-28.0,-14.0,1.0,6.0,-7.0,1651085058919240.0
-1.0,-2.0,0.0,8.0,4.0,1.0,0.0,2.0,1651085058920240.0
2.0,-3.0,7.0,-2.0,4.0,0.0,0.0,-5.0,1651085058920240.0
1.0,-1.0,-2.0,10.0,6.0,2.0,0.0,2.0,1651085058933225.0
2.0,4.0,16.0,1.0,-5.0,0.0,0.0,-1.0,1651085058933225.0
1.0,4.0,11.0,3.0,2.0,-1.0,0.0,-3.0,1651085058942368.0
