,EMG_s0,EMG_s1,EMG_s2,EMG_s3,EMG_s4,EMG_s5,EMG_s6,EMG_s7,timestamp,signal
0,0.0,-1.0,-3.0,-1.0,5.0,8.0,0.0,1.0,1650911605848127.0,0
1,-1.0,-1.0,-1.0,-3.0,-14.0,0.0,0.0,-2.0,1650911605848127.0,0
2,1.0,-2.0,0.0,-3.0,-14.0,-7.0,-3.0,-1.0,1650911605856994.0,0
3,-1.0,-1.0,-2.0,-1.0,1.0,1.0,-1.0,-2.0,1650911605856994.0,0
4,1.0,0.0,-1.0,5.0,17.0,5.0,2.0,-1.0,1650911605872164.0,0
5,-1.0,-1.0,-1.0,0.0,4.0,4.0,-1.0,1.0,1650911605872164.0,0
6,0.0,1.0,-1.0,-4.0,-4.0,1.0,0.0,-2.0,1650911605873008.0,0
7,-1.0,0.0,1.0,0.0,-9.0,-6.0,0.0,0.0,1650911605873008.0,0
8,-3.0,-2.0,-2.0,-5.0,-11.0,-5.0,-3.0,-1.0,1650911605893983.0,0
9,2.0,-2.0,-5.0,-6.0,-9.0,-4.0,-2.0,0.0,1650911605893983.0,0
10,0.0,-1.0,0.0,5.0,14.0,18.0,-1.0,-1.0,1650911605894984.0,0
11,0.0,0.0,1.0,5.0,21.0,-16.0,-1.0,0.0,1650911605894984.0,0
12,8.0,2.0,3.0,6.0,4.0,14.0,4.0,0.0,1650911605908306.0,0
13,-18.0,-4.0,-2.0,-1.0,12.0,1.0,1.0,0.0,1650911605908306.0,0
14,1.0,0.0,-4.0,-5.0,-26.0,-9.0,-3.0,0.0,1650911605916471.0,0
15,0.0,-2.0,-2.0,-6.0,-9.0,-4.0,-5.0,-2.0,1650911605916471.0,0
16,-1.0,-1.0,-1.0,-2.0,1.0,-12.0,-2.0,-1.0,1650911605931177.0,0
17,5.0,0.0,1.0,3.0,3.0,7.0,1.0,0.0,1650911605931177.0,0
18,1.0,-2.0,0.0,3.0,10.0,6.0,1.0,0.0,1650911605933044.0,0
19,-4.0,-1.0,-2.0,0.0,-7.0,-5.0,-2.0,-1.0,1650911605933044.0,0
20,0.0,1.0,0.0,-3.0,-3.0,0.0,-1.0,0.0,1650911605953224.0,0
21,0.0,-1.0,-3.0,-4.0,-8.0,4.0,-1.0,-2.0,1650911605953224.0,0
22,0.0,2.0,0.0,1.0,-1.0,-2.0,2.0,2.0,1650911605959857.0,0
23,3.0,0.0,0.0,5.0,7.0,12.0,1.0,0.0,1650911605959857.0,0
24,-5.0,-2.0,1.0,2.0,16.0,-4.0,-1.0,0.0,1650911605976306.0,0
25,0.0,1.0,-1.0,-2.0,0.0,0.0,-3.0,-1.0,1650911605976306.0,0
26,-1.0,-1.0,-3.0,-6.0,-17.0,-6.0,-1.0,-1.0,1650911605977320.0,0
27,-1.0,-1.0,-2.0,-1.0,-6.0,-3.0,-1.0,-1.0,1650911605977320.0,0
28,-2.0,0.0,1.0,-1.0,-2.0,0.0,-1.0,1.0,1650911605998687.0,0
29,2.0,-2.0,-1.0,0.0,-1.0,3.0,-2.0,0.0,1650911605998687.0,0
30,0.0,-1.0,0.0,1.0,8.0,-7.0,2.0,0.0,1650911606000522.0,0
31,1.0,-1.0,-1.0,-3.0,-2.0,10.0,0.0,1.0,1650911606000522.0,0
32,-3.0,-2.0,0.0,-2.0,-18.0,-11.0,-1.0,-1.0,1650911606013557.0,0
33,3.0,0.0,-1.0,-1.0,-4.0,-11.0,-3.0,-1.0,1650911606013557.0,0
34,3.0,0.0,0.0,-1.0,-7.0,-2.0,-3.0,-2.0,1650911606020979.0,0
35,-14.0,-3.0,0.0,3.0,13.0,9.0,2.0,0.0,1650911606020979.0,0
36,1.0,0.0,-1.0,0.0,15.0,12.0,3.0,0.0,1650911606036107.0,0
37,2.0,2.0,1.0,2.0,-10.0,-4.0,0.0,0.0,1650911606036107.0,0
38,-3.0,-3.0,-2.0,-4.0,-2.0,-7.0,-2.0,-2.0,1650911606036107.0,0
39,3.0,1.0,0.0,0.0,-8.0,-8.0,1.0,0.0,1650911606036107.0,0
40,0.0,0.0,-3.0,-4.0,5.0,0.0,-2.0,0.0,1650911606058425.0,0
41,-1.0,-2.0,0.0,1.0,-6.0,1.0,-2.0,-2.0,1650911606058425.0,0
42,1.0,1.0,-2.0,4.0,17.0,2.0,-2.0,-1.0,1650911606058425.0,0
43,2.0,0.0,1.0,0.0,-13.0,13.0,1.0,0.0,1650911606058425.0,0
44,-1.0,-1.0,1.0,1.0,14.0,-12.0,0.0,-1.0,1650911606081393.0,0
45,1.0,-1.0,0.0,-2.0,-5.0,-4.0,2.0,2.0,1650911606081393.0,0
46,-3.0,-2.0,-2.0,-5.0,4.0,-9.0,-2.0,-1.0,1650911606081393.0,0
47,1.0,0.0,-2.0,-2.0,-14.0,2.0,-3.0,-2.0,1650911606081393.0,0
48,-2.0,0.0,-1.0,-1.0,-2.0,8.0,0.0,-2.0,1650911606095358.0,0
49,0.0,1.0,0.0,-2.0,-7.0,-12.0,-2.0,-2.0,1650911606095358.0,0
50,-2.0,-1.0,0.0,3.0,7.0,2.0,1.0,-2.0,1650911606096354.0,0
51,3.0,0.0,1.0,0.0,16.0,2.0,0.0,-1.0,1650911606096354.0,0
52,1.0,-3.0,-1.0,-1.0,8.0,7.0,0.0,-2.0,1650911606118411.0,0
53,1.0,0.0,-2.0,-4.0,-14.0,-5.0,-3.0,-2.0,1650911606118411.0,0
54,-1.0,0.0,-1.0,-1.0,-14.0,-6.0,0.0,0.0,1650911606118411.0,0
55,1.0,0.0,-1.0,-1.0,-3.0,-6.0,-1.0,1.0,1650911606118411.0,0
56,0.0,0.0,0.0,-1.0,5.0,3.0,-1.0,1.0,1650911606133014.0,0
57,9.0,0.0,2.0,1.0,4.0,8.0,1.0,-1.0,1650911606133014.0,0
58,-20.0,-2.0,1.0,4.0,0.0,6.0,-1.0,-1.0,1650911606140749.0,0
59,0.0,-1.0,0.0,2.0,11.0,-15.0,0.0,-1.0,1650911606140749.0,0
60,-1.0,0.0,0.0,-2.0,-13.0,-1.0,-1.0,0.0,1650911606155898.0,0
61,-2.0,-1.0,0.0,-1.0,1.0,3.0,2.0,1.0,1650911606155898.0,0
62,7.0,3.0,-2.0,0.0,-2.0,2.0,2.0,-1.0,1650911606155898.0,0
63,1.0,-1.0,-3.0,-3.0,-8.0,-2.0,-3.0,-1.0,1650911606155898.0,0
64,-4.0,-3.0,-4.0,-2.0,-19.0,-5.0,-3.0,-2.0,1650911606178411.0,0
65,-1.0,0.0,0.0,2.0,11.0,0.0,0.0,-1.0,1650911606178411.0,0
66,3.0,-1.0,1.0,-2.0,2.0,8.0,1.0,2.0,1650911606178411.0,0
67,-2.0,2.0,1.0,-1.0,-4.0,15.0,1.0,0.0,1650911606178411.0,0
68,2.0,0.0,-2.0,-4.0,-9.0,-21.0,-3.0,-1.0,1650911606201870.0,0
69,-1.0,-1.0,-1.0,0.0,-5.0,-6.0,-4.0,-1.0,1650911606201870.0,0
70,-5.0,0.0,0.0,-1.0,-2.0,-7.0,-4.0,-3.0,1650911606201870.0,0
71,-1.0,0.0,1.0,6.0,13.0,12.0,2.0,1.0,1650911606201870.0,0
72,-1.0,1.0,1.0,6.0,15.0,13.0,3.0,1.0,1650911606215887.0,0
73,-1.0,-2.0,-3.0,2.0,-3.0,2.0,2.0,1.0,1650911606215887.0,0
74,0.0,0.0,-2.0,-4.0,-10.0,-7.0,-2.0,-1.0,1650911606215887.0,0
75,0.0,0.0,-4.0,-4.0,-10.0,-6.0,-4.0,-3.0,1650911606215887.0,0
76,-3.0,1.0,1.0,3.0,6.0,-1.0,-1.0,-3.0,1650911606238357.0,0
77,-3.0,0.0,-2.0,0.0,12.0,9.0,1.0,0.0,1650911606238357.0,0
78,3.0,-1.0,-2.0,-6.0,-11.0,-7.0,-2.0,-1.0,1650911606238357.0,0
79,1.0,-2.0,-1.0,-5.0,-13.0,-9.0,-2.0,-2.0,1650911606238357.0,0
80,1.0,-2.0,-1.0,-2.0,19.0,2.0,-1.0,-1.0,1650911606260984.0,0
81,-10.0,1.0,1.0,4.0,2.0,7.0,1.0,-2.0,1650911606260984.0,0
82,3.0,-1.0,1.0,7.0,23.0,9.0,3.0,1.0,1650911606261846.0,0
83,1.0,1.0,1.0,-1.0,1.0,-8.0,0.0,0.0,1650911606261846.0,0
84,-2.0,-1.0,-5.0,-6.0,-18.0,-10.0,-3.0,0.0,1650911606276026.0,0
85,1.0,-2.0,-1.0,-4.0,-11.0,-6.0,-1.0,-2.0,1650911606276026.0,0
86,0.0,-2.0,0.0,1.0,6.0,18.0,-1.0,0.0,1650911606276026.0,0
87,-2.0,-2.0,0.0,1.0,10.0,-11.0,1.0,-1.0,1650911606276026.0,0
88,2.0,-2.0,1.0,1.0,-15.0,-11.0,-1.0,-1.0,1650911606298535.0,0
89,-1.0,-3.0,-2.0,-6.0,-16.0,4.0,-2.0,-1.0,1650911606298535.0,0
90,1.0,1.0,2.0,1.0,10.0,-4.0,-1.0,1.0,1650911606298535.0,0
91,3.0,2.0,0.0,1.0,10.0,2.0,-1.0,0.0,1650911606298535.0,0
92,-1.0,0.0,-1.0,0.0,-6.0,11.0,0.0,2.0,1650911606321196.0,0
93,4.0,0.0,-1.0,-2.0,4.0,-6.0,-2.0,0.0,1650911606321196.0,0
94,-8.0,-2.0,-3.0,-3.0,-15.0,-14.0,-1.0,-2.0,1650911606322074.0,0
95,-1.0,-1.0,0.0,3.0,7.0,1.0,1.0,-1.0,1650911606322074.0,0
96,-1.0,1.0,0.0,2.0,9.0,5.0,1.0,1.0,1650911606335829.0,0
97,2.0,1.0,-1.0,0.0,7.0,3.0,-1.0,1.0,1650911606335829.0,0
98,2.0,-2.0,-2.0,-5.0,-11.0,-6.0,-4.0,-1.0,1650911606335829.0,0
99,-3.0,-2.0,-3.0,-10.0,-19.0,-6.0,-5.0,-1.0,1650911606335829.0,0
100,-2.0,0.0,0.0,-1.0,-25.0,1.0,1.0,-1.0,1650911606358242.0,0
101,-1.0,1.0,5.0,7.0,19.0,11.0,5.0,0.0,1650911606358242.0,0
102,3.0,3.0,4.0,9.0,33.0,13.0,4.0,2.0,1650911606359115.0,0
103,5.0,-1.0,-1.0,1.0,-7.0,-9.0,-2.0,2.0,1650911606359115.0,0
104,-17.0,-3.0,-4.0,-5.0,-1.0,9.0,-1.0,-2.0,1650911606381546.0,0
105,0.0,-1.0,-2.0,-8.0,-16.0,-18.0,-4.0,-2.0,1650911606381546.0,0
106,1.0,-1.0,-3.0,-2.0,-5.0,-7.0,-3.0,-2.0,1650911606381546.0,0
107,-1.0,-1.0,-2.0,-2.0,-2.0,1.0,-2.0,-1.0,1650911606381546.0,0
108,5.0,-2.0,-2.0,-4.0,-17.0,-16.0,-6.0,-2.0,1650911606396399.0,0
109,0.0,0.0,-1.0,4.0,4.0,-3.0,1.0,-3.0,1650911606396399.0,0
110,-2.0,1.0,1.0,7.0,21.0,23.0,5.0,1.0,1650911606396399.0,0
111,1.0,0.0,4.0,5.0,18.0,23.0,4.0,2.0,1650911606396399.0,0
112,3.0,-1.0,-1.0,1.0,-3.0,-9.0,0.0,0.0,1650911606419064.0,0
113,-2.0,1.0,-1.0,-2.0,0.0,1.0,-1.0,0.0,1650911606419064.0,0
114,3.0,-1.0,-4.0,-10.0,-18.0,-16.0,-6.0,-2.0,1650911606419064.0,0
115,-4.0,-1.0,-2.0,-2.0,-15.0,-8.0,-2.0,-1.0,1650911606419064.0,0
116,1.0,0.0,-1.0,1.0,8.0,1.0,-1.0,-1.0,1650911606441066.0,0
117,-1.0,1.0,-2.0,2.0,5.0,0.0,-1.0,-1.0,1650911606441066.0,0
118,1.0,1.0,2.0,3.0,2.0,5.0,2.0,0.0,1650911606441066.0,0
119,-2.0,-1.0,-2.0,-2.0,1.0,-2.0,-1.0,1.0,1650911606441066.0,0
120,2.0,-2.0,-1.0,-2.0,-7.0,-6.0,-2.0,-2.0,1650911606456055.0,0
121,0.0,-3.0,-3.0,-1.0,-1.0,1.0,-3.0,-1.0,1650911606456055.0,0
122,9.0,-1.0,0.0,-1.0,-4.0,0.0,0.0,-1.0,1650911606456055.0,0
123,-17.0,-3.0,-3.0,-1.0,8.0,-3.0,0.0,0.0,1650911606456055.0,0
124,4.0,3.0,1.0,3.0,6.0,9.0,3.0,2.0,1650911606477767.0,0
125,-1.0,-3.0,-1.0,-3.0,-3.0,-3.0,-1.0,1.0,1650911606477767.0,0
126,-3.0,-2.0,0.0,-5.0,-18.0,11.0,-4.0,-1.0,1650911606478720.0,0
127,3.0,0.0,-2.0,-1.0,7.0,-30.0,-6.0,-3.0,1650911606478720.0,0
128,0.0,0.0,1.0,2.0,-12.0,5.0,1.0,-1.0,1650911606500994.0,0
129,0.0,3.0,4.0,9.0,30.0,19.0,7.0,2.0,1650911606500994.0,0
130,-1.0,-1.0,0.0,1.0,-1.0,-3.0,4.0,1.0,1650911606500994.0,0
131,4.0,0.0,-1.0,-1.0,-2.0,2.0,0.0,0.0,1650911606500994.0,0
132,-1.0,-1.0,-2.0,-1.0,6.0,-9.0,-3.0,-2.0,1650911606515995.0,0
133,0.0,-2.0,-3.0,-2.0,-15.0,-4.0,-6.0,-3.0,1650911606515995.0,0
134,-2.0,-2.0,-1.0,-3.0,-4.0,-3.0,-2.0,-1.0,1650911606515995.0,0
135,1.0,0.0,2.0,-1.0,-8.0,5.0,2.0,-1.0,1650911606515995.0,0
136,1.0,0.0,0.0,1.0,7.0,2.0,-1.0,0.0,1650911606538285.0,0
137,1.0,-2.0,1.0,1.0,2.0,-4.0,1.0,1.0,1650911606538285.0,0
138,-4.0,-1.0,-1.0,0.0,-2.0,-8.0,-2.0,0.0,1650911606538285.0,0
139,1.0,-2.0,-1.0,0.0,-8.0,6.0,-1.0,-1.0,1650911606538285.0,0
140,0.0,1.0,3.0,2.0,2.0,6.0,0.0,2.0,1650911606560549.0,0
141,-3.0,0.0,0.0,-2.0,9.0,-10.0,-1.0,-2.0,1650911606560549.0,0
142,-1.0,-1.0,-4.0,-1.0,4.0,0.0,0.0,0.0,1650911606561547.0,0
143,3.0,0.0,0.0,2.0,-3.0,6.0,2.0,-1.0,1650911606561547.0,0
144,0.0,0.0,-1.0,1.0,8.0,8.0,2.0,0.0,1650911606575828.0,0
145,0.0,-2.0,-1.0,-5.0,-19.0,-3.0,-5.0,0.0,1650911606575828.0,0
146,7.0,-1.0,-1.0,-3.0,-9.0,-14.0,-3.0,-1.0,1650911606575828.0,0
147,-6.0,0.0,0.0,3.0,8.0,14.0,2.0,1.0,1650911606575828.0,0
148,1.0,2.0,1.0,3.0,7.0,0.0,2.0,2.0,1650911606598130.0,0
149,-1.0,0.0,-1.0,-3.0,1.0,-7.0,0.0,0.0,1650911606598130.0,0
150,-1.0,-2.0,-2.0,0.0,-14.0,-5.0,-1.0,-2.0,1650911606598968.0,0
151,2.0,-2.0,0.0,-2.0,1.0,-4.0,-3.0,-2.0,1650911606598968.0,0
152,-2.0,-2.0,0.0,0.0,4.0,7.0,-1.0,-1.0,1650911606621466.0,0
153,0.0,1.0,-1.0,0.0,1.0,15.0,1.0,1.0,1650911606621466.0,0
154,-3.0,0.0,0.0,-2.0,-4.0,-13.0,-1.0,-1.0,1650911606621466.0,0
155,3.0,0.0,0.0,1.0,1.0,-14.0,-2.0,0.0,1650911606621466.0,0
156,-2.0,-3.0,-1.0,0.0,0.0,1.0,-1.0,-1.0,1650911606637611.0,0
157,0.0,1.0,2.0,3.0,6.0,3.0,1.0,0.0,1650911606637611.0,0
158,-4.0,-1.0,-2.0,-4.0,-13.0,2.0,0.0,0.0,1650911606637611.0,0
159,-1.0,0.0,-1.0,-3.0,-6.0,-4.0,-3.0,0.0,1650911606637611.0,0
160,0.0,-2.0,-4.0,-4.0,-5.0,-8.0,-4.0,-2.0,1650911606657997.0,0
161,-1.0,-1.0,2.0,4.0,1.0,9.0,1.0,-1.0,1650911606657997.0,0
162,-1.0,1.0,4.0,6.0,24.0,18.0,6.0,2.0,1650911606658834.0,0
163,0.0,-2.0,1.0,1.0,4.0,2.0,3.0,0.0,1650911606658834.0,0
164,-2.0,0.0,0.0,-2.0,-4.0,-12.0,-3.0,-2.0,1650911606681163.0,0
165,-2.0,-3.0,-3.0,-6.0,-18.0,-9.0,-3.0,-4.0,1650911606681163.0,0
166,-2.0,-1.0,-2.0,-2.0,13.0,-9.0,-5.0,-5.0,1650911606682028.0,0
167,0.0,1.0,-1.0,0.0,-20.0,17.0,1.0,-1.0,1650911606682028.0,0
168,3.0,-1.0,1.0,0.0,5.0,-4.0,3.0,2.0,1650911606696113.0,0
169,-10.0,0.0,1.0,4.0,9.0,-6.0,0.0,-1.0,1650911606696113.0,0
170,2.0,0.0,-1.0,-1.0,5.0,-2.0,0.0,1.0,1650911606696113.0,0
171,-2.0,-1.0,-2.0,-3.0,-3.0,-1.0,-2.0,-1.0,1650911606696113.0,0
172,-2.0,-3.0,-1.0,-1.0,-3.0,7.0,0.0,-2.0,1650911606718150.0,0
173,4.0,1.0,-1.0,-3.0,-16.0,-8.0,-1.0,0.0,1650911606718150.0,0
174,-2.0,-1.0,1.0,3.0,5.0,-3.0,-1.0,1.0,1650911606726140.0,0
175,-1.0,0.0,-1.0,3.0,20.0,-1.0,0.0,-1.0,1650911606726140.0,0
176,1.0,2.0,-1.0,1.0,-11.0,6.0,0.0,0.0,1650911606741068.0,0
177,0.0,-2.0,-2.0,-2.0,4.0,2.0,0.0,-1.0,1650911606741068.0,0
178,-2.0,-1.0,-1.0,-3.0,-12.0,-9.0,-3.0,-2.0,1650911606741068.0,0
179,0.0,1.0,-2.0,-3.0,-12.0,11.0,0.0,1.0,1650911606741068.0,0
180,-2.0,0.0,0.0,-1.0,11.0,-4.0,-2.0,0.0,1650911606756306.0,0
181,0.0,-1.0,0.0,4.0,7.0,3.0,4.0,2.0,1650911606756306.0,0
182,-1.0,-1.0,0.0,1.0,7.0,10.0,2.0,1.0,1650911606756306.0,0
183,1.0,1.0,0.0,0.0,1.0,-7.0,0.0,0.0,1650911606756306.0,0
184,-2.0,-1.0,-3.0,-5.0,-9.0,-3.0,-4.0,-2.0,1650911606778463.0,0
185,-3.0,0.0,-3.0,-5.0,-16.0,-6.0,-3.0,-3.0,1650911606778463.0,0
186,1.0,0.0,0.0,0.0,-3.0,-3.0,-3.0,1.0,1650911606778463.0,0
187,-2.0,-2.0,1.0,2.0,5.0,4.0,2.0,-1.0,1650911606778463.0,0
188,0.0,1.0,0.0,3.0,15.0,7.0,3.0,1.0,1650911606800735.0,0
189,3.0,1.0,-1.0,1.0,6.0,3.0,0.0,-1.0,1650911606800735.0,0
190,-1.0,-1.0,-2.0,-4.0,-11.0,-6.0,-2.0,-3.0,1650911606801604.0,0
191,0.0,-2.0,-3.0,-5.0,-23.0,-8.0,-3.0,-3.0,1650911606801604.0,0
192,-2.0,-3.0,-1.0,-2.0,-7.0,-2.0,-1.0,-1.0,1650911606815256.0,0
193,12.0,0.0,0.0,-2.0,4.0,-9.0,-3.0,-1.0,1650911606815256.0,0
194,-12.0,0.0,2.0,0.0,-7.0,4.0,4.0,-2.0,1650911606816222.0,0
195,2.0,2.0,1.0,3.0,24.0,4.0,1.0,2.0,1650911606816222.0,0
196,2.0,-2.0,-2.0,1.0,3.0,2.0,1.0,-1.0,1650911606838571.0,0
197,0.0,-1.0,-1.0,-3.0,-3.0,-2.0,-4.0,-1.0,1650911606838571.0,0
198,2.0,1.0,-1.0,1.0,1.0,-1.0,-3.0,0.0,1650911606838571.0,0
199,-1.0,0.0,-1.0,2.0,-2.0,0.0,0.0,-2.0,1650911606838571.0,0
200,-2.0,1.0,1.0,0.0,0.0,16.0,2.0,2.0,1650911606860911.0,0
201,-3.0,-3.0,-3.0,-4.0,-10.0,-17.0,0.0,1.0,1650911606860911.0,0
202,2.0,1.0,-2.0,-4.0,-12.0,-8.0,-1.0,0.0,1650911606860911.0,0
203,-2.0,-1.0,-1.0,0.0,0.0,-2.0,-1.0,-2.0,1650911606860911.0,0
204,1.0,1.0,-1.0,0.0,8.0,4.0,-2.0,0.0,1650911606874932.0,0
205,-4.0,1.0,1.0,2.0,-2.0,-1.0,0.0,0.0,1650911606874932.0,0
206,1.0,0.0,0.0,3.0,13.0,5.0,-2.0,0.0,1650911606875929.0,0
207,1.0,-2.0,0.0,-2.0,2.0,1.0,-1.0,-1.0,1650911606875929.0,0
208,0.0,-2.0,-1.0,0.0,3.0,16.0,-1.0,-1.0,1650911606898030.0,0
209,-2.0,-2.0,1.0,-1.0,-5.0,-20.0,0.0,-1.0,1650911606898030.0,0
210,2.0,-1.0,2.0,0.0,2.0,-1.0,1.0,-1.0,1650911606898868.0,0
211,0.0,1.0,-2.0,-1.0,1.0,3.0,1.0,-1.0,1650911606898868.0,0
212,-1.0,0.0,1.0,-1.0,-4.0,-9.0,-1.0,-2.0,1650911606921127.0,0
213,-3.0,-1.0,-1.0,1.0,-3.0,6.0,1.0,1.0,1650911606921127.0,0
214,1.0,-1.0,-1.0,1.0,1.0,2.0,-2.0,-4.0,1650911606921127.0,0
215,-14.0,-3.0,-1.0,-1.0,1.0,-6.0,-2.0,0.0,1650911606921127.0,0
216,1.0,0.0,-1.0,-3.0,-7.0,-3.0,-1.0,0.0,1650911606936481.0,0
217,1.0,0.0,-2.0,2.0,14.0,11.0,2.0,2.0,1650911606936481.0,0
218,-2.0,-1.0,0.0,2.0,3.0,3.0,1.0,-1.0,1650911606936481.0,0
219,2.0,-1.0,0.0,-3.0,-12.0,2.0,0.0,-2.0,1650911606936481.0,0
220,-1.0,-1.0,-2.0,-4.0,-12.0,-20.0,0.0,-2.0,1650911606958433.0,0
221,-2.0,0.0,-2.0,2.0,11.0,6.0,-2.0,-1.0,1650911606958433.0,0
222,2.0,1.0,0.0,0.0,3.0,-1.0,1.0,1.0,1650911606958433.0,0
223,1.0,1.0,1.0,1.0,0.0,-5.0,-2.0,1.0,1650911606958433.0,0
224,-2.0,-2.0,-1.0,-4.0,-12.0,-9.0,-1.0,-2.0,1650911606981219.0,0
225,0.0,-1.0,-1.0,-2.0,-2.0,11.0,-2.0,-2.0,1650911606981219.0,0
226,-1.0,-1.0,0.0,3.0,18.0,16.0,-1.0,0.0,1650911606982047.0,0
227,2.0,-1.0,1.0,0.0,7.0,-1.0,2.0,0.0,1650911606982047.0,0
228,1.0,-2.0,1.0,-1.0,10.0,-7.0,0.0,-1.0,1650911606995755.0,0
229,1.0,1.0,-1.0,0.0,-11.0,-2.0,0.0,-1.0,1650911606995755.0,0
230,-3.0,-4.0,-2.0,2.0,-6.0,-4.0,-1.0,-1.0,1650911606996042.0,0
231,1.0,-1.0,0.0,-3.0,-11.0,-1.0,-1.0,-1.0,1650911606996042.0,0
232,-1.0,0.0,2.0,-1.0,-1.0,-5.0,-1.0,-1.0,1650911607018517.0,0
233,6.0,-1.0,0.0,-2.0,-9.0,5.0,-1.0,0.0,1650911607018517.0,0
234,-4.0,-2.0,-8.0,-7.0,1.0,-13.0,0.0,-1.0,1650911607018517.0,0
235,2.0,1.0,4.0,3.0,11.0,-1.0,-1.0,-1.0,1650911607018517.0,0
236,-1.0,1.0,-1.0,5.0,6.0,8.0,1.0,0.0,1650911607041457.0,0
237,0.0,-1.0,-2.0,-1.0,-2.0,3.0,0.0,1.0,1650911607041457.0,0
238,1.0,0.0,3.0,-3.0,-14.0,-8.0,-2.0,-2.0,1650911607041457.0,0
239,-1.0,-4.0,-5.0,-7.0,-21.0,-1.0,-2.0,0.0,1650911607041457.0,0
240,-1.0,0.0,0.0,-1.0,-3.0,-7.0,1.0,-2.0,1650911607055837.0,0
241,-3.0,-3.0,3.0,7.0,30.0,12.0,2.0,1.0,1650911607055837.0,0
242,1.0,1.0,-1.0,2.0,4.0,10.0,-1.0,2.0,1650911607055837.0,0
243,-2.0,-1.0,0.0,-1.0,-13.0,-12.0,-2.0,-3.0,1650911607055837.0,0
244,-1.0,-3.0,0.0,-2.0,5.0,0.0,-3.0,1.0,1650911607078078.0,0
245,-3.0,0.0,-3.0,-4.0,-16.0,0.0,0.0,-1.0,1650911607078078.0,0
246,-4.0,-2.0,-4.0,-6.0,2.0,8.0,0.0,-1.0,1650911607079077.0,0
247,4.0,1.0,2.0,2.0,2.0,-15.0,-1.0,-2.0,1650911607079077.0,0
248,0.0,1.0,0.0,2.0,-5.0,8.0,1.0,1.0,1650911607101355.0,0
249,-2.0,-1.0,0.0,2.0,11.0,-2.0,-1.0,-3.0,1650911607101355.0,0
250,3.0,2.0,3.0,0.0,-2.0,0.0,0.0,0.0,1650911607101355.0,0
251,-2.0,-1.0,-3.0,-1.0,-1.0,2.0,1.0,-2.0,1650911607101355.0,0
252,-1.0,-1.0,0.0,-2.0,4.0,-6.0,-1.0,1.0,1650911607115066.0,0
253,-1.0,1.0,1.0,1.0,-1.0,6.0,-1.0,0.0,1650911607115066.0,0
254,8.0,0.0,-2.0,-3.0,-1.0,3.0,-2.0,0.0,1650911607116078.0,0
255,-16.0,-3.0,-2.0,-1.0,-1.0,1.0,0.0,3.0,1650911607116078.0,0
256,-1.0,1.0,-1.0,1.0,-4.0,-5.0,-1.0,-1.0,1650911607139016.0,0
257,0.0,0.0,-1.0,-3.0,0.0,-2.0,-3.0,0.0,1650911607139016.0,0
258,-1.0,-1.0,2.0,3.0,-12.0,-13.0,-2.0,0.0,1650911607139016.0,0
259,3.0,2.0,1.0,2.0,17.0,20.0,1.0,0.0,1650911607139016.0,0
260,1.0,-2.0,1.0,-3.0,-1.0,-2.0,0.0,0.0,1650911607160191.0,0
261,-9.0,0.0,0.0,0.0,-4.0,-3.0,1.0,-2.0,1650911607160191.0,0
262,-2.0,0.0,-1.0,3.0,8.0,-16.0,-3.0,-1.0,1650911607161188.0,0
263,1.0,0.0,-3.0,-3.0,-12.0,-4.0,-1.0,-1.0,1650911607161188.0,0
264,-2.0,-1.0,-3.0,-4.0,-7.0,9.0,1.0,0.0,1650911607175916.0,0
265,2.0,0.0,1.0,-4.0,-16.0,-7.0,0.0,-2.0,1650911607175916.0,0
266,-4.0,-2.0,-4.0,2.0,17.0,6.0,2.0,0.0,1650911607183342.0,0
267,3.0,2.0,3.0,6.0,21.0,12.0,1.0,1.0,1650911607183342.0,0
268,1.0,0.0,-2.0,-2.0,-1.0,2.0,-1.0,-2.0,1650911607198551.0,0
269,0.0,-3.0,-1.0,-7.0,-17.0,-16.0,-6.0,-2.0,1650911607198551.0,0
270,-1.0,1.0,1.0,-1.0,-11.0,1.0,1.0,-2.0,1650911607198551.0,0
271,1.0,-1.0,-4.0,3.0,15.0,-1.0,0.0,-2.0,1650911607198551.0,0
272,0.0,-1.0,-1.0,4.0,10.0,4.0,1.0,0.0,1650911607221050.0,0
273,-2.0,-1.0,-2.0,-3.0,-6.0,-1.0,2.0,1.0,1650911607221050.0,0
274,-2.0,-1.0,-3.0,-5.0,-18.0,6.0,-4.0,-2.0,1650911607221050.0,0
275,1.0,-2.0,-2.0,-3.0,-26.0,-26.0,-1.0,-1.0,1650911607221050.0,0
276,8.0,1.0,1.0,2.0,1.0,3.0,-1.0,2.0,1650911607235023.0,0
277,-15.0,1.0,-2.0,4.0,21.0,-2.0,4.0,1.0,1650911607235023.0,0
278,1.0,-1.0,0.0,0.0,1.0,8.0,3.0,0.0,1650911607243666.0,0
279,0.0,-3.0,-1.0,-8.0,1.0,-7.0,-4.0,-1.0,1650911607243666.0,0
280,-1.0,-2.0,-2.0,-1.0,-23.0,-4.0,-3.0,-2.0,1650911607258982.0,0
281,5.0,-1.0,-1.0,4.0,10.0,0.0,-2.0,1.0,1650911607258982.0,0
282,-1.0,-1.0,-1.0,0.0,9.0,7.0,2.0,1.0,1650911607258982.0,0
283,-1.0,0.0,1.0,0.0,7.0,9.0,-1.0,0.0,1650911607258982.0,0
284,-4.0,0.0,-1.0,-3.0,-1.0,-1.0,1.0,1.0,1650911607280984.0,0
285,3.0,0.0,-1.0,-2.0,-8.0,-1.0,-1.0,-1.0,1650911607280984.0,0
286,-2.0,-1.0,0.0,2.0,15.0,-4.0,-1.0,0.0,1650911607280984.0,0
287,3.0,2.0,3.0,2.0,-21.0,1.0,2.0,-1.0,1650911607280984.0,0
288,0.0,2.0,-4.0,-3.0,3.0,-3.0,0.0,1.0,1650911607295216.0,0
289,1.0,1.0,-1.0,0.0,12.0,-5.0,0.0,1.0,1650911607295216.0,0
290,1.0,0.0,2.0,1.0,-18.0,-9.0,0.0,-1.0,1650911607303434.0,0
291,1.0,-2.0,-2.0,0.0,5.0,3.0,-2.0,0.0,1650911607303434.0,0
292,-2.0,-3.0,-1.0,-2.0,0.0,-1.0,-1.0,-3.0,1650911607317750.0,0
293,0.0,-2.0,-2.0,-6.0,-15.0,-10.0,-5.0,-2.0,1650911607317750.0,0
294,-1.0,-1.0,-1.0,-2.0,-13.0,-8.0,-3.0,0.0,1650911607318684.0,0
295,0.0,0.0,4.0,7.0,22.0,9.0,1.0,0.0,1650911607318684.0,0
296,-2.0,0.0,0.0,1.0,13.0,14.0,3.0,0.0,1650911607341365.0,0
297,2.0,1.0,-5.0,-1.0,-14.0,16.0,1.0,1.0,1650911607341365.0,0
298,-1.0,-3.0,3.0,-6.0,-8.0,-17.0,-2.0,-1.0,1650911607341365.0,0
299,-1.0,3.0,2.0,5.0,-1.0,7.0,2.0,0.0,1650911607341365.0,0
300,1.0,-2.0,0.0,6.0,23.0,8.0,-1.0,-1.0,1650911607355607.0,0
301,0.0,-1.0,1.0,4.0,32.0,0.0,4.0,1.0,1650911607355607.0,0
302,0.0,2.0,-7.0,-6.0,-28.0,3.0,0.0,-2.0,1650911607363392.0,0
303,-2.0,-3.0,-3.0,-5.0,-17.0,-8.0,-2.0,-2.0,1650911607363392.0,0
304,1.0,-2.0,1.0,-4.0,-6.0,-6.0,-3.0,0.0,1650911607377867.0,0
305,-1.0,0.0,0.0,-1.0,-3.0,-2.0,-4.0,-1.0,1650911607377867.0,0
306,1.0,-1.0,-1.0,-2.0,-7.0,2.0,0.0,-1.0,1650911607378831.0,0
307,0.0,-1.0,-5.0,-1.0,2.0,-8.0,0.0,2.0,1650911607378831.0,0
308,-4.0,2.0,1.0,3.0,0.0,4.0,2.0,1.0,1650911607401143.0,0
309,4.0,-1.0,1.0,2.0,8.0,3.0,1.0,-1.0,1650911607401143.0,0
310,0.0,1.0,1.0,1.0,10.0,1.0,0.0,0.0,1650911607401143.0,0
311,-2.0,-1.0,-5.0,-7.0,-15.0,0.0,-5.0,-2.0,1650911607401143.0,0
312,-1.0,-3.0,-3.0,-5.0,-18.0,-14.0,-6.0,-4.0,1650911607415019.0,0
313,1.0,2.0,-1.0,1.0,-1.0,7.0,0.0,1.0,1650911607415019.0,0
314,-2.0,-1.0,3.0,5.0,15.0,5.0,2.0,2.0,1650911607423032.0,0
315,-1.0,0.0,1.0,2.0,-9.0,0.0,1.0,1.0,1650911607423032.0,0
316,0.0,-1.0,3.0,5.0,12.0,0.0,0.0,0.0,1650911607438264.0,0
317,0.0,0.0,-1.0,0.0,3.0,15.0,1.0,-1.0,1650911607438264.0,0
318,-1.0,-1.0,-6.0,-6.0,-7.0,-24.0,-3.0,0.0,1650911607438264.0,0
319,2.0,-1.0,-3.0,-5.0,1.0,-8.0,-2.0,-2.0,1650911607438264.0,0
320,-1.0,0.0,1.0,0.0,-10.0,-3.0,-2.0,-1.0,1650911607460924.0,0
321,-2.0,-3.0,1.0,-2.0,-10.0,8.0,-1.0,-3.0,1650911607460924.0,0
322,0.0,-1.0,-2.0,3.0,-2.0,4.0,2.0,0.0,1650911607460924.0,0
323,0.0,-1.0,1.0,1.0,6.0,-2.0,2.0,1.0,1650911607460924.0,0
324,-1.0,1.0,-2.0,-4.0,-7.0,-2.0,0.0,0.0,1650911607491157.0,0
325,8.0,2.0,1.0,0.0,6.0,2.0,0.0,-1.0,1650911607491157.0,0
326,-7.0,1.0,2.0,-3.0,1.0,1.0,-2.0,-2.0,1650911607491995.0,0
327,0.0,-2.0,-2.0,-4.0,-7.0,-17.0,-4.0,-3.0,1650911607491995.0,0
328,-2.0,-2.0,-4.0,-6.0,-15.0,-7.0,-6.0,-2.0,1650911607498009.0,0
329,1.0,0.0,1.0,6.0,-1.0,1.0,4.0,1.0,1650911607498009.0,0
330,1.0,1.0,4.0,9.0,43.0,32.0,7.0,1.0,1650911607498975.0,0
331,0.0,-2.0,0.0,4.0,31.0,9.0,2.0,-1.0,1650911607498975.0,0
332,0.0,0.0,-5.0,-8.0,-36.0,-12.0,-1.0,1.0,1650911607520999.0,0
333,-6.0,-3.0,-1.0,-4.0,-17.0,-16.0,-5.0,-2.0,1650911607520999.0,0
334,1.0,-1.0,-2.0,0.0,1.0,-3.0,-1.0,-1.0,1650911607520999.0,0
335,-2.0,-3.0,-1.0,-1.0,10.0,9.0,1.0,2.0,1650911607520999.0,0
336,0.0,-1.0,1.0,0.0,3.0,2.0,0.0,1.0,1650911607544065.0,0
337,-2.0,-3.0,-2.0,-4.0,2.0,-13.0,-4.0,-4.0,1650911607544065.0,0
338,0.0,0.0,-1.0,-3.0,-5.0,16.0,-3.0,-2.0,1650911607544065.0,0
339,2.0,2.0,-1.0,-2.0,-5.0,-14.0,0.0,-2.0,1650911607544065.0,0
340,-2.0,1.0,-1.0,1.0,4.0,1.0,0.0,-1.0,1650911607558414.0,0
341,-7.0,0.0,0.0,2.0,-1.0,1.0,3.0,0.0,1650911607558414.0,0
342,-2.0,-1.0,-2.0,-2.0,-2.0,-11.0,-4.0,-1.0,1650911607558414.0,0
343,-3.0,1.0,-2.0,-8.0,-27.0,-8.0,-5.0,-2.0,1650911607558414.0,0
344,0.0,-1.0,-1.0,-1.0,-19.0,-3.0,-2.0,-2.0,1650911607580723.0,0
345,1.0,1.0,4.0,8.0,29.0,21.0,6.0,3.0,1650911607580723.0,0
346,2.0,1.0,1.0,9.0,32.0,24.0,6.0,1.0,1650911607581587.0,0
347,-1.0,-2.0,-1.0,-1.0,-16.0,-12.0,-2.0,0.0,1650911607581587.0,0
348,-3.0,-1.0,-3.0,-4.0,-4.0,-8.0,0.0,-1.0,1650911607604395.0,0
349,-1.0,0.0,-5.0,-10.0,-21.0,-14.0,-3.0,-2.0,1650911607604395.0,0
350,-1.0,0.0,-1.0,-8.0,-22.0,-16.0,-4.0,-2.0,1650911607604776.0,0
351,2.0,-1.0,2.0,2.0,-5.0,9.0,0.0,0.0,1650911607604776.0,0
352,1.0,1.0,4.0,11.0,32.0,10.0,3.0,1.0,1650911607617744.0,0
353,4.0,-2.0,-4.0,-1.0,9.0,4.0,-3.0,-1.0,1650911607617744.0,0
354,-19.0,-6.0,-1.0,-6.0,-5.0,-6.0,-3.0,-1.0,1650911607618776.0,0
355,-1.0,-3.0,-8.0,-6.0,-8.0,15.0,0.0,-1.0,1650911607618776.0,0
356,1.0,0.0,-1.0,-3.0,-7.0,-14.0,1.0,-1.0,1650911607640840.0,0
357,-2.0,0.0,5.0,4.0,-3.0,2.0,-3.0,1.0,1650911607640840.0,0
358,4.0,3.0,2.0,6.0,21.0,-9.0,2.0,1.0,1650911607640840.0,0
359,2.0,1.0,1.0,0.0,4.0,10.0,2.0,2.0,1650911607640840.0,0
360,-3.0,-2.0,-1.0,-5.0,-9.0,0.0,-1.0,0.0,1650911607663851.0,0
361,0.0,-3.0,-4.0,-9.0,-15.0,-8.0,-6.0,-3.0,1650911607663851.0,0
362,1.0,-4.0,-3.0,-2.0,-30.0,-6.0,-5.0,-5.0,1650911607663851.0,0
363,-3.0,2.0,2.0,7.0,23.0,8.0,5.0,-1.0,1650911607663851.0,0
364,3.0,3.0,3.0,8.0,28.0,24.0,5.0,2.0,1650911607678453.0,0
365,1.0,2.0,4.0,2.0,11.0,-9.0,2.0,5.0,1650911607678453.0,0
366,2.0,0.0,-4.0,-6.0,-26.0,-14.0,-6.0,3.0,1650911607678453.0,0
367,-4.0,-2.0,-2.0,-4.0,-4.0,-8.0,-2.0,-5.0,1650911607678453.0,0
368,0.0,-4.0,-6.0,0.0,3.0,-3.0,6.0,3.0,1650911607700483.0,0
369,-1.0,-2.0,-1.0,-1.0,2.0,6.0,-3.0,-2.0,1650911607700483.0,0
370,4.0,2.0,6.0,5.0,2.0,14.0,-10.0,-14.0,1650911607701318.0,0
371,1.0,1.0,0.0,1.0,9.0,-6.0,0.0,1.0,1650911607701318.0,0
372,-4.0,-1.0,-7.0,-6.0,-6.0,-12.0,-7.0,-4.0,1650911607724128.0,0
373,2.0,1.0,1.0,-1.0,-10.0,-5.0,11.0,10.0,1650911607724128.0,0
374,-1.0,-4.0,-8.0,-3.0,-4.0,8.0,0.0,1.0,1650911607724128.0,0
375,0.0,3.0,7.0,0.0,-8.0,-20.0,-9.0,-12.0,1650911607724128.0,0
376,5.0,1.0,-1.0,3.0,5.0,7.0,4.0,0.0,1650911607738571.0,0
377,3.0,1.0,-2.0,1.0,5.0,8.0,-1.0,-3.0,1650911607738571.0,0
378,-19.0,-2.0,7.0,4.0,17.0,-1.0,1.0,-1.0,1650911607738571.0,0
379,1.0,-5.0,-2.0,-3.0,-29.0,20.0,4.0,3.0,1650911607738571.0,0
380,-2.0,-1.0,-8.0,-1.0,8.0,1.0,-2.0,-5.0,1650911607760580.0,0
381,5.0,-6.0,-1.0,5.0,20.0,-8.0,5.0,10.0,1650911607760580.0,0
382,-8.0,9.0,0.0,1.0,-7.0,-7.0,1.0,0.0,1650911607761577.0,0
383,7.0,-8.0,-10.0,-5.0,-1.0,-3.0,-5.0,-7.0,1650911607761577.0,0
384,-8.0,6.0,12.0,-5.0,-10.0,0.0,-1.0,0.0,1650911607783168.0,0
385,9.0,-2.0,-2.0,-2.0,-17.0,-7.0,-2.0,6.0,1650911607783168.0,0
386,-18.0,3.0,-4.0,-4.0,-6.0,-2.0,2.0,1.0,1650911607791299.0,0
387,10.0,0.0,-2.0,-1.0,17.0,10.0,6.0,10.0,1650911607791299.0,0
388,6.0,14.0,3.0,5.0,5.0,7.0,4.0,-2.0,1650911607798292.0,0
389,3.0,5.0,9.0,10.0,24.0,5.0,0.0,-10.0,1650911607798292.0,0
390,12.0,7.0,1.0,-4.0,-12.0,-8.0,6.0,11.0,1650911607798292.0,0
391,1.0,-10.0,-11.0,-1.0,-9.0,-2.0,-3.0,0.0,1650911607798292.0,0
392,-24.0,-15.0,6.0,-10.0,-1.0,-8.0,-14.0,-19.0,1650911607821177.0,0
393,-6.0,4.0,2.0,-2.0,-10.0,0.0,-1.0,-8.0,1650911607821177.0,0
394,29.0,9.0,0.0,1.0,4.0,3.0,-1.0,27.0,1650911607821177.0,0
395,11.0,53.0,23.0,15.0,12.0,9.0,1.0,-6.0,1650911607821177.0,0
396,-10.0,-52.0,-27.0,-3.0,-6.0,-2.0,5.0,4.0,1650911607843570.0,0
397,-3.0,-17.0,9.0,6.0,5.0,11.0,4.0,6.0,1650911607843570.0,0
398,-7.0,14.0,-14.0,-12.0,-15.0,-11.0,3.0,-10.0,1650911607844570.0,0
399,6.0,4.0,18.0,0.0,4.0,-10.0,0.0,8.0,1650911607844570.0,0
400,-22.0,6.0,8.0,7.0,11.0,14.0,-2.0,-2.0,1650911607859007.0,0
401,-15.0,11.0,12.0,10.0,-2.0,-1.0,-5.0,-14.0,1650911607859007.0,0
402,30.0,-4.0,18.0,10.0,20.0,13.0,3.0,5.0,1650911607865036.0,0
403,-10.0,-2.0,-21.0,-8.0,-14.0,-7.0,6.0,21.0,1650911607865036.0,0
404,23.0,30.0,7.0,-2.0,-5.0,-14.0,-8.0,-25.0,1650911607881312.0,0
405,-9.0,1.0,-6.0,-9.0,-17.0,10.0,0.0,5.0,1650911607881312.0,0
406,8.0,22.0,23.0,12.0,15.0,1.0,-7.0,-16.0,1650911607881312.0,0
407,-54.0,-54.0,-12.0,-9.0,-2.0,-7.0,-5.0,1.0,1650911607881312.0,0
408,111.0,50.0,5.0,4.0,17.0,8.0,16.0,26.0,1650911607904482.0,0
409,-83.0,-22.0,15.0,-12.0,-11.0,-10.0,-29.0,-45.0,1650911607904482.0,1
410,-11.0,-25.0,-6.0,0.0,-10.0,-1.0,-4.0,-1.0,1650911607904482.0,1
411,-12.0,-11.0,-9.0,-7.0,-9.0,-12.0,-9.0,-10.0,1650911607904482.0,1
412,-16.0,0.0,3.0,5.0,-9.0,0.0,8.0,16.0,1650911607918645.0,1
413,52.0,8.0,-36.0,-13.0,-17.0,-15.0,8.0,2.0,1650911607918645.0,1
414,20.0,5.0,1.0,-2.0,-9.0,-4.0,-8.0,10.0,1650911607918645.0,1
415,-6.0,15.0,24.0,22.0,48.0,36.0,9.0,-39.0,1650911607918645.0,1
416,-5.0,-11.0,15.0,5.0,1.0,11.0,11.0,32.0,1650911607948804.0,1
417,1.0,-13.0,-33.0,-4.0,-13.0,-22.0,-2.0,-12.0,1650911607948804.0,1
418,-8.0,-4.0,-11.0,-17.0,-17.0,-19.0,-2.0,-5.0,1650911607949801.0,1
419,15.0,2.0,1.0,4.0,3.0,8.0,0.0,13.0,1650911607949801.0,1
420,3.0,9.0,7.0,-9.0,-5.0,4.0,0.0,7.0,1650911607963998.0,1
421,-26.0,-38.0,-19.0,-4.0,-2.0,-17.0,-2.0,5.0,1650911607963998.0,1
422,1.0,-2.0,4.0,11.0,23.0,17.0,5.0,5.0,1650911607963998.0,1
423,21.0,15.0,6.0,6.0,6.0,10.0,14.0,14.0,1650911607963998.0,1
424,-21.0,-34.0,-30.0,-11.0,-14.0,-10.0,-8.0,-12.0,1650911607978280.0,1
425,4.0,34.0,10.0,-10.0,-8.0,8.0,-1.0,9.0,1650911607978280.0,1
426,0.0,-3.0,0.0,-2.0,-4.0,-8.0,-7.0,-15.0,1650911607979122.0,1
427,-5.0,-8.0,-11.0,-11.0,-3.0,-13.0,-9.0,-13.0,1650911607979122.0,1
428,21.0,5.0,7.0,2.0,-6.0,-4.0,2.0,12.0,1650911608000301.0,1
429,-15.0,-13.0,-19.0,4.0,-4.0,-1.0,-6.0,-14.0,1650911608000301.0,1
430,-3.0,11.0,22.0,4.0,-11.0,0.0,6.0,3.0,1650911608001300.0,1
431,-9.0,-27.0,-22.0,-5.0,5.0,2.0,-4.0,-7.0,1650911608001300.0,1
432,-16.0,10.0,8.0,-8.0,-15.0,-10.0,-2.0,15.0,1650911608024193.0,1
433,35.0,7.0,28.0,7.0,9.0,4.0,5.0,9.0,1650911608024193.0,1
434,-3.0,-6.0,-23.0,-7.0,3.0,8.0,-2.0,-12.0,1650911608024193.0,1
435,-5.0,-13.0,-11.0,-4.0,-26.0,-2.0,-3.0,10.0,1650911608024193.0,1
436,-44.0,-17.0,-5.0,1.0,19.0,-18.0,-11.0,-21.0,1650911608038541.0,1
437,4.0,8.0,4.0,7.0,10.0,14.0,14.0,30.0,1650911608038541.0,1
438,-15.0,5.0,4.0,10.0,23.0,11.0,1.0,-45.0,1650911608038541.0,1
439,28.0,23.0,19.0,9.0,-1.0,-3.0,-2.0,23.0,1650911608038541.0,1
440,2.0,-14.0,-16.0,-12.0,-7.0,-7.0,-24.0,-45.0,1650911608069407.0,1
441,5.0,30.0,22.0,-6.0,-22.0,-4.0,2.0,9.0,1650911608069407.0,1
442,-17.0,-22.0,-23.0,-6.0,-8.0,-4.0,9.0,16.0,1650911608069407.0,1
443,0.0,0.0,21.0,9.0,30.0,19.0,6.0,6.0,1650911608069407.0,1
444,-2.0,10.0,10.0,15.0,17.0,-2.0,6.0,1.0,1650911608083213.0,1
445,1.0,-13.0,-17.0,-7.0,-14.0,-6.0,2.0,7.0,1650911608083213.0,1
446,-23.0,-2.0,13.0,-8.0,-8.0,-10.0,-8.0,-8.0,1650911608084211.0,1
447,53.0,1.0,-6.0,1.0,-14.0,0.0,5.0,5.0,1650911608084211.0,1
448,2.0,8.0,-3.0,-5.0,-1.0,0.0,1.0,13.0,1650911608098011.0,1
449,-16.0,-38.0,-25.0,-9.0,-6.0,-6.0,-17.0,-24.0,1650911608098011.0,1
450,2.0,-4.0,6.0,4.0,0.0,0.0,-5.0,6.0,1650911608105991.0,1
451,-1.0,6.0,-22.0,-3.0,-2.0,-12.0,-4.0,-2.0,1650911608105991.0,1
452,16.0,22.0,9.0,10.0,6.0,7.0,2.0,-7.0,1650911608120549.0,1
453,-6.0,3.0,10.0,9.0,22.0,14.0,11.0,17.0,1650911608120549.0,1
454,25.0,-1.0,-29.0,-10.0,-8.0,9.0,1.0,10.0,1650911608121547.0,1
455,-37.0,-3.0,-2.0,-10.0,-16.0,-14.0,0.0,-2.0,1650911608121547.0,1
456,5.0,17.0,8.0,8.0,-4.0,-11.0,3.0,1.0,1650911608144093.0,1
457,-4.0,-1.0,0.0,-2.0,11.0,0.0,-1.0,-11.0,1650911608144093.0,1
458,-7.0,-12.0,1.0,1.0,-7.0,-1.0,0.0,13.0,1650911608144093.0,1
459,-5.0,-1.0,7.0,-6.0,-6.0,-4.0,-11.0,-25.0,1650911608144093.0,1
460,11.0,-5.0,8.0,5.0,8.0,11.0,17.0,27.0,1650911608157451.0,1
461,3.0,26.0,6.0,16.0,30.0,21.0,-4.0,-8.0,1650911608157451.0,1
462,-5.0,-23.0,-8.0,0.0,14.0,7.0,7.0,4.0,1650911608165490.0,1
463,3.0,-10.0,-17.0,-19.0,-16.0,-20.0,-6.0,6.0,1650911608165490.0,1
464,16.0,7.0,-12.0,-12.0,-32.0,-8.0,-6.0,7.0,1650911608180946.0,1
465,-30.0,-13.0,13.0,5.0,-18.0,-5.0,-17.0,-34.0,1650911608180946.0,1
466,27.0,19.0,8.0,-1.0,4.0,1.0,5.0,7.0,1650911608180946.0,1
467,-15.0,-7.0,-14.0,7.0,13.0,2.0,-5.0,-16.0,1650911608180946.0,1
468,-19.0,-16.0,-5.0,-11.0,9.0,-2.0,2.0,5.0,1650911608204416.0,1
469,22.0,17.0,7.0,4.0,2.0,5.0,10.0,17.0,1650911608204416.0,1
470,-10.0,13.0,8.0,3.0,0.0,-3.0,-3.0,-6.0,1650911608204416.0,1
471,0.0,2.0,5.0,4.0,3.0,6.0,5.0,9.0,1650911608204416.0,1
472,-22.0,-25.0,-18.0,-4.0,-11.0,-7.0,-11.0,-44.0,1650911608217696.0,1
473,11.0,-13.0,-14.0,-8.0,1.0,-16.0,-1.0,34.0,1650911608217696.0,1
474,-2.0,4.0,16.0,8.0,-2.0,-1.0,-6.0,-21.0,1650911608225937.0,1
475,17.0,17.0,33.0,4.0,5.0,-5.0,4.0,14.0,1650911608225937.0,1
476,-11.0,-22.0,-21.0,-1.0,0.0,13.0,0.0,-4.0,1650911608240995.0,1
477,9.0,11.0,12.0,-6.0,-11.0,-6.0,-8.0,-13.0,1650911608240995.0,1
478,6.0,-26.0,-27.0,-4.0,3.0,1.0,11.0,20.0,1650911608240995.0,1
479,10.0,25.0,30.0,-2.0,-15.0,-11.0,-5.0,4.0,1650911608240995.0,1
480,-5.0,12.0,-8.0,0.0,-21.0,-1.0,-7.0,-3.0,1650911608264532.0,1
481,7.0,-34.0,5.0,6.0,43.0,14.0,-4.0,-12.0,1650911608264532.0,1
482,-25.0,16.0,10.0,1.0,29.0,1.0,-8.0,-18.0,1650911608264532.0,1
483,-28.0,-19.0,-23.0,-9.0,-22.0,1.0,8.0,1.0,1650911608264532.0,1
484,-12.0,-4.0,6.0,11.0,18.0,9.0,-1.0,3.0,1650911608277575.0,1
485,12.0,16.0,2.0,-11.0,-24.0,-20.0,-3.0,1.0,1650911608277575.0,1
486,-5.0,3.0,-2.0,9.0,4.0,0.0,0.0,2.0,1650911608285763.0,1
487,9.0,14.0,16.0,-4.0,-14.0,-1.0,-3.0,3.0,1650911608285763.0,1
488,-8.0,-16.0,-15.0,-2.0,-9.0,-8.0,6.0,-3.0,1650911608301008.0,1
489,0.0,20.0,5.0,8.0,-2.0,6.0,9.0,11.0,1650911608301008.0,1
490,13.0,-5.0,-14.0,-9.0,-9.0,-4.0,-4.0,-6.0,1650911608301008.0,1
491,-16.0,-15.0,1.0,3.0,10.0,6.0,-7.0,-8.0,1650911608301008.0,1
492,14.0,17.0,26.0,8.0,7.0,17.0,0.0,6.0,1650911608324797.0,1
493,-4.0,-28.0,-46.0,-6.0,2.0,-16.0,-1.0,-4.0,1650911608324797.0,1
494,-1.0,4.0,3.0,0.0,-10.0,-6.0,2.0,8.0,1650911608324797.0,1
495,5.0,-2.0,-26.0,-8.0,-2.0,-10.0,-9.0,-18.0,1650911608324797.0,1
496,-15.0,-20.0,1.0,1.0,2.0,5.0,2.0,4.0,1650911608336870.0,1
497,20.0,14.0,4.0,1.0,3.0,7.0,4.0,2.0,1650911608336870.0,1
498,-15.0,-11.0,-20.0,-8.0,-23.0,-15.0,-2.0,3.0,1650911608345972.0,1
499,1.0,1.0,-4.0,-6.0,11.0,-11.0,-4.0,-10.0,1650911608345972.0,1
500,12.0,6.0,4.0,7.0,-3.0,11.0,2.0,11.0,1650911608359858.0,1
501,3.0,9.0,25.0,12.0,36.0,23.0,6.0,-2.0,1650911608359858.0,1
502,-7.0,1.0,6.0,2.0,0.0,5.0,8.0,14.0,1650911608367874.0,1
503,-2.0,-11.0,-14.0,-4.0,-5.0,-4.0,0.0,-2.0,1650911608367874.0,1
504,-9.0,-29.0,-23.0,-14.0,-17.0,-24.0,-11.0,-18.0,1650911608391159.0,1
505,-4.0,8.0,6.0,4.0,-17.0,-4.0,3.0,10.0,1650911608391159.0,1
506,13.0,4.0,9.0,-5.0,-9.0,2.0,-4.0,-7.0,1650911608391996.0,1
507,-14.0,-3.0,5.0,7.0,10.0,12.0,6.0,0.0,1650911608391996.0,1
508,38.0,18.0,6.0,6.0,25.0,0.0,11.0,12.0,1650911608397016.0,1
509,-12.0,-7.0,-6.0,-1.0,8.0,6.0,-1.0,-16.0,1650911608397016.0,1
510,19.0,2.0,12.0,9.0,2.0,-3.0,6.0,14.0,1650911608405948.0,1
511,-29.0,-19.0,-7.0,-8.0,-29.0,-6.0,-4.0,-13.0,1650911608405948.0,1
512,6.0,15.0,26.0,0.0,-1.0,4.0,2.0,10.0,1650911608421082.0,1
513,4.0,4.0,9.0,1.0,-10.0,8.0,4.0,7.0,1650911608421082.0,1
514,13.0,10.0,28.0,6.0,4.0,8.0,4.0,-1.0,1650911608421082.0,1
515,-3.0,-5.0,-27.0,-9.0,-10.0,-14.0,-5.0,-3.0,1650911608421082.0,1
516,-2.0,9.0,-1.0,6.0,20.0,2.0,2.0,6.0,1650911608443604.0,1
517,-1.0,-6.0,-23.0,-9.0,25.0,5.0,3.0,7.0,1650911608443604.0,1
518,-17.0,18.0,23.0,6.0,-23.0,3.0,-11.0,-29.0,1650911608444604.0,1
519,-3.0,-26.0,-15.0,-7.0,17.0,8.0,0.0,-7.0,1650911608444604.0,1
520,7.0,8.0,-4.0,-4.0,-19.0,-15.0,-6.0,-4.0,1650911608467073.0,1
521,-5.0,-4.0,2.0,-7.0,-22.0,-19.0,-2.0,0.0,1650911608467073.0,1
522,29.0,-4.0,-26.0,0.0,17.0,-2.0,15.0,30.0,1650911608467073.0,1
523,-23.0,-17.0,1.0,5.0,10.0,11.0,-7.0,-15.0,1650911608467073.0,1
524,-15.0,14.0,31.0,3.0,4.0,2.0,-2.0,-9.0,1650911608480993.0,1
525,25.0,-8.0,-40.0,-9.0,-11.0,1.0,3.0,19.0,1650911608480993.0,1
526,8.0,18.0,2.0,-9.0,-15.0,-8.0,-18.0,-52.0,1650911608480993.0,1
527,8.0,22.0,18.0,11.0,-2.0,3.0,12.0,27.0,1650911608480993.0,1
528,-23.0,-7.0,9.0,-10.0,-2.0,-1.0,-7.0,-2.0,1650911608504689.0,1
529,-12.0,-24.0,-14.0,-4.0,-7.0,-2.0,-7.0,-10.0,1650911608504689.0,1
530,-2.0,-14.0,-19.0,-1.0,-3.0,-7.0,0.0,8.0,1650911608504689.0,1
531,21.0,39.0,36.0,7.0,14.0,4.0,2.0,12.0,1650911608504689.0,1
532,-13.0,-21.0,-25.0,-3.0,-19.0,0.0,-6.0,-13.0,1650911608526216.0,1
533,-14.0,13.0,8.0,8.0,26.0,2.0,-2.0,-7.0,1650911608526216.0,1
534,-12.0,-17.0,5.0,-10.0,15.0,6.0,-1.0,-4.0,1650911608527247.0,1
535,11.0,19.0,14.0,13.0,-27.0,-9.0,3.0,7.0,1650911608527247.0,1
536,-1.0,1.0,-9.0,4.0,8.0,-2.0,2.0,6.0,1650911608540520.0,1
537,12.0,13.0,54.0,5.0,-10.0,-1.0,-3.0,-4.0,1650911608540520.0,1
538,-4.0,-20.0,-18.0,-4.0,3.0,8.0,1.0,12.0,1650911608541358.0,1
539,4.0,35.0,13.0,-1.0,15.0,-6.0,-1.0,-3.0,1650911608541358.0,1
540,-3.0,-16.0,-18.0,-8.0,-4.0,-5.0,-1.0,-8.0,1650911608564748.0,1
541,0.0,12.0,-6.0,-2.0,-24.0,-13.0,-3.0,-8.0,1650911608564748.0,1
542,3.0,4.0,3.0,-1.0,2.0,13.0,-1.0,6.0,1650911608564748.0,1
543,8.0,-33.0,-12.0,2.0,14.0,2.0,-4.0,-9.0,1650911608564748.0,1
544,-4.0,5.0,2.0,0.0,-2.0,5.0,5.0,4.0,1650911608586120.0,1
545,-8.0,15.0,14.0,-4.0,2.0,-11.0,1.0,0.0,1650911608586120.0,1
546,-15.0,-48.0,-41.0,-12.0,-19.0,-9.0,-9.0,-15.0,1650911608587115.0,1
547,18.0,16.0,7.0,11.0,21.0,12.0,8.0,9.0,1650911608587115.0,1
548,1.0,-25.0,-4.0,-3.0,7.0,2.0,5.0,15.0,1650911608600477.0,1
549,-7.0,-21.0,-28.0,2.0,1.0,6.0,-6.0,-22.0,1650911608600477.0,1
550,-9.0,17.0,27.0,4.0,-1.0,-10.0,-4.0,0.0,1650911608601507.0,1
551,-4.0,-19.0,0.0,-7.0,-11.0,-1.0,-5.0,-13.0,1650911608601507.0,1
552,23.0,11.0,-13.0,0.0,-4.0,0.0,0.0,3.0,1650911608624780.0,1
553,8.0,-1.0,13.0,-9.0,-18.0,-6.0,2.0,13.0,1650911608624780.0,1
554,-9.0,15.0,5.0,-8.0,-23.0,-12.0,2.0,2.0,1650911608625247.0,1
555,-15.0,-7.0,-10.0,7.0,20.0,16.0,-1.0,-6.0,1650911608625247.0,1
556,2.0,-18.0,-23.0,5.0,26.0,10.0,7.0,14.0,1650911608646563.0,1
557,5.0,-7.0,-4.0,-1.0,7.0,5.0,1.0,-18.0,1650911608646563.0,1
558,12.0,10.0,21.0,8.0,6.0,4.0,5.0,14.0,1650911608646563.0,1
559,-5.0,18.0,-22.0,-15.0,-8.0,-19.0,-3.0,6.0,1650911608646563.0,1
560,-10.0,-18.0,2.0,-9.0,-37.0,-14.0,-11.0,-14.0,1650911608660915.0,1
561,-4.0,15.0,14.0,5.0,5.0,7.0,2.0,4.0,1650911608660915.0,1
562,3.0,-7.0,-19.0,-4.0,9.0,-3.0,0.0,0.0,1650911608660915.0,1
563,5.0,1.0,-7.0,2.0,1.0,7.0,4.0,5.0,1650911608660915.0,1
564,-6.0,14.0,12.0,-3.0,-1.0,0.0,-2.0,-5.0,1650911608684263.0,1
565,-1.0,-14.0,2.0,-1.0,-1.0,13.0,1.0,0.0,1650911608684263.0,1
566,-11.0,1.0,-3.0,1.0,17.0,-11.0,0.0,5.0,1650911608684263.0,1
567,-11.0,-3.0,-18.0,-8.0,-23.0,6.0,-5.0,-9.0,1650911608684263.0,1
568,6.0,-7.0,-1.0,-5.0,11.0,-16.0,-3.0,-1.0,1650911608706543.0,1
569,0.0,11.0,2.0,-3.0,-5.0,-10.0,-3.0,-5.0,1650911608706543.0,1
570,9.0,13.0,1.0,5.0,6.0,15.0,6.0,10.0,1650911608706543.0,1
571,1.0,-4.0,0.0,-1.0,-7.0,-4.0,-1.0,-6.0,1650911608706543.0,1
572,-1.0,11.0,11.0,-4.0,-9.0,-15.0,-12.0,-12.0,1650911608720982.0,1
573,-1.0,31.0,19.0,2.0,-1.0,7.0,8.0,9.0,1650911608720982.0,1
574,-15.0,-24.0,-21.0,1.0,10.0,3.0,-1.0,21.0,1650911608720982.0,1
575,3.0,5.0,4.0,-12.0,-22.0,-8.0,-1.0,5.0,1650911608720982.0,1
576,-1.0,2.0,21.0,7.0,-6.0,5.0,0.0,0.0,1650911608744061.0,1
577,0.0,-1.0,-11.0,5.0,26.0,3.0,-2.0,4.0,1650911608744061.0,1
578,1.0,4.0,-4.0,1.0,7.0,13.0,0.0,-14.0,1650911608744061.0,1
579,5.0,13.0,24.0,3.0,3.0,5.0,3.0,6.0,1650911608744061.0,1
580,-5.0,-5.0,-7.0,-5.0,-12.0,-5.0,-2.0,-5.0,1650911608766049.0,1
581,-4.0,-8.0,-9.0,-6.0,-28.0,-21.0,-1.0,3.0,1650911608766049.0,1
582,4.0,28.0,17.0,5.0,-1.0,1.0,0.0,-5.0,1650911608767019.0,1
583,10.0,-28.0,-27.0,1.0,16.0,10.0,0.0,1.0,1650911608767019.0,1
584,-7.0,19.0,19.0,6.0,12.0,6.0,-1.0,-8.0,1650911608781111.0,1
585,-1.0,-22.0,-33.0,-4.0,-12.0,-1.0,1.0,3.0,1650911608781111.0,1
586,-9.0,-13.0,6.0,-10.0,-19.0,-12.0,-4.0,-6.0,1650911608781111.0,1
587,5.0,1.0,7.0,1.0,-4.0,-15.0,3.0,13.0,1650911608781111.0,1
588,1.0,-1.0,-9.0,-3.0,2.0,8.0,0.0,-4.0,1650911608804135.0,1
589,6.0,19.0,9.0,0.0,6.0,9.0,-5.0,-3.0,1650911608804135.0,1
590,-6.0,-4.0,3.0,3.0,-5.0,-8.0,-1.0,-12.0,1650911608804363.0,1
591,-11.0,-17.0,-4.0,7.0,19.0,-2.0,1.0,21.0,1650911608804363.0,1
592,3.0,-6.0,-8.0,5.0,11.0,7.0,3.0,1.0,1650911608826095.0,1
593,17.0,15.0,-8.0,-4.0,-8.0,-1.0,7.0,15.0,1650911608826095.0,1
594,7.0,-41.0,-22.0,-8.0,-2.0,2.0,-1.0,1.0,1650911608826540.0,1
595,1.0,5.0,-6.0,-5.0,-1.0,5.0,-3.0,-13.0,1650911608826540.0,1
596,-10.0,15.0,0.0,-6.0,-22.0,-5.0,0.0,0.0,1650911608840929.0,1
597,3.0,6.0,10.0,3.0,-3.0,-5.0,2.0,9.0,1650911608840929.0,1
598,-3.0,-10.0,-6.0,-4.0,-11.0,-1.0,-2.0,-2.0,1650911608840929.0,1
599,3.0,23.0,3.0,5.0,-1.0,-9.0,-1.0,-9.0,1650911608840929.0,1
600,10.0,5.0,5.0,1.0,24.0,26.0,6.0,12.0,1650911608864001.0,1
601,-13.0,-25.0,-7.0,7.0,8.0,-8.0,-2.0,-4.0,1650911608864001.0,1
602,1.0,17.0,4.0,-1.0,8.0,3.0,2.0,-1.0,1650911608864001.0,1
603,10.0,1.0,16.0,-2.0,-20.0,-10.0,-4.0,-2.0,1650911608864001.0,1
604,-3.0,7.0,5.0,4.0,-11.0,-11.0,-15.0,-25.0,1650911608886479.0,1
605,4.0,19.0,5.0,0.0,3.0,-3.0,-2.0,-5.0,1650911608886479.0,1
606,-30.0,-63.0,-32.0,-6.0,20.0,3.0,-1.0,-4.0,1650911608886479.0,1
607,6.0,7.0,2.0,-5.0,-12.0,-1.0,-5.0,-7.0,1650911608886479.0,1
608,2.0,-11.0,-19.0,-1.0,-1.0,0.0,6.0,5.0,1650911608901175.0,1
609,-20.0,-4.0,6.0,-6.0,3.0,6.0,-10.0,-11.0,1650911608901175.0,1
610,5.0,14.0,4.0,3.0,1.0,-12.0,3.0,-2.0,1650911608901175.0,1
611,-4.0,-22.0,2.0,-3.0,-4.0,-2.0,0.0,8.0,1650911608901175.0,1
612,-10.0,3.0,11.0,1.0,-11.0,2.0,2.0,3.0,1650911608924721.0,1
613,12.0,-3.0,3.0,-2.0,-9.0,-8.0,3.0,9.0,1650911608924721.0,1
614,-12.0,6.0,-15.0,-9.0,-17.0,-2.0,-5.0,-3.0,1650911608924721.0,1
615,-18.0,-22.0,7.0,0.0,9.0,1.0,-1.0,-22.0,1650911608924721.0,1
616,18.0,1.0,-11.0,6.0,11.0,-1.0,1.0,-1.0,1650911608946339.0,1
617,-4.0,4.0,12.0,-1.0,20.0,1.0,-7.0,-8.0,1650911608946339.0,1
618,15.0,23.0,24.0,14.0,-11.0,27.0,9.0,13.0,1650911608947212.0,1
619,8.0,7.0,7.0,4.0,11.0,-8.0,5.0,3.0,1650911608947212.0,1
620,-9.0,-2.0,-3.0,-8.0,-10.0,-4.0,-3.0,23.0,1650911608960841.0,1
621,-1.0,-12.0,0.0,-1.0,-10.0,8.0,0.0,-4.0,1650911608960841.0,1
622,17.0,27.0,13.0,3.0,10.0,-16.0,-6.0,-9.0,1650911608960841.0,1
623,1.0,-13.0,-6.0,9.0,5.0,14.0,11.0,22.0,1650911608960841.0,1
624,-12.0,16.0,13.0,-5.0,6.0,-12.0,1.0,-1.0,1650911608983423.0,1
625,-12.0,-12.0,-4.0,-2.0,-1.0,5.0,-4.0,-15.0,1650911608983423.0,1
626,3.0,-11.0,-26.0,-5.0,-12.0,0.0,-5.0,0.0,1650911608983423.0,1
627,-3.0,11.0,4.0,-5.0,-5.0,2.0,-6.0,-10.0,1650911608983423.0,1
628,10.0,-1.0,7.0,-2.0,0.0,-6.0,-2.0,-3.0,1650911609006621.0,1
629,-4.0,-9.0,-17.0,2.0,-5.0,-10.0,4.0,0.0,1650911609006621.0,1
630,-9.0,4.0,15.0,0.0,-9.0,-9.0,2.0,11.0,1650911609006621.0,1
631,-1.0,-25.0,-43.0,-7.0,18.0,8.0,1.0,-4.0,1650911609006621.0,1
632,3.0,-4.0,3.0,4.0,11.0,13.0,1.0,1.0,1650911609019784.0,1
633,4.0,1.0,1.0,0.0,-7.0,-3.0,0.0,2.0,1650911609019784.0,1
634,0.0,-8.0,-4.0,-6.0,4.0,-11.0,-6.0,-7.0,1650911609029003.0,1
635,-4.0,3.0,1.0,-7.0,-62.0,-17.0,-6.0,-3.0,1650911609029003.0,1
636,4.0,-1.0,-3.0,9.0,23.0,8.0,4.0,1.0,1650911609042812.0,1
637,2.0,10.0,1.0,4.0,32.0,21.0,6.0,7.0,1650911609042812.0,1
638,-3.0,-17.0,7.0,1.0,3.0,-5.0,2.0,-1.0,1650911609043814.0,1
639,-1.0,10.0,6.0,-4.0,-7.0,-5.0,-3.0,2.0,1650911609043814.0,1
640,1.0,-11.0,-13.0,-9.0,-22.0,-12.0,-4.0,-3.0,1650911609065709.0,1
641,-2.0,5.0,8.0,1.0,-12.0,-6.0,-4.0,-6.0,1650911609065709.0,1
642,0.0,5.0,-5.0,0.0,23.0,10.0,1.0,-1.0,1650911609066674.0,1
643,-4.0,-2.0,2.0,2.0,15.0,3.0,-6.0,-3.0,1650911609066674.0,1
644,-1.0,-5.0,-5.0,-1.0,-10.0,-1.0,3.0,-7.0,1650911609079864.0,1
645,-2.0,-8.0,-5.0,-10.0,-21.0,9.0,-2.0,28.0,1650911609079864.0,1
646,3.0,6.0,0.0,-5.0,-23.0,-23.0,-7.0,-8.0,1650911609087810.0,1
647,-1.0,-1.0,0.0,4.0,13.0,16.0,11.0,-2.0,1650911609087810.0,1
648,-1.0,4.0,7.0,6.0,27.0,7.0,2.0,1.0,1650911609103101.0,1
649,1.0,-2.0,2.0,6.0,10.0,9.0,1.0,-2.0,1650911609103101.0,1
650,1.0,5.0,5.0,1.0,-10.0,-11.0,-3.0,-4.0,1650911609104116.0,1
651,0.0,2.0,-5.0,-2.0,-7.0,-3.0,-2.0,2.0,1650911609104116.0,1
652,-3.0,-7.0,-9.0,-10.0,-2.0,-3.0,-5.0,-4.0,1650911609127098.0,1
653,-4.0,-5.0,0.0,-5.0,-19.0,-5.0,0.0,-7.0,1650911609127098.0,1
654,2.0,4.0,1.0,5.0,11.0,6.0,-1.0,1.0,1650911609127098.0,1
655,0.0,5.0,10.0,6.0,21.0,9.0,2.0,-2.0,1650911609127098.0,1
656,-2.0,-2.0,-7.0,-1.0,-16.0,-12.0,0.0,1.0,1650911609140229.0,1
657,2.0,-4.0,0.0,-4.0,-8.0,-5.0,-1.0,-2.0,1650911609140229.0,1
658,-1.0,6.0,-6.0,-2.0,7.0,8.0,5.0,0.0,1650911609148562.0,1
659,-1.0,-2.0,0.0,1.0,2.0,-9.0,0.0,3.0,1650911609148562.0,1
660,1.0,-4.0,-3.0,2.0,4.0,4.0,-1.0,-3.0,1650911609163751.0,1
661,-3.0,1.0,2.0,-1.0,0.0,-7.0,-4.0,-3.0,1650911609163751.0,1
662,-3.0,-2.0,-7.0,1.0,3.0,14.0,3.0,5.0,1650911609163751.0,1
663,-4.0,-5.0,-10.0,-10.0,-6.0,-4.0,-3.0,-5.0,1650911609163751.0,1
664,14.0,5.0,11.0,3.0,-14.0,3.0,-5.0,3.0,1650911609185975.0,1
665,-7.0,3.0,7.0,4.0,0.0,-20.0,-1.0,-4.0,1650911609185975.0,1
666,-2.0,2.0,4.0,-3.0,8.0,7.0,12.0,4.0,1650911609192794.0,1
667,6.0,2.0,-1.0,3.0,-1.0,0.0,-3.0,-4.0,1650911609192794.0,1
668,-8.0,-5.0,-17.0,-13.0,-9.0,-9.0,-4.0,-7.0,1650911609199885.0,1
669,-3.0,-17.0,-19.0,-13.0,-4.0,6.0,-5.0,0.0,1650911609199885.0,1
670,5.0,8.0,9.0,7.0,17.0,-3.0,-2.0,-4.0,1650911609215984.0,1
671,1.0,-3.0,-17.0,-1.0,-26.0,-2.0,7.0,-4.0,1650911609215984.0,1
672,-9.0,-4.0,-6.0,-1.0,6.0,1.0,-1.0,4.0,1650911609223865.0,1
673,-1.0,0.0,1.0,-4.0,10.0,12.0,1.0,-8.0,1650911609223865.0,1
674,7.0,10.0,28.0,15.0,-23.0,-23.0,-6.0,0.0,1650911609223865.0,1
675,-3.0,0.0,9.0,0.0,18.0,-1.0,-2.0,-1.0,1650911609223865.0,1
676,-2.0,-5.0,-12.0,0.0,8.0,13.0,2.0,1.0,1650911609246499.0,1
677,-1.0,-1.0,-11.0,-9.0,-5.0,-5.0,0.0,0.0,1650911609246499.0,1
678,-3.0,-9.0,-15.0,-19.0,-17.0,-3.0,-4.0,-3.0,1650911609246499.0,1
679,7.0,5.0,19.0,12.0,-4.0,-3.0,-2.0,5.0,1650911609246499.0,1
680,-14.0,11.0,40.0,31.0,5.0,1.0,6.0,1.0,1650911609259870.0,1
681,6.0,0.0,-7.0,2.0,26.0,7.0,3.0,7.0,1650911609259870.0,1
682,-1.0,-4.0,-29.0,-12.0,-6.0,13.0,0.0,-2.0,1650911609275664.0,1
683,-8.0,-12.0,-5.0,-18.0,-4.0,-16.0,-5.0,-4.0,1650911609275664.0,1
684,5.0,3.0,9.0,2.0,-6.0,-1.0,-1.0,1.0,1650911609283425.0,1
685,-1.0,0.0,-1.0,8.0,-4.0,-1.0,2.0,-1.0,1650911609283425.0,1
686,-2.0,-2.0,7.0,2.0,2.0,20.0,0.0,1.0,1650911609283425.0,1
687,-3.0,1.0,-10.0,-1.0,-8.0,-17.0,-4.0,-9.0,1650911609283425.0,1
688,2.0,-6.0,-26.0,-23.0,-6.0,-4.0,-3.0,-1.0,1650911609306583.0,1
689,-1.0,1.0,9.0,6.0,-2.0,1.0,1.0,2.0,1650911609306583.0,1
690,6.0,3.0,24.0,15.0,31.0,16.0,4.0,4.0,1650911609306583.0,1
691,-4.0,-10.0,-14.0,3.0,-26.0,-8.0,0.0,2.0,1650911609306583.0,1
692,-3.0,-6.0,-2.0,-13.0,9.0,-1.0,0.0,-2.0,1650911609319988.0,1
693,0.0,5.0,6.0,-2.0,-14.0,-8.0,-2.0,-3.0,1650911609319988.0,1
694,-2.0,3.0,13.0,1.0,-3.0,-3.0,-4.0,-2.0,1650911609329039.0,1
695,-1.0,6.0,19.0,13.0,16.0,10.0,2.0,1.0,1650911609329039.0,1
696,-1.0,-7.0,-42.0,-18.0,0.0,3.0,3.0,-1.0,1650911609342719.0,1
697,-1.0,-5.0,-4.0,1.0,7.0,0.0,1.0,0.0,1650911609342719.0,1
698,-2.0,-3.0,-11.0,-6.0,-29.0,-22.0,-4.0,-1.0,1650911609343678.0,1
699,1.0,3.0,15.0,-2.0,-5.0,3.0,-2.0,3.0,1650911609343678.0,1
700,3.0,3.0,3.0,9.0,17.0,9.0,2.0,1.0,1650911609366012.0,1
701,0.0,2.0,0.0,-1.0,12.0,3.0,2.0,-1.0,1650911609366012.0,1
702,-4.0,-6.0,5.0,2.0,-12.0,-6.0,-4.0,-4.0,1650911609366869.0,1
703,0.0,-11.0,-45.0,-26.0,-8.0,-5.0,-6.0,-3.0,1650911609366869.0,1
704,-2.0,4.0,11.0,0.0,-10.0,-5.0,-1.0,-1.0,1650911609389075.0,1
705,1.0,-3.0,4.0,2.0,-18.0,-10.0,-3.0,-3.0,1650911609389075.0,1
706,-5.0,-4.0,-2.0,5.0,-6.0,14.0,1.0,-2.0,1650911609389075.0,1
707,3.0,4.0,8.0,6.0,30.0,3.0,2.0,3.0,1650911609389075.0,1
708,2.0,3.0,8.0,1.0,3.0,22.0,2.0,1.0,1650911609403793.0,1
709,-4.0,-14.0,-4.0,0.0,-21.0,-36.0,-2.0,-2.0,1650911609403793.0,1
710,3.0,9.0,6.0,6.0,7.0,4.0,-1.0,0.0,1650911609403793.0,1
711,-4.0,-1.0,-8.0,0.0,20.0,17.0,5.0,0.0,1650911609403793.0,1
712,4.0,0.0,16.0,11.0,-1.0,-7.0,3.0,2.0,1650911609426131.0,1
713,1.0,6.0,-5.0,-1.0,-3.0,4.0,0.0,1.0,1650911609426131.0,1
714,1.0,-4.0,-6.0,-17.0,-17.0,-12.0,-4.0,-1.0,1650911609426131.0,1
715,-1.0,2.0,4.0,4.0,2.0,1.0,-1.0,-1.0,1650911609426131.0,1
716,-2.0,-3.0,9.0,7.0,-9.0,-3.0,-3.0,-1.0,1650911609449327.0,1
717,5.0,3.0,-2.0,3.0,12.0,12.0,3.0,2.0,1650911609449327.0,1
718,-3.0,8.0,-4.0,-2.0,-7.0,-11.0,-1.0,-3.0,1650911609449327.0,1
719,-3.0,0.0,1.0,-7.0,2.0,4.0,-1.0,0.0,1650911609449327.0,1
720,3.0,-2.0,6.0,6.0,-4.0,-4.0,-2.0,-4.0,1650911609463375.0,1
721,1.0,-2.0,-5.0,-2.0,6.0,6.0,0.0,1.0,1650911609463375.0,1
722,-3.0,-9.0,-26.0,-10.0,9.0,-2.0,-1.0,0.0,1650911609463375.0,1
723,-2.0,1.0,16.0,7.0,-11.0,-5.0,-1.0,2.0,1650911609463375.0,1
724,-2.0,-1.0,-7.0,-6.0,-4.0,-13.0,-4.0,-3.0,1650911609486577.0,1
725,0.0,3.0,5.0,3.0,-2.0,7.0,1.0,-1.0,1650911609486577.0,1
726,2.0,2.0,8.0,5.0,12.0,8.0,4.0,2.0,1650911609486577.0,1
727,3.0,1.0,-11.0,-1.0,-8.0,0.0,1.0,3.0,1650911609486577.0,1
728,-2.0,-1.0,-3.0,1.0,0.0,-3.0,-2.0,0.0,1650911609508833.0,1
729,0.0,5.0,-8.0,-15.0,-12.0,7.0,-6.0,-5.0,1650911609508833.0,1
730,-2.0,-8.0,-4.0,-3.0,-4.0,-16.0,-1.0,-1.0,1650911609509801.0,1
731,1.0,5.0,15.0,11.0,18.0,0.0,1.0,1.0,1650911609509801.0,1
732,1.0,1.0,13.0,6.0,6.0,4.0,2.0,-1.0,1650911609523370.0,1
733,-3.0,-5.0,-17.0,-11.0,-16.0,1.0,0.0,0.0,1650911609523370.0,1
734,0.0,11.0,-7.0,-12.0,-13.0,-12.0,-4.0,-5.0,1650911609523370.0,1
735,-1.0,3.0,10.0,2.0,0.0,11.0,0.0,0.0,1650911609523370.0,1
736,1.0,-3.0,-12.0,1.0,18.0,1.0,3.0,2.0,1650911609545783.0,1
737,1.0,0.0,9.0,6.0,-2.0,1.0,0.0,2.0,1650911609545783.0,1
738,-2.0,-6.0,-5.0,-3.0,-9.0,-6.0,-3.0,-3.0,1650911609546749.0,1
739,-2.0,-2.0,-7.0,-7.0,-6.0,-7.0,-4.0,-2.0,1650911609546749.0,1
740,-2.0,1.0,9.0,0.0,-5.0,3.0,-1.0,-1.0,1650911609569195.0,1
741,0.0,0.0,-8.0,7.0,10.0,2.0,4.0,0.0,1650911609569195.0,1
742,5.0,-2.0,7.0,5.0,7.0,1.0,3.0,2.0,1650911609569195.0,0
743,-2.0,5.0,14.0,5.0,-5.0,-3.0,-3.0,-2.0,1650911609569195.0,0
744,-4.0,-8.0,-21.0,-16.0,13.0,-3.0,-3.0,-1.0,1650911609583207.0,0
745,2.0,5.0,10.0,5.0,-17.0,4.0,2.0,-1.0,1650911609583207.0,0
746,0.0,-4.0,3.0,-1.0,16.0,6.0,1.0,-1.0,1650911609584071.0,0
747,-2.0,2.0,-4.0,-5.0,-15.0,-4.0,2.0,-1.0,1650911609584071.0,0
748,1.0,4.0,6.0,6.0,-8.0,-1.0,-2.0,-1.0,1650911609606374.0,0
749,0.0,2.0,8.0,4.0,14.0,-15.0,-1.0,0.0,1650911609606374.0,0
750,-1.0,1.0,-3.0,0.0,-10.0,7.0,0.0,1.0,1650911609606374.0,0
751,7.0,-3.0,3.0,3.0,9.0,5.0,0.0,1.0,1650911609606374.0,0
752,-1.0,-2.0,-14.0,-11.0,-10.0,1.0,-1.0,-1.0,1650911609629117.0,0
753,-2.0,-7.0,-8.0,-3.0,-1.0,0.0,-3.0,0.0,1650911609629117.0,0
754,-2.0,1.0,4.0,2.0,-1.0,-3.0,1.0,0.0,1650911609629117.0,0
755,1.0,1.0,-7.0,-2.0,-4.0,-5.0,0.0,-2.0,1650911609629117.0,0
756,-2.0,-2.0,3.0,3.0,1.0,-2.0,0.0,-1.0,1650911609642768.0,0
757,-4.0,4.0,7.0,-10.0,-16.0,-12.0,-4.0,-3.0,1650911609642768.0,0
758,2.0,-2.0,5.0,5.0,2.0,5.0,0.0,1.0,1650911609643768.0,0
759,-1.0,-7.0,-17.0,4.0,12.0,11.0,3.0,0.0,1650911609643768.0,0
760,-2.0,4.0,10.0,9.0,23.0,1.0,2.0,-2.0,1650911609665836.0,0
761,1.0,-3.0,-2.0,-1.0,7.0,6.0,1.0,0.0,1650911609665836.0,0
762,-2.0,-3.0,-8.0,-11.0,-14.0,-8.0,-4.0,-2.0,1650911609666833.0,0
763,0.0,-5.0,-5.0,-4.0,-11.0,-8.0,-2.0,-2.0,1650911609666833.0,0
764,1.0,2.0,6.0,3.0,-19.0,-7.0,-2.0,-1.0,1650911609689484.0,0
765,-2.0,-5.0,-12.0,-7.0,4.0,-3.0,0.0,-1.0,1650911609689484.0,0
766,0.0,3.0,3.0,1.0,6.0,9.0,2.0,0.0,1650911609689484.0,0
767,0.0,1.0,4.0,5.0,10.0,8.0,3.0,2.0,1650911609689484.0,0
768,2.0,-4.0,-2.0,-2.0,-8.0,-10.0,-2.0,0.0,1650911609711012.0,0
769,-5.0,0.0,3.0,-1.0,5.0,4.0,-1.0,-1.0,1650911609711012.0,0
770,1.0,0.0,-4.0,0.0,2.0,7.0,2.0,-1.0,1650911609711873.0,0
771,-3.0,-2.0,-3.0,-4.0,-2.0,-7.0,-2.0,0.0,1650911609711873.0,0
772,-1.0,-2.0,-2.0,3.0,5.0,-4.0,3.0,2.0,1650911609726028.0,0
773,5.0,5.0,7.0,3.0,4.0,-5.0,1.0,2.0,1650911609726028.0,0
774,-2.0,-4.0,-11.0,-6.0,0.0,3.0,-1.0,-1.0,1650911609727028.0,0
775,-2.0,-1.0,3.0,-2.0,-4.0,2.0,-1.0,-2.0,1650911609727028.0,0
776,-1.0,6.0,4.0,-5.0,-18.0,-3.0,-4.0,-3.0,1650911609747872.0,0
777,5.0,-4.0,1.0,4.0,3.0,2.0,0.0,0.0,1650911609747872.0,0
778,-16.0,0.0,-1.0,1.0,7.0,2.0,2.0,-1.0,1650911609755980.0,0
779,3.0,0.0,-4.0,-4.0,7.0,0.0,1.0,1.0,1650911609755980.0,0
780,-2.0,0.0,7.0,2.0,-9.0,2.0,0.0,0.0,1650911609762983.0,0
781,-1.0,3.0,2.0,3.0,-3.0,9.0,2.0,0.0,1650911609762983.0,0
782,2.0,-3.0,0.0,0.0,8.0,1.0,0.0,0.0,1650911609763961.0,0
783,-6.0,-11.0,-3.0,-2.0,-6.0,-20.0,-3.0,-3.0,1650911609763961.0,0
784,-1.0,-1.0,-2.0,-2.0,-2.0,3.0,0.0,-2.0,1650911609787025.0,0
785,0.0,-1.0,3.0,1.0,-9.0,-8.0,-1.0,0.0,1650911609787025.0,0
786,2.0,-1.0,2.0,3.0,-11.0,3.0,0.0,3.0,1650911609787025.0,0
787,0.0,1.0,0.0,-2.0,15.0,16.0,0.0,-2.0,1650911609787025.0,0
788,3.0,2.0,3.0,3.0,23.0,13.0,2.0,3.0,1650911609809334.0,0
789,-4.0,-6.0,-6.0,-1.0,0.0,-3.0,-3.0,-3.0,1650911609809334.0,0
790,3.0,1.0,6.0,2.0,-9.0,-7.0,-1.0,0.0,1650911609809334.0,0
791,-3.0,1.0,-23.0,-14.0,-14.0,-4.0,-2.0,-1.0,1650911609809334.0,0
792,-2.0,-1.0,-2.0,-8.0,-14.0,-7.0,-5.0,1.0,1650911609823830.0,0
793,0.0,-5.0,-17.0,-2.0,-7.0,-4.0,-2.0,-1.0,1650911609823830.0,0
794,0.0,4.0,4.0,0.0,5.0,0.0,1.0,0.0,1650911609823830.0,0
795,1.0,4.0,14.0,9.0,7.0,-4.0,-1.0,0.0,1650911609823830.0,0
796,-1.0,1.0,-3.0,3.0,5.0,1.0,1.0,0.0,1650911609846322.0,0
797,-2.0,1.0,4.0,2.0,12.0,3.0,1.0,-1.0,1650911609846322.0,0
798,2.0,-1.0,-2.0,1.0,-7.0,-7.0,-1.0,0.0,1650911609847192.0,0
799,0.0,1.0,-4.0,0.0,-6.0,6.0,1.0,0.0,1650911609847192.0,0
800,1.0,0.0,2.0,1.0,3.0,-3.0,1.0,-1.0,1650911609869566.0,0
801,-2.0,-4.0,2.0,-2.0,2.0,-5.0,-2.0,-1.0,1650911609869566.0,0
802,-4.0,5.0,7.0,5.0,4.0,5.0,1.0,-1.0,1650911609869566.0,0
803,10.0,3.0,-1.0,-6.0,-3.0,-1.0,0.0,-2.0,1650911609869566.0,0
804,-13.0,-5.0,-3.0,-3.0,-8.0,-3.0,-2.0,-1.0,1650911609883280.0,0
805,1.0,0.0,-6.0,-5.0,-19.0,-4.0,-2.0,1.0,1650911609883280.0,0
806,2.0,-2.0,-2.0,0.0,7.0,-1.0,0.0,-1.0,1650911609883280.0,0
807,-1.0,-4.0,0.0,4.0,7.0,6.0,1.0,0.0,1650911609883280.0,0
808,5.0,1.0,-3.0,4.0,6.0,0.0,1.0,1.0,1650911609905857.0,0
809,-1.0,1.0,0.0,-11.0,-18.0,-3.0,-3.0,-2.0,1650911609905857.0,0
810,-3.0,-2.0,2.0,3.0,-8.0,-5.0,-1.0,-1.0,1650911609906855.0,0
811,0.0,1.0,2.0,5.0,22.0,1.0,3.0,2.0,1650911609906855.0,0
812,3.0,3.0,0.0,4.0,11.0,12.0,4.0,-1.0,1650911609929114.0,0
813,-4.0,-1.0,-6.0,-4.0,4.0,9.0,-1.0,1.0,1650911609929114.0,0
814,2.0,-3.0,-5.0,-7.0,-5.0,-15.0,-3.0,-2.0,1650911609929853.0,0
815,-2.0,0.0,1.0,-5.0,-34.0,-17.0,-5.0,-2.0,1650911609929853.0,0
816,-1.0,-3.0,2.0,4.0,11.0,6.0,-2.0,-3.0,1650911609942691.0,0
817,4.0,4.0,11.0,9.0,6.0,7.0,5.0,4.0,1650911609942691.0,0
818,2.0,0.0,2.0,4.0,11.0,11.0,1.0,0.0,1650911609951830.0,0
819,-4.0,-4.0,-4.0,-2.0,-3.0,-1.0,-1.0,-2.0,1650911609951830.0,0
820,1.0,-6.0,-12.0,-12.0,-13.0,-11.0,-5.0,0.0,1650911609966044.0,0
821,0.0,4.0,5.0,0.0,-8.0,-3.0,-1.0,-2.0,1650911609966044.0,0
822,1.0,0.0,-2.0,-1.0,6.0,6.0,1.0,0.0,1650911609968070.0,0
823,-1.0,2.0,3.0,3.0,8.0,-2.0,2.0,-2.0,1650911609968070.0,0
824,0.0,-5.0,-7.0,-1.0,-13.0,-6.0,-3.0,-2.0,1650911609990017.0,0
825,-2.0,-1.0,4.0,-2.0,15.0,-2.0,-3.0,0.0,1650911609990017.0,0
826,-1.0,-5.0,-2.0,7.0,-11.0,3.0,2.0,1.0,1650911609991048.0,0
827,2.0,5.0,5.0,-2.0,10.0,24.0,0.0,2.0,1650911609991048.0,0
828,-3.0,-1.0,-1.0,-6.0,-17.0,-25.0,-3.0,-3.0,1650911610003216.0,0
829,8.0,0.0,-1.0,0.0,-2.0,-9.0,-1.0,0.0,1650911610003216.0,0
830,-11.0,-3.0,-4.0,-5.0,5.0,14.0,-2.0,-1.0,1650911610010937.0,0
831,-1.0,-2.0,3.0,3.0,15.0,0.0,2.0,2.0,1650911610010937.0,0
832,1.0,0.0,0.0,-3.0,-8.0,2.0,2.0,1.0,1650911610026009.0,0
833,0.0,-1.0,4.0,5.0,-5.0,-7.0,-3.0,-3.0,1650911610026009.0,0
834,2.0,3.0,-3.0,-4.0,-3.0,-22.0,-3.0,-1.0,1650911610028008.0,0
835,-4.0,-6.0,-7.0,-4.0,-12.0,8.0,-1.0,-2.0,1650911610028008.0,0
836,1.0,3.0,3.0,4.0,20.0,10.0,2.0,1.0,1650911610048488.0,0
837,-2.0,0.0,-5.0,0.0,11.0,1.0,1.0,1.0,1650911610048488.0,0
838,2.0,2.0,2.0,1.0,-10.0,3.0,-1.0,0.0,1650911610050485.0,0
839,-3.0,-4.0,-5.0,-4.0,-9.0,-7.0,-1.0,-1.0,1650911610050485.0,0
840,0.0,-1.0,-2.0,-5.0,-9.0,-8.0,-5.0,-2.0,1650911610062794.0,0
841,-4.0,-1.0,2.0,-1.0,-12.0,-1.0,-2.0,-2.0,1650911610062794.0,0
842,1.0,0.0,1.0,3.0,11.0,8.0,0.0,0.0,1650911610071851.0,0
843,3.0,3.0,3.0,4.0,5.0,1.0,0.0,2.0,1650911610071851.0,0
844,0.0,0.0,-4.0,-4.0,-11.0,-4.0,1.0,0.0,1650911610085673.0,0
845,-2.0,-2.0,1.0,-1.0,-3.0,13.0,0.0,-1.0,1650911610085673.0,0
846,1.0,-5.0,-8.0,-5.0,5.0,-15.0,-2.0,-2.0,1650911610087649.0,0
847,0.0,2.0,4.0,4.0,7.0,-2.0,-2.0,-1.0,1650911610087649.0,0
848,1.0,0.0,5.0,2.0,0.0,8.0,2.0,1.0,1650911610108592.0,0
849,-6.0,-8.0,-15.0,-9.0,-2.0,4.0,1.0,-2.0,1650911610108592.0,0
850,2.0,3.0,4.0,1.0,-12.0,-1.0,0.0,1.0,1650911610110589.0,0
851,1.0,-2.0,-5.0,-3.0,-5.0,-5.0,-1.0,-1.0,1650911610110589.0,0
852,-1.0,2.0,0.0,0.0,4.0,0.0,-1.0,-1.0,1650911610122589.0,0
853,-1.0,4.0,-1.0,-8.0,-7.0,-11.0,-2.0,0.0,1650911610122589.0,0
854,-2.0,-4.0,0.0,-3.0,-14.0,2.0,-1.0,-2.0,1650911610131536.0,0
855,-2.0,-2.0,-7.0,-3.0,9.0,-6.0,-2.0,-2.0,1650911610131536.0,0
856,0.0,-2.0,-3.0,5.0,34.0,5.0,0.0,1.0,1650911610146490.0,0
857,0.0,-2.0,-3.0,2.0,-3.0,-6.0,1.0,0.0,1650911610146490.0,0
858,1.0,0.0,1.0,-7.0,-12.0,-4.0,-1.0,-1.0,1650911610147490.0,0
859,-2.0,-1.0,5.0,0.0,-22.0,-1.0,0.0,0.0,1650911610147490.0,0
860,0.0,1.0,1.0,-1.0,10.0,5.0,1.0,-2.0,1650911610168606.0,0
861,-2.0,-1.0,-4.0,-2.0,10.0,10.0,4.0,1.0,1650911610168606.0,0
862,-1.0,-1.0,-3.0,1.0,8.0,-5.0,-2.0,-1.0,1650911610170591.0,0
863,-1.0,1.0,2.0,0.0,-4.0,-6.0,-2.0,0.0,1650911610170591.0,0
864,-4.0,-2.0,-4.0,-4.0,-10.0,-5.0,-4.0,-3.0,1650911610182532.0,0
865,5.0,1.0,6.0,3.0,-6.0,0.0,-4.0,-1.0,1650911610182532.0,0
866,-15.0,-1.0,-3.0,-2.0,1.0,-8.0,2.0,-1.0,1650911610190931.0,0
867,1.0,-1.0,2.0,3.0,8.0,9.0,3.0,2.0,1650911610190931.0,0
868,-1.0,-2.0,-7.0,-7.0,-3.0,2.0,0.0,-2.0,1650911610206958.0,0
869,2.0,3.0,-2.0,3.0,3.0,-7.0,0.0,2.0,1650911610206958.0,0
870,4.0,1.0,1.0,4.0,-3.0,1.0,-1.0,1.0,1650911610207885.0,0
871,0.0,2.0,9.0,4.0,4.0,-5.0,-3.0,-4.0,1650911610207885.0,0
872,-3.0,-4.0,-3.0,-5.0,-16.0,1.0,-2.0,-1.0,1650911610229688.0,0
873,-1.0,-2.0,-4.0,-3.0,12.0,4.0,-1.0,-2.0,1650911610229688.0,0
874,4.0,1.0,5.0,4.0,10.0,3.0,-1.0,0.0,1650911610229856.0,0
875,1.0,-1.0,-3.0,-2.0,-8.0,1.0,1.0,0.0,1650911610229856.0,0
876,3.0,-2.0,5.0,2.0,0.0,-2.0,-2.0,0.0,1650911610242600.0,0
877,-1.0,0.0,1.0,-2.0,-15.0,2.0,-2.0,-2.0,1650911610242600.0,0
878,-2.0,-1.0,-6.0,-1.0,6.0,-5.0,1.0,-2.0,1650911610251583.0,0
879,-3.0,-1.0,1.0,3.0,5.0,-2.0,0.0,1.0,1650911610251583.0,0
880,-1.0,-2.0,1.0,2.0,2.0,2.0,1.0,0.0,1650911610265798.0,0
881,-2.0,-3.0,0.0,-1.0,11.0,-11.0,-3.0,-1.0,1650911610265798.0,0
882,1.0,0.0,-2.0,-2.0,-9.0,17.0,0.0,1.0,1650911610267701.0,0
883,0.0,0.0,2.0,4.0,12.0,-2.0,3.0,0.0,1650911610267701.0,0
884,1.0,0.0,-1.0,1.0,-3.0,-1.0,1.0,-1.0,1650911610288681.0,0
885,-1.0,-3.0,-2.0,2.0,1.0,-5.0,-1.0,1.0,1650911610288681.0,0
886,3.0,-1.0,-1.0,-1.0,-5.0,3.0,-1.0,-1.0,1650911610294626.0,0
887,-2.0,0.0,-2.0,-5.0,-13.0,-8.0,-4.0,-2.0,1650911610294626.0,0
888,-1.0,1.0,-5.0,0.0,1.0,1.0,0.0,1.0,1650911610311991.0,0
889,1.0,2.0,5.0,8.0,11.0,1.0,3.0,0.0,1650911610311991.0,0
890,1.0,0.0,-2.0,-2.0,2.0,-1.0,1.0,1.0,1650911610312855.0,0
891,0.0,-1.0,-6.0,-3.0,1.0,9.0,1.0,0.0,1650911610312855.0,0
892,-1.0,2.0,0.0,-6.0,-10.0,-10.0,-3.0,-2.0,1650911610326170.0,0
893,2.0,-2.0,-5.0,-3.0,-17.0,-9.0,-4.0,-2.0,1650911610326170.0,0
894,-3.0,-1.0,1.0,1.0,12.0,-3.0,-2.0,-2.0,1650911610327168.0,0
895,0.0,1.0,0.0,3.0,-7.0,16.0,2.0,-1.0,1650911610327168.0,0
896,1.0,2.0,0.0,3.0,11.0,-4.0,1.0,2.0,1650911610348803.0,0
897,-1.0,0.0,2.0,-1.0,5.0,12.0,3.0,0.0,1650911610348803.0,0
898,0.0,-2.0,-6.0,-9.0,-9.0,-13.0,-3.0,-1.0,1650911610349801.0,0
899,-1.0,-1.0,-1.0,-5.0,-9.0,-14.0,-3.0,-2.0,1650911610349801.0,0
900,-2.0,-1.0,2.0,6.0,2.0,-5.0,-1.0,-1.0,1650911610371201.0,0
901,0.0,1.0,3.0,5.0,6.0,5.0,1.0,1.0,1650911610371201.0,0
902,0.0,-1.0,-1.0,-2.0,-6.0,-1.0,1.0,1.0,1650911610372233.0,0
903,0.0,1.0,-1.0,-3.0,4.0,9.0,-3.0,-1.0,1650911610372233.0,0
904,1.0,1.0,1.0,1.0,-3.0,8.0,1.0,0.0,1650911610386645.0,0
905,-1.0,0.0,-2.0,2.0,9.0,-7.0,2.0,-1.0,1650911610386645.0,0
906,0.0,-2.0,1.0,-1.0,-3.0,7.0,-2.0,0.0,1650911610387504.0,0
907,-1.0,1.0,-1.0,-3.0,-9.0,-9.0,-2.0,-1.0,1650911610387504.0,0
908,-2.0,-5.0,-2.0,-6.0,-8.0,-3.0,1.0,1.0,1650911610409312.0,0
909,-1.0,1.0,5.0,7.0,7.0,1.0,0.0,0.0,1650911610409312.0,0
910,2.0,-1.0,-2.0,-2.0,3.0,-3.0,1.0,0.0,1650911610409857.0,0
911,0.0,-3.0,-3.0,-5.0,-10.0,-5.0,-3.0,-1.0,1650911610409857.0,0
912,-2.0,0.0,2.0,3.0,-3.0,0.0,0.0,-1.0,1650911610432126.0,0
913,0.0,1.0,0.0,-2.0,3.0,3.0,0.0,0.0,1650911610432126.0,0
914,0.0,2.0,0.0,6.0,8.0,7.0,3.0,0.0,1650911610432997.0,0
915,1.0,1.0,5.0,6.0,5.0,1.0,3.0,-1.0,1650911610432997.0,0
916,-1.0,-1.0,-7.0,-5.0,-5.0,-1.0,0.0,0.0,1650911610446014.0,0
917,-3.0,-3.0,-1.0,-8.0,-13.0,-11.0,-5.0,-4.0,1650911610446014.0,0
918,-1.0,-1.0,-1.0,2.0,0.0,12.0,-2.0,-3.0,1650911610452098.0,0
919,0.0,-2.0,-8.0,-9.0,-9.0,-20.0,-3.0,0.0,1650911610452098.0,0
920,-2.0,0.0,3.0,2.0,-6.0,15.0,-1.0,0.0,1650911610468214.0,0
921,-1.0,-2.0,0.0,5.0,28.0,-2.0,2.0,2.0,1650911610468214.0,0
922,1.0,0.0,2.0,3.0,12.0,8.0,1.0,1.0,1650911610470242.0,0
923,-1.0,-3.0,-1.0,-5.0,-14.0,-4.0,-1.0,-1.0,1650911610470242.0,0
924,-1.0,-3.0,0.0,-4.0,-29.0,-5.0,-1.0,-3.0,1650911610492169.0,0
925,0.0,-1.0,-1.0,2.0,6.0,15.0,2.0,1.0,1650911610492169.0,0
926,-1.0,1.0,1.0,3.0,8.0,-1.0,0.0,-1.0,1650911610493012.0,0
927,-1.0,-1.0,-2.0,-3.0,-7.0,-4.0,-2.0,2.0,1650911610493012.0,0
928,0.0,-2.0,-2.0,0.0,-4.0,-15.0,-5.0,-2.0,1650911610506452.0,0
929,1.0,0.0,-1.0,1.0,1.0,7.0,-1.0,-1.0,1650911610506452.0,0
930,-2.0,-3.0,0.0,-1.0,10.0,1.0,0.0,-3.0,1650911610512476.0,0
931,-1.0,-1.0,1.0,-1.0,-1.0,3.0,0.0,0.0,1650911610512476.0,0
932,-1.0,1.0,-2.0,-2.0,1.0,-4.0,-3.0,0.0,1650911610528618.0,0
933,-2.0,0.0,0.0,-4.0,-22.0,-11.0,-3.0,-2.0,1650911610528618.0,0
934,-1.0,-2.0,-3.0,-2.0,-5.0,-18.0,-1.0,1.0,1650911610530482.0,0
935,-1.0,-2.0,6.0,10.0,27.0,11.0,3.0,0.0,1650911610530482.0,0
936,1.0,2.0,-2.0,0.0,13.0,13.0,3.0,2.0,1650911610551992.0,0
937,-1.0,-1.0,0.0,-1.0,-7.0,-2.0,0.0,2.0,1650911610551992.0,0
938,-1.0,-1.0,-2.0,-6.0,-21.0,-14.0,-5.0,-1.0,1650911610552837.0,0
939,-2.0,-2.0,-2.0,1.0,3.0,1.0,-2.0,-1.0,1650911610552837.0,0
940,0.0,-1.0,3.0,0.0,9.0,1.0,1.0,0.0,1650911610564982.0,0
941,0.0,-1.0,0.0,-4.0,-10.0,-7.0,-3.0,0.0,1650911610564982.0,0
942,-1.0,-1.0,0.0,-3.0,4.0,-12.0,-4.0,-3.0,1650911610572999.0,0
943,0.0,-1.0,-3.0,0.0,-12.0,15.0,-1.0,-3.0,1650911610572999.0,0
944,-1.0,-1.0,1.0,3.0,18.0,17.0,2.0,-2.0,1650911610589247.0,0
945,1.0,0.0,1.0,-1.0,-9.0,-15.0,1.0,0.0,1650911610589247.0,0
946,0.0,-1.0,-5.0,0.0,-3.0,-4.0,-1.0,1.0,1650911610589857.0,0
947,-3.0,-2.0,1.0,-3.0,-1.0,-12.0,-2.0,-1.0,1650911610589857.0,0
948,0.0,2.0,5.0,3.0,-1.0,4.0,-1.0,2.0,1650911610611414.0,0
949,-1.0,-1.0,-10.0,2.0,11.0,5.0,1.0,-1.0,1650911610611414.0,0
950,-1.0,1.0,15.0,7.0,-12.0,1.0,0.0,-1.0,1650911610612415.0,0
951,0.0,1.0,-8.0,-9.0,7.0,4.0,0.0,1.0,1650911610612415.0,0
952,-1.0,-1.0,-5.0,-2.0,-3.0,-9.0,0.0,-1.0,1650911610625961.0,0
953,0.0,0.0,5.0,0.0,-8.0,-4.0,-2.0,0.0,1650911610625961.0,0
954,0.0,2.0,-3.0,-3.0,-2.0,0.0,-4.0,-4.0,1650911610632694.0,0
955,1.0,3.0,10.0,10.0,11.0,2.0,1.0,1.0,1650911610632694.0,0
956,1.0,-1.0,1.0,0.0,-20.0,-1.0,4.0,2.0,1650911610648713.0,0
957,0.0,-1.0,-1.0,-1.0,6.0,7.0,2.0,-1.0,1650911610648713.0,0
958,1.0,-1.0,-10.0,2.0,15.0,6.0,2.0,1.0,1650911610649678.0,0
959,-3.0,-4.0,-6.0,-9.0,-21.0,-11.0,-4.0,-3.0,1650911610649678.0,0
960,-2.0,-1.0,-5.0,-5.0,7.0,-18.0,-3.0,-1.0,1650911610671167.0,0
961,3.0,-1.0,-1.0,2.0,8.0,15.0,1.0,-2.0,1650911610671167.0,0
962,-1.0,2.0,0.0,-1.0,-13.0,-7.0,2.0,2.0,1650911610673024.0,0
963,0.0,1.0,0.0,4.0,18.0,5.0,-1.0,0.0,1650911610673024.0,0
964,1.0,-1.0,-1.0,1.0,4.0,6.0,11.0,8.0,1650911610685221.0,0
965,-1.0,0.0,1.0,-4.0,-12.0,-2.0,0.0,10.0,1650911610685221.0,0
966,-5.0,-5.0,-1.0,-4.0,-8.0,-3.0,-20.0,-29.0,1650911610692640.0,0
967,-4.0,-2.0,-3.0,1.0,-7.0,-9.0,-2.0,-1.0,1650911610692640.0,0
968,2.0,3.0,4.0,3.0,11.0,-3.0,1.0,3.0,1650911610709305.0,0
969,-1.0,-1.0,-3.0,0.0,-2.0,-1.0,6.0,3.0,1650911610709305.0,0
970,-1.0,1.0,0.0,-4.0,-2.0,5.0,3.0,12.0,1650911610710859.0,0
971,-1.0,0.0,-2.0,-2.0,-7.0,-1.0,-3.0,-4.0,1650911610710859.0,0
972,-2.0,-2.0,-2.0,-3.0,-3.0,7.0,-3.0,-6.0,1650911610731031.0,0
973,1.0,1.0,1.0,0.0,3.0,-1.0,2.0,4.0,1650911610731031.0,0
974,3.0,1.0,-1.0,5.0,-2.0,0.0,15.0,10.0,1650911610733059.0,0
975,0.0,-4.0,0.0,-6.0,17.0,-1.0,-3.0,-2.0,1650911610733059.0,0
976,-4.0,-1.0,1.0,3.0,-30.0,-7.0,-18.0,-16.0,1650911610745369.0,0
977,-2.0,1.0,-2.0,9.0,21.0,-3.0,-2.0,0.0,1650911610745369.0,0
978,-6.0,-5.0,1.0,-1.0,22.0,12.0,2.0,-5.0,1650911610752355.0,0
979,4.0,4.0,-1.0,2.0,-3.0,9.0,7.0,6.0,1650911610752355.0,0
980,-1.0,-7.0,-2.0,-1.0,3.0,-1.0,2.0,2.0,1650911610769178.0,0
981,-3.0,1.0,0.0,-4.0,-16.0,-8.0,-9.0,-9.0,1650911610769178.0,0
982,-3.0,-1.0,-1.0,-2.0,-8.0,-6.0,2.0,0.0,1650911610769860.0,0
983,0.0,-2.0,5.0,2.0,-10.0,7.0,6.0,12.0,1650911610769860.0,0
984,1.0,5.0,4.0,-4.0,-5.0,-20.0,0.0,-6.0,1650911610791180.0,0
985,10.0,-2.0,-17.0,-7.0,-11.0,-2.0,7.0,23.0,1650911610791180.0,0
986,8.0,4.0,1.0,2.0,11.0,7.0,0.0,2.0,1650911610793012.0,0
987,-19.0,-25.0,-4.0,-1.0,-4.0,-3.0,-24.0,-44.0,1650911610793012.0,0
988,-3.0,11.0,1.0,4.0,13.0,8.0,3.0,12.0,1650911610805600.0,0
989,10.0,1.0,1.0,1.0,11.0,12.0,16.0,12.0,1650911610805600.0,0
990,-14.0,-23.0,-1.0,1.0,-2.0,-4.0,-3.0,-7.0,1650911610821048.0,0
991,-8.0,-5.0,-5.0,-5.0,6.0,-15.0,-6.0,6.0,1650911610821048.0,0
992,17.0,17.0,0.0,-4.0,-20.0,-2.0,-11.0,-5.0,1650911610829127.0,0
993,-12.0,-4.0,-5.0,-6.0,-19.0,-11.0,3.0,2.0,1650911610829127.0,0
994,2.0,-8.0,-9.0,-5.0,0.0,-4.0,0.0,9.0,1650911610829993.0,0
995,11.0,23.0,14.0,15.0,9.0,11.0,-3.0,-17.0,1650911610829993.0,0
996,-13.0,-6.0,0.0,4.0,34.0,9.0,9.0,9.0,1650911610851492.0,0
997,29.0,10.0,9.0,6.0,10.0,18.0,11.0,14.0,1650911610851492.0,0
998,20.0,18.0,-9.0,-3.0,-11.0,1.0,-4.0,-5.0,1650911610852492.0,0
999,-22.0,-12.0,-4.0,-3.0,-8.0,-12.0,-2.0,-8.0,1650911610852492.0,0
1000,11.0,-9.0,-6.0,-7.0,-3.0,-11.0,-10.0,5.0,1650911610865080.0,0
1001,-18.0,-5.0,6.0,1.0,-20.0,-6.0,-17.0,-32.0,1650911610865080.0,0
1002,-5.0,1.0,-17.0,-1.0,11.0,-2.0,12.0,13.0,1650911610873515.0,0
1003,-4.0,17.0,7.0,2.0,-2.0,0.0,-5.0,-4.0,1650911610873515.0,0
1004,6.0,5.0,2.0,-9.0,-3.0,-5.0,-1.0,9.0,1650911610888933.0,0
1005,6.0,-27.0,9.0,3.0,9.0,0.0,-8.0,-25.0,1650911610888933.0,0
1006,0.0,-6.0,-8.0,-1.0,-9.0,9.0,-9.0,-20.0,1650911610889930.0,0
1007,8.0,23.0,0.0,0.0,0.0,2.0,3.0,12.0,1650911610889930.0,0
1008,-25.0,-14.0,-13.0,-12.0,-17.0,-1.0,3.0,5.0,1650911610912039.0,0
1009,3.0,11.0,22.0,9.0,-3.0,-13.0,6.0,19.0,1650911610912039.0,0
1010,-9.0,1.0,7.0,4.0,14.0,0.0,-2.0,0.0,1650911610912916.0,0
1011,15.0,2.0,-16.0,-3.0,-7.0,5.0,8.0,8.0,1650911610912916.0,0
1012,-3.0,-8.0,19.0,8.0,12.0,6.0,-10.0,-28.0,1650911610925032.0,0
1013,5.0,17.0,8.0,7.0,15.0,12.0,15.0,20.0,1650911610925032.0,0
1014,-16.0,-42.0,-22.0,-13.0,-8.0,-5.0,1.0,25.0,1650911610934044.0,0
1015,2.0,10.0,6.0,-5.0,-12.0,-4.0,-10.0,-23.0,1650911610934044.0,0
1016,6.0,-14.0,-33.0,-8.0,-8.0,-8.0,1.0,17.0,1650911610948763.0,0
1017,-40.0,7.0,6.0,-4.0,-17.0,-16.0,-26.0,-55.0,1650911610948763.0,0
1018,11.0,16.0,36.0,4.0,5.0,11.0,2.0,6.0,1650911610950613.0,0
1019,5.0,-25.0,-10.0,10.0,12.0,-4.0,13.0,22.0,1650911610950613.0,2
1020,13.0,13.0,14.0,-6.0,-18.0,-7.0,-3.0,-20.0,1650911610972056.0,2
1021,-6.0,32.0,4.0,13.0,40.0,24.0,6.0,11.0,1650911610972056.0,2
1022,18.0,-3.0,-17.0,-12.0,-27.0,-22.0,2.0,11.0,1650911610972896.0,2
1023,21.0,7.0,13.0,3.0,6.0,2.0,12.0,17.0,1650911610972896.0,2
1024,-21.0,-18.0,-10.0,12.0,14.0,10.0,-7.0,-32.0,1650911610984995.0,2
1025,4.0,11.0,17.0,-2.0,4.0,12.0,1.0,14.0,1650911610984995.0,2
1026,-1.0,13.0,-1.0,9.0,1.0,-12.0,-7.0,-20.0,1650911611000171.0,2
1027,-21.0,6.0,15.0,1.0,14.0,3.0,13.0,18.0,1650911611000171.0,2
1028,13.0,7.0,-14.0,-1.0,-9.0,-3.0,-3.0,2.0,1650911611009301.0,2
1029,-12.0,-38.0,-33.0,-31.0,-32.0,-17.0,-16.0,-14.0,1650911611009301.0,2
1030,-18.0,-20.0,4.0,-1.0,1.0,-1.0,-14.0,-19.0,1650911611010209.0,2
1031,-3.0,-2.0,-36.0,-2.0,-2.0,-1.0,3.0,-9.0,1650911611010209.0,2
1032,22.0,9.0,33.0,21.0,26.0,18.0,14.0,32.0,1650911611031182.0,2
1033,-10.0,1.0,-13.0,-7.0,-21.0,-7.0,-13.0,-7.0,1650911611031182.0,2
1034,-4.0,15.0,9.0,-3.0,-3.0,-7.0,4.0,1.0,1650911611033052.0,2
1035,1.0,-21.0,-24.0,-7.0,-6.0,-5.0,-6.0,-8.0,1650911611033052.0,2
1036,-4.0,-6.0,-19.0,-4.0,10.0,11.0,7.0,8.0,1650911611045405.0,2
1037,14.0,-2.0,-1.0,0.0,-17.0,-10.0,7.0,19.0,1650911611045405.0,2
1038,27.0,25.0,15.0,16.0,22.0,3.0,4.0,-2.0,1650911611054035.0,2
1039,-8.0,-23.0,-17.0,-10.0,-2.0,6.0,7.0,19.0,1650911611054035.0,2
1040,-17.0,4.0,11.0,1.0,-7.0,-13.0,-11.0,-15.0,1650911611069072.0,2
1041,-5.0,-16.0,-14.0,4.0,2.0,0.0,1.0,-3.0,1650911611069072.0,2
1042,34.0,16.0,7.0,-6.0,-7.0,8.0,4.0,16.0,1650911611069862.0,2
1043,-31.0,3.0,-4.0,5.0,-5.0,-16.0,-1.0,-13.0,1650911611069862.0,2
1044,-16.0,-11.0,6.0,-11.0,-9.0,-5.0,-5.0,7.0,1650911611090344.0,2
1045,-7.0,-21.0,-34.0,-5.0,18.0,3.0,-17.0,-37.0,1650911611090344.0,2
1046,6.0,3.0,13.0,9.0,8.0,0.0,-3.0,-6.0,1650911611097465.0,2
1047,15.0,7.0,37.0,-4.0,-30.0,1.0,-9.0,9.0,1650911611097465.0,2
1048,-8.0,0.0,-6.0,-4.0,-13.0,-2.0,6.0,0.0,1650911611104450.0,2
1049,-3.0,-6.0,-18.0,5.0,7.0,0.0,7.0,18.0,1650911611104450.0,2
1050,-1.0,18.0,36.0,12.0,2.0,0.0,-2.0,2.0,1650911611113425.0,2
1051,3.0,-11.0,-38.0,-22.0,-4.0,-7.0,-21.0,-24.0,1650911611113425.0,2
1052,2.0,13.0,4.0,5.0,1.0,5.0,4.0,-1.0,1650911611129046.0,2
1053,6.0,1.0,22.0,3.0,-5.0,-5.0,-4.0,-7.0,1650911611129046.0,2
1054,-13.0,-6.0,-6.0,2.0,9.0,5.0,3.0,1.0,1650911611129858.0,2
1055,2.0,-6.0,-1.0,-2.0,-9.0,-5.0,0.0,2.0,1650911611129858.0,2
1056,10.0,0.0,-2.0,0.0,10.0,4.0,-3.0,-11.0,1650911611151102.0,2
1057,8.0,11.0,11.0,1.0,11.0,-3.0,10.0,10.0,1650911611151102.0,2
1058,-28.0,1.0,-12.0,-3.0,-1.0,36.0,-1.0,0.0,1650911611157086.0,2
1059,8.0,-2.0,10.0,11.0,9.0,-22.0,3.0,-1.0,1650911611157086.0,2
1060,6.0,-7.0,-24.0,-15.0,-37.0,-22.0,-6.0,-1.0,1650911611165063.0,2
1061,4.0,19.0,17.0,1.0,20.0,-6.0,0.0,9.0,1650911611165063.0,2
1062,18.0,-8.0,-12.0,-5.0,-2.0,5.0,7.0,7.0,1650911611173685.0,2
1063,-7.0,-11.0,1.0,1.0,18.0,25.0,7.0,-3.0,1650911611173685.0,2
1064,8.0,6.0,17.0,8.0,7.0,3.0,5.0,2.0,1650911611189088.0,2
1065,-7.0,-8.0,-5.0,2.0,-4.0,-6.0,-2.0,-2.0,1650911611189088.0,2
1066,18.0,-31.0,-7.0,-11.0,-24.0,-8.0,-4.0,-13.0,1650911611189950.0,2
1067,20.0,7.0,-9.0,-2.0,-4.0,-8.0,-6.0,19.0,1650911611189950.0,2
1068,-12.0,-16.0,-19.0,-3.0,14.0,-9.0,-9.0,-6.0,1650911611211035.0,2
1069,-1.0,18.0,25.0,-4.0,-10.0,13.0,1.0,1.0,1650911611211035.0,2
1070,-3.0,-3.0,-21.0,4.0,8.0,-12.0,-5.0,-10.0,1650911611212915.0,2
1071,-24.0,-24.0,-9.0,-9.0,-10.0,4.0,6.0,3.0,1650911611212915.0,2
1072,-6.0,16.0,11.0,5.0,2.0,2.0,-1.0,-11.0,1650911611224308.0,2
1073,19.0,-23.0,-22.0,-9.0,-3.0,3.0,-4.0,5.0,1650911611224308.0,2
1074,-11.0,-7.0,-10.0,3.0,-5.0,-3.0,4.0,12.0,1650911611233321.0,2
1075,20.0,36.0,34.0,25.0,42.0,-8.0,1.0,-2.0,1650911611233321.0,2
1076,-11.0,1.0,7.0,-11.0,-23.0,-4.0,-6.0,-4.0,1650911611248426.0,2
1077,-5.0,-1.0,5.0,2.0,11.0,-2.0,2.0,-4.0,1650911611248426.0,2
1078,-2.0,10.0,11.0,-5.0,-19.0,-6.0,-3.0,-4.0,1650911611250424.0,2
1079,0.0,4.0,11.0,-3.0,-6.0,7.0,-5.0,-10.0,1650911611250424.0,2
1080,17.0,24.0,2.0,7.0,3.0,1.0,7.0,18.0,1650911611270935.0,2
1081,-9.0,-7.0,13.0,6.0,-1.0,1.0,-3.0,-6.0,1650911611270935.0,2
1082,-11.0,-17.0,-33.0,-9.0,11.0,0.0,0.0,3.0,1650911611272831.0,2
1083,8.0,9.0,-4.0,-5.0,-8.0,-3.0,-8.0,-3.0,1650911611272831.0,2
1084,-49.0,-20.0,7.0,-10.0,-17.0,-8.0,1.0,-8.0,1650911611294015.0,2
1085,-2.0,2.0,-24.0,-13.0,-22.0,-3.0,2.0,0.0,1650911611294015.0,2
1086,14.0,2.0,5.0,11.0,1.0,-1.0,1.0,2.0,1650911611295014.0,2
1087,-14.0,13.0,7.0,-1.0,7.0,10.0,7.0,0.0,1650911611295014.0,2
1088,3.0,-29.0,-24.0,-8.0,-9.0,1.0,4.0,11.0,1650911611308470.0,2
1089,15.0,9.0,-5.0,11.0,28.0,15.0,6.0,22.0,1650911611308470.0,2
1090,-26.0,-2.0,13.0,-9.0,-15.0,-19.0,-15.0,-51.0,1650911611310302.0,2
1091,36.0,7.0,-4.0,3.0,-23.0,9.0,10.0,18.0,1650911611310302.0,2
1092,-24.0,-16.0,-26.0,2.0,25.0,10.0,-5.0,-11.0,1650911611331593.0,2
1093,-1.0,8.0,12.0,6.0,9.0,-10.0,4.0,6.0,1650911611331593.0,2
1094,-14.0,7.0,13.0,6.0,19.0,12.0,4.0,14.0,1650911611332432.0,2
1095,1.0,-16.0,-18.0,-13.0,-20.0,-10.0,-3.0,-1.0,1650911611332432.0,2
1096,14.0,27.0,32.0,12.0,-11.0,-1.0,3.0,5.0,1650911611361834.0,2
1097,-6.0,-16.0,-3.0,-6.0,-12.0,-4.0,-4.0,-20.0,1650911611361834.0,2
1098,-4.0,-2.0,5.0,1.0,3.0,1.0,-6.0,14.0,1650911611362677.0,2
1099,-10.0,5.0,13.0,-3.0,-12.0,-2.0,-2.0,-7.0,1650911611362677.0,2
1100,17.0,-17.0,-3.0,3.0,16.0,4.0,0.0,-1.0,1650911611369813.0,2
1101,-8.0,19.0,-8.0,-2.0,1.0,-3.0,-10.0,-14.0,1650911611369813.0,2
1102,-13.0,7.0,6.0,6.0,11.0,2.0,7.0,3.0,1650911611370655.0,2
1103,15.0,-3.0,16.0,5.0,7.0,2.0,-2.0,4.0,1650911611370655.0,2
1104,-22.0,-22.0,-30.0,-11.0,-24.0,1.0,-6.0,-1.0,1650911611391177.0,2
1105,-2.0,1.0,-5.0,-6.0,-25.0,-28.0,-13.0,-17.0,1650911611391177.0,2
1106,-1.0,-11.0,-17.0,-12.0,0.0,4.0,-4.0,-6.0,1650911611393042.0,2
1107,15.0,3.0,15.0,14.0,29.0,16.0,11.0,17.0,1650911611393042.0,2
1108,28.0,12.0,14.0,7.0,17.0,5.0,3.0,2.0,1650911611412652.0,2
1109,-10.0,-23.0,-2.0,-9.0,-15.0,-1.0,-10.0,-20.0,1650911611412652.0,2
1110,5.0,2.0,-17.0,0.0,-11.0,6.0,5.0,2.0,1650911611421057.0,2
1111,1.0,34.0,20.0,-3.0,-8.0,-30.0,-7.0,-9.0,1650911611421057.0,2
1112,-15.0,-38.0,-41.0,-21.0,2.0,-6.0,-11.0,-37.0,1650911611436038.0,2
1113,-2.0,4.0,18.0,8.0,-2.0,8.0,19.0,32.0,1650911611436038.0,2
1114,6.0,12.0,-1.0,-3.0,23.0,-10.0,-5.0,-12.0,1650911611438001.0,2
1115,-26.0,-13.0,-6.0,3.0,-22.0,17.0,3.0,4.0,1650911611438001.0,2
1116,13.0,23.0,20.0,8.0,10.0,1.0,3.0,-3.0,1650911611451363.0,2
1117,31.0,25.0,10.0,-1.0,-1.0,0.0,9.0,31.0,1650911611451363.0,2
1118,-10.0,-44.0,-25.0,-13.0,-13.0,-1.0,-3.0,-8.0,1650911611452364.0,2
1119,-13.0,-28.0,-27.0,-1.0,10.0,8.0,-4.0,-9.0,1650911611452364.0,2
1120,18.0,33.0,18.0,-2.0,-6.0,-19.0,0.0,10.0,1650911611474172.0,2
1121,-17.0,-8.0,-2.0,-4.0,-4.0,2.0,-3.0,-3.0,1650911611474172.0,2
1122,24.0,15.0,11.0,6.0,-6.0,-7.0,1.0,12.0,1650911611475016.0,2
1123,-4.0,6.0,3.0,-9.0,-15.0,-1.0,1.0,4.0,1650911611475016.0,2
1124,7.0,-10.0,-18.0,13.0,22.0,13.0,-3.0,-2.0,1650911611488343.0,2
1125,4.0,-12.0,-14.0,4.0,20.0,11.0,1.0,-3.0,1650911611488343.0,2
1126,-3.0,16.0,7.0,-5.0,-22.0,-11.0,-2.0,0.0,1650911611495314.0,2
1127,-12.0,-8.0,7.0,3.0,-5.0,-1.0,-3.0,-8.0,1650911611495314.0,2
1128,1.0,6.0,15.0,6.0,9.0,-1.0,7.0,9.0,1650911611512017.0,2
1129,5.0,10.0,2.0,2.0,-5.0,-1.0,-2.0,-20.0,1650911611512017.0,2
1130,14.0,-3.0,-8.0,-13.0,-16.0,-8.0,-11.0,3.0,1650911611512851.0,2
1131,-6.0,-4.0,14.0,11.0,21.0,11.0,8.0,9.0,1650911611512851.0,2
1132,2.0,-16.0,-28.0,-6.0,-4.0,-3.0,5.0,7.0,1650911611534477.0,2
1133,-18.0,-14.0,8.0,-3.0,-2.0,1.0,-5.0,-11.0,1650911611534477.0,2
1134,14.0,11.0,28.0,6.0,-3.0,-4.0,7.0,8.0,1650911611535508.0,2
1135,18.0,-15.0,-25.0,-5.0,1.0,-7.0,-1.0,1.0,1650911611535508.0,2
1136,-7.0,12.0,18.0,10.0,7.0,13.0,0.0,-13.0,1650911611548780.0,2
1137,1.0,-3.0,0.0,4.0,4.0,1.0,7.0,19.0,1650911611548780.0,2
1138,-24.0,0.0,-9.0,-9.0,-11.0,-4.0,1.0,8.0,1650911611554809.0,2
1139,25.0,13.0,-12.0,-1.0,-2.0,-4.0,-3.0,-2.0,1650911611554809.0,2
1140,-9.0,-13.0,20.0,5.0,0.0,-3.0,1.0,4.0,1650911611571155.0,2
1141,-4.0,-3.0,-9.0,-2.0,0.0,0.0,1.0,1.0,1650911611571155.0,2
1142,14.0,17.0,13.0,7.0,4.0,5.0,2.0,-4.0,1650911611573033.0,2
1143,-15.0,-3.0,-2.0,-3.0,1.0,-6.0,-4.0,-3.0,1650911611573033.0,2
1144,8.0,-6.0,5.0,-1.0,-4.0,0.0,6.0,6.0,1650911611594038.0,2
1145,10.0,34.0,12.0,-4.0,-14.0,-6.0,-8.0,20.0,1650911611594038.0,2
1146,-37.0,-54.0,-40.0,-13.0,-5.0,-6.0,-7.0,-14.0,1650911611595040.0,2
1147,13.0,32.0,22.0,19.0,25.0,10.0,7.0,2.0,1650911611595040.0,2
1148,-7.0,-41.0,-29.0,-11.0,-3.0,-2.0,-6.0,0.0,1650911611608345.0,2
1149,0.0,-5.0,-14.0,-12.0,-9.0,5.0,-6.0,-23.0,1650911611608345.0,2
1150,0.0,12.0,20.0,7.0,2.0,-20.0,6.0,5.0,1650911611614352.0,2
1151,-22.0,-5.0,-15.0,1.0,12.0,9.0,3.0,11.0,1650911611614352.0,2
1152,11.0,-10.0,-7.0,-10.0,-17.0,4.0,-14.0,-16.0,1650911611631502.0,2
1153,-5.0,1.0,11.0,10.0,27.0,-15.0,0.0,-2.0,1650911611631502.0,2
1154,-24.0,-11.0,7.0,-12.0,-26.0,-4.0,-6.0,-6.0,1650911611632341.0,2
1155,-16.0,-11.0,-20.0,-7.0,-8.0,4.0,0.0,-6.0,1650911611632341.0,2
1156,10.0,28.0,24.0,14.0,30.0,12.0,10.0,10.0,1650911611654645.0,2
1157,-5.0,-30.0,-55.0,-8.0,-5.0,1.0,-3.0,-9.0,1650911611654645.0,2
1158,3.0,14.0,13.0,7.0,5.0,3.0,3.0,2.0,1650911611655106.0,2
1159,1.0,-7.0,-2.0,-8.0,-15.0,-17.0,-7.0,-5.0,1650911611655106.0,2
1160,-37.0,5.0,-5.0,-7.0,-25.0,-7.0,1.0,15.0,1650911611668473.0,2
1161,22.0,27.0,25.0,13.0,16.0,4.0,-1.0,-4.0,1650911611668473.0,2
1162,0.0,-11.0,-10.0,12.0,34.0,26.0,15.0,19.0,1650911611675465.0,2
1163,21.0,-6.0,-15.0,-11.0,-23.0,-16.0,-1.0,-5.0,1650911611675465.0,2
1164,24.0,34.0,13.0,1.0,-3.0,-7.0,-1.0,8.0,1650911611699167.0,2
1165,-2.0,10.0,6.0,9.0,2.0,9.0,7.0,4.0,1650911611699167.0,2
1166,4.0,-7.0,-1.0,-15.0,-15.0,-5.0,-7.0,-7.0,1650911611699855.0,2
1167,-9.0,9.0,29.0,9.0,10.0,4.0,-3.0,-10.0,1650911611699855.0,2
1168,16.0,7.0,-4.0,1.0,8.0,3.0,2.0,10.0,1650911611714584.0,2
1169,-7.0,-5.0,31.0,0.0,-8.0,3.0,-2.0,-9.0,1650911611714584.0,2
1170,12.0,1.0,-7.0,-5.0,-6.0,-8.0,0.0,12.0,1650911611719988.0,2
1171,-8.0,4.0,4.0,-2.0,-7.0,0.0,-4.0,-11.0,1650911611719988.0,2
1172,-12.0,-12.0,-29.0,-8.0,-3.0,-10.0,-8.0,-11.0,1650911611728399.0,2
1173,-17.0,-32.0,-43.0,-6.0,-3.0,14.0,13.0,19.0,1650911611728399.0,2
1174,-6.0,6.0,20.0,1.0,-12.0,-14.0,-4.0,-7.0,1650911611735216.0,2
1175,-4.0,11.0,9.0,4.0,21.0,2.0,-5.0,-3.0,1650911611735216.0,2
1176,-27.0,-8.0,-2.0,0.0,15.0,8.0,4.0,7.0,1650911611750829.0,2
1177,6.0,7.0,1.0,-5.0,-18.0,-8.0,-4.0,-23.0,1650911611750829.0,2
1178,16.0,21.0,-4.0,13.0,12.0,7.0,2.0,1.0,1650911611752824.0,2
1179,-10.0,-9.0,-25.0,-16.0,-6.0,-14.0,-11.0,-13.0,1650911611752824.0,2
1180,-23.0,-4.0,1.0,-5.0,-22.0,-12.0,-1.0,-2.0,1650911611774164.0,2
1181,21.0,-11.0,-14.0,-1.0,5.0,1.0,5.0,17.0,1650911611774164.0,2
1182,-8.0,14.0,7.0,7.0,2.0,9.0,1.0,-9.0,1650911611775165.0,2
1183,5.0,4.0,15.0,6.0,10.0,15.0,3.0,4.0,1650911611775165.0,2
1184,9.0,-13.0,-9.0,0.0,8.0,11.0,4.0,2.0,1650911611787611.0,2
1185,-5.0,10.0,10.0,-3.0,-18.0,-21.0,-6.0,-6.0,1650911611787611.0,2
1186,-5.0,-10.0,-19.0,-7.0,-3.0,1.0,-3.0,-5.0,1650911611796423.0,2
1187,10.0,10.0,17.0,-3.0,8.0,4.0,0.0,0.0,1650911611796423.0,2
1188,18.0,0.0,-1.0,10.0,-3.0,10.0,3.0,0.0,1650911611812010.0,2
1189,-6.0,-1.0,1.0,-1.0,11.0,-1.0,7.0,1.0,1650911611812010.0,2
1190,2.0,-8.0,-12.0,1.0,3.0,-7.0,-3.0,14.0,1650911611812879.0,2
1191,-9.0,-4.0,8.0,-2.0,-13.0,-9.0,-4.0,1.0,1650911611812879.0,2
1192,14.0,10.0,11.0,-3.0,-13.0,-4.0,-6.0,-2.0,1650911611834570.0,2
1193,10.0,-8.0,-9.0,2.0,-3.0,-6.0,-6.0,-15.0,1650911611834570.0,2
1194,-19.0,1.0,1.0,2.0,2.0,9.0,5.0,-6.0,1650911611835601.0,2
1195,1.0,-13.0,-15.0,-1.0,2.0,-3.0,3.0,8.0,1650911611835601.0,2
1196,9.0,9.0,8.0,5.0,4.0,9.0,1.0,-2.0,1650911611847695.0,2
1197,0.0,2.0,2.0,1.0,22.0,17.0,1.0,8.0,1650911611847695.0,2
1198,4.0,-14.0,-5.0,-5.0,-18.0,-17.0,-4.0,-7.0,1650911611856867.0,2
1199,-7.0,-7.0,-4.0,0.0,-5.0,-4.0,-5.0,-1.0,1650911611856867.0,2
1200,-7.0,9.0,8.0,-4.0,9.0,-1.0,-11.0,-29.0,1650911611872004.0,2
1201,-7.0,-6.0,1.0,-7.0,-5.0,-5.0,-4.0,7.0,1650911611872004.0,2
1202,3.0,-3.0,6.0,6.0,13.0,4.0,4.0,2.0,1650911611872875.0,2
1203,-4.0,-8.0,-19.0,-2.0,-8.0,5.0,-1.0,-6.0,1650911611872875.0,2
1204,-4.0,0.0,12.0,-2.0,-9.0,-11.0,0.0,6.0,1650911611894064.0,2
1205,-4.0,12.0,-12.0,-7.0,-9.0,-3.0,0.0,-2.0,1650911611894064.0,2
1206,4.0,4.0,0.0,-3.0,-5.0,-1.0,-3.0,-1.0,1650911611894997.0,2
1207,3.0,2.0,5.0,-4.0,-11.0,-9.0,-2.0,-1.0,1650911611894997.0,2
1208,11.0,9.0,14.0,9.0,13.0,7.0,0.0,2.0,1650911611906874.0,2
1209,-13.0,-4.0,8.0,2.0,4.0,3.0,2.0,2.0,1650911611906874.0,2
1210,4.0,6.0,-7.0,4.0,13.0,11.0,1.0,7.0,1650911611915998.0,2
1211,-6.0,-2.0,-10.0,-7.0,-6.0,-3.0,-1.0,-1.0,1650911611915998.0,2
1212,5.0,7.0,2.0,-5.0,-17.0,-12.0,1.0,1.0,1650911611931175.0,2
1213,-1.0,-11.0,5.0,-8.0,-15.0,14.0,-7.0,-14.0,1650911611931175.0,2
1214,-5.0,-13.0,-3.0,1.0,-19.0,-7.0,7.0,6.0,1650911611933038.0,2
1215,-3.0,1.0,4.0,17.0,52.0,6.0,4.0,5.0,1650911611933038.0,2
1216,2.0,4.0,1.0,4.0,10.0,4.0,5.0,-1.0,1650911611954088.0,2
1217,-3.0,-4.0,-7.0,-8.0,-11.0,-9.0,1.0,6.0,1650911611954088.0,2
1218,-2.0,1.0,2.0,-12.0,-11.0,3.0,-3.0,-4.0,1650911611955452.0,2
1219,4.0,3.0,5.0,3.0,-21.0,1.0,-2.0,0.0,1650911611955452.0,2
1220,0.0,2.0,-7.0,7.0,10.0,-3.0,-1.0,2.0,1650911611967456.0,2
1221,-7.0,-4.0,-11.0,-11.0,11.0,-6.0,-6.0,-3.0,1650911611967456.0,2
1222,13.0,8.0,10.0,5.0,-8.0,3.0,-2.0,-4.0,1650911611976461.0,2
1223,-6.0,-2.0,-2.0,-4.0,1.0,7.0,3.0,-5.0,1650911611976461.0,2
1224,-1.0,-1.0,-9.0,0.0,12.0,5.0,3.0,7.0,1650911611991182.0,2
1225,6.0,-2.0,9.0,7.0,3.0,-1.0,-1.0,-15.0,1650911611991182.0,2
1226,-6.0,4.0,5.0,4.0,9.0,-7.0,-3.0,3.0,1650911611993016.0,2
1227,-5.0,-10.0,-13.0,-11.0,-22.0,-12.0,-2.0,16.0,1650911611993016.0,2
1228,-5.0,2.0,0.0,-4.0,-22.0,0.0,-2.0,-3.0,1650911612014205.0,2
1229,3.0,3.0,16.0,15.0,12.0,7.0,3.0,8.0,1650911612014205.0,2
1230,3.0,3.0,-8.0,3.0,30.0,4.0,-6.0,-20.0,1650911612015397.0,2
1231,3.0,-13.0,-6.0,-8.0,5.0,4.0,-1.0,-8.0,1650911612015397.0,2
1232,-14.0,-14.0,-26.0,-19.0,-21.0,-7.0,-1.0,2.0,1650911612027540.0,2
1233,-6.0,1.0,-7.0,-15.0,-31.0,-2.0,-3.0,5.0,1650911612027540.0,2
1234,2.0,0.0,10.0,12.0,27.0,3.0,1.0,3.0,1650911612036522.0,2
1235,2.0,4.0,9.0,6.0,-16.0,-3.0,5.0,-6.0,1650911612036522.0,2
1236,-3.0,-1.0,4.0,2.0,5.0,-2.0,-6.0,6.0,1650911612051981.0,2
1237,4.0,1.0,-3.0,-1.0,10.0,3.0,3.0,-6.0,1650911612051981.0,2
1238,-3.0,2.0,0.0,3.0,-13.0,5.0,0.0,-2.0,1650911612052853.0,2
1239,7.0,3.0,6.0,3.0,3.0,-8.0,-5.0,-2.0,1650911612052853.0,2
1240,-19.0,-3.0,-1.0,2.0,-7.0,-7.0,-7.0,-6.0,1650911612073950.0,2
1241,-2.0,-8.0,-8.0,-8.0,-3.0,6.0,7.0,-7.0,1650911612073950.0,2
1242,1.0,-1.0,-6.0,-12.0,16.0,7.0,3.0,6.0,1650911612074952.0,2
1243,0.0,13.0,11.0,2.0,-4.0,3.0,3.0,8.0,1650911612074952.0,2
1244,4.0,-1.0,9.0,14.0,-3.0,-3.0,-3.0,-19.0,1650911612096969.0,2
1245,5.0,0.0,-1.0,11.0,5.0,-7.0,-6.0,4.0,1650911612096969.0,2
1246,-12.0,-4.0,-7.0,-4.0,-13.0,-7.0,-1.0,1.0,1650911612097835.0,2
1247,-2.0,-3.0,-4.0,-10.0,0.0,-7.0,-4.0,-3.0,1650911612097835.0,2
1248,2.0,-3.0,-8.0,-10.0,-8.0,2.0,2.0,5.0,1650911612112008.0,2
1249,-2.0,1.0,-2.0,-7.0,-9.0,-5.0,-2.0,-1.0,1650911612112008.0,2
1250,17.0,7.0,18.0,12.0,14.0,13.0,2.0,5.0,1650911612112883.0,2
1251,-13.0,-6.0,-10.0,8.0,12.0,3.0,3.0,-1.0,1650911612112883.0,2
1252,2.0,-1.0,1.0,-6.0,-3.0,-7.0,-4.0,14.0,1650911612134020.0,2
1253,1.0,2.0,-3.0,-9.0,-22.0,-11.0,-5.0,1.0,1650911612134020.0,2
1254,-1.0,3.0,-4.0,-3.0,-28.0,-6.0,-5.0,-6.0,1650911612135037.0,2
1255,1.0,-1.0,-3.0,6.0,22.0,12.0,4.0,5.0,1650911612135037.0,2
1256,1.0,-8.0,-3.0,5.0,34.0,15.0,10.0,-7.0,1650911612147351.0,2
1257,1.0,0.0,9.0,15.0,4.0,0.0,2.0,5.0,1650911612147351.0,2
1258,-6.0,-3.0,-10.0,-15.0,-11.0,2.0,-2.0,4.0,1650911612156375.0,2
1259,2.0,-3.0,-6.0,-13.0,-23.0,-13.0,-7.0,-7.0,1650911612156375.0,2
1260,1.0,2.0,9.0,-3.0,-16.0,-11.0,-2.0,0.0,1650911612170643.0,2
1261,-5.0,-4.0,-20.0,-12.0,2.0,1.0,-4.0,0.0,1650911612170643.0,2
1262,2.0,1.0,2.0,3.0,-11.0,-7.0,0.0,-1.0,1650911612172637.0,2
1263,3.0,1.0,12.0,10.0,27.0,7.0,2.0,0.0,1650911612172637.0,2
1264,1.0,3.0,12.0,9.0,13.0,3.0,0.0,0.0,1650911612194063.0,2
1265,0.0,1.0,4.0,0.0,-5.0,0.0,0.0,2.0,1650911612194063.0,2
1266,-6.0,-3.0,-13.0,-7.0,10.0,3.0,1.0,-3.0,1650911612195064.0,2
1267,-1.0,-3.0,-16.0,-12.0,-16.0,-8.0,-4.0,0.0,1650911612195064.0,2
1268,4.0,8.0,15.0,9.0,-3.0,0.0,1.0,4.0,1650911612216194.0,2
1269,6.0,0.0,1.0,4.0,2.0,-8.0,-3.0,-2.0,1650911612216194.0,2
1270,-4.0,-3.0,4.0,-9.0,-3.0,-5.0,-1.0,0.0,1650911612217194.0,2
1271,-5.0,1.0,0.0,8.0,12.0,10.0,1.0,-3.0,1650911612217194.0,2
1272,0.0,-1.0,-22.0,-12.0,10.0,5.0,3.0,2.0,1650911612231183.0,2
1273,1.0,1.0,8.0,5.0,19.0,-6.0,-1.0,-2.0,1650911612231183.0,2
1274,3.0,3.0,16.0,3.0,-51.0,-9.0,-4.0,-2.0,1650911612233047.0,2
1275,1.0,-1.0,-8.0,0.0,-1.0,2.0,1.0,1.0,1650911612233047.0,2
1276,-4.0,-9.0,-21.0,-28.0,-7.0,-9.0,-2.0,-2.0,1650911612254603.0,2
1277,-4.0,3.0,0.0,11.0,19.0,4.0,3.0,4.0,1650911612254603.0,2
1278,-3.0,0.0,16.0,8.0,24.0,1.0,-1.0,-2.0,1650911612255602.0,2
1279,2.0,3.0,6.0,3.0,-20.0,-8.0,-5.0,-1.0,1650911612255602.0,2
1280,-1.0,-8.0,4.0,3.0,-19.0,13.0,-2.0,6.0,1650911612276352.0,2
1281,-2.0,-12.0,-37.0,-23.0,3.0,-12.0,-2.0,-7.0,1650911612276352.0,2
1282,3.0,1.0,-8.0,7.0,28.0,13.0,6.0,2.0,1650911612277383.0,2
1283,-4.0,-8.0,-2.0,-10.0,-10.0,-2.0,-2.0,-5.0,1650911612277383.0,2
1284,8.0,7.0,26.0,10.0,-6.0,-6.0,-1.0,2.0,1650911612292172.0,2
1285,-17.0,-1.0,6.0,6.0,-12.0,3.0,-2.0,-2.0,1650911612292172.0,2
1286,3.0,1.0,-6.0,1.0,8.0,-3.0,0.0,0.0,1650911612293016.0,2
1287,5.0,-4.0,-8.0,-3.0,-2.0,4.0,2.0,2.0,1650911612293016.0,2
1288,-2.0,4.0,6.0,6.0,4.0,-1.0,0.0,-1.0,1650911612314105.0,2
1289,3.0,6.0,24.0,13.0,-7.0,-9.0,-1.0,0.0,1650911612314105.0,2
1290,0.0,-1.0,-9.0,-3.0,1.0,4.0,-1.0,-2.0,1650911612314974.0,2
1291,-5.0,-3.0,2.0,-4.0,16.0,11.0,3.0,0.0,1650911612314974.0,2
1292,1.0,1.0,4.0,10.0,2.0,2.0,1.0,-2.0,1650911612336921.0,2
1293,-3.0,0.0,-24.0,-21.0,-28.0,-7.0,-4.0,-3.0,1650911612336921.0,2
1294,0.0,2.0,30.0,6.0,11.0,-10.0,-4.0,1.0,1650911612337861.0,2
1295,3.0,-8.0,-22.0,-1.0,-13.0,16.0,-1.0,-1.0,1650911612337861.0,2
1296,-4.0,-1.0,5.0,-4.0,9.0,-12.0,0.0,-2.0,1650911612351102.0,2
1297,2.0,2.0,10.0,6.0,6.0,6.0,1.0,2.0,1650911612351102.0,2
1298,-2.0,0.0,-14.0,-8.0,-17.0,-16.0,-1.0,2.0,1650911612357136.0,2
1299,1.0,7.0,18.0,8.0,5.0,-14.0,-2.0,-1.0,1650911612357136.0,2
1300,-1.0,5.0,4.0,4.0,0.0,7.0,-1.0,-1.0,1650911612374239.0,2
1301,9.0,-12.0,-11.0,-2.0,10.0,9.0,1.0,1.0,1650911612374239.0,2
1302,-9.0,6.0,3.0,-4.0,-4.0,7.0,-3.0,-10.0,1650911612375604.0,2
1303,1.0,-2.0,11.0,13.0,6.0,3.0,2.0,2.0,1650911612375604.0,2
1304,-2.0,-1.0,-23.0,-8.0,1.0,-2.0,2.0,0.0,1650911612396225.0,2
1305,7.0,22.0,23.0,3.0,-5.0,0.0,1.0,3.0,1650911612396225.0,2
1306,1.0,-12.0,-19.0,-7.0,-17.0,-12.0,-4.0,2.0,1650911612397241.0,2
1307,0.0,5.0,14.0,3.0,-4.0,-9.0,-2.0,-1.0,1650911612397241.0,2
1308,-1.0,-2.0,-6.0,-5.0,4.0,15.0,-1.0,-4.0,1650911612410933.0,2
1309,-3.0,-2.0,13.0,8.0,10.0,6.0,2.0,2.0,1650911612410933.0,2
1310,2.0,1.0,-11.0,0.0,8.0,-2.0,5.0,3.0,1650911612418020.0,2
1311,-2.0,2.0,5.0,4.0,10.0,-6.0,0.0,1.0,1650911612418020.0,2
1312,-1.0,-6.0,0.0,-6.0,-13.0,3.0,-5.0,-2.0,1650911612433677.0,2
1313,-2.0,-1.0,5.0,-2.0,-18.0,-15.0,-3.0,-3.0,1650911612433677.0,2
1314,1.0,-1.0,-2.0,4.0,13.0,12.0,3.0,0.0,1650911612435512.0,2
1315,-2.0,-6.0,-18.0,-16.0,-15.0,1.0,1.0,-1.0,1650911612435512.0,2
1316,2.0,4.0,13.0,12.0,10.0,4.0,4.0,2.0,1650911612456123.0,2
1317,-2.0,-5.0,-9.0,-4.0,-3.0,3.0,-2.0,0.0,1650911612456123.0,2
1318,2.0,-1.0,10.0,5.0,1.0,-6.0,-4.0,-2.0,1650911612457994.0,2
1319,-3.0,-2.0,0.0,-4.0,-5.0,0.0,0.0,-1.0,1650911612457994.0,2
1320,1.0,-1.0,-1.0,1.0,6.0,-1.0,0.0,-2.0,1650911612470085.0,2
1321,-2.0,-1.0,0.0,1.0,-9.0,-3.0,-1.0,0.0,1650911612470085.0,2
1322,2.0,0.0,-2.0,-1.0,2.0,-3.0,1.0,0.0,1650911612477275.0,2
1323,0.0,3.0,6.0,0.0,5.0,6.0,0.0,0.0,1650911612477275.0,2
1324,-7.0,-10.0,-25.0,-12.0,-16.0,-14.0,-5.0,-5.0,1650911612494524.0,2
1325,3.0,-2.0,1.0,2.0,9.0,3.0,0.0,1.0,1650911612494524.0,2
1326,-2.0,-1.0,-1.0,-1.0,-6.0,-3.0,-5.0,-2.0,1650911612495524.0,2
1327,0.0,8.0,5.0,-1.0,-10.0,2.0,1.0,5.0,1650911612495524.0,2
1328,2.0,-2.0,-4.0,7.0,24.0,2.0,-1.0,-5.0,1650911612516340.0,2
1329,-4.0,-5.0,-13.0,-6.0,11.0,6.0,3.0,0.0,1650911612516340.0,2
1330,-1.0,1.0,-4.0,-8.0,-5.0,6.0,0.0,1.0,1650911612517211.0,2
1331,-1.0,2.0,4.0,4.0,-20.0,-28.0,-5.0,-2.0,1650911612517211.0,2
1332,0.0,-2.0,-6.0,-4.0,-2.0,-10.0,-1.0,0.0,1650911612531170.0,2
1333,-3.0,-1.0,1.0,-2.0,10.0,12.0,-2.0,-3.0,1650911612531170.0,2
1334,-1.0,-1.0,-3.0,2.0,-3.0,-4.0,2.0,0.0,1650911612537504.0,0
1335,0.0,-6.0,-14.0,-14.0,-10.0,7.0,0.0,0.0,1650911612537504.0,0
1336,1.0,5.0,12.0,7.0,9.0,3.0,-1.0,0.0,1650911612554277.0,0
1337,-2.0,-3.0,-14.0,1.0,24.0,1.0,2.0,-2.0,1650911612554277.0,0
1338,2.0,2.0,7.0,1.0,-16.0,4.0,1.0,1.0,1650911612555312.0,0
1339,-3.0,-5.0,-4.0,-5.0,-6.0,-5.0,-2.0,-4.0,1650911612555312.0,0
1340,0.0,1.0,4.0,-2.0,-8.0,1.0,2.0,1.0,1650911612575834.0,0
1341,1.0,1.0,6.0,7.0,4.0,-1.0,2.0,2.0,1650911612575834.0,0
1342,8.0,2.0,-2.0,-4.0,3.0,-1.0,3.0,2.0,1650911612577862.0,0
1343,-19.0,-5.0,-14.0,-7.0,0.0,-2.0,-1.0,-4.0,1650911612577862.0,0
1344,-2.0,0.0,1.0,-5.0,-15.0,-7.0,-3.0,0.0,1650911612591145.0,0
1345,0.0,0.0,1.0,-4.0,-31.0,-15.0,-6.0,-2.0,1650911612591145.0,0
1346,-2.0,-2.0,2.0,9.0,17.0,15.0,-2.0,-2.0,1650911612597330.0,0
1347,8.0,0.0,6.0,7.0,20.0,4.0,4.0,2.0,1650911612597330.0,0
1348,-3.0,0.0,-1.0,0.0,6.0,14.0,4.0,2.0,1650911612614580.0,0
1349,-2.0,0.0,6.0,4.0,0.0,-1.0,0.0,-1.0,1650911612614580.0,0
1350,1.0,0.0,-5.0,-3.0,-10.0,-2.0,0.0,0.0,1650911612614862.0,0
1351,-1.0,-3.0,-8.0,-10.0,7.0,-6.0,-4.0,-2.0,1650911612614862.0,0
1352,1.0,-3.0,-2.0,-1.0,-6.0,-3.0,-1.0,1.0,1650911612636472.0,0
1353,2.0,5.0,3.0,1.0,0.0,-3.0,1.0,1.0,1650911612636472.0,0
1354,-6.0,-4.0,6.0,-4.0,-24.0,-3.0,-4.0,-4.0,1650911612637308.0,0
1355,3.0,-1.0,-3.0,1.0,3.0,-5.0,-5.0,-2.0,1650911612637308.0,0
1356,-3.0,2.0,7.0,8.0,18.0,9.0,5.0,1.0,1650911612650666.0,0
1357,-2.0,0.0,1.0,1.0,3.0,4.0,1.0,1.0,1650911612650666.0,0
1358,1.0,-1.0,1.0,2.0,13.0,6.0,2.0,2.0,1650911612656996.0,0
1359,1.0,3.0,8.0,2.0,-16.0,-2.0,-1.0,-1.0,1650911612656996.0,0
1360,1.0,-4.0,-10.0,-12.0,-29.0,-16.0,-6.0,-4.0,1650911612674488.0,0
1361,-1.0,-4.0,0.0,1.0,27.0,18.0,-2.0,-2.0,1650911612674488.0,0
1362,-1.0,1.0,-2.0,3.0,-12.0,-14.0,1.0,0.0,1650911612675218.0,0
1363,0.0,1.0,8.0,6.0,14.0,9.0,1.0,-1.0,1650911612675218.0,0
1364,4.0,2.0,1.0,3.0,-7.0,-9.0,1.0,-1.0,1650911612696303.0,0
1365,1.0,1.0,-4.0,-6.0,-17.0,-10.0,-1.0,1.0,1650911612696303.0,0
1366,-3.0,-4.0,-5.0,-5.0,11.0,4.0,-1.0,0.0,1650911612697334.0,0
1367,-1.0,-8.0,-12.0,-1.0,-6.0,6.0,0.0,0.0,1650911612697334.0,0
1368,1.0,-7.0,5.0,1.0,-2.0,-1.0,-1.0,0.0,1650911612709856.0,0
1369,-7.0,1.0,-3.0,0.0,-8.0,-1.0,-1.0,-2.0,1650911612709856.0,0
1370,3.0,3.0,2.0,2.0,15.0,-4.0,0.0,0.0,1650911612719032.0,0
1371,1.0,0.0,6.0,6.0,-1.0,5.0,1.0,3.0,1650911612719032.0,0
1372,0.0,0.0,0.0,-3.0,1.0,2.0,0.0,2.0,1650911612733814.0,0
1373,2.0,-4.0,-3.0,-1.0,-7.0,-1.0,-2.0,-1.0,1650911612733814.0,0
1374,-2.0,0.0,-4.0,-3.0,5.0,-1.0,1.0,0.0,1650911612734847.0,0
1375,-2.0,0.0,6.0,2.0,-8.0,-4.0,-5.0,-3.0,1650911612734847.0,0
1376,-4.0,3.0,-1.0,-4.0,-12.0,-5.0,-2.0,-3.0,1650911612757104.0,0
1377,-1.0,-4.0,-12.0,-5.0,4.0,0.0,0.0,0.0,1650911612757104.0,0
1378,1.0,2.0,-3.0,0.0,9.0,8.0,2.0,1.0,1650911612761970.0,0
1379,3.0,-2.0,-6.0,-5.0,-12.0,9.0,-1.0,0.0,1650911612761970.0,0
1380,0.0,2.0,8.0,2.0,-5.0,-21.0,-3.0,-2.0,1650911612770025.0,0
1381,1.0,1.0,2.0,2.0,6.0,-2.0,0.0,1.0,1650911612770025.0,0
1382,-1.0,-2.0,5.0,7.0,19.0,13.0,4.0,-1.0,1650911612785360.0,0
1383,0.0,1.0,-7.0,-3.0,6.0,-1.0,1.0,1.0,1650911612785360.0,0
1384,1.0,1.0,-4.0,-7.0,-9.0,-2.0,-2.0,-1.0,1650911612794063.0,0
1385,-3.0,-2.0,3.0,-5.0,-10.0,-13.0,-4.0,-2.0,1650911612794063.0,0
1386,-4.0,-8.0,-7.0,-1.0,-22.0,-1.0,-3.0,-2.0,1650911612795064.0,0
1387,2.0,7.0,6.0,6.0,26.0,9.0,5.0,0.0,1650911612795064.0,0
1388,1.0,-3.0,-7.0,3.0,19.0,3.0,2.0,1.0,1650911612815750.0,0
1389,-4.0,0.0,8.0,5.0,-5.0,5.0,0.0,-1.0,1650911612815750.0,0
1390,3.0,-1.0,-2.0,-7.0,-7.0,-14.0,-3.0,-2.0,1650911612817610.0,0
1391,-2.0,-6.0,-5.0,-4.0,-22.0,-12.0,-4.0,-3.0,1650911612817610.0,0
1392,-3.0,-5.0,-6.0,-1.0,6.0,-2.0,-3.0,-2.0,1650911612830763.0,0
1393,0.0,0.0,1.0,-1.0,2.0,3.0,-1.0,0.0,1650911612830763.0,0
1394,0.0,1.0,5.0,5.0,2.0,5.0,0.0,2.0,1650911612839872.0,0
1395,-1.0,3.0,0.0,4.0,4.0,5.0,3.0,3.0,1650911612839872.0,0
1396,0.0,-1.0,-8.0,-8.0,0.0,3.0,1.0,4.0,1650911612862220.0,0
1397,1.0,-2.0,1.0,1.0,-8.0,-8.0,-1.0,-6.0,1650911612862220.0,0
1398,-3.0,-1.0,-3.0,-2.0,-4.0,-6.0,-2.0,-2.0,1650911612862220.0,0
1399,2.0,0.0,3.0,2.0,12.0,15.0,1.0,0.0,1650911612862220.0,0
1400,2.0,2.0,5.0,3.0,-1.0,2.0,2.0,1.0,1650911612876127.0,0
1401,0.0,-1.0,-3.0,-3.0,-9.0,0.0,0.0,-1.0,1650911612876127.0,0
1402,6.0,-2.0,-4.0,-9.0,-22.0,-26.0,-5.0,-1.0,1650911612877161.0,0
1403,-12.0,-4.0,3.0,8.0,5.0,-7.0,-1.0,-1.0,1650911612877161.0,0
1404,3.0,2.0,2.0,8.0,31.0,15.0,4.0,0.0,1650911612890015.0,0
1405,-1.0,2.0,-2.0,0.0,3.0,13.0,3.0,2.0,1650911612890015.0,0
1406,-1.0,2.0,2.0,2.0,9.0,10.0,2.0,-1.0,1650911612898834.0,0
1407,2.0,-1.0,-1.0,-5.0,-11.0,-9.0,-3.0,-1.0,1650911612898834.0,0
1408,-2.0,0.0,0.0,-5.0,-27.0,-11.0,-2.0,-1.0,1650911612913047.0,0
1409,-2.0,-1.0,3.0,3.0,1.0,-6.0,-1.0,0.0,1650911612913047.0,0
1410,-2.0,9.0,-4.0,-5.0,-8.0,0.0,-1.0,-1.0,1650911612915044.0,0
1411,2.0,1.0,-3.0,-6.0,-11.0,-3.0,-1.0,2.0,1650911612915044.0,0
1412,-2.0,0.0,6.0,9.0,8.0,2.0,1.0,0.0,1650911612937018.0,0
1413,3.0,1.0,9.0,9.0,17.0,7.0,3.0,-5.0,1650911612937018.0,0
1414,-2.0,-2.0,-3.0,0.0,11.0,0.0,0.0,0.0,1650911612937981.0,0
1415,1.0,0.0,-1.0,-2.0,3.0,-6.0,-1.0,-1.0,1650911612937981.0,0
1416,0.0,2.0,-2.0,-6.0,-17.0,-2.0,-1.0,1.0,1650911612950081.0,0
1417,2.0,-2.0,-3.0,-6.0,-16.0,4.0,-5.0,-3.0,1650911612950081.0,0
1418,5.0,-2.0,1.0,2.0,-4.0,-15.0,-3.0,1.0,1650911612958153.0,0
1419,-6.0,-3.0,-2.0,-5.0,7.0,-2.0,-5.0,-8.0,1650911612958153.0,0
1420,1.0,-1.0,2.0,5.0,-3.0,2.0,1.0,-2.0,1650911612973122.0,0
1421,0.0,-4.0,-3.0,4.0,21.0,8.0,7.0,8.0,1650911612973122.0,0
1422,0.0,1.0,6.0,5.0,14.0,13.0,4.0,0.0,1650911612975075.0,0
1423,3.0,1.0,0.0,2.0,-9.0,-4.0,1.0,3.0,1650911612975075.0,0
1424,-1.0,-3.0,-5.0,-8.0,-13.0,-6.0,-4.0,-3.0,1650911612996504.0,0
1425,-2.0,-3.0,-4.0,-6.0,-13.0,-10.0,-4.0,-4.0,1650911612996504.0,0
1426,-5.0,-1.0,-10.0,-9.0,0.0,-3.0,0.0,-1.0,1650911612997345.0,0
1427,0.0,-2.0,-1.0,1.0,1.0,-2.0,1.0,2.0,1650911612997345.0,0
1428,-4.0,-4.0,6.0,5.0,7.0,7.0,-2.0,-4.0,1650911613009848.0,0
1429,2.0,-1.0,-7.0,-1.0,10.0,5.0,-1.0,1.0,1650911613009848.0,0
1430,-2.0,-3.0,4.0,4.0,8.0,5.0,1.0,0.0,1650911613018458.0,0
1431,2.0,1.0,-11.0,-6.0,-20.0,-2.0,-1.0,0.0,1650911613018458.0,0
1432,-2.0,-5.0,-1.0,-6.0,-13.0,-7.0,-4.0,-2.0,1650911613033941.0,0
1433,-1.0,0.0,3.0,1.0,-12.0,-15.0,-3.0,-2.0,1650911613033941.0,0
1434,-2.0,-1.0,-1.0,-4.0,-4.0,14.0,-1.0,1.0,1650911613034941.0,0
1435,1.0,2.0,3.0,6.0,25.0,1.0,4.0,0.0,1650911613034941.0,0
1436,5.0,3.0,-1.0,3.0,15.0,8.0,3.0,2.0,1650911613056728.0,0
1437,-16.0,-1.0,1.0,3.0,-13.0,-6.0,1.0,0.0,1650911613056728.0,0
1438,-1.0,-2.0,-3.0,-4.0,-1.0,-7.0,-3.0,-3.0,1650911613057565.0,0
1439,-1.0,-6.0,-12.0,-16.0,-17.0,-4.0,-4.0,-3.0,1650911613057565.0,0
1440,-1.0,2.0,2.0,0.0,-9.0,2.0,-3.0,0.0,1650911613071010.0,0
1441,2.0,1.0,2.0,2.0,19.0,18.0,3.0,0.0,1650911613071010.0,0
1442,-1.0,0.0,-2.0,6.0,16.0,0.0,1.0,0.0,1650911613078875.0,0
1443,-4.0,-1.0,-2.0,-3.0,-1.0,-9.0,-1.0,1.0,1650911613078875.0,0
1444,0.0,0.0,-3.0,-2.0,-11.0,-4.0,0.0,0.0,1650911613092839.0,0
1445,0.0,-1.0,2.0,-1.0,-6.0,2.0,-3.0,0.0,1650911613092839.0,0
1446,-2.0,-4.0,-12.0,-9.0,-11.0,-8.0,-2.0,-2.0,1650911613101176.0,0
1447,5.0,2.0,5.0,-2.0,-13.0,-9.0,-2.0,-2.0,1650911613101176.0,0
1448,-6.0,0.0,-7.0,-1.0,8.0,5.0,-1.0,1.0,1650911613116325.0,0
1449,6.0,5.0,12.0,11.0,16.0,2.0,2.0,2.0,1650911613116325.0,0
1450,-3.0,-5.0,-7.0,-2.0,-2.0,5.0,2.0,1.0,1650911613117222.0,0
1451,-2.0,-3.0,-12.0,-7.0,7.0,5.0,-1.0,-3.0,1650911613117222.0,0
1452,-2.0,2.0,-1.0,-4.0,-13.0,-11.0,-3.0,-1.0,1650911613129528.0,0
1453,0.0,-2.0,-3.0,-4.0,-14.0,-5.0,-2.0,-4.0,1650911613129528.0,0
1454,1.0,0.0,6.0,1.0,-8.0,-5.0,-3.0,-3.0,1650911613138990.0,0
1455,2.0,1.0,4.0,3.0,0.0,2.0,-2.0,0.0,1650911613138990.0,0
1456,-4.0,-2.0,-3.0,3.0,0.0,-1.0,4.0,-1.0,1650911613154185.0,0
1457,8.0,3.0,2.0,8.0,33.0,16.0,6.0,4.0,1650911613154185.0,0
1458,-16.0,-5.0,-11.0,-3.0,4.0,5.0,2.0,1.0,1650911613155185.0,0
1459,0.0,1.0,8.0,2.0,-9.0,0.0,-1.0,0.0,1650911613155185.0,0
1460,1.0,-3.0,-3.0,-10.0,-11.0,-8.0,-5.0,-3.0,1650911613176351.0,0
1461,0.0,0.0,2.0,-1.0,-9.0,-10.0,-4.0,-2.0,1650911613176351.0,0
1462,3.0,3.0,4.0,3.0,-5.0,2.0,-2.0,-1.0,1650911613177388.0,0
1463,-2.0,-4.0,1.0,-2.0,17.0,-20.0,-5.0,-2.0,1650911613177388.0,0
1464,-2.0,0.0,-5.0,-2.0,-13.0,11.0,-1.0,-2.0,1650911613198862.0,0
1465,1.0,1.0,-3.0,0.0,11.0,8.0,3.0,1.0,1650911613198862.0,0
1466,3.0,3.0,9.0,11.0,19.0,18.0,7.0,1.0,1650911613199732.0,0
1467,1.0,2.0,1.0,6.0,1.0,9.0,2.0,1.0,1650911613199732.0,0
1468,-2.0,-2.0,1.0,-3.0,0.0,-13.0,-2.0,-1.0,1650911613214654.0,0
1469,-3.0,-4.0,-10.0,-9.0,-19.0,-14.0,-6.0,-2.0,1650911613214654.0,0
1470,2.0,-1.0,-1.0,-3.0,-14.0,-7.0,-3.0,0.0,1650911613214859.0,0
1471,-2.0,-1.0,2.0,-2.0,-5.0,6.0,0.0,-1.0,1650911613214859.0,0
1472,1.0,0.0,0.0,1.0,7.0,-8.0,0.0,-1.0,1650911613236185.0,0
1473,-3.0,0.0,-1.0,1.0,6.0,3.0,1.0,-1.0,1650911613236185.0,0
1474,2.0,0.0,7.0,6.0,7.0,4.0,4.0,0.0,1650911613237218.0,0
1475,-1.0,-1.0,-5.0,-1.0,1.0,4.0,3.0,0.0,1650911613237218.0,0
1476,-1.0,-1.0,2.0,2.0,14.0,5.0,0.0,0.0,1650911613259116.0,0
1477,-3.0,-2.0,-5.0,-10.0,-17.0,-4.0,-4.0,-1.0,1650911613259116.0,0
1478,2.0,-1.0,2.0,-2.0,-12.0,-15.0,-4.0,-1.0,1650911613259858.0,0
1479,-1.0,2.0,4.0,3.0,-9.0,2.0,-3.0,0.0,1650911613259858.0,0
1480,-2.0,1.0,2.0,1.0,10.0,10.0,2.0,1.0,1650911613274443.0,0
1481,9.0,-1.0,-6.0,-1.0,1.0,-3.0,1.0,0.0,1650911613274443.0,0
1482,-14.0,-1.0,1.0,-1.0,6.0,-1.0,0.0,-2.0,1650911613275478.0,0
1483,1.0,0.0,3.0,4.0,-3.0,-3.0,0.0,1.0,1650911613275478.0,0
1484,0.0,-1.0,-9.0,-5.0,-7.0,-4.0,-1.0,-2.0,1650911613296993.0,0
1485,-1.0,0.0,2.0,-3.0,-7.0,-1.0,-2.0,-1.0,1650911613296993.0,0
1486,5.0,1.0,-1.0,-2.0,-5.0,-1.0,-1.0,-1.0,1650911613297865.0,0
1487,0.0,1.0,1.0,1.0,5.0,1.0,2.0,1.0,1650911613297865.0,0
1488,2.0,-1.0,2.0,2.0,-1.0,4.0,3.0,-2.0,1650911613319026.0,0
1489,-2.0,-1.0,0.0,2.0,11.0,6.0,-1.0,-1.0,1650911613319026.0,0
1490,2.0,1.0,-3.0,5.0,16.0,14.0,1.0,1.0,1650911613319881.0,0
1491,1.0,1.0,2.0,2.0,22.0,20.0,2.0,1.0,1650911613319881.0,0
1492,1.0,2.0,0.0,-2.0,-31.0,-27.0,-2.0,0.0,1650911613333020.0,0
1493,-1.0,-2.0,-4.0,-6.0,-9.0,-11.0,-4.0,1.0,1650911613333020.0,0
1494,-2.0,-2.0,-1.0,-4.0,-8.0,-9.0,-4.0,-3.0,1650911613340001.0,0
1495,1.0,0.0,1.0,0.0,-1.0,-2.0,-2.0,-2.0,1650911613340001.0,0
1496,1.0,1.0,5.0,4.0,6.0,8.0,0.0,2.0,1650911613355269.0,0
1497,-1.0,-2.0,-6.0,-7.0,-1.0,0.0,0.0,-1.0,1650911613355269.0,0
1498,1.0,2.0,0.0,0.0,4.0,1.0,0.0,-1.0,1650911613372299.0,0
1499,-1.0,-1.0,-2.0,-1.0,-4.0,0.0,1.0,-1.0,1650911613372299.0,0
1500,-2.0,-1.0,3.0,0.0,0.0,0.0,-1.0,-3.0,1650911613378317.0,0
1501,-3.0,-1.0,1.0,-1.0,-13.0,-9.0,0.0,1.0,1650911613378317.0,0
1502,4.0,-1.0,-3.0,-2.0,3.0,5.0,0.0,-2.0,1650911613385619.0,0
1503,-1.0,-1.0,-1.0,4.0,7.0,1.0,2.0,1.0,1650911613385619.0,0
1504,2.0,0.0,-3.0,0.0,8.0,1.0,-1.0,0.0,1650911613392484.0,0
1505,-1.0,2.0,8.0,6.0,1.0,1.0,1.0,-2.0,1650911613392484.0,0
1506,-2.0,-4.0,-11.0,-7.0,-17.0,-7.0,-3.0,-2.0,1650911613399765.0,0
1507,0.0,-5.0,-10.0,-10.0,-12.0,-3.0,-2.0,-2.0,1650911613399765.0,0
1508,-1.0,-1.0,1.0,-2.0,-1.0,-6.0,-2.0,0.0,1650911613416200.0,0
1509,-2.0,-1.0,-2.0,-3.0,-4.0,0.0,-1.0,-2.0,1650911613416200.0,0
1510,1.0,2.0,7.0,4.0,-4.0,6.0,1.0,0.0,1650911613418080.0,0
1511,-1.0,-1.0,4.0,5.0,10.0,-14.0,2.0,-1.0,1650911613418080.0,0
1512,-1.0,-1.0,-3.0,0.0,11.0,0.0,1.0,-1.0,1650911613439222.0,0
1513,-1.0,0.0,1.0,0.0,-8.0,2.0,-1.0,-1.0,1650911613439222.0,0
1514,-2.0,-1.0,1.0,-5.0,6.0,14.0,1.0,0.0,1650911613439707.0,0
1515,1.0,1.0,-1.0,2.0,-13.0,5.0,0.0,0.0,1650911613439707.0,0
1516,0.0,0.0,1.0,3.0,10.0,-16.0,1.0,2.0,1650911613453865.0,0
1517,0.0,-3.0,-1.0,2.0,1.0,-5.0,1.0,0.0,1650911613453865.0,0
1518,-1.0,-1.0,-4.0,-3.0,14.0,-6.0,-5.0,-2.0,1650911613459857.0,0
1519,1.0,0.0,-1.0,-2.0,-21.0,7.0,-2.0,-2.0,1650911613459857.0,0
1520,2.0,2.0,4.0,5.0,8.0,14.0,2.0,1.0,1650911613476168.0,0
1521,0.0,1.0,0.0,3.0,3.0,6.0,2.0,1.0,1650911613476168.0,0
1522,1.0,-1.0,-5.0,-8.0,-20.0,-14.0,-1.0,0.0,1650911613477203.0,0
1523,-3.0,-1.0,0.0,-3.0,2.0,8.0,-4.0,-1.0,1650911613477203.0,0
1524,-1.0,-1.0,-1.0,0.0,5.0,-8.0,-1.0,-2.0,1650911613498624.0,0
1525,1.0,-1.0,-2.0,-2.0,0.0,-4.0,-1.0,-2.0,1650911613498624.0,0
1526,1.0,1.0,4.0,2.0,0.0,6.0,0.0,-1.0,1650911613499624.0,0
1527,0.0,1.0,4.0,4.0,3.0,-2.0,2.0,2.0,1650911613499624.0,0
1528,0.0,0.0,-6.0,-2.0,-2.0,14.0,1.0,1.0,1650911613513198.0,0
1529,-2.0,-4.0,-3.0,-5.0,1.0,-8.0,-2.0,-4.0,1650911613513198.0,0
1530,-1.0,1.0,0.0,2.0,-15.0,-13.0,-4.0,-2.0,1650911613520344.0,0
1531,-3.0,-2.0,-4.0,-5.0,-1.0,-2.0,-1.0,-2.0,1650911613520344.0,0
1532,1.0,1.0,4.0,5.0,6.0,6.0,1.0,1.0,1650911613536346.0,0
1533,0.0,1.0,0.0,1.0,5.0,5.0,2.0,3.0,1650911613536346.0,0
1534,-2.0,-1.0,-1.0,1.0,4.0,-7.0,-1.0,-5.0,1650911613537198.0,0
1535,-1.0,0.0,0.0,-1.0,-5.0,-4.0,-1.0,0.0,1650911613537198.0,0
1536,-3.0,-4.0,-4.0,-7.0,-20.0,-15.0,-3.0,-1.0,1650911613558873.0,0
1537,-2.0,-1.0,0.0,1.0,4.0,3.0,-1.0,-1.0,1650911613558873.0,0
1538,0.0,-2.0,-2.0,1.0,18.0,5.0,3.0,2.0,1650911613559856.0,0
1539,0.0,2.0,1.0,1.0,0.0,13.0,3.0,0.0,1650911613559856.0,0
1540,1.0,2.0,1.0,-2.0,-7.0,4.0,0.0,-3.0,1650911613573794.0,0
1541,-3.0,-5.0,-3.0,-2.0,-7.0,-15.0,-1.0,-1.0,1650911613573794.0,0
1542,2.0,-2.0,1.0,3.0,6.0,6.0,2.0,1.0,1650911613579814.0,0
1543,2.0,-1.0,-1.0,-2.0,-2.0,-11.0,1.0,0.0,1650911613579814.0,0
1544,1.0,2.0,-5.0,-3.0,-19.0,5.0,-4.0,-2.0,1650911613596619.0,0
1545,-3.0,-2.0,0.0,2.0,5.0,6.0,0.0,-1.0,1650911613596619.0,0
1546,2.0,-1.0,0.0,0.0,-13.0,-12.0,0.0,2.0,1650911613597460.0,0
1547,2.0,3.0,-1.0,2.0,7.0,2.0,0.0,0.0,1650911613597460.0,0
1548,-4.0,-4.0,2.0,5.0,23.0,8.0,3.0,0.0,1650911613618918.0,0
1549,9.0,6.0,0.0,1.0,-3.0,2.0,-1.0,1.0,1650911613618918.0,0
1550,-1.0,-3.0,-5.0,-7.0,-4.0,-4.0,-2.0,-2.0,1650911613619790.0,0
1551,-9.0,-15.0,-4.0,-7.0,-12.0,-14.0,-2.0,-2.0,1650911613619790.0,0
1552,0.0,2.0,-2.0,-7.0,-23.0,0.0,-3.0,1.0,1650911613641178.0,0
1553,-1.0,3.0,1.0,4.0,12.0,5.0,6.0,1.0,1650911613641178.0,0
1554,1.0,2.0,2.0,6.0,7.0,2.0,2.0,5.0,1650911613643012.0,0
1555,1.0,4.0,0.0,-1.0,3.0,-8.0,-9.0,-7.0,1650911613643012.0,0
1556,-1.0,-3.0,-1.0,-1.0,-1.0,4.0,-4.0,-2.0,1650911613656482.0,0
1557,-2.0,-3.0,0.0,-1.0,2.0,-1.0,1.0,-7.0,1650911613656482.0,0
1558,-1.0,3.0,-1.0,0.0,-10.0,1.0,3.0,8.0,1650911613657344.0,0
1559,-1.0,-1.0,0.0,3.0,22.0,2.0,1.0,2.0,1650911613657344.0,0
1560,-1.0,-1.0,0.0,-1.0,-4.0,3.0,-1.0,-1.0,1650911613679132.0,0
1561,-1.0,-1.0,-1.0,-4.0,-5.0,-1.0,-1.0,1.0,1650911613679132.0,0
1562,0.0,0.0,2.0,-2.0,-7.0,-2.0,-2.0,1.0,1650911613679676.0,0
1563,5.0,7.0,2.0,1.0,-2.0,-9.0,-1.0,-11.0,1650911613679676.0,0
1564,-10.0,-7.0,-7.0,-2.0,12.0,-5.0,-6.0,-6.0,1650911613692481.0,0
1565,-6.0,-9.0,0.0,1.0,-7.0,-3.0,-7.0,-6.0,1650911613692481.0,0
1566,0.0,1.0,4.0,4.0,4.0,1.0,2.0,4.0,1650911613701459.0,0
1567,10.0,2.0,0.0,2.0,8.0,11.0,4.0,6.0,1650911613701459.0,0
1568,-9.0,4.0,2.0,1.0,-2.0,-13.0,-1.0,-8.0,1650911613716962.0,0
1569,7.0,2.0,-1.0,-1.0,2.0,3.0,5.0,11.0,1650911613716962.0,0
1570,-19.0,0.0,1.0,-2.0,0.0,-4.0,-1.0,2.0,1650911613717862.0,0
1571,-3.0,-6.0,-8.0,-6.0,-21.0,-10.0,0.0,-1.0,1650911613717862.0,0
1572,-1.0,1.0,4.0,-2.0,-5.0,9.0,-1.0,-9.0,1650911613739390.0,0
1573,8.0,-2.0,-6.0,-2.0,-12.0,-14.0,-12.0,-6.0,1650911613739390.0,0
1574,2.0,-2.0,-1.0,6.0,16.0,10.0,5.0,5.0,1650911613740258.0,0
1575,6.0,6.0,0.0,8.0,20.0,14.0,5.0,3.0,1650911613740258.0,0
1576,1.0,0.0,-2.0,-3.0,8.0,-10.0,0.0,3.0,1650911613752563.0,0
1577,-6.0,-2.0,-4.0,-1.0,2.0,1.0,2.0,9.0,1650911613752563.0,0
1578,-6.0,-4.0,-5.0,-9.0,-27.0,-8.0,-21.0,-41.0,1650911613761542.0,0
1579,-4.0,-8.0,-8.0,-6.0,-7.0,-12.0,-2.0,2.0,1650911613761542.0,0
1580,-5.0,-11.0,-5.0,-5.0,5.0,6.0,-2.0,3.0,1650911613775826.0,0
1581,4.0,4.0,6.0,4.0,-3.0,0.0,-2.0,-17.0,1650911613775826.0,0
1582,17.0,6.0,0.0,4.0,6.0,-2.0,7.0,19.0,1650911613777852.0,0
1583,-38.0,-5.0,-2.0,-4.0,-6.0,-5.0,-19.0,-33.0,1650911613777852.0,0
1584,20.0,8.0,8.0,3.0,2.0,10.0,22.0,26.0,1650911613806600.0,0
1585,3.0,19.0,-2.0,-9.0,-6.0,-6.0,2.0,30.0,1650911613806600.0,0
1586,-15.0,-39.0,-35.0,-8.0,-1.0,-5.0,-10.0,-21.0,1650911613807600.0,0
1587,-1.0,4.0,12.0,-1.0,-7.0,-2.0,-8.0,-21.0,1650911613807600.0,0
1588,8.0,12.0,-2.0,-2.0,-3.0,-7.0,-16.0,12.0,1650911613812591.0,0
1589,-6.0,0.0,6.0,6.0,10.0,6.0,8.0,2.0,1650911613812591.0,0
1590,14.0,2.0,14.0,3.0,-3.0,-2.0,-16.0,-23.0,1650911613821056.0,0
1591,0.0,-2.0,-4.0,2.0,-8.0,8.0,6.0,19.0,1650911613821056.0,0
1592,-16.0,-4.0,-18.0,-3.0,13.0,-6.0,4.0,-3.0,1650911613836472.0,0
1593,9.0,-12.0,-6.0,-2.0,8.0,3.0,-12.0,-34.0,1650911613836472.0,0
1594,-5.0,11.0,8.0,2.0,-10.0,-8.0,5.0,14.0,1650911613837333.0,0
1595,6.0,1.0,16.0,8.0,5.0,7.0,0.0,-15.0,1650911613837333.0,0
1596,-5.0,-34.0,-17.0,-9.0,-12.0,0.0,-6.0,-19.0,1650911613858833.0,0
1597,-12.0,20.0,4.0,-2.0,4.0,7.0,6.0,11.0,1650911613858833.0,0
1598,6.0,-15.0,-4.0,-3.0,2.0,3.0,0.0,-6.0,1650911613859833.0,0
1599,9.0,14.0,20.0,5.0,-3.0,-6.0,0.0,4.0,1650911613859833.0,0
1600,7.0,6.0,-6.0,0.0,-1.0,-3.0,6.0,19.0,1650911613872171.0,0
1601,-9.0,-10.0,-18.0,-6.0,-16.0,-16.0,-1.0,20.0,1650911613872171.0,0
1602,-8.0,1.0,9.0,-11.0,-18.0,-13.0,4.0,14.0,1650911613881152.0,0
1603,10.0,7.0,-14.0,3.0,16.0,10.0,9.0,15.0,1650911613881152.0,0
1604,4.0,8.0,8.0,13.0,36.0,15.0,4.0,2.0,1650911613896309.0,0
1605,-12.0,-18.0,5.0,-1.0,0.0,8.0,-3.0,-23.0,1650911613896309.0,0
1606,5.0,19.0,18.0,2.0,2.0,0.0,-9.0,-9.0,1650911613897309.0,0
1607,0.0,-25.0,-29.0,-9.0,-17.0,-1.0,2.0,13.0,1650911613897309.0,0
1608,12.0,15.0,9.0,-7.0,-23.0,-32.0,-10.0,-19.0,1650911613919208.0,0
1609,-10.0,-5.0,-1.0,8.0,16.0,4.0,-10.0,-15.0,1650911613919208.0,0
1610,12.0,14.0,3.0,2.0,15.0,12.0,19.0,30.0,1650911613920048.0,0
1611,25.0,-4.0,-5.0,-1.0,14.0,2.0,18.0,30.0,1650911613920048.0,0
1612,-22.0,-8.0,15.0,3.0,-19.0,10.0,-10.0,-24.0,1650911613932133.0,0
1613,10.0,-9.0,-19.0,-9.0,-10.0,-3.0,3.0,14.0,1650911613932133.0,0
1614,-4.0,5.0,4.0,3.0,15.0,10.0,2.0,-6.0,1650911613941055.0,0
1615,3.0,5.0,-10.0,-4.0,-7.0,-3.0,-8.0,-18.0,1650911613941055.0,0
1616,-25.0,-5.0,28.0,3.0,-2.0,-9.0,0.0,6.0,1650911613956333.0,0
1617,5.0,-8.0,-5.0,-4.0,-11.0,-6.0,5.0,9.0,1650911613956333.0,0
1618,4.0,-4.0,-15.0,-1.0,-3.0,5.0,0.0,-10.0,1650911613957332.0,3
1619,-15.0,17.0,2.0,-5.0,0.0,-16.0,-10.0,-9.0,1650911613957332.0,3
1620,19.0,21.0,9.0,11.0,8.0,7.0,1.0,5.0,1650911613979718.0,3
1621,-7.0,-14.0,-5.0,-1.0,5.0,13.0,-2.0,-8.0,1650911613979718.0,3
1622,-4.0,5.0,6.0,1.0,2.0,19.0,7.0,-8.0,1650911613979855.0,3
1623,-10.0,-5.0,3.0,1.0,-6.0,-18.0,4.0,39.0,1650911613979855.0,3
1624,-4.0,-7.0,-14.0,-5.0,4.0,-11.0,-11.0,-29.0,1650911613992393.0,3
1625,-8.0,1.0,0.0,-1.0,-12.0,11.0,0.0,-6.0,1650911613992393.0,3
1626,11.0,2.0,5.0,2.0,-7.0,-3.0,-6.0,-3.0,1650911614001528.0,3
1627,7.0,-22.0,-5.0,6.0,13.0,0.0,8.0,4.0,1650911614001528.0,3
1628,-9.0,-1.0,-4.0,0.0,7.0,4.0,2.0,0.0,1650911614015847.0,3
1629,42.0,19.0,-2.0,0.0,-4.0,-9.0,-11.0,-9.0,1650911614015847.0,3
1630,-12.0,-17.0,-15.0,-5.0,-2.0,-2.0,7.0,16.0,1650911614017877.0,3
1631,-20.0,11.0,34.0,-5.0,-28.0,-4.0,-6.0,-8.0,1650911614017877.0,3
1632,-17.0,8.0,-25.0,-7.0,-10.0,-8.0,-8.0,-4.0,1650911614039177.0,3
1633,5.0,7.0,15.0,5.0,1.0,-5.0,-2.0,-2.0,1650911614039177.0,3
1634,-2.0,8.0,12.0,4.0,-5.0,2.0,-4.0,-3.0,1650911614039856.0,3
1635,16.0,17.0,14.0,0.0,21.0,7.0,15.0,19.0,1650911614039856.0,3
1636,3.0,-19.0,-25.0,0.0,8.0,20.0,5.0,-10.0,1650911614053188.0,3
1637,-34.0,0.0,8.0,-2.0,-3.0,-8.0,7.0,2.0,1650911614053188.0,3
1638,-5.0,-7.0,-14.0,-12.0,-8.0,-19.0,-5.0,-3.0,1650911614061647.0,3
1639,1.0,0.0,1.0,0.0,-12.0,-4.0,-9.0,-13.0,1650911614061647.0,3
1640,-11.0,-2.0,9.0,-5.0,-14.0,6.0,-5.0,-3.0,1650911614075921.0,3
1641,17.0,12.0,7.0,11.0,13.0,-5.0,13.0,20.0,1650911614075921.0,3
1642,-23.0,-21.0,-13.0,6.0,22.0,6.0,2.0,1.0,1650911614077918.0,3
1643,-3.0,3.0,14.0,-3.0,6.0,7.0,-10.0,-28.0,1650911614077918.0,3
1644,10.0,-14.0,-15.0,0.0,0.0,-4.0,4.0,16.0,1650911614099109.0,3
1645,-5.0,-6.0,13.0,-3.0,-6.0,-8.0,-7.0,-9.0,1650911614099109.0,3
1646,8.0,18.0,18.0,13.0,19.0,2.0,0.0,-10.0,1650911614099854.0,3
1647,8.0,-19.0,-22.0,-3.0,-14.0,9.0,6.0,29.0,1650911614099854.0,3
1648,-1.0,7.0,-1.0,-9.0,0.0,-6.0,-4.0,-9.0,1650911614121194.0,3
1649,-3.0,-12.0,-17.0,1.0,-4.0,3.0,13.0,18.0,1650911614121194.0,3
1650,8.0,5.0,27.0,2.0,-6.0,-5.0,-8.0,-4.0,1650911614123057.0,3
1651,-9.0,4.0,-1.0,0.0,-2.0,-4.0,4.0,-4.0,1650911614123057.0,3
1652,18.0,-7.0,-8.0,-3.0,-3.0,-3.0,7.0,18.0,1650911614136215.0,3
1653,-5.0,4.0,6.0,4.0,12.0,9.0,-11.0,-25.0,1650911614136215.0,3
1654,-8.0,14.0,-7.0,4.0,5.0,9.0,8.0,13.0,1650911614137246.0,3
1655,-5.0,-30.0,-20.0,-6.0,-6.0,-9.0,-19.0,-52.0,1650911614137246.0,3
1656,-9.0,23.0,10.0,7.0,6.0,9.0,12.0,25.0,1650911614159595.0,3
1657,-12.0,-12.0,10.0,-1.0,7.0,0.0,0.0,4.0,1650911614159595.0,3
1658,15.0,3.0,-15.0,-4.0,-19.0,-13.0,-2.0,8.0,1650911614160549.0,3
1659,-18.0,-21.0,-8.0,-6.0,-4.0,-4.0,-5.0,-3.0,1650911614160549.0,3
1660,14.0,5.0,23.0,10.0,10.0,4.0,0.0,-13.0,1650911614181701.0,3
1661,6.0,10.0,-27.0,-9.0,-18.0,-4.0,1.0,10.0,1650911614181701.0,3
1662,-5.0,-9.0,-17.0,-6.0,9.0,4.0,0.0,-3.0,1650911614187839.0,3
1663,5.0,13.0,8.0,4.0,7.0,2.0,3.0,10.0,1650911614187839.0,3
1664,2.0,1.0,14.0,-1.0,-3.0,-1.0,3.0,-3.0,1650911614197159.0,3
1665,-3.0,-6.0,-6.0,0.0,9.0,4.0,-3.0,-11.0,1650911614197159.0,3
1666,-2.0,-12.0,-20.0,-8.0,-16.0,-7.0,1.0,17.0,1650911614198037.0,3
1667,14.0,20.0,7.0,10.0,6.0,2.0,6.0,7.0,1650911614198037.0,3
1668,-7.0,-22.0,-18.0,-9.0,-11.0,-3.0,-10.0,-15.0,1650911614219225.0,3
1669,0.0,4.0,18.0,8.0,0.0,2.0,4.0,4.0,1650911614219225.0,3
1670,7.0,1.0,0.0,3.0,1.0,2.0,2.0,-5.0,1650911614219855.0,3
1671,0.0,10.0,4.0,1.0,6.0,2.0,-8.0,-17.0,1650911614219855.0,3
1672,17.0,-12.0,-5.0,2.0,1.0,-1.0,12.0,25.0,1650911614241508.0,3
1673,7.0,0.0,1.0,-1.0,-1.0,0.0,0.0,-1.0,1650911614241508.0,3
1674,-28.0,-8.0,12.0,-6.0,-10.0,-10.0,-10.0,-18.0,1650911614242345.0,3
1675,11.0,11.0,-7.0,-5.0,-5.0,-2.0,6.0,24.0,1650911614242345.0,3
1676,-6.0,6.0,5.0,1.0,-14.0,-2.0,-14.0,-29.0,1650911614256467.0,3
1677,19.0,12.0,0.0,0.0,13.0,-2.0,13.0,24.0,1650911614256467.0,3
1678,12.0,-1.0,7.0,6.0,12.0,10.0,8.0,6.0,1650911614262456.0,3
1679,-14.0,-9.0,-8.0,-1.0,5.0,0.0,-6.0,-16.0,1650911614262456.0,3
1680,0.0,2.0,-6.0,7.0,11.0,17.0,9.0,18.0,1650911614278607.0,3
1681,-24.0,-1.0,12.0,-10.0,-32.0,-23.0,-10.0,-19.0,1650911614278607.0,3
1682,-8.0,-9.0,-30.0,-12.0,-10.0,-6.0,-6.0,3.0,1650911614280472.0,3
1683,8.0,2.0,6.0,8.0,19.0,5.0,5.0,9.0,1650911614280472.0,3
1684,-13.0,-12.0,-3.0,6.0,6.0,6.0,8.0,13.0,1650911614301558.0,3
1685,9.0,12.0,27.0,4.0,-2.0,4.0,-4.0,-8.0,1650911614301558.0,3
1686,9.0,26.0,-20.0,1.0,9.0,6.0,5.0,6.0,1650911614302436.0,3
1687,-25.0,-28.0,16.0,-7.0,-7.0,-5.0,-15.0,-20.0,1650911614302436.0,3
1688,32.0,14.0,2.0,-4.0,1.0,-10.0,-5.0,2.0,1650911614315904.0,3
1689,-7.0,-8.0,-18.0,-3.0,-9.0,-2.0,-6.0,-5.0,1650911614315904.0,3
1690,16.0,19.0,34.0,2.0,-14.0,-9.0,-1.0,-2.0,1650911614323086.0,3
1691,-39.0,-39.0,-19.0,-3.0,-4.0,-2.0,1.0,-1.0,1650911614323086.0,3
1692,6.0,10.0,8.0,-1.0,-4.0,-8.0,-5.0,2.0,1650911614338991.0,3
1693,-21.0,-1.0,-1.0,-10.0,-4.0,-3.0,-10.0,-11.0,1650911614338991.0,3
1694,-4.0,-17.0,-11.0,3.0,1.0,7.0,-13.0,-35.0,1650911614339825.0,3
1695,24.0,23.0,10.0,12.0,11.0,1.0,8.0,8.0,1650911614339825.0,3
1696,-11.0,-14.0,-14.0,-5.0,7.0,2.0,2.0,2.0,1650911614362015.0,3
1697,6.0,-18.0,-14.0,5.0,6.0,7.0,0.0,9.0,1650911614362015.0,3
1698,9.0,-1.0,7.0,-11.0,2.0,-6.0,-3.0,-4.0,1650911614362885.0,3
1699,-22.0,-11.0,-14.0,-6.0,-37.0,12.0,-1.0,7.0,1650911614362885.0,3
1700,1.0,24.0,16.0,-5.0,-28.0,-37.0,-9.0,-21.0,1650911614375211.0,3
1701,19.0,4.0,9.0,9.0,33.0,18.0,10.0,27.0,1650911614375211.0,3
1702,6.0,5.0,17.0,20.0,30.0,23.0,9.0,5.0,1650911614390536.0,3
1703,5.0,-22.0,-23.0,-4.0,9.0,0.0,-2.0,-16.0,1650911614390536.0,3
1704,-9.0,2.0,4.0,1.0,-11.0,2.0,0.0,1.0,1650911614398549.0,3
1705,6.0,-4.0,-22.0,-13.0,-25.0,-14.0,-3.0,-9.0,1650911614398549.0,3
1706,-4.0,7.0,18.0,-1.0,-18.0,-10.0,0.0,0.0,1650911614400547.0,3
1707,-4.0,5.0,2.0,-9.0,-4.0,-3.0,-2.0,8.0,1650911614400547.0,3
1708,7.0,4.0,-4.0,0.0,3.0,2.0,-1.0,-6.0,1650911614429332.0,3
1709,-6.0,-3.0,2.0,-3.0,6.0,-1.0,-2.0,-8.0,1650911614429332.0,3
1710,-15.0,-15.0,-10.0,-5.0,0.0,5.0,3.0,12.0,1650911614430174.0,3
1711,23.0,31.0,18.0,12.0,10.0,3.0,0.0,-5.0,1650911614430174.0,3
1712,-1.0,-3.0,0.0,0.0,9.0,2.0,4.0,9.0,1650911614435160.0,3
1713,-5.0,-2.0,-10.0,-2.0,-5.0,-6.0,-2.0,-3.0,1650911614435160.0,3
1714,13.0,9.0,9.0,0.0,-5.0,-6.0,-3.0,2.0,1650911614442308.0,3
1715,0.0,15.0,3.0,-4.0,-12.0,-9.0,0.0,6.0,1650911614442308.0,3
1716,-16.0,-4.0,-17.0,-4.0,-3.0,7.0,-2.0,4.0,1650911614459031.0,3
1717,17.0,16.0,24.0,12.0,31.0,5.0,9.0,10.0,1650911614459031.0,3
1718,-9.0,-31.0,-22.0,-2.0,-15.0,-7.0,-4.0,-7.0,1650911614459858.0,3
1719,8.0,14.0,0.0,2.0,21.0,-1.0,3.0,4.0,1650911614459858.0,3
1720,20.0,-17.0,-9.0,5.0,15.0,9.0,4.0,43.0,1650911614481327.0,3
1721,-8.0,29.0,0.0,-6.0,-11.0,0.0,-2.0,-20.0,1650911614481327.0,3
1722,-27.0,-15.0,-8.0,-14.0,-27.0,-12.0,-4.0,-1.0,1650911614489292.0,3
1723,11.0,-3.0,4.0,-2.0,-8.0,-7.0,-3.0,-6.0,1650911614489292.0,3
1724,-4.0,9.0,3.0,5.0,8.0,2.0,4.0,1.0,1650911614495842.0,3
1725,3.0,9.0,18.0,4.0,4.0,12.0,11.0,12.0,1650911614495842.0,3
1726,16.0,-1.0,2.0,-3.0,3.0,-5.0,-5.0,-1.0,1650911614501829.0,3
1727,-9.0,-10.0,-12.0,-4.0,-10.0,0.0,-1.0,-1.0,1650911614501829.0,3
1728,-8.0,2.0,9.0,5.0,1.0,-1.0,-3.0,-14.0,1650911614519038.0,3
1729,-11.0,5.0,13.0,1.0,-15.0,-4.0,-1.0,-3.0,1650911614519038.0,3
1730,22.0,-7.0,-34.0,-8.0,9.0,5.0,7.0,7.0,1650911614519887.0,3
1731,-14.0,9.0,17.0,8.0,10.0,3.0,1.0,7.0,1650911614519887.0,3
1732,-3.0,-8.0,-11.0,-2.0,-2.0,-2.0,1.0,-10.0,1650911614541174.0,3
1733,0.0,-12.0,8.0,-2.0,-7.0,-4.0,-6.0,-2.0,1650911614541174.0,3
1734,5.0,28.0,30.0,15.0,11.0,11.0,8.0,11.0,1650911614543010.0,3
1735,-7.0,-27.0,-43.0,-14.0,-13.0,-8.0,-8.0,-17.0,1650911614543010.0,3
1736,8.0,-14.0,1.0,-5.0,-1.0,-7.0,6.0,6.0,1650911614556364.0,3
1737,-4.0,-17.0,-21.0,-2.0,-6.0,-3.0,-9.0,9.0,1650911614556364.0,3
1738,-6.0,3.0,13.0,1.0,5.0,6.0,0.0,-1.0,1650911614562720.0,3
1739,6.0,12.0,16.0,9.0,6.0,4.0,5.0,10.0,1650911614562720.0,3
1740,-14.0,-20.0,-32.0,-10.0,-7.0,-5.0,-6.0,-20.0,1650911614578818.0,3
1741,19.0,3.0,-2.0,-2.0,-12.0,-4.0,-1.0,2.0,1650911614578818.0,3
1742,-17.0,9.0,20.0,12.0,18.0,2.0,7.0,9.0,1650911614579704.0,3
1743,5.0,-21.0,-21.0,-5.0,10.0,9.0,-9.0,-11.0,1650911614579704.0,3
1744,13.0,17.0,18.0,-4.0,-3.0,14.0,1.0,4.0,1650911614601311.0,3
1745,-6.0,-11.0,-16.0,-4.0,-6.0,-13.0,-6.0,-12.0,1650911614601311.0,3
1746,-4.0,-1.0,-23.0,-6.0,-15.0,-13.0,-5.0,1.0,1650911614602166.0,3
1747,18.0,15.0,14.0,-6.0,-21.0,-14.0,-1.0,0.0,1650911614602166.0,3
1748,11.0,-7.0,12.0,-1.0,-11.0,-6.0,-2.0,10.0,1650911614615038.0,3
1749,-5.0,5.0,4.0,2.0,24.0,15.0,-1.0,-21.0,1650911614615038.0,3
1750,-13.0,-19.0,-4.0,2.0,21.0,7.0,-1.0,-9.0,1650911614624016.0,3
1751,20.0,19.0,10.0,9.0,9.0,4.0,16.0,26.0,1650911614624016.0,3
1752,-21.0,-6.0,-15.0,-10.0,-11.0,-8.0,-9.0,-19.0,1650911614638219.0,3
1753,2.0,-6.0,-16.0,-10.0,-16.0,-6.0,2.0,19.0,1650911614638219.0,3
1754,12.0,-3.0,1.0,-6.0,-12.0,-8.0,-1.0,1.0,1650911614640182.0,3
1755,-6.0,20.0,24.0,6.0,2.0,-1.0,-3.0,-6.0,1650911614640182.0,3
1756,-5.0,1.0,-2.0,-4.0,-10.0,-3.0,-5.0,-2.0,1650911614660857.0,3
1757,-1.0,-17.0,-9.0,6.0,20.0,7.0,8.0,1.0,1650911614660857.0,3
1758,15.0,7.0,10.0,1.0,0.0,1.0,9.0,11.0,1650911614662884.0,3
1759,-2.0,-15.0,-35.0,-12.0,-4.0,-3.0,-1.0,1.0,1650911614662884.0,3
1760,-4.0,18.0,28.0,11.0,9.0,2.0,2.0,-9.0,1650911614675443.0,3
1761,1.0,2.0,-2.0,-4.0,-4.0,-1.0,-14.0,-17.0,1650911614675443.0,3
1762,-12.0,-13.0,-10.0,-6.0,-3.0,-3.0,2.0,5.0,1650911614684063.0,3
1763,-16.0,-3.0,14.0,-3.0,-11.0,12.0,-6.0,-19.0,1650911614684063.0,3
1764,-1.0,-3.0,0.0,2.0,9.0,-14.0,2.0,4.0,1650911614698553.0,3
1765,-4.0,8.0,13.0,8.0,16.0,6.0,1.0,0.0,1650911614698553.0,3
1766,-5.0,-8.0,-12.0,-11.0,-21.0,-9.0,-10.0,-9.0,1650911614700423.0,3
1767,5.0,27.0,-1.0,-3.0,-3.0,3.0,3.0,0.0,1650911614700423.0,3
1768,-10.0,-12.0,6.0,5.0,12.0,9.0,0.0,-7.0,1650911614721844.0,3
1769,-5.0,-9.0,-3.0,4.0,9.0,8.0,5.0,6.0,1650911614721844.0,3
1770,10.0,11.0,3.0,3.0,14.0,-1.0,-4.0,-11.0,1650911614722713.0,3
1771,15.0,-2.0,9.0,4.0,-5.0,-2.0,3.0,7.0,1650911614722713.0,3
1772,-7.0,-15.0,-32.0,-16.0,-22.0,-11.0,-11.0,-26.0,1650911614735682.0,3
1773,-8.0,-6.0,-8.0,-10.0,-20.0,-12.0,-2.0,15.0,1650911614735682.0,3
1774,4.0,-7.0,-3.0,0.0,1.0,3.0,1.0,1.0,1650911614749967.0,3
1775,-2.0,16.0,16.0,2.0,1.0,-3.0,-3.0,0.0,1650911614749967.0,3
1776,5.0,-10.0,-6.0,3.0,13.0,7.0,0.0,0.0,1650911614759058.0,3
1777,-32.0,6.0,2.0,-3.0,-7.0,0.0,1.0,-11.0,1650911614759058.0,3
1778,18.0,-4.0,-15.0,-2.0,-5.0,-1.0,-7.0,3.0,1650911614760024.0,3
1779,-32.0,0.0,15.0,5.0,4.0,-5.0,3.0,4.0,1650911614760024.0,3
1780,8.0,8.0,6.0,4.0,-2.0,3.0,3.0,-3.0,1650911614789363.0,3
1781,4.0,9.0,-5.0,-5.0,-6.0,-6.0,-6.0,-10.0,1650911614789363.0,3
1782,-8.0,-13.0,-1.0,2.0,-5.0,0.0,2.0,8.0,1650911614789855.0,3
1783,3.0,-9.0,-8.0,5.0,5.0,4.0,-2.0,-8.0,1650911614789855.0,3
1784,-4.0,0.0,15.0,5.0,15.0,0.0,0.0,9.0,1650911614794846.0,3
1785,16.0,18.0,6.0,9.0,12.0,9.0,3.0,1.0,1650911614794846.0,3
1786,-20.0,-6.0,16.0,-9.0,-10.0,-1.0,-4.0,-11.0,1650911614803705.0,3
1787,0.0,-5.0,-10.0,-2.0,-9.0,-6.0,-1.0,0.0,1650911614803705.0,3
1788,11.0,-17.0,-11.0,-5.0,-8.0,0.0,3.0,15.0,1650911614819008.0,3
1789,3.0,-2.0,-3.0,-1.0,-6.0,-6.0,-3.0,-8.0,1650911614819008.0,3
1790,16.0,10.0,-3.0,-4.0,-2.0,0.0,1.0,-2.0,1650911614819868.0,3
1791,-1.0,-7.0,-9.0,-8.0,-2.0,-6.0,-4.0,-2.0,1650911614819868.0,3
1792,4.0,23.0,18.0,6.0,-14.0,-2.0,0.0,-5.0,1650911614842135.0,3
1793,3.0,-14.0,-7.0,-1.0,6.0,-4.0,-14.0,-17.0,1650911614842135.0,3
1794,-15.0,-1.0,2.0,9.0,20.0,14.0,3.0,-1.0,1650911614842979.0,3
1795,5.0,-8.0,-17.0,0.0,7.0,3.0,9.0,21.0,1650911614842979.0,3
1796,-3.0,-3.0,-14.0,-11.0,-3.0,4.0,-5.0,-18.0,1650911614854474.0,3
1797,-9.0,-2.0,6.0,-5.0,-16.0,-9.0,2.0,11.0,1650911614854474.0,3
1798,-1.0,8.0,0.0,-4.0,-5.0,-9.0,-4.0,4.0,1650911614863454.0,3
1799,3.0,9.0,14.0,10.0,9.0,5.0,-3.0,-18.0,1650911614863454.0,3
1800,-5.0,-13.0,3.0,2.0,6.0,-6.0,3.0,14.0,1650911614878639.0,3
1801,4.0,-11.0,7.0,-6.0,-11.0,2.0,-1.0,-2.0,1650911614878639.0,3
1802,0.0,-2.0,-8.0,5.0,0.0,1.0,0.0,-4.0,1650911614880505.0,3
1803,8.0,22.0,8.0,-3.0,2.0,5.0,8.0,10.0,1650911614880505.0,3
1804,0.0,-5.0,-5.0,-1.0,1.0,5.0,0.0,1.0,1650911614900989.0,3
1805,7.0,-2.0,-7.0,0.0,-2.0,1.0,6.0,6.0,1650911614900989.0,3
1806,0.0,5.0,2.0,2.0,-5.0,-9.0,4.0,7.0,1650911614902857.0,3
1807,-3.0,-15.0,-11.0,-5.0,-8.0,-7.0,-3.0,1.0,1650911614902857.0,3
1808,-3.0,12.0,4.0,2.0,5.0,5.0,-2.0,-7.0,1650911614915722.0,3
1809,6.0,2.0,-9.0,-2.0,7.0,5.0,3.0,5.0,1650911614915722.0,3
1810,-5.0,8.0,7.0,-2.0,-4.0,1.0,-3.0,-8.0,1650911614924057.0,3
1811,-1.0,-9.0,-2.0,4.0,4.0,-4.0,-3.0,-15.0,1650911614924057.0,3
1812,1.0,3.0,-3.0,-1.0,3.0,-2.0,0.0,24.0,1650911614939313.0,3
1813,-7.0,-2.0,0.0,3.0,-4.0,0.0,2.0,-6.0,1650911614939313.0,3
1814,12.0,-1.0,0.0,2.0,0.0,4.0,11.0,14.0,1650911614940345.0,3
1815,-12.0,-16.0,-12.0,-8.0,2.0,-7.0,-23.0,-27.0,1650911614940345.0,3
1816,3.0,16.0,17.0,3.0,0.0,3.0,4.0,0.0,1650911614961758.0,3
1817,-2.0,2.0,2.0,-3.0,-6.0,-6.0,-1.0,-2.0,1650911614961758.0,3
1818,-3.0,4.0,-2.0,-1.0,-4.0,-5.0,-6.0,-7.0,1650911614962597.0,3
1819,-8.0,-33.0,-43.0,-9.0,-5.0,-3.0,-4.0,-3.0,1650911614962597.0,3
1820,1.0,13.0,9.0,-1.0,-6.0,0.0,3.0,10.0,1650911614984660.0,3
1821,2.0,12.0,9.0,4.0,3.0,2.0,-4.0,-1.0,1650911614984660.0,3
1822,-8.0,-19.0,-24.0,-8.0,1.0,-4.0,-10.0,-16.0,1650911614984660.0,3
1823,-1.0,5.0,9.0,1.0,5.0,2.0,9.0,10.0,1650911614984660.0,3
1824,0.0,1.0,1.0,-3.0,-6.0,-4.0,-11.0,-11.0,1650911614998915.0,3
1825,2.0,-12.0,-12.0,-4.0,-3.0,-1.0,-1.0,-4.0,1650911614998915.0,3
1826,4.0,8.0,6.0,5.0,0.0,-4.0,2.0,2.0,1650911614999856.0,3
1827,5.0,1.0,1.0,-3.0,-5.0,5.0,3.0,6.0,1650911614999856.0,3
1828,3.0,-2.0,-2.0,3.0,7.0,-2.0,0.0,-2.0,1650911615028901.0,3
1829,0.0,0.0,9.0,4.0,22.0,12.0,2.0,4.0,1650911615028901.0,3
1830,-4.0,-16.0,-16.0,2.0,-1.0,1.0,0.0,-4.0,1650911615029771.0,3
1831,-1.0,11.0,16.0,-4.0,-12.0,-7.0,-3.0,-3.0,1650911615029771.0,3
1832,-4.0,3.0,-2.0,-5.0,-13.0,-3.0,2.0,-1.0,1650911615043999.0,3
1833,6.0,-8.0,-6.0,0.0,-1.0,-2.0,4.0,4.0,1650911615043999.0,3
1834,-6.0,3.0,10.0,2.0,9.0,7.0,0.0,-1.0,1650911615044998.0,3
1835,-1.0,-4.0,-4.0,2.0,2.0,2.0,3.0,6.0,1650911615044998.0,3
1836,-6.0,-3.0,-7.0,-1.0,3.0,1.0,-1.0,-4.0,1650911615058354.0,3
1837,-2.0,-6.0,-3.0,2.0,-5.0,-1.0,0.0,1.0,1650911615058354.0,3
1838,-1.0,6.0,6.0,-3.0,3.0,-7.0,-2.0,0.0,1650911615060329.0,3
1839,0.0,2.0,9.0,0.0,-2.0,-6.0,-1.0,0.0,1650911615060329.0,3
1840,5.0,-2.0,-6.0,-5.0,-5.0,-4.0,0.0,-1.0,1650911615081273.0,3
1841,-3.0,1.0,-5.0,-4.0,-7.0,-2.0,0.0,2.0,1650911615081273.0,3
1842,-3.0,11.0,15.0,-1.0,-7.0,6.0,-1.0,-1.0,1650911615082270.0,3
1843,1.0,-21.0,-3.0,6.0,14.0,2.0,2.0,2.0,1650911615082270.0,3
1844,-5.0,-5.0,-4.0,5.0,15.0,5.0,5.0,5.0,1650911615103710.0,3
1845,1.0,-6.0,-6.0,1.0,1.0,-1.0,-1.0,-17.0,1650911615103710.0,3
1846,2.0,4.0,4.0,-4.0,-11.0,-4.0,-3.0,7.0,1650911615104676.0,3
1847,5.0,0.0,-13.0,-6.0,-9.0,-8.0,-4.0,6.0,1650911615104676.0,3
1848,-13.0,2.0,0.0,1.0,6.0,-2.0,-1.0,0.0,1650911615118816.0,3
1849,-1.0,1.0,0.0,-3.0,2.0,0.0,-1.0,-6.0,1650911615118816.0,3
1850,3.0,-4.0,-3.0,-2.0,0.0,1.0,0.0,-3.0,1650911615119845.0,3
1851,0.0,5.0,8.0,2.0,-5.0,9.0,-1.0,0.0,1650911615119845.0,3
1852,6.0,5.0,13.0,4.0,-8.0,-8.0,-2.0,-6.0,1650911615141816.0,3
1853,-2.0,-5.0,-18.0,-4.0,-2.0,-7.0,-3.0,7.0,1650911615141816.0,3
1854,-5.0,0.0,2.0,-4.0,-1.0,2.0,-2.0,-4.0,1650911615142650.0,3
1855,-1.0,2.0,7.0,6.0,3.0,5.0,3.0,0.0,1650911615142650.0,3
1856,-1.0,-5.0,-14.0,-4.0,2.0,-1.0,-1.0,-2.0,1650911615164013.0,3
1857,-2.0,4.0,5.0,10.0,10.0,1.0,3.0,8.0,1650911615164013.0,3
1858,2.0,2.0,8.0,8.0,-1.0,11.0,-1.0,-7.0,1650911615164850.0,3
1859,-3.0,-5.0,-12.0,-15.0,-10.0,-8.0,-1.0,-3.0,1650911615164850.0,3
1860,11.0,1.0,3.0,-6.0,13.0,0.0,1.0,1.0,1650911615176850.0,3
1861,-23.0,-9.0,-9.0,-4.0,-19.0,-19.0,-6.0,-1.0,1650911615176850.0,3
1862,1.0,4.0,2.0,1.0,0.0,10.0,2.0,5.0,1650911615185987.0,3
1863,8.0,10.0,14.0,15.0,8.0,2.0,6.0,5.0,1650911615185987.0,3
1864,-2.0,-8.0,-5.0,-7.0,6.0,9.0,0.0,-2.0,1650911615201466.0,3
1865,-1.0,-1.0,-4.0,-14.0,-5.0,-9.0,-4.0,-1.0,1650911615201466.0,3
1866,-2.0,-2.0,4.0,13.0,4.0,-12.0,-1.0,-3.0,1650911615202336.0,3
1867,-7.0,-6.0,-6.0,-4.0,-7.0,-3.0,-1.0,-3.0,1650911615202336.0,3
1868,4.0,8.0,12.0,4.0,-25.0,9.0,2.0,5.0,1650911615224385.0,3
1869,7.0,2.0,5.0,7.0,9.0,11.0,1.0,2.0,1650911615224385.0,3
1870,-4.0,1.0,-5.0,-3.0,-3.0,-2.0,-3.0,-2.0,1650911615225223.0,3
1871,0.0,1.0,2.0,12.0,27.0,18.0,7.0,0.0,1650911615225223.0,3
1872,-5.0,-4.0,-2.0,-4.0,-6.0,-12.0,-3.0,-3.0,1650911615238545.0,3
1873,-2.0,1.0,-7.0,-17.0,-19.0,-13.0,0.0,1.0,1650911615238545.0,3
1874,0.0,-6.0,-20.0,-14.0,-1.0,-14.0,-7.0,-4.0,1650911615244813.0,3
1875,0.0,2.0,5.0,-3.0,-1.0,6.0,-4.0,0.0,1650911615244813.0,3
1876,5.0,-1.0,4.0,8.0,-1.0,-5.0,2.0,-1.0,1650911615261518.0,3
1877,-10.0,-1.0,-3.0,8.0,5.0,18.0,3.0,3.0,1650911615261518.0,3
1878,4.0,1.0,9.0,1.0,-5.0,-6.0,2.0,2.0,1650911615262366.0,3
1879,-2.0,-3.0,-22.0,-11.0,-6.0,-15.0,-2.0,-2.0,1650911615262366.0,3
1880,1.0,1.0,12.0,10.0,6.0,12.0,-1.0,-1.0,1650911615284721.0,3
1881,0.0,-7.0,-1.0,-8.0,5.0,-1.0,-4.0,-2.0,1650911615284721.0,3
1882,0.0,1.0,-3.0,3.0,9.0,8.0,5.0,2.0,1650911615285905.0,3
1883,-3.0,2.0,12.0,3.0,-12.0,3.0,-2.0,-2.0,1650911615285905.0,3
1884,-2.0,-1.0,0.0,1.0,-5.0,-8.0,-4.0,2.0,1650911615298194.0,3
1885,6.0,1.0,-2.0,6.0,9.0,0.0,2.0,0.0,1650911615298194.0,3
1886,-4.0,-3.0,-3.0,-8.0,-2.0,1.0,-1.0,-1.0,1650911615305063.0,3
1887,1.0,-1.0,2.0,-6.0,-12.0,-12.0,-3.0,0.0,1650911615305063.0,3
1888,-5.0,-4.0,-9.0,7.0,4.0,1.0,1.0,-2.0,1650911615321398.0,3
1889,4.0,2.0,16.0,9.0,15.0,5.0,0.0,-2.0,1650911615321398.0,3
1890,3.0,2.0,0.0,7.0,-1.0,8.0,0.0,1.0,1650911615322265.0,3
1891,-2.0,-4.0,-9.0,-10.0,-9.0,-11.0,-2.0,-1.0,1650911615322265.0,3
1892,-6.0,-11.0,-41.0,-32.0,-19.0,-2.0,-1.0,-4.0,1650911615343009.0,3
1893,-1.0,1.0,-2.0,-2.0,3.0,5.0,2.0,1.0,1650911615343009.0,3
1894,2.0,0.0,10.0,3.0,8.0,-2.0,0.0,-1.0,1650911615345005.0,3
1895,2.0,2.0,8.0,7.0,-5.0,15.0,-1.0,2.0,1650911615345005.0,3
1896,-5.0,-4.0,10.0,5.0,5.0,-2.0,0.0,-2.0,1650911615358360.0,3
1897,2.0,2.0,5.0,1.0,-8.0,-10.0,0.0,0.0,1650911615358360.0,3
1898,8.0,0.0,7.0,3.0,-2.0,-8.0,-2.0,-3.0,1650911615365331.0,3
1899,-14.0,-2.0,-17.0,-8.0,0.0,3.0,2.0,0.0,1650911615365331.0,3
