,EMG_s0,EMG_s1,EMG_s2,EMG_s3,EMG_s4,EMG_s5,EMG_s6,EMG_s7,timestamp,signal
0,1.0,-1.0,0.0,-3.0,3.0,-7.0,0.0,0.0,1650911086921038.0,0
1,-1.0,-2.0,1.0,-1.0,-21.0,2.0,-2.0,0.0,1650911086921038.0,0
2,0.0,-1.0,4.0,4.0,6.0,17.0,0.0,1.0,1650911086942638.0,0
3,1.0,0.0,2.0,1.0,8.0,-5.0,0.0,0.0,1650911086942638.0,0
4,0.0,2.0,-2.0,0.0,7.0,-3.0,-2.0,1.0,1650911086943639.0,0
5,1.0,0.0,2.0,-1.0,5.0,6.0,0.0,0.0,1650911086943639.0,0
6,-1.0,2.0,0.0,2.0,-5.0,2.0,1.0,-1.0,1650911086956776.0,0
7,0.0,0.0,-5.0,-2.0,-12.0,-6.0,-3.0,0.0,1650911086956776.0,0
8,-1.0,0.0,3.0,3.0,5.0,8.0,1.0,0.0,1650911086958774.0,0
9,0.0,0.0,-1.0,0.0,13.0,5.0,1.0,1.0,1650911086958774.0,0
10,-4.0,0.0,-4.0,-8.0,-8.0,-9.0,-5.0,-1.0,1650911086979865.0,0
11,-1.0,1.0,1.0,-3.0,-13.0,-4.0,-1.0,-4.0,1650911086979865.0,0
12,-1.0,1.0,-3.0,0.0,-5.0,-2.0,-2.0,-1.0,1650911086980804.0,0
13,1.0,-3.0,1.0,2.0,8.0,-1.0,1.0,1.0,1650911086980804.0,0
14,-1.0,-1.0,-2.0,0.0,7.0,3.0,2.0,0.0,1650911087002155.0,0
15,1.0,0.0,0.0,-1.0,-4.0,1.0,-1.0,0.0,1650911087002155.0,0
16,0.0,-2.0,-5.0,-5.0,-5.0,-9.0,-4.0,-1.0,1650911087003157.0,0
17,-1.0,1.0,-1.0,-1.0,-1.0,12.0,3.0,-3.0,1650911087003157.0,0
18,2.0,1.0,2.0,4.0,4.0,0.0,2.0,3.0,1650911087016337.0,0
19,-3.0,1.0,-2.0,0.0,-15.0,-9.0,-2.0,-1.0,1650911087016337.0,0
20,0.0,-1.0,0.0,1.0,-3.0,4.0,-2.0,-2.0,1650911087023363.0,0
21,-1.0,0.0,-3.0,-3.0,-4.0,-8.0,-2.0,-2.0,1650911087023363.0,0
22,1.0,0.0,0.0,1.0,0.0,-1.0,1.0,0.0,1650911087038221.0,0
23,1.0,0.0,1.0,0.0,8.0,10.0,1.0,0.0,1650911087038221.0,0
24,-2.0,0.0,-1.0,0.0,3.0,-3.0,0.0,0.0,1650911087047220.0,0
25,0.0,-2.0,-3.0,0.0,-3.0,1.0,0.0,-2.0,1650911087047220.0,0
26,-1.0,-1.0,-1.0,0.0,0.0,0.0,0.0,0.0,1650911087062139.0,0
27,-1.0,1.0,0.0,1.0,8.0,-2.0,0.0,0.0,1650911087062139.0,0
28,-1.0,-4.0,-4.0,-2.0,-3.0,-2.0,2.0,0.0,1650911087063998.0,0
29,0.0,2.0,1.0,-4.0,-13.0,3.0,-2.0,1.0,1650911087063998.0,0
30,2.0,-2.0,-5.0,-6.0,-16.0,-18.0,-6.0,-3.0,1650911087084971.0,0
31,0.0,0.0,0.0,4.0,9.0,12.0,1.0,-1.0,1650911087084971.0,0
32,2.0,3.0,5.0,7.0,29.0,20.0,3.0,0.0,1650911087085941.0,0
33,-2.0,0.0,-1.0,-3.0,-6.0,-9.0,0.0,1.0,1650911087085941.0,0
34,0.0,0.0,0.0,-1.0,-2.0,-4.0,-2.0,-3.0,1650911087099381.0,0
35,-1.0,-1.0,-2.0,-5.0,-6.0,-7.0,-1.0,-1.0,1650911087099381.0,0
36,0.0,-2.0,0.0,-4.0,-8.0,3.0,-1.0,-3.0,1650911087107188.0,0
37,-3.0,0.0,-1.0,-2.0,-11.0,-3.0,-2.0,-2.0,1650911087107188.0,0
38,-2.0,-1.0,3.0,-2.0,-7.0,-5.0,-1.0,1.0,1650911087123194.0,0
39,-2.0,-3.0,-1.0,2.0,15.0,-2.0,-4.0,-1.0,1650911087123194.0,0
40,-1.0,2.0,2.0,4.0,7.0,6.0,1.0,-3.0,1650911087124194.0,0
41,3.0,1.0,0.0,4.0,11.0,5.0,2.0,1.0,1650911087124194.0,0
42,-1.0,-2.0,-3.0,-2.0,0.0,2.0,2.0,1.0,1650911087145351.0,0
43,2.0,0.0,1.0,-6.0,-13.0,-7.0,-4.0,-3.0,1650911087145351.0,0
44,-3.0,-4.0,0.0,-5.0,-22.0,-19.0,-4.0,-2.0,1650911087146382.0,0
45,-1.0,-4.0,-6.0,0.0,6.0,0.0,0.0,-1.0,1650911087146382.0,0
46,1.0,0.0,-1.0,3.0,11.0,12.0,3.0,0.0,1650911087158686.0,0
47,0.0,1.0,3.0,4.0,8.0,-1.0,5.0,5.0,1650911087158686.0,0
48,-1.0,-1.0,-1.0,-4.0,-13.0,-6.0,-3.0,-1.0,1650911087166999.0,0
49,1.0,-3.0,0.0,-4.0,-5.0,-4.0,-3.0,-3.0,1650911087166999.0,0
50,-1.0,0.0,-3.0,3.0,0.0,7.0,1.0,0.0,1650911087182644.0,0
51,-1.0,2.0,2.0,4.0,23.0,10.0,3.0,-1.0,1650911087182644.0,0
52,-1.0,2.0,-1.0,2.0,-1.0,-2.0,3.0,0.0,1650911087183644.0,0
53,0.0,-1.0,3.0,-2.0,-2.0,-7.0,-3.0,2.0,1650911087183644.0,0
54,4.0,-3.0,-5.0,-10.0,-14.0,-6.0,-4.0,3.0,1650911087205405.0,0
55,-16.0,-4.0,-1.0,-3.0,-10.0,-3.0,-3.0,-7.0,1650911087205405.0,0
56,0.0,1.0,-2.0,-1.0,2.0,-4.0,-2.0,-2.0,1650911087206367.0,0
57,-1.0,-1.0,0.0,3.0,4.0,6.0,-1.0,-2.0,1650911087206367.0,0
58,0.0,2.0,5.0,6.0,8.0,-4.0,3.0,2.0,1650911087219141.0,0
59,3.0,-1.0,-2.0,3.0,8.0,4.0,4.0,5.0,1650911087219141.0,0
60,2.0,-4.0,-5.0,-5.0,-2.0,-1.0,3.0,2.0,1650911087226900.0,0
61,-3.0,1.0,-3.0,-3.0,-11.0,-2.0,3.0,-2.0,1650911087226900.0,0
62,-3.0,0.0,-5.0,-3.0,-3.0,0.0,-7.0,-1.0,1650911087242090.0,0
63,2.0,1.0,5.0,0.0,-5.0,6.0,-10.0,-12.0,1650911087242090.0,0
64,-2.0,-1.0,1.0,-1.0,-9.0,-6.0,0.0,5.0,1650911087244084.0,0
65,-1.0,-3.0,-1.0,3.0,6.0,6.0,3.0,2.0,1650911087244084.0,0
66,-3.0,-2.0,2.0,1.0,8.0,1.0,9.0,8.0,1650911087265102.0,0
67,12.0,1.0,-6.0,-4.0,-1.0,0.0,3.0,9.0,1650911087265102.0,0
68,-9.0,0.0,4.0,3.0,1.0,8.0,-10.0,-7.0,1650911087266102.0,0
69,-2.0,4.0,-3.0,-1.0,-4.0,-12.0,-5.0,4.0,1650911087266102.0,0
70,-4.0,1.0,6.0,-4.0,-2.0,3.0,21.0,2.0,1650911087288211.0,0
71,29.0,-1.0,11.0,5.0,-4.0,-2.0,25.0,34.0,1650911087288211.0,0
72,1.0,8.0,-2.0,-6.0,-2.0,-1.0,20.0,39.0,1650911087289051.0,0
73,30.0,24.0,5.0,7.0,-8.0,5.0,-22.0,-1.0,1650911087289051.0,0
74,6.0,6.0,2.0,4.0,19.0,3.0,-51.0,14.0,1650911087302275.0,0
75,8.0,-11.0,-6.0,1.0,6.0,-10.0,-39.0,-106.0,1650911087302275.0,0
76,-11.0,-3.0,-10.0,-8.0,-21.0,-3.0,-25.0,-40.0,1650911087303308.0,0
77,-94.0,-37.0,-5.0,-6.0,9.0,-2.0,12.0,-19.0,1650911087303308.0,0
78,59.0,11.0,29.0,16.0,-1.0,3.0,45.0,83.0,1650911087325070.0,0
79,13.0,68.0,-6.0,3.0,4.0,10.0,47.0,81.0,1650911087325070.0,0
80,-87.0,-80.0,-56.0,-37.0,-14.0,-6.0,1.0,-11.0,1650911087326070.0,0
81,107.0,86.0,3.0,14.0,5.0,-4.0,-20.0,-78.0,1650911087326070.0,0
82,34.0,61.0,-8.0,-16.0,-16.0,-20.0,-23.0,0.0,1650911087347522.0,0
83,56.0,11.0,8.0,5.0,1.0,6.0,14.0,44.0,1650911087347522.0,0
84,80.0,66.0,11.0,-7.0,0.0,-2.0,6.0,13.0,1650911087348518.0,0
85,19.0,-15.0,-2.0,5.0,15.0,20.0,50.0,98.0,1650911087348518.0,0
86,19.0,-6.0,1.0,4.0,-2.0,-3.0,-11.0,-68.0,1650911087361843.0,0
87,-96.0,-83.0,-10.0,-4.0,-15.0,-4.0,-9.0,-3.0,1650911087361843.0,0
88,-3.0,12.0,8.0,26.0,-3.0,-14.0,-39.0,-69.0,1650911087368818.0,0
89,22.0,-23.0,-43.0,-17.0,-1.0,-8.0,-15.0,-21.0,1650911087368818.0,0
90,-7.0,27.0,13.0,-21.0,-4.0,8.0,17.0,19.0,1650911087385438.0,0
91,17.0,-19.0,-31.0,-16.0,-6.0,3.0,6.0,2.0,1650911087385438.0,0
92,-68.0,-18.0,24.0,11.0,-14.0,-3.0,-12.0,-21.0,1650911087385893.0,0
93,-39.0,20.0,34.0,19.0,7.0,-4.0,-11.0,-20.0,1650911087385893.0,0
94,-49.0,-29.0,-27.0,9.0,18.0,14.0,-2.0,-5.0,1650911087407422.0,0
95,0.0,14.0,19.0,4.0,13.0,7.0,34.0,36.0,1650911087407422.0,0
96,58.0,0.0,3.0,1.0,25.0,1.0,8.0,12.0,1650911087408256.0,0
97,-1.0,17.0,21.0,6.0,-44.0,-10.0,-15.0,-1.0,1650911087408256.0,0
98,-86.0,-93.0,-30.0,-6.0,0.0,0.0,15.0,-11.0,1650911087421784.0,0
99,-30.0,-19.0,17.0,10.0,11.0,3.0,-22.0,-19.0,1650911087421784.0,0
100,48.0,-4.0,4.0,21.0,25.0,17.0,16.0,10.0,1650911087428926.0,0
101,8.0,34.0,6.0,-25.0,-1.0,5.0,18.0,34.0,1650911087428926.0,0
102,-56.0,-80.0,-33.0,-32.0,-30.0,-19.0,-22.0,-60.0,1650911087445679.0,0
103,26.0,-4.0,-22.0,-5.0,-17.0,-18.0,-28.0,3.0,1650911087445679.0,0
104,34.0,12.0,7.0,15.0,1.0,9.0,31.0,36.0,1650911087446039.0,0
105,-25.0,1.0,13.0,21.0,13.0,-10.0,-20.0,-20.0,1650911087446039.0,0
106,26.0,40.0,27.0,28.0,62.0,42.0,25.0,28.0,1650911087467511.0,0
107,11.0,11.0,-6.0,-1.0,4.0,2.0,3.0,-3.0,1650911087467511.0,0
108,-5.0,-1.0,-2.0,-35.0,-12.0,11.0,-12.0,-2.0,1650911087468362.0,0
109,-22.0,-69.0,-31.0,-14.0,-36.0,-26.0,3.0,6.0,1650911087468362.0,0
110,2.0,29.0,4.0,6.0,-12.0,-18.0,-27.0,-73.0,1650911087482014.0,0
111,9.0,39.0,12.0,14.0,6.0,-1.0,2.0,1.0,1650911087482014.0,0
112,33.0,34.0,28.0,11.0,35.0,28.0,33.0,37.0,1650911087489003.0,0
113,-48.0,-47.0,-24.0,-13.0,1.0,-5.0,-1.0,19.0,1650911087489003.0,0
114,48.0,41.0,-3.0,-12.0,-28.0,-11.0,-1.0,28.0,1650911087505009.0,0
115,-23.0,-10.0,3.0,-3.0,3.0,-3.0,-3.0,-12.0,1650911087505009.0,0
116,3.0,12.0,-3.0,-2.0,-46.0,-16.0,-5.0,-3.0,1650911087512142.0,0
117,44.0,20.0,27.0,21.0,55.0,30.0,38.0,53.0,1650911087512142.0,0
118,-42.0,13.0,-2.0,3.0,37.0,-7.0,-65.0,-81.0,1650911087535338.0,0
119,-25.0,-57.0,-14.0,-15.0,-26.0,0.0,-10.0,-8.0,1650911087535338.0,0
120,-29.0,-8.0,-11.0,3.0,-1.0,-18.0,0.0,30.0,1650911087536178.0,0
121,-3.0,4.0,-5.0,-10.0,-31.0,-20.0,7.0,24.0,1650911087536178.0,0
122,13.0,-5.0,-4.0,-13.0,-55.0,-13.0,-15.0,-37.0,1650911087541164.0,0
123,26.0,20.0,4.0,9.0,18.0,6.0,-5.0,-19.0,1650911087541164.0,0
124,-4.0,3.0,-1.0,13.0,88.0,33.0,7.0,-16.0,1650911087556314.0,0
125,17.0,25.0,15.0,11.0,-1.0,12.0,16.0,21.0,1650911087556314.0,0
126,17.0,5.0,-5.0,-28.0,-6.0,0.0,21.0,37.0,1650911087565604.0,0
127,-2.0,3.0,-1.0,-10.0,-56.0,-23.0,-17.0,-36.0,1650911087565604.0,0
128,-1.0,-12.0,-3.0,-2.0,-11.0,-20.0,2.0,24.0,1650911087566477.0,0
129,16.0,4.0,-1.0,-11.0,-11.0,-1.0,-10.0,-24.0,1650911087566477.0,0
130,7.0,-12.0,12.0,29.0,30.0,2.0,4.0,17.0,1650911087587908.0,0
131,2.0,12.0,6.0,-3.0,13.0,6.0,2.0,0.0,1650911087587908.0,0
132,-9.0,-12.0,-13.0,-1.0,-4.0,4.0,-5.0,-3.0,1650911087588779.0,0
133,4.0,-11.0,0.0,-20.0,-20.0,1.0,-13.0,-34.0,1650911087588779.0,0
134,-8.0,3.0,5.0,3.0,-28.0,-18.0,8.0,14.0,1650911087601066.0,0
135,-5.0,14.0,8.0,16.0,48.0,10.0,9.0,33.0,1650911087601066.0,0
136,30.0,-25.0,-11.0,2.0,15.0,7.0,-3.0,-10.0,1650911087609888.0,0
137,-55.0,-14.0,-5.0,-12.0,-7.0,-5.0,-6.0,-23.0,1650911087609888.0,0
138,14.0,7.0,1.0,2.0,-31.0,-2.0,10.0,20.0,1650911087625204.0,0
139,10.0,14.0,6.0,-3.0,12.0,-5.0,-4.0,-3.0,1650911087625204.0,0
140,-14.0,4.0,0.0,3.0,-3.0,4.0,-9.0,-11.0,1650911087626235.0,0
141,18.0,-3.0,12.0,2.0,9.0,4.0,-4.0,-7.0,1650911087626235.0,0
142,-3.0,-14.0,-8.0,3.0,2.0,6.0,17.0,21.0,1650911087647375.0,0
143,-1.0,-7.0,8.0,-9.0,-21.0,-12.0,-16.0,-6.0,1650911087647375.0,0
144,-15.0,8.0,10.0,5.0,-30.0,-19.0,-16.0,-45.0,1650911087648376.0,0
145,14.0,-31.0,-45.0,-19.0,-3.0,-6.0,2.0,15.0,1650911087648376.0,0
146,-15.0,15.0,14.0,10.0,26.0,9.0,-6.0,-8.0,1650911087661858.0,0
147,-1.0,-8.0,-32.0,-7.0,6.0,10.0,0.0,-4.0,1650911087661858.0,0
148,-8.0,6.0,22.0,-16.0,1.0,-3.0,-1.0,0.0,1650911087669000.0,0
149,17.0,-14.0,-25.0,-13.0,-4.0,0.0,-8.0,-10.0,1650911087669000.0,0
150,0.0,1.0,3.0,-4.0,-8.0,0.0,2.0,-3.0,1650911087684995.0,0
151,-5.0,19.0,18.0,5.0,-13.0,-9.0,8.0,1.0,1650911087684995.0,0
152,-8.0,-15.0,-24.0,-4.0,-5.0,-4.0,-1.0,3.0,1650911087685986.0,0
153,-13.0,17.0,20.0,14.0,0.0,24.0,-5.0,-5.0,1650911087685986.0,0
154,0.0,0.0,-10.0,-10.0,-18.0,-23.0,-4.0,10.0,1650911087707395.0,0
155,11.0,14.0,11.0,3.0,-18.0,3.0,-2.0,-7.0,1650911087707395.0,0
156,-6.0,15.0,11.0,10.0,29.0,15.0,10.0,17.0,1650911087708360.0,0
157,17.0,0.0,8.0,35.0,71.0,30.0,2.0,-2.0,1650911087708360.0,0
158,-9.0,-24.0,-2.0,-11.0,-10.0,12.0,1.0,-2.0,1650911087721551.0,0
159,31.0,15.0,12.0,5.0,-29.0,-36.0,9.0,6.0,1650911087721551.0,0
160,-14.0,-28.0,-12.0,-6.0,-7.0,-22.0,2.0,24.0,1650911087728643.0,0
161,-30.0,15.0,7.0,-2.0,-10.0,-1.0,-5.0,-9.0,1650911087728643.0,0
162,16.0,13.0,8.0,6.0,38.0,1.0,-8.0,-4.0,1650911087745004.0,0
163,-4.0,-31.0,-14.0,-29.0,-38.0,6.0,0.0,-7.0,1650911087745004.0,0
164,48.0,21.0,4.0,-5.0,2.0,15.0,15.0,8.0,1650911087745873.0,0
165,-29.0,-9.0,-23.0,0.0,-3.0,-26.0,-22.0,-36.0,1650911087745873.0,0
166,44.0,-10.0,-11.0,-11.0,1.0,9.0,5.0,5.0,1650911087767992.0,0
167,-50.0,-6.0,8.0,9.0,17.0,12.0,-14.0,-19.0,1650911087767992.0,0
168,-1.0,-5.0,-9.0,-4.0,-17.0,-24.0,-4.0,2.0,1650911087768866.0,0
169,1.0,5.0,11.0,2.0,-8.0,-9.0,-5.0,-7.0,1650911087768866.0,0
170,12.0,-10.0,-15.0,9.0,24.0,1.0,13.0,15.0,1650911087790116.0,0
171,8.0,-2.0,0.0,-2.0,-6.0,-1.0,-1.0,5.0,1650911087790116.0,0
172,-3.0,-6.0,-3.0,-4.0,-3.0,9.0,-8.0,-11.0,1650911087790958.0,0
173,21.0,-2.0,9.0,13.0,-8.0,6.0,8.0,11.0,1650911087790958.0,0
174,-10.0,-5.0,5.0,-30.0,-35.0,-4.0,-1.0,-8.0,1650911087805135.0,0
175,20.0,31.0,-11.0,5.0,23.0,14.0,2.0,1.0,1650911087805135.0,0
176,-19.0,-4.0,16.0,6.0,-4.0,-35.0,-4.0,-8.0,1650911087812179.0,0
177,20.0,11.0,6.0,14.0,18.0,9.0,6.0,7.0,1650911087812179.0,0
178,-15.0,-9.0,2.0,6.0,15.0,29.0,7.0,1.0,1650911087827461.0,0
179,0.0,-1.0,-17.0,0.0,24.0,12.0,9.0,2.0,1650911087827461.0,0
180,7.0,0.0,-4.0,-16.0,-30.0,7.0,-9.0,6.0,1650911087828327.0,0
181,9.0,-3.0,2.0,-7.0,-25.0,-35.0,-12.0,-18.0,1650911087828327.0,0
182,-10.0,-4.0,9.0,19.0,-1.0,-8.0,-5.0,-5.0,1650911087841001.0,0
183,-26.0,-7.0,-9.0,-16.0,8.0,1.0,3.0,15.0,1650911087841001.0,0
184,-12.0,-4.0,11.0,13.0,13.0,14.0,1.0,-22.0,1650911087849890.0,0
185,-10.0,-2.0,-6.0,-12.0,-12.0,1.0,6.0,0.0,1650911087849890.0,0
186,48.0,20.0,12.0,22.0,5.0,4.0,3.0,40.0,1650911087864227.0,0
187,7.0,-5.0,-1.0,-2.0,-7.0,-3.0,-7.0,-21.0,1650911087864227.0,0
188,-22.0,-20.0,-6.0,1.0,17.0,17.0,0.0,-9.0,1650911087866221.0,0
189,9.0,25.0,16.0,5.0,12.0,-5.0,-1.0,-23.0,1650911087866221.0,0
190,-8.0,-6.0,-43.0,-11.0,-35.0,-13.0,-1.0,-15.0,1650911087886940.0,0
191,12.0,6.0,26.0,-2.0,6.0,-7.0,4.0,11.0,1650911087886940.0,0
192,-7.0,-8.0,-5.0,-7.0,15.0,10.0,0.0,5.0,1650911087888969.0,0
193,-14.0,-12.0,-10.0,-5.0,-12.0,3.0,2.0,6.0,1650911087888969.0,0
194,6.0,30.0,18.0,14.0,6.0,-8.0,0.0,1.0,1650911087901067.0,0
195,-2.0,-1.0,3.0,-1.0,2.0,0.0,-2.0,-5.0,1650911087901067.0,0
196,3.0,17.0,10.0,0.0,-21.0,34.0,5.0,4.0,1650911087909388.0,0
197,15.0,-6.0,5.0,5.0,19.0,-28.0,-1.0,11.0,1650911087909388.0,0
198,-30.0,-9.0,-5.0,-6.0,20.0,11.0,5.0,6.0,1650911087925454.0,0
199,-8.0,-21.0,-18.0,4.0,-15.0,-10.0,-4.0,2.0,1650911087925454.0,0
200,0.0,-33.0,-13.0,-17.0,-18.0,-15.0,-7.0,-11.0,1650911087926410.0,0
201,18.0,12.0,11.0,7.0,-1.0,9.0,5.0,4.0,1650911087926410.0,0
202,8.0,-2.0,4.0,7.0,20.0,2.0,-4.0,8.0,1650911087947349.0,0
203,3.0,8.0,0.0,7.0,21.0,2.0,6.0,4.0,1650911087947349.0,0
204,22.0,17.0,-10.0,13.0,-5.0,-3.0,0.0,16.0,1650911087948347.0,0
205,-13.0,-42.0,-14.0,-56.0,-66.0,-14.0,-6.0,-2.0,1650911087948347.0,0
206,-5.0,11.0,0.0,7.0,-8.0,5.0,4.0,-2.0,1650911087960781.0,0
207,-23.0,5.0,13.0,11.0,53.0,16.0,-9.0,-26.0,1650911087960781.0,0
208,25.0,30.0,14.0,13.0,21.0,-13.0,5.0,19.0,1650911087969863.0,0
209,6.0,-4.0,-1.0,-2.0,-13.0,-2.0,-3.0,9.0,1650911087969863.0,0
210,0.0,-18.0,-27.0,-28.0,-62.0,-19.0,-8.0,-17.0,1650911087993194.0,0
211,1.0,8.0,8.0,12.0,7.0,-2.0,-4.0,-5.0,1650911087993194.0,0
212,-3.0,-14.0,3.0,8.0,31.0,45.0,5.0,-8.0,1650911087993194.0,0
213,-4.0,11.0,-8.0,0.0,23.0,-13.0,2.0,9.0,1650911087993194.0,0
214,-5.0,2.0,3.0,-7.0,-22.0,-22.0,-8.0,12.0,1650911088006354.0,0
215,-6.0,-13.0,-14.0,-8.0,-46.0,-18.0,-11.0,-30.0,1650911088006354.0,0
216,8.0,14.0,15.0,19.0,34.0,12.0,5.0,10.0,1650911088014509.0,0
217,-5.0,10.0,11.0,21.0,33.0,26.0,14.0,3.0,1650911088014509.0,0
218,-9.0,-20.0,-14.0,-27.0,-19.0,-11.0,-1.0,6.0,1650911088021558.0,0
219,11.0,-9.0,0.0,-2.0,-20.0,-14.0,-3.0,5.0,1650911088021558.0,0
220,-15.0,-15.0,-6.0,-1.0,-14.0,-16.0,-15.0,-37.0,1650911088029872.0,0
221,-4.0,-22.0,11.0,4.0,26.0,27.0,11.0,19.0,1650911088029872.0,0
222,-1.0,-3.0,-2.0,23.0,36.0,12.0,0.0,-11.0,1650911088045747.0,0
223,1.0,-18.0,5.0,-2.0,-13.0,-4.0,6.0,18.0,1650911088045747.0,0
224,-2.0,40.0,12.0,-8.0,-19.0,-17.0,1.0,-9.0,1650911088045816.0,0
225,-2.0,-7.0,-9.0,4.0,-3.0,-15.0,-8.0,-32.0,1650911088045816.0,0
226,30.0,13.0,14.0,-1.0,-20.0,-5.0,1.0,52.0,1650911088067126.0,0
227,27.0,-6.0,-8.0,-12.0,44.0,16.0,3.0,12.0,1650911088067126.0,0
228,-6.0,-15.0,-11.0,-5.0,-41.0,-20.0,-9.0,-3.0,1650911088069120.0,0
229,-8.0,27.0,20.0,16.0,40.0,22.0,7.0,-5.0,1650911088069120.0,0
230,-27.0,28.0,32.0,23.0,56.0,32.0,6.0,-6.0,1650911088081089.0,0
231,8.0,15.0,0.0,-14.0,-58.0,-14.0,-1.0,10.0,1650911088081089.0,0
232,4.0,-28.0,-40.0,-15.0,-20.0,-45.0,-5.0,24.0,1650911088089854.0,0
233,-20.0,-3.0,0.0,1.0,3.0,-15.0,-12.0,-28.0,1650911088089854.0,0
234,1.0,-1.0,-13.0,11.0,31.0,21.0,3.0,-11.0,1650911088105112.0,0
235,-9.0,-8.0,12.0,7.0,3.0,9.0,8.0,-1.0,1650911088105112.0,0
236,1.0,9.0,-1.0,0.0,8.0,6.0,1.0,-4.0,1650911088105676.0,0
237,10.0,-2.0,-13.0,-16.0,-43.0,-3.0,-7.0,-1.0,1650911088105676.0,0
238,-14.0,-10.0,7.0,8.0,-6.0,-15.0,6.0,20.0,1650911088127770.0,0
239,-9.0,8.0,-14.0,-12.0,-1.0,-6.0,-6.0,5.0,1650911088127770.0,0
240,3.0,-1.0,-2.0,-7.0,-5.0,9.0,0.0,-6.0,1650911088128606.0,0
241,9.0,-9.0,-11.0,-4.0,-23.0,-3.0,1.0,3.0,1650911088128606.0,0
242,-29.0,1.0,7.0,2.0,33.0,-3.0,7.0,-1.0,1650911088141736.0,0
243,23.0,3.0,-1.0,2.0,-10.0,3.0,-9.0,-14.0,1650911088141736.0,0
244,-6.0,-3.0,5.0,-3.0,2.0,12.0,-5.0,1.0,1650911088149740.0,0
245,-2.0,1.0,12.0,1.0,7.0,3.0,7.0,23.0,1650911088149740.0,0
246,23.0,-25.0,-26.0,-2.0,-2.0,-7.0,-7.0,-15.0,1650911088164734.0,0
247,-33.0,-13.0,-15.0,-31.0,-28.0,-8.0,1.0,-9.0,1650911088164734.0,0
248,8.0,11.0,7.0,12.0,23.0,-5.0,-2.0,3.0,1650911088165765.0,0
249,-24.0,-12.0,-6.0,-2.0,-3.0,12.0,2.0,9.0,1650911088165765.0,0
250,6.0,13.0,9.0,3.0,-10.0,6.0,-1.0,-33.0,1650911088187107.0,0
251,6.0,-15.0,-7.0,2.0,-7.0,-15.0,2.0,25.0,1650911088187107.0,0
252,-41.0,-40.0,-26.0,-16.0,-3.0,-10.0,-8.0,-11.0,1650911088189140.0,0
253,21.0,17.0,13.0,11.0,15.0,5.0,2.0,14.0,1650911088189140.0,0
254,-13.0,-10.0,5.0,-2.0,-9.0,-6.0,-3.0,-17.0,1650911088201379.0,0
255,11.0,44.0,5.0,5.0,13.0,2.0,-2.0,-3.0,1650911088201379.0,0
256,14.0,4.0,8.0,-6.0,-34.0,4.0,8.0,10.0,1650911088210015.0,0
257,-15.0,-19.0,-14.0,0.0,5.0,-8.0,-2.0,4.0,1650911088210015.0,0
258,2.0,8.0,9.0,16.0,22.0,14.0,1.0,-5.0,1650911088225614.0,0
259,7.0,5.0,10.0,3.0,2.0,-3.0,-1.0,15.0,1650911088225614.0,0
260,8.0,3.0,6.0,-2.0,-2.0,0.0,1.0,-9.0,1650911088225711.0,0
261,10.0,4.0,-7.0,3.0,5.0,4.0,-1.0,8.0,1650911088225711.0,0
262,9.0,9.0,10.0,-12.0,-37.0,-5.0,-5.0,8.0,1650911088246658.0,0
263,0.0,-15.0,-15.0,11.0,33.0,-11.0,9.0,1.0,1650911088246658.0,0
264,-20.0,4.0,5.0,4.0,28.0,22.0,5.0,10.0,1650911088248654.0,0
265,5.0,-6.0,-3.0,3.0,-5.0,9.0,6.0,-2.0,1650911088248654.0,0
266,1.0,-8.0,1.0,-15.0,-11.0,-24.0,-4.0,-7.0,1650911088269953.0,0
267,-18.0,-19.0,-18.0,6.0,12.0,-5.0,-13.0,-20.0,1650911088269953.0,0
268,18.0,9.0,-12.0,-18.0,-38.0,-1.0,2.0,8.0,1650911088270952.0,0
269,-14.0,14.0,5.0,-13.0,0.0,-8.0,-3.0,-10.0,1650911088270952.0,0
270,-14.0,-23.0,-4.0,-6.0,-11.0,-2.0,-5.0,0.0,1650911088285002.0,0
271,-10.0,-2.0,5.0,11.0,-13.0,2.0,0.0,-2.0,1650911088285002.0,0
272,2.0,24.0,17.0,3.0,19.0,1.0,-6.0,-14.0,1650911088291182.0,0
273,11.0,1.0,-15.0,5.0,-4.0,1.0,-4.0,-11.0,1650911088291182.0,0
274,-12.0,3.0,7.0,-8.0,-31.0,10.0,-3.0,-22.0,1650911088308330.0,0
275,23.0,-4.0,-12.0,10.0,22.0,-12.0,9.0,37.0,1650911088308330.0,0
276,0.0,-5.0,25.0,13.0,16.0,-4.0,-3.0,-15.0,1650911088309194.0,0
277,-9.0,9.0,9.0,5.0,7.0,10.0,1.0,5.0,1650911088309194.0,0
278,4.0,18.0,2.0,-1.0,-1.0,4.0,5.0,5.0,1650911088329853.0,0
279,7.0,-3.0,-4.0,-14.0,-17.0,8.0,1.0,-19.0,1650911088329853.0,0
280,-4.0,-6.0,-13.0,-10.0,-13.0,-15.0,1.0,6.0,1650911088330853.0,0
281,2.0,4.0,-1.0,-10.0,-38.0,-18.0,-7.0,1.0,1650911088330853.0,0
282,6.0,-2.0,7.0,5.0,14.0,-9.0,0.0,0.0,1650911088345788.0,0
283,-8.0,-15.0,21.0,36.0,31.0,35.0,5.0,26.0,1650911088345788.0,0
284,16.0,-3.0,-24.0,-27.0,-2.0,-4.0,5.0,6.0,1650911088345842.0,0
285,5.0,3.0,13.0,14.0,11.0,3.0,-2.0,2.0,1650911088345842.0,0
286,6.0,13.0,-11.0,-3.0,1.0,-2.0,-2.0,6.0,1650911088368153.0,0
287,-5.0,-15.0,-9.0,-16.0,-29.0,-10.0,-8.0,-30.0,1650911088368153.0,0
288,-15.0,9.0,20.0,21.0,5.0,1.0,1.0,-8.0,1650911088369025.0,0
289,0.0,-27.0,-14.0,-3.0,7.0,-6.0,1.0,11.0,1650911088369025.0,0
290,24.0,2.0,2.0,3.0,10.0,-1.0,1.0,11.0,1650911088389487.0,0
291,-15.0,-5.0,3.0,-1.0,-13.0,9.0,1.0,-13.0,1650911088389487.0,0
292,2.0,-15.0,0.0,14.0,23.0,9.0,0.0,9.0,1650911088391318.0,0
293,-18.0,7.0,-18.0,-16.0,1.0,-4.0,-7.0,-29.0,1650911088391318.0,0
294,24.0,-8.0,9.0,18.0,-18.0,-6.0,0.0,3.0,1650911088405018.0,0
295,-19.0,3.0,-5.0,-22.0,-13.0,-4.0,-4.0,-1.0,1650911088405018.0,0
296,1.0,6.0,14.0,14.0,-9.0,1.0,3.0,8.0,1650911088406019.0,0
297,-4.0,-32.0,-13.0,-5.0,10.0,-5.0,-3.0,0.0,1650911088406019.0,0
298,5.0,8.0,-4.0,-8.0,12.0,1.0,-7.0,-8.0,1650911088427296.0,0
299,-20.0,-13.0,-18.0,10.0,6.0,-4.0,-6.0,-17.0,1650911088427296.0,0
300,8.0,21.0,9.0,-7.0,-16.0,-7.0,-2.0,14.0,1650911088429129.0,0
301,7.0,5.0,10.0,-4.0,4.0,2.0,3.0,-9.0,1650911088429129.0,0
302,-14.0,-4.0,12.0,-1.0,-17.0,-8.0,-8.0,-17.0,1650911088450022.0,0
303,12.0,19.0,9.0,-4.0,4.0,-11.0,-3.0,-24.0,1650911088450022.0,0
304,3.0,-8.0,-12.0,1.0,-3.0,3.0,4.0,19.0,1650911088451042.0,0
305,11.0,0.0,8.0,13.0,20.0,29.0,2.0,10.0,1650911088451042.0,0
306,-9.0,-2.0,-1.0,3.0,24.0,3.0,4.0,-1.0,1650911088464365.0,0
307,5.0,3.0,-1.0,-18.0,-4.0,-7.0,7.0,18.0,1650911088464365.0,0
308,5.0,27.0,-4.0,-28.0,-64.0,-22.0,-11.0,-20.0,1650911088470352.0,0
309,-13.0,-8.0,4.0,12.0,8.0,6.0,-2.0,-17.0,1650911088470352.0,0
310,4.0,-7.0,-1.0,3.0,15.0,19.0,1.0,47.0,1650911088487040.0,0
311,-6.0,-6.0,-19.0,-13.0,2.0,-25.0,-6.0,-9.0,1650911088487040.0,0
312,5.0,2.0,-3.0,15.0,36.0,13.0,6.0,-3.0,1650911088489034.0,0
313,7.0,1.0,4.0,-4.0,-13.0,-2.0,0.0,8.0,1650911088489034.0,0
314,-30.0,9.0,-12.0,-19.0,-25.0,-12.0,3.0,-4.0,1650911088510011.0,0
315,31.0,-5.0,11.0,1.0,-9.0,10.0,-9.0,-8.0,1650911088510011.0,0
316,-1.0,-3.0,6.0,8.0,-4.0,-19.0,-4.0,-5.0,1650911088511010.0,0
317,-3.0,-11.0,-10.0,-11.0,-13.0,-9.0,-5.0,-15.0,1650911088511010.0,0
318,-2.0,0.0,0.0,-3.0,10.0,13.0,5.0,8.0,1650911088524585.0,0
319,-13.0,4.0,3.0,7.0,-4.0,7.0,-2.0,-3.0,1650911088524585.0,0
320,12.0,1.0,-1.0,-8.0,1.0,-9.0,2.0,-6.0,1650911088530854.0,0
321,2.0,-6.0,-10.0,24.0,17.0,4.0,1.0,6.0,1650911088530854.0,0
322,-8.0,0.0,0.0,-64.0,-20.0,-11.0,1.0,-7.0,1650911088547347.0,0
323,5.0,0.0,-13.0,16.0,-13.0,4.0,-3.0,-1.0,1650911088547347.0,0
324,-11.0,-8.0,-2.0,0.0,48.0,29.0,15.0,36.0,1650911088548377.0,0
325,7.0,15.0,15.0,18.0,1.0,-1.0,-3.0,-12.0,1650911088548377.0,0
326,10.0,4.0,-3.0,1.0,-16.0,-19.0,-2.0,-4.0,1650911088569978.0,0
327,-1.0,19.0,6.0,-2.0,9.0,8.0,4.0,12.0,1650911088569978.0,0
328,-22.0,-10.0,8.0,1.0,3.0,-6.0,-8.0,-19.0,1650911088570840.0,0
329,-11.0,1.0,-11.0,-12.0,-17.0,-11.0,5.0,1.0,1650911088570840.0,0
330,32.0,-23.0,-11.0,2.0,-6.0,0.0,-4.0,28.0,1650911088584878.0,0
331,-5.0,2.0,8.0,0.0,-11.0,3.0,-4.0,-26.0,1650911088584878.0,0
332,3.0,3.0,6.0,11.0,12.0,0.0,-1.0,-3.0,1650911088591171.0,0
333,-8.0,0.0,-12.0,-5.0,-1.0,3.0,0.0,-2.0,1650911088591171.0,0
334,-2.0,7.0,4.0,3.0,14.0,14.0,-3.0,-11.0,1650911088607482.0,0
335,-8.0,-22.0,-17.0,-16.0,-12.0,-12.0,-5.0,-12.0,1650911088607482.0,0
336,9.0,19.0,18.0,6.0,-23.0,-8.0,-6.0,-3.0,1650911088608354.0,0
337,9.0,-24.0,-9.0,-3.0,10.0,5.0,1.0,14.0,1650911088608354.0,0
338,2.0,17.0,14.0,23.0,23.0,5.0,3.0,-13.0,1650911088629857.0,0
339,1.0,-12.0,18.0,16.0,13.0,11.0,2.0,10.0,1650911088629857.0,0
340,-35.0,-26.0,-20.0,-23.0,-6.0,-18.0,-3.0,-25.0,1650911088630857.0,0
341,-10.0,-18.0,0.0,0.0,-13.0,-6.0,-8.0,-18.0,1650911088630857.0,0
342,-13.0,-21.0,-17.0,-2.0,-9.0,17.0,3.0,11.0,1650911088644750.0,0
343,16.0,3.0,11.0,16.0,48.0,19.0,7.0,1.0,1650911088644750.0,0
344,10.0,15.0,0.0,-6.0,-24.0,-14.0,-2.0,11.0,1650911088650896.0,0
345,-3.0,7.0,-2.0,4.0,-5.0,-11.0,-9.0,-20.0,1650911088650896.0,0
346,-4.0,-12.0,4.0,-19.0,-6.0,-7.0,0.0,-8.0,1650911088667519.0,0
347,18.0,41.0,3.0,2.0,-1.0,-8.0,7.0,25.0,1650911088667519.0,0
348,8.0,-14.0,-4.0,11.0,5.0,18.0,0.0,10.0,1650911088668373.0,0
349,10.0,10.0,2.0,-5.0,9.0,6.0,9.0,21.0,1650911088668373.0,0
350,-17.0,7.0,8.0,11.0,3.0,-3.0,-8.0,-29.0,1650911088690059.0,0
351,2.0,-19.0,-12.0,-13.0,-31.0,-5.0,1.0,6.0,1650911088690059.0,0
352,0.0,-3.0,-16.0,4.0,8.0,-8.0,-1.0,4.0,1650911088690908.0,0
353,12.0,3.0,10.0,-17.0,-15.0,-7.0,0.0,5.0,1650911088690908.0,0
354,-30.0,-12.0,-20.0,-1.0,-24.0,-2.0,-10.0,-15.0,1650911088704011.0,0
355,4.0,8.0,9.0,23.0,47.0,12.0,7.0,4.0,1650911088704011.0,0
356,11.0,9.0,1.0,-4.0,4.0,18.0,1.0,-9.0,1650911088711184.0,0
357,-4.0,8.0,5.0,10.0,17.0,2.0,5.0,1.0,1650911088711184.0,0
358,11.0,0.0,-5.0,-8.0,-16.0,-27.0,-13.0,20.0,1650911088727485.0,0
359,-7.0,-11.0,5.0,-7.0,-6.0,-6.0,-1.0,-1.0,1650911088727485.0,0
360,-25.0,-19.0,-12.0,4.0,-6.0,30.0,1.0,6.0,1650911088728355.0,0
361,26.0,11.0,-3.0,-7.0,-10.0,-14.0,1.0,17.0,1650911088728355.0,0
362,-4.0,1.0,9.0,11.0,17.0,13.0,3.0,-12.0,1650911088749470.0,0
363,-23.0,-1.0,-18.0,-5.0,10.0,0.0,-4.0,3.0,1650911088749470.0,0
364,6.0,1.0,4.0,10.0,-5.0,-7.0,-3.0,-7.0,1650911088751464.0,0
365,-16.0,-2.0,13.0,-18.0,-16.0,-6.0,-5.0,1.0,1650911088751464.0,0
366,-3.0,-8.0,-13.0,3.0,-11.0,-9.0,-1.0,-10.0,1650911088763097.0,0
367,1.0,1.0,11.0,-1.0,-13.0,-1.0,0.0,1.0,1650911088763097.0,0
368,-4.0,-11.0,-4.0,-4.0,21.0,15.0,-1.0,-6.0,1650911088772173.0,0
369,7.0,9.0,-2.0,-3.0,-15.0,-16.0,0.0,5.0,1650911088772173.0,0
370,-10.0,-1.0,-1.0,1.0,24.0,6.0,13.0,-1.0,1650911088788021.0,0
371,4.0,7.0,13.0,18.0,36.0,33.0,5.0,7.0,1650911088788021.0,0
372,3.0,-3.0,-9.0,-11.0,1.0,-22.0,-1.0,-4.0,1650911088788863.0,0
373,-1.0,3.0,-6.0,-10.0,-36.0,-4.0,-6.0,1.0,1650911088788863.0,0
374,8.0,-3.0,2.0,8.0,9.0,7.0,3.0,4.0,1650911088810015.0,0
375,-3.0,-5.0,-4.0,-1.0,0.0,3.0,-5.0,1.0,1650911088810015.0,0
376,8.0,-1.0,11.0,0.0,1.0,1.0,7.0,0.0,1650911088811015.0,0
377,-19.0,-4.0,-10.0,-6.0,-9.0,4.0,-4.0,-6.0,1650911088811015.0,0
378,3.0,-6.0,-13.0,-7.0,-21.0,-23.0,-16.0,-2.0,1650911088822983.0,0
379,-11.0,-1.0,12.0,1.0,-5.0,11.0,7.0,-6.0,1650911088822983.0,0
380,14.0,9.0,8.0,16.0,3.0,0.0,-2.0,-9.0,1650911088832021.0,0
381,3.0,3.0,-7.0,-3.0,2.0,-6.0,-5.0,14.0,1650911088832021.0,0
382,-8.0,-1.0,18.0,23.0,5.0,0.0,15.0,-16.0,1650911088846197.0,0
383,-2.0,0.0,-28.0,-22.0,-16.0,3.0,2.0,1.0,1650911088846197.0,0
384,-9.0,-8.0,-13.0,-13.0,0.0,-8.0,-10.0,-8.0,1650911088854484.0,0
385,-6.0,3.0,18.0,13.0,25.0,12.0,4.0,5.0,1650911088854484.0,0
386,20.0,5.0,1.0,14.0,13.0,2.0,-9.0,-7.0,1650911088869672.0,0
387,-2.0,-8.0,-17.0,-26.0,-23.0,-13.0,-4.0,12.0,1650911088869672.0,0
388,-11.0,-5.0,8.0,-26.0,-46.0,-22.0,-2.0,-3.0,1650911088871666.0,0
389,0.0,-3.0,-2.0,0.0,15.0,7.0,-5.0,-6.0,1650911088871666.0,0
390,0.0,2.0,6.0,14.0,18.0,11.0,6.0,5.0,1650911088884025.0,0
391,8.0,9.0,25.0,15.0,5.0,-4.0,2.0,-1.0,1650911088884025.0,0
392,1.0,1.0,-3.0,15.0,7.0,8.0,6.0,5.0,1650911088892143.0,0
393,-5.0,-9.0,-14.0,-9.0,3.0,0.0,-2.0,-7.0,1650911088892143.0,0
394,3.0,5.0,13.0,-9.0,-7.0,-2.0,1.0,3.0,1650911088907624.0,0
395,1.0,-3.0,5.0,2.0,-15.0,-11.0,-2.0,-5.0,1650911088907624.0,0
396,0.0,-7.0,-5.0,-8.0,-10.0,-14.0,-9.0,-1.0,1650911088908461.0,0
397,6.0,7.0,11.0,17.0,19.0,11.0,5.0,2.0,1650911088908461.0,0
398,-7.0,-9.0,-30.0,-11.0,7.0,13.0,9.0,-1.0,1650911088929854.0,0
399,-9.0,-9.0,-17.0,-22.0,-7.0,-13.0,-10.0,-6.0,1650911088929854.0,0
400,2.0,10.0,20.0,14.0,3.0,6.0,0.0,1.0,1650911088930858.0,0
401,7.0,4.0,7.0,13.0,-9.0,-8.0,-2.0,1.0,1650911088930858.0,0
402,3.0,2.0,0.0,-6.0,-3.0,-1.0,-1.0,2.0,1650911088944155.0,0
403,17.0,0.0,0.0,-3.0,12.0,6.0,1.0,1.0,1650911088944155.0,0
404,-2.0,-2.0,-7.0,-2.0,-2.0,0.0,4.0,3.0,1650911088952142.0,0
405,-1.0,-3.0,2.0,-11.0,-15.0,2.0,-1.0,-4.0,1650911088952142.0,0
406,-5.0,-8.0,-42.0,-7.0,-5.0,-13.0,-8.0,0.0,1650911088967274.0,0
407,-8.0,-5.0,13.0,10.0,-2.0,-4.0,-1.0,-2.0,1650911088967274.0,0
408,3.0,5.0,6.0,10.0,15.0,7.0,1.0,1.0,1650911088969146.0,0
409,-7.0,-3.0,-22.0,-26.0,-3.0,-4.0,0.0,-3.0,1650911088969146.0,0
410,6.0,1.0,12.0,10.0,-11.0,6.0,-1.0,2.0,1650911088991097.0,0
411,-6.0,0.0,-16.0,-7.0,0.0,1.0,2.0,0.0,1650911088991097.0,0
412,1.0,2.0,0.0,8.0,9.0,-4.0,-3.0,-1.0,1650911088993032.0,0
413,-5.0,-3.0,14.0,9.0,-1.0,3.0,2.0,-1.0,1650911088993032.0,0
414,-1.0,1.0,-3.0,-12.0,-5.0,-5.0,-1.0,1.0,1650911089003684.0,0
415,0.0,-1.0,9.0,8.0,-23.0,-12.0,-3.0,-4.0,1650911089003684.0,0
416,-3.0,-2.0,-5.0,2.0,14.0,6.0,-1.0,1.0,1650911089011883.0,0
417,3.0,3.0,3.0,10.0,19.0,11.0,6.0,2.0,1650911089011883.0,0
418,3.0,3.0,16.0,5.0,1.0,-1.0,1.0,2.0,1650911089027388.0,0
419,2.0,-3.0,-28.0,-22.0,-4.0,-6.0,-4.0,-3.0,1650911089027388.0,0
420,-6.0,-2.0,-1.0,-6.0,-13.0,-1.0,3.0,0.0,1650911089028388.0,0
421,-1.0,-2.0,-3.0,-4.0,-4.0,4.0,0.0,-5.0,1650911089028388.0,0
422,-1.0,-2.0,8.0,2.0,-3.0,-5.0,0.0,2.0,1650911089050016.0,0
423,0.0,4.0,15.0,7.0,-1.0,-11.0,-6.0,0.0,1650911089050016.0,0
424,0.0,-6.0,-18.0,-7.0,4.0,6.0,3.0,-3.0,1650911089051014.0,0
425,3.0,4.0,3.0,4.0,9.0,6.0,3.0,1.0,1650911089051014.0,0
426,-1.0,3.0,7.0,2.0,-5.0,-1.0,0.0,1.0,1650911089063112.0,0
427,-4.0,0.0,2.0,6.0,9.0,-5.0,-2.0,-1.0,1650911089063112.0,0
428,2.0,0.0,-1.0,0.0,-20.0,4.0,2.0,2.0,1650911089072091.0,0
429,0.0,3.0,5.0,2.0,22.0,4.0,1.0,1.0,1650911089072091.0,0
430,0.0,-4.0,-18.0,-12.0,-5.0,1.0,-1.0,1.0,1650911089088217.0,0
431,-8.0,0.0,9.0,-8.0,-23.0,-8.0,-2.0,-2.0,1650911089088217.0,0
432,-4.0,-4.0,2.0,6.0,7.0,-4.0,-5.0,-4.0,1650911089089053.0,0
433,-2.0,1.0,4.0,2.0,-2.0,-1.0,1.0,-1.0,1650911089089053.0,0
434,6.0,-1.0,9.0,1.0,4.0,1.0,-2.0,-1.0,1650911089110349.0,0
435,0.0,2.0,-10.0,-3.0,-8.0,7.0,1.0,0.0,1650911089110349.0,0
436,-1.0,-4.0,-2.0,-4.0,-4.0,-9.0,-2.0,-3.0,1650911089111191.0,0
437,-3.0,1.0,-3.0,0.0,5.0,1.0,0.0,2.0,1650911089111191.0,0
438,-4.0,-1.0,0.0,-6.0,3.0,-5.0,5.0,0.0,1650911089124363.0,0
439,0.0,0.0,4.0,7.0,-11.0,4.0,1.0,1.0,1650911089124363.0,0
440,1.0,1.0,-3.0,0.0,2.0,-4.0,-1.0,2.0,1650911089131992.0,0
441,5.0,-1.0,2.0,5.0,11.0,1.0,-5.0,-1.0,1650911089131992.0,0
442,-9.0,-2.0,-5.0,-4.0,-1.0,3.0,0.0,-4.0,1650911089147385.0,0
443,-6.0,-1.0,2.0,0.0,1.0,5.0,3.0,1.0,1650911089147385.0,0
444,1.0,-1.0,-4.0,-2.0,-11.0,-2.0,-3.0,-1.0,1650911089148413.0,0
445,-3.0,-4.0,-7.0,-5.0,-3.0,-7.0,-1.0,-2.0,1650911089148413.0,0
446,6.0,3.0,5.0,7.0,8.0,4.0,-3.0,0.0,1650911089170019.0,0
447,-1.0,-2.0,3.0,-4.0,-2.0,-1.0,0.0,-1.0,1650911089170019.0,0
448,-3.0,-2.0,-2.0,-2.0,0.0,-1.0,-1.0,-1.0,1650911089171019.0,0
449,2.0,0.0,2.0,-1.0,-3.0,-7.0,-2.0,-2.0,1650911089171019.0,0
450,-1.0,0.0,5.0,4.0,0.0,-1.0,1.0,0.0,1650911089193048.0,0
451,0.0,3.0,-4.0,1.0,16.0,21.0,3.0,1.0,1650911089193048.0,0
452,2.0,3.0,4.0,-1.0,9.0,16.0,4.0,0.0,1650911089194080.0,0
453,0.0,1.0,-7.0,-7.0,-17.0,-16.0,1.0,-1.0,1650911089194080.0,0
454,-3.0,-1.0,3.0,-1.0,-3.0,-7.0,-1.0,0.0,1650911089207243.0,0
455,-2.0,-2.0,-4.0,3.0,2.0,-6.0,-3.0,-1.0,1650911089207243.0,0
456,-1.0,0.0,-2.0,-2.0,-1.0,3.0,-2.0,0.0,1650911089208266.0,0
457,-3.0,-3.0,-7.0,-10.0,-4.0,-1.0,-4.0,-3.0,1650911089208266.0,0
458,-2.0,-1.0,-1.0,2.0,-8.0,0.0,-3.0,-1.0,1650911089229856.0,0
459,2.0,-2.0,2.0,5.0,9.0,-6.0,-2.0,0.0,1650911089229856.0,0
460,-1.0,2.0,-2.0,-2.0,-1.0,6.0,3.0,1.0,1650911089230856.0,0
461,-3.0,-1.0,-2.0,-4.0,0.0,9.0,0.0,-3.0,1650911089230856.0,0
462,0.0,1.0,1.0,0.0,-12.0,-10.0,-1.0,-2.0,1650911089253044.0,0
463,0.0,-2.0,-4.0,0.0,20.0,8.0,1.0,-1.0,1650911089253044.0,0
464,-1.0,3.0,1.0,1.0,5.0,-1.0,-1.0,-1.0,1650911089253285.0,0
465,3.0,2.0,1.0,4.0,-9.0,0.0,0.0,0.0,1650911089253285.0,0
466,8.0,-1.0,-3.0,0.0,3.0,0.0,1.0,0.0,1650911089267615.0,0
467,-13.0,0.0,2.0,2.0,2.0,-2.0,1.0,2.0,1650911089267615.0,0
468,-1.0,1.0,-2.0,-3.0,-7.0,-6.0,-2.0,-1.0,1650911089268447.0,0
469,-1.0,-3.0,-3.0,-3.0,-18.0,-6.0,-3.0,-2.0,1650911089268447.0,0
470,1.0,-4.0,-3.0,-3.0,4.0,-5.0,-5.0,-2.0,1650911089289934.0,0
471,2.0,0.0,3.0,0.0,8.0,11.0,5.0,0.0,1650911089289934.0,0
472,-1.0,-1.0,1.0,4.0,13.0,10.0,4.0,1.0,1650911089290810.0,0
473,-1.0,5.0,9.0,6.0,-9.0,-4.0,0.0,2.0,1650911089290810.0,0
474,-8.0,-9.0,-29.0,-21.0,-7.0,-8.0,-3.0,-3.0,1650911089313044.0,0
475,1.0,-1.0,-3.0,-5.0,-15.0,-10.0,-4.0,-2.0,1650911089313044.0,0
476,-2.0,-2.0,3.0,-1.0,-8.0,-2.0,-2.0,-1.0,1650911089314092.0,0
477,1.0,-2.0,-10.0,-7.0,9.0,-2.0,-2.0,-1.0,1650911089314092.0,0
478,0.0,3.0,12.0,9.0,-2.0,-2.0,1.0,0.0,1650911089326506.0,0
479,1.0,-1.0,-1.0,5.0,14.0,4.0,0.0,-1.0,1650911089326506.0,0
480,1.0,-3.0,-1.0,-7.0,0.0,-5.0,-1.0,0.0,1650911089333538.0,0
481,-1.0,-2.0,1.0,3.0,-4.0,0.0,-1.0,-1.0,1650911089333538.0,0
482,0.0,1.0,-3.0,-7.0,2.0,4.0,-1.0,-1.0,1650911089349508.0,0
483,2.0,-2.0,-6.0,-7.0,-22.0,-12.0,-3.0,-3.0,1650911089349508.0,0
484,-1.0,1.0,3.0,7.0,-2.0,-9.0,-2.0,-1.0,1650911089351376.0,0
485,0.0,0.0,0.0,3.0,11.0,4.0,3.0,0.0,1650911089351376.0,0
486,-3.0,0.0,3.0,5.0,12.0,8.0,3.0,3.0,1650911089373154.0,0
487,1.0,2.0,-2.0,0.0,-3.0,1.0,-1.0,-1.0,1650911089373154.0,0
488,-1.0,-1.0,-3.0,-6.0,-10.0,-5.0,-2.0,-1.0,1650911089374153.0,0
489,-1.0,-3.0,-10.0,-7.0,-8.0,-7.0,-2.0,-2.0,1650911089374153.0,0
490,1.0,-2.0,-6.0,-4.0,5.0,10.0,1.0,-1.0,1650911089386122.0,0
491,5.0,0.0,8.0,5.0,-3.0,-4.0,-1.0,0.0,1650911089386122.0,0
492,0.0,2.0,-6.0,-1.0,0.0,-5.0,0.0,1.0,1650911089394306.0,0
493,-1.0,-2.0,-1.0,-3.0,0.0,5.0,0.0,0.0,1650911089394306.0,0
494,-3.0,1.0,4.0,1.0,-2.0,-2.0,-1.0,-1.0,1650911089410015.0,0
495,1.0,-1.0,-11.0,-8.0,-14.0,-4.0,-1.0,0.0,1650911089410015.0,0
496,-1.0,-2.0,5.0,5.0,10.0,-3.0,-2.0,-3.0,1650911089411015.0,0
497,1.0,5.0,7.0,10.0,8.0,7.0,4.0,2.0,1650911089411015.0,0
498,3.0,3.0,4.0,8.0,20.0,12.0,3.0,2.0,1650911089433269.0,0
499,-6.0,-1.0,-4.0,-4.0,-3.0,-5.0,1.0,-1.0,1650911089433269.0,0
500,1.0,1.0,-1.0,-6.0,-22.0,0.0,-3.0,0.0,1650911089433869.0,0
501,-2.0,-3.0,0.0,-6.0,-8.0,-13.0,-4.0,-3.0,1650911089433869.0,0
502,0.0,2.0,1.0,-2.0,-20.0,4.0,-1.0,0.0,1650911089446059.0,0
503,2.0,0.0,6.0,10.0,25.0,4.0,0.0,0.0,1650911089446059.0,0
504,-2.0,-1.0,-7.0,-3.0,11.0,4.0,2.0,0.0,1650911089453681.0,0
505,1.0,-2.0,-10.0,-9.0,-8.0,-2.0,-1.0,0.0,1650911089453681.0,0
506,-3.0,0.0,6.0,-1.0,-8.0,-4.0,-4.0,-2.0,1650911089469706.0,0
507,-2.0,-1.0,4.0,2.0,-11.0,-13.0,-4.0,-1.0,1650911089469706.0,0
508,-1.0,-3.0,-5.0,-3.0,7.0,-3.0,-1.0,-1.0,1650911089470703.0,0
509,-1.0,0.0,6.0,7.0,-6.0,11.0,2.0,0.0,1650911089470703.0,0
510,0.0,-2.0,-2.0,5.0,14.0,5.0,2.0,-2.0,1650911089493146.0,0
511,0.0,-1.0,-1.0,-1.0,4.0,5.0,2.0,3.0,1650911089493146.0,0
512,-1.0,-2.0,-8.0,-7.0,-15.0,-10.0,-2.0,-1.0,1650911089494022.0,0
513,-3.0,0.0,-1.0,1.0,6.0,-1.0,-2.0,1.0,1650911089494022.0,0
514,0.0,-3.0,-1.0,0.0,-1.0,1.0,0.0,-2.0,1650911089506200.0,0
515,0.0,0.0,4.0,-3.0,-10.0,1.0,-4.0,0.0,1650911089506200.0,0
516,-1.0,-1.0,-8.0,-7.0,-10.0,-8.0,0.0,0.0,1650911089513194.0,0
517,0.0,2.0,2.0,5.0,21.0,4.0,0.0,0.0,1650911089513194.0,0
518,0.0,1.0,-4.0,1.0,1.0,-3.0,2.0,0.0,1650911089529855.0,0
519,6.0,0.0,-2.0,-1.0,-1.0,-1.0,-1.0,0.0,1650911089529855.0,0
520,-3.0,-2.0,0.0,-3.0,-19.0,-4.0,-3.0,0.0,1650911089530857.0,0
521,1.0,0.0,8.0,4.0,-4.0,1.0,-2.0,-1.0,1650911089530857.0,0
522,-3.0,-2.0,-4.0,4.0,20.0,24.0,3.0,2.0,1650911089552055.0,0
523,2.0,4.0,0.0,2.0,5.0,-12.0,3.0,0.0,1650911089552055.0,0
524,0.0,2.0,5.0,6.0,-11.0,2.0,0.0,0.0,1650911089554048.0,0
525,-1.0,-3.0,1.0,-6.0,-16.0,-14.0,-4.0,0.0,1650911089554048.0,0
526,2.0,-1.0,-4.0,0.0,2.0,1.0,-1.0,-2.0,1650911089566494.0,0
527,-5.0,-3.0,7.0,-3.0,9.0,13.0,0.0,-2.0,1650911089566494.0,0
528,1.0,1.0,-1.0,9.0,13.0,7.0,2.0,0.0,1650911089573524.0,0
529,-3.0,-3.0,-6.0,-2.0,0.0,-1.0,2.0,0.0,1650911089573524.0,0
530,-2.0,-3.0,-8.0,-12.0,-13.0,-22.0,-6.0,-3.0,1650911089589516.0,0
531,-4.0,-1.0,-6.0,0.0,-22.0,-1.0,-5.0,-1.0,1650911089589516.0,0
532,2.0,0.0,-1.0,3.0,29.0,13.0,2.0,0.0,1650911089591481.0,0
533,3.0,0.0,6.0,6.0,7.0,6.0,3.0,1.0,1650911089591481.0,0
534,-1.0,-1.0,1.0,-5.0,-10.0,-5.0,0.0,-3.0,1650911089613008.0,0
535,-3.0,-1.0,1.0,4.0,-1.0,-2.0,2.0,0.0,1650911089613008.0,0
536,-1.0,-1.0,-2.0,0.0,2.0,-10.0,-3.0,-2.0,1650911089617984.0,0
537,-1.0,1.0,-4.0,-4.0,-3.0,3.0,-3.0,0.0,1650911089617984.0,0
538,-2.0,-1.0,2.0,-4.0,-9.0,2.0,-2.0,0.0,1650911089626162.0,0
539,-4.0,-4.0,-1.0,-2.0,-5.0,-10.0,-2.0,0.0,1650911089626162.0,0
540,-1.0,1.0,6.0,-2.0,-12.0,-14.0,-2.0,0.0,1650911089633791.0,0
541,3.0,-2.0,-1.0,4.0,14.0,9.0,2.0,-1.0,1650911089633791.0,0
542,0.0,0.0,2.0,6.0,31.0,12.0,2.0,4.0,1650911089649532.0,0
543,1.0,2.0,-2.0,3.0,3.0,6.0,1.0,0.0,1650911089649532.0,0
544,-3.0,-2.0,-4.0,-11.0,-9.0,-6.0,-2.0,-3.0,1650911089651390.0,0
545,-3.0,-2.0,-5.0,-8.0,-44.0,-13.0,-7.0,-3.0,1650911089651390.0,0
546,-1.0,-1.0,5.0,5.0,4.0,-4.0,2.0,-1.0,1650911089672678.0,0
547,-1.0,3.0,6.0,9.0,30.0,12.0,3.0,1.0,1650911089672678.0,0
548,0.0,-1.0,-2.0,-2.0,13.0,3.0,1.0,-1.0,1650911089673644.0,0
549,-2.0,0.0,-6.0,-7.0,-17.0,2.0,-2.0,-4.0,1650911089673644.0,0
550,1.0,-2.0,1.0,-3.0,-19.0,-9.0,-5.0,-2.0,1650911089685990.0,0
551,0.0,-4.0,-3.0,-1.0,-6.0,-4.0,-3.0,-1.0,1650911089685990.0,0
552,-1.0,2.0,9.0,9.0,9.0,3.0,1.0,0.0,1650911089694467.0,0
553,-1.0,0.0,-5.0,-3.0,10.0,-5.0,2.0,2.0,1650911089694467.0,0
554,4.0,1.0,-1.0,1.0,-6.0,-2.0,-2.0,0.0,1650911089709445.0,0
555,-2.0,1.0,0.0,-2.0,-7.0,1.0,0.0,-1.0,1650911089709445.0,0
556,0.0,-5.0,-8.0,-8.0,-6.0,0.0,-3.0,-2.0,1650911089711475.0,0
557,0.0,-1.0,0.0,3.0,3.0,2.0,0.0,-2.0,1650911089711475.0,0
558,1.0,-1.0,1.0,4.0,2.0,-9.0,0.0,-1.0,1650911089732967.0,0
559,1.0,0.0,-8.0,-3.0,7.0,6.0,0.0,0.0,1650911089732967.0,0
560,-1.0,-1.0,1.0,2.0,2.0,14.0,1.0,2.0,1650911089733851.0,0
561,0.0,1.0,2.0,-3.0,-2.0,-7.0,0.0,0.0,1650911089733851.0,0
562,-5.0,-2.0,1.0,-2.0,-14.0,-15.0,-2.0,-1.0,1650911089745996.0,0
563,-2.0,-2.0,-5.0,-7.0,10.0,11.0,-1.0,-2.0,1650911089745996.0,0
564,-1.0,1.0,-1.0,6.0,17.0,8.0,4.0,2.0,1650911089754808.0,0
565,1.0,1.0,1.0,1.0,5.0,2.0,0.0,-1.0,1650911089754808.0,0
566,-3.0,1.0,1.0,-1.0,-10.0,1.0,-2.0,1.0,1650911089769769.0,0
567,-1.0,-3.0,4.0,0.0,-6.0,-10.0,1.0,-2.0,1650911089769769.0,0
568,1.0,3.0,-1.0,-1.0,-22.0,-4.0,-2.0,-2.0,1650911089770766.0,0
569,-1.0,-2.0,0.0,1.0,11.0,-7.0,-1.0,2.0,1650911089770766.0,0
570,-2.0,0.0,3.0,1.0,3.0,10.0,1.0,-1.0,1650911089800027.0,0
571,-1.0,-1.0,-1.0,-3.0,2.0,2.0,-1.0,-1.0,1650911089800027.0,0
572,-1.0,-2.0,3.0,-1.0,-6.0,-4.0,-2.0,-1.0,1650911089801032.0,0
573,-1.0,1.0,1.0,1.0,-5.0,-7.0,-3.0,-1.0,1650911089801032.0,0
574,-1.0,0.0,-4.0,-4.0,0.0,0.0,-3.0,-1.0,1650911089806043.0,0
575,3.0,4.0,0.0,6.0,12.0,9.0,3.0,2.0,1650911089806043.0,0
576,-1.0,2.0,-3.0,1.0,5.0,8.0,3.0,1.0,1650911089815048.0,0
577,-2.0,0.0,4.0,2.0,0.0,-3.0,0.0,0.0,1650911089815048.0,0
578,1.0,-1.0,-4.0,-8.0,1.0,-2.0,-2.0,1.0,1650911089829511.0,0
579,-3.0,-1.0,-4.0,-13.0,-34.0,-18.0,-6.0,-3.0,1650911089829511.0,0
580,-1.0,-2.0,5.0,7.0,-3.0,4.0,-4.0,-1.0,1650911089831346.0,0
581,0.0,0.0,3.0,10.0,34.0,12.0,5.0,2.0,1650911089831346.0,0
582,-2.0,2.0,1.0,5.0,10.0,3.0,2.0,0.0,1650911089852273.0,0
583,-1.0,1.0,0.0,0.0,-6.0,-3.0,2.0,0.0,1650911089852273.0,0
584,-2.0,-3.0,-12.0,-18.0,-21.0,-15.0,-4.0,-3.0,1650911089853307.0,0
585,-1.0,0.0,3.0,1.0,-8.0,2.0,-4.0,-3.0,1650911089853307.0,0
586,-1.0,-1.0,-2.0,2.0,7.0,4.0,1.0,1.0,1650911089866467.0,0
587,0.0,-2.0,-5.0,-2.0,1.0,3.0,0.0,-2.0,1650911089866467.0,0
588,2.0,-3.0,2.0,0.0,10.0,1.0,-2.0,-2.0,1650911089874522.0,0
589,-1.0,-1.0,-2.0,-2.0,-27.0,-1.0,-1.0,-1.0,1650911089874522.0,0
590,-1.0,0.0,-3.0,-2.0,4.0,-13.0,-3.0,-2.0,1650911089889838.0,0
591,2.0,3.0,0.0,2.0,5.0,3.0,-1.0,2.0,1650911089889838.0,0
592,-1.0,1.0,6.0,3.0,-4.0,4.0,2.0,0.0,1650911089890671.0,0
593,-2.0,-3.0,-6.0,-8.0,4.0,-3.0,2.0,1.0,1650911089890671.0,0
594,0.0,-2.0,1.0,1.0,-3.0,7.0,0.0,0.0,1650911089919988.0,0
595,-1.0,-1.0,2.0,1.0,-5.0,-22.0,-3.0,-1.0,1650911089919988.0,0
596,-2.0,3.0,3.0,3.0,4.0,-5.0,-1.0,0.0,1650911089920985.0,0
597,-2.0,-2.0,-10.0,-5.0,0.0,7.0,-2.0,-1.0,1650911089920985.0,0
598,-1.0,-2.0,-4.0,-2.0,3.0,4.0,2.0,3.0,1650911089925972.0,0
599,1.0,-1.0,-4.0,-3.0,5.0,9.0,0.0,0.0,1650911089925972.0,0
600,-1.0,-3.0,-2.0,-2.0,-18.0,-6.0,-2.0,-1.0,1650911089934963.0,0
601,0.0,-3.0,0.0,2.0,11.0,-5.0,-2.0,-1.0,1650911089934963.0,0
602,-1.0,2.0,-1.0,1.0,6.0,-2.0,-3.0,-2.0,1650911089950429.0,0
603,0.0,-2.0,0.0,-4.0,-10.0,-1.0,-1.0,0.0,1650911089950429.0,0
604,-2.0,0.0,-6.0,-3.0,-5.0,-5.0,1.0,-1.0,1650911089951271.0,0
605,1.0,2.0,3.0,1.0,2.0,2.0,1.0,1.0,1650911089951271.0,0
606,1.0,0.0,4.0,1.0,4.0,9.0,1.0,0.0,1650911089972584.0,0
607,-3.0,-3.0,-1.0,0.0,5.0,0.0,0.0,-2.0,1650911089972584.0,0
608,-1.0,-2.0,-2.0,-4.0,-8.0,-1.0,-4.0,0.0,1650911089973586.0,0
609,-1.0,-1.0,-3.0,-7.0,-10.0,0.0,-2.0,-2.0,1650911089973586.0,0
610,0.0,1.0,0.0,-1.0,-22.0,-19.0,0.0,-2.0,1650911089985583.0,0
611,2.0,2.0,3.0,9.0,25.0,13.0,6.0,4.0,1650911089985583.0,0
612,2.0,1.0,-1.0,3.0,25.0,11.0,3.0,3.0,1650911089994542.0,0
613,-1.0,-1.0,1.0,-1.0,-7.0,1.0,2.0,-1.0,1650911089994542.0,0
614,-1.0,0.0,-4.0,-2.0,-8.0,-5.0,-2.0,-1.0,1650911090009863.0,0
615,-2.0,-1.0,-3.0,-7.0,-22.0,-5.0,-6.0,-4.0,1650911090009863.0,0
616,-1.0,-1.0,-1.0,1.0,13.0,3.0,-3.0,-3.0,1650911090010729.0,0
617,1.0,-1.0,3.0,2.0,6.0,0.0,-2.0,0.0,1650911090010729.0,0
618,0.0,-1.0,0.0,-1.0,-6.0,0.0,3.0,2.0,1650911090032555.0,0
619,-1.0,-4.0,-3.0,-4.0,3.0,-1.0,-1.0,0.0,1650911090032555.0,0
620,1.0,0.0,-2.0,-4.0,-9.0,-5.0,-1.0,-2.0,1650911090033554.0,0
621,0.0,2.0,1.0,-2.0,12.0,1.0,1.0,-2.0,1650911090033554.0,0
622,-1.0,-1.0,-2.0,1.0,-16.0,-4.0,2.0,-3.0,1650911090046318.0,0
623,0.0,-3.0,0.0,3.0,18.0,5.0,2.0,2.0,1650911090046318.0,0
624,0.0,-2.0,1.0,-4.0,-7.0,-6.0,-2.0,-1.0,1650911090054562.0,0
625,1.0,1.0,-3.0,-1.0,-4.0,-11.0,-4.0,-1.0,1650911090054562.0,0
626,-1.0,-1.0,-1.0,-6.0,-2.0,4.0,-4.0,0.0,1650911090068525.0,0
627,-1.0,0.0,-3.0,-4.0,-13.0,10.0,0.0,-2.0,1650911090068525.0,0
628,-1.0,-2.0,1.0,3.0,-4.0,-13.0,1.0,-2.0,1650911090077533.0,0
629,1.0,0.0,3.0,9.0,20.0,19.0,5.0,4.0,1650911090077533.0,0
630,-2.0,1.0,2.0,2.0,26.0,9.0,2.0,1.0,1650911090092615.0,0
631,0.0,1.0,-6.0,-7.0,-18.0,-10.0,-4.0,-2.0,1650911090092615.0,0
632,-2.0,0.0,-2.0,-7.0,-17.0,-12.0,-4.0,-2.0,1650911090093463.0,0
633,-2.0,-4.0,0.0,-2.0,-14.0,-8.0,-3.0,0.0,1650911090093463.0,0
634,0.0,1.0,2.0,2.0,8.0,8.0,3.0,0.0,1650911090106613.0,0
635,0.0,2.0,1.0,3.0,4.0,1.0,0.0,-3.0,1650911090106613.0,0
636,-1.0,-3.0,-4.0,-3.0,1.0,2.0,2.0,1.0,1650911090115293.0,0
637,2.0,0.0,0.0,-5.0,-10.0,-4.0,-3.0,-2.0,1650911090115293.0,0
638,0.0,-2.0,1.0,-1.0,0.0,2.0,-1.0,0.0,1650911090129569.0,0
639,-2.0,0.0,5.0,8.0,4.0,-11.0,-1.0,0.0,1650911090129569.0,0
640,-1.0,-2.0,-3.0,3.0,21.0,7.0,2.0,0.0,1650911090131566.0,0
641,-2.0,-2.0,-2.0,-4.0,-13.0,-11.0,-3.0,0.0,1650911090131566.0,0
642,-3.0,-1.0,-2.0,-5.0,-12.0,9.0,-4.0,-4.0,1650911090152323.0,0
643,0.0,0.0,1.0,1.0,2.0,2.0,2.0,-1.0,1650911090152323.0,0
644,0.0,0.0,1.0,-1.0,-16.0,-5.0,0.0,1.0,1650911090154196.0,0
645,4.0,-1.0,-1.0,2.0,5.0,15.0,2.0,1.0,1650911090154196.0,0
646,-14.0,-3.0,-2.0,0.0,22.0,7.0,3.0,2.0,1650911090175242.0,0
647,0.0,-1.0,1.0,0.0,-9.0,-10.0,-1.0,1.0,1650911090175242.0,0
648,2.0,3.0,3.0,1.0,9.0,1.0,1.0,0.0,1650911090175678.0,0
649,-1.0,-1.0,-2.0,-1.0,-5.0,-4.0,-1.0,-2.0,1650911090175678.0,0
650,3.0,1.0,-1.0,-2.0,-10.0,-6.0,0.0,1.0,1650911090189619.0,0
651,-2.0,-2.0,-4.0,-5.0,2.0,10.0,-1.0,1.0,1650911090189619.0,0
652,-3.0,-1.0,-4.0,-6.0,-13.0,-3.0,2.0,2.0,1650911090191650.0,0
653,0.0,2.0,-2.0,1.0,-7.0,-17.0,-5.0,-3.0,1650911090191650.0,0
654,-1.0,-2.0,-1.0,4.0,7.0,-8.0,-8.0,-8.0,1650911090212970.0,0
655,-2.0,-1.0,-4.0,-2.0,8.0,5.0,4.0,2.0,1650911090212970.0,0
656,0.0,-3.0,2.0,-3.0,-8.0,14.0,3.0,4.0,1650911090213198.0,0
657,2.0,6.0,4.0,3.0,1.0,2.0,4.0,8.0,1650911090213198.0,0
658,5.0,6.0,5.0,5.0,9.0,2.0,10.0,11.0,1650911090235022.0,0
659,1.0,-4.0,-4.0,-4.0,-4.0,-11.0,-23.0,-14.0,1650911090235022.0,0
660,-10.0,-10.0,-5.0,-4.0,-3.0,3.0,-12.0,-18.0,1650911090236035.0,0
661,-6.0,-6.0,-6.0,-8.0,-8.0,-6.0,-7.0,-13.0,1650911090236035.0,0
662,-1.0,-2.0,-6.0,-6.0,-14.0,-9.0,2.0,6.0,1650911090257605.0,0
663,13.0,12.0,10.0,7.0,8.0,11.0,25.0,25.0,1650911090257605.0,0
664,6.0,6.0,1.0,7.0,18.0,11.0,6.0,19.0,1650911090258446.0,0
665,-15.0,-8.0,-7.0,-7.0,2.0,-5.0,-19.0,-28.0,1650911090258446.0,0
666,9.0,-2.0,-2.0,-2.0,-29.0,-18.0,-11.0,-17.0,1650911090272579.0,0
667,-7.0,-7.0,2.0,0.0,-7.0,5.0,3.0,-1.0,1650911090272579.0,0
668,-16.0,6.0,2.0,7.0,26.0,18.0,11.0,3.0,1650911090273580.0,0
669,11.0,11.0,6.0,6.0,24.0,12.0,17.0,22.0,1650911090273580.0,0
670,6.0,1.0,-7.0,-4.0,-2.0,5.0,10.0,14.0,1650911090295551.0,0
671,10.0,9.0,-3.0,-3.0,-24.0,-27.0,-13.0,-9.0,1650911090295551.0,0
672,6.0,-19.0,2.0,0.0,0.0,-5.0,1.0,-4.0,1650911090296683.0,0
673,-32.0,-21.0,-7.0,-3.0,-3.0,3.0,4.0,6.0,1650911090296683.0,0
674,-35.0,-18.0,-4.0,1.0,2.0,3.0,-6.0,-5.0,1650911090308652.0,0
675,2.0,20.0,6.0,-1.0,0.0,0.0,-19.0,-38.0,1650911090308652.0,0
676,31.0,15.0,1.0,6.0,1.0,4.0,17.0,31.0,1650911090315987.0,0
677,16.0,2.0,-7.0,-4.0,-4.0,-2.0,2.0,-12.0,1650911090315987.0,0
678,6.0,13.0,4.0,1.0,5.0,3.0,-4.0,-7.0,1650911090333147.0,0
679,25.0,-9.0,6.0,3.0,3.0,0.0,11.0,22.0,1650911090333147.0,0
680,-41.0,-8.0,4.0,-4.0,-6.0,-6.0,5.0,20.0,1650911090334146.0,0
681,-20.0,-40.0,-35.0,-16.0,-25.0,-11.0,-27.0,-40.0,1650911090334146.0,0
682,5.0,21.0,27.0,13.0,16.0,5.0,4.0,15.0,1650911090354921.0,0
683,4.0,24.0,7.0,11.0,27.0,21.0,13.0,-8.0,1650911090354921.0,0
684,-24.0,-12.0,4.0,5.0,-3.0,-9.0,-10.0,-12.0,1650911090355806.0,0
685,47.0,26.0,12.0,4.0,7.0,10.0,8.0,12.0,1650911090355806.0,0
686,-40.0,8.0,-18.0,-21.0,-19.0,-18.0,-24.0,-55.0,1650911090368903.0,0
687,37.0,-1.0,1.0,-1.0,-12.0,1.0,18.0,54.0,1650911090368903.0,0
688,53.0,31.0,5.0,-1.0,-3.0,-6.0,-3.0,-4.0,1650911090376080.0,0
689,-54.0,-16.0,5.0,4.0,7.0,5.0,-7.0,-10.0,1650911090376080.0,0
690,-8.0,-14.0,-3.0,10.0,14.0,2.0,-9.0,-9.0,1650911090392519.0,0
691,-23.0,-5.0,0.0,-5.0,12.0,6.0,1.0,-21.0,1650911090392519.0,0
692,14.0,2.0,-11.0,-1.0,0.0,6.0,17.0,31.0,1650911090393386.0,0
693,12.0,-5.0,-1.0,-11.0,-40.0,-17.0,-3.0,8.0,1650911090393386.0,0
694,37.0,7.0,9.0,6.0,-1.0,15.0,2.0,6.0,1650911090414863.0,0
695,-88.0,-41.0,-30.0,-6.0,24.0,7.0,-6.0,-11.0,1650911090414863.0,0
696,10.0,14.0,27.0,4.0,7.0,10.0,-9.0,-13.0,1650911090415704.0,1
697,4.0,-4.0,-13.0,-4.0,-12.0,-16.0,6.0,11.0,1650911090415704.0,1
698,-15.0,-15.0,-11.0,-5.0,-3.0,-11.0,-4.0,-5.0,1650911090429088.0,1
699,18.0,5.0,2.0,-2.0,-21.0,-14.0,-2.0,38.0,1650911090429088.0,1
700,-13.0,1.0,-8.0,1.0,10.0,-3.0,-29.0,-68.0,1650911090436840.0,1
701,20.0,16.0,11.0,4.0,1.0,4.0,5.0,-3.0,1650911090436840.0,1
702,-12.0,-32.0,-24.0,-11.0,-15.0,-6.0,1.0,9.0,1650911090452753.0,1
703,0.0,-24.0,-6.0,-20.0,-18.0,-16.0,-9.0,1.0,1650911090452753.0,1
704,-13.0,1.0,1.0,8.0,11.0,1.0,-9.0,-12.0,1650911090453592.0,1
705,12.0,10.0,18.0,17.0,48.0,20.0,15.0,22.0,1650911090453592.0,1
706,11.0,40.0,-2.0,6.0,-1.0,0.0,0.0,-7.0,1650911090475811.0,1
707,21.0,-4.0,22.0,-9.0,-35.0,-8.0,0.0,9.0,1650911090475811.0,1
708,-20.0,-16.0,-13.0,-13.0,-17.0,-10.0,7.0,17.0,1650911090476595.0,1
709,6.0,8.0,-1.0,8.0,17.0,14.0,16.0,32.0,1650911090476595.0,1
710,-2.0,-41.0,2.0,8.0,23.0,10.0,6.0,0.0,1650911090488789.0,1
711,-12.0,-15.0,-25.0,0.0,0.0,-2.0,-6.0,-18.0,1650911090488789.0,1
712,12.0,20.0,7.0,-13.0,-46.0,-12.0,-2.0,-11.0,1650911090496784.0,1
713,20.0,4.0,-5.0,-1.0,-3.0,-8.0,0.0,6.0,1650911090496784.0,1
714,-4.0,-18.0,-5.0,-4.0,5.0,0.0,8.0,34.0,1650911090512182.0,1
715,-34.0,3.0,-15.0,-5.0,-25.0,-14.0,-26.0,-66.0,1650911090512182.0,1
716,10.0,-12.0,3.0,7.0,14.0,7.0,10.0,23.0,1650911090514013.0,1
717,-12.0,-18.0,-1.0,4.0,47.0,3.0,-6.0,-6.0,1650911090514013.0,1
718,3.0,2.0,0.0,-13.0,-33.0,-8.0,-14.0,-28.0,1650911090535333.0,1
719,6.0,5.0,7.0,8.0,16.0,13.0,7.0,8.0,1650911090535333.0,1
720,-33.0,-8.0,-9.0,0.0,22.0,0.0,-15.0,-29.0,1650911090541476.0,1
721,9.0,16.0,13.0,1.0,-6.0,11.0,4.0,6.0,1650911090541476.0,1
722,-5.0,-10.0,-4.0,2.0,-10.0,-8.0,3.0,-15.0,1650911090556474.0,1
723,-1.0,21.0,29.0,-4.0,-23.0,-11.0,-2.0,33.0,1650911090556474.0,1
724,6.0,-16.0,-15.0,4.0,28.0,7.0,-1.0,-1.0,1650911090557474.0,1
725,-2.0,7.0,4.0,-4.0,-21.0,-9.0,-7.0,-3.0,1650911090557474.0,1
726,2.0,8.0,17.0,0.0,11.0,4.0,9.0,14.0,1650911090571911.0,1
727,22.0,8.0,-6.0,6.0,-1.0,5.0,0.0,0.0,1650911090571911.0,1
728,-18.0,-6.0,2.0,5.0,-17.0,-24.0,-3.0,7.0,1650911090571911.0,1
729,1.0,-4.0,-3.0,-4.0,5.0,-1.0,-14.0,-22.0,1650911090571911.0,1
730,1.0,27.0,12.0,8.0,11.0,22.0,9.0,14.0,1650911090594553.0,1
731,11.0,5.0,1.0,2.0,12.0,7.0,9.0,-4.0,1650911090594553.0,1
732,3.0,-20.0,-16.0,-8.0,11.0,10.0,1.0,0.0,1650911090595090.0,1
733,-15.0,9.0,13.0,0.0,-32.0,-17.0,1.0,-7.0,1650911090595090.0,1
734,6.0,40.0,11.0,-7.0,-4.0,-5.0,0.0,-1.0,1650911090616400.0,1
735,20.0,17.0,14.0,6.0,-1.0,-16.0,1.0,15.0,1650911090616400.0,1
736,-16.0,5.0,1.0,9.0,-13.0,2.0,-13.0,-10.0,1650911090617400.0,1
737,-3.0,-15.0,-4.0,-17.0,40.0,30.0,6.0,-12.0,1650911090617400.0,1
738,-3.0,-7.0,-9.0,-1.0,-23.0,2.0,0.0,5.0,1650911090632051.0,1
739,-15.0,7.0,10.0,7.0,23.0,-16.0,-5.0,-17.0,1650911090632051.0,1
740,24.0,12.0,19.0,-1.0,16.0,-11.0,13.0,5.0,1650911090632051.0,1
741,-14.0,-13.0,-31.0,-1.0,-32.0,-12.0,-2.0,5.0,1650911090632051.0,1
742,-3.0,-32.0,2.0,-5.0,10.0,-2.0,-5.0,-2.0,1650911090654407.0,1
743,9.0,2.0,9.0,7.0,-18.0,6.0,-4.0,8.0,1650911090654407.0,1
744,-17.0,3.0,-11.0,-29.0,-20.0,-20.0,-12.0,-29.0,1650911090654407.0,1
745,16.0,11.0,5.0,10.0,-35.0,10.0,4.0,4.0,1650911090654407.0,1
746,7.0,-20.0,-9.0,12.0,45.0,33.0,9.0,20.0,1650911090677212.0,1
747,-3.0,-1.0,-9.0,-6.0,21.0,10.0,3.0,-17.0,1650911090677212.0,1
748,7.0,-17.0,-2.0,-13.0,-46.0,-13.0,0.0,12.0,1650911090678049.0,1
749,-22.0,-6.0,-10.0,-7.0,0.0,6.0,-6.0,-13.0,1650911090678049.0,1
750,36.0,27.0,9.0,-1.0,-13.0,-41.0,-4.0,-2.0,1650911090692172.0,1
751,-9.0,-24.0,-12.0,1.0,4.0,10.0,9.0,49.0,1650911090692172.0,1
752,18.0,27.0,7.0,-1.0,-4.0,-7.0,5.0,7.0,1650911090692172.0,1
753,-10.0,-20.0,-25.0,-9.0,7.0,-6.0,-16.0,-11.0,1650911090692172.0,1
754,-35.0,-48.0,-32.0,-7.0,-5.0,-11.0,-4.0,-2.0,1650911090713529.0,1
755,18.0,18.0,10.0,10.0,43.0,30.0,11.0,-3.0,1650911090713529.0,1
756,11.0,-14.0,-14.0,-8.0,-24.0,12.0,0.0,21.0,1650911090714527.0,1
757,-3.0,40.0,19.0,4.0,-16.0,-14.0,1.0,-13.0,1650911090714527.0,1
758,25.0,-14.0,11.0,2.0,32.0,-20.0,-4.0,-16.0,1650911090728666.0,1
759,-22.0,-24.0,-15.0,-13.0,-47.0,-17.0,-12.0,-11.0,1650911090728666.0,1
760,13.0,9.0,6.0,27.0,31.0,23.0,8.0,19.0,1650911090736993.0,1
761,6.0,29.0,22.0,6.0,19.0,27.0,6.0,9.0,1650911090736993.0,1
762,-6.0,-8.0,-9.0,1.0,-22.0,5.0,5.0,7.0,1650911090752187.0,1
763,-4.0,11.0,-6.0,-8.0,11.0,-24.0,-10.0,-34.0,1650911090752187.0,1
764,7.0,-17.0,-2.0,5.0,10.0,3.0,0.0,17.0,1650911090752187.0,1
765,2.0,-5.0,5.0,3.0,2.0,-3.0,2.0,-4.0,1650911090752187.0,1
766,-13.0,8.0,2.0,5.0,-6.0,4.0,-6.0,4.0,1650911090773666.0,1
767,17.0,15.0,15.0,5.0,7.0,5.0,3.0,-1.0,1650911090773666.0,1
768,0.0,-1.0,-9.0,-15.0,-22.0,-2.0,-7.0,-18.0,1650911090774699.0,1
769,-22.0,-24.0,4.0,4.0,14.0,-3.0,11.0,19.0,1650911090774699.0,1
770,5.0,-1.0,-9.0,-13.0,-24.0,-9.0,-9.0,-15.0,1650911090797038.0,1
771,-5.0,-5.0,-9.0,14.0,-10.0,30.0,9.0,-2.0,1650911090797038.0,1
772,1.0,10.0,16.0,5.0,39.0,-7.0,0.0,3.0,1650911090798033.0,1
773,-3.0,-10.0,-8.0,-4.0,-11.0,-4.0,-9.0,-43.0,1650911090798033.0,1
774,9.0,33.0,7.0,-1.0,0.0,36.0,3.0,23.0,1650911090812339.0,1
775,-15.0,-42.0,2.0,3.0,-14.0,-43.0,-2.0,-4.0,1650911090812339.0,1
776,-5.0,-20.0,-13.0,-14.0,-7.0,-16.0,-6.0,-19.0,1650911090812339.0,1
777,19.0,19.0,10.0,-1.0,-7.0,-15.0,3.0,45.0,1650911090812339.0,1
778,-4.0,-11.0,-8.0,2.0,20.0,15.0,2.0,-39.0,1650911090843112.0,1
779,8.0,-18.0,-18.0,1.0,13.0,26.0,-3.0,37.0,1650911090843112.0,1
780,-18.0,19.0,5.0,-2.0,-22.0,-15.0,4.0,-34.0,1650911090843112.0,1
781,7.0,6.0,-1.0,-14.0,-30.0,-26.0,5.0,31.0,1650911090843112.0,1
782,7.0,-16.0,-8.0,20.0,51.0,9.0,8.0,16.0,1650911090848133.0,1
783,-7.0,13.0,6.0,14.0,55.0,21.0,1.0,-13.0,1650911090848133.0,1
784,10.0,-14.0,-8.0,9.0,18.0,12.0,10.0,4.0,1650911090857237.0,1
785,3.0,-18.0,-28.0,-21.0,-22.0,-5.0,-6.0,28.0,1650911090857237.0,1
786,-11.0,30.0,14.0,-11.0,-38.0,-14.0,-2.0,-16.0,1650911090871812.0,1
787,2.0,-20.0,-33.0,-16.0,-38.0,-12.0,1.0,-5.0,1650911090871812.0,1
788,-8.0,9.0,7.0,-4.0,-17.0,-3.0,-15.0,-3.0,1650911090871812.0,1
789,25.0,3.0,-4.0,17.0,28.0,2.0,8.0,-6.0,1650911090871812.0,1
790,0.0,-18.0,21.0,13.0,38.0,-5.0,0.0,5.0,1650911090894651.0,1
791,-26.0,-17.0,9.0,6.0,27.0,17.0,1.0,-8.0,1650911090894651.0,1
792,-2.0,-2.0,-15.0,-7.0,-20.0,6.0,-1.0,-9.0,1650911090894651.0,1
793,-12.0,2.0,1.0,-3.0,-13.0,13.0,-8.0,-31.0,1650911090894651.0,1
794,10.0,-5.0,-1.0,-7.0,-27.0,-29.0,4.0,23.0,1650911090918083.0,1
795,-1.0,10.0,-3.0,7.0,40.0,-5.0,3.0,-13.0,1650911090918083.0,1
796,-16.0,-67.0,-35.0,0.0,13.0,5.0,-5.0,-14.0,1650911090918083.0,1
797,-11.0,-6.0,1.0,-15.0,-25.0,-17.0,-9.0,-4.0,1650911090918083.0,1
798,-4.0,14.0,-6.0,-12.0,-24.0,-9.0,-8.0,-3.0,1650911090931378.0,1
799,6.0,1.0,15.0,6.0,0.0,-4.0,5.0,-9.0,1650911090931378.0,1
800,5.0,-16.0,13.0,14.0,25.0,28.0,16.0,29.0,1650911090932247.0,1
801,-20.0,-22.0,7.0,7.0,19.0,18.0,3.0,-13.0,1650911090932247.0,1
802,13.0,21.0,-7.0,5.0,15.0,3.0,6.0,0.0,1650911090954133.0,1
803,-20.0,35.0,24.0,-16.0,-48.0,-21.0,-20.0,-17.0,1650911090954133.0,1
804,25.0,5.0,-10.0,-5.0,-32.0,-15.0,-1.0,30.0,1650911090954133.0,1
805,3.0,25.0,25.0,8.0,17.0,-1.0,-2.0,-29.0,1650911090954133.0,1
806,-2.0,7.0,12.0,0.0,-21.0,12.0,-7.0,17.0,1650911090977967.0,1
807,18.0,-2.0,-7.0,-8.0,-5.0,-4.0,-5.0,-11.0,1650911090977967.0,1
808,-30.0,8.0,-10.0,-5.0,27.0,5.0,5.0,7.0,1650911090977967.0,1
809,1.0,3.0,10.0,15.0,12.0,-10.0,-1.0,-8.0,1650911090977967.0,1
810,9.0,31.0,8.0,-7.0,-6.0,17.0,4.0,-5.0,1650911090991812.0,1
811,4.0,-15.0,-19.0,0.0,-7.0,-25.0,-2.0,15.0,1650911090991812.0,1
812,-18.0,20.0,12.0,-9.0,-47.0,-12.0,-17.0,-25.0,1650911090991812.0,1
813,-8.0,-27.0,1.0,10.0,26.0,2.0,10.0,42.0,1650911090991812.0,1
814,-20.0,-15.0,-32.0,-5.0,5.0,12.0,-2.0,-61.0,1650911091014380.0,1
815,9.0,-56.0,-27.0,-10.0,3.0,43.0,9.0,19.0,1650911091014380.0,1
816,5.0,0.0,14.0,-7.0,-28.0,-36.0,-6.0,-7.0,1650911091014380.0,1
817,8.0,-9.0,-8.0,0.0,4.0,-3.0,-2.0,10.0,1650911091014380.0,1
818,3.0,13.0,17.0,15.0,-13.0,7.0,-4.0,11.0,1650911091038211.0,1
819,-10.0,-28.0,-44.0,-19.0,-5.0,-16.0,-9.0,-9.0,1650911091038211.0,1
820,-12.0,13.0,13.0,13.0,45.0,26.0,-2.0,-26.0,1650911091038211.0,1
821,11.0,-8.0,-5.0,7.0,40.0,13.0,7.0,13.0,1650911091038211.0,1
822,5.0,-19.0,-9.0,-17.0,-42.0,-25.0,-3.0,-4.0,1650911091052171.0,1
823,8.0,29.0,9.0,6.0,-5.0,-13.0,-9.0,-9.0,1650911091052171.0,1
824,-10.0,-17.0,-8.0,-8.0,-55.0,23.0,0.0,7.0,1650911091052171.0,1
825,13.0,40.0,11.0,13.0,21.0,-25.0,11.0,34.0,1650911091052171.0,1
826,-33.0,11.0,3.0,17.0,70.0,22.0,-3.0,-45.0,1650911091073952.0,1
827,10.0,25.0,18.0,-3.0,-18.0,-2.0,7.0,6.0,1650911091073952.0,1
828,-6.0,15.0,-3.0,-5.0,15.0,-15.0,-2.0,-4.0,1650911091074949.0,1
829,-7.0,-4.0,-3.0,-5.0,-69.0,11.0,-10.0,7.0,1650911091074949.0,1
830,19.0,-25.0,-26.0,-23.0,5.0,-34.0,-4.0,6.0,1650911091097464.0,1
831,-11.0,35.0,52.0,32.0,17.0,40.0,16.0,8.0,1650911091097464.0,1
832,32.0,28.0,14.0,29.0,82.0,32.0,7.0,2.0,1650911091097464.0,1
833,-2.0,42.0,-30.0,-17.0,15.0,-2.0,11.0,10.0,1650911091097464.0,1
834,10.0,1.0,22.0,-3.0,-36.0,-15.0,4.0,30.0,1650911091111938.0,1
835,-19.0,3.0,-5.0,-17.0,-49.0,-30.0,-11.0,-8.0,1650911091111938.0,1
836,0.0,21.0,12.0,1.0,-5.0,-16.0,3.0,6.0,1650911091111938.0,1
837,-15.0,-7.0,17.0,10.0,-1.0,52.0,-5.0,-22.0,1650911091111938.0,1
838,-7.0,-39.0,-28.0,-12.0,-16.0,-49.0,-13.0,4.0,1650911091134371.0,1
839,-11.0,5.0,9.0,-4.0,-6.0,5.0,4.0,-21.0,1650911091134371.0,1
840,12.0,-27.0,-8.0,-8.0,-20.0,13.0,6.0,33.0,1650911091134371.0,1
841,-10.0,-12.0,5.0,17.0,55.0,5.0,-6.0,-20.0,1650911091134371.0,1
842,-20.0,-17.0,-12.0,-2.0,10.0,32.0,2.0,14.0,1650911091157450.0,1
843,0.0,-2.0,6.0,-7.0,-43.0,-20.0,-7.0,-1.0,1650911091157450.0,1
844,0.0,8.0,-2.0,-2.0,5.0,-29.0,-8.0,-13.0,1650911091157450.0,1
845,18.0,-18.0,-21.0,-4.0,-19.0,1.0,0.0,0.0,1650911091157450.0,1
846,-3.0,-1.0,5.0,6.0,4.0,11.0,5.0,-2.0,1650911091172968.0,1
847,6.0,-9.0,-9.0,6.0,29.0,-1.0,9.0,48.0,1650911091172968.0,1
848,1.0,12.0,4.0,4.0,8.0,10.0,1.0,-21.0,1650911091173667.0,1
849,-5.0,-13.0,-24.0,-6.0,-19.0,-7.0,-7.0,6.0,1650911091173667.0,1
850,1.0,13.0,0.0,-12.0,-19.0,-6.0,-7.0,-29.0,1650911091193616.0,1
851,22.0,12.0,3.0,3.0,-1.0,-8.0,-8.0,17.0,1650911091193616.0,1
852,-15.0,-40.0,-3.0,2.0,5.0,11.0,3.0,-12.0,1650911091194615.0,1
853,1.0,11.0,6.0,-14.0,-24.0,-13.0,-7.0,11.0,1650911091194615.0,1
854,-4.0,4.0,5.0,14.0,7.0,-8.0,3.0,-23.0,1650911091216935.0,1
855,-12.0,-24.0,-11.0,7.0,29.0,18.0,0.0,-10.0,1650911091216935.0,1
856,0.0,24.0,12.0,-12.0,14.0,14.0,3.0,2.0,1650911091216935.0,1
857,31.0,4.0,14.0,2.0,-47.0,-9.0,-1.0,-13.0,1650911091216935.0,1
858,3.0,18.0,12.0,18.0,60.0,6.0,10.0,29.0,1650911091233091.0,1
859,4.0,10.0,-9.0,-8.0,-3.0,4.0,-6.0,-40.0,1650911091233091.0,1
860,-11.0,15.0,3.0,5.0,-8.0,-9.0,-1.0,0.0,1650911091233961.0,1
861,-11.0,-9.0,8.0,-7.0,-24.0,-1.0,-2.0,-5.0,1650911091233961.0,1
862,5.0,16.0,3.0,-1.0,8.0,3.0,-1.0,14.0,1650911091254356.0,1
863,4.0,-26.0,-13.0,8.0,-13.0,-19.0,-2.0,-1.0,1650911091254356.0,1
864,16.0,23.0,20.0,9.0,15.0,-9.0,-5.0,-4.0,1650911091254356.0,1
865,-14.0,31.0,-11.0,-23.0,-9.0,-1.0,6.0,6.0,1650911091254356.0,1
866,6.0,-8.0,15.0,-1.0,-60.0,7.0,-13.0,2.0,1650911091276207.0,1
867,1.0,-4.0,-7.0,-3.0,28.0,7.0,1.0,2.0,1650911091276207.0,1
868,15.0,4.0,-4.0,14.0,16.0,2.0,8.0,7.0,1650911091277162.0,1
869,-10.0,-2.0,17.0,11.0,33.0,-9.0,-1.0,-15.0,1650911091277162.0,1
870,-10.0,2.0,-16.0,-19.0,11.0,0.0,11.0,23.0,1650911091292422.0,1
871,7.0,23.0,20.0,-8.0,-64.0,-6.0,-3.0,6.0,1650911091292422.0,1
872,-21.0,-4.0,-5.0,-8.0,-49.0,-22.0,-8.0,3.0,1650911091292547.0,1
873,4.0,-9.0,8.0,17.0,78.0,25.0,4.0,-15.0,1650911091292547.0,1
874,-1.0,-4.0,2.0,-1.0,-2.0,-4.0,8.0,24.0,1650911091314722.0,1
875,8.0,-29.0,-20.0,-13.0,-11.0,19.0,2.0,11.0,1650911091314722.0,1
876,-8.0,6.0,15.0,16.0,23.0,-10.0,-2.0,-23.0,1650911091321880.0,1
877,2.0,8.0,19.0,7.0,15.0,4.0,-4.0,-12.0,1650911091321880.0,1
878,7.0,1.0,-34.0,-21.0,-45.0,-26.0,-9.0,-1.0,1650911091336320.0,1
879,-14.0,-5.0,-7.0,-23.0,-65.0,-41.0,-17.0,-15.0,1650911091336320.0,1
880,31.0,16.0,-4.0,10.0,54.0,35.0,4.0,12.0,1650911091337186.0,1
881,-30.0,-46.0,-7.0,2.0,32.0,-1.0,4.0,9.0,1650911091337186.0,1
882,13.0,-10.0,-2.0,7.0,28.0,22.0,1.0,-22.0,1650911091352173.0,1
883,-34.0,-1.0,3.0,4.0,19.0,-6.0,-1.0,-3.0,1650911091352173.0,1
884,9.0,-10.0,-3.0,-37.0,-76.0,-12.0,-9.0,-1.0,1650911091352173.0,1
885,5.0,-18.0,-7.0,10.0,-19.0,-23.0,-2.0,23.0,1650911091352173.0,1
886,-9.0,0.0,19.0,-7.0,-5.0,-11.0,6.0,2.0,1650911091374441.0,1
887,27.0,13.0,1.0,11.0,18.0,17.0,2.0,56.0,1650911091374441.0,1
888,-9.0,-11.0,1.0,0.0,-24.0,6.0,-8.0,-8.0,1650911091374441.0,1
889,4.0,-7.0,-7.0,12.0,68.0,4.0,5.0,-9.0,1650911091374441.0,1
890,18.0,17.0,22.0,3.0,-8.0,23.0,3.0,-3.0,1650911091396243.0,1
891,-22.0,-1.0,2.0,9.0,30.0,10.0,8.0,-14.0,1650911091396243.0,1
892,3.0,-32.0,-23.0,-14.0,-3.0,2.0,-4.0,-12.0,1650911091397243.0,1
893,8.0,-39.0,-28.0,-22.0,-63.0,-30.0,-5.0,-2.0,1650911091397243.0,1
894,-21.0,-10.0,-12.0,10.0,7.0,-1.0,-15.0,-16.0,1650911091412171.0,1
895,6.0,4.0,-4.0,-11.0,25.0,0.0,13.0,20.0,1650911091412171.0,1
896,-34.0,25.0,1.0,10.0,2.0,28.0,5.0,-3.0,1650911091412171.0,1
897,7.0,24.0,11.0,-4.0,-22.0,-23.0,-7.0,-17.0,1650911091412171.0,1
898,6.0,2.0,-9.0,-10.0,-32.0,-21.0,-14.0,-9.0,1650911091433912.0,1
899,0.0,-22.0,-10.0,0.0,-6.0,14.0,10.0,-2.0,1650911091433912.0,1
900,8.0,30.0,9.0,8.0,35.0,6.0,8.0,15.0,1650911091434912.0,1
901,2.0,8.0,-1.0,-11.0,-33.0,22.0,1.0,11.0,1650911091434912.0,1
902,9.0,10.0,16.0,26.0,21.0,-10.0,-2.0,18.0,1650911091456936.0,1
903,18.0,35.0,25.0,0.0,18.0,-1.0,-7.0,-16.0,1650911091456936.0,1
904,-8.0,-41.0,-44.0,-22.0,-10.0,-8.0,3.0,13.0,1650911091456936.0,1
905,-5.0,-18.0,0.0,0.0,-39.0,-16.0,-13.0,-19.0,1650911091456936.0,1
906,-11.0,-4.0,-2.0,2.0,20.0,8.0,7.0,5.0,1650911091472252.0,1
907,5.0,-14.0,-1.0,4.0,18.0,-1.0,-1.0,-2.0,1650911091472252.0,1
908,5.0,-16.0,-8.0,9.0,-3.0,-3.0,5.0,8.0,1650911091472252.0,1
909,5.0,8.0,-3.0,-7.0,10.0,15.0,-4.0,-15.0,1650911091472252.0,1
910,-21.0,-27.0,-5.0,1.0,-13.0,1.0,-2.0,-12.0,1650911091494588.0,1
911,2.0,-3.0,-8.0,-4.0,7.0,-10.0,-6.0,-24.0,1650911091494588.0,1
912,4.0,-6.0,13.0,2.0,-5.0,0.0,1.0,10.0,1650911091494588.0,1
913,1.0,13.0,11.0,11.0,20.0,11.0,6.0,14.0,1650911091494588.0,1
914,-2.0,-21.0,-7.0,-12.0,-2.0,1.0,1.0,-6.0,1650911091516430.0,1
915,-21.0,4.0,2.0,2.0,-26.0,-13.0,-12.0,5.0,1650911091516430.0,1
916,6.0,-8.0,-9.0,-6.0,-25.0,-17.0,0.0,11.0,1650911091517430.0,1
917,14.0,17.0,10.0,17.0,31.0,16.0,9.0,-9.0,1650911091517430.0,1
918,4.0,-23.0,2.0,-6.0,15.0,22.0,1.0,-12.0,1650911091532014.0,1
919,4.0,6.0,-1.0,-10.0,-33.0,-24.0,7.0,40.0,1650911091532014.0,1
920,-4.0,-20.0,10.0,20.0,0.0,-27.0,-10.0,-11.0,1650911091532014.0,1
921,-30.0,-4.0,-26.0,-23.0,36.0,13.0,5.0,11.0,1650911091532014.0,1
922,37.0,48.0,19.0,18.0,9.0,11.0,7.0,11.0,1650911091554414.0,1
923,-19.0,-20.0,-15.0,-2.0,6.0,19.0,-4.0,-26.0,1650911091554414.0,1
924,-15.0,28.0,29.0,-6.0,-13.0,-3.0,-1.0,2.0,1650911091554414.0,1
925,-18.0,-28.0,-6.0,-18.0,-69.0,-50.0,-15.0,-15.0,1650911091554414.0,1
926,19.0,57.0,4.0,-1.0,-2.0,-7.0,-3.0,-2.0,1650911091576993.0,1
927,2.0,-10.0,7.0,5.0,26.0,27.0,12.0,17.0,1650911091576993.0,1
928,14.0,32.0,17.0,12.0,20.0,18.0,2.0,0.0,1650911091576993.0,1
929,-5.0,-4.0,-23.0,-21.0,-50.0,-15.0,-3.0,1.0,1650911091576993.0,1
930,-3.0,0.0,16.0,19.0,19.0,2.0,-5.0,1.0,1650911091592134.0,1
931,12.0,24.0,11.0,19.0,45.0,52.0,-5.0,-15.0,1650911091592134.0,1
932,2.0,-42.0,-57.0,-15.0,28.0,-30.0,1.0,5.0,1650911091592134.0,1
933,5.0,15.0,10.0,3.0,-7.0,16.0,-4.0,-1.0,1650911091592134.0,1
934,0.0,-6.0,-6.0,-29.0,-64.0,-30.0,-3.0,-9.0,1650911091614406.0,1
935,6.0,-28.0,-37.0,-10.0,-4.0,-9.0,7.0,0.0,1650911091614406.0,1
936,-4.0,12.0,11.0,1.0,-4.0,12.0,-6.0,5.0,1650911091614406.0,1
937,-6.0,-2.0,16.0,11.0,-2.0,-2.0,-13.0,-28.0,1650911091614406.0,1
938,-6.0,6.0,-4.0,-14.0,-19.0,0.0,17.0,3.0,1650911091636769.0,1
939,-3.0,-27.0,-14.0,17.0,23.0,-13.0,-13.0,-20.0,1650911091636769.0,1
940,3.0,-11.0,-1.0,-45.0,-12.0,12.0,5.0,-3.0,1650911091636769.0,1
941,7.0,18.0,4.0,27.0,24.0,3.0,3.0,10.0,1650911091636769.0,1
942,-39.0,-48.0,-19.0,-9.0,0.0,11.0,-14.0,-45.0,1650911091652459.0,1
943,24.0,7.0,-8.0,-8.0,-21.0,-10.0,7.0,18.0,1650911091652459.0,1
944,20.0,15.0,7.0,12.0,-11.0,-28.0,-3.0,9.0,1650911091652459.0,1
945,-5.0,-6.0,-14.0,-5.0,22.0,20.0,7.0,-16.0,1650911091652459.0,1
946,3.0,6.0,8.0,-4.0,0.0,0.0,0.0,30.0,1650911091674493.0,1
947,-41.0,-10.0,10.0,-7.0,-8.0,-5.0,-3.0,11.0,1650911091674493.0,1
948,-9.0,-18.0,-13.0,3.0,-17.0,-21.0,-8.0,-24.0,1650911091674493.0,1
949,10.0,26.0,9.0,4.0,4.0,19.0,15.0,23.0,1650911091674493.0,1
950,15.0,-19.0,-21.0,9.0,16.0,-7.0,8.0,15.0,1650911091696160.0,1
951,24.0,9.0,14.0,-1.0,3.0,4.0,2.0,-20.0,1650911091696160.0,1
952,-13.0,-3.0,4.0,10.0,-17.0,9.0,-3.0,33.0,1650911091696993.0,1
953,9.0,-3.0,0.0,11.0,47.0,-8.0,11.0,0.0,1650911091696993.0,1
954,-9.0,0.0,-17.0,-6.0,10.0,9.0,7.0,29.0,1650911091711177.0,1
955,-14.0,29.0,28.0,-5.0,-11.0,-9.0,-4.0,2.0,1650911091711177.0,1
956,1.0,-24.0,-11.0,-13.0,-12.0,3.0,-1.0,-18.0,1650911091719000.0,1
957,24.0,24.0,-5.0,-4.0,-51.0,-13.0,-5.0,15.0,1650911091719000.0,1
958,-5.0,3.0,1.0,11.0,36.0,17.0,-2.0,-12.0,1650911091734013.0,1
959,22.0,21.0,-13.0,-13.0,-6.0,-17.0,-2.0,4.0,1650911091734013.0,1
960,5.0,67.0,13.0,14.0,-10.0,-5.0,-4.0,-6.0,1650911091741994.0,1
961,-13.0,12.0,17.0,-5.0,-8.0,-7.0,-8.0,-6.0,1650911091741994.0,1
962,1.0,2.0,13.0,11.0,14.0,3.0,12.0,10.0,1650911091757315.0,1
963,13.0,-7.0,7.0,4.0,14.0,24.0,13.0,8.0,1650911091757315.0,1
964,7.0,-6.0,-4.0,0.0,23.0,-7.0,7.0,3.0,1650911091757315.0,1
965,1.0,-13.0,-6.0,-15.0,-27.0,-17.0,-15.0,-7.0,1650911091757315.0,1
966,4.0,15.0,10.0,3.0,-38.0,-13.0,-10.0,-11.0,1650911091771809.0,1
967,-9.0,-13.0,1.0,15.0,41.0,18.0,1.0,-10.0,1650911091771809.0,1
968,-8.0,-13.0,-5.0,5.0,26.0,24.0,0.0,3.0,1650911091778837.0,1
969,-4.0,-3.0,0.0,-8.0,-2.0,2.0,13.0,3.0,1650911091778837.0,1
970,-4.0,-21.0,-5.0,-6.0,-15.0,-12.0,-11.0,-3.0,1650911091794763.0,1
971,-10.0,-3.0,-5.0,-10.0,-37.0,-28.0,-12.0,-11.0,1650911091794763.0,1
972,-2.0,-11.0,-1.0,-11.0,-18.0,-1.0,-3.0,-4.0,1650911091794763.0,1
973,-2.0,-16.0,-4.0,6.0,7.0,-6.0,-8.0,-6.0,1650911091794763.0,1
974,2.0,-1.0,4.0,7.0,18.0,18.0,3.0,1.0,1650911091816509.0,1
975,0.0,1.0,2.0,6.0,9.0,6.0,-1.0,-3.0,1650911091816509.0,1
976,-1.0,4.0,5.0,-1.0,7.0,6.0,8.0,-3.0,1650911091817343.0,1
977,-3.0,-11.0,0.0,-5.0,-6.0,1.0,1.0,0.0,1650911091817343.0,1
978,-2.0,-4.0,-6.0,-11.0,-15.0,-21.0,-22.0,-1.0,1650911091830308.0,1
979,-1.0,3.0,4.0,3.0,-22.0,-4.0,10.0,-4.0,1650911091830308.0,1
980,-5.0,-12.0,1.0,6.0,24.0,7.0,-2.0,-4.0,1650911091839585.0,1
981,-5.0,-1.0,-5.0,1.0,14.0,9.0,-1.0,1.0,1650911091839585.0,1
982,0.0,-1.0,3.0,1.0,5.0,4.0,-3.0,1.0,1650911091854307.0,1
983,0.0,1.0,0.0,-2.0,-4.0,-4.0,2.0,-3.0,1650911091854307.0,1
984,-4.0,-6.0,-6.0,-2.0,-19.0,-9.0,-11.0,-5.0,1650911091854307.0,1
985,-1.0,-7.0,-3.0,-6.0,-12.0,-3.0,-4.0,1.0,1650911091854307.0,1
986,2.0,1.0,-1.0,-1.0,11.0,-6.0,16.0,-2.0,1650911091877099.0,1
987,-5.0,0.0,-5.0,-11.0,-5.0,-2.0,-1.0,-1.0,1650911091877099.0,1
988,-2.0,-4.0,4.0,4.0,-1.0,-2.0,-5.0,-3.0,1650911091877099.0,1
989,0.0,0.0,3.0,4.0,13.0,9.0,10.0,-1.0,1650911091877099.0,1
990,-1.0,-7.0,-9.0,-6.0,-6.0,0.0,-5.0,1.0,1650911091900351.0,1
991,-2.0,-3.0,-9.0,-2.0,2.0,-5.0,-3.0,-4.0,1650911091900351.0,1
992,3.0,-1.0,-3.0,2.0,9.0,9.0,6.0,4.0,1650911091900351.0,1
993,-1.0,1.0,6.0,3.0,-2.0,-6.0,-7.0,-2.0,1650911091900351.0,1
994,1.0,-2.0,-2.0,2.0,-5.0,1.0,5.0,2.0,1650911091914354.0,1
995,-2.0,1.0,5.0,-2.0,-7.0,-8.0,-5.0,-5.0,1650911091914354.0,1
996,1.0,2.0,2.0,1.0,-1.0,6.0,-1.0,1.0,1650911091914354.0,1
997,0.0,-4.0,-5.0,7.0,-1.0,7.0,4.0,1.0,1650911091914354.0,1
998,1.0,-3.0,-4.0,0.0,11.0,-2.0,3.0,1.0,1650911091936008.0,1
999,-8.0,-2.0,-3.0,-8.0,6.0,-2.0,-7.0,-7.0,1650911091936008.0,1
1000,5.0,3.0,9.0,4.0,-3.0,-7.0,4.0,3.0,1650911091936871.0,1
1001,0.0,-17.0,-10.0,-7.0,-31.0,-7.0,-4.0,-2.0,1650911091936871.0,1
1002,-14.0,-5.0,-5.0,-1.0,1.0,10.0,-1.0,1.0,1650911091950866.0,1
1003,2.0,1.0,12.0,9.0,-2.0,0.0,-2.0,0.0,1650911091950866.0,1
1004,1.0,2.0,1.0,0.0,-2.0,20.0,4.0,0.0,1650911091960013.0,1
1005,-2.0,-4.0,-12.0,-11.0,-2.0,-6.0,-2.0,-2.0,1650911091960013.0,1
1006,3.0,7.0,11.0,-9.0,-11.0,-24.0,-3.0,-2.0,1650911091973906.0,1
1007,-4.0,-11.0,-12.0,0.0,-13.0,-6.0,-2.0,-3.0,1650911091973906.0,1
1008,0.0,0.0,9.0,11.0,34.0,8.0,3.0,-1.0,1650911091974941.0,1
1009,4.0,6.0,4.0,12.0,32.0,26.0,5.0,3.0,1650911091974941.0,1
1010,-4.0,-9.0,-2.0,4.0,-15.0,7.0,-1.0,-2.0,1650911091996527.0,1
1011,0.0,4.0,-5.0,-8.0,-3.0,-6.0,3.0,1.0,1650911091996527.0,1
1012,-3.0,-6.0,-25.0,-25.0,-26.0,-23.0,-7.0,-4.0,1650911091997560.0,1
1013,-2.0,6.0,15.0,2.0,3.0,-7.0,-5.0,-3.0,1650911091997560.0,1
1014,6.0,7.0,17.0,18.0,6.0,7.0,5.0,2.0,1650911092011171.0,1
1015,3.0,1.0,-1.0,8.0,12.0,6.0,-2.0,3.0,1650911092011171.0,1
1016,-5.0,-5.0,-9.0,-13.0,-11.0,-8.0,-4.0,-1.0,1650911092020008.0,1
1017,-3.0,-3.0,-11.0,-13.0,-26.0,-13.0,1.0,-5.0,1650911092020008.0,1
1018,3.0,2.0,12.0,13.0,22.0,10.0,2.0,2.0,1650911092034576.0,1
1019,12.0,8.0,21.0,25.0,36.0,26.0,6.0,4.0,1650911092034576.0,1
1020,-6.0,-7.0,-20.0,1.0,-1.0,-2.0,1.0,1.0,1650911092034576.0,1
1021,-4.0,-6.0,-19.0,-23.0,-11.0,-10.0,-3.0,-3.0,1650911092034576.0,1
1022,-2.0,-3.0,6.0,-14.0,-34.0,-19.0,-10.0,-6.0,1650911092057193.0,1
1023,-2.0,1.0,-3.0,-1.0,-3.0,-3.0,-7.0,-2.0,1650911092057193.0,1
1024,2.0,6.0,17.0,15.0,-15.0,-6.0,5.0,1.0,1650911092057193.0,1
1025,-4.0,-4.0,2.0,4.0,18.0,1.0,-1.0,1.0,1650911092057193.0,1
1026,4.0,2.0,-5.0,0.0,4.0,1.0,3.0,1.0,1650911092079985.0,1
1027,-5.0,-2.0,5.0,-8.0,-5.0,0.0,-2.0,0.0,1650911092079985.0,1
1028,-1.0,-4.0,-4.0,-3.0,5.0,5.0,1.0,-3.0,1650911092079985.0,1
1029,2.0,2.0,5.0,6.0,-4.0,-4.0,-2.0,3.0,1650911092079985.0,1
1030,-1.0,-1.0,-8.0,2.0,2.0,12.0,0.0,2.0,1650911092094293.0,1
1031,-5.0,-3.0,-4.0,-1.0,-4.0,-3.0,1.0,-1.0,1650911092094293.0,1
1032,-7.0,1.0,-1.0,-9.0,-15.0,-11.0,-3.0,-4.0,1650911092094293.0,1
1033,0.0,-1.0,-14.0,-1.0,4.0,0.0,-1.0,-1.0,1650911092094293.0,1
1034,-1.0,-4.0,-19.0,-15.0,16.0,-2.0,-1.0,2.0,1650911092117320.0,1
1035,1.0,-1.0,1.0,1.0,-20.0,-3.0,0.0,0.0,1650911092117320.0,1
1036,1.0,2.0,18.0,16.0,24.0,9.0,2.0,1.0,1650911092117320.0,1
1037,0.0,1.0,7.0,3.0,7.0,4.0,2.0,-1.0,1650911092117320.0,1
1038,-1.0,1.0,-9.0,-8.0,-16.0,9.0,1.0,-1.0,1650911092139356.0,1
1039,-3.0,0.0,-8.0,-8.0,-13.0,-21.0,-2.0,-3.0,1650911092139356.0,1
1040,2.0,-1.0,3.0,0.0,-10.0,0.0,-4.0,0.0,1650911092140321.0,1
1041,1.0,0.0,-4.0,7.0,8.0,-5.0,-1.0,1.0,1650911092140321.0,1
1042,1.0,2.0,7.0,2.0,15.0,14.0,0.0,1.0,1650911092155277.0,1
1043,-1.0,1.0,-1.0,-3.0,4.0,7.0,6.0,0.0,1650911092155277.0,1
1044,2.0,3.0,6.0,6.0,-16.0,-6.0,-2.0,-2.0,1650911092156308.0,1
1045,0.0,-2.0,5.0,-3.0,3.0,2.0,1.0,-1.0,1650911092156308.0,1
1046,0.0,1.0,0.0,4.0,12.0,0.0,1.0,1.0,1650911092176943.0,1
1047,0.0,3.0,-1.0,-2.0,-6.0,3.0,-1.0,2.0,1650911092176943.0,1
1048,-4.0,-4.0,1.0,-3.0,-9.0,-6.0,-1.0,-3.0,1650911092176943.0,1
1049,-2.0,-1.0,0.0,-4.0,-11.0,-1.0,-3.0,0.0,1650911092176943.0,1
1050,9.0,-1.0,-8.0,-2.0,15.0,-2.0,1.0,-2.0,1650911092199339.0,0
1051,-14.0,-4.0,-2.0,1.0,5.0,6.0,2.0,0.0,1650911092199339.0,0
1052,2.0,0.0,9.0,3.0,4.0,8.0,-2.0,1.0,1650911092200335.0,0
1053,1.0,0.0,4.0,0.0,-5.0,-14.0,-1.0,1.0,1650911092200335.0,0
1054,-1.0,2.0,0.0,-2.0,-21.0,-2.0,-2.0,-1.0,1650911092213786.0,0
1055,2.0,-4.0,-4.0,0.0,12.0,-9.0,-3.0,-2.0,1650911092213786.0,0
1056,0.0,0.0,-2.0,-1.0,0.0,8.0,3.0,0.0,1650911092214783.0,0
1057,0.0,3.0,3.0,3.0,19.0,8.0,1.0,0.0,1650911092214783.0,0
1058,-3.0,-2.0,-4.0,-2.0,-1.0,0.0,1.0,0.0,1650911092236058.0,0
1059,3.0,0.0,2.0,-2.0,-7.0,-7.0,-4.0,-1.0,1650911092236058.0,0
1060,-4.0,-1.0,-5.0,-7.0,-8.0,-5.0,-1.0,0.0,1650911092237058.0,0
1061,-1.0,1.0,6.0,2.0,-2.0,8.0,0.0,0.0,1650911092237058.0,0
1062,-2.0,1.0,1.0,4.0,19.0,-11.0,-2.0,-1.0,1650911092260018.0,0
1063,3.0,3.0,1.0,2.0,-3.0,7.0,-1.0,0.0,1650911092260018.0,0
1064,1.0,0.0,0.0,2.0,22.0,11.0,2.0,-1.0,1650911092260018.0,0
1065,-1.0,0.0,1.0,-3.0,-20.0,3.0,-1.0,0.0,1650911092260018.0,0
1066,-4.0,-3.0,-13.0,-11.0,-34.0,-23.0,-6.0,-1.0,1650911092274165.0,0
1067,-2.0,-5.0,3.0,0.0,13.0,-12.0,-1.0,-3.0,1650911092274165.0,0
1068,0.0,2.0,6.0,7.0,30.0,15.0,3.0,1.0,1650911092274165.0,0
1069,2.0,1.0,2.0,6.0,15.0,6.0,3.0,2.0,1650911092274165.0,0
1070,-1.0,3.0,10.0,3.0,-14.0,5.0,-1.0,0.0,1650911092296451.0,0
1071,2.0,0.0,-9.0,-11.0,-22.0,-6.0,-3.0,-3.0,1650911092296451.0,0
1072,-2.0,-4.0,-2.0,-3.0,-6.0,-7.0,-2.0,-2.0,1650911092297457.0,0
1073,-3.0,-5.0,-4.0,2.0,11.0,0.0,-2.0,0.0,1650911092297457.0,0
1074,-2.0,1.0,7.0,6.0,1.0,3.0,2.0,-1.0,1650911092319770.0,0
1075,1.0,2.0,-7.0,0.0,9.0,2.0,1.0,1.0,1650911092319770.0,0
1076,0.0,-2.0,-8.0,-11.0,-11.0,1.0,-2.0,-1.0,1650911092320771.0,0
1077,-4.0,-2.0,-1.0,-2.0,-16.0,-5.0,-3.0,-4.0,1650911092320771.0,0
1078,1.0,-1.0,7.0,5.0,21.0,1.0,2.0,0.0,1650911092334081.0,0
1079,-1.0,-3.0,-5.0,0.0,-1.0,2.0,-1.0,-2.0,1650911092334081.0,0
1080,4.0,0.0,-5.0,-1.0,0.0,1.0,1.0,2.0,1650911092334782.0,0
1081,-4.0,6.0,7.0,-6.0,-21.0,1.0,-3.0,-2.0,1650911092334782.0,0
1082,-1.0,-3.0,-1.0,3.0,4.0,-16.0,-3.0,-1.0,1650911092357325.0,0
1083,0.0,2.0,8.0,8.0,14.0,18.0,3.0,1.0,1650911092357325.0,0
1084,2.0,2.0,0.0,2.0,9.0,4.0,2.0,2.0,1650911092357325.0,0
1085,0.0,-7.0,-15.0,-16.0,-9.0,2.0,-3.0,0.0,1650911092357325.0,0
1086,-3.0,-5.0,-2.0,-3.0,-14.0,-18.0,0.0,-2.0,1650911092379314.0,0
1087,2.0,1.0,3.0,3.0,1.0,1.0,1.0,0.0,1650911092379314.0,0
1088,-2.0,0.0,-1.0,-1.0,-2.0,-7.0,-1.0,-2.0,1650911092380150.0,0
1089,4.0,1.0,5.0,7.0,8.0,6.0,1.0,2.0,1650911092380150.0,0
1090,-3.0,-2.0,-3.0,-3.0,-9.0,8.0,0.0,-1.0,1650911092394645.0,0
1091,0.0,-3.0,-11.0,-4.0,-9.0,-10.0,-3.0,0.0,1650911092394645.0,0
1092,-3.0,-3.0,-5.0,-6.0,-10.0,-5.0,-1.0,-1.0,1650911092394645.0,0
1093,3.0,2.0,4.0,10.0,19.0,4.0,3.0,0.0,1650911092394645.0,0
1094,-2.0,-3.0,-11.0,-9.0,8.0,13.0,1.0,0.0,1650911092417026.0,0
1095,1.0,1.0,6.0,0.0,-8.0,6.0,0.0,-1.0,1650911092417026.0,0
1096,0.0,-1.0,-2.0,-3.0,-4.0,-23.0,-2.0,-2.0,1650911092417026.0,0
1097,0.0,-5.0,-5.0,1.0,-1.0,0.0,-1.0,-1.0,1650911092417026.0,0
1098,0.0,4.0,8.0,9.0,17.0,8.0,1.0,1.0,1650911092439986.0,0
1099,-1.0,2.0,0.0,-3.0,-5.0,0.0,2.0,-1.0,1650911092439986.0,0
1100,-2.0,-5.0,-4.0,-3.0,-13.0,-1.0,-3.0,0.0,1650911092439986.0,0
1101,0.0,2.0,-8.0,-5.0,1.0,-8.0,-1.0,-2.0,1650911092439986.0,0
1102,0.0,2.0,2.0,-6.0,-15.0,1.0,0.0,0.0,1650911092454403.0,0
1103,-2.0,-1.0,5.0,6.0,7.0,-4.0,-2.0,1.0,1650911092454403.0,0
1104,-3.0,-1.0,-6.0,-2.0,4.0,1.0,-1.0,-1.0,1650911092454403.0,0
1105,0.0,-1.0,6.0,6.0,2.0,1.0,1.0,-2.0,1650911092454403.0,0
1106,-1.0,-1.0,-20.0,-11.0,-8.0,6.0,1.0,-2.0,1650911092476701.0,0
1107,2.0,2.0,1.0,-2.0,-6.0,-14.0,-3.0,1.0,1650911092476701.0,0
1108,1.0,-1.0,0.0,-3.0,-36.0,-20.0,-5.0,-1.0,1650911092476701.0,0
1109,-2.0,-1.0,6.0,9.0,18.0,21.0,3.0,-1.0,1650911092476701.0,0
1110,0.0,1.0,5.0,4.0,30.0,4.0,5.0,2.0,1650911092499994.0,0
1111,-2.0,-3.0,-6.0,-4.0,-5.0,1.0,1.0,-2.0,1650911092499994.0,0
1112,-3.0,0.0,1.0,1.0,8.0,1.0,-2.0,0.0,1650911092500828.0,0
1113,-2.0,-1.0,-4.0,-7.0,-22.0,-17.0,-6.0,-3.0,1650911092500828.0,0
1114,1.0,-1.0,5.0,2.0,-22.0,1.0,-3.0,-1.0,1650911092514381.0,0
1115,-3.0,-4.0,-5.0,3.0,16.0,11.0,3.0,0.0,1650911092514381.0,0
1116,2.0,2.0,12.0,11.0,23.0,7.0,5.0,1.0,1650911092514381.0,0
1117,-1.0,0.0,-8.0,-12.0,-16.0,-8.0,-2.0,1.0,1650911092514381.0,0
1118,-1.0,-3.0,-12.0,-3.0,-8.0,-15.0,-5.0,-1.0,1650911092536094.0,0
1119,0.0,2.0,5.0,2.0,-6.0,-1.0,-3.0,0.0,1650911092536094.0,0
1120,-3.0,-5.0,-4.0,-3.0,4.0,10.0,1.0,-1.0,1650911092536959.0,0
1121,0.0,0.0,5.0,-3.0,-10.0,-4.0,0.0,1.0,1650911092536959.0,0
1122,-1.0,1.0,4.0,4.0,1.0,-3.0,-1.0,-1.0,1650911092559837.0,0
1123,0.0,0.0,5.0,1.0,20.0,36.0,4.0,-1.0,1650911092559837.0,0
1124,-1.0,1.0,-8.0,1.0,-7.0,-18.0,2.0,-1.0,1650911092559837.0,0
1125,-1.0,-1.0,1.0,2.0,8.0,13.0,1.0,0.0,1650911092559837.0,0
1126,-2.0,-2.0,-2.0,-6.0,-14.0,-16.0,-1.0,1.0,1650911092574476.0,0
1127,2.0,0.0,-1.0,-4.0,-22.0,-8.0,-5.0,-3.0,1650911092574476.0,0
1128,-2.0,-5.0,-1.0,-4.0,13.0,6.0,-3.0,-1.0,1650911092574476.0,0
1129,0.0,0.0,-3.0,2.0,-13.0,-2.0,0.0,0.0,1650911092574476.0,0
1130,1.0,-2.0,7.0,5.0,6.0,15.0,1.0,-1.0,1650911092595988.0,0
1131,3.0,2.0,2.0,8.0,27.0,4.0,5.0,2.0,1650911092595988.0,0
1132,2.0,-1.0,-3.0,-4.0,3.0,-1.0,0.0,-1.0,1650911092596965.0,0
1133,-2.0,-2.0,-2.0,-7.0,-17.0,-23.0,-5.0,-2.0,1650911092596965.0,0
1134,-2.0,-2.0,1.0,1.0,0.0,5.0,-3.0,-1.0,1650911092620029.0,0
1135,-1.0,0.0,-6.0,-4.0,-11.0,-12.0,-3.0,0.0,1650911092620029.0,0
1136,2.0,-1.0,-1.0,1.0,13.0,19.0,3.0,0.0,1650911092620029.0,0
1137,-1.0,1.0,-1.0,-3.0,-4.0,1.0,-1.0,0.0,1650911092620029.0,0
1138,0.0,4.0,7.0,3.0,-5.0,-8.0,2.0,1.0,1650911092634022.0,0
1139,-2.0,-2.0,-5.0,-2.0,13.0,-5.0,-2.0,0.0,1650911092634022.0,0
1140,0.0,1.0,0.0,1.0,-2.0,7.0,0.0,1.0,1650911092641995.0,0
1141,1.0,1.0,0.0,5.0,12.0,4.0,-1.0,0.0,1650911092641995.0,0
1142,-1.0,2.0,1.0,-3.0,-3.0,2.0,-1.0,-1.0,1650911092665477.0,0
1143,-2.0,-3.0,-3.0,-7.0,-22.0,-2.0,-3.0,-1.0,1650911092665477.0,0
1144,-2.0,0.0,4.0,-1.0,-1.0,-9.0,-1.0,-2.0,1650911092665477.0,0
1145,-1.0,-5.0,-6.0,-1.0,14.0,6.0,3.0,2.0,1650911092665477.0,0
1146,0.0,-1.0,-1.0,-3.0,-5.0,-4.0,-3.0,-1.0,1650911092679632.0,0
1147,-2.0,-2.0,3.0,1.0,-2.0,-10.0,-2.0,1.0,1650911092679632.0,0
1148,1.0,0.0,0.0,-1.0,-11.0,1.0,-1.0,0.0,1650911092680630.0,0
1149,-1.0,0.0,1.0,1.0,10.0,0.0,1.0,0.0,1650911092680630.0,0
1150,0.0,-1.0,1.0,3.0,11.0,3.0,3.0,0.0,1650911092693176.0,0
1151,2.0,1.0,3.0,2.0,-1.0,-6.0,-1.0,0.0,1650911092693176.0,0
1152,-1.0,-1.0,-4.0,-4.0,-10.0,5.0,-1.0,-3.0,1650911092702155.0,0
1153,0.0,0.0,-11.0,-5.0,-9.0,-21.0,-5.0,-3.0,1650911092702155.0,0
1154,1.0,-3.0,4.0,4.0,-13.0,5.0,1.0,2.0,1650911092717116.0,0
1155,-1.0,0.0,2.0,0.0,24.0,12.0,3.0,0.0,1650911092717116.0,0
1156,1.0,3.0,2.0,6.0,15.0,8.0,3.0,2.0,1650911092717116.0,0
1157,-1.0,0.0,-5.0,-1.0,-1.0,4.0,1.0,-1.0,1650911092717116.0,0
1158,0.0,1.0,0.0,-4.0,-5.0,-2.0,-1.0,0.0,1650911092740038.0,0
1159,-1.0,0.0,-1.0,-4.0,-13.0,-18.0,-4.0,-3.0,1650911092740038.0,0
1160,0.0,-2.0,-2.0,-1.0,2.0,1.0,-1.0,0.0,1650911092740038.0,0
1161,1.0,-1.0,3.0,2.0,9.0,4.0,1.0,-2.0,1650911092740038.0,0
1162,0.0,-1.0,-1.0,2.0,-3.0,6.0,0.0,0.0,1650911092753709.0,0
1163,-1.0,0.0,-7.0,-12.0,-9.0,-16.0,0.0,-1.0,1650911092753709.0,0
1164,0.0,0.0,0.0,0.0,-18.0,-10.0,-2.0,0.0,1650911092762173.0,0
1165,-1.0,-3.0,1.0,5.0,3.0,-2.0,-1.0,1.0,1650911092762173.0,0
1166,-2.0,-1.0,0.0,2.0,9.0,5.0,0.0,-1.0,1650911092777155.0,0
1167,-3.0,-4.0,-2.0,0.0,6.0,5.0,0.0,0.0,1650911092777155.0,0
1168,0.0,-1.0,-1.0,-2.0,-8.0,0.0,-2.0,-2.0,1650911092777155.0,0
1169,-2.0,-2.0,-1.0,-4.0,-7.0,4.0,2.0,0.0,1650911092777155.0,0
1170,2.0,0.0,-3.0,6.0,9.0,-4.0,1.0,0.0,1650911092800635.0,0
1171,0.0,-1.0,0.0,1.0,6.0,4.0,-1.0,-1.0,1650911092800635.0,0
1172,-3.0,-1.0,-13.0,-5.0,-6.0,-7.0,-1.0,0.0,1650911092800635.0,0
1173,2.0,3.0,7.0,3.0,-2.0,2.0,-1.0,0.0,1650911092800635.0,0
1174,1.0,-3.0,-3.0,-5.0,-1.0,-1.0,0.0,0.0,1650911092813441.0,0
1175,-1.0,-1.0,-2.0,-3.0,-8.0,0.0,-1.0,0.0,1650911092813441.0,0
1176,0.0,-1.0,3.0,5.0,-1.0,9.0,-1.0,0.0,1650911092821621.0,0
1177,-1.0,-1.0,0.0,3.0,14.0,8.0,3.0,1.0,1650911092821621.0,0
1178,-1.0,0.0,0.0,-2.0,-1.0,-5.0,1.0,-3.0,1650911092837196.0,0
1179,0.0,0.0,0.0,1.0,-12.0,-8.0,0.0,-1.0,1650911092837196.0,0
1180,-1.0,-1.0,0.0,-5.0,0.0,-3.0,-2.0,-2.0,1650911092837196.0,0
1181,0.0,-1.0,-3.0,-3.0,-20.0,-14.0,-4.0,-1.0,1650911092837196.0,0
1182,2.0,-2.0,4.0,7.0,30.0,18.0,2.0,1.0,1650911092860240.0,0
1183,0.0,1.0,1.0,1.0,-5.0,-3.0,1.0,1.0,1650911092860240.0,0
1184,3.0,0.0,2.0,0.0,9.0,-7.0,-1.0,-2.0,1650911092860240.0,0
1185,-1.0,-2.0,3.0,5.0,-1.0,9.0,0.0,1.0,1650911092860240.0,0
1186,-3.0,-1.0,-7.0,-8.0,0.0,-8.0,-2.0,1.0,1650911092874157.0,0
1187,-2.0,-2.0,1.0,1.0,-9.0,4.0,-1.0,-3.0,1650911092874157.0,0
1188,-2.0,-2.0,3.0,0.0,1.0,-2.0,2.0,-1.0,1650911092881677.0,0
1189,-1.0,2.0,1.0,-1.0,4.0,6.0,1.0,-1.0,1650911092881677.0,0
1190,-1.0,0.0,-2.0,-8.0,-11.0,-4.0,0.0,0.0,1650911092896358.0,0
1191,1.0,-1.0,-4.0,-1.0,-1.0,-3.0,-2.0,-2.0,1650911092896358.0,0
1192,0.0,-2.0,0.0,3.0,-1.0,-4.0,-2.0,-3.0,1650911092897355.0,0
1193,2.0,1.0,2.0,3.0,13.0,2.0,3.0,1.0,1650911092897355.0,0
1194,-3.0,2.0,-2.0,-3.0,-12.0,2.0,-3.0,-1.0,1650911092919722.0,0
1195,0.0,-2.0,0.0,-2.0,-8.0,-12.0,-2.0,-1.0,1650911092919722.0,0
1196,-2.0,0.0,1.0,0.0,0.0,2.0,0.0,1.0,1650911092920587.0,0
1197,4.0,1.0,1.0,-2.0,-8.0,-3.0,0.0,-1.0,1650911092920587.0,0
1198,1.0,-3.0,0.0,2.0,14.0,0.0,1.0,-1.0,1650911092934333.0,0
1199,0.0,1.0,2.0,4.0,15.0,8.0,2.0,1.0,1650911092934333.0,0
1200,0.0,-1.0,-3.0,0.0,-8.0,-3.0,1.0,2.0,1650911092941711.0,0
1201,-4.0,-4.0,-6.0,-6.0,-10.0,-6.0,-3.0,-1.0,1650911092941711.0,0
1202,-2.0,-3.0,-3.0,-5.0,-21.0,-16.0,-6.0,-3.0,1650911092956782.0,0
1203,1.0,-2.0,3.0,-1.0,-10.0,9.0,-2.0,1.0,1650911092956782.0,0
1204,0.0,-1.0,-3.0,2.0,20.0,13.0,1.0,0.0,1650911092956782.0,0
1205,1.0,2.0,2.0,4.0,8.0,5.0,2.0,1.0,1650911092956782.0,0
1206,0.0,0.0,2.0,2.0,-3.0,0.0,0.0,-1.0,1650911092979857.0,0
1207,-2.0,-3.0,-5.0,2.0,9.0,0.0,-1.0,-2.0,1650911092979857.0,0
1208,-1.0,-3.0,-10.0,-12.0,-15.0,3.0,-4.0,-3.0,1650911092986156.0,0
1209,-4.0,-4.0,-1.0,-2.0,-17.0,-27.0,-5.0,-3.0,1650911092986156.0,0
1210,-1.0,-1.0,-11.0,1.0,5.0,2.0,3.0,1.0,1650911093002270.0,0
1211,2.0,4.0,8.0,7.0,12.0,9.0,5.0,5.0,1650911093002270.0,0
1212,1.0,3.0,0.0,-2.0,-2.0,1.0,1.0,1.0,1650911093003304.0,0
1213,0.0,-2.0,-4.0,-4.0,2.0,5.0,-1.0,-1.0,1650911093003304.0,0
1214,-1.0,0.0,3.0,3.0,5.0,-2.0,1.0,0.0,1650911093016445.0,0
1215,-1.0,-2.0,-3.0,-4.0,-3.0,-4.0,-2.0,0.0,1650911093016445.0,0
1216,-2.0,-4.0,1.0,-1.0,-2.0,-10.0,-1.0,-3.0,1650911093017445.0,0
1217,-2.0,1.0,0.0,-4.0,-16.0,-10.0,-4.0,-1.0,1650911093017445.0,0
1218,0.0,1.0,2.0,-1.0,-2.0,11.0,0.0,0.0,1650911093039828.0,0
1219,2.0,1.0,-3.0,5.0,19.0,9.0,5.0,2.0,1650911093039828.0,0
1220,-1.0,1.0,1.0,2.0,25.0,-3.0,0.0,1.0,1650911093039828.0,0
1221,1.0,0.0,1.0,-1.0,-17.0,4.0,-2.0,-1.0,1650911093039828.0,0
1222,-1.0,-2.0,1.0,-3.0,-6.0,-16.0,-5.0,-4.0,1650911093062754.0,0
1223,-1.0,0.0,-4.0,-4.0,-10.0,-5.0,-1.0,-1.0,1650911093062754.0,0
1224,-1.0,1.0,4.0,3.0,-1.0,10.0,2.0,1.0,1650911093062754.0,0
1225,0.0,-1.0,-5.0,-2.0,7.0,0.0,1.0,-1.0,1650911093062754.0,0
1226,2.0,0.0,1.0,-3.0,-16.0,13.0,-1.0,0.0,1650911093076623.0,0
1227,1.0,-3.0,0.0,0.0,4.0,-9.0,-2.0,-1.0,1650911093076623.0,0
1228,0.0,2.0,2.0,3.0,15.0,7.0,0.0,1.0,1650911093076623.0,0
1229,-1.0,-1.0,1.0,0.0,4.0,-3.0,0.0,1.0,1650911093076623.0,0
1230,0.0,2.0,-3.0,-2.0,-3.0,9.0,3.0,-1.0,1650911093100012.0,0
1231,0.0,-3.0,-2.0,-10.0,-21.0,-16.0,-5.0,-5.0,1650911093100012.0,0
1232,0.0,-1.0,5.0,5.0,-18.0,3.0,-1.0,0.0,1650911093100012.0,0
1233,1.0,-1.0,2.0,8.0,51.0,20.0,3.0,0.0,1650911093100012.0,0
1234,-2.0,-1.0,-6.0,-6.0,1.0,0.0,1.0,2.0,1650911093122705.0,0
1235,-4.0,-1.0,-2.0,-7.0,-23.0,-8.0,-5.0,-2.0,1650911093122705.0,0
1236,-1.0,-2.0,1.0,1.0,-8.0,-23.0,-4.0,-2.0,1650911093122705.0,0
1237,1.0,-2.0,-1.0,-1.0,1.0,7.0,-1.0,0.0,1650911093122705.0,0
1238,0.0,0.0,0.0,1.0,-7.0,-7.0,0.0,-1.0,1650911093136808.0,0
1239,1.0,1.0,1.0,1.0,10.0,9.0,1.0,0.0,1650911093136808.0,0
1240,0.0,0.0,-2.0,1.0,-7.0,4.0,1.0,0.0,1650911093136808.0,0
1241,0.0,1.0,1.0,1.0,8.0,-2.0,-1.0,2.0,1650911093136808.0,0
1242,-1.0,-1.0,0.0,-2.0,-1.0,0.0,-2.0,1.0,1650911093159805.0,0
1243,0.0,-1.0,-2.0,-3.0,-7.0,5.0,-1.0,-1.0,1650911093159805.0,0
1244,2.0,0.0,-1.0,1.0,12.0,-3.0,1.0,2.0,1650911093159805.0,0
1245,0.0,2.0,-2.0,-2.0,-7.0,-3.0,0.0,-3.0,1650911093159805.0,0
1246,-1.0,-1.0,-2.0,-3.0,-9.0,-1.0,-2.0,-1.0,1650911093183179.0,0
1247,-3.0,-3.0,-4.0,0.0,0.0,-3.0,0.0,-3.0,1650911093183179.0,0
1248,-1.0,-2.0,-1.0,-4.0,-9.0,-17.0,-3.0,-1.0,1650911093183179.0,0
1249,0.0,0.0,0.0,-2.0,-12.0,33.0,0.0,0.0,1650911093183179.0,0
1250,0.0,2.0,2.0,5.0,6.0,-22.0,1.0,2.0,1650911093196339.0,0
1251,1.0,0.0,3.0,7.0,8.0,1.0,3.0,1.0,1650911093196339.0,0
1252,-1.0,2.0,-9.0,-5.0,16.0,8.0,0.0,-2.0,1650911093197337.0,0
1253,-1.0,3.0,0.0,0.0,-5.0,-1.0,1.0,1.0,1650911093197337.0,0
1254,2.0,0.0,-1.0,-6.0,-15.0,2.0,-4.0,-3.0,1650911093219970.0,0
1255,-2.0,0.0,0.0,-1.0,-4.0,0.0,-4.0,-1.0,1650911093219970.0,0
1256,0.0,-3.0,2.0,1.0,-16.0,-3.0,1.0,-1.0,1650911093219970.0,0
1257,1.0,-1.0,-4.0,4.0,6.0,-7.0,0.0,1.0,1650911093219970.0,0
1258,-1.0,0.0,-1.0,3.0,31.0,21.0,2.0,-1.0,1650911093243270.0,0
1259,-1.0,1.0,2.0,0.0,-19.0,-16.0,1.0,-2.0,1650911093243270.0,0
1260,-1.0,-1.0,-4.0,-11.0,-9.0,-7.0,-5.0,-3.0,1650911093243270.0,0
1261,-2.0,-2.0,-3.0,-5.0,-11.0,-17.0,-3.0,-1.0,1650911093243270.0,0
1262,-1.0,0.0,4.0,10.0,25.0,2.0,1.0,0.0,1650911093256701.0,0
1263,0.0,-2.0,-2.0,2.0,9.0,50.0,5.0,-1.0,1650911093256701.0,0
1264,0.0,1.0,0.0,2.0,-5.0,-7.0,5.0,0.0,1650911093257540.0,0
1265,-1.0,1.0,0.0,-6.0,-4.0,-19.0,-3.0,1.0,1650911093257540.0,0
1266,-2.0,-4.0,-1.0,-6.0,-39.0,-6.0,-7.0,-2.0,1650911093286991.0,0
1267,-1.0,0.0,0.0,2.0,21.0,-19.0,0.0,3.0,1650911093286991.0,0
1268,1.0,-1.0,5.0,8.0,12.0,20.0,-2.0,-2.0,1650911093287988.0,0
1269,-1.0,0.0,0.0,6.0,10.0,-3.0,1.0,-3.0,1650911093287988.0,0
1270,1.0,-2.0,-5.0,-6.0,-3.0,-4.0,-1.0,-4.0,1650911093301122.0,0
1271,0.0,0.0,2.0,-3.0,-27.0,0.0,1.0,2.0,1650911093301122.0,0
1272,0.0,1.0,-2.0,0.0,10.0,5.0,-4.0,1.0,1650911093309923.0,0
1273,3.0,1.0,3.0,1.0,14.0,9.0,3.0,0.0,1650911093309923.0,0
1274,0.0,-1.0,-1.0,0.0,3.0,5.0,12.0,6.0,1650911093317067.0,0
1275,-3.0,-2.0,-6.0,-6.0,-6.0,-16.0,-7.0,-5.0,1650911093317067.0,0
1276,-1.0,-3.0,0.0,-2.0,-26.0,-14.0,-14.0,-3.0,1650911093317067.0,0
1277,-4.0,-4.0,-4.0,-5.0,-11.0,0.0,-5.0,0.0,1650911093317067.0,0
1278,10.0,4.0,3.0,3.0,-10.0,-1.0,1.0,9.0,1650911093340197.0,0
1279,-17.0,-3.0,1.0,3.0,16.0,-3.0,1.0,-9.0,1650911093340197.0,0
1280,0.0,1.0,0.0,1.0,9.0,3.0,-2.0,-16.0,1650911093340197.0,0
1281,-1.0,4.0,7.0,3.0,2.0,8.0,4.0,4.0,1650911093340197.0,0
1282,-4.0,-11.0,-8.0,-2.0,5.0,1.0,1.0,-2.0,1650911093361834.0,0
1283,7.0,2.0,-1.0,-1.0,9.0,3.0,1.0,3.0,1650911093361834.0,0
1284,0.0,1.0,-5.0,-4.0,-6.0,1.0,4.0,10.0,1650911093362833.0,0
1285,2.0,0.0,4.0,-3.0,-12.0,-17.0,-6.0,-7.0,1650911093362833.0,0
1286,3.0,8.0,7.0,-1.0,9.0,-1.0,5.0,13.0,1650911093376304.0,0
1287,-4.0,-14.0,-8.0,-2.0,-11.0,1.0,-4.0,-5.0,1650911093376304.0,0
1288,-7.0,0.0,-4.0,-5.0,-4.0,-5.0,-8.0,-8.0,1650911093377141.0,0
1289,8.0,5.0,4.0,6.0,1.0,0.0,4.0,9.0,1650911093377141.0,0
1290,-1.0,2.0,2.0,16.0,15.0,15.0,4.0,-7.0,1650911093400026.0,0
1291,14.0,2.0,2.0,-2.0,7.0,3.0,5.0,22.0,1650911093400026.0,0
1292,-10.0,0.0,-6.0,-6.0,-8.0,1.0,7.0,0.0,1650911093400026.0,0
1293,11.0,-7.0,0.0,-1.0,-14.0,-9.0,2.0,8.0,1650911093400026.0,0
1294,-5.0,-4.0,-3.0,-2.0,7.0,-14.0,-15.0,-7.0,1650911093429886.0,0
1295,-42.0,-17.0,-5.0,0.0,-16.0,7.0,-8.0,-12.0,1650911093429886.0,0
1296,-14.0,-14.0,0.0,-4.0,-4.0,-2.0,-6.0,-17.0,1650911093429886.0,0
1297,-1.0,-3.0,3.0,5.0,4.0,-18.0,-3.0,-8.0,1650911093429886.0,0
1298,3.0,-5.0,-15.0,-8.0,6.0,-12.0,-11.0,-32.0,1650911093435906.0,0
1299,20.0,33.0,2.0,-1.0,4.0,6.0,-5.0,-10.0,1650911093435906.0,0
1300,9.0,-6.0,10.0,4.0,2.0,-2.0,-4.0,0.0,1650911093452178.0,0
1301,-16.0,-4.0,-3.0,2.0,21.0,20.0,7.0,13.0,1650911093452178.0,0
1302,11.0,-12.0,3.0,-5.0,-12.0,2.0,8.0,5.0,1650911093460022.0,0
1303,18.0,25.0,12.0,0.0,-28.0,-11.0,3.0,16.0,1650911093460022.0,0
1304,5.0,11.0,2.0,-2.0,6.0,-12.0,-23.0,-44.0,1650911093460022.0,0
1305,-3.0,-7.0,-23.0,2.0,23.0,26.0,20.0,19.0,1650911093460022.0,0
1306,2.0,0.0,17.0,6.0,1.0,1.0,7.0,28.0,1650911093483222.0,0
1307,3.0,8.0,8.0,-6.0,-7.0,-7.0,-4.0,3.0,1650911093483222.0,0
1308,12.0,6.0,2.0,0.0,-15.0,-7.0,1.0,4.0,1650911093483222.0,0
1309,20.0,-10.0,-7.0,0.0,-2.0,3.0,-1.0,-15.0,1650911093483222.0,0
1310,-54.0,-36.0,-15.0,-14.0,16.0,2.0,-8.0,6.0,1650911093496120.0,0
1311,-6.0,21.0,10.0,6.0,-2.0,4.0,8.0,-2.0,1650911093496120.0,0
1312,19.0,-8.0,-13.0,-3.0,-10.0,17.0,4.0,3.0,1650911093497117.0,0
1313,-13.0,37.0,20.0,1.0,-17.0,-33.0,-7.0,-19.0,1650911093497117.0,0
1314,-1.0,-26.0,-25.0,5.0,11.0,9.0,18.0,34.0,1650911093519538.0,0
1315,22.0,5.0,15.0,5.0,18.0,3.0,5.0,7.0,1650911093519538.0,0
1316,-15.0,-14.0,-4.0,-3.0,6.0,0.0,-2.0,1.0,1650911093520555.0,0
1317,9.0,0.0,-6.0,-11.0,-20.0,3.0,-4.0,-9.0,1650911093520555.0,0
1318,-9.0,24.0,11.0,3.0,-25.0,-19.0,-25.0,-27.0,1650911093543061.0,0
1319,-8.0,-6.0,-2.0,-1.0,3.0,-7.0,7.0,21.0,1650911093543061.0,0
1320,-3.0,11.0,-6.0,-1.0,24.0,12.0,5.0,-5.0,1650911093543061.0,0
1321,-23.0,-48.0,-8.0,-5.0,-8.0,7.0,-6.0,-7.0,1650911093543061.0,0
1322,0.0,4.0,12.0,2.0,-10.0,-6.0,-11.0,-29.0,1650911093563352.0,0
1323,7.0,-20.0,-28.0,-8.0,10.0,-1.0,-11.0,-20.0,1650911093563352.0,0
1324,-31.0,10.0,10.0,0.0,-17.0,3.0,9.0,24.0,1650911093571477.0,0
1325,1.0,-21.0,-14.0,-10.0,2.0,-9.0,-2.0,2.0,1650911093571477.0,0
1326,-13.0,14.0,5.0,-6.0,-15.0,-1.0,0.0,7.0,1650911093587707.0,0
1327,11.0,3.0,6.0,3.0,-26.0,-2.0,-6.0,-16.0,1650911093587707.0,0
1328,3.0,-25.0,-24.0,5.0,24.0,3.0,10.0,3.0,1650911093587707.0,0
1329,-12.0,-2.0,-4.0,-2.0,18.0,10.0,1.0,8.0,1650911093587707.0,0
1330,15.0,35.0,1.0,-1.0,-9.0,7.0,7.0,1.0,1650911093602764.0,0
1331,-16.0,-20.0,5.0,-5.0,8.0,-10.0,-9.0,-15.0,1650911093602764.0,0
1332,8.0,2.0,-5.0,4.0,11.0,0.0,12.0,21.0,1650911093602764.0,0
1333,11.0,20.0,8.0,4.0,-7.0,-2.0,-7.0,-3.0,1650911093602764.0,0
1334,12.0,-12.0,10.0,0.0,-1.0,5.0,3.0,-2.0,1650911093615811.0,0
1335,-5.0,2.0,-23.0,-12.0,-21.0,-13.0,-4.0,1.0,1650911093615811.0,0
1336,3.0,7.0,11.0,4.0,-23.0,-1.0,-4.0,-5.0,1650911093624088.0,0
1337,5.0,4.0,2.0,4.0,15.0,1.0,-5.0,-5.0,1650911093624088.0,0
1338,12.0,17.0,13.0,10.0,13.0,9.0,8.0,17.0,1650911093639211.0,0
1339,7.0,5.0,-4.0,7.0,25.0,12.0,3.0,2.0,1650911093639211.0,0
1340,9.0,26.0,4.0,3.0,9.0,-3.0,10.0,14.0,1650911093640176.0,0
1341,6.0,14.0,15.0,-7.0,-39.0,-3.0,-2.0,-3.0,1650911093640176.0,2
1342,20.0,6.0,-14.0,-8.0,-18.0,-16.0,-4.0,9.0,1650911093662598.0,2
1343,-32.0,-18.0,10.0,7.0,13.0,13.0,9.0,6.0,1650911093662598.0,2
1344,9.0,1.0,4.0,1.0,-6.0,-10.0,-3.0,-23.0,1650911093662598.0,2
1345,2.0,-1.0,-3.0,11.0,25.0,18.0,6.0,9.0,1650911093662598.0,2
1346,-1.0,5.0,9.0,5.0,27.0,-1.0,5.0,4.0,1650911093675906.0,2
1347,13.0,-3.0,-12.0,-9.0,-12.0,3.0,1.0,1.0,1650911093675906.0,2
1348,-19.0,-8.0,12.0,2.0,2.0,-3.0,-9.0,-10.0,1650911093684566.0,2
1349,-18.0,-1.0,-12.0,-8.0,-16.0,-13.0,-3.0,-2.0,1650911093684566.0,2
1350,-2.0,-42.0,-22.0,-10.0,-14.0,-3.0,-8.0,3.0,1650911093699970.0,2
1351,-13.0,26.0,15.0,8.0,17.0,5.0,4.0,5.0,1650911093699970.0,2
1352,-14.0,-47.0,-14.0,-7.0,2.0,-2.0,-4.0,4.0,1650911093699970.0,2
1353,7.0,27.0,8.0,-3.0,-11.0,-4.0,-4.0,-27.0,1650911093699970.0,2
1354,24.0,29.0,7.0,3.0,2.0,-4.0,-4.0,-17.0,1650911093722954.0,2
1355,-27.0,-14.0,-8.0,-1.0,-26.0,-2.0,-2.0,1.0,1650911093722954.0,2
1356,-1.0,9.0,27.0,9.0,14.0,9.0,8.0,23.0,1650911093722954.0,2
1357,9.0,1.0,-10.0,4.0,7.0,0.0,-1.0,3.0,1650911093722954.0,2
1358,-3.0,17.0,20.0,2.0,8.0,4.0,7.0,10.0,1650911093735922.0,2
1359,5.0,-16.0,-19.0,-8.0,7.0,-5.0,-4.0,-17.0,1650911093735922.0,2
1360,1.0,11.0,-9.0,-7.0,-10.0,4.0,0.0,-3.0,1650911093744303.0,2
1361,2.0,-6.0,7.0,0.0,-1.0,5.0,10.0,25.0,1650911093744303.0,2
1362,-5.0,5.0,-14.0,-2.0,-18.0,-14.0,-3.0,-11.0,1650911093759771.0,2
1363,42.0,16.0,7.0,9.0,34.0,13.0,6.0,14.0,1650911093759771.0,2
1364,-27.0,11.0,16.0,6.0,10.0,10.0,6.0,4.0,1650911093760638.0,2
1365,-3.0,0.0,-7.0,-1.0,1.0,-3.0,-11.0,21.0,1650911093760638.0,2
1366,-8.0,-9.0,-9.0,-15.0,-19.0,-13.0,-7.0,-25.0,1650911093782959.0,2
1367,7.0,5.0,-4.0,3.0,-2.0,-7.0,-5.0,-14.0,1650911093782959.0,2
1368,10.0,-25.0,-16.0,0.0,14.0,6.0,3.0,9.0,1650911093782959.0,2
1369,8.0,1.0,9.0,6.0,-5.0,-1.0,-3.0,-6.0,1650911093782959.0,2
1370,-7.0,-10.0,-8.0,-12.0,-6.0,-4.0,-6.0,-23.0,1650911093796059.0,2
1371,-23.0,-10.0,5.0,0.0,-5.0,1.0,0.0,11.0,1650911093796059.0,2
1372,-2.0,-8.0,-17.0,-16.0,-28.0,-24.0,-6.0,-16.0,1650911093804347.0,2
1373,2.0,-10.0,-5.0,2.0,-3.0,7.0,-2.0,-4.0,1650911093804347.0,2
1374,5.0,-5.0,-9.0,3.0,14.0,10.0,6.0,11.0,1650911093819886.0,2
1375,-7.0,7.0,18.0,4.0,-1.0,-5.0,1.0,-6.0,1650911093819886.0,2
1376,12.0,6.0,0.0,2.0,1.0,0.0,-2.0,4.0,1650911093820751.0,2
1377,-8.0,5.0,-3.0,-10.0,4.0,-4.0,11.0,7.0,1650911093820751.0,2
1378,-10.0,-80.0,-11.0,4.0,10.0,9.0,-12.0,-22.0,1650911093843019.0,2
1379,-6.0,-9.0,-7.0,-10.0,-13.0,-5.0,1.0,19.0,1650911093843019.0,2
1380,-9.0,10.0,14.0,9.0,2.0,2.0,1.0,-7.0,1650911093843153.0,2
1381,7.0,-10.0,-4.0,3.0,22.0,9.0,-3.0,-3.0,1650911093843153.0,2
1382,11.0,29.0,12.0,13.0,-4.0,2.0,8.0,19.0,1650911093856277.0,2
1383,-38.0,-58.0,-21.0,-15.0,-10.0,-8.0,-4.0,-10.0,1650911093856277.0,2
1384,14.0,15.0,4.0,-6.0,-20.0,-20.0,0.0,0.0,1650911093864428.0,2
1385,-10.0,-12.0,11.0,4.0,14.0,16.0,-1.0,-16.0,1650911093864428.0,2
1386,-2.0,-1.0,-18.0,-4.0,12.0,6.0,7.0,11.0,1650911093879382.0,2
1387,15.0,5.0,5.0,4.0,-14.0,-3.0,-1.0,0.0,1650911093879382.0,2
1388,19.0,7.0,-5.0,2.0,9.0,-7.0,-2.0,3.0,1650911093879855.0,2
1389,2.0,18.0,27.0,-3.0,-23.0,1.0,-1.0,1.0,1650911093879855.0,2
1390,9.0,17.0,-4.0,2.0,28.0,6.0,-7.0,-21.0,1650911093902050.0,2
1391,-12.0,4.0,11.0,-2.0,-14.0,-8.0,-4.0,-9.0,1650911093902050.0,2
1392,16.0,-47.0,-13.0,-9.0,1.0,8.0,17.0,29.0,1650911093903016.0,2
1393,-8.0,11.0,-3.0,6.0,-7.0,-14.0,-2.0,-4.0,1650911093903016.0,2
1394,-3.0,15.0,4.0,-15.0,-21.0,-7.0,-4.0,9.0,1650911093916478.0,2
1395,10.0,-3.0,-14.0,-2.0,-5.0,0.0,-5.0,-10.0,1650911093916478.0,2
1396,-2.0,-15.0,-3.0,10.0,28.0,5.0,-4.0,1.0,1650911093924626.0,2
1397,-2.0,-6.0,-1.0,3.0,0.0,1.0,-2.0,-1.0,1650911093924626.0,2
1398,-9.0,5.0,-11.0,-8.0,1.0,8.0,4.0,5.0,1650911093939987.0,2
1399,7.0,-3.0,-5.0,3.0,2.0,-3.0,0.0,9.0,1650911093939987.0,2
1400,3.0,10.0,0.0,-3.0,-4.0,8.0,6.0,-1.0,1650911093939987.0,2
1401,-4.0,-5.0,-12.0,-6.0,1.0,-1.0,-2.0,-33.0,1650911093939987.0,2
1402,-21.0,-9.0,0.0,4.0,-6.0,-1.0,-2.0,13.0,1650911093962712.0,2
1403,11.0,-1.0,6.0,-1.0,-5.0,-6.0,-2.0,6.0,1650911093962712.0,2
1404,13.0,86.0,27.0,0.0,-21.0,-3.0,2.0,-3.0,1650911093962712.0,2
1405,7.0,-5.0,-11.0,10.0,42.0,24.0,4.0,6.0,1650911093962712.0,2
1406,-22.0,-8.0,12.0,-4.0,3.0,-5.0,0.0,-7.0,1650911093984995.0,2
1407,8.0,4.0,-15.0,-2.0,6.0,4.0,3.0,0.0,1650911093984995.0,2
1408,-10.0,-21.0,-15.0,-6.0,-17.0,-12.0,-6.0,-1.0,1650911093984995.0,2
1409,9.0,6.0,2.0,-11.0,-31.0,-16.0,-3.0,5.0,1650911093984995.0,2
1410,8.0,7.0,12.0,16.0,12.0,4.0,8.0,5.0,1650911093999167.0,2
1411,-6.0,7.0,1.0,5.0,20.0,9.0,-1.0,-2.0,1650911093999167.0,2
1412,2.0,16.0,-4.0,-3.0,9.0,4.0,2.0,4.0,1650911094000040.0,2
1413,-15.0,-26.0,-14.0,-13.0,-20.0,-10.0,0.0,10.0,1650911094000040.0,2
1414,9.0,2.0,0.0,-4.0,-26.0,-9.0,-9.0,-7.0,1650911094022017.0,2
1415,3.0,-7.0,-11.0,1.0,-5.0,-15.0,0.0,3.0,1650911094022017.0,2
1416,2.0,-14.0,16.0,13.0,17.0,4.0,-3.0,0.0,1650911094023048.0,2
1417,3.0,8.0,2.0,0.0,18.0,1.0,-10.0,-19.0,1650911094023048.0,2
1418,-1.0,4.0,-4.0,-5.0,-8.0,4.0,9.0,19.0,1650911094045501.0,2
1419,10.0,17.0,33.0,-1.0,2.0,0.0,-6.0,-23.0,1650911094045501.0,2
1420,-9.0,-15.0,-19.0,-4.0,-14.0,5.0,2.0,17.0,1650911094045501.0,2
1421,-13.0,1.0,14.0,3.0,-6.0,-10.0,-5.0,-9.0,1650911094045501.0,2
1422,17.0,-7.0,-11.0,5.0,-5.0,1.0,8.0,6.0,1650911094058687.0,2
1423,-6.0,-3.0,-11.0,-6.0,-4.0,4.0,9.0,23.0,1650911094058687.0,2
1424,-19.0,-36.0,0.0,-13.0,-16.0,-24.0,-16.0,-25.0,1650911094059396.0,2
1425,0.0,-2.0,-14.0,-5.0,-12.0,3.0,4.0,3.0,1650911094059396.0,2
1426,0.0,13.0,16.0,12.0,5.0,-2.0,-5.0,-6.0,1650911094082997.0,2
1427,-6.0,-12.0,-5.0,6.0,40.0,24.0,6.0,-2.0,1650911094082997.0,2
1428,13.0,6.0,-6.0,-4.0,1.0,15.0,-1.0,-7.0,1650911094082997.0,2
1429,0.0,4.0,-9.0,-4.0,-21.0,-29.0,0.0,6.0,1650911094082997.0,2
1430,-2.0,-9.0,17.0,3.0,1.0,2.0,-4.0,-9.0,1650911094105496.0,2
1431,4.0,18.0,-11.0,-7.0,-14.0,-5.0,-2.0,-4.0,1650911094105496.0,2
1432,-10.0,3.0,7.0,-1.0,0.0,-2.0,-5.0,-14.0,1650911094105496.0,2
1433,-2.0,3.0,7.0,-6.0,6.0,-2.0,-6.0,-4.0,1650911094105496.0,2
1434,-3.0,-40.0,-26.0,-6.0,1.0,2.0,-5.0,0.0,1650911094118569.0,2
1435,12.0,23.0,17.0,4.0,0.0,1.0,2.0,1.0,1650911094118569.0,2
1436,-19.0,20.0,15.0,2.0,0.0,-4.0,-16.0,-41.0,1650911094119534.0,2
1437,-16.0,-37.0,-36.0,-11.0,-21.0,-6.0,0.0,1.0,1650911094119534.0,2
1438,-24.0,-5.0,-10.0,-8.0,13.0,-16.0,-1.0,0.0,1650911094142508.0,2
1439,-5.0,-10.0,3.0,-1.0,-19.0,1.0,-15.0,-13.0,1650911094142508.0,2
1440,24.0,-17.0,-9.0,-10.0,1.0,1.0,0.0,-12.0,1650911094142508.0,2
1441,-21.0,1.0,7.0,10.0,10.0,2.0,9.0,13.0,1650911094142508.0,2
1442,34.0,35.0,19.0,12.0,3.0,3.0,1.0,3.0,1650911094164714.0,2
1443,-1.0,2.0,2.0,-7.0,-32.0,-11.0,-2.0,0.0,1650911094164714.0,2
1444,-4.0,-19.0,-11.0,-2.0,27.0,15.0,-1.0,13.0,1650911094165708.0,2
1445,-3.0,-25.0,4.0,11.0,30.0,23.0,3.0,-21.0,1650911094165708.0,2
1446,-13.0,-7.0,-6.0,-9.0,-15.0,-15.0,-1.0,12.0,1650911094179167.0,2
1447,18.0,17.0,14.0,8.0,-11.0,-4.0,5.0,23.0,1650911094179167.0,2
1448,10.0,31.0,5.0,10.0,13.0,3.0,3.0,20.0,1650911094180012.0,2
1449,-12.0,12.0,20.0,-3.0,5.0,2.0,-4.0,-38.0,1650911094180012.0,2
1450,-5.0,-2.0,-1.0,2.0,-13.0,-6.0,-2.0,-14.0,1650911094202603.0,2
1451,0.0,3.0,7.0,6.0,12.0,4.0,-2.0,-4.0,1650911094202603.0,2
1452,9.0,-15.0,-2.0,-11.0,-35.0,-19.0,0.0,-4.0,1650911094202603.0,2
1453,16.0,24.0,6.0,16.0,34.0,11.0,1.0,22.0,1650911094202603.0,2
1454,-5.0,43.0,15.0,0.0,2.0,1.0,6.0,8.0,1650911094225068.0,2
1455,6.0,-14.0,-4.0,-3.0,-2.0,-2.0,2.0,-3.0,1650911094225068.0,2
1456,-17.0,-3.0,3.0,12.0,7.0,3.0,9.0,28.0,1650911094225068.0,2
1457,8.0,-1.0,6.0,-13.0,-23.0,-13.0,-6.0,-13.0,1650911094225068.0,2
1458,8.0,-10.0,-6.0,-8.0,-12.0,8.0,-10.0,5.0,1650911094239477.0,2
1459,4.0,1.0,-17.0,3.0,21.0,3.0,12.0,8.0,1650911094239477.0,2
1460,-8.0,2.0,-9.0,1.0,10.0,10.0,-5.0,1.0,1650911094239672.0,2
1461,-2.0,-4.0,-8.0,-4.0,-11.0,-4.0,-1.0,15.0,1650911094239672.0,2
1462,1.0,-2.0,3.0,1.0,5.0,-2.0,-9.0,-30.0,1650911094262593.0,2
1463,-34.0,-18.0,-24.0,-7.0,-4.0,-14.0,-9.0,-18.0,1650911094262593.0,2
1464,37.0,11.0,22.0,4.0,-17.0,-10.0,5.0,37.0,1650911094263593.0,2
1465,2.0,-23.0,-16.0,-1.0,-8.0,-6.0,-1.0,1.0,1650911094263593.0,2
1466,-15.0,19.0,15.0,-12.0,15.0,8.0,-3.0,-9.0,1650911094285053.0,2
1467,-5.0,-12.0,-24.0,3.0,-4.0,5.0,2.0,-1.0,1650911094285053.0,2
1468,-8.0,9.0,14.0,14.0,34.0,14.0,18.0,15.0,1650911094286052.0,2
1469,13.0,1.0,-8.0,7.0,0.0,-1.0,4.0,11.0,1650911094286052.0,2
1470,3.0,-27.0,-3.0,-2.0,-17.0,-15.0,4.0,15.0,1650911094299174.0,2
1471,-2.0,-12.0,-9.0,-19.0,-22.0,-5.0,-11.0,0.0,1650911094299174.0,2
1472,4.0,37.0,-1.0,5.0,0.0,-1.0,-5.0,-18.0,1650911094306996.0,2
1473,-4.0,-19.0,-7.0,3.0,-1.0,-3.0,1.0,11.0,1650911094306996.0,2
1474,-3.0,-5.0,-3.0,15.0,25.0,3.0,-2.0,-7.0,1650911094322194.0,2
1475,-1.0,-13.0,2.0,-11.0,7.0,-3.0,7.0,-4.0,1650911094322194.0,2
1476,13.0,6.0,2.0,5.0,-4.0,7.0,7.0,1.0,1650911094323188.0,2
1477,2.0,2.0,18.0,-4.0,-3.0,3.0,-11.0,-7.0,1650911094323188.0,2
1478,10.0,-8.0,-12.0,5.0,2.0,6.0,7.0,14.0,1650911094345476.0,2
1479,-15.0,40.0,10.0,2.0,-12.0,-5.0,-2.0,-9.0,1650911094345476.0,2
1480,-12.0,-9.0,-5.0,-9.0,-8.0,-8.0,1.0,-13.0,1650911094346200.0,2
1481,8.0,13.0,13.0,7.0,17.0,-3.0,-3.0,-2.0,1650911094346200.0,2
1482,19.0,11.0,3.0,-1.0,-15.0,4.0,4.0,12.0,1650911094358566.0,2
1483,0.0,-6.0,-6.0,5.0,10.0,11.0,5.0,12.0,1650911094358566.0,2
1484,-1.0,-8.0,-1.0,1.0,5.0,6.0,-2.0,-14.0,1650911094367579.0,2
1485,-15.0,11.0,-15.0,-11.0,-10.0,7.0,0.0,-13.0,1650911094367579.0,2
1486,5.0,-18.0,-6.0,-2.0,-4.0,-22.0,-3.0,18.0,1650911094382017.0,2
1487,10.0,-8.0,-1.0,-6.0,-3.0,1.0,1.0,-3.0,1650911094382017.0,2
1488,-3.0,10.0,-5.0,2.0,-3.0,-9.0,-2.0,9.0,1650911094383853.0,2
1489,-10.0,-18.0,-23.0,-3.0,3.0,11.0,4.0,-10.0,1650911094383853.0,2
1490,2.0,4.0,14.0,0.0,-1.0,12.0,6.0,5.0,1650911094405211.0,2
1491,2.0,10.0,-1.0,2.0,8.0,-1.0,-2.0,-7.0,1650911094405211.0,2
1492,-4.0,1.0,31.0,1.0,-12.0,-9.0,-13.0,-13.0,1650911094406211.0,2
1493,-12.0,-29.0,-38.0,-7.0,-10.0,-1.0,9.0,17.0,1650911094406211.0,2
1494,-12.0,0.0,0.0,8.0,-3.0,-9.0,-4.0,-21.0,1650911094419103.0,2
1495,6.0,27.0,24.0,1.0,17.0,3.0,2.0,3.0,1650911094419103.0,2
1496,-7.0,-14.0,-22.0,5.0,2.0,-1.0,-2.0,-8.0,1650911094427181.0,2
1497,18.0,68.0,28.0,4.0,-3.0,0.0,-5.0,13.0,1650911094427181.0,2
1498,0.0,-6.0,-6.0,-9.0,-8.0,-4.0,-1.0,1.0,1650911094443094.0,2
1499,1.0,-6.0,-12.0,2.0,2.0,0.0,1.0,-4.0,1650911094443094.0,2
1500,13.0,-8.0,-4.0,-6.0,2.0,4.0,12.0,19.0,1650911094443373.0,2
1501,-13.0,-35.0,8.0,-2.0,-17.0,-13.0,-10.0,11.0,1650911094443373.0,2
1502,12.0,12.0,-4.0,0.0,-11.0,9.0,8.0,14.0,1650911094465709.0,2
1503,9.0,12.0,4.0,7.0,16.0,5.0,-9.0,-22.0,1650911094465709.0,2
1504,-5.0,1.0,0.0,-4.0,9.0,-11.0,-3.0,-8.0,1650911094466618.0,2
1505,-11.0,-4.0,-19.0,-5.0,-5.0,2.0,0.0,-9.0,1650911094466618.0,2
1506,11.0,-22.0,-19.0,-9.0,0.0,1.0,11.0,7.0,1650911094479104.0,2
1507,-4.0,-19.0,7.0,4.0,-6.0,-4.0,-5.0,20.0,1650911094479104.0,2
1508,-1.0,-12.0,-1.0,2.0,5.0,2.0,0.0,-9.0,1650911094486909.0,2
1509,14.0,-7.0,-7.0,-2.0,0.0,1.0,8.0,20.0,1650911094486909.0,2
1510,-37.0,-17.0,2.0,-2.0,20.0,6.0,-7.0,-11.0,1650911094502060.0,2
1511,21.0,43.0,3.0,13.0,6.0,10.0,15.0,16.0,1650911094502060.0,2
1512,-9.0,-14.0,5.0,-17.0,-15.0,-3.0,-2.0,6.0,1650911094504058.0,2
1513,4.0,12.0,16.0,-3.0,-12.0,-7.0,-3.0,-1.0,1650911094504058.0,2
1514,-10.0,-9.0,-14.0,3.0,-7.0,-11.0,-10.0,-20.0,1650911094525168.0,2
1515,1.0,2.0,6.0,12.0,18.0,5.0,2.0,7.0,1650911094525168.0,2
1516,-2.0,8.0,-1.0,-2.0,0.0,-2.0,-2.0,9.0,1650911094526168.0,2
1517,6.0,-4.0,7.0,-6.0,10.0,-2.0,-1.0,-17.0,1650911094526168.0,2
1518,-17.0,15.0,8.0,4.0,-19.0,-2.0,-7.0,-12.0,1650911094538632.0,2
1519,-1.0,-27.0,-2.0,-17.0,-33.0,-9.0,0.0,16.0,1650911094538632.0,2
1520,-3.0,15.0,2.0,-1.0,-6.0,0.0,-7.0,-37.0,1650911094547479.0,2
1521,-8.0,-19.0,-3.0,4.0,32.0,12.0,1.0,-5.0,1650911094547479.0,2
1522,12.0,10.0,5.0,7.0,25.0,16.0,8.0,-9.0,1650911094562666.0,2
1523,6.0,-6.0,17.0,0.0,-1.0,0.0,-6.0,6.0,1650911094562666.0,2
1524,-36.0,-17.0,-17.0,-8.0,-27.0,-10.0,3.0,5.0,1650911094563665.0,2
1525,8.0,2.0,-3.0,-4.0,-12.0,-22.0,-11.0,-3.0,1650911094563665.0,2
1526,-26.0,7.0,9.0,1.0,-15.0,8.0,-5.0,2.0,1650911094585120.0,2
1527,6.0,-45.0,-4.0,6.0,21.0,6.0,3.0,-14.0,1650911094585120.0,2
1528,-9.0,-23.0,-16.0,5.0,28.0,16.0,2.0,-4.0,1650911094585963.0,2
1529,4.0,16.0,36.0,3.0,2.0,-3.0,2.0,18.0,1650911094585963.0,2
1530,6.0,12.0,-8.0,-4.0,-7.0,-5.0,0.0,10.0,1650911094598744.0,2
1531,-19.0,5.0,20.0,-1.0,-33.0,-23.0,-6.0,-16.0,1650911094598744.0,2
1532,-5.0,-4.0,-20.0,-16.0,-18.0,-6.0,-11.0,-5.0,1650911094607307.0,2
1533,15.0,39.0,-6.0,10.0,9.0,12.0,2.0,-9.0,1650911094607307.0,2
1534,2.0,1.0,18.0,4.0,18.0,12.0,9.0,16.0,1650911094622901.0,2
1535,4.0,-12.0,-1.0,5.0,-16.0,0.0,1.0,8.0,1650911094622901.0,2
1536,5.0,11.0,-4.0,3.0,7.0,-11.0,1.0,-6.0,1650911094623675.0,2
1537,-3.0,-8.0,10.0,6.0,5.0,7.0,7.0,-1.0,1650911094623675.0,2
1538,-13.0,-5.0,-14.0,-9.0,-7.0,1.0,-13.0,-8.0,1650911094646007.0,2
1539,-4.0,0.0,-9.0,-6.0,3.0,-13.0,-4.0,-2.0,1650911094646007.0,2
1540,15.0,-7.0,-5.0,8.0,11.0,8.0,11.0,41.0,1650911094651157.0,2
1541,-3.0,-20.0,-16.0,-2.0,9.0,11.0,-7.0,-22.0,1650911094651157.0,2
1542,-3.0,-13.0,1.0,-5.0,-15.0,-28.0,-10.0,-11.0,1650911094658989.0,2
1543,-10.0,-10.0,-18.0,-15.0,1.0,3.0,1.0,-6.0,1650911094658989.0,2
1544,7.0,12.0,25.0,3.0,-27.0,1.0,-6.0,-22.0,1650911094667182.0,2
1545,3.0,48.0,-3.0,4.0,17.0,1.0,4.0,47.0,1650911094667182.0,2
1546,11.0,-31.0,-13.0,-2.0,-1.0,7.0,1.0,-4.0,1650911094683009.0,2
1547,-15.0,-18.0,-5.0,3.0,2.0,-9.0,-5.0,-13.0,1650911094683009.0,2
1548,16.0,10.0,4.0,-4.0,-4.0,10.0,6.0,11.0,1650911094683879.0,2
1549,1.0,-7.0,-11.0,3.0,-2.0,-3.0,6.0,-5.0,1650911094683879.0,2
1550,-7.0,11.0,8.0,-6.0,-5.0,4.0,-3.0,-4.0,1650911094704997.0,2
1551,9.0,10.0,10.0,0.0,-1.0,-8.0,-3.0,6.0,1650911094704997.0,2
1552,0.0,-4.0,-12.0,-1.0,-12.0,-1.0,0.0,-2.0,1650911094705831.0,2
1553,-6.0,-15.0,3.0,7.0,7.0,-1.0,4.0,2.0,1650911094705831.0,2
1554,4.0,-20.0,-17.0,1.0,22.0,3.0,0.0,-1.0,1650911094718746.0,2
1555,0.0,1.0,3.0,-10.0,1.0,4.0,-2.0,-7.0,1650911094718746.0,2
1556,-3.0,-3.0,2.0,2.0,-7.0,11.0,-6.0,-2.0,1650911094727121.0,2
1557,-3.0,-4.0,-2.0,-3.0,-9.0,-13.0,1.0,-4.0,1650911094727121.0,2
1558,13.0,18.0,8.0,3.0,4.0,-5.0,4.0,4.0,1650911094743070.0,2
1559,-15.0,-8.0,-15.0,-4.0,-14.0,-2.0,-2.0,-5.0,1650911094743070.0,2
1560,-4.0,-3.0,-2.0,-1.0,9.0,-9.0,-8.0,0.0,1650911094744103.0,2
1561,2.0,-2.0,5.0,-1.0,-7.0,4.0,2.0,2.0,1650911094744103.0,2
1562,7.0,2.0,5.0,7.0,-3.0,6.0,3.0,-1.0,1650911094765386.0,2
1563,13.0,15.0,0.0,3.0,21.0,9.0,3.0,8.0,1650911094765386.0,2
1564,-26.0,-32.0,-24.0,-13.0,-17.0,-4.0,-5.0,-7.0,1650911094766205.0,2
1565,-3.0,-5.0,22.0,4.0,-14.0,-16.0,-2.0,-6.0,1650911094766205.0,2
1566,-2.0,2.0,-18.0,-5.0,5.0,8.0,-4.0,-10.0,1650911094778648.0,2
1567,0.0,5.0,-7.0,-7.0,-14.0,-1.0,6.0,8.0,1650911094778648.0,2
1568,-6.0,-67.0,-9.0,-9.0,7.0,-6.0,-10.0,-3.0,1650911094787458.0,2
1569,-3.0,-24.0,-7.0,-4.0,-11.0,0.0,0.0,-7.0,1650911094787458.0,2
1570,0.0,7.0,11.0,8.0,10.0,1.0,-8.0,3.0,1650911094803007.0,2
1571,3.0,-2.0,1.0,9.0,15.0,12.0,20.0,0.0,1650911094803007.0,2
1572,12.0,8.0,-5.0,-4.0,13.0,-10.0,-5.0,-3.0,1650911094803779.0,2
1573,-6.0,-8.0,-1.0,-11.0,-36.0,-4.0,-4.0,-2.0,1650911094803779.0,2
1574,2.0,0.0,7.0,6.0,8.0,-3.0,-1.0,1.0,1650911094825787.0,2
1575,1.0,-3.0,3.0,10.0,29.0,14.0,1.0,1.0,1650911094825787.0,2
1576,7.0,33.0,13.0,14.0,29.0,14.0,12.0,6.0,1650911094825787.0,2
1577,0.0,4.0,-12.0,-9.0,-4.0,-3.0,-1.0,-2.0,1650911094825787.0,2
1578,-1.0,3.0,5.0,-1.0,-21.0,-12.0,-3.0,-1.0,1650911094838696.0,2
1579,-3.0,-3.0,-22.0,-24.0,-16.0,-9.0,-10.0,-5.0,1650911094838696.0,2
1580,-2.0,3.0,14.0,6.0,-20.0,-10.0,-1.0,2.0,1650911094846871.0,2
1581,4.0,6.0,7.0,6.0,5.0,1.0,-4.0,1.0,1650911094846871.0,2
1582,2.0,-8.0,-7.0,-4.0,23.0,10.0,7.0,0.0,1650911094862012.0,2
1583,-13.0,-8.0,-4.0,-4.0,9.0,4.0,2.0,2.0,1650911094862012.0,2
1584,0.0,9.0,-7.0,-4.0,-11.0,-1.0,0.0,-1.0,1650911094864009.0,2
1585,5.0,3.0,7.0,10.0,-2.0,0.0,-1.0,-7.0,1650911094864009.0,2
1586,-3.0,-5.0,-10.0,-8.0,-2.0,-4.0,-1.0,-2.0,1650911094885323.0,2
1587,-1.0,-1.0,7.0,-1.0,-8.0,2.0,-7.0,-7.0,1650911094885323.0,2
1588,8.0,6.0,-16.0,-10.0,-11.0,-21.0,-17.0,-2.0,1650911094886355.0,2
1589,-10.0,1.0,9.0,-3.0,2.0,10.0,16.0,8.0,1650911094886355.0,2
1590,2.0,1.0,5.0,4.0,-1.0,-6.0,-11.0,3.0,1650911094907820.0,2
1591,0.0,6.0,12.0,25.0,13.0,13.0,15.0,4.0,1650911094907820.0,2
1592,7.0,8.0,2.0,1.0,13.0,8.0,4.0,-1.0,1650911094908662.0,2
1593,-6.0,-3.0,-8.0,-7.0,10.0,1.0,3.0,-1.0,1650911094908662.0,2
1594,-7.0,-6.0,-6.0,-10.0,-18.0,-8.0,-8.0,-3.0,1650911094923174.0,2
1595,1.0,-5.0,5.0,-1.0,-8.0,-4.0,-9.0,-5.0,1650911094923174.0,2
1596,-5.0,7.0,8.0,15.0,6.0,4.0,4.0,0.0,1650911094924005.0,2
1597,4.0,-1.0,1.0,-3.0,3.0,2.0,-5.0,1.0,1650911094924005.0,2
1598,-13.0,4.0,4.0,1.0,-1.0,3.0,10.0,-1.0,1650911094952466.0,2
1599,5.0,1.0,4.0,3.0,-8.0,-14.0,-7.0,1.0,1650911094952466.0,2
1600,-1.0,0.0,-11.0,-8.0,-6.0,-2.0,5.0,1.0,1650911094953465.0,2
1601,-4.0,-1.0,4.0,2.0,15.0,6.0,-4.0,-4.0,1650911094953465.0,2
1602,13.0,1.0,-5.0,4.0,15.0,11.0,10.0,3.0,1650911094967802.0,2
1603,1.0,5.0,9.0,7.0,2.0,-1.0,-1.0,1.0,1650911094967802.0,2
1604,-2.0,-1.0,4.0,0.0,-12.0,-4.0,0.0,1.0,1650911094968642.0,2
1605,2.0,-10.0,-35.0,-47.0,-38.0,-13.0,-10.0,-4.0,1650911094968642.0,2
1606,-5.0,2.0,22.0,17.0,-6.0,-2.0,2.0,1.0,1650911094982016.0,2
1607,8.0,1.0,5.0,13.0,49.0,17.0,3.0,5.0,1650911094982016.0,2
1608,-14.0,4.0,21.0,2.0,0.0,0.0,7.0,3.0,1650911094995343.0,2
1609,1.0,6.0,4.0,13.0,6.0,-4.0,1.0,0.0,1650911094995343.0,2
1610,-2.0,-5.0,-31.0,-27.0,-26.0,-5.0,-10.0,-2.0,1650911095005194.0,2
1611,-1.0,0.0,0.0,-6.0,-30.0,-8.0,-1.0,-1.0,1650911095005194.0,2
1612,7.0,3.0,31.0,18.0,21.0,15.0,6.0,1.0,1650911095006184.0,2
1613,-10.0,-4.0,-13.0,-13.0,-1.0,-10.0,-2.0,-7.0,1650911095006184.0,2
1614,-4.0,-2.0,-1.0,-3.0,-14.0,-17.0,-1.0,1.0,1650911095027854.0,2
1615,2.0,-3.0,-2.0,6.0,9.0,7.0,-2.0,-1.0,1650911095027854.0,2
1616,0.0,-2.0,-19.0,-12.0,5.0,5.0,-4.0,-1.0,1650911095028809.0,2
1617,5.0,6.0,17.0,25.0,3.0,5.0,2.0,1.0,1650911095028809.0,2
1618,2.0,0.0,-2.0,1.0,10.0,-1.0,-6.0,-1.0,1650911095041989.0,2
1619,-7.0,-6.0,-6.0,-20.0,-29.0,-13.0,0.0,-4.0,1650911095041989.0,2
1620,-4.0,-3.0,-6.0,3.0,3.0,-2.0,0.0,0.0,1650911095049064.0,2
1621,5.0,6.0,11.0,15.0,16.0,12.0,2.0,5.0,1650911095049064.0,2
1622,0.0,1.0,-11.0,-6.0,9.0,-1.0,3.0,2.0,1650911095064999.0,2
1623,-4.0,-5.0,-15.0,-10.0,-12.0,-1.0,-4.0,-4.0,1650911095064999.0,2
1624,-3.0,-7.0,-7.0,-11.0,-8.0,-3.0,-4.0,-4.0,1650911095065998.0,2
1625,-3.0,-2.0,0.0,3.0,-13.0,-1.0,-4.0,-1.0,1650911095065998.0,2
1626,7.0,2.0,12.0,6.0,-2.0,-4.0,1.0,-3.0,1650911095087133.0,2
1627,1.0,1.0,6.0,8.0,-1.0,11.0,0.0,-1.0,1650911095087133.0,2
1628,2.0,1.0,-5.0,2.0,11.0,-4.0,5.0,2.0,1650911095088132.0,2
1629,-1.0,2.0,-1.0,6.0,22.0,3.0,2.0,2.0,1650911095088132.0,2
1630,1.0,-2.0,7.0,2.0,12.0,10.0,4.0,0.0,1650911095102170.0,2
1631,-1.0,1.0,-9.0,-9.0,-10.0,-8.0,-1.0,0.0,1650911095102170.0,2
1632,-1.0,0.0,5.0,-2.0,-3.0,1.0,-5.0,-1.0,1650911095108032.0,2
1633,2.0,0.0,4.0,-4.0,-32.0,-6.0,-3.0,-1.0,1650911095108032.0,2
1634,-4.0,-2.0,0.0,-3.0,-9.0,-4.0,0.0,1.0,1650911095125659.0,2
1635,1.0,4.0,2.0,8.0,14.0,0.0,0.0,0.0,1650911095125659.0,2
1636,-4.0,-4.0,-33.0,-19.0,-1.0,1.0,-1.0,-1.0,1650911095126172.0,2
1637,2.0,1.0,5.0,4.0,7.0,-4.0,-1.0,-1.0,1650911095126172.0,2
1638,0.0,3.0,2.0,-1.0,0.0,4.0,1.0,1.0,1650911095147582.0,2
1639,-1.0,-2.0,5.0,0.0,-3.0,0.0,0.0,-2.0,1650911095147582.0,2
1640,2.0,2.0,7.0,8.0,5.0,1.0,3.0,2.0,1650911095148580.0,2
1641,-1.0,-2.0,2.0,-2.0,1.0,1.0,-2.0,-2.0,1650911095148580.0,2
1642,-4.0,-5.0,-3.0,-11.0,-15.0,-13.0,-3.0,-2.0,1650911095162170.0,2
1643,-2.0,-5.0,-22.0,-15.0,-5.0,-5.0,-3.0,1.0,1650911095162170.0,2
1644,8.0,6.0,7.0,5.0,-10.0,0.0,0.0,0.0,1650911095168155.0,2
1645,-2.0,0.0,-7.0,-2.0,11.0,5.0,-1.0,3.0,1650911095168155.0,2
1646,0.0,1.0,14.0,13.0,15.0,-12.0,2.0,-3.0,1650911095184853.0,0
1647,-4.0,-2.0,0.0,-5.0,6.0,11.0,0.0,0.0,1650911095184853.0,0
1648,2.0,3.0,2.0,6.0,-14.0,10.0,1.0,2.0,1650911095185831.0,0
1649,0.0,-5.0,-14.0,-14.0,-4.0,-14.0,-1.0,0.0,1650911095185831.0,0
1650,0.0,-1.0,0.0,5.0,-8.0,8.0,3.0,1.0,1650911095207091.0,0
1651,1.0,-3.0,-1.0,4.0,13.0,1.0,0.0,0.0,1650911095207091.0,0
1652,-4.0,-2.0,7.0,2.0,-4.0,0.0,-2.0,-1.0,1650911095209103.0,0
1653,-1.0,-1.0,-1.0,-5.0,-16.0,6.0,-2.0,-1.0,1650911095209103.0,0
1654,-4.0,-2.0,-8.0,-9.0,4.0,-10.0,-1.0,-1.0,1650911095221194.0,0
1655,0.0,0.0,3.0,1.0,-16.0,-9.0,-1.0,0.0,1650911095221194.0,0
1656,0.0,3.0,9.0,5.0,4.0,1.0,0.0,1.0,1650911095228684.0,0
1657,-1.0,0.0,-4.0,4.0,13.0,-1.0,-1.0,-2.0,1650911095228684.0,0
1658,1.0,-2.0,-8.0,-10.0,-4.0,-10.0,-3.0,-1.0,1650911095245118.0,0
1659,0.0,1.0,4.0,4.0,-9.0,12.0,-5.0,-1.0,1650911095245118.0,0
1660,-4.0,-5.0,1.0,4.0,29.0,4.0,3.0,1.0,1650911095246351.0,0
1661,1.0,0.0,-6.0,-2.0,1.0,-4.0,2.0,1.0,1650911095246351.0,0
1662,0.0,3.0,4.0,3.0,-11.0,4.0,1.0,0.0,1650911095275354.0,0
1663,-1.0,-2.0,-6.0,-4.0,3.0,-5.0,-1.0,-1.0,1650911095275354.0,0
1664,-2.0,-2.0,-1.0,-1.0,-2.0,0.0,-3.0,-3.0,1650911095276385.0,0
1665,-3.0,-9.0,-15.0,-15.0,-8.0,-1.0,-4.0,-4.0,1650911095276385.0,0
1666,1.0,4.0,6.0,3.0,-3.0,-3.0,2.0,0.0,1650911095281374.0,0
1667,-1.0,0.0,-3.0,-6.0,4.0,-12.0,-4.0,-2.0,1650911095281374.0,0
1668,2.0,-1.0,1.0,1.0,-29.0,-16.0,1.0,1.0,1650911095288469.0,0
1669,-2.0,2.0,7.0,10.0,26.0,21.0,3.0,-1.0,1650911095288469.0,0
1670,-1.0,2.0,-2.0,3.0,8.0,14.0,2.0,0.0,1650911095305666.0,0
1671,-1.0,-1.0,-11.0,-6.0,7.0,-11.0,-1.0,-1.0,1650911095305666.0,0
1672,-2.0,-1.0,2.0,-5.0,-7.0,0.0,-2.0,-3.0,1650911095306324.0,0
1673,0.0,-3.0,1.0,-4.0,-26.0,-13.0,-3.0,-2.0,1650911095306324.0,0
1674,-2.0,-1.0,-7.0,-2.0,-17.0,-4.0,-2.0,-1.0,1650911095328096.0,0
1675,1.0,0.0,7.0,5.0,7.0,-1.0,1.0,-1.0,1650911095328096.0,0
1676,-1.0,0.0,1.0,2.0,23.0,15.0,0.0,1.0,1650911095329062.0,0
1677,1.0,1.0,0.0,5.0,18.0,11.0,4.0,1.0,1650911095329062.0,0
1678,1.0,3.0,4.0,3.0,5.0,3.0,2.0,0.0,1650911095341179.0,0
1679,5.0,-1.0,-2.0,-5.0,-16.0,-8.0,-3.0,-1.0,1650911095341179.0,0
1680,-7.0,-5.0,-5.0,-11.0,-29.0,-22.0,-6.0,-2.0,1650911095349162.0,0
1681,1.0,-2.0,-1.0,-2.0,-7.0,-4.0,-5.0,-1.0,1650911095349162.0,0
1682,0.0,1.0,4.0,10.0,21.0,15.0,1.0,3.0,1650911095365407.0,0
1683,2.0,1.0,-6.0,0.0,9.0,-2.0,5.0,1.0,1650911095365407.0,0
1684,-1.0,-2.0,-4.0,-4.0,-7.0,-5.0,-4.0,-3.0,1650911095366177.0,0
1685,0.0,0.0,3.0,2.0,-11.0,3.0,-1.0,0.0,1650911095366177.0,0
1686,-1.0,-1.0,-2.0,-3.0,16.0,-15.0,0.0,-2.0,1650911095387226.0,0
1687,-3.0,-1.0,7.0,7.0,-24.0,5.0,-2.0,-2.0,1650911095387226.0,0
1688,0.0,1.0,0.0,2.0,21.0,6.0,-2.0,-1.0,1650911095388248.0,0
1689,-1.0,-1.0,-5.0,-3.0,0.0,-3.0,-1.0,0.0,1650911095388248.0,0
1690,-2.0,-6.0,-10.0,-10.0,-10.0,2.0,-2.0,-3.0,1650911095400536.0,0
1691,-2.0,0.0,7.0,2.0,2.0,3.0,2.0,1.0,1650911095400536.0,0
1692,-1.0,0.0,1.0,-3.0,-8.0,-9.0,-1.0,-1.0,1650911095409855.0,0
1693,2.0,-2.0,6.0,4.0,-5.0,-13.0,-4.0,-2.0,1650911095409855.0,0
1694,0.0,-2.0,-2.0,4.0,9.0,16.0,2.0,1.0,1650911095425577.0,0
1695,-1.0,2.0,4.0,7.0,20.0,14.0,6.0,0.0,1650911095425577.0,0
1696,3.0,1.0,-2.0,-1.0,-6.0,1.0,3.0,2.0,1650911095425711.0,0
1697,-1.0,0.0,4.0,-2.0,-13.0,1.0,-3.0,0.0,1650911095425711.0,0
1698,2.0,-2.0,-1.0,1.0,-9.0,-25.0,-4.0,-3.0,1650911095446993.0,0
1699,-6.0,-3.0,-11.0,-2.0,8.0,-2.0,-3.0,-1.0,1650911095446993.0,0
1700,3.0,1.0,1.0,6.0,12.0,6.0,0.0,0.0,1650911095448998.0,0
1701,-1.0,0.0,-3.0,-2.0,16.0,1.0,1.0,0.0,1650911095448998.0,0
1702,0.0,0.0,6.0,-2.0,-40.0,2.0,-2.0,-1.0,1650911095461170.0,0
1703,0.0,0.0,8.0,8.0,15.0,6.0,0.0,2.0,1650911095461170.0,0
1704,-4.0,-3.0,-24.0,-11.0,14.0,4.0,3.0,-1.0,1650911095469431.0,0
1705,0.0,2.0,7.0,3.0,-4.0,-7.0,1.0,1.0,1650911095469431.0,0
1706,-1.0,-1.0,-5.0,-6.0,5.0,1.0,0.0,-2.0,1650911095484675.0,0
1707,-8.0,-3.0,-1.0,-8.0,-18.0,-15.0,-3.0,-2.0,1650911095484675.0,0
1708,2.0,-3.0,4.0,3.0,7.0,-2.0,-2.0,-1.0,1650911095485674.0,0
1709,1.0,-2.0,-6.0,-2.0,-5.0,-1.0,-2.0,-1.0,1650911095485674.0,0
1710,-2.0,0.0,5.0,7.0,5.0,12.0,5.0,2.0,1650911095507750.0,0
1711,2.0,0.0,-7.0,-5.0,5.0,5.0,0.0,0.0,1650911095507750.0,0
1712,1.0,0.0,5.0,2.0,-3.0,8.0,-2.0,0.0,1650911095508587.0,0
1713,-1.0,-1.0,2.0,-1.0,-17.0,-17.0,-2.0,1.0,1650911095508587.0,0
1714,2.0,0.0,-3.0,2.0,18.0,4.0,-1.0,-1.0,1650911095521715.0,0
1715,1.0,1.0,3.0,0.0,2.0,7.0,2.0,-1.0,1650911095521715.0,0
1716,-3.0,-4.0,-5.0,-9.0,-14.0,0.0,-1.0,-3.0,1650911095529533.0,0
1717,0.0,-1.0,1.0,2.0,-15.0,-9.0,-3.0,-1.0,1650911095529533.0,0
1718,-5.0,1.0,-4.0,-4.0,2.0,-6.0,-5.0,-2.0,1650911095544938.0,0
1719,1.0,1.0,4.0,4.0,7.0,4.0,1.0,1.0,1650911095544938.0,0
1720,0.0,1.0,-7.0,-2.0,3.0,3.0,2.0,-1.0,1650911095545775.0,0
1721,0.0,2.0,-7.0,-5.0,-3.0,5.0,0.0,-3.0,1650911095545775.0,0
1722,-4.0,-7.0,-10.0,-16.0,-24.0,-14.0,-5.0,-1.0,1650911095567385.0,0
1723,-1.0,1.0,9.0,7.0,1.0,7.0,0.0,0.0,1650911095567385.0,0
1724,6.0,2.0,4.0,8.0,22.0,9.0,6.0,4.0,1650911095568252.0,0
1725,1.0,0.0,2.0,3.0,8.0,5.0,3.0,-1.0,1650911095568252.0,0
1726,-1.0,1.0,-3.0,-5.0,0.0,-5.0,-2.0,-1.0,1650911095580954.0,0
1727,-1.0,-3.0,-7.0,-10.0,-25.0,-14.0,-6.0,-3.0,1650911095580954.0,0
1728,-3.0,-3.0,-9.0,-14.0,-22.0,0.0,-6.0,-2.0,1650911095590084.0,0
1729,-1.0,0.0,3.0,4.0,10.0,-2.0,1.0,1.0,1650911095590084.0,0
1730,2.0,0.0,4.0,9.0,28.0,11.0,2.0,2.0,1650911095605479.0,0
1731,1.0,1.0,13.0,7.0,13.0,2.0,-1.0,0.0,1650911095605479.0,0
1732,0.0,-3.0,-10.0,-7.0,-14.0,-4.0,-2.0,-1.0,1650911095606515.0,0
1733,7.0,1.0,7.0,0.0,-4.0,-13.0,-4.0,0.0,1650911095606515.0,0
1734,-18.0,-4.0,-2.0,-4.0,-11.0,10.0,-1.0,-2.0,1650911095626816.0,0
1735,0.0,-1.0,-4.0,-1.0,0.0,-7.0,1.0,-1.0,1650911095626816.0,0
1736,1.0,3.0,8.0,8.0,9.0,-3.0,1.0,1.0,1650911095628810.0,0
1737,2.0,-1.0,-5.0,-2.0,-6.0,5.0,2.0,1.0,1650911095628810.0,0
1738,5.0,-1.0,-1.0,-1.0,9.0,1.0,1.0,1.0,1650911095640936.0,0
1739,-3.0,-2.0,-6.0,-5.0,-12.0,-15.0,-4.0,0.0,1650911095640936.0,0
1740,-2.0,0.0,8.0,7.0,1.0,-7.0,1.0,0.0,1650911095649886.0,0
1741,-4.0,-2.0,-4.0,-1.0,7.0,8.0,1.0,-1.0,1650911095649886.0,0
1742,4.0,2.0,7.0,7.0,12.0,8.0,2.0,0.0,1650911095664861.0,0
1743,0.0,-6.0,-18.0,-18.0,-6.0,4.0,-4.0,1.0,1650911095664861.0,0
1744,-2.0,0.0,4.0,-1.0,-13.0,-12.0,-3.0,1.0,1650911095665861.0,0
1745,-4.0,-1.0,1.0,0.0,1.0,0.0,-1.0,0.0,1650911095665861.0,0
1746,3.0,2.0,1.0,2.0,-5.0,0.0,1.0,-1.0,1650911095687073.0,0
1747,2.0,0.0,-4.0,-3.0,-12.0,-1.0,-2.0,-2.0,1650911095687073.0,0
1748,-1.0,-2.0,-4.0,-10.0,-28.0,-19.0,-3.0,-1.0,1650911095689066.0,0
1749,-3.0,1.0,7.0,13.0,18.0,14.0,5.0,2.0,1650911095689066.0,0
1750,6.0,0.0,-6.0,7.0,43.0,10.0,1.0,1.0,1650911095701578.0,0
1751,-15.0,-1.0,-3.0,-4.0,-11.0,-3.0,-1.0,1.0,1650911095701578.0,0
1752,-2.0,-1.0,1.0,-2.0,2.0,3.0,-1.0,-2.0,1650911095709857.0,0
1753,-3.0,-2.0,-7.0,-14.0,-27.0,-14.0,-4.0,-3.0,1650911095709857.0,0
1754,0.0,-3.0,-3.0,-3.0,-30.0,-15.0,-3.0,-2.0,1650911095725144.0,0
1755,4.0,2.0,4.0,6.0,34.0,11.0,1.0,-1.0,1650911095725144.0,0
1756,0.0,1.0,3.0,7.0,9.0,4.0,1.0,0.0,1650911095726075.0,0
1757,-2.0,2.0,-2.0,-4.0,-2.0,3.0,-1.0,-1.0,1650911095726075.0,0
1758,-1.0,1.0,2.0,-1.0,-10.0,-16.0,1.0,1.0,1650911095746578.0,0
1759,2.0,1.0,4.0,8.0,3.0,1.0,0.0,-1.0,1650911095746578.0,0
1760,-1.0,-2.0,-10.0,-1.0,8.0,7.0,1.0,-1.0,1650911095748574.0,0
1761,2.0,0.0,1.0,1.0,0.0,-1.0,0.0,0.0,1650911095748574.0,0
1762,-3.0,-1.0,-5.0,-8.0,-4.0,3.0,-2.0,-2.0,1650911095760901.0,0
1763,-1.0,0.0,3.0,1.0,-11.0,-6.0,-1.0,-2.0,1650911095760901.0,0
1764,0.0,0.0,1.0,0.0,-2.0,-2.0,0.0,0.0,1650911095769711.0,0
1765,-2.0,-3.0,-4.0,0.0,3.0,-5.0,-4.0,-4.0,1650911095769711.0,0
1766,-1.0,0.0,-3.0,-7.0,-25.0,1.0,-2.0,-1.0,1650911095784999.0,0
1767,1.0,2.0,10.0,11.0,20.0,11.0,5.0,1.0,1650911095784999.0,0
1768,0.0,0.0,-4.0,4.0,18.0,5.0,1.0,-1.0,1650911095785999.0,0
1769,-3.0,-4.0,-14.0,-16.0,2.0,-1.0,0.0,-3.0,1650911095785999.0,0
1770,0.0,0.0,1.0,-3.0,-5.0,-5.0,-5.0,-2.0,1650911095807905.0,0
1771,0.0,-2.0,-8.0,-6.0,-20.0,-8.0,1.0,-1.0,1650911095807905.0,0
1772,1.0,-1.0,6.0,0.0,12.0,7.0,-1.0,0.0,1650911095808741.0,0
1773,2.0,0.0,1.0,4.0,-14.0,-10.0,1.0,0.0,1650911095808741.0,0
1774,-1.0,2.0,1.0,5.0,17.0,-1.0,1.0,-1.0,1650911095829875.0,0
1775,-1.0,-2.0,2.0,5.0,21.0,13.0,2.0,0.0,1650911095829875.0,0
1776,3.0,-1.0,-4.0,4.0,3.0,1.0,2.0,0.0,1650911095830877.0,0
1777,0.0,3.0,-1.0,1.0,5.0,19.0,2.0,2.0,1650911095830877.0,0
1778,0.0,-3.0,-1.0,-9.0,-21.0,-12.0,-2.0,-2.0,1650911095844865.0,0
1779,2.0,0.0,2.0,4.0,-16.0,-27.0,-5.0,-2.0,1650911095844865.0,0
1780,-1.0,-2.0,3.0,0.0,5.0,-3.0,-3.0,-1.0,1650911095845823.0,0
1781,-8.0,-2.0,-3.0,1.0,0.0,6.0,-2.0,-2.0,1650911095845823.0,0
1782,2.0,0.0,-1.0,1.0,2.0,4.0,3.0,0.0,1650911095867515.0,0
1783,2.0,-1.0,0.0,-4.0,0.0,8.0,0.0,0.0,1650911095867515.0,0
1784,-1.0,1.0,1.0,3.0,-10.0,-1.0,-1.0,-2.0,1650911095868350.0,0
1785,2.0,0.0,3.0,1.0,3.0,-2.0,-1.0,0.0,1650911095868350.0,0
1786,-1.0,-1.0,-1.0,0.0,-3.0,-4.0,-2.0,-2.0,1650911095890006.0,0
1787,-4.0,-1.0,-4.0,0.0,7.0,7.0,0.0,-1.0,1650911095890006.0,0
1788,2.0,0.0,-1.0,-1.0,5.0,6.0,2.0,1.0,1650911095890848.0,0
1789,0.0,-1.0,0.0,1.0,3.0,-9.0,0.0,1.0,1650911095890848.0,0
1790,-3.0,-2.0,-5.0,-7.0,-18.0,-5.0,-3.0,-1.0,1650911095905808.0,0
1791,1.0,0.0,3.0,0.0,-7.0,-14.0,-2.0,-2.0,1650911095905808.0,0
1792,-4.0,-3.0,8.0,4.0,9.0,-4.0,-2.0,0.0,1650911095905873.0,0
1793,1.0,3.0,-2.0,0.0,5.0,10.0,2.0,2.0,1650911095905873.0,0
1794,-1.0,-3.0,-1.0,5.0,13.0,13.0,2.0,0.0,1650911095927802.0,0
1795,1.0,0.0,1.0,-3.0,-1.0,-2.0,1.0,0.0,1650911095927802.0,0
1796,-4.0,0.0,1.0,-5.0,-13.0,-2.0,-1.0,-2.0,1650911095928769.0,0
1797,-1.0,1.0,4.0,2.0,-2.0,4.0,-5.0,-3.0,1650911095928769.0,0
1798,0.0,-1.0,2.0,-2.0,-9.0,-7.0,-2.0,-1.0,1650911095949714.0,0
1799,1.0,-1.0,-8.0,-2.0,-9.0,1.0,1.0,1.0,1650911095949714.0,0
1800,0.0,0.0,3.0,5.0,4.0,-5.0,-1.0,1.0,1650911095950710.0,0
1801,1.0,-3.0,-5.0,-1.0,7.0,-1.0,2.0,1.0,1650911095950710.0,0
1802,-1.0,2.0,1.0,4.0,-4.0,6.0,3.0,1.0,1650911095964613.0,0
1803,-2.0,-1.0,0.0,-6.0,-11.0,2.0,0.0,-1.0,1650911095964613.0,0
1804,-1.0,-1.0,-5.0,-8.0,-8.0,-13.0,-3.0,-2.0,1650911095965610.0,0
1805,0.0,1.0,2.0,4.0,7.0,7.0,1.0,-1.0,1650911095965610.0,0
1806,1.0,2.0,-3.0,3.0,12.0,10.0,2.0,3.0,1650911095987291.0,0
1807,0.0,1.0,3.0,2.0,-4.0,-3.0,0.0,-2.0,1650911095987291.0,0
1808,0.0,1.0,0.0,2.0,-10.0,-5.0,-3.0,0.0,1650911095988159.0,0
1809,0.0,-3.0,-3.0,-4.0,8.0,-14.0,-1.0,0.0,1650911095988159.0,0
1810,0.0,0.0,4.0,3.0,4.0,11.0,1.0,-1.0,1650911096010022.0,0
1811,-1.0,0.0,-2.0,-3.0,1.0,1.0,-1.0,1.0,1650911096010022.0,0
1812,-1.0,1.0,2.0,2.0,-4.0,3.0,1.0,0.0,1650911096011023.0,0
1813,2.0,-1.0,2.0,-2.0,-13.0,-8.0,-4.0,0.0,1650911096011023.0,0
1814,-10.0,-4.0,-8.0,-10.0,-6.0,-8.0,-2.0,-4.0,1650911096025003.0,0
1815,1.0,-3.0,3.0,1.0,-3.0,2.0,-1.0,1.0,1650911096025003.0,0
1816,1.0,1.0,-1.0,1.0,16.0,6.0,2.0,-1.0,1650911096030971.0,0
1817,-1.0,0.0,-3.0,3.0,9.0,10.0,4.0,-1.0,1650911096030971.0,0
1818,4.0,-1.0,4.0,0.0,-4.0,0.0,2.0,1.0,1650911096047293.0,0
1819,-2.0,-2.0,-6.0,-9.0,3.0,-11.0,-3.0,-1.0,1650911096047293.0,0
1820,-3.0,-2.0,-1.0,-5.0,-25.0,-2.0,-1.0,-2.0,1650911096048189.0,0
1821,3.0,3.0,-2.0,5.0,5.0,0.0,2.0,0.0,1650911096048189.0,0
1822,1.0,0.0,-3.0,-1.0,5.0,3.0,-1.0,1.0,1650911096069188.0,0
1823,1.0,1.0,4.0,5.0,9.0,4.0,0.0,0.0,1650911096069188.0,0
1824,1.0,-1.0,-2.0,1.0,12.0,2.0,-1.0,0.0,1650911096071183.0,0
1825,-2.0,-1.0,4.0,0.0,-12.0,-6.0,-1.0,-3.0,1650911096071183.0,0
1826,-5.0,-3.0,-6.0,-1.0,-5.0,1.0,0.0,-2.0,1650911096084818.0,0
1827,-2.0,-4.0,-5.0,-3.0,-3.0,-14.0,-1.0,0.0,1650911096084818.0,0
1828,1.0,0.0,-1.0,-2.0,-3.0,-3.0,-3.0,1.0,1650911096091306.0,0
1829,0.0,0.0,-1.0,-6.0,-19.0,-2.0,-3.0,-2.0,1650911096091306.0,0
1830,1.0,1.0,7.0,10.0,16.0,22.0,4.0,1.0,1650911096107602.0,0
1831,-2.0,0.0,-1.0,1.0,11.0,0.0,2.0,-1.0,1650911096107602.0,0
1832,-2.0,0.0,-6.0,-7.0,-14.0,6.0,1.0,-1.0,1650911096108445.0,0
1833,-2.0,-2.0,0.0,1.0,8.0,-12.0,-1.0,-3.0,1650911096108445.0,0
1834,0.0,2.0,1.0,-1.0,-2.0,-11.0,-5.0,-1.0,1650911096129859.0,0
1835,0.0,1.0,1.0,0.0,-5.0,12.0,0.0,-2.0,1650911096129859.0,0
1836,-2.0,-3.0,-4.0,-4.0,-1.0,-7.0,-1.0,2.0,1650911096130864.0,0
1837,-3.0,1.0,0.0,1.0,-8.0,5.0,-1.0,-1.0,1650911096130864.0,0
1838,3.0,0.0,1.0,5.0,23.0,6.0,1.0,-1.0,1650911096144572.0,0
1839,-2.0,0.0,-4.0,0.0,-1.0,6.0,0.0,0.0,1650911096144572.0,0
1840,2.0,1.0,-3.0,-3.0,-10.0,-13.0,-4.0,-2.0,1650911096150590.0,0
1841,-1.0,-3.0,0.0,-7.0,-18.0,-12.0,-4.0,-1.0,1650911096150590.0,0
1842,0.0,-1.0,1.0,3.0,-3.0,-2.0,-1.0,1.0,1650911096167401.0,0
1843,2.0,-1.0,3.0,4.0,14.0,9.0,1.0,0.0,1650911096167401.0,0
1844,1.0,-2.0,0.0,-4.0,3.0,1.0,2.0,2.0,1650911096168235.0,0
1845,-3.0,-2.0,-2.0,0.0,-8.0,5.0,0.0,-1.0,1650911096168235.0,0
1846,4.0,2.0,3.0,5.0,22.0,-5.0,-1.0,0.0,1650911096190171.0,0
1847,-2.0,1.0,-2.0,-4.0,-5.0,8.0,1.0,-1.0,1650911096190171.0,0
1848,0.0,2.0,3.0,0.0,-3.0,11.0,0.0,-1.0,1650911096191142.0,0
1849,0.0,-2.0,-3.0,-4.0,2.0,-13.0,-3.0,0.0,1650911096191142.0,0
1850,-2.0,-2.0,-2.0,-7.0,-20.0,-8.0,-2.0,-2.0,1650911096204262.0,0
1851,-1.0,-2.0,2.0,1.0,-8.0,-16.0,-4.0,-2.0,1650911096204262.0,0
1852,-5.0,1.0,1.0,4.0,15.0,-7.0,-2.0,-4.0,1650911096211089.0,0
1853,1.0,-2.0,-6.0,-2.0,7.0,4.0,0.0,0.0,1650911096211089.0,0
1854,-1.0,1.0,-1.0,-2.0,-16.0,3.0,-1.0,0.0,1650911096227411.0,0
1855,1.0,1.0,-3.0,0.0,3.0,3.0,1.0,-2.0,1650911096227411.0,0
1856,3.0,1.0,5.0,4.0,16.0,9.0,0.0,-1.0,1650911096228280.0,0
1857,0.0,-1.0,-3.0,-1.0,-14.0,2.0,-1.0,-1.0,1650911096228280.0,0
1858,-2.0,-3.0,-3.0,-6.0,-3.0,-13.0,0.0,-2.0,1650911096250430.0,0
1859,-2.0,1.0,0.0,-1.0,-24.0,-1.0,-3.0,-3.0,1650911096250430.0,0
1860,0.0,2.0,1.0,2.0,11.0,6.0,3.0,2.0,1650911096251270.0,0
1861,-4.0,-2.0,2.0,0.0,20.0,0.0,1.0,-1.0,1650911096251270.0,0
1862,0.0,0.0,-4.0,4.0,-1.0,0.0,-1.0,0.0,1650911096263436.0,0
1863,0.0,2.0,2.0,1.0,2.0,9.0,2.0,2.0,1650911096263436.0,0
1864,3.0,-1.0,0.0,-2.0,-5.0,-13.0,2.0,1.0,1650911096272396.0,0
1865,-1.0,2.0,0.0,-1.0,-6.0,-16.0,-3.0,1.0,1650911096272396.0,0
1866,-1.0,1.0,1.0,-3.0,1.0,0.0,-1.0,0.0,1650911096287780.0,0
1867,-2.0,0.0,-4.0,-5.0,-1.0,1.0,-1.0,1.0,1650911096287780.0,0
1868,7.0,0.0,0.0,-2.0,-10.0,0.0,-1.0,1.0,1650911096288620.0,0
1869,-16.0,-2.0,-3.0,-5.0,-8.0,0.0,-6.0,-2.0,1650911096288620.0,0
1870,-2.0,-2.0,0.0,-4.0,-18.0,-12.0,-1.0,-5.0,1650911096309947.0,0
1871,3.0,3.0,2.0,10.0,35.0,14.0,5.0,1.0,1650911096309947.0,0
1872,3.0,5.0,10.0,9.0,31.0,21.0,5.0,6.0,1650911096310804.0,0
1873,0.0,-2.0,-6.0,4.0,-5.0,-2.0,3.0,-4.0,1650911096310804.0,0
1874,-4.0,-3.0,1.0,-4.0,-4.0,-5.0,-3.0,0.0,1650911096324030.0,0
1875,-4.0,-5.0,-7.0,-8.0,-28.0,-5.0,-4.0,-3.0,1650911096324030.0,0
1876,6.0,3.0,5.0,-3.0,-11.0,-1.0,0.0,1.0,1650911096339327.0,0
1877,-9.0,-2.0,3.0,3.0,13.0,-7.0,-4.0,-6.0,1650911096339327.0,0
1878,2.0,1.0,0.0,3.0,5.0,2.0,-3.0,0.0,1650911096347369.0,0
1879,1.0,-3.0,0.0,4.0,14.0,6.0,2.0,-2.0,1650911096347369.0,0
1880,7.0,7.0,2.0,0.0,-11.0,-3.0,2.0,5.0,1650911096348264.0,0
1881,1.0,-4.0,-3.0,-5.0,-16.0,2.0,-2.0,-6.0,1650911096348264.0,0
1882,3.0,1.0,-5.0,-1.0,8.0,10.0,13.0,6.0,1650911096369177.0,0
1883,-3.0,-3.0,-8.0,-3.0,-2.0,-13.0,0.0,3.0,1650911096369177.0,0
1884,-4.0,-2.0,-2.0,2.0,4.0,-4.0,-16.0,-20.0,1650911096371171.0,0
1885,3.0,-5.0,-1.0,-3.0,-6.0,6.0,-1.0,11.0,1650911096371171.0,0
