,EMG_s0,EMG_s1,EMG_s2,EMG_s3,EMG_s4,EMG_s5,EMG_s6,EMG_s7,timestamp,signal
0,0.0,-1.0,2.0,0.0,-2.0,-2.0,-1.0,-1.0,1651069065016477.0,0
1,0.0,1.0,-1.0,-1.0,-1.0,-3.0,-1.0,-1.0,1651069065016477.0,0
2,0.0,0.0,-1.0,-3.0,-5.0,-1.0,0.0,-1.0,1651069065017495.0,0
3,-1.0,1.0,0.0,1.0,2.0,1.0,0.0,0.0,1651069065017495.0,0
4,0.0,-2.0,-2.0,2.0,3.0,2.0,-3.0,-2.0,1651069065038616.0,0
5,0.0,-1.0,0.0,-1.0,0.0,0.0,-1.0,-1.0,1651069065038616.0,0
6,0.0,1.0,1.0,-2.0,-2.0,1.0,0.0,-1.0,1651069065040571.0,0
7,-1.0,0.0,-2.0,-3.0,-7.0,-3.0,-2.0,0.0,1651069065040571.0,0
8,0.0,0.0,0.0,2.0,8.0,3.0,3.0,1.0,1651069065053679.0,0
9,2.0,-2.0,-1.0,0.0,0.0,2.0,1.0,0.0,1651069065053679.0,0
10,-1.0,-1.0,-1.0,-1.0,-3.0,-4.0,-3.0,-2.0,1651069065055635.0,0
11,-1.0,-1.0,0.0,2.0,2.0,1.0,-1.0,0.0,1651069065055635.0,0
12,-1.0,1.0,-2.0,-1.0,-2.0,-2.0,-1.0,-1.0,1651069065076617.0,0
13,-1.0,-1.0,0.0,0.0,-4.0,-4.0,-2.0,-1.0,1651069065076617.0,0
14,-1.0,1.0,1.0,0.0,3.0,1.0,-1.0,0.0,1651069065077586.0,0
15,0.0,-2.0,-1.0,-1.0,-2.0,1.0,3.0,1.0,1651069065077586.0,0
16,-2.0,-1.0,0.0,-2.0,-4.0,-4.0,0.0,-1.0,1651069065098259.0,0
17,0.0,-1.0,0.0,0.0,1.0,3.0,0.0,1.0,1651069065098259.0,0
18,-1.0,-1.0,0.0,-2.0,3.0,-3.0,-3.0,-1.0,1651069065105300.0,0
19,0.0,-1.0,-1.0,-1.0,-1.0,0.0,-2.0,-1.0,1651069065105300.0,0
20,0.0,-2.0,-2.0,-2.0,-2.0,1.0,-2.0,-1.0,1651069065113321.0,0
21,-1.0,-3.0,0.0,-2.0,-2.0,-3.0,-1.0,-2.0,1651069065113321.0,0
22,0.0,-2.0,0.0,-1.0,-3.0,-5.0,-1.0,0.0,1651069065120390.0,0
23,-1.0,-2.0,-1.0,-2.0,0.0,4.0,-1.0,-2.0,1651069065120390.0,0
24,-1.0,1.0,0.0,1.0,2.0,-2.0,-2.0,-1.0,1651069065136113.0,0
25,1.0,2.0,0.0,-2.0,-4.0,-2.0,0.0,0.0,1651069065136113.0,0
26,1.0,-1.0,0.0,-1.0,-1.0,2.0,2.0,-1.0,1651069065138041.0,0
27,0.0,-1.0,-1.0,0.0,-3.0,-3.0,-2.0,0.0,1651069065138041.0,0
28,1.0,-2.0,-1.0,0.0,0.0,0.0,0.0,1.0,1651069065159213.0,0
29,-2.0,0.0,-2.0,0.0,-2.0,-1.0,1.0,0.0,1651069065159213.0,0
30,-2.0,-2.0,0.0,2.0,4.0,1.0,-1.0,0.0,1651069065160204.0,0
31,-1.0,1.0,2.0,0.0,-3.0,-2.0,-1.0,-3.0,1651069065160204.0,0
32,-1.0,-1.0,0.0,0.0,1.0,-1.0,-1.0,-1.0,1651069065173236.0,0
33,1.0,-2.0,0.0,-1.0,1.0,7.0,1.0,1.0,1651069065173236.0,0
34,0.0,-1.0,-2.0,-1.0,-9.0,-4.0,0.0,0.0,1651069065180203.0,0
35,0.0,1.0,1.0,3.0,13.0,5.0,2.0,1.0,1651069065180203.0,0
36,0.0,-1.0,0.0,-2.0,-2.0,-2.0,-2.0,-1.0,1651069065196162.0,0
37,-1.0,0.0,-2.0,-1.0,1.0,-4.0,0.0,-1.0,1651069065196162.0,0
38,-1.0,-1.0,0.0,-2.0,-1.0,4.0,-1.0,-1.0,1651069065198158.0,0
39,0.0,-1.0,-1.0,1.0,2.0,1.0,-1.0,-1.0,1651069065198158.0,0
40,-2.0,-2.0,-2.0,-3.0,-7.0,-1.0,-3.0,0.0,1651069065219105.0,0
41,-1.0,-3.0,0.0,2.0,3.0,-2.0,-2.0,-3.0,1651069065219105.0,0
42,0.0,0.0,1.0,-1.0,-1.0,-1.0,0.0,-2.0,1651069065220106.0,0
43,0.0,0.0,-2.0,-2.0,-6.0,-4.0,-1.0,-2.0,1651069065220106.0,0
44,-1.0,-1.0,0.0,0.0,3.0,1.0,0.0,0.0,1651069065233064.0,0
45,-1.0,0.0,-2.0,-1.0,-5.0,-3.0,-1.0,-1.0,1651069065233064.0,0
46,0.0,0.0,-1.0,-1.0,-3.0,-1.0,1.0,0.0,1651069065240072.0,0
47,0.0,-2.0,0.0,0.0,-2.0,0.0,0.0,-1.0,1651069065240072.0,0
48,0.0,1.0,-2.0,-1.0,-1.0,-2.0,1.0,-2.0,1651069065256032.0,0
49,-1.0,-1.0,0.0,-1.0,-1.0,-4.0,-2.0,0.0,1651069065256032.0,0
50,0.0,-1.0,0.0,1.0,5.0,1.0,1.0,0.0,1651069065257997.0,0
51,0.0,1.0,0.0,-1.0,-1.0,3.0,1.0,0.0,1651069065257997.0,0
52,2.0,-1.0,0.0,-1.0,-1.0,1.0,0.0,-3.0,1651069065278942.0,0
53,-2.0,-1.0,-2.0,1.0,3.0,1.0,0.0,0.0,1651069065278942.0,0
54,0.0,-1.0,-1.0,0.0,2.0,-3.0,0.0,-1.0,1651069065279960.0,0
55,-1.0,-2.0,-3.0,-1.0,-6.0,-6.0,-2.0,0.0,1651069065279960.0,0
56,-1.0,1.0,0.0,1.0,0.0,0.0,-1.0,0.0,1651069065292930.0,0
57,-1.0,0.0,2.0,2.0,2.0,2.0,1.0,-2.0,1651069065292930.0,0
58,0.0,2.0,0.0,-1.0,-1.0,0.0,-2.0,-1.0,1651069065299908.0,0
59,0.0,-1.0,-2.0,1.0,-4.0,-2.0,-1.0,0.0,1651069065299908.0,0
60,-1.0,0.0,-2.0,-1.0,0.0,-1.0,-1.0,1.0,1651069065315901.0,0
61,-2.0,-2.0,0.0,-3.0,2.0,-2.0,-1.0,0.0,1651069065315901.0,0
62,-1.0,-1.0,-1.0,0.0,1.0,2.0,0.0,1.0,1651069065317868.0,0
63,-1.0,0.0,-1.0,-1.0,-1.0,0.0,1.0,-1.0,1651069065317868.0,0
64,0.0,-1.0,0.0,0.0,-1.0,0.0,1.0,-1.0,1651069065338832.0,0
65,0.0,1.0,-1.0,-2.0,-5.0,-4.0,-1.0,0.0,1651069065338832.0,0
66,1.0,-1.0,-1.0,-1.0,-1.0,2.0,-1.0,1.0,1651069065340816.0,0
67,1.0,-1.0,0.0,-2.0,-1.0,-3.0,-1.0,0.0,1651069065340816.0,0
68,-1.0,1.0,2.0,-1.0,0.0,-2.0,0.0,-1.0,1651069065352767.0,0
69,0.0,1.0,-1.0,0.0,3.0,2.0,2.0,0.0,1651069065352767.0,0
70,0.0,-1.0,-1.0,0.0,1.0,0.0,0.0,0.0,1651069065359750.0,0
71,0.0,-1.0,0.0,1.0,4.0,4.0,0.0,-1.0,1651069065359750.0,0
72,-1.0,1.0,-2.0,-2.0,-6.0,-3.0,-1.0,-1.0,1651069065374736.0,0
73,0.0,0.0,0.0,-1.0,-1.0,1.0,-1.0,-1.0,1651069065374736.0,0
74,0.0,0.0,-1.0,-2.0,-1.0,-3.0,1.0,0.0,1651069065383685.0,0
75,-1.0,-1.0,2.0,-3.0,-4.0,-3.0,-3.0,-2.0,1651069065383685.0,0
76,-1.0,-1.0,-1.0,0.0,3.0,2.0,0.0,0.0,1651069065398674.0,0
77,0.0,-1.0,-1.0,0.0,0.0,1.0,0.0,-1.0,1651069065398674.0,0
78,-1.0,-1.0,-1.0,0.0,0.0,1.0,-1.0,-3.0,1651069065400640.0,0
79,-3.0,1.0,-2.0,-3.0,-1.0,-3.0,1.0,-1.0,1651069065400640.0,0
80,0.0,-2.0,-1.0,0.0,1.0,0.0,-1.0,1.0,1651069065421611.0,0
81,0.0,0.0,1.0,-1.0,-4.0,-1.0,0.0,0.0,1651069065421611.0,0
82,-1.0,-1.0,-1.0,1.0,-3.0,-1.0,-1.0,1.0,1651069065422582.0,0
83,-1.0,0.0,0.0,1.0,2.0,1.0,-1.0,1.0,1651069065422582.0,0
84,-1.0,-2.0,-1.0,-2.0,-5.0,-1.0,0.0,1.0,1651069065435628.0,0
85,0.0,-1.0,-1.0,2.0,7.0,4.0,1.0,0.0,1651069065435628.0,0
86,-2.0,0.0,-1.0,0.0,-1.0,-2.0,-3.0,-3.0,1651069065443605.0,0
87,-1.0,0.0,0.0,-1.0,-1.0,-1.0,1.0,0.0,1651069065443605.0,0
88,-1.0,-1.0,0.0,0.0,-2.0,-1.0,-1.0,-2.0,1651069065458717.0,0
89,1.0,-1.0,-1.0,-1.0,-3.0,-3.0,-2.0,-2.0,1651069065458717.0,0
90,0.0,-1.0,-1.0,-2.0,1.0,4.0,2.0,1.0,1651069065460712.0,0
91,0.0,-1.0,-1.0,-1.0,-3.0,-3.0,-2.0,-1.0,1651069065460712.0,0
92,-2.0,-1.0,1.0,2.0,5.0,-2.0,-2.0,-1.0,1651069065481833.0,0
93,0.0,1.0,1.0,0.0,-3.0,-5.0,-2.0,0.0,1651069065481833.0,0
94,0.0,0.0,0.0,0.0,1.0,-1.0,-1.0,-1.0,1651069065482820.0,0
95,0.0,0.0,0.0,-5.0,-9.0,-4.0,-2.0,-1.0,1651069065482820.0,0
96,0.0,-1.0,-3.0,0.0,5.0,0.0,0.0,0.0,1651069065504052.0,0
97,-3.0,-1.0,-2.0,-3.0,-4.0,-2.0,-2.0,-1.0,1651069065504052.0,0
98,-2.0,-1.0,0.0,2.0,4.0,-1.0,0.0,2.0,1651069065505021.0,0
99,0.0,-1.0,0.0,1.0,3.0,1.0,2.0,-1.0,1651069065505021.0,0
100,0.0,-1.0,2.0,0.0,-7.0,-4.0,-1.0,-1.0,1651069065518993.0,0
101,0.0,0.0,-1.0,-1.0,0.0,-1.0,-1.0,-1.0,1651069065518993.0,0
102,0.0,1.0,0.0,-1.0,-5.0,-2.0,-1.0,-2.0,1651069065519956.0,0
103,-1.0,-1.0,-1.0,-1.0,1.0,-2.0,-1.0,0.0,1651069065519956.0,0
104,-1.0,-1.0,0.0,0.0,3.0,2.0,2.0,0.0,1651069065541253.0,0
105,-1.0,0.0,-2.0,-2.0,-1.0,0.0,-1.0,1.0,1651069065541253.0,0
106,-1.0,0.0,0.0,-1.0,-4.0,-2.0,-1.0,-1.0,1651069065547277.0,0
107,-2.0,0.0,-1.0,1.0,3.0,-1.0,0.0,1.0,1651069065547277.0,0
108,0.0,0.0,-1.0,0.0,0.0,1.0,0.0,0.0,1651069065564232.0,0
109,-1.0,-1.0,1.0,1.0,0.0,1.0,0.0,0.0,1651069065564232.0,0
110,-1.0,-2.0,-3.0,-1.0,-1.0,-1.0,0.0,-1.0,1651069065565351.0,0
111,-1.0,0.0,-1.0,-1.0,0.0,0.0,-1.0,-3.0,1651069065565351.0,0
112,0.0,0.0,-1.0,-1.0,-2.0,-1.0,0.0,-1.0,1651069065579318.0,0
113,0.0,0.0,0.0,-1.0,-1.0,-1.0,1.0,-1.0,1651069065579318.0,0
114,1.0,0.0,0.0,0.0,1.0,1.0,1.0,0.0,1651069065580312.0,0
115,0.0,-2.0,0.0,0.0,-1.0,0.0,1.0,-2.0,1651069065580312.0,0
116,0.0,0.0,0.0,-2.0,-3.0,-1.0,0.0,-1.0,1651069065601472.0,0
117,-2.0,0.0,0.0,-1.0,-2.0,-3.0,0.0,-2.0,1651069065601472.0,0
118,0.0,0.0,0.0,-1.0,3.0,3.0,0.0,0.0,1651069065602401.0,0
119,0.0,-2.0,-2.0,-2.0,-1.0,0.0,0.0,0.0,1651069065602401.0,0
120,0.0,-2.0,-2.0,0.0,0.0,1.0,-2.0,0.0,1651069065623566.0,0
121,-1.0,-2.0,0.0,0.0,0.0,-3.0,0.0,-1.0,1651069065623566.0,0
122,0.0,-1.0,-1.0,-1.0,-1.0,-1.0,-2.0,0.0,1651069065625495.0,0
123,0.0,0.0,1.0,0.0,-4.0,-2.0,0.0,0.0,1651069065625495.0,0
124,1.0,1.0,-2.0,0.0,3.0,1.0,1.0,0.0,1651069065638526.0,0
125,-1.0,-2.0,-3.0,-3.0,-9.0,-1.0,-1.0,-1.0,1651069065638526.0,0
126,-1.0,-2.0,-1.0,1.0,4.0,-1.0,0.0,1.0,1651069065644510.0,0
127,0.0,-1.0,-2.0,-1.0,0.0,-3.0,-2.0,0.0,1651069065644510.0,0
128,0.0,-2.0,0.0,-4.0,-8.0,-2.0,-2.0,-1.0,1651069065661453.0,0
129,-1.0,-2.0,1.0,3.0,11.0,9.0,1.0,1.0,1651069065661453.0,0
130,-2.0,-1.0,0.0,0.0,2.0,-3.0,-2.0,-1.0,1651069065663387.0,0
131,0.0,0.0,0.0,-1.0,-2.0,-4.0,-2.0,-1.0,1651069065663387.0,0
132,0.0,0.0,-1.0,2.0,0.0,2.0,3.0,1.0,1651069065683767.0,0
133,-2.0,1.0,-2.0,-2.0,-5.0,0.0,-1.0,0.0,1651069065683767.0,0
134,-1.0,-1.0,-2.0,-2.0,-3.0,-1.0,0.0,-1.0,1651069065685508.0,0
135,0.0,-1.0,-1.0,0.0,2.0,2.0,-2.0,-1.0,1651069065685508.0,0
136,-2.0,3.0,0.0,-2.0,0.0,-1.0,-2.0,-4.0,1651069065698445.0,0
137,1.0,0.0,-1.0,-2.0,-1.0,-2.0,-2.0,0.0,1651069065698445.0,0
138,-1.0,-2.0,-1.0,0.0,-1.0,-1.0,1.0,-2.0,1651069065705368.0,0
139,-1.0,-1.0,-2.0,-1.0,0.0,0.0,-1.0,-2.0,1651069065705368.0,0
140,0.0,-2.0,-1.0,-2.0,-1.0,1.0,1.0,1.0,1651069065721438.0,0
141,0.0,-1.0,0.0,-1.0,0.0,-2.0,-1.0,-2.0,1651069065721438.0,0
142,1.0,-1.0,-1.0,-2.0,-2.0,-1.0,-1.0,0.0,1651069065722448.0,0
143,1.0,0.0,0.0,-1.0,-2.0,-1.0,0.0,0.0,1651069065722448.0,0
144,-1.0,0.0,-1.0,-1.0,1.0,3.0,0.0,-2.0,1651069065743379.0,0
145,0.0,0.0,-1.0,0.0,-2.0,-4.0,1.0,0.0,1651069065743379.0,0
146,-1.0,0.0,-1.0,-1.0,-4.0,-2.0,-3.0,0.0,1651069065745374.0,0
147,0.0,-1.0,0.0,1.0,5.0,3.0,2.0,1.0,1651069065745374.0,0
148,-1.0,-1.0,0.0,1.0,-3.0,-4.0,-2.0,-1.0,1651069065758339.0,0
149,1.0,-1.0,-3.0,0.0,0.0,0.0,0.0,-1.0,1651069065758339.0,0
150,0.0,1.0,0.0,-2.0,-7.0,-1.0,-1.0,-2.0,1651069065765388.0,0
151,-2.0,0.0,-2.0,-2.0,-3.0,-4.0,-3.0,-1.0,1651069065765388.0,0
152,-1.0,-1.0,0.0,0.0,5.0,1.0,-1.0,1.0,1651069065781684.0,0
153,-1.0,0.0,1.0,-2.0,-2.0,-1.0,0.0,0.0,1651069065781684.0,0
154,-1.0,0.0,-2.0,0.0,6.0,1.0,0.0,0.0,1651069065782685.0,0
155,1.0,-1.0,0.0,-1.0,-1.0,1.0,0.0,-1.0,1651069065782685.0,0
156,1.0,-1.0,-3.0,0.0,-3.0,-5.0,-2.0,-2.0,1651069065803679.0,0
157,0.0,-1.0,-1.0,-2.0,0.0,0.0,-1.0,0.0,1651069065803679.0,0
158,-2.0,-2.0,-1.0,-1.0,-1.0,1.0,0.0,-1.0,1651069065805701.0,0
159,-2.0,0.0,-1.0,1.0,-3.0,0.0,1.0,1.0,1651069065805701.0,0
160,0.0,1.0,0.0,1.0,1.0,3.0,0.0,1.0,1651069065826717.0,0
161,-1.0,-1.0,0.0,0.0,-2.0,1.0,-1.0,-2.0,1651069065826717.0,0
162,0.0,-1.0,1.0,0.0,-1.0,-3.0,-2.0,-2.0,1651069065827703.0,0
163,0.0,-1.0,-1.0,-1.0,-1.0,1.0,0.0,0.0,1651069065827703.0,0
164,0.0,0.0,1.0,-2.0,-3.0,-1.0,1.0,0.0,1651069065841773.0,0
165,-1.0,0.0,0.0,1.0,4.0,0.0,0.0,1.0,1651069065841773.0,0
166,0.0,-1.0,1.0,-2.0,0.0,0.0,-1.0,0.0,1651069065842758.0,0
167,-1.0,-1.0,-1.0,2.0,0.0,-1.0,0.0,1.0,1651069065842758.0,0
168,-1.0,-1.0,0.0,-2.0,-1.0,-2.0,-1.0,0.0,1651069065863748.0,0
169,1.0,1.0,-2.0,-1.0,-2.0,-1.0,0.0,-2.0,1651069065863748.0,0
170,-1.0,0.0,-3.0,-1.0,-4.0,-4.0,-2.0,0.0,1651069065865675.0,0
171,0.0,-2.0,1.0,0.0,-1.0,4.0,1.0,0.0,1651069065865675.0,0
172,1.0,-1.0,1.0,1.0,5.0,-2.0,-1.0,-1.0,1651069065878641.0,0
173,-1.0,0.0,0.0,0.0,-6.0,5.0,2.0,1.0,1651069065878641.0,0
174,0.0,0.0,0.0,2.0,9.0,2.0,1.0,0.0,1651069065885359.0,0
175,0.0,0.0,-1.0,-1.0,-2.0,-2.0,-2.0,-1.0,1651069065885359.0,0
176,-1.0,-2.0,-1.0,0.0,-4.0,-4.0,-4.0,-2.0,1651069065909353.0,0
177,0.0,-2.0,-1.0,-1.0,1.0,-2.0,-2.0,0.0,1651069065909353.0,0
178,0.0,0.0,1.0,0.0,-6.0,1.0,2.0,-1.0,1651069065910406.0,0
179,-2.0,1.0,-1.0,1.0,9.0,1.0,1.0,-2.0,1651069065910406.0,0
180,-2.0,0.0,0.0,-1.0,1.0,1.0,0.0,0.0,1651069065924269.0,0
181,0.0,0.0,-1.0,-1.0,-3.0,-3.0,-1.0,1.0,1651069065924269.0,0
182,-1.0,-2.0,-2.0,1.0,-4.0,-3.0,-1.0,1.0,1651069065925270.0,0
183,1.0,0.0,0.0,-1.0,-1.0,-1.0,1.0,0.0,1651069065925270.0,0
184,0.0,0.0,1.0,-2.0,-1.0,-1.0,-1.0,-1.0,1651069065938298.0,0
185,1.0,-1.0,1.0,1.0,3.0,2.0,-1.0,0.0,1651069065938298.0,0
186,0.0,0.0,0.0,-2.0,-2.0,-5.0,-1.0,0.0,1651069065945283.0,0
187,-1.0,-1.0,-1.0,0.0,0.0,4.0,2.0,-1.0,1651069065945283.0,0
188,-1.0,-1.0,-2.0,-1.0,-2.0,-2.0,-1.0,1.0,1651069065961363.0,0
189,0.0,-1.0,0.0,0.0,-1.0,-2.0,1.0,-1.0,1651069065961363.0,0
190,-1.0,-1.0,0.0,1.0,6.0,1.0,0.0,-2.0,1651069065963313.0,0
191,-1.0,0.0,0.0,-2.0,-2.0,-3.0,-1.0,1.0,1651069065963313.0,0
192,-2.0,1.0,1.0,0.0,1.0,3.0,0.0,0.0,1651069065984232.0,0
193,-1.0,0.0,-1.0,-3.0,-3.0,-1.0,0.0,-1.0,1651069065984232.0,0
194,1.0,1.0,-1.0,-2.0,-3.0,-2.0,2.0,-1.0,1651069065985394.0,0
195,0.0,-2.0,1.0,-2.0,-1.0,3.0,-1.0,-2.0,1651069065985394.0,0
196,-1.0,0.0,1.0,0.0,1.0,-3.0,-2.0,0.0,1651069065997428.0,0
197,0.0,-1.0,-1.0,-1.0,0.0,1.0,0.0,-1.0,1651069065997428.0,0
198,-2.0,1.0,-2.0,0.0,-1.0,-4.0,-2.0,-1.0,1651069066006350.0,0
199,0.0,-1.0,-2.0,0.0,-1.0,2.0,-1.0,1.0,1651069066006350.0,0
200,-1.0,1.0,0.0,-4.0,-6.0,-5.0,-1.0,0.0,1651069066021534.0,0
201,-3.0,0.0,-1.0,0.0,3.0,2.0,2.0,-1.0,1651069066021534.0,0
202,-1.0,-1.0,-2.0,-2.0,-1.0,0.0,-1.0,-1.0,1651069066022465.0,0
203,-2.0,1.0,1.0,1.0,-1.0,-6.0,-2.0,0.0,1651069066022465.0,0
204,-2.0,-1.0,-3.0,0.0,2.0,-1.0,1.0,-1.0,1651069066044241.0,0
205,-1.0,0.0,0.0,0.0,-2.0,0.0,-2.0,-1.0,1651069066044241.0,0
206,0.0,-1.0,-1.0,0.0,5.0,5.0,1.0,0.0,1651069066045248.0,0
207,-1.0,-1.0,0.0,-2.0,-9.0,-6.0,-4.0,-1.0,1651069066045248.0,0
208,0.0,0.0,2.0,2.0,6.0,6.0,2.0,0.0,1651069066057276.0,0
209,-1.0,1.0,-2.0,0.0,6.0,5.0,1.0,1.0,1651069066057276.0,0
210,1.0,-1.0,-2.0,-1.0,-2.0,-1.0,0.0,0.0,1651069066066190.0,0
211,-2.0,-1.0,-1.0,-3.0,-17.0,-9.0,-2.0,-1.0,1651069066066190.0,0
212,-1.0,-1.0,-2.0,6.0,22.0,10.0,2.0,-2.0,1651069066081243.0,0
213,0.0,3.0,8.0,0.0,-2.0,-5.0,-2.0,-1.0,1651069066081243.0,0
214,2.0,3.0,4.0,5.0,2.0,5.0,5.0,1.0,1651069066083268.0,0
215,-1.0,-4.0,-8.0,-12.0,-5.0,-1.0,2.0,0.0,1651069066083268.0,0
216,-2.0,-4.0,-4.0,-2.0,-10.0,-7.0,-1.0,-2.0,1651069066103678.0,0
217,-2.0,-2.0,-7.0,-8.0,-4.0,-4.0,-1.0,0.0,1651069066103678.0,0
218,1.0,4.0,17.0,11.0,8.0,2.0,-1.0,1.0,1651069066105672.0,1
219,1.0,4.0,6.0,13.0,12.0,1.0,-1.0,-1.0,1651069066105672.0,1
220,4.0,10.0,31.0,25.0,0.0,0.0,-1.0,1.0,1651069066117707.0,1
221,-8.0,-16.0,-42.0,-41.0,-16.0,-5.0,-3.0,-5.0,1651069066117707.0,1
222,5.0,11.0,37.0,33.0,19.0,8.0,2.0,1.0,1651069066126795.0,1
223,-9.0,-18.0,-44.0,-37.0,-7.0,-6.0,-4.0,-4.0,1651069066126795.0,1
224,1.0,1.0,-10.0,-6.0,-18.0,-11.0,-4.0,1.0,1651069066141757.0,1
225,-12.0,9.0,23.0,33.0,42.0,27.0,8.0,0.0,1651069066141757.0,1
226,45.0,4.0,-15.0,-44.0,-46.0,-19.0,-3.0,4.0,1651069066142743.0,1
227,-1.0,-19.0,2.0,7.0,-6.0,2.0,2.0,5.0,1651069066142743.0,1
228,5.0,7.0,-14.0,-39.0,-6.0,-8.0,-1.0,0.0,1651069066163799.0,1
229,-6.0,-9.0,-30.0,-40.0,-18.0,-10.0,-1.0,-1.0,1651069066163799.0,1
230,-13.0,0.0,4.0,25.0,34.0,16.0,-3.0,-4.0,1651069066165804.0,1
231,17.0,15.0,47.0,23.0,18.0,17.0,9.0,9.0,1651069066165804.0,1
232,5.0,-7.0,-15.0,14.0,-22.0,-7.0,-1.0,1.0,1651069066177832.0,1
233,1.0,6.0,30.0,41.0,15.0,1.0,-3.0,-10.0,1651069066177832.0,1
234,-12.0,-12.0,-31.0,-70.0,-13.0,-3.0,-2.0,4.0,1651069066186918.0,1
235,-23.0,17.0,17.0,104.0,30.0,7.0,8.0,6.0,1651069066186918.0,1
236,15.0,1.0,2.0,-25.0,7.0,10.0,10.0,6.0,1651069066201022.0,1
237,5.0,-2.0,-13.0,-17.0,-18.0,-7.0,-8.0,-7.0,1651069066201022.0,1
238,-8.0,-4.0,-7.0,-27.0,-19.0,-1.0,6.0,7.0,1651069066203047.0,1
239,-2.0,0.0,14.0,36.0,30.0,-10.0,-50.0,-43.0,1651069066203047.0,1
240,-22.0,-18.0,-37.0,-36.0,-35.0,-8.0,24.0,21.0,1651069066224257.0,1
241,17.0,11.0,22.0,10.0,0.0,4.0,26.0,20.0,1651069066224257.0,1
242,-25.0,-17.0,-27.0,5.0,-12.0,-14.0,-9.0,-17.0,1651069066225257.0,1
243,4.0,1.0,6.0,-41.0,-18.0,-8.0,7.0,9.0,1651069066225257.0,1
244,-10.0,-8.0,-27.0,43.0,15.0,-5.0,-43.0,-40.0,1651069066237224.0,1
245,28.0,-1.0,21.0,-17.0,7.0,-9.0,-69.0,-48.0,1651069066237224.0,1
246,27.0,-8.0,-44.0,-36.0,-23.0,18.0,85.0,78.0,1651069066246201.0,1
247,-3.0,4.0,31.0,3.0,9.0,3.0,5.0,-4.0,1651069066246201.0,1
248,-11.0,-5.0,4.0,12.0,16.0,4.0,-7.0,-7.0,1651069066261228.0,1
249,12.0,5.0,6.0,14.0,-8.0,-13.0,5.0,11.0,1651069066261228.0,1
250,-11.0,4.0,20.0,-18.0,4.0,1.0,-37.0,-33.0,1651069066263156.0,1
251,19.0,2.0,-9.0,43.0,18.0,4.0,4.0,4.0,1651069066263156.0,1
252,-3.0,13.0,43.0,0.0,-20.0,-4.0,3.0,10.0,1651069066284231.0,1
253,-37.0,-6.0,-8.0,-28.0,-1.0,-2.0,-11.0,-11.0,1651069066284231.0,1
254,4.0,11.0,15.0,46.0,35.0,-5.0,-38.0,-19.0,1651069066285526.0,1
255,-28.0,-15.0,-29.0,-69.0,-44.0,-7.0,-3.0,5.0,1651069066285526.0,1
256,10.0,7.0,1.0,-78.0,-21.0,-1.0,3.0,1.0,1651069066297494.0,1
257,17.0,-1.0,-8.0,74.0,31.0,6.0,-18.0,-13.0,1651069066297494.0,1
258,34.0,12.0,38.0,44.0,15.0,2.0,27.0,23.0,1651069066306457.0,1
259,-31.0,-22.0,-42.0,-59.0,-31.0,-17.0,-39.0,-33.0,1651069066306457.0,1
260,80.0,-24.0,-58.0,-70.0,-26.0,-11.0,-2.0,25.0,1651069066320659.0,1
261,-49.0,2.0,18.0,-19.0,-19.0,-2.0,19.0,11.0,1651069066320659.0,1
262,-6.0,-3.0,19.0,30.0,22.0,-1.0,-24.0,-28.0,1651069066327668.0,1
263,1.0,14.0,-24.0,-6.0,-1.0,11.0,50.0,34.0,1651069066327668.0,1
264,42.0,3.0,65.0,70.0,73.0,30.0,-16.0,-21.0,1651069066343598.0,1
265,5.0,-29.0,-23.0,68.0,2.0,-5.0,20.0,33.0,1651069066343598.0,1
266,-27.0,6.0,-44.0,-35.0,-31.0,-13.0,-19.0,-27.0,1651069066345620.0,1
267,27.0,-4.0,57.0,-57.0,-34.0,-12.0,-4.0,3.0,1651069066345620.0,1
268,-32.0,12.0,11.0,81.0,34.0,5.0,-4.0,-5.0,1651069066367683.0,1
269,46.0,11.0,27.0,38.0,13.0,14.0,11.0,22.0,1651069066367683.0,1
270,20.0,-18.0,-32.0,4.0,16.0,9.0,-3.0,-9.0,1651069066369677.0,1
271,-56.0,-3.0,-63.0,-107.0,-48.0,-8.0,18.0,5.0,1651069066369677.0,1
272,-31.0,3.0,19.0,16.0,-12.0,-22.0,-19.0,-24.0,1651069066381703.0,1
273,-17.0,8.0,15.0,9.0,16.0,17.0,10.0,10.0,1651069066381703.0,1
274,-82.0,-4.0,-2.0,57.0,19.0,5.0,-6.0,-25.0,1651069066387630.0,1
275,85.0,-1.0,-13.0,-43.0,4.0,5.0,-3.0,-3.0,1651069066387630.0,1
276,11.0,26.0,40.0,43.0,23.0,12.0,12.0,6.0,1651069066403813.0,1
277,-22.0,4.0,-26.0,-20.0,-5.0,-8.0,-5.0,-5.0,1651069066403813.0,1
278,-30.0,17.0,-5.0,-91.0,-26.0,-12.0,-22.0,-12.0,1651069066405837.0,1
279,72.0,-3.0,6.0,76.0,38.0,10.0,7.0,25.0,1651069066405837.0,1
280,-87.0,13.0,41.0,42.0,7.0,0.0,-14.0,-28.0,1651069066425911.0,1
281,13.0,-9.0,-14.0,-39.0,12.0,0.0,6.0,-8.0,1651069066425911.0,1
282,3.0,-2.0,21.0,41.0,-37.0,-9.0,-2.0,19.0,1651069066427837.0,1
283,-21.0,-11.0,-56.0,-74.0,-22.0,-13.0,-13.0,-13.0,1651069066427837.0,1
284,-43.0,0.0,9.0,23.0,-8.0,-13.0,-43.0,-38.0,1651069066440869.0,1
285,4.0,6.0,-17.0,-88.0,-22.0,11.0,51.0,54.0,1651069066440869.0,1
286,-1.0,-18.0,-23.0,13.0,-21.0,-21.0,6.0,-1.0,1651069066447861.0,1
287,-24.0,13.0,37.0,67.0,20.0,10.0,-14.0,-12.0,1651069066447861.0,1
288,112.0,-22.0,-50.0,-64.0,-46.0,-19.0,0.0,31.0,1651069066463894.0,1
289,-97.0,6.0,50.0,56.0,56.0,36.0,21.0,-28.0,1651069066463894.0,1
290,47.0,12.0,38.0,-11.0,14.0,6.0,-11.0,4.0,1651069066465822.0,1
291,28.0,-4.0,-32.0,40.0,32.0,15.0,30.0,22.0,1651069066465822.0,1
292,-13.0,3.0,-6.0,5.0,-20.0,0.0,35.0,17.0,1651069066486440.0,1
293,24.0,9.0,-21.0,4.0,-46.0,-26.0,-27.0,-13.0,1651069066486440.0,1
294,-1.0,-18.0,-30.0,4.0,13.0,0.0,4.0,-5.0,1651069066488382.0,1
295,-19.0,24.0,82.0,44.0,24.0,13.0,2.0,15.0,1651069066488382.0,1
296,63.0,-6.0,-13.0,-39.0,-2.0,-1.0,2.0,24.0,1651069066500347.0,1
297,26.0,25.0,0.0,-31.0,-9.0,-8.0,-17.0,-12.0,1651069066500347.0,1
298,-43.0,-21.0,-7.0,-1.0,-20.0,2.0,38.0,15.0,1651069066507384.0,1
299,3.0,-17.0,-43.0,-76.0,-42.0,-25.0,-31.0,-23.0,1651069066507384.0,1
300,5.0,-1.0,-21.0,67.0,23.0,17.0,11.0,13.0,1651069066524267.0,1
301,42.0,-10.0,18.0,-16.0,-4.0,-1.0,6.0,13.0,1651069066524267.0,1
302,24.0,21.0,33.0,8.0,-14.0,-17.0,-25.0,-7.0,1651069066525279.0,1
303,-41.0,-12.0,-68.0,-2.0,33.0,13.0,-5.0,-17.0,1651069066525279.0,1
304,-35.0,21.0,82.0,-20.0,-10.0,12.0,23.0,17.0,1651069066546425.0,1
305,-3.0,-6.0,-24.0,-21.0,-11.0,-12.0,-22.0,-17.0,1651069066546425.0,1
306,64.0,0.0,40.0,81.0,22.0,1.0,-31.0,-12.0,1651069066548368.0,1
307,-35.0,2.0,-35.0,8.0,18.0,12.0,65.0,42.0,1651069066548368.0,1
308,-2.0,9.0,63.0,28.0,0.0,2.0,5.0,-2.0,1651069066560323.0,1
309,-18.0,-14.0,-17.0,32.0,1.0,-2.0,2.0,-9.0,1651069066560323.0,1
310,6.0,-3.0,-18.0,-76.0,-33.0,-9.0,5.0,3.0,1651069066569298.0,1
311,1.0,14.0,56.0,19.0,-7.0,-8.0,-16.0,-4.0,1651069066569298.0,1
312,-29.0,-9.0,-24.0,-34.0,11.0,-5.0,-27.0,-25.0,1651069066583732.0,1
313,18.0,-9.0,-25.0,-20.0,0.0,-3.0,14.0,14.0,1651069066583732.0,1
314,-35.0,7.0,-6.0,20.0,28.0,17.0,3.0,-4.0,1651069066585698.0,1
315,60.0,-7.0,-13.0,-3.0,-20.0,-19.0,-25.0,1.0,1651069066585698.0,1
316,-9.0,4.0,11.0,-20.0,-4.0,5.0,20.0,8.0,1651069066606782.0,1
317,-14.0,-9.0,0.0,-3.0,-19.0,-4.0,-12.0,-11.0,1651069066606782.0,1
318,-12.0,-8.0,-16.0,-36.0,3.0,-2.0,-5.0,-6.0,1651069066607756.0,1
319,12.0,11.0,13.0,30.0,20.0,3.0,-16.0,-13.0,1651069066607756.0,1
320,3.0,-11.0,-7.0,3.0,-15.0,-14.0,-9.0,-5.0,1651069066620885.0,1
321,-5.0,-4.0,0.0,-13.0,-7.0,-1.0,20.0,22.0,1651069066620885.0,1
322,10.0,4.0,-20.0,-56.0,-5.0,3.0,24.0,11.0,1651069066627812.0,1
323,-50.0,8.0,52.0,50.0,16.0,-1.0,-15.0,-30.0,1651069066627812.0,1
324,41.0,-9.0,-70.0,-58.0,-18.0,-5.0,-2.0,15.0,1651069066643813.0,1
325,-57.0,-12.0,17.0,45.0,15.0,1.0,-9.0,-24.0,1651069066643813.0,1
326,-5.0,6.0,43.0,37.0,14.0,8.0,-8.0,-3.0,1651069066645801.0,1
327,37.0,-4.0,-30.0,-24.0,-19.0,-8.0,8.0,12.0,1651069066645801.0,1
328,-18.0,-7.0,-61.0,-32.0,9.0,3.0,15.0,6.0,1651069066666409.0,1
329,55.0,7.0,21.0,-9.0,-21.0,-11.0,-18.0,-6.0,1651069066666409.0,1
330,-9.0,10.0,18.0,58.0,13.0,8.0,2.0,-17.0,1651069066668345.0,1
331,-3.0,13.0,32.0,39.0,33.0,25.0,46.0,35.0,1651069066668345.0,1
332,-7.0,-12.0,-22.0,-11.0,-2.0,10.0,5.0,4.0,1651069066680342.0,1
333,26.0,2.0,11.0,19.0,9.0,3.0,8.0,1.0,1651069066680342.0,1
334,4.0,4.0,-14.0,-25.0,-11.0,-16.0,-1.0,3.0,1651069066687353.0,1
335,-12.0,-4.0,13.0,15.0,8.0,2.0,-23.0,-25.0,1651069066687353.0,1
336,-16.0,1.0,-19.0,-31.0,-6.0,9.0,28.0,13.0,1651069066703384.0,1
337,-51.0,0.0,18.0,29.0,-4.0,-13.0,-22.0,-15.0,1651069066703384.0,1
338,46.0,12.0,18.0,26.0,9.0,14.0,18.0,24.0,1651069066705383.0,1
339,-21.0,-18.0,-56.0,-80.0,-28.0,-8.0,0.0,-4.0,1651069066705383.0,1
340,-23.0,0.0,20.0,19.0,3.0,-7.0,-15.0,-15.0,1651069066726179.0,1
341,2.0,-8.0,0.0,-20.0,5.0,2.0,4.0,-5.0,1651069066726179.0,1
342,-32.0,-7.0,-43.0,8.0,-6.0,-11.0,-16.0,-10.0,1651069066727964.0,1
343,10.0,5.0,62.0,20.0,-11.0,-1.0,-4.0,2.0,1651069066727964.0,1
344,5.0,5.0,-56.0,24.0,14.0,4.0,2.0,-2.0,1651069066741031.0,1
345,20.0,6.0,39.0,-45.0,-18.0,-9.0,-7.0,5.0,1651069066741031.0,1
346,-19.0,-10.0,-2.0,-47.0,-8.0,12.0,16.0,12.0,1651069066747662.0,1
347,-51.0,3.0,18.0,53.0,18.0,7.0,-5.0,-19.0,1651069066747662.0,1
348,7.0,-8.0,-17.0,-42.0,-8.0,-8.0,-4.0,-1.0,1651069066763664.0,1
349,50.0,13.0,-10.0,23.0,6.0,4.0,-8.0,10.0,1651069066763664.0,1
350,-12.0,-7.0,5.0,-2.0,6.0,2.0,2.0,-1.0,1651069066765688.0,1
351,-3.0,1.0,13.0,-3.0,-18.0,-21.0,-17.0,-13.0,1651069066765688.0,1
352,-24.0,-3.0,24.0,-7.0,2.0,-6.0,3.0,0.0,1651069066786736.0,1
353,4.0,2.0,-26.0,-20.0,18.0,23.0,-4.0,-4.0,1651069066786736.0,1
354,9.0,1.0,6.0,48.0,26.0,8.0,20.0,22.0,1651069066787688.0,1
355,24.0,-1.0,12.0,-21.0,-11.0,-5.0,-9.0,5.0,1651069066787688.0,1
356,-1.0,3.0,-9.0,17.0,-4.0,-8.0,-23.0,-20.0,1651069066800722.0,1
357,7.0,-6.0,24.0,-4.0,-18.0,-6.0,6.0,12.0,1651069066800722.0,1
358,-29.0,-5.0,-41.0,-32.0,13.0,6.0,-9.0,-13.0,1651069066807703.0,1
359,-17.0,-5.0,6.0,6.0,-7.0,-4.0,2.0,10.0,1651069066807703.0,1
360,38.0,-6.0,-10.0,38.0,0.0,1.0,9.0,11.0,1651069066823661.0,1
361,-24.0,-13.0,-54.0,-57.0,-15.0,-7.0,-8.0,-8.0,1651069066823661.0,1
362,-5.0,14.0,82.0,11.0,-15.0,-2.0,-11.0,-5.0,1651069066825730.0,1
363,-13.0,0.0,-16.0,1.0,26.0,6.0,7.0,-1.0,1651069066825730.0,1
364,-4.0,-14.0,-37.0,-34.0,4.0,13.0,-1.0,0.0,1651069066845535.0,1
365,42.0,12.0,57.0,93.0,14.0,2.0,10.0,18.0,1651069066845535.0,1
366,33.0,-16.0,-45.0,-30.0,-19.0,-17.0,-29.0,-4.0,1651069066853580.0,1
367,-6.0,-2.0,-12.0,-34.0,-50.0,-19.0,14.0,1.0,1651069066853580.0,1
368,-56.0,3.0,32.0,65.0,81.0,39.0,25.0,-1.0,1651069066860561.0,1
369,57.0,0.0,-30.0,-16.0,-7.0,2.0,4.0,13.0,1651069066860561.0,1
370,-1.0,-3.0,-19.0,-28.0,-6.0,-6.0,0.0,0.0,1651069066867543.0,1
371,11.0,0.0,44.0,29.0,-4.0,4.0,-7.0,6.0,1651069066867543.0,1
372,-4.0,-7.0,-24.0,-47.0,-39.0,-26.0,-20.0,-14.0,1651069066883589.0,1
373,-39.0,-9.0,-19.0,12.0,-4.0,-13.0,0.0,-11.0,1651069066883589.0,1
374,-19.0,1.0,12.0,-1.0,22.0,9.0,-14.0,-25.0,1651069066885600.0,1
375,40.0,7.0,-12.0,7.0,0.0,3.0,11.0,12.0,1651069066885600.0,1
376,-5.0,-4.0,14.0,-43.0,-29.0,-19.0,-27.0,-18.0,1651069066906707.0,1
377,-32.0,-5.0,-15.0,-23.0,-4.0,0.0,-5.0,-7.0,1651069066906707.0,1
378,52.0,10.0,21.0,29.0,18.0,9.0,1.0,12.0,1651069066907660.0,1
379,5.0,21.0,49.0,64.0,18.0,7.0,2.0,4.0,1651069066907660.0,1
380,0.0,-17.0,-7.0,17.0,-8.0,-10.0,2.0,10.0,1651069066919635.0,1
381,-26.0,-7.0,-34.0,-19.0,-10.0,-8.0,-21.0,-18.0,1651069066919635.0,1
382,-7.0,-6.0,1.0,-9.0,-5.0,-5.0,21.0,14.0,1651069066928622.0,1
383,15.0,-3.0,-6.0,-8.0,-7.0,-6.0,-14.0,-11.0,1651069066928622.0,1
384,-19.0,4.0,13.0,15.0,39.0,20.0,3.0,-14.0,1651069066943695.0,1
385,-9.0,2.0,-18.0,24.0,6.0,5.0,7.0,15.0,1651069066943695.0,1
386,-9.0,1.0,20.0,28.0,21.0,11.0,6.0,-5.0,1651069066945697.0,1
387,9.0,-6.0,-9.0,-6.0,0.0,3.0,-3.0,1.0,1651069066945697.0,1
388,-11.0,1.0,5.0,-20.0,-25.0,-15.0,-11.0,-13.0,1651069066966734.0,1
389,14.0,-9.0,-17.0,-23.0,-3.0,-7.0,-14.0,-11.0,1651069066966734.0,1
390,5.0,2.0,-8.0,5.0,-6.0,2.0,3.0,6.0,1651069066967640.0,1
391,-17.0,-11.0,-12.0,-14.0,-3.0,0.0,-12.0,-7.0,1651069066967640.0,1
392,22.0,4.0,4.0,-8.0,5.0,5.0,5.0,10.0,1651069066979615.0,1
393,-40.0,3.0,-22.0,15.0,5.0,5.0,34.0,23.0,1651069066979615.0,1
394,32.0,-7.0,13.0,2.0,-9.0,-1.0,9.0,16.0,1651069066988584.0,1
395,19.0,-9.0,-30.0,-25.0,-10.0,-9.0,-5.0,-5.0,1651069066988584.0,1
396,-12.0,3.0,21.0,-14.0,-9.0,-10.0,-23.0,-21.0,1651069067004204.0,1
397,4.0,-1.0,0.0,2.0,-6.0,5.0,13.0,7.0,1651069067004204.0,1
398,-27.0,-6.0,-8.0,-1.0,13.0,-2.0,-5.0,-12.0,1651069067005645.0,1
399,-9.0,-3.0,-10.0,-7.0,2.0,9.0,6.0,-3.0,1651069067005645.0,1
400,11.0,10.0,18.0,36.0,-1.0,0.0,1.0,9.0,1651069067026671.0,1
401,-12.0,-3.0,3.0,-8.0,13.0,4.0,1.0,-10.0,1651069067026671.0,1
402,7.0,-2.0,-28.0,-21.0,-28.0,-14.0,1.0,4.0,1651069067027670.0,1
403,-23.0,-6.0,-33.0,-34.0,16.0,9.0,-4.0,-13.0,1651069067027670.0,1
404,7.0,8.0,43.0,38.0,-3.0,-9.0,4.0,0.0,1651069067040414.0,1
405,-16.0,1.0,-7.0,-20.0,-11.0,-6.0,-1.0,-1.0,1651069067040414.0,1
406,5.0,4.0,3.0,5.0,-7.0,1.0,12.0,18.0,1651069067049392.0,1
407,24.0,0.0,-13.0,-2.0,10.0,3.0,5.0,6.0,1651069067049392.0,1
408,-46.0,-3.0,-6.0,11.0,17.0,11.0,3.0,-16.0,1651069067063382.0,1
409,8.0,4.0,36.0,-29.0,-23.0,-6.0,-6.0,3.0,1651069067063382.0,1
410,-15.0,-6.0,-36.0,17.0,6.0,-5.0,-10.0,-12.0,1651069067065350.0,1
411,18.0,2.0,-13.0,2.0,-8.0,-6.0,-6.0,3.0,1651069067065350.0,1
412,21.0,6.0,13.0,9.0,10.0,7.0,23.0,21.0,1651069067086321.0,1
413,26.0,-3.0,25.0,16.0,5.0,-5.0,-27.0,-16.0,1651069067086321.0,1
414,-12.0,7.0,14.0,-16.0,-16.0,-5.0,-11.0,0.0,1651069067088288.0,1
415,-21.0,-1.0,11.0,-5.0,-3.0,3.0,28.0,12.0,1651069067088288.0,1
416,9.0,0.0,-11.0,56.0,17.0,10.0,3.0,-1.0,1651069067100268.0,1
417,-1.0,-4.0,-18.0,-17.0,-9.0,-4.0,1.0,0.0,1651069067100268.0,1
418,-9.0,3.0,20.0,5.0,-5.0,2.0,-9.0,-13.0,1651069067109232.0,1
419,-9.0,7.0,9.0,-9.0,2.0,0.0,-6.0,1.0,1651069067109232.0,1
420,7.0,-11.0,-25.0,-21.0,-18.0,-11.0,-13.0,0.0,1651069067123749.0,1
421,-10.0,4.0,37.0,27.0,4.0,-2.0,9.0,-4.0,1651069067123749.0,1
422,3.0,-4.0,-19.0,-31.0,-17.0,-8.0,-1.0,0.0,1651069067125704.0,1
423,-7.0,6.0,15.0,21.0,2.0,-4.0,-11.0,-11.0,1651069067125704.0,1
424,-3.0,-5.0,-26.0,-28.0,-11.0,-1.0,10.0,5.0,1651069067146807.0,1
425,0.0,-2.0,-1.0,-3.0,3.0,3.0,-7.0,-8.0,1651069067146807.0,1
426,1.0,3.0,2.0,-14.0,-4.0,-1.0,17.0,11.0,1651069067147793.0,1
427,15.0,-7.0,-14.0,6.0,6.0,-1.0,-4.0,-4.0,1651069067147793.0,1
428,2.0,3.0,20.0,-5.0,0.0,-2.0,-9.0,-4.0,1651069067159755.0,1
429,2.0,6.0,5.0,-4.0,3.0,4.0,21.0,12.0,1651069067159755.0,1
430,-12.0,-7.0,-17.0,-16.0,-7.0,-4.0,-7.0,-10.0,1651069067169395.0,1
431,11.0,1.0,-4.0,0.0,-5.0,-3.0,-1.0,0.0,1651069067169395.0,1
432,5.0,1.0,2.0,-6.0,-13.0,-6.0,-2.0,4.0,1651069067183427.0,1
433,9.0,4.0,9.0,7.0,10.0,5.0,2.0,9.0,1651069067183427.0,1
434,-12.0,-3.0,-4.0,8.0,6.0,-4.0,-7.0,-8.0,1651069067185355.0,1
435,-9.0,-2.0,-2.0,-9.0,-9.0,5.0,5.0,-2.0,1651069067185355.0,1
436,0.0,-5.0,-13.0,-13.0,4.0,3.0,-4.0,-7.0,1651069067214120.0,1
437,-12.0,2.0,2.0,14.0,13.0,2.0,-7.0,-10.0,1651069067214120.0,1
438,5.0,0.0,5.0,-7.0,-10.0,-2.0,5.0,1.0,1651069067215120.0,1
439,-10.0,-3.0,-8.0,9.0,10.0,1.0,-3.0,-3.0,1651069067215120.0,1
440,4.0,4.0,9.0,1.0,7.0,5.0,3.0,5.0,1651069067220106.0,1
441,-1.0,-1.0,-10.0,0.0,-4.0,-3.0,2.0,1.0,1651069067220106.0,1
442,5.0,-1.0,2.0,4.0,-5.0,-4.0,0.0,-2.0,1651069067229082.0,1
443,-4.0,-1.0,8.0,-1.0,-7.0,-1.0,-5.0,-4.0,1651069067229082.0,1
444,-5.0,0.0,3.0,0.0,2.0,7.0,7.0,3.0,1651069067243557.0,1
445,-1.0,-1.0,-8.0,-3.0,6.0,4.0,-3.0,-4.0,1651069067243557.0,1
446,1.0,0.0,-3.0,-2.0,-1.0,2.0,-3.0,0.0,1651069067245485.0,1
447,-8.0,-3.0,-3.0,0.0,-2.0,-6.0,-1.0,-3.0,1651069067245485.0,1
448,2.0,0.0,-6.0,-5.0,-3.0,-9.0,1.0,2.0,1651069067266495.0,1
449,-1.0,2.0,12.0,0.0,-5.0,-1.0,-3.0,-2.0,1651069067266495.0,1
450,2.0,0.0,6.0,6.0,6.0,3.0,-2.0,-1.0,1651069067267426.0,1
451,-7.0,0.0,-2.0,-2.0,-7.0,-2.0,-1.0,0.0,1651069067267426.0,1
452,0.0,-2.0,-7.0,3.0,14.0,3.0,2.0,2.0,1651069067280455.0,1
453,1.0,1.0,-3.0,-2.0,-3.0,-4.0,-3.0,-2.0,1651069067280455.0,1
454,-3.0,1.0,-2.0,2.0,7.0,4.0,-1.0,1.0,1651069067289376.0,1
455,-4.0,-1.0,0.0,-4.0,-4.0,0.0,-1.0,-3.0,1651069067289376.0,1
456,0.0,3.0,0.0,-4.0,-10.0,-3.0,-1.0,1.0,1651069067303447.0,1
457,-1.0,-5.0,-7.0,2.0,4.0,-2.0,-3.0,-2.0,1651069067303447.0,1
458,-2.0,-1.0,1.0,1.0,1.0,-2.0,2.0,-1.0,1651069067305375.0,1
459,0.0,-1.0,-3.0,-1.0,-1.0,-3.0,-1.0,0.0,1651069067305375.0,1
460,0.0,0.0,4.0,0.0,-5.0,-3.0,-2.0,1.0,1651069067334265.0,1
461,-1.0,1.0,-4.0,-1.0,7.0,5.0,0.0,-1.0,1651069067334265.0,1
462,1.0,-2.0,1.0,3.0,0.0,2.0,0.0,-1.0,1651069067335270.0,1
463,-1.0,-1.0,1.0,0.0,3.0,-1.0,-2.0,1.0,1651069067335270.0,1
464,-1.0,-1.0,-1.0,-1.0,-2.0,-1.0,2.0,-2.0,1651069067350306.0,1
465,0.0,-2.0,-1.0,-2.0,-5.0,-1.0,-1.0,0.0,1651069067350306.0,1
466,2.0,1.0,0.0,0.0,1.0,1.0,0.0,-1.0,1651069067352335.0,1
467,-3.0,-1.0,0.0,0.0,2.0,1.0,-1.0,-1.0,1651069067352335.0,1
468,0.0,-1.0,0.0,-2.0,-5.0,-1.0,0.0,-1.0,1651069067363990.0,1
469,-1.0,-2.0,-5.0,-2.0,-1.0,-1.0,-3.0,-1.0,1651069067363990.0,1
470,0.0,0.0,0.0,2.0,2.0,-1.0,0.0,-1.0,1651069067365287.0,1
471,-1.0,-1.0,0.0,0.0,2.0,-1.0,-1.0,-3.0,1651069067365287.0,1
472,-1.0,0.0,1.0,-2.0,-3.0,0.0,1.0,-1.0,1651069067386201.0,1
473,-1.0,-1.0,-2.0,0.0,0.0,1.0,-2.0,-2.0,1651069067386201.0,1
474,-1.0,-1.0,0.0,0.0,3.0,0.0,-1.0,0.0,1651069067388083.0,1
475,-3.0,0.0,0.0,1.0,-1.0,-3.0,-1.0,0.0,1651069067388083.0,1
476,-1.0,0.0,-1.0,-1.0,-2.0,3.0,3.0,1.0,1651069067408431.0,1
477,-1.0,0.0,-2.0,0.0,-1.0,-2.0,-1.0,-1.0,1651069067408431.0,1
478,0.0,-1.0,-4.0,-1.0,0.0,1.0,-1.0,-1.0,1651069067410365.0,1
479,-2.0,-1.0,5.0,1.0,0.0,0.0,-1.0,0.0,1651069067410365.0,1
480,0.0,0.0,2.0,0.0,0.0,0.0,-3.0,0.0,1651069067423333.0,1
481,-2.0,0.0,-4.0,-1.0,-3.0,1.0,0.0,-2.0,1651069067423333.0,1
482,1.0,0.0,-1.0,1.0,-2.0,1.0,0.0,0.0,1651069067430381.0,1
483,0.0,1.0,9.0,1.0,0.0,0.0,0.0,-2.0,1651069067430381.0,1
484,-1.0,-1.0,0.0,1.0,0.0,-1.0,-2.0,-1.0,1651069067446413.0,1
485,0.0,1.0,-3.0,-2.0,-3.0,-2.0,-2.0,1.0,1651069067446413.0,1
486,-1.0,-3.0,-6.0,-1.0,0.0,-2.0,0.0,0.0,1651069067448289.0,1
487,-1.0,-2.0,-4.0,-1.0,-1.0,0.0,0.0,1.0,1651069067448289.0,1
488,0.0,0.0,-2.0,-2.0,-2.0,-2.0,-1.0,1.0,1651069067469265.0,1
489,-1.0,0.0,6.0,1.0,0.0,-1.0,1.0,-1.0,1651069067469265.0,1
490,-2.0,-1.0,-13.0,-3.0,-2.0,0.0,0.0,0.0,1651069067470265.0,1
491,-1.0,-1.0,-3.0,1.0,1.0,1.0,1.0,-1.0,1651069067470265.0,1
492,-2.0,1.0,1.0,0.0,-2.0,-2.0,-1.0,0.0,1651069067499324.0,1
493,0.0,0.0,1.0,1.0,0.0,-2.0,-2.0,-1.0,1651069067499324.0,1
494,-1.0,1.0,12.0,1.0,0.0,-3.0,-1.0,2.0,1651069067500322.0,1
495,0.0,-1.0,-5.0,0.0,0.0,1.0,-1.0,0.0,1651069067500322.0,1
496,1.0,-1.0,-4.0,-3.0,0.0,1.0,1.0,0.0,1651069067506307.0,1
497,-2.0,-6.0,-17.0,-7.0,-2.0,2.0,-2.0,-1.0,1651069067506307.0,1
498,1.0,3.0,13.0,9.0,2.0,0.0,1.0,-1.0,1651069067508340.0,1
499,-1.0,-2.0,7.0,-1.0,4.0,1.0,-1.0,0.0,1651069067508340.0,1
500,1.0,-3.0,-15.0,-6.0,-2.0,-3.0,-2.0,-2.0,1651069067529245.0,1
501,0.0,0.0,10.0,-2.0,-3.0,-3.0,0.0,0.0,1651069067529245.0,1
502,-1.0,-2.0,-24.0,-1.0,-4.0,2.0,-2.0,0.0,1651069067530242.0,1
503,-2.0,-2.0,6.0,0.0,-2.0,-7.0,-2.0,-1.0,1651069067530242.0,1
504,0.0,2.0,1.0,1.0,13.0,3.0,-2.0,2.0,1651069067543274.0,1
505,0.0,-2.0,3.0,-5.0,-11.0,-2.0,-1.0,-1.0,1651069067543274.0,1
506,-2.0,-2.0,4.0,-3.0,-12.0,-5.0,1.0,-1.0,1651069067550255.0,1
507,1.0,0.0,-16.0,4.0,13.0,8.0,1.0,0.0,1651069067550255.0,1
508,-3.0,-5.0,-5.0,-5.0,0.0,-3.0,0.0,0.0,1651069067566340.0,1
509,1.0,1.0,0.0,2.0,1.0,-1.0,-1.0,0.0,1651069067566340.0,1
510,-1.0,-3.0,3.0,-7.0,-7.0,-3.0,-1.0,-1.0,1651069067568140.0,1
511,-2.0,2.0,-4.0,-7.0,-10.0,-6.0,-3.0,-2.0,1651069067568140.0,1
512,-2.0,-3.0,-20.0,-1.0,-5.0,-3.0,-2.0,0.0,1651069067589151.0,1
513,0.0,2.0,19.0,2.0,2.0,2.0,0.0,-1.0,1651069067589151.0,1
514,0.0,-2.0,-7.0,-6.0,4.0,2.0,0.0,-1.0,1651069067590088.0,1
515,-1.0,-2.0,-7.0,-1.0,-2.0,0.0,-2.0,-1.0,1651069067590088.0,1
516,0.0,1.0,7.0,3.0,2.0,-2.0,0.0,0.0,1651069067604052.0,1
517,-2.0,-6.0,-9.0,-2.0,0.0,1.0,0.0,-2.0,1651069067604052.0,1
518,-1.0,-1.0,-4.0,1.0,6.0,3.0,-1.0,-1.0,1651069067610107.0,1
519,-2.0,-1.0,-2.0,-3.0,1.0,2.0,-1.0,0.0,1651069067610107.0,1
520,0.0,1.0,15.0,2.0,-6.0,-2.0,-1.0,0.0,1651069067626469.0,1
521,1.0,2.0,-3.0,3.0,2.0,-2.0,-2.0,0.0,1651069067626469.0,1
522,0.0,1.0,10.0,2.0,4.0,2.0,-2.0,1.0,1651069067627425.0,1
523,0.0,-1.0,-1.0,-2.0,-3.0,0.0,0.0,-1.0,1651069067627425.0,1
524,-2.0,-1.0,4.0,2.0,-3.0,1.0,2.0,0.0,1651069067649175.0,1
525,-2.0,-1.0,-17.0,-2.0,-1.0,-3.0,0.0,0.0,1651069067649175.0,1
526,2.0,3.0,28.0,5.0,2.0,-2.0,-1.0,0.0,1651069067650165.0,1
527,1.0,0.0,-3.0,0.0,0.0,3.0,1.0,1.0,1651069067650165.0,1
528,1.0,-1.0,2.0,-2.0,-2.0,-4.0,-4.0,0.0,1651069067663299.0,1
529,0.0,0.0,-5.0,-3.0,0.0,1.0,0.0,0.0,1651069067663299.0,1
530,-1.0,1.0,-5.0,0.0,-2.0,-2.0,2.0,1.0,1651069067670348.0,1
531,-1.0,0.0,2.0,0.0,2.0,3.0,4.0,0.0,1651069067670348.0,1
532,2.0,2.0,15.0,1.0,-2.0,-1.0,1.0,0.0,1651069067686305.0,1
533,-1.0,-3.0,-15.0,-5.0,-1.0,-2.0,-1.0,0.0,1651069067686305.0,1
534,0.0,0.0,13.0,6.0,2.0,-1.0,-1.0,-1.0,1651069067688233.0,1
535,0.0,4.0,20.0,0.0,0.0,-2.0,-2.0,0.0,1651069067688233.0,1
536,-1.0,-2.0,-6.0,-2.0,-1.0,1.0,0.0,-1.0,1651069067709258.0,1
537,-2.0,-1.0,2.0,2.0,2.0,1.0,0.0,1.0,1651069067709258.0,1
538,-2.0,-1.0,-1.0,-3.0,-3.0,-3.0,-3.0,-1.0,1651069067710174.0,1
539,0.0,-1.0,-8.0,-3.0,-1.0,-4.0,-1.0,0.0,1651069067710174.0,1
540,-1.0,-2.0,-2.0,3.0,4.0,1.0,3.0,-1.0,1651069067723147.0,1
541,0.0,3.0,11.0,1.0,2.0,4.0,1.0,1.0,1651069067723147.0,1
542,-2.0,-4.0,-15.0,-6.0,-9.0,-4.0,0.0,-1.0,1651069067730191.0,1
543,-1.0,-2.0,-16.0,0.0,5.0,0.0,-1.0,-1.0,1651069067730191.0,1
544,1.0,2.0,7.0,0.0,-6.0,-1.0,-1.0,0.0,1651069067746078.0,1
545,-1.0,-1.0,0.0,-1.0,1.0,-3.0,-2.0,0.0,1651069067746078.0,1
546,0.0,0.0,-2.0,-1.0,2.0,2.0,0.0,1.0,1651069067748073.0,1
547,0.0,-2.0,-7.0,-3.0,-7.0,-3.0,-3.0,-2.0,1651069067748073.0,1
548,-1.0,0.0,1.0,1.0,-1.0,-3.0,0.0,-1.0,1651069067769126.0,1
549,1.0,-1.0,0.0,1.0,4.0,6.0,0.0,0.0,1651069067769126.0,1
550,0.0,1.0,-5.0,1.0,13.0,7.0,3.0,1.0,1651069067771054.0,1
551,-3.0,-2.0,1.0,0.0,-7.0,-2.0,-1.0,0.0,1651069067771054.0,1
552,-2.0,-1.0,2.0,-1.0,0.0,-2.0,-2.0,0.0,1651069067783201.0,1
553,-1.0,-2.0,2.0,-1.0,-7.0,-6.0,-2.0,-1.0,1651069067783201.0,1
554,0.0,0.0,-5.0,-5.0,-3.0,-1.0,0.0,0.0,1651069067790140.0,1
555,0.0,-1.0,2.0,2.0,1.0,0.0,1.0,1.0,1651069067790140.0,1
556,-2.0,-1.0,-5.0,-3.0,-4.0,1.0,0.0,-1.0,1651069067806579.0,1
557,0.0,-1.0,-1.0,1.0,-2.0,-5.0,-1.0,-2.0,1651069067806579.0,1
558,0.0,-1.0,1.0,2.0,2.0,4.0,-1.0,0.0,1651069067807552.0,1
559,3.0,-1.0,5.0,3.0,-1.0,-2.0,-2.0,0.0,1651069067807552.0,1
560,0.0,-1.0,-5.0,-2.0,-3.0,-2.0,-2.0,1.0,1651069067828505.0,1
561,-2.0,-1.0,2.0,0.0,3.0,1.0,-2.0,-1.0,1651069067828505.0,1
562,0.0,0.0,-2.0,-2.0,-9.0,-4.0,-2.0,-1.0,1651069067830494.0,1
563,0.0,-1.0,4.0,0.0,8.0,1.0,-1.0,-1.0,1651069067830494.0,1
564,0.0,0.0,-4.0,0.0,1.0,3.0,-1.0,0.0,1651069067851499.0,1
565,1.0,0.0,1.0,1.0,2.0,-1.0,0.0,-1.0,1651069067851499.0,1
566,0.0,1.0,1.0,-3.0,-10.0,-6.0,-2.0,-1.0,1651069067852430.0,1
567,-2.0,-1.0,-3.0,-1.0,-2.0,0.0,-2.0,-2.0,1651069067852430.0,1
568,-1.0,-1.0,0.0,1.0,6.0,3.0,1.0,-1.0,1651069067866459.0,1
569,0.0,0.0,-3.0,-1.0,1.0,2.0,2.0,2.0,1651069067866459.0,1
570,0.0,-2.0,-1.0,-1.0,-4.0,-5.0,-1.0,-1.0,1651069067868387.0,1
571,-1.0,0.0,0.0,-4.0,-1.0,1.0,1.0,0.0,1651069067868387.0,1
572,0.0,-1.0,-2.0,0.0,-2.0,-1.0,1.0,0.0,1651069067888401.0,1
573,0.0,-1.0,-2.0,0.0,-2.0,-2.0,-2.0,-1.0,1651069067888401.0,1
574,-1.0,0.0,-2.0,-3.0,0.0,-1.0,-2.0,-1.0,1651069067890329.0,1
575,1.0,-3.0,-13.0,-7.0,-16.0,-6.0,-3.0,-1.0,1651069067890329.0,1
576,2.0,4.0,8.0,15.0,37.0,24.0,7.0,2.0,1651069067902453.0,1
577,-1.0,0.0,1.0,2.0,3.0,-1.0,1.0,0.0,1651069067902453.0,1
578,0.0,-1.0,1.0,0.0,2.0,1.0,0.0,1.0,1651069067911381.0,1
579,-2.0,-1.0,-2.0,-3.0,-6.0,-3.0,0.0,-1.0,1651069067911381.0,1
580,-1.0,-3.0,-7.0,-4.0,-13.0,-8.0,-3.0,-4.0,1651069067926119.0,1
581,-2.0,1.0,0.0,-2.0,-4.0,0.0,0.0,-1.0,1651069067926119.0,1
582,0.0,2.0,0.0,1.0,2.0,3.0,0.0,0.0,1651069067928047.0,1
583,-1.0,-1.0,3.0,0.0,3.0,-2.0,0.0,1.0,1651069067928047.0,1
584,-3.0,-2.0,-6.0,-5.0,-10.0,-9.0,-4.0,-2.0,1651069067949057.0,1
585,1.0,3.0,12.0,6.0,7.0,8.0,1.0,0.0,1651069067949057.0,1
586,-2.0,-1.0,-1.0,0.0,-2.0,-3.0,0.0,-3.0,1651069067949988.0,1
587,-3.0,1.0,1.0,1.0,3.0,1.0,1.0,-1.0,1651069067949988.0,1
588,1.0,0.0,0.0,-3.0,-5.0,-3.0,-2.0,1.0,1651069067962972.0,1
589,-2.0,-2.0,-7.0,-2.0,-6.0,-4.0,-1.0,-1.0,1651069067962972.0,1
590,1.0,-2.0,-2.0,-1.0,6.0,4.0,0.0,-1.0,1651069067971039.0,1
591,1.0,2.0,4.0,1.0,0.0,1.0,0.0,1.0,1651069067971039.0,1
592,-1.0,0.0,0.0,-3.0,-2.0,-4.0,-1.0,-2.0,1651069067986083.0,1
593,-2.0,-4.0,-3.0,-1.0,-4.0,-3.0,0.0,-2.0,1651069067986083.0,1
594,-1.0,-1.0,0.0,2.0,6.0,3.0,-1.0,1.0,1651069067988010.0,1
595,1.0,0.0,1.0,2.0,4.0,2.0,1.0,0.0,1651069067988010.0,1
596,-3.0,-2.0,-1.0,-3.0,-6.0,-1.0,0.0,0.0,1651069068009234.0,1
597,0.0,-1.0,-2.0,-3.0,-4.0,-3.0,-1.0,1.0,1651069068009234.0,1
598,-2.0,0.0,2.0,-3.0,-4.0,-3.0,1.0,-1.0,1651069068010157.0,1
599,-1.0,-1.0,0.0,0.0,-1.0,-2.0,-3.0,0.0,1651069068010157.0,1
600,-1.0,0.0,-2.0,-2.0,-5.0,-5.0,-4.0,-2.0,1651069068022768.0,1
601,0.0,0.0,-3.0,-2.0,-1.0,2.0,0.0,-1.0,1651069068022768.0,1
602,0.0,-3.0,-3.0,2.0,6.0,1.0,-1.0,0.0,1651069068031822.0,1
603,-2.0,1.0,-1.0,1.0,-1.0,1.0,0.0,2.0,1651069068031822.0,1
604,0.0,1.0,0.0,-2.0,-2.0,1.0,0.0,-1.0,1651069068046979.0,1
605,-1.0,-1.0,-1.0,1.0,0.0,-2.0,0.0,-1.0,1651069068046979.0,1
606,0.0,2.0,-3.0,-2.0,-4.0,-5.0,-2.0,-2.0,1651069068048023.0,1
607,0.0,0.0,1.0,0.0,1.0,4.0,0.0,0.0,1651069068048023.0,1
608,-1.0,-3.0,-1.0,4.0,19.0,6.0,0.0,-1.0,1651069068069342.0,1
609,-2.0,0.0,-2.0,0.0,-2.0,0.0,-2.0,1.0,1651069068069342.0,1
610,-1.0,-1.0,-1.0,0.0,-6.0,-3.0,-1.0,0.0,1651069068070340.0,1
611,0.0,-1.0,1.0,-2.0,-4.0,-2.0,1.0,-3.0,1651069068070340.0,1
612,1.0,1.0,0.0,-4.0,-7.0,-3.0,0.0,1.0,1651069068082423.0,1
613,1.0,-3.0,1.0,-2.0,0.0,-2.0,-1.0,0.0,1651069068082423.0,1
614,-1.0,-2.0,-2.0,0.0,2.0,1.0,-1.0,-1.0,1651069068091383.0,1
615,-1.0,-2.0,1.0,-2.0,-4.0,-5.0,-2.0,-2.0,1651069068091383.0,1
616,0.0,-1.0,-1.0,-2.0,0.0,2.0,0.0,3.0,1651069068106557.0,1
617,0.0,0.0,1.0,0.0,-1.0,1.0,2.0,-1.0,1651069068106557.0,1
618,0.0,0.0,-1.0,-1.0,-2.0,-3.0,-3.0,-1.0,1651069068107497.0,1
619,1.0,1.0,-2.0,1.0,-1.0,0.0,2.0,0.0,1651069068107497.0,1
620,0.0,-1.0,-3.0,-3.0,-5.0,-2.0,1.0,-1.0,1651069068128611.0,1
621,-3.0,-1.0,1.0,0.0,1.0,-2.0,-1.0,-2.0,1651069068128611.0,1
622,-1.0,0.0,1.0,-1.0,-3.0,1.0,1.0,-1.0,1651069068130539.0,1
623,-2.0,0.0,-1.0,0.0,7.0,1.0,-2.0,1.0,1651069068130539.0,1
624,0.0,-2.0,-2.0,-1.0,-5.0,-4.0,-1.0,-1.0,1651069068142574.0,1
625,-1.0,1.0,0.0,2.0,8.0,5.0,1.0,1.0,1651069068142574.0,1
626,-1.0,0.0,-2.0,-1.0,-2.0,0.0,1.0,-1.0,1651069068151483.0,1
627,-1.0,-2.0,-2.0,0.0,-1.0,-1.0,-2.0,1.0,1651069068151483.0,1
628,0.0,2.0,1.0,-2.0,-11.0,-4.0,0.0,0.0,1651069068166735.0,1
629,0.0,0.0,-1.0,-1.0,0.0,1.0,0.0,2.0,1651069068166735.0,1
630,0.0,-2.0,-1.0,-2.0,2.0,5.0,-1.0,-2.0,1651069068167672.0,1
631,0.0,-1.0,0.0,0.0,-1.0,-3.0,-3.0,-3.0,1651069068167672.0,1
632,0.0,-1.0,0.0,1.0,5.0,7.0,1.0,-1.0,1651069068188799.0,1
633,0.0,-1.0,-2.0,0.0,-5.0,-7.0,-3.0,1.0,1651069068188799.0,1
634,0.0,1.0,1.0,-1.0,2.0,0.0,1.0,-1.0,1651069068190740.0,1
635,-1.0,-2.0,0.0,-1.0,-3.0,-2.0,0.0,-2.0,1651069068190740.0,1
636,-1.0,-3.0,0.0,-2.0,-5.0,-2.0,0.0,0.0,1651069068202852.0,1
637,0.0,0.0,1.0,-1.0,5.0,0.0,-1.0,-2.0,1651069068202852.0,1
638,-1.0,-1.0,-1.0,1.0,-2.0,-1.0,-1.0,0.0,1651069068211616.0,1
639,1.0,1.0,0.0,0.0,1.0,2.0,2.0,-1.0,1651069068211616.0,1
640,-1.0,0.0,0.0,0.0,1.0,-1.0,-1.0,-3.0,1651069068226764.0,1
641,0.0,-1.0,-2.0,-3.0,-4.0,-1.0,0.0,-1.0,1651069068226764.0,1
642,0.0,-1.0,1.0,1.0,-1.0,-2.0,-2.0,1.0,1651069068227719.0,1
643,-1.0,0.0,1.0,0.0,-1.0,0.0,-1.0,-1.0,1651069068227719.0,1
644,0.0,1.0,0.0,-1.0,0.0,-1.0,-3.0,0.0,1651069068248820.0,1
645,-1.0,0.0,-2.0,-2.0,-4.0,-3.0,-1.0,0.0,1651069068248820.0,1
646,-2.0,0.0,1.0,-2.0,-2.0,-4.0,-1.0,0.0,1651069068250747.0,1
647,-1.0,-2.0,-1.0,-1.0,2.0,5.0,1.0,1.0,1651069068250747.0,1
648,-2.0,-1.0,0.0,-1.0,-2.0,-4.0,-1.0,0.0,1651069068270934.0,1
649,0.0,1.0,-1.0,-2.0,-6.0,-5.0,-1.0,0.0,1651069068270934.0,1
650,1.0,0.0,-1.0,2.0,12.0,7.0,1.0,1.0,1651069068272871.0,1
651,0.0,2.0,-1.0,-3.0,-7.0,-4.0,-2.0,-1.0,1651069068272871.0,1
652,0.0,0.0,1.0,1.0,-1.0,-1.0,-1.0,-2.0,1651069068285955.0,1
653,0.0,-1.0,1.0,-1.0,-12.0,-2.0,0.0,-1.0,1651069068285955.0,1
654,0.0,0.0,2.0,4.0,7.0,0.0,0.0,0.0,1651069068287909.0,1
655,0.0,-1.0,0.0,0.0,-1.0,-1.0,-1.0,0.0,1651069068287909.0,1
656,-1.0,0.0,-1.0,1.0,5.0,4.0,3.0,0.0,1651069068309112.0,1
657,0.0,-1.0,-2.0,-2.0,-2.0,0.0,0.0,-2.0,1651069068309112.0,1
658,-1.0,-2.0,-2.0,-2.0,-9.0,-2.0,1.0,-1.0,1651069068310113.0,1
659,-2.0,0.0,0.0,0.0,1.0,-3.0,-3.0,-1.0,1651069068310113.0,1
660,0.0,-1.0,0.0,-2.0,-4.0,0.0,-2.0,1.0,1651069068331684.0,1
661,0.0,0.0,-1.0,0.0,1.0,0.0,-1.0,0.0,1651069068331684.0,1
662,1.0,0.0,-1.0,-2.0,-2.0,-2.0,0.0,-1.0,1651069068332685.0,1
663,-1.0,-3.0,-1.0,1.0,1.0,2.0,-1.0,1.0,1651069068332685.0,1
664,-1.0,-1.0,-1.0,-3.0,-3.0,-3.0,-2.0,-2.0,1651069068345837.0,1
665,0.0,-1.0,0.0,-1.0,4.0,0.0,0.0,0.0,1651069068345837.0,1
666,0.0,-2.0,-2.0,-2.0,-4.0,-1.0,0.0,-1.0,1651069068352817.0,1
667,1.0,0.0,0.0,0.0,-5.0,-3.0,-1.0,0.0,1651069068352817.0,1
668,-1.0,-1.0,0.0,2.0,2.0,0.0,0.0,-2.0,1651069068368940.0,1
669,-1.0,0.0,0.0,4.0,13.0,5.0,0.0,2.0,1651069068368940.0,1
670,-1.0,-1.0,-3.0,0.0,-4.0,0.0,0.0,0.0,1651069068370868.0,1
671,0.0,-1.0,-2.0,-2.0,-1.0,-1.0,1.0,-1.0,1651069068370868.0,1
672,-1.0,-2.0,-2.0,-5.0,-6.0,-1.0,0.0,-1.0,1651069068391048.0,1
673,-3.0,-2.0,-1.0,2.0,3.0,-7.0,-2.0,0.0,1651069068391048.0,1
674,-2.0,-2.0,-3.0,-2.0,0.0,3.0,1.0,0.0,1651069068393088.0,1
675,-2.0,-1.0,0.0,3.0,4.0,1.0,0.0,0.0,1651069068393088.0,1
676,1.0,0.0,1.0,-1.0,-3.0,-3.0,0.0,0.0,1651069068406085.0,1
677,2.0,0.0,-2.0,-2.0,-5.0,-1.0,0.0,0.0,1651069068406085.0,1
678,0.0,2.0,1.0,-1.0,-3.0,-1.0,-2.0,1.0,1651069068408022.0,1
679,-1.0,-1.0,-1.0,-1.0,-2.0,-2.0,0.0,-2.0,1651069068408022.0,1
680,-1.0,0.0,0.0,1.0,-1.0,0.0,-1.0,-1.0,1651069068428518.0,1
681,0.0,-2.0,-1.0,-2.0,-2.0,0.0,-1.0,-1.0,1651069068428518.0,1
682,0.0,0.0,-1.0,0.0,-2.0,-2.0,0.0,-2.0,1651069068430446.0,1
683,-1.0,0.0,0.0,-2.0,-1.0,0.0,0.0,-1.0,1651069068430446.0,1
684,-1.0,2.0,-1.0,2.0,1.0,-1.0,-1.0,-1.0,1651069068451699.0,1
685,-2.0,-1.0,-1.0,-1.0,0.0,0.0,-1.0,0.0,1651069068451699.0,1
686,0.0,-1.0,-1.0,0.0,-2.0,-4.0,-1.0,1.0,1651069068452630.0,1
687,-1.0,0.0,-2.0,-3.0,-13.0,-2.0,0.0,-1.0,1651069068452630.0,1
688,0.0,-1.0,0.0,4.0,18.0,3.0,-1.0,-3.0,1651069068465662.0,1
689,-1.0,-1.0,1.0,1.0,-3.0,4.0,3.0,0.0,1651069068465662.0,1
690,0.0,1.0,-1.0,-2.0,-1.0,-2.0,-1.0,0.0,1651069068472644.0,1
691,1.0,0.0,-2.0,-2.0,1.0,-1.0,0.0,0.0,1651069068472644.0,1
692,0.0,-1.0,0.0,-2.0,-5.0,-3.0,-2.0,1.0,1651069068496410.0,1
693,0.0,-2.0,0.0,1.0,-3.0,-3.0,-2.0,0.0,1651069068496410.0,1
694,0.0,-1.0,0.0,-1.0,-1.0,-3.0,1.0,-2.0,1651069068498349.0,1
695,-1.0,0.0,1.0,-1.0,3.0,4.0,0.0,0.0,1651069068498349.0,1
696,0.0,-1.0,-2.0,0.0,-5.0,-1.0,0.0,0.0,1651069068511369.0,1
697,-1.0,-1.0,-1.0,-4.0,-1.0,-3.0,-4.0,-1.0,1651069068511369.0,1
698,-1.0,-2.0,0.0,-2.0,-3.0,-3.0,-3.0,0.0,1651069068513323.0,1
699,1.0,-1.0,-1.0,1.0,3.0,1.0,1.0,0.0,1651069068513323.0,1
700,-1.0,0.0,1.0,-2.0,-1.0,0.0,-1.0,0.0,1651069068525291.0,1
701,0.0,0.0,1.0,0.0,-2.0,3.0,1.0,-1.0,1651069068525291.0,1
702,0.0,0.0,-1.0,-2.0,1.0,0.0,0.0,0.0,1651069068532332.0,1
703,-1.0,0.0,-2.0,0.0,1.0,-4.0,-1.0,-1.0,1651069068532332.0,1
704,-2.0,-2.0,-1.0,1.0,-3.0,1.0,1.0,1.0,1651069068549293.0,1
705,-1.0,0.0,-2.0,-1.0,-3.0,-3.0,0.0,0.0,1651069068549293.0,1
706,2.0,0.0,0.0,4.0,5.0,8.0,-1.0,0.0,1651069068550293.0,1
707,-1.0,-2.0,-1.0,1.0,10.0,3.0,-1.0,0.0,1651069068550293.0,1
708,0.0,0.0,-1.0,-1.0,-4.0,-2.0,1.0,-1.0,1651069068571681.0,1
709,0.0,1.0,-1.0,0.0,-1.0,-2.0,-2.0,0.0,1651069068571681.0,0
710,-1.0,-3.0,0.0,-4.0,-1.0,-2.0,0.0,-2.0,1651069068572683.0,0
711,-1.0,0.0,0.0,-2.0,-6.0,-1.0,-1.0,1.0,1651069068572683.0,0
712,-1.0,1.0,1.0,0.0,-1.0,3.0,1.0,-1.0,1651069068585713.0,0
713,1.0,-1.0,0.0,0.0,3.0,-1.0,-2.0,1.0,1651069068585713.0,0
714,-1.0,0.0,-1.0,1.0,-4.0,-3.0,1.0,-1.0,1651069068592877.0,0
715,1.0,-1.0,-1.0,-1.0,0.0,2.0,1.0,0.0,1651069068592877.0,0
716,-1.0,-1.0,-3.0,-2.0,-7.0,-4.0,-5.0,0.0,1651069068609229.0,0
717,-1.0,1.0,-1.0,2.0,7.0,1.0,0.0,0.0,1651069068609229.0,0
718,-1.0,0.0,0.0,-2.0,-1.0,2.0,0.0,0.0,1651069068610218.0,0
719,0.0,0.0,-1.0,-1.0,-3.0,-1.0,0.0,-1.0,1651069068610218.0,0
720,1.0,-2.0,-1.0,-1.0,-1.0,-1.0,0.0,0.0,1651069068631379.0,0
721,0.0,-1.0,1.0,-3.0,-10.0,-3.0,0.0,-2.0,1651069068631379.0,0
722,-1.0,-1.0,-1.0,1.0,8.0,0.0,-1.0,-1.0,1651069068633377.0,0
723,0.0,-1.0,-1.0,0.0,-2.0,-4.0,-1.0,-1.0,1651069068633377.0,0
724,0.0,-1.0,-2.0,0.0,-2.0,2.0,0.0,-1.0,1651069068646024.0,0
725,-1.0,1.0,-1.0,2.0,2.0,-5.0,1.0,-2.0,1651069068646024.0,0
726,-2.0,1.0,0.0,1.0,9.0,6.0,1.0,-1.0,1651069068652658.0,0
727,1.0,-1.0,-2.0,-2.0,-3.0,-1.0,-1.0,-1.0,1651069068652658.0,0
728,-1.0,-1.0,0.0,-2.0,-3.0,-6.0,-2.0,-2.0,1651069068668501.0,0
729,-1.0,-2.0,-1.0,-3.0,-3.0,-1.0,1.0,0.0,1651069068668501.0,0
730,0.0,-2.0,1.0,1.0,-5.0,3.0,0.0,0.0,1651069068670432.0,0
731,-1.0,0.0,3.0,2.0,10.0,1.0,-2.0,1.0,1651069068670432.0,0
732,-2.0,0.0,-3.0,-3.0,-3.0,-1.0,0.0,0.0,1651069068691440.0,0
733,-1.0,-1.0,-2.0,1.0,-1.0,2.0,1.0,-1.0,1651069068691440.0,0
734,-2.0,-2.0,-2.0,-7.0,-11.0,-5.0,-3.0,-2.0,1651069068693371.0,0
735,0.0,2.0,3.0,3.0,5.0,3.0,0.0,-1.0,1651069068693371.0,0
736,0.0,-3.0,-3.0,-1.0,7.0,-1.0,-2.0,-3.0,1651069068713336.0,0
737,-1.0,0.0,4.0,1.0,2.0,4.0,1.0,1.0,1651069068713336.0,0
738,2.0,3.0,6.0,3.0,4.0,0.0,4.0,0.0,1651069068721436.0,2
739,-2.0,-5.0,-8.0,-5.0,-14.0,-8.0,-2.0,-1.0,1651069068721436.0,2
740,-2.0,-3.0,-8.0,-7.0,-1.0,1.0,-1.0,1.0,1651069068728484.0,2
741,2.0,0.0,3.0,3.0,2.0,0.0,-1.0,1.0,1651069068728484.0,2
742,0.0,4.0,10.0,8.0,4.0,3.0,-3.0,1.0,1651069068730412.0,2
743,-3.0,-5.0,-9.0,-7.0,0.0,0.0,2.0,-2.0,1651069068730412.0,2
744,2.0,1.0,4.0,2.0,-1.0,0.0,-1.0,-1.0,1651069068751522.0,2
745,-2.0,-2.0,-5.0,-3.0,4.0,4.0,-2.0,-2.0,1651069068751522.0,2
746,-2.0,-5.0,-10.0,-5.0,-2.0,-3.0,0.0,-1.0,1651069068752488.0,2
747,1.0,3.0,9.0,3.0,-3.0,-4.0,-3.0,-2.0,1651069068752488.0,2
748,-2.0,-6.0,-10.0,-7.0,-8.0,-6.0,0.0,1.0,1651069068765492.0,2
749,-1.0,1.0,-3.0,-1.0,5.0,5.0,3.0,1.0,1651069068765492.0,2
750,-1.0,1.0,3.0,1.0,-2.0,-1.0,2.0,1.0,1651069068772909.0,2
751,0.0,7.0,17.0,15.0,9.0,8.0,1.0,0.0,1651069068772909.0,2
752,-4.0,-6.0,-16.0,-15.0,-8.0,-5.0,-3.0,-1.0,1651069068788421.0,2
753,1.0,0.0,8.0,7.0,-9.0,-9.0,-6.0,-2.0,1651069068788421.0,2
754,1.0,3.0,6.0,7.0,14.0,6.0,0.0,-1.0,1651069068790348.0,2
755,-2.0,-9.0,-27.0,-20.0,-29.0,-19.0,-6.0,-2.0,1651069068790348.0,2
756,5.0,10.0,25.0,17.0,10.0,11.0,5.0,3.0,1651069068811486.0,2
757,-5.0,-5.0,-10.0,-2.0,5.0,4.0,-1.0,-2.0,1651069068811486.0,2
758,0.0,2.0,4.0,7.0,-2.0,-3.0,-1.0,-3.0,1651069068812443.0,2
759,-2.0,-4.0,-9.0,-16.0,-1.0,0.0,0.0,-1.0,1651069068812443.0,2
760,-3.0,-3.0,0.0,15.0,2.0,-8.0,-5.0,-2.0,1651069068824568.0,2
761,1.0,3.0,12.0,34.0,6.0,3.0,3.0,0.0,1651069068824568.0,2
762,0.0,2.0,4.0,2.0,21.0,12.0,4.0,3.0,1651069068834496.0,2
763,2.0,2.0,0.0,28.0,22.0,13.0,6.0,3.0,1651069068834496.0,2
764,-1.0,-1.0,-2.0,-25.0,-14.0,-5.0,-1.0,-1.0,1651069068848657.0,2
765,-1.0,1.0,8.0,-5.0,-14.0,-11.0,-12.0,-8.0,1651069068848657.0,2
766,-4.0,-12.0,-30.0,-21.0,1.0,0.0,1.0,1.0,1651069068850585.0,2
767,2.0,7.0,9.0,7.0,5.0,2.0,-3.0,-3.0,1651069068850585.0,2
768,-2.0,-3.0,-6.0,8.0,3.0,3.0,10.0,3.0,1651069068878819.0,2
769,2.0,11.0,26.0,3.0,-8.0,-5.0,-7.0,1.0,1651069068878819.0,2
770,4.0,5.0,11.0,-10.0,-10.0,-6.0,1.0,4.0,1651069068880772.0,2
771,-19.0,-17.0,-27.0,-50.0,-22.0,-13.0,-39.0,-35.0,1651069068880772.0,2
772,32.0,1.0,-8.0,29.0,6.0,13.0,47.0,45.0,1651069068884760.0,2
773,-4.0,2.0,2.0,-31.0,16.0,12.0,0.0,-2.0,1651069068884760.0,2
774,-4.0,-4.0,-6.0,-32.0,-6.0,-9.0,-33.0,-24.0,1651069068893708.0,2
775,10.0,12.0,40.0,75.0,8.0,12.0,55.0,34.0,1651069068893708.0,2
776,-16.0,-11.0,-22.0,-46.0,-22.0,-17.0,-25.0,-16.0,1651069068907740.0,2
777,3.0,8.0,24.0,38.0,40.0,16.0,10.0,11.0,1651069068907740.0,2
778,-4.0,-18.0,-39.0,-47.0,-45.0,-16.0,-15.0,-10.0,1651069068916659.0,2
779,7.0,2.0,4.0,-18.0,-16.0,-11.0,-1.0,3.0,1651069068916659.0,2
780,-8.0,23.0,33.0,29.0,15.0,7.0,-7.0,-12.0,1651069068931317.0,2
781,-32.0,-23.0,-48.0,-37.0,4.0,-6.0,-4.0,-3.0,1651069068931317.0,2
782,67.0,8.0,-18.0,-7.0,-37.0,-7.0,30.0,29.0,1651069068933312.0,2
783,0.0,-2.0,14.0,-2.0,-4.0,-3.0,1.0,0.0,1651069068933312.0,2
784,0.0,7.0,28.0,35.0,-2.0,-2.0,-10.0,-8.0,1651069068945382.0,2
785,37.0,3.0,-19.0,-26.0,-3.0,-3.0,-1.0,2.0,1651069068945382.0,2
786,0.0,-9.0,-4.0,-18.0,-7.0,9.0,24.0,23.0,1651069068954362.0,2
787,-41.0,1.0,-15.0,-47.0,-19.0,-5.0,-3.0,-16.0,1651069068954362.0,2
788,-3.0,-1.0,-56.0,-12.0,29.0,10.0,-11.0,-10.0,1651069068968636.0,2
789,45.0,7.0,33.0,19.0,-13.0,-9.0,-4.0,19.0,1651069068968636.0,2
790,-27.0,10.0,-1.0,18.0,9.0,-3.0,-9.0,-16.0,1651069068970563.0,2
791,-2.0,-19.0,5.0,6.0,16.0,6.0,-35.0,-27.0,1651069068970563.0,2
792,34.0,-5.0,4.0,2.0,10.0,16.0,64.0,56.0,1651069068998500.0,2
793,-18.0,-21.0,-22.0,-38.0,-18.0,-9.0,-4.0,-6.0,1651069068998500.0,2
794,-29.0,1.0,-11.0,-32.0,-15.0,-8.0,5.0,-1.0,1651069069000494.0,2
795,-12.0,14.0,34.0,50.0,25.0,2.0,-12.0,-14.0,1651069069000494.0,2
796,8.0,-11.0,-19.0,-38.0,-48.0,-23.0,-17.0,-11.0,1651069069004484.0,2
797,-44.0,1.0,7.0,33.0,-11.0,-7.0,-5.0,-20.0,1651069069004484.0,2
798,-24.0,0.0,27.0,15.0,24.0,11.0,-1.0,-2.0,1651069069014457.0,2
799,12.0,-4.0,-7.0,19.0,23.0,6.0,-8.0,4.0,1651069069014457.0,2
800,-23.0,-2.0,16.0,-31.0,-14.0,-8.0,-8.0,-12.0,1651069069028547.0,2
801,-1.0,-2.0,-34.0,6.0,-9.0,1.0,1.0,-5.0,1651069069028547.0,2
802,18.0,0.0,22.0,16.0,1.0,-8.0,-33.0,-17.0,1651069069030541.0,2
803,-56.0,-3.0,-36.0,-41.0,-25.0,-6.0,17.0,5.0,1651069069030541.0,2
804,83.0,1.0,15.0,30.0,14.0,10.0,-3.0,21.0,1651069069051557.0,2
805,-20.0,7.0,49.0,-4.0,-7.0,-6.0,-2.0,-1.0,1651069069051557.0,2
806,45.0,2.0,-13.0,28.0,16.0,-1.0,-10.0,1.0,1651069069052527.0,2
807,-1.0,-5.0,-18.0,2.0,5.0,10.0,13.0,12.0,1651069069052527.0,2
808,-18.0,7.0,20.0,7.0,-3.0,-1.0,-13.0,-22.0,1651069069082342.0,2
809,-14.0,4.0,14.0,36.0,16.0,7.0,-7.0,-6.0,1651069069082342.0,2
810,-4.0,-8.0,-17.0,-12.0,-10.0,-9.0,5.0,4.0,1651069069084338.0,2
811,44.0,11.0,0.0,-5.0,-30.0,-11.0,-2.0,13.0,1651069069084338.0,2
812,-38.0,-8.0,-3.0,8.0,40.0,21.0,1.0,-8.0,1651069069089323.0,2
813,22.0,4.0,3.0,9.0,2.0,2.0,4.0,3.0,1651069069089323.0,2
814,-15.0,-11.0,-5.0,23.0,-1.0,-6.0,-8.0,-11.0,1651069069090322.0,2
815,11.0,1.0,14.0,-19.0,-6.0,-3.0,7.0,11.0,1651069069090322.0,2
816,-40.0,2.0,-3.0,17.0,13.0,-5.0,-12.0,-16.0,1651069069111413.0,2
817,53.0,1.0,-22.0,-14.0,-5.0,3.0,7.0,15.0,1651069069111413.0,2
818,-10.0,2.0,41.0,28.0,3.0,11.0,15.0,4.0,1651069069112446.0,2
819,15.0,-6.0,-15.0,-20.0,5.0,-5.0,-14.0,-1.0,1651069069112446.0,2
820,6.0,-4.0,-22.0,-32.0,-17.0,-7.0,-4.0,2.0,1651069069133632.0,2
821,1.0,6.0,24.0,25.0,6.0,5.0,6.0,2.0,1651069069133632.0,2
822,-32.0,-2.0,5.0,11.0,11.0,3.0,0.0,-5.0,1651069069135626.0,2
823,19.0,-10.0,-5.0,-11.0,-12.0,-4.0,-3.0,-4.0,1651069069135626.0,2
824,22.0,14.0,-5.0,7.0,6.0,2.0,-5.0,3.0,1651069069148742.0,2
825,-21.0,-16.0,-22.0,-77.0,-30.0,-15.0,-2.0,-7.0,1651069069148742.0,2
826,23.0,3.0,-17.0,12.0,6.0,9.0,24.0,22.0,1651069069154725.0,2
827,-10.0,-3.0,-3.0,17.0,20.0,11.0,1.0,-3.0,1651069069154725.0,2
828,48.0,-2.0,12.0,4.0,18.0,8.0,8.0,24.0,1651069069171746.0,2
829,-16.0,-5.0,12.0,5.0,-17.0,-8.0,-5.0,-7.0,1651069069171746.0,2
830,1.0,4.0,-16.0,-31.0,14.0,3.0,1.0,1.0,1651069069172717.0,2
831,-8.0,3.0,-10.0,-6.0,3.0,-3.0,-4.0,-3.0,1651069069172717.0,2
832,-18.0,-16.0,-23.0,-12.0,-23.0,-16.0,-6.0,-10.0,1651069069184863.0,2
833,0.0,4.0,-14.0,18.0,27.0,16.0,-1.0,-5.0,1651069069184863.0,2
834,24.0,2.0,5.0,10.0,6.0,1.0,-4.0,11.0,1651069069194445.0,2
835,20.0,5.0,23.0,27.0,2.0,-2.0,8.0,8.0,1651069069194445.0,2
836,-19.0,1.0,-18.0,-12.0,-1.0,-6.0,-18.0,-22.0,1651069069208271.0,2
837,9.0,1.0,18.0,-5.0,2.0,4.0,11.0,3.0,1651069069208271.0,2
838,-8.0,-9.0,-44.0,-6.0,-14.0,-9.0,-8.0,-9.0,1651069069215293.0,2
839,-1.0,5.0,14.0,1.0,-3.0,0.0,0.0,-1.0,1651069069215293.0,2
840,-20.0,4.0,8.0,-7.0,-5.0,-3.0,-1.0,-6.0,1651069069231313.0,2
841,-40.0,2.0,13.0,13.0,3.0,-6.0,-8.0,-6.0,1651069069231313.0,2
842,81.0,8.0,9.0,11.0,11.0,13.0,6.0,17.0,1651069069233275.0,2
843,-1.0,-3.0,-7.0,-10.0,-11.0,-1.0,-6.0,-6.0,1651069069233275.0,2
844,-16.0,-5.0,-2.0,1.0,-2.0,-1.0,3.0,-4.0,1651069069253627.0,2
845,0.0,4.0,2.0,-10.0,-13.0,-8.0,0.0,-2.0,1651069069253627.0,2
846,-23.0,7.0,10.0,2.0,18.0,11.0,3.0,1.0,1651069069255653.0,2
847,-3.0,-2.0,-4.0,-3.0,0.0,6.0,7.0,4.0,1651069069255653.0,2
848,5.0,1.0,13.0,21.0,8.0,-4.0,-19.0,-14.0,1651069069268658.0,2
849,11.0,-8.0,-27.0,-19.0,5.0,-1.0,10.0,7.0,1651069069268658.0,2
850,-64.0,9.0,13.0,16.0,-15.0,-6.0,2.0,-15.0,1651069069270612.0,2
851,5.0,-5.0,-17.0,-10.0,11.0,1.0,4.0,1.0,1651069069270612.0,2
852,-19.0,-2.0,39.0,8.0,-2.0,7.0,-4.0,-6.0,1651069069290878.0,2
853,6.0,-9.0,-34.0,4.0,1.0,-1.0,1.0,3.0,1651069069290878.0,2
854,-10.0,-1.0,7.0,-12.0,-16.0,-11.0,-14.0,-10.0,1651069069292814.0,2
855,30.0,11.0,28.0,30.0,21.0,12.0,17.0,20.0,1651069069292814.0,2
856,-10.0,0.0,-14.0,1.0,-5.0,-4.0,2.0,-17.0,1651069069313860.0,2
857,2.0,3.0,-6.0,12.0,6.0,10.0,16.0,24.0,1651069069313860.0,2
858,-1.0,-6.0,0.0,-20.0,-14.0,-9.0,-2.0,0.0,1651069069314860.0,2
859,-10.0,-1.0,-3.0,0.0,0.0,-4.0,-1.0,-3.0,1651069069314860.0,2
860,12.0,3.0,9.0,-1.0,-3.0,1.0,6.0,8.0,1651069069328428.0,2
861,-2.0,-1.0,-3.0,10.0,6.0,8.0,-11.0,-18.0,1651069069328428.0,2
862,-2.0,-6.0,-15.0,-13.0,-5.0,-3.0,13.0,12.0,1651069069330357.0,2
863,-12.0,10.0,28.0,26.0,16.0,1.0,-6.0,-9.0,1651069069330357.0,2
864,1.0,1.0,2.0,-10.0,-14.0,-7.0,4.0,9.0,1651069069351412.0,2
865,-5.0,-4.0,-19.0,-24.0,-18.0,-10.0,-6.0,-5.0,1651069069351412.0,2
866,-6.0,1.0,-2.0,22.0,8.0,-1.0,-13.0,-12.0,1651069069353352.0,2
867,-1.0,-3.0,-9.0,-9.0,-9.0,-2.0,-1.0,-3.0,1651069069353352.0,2
868,-4.0,3.0,9.0,3.0,-16.0,-6.0,-3.0,-2.0,1651069069373751.0,2
869,8.0,-2.0,-15.0,-4.0,10.0,8.0,1.0,8.0,1651069069373751.0,2
870,-14.0,-1.0,20.0,3.0,-3.0,3.0,2.0,-11.0,1651069069375687.0,2
871,7.0,-3.0,-39.0,-32.0,-17.0,-12.0,-1.0,0.0,1651069069375687.0,2
872,-8.0,-5.0,6.0,-4.0,-5.0,0.0,4.0,0.0,1651069069388712.0,2
873,-2.0,-2.0,8.0,8.0,0.0,-7.0,-15.0,-17.0,1651069069388712.0,2
874,-8.0,-9.0,-25.0,-16.0,-2.0,-2.0,1.0,5.0,1651069069390674.0,2
875,12.0,-1.0,10.0,6.0,0.0,3.0,-14.0,-8.0,1651069069390674.0,2
876,-3.0,-5.0,-16.0,-16.0,-7.0,-3.0,6.0,4.0,1651069069411674.0,2
877,-4.0,1.0,-2.0,0.0,-4.0,-7.0,-7.0,-3.0,1651069069411674.0,2
878,-2.0,1.0,26.0,0.0,-5.0,1.0,-2.0,-6.0,1651069069412677.0,2
879,17.0,1.0,-3.0,-12.0,-7.0,-5.0,-1.0,7.0,1651069069412677.0,2
880,-2.0,-3.0,-12.0,8.0,11.0,7.0,0.0,2.0,1651069069433785.0,2
881,8.0,4.0,13.0,0.0,-4.0,2.0,4.0,0.0,1651069069433785.0,2
882,-3.0,3.0,4.0,0.0,1.0,-5.0,-8.0,-6.0,1651069069441766.0,2
883,-1.0,-5.0,-1.0,2.0,-4.0,-5.0,-7.0,3.0,1651069069441766.0,2
884,-2.0,7.0,4.0,12.0,10.0,5.0,13.0,10.0,1651069069447820.0,2
885,22.0,2.0,-9.0,-13.0,7.0,11.0,9.0,13.0,1651069069447820.0,2
886,-35.0,1.0,21.0,17.0,-3.0,-5.0,-2.0,-14.0,1651069069454797.0,2
887,-14.0,-7.0,-16.0,-6.0,-2.0,-7.0,-11.0,-12.0,1651069069454797.0,2
888,10.0,5.0,26.0,14.0,3.0,10.0,16.0,15.0,1651069069471413.0,2
889,-2.0,-3.0,-21.0,-24.0,-8.0,-2.0,-9.0,-6.0,1651069069471413.0,2
890,9.0,0.0,2.0,10.0,13.0,8.0,4.0,0.0,1651069069473343.0,2
891,-35.0,-1.0,10.0,18.0,10.0,4.0,8.0,18.0,1651069069473343.0,2
892,20.0,4.0,6.0,5.0,-9.0,-9.0,-9.0,-2.0,1651069069494033.0,2
893,-5.0,-3.0,-5.0,1.0,16.0,5.0,3.0,0.0,1651069069494033.0,2
894,10.0,-5.0,-23.0,-8.0,-7.0,-1.0,3.0,1.0,1651069069495022.0,2
895,-9.0,4.0,17.0,12.0,-1.0,1.0,4.0,-4.0,1651069069495022.0,2
896,-5.0,-6.0,-25.0,-32.0,-5.0,-8.0,-15.0,-9.0,1651069069508056.0,2
897,1.0,2.0,10.0,2.0,-9.0,1.0,16.0,21.0,1651069069508056.0,2
898,8.0,3.0,-1.0,-1.0,3.0,-1.0,-8.0,-4.0,1651069069515161.0,2
899,6.0,4.0,15.0,2.0,6.0,5.0,-6.0,-9.0,1651069069515161.0,2
900,-37.0,-3.0,9.0,9.0,-13.0,-4.0,17.0,8.0,1651069069531532.0,2
901,23.0,-2.0,-6.0,8.0,14.0,-4.0,-8.0,-10.0,1651069069531532.0,2
902,-17.0,3.0,14.0,-5.0,-15.0,-8.0,-2.0,2.0,1651069069532464.0,2
903,11.0,-9.0,-30.0,-9.0,12.0,10.0,7.0,6.0,1651069069532464.0,2
904,-8.0,0.0,12.0,8.0,15.0,8.0,-7.0,-6.0,1651069069553518.0,2
905,-15.0,-2.0,-13.0,-15.0,-25.0,-12.0,-9.0,-9.0,1651069069553518.0,2
906,10.0,3.0,11.0,0.0,1.0,1.0,15.0,14.0,1651069069555515.0,2
907,-1.0,-2.0,-4.0,38.0,4.0,-6.0,-11.0,-12.0,1651069069555515.0,2
908,5.0,-14.0,-20.0,-57.0,-21.0,-10.0,7.0,4.0,1651069069568548.0,2
909,-5.0,0.0,8.0,9.0,6.0,0.0,0.0,1.0,1651069069568548.0,2
910,10.0,1.0,-4.0,-5.0,-1.0,-1.0,-6.0,-4.0,1651069069574534.0,2
911,0.0,9.0,31.0,10.0,-8.0,0.0,15.0,10.0,1651069069574534.0,2
912,5.0,-7.0,-25.0,7.0,3.0,-2.0,-9.0,-6.0,1651069069591449.0,2
913,-4.0,6.0,2.0,-5.0,-13.0,-5.0,2.0,0.0,1651069069591449.0,2
914,-36.0,-7.0,18.0,20.0,17.0,0.0,-3.0,-7.0,1651069069592449.0,2
915,22.0,0.0,-23.0,-34.0,-13.0,-5.0,-5.0,-2.0,1651069069592449.0,2
916,49.0,1.0,-2.0,23.0,9.0,2.0,8.0,27.0,1651069069613459.0,2
917,-41.0,-4.0,-15.0,-15.0,-7.0,-4.0,-5.0,-16.0,1651069069613459.0,2
918,4.0,0.0,5.0,2.0,-5.0,1.0,-5.0,-2.0,1651069069615399.0,2
919,-6.0,1.0,40.0,11.0,2.0,2.0,5.0,0.0,1651069069615399.0,2
920,-7.0,-5.0,-37.0,-26.0,8.0,4.0,-12.0,-8.0,1651069069628420.0,2
921,12.0,-2.0,3.0,21.0,0.0,0.0,6.0,6.0,1651069069628420.0,2
922,17.0,2.0,-8.0,-4.0,2.0,2.0,2.0,6.0,1651069069635379.0,2
923,-16.0,-3.0,-7.0,-18.0,-10.0,-1.0,-5.0,-7.0,1651069069635379.0,2
924,-8.0,9.0,24.0,21.0,6.0,0.0,-4.0,-12.0,1651069069651382.0,2
925,-6.0,0.0,18.0,8.0,8.0,8.0,2.0,6.0,1651069069651382.0,2
926,0.0,-8.0,-19.0,19.0,1.0,-1.0,4.0,1.0,1651069069653333.0,2
927,-1.0,-6.0,-22.0,-34.0,-4.0,-2.0,1.0,1.0,1651069069653333.0,2
928,-14.0,6.0,27.0,20.0,12.0,0.0,-6.0,-9.0,1651069069673389.0,2
929,33.0,1.0,4.0,-8.0,-7.0,-5.0,3.0,3.0,1651069069673389.0,2
930,7.0,3.0,3.0,1.0,4.0,-1.0,-9.0,-2.0,1651069069681368.0,2
931,6.0,-3.0,-3.0,3.0,-16.0,-9.0,2.0,7.0,1651069069681368.0,2
932,15.0,-1.0,-17.0,4.0,13.0,6.0,0.0,-9.0,1651069069688417.0,2
933,-11.0,-1.0,-8.0,-3.0,-3.0,-4.0,-1.0,2.0,1651069069688417.0,2
934,1.0,-2.0,14.0,-18.0,-12.0,-5.0,-3.0,-2.0,1651069069695342.0,2
935,3.0,-1.0,-3.0,11.0,3.0,-3.0,4.0,3.0,1651069069695342.0,2
936,-20.0,0.0,4.0,-2.0,-4.0,3.0,2.0,-7.0,1651069069711435.0,2
937,2.0,1.0,9.0,6.0,-2.0,-1.0,-10.0,-2.0,1651069069711435.0,2
938,7.0,1.0,5.0,5.0,13.0,5.0,13.0,5.0,1651069069712459.0,2
939,-21.0,-5.0,-36.0,-9.0,-4.0,2.0,-8.0,-13.0,1651069069712459.0,2
940,20.0,0.0,17.0,12.0,-2.0,0.0,13.0,23.0,1651069069733376.0,2
941,-3.0,-3.0,-12.0,-1.0,2.0,1.0,2.0,-4.0,1651069069733376.0,2
942,4.0,2.0,11.0,2.0,-2.0,-5.0,-5.0,8.0,1651069069735370.0,2
943,-4.0,1.0,-1.0,-6.0,-6.0,-4.0,1.0,0.0,1651069069735370.0,2
944,-3.0,2.0,-2.0,-4.0,0.0,-3.0,-2.0,-2.0,1651069069747406.0,2
945,-7.0,-1.0,23.0,21.0,12.0,9.0,-8.0,-10.0,1651069069747406.0,2
946,7.0,-3.0,-41.0,-26.0,-11.0,-4.0,-3.0,1.0,1651069069757434.0,2
947,32.0,6.0,15.0,16.0,8.0,9.0,15.0,15.0,1651069069757434.0,2
948,-6.0,3.0,1.0,-5.0,-11.0,-11.0,-8.0,-5.0,1651069069770171.0,2
949,-9.0,-4.0,-1.0,-14.0,-6.0,0.0,2.0,0.0,1651069069770171.0,2
950,-11.0,2.0,12.0,3.0,-3.0,-6.0,-21.0,-13.0,1651069069771171.0,2
951,-6.0,2.0,-1.0,-30.0,-14.0,-7.0,14.0,9.0,1651069069771171.0,2
952,-4.0,0.0,0.0,9.0,9.0,5.0,-3.0,-3.0,1651069069793647.0,2
953,-2.0,2.0,1.0,5.0,11.0,8.0,7.0,7.0,1651069069793647.0,2
954,0.0,-8.0,-18.0,-17.0,-12.0,-5.0,-6.0,-3.0,1651069069794647.0,2
955,-4.0,1.0,12.0,6.0,5.0,6.0,-3.0,-3.0,1651069069794647.0,2
956,-7.0,-4.0,-9.0,-3.0,2.0,-1.0,-2.0,-5.0,1651069069816274.0,2
957,11.0,2.0,-3.0,-13.0,-6.0,-8.0,-1.0,6.0,1651069069816274.0,2
958,-14.0,-4.0,-12.0,-5.0,-14.0,-6.0,1.0,-9.0,1651069069817298.0,2
959,-4.0,0.0,24.0,14.0,19.0,13.0,-1.0,-1.0,1651069069817298.0,2
960,-3.0,-1.0,-16.0,-4.0,2.0,-3.0,-1.0,-2.0,1651069069830238.0,2
961,-7.0,3.0,8.0,12.0,1.0,-1.0,-5.0,-5.0,1651069069830238.0,2
962,20.0,2.0,-8.0,-4.0,-2.0,1.0,5.0,7.0,1651069069831235.0,2
963,-16.0,2.0,5.0,3.0,1.0,-5.0,-2.0,-4.0,1651069069831235.0,2
964,-8.0,-5.0,-11.0,-9.0,-6.0,-4.0,-11.0,-5.0,1651069069853354.0,2
965,1.0,4.0,3.0,-3.0,-2.0,1.0,9.0,1.0,1651069069853354.0,2
966,-6.0,3.0,9.0,11.0,6.0,6.0,19.0,14.0,1651069069854333.0,2
967,22.0,1.0,-18.0,-1.0,3.0,-1.0,-4.0,-1.0,1651069069854333.0,2
968,0.0,-6.0,2.0,0.0,-6.0,2.0,-5.0,-1.0,1651069069876388.0,2
969,1.0,-1.0,4.0,-15.0,-7.0,-8.0,-15.0,-12.0,1651069069876388.0,2
970,-5.0,-2.0,0.0,-5.0,13.0,6.0,11.0,9.0,1651069069877319.0,2
971,-4.0,-6.0,-14.0,1.0,8.0,11.0,-1.0,-2.0,1651069069877319.0,2
972,0.0,4.0,6.0,-2.0,-17.0,-5.0,3.0,2.0,1651069069890437.0,2
973,1.0,-10.0,-19.0,-17.0,12.0,-5.0,-4.0,-6.0,1651069069890437.0,2
974,4.0,9.0,25.0,11.0,-5.0,-2.0,-4.0,-2.0,1651069069891437.0,2
975,-2.0,0.0,-1.0,-12.0,-10.0,-7.0,-2.0,1.0,1651069069891437.0,2
976,1.0,-3.0,-18.0,-20.0,5.0,3.0,-3.0,-5.0,1651069069913432.0,2
977,-4.0,1.0,21.0,26.0,-5.0,-3.0,13.0,11.0,1651069069913432.0,2
978,4.0,1.0,0.0,1.0,1.0,-2.0,-4.0,-6.0,1651069069913432.0,2
979,-9.0,-2.0,-6.0,-11.0,-4.0,-1.0,-3.0,-3.0,1651069069913432.0,2
980,-2.0,1.0,3.0,7.0,-1.0,-2.0,2.0,-1.0,1651069069935487.0,2
981,-1.0,0.0,-9.0,-4.0,1.0,2.0,-8.0,-6.0,1651069069935487.0,2
982,0.0,-5.0,-1.0,11.0,8.0,5.0,3.0,4.0,1651069069936360.0,2
983,-7.0,2.0,10.0,10.0,-3.0,-2.0,6.0,5.0,1651069069936360.0,2
984,12.0,6.0,17.0,3.0,9.0,9.0,6.0,4.0,1651069069950473.0,2
985,0.0,-6.0,-15.0,-5.0,-5.0,-3.0,-8.0,-4.0,1651069069950473.0,2
986,4.0,1.0,-1.0,8.0,4.0,0.0,-4.0,-4.0,1651069069951463.0,2
987,-9.0,-6.0,-4.0,-7.0,-2.0,-5.0,-4.0,-4.0,1651069069951463.0,2
988,-4.0,1.0,-1.0,5.0,-5.0,-5.0,-3.0,-1.0,1651069069973532.0,2
989,-1.0,0.0,9.0,15.0,22.0,8.0,-1.0,-1.0,1651069069973532.0,2
990,1.0,4.0,-2.0,-20.0,-7.0,-5.0,-15.0,-1.0,1651069069973532.0,2
991,1.0,-12.0,-31.0,-9.0,-6.0,-2.0,0.0,0.0,1651069069973532.0,2
992,-2.0,2.0,18.0,6.0,-6.0,-4.0,4.0,1.0,1651069069995856.0,2
993,5.0,4.0,-2.0,-6.0,-5.0,-1.0,0.0,1.0,1651069069995856.0,2
994,-3.0,-3.0,0.0,8.0,8.0,4.0,2.0,-3.0,1651069069996661.0,2
995,1.0,1.0,0.0,7.0,4.0,-1.0,-7.0,-4.0,1651069069996661.0,2
996,-2.0,-1.0,2.0,-2.0,1.0,-3.0,-2.0,0.0,1651069070010698.0,2
997,-11.0,-4.0,-15.0,-11.0,-7.0,0.0,8.0,0.0,1651069070010698.0,2
998,15.0,4.0,24.0,20.0,8.0,6.0,-2.0,0.0,1651069070011634.0,2
999,-1.0,-3.0,-37.0,-25.0,-10.0,-6.0,-7.0,-3.0,1651069070011634.0,2
1000,-2.0,3.0,11.0,13.0,0.0,3.0,5.0,2.0,1651069070033562.0,2
1001,1.0,0.0,-1.0,-4.0,7.0,0.0,-3.0,2.0,1651069070033562.0,2
1002,-4.0,-6.0,-6.0,-7.0,-5.0,2.0,-4.0,-8.0,1651069070033562.0,2
1003,3.0,-1.0,12.0,10.0,2.0,-2.0,6.0,-2.0,1651069070033562.0,2
1004,-5.0,-2.0,-22.0,-3.0,1.0,1.0,2.0,5.0,1651069070055704.0,2
1005,0.0,3.0,33.0,1.0,-10.0,-11.0,-2.0,0.0,1651069070055704.0,2
1006,-2.0,-1.0,-8.0,-8.0,7.0,9.0,3.0,1.0,1651069070056501.0,2
1007,2.0,2.0,4.0,-1.0,-1.0,-1.0,-1.0,0.0,1651069070056501.0,2
1008,-4.0,-4.0,-7.0,-6.0,-6.0,-7.0,-10.0,-7.0,1651069070071024.0,2
1009,3.0,-3.0,-14.0,0.0,-5.0,-1.0,4.0,3.0,1651069070071024.0,2
1010,-3.0,-4.0,-6.0,-3.0,-6.0,-4.0,3.0,0.0,1651069070071380.0,2
1011,-3.0,1.0,5.0,9.0,2.0,-1.0,-4.0,-5.0,1651069070071380.0,2
1012,2.0,3.0,24.0,10.0,9.0,2.0,-1.0,0.0,1651069070093569.0,2
1013,2.0,0.0,-11.0,0.0,-3.0,2.0,3.0,3.0,1651069070093569.0,2
1014,-2.0,-4.0,-16.0,-27.0,-7.0,-5.0,1.0,-1.0,1651069070093569.0,2
1015,-1.0,1.0,10.0,10.0,3.0,2.0,1.0,0.0,1651069070093569.0,2
1016,-2.0,-8.0,-8.0,-21.0,-11.0,-4.0,-8.0,-6.0,1651069070115510.0,2
1017,0.0,-2.0,-17.0,3.0,1.0,2.0,-2.0,-2.0,1651069070115510.0,2
1018,-3.0,-1.0,11.0,7.0,-15.0,-12.0,-3.0,-3.0,1651069070116389.0,2
1019,2.0,4.0,-1.0,2.0,19.0,7.0,0.0,2.0,1651069070116389.0,2
1020,-1.0,1.0,-5.0,-1.0,1.0,-2.0,2.0,1.0,1651069070132400.0,2
1021,0.0,1.0,17.0,4.0,2.0,5.0,0.0,0.0,1651069070132400.0,2
1022,-3.0,0.0,-7.0,-1.0,-8.0,-4.0,0.0,-2.0,1651069070132400.0,2
1023,-1.0,0.0,6.0,-1.0,-7.0,-5.0,-4.0,-1.0,1651069070132400.0,2
1024,1.0,-1.0,0.0,2.0,-1.0,0.0,1.0,-2.0,1651069070153585.0,2
1025,1.0,1.0,-5.0,-4.0,-2.0,-1.0,-1.0,0.0,1651069070153585.0,2
1026,-1.0,-2.0,-4.0,4.0,-1.0,2.0,-1.0,-1.0,1651069070153585.0,2
1027,-3.0,2.0,11.0,5.0,6.0,0.0,-4.0,-2.0,1651069070153585.0,2
1028,-1.0,1.0,-9.0,-5.0,-1.0,3.0,5.0,0.0,1651069070175935.0,2
1029,-2.0,0.0,1.0,2.0,-2.0,3.0,0.0,-1.0,1651069070175935.0,2
1030,0.0,-1.0,-3.0,1.0,4.0,-2.0,1.0,0.0,1651069070176745.0,2
1031,-1.0,-1.0,3.0,0.0,-2.0,0.0,0.0,-1.0,1651069070176745.0,2
1032,0.0,0.0,-1.0,-3.0,-1.0,-2.0,-2.0,1.0,1651069070190744.0,2
1033,0.0,0.0,-6.0,3.0,-2.0,-4.0,-1.0,0.0,1651069070190744.0,2
1034,-1.0,1.0,4.0,-1.0,-1.0,-1.0,-1.0,-2.0,1651069070191707.0,2
1035,-4.0,-2.0,-4.0,-1.0,2.0,-2.0,0.0,0.0,1651069070191707.0,2
1036,0.0,-1.0,1.0,2.0,2.0,0.0,3.0,0.0,1651069070213498.0,2
1037,-3.0,-1.0,2.0,0.0,2.0,0.0,-1.0,-1.0,1651069070213498.0,2
1038,0.0,0.0,-5.0,-2.0,2.0,2.0,-1.0,1.0,1651069070213961.0,2
1039,1.0,0.0,4.0,-1.0,-6.0,-4.0,-1.0,-1.0,1651069070213961.0,2
1040,0.0,0.0,2.0,2.0,3.0,2.0,-1.0,0.0,1651069070236096.0,2
1041,0.0,1.0,-1.0,-1.0,-1.0,-2.0,-3.0,-2.0,1651069070236096.0,2
1042,-1.0,0.0,-2.0,-2.0,1.0,-4.0,0.0,-1.0,1651069070236216.0,2
1043,0.0,0.0,1.0,0.0,-2.0,2.0,0.0,0.0,1651069070236216.0,2
1044,0.0,-1.0,1.0,1.0,0.0,1.0,-1.0,-1.0,1651069070251075.0,2
1045,0.0,-1.0,-5.0,-2.0,-2.0,-2.0,-1.0,-1.0,1651069070251075.0,2
1046,1.0,-1.0,4.0,3.0,3.0,1.0,-1.0,-1.0,1651069070251075.0,2
1047,0.0,-1.0,0.0,0.0,-1.0,-1.0,-1.0,1.0,1651069070251075.0,2
1048,-2.0,-2.0,-5.0,-4.0,0.0,-1.0,0.0,-1.0,1651069070273556.0,2
1049,0.0,1.0,0.0,0.0,-1.0,-3.0,-1.0,-1.0,1651069070273556.0,2
1050,-1.0,-2.0,-3.0,0.0,3.0,1.0,-1.0,-1.0,1651069070273556.0,2
1051,-2.0,0.0,0.0,-1.0,-1.0,0.0,2.0,1.0,1651069070273556.0,2
1052,-1.0,0.0,2.0,0.0,2.0,0.0,-2.0,-1.0,1651069070295396.0,2
1053,-1.0,-2.0,-1.0,0.0,-1.0,-1.0,-2.0,-2.0,1651069070295396.0,2
1054,-2.0,0.0,-1.0,-1.0,-1.0,0.0,0.0,2.0,1651069070296299.0,2
1055,0.0,-1.0,1.0,-1.0,-2.0,-2.0,-1.0,-1.0,1651069070296299.0,2
1056,0.0,1.0,0.0,-2.0,-2.0,-3.0,0.0,0.0,1651069070310403.0,2
1057,-1.0,-1.0,0.0,2.0,-2.0,0.0,1.0,-1.0,1651069070310403.0,2
1058,-1.0,0.0,-1.0,-2.0,0.0,-1.0,0.0,-1.0,1651069070311402.0,2
1059,-2.0,0.0,-1.0,0.0,-1.0,0.0,-1.0,-1.0,1651069070311402.0,2
1060,1.0,-1.0,-1.0,0.0,1.0,-1.0,1.0,-1.0,1651069070333528.0,2
1061,1.0,0.0,0.0,0.0,-1.0,0.0,-1.0,-1.0,1651069070333528.0,2
1062,-1.0,-1.0,0.0,0.0,-2.0,0.0,1.0,0.0,1651069070333528.0,2
1063,-2.0,-3.0,-8.0,-4.0,-2.0,0.0,0.0,1.0,1651069070333528.0,2
1064,-1.0,3.0,16.0,2.0,2.0,0.0,0.0,0.0,1651069070355532.0,2
1065,-1.0,-1.0,0.0,-1.0,0.0,-2.0,0.0,0.0,1651069070355532.0,2
1066,0.0,-1.0,-2.0,-2.0,-1.0,-1.0,-5.0,0.0,1651069070356377.0,2
1067,0.0,-2.0,-5.0,-3.0,-1.0,-2.0,-3.0,-2.0,1651069070356377.0,2
1068,0.0,-1.0,-3.0,-1.0,-2.0,0.0,1.0,-1.0,1651069070370611.0,2
1069,1.0,0.0,4.0,2.0,-2.0,-1.0,-1.0,1.0,1651069070370611.0,2
1070,-3.0,1.0,3.0,1.0,-1.0,1.0,2.0,-1.0,1651069070371630.0,2
1071,0.0,-2.0,1.0,1.0,0.0,-2.0,1.0,-1.0,1651069070371630.0,2
1072,-2.0,0.0,-3.0,-2.0,-2.0,-1.0,-2.0,-1.0,1651069070393505.0,2
1073,-1.0,-1.0,-1.0,-2.0,-3.0,-6.0,-1.0,0.0,1651069070393505.0,2
1074,0.0,-2.0,-5.0,-1.0,2.0,8.0,2.0,2.0,1651069070393505.0,2
1075,0.0,2.0,6.0,3.0,1.0,1.0,-1.0,0.0,1651069070393505.0,2
1076,-1.0,-3.0,-7.0,-1.0,1.0,0.0,0.0,-2.0,1651069070415555.0,2
1077,2.0,0.0,8.0,1.0,-1.0,1.0,1.0,0.0,1651069070415555.0,2
1078,-1.0,1.0,-9.0,-5.0,-2.0,-3.0,-1.0,0.0,1651069070416400.0,2
1079,-1.0,-3.0,-2.0,-3.0,-3.0,-1.0,0.0,-1.0,1651069070416400.0,2
1080,0.0,-1.0,-6.0,0.0,3.0,1.0,-1.0,0.0,1651069070430561.0,2
1081,-2.0,2.0,23.0,3.0,-4.0,-1.0,0.0,-1.0,1651069070430561.0,2
1082,-2.0,-3.0,-22.0,-11.0,-1.0,-3.0,-1.0,-1.0,1651069070431562.0,2
1083,-1.0,-5.0,-25.0,-1.0,0.0,2.0,1.0,1.0,1651069070431562.0,2
1084,1.0,4.0,20.0,4.0,0.0,-2.0,0.0,-1.0,1651069070452723.0,2
1085,-1.0,-2.0,-8.0,0.0,1.0,1.0,-1.0,1.0,1651069070452723.0,2
1086,1.0,2.0,11.0,0.0,-14.0,-6.0,-2.0,-1.0,1651069070453653.0,2
1087,0.0,-1.0,0.0,1.0,12.0,1.0,-1.0,-2.0,1651069070453653.0,2
1088,-1.0,-5.0,-23.0,0.0,5.0,3.0,-1.0,0.0,1651069070475427.0,2
1089,0.0,1.0,-4.0,-4.0,1.0,-1.0,1.0,0.0,1651069070475427.0,2
1090,0.0,-2.0,11.0,3.0,-5.0,-1.0,-1.0,-2.0,1651069070476373.0,2
1091,0.0,2.0,7.0,-3.0,-10.0,-6.0,0.0,-3.0,1651069070476373.0,2
1092,-1.0,-6.0,-13.0,-5.0,-4.0,-3.0,-3.0,-1.0,1651069070490973.0,2
1093,1.0,1.0,-7.0,0.0,1.0,2.0,2.0,0.0,1651069070490973.0,2
1094,1.0,0.0,10.0,4.0,8.0,-1.0,-1.0,-2.0,1651069070491617.0,2
1095,-2.0,-1.0,0.0,-2.0,-2.0,1.0,2.0,0.0,1651069070491617.0,2
1096,-1.0,-1.0,-4.0,-1.0,-5.0,-4.0,-2.0,-2.0,1651069070513448.0,2
1097,-2.0,-3.0,-10.0,-2.0,4.0,0.0,-2.0,-1.0,1651069070513448.0,2
1098,0.0,-1.0,-4.0,-1.0,1.0,0.0,-2.0,0.0,1651069070513448.0,2
1099,0.0,1.0,7.0,1.0,-1.0,-1.0,-3.0,-1.0,1651069070513448.0,2
1100,0.0,-1.0,-4.0,-2.0,-3.0,1.0,0.0,-1.0,1651069070535820.0,2
1101,0.0,2.0,18.0,3.0,0.0,-3.0,0.0,0.0,1651069070535820.0,2
1102,-2.0,0.0,2.0,4.0,2.0,1.0,1.0,1.0,1651069070536589.0,2
1103,1.0,1.0,2.0,0.0,-1.0,-1.0,-2.0,1.0,1651069070536589.0,2
1104,-2.0,0.0,1.0,0.0,-3.0,0.0,-1.0,0.0,1651069070550612.0,2
1105,0.0,-1.0,-5.0,-1.0,-2.0,0.0,-1.0,-1.0,1651069070550612.0,2
1106,0.0,-2.0,-7.0,-2.0,-1.0,-4.0,-2.0,-3.0,1651069070551548.0,2
1107,-1.0,2.0,21.0,3.0,-1.0,1.0,0.0,-2.0,1651069070551548.0,2
1108,-1.0,1.0,-1.0,1.0,0.0,1.0,1.0,0.0,1651069070572716.0,2
1109,-1.0,-3.0,-9.0,-2.0,-1.0,1.0,1.0,-1.0,1651069070572716.0,2
1110,0.0,1.0,11.0,4.0,-1.0,-1.0,0.0,-1.0,1651069070573712.0,2
1111,0.0,-4.0,-21.0,-9.0,1.0,-2.0,-1.0,-1.0,1651069070573712.0,2
1112,2.0,3.0,2.0,1.0,-5.0,-3.0,0.0,0.0,1651069070595954.0,2
1113,-1.0,0.0,-1.0,-2.0,0.0,1.0,2.0,2.0,1651069070595954.0,2
1114,0.0,0.0,2.0,-1.0,-2.0,-1.0,-1.0,-2.0,1651069070596813.0,2
1115,-1.0,0.0,2.0,3.0,3.0,0.0,1.0,2.0,1651069070596813.0,2
1116,0.0,-1.0,8.0,-1.0,1.0,-1.0,-3.0,-1.0,1651069070611015.0,2
1117,0.0,-3.0,-8.0,0.0,-4.0,-4.0,-1.0,0.0,1651069070611015.0,2
1118,0.0,0.0,-5.0,3.0,13.0,6.0,2.0,0.0,1651069070611592.0,2
1119,-1.0,0.0,1.0,-2.0,-11.0,-4.0,-1.0,-1.0,1651069070611592.0,2
1120,1.0,0.0,0.0,2.0,13.0,6.0,0.0,1.0,1651069070633516.0,2
1121,-1.0,0.0,0.0,4.0,7.0,3.0,0.0,-1.0,1651069070633516.0,2
1122,0.0,1.0,3.0,-2.0,-4.0,1.0,-1.0,1.0,1651069070633647.0,2
1123,0.0,0.0,-4.0,0.0,0.0,0.0,-2.0,-1.0,1651069070633647.0,2
1124,-2.0,0.0,-1.0,-4.0,-7.0,-4.0,0.0,-2.0,1651069070656067.0,2
1125,-1.0,0.0,-2.0,-3.0,-2.0,-2.0,-3.0,-2.0,1651069070656067.0,2
1126,1.0,-1.0,-6.0,0.0,5.0,6.0,1.0,-1.0,1651069070656067.0,2
1127,-2.0,-1.0,0.0,0.0,1.0,-1.0,-1.0,0.0,1651069070656067.0,2
1128,1.0,1.0,0.0,2.0,-2.0,-1.0,0.0,-1.0,1651069070670819.0,2
1129,-2.0,-1.0,1.0,-5.0,-9.0,-3.0,-1.0,-2.0,1651069070670819.0,2
1130,1.0,0.0,-6.0,2.0,0.0,-3.0,-2.0,1.0,1651069070671827.0,2
1131,0.0,1.0,4.0,1.0,-1.0,1.0,1.0,-1.0,1651069070671827.0,2
1132,-1.0,0.0,0.0,0.0,-1.0,-3.0,0.0,-1.0,1651069070693553.0,2
1133,-2.0,0.0,-1.0,-3.0,0.0,0.0,0.0,0.0,1651069070693553.0,2
1134,-1.0,-2.0,2.0,-2.0,-9.0,-3.0,0.0,0.0,1651069070693553.0,2
1135,0.0,0.0,-2.0,0.0,2.0,0.0,1.0,-2.0,1651069070693553.0,2
1136,-1.0,-1.0,3.0,-1.0,1.0,-1.0,-1.0,0.0,1651069070715794.0,2
1137,1.0,1.0,-2.0,-2.0,-1.0,1.0,-2.0,0.0,1651069070715794.0,2
1138,0.0,-1.0,-1.0,-3.0,-2.0,0.0,2.0,0.0,1651069070716575.0,2
1139,1.0,-1.0,0.0,1.0,1.0,-3.0,-2.0,0.0,1651069070716575.0,2
1140,0.0,-1.0,-2.0,-4.0,-9.0,-3.0,-1.0,-1.0,1651069070730604.0,2
1141,-2.0,-2.0,-1.0,2.0,5.0,1.0,0.0,-1.0,1651069070730604.0,2
1142,-1.0,1.0,9.0,9.0,15.0,3.0,2.0,1.0,1651069070731562.0,2
1143,0.0,2.0,1.0,-3.0,-3.0,3.0,3.0,0.0,1651069070731562.0,2
1144,0.0,0.0,1.0,-3.0,-1.0,-2.0,1.0,0.0,1651069070753529.0,2
1145,0.0,0.0,-2.0,-3.0,-7.0,-3.0,-1.0,1.0,1651069070753529.0,2
1146,-1.0,-3.0,-3.0,-4.0,-3.0,-3.0,-2.0,-2.0,1651069070753529.0,2
1147,0.0,0.0,0.0,1.0,-1.0,0.0,-2.0,-1.0,1651069070753529.0,2
1148,0.0,-2.0,2.0,-1.0,-4.0,-2.0,0.0,0.0,1651069070775641.0,2
1149,1.0,-1.0,-1.0,-1.0,2.0,-1.0,1.0,0.0,1651069070775641.0,2
1150,-2.0,-1.0,-3.0,-2.0,-1.0,-1.0,-2.0,-1.0,1651069070776533.0,2
1151,0.0,0.0,1.0,0.0,1.0,0.0,-1.0,0.0,1651069070776533.0,2
1152,-1.0,-1.0,0.0,-1.0,2.0,3.0,1.0,1.0,1651069070789497.0,2
1153,0.0,1.0,-1.0,1.0,1.0,-1.0,-2.0,-2.0,1651069070789497.0,2
1154,-1.0,0.0,1.0,-2.0,-4.0,-2.0,-2.0,-2.0,1651069070798533.0,2
1155,-3.0,-2.0,0.0,-2.0,-3.0,-5.0,-2.0,1.0,1651069070798533.0,2
1156,-1.0,0.0,2.0,1.0,11.0,5.0,1.0,1.0,1651069070813447.0,2
1157,-1.0,-1.0,-1.0,1.0,-2.0,0.0,1.0,0.0,1651069070813447.0,2
1158,0.0,-1.0,-2.0,-2.0,-3.0,0.0,0.0,-2.0,1651069070820474.0,2
1159,0.0,0.0,0.0,2.0,2.0,2.0,0.0,0.0,1651069070820474.0,2
1160,-1.0,-1.0,0.0,-1.0,-1.0,-3.0,-2.0,-1.0,1651069070835287.0,2
1161,-1.0,-1.0,0.0,-1.0,-2.0,-2.0,-3.0,-2.0,1651069070835287.0,2
1162,-1.0,-2.0,-3.0,-1.0,0.0,-3.0,0.0,0.0,1651069070836296.0,2
1163,1.0,-1.0,0.0,1.0,-1.0,0.0,0.0,-2.0,1651069070836296.0,2
1164,-1.0,0.0,0.0,1.0,2.0,2.0,0.0,-2.0,1651069070850314.0,2
1165,-1.0,-3.0,-3.0,-1.0,-2.0,-3.0,-1.0,-1.0,1651069070850314.0,2
1166,-1.0,0.0,-1.0,-5.0,-17.0,-7.0,-2.0,0.0,1651069070858292.0,2
1167,-2.0,-2.0,-2.0,5.0,26.0,10.0,2.0,0.0,1651069070858292.0,2
1168,0.0,-2.0,1.0,-2.0,-6.0,-4.0,-1.0,-1.0,1651069070873291.0,2
1169,0.0,1.0,1.0,1.0,-1.0,-1.0,-1.0,-1.0,1651069070873291.0,2
1170,2.0,-1.0,0.0,-3.0,-1.0,-2.0,0.0,0.0,1651069070874248.0,2
1171,0.0,1.0,0.0,-3.0,-8.0,-3.0,-1.0,-2.0,1651069070874248.0,2
1172,-1.0,0.0,-3.0,0.0,2.0,1.0,0.0,0.0,1651069070903631.0,2
1173,-1.0,-2.0,-1.0,-1.0,0.0,0.0,0.0,0.0,1651069070903631.0,2
1174,0.0,-1.0,-2.0,-1.0,-1.0,1.0,0.0,-1.0,1651069070904610.0,2
1175,0.0,-1.0,0.0,-1.0,-4.0,-3.0,-2.0,-1.0,1651069070904610.0,2
1176,0.0,-1.0,1.0,1.0,3.0,2.0,2.0,-1.0,1651069070909611.0,2
1177,-1.0,-1.0,0.0,-2.0,-3.0,-4.0,-1.0,0.0,1651069070909611.0,2
1178,-1.0,0.0,0.0,0.0,5.0,-1.0,-1.0,-1.0,1651069070918575.0,2
1179,-2.0,0.0,0.0,-2.0,-2.0,-2.0,-3.0,-3.0,1651069070918575.0,2
1180,0.0,-1.0,0.0,0.0,-1.0,-2.0,-3.0,-1.0,1651069070933522.0,2
1181,0.0,1.0,0.0,0.0,0.0,3.0,4.0,0.0,1651069070933522.0,2
1182,0.0,-1.0,-1.0,1.0,0.0,0.0,-1.0,-2.0,1651069070934358.0,2
1183,0.0,0.0,0.0,1.0,2.0,-2.0,1.0,1.0,1651069070934358.0,2
1184,0.0,-3.0,-1.0,-2.0,-5.0,-3.0,-2.0,-1.0,1651069070955536.0,2
1185,1.0,2.0,0.0,0.0,2.0,1.0,-2.0,1.0,1651069070955536.0,2
1186,-2.0,0.0,-1.0,1.0,1.0,-1.0,1.0,-1.0,1651069070956336.0,2
1187,0.0,-1.0,-2.0,-5.0,-8.0,-3.0,0.0,-1.0,1651069070956336.0,2
1188,-1.0,0.0,0.0,3.0,5.0,4.0,2.0,0.0,1651069070970405.0,2
1189,-1.0,-3.0,-4.0,2.0,9.0,4.0,0.0,-2.0,1651069070970405.0,2
1190,1.0,-2.0,0.0,1.0,2.0,0.0,1.0,-1.0,1651069070978566.0,2
1191,-1.0,1.0,0.0,0.0,-1.0,1.0,-3.0,1.0,1651069070978566.0,2
1192,0.0,1.0,-1.0,-1.0,-3.0,-3.0,0.0,0.0,1651069070993559.0,2
1193,0.0,-1.0,1.0,-2.0,-6.0,0.0,1.0,-1.0,1651069070993559.0,2
1194,-2.0,1.0,0.0,0.0,4.0,-1.0,-2.0,0.0,1651069070993559.0,2
1195,-1.0,-1.0,-2.0,-1.0,-4.0,-2.0,1.0,-1.0,1651069070993559.0,2
1196,0.0,-1.0,-2.0,-2.0,-2.0,-1.0,-3.0,-2.0,1651069071015510.0,2
1197,-2.0,0.0,0.0,-1.0,-1.0,-2.0,0.0,0.0,1651069071015510.0,2
1198,-1.0,-1.0,0.0,-2.0,2.0,0.0,0.0,0.0,1651069071016358.0,2
1199,2.0,0.0,0.0,-3.0,-8.0,-1.0,-2.0,-1.0,1651069071016358.0,2
1200,-1.0,-4.0,-2.0,2.0,4.0,-5.0,-1.0,-1.0,1651069071030222.0,2
1201,0.0,-1.0,-3.0,-2.0,2.0,4.0,-1.0,-1.0,1651069071030222.0,2
1202,-2.0,-1.0,0.0,0.0,1.0,-2.0,-2.0,0.0,1651069071038208.0,2
1203,-1.0,-2.0,-2.0,-1.0,0.0,3.0,4.0,1.0,1651069071038208.0,2
1204,-1.0,-1.0,-1.0,-3.0,-5.0,-4.0,-2.0,-1.0,1651069071052841.0,2
1205,0.0,0.0,-1.0,1.0,0.0,-1.0,-2.0,-2.0,1651069071052841.0,2
1206,1.0,-1.0,-1.0,-3.0,-1.0,-2.0,0.0,0.0,1651069071053839.0,2
1207,0.0,0.0,0.0,-1.0,-3.0,0.0,1.0,-1.0,1651069071053839.0,2
1208,0.0,1.0,-2.0,-3.0,-10.0,0.0,-1.0,0.0,1651069071075598.0,2
1209,-1.0,-1.0,-1.0,1.0,5.0,-2.0,-2.0,-1.0,1651069071075598.0,2
1210,0.0,0.0,-1.0,0.0,-3.0,0.0,0.0,0.0,1651069071076570.0,2
1211,-1.0,0.0,1.0,2.0,-3.0,-2.0,1.0,-1.0,1651069071076570.0,2
1212,1.0,-1.0,-1.0,-1.0,5.0,5.0,2.0,0.0,1651069071098548.0,2
1213,-1.0,-3.0,0.0,-2.0,-7.0,-3.0,-1.0,-3.0,1651069071098548.0,2
1214,1.0,-1.0,0.0,2.0,11.0,5.0,-1.0,0.0,1651069071099478.0,2
1215,1.0,0.0,-1.0,-2.0,0.0,-1.0,-1.0,-1.0,1651069071099478.0,2
1216,-2.0,1.0,-1.0,-2.0,-2.0,-4.0,-2.0,1.0,1651069071113473.0,2
1217,-1.0,-1.0,-1.0,0.0,-1.0,1.0,2.0,2.0,1651069071113473.0,2
1218,-1.0,-2.0,-1.0,-2.0,-4.0,-2.0,0.0,-2.0,1651069071113473.0,2
1219,-2.0,-2.0,0.0,-1.0,0.0,-2.0,-2.0,0.0,1651069071113473.0,2
1220,-1.0,0.0,0.0,0.0,1.0,1.0,0.0,0.0,1651069071135599.0,2
1221,-2.0,0.0,2.0,-1.0,-2.0,-1.0,-1.0,1.0,1651069071135599.0,2
1222,-1.0,-3.0,-1.0,1.0,-3.0,-1.0,-2.0,-2.0,1651069071136531.0,2
1223,1.0,-2.0,-1.0,2.0,4.0,1.0,0.0,0.0,1651069071136531.0,2
1224,0.0,0.0,-1.0,-1.0,-4.0,-2.0,-1.0,0.0,1651069071158635.0,2
1225,0.0,-2.0,0.0,-1.0,-4.0,-5.0,-1.0,0.0,1651069071158635.0,2
1226,-1.0,-1.0,1.0,0.0,0.0,0.0,1.0,2.0,1651069071159564.0,2
1227,0.0,1.0,-1.0,-2.0,-8.0,-1.0,-2.0,-1.0,1651069071159564.0,2
1228,-1.0,1.0,0.0,3.0,18.0,7.0,1.0,0.0,1651069071180890.0,2
1229,0.0,0.0,-1.0,-1.0,-2.0,-2.0,-2.0,-1.0,1651069071180890.0,2
1230,-1.0,1.0,0.0,-3.0,-6.0,-2.0,0.0,0.0,1651069071181885.0,2
1231,0.0,0.0,0.0,1.0,5.0,-2.0,1.0,0.0,1651069071181885.0,2
1232,0.0,0.0,0.0,-2.0,-8.0,-5.0,-1.0,-1.0,1651069071196075.0,2
1233,0.0,2.0,1.0,0.0,0.0,4.0,4.0,0.0,1651069071196075.0,2
1234,0.0,-1.0,-1.0,-4.0,-2.0,-1.0,-1.0,1.0,1651069071196845.0,2
1235,-1.0,-2.0,1.0,0.0,-3.0,-1.0,-2.0,-1.0,1651069071196845.0,2
1236,-1.0,-3.0,-3.0,0.0,-2.0,1.0,0.0,1.0,1651069071218937.0,2
1237,-1.0,-1.0,0.0,0.0,2.0,0.0,-1.0,-1.0,1651069071218937.0,2
1238,0.0,1.0,-1.0,0.0,-1.0,1.0,0.0,0.0,1651069071219934.0,2
1239,-1.0,1.0,1.0,-1.0,-2.0,-2.0,1.0,0.0,1651069071219934.0,2
1240,-1.0,0.0,-1.0,-1.0,0.0,-1.0,-2.0,-2.0,1651069071233522.0,2
1241,0.0,0.0,1.0,0.0,-4.0,-7.0,-2.0,-2.0,1651069071233522.0,2
1242,1.0,-1.0,-1.0,2.0,7.0,12.0,1.0,-1.0,1651069071234031.0,2
1243,2.0,-1.0,-2.0,-1.0,-1.0,0.0,1.0,-1.0,1651069071234031.0,2
1244,0.0,0.0,1.0,3.0,6.0,5.0,1.0,-1.0,1651069071255406.0,2
1245,0.0,0.0,-2.0,-4.0,-5.0,-3.0,-2.0,0.0,1651069071255406.0,2
1246,-1.0,2.0,0.0,-2.0,-2.0,-1.0,-1.0,-1.0,1651069071256336.0,2
1247,-1.0,-2.0,-1.0,0.0,0.0,-2.0,-2.0,-1.0,1651069071256336.0,2
1248,-2.0,-1.0,1.0,2.0,2.0,-2.0,0.0,0.0,1651069071279280.0,2
1249,1.0,1.0,1.0,-1.0,1.0,2.0,-1.0,1.0,1651069071279280.0,2
1250,0.0,-1.0,0.0,-1.0,-3.0,-5.0,0.0,0.0,1651069071279280.0,2
1251,0.0,1.0,1.0,-1.0,-1.0,0.0,0.0,1.0,1651069071279280.0,2
1252,0.0,0.0,-1.0,-3.0,-3.0,-4.0,-2.0,0.0,1651069071293452.0,2
1253,1.0,0.0,-2.0,0.0,1.0,0.0,-1.0,0.0,1651069071293452.0,2
1254,-1.0,-1.0,-1.0,1.0,-1.0,-2.0,1.0,-1.0,1651069071293452.0,2
1255,-2.0,-1.0,-1.0,0.0,2.0,2.0,0.0,-2.0,1651069071293452.0,2
1256,-1.0,-1.0,-1.0,-1.0,-1.0,0.0,-2.0,0.0,1651069071315528.0,2
1257,-4.0,-1.0,0.0,0.0,0.0,0.0,0.0,-2.0,1651069071315528.0,2
1258,0.0,-2.0,-1.0,-1.0,-6.0,-6.0,-5.0,-1.0,1651069071316415.0,2
1259,0.0,-1.0,-2.0,-1.0,2.0,1.0,0.0,-1.0,1651069071316415.0,2
1260,0.0,0.0,2.0,0.0,-1.0,4.0,5.0,0.0,1651069071337428.0,2
1261,0.0,-3.0,-2.0,0.0,2.0,4.0,1.0,0.0,1651069071337428.0,2
1262,2.0,0.0,1.0,-1.0,0.0,-3.0,-1.0,0.0,1651069071345426.0,2
1263,-1.0,0.0,-2.0,-1.0,-3.0,-3.0,-3.0,-1.0,1651069071345426.0,2
1264,0.0,-1.0,-2.0,0.0,-2.0,-2.0,-4.0,-1.0,1651069071353344.0,2
1265,1.0,1.0,-1.0,0.0,-1.0,-2.0,2.0,0.0,1651069071353344.0,2
1266,0.0,1.0,-2.0,0.0,-10.0,0.0,-1.0,-1.0,1651069071354348.0,2
1267,-1.0,0.0,0.0,1.0,9.0,2.0,0.0,1.0,1651069071354348.0,0
1268,-1.0,-3.0,-3.0,-4.0,-7.0,-3.0,0.0,1.0,1651069071375588.0,0
1269,0.0,-2.0,0.0,1.0,1.0,-1.0,-1.0,-1.0,1651069071375588.0,0
1270,0.0,0.0,-1.0,0.0,2.0,-1.0,-1.0,-1.0,1651069071376450.0,0
1271,-1.0,0.0,1.0,0.0,-1.0,-2.0,0.0,-1.0,1651069071376450.0,0
1272,-1.0,0.0,0.0,-1.0,-3.0,1.0,1.0,-1.0,1651069071398647.0,0
1273,-1.0,0.0,0.0,-2.0,-6.0,-4.0,-1.0,0.0,1651069071398647.0,0
1274,-1.0,-2.0,-2.0,-2.0,6.0,5.0,0.0,-1.0,1651069071399577.0,0
1275,1.0,-1.0,-2.0,1.0,2.0,-2.0,-1.0,-1.0,1651069071399577.0,0
1276,-1.0,0.0,2.0,1.0,-3.0,-5.0,-3.0,-3.0,1651069071413317.0,0
1277,0.0,0.0,-2.0,0.0,0.0,0.0,-1.0,0.0,1651069071413317.0,0
1278,0.0,0.0,1.0,-1.0,-2.0,-4.0,0.0,0.0,1651069071414317.0,0
1279,-1.0,-1.0,0.0,-1.0,0.0,5.0,0.0,-2.0,1651069071414317.0,0
1280,0.0,0.0,0.0,2.0,6.0,3.0,2.0,0.0,1651069071435328.0,0
1281,0.0,1.0,0.0,-2.0,1.0,-1.0,0.0,1.0,1651069071435328.0,0
1282,0.0,0.0,-2.0,-2.0,-5.0,-3.0,-2.0,0.0,1651069071436259.0,0
1283,-2.0,-2.0,1.0,1.0,1.0,-3.0,-3.0,0.0,1651069071436259.0,0
1284,-1.0,0.0,-1.0,-1.0,-2.0,-1.0,0.0,-1.0,1651069071458456.0,0
1285,-1.0,0.0,0.0,1.0,1.0,2.0,1.0,0.0,1651069071458456.0,0
1286,-2.0,0.0,-2.0,-1.0,1.0,0.0,1.0,0.0,1651069071459393.0,0
1287,-1.0,0.0,-2.0,-2.0,-5.0,2.0,2.0,-1.0,1651069071459393.0,0
1288,-2.0,0.0,-1.0,-1.0,-7.0,-4.0,-2.0,-1.0,1651069071472925.0,0
1289,0.0,-1.0,-1.0,1.0,7.0,3.0,0.0,0.0,1651069071472925.0,0
1290,-1.0,0.0,0.0,-3.0,-5.0,-3.0,-1.0,1.0,1651069071473855.0,0
1291,-1.0,0.0,-1.0,-1.0,-3.0,-3.0,-1.0,0.0,1651069071473855.0,0
1292,0.0,-1.0,2.0,2.0,3.0,2.0,1.0,1.0,1651069071496068.0,0
1293,0.0,0.0,-3.0,-2.0,0.0,1.0,-2.0,-3.0,1651069071496068.0,0
1294,-1.0,0.0,1.0,1.0,0.0,-1.0,-1.0,-2.0,1651069071496149.0,0
1295,-2.0,0.0,0.0,-2.0,-2.0,-2.0,-3.0,1.0,1651069071496149.0,0
1296,0.0,-2.0,-1.0,-1.0,2.0,2.0,-1.0,0.0,1651069071518793.0,0
1297,-2.0,0.0,0.0,0.0,-1.0,-2.0,-2.0,-1.0,1651069071518793.0,0
1298,0.0,0.0,-1.0,2.0,2.0,3.0,3.0,1.0,1651069071519732.0,0
1299,2.0,-1.0,-1.0,-1.0,-2.0,-1.0,1.0,0.0,1651069071519732.0,0
1300,-1.0,2.0,0.0,-1.0,-3.0,-5.0,-2.0,0.0,1651069071533560.0,0
1301,-1.0,-1.0,0.0,0.0,-5.0,1.0,0.0,1.0,1651069071533560.0,0
1302,-1.0,-1.0,0.0,1.0,9.0,4.0,-1.0,-2.0,1651069071533560.0,0
1303,1.0,1.0,0.0,-3.0,-7.0,-2.0,0.0,0.0,1651069071533560.0,0
1304,-1.0,-1.0,1.0,0.0,7.0,3.0,1.0,-1.0,1651069071555702.0,0
1305,1.0,0.0,1.0,2.0,5.0,2.0,1.0,0.0,1651069071555702.0,0
1306,0.0,0.0,0.0,-3.0,-6.0,-2.0,-2.0,-1.0,1651069071556501.0,0
1307,-1.0,-2.0,-2.0,3.0,2.0,-1.0,0.0,-1.0,1651069071556501.0,0
1308,0.0,-2.0,0.0,-2.0,-2.0,-1.0,0.0,0.0,1651069071578623.0,0
1309,2.0,2.0,-1.0,-1.0,-4.0,-3.0,-1.0,-1.0,1651069071578623.0,0
1310,-2.0,-2.0,-3.0,-1.0,2.0,0.0,-2.0,-2.0,1651069071579556.0,0
1311,-1.0,-1.0,0.0,-1.0,-2.0,2.0,-1.0,0.0,1651069071579556.0,0
1312,-1.0,1.0,-1.0,-1.0,-1.0,1.0,2.0,0.0,1651069071592635.0,0
1313,-1.0,-2.0,-1.0,-2.0,-1.0,-3.0,-2.0,-1.0,1651069071592635.0,0
1314,3.0,1.0,0.0,0.0,-7.0,-4.0,2.0,2.0,1651069071593636.0,0
1315,1.0,-1.0,-3.0,-3.0,-9.0,-4.0,-2.0,-2.0,1651069071593636.0,0
1316,-1.0,-1.0,-2.0,1.0,7.0,1.0,-3.0,-1.0,1651069071615644.0,0
1317,-1.0,-2.0,1.0,-1.0,-3.0,1.0,2.0,-1.0,1651069071615644.0,0
1318,-1.0,-2.0,0.0,1.0,1.0,-1.0,1.0,-1.0,1651069071616574.0,0
1319,0.0,-1.0,0.0,-1.0,0.0,2.0,0.0,-2.0,1651069071616574.0,0
1320,0.0,-2.0,-1.0,-1.0,-4.0,-3.0,1.0,2.0,1651069071638582.0,0
1321,-1.0,-2.0,-3.0,0.0,1.0,1.0,0.0,0.0,1651069071638582.0,0
1322,-3.0,2.0,0.0,-1.0,-4.0,-1.0,-2.0,-1.0,1651069071639514.0,0
1323,1.0,1.0,1.0,1.0,9.0,1.0,-1.0,0.0,1651069071639514.0,0
1324,0.0,3.0,2.0,-2.0,-6.0,-1.0,1.0,-2.0,1651069071653543.0,0
1325,0.0,0.0,1.0,-1.0,-1.0,-1.0,1.0,0.0,1651069071653543.0,0
1326,-3.0,-2.0,1.0,3.0,9.0,7.0,1.0,0.0,1651069071654473.0,0
1327,-1.0,-1.0,0.0,-1.0,-7.0,-4.0,-2.0,0.0,1651069071654473.0,0
1328,0.0,-1.0,-2.0,-2.0,-5.0,-1.0,-1.0,-2.0,1651069071675883.0,0
1329,0.0,1.0,2.0,1.0,3.0,1.0,2.0,0.0,1651069071675883.0,0
1330,1.0,0.0,-1.0,-4.0,-3.0,-3.0,-1.0,0.0,1651069071675883.0,0
1331,-1.0,-2.0,-2.0,0.0,0.0,3.0,1.0,-2.0,1651069071675883.0,0
1332,0.0,-2.0,-3.0,-2.0,10.0,11.0,0.0,0.0,1651069071698867.0,0
1333,-2.0,-2.0,0.0,-1.0,-14.0,-10.0,0.0,-2.0,1651069071698867.0,0
1334,2.0,1.0,0.0,4.0,10.0,8.0,2.0,0.0,1651069071699792.0,0
1335,-1.0,-2.0,-5.0,-10.0,-14.0,-9.0,-2.0,0.0,1651069071699792.0,0
1336,1.0,0.0,1.0,4.0,-1.0,-4.0,0.0,-2.0,1651069071713555.0,0
1337,0.0,-1.0,-1.0,-4.0,5.0,-1.0,-4.0,-1.0,1651069071713555.0,0
1338,-2.0,-3.0,-3.0,-3.0,-5.0,-1.0,0.0,-1.0,1651069071713555.0,0
1339,1.0,1.0,1.0,2.0,7.0,1.0,-1.0,1.0,1651069071713555.0,0
1340,-1.0,-2.0,-3.0,-5.0,-6.0,-1.0,0.0,-1.0,1651069071735566.0,0
1341,1.0,4.0,9.0,3.0,-2.0,-2.0,-2.0,0.0,1651069071735566.0,0
1342,-1.0,-2.0,-2.0,1.0,-1.0,-4.0,-4.0,-2.0,1651069071736496.0,0
1343,-4.0,-5.0,-13.0,-7.0,0.0,3.0,-1.0,-1.0,1651069071736496.0,0
1344,0.0,-1.0,2.0,0.0,-7.0,-3.0,0.0,0.0,1651069071758437.0,0
1345,-2.0,-2.0,-10.0,-3.0,5.0,1.0,0.0,0.0,1651069071758437.0,0
1346,2.0,3.0,8.0,-2.0,-6.0,-6.0,-2.0,0.0,1651069071759435.0,0
1347,-5.0,-4.0,-1.0,-1.0,8.0,0.0,-4.0,-5.0,1651069071759435.0,0
1348,2.0,5.0,17.0,22.0,8.0,10.0,4.0,4.0,1651069071772512.0,0
1349,-6.0,-18.0,-44.0,-36.0,-34.0,-20.0,-4.0,-3.0,1651069071772512.0,3
1350,1.0,2.0,3.0,6.0,13.0,4.0,1.0,1.0,1651069071780588.0,3
1351,3.0,7.0,11.0,-2.0,-11.0,-4.0,1.0,1.0,1651069071780588.0,3
1352,0.0,1.0,5.0,12.0,22.0,14.0,4.0,0.0,1651069071795720.0,3
1353,2.0,8.0,24.0,15.0,28.0,11.0,1.0,-2.0,1651069071795720.0,3
1354,-1.0,-5.0,-9.0,-14.0,-41.0,-18.0,-3.0,0.0,1651069071796719.0,3
1355,3.0,2.0,1.0,-4.0,26.0,17.0,5.0,4.0,1651069071796719.0,3
1356,-3.0,-3.0,-7.0,4.0,-3.0,-9.0,-2.0,-1.0,1651069071818762.0,3
1357,1.0,5.0,12.0,5.0,-8.0,0.0,-3.0,-1.0,1651069071818762.0,3
1358,-1.0,-4.0,-13.0,1.0,9.0,0.0,-1.0,-4.0,1651069071819696.0,3
1359,-1.0,0.0,6.0,21.0,-10.0,-5.0,1.0,-1.0,1651069071819696.0,3
1360,-2.0,-5.0,-22.0,-67.0,-11.0,-2.0,-3.0,-5.0,1651069071832846.0,3
1361,-1.0,0.0,4.0,-23.0,-6.0,-3.0,0.0,2.0,1651069071832846.0,3
1362,-2.0,-3.0,-8.0,12.0,10.0,7.0,-3.0,-2.0,1651069071841046.0,3
1363,1.0,-1.0,-10.0,-45.0,-23.0,-11.0,0.0,3.0,1651069071841046.0,3
1364,5.0,7.0,16.0,42.0,29.0,7.0,6.0,8.0,1651069071855646.0,3
1365,-5.0,-4.0,3.0,39.0,17.0,7.0,-20.0,-16.0,1651069071855646.0,3
1366,7.0,4.0,4.0,-40.0,-26.0,-4.0,20.0,18.0,1651069071856577.0,3
1367,-4.0,-8.0,-16.0,0.0,8.0,1.0,-5.0,-13.0,1651069071856577.0,3
1368,1.0,4.0,11.0,16.0,18.0,0.0,-8.0,3.0,1651069071878835.0,3
1369,1.0,-8.0,-22.0,-24.0,-27.0,-1.0,18.0,10.0,1651069071878835.0,3
1370,-1.0,7.0,23.0,24.0,15.0,3.0,-17.0,-10.0,1651069071879769.0,3
1371,2.0,4.0,17.0,28.0,22.0,10.0,3.0,1.0,1651069071879769.0,3
1372,-2.0,-5.0,-16.0,-37.0,-37.0,-18.0,6.0,1.0,1651069071892900.0,3
1373,-5.0,-6.0,-6.0,57.0,71.0,20.0,-9.0,-8.0,1651069071892900.0,3
1374,-6.0,-7.0,-2.0,-21.0,-35.0,-14.0,-10.0,-17.0,1651069071900861.0,3
1375,4.0,0.0,-11.0,0.0,-8.0,-3.0,18.0,24.0,1651069071900861.0,3
1376,-8.0,-1.0,1.0,-52.0,-11.0,-6.0,-16.0,-15.0,1651069071915826.0,3
1377,6.0,3.0,2.0,22.0,-7.0,-8.0,-18.0,-12.0,1651069071915826.0,3
1378,21.0,4.0,21.0,28.0,10.0,8.0,4.0,18.0,1651069071916752.0,3
1379,-47.0,-12.0,-26.0,-41.0,5.0,2.0,3.0,-11.0,1651069071916752.0,3
1380,30.0,7.0,11.0,8.0,-18.0,-8.0,0.0,4.0,1651069071937866.0,3
1381,-13.0,-2.0,-4.0,17.0,19.0,4.0,1.0,-10.0,1651069071937866.0,3
1382,17.0,-9.0,2.0,-8.0,-15.0,-13.0,-7.0,4.0,1651069071938864.0,3
1383,66.0,7.0,3.0,-5.0,-16.0,-7.0,-10.0,15.0,1651069071938864.0,3
1384,-98.0,-8.0,3.0,38.0,20.0,10.0,7.0,-20.0,1651069071952899.0,3
1385,54.0,-6.0,-12.0,-49.0,-9.0,1.0,-3.0,3.0,1651069071952899.0,3
1386,22.0,8.0,-6.0,-4.0,5.0,-5.0,-5.0,0.0,1651069071960873.0,3
1387,-4.0,-1.0,9.0,8.0,-25.0,-3.0,-2.0,-2.0,1651069071960873.0,3
1388,10.0,-9.0,-41.0,-14.0,-1.0,-4.0,-13.0,-23.0,1651069071975832.0,3
1389,92.0,18.0,47.0,-6.0,-16.0,-4.0,13.0,48.0,1651069071975832.0,3
1390,-102.0,-8.0,-25.0,-21.0,-9.0,6.0,29.0,-13.0,1651069071976763.0,3
1391,0.0,4.0,22.0,5.0,12.0,-2.0,-13.0,-6.0,1651069071976763.0,3
1392,13.0,-5.0,-23.0,5.0,2.0,8.0,28.0,21.0,1651069071997753.0,3
1393,5.0,6.0,-6.0,22.0,13.0,11.0,15.0,6.0,1651069071997753.0,3
1394,54.0,4.0,29.0,-18.0,-22.0,-13.0,-1.0,14.0,1651069071998729.0,3
1395,-110.0,0.0,-41.0,4.0,12.0,-2.0,-15.0,-33.0,1651069071998729.0,3
1396,57.0,-1.0,25.0,75.0,28.0,7.0,-8.0,-1.0,1651069072012847.0,3
1397,-63.0,-3.0,20.0,-26.0,6.0,2.0,2.0,-9.0,1651069072012847.0,3
1398,38.0,5.0,-10.0,-36.0,-8.0,7.0,5.0,8.0,1651069072020825.0,3
1399,-11.0,8.0,19.0,58.0,17.0,9.0,14.0,5.0,1651069072020825.0,3
1400,43.0,11.0,19.0,-10.0,-23.0,-18.0,-35.0,-4.0,1651069072036844.0,3
1401,-71.0,-9.0,-4.0,12.0,-15.0,-6.0,19.0,-1.0,1651069072036844.0,3
1402,-5.0,-13.0,-17.0,7.0,28.0,8.0,-6.0,-10.0,1651069072037834.0,3
1403,10.0,-14.0,-52.0,-50.0,-22.0,2.0,2.0,5.0,1651069072037834.0,3
1404,20.0,-2.0,-15.0,-5.0,8.0,5.0,-3.0,10.0,1651069072058001.0,3
1405,13.0,2.0,14.0,-9.0,-10.0,0.0,-3.0,-4.0,1651069072058001.0,3
1406,53.0,8.0,9.0,13.0,16.0,5.0,10.0,25.0,1651069072058932.0,3
1407,-48.0,-22.0,-16.0,-11.0,2.0,-4.0,-6.0,-15.0,1651069072058932.0,3
1408,-20.0,-3.0,1.0,4.0,19.0,7.0,-1.0,-1.0,1651069072081616.0,3
1409,36.0,17.0,16.0,1.0,-6.0,1.0,-7.0,-1.0,1651069072081616.0,3
1410,-9.0,4.0,1.0,12.0,-4.0,2.0,10.0,5.0,1651069072081616.0,3
1411,48.0,6.0,25.0,12.0,15.0,0.0,-4.0,9.0,1651069072081616.0,3
1412,-101.0,-17.0,-23.0,-37.0,-26.0,2.0,5.0,-13.0,1651069072095732.0,3
1413,8.0,-24.0,-17.0,20.0,-9.0,-11.0,6.0,6.0,1651069072095732.0,3
1414,-34.0,1.0,-5.0,2.0,-5.0,-5.0,-3.0,-12.0,1651069072096692.0,3
1415,26.0,5.0,2.0,-28.0,-12.0,-1.0,-7.0,5.0,1651069072096692.0,3
1416,-1.0,-4.0,7.0,0.0,-20.0,-9.0,4.0,5.0,1651069072117800.0,3
1417,38.0,20.0,16.0,32.0,34.0,7.0,1.0,7.0,1651069072117800.0,3
1418,20.0,-11.0,-6.0,29.0,-5.0,-6.0,-2.0,7.0,1651069072118730.0,3
1419,-30.0,2.0,18.0,6.0,8.0,2.0,11.0,2.0,1651069072118730.0,3
1420,2.0,-8.0,-21.0,-51.0,-27.0,-10.0,-12.0,-2.0,1651069072141702.0,3
1421,3.0,8.0,-21.0,-27.0,-13.0,0.0,-6.0,-4.0,1651069072141702.0,3
1422,-6.0,7.0,35.0,15.0,22.0,2.0,-2.0,-6.0,1651069072141702.0,3
1423,17.0,-8.0,15.0,38.0,17.0,8.0,-9.0,-8.0,1651069072141702.0,3
1424,-3.0,1.0,-2.0,-13.0,-10.0,0.0,10.0,5.0,1651069072155853.0,3
1425,-27.0,-8.0,-1.0,-11.0,-5.0,-12.0,-23.0,-24.0,1651069072155853.0,3
1426,-20.0,-8.0,-48.0,-26.0,-15.0,-2.0,-1.0,3.0,1651069072156804.0,3
1427,37.0,7.0,8.0,-29.0,-11.0,3.0,24.0,16.0,1651069072156804.0,3
1428,7.0,6.0,6.0,20.0,6.0,-1.0,-2.0,7.0,1651069072177832.0,3
1429,-58.0,-5.0,21.0,19.0,-1.0,-3.0,-6.0,-17.0,1651069072177832.0,3
1430,-10.0,-8.0,-35.0,18.0,8.0,-3.0,-21.0,-19.0,1651069072178763.0,3
1431,22.0,8.0,51.0,21.0,-3.0,-4.0,-4.0,-4.0,1651069072178763.0,3
1432,2.0,16.0,-4.0,6.0,0.0,3.0,8.0,8.0,1651069072200726.0,3
1433,23.0,-9.0,-29.0,-30.0,8.0,7.0,6.0,7.0,1651069072200726.0,3
1434,-15.0,2.0,16.0,-2.0,10.0,4.0,-1.0,-9.0,1651069072201656.0,3
1435,3.0,-2.0,-7.0,17.0,-14.0,-15.0,-11.0,-4.0,1651069072201656.0,3
1436,23.0,0.0,-11.0,-13.0,1.0,-2.0,1.0,-2.0,1651069072215708.0,3
1437,-32.0,0.0,-2.0,-20.0,-16.0,4.0,-2.0,0.0,1651069072215708.0,3
1438,-8.0,-2.0,12.0,35.0,17.0,13.0,14.0,4.0,1651069072216733.0,3
1439,11.0,2.0,-3.0,-14.0,-9.0,-4.0,-4.0,-11.0,1651069072216733.0,3
1440,0.0,-5.0,7.0,19.0,-1.0,-9.0,4.0,4.0,1651069072237793.0,3
1441,-17.0,-6.0,-17.0,-28.0,-22.0,-6.0,-3.0,-3.0,1651069072237793.0,3
1442,-1.0,3.0,4.0,5.0,2.0,2.0,-9.0,-10.0,1651069072238788.0,3
1443,37.0,-2.0,-8.0,-6.0,6.0,-3.0,0.0,15.0,1651069072238788.0,3
1444,1.0,3.0,17.0,-3.0,-2.0,5.0,8.0,6.0,1651069072261771.0,3
1445,6.0,2.0,-8.0,26.0,14.0,5.0,11.0,11.0,1651069072261771.0,3
1446,10.0,-1.0,-6.0,-27.0,-5.0,-3.0,-23.0,-19.0,1651069072261771.0,3
1447,-3.0,6.0,-2.0,3.0,8.0,11.0,24.0,29.0,1651069072261771.0,3
1448,-7.0,-7.0,-7.0,-16.0,-3.0,-9.0,-8.0,-5.0,1651069072275896.0,3
1449,13.0,-1.0,6.0,7.0,-17.0,-11.0,-3.0,0.0,1651069072275896.0,3
1450,4.0,5.0,22.0,14.0,-5.0,-5.0,6.0,3.0,1651069072275896.0,3
1451,3.0,-7.0,-31.0,-8.0,0.0,5.0,-12.0,-17.0,1651069072275896.0,3
1452,-20.0,-4.0,16.0,3.0,6.0,-1.0,-8.0,-9.0,1651069072297778.0,3
1453,-2.0,1.0,-1.0,3.0,-7.0,-6.0,10.0,13.0,1651069072297778.0,3
1454,-12.0,-1.0,-12.0,-20.0,-11.0,0.0,4.0,3.0,1651069072298707.0,3
1455,-9.0,-3.0,6.0,2.0,-9.0,-8.0,-3.0,-6.0,1651069072298707.0,3
1456,1.0,-2.0,3.0,25.0,1.0,0.0,1.0,0.0,1651069072321722.0,3
1457,4.0,-4.0,-29.0,-40.0,-6.0,-1.0,-12.0,-10.0,1651069072321722.0,3
1458,-12.0,-8.0,-12.0,-21.0,-3.0,-6.0,-4.0,-4.0,1651069072321722.0,3
1459,42.0,11.0,17.0,9.0,-16.0,-5.0,0.0,15.0,1651069072321722.0,3
1460,2.0,-6.0,-23.0,-11.0,23.0,13.0,-13.0,-15.0,1651069072335787.0,3
1461,-13.0,-2.0,27.0,1.0,-11.0,-7.0,6.0,3.0,1651069072335787.0,3
1462,4.0,1.0,-21.0,-10.0,0.0,-2.0,3.0,2.0,1651069072336750.0,3
1463,-12.0,3.0,10.0,7.0,2.0,-1.0,0.0,-7.0,1651069072336750.0,3
1464,-5.0,-2.0,-7.0,-31.0,-18.0,-7.0,1.0,4.0,1651069072357726.0,3
1465,10.0,2.0,11.0,26.0,16.0,4.0,3.0,1.0,1651069072357726.0,3
1466,-11.0,-8.0,-13.0,10.0,7.0,3.0,1.0,0.0,1651069072358671.0,3
1467,-11.0,1.0,11.0,-9.0,-3.0,-6.0,-15.0,-13.0,1651069072358671.0,3
1468,3.0,3.0,14.0,8.0,-6.0,-6.0,9.0,1.0,1651069072381757.0,3
1469,-12.0,-3.0,-10.0,3.0,19.0,9.0,-4.0,-7.0,1651069072381757.0,3
1470,8.0,6.0,6.0,-15.0,-5.0,0.0,5.0,10.0,1651069072381757.0,3
1471,-18.0,1.0,0.0,23.0,18.0,7.0,4.0,-7.0,1651069072381757.0,3
1472,22.0,5.0,-1.0,-27.0,-17.0,-9.0,-10.0,6.0,1651069072395717.0,3
1473,18.0,-1.0,2.0,7.0,-2.0,3.0,2.0,-5.0,1651069072395717.0,3
1474,-3.0,5.0,15.0,11.0,14.0,4.0,-11.0,4.0,1651069072402883.0,3
1475,-7.0,-2.0,-13.0,-4.0,-6.0,-4.0,-4.0,-9.0,1651069072402883.0,3
1476,-8.0,-1.0,7.0,13.0,2.0,1.0,12.0,10.0,1651069072417944.0,3
1477,-37.0,-3.0,-19.0,-16.0,0.0,3.0,-9.0,-18.0,1651069072417944.0,3
1478,2.0,1.0,20.0,19.0,-4.0,3.0,-1.0,-2.0,1651069072418895.0,3
1479,-21.0,-6.0,-6.0,-7.0,14.0,-1.0,-3.0,2.0,1651069072418895.0,3
1480,4.0,2.0,-2.0,8.0,-2.0,6.0,7.0,0.0,1651069072440883.0,3
1481,8.0,0.0,-10.0,-29.0,-12.0,-2.0,-4.0,7.0,1651069072440883.0,3
1482,2.0,0.0,1.0,20.0,7.0,1.0,4.0,1.0,1651069072441814.0,3
1483,-9.0,0.0,-6.0,-48.0,-27.0,-8.0,3.0,3.0,1651069072441814.0,3
1484,12.0,-4.0,-5.0,11.0,12.0,1.0,-5.0,0.0,1651069072455843.0,3
1485,4.0,4.0,1.0,7.0,-2.0,-3.0,4.0,5.0,1651069072455843.0,3
1486,-5.0,-2.0,-10.0,-22.0,-16.0,-1.0,-5.0,-5.0,1651069072456773.0,3
1487,5.0,4.0,17.0,22.0,5.0,0.0,3.0,-4.0,1651069072456773.0,3
1488,1.0,0.0,4.0,-4.0,6.0,1.0,9.0,4.0,1651069072478290.0,3
1489,12.0,-8.0,-26.0,7.0,0.0,4.0,-6.0,-1.0,1651069072478290.0,3
1490,-6.0,3.0,21.0,-10.0,-8.0,-2.0,15.0,6.0,1651069072479247.0,3
1491,-24.0,-3.0,-10.0,11.0,12.0,3.0,-5.0,-8.0,1651069072479247.0,3
1492,11.0,6.0,14.0,14.0,2.0,-3.0,-4.0,-3.0,1651069072501696.0,3
1493,14.0,5.0,12.0,11.0,3.0,0.0,4.0,3.0,1651069072501696.0,3
1494,34.0,-1.0,-4.0,-28.0,7.0,4.0,12.0,14.0,1651069072501696.0,3
1495,9.0,6.0,23.0,15.0,-1.0,-2.0,5.0,7.0,1651069072501696.0,3
1496,-19.0,-7.0,-9.0,-5.0,-6.0,-7.0,-8.0,-6.0,1651069072515775.0,3
1497,-9.0,4.0,8.0,0.0,-1.0,1.0,1.0,-4.0,1651069072515775.0,3
1498,0.0,-3.0,-8.0,-6.0,-5.0,-4.0,-7.0,-6.0,1651069072516784.0,3
1499,-6.0,-2.0,-4.0,7.0,3.0,0.0,-5.0,-7.0,1651069072516784.0,3
1500,26.0,5.0,-6.0,-13.0,-6.0,3.0,1.0,0.0,1651069072537875.0,3
1501,5.0,-2.0,4.0,2.0,-7.0,-11.0,4.0,4.0,1651069072537875.0,3
1502,-4.0,0.0,-8.0,9.0,11.0,11.0,0.0,0.0,1651069072538806.0,3
1503,-6.0,-1.0,-1.0,2.0,13.0,9.0,-2.0,-6.0,1651069072538806.0,3
1504,-6.0,-1.0,4.0,8.0,0.0,-11.0,-4.0,-6.0,1651069072560876.0,3
1505,-8.0,1.0,9.0,3.0,-3.0,15.0,1.0,-2.0,1651069072560876.0,3
1506,-7.0,3.0,1.0,13.0,0.0,-4.0,-4.0,-3.0,1651069072561806.0,3
1507,5.0,-5.0,-5.0,-23.0,-11.0,-6.0,-8.0,-4.0,1651069072561806.0,3
1508,0.0,3.0,-12.0,2.0,6.0,3.0,0.0,0.0,1651069072575836.0,3
1509,-4.0,-2.0,-5.0,0.0,0.0,-11.0,-2.0,3.0,1651069072575836.0,3
1510,-17.0,-3.0,14.0,-3.0,0.0,6.0,0.0,-5.0,1651069072576780.0,3
1511,40.0,2.0,-4.0,13.0,-1.0,1.0,-5.0,5.0,1651069072576780.0,3
1512,-3.0,-1.0,8.0,4.0,6.0,4.0,5.0,1.0,1651069072597777.0,3
1513,-11.0,-5.0,-17.0,-16.0,-13.0,-11.0,-2.0,-2.0,1651069072597777.0,3
1514,-4.0,-1.0,-1.0,14.0,6.0,1.0,-9.0,-9.0,1651069072598715.0,3
1515,-3.0,2.0,9.0,2.0,-6.0,-4.0,6.0,5.0,1651069072598715.0,3
1516,-48.0,-8.0,-9.0,-4.0,5.0,-1.0,-17.0,-24.0,1651069072620860.0,3
1517,29.0,2.0,-8.0,-6.0,-4.0,3.0,22.0,26.0,1651069072620860.0,3
1518,-4.0,4.0,29.0,55.0,18.0,-4.0,-15.0,-11.0,1651069072621796.0,3
1519,2.0,-4.0,-18.0,-17.0,-14.0,1.0,15.0,2.0,1651069072621796.0,3
1520,-2.0,6.0,16.0,21.0,20.0,15.0,11.0,6.0,1651069072635510.0,3
1521,-5.0,2.0,14.0,-15.0,-6.0,-6.0,-9.0,-6.0,1651069072635510.0,3
1522,2.0,-2.0,-14.0,1.0,8.0,2.0,2.0,3.0,1651069072636454.0,3
1523,-12.0,-4.0,-13.0,-8.0,-9.0,-8.0,-5.0,-3.0,1651069072636454.0,3
1524,10.0,-3.0,4.0,0.0,-8.0,-6.0,-6.0,-1.0,1651069072658448.0,3
1525,-7.0,0.0,-14.0,-1.0,-3.0,-5.0,-4.0,-3.0,1651069072658448.0,3
1526,2.0,1.0,-8.0,-22.0,4.0,8.0,6.0,4.0,1651069072658448.0,3
1527,-1.0,3.0,22.0,22.0,7.0,0.0,-4.0,-2.0,1651069072658448.0,3
1528,0.0,-7.0,-10.0,-18.0,-24.0,-12.0,-6.0,-6.0,1651069072681565.0,3
1529,-1.0,0.0,7.0,-4.0,-2.0,2.0,-3.0,-2.0,1651069072681565.0,3
1530,-10.0,-5.0,-19.0,-10.0,-9.0,-10.0,-11.0,-10.0,1651069072682496.0,3
1531,0.0,-1.0,-6.0,-5.0,2.0,7.0,6.0,3.0,1651069072682496.0,3
1532,4.0,2.0,-7.0,8.0,6.0,7.0,14.0,13.0,1651069072694587.0,3
1533,-6.0,4.0,25.0,18.0,-2.0,-2.0,-2.0,-4.0,1651069072694587.0,3
1534,-10.0,-2.0,-2.0,9.0,15.0,3.0,0.0,2.0,1651069072703628.0,3
1535,15.0,0.0,2.0,-2.0,1.0,0.0,-2.0,5.0,1651069072703628.0,3
1536,22.0,5.0,-2.0,-8.0,-14.0,-5.0,-9.0,-11.0,1651069072717773.0,3
1537,-2.0,-1.0,-20.0,-18.0,6.0,2.0,5.0,7.0,1651069072717773.0,3
1538,1.0,0.0,9.0,-1.0,-1.0,1.0,2.0,-1.0,1651069072718706.0,3
1539,-6.0,0.0,-8.0,-11.0,-19.0,-7.0,-4.0,-1.0,1651069072718706.0,3
1540,-4.0,-1.0,4.0,4.0,7.0,-5.0,-10.0,-3.0,1651069072741699.0,3
1541,5.0,2.0,-1.0,7.0,23.0,21.0,7.0,6.0,1651069072741699.0,3
1542,3.0,3.0,4.0,-2.0,-19.0,-9.0,5.0,4.0,1651069072741699.0,3
1543,-7.0,-6.0,-9.0,1.0,2.0,-4.0,-4.0,-4.0,1651069072741699.0,3
1544,2.0,-1.0,-8.0,-5.0,-11.0,-7.0,-3.0,1.0,1651069072754667.0,3
1545,-7.0,-2.0,19.0,3.0,-3.0,-2.0,-3.0,-8.0,1651069072754667.0,3
1546,5.0,0.0,-3.0,-9.0,-1.0,3.0,3.0,6.0,1651069072763568.0,3
1547,-7.0,-2.0,-3.0,3.0,15.0,3.0,-7.0,-1.0,1651069072763568.0,3
1548,-8.0,1.0,1.0,-6.0,-4.0,2.0,7.0,4.0,1651069072777691.0,3
1549,12.0,2.0,12.0,26.0,6.0,-2.0,-10.0,-4.0,1651069072777691.0,3
1550,-1.0,2.0,-7.0,-18.0,-3.0,2.0,15.0,1.0,1651069072778619.0,3
1551,-1.0,-2.0,-8.0,-4.0,-9.0,-2.0,0.0,5.0,1651069072778619.0,3
1552,-3.0,-2.0,-5.0,1.0,-1.0,3.0,1.0,-1.0,1651069072801709.0,3
1553,-5.0,3.0,9.0,5.0,0.0,-1.0,-3.0,-3.0,1651069072801709.0,3
1554,3.0,-1.0,-13.0,1.0,-4.0,-6.0,-8.0,-7.0,1651069072801709.0,3
1555,-15.0,4.0,20.0,16.0,9.0,7.0,12.0,5.0,1651069072801709.0,3
1556,26.0,3.0,-1.0,-8.0,2.0,-2.0,1.0,9.0,1651069072814740.0,3
1557,-6.0,0.0,11.0,19.0,-10.0,-5.0,4.0,-2.0,1651069072814740.0,3
1558,-1.0,1.0,1.0,-20.0,-14.0,-17.0,-6.0,-3.0,1651069072822656.0,3
1559,-5.0,-2.0,-9.0,2.0,6.0,6.0,3.0,1.0,1651069072822656.0,3
1560,-5.0,-2.0,2.0,-9.0,-2.0,2.0,-1.0,-3.0,1651069072838619.0,3
1561,-7.0,0.0,-7.0,3.0,4.0,-2.0,-2.0,-3.0,1651069072838619.0,3
1562,4.0,-1.0,-4.0,-3.0,-7.0,-4.0,-11.0,-3.0,1651069072838619.0,3
1563,5.0,1.0,18.0,1.0,-2.0,-3.0,8.0,-1.0,1651069072838619.0,3
1564,0.0,-3.0,-8.0,-2.0,-5.0,1.0,4.0,4.0,1651069072861711.0,3
1565,1.0,0.0,-7.0,-9.0,2.0,0.0,-3.0,-3.0,1651069072861711.0,3
1566,17.0,-1.0,20.0,9.0,-3.0,-1.0,1.0,5.0,1651069072861711.0,3
1567,-12.0,-4.0,-15.0,-4.0,11.0,3.0,-13.0,-17.0,1651069072861711.0,3
1568,-1.0,1.0,-1.0,7.0,-1.0,2.0,2.0,8.0,1651069072874745.0,3
1569,-4.0,-3.0,10.0,-7.0,-4.0,-1.0,5.0,3.0,1651069072874745.0,3
1570,10.0,-2.0,-11.0,0.0,-3.0,0.0,0.0,-1.0,1651069072882750.0,3
1571,16.0,2.0,2.0,-2.0,-7.0,-5.0,-5.0,-3.0,1651069072882750.0,3
1572,-6.0,3.0,9.0,4.0,2.0,-2.0,-2.0,-6.0,1651069072897737.0,3
1573,-2.0,-7.0,-11.0,-7.0,7.0,3.0,-1.0,3.0,1651069072897737.0,3
1574,1.0,3.0,-3.0,11.0,-7.0,-5.0,-1.0,2.0,1651069072898668.0,3
1575,-7.0,-12.0,-19.0,-21.0,7.0,5.0,0.0,2.0,1651069072898668.0,3
1576,-5.0,-2.0,-10.0,7.0,5.0,2.0,-2.0,-6.0,1651069072921664.0,3
1577,8.0,7.0,6.0,-11.0,-11.0,-7.0,-6.0,0.0,1651069072921664.0,3
1578,-11.0,0.0,22.0,20.0,0.0,-1.0,-3.0,-5.0,1651069072921664.0,3
1579,3.0,0.0,-10.0,-12.0,4.0,0.0,1.0,3.0,1651069072921664.0,3
1580,29.0,2.0,-3.0,5.0,9.0,6.0,5.0,10.0,1651069072934913.0,3
1581,-3.0,-3.0,-1.0,-8.0,-8.0,-4.0,-3.0,-6.0,1651069072934913.0,3
1582,-3.0,-3.0,-2.0,3.0,5.0,-1.0,-1.0,0.0,1651069072943543.0,3
1583,0.0,6.0,10.0,7.0,-3.0,0.0,-6.0,-7.0,1651069072943543.0,3
1584,3.0,-4.0,-4.0,-14.0,-15.0,-7.0,-11.0,-2.0,1651069072958569.0,3
1585,-1.0,-1.0,-2.0,12.0,19.0,17.0,22.0,10.0,1651069072958569.0,3
1586,-3.0,-1.0,-1.0,-10.0,-3.0,1.0,3.0,2.0,1651069072958569.0,3
1587,24.0,-2.0,-5.0,17.0,-3.0,-4.0,-1.0,1.0,1651069072958569.0,3
1588,-21.0,-1.0,3.0,3.0,9.0,3.0,-6.0,-10.0,1651069072981698.0,3
1589,-6.0,-3.0,-8.0,-7.0,-6.0,-5.0,-8.0,-5.0,1651069072981698.0,3
1590,-6.0,-7.0,-25.0,-10.0,5.0,-2.0,0.0,-2.0,1651069072981698.0,3
1591,-17.0,1.0,10.0,3.0,-7.0,5.0,6.0,-2.0,1651069072981698.0,3
1592,28.0,4.0,9.0,11.0,10.0,0.0,-1.0,12.0,1651069072994819.0,3
1593,-2.0,-1.0,-6.0,-4.0,-8.0,-7.0,-1.0,-3.0,1651069072994819.0,3
1594,-5.0,-1.0,-1.0,1.0,2.0,4.0,0.0,0.0,1651069073002747.0,3
1595,-7.0,4.0,1.0,0.0,-5.0,-6.0,-5.0,-4.0,1651069073002747.0,3
1596,-4.0,-1.0,3.0,5.0,13.0,9.0,7.0,-3.0,1651069073017826.0,3
1597,-1.0,-1.0,-9.0,-18.0,-4.0,-2.0,-4.0,-3.0,1651069073017826.0,3
1598,3.0,1.0,0.0,4.0,-1.0,-3.0,2.0,3.0,1651069073018757.0,3
1599,3.0,0.0,-4.0,2.0,-3.0,3.0,0.0,1.0,1651069073018757.0,3
1600,-13.0,5.0,26.0,3.0,-2.0,-4.0,-1.0,-3.0,1651069073042220.0,3
1601,3.0,-2.0,-7.0,-2.0,7.0,8.0,-2.0,1.0,1651069073042220.0,3
1602,-4.0,0.0,4.0,1.0,-7.0,-2.0,-1.0,-1.0,1651069073042220.0,3
1603,0.0,-4.0,-15.0,-17.0,-2.0,-4.0,3.0,5.0,1651069073042220.0,3
1604,-7.0,-3.0,-3.0,-4.0,-3.0,-7.0,-4.0,-5.0,1651069073064209.0,3
1605,-2.0,-3.0,-6.0,0.0,-3.0,-2.0,-3.0,-2.0,1651069073064209.0,3
1606,-3.0,0.0,-4.0,-1.0,12.0,7.0,-1.0,-2.0,1651069073064209.0,3
1607,-1.0,0.0,6.0,2.0,-7.0,-7.0,-2.0,1.0,1651069073064209.0,3
1608,-2.0,0.0,-8.0,3.0,-1.0,2.0,1.0,3.0,1651069073078192.0,3
1609,-1.0,-1.0,5.0,2.0,-4.0,-2.0,-3.0,-2.0,1651069073078192.0,3
1610,-2.0,-1.0,-2.0,-4.0,-4.0,-1.0,0.0,-3.0,1651069073079123.0,3
1611,1.0,0.0,-3.0,-4.0,1.0,-4.0,1.0,1.0,1651069073079123.0,3
1612,-8.0,-2.0,2.0,3.0,-2.0,1.0,0.0,-7.0,1651069073101698.0,3
1613,-1.0,-6.0,-17.0,-14.0,-11.0,-5.0,0.0,1.0,1651069073101698.0,3
1614,-6.0,2.0,5.0,3.0,4.0,2.0,-1.0,-1.0,1651069073101698.0,3
1615,-10.0,-1.0,-1.0,-2.0,0.0,0.0,-1.0,-2.0,1651069073101698.0,3
1616,3.0,0.0,-8.0,-10.0,-8.0,-2.0,-3.0,-1.0,1651069073123698.0,3
1617,-1.0,1.0,6.0,11.0,5.0,1.0,1.0,-2.0,1651069073123698.0,3
1618,2.0,-5.0,-9.0,-4.0,-1.0,-1.0,-1.0,0.0,1651069073124693.0,3
1619,2.0,3.0,25.0,0.0,-5.0,-2.0,2.0,2.0,1651069073124693.0,3
1620,-8.0,-2.0,-3.0,1.0,-2.0,1.0,-1.0,-4.0,1651069073137725.0,3
1621,0.0,2.0,0.0,6.0,3.0,-1.0,-3.0,1.0,1651069073137725.0,3
1622,-1.0,-2.0,-1.0,-6.0,-6.0,-3.0,-1.0,0.0,1651069073138659.0,3
1623,1.0,-2.0,-9.0,4.0,4.0,0.0,-1.0,0.0,1651069073138659.0,3
1624,-1.0,0.0,1.0,-1.0,-1.0,-1.0,3.0,1.0,1651069073161727.0,3
1625,0.0,0.0,0.0,0.0,1.0,-3.0,-3.0,-2.0,1651069073161727.0,3
1626,-2.0,-3.0,-1.0,-1.0,0.0,-1.0,-1.0,-1.0,1651069073161727.0,3
1627,3.0,-2.0,-3.0,1.0,1.0,1.0,0.0,-1.0,1651069073161727.0,3
1628,0.0,1.0,7.0,1.0,3.0,2.0,3.0,1.0,1651069073184321.0,3
1629,-3.0,0.0,-4.0,-2.0,-9.0,-5.0,-3.0,-2.0,1651069073184321.0,3
1630,0.0,0.0,0.0,0.0,8.0,2.0,0.0,0.0,1651069073184321.0,3
1631,3.0,-1.0,-5.0,-1.0,1.0,-1.0,-1.0,1.0,1651069073184321.0,3
1632,-4.0,-1.0,-3.0,-5.0,-6.0,3.0,3.0,-1.0,1651069073206472.0,3
1633,-1.0,-2.0,-2.0,2.0,1.0,-1.0,-2.0,-2.0,1651069073206472.0,3
1634,2.0,1.0,3.0,1.0,-4.0,-1.0,-1.0,0.0,1651069073207463.0,3
1635,1.0,2.0,-1.0,1.0,-1.0,-6.0,-1.0,-1.0,1651069073207463.0,3
1636,-2.0,0.0,-4.0,-1.0,3.0,5.0,1.0,-1.0,1651069073222422.0,3
1637,-1.0,1.0,3.0,-1.0,-2.0,-2.0,-1.0,-3.0,1651069073222422.0,3
1638,0.0,0.0,1.0,-2.0,0.0,2.0,1.0,-3.0,1651069073223420.0,3
1639,-2.0,-1.0,-4.0,0.0,0.0,1.0,0.0,0.0,1651069073223420.0,3
1640,-1.0,-1.0,-1.0,-2.0,-2.0,-5.0,-4.0,-1.0,1651069073244193.0,3
1641,0.0,-1.0,3.0,2.0,1.0,-1.0,-1.0,0.0,1651069073244193.0,3
1642,0.0,-2.0,0.0,-1.0,0.0,0.0,3.0,2.0,1651069073244403.0,3
1643,0.0,-2.0,-2.0,-1.0,0.0,-1.0,0.0,-1.0,1651069073244403.0,3
1644,0.0,-2.0,0.0,1.0,-2.0,-1.0,-2.0,-1.0,1651069073258369.0,3
1645,-1.0,-1.0,-1.0,-2.0,0.0,0.0,-2.0,-2.0,1651069073258369.0,3
1646,0.0,1.0,1.0,0.0,-2.0,0.0,2.0,0.0,1651069073259365.0,3
1647,0.0,-2.0,-1.0,0.0,-2.0,0.0,0.0,-1.0,1651069073259365.0,3
1648,0.0,0.0,-2.0,-2.0,-3.0,-1.0,2.0,0.0,1651069073281485.0,3
1649,-1.0,0.0,0.0,4.0,0.0,-2.0,-1.0,-1.0,1651069073281485.0,3
1650,0.0,-1.0,-3.0,-1.0,-1.0,-1.0,0.0,0.0,1651069073281485.0,3
1651,1.0,1.0,4.0,-1.0,2.0,1.0,-2.0,-2.0,1651069073281485.0,3
1652,-4.0,-3.0,-4.0,-1.0,-1.0,-1.0,-2.0,0.0,1651069073303811.0,3
1653,1.0,0.0,-2.0,-1.0,0.0,-1.0,-1.0,0.0,1651069073303811.0,3
1654,-1.0,1.0,-1.0,-1.0,-1.0,-1.0,-2.0,-1.0,1651069073304737.0,3
1655,0.0,0.0,-3.0,-2.0,1.0,1.0,0.0,-1.0,1651069073304737.0,3
1656,-1.0,0.0,-2.0,-1.0,-1.0,0.0,0.0,0.0,1651069073317703.0,3
1657,-2.0,-1.0,-1.0,0.0,-1.0,0.0,0.0,-1.0,1651069073317703.0,3
1658,-1.0,-1.0,-1.0,-1.0,0.0,0.0,-1.0,0.0,1651069073318699.0,3
1659,0.0,-1.0,-2.0,0.0,-2.0,-2.0,0.0,0.0,1651069073318699.0,3
1660,0.0,-1.0,1.0,-1.0,-2.0,-3.0,-2.0,-2.0,1651069073340906.0,3
1661,0.0,0.0,0.0,1.0,0.0,0.0,1.0,-1.0,1651069073340906.0,3
1662,0.0,0.0,0.0,-1.0,-1.0,0.0,0.0,-1.0,1651069073341836.0,3
1663,-1.0,-2.0,-4.0,-1.0,0.0,-2.0,0.0,1.0,1651069073341836.0,3
1664,-2.0,-1.0,-1.0,-3.0,-2.0,0.0,1.0,-1.0,1651069073364193.0,3
1665,-2.0,-2.0,-2.0,0.0,-1.0,1.0,-1.0,1.0,1651069073364193.0,3
1666,-3.0,-2.0,-2.0,0.0,1.0,-1.0,-1.0,-2.0,1651069073364511.0,3
1667,1.0,-1.0,-5.0,-2.0,-1.0,-2.0,-2.0,0.0,1651069073364511.0,3
1668,1.0,0.0,-2.0,-1.0,-2.0,-2.0,-3.0,-1.0,1651069073378549.0,3
1669,0.0,1.0,0.0,0.0,2.0,3.0,3.0,1.0,1651069073378549.0,3
1670,-2.0,-1.0,16.0,4.0,-5.0,-5.0,-2.0,0.0,1651069073378549.0,3
1671,1.0,-1.0,-24.0,-9.0,-1.0,4.0,-1.0,-1.0,1651069073378549.0,3
1672,0.0,-4.0,-24.0,-3.0,6.0,3.0,2.0,0.0,1651069073401416.0,3
1673,0.0,5.0,31.0,4.0,-1.0,-1.0,-2.0,-2.0,1651069073401416.0,3
1674,0.0,-1.0,9.0,2.0,-2.0,0.0,-1.0,1.0,1651069073402453.0,3
1675,0.0,0.0,-26.0,-7.0,-4.0,-4.0,-2.0,-1.0,1651069073402453.0,3
1676,-2.0,-2.0,9.0,-2.0,-4.0,-2.0,-1.0,-2.0,1651069073423443.0,3
1677,1.0,5.0,0.0,3.0,2.0,-1.0,-1.0,1.0,1651069073423443.0,3
1678,-2.0,-6.0,-18.0,-2.0,4.0,6.0,1.0,-1.0,1651069073424440.0,3
1679,-3.0,-3.0,6.0,-1.0,-1.0,1.0,0.0,-1.0,1651069073424440.0,3
1680,-1.0,-2.0,-2.0,2.0,-2.0,0.0,0.0,-1.0,1651069073438470.0,3
1681,-1.0,-2.0,5.0,-2.0,-2.0,-2.0,0.0,-2.0,1651069073438470.0,3
1682,-1.0,0.0,13.0,1.0,-2.0,-2.0,0.0,-2.0,1651069073438470.0,3
1683,0.0,-1.0,-9.0,-2.0,0.0,2.0,0.0,1.0,1651069073438470.0,3
1684,0.0,3.0,20.0,3.0,1.0,0.0,1.0,-1.0,1651069073461671.0,3
1685,-2.0,-2.0,0.0,-2.0,-3.0,-2.0,-1.0,0.0,1651069073461671.0,3
1686,0.0,-2.0,-20.0,-4.0,-1.0,0.0,-1.0,1.0,1651069073461671.0,3
1687,0.0,2.0,34.0,8.0,1.0,2.0,1.0,0.0,1651069073461671.0,3
1688,0.0,4.0,20.0,6.0,0.0,-2.0,-2.0,0.0,1651069073483887.0,3
1689,0.0,-5.0,-50.0,-13.0,-2.0,0.0,-1.0,-1.0,1651069073483887.0,3
1690,0.0,-1.0,-10.0,-5.0,1.0,-2.0,0.0,-2.0,1651069073484471.0,3
1691,0.0,2.0,-9.0,-3.0,0.0,0.0,0.0,0.0,1651069073484471.0,3
1692,0.0,-1.0,6.0,4.0,-1.0,-1.0,-1.0,-2.0,1651069073498495.0,3
1693,-1.0,-1.0,16.0,2.0,-1.0,-1.0,-1.0,0.0,1651069073498495.0,3
1694,1.0,0.0,0.0,3.0,-1.0,0.0,-2.0,-1.0,1651069073498495.0,3
1695,0.0,2.0,21.0,0.0,0.0,0.0,0.0,-2.0,1651069073498495.0,3
1696,-1.0,0.0,-7.0,-6.0,-2.0,-2.0,-3.0,0.0,1651069073521582.0,3
1697,-1.0,-4.0,-14.0,-2.0,0.0,-1.0,-1.0,-1.0,1651069073521582.0,3
1698,-1.0,4.0,13.0,-1.0,-3.0,-3.0,-3.0,0.0,1651069073521582.0,3
1699,0.0,0.0,7.0,5.0,1.0,0.0,0.0,2.0,1651069073521582.0,3
1700,-2.0,-4.0,-8.0,-2.0,-3.0,-1.0,-2.0,-2.0,1651069073543521.0,3
1701,0.0,1.0,-10.0,-7.0,-4.0,-1.0,1.0,-1.0,1651069073543521.0,3
1702,2.0,1.0,7.0,8.0,10.0,10.0,2.0,0.0,1651069073544453.0,3
1703,-2.0,-6.0,-6.0,-3.0,-4.0,-2.0,-1.0,-1.0,1651069073544453.0,3
1704,-1.0,-2.0,-33.0,-5.0,1.0,-1.0,-1.0,0.0,1651069073558533.0,3
1705,2.0,3.0,25.0,9.0,1.0,-1.0,0.0,0.0,1651069073558533.0,3
1706,-1.0,0.0,12.0,6.0,-3.0,-3.0,-1.0,-1.0,1651069073558533.0,3
1707,-2.0,-1.0,-2.0,-3.0,0.0,2.0,1.0,-2.0,1651069073558533.0,3
1708,0.0,-2.0,-12.0,-1.0,-2.0,-4.0,0.0,0.0,1651069073581063.0,3
1709,-1.0,0.0,7.0,-1.0,-1.0,1.0,2.0,-1.0,1651069073581063.0,3
1710,-1.0,-2.0,-11.0,-5.0,-2.0,-3.0,-1.0,-2.0,1651069073581993.0,3
1711,1.0,0.0,3.0,4.0,-1.0,-2.0,0.0,-1.0,1651069073581993.0,3
1712,1.0,1.0,6.0,-2.0,-2.0,-1.0,-1.0,-1.0,1651069073603560.0,3
1713,-2.0,0.0,-8.0,-3.0,-6.0,-4.0,-3.0,-1.0,1651069073603560.0,3
1714,-2.0,0.0,-6.0,-3.0,8.0,6.0,0.0,-1.0,1651069073604490.0,3
1715,-1.0,-2.0,-21.0,-1.0,1.0,0.0,2.0,0.0,1651069073604490.0,3
1716,0.0,4.0,18.0,2.0,-6.0,-4.0,-1.0,-1.0,1651069073617596.0,3
1717,1.0,-2.0,-4.0,0.0,10.0,3.0,0.0,-1.0,1651069073617596.0,3
1718,0.0,-1.0,18.0,5.0,-7.0,-4.0,-2.0,0.0,1651069073625622.0,3
1719,0.0,-4.0,-16.0,-6.0,-1.0,-2.0,-3.0,1.0,1651069073625622.0,3
1720,0.0,-1.0,-5.0,-4.0,1.0,1.0,0.0,1.0,1651069073641682.0,3
1721,0.0,2.0,18.0,10.0,0.0,-1.0,-1.0,-1.0,1651069073641682.0,3
1722,-1.0,-2.0,-26.0,-5.0,-3.0,-2.0,0.0,0.0,1651069073641682.0,3
1723,-1.0,3.0,20.0,2.0,-1.0,0.0,0.0,-1.0,1651069073641682.0,3
1724,0.0,4.0,10.0,5.0,0.0,-3.0,-1.0,-1.0,1651069073663781.0,3
1725,-1.0,-2.0,1.0,-2.0,-1.0,0.0,-1.0,-1.0,1651069073663781.0,3
1726,-2.0,-5.0,-28.0,-6.0,0.0,-2.0,-1.0,-2.0,1651069073664711.0,3
1727,-1.0,1.0,8.0,0.0,-1.0,0.0,-1.0,0.0,1651069073664711.0,3
1728,0.0,-5.0,-18.0,-7.0,-2.0,-3.0,-3.0,-1.0,1651069073677676.0,3
1729,0.0,1.0,3.0,1.0,0.0,5.0,2.0,1.0,1651069073677676.0,3
1730,-2.0,0.0,0.0,1.0,-9.0,-6.0,-3.0,0.0,1651069073685722.0,3
1731,-1.0,2.0,-1.0,5.0,15.0,4.0,0.0,-1.0,1651069073685722.0,3
1732,-3.0,0.0,6.0,-2.0,-3.0,1.0,-1.0,-1.0,1651069073701631.0,3
1733,-2.0,-4.0,-19.0,-6.0,0.0,-4.0,-3.0,-1.0,1651069073701631.0,3
1734,1.0,3.0,18.0,0.0,-5.0,-2.0,1.0,0.0,1651069073701631.0,3
1735,1.0,-2.0,-6.0,-3.0,-8.0,-2.0,0.0,-2.0,1651069073701631.0,3
1736,-1.0,2.0,5.0,2.0,2.0,2.0,-1.0,0.0,1651069073723746.0,3
1737,0.0,0.0,-4.0,-3.0,-5.0,-2.0,0.0,-2.0,1651069073723746.0,3
1738,0.0,1.0,8.0,1.0,2.0,0.0,-2.0,-2.0,1651069073724746.0,3
1739,-1.0,0.0,6.0,1.0,-5.0,-2.0,-1.0,0.0,1651069073724746.0,3
1740,0.0,-3.0,-5.0,-1.0,6.0,3.0,1.0,-1.0,1651069073737778.0,3
1741,0.0,-5.0,-20.0,-3.0,-3.0,1.0,-1.0,0.0,1651069073737778.0,3
1742,-1.0,-1.0,2.0,-4.0,-2.0,-3.0,-1.0,0.0,1651069073745751.0,3
1743,0.0,-1.0,-22.0,-8.0,-1.0,-4.0,-2.0,-2.0,1651069073745751.0,3
1744,0.0,-2.0,-1.0,0.0,-4.0,0.0,0.0,-3.0,1651069073761662.0,3
1745,0.0,0.0,3.0,3.0,1.0,0.0,-1.0,0.0,1651069073761662.0,3
1746,-2.0,-1.0,-6.0,-3.0,1.0,2.0,-1.0,2.0,1651069073761662.0,3
1747,-1.0,-3.0,-2.0,-1.0,-4.0,-2.0,-1.0,-1.0,1651069073761662.0,3
1748,-1.0,-1.0,3.0,0.0,-1.0,-1.0,-1.0,-2.0,1651069073783742.0,3
1749,0.0,1.0,5.0,3.0,7.0,5.0,1.0,-2.0,1651069073783742.0,3
1750,1.0,-4.0,-10.0,-4.0,-2.0,-1.0,0.0,-1.0,1651069073784672.0,3
1751,-3.0,2.0,7.0,2.0,-7.0,0.0,0.0,0.0,1651069073784672.0,3
1752,0.0,-1.0,-3.0,-1.0,4.0,6.0,3.0,0.0,1651069073797705.0,3
1753,-2.0,-1.0,-2.0,3.0,6.0,-1.0,-2.0,-1.0,1651069073797705.0,3
1754,-2.0,2.0,18.0,-1.0,-1.0,-1.0,0.0,-1.0,1651069073805683.0,3
1755,0.0,-2.0,4.0,1.0,-1.0,1.0,0.0,0.0,1651069073805683.0,3
1756,-1.0,1.0,-1.0,-3.0,-4.0,-1.0,-1.0,0.0,1651069073821771.0,3
1757,-2.0,-3.0,-7.0,1.0,0.0,-2.0,-1.0,-1.0,1651069073821771.0,3
1758,1.0,2.0,-2.0,0.0,2.0,3.0,2.0,1.0,1651069073821771.0,3
1759,-1.0,-2.0,5.0,-1.0,2.0,0.0,-4.0,-1.0,1651069073821771.0,3
1760,-2.0,-1.0,3.0,0.0,-2.0,-1.0,0.0,0.0,1651069073843837.0,3
1761,-2.0,1.0,4.0,-2.0,-1.0,-1.0,1.0,-1.0,1651069073843837.0,3
1762,-1.0,-1.0,4.0,1.0,-1.0,-1.0,-1.0,-2.0,1651069073845833.0,3
1763,0.0,0.0,2.0,-1.0,-14.0,-6.0,-4.0,0.0,1651069073845833.0,3
1764,0.0,-1.0,-2.0,2.0,21.0,1.0,0.0,-1.0,1651069073857844.0,3
1765,0.0,-4.0,-13.0,-3.0,-4.0,1.0,-1.0,-1.0,1651069073857844.0,3
1766,-1.0,1.0,13.0,1.0,2.0,0.0,-2.0,-3.0,1651069073873923.0,3
1767,0.0,0.0,2.0,-2.0,1.0,0.0,0.0,-1.0,1651069073873923.0,3
1768,-1.0,-1.0,1.0,0.0,-10.0,-4.0,-1.0,-2.0,1651069073880966.0,3
1769,1.0,0.0,-3.0,-2.0,-2.0,-3.0,-1.0,0.0,1651069073880966.0,3
1770,-1.0,-2.0,-7.0,-2.0,1.0,-1.0,-1.0,1.0,1651069073882894.0,3
1771,0.0,0.0,4.0,1.0,-1.0,-5.0,-5.0,-1.0,1651069073882894.0,3
1772,1.0,-1.0,-2.0,-2.0,-1.0,4.0,1.0,0.0,1651069073904041.0,3
1773,2.0,0.0,7.0,0.0,1.0,0.0,1.0,1.0,1651069073904041.0,3
1774,1.0,0.0,-9.0,-3.0,-3.0,1.0,-1.0,-1.0,1651069073905042.0,3
1775,0.0,0.0,2.0,1.0,4.0,1.0,0.0,-1.0,1651069073905042.0,3
1776,-1.0,0.0,0.0,2.0,1.0,0.0,1.0,-1.0,1651069073917077.0,3
1777,-1.0,0.0,0.0,-3.0,-5.0,0.0,0.0,0.0,1651069073917077.0,3
1778,0.0,-4.0,-10.0,-1.0,-3.0,-3.0,-2.0,0.0,1651069073926122.0,3
1779,-2.0,0.0,0.0,-4.0,-3.0,-1.0,0.0,-2.0,1651069073926122.0,3
1780,0.0,-2.0,-12.0,0.0,5.0,6.0,0.0,1.0,1651069073940695.0,3
1781,-2.0,3.0,26.0,5.0,11.0,0.0,0.0,-1.0,1651069073940695.0,3
1782,-3.0,-1.0,-10.0,-5.0,-1.0,-1.0,-1.0,-1.0,1651069073947674.0,3
1783,0.0,-1.0,3.0,3.0,4.0,0.0,1.0,-1.0,1651069073947674.0,3
1784,0.0,-1.0,-1.0,-2.0,-4.0,-2.0,-1.0,0.0,1651069073963632.0,3
1785,0.0,-2.0,-12.0,-6.0,-8.0,-6.0,-3.0,-1.0,1651069073963632.0,3
1786,2.0,1.0,9.0,4.0,7.0,6.0,2.0,1.0,1651069073965560.0,3
1787,-1.0,0.0,0.0,1.0,0.0,0.0,2.0,-2.0,1651069073965560.0,3
1788,-1.0,-2.0,4.0,-2.0,-3.0,-5.0,-1.0,2.0,1651069073986570.0,3
1789,-2.0,-3.0,-2.0,0.0,-5.0,-4.0,-1.0,0.0,1651069073986570.0,3
1790,-1.0,1.0,-9.0,-1.0,5.0,4.0,0.0,-2.0,1651069073987510.0,3
1791,2.0,-1.0,0.0,-1.0,-2.0,-2.0,-2.0,2.0,1651069073987510.0,3
1792,-1.0,2.0,-1.0,1.0,3.0,1.0,1.0,-2.0,1651069074001016.0,3
1793,-2.0,2.0,8.0,2.0,-2.0,0.0,-1.0,0.0,1651069074001016.0,3
1794,2.0,-1.0,-3.0,-1.0,-6.0,-4.0,-3.0,-1.0,1651069074007601.0,3
1795,0.0,-1.0,-4.0,-2.0,2.0,1.0,-2.0,0.0,1651069074007601.0,3
1796,-3.0,-1.0,3.0,1.0,-5.0,-4.0,-1.0,1.0,1651069074023624.0,3
1797,-1.0,-1.0,-7.0,-1.0,-2.0,-2.0,-1.0,-1.0,1651069074023624.0,3
1798,0.0,1.0,5.0,0.0,0.0,2.0,1.0,0.0,1651069074025552.0,3
1799,-1.0,-2.0,-3.0,1.0,1.0,1.0,0.0,-1.0,1651069074025552.0,3
1800,1.0,-2.0,2.0,-2.0,-2.0,-3.0,-5.0,-3.0,1651069074046642.0,3
1801,0.0,1.0,13.0,0.0,-8.0,-1.0,1.0,-1.0,1651069074046642.0,3
1802,0.0,-4.0,-18.0,-3.0,7.0,1.0,1.0,1.0,1651069074047572.0,3
1803,-1.0,1.0,0.0,0.0,-4.0,-1.0,0.0,-1.0,1651069074047572.0,3
1804,-1.0,2.0,-2.0,2.0,0.0,0.0,-1.0,0.0,1651069074060605.0,3
1805,-1.0,-1.0,2.0,-3.0,2.0,1.0,2.0,1.0,1651069074060605.0,3
1806,-2.0,0.0,2.0,-1.0,-5.0,-4.0,-1.0,-1.0,1651069074067587.0,3
1807,0.0,-1.0,-3.0,1.0,1.0,1.0,-1.0,-1.0,1651069074067587.0,3
1808,0.0,-2.0,-4.0,0.0,3.0,-1.0,-1.0,0.0,1651069074083359.0,3
1809,1.0,-1.0,-8.0,-1.0,1.0,-2.0,-3.0,1.0,1651069074083359.0,3
1810,-2.0,0.0,10.0,1.0,1.0,-1.0,-2.0,-1.0,1651069074085357.0,3
1811,-1.0,-3.0,-7.0,-3.0,-3.0,0.0,1.0,-2.0,1651069074085357.0,3
1812,-1.0,0.0,1.0,0.0,0.0,0.0,1.0,0.0,1651069074106367.0,3
1813,-1.0,1.0,0.0,-1.0,-3.0,-4.0,0.0,-2.0,1651069074106367.0,3
1814,-1.0,0.0,-4.0,0.0,2.0,5.0,2.0,1.0,1651069074108324.0,3
1815,0.0,0.0,5.0,1.0,2.0,0.0,-2.0,-1.0,1651069074108324.0,3
1816,-1.0,-1.0,0.0,-2.0,-5.0,-2.0,0.0,1.0,1651069074120228.0,3
1817,0.0,-1.0,-4.0,-2.0,0.0,3.0,-1.0,0.0,1651069074120228.0,3
1818,0.0,-2.0,4.0,-1.0,-4.0,-4.0,-2.0,0.0,1651069074127211.0,3
1819,1.0,0.0,-6.0,-3.0,-4.0,-2.0,0.0,-1.0,1651069074127211.0,3
1820,0.0,-2.0,0.0,2.0,9.0,0.0,-1.0,0.0,1651069074151447.0,3
1821,0.0,0.0,6.0,2.0,2.0,2.0,-2.0,-1.0,1651069074151447.0,3
1822,-2.0,1.0,-2.0,-2.0,11.0,5.0,-1.0,-1.0,1651069074152461.0,3
1823,-2.0,-2.0,1.0,0.0,-3.0,-3.0,-1.0,-1.0,1651069074152461.0,3
1824,1.0,1.0,-1.0,-1.0,-4.0,-1.0,1.0,-1.0,1651069074166473.0,3
1825,1.0,1.0,-1.0,0.0,0.0,1.0,1.0,0.0,1651069074166473.0,3
1826,0.0,-1.0,2.0,0.0,-3.0,-2.0,1.0,0.0,1651069074167407.0,3
1827,0.0,0.0,2.0,2.0,4.0,-2.0,0.0,0.0,1651069074167407.0,3
1828,-2.0,-2.0,-3.0,-2.0,-4.0,-2.0,0.0,0.0,1651069074180371.0,3
1829,-1.0,-1.0,-5.0,-1.0,-6.0,-2.0,0.0,-2.0,1651069074180371.0,3
1830,-2.0,-1.0,3.0,1.0,3.0,0.0,1.0,1.0,1651069074187419.0,3
1831,-2.0,0.0,0.0,0.0,2.0,0.0,1.0,1.0,1651069074187419.0,3
1832,-1.0,-2.0,-8.0,-2.0,-4.0,-3.0,0.0,0.0,1651069074204191.0,3
1833,-1.0,0.0,2.0,0.0,1.0,-1.0,-1.0,-2.0,1651069074204191.0,3
1834,1.0,2.0,-1.0,0.0,-3.0,-2.0,-3.0,-2.0,1651069074205395.0,3
1835,1.0,0.0,3.0,-1.0,2.0,2.0,-2.0,0.0,1651069074205395.0,3
1836,-1.0,1.0,-2.0,-2.0,-2.0,2.0,2.0,0.0,1651069074225478.0,3
1837,1.0,-2.0,-5.0,-1.0,-3.0,2.0,0.0,2.0,1651069074225478.0,3
1838,0.0,-1.0,1.0,0.0,-7.0,-1.0,-1.0,-1.0,1651069074241436.0,3
1839,-2.0,-1.0,15.0,2.0,11.0,1.0,0.0,-1.0,1651069074241436.0,3
1840,-2.0,0.0,2.0,2.0,0.0,-1.0,0.0,0.0,1651069074242454.0,3
1841,-2.0,0.0,4.0,-1.0,-4.0,-4.0,-1.0,0.0,1651069074242454.0,3
1842,-2.0,-2.0,-23.0,-9.0,-1.0,-1.0,-2.0,-1.0,1651069074247447.0,3
1843,-2.0,-1.0,-6.0,-1.0,-7.0,-1.0,-1.0,0.0,1651069074247447.0,3
1844,1.0,0.0,3.0,0.0,-3.0,-1.0,-4.0,-3.0,1651069074263746.0,3
1845,0.0,1.0,1.0,-1.0,3.0,1.0,-2.0,0.0,1651069074263746.0,3
1846,1.0,-2.0,6.0,2.0,-4.0,-4.0,-1.0,-1.0,1651069074265702.0,3
1847,-1.0,-1.0,-2.0,-1.0,-1.0,-1.0,-2.0,-1.0,1651069074265702.0,3
1848,-2.0,-1.0,-6.0,-5.0,2.0,2.0,0.0,0.0,1651069074285826.0,3
1849,-1.0,-3.0,-10.0,-3.0,1.0,-1.0,0.0,0.0,1651069074285826.0,3
1850,-2.0,2.0,-1.0,0.0,-4.0,0.0,0.0,-1.0,1651069074287821.0,3
1851,2.0,1.0,-4.0,2.0,4.0,1.0,2.0,0.0,1651069074287821.0,3
1852,-1.0,-1.0,3.0,1.0,-4.0,-2.0,0.0,0.0,1651069074300853.0,3
1853,1.0,-1.0,-15.0,-3.0,0.0,-1.0,0.0,-1.0,1651069074300853.0,3
1854,-1.0,0.0,20.0,3.0,0.0,-1.0,-1.0,-1.0,1651069074307767.0,3
1855,-2.0,0.0,-2.0,-1.0,4.0,2.0,-1.0,0.0,1651069074307767.0,3
1856,-1.0,0.0,1.0,-2.0,-6.0,2.0,0.0,-1.0,1651069074323901.0,3
1857,-2.0,-1.0,-6.0,-2.0,2.0,-2.0,0.0,-2.0,1651069074323901.0,3
1858,1.0,-1.0,-3.0,3.0,1.0,0.0,0.0,-2.0,1651069074324901.0,3
1859,-1.0,-1.0,-2.0,0.0,-4.0,0.0,-3.0,0.0,1651069074324901.0,3
1860,1.0,2.0,1.0,0.0,0.0,-1.0,-1.0,-2.0,1651069074346685.0,3
1861,0.0,1.0,3.0,0.0,-2.0,1.0,2.0,0.0,1651069074346685.0,3
1862,-1.0,-1.0,1.0,-1.0,-1.0,-2.0,1.0,0.0,1651069074347614.0,3
1863,1.0,-1.0,0.0,-2.0,-2.0,0.0,0.0,-3.0,1651069074347614.0,3
1864,0.0,-2.0,-3.0,0.0,-3.0,-2.0,-2.0,-1.0,1651069074360645.0,3
1865,0.0,-2.0,4.0,3.0,8.0,0.0,-1.0,-2.0,1651069074360645.0,3
1866,2.0,0.0,1.0,2.0,5.0,1.0,-1.0,1.0,1651069074367627.0,3
1867,-2.0,-2.0,-9.0,-1.0,-2.0,-3.0,1.0,0.0,1651069074367627.0,3
1868,-3.0,-1.0,-6.0,-3.0,-4.0,-2.0,0.0,0.0,1651069074384191.0,3
1869,-2.0,2.0,17.0,5.0,3.0,0.0,-1.0,0.0,1651069074384191.0,3
1870,2.0,-1.0,2.0,-2.0,-5.0,-3.0,-2.0,-1.0,1651069074385478.0,3
1871,-1.0,-2.0,-3.0,-2.0,-1.0,-1.0,0.0,0.0,1651069074385478.0,3
1872,-1.0,0.0,2.0,1.0,3.0,1.0,0.0,0.0,1651069074406615.0,3
1873,-2.0,-1.0,-5.0,-4.0,-9.0,-6.0,-2.0,-1.0,1651069074406615.0,3
1874,-1.0,-1.0,-2.0,3.0,12.0,7.0,-1.0,-1.0,1651069074407545.0,3
1875,-1.0,2.0,5.0,0.0,-5.0,-4.0,-1.0,-1.0,1651069074407545.0,3
1876,-2.0,0.0,-1.0,-1.0,0.0,-2.0,-1.0,0.0,1651069074420577.0,3
1877,-1.0,-1.0,-5.0,-1.0,-2.0,4.0,0.0,-1.0,1651069074420577.0,3
1878,-1.0,-1.0,-3.0,-2.0,-4.0,-1.0,0.0,-3.0,1651069074427559.0,3
1879,-1.0,0.0,-2.0,1.0,5.0,1.0,1.0,0.0,1651069074427559.0,3
1880,-1.0,-1.0,0.0,-1.0,0.0,-1.0,-1.0,-1.0,1651069074443450.0,3
1881,-1.0,-1.0,-2.0,-2.0,-1.0,-3.0,-2.0,-2.0,1651069074443450.0,3
1882,-2.0,0.0,0.0,0.0,-3.0,3.0,0.0,1.0,1651069074445445.0,3
1883,0.0,-2.0,-2.0,-2.0,-5.0,2.0,2.0,-2.0,1651069074445445.0,3
1884,-1.0,-1.0,1.0,2.0,3.0,2.0,-2.0,-1.0,1651069074466575.0,3
1885,0.0,-1.0,-3.0,-2.0,-2.0,-2.0,-2.0,-1.0,1651069074466575.0,3
1886,-1.0,1.0,11.0,1.0,-4.0,-4.0,1.0,0.0,1651069074467504.0,3
1887,-1.0,-1.0,-1.0,-3.0,-2.0,0.0,-2.0,0.0,1651069074467504.0,3
1888,1.0,-1.0,-1.0,-1.0,-2.0,-2.0,1.0,-1.0,1651069074479503.0,3
1889,-1.0,-2.0,-6.0,-3.0,-9.0,-5.0,-2.0,-3.0,1651069074479503.0,3
1890,-2.0,-1.0,-3.0,-2.0,2.0,-6.0,-3.0,0.0,1651069074488516.0,3
1891,-1.0,-1.0,-2.0,4.0,11.0,13.0,3.0,0.0,1651069074488516.0,3
1892,1.0,1.0,10.0,4.0,4.0,0.0,0.0,0.0,1651069074503569.0,3
1893,-1.0,2.0,-1.0,-2.0,-3.0,-1.0,-2.0,0.0,1651069074503569.0,3
1894,1.0,-1.0,-5.0,-5.0,-13.0,-8.0,-1.0,1.0,1651069074505589.0,3
1895,2.0,-1.0,2.0,0.0,-6.0,-3.0,-1.0,0.0,1651069074505589.0,3
1896,-1.0,-2.0,-6.0,2.0,5.0,0.0,-3.0,-3.0,1651069074526542.0,3
1897,0.0,1.0,4.0,7.0,14.0,11.0,5.0,2.0,1651069074526542.0,3
1898,-1.0,-1.0,-3.0,-2.0,-9.0,-3.0,1.0,0.0,1651069074527512.0,3
1899,-1.0,-3.0,-3.0,-3.0,-5.0,-5.0,-1.0,-4.0,1651069074527512.0,3
1900,0.0,1.0,1.0,-1.0,7.0,2.0,1.0,-1.0,1651069074548684.0,3
1901,1.0,1.0,3.0,-2.0,-9.0,-3.0,-1.0,0.0,1651069074548684.0,3
1902,-1.0,-3.0,-4.0,-1.0,5.0,1.0,-1.0,-1.0,1651069074550648.0,3
1903,-1.0,0.0,0.0,-1.0,-4.0,0.0,1.0,-1.0,1651069074550648.0,3
1904,0.0,-2.0,-3.0,0.0,6.0,6.0,1.0,1.0,1651069074563680.0,3
1905,1.0,0.0,-1.0,0.0,3.0,-2.0,-1.0,-1.0,1651069074563680.0,3
1906,1.0,0.0,0.0,1.0,-2.0,-3.0,0.0,-2.0,1651069074565608.0,3
1907,0.0,0.0,1.0,-3.0,-3.0,-4.0,-4.0,-1.0,1651069074565608.0,3
