,EMG_s0,EMG_s1,EMG_s2,EMG_s3,EMG_s4,EMG_s5,EMG_s6,EMG_s7,timestamp,signal
0,0.0,-1.0,-1.0,-2.0,-5.0,-4.0,0.0,-1.0,1651069384599673.0,0
1,0.0,-1.0,0.0,1.0,0.0,0.0,2.0,0.0,1651069384599673.0,0
2,-1.0,0.0,0.0,-1.0,2.0,0.0,-1.0,-1.0,1651069384612840.0,0
3,-1.0,1.0,-1.0,1.0,-1.0,1.0,0.0,-1.0,1651069384612840.0,0
4,1.0,-1.0,-1.0,-2.0,2.0,0.0,0.0,1.0,1651069384618881.0,0
5,-2.0,0.0,-1.0,-1.0,-2.0,-3.0,-1.0,-1.0,1651069384618881.0,0
6,0.0,-1.0,-1.0,1.0,1.0,4.0,-1.0,1.0,1651069384635962.0,0
7,-1.0,0.0,1.0,-2.0,-1.0,-3.0,-2.0,-1.0,1651069384635962.0,0
8,-2.0,-1.0,-1.0,1.0,3.0,6.0,1.0,-1.0,1651069384636933.0,0
9,-1.0,-2.0,1.0,-1.0,-6.0,-6.0,-2.0,-2.0,1651069384636933.0,0
10,-1.0,-1.0,-1.0,3.0,4.0,4.0,2.0,0.0,1651069384658285.0,0
11,-1.0,0.0,-1.0,1.0,-4.0,-1.0,0.0,-2.0,1651069384658285.0,0
12,-2.0,0.0,-1.0,-2.0,-4.0,-4.0,-2.0,-1.0,1651069384659241.0,0
13,-1.0,-1.0,-3.0,-2.0,4.0,4.0,0.0,-2.0,1651069384659241.0,0
14,-2.0,-1.0,0.0,-4.0,-6.0,-4.0,-3.0,-2.0,1651069384672339.0,0
15,1.0,-1.0,1.0,1.0,3.0,0.0,1.0,1.0,1651069384672339.0,0
16,0.0,1.0,-1.0,2.0,3.0,0.0,0.0,-2.0,1651069384679254.0,0
17,0.0,0.0,0.0,-1.0,-2.0,-2.0,0.0,1.0,1651069384679254.0,0
18,-1.0,0.0,-2.0,-1.0,1.0,2.0,0.0,1.0,1651069384695394.0,0
19,0.0,0.0,-3.0,-1.0,-1.0,-3.0,-1.0,0.0,1651069384695394.0,0
20,0.0,-1.0,-1.0,0.0,1.0,1.0,0.0,1.0,1651069384697323.0,0
21,-1.0,-1.0,0.0,-3.0,-3.0,-4.0,-1.0,-1.0,1651069384697323.0,0
22,0.0,-1.0,-1.0,1.0,2.0,-1.0,0.0,1.0,1651069384718186.0,0
23,-1.0,-2.0,1.0,-2.0,-5.0,-2.0,-2.0,0.0,1651069384718186.0,0
24,0.0,-1.0,-3.0,-1.0,1.0,-2.0,-1.0,-1.0,1651069384719116.0,0
25,1.0,0.0,-2.0,-1.0,2.0,2.0,0.0,-1.0,1651069384719116.0,0
26,-1.0,-1.0,0.0,-1.0,-4.0,-3.0,-1.0,0.0,1651069384731324.0,0
27,-2.0,0.0,-1.0,1.0,3.0,2.0,0.0,1.0,1651069384731324.0,0
28,1.0,-1.0,0.0,0.0,2.0,2.0,-2.0,0.0,1651069384740472.0,0
29,0.0,0.0,1.0,1.0,-2.0,-3.0,-1.0,1.0,1651069384740472.0,0
30,-1.0,-2.0,0.0,-1.0,-9.0,-4.0,-2.0,-3.0,1651069384755581.0,0
31,1.0,0.0,1.0,4.0,13.0,9.0,3.0,0.0,1651069384755581.0,0
32,0.0,-2.0,-1.0,0.0,4.0,1.0,0.0,-1.0,1651069384757576.0,0
33,-2.0,0.0,-1.0,-1.0,-4.0,-3.0,-2.0,-2.0,1651069384757576.0,0
34,1.0,1.0,-1.0,-2.0,-1.0,-1.0,2.0,-1.0,1651069384777742.0,0
35,1.0,0.0,-1.0,0.0,-6.0,-2.0,-2.0,-3.0,1651069384777742.0,0
36,-3.0,0.0,0.0,1.0,5.0,2.0,1.0,0.0,1651069384779670.0,0
37,-1.0,-1.0,-1.0,-1.0,-2.0,0.0,-1.0,-2.0,1651069384779670.0,0
38,-1.0,-1.0,-1.0,-2.0,1.0,-1.0,0.0,0.0,1651069384791446.0,0
39,0.0,0.0,-1.0,0.0,-3.0,-1.0,0.0,-2.0,1651069384791446.0,0
40,0.0,-2.0,-1.0,1.0,-2.0,-3.0,-1.0,0.0,1651069384800425.0,0
41,-1.0,0.0,0.0,1.0,-2.0,-1.0,0.0,-2.0,1651069384800425.0,0
42,1.0,0.0,-1.0,0.0,1.0,-1.0,-1.0,0.0,1651069384815778.0,0
43,-2.0,-2.0,0.0,-2.0,-3.0,1.0,0.0,0.0,1651069384815778.0,0
44,-2.0,0.0,0.0,-1.0,-3.0,-3.0,-2.0,-2.0,1651069384816709.0,0
45,-1.0,0.0,0.0,0.0,1.0,2.0,0.0,0.0,1651069384816709.0,0
46,0.0,0.0,0.0,2.0,-3.0,2.0,1.0,-1.0,1651069384837938.0,0
47,-2.0,0.0,0.0,1.0,7.0,3.0,-1.0,-1.0,1651069384837938.0,0
48,-1.0,0.0,1.0,-3.0,-4.0,1.0,2.0,-1.0,1651069384839910.0,0
49,-1.0,-3.0,-4.0,-2.0,0.0,0.0,0.0,0.0,1651069384839910.0,0
50,-1.0,0.0,0.0,-2.0,-2.0,-3.0,-2.0,-2.0,1651069384852161.0,0
51,-1.0,-2.0,-1.0,-2.0,-5.0,-6.0,-2.0,1.0,1651069384852161.0,0
52,-2.0,-1.0,-1.0,-3.0,-3.0,-2.0,-2.0,-2.0,1651069384860208.0,0
53,0.0,0.0,-1.0,2.0,7.0,2.0,0.0,-1.0,1651069384860208.0,0
54,-1.0,1.0,2.0,0.0,-2.0,1.0,1.0,1.0,1651069384875333.0,0
55,0.0,-2.0,-1.0,-2.0,-3.0,-7.0,-1.0,-1.0,1651069384875333.0,0
56,-1.0,1.0,0.0,-2.0,-1.0,1.0,1.0,-1.0,1651069384877257.0,0
57,0.0,-1.0,-2.0,-1.0,-4.0,-2.0,-2.0,-1.0,1651069384877257.0,0
58,1.0,0.0,-1.0,0.0,1.0,-1.0,-2.0,-2.0,1651069384898487.0,0
59,0.0,1.0,-1.0,0.0,2.0,4.0,0.0,-1.0,1651069384898487.0,0
60,1.0,-1.0,-1.0,1.0,-1.0,-1.0,0.0,-2.0,1651069384899457.0,0
61,1.0,0.0,1.0,-1.0,1.0,3.0,1.0,-1.0,1651069384899457.0,0
62,-2.0,-2.0,-1.0,1.0,-2.0,-3.0,0.0,-1.0,1651069384911600.0,0
63,-1.0,-1.0,-2.0,-3.0,-4.0,-2.0,-2.0,0.0,1651069384911600.0,0
64,1.0,1.0,3.0,3.0,4.0,1.0,0.0,2.0,1651069384920576.0,0
65,0.0,-1.0,0.0,-1.0,-4.0,-3.0,-1.0,0.0,1651069384920576.0,0
66,0.0,-2.0,-5.0,0.0,1.0,1.0,-1.0,-1.0,1651069384935758.0,0
67,-1.0,-2.0,-4.0,1.0,8.0,5.0,1.0,2.0,1651069384935758.0,0
68,0.0,-1.0,1.0,1.0,-3.0,2.0,-1.0,1.0,1651069384937570.0,0
69,1.0,0.0,2.0,-1.0,-3.0,0.0,-1.0,0.0,1651069384937570.0,0
70,-1.0,0.0,-2.0,-3.0,-1.0,-1.0,1.0,-1.0,1651069384957576.0,0
71,0.0,-1.0,1.0,0.0,-4.0,-2.0,-3.0,-1.0,1651069384957576.0,0
72,-1.0,-2.0,-3.0,-1.0,0.0,-1.0,1.0,0.0,1651069384964556.0,0
73,0.0,-1.0,2.0,0.0,3.0,0.0,1.0,0.0,1651069384964556.0,0
74,-1.0,-2.0,0.0,-1.0,-1.0,0.0,-3.0,-1.0,1651069384980575.0,0
75,0.0,1.0,-1.0,-2.0,-2.0,1.0,1.0,-1.0,1651069384980575.0,0
76,-1.0,-1.0,-3.0,-3.0,-3.0,-5.0,-1.0,-2.0,1651069384982530.0,0
77,-1.0,0.0,-3.0,0.0,2.0,1.0,2.0,-1.0,1651069384982530.0,0
78,0.0,-2.0,-1.0,-1.0,0.0,0.0,0.0,1.0,1651069385003500.0,0
79,2.0,0.0,1.0,-2.0,-4.0,-2.0,-1.0,-1.0,1651069385003500.0,0
80,-1.0,-1.0,-1.0,0.0,1.0,0.0,-3.0,-1.0,1651069385004459.0,0
81,-1.0,-1.0,0.0,-1.0,1.0,-1.0,-2.0,0.0,1651069385004459.0,0
82,0.0,-1.0,0.0,0.0,-6.0,-1.0,-2.0,-2.0,1651069385017477.0,0
83,0.0,-2.0,-1.0,-1.0,8.0,3.0,-1.0,-1.0,1651069385017477.0,0
84,-1.0,0.0,-2.0,-2.0,-4.0,-2.0,0.0,-1.0,1651069385024458.0,0
85,-2.0,-1.0,0.0,0.0,6.0,0.0,2.0,0.0,1651069385024458.0,0
86,-1.0,-1.0,0.0,0.0,0.0,-3.0,0.0,-1.0,1651069385040950.0,0
87,1.0,1.0,1.0,-2.0,-3.0,3.0,3.0,-1.0,1651069385040950.0,0
88,0.0,-1.0,1.0,0.0,4.0,1.0,0.0,2.0,1651069385042098.0,0
89,0.0,-2.0,-1.0,0.0,-5.0,-1.0,-2.0,-1.0,1651069385042098.0,0
90,0.0,-1.0,0.0,-3.0,1.0,0.0,-1.0,-1.0,1651069385063456.0,0
91,-2.0,1.0,0.0,0.0,-5.0,-1.0,0.0,0.0,1651069385063456.0,0
92,0.0,0.0,-2.0,0.0,0.0,1.0,0.0,0.0,1651069385064456.0,0
93,-1.0,1.0,1.0,0.0,-1.0,0.0,-2.0,-1.0,1651069385064456.0,0
94,0.0,1.0,-1.0,1.0,-2.0,-1.0,-2.0,0.0,1651069385077430.0,0
95,-2.0,-1.0,0.0,0.0,0.0,-1.0,-3.0,-1.0,1651069385077430.0,0
96,1.0,-2.0,-4.0,-3.0,-4.0,-3.0,-1.0,-2.0,1651069385084469.0,0
97,-1.0,-1.0,0.0,-2.0,-1.0,2.0,-1.0,0.0,1651069385084469.0,0
98,1.0,0.0,1.0,-1.0,-6.0,-5.0,-3.0,1.0,1651069385100728.0,0
99,-1.0,1.0,1.0,1.0,5.0,4.0,1.0,-1.0,1651069385100728.0,0
100,-2.0,-2.0,0.0,-1.0,1.0,0.0,-1.0,0.0,1651069385101658.0,0
101,1.0,1.0,-4.0,-1.0,-2.0,-4.0,0.0,-1.0,1651069385101658.0,0
102,0.0,1.0,0.0,-1.0,3.0,3.0,1.0,-1.0,1651069385122759.0,0
103,1.0,-3.0,-1.0,0.0,-3.0,-5.0,-3.0,0.0,1651069385122759.0,0
104,0.0,-1.0,-1.0,-1.0,-3.0,-2.0,-1.0,0.0,1651069385124365.0,0
105,-1.0,-2.0,-1.0,-2.0,-4.0,0.0,-1.0,-1.0,1651069385124365.0,0
106,-1.0,0.0,0.0,-1.0,2.0,0.0,-1.0,0.0,1651069385137367.0,0
107,-2.0,0.0,-2.0,-2.0,-3.0,-4.0,-1.0,0.0,1651069385137367.0,0
108,0.0,0.0,0.0,0.0,0.0,1.0,2.0,-2.0,1651069385144286.0,0
109,0.0,0.0,-1.0,-1.0,-2.0,-3.0,-2.0,-1.0,1651069385144286.0,0
110,-1.0,-2.0,0.0,0.0,1.0,0.0,2.0,0.0,1651069385160568.0,0
111,-1.0,-1.0,0.0,0.0,-3.0,-2.0,1.0,0.0,1651069385160568.0,0
112,-2.0,3.0,1.0,1.0,-1.0,0.0,-2.0,1.0,1651069385162574.0,0
113,-2.0,0.0,0.0,0.0,-2.0,3.0,1.0,1.0,1651069385162574.0,0
114,-1.0,0.0,2.0,2.0,9.0,5.0,0.0,1.0,1651069385183103.0,0
115,-3.0,0.0,0.0,-1.0,-2.0,-2.0,-1.0,-1.0,1651069385183103.0,0
116,-1.0,-1.0,-3.0,-1.0,-5.0,-5.0,-2.0,-1.0,1651069385184104.0,0
117,1.0,1.0,1.0,3.0,6.0,3.0,1.0,-2.0,1651069385184104.0,0
118,0.0,-2.0,-1.0,-1.0,0.0,1.0,-2.0,-1.0,1651069385197135.0,0
119,-1.0,-2.0,1.0,-1.0,-1.0,1.0,0.0,0.0,1651069385197135.0,0
120,-2.0,0.0,-1.0,-1.0,-2.0,0.0,0.0,-2.0,1651069385204117.0,0
121,1.0,-2.0,-2.0,-4.0,-5.0,-2.0,-2.0,0.0,1651069385204117.0,0
122,0.0,1.0,0.0,3.0,12.0,3.0,2.0,-2.0,1651069385220168.0,0
123,1.0,-1.0,-3.0,-2.0,-2.0,-1.0,-3.0,0.0,1651069385220168.0,0
124,0.0,1.0,0.0,-2.0,-3.0,-4.0,1.0,0.0,1651069385227118.0,0
125,-3.0,-1.0,0.0,0.0,0.0,-2.0,0.0,1.0,1651069385227118.0,0
126,0.0,-2.0,-1.0,-1.0,0.0,3.0,0.0,1.0,1651069385243227.0,0
127,-1.0,-1.0,0.0,-1.0,-1.0,-3.0,-1.0,0.0,1651069385243227.0,0
128,-1.0,-1.0,1.0,-1.0,0.0,1.0,0.0,0.0,1651069385244157.0,0
129,-1.0,-1.0,-2.0,-2.0,-8.0,-3.0,-2.0,-1.0,1651069385244157.0,0
130,-3.0,-1.0,-2.0,1.0,4.0,1.0,0.0,1.0,1651069385257150.0,0
131,1.0,-1.0,0.0,0.0,-4.0,-6.0,-1.0,-1.0,1651069385257150.0,0
132,-1.0,-1.0,-1.0,0.0,4.0,4.0,-1.0,1.0,1651069385266108.0,0
133,0.0,-1.0,-1.0,-1.0,-2.0,3.0,0.0,-2.0,1651069385266108.0,0
134,0.0,-2.0,-1.0,-2.0,-4.0,-4.0,0.0,0.0,1651069385280517.0,0
135,1.0,0.0,-1.0,-5.0,-9.0,-2.0,-2.0,-1.0,1651069385280517.0,0
136,1.0,-1.0,-2.0,2.0,7.0,0.0,1.0,0.0,1651069385282514.0,0
137,0.0,0.0,-1.0,-1.0,1.0,-1.0,0.0,-1.0,1651069385282514.0,0
138,-1.0,0.0,-1.0,-1.0,-4.0,0.0,-3.0,-2.0,1651069385302896.0,0
139,-1.0,-1.0,-3.0,0.0,5.0,2.0,-1.0,0.0,1651069385302896.0,0
140,0.0,0.0,0.0,0.0,-6.0,-2.0,0.0,1.0,1651069385304821.0,0
141,0.0,1.0,-2.0,-1.0,-3.0,-2.0,-2.0,0.0,1651069385304821.0,0
142,-2.0,-1.0,-1.0,-1.0,2.0,1.0,1.0,0.0,1651069385316427.0,0
143,-1.0,1.0,0.0,0.0,-4.0,-1.0,0.0,1.0,1651069385316427.0,0
144,-2.0,1.0,-2.0,-2.0,-2.0,-3.0,0.0,0.0,1651069385326068.0,0
145,0.0,1.0,1.0,0.0,3.0,0.0,-1.0,-1.0,1651069385326068.0,0
146,-1.0,1.0,1.0,-2.0,-5.0,-4.0,-1.0,-2.0,1651069385340143.0,0
147,0.0,-1.0,1.0,-1.0,0.0,0.0,1.0,0.0,1651069385340143.0,0
148,0.0,-1.0,0.0,0.0,3.0,5.0,-1.0,-1.0,1651069385342138.0,0
149,-1.0,-1.0,0.0,-1.0,-1.0,-5.0,-1.0,0.0,1651069385342138.0,0
150,0.0,2.0,-1.0,1.0,-1.0,0.0,0.0,1.0,1651069385362611.0,0
151,0.0,-1.0,1.0,1.0,-1.0,1.0,1.0,-1.0,1651069385362611.0,0
152,-1.0,-1.0,0.0,-2.0,1.0,-2.0,-1.0,-1.0,1651069385364595.0,0
153,-1.0,0.0,1.0,-1.0,2.0,-1.0,0.0,0.0,1651069385364595.0,0
154,-1.0,-1.0,-2.0,-4.0,-17.0,-5.0,-3.0,-3.0,1651069385376625.0,0
155,-1.0,-1.0,1.0,5.0,19.0,10.0,2.0,1.0,1651069385376625.0,0
156,-2.0,-2.0,-4.0,-1.0,-4.0,-2.0,0.0,-1.0,1651069385385531.0,0
157,-1.0,0.0,0.0,0.0,1.0,2.0,-1.0,1.0,1651069385385531.0,0
158,0.0,0.0,1.0,0.0,-4.0,-3.0,1.0,1.0,1651069385400957.0,0
159,0.0,-1.0,-1.0,-3.0,-6.0,-3.0,-3.0,-1.0,1651069385400957.0,0
160,-1.0,0.0,0.0,-1.0,-2.0,-4.0,-2.0,-1.0,1651069385401858.0,0
161,0.0,0.0,1.0,0.0,1.0,0.0,-1.0,0.0,1651069385401858.0,0
162,0.0,1.0,-2.0,-2.0,1.0,5.0,1.0,-1.0,1651069385422981.0,0
163,-1.0,2.0,4.0,3.0,1.0,0.0,-1.0,-1.0,1651069385422981.0,0
164,-1.0,-3.0,-5.0,-2.0,2.0,-2.0,-4.0,-3.0,1651069385424976.0,0
165,0.0,0.0,3.0,1.0,-1.0,-2.0,-5.0,0.0,1651069385424976.0,0
166,0.0,-4.0,-4.0,-3.0,0.0,2.0,2.0,1.0,1651069385436984.0,0
167,1.0,2.0,3.0,3.0,7.0,3.0,2.0,-1.0,1651069385436984.0,0
168,2.0,3.0,6.0,3.0,2.0,3.0,2.0,0.0,1651069385445892.0,0
169,-1.0,-4.0,-6.0,-5.0,-13.0,-9.0,-2.0,-3.0,1651069385445892.0,0
170,3.0,5.0,12.0,12.0,9.0,3.0,-1.0,0.0,1651069385460990.0,0
171,-6.0,-14.0,-30.0,-17.0,-16.0,-14.0,-5.0,-4.0,1651069385460990.0,0
172,0.0,2.0,3.0,0.0,-1.0,6.0,6.0,3.0,1651069385461960.0,0
173,0.0,1.0,3.0,6.0,10.0,6.0,2.0,0.0,1651069385461960.0,0
174,0.0,1.0,2.0,-8.0,-9.0,-6.0,0.0,1.0,1651069385483417.0,0
175,0.0,3.0,9.0,4.0,0.0,1.0,-1.0,0.0,1651069385483417.0,0
176,2.0,1.0,2.0,1.0,3.0,1.0,-3.0,-1.0,1651069385484236.0,0
177,-2.0,-3.0,-4.0,4.0,5.0,1.0,-1.0,-1.0,1651069385484236.0,1
178,0.0,-2.0,-5.0,-1.0,1.0,-2.0,-2.0,-3.0,1651069385496274.0,1
179,0.0,5.0,7.0,3.0,1.0,1.0,0.0,1.0,1651069385496274.0,1
180,0.0,3.0,9.0,-2.0,-5.0,-5.0,-4.0,-1.0,1651069385505250.0,1
181,-3.0,-8.0,-16.0,-7.0,0.0,2.0,1.0,0.0,1651069385505250.0,1
182,-2.0,-1.0,0.0,4.0,-1.0,-1.0,-2.0,-1.0,1651069385520942.0,1
183,0.0,0.0,4.0,0.0,0.0,0.0,0.0,2.0,1651069385520942.0,1
184,-1.0,-3.0,-8.0,-4.0,-2.0,0.0,0.0,-3.0,1651069385522644.0,1
185,-1.0,0.0,-6.0,-9.0,-15.0,-8.0,0.0,1.0,1651069385522644.0,1
186,-2.0,-3.0,-4.0,-8.0,0.0,-2.0,-6.0,-5.0,1651069385542750.0,1
187,5.0,1.0,1.0,1.0,0.0,1.0,3.0,7.0,1651069385542750.0,1
188,-2.0,1.0,8.0,8.0,17.0,10.0,-2.0,-4.0,1651069385544677.0,1
189,2.0,1.0,-1.0,-4.0,4.0,-4.0,0.0,7.0,1651069385544677.0,1
190,-28.0,-15.0,-26.0,-10.0,-17.0,-9.0,-6.0,-6.0,1651069385556600.0,1
191,28.0,2.0,-1.0,-3.0,0.0,-2.0,-14.0,-14.0,1651069385556600.0,1
192,7.0,9.0,17.0,17.0,2.0,5.0,25.0,18.0,1651069385565584.0,1
193,-3.0,-7.0,-19.0,-28.0,-11.0,-10.0,-9.0,-9.0,1651069385565584.0,1
194,0.0,12.0,36.0,32.0,27.0,12.0,-19.0,-22.0,1651069385580223.0,1
195,-6.0,-10.0,-26.0,-19.0,-16.0,-2.0,38.0,33.0,1651069385580223.0,1
196,-7.0,-9.0,-18.0,-7.0,-2.0,-3.0,-9.0,-7.0,1651069385587203.0,1
197,6.0,5.0,12.0,1.0,-4.0,0.0,-3.0,-3.0,1651069385587203.0,1
198,4.0,6.0,11.0,19.0,12.0,3.0,-5.0,-7.0,1651069385602771.0,1
199,-8.0,2.0,13.0,1.0,10.0,6.0,-16.0,-14.0,1651069385602771.0,1
200,6.0,-3.0,-14.0,-11.0,-9.0,-7.0,5.0,8.0,1651069385604699.0,1
201,-5.0,-5.0,3.0,22.0,-16.0,-10.0,-13.0,-4.0,1651069385604699.0,1
202,-8.0,-11.0,-22.0,-53.0,-10.0,-1.0,-6.0,-2.0,1651069385617664.0,1
203,7.0,16.0,11.0,23.0,-8.0,-4.0,-6.0,-6.0,1651069385617664.0,1
204,-21.0,-1.0,17.0,8.0,8.0,2.0,-14.0,-14.0,1651069385625953.0,1
205,15.0,-3.0,-13.0,3.0,9.0,0.0,14.0,18.0,1651069385625953.0,1
206,6.0,-3.0,-8.0,-14.0,-13.0,-4.0,-6.0,3.0,1651069385639861.0,1
207,1.0,-1.0,-12.0,-13.0,-18.0,-5.0,4.0,4.0,1651069385639861.0,1
208,4.0,9.0,18.0,11.0,9.0,6.0,2.0,1.0,1651069385646841.0,1
209,-8.0,1.0,11.0,28.0,29.0,7.0,-10.0,-13.0,1651069385646841.0,1
210,-24.0,-10.0,-24.0,-52.0,-30.0,-11.0,-5.0,-4.0,1651069385662977.0,1
211,1.0,-8.0,-6.0,12.0,-1.0,-7.0,-18.0,0.0,1651069385662977.0,1
212,1.0,0.0,5.0,-3.0,-5.0,-3.0,12.0,10.0,1651069385664991.0,1
213,-7.0,-5.0,3.0,13.0,3.0,0.0,-3.0,-11.0,1651069385664991.0,1
214,7.0,4.0,8.0,17.0,11.0,5.0,25.0,17.0,1651069385685147.0,1
215,-41.0,-4.0,6.0,21.0,23.0,3.0,-23.0,-19.0,1651069385685147.0,1
216,17.0,10.0,10.0,-30.0,-12.0,-5.0,-15.0,-11.0,1651069385687082.0,1
217,0.0,2.0,-1.0,3.0,14.0,11.0,14.0,9.0,1651069385687082.0,1
218,5.0,-3.0,-9.0,-11.0,-16.0,-12.0,-36.0,-20.0,1651069385700107.0,1
219,-3.0,0.0,6.0,8.0,3.0,3.0,29.0,15.0,1651069385700107.0,1
220,0.0,0.0,0.0,36.0,20.0,5.0,-8.0,0.0,1651069385707030.0,1
221,14.0,7.0,6.0,-6.0,-19.0,-2.0,27.0,24.0,1651069385707030.0,1
222,6.0,-8.0,-12.0,-12.0,-1.0,-6.0,-5.0,-12.0,1651069385722764.0,1
223,9.0,0.0,-1.0,-2.0,12.0,6.0,14.0,12.0,1651069385722764.0,1
224,-3.0,-5.0,-9.0,-7.0,-14.0,-6.0,9.0,11.0,1651069385724718.0,1
225,-10.0,-6.0,5.0,33.0,20.0,2.0,-26.0,-25.0,1651069385724718.0,1
226,10.0,22.0,14.0,-19.0,0.0,1.0,8.0,7.0,1651069385745844.0,1
227,-29.0,-21.0,-3.0,-5.0,3.0,1.0,-30.0,-42.0,1651069385745844.0,1
228,16.0,2.0,-8.0,1.0,13.0,12.0,44.0,57.0,1651069385746843.0,1
229,0.0,6.0,12.0,2.0,-10.0,-3.0,-6.0,-1.0,1651069385746843.0,1
230,14.0,4.0,-3.0,11.0,6.0,1.0,11.0,8.0,1651069385759920.0,1
231,-6.0,4.0,-3.0,-12.0,-14.0,-10.0,-15.0,-16.0,1651069385759920.0,1
232,40.0,3.0,5.0,-2.0,-11.0,3.0,9.0,6.0,1651069385766943.0,1
233,0.0,-7.0,-17.0,-5.0,-3.0,-1.0,-12.0,-11.0,1651069385766943.0,1
234,-38.0,-9.0,4.0,69.0,15.0,8.0,38.0,34.0,1651069385783001.0,1
235,-6.0,13.0,5.0,-25.0,1.0,-2.0,7.0,-8.0,1651069385783001.0,1
236,9.0,-10.0,-27.0,-23.0,-28.0,-18.0,-24.0,-17.0,1651069385784929.0,1
237,5.0,18.0,38.0,3.0,2.0,5.0,22.0,17.0,1651069385784929.0,1
238,-19.0,-8.0,-4.0,5.0,1.0,1.0,-12.0,-21.0,1651069385805362.0,1
239,42.0,-19.0,-4.0,-2.0,2.0,0.0,9.0,12.0,1651069385805362.0,1
240,-26.0,7.0,19.0,35.0,1.0,-2.0,-5.0,-13.0,1651069385807361.0,1
241,-16.0,15.0,-44.0,-51.0,-27.0,-8.0,-3.0,-1.0,1651069385807361.0,1
242,38.0,-5.0,-3.0,5.0,5.0,2.0,3.0,14.0,1651069385820324.0,1
243,-42.0,1.0,36.0,21.0,-10.0,-6.0,-22.0,-34.0,1651069385820324.0,1
244,-50.0,-7.0,-28.0,-38.0,7.0,1.0,1.0,-23.0,1651069385822346.0,1
245,-3.0,-17.0,-17.0,-30.0,2.0,-5.0,-28.0,-21.0,1651069385822346.0,1
246,-14.0,-8.0,-14.0,26.0,12.0,5.0,35.0,26.0,1651069385843449.0,1
247,-21.0,9.0,35.0,8.0,-2.0,-3.0,7.0,4.0,1651069385843449.0,1
248,39.0,-4.0,-32.0,42.0,9.0,-4.0,-20.0,-16.0,1651069385844388.0,1
249,-7.0,-9.0,-2.0,-12.0,-7.0,3.0,6.0,7.0,1651069385844388.0,1
250,-14.0,15.0,47.0,2.0,8.0,2.0,-13.0,-19.0,1651069385865555.0,1
251,-1.0,-3.0,-34.0,0.0,-13.0,-4.0,-1.0,20.0,1651069385865555.0,1
252,-66.0,-10.0,-13.0,-26.0,-20.0,-8.0,14.0,4.0,1651069385867512.0,1
253,57.0,19.0,33.0,38.0,15.0,5.0,-10.0,4.0,1651069385867512.0,1
254,55.0,-14.0,-39.0,-43.0,27.0,8.0,-3.0,2.0,1651069385879570.0,1
255,-35.0,-6.0,30.0,55.0,17.0,22.0,17.0,11.0,1651069385879570.0,1
256,-37.0,4.0,-16.0,-37.0,-13.0,-4.0,-14.0,-39.0,1651069385886618.0,1
257,-27.0,-11.0,-41.0,-43.0,-21.0,-7.0,10.0,6.0,1651069385886618.0,1
258,23.0,11.0,34.0,18.0,-2.0,2.0,1.0,7.0,1651069385903399.0,1
259,-21.0,29.0,-9.0,19.0,25.0,7.0,-7.0,-26.0,1651069385903399.0,1
260,-1.0,-18.0,-16.0,-45.0,-27.0,-16.0,-9.0,-1.0,1651069385904812.0,1
261,2.0,-4.0,24.0,28.0,16.0,6.0,-11.0,-10.0,1651069385904812.0,1
262,-58.0,1.0,7.0,-1.0,-24.0,-11.0,-12.0,-4.0,1651069385925751.0,1
263,57.0,6.0,-9.0,-27.0,-14.0,-8.0,2.0,27.0,1651069385925751.0,1
264,24.0,-2.0,7.0,-3.0,28.0,10.0,-4.0,7.0,1651069385926707.0,1
265,-11.0,8.0,14.0,50.0,9.0,-6.0,0.0,-7.0,1651069385926707.0,1
266,20.0,5.0,-5.0,-31.0,-32.0,-16.0,-28.0,-20.0,1651069385939639.0,1
267,-2.0,-21.0,-49.0,-52.0,-26.0,-5.0,21.0,19.0,1651069385939639.0,1
268,-33.0,2.0,35.0,43.0,28.0,8.0,-8.0,-13.0,1651069385948673.0,1
269,29.0,-13.0,-5.0,-8.0,-7.0,-2.0,10.0,8.0,1651069385948673.0,1
270,8.0,4.0,4.0,-30.0,-19.0,-5.0,-7.0,-4.0,1651069385963423.0,1
271,-17.0,-3.0,8.0,22.0,12.0,10.0,10.0,1.0,1651069385963423.0,1
272,8.0,20.0,15.0,-20.0,-25.0,-1.0,9.0,9.0,1651069385964428.0,1
273,14.0,-4.0,-18.0,-5.0,14.0,-5.0,-3.0,1.0,1651069385964428.0,1
274,79.0,2.0,-18.0,-4.0,-6.0,4.0,17.0,42.0,1651069385985948.0,1
275,-46.0,-21.0,8.0,1.0,-1.0,-8.0,-27.0,-49.0,1651069385985948.0,1
276,60.0,8.0,-3.0,-10.0,-7.0,0.0,2.0,20.0,1651069385986627.0,1
277,32.0,8.0,30.0,-27.0,4.0,2.0,-25.0,-18.0,1651069385986627.0,1
278,9.0,-5.0,-11.0,53.0,18.0,7.0,46.0,23.0,1651069385999650.0,1
279,-9.0,-2.0,8.0,-20.0,-1.0,-4.0,-11.0,-5.0,1651069385999650.0,1
280,1.0,-3.0,10.0,37.0,0.0,-5.0,-5.0,5.0,1651069386008573.0,1
281,-31.0,7.0,-1.0,-41.0,-9.0,8.0,16.0,9.0,1651069386008573.0,1
282,-34.0,-7.0,3.0,1.0,-2.0,-10.0,-28.0,-31.0,1651069386023550.0,1
283,60.0,5.0,-12.0,14.0,11.0,5.0,17.0,28.0,1651069386023550.0,1
284,-21.0,-12.0,-8.0,-10.0,4.0,10.0,-1.0,-13.0,1651069386024529.0,1
285,4.0,23.0,68.0,40.0,-4.0,4.0,21.0,21.0,1651069386024529.0,1
286,-42.0,-20.0,-35.0,-6.0,21.0,2.0,-14.0,-17.0,1651069386045719.0,1
287,2.0,10.0,-13.0,-51.0,-29.0,-11.0,-17.0,-12.0,1651069386045719.0,1
288,9.0,-8.0,4.0,-5.0,-3.0,-6.0,6.0,2.0,1651069386046715.0,1
289,-22.0,-20.0,-13.0,14.0,4.0,-1.0,-8.0,-10.0,1651069386046715.0,1
290,39.0,6.0,21.0,29.0,-2.0,-1.0,6.0,14.0,1651069386060849.0,1
291,66.0,5.0,-8.0,-29.0,-9.0,-6.0,-5.0,13.0,1651069386060849.0,1
292,-43.0,-8.0,-8.0,20.0,9.0,-1.0,6.0,-6.0,1651069386066843.0,1
293,-23.0,-19.0,-14.0,-11.0,-8.0,-1.0,1.0,-3.0,1651069386066843.0,1
294,-68.0,-2.0,-20.0,-20.0,-8.0,-4.0,2.0,-8.0,1651069386082734.0,1
295,24.0,2.0,-7.0,11.0,11.0,2.0,4.0,14.0,1651069386082734.0,1
296,14.0,-12.0,3.0,3.0,0.0,-2.0,-17.0,-1.0,1651069386084728.0,1
297,3.0,10.0,1.0,9.0,-6.0,-3.0,16.0,8.0,1651069386084728.0,1
298,-23.0,-21.0,16.0,-8.0,-5.0,-4.0,-7.0,-4.0,1651069386105514.0,1
299,-38.0,-8.0,-18.0,-2.0,-6.0,-8.0,-6.0,-13.0,1651069386105514.0,1
300,43.0,16.0,-4.0,3.0,7.0,7.0,2.0,8.0,1651069386107442.0,1
301,-18.0,-12.0,-16.0,0.0,-5.0,-12.0,-23.0,-10.0,1651069386107442.0,1
302,6.0,21.0,26.0,16.0,9.0,10.0,15.0,-7.0,1651069386120307.0,1
303,1.0,-12.0,-15.0,-8.0,-20.0,-18.0,-8.0,2.0,1651069386120307.0,1
304,-19.0,-15.0,44.0,53.0,16.0,13.0,-9.0,1.0,1651069386126361.0,1
305,48.0,3.0,-41.0,-39.0,-1.0,5.0,9.0,7.0,1651069386126361.0,1
306,11.0,1.0,-9.0,-21.0,-5.0,4.0,3.0,4.0,1651069386142514.0,1
307,21.0,0.0,7.0,31.0,-8.0,-4.0,-3.0,0.0,1651069386142514.0,1
308,30.0,12.0,2.0,-34.0,-10.0,-15.0,-5.0,-6.0,1651069386150468.0,1
309,-5.0,1.0,-27.0,-9.0,12.0,14.0,6.0,0.0,1651069386150468.0,1
310,0.0,-9.0,-21.0,-7.0,-9.0,-2.0,14.0,12.0,1651069386165625.0,1
311,-2.0,-2.0,15.0,-8.0,2.0,9.0,10.0,5.0,1651069386165625.0,1
312,8.0,3.0,-6.0,6.0,4.0,-5.0,-7.0,-2.0,1651069386171609.0,1
313,-9.0,2.0,24.0,4.0,-13.0,-10.0,-3.0,-4.0,1651069386171609.0,1
314,7.0,2.0,-20.0,-14.0,4.0,0.0,-11.0,-10.0,1651069386179521.0,1
315,45.0,10.0,22.0,20.0,36.0,24.0,12.0,16.0,1651069386179521.0,1
316,0.0,-4.0,-7.0,7.0,-15.0,-9.0,6.0,9.0,1651069386188355.0,1
317,-14.0,0.0,-8.0,-6.0,-3.0,2.0,1.0,-4.0,1651069386188355.0,1
318,-25.0,-19.0,0.0,-3.0,6.0,-4.0,-7.0,-1.0,1651069386203507.0,1
319,-19.0,3.0,-4.0,-29.0,-8.0,-3.0,-9.0,-9.0,1651069386203507.0,1
320,-16.0,0.0,-8.0,-6.0,-1.0,-3.0,-7.0,-9.0,1651069386204518.0,1
321,5.0,1.0,0.0,19.0,1.0,-3.0,-8.0,-3.0,1651069386204518.0,1
322,62.0,14.0,14.0,-5.0,-4.0,2.0,19.0,3.0,1651069386225805.0,1
323,-12.0,-9.0,-19.0,-22.0,-8.0,-5.0,-1.0,-3.0,1651069386225805.0,1
324,-13.0,-6.0,-22.0,15.0,16.0,3.0,8.0,7.0,1651069386226739.0,1
325,3.0,13.0,14.0,3.0,-2.0,0.0,-3.0,-7.0,1651069386226739.0,1
326,-4.0,8.0,15.0,8.0,12.0,15.0,6.0,2.0,1651069386238731.0,1
327,6.0,7.0,16.0,19.0,-5.0,-1.0,8.0,7.0,1651069386238731.0,1
328,-30.0,-4.0,-35.0,-42.0,-11.0,-6.0,-9.0,-15.0,1651069386247693.0,1
329,-38.0,-8.0,14.0,-3.0,5.0,-3.0,-5.0,-8.0,1651069386247693.0,1
330,-33.0,10.0,8.0,14.0,-16.0,-7.0,-8.0,-14.0,1651069386262749.0,1
331,-14.0,-5.0,9.0,18.0,13.0,0.0,1.0,0.0,1651069386262749.0,1
332,6.0,1.0,0.0,0.0,-6.0,1.0,0.0,2.0,1651069386264677.0,1
333,-13.0,-2.0,2.0,-15.0,-14.0,-11.0,-14.0,-8.0,1651069386264677.0,1
334,-24.0,-5.0,-1.0,-9.0,-5.0,-3.0,6.0,-1.0,1651069386285198.0,1
335,45.0,0.0,2.0,20.0,46.0,27.0,4.0,2.0,1651069386285198.0,1
336,4.0,1.0,8.0,-7.0,-19.0,-9.0,0.0,-3.0,1651069386287126.0,1
337,13.0,1.0,3.0,-6.0,3.0,2.0,-2.0,5.0,1651069386287126.0,1
338,7.0,0.0,-3.0,2.0,-2.0,-9.0,1.0,6.0,1651069386299093.0,1
339,-20.0,0.0,-7.0,-16.0,-23.0,-9.0,-2.0,-6.0,1651069386299093.0,1
340,-12.0,-15.0,-19.0,-23.0,13.0,8.0,-4.0,1.0,1651069386308069.0,1
341,18.0,1.0,-3.0,-6.0,4.0,10.0,22.0,18.0,1651069386308069.0,1
342,-1.0,4.0,10.0,15.0,1.0,-5.0,-13.0,-1.0,1651069386323398.0,1
343,-19.0,4.0,3.0,3.0,-1.0,4.0,12.0,6.0,1651069386323398.0,1
344,3.0,2.0,10.0,8.0,-5.0,-2.0,4.0,-1.0,1651069386325083.0,1
345,-31.0,-28.0,-9.0,-5.0,-12.0,-10.0,-7.0,-5.0,1651069386325083.0,1
346,9.0,1.0,-5.0,8.0,15.0,7.0,1.0,7.0,1651069386345555.0,1
347,11.0,5.0,-8.0,-17.0,-10.0,-6.0,0.0,0.0,1651069386345555.0,1
348,-8.0,-2.0,21.0,2.0,7.0,4.0,-2.0,-3.0,1651069386347562.0,1
349,38.0,8.0,3.0,19.0,7.0,7.0,8.0,6.0,1651069386347562.0,1
350,-6.0,1.0,6.0,-3.0,1.0,-2.0,-8.0,-7.0,1651069386359578.0,1
351,-31.0,-1.0,-24.0,-16.0,-13.0,-9.0,-13.0,-4.0,1651069386359578.0,1
352,16.0,14.0,16.0,2.0,-4.0,4.0,17.0,16.0,1651069386368496.0,1
353,-36.0,-28.0,-20.0,-4.0,-13.0,-9.0,-2.0,-4.0,1651069386368496.0,1
354,0.0,0.0,3.0,19.0,26.0,16.0,-4.0,-7.0,1651069386382736.0,1
355,11.0,0.0,3.0,-1.0,-10.0,-10.0,-2.0,12.0,1651069386382736.0,1
356,6.0,6.0,9.0,-4.0,-8.0,-3.0,-2.0,-6.0,1651069386384732.0,1
357,3.0,0.0,-9.0,7.0,9.0,5.0,2.0,-2.0,1651069386384732.0,1
358,5.0,1.0,-2.0,1.0,-8.0,-6.0,-4.0,-1.0,1651069386405591.0,1
359,-22.0,-12.0,-15.0,-12.0,-2.0,-2.0,-15.0,-17.0,1651069386405591.0,1
360,-7.0,0.0,-3.0,18.0,-1.0,1.0,1.0,-1.0,1651069386407538.0,1
361,28.0,7.0,14.0,-3.0,-11.0,-8.0,-2.0,8.0,1651069386407538.0,1
362,-37.0,-9.0,-8.0,3.0,1.0,2.0,-9.0,-11.0,1651069386419485.0,1
363,6.0,4.0,0.0,-1.0,30.0,13.0,16.0,6.0,1651069386419485.0,1
364,33.0,12.0,13.0,-7.0,-9.0,-2.0,-6.0,1.0,1651069386428465.0,1
365,16.0,7.0,0.0,-4.0,-6.0,0.0,9.0,6.0,1651069386428465.0,1
366,9.0,-2.0,-9.0,9.0,8.0,4.0,-3.0,1.0,1651069386443549.0,1
367,-18.0,-4.0,4.0,-8.0,-15.0,-6.0,-3.0,-10.0,1651069386443549.0,1
368,0.0,-4.0,-2.0,13.0,13.0,5.0,-5.0,-5.0,1651069386444532.0,1
369,-9.0,5.0,-4.0,0.0,11.0,5.0,3.0,8.0,1651069386444532.0,1
370,18.0,5.0,31.0,9.0,-6.0,-1.0,0.0,-3.0,1651069386465543.0,1
371,-7.0,-2.0,-19.0,-11.0,-7.0,-4.0,-1.0,-5.0,1651069386465543.0,1
372,7.0,-8.0,-3.0,8.0,-2.0,-4.0,-6.0,-3.0,1651069386467470.0,1
373,-6.0,4.0,2.0,6.0,2.0,2.0,0.0,-7.0,1651069386467470.0,1
374,-19.0,0.0,-8.0,-9.0,9.0,4.0,-2.0,3.0,1651069386479505.0,1
375,19.0,2.0,7.0,16.0,7.0,0.0,2.0,7.0,1651069386479505.0,1
376,-32.0,0.0,9.0,7.0,-1.0,0.0,10.0,1.0,1651069386488414.0,1
377,15.0,3.0,-16.0,-4.0,6.0,1.0,5.0,6.0,1651069386488414.0,1
378,-1.0,-4.0,16.0,1.0,-7.0,-5.0,-1.0,1.0,1651069386503443.0,1
379,-8.0,0.0,4.0,4.0,1.0,2.0,1.0,2.0,1651069386503443.0,1
380,-4.0,-3.0,-8.0,-2.0,2.0,1.0,-15.0,-12.0,1651069386504377.0,1
381,-8.0,6.0,15.0,13.0,3.0,3.0,8.0,0.0,1651069386504377.0,1
382,48.0,-11.0,-31.0,-24.0,-18.0,-10.0,4.0,16.0,1651069386532891.0,1
383,-1.0,6.0,24.0,30.0,12.0,3.0,-3.0,-3.0,1651069386532891.0,1
384,-5.0,-15.0,-37.0,-42.0,-12.0,-3.0,-12.0,-10.0,1651069386534820.0,1
385,-7.0,4.0,10.0,18.0,10.0,0.0,-15.0,-8.0,1651069386534820.0,1
386,-20.0,6.0,10.0,6.0,8.0,11.0,13.0,1.0,1651069386538809.0,1
387,5.0,-4.0,-6.0,-1.0,-10.0,-6.0,-7.0,-5.0,1651069386538809.0,1
388,9.0,5.0,9.0,8.0,3.0,4.0,21.0,14.0,1651069386547785.0,1
389,-26.0,-7.0,-11.0,-7.0,-6.0,-6.0,-17.0,-12.0,1651069386547785.0,1
390,-11.0,0.0,-7.0,-23.0,-10.0,-6.0,2.0,3.0,1651069386562776.0,1
391,5.0,5.0,20.0,37.0,24.0,6.0,3.0,-7.0,1651069386562776.0,1
392,-12.0,-5.0,-31.0,-25.0,-9.0,-3.0,-4.0,-10.0,1651069386564704.0,1
393,3.0,-1.0,1.0,-9.0,-6.0,0.0,8.0,2.0,1651069386564704.0,1
394,3.0,4.0,13.0,-5.0,-1.0,2.0,4.0,-3.0,1651069386585859.0,1
395,-5.0,-4.0,8.0,9.0,-1.0,-2.0,2.0,9.0,1651069386585859.0,1
396,8.0,-4.0,-6.0,-3.0,-2.0,-5.0,-5.0,1.0,1651069386586797.0,1
397,-6.0,0.0,5.0,-1.0,-6.0,-1.0,-3.0,-8.0,1651069386586797.0,1
398,2.0,-1.0,-15.0,-4.0,3.0,2.0,2.0,3.0,1651069386598825.0,1
399,2.0,-1.0,-4.0,-15.0,-8.0,-3.0,9.0,3.0,1651069386598825.0,1
400,-4.0,3.0,13.0,3.0,-5.0,-7.0,-6.0,-2.0,1651069386615867.0,1
401,2.0,0.0,-3.0,-3.0,-7.0,-4.0,-1.0,21.0,1651069386615867.0,1
402,5.0,7.0,8.0,5.0,-3.0,-1.0,8.0,-1.0,1651069386623397.0,1
403,-4.0,-2.0,-13.0,-11.0,-2.0,-3.0,-4.0,-3.0,1651069386623397.0,1
404,0.0,-2.0,-3.0,-6.0,-6.0,-2.0,2.0,6.0,1651069386624859.0,1
405,3.0,2.0,7.0,11.0,15.0,6.0,-5.0,-8.0,1651069386624859.0,1
406,-10.0,-8.0,-13.0,4.0,-9.0,-9.0,-9.0,-10.0,1651069386645371.0,1
407,4.0,5.0,8.0,1.0,-5.0,1.0,7.0,8.0,1651069386645371.0,1
408,-3.0,-4.0,-8.0,-19.0,-11.0,-6.0,-4.0,2.0,1651069386647369.0,1
409,6.0,2.0,-3.0,3.0,8.0,7.0,13.0,6.0,1651069386647369.0,1
410,-3.0,-1.0,2.0,-1.0,0.0,-2.0,-3.0,-4.0,1651069386667737.0,1
411,-2.0,-2.0,0.0,7.0,-1.0,-1.0,-2.0,-5.0,1651069386667737.0,1
412,3.0,4.0,10.0,14.0,8.0,2.0,4.0,1.0,1651069386669665.0,1
413,-4.0,-3.0,-9.0,-12.0,4.0,1.0,-9.0,-9.0,1651069386669665.0,1
414,5.0,0.0,-5.0,2.0,0.0,4.0,14.0,15.0,1651069386683456.0,1
415,-1.0,-1.0,1.0,-9.0,-6.0,1.0,-1.0,-1.0,1651069386683456.0,1
416,3.0,0.0,4.0,9.0,8.0,3.0,0.0,0.0,1651069386684468.0,1
417,-2.0,-3.0,-2.0,-5.0,-17.0,-5.0,-1.0,-1.0,1651069386684468.0,1
418,1.0,0.0,1.0,7.0,19.0,4.0,-9.0,-8.0,1651069386705952.0,1
419,-1.0,-4.0,-3.0,-6.0,-8.0,-2.0,-6.0,-2.0,1651069386705952.0,1
420,0.0,3.0,10.0,2.0,2.0,-2.0,3.0,2.0,1651069386706876.0,1
421,-5.0,-3.0,-2.0,0.0,-8.0,2.0,0.0,-2.0,1651069386706876.0,1
422,2.0,-2.0,-3.0,-2.0,-9.0,-8.0,-9.0,-4.0,1651069386727887.0,1
423,-4.0,-3.0,-5.0,-6.0,-5.0,-4.0,-7.0,-6.0,1651069386727887.0,1
424,0.0,-1.0,-1.0,5.0,5.0,0.0,3.0,1.0,1651069386729843.0,1
425,0.0,0.0,2.0,-4.0,1.0,-1.0,2.0,-3.0,1651069386729843.0,1
426,2.0,-2.0,-5.0,-9.0,-10.0,-3.0,-7.0,-4.0,1651069386742847.0,1
427,-2.0,-2.0,0.0,3.0,13.0,2.0,-3.0,-1.0,1651069386742847.0,1
428,-2.0,-1.0,0.0,1.0,-5.0,-1.0,1.0,2.0,1651069386744775.0,1
429,-1.0,1.0,1.0,0.0,8.0,7.0,-1.0,-2.0,1651069386744775.0,1
430,0.0,1.0,1.0,0.0,-2.0,-1.0,-2.0,-1.0,1651069386765875.0,1
431,-1.0,0.0,0.0,-1.0,-7.0,-4.0,2.0,0.0,1651069386765875.0,1
432,1.0,0.0,3.0,3.0,-6.0,-2.0,-1.0,-3.0,1651069386766875.0,1
433,-2.0,-2.0,-3.0,3.0,11.0,6.0,1.0,-1.0,1651069386766875.0,1
434,1.0,1.0,2.0,3.0,-8.0,-3.0,-3.0,0.0,1651069386788437.0,1
435,0.0,2.0,-4.0,-7.0,-2.0,-8.0,0.0,0.0,1651069386788437.0,1
436,0.0,0.0,-1.0,2.0,2.0,6.0,3.0,-1.0,1651069386789370.0,1
437,-2.0,-3.0,-4.0,-4.0,-8.0,-7.0,-4.0,-2.0,1651069386789370.0,1
438,-1.0,-1.0,1.0,1.0,-2.0,0.0,0.0,-2.0,1651069386802857.0,1
439,0.0,-2.0,-2.0,-2.0,-3.0,-5.0,-4.0,-2.0,1651069386802857.0,1
440,0.0,1.0,2.0,1.0,4.0,2.0,-1.0,-1.0,1651069386808866.0,1
441,0.0,-2.0,-1.0,-2.0,2.0,0.0,4.0,0.0,1651069386808866.0,1
442,-1.0,0.0,2.0,0.0,1.0,-2.0,1.0,1.0,1651069386825959.0,1
443,0.0,-2.0,-3.0,-1.0,3.0,6.0,0.0,0.0,1651069386825959.0,1
444,1.0,0.0,0.0,1.0,1.0,-1.0,0.0,4.0,1651069386826959.0,1
445,0.0,-1.0,2.0,-2.0,-1.0,-3.0,-3.0,-3.0,1651069386826959.0,1
446,-3.0,-2.0,-1.0,1.0,-3.0,-2.0,-3.0,-3.0,1651069386847426.0,1
447,3.0,2.0,0.0,-2.0,-2.0,1.0,3.0,6.0,1651069386847426.0,1
448,-2.0,-2.0,-3.0,-1.0,1.0,-1.0,-5.0,-7.0,1651069386848354.0,1
449,1.0,-1.0,-1.0,-2.0,-2.0,-2.0,-3.0,-2.0,1651069386848354.0,1
450,0.0,-1.0,-2.0,0.0,-2.0,-4.0,-2.0,-1.0,1651069386861506.0,1
451,-2.0,-1.0,0.0,0.0,2.0,5.0,1.0,-2.0,1651069386861506.0,1
452,-2.0,1.0,2.0,0.0,0.0,-1.0,-2.0,0.0,1651069386869482.0,1
453,-2.0,0.0,-1.0,-2.0,-2.0,-5.0,1.0,-1.0,1651069386869482.0,1
454,-1.0,2.0,1.0,0.0,2.0,0.0,-3.0,-2.0,1651069386885301.0,1
455,-1.0,0.0,-2.0,0.0,-1.0,4.0,2.0,2.0,1651069386885301.0,1
456,1.0,0.0,-1.0,0.0,0.0,-2.0,-1.0,2.0,1651069386885301.0,1
457,-1.0,0.0,-2.0,0.0,-3.0,-1.0,2.0,0.0,1651069386885301.0,1
458,2.0,-1.0,-1.0,1.0,1.0,1.0,0.0,2.0,1651069386907430.0,1
459,-3.0,-1.0,0.0,-2.0,-2.0,-3.0,-2.0,-5.0,1651069386907430.0,1
460,0.0,0.0,1.0,2.0,2.0,2.0,3.0,2.0,1651069386908386.0,1
461,0.0,0.0,0.0,0.0,-1.0,-2.0,-3.0,-1.0,1651069386908386.0,1
462,-2.0,-2.0,-1.0,-3.0,-7.0,-4.0,-4.0,-4.0,1651069386930405.0,1
463,-1.0,0.0,-1.0,-3.0,1.0,2.0,-1.0,-1.0,1651069386930405.0,1
464,0.0,-1.0,-2.0,-2.0,-1.0,-2.0,-3.0,-4.0,1651069386931365.0,1
465,0.0,0.0,-1.0,1.0,0.0,0.0,0.0,2.0,1651069386931365.0,1
466,1.0,0.0,-1.0,1.0,0.0,0.0,1.0,-1.0,1651069386945332.0,1
467,-2.0,-1.0,-1.0,1.0,-1.0,-1.0,0.0,-2.0,1651069386945332.0,1
468,-2.0,-2.0,0.0,-1.0,-1.0,0.0,2.0,1.0,1651069386945332.0,1
469,1.0,1.0,-2.0,-2.0,-2.0,-1.0,2.0,2.0,1651069386945332.0,1
470,-1.0,-1.0,-4.0,-2.0,0.0,-1.0,-1.0,0.0,1651069386967338.0,1
471,-1.0,1.0,3.0,0.0,2.0,-1.0,-3.0,0.0,1651069386967338.0,1
472,1.0,0.0,-1.0,2.0,1.0,3.0,-3.0,-1.0,1651069386968269.0,1
473,-2.0,0.0,-2.0,-1.0,-2.0,-2.0,1.0,0.0,1651069386968269.0,1
474,-1.0,-1.0,2.0,-2.0,-1.0,0.0,-1.0,-1.0,1651069386990897.0,1
475,0.0,-2.0,-4.0,-2.0,-2.0,-3.0,-1.0,0.0,1651069386990897.0,1
476,0.0,0.0,-1.0,-1.0,0.0,-1.0,-1.0,-1.0,1651069386991614.0,1
477,-3.0,-2.0,0.0,-1.0,1.0,-4.0,-2.0,-4.0,1651069386991614.0,1
478,-1.0,0.0,0.0,1.0,0.0,1.0,-1.0,1.0,1651069387004739.0,1
479,1.0,0.0,-2.0,-6.0,-16.0,-9.0,-1.0,-3.0,1651069387004739.0,1
480,-2.0,1.0,5.0,13.0,33.0,13.0,2.0,2.0,1651069387005790.0,1
481,1.0,0.0,-3.0,-6.0,-4.0,3.0,1.0,1.0,1651069387005790.0,1
482,0.0,0.0,2.0,-3.0,-8.0,-4.0,-1.0,-2.0,1651069387027757.0,1
483,-1.0,-1.0,-3.0,-1.0,4.0,4.0,0.0,-1.0,1651069387027757.0,1
484,0.0,1.0,-1.0,-4.0,-12.0,-7.0,0.0,1.0,1651069387027757.0,1
485,-1.0,-2.0,0.0,-1.0,-4.0,-6.0,-4.0,0.0,1651069387027757.0,1
486,0.0,0.0,-1.0,1.0,7.0,6.0,-1.0,-1.0,1651069387050731.0,1
487,0.0,-2.0,1.0,1.0,-1.0,-4.0,0.0,0.0,1651069387050731.0,1
488,-1.0,-1.0,-3.0,-3.0,-3.0,-1.0,-1.0,-2.0,1651069387051681.0,1
489,0.0,1.0,0.0,2.0,4.0,3.0,1.0,-1.0,1651069387051681.0,1
490,0.0,-1.0,-2.0,-4.0,-6.0,-6.0,-1.0,0.0,1651069387064627.0,1
491,-2.0,-1.0,-2.0,-3.0,-7.0,-1.0,-1.0,-2.0,1651069387064627.0,1
492,0.0,0.0,-3.0,0.0,6.0,2.0,-1.0,0.0,1651069387065722.0,1
493,-1.0,0.0,1.0,0.0,-1.0,0.0,-1.0,-1.0,1651069387065722.0,1
494,-2.0,0.0,0.0,0.0,-1.0,-1.0,0.0,-1.0,1651069387087749.0,1
495,-1.0,-1.0,-1.0,1.0,2.0,2.0,2.0,0.0,1651069387087749.0,1
496,-1.0,-1.0,-1.0,-3.0,-11.0,-4.0,-1.0,-1.0,1651069387087749.0,1
497,0.0,-1.0,-2.0,-3.0,-2.0,-3.0,-2.0,-1.0,1651069387087749.0,1
498,-1.0,-3.0,-1.0,1.0,1.0,0.0,-1.0,-2.0,1651069387110921.0,1
499,-1.0,-1.0,2.0,3.0,7.0,6.0,2.0,0.0,1651069387110921.0,1
500,0.0,-1.0,0.0,-3.0,-9.0,-4.0,0.0,-1.0,1651069387110921.0,1
501,0.0,0.0,1.0,1.0,5.0,2.0,-2.0,-1.0,1651069387110921.0,1
502,-3.0,-1.0,-4.0,-3.0,-5.0,-2.0,1.0,0.0,1651069387125349.0,1
503,0.0,0.0,-2.0,0.0,4.0,2.0,1.0,1.0,1651069387125349.0,1
504,0.0,0.0,1.0,-2.0,1.0,-3.0,0.0,-3.0,1651069387125470.0,1
505,0.0,-1.0,0.0,1.0,-1.0,0.0,-1.0,-1.0,1651069387125470.0,1
506,1.0,-1.0,-1.0,2.0,2.0,-3.0,-1.0,-1.0,1651069387147360.0,1
507,0.0,0.0,-1.0,-2.0,-1.0,1.0,-2.0,0.0,1651069387147360.0,1
508,-1.0,-1.0,0.0,-1.0,0.0,1.0,0.0,0.0,1651069387148318.0,1
509,-2.0,-2.0,0.0,-2.0,-3.0,-1.0,-1.0,-1.0,1651069387148318.0,1
510,0.0,0.0,2.0,-2.0,-5.0,-2.0,1.0,0.0,1651069387170947.0,1
511,-1.0,-1.0,-1.0,-1.0,2.0,1.0,-2.0,-1.0,1651069387170947.0,1
512,-1.0,-2.0,1.0,1.0,-5.0,1.0,-1.0,-1.0,1651069387171334.0,1
513,-1.0,-1.0,-3.0,1.0,11.0,0.0,0.0,0.0,1651069387171334.0,1
514,0.0,0.0,0.0,0.0,1.0,1.0,-1.0,-1.0,1651069387184465.0,1
515,-1.0,1.0,1.0,-2.0,-3.0,-4.0,-2.0,-2.0,1651069387184465.0,1
516,-1.0,-1.0,0.0,-1.0,-4.0,1.0,-1.0,1.0,1651069387185510.0,1
517,-1.0,0.0,0.0,-3.0,-9.0,-2.0,-1.0,-2.0,1651069387185510.0,1
518,1.0,-1.0,-1.0,1.0,4.0,3.0,-1.0,1.0,1651069387207743.0,1
519,-2.0,0.0,0.0,3.0,5.0,2.0,0.0,0.0,1651069387207743.0,1
520,-1.0,-1.0,-2.0,-3.0,-6.0,-3.0,1.0,0.0,1651069387207743.0,1
521,0.0,1.0,0.0,1.0,2.0,4.0,1.0,0.0,1651069387207743.0,1
522,-2.0,1.0,1.0,-2.0,0.0,1.0,1.0,1.0,1651069387221881.0,1
523,-1.0,-1.0,-1.0,-2.0,-2.0,-5.0,-2.0,0.0,1651069387221881.0,1
524,-1.0,-1.0,-1.0,2.0,2.0,3.0,-1.0,-2.0,1651069387229859.0,1
525,0.0,-1.0,-2.0,-1.0,0.0,-1.0,0.0,-1.0,1651069387229859.0,1
526,0.0,-1.0,1.0,1.0,0.0,-1.0,-2.0,0.0,1651069387244903.0,1
527,0.0,-1.0,0.0,-1.0,-3.0,-2.0,0.0,1.0,1651069387244903.0,1
528,0.0,1.0,-1.0,-1.0,2.0,2.0,-1.0,1.0,1651069387252776.0,1
529,0.0,0.0,0.0,-1.0,-3.0,-1.0,0.0,0.0,1651069387252776.0,1
530,-1.0,-1.0,-2.0,-2.0,-1.0,-1.0,1.0,-2.0,1651069387267709.0,1
531,0.0,-2.0,-1.0,-3.0,-4.0,-4.0,-3.0,-3.0,1651069387267709.0,1
532,0.0,-2.0,-3.0,-1.0,-2.0,0.0,-1.0,-1.0,1651069387267709.0,1
533,-2.0,0.0,0.0,0.0,0.0,1.0,0.0,-1.0,1651069387267709.0,1
534,0.0,0.0,0.0,2.0,5.0,4.0,1.0,0.0,1651069387281671.0,1
535,0.0,0.0,0.0,0.0,-2.0,0.0,0.0,-2.0,1651069387281671.0,1
536,-1.0,1.0,1.0,-1.0,-3.0,-3.0,1.0,-2.0,1651069387290330.0,1
537,1.0,-2.0,-1.0,-1.0,-5.0,-6.0,-2.0,-2.0,1651069387290330.0,1
538,0.0,1.0,-2.0,1.0,4.0,2.0,1.0,1.0,1651069387305346.0,1
539,-1.0,-1.0,0.0,-2.0,0.0,-1.0,0.0,-1.0,1651069387305346.0,1
540,0.0,1.0,1.0,1.0,-2.0,0.0,-2.0,0.0,1651069387305471.0,1
541,1.0,-2.0,-1.0,-1.0,-4.0,-2.0,-1.0,0.0,1651069387305471.0,1
542,-3.0,-1.0,0.0,0.0,7.0,1.0,0.0,-1.0,1651069387327428.0,1
543,-1.0,-2.0,1.0,0.0,0.0,-1.0,-2.0,-1.0,1651069387327428.0,1
544,-1.0,-2.0,-2.0,-1.0,-2.0,-4.0,1.0,-1.0,1651069387328358.0,1
545,1.0,-1.0,1.0,0.0,2.0,0.0,-1.0,1.0,1651069387328358.0,1
546,0.0,0.0,-1.0,-3.0,-7.0,-2.0,-2.0,-2.0,1651069387341389.0,1
547,0.0,0.0,0.0,1.0,-2.0,0.0,1.0,0.0,1651069387341389.0,1
548,0.0,-3.0,-4.0,-1.0,5.0,1.0,-1.0,-1.0,1651069387349369.0,1
549,-1.0,2.0,0.0,-2.0,-3.0,-1.0,-1.0,1.0,1651069387349369.0,1
550,0.0,0.0,0.0,-1.0,-2.0,2.0,-1.0,2.0,1651069387364394.0,1
551,-1.0,0.0,0.0,1.0,6.0,1.0,1.0,0.0,1651069387364394.0,1
552,-1.0,-1.0,-1.0,-1.0,0.0,1.0,-1.0,-2.0,1651069387365597.0,1
553,-1.0,0.0,-2.0,1.0,0.0,-3.0,-1.0,-1.0,1651069387365597.0,1
554,-1.0,-2.0,-2.0,-2.0,-8.0,-4.0,-2.0,-1.0,1651069387387428.0,1
555,-2.0,-1.0,0.0,-1.0,-1.0,0.0,-1.0,0.0,1651069387387428.0,1
556,-1.0,-2.0,0.0,-1.0,1.0,0.0,1.0,0.0,1651069387388388.0,1
557,0.0,-1.0,-1.0,0.0,0.0,0.0,0.0,-2.0,1651069387388388.0,1
558,0.0,0.0,1.0,1.0,1.0,0.0,-2.0,-2.0,1651069387401445.0,1
559,1.0,1.0,-3.0,1.0,-2.0,-2.0,-2.0,-1.0,1651069387401445.0,1
560,-1.0,0.0,-1.0,-2.0,1.0,-1.0,2.0,-1.0,1651069387409427.0,1
561,-1.0,-2.0,0.0,-1.0,-1.0,-1.0,0.0,0.0,1651069387409427.0,1
562,0.0,0.0,0.0,-1.0,-1.0,-1.0,1.0,0.0,1651069387425293.0,1
563,0.0,-2.0,-1.0,-1.0,0.0,-1.0,-2.0,-2.0,1651069387425293.0,1
564,0.0,-1.0,0.0,-1.0,-4.0,-4.0,-1.0,-1.0,1651069387425412.0,1
565,-2.0,0.0,-1.0,0.0,-1.0,0.0,-2.0,-1.0,1651069387425412.0,1
566,0.0,-1.0,-1.0,0.0,1.0,0.0,0.0,-1.0,1651069387447760.0,1
567,-1.0,0.0,-1.0,0.0,-4.0,-1.0,-1.0,-1.0,1651069387447760.0,1
568,-1.0,-1.0,0.0,0.0,1.0,-1.0,0.0,2.0,1651069387447760.0,1
569,-1.0,-2.0,-1.0,0.0,-2.0,-1.0,-1.0,-1.0,1651069387447760.0,1
570,1.0,-2.0,-1.0,-1.0,3.0,2.0,2.0,-1.0,1651069387470529.0,1
571,1.0,1.0,-1.0,-2.0,0.0,0.0,0.0,0.0,1651069387470529.0,1
572,-1.0,-1.0,0.0,0.0,-2.0,-1.0,0.0,-1.0,1651069387471521.0,1
573,-1.0,1.0,0.0,-1.0,-1.0,1.0,-1.0,-2.0,1651069387471521.0,1
574,-1.0,0.0,-2.0,-1.0,-5.0,-3.0,-1.0,0.0,1651069387484553.0,1
575,-1.0,0.0,0.0,-1.0,0.0,1.0,1.0,0.0,1651069387484553.0,1
576,1.0,-1.0,-1.0,-3.0,-2.0,-3.0,-3.0,-1.0,1651069387485545.0,1
577,0.0,1.0,0.0,1.0,8.0,3.0,4.0,2.0,1651069387485545.0,1
578,0.0,-1.0,0.0,-1.0,0.0,0.0,1.0,-1.0,1651069387507207.0,1
579,1.0,0.0,0.0,-1.0,-3.0,0.0,0.0,0.0,1651069387507207.0,1
580,-1.0,0.0,0.0,0.0,-2.0,-1.0,0.0,-1.0,1651069387508311.0,0
581,-1.0,-1.0,0.0,-1.0,-2.0,-2.0,-1.0,-2.0,1651069387508311.0,0
582,1.0,0.0,-1.0,-2.0,-1.0,0.0,-4.0,0.0,1651069387531468.0,0
583,-2.0,-2.0,-1.0,-2.0,-3.0,-1.0,0.0,-3.0,1651069387531468.0,0
584,-1.0,-1.0,0.0,-1.0,-1.0,-4.0,-2.0,-2.0,1651069387531468.0,0
585,-1.0,-1.0,-2.0,0.0,3.0,4.0,-3.0,0.0,1651069387531468.0,0
586,-1.0,1.0,2.0,1.0,1.0,0.0,0.0,0.0,1651069387544469.0,0
587,-1.0,2.0,0.0,1.0,-1.0,1.0,0.0,0.0,1651069387544469.0,0
588,-1.0,0.0,0.0,-1.0,1.0,1.0,0.0,1.0,1651069387545552.0,0
589,1.0,-1.0,0.0,-2.0,-2.0,-2.0,-1.0,1.0,1651069387545552.0,0
590,-1.0,0.0,-2.0,-3.0,-3.0,-2.0,-3.0,0.0,1651069387567681.0,0
591,-1.0,-1.0,-2.0,-1.0,1.0,0.0,-1.0,0.0,1651069387567681.0,0
592,0.0,2.0,0.0,2.0,-1.0,1.0,0.0,0.0,1651069387567681.0,0
593,-1.0,-1.0,-1.0,2.0,1.0,-1.0,-2.0,-1.0,1651069387567681.0,0
594,0.0,0.0,0.0,-1.0,-4.0,-4.0,-4.0,0.0,1651069387590345.0,0
595,0.0,-2.0,1.0,1.0,0.0,-4.0,-1.0,-1.0,1651069387590345.0,0
596,0.0,0.0,-1.0,0.0,5.0,6.0,3.0,1.0,1651069387591341.0,0
597,-2.0,-1.0,0.0,-3.0,-2.0,-2.0,0.0,-1.0,1651069387591341.0,0
598,-1.0,0.0,-3.0,2.0,-2.0,-1.0,0.0,-2.0,1651069387605020.0,0
599,-1.0,0.0,-2.0,-3.0,0.0,2.0,-1.0,-2.0,1651069387605020.0,0
600,0.0,-2.0,0.0,-1.0,-2.0,1.0,-2.0,-1.0,1651069387612390.0,0
601,-1.0,0.0,-1.0,0.0,-3.0,-2.0,1.0,0.0,1651069387612390.0,0
602,1.0,-2.0,1.0,0.0,-1.0,-2.0,-2.0,0.0,1651069387627464.0,0
603,-1.0,-2.0,-3.0,-3.0,-1.0,-3.0,-1.0,0.0,1651069387627464.0,0
604,0.0,-2.0,-1.0,1.0,0.0,-2.0,1.0,-1.0,1651069387628500.0,0
605,-2.0,-1.0,-1.0,-2.0,-1.0,-2.0,-2.0,0.0,1651069387628500.0,0
606,-2.0,0.0,0.0,-1.0,0.0,1.0,-1.0,0.0,1651069387650548.0,0
607,-1.0,1.0,1.0,1.0,0.0,0.0,-1.0,0.0,1651069387650548.0,0
608,1.0,0.0,-1.0,-2.0,-2.0,-1.0,-1.0,-1.0,1651069387651519.0,0
609,1.0,0.0,0.0,1.0,-4.0,-1.0,-3.0,-2.0,1651069387651519.0,0
610,0.0,0.0,-1.0,0.0,2.0,0.0,1.0,1.0,1651069387664978.0,0
611,0.0,-1.0,1.0,0.0,0.0,0.0,0.0,0.0,1651069387664978.0,0
612,1.0,-1.0,-1.0,-1.0,0.0,0.0,2.0,1.0,1651069387665998.0,0
613,0.0,-1.0,0.0,0.0,-1.0,-1.0,0.0,1.0,1651069387665998.0,0
614,0.0,0.0,1.0,0.0,-1.0,0.0,0.0,-1.0,1651069387687406.0,0
615,1.0,-2.0,-1.0,1.0,-1.0,-1.0,-2.0,-1.0,1651069387687406.0,0
616,-1.0,-3.0,0.0,-1.0,0.0,-3.0,-3.0,-1.0,1651069387688357.0,0
617,0.0,1.0,1.0,0.0,1.0,0.0,-1.0,-1.0,1651069387688357.0,0
618,-2.0,-1.0,-3.0,-1.0,2.0,1.0,2.0,-1.0,1651069387709681.0,0
619,-1.0,1.0,-3.0,-2.0,-1.0,-2.0,0.0,-1.0,1651069387709681.0,0
620,0.0,1.0,0.0,0.0,-1.0,2.0,-2.0,0.0,1651069387710638.0,0
621,0.0,1.0,0.0,1.0,1.0,3.0,0.0,0.0,1651069387710638.0,0
622,-1.0,0.0,-1.0,0.0,-4.0,-2.0,-2.0,-1.0,1651069387726672.0,0
623,-2.0,0.0,0.0,0.0,-3.0,-1.0,0.0,-1.0,1651069387726672.0,0
624,-1.0,0.0,-2.0,0.0,-3.0,-2.0,-2.0,-1.0,1651069387727668.0,0
625,0.0,-1.0,-1.0,0.0,-2.0,-1.0,0.0,0.0,1651069387727668.0,0
626,0.0,-1.0,0.0,-1.0,-1.0,-3.0,0.0,1.0,1651069387747750.0,0
627,-1.0,-1.0,-2.0,0.0,-1.0,-1.0,0.0,1.0,1651069387747750.0,0
628,-1.0,0.0,0.0,0.0,2.0,1.0,-2.0,1.0,1651069387747750.0,0
629,-1.0,-1.0,0.0,-1.0,0.0,0.0,1.0,-2.0,1651069387747750.0,0
630,-1.0,0.0,1.0,-1.0,-1.0,0.0,-1.0,-1.0,1651069387769864.0,0
631,1.0,-1.0,0.0,-1.0,-1.0,-1.0,-3.0,-1.0,1651069387769864.0,0
632,-1.0,0.0,-3.0,1.0,-1.0,-1.0,0.0,-1.0,1651069387770794.0,0
633,0.0,-1.0,-1.0,0.0,0.0,-1.0,-1.0,-2.0,1651069387770794.0,0
634,-2.0,-1.0,-1.0,0.0,0.0,-1.0,-1.0,-3.0,1651069387785027.0,0
635,1.0,2.0,-1.0,0.0,1.0,0.0,-2.0,-2.0,1651069387785027.0,0
636,0.0,1.0,0.0,-1.0,-1.0,-3.0,1.0,-3.0,1651069387785965.0,0
637,0.0,-1.0,-1.0,0.0,1.0,4.0,1.0,-1.0,1651069387785965.0,0
638,-1.0,1.0,-1.0,1.0,0.0,-1.0,-2.0,-2.0,1651069387807424.0,0
639,0.0,-1.0,1.0,-1.0,-2.0,0.0,-2.0,0.0,1651069387807424.0,0
640,-1.0,-1.0,1.0,-1.0,-1.0,-3.0,-1.0,0.0,1651069387808387.0,0
641,0.0,0.0,0.0,1.0,3.0,-1.0,-1.0,1.0,1651069387808387.0,0
642,0.0,-2.0,-2.0,-2.0,-1.0,1.0,0.0,1.0,1651069387829466.0,0
643,-1.0,-1.0,0.0,0.0,-2.0,-1.0,-2.0,0.0,1651069387829466.0,0
644,-1.0,-2.0,0.0,-1.0,-2.0,-2.0,-1.0,-1.0,1651069387830415.0,0
645,1.0,0.0,-1.0,1.0,-3.0,-2.0,-1.0,-1.0,1651069387830415.0,0
646,-2.0,-1.0,-2.0,1.0,2.0,3.0,0.0,0.0,1651069387845295.0,0
647,0.0,-3.0,-3.0,-1.0,0.0,0.0,2.0,0.0,1651069387845295.0,0
648,0.0,-1.0,-2.0,0.0,-1.0,2.0,0.0,-2.0,1651069387845434.0,0
649,-1.0,-1.0,0.0,-1.0,-2.0,-2.0,0.0,0.0,1651069387845434.0,0
650,0.0,-1.0,-1.0,-1.0,-1.0,-1.0,-1.0,-1.0,1651069387867676.0,0
651,0.0,-1.0,0.0,0.0,1.0,-1.0,3.0,-2.0,1651069387867676.0,0
652,-1.0,0.0,1.0,1.0,2.0,1.0,0.0,-1.0,1651069387867676.0,0
653,-3.0,1.0,-1.0,-3.0,-2.0,-1.0,-2.0,-1.0,1651069387867676.0,0
654,0.0,-1.0,2.0,-1.0,0.0,-1.0,-1.0,-1.0,1651069387889849.0,0
655,-1.0,-1.0,1.0,0.0,-1.0,0.0,-1.0,-1.0,1651069387889849.0,0
656,0.0,0.0,-1.0,-2.0,-2.0,-1.0,0.0,-2.0,1651069387890784.0,0
657,1.0,1.0,-1.0,1.0,-2.0,-1.0,-1.0,-1.0,1651069387890784.0,0
658,1.0,-1.0,2.0,0.0,1.0,-1.0,-2.0,1.0,1651069387904975.0,0
659,0.0,-1.0,-2.0,-1.0,2.0,4.0,2.0,0.0,1651069387904975.0,0
660,-1.0,-1.0,-1.0,-2.0,-2.0,0.0,0.0,1.0,1651069387906015.0,0
661,-2.0,0.0,-1.0,-1.0,-5.0,-5.0,-4.0,-2.0,1651069387906015.0,0
662,1.0,2.0,-2.0,-1.0,-5.0,-3.0,-1.0,0.0,1651069387927014.0,0
663,0.0,1.0,2.0,0.0,3.0,2.0,1.0,1.0,1651069387927014.0,0
664,0.0,-1.0,1.0,0.0,0.0,0.0,0.0,1.0,1651069387927940.0,0
665,-1.0,-3.0,-3.0,-4.0,0.0,-2.0,1.0,-1.0,1651069387927940.0,0
666,1.0,0.0,0.0,-1.0,-5.0,-2.0,-1.0,-3.0,1651069387949909.0,0
667,0.0,-1.0,0.0,-1.0,-1.0,-2.0,0.0,-3.0,1651069387949909.0,0
668,0.0,0.0,0.0,-2.0,-1.0,1.0,2.0,0.0,1651069387950880.0,0
669,-1.0,-1.0,-2.0,0.0,1.0,1.0,1.0,1.0,1651069387950880.0,0
670,0.0,-1.0,-1.0,-2.0,-1.0,1.0,1.0,0.0,1651069387964526.0,0
671,1.0,0.0,0.0,0.0,-2.0,1.0,0.0,1.0,1651069387964526.0,0
672,0.0,0.0,0.0,0.0,1.0,-1.0,-1.0,-1.0,1651069387965588.0,0
673,-2.0,1.0,-1.0,-1.0,0.0,1.0,0.0,-1.0,1651069387965588.0,0
674,0.0,0.0,0.0,0.0,1.0,0.0,-1.0,0.0,1651069387987195.0,0
675,-2.0,0.0,-1.0,-1.0,-1.0,-2.0,-2.0,-1.0,1651069387987195.0,0
676,-2.0,0.0,-1.0,-1.0,-5.0,-4.0,-4.0,0.0,1651069387988196.0,0
677,0.0,-1.0,0.0,0.0,0.0,0.0,0.0,0.0,1651069387988196.0,0
678,-2.0,-1.0,-1.0,1.0,4.0,3.0,3.0,1.0,1651069388010327.0,0
679,-1.0,-1.0,-2.0,-2.0,1.0,1.0,0.0,-1.0,1651069388010327.0,0
680,1.0,1.0,-1.0,-1.0,0.0,1.0,1.0,0.0,1651069388010327.0,0
681,1.0,-3.0,0.0,-2.0,-1.0,0.0,-1.0,-1.0,1651069388010327.0,0
682,-2.0,-1.0,-1.0,0.0,0.0,-1.0,-2.0,-2.0,1651069388025463.0,0
683,1.0,-2.0,-2.0,-1.0,-3.0,-4.0,-1.0,-1.0,1651069388025463.0,0
684,0.0,-1.0,0.0,0.0,2.0,1.0,0.0,0.0,1651069388025463.0,0
685,0.0,-1.0,0.0,1.0,1.0,2.0,0.0,-2.0,1651069388025463.0,0
686,-1.0,-2.0,1.0,0.0,-1.0,0.0,3.0,2.0,1651069388047430.0,0
687,-1.0,1.0,-1.0,0.0,0.0,0.0,0.0,1.0,1651069388047430.0,0
688,0.0,-2.0,-2.0,0.0,0.0,-1.0,0.0,-2.0,1651069388048368.0,0
689,0.0,0.0,-1.0,-1.0,-2.0,-2.0,-1.0,1.0,1651069388048368.0,0
690,0.0,-1.0,0.0,-2.0,-1.0,-2.0,0.0,0.0,1651069388069568.0,0
691,0.0,0.0,0.0,-3.0,-3.0,-1.0,-1.0,0.0,1651069388069568.0,0
692,-3.0,-2.0,-1.0,-1.0,3.0,1.0,0.0,2.0,1651069388070499.0,0
693,-1.0,-1.0,-3.0,0.0,-2.0,-3.0,1.0,-1.0,1651069388070499.0,0
694,0.0,-2.0,-2.0,-1.0,0.0,-1.0,-1.0,-1.0,1651069388084631.0,0
695,-1.0,0.0,0.0,-1.0,1.0,1.0,-2.0,-1.0,1651069388084631.0,0
696,0.0,0.0,0.0,0.0,0.0,-1.0,-1.0,-1.0,1651069388085730.0,0
697,0.0,-1.0,2.0,-1.0,0.0,3.0,1.0,0.0,1651069388085730.0,0
698,0.0,-1.0,0.0,-1.0,-1.0,-1.0,-1.0,-2.0,1651069388107750.0,0
699,0.0,-1.0,-1.0,0.0,-1.0,-2.0,0.0,-1.0,1651069388107750.0,0
700,-2.0,0.0,-2.0,0.0,-3.0,-1.0,-2.0,-2.0,1651069388107750.0,0
701,-1.0,0.0,0.0,0.0,0.0,1.0,0.0,1.0,1651069388107750.0,0
702,1.0,-2.0,-2.0,-1.0,-2.0,3.0,-2.0,-2.0,1651069388129473.0,0
703,-3.0,-2.0,-2.0,0.0,3.0,1.0,0.0,-1.0,1651069388129473.0,0
704,0.0,-2.0,-1.0,0.0,-1.0,0.0,-1.0,-2.0,1651069388130400.0,0
705,1.0,0.0,0.0,-1.0,-2.0,-1.0,-2.0,-1.0,1651069388130400.0,0
706,-1.0,2.0,0.0,-2.0,0.0,1.0,2.0,0.0,1651069388145143.0,0
707,-1.0,-1.0,-2.0,-1.0,-3.0,-2.0,-2.0,-2.0,1651069388145143.0,0
708,2.0,0.0,1.0,0.0,0.0,-3.0,-1.0,-1.0,1651069388145143.0,0
709,0.0,0.0,1.0,-1.0,-2.0,-4.0,-1.0,0.0,1651069388145143.0,0
710,1.0,0.0,0.0,1.0,2.0,1.0,-1.0,1.0,1651069388167355.0,0
711,0.0,0.0,0.0,-1.0,-2.0,1.0,0.0,-1.0,1651069388167355.0,0
712,0.0,-1.0,0.0,-2.0,-3.0,-3.0,-1.0,-2.0,1651069388168283.0,0
713,-1.0,1.0,-1.0,-1.0,1.0,-1.0,0.0,-2.0,1651069388168283.0,0
714,-2.0,1.0,-1.0,1.0,0.0,-2.0,-1.0,-1.0,1651069388190043.0,0
715,0.0,-1.0,-1.0,0.0,1.0,0.0,3.0,1.0,1651069388190043.0,0
716,1.0,-1.0,-2.0,0.0,0.0,2.0,-2.0,1.0,1651069388191044.0,0
717,-1.0,0.0,-1.0,-2.0,-1.0,-2.0,0.0,-1.0,1651069388191044.0,0
718,-3.0,-1.0,-2.0,-2.0,-1.0,-1.0,-2.0,0.0,1651069388204123.0,0
719,-2.0,-1.0,-1.0,1.0,-1.0,-1.0,-4.0,0.0,1651069388204123.0,0
720,-1.0,-1.0,3.0,-2.0,-1.0,-1.0,1.0,0.0,1651069388212032.0,0
721,-1.0,0.0,-1.0,1.0,2.0,3.0,0.0,-2.0,1651069388212032.0,0
722,-1.0,0.0,1.0,-1.0,-3.0,-4.0,-2.0,0.0,1651069388227434.0,0
723,1.0,1.0,-1.0,-1.0,-2.0,-3.0,-2.0,0.0,1651069388227434.0,0
724,0.0,-2.0,-1.0,-2.0,-2.0,2.0,0.0,1.0,1651069388228363.0,0
725,-1.0,-1.0,-2.0,0.0,-2.0,1.0,0.0,-1.0,1651069388228363.0,0
726,1.0,0.0,-1.0,-1.0,2.0,1.0,1.0,-1.0,1651069388249578.0,0
727,0.0,-1.0,0.0,-1.0,-2.0,-3.0,-1.0,-2.0,1651069388249578.0,0
728,-1.0,0.0,-1.0,-1.0,0.0,-2.0,-2.0,0.0,1651069388250514.0,0
729,0.0,0.0,1.0,-1.0,1.0,-2.0,-2.0,0.0,1651069388250514.0,0
730,-1.0,0.0,0.0,-1.0,-3.0,-1.0,1.0,0.0,1651069388264534.0,0
731,0.0,-3.0,-5.0,1.0,1.0,1.0,0.0,-2.0,1651069388264534.0,0
732,0.0,1.0,3.0,2.0,0.0,2.0,2.0,0.0,1651069388272507.0,0
733,0.0,-2.0,0.0,1.0,0.0,1.0,-2.0,-1.0,1651069388272507.0,0
734,-2.0,0.0,-1.0,-3.0,-7.0,-7.0,-3.0,-2.0,1651069388287627.0,0
735,-2.0,-1.0,-2.0,-2.0,5.0,4.0,2.0,-2.0,1651069388287627.0,0
736,0.0,-1.0,-2.0,-1.0,1.0,1.0,1.0,-1.0,1651069388288558.0,0
737,-2.0,-1.0,1.0,-4.0,-8.0,-3.0,-1.0,-1.0,1651069388288558.0,0
738,-1.0,0.0,2.0,2.0,3.0,4.0,1.0,-1.0,1651069388310303.0,0
739,0.0,2.0,2.0,0.0,-2.0,-3.0,1.0,1.0,1651069388310303.0,0
740,-2.0,0.0,-1.0,-2.0,1.0,-1.0,-2.0,-3.0,1651069388310303.0,0
741,-2.0,-3.0,-2.0,0.0,0.0,-1.0,-1.0,-1.0,1651069388310303.0,0
742,-2.0,-1.0,-2.0,1.0,-1.0,-2.0,0.0,0.0,1651069388324595.0,0
743,0.0,1.0,2.0,0.0,1.0,2.0,1.0,0.0,1651069388324595.0,0
744,-1.0,-1.0,1.0,1.0,0.0,0.0,-1.0,1.0,1651069388332342.0,0
745,1.0,2.0,2.0,4.0,1.0,-2.0,-1.0,0.0,1651069388332342.0,0
746,0.0,0.0,3.0,1.0,1.0,-2.0,-1.0,-2.0,1651069388347359.0,0
747,-2.0,-5.0,-8.0,-6.0,-3.0,-3.0,-2.0,-2.0,1651069388347359.0,0
748,2.0,5.0,11.0,2.0,-2.0,-1.0,3.0,0.0,1651069388348289.0,0
749,-3.0,-9.0,-20.0,-14.0,-7.0,-3.0,-5.0,-3.0,1651069388348289.0,0
750,3.0,0.0,3.0,5.0,2.0,0.0,0.0,3.0,1651069388369433.0,0
751,0.0,0.0,1.0,0.0,-2.0,2.0,0.0,-1.0,1651069388369433.0,0
752,2.0,3.0,8.0,6.0,-3.0,-4.0,-3.0,0.0,1651069388370363.0,0
753,0.0,0.0,0.0,-4.0,0.0,-1.0,1.0,1.0,1651069388370363.0,0
754,0.0,5.0,12.0,12.0,4.0,0.0,0.0,-3.0,1651069388384393.0,0
755,-3.0,-4.0,-14.0,-12.0,-5.0,-3.0,-1.0,-1.0,1651069388384393.0,0
756,-1.0,1.0,1.0,4.0,4.0,2.0,0.0,3.0,1651069388392455.0,0
757,2.0,2.0,4.0,2.0,-1.0,-3.0,-2.0,0.0,1651069388392455.0,0
758,0.0,-2.0,-5.0,-3.0,1.0,2.0,2.0,-1.0,1651069388407415.0,0
759,1.0,3.0,8.0,2.0,-1.0,1.0,0.0,3.0,1651069388407415.0,0
760,-1.0,-2.0,-4.0,-1.0,-2.0,-3.0,-2.0,-2.0,1651069388408345.0,0
761,0.0,-1.0,1.0,-1.0,1.0,0.0,-1.0,-1.0,1651069388408345.0,0
762,1.0,-2.0,-3.0,-8.0,-6.0,-3.0,-2.0,0.0,1651069388430308.0,0
763,1.0,1.0,3.0,7.0,4.0,1.0,-1.0,-1.0,1651069388430308.0,0
764,-2.0,-3.0,-4.0,-4.0,-2.0,1.0,-1.0,-1.0,1651069388430308.0,0
765,-3.0,-1.0,-1.0,11.0,13.0,4.0,0.0,-2.0,1651069388430308.0,0
766,-5.0,-10.0,-19.0,-23.0,-29.0,-15.0,-5.0,-3.0,1651069388444349.0,0
767,1.0,3.0,5.0,3.0,1.0,2.0,-3.0,-2.0,1651069388444349.0,2
768,2.0,1.0,1.0,-1.0,-2.0,1.0,0.0,3.0,1651069388452803.0,2
769,1.0,3.0,11.0,8.0,9.0,8.0,-1.0,-4.0,1651069388452803.0,2
770,0.0,-3.0,-5.0,-1.0,2.0,0.0,3.0,3.0,1651069388466916.0,2
771,-2.0,-2.0,-4.0,-5.0,-9.0,-7.0,0.0,0.0,1651069388466916.0,2
772,-1.0,-1.0,-1.0,6.0,5.0,-1.0,-7.0,-5.0,1651069388467914.0,2
773,-2.0,-1.0,-1.0,-12.0,-9.0,-1.0,-4.0,0.0,1651069388467914.0,2
774,3.0,7.0,14.0,15.0,13.0,7.0,-6.0,-2.0,1651069388489994.0,2
775,-2.0,-1.0,6.0,3.0,1.0,-5.0,2.0,-1.0,1651069388489994.0,2
776,2.0,0.0,-8.0,1.0,3.0,6.0,12.0,4.0,1651069388490952.0,2
777,-5.0,-7.0,-11.0,-2.0,-2.0,-4.0,-17.0,-12.0,1651069388490952.0,2
778,5.0,1.0,1.0,-8.0,-3.0,2.0,18.0,24.0,1651069388513154.0,2
779,-5.0,-2.0,2.0,5.0,-1.0,-8.0,-23.0,-11.0,1651069388513154.0,2
780,-2.0,-1.0,-4.0,-6.0,1.0,5.0,23.0,10.0,1651069388514158.0,2
781,2.0,3.0,0.0,-5.0,-13.0,-8.0,4.0,4.0,1651069388514158.0,2
782,-4.0,-6.0,-7.0,0.0,6.0,2.0,-14.0,-14.0,1651069388527171.0,2
783,-6.0,0.0,-4.0,3.0,-2.0,-12.0,-30.0,-13.0,1651069388527171.0,2
784,3.0,5.0,11.0,0.0,1.0,9.0,18.0,14.0,1651069388528111.0,2
785,-8.0,-8.0,-18.0,-21.0,-15.0,-3.0,11.0,6.0,1651069388528111.0,2
786,11.0,6.0,4.0,12.0,-2.0,1.0,13.0,17.0,1651069388558239.0,2
787,0.0,-2.0,-4.0,1.0,0.0,-1.0,-9.0,-7.0,1651069388558239.0,2
788,-9.0,-6.0,-10.0,1.0,9.0,3.0,5.0,-6.0,1651069388559201.0,2
789,2.0,7.0,15.0,1.0,-10.0,-1.0,16.0,6.0,1651069388559201.0,2
790,-8.0,-9.0,-23.0,-35.0,2.0,0.0,-16.0,-15.0,1651069388573443.0,2
791,-3.0,-15.0,-24.0,1.0,-12.0,-12.0,-11.0,-8.0,1651069388573443.0,2
792,-8.0,-1.0,-1.0,-13.0,-11.0,-18.0,-13.0,0.0,1651069388574211.0,2
793,3.0,3.0,4.0,-4.0,4.0,5.0,1.0,-3.0,1651069388574211.0,2
794,-2.0,3.0,16.0,15.0,11.0,2.0,-1.0,-10.0,1651069388587247.0,2
795,-1.0,6.0,3.0,-15.0,4.0,3.0,-1.0,-9.0,1651069388587247.0,2
796,2.0,-7.0,-7.0,12.0,6.0,3.0,-13.0,4.0,1651069388588177.0,2
797,8.0,-9.0,-13.0,-7.0,-10.0,-12.0,0.0,0.0,1651069388588177.0,2
798,1.0,8.0,6.0,18.0,-10.0,-5.0,-2.0,0.0,1651069388610275.0,2
799,-26.0,-6.0,4.0,-15.0,-4.0,5.0,-4.0,-9.0,1651069388610275.0,2
800,43.0,10.0,0.0,13.0,13.0,7.0,5.0,11.0,1651069388610275.0,2
801,-48.0,11.0,-5.0,-17.0,-22.0,-19.0,-28.0,-43.0,1651069388610275.0,2
802,-19.0,-8.0,5.0,14.0,8.0,10.0,24.0,8.0,1651069388633477.0,2
803,16.0,-1.0,-1.0,4.0,13.0,5.0,4.0,21.0,1651069388633477.0,2
804,-25.0,22.0,19.0,-21.0,-8.0,3.0,15.0,-3.0,1651069388633477.0,2
805,-36.0,-20.0,-4.0,63.0,26.0,6.0,-4.0,-3.0,1651069388633477.0,2
806,45.0,-11.0,-8.0,-27.0,-17.0,-14.0,-14.0,18.0,1651069388647347.0,2
807,-72.0,15.0,14.0,32.0,9.0,4.0,-11.0,-27.0,1651069388647347.0,2
808,17.0,15.0,5.0,-9.0,-13.0,-3.0,2.0,2.0,1651069388648288.0,2
809,17.0,-24.0,-20.0,-24.0,5.0,5.0,13.0,18.0,1651069388648288.0,2
810,-4.0,18.0,9.0,42.0,19.0,6.0,-21.0,-23.0,1651069388670289.0,2
811,20.0,-21.0,1.0,-24.0,-1.0,3.0,9.0,14.0,1651069388670289.0,2
812,29.0,-17.0,-62.0,-54.0,-24.0,-1.0,11.0,25.0,1651069388671227.0,2
813,41.0,37.0,71.0,71.0,45.0,17.0,3.0,-2.0,1651069388671227.0,2
814,-11.0,-23.0,3.0,-3.0,-9.0,-4.0,-6.0,-1.0,1651069388693375.0,2
815,25.0,6.0,-6.0,10.0,1.0,4.0,14.0,12.0,1651069388693375.0,2
816,-2.0,-12.0,-9.0,22.0,14.0,-2.0,-24.0,-30.0,1651069388693375.0,2
817,19.0,0.0,0.0,-6.0,-13.0,-3.0,1.0,12.0,1651069388693375.0,2
818,15.0,4.0,-1.0,-33.0,-4.0,0.0,2.0,1.0,1651069388707381.0,2
819,8.0,3.0,5.0,28.0,14.0,9.0,13.0,-4.0,1651069388707381.0,2
820,3.0,-6.0,14.0,14.0,-15.0,-11.0,-9.0,-1.0,1651069388708312.0,2
821,-25.0,-23.0,-36.0,-38.0,-4.0,1.0,2.0,2.0,1651069388708312.0,2
822,-13.0,10.0,12.0,-5.0,13.0,8.0,3.0,-5.0,1651069388729378.0,2
823,4.0,15.0,-2.0,-17.0,-27.0,-15.0,-5.0,-12.0,1651069388729378.0,2
824,-57.0,-11.0,-5.0,14.0,9.0,-8.0,-5.0,-18.0,1651069388730352.0,2
825,20.0,14.0,18.0,6.0,-1.0,-1.0,-16.0,-9.0,1651069388730352.0,2
826,-31.0,-5.0,-21.0,-24.0,-21.0,6.0,55.0,31.0,1651069388753418.0,2
827,13.0,0.0,8.0,-8.0,-5.0,2.0,22.0,18.0,1651069388753418.0,2
828,-38.0,-25.0,-16.0,9.0,10.0,5.0,2.0,-13.0,1651069388753993.0,2
829,39.0,14.0,17.0,9.0,-5.0,-3.0,7.0,10.0,1651069388753993.0,2
830,-7.0,10.0,11.0,12.0,4.0,-5.0,-22.0,-17.0,1651069388767029.0,2
831,-7.0,-24.0,-30.0,-38.0,-18.0,0.0,10.0,9.0,1651069388767029.0,2
832,8.0,-4.0,26.0,3.0,5.0,-5.0,-15.0,0.0,1651069388767958.0,2
833,-26.0,-12.0,-39.0,-42.0,-15.0,-8.0,-35.0,-28.0,1651069388767958.0,2
834,18.0,6.0,20.0,47.0,13.0,5.0,21.0,17.0,1651069388790248.0,2
835,14.0,0.0,-28.0,-47.0,-19.0,-14.0,-30.0,-13.0,1651069388790248.0,2
836,-34.0,11.0,27.0,18.0,6.0,13.0,41.0,9.0,1651069388791027.0,2
837,-29.0,-3.0,7.0,-3.0,-12.0,-3.0,-10.0,-14.0,1651069388791027.0,2
838,25.0,5.0,0.0,8.0,7.0,2.0,-4.0,2.0,1651069388813496.0,2
839,2.0,3.0,2.0,3.0,-3.0,-2.0,2.0,10.0,1651069388813496.0,2
840,28.0,2.0,0.0,-20.0,-13.0,-7.0,-19.0,-10.0,1651069388813496.0,2
841,-8.0,5.0,-1.0,-4.0,4.0,3.0,1.0,-15.0,1651069388813496.0,2
842,-64.0,-21.0,-11.0,1.0,2.0,-3.0,3.0,-15.0,1651069388835556.0,2
843,8.0,15.0,29.0,27.0,8.0,9.0,30.0,21.0,1651069388835556.0,2
844,8.0,9.0,-20.0,-19.0,-4.0,-5.0,-24.0,-6.0,1651069388836554.0,2
845,13.0,5.0,32.0,14.0,7.0,13.0,49.0,31.0,1651069388836554.0,2
846,7.0,-6.0,-23.0,-17.0,-9.0,-13.0,-28.0,-18.0,1651069388849587.0,2
847,28.0,9.0,29.0,23.0,15.0,-1.0,-21.0,-15.0,1651069388849587.0,2
848,-1.0,-2.0,1.0,-1.0,-6.0,-1.0,4.0,-2.0,1651069388850516.0,2
849,10.0,10.0,-24.0,-9.0,4.0,0.0,7.0,14.0,1651069388850516.0,2
850,9.0,3.0,5.0,-12.0,-17.0,-4.0,3.0,4.0,1651069388873478.0,2
851,-42.0,-5.0,-4.0,17.0,10.0,2.0,2.0,-1.0,1651069388873478.0,2
852,7.0,4.0,12.0,12.0,-12.0,-8.0,-30.0,-22.0,1651069388873478.0,2
853,7.0,-4.0,-17.0,-2.0,5.0,7.0,7.0,13.0,1651069388873478.0,2
854,2.0,1.0,-5.0,1.0,15.0,3.0,-7.0,-15.0,1651069388887509.0,2
855,4.0,15.0,21.0,-7.0,4.0,4.0,17.0,5.0,1651069388887509.0,2
856,2.0,-6.0,19.0,12.0,5.0,-1.0,-13.0,-2.0,1651069388888440.0,2
857,-1.0,-2.0,-15.0,-6.0,-1.0,0.0,11.0,12.0,1651069388888440.0,2
858,-21.0,-17.0,-22.0,-29.0,-8.0,0.0,-8.0,-10.0,1651069388910276.0,2
859,22.0,-4.0,-2.0,5.0,-1.0,-2.0,-9.0,4.0,1651069388910276.0,2
860,-15.0,-1.0,-12.0,-15.0,-8.0,-4.0,3.0,-1.0,1651069388910276.0,2
861,18.0,3.0,0.0,29.0,10.0,-1.0,-11.0,-3.0,1651069388910276.0,2
862,-54.0,-4.0,14.0,-18.0,-9.0,-3.0,2.0,1.0,1651069388932749.0,2
863,42.0,-2.0,-4.0,-2.0,-4.0,0.0,4.0,10.0,1651069388932749.0,2
864,2.0,-6.0,-11.0,2.0,6.0,1.0,-5.0,-12.0,1651069388933677.0,2
865,-7.0,7.0,13.0,16.0,17.0,9.0,3.0,26.0,1651069388933677.0,2
866,24.0,2.0,-20.0,-8.0,-17.0,-9.0,0.0,4.0,1651069388947719.0,2
867,-12.0,-4.0,-5.0,-10.0,-1.0,7.0,23.0,13.0,1651069388947719.0,2
868,-17.0,-9.0,-1.0,2.0,1.0,1.0,-3.0,-3.0,1651069388947719.0,2
869,4.0,6.0,20.0,3.0,2.0,4.0,3.0,-5.0,1651069388947719.0,2
870,19.0,-3.0,-10.0,-3.0,2.0,-5.0,-19.0,-6.0,1651069388970192.0,2
871,-23.0,-2.0,-11.0,5.0,1.0,4.0,16.0,16.0,1651069388970192.0,2
872,42.0,9.0,5.0,0.0,7.0,2.0,3.0,14.0,1651069388970673.0,2
873,-7.0,-6.0,2.0,-9.0,-7.0,-4.0,-13.0,-13.0,1651069388970673.0,2
874,16.0,2.0,-13.0,-1.0,-8.0,-1.0,-3.0,7.0,1651069388993226.0,2
875,-6.0,6.0,4.0,-1.0,3.0,-4.0,-11.0,-20.0,1651069388993226.0,2
876,-1.0,6.0,11.0,5.0,14.0,6.0,3.0,1.0,1651069388993226.0,2
877,-8.0,-8.0,-13.0,-9.0,-16.0,-10.0,-7.0,-3.0,1651069388993226.0,2
878,6.0,10.0,20.0,1.0,1.0,6.0,12.0,14.0,1651069389007258.0,2
879,-7.0,-10.0,-11.0,1.0,-6.0,-6.0,-11.0,-10.0,1651069389007258.0,2
880,1.0,0.0,-27.0,-4.0,-2.0,0.0,10.0,11.0,1651069389008188.0,2
881,-26.0,-7.0,37.0,8.0,4.0,-5.0,3.0,-9.0,1651069389008188.0,2
882,-4.0,-2.0,-12.0,-5.0,-5.0,-3.0,-3.0,-9.0,1651069389029366.0,2
883,-3.0,0.0,14.0,31.0,16.0,6.0,8.0,-1.0,1651069389029366.0,2
884,3.0,-6.0,-13.0,-10.0,-11.0,-4.0,9.0,14.0,1651069389030373.0,2
885,-8.0,7.0,-6.0,2.0,-2.0,-2.0,-7.0,-8.0,1651069389030373.0,2
886,18.0,-4.0,0.0,5.0,3.0,0.0,14.0,17.0,1651069389052583.0,2
887,-1.0,0.0,8.0,8.0,5.0,0.0,-14.0,-6.0,1651069389052583.0,2
888,-27.0,-1.0,19.0,6.0,-3.0,-2.0,-8.0,-2.0,1651069389053514.0,2
889,28.0,-4.0,-38.0,-17.0,-5.0,4.0,11.0,18.0,1651069389053514.0,2
890,7.0,12.0,30.0,11.0,9.0,9.0,15.0,2.0,1651069389067543.0,2
891,2.0,-4.0,-35.0,-1.0,0.0,-4.0,-4.0,0.0,1651069389067543.0,2
892,3.0,2.0,20.0,-7.0,-2.0,-4.0,-6.0,0.0,1651069389068502.0,2
893,1.0,-8.0,-22.0,-2.0,-5.0,-3.0,2.0,-3.0,1651069389068502.0,2
894,0.0,0.0,17.0,10.0,4.0,-4.0,-17.0,-10.0,1651069389089962.0,2
895,-8.0,-3.0,-10.0,-21.0,-2.0,6.0,22.0,10.0,1651069389089962.0,2
896,2.0,2.0,-6.0,-2.0,1.0,-3.0,-8.0,-5.0,1651069389090962.0,2
897,-1.0,-3.0,2.0,-15.0,-12.0,-8.0,-4.0,0.0,1651069389090962.0,2
898,-12.0,-2.0,-12.0,20.0,6.0,-3.0,-16.0,-17.0,1651069389120913.0,2
899,-29.0,-4.0,-1.0,-11.0,-11.0,-3.0,8.0,5.0,1651069389120913.0,2
900,6.0,0.0,0.0,4.0,2.0,2.0,2.0,1.0,1651069389120913.0,2
901,2.0,8.0,17.0,7.0,1.0,-2.0,-11.0,-17.0,1651069389120913.0,2
902,6.0,-5.0,-14.0,-14.0,-4.0,-4.0,3.0,5.0,1651069389126830.0,2
903,4.0,0.0,8.0,-7.0,-7.0,-4.0,1.0,2.0,1651069389126830.0,2
904,-7.0,-4.0,12.0,7.0,-4.0,-7.0,-1.0,-2.0,1651069389134809.0,2
905,1.0,-4.0,-26.0,-9.0,6.0,10.0,8.0,4.0,1651069389134809.0,2
906,-14.0,3.0,7.0,19.0,3.0,-3.0,-12.0,-11.0,1651069389149837.0,2
907,19.0,2.0,2.0,-13.0,-7.0,-4.0,-28.0,-17.0,1651069389149837.0,2
908,22.0,4.0,-22.0,-14.0,-5.0,1.0,8.0,10.0,1651069389150766.0,2
909,-8.0,2.0,40.0,10.0,-1.0,-4.0,-2.0,-6.0,1651069389150766.0,2
910,0.0,-1.0,-1.0,-2.0,2.0,0.0,3.0,4.0,1651069389173417.0,2
911,0.0,-3.0,-6.0,12.0,1.0,-2.0,-12.0,-8.0,1651069389173417.0,2
912,3.0,1.0,3.0,4.0,3.0,1.0,3.0,-3.0,1651069389173721.0,2
913,1.0,-2.0,-8.0,-3.0,-2.0,1.0,1.0,4.0,1651069389173721.0,2
914,4.0,-3.0,1.0,-4.0,-9.0,-5.0,-20.0,-16.0,1651069389186756.0,2
915,0.0,-2.0,4.0,-5.0,1.0,-1.0,1.0,-4.0,1651069389186756.0,2
916,-3.0,-6.0,-14.0,-7.0,-11.0,-5.0,-2.0,-4.0,1651069389194822.0,2
917,-11.0,-2.0,7.0,5.0,5.0,3.0,5.0,4.0,1651069389194822.0,2
918,-23.0,-4.0,-9.0,-3.0,3.0,0.0,1.0,-2.0,1651069389209878.0,2
919,4.0,2.0,0.0,-5.0,-1.0,0.0,2.0,5.0,1651069389209878.0,2
920,-7.0,-2.0,-3.0,-4.0,-8.0,-4.0,0.0,-4.0,1651069389210808.0,2
921,10.0,0.0,7.0,10.0,4.0,-2.0,-3.0,5.0,1651069389210808.0,2
922,7.0,-1.0,-8.0,-21.0,-3.0,2.0,10.0,7.0,1651069389233527.0,2
923,-6.0,-3.0,0.0,3.0,-6.0,-1.0,-4.0,-2.0,1651069389233527.0,2
924,4.0,3.0,14.0,1.0,2.0,2.0,2.0,7.0,1651069389233527.0,2
925,-11.0,-8.0,-25.0,-11.0,1.0,2.0,2.0,-3.0,1651069389233527.0,2
926,8.0,4.0,3.0,9.0,-4.0,-3.0,1.0,-2.0,1651069389246552.0,2
927,6.0,1.0,9.0,-4.0,-6.0,-2.0,6.0,6.0,1651069389246552.0,2
928,-7.0,-1.0,6.0,11.0,2.0,-3.0,-19.0,-15.0,1651069389254578.0,2
929,8.0,-2.0,-7.0,-3.0,1.0,0.0,12.0,15.0,1651069389254578.0,2
930,0.0,-1.0,5.0,-6.0,5.0,1.0,-12.0,-5.0,1651069389277809.0,2
931,-3.0,2.0,-4.0,-2.0,-2.0,-1.0,-6.0,-6.0,1651069389277809.0,2
932,-3.0,3.0,1.0,1.0,0.0,3.0,2.0,-5.0,1651069389278739.0,2
933,-2.0,-3.0,-4.0,-8.0,-4.0,-6.0,-14.0,-9.0,1651069389278739.0,2
934,6.0,5.0,7.0,20.0,3.0,1.0,3.0,3.0,1651069389293451.0,2
935,-2.0,-4.0,-10.0,-17.0,-11.0,0.0,15.0,9.0,1651069389293451.0,2
936,-1.0,-1.0,-3.0,5.0,12.0,7.0,10.0,4.0,1651069389293451.0,2
937,3.0,0.0,3.0,2.0,-4.0,-1.0,-8.0,-8.0,1651069389293451.0,2
938,0.0,-5.0,-7.0,-6.0,-1.0,-4.0,-1.0,-1.0,1651069389306485.0,2
939,2.0,2.0,-1.0,2.0,1.0,1.0,1.0,2.0,1651069389306485.0,2
940,-5.0,1.0,-2.0,-9.0,-2.0,0.0,1.0,-1.0,1651069389315079.0,2
941,17.0,0.0,4.0,14.0,0.0,-4.0,-14.0,0.0,1651069389315079.0,2
942,0.0,2.0,10.0,10.0,2.0,1.0,0.0,2.0,1651069389329973.0,2
943,9.0,2.0,-11.0,8.0,5.0,0.0,2.0,3.0,1651069389329973.0,2
944,0.0,-4.0,-5.0,-12.0,-5.0,-3.0,-4.0,-5.0,1651069389330972.0,2
945,-9.0,-1.0,1.0,1.0,4.0,0.0,-4.0,-4.0,1651069389330972.0,2
946,10.0,3.0,-3.0,-9.0,-1.0,8.0,25.0,22.0,1651069389353450.0,2
947,-2.0,1.0,6.0,-1.0,1.0,2.0,3.0,2.0,1651069389353450.0,2
948,-10.0,-2.0,14.0,17.0,7.0,-1.0,-1.0,-1.0,1651069389353450.0,2
949,2.0,4.0,-7.0,-13.0,-8.0,-5.0,-2.0,-6.0,1651069389353450.0,2
950,-1.0,-7.0,-13.0,0.0,1.0,-2.0,2.0,2.0,1651069389366484.0,2
951,2.0,-4.0,-36.0,4.0,10.0,8.0,11.0,2.0,1651069389366484.0,2
952,3.0,8.0,45.0,14.0,-5.0,-1.0,1.0,4.0,1651069389374397.0,2
953,1.0,2.0,3.0,-18.0,-7.0,-1.0,-1.0,-4.0,1651069389374397.0,2
954,-4.0,-3.0,-10.0,-14.0,-3.0,-1.0,-2.0,-3.0,1651069389390539.0,2
955,0.0,0.0,12.0,13.0,4.0,-4.0,-10.0,-1.0,1651069389390539.0,2
956,1.0,-3.0,-21.0,-11.0,-4.0,-4.0,-7.0,-11.0,1651069389391505.0,2
957,-1.0,-3.0,-4.0,9.0,-3.0,5.0,32.0,25.0,1651069389391505.0,2
958,2.0,-4.0,2.0,7.0,-5.0,-1.0,2.0,-5.0,1651069389412602.0,2
959,-12.0,-6.0,11.0,-17.0,-9.0,-5.0,-9.0,-9.0,1651069389412602.0,2
960,2.0,-1.0,-21.0,-4.0,-1.0,1.0,-1.0,1.0,1651069389413532.0,2
961,-6.0,3.0,15.0,1.0,2.0,0.0,-9.0,-10.0,1651069389413532.0,2
962,2.0,-3.0,-28.0,-2.0,-3.0,-4.0,-7.0,-9.0,1651069389426564.0,2
963,4.0,6.0,37.0,10.0,6.0,7.0,21.0,12.0,1651069389426564.0,2
964,-4.0,-1.0,-10.0,0.0,0.0,-6.0,-4.0,2.0,1651069389435316.0,2
965,2.0,2.0,3.0,-1.0,1.0,2.0,-2.0,-5.0,1651069389435316.0,2
966,1.0,8.0,27.0,11.0,8.0,6.0,23.0,15.0,1651069389450248.0,2
967,-3.0,-6.0,-34.0,-13.0,-2.0,-3.0,-10.0,-9.0,1651069389450248.0,2
968,5.0,-1.0,2.0,-2.0,0.0,3.0,8.0,2.0,1651069389450248.0,2
969,2.0,0.0,-1.0,-4.0,0.0,0.0,6.0,9.0,1651069389450248.0,2
970,-3.0,1.0,1.0,-11.0,-7.0,1.0,-5.0,-7.0,1651069389473762.0,2
971,-1.0,4.0,14.0,7.0,3.0,1.0,-2.0,2.0,1651069389473762.0,2
972,2.0,2.0,-9.0,1.0,2.0,3.0,5.0,3.0,1651069389474708.0,2
973,-5.0,-4.0,-6.0,1.0,-5.0,-6.0,-2.0,0.0,1651069389474708.0,2
974,5.0,3.0,4.0,2.0,-3.0,-3.0,-2.0,-10.0,1651069389502827.0,2
975,-13.0,-2.0,-2.0,-4.0,-4.0,-6.0,-13.0,6.0,1651069389502827.0,2
976,6.0,-8.0,-20.0,-15.0,-12.0,-4.0,-2.0,-5.0,1651069389503828.0,2
977,-9.0,-7.0,-8.0,-3.0,-2.0,-8.0,-24.0,-14.0,1651069389503828.0,2
978,11.0,8.0,15.0,12.0,7.0,12.0,38.0,26.0,1651069389509838.0,2
979,-6.0,-6.0,-21.0,-21.0,-2.0,-4.0,-10.0,-10.0,1651069389509838.0,2
980,0.0,2.0,0.0,-2.0,-3.0,-2.0,1.0,5.0,1651069389510835.0,2
981,-2.0,-3.0,15.0,10.0,1.0,-2.0,-6.0,-5.0,1651069389510835.0,2
982,-3.0,0.0,-1.0,1.0,1.0,-7.0,-20.0,-9.0,1651069389533441.0,2
983,6.0,0.0,6.0,4.0,-2.0,3.0,3.0,-3.0,1651069389533441.0,2
984,-2.0,-5.0,-11.0,-8.0,2.0,1.0,2.0,6.0,1651069389533986.0,2
985,2.0,-2.0,4.0,-3.0,-1.0,0.0,-2.0,-8.0,1651069389533986.0,2
986,-5.0,-5.0,-5.0,0.0,0.0,-3.0,-10.0,3.0,1651069389555929.0,2
987,4.0,1.0,2.0,5.0,-2.0,-2.0,2.0,1.0,1651069389555929.0,2
988,-3.0,1.0,-1.0,-6.0,1.0,2.0,-6.0,-4.0,1651069389555929.0,2
989,-1.0,2.0,11.0,10.0,0.0,0.0,7.0,9.0,1651069389555929.0,2
990,-3.0,-4.0,-21.0,-27.0,-3.0,-4.0,-7.0,-4.0,1651069389569960.0,2
991,3.0,3.0,4.0,2.0,-2.0,-1.0,-3.0,-4.0,1651069389569960.0,2
992,1.0,-1.0,1.0,-2.0,-2.0,-1.0,8.0,4.0,1651069389570910.0,2
993,3.0,1.0,-7.0,-7.0,4.0,5.0,9.0,14.0,1651069389570910.0,2
994,3.0,2.0,12.0,17.0,-5.0,-4.0,-4.0,-7.0,1651069389593391.0,2
995,2.0,2.0,0.0,6.0,5.0,1.0,1.0,-2.0,1651069389593391.0,2
996,-3.0,-1.0,-1.0,-12.0,-5.0,-4.0,-9.0,-7.0,1651069389593912.0,2
997,2.0,0.0,2.0,-3.0,1.0,-1.0,6.0,0.0,1651069389593912.0,2
998,-5.0,-3.0,-11.0,-8.0,0.0,3.0,-10.0,-3.0,1651069389615948.0,2
999,-3.0,-2.0,-2.0,-1.0,-2.0,1.0,13.0,7.0,1651069389615948.0,2
1000,2.0,1.0,6.0,18.0,4.0,-3.0,-7.0,-7.0,1651069389615948.0,2
1001,-5.0,4.0,2.0,1.0,3.0,4.0,1.0,3.0,1651069389615948.0,2
1002,-4.0,-4.0,-3.0,-4.0,-2.0,0.0,-4.0,-10.0,1651069389629885.0,2
1003,6.0,3.0,6.0,-1.0,-6.0,-4.0,0.0,2.0,1651069389629885.0,2
1004,-2.0,-1.0,3.0,9.0,3.0,2.0,1.0,6.0,1651069389630823.0,2
1005,-2.0,-1.0,-9.0,-6.0,-3.0,-2.0,-2.0,-9.0,1651069389630823.0,2
1006,-2.0,0.0,1.0,-1.0,0.0,-1.0,-2.0,8.0,1651069389653081.0,2
1007,2.0,-1.0,1.0,8.0,6.0,9.0,-4.0,-4.0,1651069389653081.0,2
1008,5.0,8.0,10.0,12.0,3.0,-2.0,0.0,0.0,1651069389654079.0,2
1009,-2.0,-4.0,-7.0,-2.0,-4.0,-4.0,-9.0,-7.0,1651069389654079.0,2
1010,4.0,2.0,2.0,0.0,1.0,1.0,4.0,2.0,1651069389675946.0,2
1011,-2.0,-1.0,0.0,3.0,-4.0,-6.0,-5.0,1.0,1651069389675946.0,2
1012,-1.0,-1.0,-1.0,-7.0,3.0,3.0,9.0,7.0,1651069389675946.0,2
1013,-1.0,-3.0,-4.0,-5.0,-4.0,-3.0,-7.0,-6.0,1651069389675946.0,2
1014,-1.0,-3.0,-4.0,-3.0,-2.0,1.0,7.0,3.0,1651069389690183.0,2
1015,1.0,-1.0,2.0,2.0,8.0,5.0,5.0,5.0,1651069389690183.0,2
1016,-6.0,-2.0,-3.0,-5.0,-10.0,-6.0,-21.0,-16.0,1651069389690826.0,2
1017,6.0,2.0,6.0,6.0,0.0,2.0,9.0,10.0,1651069389690826.0,2
1018,-20.0,-2.0,4.0,-2.0,-2.0,-4.0,-16.0,-19.0,1651069389713416.0,2
1019,9.0,4.0,0.0,7.0,6.0,5.0,18.0,18.0,1651069389713416.0,2
1020,-5.0,-5.0,-14.0,0.0,-2.0,0.0,-4.0,-2.0,1651069389713749.0,2
1021,-4.0,1.0,16.0,3.0,1.0,-3.0,-16.0,-13.0,1651069389713749.0,2
1022,2.0,0.0,5.0,4.0,3.0,4.0,7.0,5.0,1651069389735861.0,2
1023,-2.0,-2.0,-12.0,-4.0,-5.0,-6.0,0.0,-7.0,1651069389735861.0,2
1024,1.0,-1.0,-1.0,3.0,3.0,1.0,8.0,6.0,1651069389735861.0,2
1025,-1.0,0.0,-9.0,-6.0,1.0,3.0,2.0,3.0,1651069389735861.0,2
1026,4.0,0.0,1.0,1.0,0.0,-3.0,-2.0,-1.0,1651069389750216.0,2
1027,-2.0,0.0,9.0,0.0,1.0,2.0,-8.0,-7.0,1651069389750216.0,2
1028,3.0,-2.0,-5.0,-1.0,2.0,-2.0,1.0,5.0,1651069389750933.0,2
1029,1.0,1.0,-3.0,-1.0,-4.0,4.0,14.0,5.0,1651069389750933.0,2
1030,1.0,1.0,6.0,2.0,2.0,-2.0,-4.0,-4.0,1651069389772764.0,2
1031,-3.0,-3.0,-5.0,-4.0,-4.0,-3.0,-6.0,-4.0,1651069389772764.0,2
1032,-2.0,0.0,0.0,-2.0,3.0,2.0,3.0,1.0,1651069389773694.0,2
1033,1.0,-1.0,3.0,3.0,-1.0,0.0,-2.0,-4.0,1651069389773694.0,2
1034,2.0,1.0,-2.0,-2.0,1.0,1.0,1.0,5.0,1651069389795922.0,2
1035,-4.0,-5.0,-5.0,-6.0,-4.0,-3.0,-8.0,-5.0,1651069389795922.0,2
1036,-1.0,1.0,7.0,5.0,2.0,0.0,-1.0,1.0,1651069389795922.0,2
1037,1.0,1.0,-3.0,-4.0,-3.0,1.0,7.0,4.0,1651069389795922.0,2
1038,1.0,-1.0,-5.0,-4.0,-2.0,-2.0,0.0,-3.0,1651069389810276.0,2
1039,0.0,1.0,0.0,2.0,0.0,0.0,5.0,8.0,1651069389810276.0,2
1040,-2.0,-3.0,1.0,-6.0,-5.0,-4.0,-9.0,-7.0,1651069389810276.0,2
1041,1.0,-3.0,-8.0,-1.0,-1.0,-4.0,1.0,0.0,1651069389810276.0,2
1042,0.0,0.0,-4.0,-3.0,-2.0,1.0,3.0,1.0,1651069389833470.0,2
1043,-1.0,3.0,5.0,3.0,3.0,3.0,-4.0,-5.0,1651069389833470.0,2
1044,-2.0,-1.0,2.0,-2.0,-5.0,-5.0,-3.0,-3.0,1651069389833470.0,2
1045,-1.0,0.0,-4.0,0.0,0.0,0.0,-1.0,2.0,1651069389833470.0,2
1046,1.0,-3.0,0.0,-1.0,-4.0,-4.0,-5.0,-5.0,1651069389856017.0,2
1047,-2.0,-2.0,1.0,1.0,-2.0,-2.0,-5.0,-6.0,1651069389856017.0,2
1048,1.0,-1.0,-3.0,-3.0,-2.0,7.0,8.0,4.0,1651069389856017.0,2
1049,-1.0,-1.0,-4.0,1.0,0.0,-2.0,-4.0,-5.0,1651069389856017.0,2
1050,0.0,0.0,1.0,1.0,1.0,-1.0,3.0,4.0,1651069389870040.0,2
1051,-1.0,-2.0,-4.0,-3.0,-2.0,-1.0,-3.0,-5.0,1651069389870040.0,2
1052,0.0,-1.0,2.0,1.0,2.0,2.0,9.0,4.0,1651069389870971.0,2
1053,1.0,0.0,0.0,2.0,0.0,-2.0,-1.0,1.0,1651069389870971.0,2
1054,-1.0,0.0,-2.0,1.0,-2.0,0.0,-5.0,-2.0,1651069389893255.0,2
1055,-1.0,-2.0,-2.0,-2.0,-3.0,-4.0,-3.0,-2.0,1651069389893255.0,2
1056,2.0,1.0,2.0,3.0,-2.0,-2.0,5.0,5.0,1651069389893255.0,2
1057,-2.0,-2.0,0.0,0.0,1.0,0.0,-2.0,-1.0,1651069389893255.0,2
1058,0.0,0.0,-1.0,-3.0,-2.0,0.0,-2.0,-1.0,1651069389915181.0,2
1059,-1.0,1.0,2.0,-1.0,2.0,-1.0,0.0,-2.0,1651069389915181.0,2
1060,-1.0,-2.0,-1.0,-2.0,3.0,5.0,0.0,3.0,1651069389916178.0,2
1061,1.0,-1.0,-2.0,-4.0,-2.0,0.0,1.0,-1.0,1651069389916178.0,2
1062,0.0,0.0,-1.0,-5.0,-2.0,-3.0,0.0,2.0,1651069389930241.0,2
1063,0.0,-1.0,2.0,0.0,-2.0,0.0,-2.0,0.0,1651069389930241.0,2
1064,1.0,-1.0,-1.0,-1.0,-1.0,-1.0,-2.0,-4.0,1651069389930241.0,2
1065,-2.0,-1.0,0.0,-2.0,0.0,0.0,0.0,-1.0,1651069389930241.0,2
1066,0.0,-1.0,-1.0,-1.0,-1.0,-2.0,-4.0,-2.0,1651069389952796.0,2
1067,1.0,0.0,1.0,-2.0,-2.0,-1.0,5.0,1.0,1651069389952796.0,2
1068,0.0,-1.0,-1.0,0.0,-2.0,-1.0,0.0,-2.0,1651069389953800.0,2
1069,-1.0,-3.0,-1.0,0.0,0.0,-1.0,0.0,1.0,1651069389953800.0,2
1070,0.0,0.0,0.0,-1.0,-1.0,0.0,2.0,1.0,1651069389975972.0,2
1071,-1.0,-1.0,-2.0,-1.0,-1.0,-1.0,-4.0,-1.0,1651069389975972.0,2
1072,0.0,-2.0,0.0,1.0,-2.0,1.0,0.0,-1.0,1651069389975972.0,2
1073,0.0,1.0,-1.0,1.0,-1.0,-2.0,-3.0,-1.0,1651069389975972.0,2
1074,-1.0,0.0,1.0,-1.0,-1.0,-4.0,-1.0,-2.0,1651069389990215.0,2
1075,0.0,-2.0,0.0,0.0,0.0,3.0,0.0,-1.0,1651069389990215.0,2
1076,-2.0,0.0,-2.0,-3.0,0.0,-2.0,1.0,-2.0,1651069389990215.0,2
1077,0.0,0.0,-1.0,0.0,1.0,1.0,0.0,-1.0,1651069389990215.0,2
1078,2.0,-2.0,0.0,1.0,-1.0,1.0,0.0,0.0,1651069390012773.0,2
1079,0.0,1.0,-2.0,-1.0,-2.0,-2.0,-2.0,-1.0,1651069390012773.0,2
1080,0.0,-1.0,0.0,1.0,-1.0,-1.0,0.0,0.0,1651069390012773.0,2
1081,-1.0,1.0,0.0,-1.0,-2.0,-2.0,-1.0,-1.0,1651069390012773.0,2
1082,-1.0,0.0,-1.0,0.0,0.0,0.0,0.0,0.0,1651069390035961.0,2
1083,-3.0,0.0,0.0,1.0,2.0,1.0,1.0,-2.0,1651069390035961.0,2
1084,-2.0,0.0,0.0,-1.0,-2.0,0.0,-2.0,0.0,1651069390035961.0,2
1085,0.0,-1.0,-1.0,-1.0,0.0,-2.0,-1.0,0.0,1651069390035961.0,2
1086,0.0,0.0,-2.0,1.0,0.0,-1.0,-1.0,-1.0,1651069390048899.0,2
1087,-2.0,-2.0,-1.0,0.0,-3.0,-2.0,-2.0,-2.0,1651069390048899.0,2
1088,0.0,1.0,0.0,0.0,-2.0,1.0,-1.0,0.0,1651069390056945.0,2
1089,1.0,0.0,-2.0,0.0,-2.0,0.0,-1.0,-1.0,1651069390056945.0,2
1090,0.0,-1.0,-1.0,-3.0,-1.0,0.0,1.0,0.0,1651069390071838.0,2
1091,-1.0,-1.0,-1.0,0.0,1.0,-1.0,-3.0,-2.0,1651069390071838.0,2
1092,0.0,0.0,-1.0,-1.0,-2.0,0.0,-1.0,0.0,1651069390072835.0,2
1093,-1.0,-1.0,0.0,0.0,0.0,0.0,-1.0,-2.0,1651069390072835.0,2
1094,-1.0,-1.0,-1.0,0.0,0.0,0.0,0.0,-1.0,1651069390095852.0,2
1095,1.0,-2.0,-1.0,0.0,-2.0,-3.0,-1.0,-1.0,1651069390095852.0,2
1096,-2.0,-3.0,-1.0,0.0,2.0,0.0,-1.0,0.0,1651069390095852.0,2
1097,0.0,-1.0,-1.0,-1.0,-2.0,-1.0,1.0,-1.0,1651069390095852.0,2
1098,2.0,0.0,-1.0,1.0,4.0,6.0,1.0,0.0,1651069390117727.0,2
1099,-1.0,-1.0,0.0,2.0,-1.0,-1.0,2.0,0.0,1651069390117727.0,2
1100,-1.0,1.0,-1.0,-1.0,-6.0,-3.0,0.0,-3.0,1651069390118724.0,2
1101,-3.0,-1.0,-2.0,-4.0,-2.0,-4.0,-4.0,0.0,1651069390118724.0,2
1102,-2.0,-1.0,-1.0,4.0,-11.0,-7.0,-1.0,-2.0,1651069390132709.0,2
1103,1.0,2.0,1.0,1.0,9.0,6.0,0.0,0.0,1651069390132709.0,2
1104,1.0,-1.0,-1.0,-4.0,-5.0,4.0,0.0,0.0,1651069390132709.0,2
1105,-1.0,-1.0,-4.0,-3.0,-1.0,-6.0,-1.0,-2.0,1651069390132709.0,2
1106,0.0,-1.0,2.0,2.0,5.0,9.0,3.0,0.0,1651069390155920.0,2
1107,-2.0,-1.0,-1.0,-2.0,-4.0,-8.0,-2.0,-2.0,1651069390155920.0,2
1108,1.0,-2.0,-1.0,-1.0,-9.0,2.0,1.0,0.0,1651069390155920.0,2
1109,0.0,0.0,1.0,0.0,-3.0,2.0,-1.0,0.0,1651069390155920.0,2
1110,-2.0,-3.0,-3.0,-4.0,-6.0,-6.0,-4.0,-2.0,1651069390168862.0,2
1111,-1.0,1.0,-1.0,1.0,1.0,0.0,1.0,0.0,1651069390168862.0,2
1112,-1.0,-1.0,-1.0,-2.0,3.0,-2.0,-1.0,-1.0,1651069390177806.0,2
1113,0.0,-1.0,-1.0,0.0,2.0,1.0,1.0,-1.0,1651069390177806.0,2
1114,-2.0,-1.0,2.0,1.0,1.0,1.0,-2.0,-1.0,1651069390191974.0,2
1115,-1.0,-1.0,-1.0,0.0,-3.0,-1.0,-1.0,1.0,1651069390191974.0,2
1116,-1.0,-1.0,1.0,1.0,3.0,-6.0,-2.0,0.0,1651069390192910.0,2
1117,0.0,-2.0,-10.0,0.0,1.0,5.0,-2.0,0.0,1651069390192910.0,2
1118,1.0,1.0,6.0,0.0,4.0,0.0,0.0,-2.0,1651069390222865.0,2
1119,0.0,-1.0,-1.0,-3.0,-2.0,3.0,2.0,1.0,1651069390222865.0,2
1120,0.0,-1.0,1.0,0.0,-6.0,-4.0,1.0,-1.0,1651069390223792.0,2
1121,0.0,-1.0,-3.0,3.0,9.0,4.0,2.0,1.0,1651069390223792.0,2
1122,-1.0,-3.0,-4.0,-6.0,-3.0,-4.0,-2.0,-1.0,1651069390228805.0,2
1123,0.0,0.0,2.0,2.0,-3.0,1.0,-2.0,-2.0,1651069390228805.0,2
1124,-2.0,1.0,-2.0,2.0,4.0,1.0,0.0,-1.0,1651069390237362.0,2
1125,-1.0,0.0,4.0,0.0,-8.0,-3.0,-1.0,0.0,1651069390237362.0,2
1126,-1.0,0.0,-3.0,0.0,2.0,0.0,0.0,-1.0,1651069390252770.0,2
1127,0.0,1.0,1.0,0.0,1.0,0.0,-1.0,0.0,1651069390252770.0,2
1128,0.0,-1.0,-2.0,-1.0,2.0,-1.0,-1.0,-2.0,1651069390252770.0,2
1129,0.0,-2.0,2.0,0.0,-1.0,-2.0,-1.0,-1.0,1651069390252770.0,2
1130,0.0,-1.0,0.0,-1.0,-7.0,-4.0,-1.0,-1.0,1651069390275799.0,2
1131,0.0,-2.0,-4.0,-2.0,-2.0,-2.0,1.0,1.0,1651069390275799.0,2
1132,-2.0,-1.0,1.0,1.0,6.0,1.0,-1.0,0.0,1651069390275799.0,2
1133,-2.0,0.0,3.0,-1.0,-4.0,-2.0,-1.0,-1.0,1651069390275799.0,2
1134,0.0,1.0,-1.0,-1.0,-5.0,-4.0,2.0,0.0,1651069390289621.0,2
1135,0.0,1.0,1.0,2.0,7.0,7.0,0.0,-1.0,1651069390289621.0,2
1136,-1.0,0.0,-3.0,0.0,5.0,-3.0,-2.0,-1.0,1651069390296673.0,2
1137,-1.0,0.0,2.0,0.0,-1.0,3.0,-1.0,0.0,1651069390296673.0,2
1138,1.0,1.0,0.0,-2.0,-1.0,-1.0,-2.0,0.0,1651069390312514.0,2
1139,-3.0,0.0,0.0,0.0,3.0,1.0,2.0,2.0,1651069390312514.0,2
1140,0.0,0.0,1.0,-3.0,-2.0,4.0,0.0,1.0,1651069390313505.0,2
1141,-1.0,-2.0,0.0,0.0,0.0,-1.0,-1.0,-3.0,1651069390313505.0,2
1142,-1.0,-1.0,-1.0,0.0,1.0,0.0,-1.0,-1.0,1651069390335839.0,2
1143,-1.0,-2.0,-1.0,-3.0,-9.0,-5.0,-3.0,0.0,1651069390335839.0,2
1144,-1.0,-1.0,0.0,1.0,1.0,0.0,1.0,-1.0,1651069390335839.0,2
1145,-1.0,0.0,0.0,0.0,-1.0,-2.0,0.0,0.0,1651069390335839.0,2
1146,1.0,-1.0,-1.0,-1.0,-1.0,1.0,1.0,-1.0,1651069390348816.0,2
1147,-1.0,0.0,2.0,-1.0,-1.0,-2.0,-2.0,-2.0,1651069390348816.0,2
1148,1.0,-1.0,-1.0,-1.0,-10.0,-6.0,-2.0,-1.0,1651069390357806.0,0
1149,0.0,0.0,0.0,0.0,5.0,-2.0,-1.0,0.0,1651069390357806.0,0
1150,-1.0,0.0,-5.0,2.0,2.0,7.0,2.0,1.0,1651069390371859.0,0
1151,-1.0,-1.0,-7.0,-1.0,-2.0,-1.0,0.0,0.0,1651069390371859.0,0
1152,2.0,1.0,-1.0,0.0,2.0,1.0,0.0,-1.0,1651069390372862.0,0
1153,1.0,-1.0,-1.0,-2.0,-5.0,-4.0,0.0,1.0,1651069390372862.0,0
1154,-1.0,-2.0,2.0,0.0,-1.0,-3.0,-4.0,1.0,1651069390395506.0,0
1155,0.0,-2.0,2.0,0.0,-2.0,-2.0,-2.0,-1.0,1651069390395506.0,0
1156,0.0,-1.0,1.0,-3.0,-4.0,-1.0,1.0,1.0,1651069390396437.0,0
1157,0.0,-1.0,3.0,-1.0,0.0,0.0,1.0,0.0,1651069390396437.0,0
1158,-2.0,0.0,1.0,-2.0,2.0,-1.0,-1.0,-1.0,1651069390417680.0,0
1159,0.0,0.0,0.0,-3.0,-5.0,-3.0,-2.0,-3.0,1651069390417680.0,0
1160,-2.0,0.0,-2.0,-3.0,-9.0,-8.0,-4.0,0.0,1651069390418611.0,0
1161,-1.0,0.0,0.0,5.0,17.0,12.0,3.0,1.0,1651069390418611.0,0
1162,0.0,-1.0,1.0,2.0,2.0,1.0,0.0,2.0,1651069390432671.0,3
1163,0.0,-2.0,-1.0,-3.0,-5.0,-2.0,-1.0,-1.0,1651069390432671.0,3
1164,0.0,-1.0,-2.0,-3.0,-5.0,-2.0,-1.0,-3.0,1651069390432671.0,3
1165,0.0,0.0,-3.0,-6.0,-12.0,-8.0,-3.0,-1.0,1651069390432671.0,3
1166,0.0,-1.0,0.0,0.0,0.0,-1.0,-1.0,-2.0,1651069390455856.0,3
1167,-1.0,0.0,-3.0,2.0,1.0,-2.0,1.0,-1.0,1651069390455856.0,3
1168,-1.0,-1.0,0.0,0.0,2.0,1.0,-3.0,0.0,1651069390455856.0,3
1169,0.0,-1.0,0.0,1.0,-2.0,-1.0,-1.0,0.0,1651069390455856.0,3
1170,0.0,-1.0,-3.0,0.0,0.0,0.0,1.0,-1.0,1651069390477925.0,3
1171,0.0,-1.0,0.0,0.0,-1.0,-2.0,-1.0,1.0,1651069390477925.0,3
1172,0.0,0.0,-1.0,2.0,5.0,2.0,1.0,0.0,1651069390478855.0,3
1173,-2.0,-2.0,1.0,1.0,0.0,-1.0,1.0,-2.0,1651069390478855.0,3
1174,-2.0,-1.0,-3.0,-3.0,-4.0,-3.0,0.0,1.0,1651069390492770.0,3
1175,-2.0,0.0,-1.0,0.0,-3.0,1.0,-2.0,-1.0,1651069390492770.0,3
1176,-1.0,0.0,0.0,1.0,2.0,-2.0,0.0,0.0,1651069390492770.0,3
1177,0.0,1.0,0.0,0.0,-2.0,0.0,3.0,0.0,1651069390492770.0,3
1178,-1.0,-1.0,0.0,-1.0,-2.0,-1.0,1.0,0.0,1651069390515848.0,3
1179,2.0,0.0,0.0,-4.0,-3.0,-4.0,-2.0,-1.0,1651069390515848.0,3
1180,-1.0,-1.0,1.0,0.0,-2.0,-3.0,-1.0,-1.0,1651069390515848.0,3
1181,-1.0,0.0,-2.0,-1.0,-2.0,-1.0,-2.0,0.0,1651069390515848.0,3
1182,1.0,-1.0,-1.0,0.0,-2.0,-1.0,1.0,0.0,1651069390537857.0,3
1183,-1.0,0.0,-1.0,1.0,3.0,0.0,-1.0,1.0,1651069390537857.0,3
1184,1.0,0.0,-1.0,0.0,1.0,1.0,1.0,-1.0,1651069390538791.0,3
1185,0.0,0.0,-2.0,-2.0,-3.0,-1.0,0.0,-1.0,1651069390538791.0,3
1186,-3.0,1.0,-2.0,-1.0,3.0,1.0,1.0,-2.0,1651069390552802.0,3
1187,0.0,-3.0,1.0,1.0,0.0,0.0,-2.0,0.0,1651069390552802.0,3
1188,-2.0,-1.0,1.0,0.0,-1.0,-1.0,-1.0,2.0,1651069390552802.0,3
1189,1.0,-1.0,-2.0,-2.0,-2.0,-1.0,-1.0,0.0,1651069390552802.0,3
1190,-1.0,0.0,0.0,-2.0,0.0,-2.0,-2.0,0.0,1651069390575822.0,3
1191,-2.0,1.0,-1.0,-3.0,0.0,1.0,2.0,-1.0,1651069390575822.0,3
1192,-2.0,-3.0,0.0,-2.0,1.0,0.0,2.0,-1.0,1651069390575822.0,3
1193,-1.0,-2.0,-2.0,0.0,-2.0,-3.0,-2.0,-2.0,1651069390575822.0,3
1194,0.0,1.0,-1.0,0.0,0.0,-3.0,-1.0,-1.0,1651069390597850.0,3
1195,1.0,-1.0,-1.0,0.0,2.0,-1.0,-2.0,-1.0,1651069390597850.0,3
1196,0.0,0.0,0.0,-1.0,-2.0,0.0,-3.0,0.0,1651069390598789.0,3
1197,1.0,-1.0,-1.0,1.0,5.0,7.0,3.0,1.0,1651069390598789.0,3
1198,-2.0,-2.0,1.0,-2.0,-2.0,-2.0,0.0,-2.0,1651069390612683.0,3
1199,-2.0,0.0,-1.0,-1.0,-1.0,0.0,0.0,1.0,1651069390612683.0,3
1200,0.0,-1.0,-1.0,0.0,0.0,0.0,1.0,-2.0,1651069390612683.0,3
1201,0.0,0.0,-1.0,-1.0,-2.0,-2.0,-2.0,-2.0,1651069390612683.0,3
1202,1.0,0.0,1.0,1.0,-1.0,0.0,1.0,0.0,1651069390635944.0,3
1203,0.0,0.0,-2.0,-1.0,0.0,-1.0,-1.0,-2.0,1651069390635944.0,3
1204,0.0,1.0,-1.0,0.0,2.0,-1.0,-2.0,-1.0,1651069390635944.0,3
1205,-1.0,0.0,0.0,0.0,-1.0,0.0,-1.0,0.0,1651069390635944.0,3
1206,-2.0,-1.0,-1.0,0.0,1.0,2.0,1.0,2.0,1651069390665690.0,3
1207,-1.0,-1.0,2.0,1.0,-2.0,-2.0,0.0,1.0,1651069390665690.0,3
1208,-1.0,1.0,-2.0,-1.0,0.0,1.0,0.0,0.0,1651069390666690.0,3
1209,-1.0,0.0,-2.0,1.0,-1.0,0.0,0.0,-1.0,1651069390666690.0,3
1210,0.0,0.0,1.0,0.0,0.0,-2.0,0.0,-1.0,1651069390672669.0,3
1211,1.0,-2.0,-2.0,0.0,1.0,1.0,1.0,-2.0,1651069390672669.0,3
1212,-1.0,-1.0,0.0,-2.0,-1.0,2.0,0.0,-1.0,1651069390672669.0,3
1213,-1.0,-1.0,1.0,-3.0,-5.0,-7.0,-4.0,-1.0,1651069390672669.0,3
1214,0.0,-1.0,0.0,-1.0,-3.0,-1.0,-1.0,-1.0,1651069390695805.0,3
1215,1.0,0.0,1.0,1.0,14.0,5.0,2.0,1.0,1651069390695805.0,3
1216,0.0,-1.0,-2.0,1.0,1.0,3.0,0.0,-2.0,1651069390696736.0,3
1217,-1.0,-1.0,0.0,0.0,-2.0,-2.0,-1.0,-2.0,1651069390696736.0,3
1218,-2.0,-2.0,-2.0,-1.0,-6.0,-3.0,-2.0,0.0,1651069390717751.0,3
1219,0.0,0.0,-1.0,-4.0,-8.0,-3.0,-2.0,0.0,1651069390717751.0,3
1220,-2.0,-1.0,0.0,0.0,3.0,-1.0,0.0,-1.0,1651069390718677.0,3
1221,1.0,-1.0,-1.0,-2.0,2.0,0.0,-1.0,-2.0,1651069390718677.0,3
1222,0.0,1.0,0.0,1.0,0.0,0.0,-1.0,1.0,1651069390732639.0,3
1223,-1.0,1.0,-1.0,0.0,-1.0,-2.0,0.0,0.0,1651069390732639.0,3
1224,0.0,1.0,-1.0,-1.0,0.0,-2.0,0.0,0.0,1651069390732639.0,3
1225,-2.0,-3.0,0.0,-3.0,-3.0,-1.0,-2.0,-2.0,1651069390732639.0,3
1226,-1.0,-3.0,0.0,0.0,3.0,0.0,0.0,0.0,1651069390755578.0,3
1227,-1.0,1.0,1.0,2.0,0.0,1.0,1.0,-1.0,1651069390755578.0,3
1228,-2.0,0.0,0.0,0.0,-4.0,-3.0,-3.0,0.0,1651069390756576.0,3
1229,1.0,0.0,-1.0,2.0,2.0,0.0,1.0,0.0,1651069390756576.0,3
1230,0.0,1.0,-1.0,-1.0,0.0,1.0,-1.0,1.0,1651069390778697.0,3
1231,-2.0,-2.0,-2.0,-3.0,-4.0,-3.0,-1.0,-1.0,1651069390778697.0,3
1232,-1.0,-2.0,0.0,0.0,-4.0,-1.0,1.0,1.0,1651069390779693.0,3
1233,2.0,0.0,-1.0,1.0,1.0,0.0,1.0,0.0,1651069390779693.0,3
1234,0.0,-1.0,1.0,0.0,-1.0,-1.0,-2.0,0.0,1651069390792713.0,3
1235,0.0,1.0,0.0,0.0,-2.0,1.0,0.0,-2.0,1651069390792713.0,3
1236,0.0,0.0,1.0,0.0,1.0,0.0,1.0,0.0,1651069390792713.0,3
1237,-2.0,0.0,-1.0,-1.0,0.0,1.0,-1.0,0.0,1651069390792713.0,3
1238,-1.0,-1.0,-2.0,0.0,-4.0,-4.0,-2.0,-2.0,1651069390815725.0,3
1239,1.0,-2.0,-1.0,0.0,3.0,5.0,1.0,1.0,1651069390815725.0,3
1240,-1.0,-2.0,-1.0,0.0,4.0,1.0,-1.0,-1.0,1651069390816674.0,3
1241,-2.0,0.0,-1.0,-1.0,-1.0,-3.0,0.0,-2.0,1651069390816674.0,3
1242,0.0,-1.0,-1.0,-1.0,-1.0,0.0,0.0,-2.0,1651069390837727.0,3
1243,-2.0,-1.0,-1.0,0.0,-4.0,-3.0,-3.0,-1.0,1651069390837727.0,3
1244,-1.0,-2.0,-3.0,-1.0,-2.0,-2.0,0.0,-2.0,1651069390838660.0,3
1245,0.0,0.0,0.0,0.0,1.0,1.0,2.0,1.0,1651069390838660.0,3
1246,-1.0,-1.0,-1.0,0.0,-1.0,-2.0,-2.0,1.0,1651069390852682.0,3
1247,0.0,1.0,0.0,0.0,1.0,1.0,0.0,-1.0,1651069390852682.0,3
1248,-1.0,0.0,-1.0,-1.0,-2.0,-1.0,-1.0,-2.0,1651069390852682.0,3
1249,-1.0,-2.0,-1.0,0.0,-1.0,1.0,1.0,1.0,1651069390852682.0,3
1250,0.0,-1.0,-1.0,-2.0,0.0,2.0,0.0,-1.0,1651069390875804.0,3
1251,0.0,-1.0,0.0,-2.0,-2.0,-3.0,-1.0,0.0,1651069390875804.0,3
1252,0.0,1.0,-1.0,0.0,-1.0,-1.0,-1.0,0.0,1651069390876743.0,3
1253,-1.0,0.0,-2.0,-2.0,0.0,1.0,0.0,0.0,1651069390876743.0,3
1254,0.0,0.0,-1.0,1.0,-2.0,-2.0,0.0,0.0,1651069390897737.0,3
1255,-1.0,-2.0,-1.0,0.0,3.0,3.0,2.0,1.0,1651069390897737.0,3
1256,-2.0,-1.0,-1.0,-3.0,-2.0,-3.0,-2.0,-2.0,1651069390898679.0,3
1257,0.0,-1.0,-1.0,1.0,1.0,-3.0,-2.0,0.0,1651069390898679.0,3
1258,1.0,0.0,-1.0,0.0,1.0,2.0,2.0,1.0,1651069390912675.0,3
1259,0.0,-2.0,-2.0,-1.0,-5.0,-3.0,-3.0,-2.0,1651069390912675.0,3
1260,1.0,-1.0,0.0,-2.0,-1.0,2.0,-1.0,2.0,1651069390912675.0,3
1261,-1.0,0.0,1.0,0.0,0.0,1.0,-1.0,-3.0,1651069390912675.0,3
1262,-1.0,0.0,0.0,-2.0,0.0,-1.0,-2.0,-2.0,1651069390935775.0,3
1263,0.0,0.0,0.0,0.0,-3.0,-7.0,-2.0,0.0,1651069390935775.0,3
1264,0.0,0.0,0.0,-1.0,-3.0,0.0,3.0,0.0,1651069390936710.0,3
1265,0.0,0.0,1.0,0.0,0.0,1.0,0.0,-1.0,1651069390936710.0,3
1266,-1.0,-2.0,1.0,0.0,0.0,1.0,-1.0,-1.0,1651069390957941.0,3
1267,-2.0,0.0,-1.0,0.0,-2.0,-1.0,0.0,-1.0,1651069390957941.0,3
1268,-2.0,1.0,-1.0,2.0,1.0,0.0,-1.0,1.0,1651069390959878.0,3
1269,0.0,-1.0,-1.0,-1.0,-3.0,-2.0,1.0,0.0,1651069390959878.0,3
1270,-1.0,1.0,-1.0,1.0,2.0,3.0,2.0,-1.0,1651069390972063.0,3
1271,0.0,-1.0,-1.0,-1.0,0.0,0.0,-1.0,0.0,1651069390972063.0,3
1272,1.0,-2.0,0.0,-1.0,-3.0,-5.0,-1.0,-1.0,1651069390980972.0,3
1273,0.0,0.0,-1.0,1.0,-1.0,3.0,-1.0,0.0,1651069390980972.0,3
1274,-1.0,-2.0,-1.0,0.0,-1.0,-1.0,-1.0,-1.0,1651069390995959.0,3
1275,-2.0,-1.0,-1.0,-2.0,-4.0,-4.0,-2.0,-1.0,1651069390995959.0,3
1276,-1.0,1.0,-2.0,0.0,-3.0,-1.0,1.0,-1.0,1651069390996933.0,3
1277,-2.0,-2.0,-1.0,3.0,11.0,7.0,-1.0,1.0,1651069390996933.0,3
1278,-2.0,1.0,0.0,-1.0,-5.0,-3.0,-1.0,0.0,1651069391017031.0,3
1279,0.0,-1.0,-1.0,1.0,-1.0,0.0,1.0,0.0,1651069391017031.0,3
1280,-1.0,-1.0,1.0,-1.0,-4.0,-4.0,-1.0,0.0,1651069391026007.0,3
1281,0.0,0.0,-1.0,-2.0,-3.0,-1.0,0.0,-1.0,1651069391026007.0,3
1282,-1.0,-2.0,0.0,-1.0,-1.0,0.0,-2.0,1.0,1651069391032059.0,3
1283,2.0,-1.0,0.0,1.0,4.0,1.0,0.0,0.0,1651069391032059.0,3
1284,0.0,-1.0,-2.0,-1.0,-1.0,4.0,1.0,0.0,1651069391040967.0,3
1285,-1.0,-1.0,0.0,-2.0,-5.0,-5.0,-3.0,-1.0,1651069391040967.0,3
1286,0.0,0.0,-3.0,-2.0,-2.0,1.0,-2.0,-1.0,1651069391055038.0,3
1287,-1.0,0.0,-1.0,1.0,0.0,2.0,2.0,-1.0,1651069391055038.0,3
1288,-1.0,-1.0,1.0,0.0,2.0,1.0,0.0,1.0,1651069391057025.0,3
1289,1.0,0.0,-2.0,-1.0,-3.0,-4.0,-2.0,-1.0,1651069391057025.0,3
1290,0.0,0.0,-1.0,0.0,-1.0,3.0,0.0,1.0,1651069391078162.0,3
1291,1.0,-1.0,-2.0,-2.0,0.0,0.0,-2.0,-2.0,1651069391078162.0,3
1292,0.0,0.0,0.0,0.0,-1.0,-2.0,1.0,-1.0,1651069391079100.0,3
1293,-2.0,0.0,-1.0,-2.0,-2.0,-3.0,-1.0,0.0,1651069391079100.0,3
1294,-2.0,-1.0,0.0,2.0,5.0,2.0,3.0,-2.0,1651069391091680.0,3
1295,-2.0,0.0,1.0,-3.0,-12.0,-1.0,0.0,0.0,1651069391091680.0,3
1296,0.0,0.0,-1.0,4.0,16.0,-1.0,-1.0,1.0,1651069391100711.0,3
1297,0.0,-1.0,-2.0,0.0,-7.0,-3.0,0.0,-1.0,1651069391100711.0,3
1298,0.0,-1.0,-3.0,0.0,1.0,-1.0,1.0,-1.0,1651069391115948.0,3
1299,-1.0,0.0,0.0,-2.0,-1.0,-1.0,2.0,-1.0,1651069391115948.0,3
1300,-2.0,-3.0,-3.0,-3.0,-5.0,0.0,0.0,-1.0,1651069391116857.0,3
1301,-1.0,0.0,1.0,1.0,-2.0,-2.0,-1.0,0.0,1651069391116857.0,3
1302,-1.0,1.0,-2.0,0.0,0.0,-4.0,0.0,-1.0,1651069391137978.0,3
1303,0.0,1.0,1.0,0.0,0.0,1.0,2.0,0.0,1651069391137978.0,3
1304,-1.0,-2.0,-1.0,-1.0,-5.0,-3.0,-2.0,-1.0,1651069391139943.0,3
1305,0.0,-3.0,-2.0,-3.0,1.0,1.0,-2.0,0.0,1651069391139943.0,3
1306,-1.0,-1.0,4.0,2.0,9.0,7.0,-1.0,0.0,1651069391151941.0,3
1307,0.0,-1.0,-3.0,0.0,-5.0,-4.0,-1.0,-2.0,1651069391151941.0,3
1308,0.0,-1.0,0.0,0.0,-1.0,-4.0,0.0,-1.0,1651069391160971.0,3
1309,0.0,-1.0,-1.0,-2.0,-4.0,1.0,1.0,-1.0,1651069391160971.0,3
1310,1.0,-1.0,-2.0,-1.0,-3.0,-2.0,-2.0,0.0,1651069391175158.0,3
1311,0.0,0.0,2.0,1.0,5.0,0.0,0.0,0.0,1651069391175158.0,3
1312,-2.0,0.0,-1.0,0.0,0.0,4.0,-1.0,-2.0,1651069391177094.0,3
1313,-2.0,0.0,-1.0,1.0,3.0,5.0,2.0,0.0,1651069391177094.0,3
1314,1.0,2.0,3.0,0.0,-4.0,-7.0,-1.0,1.0,1651069391198448.0,3
1315,-2.0,-2.0,-2.0,-1.0,0.0,-4.0,-2.0,1.0,1651069391198448.0,3
1316,2.0,-1.0,0.0,-3.0,-9.0,3.0,0.0,-1.0,1651069391199422.0,3
1317,-1.0,-2.0,2.0,2.0,6.0,-2.0,-1.0,-1.0,1651069391199422.0,3
1318,-2.0,-2.0,-4.0,-3.0,-4.0,-2.0,-4.0,-1.0,1651069391211394.0,3
1319,2.0,1.0,3.0,5.0,7.0,4.0,2.0,2.0,1651069391211394.0,3
1320,-1.0,0.0,0.0,-2.0,-3.0,-2.0,2.0,2.0,1651069391220369.0,3
1321,0.0,-1.0,-1.0,-2.0,-7.0,-5.0,-4.0,-3.0,1651069391220369.0,3
1322,-1.0,-3.0,-7.0,1.0,8.0,4.0,3.0,0.0,1651069391235347.0,3
1323,-2.0,-2.0,-1.0,-2.0,-2.0,-3.0,-3.0,-1.0,1651069391235347.0,3
1324,0.0,2.0,1.0,-3.0,-1.0,-2.0,-3.0,-2.0,1651069391237298.0,3
1325,-1.0,1.0,2.0,-2.0,-2.0,-1.0,1.0,0.0,1651069391237298.0,3
1326,0.0,0.0,3.0,3.0,-5.0,-4.0,-3.0,0.0,1651069391258449.0,3
1327,0.0,1.0,3.0,2.0,-2.0,1.0,1.0,0.0,1651069391258449.0,3
1328,-3.0,-2.0,-10.0,-7.0,3.0,0.0,1.0,2.0,1651069391259436.0,3
1329,1.0,3.0,7.0,10.0,1.0,-2.0,-1.0,2.0,1651069391259436.0,3
1330,0.0,-3.0,-2.0,-8.0,-6.0,-5.0,-2.0,-2.0,1651069391271462.0,3
1331,0.0,-3.0,-3.0,1.0,-1.0,0.0,-1.0,-1.0,1651069391271462.0,3
1332,1.0,1.0,4.0,4.0,3.0,4.0,0.0,0.0,1651069391280379.0,3
1333,-1.0,-1.0,-4.0,2.0,6.0,3.0,1.0,1.0,1651069391280379.0,3
1334,-3.0,-2.0,-5.0,-5.0,-5.0,-3.0,-2.0,-2.0,1651069391295480.0,3
1335,-1.0,1.0,3.0,1.0,-3.0,-2.0,-2.0,0.0,1651069391295480.0,3
1336,0.0,0.0,0.0,2.0,5.0,0.0,0.0,-2.0,1651069391297352.0,3
1337,-2.0,-4.0,-6.0,-4.0,0.0,-3.0,-1.0,-3.0,1651069391297352.0,3
1338,1.0,2.0,6.0,-1.0,-3.0,3.0,3.0,0.0,1651069391318479.0,3
1339,2.0,3.0,6.0,3.0,2.0,-4.0,-1.0,1.0,1651069391318479.0,3
1340,1.0,2.0,7.0,3.0,1.0,3.0,-8.0,-6.0,1651069391319478.0,3
1341,-1.0,-10.0,-27.0,-18.0,-13.0,-3.0,6.0,2.0,1651069391319478.0,3
1342,2.0,-3.0,-1.0,9.0,9.0,6.0,11.0,8.0,1651069391332522.0,3
1343,-3.0,0.0,-1.0,-1.0,-1.0,-3.0,-6.0,-3.0,1651069391332522.0,3
1344,2.0,3.0,7.0,-4.0,-3.0,-2.0,2.0,5.0,1651069391340419.0,3
1345,-2.0,2.0,10.0,18.0,-4.0,-2.0,-9.0,-8.0,1651069391340419.0,3
1346,-5.0,-7.0,-18.0,-28.0,0.0,4.0,0.0,-3.0,1651069391355300.0,3
1347,0.0,-2.0,-8.0,-2.0,-4.0,0.0,2.0,5.0,1651069391355300.0,3
1348,1.0,3.0,9.0,9.0,2.0,-3.0,-6.0,-6.0,1651069391361323.0,3
1349,-1.0,-2.0,-3.0,-2.0,3.0,-1.0,-11.0,-9.0,1651069391361323.0,3
1350,3.0,8.0,19.0,21.0,3.0,3.0,9.0,10.0,1651069391377692.0,3
1351,0.0,-1.0,-3.0,-16.0,-2.0,-1.0,5.0,0.0,1651069391377692.0,3
1352,-5.0,-8.0,-16.0,-1.0,-6.0,-3.0,6.0,3.0,1651069391379633.0,3
1353,2.0,2.0,5.0,-4.0,-3.0,-2.0,0.0,2.0,1651069391379633.0,3
1354,-2.0,-1.0,3.0,4.0,2.0,-2.0,-12.0,-9.0,1651069391400684.0,3
1355,-3.0,-6.0,-8.0,1.0,6.0,2.0,-12.0,-4.0,1651069391400684.0,3
1356,5.0,2.0,1.0,-3.0,0.0,7.0,33.0,19.0,1651069391401681.0,3
1357,-3.0,-5.0,-10.0,-2.0,-5.0,-8.0,-3.0,-5.0,1651069391401681.0,3
1358,-2.0,-1.0,-3.0,-5.0,-8.0,-9.0,-7.0,1.0,1651069391414712.0,3
1359,-6.0,-5.0,-10.0,-5.0,-11.0,-2.0,-10.0,-12.0,1651069391414712.0,3
1360,-1.0,6.0,13.0,27.0,21.0,4.0,-14.0,-7.0,1651069391421694.0,3
1361,3.0,4.0,7.0,-11.0,3.0,4.0,7.0,6.0,1651069391421694.0,3
1362,0.0,-2.0,-9.0,-10.0,-14.0,-4.0,5.0,2.0,1651069391437768.0,3
1363,-1.0,-1.0,0.0,3.0,7.0,2.0,3.0,2.0,1651069391437768.0,3
1364,3.0,0.0,2.0,-1.0,-4.0,-6.0,-3.0,0.0,1651069391439721.0,3
1365,2.0,2.0,3.0,5.0,11.0,7.0,1.0,5.0,1651069391439721.0,3
1366,0.0,1.0,4.0,7.0,8.0,0.0,-15.0,-7.0,1651069391460798.0,3
1367,4.0,4.0,8.0,2.0,-7.0,2.0,10.0,6.0,1651069391460798.0,3
1368,-2.0,-6.0,-13.0,-12.0,-6.0,-1.0,-2.0,-4.0,1651069391461728.0,3
1369,-3.0,0.0,3.0,6.0,0.0,-2.0,-16.0,-13.0,1651069391461728.0,3
1370,2.0,3.0,9.0,20.0,23.0,11.0,6.0,5.0,1651069391474761.0,3
1371,-1.0,1.0,2.0,-2.0,-17.0,-8.0,-4.0,-3.0,1651069391474761.0,3
1372,-3.0,2.0,9.0,17.0,7.0,3.0,-6.0,-7.0,1651069391481742.0,3
1373,-3.0,-6.0,-18.0,-55.0,-22.0,-11.0,-8.0,-2.0,1651069391481742.0,3
1374,0.0,-2.0,-3.0,7.0,-7.0,-4.0,6.0,5.0,1651069391497804.0,3
1375,0.0,0.0,1.0,-10.0,1.0,1.0,8.0,10.0,1651069391497804.0,3
1376,-3.0,-3.0,2.0,8.0,-2.0,-3.0,-9.0,-4.0,1651069391499760.0,3
1377,-3.0,0.0,5.0,6.0,5.0,1.0,4.0,-2.0,1651069391499760.0,3
1378,-2.0,-6.0,-11.0,-19.0,-13.0,-5.0,-8.0,-3.0,1651069391520713.0,3
1379,0.0,3.0,8.0,21.0,17.0,4.0,-7.0,-5.0,1651069391520713.0,3
1380,-3.0,-7.0,-18.0,-29.0,-22.0,-9.0,7.0,0.0,1651069391526828.0,3
1381,-6.0,1.0,2.0,1.0,4.0,0.0,-13.0,-1.0,1651069391526828.0,3
1382,14.0,4.0,5.0,-4.0,-25.0,-9.0,11.0,-3.0,1651069391534805.0,3
1383,5.0,1.0,-9.0,-12.0,3.0,10.0,31.0,14.0,1651069391534805.0,3
1384,-3.0,-4.0,-10.0,-20.0,-13.0,-7.0,-6.0,-3.0,1651069391541813.0,3
1385,-24.0,-3.0,9.0,41.0,11.0,7.0,12.0,4.0,1651069391541813.0,3
1386,11.0,4.0,3.0,-11.0,3.0,0.0,-18.0,-22.0,1651069391558356.0,3
1387,-8.0,4.0,12.0,19.0,4.0,-2.0,-10.0,-8.0,1651069391558356.0,3
1388,53.0,9.0,7.0,-12.0,-20.0,-8.0,2.0,14.0,1651069391559354.0,3
1389,-3.0,-1.0,-28.0,1.0,13.0,6.0,8.0,4.0,1651069391559354.0,3
1390,-14.0,-3.0,20.0,4.0,4.0,-2.0,-4.0,0.0,1651069391580912.0,3
1391,15.0,8.0,19.0,8.0,5.0,-4.0,-30.0,-5.0,1651069391580912.0,3
1392,-16.0,-18.0,-6.0,-3.0,-1.0,6.0,21.0,11.0,1651069391581641.0,3
1393,0.0,10.0,1.0,19.0,1.0,-3.0,-1.0,-10.0,1651069391581641.0,3
1394,-1.0,6.0,15.0,-6.0,3.0,-1.0,-5.0,4.0,1651069391594669.0,3
1395,-18.0,-22.0,-38.0,-16.0,-8.0,-8.0,3.0,1.0,1651069391594669.0,3
1396,32.0,4.0,-3.0,-4.0,2.0,5.0,3.0,13.0,1651069391609689.0,3
1397,-14.0,4.0,14.0,2.0,-7.0,0.0,20.0,8.0,1651069391609689.0,3
1398,-11.0,2.0,-14.0,-1.0,8.0,5.0,-3.0,-7.0,1651069391617667.0,3
1399,-28.0,-23.0,1.0,-5.0,-1.0,-2.0,-6.0,-3.0,1651069391617667.0,3
1400,-13.0,-3.0,-4.0,11.0,6.0,1.0,-9.0,-8.0,1651069391619689.0,3
1401,-5.0,-16.0,-9.0,-37.0,-16.0,-7.0,3.0,9.0,1651069391619689.0,3
1402,16.0,-1.0,-9.0,2.0,0.0,3.0,5.0,7.0,1651069391640827.0,3
1403,9.0,15.0,22.0,26.0,24.0,10.0,0.0,-9.0,1651069391640827.0,3
1404,-23.0,0.0,-8.0,-5.0,1.0,-3.0,-3.0,-14.0,1651069391641757.0,3
1405,10.0,3.0,15.0,15.0,2.0,-1.0,6.0,8.0,1651069391641757.0,3
1406,-9.0,11.0,3.0,-1.0,0.0,0.0,1.0,-7.0,1651069391653792.0,3
1407,12.0,-2.0,-21.0,-13.0,-9.0,-2.0,5.0,7.0,1651069391653792.0,3
1408,-14.0,5.0,23.0,29.0,7.0,1.0,4.0,3.0,1651069391662795.0,3
1409,-2.0,-2.0,-14.0,-28.0,-22.0,-8.0,-4.0,-5.0,1651069391662795.0,3
1410,1.0,-14.0,-15.0,-9.0,3.0,0.0,7.0,4.0,1651069391677755.0,3
1411,5.0,1.0,2.0,3.0,1.0,-1.0,4.0,4.0,1651069391677755.0,3
1412,-6.0,-1.0,0.0,-11.0,0.0,1.0,-5.0,-5.0,1651069391679771.0,3
1413,11.0,-2.0,0.0,11.0,4.0,0.0,-1.0,-3.0,1651069391679771.0,3
1414,-1.0,-1.0,-5.0,17.0,2.0,-1.0,8.0,10.0,1651069391700855.0,3
1415,3.0,0.0,8.0,-13.0,-18.0,-8.0,-12.0,-19.0,1651069391700855.0,3
1416,-6.0,1.0,-9.0,-2.0,10.0,2.0,12.0,12.0,1651069391701802.0,3
1417,17.0,9.0,18.0,20.0,19.0,14.0,3.0,3.0,1651069391701802.0,3
1418,-6.0,-12.0,-23.0,-10.0,-6.0,-3.0,-9.0,-8.0,1651069391713879.0,3
1419,-31.0,4.0,17.0,11.0,2.0,-5.0,-1.0,-6.0,1651069391713879.0,3
1420,16.0,0.0,-12.0,-12.0,0.0,0.0,-13.0,-2.0,1651069391722890.0,3
1421,0.0,-5.0,-5.0,-4.0,-1.0,0.0,-7.0,-11.0,1651069391722890.0,3
1422,-1.0,-4.0,-16.0,-4.0,2.0,1.0,2.0,3.0,1651069391737977.0,3
1423,1.0,9.0,33.0,38.0,2.0,1.0,-4.0,-4.0,1651069391737977.0,3
1424,-5.0,1.0,5.0,-2.0,1.0,-1.0,-2.0,2.0,1651069391739932.0,3
1425,5.0,1.0,8.0,0.0,2.0,-1.0,-4.0,2.0,1651069391739932.0,3
1426,9.0,-3.0,-1.0,-11.0,-6.0,-5.0,-11.0,-9.0,1651069391760513.0,3
1427,10.0,-1.0,-16.0,-4.0,11.0,1.0,2.0,2.0,1651069391760513.0,3
1428,-10.0,-8.0,-7.0,-4.0,-8.0,-5.0,-12.0,-18.0,1651069391762518.0,3
1429,6.0,-2.0,5.0,0.0,-2.0,0.0,9.0,3.0,1651069391762518.0,3
1430,-7.0,-7.0,-2.0,1.0,-12.0,-4.0,-2.0,-1.0,1651069391783507.0,3
1431,2.0,1.0,-17.0,-18.0,8.0,7.0,5.0,4.0,1651069391783507.0,3
1432,0.0,-3.0,-4.0,-5.0,-2.0,-3.0,-7.0,-1.0,1651069391784495.0,3
1433,-19.0,-2.0,5.0,25.0,-5.0,-10.0,-22.0,-13.0,1651069391784495.0,3
1434,-4.0,1.0,9.0,-1.0,11.0,8.0,7.0,2.0,1651069391798512.0,3
1435,8.0,1.0,-7.0,-3.0,3.0,1.0,4.0,6.0,1651069391798512.0,3
1436,-4.0,3.0,13.0,20.0,11.0,4.0,-4.0,-13.0,1651069391799455.0,3
1437,-27.0,-12.0,-21.0,-20.0,-14.0,-7.0,8.0,7.0,1651069391799455.0,3
1438,31.0,14.0,6.0,-2.0,1.0,2.0,2.0,-1.0,1651069391820643.0,3
1439,-10.0,-3.0,-13.0,-10.0,-1.0,1.0,2.0,0.0,1651069391820643.0,3
1440,-3.0,-2.0,-1.0,-3.0,-7.0,-1.0,-5.0,-7.0,1651069391821609.0,3
1441,-5.0,6.0,22.0,12.0,5.0,1.0,0.0,9.0,1651069391821609.0,3
1442,21.0,9.0,-9.0,-4.0,-3.0,-3.0,4.0,3.0,1651069391835011.0,3
1443,-14.0,-11.0,-7.0,-17.0,-8.0,-6.0,-9.0,-7.0,1651069391835011.0,3
1444,-5.0,-2.0,4.0,12.0,7.0,9.0,8.0,0.0,1651069391841965.0,3
1445,1.0,1.0,-2.0,-12.0,-5.0,-6.0,-9.0,-8.0,1651069391841965.0,3
1446,-16.0,-3.0,9.0,11.0,-1.0,8.0,21.0,9.0,1651069391857924.0,3
1447,14.0,1.0,-10.0,-20.0,-8.0,-5.0,0.0,3.0,1651069391857924.0,3
1448,-3.0,3.0,6.0,-2.0,6.0,1.0,-4.0,2.0,1651069391859946.0,3
1449,11.0,0.0,0.0,-5.0,-9.0,3.0,-5.0,-9.0,1651069391859946.0,3
1450,-13.0,-8.0,-12.0,9.0,4.0,-8.0,-3.0,0.0,1651069391879924.0,3
1451,4.0,2.0,23.0,6.0,-9.0,1.0,0.0,0.0,1651069391879924.0,3
1452,-2.0,-2.0,-15.0,-12.0,-9.0,-5.0,10.0,9.0,1651069391886905.0,3
1453,6.0,3.0,8.0,-1.0,5.0,1.0,-5.0,-9.0,1651069391886905.0,3
1454,-5.0,0.0,5.0,1.0,-1.0,-3.0,-6.0,2.0,1651069391893886.0,3
1455,-1.0,-5.0,-6.0,7.0,-9.0,-5.0,2.0,3.0,1651069391893886.0,3
1456,2.0,5.0,7.0,-16.0,-3.0,-6.0,-2.0,-2.0,1651069391902803.0,3
1457,10.0,-2.0,-16.0,2.0,6.0,2.0,11.0,7.0,1651069391902803.0,3
1458,-12.0,0.0,21.0,8.0,9.0,5.0,-10.0,-2.0,1651069391917822.0,3
1459,8.0,-2.0,-6.0,1.0,-4.0,4.0,15.0,6.0,1651069391917822.0,3
1460,0.0,2.0,6.0,-2.0,-3.0,0.0,-7.0,-8.0,1651069391919758.0,3
1461,6.0,-3.0,-2.0,8.0,6.0,2.0,17.0,14.0,1651069391919758.0,3
1462,-10.0,-8.0,-18.0,-21.0,-12.0,-4.0,1.0,-3.0,1651069391940828.0,3
1463,1.0,4.0,7.0,4.0,5.0,0.0,-14.0,-9.0,1651069391940828.0,3
1464,-4.0,-9.0,-7.0,-10.0,-14.0,-8.0,-10.0,-6.0,1651069391941827.0,3
1465,0.0,-2.0,-31.0,-24.0,-1.0,-2.0,-1.0,1.0,1651069391941827.0,3
1466,-7.0,-4.0,5.0,9.0,0.0,-5.0,-9.0,-19.0,1651069391953965.0,3
1467,8.0,3.0,-2.0,-1.0,2.0,2.0,18.0,25.0,1651069391953965.0,3
1468,-5.0,-1.0,-1.0,11.0,1.0,-2.0,-3.0,0.0,1651069391962888.0,3
1469,4.0,5.0,8.0,-4.0,-2.0,-2.0,-9.0,-6.0,1651069391962888.0,3
1470,9.0,6.0,17.0,15.0,4.0,4.0,14.0,16.0,1651069391977901.0,3
1471,-8.0,-5.0,-15.0,-10.0,-5.0,-3.0,-10.0,-14.0,1651069391977901.0,3
1472,3.0,4.0,2.0,4.0,8.0,6.0,7.0,6.0,1651069391979829.0,3
1473,2.0,0.0,10.0,14.0,3.0,3.0,4.0,4.0,1651069391979829.0,3
1474,-1.0,-3.0,-2.0,-6.0,-3.0,-3.0,-6.0,2.0,1651069392000887.0,3
1475,-3.0,-3.0,-2.0,-18.0,-14.0,-7.0,-13.0,-11.0,1651069392000887.0,3
1476,6.0,-2.0,-7.0,11.0,3.0,2.0,9.0,19.0,1651069392001613.0,3
1477,0.0,4.0,8.0,3.0,0.0,-1.0,-12.0,-9.0,1651069392001613.0,3
1478,-2.0,3.0,0.0,-3.0,0.0,1.0,1.0,0.0,1651069392014609.0,3
1479,2.0,-6.0,-7.0,-4.0,7.0,8.0,3.0,1.0,1651069392014609.0,3
1480,4.0,-2.0,-3.0,-2.0,-14.0,-8.0,-16.0,-12.0,1651069392023389.0,3
1481,0.0,0.0,4.0,3.0,0.0,-1.0,13.0,10.0,1651069392023389.0,3
1482,-3.0,-4.0,-2.0,4.0,6.0,2.0,-5.0,-2.0,1651069392038419.0,3
1483,4.0,5.0,-8.0,-9.0,-5.0,0.0,7.0,8.0,1651069392038419.0,3
1484,-1.0,-3.0,-3.0,-11.0,-2.0,-4.0,-13.0,-18.0,1651069392039349.0,3
1485,2.0,-2.0,14.0,5.0,2.0,8.0,11.0,5.0,1651069392039349.0,3
1486,-5.0,3.0,1.0,9.0,3.0,-3.0,-1.0,-1.0,1651069392060398.0,3
1487,4.0,1.0,-4.0,-8.0,-12.0,-5.0,0.0,-3.0,1651069392060398.0,3
1488,-6.0,-5.0,-5.0,7.0,18.0,3.0,-5.0,-6.0,1651069392062380.0,3
1489,1.0,1.0,0.0,-6.0,-7.0,-6.0,-10.0,-5.0,1651069392062380.0,3
1490,2.0,-3.0,-7.0,-6.0,-4.0,2.0,11.0,8.0,1651069392074374.0,3
1491,-6.0,1.0,9.0,8.0,3.0,3.0,5.0,3.0,1651069392074374.0,3
1492,-4.0,-3.0,-8.0,-2.0,-4.0,-2.0,5.0,3.0,1651069392090349.0,3
1493,-4.0,-3.0,-14.0,0.0,5.0,1.0,-13.0,-8.0,1651069392090349.0,3
1494,-1.0,-1.0,-2.0,-5.0,-2.0,-1.0,-1.0,-5.0,1651069392098388.0,3
1495,1.0,1.0,4.0,-6.0,-3.0,-2.0,18.0,7.0,1651069392098388.0,3
1496,-1.0,1.0,-2.0,10.0,4.0,3.0,0.0,1.0,1651069392099338.0,3
1497,8.0,2.0,8.0,-2.0,-2.0,0.0,1.0,0.0,1651069392099338.0,3
1498,-5.0,-1.0,1.0,-3.0,-3.0,-5.0,-10.0,-2.0,1651069392120449.0,3
1499,-4.0,-3.0,-5.0,15.0,5.0,-3.0,-9.0,-8.0,1651069392120449.0,3
1500,2.0,3.0,6.0,-9.0,-2.0,-1.0,1.0,1.0,1651069392122402.0,3
1501,-6.0,-1.0,-2.0,-10.0,-6.0,0.0,10.0,9.0,1651069392122402.0,3
1502,0.0,-3.0,-2.0,6.0,5.0,0.0,-4.0,0.0,1651069392134626.0,3
1503,-2.0,3.0,10.0,1.0,3.0,-1.0,-5.0,-4.0,1651069392134626.0,3
1504,1.0,1.0,1.0,2.0,1.0,3.0,5.0,7.0,1651069392142608.0,3
1505,6.0,0.0,-9.0,-9.0,1.0,-2.0,-11.0,-7.0,1651069392142608.0,3
1506,-13.0,3.0,29.0,27.0,5.0,5.0,15.0,6.0,1651069392165785.0,3
1507,14.0,0.0,-26.0,-9.0,1.0,3.0,-1.0,1.0,1651069392165785.0,3
1508,-3.0,-4.0,2.0,24.0,4.0,-1.0,-1.0,-1.0,1651069392166754.0,3
1509,-1.0,-3.0,-16.0,-16.0,1.0,1.0,-4.0,-8.0,1651069392166754.0,3
1510,5.0,7.0,26.0,-7.0,-3.0,0.0,3.0,5.0,1651069392180898.0,3
1511,-7.0,-2.0,10.0,14.0,6.0,-2.0,-6.0,-2.0,1651069392180898.0,3
1512,0.0,-2.0,-1.0,0.0,-4.0,0.0,7.0,2.0,1651069392181829.0,3
1513,-3.0,-3.0,-10.0,-9.0,-4.0,-5.0,-3.0,-2.0,1651069392181829.0,3
1514,2.0,-2.0,-2.0,-1.0,-6.0,-4.0,-7.0,-7.0,1651069392194586.0,3
1515,-6.0,-3.0,-4.0,-5.0,0.0,-3.0,-9.0,-4.0,1651069392194586.0,3
1516,15.0,23.0,16.0,-4.0,-1.0,3.0,5.0,4.0,1651069392202961.0,3
1517,-5.0,-17.0,-19.0,1.0,3.0,0.0,2.0,2.0,1651069392202961.0,3
1518,5.0,-2.0,-7.0,-1.0,-1.0,-4.0,-4.0,4.0,1651069392218117.0,3
1519,-7.0,-3.0,-1.0,-4.0,-10.0,-7.0,-10.0,-7.0,1651069392218117.0,3
1520,1.0,2.0,3.0,-6.0,-8.0,-2.0,7.0,-1.0,1651069392220054.0,3
1521,1.0,2.0,8.0,15.0,5.0,6.0,1.0,-7.0,1651069392220054.0,3
1522,5.0,-2.0,-14.0,-16.0,0.0,5.0,18.0,8.0,1651069392240342.0,3
1523,5.0,2.0,6.0,17.0,6.0,0.0,1.0,0.0,1651069392240342.0,3
1524,-13.0,-8.0,-9.0,-4.0,-7.0,-4.0,-5.0,-2.0,1651069392242284.0,3
1525,14.0,2.0,4.0,-2.0,-6.0,-7.0,-1.0,4.0,1651069392242284.0,3
1526,0.0,-2.0,-9.0,7.0,8.0,0.0,-12.0,-10.0,1651069392254396.0,3
1527,-5.0,-4.0,-7.0,-19.0,-5.0,-2.0,3.0,-1.0,1651069392254396.0,3
1528,-6.0,-8.0,-2.0,-8.0,-4.0,2.0,2.0,0.0,1651069392263453.0,3
1529,-6.0,4.0,10.0,9.0,4.0,-1.0,-8.0,-3.0,1651069392263453.0,3
1530,-1.0,0.0,-5.0,3.0,-5.0,-5.0,-11.0,-3.0,1651069392278529.0,3
1531,2.0,2.0,5.0,9.0,8.0,1.0,-1.0,0.0,1651069392278529.0,3
1532,-5.0,-6.0,-1.0,-8.0,-7.0,-7.0,-7.0,-4.0,1651069392279526.0,3
1533,18.0,9.0,-18.0,-19.0,1.0,6.0,-2.0,1.0,1651069392279526.0,3
1534,-7.0,-5.0,3.0,2.0,2.0,-2.0,3.0,0.0,1651069392300886.0,3
1535,-4.0,-1.0,7.0,-2.0,-5.0,3.0,-4.0,3.0,1651069392300886.0,3
1536,1.0,-2.0,-4.0,14.0,18.0,2.0,-1.0,1.0,1651069392301649.0,3
1537,-1.0,7.0,12.0,13.0,1.0,2.0,4.0,-1.0,1651069392301649.0,3
1538,0.0,-3.0,-5.0,-11.0,1.0,0.0,0.0,0.0,1651069392323411.0,3
1539,-3.0,-1.0,-4.0,-12.0,-8.0,-5.0,-3.0,2.0,1651069392323411.0,3
1540,2.0,-1.0,-5.0,-2.0,-8.0,-4.0,-5.0,-4.0,1651069392324630.0,3
1541,0.0,1.0,15.0,18.0,1.0,-1.0,4.0,12.0,1651069392324630.0,3
1542,-11.0,-8.0,-12.0,-10.0,-7.0,2.0,-2.0,-6.0,1651069392337759.0,3
1543,0.0,1.0,11.0,18.0,10.0,2.0,2.0,-1.0,1651069392337759.0,3
1544,3.0,1.0,0.0,-7.0,-2.0,1.0,-7.0,-2.0,1651069392339695.0,3
1545,-8.0,-3.0,-3.0,-8.0,1.0,0.0,6.0,0.0,1651069392339695.0,3
1546,-2.0,2.0,0.0,-12.0,-5.0,0.0,1.0,1.0,1651069392360499.0,3
1547,18.0,7.0,5.0,7.0,0.0,0.0,3.0,2.0,1651069392360499.0,3
1548,1.0,1.0,-3.0,-8.0,0.0,5.0,5.0,4.0,1651069392362523.0,3
1549,-7.0,-3.0,6.0,7.0,0.0,-4.0,-7.0,-7.0,1651069392362523.0,3
1550,6.0,1.0,-10.0,1.0,-3.0,-2.0,-5.0,-2.0,1651069392383513.0,3
1551,-17.0,-2.0,22.0,-5.0,-4.0,1.0,1.0,-7.0,1651069392383513.0,3
1552,0.0,-1.0,-15.0,-8.0,4.0,-2.0,-1.0,-2.0,1651069392384511.0,3
1553,-4.0,-8.0,-1.0,3.0,-2.0,-6.0,-7.0,-8.0,1651069392384511.0,3
1554,4.0,5.0,4.0,-1.0,-1.0,-1.0,-8.0,0.0,1651069392398540.0,3
1555,1.0,-1.0,-6.0,6.0,-2.0,1.0,10.0,3.0,1651069392398540.0,3
1556,-1.0,0.0,13.0,0.0,2.0,1.0,3.0,1.0,1651069392400468.0,3
1557,-4.0,-1.0,-10.0,-12.0,-5.0,-4.0,-2.0,2.0,1651069392400468.0,3
1558,1.0,3.0,2.0,2.0,-6.0,-3.0,1.0,1.0,1651069392420371.0,3
1559,-1.0,-1.0,1.0,-3.0,-2.0,2.0,-7.0,-6.0,1651069392420371.0,3
1560,2.0,-1.0,1.0,6.0,16.0,4.0,1.0,7.0,1651069392422365.0,3
1561,-1.0,1.0,1.0,5.0,-3.0,3.0,8.0,5.0,1651069392422365.0,3
1562,3.0,1.0,3.0,-2.0,-1.0,1.0,7.0,-3.0,1651069392442416.0,3
1563,-1.0,-4.0,-19.0,-8.0,0.0,3.0,-3.0,2.0,1651069392442416.0,3
1564,-6.0,-1.0,7.0,5.0,-5.0,-6.0,-16.0,-20.0,1651069392444423.0,3
1565,3.0,5.0,7.0,14.0,7.0,5.0,12.0,17.0,1651069392444423.0,3
1566,-3.0,-7.0,-21.0,-32.0,-4.0,-3.0,-4.0,-3.0,1651069392457445.0,3
1567,-2.0,1.0,2.0,2.0,-3.0,-4.0,-1.0,0.0,1651069392457445.0,3
1568,15.0,-3.0,-4.0,13.0,0.0,-6.0,-17.0,-11.0,1651069392464426.0,3
1569,-6.0,-5.0,1.0,-5.0,-3.0,0.0,2.0,0.0,1651069392464426.0,3
1570,-7.0,-6.0,-6.0,-1.0,-6.0,-4.0,-1.0,0.0,1651069392480885.0,3
1571,0.0,-1.0,1.0,9.0,1.0,-1.0,2.0,-1.0,1651069392480885.0,3
1572,-7.0,1.0,0.0,-9.0,-7.0,-4.0,-3.0,-1.0,1651069392481641.0,3
1573,1.0,-1.0,0.0,2.0,0.0,4.0,13.0,5.0,1651069392481641.0,3
1574,3.0,1.0,0.0,-1.0,-4.0,-2.0,-3.0,1.0,1651069392502720.0,3
1575,-2.0,-2.0,-1.0,3.0,6.0,-1.0,-4.0,0.0,1651069392502720.0,3
1576,-2.0,-2.0,-3.0,-14.0,-7.0,0.0,7.0,5.0,1651069392504715.0,3
1577,-2.0,-4.0,0.0,1.0,1.0,-1.0,-10.0,-13.0,1651069392504715.0,3
1578,0.0,5.0,11.0,9.0,3.0,4.0,10.0,4.0,1651069392517721.0,3
1579,0.0,-2.0,15.0,13.0,-2.0,-5.0,-4.0,2.0,1651069392517721.0,3
1580,-2.0,-3.0,-22.0,-26.0,-9.0,-1.0,3.0,4.0,1651069392524641.0,3
1581,-1.0,0.0,-6.0,2.0,5.0,2.0,1.0,-2.0,1651069392524641.0,3
1582,2.0,-1.0,-3.0,4.0,5.0,4.0,6.0,-1.0,1651069392540744.0,3
1583,-1.0,-1.0,5.0,2.0,2.0,1.0,-4.0,-1.0,1651069392540744.0,3
1584,3.0,3.0,14.0,4.0,-1.0,4.0,15.0,11.0,1651069392541674.0,3
1585,-4.0,-1.0,7.0,3.0,-6.0,-4.0,-12.0,-4.0,1651069392541674.0,3
1586,2.0,2.0,0.0,6.0,4.0,5.0,7.0,4.0,1651069392563500.0,3
1587,-2.0,-4.0,-19.0,-10.0,-4.0,-3.0,2.0,-2.0,1651069392563500.0,3
1588,-3.0,0.0,8.0,12.0,5.0,3.0,8.0,-5.0,1651069392564506.0,3
1589,-13.0,-1.0,-8.0,-15.0,-11.0,-5.0,4.0,5.0,1651069392564506.0,3
1590,12.0,3.0,8.0,9.0,3.0,-1.0,-7.0,-4.0,1651069392577708.0,3
1591,0.0,0.0,-12.0,3.0,6.0,5.0,-2.0,-3.0,1651069392577708.0,3
1592,-1.0,2.0,17.0,-6.0,-2.0,5.0,9.0,7.0,1651069392584662.0,3
1593,-7.0,-3.0,-17.0,8.0,6.0,-7.0,-20.0,-17.0,1651069392584662.0,3
1594,-1.0,0.0,1.0,-3.0,-2.0,-1.0,-1.0,2.0,1651069392607962.0,3
1595,-2.0,-6.0,-21.0,-8.0,2.0,4.0,9.0,2.0,1651069392607962.0,3
1596,-1.0,5.0,19.0,8.0,0.0,-5.0,-15.0,-6.0,1651069392609956.0,3
1597,2.0,-1.0,3.0,0.0,1.0,-1.0,-2.0,-4.0,1651069392609956.0,3
1598,-1.0,2.0,2.0,2.0,2.0,1.0,-8.0,0.0,1651069392623435.0,3
1599,1.0,-5.0,-9.0,-10.0,-7.0,-3.0,1.0,5.0,1651069392623435.0,3
1600,-3.0,-3.0,-11.0,8.0,4.0,3.0,9.0,3.0,1651069392624947.0,3
1601,3.0,3.0,15.0,-3.0,-2.0,2.0,1.0,3.0,1651069392624947.0,3
1602,-4.0,-4.0,-1.0,-6.0,-6.0,-7.0,-3.0,-1.0,1651069392637029.0,3
1603,-1.0,1.0,5.0,-8.0,-2.0,-4.0,-2.0,-4.0,1651069392637029.0,3
1604,3.0,2.0,-6.0,-1.0,-8.0,0.0,0.0,4.0,1651069392644074.0,3
1605,1.0,-2.0,-9.0,-6.0,-1.0,-3.0,-4.0,3.0,1651069392644074.0,3
1606,1.0,3.0,12.0,6.0,5.0,4.0,-2.0,-7.0,1651069392661011.0,3
1607,0.0,-1.0,-7.0,-11.0,2.0,3.0,5.0,3.0,1651069392661011.0,3
1608,-3.0,-2.0,-3.0,-3.0,-2.0,-4.0,-6.0,-2.0,1651069392661966.0,3
1609,3.0,1.0,2.0,-2.0,-2.0,-3.0,-3.0,1.0,1651069392661966.0,3
1610,-6.0,-4.0,-10.0,-2.0,0.0,-3.0,-9.0,-10.0,1651069392683449.0,3
1611,4.0,3.0,6.0,-3.0,0.0,5.0,13.0,7.0,1651069392683449.0,3
1612,-2.0,-4.0,-6.0,8.0,0.0,-4.0,-4.0,1.0,1651069392684456.0,3
1613,2.0,2.0,14.0,2.0,-2.0,1.0,-3.0,-3.0,1651069392684456.0,3
1614,-5.0,-7.0,-23.0,-9.0,2.0,0.0,-7.0,-5.0,1651069392697426.0,3
1615,0.0,3.0,4.0,0.0,-3.0,-4.0,-4.0,0.0,1651069392697426.0,3
1616,1.0,1.0,2.0,5.0,8.0,9.0,7.0,0.0,1651069392704408.0,3
1617,0.0,-1.0,1.0,2.0,0.0,-2.0,-1.0,0.0,1651069392704408.0,3
1618,-3.0,-1.0,2.0,-4.0,-9.0,-1.0,-9.0,-4.0,1651069392721469.0,3
1619,1.0,1.0,1.0,-6.0,-2.0,3.0,7.0,3.0,1651069392721469.0,3
1620,0.0,-1.0,-7.0,-3.0,0.0,0.0,2.0,-1.0,1651069392722471.0,3
1621,-2.0,-6.0,1.0,4.0,-3.0,-3.0,-6.0,-6.0,1651069392722471.0,3
1622,-2.0,-2.0,-5.0,-24.0,-12.0,-6.0,0.0,-4.0,1651069392743430.0,3
1623,0.0,-1.0,-2.0,6.0,-1.0,-3.0,3.0,7.0,1651069392743430.0,3
1624,-1.0,-2.0,1.0,1.0,3.0,2.0,9.0,8.0,1651069392744400.0,3
1625,-2.0,-1.0,-2.0,-4.0,0.0,3.0,-1.0,-4.0,1651069392744400.0,3
1626,2.0,1.0,-4.0,10.0,7.0,1.0,5.0,3.0,1651069392757836.0,3
1627,0.0,0.0,1.0,1.0,-2.0,-1.0,-5.0,-3.0,1651069392757836.0,3
1628,-2.0,-1.0,0.0,-2.0,-8.0,-9.0,-12.0,-9.0,1651069392763928.0,3
1629,5.0,2.0,-1.0,2.0,7.0,8.0,16.0,10.0,1651069392763928.0,3
1630,-2.0,-3.0,-4.0,-2.0,-7.0,-10.0,-5.0,-1.0,1651069392780885.0,3
1631,1.0,1.0,8.0,8.0,3.0,-2.0,-4.0,-3.0,1651069392780885.0,3
1632,-2.0,-3.0,-7.0,-5.0,0.0,0.0,-3.0,-1.0,1651069392782045.0,3
1633,0.0,-1.0,-1.0,-5.0,-5.0,0.0,-6.0,-9.0,1651069392782045.0,3
1634,1.0,2.0,10.0,10.0,5.0,6.0,6.0,7.0,1651069392803188.0,3
1635,-2.0,-2.0,2.0,4.0,0.0,-3.0,-8.0,-7.0,1651069392803188.0,3
1636,-1.0,-1.0,-5.0,-2.0,-3.0,-6.0,-2.0,0.0,1651069392804186.0,3
1637,0.0,-1.0,-4.0,-5.0,-2.0,-1.0,5.0,2.0,1651069392804186.0,3
1638,-1.0,1.0,4.0,3.0,5.0,1.0,0.0,-1.0,1651069392817164.0,3
1639,0.0,1.0,-1.0,0.0,1.0,1.0,-1.0,-2.0,1651069392817164.0,3
1640,-3.0,-1.0,-1.0,-4.0,-5.0,-2.0,0.0,0.0,1651069392825266.0,3
1641,-1.0,-1.0,-3.0,-3.0,-4.0,-5.0,0.0,0.0,1651069392825266.0,3
1642,0.0,-1.0,5.0,4.0,1.0,0.0,2.0,1.0,1651069392840466.0,3
1643,-1.0,-2.0,-3.0,-1.0,-1.0,1.0,-1.0,-1.0,1651069392840466.0,3
1644,1.0,2.0,3.0,5.0,2.0,1.0,-1.0,-1.0,1651069392842433.0,3
1645,-1.0,0.0,-3.0,-6.0,1.0,6.0,2.0,2.0,1651069392842433.0,3
1646,-1.0,0.0,1.0,4.0,1.0,-2.0,2.0,1.0,1651069392863149.0,3
1647,1.0,2.0,1.0,-2.0,0.0,-1.0,-3.0,-2.0,1651069392863149.0,3
1648,-2.0,-2.0,-2.0,1.0,-1.0,2.0,4.0,1.0,1651069392864122.0,3
1649,1.0,-1.0,-4.0,-1.0,-1.0,0.0,-3.0,0.0,1651069392864122.0,3
1650,-1.0,-1.0,0.0,-1.0,0.0,-1.0,1.0,-1.0,1651069392876268.0,3
1651,-1.0,-1.0,0.0,1.0,-2.0,-3.0,-1.0,-1.0,1651069392876268.0,3
1652,-4.0,0.0,-1.0,0.0,0.0,0.0,-3.0,-1.0,1651069392885325.0,3
1653,0.0,-1.0,-2.0,-3.0,-3.0,-4.0,0.0,1.0,1651069392885325.0,3
1654,1.0,0.0,0.0,0.0,-1.0,-2.0,0.0,1.0,1651069392900318.0,3
1655,-1.0,-1.0,-2.0,-1.0,-1.0,-2.0,-3.0,-3.0,1651069392900318.0,3
1656,0.0,-2.0,-2.0,-4.0,1.0,0.0,0.0,-1.0,1651069392902246.0,3
1657,-3.0,-1.0,-1.0,-1.0,1.0,0.0,1.0,0.0,1651069392902246.0,3
1658,0.0,-1.0,0.0,0.0,0.0,1.0,0.0,0.0,1651069392923404.0,3
1659,-1.0,-3.0,-2.0,-3.0,-4.0,-3.0,-2.0,0.0,1651069392923404.0,3
1660,1.0,-2.0,1.0,-2.0,0.0,0.0,-1.0,-1.0,1651069392924341.0,3
1661,-1.0,1.0,-2.0,2.0,-1.0,-1.0,-2.0,-1.0,1651069392924341.0,3
1662,-1.0,-1.0,1.0,1.0,1.0,4.0,0.0,-3.0,1651069392936426.0,3
1663,0.0,2.0,-2.0,0.0,-1.0,0.0,4.0,4.0,1651069392936426.0,3
1664,0.0,1.0,0.0,-1.0,2.0,-1.0,0.0,1.0,1651069392945562.0,3
1665,-1.0,-2.0,-2.0,-1.0,-3.0,-4.0,-4.0,-4.0,1651069392945562.0,3
1666,-1.0,-1.0,1.0,0.0,-1.0,-1.0,0.0,1.0,1651069392960610.0,3
1667,-1.0,0.0,-1.0,-1.0,0.0,1.0,-1.0,-2.0,1651069392960610.0,3
1668,-2.0,-1.0,-1.0,0.0,0.0,1.0,-1.0,0.0,1651069392962541.0,3
1669,3.0,-2.0,-1.0,0.0,-1.0,0.0,4.0,1.0,1651069392962541.0,3
1670,0.0,-1.0,-1.0,-1.0,0.0,0.0,2.0,0.0,1651069392982754.0,3
1671,-1.0,0.0,0.0,2.0,1.0,1.0,-1.0,-1.0,1651069392982754.0,3
1672,-2.0,0.0,0.0,0.0,-2.0,-1.0,-1.0,0.0,1651069392984682.0,3
1673,-3.0,0.0,0.0,-1.0,0.0,0.0,1.0,-2.0,1651069392984682.0,3
1674,0.0,-3.0,-3.0,-2.0,-1.0,-2.0,0.0,-1.0,1651069392996716.0,3
1675,0.0,-3.0,-1.0,1.0,-1.0,1.0,0.0,-1.0,1651069392996716.0,3
1676,0.0,-1.0,0.0,1.0,-1.0,-2.0,0.0,0.0,1651069393005741.0,3
1677,0.0,-2.0,1.0,1.0,0.0,1.0,1.0,2.0,1651069393005741.0,3
1678,-2.0,0.0,1.0,0.0,0.0,-1.0,-1.0,-2.0,1651069393020612.0,3
1679,-2.0,-1.0,-2.0,-1.0,-3.0,-3.0,-3.0,-3.0,1651069393020612.0,3
1680,0.0,-2.0,-1.0,-1.0,-2.0,1.0,0.0,1.0,1651069393022586.0,3
1681,0.0,-1.0,-1.0,0.0,0.0,0.0,-2.0,-2.0,1651069393022586.0,3
1682,1.0,0.0,-1.0,1.0,0.0,0.0,0.0,0.0,1651069393042699.0,3
1683,-2.0,-1.0,0.0,-1.0,-1.0,-2.0,-2.0,1.0,1651069393042699.0,3
1684,2.0,0.0,1.0,-1.0,-1.0,-1.0,-2.0,-1.0,1651069393044631.0,3
1685,0.0,0.0,0.0,0.0,-1.0,-1.0,0.0,1.0,1651069393044631.0,3
1686,-1.0,0.0,0.0,-2.0,-2.0,-2.0,-3.0,0.0,1651069393056532.0,3
1687,-1.0,-1.0,0.0,-1.0,2.0,-2.0,0.0,-1.0,1651069393056532.0,3
1688,-1.0,0.0,0.0,0.0,0.0,1.0,1.0,2.0,1651069393065568.0,3
1689,-1.0,-1.0,-3.0,-1.0,1.0,4.0,5.0,0.0,1651069393065568.0,3
1690,0.0,0.0,1.0,-2.0,-4.0,-4.0,-2.0,-1.0,1651069393080594.0,3
1691,0.0,2.0,1.0,3.0,3.0,0.0,2.0,-1.0,1651069393080594.0,3
1692,0.0,0.0,0.0,-1.0,-1.0,-1.0,-2.0,-1.0,1651069393082523.0,3
1693,0.0,-2.0,-3.0,-1.0,-1.0,-1.0,-1.0,1.0,1651069393082523.0,3
1694,-3.0,-3.0,-1.0,-1.0,-2.0,0.0,0.0,0.0,1651069393103402.0,3
1695,-2.0,-1.0,0.0,-2.0,-3.0,-1.0,-1.0,-2.0,1651069393103402.0,3
1696,-1.0,0.0,-2.0,0.0,1.0,-2.0,-4.0,-2.0,1651069393104401.0,3
1697,1.0,0.0,3.0,1.0,1.0,1.0,1.0,2.0,1651069393104401.0,3
1698,-2.0,-1.0,-2.0,-1.0,1.0,1.0,1.0,-1.0,1651069393116433.0,3
1699,0.0,-1.0,0.0,-2.0,-2.0,-1.0,-2.0,-1.0,1651069393116433.0,3
1700,-1.0,1.0,-1.0,-3.0,-1.0,-1.0,-1.0,-1.0,1651069393125291.0,3
1701,-1.0,-1.0,-1.0,-1.0,-3.0,-4.0,-3.0,-3.0,1651069393125291.0,3
1702,1.0,-1.0,0.0,1.0,0.0,-2.0,-2.0,0.0,1651069393140778.0,3
1703,2.0,-2.0,0.0,-1.0,2.0,3.0,0.0,0.0,1651069393140778.0,3
1704,-1.0,0.0,-1.0,0.0,2.0,5.0,3.0,0.0,1651069393141708.0,3
1705,0.0,0.0,0.0,-1.0,0.0,0.0,-2.0,0.0,1651069393141708.0,3
1706,-2.0,0.0,1.0,2.0,1.0,4.0,2.0,0.0,1651069393163251.0,3
1707,-1.0,0.0,-1.0,-1.0,-3.0,-3.0,-1.0,-1.0,1651069393163251.0,3
1708,0.0,-1.0,-2.0,-1.0,-3.0,-4.0,-2.0,-2.0,1651069393164182.0,3
1709,0.0,0.0,2.0,0.0,0.0,-1.0,0.0,-3.0,1651069393164182.0,3
1710,0.0,-3.0,-3.0,-2.0,-1.0,-1.0,0.0,1.0,1651069393176272.0,3
1711,-1.0,-1.0,-3.0,-2.0,-2.0,0.0,0.0,-2.0,1651069393176272.0,3
1712,0.0,0.0,0.0,2.0,1.0,0.0,0.0,0.0,1651069393191497.0,3
1713,-1.0,1.0,0.0,0.0,-1.0,-4.0,-2.0,0.0,1651069393191497.0,3
1714,1.0,0.0,-1.0,-1.0,-2.0,0.0,0.0,-1.0,1651069393200473.0,3
1715,-2.0,-2.0,-4.0,-3.0,0.0,3.0,1.0,0.0,1651069393200473.0,3
1716,-1.0,0.0,2.0,3.0,-2.0,-2.0,0.0,-1.0,1651069393202401.0,3
1717,1.0,0.0,-1.0,1.0,1.0,0.0,-3.0,-1.0,1651069393202401.0,3
1718,0.0,0.0,1.0,1.0,0.0,1.0,2.0,1.0,1651069393223474.0,3
1719,-1.0,1.0,1.0,-1.0,0.0,-1.0,0.0,0.0,1651069393223474.0,3
1720,-2.0,-4.0,-2.0,-2.0,-4.0,-2.0,0.0,-1.0,1651069393224481.0,3
1721,-1.0,0.0,0.0,0.0,0.0,0.0,0.0,-1.0,1651069393224481.0,3
1722,-1.0,-3.0,-3.0,-1.0,0.0,0.0,-1.0,0.0,1651069393245492.0,3
1723,0.0,1.0,1.0,2.0,0.0,-2.0,-2.0,-2.0,1651069393245492.0,3
1724,0.0,-1.0,-1.0,-5.0,1.0,2.0,1.0,-1.0,1651069393247487.0,3
1725,-1.0,1.0,2.0,2.0,0.0,-2.0,-1.0,0.0,1651069393247487.0,3
1726,0.0,0.0,-4.0,-7.0,-3.0,-1.0,1.0,-1.0,1651069393260519.0,3
1727,0.0,-2.0,-3.0,-3.0,-2.0,-1.0,-1.0,0.0,1651069393260519.0,3
1728,-1.0,0.0,-1.0,0.0,-1.0,-1.0,-2.0,0.0,1651069393262461.0,3
1729,-1.0,-2.0,-3.0,1.0,-1.0,2.0,-1.0,0.0,1651069393262461.0,3
1730,1.0,2.0,3.0,0.0,3.0,-1.0,-1.0,0.0,1651069393282768.0,0
1731,-1.0,0.0,0.0,1.0,-1.0,1.0,0.0,-1.0,1651069393282768.0,0
1732,-1.0,0.0,1.0,-1.0,-2.0,-2.0,-2.0,-1.0,1651069393284696.0,0
1733,0.0,-3.0,-2.0,-3.0,0.0,1.0,-2.0,-1.0,1651069393284696.0,0
1734,0.0,-1.0,0.0,2.0,1.0,1.0,2.0,1.0,1651069393305057.0,0
1735,-1.0,-1.0,-1.0,0.0,0.0,-1.0,-2.0,-1.0,1651069393305057.0,0
1736,1.0,-1.0,-1.0,-1.0,-2.0,-4.0,-2.0,-2.0,1651069393307051.0,0
1737,-1.0,-1.0,0.0,0.0,-2.0,-1.0,1.0,0.0,1651069393307051.0,0
1738,0.0,1.0,0.0,2.0,-1.0,1.0,-2.0,0.0,1651069393320574.0,0
1739,-2.0,-2.0,-1.0,0.0,-3.0,-2.0,-2.0,0.0,1651069393320574.0,0
1740,0.0,1.0,-2.0,1.0,0.0,-2.0,-1.0,0.0,1651069393321575.0,0
1741,-2.0,-1.0,-3.0,-2.0,-1.0,-4.0,0.0,-1.0,1651069393321575.0,0
1742,0.0,2.0,0.0,3.0,3.0,2.0,1.0,-1.0,1651069393343351.0,0
1743,-2.0,-1.0,-3.0,0.0,-1.0,0.0,1.0,-1.0,1651069393343351.0,0
1744,0.0,1.0,0.0,1.0,0.0,0.0,1.0,-2.0,1651069393344337.0,0
1745,0.0,-2.0,-2.0,-2.0,-3.0,-3.0,-2.0,-1.0,1651069393344337.0,0
1746,-1.0,-1.0,0.0,-1.0,-2.0,-3.0,-4.0,0.0,1651069393365615.0,0
1747,-1.0,0.0,-1.0,0.0,1.0,-2.0,0.0,-1.0,1651069393365615.0,0
1748,0.0,0.0,-2.0,-1.0,-1.0,1.0,-1.0,1.0,1651069393366602.0,0
1749,-1.0,-1.0,-2.0,0.0,-2.0,1.0,-1.0,0.0,1651069393366602.0,0
1750,-1.0,-1.0,2.0,-2.0,1.0,0.0,-1.0,-2.0,1651069393379576.0,0
1751,1.0,0.0,0.0,0.0,0.0,-1.0,-3.0,0.0,1651069393379576.0,0
1752,0.0,1.0,-2.0,-1.0,-2.0,-1.0,1.0,1.0,1651069393386618.0,0
1753,0.0,-1.0,-2.0,-1.0,1.0,3.0,0.0,1.0,1651069393386618.0,0
1754,-1.0,0.0,-2.0,-1.0,-4.0,-5.0,-3.0,-1.0,1651069393403383.0,0
1755,0.0,0.0,1.0,2.0,1.0,3.0,2.0,0.0,1651069393403383.0,0
1756,-3.0,-1.0,0.0,-2.0,2.0,-1.0,0.0,-2.0,1651069393404511.0,0
1757,-2.0,-1.0,0.0,-1.0,-2.0,-2.0,-1.0,1.0,1651069393404511.0,0
1758,0.0,-2.0,0.0,0.0,0.0,-2.0,0.0,-2.0,1651069393425737.0,0
1759,2.0,0.0,-2.0,-3.0,-1.0,0.0,-2.0,-1.0,1651069393425737.0,0
1760,0.0,-2.0,-3.0,0.0,1.0,1.0,-2.0,-1.0,1651069393426665.0,0
1761,0.0,-1.0,-1.0,-3.0,-3.0,-3.0,0.0,-1.0,1651069393426665.0,0
1762,0.0,0.0,-1.0,0.0,1.0,1.0,1.0,0.0,1651069393440319.0,0
1763,0.0,0.0,0.0,0.0,-2.0,-1.0,-1.0,0.0,1651069393440319.0,0
1764,0.0,-1.0,1.0,1.0,0.0,1.0,0.0,1.0,1651069393446671.0,0
1765,-2.0,1.0,0.0,-2.0,-2.0,-5.0,-1.0,-2.0,1651069393446671.0,0
1766,0.0,-1.0,-2.0,0.0,-1.0,0.0,-1.0,0.0,1651069393462508.0,0
1767,-1.0,-1.0,0.0,-1.0,1.0,1.0,2.0,0.0,1651069393462508.0,0
1768,0.0,0.0,-3.0,-2.0,-2.0,-2.0,1.0,2.0,1651069393470363.0,0
1769,-1.0,0.0,0.0,0.0,1.0,0.0,0.0,-1.0,1651069393470363.0,0
1770,-2.0,0.0,-2.0,-1.0,-1.0,-1.0,-2.0,-1.0,1651069393485911.0,0
1771,-3.0,0.0,-1.0,-1.0,0.0,-1.0,-1.0,-2.0,1651069393485911.0,0
1772,-1.0,-2.0,0.0,0.0,0.0,-1.0,-1.0,-1.0,1651069393487642.0,0
1773,2.0,1.0,0.0,0.0,0.0,2.0,5.0,0.0,1651069393487642.0,0
1774,0.0,-1.0,0.0,-1.0,0.0,-1.0,0.0,-1.0,1651069393499600.0,0
1775,-1.0,-2.0,-2.0,-3.0,-3.0,-5.0,-1.0,-1.0,1651069393499600.0,0
1776,1.0,0.0,1.0,0.0,-1.0,-1.0,-2.0,-1.0,1651069393506647.0,0
1777,-3.0,-2.0,0.0,0.0,0.0,0.0,-1.0,-1.0,1651069393506647.0,0
1778,3.0,1.0,-2.0,-1.0,2.0,1.0,-1.0,1.0,1651069393523434.0,0
1779,0.0,0.0,-2.0,-4.0,-6.0,-1.0,0.0,-1.0,1651069393523434.0,0
1780,0.0,-1.0,1.0,-2.0,1.0,1.0,0.0,-1.0,1651069393524223.0,0
1781,-1.0,0.0,0.0,0.0,-1.0,0.0,-3.0,2.0,1651069393524223.0,0
1782,-2.0,1.0,1.0,0.0,-4.0,-2.0,1.0,-1.0,1651069393553414.0,0
1783,0.0,0.0,-1.0,1.0,0.0,1.0,-1.0,0.0,1651069393553414.0,0
1784,0.0,-2.0,-1.0,0.0,-1.0,-2.0,-1.0,0.0,1651069393554367.0,0
1785,-1.0,0.0,-1.0,-3.0,0.0,3.0,2.0,-1.0,1651069393554367.0,0
1786,-3.0,0.0,-1.0,-1.0,1.0,1.0,-2.0,0.0,1651069393559384.0,0
1787,-2.0,1.0,-2.0,1.0,-1.0,0.0,-1.0,0.0,1651069393559384.0,0
1788,0.0,0.0,-2.0,-3.0,-3.0,-1.0,-1.0,-3.0,1651069393566335.0,0
1789,0.0,-1.0,-2.0,1.0,0.0,-1.0,-4.0,-2.0,1651069393566335.0,0
1790,0.0,-3.0,-1.0,-1.0,-1.0,2.0,5.0,1.0,1651069393582661.0,0
1791,-2.0,-1.0,0.0,-1.0,0.0,-1.0,0.0,-1.0,1651069393582661.0,0
1792,0.0,-1.0,0.0,0.0,-3.0,-3.0,-1.0,-1.0,1651069393584588.0,0
1793,2.0,0.0,2.0,5.0,-1.0,-3.0,-1.0,-1.0,1651069393584588.0,0
1794,0.0,-4.0,-2.0,-3.0,-4.0,-1.0,0.0,-1.0,1651069393605583.0,0
1795,0.0,-1.0,2.0,1.0,0.0,1.0,1.0,0.0,1651069393605583.0,0
1796,-1.0,-1.0,-2.0,0.0,0.0,1.0,0.0,0.0,1651069393606580.0,0
1797,-1.0,0.0,1.0,0.0,1.0,1.0,-1.0,-1.0,1651069393606580.0,0
1798,-2.0,0.0,-2.0,0.0,-2.0,-1.0,-2.0,-1.0,1651069393619670.0,0
1799,0.0,0.0,1.0,1.0,-2.0,0.0,0.0,1.0,1651069393619670.0,0
1800,0.0,-3.0,-5.0,-2.0,-3.0,-1.0,-2.0,-1.0,1651069393626719.0,0
1801,1.0,1.0,0.0,1.0,-1.0,-3.0,-2.0,-1.0,1651069393626719.0,0
1802,-1.0,0.0,-2.0,-3.0,-2.0,-1.0,1.0,0.0,1651069393642747.0,0
1803,1.0,-1.0,1.0,-1.0,2.0,0.0,-2.0,0.0,1651069393642747.0,0
1804,-1.0,1.0,1.0,1.0,2.0,1.0,1.0,-1.0,1651069393644676.0,0
1805,0.0,-1.0,-3.0,-4.0,-1.0,1.0,-1.0,0.0,1651069393644676.0,0
1806,-2.0,-2.0,2.0,1.0,0.0,-1.0,-2.0,-2.0,1651069393665920.0,0
1807,0.0,-1.0,-2.0,2.0,3.0,-1.0,-1.0,-2.0,1651069393665920.0,0
1808,-1.0,-1.0,0.0,-2.0,-5.0,-2.0,-4.0,1.0,1651069393666849.0,0
1809,-1.0,-1.0,-1.0,-2.0,-2.0,-1.0,0.0,1.0,1651069393666849.0,0
1810,0.0,2.0,-2.0,0.0,-3.0,-1.0,0.0,1.0,1651069393679816.0,0
1811,0.0,1.0,0.0,1.0,1.0,2.0,3.0,1.0,1651069393679816.0,0
1812,-1.0,0.0,1.0,-1.0,3.0,6.0,2.0,-1.0,1651069393686866.0,0
1813,-1.0,0.0,-1.0,-2.0,-2.0,-3.0,-1.0,-1.0,1651069393686866.0,0
1814,0.0,0.0,-1.0,-3.0,0.0,-1.0,-2.0,0.0,1651069393703439.0,0
1815,0.0,1.0,-2.0,-2.0,-1.0,-2.0,-3.0,0.0,1651069393703439.0,0
1816,-1.0,-1.0,-3.0,0.0,-1.0,-1.0,0.0,-2.0,1651069393704453.0,0
1817,-1.0,-1.0,-1.0,-1.0,-1.0,-1.0,-1.0,0.0,1651069393704453.0,0
1818,0.0,1.0,-1.0,0.0,1.0,0.0,0.0,-1.0,1651069393725652.0,0
1819,0.0,2.0,-1.0,1.0,1.0,0.0,-1.0,0.0,1651069393725652.0,0
1820,1.0,1.0,1.0,-1.0,-1.0,-1.0,2.0,-2.0,1651069393727579.0,0
1821,1.0,-1.0,1.0,-1.0,0.0,2.0,0.0,0.0,1651069393727579.0,0
1822,0.0,-3.0,-1.0,-1.0,0.0,-2.0,-2.0,-2.0,1651069393739574.0,0
1823,-4.0,-2.0,-1.0,0.0,-2.0,0.0,2.0,0.0,1651069393739574.0,0
1824,-1.0,-1.0,-2.0,-2.0,1.0,0.0,-1.0,-1.0,1651069393748524.0,0
1825,-2.0,-2.0,-3.0,-1.0,-1.0,-1.0,-1.0,-2.0,1651069393748524.0,0
1826,-1.0,0.0,1.0,2.0,1.0,-3.0,-3.0,-2.0,1651069393763494.0,0
1827,1.0,0.0,3.0,2.0,-2.0,-4.0,-1.0,2.0,1651069393763494.0,0
1828,-1.0,1.0,1.0,1.0,5.0,6.0,3.0,0.0,1651069393764494.0,0
1829,-1.0,-1.0,2.0,-2.0,-1.0,0.0,1.0,0.0,1651069393764494.0,0
1830,-1.0,-1.0,-1.0,2.0,0.0,1.0,-2.0,-1.0,1651069393785493.0,0
1831,-1.0,-2.0,-1.0,-1.0,-2.0,-2.0,-3.0,-1.0,1651069393785493.0,0
1832,-1.0,-2.0,-2.0,-3.0,-3.0,-4.0,-2.0,0.0,1651069393787457.0,0
1833,2.0,0.0,-2.0,1.0,3.0,-1.0,0.0,0.0,1651069393787457.0,0
1834,-1.0,-1.0,0.0,2.0,-2.0,-2.0,-1.0,-1.0,1651069393799458.0,0
1835,0.0,-2.0,-1.0,-1.0,-1.0,1.0,-3.0,-1.0,1651069393799458.0,0
1836,0.0,1.0,2.0,1.0,0.0,0.0,0.0,1.0,1651069393808374.0,0
1837,1.0,2.0,0.0,0.0,0.0,1.0,0.0,1.0,1651069393808374.0,0
1838,-1.0,-1.0,0.0,0.0,0.0,-1.0,3.0,-1.0,1651069393830295.0,0
1839,0.0,0.0,-2.0,-2.0,-1.0,1.0,1.0,-2.0,1651069393830295.0,0
1840,-2.0,-2.0,-1.0,-1.0,-1.0,0.0,-2.0,-3.0,1651069393832292.0,0
1841,-1.0,-2.0,-1.0,0.0,-2.0,-2.0,-2.0,0.0,1651069393832292.0,0
1842,-1.0,1.0,-1.0,0.0,-1.0,0.0,0.0,0.0,1651069393845801.0,0
1843,-1.0,-1.0,-1.0,-4.0,-4.0,-1.0,0.0,-1.0,1651069393845801.0,0
1844,0.0,-1.0,-3.0,0.0,0.0,-2.0,-1.0,0.0,1651069393846807.0,0
1845,-1.0,-1.0,1.0,-3.0,-2.0,-1.0,-4.0,0.0,1651069393846807.0,0
1846,1.0,2.0,0.0,-1.0,-5.0,-6.0,-3.0,0.0,1651069393858829.0,0
1847,0.0,1.0,1.0,0.0,4.0,5.0,6.0,2.0,1651069393858829.0,0
1848,0.0,0.0,-1.0,2.0,-2.0,-1.0,0.0,0.0,1651069393867763.0,0
1849,-2.0,0.0,-1.0,0.0,-2.0,-1.0,2.0,-2.0,1651069393867763.0,0
1850,-1.0,-1.0,0.0,-4.0,-1.0,-1.0,-1.0,0.0,1651069393882756.0,0
1851,-1.0,0.0,0.0,0.0,-1.0,-2.0,-1.0,0.0,1651069393882756.0,0
1852,-1.0,0.0,2.0,-2.0,-1.0,-3.0,0.0,0.0,1651069393884691.0,0
1853,-1.0,-1.0,0.0,1.0,-1.0,-2.0,-1.0,0.0,1651069393884691.0,0
1854,0.0,0.0,1.0,-1.0,1.0,1.0,-3.0,1.0,1651069393905292.0,0
1855,0.0,-1.0,-1.0,0.0,2.0,1.0,-1.0,0.0,1651069393905292.0,0
1856,-2.0,-1.0,-1.0,1.0,1.0,2.0,2.0,-1.0,1651069393907331.0,0
1857,-1.0,-1.0,-1.0,-4.0,-6.0,-2.0,1.0,2.0,1651069393907331.0,0
1858,1.0,-2.0,0.0,0.0,-2.0,-2.0,-1.0,-2.0,1651069393919320.0,0
1859,-1.0,0.0,2.0,1.0,-1.0,-4.0,-3.0,-1.0,1651069393919320.0,0
1860,0.0,-2.0,-2.0,-1.0,-2.0,-2.0,-4.0,0.0,1651069393928299.0,0
1861,1.0,1.0,0.0,3.0,2.0,4.0,2.0,0.0,1651069393928299.0,0
1862,0.0,-3.0,-5.0,-2.0,-3.0,-1.0,-2.0,0.0,1651069393943326.0,0
1863,0.0,2.0,1.0,0.0,0.0,-1.0,1.0,-1.0,1651069393943326.0,0
1864,-1.0,-1.0,-1.0,-1.0,1.0,-1.0,1.0,0.0,1651069393944257.0,0
1865,-1.0,-1.0,0.0,0.0,0.0,-2.0,-1.0,-2.0,1651069393944257.0,0
1866,0.0,0.0,1.0,0.0,3.0,3.0,3.0,1.0,1651069393965424.0,0
1867,0.0,-1.0,-1.0,-2.0,-4.0,-3.0,-2.0,-1.0,1651069393965424.0,0
1868,1.0,0.0,0.0,-2.0,-4.0,-3.0,-2.0,0.0,1651069393967233.0,0
1869,-1.0,1.0,0.0,1.0,0.0,0.0,3.0,1.0,1651069393967233.0,0
1870,-2.0,-2.0,-1.0,-1.0,-1.0,2.0,0.0,-2.0,1651069393979228.0,0
1871,0.0,-1.0,-3.0,-2.0,1.0,0.0,1.0,-1.0,1651069393979228.0,0
1872,-1.0,-1.0,-1.0,0.0,-3.0,-1.0,0.0,1.0,1651069393994312.0,0
1873,-1.0,2.0,1.0,2.0,1.0,0.0,0.0,1.0,1651069393994312.0,0
1874,0.0,0.0,1.0,6.0,-1.0,-3.0,-3.0,0.0,1651069394003346.0,0
1875,-1.0,-3.0,-6.0,-7.0,-2.0,-4.0,-1.0,-1.0,1651069394003346.0,0
1876,-1.0,0.0,-1.0,-3.0,-3.0,1.0,0.0,0.0,1651069394004355.0,0
1877,-1.0,-1.0,-1.0,0.0,1.0,-1.0,-2.0,-2.0,1651069394004355.0,0
1878,1.0,0.0,3.0,3.0,3.0,2.0,3.0,2.0,1651069394025734.0,0
1879,1.0,1.0,1.0,3.0,0.0,2.0,0.0,-2.0,1651069394025734.0,0
1880,-1.0,-1.0,-3.0,-1.0,-1.0,-1.0,-1.0,-1.0,1651069394027536.0,0
1881,-1.0,-3.0,-5.0,-4.0,-5.0,-4.0,-3.0,-2.0,1651069394027536.0,0
1882,-1.0,0.0,-1.0,-2.0,-1.0,0.0,-3.0,0.0,1651069394039500.0,0
1883,-2.0,-1.0,0.0,3.0,2.0,1.0,1.0,0.0,1651069394039500.0,0
1884,0.0,1.0,-1.0,-1.0,1.0,-1.0,0.0,-1.0,1651069394048477.0,0
1885,1.0,1.0,1.0,0.0,0.0,1.0,-1.0,-2.0,1651069394048477.0,0
1886,0.0,-2.0,-3.0,-2.0,0.0,-1.0,-2.0,0.0,1651069394063438.0,0
1887,0.0,1.0,-2.0,-2.0,-4.0,0.0,2.0,1.0,1651069394063438.0,0
1888,-1.0,-2.0,-1.0,3.0,0.0,-3.0,1.0,-1.0,1651069394064433.0,0
1889,0.0,0.0,1.0,1.0,1.0,1.0,0.0,1.0,1651069394064433.0,0
1890,-1.0,-1.0,0.0,-2.0,2.0,2.0,1.0,-1.0,1651069394085553.0,0
1891,0.0,-1.0,0.0,1.0,-1.0,-3.0,-5.0,0.0,1651069394085553.0,0
1892,-2.0,0.0,1.0,0.0,-2.0,0.0,2.0,-1.0,1651069394087425.0,0
1893,-1.0,-2.0,-2.0,-1.0,2.0,2.0,-1.0,0.0,1651069394087425.0,0
1894,-1.0,0.0,-2.0,0.0,-1.0,-1.0,1.0,1.0,1651069394108385.0,0
1895,-1.0,1.0,5.0,3.0,0.0,0.0,0.0,-1.0,1651069394108385.0,0
1896,-2.0,-3.0,-10.0,-7.0,-3.0,-2.0,-5.0,-1.0,1651069394109354.0,0
1897,-2.0,-2.0,-1.0,0.0,0.0,2.0,2.0,-3.0,1651069394109354.0,0
1898,-1.0,3.0,3.0,3.0,-1.0,-2.0,-2.0,-1.0,1651069394123462.0,0
1899,-1.0,-2.0,-4.0,-5.0,-4.0,-3.0,-1.0,-1.0,1651069394123462.0,0
1900,-1.0,1.0,5.0,3.0,-1.0,-3.0,1.0,0.0,1651069394124454.0,0
1901,0.0,-1.0,-1.0,1.0,4.0,1.0,0.0,3.0,1651069394124454.0,0
1902,0.0,-1.0,-3.0,-12.0,-2.0,0.0,0.0,-1.0,1651069394145254.0,0
1903,1.0,0.0,0.0,3.0,1.0,-2.0,-2.0,-3.0,1651069394145254.0,0
1904,1.0,-2.0,0.0,1.0,5.0,3.0,2.0,0.0,1651069394147250.0,0
1905,-1.0,0.0,-1.0,-3.0,-4.0,-3.0,-2.0,-2.0,1651069394147250.0,0
1906,0.0,-2.0,-3.0,2.0,0.0,-2.0,-1.0,-1.0,1651069394159583.0,0
1907,-2.0,-1.0,-1.0,-1.0,1.0,1.0,1.0,-1.0,1651069394159583.0,0
1908,-1.0,-1.0,0.0,-5.0,-6.0,-3.0,-3.0,-1.0,1651069394168252.0,0
1909,-1.0,0.0,-2.0,2.0,0.0,-1.0,1.0,0.0,1651069394168252.0,0
1910,0.0,0.0,-2.0,0.0,-1.0,-1.0,0.0,0.0,1651069394183429.0,0
1911,-1.0,-1.0,-2.0,-2.0,0.0,2.0,-2.0,-1.0,1651069394183429.0,0
1912,0.0,0.0,-1.0,1.0,3.0,0.0,-3.0,2.0,1651069394184429.0,0
1913,2.0,0.0,3.0,0.0,-1.0,-2.0,0.0,-1.0,1651069394184429.0,0
1914,-1.0,0.0,-2.0,1.0,1.0,0.0,0.0,0.0,1651069394205741.0,0
1915,-1.0,2.0,0.0,-3.0,-2.0,-1.0,2.0,2.0,1651069394205741.0,0
1916,0.0,1.0,4.0,3.0,0.0,2.0,0.0,-1.0,1651069394207588.0,0
1917,-1.0,1.0,-4.0,-4.0,-4.0,-3.0,-3.0,-3.0,1651069394207588.0,0
1918,-2.0,0.0,0.0,-4.0,-1.0,1.0,-1.0,-2.0,1651069394227594.0,0
1919,-1.0,-3.0,-4.0,1.0,2.0,-1.0,-3.0,1.0,1651069394227594.0,0
1920,-1.0,1.0,1.0,-3.0,0.0,0.0,-2.0,-2.0,1651069394229522.0,0
