,EMG_s0,EMG_s1,EMG_s2,EMG_s3,EMG_s4,EMG_s5,EMG_s6,EMG_s7,timestamp,signal
0,-1.0,-3.0,-2.0,-1.0,-5.0,-4.0,-2.0,-1.0,1651069203015634.0,0
1,0.0,1.0,0.0,1.0,3.0,2.0,0.0,-1.0,1651069203015634.0,0
2,-1.0,-1.0,-1.0,2.0,0.0,-2.0,0.0,0.0,1651069203016503.0,0
3,-1.0,1.0,1.0,1.0,1.0,2.0,0.0,1.0,1651069203016503.0,0
4,-1.0,-3.0,-4.0,-4.0,-3.0,0.0,0.0,-1.0,1651069203029423.0,0
5,-1.0,-1.0,-2.0,-2.0,-2.0,-2.0,1.0,-2.0,1651069203029423.0,0
6,-1.0,-1.0,0.0,-1.0,-1.0,0.0,0.0,0.0,1651069203037400.0,0
7,0.0,-1.0,1.0,1.0,0.0,0.0,-2.0,0.0,1651069203037400.0,0
8,0.0,1.0,1.0,1.0,2.0,0.0,0.0,0.0,1651069203052455.0,0
9,-2.0,-2.0,-2.0,-2.0,0.0,-3.0,-1.0,1.0,1651069203052455.0,0
10,0.0,-1.0,-2.0,-1.0,-1.0,1.0,0.0,-1.0,1651069203053447.0,0
11,-1.0,-1.0,-1.0,0.0,-2.0,0.0,0.0,-1.0,1651069203053447.0,0
12,-2.0,1.0,-2.0,0.0,-3.0,0.0,-1.0,0.0,1651069203075563.0,0
13,1.0,1.0,-1.0,0.0,-2.0,1.0,2.0,0.0,1651069203075563.0,0
14,1.0,1.0,2.0,1.0,-1.0,-2.0,0.0,0.0,1651069203076499.0,0
15,-1.0,-1.0,0.0,1.0,1.0,1.0,1.0,-1.0,1651069203076499.0,0
16,-1.0,-1.0,-1.0,-2.0,-3.0,-3.0,-2.0,-1.0,1651069203089350.0,0
17,0.0,-2.0,0.0,-1.0,0.0,1.0,-2.0,0.0,1651069203089350.0,0
18,-1.0,1.0,0.0,-2.0,-2.0,-1.0,1.0,0.0,1651069203098326.0,0
19,0.0,-1.0,-4.0,-3.0,-3.0,-3.0,-2.0,-1.0,1651069203098326.0,0
20,-1.0,-1.0,-2.0,-2.0,1.0,0.0,0.0,-1.0,1651069203113247.0,0
21,-1.0,-1.0,0.0,1.0,1.0,0.0,-1.0,-1.0,1651069203113247.0,0
22,0.0,-1.0,0.0,0.0,-1.0,1.0,-1.0,0.0,1651069203113247.0,0
23,1.0,-1.0,0.0,-1.0,-3.0,-2.0,1.0,-1.0,1651069203113247.0,0
24,2.0,1.0,4.0,-1.0,1.0,0.0,1.0,0.0,1651069203134863.0,0
25,-2.0,0.0,-3.0,-3.0,0.0,-1.0,-2.0,-3.0,1651069203134863.0,0
26,0.0,0.0,0.0,-1.0,0.0,0.0,1.0,-1.0,1651069203136022.0,0
27,0.0,0.0,-1.0,-1.0,1.0,-1.0,0.0,0.0,1651069203136022.0,0
28,1.0,0.0,1.0,0.0,-1.0,0.0,1.0,0.0,1651069203149877.0,0
29,1.0,0.0,2.0,0.0,-1.0,-3.0,-2.0,0.0,1651069203149877.0,0
30,-1.0,0.0,-2.0,0.0,-2.0,-3.0,-2.0,-1.0,1651069203157861.0,0
31,-2.0,-1.0,0.0,-1.0,4.0,4.0,0.0,0.0,1651069203157861.0,0
32,1.0,-1.0,-2.0,0.0,-2.0,1.0,0.0,0.0,1651069203173210.0,0
33,1.0,-2.0,-2.0,-1.0,1.0,0.0,0.0,1.0,1651069203173210.0,0
34,-2.0,-1.0,0.0,-1.0,-2.0,-1.0,-1.0,1.0,1651069203173210.0,0
35,0.0,-1.0,-1.0,-1.0,-1.0,-2.0,1.0,0.0,1651069203173210.0,0
36,-1.0,1.0,-1.0,0.0,-2.0,-2.0,0.0,0.0,1651069203195443.0,0
37,-1.0,0.0,-3.0,-3.0,-2.0,0.0,-1.0,-1.0,1651069203195443.0,0
38,0.0,0.0,1.0,2.0,1.0,-1.0,-2.0,-2.0,1651069203196328.0,0
39,0.0,1.0,1.0,1.0,-1.0,1.0,0.0,-2.0,1651069203196328.0,0
40,0.0,-2.0,-3.0,-4.0,-3.0,0.0,-1.0,-1.0,1651069203209293.0,0
41,-1.0,1.0,3.0,3.0,8.0,0.0,1.0,0.0,1651069203209293.0,0
42,-1.0,-2.0,-4.0,-2.0,1.0,0.0,-1.0,-1.0,1651069203218270.0,0
43,0.0,0.0,0.0,-1.0,-1.0,-2.0,2.0,0.0,1651069203218270.0,0
44,-1.0,2.0,1.0,2.0,2.0,0.0,-1.0,-1.0,1651069203232749.0,0
45,0.0,-1.0,-4.0,-2.0,-3.0,-3.0,-2.0,-1.0,1651069203232749.0,0
46,-2.0,0.0,2.0,0.0,2.0,5.0,1.0,0.0,1651069203233679.0,0
47,-2.0,0.0,-1.0,-1.0,0.0,-1.0,0.0,-1.0,1651069203233679.0,0
48,-3.0,-2.0,-2.0,-1.0,-2.0,-3.0,-1.0,0.0,1651069203255585.0,0
49,0.0,-2.0,1.0,0.0,-3.0,0.0,1.0,1.0,1651069203255585.0,0
50,-2.0,0.0,2.0,1.0,0.0,-2.0,0.0,-1.0,1651069203256387.0,0
51,1.0,-1.0,0.0,0.0,-3.0,1.0,1.0,-1.0,1651069203256387.0,0
52,0.0,1.0,1.0,-1.0,-1.0,-2.0,0.0,-2.0,1651069203278409.0,0
53,-2.0,0.0,-2.0,0.0,-4.0,-2.0,0.0,-1.0,1651069203278409.0,0
54,2.0,-1.0,-1.0,-1.0,0.0,-1.0,-2.0,0.0,1651069203279348.0,0
55,0.0,1.0,-2.0,-2.0,3.0,-2.0,-2.0,-2.0,1651069203279348.0,0
56,-2.0,0.0,0.0,0.0,1.0,1.0,-1.0,-2.0,1651069203292421.0,0
57,1.0,0.0,-1.0,-3.0,-3.0,-2.0,0.0,-2.0,1651069203292421.0,0
58,-2.0,0.0,-1.0,-1.0,-1.0,1.0,1.0,0.0,1651069203300460.0,0
59,0.0,1.0,0.0,1.0,0.0,-1.0,-2.0,0.0,1651069203300460.0,0
60,0.0,-1.0,-2.0,0.0,-1.0,0.0,-1.0,-1.0,1651069203315712.0,0
61,0.0,0.0,2.0,-2.0,0.0,0.0,-2.0,0.0,1651069203315712.0,0
62,1.0,2.0,0.0,0.0,-4.0,-1.0,0.0,1.0,1651069203315712.0,0
63,-1.0,-2.0,-1.0,0.0,3.0,2.0,0.0,0.0,1651069203315712.0,0
64,0.0,-2.0,-2.0,-2.0,-2.0,-2.0,-2.0,1.0,1651069203338719.0,0
65,-1.0,0.0,1.0,0.0,0.0,4.0,1.0,0.0,1651069203338719.0,0
66,0.0,-2.0,0.0,-1.0,0.0,-2.0,0.0,0.0,1651069203339667.0,0
67,-2.0,-1.0,0.0,1.0,1.0,-1.0,-3.0,0.0,1651069203339667.0,0
68,0.0,-2.0,-2.0,-4.0,-6.0,-4.0,-3.0,-1.0,1651069203353247.0,0
69,-1.0,-2.0,-3.0,-1.0,0.0,-2.0,-3.0,0.0,1651069203353247.0,0
70,0.0,0.0,-1.0,2.0,0.0,1.0,-1.0,-2.0,1651069203353247.0,0
71,1.0,1.0,-1.0,-2.0,-3.0,-2.0,0.0,1.0,1651069203353247.0,0
72,-1.0,-2.0,-1.0,-1.0,0.0,2.0,1.0,-1.0,1651069203374710.0,0
73,0.0,1.0,1.0,0.0,1.0,1.0,1.0,0.0,1651069203374710.0,0
74,-2.0,-1.0,0.0,-2.0,-2.0,-1.0,1.0,-2.0,1651069203383379.0,0
75,-1.0,-3.0,-1.0,-1.0,-2.0,-2.0,-1.0,-2.0,1651069203383379.0,0
76,-1.0,0.0,0.0,0.0,3.0,2.0,0.0,0.0,1651069203398553.0,0
77,-1.0,0.0,0.0,-1.0,-4.0,-3.0,-1.0,0.0,1651069203398553.0,0
78,1.0,1.0,-1.0,-1.0,-2.0,0.0,0.0,0.0,1651069203400519.0,0
79,1.0,1.0,-1.0,0.0,-1.0,0.0,-1.0,0.0,1651069203400519.0,0
80,0.0,0.0,-1.0,-1.0,0.0,0.0,-1.0,1.0,1651069203420585.0,0
81,-1.0,-1.0,-1.0,1.0,1.0,0.0,-1.0,-1.0,1651069203420585.0,0
82,-1.0,0.0,0.0,-2.0,0.0,-1.0,-2.0,-1.0,1651069203422582.0,0
83,-2.0,-2.0,-3.0,-3.0,1.0,2.0,0.0,3.0,1651069203422582.0,0
84,1.0,-1.0,0.0,0.0,0.0,0.0,0.0,-2.0,1651069203435085.0,0
85,0.0,-1.0,0.0,0.0,-1.0,-2.0,-2.0,-3.0,1651069203435085.0,0
86,0.0,-1.0,0.0,0.0,0.0,-1.0,1.0,0.0,1651069203444127.0,0
87,-2.0,-2.0,-1.0,1.0,3.0,2.0,0.0,-1.0,1651069203444127.0,0
88,-2.0,-1.0,-1.0,-1.0,0.0,0.0,0.0,-1.0,1651069203458698.0,0
89,-2.0,-2.0,0.0,-1.0,-3.0,-1.0,-1.0,-2.0,1651069203458698.0,0
90,-2.0,-1.0,-1.0,-1.0,-1.0,-4.0,-2.0,0.0,1651069203464701.0,0
91,0.0,0.0,1.0,0.0,0.0,-1.0,1.0,-1.0,1651069203464701.0,0
92,-2.0,-1.0,0.0,-1.0,-3.0,0.0,1.0,1.0,1651069203480834.0,0
93,1.0,0.0,0.0,2.0,7.0,2.0,1.0,1.0,1651069203480834.0,0
94,1.0,-2.0,-2.0,-1.0,-3.0,-4.0,0.0,-1.0,1651069203482816.0,0
95,0.0,-1.0,-1.0,0.0,-3.0,-3.0,0.0,-2.0,1651069203482816.0,0
96,-1.0,0.0,1.0,-2.0,-1.0,0.0,2.0,-2.0,1651069203494453.0,0
97,-1.0,0.0,1.0,0.0,-1.0,1.0,-1.0,0.0,1651069203494453.0,0
98,-1.0,-1.0,-1.0,-2.0,0.0,1.0,-1.0,0.0,1651069203503435.0,0
99,-1.0,-1.0,-2.0,-2.0,-1.0,-2.0,-2.0,1.0,1651069203503435.0,0
100,0.0,0.0,0.0,0.0,1.0,-1.0,-1.0,-1.0,1651069203518449.0,0
101,0.0,-2.0,-2.0,-1.0,-2.0,-1.0,0.0,-1.0,1651069203518449.0,0
102,0.0,1.0,0.0,1.0,2.0,0.0,-1.0,0.0,1651069203520385.0,0
103,0.0,-2.0,-1.0,-2.0,-3.0,-2.0,0.0,-1.0,1651069203520385.0,0
104,-1.0,2.0,-1.0,0.0,0.0,0.0,-1.0,-2.0,1651069203548689.0,0
105,0.0,-2.0,-1.0,-1.0,0.0,-1.0,-1.0,-1.0,1651069203548689.0,0
106,-1.0,-2.0,-1.0,-2.0,0.0,-1.0,-1.0,-1.0,1651069203549628.0,0
107,-2.0,1.0,1.0,-2.0,-3.0,0.0,-1.0,-1.0,1651069203549628.0,0
108,0.0,0.0,0.0,-1.0,0.0,-1.0,-1.0,1.0,1651069203554615.0,0
109,1.0,1.0,-1.0,1.0,2.0,1.0,-1.0,0.0,1651069203554615.0,0
110,1.0,0.0,1.0,0.0,-1.0,-1.0,-1.0,0.0,1651069203563590.0,0
111,0.0,-1.0,-2.0,-1.0,1.0,2.0,0.0,-1.0,1651069203563590.0,0
112,0.0,-1.0,0.0,-1.0,-1.0,-1.0,-1.0,1.0,1651069203578755.0,0
113,-2.0,2.0,-2.0,-2.0,-3.0,-3.0,-3.0,0.0,1651069203578755.0,0
114,-2.0,-2.0,-3.0,0.0,2.0,1.0,0.0,0.0,1651069203579681.0,0
115,1.0,1.0,-2.0,-2.0,0.0,-1.0,-2.0,-1.0,1651069203579681.0,0
116,0.0,-2.0,0.0,0.0,-1.0,-3.0,0.0,0.0,1651069203600798.0,0
117,0.0,-1.0,-1.0,-1.0,-1.0,-1.0,0.0,1.0,1651069203600798.0,0
118,-2.0,-1.0,1.0,-1.0,-4.0,-4.0,-2.0,-1.0,1651069203602739.0,0
119,-1.0,-1.0,1.0,3.0,8.0,5.0,0.0,2.0,1651069203602739.0,0
120,0.0,0.0,-1.0,-2.0,-3.0,-2.0,-1.0,-2.0,1651069203614761.0,0
121,0.0,-1.0,0.0,-1.0,-2.0,1.0,1.0,0.0,1651069203614761.0,0
122,0.0,1.0,0.0,-1.0,-3.0,-1.0,-1.0,-2.0,1651069203623687.0,0
123,0.0,-1.0,-1.0,-1.0,-2.0,-2.0,0.0,-1.0,1651069203623687.0,0
124,-1.0,-2.0,-3.0,1.0,2.0,0.0,-1.0,0.0,1651069203638705.0,0
125,1.0,0.0,2.0,0.0,1.0,0.0,0.0,-2.0,1651069203638705.0,0
126,0.0,0.0,-2.0,-1.0,-1.0,4.0,0.0,0.0,1651069203639668.0,0
127,0.0,0.0,1.0,-1.0,-5.0,-5.0,-2.0,0.0,1651069203639668.0,0
128,0.0,0.0,-1.0,-2.0,-1.0,0.0,-1.0,1.0,1651069203661402.0,0
129,0.0,-1.0,0.0,1.0,2.0,2.0,2.0,-1.0,1651069203661402.0,0
130,-1.0,-1.0,-1.0,-1.0,-1.0,-1.0,0.0,-1.0,1651069203662358.0,0
131,-1.0,0.0,-2.0,0.0,2.0,2.0,1.0,-1.0,1651069203662358.0,0
132,-1.0,0.0,-2.0,0.0,-1.0,-1.0,0.0,0.0,1651069203674382.0,0
133,-1.0,0.0,0.0,0.0,0.0,0.0,-2.0,0.0,1651069203674382.0,0
134,1.0,-1.0,-5.0,-2.0,0.0,1.0,-1.0,0.0,1651069203683312.0,0
135,-1.0,-2.0,-2.0,0.0,-3.0,-2.0,-1.0,-1.0,1651069203683312.0,0
136,-1.0,-1.0,1.0,0.0,-1.0,0.0,-1.0,-1.0,1651069203698663.0,0
137,0.0,1.0,0.0,0.0,1.0,-2.0,1.0,-1.0,1651069203698663.0,0
138,0.0,0.0,0.0,1.0,-1.0,-3.0,-1.0,-1.0,1651069203699602.0,0
139,1.0,0.0,1.0,-1.0,1.0,3.0,0.0,-1.0,1651069203699602.0,0
140,-1.0,-2.0,0.0,-3.0,-2.0,-2.0,-1.0,0.0,1651069203721488.0,0
141,-2.0,-1.0,-3.0,-2.0,-3.0,-4.0,-1.0,-3.0,1651069203721488.0,0
142,0.0,0.0,-1.0,2.0,1.0,1.0,1.0,-1.0,1651069203722430.0,0
143,0.0,-1.0,-3.0,0.0,1.0,4.0,1.0,1.0,1651069203722430.0,0
144,0.0,2.0,1.0,0.0,2.0,0.0,0.0,1.0,1651069203743859.0,0
145,-2.0,1.0,-1.0,0.0,-3.0,-2.0,0.0,0.0,1651069203743859.0,0
146,-1.0,1.0,0.0,-1.0,-1.0,-3.0,-1.0,-1.0,1651069203745086.0,0
147,-1.0,1.0,0.0,-1.0,-4.0,-3.0,-2.0,0.0,1651069203745086.0,0
148,0.0,-1.0,0.0,2.0,3.0,4.0,0.0,-1.0,1651069203758534.0,0
149,-1.0,-3.0,-2.0,-2.0,0.0,0.0,1.0,0.0,1651069203758534.0,0
150,0.0,-1.0,1.0,1.0,1.0,1.0,2.0,0.0,1651069203760489.0,0
151,0.0,0.0,0.0,-3.0,-3.0,-1.0,0.0,-2.0,1651069203760489.0,0
152,0.0,-1.0,-1.0,0.0,-2.0,-4.0,-2.0,-1.0,1651069203780631.0,0
153,-2.0,0.0,0.0,-2.0,-1.0,3.0,0.0,-1.0,1651069203780631.0,0
154,0.0,-2.0,-1.0,1.0,3.0,3.0,0.0,0.0,1651069203782623.0,0
155,-1.0,0.0,2.0,1.0,-2.0,-4.0,0.0,-1.0,1651069203782623.0,0
156,-1.0,-2.0,-2.0,-3.0,-5.0,-6.0,-1.0,1.0,1651069203803969.0,0
157,-2.0,-2.0,-2.0,1.0,4.0,-1.0,-3.0,0.0,1651069203803969.0,0
158,-2.0,-1.0,-1.0,-2.0,-3.0,-1.0,-2.0,0.0,1651069203804978.0,0
159,-1.0,0.0,-1.0,-2.0,-3.0,-1.0,-1.0,0.0,1651069203804978.0,0
160,0.0,0.0,1.0,0.0,3.0,2.0,2.0,0.0,1651069203816971.0,0
161,2.0,-1.0,-3.0,-2.0,-4.0,-3.0,0.0,0.0,1651069203816971.0,0
162,-2.0,-1.0,-2.0,-2.0,-1.0,0.0,-2.0,0.0,1651069203826385.0,0
163,-1.0,-1.0,0.0,0.0,4.0,2.0,0.0,-2.0,1651069203826385.0,0
164,-1.0,0.0,0.0,0.0,2.0,1.0,-1.0,0.0,1651069203841384.0,0
165,0.0,0.0,0.0,1.0,-5.0,0.0,-1.0,-1.0,1651069203841384.0,0
166,1.0,-1.0,-1.0,1.0,0.0,1.0,1.0,0.0,1651069203842617.0,0
167,0.0,-2.0,-1.0,-3.0,0.0,-2.0,-2.0,0.0,1651069203842617.0,0
168,-1.0,-1.0,0.0,-2.0,-2.0,-1.0,-2.0,-2.0,1651069203863305.0,0
169,1.0,-1.0,1.0,-1.0,0.0,1.0,0.0,-1.0,1651069203863305.0,0
170,-1.0,0.0,-1.0,-2.0,0.0,-1.0,-1.0,0.0,1651069203865402.0,0
171,0.0,-3.0,-1.0,-1.0,-1.0,-1.0,-1.0,0.0,1651069203865402.0,0
172,1.0,1.0,0.0,-1.0,-3.0,-1.0,-2.0,0.0,1651069203878148.0,0
173,-2.0,-1.0,-4.0,-2.0,0.0,-1.0,-2.0,1.0,1651069203878148.0,0
174,1.0,0.0,-1.0,-2.0,-2.0,-2.0,-1.0,-2.0,1651069203880146.0,0
175,-1.0,-1.0,-2.0,0.0,-1.0,-3.0,1.0,-2.0,1651069203880146.0,0
176,-1.0,0.0,1.0,0.0,2.0,2.0,1.0,0.0,1651069203901387.0,0
177,-1.0,-2.0,1.0,0.0,-1.0,0.0,0.0,1.0,1651069203901387.0,0
178,-1.0,-1.0,-1.0,0.0,-3.0,0.0,-1.0,0.0,1651069203902388.0,0
179,-1.0,0.0,1.0,0.0,-1.0,1.0,-1.0,1.0,1651069203902388.0,0
180,-2.0,-1.0,-4.0,0.0,-1.0,-2.0,-1.0,-1.0,1651069203923624.0,0
181,-1.0,-2.0,-1.0,0.0,-3.0,-1.0,-1.0,-2.0,1651069203923624.0,0
182,-1.0,0.0,-2.0,-1.0,-3.0,-1.0,1.0,0.0,1651069203924557.0,0
183,0.0,0.0,1.0,0.0,7.0,1.0,1.0,0.0,1651069203924557.0,0
184,-1.0,-1.0,-3.0,-1.0,-3.0,-1.0,-1.0,-2.0,1651069203937538.0,0
185,0.0,1.0,1.0,-1.0,0.0,-1.0,0.0,-2.0,1651069203937538.0,0
186,-1.0,-1.0,-2.0,-3.0,0.0,3.0,0.0,1.0,1651069203944670.0,0
187,-1.0,1.0,0.0,0.0,-1.0,-1.0,-1.0,-1.0,1651069203944670.0,0
188,-2.0,0.0,-2.0,1.0,-1.0,0.0,-1.0,-1.0,1651069203960697.0,0
189,0.0,-1.0,0.0,-1.0,-1.0,-2.0,-2.0,1.0,1651069203960697.0,0
190,1.0,0.0,-1.0,2.0,1.0,-1.0,1.0,-2.0,1651069203962660.0,0
191,-2.0,-1.0,0.0,-2.0,-5.0,-4.0,-1.0,0.0,1651069203962660.0,0
192,1.0,-2.0,1.0,0.0,4.0,4.0,1.0,0.0,1651069203983819.0,0
193,1.0,2.0,0.0,-1.0,-1.0,1.0,1.0,-1.0,1651069203983819.0,0
194,-1.0,1.0,0.0,1.0,-1.0,-2.0,-1.0,-2.0,1651069203984771.0,0
195,-2.0,-2.0,-1.0,1.0,-2.0,-2.0,-1.0,-2.0,1651069203984771.0,0
196,0.0,-1.0,-1.0,-1.0,-7.0,-5.0,-2.0,-2.0,1651069203998303.0,0
197,0.0,-1.0,-2.0,0.0,0.0,-1.0,1.0,0.0,1651069203998303.0,0
198,1.0,0.0,-1.0,0.0,1.0,-1.0,1.0,-1.0,1651069204005084.0,0
199,-1.0,1.0,-1.0,0.0,-2.0,-1.0,-1.0,0.0,1651069204005084.0,0
200,0.0,1.0,1.0,0.0,-2.0,-1.0,0.0,-2.0,1651069204021727.0,0
201,1.0,0.0,1.0,-1.0,1.0,2.0,0.0,0.0,1651069204021727.0,0
202,-1.0,-2.0,0.0,0.0,-1.0,0.0,-1.0,1.0,1651069204022658.0,0
203,1.0,-2.0,-1.0,-1.0,-1.0,0.0,-1.0,-1.0,1651069204022658.0,0
204,-1.0,1.0,0.0,-2.0,-1.0,1.0,-1.0,0.0,1651069204043756.0,0
205,-1.0,-1.0,-3.0,0.0,-1.0,1.0,-1.0,-1.0,1651069204043756.0,0
206,0.0,-2.0,0.0,-1.0,1.0,-3.0,-1.0,0.0,1651069204044756.0,0
207,0.0,-1.0,-1.0,1.0,-2.0,1.0,1.0,1.0,1651069204044756.0,0
208,-1.0,-1.0,-1.0,-1.0,1.0,-1.0,-2.0,-1.0,1651069204057788.0,0
209,-1.0,1.0,6.0,3.0,0.0,-4.0,0.0,-1.0,1651069204057788.0,0
210,-2.0,-3.0,-8.0,-4.0,-4.0,0.0,-2.0,1.0,1651069204064493.0,0
211,-1.0,0.0,1.0,1.0,0.0,-4.0,0.0,0.0,1651069204064493.0,0
212,0.0,1.0,0.0,3.0,5.0,7.0,2.0,-1.0,1651069204080548.0,0
213,-2.0,-3.0,-7.0,-3.0,-4.0,-2.0,-1.0,0.0,1651069204080548.0,0
214,-1.0,-1.0,0.0,-3.0,-4.0,-3.0,-1.0,1.0,1651069204082543.0,0
215,0.0,0.0,1.0,0.0,0.0,1.0,-1.0,0.0,1651069204082543.0,0
216,0.0,-2.0,-6.0,-6.0,-6.0,-5.0,-2.0,-1.0,1651069204103627.0,0
217,0.0,3.0,6.0,5.0,3.0,2.0,0.0,0.0,1651069204103627.0,0
218,0.0,0.0,3.0,-1.0,1.0,-1.0,0.0,-2.0,1651069204105536.0,0
219,1.0,-1.0,-3.0,-3.0,-6.0,0.0,0.0,-1.0,1651069204105536.0,0
220,1.0,2.0,6.0,5.0,2.0,-1.0,-1.0,0.0,1651069204117584.0,0
221,-1.0,-7.0,-12.0,-9.0,-8.0,-3.0,-3.0,-3.0,1651069204117584.0,0
222,1.0,4.0,8.0,3.0,3.0,2.0,1.0,3.0,1651069204124564.0,0
223,0.0,0.0,-2.0,3.0,11.0,9.0,2.0,0.0,1651069204124564.0,0
224,-1.0,-4.0,-4.0,-7.0,-7.0,-4.0,-2.0,0.0,1651069204141361.0,0
225,2.0,4.0,10.0,8.0,5.0,1.0,0.0,1.0,1651069204141361.0,0
226,-1.0,-4.0,-2.0,-7.0,-11.0,-5.0,-1.0,-3.0,1651069204142353.0,0
227,-1.0,-4.0,-9.0,-6.0,3.0,1.0,1.0,0.0,1651069204142353.0,0
228,-5.0,-7.0,-18.0,-18.0,-6.0,-2.0,-4.0,-4.0,1651069204163634.0,0
229,-3.0,-2.0,-3.0,-5.0,-13.0,-10.0,-5.0,-1.0,1651069204163634.0,1
230,-4.0,-2.0,-4.0,0.0,-1.0,-1.0,-1.0,-2.0,1651069204164604.0,1
231,0.0,2.0,8.0,-6.0,-3.0,-2.0,5.0,6.0,1651069204164604.0,1
232,-2.0,-4.0,-1.0,3.0,4.0,0.0,0.0,-2.0,1651069204177915.0,1
233,0.0,1.0,5.0,2.0,3.0,1.0,-1.0,-1.0,1651069204177915.0,1
234,-1.0,-1.0,-10.0,-6.0,-5.0,-2.0,1.0,2.0,1651069204184890.0,1
235,-2.0,6.0,13.0,14.0,15.0,5.0,-4.0,-6.0,1651069204184890.0,1
236,1.0,-5.0,-18.0,-15.0,-18.0,-9.0,4.0,5.0,1651069204200619.0,1
237,0.0,1.0,8.0,-3.0,14.0,5.0,-2.0,2.0,1651069204200619.0,1
238,-5.0,1.0,5.0,18.0,0.0,-1.0,-12.0,-7.0,1651069204202552.0,1
239,2.0,2.0,5.0,19.0,13.0,3.0,-1.0,0.0,1651069204202552.0,1
240,-2.0,-9.0,-19.0,-19.0,-6.0,2.0,6.0,1.0,1651069204223561.0,1
241,2.0,9.0,18.0,9.0,4.0,3.0,-7.0,-4.0,1651069204223561.0,1
242,4.0,1.0,0.0,26.0,11.0,5.0,7.0,7.0,1651069204225305.0,1
243,-15.0,-10.0,-2.0,-34.0,-32.0,-17.0,-23.0,-16.0,1651069204225305.0,1
244,17.0,0.0,-3.0,53.0,20.0,1.0,20.0,6.0,1651069204237300.0,1
245,-3.0,-9.0,-25.0,-48.0,-39.0,-12.0,21.0,11.0,1651069204237300.0,1
246,3.0,2.0,8.0,-1.0,-2.0,0.0,-24.0,-8.0,1651069204246249.0,1
247,8.0,8.0,14.0,21.0,10.0,4.0,22.0,19.0,1651069204246249.0,1
248,-6.0,11.0,35.0,41.0,30.0,13.0,-7.0,-8.0,1651069204261383.0,1
249,-2.0,-8.0,-38.0,-71.0,-23.0,-3.0,5.0,-2.0,1651069204261383.0,1
250,6.0,-4.0,15.0,76.0,-1.0,-3.0,-20.0,-23.0,1651069204262847.0,1
251,-2.0,10.0,11.0,-9.0,2.0,4.0,5.0,13.0,1651069204262847.0,1
252,0.0,-3.0,-16.0,-26.0,-10.0,-4.0,-11.0,-15.0,1651069204283920.0,1
253,-8.0,-3.0,24.0,71.0,13.0,8.0,24.0,13.0,1651069204283920.0,1
254,-38.0,-13.0,-25.0,-116.0,-20.0,-13.0,2.0,-15.0,1651069204284919.0,1
255,38.0,3.0,-5.0,-7.0,-17.0,-5.0,-6.0,-4.0,1651069204284919.0,1
256,-50.0,10.0,5.0,-4.0,13.0,-1.0,7.0,-29.0,1651069204297053.0,1
257,32.0,-8.0,4.0,11.0,-12.0,-7.0,8.0,45.0,1651069204297053.0,1
258,12.0,11.0,2.0,26.0,15.0,12.0,11.0,6.0,1651069204306082.0,1
259,-16.0,-6.0,-2.0,-44.0,27.0,4.0,-16.0,-20.0,1651069204306082.0,1
260,-24.0,5.0,21.0,32.0,-20.0,5.0,5.0,7.0,1651069204321156.0,1
261,1.0,9.0,-27.0,-14.0,11.0,-10.0,-50.0,-42.0,1651069204321156.0,1
262,-18.0,-3.0,32.0,-43.0,-35.0,7.0,52.0,32.0,1651069204322178.0,1
263,-12.0,7.0,-25.0,63.0,35.0,10.0,18.0,-7.0,1651069204322178.0,1
264,-4.0,-9.0,1.0,8.0,14.0,3.0,-12.0,21.0,1651069204343412.0,1
265,-13.0,4.0,23.0,15.0,-13.0,1.0,-13.0,-20.0,1651069204343412.0,1
266,-4.0,0.0,-18.0,-84.0,-32.0,-11.0,-4.0,21.0,1651069204345371.0,1
267,-14.0,-3.0,19.0,66.0,-2.0,-7.0,-56.0,-26.0,1651069204345371.0,1
268,29.0,-2.0,-6.0,-51.0,-44.0,-25.0,-22.0,-11.0,1651069204357374.0,1
269,-28.0,20.0,36.0,105.0,57.0,23.0,14.0,16.0,1651069204357374.0,1
270,93.0,-6.0,-20.0,-15.0,3.0,-11.0,-18.0,15.0,1651069204366321.0,1
271,-49.0,-16.0,-29.0,-50.0,-20.0,-12.0,-51.0,-39.0,1651069204366321.0,1
272,21.0,3.0,9.0,-39.0,-30.0,-11.0,-33.0,-13.0,1651069204380727.0,1
273,-56.0,1.0,3.0,-32.0,-15.0,12.0,59.0,14.0,1651069204380727.0,1
274,-3.0,-2.0,-36.0,105.0,52.0,-8.0,-38.0,-39.0,1651069204382622.0,1
275,-29.0,-10.0,11.0,-46.0,-31.0,-3.0,6.0,20.0,1651069204382622.0,1
276,84.0,7.0,2.0,66.0,63.0,29.0,61.0,46.0,1651069204403566.0,1
277,-37.0,-14.0,-2.0,-71.0,-51.0,-23.0,-34.0,-42.0,1651069204403566.0,1
278,59.0,-8.0,-3.0,-21.0,-26.0,-8.0,8.0,19.0,1651069204404563.0,1
279,-50.0,-29.0,-57.0,19.0,5.0,-4.0,-24.0,-34.0,1651069204404563.0,1
280,73.0,35.0,63.0,-51.0,4.0,3.0,10.0,20.0,1651069204417556.0,1
281,57.0,-14.0,17.0,32.0,5.0,-7.0,-33.0,6.0,1651069204417556.0,1
282,-104.0,-15.0,-24.0,51.0,25.0,15.0,14.0,-41.0,1651069204426506.0,1
283,118.0,46.0,2.0,28.0,2.0,11.0,39.0,49.0,1651069204426506.0,1
284,-19.0,-25.0,-55.0,-92.0,-24.0,-18.0,-50.0,-36.0,1651069204441364.0,1
285,-24.0,7.0,45.0,2.0,-6.0,3.0,27.0,9.0,1651069204441364.0,1
286,-39.0,11.0,48.0,-14.0,-23.0,-18.0,-53.0,-26.0,1651069204447417.0,1
287,42.0,-4.0,-8.0,-16.0,36.0,0.0,12.0,6.0,1651069204447417.0,1
288,-52.0,22.0,7.0,74.0,0.0,-5.0,4.0,-9.0,1651069204463373.0,1
289,59.0,-10.0,-32.0,-29.0,16.0,7.0,-7.0,-5.0,1651069204463373.0,1
290,38.0,-12.0,1.0,47.0,2.0,2.0,-2.0,25.0,1651069204465301.0,1
291,56.0,0.0,-17.0,-86.0,-35.0,-13.0,16.0,19.0,1651069204465301.0,1
292,35.0,15.0,-6.0,-41.0,25.0,5.0,-15.0,-18.0,1651069204476668.0,1
293,32.0,-23.0,13.0,23.0,28.0,-1.0,-31.0,-9.0,1651069204476668.0,1
294,55.0,4.0,19.0,36.0,18.0,0.0,3.0,17.0,1651069204485713.0,1
295,-43.0,-24.0,-14.0,-49.0,-19.0,14.0,54.0,28.0,1651069204485713.0,1
296,8.0,-40.0,20.0,55.0,24.0,3.0,-13.0,-1.0,1651069204500674.0,1
297,-12.0,15.0,-25.0,51.0,8.0,-3.0,-15.0,-16.0,1651069204500674.0,1
298,-33.0,8.0,16.0,1.0,26.0,1.0,-21.0,-39.0,1651069204502602.0,1
299,-48.0,-5.0,-32.0,-51.0,-39.0,-18.0,-21.0,-29.0,1651069204502602.0,1
300,-128.0,-10.0,-24.0,-46.0,-44.0,-4.0,11.0,-2.0,1651069204523657.0,1
301,-18.0,2.0,-14.0,-32.0,58.0,30.0,-11.0,-27.0,1651069204523657.0,1
302,38.0,11.0,42.0,-2.0,-27.0,-7.0,46.0,55.0,1651069204524649.0,1
303,-66.0,8.0,56.0,119.0,53.0,25.0,-16.0,-54.0,1651069204524649.0,1
304,35.0,3.0,-21.0,-43.0,15.0,15.0,33.0,58.0,1651069204537370.0,1
305,56.0,-22.0,-48.0,-17.0,-11.0,-5.0,-3.0,9.0,1651069204537370.0,1
306,-70.0,-5.0,-28.0,-128.0,-45.0,0.0,3.0,-20.0,1651069204545710.0,1
307,86.0,24.0,56.0,109.0,22.0,10.0,19.0,37.0,1651069204545710.0,1
308,-6.0,-21.0,-44.0,-25.0,-14.0,-13.0,-16.0,-21.0,1651069204561358.0,1
309,-9.0,0.0,-25.0,-60.0,-14.0,-5.0,15.0,10.0,1651069204561358.0,1
310,-8.0,1.0,30.0,38.0,20.0,7.0,5.0,-2.0,1651069204562613.0,1
311,4.0,-15.0,-16.0,-27.0,-14.0,-1.0,8.0,23.0,1651069204562613.0,1
312,74.0,10.0,13.0,24.0,27.0,25.0,61.0,51.0,1651069204583448.0,1
313,12.0,15.0,6.0,22.0,-19.0,-10.0,-1.0,8.0,1651069204583448.0,1
314,-33.0,3.0,-6.0,-1.0,2.0,1.0,14.0,5.0,1651069204585476.0,1
315,17.0,-11.0,-20.0,4.0,-2.0,-10.0,-25.0,-9.0,1651069204585476.0,1
316,-88.0,12.0,55.0,19.0,-9.0,-5.0,-22.0,-39.0,1651069204597564.0,1
317,2.0,-1.0,-18.0,-71.0,-14.0,-3.0,2.0,1.0,1651069204597564.0,1
318,29.0,8.0,-65.0,-37.0,-4.0,7.0,20.0,7.0,1651069204605552.0,1
319,-44.0,11.0,76.0,52.0,17.0,-4.0,-8.0,-9.0,1651069204605552.0,1
320,4.0,-9.0,-4.0,-35.0,-33.0,-10.0,-30.0,-29.0,1651069204620520.0,1
321,43.0,18.0,25.0,40.0,15.0,7.0,69.0,72.0,1651069204620520.0,1
322,-11.0,-4.0,-21.0,-6.0,26.0,8.0,-31.0,-30.0,1651069204627504.0,1
323,-37.0,2.0,-6.0,-68.0,12.0,8.0,15.0,3.0,1651069204627504.0,1
324,33.0,-9.0,-6.0,8.0,-51.0,-13.0,25.0,44.0,1651069204643914.0,1
325,-29.0,-4.0,20.0,73.0,29.0,-17.0,-29.0,-32.0,1651069204643914.0,1
326,8.0,6.0,-20.0,-75.0,-16.0,7.0,6.0,1.0,1651069204644914.0,1
327,9.0,-11.0,-33.0,-10.0,-21.0,-14.0,11.0,17.0,1651069204644914.0,1
328,-43.0,-4.0,12.0,10.0,19.0,-6.0,-25.0,-38.0,1651069204657120.0,1
329,11.0,3.0,-1.0,50.0,3.0,-2.0,-23.0,-8.0,1651069204657120.0,1
330,-7.0,-6.0,10.0,11.0,7.0,-8.0,5.0,13.0,1651069204666028.0,1
331,31.0,-2.0,-1.0,-1.0,-5.0,2.0,-2.0,-2.0,1651069204666028.0,1
332,-55.0,10.0,-2.0,1.0,-8.0,-4.0,-2.0,-6.0,1651069204688203.0,1
333,-39.0,-12.0,-20.0,-51.0,-33.0,-16.0,-34.0,-19.0,1651069204688203.0,1
334,-6.0,7.0,2.0,34.0,28.0,18.0,16.0,2.0,1651069204690226.0,1
335,-24.0,-8.0,-9.0,9.0,-16.0,-8.0,-11.0,-5.0,1651069204690226.0,1
336,59.0,15.0,8.0,26.0,18.0,7.0,0.0,-4.0,1651069204703290.0,1
337,-30.0,-20.0,-5.0,-9.0,-10.0,5.0,7.0,1.0,1651069204703290.0,1
338,12.0,6.0,27.0,40.0,-3.0,4.0,23.0,37.0,1651069204705309.0,1
339,2.0,0.0,-14.0,-64.0,-10.0,0.0,-7.0,-21.0,1651069204705309.0,1
340,3.0,-3.0,5.0,47.0,29.0,10.0,11.0,22.0,1651069204726399.0,1
341,-24.0,7.0,-11.0,-14.0,-18.0,-9.0,-23.0,-32.0,1651069204726399.0,1
342,-28.0,-27.0,-26.0,23.0,3.0,-10.0,-11.0,-13.0,1651069204727600.0,1
343,17.0,-2.0,-11.0,-31.0,-25.0,-7.0,-5.0,2.0,1651069204727600.0,1
344,35.0,-1.0,31.0,7.0,2.0,-7.0,-2.0,12.0,1651069204740632.0,1
345,-55.0,9.0,-1.0,14.0,19.0,14.0,-3.0,-22.0,1651069204740632.0,1
346,38.0,-9.0,-2.0,2.0,22.0,6.0,2.0,11.0,1651069204742560.0,1
347,-88.0,8.0,15.0,53.0,0.0,-1.0,-6.0,-34.0,1651069204742560.0,1
348,-49.0,-20.0,-37.0,-7.0,1.0,-7.0,-12.0,-20.0,1651069204763859.0,1
349,-2.0,9.0,17.0,-24.0,-13.0,3.0,15.0,12.0,1651069204763859.0,1
350,38.0,4.0,12.0,-10.0,-18.0,-9.0,5.0,1.0,1651069204764583.0,1
351,14.0,-9.0,16.0,84.0,21.0,7.0,-23.0,-9.0,1651069204764583.0,1
352,22.0,1.0,-20.0,-52.0,-3.0,4.0,7.0,-14.0,1651069204786412.0,1
353,-5.0,0.0,-8.0,-2.0,-2.0,6.0,50.0,59.0,1651069204786412.0,1
354,10.0,13.0,1.0,12.0,3.0,-5.0,-20.0,-15.0,1651069204787361.0,1
355,30.0,6.0,25.0,6.0,-3.0,-7.0,8.0,19.0,1651069204787361.0,1
356,-13.0,-6.0,-1.0,-6.0,3.0,3.0,-1.0,6.0,1651069204801412.0,1
357,85.0,13.0,-2.0,10.0,28.0,21.0,14.0,18.0,1651069204801412.0,1
358,-32.0,4.0,7.0,-23.0,-41.0,-15.0,-26.0,-28.0,1651069204802325.0,1
359,21.0,-3.0,-25.0,-42.0,-13.0,1.0,35.0,32.0,1651069204802325.0,1
360,-5.0,-5.0,0.0,-6.0,-8.0,-4.0,-25.0,-16.0,1651069204823919.0,1
361,-1.0,-7.0,-16.0,-10.0,-4.0,-11.0,-12.0,-14.0,1651069204823919.0,1
362,4.0,1.0,2.0,7.0,1.0,0.0,-9.0,-7.0,1651069204824919.0,1
363,-24.0,-4.0,-7.0,-29.0,-21.0,-7.0,3.0,0.0,1651069204824919.0,1
364,-1.0,3.0,-8.0,-21.0,-31.0,-6.0,6.0,0.0,1651069204853499.0,1
365,20.0,-12.0,-2.0,18.0,-1.0,-12.0,-19.0,1.0,1651069204853499.0,1
366,-25.0,13.0,0.0,42.0,47.0,33.0,31.0,9.0,1651069204855429.0,1
367,-8.0,3.0,5.0,4.0,2.0,-1.0,-4.0,-12.0,1651069204855429.0,1
368,0.0,-4.0,11.0,-10.0,-27.0,-15.0,-31.0,-11.0,1651069204860414.0,1
369,3.0,-2.0,-19.0,-41.0,-9.0,8.0,26.0,24.0,1651069204860414.0,1
370,10.0,-25.0,-34.0,-41.0,-10.0,-13.0,-14.0,-9.0,1651069204867462.0,1
371,16.0,3.0,25.0,43.0,23.0,12.0,15.0,2.0,1651069204867462.0,1
372,6.0,2.0,0.0,6.0,-19.0,-6.0,9.0,18.0,1651069204890598.0,1
373,-8.0,7.0,27.0,32.0,9.0,2.0,-14.0,-20.0,1651069204890598.0,1
374,-42.0,-9.0,-6.0,-23.0,-37.0,-24.0,-33.0,-24.0,1651069204892626.0,1
375,86.0,3.0,-14.0,-9.0,9.0,10.0,44.0,45.0,1651069204892626.0,1
376,5.0,19.0,2.0,9.0,13.0,7.0,27.0,10.0,1651069204906482.0,1
377,-24.0,-16.0,-4.0,-10.0,-28.0,-13.0,-17.0,-23.0,1651069204906482.0,1
378,25.0,24.0,39.0,37.0,15.0,6.0,27.0,29.0,1651069204907480.0,1
379,-3.0,0.0,-22.0,-39.0,10.0,8.0,-12.0,-10.0,1651069204907480.0,1
380,8.0,5.0,9.0,48.0,6.0,0.0,11.0,8.0,1651069204920555.0,1
381,9.0,6.0,0.0,-14.0,-5.0,3.0,14.0,5.0,1651069204920555.0,1
382,18.0,-5.0,-32.0,-48.0,-13.0,-5.0,-5.0,1.0,1651069204927567.0,1
383,26.0,4.0,23.0,-6.0,-10.0,-11.0,-34.0,-14.0,1651069204927567.0,1
384,-35.0,-1.0,-6.0,15.0,23.0,7.0,3.0,4.0,1651069204943344.0,1
385,-1.0,1.0,-18.0,-33.0,-12.0,-2.0,6.0,-3.0,1651069204943344.0,1
386,-4.0,0.0,16.0,41.0,0.0,-1.0,1.0,-7.0,1651069204945339.0,1
387,-1.0,-11.0,-16.0,-28.0,-5.0,-6.0,15.0,22.0,1651069204945339.0,1
388,-24.0,-4.0,-3.0,10.0,20.0,5.0,-9.0,-14.0,1651069204966293.0,1
389,-6.0,-1.0,13.0,7.0,-9.0,-13.0,-18.0,-18.0,1651069204966293.0,1
390,2.0,-8.0,-18.0,-23.0,9.0,17.0,13.0,8.0,1651069204967301.0,1
391,-10.0,3.0,-3.0,-11.0,-17.0,-7.0,-2.0,-5.0,1651069204967301.0,1
392,27.0,-4.0,6.0,-4.0,-12.0,-10.0,-21.0,-3.0,1651069204980320.0,1
393,6.0,4.0,-21.0,-28.0,25.0,18.0,25.0,15.0,1651069204980320.0,1
394,-20.0,-11.0,17.0,68.0,15.0,-8.0,-26.0,-31.0,1651069204987302.0,1
395,22.0,8.0,-26.0,-38.0,-4.0,0.0,-17.0,-1.0,1651069204987302.0,1
396,8.0,-10.0,-12.0,-18.0,-17.0,-5.0,4.0,-3.0,1651069205003881.0,1
397,-4.0,0.0,8.0,-3.0,-6.0,-13.0,-18.0,-12.0,1651069205003881.0,1
398,2.0,7.0,14.0,-6.0,30.0,22.0,-1.0,1.0,1651069205005286.0,1
399,-6.0,1.0,8.0,21.0,-1.0,2.0,38.0,21.0,1651069205005286.0,1
400,-1.0,0.0,-37.0,-30.0,4.0,0.0,-3.0,3.0,1651069205026397.0,1
401,8.0,4.0,21.0,3.0,-19.0,-8.0,10.0,6.0,1651069205026397.0,1
402,-11.0,-2.0,6.0,-6.0,-6.0,-6.0,3.0,1.0,1651069205027367.0,1
403,-37.0,-11.0,6.0,27.0,11.0,0.0,-15.0,-18.0,1651069205027367.0,1
404,10.0,6.0,-5.0,-15.0,0.0,4.0,3.0,2.0,1651069205040682.0,1
405,-42.0,0.0,23.0,31.0,-1.0,-3.0,-6.0,-15.0,1651069205040682.0,1
406,27.0,6.0,-2.0,-1.0,4.0,0.0,-3.0,6.0,1651069205047632.0,1
407,-11.0,-6.0,-21.0,-12.0,-6.0,5.0,18.0,26.0,1651069205047632.0,1
408,1.0,2.0,8.0,13.0,4.0,0.0,-8.0,-7.0,1651069205063447.0,1
409,-7.0,-1.0,1.0,3.0,8.0,3.0,-11.0,-13.0,1651069205063447.0,1
410,2.0,5.0,40.0,42.0,7.0,5.0,6.0,12.0,1651069205065444.0,1
411,-54.0,-1.0,-15.0,-10.0,0.0,-6.0,-26.0,-35.0,1651069205065444.0,1
412,16.0,-4.0,-14.0,-31.0,-4.0,3.0,4.0,0.0,1651069205085611.0,1
413,8.0,-2.0,-17.0,6.0,17.0,6.0,-2.0,6.0,1651069205085611.0,1
414,-9.0,-2.0,6.0,27.0,-11.0,-7.0,5.0,-2.0,1651069205087539.0,1
415,-7.0,4.0,27.0,-10.0,-11.0,-11.0,-3.0,-6.0,1651069205087539.0,1
416,-7.0,-1.0,-1.0,37.0,20.0,7.0,4.0,1.0,1651069205108550.0,1
417,5.0,6.0,27.0,-16.0,-11.0,-6.0,-3.0,0.0,1651069205108550.0,1
418,-3.0,-16.0,-56.0,-31.0,-13.0,-11.0,-8.0,2.0,1651069205110478.0,1
419,-10.0,2.0,15.0,25.0,9.0,5.0,-15.0,-8.0,1651069205110478.0,1
420,-13.0,-5.0,-6.0,17.0,16.0,0.0,18.0,8.0,1651069205131426.0,1
421,24.0,8.0,3.0,-32.0,2.0,7.0,-1.0,3.0,1651069205131426.0,1
422,-8.0,-3.0,-9.0,-3.0,-14.0,-14.0,-8.0,-3.0,1651069205132385.0,1
423,5.0,-6.0,-12.0,7.0,6.0,4.0,-3.0,-3.0,1651069205132385.0,1
424,-9.0,5.0,39.0,11.0,-9.0,-4.0,-3.0,-4.0,1651069205145745.0,1
425,9.0,-11.0,-39.0,8.0,-10.0,-5.0,-11.0,-5.0,1651069205145745.0,1
426,-23.0,0.0,3.0,-21.0,27.0,13.0,14.0,6.0,1651069205147699.0,1
427,8.0,-3.0,-12.0,-21.0,-7.0,1.0,-6.0,-6.0,1651069205147699.0,1
428,8.0,-6.0,-24.0,-2.0,2.0,0.0,-7.0,-16.0,1651069205160711.0,1
429,-21.0,-5.0,22.0,16.0,-11.0,-7.0,0.0,0.0,1651069205160711.0,1
430,6.0,2.0,0.0,2.0,-10.0,-9.0,-6.0,-6.0,1651069205167659.0,1
431,-7.0,3.0,8.0,-10.0,-5.0,-3.0,-1.0,1.0,1651069205167659.0,1
432,-14.0,-3.0,-1.0,17.0,5.0,-2.0,-19.0,-22.0,1651069205183812.0,1
433,12.0,7.0,6.0,10.0,5.0,7.0,24.0,20.0,1651069205183812.0,1
434,3.0,2.0,-3.0,-26.0,-5.0,1.0,-1.0,1.0,1651069205184812.0,1
435,-5.0,-2.0,-5.0,12.0,-9.0,-2.0,10.0,6.0,1651069205184812.0,1
436,2.0,-5.0,-15.0,-56.0,-3.0,-5.0,-15.0,-4.0,1651069205213854.0,1
437,-1.0,5.0,9.0,5.0,0.0,0.0,10.0,3.0,1651069205213854.0,1
438,2.0,2.0,-10.0,-27.0,-3.0,10.0,17.0,9.0,1651069205214864.0,1
439,53.0,1.0,0.0,26.0,2.0,-2.0,-4.0,8.0,1651069205214864.0,1
440,0.0,-2.0,8.0,21.0,9.0,4.0,5.0,4.0,1651069205219840.0,1
441,5.0,2.0,-6.0,-15.0,-4.0,-8.0,-8.0,-3.0,1651069205219840.0,1
442,-8.0,-6.0,2.0,-8.0,8.0,8.0,-25.0,-36.0,1651069205228831.0,1
443,-2.0,0.0,-1.0,12.0,3.0,3.0,16.0,12.0,1651069205228831.0,1
444,7.0,2.0,5.0,5.0,-13.0,-1.0,17.0,11.0,1651069205242920.0,1
445,-12.0,1.0,22.0,-8.0,-9.0,-8.0,-11.0,-17.0,1651069205242920.0,1
446,4.0,-3.0,-7.0,9.0,4.0,-9.0,-20.0,-12.0,1651069205249930.0,1
447,0.0,1.0,-11.0,-10.0,3.0,-3.0,-6.0,-4.0,1651069205249930.0,1
448,17.0,1.0,8.0,12.0,-2.0,1.0,3.0,9.0,1651069205266008.0,1
449,0.0,-6.0,-20.0,5.0,12.0,5.0,-4.0,-4.0,1651069205266008.0,1
450,6.0,7.0,16.0,5.0,0.0,-1.0,1.0,7.0,1651069205267006.0,1
451,-26.0,1.0,15.0,26.0,14.0,8.0,18.0,-2.0,1651069205267006.0,1
452,14.0,-2.0,-6.0,-16.0,-7.0,3.0,16.0,22.0,1651069205280006.0,1
453,-9.0,-2.0,3.0,21.0,0.0,-2.0,0.0,1.0,1651069205280006.0,1
454,14.0,3.0,-6.0,-5.0,-3.0,2.0,0.0,-1.0,1651069205289057.0,1
455,37.0,3.0,4.0,26.0,16.0,8.0,8.0,16.0,1651069205289057.0,1
456,-8.0,1.0,-9.0,-27.0,-5.0,-5.0,-4.0,-10.0,1651069205303192.0,1
457,6.0,0.0,21.0,39.0,9.0,5.0,19.0,13.0,1651069205303192.0,1
458,-26.0,-3.0,5.0,-10.0,-13.0,-6.0,-2.0,-4.0,1651069205305155.0,1
459,-1.0,1.0,-9.0,-26.0,-7.0,-8.0,-18.0,-25.0,1651069205305155.0,1
460,-10.0,-3.0,3.0,40.0,6.0,-8.0,-12.0,-11.0,1651069205326515.0,1
461,12.0,-4.0,-21.0,-16.0,-8.0,-2.0,-10.0,-7.0,1651069205326515.0,1
462,16.0,5.0,6.0,6.0,7.0,8.0,19.0,19.0,1651069205327499.0,1
463,-6.0,-3.0,1.0,-12.0,-14.0,-7.0,-7.0,-1.0,1651069205327499.0,1
464,3.0,3.0,-5.0,-5.0,0.0,1.0,7.0,6.0,1651069205339468.0,1
465,-9.0,2.0,7.0,-2.0,2.0,-1.0,-5.0,-1.0,1651069205339468.0,1
466,-1.0,-3.0,-4.0,3.0,-17.0,-16.0,-3.0,-5.0,1651069205348560.0,1
467,-1.0,-3.0,-2.0,-6.0,3.0,-7.0,-12.0,-4.0,1651069205348560.0,1
468,-12.0,-6.0,-10.0,-5.0,-3.0,8.0,1.0,-3.0,1651069205363800.0,1
469,7.0,-3.0,-7.0,6.0,4.0,-1.0,-4.0,0.0,1651069205363800.0,1
470,2.0,2.0,-4.0,-11.0,-12.0,-3.0,5.0,6.0,1651069205364806.0,1
471,-1.0,4.0,9.0,-20.0,-9.0,-10.0,-3.0,3.0,1651069205364806.0,1
472,-2.0,-2.0,-15.0,-3.0,1.0,3.0,10.0,16.0,1651069205386418.0,1
473,-7.0,-2.0,6.0,31.0,8.0,0.0,-5.0,-11.0,1651069205386418.0,1
474,7.0,1.0,-5.0,-16.0,-6.0,-3.0,5.0,7.0,1651069205387373.0,1
475,-9.0,5.0,17.0,11.0,12.0,12.0,8.0,2.0,1651069205387373.0,1
476,-12.0,-2.0,0.0,-9.0,1.0,0.0,-4.0,-6.0,1651069205399340.0,1
477,13.0,1.0,-5.0,-12.0,5.0,0.0,-1.0,5.0,1651069205399340.0,1
478,-4.0,2.0,9.0,12.0,0.0,-1.0,0.0,1.0,1651069205416440.0,1
479,-2.0,-7.0,0.0,-1.0,-6.0,2.0,-6.0,-7.0,1651069205416440.0,1
480,1.0,3.0,2.0,7.0,3.0,1.0,-1.0,3.0,1651069205423920.0,1
481,-5.0,-6.0,-31.0,-15.0,-4.0,-3.0,2.0,1.0,1651069205423920.0,1
482,3.0,4.0,28.0,8.0,5.0,0.0,-3.0,0.0,1651069205424932.0,1
483,0.0,-2.0,-10.0,-4.0,-1.0,-1.0,-2.0,-4.0,1651069205424932.0,1
484,3.0,0.0,11.0,4.0,-2.0,-2.0,1.0,1.0,1651069205446411.0,1
485,-7.0,-1.0,-1.0,-6.0,-5.0,-3.0,-3.0,-5.0,1651069205446411.0,1
486,3.0,-2.0,-11.0,-2.0,-8.0,-3.0,2.0,2.0,1651069205447357.0,1
487,-2.0,-4.0,-2.0,-3.0,5.0,9.0,1.0,-2.0,1651069205447357.0,1
488,-2.0,2.0,9.0,9.0,-5.0,0.0,0.0,-1.0,1651069205459325.0,1
489,-2.0,-1.0,-5.0,-2.0,5.0,6.0,-1.0,1.0,1651069205459325.0,1
490,0.0,2.0,0.0,3.0,6.0,-2.0,3.0,1.0,1651069205468419.0,1
491,0.0,-1.0,-5.0,1.0,10.0,8.0,1.0,2.0,1651069205468419.0,1
492,2.0,-1.0,3.0,2.0,-2.0,0.0,-4.0,-4.0,1651069205483920.0,1
493,-1.0,1.0,4.0,-2.0,5.0,5.0,-1.0,-1.0,1651069205483920.0,1
494,0.0,-2.0,-2.0,-4.0,-7.0,-2.0,2.0,2.0,1651069205484930.0,1
495,-3.0,-1.0,-3.0,1.0,-1.0,-6.0,-3.0,-4.0,1651069205484930.0,1
496,2.0,-1.0,0.0,1.0,2.0,3.0,1.0,-3.0,1651069205507066.0,1
497,-4.0,0.0,2.0,-7.0,-7.0,-2.0,-2.0,-1.0,1651069205507066.0,1
498,2.0,-1.0,0.0,4.0,5.0,5.0,2.0,0.0,1651069205509052.0,1
499,0.0,0.0,-5.0,-2.0,-5.0,-7.0,-2.0,-1.0,1651069205509052.0,1
500,-1.0,1.0,5.0,1.0,1.0,-2.0,-2.0,-2.0,1651069205520090.0,1
501,-1.0,-2.0,0.0,-1.0,2.0,3.0,1.0,1.0,1651069205520090.0,1
502,-2.0,-4.0,-6.0,-1.0,2.0,4.0,0.0,-1.0,1651069205529000.0,1
503,0.0,0.0,-4.0,-3.0,-4.0,-4.0,0.0,-2.0,1651069205529000.0,1
504,0.0,1.0,2.0,2.0,-3.0,-5.0,-2.0,0.0,1651069205543965.0,1
505,-3.0,0.0,0.0,-1.0,0.0,-2.0,0.0,-1.0,1651069205543965.0,1
506,1.0,-1.0,-3.0,1.0,0.0,2.0,0.0,0.0,1651069205544964.0,1
507,1.0,0.0,1.0,-3.0,-2.0,-1.0,-2.0,-1.0,1651069205544964.0,1
508,1.0,0.0,2.0,4.0,3.0,1.0,-2.0,-2.0,1651069205573057.0,1
509,0.0,-1.0,-2.0,-1.0,-1.0,0.0,0.0,1.0,1651069205573057.0,1
510,-1.0,-2.0,-1.0,0.0,-2.0,0.0,0.0,0.0,1651069205575053.0,1
511,-2.0,-1.0,-2.0,-2.0,-5.0,-6.0,-4.0,-1.0,1651069205575053.0,1
512,-2.0,0.0,2.0,1.0,2.0,1.0,0.0,0.0,1651069205580039.0,1
513,-1.0,-4.0,-1.0,-3.0,-1.0,-1.0,-3.0,-2.0,1651069205580039.0,1
514,1.0,1.0,-2.0,0.0,-1.0,-1.0,0.0,-1.0,1651069205588988.0,1
515,-1.0,0.0,-2.0,-1.0,-2.0,0.0,-1.0,0.0,1651069205588988.0,1
516,1.0,1.0,1.0,1.0,0.0,0.0,-1.0,-1.0,1651069205603180.0,1
517,-2.0,-1.0,-2.0,-3.0,-1.0,-5.0,0.0,0.0,1651069205603180.0,1
518,0.0,0.0,0.0,1.0,1.0,-1.0,-1.0,1.0,1651069205610134.0,1
519,-1.0,-1.0,-4.0,-2.0,-3.0,-2.0,0.0,-2.0,1651069205610134.0,1
520,0.0,-1.0,-1.0,-1.0,0.0,1.0,0.0,-1.0,1651069205626324.0,1
521,-1.0,-1.0,0.0,0.0,-2.0,0.0,2.0,-1.0,1651069205626324.0,1
522,-1.0,-1.0,0.0,1.0,1.0,1.0,0.0,-1.0,1651069205627251.0,1
523,0.0,-1.0,-3.0,-1.0,0.0,-2.0,-2.0,-1.0,1651069205627251.0,1
524,0.0,-2.0,0.0,-1.0,-6.0,-4.0,-1.0,1.0,1651069205648416.0,1
525,0.0,2.0,-2.0,1.0,6.0,1.0,-1.0,0.0,1651069205648416.0,1
526,-1.0,-2.0,0.0,-1.0,-7.0,-7.0,0.0,1.0,1651069205650344.0,1
527,-1.0,1.0,2.0,3.0,5.0,3.0,0.0,0.0,1651069205650344.0,1
528,-1.0,0.0,-1.0,-2.0,0.0,-1.0,0.0,-1.0,1651069205662494.0,1
529,-2.0,-2.0,-1.0,-2.0,-7.0,-7.0,-1.0,-1.0,1651069205662494.0,1
530,-1.0,0.0,1.0,-1.0,1.0,9.0,-1.0,0.0,1651069205669466.0,1
531,0.0,-2.0,-3.0,-5.0,-3.0,-3.0,-2.0,0.0,1651069205669466.0,1
532,1.0,-1.0,-1.0,3.0,3.0,-3.0,0.0,-2.0,1651069205686339.0,1
533,-1.0,0.0,0.0,4.0,4.0,2.0,0.0,1.0,1651069205686339.0,1
534,-1.0,0.0,-3.0,-1.0,5.0,1.0,-2.0,-1.0,1651069205688295.0,1
535,0.0,-1.0,1.0,-2.0,-7.0,-2.0,2.0,0.0,1651069205688295.0,1
536,1.0,0.0,-2.0,-3.0,-8.0,-3.0,-1.0,-1.0,1651069205708732.0,1
537,-1.0,-1.0,0.0,-1.0,-2.0,-2.0,-1.0,0.0,1651069205708732.0,1
538,-1.0,-2.0,-3.0,1.0,1.0,0.0,1.0,-1.0,1651069205709661.0,1
539,0.0,-1.0,0.0,1.0,3.0,1.0,-2.0,-1.0,1651069205709661.0,1
540,-1.0,-1.0,-1.0,-1.0,-2.0,2.0,3.0,-1.0,1651069205722816.0,1
541,-2.0,-1.0,-1.0,-2.0,0.0,-3.0,1.0,0.0,1651069205722816.0,1
542,0.0,-2.0,-1.0,-2.0,1.0,-2.0,-1.0,1.0,1651069205729798.0,1
543,-2.0,0.0,0.0,1.0,-1.0,0.0,-1.0,-1.0,1651069205729798.0,1
544,0.0,-2.0,-1.0,1.0,-1.0,-2.0,-1.0,-1.0,1651069205745755.0,1
545,-2.0,0.0,-1.0,-3.0,-2.0,1.0,0.0,1.0,1651069205745755.0,1
546,-1.0,0.0,0.0,0.0,0.0,0.0,0.0,0.0,1651069205747683.0,1
547,0.0,1.0,0.0,-1.0,-3.0,-1.0,1.0,0.0,1651069205747683.0,1
548,0.0,0.0,1.0,-1.0,-2.0,0.0,-2.0,0.0,1651069205768696.0,1
549,-1.0,-1.0,0.0,1.0,6.0,1.0,0.0,-1.0,1651069205768696.0,1
550,1.0,-1.0,-2.0,-1.0,-1.0,1.0,0.0,0.0,1651069205769624.0,1
551,-2.0,-1.0,0.0,-1.0,-2.0,-1.0,0.0,-2.0,1651069205769624.0,1
552,-2.0,-1.0,0.0,-2.0,0.0,-2.0,-1.0,-1.0,1651069205782656.0,1
553,-1.0,1.0,-1.0,-5.0,-11.0,-4.0,-2.0,-1.0,1651069205782656.0,1
554,1.0,-2.0,-2.0,-1.0,-1.0,-3.0,0.0,-1.0,1651069205796783.0,1
555,-1.0,-1.0,0.0,0.0,4.0,1.0,0.0,-1.0,1651069205796783.0,1
556,-2.0,0.0,1.0,0.0,0.0,-1.0,0.0,1.0,1651069205805702.0,1
557,1.0,1.0,0.0,-2.0,0.0,-1.0,-1.0,0.0,1651069205805702.0,1
558,-2.0,2.0,-1.0,0.0,-1.0,-2.0,2.0,-1.0,1651069205807687.0,1
559,-1.0,-1.0,-2.0,0.0,0.0,0.0,0.0,0.0,1651069205807687.0,1
560,0.0,-1.0,1.0,-1.0,1.0,0.0,-2.0,-1.0,1651069205828861.0,1
561,0.0,-2.0,0.0,-1.0,1.0,2.0,0.0,-1.0,1651069205828861.0,1
562,0.0,-3.0,-2.0,-2.0,-4.0,-1.0,-2.0,-2.0,1651069205829777.0,1
563,0.0,-1.0,0.0,-1.0,-3.0,-2.0,-1.0,1.0,1651069205829777.0,1
564,-2.0,0.0,0.0,-1.0,2.0,1.0,0.0,0.0,1651069205842769.0,1
565,0.0,-1.0,-1.0,0.0,-4.0,-1.0,-2.0,-1.0,1651069205842769.0,1
566,0.0,0.0,0.0,2.0,6.0,2.0,1.0,0.0,1651069205849790.0,1
567,-1.0,1.0,0.0,-2.0,-2.0,1.0,-1.0,0.0,1651069205849790.0,1
568,-1.0,1.0,-1.0,0.0,0.0,1.0,1.0,-1.0,1651069205865748.0,1
569,-2.0,-1.0,-3.0,-1.0,2.0,-2.0,-2.0,-1.0,1651069205865748.0,1
570,-2.0,-2.0,0.0,-1.0,-2.0,-3.0,-2.0,0.0,1651069205867676.0,1
571,0.0,-2.0,-2.0,-1.0,-2.0,-2.0,2.0,-2.0,1651069205867676.0,1
572,-1.0,-2.0,0.0,0.0,1.0,0.0,0.0,-1.0,1651069205888687.0,1
573,0.0,-1.0,-1.0,-1.0,-2.0,0.0,0.0,-2.0,1651069205888687.0,1
574,0.0,0.0,-3.0,1.0,-1.0,-1.0,-1.0,-1.0,1651069205889617.0,1
575,0.0,0.0,-1.0,0.0,2.0,0.0,-1.0,0.0,1651069205889617.0,1
576,-1.0,0.0,-2.0,-1.0,-1.0,0.0,-2.0,-1.0,1651069205903247.0,1
577,-1.0,-3.0,-3.0,-1.0,-1.0,0.0,0.0,-1.0,1651069205903247.0,1
578,0.0,-1.0,0.0,-2.0,-2.0,-3.0,-1.0,-1.0,1651069205909293.0,1
579,-1.0,0.0,-2.0,-1.0,-1.0,3.0,0.0,-1.0,1651069205909293.0,1
580,-1.0,-1.0,-1.0,0.0,-2.0,0.0,0.0,1.0,1651069205925915.0,1
581,-1.0,-1.0,-1.0,1.0,0.0,2.0,1.0,0.0,1651069205925915.0,1
582,-1.0,-1.0,0.0,-2.0,-2.0,-1.0,-2.0,0.0,1651069205927843.0,1
583,-2.0,-2.0,-2.0,-2.0,-4.0,-6.0,-1.0,-1.0,1651069205927843.0,1
584,-1.0,0.0,0.0,1.0,4.0,4.0,-1.0,1.0,1651069205948867.0,1
585,0.0,2.0,0.0,-1.0,-3.0,-4.0,-2.0,-1.0,1651069205948867.0,1
586,-1.0,-1.0,1.0,1.0,-3.0,1.0,0.0,-2.0,1651069205949877.0,1
587,0.0,-1.0,-4.0,1.0,4.0,1.0,0.0,-1.0,1651069205949877.0,1
588,2.0,-2.0,-1.0,-1.0,-1.0,0.0,-1.0,-1.0,1651069205963712.0,1
589,-2.0,-2.0,0.0,-1.0,0.0,1.0,-1.0,-1.0,1651069205963712.0,1
590,-1.0,1.0,0.0,-1.0,-1.0,-1.0,-1.0,0.0,1651069205969980.0,1
591,-2.0,0.0,1.0,-1.0,-2.0,-2.0,-1.0,0.0,1651069205969980.0,1
592,0.0,0.0,-1.0,-1.0,0.0,0.0,-1.0,-3.0,1651069205985873.0,0
593,0.0,0.0,-1.0,-2.0,1.0,2.0,2.0,1.0,1651069205985873.0,0
594,-1.0,0.0,0.0,-1.0,-3.0,-1.0,-2.0,-1.0,1651069205987828.0,0
595,1.0,-1.0,-1.0,-2.0,-2.0,-3.0,-4.0,-1.0,1651069205987828.0,0
596,0.0,0.0,1.0,2.0,2.0,-2.0,-1.0,-1.0,1651069206008909.0,0
597,-1.0,-1.0,-1.0,-1.0,-2.0,1.0,1.0,-2.0,1651069206008909.0,0
598,0.0,1.0,1.0,-1.0,1.0,1.0,2.0,1.0,1651069206009846.0,0
599,-1.0,-1.0,1.0,-1.0,-1.0,-1.0,1.0,0.0,1651069206009846.0,0
600,-1.0,-2.0,-1.0,-1.0,-1.0,-2.0,-2.0,-1.0,1651069206022898.0,0
601,0.0,-1.0,-1.0,1.0,0.0,1.0,0.0,0.0,1651069206022898.0,0
602,-1.0,1.0,-2.0,-2.0,0.0,0.0,1.0,1.0,1651069206029998.0,0
603,0.0,0.0,2.0,-1.0,1.0,-1.0,0.0,-1.0,1651069206029998.0,0
604,-1.0,-1.0,-3.0,-1.0,-3.0,0.0,2.0,2.0,1651069206045953.0,0
605,0.0,0.0,-1.0,0.0,0.0,1.0,-2.0,0.0,1651069206045953.0,0
606,0.0,-1.0,-2.0,-1.0,-2.0,1.0,-2.0,0.0,1651069206047880.0,0
607,1.0,0.0,2.0,1.0,0.0,1.0,0.0,-2.0,1651069206047880.0,0
608,-2.0,1.0,-1.0,-2.0,-1.0,-2.0,-1.0,0.0,1651069206068075.0,0
609,0.0,1.0,2.0,-1.0,0.0,0.0,0.0,2.0,1651069206068075.0,0
610,0.0,-2.0,0.0,-2.0,-4.0,-1.0,1.0,0.0,1651069206075063.0,0
611,-1.0,0.0,-2.0,1.0,6.0,1.0,-2.0,1.0,1651069206075063.0,0
612,0.0,0.0,2.0,0.0,-1.0,1.0,2.0,-1.0,1651069206083099.0,0
613,1.0,0.0,1.0,0.0,-1.0,-3.0,-1.0,-2.0,1651069206083099.0,0
614,-1.0,0.0,-1.0,0.0,-1.0,-2.0,-1.0,-2.0,1651069206090079.0,0
615,-1.0,0.0,-1.0,1.0,0.0,0.0,0.0,0.0,1651069206090079.0,0
616,-1.0,0.0,0.0,-1.0,0.0,-1.0,0.0,0.0,1651069206106205.0,0
617,1.0,1.0,1.0,0.0,1.0,1.0,1.0,2.0,1651069206106205.0,0
618,0.0,-1.0,0.0,0.0,1.0,0.0,-1.0,1.0,1651069206107162.0,0
619,0.0,-2.0,0.0,0.0,-3.0,0.0,-2.0,-1.0,1651069206107162.0,0
620,0.0,-3.0,-2.0,-1.0,-2.0,-2.0,-1.0,2.0,1651069206128347.0,0
621,0.0,-2.0,-2.0,-4.0,-3.0,0.0,-1.0,-3.0,1651069206128347.0,0
622,0.0,-2.0,0.0,1.0,2.0,0.0,1.0,0.0,1651069206130295.0,0
623,0.0,1.0,-3.0,0.0,-2.0,-3.0,-1.0,-1.0,1651069206130295.0,0
624,-1.0,-1.0,2.0,-2.0,0.0,1.0,0.0,0.0,1651069206142360.0,0
625,-1.0,-1.0,-3.0,-1.0,-2.0,-3.0,0.0,-2.0,1651069206142360.0,0
626,1.0,1.0,-1.0,-1.0,0.0,-2.0,2.0,0.0,1651069206151337.0,0
627,-2.0,0.0,0.0,0.0,-2.0,-1.0,1.0,-1.0,1651069206151337.0,0
628,1.0,2.0,-2.0,-1.0,-1.0,-2.0,-2.0,0.0,1651069206166458.0,0
629,-1.0,-1.0,-2.0,-1.0,-1.0,1.0,-1.0,0.0,1651069206166458.0,0
630,0.0,0.0,0.0,-1.0,-1.0,-1.0,-2.0,0.0,1651069206167448.0,0
631,0.0,-1.0,1.0,0.0,1.0,0.0,1.0,0.0,1651069206167448.0,0
632,-1.0,0.0,-3.0,1.0,-2.0,-1.0,1.0,1.0,1651069206188460.0,0
633,-2.0,-3.0,0.0,-1.0,2.0,-2.0,1.0,0.0,1651069206188460.0,0
634,0.0,1.0,0.0,-1.0,-1.0,-3.0,-4.0,2.0,1651069206190413.0,0
635,0.0,-1.0,-1.0,-1.0,0.0,-1.0,1.0,2.0,1651069206190413.0,0
636,1.0,2.0,-1.0,-1.0,0.0,1.0,0.0,-2.0,1651069206202477.0,0
637,0.0,2.0,4.0,1.0,-2.0,-3.0,-1.0,-2.0,1651069206202477.0,0
638,-2.0,-1.0,-3.0,0.0,0.0,2.0,-2.0,-3.0,1651069206211458.0,0
639,0.0,-1.0,-2.0,-1.0,2.0,-1.0,-4.0,-1.0,1651069206211458.0,0
640,0.0,-2.0,0.0,0.0,0.0,0.0,-1.0,0.0,1651069206225593.0,0
641,0.0,1.0,0.0,0.0,1.0,1.0,0.0,2.0,1651069206225593.0,0
642,-2.0,-2.0,0.0,-1.0,-3.0,-3.0,0.0,-2.0,1651069206227591.0,0
643,0.0,1.0,-2.0,-2.0,-5.0,-1.0,0.0,0.0,1651069206227591.0,0
644,0.0,-1.0,0.0,0.0,0.0,0.0,0.0,0.0,1651069206248712.0,0
645,-2.0,-1.0,-1.0,-1.0,-2.0,-1.0,-1.0,0.0,1651069206248712.0,0
646,0.0,0.0,-1.0,-1.0,2.0,0.0,0.0,0.0,1651069206249643.0,0
647,-1.0,1.0,0.0,-2.0,0.0,-1.0,1.0,-1.0,1651069206249643.0,0
648,-2.0,-2.0,-4.0,0.0,0.0,-3.0,-3.0,-2.0,1651069206262609.0,0
649,0.0,-1.0,-1.0,0.0,2.0,0.0,1.0,0.0,1651069206262609.0,0
650,0.0,-1.0,0.0,1.0,1.0,2.0,1.0,0.0,1651069206271652.0,0
651,-1.0,0.0,-1.0,-1.0,-1.0,0.0,-1.0,0.0,1651069206271652.0,0
652,-1.0,-1.0,0.0,-2.0,-4.0,-1.0,-1.0,-1.0,1651069206285702.0,0
653,-1.0,-1.0,-3.0,-3.0,-1.0,-1.0,-2.0,-2.0,1651069206285702.0,0
654,0.0,-1.0,0.0,-1.0,-2.0,-2.0,-1.0,0.0,1651069206287630.0,0
655,0.0,0.0,-2.0,2.0,1.0,-1.0,1.0,0.0,1651069206287630.0,0
656,-1.0,-1.0,1.0,-2.0,0.0,-1.0,0.0,-1.0,1651069206308697.0,0
657,0.0,0.0,0.0,1.0,0.0,-1.0,-1.0,-1.0,1651069206308697.0,0
658,0.0,-1.0,1.0,0.0,3.0,1.0,1.0,0.0,1651069206309666.0,0
659,-1.0,-2.0,-1.0,1.0,1.0,2.0,-3.0,-2.0,1651069206309666.0,0
660,0.0,0.0,-1.0,-1.0,0.0,0.0,0.0,0.0,1651069206321765.0,0
661,0.0,1.0,0.0,-2.0,-2.0,-2.0,-1.0,-2.0,1651069206321765.0,0
662,0.0,-1.0,-2.0,-1.0,-3.0,-2.0,-3.0,-2.0,1651069206330756.0,0
663,-1.0,-1.0,1.0,-1.0,-1.0,-2.0,1.0,0.0,1651069206330756.0,0
664,-1.0,0.0,2.0,0.0,-2.0,0.0,-1.0,-1.0,1651069206345711.0,0
665,-2.0,-1.0,0.0,-1.0,0.0,-1.0,0.0,-1.0,1651069206345711.0,0
666,-1.0,-2.0,0.0,1.0,0.0,-1.0,-1.0,-1.0,1651069206347639.0,0
667,-1.0,0.0,0.0,-2.0,-1.0,0.0,-2.0,-1.0,1651069206347639.0,0
668,-2.0,-1.0,-2.0,-2.0,-1.0,1.0,0.0,1.0,1651069206368770.0,0
669,-1.0,-2.0,-2.0,-1.0,0.0,0.0,0.0,1.0,1651069206368770.0,0
670,-2.0,1.0,-2.0,0.0,1.0,-2.0,0.0,-1.0,1651069206369746.0,0
671,-1.0,-1.0,0.0,-1.0,-2.0,0.0,-2.0,2.0,1651069206369746.0,0
672,1.0,1.0,1.0,0.0,0.0,-2.0,0.0,-1.0,1651069206381826.0,0
673,0.0,0.0,-1.0,-1.0,0.0,1.0,0.0,1.0,1651069206381826.0,0
674,0.0,-2.0,-2.0,0.0,-4.0,0.0,0.0,0.0,1651069206390796.0,0
675,1.0,-1.0,0.0,-1.0,0.0,-3.0,0.0,-2.0,1651069206390796.0,0
676,-1.0,-1.0,0.0,-1.0,1.0,0.0,0.0,-1.0,1651069206406028.0,0
677,-1.0,-1.0,0.0,1.0,0.0,-1.0,-3.0,-1.0,1651069206406028.0,0
678,-1.0,-1.0,-2.0,1.0,3.0,5.0,0.0,0.0,1651069206407955.0,0
679,0.0,0.0,1.0,0.0,-3.0,-3.0,-1.0,0.0,1651069206407955.0,0
680,1.0,-1.0,-2.0,1.0,-2.0,0.0,0.0,0.0,1651069206428956.0,0
681,0.0,-1.0,-1.0,-1.0,-1.0,-2.0,-1.0,-1.0,1651069206428956.0,0
682,-1.0,1.0,2.0,-2.0,-1.0,-2.0,-1.0,-1.0,1651069206429897.0,0
683,0.0,-1.0,-2.0,0.0,0.0,-2.0,-1.0,1.0,1651069206429897.0,0
684,-2.0,0.0,1.0,-1.0,-1.0,-2.0,-2.0,1.0,1651069206441864.0,0
685,2.0,0.0,-1.0,-1.0,-3.0,-3.0,1.0,-1.0,1651069206441864.0,0
686,0.0,-2.0,-2.0,-1.0,0.0,-1.0,3.0,-3.0,1651069206450875.0,0
687,0.0,-2.0,0.0,-1.0,0.0,1.0,2.0,-2.0,1651069206450875.0,0
688,0.0,-1.0,0.0,1.0,0.0,-1.0,0.0,0.0,1651069206466354.0,0
689,-1.0,-1.0,-1.0,1.0,-1.0,1.0,-2.0,0.0,1651069206466354.0,0
690,0.0,0.0,1.0,-4.0,-3.0,0.0,-2.0,1.0,1651069206467658.0,0
691,0.0,0.0,-2.0,-1.0,-1.0,1.0,2.0,-1.0,1651069206467658.0,0
692,1.0,-1.0,-3.0,-1.0,2.0,1.0,1.0,-1.0,1651069206488606.0,0
693,-2.0,-1.0,0.0,-2.0,1.0,0.0,-1.0,1.0,1651069206488606.0,0
694,1.0,-1.0,-2.0,1.0,-2.0,-4.0,-3.0,-2.0,1651069206489537.0,0
695,-1.0,0.0,1.0,0.0,1.0,-1.0,-2.0,0.0,1651069206489537.0,0
696,-2.0,0.0,-1.0,0.0,-1.0,3.0,0.0,-1.0,1651069206502507.0,0
697,-1.0,0.0,-2.0,-2.0,-1.0,-2.0,-1.0,-4.0,1651069206502507.0,0
698,-1.0,0.0,1.0,-1.0,-2.0,-1.0,-2.0,-1.0,1651069206511568.0,0
699,-1.0,-1.0,0.0,0.0,-2.0,-2.0,0.0,-1.0,1651069206511568.0,0
700,-2.0,-2.0,-2.0,0.0,-2.0,-4.0,-2.0,-1.0,1651069206525758.0,0
701,-1.0,-1.0,-1.0,0.0,0.0,-2.0,0.0,0.0,1651069206525758.0,0
702,-1.0,-1.0,-1.0,1.0,0.0,-1.0,1.0,0.0,1651069206527725.0,0
703,0.0,0.0,-1.0,-2.0,-1.0,-1.0,-3.0,0.0,1651069206527725.0,0
704,-2.0,-1.0,0.0,-1.0,-1.0,2.0,1.0,-1.0,1651069206548424.0,0
705,-1.0,-1.0,0.0,-1.0,0.0,0.0,1.0,1.0,1651069206548424.0,0
706,0.0,-1.0,-2.0,1.0,1.0,0.0,1.0,-1.0,1651069206550378.0,0
707,-1.0,0.0,-3.0,0.0,1.0,2.0,0.0,0.0,1651069206550378.0,0
708,-1.0,-2.0,1.0,-3.0,-2.0,-4.0,-1.0,0.0,1651069206561705.0,0
709,1.0,0.0,0.0,0.0,0.0,1.0,0.0,2.0,1651069206561705.0,0
710,0.0,-1.0,0.0,-2.0,2.0,-2.0,-1.0,-1.0,1651069206570731.0,0
711,-1.0,2.0,0.0,2.0,-2.0,-1.0,-1.0,-1.0,1651069206570731.0,0
712,-1.0,0.0,0.0,0.0,0.0,-1.0,-2.0,0.0,1651069206586381.0,0
713,0.0,-1.0,0.0,0.0,1.0,0.0,-1.0,0.0,1651069206586381.0,0
714,-2.0,0.0,-2.0,-2.0,-2.0,-1.0,0.0,0.0,1651069206587313.0,0
715,-1.0,-3.0,-1.0,-1.0,-1.0,0.0,-1.0,1.0,1651069206587313.0,0
716,0.0,0.0,0.0,1.0,-1.0,1.0,1.0,-1.0,1651069206608437.0,0
717,-1.0,1.0,-2.0,-1.0,0.0,-1.0,-1.0,-1.0,1651069206608437.0,0
718,0.0,-1.0,-1.0,-1.0,-1.0,0.0,0.0,-1.0,1651069206610365.0,0
719,1.0,-1.0,0.0,-1.0,-1.0,-2.0,-1.0,-2.0,1651069206610365.0,0
720,-1.0,-2.0,-2.0,-1.0,0.0,-1.0,-3.0,-1.0,1651069206631377.0,0
721,0.0,1.0,-1.0,1.0,1.0,-1.0,0.0,0.0,1651069206631377.0,0
722,1.0,1.0,-1.0,0.0,0.0,0.0,-2.0,1.0,1651069206633303.0,0
723,0.0,0.0,-1.0,-1.0,1.0,-1.0,1.0,-1.0,1651069206633303.0,0
724,1.0,2.0,-1.0,0.0,1.0,0.0,-1.0,1.0,1651069206646353.0,0
725,0.0,0.0,0.0,-3.0,-1.0,1.0,1.0,1.0,1651069206646353.0,0
726,-1.0,0.0,0.0,-1.0,-1.0,-2.0,-2.0,1.0,1651069206647629.0,0
727,-1.0,-2.0,-3.0,-2.0,-1.0,0.0,-1.0,1.0,1651069206647629.0,0
728,-1.0,-3.0,-2.0,-2.0,-1.0,1.0,0.0,0.0,1651069206668430.0,0
729,-1.0,-4.0,-2.0,1.0,-1.0,-1.0,-2.0,-2.0,1651069206668430.0,0
730,0.0,0.0,0.0,-1.0,0.0,0.0,-1.0,-1.0,1651069206670385.0,0
731,0.0,-1.0,0.0,0.0,-2.0,-1.0,-1.0,-1.0,1651069206670385.0,0
732,0.0,0.0,1.0,1.0,1.0,2.0,1.0,0.0,1651069206691340.0,0
733,-1.0,-1.0,-1.0,-2.0,-4.0,-1.0,0.0,-1.0,1651069206691340.0,0
734,-1.0,0.0,1.0,-1.0,-1.0,1.0,0.0,-1.0,1651069206692293.0,0
735,-2.0,0.0,-3.0,-4.0,-2.0,-2.0,0.0,-2.0,1651069206692293.0,0
736,0.0,1.0,0.0,-1.0,-2.0,-5.0,-1.0,-1.0,1651069206705908.0,0
737,-1.0,0.0,0.0,-1.0,0.0,0.0,3.0,-2.0,1651069206705908.0,0
738,0.0,0.0,1.0,1.0,-1.0,0.0,-1.0,1.0,1651069206707862.0,0
739,-1.0,-1.0,-2.0,0.0,0.0,-5.0,-2.0,-2.0,1651069206707862.0,0
740,0.0,-3.0,-2.0,-1.0,3.0,4.0,1.0,0.0,1651069206728928.0,0
741,-1.0,0.0,0.0,1.0,3.0,5.0,0.0,1.0,1651069206728928.0,0
742,-1.0,-2.0,-1.0,-2.0,-3.0,0.0,-3.0,-1.0,1651069206729910.0,0
743,0.0,0.0,2.0,0.0,-2.0,0.0,-1.0,0.0,1651069206729910.0,0
744,-2.0,-3.0,-4.0,-3.0,-2.0,-3.0,-1.0,-2.0,1651069206751454.0,0
745,0.0,-3.0,-3.0,-1.0,-2.0,-2.0,-2.0,-2.0,1651069206751454.0,0
746,-1.0,0.0,0.0,0.0,-1.0,-2.0,1.0,0.0,1651069206752397.0,0
747,0.0,0.0,0.0,1.0,0.0,3.0,1.0,0.0,1651069206752397.0,0
748,0.0,1.0,1.0,-2.0,0.0,0.0,0.0,0.0,1651069206765473.0,0
749,-1.0,0.0,0.0,-1.0,-2.0,-1.0,-2.0,0.0,1651069206765473.0,0
750,0.0,0.0,-1.0,-1.0,-3.0,-3.0,-2.0,-1.0,1651069206772525.0,0
751,-1.0,-1.0,0.0,-1.0,-1.0,0.0,-1.0,-2.0,1651069206772525.0,0
752,0.0,1.0,-1.0,1.0,-1.0,1.0,0.0,0.0,1651069206787539.0,0
753,-2.0,1.0,3.0,2.0,0.0,0.0,-1.0,-1.0,1651069206787539.0,0
754,-1.0,-1.0,-3.0,-2.0,-2.0,-2.0,0.0,-1.0,1651069206796578.0,0
755,-1.0,2.0,3.0,3.0,4.0,2.0,0.0,0.0,1651069206796578.0,0
756,-1.0,-1.0,0.0,2.0,1.0,-1.0,-2.0,-2.0,1651069206810680.0,0
757,0.0,-1.0,-5.0,-5.0,-5.0,-2.0,-1.0,2.0,1651069206810680.0,0
758,-1.0,-3.0,-5.0,-1.0,-2.0,-3.0,0.0,-1.0,1651069206812638.0,0
759,-1.0,-2.0,0.0,0.0,4.0,6.0,-1.0,-1.0,1651069206812638.0,0
760,-1.0,-1.0,-1.0,-4.0,0.0,-2.0,-1.0,0.0,1651069206825460.0,0
761,-1.0,-1.0,-1.0,1.0,5.0,3.0,-1.0,-2.0,1651069206825460.0,0
762,-1.0,-2.0,-3.0,-1.0,-2.0,-2.0,1.0,0.0,1651069206832509.0,0
763,-2.0,-1.0,1.0,-3.0,-4.0,-3.0,-1.0,0.0,1651069206832509.0,0
764,-1.0,-1.0,-3.0,-1.0,-3.0,-2.0,-1.0,0.0,1651069206848895.0,0
765,0.0,2.0,7.0,0.0,-1.0,-3.0,-2.0,-1.0,1651069206848895.0,0
766,1.0,1.0,3.0,2.0,6.0,5.0,1.0,0.0,1651069206849895.0,0
767,-1.0,-5.0,-9.0,-2.0,1.0,3.0,5.0,0.0,1651069206849895.0,0
768,1.0,5.0,15.0,16.0,2.0,1.0,-2.0,-1.0,1651069206878396.0,0
769,-6.0,-11.0,-28.0,-19.0,-13.0,-12.0,-4.0,-3.0,1651069206878396.0,0
770,2.0,1.0,6.0,0.0,-1.0,2.0,0.0,-2.0,1651069206880389.0,2
771,-1.0,-1.0,-4.0,-7.0,-4.0,-2.0,-1.0,0.0,1651069206880389.0,2
772,0.0,3.0,9.0,5.0,2.0,1.0,1.0,0.0,1651069206885376.0,2
773,3.0,5.0,17.0,12.0,12.0,5.0,0.0,0.0,1651069206885376.0,2
774,-2.0,-7.0,-12.0,-4.0,-2.0,-1.0,0.0,-1.0,1651069206892398.0,2
775,-2.0,-4.0,-8.0,-5.0,-3.0,-1.0,-1.0,0.0,1651069206892398.0,2
776,-2.0,-3.0,-9.0,-8.0,-3.0,-3.0,0.0,-1.0,1651069206908413.0,2
777,-1.0,2.0,4.0,5.0,-2.0,-5.0,-2.0,-1.0,1651069206908413.0,2
778,1.0,5.0,7.0,2.0,2.0,3.0,3.0,1.0,1651069206910367.0,2
779,0.0,-1.0,-5.0,-1.0,4.0,3.0,-1.0,-3.0,1651069206910367.0,2
780,-1.0,-4.0,0.0,4.0,2.0,-5.0,-3.0,-2.0,1651069206930554.0,2
781,0.0,-1.0,-5.0,-9.0,-6.0,-1.0,2.0,-1.0,1651069206930554.0,2
782,-2.0,-1.0,1.0,-5.0,-6.0,-1.0,0.0,-1.0,1651069206932526.0,2
783,0.0,2.0,3.0,2.0,3.0,-3.0,-3.0,1.0,1651069206932526.0,2
784,-1.0,4.0,8.0,5.0,-5.0,0.0,2.0,3.0,1651069206945643.0,2
785,-4.0,-5.0,-11.0,-6.0,2.0,-2.0,-1.0,-1.0,1651069206945643.0,2
786,1.0,5.0,8.0,9.0,6.0,2.0,-1.0,-1.0,1651069206951680.0,2
787,1.0,2.0,7.0,2.0,-2.0,-3.0,0.0,-1.0,1651069206951680.0,2
788,-3.0,-6.0,-11.0,6.0,4.0,3.0,0.0,-1.0,1651069206968382.0,2
789,0.0,0.0,-2.0,-9.0,-11.0,-5.0,-1.0,2.0,1651069206968382.0,2
790,-3.0,-1.0,2.0,6.0,13.0,5.0,-3.0,-2.0,1651069206970336.0,2
791,1.0,3.0,8.0,-5.0,-14.0,-6.0,-3.0,0.0,1651069206970336.0,2
792,1.0,4.0,7.0,20.0,18.0,2.0,-3.0,-6.0,1651069206991293.0,2
793,-3.0,-13.0,-35.0,-43.0,-26.0,-3.0,1.0,5.0,1651069206991293.0,2
794,1.0,5.0,9.0,13.0,17.0,9.0,-2.0,0.0,1651069206992223.0,2
795,-2.0,-5.0,-12.0,-12.0,-9.0,-8.0,-13.0,-10.0,1651069206992223.0,2
796,7.0,7.0,16.0,6.0,1.0,7.0,32.0,18.0,1651069207005359.0,2
797,2.0,4.0,12.0,25.0,19.0,6.0,-4.0,0.0,1651069207005359.0,2
798,1.0,3.0,15.0,54.0,23.0,3.0,-7.0,-6.0,1651069207012458.0,2
799,-7.0,-14.0,-41.0,-74.0,-60.0,-21.0,-19.0,-10.0,1651069207012458.0,2
800,-3.0,-4.0,-14.0,-9.0,-23.0,-6.0,14.0,3.0,1651069207028573.0,2
801,6.0,5.0,11.0,1.0,-9.0,2.0,26.0,18.0,1651069207028573.0,2
802,-4.0,-5.0,-8.0,-13.0,-1.0,-3.0,3.0,2.0,1651069207030511.0,2
803,4.0,9.0,31.0,59.0,57.0,15.0,-5.0,-4.0,1651069207030511.0,2
804,-1.0,-8.0,-21.0,-50.0,-41.0,-11.0,-21.0,-11.0,1651069207050663.0,2
805,-8.0,-2.0,-5.0,-12.0,1.0,-6.0,-22.0,-11.0,1651069207050663.0,2
806,7.0,-1.0,-8.0,-19.0,-20.0,1.0,29.0,23.0,1651069207052591.0,2
807,-2.0,1.0,6.0,43.0,25.0,6.0,1.0,-4.0,1651069207052591.0,2
808,2.0,2.0,14.0,23.0,-2.0,-3.0,-23.0,-3.0,1651069207065319.0,2
809,3.0,5.0,12.0,-18.0,-15.0,-5.0,21.0,12.0,1651069207065319.0,2
810,-9.0,-14.0,-28.0,-39.0,-37.0,-18.0,-30.0,-16.0,1651069207072414.0,2
811,-5.0,1.0,-6.0,-22.0,2.0,3.0,-5.0,-6.0,1651069207072414.0,2
812,10.0,11.0,7.0,-67.0,-14.0,8.0,31.0,25.0,1651069207088648.0,2
813,-2.0,0.0,24.0,117.0,45.0,9.0,-7.0,-8.0,1651069207088648.0,2
814,4.0,3.0,-12.0,-14.0,23.0,16.0,9.0,7.0,1651069207089640.0,2
815,-1.0,3.0,14.0,12.0,6.0,1.0,7.0,1.0,1651069207089640.0,2
816,-7.0,1.0,-3.0,-45.0,-26.0,-19.0,-30.0,-27.0,1651069207111375.0,2
817,-6.0,-7.0,-5.0,45.0,40.0,22.0,40.0,14.0,1651069207111375.0,2
818,18.0,7.0,13.0,25.0,11.0,4.0,3.0,4.0,1651069207112357.0,2
819,-15.0,0.0,13.0,9.0,9.0,9.0,18.0,15.0,1651069207112357.0,2
820,21.0,7.0,9.0,55.0,42.0,8.0,-22.0,-16.0,1651069207124402.0,2
821,-33.0,-2.0,-24.0,-70.0,-43.0,-16.0,26.0,45.0,1651069207124402.0,2
822,28.0,5.0,8.0,41.0,15.0,5.0,-28.0,-36.0,1651069207133380.0,2
823,-61.0,-25.0,10.0,-10.0,-29.0,3.0,48.0,44.0,1651069207133380.0,2
824,81.0,0.0,-41.0,-10.0,2.0,2.0,26.0,34.0,1651069207148642.0,2
825,-54.0,-12.0,-10.0,-38.0,-9.0,-8.0,-32.0,-54.0,1651069207148642.0,2
826,9.0,7.0,10.0,15.0,9.0,-1.0,-9.0,3.0,1651069207149598.0,2
827,-22.0,1.0,-1.0,26.0,18.0,-2.0,-34.0,-16.0,1651069207149598.0,2
828,-6.0,-2.0,30.0,14.0,-4.0,-11.0,-27.0,-16.0,1651069207170631.0,2
829,31.0,10.0,1.0,-8.0,9.0,16.0,18.0,13.0,1651069207170631.0,2
830,10.0,-10.0,-29.0,-26.0,-2.0,-13.0,-2.0,13.0,1651069207172626.0,2
831,9.0,13.0,-7.0,-70.0,-31.0,-9.0,-32.0,-34.0,1651069207172626.0,2
832,-56.0,-24.0,-13.0,39.0,24.0,20.0,39.0,29.0,1651069207185077.0,2
833,25.0,12.0,-5.0,-54.0,-15.0,-13.0,-30.0,-24.0,1651069207185077.0,2
834,-38.0,-1.0,48.0,2.0,-28.0,-10.0,-10.0,-24.0,1651069207193316.0,2
835,83.0,-8.0,-17.0,34.0,4.0,0.0,25.0,40.0,1651069207193316.0,2
836,21.0,8.0,0.0,-38.0,14.0,2.0,-20.0,-8.0,1651069207208787.0,2
837,-86.0,-1.0,-6.0,-24.0,-10.0,1.0,5.0,-41.0,1651069207208787.0,2
838,1.0,-18.0,3.0,10.0,-8.0,-7.0,8.0,7.0,1651069207209799.0,2
839,18.0,8.0,-18.0,12.0,11.0,2.0,-18.0,-7.0,1651069207209799.0,2
840,-10.0,-1.0,10.0,61.0,33.0,9.0,35.0,10.0,1651069207230946.0,2
841,38.0,-4.0,-8.0,-6.0,-11.0,-12.0,-29.0,-11.0,1651069207230946.0,2
842,-26.0,4.0,4.0,17.0,23.0,17.0,2.0,5.0,1651069207232901.0,2
843,-25.0,-3.0,-26.0,-37.0,-1.0,-5.0,-2.0,-13.0,1651069207232901.0,2
844,-40.0,4.0,45.0,40.0,1.0,-11.0,-20.0,-20.0,1651069207244971.0,2
845,11.0,-11.0,-7.0,-11.0,-43.0,-19.0,-29.0,-13.0,1651069207244971.0,2
846,23.0,6.0,-16.0,-28.0,36.0,32.0,51.0,45.0,1651069207253962.0,2
847,13.0,8.0,22.0,18.0,-6.0,-4.0,5.0,7.0,1651069207253962.0,2
848,21.0,-8.0,-23.0,-24.0,0.0,4.0,-23.0,-21.0,1651069207269603.0,2
849,11.0,-2.0,-12.0,24.0,21.0,7.0,26.0,49.0,1651069207269603.0,2
850,-19.0,4.0,22.0,7.0,-32.0,-20.0,-22.0,-30.0,1651069207274592.0,2
851,12.0,3.0,2.0,-27.0,-1.0,7.0,26.0,26.0,1651069207274592.0,2
852,-3.0,-14.0,-30.0,-16.0,-36.0,-24.0,-11.0,-8.0,1651069207291322.0,2
853,-1.0,0.0,17.0,23.0,8.0,16.0,20.0,7.0,1651069207291322.0,2
854,0.0,-5.0,-20.0,-11.0,12.0,-5.0,-3.0,2.0,1651069207292616.0,2
855,-2.0,1.0,11.0,22.0,8.0,6.0,2.0,-11.0,1651069207292616.0,2
856,-24.0,4.0,5.0,15.0,1.0,1.0,9.0,-1.0,1651069207304651.0,2
857,22.0,1.0,16.0,-24.0,1.0,-5.0,-15.0,8.0,1651069207304651.0,2
858,-11.0,-2.0,-14.0,-7.0,-16.0,-2.0,-1.0,1.0,1651069207313578.0,2
859,-7.0,-5.0,13.0,23.0,16.0,-4.0,-20.0,-23.0,1651069207313578.0,2
860,13.0,1.0,3.0,-4.0,-17.0,-9.0,-5.0,5.0,1651069207328705.0,2
861,0.0,-1.0,-15.0,-11.0,0.0,-4.0,-14.0,-4.0,1651069207328705.0,2
862,-26.0,-3.0,-5.0,-10.0,8.0,6.0,6.0,3.0,1651069207329662.0,2
863,49.0,13.0,11.0,1.0,-9.0,-6.0,16.0,22.0,1651069207329662.0,2
864,-5.0,2.0,-10.0,-3.0,17.0,11.0,-17.0,-23.0,1651069207351857.0,2
865,-10.0,-6.0,16.0,18.0,11.0,6.0,36.0,26.0,1651069207351857.0,2
866,22.0,-16.0,-28.0,-14.0,-11.0,-16.0,-33.0,-33.0,1651069207352779.0,2
867,-7.0,3.0,3.0,-29.0,-50.0,-14.0,28.0,34.0,1651069207352779.0,2
868,-20.0,-1.0,0.0,40.0,37.0,14.0,11.0,-7.0,1651069207365077.0,2
869,39.0,30.0,47.0,38.0,18.0,25.0,46.0,37.0,1651069207365077.0,2
870,-10.0,1.0,-8.0,-3.0,10.0,-2.0,-7.0,-13.0,1651069207373266.0,2
871,-6.0,-6.0,-21.0,-34.0,-34.0,-3.0,15.0,4.0,1651069207373266.0,2
872,7.0,0.0,12.0,20.0,5.0,-2.0,-5.0,-7.0,1651069207388294.0,2
873,-36.0,-6.0,4.0,-7.0,-6.0,-10.0,-20.0,-22.0,1651069207388294.0,2
874,2.0,-2.0,-12.0,-28.0,-26.0,-9.0,2.0,0.0,1651069207390223.0,2
875,-3.0,2.0,10.0,26.0,25.0,-5.0,-25.0,-26.0,1651069207390223.0,2
876,-32.0,-19.0,-8.0,-13.0,-12.0,3.0,6.0,16.0,1651069207411177.0,2
877,7.0,-5.0,-31.0,-27.0,-1.0,4.0,-10.0,-24.0,1651069207411177.0,2
878,-23.0,-3.0,4.0,23.0,-5.0,-3.0,9.0,13.0,1651069207412168.0,2
879,-28.0,-3.0,15.0,37.0,26.0,-2.0,-35.0,-40.0,1651069207412168.0,2
880,28.0,3.0,-20.0,-59.0,-39.0,-13.0,21.0,18.0,1651069207424215.0,2
881,15.0,1.0,0.0,41.0,7.0,-3.0,-15.0,-11.0,1651069207424215.0,2
882,1.0,8.0,30.0,0.0,-7.0,-6.0,-42.0,-26.0,1651069207433208.0,2
883,19.0,1.0,-24.0,-33.0,-20.0,2.0,38.0,32.0,1651069207433208.0,2
884,-6.0,-2.0,-1.0,-7.0,28.0,5.0,-16.0,-11.0,1651069207448365.0,2
885,14.0,1.0,-8.0,-6.0,-26.0,-12.0,16.0,27.0,1651069207448365.0,2
886,17.0,10.0,10.0,19.0,-2.0,13.0,23.0,17.0,1651069207450342.0,2
887,-6.0,-3.0,-2.0,6.0,16.0,-4.0,-24.0,-22.0,1651069207450342.0,2
888,22.0,3.0,-14.0,-78.0,-26.0,-9.0,-21.0,-7.0,1651069207470981.0,2
889,27.0,2.0,6.0,50.0,21.0,7.0,17.0,17.0,1651069207470981.0,2
890,-18.0,-5.0,-6.0,5.0,-4.0,-2.0,5.0,2.0,1651069207473002.0,2
891,2.0,8.0,9.0,-8.0,-6.0,-5.0,-16.0,-15.0,1651069207473002.0,2
892,-8.0,3.0,-1.0,20.0,-7.0,0.0,23.0,19.0,1651069207485077.0,2
893,-11.0,-2.0,-1.0,-1.0,9.0,-5.0,-36.0,-28.0,1651069207485077.0,2
894,6.0,-1.0,-3.0,17.0,5.0,0.0,-4.0,-10.0,1651069207494064.0,2
895,-32.0,2.0,-12.0,-16.0,-10.0,8.0,31.0,9.0,1651069207494064.0,2
896,0.0,6.0,31.0,26.0,11.0,-4.0,-11.0,-15.0,1651069207508157.0,2
897,6.0,-7.0,-2.0,3.0,-13.0,-7.0,-1.0,1.0,1651069207508157.0,2
898,-30.0,-5.0,-10.0,-6.0,0.0,-6.0,-5.0,-11.0,1651069207510085.0,2
899,-5.0,-10.0,-13.0,-58.0,-17.0,-2.0,-14.0,-1.0,1651069207510085.0,2
900,4.0,13.0,31.0,57.0,29.0,14.0,6.0,6.0,1651069207531096.0,2
901,15.0,-6.0,-43.0,-21.0,0.0,1.0,2.0,1.0,1651069207531096.0,2
902,15.0,-1.0,12.0,-39.0,-29.0,-10.0,5.0,8.0,1651069207533024.0,2
903,-3.0,-1.0,6.0,29.0,21.0,2.0,-7.0,-4.0,1651069207533024.0,2
904,-2.0,-6.0,0.0,14.0,4.0,9.0,13.0,14.0,1651069207553471.0,2
905,-13.0,0.0,1.0,-18.0,3.0,-1.0,-29.0,-9.0,1651069207553471.0,2
906,8.0,8.0,7.0,11.0,10.0,-1.0,-7.0,7.0,1651069207555468.0,2
907,10.0,-3.0,5.0,22.0,10.0,1.0,-3.0,-7.0,1651069207555468.0,2
908,-14.0,3.0,5.0,21.0,1.0,-1.0,2.0,7.0,1651069207568501.0,2
909,-3.0,-4.0,4.0,-24.0,5.0,6.0,-4.0,-13.0,1651069207568501.0,2
910,-2.0,-1.0,-18.0,-6.0,14.0,10.0,11.0,4.0,1651069207570428.0,2
911,2.0,3.0,23.0,23.0,13.0,5.0,-5.0,-4.0,1651069207570428.0,2
912,-32.0,-10.0,-34.0,-39.0,-16.0,-17.0,-27.0,-22.0,1651069207590477.0,2
913,74.0,9.0,20.0,37.0,3.0,-3.0,-4.0,12.0,1651069207590477.0,2
914,9.0,0.0,4.0,-6.0,-6.0,-1.0,2.0,-6.0,1651069207598412.0,2
915,2.0,1.0,-9.0,-4.0,16.0,10.0,9.0,5.0,1651069207598412.0,2
916,-2.0,-2.0,-13.0,-33.0,-13.0,1.0,12.0,11.0,1651069207613710.0,2
917,13.0,3.0,22.0,49.0,10.0,2.0,-9.0,-4.0,1651069207613710.0,2
918,-3.0,-5.0,-12.0,-16.0,-8.0,-10.0,11.0,28.0,1651069207614680.0,2
919,31.0,1.0,4.0,-33.0,-21.0,-5.0,4.0,0.0,1651069207614680.0,2
920,2.0,-3.0,-7.0,77.0,23.0,5.0,2.0,-3.0,1651069207628163.0,2
921,-13.0,8.0,18.0,-14.0,19.0,16.0,11.0,-1.0,1651069207628163.0,2
922,8.0,-8.0,7.0,42.0,-2.0,-9.0,-17.0,-11.0,1651069207630092.0,2
923,-22.0,-10.0,-24.0,-23.0,-15.0,0.0,5.0,-1.0,1651069207630092.0,2
924,-4.0,1.0,18.0,-20.0,-15.0,-1.0,10.0,11.0,1651069207650891.0,2
925,13.0,-1.0,-18.0,18.0,4.0,-2.0,-12.0,-6.0,1651069207650891.0,2
926,-13.0,0.0,-2.0,-11.0,11.0,6.0,10.0,-8.0,1651069207652819.0,2
927,-11.0,-15.0,-29.0,-16.0,-20.0,-9.0,-14.0,8.0,1651069207652819.0,2
928,3.0,-8.0,22.0,-11.0,-18.0,-8.0,-9.0,-8.0,1651069207673024.0,2
929,-29.0,-2.0,0.0,-24.0,-24.0,-19.0,-15.0,-15.0,1651069207673024.0,2
930,30.0,6.0,-14.0,-10.0,16.0,24.0,9.0,3.0,1651069207675021.0,2
931,7.0,0.0,1.0,32.0,4.0,-9.0,-14.0,-7.0,1651069207675021.0,2
932,-9.0,-11.0,-9.0,-28.0,-15.0,-10.0,-27.0,-17.0,1651069207687672.0,2
933,-35.0,-7.0,-22.0,-39.0,-10.0,-8.0,-6.0,-20.0,1651069207687672.0,2
934,15.0,4.0,16.0,2.0,-22.0,-14.0,13.0,21.0,1651069207694783.0,2
935,16.0,-10.0,-17.0,27.0,9.0,-1.0,9.0,8.0,1651069207694783.0,2
936,0.0,6.0,-6.0,-5.0,4.0,4.0,-2.0,-6.0,1651069207710835.0,2
937,8.0,-9.0,-8.0,-14.0,-18.0,-9.0,-8.0,-4.0,1651069207710835.0,2
938,-4.0,-4.0,-12.0,-43.0,-29.0,-9.0,19.0,17.0,1651069207712830.0,2
939,3.0,7.0,32.0,36.0,19.0,6.0,-12.0,-6.0,1651069207712830.0,2
940,5.0,5.0,-16.0,-18.0,20.0,12.0,23.0,11.0,1651069207733920.0,2
941,-14.0,4.0,20.0,0.0,6.0,14.0,19.0,5.0,1651069207733920.0,2
942,-1.0,1.0,10.0,37.0,16.0,2.0,-9.0,-5.0,1651069207734923.0,2
943,-21.0,-4.0,-5.0,-23.0,-21.0,-9.0,-16.0,-10.0,1651069207734923.0,2
944,12.0,4.0,-22.0,-13.0,-1.0,6.0,28.0,21.0,1651069207747952.0,2
945,-17.0,3.0,18.0,23.0,2.0,-2.0,6.0,-1.0,1651069207747952.0,2
946,-8.0,1.0,-9.0,-16.0,9.0,2.0,-8.0,-5.0,1651069207754868.0,2
947,-8.0,4.0,5.0,18.0,1.0,-3.0,-8.0,-21.0,1651069207754868.0,2
948,2.0,3.0,-2.0,2.0,7.0,10.0,17.0,20.0,1651069207771222.0,2
949,47.0,2.0,-11.0,2.0,4.0,4.0,6.0,13.0,1651069207771222.0,2
950,-10.0,4.0,45.0,28.0,6.0,-4.0,-3.0,2.0,1651069207772192.0,2
951,3.0,3.0,-36.0,-30.0,5.0,11.0,17.0,4.0,1651069207772192.0,2
952,5.0,-14.0,9.0,-11.0,-6.0,-15.0,-58.0,-28.0,1651069207793707.0,2
953,-20.0,9.0,9.0,8.0,-3.0,6.0,54.0,19.0,1651069207793707.0,2
954,-12.0,-11.0,-7.0,-1.0,13.0,2.0,-5.0,-12.0,1651069207794744.0,2
955,7.0,6.0,11.0,-5.0,7.0,5.0,3.0,10.0,1651069207794744.0,2
956,-1.0,0.0,4.0,6.0,1.0,-1.0,-4.0,-10.0,1651069207807737.0,2
957,-8.0,-3.0,-17.0,-8.0,-8.0,2.0,-12.0,-5.0,1651069207807737.0,2
958,-6.0,0.0,-4.0,-7.0,-28.0,-18.0,-10.0,-12.0,1651069207814718.0,2
959,-4.0,4.0,12.0,-4.0,38.0,23.0,11.0,7.0,1651069207814718.0,2
960,4.0,5.0,7.0,18.0,5.0,-4.0,6.0,5.0,1651069207831379.0,2
961,-10.0,-7.0,2.0,-5.0,-14.0,-4.0,-12.0,-7.0,1651069207831379.0,2
962,12.0,3.0,-15.0,-16.0,-4.0,4.0,17.0,17.0,1651069207832379.0,2
963,-9.0,-9.0,-4.0,-7.0,-13.0,-11.0,-9.0,-6.0,1651069207832379.0,2
964,-5.0,-7.0,-10.0,12.0,-9.0,-16.0,-17.0,-7.0,1651069207861173.0,2
965,-2.0,8.0,27.0,0.0,13.0,14.0,-2.0,2.0,1651069207861173.0,2
966,-14.0,-8.0,-29.0,-2.0,6.0,2.0,-9.0,-12.0,1651069207862127.0,2
967,-8.0,-6.0,6.0,0.0,-8.0,-7.0,-3.0,-8.0,1651069207862127.0,2
968,-9.0,1.0,-21.0,-5.0,1.0,1.0,1.0,-3.0,1651069207868115.0,2
969,38.0,2.0,17.0,1.0,-2.0,-10.0,-10.0,1.0,1651069207868115.0,2
970,14.0,-1.0,-8.0,-2.0,-8.0,-3.0,-4.0,-11.0,1651069207875079.0,2
971,2.0,6.0,23.0,12.0,-2.0,-1.0,11.0,20.0,1651069207875079.0,2
972,-6.0,-4.0,-22.0,-27.0,-7.0,4.0,10.0,-4.0,1651069207891260.0,2
973,-10.0,0.0,5.0,34.0,14.0,1.0,-3.0,4.0,1651069207891260.0,2
974,1.0,4.0,12.0,-10.0,-12.0,0.0,-2.0,-3.0,1651069207892218.0,2
975,2.0,-9.0,-23.0,-11.0,3.0,-3.0,-11.0,-6.0,1651069207892218.0,2
976,10.0,4.0,4.0,10.0,-2.0,3.0,29.0,13.0,1651069207913910.0,2
977,-24.0,-14.0,-12.0,-4.0,-6.0,-9.0,-11.0,-5.0,1651069207913910.0,2
978,3.0,5.0,13.0,9.0,-6.0,-6.0,-4.0,5.0,1651069207914910.0,2
979,-6.0,1.0,-3.0,12.0,19.0,13.0,9.0,-1.0,1651069207914910.0,2
980,4.0,2.0,2.0,-10.0,-11.0,-5.0,-8.0,-4.0,1651069207927942.0,2
981,-13.0,-10.0,-21.0,-30.0,-18.0,-8.0,-3.0,-5.0,1651069207927942.0,2
982,-10.0,-4.0,-10.0,-11.0,3.0,0.0,-7.0,-13.0,1651069207934926.0,2
983,3.0,-7.0,-4.0,35.0,0.0,0.0,4.0,0.0,1651069207934926.0,2
984,-1.0,12.0,33.0,16.0,3.0,-1.0,15.0,13.0,1651069207950999.0,2
985,10.0,-6.0,-20.0,11.0,11.0,-3.0,-5.0,-1.0,1651069207950999.0,2
986,-4.0,1.0,-4.0,-14.0,-14.0,-11.0,-10.0,-4.0,1651069207952926.0,2
987,-5.0,-2.0,-6.0,-14.0,-12.0,-2.0,-5.0,6.0,1651069207952926.0,2
988,6.0,5.0,25.0,-2.0,0.0,0.0,1.0,-5.0,1651069207973878.0,2
989,-35.0,-4.0,-5.0,-23.0,-5.0,-4.0,-4.0,-13.0,1651069207973878.0,2
990,37.0,5.0,2.0,21.0,1.0,-6.0,-13.0,11.0,1651069207974876.0,2
991,6.0,-1.0,-12.0,2.0,-13.0,-1.0,28.0,16.0,1651069207974876.0,2
992,-5.0,7.0,24.0,-1.0,1.0,6.0,-7.0,-6.0,1651069207987833.0,2
993,-5.0,2.0,8.0,8.0,10.0,-1.0,-12.0,0.0,1651069207987833.0,2
994,-12.0,-5.0,-13.0,-5.0,13.0,17.0,23.0,-7.0,1651069207994226.0,2
995,-2.0,-1.0,18.0,-1.0,-6.0,-7.0,-2.0,-2.0,1651069207994226.0,2
996,8.0,-4.0,-26.0,-2.0,0.0,-1.0,-19.0,-10.0,1651069208011357.0,2
997,0.0,-8.0,-19.0,-12.0,-5.0,4.0,35.0,30.0,1651069208011357.0,2
998,-8.0,-3.0,0.0,-8.0,-8.0,-9.0,-14.0,-9.0,1651069208012336.0,2
999,1.0,4.0,9.0,21.0,23.0,0.0,-7.0,-7.0,1651069208012336.0,2
1000,-1.0,-2.0,9.0,-3.0,4.0,17.0,10.0,3.0,1651069208033875.0,2
1001,-1.0,0.0,-8.0,0.0,6.0,-5.0,-20.0,-18.0,1651069208033875.0,2
1002,-2.0,7.0,34.0,39.0,13.0,5.0,8.0,4.0,1651069208035433.0,2
1003,1.0,-8.0,-22.0,-36.0,-25.0,-10.0,1.0,1.0,1651069208035433.0,2
1004,-2.0,-3.0,-9.0,5.0,-6.0,-5.0,-4.0,0.0,1651069208047441.0,2
1005,-23.0,2.0,11.0,-5.0,8.0,4.0,-6.0,-9.0,1651069208047441.0,2
1006,10.0,2.0,0.0,5.0,9.0,3.0,5.0,9.0,1651069208056321.0,2
1007,-13.0,-7.0,-9.0,1.0,-2.0,-10.0,-34.0,-36.0,1651069208056321.0,2
1008,14.0,6.0,7.0,-3.0,-4.0,3.0,37.0,40.0,1651069208078372.0,2
1009,-5.0,0.0,-2.0,1.0,-7.0,0.0,-10.0,-14.0,1651069208078372.0,2
1010,-4.0,4.0,3.0,-2.0,3.0,7.0,23.0,16.0,1651069208080365.0,2
1011,-5.0,-3.0,0.0,-19.0,0.0,-4.0,-22.0,-13.0,1651069208080365.0,2
1012,12.0,-3.0,-13.0,7.0,5.0,7.0,29.0,24.0,1651069208093721.0,2
1013,-28.0,-1.0,14.0,10.0,-8.0,-5.0,-4.0,-9.0,1651069208093721.0,2
1014,16.0,6.0,12.0,-12.0,6.0,1.0,-1.0,8.0,1651069208094719.0,2
1015,6.0,3.0,-1.0,14.0,14.0,5.0,0.0,3.0,1651069208094719.0,2
1016,-5.0,-9.0,-11.0,-13.0,-9.0,-2.0,-10.0,-11.0,1651069208106753.0,2
1017,9.0,0.0,-5.0,-2.0,-6.0,-5.0,-8.0,0.0,1651069208106753.0,2
1018,-10.0,-8.0,-24.0,-19.0,-14.0,-6.0,6.0,1.0,1651069208115777.0,2
1019,-4.0,2.0,30.0,31.0,6.0,14.0,5.0,1.0,1651069208115777.0,2
1020,-8.0,-2.0,-5.0,14.0,3.0,-7.0,-8.0,-12.0,1651069208130901.0,2
1021,11.0,-1.0,-15.0,-15.0,-8.0,-5.0,4.0,6.0,1651069208130901.0,2
1022,-12.0,-5.0,-14.0,-30.0,-4.0,2.0,-6.0,-3.0,1651069208132850.0,2
1023,9.0,3.0,-4.0,-5.0,-5.0,-2.0,13.0,9.0,1651069208132850.0,2
1024,-9.0,0.0,3.0,-7.0,-8.0,-8.0,-8.0,5.0,1651069208153885.0,2
1025,10.0,4.0,2.0,5.0,3.0,4.0,2.0,1.0,1651069208153885.0,2
1026,0.0,4.0,9.0,12.0,0.0,-3.0,0.0,-1.0,1651069208154885.0,2
1027,-3.0,7.0,8.0,-16.0,-5.0,1.0,9.0,8.0,1651069208154885.0,2
1028,-7.0,-10.0,-12.0,-9.0,3.0,-1.0,-14.0,-14.0,1651069208166920.0,2
1029,8.0,3.0,5.0,-1.0,-2.0,-3.0,2.0,3.0,1651069208166920.0,2
1030,0.0,-2.0,-7.0,-10.0,-6.0,-2.0,7.0,6.0,1651069208183790.0,2
1031,0.0,4.0,13.0,15.0,10.0,3.0,-11.0,-7.0,1651069208183790.0,2
1032,-3.0,-1.0,-8.0,-9.0,-12.0,-5.0,-8.0,-10.0,1651069208190842.0,2
1033,10.0,1.0,0.0,17.0,13.0,7.0,3.0,4.0,1651069208190842.0,2
1034,-7.0,-2.0,-6.0,-8.0,0.0,-2.0,-6.0,-5.0,1651069208192795.0,2
1035,-2.0,-6.0,-11.0,-2.0,-11.0,-5.0,0.0,-2.0,1651069208192795.0,2
1036,7.0,0.0,-1.0,3.0,6.0,4.0,6.0,6.0,1651069208213850.0,2
1037,-1.0,0.0,0.0,5.0,0.0,-1.0,-1.0,0.0,1651069208213850.0,2
1038,0.0,2.0,5.0,10.0,9.0,4.0,-4.0,0.0,1651069208214612.0,2
1039,-1.0,2.0,0.0,13.0,0.0,-1.0,3.0,1.0,1651069208214612.0,2
1040,-3.0,-2.0,-2.0,-15.0,-2.0,-1.0,-9.0,-5.0,1651069208226709.0,2
1041,3.0,-1.0,2.0,6.0,0.0,-2.0,2.0,0.0,1651069208226709.0,2
1042,-3.0,-3.0,-6.0,0.0,0.0,-1.0,-3.0,-3.0,1651069208236601.0,2
1043,1.0,1.0,1.0,-2.0,-5.0,-4.0,4.0,3.0,1651069208236601.0,2
1044,-5.0,-1.0,-6.0,-4.0,-2.0,-3.0,-5.0,-7.0,1651069208251378.0,2
1045,3.0,1.0,6.0,6.0,1.0,-1.0,-6.0,-5.0,1651069208251378.0,2
1046,-1.0,-1.0,-4.0,3.0,-3.0,-1.0,4.0,-1.0,1651069208252623.0,2
1047,-3.0,-1.0,-6.0,-6.0,1.0,1.0,0.0,2.0,1651069208252623.0,2
1048,-2.0,1.0,6.0,4.0,2.0,-3.0,-8.0,-6.0,1651069208275076.0,2
1049,2.0,0.0,-2.0,-4.0,1.0,2.0,1.0,1.0,1651069208275076.0,2
1050,-2.0,-4.0,2.0,3.0,0.0,-2.0,-4.0,-4.0,1651069208276106.0,2
1051,2.0,0.0,0.0,-3.0,1.0,4.0,3.0,2.0,1651069208276106.0,2
1052,-2.0,1.0,2.0,3.0,3.0,-2.0,-1.0,-2.0,1651069208287108.0,2
1053,2.0,0.0,2.0,-2.0,1.0,1.0,4.0,3.0,1651069208287108.0,2
1054,-4.0,-4.0,-3.0,0.0,-9.0,-3.0,-2.0,-3.0,1651069208296153.0,2
1055,-1.0,0.0,-2.0,-4.0,7.0,1.0,0.0,1.0,1651069208296153.0,2
1056,-1.0,-2.0,-2.0,1.0,-4.0,-5.0,-4.0,-5.0,1651069208311203.0,2
1057,0.0,-1.0,-1.0,0.0,-1.0,-1.0,0.0,0.0,1651069208311203.0,2
1058,0.0,-2.0,1.0,-2.0,-5.0,-2.0,-2.0,-3.0,1651069208312203.0,2
1059,0.0,-2.0,-3.0,2.0,7.0,1.0,-2.0,-1.0,1651069208312203.0,2
1060,-2.0,-1.0,-2.0,-4.0,-2.0,-2.0,-4.0,-3.0,1651069208333321.0,2
1061,-1.0,-1.0,0.0,-1.0,-3.0,2.0,2.0,0.0,1651069208333321.0,2
1062,-2.0,-2.0,-1.0,-2.0,-1.0,-1.0,-2.0,0.0,1651069208335238.0,2
1063,1.0,-1.0,-2.0,-4.0,-6.0,-4.0,-1.0,0.0,1651069208335238.0,2
1064,-5.0,0.0,-1.0,2.0,5.0,2.0,-1.0,-3.0,1651069208347272.0,2
1065,-1.0,1.0,1.0,-3.0,-4.0,-2.0,0.0,1.0,1651069208347272.0,2
1066,1.0,0.0,-1.0,3.0,2.0,1.0,-3.0,-2.0,1651069208356347.0,2
1067,0.0,-1.0,1.0,-3.0,-4.0,-2.0,1.0,1.0,1651069208356347.0,2
1068,-1.0,0.0,1.0,-2.0,2.0,1.0,1.0,-2.0,1651069208370852.0,2
1069,-1.0,-3.0,-4.0,-2.0,-1.0,2.0,0.0,-2.0,1651069208370852.0,2
1070,-1.0,0.0,1.0,0.0,5.0,4.0,-1.0,0.0,1651069208384810.0,2
1071,-1.0,0.0,-2.0,-1.0,-5.0,-4.0,0.0,0.0,1651069208384810.0,2
1072,0.0,-1.0,-1.0,-3.0,-6.0,-2.0,-1.0,-1.0,1651069208393786.0,2
1073,0.0,0.0,1.0,0.0,8.0,4.0,0.0,0.0,1651069208393786.0,2
1074,0.0,-2.0,0.0,1.0,2.0,1.0,-1.0,0.0,1651069208394723.0,2
1075,-1.0,-2.0,-1.0,-4.0,-7.0,-4.0,-1.0,0.0,1651069208394723.0,2
1076,-1.0,0.0,-1.0,1.0,0.0,-2.0,-1.0,2.0,1651069208406751.0,2
1077,-1.0,0.0,-2.0,-3.0,-1.0,-3.0,0.0,1.0,1651069208406751.0,2
1078,-1.0,-1.0,-1.0,0.0,0.0,1.0,-1.0,1.0,1651069208415732.0,2
1079,1.0,-1.0,0.0,-1.0,-1.0,-2.0,-1.0,-2.0,1651069208415732.0,2
1080,1.0,-1.0,-3.0,-1.0,-2.0,-1.0,0.0,-1.0,1651069208430750.0,2
1081,1.0,0.0,-1.0,0.0,-2.0,0.0,0.0,-2.0,1651069208430750.0,2
1082,0.0,-3.0,-3.0,0.0,0.0,0.0,0.0,-1.0,1651069208436789.0,2
1083,0.0,0.0,-1.0,-2.0,-2.0,0.0,0.0,0.0,1651069208436789.0,2
1084,-2.0,-1.0,1.0,0.0,2.0,-1.0,-1.0,-1.0,1651069208453875.0,2
1085,0.0,1.0,0.0,-2.0,-2.0,0.0,-2.0,1.0,1651069208453875.0,2
1086,0.0,0.0,-1.0,0.0,-3.0,-2.0,0.0,-1.0,1651069208454621.0,2
1087,-1.0,1.0,1.0,0.0,2.0,2.0,0.0,2.0,1651069208454621.0,2
1088,0.0,0.0,-2.0,-1.0,-1.0,1.0,-1.0,-2.0,1651069208476438.0,2
1089,-1.0,1.0,1.0,-1.0,0.0,-1.0,0.0,2.0,1651069208476438.0,2
1090,-1.0,0.0,0.0,-2.0,0.0,-1.0,0.0,-1.0,1651069208477433.0,2
1091,-2.0,0.0,0.0,-1.0,-1.0,1.0,0.0,-1.0,1651069208477433.0,2
1092,0.0,0.0,-1.0,0.0,-3.0,-1.0,-1.0,-2.0,1651069208490466.0,2
1093,-1.0,-1.0,-2.0,0.0,-1.0,-1.0,-1.0,-1.0,1651069208490466.0,2
1094,-2.0,-1.0,-2.0,0.0,-2.0,-2.0,-1.0,0.0,1651069208497448.0,2
1095,-1.0,-1.0,1.0,0.0,0.0,0.0,-2.0,0.0,1651069208497448.0,2
1096,-2.0,-3.0,-2.0,-2.0,0.0,2.0,-1.0,0.0,1651069208513664.0,2
1097,0.0,-1.0,-2.0,0.0,0.0,0.0,0.0,0.0,1651069208513664.0,2
1098,-1.0,1.0,1.0,-1.0,-1.0,-2.0,-2.0,0.0,1651069208514595.0,2
1099,-1.0,0.0,-3.0,-1.0,1.0,4.0,3.0,0.0,1651069208514595.0,2
1100,0.0,-2.0,-2.0,-2.0,-1.0,1.0,0.0,-1.0,1651069208535758.0,2
1101,0.0,-1.0,-1.0,-1.0,-3.0,0.0,3.0,0.0,1651069208535758.0,2
1102,0.0,1.0,-1.0,1.0,7.0,0.0,0.0,0.0,1651069208537685.0,2
1103,-2.0,-1.0,-3.0,-1.0,-2.0,-4.0,-2.0,0.0,1651069208537685.0,2
1104,-2.0,0.0,2.0,-1.0,4.0,1.0,0.0,0.0,1651069208550730.0,2
1105,0.0,0.0,-1.0,0.0,-2.0,-2.0,-2.0,0.0,1651069208550730.0,2
1106,0.0,0.0,2.0,-1.0,-1.0,2.0,-1.0,1.0,1651069208556707.0,2
1107,0.0,-1.0,-2.0,-2.0,-5.0,-3.0,1.0,-2.0,1651069208556707.0,2
1108,1.0,1.0,6.0,3.0,0.0,2.0,0.0,1.0,1651069208574299.0,2
1109,-1.0,-2.0,-6.0,-3.0,0.0,-3.0,-1.0,0.0,1651069208574299.0,2
1110,0.0,-1.0,8.0,1.0,-1.0,-1.0,-2.0,-1.0,1651069208575640.0,2
1111,-1.0,1.0,-1.0,2.0,-1.0,-1.0,-1.0,-1.0,1651069208575640.0,2
1112,0.0,0.0,-3.0,-1.0,-2.0,-2.0,0.0,-1.0,1651069208595680.0,2
1113,-2.0,-2.0,6.0,0.0,-1.0,-1.0,0.0,0.0,1651069208595680.0,2
1114,0.0,1.0,-12.0,-2.0,2.0,1.0,1.0,-1.0,1651069208597676.0,2
1115,0.0,-2.0,3.0,0.0,-5.0,-2.0,0.0,-1.0,1651069208597676.0,2
1116,0.0,-2.0,-2.0,0.0,1.0,-1.0,1.0,-2.0,1651069208610730.0,2
1117,0.0,0.0,-2.0,-1.0,-3.0,-3.0,-2.0,-3.0,1651069208610730.0,2
1118,1.0,0.0,0.0,1.0,0.0,4.0,2.0,1.0,1651069208616692.0,2
1119,0.0,0.0,-1.0,-2.0,0.0,-1.0,0.0,0.0,1651069208616692.0,2
1120,0.0,0.0,-4.0,0.0,0.0,0.0,1.0,0.0,1651069208633551.0,2
1121,1.0,-2.0,3.0,1.0,1.0,0.0,-1.0,-1.0,1651069208633551.0,2
1122,0.0,-2.0,0.0,-2.0,-6.0,-3.0,0.0,-2.0,1651069208635487.0,2
1123,1.0,0.0,-5.0,-2.0,-1.0,-1.0,-1.0,0.0,1651069208635487.0,2
1124,-1.0,3.0,9.0,2.0,-2.0,0.0,0.0,-1.0,1651069208655707.0,2
1125,-1.0,-1.0,-3.0,-2.0,-1.0,-3.0,-1.0,0.0,1651069208655707.0,2
1126,-2.0,1.0,0.0,-1.0,-2.0,2.0,1.0,-2.0,1651069208657703.0,2
1127,0.0,-3.0,-1.0,0.0,5.0,1.0,-2.0,1.0,1651069208657703.0,2
1128,1.0,0.0,-3.0,-2.0,0.0,-2.0,-2.0,0.0,1651069208670753.0,2
1129,-1.0,-2.0,-1.0,0.0,1.0,1.0,1.0,0.0,1651069208670753.0,2
1130,-1.0,-1.0,-3.0,-2.0,-3.0,-4.0,-2.0,-2.0,1651069208676809.0,2
1131,-2.0,-2.0,3.0,0.0,-2.0,-2.0,0.0,-3.0,1651069208676809.0,2
1132,0.0,-1.0,-2.0,-1.0,-2.0,1.0,0.0,-1.0,1651069208693844.0,2
1133,-1.0,0.0,-1.0,1.0,9.0,3.0,1.0,0.0,1651069208693844.0,2
1134,-1.0,-1.0,0.0,0.0,1.0,-1.0,-1.0,1.0,1651069208694775.0,2
1135,-2.0,0.0,-1.0,-1.0,0.0,-1.0,-1.0,-2.0,1651069208694775.0,2
1136,-1.0,-2.0,-3.0,-2.0,0.0,-2.0,-3.0,0.0,1651069208715787.0,2
1137,0.0,0.0,-2.0,-1.0,-6.0,-1.0,2.0,0.0,1651069208715787.0,2
1138,-1.0,0.0,-1.0,-1.0,3.0,0.0,-2.0,-1.0,1651069208717715.0,2
1139,-1.0,1.0,2.0,1.0,-1.0,-2.0,1.0,0.0,1651069208717715.0,2
1140,1.0,-3.0,-4.0,-2.0,-4.0,-2.0,-3.0,-1.0,1651069208738779.0,2
1141,-1.0,1.0,2.0,1.0,0.0,1.0,-2.0,-1.0,1651069208738779.0,2
1142,-2.0,-1.0,-1.0,0.0,-1.0,-3.0,1.0,0.0,1651069208739708.0,2
1143,-2.0,-1.0,-4.0,-2.0,-1.0,0.0,-2.0,-1.0,1651069208739708.0,2
1144,-2.0,0.0,-1.0,2.0,2.0,1.0,0.0,0.0,1651069208753738.0,2
1145,1.0,-1.0,1.0,-1.0,0.0,2.0,0.0,0.0,1651069208753738.0,2
1146,1.0,-1.0,1.0,0.0,-1.0,0.0,-4.0,1.0,1651069208754669.0,2
1147,1.0,-3.0,0.0,-1.0,2.0,0.0,0.0,0.0,1651069208754669.0,2
1148,-1.0,1.0,-2.0,-2.0,-1.0,-1.0,-1.0,0.0,1651069208775782.0,2
1149,-2.0,0.0,-1.0,0.0,-1.0,1.0,-1.0,0.0,1651069208775782.0,0
1150,0.0,-1.0,-2.0,-2.0,-2.0,-3.0,0.0,1.0,1651069208777710.0,0
1151,-1.0,-1.0,0.0,-2.0,-3.0,1.0,-1.0,-1.0,1651069208777710.0,0
1152,-2.0,-1.0,1.0,2.0,-1.0,1.0,1.0,-1.0,1651069208790724.0,0
1153,-1.0,1.0,0.0,1.0,1.0,1.0,2.0,1.0,1651069208790724.0,0
1154,-1.0,-1.0,-2.0,1.0,-2.0,0.0,-1.0,0.0,1651069208797419.0,0
1155,0.0,0.0,0.0,0.0,-2.0,0.0,-1.0,0.0,1651069208797419.0,0
1156,0.0,0.0,-1.0,-1.0,-2.0,-3.0,-1.0,0.0,1651069208813502.0,0
1157,-2.0,0.0,1.0,-1.0,-4.0,-3.0,-2.0,-2.0,1651069208813502.0,0
1158,-2.0,-1.0,-3.0,-2.0,1.0,2.0,0.0,0.0,1651069208815498.0,0
1159,1.0,1.0,-1.0,0.0,-1.0,-2.0,-2.0,1.0,1651069208815498.0,0
1160,0.0,-3.0,-1.0,-3.0,0.0,3.0,0.0,-1.0,1651069208835746.0,0
1161,1.0,1.0,-2.0,0.0,0.0,-1.0,0.0,-3.0,1651069208835746.0,0
1162,-2.0,-1.0,1.0,0.0,-1.0,-1.0,-1.0,-1.0,1651069208837696.0,0
1163,-1.0,0.0,0.0,0.0,0.0,0.0,1.0,0.0,1651069208837696.0,0
1164,0.0,0.0,-1.0,-1.0,-2.0,-2.0,0.0,0.0,1651069208850772.0,0
1165,-1.0,-2.0,-2.0,-1.0,1.0,0.0,0.0,-1.0,1651069208850772.0,0
1166,-1.0,-2.0,0.0,-1.0,1.0,-2.0,-1.0,-2.0,1651069208856740.0,0
1167,1.0,-1.0,-2.0,0.0,0.0,2.0,-2.0,1.0,1651069208856740.0,0
1168,-2.0,-2.0,-2.0,-2.0,0.0,1.0,0.0,0.0,1651069208873849.0,0
1169,-1.0,-2.0,0.0,-1.0,-7.0,-1.0,-1.0,0.0,1651069208873849.0,0
1170,-1.0,2.0,0.0,2.0,6.0,0.0,0.0,-3.0,1651069208874845.0,0
1171,0.0,0.0,2.0,-2.0,-2.0,-2.0,-2.0,0.0,1651069208874845.0,0
1172,0.0,-1.0,0.0,-1.0,-2.0,-4.0,0.0,-1.0,1651069208896303.0,0
1173,0.0,-1.0,0.0,-3.0,-5.0,-2.0,-2.0,1.0,1651069208896303.0,0
1174,-1.0,-1.0,-2.0,-1.0,-3.0,-1.0,-1.0,-1.0,1651069208897233.0,0
1175,0.0,1.0,2.0,1.0,2.0,1.0,2.0,0.0,1651069208897233.0,0
1176,-1.0,2.0,-1.0,-1.0,-1.0,1.0,-1.0,-1.0,1651069208910265.0,0
1177,-3.0,-3.0,-7.0,-3.0,3.0,1.0,0.0,1.0,1651069208910265.0,0
1178,-2.0,0.0,-1.0,-2.0,-4.0,-3.0,-2.0,1.0,1651069208917246.0,0
1179,0.0,1.0,1.0,-1.0,3.0,5.0,2.0,-1.0,1651069208917246.0,0
1180,0.0,-1.0,2.0,2.0,0.0,-1.0,0.0,0.0,1651069208933883.0,0
1181,0.0,-1.0,0.0,0.0,2.0,0.0,0.0,-2.0,1651069208933883.0,0
1182,1.0,1.0,1.0,-1.0,-1.0,-2.0,0.0,-2.0,1651069208934884.0,0
1183,-3.0,-2.0,-2.0,0.0,-2.0,-2.0,0.0,0.0,1651069208934884.0,0
1184,-1.0,-1.0,-2.0,0.0,-1.0,1.0,0.0,-2.0,1651069208956144.0,0
1185,1.0,0.0,0.0,-1.0,1.0,-1.0,-2.0,0.0,1651069208956144.0,0
1186,-1.0,-2.0,0.0,1.0,-2.0,1.0,0.0,1.0,1651069208957972.0,0
1187,1.0,0.0,1.0,0.0,-3.0,-2.0,-1.0,-1.0,1651069208957972.0,0
1188,0.0,-2.0,-4.0,1.0,1.0,0.0,-1.0,0.0,1651069208970008.0,0
1189,-2.0,1.0,1.0,1.0,-1.0,-3.0,-1.0,-2.0,1651069208970008.0,0
1190,1.0,-1.0,-1.0,-1.0,-1.0,4.0,0.0,0.0,1651069208978917.0,0
1191,-1.0,-2.0,-5.0,-3.0,-3.0,-4.0,-2.0,-1.0,1651069208978917.0,0
1192,-1.0,0.0,1.0,-1.0,-2.0,-2.0,-1.0,0.0,1651069208993929.0,0
1193,0.0,1.0,0.0,-2.0,-1.0,1.0,1.0,-1.0,1651069208993929.0,0
1194,1.0,-1.0,0.0,-1.0,-2.0,-1.0,1.0,-1.0,1651069208994930.0,0
1195,-1.0,0.0,-2.0,0.0,0.0,-1.0,-1.0,-1.0,1651069208994930.0,0
1196,-1.0,-2.0,-1.0,0.0,0.0,-2.0,-1.0,-1.0,1651069209016405.0,0
1197,0.0,-2.0,-2.0,0.0,0.0,-1.0,-2.0,-1.0,1651069209016405.0,0
1198,-1.0,1.0,-1.0,0.0,-2.0,0.0,1.0,1.0,1651069209017358.0,0
1199,0.0,-1.0,-1.0,0.0,7.0,1.0,-1.0,-1.0,1651069209017358.0,0
1200,-1.0,-1.0,0.0,0.0,0.0,-2.0,-2.0,0.0,1651069209029335.0,0
1201,0.0,1.0,3.0,3.0,1.0,3.0,1.0,0.0,1651069209029335.0,0
1202,0.0,-2.0,-4.0,-1.0,-1.0,0.0,1.0,-1.0,1651069209038328.0,0
1203,-2.0,-1.0,-2.0,-1.0,-1.0,-2.0,-2.0,0.0,1651069209038328.0,0
1204,0.0,1.0,-1.0,-1.0,-1.0,0.0,0.0,-1.0,1651069209053328.0,0
1205,-1.0,-1.0,-2.0,-1.0,1.0,0.0,1.0,1.0,1651069209053328.0,0
1206,0.0,1.0,1.0,-1.0,-1.0,-2.0,-2.0,0.0,1651069209055257.0,0
1207,0.0,-1.0,1.0,0.0,-2.0,-1.0,-2.0,-1.0,1651069209055257.0,0
1208,0.0,0.0,1.0,-1.0,1.0,0.0,0.0,-2.0,1651069209075536.0,0
1209,0.0,0.0,-2.0,-1.0,-3.0,-2.0,-1.0,-2.0,1651069209075536.0,0
1210,-1.0,0.0,2.0,-1.0,0.0,0.0,-1.0,-2.0,1651069209077473.0,0
1211,-2.0,-3.0,-3.0,-1.0,-2.0,-3.0,-1.0,-2.0,1651069209077473.0,0
1212,0.0,0.0,0.0,-1.0,0.0,-2.0,-1.0,2.0,1651069209089442.0,0
1213,-1.0,-1.0,-3.0,-1.0,1.0,3.0,1.0,1.0,1651069209089442.0,0
1214,0.0,0.0,-2.0,0.0,0.0,-3.0,0.0,1.0,1651069209098417.0,0
1215,0.0,1.0,-1.0,2.0,-1.0,0.0,0.0,-1.0,1651069209098417.0,0
1216,0.0,-1.0,-2.0,-3.0,-2.0,-3.0,-1.0,-2.0,1651069209113444.0,0
1217,0.0,-1.0,-2.0,0.0,0.0,-3.0,-2.0,-2.0,1651069209113444.0,0
1218,-1.0,0.0,-1.0,-1.0,1.0,0.0,-3.0,0.0,1651069209115514.0,0
1219,1.0,-1.0,1.0,-2.0,-1.0,0.0,0.0,2.0,1651069209115514.0,0
1220,-1.0,-1.0,0.0,1.0,0.0,0.0,0.0,0.0,1651069209135866.0,0
1221,0.0,0.0,-2.0,-1.0,0.0,1.0,-2.0,-1.0,1651069209135866.0,0
1222,-1.0,-2.0,0.0,-2.0,-4.0,0.0,0.0,-1.0,1651069209137671.0,0
1223,0.0,1.0,0.0,-2.0,-2.0,-2.0,1.0,0.0,1651069209137671.0,0
1224,-1.0,-1.0,0.0,0.0,1.0,1.0,1.0,-1.0,1651069209149782.0,0
1225,-1.0,-1.0,1.0,-1.0,-2.0,-3.0,0.0,1.0,1651069209149782.0,0
1226,1.0,-1.0,0.0,2.0,4.0,2.0,2.0,0.0,1651069209158758.0,0
1227,-1.0,-3.0,-1.0,0.0,0.0,-2.0,0.0,1.0,1651069209158758.0,0
1228,1.0,1.0,-2.0,-2.0,-1.0,1.0,1.0,-1.0,1651069209173195.0,0
1229,-2.0,-2.0,-2.0,-2.0,-1.0,0.0,-2.0,0.0,1651069209173195.0,0
1230,-1.0,0.0,-1.0,-1.0,-2.0,-3.0,-3.0,-1.0,1651069209175220.0,0
1231,0.0,0.0,0.0,-2.0,-2.0,1.0,-1.0,-1.0,1651069209175220.0,0
1232,1.0,0.0,0.0,0.0,-1.0,0.0,-1.0,0.0,1651069209196354.0,0
1233,-2.0,-3.0,-1.0,-2.0,0.0,1.0,1.0,1.0,1651069209196354.0,0
1234,0.0,-1.0,0.0,1.0,-1.0,0.0,-2.0,1.0,1651069209197373.0,0
1235,1.0,0.0,-2.0,-2.0,-1.0,-2.0,1.0,0.0,1651069209197373.0,0
1236,-2.0,-1.0,-1.0,1.0,-1.0,0.0,-2.0,0.0,1651069209210129.0,0
1237,1.0,-1.0,-1.0,-2.0,0.0,-2.0,-2.0,-1.0,1651069209210129.0,0
1238,-1.0,0.0,0.0,-2.0,0.0,-1.0,0.0,0.0,1651069209219128.0,0
1239,-1.0,-1.0,-1.0,2.0,-1.0,1.0,0.0,0.0,1651069209219128.0,0
1240,-1.0,1.0,0.0,0.0,0.0,-1.0,1.0,0.0,1651069209233840.0,0
1241,0.0,0.0,-1.0,0.0,-1.0,-1.0,0.0,-1.0,1651069209233840.0,0
1242,-2.0,-2.0,0.0,0.0,1.0,1.0,1.0,0.0,1651069209235162.0,0
1243,-2.0,-1.0,-3.0,1.0,-3.0,-5.0,-3.0,0.0,1651069209235162.0,0
1244,-1.0,-2.0,0.0,0.0,2.0,2.0,1.0,1.0,1651069209256311.0,0
1245,-1.0,-2.0,-2.0,-2.0,0.0,1.0,-1.0,0.0,1651069209256311.0,0
1246,-1.0,0.0,-1.0,-1.0,-3.0,-1.0,2.0,0.0,1651069209257240.0,0
1247,-1.0,-1.0,1.0,-1.0,-3.0,2.0,-1.0,-1.0,1651069209257240.0,0
1248,1.0,-2.0,1.0,-1.0,-1.0,0.0,-1.0,-1.0,1651069209270014.0,0
1249,1.0,0.0,0.0,-2.0,-1.0,-1.0,-1.0,0.0,1651069209270014.0,0
1250,0.0,-1.0,0.0,-2.0,1.0,-1.0,-2.0,0.0,1651069209278957.0,0
1251,1.0,0.0,1.0,1.0,2.0,1.0,-1.0,-1.0,1651069209278957.0,0
1252,0.0,0.0,-2.0,1.0,1.0,0.0,-1.0,-1.0,1651069209294054.0,0
1253,0.0,-1.0,2.0,1.0,2.0,0.0,2.0,1.0,1651069209294054.0,0
1254,-1.0,-1.0,-3.0,-2.0,-3.0,-1.0,0.0,-1.0,1651069209295081.0,0
1255,-1.0,0.0,-1.0,-2.0,-4.0,-2.0,1.0,-1.0,1651069209295081.0,0
1256,-1.0,1.0,-1.0,-3.0,0.0,-2.0,-2.0,-1.0,1651069209316396.0,0
1257,0.0,0.0,1.0,1.0,-4.0,-3.0,0.0,0.0,1651069209316396.0,0
1258,-1.0,1.0,-1.0,-1.0,-2.0,0.0,-1.0,-1.0,1651069209317203.0,0
1259,-1.0,-1.0,-1.0,-3.0,-2.0,1.0,-1.0,-1.0,1651069209317203.0,0
1260,0.0,-2.0,0.0,-1.0,0.0,0.0,-1.0,0.0,1651069209329172.0,0
1261,-2.0,0.0,0.0,0.0,1.0,1.0,1.0,-1.0,1651069209329172.0,0
1262,-1.0,0.0,1.0,1.0,0.0,1.0,0.0,-1.0,1651069209339171.0,0
1263,1.0,-1.0,-2.0,0.0,0.0,1.0,0.0,-1.0,1651069209339171.0,0
1264,0.0,0.0,0.0,0.0,-3.0,-3.0,-2.0,-2.0,1651069209353173.0,0
1265,0.0,1.0,0.0,1.0,-1.0,-5.0,-3.0,-2.0,1651069209353173.0,0
1266,0.0,-4.0,-2.0,-2.0,0.0,3.0,0.0,-1.0,1651069209355102.0,0
1267,0.0,0.0,-2.0,-2.0,0.0,0.0,0.0,1.0,1651069209355102.0,0
1268,-1.0,-1.0,0.0,0.0,-1.0,-2.0,-1.0,0.0,1651069209376314.0,0
1269,0.0,1.0,1.0,0.0,-3.0,-2.0,-2.0,0.0,1651069209376314.0,0
1270,1.0,-1.0,1.0,1.0,1.0,-1.0,0.0,-1.0,1651069209377132.0,0
1271,0.0,-2.0,0.0,-1.0,0.0,-2.0,-1.0,0.0,1651069209377132.0,0
1272,-2.0,0.0,-2.0,1.0,0.0,1.0,0.0,0.0,1651069209389182.0,0
1273,-1.0,-2.0,0.0,1.0,0.0,0.0,-2.0,2.0,1651069209389182.0,0
1274,-1.0,0.0,-1.0,-1.0,-1.0,0.0,0.0,-1.0,1651069209398229.0,0
1275,-2.0,0.0,-2.0,0.0,0.0,-1.0,-1.0,-1.0,1651069209398229.0,0
1276,0.0,0.0,2.0,0.0,-2.0,1.0,-2.0,1.0,1651069209413504.0,0
1277,0.0,-1.0,-4.0,-2.0,0.0,2.0,2.0,0.0,1651069209413504.0,0
1278,-1.0,-2.0,-2.0,-2.0,-1.0,-4.0,-2.0,0.0,1651069209415512.0,0
1279,1.0,0.0,1.0,0.0,1.0,0.0,0.0,0.0,1651069209415512.0,0
1280,-1.0,0.0,0.0,-1.0,-1.0,-1.0,1.0,0.0,1651069209435870.0,0
1281,0.0,1.0,0.0,0.0,0.0,-1.0,0.0,1.0,1651069209435870.0,0
1282,2.0,0.0,-1.0,0.0,-2.0,-1.0,-1.0,1.0,1651069209437695.0,0
1283,0.0,-1.0,1.0,0.0,-2.0,-2.0,0.0,-1.0,1651069209437695.0,0
1284,1.0,0.0,-2.0,-2.0,-1.0,2.0,0.0,-2.0,1651069209458419.0,0
1285,-2.0,-1.0,1.0,0.0,1.0,2.0,-1.0,0.0,1651069209458419.0,0
1286,-1.0,0.0,-1.0,-1.0,0.0,-2.0,-1.0,0.0,1651069209460377.0,0
1287,-1.0,0.0,0.0,-1.0,-2.0,-1.0,-1.0,0.0,1651069209460377.0,0
1288,0.0,-2.0,-2.0,0.0,1.0,-1.0,0.0,0.0,1651069209473308.0,0
1289,1.0,0.0,0.0,0.0,0.0,-1.0,0.0,-1.0,1651069209473308.0,0
1290,1.0,-1.0,-1.0,2.0,-2.0,-1.0,1.0,0.0,1651069209475245.0,0
1291,-2.0,0.0,-1.0,-3.0,-3.0,-2.0,-2.0,-2.0,1651069209475245.0,0
1292,-1.0,-2.0,-3.0,1.0,2.0,-1.0,0.0,-1.0,1651069209496381.0,0
1293,-2.0,1.0,0.0,1.0,1.0,4.0,-1.0,0.0,1651069209496381.0,0
1294,0.0,1.0,2.0,0.0,-1.0,0.0,0.0,0.0,1651069209497288.0,0
1295,-1.0,0.0,1.0,0.0,2.0,-1.0,2.0,0.0,1651069209497288.0,0
1296,-1.0,0.0,-2.0,-1.0,-4.0,-2.0,-2.0,1.0,1651069209518298.0,0
1297,0.0,-2.0,-2.0,-2.0,-3.0,-3.0,-1.0,-3.0,1651069209518298.0,0
1298,-1.0,0.0,1.0,2.0,0.0,3.0,0.0,-1.0,1651069209520227.0,0
1299,0.0,-1.0,-1.0,-2.0,0.0,0.0,-2.0,1.0,1651069209520227.0,0
1300,-1.0,-2.0,-1.0,-1.0,-2.0,-1.0,0.0,0.0,1651069209533261.0,0
1301,-2.0,-2.0,-2.0,-3.0,0.0,-2.0,-2.0,-2.0,1651069209533261.0,0
1302,-2.0,-1.0,-3.0,-1.0,-2.0,-2.0,-1.0,-2.0,1651069209535195.0,0
1303,-1.0,1.0,1.0,0.0,-1.0,-3.0,-2.0,-1.0,1651069209535195.0,0
1304,-1.0,-1.0,1.0,-1.0,-1.0,2.0,0.0,1.0,1651069209556259.0,0
1305,1.0,0.0,-2.0,-1.0,-1.0,-2.0,0.0,-1.0,1651069209556259.0,0
1306,0.0,-1.0,-1.0,0.0,-1.0,-3.0,-2.0,0.0,1651069209558127.0,0
1307,-2.0,-3.0,-5.0,-1.0,-1.0,-1.0,0.0,-2.0,1651069209558127.0,0
1308,-2.0,1.0,-1.0,-2.0,-1.0,3.0,-1.0,1.0,1651069209578802.0,0
1309,-1.0,0.0,0.0,0.0,-2.0,-1.0,0.0,0.0,1651069209578802.0,0
1310,-1.0,0.0,0.0,-1.0,-1.0,2.0,-1.0,1.0,1651069209579802.0,0
1311,0.0,1.0,0.0,1.0,4.0,4.0,0.0,1.0,1651069209579802.0,0
1312,0.0,-2.0,-2.0,-2.0,-4.0,-2.0,-1.0,-2.0,1651069209593199.0,0
1313,0.0,-1.0,0.0,1.0,-3.0,-2.0,-1.0,1.0,1651069209593199.0,0
1314,-1.0,-2.0,-1.0,1.0,7.0,-1.0,1.0,-1.0,1651069209599838.0,0
1315,-1.0,-1.0,0.0,-1.0,-4.0,0.0,0.0,-1.0,1651069209599838.0,0
1316,-1.0,0.0,0.0,0.0,2.0,-2.0,1.0,0.0,1651069209615840.0,0
1317,1.0,2.0,0.0,2.0,1.0,4.0,2.0,2.0,1651069209615840.0,0
1318,-1.0,0.0,-2.0,-4.0,-6.0,-4.0,-2.0,-2.0,1651069209617769.0,0
1319,-2.0,1.0,0.0,0.0,1.0,2.0,0.0,1.0,1651069209617769.0,0
1320,0.0,-1.0,1.0,1.0,0.0,-2.0,-1.0,-1.0,1651069209638779.0,0
1321,-1.0,-1.0,-1.0,-3.0,-7.0,-4.0,-2.0,-1.0,1651069209638779.0,0
1322,0.0,1.0,3.0,4.0,10.0,2.0,0.0,1.0,1651069209639716.0,0
1323,-1.0,0.0,1.0,1.0,-1.0,0.0,-2.0,0.0,1651069209639716.0,0
1324,-1.0,-1.0,-5.0,-3.0,-1.0,-1.0,-1.0,-1.0,1651069209653198.0,0
1325,0.0,-1.0,-2.0,-2.0,-2.0,-1.0,0.0,1.0,1651069209653198.0,0
1326,-1.0,0.0,-2.0,-3.0,-3.0,-2.0,1.0,-2.0,1651069209659998.0,0
1327,0.0,0.0,1.0,0.0,1.0,1.0,-1.0,0.0,1651069209659998.0,0
1328,1.0,-1.0,4.0,1.0,-6.0,-2.0,-1.0,-1.0,1651069209676451.0,0
1329,-1.0,-3.0,-2.0,0.0,8.0,1.0,0.0,0.0,1651069209676451.0,0
1330,-3.0,-4.0,-3.0,-3.0,-2.0,1.0,0.0,1.0,1651069209677453.0,0
1331,1.0,-2.0,-2.0,-4.0,-3.0,-5.0,-1.0,-1.0,1651069209677453.0,0
1332,-1.0,0.0,-1.0,-2.0,-2.0,-5.0,-1.0,-2.0,1651069209698861.0,0
1333,-1.0,0.0,-1.0,1.0,2.0,3.0,0.0,-1.0,1651069209698861.0,0
1334,1.0,1.0,4.0,-1.0,-2.0,-1.0,0.0,-1.0,1651069209699867.0,0
1335,-1.0,-1.0,-1.0,0.0,0.0,0.0,-1.0,-2.0,1651069209699867.0,0
1336,0.0,-1.0,-2.0,-3.0,-3.0,-1.0,-3.0,0.0,1651069209712833.0,0
1337,1.0,3.0,5.0,2.0,-2.0,-3.0,1.0,0.0,1651069209712833.0,0
1338,-1.0,-1.0,-3.0,-1.0,2.0,2.0,-1.0,0.0,1651069209719874.0,0
1339,1.0,5.0,6.0,4.0,2.0,0.0,2.0,0.0,1651069209719874.0,0
1340,-2.0,-3.0,-8.0,-5.0,-5.0,-3.0,-1.0,-3.0,1651069209736062.0,0
1341,0.0,1.0,2.0,2.0,2.0,0.0,-1.0,-1.0,1651069209736062.0,0
1342,-2.0,-3.0,-6.0,-4.0,-6.0,-2.0,0.0,-1.0,1651069209738020.0,0
1343,-2.0,-2.0,-2.0,-2.0,-3.0,1.0,0.0,1.0,1651069209738020.0,0
1344,1.0,6.0,16.0,13.0,9.0,6.0,0.0,0.0,1651069209758287.0,0
1345,-5.0,-13.0,-27.0,-21.0,-9.0,-5.0,-4.0,-4.0,1651069209758287.0,0
1346,-2.0,1.0,2.0,-2.0,-5.0,-3.0,-1.0,0.0,1651069209760309.0,3
1347,1.0,-2.0,-3.0,-3.0,-1.0,-5.0,-1.0,-1.0,1651069209760309.0,3
1348,0.0,1.0,2.0,3.0,4.0,0.0,1.0,1.0,1651069209772369.0,3
1349,2.0,9.0,21.0,16.0,5.0,3.0,2.0,1.0,1651069209772369.0,3
1350,-3.0,-9.0,-20.0,-9.0,-2.0,-1.0,-2.0,-1.0,1651069209779354.0,3
1351,-1.0,-3.0,-8.0,-5.0,-4.0,-3.0,1.0,-1.0,1651069209779354.0,3
1352,0.0,2.0,3.0,4.0,4.0,2.0,0.0,0.0,1651069209795650.0,3
1353,-2.0,-4.0,-8.0,-9.0,-4.0,-3.0,-1.0,-3.0,1651069209795650.0,3
1354,0.0,0.0,4.0,4.0,1.0,-1.0,-2.0,-2.0,1651069209797588.0,3
1355,0.0,2.0,3.0,7.0,3.0,4.0,-1.0,-1.0,1651069209797588.0,3
1356,-1.0,-3.0,-2.0,-3.0,3.0,1.0,2.0,1.0,1651069209818779.0,3
1357,0.0,3.0,6.0,3.0,-2.0,0.0,-1.0,-1.0,1651069209818779.0,3
1358,2.0,3.0,9.0,-1.0,-4.0,-1.0,2.0,3.0,1651069209819712.0,3
1359,-3.0,-7.0,-16.0,-10.0,-1.0,-2.0,-3.0,-4.0,1651069209819712.0,3
1360,1.0,7.0,15.0,14.0,12.0,4.0,-2.0,0.0,1651069209832805.0,3
1361,-3.0,-6.0,-15.0,-16.0,-9.0,-7.0,2.0,4.0,1651069209832805.0,3
1362,-3.0,1.0,5.0,3.0,-4.0,-2.0,-2.0,-9.0,1651069209839884.0,3
1363,3.0,2.0,2.0,-2.0,-2.0,5.0,5.0,12.0,1651069209839884.0,3
1364,-3.0,2.0,7.0,5.0,5.0,0.0,2.0,0.0,1651069209856022.0,3
1365,-1.0,-3.0,-7.0,-2.0,-5.0,-5.0,-9.0,-7.0,1651069209856022.0,3
1366,-9.0,-7.0,-9.0,8.0,2.0,-2.0,-20.0,-14.0,1651069209857950.0,3
1367,6.0,5.0,3.0,-1.0,5.0,9.0,34.0,19.0,1651069209857950.0,3
1368,0.0,2.0,2.0,-4.0,-9.0,-2.0,-3.0,-5.0,1651069209878978.0,3
1369,-1.0,-4.0,-10.0,-8.0,1.0,1.0,1.0,2.0,1651069209878978.0,3
1370,0.0,6.0,20.0,22.0,12.0,3.0,-15.0,-12.0,1651069209879979.0,3
1371,-7.0,-7.0,-14.0,-20.0,-12.0,-11.0,-9.0,-10.0,1651069209879979.0,3
1372,1.0,0.0,8.0,22.0,8.0,0.0,-9.0,-2.0,1651069209893258.0,3
1373,3.0,2.0,2.0,-5.0,-2.0,2.0,29.0,17.0,1651069209893258.0,3
1374,1.0,0.0,-1.0,3.0,13.0,8.0,3.0,1.0,1651069209899285.0,3
1375,-2.0,-4.0,3.0,8.0,-2.0,-2.0,-1.0,-2.0,1651069209899285.0,3
1376,-2.0,-3.0,-19.0,-16.0,-7.0,-2.0,-5.0,-5.0,1651069209916380.0,3
1377,0.0,1.0,14.0,26.0,13.0,5.0,-11.0,-5.0,1651069209916380.0,3
1378,-3.0,-8.0,-22.0,-19.0,-1.0,-4.0,1.0,0.0,1651069209917328.0,3
1379,2.0,3.0,11.0,22.0,22.0,16.0,14.0,7.0,1651069209917328.0,3
1380,-1.0,-2.0,-1.0,5.0,-16.0,-12.0,0.0,-1.0,1651069209938904.0,3
1381,-5.0,-6.0,-25.0,-34.0,-3.0,-2.0,-14.0,-7.0,1651069209938904.0,3
1382,4.0,2.0,-1.0,-5.0,6.0,6.0,17.0,12.0,1651069209939873.0,3
1383,-6.0,-6.0,-8.0,11.0,-13.0,-11.0,-24.0,-15.0,1651069209939873.0,3
1384,-3.0,-5.0,-17.0,-47.0,-9.0,4.0,0.0,-4.0,1651069209951683.0,3
1385,6.0,11.0,34.0,40.0,-1.0,6.0,12.0,6.0,1651069209951683.0,3
1386,4.0,2.0,4.0,-10.0,-1.0,1.0,23.0,12.0,1651069209960728.0,3
1387,-5.0,-10.0,-11.0,-9.0,-26.0,-19.0,-15.0,-9.0,1651069209960728.0,3
1388,-4.0,-2.0,3.0,42.0,28.0,4.0,-22.0,-23.0,1651069209976374.0,3
1389,-23.0,2.0,4.0,-8.0,-14.0,-3.0,15.0,16.0,1651069209976374.0,3
1390,42.0,4.0,2.0,-8.0,-8.0,0.0,-3.0,6.0,1651069209977319.0,3
1391,9.0,19.0,35.0,30.0,23.0,9.0,4.0,13.0,1651069209977319.0,3
1392,-1.0,-4.0,-10.0,-21.0,-8.0,1.0,10.0,4.0,1651069209998359.0,3
1393,2.0,-2.0,-7.0,-6.0,6.0,0.0,3.0,0.0,1651069209998359.0,3
1394,-34.0,0.0,6.0,10.0,-9.0,-4.0,-18.0,-18.0,1651069210000380.0,3
1395,28.0,13.0,21.0,20.0,19.0,9.0,6.0,18.0,1651069210000380.0,3
1396,-49.0,-13.0,1.0,4.0,6.0,-1.0,-11.0,-10.0,1651069210012388.0,3
1397,19.0,4.0,3.0,37.0,10.0,7.0,4.0,-4.0,1651069210012388.0,3
1398,-63.0,-29.0,-20.0,-26.0,-18.0,-11.0,0.0,-5.0,1651069210021302.0,3
1399,13.0,-7.0,-9.0,-17.0,-14.0,-9.0,-20.0,-14.0,1651069210021302.0,3
1400,6.0,0.0,-13.0,-55.0,-17.0,1.0,16.0,13.0,1651069210036325.0,3
1401,-5.0,12.0,26.0,42.0,12.0,4.0,-4.0,-8.0,1651069210036325.0,3
1402,58.0,12.0,-28.0,-11.0,-10.0,-7.0,2.0,31.0,1651069210037258.0,3
1403,-75.0,0.0,23.0,-3.0,3.0,1.0,0.0,-32.0,1651069210037258.0,3
1404,7.0,11.0,-1.0,29.0,12.0,6.0,10.0,11.0,1651069210058356.0,3
1405,-2.0,-3.0,0.0,-15.0,-5.0,-6.0,-15.0,-9.0,1651069210058356.0,3
1406,6.0,3.0,6.0,9.0,14.0,5.0,11.0,-1.0,1651069210060374.0,3
1407,3.0,-14.0,-42.0,-39.0,-14.0,-8.0,-23.0,-1.0,1651069210060374.0,3
1408,46.0,7.0,-6.0,-37.0,-21.0,0.0,34.0,26.0,1651069210072135.0,3
1409,-21.0,14.0,36.0,8.0,16.0,4.0,-16.0,-12.0,1651069210072135.0,3
1410,17.0,-13.0,-27.0,-7.0,13.0,9.0,-9.0,6.0,1651069210081044.0,3
1411,15.0,17.0,71.0,41.0,-7.0,-5.0,4.0,3.0,1651069210081044.0,3
1412,-27.0,-9.0,-2.0,34.0,9.0,-3.0,-3.0,-8.0,1651069210096361.0,3
1413,9.0,-15.0,-48.0,-28.0,-13.0,-7.0,-8.0,2.0,1651069210096361.0,3
1414,9.0,6.0,25.0,-16.0,-14.0,-4.0,0.0,3.0,1651069210097359.0,3
1415,43.0,-3.0,-37.0,-19.0,5.0,5.0,3.0,13.0,1651069210097359.0,3
1416,1.0,19.0,34.0,16.0,13.0,-5.0,-17.0,-12.0,1651069210118370.0,3
1417,-3.0,-14.0,-1.0,2.0,-14.0,-2.0,6.0,1.0,1651069210118370.0,3
1418,16.0,2.0,-17.0,-17.0,-29.0,-16.0,-5.0,-7.0,1651069210120298.0,3
1419,2.0,-6.0,-6.0,-7.0,-1.0,-4.0,-1.0,0.0,1651069210120298.0,3
1420,6.0,-12.0,-19.0,-10.0,-11.0,-2.0,-7.0,11.0,1651069210132295.0,3
1421,7.0,3.0,-23.0,-18.0,2.0,-1.0,-6.0,-27.0,1651069210132295.0,3
1422,-29.0,-1.0,33.0,24.0,25.0,12.0,8.0,4.0,1651069210141616.0,3
1423,16.0,2.0,-6.0,17.0,5.0,6.0,2.0,-1.0,1651069210141616.0,3
1424,-3.0,-2.0,2.0,11.0,-19.0,-14.0,-5.0,-5.0,1651069210155649.0,3
1425,-6.0,2.0,17.0,-3.0,-3.0,5.0,0.0,3.0,1651069210155649.0,3
1426,2.0,8.0,-1.0,-12.0,-4.0,-4.0,1.0,3.0,1651069210157576.0,3
1427,-16.0,0.0,-3.0,-7.0,-9.0,-5.0,-2.0,-2.0,1651069210157576.0,3
1428,0.0,8.0,7.0,17.0,32.0,21.0,10.0,6.0,1651069210178738.0,3
1429,28.0,-10.0,-26.0,-27.0,-10.0,-9.0,-12.0,2.0,1651069210178738.0,3
1430,-12.0,-1.0,8.0,7.0,4.0,-5.0,-11.0,-6.0,1651069210179667.0,3
1431,-15.0,-2.0,3.0,-1.0,10.0,7.0,8.0,2.0,1651069210179667.0,3
1432,7.0,-2.0,-6.0,-15.0,-11.0,-8.0,-11.0,-6.0,1651069210191784.0,3
1433,11.0,0.0,2.0,5.0,-4.0,-4.0,3.0,3.0,1651069210191784.0,3
1434,-46.0,3.0,0.0,-9.0,-2.0,3.0,-7.0,-24.0,1651069210200726.0,3
1435,0.0,-2.0,-9.0,5.0,14.0,5.0,15.0,6.0,1651069210200726.0,3
1436,-19.0,-2.0,-8.0,-15.0,-13.0,-7.0,-8.0,-11.0,1651069210215642.0,3
1437,-17.0,-7.0,-11.0,-31.0,-9.0,-3.0,-7.0,5.0,1651069210215642.0,3
1438,17.0,0.0,15.0,27.0,20.0,11.0,-5.0,-10.0,1651069210222552.0,3
1439,0.0,8.0,6.0,0.0,1.0,-2.0,7.0,5.0,1651069210222552.0,3
1440,-7.0,-7.0,7.0,-1.0,-7.0,0.0,-2.0,-3.0,1651069210238698.0,3
1441,-4.0,5.0,5.0,10.0,19.0,1.0,4.0,2.0,1651069210238698.0,3
1442,-4.0,5.0,3.0,11.0,-15.0,-8.0,-8.0,-2.0,1651069210244720.0,3
1443,-22.0,-8.0,-4.0,-26.0,-15.0,-7.0,2.0,-2.0,1651069210244720.0,3
1444,30.0,-1.0,-15.0,30.0,14.0,-1.0,-16.0,-2.0,1651069210251683.0,3
1445,-21.0,-13.0,12.0,-41.0,-15.0,-2.0,17.0,15.0,1651069210251683.0,3
1446,5.0,1.0,-7.0,30.0,9.0,2.0,-3.0,3.0,1651069210260723.0,3
1447,0.0,3.0,7.0,0.0,-11.0,-4.0,-13.0,-4.0,1651069210260723.0,3
1448,4.0,4.0,12.0,7.0,-3.0,-5.0,8.0,4.0,1651069210275595.0,3
1449,25.0,2.0,4.0,5.0,4.0,-4.0,-14.0,5.0,1651069210275595.0,3
1450,-41.0,-11.0,-2.0,7.0,-10.0,0.0,15.0,-2.0,1651069210277589.0,3
1451,-14.0,2.0,3.0,8.0,-3.0,2.0,3.0,-6.0,1651069210277589.0,3
1452,19.0,-3.0,7.0,-19.0,6.0,1.0,-4.0,2.0,1651069210298666.0,3
1453,38.0,13.0,-26.0,23.0,11.0,7.0,22.0,20.0,1651069210298666.0,3
1454,-29.0,-6.0,29.0,6.0,-3.0,-5.0,-3.0,0.0,1651069210299662.0,3
1455,2.0,-9.0,-21.0,-1.0,1.0,-5.0,-4.0,-3.0,1651069210299662.0,3
1456,-4.0,2.0,-2.0,-12.0,-1.0,10.0,10.0,4.0,1651069210311735.0,3
1457,-11.0,4.0,9.0,17.0,2.0,-6.0,-8.0,-13.0,1651069210311735.0,3
1458,11.0,-3.0,-26.0,-11.0,0.0,8.0,-4.0,1.0,1651069210320753.0,3
1459,-4.0,-3.0,-3.0,-25.0,-12.0,-3.0,-13.0,-16.0,1651069210320753.0,3
1460,0.0,0.0,12.0,31.0,19.0,9.0,12.0,16.0,1651069210336212.0,3
1461,-11.0,-9.0,-11.0,-5.0,-11.0,-5.0,4.0,0.0,1651069210336212.0,3
1462,12.0,10.0,1.0,-24.0,5.0,-1.0,1.0,-2.0,1651069210337151.0,3
1463,-31.0,-10.0,-12.0,9.0,6.0,-9.0,-20.0,-26.0,1651069210337151.0,3
1464,25.0,-3.0,-7.0,-26.0,-21.0,-4.0,19.0,26.0,1651069210358153.0,3
1465,-8.0,8.0,14.0,13.0,-1.0,1.0,5.0,-1.0,1651069210358153.0,3
1466,13.0,-7.0,-7.0,-2.0,11.0,6.0,11.0,7.0,1651069210360090.0,3
1467,2.0,-3.0,-12.0,-31.0,-9.0,-5.0,-7.0,-6.0,1651069210360090.0,3
1468,-15.0,-5.0,-15.0,11.0,-5.0,-12.0,-13.0,-16.0,1651069210380707.0,3
1469,-17.0,-7.0,-10.0,-9.0,-2.0,2.0,1.0,6.0,1651069210380707.0,3
1470,18.0,13.0,42.0,17.0,10.0,4.0,6.0,6.0,1651069210382635.0,3
1471,5.0,-5.0,-18.0,-20.0,-18.0,-6.0,6.0,10.0,1651069210382635.0,3
1472,-19.0,2.0,9.0,32.0,29.0,12.0,4.0,-4.0,1651069210394755.0,3
1473,23.0,-2.0,7.0,-10.0,-11.0,0.0,-21.0,-12.0,1651069210394755.0,3
1474,-30.0,0.0,-10.0,15.0,7.0,-3.0,-4.0,-13.0,1651069210403266.0,3
1475,10.0,5.0,20.0,17.0,6.0,14.0,45.0,28.0,1651069210403266.0,3
1476,24.0,-1.0,-15.0,-17.0,-12.0,-7.0,-3.0,2.0,1651069210418384.0,3
1477,-103.0,0.0,0.0,5.0,4.0,-3.0,-10.0,-31.0,1651069210418384.0,3
1478,25.0,-1.0,-19.0,-22.0,-17.0,-7.0,-7.0,3.0,1651069210420345.0,3
1479,16.0,6.0,20.0,44.0,8.0,6.0,1.0,8.0,1651069210420345.0,3
1480,-14.0,-3.0,-7.0,-20.0,-3.0,4.0,-8.0,-12.0,1651069210441374.0,3
1481,16.0,5.0,0.0,-6.0,1.0,2.0,19.0,13.0,1651069210441374.0,3
1482,6.0,3.0,10.0,12.0,-3.0,1.0,5.0,-4.0,1651069210442838.0,3
1483,-10.0,-9.0,7.0,4.0,7.0,5.0,4.0,7.0,1651069210442838.0,3
1484,-15.0,-5.0,-2.0,13.0,-4.0,-6.0,-7.0,-9.0,1651069210455929.0,3
1485,9.0,-6.0,-9.0,-6.0,-11.0,-7.0,-16.0,-11.0,1651069210455929.0,3
1486,3.0,2.0,6.0,-19.0,-14.0,-4.0,11.0,9.0,1651069210457892.0,3
1487,10.0,-1.0,-20.0,20.0,26.0,5.0,-17.0,-8.0,1651069210457892.0,3
1488,-1.0,12.0,21.0,-22.0,-6.0,1.0,5.0,-6.0,1651069210478949.0,3
1489,-3.0,-3.0,2.0,-12.0,-3.0,-5.0,-2.0,3.0,1651069210478949.0,3
1490,12.0,-4.0,-14.0,24.0,6.0,-5.0,0.0,2.0,1651069210479880.0,3
1491,-12.0,1.0,-1.0,-15.0,4.0,-2.0,-8.0,-8.0,1651069210479880.0,3
1492,-2.0,-3.0,-19.0,-21.0,-14.0,-8.0,3.0,2.0,1651069210500890.0,3
1493,-7.0,9.0,23.0,10.0,9.0,7.0,1.0,1.0,1651069210500890.0,3
1494,-18.0,-22.0,-39.0,-29.0,-27.0,-17.0,-28.0,-18.0,1651069210502852.0,3
1495,31.0,10.0,4.0,34.0,11.0,3.0,18.0,15.0,1651069210502852.0,3
1496,-24.0,-13.0,-12.0,-8.0,-1.0,-1.0,-9.0,-9.0,1651069210514907.0,3
1497,72.0,9.0,2.0,1.0,1.0,1.0,18.0,23.0,1651069210514907.0,3
1498,-62.0,-12.0,0.0,1.0,3.0,-1.0,-13.0,-14.0,1651069210521947.0,3
1499,-14.0,-2.0,2.0,-12.0,-10.0,-8.0,-18.0,-16.0,1651069210521947.0,3
1500,-3.0,-3.0,-25.0,-9.0,1.0,2.0,11.0,-2.0,1651069210538887.0,3
1501,9.0,1.0,6.0,23.0,14.0,7.0,7.0,19.0,1651069210538887.0,3
1502,15.0,8.0,12.0,-13.0,-6.0,0.0,-4.0,-4.0,1651069210539840.0,3
1503,-19.0,0.0,-15.0,-18.0,7.0,-1.0,-8.0,-10.0,1651069210539840.0,3
1504,-21.0,-6.0,-3.0,9.0,3.0,-1.0,5.0,0.0,1651069210561371.0,3
1505,-6.0,3.0,4.0,-10.0,-1.0,4.0,-6.0,-10.0,1651069210561371.0,3
1506,16.0,0.0,-4.0,15.0,12.0,4.0,3.0,5.0,1651069210562647.0,3
1507,-12.0,5.0,13.0,-15.0,-26.0,-12.0,-6.0,3.0,1651069210562647.0,3
1508,20.0,-2.0,-9.0,-27.0,-5.0,-2.0,-4.0,2.0,1651069210575720.0,3
1509,-5.0,-9.0,-13.0,18.0,6.0,-2.0,1.0,-7.0,1651069210575720.0,3
1510,-3.0,4.0,19.0,35.0,8.0,1.0,14.0,10.0,1651069210581663.0,3
1511,-20.0,4.0,13.0,-8.0,-10.0,-3.0,-10.0,-14.0,1651069210581663.0,3
1512,0.0,-5.0,-14.0,-17.0,-9.0,-5.0,6.0,12.0,1651069210598731.0,3
1513,3.0,-1.0,6.0,-19.0,-2.0,-4.0,-13.0,-9.0,1651069210598731.0,3
1514,6.0,4.0,10.0,13.0,16.0,11.0,15.0,4.0,1651069210599666.0,3
1515,-51.0,-12.0,-28.0,3.0,12.0,2.0,-13.0,-26.0,1651069210599666.0,3
1516,20.0,7.0,17.0,8.0,-10.0,-1.0,5.0,8.0,1651069210621320.0,3
1517,-18.0,-1.0,7.0,8.0,5.0,4.0,-7.0,-15.0,1651069210621320.0,3
1518,9.0,1.0,4.0,-8.0,-4.0,-4.0,14.0,13.0,1651069210622616.0,3
1519,6.0,-2.0,-13.0,-18.0,-15.0,-5.0,-16.0,-12.0,1651069210622616.0,3
1520,32.0,-6.0,13.0,7.0,2.0,1.0,4.0,18.0,1651069210635640.0,3
1521,-12.0,0.0,-6.0,6.0,3.0,4.0,23.0,3.0,1651069210635640.0,3
1522,14.0,3.0,-2.0,15.0,1.0,-3.0,-7.0,-3.0,1651069210642611.0,3
1523,16.0,-2.0,-9.0,-16.0,9.0,11.0,23.0,24.0,1651069210642611.0,3
1524,3.0,6.0,14.0,4.0,2.0,-4.0,-9.0,-14.0,1651069210658811.0,3
1525,8.0,-7.0,-13.0,-14.0,-2.0,-3.0,3.0,16.0,1651069210658811.0,3
1526,10.0,5.0,3.0,-11.0,-4.0,1.0,-8.0,-5.0,1651069210659783.0,3
1527,12.0,7.0,28.0,41.0,12.0,8.0,13.0,21.0,1651069210659783.0,3
1528,-13.0,-5.0,-2.0,-19.0,-6.0,-2.0,0.0,-3.0,1651069210681881.0,3
1529,-4.0,-5.0,-17.0,-18.0,-3.0,-2.0,-9.0,-10.0,1651069210681881.0,3
1530,-7.0,-8.0,-9.0,-11.0,-16.0,-5.0,-10.0,-6.0,1651069210682871.0,3
1531,19.0,2.0,-3.0,11.0,3.0,-3.0,-5.0,-2.0,1651069210682871.0,3
1532,-37.0,-10.0,7.0,-4.0,1.0,-1.0,-10.0,-10.0,1651069210695720.0,3
1533,5.0,1.0,0.0,18.0,-9.0,-11.0,-10.0,-2.0,1651069210695720.0,3
1534,-2.0,-2.0,-6.0,-30.0,-5.0,-3.0,4.0,1.0,1651069210701732.0,3
1535,13.0,-3.0,-4.0,-9.0,-12.0,-9.0,-1.0,-1.0,1651069210701732.0,3
1536,-9.0,4.0,10.0,-1.0,12.0,6.0,-5.0,-7.0,1651069210718357.0,3
1537,-9.0,3.0,1.0,34.0,3.0,-1.0,0.0,-1.0,1651069210718357.0,3
1538,29.0,-3.0,-6.0,-27.0,-4.0,-6.0,-9.0,-3.0,1651069210720378.0,3
1539,-1.0,-9.0,-13.0,-12.0,-18.0,-10.0,-2.0,-2.0,1651069210720378.0,3
1540,11.0,16.0,19.0,33.0,25.0,7.0,-1.0,4.0,1651069210741395.0,3
1541,1.0,-9.0,-4.0,-13.0,-7.0,-7.0,-24.0,-8.0,1651069210741395.0,3
1542,17.0,5.0,-18.0,4.0,-2.0,2.0,31.0,19.0,1651069210742379.0,3
1543,-44.0,-2.0,18.0,14.0,11.0,4.0,-1.0,-11.0,1651069210742379.0,3
1544,42.0,3.0,-11.0,-13.0,-10.0,-4.0,1.0,7.0,1651069210755476.0,3
1545,1.0,0.0,14.0,1.0,-1.0,-3.0,7.0,6.0,1651069210755476.0,3
1546,-5.0,-7.0,0.0,21.0,3.0,1.0,-11.0,-4.0,1651069210762500.0,3
1547,-3.0,3.0,8.0,8.0,9.0,13.0,18.0,7.0,1651069210762500.0,3
1548,-13.0,-4.0,-14.0,2.0,-8.0,-6.0,-9.0,-11.0,1651069210778563.0,3
1549,-1.0,-2.0,0.0,-10.0,3.0,3.0,9.0,9.0,1651069210778563.0,3
1550,-5.0,4.0,6.0,-13.0,-2.0,0.0,-7.0,-5.0,1651069210780489.0,3
1551,21.0,-9.0,-7.0,7.0,-5.0,2.0,4.0,11.0,1651069210780489.0,3
1552,-10.0,-2.0,10.0,3.0,-4.0,-7.0,-10.0,-9.0,1651069210801370.0,3
1553,5.0,-5.0,-20.0,-24.0,-11.0,-8.0,6.0,11.0,1651069210801370.0,3
1554,-11.0,-1.0,-18.0,-18.0,-8.0,1.0,5.0,4.0,1651069210802658.0,3
1555,15.0,9.0,17.0,-2.0,7.0,11.0,-5.0,-5.0,1651069210802658.0,3
1556,-2.0,3.0,-7.0,10.0,5.0,4.0,2.0,-1.0,1651069210814803.0,3
1557,-42.0,-8.0,6.0,-20.0,-12.0,-4.0,-1.0,-12.0,1651069210814803.0,3
1558,28.0,-5.0,-17.0,16.0,5.0,-1.0,6.0,7.0,1651069210823782.0,3
1559,-14.0,2.0,-3.0,-13.0,-4.0,-5.0,-4.0,-6.0,1651069210823782.0,3
1560,-11.0,-6.0,-6.0,-4.0,1.0,3.0,-12.0,-10.0,1651069210838744.0,3
1561,8.0,4.0,-3.0,10.0,-1.0,-4.0,3.0,-3.0,1651069210838744.0,3
1562,-4.0,1.0,-2.0,-24.0,-7.0,-2.0,-2.0,-1.0,1651069210839740.0,3
1563,4.0,-2.0,9.0,40.0,9.0,3.0,5.0,3.0,1651069210839740.0,3
1564,-1.0,-2.0,6.0,-10.0,5.0,2.0,-3.0,-1.0,1651069210860563.0,3
1565,-9.0,3.0,12.0,5.0,0.0,-5.0,-10.0,-16.0,1651069210860563.0,3
1566,-5.0,1.0,2.0,-2.0,-4.0,3.0,6.0,3.0,1651069210862560.0,3
1567,11.0,0.0,-7.0,-31.0,-12.0,-4.0,0.0,2.0,1651069210862560.0,3
1568,-6.0,3.0,-3.0,8.0,0.0,0.0,10.0,9.0,1651069210874995.0,3
1569,0.0,-4.0,-13.0,14.0,5.0,4.0,0.0,4.0,1651069210874995.0,3
1570,-1.0,8.0,43.0,29.0,1.0,-2.0,3.0,-3.0,1651069210883290.0,3
1571,7.0,5.0,-2.0,-8.0,7.0,1.0,8.0,5.0,1651069210883290.0,3
1572,0.0,-2.0,-2.0,-9.0,-21.0,-8.0,-1.0,-4.0,1651069210898762.0,3
1573,17.0,1.0,14.0,-5.0,5.0,9.0,0.0,4.0,1651069210898762.0,3
1574,4.0,5.0,14.0,14.0,2.0,-2.0,-16.0,-2.0,1651069210899699.0,3
1575,2.0,2.0,-17.0,2.0,16.0,7.0,2.0,1.0,1651069210899699.0,3
1576,4.0,-2.0,4.0,6.0,-1.0,-2.0,13.0,11.0,1651069210921345.0,3
1577,0.0,-4.0,-23.0,-6.0,4.0,3.0,3.0,1.0,1651069210921345.0,3
1578,-13.0,-4.0,-7.0,-8.0,-6.0,-1.0,-7.0,-10.0,1651069210922643.0,3
1579,15.0,1.0,10.0,5.0,-5.0,-6.0,-17.0,-17.0,1651069210922643.0,3
1580,-3.0,-4.0,-9.0,-11.0,-2.0,3.0,2.0,6.0,1651069210934995.0,3
1581,6.0,-1.0,-22.0,1.0,-10.0,-4.0,0.0,0.0,1651069210934995.0,3
1582,-34.0,-6.0,-1.0,-2.0,9.0,0.0,-17.0,-10.0,1651069210943199.0,3
1583,8.0,3.0,12.0,-3.0,4.0,7.0,19.0,15.0,1651069210943199.0,3
1584,0.0,-3.0,-5.0,-13.0,-17.0,-10.0,-6.0,-6.0,1651069210958421.0,3
1585,0.0,-6.0,-8.0,9.0,8.0,0.0,-6.0,-4.0,1651069210958421.0,3
1586,24.0,1.0,-1.0,-21.0,-7.0,-4.0,-4.0,-2.0,1651069210960370.0,3
1587,-3.0,2.0,1.0,49.0,16.0,6.0,0.0,8.0,1651069210960370.0,3
1588,1.0,11.0,20.0,3.0,-4.0,-1.0,5.0,3.0,1651069210981345.0,3
1589,5.0,2.0,25.0,3.0,2.0,3.0,2.0,1.0,1651069210981345.0,3
1590,-11.0,-2.0,-11.0,-8.0,7.0,1.0,-3.0,-7.0,1651069210982617.0,3
1591,14.0,-7.0,-32.0,-3.0,-9.0,-7.0,-6.0,0.0,1651069210982617.0,3
1592,10.0,3.0,-10.0,-6.0,5.0,3.0,19.0,13.0,1651069210994791.0,3
1593,-2.0,3.0,16.0,-5.0,1.0,0.0,-7.0,-5.0,1651069210994791.0,3
1594,1.0,1.0,-5.0,16.0,0.0,0.0,-3.0,-4.0,1651069211003674.0,3
1595,-4.0,4.0,5.0,-17.0,-8.0,-1.0,16.0,11.0,1651069211003674.0,3
1596,-15.0,-13.0,-9.0,8.0,6.0,0.0,-11.0,-14.0,1651069211018166.0,3
1597,6.0,2.0,-7.0,-10.0,-1.0,0.0,4.0,2.0,1651069211018166.0,3
1598,-1.0,4.0,17.0,20.0,6.0,3.0,2.0,2.0,1651069211020092.0,3
1599,-8.0,-13.0,-17.0,-39.0,-22.0,-14.0,-14.0,-9.0,1651069211020092.0,3
1600,-6.0,-3.0,-3.0,13.0,7.0,-3.0,-20.0,-22.0,1651069211049239.0,3
1601,18.0,5.0,3.0,3.0,-1.0,6.0,26.0,24.0,1651069211049239.0,3
1602,-9.0,0.0,-6.0,-9.0,-5.0,-5.0,-3.0,-5.0,1651069211050239.0,3
1603,0.0,5.0,20.0,-3.0,9.0,6.0,3.0,5.0,1651069211050239.0,3
1604,-1.0,1.0,-13.0,12.0,-2.0,-1.0,0.0,2.0,1651069211054228.0,3
1605,-1.0,2.0,20.0,0.0,-1.0,-3.0,-12.0,-8.0,1651069211054228.0,3
1606,1.0,-5.0,-9.0,-2.0,1.0,4.0,12.0,8.0,1651069211063233.0,3
1607,-1.0,-2.0,-12.0,-24.0,-14.0,-9.0,-7.0,-11.0,1651069211063233.0,3
1608,-1.0,-1.0,-12.0,1.0,-5.0,-2.0,3.0,5.0,1651069211078735.0,3
1609,-6.0,-1.0,33.0,7.0,6.0,0.0,-11.0,-7.0,1651069211078735.0,3
1610,1.0,-2.0,-11.0,-9.0,-7.0,2.0,7.0,8.0,1651069211079665.0,3
1611,-7.0,-5.0,3.0,8.0,6.0,-5.0,-10.0,-7.0,1651069211079665.0,3
1612,0.0,-1.0,5.0,7.0,3.0,3.0,-6.0,-5.0,1651069211100604.0,3
1613,-6.0,-6.0,-24.0,-6.0,-5.0,-4.0,1.0,-4.0,1651069211100604.0,3
1614,-1.0,0.0,3.0,4.0,5.0,4.0,3.0,2.0,1651069211102505.0,3
1615,-1.0,-5.0,0.0,-8.0,-11.0,-8.0,-6.0,-2.0,1651069211102505.0,3
1616,-2.0,0.0,2.0,-2.0,-3.0,-3.0,-3.0,-3.0,1651069211123843.0,3
1617,0.0,-2.0,-10.0,-1.0,-4.0,-3.0,3.0,0.0,1651069211123843.0,3
1618,0.0,0.0,6.0,5.0,10.0,12.0,3.0,1.0,1651069211125840.0,3
1619,0.0,-1.0,-1.0,4.0,-3.0,1.0,0.0,0.0,1651069211125840.0,3
1620,1.0,3.0,7.0,-2.0,2.0,0.0,4.0,1.0,1651069211138849.0,3
1621,-2.0,0.0,-2.0,-4.0,-10.0,-5.0,-3.0,-6.0,1651069211138849.0,3
1622,1.0,0.0,-1.0,1.0,-3.0,-6.0,-2.0,1.0,1651069211139809.0,3
1623,-1.0,-1.0,0.0,2.0,2.0,-1.0,-1.0,0.0,1651069211139809.0,3
1624,-1.0,-1.0,5.0,-1.0,0.0,4.0,1.0,1.0,1651069211160908.0,3
1625,1.0,-1.0,-5.0,2.0,1.0,-2.0,-2.0,-3.0,1651069211160908.0,3
1626,-1.0,-2.0,-2.0,2.0,2.0,-1.0,-1.0,-3.0,1651069211162899.0,3
1627,0.0,3.0,5.0,0.0,2.0,5.0,3.0,0.0,1651069211162899.0,3
1628,-3.0,0.0,3.0,-5.0,-7.0,-3.0,2.0,-1.0,1651069211174980.0,3
1629,0.0,0.0,-9.0,2.0,3.0,2.0,1.0,0.0,1651069211174980.0,3
1630,0.0,-1.0,-4.0,-3.0,0.0,-2.0,1.0,3.0,1651069211184166.0,3
1631,-3.0,1.0,0.0,-1.0,-1.0,-1.0,-4.0,-1.0,1651069211184166.0,3
1632,2.0,0.0,5.0,3.0,0.0,-3.0,-1.0,0.0,1651069211198774.0,3
1633,-2.0,1.0,-2.0,1.0,2.0,4.0,0.0,0.0,1651069211198774.0,3
1634,1.0,0.0,1.0,-1.0,-5.0,-3.0,1.0,0.0,1651069211199787.0,3
1635,0.0,-3.0,-5.0,-2.0,-3.0,-1.0,-2.0,0.0,1651069211199787.0,3
1636,-1.0,0.0,0.0,2.0,4.0,2.0,1.0,-1.0,1651069211221429.0,3
1637,0.0,-2.0,-4.0,1.0,3.0,1.0,-2.0,-1.0,1651069211221429.0,3
1638,-1.0,-2.0,-1.0,-1.0,-2.0,-1.0,2.0,1.0,1651069211222429.0,3
1639,-2.0,-1.0,-2.0,-3.0,-7.0,-5.0,0.0,-3.0,1651069211222429.0,3
1640,0.0,0.0,0.0,-2.0,4.0,9.0,3.0,3.0,1651069211234994.0,3
1641,0.0,-1.0,1.0,1.0,-1.0,-2.0,-2.0,-3.0,1651069211234994.0,3
1642,-1.0,-1.0,-3.0,0.0,-1.0,-3.0,-2.0,-1.0,1651069211243278.0,3
1643,-2.0,-2.0,-1.0,-2.0,2.0,0.0,-1.0,0.0,1651069211243278.0,3
1644,0.0,0.0,2.0,1.0,-1.0,-3.0,-1.0,-1.0,1651069211258447.0,3
1645,-2.0,-2.0,-1.0,0.0,0.0,0.0,-1.0,0.0,1651069211258447.0,3
1646,0.0,-1.0,-1.0,-1.0,-1.0,-3.0,-2.0,0.0,1651069211260402.0,3
1647,0.0,0.0,-1.0,-1.0,-1.0,0.0,0.0,-2.0,1651069211260402.0,3
1648,1.0,-1.0,-1.0,-1.0,1.0,-2.0,-2.0,0.0,1651069211281322.0,3
1649,-1.0,1.0,-1.0,2.0,2.0,1.0,1.0,0.0,1651069211281322.0,3
1650,0.0,-1.0,-3.0,-1.0,-1.0,1.0,0.0,0.0,1651069211282319.0,3
1651,-1.0,0.0,-1.0,-1.0,-2.0,0.0,0.0,0.0,1651069211282319.0,3
1652,-2.0,0.0,0.0,-1.0,-2.0,0.0,2.0,-1.0,1651069211294297.0,3
1653,-1.0,-1.0,-1.0,0.0,0.0,0.0,-1.0,0.0,1651069211294297.0,3
1654,-1.0,0.0,-1.0,-2.0,-2.0,0.0,-3.0,-1.0,1651069211303381.0,3
1655,0.0,-3.0,0.0,0.0,2.0,-1.0,1.0,1.0,1651069211303381.0,3
1656,1.0,0.0,1.0,0.0,-1.0,-1.0,2.0,0.0,1651069211318912.0,3
1657,-2.0,0.0,-1.0,-2.0,0.0,-1.0,-1.0,0.0,1651069211318912.0,3
1658,-1.0,-1.0,-3.0,-3.0,0.0,1.0,0.0,-1.0,1651069211319872.0,3
1659,0.0,-1.0,-2.0,-1.0,-2.0,-2.0,-3.0,-3.0,1651069211319872.0,3
1660,-1.0,-2.0,-2.0,1.0,0.0,-1.0,1.0,0.0,1651069211339791.0,3
1661,-1.0,0.0,0.0,2.0,1.0,0.0,-1.0,-1.0,1651069211339791.0,3
1662,-1.0,0.0,1.0,-1.0,3.0,1.0,-2.0,0.0,1651069211348769.0,3
1663,0.0,-1.0,-2.0,-1.0,-1.0,-1.0,0.0,0.0,1651069211348769.0,3
1664,1.0,-2.0,1.0,-2.0,-1.0,-1.0,-1.0,0.0,1651069211363867.0,3
1665,0.0,0.0,-3.0,-2.0,0.0,-1.0,1.0,0.0,1651069211363867.0,3
1666,-1.0,-1.0,-1.0,1.0,-2.0,-1.0,0.0,0.0,1651069211364867.0,3
1667,-1.0,0.0,-1.0,2.0,1.0,1.0,0.0,-1.0,1651069211364867.0,3
1668,-2.0,-1.0,0.0,0.0,-1.0,0.0,-1.0,-1.0,1651069211377668.0,3
1669,0.0,0.0,-1.0,-2.0,-1.0,-2.0,-2.0,-1.0,1651069211377668.0,3
1670,1.0,0.0,0.0,-2.0,-5.0,-3.0,-1.0,-2.0,1651069211384717.0,3
1671,-2.0,-1.0,-1.0,1.0,4.0,2.0,1.0,0.0,1651069211384717.0,3
1672,0.0,0.0,0.0,0.0,-1.0,-3.0,-2.0,-1.0,1651069211401367.0,3
1673,-1.0,0.0,0.0,-2.0,-1.0,2.0,2.0,1.0,1651069211401367.0,3
1674,0.0,0.0,-2.0,-1.0,-2.0,0.0,0.0,0.0,1651069211402620.0,3
1675,0.0,1.0,2.0,10.0,22.0,13.0,-2.0,1.0,1651069211402620.0,3
1676,1.0,0.0,-1.0,-3.0,-7.0,-4.0,0.0,-1.0,1651069211423903.0,3
1677,-1.0,0.0,-1.0,-2.0,-2.0,-6.0,-2.0,-3.0,1651069211423903.0,3
1678,-1.0,0.0,-4.0,-9.0,-24.0,-14.0,-4.0,-2.0,1651069211424903.0,3
1679,-1.0,-4.0,-3.0,-2.0,9.0,-2.0,-1.0,1.0,1651069211424903.0,3
1680,0.0,0.0,0.0,2.0,5.0,7.0,1.0,1.0,1651069211437962.0,3
1681,-1.0,-1.0,0.0,-2.0,-6.0,-1.0,-1.0,0.0,1651069211437962.0,3
1682,1.0,-1.0,-1.0,2.0,10.0,4.0,0.0,-1.0,1651069211444592.0,3
1683,-1.0,-4.0,-9.0,-6.0,-12.0,-15.0,-4.0,-3.0,1651069211444592.0,3
1684,0.0,1.0,13.0,5.0,6.0,4.0,1.0,1.0,1651069211460766.0,3
1685,-1.0,-3.0,-2.0,-4.0,-3.0,0.0,-2.0,-2.0,1651069211460766.0,3
1686,1.0,0.0,0.0,-1.0,-5.0,-6.0,-1.0,-1.0,1651069211462691.0,3
1687,0.0,1.0,-3.0,-2.0,3.0,5.0,2.0,-1.0,1651069211462691.0,3
1688,-1.0,-1.0,-3.0,1.0,-5.0,-3.0,-2.0,-2.0,1651069211483796.0,3
1689,-1.0,0.0,0.0,-2.0,1.0,1.0,0.0,-1.0,1651069211483796.0,3
1690,1.0,-2.0,1.0,2.0,8.0,5.0,0.0,0.0,1651069211484784.0,3
1691,0.0,1.0,1.0,-4.0,-11.0,-3.0,-2.0,-2.0,1651069211484784.0,3
1692,-2.0,-3.0,-5.0,-6.0,0.0,-5.0,-3.0,-1.0,1651069211497747.0,3
1693,-1.0,-1.0,0.0,2.0,-4.0,-1.0,-1.0,-1.0,1651069211497747.0,3
1694,-1.0,-1.0,-1.0,2.0,6.0,6.0,3.0,0.0,1651069211504758.0,3
1695,-1.0,0.0,2.0,-4.0,-12.0,-5.0,-1.0,0.0,1651069211504758.0,3
1696,1.0,-1.0,1.0,5.0,8.0,3.0,1.0,2.0,1651069211520720.0,3
1697,-1.0,-2.0,-1.0,0.0,1.0,-3.0,-1.0,-1.0,1651069211520720.0,3
1698,0.0,-1.0,-1.0,-3.0,0.0,0.0,-1.0,0.0,1651069211522681.0,3
1699,1.0,0.0,0.0,1.0,-2.0,2.0,-1.0,0.0,1651069211522681.0,3
1700,-1.0,0.0,-3.0,-4.0,-3.0,-3.0,-1.0,-3.0,1651069211543662.0,3
1701,0.0,0.0,0.0,1.0,3.0,1.0,0.0,-1.0,1651069211543662.0,3
1702,-2.0,0.0,-2.0,1.0,2.0,-2.0,-2.0,-1.0,1651069211544623.0,3
1703,-1.0,0.0,3.0,0.0,-1.0,1.0,1.0,1.0,1651069211544623.0,3
1704,-2.0,-2.0,-4.0,-3.0,-5.0,-1.0,0.0,-1.0,1651069211557587.0,3
1705,-1.0,0.0,-1.0,2.0,3.0,3.0,0.0,-1.0,1651069211557587.0,3
1706,1.0,-1.0,-1.0,0.0,-1.0,-2.0,0.0,-1.0,1651069211564568.0,3
1707,1.0,0.0,-1.0,-1.0,-2.0,-2.0,0.0,-1.0,1651069211564568.0,3
1708,-1.0,0.0,-2.0,0.0,-1.0,0.0,-1.0,-1.0,1651069211580556.0,3
1709,1.0,1.0,0.0,-2.0,-4.0,0.0,-1.0,-1.0,1651069211580556.0,3
1710,-2.0,0.0,1.0,1.0,3.0,1.0,1.0,0.0,1651069211582521.0,3
1711,-1.0,-2.0,0.0,-1.0,-3.0,1.0,2.0,1.0,1651069211582521.0,3
1712,1.0,1.0,0.0,0.0,0.0,-1.0,-1.0,1.0,1651069211603493.0,3
1713,-1.0,0.0,-2.0,-1.0,3.0,2.0,1.0,-1.0,1651069211603493.0,3
1714,1.0,0.0,6.0,1.0,1.0,-1.0,-1.0,-1.0,1651069211605460.0,3
1715,0.0,0.0,1.0,-2.0,-3.0,5.0,1.0,0.0,1651069211605460.0,3
1716,0.0,-1.0,-4.0,-2.0,-6.0,-5.0,-1.0,-1.0,1651069211617428.0,3
1717,0.0,-1.0,1.0,0.0,0.0,-3.0,-2.0,1.0,1651069211617428.0,3
1718,-2.0,0.0,-1.0,1.0,2.0,1.0,1.0,0.0,1651069211625433.0,3
1719,-1.0,-1.0,0.0,-1.0,-2.0,-2.0,-1.0,-1.0,1651069211625433.0,3
1720,0.0,-2.0,2.0,-2.0,-2.0,0.0,-3.0,-2.0,1651069211640366.0,3
1721,0.0,-1.0,-1.0,-3.0,-7.0,-3.0,-1.0,0.0,1651069211640366.0,3
1722,0.0,-1.0,0.0,4.0,12.0,3.0,0.0,-1.0,1651069211641363.0,3
1723,-1.0,1.0,0.0,0.0,-1.0,1.0,0.0,-2.0,1651069211641363.0,3
1724,-1.0,0.0,-4.0,-1.0,0.0,0.0,-2.0,-2.0,1651069211662335.0,3
1725,0.0,-2.0,0.0,-2.0,-8.0,-5.0,0.0,-1.0,1651069211662335.0,3
1726,-2.0,-1.0,0.0,-2.0,-2.0,-4.0,-1.0,-1.0,1651069211663305.0,3
1727,-1.0,0.0,-1.0,1.0,5.0,5.0,2.0,-2.0,1651069211663305.0,3
1728,-1.0,-1.0,1.0,-1.0,1.0,-2.0,1.0,0.0,1651069211677296.0,3
1729,0.0,-1.0,0.0,-1.0,0.0,3.0,-1.0,0.0,1651069211677296.0,3
1730,-1.0,-1.0,-2.0,-2.0,-5.0,-3.0,-1.0,0.0,1651069211685266.0,3
1731,1.0,-1.0,-1.0,-2.0,2.0,-1.0,-1.0,-1.0,1651069211685266.0,3
1732,0.0,1.0,2.0,-1.0,-2.0,-4.0,0.0,-2.0,1651069211700207.0,3
1733,1.0,0.0,-1.0,1.0,4.0,3.0,1.0,0.0,1651069211700207.0,3
1734,0.0,-1.0,-2.0,-2.0,-3.0,-1.0,-1.0,0.0,1651069211701225.0,3
1735,-2.0,0.0,-1.0,0.0,-1.0,-2.0,-2.0,0.0,1651069211701225.0,3
1736,0.0,0.0,-2.0,-2.0,-1.0,1.0,1.0,0.0,1651069211723144.0,3
1737,-2.0,0.0,0.0,0.0,0.0,-3.0,1.0,-2.0,1651069211723144.0,3
1738,0.0,-1.0,-2.0,-3.0,0.0,2.0,0.0,-2.0,1651069211723144.0,3
1739,0.0,-1.0,1.0,-1.0,-6.0,-2.0,-1.0,-1.0,1651069211723144.0,3
1740,0.0,1.0,-2.0,-3.0,1.0,-1.0,-2.0,-1.0,1651069211737135.0,3
1741,-2.0,0.0,1.0,5.0,11.0,6.0,2.0,1.0,1651069211737135.0,3
1742,-1.0,0.0,0.0,1.0,-1.0,1.0,1.0,1.0,1651069211745088.0,3
1743,-1.0,0.0,-2.0,-2.0,-3.0,-7.0,-1.0,0.0,1651069211745088.0,3
1744,-1.0,-1.0,-1.0,0.0,-1.0,0.0,-2.0,0.0,1651069211760075.0,3
1745,0.0,0.0,-1.0,-2.0,-9.0,-1.0,0.0,0.0,1651069211760075.0,3
1746,0.0,0.0,-2.0,1.0,7.0,1.0,1.0,1.0,1651069211761044.0,3
1747,0.0,-1.0,-2.0,-1.0,-4.0,-3.0,-1.0,-2.0,1651069211761044.0,3
1748,-2.0,-2.0,0.0,0.0,0.0,-1.0,-1.0,0.0,1651069211790991.0,3
1749,1.0,-1.0,-1.0,1.0,3.0,3.0,-1.0,0.0,1651069211790991.0,3
1750,-1.0,-1.0,1.0,0.0,-4.0,0.0,-3.0,-1.0,1651069211791961.0,3
1751,0.0,0.0,0.0,-2.0,-6.0,-4.0,-1.0,0.0,1651069211791961.0,3
1752,-1.0,0.0,-1.0,0.0,3.0,4.0,3.0,1.0,1651069211796948.0,3
1753,-1.0,0.0,-2.0,-2.0,-1.0,-2.0,-1.0,0.0,1651069211796948.0,3
1754,1.0,0.0,-1.0,-2.0,4.0,2.0,1.0,-1.0,1651069211804926.0,3
1755,-1.0,-1.0,-2.0,1.0,1.0,-1.0,-1.0,-1.0,1651069211804926.0,3
1756,-2.0,-1.0,-2.0,-2.0,-4.0,1.0,-2.0,-1.0,1651069211819885.0,3
1757,0.0,-2.0,0.0,-3.0,-2.0,-5.0,-1.0,-1.0,1651069211819885.0,3
1758,-1.0,-2.0,0.0,1.0,-3.0,-1.0,-1.0,-1.0,1651069211820893.0,3
1759,1.0,1.0,-1.0,-3.0,3.0,0.0,-2.0,-1.0,1651069211820893.0,3
1760,0.0,-1.0,-1.0,0.0,-2.0,0.0,-1.0,-1.0,1651069211842852.0,3
1761,0.0,0.0,0.0,0.0,-2.0,-1.0,-1.0,-2.0,1651069211842852.0,3
1762,0.0,-2.0,0.0,-2.0,-7.0,-1.0,-1.0,0.0,1651069211843822.0,3
1763,-1.0,-1.0,1.0,0.0,0.0,1.0,0.0,-1.0,1651069211843822.0,3
1764,1.0,-2.0,-2.0,-1.0,0.0,-1.0,0.0,0.0,1651069211856816.0,3
1765,0.0,-1.0,-1.0,-1.0,1.0,1.0,-1.0,0.0,1651069211856816.0,3
1766,-1.0,-1.0,-1.0,-3.0,-3.0,-3.0,-1.0,-2.0,1651069211864793.0,3
1767,0.0,-2.0,-1.0,1.0,1.0,1.0,-1.0,0.0,1651069211864793.0,3
1768,0.0,0.0,1.0,0.0,0.0,-2.0,1.0,-1.0,1651069211879755.0,3
1769,-1.0,-1.0,0.0,1.0,-1.0,-3.0,0.0,-1.0,1651069211879755.0,3
1770,0.0,0.0,-1.0,-1.0,0.0,-2.0,-1.0,-1.0,1651069211880736.0,3
1771,0.0,1.0,0.0,0.0,-3.0,-2.0,2.0,0.0,1651069211880736.0,3
1772,1.0,-1.0,-2.0,-1.0,-5.0,-2.0,0.0,0.0,1651069211902674.0,3
1773,-1.0,0.0,0.0,0.0,6.0,-2.0,0.0,-1.0,1651069211902674.0,3
1774,-2.0,0.0,1.0,0.0,0.0,0.0,-2.0,1.0,1651069211903663.0,3
1775,0.0,-1.0,-1.0,-1.0,-1.0,0.0,-2.0,-1.0,1651069211903663.0,3
1776,-1.0,0.0,0.0,-1.0,-1.0,1.0,-3.0,-1.0,1651069211916656.0,3
1777,-2.0,0.0,-1.0,-1.0,-6.0,-2.0,1.0,-2.0,1651069211916656.0,3
1778,-1.0,-1.0,-1.0,0.0,-2.0,0.0,-1.0,-2.0,1651069211925623.0,3
1779,0.0,-1.0,0.0,1.0,3.0,-1.0,0.0,-2.0,1651069211925623.0,3
1780,1.0,1.0,2.0,1.0,-1.0,-2.0,-2.0,-2.0,1651069211940631.0,3
1781,-2.0,0.0,-2.0,0.0,7.0,6.0,-1.0,0.0,1651069211940631.0,3
1782,0.0,0.0,0.0,-1.0,-5.0,-6.0,0.0,-2.0,1651069211940631.0,3
1783,0.0,-1.0,0.0,1.0,-3.0,3.0,2.0,1.0,1651069211940631.0,3
1784,-1.0,1.0,0.0,2.0,1.0,-3.0,-1.0,0.0,1651069211962532.0,3
1785,0.0,0.0,0.0,-2.0,-2.0,-3.0,-2.0,0.0,1651069211962532.0,3
1786,0.0,0.0,-1.0,1.0,1.0,1.0,1.0,0.0,1651069211963502.0,3
1787,-1.0,-1.0,-1.0,-3.0,-3.0,-3.0,-1.0,-2.0,1651069211963502.0,3
1788,-1.0,-1.0,0.0,-2.0,-1.0,-1.0,0.0,0.0,1651069211977486.0,3
1789,-1.0,-1.0,-1.0,1.0,-2.0,1.0,1.0,0.0,1651069211977486.0,3
1790,1.0,0.0,0.0,1.0,3.0,2.0,1.0,0.0,1651069211985443.0,3
1791,1.0,3.0,0.0,0.0,1.0,-1.0,-3.0,-1.0,1651069211985443.0,3
1792,0.0,0.0,-2.0,0.0,1.0,3.0,0.0,0.0,1651069212000432.0,3
1793,0.0,-1.0,0.0,0.0,-3.0,-4.0,-3.0,-1.0,1651069212000432.0,3
1794,-2.0,-1.0,-1.0,-3.0,-3.0,0.0,1.0,-1.0,1651069212001400.0,3
1795,0.0,0.0,-2.0,0.0,1.0,0.0,-1.0,1.0,1651069212001400.0,3
1796,0.0,-1.0,-1.0,-1.0,1.0,-1.0,0.0,0.0,1651069212022372.0,3
1797,0.0,0.0,-2.0,-1.0,-5.0,-4.0,-2.0,-1.0,1651069212022372.0,3
1798,0.0,-1.0,0.0,1.0,6.0,3.0,0.0,0.0,1651069212023341.0,3
1799,0.0,1.0,2.0,2.0,2.0,1.0,1.0,1.0,1651069212023341.0,3
1800,1.0,-2.0,-1.0,-2.0,-2.0,-1.0,0.0,0.0,1651069212037324.0,3
1801,0.0,-1.0,0.0,-1.0,-3.0,2.0,0.0,1.0,1651069212037324.0,3
1802,-1.0,-1.0,-2.0,-2.0,-5.0,-5.0,-2.0,-2.0,1651069212045294.0,3
1803,-2.0,-2.0,-2.0,-4.0,0.0,-2.0,-1.0,-1.0,1651069212045294.0,3
1804,0.0,-1.0,0.0,0.0,0.0,0.0,1.0,-2.0,1651069212068221.0,3
1805,-1.0,-1.0,0.0,0.0,2.0,-2.0,-3.0,-3.0,1651069212068221.0,3
1806,-1.0,-2.0,-2.0,-3.0,-5.0,2.0,2.0,0.0,1651069212069218.0,3
1807,0.0,0.0,2.0,1.0,4.0,-1.0,-1.0,-1.0,1651069212069218.0,3
1808,0.0,0.0,0.0,2.0,2.0,0.0,1.0,0.0,1651069212082204.0,3
1809,0.0,0.0,-1.0,0.0,4.0,1.0,0.0,1.0,1651069212082204.0,3
1810,-2.0,0.0,-2.0,0.0,-3.0,-2.0,-3.0,1.0,1651069212083181.0,3
1811,0.0,-2.0,-3.0,-1.0,-3.0,-2.0,0.0,-1.0,1651069212083181.0,3
1812,-3.0,-1.0,-1.0,-1.0,-1.0,-2.0,-1.0,-2.0,1651069212106154.0,3
1813,-2.0,0.0,0.0,-1.0,0.0,-1.0,-1.0,0.0,1651069212106154.0,3
1814,0.0,-1.0,0.0,-1.0,-1.0,-3.0,1.0,-1.0,1651069212107125.0,3
1815,-1.0,-1.0,-1.0,-2.0,-2.0,0.0,-1.0,-1.0,1651069212107125.0,3
1816,0.0,-1.0,1.0,1.0,1.0,-2.0,-2.0,0.0,1651069212120103.0,3
1817,0.0,0.0,0.0,-1.0,-1.0,2.0,1.0,1.0,1651069212120103.0,3
1818,-1.0,1.0,1.0,1.0,2.0,1.0,0.0,0.0,1651069212121080.0,3
1819,-3.0,-2.0,-1.0,-1.0,-2.0,-3.0,0.0,-1.0,1651069212121080.0,3
1820,-2.0,-1.0,0.0,-2.0,-2.0,-1.0,0.0,-2.0,1651069212143107.0,3
1821,0.0,0.0,-2.0,-1.0,-5.0,1.0,-1.0,-1.0,1651069212143107.0,3
1822,-2.0,0.0,-1.0,-1.0,1.0,-1.0,-1.0,-1.0,1651069212143107.0,3
1823,1.0,-1.0,2.0,1.0,-1.0,0.0,-1.0,1.0,1651069212143107.0,0
1824,0.0,0.0,-1.0,1.0,-2.0,-3.0,-1.0,-1.0,1651069212166336.0,0
1825,-1.0,-1.0,-1.0,0.0,0.0,-1.0,1.0,0.0,1651069212166336.0,0
1826,0.0,1.0,-3.0,-1.0,0.0,2.0,-1.0,-2.0,1651069212166336.0,0
1827,-1.0,-1.0,-1.0,-1.0,-2.0,0.0,-2.0,-1.0,1651069212166336.0,0
1828,-3.0,0.0,-1.0,-2.0,1.0,1.0,0.0,0.0,1651069212180324.0,0
1829,-1.0,0.0,1.0,-2.0,0.0,0.0,0.0,0.0,1651069212180324.0,0
1830,0.0,0.0,1.0,-2.0,-6.0,-4.0,0.0,-1.0,1651069212181309.0,0
1831,1.0,1.0,0.0,4.0,12.0,7.0,0.0,-1.0,1651069212181309.0,0
1832,0.0,2.0,-2.0,0.0,0.0,0.0,-1.0,-2.0,1651069212202414.0,0
1833,0.0,0.0,-1.0,0.0,2.0,1.0,-1.0,-2.0,1651069212202414.0,0
1834,-2.0,-1.0,-1.0,-1.0,-7.0,-4.0,0.0,1.0,1651069212203348.0,0
1835,0.0,-1.0,-2.0,0.0,5.0,3.0,-2.0,0.0,1651069212203348.0,0
1836,1.0,0.0,0.0,-1.0,-5.0,-3.0,2.0,1.0,1651069212225528.0,0
1837,-1.0,-2.0,1.0,0.0,1.0,0.0,1.0,-1.0,1651069212225528.0,0
1838,-2.0,-1.0,1.0,1.0,3.0,0.0,-1.0,-1.0,1651069212226455.0,0
1839,0.0,0.0,-1.0,-3.0,-5.0,-6.0,0.0,-1.0,1651069212226455.0,0
1840,-1.0,-1.0,0.0,-2.0,2.0,3.0,0.0,0.0,1651069212240485.0,0
1841,-1.0,0.0,-2.0,-1.0,-1.0,0.0,-1.0,0.0,1651069212240485.0,0
1842,1.0,-1.0,-1.0,-1.0,0.0,-2.0,-1.0,-1.0,1651069212241416.0,0
1843,-1.0,-1.0,0.0,-2.0,-3.0,-2.0,0.0,1.0,1651069212241416.0,0
1844,-1.0,-1.0,0.0,-1.0,0.0,3.0,-2.0,-2.0,1651069212262360.0,0
1845,0.0,2.0,-1.0,0.0,0.0,-1.0,-2.0,-1.0,1651069212262360.0,0
1846,-1.0,0.0,-1.0,0.0,4.0,0.0,-2.0,-2.0,1651069212263363.0,0
1847,0.0,-2.0,0.0,-2.0,-3.0,-2.0,-1.0,-1.0,1651069212263363.0,0
1848,-2.0,-1.0,-1.0,0.0,3.0,3.0,1.0,0.0,1651069212285328.0,0
1849,-2.0,-1.0,-3.0,-1.0,-3.0,-5.0,-2.0,-2.0,1651069212285328.0,0
1850,0.0,-1.0,-1.0,-2.0,0.0,5.0,0.0,0.0,1651069212286296.0,0
1851,0.0,0.0,-1.0,-1.0,-2.0,1.0,1.0,0.0,1651069212286296.0,0
1852,0.0,0.0,0.0,0.0,-3.0,-6.0,-1.0,-1.0,1651069212300258.0,0
1853,0.0,-1.0,0.0,1.0,-1.0,-3.0,0.0,1.0,1651069212300258.0,0
1854,-1.0,-1.0,-1.0,0.0,0.0,-3.0,-1.0,-2.0,1651069212301255.0,0
1855,-1.0,0.0,0.0,-1.0,-3.0,-1.0,2.0,0.0,1651069212301255.0,0
1856,1.0,-1.0,-2.0,0.0,1.0,1.0,-1.0,0.0,1651069212322227.0,0
1857,0.0,0.0,0.0,-2.0,-4.0,0.0,0.0,0.0,1651069212322227.0,0
1858,0.0,1.0,2.0,-1.0,1.0,1.0,-1.0,-1.0,1651069212323205.0,0
1859,-2.0,-1.0,-1.0,-1.0,0.0,1.0,0.0,-2.0,1651069212323205.0,0
1860,-1.0,-1.0,1.0,-1.0,-4.0,-4.0,-2.0,-2.0,1651069212345167.0,0
1861,-2.0,0.0,-1.0,-1.0,0.0,-1.0,-1.0,-2.0,1651069212345167.0,0
1862,2.0,0.0,-1.0,0.0,-1.0,0.0,3.0,2.0,1651069212346136.0,0
1863,-1.0,0.0,-2.0,1.0,2.0,1.0,0.0,-2.0,1651069212346136.0,0
1864,0.0,0.0,-1.0,0.0,-2.0,-1.0,-1.0,2.0,1651069212360128.0,0
1865,1.0,-1.0,0.0,-2.0,-4.0,-6.0,-4.0,-1.0,1651069212360128.0,0
1866,0.0,2.0,0.0,2.0,8.0,9.0,2.0,0.0,1651069212361096.0,0
1867,-1.0,-1.0,-1.0,-2.0,-4.0,-6.0,-1.0,-1.0,1651069212361096.0,0
1868,-2.0,-2.0,0.0,0.0,2.0,-1.0,1.0,0.0,1651069212383064.0,0
1869,-2.0,-2.0,-2.0,0.0,-5.0,-4.0,-1.0,-1.0,1651069212383064.0,0
1870,0.0,-2.0,0.0,2.0,4.0,3.0,0.0,-1.0,1651069212383064.0,0
1871,-1.0,0.0,0.0,-3.0,-3.0,-2.0,-2.0,1.0,1651069212383064.0,0
1872,-1.0,-1.0,-1.0,1.0,2.0,1.0,-1.0,0.0,1651069212404977.0,0
1873,-2.0,-2.0,1.0,-3.0,-1.0,1.0,0.0,0.0,1651069212404977.0,0
1874,-1.0,-1.0,-1.0,-1.0,-5.0,-4.0,-1.0,-1.0,1651069212405978.0,0
1875,-1.0,1.0,0.0,2.0,0.0,2.0,0.0,0.0,1651069212405978.0,0
1876,0.0,0.0,-1.0,-2.0,-4.0,-3.0,-3.0,-2.0,1651069212419943.0,0
1877,1.0,1.0,0.0,1.0,5.0,4.0,1.0,1.0,1651069212419943.0,0
1878,-1.0,-1.0,0.0,-2.0,-5.0,-5.0,-2.0,-2.0,1651069212420935.0,0
1879,1.0,-1.0,-1.0,-1.0,3.0,5.0,1.0,-1.0,1651069212420935.0,0
1880,-1.0,1.0,-2.0,0.0,-1.0,1.0,2.0,0.0,1651069212442906.0,0
1881,-1.0,-1.0,0.0,0.0,-1.0,-3.0,-2.0,-1.0,1651069212442906.0,0
1882,0.0,-3.0,-1.0,-1.0,-3.0,0.0,-2.0,0.0,1651069212443874.0,0
1883,0.0,-1.0,-1.0,0.0,0.0,-2.0,0.0,-2.0,1651069212443874.0,0
1884,1.0,-2.0,0.0,-1.0,1.0,-1.0,-3.0,-1.0,1651069212464845.0,0
1885,1.0,-1.0,-1.0,-1.0,-2.0,0.0,1.0,0.0,1651069212464845.0,0
1886,-1.0,0.0,1.0,-1.0,1.0,-2.0,-1.0,1.0,1651069212465815.0,0
1887,-1.0,-1.0,0.0,-1.0,2.0,1.0,0.0,0.0,1651069212465815.0,0
1888,-2.0,0.0,0.0,-1.0,1.0,1.0,0.0,-1.0,1651069212479777.0,0
1889,-2.0,-2.0,-2.0,-2.0,-3.0,-2.0,1.0,0.0,1651069212479777.0,0
1890,0.0,-2.0,1.0,0.0,3.0,2.0,-1.0,-2.0,1651069212480781.0,0
1891,-1.0,2.0,-2.0,-2.0,-7.0,-4.0,0.0,0.0,1651069212480781.0,0
1892,-1.0,0.0,1.0,3.0,8.0,3.0,0.0,0.0,1651069212502729.0,0
1893,-1.0,-1.0,-1.0,1.0,3.0,1.0,0.0,1.0,1651069212502729.0,0
1894,-1.0,-1.0,-2.0,-3.0,-2.0,-1.0,-1.0,0.0,1651069212503715.0,0
1895,0.0,-2.0,-1.0,1.0,-2.0,0.0,0.0,1.0,1651069212503715.0,0
1896,0.0,0.0,-1.0,-2.0,-3.0,-2.0,-2.0,-1.0,1651069212525695.0,0
1897,0.0,0.0,-1.0,-1.0,2.0,4.0,2.0,-1.0,1651069212525695.0,0
1898,-1.0,-1.0,-1.0,-1.0,-1.0,-4.0,-1.0,1.0,1651069212525695.0,0
1899,0.0,-2.0,0.0,-2.0,-2.0,-2.0,-3.0,0.0,1651069212525695.0,0
1900,-2.0,-2.0,-2.0,-1.0,-3.0,-3.0,1.0,-1.0,1651069212540643.0,0
1901,0.0,1.0,1.0,0.0,2.0,2.0,0.0,-2.0,1651069212540643.0,0
1902,-1.0,-1.0,-1.0,0.0,0.0,0.0,1.0,-2.0,1651069212540643.0,0
1903,0.0,0.0,-2.0,0.0,-4.0,-1.0,-1.0,0.0,1651069212540643.0,0
1904,1.0,0.0,-2.0,0.0,6.0,-1.0,1.0,0.0,1651069212562586.0,0
