EMG_s0,EMG_s1,EMG_s2,EMG_s3,EMG_s4,EMG_s5,EMG_s6,EMG_s7,timestamp
0.0,0.0,0.0,-3.0,-3.0,-2.0,0.0,-1.0,1651086127869245.0
-1.0,-1.0,0.0,-1.0,0.0,-1.0,-2.0,-1.0,1651086127869245.0
-1.0,-1.0,1.0,3.0,1.0,0.0,-1.0,-2.0,1651086127870147.0
0.0,-1.0,-1.0,-2.0,-5.0,-3.0,-1.0,0.0,1651086127870147.0
-1.0,-3.0,-5.0,0.0,0.0,-3.0,-2.0,-2.0,1651086127872191.0
-3.0,-1.0,-2.0,1.0,-2.0,-1.0,0.0,-2.0,1651086127872191.0
-3.0,-1.0,-1.0,-1.0,-6.0,-3.0,-2.0,1.0,1651086127874185.0
-2.0,-2.0,-2.0,5.0,6.0,1.0,-1.0,-1.0,1651086127874185.0
-1.0,-4.0,-3.0,-3.0,-3.0,-4.0,-3.0,0.0,1651086127879121.0
-2.0,-1.0,-1.0,2.0,3.0,1.0,1.0,0.0,1651086127879121.0
-1.0,0.0,0.0,-2.0,0.0,1.0,1.0,-2.0,1651086127887103.0
-1.0,-3.0,-6.0,-4.0,-5.0,-3.0,-1.0,0.0,1651086127887103.0
-1.0,-1.0,-4.0,-2.0,-4.0,-3.0,-2.0,-1.0,1651086127894119.0
0.0,-1.0,2.0,5.0,3.0,1.0,-2.0,2.0,1651086127894119.0
1.0,-3.0,0.0,-1.0,-3.0,-4.0,-1.0,-1.0,1651086127912063.0
-1.0,-1.0,-1.0,1.0,-2.0,-2.0,0.0,-2.0,1651086127912063.0
-1.0,1.0,-2.0,0.0,0.0,0.0,-1.0,-1.0,1651086127916060.0
0.0,-2.0,-2.0,-2.0,-2.0,-3.0,0.0,-1.0,1651086127916060.0
-2.0,0.0,-2.0,-1.0,0.0,1.0,-2.0,-2.0,1651086127947692.0
-1.0,0.0,-1.0,-3.0,-3.0,-1.0,0.0,1.0,1651086127947692.0
-1.0,0.0,3.0,3.0,-2.0,-1.0,0.0,1.0,1651086127948692.0
0.0,3.0,-2.0,0.0,2.0,1.0,1.0,-1.0,1651086127948692.0
-1.0,0.0,1.0,-1.0,-2.0,0.0,2.0,0.0,1651086127978777.0
-2.0,1.0,0.0,1.0,1.0,0.0,0.0,-1.0,1651086127978777.0
1.0,-2.0,-2.0,-7.0,-5.0,-5.0,0.0,0.0,1651086127979780.0
1.0,0.0,2.0,6.0,7.0,3.0,1.0,0.0,1651086127979780.0
-3.0,1.0,-1.0,1.0,1.0,2.0,2.0,1.0,1651086127980784.0
0.0,-3.0,-1.0,-3.0,-4.0,-1.0,0.0,-1.0,1651086127980784.0
0.0,2.0,1.0,1.0,-4.0,-2.0,-2.0,-1.0,1651086127983768.0
-1.0,-1.0,-1.0,-4.0,-3.0,-2.0,-1.0,0.0,1651086127983768.0
0.0,-1.0,0.0,1.0,1.0,2.0,0.0,-2.0,1651086127990750.0
-1.0,-3.0,0.0,-2.0,0.0,-1.0,-2.0,-1.0,1651086127990750.0
-1.0,1.0,-6.0,-2.0,-1.0,0.0,-1.0,1.0,1651086127997734.0
-2.0,0.0,1.0,0.0,3.0,1.0,0.0,-1.0,1651086127997734.0
-2.0,-1.0,-3.0,-2.0,1.0,0.0,-1.0,-1.0,1651086128006707.0
1.0,2.0,2.0,0.0,2.0,0.0,1.0,-1.0,1651086128006707.0
0.0,-2.0,0.0,0.0,1.0,0.0,-1.0,-2.0,1651086128020717.0
-1.0,-1.0,2.0,3.0,-2.0,-1.0,0.0,0.0,1651086128020717.0
-1.0,-1.0,-5.0,-5.0,-3.0,-2.0,-2.0,-1.0,1651086128029647.0
1.0,0.0,1.0,-1.0,-3.0,-3.0,-2.0,1.0,1651086128029647.0
-3.0,-2.0,-1.0,0.0,3.0,1.0,1.0,-1.0,1651086128052207.0
0.0,-1.0,-1.0,-2.0,-5.0,-2.0,0.0,-1.0,1651086128052207.0
2.0,1.0,4.0,8.0,10.0,2.0,0.0,-1.0,1651086128053171.0
0.0,0.0,0.0,-7.0,-7.0,-3.0,-1.0,0.0,1651086128053171.0
0.0,-2.0,1.0,4.0,6.0,4.0,0.0,-2.0,1651086128067228.0
0.0,-2.0,0.0,1.0,0.0,1.0,0.0,0.0,1651086128067228.0
0.0,0.0,1.0,3.0,-1.0,-3.0,-3.0,0.0,1651086128075112.0
-1.0,-2.0,-3.0,-2.0,-2.0,0.0,-2.0,-1.0,1651086128075112.0
-1.0,-1.0,-2.0,0.0,-3.0,0.0,0.0,0.0,1651086128089330.0
-1.0,0.0,-2.0,-3.0,-3.0,-3.0,-3.0,0.0,1651086128089330.0
0.0,-3.0,-1.0,-4.0,-3.0,-3.0,-1.0,-1.0,1651086128091290.0
-2.0,-2.0,-2.0,0.0,0.0,0.0,1.0,0.0,1651086128091290.0
-1.0,-1.0,1.0,0.0,4.0,0.0,-1.0,1.0,1651086128120247.0
-1.0,-2.0,-2.0,-1.0,-2.0,-1.0,-2.0,-1.0,1651086128120247.0
-2.0,-1.0,0.0,-3.0,-5.0,-2.0,-1.0,-1.0,1651086128121167.0
-2.0,0.0,2.0,3.0,4.0,2.0,2.0,0.0,1651086128121167.0
-1.0,-1.0,-1.0,-1.0,-2.0,-1.0,0.0,0.0,1651086128126185.0
1.0,1.0,-5.0,-3.0,-3.0,-2.0,1.0,0.0,1651086128126185.0
-1.0,1.0,1.0,1.0,1.0,1.0,1.0,-1.0,1651086128133166.0
2.0,-2.0,-3.0,-3.0,-2.0,-1.0,-2.0,-1.0,1651086128133166.0
0.0,0.0,1.0,0.0,-3.0,-1.0,-1.0,-1.0,1651086128150293.0
-2.0,-1.0,-1.0,-5.0,-6.0,-3.0,-1.0,-1.0,1651086128150293.0
0.0,-1.0,-1.0,-1.0,2.0,2.0,-1.0,-1.0,1651086128151114.0
-2.0,-1.0,0.0,5.0,3.0,0.0,-1.0,-1.0,1651086128151114.0
0.0,0.0,-1.0,-2.0,-1.0,-3.0,0.0,0.0,1651086128172486.0
0.0,-2.0,-1.0,1.0,2.0,-1.0,-3.0,0.0,1651086128172486.0
0.0,-1.0,-2.0,-1.0,-2.0,-3.0,0.0,0.0,1651086128173484.0
1.0,1.0,2.0,0.0,-1.0,0.0,0.0,1.0,1651086128173484.0
-1.0,-1.0,0.0,1.0,-4.0,-4.0,-1.0,0.0,1651086128186481.0
-2.0,-2.0,-3.0,-4.0,-1.0,1.0,1.0,-1.0,1651086128186481.0
-2.0,-2.0,0.0,-3.0,1.0,1.0,0.0,1.0,1651086128193430.0
1.0,-1.0,1.0,3.0,1.0,1.0,-1.0,-1.0,1651086128193430.0
-1.0,0.0,4.0,-1.0,-4.0,-3.0,-1.0,-2.0,1651086128210205.0
-1.0,-2.0,-2.0,-4.0,-5.0,-1.0,-2.0,-1.0,1651086128210205.0
1.0,1.0,-1.0,0.0,-2.0,-2.0,-2.0,-1.0,1651086128211173.0
-1.0,-3.0,-2.0,-3.0,-3.0,0.0,0.0,-1.0,1651086128211173.0
-1.0,-1.0,0.0,5.0,3.0,5.0,-1.0,0.0,1651086128232170.0
-1.0,0.0,-3.0,-2.0,-1.0,-2.0,0.0,-1.0,1651086128232170.0
0.0,-1.0,-2.0,-3.0,-2.0,1.0,-1.0,0.0,1651086128233070.0
-1.0,-1.0,-1.0,-3.0,-2.0,-3.0,-3.0,0.0,1651086128233070.0
-1.0,-1.0,-2.0,-1.0,-2.0,-1.0,0.0,0.0,1651086128246040.0
0.0,0.0,0.0,2.0,0.0,0.0,-1.0,0.0,1651086128246040.0
-1.0,-1.0,-3.0,-4.0,-5.0,-4.0,-2.0,-1.0,1651086128253051.0
-2.0,0.0,-1.0,1.0,1.0,0.0,1.0,-1.0,1651086128253051.0
-1.0,0.0,-1.0,-7.0,-3.0,0.0,-2.0,-1.0,1651086128269005.0
0.0,0.0,-1.0,4.0,3.0,-1.0,0.0,-1.0,1651086128269005.0
0.0,-1.0,3.0,4.0,5.0,2.0,1.0,-1.0,1651086128270971.0
-2.0,0.0,-2.0,-3.0,-1.0,0.0,0.0,-1.0,1651086128270971.0
-1.0,-1.0,-3.0,-2.0,0.0,-1.0,0.0,-2.0,1651086128292097.0
0.0,0.0,1.0,0.0,-3.0,-3.0,-2.0,-1.0,1651086128292097.0
-1.0,-1.0,-2.0,-1.0,-5.0,-4.0,0.0,-1.0,1651086128294058.0
-1.0,0.0,-1.0,2.0,0.0,0.0,-2.0,-1.0,1651086128294058.0
0.0,-1.0,-1.0,0.0,-2.0,-1.0,0.0,1.0,1651086128306104.0
-1.0,-2.0,1.0,-1.0,3.0,1.0,1.0,0.0,1651086128306104.0
-1.0,0.0,0.0,0.0,-2.0,-1.0,0.0,-2.0,1651086128313094.0
-1.0,-1.0,1.0,2.0,1.0,-1.0,0.0,-1.0,1651086128313094.0
0.0,-2.0,1.0,-4.0,-4.0,-1.0,-2.0,-1.0,1651086128329130.0
-1.0,0.0,1.0,-1.0,0.0,0.0,0.0,0.0,1651086128329130.0
-1.0,-1.0,0.0,-5.0,-7.0,-2.0,0.0,2.0,1651086128331124.0
-2.0,-3.0,0.0,-3.0,4.0,0.0,2.0,-2.0,1651086128331124.0
0.0,1.0,1.0,4.0,4.0,0.0,0.0,-1.0,1651086128352216.0
0.0,1.0,-1.0,1.0,-2.0,-1.0,-1.0,-1.0,1651086128352216.0
-3.0,-2.0,-2.0,-3.0,-2.0,-2.0,-2.0,-1.0,1651086128353166.0
1.0,-1.0,-2.0,-2.0,-4.0,-3.0,-2.0,-1.0,1651086128353166.0
-1.0,0.0,1.0,5.0,8.0,4.0,1.0,-1.0,1651086128365134.0
1.0,-1.0,-1.0,-6.0,-7.0,-3.0,-2.0,0.0,1651086128365134.0
0.0,-1.0,-1.0,2.0,2.0,2.0,0.0,0.0,1651086128375108.0
0.0,0.0,-4.0,1.0,5.0,4.0,2.0,2.0,1651086128375108.0
-2.0,-3.0,-1.0,-1.0,0.0,-2.0,-1.0,-2.0,1651086128389936.0
-1.0,1.0,0.0,0.0,-1.0,-1.0,0.0,0.0,1651086128389936.0
0.0,-1.0,1.0,-2.0,-4.0,-1.0,-2.0,0.0,1651086128390939.0
1.0,1.0,-1.0,0.0,0.0,-1.0,0.0,0.0,1651086128390939.0
0.0,2.0,-3.0,-1.0,1.0,-1.0,0.0,0.0,1651086128412287.0
0.0,-1.0,1.0,1.0,-1.0,-1.0,-2.0,-1.0,1651086128412287.0
0.0,-1.0,0.0,-1.0,-3.0,-1.0,-2.0,-1.0,1651086128413940.0
-1.0,0.0,-3.0,1.0,-5.0,-2.0,-1.0,0.0,1651086128413940.0
-1.0,-2.0,0.0,4.0,10.0,4.0,2.0,0.0,1651086128425984.0
-1.0,-2.0,-1.0,-2.0,0.0,1.0,0.0,-1.0,1651086128425984.0
0.0,1.0,-1.0,2.0,6.0,4.0,-1.0,-1.0,1651086128441790.0
1.0,1.0,2.0,-2.0,-3.0,-3.0,0.0,0.0,1651086128441790.0
0.0,-2.0,-2.0,-3.0,-8.0,-5.0,-1.0,0.0,1651086128449848.0
-1.0,0.0,-2.0,-3.0,-1.0,0.0,0.0,-3.0,1651086128449848.0
1.0,-1.0,-1.0,3.0,3.0,2.0,1.0,0.0,1651086128450772.0
0.0,0.0,0.0,0.0,-3.0,1.0,-1.0,-1.0,1651086128450772.0
0.0,-1.0,-1.0,-4.0,-4.0,-1.0,-1.0,0.0,1651086128472647.0
-1.0,-2.0,0.0,2.0,3.0,0.0,0.0,0.0,1651086128472647.0
0.0,0.0,-1.0,-2.0,-4.0,-3.0,-2.0,-1.0,1651086128473091.0
-1.0,1.0,-2.0,-1.0,-1.0,-1.0,-1.0,0.0,1651086128473091.0
1.0,0.0,0.0,-1.0,-2.0,-2.0,-2.0,0.0,1651086128486155.0
-1.0,-1.0,-1.0,-2.0,-5.0,0.0,-2.0,-1.0,1651086128486155.0
-2.0,-1.0,1.0,1.0,2.0,0.0,1.0,-1.0,1651086128495041.0
-2.0,-1.0,1.0,0.0,-1.0,1.0,2.0,-1.0,1651086128495041.0
0.0,1.0,-1.0,6.0,2.0,-1.0,-1.0,-1.0,1651086128510144.0
1.0,-1.0,2.0,3.0,3.0,2.0,1.0,1.0,1651086128510144.0
0.0,0.0,-6.0,-2.0,-2.0,-1.0,1.0,0.0,1651086128511153.0
0.0,-3.0,-1.0,-6.0,0.0,-2.0,0.0,-1.0,1651086128511153.0
-1.0,0.0,-2.0,-4.0,-10.0,-6.0,-3.0,-1.0,1651086128532179.0
-1.0,0.0,0.0,2.0,6.0,3.0,1.0,0.0,1651086128532179.0
-1.0,1.0,-7.0,1.0,2.0,0.0,0.0,-1.0,1651086128533103.0
1.0,0.0,0.0,-2.0,-2.0,-3.0,0.0,-2.0,1651086128533103.0
-1.0,-1.0,0.0,-2.0,-5.0,-2.0,1.0,0.0,1651086128546039.0
-2.0,1.0,-1.0,-1.0,-2.0,-3.0,-2.0,-1.0,1651086128546039.0
-1.0,0.0,3.0,2.0,3.0,1.0,0.0,2.0,1651086128555014.0
0.0,-1.0,-5.0,-3.0,-2.0,-1.0,-1.0,0.0,1651086128555014.0
0.0,-1.0,-1.0,0.0,-1.0,0.0,0.0,-1.0,1651086128569111.0
-2.0,-1.0,1.0,2.0,2.0,0.0,1.0,-2.0,1651086128569111.0
1.0,-1.0,1.0,-2.0,-3.0,1.0,1.0,0.0,1651086128571114.0
-1.0,-1.0,1.0,-1.0,-1.0,-1.0,-1.0,0.0,1651086128571114.0
-1.0,0.0,0.0,-1.0,0.0,2.0,0.0,-1.0,1651086128593101.0
-1.0,0.0,-3.0,-2.0,-1.0,-1.0,-1.0,0.0,1651086128593101.0
1.0,-2.0,-2.0,-5.0,-3.0,-1.0,-2.0,0.0,1651086128593101.0
1.0,0.0,4.0,3.0,0.0,-2.0,-1.0,0.0,1651086128593101.0
0.0,0.0,0.0,-1.0,3.0,1.0,0.0,2.0,1651086128606157.0
1.0,1.0,-4.0,2.0,6.0,2.0,0.0,1.0,1651086128606157.0
-1.0,-1.0,4.0,0.0,-4.0,-2.0,0.0,-1.0,1651086128615081.0
-3.0,0.0,0.0,3.0,-1.0,0.0,-2.0,1.0,1651086128615081.0
2.0,-1.0,-3.0,3.0,6.0,0.0,-2.0,-1.0,1651086128630056.0
0.0,-1.0,3.0,-3.0,-3.0,-5.0,-1.0,-1.0,1651086128630056.0
-2.0,-1.0,0.0,6.0,3.0,4.0,0.0,-1.0,1651086128631053.0
0.0,-1.0,-1.0,-3.0,-3.0,0.0,-1.0,0.0,1651086128631053.0
-2.0,2.0,2.0,-2.0,-3.0,-1.0,-1.0,0.0,1651086128652123.0
0.0,0.0,0.0,-1.0,-4.0,-1.0,-1.0,0.0,1651086128652123.0
0.0,2.0,-1.0,-4.0,-1.0,-2.0,-1.0,-1.0,1651086128653156.0
0.0,1.0,-5.0,-1.0,1.0,1.0,1.0,0.0,1651086128653156.0
-2.0,-3.0,-2.0,2.0,-3.0,0.0,-1.0,-2.0,1651086128666178.0
-1.0,3.0,3.0,-3.0,-3.0,0.0,-1.0,1.0,1651086128666178.0
0.0,-1.0,-2.0,-2.0,-3.0,-3.0,0.0,-1.0,1651086128675062.0
-1.0,0.0,-1.0,2.0,2.0,1.0,-1.0,0.0,1651086128675062.0
-1.0,0.0,-3.0,-1.0,1.0,-1.0,1.0,-1.0,1651086128690295.0
-2.0,-3.0,-1.0,-2.0,-5.0,-1.0,-1.0,1.0,1651086128690295.0
0.0,-1.0,0.0,0.0,-2.0,0.0,-2.0,-1.0,1651086128695194.0
0.0,-2.0,-1.0,3.0,8.0,1.0,0.0,0.0,1651086128695194.0
1.0,0.0,1.0,-3.0,-3.0,-1.0,-1.0,0.0,1651086128712252.0
0.0,-1.0,-2.0,-2.0,2.0,0.0,-1.0,-1.0,1651086128712252.0
0.0,-1.0,-3.0,-2.0,-1.0,-4.0,-1.0,2.0,1651086128713189.0
-1.0,-1.0,-2.0,-1.0,-5.0,-3.0,-2.0,-1.0,1651086128713189.0
0.0,0.0,1.0,1.0,3.0,1.0,0.0,-1.0,1651086128726156.0
1.0,-1.0,-1.0,1.0,0.0,1.0,-1.0,-1.0,1651086128726156.0
1.0,0.0,1.0,-4.0,-3.0,0.0,0.0,-1.0,1651086128735101.0
0.0,0.0,2.0,-1.0,-7.0,-3.0,-1.0,-1.0,1651086128735101.0
-1.0,-1.0,-3.0,-2.0,1.0,-4.0,-1.0,-1.0,1651086128749915.0
-2.0,-1.0,-6.0,2.0,4.0,4.0,1.0,0.0,1651086128749915.0
-2.0,-1.0,-3.0,-6.0,-4.0,-2.0,-1.0,-1.0,1651086128750917.0
0.0,-1.0,1.0,1.0,0.0,-1.0,-1.0,0.0,1651086128750917.0
-2.0,-1.0,1.0,-2.0,-3.0,0.0,-1.0,0.0,1651086128772182.0
-1.0,-1.0,-1.0,0.0,0.0,0.0,-1.0,-1.0,1651086128772182.0
-2.0,0.0,-2.0,-1.0,0.0,0.0,0.0,0.0,1651086128778062.0
0.0,1.0,1.0,3.0,5.0,2.0,0.0,-1.0,1651086128778062.0
1.0,-2.0,-3.0,-8.0,-5.0,0.0,0.0,1.0,1651086128786037.0
1.0,-1.0,0.0,2.0,-3.0,-3.0,-2.0,-2.0,1651086128786037.0
-1.0,0.0,4.0,3.0,-1.0,-2.0,-2.0,-2.0,1651086128795017.0
-1.0,-2.0,1.0,2.0,-2.0,1.0,0.0,0.0,1651086128795017.0
0.0,0.0,0.0,2.0,0.0,0.0,-1.0,0.0,1651086128809911.0
0.0,4.0,2.0,-7.0,-2.0,0.0,1.0,-1.0,1651086128809911.0
-1.0,-9.0,-2.0,3.0,1.0,-1.0,-2.0,-1.0,1651086128810916.0
0.0,-2.0,-2.0,-2.0,-1.0,0.0,-2.0,0.0,1651086128810916.0
-3.0,0.0,3.0,0.0,-2.0,-1.0,-1.0,0.0,1651086128832031.0
2.0,-1.0,1.0,5.0,1.0,1.0,1.0,0.0,1651086128832031.0
1.0,3.0,2.0,-4.0,-2.0,-2.0,-1.0,-2.0,1651086128834030.0
-1.0,-2.0,-9.0,-5.0,-3.0,-2.0,-2.0,-1.0,1651086128834030.0
-1.0,-2.0,-1.0,-4.0,-4.0,-2.0,-3.0,-1.0,1651086128854979.0
0.0,-1.0,1.0,1.0,3.0,-1.0,-1.0,0.0,1651086128854979.0
-1.0,0.0,2.0,4.0,4.0,5.0,0.0,1.0,1651086128856015.0
0.0,0.0,2.0,-3.0,-6.0,-4.0,-2.0,-2.0,1651086128856015.0
0.0,0.0,-2.0,1.0,1.0,1.0,0.0,-1.0,1651086128869937.0
-1.0,-2.0,-3.0,0.0,0.0,-1.0,0.0,-1.0,1651086128869937.0
-1.0,-1.0,-1.0,0.0,-1.0,0.0,0.0,0.0,1651086128870932.0
-1.0,0.0,-3.0,-2.0,-3.0,1.0,-1.0,-2.0,1651086128870932.0
-2.0,-3.0,-1.0,-4.0,-3.0,-2.0,1.0,-2.0,1651086128891946.0
-2.0,-2.0,1.0,2.0,4.0,0.0,0.0,0.0,1651086128891946.0
0.0,0.0,-3.0,-2.0,-4.0,-3.0,-1.0,-1.0,1651086128893897.0
-1.0,1.0,0.0,3.0,-2.0,0.0,-1.0,0.0,1651086128893897.0
1.0,2.0,4.0,3.0,4.0,0.0,-3.0,0.0,1651086128914923.0
-2.0,0.0,-6.0,-3.0,-4.0,0.0,0.0,0.0,1651086128914923.0
-1.0,1.0,0.0,1.0,3.0,1.0,0.0,-1.0,1651086128915872.0
1.0,-2.0,1.0,-5.0,-2.0,-2.0,-1.0,-1.0,1651086128915872.0
0.0,4.0,-1.0,1.0,-3.0,-1.0,-1.0,-1.0,1651086128929939.0
-3.0,-11.0,-1.0,-3.0,-5.0,-1.0,-2.0,0.0,1651086128929939.0
-2.0,3.0,5.0,1.0,3.0,0.0,-1.0,-1.0,1651086128931966.0
0.0,-1.0,-1.0,5.0,7.0,0.0,1.0,0.0,1651086128931966.0
-2.0,0.0,-2.0,0.0,2.0,1.0,-1.0,0.0,1651086128950979.0
1.0,2.0,-2.0,3.0,0.0,0.0,-1.0,0.0,1651086128950979.0
-1.0,0.0,-1.0,-2.0,-4.0,-3.0,-1.0,-2.0,1651086128960036.0
-1.0,-4.0,1.0,1.0,8.0,3.0,0.0,1.0,1651086128960036.0
0.0,2.0,1.0,0.0,-2.0,0.0,1.0,0.0,1651086128975223.0
-1.0,0.0,-4.0,-5.0,-5.0,-4.0,-1.0,-1.0,1651086128975223.0
1.0,-3.0,-1.0,-4.0,-2.0,0.0,-1.0,-2.0,1651086128976181.0
-1.0,2.0,3.0,3.0,4.0,1.0,-1.0,-1.0,1651086128976181.0
-1.0,-4.0,-2.0,1.0,2.0,2.0,0.0,1.0,1651086128997312.0
0.0,0.0,-2.0,2.0,6.0,2.0,-2.0,-1.0,1651086128997312.0
0.0,-1.0,-3.0,-3.0,-3.0,-4.0,0.0,0.0,1651086128998316.0
-1.0,0.0,-2.0,-4.0,-3.0,-2.0,-2.0,-1.0,1651086128998316.0
-2.0,-1.0,0.0,-3.0,-2.0,1.0,0.0,-2.0,1651086129010359.0
0.0,1.0,1.0,-2.0,-5.0,-3.0,-3.0,0.0,1651086129010359.0
0.0,1.0,-3.0,2.0,4.0,3.0,0.0,1.0,1651086129019260.0
-1.0,0.0,1.0,0.0,1.0,0.0,0.0,-1.0,1651086129019260.0
1.0,-2.0,0.0,-1.0,-3.0,-4.0,-3.0,-2.0,1651086129034448.0
2.0,0.0,0.0,-6.0,-5.0,-1.0,-1.0,0.0,1651086129034448.0
-2.0,-2.0,-1.0,-1.0,-2.0,0.0,0.0,0.0,1651086129036365.0
-1.0,2.0,2.0,2.0,-4.0,-3.0,0.0,-2.0,1651086129036365.0
-1.0,-11.0,-2.0,1.0,2.0,0.0,0.0,2.0,1651086129057413.0
-2.0,-1.0,1.0,-1.0,2.0,-1.0,-1.0,-1.0,1651086129057413.0
-2.0,-2.0,-7.0,-5.0,-4.0,-3.0,-3.0,-1.0,1651086129058417.0
1.0,0.0,2.0,-2.0,1.0,2.0,1.0,0.0,1651086129058417.0
1.0,1.0,0.0,-1.0,-2.0,2.0,-1.0,-2.0,1651086129071038.0
-1.0,-2.0,-1.0,-2.0,0.0,-1.0,0.0,-2.0,1651086129071038.0
0.0,0.0,1.0,7.0,3.0,0.0,0.0,1.0,1651086129080072.0
-3.0,-2.0,1.0,-4.0,-4.0,0.0,0.0,1.0,1651086129080072.0
2.0,0.0,0.0,1.0,0.0,-1.0,-1.0,0.0,1651086129094215.0
0.0,-1.0,0.0,-1.0,1.0,2.0,1.0,1.0,1651086129094215.0
-1.0,0.0,-4.0,-3.0,0.0,-1.0,0.0,-1.0,1651086129096139.0
0.0,-2.0,-5.0,-1.0,-5.0,-4.0,-2.0,1.0,1651086129096139.0
-1.0,2.0,4.0,0.0,8.0,3.0,1.0,2.0,1651086129124221.0
0.0,0.0,-3.0,-3.0,-6.0,-3.0,-1.0,-1.0,1651086129124221.0
0.0,1.0,9.0,1.0,-2.0,-1.0,-2.0,0.0,1651086129126177.0
2.0,2.0,-6.0,-7.0,-7.0,-3.0,-1.0,-1.0,1651086129126177.0
-2.0,-4.0,4.0,2.0,0.0,-1.0,0.0,-2.0,1651086129131164.0
-1.0,1.0,-8.0,1.0,-2.0,-1.0,2.0,0.0,1651086129131164.0
1.0,0.0,2.0,11.0,10.0,2.0,1.0,0.0,1651086129147119.0
0.0,-2.0,2.0,3.0,6.0,4.0,1.0,0.0,1651086129147119.0
-1.0,0.0,-6.0,-2.0,4.0,4.0,-1.0,-1.0,1651086129154141.0
-1.0,5.0,7.0,-3.0,-4.0,-6.0,-2.0,-1.0,1651086129154141.0
-1.0,-7.0,-5.0,-1.0,-3.0,-2.0,-1.0,0.0,1651086129156097.0
-3.0,0.0,-5.0,-6.0,-3.0,-1.0,2.0,-1.0,1651086129156097.0
-1.0,5.0,-1.0,-5.0,-13.0,-8.0,-3.0,-2.0,1651086129184245.0
1.0,-3.0,5.0,12.0,24.0,8.0,3.0,1.0,1651086129184245.0
0.0,0.0,3.0,1.0,-4.0,0.0,0.0,0.0,1651086129186143.0
-2.0,-3.0,5.0,1.0,1.0,-1.0,-2.0,-3.0,1651086129186143.0
-4.0,-1.0,-13.0,-6.0,-7.0,-4.0,-4.0,-1.0,1651086129190163.0
0.0,-3.0,-17.0,-12.0,-14.0,-5.0,-2.0,-4.0,1651086129190163.0
1.0,4.0,-1.0,0.0,5.0,-2.0,0.0,0.0,1651086129199142.0
-1.0,-16.0,0.0,5.0,5.0,1.0,-1.0,0.0,1651086129199142.0
-1.0,10.0,6.0,1.0,-5.0,-1.0,3.0,0.0,1651086129215293.0
-3.0,1.0,-2.0,3.0,11.0,3.0,-2.0,0.0,1651086129215293.0
0.0,-2.0,-1.0,5.0,5.0,4.0,1.0,1.0,1651086129216197.0
0.0,3.0,-1.0,-6.0,-9.0,-4.0,0.0,-1.0,1651086129216197.0
1.0,-2.0,0.0,3.0,-1.0,0.0,0.0,-1.0,1651086129245227.0
1.0,-5.0,-2.0,0.0,-1.0,0.0,-1.0,-2.0,1651086129245227.0
0.0,4.0,-2.0,-8.0,-10.0,-3.0,-1.0,-2.0,1651086129246161.0
0.0,1.0,3.0,4.0,2.0,-1.0,-2.0,0.0,1651086129246161.0
-1.0,-7.0,-6.0,-5.0,0.0,-3.0,-1.0,-1.0,1651086129250183.0
-3.0,1.0,8.0,1.0,-2.0,2.0,0.0,0.0,1651086129250183.0
-1.0,-4.0,-5.0,-6.0,-2.0,-1.0,-1.0,-1.0,1651086129259159.0
0.0,3.0,0.0,5.0,4.0,1.0,-1.0,-1.0,1651086129259159.0
0.0,1.0,-8.0,-8.0,0.0,2.0,2.0,-1.0,1651086129275341.0
1.0,-1.0,6.0,3.0,0.0,-1.0,-1.0,0.0,1651086129275341.0
-1.0,-2.0,0.0,-10.0,-11.0,-5.0,-1.0,-3.0,1651086129276283.0
-2.0,3.0,5.0,3.0,7.0,6.0,0.0,0.0,1651086129276283.0
0.0,-2.0,2.0,6.0,5.0,2.0,0.0,1.0,1651086129304172.0
0.0,3.0,5.0,-11.0,-15.0,-5.0,0.0,-1.0,1651086129304172.0
1.0,4.0,0.0,18.0,18.0,3.0,2.0,1.0,1651086129306167.0
0.0,-7.0,-11.0,-12.0,-7.0,0.0,-1.0,-2.0,1651086129306167.0
-2.0,7.0,5.0,8.0,23.0,13.0,4.0,2.0,1651086129319130.0
-1.0,-2.0,7.0,6.0,-2.0,-3.0,-2.0,-1.0,1651086129319130.0
-2.0,-3.0,-5.0,-8.0,2.0,2.0,-1.0,0.0,1651086129321125.0
3.0,2.0,-1.0,-1.0,-8.0,-5.0,-1.0,0.0,1651086129321125.0
-2.0,-15.0,2.0,-3.0,-9.0,-6.0,-2.0,-2.0,1651086129334123.0
0.0,-2.0,-7.0,-4.0,-1.0,-2.0,0.0,2.0,1651086129334123.0
-1.0,-4.0,4.0,-3.0,-5.0,-3.0,-3.0,-2.0,1651086129341077.0
-2.0,1.0,0.0,-2.0,-1.0,-1.0,-1.0,-1.0,1651086129341077.0
0.0,1.0,-5.0,-3.0,0.0,-3.0,0.0,-1.0,1651086129357034.0
-1.0,5.0,-1.0,-6.0,-9.0,-2.0,0.0,-1.0,1651086129357034.0
-2.0,-5.0,-6.0,-4.0,4.0,3.0,0.0,1.0,1651086129359025.0
-1.0,3.0,0.0,2.0,-5.0,-5.0,0.0,-2.0,1651086129359025.0
1.0,7.0,13.0,7.0,-2.0,-2.0,-2.0,-1.0,1651086129378971.0
0.0,-14.0,-20.0,10.0,11.0,6.0,1.0,0.0,1651086129378971.0
1.0,10.0,-11.0,-19.0,-20.0,-10.0,-1.0,-1.0,1651086129380968.0
-1.0,-8.0,5.0,-8.0,-9.0,-2.0,-1.0,-1.0,1651086129380968.0
0.0,4.0,0.0,19.0,35.0,9.0,0.0,1.0,1651086129393932.0
0.0,-2.0,1.0,18.0,16.0,8.0,2.0,0.0,1651086129393932.0
2.0,0.0,8.0,-12.0,-20.0,-3.0,0.0,0.0,1651086129395928.0
-3.0,11.0,-17.0,-7.0,4.0,-5.0,-3.0,-3.0,1651086129395928.0
2.0,12.0,2.0,-8.0,-16.0,-2.0,1.0,1.0,1651086129416967.0
0.0,-5.0,20.0,7.0,4.0,-1.0,-3.0,0.0,1651086129416967.0
-2.0,-2.0,0.0,15.0,2.0,1.0,-1.0,-1.0,1651086129418896.0
-1.0,-4.0,2.0,-2.0,-10.0,-5.0,-3.0,0.0,1651086129418896.0
-1.0,-5.0,-7.0,-11.0,-10.0,-4.0,-1.0,-1.0,1651086129439858.0
-1.0,5.0,-11.0,-14.0,-2.0,-1.0,0.0,-1.0,1651086129439858.0
-1.0,-4.0,5.0,-6.0,-13.0,-5.0,-2.0,-1.0,1651086129440807.0
1.0,3.0,0.0,6.0,8.0,3.0,1.0,1.0,1651086129440807.0
-1.0,-4.0,-5.0,-8.0,-8.0,-3.0,-3.0,-2.0,1651086129454864.0
1.0,-1.0,0.0,-3.0,8.0,3.0,3.0,0.0,1651086129454864.0
-1.0,8.0,-1.0,6.0,0.0,0.0,-2.0,-2.0,1651086129460788.0
-2.0,-10.0,5.0,15.0,20.0,5.0,1.0,1.0,1651086129460788.0
0.0,-17.0,-5.0,1.0,3.0,1.0,1.0,2.0,1651086129478285.0
-2.0,16.0,6.0,5.0,6.0,-3.0,-2.0,0.0,1651086129478285.0
1.0,12.0,13.0,-16.0,6.0,4.0,0.0,-2.0,1651086129479189.0
0.0,5.0,-11.0,12.0,-3.0,0.0,0.0,-1.0,1651086129479189.0
-1.0,-19.0,-14.0,-3.0,-5.0,0.0,0.0,-2.0,1651086129501178.0
2.0,11.0,21.0,-12.0,-21.0,-9.0,-3.0,-1.0,1651086129501178.0
-3.0,-13.0,-8.0,5.0,10.0,0.0,-2.0,0.0,1651086129502175.0
0.0,3.0,3.0,-13.0,-13.0,-7.0,-1.0,-1.0,1651086129502175.0
0.0,2.0,5.0,3.0,3.0,-2.0,-2.0,-2.0,1651086129514145.0
0.0,-5.0,-5.0,-6.0,-12.0,-3.0,-3.0,-1.0,1651086129514145.0
-1.0,-2.0,6.0,12.0,13.0,3.0,1.0,1.0,1651086129520129.0
-1.0,1.0,3.0,-10.0,-8.0,-3.0,0.0,-2.0,1651086129520129.0
-2.0,2.0,-4.0,-3.0,-7.0,-3.0,-2.0,-2.0,1651086129538045.0
-2.0,-2.0,-6.0,-2.0,-14.0,-3.0,-1.0,1.0,1651086129538045.0
0.0,3.0,3.0,-1.0,-9.0,-10.0,-2.0,-1.0,1651086129539046.0
0.0,-6.0,-8.0,7.0,39.0,18.0,5.0,1.0,1651086129539046.0
2.0,5.0,-5.0,-12.0,-11.0,-2.0,-1.0,1.0,1651086129559157.0
-2.0,-5.0,5.0,17.0,10.0,0.0,-1.0,-4.0,1651086129559157.0
-1.0,0.0,2.0,6.0,-4.0,-1.0,0.0,1.0,1651086129561159.0
-1.0,-6.0,-13.0,-17.0,-15.0,-8.0,-3.0,0.0,1651086129561159.0
-1.0,2.0,-3.0,-3.0,-13.0,-5.0,-1.0,-1.0,1651086129582246.0
0.0,-2.0,-1.0,-1.0,6.0,5.0,1.0,0.0,1651086129582246.0
0.0,-6.0,-16.0,-6.0,-1.0,1.0,0.0,-1.0,1651086129583186.0
2.0,4.0,2.0,-5.0,-14.0,-3.0,-2.0,1.0,1651086129583186.0
-2.0,2.0,18.0,0.0,15.0,2.0,-1.0,-3.0,1651086129597115.0
-2.0,-3.0,-5.0,-11.0,-18.0,-7.0,-1.0,-2.0,1651086129597115.0
-1.0,-3.0,-20.0,14.0,20.0,4.0,-1.0,0.0,1651086129598152.0
1.0,0.0,6.0,4.0,0.0,1.0,0.0,-1.0,1651086129598152.0
1.0,-2.0,-1.0,-4.0,-21.0,-8.0,-4.0,-1.0,1651086129620361.0
0.0,-5.0,-1.0,-4.0,9.0,3.0,1.0,0.0,1651086129620361.0
-2.0,-2.0,7.0,0.0,11.0,2.0,1.0,-2.0,1651086129621194.0
0.0,-4.0,-22.0,1.0,1.0,1.0,-1.0,0.0,1651086129621194.0
0.0,3.0,13.0,7.0,2.0,1.0,1.0,1.0,1651086129633245.0
0.0,2.0,12.0,1.0,-9.0,-7.0,-3.0,-3.0,1651086129633245.0
-1.0,-5.0,-29.0,-23.0,-19.0,-5.0,-2.0,-2.0,1651086129641739.0
0.0,2.0,7.0,11.0,4.0,7.0,4.0,1.0,1651086129641739.0
-1.0,2.0,-4.0,-6.0,-2.0,-3.0,-3.0,0.0,1651086129657328.0
0.0,-2.0,-45.0,-45.0,-5.0,0.0,-1.0,2.0,1651086129657328.0
1.0,2.0,69.0,43.0,-15.0,-6.0,-1.0,0.0,1651086129658331.0
-2.0,2.0,-5.0,15.0,5.0,-4.0,-1.0,-4.0,1651086129658331.0
0.0,-2.0,6.0,5.0,5.0,9.0,4.0,2.0,1651086129679075.0
0.0,0.0,-16.0,0.0,-12.0,-7.0,-6.0,-1.0,1651086129679075.0
3.0,2.0,-7.0,-12.0,9.0,5.0,2.0,3.0,1651086129681076.0
-3.0,-2.0,3.0,-17.0,-15.0,-6.0,-3.0,-1.0,1651086129681076.0
-2.0,-1.0,1.0,14.0,-12.0,-4.0,-1.0,-2.0,1651086129694117.0
1.0,0.0,9.0,19.0,23.0,6.0,2.0,2.0,1651086129694117.0
-2.0,0.0,4.0,6.0,-7.0,-4.0,-3.0,-5.0,1651086129701027.0
0.0,1.0,19.0,11.0,16.0,5.0,-2.0,-2.0,1651086129701027.0
3.0,-3.0,-21.0,-19.0,-5.0,-1.0,1.0,2.0,1651086129717377.0
-2.0,-3.0,14.0,2.0,-1.0,0.0,1.0,0.0,1651086129717377.0
-3.0,-3.0,-23.0,-13.0,-6.0,-2.0,0.0,0.0,1651086129718378.0
-1.0,-1.0,7.0,-5.0,6.0,-1.0,-1.0,1.0,1651086129718378.0
1.0,4.0,12.0,33.0,13.0,0.0,0.0,2.0,1651086129739282.0
-5.0,-6.0,-7.0,-33.0,-19.0,-10.0,-5.0,-5.0,1651086129739282.0
3.0,3.0,10.0,3.0,38.0,17.0,4.0,3.0,1651086129747191.0
-1.0,-2.0,-24.0,11.0,-2.0,-2.0,-1.0,1.0,1651086129747191.0
-3.0,-4.0,23.0,16.0,8.0,2.0,0.0,0.0,1651086129754173.0
2.0,2.0,-31.0,1.0,-1.0,-2.0,0.0,1.0,1651086129754173.0
-2.0,-5.0,-16.0,-15.0,-13.0,-5.0,-4.0,1.0,1651086129760190.0
1.0,2.0,37.0,6.0,-2.0,2.0,1.0,1.0,1651086129760190.0
-3.0,-5.0,-87.0,-38.0,2.0,1.0,-2.0,-2.0,1651086129777413.0
0.0,0.0,21.0,19.0,-5.0,-4.0,-4.0,0.0,1651086129777413.0
1.0,4.0,20.0,-3.0,-3.0,0.0,0.0,1.0,1651086129778416.0
-1.0,-4.0,-11.0,5.0,1.0,-1.0,0.0,-2.0,1651086129778416.0
0.0,2.0,0.0,-10.0,4.0,3.0,4.0,0.0,1651086129799155.0
-3.0,-3.0,16.0,-5.0,-2.0,0.0,0.0,-2.0,1651086129799155.0
2.0,-2.0,7.0,6.0,-2.0,0.0,1.0,2.0,1651086129801158.0
-3.0,-3.0,16.0,4.0,-5.0,-5.0,-5.0,-6.0,1651086129801158.0
0.0,1.0,-2.0,-9.0,-4.0,-9.0,-5.0,-4.0,1651086129813177.0
1.0,0.0,-8.0,7.0,8.0,18.0,7.0,4.0,1651086129813177.0
1.0,-3.0,-30.0,-13.0,-3.0,-2.0,-1.0,-1.0,1651086129822313.0
-2.0,0.0,25.0,-8.0,0.0,9.0,8.0,1.0,1651086129822313.0
-3.0,-7.0,-23.0,-1.0,-2.0,-8.0,-7.0,-1.0,1651086129837364.0
-1.0,3.0,33.0,28.0,6.0,-4.0,-6.0,-1.0,1651086129837364.0
-3.0,-1.0,4.0,3.0,-5.0,-1.0,3.0,1.0,1651086129838364.0
6.0,2.0,10.0,12.0,-4.0,1.0,-1.0,0.0,1651086129838364.0
-6.0,-2.0,-37.0,-21.0,-2.0,1.0,6.0,-5.0,1651086129860204.0
-4.0,3.0,21.0,1.0,-3.0,-7.0,-7.0,6.0,1651086129860204.0
8.0,2.0,-2.0,-1.0,-5.0,-3.0,-2.0,-2.0,1651086129861173.0
0.0,-1.0,-16.0,-15.0,-6.0,-12.0,-8.0,-2.0,1651086129861173.0
-1.0,-2.0,-10.0,-3.0,4.0,12.0,6.0,19.0,1651086129874221.0
-5.0,-2.0,-7.0,-13.0,-2.0,-3.0,2.0,-17.0,1651086129874221.0
7.0,5.0,22.0,35.0,6.0,3.0,0.0,0.0,1651086129889174.0
1.0,-8.0,-2.0,-19.0,-5.0,-6.0,-3.0,7.0,1651086129889174.0
-7.0,1.0,19.0,21.0,4.0,3.0,0.0,-3.0,1651086129897322.0
7.0,6.0,-15.0,-16.0,-12.0,-4.0,1.0,4.0,1651086129897322.0
-15.0,-2.0,18.0,3.0,18.0,3.0,-1.0,-7.0,1651086129898325.0
9.0,-1.0,-27.0,-11.0,0.0,-3.0,0.0,2.0,1651086129898325.0
2.0,6.0,49.0,9.0,0.0,8.0,4.0,2.0,1651086129927411.0
1.0,-2.0,-22.0,-22.0,-8.0,0.0,0.0,-4.0,1651086129927411.0
-7.0,-3.0,0.0,30.0,0.0,0.0,1.0,2.0,1651086129928416.0
3.0,-1.0,-22.0,-9.0,2.0,0.0,-1.0,2.0,1651086129928416.0
6.0,6.0,28.0,11.0,1.0,-8.0,-3.0,-4.0,1651086129933431.0
3.0,3.0,15.0,13.0,20.0,1.0,1.0,5.0,1651086129933431.0
8.0,0.0,-4.0,-21.0,-8.0,1.0,3.0,12.0,1651086129942377.0
-14.0,-2.0,-24.0,6.0,-4.0,-2.0,-6.0,-31.0,1651086129942377.0
0.0,-6.0,-26.0,-24.0,-7.0,-3.0,-5.0,-11.0,1651086129957563.0
-1.0,9.0,28.0,33.0,6.0,-1.0,2.0,1.0,1651086129957563.0
-3.0,-12.0,-37.0,-14.0,-8.0,-7.0,-4.0,1.0,1651086129963459.0
-6.0,4.0,1.0,-2.0,-1.0,0.0,2.0,10.0,1651086129963459.0
-7.0,-7.0,0.0,1.0,-3.0,-2.0,-4.0,-16.0,1651086129979073.0
-5.0,-1.0,-9.0,0.0,3.0,2.0,-3.0,-2.0,1651086129979073.0
12.0,-7.0,16.0,10.0,-3.0,-3.0,-2.0,2.0,1651086129981074.0
6.0,9.0,-16.0,-19.0,10.0,-3.0,-3.0,2.0,1651086129981074.0
5.0,4.0,23.0,19.0,-1.0,4.0,5.0,3.0,1651086129994091.0
-4.0,-4.0,12.0,-4.0,-3.0,-1.0,1.0,2.0,1651086129994091.0
-6.0,-13.0,-30.0,-22.0,-9.0,-5.0,-1.0,-4.0,1651086130002051.0
-2.0,1.0,26.0,30.0,6.0,5.0,0.0,-9.0,1651086130002051.0
1.0,1.0,15.0,10.0,6.0,-3.0,-2.0,0.0,1651086130025231.0
-1.0,-2.0,-13.0,-8.0,1.0,4.0,4.0,1.0,1651086130025231.0
1.0,5.0,30.0,14.0,-2.0,-3.0,-5.0,-6.0,1651086130026194.0
5.0,-1.0,-31.0,-13.0,-11.0,-1.0,3.0,6.0,1651086130026194.0
-6.0,5.0,29.0,12.0,11.0,7.0,5.0,2.0,1651086130040213.0
0.0,-4.0,6.0,15.0,-3.0,-5.0,-6.0,3.0,1651086130040213.0
-4.0,-1.0,-13.0,-14.0,7.0,6.0,6.0,4.0,1651086130041223.0
4.0,0.0,30.0,12.0,-4.0,-2.0,1.0,8.0,1651086130041223.0
7.0,-1.0,-19.0,-29.0,-11.0,-7.0,0.0,-12.0,1651086130062206.0
-5.0,6.0,-6.0,8.0,4.0,-2.0,-3.0,9.0,1651086130062206.0
-4.0,-6.0,12.0,-15.0,-5.0,2.0,-1.0,-3.0,1651086130063174.0
-5.0,6.0,31.0,4.0,7.0,0.0,-3.0,-4.0,1651086130063174.0
5.0,-8.0,-42.0,-4.0,-5.0,-3.0,-3.0,10.0,1651086130078484.0
1.0,-4.0,-4.0,13.0,2.0,1.0,1.0,-8.0,1651086130078484.0
-2.0,11.0,-1.0,-9.0,-7.0,-5.0,-4.0,-12.0,1651086130079073.0
-3.0,0.0,21.0,18.0,0.0,3.0,4.0,3.0,1651086130079073.0
-1.0,2.0,-2.0,-8.0,-4.0,-2.0,-3.0,-1.0,1651086130099064.0
5.0,-6.0,-24.0,-8.0,0.0,2.0,3.0,3.0,1651086130099064.0
-1.0,6.0,-3.0,5.0,9.0,1.0,-1.0,-1.0,1651086130107005.0
2.0,-10.0,-15.0,-16.0,-11.0,-2.0,-3.0,0.0,1651086130107005.0
5.0,1.0,-12.0,-10.0,-1.0,-1.0,2.0,9.0,1651086130112993.0
7.0,1.0,-1.0,11.0,7.0,4.0,-2.0,-10.0,1651086130112993.0
-6.0,-14.0,-12.0,-14.0,-6.0,0.0,2.0,1.0,1651086130121967.0
3.0,-3.0,17.0,5.0,-1.0,-1.0,1.0,1.0,1651086130121967.0
-6.0,4.0,24.0,11.0,0.0,-5.0,-7.0,-1.0,1651086130136925.0
3.0,0.0,12.0,-1.0,5.0,6.0,11.0,19.0,1651086130136925.0
-3.0,-1.0,-46.0,-14.0,-7.0,-5.0,-10.0,-24.0,1651086130138956.0
-4.0,-6.0,-30.0,-30.0,-5.0,1.0,3.0,11.0,1651086130138956.0
1.0,-4.0,46.0,50.0,7.0,5.0,0.0,5.0,1651086130167885.0
-1.0,-6.0,17.0,4.0,1.0,-2.0,-2.0,-9.0,1651086130167885.0
3.0,5.0,5.0,-5.0,-2.0,0.0,3.0,13.0,1651086130168921.0
-4.0,0.0,-3.0,10.0,3.0,-1.0,-4.0,-11.0,1651086130168921.0
-1.0,2.0,-2.0,-1.0,4.0,1.0,1.0,7.0,1651086130172908.0
4.0,7.0,-26.0,-24.0,-13.0,-8.0,-5.0,-8.0,1651086130172908.0
-3.0,-4.0,-2.0,10.0,5.0,0.0,9.0,18.0,1651086130181854.0
-1.0,4.0,-5.0,2.0,-4.0,-1.0,-8.0,-6.0,1651086130181854.0
-1.0,2.0,-5.0,-18.0,0.0,-1.0,-2.0,-6.0,1651086130197321.0
-5.0,-10.0,11.0,-1.0,-5.0,3.0,1.0,-10.0,1651086130197321.0
4.0,10.0,-9.0,-12.0,1.0,1.0,2.0,7.0,1651086130198323.0
1.0,0.0,23.0,15.0,2.0,3.0,8.0,1.0,1651086130198323.0
-2.0,-8.0,-36.0,-28.0,-11.0,-8.0,-7.0,-6.0,1651086130219427.0
2.0,4.0,24.0,8.0,1.0,-1.0,2.0,5.0,1651086130219427.0
2.0,-8.0,-18.0,-1.0,3.0,2.0,-5.0,-14.0,1651086130221451.0
-5.0,-5.0,-3.0,-7.0,-4.0,-4.0,2.0,5.0,1651086130221451.0
4.0,2.0,54.0,9.0,1.0,3.0,0.0,-3.0,1651086130233484.0
6.0,-4.0,-71.0,-34.0,-7.0,-3.0,0.0,7.0,1651086130233484.0
3.0,4.0,38.0,26.0,2.0,2.0,4.0,15.0,1651086130241760.0
-9.0,5.0,7.0,11.0,0.0,-3.0,-7.0,-39.0,1651086130241760.0
3.0,-7.0,-9.0,-7.0,-7.0,-2.0,-3.0,-3.0,1651086130258059.0
5.0,2.0,3.0,-2.0,6.0,-3.0,1.0,3.0,1651086130258059.0
-6.0,5.0,15.0,0.0,-4.0,-1.0,-5.0,3.0,1651086130258873.0
0.0,-11.0,-33.0,-14.0,-5.0,-5.0,-4.0,6.0,1651086130258873.0
-5.0,0.0,0.0,-4.0,-1.0,-2.0,-3.0,3.0,1651086130279936.0
-9.0,-4.0,0.0,4.0,3.0,7.0,4.0,-2.0,1651086130279936.0
3.0,3.0,-26.0,-16.0,-4.0,-5.0,-4.0,-5.0,1651086130280933.0
9.0,6.0,38.0,21.0,3.0,2.0,5.0,17.0,1651086130280933.0
-3.0,-16.0,-41.0,-29.0,7.0,2.0,1.0,-4.0,1651086130302044.0
-5.0,4.0,16.0,4.0,-6.0,-3.0,-1.0,-1.0,1651086130302044.0
-1.0,9.0,8.0,0.0,-2.0,-5.0,-3.0,-4.0,1651086130304007.0
-3.0,-4.0,-31.0,-14.0,-4.0,0.0,-2.0,-9.0,1651086130304007.0
-1.0,-5.0,5.0,9.0,-3.0,-2.0,-3.0,5.0,1651086130317070.0
5.0,-4.0,8.0,5.0,-3.0,0.0,-3.0,-11.0,1651086130317070.0
-3.0,-5.0,-22.0,-3.0,7.0,2.0,3.0,3.0,1651086130318967.0
4.0,9.0,2.0,-20.0,-7.0,-2.0,0.0,-4.0,1651086130318967.0
2.0,1.0,-15.0,21.0,6.0,0.0,1.0,-6.0,1651086130340004.0
-5.0,-4.0,17.0,21.0,5.0,-1.0,0.0,13.0,1651086130340004.0
-1.0,0.0,15.0,-2.0,-4.0,0.0,-2.0,-12.0,1651086130340908.0
5.0,2.0,2.0,8.0,5.0,3.0,3.0,25.0,1651086130340908.0
-3.0,-1.0,0.0,1.0,-1.0,2.0,2.0,-13.0,1651086130361880.0
-2.0,4.0,8.0,-1.0,-3.0,-2.0,0.0,-4.0,1651086130361880.0
4.0,2.0,13.0,8.0,1.0,-3.0,-3.0,-2.0,1651086130363873.0
-7.0,-1.0,9.0,10.0,7.0,2.0,2.0,7.0,1651086130363873.0
7.0,7.0,13.0,1.0,-1.0,2.0,3.0,16.0,1651086130377364.0
-6.0,-2.0,-27.0,-23.0,-6.0,-5.0,-8.0,-12.0,1651086130377364.0
-1.0,-5.0,14.0,17.0,1.0,-1.0,-4.0,-23.0,1651086130378386.0
-1.0,-1.0,4.0,-5.0,1.0,2.0,1.0,3.0,1651086130378386.0
0.0,5.0,8.0,9.0,-3.0,-4.0,-3.0,0.0,1651086130400175.0
0.0,-5.0,-26.0,-14.0,1.0,0.0,1.0,4.0,1651086130400175.0
0.0,-7.0,-5.0,4.0,-7.0,-5.0,-2.0,-7.0,1651086130401162.0
-1.0,1.0,-26.0,-15.0,-7.0,-3.0,-3.0,0.0,1651086130401162.0
-3.0,2.0,14.0,9.0,8.0,6.0,0.0,-4.0,1651086130422358.0
-2.0,-6.0,12.0,2.0,-4.0,0.0,-2.0,6.0,1651086130422358.0
-4.0,15.0,-7.0,-17.0,5.0,2.0,0.0,-2.0,1651086130423110.0
-9.0,-14.0,-15.0,11.0,-9.0,-2.0,-2.0,-3.0,1651086130423110.0
4.0,-2.0,8.0,5.0,1.0,-3.0,3.0,14.0,1651086130444163.0
-2.0,-5.0,-3.0,7.0,5.0,0.0,0.0,-3.0,1651086130444163.0
-10.0,-8.0,-3.0,-33.0,-15.0,-5.0,-5.0,-29.0,1651086130446114.0
2.0,5.0,20.0,4.0,10.0,6.0,3.0,-3.0,1651086130446114.0
-3.0,1.0,-17.0,-15.0,-5.0,-7.0,-5.0,-3.0,1651086130459126.0
-2.0,1.0,-2.0,21.0,2.0,0.0,-5.0,-7.0,1651086130459126.0
2.0,-3.0,2.0,0.0,1.0,1.0,2.0,10.0,1651086130461129.0
8.0,0.0,-4.0,0.0,-1.0,-2.0,-6.0,-11.0,1651086130461129.0
-4.0,1.0,-24.0,-25.0,-7.0,2.0,5.0,14.0,1651086130482359.0
0.0,5.0,20.0,25.0,2.0,1.0,0.0,-9.0,1651086130482359.0
1.0,4.0,32.0,24.0,3.0,4.0,1.0,9.0,1651086130483109.0
-3.0,0.0,-33.0,-17.0,0.0,1.0,2.0,-2.0,1651086130483109.0
3.0,-5.0,16.0,11.0,-4.0,-5.0,-6.0,-8.0,1651086130504175.0
2.0,6.0,10.0,-6.0,-7.0,-4.0,-1.0,0.0,1651086130504175.0
5.0,-3.0,-28.0,-15.0,2.0,5.0,6.0,14.0,1651086130506126.0
-8.0,-12.0,15.0,13.0,-4.0,-7.0,-4.0,-3.0,1651086130506126.0
0.0,16.0,3.0,-2.0,-2.0,0.0,2.0,-4.0,1651086130519138.0
-3.0,-14.0,-21.0,13.0,1.0,0.0,0.0,5.0,1651086130519138.0
2.0,-4.0,-32.0,-20.0,-3.0,0.0,-4.0,-13.0,1651086130521085.0
0.0,-13.0,-28.0,-16.0,1.0,4.0,6.0,1.0,1651086130521085.0
-6.0,11.0,38.0,28.0,5.0,-1.0,-2.0,-5.0,1651086130542079.0
-4.0,9.0,16.0,-7.0,1.0,2.0,0.0,-7.0,1651086130542079.0
-1.0,1.0,-11.0,-3.0,-8.0,-4.0,3.0,10.0,1651086130543073.0
9.0,-1.0,-2.0,12.0,7.0,-1.0,-1.0,2.0,1651086130543073.0
-8.0,-7.0,-14.0,0.0,5.0,2.0,-1.0,-19.0,1651086130556043.0
4.0,-2.0,-12.0,-47.0,-13.0,-3.0,-3.0,2.0,1651086130556043.0
-5.0,-8.0,39.0,41.0,13.0,1.0,-1.0,11.0,1651086130562972.0
1.0,8.0,-14.0,-10.0,0.0,2.0,2.0,3.0,1651086130562972.0
3.0,1.0,8.0,11.0,0.0,-2.0,1.0,8.0,1651086130578963.0
-8.0,-2.0,-37.0,-32.0,-8.0,-4.0,3.0,14.0,1651086130578963.0
4.0,-4.0,1.0,5.0,0.0,-1.0,-18.0,-36.0,1651086130580962.0
-1.0,3.0,26.0,6.0,-2.0,-2.0,5.0,34.0,1651086130580962.0
1.0,-2.0,-14.0,-18.0,-1.0,1.0,3.0,6.0,1651086130602038.0
1.0,-3.0,1.0,11.0,7.0,4.0,-2.0,-8.0,1651086130602038.0
-2.0,8.0,17.0,28.0,3.0,-1.0,3.0,-1.0,1651086130604041.0
3.0,5.0,20.0,12.0,-2.0,-6.0,-5.0,-3.0,1651086130604041.0
0.0,-10.0,16.0,19.0,1.0,4.0,-1.0,-1.0,1651086130617097.0
0.0,5.0,-10.0,-23.0,-3.0,-6.0,0.0,4.0,1651086130617097.0
1.0,1.0,-9.0,-10.0,-5.0,-3.0,3.0,0.0,1651086130622989.0
5.0,-1.0,26.0,-16.0,8.0,6.0,-1.0,1.0,1651086130622989.0
-6.0,-3.0,-23.0,18.0,-3.0,-7.0,-7.0,-9.0,1651086130640110.0
2.0,-1.0,30.0,19.0,8.0,6.0,4.0,-2.0,1651086130640110.0
8.0,6.0,14.0,9.0,7.0,7.0,3.0,9.0,1651086130641114.0
-8.0,-3.0,-21.0,-16.0,-17.0,-8.0,-7.0,-8.0,1651086130641114.0
2.0,-12.0,-10.0,-28.0,-8.0,-1.0,2.0,3.0,1651086130661228.0
-5.0,3.0,10.0,21.0,12.0,4.0,3.0,11.0,1651086130661228.0
-5.0,-10.0,-6.0,-10.0,-12.0,-13.0,-11.0,-46.0,1651086130668212.0
-3.0,1.0,-40.0,-9.0,1.0,2.0,5.0,-12.0,1651086130668212.0
8.0,0.0,12.0,9.0,-12.0,-9.0,-3.0,19.0,1651086130677357.0
-1.0,1.0,-1.0,3.0,2.0,1.0,12.0,2.0,1651086130677357.0
-9.0,-2.0,9.0,12.0,3.0,1.0,-12.0,-21.0,1651086130691269.0
-1.0,-1.0,5.0,-4.0,-2.0,-4.0,-5.0,9.0,1651086130691269.0
1.0,10.0,11.0,2.0,7.0,4.0,3.0,-7.0,1651086130700261.0
-2.0,-3.0,37.0,24.0,3.0,-2.0,-1.0,8.0,1651086130700261.0
-2.0,-13.0,-68.0,-33.0,-10.0,-2.0,9.0,24.0,1651086130701204.0
-1.0,15.0,-14.0,-11.0,-3.0,1.0,-3.0,-18.0,1651086130701204.0
-3.0,-2.0,-4.0,-5.0,1.0,4.0,4.0,-4.0,1651086130722041.0
1.0,4.0,8.0,-5.0,-6.0,-3.0,-3.0,0.0,1651086130722041.0
9.0,3.0,5.0,-13.0,11.0,8.0,10.0,17.0,1651086130723043.0
0.0,-8.0,20.0,18.0,-3.0,-1.0,1.0,-5.0,1651086130723043.0
-5.0,13.0,10.0,-10.0,-5.0,-6.0,-6.0,-2.0,1651086130737093.0
5.0,-3.0,-12.0,20.0,-2.0,-2.0,-3.0,-8.0,1651086130737093.0
-10.0,-17.0,-37.0,-25.0,2.0,0.0,-2.0,2.0,1651086130743025.0
-6.0,-8.0,-5.0,8.0,7.0,4.0,7.0,12.0,1651086130743025.0
5.0,9.0,21.0,-5.0,-1.0,-1.0,3.0,4.0,1651086130760282.0
-2.0,-4.0,-1.0,2.0,-3.0,-4.0,-4.0,-8.0,1651086130760282.0
0.0,4.0,-4.0,-8.0,-1.0,4.0,4.0,12.0,1651086130761111.0
1.0,-7.0,2.0,16.0,2.0,-4.0,-8.0,-12.0,1651086130761111.0
1.0,-11.0,-13.0,10.0,0.0,0.0,-2.0,9.0,1651086130782215.0
-2.0,10.0,-8.0,-44.0,4.0,0.0,-5.0,-9.0,1651086130782215.0
-1.0,-4.0,18.0,1.0,-8.0,-5.0,3.0,14.0,1651086130783150.0
-4.0,4.0,17.0,15.0,0.0,3.0,0.0,-12.0,1651086130783150.0
1.0,4.0,4.0,-1.0,4.0,0.0,-1.0,-7.0,1651086130796088.0
-5.0,-4.0,11.0,0.0,-7.0,-1.0,-4.0,-5.0,1651086130796088.0
3.0,1.0,15.0,8.0,6.0,0.0,2.0,24.0,1651086130805060.0
-5.0,3.0,-7.0,-3.0,1.0,6.0,5.0,-10.0,1651086130805060.0
1.0,-4.0,-4.0,-8.0,-4.0,-7.0,-5.0,-5.0,1651086130819918.0
6.0,-1.0,-13.0,12.0,2.0,1.0,0.0,2.0,1651086130819918.0
-4.0,3.0,-2.0,-17.0,-10.0,-5.0,-2.0,0.0,1651086130820920.0
3.0,6.0,36.0,22.0,-6.0,-9.0,-8.0,5.0,1651086130820920.0
-2.0,-19.0,-56.0,-15.0,6.0,6.0,1.0,-10.0,1651086130841912.0
3.0,15.0,5.0,-10.0,-6.0,0.0,3.0,14.0,1651086130841912.0
7.0,4.0,9.0,4.0,6.0,1.0,0.0,-3.0,1651086130843858.0
-4.0,-16.0,1.0,-19.0,-7.0,-2.0,0.0,3.0,1651086130843858.0
-4.0,5.0,3.0,6.0,3.0,-2.0,-2.0,2.0,1651086130855874.0
3.0,-1.0,6.0,16.0,-4.0,-4.0,-4.0,-1.0,1651086130855874.0
-5.0,5.0,2.0,-7.0,-3.0,3.0,2.0,-1.0,1651086130864803.0
4.0,1.0,3.0,16.0,10.0,1.0,-1.0,1.0,1651086130864803.0
-1.0,2.0,16.0,5.0,1.0,3.0,5.0,20.0,1651086130879758.0
-4.0,-11.0,-20.0,3.0,-3.0,1.0,-1.0,-34.0,1651086130879758.0
-2.0,3.0,7.0,15.0,-1.0,-5.0,-5.0,1.0,1651086130880762.0
1.0,1.0,11.0,-10.0,-4.0,1.0,-1.0,2.0,1651086130880762.0
-5.0,-8.0,-54.0,-32.0,-2.0,1.0,5.0,2.0,1651086130910331.0
3.0,2.0,8.0,-19.0,-8.0,-6.0,-3.0,1.0,1651086130910331.0
0.0,-2.0,7.0,13.0,0.0,3.0,0.0,6.0,1651086130910811.0
-1.0,7.0,3.0,-4.0,-2.0,-2.0,5.0,3.0,1651086130910811.0
-3.0,5.0,7.0,3.0,0.0,-1.0,-7.0,-9.0,1651086130915837.0
6.0,3.0,10.0,8.0,6.0,6.0,2.0,1.0,1651086130915837.0
-2.0,-6.0,2.0,5.0,-5.0,-2.0,-1.0,-4.0,1651086130924816.0
-3.0,-15.0,-18.0,-14.0,-5.0,-1.0,-3.0,12.0,1651086130924816.0
8.0,23.0,12.0,5.0,6.0,6.0,6.0,-9.0,1651086130940830.0
-1.0,-2.0,10.0,2.0,3.0,1.0,2.0,8.0,1651086130940830.0
1.0,-9.0,6.0,20.0,1.0,-4.0,-2.0,1.0,1651086130941735.0
-1.0,6.0,-21.0,-12.0,-9.0,-5.0,1.0,-6.0,1651086130941735.0
-2.0,-12.0,11.0,13.0,8.0,1.0,-2.0,-4.0,1651086130961804.0
-5.0,-14.0,-35.0,-27.0,2.0,4.0,1.0,-3.0,1651086130961804.0
4.0,9.0,1.0,-1.0,-8.0,0.0,1.0,5.0,1651086130963738.0
1.0,3.0,22.0,29.0,22.0,3.0,1.0,-2.0,1651086130963738.0
-3.0,-4.0,-6.0,-2.0,-10.0,-4.0,-1.0,-6.0,1651086130975781.0
-3.0,1.0,-2.0,8.0,1.0,0.0,-1.0,0.0,1651086130975781.0
-1.0,5.0,4.0,-22.0,-7.0,-4.0,-1.0,-3.0,1651086130984680.0
4.0,6.0,-6.0,1.0,11.0,5.0,-2.0,-1.0,1651086130984680.0
-4.0,-3.0,-2.0,-6.0,-18.0,-8.0,-2.0,9.0,1651086130999870.0
2.0,-3.0,9.0,11.0,24.0,8.0,2.0,4.0,1651086130999870.0
-2.0,-1.0,-16.0,-11.0,-8.0,-6.0,-1.0,-8.0,1651086131000809.0
2.0,-7.0,-2.0,-8.0,-8.0,-4.0,-14.0,-9.0,1651086131000809.0
2.0,9.0,7.0,-3.0,-3.0,-4.0,0.0,2.0,1651086131022361.0
-3.0,-3.0,-18.0,-4.0,-2.0,1.0,1.0,-3.0,1651086131022361.0
-2.0,7.0,16.0,7.0,5.0,2.0,2.0,2.0,1651086131023091.0
-1.0,-4.0,-7.0,0.0,-7.0,-2.0,7.0,10.0,1651086131023091.0
-2.0,-1.0,2.0,-1.0,5.0,3.0,-8.0,-20.0,1651086131036095.0
-2.0,-2.0,-13.0,-18.0,-12.0,-4.0,-3.0,4.0,1651086131036095.0
0.0,-1.0,17.0,22.0,8.0,4.0,5.0,8.0,1651086131045036.0
-1.0,-1.0,-3.0,-11.0,-9.0,-3.0,-4.0,-11.0,1651086131045036.0
-1.0,-13.0,-3.0,-1.0,-3.0,0.0,0.0,0.0,1651086131059910.0
1.0,8.0,6.0,1.0,-4.0,-2.0,3.0,0.0,1651086131059910.0
-1.0,-1.0,-9.0,4.0,1.0,1.0,-2.0,-4.0,1651086131060915.0
2.0,13.0,11.0,0.0,1.0,1.0,3.0,1.0,1651086131060915.0
-2.0,-24.0,-5.0,2.0,0.0,1.0,0.0,0.0,1651086131081931.0
-1.0,12.0,2.0,-1.0,-4.0,-3.0,-4.0,-3.0,1651086131081931.0
-1.0,-2.0,6.0,3.0,2.0,-1.0,-3.0,-1.0,1651086131083882.0
-3.0,-1.0,-8.0,-4.0,-6.0,1.0,-1.0,-7.0,1651086131083882.0
0.0,4.0,-2.0,-1.0,8.0,4.0,0.0,5.0,1651086131095818.0
0.0,-11.0,-2.0,1.0,-6.0,-4.0,-1.0,0.0,1651086131095818.0
0.0,6.0,2.0,-1.0,-8.0,-5.0,-2.0,1.0,1651086131104797.0
-4.0,-12.0,-6.0,2.0,12.0,6.0,3.0,2.0,1651086131104797.0
-1.0,10.0,3.0,-4.0,0.0,-1.0,-1.0,-2.0,1651086131119821.0
-3.0,-4.0,-7.0,5.0,-2.0,-3.0,-2.0,-7.0,1651086131119821.0
-2.0,-6.0,0.0,-11.0,-6.0,-3.0,-3.0,1.0,1651086131120820.0
-1.0,-19.0,-20.0,-8.0,0.0,-2.0,-4.0,-2.0,1651086131120820.0
-2.0,8.0,10.0,7.0,4.0,3.0,1.0,-2.0,1651086131141999.0
1.0,-6.0,1.0,3.0,1.0,1.0,0.0,3.0,1651086131141999.0
3.0,8.0,1.0,3.0,-2.0,-4.0,2.0,5.0,1651086131144001.0
-3.0,-4.0,-5.0,-4.0,-5.0,0.0,-2.0,-3.0,1651086131144001.0
1.0,-5.0,-4.0,0.0,-3.0,-1.0,2.0,2.0,1651086131156043.0
1.0,1.0,-3.0,-2.0,-4.0,-5.0,-5.0,-7.0,1651086131156043.0
-1.0,-1.0,4.0,1.0,5.0,2.0,1.0,0.0,1651086131164943.0
-1.0,0.0,2.0,-2.0,-2.0,-4.0,-1.0,4.0,1651086131164943.0
0.0,-14.0,-2.0,-1.0,-4.0,-4.0,7.0,3.0,1651086131178964.0
-1.0,10.0,8.0,1.0,1.0,6.0,3.0,3.0,1651086131178964.0
1.0,5.0,-7.0,0.0,6.0,1.0,-7.0,-20.0,1651086131180967.0
-1.0,6.0,3.0,-1.0,-2.0,1.0,4.0,11.0,1651086131180967.0
-2.0,-14.0,-4.0,-1.0,0.0,-2.0,-8.0,-4.0,1651086131202069.0
-4.0,7.0,0.0,1.0,-3.0,-3.0,-1.0,-1.0,1651086131202069.0
8.0,7.0,3.0,1.0,3.0,2.0,2.0,2.0,1651086131204027.0
-3.0,-4.0,-7.0,-3.0,-4.0,-1.0,1.0,-5.0,1651086131204027.0
2.0,7.0,13.0,3.0,-6.0,-5.0,-2.0,0.0,1651086131226000.0
-2.0,-11.0,-18.0,-6.0,-1.0,-2.0,2.0,1.0,1651086131226000.0
-3.0,-6.0,-7.0,4.0,2.0,4.0,1.0,-3.0,1651086131227963.0
1.0,6.0,15.0,-8.0,-2.0,-2.0,-2.0,-2.0,1651086131227963.0
-2.0,-2.0,-1.0,3.0,2.0,1.0,2.0,1.0,1651086131240024.0
1.0,-3.0,2.0,-4.0,-4.0,-1.0,-3.0,0.0,1651086131240024.0
-2.0,1.0,3.0,2.0,-3.0,-2.0,0.0,1.0,1651086131240928.0
-1.0,2.0,4.0,6.0,5.0,1.0,0.0,-1.0,1651086131240928.0
-2.0,5.0,1.0,-6.0,-1.0,-3.0,1.0,0.0,1651086131262098.0
0.0,0.0,-4.0,-6.0,3.0,-1.0,-1.0,-1.0,1651086131262098.0
-2.0,-15.0,-11.0,-3.0,1.0,1.0,1.0,0.0,1651086131263993.0
0.0,4.0,1.0,7.0,-4.0,-3.0,-1.0,-1.0,1651086131263993.0
-1.0,13.0,-2.0,-5.0,-1.0,2.0,-2.0,-1.0,1651086131285109.0
-1.0,-8.0,-8.0,2.0,0.0,3.0,0.0,-1.0,1651086131285109.0
-1.0,0.0,11.0,-1.0,-5.0,-3.0,0.0,-1.0,1651086131286014.0
0.0,-6.0,-9.0,-5.0,5.0,3.0,2.0,-1.0,1651086131286014.0
-6.0,8.0,4.0,4.0,1.0,1.0,0.0,-1.0,1651086131300070.0
3.0,-2.0,-2.0,-3.0,-6.0,-4.0,-3.0,-1.0,1651086131300070.0
-1.0,-6.0,-3.0,3.0,-2.0,0.0,-1.0,1.0,1651086131300974.0
-3.0,6.0,9.0,-1.0,1.0,3.0,2.0,-1.0,1651086131300974.0
1.0,-3.0,-8.0,-4.0,-3.0,2.0,-2.0,-2.0,1651086131322222.0
-3.0,-3.0,1.0,-1.0,-2.0,0.0,0.0,-1.0,1651086131322222.0
-2.0,5.0,2.0,2.0,2.0,-2.0,-1.0,-1.0,1651086131323186.0
0.0,-2.0,0.0,1.0,-1.0,0.0,-1.0,0.0,1651086131323186.0
1.0,-3.0,-3.0,-4.0,1.0,1.0,1.0,-1.0,1651086131345246.0
-2.0,3.0,1.0,3.0,1.0,-2.0,-1.0,-2.0,1651086131345246.0
-2.0,0.0,-10.0,-4.0,-3.0,1.0,0.0,-1.0,1651086131346162.0
1.0,1.0,1.0,-1.0,-2.0,-1.0,-1.0,-3.0,1651086131346162.0
-1.0,-22.0,-7.0,-3.0,-2.0,-2.0,-2.0,1.0,1651086131359167.0
0.0,20.0,8.0,-1.0,-7.0,-4.0,-3.0,-1.0,1651086131359167.0
0.0,-5.0,-5.0,-1.0,7.0,4.0,1.0,2.0,1651086131365186.0
0.0,-1.0,3.0,2.0,6.0,1.0,2.0,2.0,1651086131365186.0
0.0,3.0,-13.0,0.0,-2.0,2.0,-2.0,1.0,1651086131383094.0
1.0,-8.0,1.0,-1.0,-5.0,-4.0,2.0,1.0,1651086131383094.0
-2.0,0.0,-6.0,-5.0,-3.0,-1.0,-2.0,-2.0,1651086131383094.0
0.0,3.0,2.0,-1.0,-3.0,0.0,0.0,1.0,1651086131383094.0
1.0,-2.0,0.0,2.0,-1.0,-2.0,0.0,-2.0,1651086131405306.0
-3.0,-2.0,-1.0,-3.0,0.0,-1.0,-1.0,-1.0,1651086131405306.0
0.0,2.0,-4.0,-3.0,-4.0,-3.0,-3.0,-1.0,1651086131406238.0
-2.0,1.0,2.0,3.0,5.0,2.0,2.0,-1.0,1651086131406238.0
2.0,2.0,1.0,0.0,1.0,0.0,0.0,2.0,1651086131418263.0
1.0,-1.0,2.0,0.0,3.0,0.0,0.0,0.0,1651086131418263.0
-2.0,-3.0,-4.0,-1.0,-1.0,0.0,-1.0,-1.0,1651086131427241.0
0.0,4.0,7.0,0.0,-5.0,-3.0,-2.0,0.0,1651086131427241.0
-2.0,4.0,0.0,0.0,3.0,0.0,2.0,-2.0,1651086131442970.0
0.0,-5.0,-4.0,0.0,1.0,2.0,0.0,0.0,1651086131442970.0
0.0,-1.0,2.0,2.0,0.0,-2.0,0.0,-1.0,1651086131443093.0
0.0,9.0,-9.0,-5.0,-5.0,-2.0,-3.0,0.0,1651086131443093.0
-2.0,-5.0,4.0,-2.0,-2.0,0.0,0.0,-2.0,1651086131465261.0
-2.0,-5.0,5.0,3.0,2.0,0.0,-1.0,-1.0,1651086131465261.0
-1.0,-3.0,-18.0,-1.0,3.0,1.0,0.0,-1.0,1651086131466167.0
0.0,17.0,12.0,-1.0,-4.0,0.0,0.0,-1.0,1651086131466167.0
0.0,6.0,3.0,0.0,-3.0,-3.0,-2.0,0.0,1651086131478750.0
1.0,-8.0,-1.0,-3.0,-4.0,-3.0,-1.0,0.0,1651086131478750.0
-2.0,-2.0,3.0,1.0,3.0,2.0,1.0,0.0,1651086131493161.0
-2.0,-5.0,-6.0,-2.0,2.0,2.0,-1.0,0.0,1651086131493161.0
0.0,-4.0,-4.0,-1.0,-2.0,-2.0,-1.0,-2.0,1651086131502141.0
-1.0,0.0,1.0,0.0,0.0,0.0,1.0,0.0,1651086131502141.0
0.0,0.0,0.0,-3.0,-4.0,-3.0,-2.0,0.0,1651086131503176.0
0.0,-8.0,-5.0,2.0,-2.0,0.0,1.0,0.0,1651086131503176.0
0.0,7.0,4.0,-1.0,-3.0,-3.0,-1.0,0.0,1651086131525243.0
-2.0,-2.0,-4.0,0.0,2.0,3.0,-1.0,-3.0,1651086131525243.0
-2.0,8.0,11.0,0.0,-2.0,-2.0,0.0,0.0,1651086131526197.0
0.0,-7.0,-5.0,-4.0,-3.0,-4.0,0.0,-1.0,1651086131526197.0
0.0,0.0,1.0,3.0,2.0,1.0,-1.0,-1.0,1651086131539171.0
-1.0,2.0,-2.0,-1.0,0.0,0.0,-1.0,1.0,1651086131539171.0
0.0,-3.0,0.0,-1.0,-1.0,-2.0,-2.0,-1.0,1651086131553241.0
0.0,-2.0,-4.0,-2.0,0.0,0.0,0.0,-1.0,1651086131553241.0
1.0,0.0,-1.0,-2.0,-3.0,-3.0,-2.0,1.0,1651086131562191.0
-3.0,-1.0,3.0,3.0,2.0,2.0,0.0,0.0,1651086131562191.0
-2.0,-3.0,2.0,2.0,3.0,4.0,1.0,0.0,1651086131563146.0
0.0,-1.0,-2.0,-1.0,-1.0,-5.0,-3.0,-1.0,1651086131563146.0
0.0,-2.0,2.0,-2.0,-2.0,-1.0,0.0,0.0,1651086131584160.0
0.0,-4.0,-16.0,-4.0,-3.0,-2.0,0.0,0.0,1651086131584160.0
1.0,8.0,7.0,0.0,-4.0,-3.0,-1.0,-1.0,1651086131586061.0
-1.0,-6.0,-10.0,1.0,-1.0,0.0,0.0,-1.0,1651086131586061.0
-2.0,-1.0,0.0,0.0,5.0,6.0,1.0,-1.0,1651086131599167.0
-1.0,1.0,-2.0,-2.0,-2.0,-1.0,0.0,-1.0,1651086131599167.0
1.0,0.0,-2.0,-1.0,0.0,-1.0,1.0,0.0,1651086131613274.0
0.0,0.0,2.0,-1.0,-3.0,-2.0,-1.0,0.0,1651086131613274.0
0.0,-10.0,-3.0,0.0,0.0,-2.0,-1.0,0.0,1651086131622422.0
-2.0,-3.0,5.0,2.0,1.0,2.0,-1.0,-1.0,1651086131622422.0
-2.0,9.0,0.0,1.0,0.0,1.0,-1.0,0.0,1651086131623101.0
-1.0,3.0,4.0,-2.0,-1.0,-1.0,0.0,-1.0,1651086131623101.0
-1.0,2.0,-1.0,1.0,3.0,0.0,-1.0,-2.0,1651086131644257.0
1.0,-1.0,1.0,0.0,1.0,0.0,1.0,-1.0,1651086131644257.0
2.0,-2.0,-3.0,-2.0,-1.0,-2.0,-1.0,-1.0,1651086131646156.0
0.0,-7.0,-3.0,-1.0,-3.0,1.0,-1.0,0.0,1651086131646156.0
-2.0,2.0,-2.0,-1.0,-4.0,-3.0,-2.0,0.0,1651086131660211.0
0.0,3.0,4.0,1.0,2.0,-1.0,-1.0,0.0,1651086131660211.0
-1.0,-4.0,1.0,0.0,-1.0,0.0,-1.0,-2.0,1651086131665196.0
-2.0,1.0,-3.0,1.0,3.0,2.0,1.0,-2.0,1651086131665196.0
0.0,1.0,-6.0,0.0,0.0,0.0,1.0,-1.0,1651086131682208.0
1.0,5.0,10.0,-1.0,-2.0,-3.0,1.0,2.0,1651086131682208.0
0.0,-4.0,3.0,-3.0,-3.0,-2.0,-3.0,-1.0,1651086131688130.0
0.0,-3.0,-6.0,1.0,1.0,2.0,1.0,-2.0,1651086131688130.0
-1.0,0.0,-2.0,0.0,0.0,0.0,-1.0,-1.0,1651086131720253.0
-2.0,0.0,-2.0,-1.0,-2.0,1.0,-1.0,-1.0,1651086131720253.0
0.0,3.0,0.0,-2.0,1.0,-1.0,-1.0,0.0,1651086131722166.0
-2.0,-3.0,6.0,-1.0,-2.0,-2.0,-1.0,0.0,1651086131722166.0
-1.0,-1.0,-5.0,-4.0,-1.0,1.0,-1.0,-1.0,1651086131722166.0
-1.0,-1.0,0.0,0.0,-3.0,-2.0,1.0,-2.0,1651086131722166.0
-1.0,-3.0,2.0,3.0,2.0,0.0,0.0,-1.0,1651086131727152.0
-1.0,-1.0,-7.0,0.0,2.0,0.0,-2.0,0.0,1651086131727152.0
-2.0,-7.0,2.0,-1.0,-1.0,0.0,-1.0,1.0,1651086131742146.0
-1.0,10.0,-1.0,-4.0,-2.0,-4.0,-2.0,-1.0,1651086131742146.0
0.0,-2.0,-1.0,2.0,0.0,0.0,-1.0,-1.0,1651086131743141.0
0.0,-1.0,-1.0,-1.0,0.0,0.0,0.0,1.0,1651086131743141.0
1.0,-2.0,2.0,-1.0,-3.0,-2.0,-1.0,-1.0,1651086131765317.0
3.0,-1.0,-2.0,-5.0,-7.0,-1.0,-2.0,1.0,1651086131765317.0
0.0,-2.0,-4.0,2.0,2.0,1.0,0.0,-2.0,1651086131766220.0
-2.0,-20.0,-4.0,0.0,3.0,1.0,0.0,0.0,1651086131766220.0
1.0,19.0,4.0,2.0,6.0,3.0,1.0,0.0,1651086131778715.0
0.0,2.0,-1.0,-1.0,-2.0,-2.0,-2.0,0.0,1651086131778715.0
0.0,1.0,-2.0,-2.0,-4.0,-2.0,-2.0,0.0,1651086131787063.0
1.0,-4.0,-2.0,0.0,-3.0,-6.0,0.0,1.0,1651086131787063.0
-3.0,-5.0,-5.0,-2.0,1.0,5.0,1.0,-1.0,1651086131802145.0
0.0,-5.0,-3.0,0.0,0.0,-1.0,-1.0,-1.0,1651086131802145.0
-2.0,-5.0,-2.0,-2.0,-3.0,-1.0,0.0,1.0,1651086131803142.0
0.0,6.0,3.0,1.0,2.0,2.0,-1.0,-1.0,1651086131803142.0
0.0,-1.0,1.0,2.0,-1.0,-2.0,0.0,1.0,1651086131832585.0
0.0,-4.0,-1.0,2.0,0.0,-1.0,0.0,-1.0,1651086131832585.0
-1.0,-1.0,-2.0,-6.0,-5.0,-3.0,-2.0,1.0,1651086131833062.0
-1.0,4.0,-1.0,1.0,-1.0,-1.0,-4.0,-2.0,1651086131833062.0
0.0,4.0,5.0,5.0,8.0,1.0,0.0,-1.0,1651086131838085.0
-2.0,-5.0,0.0,3.0,10.0,3.0,1.0,-1.0,1651086131838085.0
0.0,-3.0,-3.0,0.0,-3.0,0.0,1.0,-1.0,1651086131847029.0
0.0,1.0,2.0,-6.0,-4.0,-2.0,-1.0,0.0,1651086131847029.0
-1.0,-15.0,-1.0,-5.0,-7.0,-6.0,-3.0,-1.0,1651086131862129.0
-3.0,9.0,2.0,5.0,4.0,1.0,1.0,-1.0,1651086131862129.0
0.0,-2.0,3.0,-1.0,7.0,5.0,1.0,0.0,1651086131863124.0
-1.0,6.0,1.0,0.0,-1.0,-1.0,0.0,-1.0,1651086131863124.0
-1.0,-2.0,-3.0,-3.0,-6.0,-5.0,-3.0,-2.0,1651086131884324.0
0.0,-9.0,-5.0,-2.0,-3.0,-4.0,0.0,0.0,1651086131884324.0
-2.0,6.0,1.0,0.0,2.0,-3.0,-1.0,-2.0,1651086131886223.0
-1.0,3.0,5.0,1.0,-5.0,1.0,0.0,0.0,1651086131886223.0
1.0,-1.0,-2.0,8.0,16.0,4.0,2.0,0.0,1651086131898288.0
-1.0,-4.0,-5.0,-8.0,-5.0,-2.0,-3.0,1.0,1651086131898288.0
-1.0,-1.0,-4.0,1.0,0.0,0.0,-1.0,-1.0,1651086131907168.0
-3.0,-2.0,-2.0,0.0,2.0,0.0,1.0,-1.0,1651086131907168.0
-1.0,4.0,0.0,-2.0,-4.0,-2.0,0.0,-1.0,1651086131922419.0
-1.0,3.0,2.0,3.0,3.0,2.0,1.0,-1.0,1651086131922419.0
-1.0,-7.0,-6.0,-3.0,-3.0,-2.0,-1.0,1.0,1651086131923097.0
1.0,5.0,3.0,-2.0,-5.0,-2.0,-3.0,-2.0,1651086131923097.0
-1.0,-2.0,-6.0,2.0,2.0,2.0,0.0,-1.0,1651086131944217.0
0.0,1.0,8.0,-1.0,-1.0,1.0,0.0,0.0,1651086131944217.0
0.0,0.0,4.0,-4.0,-3.0,-3.0,0.0,1.0,1651086131946142.0
-1.0,-2.0,-8.0,-1.0,-3.0,-4.0,-1.0,0.0,1651086131946142.0
0.0,3.0,2.0,1.0,-2.0,0.0,0.0,1.0,1651086131958537.0
0.0,-3.0,-5.0,1.0,4.0,4.0,0.0,1.0,1651086131958537.0
0.0,1.0,-3.0,-3.0,-5.0,-2.0,0.0,-2.0,1651086131966714.0
-1.0,-6.0,4.0,-3.0,-3.0,-1.0,0.0,-1.0,1651086131966714.0
2.0,4.0,-1.0,9.0,9.0,0.0,-1.0,-1.0,1651086131982361.0
0.0,-4.0,1.0,-2.0,-4.0,-2.0,-2.0,0.0,1651086131982361.0
0.0,10.0,-4.0,-2.0,0.0,-3.0,0.0,1.0,1651086131983102.0
-1.0,2.0,-5.0,-2.0,3.0,4.0,2.0,0.0,1651086131983102.0
-1.0,5.0,6.0,-4.0,-10.0,-4.0,-2.0,1.0,1651086132004278.0
0.0,-6.0,-1.0,0.0,-3.0,-4.0,-2.0,-1.0,1651086132004278.0
0.0,-7.0,-6.0,0.0,-1.0,-2.0,-1.0,-1.0,1651086132006235.0
1.0,5.0,8.0,-2.0,-4.0,-4.0,-3.0,-2.0,1651086132006235.0
-2.0,-6.0,0.0,2.0,9.0,5.0,0.0,0.0,1651086132018165.0
0.0,-1.0,2.0,-1.0,0.0,-1.0,0.0,-1.0,1651086132018165.0
-2.0,1.0,-8.0,1.0,0.0,1.0,-1.0,-1.0,1651086132027142.0
1.0,-3.0,-1.0,1.0,0.0,0.0,-1.0,2.0,1651086132027142.0
-3.0,-1.0,2.0,-6.0,-8.0,-1.0,0.0,-2.0,1651086132041176.0
0.0,2.0,2.0,-4.0,-6.0,-3.0,0.0,-1.0,1651086132041176.0
-1.0,-4.0,-2.0,0.0,-2.0,-1.0,-1.0,0.0,1651086132042173.0
-2.0,-2.0,9.0,6.0,10.0,3.0,-1.0,-2.0,1651086132042173.0
-1.0,1.0,-2.0,-4.0,-5.0,-4.0,0.0,1.0,1651086132063269.0
-1.0,-6.0,-6.0,-1.0,2.0,3.0,1.0,0.0,1651086132063269.0
0.0,-2.0,1.0,1.0,-2.0,-1.0,0.0,-1.0,1651086132064300.0
-1.0,3.0,-12.0,-3.0,0.0,1.0,1.0,-1.0,1651086132064300.0
1.0,-6.0,1.0,-3.0,-6.0,-3.0,-2.0,-1.0,1651086132086214.0
-1.0,2.0,-4.0,-2.0,-5.0,-1.0,-1.0,-1.0,1651086132086214.0
-1.0,-1.0,7.0,-2.0,0.0,-2.0,-1.0,-1.0,1651086132087138.0
0.0,3.0,1.0,5.0,4.0,2.0,0.0,-1.0,1651086132087138.0
-3.0,-8.0,-8.0,-7.0,-4.0,0.0,-2.0,0.0,1651086132110184.0
0.0,10.0,12.0,1.0,0.0,-2.0,-1.0,0.0,1651086132110184.0
-1.0,-2.0,-1.0,1.0,4.0,0.0,0.0,0.0,1651086132110184.0
1.0,-2.0,0.0,0.0,0.0,0.0,0.0,0.0,1651086132110184.0
1.0,-4.0,-5.0,0.0,0.0,-1.0,-2.0,-1.0,1651086132124240.0
-3.0,7.0,3.0,1.0,1.0,1.0,0.0,0.0,1651086132124240.0
-1.0,-6.0,0.0,-3.0,-4.0,-3.0,-2.0,0.0,1651086132124240.0
1.0,9.0,-2.0,3.0,6.0,0.0,0.0,1.0,1651086132124240.0
-1.0,-10.0,2.0,4.0,2.0,1.0,1.0,0.0,1651086132146156.0
-2.0,-1.0,-5.0,-4.0,-8.0,-6.0,-1.0,-3.0,1651086132146156.0
0.0,3.0,2.0,3.0,5.0,2.0,1.0,-1.0,1651086132147152.0
-2.0,-12.0,-5.0,-5.0,0.0,0.0,-2.0,-2.0,1651086132147152.0
-1.0,1.0,-8.0,-4.0,-5.0,-3.0,-1.0,-2.0,1651086132161213.0
-1.0,-1.0,-2.0,0.0,-1.0,-3.0,-1.0,0.0,1651086132161213.0
1.0,-6.0,-4.0,1.0,-4.0,-2.0,0.0,-2.0,1651086132162152.0
1.0,8.0,2.0,-3.0,2.0,-1.0,-2.0,1.0,1651086132162152.0
-2.0,0.0,-2.0,-4.0,-2.0,-1.0,-2.0,-1.0,1651086132184169.0
-1.0,-1.0,2.0,2.0,-1.0,0.0,-1.0,-2.0,1651086132184169.0
-2.0,-2.0,4.0,3.0,4.0,3.0,2.0,-1.0,1651086132184169.0
1.0,0.0,1.0,1.0,-3.0,1.0,1.0,0.0,1651086132184169.0
1.0,8.0,3.0,-1.0,-4.0,-3.0,-1.0,0.0,1651086132207321.0
1.0,-10.0,-7.0,-5.0,-4.0,-2.0,-1.0,0.0,1651086132207321.0
-1.0,1.0,2.0,1.0,-2.0,1.0,0.0,0.0,1651086132207321.0
-1.0,2.0,-2.0,3.0,4.0,-1.0,0.0,-2.0,1651086132207321.0
-1.0,3.0,1.0,-4.0,3.0,3.0,1.0,-2.0,1651086132221358.0
-3.0,-15.0,-4.0,3.0,2.0,0.0,0.0,-1.0,1651086132221358.0
2.0,1.0,0.0,-8.0,-1.0,-3.0,0.0,-1.0,1651086132222286.0
0.0,-9.0,-2.0,-2.0,-13.0,-6.0,-3.0,-1.0,1651086132222286.0
1.0,0.0,4.0,5.0,-1.0,-3.0,0.0,-1.0,1651086132244264.0
-2.0,6.0,6.0,9.0,12.0,4.0,0.0,-1.0,1651086132244264.0
-1.0,-6.0,-20.0,-2.0,6.0,5.0,1.0,-1.0,1651086132244264.0
-2.0,2.0,3.0,-6.0,-8.0,-2.0,-3.0,-1.0,1651086132244264.0
3.0,-1.0,-2.0,2.0,5.0,-2.0,-1.0,-1.0,1651086132266682.0
2.0,1.0,1.0,1.0,-2.0,0.0,-1.0,-1.0,1651086132266682.0
-3.0,-10.0,3.0,5.0,3.0,1.0,1.0,1.0,1651086132266682.0
-1.0,9.0,6.0,-5.0,-8.0,-6.0,-1.0,-2.0,1651086132266682.0
0.0,-2.0,1.0,3.0,0.0,1.0,-2.0,0.0,1651086132281739.0
1.0,-3.0,-6.0,-1.0,4.0,1.0,1.0,-1.0,1651086132281739.0
1.0,0.0,-2.0,-3.0,-7.0,-1.0,-1.0,0.0,1651086132281739.0
-1.0,-6.0,2.0,2.0,7.0,1.0,0.0,-1.0,1651086132281739.0
-1.0,4.0,-5.0,-8.0,-12.0,-6.0,-3.0,-1.0,1651086132303923.0
1.0,-3.0,2.0,8.0,5.0,1.0,2.0,2.0,1651086132303923.0
2.0,19.0,12.0,-1.0,6.0,4.0,-1.0,0.0,1651086132304969.0
-1.0,-8.0,-3.0,-7.0,-10.0,-3.0,-1.0,-1.0,1651086132304969.0
-1.0,-3.0,3.0,8.0,16.0,6.0,1.0,1.0,1651086132327307.0
-2.0,-1.0,-7.0,-12.0,-10.0,-6.0,-2.0,-2.0,1651086132327307.0
-1.0,-3.0,-1.0,4.0,-4.0,0.0,-1.0,1.0,1651086132327307.0
1.0,2.0,7.0,10.0,13.0,1.0,-1.0,0.0,1651086132327307.0
0.0,-23.0,-4.0,-1.0,-4.0,-2.0,-1.0,-2.0,1651086132341649.0
0.0,17.0,-6.0,-3.0,1.0,4.0,1.0,0.0,1651086132341649.0
-2.0,-4.0,10.0,-2.0,-6.0,-7.0,-4.0,-2.0,1651086132341649.0
-1.0,-2.0,-5.0,3.0,7.0,2.0,0.0,1.0,1651086132341649.0
-3.0,-1.0,-6.0,-4.0,-8.0,-2.0,0.0,0.0,1651086132363727.0
-1.0,-2.0,11.0,4.0,5.0,2.0,2.0,0.0,1651086132363727.0
0.0,-1.0,-11.0,-9.0,-4.0,-2.0,-2.0,-2.0,1651086132364654.0
0.0,-4.0,-8.0,-3.0,-7.0,-4.0,0.0,0.0,1651086132364654.0
1.0,13.0,8.0,-6.0,-9.0,-2.0,-1.0,0.0,1651086132386595.0
-2.0,-4.0,1.0,9.0,13.0,4.0,0.0,0.0,1651086132386595.0
-1.0,6.0,11.0,7.0,6.0,2.0,1.0,1.0,1651086132386595.0
-1.0,-5.0,-1.0,-3.0,-9.0,-3.0,-2.0,-2.0,1651086132386595.0
1.0,8.0,-4.0,-13.0,-1.0,-1.0,0.0,-1.0,1651086132401555.0
1.0,5.0,10.0,4.0,-7.0,-4.0,-2.0,-1.0,1651086132401555.0
-3.0,-21.0,-17.0,-7.0,-5.0,-2.0,-1.0,0.0,1651086132401555.0
0.0,6.0,-10.0,-8.0,-7.0,-6.0,-1.0,0.0,1651086132401555.0
-2.0,-9.0,12.0,4.0,3.0,2.0,-1.0,-1.0,1651086132424182.0
-3.0,6.0,-13.0,-3.0,3.0,3.0,0.0,0.0,1651086132424182.0
-1.0,-1.0,4.0,4.0,3.0,-1.0,1.0,1.0,1651086132424182.0
1.0,1.0,-1.0,-9.0,-9.0,3.0,1.0,2.0,1651086132424182.0
1.0,2.0,3.0,-5.0,-10.0,-4.0,-2.0,0.0,1651086132446063.0
1.0,-7.0,-2.0,10.0,10.0,2.0,-2.0,-1.0,1651086132446063.0
-1.0,1.0,-3.0,-6.0,-8.0,-3.0,0.0,0.0,1651086132447058.0
-1.0,-3.0,-5.0,1.0,6.0,6.0,1.0,0.0,1651086132447058.0
-1.0,1.0,-6.0,-9.0,-8.0,-5.0,-2.0,-2.0,1651086132461096.0
1.0,-2.0,-5.0,-5.0,1.0,1.0,-2.0,0.0,1651086132461096.0
0.0,1.0,-3.0,-2.0,-7.0,-4.0,-1.0,-2.0,1651086132462021.0
-1.0,-1.0,13.0,1.0,0.0,1.0,-2.0,-2.0,1651086132462021.0
0.0,2.0,6.0,8.0,14.0,2.0,0.0,-1.0,1651086132484221.0
1.0,-8.0,-19.0,-5.0,-14.0,-8.0,-2.0,-3.0,1651086132484221.0
0.0,4.0,12.0,7.0,18.0,4.0,-1.0,0.0,1651086132484221.0
1.0,-6.0,-17.0,-1.0,9.0,3.0,1.0,2.0,1651086132484221.0
-2.0,-7.0,11.0,4.0,5.0,7.0,3.0,2.0,1651086132513237.0
-2.0,-17.0,-11.0,-11.0,-16.0,-7.0,-1.0,-1.0,1651086132513237.0
1.0,5.0,7.0,6.0,4.0,2.0,1.0,2.0,1651086132522215.0
-1.0,-10.0,4.0,-2.0,-15.0,-6.0,-3.0,-2.0,1651086132522215.0
1.0,12.0,-7.0,7.0,21.0,5.0,-3.0,-1.0,1651086132524210.0
-1.0,-3.0,14.0,-7.0,-9.0,-2.0,0.0,1.0,1651086132524210.0
-2.0,-21.0,-4.0,-7.0,-17.0,-7.0,-3.0,-3.0,1651086132525205.0
-1.0,25.0,11.0,11.0,17.0,7.0,1.0,1.0,1651086132525205.0
0.0,-9.0,-10.0,11.0,-6.0,-3.0,1.0,1.0,1651086132545240.0
1.0,2.0,1.0,-5.0,2.0,-1.0,-2.0,-2.0,1651086132545240.0
1.0,7.0,13.0,16.0,21.0,11.0,3.0,1.0,1651086132545240.0
-1.0,-6.0,4.0,1.0,-5.0,-4.0,-1.0,-2.0,1651086132545240.0
-2.0,4.0,-12.0,-14.0,-9.0,-3.0,0.0,1.0,1651086132584260.0
0.0,6.0,7.0,3.0,0.0,0.0,-2.0,-1.0,1651086132584260.0
-1.0,-5.0,-22.0,-23.0,-18.0,-11.0,-4.0,-2.0,1651086132584260.0
-1.0,-5.0,12.0,31.0,23.0,10.0,2.0,1.0,1651086132584260.0
0.0,7.0,4.0,-10.0,-12.0,-3.0,1.0,1.0,1651086132586161.0
-3.0,-9.0,-9.0,0.0,-10.0,-7.0,-4.0,-2.0,1651086132586161.0
2.0,2.0,7.0,7.0,16.0,5.0,3.0,2.0,1651086132589190.0
-1.0,-3.0,-8.0,1.0,14.0,0.0,0.0,-1.0,1651086132589190.0
1.0,-4.0,-5.0,6.0,-2.0,-1.0,-3.0,-1.0,1651086132605108.0
1.0,4.0,5.0,-5.0,3.0,-1.0,0.0,-1.0,1651086132605108.0
1.0,3.0,2.0,9.0,16.0,6.0,1.0,-1.0,1651086132606141.0
1.0,4.0,2.0,-19.0,-33.0,-11.0,-3.0,-2.0,1651086132606141.0
-1.0,-2.0,6.0,17.0,21.0,6.0,1.0,1.0,1651086132627235.0
0.0,1.0,-6.0,13.0,11.0,4.0,1.0,0.0,1651086132627235.0
-3.0,-5.0,-24.0,-7.0,-1.0,-2.0,1.0,-2.0,1651086132627235.0
0.0,-3.0,9.0,-22.0,0.0,6.0,2.0,0.0,1651086132627235.0
0.0,-2.0,-5.0,-8.0,-23.0,-10.0,-4.0,0.0,1651086132642350.0
-2.0,5.0,16.0,13.0,8.0,-3.0,-2.0,-1.0,1651086132642350.0
2.0,4.0,3.0,25.0,13.0,3.0,-1.0,-1.0,1651086132642350.0
-1.0,-8.0,-34.0,-25.0,-2.0,-4.0,-2.0,-2.0,1651086132642350.0
0.0,1.0,9.0,-11.0,-5.0,1.0,1.0,-1.0,1651086132665093.0
-1.0,0.0,3.0,-1.0,-9.0,1.0,3.0,0.0,1651086132665093.0
0.0,4.0,1.0,9.0,3.0,0.0,-2.0,2.0,1651086132665991.0
0.0,3.0,-5.0,-19.0,-11.0,-4.0,1.0,-2.0,1651086132665991.0
-4.0,-10.0,10.0,18.0,19.0,3.0,-1.0,-3.0,1651086132695254.0
1.0,-2.0,-1.0,-31.0,-16.0,-5.0,-1.0,-2.0,1651086132695254.0
-2.0,1.0,11.0,2.0,-9.0,-6.0,-2.0,-3.0,1651086132695254.0
-1.0,-3.0,-8.0,9.0,-9.0,-1.0,0.0,1.0,1651086132695254.0
2.0,10.0,10.0,-1.0,11.0,3.0,0.0,-1.0,1651086132700183.0
-1.0,-22.0,3.0,-5.0,-1.0,3.0,1.0,0.0,1651086132700183.0
-2.0,24.0,8.0,-17.0,-20.0,-7.0,-3.0,-3.0,1651086132709157.0
-1.0,4.0,14.0,23.0,15.0,2.0,-1.0,-2.0,1651086132709157.0
0.0,-2.0,-22.0,-16.0,-10.0,-1.0,0.0,0.0,1651086132724298.0
-1.0,-11.0,-19.0,7.0,10.0,4.0,3.0,0.0,1651086132724298.0
-1.0,3.0,31.0,15.0,1.0,-3.0,-1.0,0.0,1651086132724298.0
-1.0,-7.0,-16.0,3.0,2.0,0.0,-3.0,1.0,1651086132724298.0
-4.0,-3.0,-1.0,-7.0,-26.0,-11.0,-4.0,-5.0,1651086132746156.0
0.0,9.0,-4.0,4.0,30.0,13.0,3.0,1.0,1651086132746156.0
-3.0,-9.0,2.0,-6.0,-11.0,-6.0,-3.0,-2.0,1651086132747153.0
1.0,4.0,13.0,2.0,-3.0,-1.0,-1.0,0.0,1651086132747153.0
1.0,-7.0,-25.0,-12.0,-12.0,-5.0,-4.0,1.0,1651086132769818.0
0.0,6.0,8.0,0.0,-3.0,-2.0,-2.0,-1.0,1651086132769818.0
1.0,-6.0,-19.0,-2.0,8.0,7.0,3.0,1.0,1651086132769818.0
-5.0,-7.0,-27.0,-19.0,-8.0,-4.0,-6.0,-6.0,1651086132769818.0
-2.0,0.0,19.0,14.0,1.0,-3.0,-2.0,-2.0,1651086132793170.0
2.0,6.0,13.0,5.0,-4.0,-3.0,-1.0,0.0,1651086132793170.0
1.0,-4.0,-20.0,-18.0,-4.0,0.0,0.0,0.0,1651086132794173.0
1.0,4.0,18.0,15.0,-2.0,-3.0,-1.0,1.0,1651086132794173.0
1.0,-4.0,-12.0,-20.0,8.0,3.0,3.0,1.0,1651086132807175.0
-5.0,4.0,5.0,15.0,1.0,-2.0,-3.0,-2.0,1651086132807175.0
-2.0,-8.0,-35.0,-25.0,-12.0,-5.0,-6.0,-1.0,1651086132807175.0
-3.0,-7.0,-11.0,2.0,3.0,2.0,-3.0,-3.0,1651086132807175.0
0.0,0.0,0.0,1.0,4.0,1.0,1.0,1.0,1651086132822175.0
2.0,4.0,25.0,19.0,0.0,1.0,3.0,4.0,1651086132822175.0
-3.0,-1.0,-4.0,-20.0,-4.0,2.0,-1.0,-2.0,1651086132829079.0
2.0,1.0,19.0,9.0,-4.0,-3.0,0.0,1.0,1651086132829079.0
1.0,0.0,-11.0,5.0,8.0,2.0,0.0,-1.0,1651086132844247.0
-1.0,1.0,4.0,7.0,-8.0,-4.0,-4.0,-2.0,1651086132844247.0
0.0,-3.0,0.0,-15.0,1.0,2.0,2.0,1.0,1651086132844247.0
4.0,5.0,17.0,9.0,0.0,-2.0,1.0,2.0,1651086132844247.0
1.0,2.0,-6.0,-12.0,-2.0,1.0,1.0,0.0,1651086132867243.0
-3.0,-3.0,-11.0,-9.0,-7.0,-6.0,-1.0,0.0,1651086132867243.0
-5.0,-1.0,-7.0,3.0,-3.0,-1.0,-1.0,13.0,1651086132867243.0
4.0,5.0,29.0,7.0,3.0,-3.0,-6.0,-30.0,1651086132867243.0
-2.0,-5.0,-27.0,-5.0,-1.0,5.0,0.0,-3.0,1651086132890537.0
6.0,-4.0,-7.0,-24.0,-8.0,0.0,0.0,-4.0,1651086132890537.0
-4.0,-1.0,11.0,17.0,3.0,4.0,6.0,2.0,1651086132891442.0
-8.0,-7.0,-52.0,-20.0,0.0,0.0,3.0,0.0,1651086132891442.0
-4.0,6.0,25.0,8.0,-2.0,0.0,-1.0,-2.0,1651086132904507.0
1.0,1.0,-19.0,-3.0,2.0,4.0,-1.0,0.0,1651086132904507.0
8.0,3.0,51.0,34.0,5.0,3.0,7.0,2.0,1651086132904507.0
0.0,-1.0,-8.0,-11.0,-5.0,2.0,7.0,8.0,1651086132904507.0
-2.0,-8.0,-10.0,1.0,0.0,-8.0,-4.0,6.0,1651086132927216.0
-10.0,2.0,11.0,4.0,3.0,6.0,6.0,-15.0,1651086132927216.0
5.0,0.0,-13.0,-4.0,-3.0,-4.0,-7.0,-4.0,1651086132927216.0
-4.0,-3.0,-16.0,-5.0,-2.0,-1.0,2.0,7.0,1651086132927216.0
1.0,4.0,14.0,-5.0,-4.0,-6.0,-7.0,-6.0,1651086132942330.0
7.0,-5.0,-17.0,-12.0,-4.0,-5.0,-2.0,6.0,1651086132942330.0
-6.0,2.0,4.0,-7.0,-3.0,-3.0,-4.0,-7.0,1651086132948116.0
-3.0,1.0,2.0,12.0,3.0,2.0,3.0,3.0,1651086132948116.0
-1.0,0.0,6.0,-6.0,3.0,-3.0,-7.0,-6.0,1651086132964280.0
1.0,5.0,15.0,24.0,8.0,2.0,3.0,4.0,1651086132964280.0
7.0,-2.0,-9.0,-8.0,0.0,-4.0,-2.0,-4.0,1651086132964280.0
0.0,1.0,21.0,11.0,-3.0,1.0,0.0,6.0,1651086132964280.0
0.0,2.0,-6.0,-9.0,0.0,2.0,5.0,-2.0,1651086132986203.0
1.0,-4.0,-33.0,-11.0,0.0,0.0,-4.0,11.0,1651086132986203.0
0.0,5.0,12.0,-4.0,-12.0,-9.0,-8.0,-16.0,1651086132987104.0
-4.0,-8.0,-8.0,13.0,8.0,1.0,-3.0,0.0,1651086132987104.0
1.0,-5.0,-1.0,-5.0,3.0,6.0,10.0,0.0,1651086133009174.0
9.0,24.0,5.0,-28.0,-10.0,-7.0,-3.0,12.0,1651086133009174.0
-5.0,-12.0,2.0,31.0,7.0,5.0,3.0,-1.0,1651086133009174.0
0.0,7.0,19.0,0.0,-9.0,-4.0,-4.0,2.0,1651086133009174.0
-5.0,-9.0,-28.0,-20.0,-3.0,1.0,0.0,-2.0,1651086133024227.0
1.0,-9.0,2.0,14.0,6.0,5.0,7.0,3.0,1651086133024227.0
-2.0,7.0,9.0,-1.0,1.0,-4.0,-5.0,3.0,1651086133024227.0
-8.0,-3.0,10.0,-6.0,-3.0,0.0,-1.0,-4.0,1651086133024227.0
6.0,0.0,-19.0,-1.0,1.0,1.0,0.0,6.0,1651086133046174.0
-4.0,-4.0,7.0,7.0,-7.0,-5.0,-4.0,-6.0,1651086133046174.0
-1.0,12.0,3.0,-8.0,-6.0,0.0,2.0,1.0,1651086133047170.0
-1.0,3.0,-14.0,-11.0,0.0,-1.0,-2.0,-1.0,1651086133047170.0
-2.0,0.0,25.0,10.0,3.0,0.0,-1.0,-1.0,1651086133069876.0
-4.0,-4.0,-7.0,-18.0,-10.0,-3.0,-2.0,-7.0,1651086133069876.0
1.0,-9.0,0.0,6.0,3.0,6.0,6.0,0.0,1651086133069876.0
1.0,-8.0,-21.0,-15.0,-1.0,-2.0,-1.0,2.0,1651086133069876.0
-1.0,15.0,17.0,31.0,2.0,1.0,1.0,0.0,1651086133083940.0
-1.0,9.0,-9.0,-12.0,-3.0,-3.0,-3.0,-5.0,1651086133083940.0
-3.0,-1.0,11.0,6.0,6.0,3.0,4.0,3.0,1651086133084841.0
-1.0,-9.0,-6.0,-12.0,-3.0,-1.0,-1.0,-3.0,1651086133084841.0
3.0,-6.0,-3.0,-5.0,-8.0,-3.0,-1.0,1.0,1651086133107128.0
-8.0,-4.0,-25.0,-1.0,3.0,1.0,0.0,1.0,1651086133107128.0
-2.0,-7.0,1.0,-4.0,-6.0,-4.0,-6.0,-5.0,1651086133107128.0
3.0,5.0,12.0,11.0,9.0,6.0,0.0,-6.0,1651086133107128.0
2.0,-2.0,-2.0,7.0,1.0,2.0,5.0,9.0,1651086133129014.0
-1.0,0.0,17.0,8.0,-2.0,-5.0,-11.0,-4.0,1651086133129014.0
4.0,-5.0,1.0,-23.0,-5.0,1.0,-1.0,4.0,1651086133130023.0
-6.0,1.0,-6.0,7.0,3.0,1.0,1.0,3.0,1651086133130023.0
2.0,-12.0,15.0,24.0,4.0,6.0,4.0,-4.0,1651086133144078.0
-1.0,2.0,-20.0,-9.0,0.0,0.0,2.0,-3.0,1651086133144078.0
-4.0,3.0,2.0,13.0,-1.0,0.0,2.0,14.0,1651086133144979.0
1.0,6.0,12.0,-12.0,-8.0,-5.0,-5.0,-5.0,1651086133144979.0
0.0,0.0,9.0,6.0,1.0,-1.0,0.0,1.0,1651086133165921.0
-1.0,-6.0,9.0,25.0,4.0,-2.0,-1.0,2.0,1651086133165921.0
0.0,-9.0,-16.0,-21.0,-6.0,-1.0,-1.0,-12.0,1651086133166920.0
5.0,1.0,-18.0,6.0,2.0,3.0,4.0,8.0,1651086133166920.0
-5.0,5.0,-1.0,-10.0,-5.0,-10.0,-6.0,1.0,1651086133197361.0
0.0,-8.0,12.0,-7.0,1.0,3.0,-1.0,-9.0,1651086133197361.0
-2.0,-3.0,-6.0,9.0,-1.0,0.0,0.0,0.0,1651086133197361.0
0.0,4.0,8.0,28.0,20.0,4.0,2.0,2.0,1651086133197361.0
-1.0,4.0,13.0,-2.0,-5.0,-1.0,-2.0,-6.0,1651086133203387.0
3.0,0.0,-19.0,-5.0,-3.0,-3.0,-3.0,3.0,1651086133203387.0
4.0,-1.0,-8.0,-10.0,-4.0,-4.0,-3.0,1.0,1651086133204347.0
5.0,-11.0,-17.0,-11.0,-7.0,-4.0,-3.0,-5.0,1651086133204347.0
-7.0,6.0,10.0,4.0,0.0,-4.0,-4.0,7.0,1651086133226712.0
-5.0,-1.0,21.0,8.0,-2.0,1.0,1.0,-2.0,1651086133226712.0
-1.0,3.0,-36.0,-18.0,0.0,0.0,1.0,2.0,1651086133226712.0
1.0,7.0,37.0,11.0,-3.0,0.0,2.0,-5.0,1651086133226712.0
13.0,4.0,-26.0,-13.0,2.0,-3.0,-4.0,0.0,1651086133249978.0
3.0,2.0,11.0,14.0,-4.0,-5.0,-1.0,-2.0,1651086133249978.0
-10.0,-6.0,-8.0,-2.0,1.0,0.0,-1.0,3.0,1651086133249978.0
-1.0,-8.0,-16.0,-17.0,-9.0,-4.0,0.0,5.0,1651086133249978.0
-2.0,8.0,10.0,16.0,15.0,9.0,2.0,-2.0,1651086133263866.0
-6.0,-17.0,-18.0,-17.0,-2.0,-1.0,-5.0,-14.0,1651086133263866.0
5.0,3.0,2.0,11.0,4.0,2.0,0.0,-24.0,1651086133264880.0
3.0,2.0,0.0,-1.0,-1.0,-3.0,1.0,5.0,1651086133264880.0
-1.0,-1.0,-1.0,-12.0,-10.0,-4.0,-2.0,0.0,1651086133287361.0
-11.0,-1.0,10.0,23.0,0.0,0.0,0.0,-3.0,1651086133287361.0
4.0,-4.0,-15.0,-28.0,3.0,1.0,6.0,8.0,1651086133287361.0
0.0,7.0,29.0,35.0,-1.0,-8.0,-9.0,-3.0,1651086133287361.0
1.0,2.0,1.0,-1.0,1.0,3.0,3.0,-5.0,1651086133310279.0
3.0,-4.0,7.0,-4.0,0.0,-2.0,2.0,5.0,1651086133310279.0
1.0,7.0,-13.0,2.0,-7.0,-3.0,-3.0,5.0,1651086133310279.0
-3.0,-12.0,-14.0,-25.0,-3.0,1.0,0.0,-3.0,1651086133310279.0
-1.0,-3.0,4.0,2.0,1.0,0.0,0.0,3.0,1651086133323286.0
0.0,3.0,9.0,2.0,5.0,2.0,1.0,3.0,1651086133323286.0
1.0,-4.0,5.0,22.0,-2.0,-1.0,-1.0,0.0,1651086133324223.0
2.0,0.0,-26.0,-25.0,-3.0,-1.0,2.0,-10.0,1651086133324223.0
-5.0,-4.0,8.0,15.0,-3.0,-4.0,-2.0,-1.0,1651086133346166.0
3.0,12.0,8.0,-15.0,-4.0,0.0,-1.0,-4.0,1651086133346166.0
-9.0,-4.0,12.0,7.0,-1.0,0.0,-2.0,-5.0,1651086133347160.0
0.0,1.0,-7.0,-8.0,4.0,4.0,2.0,6.0,1651086133347160.0
0.0,-3.0,5.0,0.0,-2.0,1.0,1.0,-2.0,1651086133369911.0
-2.0,-2.0,-11.0,-10.0,0.0,2.0,0.0,-1.0,1651086133369911.0
-1.0,2.0,3.0,2.0,0.0,1.0,2.0,5.0,1651086133369911.0
2.0,1.0,4.0,1.0,-3.0,0.0,-2.0,-10.0,1651086133369911.0
-5.0,-4.0,20.0,17.0,-3.0,-4.0,-3.0,-5.0,1651086133384965.0
12.0,-12.0,-33.0,-11.0,0.0,2.0,8.0,23.0,1651086133384965.0
-8.0,16.0,0.0,-9.0,-11.0,-9.0,-13.0,-45.0,1651086133385874.0
-3.0,-3.0,-10.0,3.0,4.0,0.0,-1.0,11.0,1651086133385874.0
0.0,-5.0,-16.0,-18.0,0.0,-1.0,0.0,-7.0,1651086133407112.0
0.0,0.0,17.0,16.0,7.0,4.0,2.0,-1.0,1651086133407112.0
2.0,-6.0,1.0,-12.0,-5.0,-8.0,-8.0,8.0,1651086133407112.0
8.0,2.0,2.0,-5.0,-5.0,-2.0,1.0,1.0,1651086133407112.0
-11.0,-4.0,-15.0,-10.0,-6.0,-3.0,-4.0,-3.0,1651086133429072.0
3.0,5.0,17.0,10.0,1.0,-2.0,-1.0,0.0,1651086133429072.0
3.0,-10.0,-1.0,-7.0,-4.0,2.0,3.0,8.0,1651086133430075.0
-5.0,8.0,-14.0,-14.0,9.0,1.0,-1.0,-4.0,1651086133430075.0
0.0,-6.0,6.0,27.0,1.0,-2.0,-1.0,4.0,1651086133444130.0
-7.0,2.0,-9.0,-33.0,-2.0,2.0,0.0,-6.0,1651086133444130.0
-1.0,3.0,21.0,32.0,10.0,3.0,2.0,12.0,1651086133444130.0
2.0,-2.0,14.0,0.0,-8.0,-1.0,0.0,2.0,1651086133444130.0
1.0,-7.0,-31.0,-25.0,-2.0,0.0,2.0,-2.0,1651086133467172.0
4.0,0.0,-6.0,-1.0,-1.0,-3.0,-2.0,1.0,1651086133467172.0
6.0,17.0,13.0,6.0,2.0,-2.0,2.0,4.0,1651086133467172.0
-9.0,-6.0,0.0,-4.0,-4.0,-3.0,-2.0,0.0,1651086133467172.0
1.0,7.0,3.0,-9.0,-3.0,-2.0,-5.0,-6.0,1651086133506231.0
-2.0,-7.0,-4.0,11.0,-1.0,-5.0,-5.0,-2.0,1651086133506231.0
-4.0,-10.0,-7.0,-8.0,3.0,3.0,3.0,2.0,1651086133506231.0
2.0,4.0,-1.0,-7.0,-3.0,0.0,0.0,6.0,1651086133506231.0
2.0,8.0,14.0,17.0,2.0,2.0,1.0,-3.0,1651086133508166.0
-4.0,1.0,-2.0,-8.0,-1.0,-2.0,-2.0,2.0,1651086133508166.0
1.0,0.0,-4.0,-2.0,1.0,-1.0,-1.0,7.0,1651086133511186.0
3.0,-3.0,-11.0,-15.0,-2.0,0.0,-1.0,-3.0,1651086133511186.0
2.0,-5.0,9.0,5.0,-3.0,0.0,-1.0,1.0,1651086133526117.0
-3.0,7.0,-8.0,16.0,17.0,4.0,2.0,-2.0,1651086133526117.0
1.0,-4.0,-1.0,6.0,4.0,4.0,6.0,19.0,1651086133527115.0
-3.0,1.0,20.0,0.0,-7.0,-2.0,-3.0,-20.0,1651086133527115.0
-1.0,-1.0,-15.0,-4.0,1.0,-2.0,1.0,5.0,1651086133557463.0
1.0,-1.0,3.0,6.0,0.0,3.0,-1.0,-4.0,1651086133557463.0
-1.0,4.0,20.0,2.0,-1.0,-3.0,-3.0,2.0,1651086133557463.0
-8.0,0.0,-13.0,14.0,4.0,1.0,2.0,6.0,1651086133557463.0
3.0,1.0,23.0,-10.0,-7.0,-5.0,-7.0,-3.0,1651086133563486.0
1.0,1.0,-1.0,-3.0,-6.0,-1.0,3.0,-2.0,1651086133563486.0
0.0,-8.0,-18.0,-16.0,5.0,4.0,1.0,-7.0,1651086133564449.0
-2.0,13.0,37.0,18.0,3.0,3.0,1.0,-3.0,1651086133564449.0
-2.0,-11.0,-27.0,-4.0,-5.0,-6.0,-2.0,1.0,1651086133586462.0
-3.0,6.0,-32.0,-22.0,-5.0,-1.0,-2.0,-1.0,1651086133586462.0
1.0,-8.0,-7.0,-4.0,-5.0,-4.0,-5.0,-3.0,1651086133587388.0
3.0,-2.0,7.0,16.0,7.0,6.0,7.0,7.0,1651086133587388.0
-4.0,3.0,0.0,-3.0,2.0,2.0,2.0,-4.0,1651086133609152.0
12.0,-7.0,-5.0,-1.0,1.0,0.0,3.0,3.0,1651086133609152.0
-7.0,-1.0,1.0,8.0,-2.0,-4.0,-4.0,-8.0,1651086133610155.0
8.0,-13.0,-1.0,-3.0,-6.0,-3.0,-4.0,1.0,1651086133610155.0
1.0,11.0,41.0,21.0,0.0,4.0,7.0,1.0,1651086133624155.0
-9.0,-10.0,-59.0,-28.0,2.0,-4.0,-5.0,10.0,1651086133624155.0
2.0,5.0,9.0,14.0,6.0,7.0,7.0,-2.0,1651086133631097.0
-4.0,-5.0,-27.0,-17.0,-8.0,-7.0,-4.0,-3.0,1651086133631097.0
4.0,-2.0,-5.0,-9.0,-1.0,6.0,2.0,3.0,1651086133646501.0
-2.0,-10.0,28.0,15.0,-9.0,-6.0,-5.0,-3.0,1651086133646501.0
2.0,12.0,-9.0,-3.0,0.0,-1.0,1.0,16.0,1651086133647503.0
0.0,-2.0,9.0,8.0,3.0,1.0,-3.0,-2.0,1651086133647503.0
-9.0,4.0,-28.0,-39.0,-11.0,-6.0,-6.0,-18.0,1651086133669659.0
0.0,10.0,25.0,0.0,-7.0,-3.0,1.0,-2.0,1651086133669659.0
1.0,-11.0,-5.0,-7.0,0.0,2.0,1.0,4.0,1651086133670613.0
0.0,-3.0,-7.0,-6.0,-7.0,-1.0,0.0,4.0,1651086133670613.0
-3.0,-4.0,-9.0,1.0,17.0,2.0,1.0,5.0,1651086133683624.0
5.0,0.0,1.0,-4.0,-6.0,-2.0,1.0,-4.0,1651086133683624.0
-9.0,-11.0,8.0,-5.0,-8.0,-4.0,-4.0,-11.0,1651086133684544.0
0.0,1.0,-7.0,-1.0,-4.0,-1.0,-2.0,2.0,1651086133684544.0
2.0,2.0,-10.0,4.0,-2.0,-1.0,-1.0,1.0,1651086133722146.0
-4.0,-7.0,1.0,7.0,2.0,-4.0,-6.0,-5.0,1651086133722146.0
-1.0,3.0,9.0,-3.0,3.0,3.0,0.0,-3.0,1651086133723179.0
-3.0,3.0,8.0,12.0,1.0,2.0,1.0,-5.0,1651086133723179.0
3.0,-5.0,2.0,-4.0,2.0,-1.0,0.0,6.0,1651086133729126.0
0.0,5.0,10.0,4.0,-4.0,-6.0,-7.0,-4.0,1651086133729126.0
-1.0,-1.0,7.0,-5.0,-4.0,-2.0,-3.0,-5.0,1651086133730125.0
-2.0,1.0,-3.0,3.0,5.0,2.0,-1.0,3.0,1651086133730125.0
-1.0,-4.0,-2.0,-1.0,-5.0,-1.0,2.0,-1.0,1651086133743124.0
1.0,4.0,23.0,9.0,-1.0,5.0,6.0,18.0,1651086133743124.0
3.0,1.0,-20.0,-23.0,-1.0,0.0,-3.0,-11.0,1651086133751102.0
-4.0,-3.0,-6.0,16.0,0.0,-3.0,-1.0,0.0,1651086133751102.0
3.0,8.0,-1.0,10.0,-1.0,0.0,-1.0,-7.0,1651086133774226.0
-4.0,-7.0,26.0,3.0,2.0,5.0,5.0,-3.0,1651086133774226.0
2.0,-2.0,-34.0,-14.0,-3.0,-3.0,-1.0,2.0,1651086133775149.0
3.0,-5.0,-5.0,-6.0,-4.0,-1.0,0.0,7.0,1651086133775149.0
1.0,-15.0,4.0,15.0,6.0,-1.0,-3.0,0.0,1651086133789834.0
-1.0,27.0,-4.0,-6.0,3.0,6.0,8.0,1.0,1651086133789834.0
2.0,0.0,5.0,4.0,0.0,-4.0,-4.0,0.0,1651086133789834.0
-2.0,17.0,1.0,-19.0,-2.0,-2.0,0.0,-4.0,1651086133789834.0
-1.0,-9.0,7.0,28.0,4.0,-1.0,0.0,4.0,1651086133811962.0
-4.0,-12.0,6.0,-8.0,-2.0,-1.0,0.0,-4.0,1651086133811962.0
5.0,1.0,4.0,4.0,-1.0,2.0,3.0,-3.0,1651086133812933.0
-2.0,-4.0,-4.0,2.0,2.0,-2.0,0.0,0.0,1651086133812933.0
1.0,6.0,0.0,-9.0,0.0,3.0,1.0,0.0,1651086133825967.0
-11.0,-7.0,-31.0,-28.0,-9.0,-7.0,-8.0,-8.0,1651086133825967.0
0.0,3.0,22.0,29.0,1.0,0.0,-1.0,-4.0,1651086133826889.0
-7.0,-4.0,7.0,-6.0,-5.0,0.0,1.0,-2.0,1651086133826889.0
-3.0,3.0,-28.0,-15.0,-3.0,-3.0,0.0,1.0,1651086133848979.0
6.0,1.0,-26.0,-5.0,5.0,1.0,2.0,-1.0,1651086133848979.0
-3.0,-25.0,9.0,-1.0,-3.0,-1.0,-5.0,-17.0,1651086133849981.0
-1.0,17.0,35.0,27.0,0.0,0.0,0.0,3.0,1651086133849981.0
1.0,1.0,7.0,-16.0,-7.0,-3.0,-3.0,2.0,1651086133864941.0
1.0,-8.0,-24.0,-9.0,-9.0,-1.0,-2.0,-3.0,1651086133864941.0
-1.0,-1.0,-14.0,7.0,6.0,2.0,2.0,2.0,1651086133870925.0
2.0,-17.0,-2.0,-14.0,1.0,1.0,3.0,-1.0,1651086133870925.0
-1.0,5.0,-25.0,-11.0,-6.0,1.0,-2.0,-6.0,1651086133886660.0
3.0,7.0,34.0,17.0,2.0,3.0,-3.0,1.0,1651086133886660.0
-1.0,0.0,-2.0,8.0,-2.0,-4.0,0.0,5.0,1651086133886660.0
-1.0,-6.0,9.0,12.0,5.0,1.0,1.0,-8.0,1651086133886660.0
7.0,1.0,17.0,7.0,-2.0,-3.0,-2.0,3.0,1651086133908850.0
-1.0,-2.0,-10.0,-1.0,2.0,2.0,1.0,-3.0,1651086133908850.0
3.0,4.0,2.0,-16.0,-3.0,-2.0,-2.0,3.0,1651086133909799.0
3.0,-15.0,-17.0,10.0,4.0,3.0,3.0,5.0,1651086133909799.0
-7.0,14.0,34.0,0.0,-5.0,-6.0,-1.0,-1.0,1651086133922763.0
-3.0,-10.0,-39.0,-8.0,2.0,-4.0,-5.0,-8.0,1651086133922763.0
6.0,-2.0,9.0,6.0,2.0,0.0,0.0,4.0,1651086133931739.0
-12.0,6.0,-4.0,0.0,0.0,-2.0,-4.0,4.0,1651086133931739.0
1.0,-11.0,10.0,8.0,-3.0,4.0,2.0,3.0,1651086133946029.0
1.0,-1.0,24.0,4.0,2.0,0.0,0.0,1.0,1651086133946029.0
-8.0,5.0,-13.0,-14.0,-10.0,-4.0,-1.0,1.0,1651086133947026.0
4.0,-2.0,16.0,-5.0,-1.0,-4.0,-4.0,-4.0,1651086133947026.0
2.0,8.0,-26.0,-9.0,2.0,4.0,4.0,0.0,1651086133969118.0
2.0,-4.0,-7.0,10.0,-7.0,-13.0,-12.0,1.0,1651086133969118.0
0.0,3.0,-6.0,2.0,8.0,3.0,2.0,-2.0,1651086133969118.0
5.0,2.0,-20.0,-15.0,-7.0,-3.0,0.0,-2.0,1651086133969118.0
0.0,-1.0,14.0,9.0,8.0,2.0,2.0,8.0,1651086133999159.0
-2.0,-3.0,-11.0,-13.0,-6.0,1.0,2.0,-6.0,1651086133999159.0
0.0,-6.0,4.0,10.0,10.0,2.0,4.0,3.0,1651086134000161.0
-1.0,12.0,-3.0,-11.0,-2.0,-3.0,-3.0,-1.0,1651086134000161.0
-2.0,1.0,-3.0,-8.0,-3.0,2.0,1.0,1.0,1651086134006178.0
1.0,-2.0,5.0,12.0,-6.0,-2.0,-1.0,0.0,1651086134006178.0
-1.0,-3.0,7.0,0.0,0.0,-2.0,-4.0,-2.0,1651086134007144.0
-1.0,-1.0,-4.0,0.0,8.0,5.0,1.0,-1.0,1651086134007144.0
0.0,-5.0,-9.0,-4.0,1.0,-2.0,-1.0,-2.0,1651086134029072.0
0.0,1.0,20.0,3.0,-2.0,1.0,0.0,-2.0,1651086134029072.0
-2.0,-4.0,-24.0,-8.0,-10.0,-4.0,-3.0,0.0,1651086134029072.0
3.0,6.0,9.0,7.0,7.0,5.0,3.0,1.0,1651086134029072.0
0.0,-8.0,-3.0,-8.0,-7.0,-6.0,-7.0,-4.0,1651086134052018.0
0.0,-2.0,9.0,6.0,2.0,-1.0,0.0,2.0,1651086134052018.0
-2.0,3.0,-2.0,0.0,-2.0,1.0,2.0,2.0,1651086134053050.0
0.0,-1.0,-1.0,-2.0,0.0,0.0,0.0,-2.0,1651086134053050.0
-4.0,-17.0,-12.0,-3.0,-3.0,-3.0,-1.0,-4.0,1651086134066053.0
0.0,8.0,11.0,4.0,3.0,0.0,4.0,1.0,1651086134066053.0
2.0,-3.0,-10.0,-3.0,-1.0,2.0,0.0,0.0,1651086134066976.0
-1.0,2.0,9.0,-8.0,-9.0,-5.0,-3.0,-3.0,1651086134066976.0
0.0,-1.0,5.0,4.0,0.0,-3.0,0.0,0.0,1651086134088221.0
-3.0,-1.0,0.0,3.0,7.0,7.0,3.0,1.0,1651086134088221.0
-2.0,11.0,3.0,1.0,2.0,0.0,0.0,1.0,1651086134089233.0
1.0,-9.0,-9.0,1.0,1.0,0.0,-1.0,-1.0,1651086134089233.0
-1.0,11.0,0.0,3.0,1.0,0.0,-1.0,1.0,1651086134112154.0
0.0,-5.0,-1.0,-1.0,-1.0,-1.0,1.0,0.0,1651086134112154.0
0.0,5.0,6.0,-1.0,-3.0,-2.0,-3.0,-3.0,1651086134113152.0
2.0,-5.0,-9.0,-1.0,-1.0,0.0,-3.0,-1.0,1651086134113152.0
-3.0,-4.0,4.0,2.0,2.0,1.0,0.0,-1.0,1651086134126190.0
-1.0,4.0,1.0,1.0,1.0,-1.0,-1.0,0.0,1651086134126190.0
-1.0,1.0,3.0,-1.0,-2.0,-2.0,0.0,0.0,1651086134127121.0
1.0,-1.0,-3.0,-2.0,-5.0,-4.0,0.0,-2.0,1651086134127121.0
0.0,5.0,6.0,3.0,5.0,3.0,0.0,1.0,1651086134149153.0
-2.0,-11.0,-10.0,-4.0,-8.0,-2.0,-1.0,-3.0,1651086134149153.0
-1.0,6.0,-4.0,3.0,8.0,1.0,1.0,-2.0,1651086134150156.0
-3.0,-5.0,2.0,-3.0,2.0,1.0,1.0,1.0,1651086134150156.0
1.0,19.0,6.0,-1.0,-2.0,-2.0,-3.0,-1.0,1651086134174374.0
0.0,-10.0,3.0,3.0,-1.0,0.0,-1.0,-1.0,1651086134174374.0
0.0,15.0,7.0,1.0,-5.0,-2.0,-2.0,-1.0,1651086134174374.0
-1.0,-7.0,-13.0,-3.0,-1.0,0.0,0.0,0.0,1651086134174374.0
0.0,-2.0,-1.0,1.0,0.0,-2.0,1.0,0.0,1651086134186254.0
0.0,0.0,5.0,0.0,-1.0,-1.0,-1.0,0.0,1651086134186254.0
-2.0,-7.0,2.0,0.0,0.0,-1.0,-1.0,-1.0,1651086134187251.0
0.0,-5.0,-12.0,0.0,-1.0,-2.0,-2.0,0.0,1651086134187251.0
-2.0,-2.0,-2.0,0.0,0.0,0.0,1.0,0.0,1651086134217263.0
0.0,9.0,3.0,0.0,0.0,1.0,0.0,-2.0,1651086134217263.0
0.0,-5.0,1.0,-1.0,0.0,0.0,0.0,0.0,1651086134218202.0
0.0,4.0,4.0,1.0,-1.0,0.0,-2.0,-1.0,1651086134218202.0
0.0,-8.0,1.0,0.0,-2.0,-3.0,-1.0,-2.0,1651086134232381.0
0.0,1.0,-11.0,-3.0,-2.0,-1.0,0.0,-1.0,1651086134232381.0
0.0,6.0,1.0,2.0,2.0,-1.0,1.0,1.0,1651086134233115.0
-1.0,-6.0,3.0,-2.0,-5.0,-1.0,-3.0,0.0,1651086134233115.0
-3.0,-8.0,-3.0,-3.0,0.0,1.0,0.0,-2.0,1651086134246084.0
1.0,7.0,4.0,1.0,6.0,2.0,-1.0,-1.0,1651086134246084.0
-1.0,-29.0,-6.0,5.0,2.0,2.0,2.0,1.0,1651086134247081.0
-1.0,28.0,8.0,1.0,-1.0,-2.0,1.0,0.0,1651086134247081.0
0.0,-5.0,-2.0,0.0,-6.0,-3.0,0.0,0.0,1651086134269024.0
0.0,1.0,7.0,3.0,2.0,1.0,-1.0,0.0,1651086134269024.0
-2.0,-7.0,-12.0,-6.0,-3.0,-1.0,0.0,0.0,1651086134269024.0
1.0,-10.0,2.0,1.0,-2.0,-1.0,-1.0,-1.0,1651086134269024.0
1.0,5.0,-7.0,-3.0,0.0,1.0,-1.0,0.0,1651086134300270.0
0.0,1.0,6.0,6.0,-1.0,0.0,1.0,0.0,1651086134300270.0
-1.0,-5.0,4.0,1.0,-1.0,2.0,0.0,0.0,1651086134300270.0
0.0,-4.0,-16.0,-2.0,-1.0,1.0,2.0,0.0,1651086134300270.0
-1.0,-7.0,-3.0,-4.0,0.0,0.0,-1.0,-1.0,1651086134306162.0
0.0,-1.0,5.0,-1.0,0.0,0.0,0.0,-1.0,1651086134306162.0
-2.0,-3.0,0.0,-2.0,-3.0,-2.0,-3.0,-2.0,1651086134307159.0
-1.0,6.0,4.0,-2.0,-1.0,-1.0,-1.0,-1.0,1651086134307159.0
0.0,-2.0,-2.0,1.0,3.0,0.0,-1.0,0.0,1651086134329102.0
1.0,3.0,-5.0,-3.0,-1.0,-2.0,0.0,1.0,1651086134329102.0
1.0,1.0,1.0,-6.0,-10.0,-7.0,-3.0,0.0,1651086134330100.0
0.0,-10.0,-2.0,8.0,18.0,7.0,0.0,-1.0,1651086134330100.0
-2.0,17.0,9.0,5.0,6.0,5.0,2.0,0.0,1651086134360244.0
-2.0,4.0,5.0,1.0,-2.0,0.0,1.0,-2.0,1651086134360244.0
-1.0,7.0,-2.0,-6.0,-6.0,-4.0,1.0,-1.0,1651086134360244.0
-1.0,-8.0,2.0,2.0,-3.0,-1.0,-1.0,-3.0,1651086134360244.0
-3.0,-13.0,-3.0,-5.0,-2.0,-2.0,0.0,1.0,1651086134366174.0
-1.0,8.0,0.0,4.0,3.0,1.0,-1.0,-1.0,1651086134366174.0
-2.0,0.0,-10.0,-5.0,-5.0,-1.0,-1.0,0.0,1651086134367137.0
1.0,1.0,1.0,6.0,15.0,3.0,2.0,1.0,1651086134367137.0
-1.0,-1.0,4.0,2.0,0.0,0.0,0.0,0.0,1651086134389177.0
-3.0,-6.0,-1.0,-2.0,-2.0,0.0,1.0,0.0,1651086134389177.0
1.0,6.0,-6.0,-2.0,-2.0,-1.0,-2.0,-1.0,1651086134389177.0
-1.0,2.0,1.0,-3.0,-7.0,-3.0,-1.0,0.0,1651086134389177.0
0.0,-3.0,-1.0,0.0,-1.0,0.0,-1.0,-1.0,1651086134412265.0
1.0,-5.0,-2.0,-3.0,0.0,-3.0,-2.0,-1.0,1651086134412265.0
1.0,0.0,2.0,3.0,3.0,1.0,0.0,0.0,1651086134412265.0
0.0,1.0,-2.0,-6.0,-2.0,-2.0,-1.0,-1.0,1651086134412265.0
-1.0,0.0,-3.0,2.0,2.0,2.0,2.0,0.0,1651086134426657.0
-1.0,0.0,0.0,-3.0,-5.0,-2.0,0.0,0.0,1651086134426657.0
-1.0,0.0,4.0,3.0,5.0,3.0,0.0,1.0,1651086134426657.0
-1.0,-1.0,-1.0,-2.0,-5.0,-4.0,1.0,1.0,1651086134426657.0
0.0,-2.0,-5.0,-1.0,-4.0,-3.0,-1.0,-2.0,1651086134457934.0
0.0,-3.0,-4.0,-1.0,0.0,-2.0,-3.0,0.0,1651086134457934.0
-1.0,-3.0,4.0,1.0,2.0,3.0,1.0,0.0,1651086134457934.0
-1.0,13.0,10.0,0.0,-3.0,-3.0,-1.0,-2.0,1651086134457934.0
0.0,-7.0,-5.0,1.0,2.0,0.0,0.0,0.0,1651086134472930.0
1.0,11.0,6.0,-3.0,-1.0,0.0,0.0,0.0,1651086134472930.0
0.0,0.0,-1.0,-2.0,-8.0,-3.0,-1.0,0.0,1651086134472930.0
1.0,-7.0,-3.0,3.0,14.0,7.0,1.0,1.0,1651086134472930.0
0.0,-2.0,6.0,0.0,-2.0,-2.0,0.0,0.0,1651086134486894.0
1.0,-1.0,-4.0,-4.0,-1.0,-2.0,0.0,-1.0,1651086134486894.0
-1.0,-3.0,-1.0,-2.0,-6.0,-3.0,0.0,-1.0,1651086134486894.0
1.0,-2.0,-5.0,-1.0,-2.0,-2.0,-2.0,-1.0,1651086134486894.0
0.0,4.0,1.0,-1.0,1.0,0.0,-1.0,0.0,1651086134509251.0
-2.0,-13.0,-1.0,1.0,2.0,0.0,1.0,1.0,1651086134509251.0
1.0,10.0,5.0,1.0,1.0,-1.0,-2.0,-1.0,1651086134509251.0
-1.0,2.0,-4.0,-5.0,-8.0,-2.0,0.0,-1.0,1651086134509251.0
-2.0,1.0,-1.0,1.0,0.0,1.0,-1.0,-2.0,1651086134532402.0
-2.0,-6.0,-4.0,-1.0,-2.0,0.0,1.0,0.0,1651086134532402.0
0.0,-2.0,0.0,-2.0,0.0,0.0,-1.0,-1.0,1651086134533066.0
0.0,4.0,3.0,-1.0,-5.0,-2.0,-1.0,-3.0,1651086134533066.0
0.0,-1.0,-4.0,-1.0,-1.0,-2.0,-1.0,-1.0,1651086134546039.0
0.0,-1.0,-2.0,-3.0,0.0,2.0,-1.0,0.0,1651086134546039.0
0.0,4.0,1.0,3.0,1.0,-3.0,-1.0,-1.0,1651086134547037.0
-1.0,-3.0,0.0,-2.0,-5.0,-1.0,-1.0,1.0,1651086134547037.0
-1.0,-2.0,-3.0,-3.0,-3.0,-2.0,0.0,-1.0,1651086134568974.0
-1.0,0.0,0.0,2.0,1.0,5.0,0.0,-1.0,1651086134568974.0
0.0,1.0,3.0,-1.0,0.0,-2.0,-1.0,0.0,1651086134569972.0
0.0,-4.0,-2.0,-5.0,-9.0,-5.0,-1.0,-1.0,1651086134569972.0
1.0,-3.0,-8.0,-1.0,3.0,2.0,0.0,0.0,1651086134591914.0
-1.0,3.0,5.0,4.0,2.0,0.0,1.0,0.0,1651086134591914.0
0.0,-3.0,2.0,1.0,4.0,2.0,0.0,0.0,1651086134592911.0
-2.0,-13.0,0.0,-2.0,-3.0,-4.0,-2.0,0.0,1651086134592911.0
0.0,9.0,0.0,-2.0,-4.0,-3.0,-2.0,1.0,1651086134606949.0
0.0,7.0,-7.0,-2.0,1.0,0.0,-3.0,-2.0,1651086134606949.0
-2.0,-2.0,2.0,2.0,3.0,1.0,1.0,-1.0,1651086134607874.0
-2.0,-3.0,-2.0,-1.0,-1.0,0.0,0.0,0.0,1651086134607874.0
2.0,-3.0,1.0,-4.0,-3.0,-1.0,0.0,-1.0,1651086134628851.0
0.0,-4.0,-1.0,-3.0,-4.0,-3.0,-2.0,-1.0,1651086134628851.0
-1.0,2.0,-1.0,-1.0,-1.0,-3.0,-2.0,-1.0,1651086134629855.0
-1.0,-1.0,-2.0,2.0,2.0,1.0,0.0,0.0,1651086134629855.0
-1.0,-3.0,0.0,2.0,3.0,2.0,1.0,-1.0,1651086134652016.0
-1.0,2.0,2.0,1.0,-1.0,-1.0,-2.0,0.0,1651086134652016.0
0.0,-2.0,-1.0,-1.0,-2.0,1.0,0.0,-2.0,1651086134652938.0
1.0,1.0,-1.0,-1.0,-4.0,-2.0,-1.0,-1.0,1651086134652938.0
-1.0,0.0,-1.0,0.0,-5.0,-2.0,0.0,-3.0,1651086134665978.0
-1.0,-3.0,0.0,1.0,0.0,-1.0,1.0,-2.0,1651086134665978.0
-1.0,0.0,2.0,1.0,3.0,2.0,1.0,-1.0,1651086134673957.0
0.0,3.0,-4.0,-4.0,0.0,0.0,0.0,-1.0,1651086134673957.0
0.0,-4.0,2.0,-3.0,-6.0,-4.0,-2.0,0.0,1651086134688950.0
-1.0,-4.0,-3.0,-4.0,-4.0,-4.0,-1.0,-1.0,1651086134688950.0
-3.0,-3.0,-3.0,3.0,5.0,6.0,2.0,-1.0,1651086134689951.0
0.0,2.0,0.0,1.0,2.0,2.0,0.0,-1.0,1651086134689951.0
0.0,1.0,-1.0,-1.0,2.0,2.0,1.0,-1.0,1651086134711929.0
1.0,1.0,-1.0,-1.0,-2.0,-1.0,0.0,0.0,1651086134711929.0
-1.0,-3.0,0.0,-3.0,0.0,-1.0,-2.0,-1.0,1651086134712889.0
-1.0,-1.0,1.0,0.0,0.0,-2.0,0.0,-2.0,1651086134712889.0
-2.0,0.0,0.0,1.0,2.0,0.0,-1.0,0.0,1651086134734224.0
0.0,-1.0,-1.0,-2.0,-2.0,-1.0,-2.0,0.0,1651086134734224.0
-1.0,3.0,2.0,0.0,-1.0,-1.0,-1.0,-1.0,1651086134735145.0
-2.0,-2.0,-3.0,-3.0,-1.0,1.0,1.0,-1.0,1651086134735145.0
-2.0,0.0,-2.0,0.0,0.0,0.0,-2.0,-2.0,1651086134749108.0
-2.0,0.0,1.0,1.0,2.0,1.0,2.0,-1.0,1651086134749108.0
1.0,-2.0,-4.0,-5.0,-2.0,-2.0,-1.0,0.0,1651086134749108.0
-1.0,-2.0,-1.0,-3.0,-1.0,-1.0,-1.0,-1.0,1651086134749108.0
-2.0,1.0,7.0,1.0,0.0,1.0,0.0,1.0,1651086134773098.0
0.0,-5.0,-16.0,-3.0,-1.0,1.0,-1.0,0.0,1651086134773098.0
1.0,4.0,6.0,1.0,1.0,-1.0,-2.0,-2.0,1651086134774101.0
1.0,-2.0,-1.0,-1.0,-1.0,-1.0,-1.0,-1.0,1651086134774101.0
0.0,-1.0,-2.0,-3.0,-5.0,-4.0,-1.0,0.0,1651086134785071.0
-2.0,-2.0,1.0,3.0,2.0,0.0,2.0,2.0,1651086134785071.0
-2.0,1.0,2.0,3.0,3.0,6.0,1.0,-1.0,1651086134794122.0
-1.0,2.0,2.0,2.0,4.0,0.0,-1.0,0.0,1651086134794122.0
1.0,-2.0,-4.0,-1.0,2.0,-1.0,0.0,-1.0,1651086134809171.0
0.0,4.0,5.0,-4.0,-4.0,-3.0,-3.0,-1.0,1651086134809171.0
-1.0,-4.0,-6.0,-5.0,-11.0,-5.0,-2.0,1.0,1651086134809171.0
0.0,0.0,3.0,-4.0,-3.0,-1.0,-2.0,-2.0,1651086134809171.0
-2.0,-6.0,0.0,10.0,12.0,5.0,1.0,0.0,1651086134832434.0
-1.0,5.0,1.0,-1.0,1.0,1.0,1.0,-1.0,1651086134832434.0
0.0,-1.0,-1.0,0.0,1.0,-2.0,1.0,0.0,1651086134833061.0
-1.0,-2.0,-3.0,-2.0,-2.0,-2.0,-2.0,-1.0,1651086134833061.0
0.0,11.0,0.0,-5.0,-4.0,-3.0,-1.0,-1.0,1651086134846031.0
3.0,-2.0,2.0,0.0,-1.0,-1.0,-1.0,-1.0,1651086134846031.0
0.0,6.0,-1.0,1.0,-2.0,0.0,0.0,1.0,1651086134854106.0
-1.0,-2.0,1.0,1.0,1.0,0.0,0.0,2.0,1651086134854106.0
-1.0,-5.0,-2.0,1.0,-4.0,-2.0,-2.0,-1.0,1651086134869147.0
-1.0,0.0,2.0,3.0,3.0,2.0,0.0,-2.0,1651086134869147.0
1.0,-7.0,-2.0,-1.0,-2.0,-3.0,-3.0,-3.0,1651086134869147.0
-1.0,1.0,-1.0,0.0,-2.0,-2.0,-1.0,-1.0,1651086134869147.0
0.0,2.0,2.0,-2.0,-1.0,1.0,-1.0,1.0,1651086134892961.0
-1.0,0.0,-2.0,-1.0,-1.0,0.0,-1.0,0.0,1651086134892961.0
-1.0,-4.0,-1.0,-1.0,-1.0,-3.0,-3.0,-1.0,1651086134893101.0
1.0,-1.0,-3.0,-1.0,-4.0,-2.0,0.0,-1.0,1651086134893101.0
1.0,-2.0,-1.0,1.0,0.0,1.0,0.0,0.0,1651086134915310.0
-1.0,-2.0,5.0,-1.0,3.0,-1.0,-1.0,0.0,1651086134915310.0
-2.0,0.0,-1.0,3.0,5.0,2.0,0.0,-1.0,1651086134915310.0
0.0,-1.0,-2.0,-4.0,-3.0,0.0,1.0,0.0,1651086134915310.0
1.0,0.0,-2.0,2.0,-5.0,-5.0,-1.0,0.0,1651086134929184.0
-2.0,4.0,5.0,0.0,-2.0,0.0,1.0,1.0,1651086134929184.0
0.0,-1.0,-2.0,-2.0,-2.0,-2.0,0.0,0.0,1651086134929184.0
-1.0,0.0,-2.0,0.0,2.0,0.0,-1.0,-1.0,1651086134929184.0
0.0,-2.0,-1.0,-4.0,1.0,0.0,2.0,-1.0,1651086134952240.0
0.0,-3.0,-3.0,2.0,-2.0,-1.0,-1.0,1.0,1651086134952240.0
-2.0,-1.0,3.0,-1.0,-1.0,0.0,2.0,0.0,1651086134953154.0
0.0,-1.0,0.0,0.0,1.0,2.0,0.0,1.0,1651086134953154.0
-3.0,-2.0,-1.0,0.0,0.0,0.0,-1.0,-1.0,1651086134975233.0
-1.0,-1.0,-8.0,-3.0,-2.0,-1.0,-2.0,0.0,1651086134975233.0
1.0,-1.0,-1.0,-3.0,-3.0,-1.0,-1.0,0.0,1651086134975233.0
-2.0,-2.0,4.0,0.0,-1.0,0.0,-1.0,-1.0,1651086134975233.0
1.0,-3.0,-6.0,-5.0,-2.0,-3.0,-1.0,-1.0,1651086134989218.0
2.0,3.0,8.0,3.0,4.0,1.0,3.0,0.0,1651086134989218.0
1.0,4.0,1.0,-1.0,-2.0,0.0,-1.0,0.0,1651086134989218.0
-1.0,-4.0,1.0,1.0,-2.0,-1.0,-1.0,0.0,1651086134989218.0
-3.0,-2.0,2.0,0.0,3.0,1.0,0.0,-2.0,1651086135012202.0
-1.0,-2.0,-3.0,-2.0,-5.0,-2.0,0.0,0.0,1651086135012202.0
1.0,0.0,0.0,0.0,3.0,3.0,1.0,-1.0,1651086135013196.0
0.0,4.0,2.0,2.0,0.0,-1.0,-1.0,0.0,1651086135013196.0
1.0,-5.0,-4.0,-7.0,-6.0,-3.0,-2.0,0.0,1651086135035251.0
-3.0,1.0,1.0,-3.0,-4.0,-5.0,-1.0,-3.0,1651086135035251.0
-3.0,0.0,-5.0,2.0,4.0,1.0,1.0,-1.0,1651086135035251.0
0.0,2.0,-1.0,-2.0,0.0,0.0,0.0,1.0,1651086135035251.0
0.0,1.0,2.0,0.0,-2.0,-1.0,-1.0,-2.0,1651086135049147.0
0.0,-2.0,-5.0,-2.0,0.0,-1.0,-2.0,-1.0,1651086135049147.0
-2.0,-3.0,3.0,-3.0,-5.0,-3.0,-1.0,-1.0,1651086135049147.0
-2.0,1.0,0.0,4.0,3.0,-1.0,-1.0,0.0,1651086135049147.0
-2.0,0.0,-1.0,0.0,1.0,0.0,0.0,2.0,1651086135072386.0
0.0,-1.0,2.0,-1.0,3.0,0.0,-2.0,-1.0,1651086135072386.0
-1.0,2.0,-2.0,-2.0,-2.0,0.0,0.0,0.0,1651086135073094.0
0.0,-2.0,-3.0,-2.0,-3.0,-2.0,-2.0,-2.0,1651086135073094.0
0.0,1.0,1.0,0.0,-4.0,-3.0,-1.0,0.0,1651086135110269.0
-1.0,-2.0,3.0,2.0,8.0,5.0,1.0,-1.0,1651086135110269.0
-1.0,-4.0,-15.0,-7.0,-5.0,-2.0,-2.0,-1.0,1651086135111316.0
0.0,-1.0,-3.0,3.0,1.0,-3.0,-1.0,0.0,1651086135111316.0
-2.0,5.0,8.0,2.0,4.0,3.0,1.0,-3.0,1651086135113269.0
0.0,-2.0,1.0,-1.0,1.0,0.0,0.0,0.0,1651086135113269.0
1.0,-1.0,3.0,0.0,-2.0,-3.0,-1.0,-1.0,1651086135116295.0
0.0,-2.0,-2.0,-1.0,1.0,3.0,1.0,-1.0,1651086135116295.0
1.0,3.0,-3.0,-4.0,-4.0,-6.0,-2.0,-1.0,1651086135131249.0
0.0,0.0,-2.0,-1.0,-3.0,-1.0,-1.0,1.0,1651086135131249.0
0.0,0.0,3.0,0.0,-1.0,0.0,0.0,-2.0,1651086135132251.0
1.0,-1.0,-4.0,0.0,1.0,1.0,0.0,0.0,1651086135132251.0
-1.0,3.0,2.0,0.0,-2.0,0.0,-2.0,-1.0,1651086135161348.0
-1.0,-8.0,0.0,4.0,7.0,5.0,2.0,-1.0,1651086135161348.0
0.0,-1.0,-3.0,0.0,1.0,-1.0,0.0,3.0,1651086135162386.0
0.0,2.0,1.0,-2.0,-4.0,-1.0,0.0,0.0,1651086135162386.0
0.0,-3.0,-4.0,-1.0,0.0,2.0,0.0,0.0,1651086135168338.0
0.0,3.0,-3.0,-5.0,-9.0,-4.0,-1.0,-2.0,1651086135168338.0
-1.0,0.0,4.0,3.0,8.0,2.0,-1.0,0.0,1651086135169332.0
-2.0,-6.0,-1.0,-3.0,-1.0,1.0,2.0,0.0,1651086135169332.0
-1.0,1.0,-1.0,2.0,-1.0,1.0,1.0,0.0,1651086135192334.0
-1.0,-2.0,0.0,1.0,-3.0,-4.0,-1.0,0.0,1651086135192334.0
-1.0,-2.0,-3.0,-3.0,-6.0,-3.0,1.0,0.0,1651086135193094.0
1.0,5.0,5.0,1.0,5.0,2.0,-1.0,0.0,1651086135193094.0
-1.0,-5.0,-4.0,0.0,0.0,0.0,0.0,0.0,1651086135222359.0
0.0,-2.0,-2.0,0.0,-3.0,1.0,0.0,-2.0,1651086135222359.0
-1.0,1.0,5.0,0.0,0.0,0.0,-1.0,-1.0,1651086135223082.0
-1.0,-1.0,-1.0,-1.0,-2.0,-1.0,0.0,-1.0,1651086135223082.0
-1.0,-2.0,-2.0,0.0,-1.0,-3.0,-2.0,-2.0,1651086135229073.0
-1.0,1.0,-1.0,0.0,-1.0,-3.0,-1.0,1.0,1651086135229073.0
-1.0,0.0,-2.0,-4.0,-1.0,-2.0,0.0,0.0,1651086135229073.0
0.0,-4.0,-4.0,0.0,0.0,2.0,-1.0,-1.0,1651086135229073.0
0.0,5.0,4.0,3.0,5.0,2.0,0.0,-1.0,1651086135252111.0
-3.0,-2.0,-1.0,-4.0,-3.0,-2.0,-2.0,-1.0,1651086135252111.0
0.0,-4.0,-1.0,1.0,1.0,3.0,1.0,-2.0,1651086135253145.0
1.0,0.0,2.0,1.0,2.0,1.0,-1.0,-1.0,1651086135253145.0
-1.0,-4.0,-11.0,-1.0,-4.0,-2.0,0.0,-1.0,1651086135275273.0
0.0,2.0,-1.0,0.0,-3.0,-2.0,0.0,0.0,1651086135275273.0
-1.0,0.0,0.0,-4.0,-4.0,-2.0,-3.0,0.0,1651086135275273.0
-1.0,-2.0,0.0,-3.0,-1.0,-2.0,-2.0,-2.0,1651086135275273.0
-1.0,-4.0,6.0,4.0,6.0,2.0,2.0,2.0,1651086135289171.0
1.0,6.0,-12.0,-1.0,2.0,0.0,0.0,-1.0,1651086135289171.0
-1.0,3.0,0.0,3.0,2.0,2.0,-1.0,1.0,1651086135289171.0
1.0,-1.0,0.0,-1.0,-3.0,-2.0,0.0,-1.0,1651086135289171.0
0.0,0.0,2.0,-3.0,-3.0,-1.0,-1.0,-2.0,1651086135312178.0
0.0,-5.0,1.0,-1.0,-3.0,-2.0,-1.0,-1.0,1651086135312178.0
0.0,0.0,-1.0,0.0,0.0,-1.0,0.0,0.0,1651086135313189.0
-2.0,3.0,0.0,-1.0,-4.0,-3.0,-1.0,1.0,1651086135313189.0
-2.0,-7.0,-5.0,-7.0,-6.0,-2.0,-1.0,0.0,1651086135335249.0
-1.0,4.0,9.0,10.0,7.0,2.0,1.0,2.0,1651086135335249.0
1.0,8.0,-1.0,1.0,2.0,4.0,1.0,-1.0,1651086135335249.0
-1.0,-7.0,2.0,-1.0,0.0,-2.0,0.0,0.0,1651086135335249.0
-1.0,-4.0,-3.0,-1.0,3.0,0.0,0.0,0.0,1651086135349212.0
1.0,-2.0,-4.0,-7.0,-6.0,-1.0,-1.0,-2.0,1651086135349212.0
-1.0,-3.0,-2.0,-2.0,-2.0,-3.0,-1.0,1.0,1651086135349212.0
-2.0,4.0,2.0,-2.0,-6.0,-2.0,0.0,-1.0,1651086135349212.0
-1.0,1.0,-7.0,2.0,10.0,5.0,1.0,1.0,1651086135371748.0
0.0,-3.0,-5.0,-2.0,3.0,3.0,-1.0,-1.0,1651086135371748.0
0.0,-4.0,-1.0,0.0,-1.0,0.0,0.0,0.0,1651086135372749.0
2.0,4.0,2.0,-2.0,-6.0,-3.0,-1.0,-1.0,1651086135372749.0
0.0,-1.0,3.0,3.0,1.0,0.0,-1.0,0.0,1651086135395205.0
0.0,0.0,-1.0,-1.0,-1.0,1.0,-1.0,0.0,1651086135395205.0
0.0,-1.0,-3.0,0.0,-2.0,-2.0,-1.0,-2.0,1651086135395205.0
-2.0,-15.0,-9.0,-1.0,-3.0,-1.0,-1.0,0.0,1651086135395205.0
1.0,13.0,6.0,-2.0,-3.0,0.0,0.0,-2.0,1651086135409223.0
-1.0,1.0,12.0,6.0,2.0,1.0,0.0,-1.0,1651086135409223.0
-1.0,-4.0,-5.0,-3.0,-3.0,-2.0,-1.0,0.0,1651086135409223.0
0.0,0.0,-1.0,1.0,5.0,1.0,0.0,0.0,1651086135409223.0
-1.0,-7.0,-5.0,-5.0,-1.0,0.0,-2.0,0.0,1651086135440246.0
-1.0,1.0,-5.0,0.0,-2.0,-4.0,-1.0,-1.0,1651086135440246.0
0.0,-1.0,6.0,2.0,4.0,-3.0,-1.0,-1.0,1651086135446235.0
-1.0,-3.0,3.0,-4.0,-4.0,2.0,-1.0,-1.0,1651086135446235.0
1.0,0.0,2.0,-8.0,-6.0,-2.0,-1.0,-1.0,1651086135454214.0
-1.0,-3.0,-14.0,-2.0,-2.0,-2.0,0.0,0.0,1651086135454214.0
0.0,4.0,7.0,1.0,3.0,3.0,-1.0,0.0,1651086135455211.0
0.0,1.0,-7.0,0.0,-2.0,-2.0,0.0,-2.0,1651086135455211.0
0.0,5.0,5.0,-2.0,2.0,1.0,-1.0,0.0,1651086135469174.0
0.0,-19.0,-2.0,-3.0,-4.0,-2.0,0.0,0.0,1651086135469174.0
-3.0,16.0,-1.0,-4.0,0.0,-1.0,0.0,-2.0,1651086135469174.0
-1.0,6.0,5.0,-4.0,-3.0,0.0,0.0,0.0,1651086135469174.0
-1.0,-6.0,3.0,5.0,0.0,-2.0,1.0,-1.0,1651086135492976.0
-2.0,0.0,-13.0,4.0,3.0,-2.0,2.0,-1.0,1651086135492976.0
0.0,-11.0,-2.0,-4.0,-3.0,0.0,-1.0,0.0,1651086135493098.0
-1.0,2.0,-4.0,-2.0,0.0,1.0,-1.0,-2.0,1651086135493098.0
0.0,6.0,0.0,0.0,-3.0,-3.0,1.0,0.0,1651086135515135.0
0.0,-4.0,1.0,-6.0,-6.0,-3.0,-2.0,0.0,1651086135515135.0
0.0,-9.0,-8.0,-2.0,-6.0,-1.0,-1.0,-2.0,1651086135515135.0
1.0,4.0,-1.0,2.0,8.0,-1.0,1.0,0.0,1651086135515135.0
2.0,5.0,8.0,-3.0,-4.0,1.0,2.0,2.0,1651086135529011.0
-2.0,-1.0,9.0,21.0,42.0,15.0,1.0,0.0,1651086135529011.0
-1.0,6.0,4.0,-2.0,-1.0,-3.0,-1.0,-2.0,1651086135530005.0
-2.0,-22.0,-7.0,16.0,26.0,10.0,2.0,1.0,1651086135530005.0
-4.0,-18.0,-15.0,-15.0,-12.0,-7.0,-4.0,-2.0,1651086135552112.0
0.0,23.0,17.0,-15.0,-24.0,-7.0,-3.0,-2.0,1651086135552112.0
1.0,-5.0,2.0,6.0,7.0,3.0,2.0,1.0,1651086135553152.0
1.0,-1.0,9.0,12.0,14.0,4.0,0.0,1.0,1651086135553152.0
-2.0,-3.0,-7.0,-2.0,1.0,-1.0,1.0,-1.0,1651086135574126.0
-2.0,-3.0,-2.0,-9.0,-13.0,-3.0,0.0,-2.0,1651086135574126.0
0.0,1.0,-2.0,-8.0,-13.0,-6.0,-3.0,-1.0,1651086135575050.0
-1.0,5.0,-6.0,-5.0,-9.0,-6.0,0.0,0.0,1651086135575050.0
3.0,6.0,0.0,5.0,0.0,1.0,-1.0,0.0,1651086135589105.0
-1.0,-9.0,-6.0,-5.0,3.0,1.0,0.0,1.0,1651086135589105.0
0.0,-13.0,0.0,9.0,9.0,3.0,0.0,-1.0,1651086135595995.0
-2.0,15.0,-7.0,-10.0,-23.0,-7.0,-3.0,-1.0,1651086135595995.0
0.0,-1.0,1.0,11.0,12.0,-3.0,0.0,0.0,1651086135611954.0
-1.0,-2.0,2.0,-10.0,-9.0,-3.0,-1.0,-1.0,1651086135611954.0
-1.0,-1.0,11.0,21.0,10.0,8.0,1.0,0.0,1651086135612948.0
-1.0,-7.0,0.0,-12.0,-14.0,-7.0,-3.0,-1.0,1651086135612948.0
0.0,-1.0,7.0,11.0,14.0,7.0,0.0,-1.0,1651086135634265.0
1.0,4.0,-23.0,-11.0,-16.0,-10.0,-2.0,-1.0,1651086135634265.0
-2.0,2.0,2.0,-11.0,-7.0,-2.0,1.0,0.0,1651086135635168.0
0.0,0.0,0.0,3.0,-8.0,-7.0,-2.0,-2.0,1651086135635168.0
-2.0,-2.0,7.0,-15.0,-5.0,-1.0,-1.0,1.0,1651086135648976.0
1.0,-5.0,-4.0,25.0,15.0,5.0,0.0,1.0,1651086135648976.0
-1.0,1.0,-13.0,-32.0,-16.0,-9.0,-5.0,-3.0,1651086135657273.0
0.0,1.0,7.0,23.0,20.0,8.0,2.0,1.0,1651086135657273.0
-1.0,2.0,-10.0,-10.0,-10.0,-3.0,-2.0,0.0,1651086135672491.0
0.0,2.0,9.0,2.0,4.0,3.0,-1.0,0.0,1651086135672491.0
0.0,-5.0,-11.0,-14.0,-19.0,-6.0,-2.0,0.0,1651086135672491.0
-1.0,6.0,4.0,10.0,-1.0,-1.0,-1.0,-1.0,1651086135672491.0
-1.0,-4.0,-1.0,-2.0,8.0,5.0,0.0,1.0,1651086135695193.0
-2.0,-3.0,-6.0,-14.0,-20.0,-8.0,-2.0,-2.0,1651086135695193.0
1.0,7.0,4.0,8.0,9.0,1.0,0.0,-1.0,1651086135695193.0
0.0,-4.0,17.0,7.0,14.0,10.0,3.0,1.0,1651086135695193.0
-2.0,0.0,-6.0,7.0,3.0,-5.0,-1.0,-3.0,1651086135717283.0
1.0,2.0,-6.0,-3.0,5.0,3.0,-1.0,2.0,1651086135717283.0
1.0,-3.0,2.0,-11.0,-31.0,-11.0,-5.0,-3.0,1651086135717283.0
-1.0,-2.0,-4.0,13.0,37.0,12.0,5.0,2.0,1651086135717283.0
1.0,-3.0,-8.0,-4.0,-13.0,-6.0,-2.0,-2.0,1651086135732339.0
0.0,4.0,12.0,3.0,-7.0,-4.0,-3.0,0.0,1651086135732339.0
2.0,4.0,-6.0,4.0,14.0,6.0,2.0,0.0,1651086135732339.0
-2.0,-4.0,-7.0,-15.0,-23.0,-10.0,-4.0,-2.0,1651086135732339.0
3.0,7.0,9.0,12.0,18.0,12.0,5.0,2.0,1651086135755448.0
-2.0,-8.0,41.0,9.0,-5.0,-2.0,-1.0,-1.0,1651086135755448.0
-2.0,-2.0,-47.0,-1.0,7.0,1.0,2.0,-1.0,1651086135755448.0
0.0,0.0,15.0,-4.0,-11.0,-9.0,-4.0,-1.0,1651086135755448.0
1.0,2.0,-2.0,-11.0,-14.0,-1.0,1.0,1.0,1651086135778156.0
1.0,3.0,-2.0,8.0,11.0,2.0,2.0,0.0,1651086135778156.0
-3.0,-8.0,3.0,0.0,3.0,-2.0,-1.0,1.0,1651086135780153.0
0.0,2.0,1.0,-18.0,-13.0,0.0,1.0,0.0,1651086135780153.0
-3.0,-4.0,-15.0,16.0,-3.0,-4.0,-4.0,-4.0,1651086135792198.0
1.0,2.0,2.0,7.0,25.0,8.0,2.0,1.0,1651086135792198.0
0.0,6.0,24.0,14.0,1.0,2.0,-2.0,2.0,1651086135793135.0
0.0,-8.0,-31.0,-6.0,21.0,3.0,0.0,1.0,1651086135793135.0
-2.0,2.0,19.0,5.0,-15.0,-1.0,2.0,0.0,1651086135822416.0
-3.0,-2.0,-25.0,-23.0,-8.0,-5.0,-5.0,-3.0,1651086135822416.0
1.0,3.0,16.0,13.0,6.0,0.0,0.0,1.0,1651086135823092.0
1.0,4.0,32.0,2.0,-21.0,-3.0,-1.0,0.0,1651086135823092.0
0.0,1.0,3.0,12.0,17.0,7.0,1.0,0.0,1651086135828114.0
0.0,-4.0,-5.0,-9.0,-11.0,-3.0,1.0,0.0,1651086135828114.0
-2.0,-1.0,14.0,15.0,6.0,-1.0,-2.0,-3.0,1651086135836099.0
-1.0,3.0,0.0,-6.0,-18.0,-8.0,-3.0,-3.0,1651086135836099.0
0.0,-7.0,-6.0,2.0,6.0,-2.0,-1.0,-1.0,1651086135852146.0
1.0,3.0,-14.0,-11.0,1.0,5.0,1.0,3.0,1651086135852146.0
-1.0,-2.0,14.0,2.0,-5.0,4.0,1.0,-1.0,1651086135852146.0
2.0,-4.0,-19.0,-5.0,4.0,-2.0,-1.0,1.0,1651086135852146.0
-1.0,0.0,-5.0,-7.0,4.0,0.0,-2.0,-2.0,1651086135875340.0
1.0,2.0,10.0,3.0,-8.0,-2.0,1.0,1.0,1651086135875340.0
-2.0,-3.0,-9.0,-14.0,-7.0,-2.0,2.0,1.0,1651086135881270.0
-2.0,-1.0,-6.0,3.0,2.0,1.0,-1.0,0.0,1651086135881270.0
-3.0,-1.0,4.0,1.0,-10.0,-11.0,-7.0,-2.0,1651086135888249.0
0.0,-1.0,6.0,6.0,20.0,11.0,3.0,1.0,1651086135888249.0
-3.0,-1.0,-10.0,-6.0,0.0,-1.0,0.0,0.0,1651086135896195.0
-1.0,-4.0,-27.0,-22.0,-8.0,-1.0,-1.0,-1.0,1651086135896195.0
0.0,-1.0,17.0,10.0,3.0,2.0,0.0,2.0,1651086135912294.0
-2.0,-2.0,-14.0,-9.0,-10.0,-5.0,-4.0,0.0,1651086135912294.0
-1.0,-3.0,-11.0,-19.0,-7.0,-6.0,-4.0,-3.0,1651086135912294.0
1.0,3.0,0.0,26.0,14.0,4.0,-1.0,0.0,1651086135912294.0
-2.0,0.0,4.0,-7.0,-4.0,-1.0,-1.0,-2.0,1651086135943099.0
-1.0,0.0,-1.0,11.0,-3.0,-3.0,0.0,-2.0,1651086135943099.0
0.0,-3.0,-12.0,-7.0,5.0,0.0,0.0,2.0,1651086135943099.0
0.0,-2.0,-16.0,-18.0,-11.0,-2.0,1.0,1.0,1651086135943099.0
1.0,-2.0,14.0,6.0,-3.0,-3.0,-4.0,1.0,1651086135965276.0
-3.0,0.0,0.0,-8.0,0.0,1.0,1.0,-2.0,1651086135965276.0
1.0,6.0,14.0,28.0,16.0,8.0,8.0,3.0,1651086135965276.0
-3.0,-1.0,-17.0,-10.0,-6.0,-7.0,-8.0,-3.0,1651086135965276.0
0.0,-6.0,-8.0,-7.0,-5.0,-2.0,2.0,1.0,1651086135972194.0
-2.0,-2.0,2.0,1.0,-3.0,-3.0,-5.0,-4.0,1651086135972194.0
2.0,1.0,15.0,13.0,1.0,0.0,-2.0,-3.0,1651086135972194.0
1.0,0.0,9.0,-5.0,4.0,7.0,4.0,-1.0,1651086135972194.0
0.0,1.0,-16.0,3.0,9.0,4.0,2.0,1.0,1651086135995179.0
2.0,1.0,-6.0,-5.0,-2.0,0.0,3.0,3.0,1651086135995179.0
-1.0,0.0,3.0,-14.0,-3.0,-3.0,-2.0,-3.0,1651086135995179.0
-2.0,-3.0,33.0,36.0,1.0,1.0,2.0,-1.0,1651086135995179.0
-2.0,1.0,-14.0,-25.0,-4.0,-1.0,-1.0,-4.0,1651086136016423.0
2.0,0.0,-6.0,2.0,-4.0,-2.0,0.0,1.0,1651086136016423.0
-2.0,-4.0,-4.0,-4.0,-2.0,0.0,-1.0,-1.0,1651086136024487.0
1.0,4.0,1.0,-2.0,-2.0,1.0,1.0,0.0,1651086136024487.0
2.0,1.0,15.0,16.0,-1.0,0.0,-1.0,0.0,1651086136031577.0
-4.0,-7.0,-16.0,-19.0,-4.0,-3.0,-6.0,-4.0,1651086136031577.0
-12.0,-2.0,-2.0,14.0,2.0,1.0,-1.0,0.0,1651086136031577.0
7.0,0.0,-8.0,-19.0,-6.0,-3.0,-3.0,-6.0,1651086136031577.0
4.0,3.0,-1.0,4.0,-1.0,-1.0,-3.0,-1.0,1651086136054398.0
3.0,5.0,6.0,23.0,4.0,1.0,3.0,12.0,1651086136054398.0
-3.0,-4.0,-8.0,-8.0,-2.0,-2.0,-5.0,-4.0,1651086136061380.0
2.0,-1.0,2.0,-5.0,0.0,4.0,2.0,3.0,1651086136061380.0
-6.0,-1.0,10.0,13.0,1.0,-1.0,0.0,-10.0,1651086136077757.0
6.0,-2.0,-14.0,-10.0,-4.0,-5.0,-5.0,11.0,1651086136077757.0
4.0,-4.0,-1.0,-7.0,-4.0,1.0,1.0,-1.0,1651086136077757.0
-5.0,-2.0,-4.0,3.0,-2.0,-5.0,-7.0,-2.0,1651086136077757.0
0.0,2.0,5.0,-6.0,0.0,2.0,2.0,6.0,1651086136091569.0
-6.0,-1.0,18.0,14.0,0.0,-1.0,1.0,-14.0,1651086136091569.0
13.0,0.0,-29.0,-17.0,-1.0,1.0,1.0,2.0,1651086136099554.0
-10.0,-2.0,-5.0,-3.0,1.0,2.0,1.0,-6.0,1651086136099554.0
-4.0,-3.0,-12.0,-12.0,-4.0,-4.0,0.0,5.0,1651086136114745.0
-7.0,3.0,32.0,9.0,5.0,4.0,0.0,-11.0,1651086136114745.0
3.0,2.0,-4.0,-4.0,-5.0,0.0,0.0,-2.0,1651086136115648.0
0.0,0.0,11.0,11.0,-1.0,1.0,5.0,4.0,1651086136115648.0
-1.0,-2.0,-11.0,-1.0,-1.0,-5.0,-3.0,-3.0,1651086136137250.0
-4.0,-2.0,-5.0,-3.0,-2.0,-1.0,2.0,4.0,1651086136137250.0
2.0,0.0,-5.0,5.0,1.0,0.0,2.0,1.0,1651086136138149.0
-5.0,-2.0,7.0,-5.0,-6.0,-4.0,-6.0,-2.0,1651086136138149.0
-4.0,0.0,-2.0,-8.0,-4.0,3.0,0.0,0.0,1651086136151208.0
3.0,1.0,8.0,7.0,1.0,-2.0,-1.0,-4.0,1651086136151208.0
0.0,0.0,-1.0,2.0,8.0,4.0,6.0,2.0,1651086136159185.0
-1.0,-1.0,9.0,2.0,0.0,-1.0,0.0,0.0,1651086136159185.0
3.0,-2.0,-38.0,-18.0,-7.0,-1.0,3.0,3.0,1651086136183320.0
1.0,1.0,-1.0,-9.0,-10.0,-2.0,-1.0,-3.0,1651086136183320.0
-1.0,3.0,31.0,19.0,16.0,2.0,-5.0,-2.0,1651086136184229.0
-3.0,-5.0,-23.0,-6.0,9.0,5.0,6.0,1.0,1651086136184229.0
-1.0,1.0,0.0,8.0,-5.0,-3.0,-2.0,-1.0,1651086136197225.0
3.0,-2.0,-8.0,-9.0,-6.0,-3.0,-1.0,0.0,1651086136197225.0
-4.0,-1.0,0.0,-13.0,-9.0,-4.0,2.0,1.0,1651086136198190.0
3.0,-3.0,16.0,15.0,2.0,-1.0,-1.0,1.0,1651086136198190.0
0.0,-2.0,-16.0,-2.0,2.0,-2.0,0.0,-1.0,1651086136210161.0
1.0,1.0,3.0,0.0,1.0,3.0,2.0,0.0,1651086136210161.0
-1.0,-1.0,2.0,2.0,-4.0,-3.0,-3.0,-4.0,1651086136219159.0
-8.0,2.0,11.0,-4.0,-3.0,-3.0,-1.0,-2.0,1651086136219159.0
2.0,-3.0,-13.0,1.0,-1.0,1.0,-2.0,0.0,1651086136234164.0
-5.0,-2.0,-1.0,10.0,9.0,6.0,2.0,0.0,1651086136234164.0
5.0,0.0,12.0,7.0,0.0,0.0,1.0,2.0,1651086136236111.0
-2.0,-2.0,-11.0,-8.0,-1.0,0.0,-3.0,-5.0,1651086136236111.0
1.0,1.0,17.0,-4.0,-7.0,-1.0,0.0,0.0,1651086136257306.0
3.0,1.0,-14.0,-5.0,-3.0,-3.0,-3.0,-1.0,1651086136257306.0
-2.0,1.0,-1.0,6.0,12.0,3.0,0.0,0.0,1651086136258311.0
1.0,-4.0,-18.0,-13.0,-8.0,-2.0,0.0,2.0,1651086136258311.0
-5.0,4.0,24.0,23.0,11.0,0.0,-4.0,-4.0,1651086136271404.0
-2.0,-3.0,10.0,-5.0,7.0,2.0,1.0,-1.0,1651086136271404.0
7.0,-1.0,-15.0,-13.0,-12.0,-6.0,-1.0,1.0,1651086136279387.0
4.0,4.0,3.0,7.0,-1.0,-2.0,-1.0,-1.0,1651086136279387.0
-1.0,0.0,5.0,-18.0,-4.0,1.0,2.0,-1.0,1651086136294256.0
1.0,3.0,15.0,14.0,4.0,7.0,5.0,0.0,1651086136294256.0
-10.0,-5.0,-14.0,-6.0,-7.0,-8.0,-7.0,-4.0,1651086136296160.0
6.0,1.0,9.0,-10.0,0.0,1.0,-1.0,1.0,1651086136296160.0
-1.0,-4.0,0.0,-1.0,4.0,-2.0,-1.0,-1.0,1651086136317336.0
-3.0,2.0,9.0,7.0,0.0,1.0,0.0,-1.0,1651086136317336.0
-1.0,0.0,-5.0,11.0,6.0,10.0,6.0,0.0,1651086136318237.0
1.0,-1.0,-5.0,-10.0,-4.0,-3.0,0.0,1.0,1651086136318237.0
2.0,0.0,-1.0,-7.0,1.0,1.0,-1.0,2.0,1651086136330273.0
0.0,-4.0,-13.0,-8.0,-8.0,-6.0,-5.0,-2.0,1651086136330273.0
-1.0,2.0,25.0,22.0,-2.0,0.0,1.0,-2.0,1651086136339151.0
0.0,0.0,2.0,4.0,3.0,-3.0,-4.0,1.0,1651086136339151.0
-1.0,1.0,-2.0,-7.0,4.0,5.0,5.0,-1.0,1651086136356288.0
-2.0,-2.0,-26.0,-16.0,-4.0,0.0,0.0,0.0,1651086136356288.0
-3.0,-1.0,20.0,13.0,-4.0,-2.0,-1.0,-1.0,1651086136357210.0
2.0,-1.0,-15.0,-4.0,4.0,3.0,3.0,-1.0,1651086136357210.0
-2.0,-4.0,4.0,-6.0,-9.0,-7.0,-3.0,1.0,1651086136377381.0
-1.0,0.0,19.0,4.0,3.0,-2.0,-2.0,0.0,1651086136377381.0
1.0,2.0,-18.0,-10.0,-4.0,-4.0,-2.0,0.0,1651086136378278.0
-2.0,-3.0,-7.0,-2.0,-8.0,-5.0,-1.0,0.0,1651086136378278.0
0.0,-1.0,-2.0,10.0,0.0,1.0,2.0,0.0,1651086136390253.0
-3.0,2.0,10.0,7.0,6.0,0.0,0.0,-1.0,1651086136390253.0
1.0,-3.0,-7.0,-8.0,-2.0,-1.0,-2.0,1.0,1651086136399226.0
-4.0,2.0,16.0,6.0,4.0,3.0,2.0,-2.0,1651086136399226.0
3.0,0.0,-19.0,-6.0,-7.0,-3.0,-1.0,-2.0,1651086136414220.0
4.0,1.0,-2.0,1.0,1.0,-1.0,1.0,-2.0,1651086136414220.0
-3.0,-4.0,-15.0,-15.0,-2.0,-1.0,-1.0,-2.0,1651086136416139.0
0.0,0.0,11.0,10.0,-6.0,-2.0,-2.0,0.0,1651086136416139.0
0.0,-1.0,-8.0,-11.0,4.0,1.0,-1.0,-3.0,1651086136437313.0
4.0,1.0,-5.0,15.0,3.0,-1.0,-2.0,2.0,1651086136437313.0
1.0,-1.0,-3.0,-5.0,3.0,3.0,1.0,3.0,1651086136438316.0
0.0,-2.0,-7.0,-4.0,-4.0,-2.0,-1.0,-2.0,1651086136438316.0
-4.0,0.0,9.0,4.0,5.0,8.0,3.0,0.0,1651086136459154.0
-1.0,-3.0,-9.0,-7.0,-6.0,-4.0,-1.0,-2.0,1651086136459154.0
-1.0,-1.0,20.0,-2.0,-3.0,-2.0,-3.0,-1.0,1651086136461154.0
1.0,0.0,-12.0,-9.0,2.0,2.0,2.0,3.0,1651086136461154.0
-4.0,-1.0,28.0,30.0,-3.0,-5.0,-5.0,-4.0,1651086136474192.0
-3.0,-2.0,-9.0,-6.0,-7.0,-1.0,0.0,3.0,1651086136474192.0
5.0,0.0,-3.0,-2.0,5.0,1.0,2.0,-1.0,1651086136476113.0
-1.0,-2.0,-2.0,0.0,-4.0,-5.0,0.0,0.0,1651086136476113.0
3.0,1.0,-5.0,-11.0,-3.0,-2.0,-2.0,1.0,1651086136497836.0
-1.0,0.0,-7.0,0.0,-2.0,-2.0,0.0,-2.0,1651086136497836.0
-4.0,0.0,3.0,0.0,-2.0,-1.0,-1.0,-1.0,1651086136498840.0
1.0,-1.0,-8.0,-1.0,-2.0,0.0,-1.0,-1.0,1651086136498840.0
1.0,2.0,-2.0,-1.0,-1.0,-3.0,-2.0,-4.0,1651086136510918.0
-2.0,-6.0,-15.0,-9.0,3.0,-1.0,2.0,1.0,1651086136510918.0
-2.0,-1.0,3.0,-25.0,-5.0,-3.0,-2.0,-1.0,1651086136519935.0
0.0,1.0,16.0,41.0,7.0,4.0,-1.0,-2.0,1651086136519935.0
0.0,2.0,13.0,15.0,12.0,1.0,-2.0,3.0,1651086136534114.0
-1.0,-1.0,-8.0,-14.0,-3.0,0.0,-2.0,0.0,1651086136534114.0
1.0,3.0,0.0,20.0,3.0,1.0,1.0,0.0,1651086136536039.0
-2.0,-6.0,-21.0,-35.0,-9.0,-4.0,-2.0,0.0,1651086136536039.0
-2.0,0.0,14.0,5.0,2.0,4.0,4.0,3.0,1651086136557386.0
9.0,-2.0,-2.0,5.0,-1.0,-5.0,-7.0,0.0,1651086136557386.0
0.0,2.0,-7.0,-11.0,-4.0,0.0,-1.0,2.0,1651086136558389.0
-1.0,2.0,11.0,-8.0,3.0,1.0,-1.0,-3.0,1651086136558389.0
-3.0,-2.0,-7.0,22.0,-1.0,1.0,3.0,0.0,1651086136570394.0
-1.0,-2.0,-6.0,-14.0,-3.0,0.0,2.0,1.0,1651086136570394.0
-1.0,1.0,14.0,26.0,0.0,-4.0,-6.0,-10.0,1651086136587137.0
2.0,0.0,-3.0,-5.0,3.0,2.0,0.0,-1.0,1651086136587137.0
2.0,1.0,-4.0,-10.0,-2.0,-1.0,1.0,1.0,1651086136594155.0
-5.0,-3.0,0.0,-3.0,0.0,2.0,-1.0,-4.0,1651086136594155.0
4.0,-2.0,-12.0,-10.0,-5.0,-1.0,2.0,4.0,1651086136596112.0
-8.0,1.0,6.0,7.0,3.0,-1.0,0.0,-1.0,1651086136596112.0
3.0,-3.0,-15.0,-9.0,-3.0,-1.0,0.0,3.0,1651086136617245.0
-1.0,1.0,19.0,8.0,-2.0,-2.0,-3.0,-8.0,1651086136617245.0
-3.0,-1.0,-6.0,-3.0,-1.0,0.0,-1.0,-1.0,1651086136618167.0
1.0,0.0,2.0,-7.0,-6.0,-3.0,-1.0,0.0,1651086136618167.0
0.0,0.0,-7.0,1.0,13.0,7.0,1.0,1.0,1651086136631222.0
-4.0,4.0,35.0,27.0,6.0,6.0,4.0,3.0,1651086136631222.0
-2.0,-4.0,-12.0,-16.0,0.0,1.0,-1.0,-1.0,1651086136639165.0
1.0,3.0,29.0,12.0,-2.0,-1.0,0.0,-1.0,1651086136639165.0
-4.0,-8.0,-65.0,-31.0,-15.0,-8.0,-5.0,-5.0,1651086136655341.0
3.0,1.0,3.0,-2.0,1.0,-2.0,0.0,2.0,1651086136655341.0
-2.0,0.0,-6.0,-13.0,-8.0,-4.0,-4.0,-4.0,1651086136656283.0
0.0,1.0,17.0,24.0,6.0,2.0,1.0,4.0,1651086136656283.0
2.0,0.0,21.0,4.0,2.0,-1.0,2.0,-1.0,1651086136677712.0
-1.0,-2.0,0.0,-7.0,1.0,4.0,1.0,-1.0,1651086136677712.0
-1.0,0.0,-6.0,2.0,1.0,-2.0,0.0,3.0,1651086136683355.0
-2.0,-2.0,-2.0,-4.0,-5.0,-5.0,-5.0,-2.0,1651086136683355.0
-1.0,0.0,-2.0,-10.0,-1.0,-2.0,-3.0,-2.0,1651086136691394.0
0.0,-1.0,-2.0,11.0,2.0,1.0,-1.0,-1.0,1651086136691394.0
-3.0,-1.0,18.0,-1.0,-3.0,1.0,2.0,-1.0,1651086136707242.0
-2.0,-5.0,-16.0,-3.0,2.0,-1.0,-3.0,-3.0,1651086136707242.0
2.0,3.0,11.0,5.0,-1.0,0.0,3.0,1.0,1651086136715219.0
-2.0,-4.0,-36.0,-41.0,-14.0,-6.0,-1.0,1.0,1651086136715219.0
-1.0,-3.0,23.0,31.0,8.0,-1.0,-4.0,0.0,1651086136716130.0
-8.0,3.0,22.0,26.0,15.0,4.0,2.0,-4.0,1651086136716130.0
7.0,0.0,-16.0,-15.0,-8.0,-6.0,-5.0,-3.0,1651086136737414.0
-2.0,-1.0,10.0,2.0,-3.0,-3.0,-5.0,-1.0,1651086136737414.0
1.0,0.0,-11.0,-9.0,-5.0,-3.0,-2.0,-2.0,1651086136738419.0
2.0,-3.0,-11.0,-12.0,-3.0,0.0,2.0,0.0,1651086136738419.0
-4.0,0.0,12.0,11.0,-1.0,-3.0,-3.0,0.0,1651086136750584.0
-2.0,3.0,1.0,10.0,3.0,1.0,3.0,-2.0,1651086136750584.0
3.0,1.0,-6.0,-9.0,0.0,5.0,3.0,5.0,1651086136759166.0
5.0,-3.0,6.0,17.0,5.0,1.0,-2.0,0.0,1651086136759166.0
-6.0,-1.0,-1.0,-7.0,-5.0,-3.0,-1.0,-2.0,1651086136775287.0
2.0,0.0,3.0,3.0,-2.0,-2.0,0.0,-1.0,1651086136775287.0
-3.0,-2.0,-17.0,-2.0,3.0,2.0,1.0,1.0,1651086136776250.0
1.0,3.0,-8.0,-7.0,-2.0,2.0,1.0,2.0,1651086136776250.0
-2.0,-1.0,-2.0,-9.0,-8.0,-4.0,-3.0,-2.0,1651086136797277.0
0.0,-2.0,0.0,-2.0,-4.0,0.0,2.0,2.0,1651086136797277.0
-2.0,1.0,13.0,23.0,24.0,5.0,4.0,-2.0,1651086136798280.0
2.0,-1.0,-1.0,-7.0,-6.0,-2.0,-5.0,-3.0,1651086136798280.0
-3.0,-2.0,-17.0,-7.0,-4.0,-1.0,-1.0,-1.0,1651086136811336.0
5.0,2.0,12.0,8.0,-3.0,-3.0,-2.0,-1.0,1651086136811336.0
-1.0,-1.0,3.0,-6.0,-9.0,-3.0,1.0,0.0,1651086136827157.0
-5.0,-5.0,-27.0,-5.0,1.0,-1.0,1.0,-3.0,1651086136827157.0
0.0,-1.0,13.0,-14.0,-2.0,-2.0,-2.0,-1.0,1651086136834235.0
-4.0,-1.0,-18.0,2.0,4.0,0.0,-2.0,0.0,1651086136834235.0
-5.0,-2.0,7.0,-6.0,1.0,3.0,1.0,-2.0,1651086136836134.0
8.0,3.0,-3.0,13.0,3.0,1.0,2.0,4.0,1651086136836134.0
-1.0,-1.0,-9.0,-14.0,-7.0,-4.0,-4.0,-1.0,1651086136857465.0
-3.0,-1.0,21.0,19.0,0.0,-1.0,-1.0,-3.0,1651086136857465.0
-1.0,0.0,-4.0,11.0,9.0,1.0,-1.0,-1.0,1651086136858504.0
-3.0,3.0,2.0,-18.0,-5.0,1.0,1.0,-1.0,1651086136858504.0
1.0,-5.0,-4.0,9.0,6.0,2.0,-1.0,8.0,1651086136870466.0
-6.0,-2.0,-6.0,-16.0,-2.0,1.0,1.0,-9.0,1651086136870466.0
7.0,-1.0,-4.0,10.0,-8.0,-3.0,-2.0,0.0,1651086136879412.0
-2.0,-3.0,8.0,-1.0,4.0,-2.0,-1.0,-3.0,1651086136879412.0
1.0,8.0,8.0,4.0,1.0,0.0,2.0,1.0,1651086136894266.0
-1.0,-3.0,-30.0,-19.0,-4.0,-3.0,-2.0,3.0,1651086136894266.0
-2.0,1.0,25.0,7.0,-6.0,-3.0,0.0,-1.0,1651086136896166.0
-1.0,-2.0,12.0,4.0,0.0,3.0,0.0,-2.0,1651086136896166.0
-4.0,-4.0,-8.0,5.0,1.0,3.0,3.0,-3.0,1651086136917325.0
2.0,4.0,1.0,4.0,4.0,-1.0,-2.0,1.0,1651086136917325.0
-2.0,-2.0,-26.0,-20.0,-9.0,-3.0,1.0,-1.0,1651086136918328.0
6.0,-2.0,-4.0,-5.0,-5.0,-2.0,-2.0,1.0,1651086136918328.0
-3.0,-3.0,-2.0,7.0,5.0,3.0,2.0,-3.0,1651086136940242.0
0.0,0.0,0.0,-4.0,-1.0,1.0,-3.0,-1.0,1651086136940242.0
1.0,0.0,-6.0,-1.0,-5.0,-4.0,-2.0,2.0,1651086136941148.0
-4.0,4.0,-1.0,-10.0,-2.0,-2.0,1.0,-1.0,1651086136941148.0
-4.0,-6.0,4.0,10.0,0.0,-1.0,-5.0,-6.0,1651086136962231.0
0.0,-4.0,-27.0,-2.0,5.0,3.0,5.0,0.0,1651086136962231.0
0.0,-4.0,7.0,-7.0,-5.0,-3.0,-2.0,1.0,1651086136963278.0
-3.0,-1.0,-18.0,-8.0,-2.0,-1.0,-2.0,-1.0,1651086136963278.0
4.0,5.0,12.0,-13.0,1.0,3.0,1.0,-1.0,1651086136985264.0
-4.0,-8.0,-13.0,7.0,-7.0,-6.0,-3.0,0.0,1651086136985264.0
0.0,2.0,9.0,8.0,15.0,5.0,1.0,-2.0,1651086136986169.0
-1.0,-7.0,-2.0,2.0,-3.0,0.0,-1.0,-2.0,1651086136986169.0
0.0,4.0,-15.0,-28.0,-1.0,-1.0,2.0,1.0,1651086136999135.0
-1.0,-4.0,2.0,3.0,-7.0,-6.0,-4.0,0.0,1651086136999135.0
-1.0,-3.0,-22.0,-16.0,-8.0,0.0,-1.0,-4.0,1651086137001127.0
0.0,-2.0,-9.0,0.0,3.0,0.0,0.0,5.0,1651086137001127.0
-7.0,-1.0,31.0,12.0,-3.0,-1.0,-1.0,-13.0,1651086137013133.0
1.0,3.0,2.0,6.0,6.0,3.0,3.0,1.0,1651086137013133.0
0.0,1.0,0.0,-7.0,-1.0,-1.0,-3.0,1.0,1651086137022070.0
0.0,-2.0,-16.0,2.0,-3.0,-3.0,0.0,-1.0,1651086137022070.0
1.0,-2.0,7.0,11.0,0.0,-4.0,1.0,3.0,1651086137037987.0
1.0,-9.0,-2.0,-7.0,-7.0,-3.0,-1.0,1.0,1651086137037987.0
-2.0,7.0,13.0,5.0,8.0,0.0,-1.0,-3.0,1651086137038992.0
0.0,-1.0,-3.0,-12.0,-9.0,-2.0,0.0,-1.0,1651086137038992.0
4.0,5.0,13.0,1.0,3.0,4.0,0.0,3.0,1651086137059932.0
-1.0,0.0,11.0,21.0,7.0,-1.0,-1.0,0.0,1651086137059932.0
-1.0,-7.0,-16.0,-10.0,-11.0,-1.0,1.0,-2.0,1651086137060929.0
-2.0,11.0,4.0,5.0,3.0,-1.0,1.0,-2.0,1651086137060929.0
0.0,0.0,-6.0,9.0,-4.0,-3.0,-1.0,1.0,1651086137073895.0
3.0,15.0,23.0,-14.0,-1.0,3.0,-2.0,0.0,1651086137073895.0
-4.0,-18.0,-23.0,-1.0,-6.0,-2.0,-1.0,-3.0,1651086137080878.0
0.0,9.0,7.0,-1.0,-1.0,-1.0,-1.0,-1.0,1651086137080878.0
1.0,-6.0,3.0,-2.0,-6.0,-3.0,-1.0,0.0,1651086137105175.0
0.0,4.0,-2.0,-8.0,1.0,-1.0,0.0,1.0,1651086137105175.0
2.0,-5.0,2.0,10.0,-1.0,-2.0,-2.0,2.0,1651086137106141.0
0.0,-4.0,-2.0,-9.0,-8.0,-2.0,-1.0,-3.0,1651086137106141.0
1.0,5.0,0.0,10.0,4.0,0.0,0.0,1.0,1651086137120304.0
1.0,-4.0,1.0,-4.0,-4.0,-1.0,1.0,1.0,1651086137120304.0
-2.0,17.0,8.0,7.0,10.0,6.0,0.0,1.0,1651086137121198.0
-3.0,-12.0,-6.0,-5.0,-3.0,-2.0,1.0,-1.0,1651086137121198.0
1.0,1.0,1.0,0.0,5.0,0.0,1.0,0.0,1651086137143094.0
-2.0,1.0,7.0,2.0,-4.0,-3.0,-2.0,-2.0,1651086137143094.0
2.0,-2.0,2.0,-1.0,-8.0,-3.0,0.0,-1.0,1651086137144132.0
-3.0,-14.0,-11.0,-11.0,-6.0,-1.0,-1.0,0.0,1651086137144132.0
-3.0,-15.0,-8.0,14.0,14.0,4.0,1.0,0.0,1651086137157267.0
-2.0,5.0,8.0,-2.0,-1.0,-1.0,-2.0,-2.0,1651086137157267.0
0.0,5.0,8.0,-1.0,3.0,-1.0,-1.0,-2.0,1651086137158270.0
4.0,-2.0,-3.0,0.0,-2.0,0.0,-2.0,1.0,1651086137158270.0
-1.0,1.0,-1.0,-3.0,-6.0,-4.0,-3.0,-1.0,1651086137179391.0
-5.0,-14.0,-9.0,3.0,4.0,2.0,2.0,-2.0,1651086137179391.0
5.0,7.0,-1.0,-8.0,-7.0,-2.0,-2.0,-1.0,1651086137181376.0
0.0,0.0,5.0,2.0,3.0,-1.0,0.0,0.0,1651086137181376.0
0.0,0.0,1.0,0.0,-1.0,1.0,3.0,7.0,1651086137194405.0
-5.0,2.0,-8.0,1.0,1.0,3.0,-2.0,-22.0,1651086137194405.0
-4.0,-4.0,3.0,-1.0,-8.0,-4.0,-1.0,3.0,1651086137200335.0
2.0,3.0,1.0,6.0,5.0,2.0,0.0,1.0,1651086137200335.0
-3.0,2.0,1.0,-3.0,-2.0,-3.0,-3.0,-2.0,1651086137217479.0
3.0,-11.0,-6.0,0.0,1.0,-2.0,1.0,7.0,1651086137217479.0
-5.0,-11.0,1.0,-4.0,-2.0,-1.0,0.0,-2.0,1651086137218384.0
0.0,11.0,2.0,4.0,2.0,0.0,-2.0,-3.0,1651086137218384.0
-2.0,-7.0,1.0,0.0,-1.0,0.0,1.0,4.0,1651086137240232.0
2.0,4.0,-5.0,-1.0,-3.0,-2.0,0.0,3.0,1651086137240232.0
3.0,6.0,-2.0,-1.0,2.0,1.0,0.0,-2.0,1651086137241143.0
-4.0,-1.0,7.0,-2.0,-2.0,-2.0,-1.0,1.0,1651086137241143.0
2.0,-1.0,-14.0,-5.0,-4.0,-2.0,-2.0,-4.0,1651086137253208.0
-7.0,-12.0,-6.0,-2.0,1.0,1.0,0.0,4.0,1651086137253208.0
4.0,5.0,6.0,10.0,5.0,2.0,0.0,-2.0,1651086137269167.0
2.0,7.0,0.0,-5.0,-1.0,0.0,-1.0,0.0,1651086137269167.0
-2.0,0.0,-1.0,-9.0,-9.0,-2.0,-1.0,-1.0,1651086137277850.0
3.0,0.0,7.0,-1.0,-1.0,0.0,-2.0,0.0,1651086137277850.0
-6.0,-2.0,-9.0,-3.0,2.0,1.0,0.0,0.0,1651086137278196.0
0.0,-11.0,0.0,5.0,3.0,3.0,-1.0,-1.0,1651086137278196.0
0.0,7.0,6.0,3.0,-1.0,-2.0,-2.0,-2.0,1651086137300272.0
6.0,9.0,6.0,0.0,2.0,-2.0,1.0,6.0,1651086137300272.0
-1.0,-7.0,-10.0,-10.0,-5.0,-2.0,-2.0,-4.0,1651086137301207.0
-1.0,-3.0,-5.0,0.0,3.0,0.0,0.0,1.0,1651086137301207.0
-2.0,-2.0,-13.0,1.0,2.0,1.0,2.0,-2.0,1651086137329908.0
0.0,7.0,8.0,-2.0,-3.0,0.0,0.0,0.0,1651086137329908.0
0.0,-1.0,0.0,4.0,4.0,0.0,1.0,1.0,1651086137330913.0
-3.0,-6.0,-1.0,-9.0,-10.0,-6.0,-2.0,-2.0,1651086137330913.0
0.0,-1.0,3.0,0.0,-1.0,-1.0,-2.0,0.0,1651086137336930.0
-2.0,3.0,-5.0,-3.0,6.0,4.0,2.0,-1.0,1651086137336930.0
1.0,0.0,10.0,5.0,-1.0,-1.0,0.0,-2.0,1651086137338921.0
0.0,-1.0,7.0,-2.0,0.0,1.0,0.0,1.0,1651086137338921.0
-2.0,1.0,0.0,2.0,-2.0,-2.0,1.0,1.0,1651086137359968.0
-2.0,-12.0,-4.0,-3.0,-4.0,-2.0,-1.0,-2.0,1651086137359968.0
-1.0,6.0,-3.0,-2.0,-1.0,-1.0,0.0,0.0,1651086137360876.0
0.0,-6.0,-3.0,3.0,4.0,1.0,0.0,-1.0,1651086137360876.0
0.0,9.0,9.0,3.0,-1.0,0.0,-1.0,0.0,1651086137382722.0
0.0,-3.0,0.0,-1.0,2.0,0.0,-1.0,0.0,1651086137382722.0
-2.0,-10.0,-10.0,-3.0,-2.0,-1.0,0.0,1.0,1651086137383063.0
-1.0,-2.0,4.0,2.0,-2.0,-1.0,-1.0,-1.0,1651086137383063.0
1.0,8.0,-8.0,-2.0,3.0,0.0,0.0,-1.0,1651086137397329.0
-1.0,-5.0,-5.0,-2.0,-4.0,-2.0,-3.0,-2.0,1651086137397329.0
-3.0,5.0,5.0,1.0,0.0,-2.0,-1.0,-1.0,1651086137398330.0
6.0,5.0,2.0,-3.0,-2.0,-2.0,1.0,-1.0,1651086137398330.0
-3.0,-13.0,-13.0,-7.0,-4.0,-2.0,-2.0,-2.0,1651086137419308.0
2.0,14.0,6.0,4.0,2.0,2.0,-1.0,1.0,1651086137419308.0
-3.0,-15.0,-4.0,1.0,3.0,4.0,1.0,-1.0,1651086137421270.0
-3.0,0.0,-4.0,-2.0,-2.0,-1.0,1.0,1.0,1651086137421270.0
1.0,0.0,8.0,5.0,4.0,2.0,1.0,0.0,1651086137433334.0
1.0,-10.0,-10.0,-5.0,-11.0,-5.0,0.0,1.0,1651086137433334.0
-3.0,12.0,6.0,-4.0,-2.0,0.0,-1.0,0.0,1651086137442291.0
-2.0,4.0,-3.0,7.0,8.0,2.0,0.0,0.0,1651086137442291.0
-1.0,4.0,6.0,-1.0,-4.0,-3.0,-1.0,-1.0,1651086137457426.0
-2.0,-2.0,0.0,-2.0,-4.0,-1.0,-2.0,-2.0,1651086137457426.0
2.0,-4.0,-2.0,-1.0,-1.0,3.0,-1.0,-1.0,1651086137458416.0
-1.0,0.0,0.0,-1.0,-1.0,-3.0,-1.0,1.0,1651086137458416.0
0.0,-5.0,1.0,-1.0,2.0,2.0,-1.0,-1.0,1651086137479485.0
-1.0,-3.0,6.0,2.0,2.0,-2.0,-1.0,0.0,1651086137479485.0
-1.0,8.0,-8.0,0.0,-1.0,-3.0,0.0,0.0,1651086137481483.0
1.0,-2.0,-5.0,3.0,3.0,2.0,0.0,-2.0,1651086137481483.0
0.0,-4.0,1.0,-4.0,-1.0,1.0,0.0,0.0,1651086137493515.0
0.0,0.0,-1.0,0.0,2.0,0.0,0.0,-1.0,1651086137493515.0
0.0,0.0,2.0,-2.0,-1.0,-2.0,-1.0,0.0,1651086137501587.0
-1.0,-2.0,-2.0,-2.0,0.0,-1.0,0.0,-2.0,1651086137501587.0
0.0,-2.0,-1.0,0.0,-2.0,0.0,-2.0,-1.0,1651086137518545.0
1.0,8.0,0.0,-1.0,0.0,1.0,-1.0,1.0,1651086137518545.0
2.0,-8.0,2.0,1.0,0.0,-2.0,0.0,-1.0,1651086137519543.0
-2.0,1.0,0.0,-1.0,-2.0,-2.0,-2.0,-1.0,1651086137519543.0
-1.0,-1.0,0.0,2.0,1.0,1.0,-1.0,0.0,1651086137540215.0
-3.0,1.0,-4.0,0.0,0.0,0.0,0.0,-1.0,1651086137540215.0
1.0,0.0,5.0,1.0,2.0,-1.0,0.0,-1.0,1651086137541213.0
0.0,3.0,-3.0,-2.0,-2.0,-1.0,2.0,-1.0,1651086137541213.0
-2.0,0.0,-1.0,-3.0,-2.0,-1.0,-1.0,0.0,1651086137553146.0
0.0,1.0,-1.0,-1.0,0.0,-1.0,-2.0,-1.0,1651086137553146.0
-1.0,-4.0,0.0,3.0,2.0,2.0,-1.0,0.0,1651086137568424.0
0.0,0.0,2.0,0.0,-2.0,1.0,1.0,-1.0,1651086137568424.0
0.0,0.0,-3.0,-1.0,-2.0,-2.0,0.0,0.0,1651086137577947.0
-2.0,0.0,0.0,-4.0,0.0,0.0,-2.0,-2.0,1651086137577947.0
0.0,0.0,1.0,-1.0,-3.0,-3.0,-1.0,0.0,1651086137578257.0
-1.0,1.0,0.0,0.0,-1.0,-1.0,-2.0,-1.0,1651086137578257.0
-1.0,-3.0,-2.0,3.0,1.0,2.0,2.0,2.0,1651086137607304.0
0.0,0.0,-1.0,-2.0,-3.0,-2.0,0.0,0.0,1651086137607304.0
0.0,-1.0,-2.0,1.0,-1.0,-1.0,-1.0,-1.0,1651086137608307.0
-1.0,0.0,-3.0,1.0,-2.0,-1.0,-1.0,-1.0,1651086137608307.0
1.0,-2.0,1.0,-1.0,-1.0,-1.0,-1.0,-1.0,1651086137613293.0
0.0,0.0,3.0,3.0,2.0,1.0,1.0,0.0,1651086137613293.0
-1.0,0.0,-1.0,-3.0,-2.0,-2.0,0.0,-1.0,1651086137629253.0
0.0,0.0,-1.0,0.0,4.0,2.0,0.0,-2.0,1651086137629253.0
0.0,-3.0,-1.0,1.0,1.0,-2.0,-3.0,-2.0,1651086137637323.0
1.0,1.0,-2.0,-2.0,-1.0,-1.0,-2.0,0.0,1651086137637323.0
0.0,1.0,-2.0,-2.0,-5.0,-3.0,0.0,0.0,1651086137638227.0
-2.0,-1.0,2.0,0.0,0.0,1.0,-2.0,-1.0,1651086137638227.0
-1.0,2.0,-1.0,-1.0,2.0,-1.0,1.0,-1.0,1651086137659930.0
-1.0,-1.0,-2.0,-1.0,0.0,0.0,-1.0,1.0,1651086137659930.0
1.0,-2.0,0.0,-3.0,-4.0,-3.0,-2.0,0.0,1651086137660933.0
1.0,-1.0,0.0,-1.0,-3.0,-3.0,0.0,-1.0,1651086137660933.0
-1.0,-1.0,-2.0,0.0,-1.0,-1.0,-1.0,-2.0,1651086137673896.0
-1.0,0.0,-4.0,1.0,-1.0,0.0,1.0,0.0,1651086137673896.0
0.0,1.0,0.0,-1.0,0.0,-2.0,0.0,-2.0,1651086137682323.0
-3.0,-1.0,-1.0,-1.0,2.0,2.0,-1.0,0.0,1651086137682323.0
0.0,-1.0,0.0,0.0,2.0,2.0,1.0,0.0,1651086137697394.0
-1.0,0.0,-2.0,-2.0,-2.0,-3.0,0.0,0.0,1651086137697394.0
0.0,0.0,-2.0,-2.0,-2.0,0.0,-2.0,-1.0,1651086137698396.0
0.0,-1.0,-1.0,0.0,-3.0,-2.0,-1.0,-1.0,1651086137698396.0
-2.0,-1.0,1.0,-2.0,-1.0,0.0,1.0,1.0,1651086137720259.0
-1.0,-2.0,-1.0,1.0,1.0,0.0,-1.0,-2.0,1651086137720259.0
0.0,1.0,-1.0,-1.0,-1.0,-1.0,0.0,-1.0,1651086137721167.0
0.0,0.0,-1.0,-3.0,-2.0,-4.0,0.0,0.0,1651086137721167.0
0.0,-2.0,-1.0,0.0,3.0,1.0,-1.0,-1.0,1651086137733164.0
0.0,-3.0,-1.0,-2.0,-1.0,3.0,1.0,-2.0,1651086137733164.0
-2.0,-1.0,0.0,-1.0,-3.0,-3.0,0.0,-1.0,1651086137742282.0
-1.0,0.0,1.0,0.0,5.0,4.0,0.0,-2.0,1651086137742282.0
1.0,0.0,-4.0,-2.0,-2.0,-3.0,1.0,-1.0,1651086137757574.0
-1.0,-1.0,-1.0,-1.0,-1.0,-1.0,-1.0,0.0,1651086137757574.0
-1.0,-1.0,0.0,0.0,0.0,0.0,-1.0,0.0,1651086137758578.0
2.0,-2.0,-2.0,-2.0,-5.0,-4.0,-1.0,0.0,1651086137758578.0
-2.0,0.0,-3.0,-2.0,-2.0,0.0,0.0,1.0,1651086137779631.0
0.0,0.0,-2.0,1.0,-3.0,-1.0,-1.0,-1.0,1651086137779631.0
-1.0,-1.0,-2.0,1.0,-2.0,-2.0,0.0,-2.0,1651086137780672.0
-1.0,1.0,1.0,3.0,4.0,2.0,1.0,0.0,1651086137780672.0
0.0,0.0,0.0,0.0,0.0,1.0,0.0,-1.0,1651086137792676.0
-1.0,0.0,-1.0,0.0,0.0,0.0,0.0,0.0,1651086137792676.0
1.0,-2.0,1.0,0.0,-1.0,-1.0,0.0,1.0,1651086137801578.0
0.0,0.0,-1.0,-3.0,-6.0,-1.0,-2.0,1.0,1651086137801578.0
-1.0,0.0,0.0,-1.0,-1.0,-2.0,0.0,1.0,1651086137816651.0
0.0,-1.0,-1.0,0.0,2.0,0.0,1.0,0.0,1651086137816651.0
-2.0,-1.0,-2.0,-1.0,1.0,0.0,-1.0,-1.0,1651086137822680.0
-1.0,-1.0,-1.0,1.0,-2.0,-1.0,0.0,1.0,1651086137822680.0
-1.0,0.0,0.0,0.0,-1.0,1.0,-1.0,-1.0,1651086137839814.0
1.0,0.0,-1.0,-1.0,-1.0,-1.0,-1.0,-2.0,1651086137839814.0
0.0,1.0,-1.0,-2.0,0.0,0.0,-1.0,0.0,1651086137840743.0
2.0,-1.0,0.0,-1.0,-1.0,-3.0,-1.0,-1.0,1651086137840743.0
0.0,-2.0,0.0,-1.0,-2.0,0.0,-1.0,-1.0,1651086137861829.0
-2.0,-2.0,1.0,1.0,1.0,0.0,1.0,1.0,1651086137861829.0
0.0,0.0,-1.0,1.0,1.0,2.0,0.0,1.0,1651086137863826.0
-1.0,0.0,-2.0,-2.0,-3.0,-2.0,0.0,-1.0,1651086137863826.0
0.0,-1.0,1.0,1.0,1.0,-2.0,-2.0,-3.0,1651086137876787.0
-1.0,-1.0,1.0,2.0,3.0,2.0,1.0,1.0,1651086137876787.0
0.0,-2.0,-2.0,0.0,0.0,-1.0,-1.0,0.0,1651086137878803.0
-1.0,-1.0,-1.0,-1.0,0.0,-1.0,-2.0,0.0,1651086137878803.0
-1.0,0.0,-1.0,-1.0,-4.0,-2.0,-1.0,0.0,1651086137899805.0
-1.0,1.0,1.0,-2.0,2.0,3.0,-1.0,0.0,1651086137899805.0
-3.0,-2.0,0.0,2.0,1.0,-1.0,1.0,-1.0,1651086137900740.0
-1.0,-2.0,-1.0,-2.0,0.0,-1.0,0.0,-1.0,1651086137900740.0
1.0,0.0,-1.0,-2.0,-3.0,-2.0,-2.0,-1.0,1651086137921842.0
2.0,-2.0,1.0,0.0,-4.0,-2.0,-1.0,1.0,1651086137921842.0
-1.0,0.0,1.0,0.0,4.0,3.0,1.0,-1.0,1651086137923874.0
0.0,0.0,-1.0,-2.0,2.0,0.0,0.0,-2.0,1651086137923874.0
-1.0,0.0,-1.0,-1.0,-2.0,-3.0,-1.0,-1.0,1651086137937309.0
0.0,-1.0,-2.0,-2.0,0.0,-1.0,-1.0,0.0,1651086137937309.0
0.0,-2.0,-1.0,-1.0,-1.0,0.0,-1.0,1.0,1651086137938311.0
-2.0,-1.0,1.0,1.0,3.0,1.0,0.0,0.0,1651086137938311.0
0.0,-2.0,-1.0,0.0,-3.0,-1.0,0.0,-1.0,1651086137960244.0
-2.0,1.0,-1.0,-3.0,-2.0,-3.0,-2.0,-2.0,1651086137960244.0
0.0,2.0,0.0,-1.0,-1.0,0.0,-1.0,-3.0,1651086137973172.0
-1.0,-1.0,0.0,1.0,1.0,1.0,1.0,1.0,1651086137973172.0
0.0,-2.0,-1.0,2.0,3.0,2.0,0.0,-2.0,1651086137982372.0
0.0,0.0,0.0,1.0,-1.0,0.0,1.0,-2.0,1651086137982372.0
-1.0,-1.0,-1.0,-2.0,-1.0,-1.0,0.0,0.0,1651086137983101.0
-1.0,0.0,-3.0,-6.0,-6.0,-4.0,-1.0,0.0,1651086137983101.0
0.0,-1.0,-1.0,-4.0,-4.0,0.0,-1.0,0.0,1651086137996071.0
0.0,-3.0,-1.0,0.0,0.0,0.0,-3.0,0.0,1651086137996071.0
-3.0,0.0,1.0,2.0,1.0,4.0,1.0,1.0,1651086138003052.0
0.0,-1.0,-1.0,0.0,-2.0,2.0,0.0,-2.0,1651086138003052.0
0.0,0.0,-2.0,-1.0,2.0,-3.0,2.0,0.0,1651086138020105.0
0.0,0.0,-1.0,-3.0,-3.0,-3.0,-1.0,-1.0,1651086138020105.0
-3.0,0.0,-1.0,1.0,2.0,0.0,-1.0,-1.0,1651086138021004.0
-2.0,-1.0,0.0,0.0,-2.0,-1.0,-1.0,0.0,1651086138021004.0
-1.0,0.0,0.0,0.0,0.0,0.0,0.0,0.0,1651086138042382.0
-1.0,1.0,-1.0,-1.0,-3.0,-1.0,0.0,-1.0,1651086138042382.0
1.0,-2.0,-3.0,-3.0,-2.0,-3.0,-2.0,-1.0,1651086138043097.0
-1.0,1.0,-1.0,0.0,-2.0,-2.0,-2.0,-1.0,1651086138043097.0
0.0,-1.0,0.0,2.0,2.0,2.0,0.0,-3.0,1651086138057263.0
-2.0,-2.0,1.0,0.0,3.0,3.0,-1.0,0.0,1651086138057263.0
0.0,1.0,2.0,-2.0,-3.0,-1.0,-2.0,0.0,1651086138063287.0
0.0,-3.0,-2.0,-3.0,-2.0,-3.0,-1.0,0.0,1651086138063287.0
-1.0,-1.0,-2.0,-4.0,-3.0,-2.0,-3.0,-1.0,1651086138079153.0
-2.0,-3.0,-1.0,0.0,-3.0,-1.0,-2.0,-2.0,1651086138079153.0
0.0,6.0,5.0,0.0,1.0,0.0,2.0,-2.0,1651086138081186.0
-1.0,-1.0,1.0,0.0,2.0,3.0,0.0,-1.0,1651086138081186.0
0.0,-3.0,-2.0,0.0,-3.0,-1.0,0.0,1.0,1651086138102436.0
0.0,0.0,-3.0,-1.0,4.0,-1.0,-1.0,-1.0,1651086138102436.0
-2.0,-6.0,-2.0,-1.0,0.0,0.0,-1.0,0.0,1651086138103099.0
0.0,1.0,0.0,0.0,-1.0,-1.0,1.0,1.0,1651086138103099.0
0.0,0.0,-2.0,-3.0,-3.0,-2.0,-2.0,0.0,1651086138117254.0
-1.0,-1.0,-2.0,0.0,-1.0,-1.0,1.0,0.0,1651086138117254.0
1.0,-1.0,-2.0,-1.0,1.0,0.0,1.0,0.0,1651086138123278.0
-2.0,1.0,0.0,1.0,1.0,2.0,0.0,-1.0,1651086138123278.0
-1.0,-2.0,0.0,-1.0,2.0,0.0,-1.0,0.0,1651086138140365.0
0.0,3.0,-1.0,-3.0,-5.0,-3.0,0.0,0.0,1651086138140365.0
-1.0,-3.0,-2.0,-2.0,-2.0,-2.0,-1.0,-1.0,1651086138141278.0
-1.0,-1.0,0.0,-1.0,-1.0,-2.0,-1.0,-1.0,1651086138141278.0
-1.0,-1.0,1.0,-1.0,-3.0,-2.0,-1.0,2.0,1651086138162167.0
-2.0,-1.0,2.0,3.0,2.0,-1.0,1.0,-2.0,1651086138162167.0
-2.0,-1.0,-2.0,-1.0,2.0,3.0,1.0,1.0,1651086138164163.0
-1.0,-1.0,0.0,0.0,-4.0,-3.0,-1.0,-1.0,1651086138164163.0
-2.0,1.0,-1.0,-2.0,-2.0,-2.0,-1.0,-1.0,1651086138177002.0
2.0,-1.0,2.0,-3.0,1.0,3.0,-1.0,1.0,1651086138177002.0
-1.0,-2.0,-1.0,2.0,-2.0,-3.0,-2.0,-1.0,1651086138182991.0
1.0,0.0,-3.0,1.0,3.0,0.0,-2.0,-1.0,1651086138182991.0
-1.0,-1.0,-1.0,0.0,-1.0,-1.0,1.0,0.0,1651086138200184.0
-1.0,1.0,-1.0,-5.0,-8.0,-4.0,0.0,-1.0,1651086138200184.0
-1.0,-4.0,-8.0,-6.0,-7.0,-2.0,-3.0,-1.0,1651086138201125.0
-3.0,8.0,8.0,8.0,11.0,3.0,3.0,-1.0,1651086138201125.0
0.0,2.0,0.0,0.0,1.0,1.0,0.0,-1.0,1651086138222371.0
0.0,-3.0,-2.0,1.0,3.0,0.0,1.0,1.0,1651086138222371.0
1.0,-2.0,1.0,-3.0,-6.0,-4.0,-3.0,0.0,1651086138223096.0
0.0,-3.0,-3.0,-4.0,-4.0,3.0,-1.0,0.0,1651086138223096.0
1.0,8.0,-1.0,-1.0,0.0,0.0,-2.0,0.0,1651086138237158.0
-1.0,-12.0,-4.0,-2.0,-4.0,-2.0,-2.0,0.0,1651086138237158.0
-1.0,1.0,3.0,-1.0,1.0,-1.0,0.0,-1.0,1651086138243081.0
1.0,-1.0,-2.0,-3.0,-2.0,-1.0,0.0,1.0,1651086138243081.0
-2.0,-4.0,-1.0,2.0,5.0,4.0,0.0,0.0,1651086138260153.0
0.0,4.0,3.0,-1.0,0.0,1.0,0.0,1.0,1651086138260153.0
0.0,1.0,0.0,0.0,5.0,1.0,0.0,0.0,1651086138261130.0
0.0,-2.0,1.0,-2.0,-5.0,-3.0,-2.0,0.0,1651086138261130.0
0.0,-2.0,-2.0,0.0,-2.0,0.0,-1.0,0.0,1651086138282424.0
-1.0,0.0,-3.0,2.0,4.0,3.0,1.0,0.0,1651086138282424.0
-3.0,-3.0,2.0,1.0,-4.0,-2.0,1.0,-1.0,1651086138283095.0
0.0,1.0,-2.0,-5.0,-4.0,-1.0,-1.0,1.0,1651086138283095.0
1.0,-1.0,-3.0,-3.0,-1.0,-1.0,0.0,1.0,1651086138296065.0
-1.0,0.0,-1.0,7.0,8.0,2.0,1.0,-1.0,1651086138296065.0
1.0,-4.0,-1.0,-2.0,-1.0,0.0,-1.0,0.0,1651086138303046.0
-2.0,2.0,0.0,-3.0,-5.0,-5.0,-1.0,0.0,1651086138303046.0
-2.0,-1.0,1.0,-1.0,-1.0,-2.0,-2.0,-2.0,1651086138320277.0
-2.0,1.0,0.0,0.0,-3.0,0.0,0.0,0.0,1651086138320277.0
0.0,0.0,-3.0,1.0,3.0,1.0,1.0,0.0,1651086138321165.0
0.0,-5.0,-4.0,0.0,-1.0,-2.0,0.0,-1.0,1651086138321165.0
0.0,3.0,2.0,0.0,0.0,-1.0,0.0,0.0,1651086138350279.0
0.0,-4.0,3.0,-2.0,-4.0,0.0,-2.0,0.0,1651086138350279.0
-2.0,1.0,-6.0,5.0,5.0,1.0,-1.0,0.0,1651086138351181.0
1.0,-4.0,-3.0,0.0,1.0,-2.0,-1.0,1.0,1651086138351181.0
-1.0,-2.0,0.0,-1.0,-2.0,-2.0,-1.0,1.0,1651086138355169.0
0.0,2.0,0.0,-3.0,0.0,-2.0,-1.0,-1.0,1651086138355169.0
-2.0,0.0,1.0,-1.0,-6.0,2.0,0.0,-1.0,1651086138364145.0
-1.0,-2.0,1.0,3.0,3.0,-1.0,-1.0,0.0,1651086138364145.0
0.0,3.0,-2.0,2.0,-3.0,-1.0,3.0,0.0,1651086138379836.0
-1.0,-8.0,-3.0,-5.0,-3.0,-6.0,0.0,0.0,1651086138379836.0
0.0,1.0,2.0,-6.0,3.0,6.0,-1.0,-1.0,1651086138380839.0
-1.0,-5.0,-7.0,2.0,0.0,-1.0,0.0,0.0,1651086138380839.0
0.0,6.0,10.0,1.0,-1.0,-2.0,-2.0,-1.0,1651086138401959.0
2.0,4.0,-2.0,-2.0,-3.0,-3.0,-3.0,0.0,1651086138401959.0
0.0,0.0,-1.0,0.0,-5.0,-2.0,0.0,-1.0,1651086138403991.0
-2.0,-2.0,2.0,-4.0,-7.0,-1.0,-2.0,-1.0,1651086138403991.0
-1.0,-6.0,-8.0,1.0,4.0,2.0,0.0,-1.0,1651086138416015.0
-2.0,1.0,-1.0,2.0,0.0,2.0,0.0,-2.0,1651086138416015.0
1.0,1.0,-1.0,-3.0,-3.0,-6.0,-1.0,0.0,1651086138424897.0
0.0,0.0,1.0,0.0,3.0,4.0,-1.0,0.0,1651086138424897.0
1.0,0.0,3.0,-1.0,-4.0,-4.0,-2.0,-1.0,1651086138440033.0
-1.0,-4.0,1.0,-3.0,-4.0,-3.0,-2.0,-2.0,1651086138440033.0
0.0,-14.0,-8.0,8.0,4.0,1.0,0.0,1.0,1651086138441011.0
1.0,26.0,4.0,7.0,8.0,0.0,1.0,-2.0,1651086138441011.0
-2.0,-8.0,-2.0,-6.0,-9.0,-4.0,-2.0,-1.0,1651086138462138.0
1.0,9.0,-1.0,-5.0,4.0,5.0,0.0,0.0,1651086138462138.0
0.0,-2.0,8.0,10.0,4.0,-4.0,-1.0,0.0,1651086138463170.0
-2.0,-14.0,-5.0,5.0,12.0,4.0,0.0,-2.0,1651086138463170.0
-3.0,11.0,3.0,9.0,18.0,7.0,3.0,1.0,1651086138476175.0
0.0,-4.0,-12.0,-18.0,-30.0,-11.0,-2.0,1.0,1651086138476175.0
-1.0,0.0,13.0,15.0,18.0,0.0,-1.0,0.0,1651086138492349.0
-1.0,0.0,-12.0,-5.0,-6.0,2.0,-1.0,-1.0,1651086138492349.0
-1.0,-18.0,0.0,0.0,2.0,1.0,-2.0,-2.0,1651086138499187.0
-2.0,3.0,-5.0,-17.0,-12.0,-8.0,-1.0,-3.0,1651086138499187.0
2.0,4.0,0.0,2.0,8.0,8.0,2.0,0.0,1651086138501083.0
0.0,-7.0,-1.0,-11.0,-25.0,-13.0,-3.0,-3.0,1651086138501083.0
2.0,-4.0,6.0,19.0,27.0,11.0,2.0,2.0,1651086138522335.0
1.0,4.0,-7.0,-8.0,-9.0,-4.0,0.0,0.0,1651086138522335.0
-2.0,-2.0,-9.0,2.0,8.0,4.0,0.0,-3.0,1651086138523097.0
0.0,1.0,8.0,0.0,-6.0,-5.0,0.0,-2.0,1651086138523097.0
0.0,2.0,1.0,5.0,-5.0,0.0,-2.0,0.0,1651086138535104.0
-1.0,1.0,9.0,7.0,8.0,4.0,1.0,0.0,1651086138535104.0
-3.0,0.0,-7.0,-21.0,-29.0,-11.0,-3.0,-3.0,1651086138544086.0
1.0,-4.0,-2.0,4.0,9.0,5.0,-1.0,1.0,1651086138544086.0
-1.0,-1.0,-5.0,9.0,8.0,-4.0,-3.0,0.0,1651086138559044.0
1.0,-3.0,-4.0,21.0,31.0,12.0,1.0,3.0,1651086138559044.0
-2.0,-6.0,-11.0,-31.0,-22.0,-8.0,-2.0,-3.0,1651086138560998.0
-2.0,11.0,9.0,5.0,-4.0,-1.0,0.0,-1.0,1651086138560998.0
0.0,-1.0,-1.0,-8.0,-16.0,-4.0,0.0,-1.0,1651086138582818.0
0.0,-2.0,5.0,0.0,9.0,-1.0,1.0,0.0,1651086138582818.0
3.0,0.0,-1.0,-17.0,-24.0,-3.0,-2.0,0.0,1651086138583099.0
-2.0,1.0,5.0,28.0,26.0,4.0,-1.0,-1.0,1651086138583099.0
4.0,5.0,1.0,-23.0,0.0,5.0,5.0,1.0,1651086138595074.0
-3.0,-3.0,4.0,38.0,12.0,-1.0,-1.0,-1.0,1651086138595074.0
