,EMG_s0,EMG_s1,EMG_s2,EMG_s3,EMG_s4,EMG_s5,EMG_s6,EMG_s7,timestamp,signal
0,-1.0,-9.0,-6.0,-1.0,2.0,0.0,1.0,-1.0,1651070591371767.0,0
1,4.0,10.0,1.0,1.0,9.0,5.0,2.0,0.0,1651070591371767.0,0
2,-1.0,-9.0,-11.0,1.0,1.0,1.0,0.0,-1.0,1651070591372703.0,0
3,-1.0,2.0,4.0,-4.0,-4.0,-4.0,-3.0,-1.0,1651070591372703.0,0
4,-2.0,-4.0,3.0,1.0,4.0,2.0,-2.0,0.0,1651070591385715.0,0
5,-2.0,-6.0,-5.0,1.0,-8.0,-6.0,-1.0,-2.0,1651070591385715.0,0
6,1.0,1.0,0.0,1.0,18.0,10.0,2.0,0.0,1651070591394647.0,0
7,0.0,-1.0,-1.0,1.0,-4.0,1.0,1.0,-1.0,1651070591394647.0,0
8,1.0,6.0,-3.0,-3.0,-3.0,-2.0,0.0,1.0,1651070591408843.0,0
9,-1.0,2.0,7.0,-2.0,-6.0,-2.0,0.0,0.0,1651070591408843.0,0
10,-2.0,2.0,5.0,-7.0,-13.0,-6.0,-1.0,0.0,1651070591414773.0,0
11,-4.0,-9.0,-9.0,-5.0,-13.0,-4.0,-2.0,-3.0,1651070591414773.0,0
12,0.0,9.0,1.0,-1.0,5.0,-3.0,-2.0,-2.0,1651070591431379.0,0
13,-1.0,-5.0,-6.0,-5.0,-12.0,-4.0,-1.0,-1.0,1651070591431379.0,0
14,3.0,9.0,5.0,1.0,4.0,0.0,-2.0,0.0,1651070591433376.0,0
15,1.0,-1.0,1.0,6.0,21.0,15.0,4.0,2.0,1651070591433376.0,0
16,1.0,1.0,-2.0,-5.0,-12.0,-1.0,-1.0,-3.0,1651070591454355.0,0
17,-1.0,0.0,-5.0,-5.0,-4.0,-2.0,-2.0,-1.0,1651070591454355.0,0
18,-1.0,4.0,9.0,-4.0,-9.0,-5.0,-3.0,-2.0,1651070591455331.0,0
19,2.0,1.0,4.0,-2.0,-8.0,-7.0,-1.0,0.0,1651070591455331.0,0
20,1.0,-1.0,-6.0,0.0,-2.0,2.0,0.0,0.0,1651070591468350.0,0
21,-1.0,0.0,2.0,4.0,11.0,2.0,0.0,0.0,1651070591468350.0,0
22,-2.0,-6.0,-1.0,-1.0,-3.0,-1.0,3.0,-1.0,1651070591475331.0,0
23,-1.0,2.0,-4.0,-2.0,1.0,-3.0,-1.0,-1.0,1651070591475331.0,0
24,-3.0,-2.0,-3.0,1.0,0.0,1.0,1.0,0.0,1651070591491429.0,0
25,0.0,1.0,3.0,1.0,-1.0,1.0,0.0,-1.0,1651070591491429.0,0
26,-1.0,-2.0,-4.0,-1.0,-1.0,-2.0,-1.0,0.0,1651070591493357.0,0
27,0.0,4.0,3.0,-1.0,0.0,0.0,-2.0,2.0,1651070591493357.0,0
28,0.0,-11.0,-10.0,0.0,-3.0,-3.0,-1.0,0.0,1651070591514452.0,0
29,0.0,0.0,2.0,-1.0,-1.0,-3.0,1.0,-2.0,1651070591514452.0,0
30,-3.0,-9.0,0.0,4.0,7.0,5.0,2.0,-1.0,1651070591515459.0,0
31,-1.0,3.0,4.0,4.0,13.0,5.0,1.0,0.0,1651070591515459.0,0
32,-1.0,0.0,2.0,1.0,-1.0,0.0,0.0,-1.0,1651070591528483.0,0
33,-1.0,-3.0,0.0,2.0,-2.0,-2.0,0.0,0.0,1651070591528483.0,0
34,-1.0,0.0,-3.0,-6.0,-7.0,-4.0,-4.0,-1.0,1651070591535464.0,0
35,-1.0,0.0,-2.0,-1.0,-4.0,-3.0,0.0,-2.0,1651070591535464.0,0
36,-1.0,0.0,3.0,0.0,1.0,-1.0,1.0,2.0,1651070591552513.0,0
37,-1.0,0.0,-3.0,5.0,6.0,5.0,1.0,0.0,1651070591552513.0,0
38,0.0,1.0,-2.0,-7.0,-9.0,-2.0,1.0,0.0,1651070591557496.0,0
39,0.0,-1.0,2.0,-1.0,1.0,-4.0,-2.0,-2.0,1651070591557496.0,0
40,0.0,1.0,2.0,-1.0,3.0,1.0,-1.0,-1.0,1651070591574490.0,0
41,-1.0,-4.0,-8.0,-7.0,-4.0,-2.0,-2.0,0.0,1651070591574490.0,0
42,-1.0,0.0,5.0,8.0,12.0,2.0,0.0,-2.0,1651070591575448.0,0
43,-1.0,-1.0,-8.0,0.0,2.0,-1.0,-1.0,0.0,1651070591575448.0,0
44,0.0,3.0,0.0,-1.0,-8.0,-4.0,0.0,1.0,1651070591589477.0,0
45,1.0,5.0,6.0,2.0,6.0,0.0,-1.0,0.0,1651070591589477.0,0
46,0.0,-7.0,0.0,2.0,3.0,3.0,1.0,1.0,1651070591590408.0,0
47,1.0,0.0,-1.0,-5.0,-8.0,-5.0,-1.0,0.0,1651070591590408.0,0
48,0.0,1.0,1.0,1.0,6.0,2.0,-1.0,1.0,1651070591611681.0,0
49,-3.0,-4.0,-2.0,-2.0,-11.0,-4.0,-1.0,-2.0,1651070591611681.0,0
50,-1.0,2.0,-1.0,-6.0,-11.0,-7.0,-3.0,-1.0,1651070591612716.0,0
51,1.0,3.0,3.0,2.0,8.0,11.0,2.0,0.0,1651070591612716.0,0
52,1.0,-1.0,-2.0,-1.0,-19.0,-6.0,-2.0,0.0,1651070591633691.0,0
53,-2.0,-8.0,5.0,-1.0,7.0,-1.0,-2.0,0.0,1651070591633691.0,0
54,0.0,-5.0,-13.0,0.0,0.0,-5.0,-2.0,1.0,1651070591635630.0,0
55,-1.0,0.0,2.0,3.0,-1.0,-1.0,-1.0,0.0,1651070591635630.0,0
56,-2.0,-1.0,-9.0,-4.0,-3.0,-2.0,0.0,-1.0,1651070591648610.0,0
57,0.0,-1.0,6.0,-5.0,-2.0,1.0,0.0,0.0,1651070591648610.0,0
58,-1.0,4.0,-1.0,-3.0,-9.0,-3.0,-2.0,-1.0,1651070591655571.0,0
59,-1.0,-1.0,-3.0,-1.0,-5.0,-3.0,-1.0,0.0,1651070591655571.0,0
60,-2.0,-1.0,0.0,2.0,10.0,3.0,-1.0,0.0,1651070591672538.0,0
61,-1.0,6.0,2.0,5.0,-1.0,-1.0,1.0,-1.0,1651070591672538.0,0
62,0.0,0.0,-6.0,-1.0,3.0,0.0,-1.0,0.0,1651070591673495.0,0
63,0.0,-1.0,-4.0,-1.0,-1.0,-2.0,1.0,1.0,1651070591673495.0,0
64,-1.0,-1.0,1.0,-1.0,-1.0,-3.0,-2.0,-1.0,1651070591701731.0,0
65,0.0,1.0,6.0,-3.0,0.0,3.0,0.0,1.0,1651070591701731.0,0
66,0.0,1.0,2.0,3.0,5.0,5.0,2.0,0.0,1651070591702764.0,0
67,0.0,-3.0,-4.0,-1.0,-6.0,-4.0,0.0,-2.0,1651070591702764.0,0
68,-2.0,-1.0,-2.0,-1.0,0.0,-3.0,-1.0,-2.0,1651070591708742.0,0
69,0.0,2.0,-5.0,-3.0,0.0,-1.0,-1.0,-1.0,1651070591708742.0,0
70,0.0,-4.0,-2.0,0.0,-2.0,0.0,-1.0,-1.0,1651070591722852.0,0
71,-2.0,0.0,5.0,-2.0,-11.0,-5.0,0.0,0.0,1651070591722852.0,0
72,-1.0,-2.0,-2.0,3.0,8.0,2.0,1.0,0.0,1651070591729836.0,0
73,-1.0,-2.0,-6.0,-1.0,-1.0,-4.0,-1.0,0.0,1651070591729836.0,0
74,1.0,2.0,3.0,4.0,16.0,9.0,2.0,0.0,1651070591738830.0,0
75,0.0,2.0,0.0,-5.0,9.0,1.0,-1.0,2.0,1651070591738830.0,0
76,-1.0,-3.0,1.0,0.0,-2.0,0.0,-2.0,0.0,1651070591753958.0,0
77,-2.0,-4.0,-13.0,-4.0,-3.0,-2.0,-2.0,-1.0,1651070591753958.0,0
78,-2.0,2.0,1.0,-3.0,-9.0,-7.0,-2.0,-1.0,1651070591755982.0,0
79,-2.0,0.0,-2.0,1.0,-2.0,1.0,0.0,0.0,1651070591755982.0,0
80,2.0,3.0,4.0,-1.0,2.0,1.0,2.0,0.0,1651070591777016.0,0
81,0.0,-5.0,1.0,7.0,8.0,6.0,3.0,1.0,1651070591777016.0,0
82,-1.0,0.0,1.0,-3.0,-5.0,-3.0,-1.0,-1.0,1651070591778005.0,0
83,-1.0,-3.0,-2.0,-2.0,0.0,-2.0,0.0,-1.0,1651070591778005.0,0
84,-2.0,-2.0,-1.0,-1.0,-1.0,0.0,0.0,0.0,1651070591789983.0,0
85,-1.0,2.0,0.0,2.0,-2.0,-1.0,1.0,-1.0,1651070591789983.0,0
86,-2.0,-6.0,-1.0,0.0,3.0,1.0,-1.0,-1.0,1651070591798963.0,0
87,-3.0,-1.0,-2.0,2.0,2.0,0.0,0.0,-1.0,1651070591798963.0,0
88,2.0,0.0,-2.0,-1.0,-1.0,0.0,-1.0,1.0,1651070591814061.0,0
89,-1.0,2.0,10.0,-2.0,0.0,-1.0,-3.0,0.0,1651070591814061.0,0
90,0.0,-4.0,-6.0,0.0,-2.0,-2.0,-2.0,1.0,1651070591816059.0,0
91,-1.0,-1.0,-3.0,0.0,-3.0,-3.0,-1.0,1.0,1651070591816059.0,0
92,-2.0,5.0,-3.0,-3.0,-3.0,-2.0,-2.0,-3.0,1651070591836225.0,0
93,1.0,2.0,-2.0,-1.0,-3.0,-2.0,0.0,1.0,1651070591836225.0,0
94,2.0,3.0,1.0,-1.0,-2.0,2.0,1.0,1.0,1651070591838152.0,0
95,-3.0,-2.0,2.0,0.0,-2.0,-2.0,0.0,-1.0,1651070591838152.0,0
96,-2.0,-6.0,-4.0,0.0,-1.0,-4.0,-2.0,0.0,1651070591850206.0,0
97,-1.0,0.0,-4.0,-1.0,6.0,3.0,0.0,-1.0,1651070591850206.0,0
98,-1.0,0.0,0.0,0.0,8.0,2.0,0.0,-1.0,1651070591859185.0,0
99,1.0,4.0,3.0,-2.0,-4.0,-3.0,-2.0,0.0,1651070591859185.0,0
100,-4.0,1.0,5.0,-1.0,-4.0,-3.0,0.0,1.0,1651070591874258.0,0
101,-1.0,-8.0,-7.0,2.0,7.0,-2.0,-3.0,-2.0,1651070591874258.0,0
102,-2.0,0.0,-3.0,-3.0,-11.0,-4.0,-2.0,0.0,1651070591875275.0,0
103,-1.0,-3.0,-7.0,0.0,0.0,-2.0,0.0,-2.0,1651070591875275.0,0
104,-4.0,-5.0,-6.0,5.0,8.0,7.0,0.0,1.0,1651070591896697.0,0
105,1.0,-1.0,3.0,-4.0,-5.0,-5.0,0.0,1.0,1651070591896697.0,0
106,-2.0,-2.0,6.0,-2.0,0.0,0.0,-1.0,-1.0,1651070591897717.0,0
107,2.0,0.0,-6.0,3.0,2.0,1.0,-2.0,-1.0,1651070591897717.0,0
108,1.0,-2.0,2.0,1.0,3.0,3.0,0.0,1.0,1651070591910636.0,0
109,1.0,-1.0,-3.0,0.0,0.0,0.0,1.0,1.0,1651070591910636.0,0
110,0.0,1.0,0.0,1.0,-4.0,-2.0,0.0,-1.0,1651070591919401.0,0
111,0.0,-2.0,3.0,0.0,-6.0,-4.0,-2.0,-1.0,1651070591919401.0,0
112,1.0,1.0,-2.0,-3.0,0.0,-1.0,-1.0,-2.0,1651070591934437.0,0
113,-1.0,3.0,0.0,-1.0,2.0,2.0,0.0,1.0,1651070591934437.0,0
114,0.0,-1.0,-1.0,0.0,-5.0,-3.0,-2.0,-1.0,1651070591935568.0,0
115,1.0,-1.0,-1.0,0.0,1.0,1.0,1.0,0.0,1651070591935568.0,0
116,0.0,1.0,0.0,-4.0,-3.0,-4.0,-1.0,-1.0,1651070591956550.0,0
117,-1.0,-5.0,-1.0,2.0,4.0,1.0,-1.0,-1.0,1651070591956550.0,0
118,-1.0,0.0,0.0,0.0,-4.0,-1.0,0.0,-1.0,1651070591958506.0,0
119,0.0,-2.0,-1.0,-1.0,1.0,0.0,-1.0,0.0,1651070591958506.0,0
120,0.0,0.0,2.0,-1.0,1.0,0.0,2.0,1.0,1651070591979499.0,0
121,0.0,4.0,1.0,-4.0,-11.0,-3.0,-2.0,-1.0,1651070591979499.0,0
122,-2.0,-1.0,0.0,2.0,0.0,-4.0,-1.0,0.0,1651070591980499.0,0
123,-2.0,-4.0,-3.0,-2.0,6.0,3.0,1.0,-1.0,1651070591980499.0,0
124,2.0,0.0,0.0,0.0,-3.0,1.0,2.0,-1.0,1651070592008677.0,0
125,0.0,0.0,1.0,2.0,0.0,0.0,-1.0,-1.0,1651070592008677.0,0
126,3.0,3.0,-4.0,0.0,6.0,3.0,1.0,1.0,1651070592010605.0,0
127,0.0,-3.0,2.0,-5.0,-12.0,-5.0,-3.0,0.0,1651070592010605.0,0
128,-1.0,-1.0,6.0,-1.0,-4.0,-3.0,-1.0,-1.0,1651070592016591.0,0
129,-1.0,-3.0,-17.0,0.0,10.0,2.0,0.0,0.0,1651070592016591.0,0
130,-1.0,2.0,-3.0,0.0,-1.0,0.0,0.0,0.0,1651070592018603.0,0
131,-2.0,4.0,7.0,-2.0,-1.0,-1.0,-2.0,-2.0,1651070592018603.0,0
132,1.0,1.0,-2.0,-2.0,-3.0,-1.0,-1.0,0.0,1651070592038616.0,0
133,-1.0,-1.0,5.0,-1.0,-4.0,-1.0,-1.0,0.0,1651070592038616.0,0
134,-1.0,-1.0,1.0,-2.0,-6.0,-3.0,0.0,-1.0,1651070592040629.0,0
135,-4.0,-4.0,-6.0,3.0,10.0,6.0,1.0,1.0,1651070592040629.0,0
136,-2.0,-6.0,0.0,2.0,0.0,-1.0,0.0,-1.0,1651070592053780.0,0
137,0.0,-5.0,2.0,3.0,2.0,2.0,0.0,-1.0,1651070592053780.0,0
138,-2.0,-1.0,-1.0,-3.0,-4.0,-1.0,0.0,0.0,1651070592055778.0,0
139,4.0,15.0,9.0,-3.0,-1.0,-2.0,0.0,0.0,1651070592055778.0,0
140,-1.0,-5.0,0.0,1.0,-2.0,-3.0,-3.0,-1.0,1651070592076730.0,0
141,0.0,-14.0,-22.0,-5.0,-2.0,0.0,-1.0,-2.0,1651070592076730.0,0
142,0.0,0.0,10.0,10.0,22.0,9.0,1.0,0.0,1651070592077746.0,0
143,-4.0,-3.0,2.0,3.0,4.0,-3.0,-3.0,-3.0,1651070592077746.0,0
144,-1.0,4.0,-7.0,-7.0,12.0,13.0,2.0,-2.0,1651070592098742.0,0
145,3.0,1.0,-1.0,1.0,-16.0,-10.0,-1.0,0.0,1651070592098742.0,0
146,-1.0,3.0,-7.0,-17.0,-10.0,-1.0,-2.0,-4.0,1651070592100670.0,0
147,0.0,13.0,16.0,6.0,2.0,0.0,-1.0,-1.0,1651070592100670.0,0
148,-4.0,-22.0,-31.0,-9.0,-7.0,-5.0,-5.0,-5.0,1651070592113746.0,0
149,5.0,-4.0,34.0,5.0,-3.0,4.0,5.0,6.0,1651070592113746.0,0
150,0.0,-7.0,-29.0,3.0,0.0,-3.0,0.0,2.0,1651070592120715.0,0
151,-3.0,-1.0,1.0,-1.0,10.0,2.0,1.0,1.0,1651070592120715.0,0
152,-19.0,15.0,6.0,0.0,-12.0,-9.0,-7.0,-11.0,1651070592136692.0,0
153,-2.0,-13.0,4.0,-7.0,-10.0,-3.0,-2.0,-3.0,1651070592136692.0,0
154,30.0,19.0,13.0,1.0,9.0,6.0,8.0,15.0,1651070592137716.0,0
155,7.0,-19.0,-32.0,8.0,-5.0,2.0,1.0,2.0,1651070592137716.0,0
156,4.0,-7.0,5.0,-9.0,3.0,0.0,4.0,4.0,1651070592159496.0,0
157,-13.0,9.0,-9.0,-1.0,-2.0,-7.0,-7.0,-10.0,1651070592159496.0,0
158,-13.0,3.0,12.0,-8.0,-14.0,-7.0,-2.0,-4.0,1651070592160496.0,0
159,-1.0,0.0,-6.0,-1.0,-6.0,0.0,-3.0,-16.0,1651070592160496.0,0
160,5.0,1.0,11.0,7.0,8.0,4.0,-2.0,-5.0,1651070592173462.0,0
161,-2.0,2.0,9.0,-1.0,8.0,3.0,1.0,11.0,1651070592173462.0,1
162,-2.0,3.0,16.0,4.0,-8.0,-8.0,-3.0,-3.0,1651070592180510.0,1
163,-12.0,-1.0,5.0,-10.0,-22.0,-1.0,0.0,-3.0,1651070592180510.0,1
164,-5.0,-11.0,0.0,-3.0,-7.0,-7.0,3.0,-29.0,1651070592196520.0,1
165,-13.0,4.0,-8.0,-1.0,26.0,21.0,6.0,-24.0,1651070592196520.0,1
166,-9.0,19.0,10.0,3.0,12.0,24.0,1.0,-2.0,1651070592198538.0,1
167,34.0,-52.0,-17.0,-9.0,-14.0,-16.0,-12.0,56.0,1651070592198538.0,1
168,26.0,20.0,-15.0,-1.0,-12.0,-8.0,2.0,12.0,1651070592218650.0,1
169,-5.0,62.0,37.0,16.0,8.0,9.0,22.0,-7.0,1651070592218650.0,1
170,-27.0,-68.0,-8.0,-21.0,-34.0,-39.0,-38.0,33.0,1651070592220660.0,1
171,4.0,112.0,16.0,-10.0,-10.0,0.0,12.0,30.0,1651070592220660.0,1
172,19.0,-74.0,59.0,11.0,-1.0,5.0,-3.0,-42.0,1651070592233785.0,1
173,21.0,34.0,-34.0,-1.0,0.0,2.0,18.0,-22.0,1651070592233785.0,1
174,-9.0,45.0,-13.0,10.0,12.0,0.0,8.0,57.0,1651070592240607.0,1
175,-17.0,-78.0,10.0,7.0,23.0,3.0,-28.0,-76.0,1651070592240607.0,1
176,29.0,102.0,-24.0,-10.0,6.0,-3.0,9.0,127.0,1651070592256682.0,1
177,-18.0,-113.0,24.0,15.0,18.0,18.0,40.0,70.0,1651070592256682.0,1
178,18.0,-29.0,-11.0,-16.0,-20.0,-14.0,-20.0,-72.0,1651070592257701.0,1
179,-53.0,7.0,24.0,15.0,4.0,4.0,-7.0,-70.0,1651070592257701.0,1
180,48.0,54.0,14.0,7.0,9.0,3.0,8.0,62.0,1651070592278818.0,1
181,-7.0,-34.0,42.0,-2.0,-20.0,-17.0,-33.0,-17.0,1651070592278818.0,1
182,6.0,-6.0,-64.0,3.0,19.0,9.0,22.0,21.0,1651070592280746.0,1
183,-9.0,-11.0,-11.0,-6.0,-1.0,1.0,9.0,-23.0,1651070592280746.0,1
184,-34.0,-76.0,14.0,11.0,-10.0,0.0,-15.0,-92.0,1651070592293198.0,1
185,-10.0,-17.0,9.0,-34.0,1.0,-3.0,-8.0,22.0,1651070592293198.0,1
186,18.0,57.0,27.0,9.0,2.0,6.0,12.0,17.0,1651070592302176.0,1
187,-15.0,20.0,-15.0,-3.0,1.0,-1.0,-9.0,-28.0,1651070592302176.0,1
188,-47.0,-48.0,-13.0,0.0,-5.0,-9.0,-10.0,-29.0,1651070592316361.0,1
189,50.0,92.0,-45.0,-11.0,-18.0,-13.0,-9.0,27.0,1651070592316361.0,1
190,-19.0,14.0,12.0,1.0,4.0,10.0,18.0,0.0,1651070592318379.0,1
191,95.0,-17.0,22.0,15.0,15.0,6.0,15.0,75.0,1651070592318379.0,1
192,-34.0,30.0,-51.0,3.0,-1.0,-3.0,-9.0,-11.0,1651070592339579.0,1
193,-20.0,-24.0,33.0,7.0,-10.0,-7.0,-14.0,-41.0,1651070592339579.0,1
194,-16.0,-58.0,-4.0,2.0,-10.0,-1.0,-13.0,-83.0,1651070592340574.0,1
195,8.0,73.0,-1.0,-21.0,0.0,-4.0,6.0,68.0,1651070592340574.0,1
196,23.0,-14.0,56.0,11.0,15.0,8.0,13.0,39.0,1651070592353153.0,1
197,7.0,20.0,-38.0,0.0,2.0,-4.0,-8.0,-16.0,1651070592353153.0,1
198,3.0,6.0,-21.0,-2.0,-8.0,-2.0,1.0,8.0,1651070592362174.0,1
199,-24.0,-43.0,25.0,-2.0,-4.0,1.0,4.0,-12.0,1651070592362174.0,1
200,-19.0,11.0,-5.0,-12.0,-25.0,-8.0,-7.0,-29.0,1651070592376160.0,1
201,8.0,-1.0,-51.0,-13.0,32.0,12.0,-7.0,-6.0,1651070592376160.0,1
202,6.0,70.0,87.0,23.0,-1.0,2.0,5.0,15.0,1651070592378088.0,1
203,-18.0,-45.0,-64.0,-17.0,-17.0,-13.0,-3.0,-10.0,1651070592378088.0,1
204,-25.0,-3.0,19.0,0.0,9.0,4.0,0.0,-18.0,1651070592398695.0,1
205,22.0,4.0,-11.0,10.0,-5.0,-2.0,-4.0,-6.0,1651070592398695.0,1
206,7.0,-26.0,-18.0,0.0,11.0,1.0,-1.0,35.0,1651070592400624.0,1
207,-15.0,-24.0,22.0,-2.0,-5.0,-5.0,5.0,-16.0,1651070592400624.0,1
208,20.0,62.0,-53.0,-8.0,-11.0,-2.0,0.0,15.0,1651070592413171.0,1
209,-9.0,8.0,30.0,5.0,-1.0,-2.0,-4.0,-7.0,1651070592413171.0,1
210,-9.0,-24.0,-5.0,-7.0,7.0,-2.0,-8.0,-37.0,1651070592421218.0,1
211,9.0,26.0,-8.0,6.0,-3.0,9.0,10.0,26.0,1651070592421218.0,1
212,-8.0,-45.0,-3.0,4.0,12.0,0.0,1.0,-10.0,1651070592436178.0,1
213,6.0,12.0,14.0,8.0,-6.0,0.0,1.0,1.0,1651070592436178.0,1
214,-5.0,18.0,-25.0,-14.0,-8.0,-7.0,-4.0,-8.0,1651070592438106.0,1
215,15.0,16.0,21.0,20.0,7.0,3.0,2.0,12.0,1651070592438106.0,1
216,3.0,-6.0,12.0,1.0,9.0,7.0,3.0,-2.0,1651070592459520.0,1
217,10.0,7.0,-18.0,-14.0,-10.0,-3.0,3.0,17.0,1651070592459520.0,1
218,-14.0,-33.0,-14.0,2.0,6.0,-3.0,-4.0,-15.0,1651070592460520.0,1
219,-20.0,-41.0,-1.0,-1.0,14.0,10.0,-1.0,-12.0,1651070592460520.0,1
220,12.0,44.0,-68.0,10.0,4.0,5.0,5.0,12.0,1651070592472559.0,1
221,11.0,10.0,-13.0,1.0,16.0,7.0,6.0,23.0,1651070592472559.0,1
222,-3.0,-11.0,32.0,-1.0,-17.0,-8.0,4.0,-15.0,1651070592481464.0,1
223,-15.0,-8.0,-10.0,-9.0,-8.0,-8.0,-5.0,-10.0,1651070592481464.0,1
224,15.0,-5.0,9.0,-6.0,12.0,3.0,-7.0,7.0,1651070592496678.0,1
225,-2.0,-13.0,9.0,6.0,-10.0,-8.0,5.0,14.0,1651070592496678.0,1
226,5.0,0.0,-9.0,9.0,5.0,3.0,0.0,5.0,1651070592497686.0,1
227,12.0,50.0,-32.0,3.0,8.0,5.0,3.0,-10.0,1651070592497686.0,1
228,-21.0,-70.0,31.0,-4.0,-13.0,-6.0,-5.0,-11.0,1651070592518737.0,1
229,-11.0,-22.0,-1.0,0.0,-7.0,-3.0,-2.0,-9.0,1651070592518737.0,1
230,14.0,-5.0,-2.0,3.0,8.0,4.0,0.0,8.0,1651070592520666.0,1
231,1.0,29.0,-15.0,-6.0,-6.0,-1.0,-2.0,10.0,1651070592520666.0,1
232,10.0,17.0,-12.0,-3.0,3.0,0.0,6.0,2.0,1651070592532699.0,1
233,-14.0,-5.0,-4.0,-5.0,-1.0,-2.0,-7.0,-1.0,1651070592532699.0,1
234,-14.0,-13.0,25.0,7.0,-3.0,2.0,5.0,-17.0,1651070592541752.0,1
235,5.0,-52.0,0.0,7.0,-1.0,-3.0,-2.0,-13.0,1651070592541752.0,1
236,-3.0,35.0,14.0,-5.0,-2.0,-1.0,-2.0,-7.0,1651070592556667.0,1
237,-2.0,-9.0,-23.0,-5.0,-19.0,-8.0,-3.0,7.0,1651070592556667.0,1
238,4.0,23.0,13.0,-9.0,1.0,1.0,1.0,9.0,1651070592558660.0,1
239,-11.0,-20.0,3.0,5.0,0.0,-5.0,-1.0,-3.0,1651070592558660.0,1
240,-6.0,-48.0,33.0,3.0,7.0,1.0,5.0,0.0,1651070592578846.0,1
241,-5.0,-10.0,-41.0,0.0,-4.0,-3.0,-9.0,-22.0,1651070592578846.0,1
242,1.0,-2.0,-23.0,-11.0,-7.0,1.0,1.0,14.0,1651070592580775.0,1
243,1.0,13.0,-5.0,-7.0,-10.0,-5.0,-3.0,-8.0,1651070592580775.0,1
244,-5.0,27.0,42.0,19.0,7.0,0.0,-3.0,-29.0,1651070592593198.0,1
245,3.0,-35.0,-19.0,-9.0,-9.0,-4.0,-3.0,9.0,1651070592593198.0,1
246,-1.0,-9.0,23.0,-9.0,0.0,-4.0,-2.0,17.0,1651070592602177.0,1
247,10.0,-7.0,1.0,2.0,-2.0,2.0,10.0,32.0,1651070592602177.0,1
248,-13.0,0.0,-28.0,-3.0,-1.0,-2.0,-8.0,-21.0,1651070592616684.0,1
249,-8.0,24.0,52.0,2.0,15.0,2.0,-1.0,-12.0,1651070592616684.0,1
250,11.0,7.0,-2.0,5.0,3.0,3.0,2.0,-12.0,1651070592617678.0,1
251,0.0,6.0,16.0,-3.0,-6.0,-5.0,-8.0,2.0,1651070592617678.0,1
252,-6.0,-13.0,-11.0,3.0,-3.0,-1.0,4.0,12.0,1651070592639174.0,1
253,-1.0,28.0,30.0,-3.0,3.0,7.0,1.0,-10.0,1651070592639174.0,1
254,15.0,-26.0,-13.0,9.0,4.0,5.0,7.0,36.0,1651070592640198.0,1
255,-12.0,15.0,-14.0,-4.0,3.0,-2.0,-6.0,-22.0,1651070592640198.0,1
256,5.0,-6.0,4.0,-7.0,-9.0,-5.0,-4.0,3.0,1651070592653148.0,1
257,-6.0,-2.0,-34.0,-1.0,3.0,0.0,-3.0,12.0,1651070592653148.0,1
258,-3.0,-6.0,0.0,-6.0,-4.0,-1.0,3.0,-10.0,1651070592662135.0,1
259,-4.0,7.0,12.0,5.0,1.0,0.0,0.0,6.0,1651070592662135.0,1
260,21.0,-4.0,-1.0,-4.0,21.0,14.0,6.0,5.0,1651070592676155.0,1
261,-4.0,-6.0,32.0,20.0,-8.0,-4.0,4.0,1.0,1651070592676155.0,1
262,-2.0,-5.0,-19.0,-7.0,14.0,5.0,0.0,5.0,1651070592678083.0,1
263,0.0,5.0,8.0,-12.0,-11.0,-4.0,-3.0,-12.0,1651070592678083.0,1
264,-6.0,19.0,8.0,-11.0,-11.0,-4.0,2.0,16.0,1651070592699543.0,1
265,1.0,10.0,14.0,5.0,-1.0,-6.0,-1.0,-1.0,1651070592699543.0,1
266,-7.0,-22.0,-35.0,2.0,-5.0,4.0,-2.0,-8.0,1651070592700543.0,1
267,2.0,2.0,3.0,5.0,5.0,-1.0,-4.0,-9.0,1651070592700543.0,1
268,-4.0,30.0,-18.0,-4.0,4.0,0.0,-4.0,-11.0,1651070592712491.0,1
269,-1.0,-71.0,8.0,8.0,-2.0,1.0,-2.0,-2.0,1651070592712491.0,1
270,-11.0,26.0,24.0,6.0,-10.0,-7.0,-11.0,-26.0,1651070592721439.0,1
271,0.0,-28.0,-68.0,-20.0,-1.0,5.0,7.0,19.0,1651070592721439.0,1
272,-4.0,14.0,-12.0,-4.0,-6.0,-4.0,-2.0,-9.0,1651070592736441.0,1
273,-5.0,-10.0,6.0,-1.0,-3.0,-2.0,5.0,26.0,1651070592736441.0,1
274,10.0,28.0,17.0,4.0,7.0,0.0,-2.0,-4.0,1651070592738405.0,1
275,5.0,41.0,38.0,11.0,9.0,3.0,4.0,2.0,1651070592738405.0,1
276,-2.0,-19.0,-14.0,-8.0,-12.0,-6.0,-9.0,-2.0,1651070592759236.0,1
277,-4.0,-30.0,-18.0,0.0,2.0,3.0,-1.0,-9.0,1651070592759236.0,1
278,-5.0,42.0,37.0,-1.0,-6.0,-4.0,-2.0,-4.0,1651070592760174.0,1
279,1.0,-40.0,21.0,8.0,-3.0,-2.0,3.0,-11.0,1651070592760174.0,1
280,0.0,40.0,-13.0,-2.0,10.0,2.0,-1.0,13.0,1651070592773139.0,1
281,10.0,19.0,-22.0,1.0,9.0,3.0,0.0,-10.0,1651070592773139.0,1
282,3.0,-8.0,-3.0,6.0,-5.0,-8.0,0.0,22.0,1651070592782115.0,1
283,-6.0,7.0,12.0,6.0,14.0,13.0,-1.0,-7.0,1651070592782115.0,1
284,1.0,-10.0,55.0,2.0,-8.0,-3.0,-1.0,-13.0,1651070592796749.0,1
285,-2.0,-19.0,-42.0,-7.0,-8.0,-8.0,-1.0,17.0,1651070592796749.0,1
286,-1.0,9.0,-21.0,-29.0,6.0,6.0,-1.0,-11.0,1651070592797745.0,1
287,2.0,3.0,-34.0,-4.0,-10.0,-8.0,-4.0,0.0,1651070592797745.0,1
288,-1.0,22.0,39.0,14.0,1.0,6.0,5.0,3.0,1651070592819521.0,1
289,-9.0,34.0,29.0,-2.0,-20.0,-5.0,-13.0,-19.0,1651070592819521.0,1
290,9.0,-44.0,10.0,15.0,22.0,0.0,-3.0,2.0,1651070592820521.0,1
291,5.0,42.0,22.0,2.0,-3.0,-4.0,-1.0,9.0,1651070592820521.0,1
292,-4.0,-43.0,-43.0,-3.0,5.0,1.0,0.0,1.0,1651070592832555.0,1
293,-4.0,48.0,-1.0,-4.0,-9.0,-1.0,-1.0,-18.0,1651070592832555.0,1
294,-7.0,-10.0,-20.0,4.0,2.0,1.0,2.0,4.0,1651070592841464.0,1
295,-3.0,-3.0,38.0,2.0,2.0,-1.0,-6.0,-1.0,1651070592841464.0,1
296,0.0,-20.0,-55.0,-13.0,-16.0,-5.0,-4.0,4.0,1651070592856747.0,1
297,-3.0,-11.0,-30.0,-10.0,-6.0,0.0,5.0,12.0,1651070592856747.0,1
298,9.0,28.0,32.0,17.0,20.0,6.0,1.0,-10.0,1651070592857736.0,1
299,8.0,-10.0,-7.0,5.0,4.0,-1.0,2.0,10.0,1651070592857736.0,1
300,-9.0,-14.0,18.0,1.0,-1.0,1.0,-3.0,-3.0,1651070592879484.0,1
301,7.0,16.0,14.0,-3.0,1.0,3.0,1.0,6.0,1651070592879484.0,1
302,-14.0,-6.0,-2.0,-6.0,-18.0,-2.0,-5.0,-19.0,1651070592880183.0,1
303,18.0,5.0,-16.0,-4.0,4.0,-6.0,7.0,11.0,1651070592880183.0,1
304,5.0,-23.0,3.0,8.0,-15.0,-6.0,0.0,8.0,1651070592893180.0,1
305,0.0,15.0,4.0,-1.0,20.0,3.0,-3.0,-10.0,1651070592893180.0,1
306,-3.0,-2.0,21.0,-4.0,-18.0,-3.0,-6.0,4.0,1651070592901356.0,1
307,-9.0,-1.0,-32.0,-12.0,-1.0,-1.0,4.0,-1.0,1651070592901356.0,1
308,3.0,2.0,-6.0,-9.0,-8.0,-5.0,-2.0,-6.0,1651070592916739.0,1
309,-6.0,-20.0,8.0,11.0,23.0,6.0,-3.0,-19.0,1651070592916739.0,1
310,-1.0,6.0,-2.0,9.0,-9.0,1.0,15.0,23.0,1651070592918735.0,1
311,-2.0,22.0,32.0,8.0,10.0,7.0,-6.0,6.0,1651070592918735.0,1
312,5.0,12.0,7.0,1.0,-2.0,-3.0,-1.0,4.0,1651070592938720.0,1
313,-2.0,-2.0,16.0,-1.0,-4.0,-3.0,1.0,-1.0,1651070592938720.0,1
314,6.0,-17.0,-5.0,-9.0,-1.0,5.0,-1.0,-12.0,1651070592940647.0,1
315,-5.0,-4.0,11.0,4.0,-1.0,2.0,2.0,-4.0,1651070592940647.0,1
316,6.0,14.0,-9.0,3.0,6.0,1.0,6.0,11.0,1651070592961991.0,1
317,-5.0,3.0,1.0,3.0,2.0,-1.0,-8.0,-9.0,1651070592961991.0,1
318,-12.0,-6.0,-8.0,-16.0,-15.0,-9.0,-2.0,-4.0,1651070592962998.0,1
319,11.0,-37.0,-7.0,14.0,11.0,2.0,0.0,13.0,1651070592962998.0,1
320,-1.0,-18.0,-14.0,-13.0,-9.0,-7.0,-4.0,-6.0,1651070592976954.0,1
321,-1.0,-5.0,11.0,-6.0,-1.0,-1.0,4.0,7.0,1651070592976954.0,1
322,-5.0,10.0,-20.0,-10.0,0.0,-2.0,-9.0,-17.0,1651070592977951.0,1
323,3.0,-7.0,-16.0,-8.0,-8.0,-6.0,-2.0,-5.0,1651070592977951.0,1
324,3.0,15.0,36.0,22.0,15.0,6.0,10.0,34.0,1651070592998821.0,1
325,-3.0,20.0,27.0,5.0,-8.0,-2.0,-6.0,-24.0,1651070592998821.0,1
326,0.0,-13.0,-65.0,-3.0,6.0,-2.0,2.0,18.0,1651070593000748.0,1
327,11.0,21.0,13.0,-4.0,-1.0,4.0,7.0,16.0,1651070593000748.0,1
328,-12.0,-23.0,-53.0,-12.0,-8.0,-9.0,-10.0,-22.0,1651070593021682.0,1
329,4.0,12.0,20.0,10.0,13.0,12.0,8.0,9.0,1651070593021682.0,1
330,-7.0,-13.0,24.0,-7.0,-21.0,-8.0,-8.0,-23.0,1651070593022688.0,1
331,-6.0,-26.0,-55.0,-6.0,2.0,0.0,-4.0,-14.0,1651070593022688.0,1
332,0.0,-3.0,-20.0,-11.0,8.0,3.0,5.0,15.0,1651070593036761.0,1
333,-5.0,7.0,3.0,5.0,-5.0,-5.0,-5.0,0.0,1651070593036761.0,1
334,1.0,-27.0,-7.0,11.0,7.0,4.0,8.0,-6.0,1651070593037759.0,1
335,1.0,41.0,21.0,3.0,-14.0,-4.0,-7.0,15.0,1651070593037759.0,1
336,0.0,13.0,19.0,-1.0,-14.0,-5.0,-4.0,-7.0,1651070593058926.0,1
337,-15.0,-66.0,-84.0,-26.0,3.0,-3.0,-6.0,-16.0,1651070593058926.0,1
338,9.0,19.0,19.0,7.0,10.0,0.0,2.0,27.0,1651070593060853.0,1
339,3.0,29.0,7.0,-4.0,5.0,-2.0,-3.0,-14.0,1651070593060853.0,1
340,3.0,22.0,42.0,-2.0,-7.0,2.0,0.0,-8.0,1651070593081768.0,1
341,8.0,-2.0,-28.0,0.0,-15.0,-8.0,4.0,20.0,1651070593081768.0,1
342,-7.0,-26.0,-9.0,7.0,9.0,5.0,1.0,-4.0,1651070593082699.0,1
343,-8.0,2.0,12.0,3.0,0.0,-2.0,-2.0,-7.0,1651070593082699.0,1
344,1.0,-6.0,-8.0,-4.0,-1.0,1.0,-4.0,-12.0,1651070593095741.0,1
345,-1.0,-17.0,5.0,-9.0,-5.0,-1.0,3.0,2.0,1651070593095741.0,1
346,5.0,18.0,3.0,7.0,8.0,0.0,0.0,9.0,1651070593103134.0,1
347,-14.0,-20.0,5.0,-8.0,-8.0,-2.0,-7.0,-23.0,1651070593103134.0,1
348,6.0,-12.0,-11.0,2.0,-12.0,-2.0,6.0,19.0,1651070593118657.0,1
349,-1.0,-3.0,1.0,10.0,29.0,9.0,6.0,5.0,1651070593118657.0,1
350,11.0,36.0,16.0,4.0,-4.0,-2.0,-2.0,-1.0,1651070593120650.0,1
351,-15.0,-35.0,-6.0,-3.0,-8.0,-4.0,-5.0,-13.0,1651070593120650.0,1
352,1.0,7.0,23.0,1.0,15.0,3.0,-4.0,-26.0,1651070593141765.0,1
353,1.0,17.0,-19.0,-2.0,-1.0,-3.0,2.0,24.0,1651070593141765.0,1
354,-8.0,-36.0,-3.0,-5.0,-5.0,-1.0,-2.0,0.0,1651070593142695.0,1
355,-5.0,-15.0,-28.0,-14.0,-9.0,-5.0,-5.0,-14.0,1651070593142695.0,1
356,-6.0,21.0,13.0,-8.0,-4.0,-4.0,-3.0,-43.0,1651070593155847.0,1
357,12.0,6.0,18.0,5.0,-4.0,1.0,0.0,30.0,1651070593155847.0,1
358,0.0,16.0,4.0,-2.0,3.0,-2.0,-3.0,-12.0,1651070593162829.0,1
359,-2.0,-9.0,-9.0,2.0,-3.0,-1.0,3.0,12.0,1651070593162829.0,1
360,-3.0,-10.0,2.0,12.0,5.0,3.0,-1.0,0.0,1651070593178834.0,1
361,-5.0,1.0,11.0,-3.0,2.0,-2.0,-3.0,-8.0,1651070593178834.0,1
362,-11.0,-11.0,9.0,9.0,-8.0,-5.0,-6.0,2.0,1651070593180831.0,1
363,6.0,40.0,-15.0,-6.0,-10.0,6.0,0.0,-11.0,1651070593180831.0,1
364,6.0,-32.0,5.0,3.0,25.0,8.0,8.0,30.0,1651070593201880.0,1
365,-5.0,-26.0,-79.0,-20.0,-2.0,2.0,1.0,-12.0,1651070593201880.0,1
366,1.0,-25.0,-22.0,-7.0,-5.0,-4.0,-1.0,1.0,1651070593202877.0,1
367,-3.0,17.0,30.0,10.0,1.0,-3.0,-5.0,-39.0,1651070593202877.0,1
368,6.0,11.0,1.0,3.0,-16.0,-2.0,5.0,45.0,1651070593216900.0,1
369,1.0,14.0,39.0,0.0,2.0,-3.0,-1.0,-9.0,1651070593216900.0,1
370,2.0,-3.0,-17.0,-1.0,3.0,-1.0,0.0,-5.0,1651070593223931.0,1
371,-4.0,-16.0,-26.0,-7.0,-3.0,-3.0,-2.0,8.0,1651070593223931.0,1
372,-3.0,4.0,-11.0,0.0,0.0,1.0,-3.0,-12.0,1651070593238839.0,1
373,-4.0,0.0,16.0,0.0,-3.0,-1.0,-3.0,-9.0,1651070593238839.0,1
374,6.0,15.0,-9.0,-22.0,-21.0,-7.0,-5.0,4.0,1651070593240775.0,1
375,-19.0,-23.0,15.0,6.0,17.0,1.0,2.0,-28.0,1651070593240775.0,1
376,18.0,7.0,-24.0,5.0,2.0,3.0,2.0,30.0,1651070593261713.0,1
377,-1.0,19.0,20.0,4.0,-10.0,-1.0,2.0,3.0,1651070593261713.0,1
378,0.0,15.0,0.0,-4.0,9.0,-2.0,1.0,-9.0,1651070593262695.0,1
379,-1.0,-57.0,-5.0,1.0,-10.0,-6.0,2.0,21.0,1651070593262695.0,1
380,-9.0,6.0,35.0,1.0,8.0,2.0,-2.0,-16.0,1651070593275728.0,1
381,-3.0,7.0,-12.0,-16.0,-1.0,-3.0,-10.0,-24.0,1651070593275728.0,1
382,10.0,16.0,38.0,19.0,1.0,9.0,10.0,25.0,1651070593282712.0,1
383,6.0,41.0,-20.0,-1.0,-6.0,-3.0,1.0,5.0,1651070593282712.0,1
384,-7.0,-39.0,-13.0,0.0,7.0,-3.0,-5.0,-8.0,1651070593298842.0,1
385,4.0,3.0,35.0,-7.0,-15.0,-5.0,-1.0,-1.0,1651070593298842.0,1
386,-7.0,-4.0,-24.0,0.0,12.0,1.0,-4.0,-12.0,1651070593300771.0,1
387,4.0,13.0,17.0,-1.0,2.0,0.0,2.0,10.0,1651070593300771.0,1
388,-2.0,5.0,-14.0,-3.0,-1.0,-1.0,-2.0,-4.0,1651070593321969.0,1
389,6.0,21.0,21.0,5.0,-12.0,-1.0,4.0,15.0,1651070593321969.0,1
390,-8.0,-37.0,-22.0,-8.0,5.0,2.0,-2.0,-4.0,1651070593322982.0,1
391,0.0,-20.0,14.0,10.0,4.0,0.0,1.0,13.0,1651070593322982.0,1
392,-10.0,-9.0,-30.0,-8.0,-11.0,-7.0,-2.0,-13.0,1651070593336132.0,1
393,1.0,-6.0,10.0,9.0,1.0,1.0,-2.0,-11.0,1651070593336132.0,1
394,-8.0,21.0,-5.0,-5.0,-6.0,0.0,-2.0,8.0,1651070593342223.0,1
395,21.0,-2.0,-4.0,-1.0,9.0,6.0,6.0,11.0,1651070593342223.0,1
396,2.0,28.0,-3.0,-7.0,10.0,3.0,0.0,0.0,1651070593358813.0,1
397,-3.0,-4.0,3.0,5.0,3.0,2.0,1.0,2.0,1651070593358813.0,1
398,-5.0,-12.0,-12.0,-10.0,-1.0,1.0,-1.0,-7.0,1651070593360812.0,1
399,-11.0,0.0,24.0,11.0,-9.0,-5.0,-6.0,-6.0,1651070593360812.0,1
400,11.0,8.0,-7.0,7.0,-8.0,-1.0,11.0,20.0,1651070593389091.0,1
401,0.0,7.0,28.0,2.0,15.0,1.0,-1.0,-2.0,1651070593389091.0,1
402,-3.0,-28.0,-33.0,-9.0,-7.0,-5.0,-4.0,-6.0,1651070593391020.0,1
403,-1.0,4.0,10.0,-3.0,1.0,1.0,-1.0,-2.0,1651070593391020.0,1
404,-1.0,18.0,9.0,-2.0,-4.0,-1.0,-2.0,-4.0,1651070593395036.0,1
405,-6.0,-13.0,-14.0,-2.0,-2.0,1.0,0.0,-10.0,1651070593395036.0,1
406,9.0,16.0,26.0,8.0,-3.0,-2.0,3.0,3.0,1651070593403854.0,1
407,-2.0,-13.0,-14.0,-6.0,8.0,1.0,3.0,6.0,1651070593403854.0,1
408,-3.0,4.0,-17.0,2.0,7.0,0.0,-2.0,-4.0,1651070593418789.0,1
409,0.0,7.0,-14.0,-8.0,-11.0,-4.0,-2.0,-1.0,1651070593418789.0,1
410,-1.0,-2.0,12.0,10.0,-5.0,-3.0,-5.0,-14.0,1651070593420785.0,1
411,-14.0,4.0,2.0,-11.0,-4.0,-1.0,-4.0,-8.0,1651070593420785.0,1
412,13.0,-8.0,4.0,1.0,0.0,1.0,8.0,25.0,1651070593441640.0,1
413,3.0,-13.0,10.0,3.0,12.0,2.0,0.0,3.0,1651070593441640.0,1
414,7.0,14.0,-25.0,-8.0,5.0,3.0,2.0,6.0,1651070593442667.0,1
415,-2.0,-13.0,-12.0,16.0,-3.0,0.0,-3.0,-7.0,1651070593442667.0,1
416,-12.0,-8.0,6.0,-3.0,-6.0,-6.0,-5.0,-20.0,1651070593455720.0,1
417,0.0,5.0,-7.0,3.0,-6.0,-3.0,-1.0,1.0,1651070593455720.0,1
418,4.0,2.0,11.0,6.0,-3.0,1.0,1.0,0.0,1651070593471617.0,1
419,-1.0,6.0,8.0,-3.0,2.0,0.0,-2.0,3.0,1651070593471617.0,1
420,-13.0,-5.0,-16.0,-9.0,-1.0,-2.0,-5.0,-8.0,1651070593478668.0,1
421,-1.0,-6.0,-2.0,-2.0,-9.0,-5.0,-2.0,1.0,1651070593478668.0,1
422,-3.0,-1.0,12.0,2.0,1.0,-1.0,-1.0,0.0,1651070593480596.0,1
423,10.0,3.0,-17.0,-7.0,2.0,3.0,1.0,9.0,1651070593480596.0,1
424,1.0,-8.0,8.0,-7.0,2.0,5.0,4.0,3.0,1651070593501617.0,1
425,-5.0,-5.0,-2.0,14.0,-5.0,1.0,-2.0,-6.0,1651070593501617.0,1
426,-9.0,2.0,17.0,5.0,-2.0,1.0,-3.0,-12.0,1651070593503625.0,1
427,5.0,0.0,2.0,3.0,20.0,5.0,2.0,21.0,1651070593503625.0,1
428,6.0,16.0,-6.0,-2.0,-14.0,-2.0,-1.0,-4.0,1651070593514850.0,1
429,6.0,11.0,-8.0,-5.0,14.0,-2.0,-2.0,-5.0,1651070593514850.0,1
430,-4.0,-6.0,-7.0,-12.0,-12.0,-1.0,-1.0,1.0,1651070593523828.0,1
431,1.0,2.0,10.0,8.0,-2.0,-4.0,-1.0,-4.0,1651070593523828.0,1
432,-6.0,-4.0,6.0,-13.0,-1.0,-1.0,-5.0,-5.0,1651070593539010.0,1
433,-1.0,-5.0,-6.0,-5.0,-6.0,0.0,-1.0,1.0,1651070593539010.0,1
434,-1.0,3.0,4.0,12.0,-2.0,-4.0,-2.0,0.0,1651070593540936.0,1
435,-10.0,13.0,2.0,-16.0,-5.0,-3.0,-3.0,-6.0,1651070593540936.0,1
436,11.0,-11.0,-1.0,16.0,4.0,-1.0,1.0,2.0,1651070593561907.0,1
437,7.0,5.0,-1.0,-1.0,-7.0,-1.0,0.0,5.0,1651070593561907.0,1
438,3.0,-1.0,2.0,-5.0,12.0,5.0,2.0,4.0,1651070593562908.0,1
439,-6.0,-2.0,0.0,15.0,-7.0,3.0,0.0,-3.0,1651070593562908.0,1
440,-1.0,0.0,6.0,-12.0,4.0,0.0,-1.0,-3.0,1651070593574902.0,1
441,-5.0,-8.0,-8.0,-2.0,-9.0,-5.0,-5.0,-3.0,1651070593574902.0,1
442,2.0,-3.0,-2.0,-1.0,-3.0,-1.0,-1.0,3.0,1651070593583879.0,1
443,-3.0,-6.0,-5.0,4.0,3.0,1.0,1.0,1.0,1651070593583879.0,1
444,-3.0,-2.0,5.0,5.0,-2.0,-1.0,0.0,-4.0,1651070593598954.0,1
445,1.0,-1.0,-8.0,6.0,3.0,-2.0,0.0,1.0,1651070593598954.0,1
446,-1.0,5.0,4.0,-21.0,-1.0,-1.0,1.0,2.0,1651070593600967.0,1
447,6.0,0.0,-2.0,1.0,-5.0,-1.0,1.0,-1.0,1651070593600967.0,1
448,-3.0,-4.0,1.0,3.0,1.0,1.0,-1.0,-1.0,1651070593621320.0,1
449,2.0,5.0,-1.0,1.0,-3.0,1.0,1.0,0.0,1651070593621320.0,1
450,-4.0,-8.0,2.0,15.0,6.0,-3.0,-1.0,-1.0,1651070593623274.0,1
451,5.0,4.0,7.0,10.0,1.0,0.0,1.0,2.0,1651070593623274.0,1
452,-5.0,-7.0,-10.0,-9.0,-1.0,0.0,-4.0,-4.0,1651070593635216.0,1
453,-3.0,-4.0,-21.0,-35.0,-5.0,-1.0,1.0,-1.0,1651070593635216.0,1
454,5.0,5.0,5.0,11.0,-2.0,-2.0,0.0,2.0,1651070593643840.0,1
455,3.0,5.0,16.0,11.0,-1.0,-1.0,0.0,2.0,1651070593643840.0,1
456,-1.0,-2.0,-12.0,-2.0,7.0,3.0,1.0,-2.0,1651070593666949.0,1
457,-5.0,-4.0,0.0,-18.0,-4.0,1.0,1.0,0.0,1651070593666949.0,1
458,1.0,-5.0,-16.0,-11.0,-8.0,-2.0,-3.0,-1.0,1651070593667880.0,1
459,0.0,-4.0,-20.0,-17.0,2.0,2.0,0.0,-1.0,1651070593667880.0,1
460,-3.0,3.0,18.0,49.0,3.0,1.0,-1.0,0.0,1651070593681843.0,1
461,4.0,1.0,8.0,8.0,10.0,4.0,1.0,1.0,1651070593681843.0,1
462,-4.0,-11.0,-17.0,-51.0,-12.0,-4.0,-1.0,-2.0,1651070593682841.0,1
463,4.0,2.0,16.0,19.0,-4.0,-2.0,-3.0,1.0,1651070593682841.0,1
464,-1.0,1.0,1.0,4.0,-1.0,-4.0,1.0,-1.0,1651070593694876.0,1
465,3.0,5.0,10.0,13.0,7.0,3.0,-2.0,1.0,1651070593694876.0,1
466,-8.0,-1.0,1.0,46.0,5.0,2.0,0.0,-1.0,1651070593703843.0,1
467,0.0,-1.0,-15.0,-64.0,-9.0,-1.0,1.0,-1.0,1651070593703843.0,1
468,-6.0,-15.0,-23.0,-12.0,-7.0,-3.0,-4.0,-3.0,1651070593718816.0,1
469,-3.0,-1.0,9.0,16.0,6.0,2.0,1.0,1.0,1651070593718816.0,1
470,10.0,4.0,21.0,21.0,2.0,5.0,5.0,1.0,1651070593720825.0,1
471,-1.0,1.0,-11.0,-31.0,-8.0,-1.0,1.0,0.0,1651070593720825.0,1
472,-3.0,4.0,-2.0,-2.0,0.0,-2.0,-2.0,-1.0,1651070593741922.0,1
473,-6.0,-10.0,3.0,3.0,-9.0,-6.0,-2.0,-2.0,1651070593741922.0,1
474,6.0,12.0,4.0,2.0,2.0,-2.0,-2.0,0.0,1651070593742945.0,1
475,0.0,-3.0,-20.0,13.0,5.0,0.0,0.0,-3.0,1651070593742945.0,1
476,-2.0,2.0,10.0,26.0,18.0,6.0,2.0,1.0,1651070593754966.0,1
477,0.0,-9.0,-11.0,-47.0,-8.0,-1.0,-1.0,1.0,1651070593754966.0,1
478,4.0,18.0,36.0,1.0,-13.0,-4.0,-2.0,2.0,1651070593764007.0,1
479,1.0,-3.0,-6.0,-1.0,-8.0,-4.0,0.0,-1.0,1651070593764007.0,1
480,1.0,4.0,-3.0,22.0,1.0,1.0,0.0,-1.0,1651070593779865.0,1
481,4.0,8.0,6.0,16.0,34.0,13.0,4.0,2.0,1651070593779865.0,1
482,-2.0,-1.0,-10.0,-22.0,1.0,0.0,-2.0,2.0,1651070593780795.0,1
483,-4.0,0.0,2.0,4.0,1.0,0.0,-1.0,-1.0,1651070593780795.0,1
484,1.0,-16.0,-7.0,-6.0,-19.0,-7.0,-3.0,-3.0,1651070593801971.0,1
485,-3.0,8.0,18.0,0.0,-19.0,-11.0,-5.0,-3.0,1651070593801971.0,1
486,-2.0,-9.0,-35.0,-24.0,5.0,9.0,2.0,0.0,1651070593802940.0,1
487,2.0,9.0,2.0,14.0,0.0,0.0,-3.0,-1.0,1651070593802940.0,1
488,-3.0,2.0,1.0,9.0,8.0,2.0,-2.0,0.0,1651070593815017.0,1
489,-2.0,-5.0,20.0,5.0,-7.0,-2.0,-1.0,-3.0,1651070593815017.0,1
490,-1.0,2.0,-33.0,-16.0,2.0,-2.0,0.0,-1.0,1651070593823995.0,1
491,-3.0,-8.0,-14.0,12.0,6.0,1.0,-1.0,-1.0,1651070593823995.0,1
492,-1.0,-4.0,2.0,-20.0,-6.0,2.0,2.0,-1.0,1651070593839065.0,1
493,-1.0,0.0,-15.0,10.0,-37.0,-15.0,-4.0,-1.0,1651070593839065.0,1
494,0.0,3.0,22.0,-11.0,14.0,-2.0,-1.0,-1.0,1651070593841053.0,1
495,1.0,-1.0,24.0,22.0,24.0,11.0,5.0,1.0,1651070593841053.0,1
496,3.0,9.0,-12.0,-31.0,-4.0,-2.0,-1.0,0.0,1651070593861924.0,1
497,0.0,-10.0,-19.0,13.0,0.0,3.0,0.0,-1.0,1651070593861924.0,1
498,-1.0,1.0,7.0,6.0,-23.0,-10.0,-2.0,-1.0,1651070593862925.0,1
499,1.0,6.0,-9.0,-36.0,-10.0,-3.0,0.0,0.0,1651070593862925.0,1
500,-5.0,-4.0,10.0,6.0,7.0,0.0,-2.0,-3.0,1651070593884046.0,1
501,1.0,11.0,15.0,11.0,0.0,0.0,0.0,2.0,1651070593884046.0,1
502,-1.0,0.0,3.0,12.0,7.0,4.0,0.0,-6.0,1651070593885974.0,1
503,2.0,3.0,18.0,-6.0,5.0,-2.0,-3.0,8.0,1651070593885974.0,1
504,-3.0,2.0,-1.0,10.0,-5.0,1.0,0.0,0.0,1651070593899005.0,1
505,1.0,2.0,-2.0,-16.0,5.0,0.0,1.0,-2.0,1651070593899005.0,1
506,5.0,2.0,3.0,18.0,3.0,3.0,2.0,7.0,1651070593900961.0,1
507,-4.0,-7.0,6.0,15.0,-2.0,0.0,1.0,-5.0,1651070593900961.0,1
508,0.0,10.0,13.0,-30.0,-10.0,-8.0,-2.0,-2.0,1651070593921698.0,1
509,-3.0,-22.0,-44.0,-3.0,12.0,3.0,1.0,-1.0,1651070593921698.0,1
510,-4.0,6.0,24.0,27.0,2.0,2.0,1.0,-1.0,1651070593922725.0,1
511,3.0,-5.0,-15.0,-38.0,-14.0,-7.0,-2.0,-2.0,1651070593922725.0,1
512,-1.0,-4.0,-11.0,6.0,-7.0,-3.0,-1.0,1.0,1651070593943954.0,1
513,-1.0,4.0,16.0,7.0,13.0,3.0,1.0,-1.0,1651070593943954.0,1
514,0.0,-4.0,-21.0,-25.0,-2.0,-1.0,0.0,1.0,1651070593945882.0,1
515,-3.0,-6.0,7.0,33.0,-10.0,0.0,-4.0,-1.0,1651070593945882.0,1
516,0.0,1.0,2.0,-6.0,5.0,-1.0,-1.0,0.0,1651070593958846.0,1
517,0.0,-2.0,2.0,3.0,5.0,3.0,2.0,2.0,1651070593958846.0,1
518,0.0,-4.0,14.0,16.0,-7.0,-3.0,-4.0,0.0,1651070593960870.0,1
519,1.0,7.0,-2.0,-13.0,10.0,1.0,1.0,-1.0,1651070593960870.0,1
520,0.0,-1.0,6.0,-10.0,-2.0,-2.0,1.0,-2.0,1651070593981118.0,1
521,-2.0,-14.0,-15.0,-9.0,-16.0,-6.0,-2.0,0.0,1651070593981118.0,1
522,-5.0,-11.0,-1.0,7.0,5.0,2.0,1.0,-2.0,1651070593983045.0,1
523,-4.0,-3.0,-17.0,-3.0,-21.0,-7.0,-3.0,-4.0,1651070593983045.0,1
524,-7.0,3.0,19.0,2.0,20.0,8.0,0.0,-10.0,1651070594003695.0,1
525,6.0,-2.0,-6.0,3.0,-2.0,-3.0,1.0,4.0,1651070594003695.0,1
526,7.0,1.0,-14.0,-11.0,0.0,1.0,4.0,18.0,1651070594005690.0,1
527,3.0,4.0,24.0,31.0,-2.0,-4.0,1.0,-3.0,1651070594005690.0,1
528,1.0,-7.0,-4.0,-4.0,-7.0,-2.0,0.0,2.0,1651070594018722.0,1
529,-6.0,-1.0,-16.0,-19.0,-4.0,-1.0,-3.0,-12.0,1651070594018722.0,1
530,-2.0,0.0,-7.0,-2.0,4.0,0.0,-1.0,-6.0,1651070594025644.0,1
531,-2.0,-1.0,14.0,-10.0,-1.0,1.0,2.0,4.0,1651070594025644.0,1
532,0.0,1.0,-6.0,13.0,1.0,-1.0,-3.0,-1.0,1651070594041746.0,1
533,0.0,7.0,32.0,19.0,5.0,1.0,-1.0,1.0,1651070594041746.0,1
534,0.0,-5.0,-31.0,-13.0,-6.0,-3.0,-2.0,-3.0,1651070594042677.0,1
535,-3.0,0.0,-19.0,-17.0,-1.0,-2.0,-2.0,0.0,1651070594042677.0,1
536,-3.0,-6.0,-6.0,-3.0,-4.0,-3.0,-1.0,-1.0,1651070594064588.0,1
537,0.0,-8.0,-9.0,-4.0,-4.0,-1.0,-1.0,1.0,1651070594064588.0,1
538,-4.0,2.0,20.0,-4.0,-3.0,-2.0,0.0,-2.0,1651070594065587.0,1
539,-3.0,-1.0,-6.0,25.0,12.0,1.0,-1.0,-4.0,1651070594065587.0,1
540,6.0,13.0,-4.0,-21.0,4.0,2.0,3.0,4.0,1651070594078553.0,1
541,-1.0,2.0,-2.0,14.0,3.0,2.0,1.0,2.0,1651070594078553.0,1
542,-1.0,-3.0,3.0,1.0,-6.0,-4.0,1.0,-5.0,1651070594085610.0,1
543,-1.0,2.0,5.0,-9.0,-6.0,-2.0,-3.0,-3.0,1651070594085610.0,1
544,-1.0,-4.0,-13.0,-7.0,-9.0,0.0,-1.0,3.0,1651070594101685.0,1
545,-1.0,-4.0,0.0,-5.0,3.0,0.0,-1.0,-1.0,1651070594101685.0,1
546,-3.0,-6.0,6.0,11.0,3.0,-1.0,-2.0,-2.0,1651070594107739.0,1
547,2.0,-2.0,1.0,-2.0,-2.0,-1.0,-1.0,2.0,1651070594107739.0,1
548,1.0,-3.0,-12.0,-4.0,-1.0,-4.0,-3.0,0.0,1651070594124457.0,1
549,-1.0,9.0,7.0,17.0,2.0,0.0,-1.0,-2.0,1651070594124457.0,1
550,0.0,-1.0,-9.0,-49.0,-1.0,0.0,-1.0,-3.0,1651070594125732.0,1
551,0.0,5.0,13.0,29.0,7.0,2.0,1.0,1.0,1651070594125732.0,1
552,-4.0,-21.0,-40.0,-12.0,-8.0,-3.0,-3.0,-1.0,1651070594138778.0,1
553,1.0,14.0,17.0,0.0,1.0,1.0,-1.0,-2.0,1651070594138778.0,1
554,2.0,5.0,29.0,14.0,9.0,1.0,2.0,0.0,1651070594144833.0,1
555,-2.0,-6.0,-9.0,6.0,1.0,-2.0,-1.0,0.0,1651070594144833.0,1
556,-1.0,1.0,-11.0,-18.0,-5.0,1.0,1.0,0.0,1651070594161994.0,1
557,1.0,4.0,-13.0,-9.0,-5.0,-3.0,-1.0,-1.0,1651070594161994.0,1
558,-3.0,-5.0,-6.0,7.0,-1.0,1.0,-1.0,2.0,1651070594162999.0,1
559,-1.0,1.0,9.0,-4.0,7.0,1.0,0.0,-3.0,1651070594162999.0,1
560,-1.0,9.0,17.0,10.0,7.0,0.0,-1.0,0.0,1651070594184115.0,1
561,0.0,-8.0,12.0,8.0,5.0,1.0,1.0,1.0,1651070594184115.0,1
562,2.0,-2.0,-19.0,-4.0,5.0,1.0,0.0,0.0,1651070594186044.0,1
563,-1.0,-4.0,-12.0,-5.0,-1.0,2.0,-1.0,0.0,1651070594186044.0,1
564,1.0,-1.0,19.0,1.0,-8.0,-2.0,0.0,0.0,1651070594198078.0,1
565,0.0,7.0,10.0,-2.0,0.0,-1.0,0.0,0.0,1651070594198078.0,1
566,0.0,1.0,0.0,13.0,-3.0,-3.0,-1.0,-1.0,1651070594205060.0,1
567,-2.0,-3.0,-9.0,-14.0,-11.0,-2.0,-2.0,-1.0,1651070594205060.0,1
568,1.0,-1.0,-7.0,-5.0,-3.0,-4.0,0.0,1.0,1651070594222313.0,1
569,0.0,4.0,0.0,3.0,10.0,5.0,3.0,0.0,1651070594222313.0,1
570,-1.0,-4.0,-9.0,1.0,1.0,5.0,1.0,0.0,1651070594223313.0,1
571,1.0,1.0,5.0,8.0,-4.0,-1.0,1.0,-1.0,1651070594223313.0,1
572,-1.0,3.0,6.0,-1.0,3.0,1.0,1.0,0.0,1651070594244013.0,1
573,-2.0,-9.0,-31.0,-28.0,-12.0,-8.0,-3.0,0.0,1651070594244013.0,1
574,-4.0,-10.0,23.0,13.0,7.0,1.0,1.0,0.0,1651070594246033.0,1
575,0.0,-1.0,-8.0,-8.0,-1.0,-1.0,0.0,-1.0,1651070594246033.0,1
576,1.0,1.0,13.0,18.0,3.0,1.0,-1.0,0.0,1651070594258809.0,1
577,-3.0,-4.0,-15.0,-3.0,-3.0,1.0,-1.0,0.0,1651070594258809.0,1
578,0.0,4.0,-4.0,-2.0,-7.0,-3.0,-2.0,0.0,1651070594264833.0,1
579,0.0,0.0,-15.0,-28.0,0.0,-1.0,-1.0,-1.0,1651070594264833.0,1
580,-1.0,0.0,23.0,9.0,-4.0,1.0,0.0,1.0,1651070594281789.0,1
581,0.0,-3.0,-25.0,-11.0,10.0,0.0,0.0,-1.0,1651070594281789.0,1
582,-2.0,-1.0,-6.0,2.0,-5.0,0.0,-1.0,0.0,1651070594282717.0,1
583,-1.0,-1.0,16.0,5.0,-5.0,-1.0,-1.0,-1.0,1651070594282717.0,1
584,-1.0,-3.0,14.0,8.0,8.0,0.0,0.0,-2.0,1651070594303815.0,1
585,1.0,-2.0,4.0,4.0,-6.0,-3.0,-2.0,-2.0,1651070594303815.0,1
586,-1.0,0.0,-12.0,-18.0,-8.0,-3.0,-1.0,-1.0,1651070594305812.0,1
587,-2.0,0.0,-6.0,1.0,7.0,0.0,0.0,-1.0,1651070594305812.0,1
588,-1.0,-2.0,0.0,-8.0,1.0,1.0,-1.0,0.0,1651070594318862.0,1
589,-1.0,0.0,15.0,13.0,-3.0,-2.0,-1.0,0.0,1651070594318862.0,1
590,-2.0,1.0,-1.0,0.0,2.0,-2.0,-1.0,-1.0,1651070594324777.0,1
591,0.0,0.0,9.0,2.0,0.0,1.0,-1.0,1.0,1651070594324777.0,1
592,0.0,0.0,-7.0,15.0,-3.0,-2.0,-2.0,1.0,1651070594341974.0,1
593,0.0,-1.0,-7.0,-34.0,-4.0,-1.0,0.0,1.0,1651070594341974.0,1
594,1.0,2.0,-3.0,7.0,-3.0,-1.0,-1.0,-2.0,1651070594342958.0,1
595,0.0,0.0,-7.0,-4.0,-5.0,-4.0,-1.0,-1.0,1651070594342958.0,1
596,-1.0,5.0,3.0,2.0,-19.0,-7.0,0.0,0.0,1651070594364172.0,1
597,-1.0,-13.0,-6.0,16.0,18.0,2.0,-1.0,-1.0,1651070594364172.0,1
598,1.0,0.0,-3.0,-1.0,12.0,2.0,0.0,0.0,1651070594365130.0,1
599,0.0,-1.0,-2.0,-2.0,3.0,3.0,1.0,1.0,1651070594365130.0,1
600,0.0,1.0,-13.0,-13.0,-3.0,0.0,-1.0,0.0,1651070594378109.0,1
601,0.0,2.0,6.0,-15.0,-14.0,-2.0,-2.0,0.0,1651070594378109.0,1
602,-1.0,2.0,9.0,14.0,-3.0,-3.0,-2.0,-2.0,1651070594387162.0,1
603,1.0,-1.0,7.0,8.0,-3.0,-1.0,0.0,0.0,1651070594387162.0,1
604,-2.0,-9.0,-36.0,-16.0,1.0,0.0,0.0,-1.0,1651070594402043.0,1
605,-1.0,6.0,27.0,13.0,3.0,2.0,1.0,0.0,1651070594402043.0,1
606,1.0,-3.0,0.0,5.0,6.0,1.0,0.0,1.0,1651070594403043.0,1
607,1.0,2.0,1.0,-9.0,-8.0,-3.0,1.0,-1.0,1651070594403043.0,1
608,0.0,4.0,6.0,7.0,5.0,3.0,0.0,2.0,1651070594424176.0,1
609,-1.0,-3.0,-21.0,-10.0,-2.0,-1.0,0.0,1.0,1651070594424176.0,1
610,-2.0,-10.0,21.0,19.0,7.0,1.0,1.0,0.0,1651070594426117.0,1
611,1.0,-3.0,-8.0,-6.0,-1.0,-3.0,0.0,-1.0,1651070594426117.0,1
612,1.0,0.0,5.0,-3.0,-2.0,-3.0,-3.0,-1.0,1651070594438161.0,1
613,-2.0,1.0,-6.0,8.0,4.0,2.0,1.0,1.0,1651070594438161.0,1
614,0.0,5.0,25.0,5.0,-5.0,0.0,-1.0,-1.0,1651070594446861.0,1
615,-3.0,-5.0,-33.0,-30.0,-3.0,0.0,-2.0,1.0,1651070594446861.0,1
616,-3.0,-1.0,9.0,17.0,-6.0,-7.0,-1.0,-3.0,1651070594461882.0,1
617,0.0,-2.0,6.0,4.0,18.0,6.0,0.0,-1.0,1651070594461882.0,1
618,0.0,6.0,-10.0,6.0,3.0,1.0,-1.0,0.0,1651070594462829.0,1
619,-2.0,-12.0,7.0,-2.0,5.0,-1.0,-2.0,-1.0,1651070594462829.0,1
620,-2.0,-1.0,-4.0,-4.0,1.0,0.0,0.0,0.0,1651070594483923.0,1
621,2.0,4.0,8.0,1.0,-7.0,-1.0,1.0,1.0,1651070594483923.0,1
622,0.0,-1.0,-22.0,-16.0,-8.0,-5.0,-1.0,0.0,1651070594485885.0,1
623,-2.0,0.0,8.0,11.0,5.0,1.0,0.0,-3.0,1651070594485885.0,1
624,0.0,-1.0,1.0,0.0,-1.0,-3.0,1.0,-1.0,1651070594497920.0,1
625,-2.0,-2.0,0.0,0.0,-14.0,-5.0,1.0,-1.0,1651070594497920.0,1
626,-1.0,-1.0,-8.0,-12.0,14.0,11.0,1.0,0.0,1651070594506829.0,1
627,-1.0,3.0,2.0,5.0,-3.0,2.0,2.0,2.0,1651070594506829.0,1
628,-1.0,-4.0,0.0,0.0,3.0,2.0,-1.0,0.0,1651070594522058.0,1
629,1.0,3.0,4.0,10.0,-4.0,-2.0,-2.0,-2.0,1651070594522058.0,1
630,-2.0,-6.0,-9.0,-23.0,-9.0,-5.0,1.0,-2.0,1651070594523061.0,1
631,2.0,13.0,15.0,5.0,-2.0,-1.0,-1.0,0.0,1651070594523061.0,1
632,-5.0,-16.0,-22.0,9.0,6.0,-1.0,-3.0,-3.0,1651070594543987.0,1
633,1.0,1.0,6.0,4.0,2.0,-1.0,1.0,1.0,1651070594543987.0,1
634,1.0,0.0,-16.0,-18.0,-11.0,-6.0,-3.0,-4.0,1651070594545954.0,1
635,-1.0,1.0,9.0,1.0,-5.0,-1.0,-1.0,0.0,1651070594545954.0,1
636,2.0,3.0,10.0,1.0,0.0,0.0,0.0,1.0,1651070594557536.0,1
637,0.0,4.0,5.0,-3.0,14.0,1.0,0.0,0.0,1651070594557536.0,1
638,-1.0,-3.0,4.0,16.0,-3.0,0.0,0.0,0.0,1651070594566840.0,1
639,-1.0,-2.0,-5.0,-7.0,1.0,1.0,-1.0,-1.0,1651070594566840.0,1
640,0.0,-1.0,-7.0,-12.0,-11.0,-3.0,-1.0,-1.0,1651070594581999.0,1
641,-1.0,-3.0,-9.0,3.0,-6.0,-4.0,-2.0,0.0,1651070594581999.0,1
642,-1.0,7.0,4.0,3.0,-5.0,-2.0,1.0,0.0,1651070594582970.0,1
643,0.0,-5.0,-18.0,-12.0,-1.0,-3.0,-1.0,-3.0,1651070594582970.0,1
644,2.0,8.0,14.0,4.0,3.0,1.0,-1.0,0.0,1651070594604161.0,1
645,-1.0,-4.0,0.0,-1.0,0.0,1.0,1.0,0.0,1651070594604161.0,1
646,-1.0,3.0,-5.0,3.0,-2.0,-4.0,-2.0,-1.0,1651070594606155.0,1
647,2.0,-1.0,6.0,17.0,2.0,-1.0,0.0,-1.0,1651070594606155.0,1
648,0.0,-1.0,0.0,-14.0,2.0,2.0,0.0,1.0,1651070594618157.0,1
649,0.0,-2.0,-5.0,-5.0,-6.0,-2.0,-2.0,-1.0,1651070594618157.0,1
650,-3.0,-4.0,-2.0,2.0,-1.0,0.0,-1.0,0.0,1651070594627100.0,1
651,0.0,0.0,13.0,7.0,-3.0,-3.0,0.0,-2.0,1651070594627100.0,1
652,0.0,4.0,-7.0,0.0,5.0,0.0,1.0,-2.0,1651070594642040.0,1
653,-1.0,-4.0,5.0,-1.0,-9.0,-3.0,-1.0,-1.0,1651070594642040.0,1
654,1.0,-2.0,-3.0,-7.0,10.0,5.0,1.0,1.0,1651070594643037.0,1
655,1.0,1.0,1.0,2.0,0.0,0.0,-2.0,0.0,1651070594643037.0,1
656,0.0,3.0,1.0,3.0,3.0,0.0,-1.0,-1.0,1651070594671487.0,1
657,-2.0,-1.0,-3.0,5.0,-4.0,-2.0,-2.0,0.0,1651070594671487.0,1
658,-1.0,-1.0,0.0,-19.0,-22.0,-7.0,-2.0,-2.0,1651070594673473.0,1
659,-3.0,-6.0,-12.0,-3.0,9.0,-4.0,-2.0,-3.0,1651070594673473.0,1
660,2.0,6.0,1.0,-13.0,11.0,13.0,4.0,3.0,1651070594677463.0,1
661,-3.0,-9.0,-12.0,19.0,-4.0,-2.0,-1.0,-1.0,1651070594677463.0,1
662,-2.0,-4.0,-1.0,-6.0,3.0,-3.0,-2.0,-1.0,1651070594686462.0,1
663,-2.0,1.0,1.0,-2.0,-11.0,-4.0,-2.0,-1.0,1651070594686462.0,1
664,-1.0,-1.0,9.0,6.0,-6.0,-4.0,-1.0,0.0,1651070594702039.0,1
665,1.0,4.0,-12.0,-13.0,7.0,1.0,3.0,-1.0,1651070594702039.0,1
666,0.0,5.0,21.0,9.0,-1.0,2.0,0.0,0.0,1651070594703039.0,1
667,-2.0,-7.0,-23.0,-1.0,1.0,0.0,-1.0,-1.0,1651070594703039.0,1
668,-1.0,-2.0,-1.0,-2.0,4.0,1.0,-2.0,-1.0,1651070594724451.0,1
669,2.0,1.0,5.0,5.0,2.0,3.0,0.0,0.0,1651070594724451.0,1
670,0.0,-1.0,-3.0,-3.0,3.0,-2.0,-1.0,0.0,1651070594725766.0,1
671,-2.0,1.0,1.0,-12.0,-9.0,-2.0,-1.0,-2.0,1651070594725766.0,1
672,-3.0,-4.0,-3.0,11.0,9.0,2.0,2.0,-1.0,1651070594737734.0,1
673,-2.0,-3.0,-13.0,-4.0,-8.0,-3.0,-2.0,-1.0,1651070594737734.0,1
674,0.0,-1.0,18.0,9.0,5.0,1.0,0.0,0.0,1651070594746710.0,1
675,-1.0,-5.0,-2.0,9.0,10.0,3.0,2.0,1.0,1651070594746710.0,1
676,0.0,-3.0,-5.0,-4.0,-12.0,-6.0,0.0,-1.0,1651070594761736.0,1
677,-1.0,2.0,4.0,-6.0,-4.0,0.0,0.0,-2.0,1651070594761736.0,1
678,-3.0,2.0,-7.0,-1.0,1.0,-2.0,0.0,2.0,1651070594762667.0,1
679,2.0,-1.0,1.0,5.0,18.0,8.0,1.0,1.0,1651070594762667.0,1
680,0.0,-1.0,4.0,1.0,-5.0,-3.0,0.0,-1.0,1651070594783742.0,1
681,-1.0,-2.0,6.0,-1.0,1.0,0.0,-1.0,1.0,1651070594783742.0,1
682,1.0,-9.0,-15.0,5.0,-4.0,-3.0,0.0,-2.0,1651070594785739.0,1
683,0.0,0.0,-6.0,-7.0,-9.0,-5.0,0.0,-1.0,1651070594785739.0,1
684,1.0,-3.0,-4.0,-14.0,-2.0,3.0,0.0,0.0,1651070594806739.0,1
685,0.0,6.0,13.0,10.0,2.0,-3.0,-2.0,-1.0,1651070594806739.0,1
686,-1.0,-4.0,-5.0,-8.0,9.0,4.0,-2.0,-3.0,1651070594807746.0,1
687,1.0,1.0,4.0,18.0,0.0,-1.0,-1.0,0.0,1651070594807746.0,1
688,-1.0,0.0,5.0,5.0,2.0,-2.0,0.0,-2.0,1651070594821760.0,1
689,0.0,1.0,-2.0,-14.0,-9.0,-3.0,-3.0,2.0,1651070594821760.0,1
690,1.0,1.0,2.0,11.0,-8.0,-1.0,0.0,-1.0,1651070594822761.0,1
691,0.0,3.0,-8.0,-22.0,0.0,-1.0,0.0,0.0,1651070594822761.0,1
692,0.0,-2.0,2.0,4.0,-3.0,-4.0,-1.0,0.0,1651070594843881.0,1
693,-1.0,0.0,2.0,-1.0,5.0,1.0,-1.0,-1.0,1651070594843881.0,1
694,-2.0,-1.0,-6.0,-9.0,-6.0,-5.0,-2.0,0.0,1651070594845809.0,1
695,0.0,4.0,11.0,8.0,2.0,3.0,1.0,1.0,1651070594845809.0,1
696,-3.0,-6.0,-15.0,-11.0,-5.0,-4.0,-2.0,-1.0,1651070594866760.0,1
697,-1.0,-3.0,4.0,8.0,-3.0,-5.0,-1.0,-2.0,1651070594866760.0,1
698,1.0,5.0,2.0,-19.0,1.0,5.0,0.0,-3.0,1651070594867750.0,1
699,-1.0,-8.0,-16.0,2.0,3.0,1.0,-3.0,-2.0,1651070594867750.0,1
700,0.0,3.0,22.0,17.0,4.0,-2.0,-1.0,0.0,1651070594888797.0,1
701,0.0,-3.0,-1.0,-7.0,6.0,8.0,3.0,1.0,1651070594888797.0,1
702,0.0,-4.0,-6.0,5.0,-6.0,-6.0,-1.0,-1.0,1651070594890783.0,1
703,0.0,0.0,2.0,-6.0,-8.0,-2.0,1.0,0.0,1651070594890783.0,1
704,0.0,3.0,-6.0,-6.0,-1.0,-3.0,-1.0,-2.0,1651070594903751.0,1
705,-1.0,5.0,3.0,-5.0,-5.0,-3.0,0.0,0.0,1651070594903751.0,1
706,-3.0,-7.0,-1.0,5.0,-1.0,2.0,-1.0,0.0,1651070594905683.0,1
707,2.0,5.0,2.0,-3.0,-2.0,2.0,1.0,-1.0,1651070594905683.0,1
708,-1.0,0.0,-2.0,3.0,-2.0,-2.0,0.0,0.0,1651070594926735.0,1
709,1.0,-5.0,9.0,17.0,5.0,4.0,1.0,0.0,1651070594926735.0,1
710,0.0,-3.0,-25.0,-30.0,-1.0,0.0,-1.0,0.0,1651070594927725.0,1
711,-1.0,-5.0,5.0,2.0,-3.0,-4.0,0.0,0.0,1651070594927725.0,1
712,1.0,2.0,0.0,-12.0,-4.0,-2.0,-2.0,0.0,1651070594941331.0,1
713,1.0,-3.0,-4.0,5.0,-1.0,-4.0,-2.0,-2.0,1651070594941331.0,1
714,0.0,2.0,7.0,11.0,11.0,0.0,1.0,-1.0,1651070594947666.0,1
715,-2.0,0.0,5.0,10.0,-4.0,-2.0,-3.0,0.0,1651070594947666.0,1
716,-2.0,-5.0,-6.0,-11.0,8.0,1.0,-1.0,-2.0,1651070594964457.0,1
717,1.0,0.0,3.0,-4.0,16.0,4.0,0.0,-2.0,1651070594964457.0,1
718,-1.0,0.0,-5.0,8.0,-5.0,-3.0,-1.0,0.0,1651070594965465.0,1
719,0.0,4.0,2.0,-9.0,-9.0,-5.0,-1.0,0.0,1651070594965465.0,1
720,-1.0,-1.0,3.0,10.0,-5.0,-1.0,1.0,0.0,1651070594986331.0,1
721,-1.0,0.0,-6.0,-6.0,-6.0,-4.0,-2.0,0.0,1651070594986331.0,1
722,-2.0,0.0,0.0,7.0,6.0,5.0,0.0,1.0,1651070594988259.0,1
723,1.0,7.0,4.0,-4.0,-3.0,0.0,0.0,0.0,1651070594988259.0,1
724,-1.0,-10.0,-3.0,-9.0,0.0,0.0,0.0,1.0,1651070595001291.0,1
725,-2.0,-1.0,-1.0,7.0,-1.0,-2.0,-1.0,-2.0,1651070595001291.0,1
726,0.0,2.0,-3.0,1.0,-1.0,-4.0,-1.0,0.0,1651070595008207.0,1
727,0.0,0.0,16.0,11.0,3.0,2.0,-1.0,0.0,1651070595008207.0,1
728,-2.0,0.0,-4.0,0.0,0.0,1.0,-1.0,-1.0,1651070595024483.0,1
729,-1.0,1.0,-5.0,-23.0,-10.0,-2.0,0.0,0.0,1651070595024483.0,1
730,-1.0,-5.0,5.0,10.0,3.0,-3.0,0.0,1.0,1651070595025287.0,1
731,-1.0,2.0,-13.0,-2.0,3.0,1.0,-1.0,0.0,1651070595025287.0,1
732,-1.0,-10.0,-7.0,4.0,-7.0,-2.0,-1.0,-1.0,1651070595054421.0,1
733,2.0,3.0,0.0,2.0,7.0,1.0,-1.0,0.0,1651070595054421.0,1
734,0.0,4.0,10.0,-3.0,-4.0,-6.0,-2.0,-1.0,1651070595055409.0,1
735,0.0,-2.0,0.0,-3.0,-3.0,-3.0,-1.0,-2.0,1651070595055409.0,1
736,-3.0,1.0,4.0,22.0,19.0,10.0,3.0,0.0,1651070595061280.0,1
737,-4.0,0.0,-13.0,-23.0,-6.0,-3.0,-1.0,-1.0,1651070595061280.0,1
738,2.0,1.0,13.0,5.0,-2.0,-1.0,1.0,1.0,1651070595067289.0,1
739,-2.0,-8.0,-11.0,-7.0,-2.0,0.0,0.0,1.0,1651070595067289.0,1
740,-1.0,2.0,-3.0,-7.0,-7.0,-2.0,0.0,0.0,1651070595084406.0,1
741,-1.0,3.0,4.0,9.0,0.0,0.0,-1.0,-1.0,1651070595084406.0,1
742,0.0,8.0,22.0,11.0,-6.0,2.0,2.0,-1.0,1651070595085467.0,1
743,-6.0,-10.0,-19.0,-13.0,11.0,1.0,-3.0,-2.0,1651070595085467.0,1
744,3.0,7.0,20.0,2.0,-2.0,-2.0,-1.0,0.0,1651070595106453.0,1
745,-3.0,-16.0,-34.0,-3.0,-1.0,-1.0,-1.0,1.0,1651070595106453.0,1
746,0.0,-2.0,-1.0,-5.0,-8.0,-4.0,0.0,0.0,1651070595108444.0,1
747,1.0,1.0,-2.0,1.0,-4.0,-2.0,-1.0,-1.0,1651070595108444.0,1
748,-2.0,-3.0,7.0,13.0,-2.0,-1.0,-3.0,-2.0,1651070595121388.0,1
749,0.0,8.0,3.0,-4.0,4.0,1.0,1.0,1.0,1651070595121388.0,1
750,0.0,1.0,-7.0,-4.0,-7.0,-1.0,-3.0,-2.0,1651070595127433.0,1
751,-2.0,-7.0,-2.0,3.0,5.0,-1.0,1.0,0.0,1651070595127433.0,1
752,2.0,4.0,2.0,-10.0,-17.0,-4.0,1.0,1.0,1651070595144430.0,1
753,0.0,-1.0,6.0,3.0,14.0,1.0,-1.0,-3.0,1651070595144430.0,1
754,-4.0,-3.0,-6.0,-2.0,-5.0,-1.0,-2.0,-2.0,1651070595145472.0,1
755,0.0,0.0,18.0,13.0,4.0,-3.0,-1.0,-1.0,1651070595145472.0,1
756,-7.0,-8.0,-24.0,-23.0,-3.0,2.0,-2.0,-2.0,1651070595166571.0,1
757,8.0,7.0,-1.0,6.0,2.0,2.0,1.0,3.0,1651070595166571.0,1
758,0.0,-2.0,2.0,0.0,-4.0,-1.0,1.0,4.0,1651070595168549.0,1
759,0.0,5.0,0.0,-8.0,-2.0,-2.0,-2.0,-4.0,1651070595168549.0,1
760,-1.0,3.0,9.0,9.0,6.0,-1.0,0.0,-1.0,1651070595180582.0,1
761,-1.0,-7.0,-23.0,-6.0,-7.0,-1.0,0.0,0.0,1651070595180582.0,1
762,-3.0,-7.0,20.0,5.0,9.0,2.0,-1.0,-3.0,1651070595187564.0,0
763,-5.0,-8.0,-31.0,-13.0,-25.0,-7.0,-1.0,-1.0,1651070595187564.0,2
764,2.0,6.0,-8.0,-9.0,-2.0,-3.0,-2.0,-2.0,1651070595204457.0,2
765,0.0,7.0,9.0,5.0,4.0,4.0,1.0,2.0,1651070595204457.0,2
766,-2.0,-7.0,6.0,15.0,1.0,-3.0,0.0,-2.0,1651070595205402.0,2
767,-4.0,2.0,13.0,-6.0,-3.0,-1.0,-2.0,1.0,1651070595205402.0,2
768,-6.0,-18.0,-20.0,-4.0,6.0,2.0,-1.0,-5.0,1651070595226450.0,2
769,-3.0,-9.0,0.0,-1.0,-12.0,-2.0,-1.0,-2.0,1651070595226450.0,2
770,1.0,13.0,18.0,-6.0,2.0,-3.0,-2.0,0.0,1651070595228422.0,2
771,-2.0,4.0,3.0,-3.0,7.0,1.0,1.0,1.0,1651070595228422.0,2
772,1.0,3.0,-24.0,2.0,-1.0,0.0,4.0,1.0,1651070595241442.0,2
773,5.0,-3.0,13.0,11.0,3.0,-3.0,0.0,0.0,1651070595241442.0,2
774,0.0,-4.0,-14.0,-17.0,-3.0,1.0,-2.0,-2.0,1651070595247430.0,2
775,1.0,9.0,-7.0,2.0,1.0,2.0,1.0,2.0,1651070595247430.0,2
776,-5.0,7.0,30.0,14.0,-1.0,-3.0,-1.0,1.0,1651070595263681.0,2
777,-6.0,-17.0,27.0,4.0,-1.0,5.0,-1.0,-3.0,1651070595263681.0,2
778,6.0,3.0,-41.0,-6.0,-7.0,0.0,1.0,2.0,1651070595265774.0,2
779,-2.0,23.0,16.0,5.0,9.0,0.0,0.0,-1.0,1651070595265774.0,2
780,1.0,-20.0,0.0,-17.0,-19.0,-9.0,-4.0,-3.0,1651070595286476.0,2
781,-4.0,-5.0,-12.0,-11.0,-6.0,-4.0,0.0,-1.0,1651070595286476.0,2
782,-3.0,-7.0,-1.0,12.0,16.0,7.0,1.0,2.0,1651070595288390.0,2
783,-3.0,-18.0,4.0,-7.0,-20.0,-10.0,-5.0,-4.0,1651070595288390.0,2
784,-20.0,-1.0,-44.0,-13.0,-6.0,-3.0,-1.0,-7.0,1651070595300425.0,2
785,10.0,32.0,26.0,2.0,21.0,7.0,3.0,4.0,1651070595300425.0,2
786,1.0,-27.0,-26.0,-2.0,0.0,-3.0,-3.0,-2.0,1651070595309334.0,2
787,-4.0,4.0,17.0,22.0,7.0,4.0,-1.0,-1.0,1651070595309334.0,2
788,6.0,1.0,13.0,-4.0,-9.0,-7.0,-2.0,1.0,1651070595324443.0,2
789,-18.0,-2.0,-14.0,-16.0,-5.0,-1.0,-7.0,-9.0,1651070595324443.0,2
790,-26.0,-21.0,-14.0,-15.0,-7.0,-1.0,-6.0,-14.0,1651070595325537.0,2
791,39.0,20.0,24.0,2.0,-2.0,4.0,9.0,13.0,1651070595325537.0,2
792,12.0,-1.0,-9.0,2.0,3.0,0.0,0.0,8.0,1651070595346602.0,2
793,-1.0,18.0,21.0,20.0,10.0,3.0,3.0,3.0,1651070595346602.0,2
794,-7.0,-12.0,4.0,6.0,5.0,-2.0,1.0,2.0,1651070595348594.0,2
795,-40.0,-30.0,6.0,-1.0,-7.0,-6.0,-14.0,-22.0,1651070595348594.0,2
796,-4.0,7.0,22.0,0.0,0.0,5.0,0.0,-2.0,1651070595359735.0,2
797,30.0,4.0,-14.0,-2.0,0.0,3.0,5.0,8.0,1651070595359735.0,2
798,-10.0,-2.0,-13.0,-3.0,-3.0,-2.0,-3.0,-5.0,1651070595369749.0,2
799,7.0,-1.0,22.0,15.0,7.0,4.0,8.0,17.0,1651070595369749.0,2
800,2.0,2.0,-51.0,8.0,18.0,5.0,-2.0,-1.0,1651070595383689.0,2
801,-40.0,-13.0,-7.0,-17.0,-25.0,-17.0,-14.0,-24.0,1651070595383689.0,2
802,-28.0,-47.0,19.0,-5.0,-11.0,-3.0,-1.0,-7.0,1651070595385770.0,2
803,-28.0,40.0,-18.0,-14.0,-14.0,-3.0,-12.0,-28.0,1651070595385770.0,2
804,48.0,36.0,58.0,18.0,16.0,9.0,22.0,34.0,1651070595405965.0,2
805,6.0,-80.0,-66.0,-10.0,17.0,8.0,8.0,21.0,1651070595405965.0,2
806,57.0,63.0,6.0,3.0,11.0,3.0,11.0,26.0,1651070595413167.0,2
807,-16.0,-31.0,-43.0,-11.0,-1.0,-6.0,-1.0,-2.0,1651070595413167.0,2
808,-5.0,67.0,61.0,4.0,-19.0,-8.0,-6.0,-7.0,1651070595420217.0,2
809,-37.0,-41.0,4.0,-1.0,-18.0,-10.0,-9.0,-26.0,1651070595420217.0,2
810,29.0,-1.0,-7.0,-3.0,12.0,7.0,10.0,25.0,1651070595429126.0,2
811,24.0,29.0,5.0,13.0,-4.0,3.0,7.0,7.0,1651070595429126.0,2
812,-27.0,1.0,19.0,-2.0,11.0,3.0,-9.0,-21.0,1651070595444198.0,2
813,22.0,20.0,38.0,5.0,5.0,3.0,6.0,13.0,1651070595444198.0,2
814,-29.0,13.0,-55.0,-3.0,-8.0,-8.0,-11.0,-25.0,1651070595445164.0,2
815,-1.0,-26.0,2.0,-16.0,-1.0,-3.0,-2.0,3.0,1651070595445164.0,2
816,-6.0,-67.0,-50.0,1.0,-7.0,-1.0,0.0,-2.0,1651070595466490.0,2
817,-15.0,38.0,-19.0,0.0,-17.0,-14.0,-10.0,-3.0,1651070595466490.0,2
818,36.0,22.0,13.0,0.0,12.0,20.0,8.0,9.0,1651070595468482.0,2
819,4.0,1.0,13.0,16.0,11.0,6.0,6.0,5.0,1651070595468482.0,2
820,-22.0,-12.0,-2.0,-8.0,3.0,-1.0,-3.0,-8.0,1651070595480490.0,2
821,-5.0,-20.0,-14.0,6.0,0.0,2.0,0.0,0.0,1651070595480490.0,2
822,30.0,66.0,43.0,9.0,-3.0,-3.0,2.0,2.0,1651070595489399.0,2
823,13.0,4.0,-44.0,-11.0,-2.0,2.0,3.0,10.0,1651070595489399.0,2
824,-7.0,-1.0,2.0,-12.0,-8.0,-7.0,-4.0,2.0,1651070595504479.0,2
825,-3.0,17.0,17.0,13.0,19.0,5.0,1.0,-10.0,1651070595504479.0,2
826,-45.0,-22.0,1.0,6.0,3.0,-4.0,-10.0,-19.0,1651070595505455.0,2
827,48.0,-9.0,-6.0,3.0,12.0,10.0,14.0,18.0,1651070595505455.0,2
828,-7.0,3.0,14.0,6.0,2.0,0.0,-4.0,3.0,1651070595526449.0,2
829,12.0,1.0,-2.0,-14.0,-15.0,-6.0,0.0,10.0,1651070595526449.0,2
830,-4.0,-12.0,-9.0,-9.0,-11.0,-4.0,0.0,-11.0,1651070595528360.0,2
831,-32.0,-29.0,18.0,5.0,-1.0,-3.0,-12.0,-19.0,1651070595528360.0,2
832,15.0,-21.0,7.0,6.0,8.0,3.0,5.0,20.0,1651070595540517.0,2
833,17.0,12.0,-11.0,-6.0,-4.0,3.0,3.0,6.0,1651070595540517.0,2
834,-15.0,-7.0,7.0,7.0,1.0,-4.0,-4.0,-3.0,1651070595549498.0,2
835,-13.0,24.0,29.0,-7.0,-9.0,-3.0,-3.0,-8.0,1651070595549498.0,2
836,4.0,-10.0,-56.0,-17.0,-24.0,-10.0,-5.0,-9.0,1651070595564509.0,2
837,-7.0,28.0,34.0,21.0,37.0,13.0,10.0,8.0,1651070595564509.0,2
838,16.0,-22.0,-35.0,-9.0,0.0,-4.0,-4.0,-5.0,1651070595565518.0,2
839,-12.0,-15.0,36.0,14.0,7.0,0.0,-3.0,-4.0,1651070595565518.0,2
840,11.0,-21.0,-20.0,-1.0,8.0,5.0,3.0,-1.0,1651070595587013.0,2
841,-10.0,-7.0,9.0,-6.0,-21.0,-8.0,-5.0,-8.0,1651070595587013.0,2
842,2.0,5.0,-1.0,-6.0,-8.0,-4.0,2.0,6.0,1651070595588024.0,2
843,11.0,12.0,-32.0,-3.0,-1.0,0.0,3.0,9.0,1651070595588024.0,2
844,-8.0,-2.0,36.0,9.0,7.0,2.0,-1.0,-6.0,1651070595600629.0,2
845,0.0,-10.0,4.0,-6.0,-14.0,-7.0,-7.0,-5.0,1651070595600629.0,2
846,2.0,-7.0,16.0,-1.0,2.0,2.0,2.0,6.0,1651070595608906.0,2
847,-3.0,32.0,18.0,-7.0,1.0,4.0,0.0,-2.0,1651070595608906.0,2
848,5.0,14.0,-27.0,0.0,4.0,0.0,-2.0,-12.0,1651070595622725.0,2
849,8.0,14.0,-11.0,-2.0,0.0,5.0,1.0,14.0,1651070595622725.0,2
850,-12.0,-21.0,0.0,-1.0,5.0,-3.0,-2.0,-1.0,1651070595631674.0,2
851,4.0,-15.0,-6.0,0.0,11.0,5.0,1.0,4.0,1651070595631674.0,2
852,-12.0,32.0,1.0,7.0,7.0,0.0,0.0,-4.0,1651070595647077.0,2
853,2.0,7.0,-17.0,-10.0,-8.0,-4.0,-4.0,-17.0,1651070595647077.0,2
854,13.0,0.0,-15.0,-14.0,-22.0,-8.0,-3.0,3.0,1651070595648062.0,2
855,3.0,4.0,18.0,8.0,-6.0,-2.0,0.0,10.0,1651070595648062.0,2
856,-3.0,-1.0,-13.0,-1.0,2.0,3.0,2.0,4.0,1651070595660606.0,2
857,4.0,-7.0,-9.0,-7.0,1.0,-2.0,0.0,1.0,1651070595660606.0,2
858,-19.0,16.0,33.0,9.0,3.0,1.0,0.0,-7.0,1651070595669653.0,2
859,-8.0,-19.0,-18.0,-1.0,4.0,-1.0,-3.0,-9.0,1651070595669653.0,2
860,17.0,11.0,23.0,-3.0,-6.0,-2.0,-2.0,5.0,1651070595684479.0,2
861,-7.0,-10.0,2.0,4.0,-6.0,-4.0,-3.0,-5.0,1651070595684479.0,2
862,-9.0,-3.0,3.0,-5.0,-1.0,-1.0,-1.0,-2.0,1651070595685409.0,2
863,-8.0,-27.0,-45.0,-5.0,1.0,-3.0,0.0,0.0,1651070595685409.0,2
864,0.0,19.0,15.0,5.0,0.0,-1.0,-1.0,6.0,1651070595706377.0,2
865,-7.0,-9.0,15.0,3.0,2.0,5.0,-1.0,-9.0,1651070595706377.0,2
866,-4.0,19.0,2.0,4.0,0.0,-3.0,-4.0,7.0,1651070595708357.0,2
867,8.0,0.0,21.0,2.0,0.0,-1.0,2.0,-3.0,1651070595708357.0,2
868,-3.0,-13.0,-3.0,0.0,-11.0,-3.0,0.0,-6.0,1651070595721079.0,2
869,-4.0,14.0,-22.0,-12.0,-10.0,-5.0,-4.0,-5.0,1651070595721079.0,2
870,-6.0,-7.0,-17.0,9.0,12.0,3.0,2.0,5.0,1651070595729408.0,2
871,5.0,7.0,26.0,0.0,3.0,3.0,1.0,6.0,1651070595729408.0,2
872,-2.0,-14.0,-5.0,-7.0,4.0,1.0,-2.0,2.0,1651070595744423.0,2
873,9.0,6.0,8.0,-1.0,-4.0,-4.0,2.0,2.0,1651070595744423.0,2
874,-4.0,-13.0,2.0,6.0,-12.0,4.0,2.0,-3.0,1651070595745480.0,2
875,6.0,9.0,-37.0,-12.0,-11.0,-10.0,-4.0,-4.0,1651070595745480.0,2
876,-1.0,-22.0,5.0,2.0,6.0,-1.0,2.0,3.0,1651070595774404.0,2
877,-7.0,15.0,-8.0,4.0,-10.0,-1.0,-2.0,-3.0,1651070595774404.0,2
878,14.0,43.0,34.0,3.0,15.0,0.0,-2.0,3.0,1651070595775484.0,2
879,-18.0,-81.0,2.0,-1.0,4.0,2.0,6.0,4.0,1651070595775484.0,2
880,1.0,11.0,-43.0,-3.0,2.0,0.0,-4.0,-9.0,1651070595789306.0,2
881,3.0,-2.0,10.0,0.0,-2.0,-3.0,1.0,4.0,1651070595789306.0,2
882,-13.0,-16.0,-10.0,-9.0,-10.0,-6.0,-5.0,-12.0,1651070595790298.0,2
883,17.0,28.0,23.0,5.0,-5.0,2.0,0.0,2.0,1651070595790298.0,2
884,6.0,18.0,-34.0,-10.0,-7.0,-2.0,1.0,6.0,1651070595804324.0,2
885,-5.0,-25.0,22.0,7.0,8.0,-1.0,-1.0,-2.0,1651070595804324.0,2
886,2.0,-7.0,-4.0,0.0,-7.0,0.0,1.0,-4.0,1651070595805255.0,2
887,7.0,12.0,-13.0,0.0,8.0,1.0,-4.0,-4.0,1651070595805255.0,2
888,-3.0,-12.0,9.0,-1.0,-9.0,-5.0,-3.0,8.0,1651070595826426.0,2
889,-1.0,-1.0,-12.0,7.0,23.0,14.0,6.0,7.0,1651070595826426.0,2
890,-5.0,-30.0,-9.0,-4.0,0.0,-2.0,3.0,5.0,1651070595828193.0,2
891,-12.0,1.0,-6.0,0.0,-7.0,-5.0,-8.0,-21.0,1651070595828193.0,2
892,-1.0,-1.0,17.0,-3.0,-5.0,-1.0,1.0,-4.0,1651070595849363.0,2
893,2.0,26.0,13.0,0.0,-5.0,-2.0,1.0,6.0,1651070595849363.0,2
894,0.0,-23.0,-16.0,1.0,-6.0,-1.0,2.0,0.0,1651070595850289.0,2
895,11.0,-2.0,8.0,1.0,5.0,1.0,5.0,15.0,1651070595850289.0,2
896,-8.0,-4.0,-8.0,-4.0,-4.0,-3.0,-6.0,-10.0,1651070595863813.0,2
897,11.0,-1.0,-10.0,4.0,10.0,3.0,2.0,11.0,1651070595863813.0,2
898,0.0,13.0,0.0,4.0,4.0,1.0,-1.0,-6.0,1651070595865864.0,2
899,-10.0,-2.0,-14.0,-12.0,-11.0,-4.0,-3.0,-6.0,1651070595865864.0,2
900,3.0,9.0,43.0,2.0,-2.0,1.0,2.0,3.0,1651070595887437.0,2
901,4.0,-4.0,9.0,5.0,-2.0,1.0,0.0,0.0,1651070595887437.0,2
902,-4.0,-26.0,-23.0,1.0,14.0,-2.0,-4.0,-3.0,1651070595888342.0,2
903,-5.0,23.0,8.0,-4.0,-9.0,-1.0,0.0,0.0,1651070595888342.0,2
904,-6.0,-11.0,-4.0,-1.0,5.0,2.0,0.0,-5.0,1651070595909509.0,2
905,1.0,-3.0,4.0,-6.0,-18.0,-8.0,-4.0,-3.0,1651070595909509.0,2
906,1.0,-16.0,-11.0,-3.0,4.0,2.0,3.0,6.0,1651070595910436.0,2
907,12.0,4.0,-1.0,4.0,-3.0,-2.0,2.0,7.0,1651070595910436.0,2
908,-8.0,-12.0,-4.0,3.0,8.0,1.0,-2.0,-8.0,1651070595922468.0,2
909,10.0,27.0,12.0,2.0,2.0,-1.0,1.0,-3.0,1651070595922468.0,2
910,-5.0,-4.0,-7.0,-9.0,-12.0,-1.0,-3.0,5.0,1651070595931387.0,2
911,-6.0,-12.0,-19.0,1.0,8.0,-1.0,2.0,-1.0,1651070595931387.0,2
912,4.0,15.0,5.0,4.0,10.0,6.0,5.0,5.0,1651070595946337.0,2
913,3.0,-3.0,14.0,2.0,-3.0,-2.0,1.0,4.0,1651070595946337.0,2
914,-4.0,2.0,-20.0,-7.0,-8.0,-5.0,-3.0,-8.0,1651070595946337.0,2
915,-7.0,5.0,6.0,3.0,-19.0,-4.0,-4.0,-3.0,1651070595946337.0,2
916,-5.0,-33.0,19.0,6.0,28.0,7.0,0.0,-4.0,1651070595968424.0,2
917,2.0,27.0,2.0,0.0,-4.0,-1.0,0.0,1.0,1651070595968424.0,2
918,5.0,14.0,19.0,-1.0,6.0,1.0,1.0,3.0,1651070595969354.0,2
919,-6.0,6.0,0.0,-1.0,-4.0,-2.0,-5.0,-4.0,1651070595969354.0,2
920,-5.0,-12.0,-1.0,2.0,-9.0,-3.0,1.0,-2.0,1651070595982434.0,2
921,19.0,12.0,-4.0,-9.0,-8.0,-2.0,-3.0,0.0,1651070595982434.0,2
922,2.0,12.0,-3.0,5.0,2.0,0.0,1.0,4.0,1651070595998536.0,2
923,8.0,16.0,-4.0,-1.0,8.0,0.0,-2.0,-6.0,1651070595998536.0,2
924,-9.0,-17.0,26.0,-2.0,-7.0,-4.0,-4.0,-4.0,1651070596005748.0,2
925,-4.0,-29.0,-61.0,-14.0,2.0,-1.0,-2.0,-2.0,1651070596005748.0,2
926,-1.0,20.0,41.0,3.0,-7.0,-2.0,1.0,-4.0,1651070596006748.0,2
927,-6.0,-32.0,-30.0,0.0,6.0,-1.0,3.0,18.0,1651070596006748.0,2
928,17.0,37.0,-1.0,1.0,-6.0,-2.0,-1.0,-7.0,1651070596028853.0,2
929,-13.0,-26.0,8.0,2.0,2.0,-5.0,-4.0,-2.0,1651070596028853.0,2
930,7.0,33.0,11.0,1.0,-1.0,1.0,0.0,1.0,1651070596028853.0,2
931,-2.0,-9.0,19.0,-1.0,-2.0,-1.0,1.0,-2.0,1651070596028853.0,2
932,0.0,16.0,-8.0,-4.0,-5.0,-2.0,-2.0,2.0,1651070596042961.0,2
933,-4.0,-11.0,-7.0,-9.0,-21.0,-7.0,-4.0,0.0,1651070596042961.0,2
934,-10.0,-24.0,-15.0,5.0,15.0,3.0,2.0,0.0,1651070596051433.0,2
935,11.0,58.0,7.0,2.0,5.0,1.0,-3.0,-9.0,1651070596051433.0,2
936,-8.0,-24.0,65.0,4.0,-21.0,0.0,3.0,1.0,1651070596065462.0,2
937,7.0,6.0,-68.0,-12.0,12.0,-2.0,-4.0,-8.0,1651070596065462.0,2
938,-5.0,-31.0,7.0,4.0,-1.0,1.0,1.0,10.0,1651070596066403.0,2
939,-5.0,7.0,12.0,2.0,-4.0,-2.0,-1.0,3.0,1651070596066403.0,2
940,4.0,14.0,-25.0,-8.0,-3.0,-1.0,-1.0,-13.0,1651070596088425.0,2
941,-11.0,-10.0,9.0,3.0,-6.0,-4.0,-1.0,7.0,1651070596088425.0,2
942,10.0,6.0,28.0,0.0,-3.0,3.0,0.0,0.0,1651070596089355.0,2
943,3.0,-37.0,-21.0,-6.0,-3.0,-3.0,-1.0,-4.0,1651070596089355.0,2
944,-6.0,37.0,4.0,12.0,24.0,7.0,-1.0,2.0,1651070596102320.0,2
945,-8.0,-36.0,9.0,-4.0,-6.0,2.0,2.0,-7.0,1651070596102320.0,2
946,13.0,47.0,-22.0,-7.0,1.0,-5.0,-3.0,-9.0,1651070596111364.0,2
947,-9.0,-17.0,14.0,3.0,-4.0,-1.0,-1.0,4.0,1651070596111364.0,2
948,7.0,-3.0,-36.0,-5.0,-5.0,-4.0,-1.0,4.0,1651070596126428.0,2
949,-11.0,-8.0,20.0,4.0,4.0,2.0,3.0,-4.0,1651070596126428.0,2
950,-4.0,-7.0,23.0,1.0,-3.0,0.0,0.0,4.0,1651070596126428.0,2
951,6.0,7.0,38.0,4.0,2.0,2.0,0.0,-4.0,1651070596126428.0,2
952,-5.0,-27.0,-23.0,1.0,7.0,1.0,-1.0,0.0,1651070596148806.0,2
953,11.0,18.0,-26.0,-8.0,-3.0,-2.0,2.0,4.0,1651070596148806.0,2
954,-6.0,-3.0,8.0,-3.0,-8.0,-4.0,-2.0,-5.0,1651070596148806.0,2
955,-4.0,15.0,8.0,0.0,7.0,6.0,3.0,3.0,1651070596148806.0,2
956,2.0,-20.0,-2.0,0.0,4.0,-2.0,0.0,-3.0,1651070596162830.0,2
957,-1.0,-27.0,24.0,11.0,4.0,4.0,1.0,-7.0,1651070596162830.0,2
958,9.0,29.0,-5.0,-7.0,-12.0,-5.0,-1.0,15.0,1651070596170911.0,2
959,-13.0,-23.0,-18.0,3.0,6.0,0.0,-3.0,-11.0,1651070596170911.0,2
960,16.0,12.0,-2.0,-3.0,-5.0,-2.0,1.0,10.0,1651070596186329.0,2
961,-3.0,24.0,20.0,10.0,9.0,5.0,3.0,0.0,1651070596186329.0,2
962,-6.0,-21.0,-19.0,-8.0,-3.0,-2.0,-5.0,-13.0,1651070596186603.0,2
963,-2.0,13.0,2.0,0.0,0.0,2.0,2.0,8.0,1651070596186603.0,2
964,-5.0,-19.0,-26.0,-8.0,-9.0,-3.0,-3.0,-3.0,1651070596208747.0,2
965,3.0,-12.0,12.0,2.0,-3.0,-3.0,1.0,4.0,1651070596208747.0,2
966,-9.0,11.0,-18.0,-4.0,3.0,-1.0,-3.0,-12.0,1651070596208747.0,2
967,2.0,3.0,-1.0,-2.0,4.0,1.0,0.0,5.0,1651070596208747.0,2
968,2.0,-4.0,8.0,5.0,4.0,2.0,2.0,0.0,1651070596222753.0,2
969,-2.0,32.0,5.0,-2.0,0.0,-4.0,-1.0,2.0,1651070596222753.0,2
970,-1.0,-27.0,-6.0,8.0,-7.0,0.0,0.0,-2.0,1651070596230857.0,2
971,-1.0,-5.0,-1.0,-12.0,-7.0,-6.0,-3.0,-8.0,1651070596230857.0,2
972,-7.0,-6.0,-10.0,-4.0,4.0,1.0,0.0,2.0,1651070596245878.0,2
973,0.0,14.0,-3.0,0.0,0.0,-1.0,-3.0,-16.0,1651070596245878.0,2
974,2.0,9.0,0.0,1.0,-2.0,-2.0,-2.0,15.0,1651070596246862.0,2
975,7.0,-19.0,-2.0,1.0,3.0,1.0,1.0,-1.0,1651070596246862.0,2
976,-5.0,-4.0,-2.0,2.0,-3.0,-1.0,0.0,3.0,1651070596276391.0,2
977,-9.0,1.0,7.0,1.0,4.0,-1.0,-4.0,-1.0,1651070596276391.0,2
978,-6.0,-7.0,28.0,4.0,-2.0,2.0,-1.0,-5.0,1651070596277325.0,2
979,12.0,22.0,-25.0,2.0,0.0,1.0,0.0,1.0,1651070596277325.0,2
980,-3.0,-21.0,-3.0,-8.0,-6.0,-6.0,-3.0,-2.0,1651070596282307.0,2
981,-7.0,-14.0,-23.0,0.0,2.0,1.0,-1.0,-2.0,1651070596282307.0,2
982,0.0,-23.0,41.0,9.0,6.0,3.0,1.0,0.0,1651070596291293.0,2
983,2.0,7.0,-31.0,-6.0,-4.0,-1.0,1.0,6.0,1651070596291293.0,2
984,0.0,11.0,-22.0,-4.0,-5.0,-3.0,-2.0,-2.0,1651070596306289.0,2
985,-2.0,-7.0,14.0,-2.0,-9.0,-3.0,-2.0,2.0,1651070596306289.0,2
986,8.0,14.0,2.0,6.0,16.0,5.0,4.0,6.0,1651070596306289.0,2
987,-6.0,7.0,3.0,-6.0,-3.0,-2.0,-4.0,-9.0,1651070596306289.0,2
988,-3.0,-3.0,13.0,11.0,1.0,2.0,3.0,4.0,1651070596328425.0,2
989,5.0,-33.0,-3.0,-1.0,3.0,1.0,1.0,4.0,1651070596328425.0,2
990,-1.0,32.0,-18.0,-10.0,-8.0,-6.0,-3.0,0.0,1651070596329353.0,2
991,-1.0,-6.0,7.0,1.0,0.0,2.0,0.0,1.0,1651070596329353.0,2
992,-2.0,-8.0,-17.0,-7.0,-5.0,-3.0,-1.0,-3.0,1651070596342385.0,2
993,-6.0,-4.0,27.0,8.0,8.0,3.0,0.0,1.0,1651070596342385.0,2
994,0.0,-4.0,-1.0,6.0,8.0,1.0,3.0,-3.0,1651070596351332.0,2
995,0.0,3.0,2.0,3.0,-3.0,-1.0,-2.0,-2.0,1651070596351332.0,2
996,-4.0,3.0,3.0,-9.0,-9.0,-6.0,-3.0,-4.0,1651070596365441.0,2
997,-7.0,7.0,-12.0,-1.0,2.0,1.0,-1.0,4.0,1651070596365441.0,2
998,12.0,-12.0,-32.0,-5.0,-4.0,0.0,1.0,4.0,1651070596366371.0,2
999,-1.0,5.0,14.0,2.0,2.0,-4.0,-1.0,-2.0,1651070596366371.0,2
1000,6.0,12.0,30.0,3.0,-3.0,-2.0,1.0,3.0,1651070596388499.0,2
1001,3.0,24.0,5.0,1.0,0.0,-2.0,-1.0,-3.0,1651070596388499.0,2
1002,-11.0,-15.0,-11.0,-10.0,-4.0,1.0,-1.0,-5.0,1651070596389427.0,2
1003,-3.0,-8.0,-10.0,-2.0,-5.0,-2.0,0.0,1.0,1651070596389427.0,2
1004,0.0,12.0,6.0,0.0,4.0,1.0,-1.0,-3.0,1651070596402459.0,2
1005,1.0,5.0,-4.0,-5.0,-2.0,-2.0,-2.0,1.0,1651070596402459.0,2
1006,-1.0,0.0,7.0,9.0,2.0,3.0,-1.0,-2.0,1651070596411430.0,2
1007,4.0,-2.0,0.0,5.0,2.0,0.0,-1.0,-3.0,1651070596411430.0,2
1008,-6.0,-1.0,-9.0,-4.0,-2.0,-3.0,-2.0,0.0,1651070596425695.0,2
1009,1.0,-11.0,-4.0,9.0,0.0,2.0,3.0,1.0,1651070596425695.0,2
1010,2.0,-1.0,-5.0,-16.0,-1.0,0.0,-1.0,1.0,1651070596426632.0,2
1011,-4.0,-6.0,-10.0,-14.0,-6.0,-4.0,-3.0,-4.0,1651070596426632.0,2
1012,4.0,5.0,0.0,0.0,0.0,0.0,-1.0,-1.0,1651070596448683.0,2
1013,3.0,3.0,5.0,12.0,0.0,0.0,1.0,2.0,1651070596448683.0,2
1014,-3.0,-8.0,-4.0,-1.0,-1.0,-2.0,-1.0,-3.0,1651070596448683.0,2
1015,-4.0,-1.0,7.0,17.0,-11.0,-4.0,-2.0,-2.0,1651070596448683.0,2
1016,3.0,0.0,-28.0,-48.0,1.0,5.0,0.0,3.0,1651070596462701.0,2
1017,2.0,-4.0,-10.0,1.0,5.0,0.0,0.0,-1.0,1651070596462701.0,2
1018,1.0,7.0,3.0,3.0,5.0,2.0,2.0,0.0,1651070596471387.0,2
1019,-1.0,8.0,8.0,10.0,11.0,5.0,0.0,3.0,1651070596471387.0,2
1020,1.0,-5.0,15.0,44.0,-6.0,-7.0,-2.0,-8.0,1651070596486397.0,2
1021,-10.0,-11.0,-23.0,-44.0,-21.0,-8.0,-4.0,2.0,1651070596486397.0,2
1022,-1.0,0.0,-8.0,-11.0,-1.0,0.0,5.0,2.0,1651070596486397.0,2
1023,0.0,-1.0,2.0,4.0,-8.0,-4.0,-3.0,-2.0,1651070596486397.0,2
1024,2.0,5.0,11.0,13.0,8.0,3.0,0.0,2.0,1651070596508751.0,2
1025,4.0,5.0,5.0,8.0,7.0,2.0,-1.0,-4.0,1651070596508751.0,2
1026,-10.0,4.0,4.0,1.0,-6.0,-3.0,-4.0,-5.0,1651070596508751.0,2
1027,3.0,-6.0,-6.0,1.0,4.0,5.0,5.0,5.0,1651070596508751.0,2
1028,-1.0,1.0,-2.0,-18.0,-1.0,1.0,-4.0,-1.0,1651070596530467.0,2
1029,-8.0,-2.0,-8.0,-2.0,-4.0,-4.0,-4.0,-4.0,1651070596530467.0,2
1030,9.0,8.0,3.0,0.0,-2.0,-2.0,3.0,0.0,1651070596531464.0,2
1031,-3.0,-21.0,-2.0,1.0,3.0,4.0,-1.0,0.0,1651070596531464.0,2
1032,7.0,4.0,-17.0,-1.0,-1.0,-3.0,0.0,5.0,1651070596546450.0,2
1033,2.0,6.0,4.0,-5.0,-5.0,-2.0,-3.0,-2.0,1651070596546450.0,2
1034,-3.0,-5.0,-4.0,-3.0,-3.0,-2.0,-3.0,-1.0,1651070596546450.0,2
1035,-7.0,3.0,6.0,17.0,-3.0,-4.0,-1.0,-4.0,1651070596546450.0,2
1036,-3.0,0.0,7.0,3.0,0.0,1.0,1.0,1.0,1651070596568459.0,2
1037,0.0,-10.0,-5.0,17.0,3.0,5.0,1.0,0.0,1651070596568459.0,2
1038,-1.0,-6.0,6.0,-14.0,3.0,0.0,-2.0,-2.0,1651070596569389.0,2
1039,0.0,-1.0,-7.0,-24.0,-7.0,-2.0,-3.0,-3.0,1651070596569389.0,2
1040,-5.0,-2.0,-2.0,-9.0,-3.0,0.0,-1.0,-1.0,1651070596590618.0,2
1041,7.0,8.0,2.0,-12.0,2.0,1.0,2.0,2.0,1651070596590618.0,2
1042,4.0,-1.0,-10.0,1.0,7.0,2.0,-3.0,0.0,1651070596591614.0,2
1043,-11.0,-1.0,5.0,5.0,-4.0,-2.0,-1.0,1.0,1651070596591614.0,2
1044,-1.0,1.0,9.0,6.0,-5.0,0.0,2.0,3.0,1651070596605647.0,2
1045,-1.0,0.0,3.0,0.0,-5.0,0.0,-2.0,-2.0,1651070596605647.0,2
1046,0.0,-1.0,-2.0,1.0,8.0,4.0,1.0,2.0,1651070596606578.0,2
1047,0.0,0.0,-2.0,-10.0,4.0,0.0,0.0,-1.0,1651070596606578.0,2
1048,-3.0,-6.0,-4.0,11.0,2.0,-1.0,0.0,-3.0,1651070596628518.0,2
1049,2.0,3.0,9.0,-2.0,-3.0,-1.0,0.0,2.0,1651070596628518.0,2
1050,-1.0,-2.0,6.0,11.0,-7.0,-3.0,0.0,0.0,1651070596629516.0,2
1051,2.0,1.0,-8.0,-19.0,2.0,-1.0,1.0,-1.0,1651070596629516.0,2
1052,-5.0,3.0,-1.0,13.0,-1.0,1.0,-1.0,-2.0,1651070596651457.0,2
1053,8.0,0.0,-14.0,-25.0,1.0,0.0,1.0,4.0,1651070596651457.0,2
1054,-5.0,-8.0,-8.0,23.0,-1.0,-5.0,-3.0,-2.0,1651070596652454.0,2
1055,2.0,3.0,7.0,5.0,1.0,2.0,-1.0,0.0,1651070596652454.0,2
1056,1.0,-2.0,-4.0,10.0,-1.0,-1.0,1.0,2.0,1651070596665446.0,2
1057,2.0,14.0,15.0,7.0,-2.0,-1.0,1.0,0.0,1651070596665446.0,2
1058,1.0,3.0,-3.0,1.0,-2.0,-1.0,-2.0,-1.0,1651070596666424.0,2
1059,-2.0,-4.0,-3.0,-34.0,-6.0,-2.0,-1.0,-3.0,1651070596666424.0,2
1060,0.0,0.0,-20.0,-16.0,-13.0,-5.0,-3.0,-2.0,1651070596688460.0,2
1061,-5.0,-4.0,9.0,12.0,11.0,2.0,0.0,-2.0,1651070596688460.0,2
1062,0.0,4.0,16.0,7.0,5.0,6.0,2.0,1.0,1651070596689389.0,2
1063,-1.0,-11.0,-26.0,9.0,12.0,2.0,-1.0,0.0,1651070596689389.0,2
1064,1.0,3.0,0.0,3.0,7.0,3.0,1.0,0.0,1651070596711518.0,2
1065,-2.0,-3.0,8.0,-5.0,-21.0,-10.0,-3.0,-3.0,1651070596711518.0,2
1066,-1.0,1.0,4.0,2.0,-13.0,-7.0,-5.0,-2.0,1651070596712481.0,2
1067,0.0,3.0,2.0,3.0,-2.0,-1.0,0.0,0.0,1651070596712481.0,2
1068,3.0,8.0,-2.0,-4.0,9.0,0.0,-1.0,1.0,1651070596726434.0,2
1069,1.0,-1.0,-9.0,-2.0,18.0,10.0,5.0,2.0,1651070596726434.0,2
1070,-1.0,-5.0,2.0,0.0,-4.0,-2.0,1.0,0.0,1651070596726434.0,2
1071,2.0,4.0,13.0,6.0,-9.0,-2.0,0.0,0.0,1651070596726434.0,2
1072,1.0,6.0,-24.0,-9.0,-4.0,-2.0,1.0,1.0,1651070596748352.0,2
1073,-1.0,-9.0,5.0,22.0,-2.0,-5.0,-3.0,-1.0,1651070596748352.0,2
1074,-1.0,-2.0,2.0,-6.0,9.0,4.0,1.0,0.0,1651070596749349.0,2
1075,1.0,2.0,-10.0,-23.0,-8.0,-3.0,-3.0,-1.0,1651070596749349.0,2
1076,-2.0,-6.0,-6.0,-3.0,2.0,0.0,-1.0,-3.0,1651070596771481.0,2
1077,0.0,4.0,2.0,-1.0,1.0,2.0,0.0,1.0,1651070596771481.0,2
1078,2.0,1.0,-3.0,-3.0,-9.0,0.0,1.0,2.0,1651070596772414.0,2
1079,-5.0,-2.0,2.0,-10.0,-2.0,-8.0,-6.0,-6.0,1651070596772414.0,2
1080,-1.0,-9.0,18.0,-14.0,-20.0,-6.0,-2.0,0.0,1651070596786296.0,2
1081,0.0,0.0,-7.0,24.0,25.0,4.0,-2.0,-2.0,1651070596786296.0,2
1082,3.0,1.0,-5.0,-20.0,7.0,0.0,-1.0,2.0,1651070596786296.0,2
1083,1.0,1.0,4.0,15.0,-5.0,0.0,1.0,0.0,1651070596786296.0,2
1084,2.0,-1.0,5.0,9.0,4.0,1.0,0.0,-1.0,1651070596808389.0,2
1085,-3.0,-4.0,-2.0,-7.0,-19.0,-12.0,-6.0,-6.0,1651070596808389.0,2
1086,0.0,3.0,1.0,-7.0,6.0,9.0,1.0,1.0,1651070596809386.0,2
1087,1.0,0.0,-1.0,1.0,5.0,0.0,1.0,0.0,1651070596809386.0,2
1088,0.0,-2.0,9.0,33.0,12.0,0.0,2.0,1.0,1651070596831517.0,2
1089,-3.0,-8.0,-10.0,-27.0,-6.0,-1.0,0.0,2.0,1651070596831517.0,2
1090,-2.0,-1.0,1.0,-3.0,-11.0,-6.0,-3.0,-1.0,1651070596832447.0,2
1091,-1.0,-4.0,-6.0,-7.0,-7.0,1.0,0.0,0.0,1651070596832447.0,2
1092,-1.0,1.0,12.0,27.0,1.0,3.0,1.0,-1.0,1651070596846441.0,2
1093,-2.0,1.0,-3.0,-6.0,7.0,5.0,0.0,-2.0,1651070596846441.0,2
1094,-2.0,0.0,-9.0,-9.0,3.0,-2.0,0.0,-3.0,1651070596846441.0,2
1095,1.0,1.0,-1.0,4.0,-6.0,1.0,1.0,2.0,1651070596846441.0,2
1096,-2.0,-5.0,7.0,-8.0,-4.0,-1.0,-1.0,-1.0,1651070596868383.0,2
1097,0.0,-1.0,-6.0,5.0,-1.0,0.0,0.0,0.0,1651070596868383.0,2
1098,-1.0,-3.0,-2.0,4.0,-4.0,-3.0,0.0,-2.0,1651070596869379.0,2
1099,1.0,0.0,0.0,2.0,-1.0,-2.0,-3.0,0.0,1651070596869379.0,2
1100,-1.0,2.0,3.0,0.0,1.0,-4.0,-3.0,-2.0,1651070596891507.0,2
1101,-4.0,-3.0,-8.0,-17.0,-23.0,-7.0,-3.0,-2.0,1651070596891507.0,2
1102,-2.0,-3.0,3.0,23.0,15.0,5.0,3.0,1.0,1651070596892515.0,2
1103,-1.0,0.0,5.0,15.0,18.0,6.0,2.0,1.0,1651070596892515.0,2
1104,0.0,-3.0,-6.0,-19.0,3.0,5.0,1.0,0.0,1651070596906360.0,2
1105,1.0,1.0,-7.0,-5.0,-5.0,-1.0,1.0,-1.0,1651070596906360.0,2
1106,-1.0,1.0,7.0,1.0,-11.0,-7.0,-1.0,-1.0,1651070596906360.0,2
1107,0.0,2.0,6.0,23.0,6.0,6.0,3.0,0.0,1651070596906360.0,2
1108,-1.0,-3.0,-5.0,-41.0,-14.0,-3.0,-3.0,-3.0,1651070596928355.0,2
1109,0.0,-1.0,-5.0,11.0,12.0,1.0,-1.0,-1.0,1651070596928355.0,2
1110,-3.0,-5.0,1.0,-4.0,-12.0,-3.0,-2.0,0.0,1651070596929284.0,2
1111,-3.0,4.0,1.0,-4.0,10.0,-2.0,-2.0,-1.0,1651070596929284.0,2
1112,1.0,6.0,6.0,10.0,8.0,4.0,3.0,3.0,1651070596950789.0,2
1113,1.0,3.0,4.0,-6.0,-7.0,-2.0,0.0,1.0,1651070596950789.0,2
1114,0.0,1.0,-12.0,-8.0,-4.0,-5.0,-4.0,-2.0,1651070596951719.0,2
1115,0.0,-1.0,-4.0,5.0,3.0,4.0,1.0,-1.0,1651070596951719.0,2
1116,2.0,2.0,6.0,5.0,1.0,-1.0,-1.0,-2.0,1651070596965748.0,2
1117,1.0,-4.0,-7.0,-8.0,-1.0,-2.0,-1.0,-1.0,1651070596965748.0,2
1118,-1.0,2.0,4.0,3.0,-4.0,-3.0,-1.0,-2.0,1651070596966679.0,2
1119,0.0,-2.0,-4.0,-9.0,-7.0,-3.0,-1.0,0.0,1651070596966679.0,2
1120,0.0,-2.0,-9.0,-7.0,5.0,0.0,-1.0,-1.0,1651070596996872.0,2
1121,0.0,1.0,9.0,6.0,-3.0,0.0,3.0,-1.0,1651070596996872.0,2
1122,-1.0,-3.0,-2.0,1.0,1.0,1.0,-2.0,-1.0,1651070596996872.0,2
1123,0.0,-1.0,-4.0,1.0,0.0,-3.0,-1.0,-2.0,1651070596996872.0,2
1124,0.0,3.0,4.0,3.0,-2.0,0.0,-1.0,0.0,1651070597011326.0,2
1125,0.0,0.0,3.0,3.0,-2.0,3.0,2.0,1.0,1651070597011326.0,2
1126,0.0,-4.0,-7.0,9.0,-2.0,-2.0,-1.0,-1.0,1651070597011618.0,2
1127,-2.0,-7.0,3.0,4.0,4.0,0.0,1.0,1.0,1651070597011618.0,2
1128,0.0,-1.0,-3.0,-8.0,-14.0,-5.0,-3.0,0.0,1651070597026322.0,2
1129,1.0,3.0,8.0,7.0,19.0,10.0,2.0,2.0,1651070597026322.0,2
1130,-1.0,-1.0,-12.0,-7.0,4.0,1.0,0.0,-2.0,1651070597026322.0,2
1131,0.0,2.0,-6.0,-1.0,-6.0,-3.0,-1.0,-1.0,1651070597026322.0,2
1132,-2.0,-8.0,12.0,6.0,-2.0,-2.0,0.0,1.0,1651070597048435.0,2
1133,-1.0,0.0,6.0,6.0,-4.0,-2.0,0.0,0.0,1651070597048435.0,2
1134,0.0,0.0,2.0,4.0,1.0,1.0,-1.0,-2.0,1651070597049364.0,2
1135,2.0,8.0,5.0,-12.0,-7.0,-4.0,-3.0,-1.0,1651070597049364.0,2
1136,-3.0,-7.0,-19.0,-9.0,0.0,-1.0,-1.0,-1.0,1651070597071332.0,2
1137,2.0,3.0,-1.0,16.0,-4.0,-2.0,-1.0,1.0,1651070597071332.0,2
1138,-2.0,-2.0,-11.0,-24.0,-3.0,-3.0,-2.0,0.0,1651070597071552.0,2
1139,0.0,0.0,3.0,-1.0,0.0,-1.0,-2.0,0.0,1651070597071552.0,2
1140,-1.0,3.0,-2.0,-14.0,-2.0,0.0,0.0,0.0,1651070597085584.0,2
1141,-2.0,0.0,1.0,7.0,8.0,-1.0,0.0,1.0,1651070597085584.0,2
1142,0.0,0.0,-3.0,2.0,-6.0,-2.0,-1.0,-1.0,1651070597086517.0,2
1143,1.0,-5.0,3.0,7.0,4.0,0.0,0.0,-1.0,1651070597086517.0,2
1144,0.0,1.0,0.0,0.0,9.0,5.0,0.0,1.0,1651070597108611.0,2
1145,-2.0,-1.0,1.0,0.0,0.0,-1.0,-2.0,-1.0,1651070597108611.0,2
1146,2.0,3.0,0.0,-2.0,-1.0,2.0,2.0,2.0,1651070597108611.0,2
1147,0.0,2.0,-1.0,-8.0,-4.0,-3.0,-1.0,0.0,1651070597108611.0,2
1148,0.0,-1.0,5.0,20.0,0.0,-3.0,0.0,0.0,1651070597131297.0,2
1149,0.0,3.0,-2.0,-5.0,13.0,6.0,0.0,-1.0,1651070597131297.0,2
1150,-2.0,-2.0,1.0,-4.0,-13.0,-4.0,-2.0,-3.0,1651070597131297.0,2
1151,-4.0,-13.0,-6.0,3.0,5.0,-1.0,-1.0,-1.0,1651070597131297.0,2
1152,-2.0,1.0,3.0,-3.0,-9.0,0.0,1.0,-1.0,1651070597146323.0,2
1153,1.0,-1.0,-5.0,-6.0,-9.0,-7.0,-1.0,-2.0,1651070597146323.0,2
1154,-1.0,-2.0,8.0,3.0,-1.0,-1.0,0.0,-1.0,1651070597146323.0,2
1155,1.0,0.0,-4.0,-3.0,1.0,1.0,0.0,0.0,1651070597146323.0,2
1156,1.0,4.0,2.0,6.0,5.0,-2.0,-2.0,1.0,1651070597168386.0,2
1157,-1.0,-1.0,4.0,-8.0,-8.0,-4.0,-2.0,-1.0,1651070597168386.0,2
1158,0.0,1.0,-2.0,1.0,14.0,4.0,1.0,0.0,1651070597169317.0,2
1159,-3.0,-1.0,-6.0,-10.0,-8.0,-3.0,-2.0,-1.0,1651070597169317.0,2
1160,-1.0,1.0,2.0,8.0,2.0,0.0,1.0,1.0,1651070597191251.0,2
1161,0.0,4.0,-6.0,-2.0,-4.0,-3.0,-2.0,-1.0,1651070597191251.0,2
1162,2.0,2.0,4.0,2.0,-6.0,-6.0,0.0,1.0,1651070597191391.0,2
1163,1.0,3.0,-2.0,-2.0,-1.0,0.0,2.0,0.0,1651070597191391.0,2
1164,-3.0,-8.0,-5.0,2.0,4.0,0.0,1.0,-1.0,1651070597205541.0,2
1165,-1.0,-1.0,9.0,2.0,-5.0,-1.0,0.0,1.0,1651070597205541.0,2
1166,-1.0,-3.0,-10.0,-15.0,-5.0,-1.0,0.0,-2.0,1651070597206472.0,2
1167,0.0,1.0,1.0,-4.0,-1.0,0.0,-1.0,0.0,1651070597206472.0,2
1168,-1.0,2.0,-1.0,6.0,-2.0,-2.0,-4.0,-3.0,1651070597228169.0,2
1169,1.0,-3.0,-2.0,4.0,-1.0,1.0,0.0,1.0,1651070597228169.0,2
1170,0.0,0.0,4.0,2.0,4.0,2.0,0.0,-1.0,1651070597229099.0,2
1171,-2.0,-5.0,-1.0,2.0,-2.0,2.0,1.0,0.0,1651070597229099.0,2
1172,0.0,0.0,-5.0,-10.0,-20.0,-8.0,-3.0,-1.0,1651070597251326.0,2
1173,0.0,-5.0,-6.0,-2.0,14.0,2.0,-2.0,-2.0,1651070597251326.0,2
1174,1.0,1.0,1.0,1.0,9.0,6.0,1.0,1.0,1651070597251471.0,2
1175,0.0,2.0,3.0,13.0,13.0,2.0,1.0,0.0,1651070597251471.0,2
1176,0.0,3.0,0.0,3.0,3.0,3.0,2.0,0.0,1651070597274453.0,2
1177,-1.0,-8.0,0.0,-8.0,-18.0,-8.0,-3.0,-1.0,1651070597274453.0,2
1178,-3.0,-1.0,-7.0,1.0,-5.0,-4.0,-3.0,-2.0,1651070597274453.0,2
1179,-2.0,-1.0,-1.0,-7.0,-7.0,-3.0,-1.0,0.0,1651070597274453.0,2
1180,-2.0,-1.0,1.0,-5.0,-6.0,-3.0,-1.0,-1.0,1651070597288471.0,2
1181,-2.0,2.0,-2.0,8.0,10.0,3.0,3.0,1.0,1651070597288471.0,2
1182,-2.0,0.0,0.0,3.0,7.0,4.0,1.0,2.0,1651070597289428.0,2
1183,1.0,4.0,2.0,-3.0,2.0,1.0,0.0,-1.0,1651070597289428.0,2
1184,2.0,-4.0,-9.0,-8.0,12.0,6.0,3.0,-2.0,1651070597310568.0,2
1185,-2.0,-3.0,3.0,16.0,-6.0,-4.0,-1.0,-1.0,1651070597310568.0,2
1186,0.0,-1.0,8.0,7.0,-4.0,0.0,0.0,0.0,1651070597311575.0,2
1187,-1.0,-2.0,-2.0,-1.0,-6.0,-5.0,-4.0,-2.0,1651070597311575.0,2
1188,0.0,2.0,3.0,-7.0,0.0,0.0,0.0,1.0,1651070597325532.0,2
1189,-1.0,-2.0,-5.0,-8.0,-1.0,0.0,-1.0,0.0,1651070597325532.0,2
1190,0.0,1.0,4.0,0.0,-6.0,-2.0,-2.0,-2.0,1651070597333576.0,2
1191,0.0,1.0,1.0,2.0,-3.0,0.0,-1.0,0.0,1651070597333576.0,2
1192,-1.0,0.0,-3.0,-6.0,-1.0,-1.0,0.0,-2.0,1651070597356953.0,2
1193,0.0,0.0,-3.0,-3.0,-2.0,0.0,0.0,0.0,1651070597356953.0,2
1194,-1.0,1.0,-1.0,7.0,0.0,-4.0,-2.0,-2.0,1651070597356953.0,2
1195,-2.0,-6.0,0.0,-7.0,-4.0,0.0,-1.0,2.0,1651070597356953.0,2
1196,-2.0,0.0,-9.0,-6.0,-3.0,-7.0,-4.0,-3.0,1651070597370873.0,2
1197,-1.0,-5.0,5.0,6.0,9.0,6.0,2.0,-1.0,1651070597370873.0,2
1198,1.0,-1.0,1.0,-3.0,1.0,0.0,1.0,-1.0,1651070597371844.0,2
1199,-1.0,0.0,0.0,1.0,-1.0,0.0,0.0,-1.0,1651070597371844.0,2
1200,-1.0,-1.0,1.0,0.0,-6.0,-2.0,0.0,2.0,1651070597385371.0,2
1201,-1.0,3.0,-2.0,-6.0,-5.0,-3.0,0.0,-2.0,1651070597385371.0,2
1202,2.0,2.0,-3.0,-7.0,-20.0,-3.0,-1.0,0.0,1651070597393866.0,2
1203,-2.0,-4.0,0.0,0.0,25.0,5.0,-2.0,-2.0,1651070597393866.0,2
1204,2.0,-2.0,1.0,9.0,9.0,4.0,1.0,-1.0,1651070597408345.0,2
1205,-1.0,3.0,0.0,0.0,-1.0,-5.0,-4.0,0.0,1651070597408345.0,2
1206,-1.0,-2.0,-1.0,6.0,1.0,0.0,-1.0,6.0,1651070597409286.0,2
1207,1.0,4.0,-1.0,-1.0,-11.0,-4.0,0.0,-2.0,1651070597409286.0,2
1208,1.0,0.0,0.0,-5.0,-2.0,0.0,-2.0,0.0,1651070597431328.0,2
1209,0.0,-2.0,-6.0,-6.0,-3.0,0.0,1.0,-2.0,1651070597431328.0,2
1210,-1.0,0.0,-1.0,-11.0,-1.0,-2.0,0.0,-1.0,1651070597431328.0,2
1211,0.0,-1.0,4.0,14.0,-2.0,-1.0,-1.0,1.0,1651070597431328.0,2
1212,-1.0,0.0,1.0,-7.0,-1.0,-2.0,-2.0,0.0,1651070597445458.0,2
1213,0.0,-1.0,-8.0,-9.0,3.0,1.0,-1.0,-2.0,1651070597445458.0,2
1214,-2.0,-4.0,-2.0,0.0,7.0,1.0,-2.0,-1.0,1651070597453281.0,0
1215,0.0,0.0,-4.0,-4.0,-3.0,1.0,-1.0,0.0,1651070597453281.0,0
1216,-1.0,1.0,3.0,1.0,-8.0,-3.0,0.0,-1.0,1651070597468239.0,0
1217,-1.0,1.0,-2.0,-2.0,-4.0,-4.0,-1.0,1.0,1651070597468239.0,0
1218,-1.0,0.0,0.0,-1.0,5.0,1.0,0.0,-1.0,1651070597469169.0,0
1219,0.0,-2.0,-3.0,-1.0,-6.0,1.0,-1.0,-1.0,1651070597469169.0,0
1220,0.0,-1.0,2.0,-2.0,6.0,1.0,-1.0,0.0,1651070597491178.0,0
1221,0.0,-2.0,3.0,3.0,1.0,0.0,0.0,2.0,1651070597491178.0,0
1222,0.0,-1.0,4.0,9.0,2.0,1.0,0.0,-3.0,1651070597492110.0,0
1223,-1.0,2.0,1.0,12.0,-4.0,-3.0,1.0,0.0,1651070597492110.0,0
1224,-1.0,-1.0,-6.0,-5.0,-6.0,-2.0,1.0,1.0,1651070597505249.0,0
1225,1.0,5.0,5.0,-5.0,-2.0,-2.0,0.0,1.0,1651070597505249.0,0
1226,-2.0,-9.0,-6.0,-1.0,-2.0,4.0,2.0,-2.0,1651070597513228.0,0
1227,-3.0,-5.0,-1.0,-1.0,10.0,1.0,1.0,-1.0,1651070597513228.0,0
1228,-1.0,-1.0,-1.0,4.0,11.0,6.0,-1.0,1.0,1651070597528345.0,0
1229,-1.0,-1.0,1.0,-1.0,-4.0,-2.0,0.0,-2.0,1651070597528345.0,0
1230,1.0,3.0,-2.0,-8.0,-6.0,-6.0,0.0,0.0,1651070597529287.0,0
1231,1.0,0.0,-1.0,-2.0,-10.0,-5.0,-1.0,-2.0,1651070597529287.0,0
1232,2.0,2.0,-1.0,0.0,-1.0,-3.0,-1.0,0.0,1651070597551413.0,0
1233,-1.0,-4.0,-3.0,3.0,12.0,6.0,0.0,-2.0,1651070597551413.0,0
1234,1.0,5.0,9.0,6.0,3.0,0.0,-1.0,0.0,1651070597552342.0,0
1235,-1.0,3.0,-8.0,-6.0,16.0,3.0,-3.0,-1.0,1651070597552342.0,0
1236,-1.0,1.0,-1.0,-3.0,-7.0,-4.0,0.0,0.0,1651070597565374.0,0
1237,-1.0,1.0,-1.0,10.0,-7.0,-3.0,-1.0,-1.0,1651070597565374.0,0
1238,-4.0,-2.0,-1.0,3.0,-2.0,-4.0,-2.0,-2.0,1651070597573313.0,0
1239,0.0,0.0,1.0,-5.0,-6.0,2.0,-1.0,-1.0,1651070597573313.0,0
1240,0.0,-1.0,4.0,1.0,-1.0,0.0,-1.0,-1.0,1651070597588785.0,0
1241,1.0,5.0,3.0,-7.0,-11.0,0.0,-1.0,0.0,1651070597588785.0,0
1242,-3.0,-7.0,-6.0,-1.0,5.0,0.0,-1.0,-1.0,1651070597588785.0,0
1243,1.0,1.0,-2.0,-2.0,5.0,0.0,1.0,0.0,1651070597588785.0,0
1244,-1.0,-6.0,-3.0,-3.0,-3.0,-1.0,-1.0,-3.0,1651070597611326.0,0
1245,-1.0,-3.0,0.0,-4.0,1.0,0.0,1.0,1.0,1651070597611326.0,0
1246,-1.0,4.0,-1.0,2.0,-3.0,-4.0,-1.0,0.0,1651070597611613.0,0
1247,-1.0,-1.0,1.0,-1.0,-6.0,-1.0,0.0,-1.0,1651070597611613.0,0
1248,-2.0,-3.0,2.0,-1.0,3.0,-1.0,2.0,-2.0,1651070597641758.0,0
1249,1.0,-1.0,2.0,16.0,3.0,1.0,-2.0,-3.0,1651070597641758.0,0
1250,1.0,0.0,3.0,-5.0,-7.0,-1.0,-1.0,-1.0,1651070597642689.0,0
1251,-1.0,-2.0,-3.0,-6.0,-2.0,-3.0,0.0,0.0,1651070597642689.0,0
1252,-2.0,0.0,-2.0,5.0,18.0,7.0,1.0,1.0,1651070597648673.0,0
1253,-1.0,0.0,5.0,-3.0,-4.0,0.0,-1.0,-1.0,1651070597648673.0,0
1254,-2.0,-3.0,-2.0,3.0,3.0,1.0,-2.0,-1.0,1651070597648673.0,0
1255,0.0,1.0,3.0,-1.0,-7.0,-5.0,-1.0,0.0,1651070597648673.0,0
1256,0.0,0.0,0.0,0.0,-6.0,1.0,0.0,-1.0,1651070597670811.0,0
1257,-1.0,-2.0,-7.0,-7.0,-2.0,-2.0,-1.0,1.0,1651070597670811.0,0
1258,2.0,-2.0,1.0,0.0,2.0,0.0,-1.0,0.0,1651070597671741.0,0
1259,1.0,1.0,-6.0,-7.0,-7.0,-2.0,-2.0,-1.0,1651070597671741.0,0
1260,-2.0,0.0,2.0,-1.0,1.0,-3.0,-2.0,-1.0,1651070597694450.0,0
1261,-3.0,-3.0,-4.0,3.0,1.0,0.0,-2.0,0.0,1651070597694450.0,0
1262,4.0,2.0,0.0,-1.0,0.0,0.0,0.0,-1.0,1651070597695071.0,0
1263,0.0,-1.0,0.0,-4.0,-2.0,-1.0,-2.0,0.0,1651070597695071.0,0
1264,2.0,2.0,3.0,2.0,-8.0,-3.0,1.0,0.0,1651070597708106.0,0
1265,-2.0,1.0,2.0,-3.0,4.0,-5.0,-2.0,0.0,1651070597708106.0,0
1266,-1.0,-7.0,-5.0,1.0,3.0,3.0,-1.0,1.0,1651070597709036.0,0
1267,0.0,0.0,0.0,-1.0,-5.0,0.0,0.0,0.0,1651070597709036.0,0
1268,-1.0,-1.0,-6.0,-9.0,-4.0,-3.0,-3.0,-1.0,1651070597731145.0,0
1269,-1.0,1.0,1.0,-6.0,1.0,2.0,1.0,-1.0,1651070597731145.0,0
1270,-2.0,-5.0,6.0,6.0,1.0,0.0,-1.0,-1.0,1651070597731145.0,0
1271,-1.0,-1.0,2.0,1.0,4.0,1.0,0.0,0.0,1651070597731145.0,0
1272,-3.0,-1.0,1.0,4.0,-7.0,-2.0,0.0,1.0,1651070597754172.0,0
1273,0.0,-2.0,-1.0,0.0,-5.0,-4.0,-2.0,-1.0,1651070597754172.0,0
1274,0.0,8.0,-1.0,-2.0,4.0,-3.0,-1.0,1.0,1651070597755171.0,0
1275,-1.0,-6.0,-3.0,-11.0,-2.0,5.0,2.0,-1.0,1651070597755171.0,0
1276,1.0,-1.0,-7.0,11.0,1.0,-2.0,-2.0,1.0,1651070597768196.0,0
1277,-1.0,4.0,9.0,-1.0,-2.0,-3.0,-2.0,-3.0,1651070597768196.0,0
1278,0.0,-4.0,-6.0,-8.0,2.0,2.0,0.0,-2.0,1651070597769135.0,0
1279,-1.0,0.0,2.0,8.0,-2.0,-4.0,0.0,-1.0,1651070597769135.0,0
1280,0.0,-1.0,-2.0,-6.0,3.0,1.0,-1.0,-1.0,1651070597790502.0,0
1281,0.0,-4.0,-11.0,-3.0,-5.0,-2.0,0.0,-1.0,1651070597790502.0,0
1282,-2.0,2.0,-1.0,-3.0,-1.0,-4.0,-2.0,-2.0,1651070597791501.0,0
1283,-2.0,-2.0,-2.0,-4.0,1.0,-2.0,1.0,0.0,1651070597791501.0,0
1284,1.0,1.0,5.0,3.0,6.0,3.0,2.0,-1.0,1651070597814449.0,0
1285,3.0,-2.0,-3.0,-2.0,1.0,0.0,1.0,1.0,1651070597814449.0,0
1286,1.0,0.0,3.0,-2.0,-3.0,0.0,2.0,-1.0,1651070597815292.0,0
1287,-1.0,-3.0,-2.0,4.0,2.0,-2.0,-1.0,-2.0,1651070597815292.0,0
1288,-1.0,1.0,5.0,-3.0,-6.0,1.0,0.0,-1.0,1651070597828729.0,0
1289,0.0,-1.0,-4.0,-4.0,-3.0,0.0,0.0,-2.0,1651070597828729.0,0
1290,0.0,-1.0,-2.0,-12.0,1.0,0.0,1.0,0.0,1651070597828729.0,0
1291,-1.0,-1.0,1.0,8.0,4.0,1.0,-1.0,0.0,1651070597828729.0,0
1292,-1.0,-3.0,0.0,1.0,0.0,-1.0,-1.0,-1.0,1651070597851325.0,0
1293,-1.0,-1.0,1.0,6.0,7.0,1.0,-2.0,-1.0,1651070597851325.0,0
1294,0.0,4.0,-1.0,-6.0,-17.0,-4.0,-3.0,0.0,1651070597851614.0,0
1295,-1.0,-1.0,-3.0,-5.0,11.0,0.0,-1.0,-2.0,1651070597851614.0,0
1296,1.0,-1.0,1.0,0.0,-8.0,-3.0,0.0,0.0,1651070597874425.0,0
1297,-1.0,0.0,-2.0,3.0,24.0,9.0,4.0,0.0,1651070597874425.0,0
1298,-1.0,-4.0,7.0,6.0,0.0,5.0,2.0,2.0,1651070597874425.0,0
1299,-1.0,-1.0,-1.0,-5.0,-13.0,-7.0,-2.0,0.0,1651070597874425.0,0
1300,1.0,1.0,-5.0,-2.0,2.0,0.0,0.0,-1.0,1651070597888415.0,0
1301,1.0,1.0,4.0,-2.0,-6.0,-4.0,-2.0,0.0,1651070597888415.0,0
1302,1.0,6.0,-2.0,2.0,-5.0,-5.0,-1.0,-2.0,1651070597889345.0,0
1303,-1.0,1.0,-3.0,-6.0,2.0,2.0,0.0,1.0,1651070597889345.0,0
1304,-2.0,-5.0,-1.0,9.0,6.0,3.0,0.0,0.0,1651070597911285.0,0
1305,-2.0,-1.0,7.0,2.0,-14.0,-2.0,-2.0,-1.0,1651070597911285.0,0
1306,0.0,3.0,-3.0,3.0,10.0,-3.0,1.0,0.0,1651070597911285.0,0
1307,1.0,-4.0,-8.0,-1.0,-3.0,1.0,-1.0,-1.0,1651070597911285.0,0
1308,-1.0,1.0,0.0,-4.0,-4.0,-3.0,-3.0,0.0,1651070597933595.0,0
1309,1.0,-1.0,-4.0,-6.0,1.0,1.0,-1.0,0.0,1651070597933595.0,0
1310,-1.0,0.0,1.0,4.0,-1.0,-1.0,-1.0,-1.0,1651070597934606.0,0
1311,2.0,4.0,5.0,-4.0,-6.0,0.0,-1.0,0.0,1651070597934606.0,0
1312,-2.0,-1.0,4.0,8.0,11.0,2.0,0.0,0.0,1651070597948623.0,0
1313,-2.0,-4.0,-9.0,-9.0,-4.0,-2.0,-2.0,0.0,1651070597948623.0,0
1314,-2.0,-1.0,-1.0,-3.0,4.0,2.0,-1.0,-1.0,1651070597949552.0,0
1315,-2.0,-2.0,-1.0,5.0,1.0,1.0,1.0,-2.0,1651070597949552.0,0
1316,-2.0,1.0,0.0,-2.0,-2.0,-3.0,-1.0,0.0,1651070597970845.0,0
1317,0.0,0.0,4.0,8.0,-3.0,1.0,2.0,-2.0,1651070597970845.0,0
1318,1.0,2.0,-3.0,-6.0,-1.0,-1.0,1.0,-2.0,1651070597971774.0,0
1319,-3.0,-10.0,-4.0,2.0,-2.0,-1.0,-1.0,0.0,1651070597971774.0,0
1320,-1.0,1.0,4.0,-3.0,-4.0,-1.0,0.0,1.0,1651070597994440.0,0
1321,0.0,-1.0,1.0,-4.0,1.0,2.0,0.0,1.0,1651070597994440.0,0
1322,0.0,-1.0,-4.0,9.0,-1.0,-4.0,-1.0,-1.0,1651070597994440.0,0
1323,0.0,4.0,7.0,7.0,-6.0,3.0,1.0,1.0,1651070597994440.0,0
1324,-2.0,-5.0,-9.0,2.0,8.0,3.0,-3.0,0.0,1651070598008469.0,0
1325,-1.0,2.0,11.0,-2.0,-4.0,-3.0,0.0,-1.0,1651070598008469.0,0
1326,-2.0,-10.0,-19.0,-13.0,-2.0,3.0,-1.0,1.0,1651070598009399.0,0
1327,2.0,6.0,8.0,5.0,-2.0,-5.0,-2.0,-1.0,1651070598009399.0,0
1328,0.0,1.0,1.0,-9.0,-11.0,-5.0,-3.0,0.0,1651070598030597.0,0
1329,-1.0,-2.0,-9.0,-6.0,-3.0,-1.0,0.0,0.0,1651070598030597.0,0
1330,0.0,1.0,17.0,19.0,9.0,2.0,0.0,-1.0,1651070598031596.0,0
1331,0.0,-4.0,-5.0,-5.0,6.0,1.0,3.0,1.0,1651070598031596.0,0
1332,1.0,5.0,2.0,-4.0,-4.0,-3.0,1.0,0.0,1651070598054580.0,0
1333,0.0,-6.0,-6.0,-6.0,-1.0,-1.0,-1.0,0.0,1651070598054580.0,0
1334,-1.0,0.0,-7.0,9.0,4.0,1.0,-1.0,-2.0,1651070598054580.0,0
1335,-1.0,2.0,18.0,8.0,4.0,1.0,1.0,0.0,1651070598054580.0,0
1336,2.0,8.0,12.0,1.0,-1.0,4.0,1.0,0.0,1651070598068564.0,0
1337,2.0,4.0,-16.0,-12.0,-20.0,-10.0,-4.0,-1.0,1651070598068564.0,0
1338,0.0,-5.0,-7.0,-12.0,6.0,0.0,-1.0,-2.0,1651070598069495.0,0
1339,2.0,5.0,5.0,4.0,2.0,3.0,2.0,0.0,1651070598069495.0,0
1340,-5.0,-12.0,-7.0,-3.0,-5.0,-5.0,-3.0,-2.0,1651070598091367.0,0
1341,-1.0,-1.0,-3.0,0.0,2.0,1.0,0.0,0.0,1651070598091367.0,0
1342,1.0,2.0,0.0,-4.0,-1.0,1.0,-2.0,2.0,1651070598091367.0,0
1343,0.0,2.0,0.0,1.0,-3.0,-1.0,-1.0,-1.0,1651070598091367.0,0
1344,0.0,0.0,0.0,-2.0,-1.0,0.0,0.0,-2.0,1651070598114480.0,0
1345,-3.0,-3.0,-1.0,10.0,6.0,4.0,1.0,0.0,1651070598114480.0,0
1346,-2.0,0.0,11.0,-4.0,-10.0,-4.0,-1.0,4.0,1651070598114480.0,0
1347,1.0,-6.0,-9.0,-1.0,11.0,-1.0,0.0,-1.0,1651070598114480.0,0
1348,-3.0,-2.0,-16.0,-11.0,4.0,1.0,-3.0,-4.0,1651070598128512.0,0
1349,-1.0,-2.0,23.0,16.0,17.0,7.0,-2.0,-6.0,1651070598128512.0,0
1350,6.0,2.0,-25.0,6.0,0.0,-4.0,0.0,6.0,1651070598129442.0,0
1351,0.0,13.0,21.0,-6.0,-15.0,1.0,1.0,6.0,1651070598129442.0,0
1352,-3.0,3.0,-13.0,-4.0,-2.0,-3.0,-4.0,-24.0,1651070598150722.0,0
1353,-8.0,-16.0,-2.0,-7.0,-6.0,-3.0,-1.0,-6.0,1651070598150722.0,0
1354,-3.0,-4.0,-2.0,-17.0,-9.0,-3.0,-2.0,17.0,1651070598151656.0,0
1355,9.0,12.0,-20.0,6.0,-6.0,-5.0,1.0,7.0,1651070598151656.0,0
1356,13.0,13.0,-4.0,3.0,7.0,1.0,3.0,15.0,1651070598173913.0,0
1357,3.0,0.0,-3.0,-2.0,1.0,0.0,1.0,-8.0,1651070598173913.0,0
1358,-4.0,11.0,26.0,21.0,2.0,1.0,0.0,-11.0,1651070598174914.0,0
1359,-11.0,-11.0,-26.0,-26.0,-10.0,-7.0,-7.0,5.0,1651070598174914.0,0
1360,2.0,-2.0,13.0,13.0,6.0,7.0,6.0,4.0,1651070598196951.0,3
1361,-7.0,-4.0,-11.0,-15.0,0.0,1.0,4.0,4.0,1651070598196951.0,3
1362,-10.0,-5.0,22.0,6.0,-6.0,-4.0,-7.0,-17.0,1651070598196951.0,3
1363,7.0,4.0,-37.0,1.0,3.0,-1.0,-5.0,6.0,1651070598196951.0,3
1364,12.0,-7.0,5.0,-7.0,-9.0,-4.0,0.0,1.0,1651070598210900.0,3
1365,1.0,14.0,0.0,-6.0,-4.0,-4.0,-7.0,-22.0,1651070598210900.0,3
1366,-11.0,-36.0,-31.0,-10.0,4.0,3.0,-1.0,-9.0,1651070598211898.0,3
1367,-4.0,2.0,23.0,5.0,-5.0,-2.0,5.0,4.0,1651070598211898.0,3
1368,3.0,-2.0,1.0,5.0,1.0,2.0,7.0,19.0,1651070598233511.0,3
1369,17.0,12.0,-5.0,1.0,1.0,0.0,0.0,25.0,1651070598233511.0,3
1370,-7.0,43.0,10.0,-10.0,-6.0,-2.0,-6.0,-9.0,1651070598234483.0,3
1371,-8.0,-49.0,15.0,19.0,11.0,5.0,-3.0,-37.0,1651070598234483.0,3
1372,-28.0,-10.0,-5.0,-17.0,-4.0,-2.0,-4.0,-7.0,1651070598247513.0,3
1373,-35.0,31.0,0.0,8.0,-11.0,-6.0,-6.0,-8.0,1651070598247513.0,3
1374,21.0,-73.0,0.0,-7.0,5.0,3.0,-10.0,-22.0,1651070598255611.0,3
1375,49.0,67.0,-12.0,-4.0,-5.0,4.0,25.0,77.0,1651070598255611.0,3
1376,5.0,-8.0,13.0,13.0,4.0,-2.0,-4.0,-1.0,1651070598270502.0,3
1377,22.0,-44.0,-3.0,-18.0,3.0,0.0,10.0,51.0,1651070598270502.0,3
1378,32.0,41.0,21.0,26.0,1.0,-2.0,-4.0,-6.0,1651070598271510.0,3
1379,-79.0,-55.0,-14.0,7.0,5.0,3.0,1.0,-32.0,1651070598271510.0,3
1380,4.0,1.0,-15.0,-24.0,-16.0,-7.0,-5.0,-2.0,1651070598293865.0,3
1381,-17.0,13.0,24.0,11.0,8.0,5.0,-4.0,-29.0,1651070598293865.0,3
1382,19.0,-21.0,-4.0,-9.0,-8.0,-2.0,5.0,-7.0,1651070598294638.0,3
1383,13.0,-5.0,-10.0,-9.0,2.0,-5.0,-16.0,-9.0,1651070598294638.0,3
1384,10.0,48.0,2.0,18.0,3.0,2.0,11.0,14.0,1651070598307666.0,3
1385,-23.0,-6.0,16.0,-3.0,-6.0,-4.0,-14.0,-39.0,1651070598307666.0,3
1386,-6.0,25.0,-57.0,-14.0,1.0,0.0,4.0,9.0,1651070598315644.0,3
1387,-41.0,-80.0,-1.0,-10.0,-10.0,-5.0,-3.0,6.0,1651070598315644.0,3
1388,26.0,4.0,-1.0,0.0,5.0,7.0,-7.0,-43.0,1651070598330555.0,3
1389,10.0,36.0,-13.0,-1.0,-2.0,-1.0,6.0,31.0,1651070598330555.0,3
1390,29.0,45.0,72.0,28.0,4.0,5.0,23.0,82.0,1651070598331555.0,3
1391,3.0,34.0,-43.0,-24.0,-17.0,-16.0,-20.0,1.0,1651070598331555.0,3
1392,-16.0,-11.0,-27.0,-13.0,19.0,0.0,-3.0,-15.0,1651070598354424.0,3
1393,-5.0,-3.0,17.0,4.0,-5.0,-3.0,-5.0,-41.0,1651070598354424.0,3
1394,-9.0,-7.0,0.0,0.0,-16.0,1.0,-4.0,-6.0,1651070598354424.0,3
1395,5.0,23.0,27.0,38.0,52.0,24.0,1.0,-22.0,1651070598354424.0,3
1396,-9.0,-26.0,34.0,6.0,-10.0,-3.0,0.0,1.0,1651070598367410.0,3
1397,-7.0,-10.0,-61.0,-40.0,1.0,-6.0,-6.0,-26.0,1651070598367410.0,3
1398,-31.0,9.0,33.0,3.0,-19.0,-5.0,-4.0,20.0,1651070598375354.0,3
1399,31.0,24.0,21.0,-4.0,-14.0,-9.0,3.0,-3.0,1651070598375354.0,3
1400,-8.0,-10.0,-23.0,-5.0,15.0,10.0,-3.0,-9.0,1651070598391360.0,3
1401,16.0,26.0,34.0,19.0,8.0,7.0,13.0,46.0,1651070598391360.0,3
1402,2.0,-84.0,-112.0,-36.0,-9.0,-6.0,-8.0,-32.0,1651070598391360.0,3
1403,-8.0,26.0,13.0,-5.0,-13.0,-7.0,-10.0,-6.0,1651070598391360.0,3
1404,-16.0,-25.0,0.0,18.0,3.0,-2.0,4.0,7.0,1651070598414477.0,3
1405,-1.0,-23.0,4.0,-7.0,-20.0,-8.0,2.0,9.0,1651070598414477.0,3
1406,-7.0,24.0,54.0,21.0,37.0,12.0,-7.0,-8.0,1651070598415290.0,3
1407,15.0,37.0,-9.0,0.0,-10.0,2.0,8.0,-2.0,1651070598415290.0,3
1408,5.0,-30.0,-27.0,-5.0,0.0,-5.0,-2.0,13.0,1651070598427605.0,3
1409,-5.0,-14.0,10.0,10.0,-1.0,-4.0,-4.0,-1.0,1651070598427605.0,3
1410,-25.0,-31.0,-14.0,-29.0,-6.0,-4.0,-3.0,-58.0,1651070598435646.0,3
1411,-3.0,1.0,7.0,10.0,-9.0,-2.0,-3.0,7.0,1651070598435646.0,3
1412,30.0,27.0,44.0,6.0,16.0,8.0,6.0,42.0,1651070598450551.0,3
1413,-7.0,-59.0,-62.0,-11.0,-11.0,-1.0,4.0,4.0,1651070598450551.0,3
1414,-23.0,14.0,-23.0,-25.0,-3.0,-4.0,-3.0,6.0,1651070598451543.0,3
1415,3.0,17.0,18.0,17.0,4.0,0.0,-6.0,-35.0,1651070598451543.0,3
1416,-21.0,37.0,6.0,2.0,-25.0,-10.0,-6.0,-2.0,1651070598473657.0,3
1417,22.0,-8.0,1.0,15.0,2.0,7.0,-1.0,9.0,1651070598473657.0,3
1418,-6.0,7.0,-6.0,9.0,23.0,-1.0,1.0,-5.0,1651070598474597.0,3
1419,-38.0,-55.0,-11.0,-11.0,9.0,5.0,-4.0,-36.0,1651070598474597.0,3
1420,32.0,-6.0,55.0,18.0,6.0,8.0,12.0,42.0,1651070598487618.0,3
1421,10.0,31.0,-36.0,7.0,1.0,3.0,4.0,-1.0,1651070598487618.0,3
1422,21.0,31.0,-11.0,-15.0,-20.0,-7.0,-9.0,7.0,1651070598496308.0,3
1423,-14.0,-18.0,18.0,2.0,1.0,0.0,0.0,9.0,1651070598496308.0,3
1424,-15.0,-30.0,-14.0,-4.0,-2.0,-3.0,-2.0,-46.0,1651070598511284.0,3
1425,0.0,-32.0,12.0,-1.0,-11.0,0.0,4.0,34.0,1651070598511284.0,3
1426,2.0,18.0,15.0,7.0,3.0,-4.0,6.0,7.0,1651070598511284.0,3
1427,22.0,-23.0,-3.0,1.0,0.0,2.0,4.0,26.0,1651070598511284.0,3
1428,-21.0,-3.0,-8.0,-5.0,-2.0,-4.0,-11.0,-30.0,1651070598534380.0,3
1429,-5.0,-2.0,11.0,1.0,-9.0,1.0,-4.0,-29.0,1651070598534380.0,3
1430,-27.0,2.0,15.0,12.0,13.0,7.0,11.0,31.0,1651070598534380.0,3
1431,49.0,19.0,-4.0,-12.0,-13.0,-6.0,4.0,15.0,1651070598534380.0,3
1432,-12.0,25.0,20.0,15.0,5.0,-5.0,-5.0,-12.0,1651070598547409.0,3
1433,12.0,-41.0,-55.0,-19.0,12.0,-4.0,-3.0,3.0,1651070598547409.0,3
1434,-14.0,37.0,44.0,13.0,-2.0,12.0,6.0,-17.0,1651070598556432.0,3
1435,-8.0,-21.0,-18.0,-12.0,-15.0,-10.0,-6.0,-6.0,1651070598556432.0,3
1436,-2.0,15.0,-9.0,-14.0,-18.0,-3.0,-4.0,6.0,1651070598570467.0,3
1437,-2.0,-5.0,14.0,6.0,2.0,-8.0,-1.0,23.0,1651070598570467.0,3
1438,-14.0,-30.0,10.0,5.0,3.0,6.0,-4.0,-34.0,1651070598571392.0,3
1439,20.0,34.0,-2.0,-9.0,-10.0,-5.0,5.0,14.0,1651070598571392.0,3
1440,6.0,-10.0,4.0,1.0,3.0,-4.0,-5.0,15.0,1651070598594397.0,3
1441,-14.0,19.0,24.0,7.0,24.0,8.0,-3.0,-16.0,1651070598594397.0,3
1442,24.0,13.0,-11.0,-3.0,-12.0,-6.0,6.0,13.0,1651070598595327.0,3
1443,-7.0,-8.0,-10.0,3.0,4.0,8.0,2.0,-21.0,1651070598595327.0,3
1444,-21.0,-29.0,-2.0,-11.0,-9.0,-6.0,-3.0,12.0,1651070598616549.0,3
1445,1.0,28.0,50.0,-1.0,-14.0,-5.0,-6.0,-21.0,1651070598616549.0,3
1446,19.0,18.0,-47.0,-12.0,-3.0,-4.0,-4.0,21.0,1651070598617540.0,3
1447,-6.0,-24.0,28.0,31.0,28.0,2.0,3.0,5.0,1651070598617540.0,3
1448,-5.0,17.0,-4.0,-7.0,4.0,5.0,1.0,-3.0,1651070598630572.0,3
1449,-1.0,-10.0,-24.0,-3.0,-9.0,-3.0,1.0,-10.0,1651070598630572.0,3
1450,-12.0,-16.0,13.0,0.0,3.0,0.0,-6.0,-15.0,1651070598631503.0,3
1451,-1.0,14.0,-17.0,-7.0,-4.0,-3.0,3.0,15.0,1651070598631503.0,3
1452,18.0,16.0,-4.0,0.0,-16.0,-2.0,8.0,20.0,1651070598654503.0,3
1453,-13.0,-19.0,-1.0,-19.0,9.0,0.0,0.0,2.0,1651070598654503.0,3
1454,12.0,16.0,6.0,1.0,-5.0,-1.0,-7.0,-17.0,1651070598654503.0,3
1455,2.0,13.0,35.0,0.0,-5.0,-1.0,9.0,3.0,1651070598654503.0,3
1456,-13.0,-30.0,-28.0,-3.0,-22.0,-9.0,-8.0,-13.0,1651070598676674.0,3
1457,-1.0,9.0,-57.0,6.0,13.0,-1.0,-3.0,-5.0,1651070598676674.0,3
1458,-1.0,-22.0,-8.0,-5.0,7.0,0.0,2.0,8.0,1651070598677694.0,3
1459,-21.0,-22.0,-10.0,-15.0,-2.0,1.0,-8.0,-18.0,1651070598677694.0,3
1460,24.0,41.0,-18.0,-3.0,-3.0,-2.0,7.0,30.0,1651070598690700.0,3
1461,0.0,14.0,62.0,8.0,-6.0,0.0,-1.0,-2.0,1651070598690700.0,3
1462,-6.0,-15.0,-6.0,1.0,-1.0,1.0,2.0,11.0,1651070598691633.0,3
1463,7.0,-21.0,-31.0,2.0,4.0,1.0,1.0,9.0,1651070598691633.0,3
1464,-10.0,-5.0,-3.0,-5.0,-7.0,-2.0,-10.0,-34.0,1651070598714525.0,3
1465,17.0,1.0,-9.0,7.0,4.0,6.0,9.0,26.0,1651070598714525.0,3
1466,11.0,0.0,8.0,-2.0,2.0,-4.0,2.0,20.0,1651070598714525.0,3
1467,-9.0,26.0,34.0,-3.0,-8.0,-2.0,-8.0,-16.0,1651070598714525.0,3
1468,-12.0,-14.0,-18.0,-3.0,-3.0,0.0,-2.0,-37.0,1651070598735673.0,3
1469,15.0,43.0,8.0,12.0,9.0,4.0,8.0,46.0,1651070598735673.0,3
1470,-12.0,3.0,11.0,2.0,9.0,3.0,2.0,-24.0,1651070598743651.0,3
1471,13.0,-15.0,-9.0,1.0,2.0,-3.0,2.0,41.0,1651070598743651.0,3
1472,-8.0,-24.0,-18.0,-8.0,-8.0,-7.0,-6.0,-20.0,1651070598750562.0,3
1473,-1.0,58.0,37.0,1.0,-13.0,2.0,-5.0,-19.0,1651070598750562.0,3
1474,15.0,-29.0,5.0,11.0,2.0,-4.0,1.0,3.0,1651070598751559.0,3
1475,-12.0,8.0,0.0,-7.0,19.0,5.0,-4.0,-16.0,1651070598751559.0,3
1476,7.0,-11.0,-12.0,-1.0,14.0,4.0,6.0,12.0,1651070598773823.0,3
1477,-4.0,-12.0,4.0,0.0,-14.0,-7.0,-5.0,1.0,1651070598773823.0,3
1478,-3.0,4.0,10.0,2.0,-16.0,-6.0,-6.0,-14.0,1651070598774835.0,3
1479,12.0,13.0,-13.0,-5.0,3.0,3.0,5.0,13.0,1651070598774835.0,3
1480,8.0,-10.0,3.0,9.0,14.0,7.0,6.0,17.0,1651070598796927.0,3
1481,-8.0,-22.0,-16.0,-7.0,-1.0,-3.0,-1.0,-14.0,1651070598796927.0,3
1482,-5.0,-17.0,0.0,0.0,-1.0,3.0,0.0,-12.0,1651070598796927.0,3
1483,-7.0,2.0,5.0,4.0,-9.0,-3.0,2.0,14.0,1651070598796927.0,3
1484,-2.0,28.0,28.0,-5.0,3.0,0.0,1.0,13.0,1651070598811322.0,3
1485,9.0,4.0,-17.0,3.0,1.0,0.0,2.0,-3.0,1651070598811322.0,3
1486,-5.0,-39.0,-13.0,-4.0,-1.0,0.0,0.0,2.0,1651070598811622.0,3
1487,4.0,32.0,4.0,-1.0,-2.0,-2.0,-4.0,-11.0,1651070598811622.0,3
1488,3.0,9.0,-3.0,-5.0,-11.0,-3.0,3.0,7.0,1651070598833722.0,3
1489,-4.0,-21.0,-7.0,4.0,9.0,3.0,-4.0,-18.0,1651070598833722.0,3
1490,-4.0,11.0,3.0,9.0,12.0,5.0,0.0,5.0,1651070598834652.0,3
1491,-2.0,-3.0,-15.0,-15.0,-6.0,-4.0,1.0,-8.0,1651070598834652.0,3
1492,-2.0,-14.0,8.0,0.0,4.0,2.0,-1.0,-2.0,1651070598856414.0,3
1493,-5.0,-13.0,-9.0,-1.0,-10.0,-4.0,-5.0,-1.0,1651070598856414.0,3
1494,-4.0,4.0,-13.0,-6.0,-9.0,-6.0,-4.0,-2.0,1651070598857345.0,3
1495,4.0,4.0,13.0,7.0,0.0,2.0,0.0,-24.0,1651070598857345.0,3
1496,4.0,27.0,39.0,2.0,-7.0,-1.0,0.0,25.0,1651070598871352.0,3
1497,0.0,-17.0,-56.0,-5.0,6.0,1.0,9.0,10.0,1651070598871352.0,3
1498,3.0,-1.0,-6.0,2.0,6.0,0.0,-2.0,5.0,1651070598871352.0,3
1499,-14.0,0.0,0.0,8.0,5.0,-1.0,-5.0,-15.0,1651070598871352.0,3
1500,2.0,3.0,-4.0,1.0,-17.0,-6.0,-1.0,2.0,1651070598894473.0,3
1501,-4.0,-19.0,15.0,-3.0,8.0,3.0,-3.0,-9.0,1651070598894473.0,3
1502,4.0,9.0,0.0,-10.0,-14.0,-1.0,3.0,16.0,1651070598895294.0,3
1503,10.0,12.0,-2.0,5.0,3.0,-2.0,-2.0,-10.0,1651070598895294.0,3
1504,-23.0,-40.0,-31.0,2.0,0.0,-3.0,-6.0,-26.0,1651070598916547.0,3
1505,-8.0,21.0,19.0,6.0,6.0,-1.0,2.0,12.0,1651070598916547.0,3
1506,13.0,19.0,-4.0,-6.0,-4.0,-2.0,2.0,-2.0,1651070598917503.0,3
1507,-1.0,-52.0,-7.0,-15.0,-18.0,-3.0,-3.0,9.0,1651070598917503.0,3
1508,4.0,4.0,11.0,10.0,-1.0,1.0,2.0,-9.0,1651070598939531.0,3
1509,-5.0,-3.0,-3.0,-2.0,14.0,4.0,-1.0,7.0,1651070598939531.0,3
1510,-8.0,-24.0,15.0,12.0,0.0,-1.0,4.0,-9.0,1651070598939531.0,3
1511,1.0,9.0,-10.0,-13.0,-12.0,2.0,-1.0,23.0,1651070598939531.0,3
1512,8.0,-17.0,24.0,3.0,-2.0,-2.0,-2.0,3.0,1651070598953666.0,3
1513,-1.0,-1.0,-5.0,10.0,-8.0,-1.0,-4.0,-12.0,1651070598953666.0,3
1514,-11.0,8.0,-23.0,-2.0,17.0,-1.0,-7.0,-5.0,1651070598954663.0,3
1515,-15.0,-16.0,-28.0,1.0,-1.0,-1.0,-2.0,-29.0,1651070598954663.0,3
1516,27.0,30.0,-60.0,-9.0,-2.0,0.0,4.0,33.0,1651070598976615.0,3
1517,9.0,24.0,50.0,-10.0,-14.0,-2.0,-5.0,6.0,1651070598976615.0,3
1518,1.0,-1.0,15.0,11.0,2.0,0.0,4.0,14.0,1651070598977641.0,3
1519,-13.0,-17.0,-29.0,-4.0,-9.0,-3.0,-4.0,-9.0,1651070598977641.0,3
1520,-15.0,2.0,-4.0,-18.0,1.0,-8.0,-5.0,-18.0,1651070598991323.0,3
1521,16.0,-15.0,16.0,11.0,23.0,20.0,19.0,13.0,1651070598991323.0,3
1522,4.0,14.0,-16.0,-9.0,-11.0,-5.0,0.0,7.0,1651070598991640.0,3
1523,-19.0,-59.0,20.0,3.0,-3.0,-3.0,-5.0,-6.0,1651070598991640.0,3
1524,13.0,54.0,13.0,12.0,17.0,6.0,2.0,-7.0,1651070599014422.0,3
1525,5.0,-5.0,-13.0,-10.0,-13.0,-10.0,-2.0,14.0,1651070599014422.0,3
1526,-4.0,5.0,18.0,-9.0,-4.0,1.0,-5.0,-18.0,1651070599014422.0,3
1527,2.0,-20.0,17.0,-2.0,9.0,6.0,6.0,12.0,1651070599014422.0,3
1528,-3.0,5.0,-14.0,0.0,-7.0,1.0,1.0,-5.0,1651070599036307.0,3
1529,-6.0,17.0,7.0,14.0,9.0,-5.0,-9.0,-10.0,1651070599036307.0,3
1530,5.0,-13.0,3.0,0.0,-3.0,-1.0,0.0,11.0,1651070599037237.0,3
1531,0.0,11.0,2.0,-6.0,-4.0,-5.0,-4.0,-17.0,1651070599037237.0,3
1532,3.0,23.0,21.0,2.0,-13.0,3.0,1.0,5.0,1651070599051322.0,3
1533,-6.0,-6.0,-21.0,-5.0,20.0,-2.0,-3.0,3.0,1651070599051322.0,3
1534,-12.0,-33.0,-9.0,1.0,-10.0,-5.0,-8.0,-19.0,1651070599051616.0,3
1535,21.0,44.0,27.0,9.0,4.0,5.0,9.0,45.0,1651070599051616.0,3
1536,-4.0,-12.0,-2.0,-5.0,-3.0,-3.0,2.0,-11.0,1651070599074447.0,3
1537,6.0,-8.0,-4.0,-10.0,-9.0,-4.0,-1.0,-9.0,1651070599074447.0,3
1538,-2.0,9.0,-15.0,-10.0,6.0,2.0,-1.0,7.0,1651070599075287.0,3
1539,7.0,26.0,16.0,19.0,15.0,1.0,-2.0,1.0,1651070599075287.0,3
1540,-17.0,-50.0,-9.0,-2.0,-1.0,2.0,-4.0,-4.0,1651070599096476.0,3
1541,4.0,27.0,-22.0,-10.0,-36.0,-8.0,-3.0,-16.0,1651070599096476.0,3
1542,6.0,3.0,-3.0,4.0,24.0,7.0,6.0,5.0,1651070599097474.0,3
1543,-2.0,3.0,21.0,-1.0,-8.0,-5.0,0.0,2.0,1651070599097474.0,3
1544,0.0,15.0,23.0,8.0,11.0,8.0,1.0,17.0,1651070599110556.0,3
1545,-8.0,-21.0,-13.0,0.0,19.0,3.0,-3.0,-11.0,1651070599110556.0,3
1546,1.0,9.0,-2.0,1.0,-16.0,-5.0,-4.0,-14.0,1651070599111555.0,3
1547,-1.0,-15.0,6.0,1.0,-3.0,-1.0,1.0,-7.0,1651070599111555.0,3
1548,-15.0,3.0,-30.0,-2.0,7.0,-2.0,2.0,10.0,1651070599134288.0,3
1549,9.0,29.0,26.0,-8.0,-7.0,1.0,0.0,8.0,1651070599134288.0,3
1550,8.0,-12.0,4.0,0.0,-3.0,-1.0,-3.0,-5.0,1651070599135219.0,3
1551,1.0,2.0,-39.0,-15.0,-3.0,-5.0,-4.0,-12.0,1651070599135219.0,3
1552,2.0,0.0,16.0,15.0,12.0,4.0,-3.0,-18.0,1651070599156426.0,3
1553,-10.0,-18.0,13.0,-3.0,-9.0,-4.0,-2.0,0.0,1651070599156426.0,3
1554,-19.0,14.0,4.0,1.0,-7.0,-3.0,-6.0,-36.0,1651070599157367.0,3
1555,14.0,-5.0,1.0,-8.0,-3.0,0.0,6.0,49.0,1651070599157367.0,3
1556,0.0,-13.0,-14.0,-3.0,-14.0,-6.0,-2.0,-11.0,1651070599171324.0,3
1557,-3.0,18.0,2.0,4.0,17.0,4.0,1.0,10.0,1651070599171324.0,3
1558,10.0,9.0,-10.0,1.0,7.0,2.0,5.0,14.0,1651070599171324.0,3
1559,-11.0,3.0,8.0,-3.0,0.0,-1.0,-6.0,-18.0,1651070599171324.0,3
1560,-11.0,-55.0,-2.0,-7.0,-1.0,-5.0,-4.0,-1.0,1651070599194422.0,3
1561,11.0,47.0,-5.0,-5.0,-24.0,-8.0,-5.0,-21.0,1651070599194422.0,3
1562,-1.0,-9.0,-18.0,2.0,-4.0,-1.0,2.0,30.0,1651070599194422.0,3
1563,9.0,24.0,4.0,-6.0,4.0,5.0,5.0,1.0,1651070599194422.0,3
1564,-3.0,-18.0,-14.0,7.0,3.0,-1.0,-3.0,3.0,1651070599217408.0,3
1565,-6.0,-16.0,28.0,13.0,-5.0,-2.0,0.0,-13.0,1651070599217408.0,3
1566,-1.0,7.0,12.0,-6.0,-1.0,-2.0,-2.0,1.0,1651070599217408.0,3
1567,2.0,-8.0,-13.0,-1.0,-1.0,1.0,5.0,0.0,1651070599217408.0,3
1568,7.0,13.0,4.0,-2.0,-3.0,-1.0,-3.0,-7.0,1651070599230425.0,3
1569,-10.0,-8.0,3.0,-1.0,1.0,2.0,-2.0,0.0,1651070599230425.0,3
1570,1.0,30.0,12.0,9.0,-1.0,-1.0,0.0,-19.0,1651070599238446.0,3
1571,-2.0,-42.0,-7.0,-4.0,-2.0,4.0,4.0,26.0,1651070599238446.0,3
1572,8.0,9.0,3.0,1.0,10.0,0.0,2.0,-2.0,1651070599253528.0,3
1573,1.0,-3.0,-17.0,-3.0,-2.0,-2.0,0.0,3.0,1651070599253528.0,3
1574,-16.0,-12.0,-6.0,-2.0,-5.0,-5.0,-2.0,1.0,1651070599254484.0,3
1575,-4.0,14.0,-18.0,-1.0,-3.0,-1.0,-6.0,-39.0,1651070599254484.0,3
1576,-5.0,0.0,17.0,-6.0,-26.0,-8.0,-7.0,-4.0,1651070599276565.0,3
1577,5.0,-4.0,2.0,10.0,36.0,7.0,15.0,39.0,1651070599276565.0,3
1578,14.0,-6.0,-22.0,-9.0,0.0,3.0,5.0,11.0,1651070599277562.0,3
1579,-8.0,4.0,-3.0,-4.0,0.0,-1.0,-6.0,-6.0,1651070599277562.0,3
1580,-3.0,1.0,0.0,2.0,1.0,0.0,0.0,-12.0,1651070599290607.0,3
1581,-6.0,-6.0,10.0,6.0,-8.0,-1.0,-7.0,-25.0,1651070599290607.0,3
1582,0.0,2.0,-1.0,-3.0,-9.0,-3.0,-1.0,17.0,1651070599298658.0,3
1583,-1.0,12.0,-1.0,0.0,3.0,-3.0,2.0,4.0,1651070599298658.0,3
1584,-5.0,5.0,2.0,-7.0,-6.0,-2.0,-3.0,-9.0,1651070599313559.0,3
1585,2.0,-33.0,-14.0,-5.0,-3.0,-5.0,-6.0,-8.0,1651070599313559.0,3
1586,-12.0,-8.0,-11.0,5.0,4.0,1.0,-2.0,-15.0,1651070599314545.0,3
1587,12.0,4.0,-6.0,-2.0,-6.0,-3.0,0.0,15.0,1651070599314545.0,3
1588,13.0,21.0,4.0,-4.0,10.0,3.0,4.0,16.0,1651070599336427.0,3
1589,-6.0,-15.0,-4.0,-4.0,-5.0,-1.0,0.0,-4.0,1651070599336427.0,3
1590,-3.0,13.0,14.0,4.0,-4.0,0.0,-5.0,-12.0,1651070599337356.0,3
1591,-15.0,-39.0,-1.0,-2.0,-3.0,-5.0,-4.0,-18.0,1651070599337356.0,3
1592,5.0,-2.0,-2.0,-3.0,-5.0,1.0,3.0,19.0,1651070599350558.0,3
1593,16.0,28.0,-8.0,-6.0,-2.0,0.0,2.0,4.0,1651070599350558.0,3
1594,-1.0,-24.0,-7.0,-1.0,11.0,-1.0,-1.0,3.0,1651070599358282.0,3
1595,-7.0,40.0,21.0,5.0,-5.0,-1.0,-4.0,-17.0,1651070599358282.0,3
1596,-14.0,-7.0,-11.0,-8.0,-4.0,-4.0,-8.0,-9.0,1651070599373857.0,3
1597,-6.0,-11.0,5.0,-1.0,5.0,2.0,2.0,-5.0,1651070599373857.0,3
1598,7.0,43.0,16.0,-5.0,5.0,3.0,5.0,15.0,1651070599373857.0,3
1599,6.0,-26.0,-13.0,10.0,0.0,0.0,2.0,1.0,1651070599373857.0,3
1600,-1.0,-14.0,2.0,-2.0,2.0,-1.0,0.0,-8.0,1651070599396989.0,3
1601,-14.0,1.0,0.0,-1.0,-14.0,-7.0,-6.0,-3.0,1651070599396989.0,3
1602,10.0,4.0,4.0,-6.0,-7.0,1.0,0.0,-1.0,1651070599396989.0,3
1603,2.0,13.0,6.0,3.0,9.0,1.0,2.0,0.0,1651070599396989.0,3
1604,1.0,2.0,1.0,1.0,-2.0,2.0,3.0,6.0,1651070599410014.0,3
1605,-6.0,-13.0,-11.0,-3.0,-3.0,-1.0,-2.0,-15.0,1651070599410014.0,3
1606,-1.0,-10.0,9.0,6.0,1.0,-2.0,-4.0,-8.0,1651070599417925.0,3
1607,1.0,6.0,-8.0,-5.0,-6.0,-3.0,-1.0,-6.0,1651070599417925.0,3
1608,5.0,-13.0,5.0,3.0,3.0,3.0,4.0,20.0,1651070599433832.0,3
1609,-5.0,23.0,-10.0,-3.0,-3.0,-2.0,0.0,8.0,1651070599433832.0,3
1610,9.0,-7.0,4.0,0.0,6.0,5.0,3.0,6.0,1651070599433832.0,3
1611,-4.0,-2.0,-24.0,-2.0,-3.0,-5.0,-2.0,-9.0,1651070599433832.0,3
1612,-4.0,12.0,14.0,2.0,10.0,3.0,3.0,-1.0,1651070599456974.0,3
1613,5.0,-8.0,5.0,1.0,-1.0,2.0,2.0,4.0,1651070599456974.0,3
1614,-2.0,1.0,-3.0,-4.0,-10.0,-3.0,0.0,7.0,1651070599456974.0,3
1615,-9.0,7.0,10.0,-8.0,3.0,1.0,-3.0,-7.0,1651070599456974.0,3
1616,9.0,-1.0,0.0,17.0,7.0,-1.0,1.0,-1.0,1651070599469977.0,3
1617,7.0,-4.0,6.0,3.0,-5.0,-1.0,-3.0,7.0,1651070599469977.0,3
1618,-4.0,-5.0,-5.0,-3.0,-6.0,-3.0,1.0,-4.0,1651070599478028.0,3
1619,3.0,5.0,3.0,-1.0,3.0,3.0,1.0,4.0,1651070599478028.0,3
1620,-3.0,-3.0,-10.0,-10.0,3.0,0.0,-2.0,-1.0,1651070599493136.0,3
1621,-2.0,-4.0,3.0,4.0,0.0,0.0,0.0,-8.0,1651070599493136.0,3
1622,1.0,-4.0,-1.0,-4.0,-10.0,-4.0,-2.0,3.0,1651070599494067.0,3
1623,0.0,-6.0,1.0,3.0,2.0,-3.0,1.0,4.0,1651070599494067.0,3
1624,6.0,9.0,1.0,7.0,17.0,4.0,1.0,2.0,1651070599517046.0,3
1625,-5.0,-3.0,-6.0,-8.0,-1.0,-3.0,-2.0,-5.0,1651070599517046.0,3
1626,-1.0,-5.0,0.0,-2.0,2.0,3.0,1.0,1.0,1651070599517046.0,3
1627,-3.0,-2.0,3.0,4.0,-3.0,-1.0,0.0,4.0,1651070599517046.0,3
1628,-3.0,-2.0,0.0,2.0,-2.0,0.0,0.0,-5.0,1651070599538971.0,3
1629,3.0,0.0,-4.0,-16.0,-2.0,-1.0,0.0,0.0,1651070599538971.0,3
1630,-4.0,-8.0,-7.0,12.0,-1.0,-2.0,1.0,2.0,1651070599539903.0,3
1631,1.0,3.0,6.0,5.0,2.0,1.0,-1.0,-11.0,1651070599539903.0,3
1632,-2.0,2.0,-1.0,-4.0,-4.0,-1.0,0.0,11.0,1651070599552869.0,3
1633,-1.0,-4.0,-2.0,-1.0,1.0,3.0,-2.0,2.0,1651070599552869.0,3
1634,-1.0,-7.0,-11.0,-12.0,-8.0,-5.0,-2.0,-1.0,1651070599553874.0,3
1635,1.0,2.0,3.0,4.0,4.0,3.0,0.0,1.0,1651070599553874.0,3
1636,-2.0,-4.0,2.0,5.0,-2.0,-1.0,-1.0,-7.0,1651070599576096.0,3
1637,-1.0,1.0,5.0,0.0,0.0,0.0,-1.0,0.0,1651070599576096.0,3
1638,-2.0,-3.0,2.0,3.0,-1.0,1.0,1.0,2.0,1651070599577026.0,3
1639,-5.0,-3.0,0.0,-2.0,1.0,-3.0,-3.0,-1.0,1651070599577026.0,3
1640,4.0,0.0,-5.0,-6.0,-3.0,-1.0,2.0,-1.0,1651070599598425.0,3
1641,3.0,-1.0,1.0,8.0,0.0,0.0,1.0,5.0,1651070599598425.0,3
1642,-1.0,3.0,9.0,5.0,4.0,-1.0,0.0,-4.0,1651070599606431.0,3
1643,1.0,-7.0,-9.0,-9.0,-3.0,1.0,0.0,6.0,1651070599606431.0,3
1644,-6.0,-4.0,-13.0,-14.0,-6.0,-2.0,-3.0,-5.0,1651070599613415.0,3
1645,-2.0,0.0,1.0,4.0,-1.0,-3.0,0.0,-5.0,1651070599613415.0,3
1646,0.0,-3.0,-3.0,-1.0,1.0,-1.0,-3.0,-1.0,1651070599614412.0,3
1647,1.0,3.0,6.0,7.0,-2.0,1.0,-2.0,4.0,1651070599614412.0,3
1648,3.0,4.0,3.0,6.0,9.0,2.0,1.0,-2.0,1651070599636354.0,3
1649,0.0,7.0,-3.0,-5.0,-4.0,-4.0,-1.0,1.0,1651070599636354.0,3
1650,-1.0,-11.0,-2.0,1.0,9.0,2.0,2.0,1.0,1651070599637351.0,3
1651,1.0,1.0,-2.0,-2.0,-11.0,1.0,1.0,1.0,1651070599637351.0,3
1652,-2.0,-2.0,-5.0,-4.0,1.0,-2.0,1.0,-3.0,1651070599659523.0,3
1653,0.0,1.0,20.0,10.0,-3.0,0.0,-1.0,-1.0,1651070599659523.0,3
1654,3.0,5.0,-11.0,-2.0,-6.0,-2.0,0.0,0.0,1651070599659523.0,3
1655,1.0,2.0,7.0,2.0,6.0,0.0,-1.0,0.0,1651070599659523.0,3
1656,-1.0,2.0,1.0,-3.0,-2.0,-1.0,-2.0,-2.0,1651070599673547.0,3
1657,-1.0,-7.0,-2.0,9.0,0.0,1.0,0.0,-2.0,1651070599673547.0,3
1658,-1.0,-3.0,-9.0,-21.0,-7.0,-2.0,1.0,0.0,1651070599674512.0,3
1659,1.0,0.0,-4.0,7.0,1.0,1.0,-1.0,2.0,1651070599674512.0,3
1660,2.0,3.0,7.0,5.0,1.0,-1.0,-2.0,1.0,1651070599696532.0,3
1661,0.0,-1.0,7.0,7.0,3.0,1.0,1.0,0.0,1651070599696532.0,3
1662,2.0,-1.0,-7.0,6.0,-1.0,1.0,2.0,-2.0,1651070599697532.0,3
1663,-1.0,-3.0,-15.0,-20.0,-4.0,-4.0,-2.0,-1.0,1651070599697532.0,3
1664,-4.0,-2.0,-9.0,-19.0,-14.0,-3.0,-1.0,-2.0,1651070599718592.0,3
1665,-1.0,1.0,-7.0,-3.0,0.0,0.0,-1.0,-1.0,1651070599718592.0,3
1666,2.0,-2.0,9.0,13.0,4.0,1.0,1.0,1.0,1651070599719599.0,3
1667,-1.0,7.0,11.0,12.0,6.0,1.0,2.0,3.0,1651070599719599.0,3
1668,3.0,-1.0,5.0,7.0,3.0,2.0,-1.0,-1.0,1651070599733771.0,3
1669,0.0,-4.0,-9.0,-14.0,-2.0,-2.0,-1.0,0.0,1651070599733771.0,3
1670,0.0,0.0,4.0,13.0,1.0,0.0,0.0,3.0,1651070599733771.0,3
1671,0.0,0.0,7.0,-2.0,-2.0,-4.0,-2.0,-3.0,1651070599733771.0,3
1672,-4.0,-2.0,-7.0,4.0,2.0,0.0,-1.0,-2.0,1651070599756730.0,3
1673,1.0,4.0,0.0,-11.0,-1.0,-2.0,0.0,0.0,1651070599756730.0,3
1674,1.0,-7.0,-11.0,-1.0,-5.0,-1.0,0.0,0.0,1651070599757750.0,3
1675,1.0,2.0,2.0,-32.0,-5.0,-3.0,-1.0,0.0,1651070599757750.0,3
1676,-1.0,-2.0,-2.0,4.0,-4.0,-1.0,-1.0,-2.0,1651070599779457.0,3
1677,-3.0,-2.0,1.0,8.0,1.0,0.0,0.0,-2.0,1651070599779457.0,3
1678,0.0,11.0,5.0,9.0,5.0,4.0,1.0,1.0,1651070599779457.0,3
1679,-1.0,4.0,5.0,20.0,2.0,0.0,0.0,2.0,1651070599779457.0,3
1680,-4.0,-13.0,-17.0,-45.0,-8.0,-2.0,-3.0,-2.0,1651070599793604.0,3
1681,-1.0,-2.0,0.0,18.0,2.0,-1.0,-1.0,-1.0,1651070599793604.0,3
1682,-2.0,6.0,12.0,-3.0,2.0,0.0,-2.0,-1.0,1651070599794542.0,3
1683,0.0,0.0,-8.0,-12.0,-9.0,-2.0,-1.0,0.0,1651070599794542.0,3
1684,0.0,0.0,10.0,15.0,-2.0,-1.0,0.0,-1.0,1651070599816314.0,3
1685,-2.0,-6.0,-9.0,-23.0,-6.0,-3.0,-1.0,-2.0,1651070599816314.0,3
1686,-1.0,3.0,45.0,24.0,-1.0,-2.0,-1.0,0.0,1651070599817247.0,3
1687,1.0,13.0,-49.0,3.0,4.0,-3.0,0.0,-2.0,1651070599817247.0,3
1688,-1.0,-22.0,-14.0,4.0,12.0,6.0,1.0,1.0,1651070599839447.0,3
1689,0.0,2.0,-5.0,-1.0,-1.0,-2.0,-1.0,-2.0,1651070599839447.0,3
1690,-2.0,-6.0,-13.0,-13.0,-23.0,-4.0,1.0,-2.0,1651070599839447.0,3
1691,-4.0,-6.0,12.0,4.0,22.0,2.0,-1.0,-1.0,1651070599839447.0,3
1692,2.0,8.0,11.0,15.0,0.0,-2.0,-1.0,-2.0,1651070599853402.0,3
1693,-2.0,11.0,16.0,15.0,3.0,-1.0,-4.0,0.0,1651070599853402.0,3
1694,-1.0,-5.0,-23.0,-42.0,-10.0,-4.0,-2.0,-1.0,1651070599854411.0,3
1695,0.0,2.0,10.0,3.0,-11.0,-2.0,-1.0,0.0,1651070599854411.0,3
1696,-1.0,8.0,4.0,-3.0,-1.0,1.0,1.0,0.0,1651070599875545.0,3
1697,-1.0,-10.0,-13.0,5.0,3.0,2.0,0.0,1.0,1651070599875545.0,3
1698,0.0,5.0,18.0,-2.0,0.0,-2.0,-1.0,-3.0,1651070599883595.0,3
1699,0.0,-1.0,5.0,2.0,-3.0,-2.0,0.0,0.0,1651070599883595.0,3
1700,0.0,4.0,-21.0,0.0,5.0,-2.0,1.0,2.0,1651070599899369.0,3
1701,0.0,1.0,7.0,-8.0,-7.0,-1.0,0.0,1.0,1651070599899369.0,3
1702,-2.0,-4.0,-4.0,8.0,6.0,1.0,-1.0,1.0,1651070599899369.0,3
1703,0.0,-5.0,-8.0,-12.0,0.0,0.0,2.0,1.0,1651070599899369.0,3
1704,-3.0,6.0,23.0,3.0,-4.0,-1.0,-1.0,0.0,1651070599913372.0,3
1705,-2.0,-10.0,-20.0,-7.0,0.0,-1.0,2.0,-1.0,1651070599913372.0,3
1706,2.0,5.0,-14.0,-4.0,4.0,0.0,-2.0,-1.0,1651070599914301.0,3
1707,0.0,-4.0,21.0,-1.0,1.0,-2.0,0.0,-1.0,1651070599914301.0,3
1708,-2.0,-6.0,-2.0,4.0,-1.0,0.0,0.0,-1.0,1651070599936359.0,3
1709,1.0,6.0,1.0,3.0,0.0,-1.0,1.0,-1.0,1651070599936359.0,3
1710,-3.0,-13.0,-41.0,-13.0,-5.0,-2.0,-1.0,-3.0,1651070599937356.0,3
1711,2.0,6.0,4.0,16.0,0.0,2.0,1.0,0.0,1651070599937356.0,3
1712,-2.0,-25.0,2.0,-7.0,-3.0,-1.0,-1.0,0.0,1651070599959351.0,3
1713,-2.0,-12.0,-34.0,-4.0,3.0,0.0,0.0,1.0,1651070599959351.0,3
1714,2.0,10.0,17.0,3.0,-7.0,-3.0,-2.0,1.0,1651070599960305.0,3
1715,0.0,-3.0,-2.0,0.0,-4.0,-1.0,0.0,0.0,1651070599960305.0,3
1716,2.0,8.0,4.0,9.0,19.0,5.0,2.0,1.0,1651070599973435.0,3
1717,1.0,14.0,30.0,2.0,-3.0,0.0,2.0,0.0,1651070599973435.0,3
1718,-1.0,-6.0,-7.0,-2.0,2.0,4.0,1.0,1.0,1651070599974365.0,3
1719,-4.0,-20.0,-33.0,2.0,8.0,6.0,-1.0,-2.0,1651070599974365.0,3
1720,2.0,10.0,10.0,-13.0,-7.0,-2.0,-1.0,0.0,1651070599997020.0,3
1721,-3.0,-24.0,-17.0,1.0,-4.0,-3.0,-3.0,-2.0,1651070599997020.0,3
1722,1.0,12.0,15.0,-2.0,-2.0,-2.0,-1.0,-1.0,1651070599997020.0,3
1723,0.0,-1.0,5.0,3.0,1.0,2.0,1.0,1.0,1651070599997020.0,3
1724,-2.0,1.0,18.0,10.0,-3.0,-1.0,-2.0,-1.0,1651070600019952.0,3
1725,2.0,9.0,-10.0,-18.0,0.0,2.0,0.0,0.0,1651070600019952.0,3
1726,0.0,-2.0,-11.0,14.0,1.0,-1.0,-1.0,-1.0,1651070600020949.0,3
1727,-1.0,-4.0,5.0,-8.0,-1.0,0.0,-1.0,1.0,1651070600020949.0,3
1728,0.0,15.0,14.0,9.0,-2.0,-4.0,0.0,-1.0,1651070600033183.0,3
1729,-3.0,-7.0,20.0,4.0,-5.0,-4.0,-1.0,0.0,1651070600033183.0,3
1730,0.0,-11.0,3.0,-9.0,7.0,2.0,1.0,1.0,1651070600049293.0,3
1731,0.0,4.0,3.0,5.0,-2.0,-3.0,-1.0,0.0,1651070600049293.0,3
1732,1.0,5.0,-1.0,-1.0,-5.0,-3.0,0.0,0.0,1651070600056340.0,3
1733,-2.0,-7.0,-5.0,-9.0,0.0,1.0,-1.0,0.0,1651070600056340.0,3
1734,-2.0,-5.0,0.0,11.0,3.0,0.0,-1.0,-2.0,1651070600058298.0,3
1735,0.0,6.0,9.0,-3.0,-10.0,-6.0,-2.0,-1.0,1651070600058298.0,3
1736,-3.0,-18.0,-27.0,5.0,-8.0,1.0,-1.0,-1.0,1651070600079528.0,3
1737,1.0,1.0,-7.0,-7.0,9.0,5.0,2.0,0.0,1651070600079528.0,3
1738,-2.0,-7.0,-18.0,-2.0,10.0,1.0,0.0,0.0,1651070600080529.0,3
1739,-1.0,-2.0,-2.0,-4.0,-19.0,-6.0,0.0,-2.0,1651070600080529.0,3
1740,1.0,11.0,15.0,1.0,21.0,3.0,1.0,-1.0,1651070600093133.0,3
1741,-1.0,-11.0,-14.0,1.0,-3.0,1.0,0.0,0.0,1651070600093133.0,3
1742,0.0,-2.0,7.0,6.0,-7.0,-3.0,-2.0,0.0,1651070600102166.0,3
1743,1.0,5.0,12.0,-1.0,7.0,5.0,-2.0,0.0,1651070600102166.0,3
1744,0.0,-2.0,4.0,0.0,-7.0,-3.0,-1.0,0.0,1651070600117047.0,3
1745,0.0,6.0,-29.0,-7.0,-4.0,-1.0,-1.0,1.0,1651070600117047.0,3
1746,0.0,5.0,2.0,-4.0,-1.0,-3.0,2.0,-2.0,1651070600118004.0,3
1747,0.0,-4.0,3.0,4.0,1.0,1.0,0.0,-1.0,1651070600118004.0,3
1748,0.0,9.0,-5.0,-4.0,-7.0,-3.0,-1.0,-3.0,1651070600139478.0,3
1749,0.0,3.0,15.0,3.0,4.0,0.0,-2.0,-2.0,1651070600139478.0,3
1750,0.0,7.0,8.0,-3.0,-4.0,-2.0,-3.0,1.0,1651070600140478.0,3
1751,-3.0,-27.0,-40.0,-4.0,2.0,-1.0,0.0,-2.0,1651070600140478.0,3
1752,0.0,0.0,-8.0,-4.0,-1.0,0.0,0.0,0.0,1651070600152521.0,3
1753,-2.0,-1.0,6.0,4.0,-9.0,-4.0,-2.0,-2.0,1651070600152521.0,3
1754,-3.0,9.0,11.0,1.0,6.0,1.0,0.0,0.0,1651070600161521.0,3
1755,2.0,4.0,39.0,11.0,0.0,-1.0,2.0,0.0,1651070600161521.0,3
1756,1.0,-4.0,-29.0,-10.0,9.0,2.0,0.0,0.0,1651070600176766.0,3
1757,-2.0,-17.0,-18.0,-8.0,-6.0,-4.0,0.0,-1.0,1651070600176766.0,3
1758,0.0,1.0,3.0,-6.0,0.0,0.0,-1.0,-1.0,1651070600177760.0,3
1759,0.0,7.0,1.0,-3.0,-4.0,-1.0,1.0,-1.0,1651070600177760.0,3
1760,-1.0,-5.0,0.0,5.0,-9.0,-2.0,-2.0,-1.0,1651070600198699.0,3
1761,2.0,10.0,17.0,6.0,7.0,0.0,0.0,0.0,1651070600198699.0,3
1762,1.0,-5.0,-8.0,-1.0,1.0,-1.0,1.0,1.0,1651070600200694.0,3
1763,-1.0,-3.0,-11.0,-10.0,-13.0,-3.0,-2.0,-1.0,1651070600200694.0,3
1764,-4.0,-1.0,20.0,14.0,-9.0,-1.0,0.0,1.0,1651070600212690.0,3
1765,-2.0,-8.0,-20.0,-17.0,11.0,3.0,-1.0,-1.0,1651070600212690.0,3
1766,-2.0,-6.0,5.0,3.0,-1.0,-1.0,-2.0,0.0,1651070600221651.0,3
1767,0.0,5.0,-16.0,-1.0,0.0,0.0,-2.0,1.0,1651070600221651.0,3
1768,-2.0,-4.0,0.0,-14.0,-9.0,-5.0,-1.0,0.0,1651070600236598.0,3
1769,1.0,11.0,24.0,6.0,-6.0,-1.0,0.0,1.0,1651070600236598.0,3
1770,-3.0,-5.0,-10.0,-5.0,-4.0,-1.0,-1.0,-1.0,1651070600238605.0,3
1771,0.0,2.0,5.0,1.0,-1.0,-3.0,-1.0,-1.0,1651070600238605.0,3
1772,0.0,1.0,-7.0,0.0,1.0,1.0,-2.0,-1.0,1651070600258701.0,3
1773,-1.0,3.0,10.0,10.0,3.0,0.0,1.0,0.0,1651070600258701.0,3
1774,-3.0,-3.0,1.0,7.0,4.0,1.0,1.0,0.0,1651070600260699.0,3
1775,1.0,1.0,-4.0,-2.0,4.0,1.0,1.0,0.0,1651070600260699.0,3
1776,2.0,1.0,-6.0,-3.0,2.0,1.0,0.0,0.0,1651070600272672.0,3
1777,0.0,0.0,13.0,2.0,1.0,-2.0,-1.0,0.0,1651070600272672.0,3
1778,1.0,8.0,6.0,-5.0,-1.0,2.0,0.0,1.0,1651070600281622.0,3
1779,-2.0,-2.0,6.0,17.0,9.0,2.0,1.0,0.0,1651070600281622.0,3
1780,-3.0,-10.0,-14.0,-13.0,-2.0,-1.0,1.0,-1.0,1651070600304021.0,3
1781,1.0,7.0,7.0,-1.0,7.0,1.0,0.0,0.0,1651070600304021.0,3
1782,0.0,2.0,2.0,-1.0,-4.0,-1.0,0.0,-1.0,1651070600306035.0,3
1783,-2.0,-4.0,8.0,-3.0,2.0,-1.0,1.0,0.0,1651070600306035.0,3
1784,0.0,-6.0,-16.0,7.0,-2.0,-1.0,-1.0,0.0,1651070600319037.0,3
1785,-1.0,7.0,17.0,8.0,-10.0,-5.0,-1.0,0.0,1651070600319037.0,3
1786,-1.0,-9.0,-18.0,-4.0,4.0,3.0,-2.0,0.0,1651070600320971.0,3
1787,-1.0,14.0,7.0,-2.0,1.0,-1.0,-1.0,-1.0,1651070600320971.0,3
1788,-2.0,-11.0,-1.0,4.0,3.0,2.0,-1.0,-2.0,1651070600333120.0,3
1789,0.0,-1.0,-11.0,-12.0,-4.0,2.0,-1.0,2.0,1651070600333120.0,3
1790,0.0,-2.0,-6.0,2.0,0.0,-1.0,-1.0,0.0,1651070600342044.0,3
1791,1.0,1.0,2.0,-1.0,-2.0,1.0,0.0,0.0,1651070600342044.0,3
1792,1.0,5.0,6.0,-2.0,-7.0,-3.0,-2.0,-1.0,1651070600356217.0,3
1793,-1.0,-5.0,-11.0,4.0,-3.0,-2.0,0.0,-1.0,1651070600356217.0,3
1794,0.0,-2.0,5.0,-1.0,-4.0,-1.0,1.0,0.0,1651070600358145.0,3
1795,-1.0,-6.0,5.0,4.0,-1.0,-1.0,-2.0,-2.0,1651070600358145.0,3
1796,-1.0,-2.0,3.0,5.0,7.0,2.0,1.0,0.0,1651070600379496.0,3
1797,0.0,0.0,-5.0,-17.0,1.0,2.0,-1.0,0.0,1651070600379496.0,3
1798,-1.0,-5.0,2.0,0.0,-4.0,-2.0,1.0,0.0,1651070600380496.0,3
1799,-2.0,-9.0,-20.0,3.0,-4.0,-3.0,-2.0,-3.0,1651070600380496.0,3
1800,1.0,4.0,6.0,-2.0,-6.0,-6.0,-2.0,-2.0,1651070600393156.0,3
1801,1.0,3.0,8.0,9.0,20.0,9.0,2.0,0.0,1651070600393156.0,3
1802,2.0,1.0,4.0,2.0,-1.0,-2.0,1.0,1.0,1651070600402135.0,3
1803,0.0,5.0,2.0,-3.0,1.0,0.0,0.0,0.0,1651070600402135.0,3
1804,0.0,-3.0,-4.0,-1.0,0.0,1.0,-1.0,1.0,1651070600416814.0,3
1805,-1.0,-1.0,-3.0,1.0,-14.0,-7.0,-2.0,-2.0,1651070600416814.0,3
1806,0.0,3.0,8.0,6.0,-9.0,-7.0,-1.0,-1.0,1651070600417810.0,3
1807,0.0,-3.0,-9.0,-14.0,32.0,14.0,0.0,2.0,1651070600417810.0,3
1808,-1.0,0.0,6.0,12.0,4.0,-1.0,-1.0,-1.0,1651070600439931.0,3
1809,0.0,3.0,1.0,-4.0,-3.0,-2.0,-1.0,-1.0,1651070600439931.0,3
1810,-1.0,-3.0,-10.0,-2.0,-2.0,-3.0,0.0,-1.0,1651070600440884.0,3
1811,-1.0,0.0,2.0,2.0,-13.0,-5.0,0.0,-2.0,1651070600440884.0,3
1812,-1.0,3.0,2.0,-16.0,1.0,2.0,0.0,-1.0,1651070600452978.0,3
1813,-1.0,4.0,3.0,10.0,-3.0,0.0,0.0,1.0,1651070600452978.0,3
1814,-1.0,0.0,12.0,2.0,1.0,0.0,-1.0,-1.0,1651070600461956.0,3
1815,-2.0,-3.0,-4.0,1.0,-6.0,-2.0,1.0,0.0,1651070600461956.0,3
1816,0.0,1.0,0.0,-8.0,2.0,1.0,0.0,0.0,1651070600476997.0,3
1817,-2.0,-3.0,2.0,5.0,-5.0,-3.0,-1.0,0.0,1651070600476997.0,3
1818,-1.0,1.0,-18.0,-6.0,2.0,2.0,-3.0,-1.0,1651070600477925.0,3
1819,-1.0,4.0,12.0,1.0,-1.0,-3.0,0.0,-2.0,1651070600477925.0,3
1820,-2.0,-4.0,-17.0,-5.0,0.0,-1.0,-1.0,-2.0,1651070600499179.0,3
1821,0.0,-1.0,6.0,-1.0,-1.0,-1.0,1.0,-2.0,1651070600499179.0,3
1822,0.0,-5.0,-3.0,-1.0,5.0,1.0,0.0,-1.0,1651070600500213.0,3
1823,0.0,2.0,-3.0,0.0,-14.0,-3.0,-3.0,-1.0,1651070600500213.0,3
1824,-1.0,0.0,2.0,7.0,18.0,4.0,1.0,-1.0,1651070600521250.0,3
1825,-3.0,-12.0,-5.0,-6.0,-16.0,-6.0,-2.0,-2.0,1651070600521250.0,3
1826,-2.0,0.0,-5.0,-13.0,11.0,4.0,2.0,-2.0,1651070600523250.0,3
1827,1.0,6.0,3.0,2.0,-5.0,-1.0,0.0,1.0,1651070600523250.0,3
1828,-1.0,-4.0,5.0,4.0,-11.0,-6.0,-2.0,-2.0,1651070600536355.0,3
1829,0.0,0.0,-6.0,2.0,5.0,2.0,0.0,-1.0,1651070600536355.0,3
1830,0.0,1.0,2.0,1.0,-13.0,-5.0,-4.0,-2.0,1651070600538285.0,3
1831,0.0,-3.0,-10.0,-4.0,5.0,0.0,0.0,1.0,1651070600538285.0,3
1832,0.0,3.0,-1.0,-1.0,2.0,1.0,0.0,2.0,1651070600559398.0,3
1833,0.0,0.0,14.0,6.0,4.0,0.0,2.0,0.0,1651070600559398.0,3
1834,-1.0,-2.0,-3.0,-1.0,-4.0,-2.0,1.0,-1.0,1651070600560411.0,3
1835,0.0,0.0,-5.0,-5.0,0.0,-1.0,1.0,-2.0,1651070600560411.0,3
1836,2.0,7.0,-9.0,1.0,-4.0,-1.0,-1.0,1.0,1651070600581545.0,3
1837,0.0,-3.0,10.0,-1.0,-2.0,0.0,-3.0,-2.0,1651070600581545.0,3
1838,1.0,6.0,23.0,5.0,6.0,2.0,-1.0,0.0,1651070600583459.0,3
1839,-1.0,-9.0,-7.0,-1.0,2.0,-2.0,0.0,-1.0,1651070600583459.0,3
1840,-1.0,1.0,12.0,4.0,-3.0,1.0,2.0,1.0,1651070600596544.0,3
1841,-1.0,3.0,-13.0,-1.0,0.0,-1.0,1.0,0.0,1651070600596544.0,3
1842,1.0,3.0,-7.0,-5.0,-2.0,0.0,-2.0,0.0,1651070600610619.0,3
1843,-2.0,-4.0,15.0,5.0,2.0,1.0,0.0,0.0,1651070600610619.0,3
1844,3.0,10.0,17.0,-6.0,-18.0,-6.0,-1.0,-1.0,1651070600619501.0,3
1845,-2.0,-2.0,-7.0,2.0,15.0,5.0,1.0,-1.0,1651070600619501.0,3
1846,-1.0,-9.0,-13.0,-8.0,-2.0,0.0,0.0,-1.0,1651070600620506.0,3
1847,0.0,2.0,-6.0,2.0,6.0,-1.0,-1.0,0.0,1651070600620506.0,3
1848,0.0,-1.0,-8.0,-3.0,-1.0,-1.0,-2.0,-1.0,1651070600641704.0,3
1849,-1.0,2.0,6.0,-1.0,-3.0,-3.0,-2.0,-1.0,1651070600641704.0,3
1850,-1.0,-2.0,-3.0,6.0,0.0,0.0,0.0,-2.0,1651070600643635.0,3
1851,1.0,-3.0,-1.0,-2.0,-3.0,-2.0,-1.0,-2.0,1651070600643635.0,3
1852,-2.0,-6.0,-4.0,1.0,-2.0,-3.0,-1.0,0.0,1651070600655987.0,3
1853,-2.0,4.0,-13.0,-8.0,-11.0,-5.0,-1.0,-2.0,1651070600655987.0,3
1854,-1.0,-5.0,20.0,11.0,17.0,5.0,2.0,-1.0,1651070600662969.0,3
1855,2.0,-1.0,-7.0,-4.0,6.0,5.0,0.0,2.0,1651070600662969.0,3
1856,0.0,-2.0,-1.0,-4.0,-4.0,0.0,0.0,-1.0,1651070600678026.0,3
1857,0.0,-4.0,-6.0,-4.0,4.0,-1.0,-1.0,1.0,1651070600678026.0,3
1858,0.0,1.0,-10.0,-2.0,-12.0,-5.0,0.0,-1.0,1651070600686947.0,3
1859,-2.0,1.0,5.0,1.0,-3.0,-2.0,0.0,-2.0,1651070600686947.0,3
1860,-2.0,-3.0,3.0,2.0,6.0,1.0,1.0,0.0,1651070600701494.0,3
1861,1.0,3.0,-1.0,0.0,-6.0,0.0,-2.0,1.0,1651070600701494.0,3
1862,-1.0,4.0,-3.0,-1.0,-3.0,-2.0,-1.0,-1.0,1651070600703492.0,3
1863,2.0,0.0,2.0,1.0,3.0,-2.0,-3.0,-1.0,1651070600703492.0,3
1864,0.0,2.0,0.0,3.0,5.0,4.0,0.0,-1.0,1651070600715459.0,3
1865,-1.0,-7.0,-11.0,-2.0,-2.0,0.0,1.0,-1.0,1651070600715459.0,3
1866,-2.0,-2.0,-3.0,0.0,1.0,0.0,-1.0,0.0,1651070600722441.0,3
1867,-1.0,-4.0,-21.0,-11.0,-5.0,-1.0,1.0,-1.0,1651070600722441.0,3
1868,0.0,0.0,0.0,2.0,-2.0,-1.0,0.0,0.0,1651070600739482.0,3
1869,1.0,4.0,11.0,-3.0,-2.0,-2.0,-2.0,1.0,1651070600739482.0,3
1870,1.0,-1.0,-18.0,0.0,7.0,4.0,-1.0,0.0,1651070600740493.0,3
1871,-2.0,-9.0,-9.0,0.0,-4.0,-7.0,-2.0,-2.0,1651070600740493.0,3
1872,-2.0,-2.0,3.0,-4.0,6.0,5.0,-1.0,1.0,1651070600760573.0,3
1873,-1.0,0.0,9.0,7.0,0.0,0.0,0.0,0.0,1651070600760573.0,3
1874,-1.0,4.0,4.0,-3.0,-9.0,-3.0,-2.0,1.0,1651070600769490.0,3
1875,-2.0,6.0,10.0,0.0,-8.0,1.0,1.0,0.0,1651070600769490.0,3
1876,1.0,-2.0,-23.0,-1.0,5.0,-2.0,1.0,-1.0,1651070600775534.0,3
1877,-1.0,-4.0,11.0,4.0,4.0,2.0,-1.0,-1.0,1651070600775534.0,3
1878,2.0,5.0,-6.0,-9.0,-4.0,-4.0,-2.0,1.0,1651070600782456.0,3
1879,-1.0,-8.0,10.0,4.0,7.0,-2.0,-1.0,0.0,1651070600782456.0,3
1880,1.0,-2.0,2.0,-3.0,-8.0,-1.0,-1.0,-1.0,1651070600799519.0,3
1881,-1.0,1.0,1.0,-2.0,-2.0,-1.0,0.0,-1.0,1651070600799519.0,3
1882,2.0,0.0,2.0,8.0,1.0,4.0,1.0,1.0,1651070600800520.0,3
1883,1.0,1.0,-4.0,-4.0,1.0,2.0,-1.0,-1.0,1651070600800520.0,3
1884,-3.0,-4.0,-10.0,-4.0,-5.0,-1.0,-3.0,-1.0,1651070600821317.0,3
1885,0.0,1.0,0.0,1.0,3.0,-1.0,1.0,1.0,1651070600821317.0,3
1886,-4.0,-3.0,6.0,2.0,-2.0,-1.0,0.0,-2.0,1651070600823312.0,3
1887,0.0,2.0,6.0,0.0,-4.0,0.0,-2.0,0.0,1651070600823312.0,3
1888,-2.0,5.0,-9.0,2.0,-6.0,-4.0,0.0,-1.0,1651070600836320.0,3
1889,-1.0,-5.0,-1.0,-1.0,8.0,3.0,-1.0,-1.0,1651070600836320.0,3
1890,-2.0,-4.0,-2.0,-1.0,0.0,-1.0,-1.0,1.0,1651070600843183.0,3
1891,-1.0,-2.0,2.0,1.0,0.0,5.0,1.0,2.0,1651070600843183.0,3
1892,1.0,4.0,9.0,0.0,0.0,-1.0,0.0,-2.0,1651070600859467.0,3
1893,-1.0,-1.0,7.0,1.0,2.0,2.0,-1.0,-1.0,1651070600859467.0,3
1894,-3.0,-5.0,-4.0,0.0,1.0,-2.0,0.0,-2.0,1651070600860397.0,3
1895,2.0,5.0,7.0,8.0,0.0,-1.0,1.0,-1.0,1651070600860397.0,3
1896,0.0,-2.0,1.0,-15.0,-5.0,-4.0,-1.0,0.0,1651070600881562.0,3
1897,1.0,-1.0,-19.0,-4.0,-7.0,-1.0,0.0,1.0,1651070600881562.0,3
1898,1.0,-2.0,3.0,2.0,6.0,-1.0,-1.0,-1.0,1651070600883580.0,3
1899,-1.0,-2.0,-8.0,2.0,-1.0,-2.0,0.0,0.0,1651070600883580.0,3
1900,0.0,3.0,1.0,-1.0,3.0,1.0,0.0,1.0,1651070600896319.0,3
1901,-1.0,-2.0,5.0,-6.0,-6.0,-1.0,-1.0,-1.0,1651070600896319.0,3
1902,0.0,2.0,-11.0,-2.0,-3.0,1.0,-1.0,-1.0,1651070600902669.0,3
