,EMG_s0,EMG_s1,EMG_s2,EMG_s3,EMG_s4,EMG_s5,EMG_s6,EMG_s7,timestamp,signal
0,0.0,-1.0,-3.0,-1.0,-3.0,-1.0,-3.0,-3.0,1651070439766035.0,0
1,0.0,0.0,-2.0,-1.0,-8.0,-1.0,-1.0,-1.0,1651070439766035.0,0
2,-2.0,1.0,0.0,-1.0,6.0,-1.0,-2.0,-1.0,1651070439781466.0,0
3,-1.0,-7.0,-1.0,3.0,2.0,1.0,1.0,-1.0,1651070439781466.0,0
4,-1.0,-3.0,0.0,-1.0,-2.0,-4.0,2.0,-1.0,1651070439782396.0,0
5,0.0,2.0,1.0,-2.0,-5.0,-1.0,-1.0,-1.0,1651070439782396.0,0
6,0.0,-1.0,0.0,0.0,-6.0,-2.0,-1.0,0.0,1651070439795389.0,0
7,1.0,1.0,-4.0,-2.0,-2.0,-1.0,0.0,-1.0,1651070439795389.0,0
8,1.0,1.0,0.0,3.0,5.0,4.0,1.0,0.0,1651070439803437.0,0
9,-2.0,-1.0,2.0,1.0,1.0,-2.0,1.0,-1.0,1651070439803437.0,0
10,1.0,-1.0,-1.0,-3.0,-2.0,-2.0,0.0,-2.0,1651070439820458.0,0
11,-1.0,0.0,-1.0,-2.0,-3.0,-2.0,-1.0,0.0,1651070439820458.0,0
12,-1.0,-1.0,-2.0,0.0,-2.0,-1.0,-2.0,-3.0,1651070439821460.0,0
13,-2.0,-2.0,-3.0,-2.0,-1.0,-1.0,2.0,1.0,1651070439821460.0,0
14,0.0,1.0,0.0,-3.0,-5.0,-1.0,-2.0,0.0,1651070439841416.0,0
15,-1.0,-1.0,2.0,3.0,9.0,1.0,-3.0,-1.0,1651070439841416.0,0
16,0.0,0.0,4.0,0.0,0.0,1.0,-1.0,0.0,1651070439848466.0,0
17,-3.0,-4.0,-3.0,0.0,2.0,-3.0,-2.0,-3.0,1651070439848466.0,0
18,2.0,-2.0,-1.0,1.0,-3.0,0.0,1.0,-2.0,1651070439855447.0,0
19,1.0,0.0,-3.0,-1.0,1.0,0.0,2.0,-3.0,1651070439855447.0,0
20,-2.0,-2.0,-2.0,-1.0,0.0,-1.0,0.0,2.0,1651070439863425.0,0
21,0.0,0.0,0.0,-2.0,-1.0,-2.0,-1.0,0.0,1651070439863425.0,0
22,0.0,-4.0,1.0,-2.0,-6.0,-3.0,0.0,-1.0,1651070439878366.0,0
23,-1.0,2.0,-1.0,2.0,5.0,-1.0,0.0,-2.0,1651070439878366.0,0
24,0.0,-1.0,3.0,3.0,1.0,1.0,1.0,2.0,1651070439879319.0,0
25,1.0,3.0,-3.0,1.0,3.0,2.0,0.0,-1.0,1651070439879319.0,0
26,-1.0,-3.0,1.0,2.0,2.0,0.0,-1.0,-2.0,1651070439901612.0,0
27,0.0,0.0,1.0,-2.0,-4.0,-1.0,-3.0,0.0,1651070439901612.0,0
28,-1.0,0.0,-2.0,-3.0,-3.0,0.0,0.0,-2.0,1651070439901612.0,0
29,1.0,3.0,-2.0,-3.0,-2.0,-3.0,1.0,-1.0,1651070439901612.0,0
30,-1.0,2.0,-2.0,-1.0,2.0,0.0,0.0,-1.0,1651070439915360.0,0
31,0.0,-5.0,0.0,-2.0,-2.0,-1.0,0.0,-2.0,1651070439915360.0,0
32,-1.0,-2.0,-1.0,-2.0,-10.0,-7.0,-3.0,-1.0,1651070439923501.0,0
33,-2.0,-5.0,-2.0,-1.0,4.0,1.0,-2.0,0.0,1651070439923501.0,0
34,-1.0,1.0,-1.0,1.0,-3.0,2.0,0.0,0.0,1651070439938695.0,0
35,-2.0,-1.0,2.0,1.0,10.0,6.0,2.0,0.0,1651070439938695.0,0
36,0.0,0.0,-2.0,-2.0,3.0,0.0,0.0,-1.0,1651070439939695.0,0
37,0.0,1.0,-1.0,0.0,-9.0,-4.0,-2.0,-3.0,1651070439939695.0,0
38,1.0,0.0,0.0,0.0,0.0,-5.0,-1.0,-1.0,1651070439961642.0,0
39,0.0,-1.0,-3.0,-2.0,-6.0,-3.0,-2.0,-1.0,1651070439961642.0,0
40,-1.0,-1.0,-1.0,-1.0,-2.0,-2.0,-2.0,-2.0,1651070439961642.0,0
41,1.0,2.0,2.0,-2.0,0.0,1.0,1.0,1.0,1651070439961642.0,0
42,-2.0,0.0,-1.0,-1.0,2.0,1.0,1.0,0.0,1651070439975385.0,0
43,2.0,1.0,0.0,0.0,-1.0,0.0,2.0,2.0,1651070439975385.0,0
44,0.0,-2.0,-2.0,0.0,4.0,0.0,0.0,-1.0,1651070439983446.0,0
45,0.0,-4.0,-2.0,-2.0,-13.0,-4.0,-3.0,-2.0,1651070439983446.0,0
46,-1.0,-4.0,-2.0,5.0,16.0,8.0,0.0,-2.0,1651070439998383.0,0
47,-2.0,0.0,1.0,0.0,-4.0,-1.0,-3.0,-1.0,1651070439998383.0,0
48,-2.0,0.0,-2.0,-1.0,-1.0,0.0,-2.0,0.0,1651070439999313.0,0
49,1.0,-1.0,1.0,-1.0,8.0,0.0,1.0,0.0,1651070439999313.0,0
50,0.0,0.0,1.0,-1.0,-1.0,0.0,1.0,1.0,1651070440021376.0,0
51,-1.0,0.0,2.0,0.0,1.0,1.0,0.0,-1.0,1651070440021376.0,0
52,0.0,2.0,0.0,3.0,0.0,2.0,-1.0,-1.0,1651070440022372.0,0
53,-2.0,-2.0,-1.0,-3.0,-5.0,-4.0,-2.0,-1.0,1651070440022372.0,0
54,-2.0,-1.0,-2.0,-1.0,-3.0,-3.0,1.0,-1.0,1651070440044112.0,0
55,1.0,0.0,1.0,1.0,1.0,2.0,1.0,-1.0,1651070440044112.0,0
56,0.0,-1.0,0.0,-1.0,-2.0,-1.0,0.0,0.0,1651070440044394.0,0
57,-1.0,-1.0,1.0,-3.0,-4.0,-2.0,0.0,-1.0,1651070440044394.0,0
58,0.0,0.0,0.0,0.0,10.0,3.0,1.0,1.0,1651070440058418.0,0
59,-1.0,0.0,-2.0,-1.0,-5.0,-3.0,-2.0,1.0,1651070440058418.0,0
60,0.0,-2.0,-2.0,0.0,-1.0,0.0,-1.0,-1.0,1651070440059356.0,0
61,-1.0,0.0,-2.0,1.0,1.0,-1.0,0.0,-1.0,1651070440059356.0,0
62,-1.0,-2.0,0.0,-3.0,-4.0,-2.0,-1.0,-1.0,1651070440081486.0,0
63,0.0,1.0,0.0,-2.0,-9.0,-3.0,0.0,-2.0,1651070440081486.0,0
64,1.0,2.0,0.0,1.0,6.0,5.0,1.0,-1.0,1651070440081486.0,0
65,-2.0,-1.0,1.0,0.0,4.0,1.0,-2.0,-1.0,1651070440081486.0,0
66,1.0,0.0,0.0,-1.0,-2.0,-4.0,-3.0,1.0,1651070440104175.0,0
67,-2.0,-1.0,-2.0,-3.0,-5.0,-5.0,0.0,-2.0,1651070440104175.0,0
68,-1.0,0.0,0.0,-2.0,-4.0,-2.0,1.0,1.0,1651070440104175.0,0
69,0.0,-1.0,0.0,-1.0,2.0,1.0,1.0,0.0,1651070440104175.0,0
70,0.0,0.0,-1.0,0.0,4.0,1.0,0.0,2.0,1651070440118357.0,0
71,0.0,-1.0,-2.0,1.0,1.0,2.0,-1.0,-1.0,1651070440118357.0,0
72,-1.0,-1.0,-2.0,0.0,-3.0,0.0,0.0,-2.0,1651070440119354.0,0
73,2.0,1.0,-1.0,-2.0,-4.0,1.0,0.0,0.0,1651070440119354.0,0
74,0.0,0.0,-1.0,-1.0,-4.0,-1.0,-2.0,-1.0,1651070440141640.0,0
75,1.0,-2.0,-2.0,0.0,0.0,-1.0,0.0,-3.0,1651070440141640.0,0
76,-2.0,-1.0,0.0,-3.0,-2.0,-2.0,1.0,-3.0,1651070440141640.0,0
77,-1.0,-2.0,0.0,1.0,2.0,2.0,1.0,0.0,1651070440141640.0,0
78,-1.0,0.0,-2.0,-3.0,-6.0,-1.0,-2.0,-1.0,1651070440164112.0,0
79,0.0,-1.0,0.0,1.0,2.0,-2.0,0.0,0.0,1651070440164112.0,0
80,-2.0,1.0,-3.0,-1.0,2.0,-1.0,-2.0,2.0,1651070440164588.0,0
81,0.0,1.0,0.0,-2.0,-3.0,2.0,-1.0,1.0,1651070440164588.0,0
82,-1.0,1.0,-3.0,-2.0,4.0,-1.0,1.0,-1.0,1651070440186525.0,0
83,-2.0,-1.0,-2.0,-3.0,-11.0,-3.0,-1.0,0.0,1651070440186525.0,0
84,-1.0,-2.0,1.0,4.0,11.0,4.0,0.0,-1.0,1651070440187458.0,0
85,0.0,1.0,0.0,1.0,2.0,1.0,-2.0,0.0,1651070440187458.0,0
86,-1.0,0.0,2.0,0.0,1.0,0.0,1.0,-1.0,1651070440200487.0,0
87,0.0,1.0,1.0,0.0,0.0,0.0,1.0,0.0,1651070440200487.0,0
88,0.0,-1.0,-1.0,-3.0,-9.0,-3.0,2.0,-1.0,1651070440208466.0,0
89,-2.0,1.0,-1.0,0.0,-5.0,-1.0,-2.0,-1.0,1651070440208466.0,0
90,1.0,-1.0,0.0,1.0,-4.0,-3.0,-1.0,-2.0,1651070440223342.0,0
91,-1.0,-1.0,-2.0,0.0,4.0,0.0,-2.0,0.0,1651070440223342.0,0
92,2.0,4.0,0.0,-2.0,-1.0,0.0,1.0,0.0,1651070440224340.0,0
93,1.0,-2.0,-1.0,1.0,2.0,-2.0,-2.0,-1.0,1651070440224340.0,0
94,-2.0,2.0,-1.0,-3.0,-7.0,-1.0,-2.0,1.0,1651070440246458.0,0
95,-2.0,-3.0,-1.0,1.0,-4.0,-5.0,-1.0,-1.0,1651070440246458.0,0
96,-1.0,0.0,0.0,-2.0,6.0,6.0,0.0,0.0,1651070440247464.0,0
97,-3.0,-1.0,-4.0,-1.0,-2.0,0.0,0.0,-2.0,1651070440247464.0,0
98,0.0,-1.0,2.0,0.0,-1.0,-1.0,1.0,0.0,1651070440260610.0,0
99,2.0,0.0,-1.0,-1.0,2.0,1.0,1.0,-2.0,1651070440260610.0,0
100,-1.0,-2.0,1.0,-2.0,-9.0,-8.0,-3.0,0.0,1651070440268589.0,0
101,-2.0,-3.0,-1.0,-2.0,1.0,-2.0,0.0,0.0,1651070440268589.0,0
102,-2.0,0.0,0.0,2.0,6.0,1.0,0.0,-2.0,1651070440283549.0,0
103,1.0,-1.0,-1.0,-2.0,-1.0,1.0,-1.0,0.0,1651070440283549.0,0
104,1.0,-1.0,0.0,3.0,0.0,-1.0,-1.0,-2.0,1651070440291527.0,0
105,-2.0,0.0,0.0,0.0,-4.0,0.0,-1.0,-1.0,1651070440291527.0,0
106,0.0,1.0,-1.0,-4.0,-5.0,0.0,-2.0,2.0,1651070440306687.0,0
107,-1.0,-2.0,2.0,2.0,-2.0,0.0,-1.0,0.0,1651070440306687.0,0
108,-2.0,-3.0,-3.0,4.0,9.0,5.0,1.0,0.0,1651070440307640.0,0
109,0.0,0.0,-2.0,0.0,-2.0,-3.0,-1.0,-1.0,1651070440307640.0,0
110,1.0,-3.0,0.0,1.0,3.0,1.0,0.0,0.0,1651070440321077.0,0
111,-1.0,1.0,-3.0,0.0,2.0,-1.0,0.0,-2.0,1651070440321077.0,0
112,-2.0,-3.0,-1.0,-3.0,-7.0,-6.0,-2.0,-1.0,1651070440329122.0,0
113,-1.0,-1.0,0.0,-1.0,0.0,0.0,2.0,-1.0,1651070440329122.0,0
114,1.0,-2.0,-1.0,0.0,0.0,0.0,1.0,-1.0,1651070440343488.0,0
115,-2.0,-2.0,-3.0,1.0,3.0,1.0,1.0,-1.0,1651070440343488.0,0
116,0.0,0.0,-2.0,-3.0,-4.0,-3.0,0.0,-1.0,1651070440344488.0,0
117,-1.0,0.0,-4.0,0.0,11.0,-3.0,-2.0,-1.0,1651070440344488.0,0
118,0.0,0.0,0.0,1.0,1.0,4.0,0.0,0.0,1651070440367385.0,0
119,0.0,0.0,3.0,-1.0,-2.0,-2.0,1.0,1.0,1651070440367385.0,0
120,-1.0,-3.0,-1.0,0.0,-2.0,-3.0,-1.0,-2.0,1651070440367385.0,0
121,1.0,-1.0,1.0,-3.0,-2.0,3.0,0.0,1.0,1651070440367385.0,0
122,-1.0,-2.0,-2.0,0.0,6.0,6.0,-1.0,0.0,1651070440380339.0,0
123,-1.0,1.0,-1.0,1.0,4.0,4.0,2.0,0.0,1651070440380339.0,0
124,1.0,0.0,-1.0,-1.0,-8.0,-3.0,-4.0,0.0,1651070440388383.0,0
125,-3.0,-6.0,-4.0,3.0,-3.0,-2.0,0.0,-2.0,1651070440388383.0,0
126,-1.0,-3.0,11.0,3.0,4.0,-1.0,1.0,0.0,1651070440403411.0,0
127,-2.0,-5.0,-7.0,2.0,7.0,0.0,-2.0,0.0,1651070440403411.0,0
128,1.0,3.0,2.0,2.0,0.0,2.0,1.0,-2.0,1651070440404342.0,0
129,2.0,5.0,-2.0,-3.0,-1.0,-2.0,2.0,-1.0,1651070440404342.0,0
130,-1.0,0.0,-1.0,-3.0,-12.0,-8.0,-3.0,-2.0,1651070440426504.0,0
131,-4.0,-2.0,-3.0,0.0,-2.0,0.0,0.0,0.0,1651070440426504.0,0
132,-1.0,-4.0,-1.0,2.0,4.0,2.0,0.0,0.0,1651070440427434.0,0
133,2.0,3.0,-1.0,-2.0,-2.0,1.0,-2.0,-1.0,1651070440427434.0,0
134,1.0,1.0,-4.0,-6.0,-3.0,-2.0,-2.0,-2.0,1651070440440939.0,0
135,0.0,2.0,0.0,-5.0,-5.0,-4.0,-4.0,1.0,1651070440440939.0,0
136,0.0,4.0,-1.0,0.0,1.0,-3.0,-1.0,0.0,1651070440449197.0,0
137,-2.0,-5.0,8.0,3.0,1.0,2.0,0.0,1.0,1651070440449197.0,0
138,-3.0,-2.0,-1.0,-4.0,-2.0,-1.0,1.0,0.0,1651070440464222.0,0
139,2.0,-6.0,-6.0,1.0,-1.0,-2.0,0.0,-1.0,1651070440464222.0,0
140,-2.0,-7.0,-5.0,0.0,0.0,1.0,-2.0,-2.0,1651070440464222.0,0
141,1.0,-3.0,1.0,2.0,1.0,2.0,1.0,-2.0,1651070440464222.0,0
142,0.0,-1.0,1.0,4.0,-3.0,-3.0,-2.0,-2.0,1651070440487566.0,0
143,1.0,5.0,2.0,-1.0,2.0,2.0,0.0,-1.0,1651070440487566.0,0
144,-1.0,1.0,-1.0,-3.0,-3.0,-1.0,-1.0,1.0,1651070440488544.0,0
145,-1.0,-2.0,2.0,3.0,-5.0,-1.0,-2.0,-1.0,1651070440488544.0,0
146,-1.0,-1.0,-3.0,-1.0,0.0,-1.0,3.0,0.0,1651070440509421.0,0
147,0.0,-1.0,-2.0,6.0,7.0,3.0,2.0,1.0,1651070440509421.0,0
148,1.0,1.0,0.0,-1.0,0.0,3.0,-1.0,0.0,1651070440510351.0,0
149,0.0,1.0,-9.0,-8.0,0.0,-3.0,-3.0,-1.0,1651070440510351.0,0
150,2.0,7.0,1.0,-4.0,-8.0,-1.0,0.0,1.0,1651070440524147.0,0
151,0.0,2.0,6.0,-3.0,-6.0,0.0,-1.0,-1.0,1651070440524147.0,0
152,-4.0,-3.0,-4.0,-7.0,0.0,-2.0,0.0,-2.0,1651070440524147.0,0
153,0.0,0.0,1.0,1.0,-2.0,-1.0,1.0,-1.0,1651070440524147.0,0
154,0.0,-1.0,-2.0,4.0,3.0,-1.0,-1.0,-2.0,1651070440546409.0,0
155,0.0,4.0,9.0,2.0,-3.0,-3.0,-2.0,-3.0,1651070440546409.0,0
156,-2.0,-5.0,-5.0,0.0,4.0,2.0,1.0,-1.0,1651070440547412.0,0
157,2.0,2.0,-3.0,-3.0,-1.0,-2.0,1.0,0.0,1651070440547412.0,0
158,1.0,-3.0,0.0,2.0,1.0,1.0,0.0,-1.0,1651070440569409.0,0
159,1.0,1.0,1.0,2.0,1.0,-2.0,-1.0,0.0,1651070440569409.0,0
160,0.0,1.0,2.0,-2.0,5.0,2.0,-1.0,1.0,1651070440570339.0,0
161,-3.0,0.0,-2.0,2.0,1.0,-3.0,1.0,0.0,1651070440570339.0,0
162,-1.0,-1.0,-3.0,2.0,-3.0,-1.0,-1.0,1.0,1651070440583371.0,0
163,-1.0,-2.0,0.0,-3.0,-11.0,-2.0,0.0,-1.0,1651070440583371.0,0
164,1.0,0.0,-2.0,-1.0,11.0,3.0,0.0,0.0,1651070440584301.0,0
165,0.0,2.0,4.0,0.0,4.0,2.0,-2.0,0.0,1651070440584301.0,0
166,0.0,-1.0,-1.0,3.0,-4.0,1.0,-1.0,-3.0,1651070440607239.0,0
167,-2.0,0.0,-2.0,-2.0,-4.0,-2.0,0.0,2.0,1651070440607239.0,0
168,0.0,4.0,1.0,1.0,-8.0,-4.0,-1.0,-1.0,1651070440607239.0,0
169,0.0,1.0,1.0,-2.0,-2.0,-1.0,0.0,-1.0,1651070440607239.0,0
170,-3.0,-1.0,-3.0,-2.0,1.0,-1.0,1.0,2.0,1651070440629248.0,0
171,-1.0,-1.0,-1.0,-6.0,-5.0,-3.0,-4.0,0.0,1651070440629248.0,0
172,3.0,2.0,8.0,17.0,5.0,0.0,1.0,1.0,1651070440630178.0,0
173,-1.0,-2.0,0.0,-1.0,0.0,1.0,-2.0,0.0,1651070440630178.0,0
174,-2.0,-3.0,-6.0,-12.0,-2.0,-2.0,-1.0,-2.0,1651070440643425.0,0
175,-1.0,-4.0,-12.0,-17.0,-2.0,-1.0,-1.0,-1.0,1651070440643425.0,0
176,1.0,0.0,0.0,-7.0,-14.0,-4.0,0.0,-1.0,1651070440644362.0,0
177,0.0,-2.0,5.0,8.0,13.0,8.0,2.0,1.0,1651070440644362.0,0
178,2.0,1.0,6.0,8.0,8.0,3.0,1.0,-1.0,1651070440666669.0,0
179,1.0,4.0,2.0,3.0,5.0,2.0,-1.0,-2.0,1651070440666669.0,0
180,0.0,0.0,1.0,-4.0,-13.0,-7.0,-2.0,1.0,1651070440667679.0,0
181,-1.0,-5.0,-9.0,-2.0,-8.0,-8.0,-1.0,-1.0,1651070440667679.0,0
182,-2.0,-5.0,-1.0,-5.0,0.0,3.0,0.0,0.0,1651070440689840.0,0
183,-1.0,0.0,1.0,5.0,8.0,1.0,-1.0,0.0,1651070440689840.0,0
184,0.0,-1.0,0.0,4.0,5.0,4.0,2.0,0.0,1651070440689840.0,0
185,0.0,2.0,5.0,0.0,-2.0,0.0,0.0,-1.0,1651070440689840.0,0
186,-1.0,2.0,1.0,9.0,-2.0,-4.0,-1.0,-2.0,1651070440703786.0,0
187,-1.0,2.0,-7.0,-14.0,-9.0,-3.0,0.0,-2.0,1651070440703786.0,0
188,-2.0,-3.0,2.0,-5.0,-1.0,0.0,0.0,1.0,1651070440704715.0,0
189,1.0,4.0,-20.0,12.0,4.0,1.0,-2.0,2.0,1651070440704715.0,0
190,11.0,-1.0,22.0,-12.0,6.0,3.0,0.0,-1.0,1651070440726713.0,0
191,-36.0,-32.0,-8.0,9.0,-13.0,-9.0,-1.0,-2.0,1651070440726713.0,0
192,-1.0,-7.0,4.0,8.0,-5.0,-5.0,-4.0,0.0,1651070440727644.0,1
193,-2.0,-1.0,-3.0,-26.0,-2.0,-2.0,-1.0,-1.0,1651070440727644.0,1
194,-9.0,11.0,10.0,30.0,11.0,5.0,-1.0,-2.0,1651070440749652.0,1
195,16.0,20.0,24.0,20.0,9.0,6.0,2.0,3.0,1651070440749652.0,1
196,2.0,-4.0,3.0,-9.0,-6.0,-1.0,1.0,2.0,1651070440750583.0,1
197,-3.0,-19.0,-43.0,-28.0,-7.0,-3.0,-1.0,-1.0,1651070440750583.0,1
198,4.0,-6.0,-26.0,-9.0,-3.0,-2.0,0.0,1.0,1651070440764580.0,1
199,4.0,8.0,9.0,-3.0,0.0,1.0,1.0,-5.0,1651070440764580.0,1
200,-3.0,9.0,9.0,20.0,5.0,3.0,1.0,-1.0,1651070440764580.0,1
201,5.0,11.0,42.0,8.0,-2.0,1.0,0.0,1.0,1651070440764580.0,1
202,-6.0,-8.0,-9.0,-16.0,-1.0,-3.0,0.0,-1.0,1651070440786521.0,1
203,2.0,-3.0,-19.0,1.0,-3.0,-2.0,-1.0,0.0,1651070440786521.0,1
204,-1.0,5.0,-2.0,-2.0,2.0,-1.0,-2.0,-4.0,1651070440787518.0,1
205,-1.0,3.0,6.0,12.0,-1.0,-2.0,0.0,-2.0,1651070440787518.0,1
206,-2.0,-6.0,9.0,-8.0,2.0,3.0,0.0,-2.0,1651070440809527.0,1
207,6.0,18.0,5.0,2.0,-5.0,-1.0,1.0,3.0,1651070440809527.0,1
208,10.0,-24.0,-2.0,15.0,17.0,8.0,-1.0,-2.0,1651070440810176.0,1
209,-57.0,-33.0,-18.0,7.0,-8.0,-9.0,-4.0,-3.0,1651070440810176.0,1
210,24.0,4.0,-42.0,-51.0,-30.0,-12.0,-3.0,8.0,1651070440824152.0,1
211,-5.0,-8.0,-15.0,-27.0,0.0,-1.0,0.0,-7.0,1651070440824152.0,1
212,-8.0,15.0,-5.0,-13.0,-3.0,1.0,2.0,-3.0,1651070440824152.0,1
213,7.0,11.0,20.0,15.0,6.0,4.0,2.0,-3.0,1651070440824152.0,1
214,-6.0,-1.0,7.0,9.0,-5.0,-2.0,0.0,-1.0,1651070440846812.0,1
215,35.0,28.0,86.0,8.0,12.0,8.0,2.0,5.0,1651070440846812.0,1
216,-49.0,-48.0,-87.0,-25.0,-10.0,-7.0,-7.0,1.0,1651070440847782.0,1
217,28.0,17.0,32.0,11.0,5.0,0.0,0.0,3.0,1651070440847782.0,1
218,30.0,-1.0,-82.0,2.0,4.0,-2.0,-1.0,-7.0,1651070440868843.0,1
219,-29.0,4.0,50.0,8.0,0.0,1.0,-1.0,1.0,1651070440868843.0,1
220,-26.0,12.0,11.0,3.0,2.0,-4.0,-4.0,-6.0,1651070440869843.0,1
221,25.0,13.0,18.0,-3.0,1.0,4.0,4.0,13.0,1651070440869843.0,1
222,-18.0,8.0,84.0,1.0,-10.0,-7.0,-5.0,-7.0,1651070440884135.0,1
223,-12.0,-12.0,-77.0,-15.0,-5.0,-2.0,-1.0,0.0,1651070440884135.0,1
224,27.0,23.0,30.0,13.0,11.0,2.0,0.0,0.0,1651070440884887.0,1
225,5.0,-8.0,-29.0,-18.0,-9.0,-1.0,1.0,-3.0,1651070440884887.0,1
226,31.0,23.0,12.0,-2.0,0.0,2.0,0.0,1.0,1651070440907385.0,1
227,-4.0,-17.0,-6.0,23.0,11.0,3.0,-1.0,0.0,1651070440907385.0,1
228,4.0,1.0,3.0,-33.0,-13.0,-4.0,-1.0,3.0,1651070440907385.0,1
229,-62.0,11.0,-1.0,26.0,2.0,-5.0,-7.0,-20.0,1651070440907385.0,1
230,38.0,-9.0,-5.0,7.0,3.0,0.0,3.0,17.0,1651070440929481.0,1
231,-23.0,-19.0,-20.0,-9.0,0.0,-5.0,-4.0,-13.0,1651070440929481.0,1
232,23.0,18.0,0.0,-9.0,-1.0,2.0,0.0,3.0,1651070440930410.0,1
233,13.0,0.0,-12.0,-17.0,-7.0,3.0,2.0,2.0,1651070440930410.0,1
234,-35.0,-8.0,0.0,15.0,6.0,4.0,0.0,-8.0,1651070440943442.0,1
235,5.0,20.0,24.0,9.0,1.0,2.0,1.0,3.0,1651070440943442.0,1
236,5.0,-8.0,34.0,-7.0,-13.0,-8.0,0.0,1.0,1651070440944383.0,1
237,-5.0,4.0,-47.0,-12.0,2.0,-1.0,-4.0,-6.0,1651070440944383.0,1
238,-22.0,-18.0,-15.0,-3.0,-5.0,-5.0,-9.0,-10.0,1651070440966384.0,1
239,18.0,70.0,3.0,17.0,8.0,7.0,2.0,2.0,1651070440966384.0,1
240,21.0,-72.0,51.0,22.0,17.0,11.0,14.0,17.0,1651070440967312.0,1
241,-47.0,26.0,6.0,21.0,-9.0,-15.0,-20.0,-27.0,1651070440967312.0,1
242,13.0,-38.0,65.0,-23.0,-1.0,0.0,6.0,18.0,1651070440989432.0,1
243,30.0,-13.0,-35.0,-8.0,-7.0,-9.0,5.0,16.0,1651070440989432.0,1
244,-15.0,-36.0,-6.0,13.0,2.0,3.0,4.0,-2.0,1651070440990430.0,1
245,18.0,19.0,-12.0,12.0,23.0,7.0,9.0,18.0,1651070440990430.0,1
246,-14.0,24.0,32.0,15.0,1.0,0.0,-4.0,-10.0,1651070441003841.0,1
247,31.0,8.0,-5.0,2.0,-7.0,-6.0,-10.0,-16.0,1651070441003841.0,1
248,-60.0,28.0,-31.0,-45.0,-13.0,-5.0,-1.0,-6.0,1651070441004873.0,1
249,13.0,-35.0,47.0,14.0,11.0,7.0,3.0,2.0,1651070441004873.0,1
250,-30.0,-28.0,-57.0,16.0,-5.0,-4.0,-6.0,-9.0,1651070441025850.0,1
251,13.0,-20.0,1.0,-7.0,-3.0,1.0,3.0,8.0,1651070441025850.0,1
252,4.0,15.0,3.0,24.0,7.0,2.0,0.0,-3.0,1651070441026791.0,1
253,20.0,18.0,17.0,-6.0,1.0,5.0,2.0,2.0,1651070441026791.0,1
254,1.0,11.0,-25.0,-12.0,-1.0,2.0,3.0,3.0,1651070441049822.0,1
255,-19.0,-16.0,48.0,-26.0,-13.0,-9.0,-9.0,-8.0,1651070441049822.0,1
256,-46.0,-36.0,-35.0,26.0,8.0,0.0,-13.0,-25.0,1651070441049822.0,1
257,38.0,-41.0,17.0,9.0,8.0,10.0,11.0,22.0,1651070441049822.0,1
258,23.0,12.0,-23.0,-3.0,-6.0,-4.0,8.0,17.0,1651070441063824.0,1
259,-6.0,-8.0,16.0,21.0,15.0,6.0,4.0,2.0,1651070441063824.0,1
260,29.0,53.0,34.0,0.0,1.0,2.0,1.0,3.0,1651070441064854.0,1
261,-22.0,-36.0,-68.0,-66.0,-42.0,-17.0,-11.0,-12.0,1651070441064854.0,1
262,77.0,35.0,15.0,-11.0,0.0,3.0,-2.0,-2.0,1651070441086429.0,1
263,-39.0,-8.0,-10.0,-1.0,5.0,4.0,5.0,6.0,1651070441086429.0,1
264,9.0,0.0,-15.0,26.0,2.0,-5.0,-5.0,-1.0,1651070441087357.0,1
265,-20.0,9.0,31.0,7.0,9.0,4.0,1.0,4.0,1651070441087357.0,1
266,12.0,4.0,24.0,21.0,2.0,0.0,-1.0,-2.0,1651070441109537.0,1
267,-50.0,-10.0,-25.0,-7.0,-2.0,2.0,0.0,-8.0,1651070441109537.0,1
268,30.0,14.0,-7.0,-31.0,-12.0,-3.0,1.0,8.0,1651070441110475.0,1
269,27.0,4.0,-8.0,7.0,-4.0,-6.0,-1.0,1.0,1651070441110475.0,1
270,-39.0,-14.0,7.0,7.0,7.0,2.0,2.0,-2.0,1651070441123460.0,1
271,38.0,-19.0,-13.0,-21.0,-16.0,-7.0,-6.0,-2.0,1651070441123460.0,1
272,4.0,27.0,14.0,15.0,5.0,4.0,2.0,2.0,1651070441131454.0,1
273,-12.0,-16.0,-17.0,-21.0,-9.0,-6.0,-4.0,-12.0,1651070441131454.0,1
274,-33.0,-8.0,20.0,1.0,-4.0,0.0,-1.0,6.0,1651070441146443.0,1
275,35.0,5.0,-80.0,2.0,-1.0,-4.0,-5.0,-6.0,1651070441146443.0,1
276,32.0,6.0,-4.0,-21.0,-7.0,0.0,1.0,6.0,1651070441147373.0,1
277,8.0,12.0,8.0,6.0,-1.0,0.0,4.0,3.0,1651070441147373.0,1
278,-28.0,-3.0,13.0,13.0,7.0,2.0,-1.0,-6.0,1651070441169254.0,1
279,-9.0,-4.0,1.0,-14.0,-9.0,-7.0,-3.0,-4.0,1651070441169254.0,1
280,5.0,5.0,4.0,-1.0,-3.0,2.0,0.0,0.0,1651070441170261.0,1
281,-1.0,-12.0,-21.0,6.0,-3.0,-3.0,-4.0,-4.0,1651070441170261.0,1
282,-10.0,2.0,1.0,-12.0,3.0,-2.0,-1.0,-2.0,1651070441183496.0,1
283,18.0,15.0,22.0,5.0,-2.0,0.0,0.0,3.0,1651070441183496.0,1
284,-44.0,-20.0,-18.0,-20.0,-3.0,-3.0,-6.0,-6.0,1651070441191536.0,1
285,9.0,15.0,54.0,20.0,10.0,5.0,3.0,6.0,1651070441191536.0,1
286,-4.0,-12.0,-73.0,-18.0,-7.0,-3.0,0.0,-1.0,1651070441206650.0,1
287,-45.0,-25.0,19.0,0.0,-5.0,-3.0,0.0,-5.0,1651070441206650.0,1
288,11.0,10.0,-1.0,15.0,5.0,2.0,-1.0,0.0,1651070441207579.0,1
289,1.0,9.0,10.0,-2.0,6.0,2.0,0.0,3.0,1651070441207579.0,1
290,7.0,29.0,49.0,8.0,-2.0,-1.0,0.0,1.0,1651070441229785.0,1
291,13.0,-15.0,-56.0,-3.0,7.0,6.0,6.0,8.0,1651070441229785.0,1
292,9.0,5.0,17.0,15.0,3.0,-2.0,-1.0,-1.0,1651070441229785.0,1
293,-21.0,0.0,-23.0,-7.0,-3.0,-5.0,-5.0,-2.0,1651070441229785.0,1
294,36.0,28.0,30.0,16.0,15.0,5.0,0.0,0.0,1651070441242748.0,1
295,-51.0,-30.0,-4.0,-11.0,-13.0,-3.0,-2.0,2.0,1651070441242748.0,1
296,3.0,9.0,7.0,-13.0,-11.0,-4.0,0.0,-5.0,1651070441251700.0,1
297,7.0,9.0,-11.0,-8.0,-4.0,-3.0,-1.0,-6.0,1651070441251700.0,1
298,-13.0,-10.0,21.0,24.0,5.0,1.0,-1.0,4.0,1651070441266684.0,1
299,10.0,8.0,8.0,-10.0,2.0,2.0,1.0,-3.0,1651070441266684.0,1
300,-34.0,-3.0,0.0,9.0,2.0,2.0,2.0,4.0,1651070441267614.0,1
301,-1.0,-14.0,2.0,-5.0,1.0,3.0,3.0,2.0,1651070441267614.0,1
302,-10.0,-11.0,-28.0,-15.0,-11.0,-6.0,-4.0,-6.0,1651070441289737.0,1
303,0.0,-1.0,-3.0,9.0,4.0,2.0,1.0,3.0,1651070441289737.0,1
304,-6.0,10.0,34.0,12.0,6.0,-1.0,2.0,0.0,1651070441289737.0,1
305,-6.0,2.0,-3.0,16.0,4.0,-1.0,1.0,-2.0,1651070441289737.0,1
306,-21.0,-6.0,18.0,-4.0,0.0,2.0,-2.0,-4.0,1651070441302751.0,1
307,25.0,15.0,-16.0,-4.0,2.0,-2.0,-5.0,0.0,1651070441302751.0,1
308,19.0,0.0,-17.0,-7.0,-1.0,-1.0,-1.0,1.0,1651070441310852.0,1
309,13.0,-13.0,-7.0,-2.0,-9.0,1.0,-2.0,-2.0,1651070441310852.0,1
310,-10.0,-10.0,-15.0,2.0,0.0,-1.0,0.0,0.0,1651070441327359.0,1
311,0.0,5.0,28.0,2.0,2.0,2.0,1.0,0.0,1651070441327359.0,1
312,4.0,-9.0,-1.0,4.0,3.0,1.0,2.0,0.0,1651070441327359.0,1
313,3.0,-5.0,-18.0,-11.0,-4.0,-2.0,1.0,2.0,1651070441327359.0,1
314,5.0,1.0,-33.0,-19.0,-6.0,-3.0,-3.0,-7.0,1651070441349366.0,1
315,-52.0,-9.0,13.0,29.0,5.0,0.0,-3.0,-4.0,1651070441349366.0,1
316,5.0,-19.0,-16.0,-30.0,-12.0,-5.0,-4.0,-3.0,1651070441350304.0,1
317,4.0,13.0,20.0,4.0,6.0,5.0,1.0,2.0,1651070441350304.0,1
318,35.0,4.0,-2.0,-20.0,-8.0,-3.0,1.0,1.0,1651070441363504.0,1
319,-9.0,10.0,13.0,29.0,5.0,-1.0,-1.0,1.0,1651070441363504.0,1
320,2.0,-4.0,-48.0,-34.0,-8.0,-6.0,-2.0,0.0,1651070441371512.0,1
321,-1.0,12.0,3.0,-4.0,-5.0,-2.0,-2.0,-1.0,1651070441371512.0,1
322,-13.0,7.0,15.0,10.0,7.0,5.0,2.0,-2.0,1651070441387447.0,1
323,28.0,-2.0,11.0,-4.0,0.0,3.0,1.0,1.0,1651070441387447.0,1
324,4.0,1.0,13.0,11.0,0.0,-1.0,-3.0,-11.0,1651070441388439.0,1
325,28.0,7.0,-18.0,-11.0,-2.0,-2.0,2.0,10.0,1651070441388439.0,1
326,-6.0,5.0,-11.0,0.0,2.0,0.0,2.0,1.0,1651070441409843.0,1
327,11.0,4.0,12.0,19.0,5.0,1.0,1.0,-1.0,1651070441409843.0,1
328,0.0,6.0,1.0,12.0,4.0,1.0,1.0,2.0,1651070441409843.0,1
329,-6.0,-3.0,15.0,-10.0,-2.0,-3.0,-4.0,-7.0,1651070441409843.0,1
330,-11.0,-6.0,4.0,11.0,2.0,1.0,0.0,0.0,1651070441422879.0,1
331,-5.0,-10.0,-20.0,-31.0,-12.0,-3.0,-2.0,1.0,1651070441422879.0,1
332,29.0,14.0,5.0,5.0,2.0,-1.0,-1.0,0.0,1651070441431395.0,1
333,-23.0,-3.0,11.0,14.0,3.0,0.0,2.0,0.0,1651070441431395.0,1
334,-6.0,-3.0,-10.0,4.0,3.0,3.0,-1.0,-1.0,1651070441446525.0,1
335,10.0,8.0,9.0,-12.0,3.0,0.0,1.0,-5.0,1651070441446525.0,1
336,74.0,-6.0,-41.0,-4.0,-7.0,-1.0,-2.0,2.0,1651070441446525.0,1
337,-19.0,2.0,24.0,-3.0,-1.0,-2.0,-2.0,-2.0,1651070441446525.0,1
338,1.0,-7.0,-5.0,4.0,1.0,-4.0,1.0,2.0,1651070441469550.0,1
339,5.0,10.0,8.0,-2.0,-2.0,-3.0,1.0,0.0,1651070441469550.0,1
340,-15.0,-8.0,7.0,-4.0,-5.0,-2.0,0.0,1.0,1651070441470521.0,1
341,4.0,5.0,-20.0,-16.0,-4.0,1.0,3.0,0.0,1651070441470521.0,1
342,-13.0,-9.0,18.0,10.0,4.0,1.0,-2.0,-1.0,1651070441491617.0,1
343,26.0,15.0,32.0,10.0,2.0,1.0,-2.0,1.0,1651070441491617.0,1
344,11.0,-3.0,3.0,-1.0,-4.0,-4.0,-3.0,-1.0,1651070441492547.0,1
345,-7.0,-11.0,-23.0,-4.0,2.0,1.0,0.0,4.0,1651070441492547.0,1
346,-11.0,3.0,-11.0,-8.0,-4.0,2.0,-1.0,-2.0,1651070441506637.0,1
347,3.0,8.0,25.0,14.0,6.0,6.0,2.0,1.0,1651070441506637.0,1
348,-24.0,-6.0,-5.0,-2.0,-4.0,1.0,0.0,1.0,1651070441506637.0,1
349,-6.0,-8.0,19.0,23.0,0.0,-1.0,0.0,-11.0,1651070441506637.0,1
350,6.0,11.0,-14.0,-10.0,-6.0,-4.0,1.0,6.0,1651070441529760.0,1
351,5.0,-15.0,-14.0,-13.0,0.0,-2.0,1.0,3.0,1651070441529760.0,1
352,-20.0,8.0,11.0,10.0,10.0,4.0,1.0,-2.0,1651070441529760.0,1
353,38.0,-4.0,-5.0,3.0,-1.0,0.0,-2.0,-1.0,1651070441529760.0,1
354,-25.0,1.0,2.0,-9.0,-6.0,-3.0,1.0,-4.0,1651070441551682.0,1
355,-4.0,3.0,-6.0,-9.0,-3.0,-4.0,-4.0,-5.0,1651070441551682.0,1
356,-15.0,0.0,-2.0,-12.0,-5.0,-2.0,-1.0,0.0,1651070441552689.0,1
357,12.0,2.0,-1.0,-10.0,-10.0,-5.0,0.0,1.0,1651070441552689.0,1
358,16.0,-4.0,14.0,25.0,5.0,3.0,-2.0,-6.0,1651070441566674.0,1
359,-20.0,-7.0,-21.0,-12.0,-2.0,-1.0,1.0,3.0,1651070441566674.0,1
360,-13.0,-12.0,10.0,11.0,6.0,1.0,0.0,-1.0,1651070441566674.0,1
361,-8.0,-2.0,-9.0,-16.0,1.0,0.0,-3.0,-1.0,1651070441566674.0,1
362,10.0,19.0,43.0,6.0,-3.0,1.0,2.0,1.0,1651070441596527.0,1
363,-4.0,-37.0,-30.0,13.0,6.0,0.0,-4.0,-4.0,1651070441596527.0,1
364,-14.0,-1.0,-10.0,6.0,0.0,-1.0,-1.0,-2.0,1651070441597452.0,1
365,-13.0,-1.0,-11.0,-7.0,-6.0,-4.0,-2.0,-4.0,1651070441597452.0,1
366,-1.0,-9.0,-5.0,-14.0,0.0,3.0,3.0,2.0,1651070441612413.0,1
367,2.0,11.0,20.0,-2.0,-2.0,0.0,-1.0,-4.0,1651070441612413.0,1
368,3.0,9.0,21.0,25.0,5.0,2.0,1.0,0.0,1651070441612413.0,1
369,8.0,2.0,-19.0,-12.0,6.0,4.0,0.0,3.0,1651070441612413.0,1
370,-6.0,-2.0,-1.0,6.0,-4.0,-1.0,-1.0,0.0,1651070441626450.0,1
371,-8.0,-6.0,-12.0,-11.0,-10.0,-5.0,-2.0,0.0,1651070441626450.0,1
372,-2.0,-13.0,-21.0,-18.0,0.0,2.0,0.0,1.0,1651070441627381.0,1
373,-7.0,11.0,29.0,26.0,8.0,3.0,1.0,1.0,1651070441627381.0,1
374,-5.0,-9.0,-13.0,-7.0,-5.0,-5.0,-1.0,-4.0,1651070441649533.0,1
375,12.0,-12.0,-8.0,1.0,-2.0,1.0,-1.0,1.0,1651070441649533.0,1
376,3.0,9.0,8.0,-5.0,-3.0,-3.0,-1.0,-10.0,1651070441650561.0,1
377,-23.0,-8.0,13.0,1.0,-2.0,0.0,-3.0,9.0,1651070441650561.0,1
378,8.0,3.0,9.0,-6.0,2.0,-1.0,1.0,4.0,1651070441672369.0,1
379,-5.0,-10.0,-19.0,0.0,0.0,-3.0,0.0,-2.0,1651070441672369.0,1
380,-1.0,2.0,-5.0,0.0,-6.0,0.0,1.0,2.0,1651070441672369.0,1
381,11.0,1.0,0.0,-4.0,-2.0,-3.0,1.0,-4.0,1651070441672369.0,1
382,0.0,-8.0,-25.0,-2.0,1.0,2.0,-1.0,1.0,1651070441686453.0,1
383,41.0,26.0,11.0,-5.0,3.0,2.0,1.0,2.0,1651070441686453.0,1
384,-22.0,-3.0,-4.0,7.0,1.0,-1.0,-2.0,0.0,1651070441687383.0,1
385,-5.0,2.0,9.0,11.0,3.0,0.0,-3.0,-3.0,1651070441687383.0,1
386,-33.0,-19.0,-4.0,-5.0,1.0,0.0,0.0,0.0,1651070441709435.0,1
387,7.0,1.0,-15.0,-8.0,-6.0,-3.0,0.0,-1.0,1651070441709435.0,1
388,-26.0,10.0,3.0,0.0,4.0,2.0,1.0,1.0,1651070441710433.0,1
389,3.0,-6.0,13.0,4.0,-3.0,-4.0,-2.0,0.0,1651070441710433.0,1
390,0.0,4.0,-10.0,-5.0,0.0,0.0,1.0,-1.0,1651070441731690.0,1
391,-7.0,1.0,36.0,-14.0,1.0,2.0,1.0,1.0,1651070441731690.0,1
392,10.0,-20.0,-27.0,8.0,-2.0,-2.0,1.0,4.0,1651070441732691.0,1
393,-1.0,3.0,-3.0,4.0,-3.0,-1.0,-1.0,-3.0,1651070441732691.0,1
394,2.0,-1.0,6.0,-3.0,-1.0,-1.0,-1.0,-3.0,1651070441746664.0,1
395,-2.0,1.0,-12.0,17.0,3.0,2.0,0.0,1.0,1651070441746664.0,1
396,-4.0,-17.0,-9.0,-25.0,-1.0,1.0,-1.0,1.0,1651070441746664.0,1
397,3.0,-2.0,-4.0,4.0,4.0,1.0,-1.0,0.0,1651070441746664.0,1
398,8.0,2.0,-9.0,0.0,-3.0,-3.0,-2.0,-2.0,1651070441769808.0,1
399,-9.0,4.0,16.0,28.0,4.0,1.0,1.0,2.0,1651070441769808.0,1
400,44.0,13.0,-1.0,-27.0,-4.0,-3.0,0.0,-2.0,1651070441769808.0,1
401,-5.0,4.0,-6.0,4.0,0.0,-1.0,0.0,-1.0,1651070441769808.0,1
402,-3.0,-8.0,9.0,-12.0,-3.0,-1.0,-4.0,-3.0,1651070441792345.0,1
403,15.0,5.0,-1.0,2.0,-1.0,-1.0,-3.0,-2.0,1651070441792345.0,1
404,-21.0,7.0,7.0,22.0,7.0,4.0,1.0,-4.0,1651070441792345.0,1
405,4.0,-3.0,-8.0,-9.0,-2.0,-1.0,2.0,8.0,1651070441792345.0,1
406,10.0,5.0,9.0,4.0,-4.0,0.0,2.0,3.0,1651070441805380.0,1
407,1.0,-2.0,-14.0,-15.0,-3.0,-1.0,0.0,0.0,1651070441805380.0,1
408,3.0,0.0,5.0,4.0,-3.0,-1.0,-2.0,-1.0,1651070441814778.0,1
409,-9.0,-9.0,0.0,2.0,3.0,1.0,-1.0,-3.0,1651070441814778.0,1
410,-13.0,-4.0,-9.0,7.0,1.0,-1.0,-1.0,-2.0,1651070441829817.0,1
411,-3.0,10.0,-19.0,-17.0,-4.0,-3.0,-3.0,-3.0,1651070441829817.0,1
412,-4.0,1.0,27.0,14.0,-4.0,1.0,-1.0,1.0,1651070441830826.0,1
413,0.0,12.0,3.0,-12.0,-4.0,-3.0,-3.0,-3.0,1651070441830826.0,1
414,13.0,-6.0,-14.0,1.0,-2.0,-4.0,-3.0,-1.0,1651070441852124.0,1
415,-13.0,3.0,2.0,4.0,4.0,0.0,4.0,-2.0,1651070441852124.0,1
416,-1.0,4.0,11.0,-14.0,0.0,-2.0,-1.0,1.0,1651070441853096.0,1
417,7.0,2.0,-9.0,-1.0,-2.0,-1.0,2.0,0.0,1651070441853096.0,1
418,0.0,-1.0,1.0,15.0,3.0,0.0,-3.0,-2.0,1651070441865158.0,1
419,-12.0,0.0,4.0,2.0,-5.0,0.0,0.0,0.0,1651070441865158.0,1
420,2.0,4.0,5.0,5.0,1.0,0.0,-3.0,2.0,1651070441874179.0,1
421,-2.0,-7.0,-9.0,-8.0,-7.0,-3.0,1.0,-1.0,1651070441874179.0,1
422,4.0,7.0,10.0,-5.0,7.0,3.0,2.0,2.0,1651070441889783.0,1
423,-7.0,-2.0,-10.0,0.0,-9.0,0.0,0.0,0.0,1651070441889783.0,1
424,6.0,-4.0,-26.0,1.0,-2.0,-4.0,-1.0,-1.0,1651070441891265.0,1
425,-6.0,-2.0,4.0,-7.0,0.0,0.0,-1.0,2.0,1651070441891265.0,1
426,-2.0,2.0,-8.0,-5.0,-2.0,-1.0,-1.0,-4.0,1651070441912243.0,1
427,2.0,-2.0,13.0,15.0,4.0,0.0,0.0,1.0,1651070441912243.0,1
428,4.0,2.0,8.0,-7.0,-2.0,0.0,0.0,1.0,1651070441913177.0,1
429,-2.0,-7.0,-18.0,-21.0,-2.0,-3.0,-2.0,-3.0,1651070441913177.0,1
430,-2.0,0.0,-3.0,6.0,0.0,-1.0,1.0,1.0,1651070441925326.0,1
431,-3.0,-7.0,-4.0,1.0,7.0,3.0,-2.0,-7.0,1651070441925326.0,1
432,-4.0,4.0,6.0,-6.0,-6.0,1.0,0.0,8.0,1651070441934262.0,1
433,-2.0,-6.0,1.0,11.0,2.0,4.0,2.0,0.0,1651070441934262.0,1
434,-10.0,-5.0,2.0,-11.0,-2.0,-2.0,0.0,0.0,1651070441957363.0,1
435,2.0,1.0,11.0,14.0,2.0,-1.0,1.0,0.0,1651070441957363.0,1
436,-1.0,7.0,9.0,12.0,3.0,1.0,1.0,-2.0,1651070441958274.0,1
437,-17.0,-17.0,-29.0,-7.0,-2.0,0.0,-2.0,-2.0,1651070441958274.0,1
438,1.0,-2.0,-1.0,6.0,-1.0,0.0,-1.0,0.0,1651070441972327.0,1
439,-1.0,-3.0,-3.0,-14.0,-4.0,-2.0,0.0,0.0,1651070441972327.0,1
440,-3.0,-3.0,4.0,-3.0,-2.0,-4.0,-1.0,-2.0,1651070441973334.0,1
441,8.0,9.0,15.0,27.0,2.0,2.0,1.0,-2.0,1651070441973334.0,1
442,-1.0,2.0,-6.0,-29.0,0.0,0.0,-1.0,-2.0,1651070441994447.0,1
443,-8.0,-5.0,-6.0,7.0,-3.0,-2.0,-1.0,0.0,1651070441994447.0,1
444,1.0,-1.0,-5.0,-7.0,-1.0,-2.0,1.0,0.0,1651070441995586.0,1
445,5.0,2.0,6.0,0.0,-1.0,-3.0,-1.0,-1.0,1651070441995586.0,1
446,-2.0,0.0,-8.0,-2.0,-5.0,0.0,0.0,0.0,1651070442009783.0,1
447,3.0,3.0,5.0,-9.0,0.0,1.0,2.0,1.0,1651070442009783.0,1
448,-2.0,-6.0,1.0,10.0,-1.0,-2.0,-2.0,-3.0,1651070442010783.0,1
449,4.0,1.0,0.0,-2.0,2.0,1.0,-1.0,-1.0,1651070442010783.0,1
450,5.0,0.0,-5.0,1.0,-6.0,-5.0,-2.0,-3.0,1651070442039272.0,1
451,-14.0,-8.0,-9.0,-13.0,-1.0,-4.0,-1.0,0.0,1651070442039272.0,1
452,-1.0,3.0,-3.0,2.0,2.0,3.0,0.0,-2.0,1651070442041291.0,1
453,1.0,-7.0,6.0,-2.0,0.0,0.0,1.0,2.0,1651070442041291.0,1
454,0.0,0.0,3.0,19.0,1.0,0.0,-1.0,-1.0,1651070442045280.0,1
455,5.0,4.0,-3.0,-11.0,-3.0,0.0,0.0,0.0,1651070442045280.0,1
456,1.0,-1.0,-6.0,-10.0,1.0,-1.0,0.0,1.0,1651070442054244.0,1
457,-3.0,5.0,7.0,7.0,0.0,-2.0,0.0,-1.0,1651070442054244.0,1
458,1.0,-1.0,1.0,-3.0,-7.0,-1.0,-2.0,-1.0,1651070442069818.0,1
459,1.0,-2.0,2.0,-6.0,-10.0,-2.0,-1.0,-1.0,1651070442069818.0,1
460,-3.0,-1.0,-7.0,2.0,-1.0,-1.0,-1.0,1.0,1651070442070622.0,1
461,5.0,4.0,-1.0,-22.0,5.0,2.0,-1.0,0.0,1651070442070622.0,1
462,-2.0,-1.0,0.0,18.0,9.0,1.0,0.0,-2.0,1651070442091683.0,1
463,-2.0,-3.0,-5.0,-10.0,2.0,0.0,-2.0,0.0,1651070442091683.0,1
464,-3.0,-3.0,0.0,11.0,-5.0,-4.0,-4.0,-3.0,1651070442093707.0,1
465,0.0,4.0,5.0,5.0,-10.0,-4.0,0.0,-3.0,1651070442093707.0,1
466,-8.0,-2.0,1.0,-7.0,-1.0,1.0,2.0,1.0,1651070442105977.0,1
467,-1.0,-1.0,-6.0,-12.0,3.0,0.0,1.0,1.0,1651070442105977.0,1
468,1.0,1.0,11.0,21.0,6.0,2.0,4.0,1.0,1651070442114679.0,1
469,-5.0,-3.0,-12.0,-49.0,-25.0,-8.0,-5.0,-2.0,1651070442114679.0,1
470,4.0,2.0,7.0,9.0,-7.0,-2.0,-2.0,-1.0,1651070442129706.0,1
471,5.0,4.0,2.0,12.0,4.0,3.0,1.0,1.0,1651070442129706.0,1
472,-7.0,-8.0,-10.0,0.0,6.0,-2.0,-4.0,-4.0,1651070442130636.0,1
473,2.0,2.0,3.0,27.0,9.0,3.0,3.0,2.0,1651070442130636.0,1
474,2.0,2.0,-6.0,-6.0,1.0,2.0,3.0,3.0,1651070442152418.0,1
475,0.0,1.0,-2.0,-17.0,0.0,-1.0,1.0,0.0,1651070442152418.0,1
476,2.0,-1.0,-2.0,-12.0,-6.0,-2.0,-1.0,-2.0,1651070442153348.0,1
477,0.0,-2.0,6.0,15.0,3.0,-1.0,-1.0,-2.0,1651070442153348.0,1
478,3.0,-1.0,2.0,10.0,-2.0,2.0,-1.0,-1.0,1651070442165383.0,1
479,1.0,2.0,2.0,6.0,7.0,4.0,2.0,1.0,1651070442165383.0,1
480,-1.0,0.0,-4.0,-27.0,-11.0,-1.0,0.0,0.0,1651070442174304.0,1
481,0.0,1.0,-8.0,-3.0,6.0,0.0,0.0,0.0,1651070442174304.0,1
482,-2.0,-1.0,-6.0,0.0,10.0,-1.0,0.0,-1.0,1651070442189804.0,1
483,0.0,1.0,12.0,38.0,0.0,-5.0,-3.0,0.0,1651070442189804.0,1
484,1.0,0.0,1.0,-14.0,-4.0,-4.0,-3.0,-1.0,1651070442190799.0,1
485,0.0,3.0,5.0,7.0,-28.0,-8.0,-3.0,-1.0,1651070442190799.0,1
486,0.0,-5.0,-8.0,-30.0,20.0,6.0,0.0,1.0,1651070442213851.0,1
487,-5.0,-2.0,3.0,28.0,-1.0,-2.0,-3.0,-5.0,1651070442213851.0,1
488,0.0,-3.0,-15.0,-23.0,-10.0,-3.0,-1.0,-3.0,1651070442214839.0,1
489,0.0,7.0,15.0,18.0,1.0,1.0,0.0,0.0,1651070442214839.0,1
490,0.0,-7.0,9.0,-21.0,-15.0,-5.0,-1.0,0.0,1651070442225875.0,1
491,1.0,-3.0,-4.0,13.0,9.0,2.0,-1.0,-1.0,1651070442225875.0,1
492,-2.0,-5.0,-3.0,3.0,3.0,1.0,-1.0,-1.0,1651070442234785.0,1
493,1.0,0.0,-2.0,-3.0,5.0,1.0,1.0,0.0,1651070442234785.0,1
494,0.0,6.0,2.0,3.0,-7.0,-3.0,-1.0,2.0,1651070442249509.0,1
495,0.0,-1.0,-8.0,-4.0,1.0,-2.0,-2.0,0.0,1651070442249509.0,1
496,0.0,5.0,34.0,-5.0,4.0,1.0,0.0,1.0,1651070442251447.0,1
497,-2.0,-1.0,-11.0,7.0,7.0,2.0,-1.0,0.0,1651070442251447.0,1
498,0.0,-3.0,-2.0,8.0,-1.0,-1.0,-1.0,-2.0,1651070442271550.0,1
499,0.0,-4.0,-13.0,3.0,2.0,2.0,2.0,-1.0,1651070442271550.0,1
500,1.0,-2.0,-6.0,-1.0,-7.0,0.0,1.0,-1.0,1651070442273483.0,1
501,-2.0,-4.0,-14.0,-16.0,-4.0,-1.0,0.0,1.0,1651070442273483.0,1
502,-2.0,1.0,-5.0,2.0,3.0,-1.0,-2.0,-2.0,1651070442285563.0,1
503,0.0,4.0,0.0,1.0,-8.0,-2.0,1.0,2.0,1651070442285563.0,1
504,-3.0,-2.0,2.0,1.0,2.0,1.0,0.0,1.0,1651070442294557.0,1
505,1.0,-1.0,-1.0,-4.0,10.0,1.0,0.0,-2.0,1651070442294557.0,1
506,0.0,-2.0,-11.0,-2.0,-3.0,-2.0,-2.0,-1.0,1651070442309661.0,1
507,0.0,2.0,6.0,-15.0,-5.0,-2.0,-2.0,-1.0,1651070442309661.0,1
508,2.0,1.0,0.0,9.0,5.0,3.0,1.0,-1.0,1651070442310627.0,1
509,-2.0,0.0,4.0,10.0,6.0,1.0,0.0,-1.0,1651070442310627.0,1
510,-2.0,-4.0,-15.0,-11.0,-6.0,-5.0,-5.0,-2.0,1651070442331603.0,1
511,0.0,6.0,3.0,-7.0,-3.0,-2.0,-1.0,0.0,1651070442331603.0,1
512,-2.0,-10.0,-12.0,12.0,4.0,-2.0,-1.0,1.0,1651070442333530.0,1
513,-2.0,3.0,14.0,-12.0,0.0,-1.0,-3.0,1.0,1651070442333530.0,1
514,0.0,-3.0,-34.0,-1.0,-5.0,0.0,1.0,-3.0,1651070442345565.0,1
515,0.0,3.0,28.0,-11.0,-4.0,-2.0,-2.0,0.0,1651070442345565.0,1
516,1.0,0.0,-8.0,6.0,2.0,4.0,1.0,0.0,1651070442354583.0,1
517,0.0,-6.0,-10.0,-16.0,-9.0,-1.0,0.0,-1.0,1651070442354583.0,1
518,1.0,1.0,14.0,1.0,8.0,3.0,1.0,3.0,1651070442369610.0,1
519,1.0,-7.0,-21.0,22.0,-9.0,-3.0,-1.0,-3.0,1651070442369610.0,1
520,1.0,6.0,-5.0,-25.0,-7.0,1.0,-1.0,1.0,1651070442370567.0,1
521,2.0,-2.0,3.0,-4.0,10.0,3.0,1.0,1.0,1651070442370567.0,1
522,-2.0,1.0,0.0,-5.0,-10.0,-6.0,-4.0,-1.0,1651070442391463.0,1
523,0.0,1.0,3.0,-2.0,8.0,2.0,0.0,3.0,1651070442391463.0,1
524,-1.0,-2.0,-2.0,5.0,3.0,-4.0,-1.0,2.0,1651070442399414.0,1
525,-1.0,-1.0,-5.0,9.0,-2.0,0.0,2.0,-1.0,1651070442399414.0,1
526,1.0,0.0,4.0,-4.0,-6.0,0.0,1.0,-2.0,1651070442414440.0,1
527,-1.0,-1.0,-4.0,-9.0,-2.0,-3.0,0.0,-2.0,1651070442414440.0,1
528,-1.0,-1.0,8.0,11.0,3.0,2.0,1.0,-3.0,1651070442416368.0,1
529,-1.0,1.0,1.0,1.0,6.0,-1.0,0.0,0.0,1651070442416368.0,1
530,-1.0,-1.0,20.0,17.0,5.0,4.0,0.0,0.0,1651070442430340.0,1
531,-2.0,-8.0,-10.0,-15.0,-1.0,-1.0,0.0,1.0,1651070442430340.0,1
532,1.0,-1.0,-12.0,-1.0,-3.0,-2.0,-1.0,-1.0,1651070442431341.0,1
533,-1.0,-4.0,-3.0,12.0,-4.0,-3.0,-1.0,-2.0,1651070442431341.0,1
534,-1.0,1.0,13.0,4.0,-1.0,-1.0,-2.0,-2.0,1651070442451728.0,1
535,0.0,2.0,12.0,6.0,-5.0,0.0,0.0,-3.0,1651070442451728.0,1
536,1.0,0.0,-2.0,-16.0,1.0,2.0,0.0,0.0,1651070442453655.0,1
537,-1.0,2.0,-6.0,-2.0,-3.0,0.0,-2.0,0.0,1651070442453655.0,1
538,2.0,2.0,7.0,4.0,-6.0,-2.0,0.0,-1.0,1651070442474419.0,1
539,-1.0,-3.0,-7.0,-14.0,5.0,3.0,-1.0,1.0,1651070442474419.0,1
540,-2.0,1.0,7.0,11.0,3.0,0.0,-2.0,-1.0,1651070442476437.0,1
541,0.0,-5.0,-7.0,3.0,1.0,0.0,-2.0,-1.0,1651070442476437.0,1
542,-2.0,0.0,-4.0,-3.0,3.0,-1.0,0.0,0.0,1651070442489382.0,1
543,-1.0,-4.0,1.0,-12.0,-3.0,-4.0,0.0,-2.0,1651070442489382.0,1
544,0.0,3.0,4.0,0.0,-1.0,-3.0,-1.0,-3.0,1651070442491409.0,1
545,1.0,2.0,7.0,19.0,5.0,3.0,1.0,1.0,1651070442491409.0,1
546,0.0,-4.0,-5.0,-9.0,6.0,1.0,0.0,0.0,1651070442511598.0,1
547,0.0,-1.0,-4.0,-4.0,-2.0,0.0,-3.0,0.0,1651070442511598.0,1
548,-2.0,-1.0,-2.0,5.0,-3.0,-3.0,-2.0,-2.0,1651070442513523.0,1
549,-1.0,1.0,11.0,-7.0,-7.0,-4.0,-2.0,0.0,1651070442513523.0,1
550,0.0,0.0,-3.0,11.0,13.0,3.0,0.0,-1.0,1651070442534346.0,1
551,0.0,0.0,-5.0,-10.0,-6.0,-2.0,-1.0,1.0,1651070442534346.0,1
552,1.0,-3.0,2.0,0.0,1.0,1.0,-1.0,0.0,1651070442536369.0,1
553,0.0,4.0,-1.0,-2.0,-3.0,-1.0,-1.0,0.0,1651070442536369.0,1
554,-2.0,-5.0,2.0,-1.0,-5.0,-2.0,1.0,-2.0,1651070442549373.0,1
555,1.0,0.0,4.0,20.0,6.0,0.0,0.0,-1.0,1651070442549373.0,1
556,0.0,1.0,-9.0,-9.0,-6.0,0.0,0.0,1.0,1651070442551328.0,1
557,-2.0,-6.0,5.0,11.0,0.0,-4.0,-3.0,0.0,1651070442551328.0,1
558,-1.0,-1.0,-3.0,5.0,5.0,2.0,-2.0,2.0,1651070442571681.0,1
559,-3.0,1.0,-2.0,-10.0,-5.0,-2.0,0.0,-1.0,1651070442571681.0,1
560,-1.0,0.0,-1.0,-1.0,-2.0,1.0,0.0,-1.0,1651070442573678.0,1
561,0.0,-1.0,3.0,-1.0,5.0,-1.0,0.0,-2.0,1651070442573678.0,1
562,0.0,3.0,0.0,-3.0,-2.0,1.0,1.0,0.0,1651070442594782.0,1
563,0.0,-3.0,-1.0,-5.0,-4.0,-3.0,-2.0,-2.0,1651070442594782.0,1
564,-2.0,-4.0,1.0,5.0,3.0,0.0,0.0,1.0,1651070442596048.0,1
565,-1.0,-2.0,-9.0,-17.0,-1.0,1.0,0.0,-1.0,1651070442596048.0,1
566,0.0,3.0,7.0,12.0,-6.0,-2.0,0.0,-1.0,1651070442608929.0,1
567,-2.0,0.0,3.0,9.0,1.0,-1.0,-2.0,0.0,1651070442608929.0,1
568,0.0,3.0,-1.0,-3.0,-2.0,-2.0,-2.0,0.0,1651070442615516.0,1
569,-2.0,-2.0,-2.0,-4.0,1.0,3.0,-2.0,1.0,1651070442615516.0,1
570,-2.0,0.0,-7.0,-11.0,-3.0,0.0,-1.0,1.0,1651070442631534.0,1
571,-1.0,2.0,4.0,-4.0,-5.0,-1.0,1.0,1.0,1651070442631534.0,1
572,-1.0,1.0,2.0,4.0,0.0,-3.0,-1.0,-3.0,1651070442633566.0,1
573,-2.0,2.0,5.0,5.0,-4.0,0.0,2.0,1.0,1651070442633566.0,1
574,0.0,-4.0,-6.0,-8.0,4.0,1.0,1.0,0.0,1651070442655405.0,1
575,-1.0,-3.0,-3.0,0.0,6.0,-1.0,-2.0,-2.0,1651070442655405.0,1
576,1.0,0.0,-3.0,3.0,5.0,-1.0,2.0,-1.0,1651070442656316.0,1
577,2.0,2.0,-1.0,-1.0,-5.0,-2.0,0.0,1.0,1651070442656316.0,1
578,0.0,0.0,-3.0,-15.0,-8.0,-5.0,-1.0,-1.0,1651070442668736.0,1
579,0.0,1.0,-4.0,5.0,-5.0,1.0,1.0,0.0,1651070442668736.0,1
580,-2.0,0.0,10.0,5.0,-5.0,-1.0,-1.0,1.0,1651070442676693.0,1
581,0.0,-1.0,-7.0,-3.0,7.0,3.0,-1.0,-2.0,1651070442676693.0,1
582,-2.0,-3.0,-2.0,0.0,-4.0,-3.0,-4.0,-2.0,1651070442691723.0,1
583,0.0,1.0,3.0,-8.0,1.0,0.0,-1.0,-2.0,1651070442691723.0,1
584,1.0,-1.0,-1.0,0.0,-2.0,0.0,-2.0,1.0,1651070442693677.0,1
585,-1.0,0.0,3.0,6.0,2.0,-1.0,0.0,0.0,1651070442693677.0,1
586,-2.0,-4.0,-3.0,-1.0,0.0,-4.0,-3.0,-3.0,1651070442714555.0,1
587,0.0,0.0,-2.0,-2.0,0.0,1.0,0.0,1.0,1651070442714555.0,1
588,0.0,0.0,3.0,1.0,2.0,-1.0,2.0,0.0,1651070442715597.0,1
589,1.0,-1.0,-6.0,-9.0,-2.0,0.0,-1.0,-2.0,1651070442715597.0,1
590,-1.0,-1.0,-1.0,8.0,-4.0,-1.0,-2.0,-2.0,1651070442728517.0,1
591,-1.0,1.0,5.0,11.0,5.0,3.0,1.0,-1.0,1651070442728517.0,1
592,-1.0,-6.0,-1.0,-1.0,2.0,-1.0,0.0,1.0,1651070442735649.0,1
593,-3.0,-7.0,-6.0,-5.0,4.0,1.0,-1.0,-1.0,1651070442735649.0,1
594,0.0,1.0,3.0,1.0,-5.0,0.0,1.0,1.0,1651070442752406.0,1
595,-2.0,-2.0,-5.0,-8.0,-5.0,-4.0,-1.0,1.0,1651070442752406.0,1
596,0.0,5.0,-3.0,-5.0,-3.0,-1.0,1.0,1.0,1651070442753384.0,1
597,-1.0,-5.0,-3.0,5.0,2.0,0.0,0.0,0.0,1651070442753384.0,1
598,-1.0,-1.0,3.0,2.0,0.0,0.0,-1.0,1.0,1651070442774745.0,1
599,1.0,-3.0,-3.0,-5.0,1.0,-3.0,-1.0,0.0,1651070442774745.0,1
600,-1.0,0.0,-8.0,-4.0,-2.0,3.0,-1.0,-1.0,1651070442775812.0,1
601,0.0,1.0,7.0,0.0,-4.0,-3.0,-2.0,-1.0,1651070442775812.0,1
602,0.0,2.0,3.0,2.0,4.0,2.0,0.0,0.0,1651070442787710.0,1
603,-1.0,-5.0,-5.0,1.0,-6.0,-3.0,-2.0,-2.0,1651070442787710.0,1
604,1.0,-1.0,-1.0,1.0,7.0,0.0,-1.0,-1.0,1651070442796694.0,1
605,0.0,1.0,1.0,-6.0,-1.0,0.0,2.0,-1.0,1651070442796694.0,1
606,-2.0,-1.0,-3.0,-4.0,-13.0,-3.0,-1.0,1.0,1651070442810887.0,1
607,0.0,2.0,5.0,7.0,10.0,2.0,1.0,-1.0,1651070442810887.0,1
608,1.0,0.0,0.0,7.0,10.0,4.0,1.0,0.0,1651070442819157.0,1
609,-1.0,0.0,3.0,-1.0,-2.0,2.0,-3.0,0.0,1651070442819157.0,1
610,0.0,0.0,0.0,1.0,3.0,-1.0,0.0,0.0,1651070442834151.0,1
611,-1.0,1.0,-5.0,-9.0,-9.0,-2.0,-1.0,-2.0,1651070442834151.0,1
612,-1.0,-3.0,2.0,-2.0,-8.0,-5.0,-2.0,-1.0,1651070442836176.0,1
613,-1.0,0.0,-1.0,2.0,6.0,1.0,0.0,1.0,1651070442836176.0,1
614,0.0,2.0,-1.0,-2.0,-2.0,-2.0,1.0,0.0,1651070442849163.0,1
615,-2.0,-4.0,4.0,1.0,6.0,0.0,1.0,1.0,1651070442849163.0,1
616,-1.0,-1.0,-2.0,-2.0,-4.0,-2.0,1.0,-3.0,1651070442855164.0,1
617,-1.0,1.0,-1.0,-3.0,-3.0,-2.0,0.0,-1.0,1651070442855164.0,1
618,0.0,-1.0,-1.0,2.0,-2.0,-2.0,-2.0,-2.0,1651070442872087.0,1
619,2.0,6.0,8.0,0.0,2.0,2.0,0.0,1.0,1651070442872087.0,1
620,-3.0,-7.0,2.0,3.0,-4.0,0.0,-2.0,-1.0,1651070442873013.0,1
621,0.0,-2.0,-14.0,-2.0,-4.0,-2.0,-2.0,0.0,1651070442873013.0,1
622,-1.0,-3.0,-3.0,3.0,1.0,-3.0,-1.0,-2.0,1651070442894505.0,1
623,-1.0,-1.0,-2.0,3.0,1.0,4.0,2.0,0.0,1651070442894505.0,1
624,0.0,1.0,0.0,-3.0,-1.0,0.0,0.0,-1.0,1651070442895499.0,1
625,1.0,1.0,2.0,-1.0,-1.0,0.0,2.0,-1.0,1651070442895499.0,1
626,-1.0,-1.0,-3.0,-2.0,4.0,3.0,-2.0,-3.0,1651070442908420.0,1
627,0.0,-1.0,-1.0,-2.0,-4.0,-3.0,-1.0,-2.0,1651070442908420.0,1
628,0.0,5.0,6.0,11.0,4.0,-3.0,0.0,1.0,1651070442917357.0,1
629,0.0,-2.0,-3.0,-3.0,1.0,2.0,0.0,0.0,1651070442917357.0,1
630,-1.0,-3.0,4.0,3.0,-1.0,-2.0,-1.0,0.0,1651070442931454.0,1
631,-1.0,-4.0,0.0,-5.0,-4.0,-1.0,-3.0,1.0,1651070442931454.0,1
632,-1.0,-1.0,-5.0,-5.0,-4.0,1.0,-2.0,0.0,1651070442933454.0,1
633,-2.0,-3.0,0.0,-1.0,-3.0,-3.0,0.0,-2.0,1651070442933454.0,1
634,0.0,3.0,-4.0,-6.0,-4.0,-2.0,1.0,1.0,1651070442954832.0,1
635,1.0,0.0,-3.0,0.0,6.0,1.0,0.0,-1.0,1651070442954832.0,1
636,1.0,-1.0,2.0,8.0,5.0,2.0,1.0,0.0,1651070442956224.0,1
637,1.0,1.0,1.0,-3.0,-4.0,-2.0,-1.0,0.0,1651070442956224.0,1
638,-2.0,1.0,1.0,1.0,3.0,1.0,1.0,0.0,1651070442968169.0,1
639,-2.0,-2.0,-2.0,-4.0,-3.0,-2.0,0.0,1.0,1651070442968169.0,1
640,0.0,0.0,-1.0,-4.0,-2.0,-1.0,0.0,-3.0,1651070442984344.0,1
641,1.0,0.0,2.0,3.0,-1.0,-3.0,-1.0,-1.0,1651070442984344.0,1
642,0.0,1.0,2.0,-5.0,-9.0,-1.0,-2.0,1.0,1651070442992347.0,1
643,-1.0,-5.0,-8.0,7.0,6.0,0.0,-2.0,1.0,1651070442992347.0,1
644,1.0,1.0,11.0,-3.0,4.0,3.0,-1.0,2.0,1651070442993307.0,1
645,-1.0,0.0,-2.0,4.0,-3.0,-5.0,-2.0,-3.0,1651070442993307.0,1
646,0.0,1.0,-3.0,-5.0,1.0,-1.0,0.0,1.0,1651070443014690.0,0
647,0.0,1.0,-1.0,-4.0,-12.0,-3.0,0.0,1.0,1651070443014690.0,0
648,0.0,1.0,-3.0,-1.0,-1.0,-2.0,-1.0,-1.0,1651070443015704.0,0
649,-1.0,0.0,2.0,-3.0,-3.0,-1.0,0.0,-1.0,1651070443015704.0,0
650,1.0,1.0,-2.0,-1.0,-1.0,-4.0,-1.0,-1.0,1651070443027654.0,0
651,-1.0,1.0,2.0,5.0,4.0,5.0,-2.0,-1.0,1651070443027654.0,0
652,-1.0,-2.0,-2.0,0.0,2.0,0.0,0.0,-2.0,1651070443036631.0,0
653,-1.0,-1.0,3.0,3.0,0.0,-1.0,1.0,1.0,1651070443036631.0,0
654,-2.0,-1.0,-1.0,-2.0,-5.0,0.0,-1.0,0.0,1651070443052391.0,0
655,1.0,1.0,-1.0,-7.0,-5.0,-2.0,0.0,-1.0,1651070443052391.0,0
656,0.0,-3.0,-3.0,0.0,10.0,3.0,-1.0,-1.0,1651070443053397.0,0
657,0.0,1.0,-1.0,2.0,1.0,0.0,-1.0,0.0,1651070443053397.0,0
658,0.0,1.0,2.0,-2.0,2.0,1.0,1.0,-2.0,1651070443074468.0,0
659,-1.0,1.0,0.0,-4.0,-5.0,-2.0,-1.0,0.0,1651070443074468.0,0
660,0.0,1.0,7.0,6.0,-7.0,-3.0,-3.0,0.0,1651070443076453.0,0
661,-1.0,-6.0,-7.0,-8.0,-1.0,2.0,0.0,0.0,1651070443076453.0,0
662,0.0,-5.0,-3.0,2.0,2.0,0.0,0.0,0.0,1651070443088459.0,0
663,0.0,-2.0,-3.0,-1.0,1.0,-2.0,-1.0,-2.0,1651070443088459.0,0
664,0.0,-2.0,-7.0,-6.0,-1.0,-2.0,0.0,-1.0,1651070443097395.0,0
665,2.0,0.0,1.0,-2.0,-2.0,-2.0,0.0,1.0,1651070443097395.0,0
666,-1.0,0.0,4.0,14.0,5.0,6.0,0.0,2.0,1651070443112387.0,0
667,-1.0,0.0,-3.0,-1.0,7.0,2.0,1.0,0.0,1651070443112387.0,0
668,0.0,-2.0,-1.0,-2.0,-5.0,-1.0,1.0,0.0,1651070443113363.0,0
669,-2.0,0.0,-2.0,-4.0,-6.0,-3.0,-1.0,-2.0,1651070443113363.0,0
670,-1.0,-1.0,-3.0,-3.0,8.0,0.0,-1.0,-1.0,1651070443134600.0,0
671,0.0,-3.0,2.0,1.0,-3.0,2.0,-1.0,-1.0,1651070443134600.0,0
672,-1.0,-1.0,-2.0,-1.0,-9.0,-4.0,-2.0,-1.0,1651070443135730.0,0
673,-1.0,-2.0,1.0,5.0,11.0,3.0,0.0,-1.0,1651070443135730.0,0
674,2.0,-1.0,-2.0,2.0,-1.0,-2.0,-1.0,-1.0,1651070443148582.0,0
675,1.0,0.0,2.0,-1.0,-1.0,-4.0,2.0,1.0,1651070443148582.0,0
676,-1.0,0.0,-3.0,-6.0,-6.0,-1.0,0.0,1.0,1651070443156660.0,0
677,-1.0,0.0,-2.0,-1.0,-5.0,-2.0,-2.0,-1.0,1651070443156660.0,0
678,-3.0,-1.0,3.0,4.0,6.0,1.0,0.0,-2.0,1651070443171738.0,0
679,-1.0,0.0,3.0,5.0,0.0,-1.0,0.0,-2.0,1651070443171738.0,0
680,0.0,0.0,-4.0,-11.0,-5.0,-1.0,-1.0,2.0,1651070443173692.0,0
681,1.0,4.0,0.0,11.0,2.0,0.0,0.0,0.0,1651070443173692.0,0
682,0.0,0.0,-2.0,-3.0,-3.0,-2.0,2.0,1.0,1651070443194712.0,0
683,-1.0,-3.0,-4.0,-3.0,-5.0,-3.0,-1.0,-1.0,1651070443194712.0,0
684,1.0,-1.0,-1.0,-2.0,8.0,3.0,0.0,-2.0,1651070443195790.0,0
685,2.0,1.0,4.0,-2.0,6.0,5.0,0.0,0.0,1651070443195790.0,0
686,0.0,0.0,-1.0,-1.0,0.0,-1.0,-1.0,1.0,1651070443207624.0,0
687,0.0,-1.0,0.0,0.0,-7.0,-3.0,-2.0,0.0,1651070443207624.0,0
688,-1.0,-1.0,-7.0,-1.0,-4.0,-2.0,-3.0,-2.0,1651070443216664.0,0
689,-2.0,-1.0,-1.0,-7.0,-3.0,-2.0,-1.0,-1.0,1651070443216664.0,0
690,0.0,2.0,3.0,-2.0,10.0,6.0,1.0,0.0,1651070443232333.0,0
691,-1.0,2.0,5.0,5.0,-4.0,-1.0,0.0,-1.0,1651070443232333.0,0
692,-2.0,-2.0,-2.0,-2.0,2.0,-3.0,-2.0,-1.0,1651070443233332.0,0
693,0.0,0.0,-4.0,-8.0,-13.0,-2.0,0.0,-1.0,1651070443233332.0,0
694,1.0,-2.0,2.0,15.0,7.0,-3.0,1.0,-1.0,1651070443254885.0,0
695,0.0,-1.0,-7.0,-10.0,0.0,-1.0,-2.0,-1.0,1651070443254885.0,0
696,1.0,-1.0,-1.0,1.0,-6.0,0.0,1.0,0.0,1651070443255969.0,0
697,-3.0,0.0,6.0,2.0,3.0,3.0,1.0,1.0,1651070443255969.0,0
698,-2.0,-1.0,-6.0,-7.0,-7.0,-3.0,-2.0,-2.0,1651070443267916.0,0
699,-1.0,-3.0,-1.0,1.0,-7.0,-2.0,-2.0,-1.0,1651070443267916.0,0
700,-2.0,-1.0,-3.0,3.0,4.0,1.0,2.0,-1.0,1651070443276825.0,0
701,1.0,-2.0,-4.0,2.0,0.0,0.0,-3.0,-1.0,1651070443276825.0,0
702,1.0,-1.0,-2.0,-4.0,-4.0,-3.0,-4.0,-2.0,1651070443290974.0,0
703,0.0,-4.0,2.0,0.0,1.0,1.0,0.0,-1.0,1651070443290974.0,0
704,1.0,0.0,2.0,-3.0,-4.0,-4.0,-2.0,1.0,1651070443297955.0,0
705,-2.0,0.0,-1.0,2.0,0.0,-2.0,1.0,-1.0,1651070443297955.0,0
706,-1.0,-3.0,0.0,0.0,-4.0,-1.0,-1.0,-2.0,1651070443314806.0,0
707,0.0,3.0,-1.0,-7.0,-3.0,-2.0,-2.0,-2.0,1651070443314806.0,0
708,-3.0,-7.0,-6.0,-8.0,-6.0,-1.0,-1.0,0.0,1651070443316291.0,0
709,-2.0,-2.0,3.0,15.0,6.0,0.0,-1.0,0.0,1651070443316291.0,0
710,1.0,-1.0,1.0,4.0,4.0,4.0,1.0,2.0,1651070443328406.0,0
711,-1.0,0.0,0.0,-3.0,1.0,-2.0,0.0,-1.0,1651070443328406.0,0
712,-1.0,1.0,3.0,3.0,-3.0,0.0,1.0,-1.0,1651070443337323.0,0
713,0.0,-1.0,-3.0,-7.0,-4.0,-2.0,-1.0,0.0,1651070443337323.0,0
714,-1.0,-3.0,-7.0,-5.0,-9.0,-2.0,-2.0,-1.0,1651070443351396.0,0
715,0.0,6.0,8.0,4.0,11.0,3.0,0.0,-1.0,1651070443351396.0,0
716,-4.0,-4.0,0.0,8.0,10.0,4.0,1.0,1.0,1651070443353350.0,0
717,0.0,1.0,4.0,6.0,2.0,0.0,-1.0,0.0,1651070443353350.0,0
718,2.0,0.0,2.0,-4.0,-6.0,-2.0,-2.0,-2.0,1651070443374521.0,0
719,0.0,1.0,0.0,3.0,1.0,1.0,1.0,2.0,1651070443374521.0,0
720,-2.0,-2.0,-10.0,-10.0,-2.0,-4.0,0.0,-2.0,1651070443375518.0,0
721,-1.0,-3.0,-1.0,1.0,7.0,3.0,1.0,-1.0,1651070443375518.0,0
722,0.0,4.0,6.0,-2.0,-1.0,0.0,0.0,0.0,1651070443396522.0,0
723,-3.0,-12.0,-14.0,-10.0,-2.0,0.0,-2.0,-1.0,1651070443396522.0,0
724,2.0,7.0,7.0,16.0,1.0,1.0,-2.0,1.0,1651070443398457.0,0
725,-1.0,-12.0,-15.0,-10.0,-7.0,-4.0,-3.0,0.0,1651070443398457.0,0
726,0.0,4.0,7.0,8.0,8.0,2.0,0.0,-1.0,1651070443411559.0,0
727,-3.0,3.0,19.0,2.0,2.0,3.0,0.0,-1.0,1651070443411559.0,0
728,-1.0,-1.0,-5.0,-10.0,-5.0,-2.0,-1.0,0.0,1651070443413556.0,0
729,-2.0,-5.0,-9.0,-9.0,-2.0,0.0,0.0,0.0,1651070443413556.0,0
730,-1.0,-1.0,-6.0,-1.0,-5.0,-4.0,0.0,0.0,1651070443434805.0,0
731,-1.0,3.0,9.0,7.0,7.0,2.0,0.0,1.0,1651070443434805.0,0
732,0.0,0.0,6.0,4.0,0.0,-4.0,-1.0,-3.0,1651070443436323.0,0
733,1.0,9.0,-1.0,-7.0,-4.0,-2.0,-1.0,-1.0,1651070443436323.0,0
734,-4.0,-10.0,1.0,-7.0,0.0,1.0,1.0,-2.0,1651070443456427.0,0
735,1.0,-5.0,-26.0,2.0,-7.0,-4.0,1.0,-1.0,1651070443456427.0,0
736,0.0,6.0,11.0,-6.0,1.0,1.0,0.0,0.0,1651070443458355.0,0
737,0.0,7.0,6.0,7.0,0.0,0.0,0.0,-1.0,1651070443458355.0,0
738,-1.0,1.0,-4.0,-5.0,0.0,0.0,-1.0,0.0,1651070443472383.0,0
739,0.0,3.0,-1.0,-1.0,0.0,3.0,-1.0,-2.0,1651070443472383.0,0
740,-2.0,1.0,6.0,-1.0,0.0,0.0,0.0,-3.0,1651070443473315.0,0
741,-5.0,-12.0,10.0,0.0,-2.0,-1.0,-1.0,-1.0,1651070443473315.0,0
742,-2.0,0.0,7.0,-9.0,-2.0,-1.0,-1.0,-1.0,1651070443494465.0,0
743,7.0,-5.0,6.0,1.0,-2.0,-2.0,1.0,2.0,1651070443494465.0,0
744,-2.0,2.0,-8.0,2.0,-1.0,-4.0,-2.0,0.0,1651070443496390.0,0
745,0.0,2.0,19.0,-3.0,2.0,2.0,-1.0,-2.0,1651070443496390.0,0
746,3.0,-6.0,-47.0,19.0,12.0,3.0,-1.0,1.0,1651070443517378.0,0
747,-1.0,7.0,2.0,-3.0,-4.0,-1.0,2.0,4.0,1651070443517378.0,2
748,1.0,0.0,3.0,-4.0,-4.0,-1.0,-3.0,1.0,1651070443518332.0,2
749,-2.0,0.0,19.0,9.0,-8.0,0.0,-1.0,-1.0,1651070443518332.0,2
750,2.0,7.0,3.0,-14.0,-4.0,-2.0,-1.0,-1.0,1651070443531361.0,2
751,-1.0,0.0,-13.0,-6.0,10.0,3.0,-2.0,-1.0,1651070443531361.0,2
752,3.0,-6.0,-5.0,-18.0,1.0,4.0,2.0,3.0,1651070443538345.0,2
753,0.0,-10.0,-11.0,9.0,1.0,-2.0,-2.0,-1.0,1651070443538345.0,2
754,-6.0,-3.0,15.0,21.0,1.0,-1.0,0.0,-3.0,1651070443554302.0,2
755,-1.0,4.0,6.0,6.0,-5.0,-2.0,-2.0,-4.0,1651070443554302.0,2
756,4.0,25.0,-10.0,-10.0,-7.0,-1.0,3.0,0.0,1651070443556230.0,2
757,3.0,-11.0,-1.0,-14.0,4.0,2.0,1.0,3.0,1651070443556230.0,2
758,9.0,-13.0,-19.0,-9.0,-6.0,-1.0,-1.0,4.0,1651070443577381.0,2
759,-6.0,5.0,5.0,14.0,8.0,1.0,-1.0,-1.0,1651070443577381.0,2
760,-9.0,7.0,40.0,11.0,4.0,1.0,-2.0,-7.0,1651070443578328.0,2
761,-4.0,0.0,-44.0,-18.0,-7.0,-8.0,-6.0,-6.0,1651070443578328.0,2
762,3.0,-21.0,0.0,-7.0,-9.0,-2.0,5.0,6.0,1651070443590416.0,2
763,-11.0,10.0,31.0,12.0,11.0,3.0,0.0,-4.0,1651070443590416.0,2
764,14.0,-6.0,-6.0,7.0,4.0,4.0,5.0,6.0,1651070443599358.0,2
765,5.0,11.0,-13.0,-14.0,-10.0,-5.0,-2.0,-1.0,1651070443599358.0,2
766,1.0,12.0,6.0,-16.0,-10.0,-3.0,0.0,0.0,1651070443613406.0,2
767,-7.0,-57.0,-55.0,-13.0,-3.0,-4.0,-3.0,-4.0,1651070443613406.0,2
768,-35.0,26.0,26.0,20.0,10.0,4.0,-6.0,-11.0,1651070443621697.0,2
769,11.0,17.0,75.0,33.0,15.0,12.0,8.0,9.0,1651070443621697.0,2
770,9.0,-13.0,-15.0,-19.0,-7.0,-4.0,2.0,4.0,1651070443636494.0,2
771,20.0,62.0,26.0,14.0,2.0,6.0,4.0,6.0,1651070443636494.0,2
772,-3.0,33.0,0.0,4.0,-1.0,-4.0,-1.0,1.0,1651070443638488.0,2
773,7.0,22.0,1.0,-18.0,-16.0,-7.0,-4.0,-4.0,1651070443638488.0,2
774,-8.0,-65.0,-19.0,10.0,3.0,0.0,-1.0,-4.0,1651070443651405.0,2
775,1.0,56.0,32.0,1.0,14.0,4.0,2.0,0.0,1651070443651405.0,2
776,34.0,18.0,-34.0,-7.0,-3.0,4.0,11.0,27.0,1651070443659648.0,2
777,-16.0,-88.0,51.0,2.0,-5.0,-5.0,-4.0,-8.0,1651070443659648.0,2
778,0.0,15.0,-40.0,-22.0,-3.0,-1.0,3.0,3.0,1651070443674835.0,2
779,5.0,-15.0,24.0,-6.0,-6.0,-1.0,-3.0,-4.0,1651070443674835.0,2
780,-29.0,-2.0,-20.0,13.0,-7.0,-12.0,-16.0,-22.0,1651070443675747.0,2
781,10.0,45.0,47.0,31.0,29.0,12.0,6.0,8.0,1651070443675747.0,2
782,0.0,-13.0,-31.0,-19.0,-7.0,0.0,0.0,-6.0,1651070443696841.0,2
783,-60.0,3.0,41.0,-7.0,-18.0,-14.0,-11.0,-16.0,1651070443696841.0,2
784,30.0,-68.0,-88.0,-25.0,-8.0,-1.0,8.0,14.0,1651070443698827.0,2
785,15.0,13.0,-21.0,-14.0,-24.0,-4.0,3.0,8.0,1651070443698827.0,2
786,-28.0,5.0,2.0,20.0,44.0,11.0,2.0,-2.0,1651070443710933.0,2
787,-3.0,-73.0,-33.0,6.0,12.0,10.0,-3.0,-5.0,1651070443710933.0,2
788,6.0,18.0,45.0,-4.0,-9.0,-1.0,-2.0,-1.0,1651070443719864.0,2
789,14.0,27.0,-77.0,-16.0,-11.0,-5.0,0.0,5.0,1651070443719864.0,2
790,13.0,21.0,-20.0,11.0,-5.0,-10.0,-7.0,-6.0,1651070443734804.0,2
791,1.0,3.0,19.0,-24.0,-13.0,-7.0,-1.0,-2.0,1651070443734804.0,2
792,-40.0,-37.0,12.0,-11.0,-7.0,-7.0,-10.0,-18.0,1651070443736294.0,2
793,14.0,11.0,-12.0,13.0,6.0,3.0,3.0,5.0,1651070443736294.0,2
794,-6.0,14.0,43.0,-1.0,1.0,3.0,-4.0,-5.0,1651070443757307.0,2
795,13.0,-19.0,-25.0,10.0,-3.0,-5.0,2.0,8.0,1651070443757307.0,2
796,-3.0,12.0,36.0,27.0,14.0,0.0,-2.0,-15.0,1651070443758247.0,2
797,-39.0,-40.0,-17.0,-12.0,7.0,-2.0,-12.0,-9.0,1651070443758247.0,2
798,8.0,15.0,27.0,1.0,-17.0,-1.0,1.0,4.0,1651070443770216.0,2
799,59.0,58.0,-3.0,-8.0,7.0,5.0,11.0,27.0,1651070443770216.0,2
800,-21.0,-39.0,-31.0,-13.0,-14.0,-4.0,-5.0,-8.0,1651070443785352.0,2
801,15.0,12.0,0.0,13.0,9.0,-2.0,-3.0,-9.0,1651070443785352.0,2
802,7.0,53.0,84.0,22.0,26.0,11.0,3.0,4.0,1651070443794329.0,2
803,6.0,-73.0,-83.0,-16.0,0.0,-7.0,0.0,12.0,1651070443794329.0,2
804,4.0,26.0,53.0,5.0,1.0,7.0,3.0,5.0,1651070443796282.0,2
805,-51.0,-79.0,14.0,20.0,11.0,0.0,-7.0,-31.0,1651070443796282.0,2
806,-5.0,-4.0,-91.0,-46.0,-37.0,-19.0,-7.0,3.0,1651070443817484.0,2
807,10.0,13.0,54.0,-8.0,-18.0,-9.0,-2.0,-3.0,1651070443817484.0,2
808,13.0,40.0,-2.0,-5.0,20.0,5.0,3.0,9.0,1651070443818441.0,2
809,-65.0,-30.0,43.0,9.0,-5.0,1.0,-1.0,-4.0,1651070443818441.0,2
810,-26.0,4.0,47.0,33.0,10.0,3.0,-7.0,-18.0,1651070443830566.0,2
811,44.0,13.0,-49.0,-11.0,-11.0,3.0,13.0,23.0,1651070443830566.0,2
812,-7.0,-44.0,-15.0,-13.0,-9.0,-6.0,-5.0,-5.0,1651070443839474.0,2
813,63.0,22.0,25.0,-4.0,1.0,4.0,4.0,17.0,1651070443839474.0,2
814,-16.0,-9.0,-6.0,6.0,6.0,2.0,-1.0,0.0,1651070443855444.0,2
815,2.0,10.0,-6.0,11.0,5.0,5.0,0.0,1.0,1651070443855444.0,2
816,-3.0,-16.0,33.0,-11.0,-12.0,-2.0,2.0,-1.0,1651070443857427.0,2
817,17.0,11.0,-42.0,9.0,6.0,4.0,2.0,9.0,1651070443857427.0,2
818,11.0,-1.0,-21.0,-44.0,-25.0,-9.0,0.0,-4.0,1651070443876457.0,2
819,-67.0,-29.0,-14.0,16.0,0.0,-3.0,-11.0,-27.0,1651070443876457.0,2
820,68.0,60.0,76.0,47.0,36.0,10.0,8.0,13.0,1651070443878452.0,2
821,-9.0,27.0,-96.0,-53.0,3.0,5.0,3.0,0.0,1651070443878452.0,2
822,20.0,-36.0,26.0,43.0,-5.0,-2.0,6.0,21.0,1651070443890530.0,2
823,-15.0,20.0,36.0,-11.0,7.0,4.0,-4.0,-11.0,1651070443890530.0,2
824,-35.0,-21.0,-51.0,-4.0,-5.0,-1.0,-3.0,-6.0,1651070443900016.0,2
825,5.0,-12.0,10.0,-7.0,6.0,-4.0,-3.0,6.0,1651070443900016.0,2
826,-1.0,22.0,27.0,3.0,-3.0,3.0,1.0,-2.0,1651070443914804.0,2
827,20.0,22.0,-70.0,-20.0,-20.0,-20.0,-8.0,-3.0,1651070443914804.0,2
828,28.0,-31.0,-26.0,-13.0,3.0,6.0,-1.0,-7.0,1651070443916294.0,2
829,2.0,-6.0,10.0,-5.0,-16.0,-9.0,2.0,3.0,1651070443916294.0,2
830,-24.0,10.0,-2.0,5.0,14.0,3.0,-5.0,-9.0,1651070443937359.0,2
831,-15.0,-4.0,43.0,10.0,2.0,4.0,3.0,-3.0,1651070443937359.0,2
832,8.0,28.0,19.0,7.0,-7.0,-2.0,0.0,7.0,1651070443938368.0,2
833,29.0,23.0,-57.0,-13.0,-15.0,-6.0,-4.0,-2.0,1651070443938368.0,2
834,-24.0,-21.0,9.0,26.0,2.0,-1.0,2.0,8.0,1651070443950388.0,2
835,-29.0,-10.0,5.0,-19.0,1.0,5.0,-3.0,-10.0,1651070443950388.0,2
836,13.0,-14.0,-4.0,13.0,15.0,5.0,7.0,10.0,1651070443959298.0,2
837,-1.0,-12.0,28.0,5.0,5.0,4.0,6.0,1.0,1651070443959298.0,2
838,-1.0,18.0,-65.0,-21.0,-13.0,-5.0,-5.0,-9.0,1651070443974428.0,2
839,24.0,-6.0,-5.0,2.0,2.0,1.0,3.0,8.0,1651070443974428.0,2
840,-18.0,-10.0,19.0,11.0,5.0,3.0,-2.0,-9.0,1651070443976355.0,2
841,-7.0,-23.0,11.0,4.0,-2.0,-3.0,-1.0,6.0,1651070443976355.0,2
842,51.0,53.0,-22.0,-14.0,-1.0,-2.0,-2.0,-2.0,1651070443997363.0,2
843,-19.0,0.0,20.0,22.0,-4.0,0.0,-1.0,-3.0,1651070443997363.0,2
844,-10.0,-6.0,-11.0,-13.0,-9.0,-9.0,-6.0,-3.0,1651070443998367.0,2
845,-15.0,34.0,21.0,20.0,20.0,9.0,7.0,4.0,1651070443998367.0,2
846,7.0,-28.0,14.0,-22.0,-2.0,-2.0,-1.0,-5.0,1651070444010954.0,2
847,-21.0,-26.0,17.0,23.0,13.0,1.0,-2.0,-1.0,1651070444010954.0,2
848,-19.0,16.0,23.0,1.0,-11.0,-4.0,-2.0,1.0,1651070444019192.0,2
849,5.0,-2.0,0.0,11.0,13.0,4.0,-2.0,-19.0,1651070444019192.0,2
850,-4.0,-1.0,5.0,-19.0,-10.0,-2.0,0.0,10.0,1651070444034780.0,2
851,28.0,16.0,-26.0,-3.0,0.0,0.0,3.0,11.0,1651070444034780.0,2
852,35.0,-8.0,-13.0,-11.0,-10.0,-3.0,0.0,-3.0,1651070444036294.0,2
853,-29.0,11.0,20.0,3.0,-3.0,-2.0,-3.0,-4.0,1651070444036294.0,2
854,-9.0,-17.0,36.0,12.0,13.0,4.0,-2.0,-6.0,1651070444057306.0,2
855,-7.0,21.0,30.0,27.0,-3.0,-4.0,-1.0,-2.0,1651070444057306.0,2
856,2.0,-25.0,-70.0,-68.0,-8.0,-1.0,-2.0,2.0,1651070444058236.0,2
857,-10.0,-1.0,5.0,23.0,-9.0,-3.0,-3.0,-7.0,1651070444058236.0,2
858,5.0,2.0,-7.0,21.0,1.0,0.0,0.0,1.0,1651070444070231.0,2
859,12.0,16.0,16.0,6.0,9.0,0.0,-3.0,-4.0,1651070444070231.0,2
860,42.0,-3.0,-20.0,-15.0,-10.0,1.0,7.0,12.0,1651070444079187.0,2
861,-54.0,-9.0,24.0,-27.0,-16.0,-13.0,-8.0,-5.0,1651070444079187.0,2
862,-26.0,-44.0,-19.0,13.0,7.0,4.0,5.0,0.0,1651070444094285.0,2
863,3.0,12.0,4.0,-6.0,-13.0,-1.0,1.0,-2.0,1651070444094285.0,2
864,-23.0,16.0,-10.0,8.0,20.0,1.0,-1.0,-8.0,1651070444096306.0,2
865,13.0,-8.0,3.0,-12.0,-1.0,1.0,-4.0,-3.0,1651070444096306.0,2
866,12.0,23.0,45.0,24.0,4.0,-1.0,-4.0,0.0,1651070444117277.0,2
867,10.0,9.0,28.0,-6.0,-5.0,-2.0,-6.0,-12.0,1651070444117277.0,2
868,-34.0,-55.0,-1.0,25.0,-5.0,0.0,-1.0,10.0,1651070444118967.0,2
869,19.0,37.0,-25.0,-10.0,0.0,-4.0,2.0,7.0,1651070444118967.0,2
870,-4.0,5.0,29.0,-2.0,0.0,-2.0,1.0,-5.0,1651070444130946.0,2
871,-2.0,-7.0,-36.0,-26.0,-7.0,-6.0,-4.0,-3.0,1651070444130946.0,2
872,-28.0,-37.0,1.0,7.0,5.0,1.0,-1.0,-10.0,1651070444139923.0,2
873,24.0,42.0,-5.0,11.0,3.0,5.0,5.0,10.0,1651070444139923.0,2
874,12.0,11.0,32.0,23.0,10.0,6.0,1.0,0.0,1651070444154883.0,2
875,-10.0,-26.0,-42.0,-34.0,-12.0,-6.0,1.0,0.0,1651070444154883.0,2
876,10.0,29.0,44.0,1.0,-15.0,-1.0,-3.0,0.0,1651070444155961.0,2
877,-14.0,-43.0,-66.0,-10.0,15.0,6.0,0.0,-9.0,1651070444155961.0,2
878,-7.0,-3.0,-39.0,-13.0,-8.0,-3.0,-5.0,-3.0,1651070444176901.0,2
879,29.0,21.0,32.0,7.0,5.0,4.0,3.0,7.0,1651070444176901.0,2
880,-16.0,-23.0,-3.0,3.0,2.0,-3.0,-4.0,-4.0,1651070444178893.0,2
881,11.0,30.0,9.0,-4.0,-10.0,-1.0,1.0,4.0,1651070444178893.0,2
882,-53.0,-18.0,-19.0,-5.0,2.0,3.0,1.0,-4.0,1651070444190975.0,2
883,-6.0,-21.0,14.0,9.0,3.0,-1.0,-3.0,-4.0,1651070444190975.0,2
884,19.0,34.0,-18.0,-2.0,-3.0,-1.0,1.0,4.0,1651070444200063.0,2
885,8.0,-3.0,42.0,4.0,1.0,-2.0,-1.0,-3.0,1651070444200063.0,2
886,-1.0,9.0,7.0,-13.0,0.0,0.0,2.0,4.0,1651070444214759.0,2
887,-5.0,-11.0,-22.0,2.0,-3.0,-2.0,1.0,-2.0,1651070444214759.0,2
888,-10.0,21.0,3.0,-5.0,-3.0,-2.0,-1.0,-5.0,1651070444215707.0,2
889,2.0,-46.0,-52.0,-1.0,-4.0,-4.0,-2.0,-1.0,1651070444215707.0,2
890,20.0,15.0,1.0,-4.0,-9.0,-3.0,-3.0,0.0,1651070444236667.0,2
891,11.0,9.0,0.0,25.0,18.0,8.0,-1.0,4.0,1651070444236667.0,2
892,-15.0,17.0,37.0,-16.0,-15.0,-5.0,1.0,1.0,1651070444238678.0,2
893,-22.0,-16.0,-49.0,-28.0,-28.0,-11.0,-5.0,-7.0,1651070444238678.0,2
894,16.0,-30.0,9.0,-19.0,17.0,4.0,2.0,6.0,1651070444250766.0,2
895,6.0,-9.0,3.0,23.0,15.0,3.0,-1.0,3.0,1651070444250766.0,2
896,-2.0,12.0,14.0,2.0,9.0,-1.0,0.0,-2.0,1651070444259745.0,2
897,5.0,7.0,40.0,22.0,-6.0,-2.0,-2.0,0.0,1651070444259745.0,2
898,3.0,-9.0,-26.0,-13.0,-9.0,-3.0,2.0,5.0,1651070444274242.0,2
899,-28.0,1.0,-14.0,-9.0,-17.0,-6.0,-2.0,-6.0,1651070444274242.0,2
900,-10.0,-32.0,-23.0,-2.0,4.0,0.0,-1.0,-2.0,1651070444276362.0,2
901,15.0,36.0,33.0,-9.0,-4.0,-1.0,1.0,4.0,1651070444276362.0,2
902,13.0,15.0,-15.0,5.0,-1.0,1.0,-2.0,-5.0,1651070444297250.0,2
903,-61.0,-38.0,-23.0,-11.0,7.0,3.0,0.0,-2.0,1651070444297250.0,2
904,-15.0,9.0,4.0,15.0,3.0,-3.0,-5.0,-1.0,1651070444298181.0,2
905,8.0,-5.0,-2.0,5.0,6.0,5.0,2.0,-2.0,1651070444298181.0,2
906,-11.0,-8.0,6.0,4.0,0.0,-1.0,-2.0,-2.0,1651070444319191.0,2
907,31.0,35.0,23.0,-1.0,2.0,2.0,4.0,6.0,1651070444319191.0,2
908,8.0,-25.0,-43.0,-33.0,-14.0,-7.0,-2.0,-5.0,1651070444321119.0,2
909,-9.0,-9.0,-3.0,13.0,7.0,0.0,1.0,1.0,1651070444321119.0,2
910,18.0,8.0,33.0,39.0,5.0,2.0,2.0,3.0,1651070444334829.0,2
911,-8.0,-5.0,-17.0,-31.0,-18.0,-6.0,-1.0,-6.0,1651070444334829.0,2
912,4.0,16.0,1.0,21.0,17.0,6.0,0.0,1.0,1651070444336333.0,2
913,9.0,-8.0,-2.0,-8.0,-3.0,-4.0,-3.0,-2.0,1651070444336333.0,2
914,-1.0,-4.0,5.0,-9.0,-5.0,-5.0,-2.0,-7.0,1651070444357377.0,2
915,-4.0,14.0,2.0,12.0,-13.0,-6.0,-1.0,-2.0,1651070444357377.0,2
916,5.0,7.0,-28.0,-31.0,21.0,10.0,2.0,1.0,1651070444358369.0,2
917,-5.0,9.0,40.0,21.0,-2.0,-3.0,-6.0,-3.0,1651070444358369.0,2
918,4.0,-3.0,-26.0,-22.0,-2.0,0.0,0.0,2.0,1651070444379885.0,2
919,8.0,3.0,-11.0,2.0,-7.0,-1.0,-3.0,2.0,1651070444379885.0,2
920,-3.0,12.0,25.0,17.0,1.0,1.0,6.0,10.0,1651070444380885.0,2
921,5.0,4.0,13.0,0.0,2.0,2.0,1.0,-18.0,1651070444380885.0,2
922,-4.0,-21.0,-22.0,0.0,-3.0,0.0,-2.0,11.0,1651070444394999.0,2
923,-9.0,-5.0,5.0,-17.0,1.0,1.0,-3.0,-4.0,1651070444394999.0,2
924,16.0,5.0,3.0,3.0,-5.0,-6.0,-3.0,0.0,1651070444400983.0,2
925,-12.0,-42.0,-28.0,4.0,6.0,1.0,1.0,2.0,1651070444400983.0,2
926,8.0,24.0,14.0,15.0,-1.0,-5.0,0.0,-2.0,1651070444416747.0,2
927,-20.0,-33.0,-6.0,5.0,10.0,1.0,-1.0,-2.0,1651070444416747.0,2
928,-3.0,3.0,5.0,1.0,-7.0,-3.0,-1.0,-4.0,1651070444418693.0,2
929,-2.0,-16.0,-51.0,-15.0,-9.0,-3.0,2.0,7.0,1651070444418693.0,2
930,1.0,35.0,36.0,-4.0,0.0,2.0,-1.0,-5.0,1651070444439760.0,2
931,7.0,-19.0,-18.0,-20.0,-2.0,1.0,1.0,2.0,1651070444439760.0,2
932,1.0,-5.0,-6.0,29.0,6.0,1.0,-2.0,-2.0,1651070444440761.0,2
933,-11.0,12.0,-5.0,2.0,1.0,-4.0,-7.0,-3.0,1651070444440761.0,2
934,-13.0,-20.0,-12.0,-16.0,-1.0,4.0,0.0,-2.0,1651070444454235.0,2
935,21.0,19.0,-16.0,6.0,3.0,2.0,0.0,-3.0,1651070444454235.0,2
936,-1.0,-12.0,-23.0,-1.0,-13.0,-7.0,-4.0,-4.0,1651070444456232.0,2
937,-32.0,3.0,22.0,-5.0,2.0,0.0,2.0,5.0,1651070444456232.0,2
938,2.0,-15.0,-19.0,-1.0,-2.0,-4.0,0.0,-3.0,1651070444484259.0,2
939,-4.0,23.0,44.0,-4.0,0.0,1.0,0.0,0.0,1651070444484259.0,2
940,2.0,-9.0,4.0,-2.0,-7.0,-6.0,-1.0,5.0,1651070444486283.0,2
941,14.0,9.0,-16.0,-10.0,-1.0,2.0,2.0,4.0,1651070444486283.0,2
942,11.0,1.0,9.0,13.0,4.0,-2.0,0.0,6.0,1651070444499289.0,2
943,-3.0,-4.0,12.0,15.0,2.0,-7.0,-2.0,-4.0,1651070444499289.0,2
944,10.0,2.0,2.0,0.0,-1.0,11.0,3.0,3.0,1651070444501243.0,2
945,-6.0,-8.0,-2.0,-5.0,8.0,0.0,-3.0,-2.0,1651070444501243.0,2
946,-18.0,-18.0,-23.0,-22.0,-7.0,2.0,3.0,-2.0,1651070444513739.0,2
947,23.0,28.0,64.0,17.0,-14.0,-2.0,-1.0,-4.0,1651070444513739.0,2
948,-6.0,-30.0,-36.0,4.0,12.0,-2.0,1.0,-3.0,1651070444520654.0,2
949,8.0,-17.0,-4.0,-10.0,2.0,3.0,2.0,1.0,1651070444520654.0,2
950,-7.0,7.0,9.0,6.0,0.0,2.0,-4.0,-3.0,1651070444536626.0,2
951,24.0,6.0,6.0,7.0,5.0,1.0,-1.0,4.0,1651070444536626.0,2
952,-13.0,32.0,56.0,8.0,-6.0,-1.0,0.0,-4.0,1651070444538558.0,2
953,14.0,-8.0,16.0,-8.0,-6.0,-3.0,-1.0,4.0,1651070444538558.0,2
954,-13.0,-2.0,-36.0,6.0,6.0,-1.0,-2.0,-14.0,1651070444559788.0,2
955,-1.0,-25.0,-48.0,-16.0,-5.0,0.0,5.0,14.0,1651070444559788.0,2
956,24.0,40.0,32.0,12.0,-8.0,1.0,0.0,0.0,1651070444560785.0,2
957,-27.0,6.0,12.0,21.0,18.0,6.0,1.0,2.0,1651070444560785.0,2
958,17.0,7.0,-12.0,-24.0,-14.0,-8.0,-2.0,-1.0,1651070444573957.0,2
959,-13.0,7.0,11.0,4.0,4.0,-3.0,-3.0,-8.0,1651070444573957.0,2
960,5.0,-38.0,-50.0,-3.0,5.0,-2.0,-3.0,0.0,1651070444580993.0,2
961,-3.0,15.0,35.0,2.0,-7.0,-1.0,-1.0,0.0,1651070444580993.0,2
962,-12.0,0.0,11.0,0.0,-2.0,-4.0,-4.0,-5.0,1651070444596671.0,2
963,-11.0,-16.0,-25.0,-16.0,-7.0,4.0,4.0,1.0,1651070444596671.0,2
964,3.0,-4.0,-3.0,-1.0,1.0,-3.0,0.0,4.0,1651070444598669.0,2
965,26.0,38.0,26.0,6.0,2.0,-3.0,2.0,3.0,1651070444598669.0,2
966,-3.0,-29.0,-48.0,-7.0,-2.0,-4.0,-4.0,-2.0,1651070444619679.0,2
967,-2.0,2.0,2.0,-7.0,-5.0,-6.0,-2.0,-2.0,1651070444619679.0,2
968,-14.0,-5.0,-4.0,2.0,1.0,4.0,-4.0,-8.0,1651070444620610.0,2
969,14.0,22.0,13.0,9.0,-2.0,3.0,2.0,4.0,1651070444620610.0,2
970,2.0,17.0,19.0,6.0,2.0,3.0,2.0,3.0,1651070444634190.0,2
971,-5.0,-24.0,-46.0,0.0,2.0,1.0,0.0,0.0,1651070444634190.0,2
972,-1.0,-7.0,8.0,-12.0,-2.0,-2.0,-1.0,0.0,1651070444640177.0,2
973,6.0,10.0,-9.0,-5.0,-1.0,4.0,3.0,4.0,1651070444640177.0,2
974,1.0,25.0,32.0,5.0,-2.0,-2.0,-1.0,1.0,1651070444657324.0,2
975,-1.0,0.0,-5.0,-2.0,12.0,3.0,-2.0,-5.0,1651070444657324.0,2
976,-3.0,-16.0,-10.0,6.0,-5.0,0.0,1.0,6.0,1651070444658320.0,2
977,-3.0,-22.0,-5.0,-6.0,-1.0,-3.0,-3.0,-1.0,1651070444658320.0,2
978,8.0,-1.0,7.0,-4.0,-4.0,1.0,3.0,1.0,1651070444679326.0,2
979,-23.0,3.0,10.0,-7.0,-3.0,0.0,-1.0,0.0,1651070444679326.0,2
980,-12.0,9.0,-7.0,-2.0,-2.0,-3.0,-3.0,-8.0,1651070444681285.0,2
981,6.0,-4.0,-3.0,6.0,0.0,0.0,-2.0,-6.0,1651070444681285.0,2
982,0.0,-9.0,6.0,10.0,5.0,-1.0,2.0,4.0,1651070444693309.0,2
983,-2.0,0.0,13.0,9.0,11.0,2.0,-1.0,-5.0,1651070444693309.0,2
984,2.0,7.0,4.0,-10.0,-3.0,0.0,3.0,1.0,1651070444700360.0,2
985,-3.0,-13.0,-36.0,-15.0,-8.0,-3.0,-4.0,-4.0,1651070444700360.0,2
986,-1.0,-4.0,-7.0,-3.0,1.0,2.0,-1.0,1.0,1651070444717375.0,2
987,13.0,-3.0,16.0,18.0,4.0,-2.0,2.0,0.0,1651070444717375.0,2
988,-17.0,-5.0,0.0,3.0,-5.0,-7.0,-3.0,-7.0,1651070444718371.0,2
989,18.0,13.0,33.0,5.0,-3.0,3.0,4.0,8.0,1651070444718371.0,2
990,15.0,16.0,-29.0,-21.0,1.0,-1.0,-1.0,0.0,1651070444739865.0,2
991,0.0,5.0,18.0,-5.0,1.0,3.0,0.0,0.0,1651070444739865.0,2
992,4.0,-10.0,0.0,4.0,-1.0,0.0,0.0,1.0,1651070444740864.0,2
993,-10.0,6.0,2.0,9.0,0.0,-6.0,-5.0,-3.0,1651070444740864.0,2
994,-6.0,-22.0,2.0,-3.0,-1.0,0.0,-1.0,-3.0,1651070444754202.0,2
995,-3.0,1.0,-8.0,3.0,-1.0,0.0,-3.0,-2.0,1651070444754202.0,2
996,-3.0,5.0,13.0,6.0,-3.0,-2.0,1.0,-2.0,1651070444760189.0,2
997,-13.0,-45.0,-1.0,-6.0,-12.0,-3.0,0.0,-2.0,1651070444760189.0,2
998,14.0,31.0,3.0,2.0,19.0,7.0,2.0,5.0,1651070444776418.0,2
999,5.0,-10.0,-31.0,-10.0,1.0,0.0,3.0,2.0,1651070444776418.0,2
1000,-4.0,13.0,60.0,11.0,-3.0,0.0,-3.0,-5.0,1651070444778413.0,2
1001,4.0,-1.0,-43.0,-3.0,9.0,1.0,2.0,-7.0,1651070444778413.0,2
1002,-7.0,-5.0,25.0,8.0,-4.0,-3.0,-1.0,8.0,1651070444799423.0,2
1003,-1.0,-3.0,-10.0,-4.0,-15.0,-6.0,-2.0,-5.0,1651070444799423.0,2
1004,7.0,6.0,-2.0,-7.0,1.0,-2.0,0.0,4.0,1651070444801351.0,2
1005,-15.0,1.0,17.0,-1.0,-10.0,-5.0,-3.0,2.0,1651070444801351.0,2
1006,12.0,-1.0,-3.0,0.0,14.0,14.0,5.0,-6.0,1651070444813386.0,2
1007,9.0,15.0,3.0,2.0,12.0,3.0,-1.0,2.0,1651070444813386.0,2
1008,-3.0,-12.0,-4.0,-13.0,-8.0,-2.0,-1.0,-2.0,1651070444822295.0,2
1009,-4.0,1.0,-23.0,2.0,-6.0,-5.0,-3.0,-3.0,1651070444822295.0,2
1010,-10.0,-2.0,11.0,11.0,-8.0,-4.0,-5.0,-5.0,1651070444837367.0,2
1011,-6.0,-5.0,-8.0,0.0,-7.0,-5.0,-3.0,-1.0,1651070444837367.0,2
1012,4.0,-7.0,-34.0,-15.0,-12.0,-2.0,1.0,-2.0,1651070444838353.0,2
1013,11.0,9.0,-2.0,2.0,14.0,4.0,4.0,5.0,1651070444838353.0,2
1014,-19.0,7.0,38.0,6.0,5.0,1.0,0.0,-4.0,1651070444859487.0,2
1015,16.0,-2.0,-41.0,-15.0,-6.0,1.0,3.0,5.0,1651070444859487.0,2
1016,-5.0,2.0,3.0,7.0,13.0,2.0,-2.0,0.0,1651070444861416.0,2
1017,-2.0,7.0,12.0,4.0,-7.0,-3.0,-3.0,-3.0,1651070444861416.0,2
1018,7.0,-1.0,-21.0,-7.0,-4.0,-2.0,-4.0,-1.0,1651070444873451.0,2
1019,-16.0,-6.0,31.0,12.0,-1.0,0.0,-4.0,-2.0,1651070444873451.0,2
1020,5.0,0.0,-13.0,-9.0,2.0,1.0,2.0,2.0,1651070444881712.0,2
1021,2.0,-4.0,-10.0,-10.0,-3.0,-1.0,-1.0,0.0,1651070444881712.0,2
1022,-3.0,-8.0,-6.0,-12.0,-7.0,-4.0,1.0,-1.0,1651070444896668.0,2
1023,-2.0,-2.0,-5.0,-6.0,1.0,2.0,-2.0,0.0,1651070444896668.0,2
1024,13.0,2.0,-3.0,9.0,2.0,1.0,1.0,0.0,1651070444898665.0,2
1025,-6.0,3.0,11.0,1.0,2.0,-2.0,-2.0,-5.0,1651070444898665.0,2
1026,0.0,-6.0,-8.0,0.0,-11.0,-7.0,0.0,-2.0,1651070444918765.0,2
1027,4.0,-1.0,-1.0,-7.0,-1.0,-1.0,0.0,2.0,1651070444918765.0,2
1028,6.0,4.0,7.0,6.0,3.0,-1.0,-3.0,1.0,1651070444925794.0,2
1029,-11.0,-8.0,4.0,6.0,5.0,4.0,1.0,0.0,1651070444925794.0,2
1030,-7.0,-4.0,-9.0,-1.0,-3.0,1.0,2.0,-1.0,1651070444933488.0,2
1031,-1.0,-6.0,4.0,13.0,3.0,0.0,-2.0,-1.0,1651070444933488.0,2
1032,-1.0,17.0,16.0,-7.0,0.0,1.0,1.0,0.0,1651070444941606.0,2
1033,7.0,-7.0,-29.0,-7.0,0.0,2.0,2.0,1.0,1651070444941606.0,2
1034,-3.0,-13.0,-3.0,5.0,-4.0,-5.0,-1.0,-1.0,1651070444956706.0,2
1035,-9.0,0.0,8.0,-13.0,-1.0,-1.0,-2.0,-3.0,1651070444956706.0,2
1036,-7.0,-3.0,-9.0,-4.0,-2.0,1.0,-2.0,0.0,1651070444958660.0,2
1037,3.0,8.0,23.0,9.0,4.0,3.0,-1.0,0.0,1651070444958660.0,2
1038,1.0,1.0,5.0,9.0,-1.0,0.0,-1.0,2.0,1651070444979464.0,2
1039,1.0,0.0,-8.0,-16.0,0.0,0.0,0.0,1.0,1651070444979464.0,2
1040,-1.0,-1.0,-6.0,0.0,-1.0,1.0,0.0,0.0,1651070444981486.0,2
1041,-12.0,0.0,-5.0,-1.0,1.0,1.0,0.0,0.0,1651070444981486.0,2
1042,4.0,6.0,9.0,11.0,-1.0,-1.0,-1.0,-2.0,1651070444992618.0,2
1043,-1.0,-13.0,5.0,10.0,-1.0,-3.0,0.0,-2.0,1651070444992618.0,2
1044,-7.0,-3.0,-6.0,4.0,-4.0,-4.0,2.0,-3.0,1651070445001683.0,2
1045,12.0,2.0,6.0,0.0,-5.0,-1.0,0.0,2.0,1651070445001683.0,2
1046,-4.0,-1.0,1.0,-4.0,9.0,3.0,-1.0,0.0,1651070445016713.0,2
1047,5.0,9.0,0.0,-10.0,2.0,1.0,1.0,-1.0,1651070445016713.0,2
1048,-2.0,-11.0,-15.0,-8.0,-3.0,-2.0,-2.0,-4.0,1651070445018668.0,2
1049,4.0,-8.0,-14.0,-5.0,4.0,0.0,-3.0,-2.0,1651070445018668.0,2
1050,-10.0,4.0,12.0,6.0,-1.0,-4.0,-3.0,-1.0,1651070445039345.0,2
1051,0.0,1.0,7.0,13.0,-5.0,-3.0,-1.0,-2.0,1651070445039345.0,2
1052,3.0,8.0,3.0,-2.0,-4.0,-1.0,0.0,0.0,1651070445041370.0,2
1053,-1.0,-2.0,-26.0,-12.0,-5.0,-1.0,-1.0,-3.0,1651070445041370.0,2
1054,-2.0,0.0,-10.0,-15.0,-3.0,2.0,0.0,1.0,1651070445053551.0,2
1055,-3.0,2.0,12.0,2.0,7.0,4.0,2.0,2.0,1651070445053551.0,2
1056,-3.0,-1.0,-5.0,-4.0,1.0,-2.0,-2.0,-1.0,1651070445062522.0,2
1057,-1.0,0.0,1.0,-6.0,-6.0,-4.0,-5.0,-3.0,1651070445062522.0,2
1058,3.0,-1.0,2.0,14.0,6.0,1.0,2.0,2.0,1651070445076552.0,2
1059,-1.0,2.0,4.0,21.0,3.0,0.0,0.0,1.0,1651070445076552.0,2
1060,-1.0,-3.0,-2.0,-19.0,-2.0,0.0,1.0,0.0,1651070445078479.0,2
1061,-1.0,5.0,5.0,-22.0,-12.0,-3.0,-2.0,-3.0,1651070445078479.0,2
1062,9.0,2.0,-11.0,2.0,4.0,-1.0,3.0,1.0,1651070445099728.0,2
1063,-5.0,-3.0,1.0,9.0,1.0,-1.0,-1.0,-2.0,1651070445099728.0,2
1064,7.0,-8.0,2.0,10.0,6.0,1.0,0.0,0.0,1651070445100728.0,2
1065,-12.0,-6.0,-12.0,-3.0,-7.0,-6.0,-1.0,-2.0,1651070445100728.0,2
1066,0.0,15.0,10.0,-28.0,-1.0,0.0,-3.0,0.0,1651070445112816.0,2
1067,2.0,-16.0,-14.0,35.0,2.0,0.0,0.0,1.0,1651070445112816.0,2
1068,1.0,4.0,0.0,-10.0,8.0,0.0,0.0,1.0,1651070445121564.0,2
1069,4.0,3.0,20.0,54.0,2.0,6.0,4.0,3.0,1651070445121564.0,2
1070,-1.0,-11.0,-12.0,-18.0,-1.0,-7.0,-3.0,-5.0,1651070445136772.0,2
1071,-1.0,7.0,-5.0,-33.0,-5.0,-1.0,0.0,1.0,1651070445136772.0,2
1072,1.0,0.0,-17.0,-35.0,-12.0,-1.0,-3.0,0.0,1651070445138701.0,2
1073,-2.0,-9.0,-9.0,-15.0,3.0,1.0,-2.0,-3.0,1651070445138701.0,2
1074,-3.0,-3.0,7.0,37.0,-5.0,-1.0,-2.0,-1.0,1651070445159835.0,2
1075,7.0,2.0,0.0,-8.0,2.0,-1.0,-2.0,-2.0,1651070445159835.0,2
1076,-8.0,2.0,6.0,5.0,2.0,-1.0,2.0,-2.0,1651070445160778.0,2
1077,-5.0,4.0,8.0,16.0,6.0,0.0,0.0,1.0,1651070445160778.0,2
1078,-6.0,-10.0,-2.0,1.0,1.0,2.0,-1.0,1.0,1651070445172749.0,2
1079,-2.0,1.0,6.0,-11.0,-10.0,-4.0,-3.0,-3.0,1651070445172749.0,2
1080,-3.0,-5.0,-22.0,-41.0,-15.0,-3.0,-3.0,-1.0,1651070445181841.0,2
1081,5.0,3.0,6.0,19.0,6.0,0.0,0.0,0.0,1651070445181841.0,2
1082,-2.0,-4.0,10.0,-3.0,-4.0,-1.0,0.0,-2.0,1651070445197001.0,2
1083,0.0,6.0,-6.0,3.0,-3.0,0.0,1.0,0.0,1651070445197001.0,2
1084,2.0,3.0,-4.0,-1.0,12.0,4.0,0.0,0.0,1651070445197998.0,2
1085,3.0,2.0,-1.0,-18.0,-2.0,1.0,2.0,0.0,1651070445197998.0,2
1086,2.0,-1.0,-4.0,20.0,-8.0,-3.0,-2.0,0.0,1651070445219156.0,2
1087,-1.0,-1.0,13.0,-20.0,0.0,-3.0,-2.0,0.0,1651070445219156.0,2
1088,-1.0,-2.0,0.0,31.0,-5.0,-4.0,-1.0,0.0,1651070445221146.0,2
1089,3.0,-2.0,-1.0,-14.0,18.0,8.0,1.0,2.0,1651070445221146.0,2
1090,1.0,1.0,2.0,2.0,4.0,-1.0,0.0,0.0,1651070445233266.0,2
1091,2.0,0.0,-2.0,12.0,3.0,1.0,0.0,1.0,1651070445233266.0,2
1092,6.0,1.0,19.0,48.0,-2.0,-2.0,-1.0,-2.0,1651070445242183.0,2
1093,-9.0,-3.0,-12.0,-34.0,-15.0,-8.0,-3.0,-2.0,1651070445242183.0,2
1094,0.0,-6.0,-10.0,-21.0,-5.0,-1.0,-2.0,-3.0,1651070445257340.0,2
1095,-2.0,2.0,11.0,25.0,5.0,1.0,-2.0,-1.0,1651070445257340.0,2
1096,3.0,5.0,-3.0,-13.0,8.0,-1.0,0.0,1.0,1651070445258288.0,2
1097,-6.0,-9.0,-6.0,2.0,-6.0,-3.0,-2.0,-3.0,1651070445258288.0,2
1098,0.0,-2.0,-19.0,-19.0,-7.0,-2.0,0.0,-1.0,1651070445279364.0,2
1099,-2.0,-5.0,-9.0,-12.0,-5.0,-2.0,-2.0,-1.0,1651070445279364.0,2
1100,-6.0,-5.0,13.0,27.0,8.0,3.0,1.0,0.0,1651070445281360.0,2
1101,5.0,6.0,11.0,5.0,3.0,-1.0,0.0,3.0,1651070445281360.0,2
1102,-2.0,-2.0,4.0,9.0,2.0,3.0,0.0,0.0,1651070445301697.0,2
1103,3.0,0.0,-8.0,-15.0,-4.0,1.0,-2.0,1.0,1651070445301697.0,2
1104,-3.0,0.0,3.0,2.0,-7.0,-2.0,-1.0,0.0,1651070445303694.0,2
1105,-1.0,4.0,4.0,13.0,23.0,6.0,-2.0,-1.0,1651070445303694.0,2
1106,1.0,-7.0,0.0,6.0,-3.0,-1.0,0.0,-1.0,1651070445317780.0,2
1107,1.0,4.0,0.0,-6.0,4.0,3.0,2.0,0.0,1651070445317780.0,2
1108,0.0,0.0,-14.0,-10.0,-11.0,0.0,0.0,-2.0,1651070445318690.0,2
1109,3.0,1.0,17.0,5.0,-2.0,-5.0,1.0,1.0,1651070445318690.0,2
1110,-2.0,-1.0,-14.0,-13.0,0.0,-1.0,0.0,-1.0,1651070445339683.0,2
1111,-4.0,-5.0,-2.0,-8.0,-2.0,-3.0,0.0,-2.0,1651070445339683.0,2
1112,-2.0,-1.0,-3.0,23.0,9.0,-1.0,-1.0,-3.0,1651070445340687.0,2
1113,0.0,4.0,8.0,-24.0,-15.0,-4.0,-1.0,0.0,1651070445340687.0,2
1114,-1.0,-4.0,3.0,22.0,-5.0,0.0,-2.0,0.0,1651070445369476.0,2
1115,0.0,5.0,13.0,0.0,5.0,2.0,0.0,-2.0,1651070445369476.0,2
1116,0.0,-2.0,2.0,-4.0,-6.0,-3.0,-2.0,0.0,1651070445371447.0,2
1117,1.0,-1.0,-9.0,-6.0,-2.0,-2.0,-2.0,-3.0,1651070445371447.0,2
1118,0.0,3.0,6.0,-4.0,5.0,1.0,2.0,-2.0,1651070445376434.0,2
1119,-1.0,-2.0,-3.0,-1.0,-6.0,-4.0,-1.0,-2.0,1651070445376434.0,2
1120,-3.0,-4.0,-12.0,-13.0,-3.0,1.0,1.0,-2.0,1651070445383430.0,2
1121,2.0,2.0,6.0,11.0,-2.0,0.0,1.0,1.0,1651070445383430.0,2
1122,-3.0,-5.0,-16.0,-16.0,-8.0,-3.0,-3.0,0.0,1651070445399651.0,2
1123,-1.0,5.0,-5.0,8.0,1.0,0.0,-1.0,2.0,1651070445399651.0,2
1124,-2.0,2.0,5.0,-16.0,3.0,0.0,1.0,0.0,1651070445400617.0,2
1125,1.0,-5.0,-3.0,5.0,-2.0,0.0,1.0,0.0,1651070445400617.0,2
1126,-2.0,2.0,18.0,23.0,9.0,0.0,-1.0,-1.0,1651070445421503.0,2
1127,-2.0,-2.0,-3.0,1.0,-4.0,-2.0,0.0,-2.0,1651070445421503.0,2
1128,-1.0,4.0,10.0,-1.0,0.0,5.0,0.0,3.0,1651070445423500.0,2
1129,0.0,-4.0,-11.0,-10.0,6.0,1.0,-1.0,0.0,1651070445423500.0,2
1130,2.0,8.0,13.0,2.0,-1.0,-3.0,-2.0,0.0,1651070445436681.0,2
1131,-4.0,-5.0,0.0,9.0,3.0,1.0,-1.0,-2.0,1651070445436681.0,2
1132,-3.0,-4.0,-6.0,-14.0,-3.0,-3.0,-2.0,0.0,1651070445442639.0,2
1133,-1.0,0.0,-8.0,-3.0,-5.0,-1.0,-2.0,0.0,1651070445442639.0,2
1134,2.0,-1.0,-1.0,-1.0,0.0,3.0,2.0,1.0,1651070445459747.0,2
1135,1.0,2.0,1.0,-5.0,0.0,-1.0,1.0,0.0,1651070445459747.0,2
1136,-1.0,2.0,3.0,18.0,-2.0,-3.0,1.0,2.0,1651070445460678.0,2
1137,1.0,5.0,10.0,-16.0,-6.0,5.0,2.0,1.0,1651070445460678.0,2
1138,-3.0,-7.0,-10.0,7.0,2.0,-5.0,-2.0,-1.0,1651070445482751.0,2
1139,-2.0,-5.0,-4.0,-6.0,0.0,1.0,-1.0,-1.0,1651070445482751.0,2
1140,0.0,-2.0,-7.0,0.0,8.0,0.0,-1.0,-1.0,1651070445483666.0,2
1141,0.0,2.0,8.0,11.0,-1.0,-2.0,0.0,0.0,1651070445483666.0,2
1142,1.0,5.0,4.0,-18.0,-5.0,-3.0,-2.0,-1.0,1651070445495788.0,2
1143,0.0,2.0,-5.0,-13.0,-10.0,-4.0,0.0,-2.0,1651070445495788.0,2
1144,1.0,2.0,7.0,21.0,18.0,6.0,1.0,-1.0,1651070445502824.0,2
1145,0.0,0.0,1.0,11.0,2.0,3.0,-2.0,-1.0,1651070445502824.0,2
1146,-1.0,-1.0,6.0,0.0,1.0,8.0,3.0,-1.0,1651070445519422.0,2
1147,-1.0,-3.0,-11.0,-11.0,5.0,0.0,-1.0,-1.0,1651070445519422.0,2
1148,0.0,-2.0,-3.0,-3.0,-10.0,-4.0,-2.0,-2.0,1651070445521374.0,2
1149,-1.0,-3.0,-7.0,-1.0,-1.0,-3.0,-1.0,-2.0,1651070445521374.0,2
1150,0.0,1.0,1.0,-2.0,2.0,-1.0,-1.0,0.0,1651070445542379.0,2
1151,0.0,0.0,4.0,-9.0,-9.0,-4.0,-1.0,1.0,1651070445542379.0,2
1152,-1.0,2.0,-2.0,7.0,-9.0,-1.0,-2.0,1.0,1651070445543353.0,2
1153,0.0,1.0,-2.0,2.0,17.0,1.0,1.0,-2.0,1651070445543353.0,2
1154,-1.0,-1.0,5.0,3.0,-10.0,-2.0,-1.0,-1.0,1651070445556319.0,2
1155,0.0,5.0,7.0,4.0,-1.0,-5.0,-2.0,-1.0,1651070445556319.0,2
1156,-4.0,-18.0,-9.0,16.0,16.0,8.0,0.0,0.0,1651070445563329.0,2
1157,-2.0,-2.0,-5.0,-27.0,-5.0,-2.0,0.0,0.0,1651070445563329.0,2
1158,1.0,2.0,5.0,4.0,1.0,-1.0,1.0,2.0,1651070445579385.0,2
1159,-3.0,-3.0,-11.0,-9.0,-3.0,1.0,-2.0,0.0,1651070445579385.0,2
1160,1.0,4.0,2.0,-1.0,-7.0,-5.0,-3.0,-2.0,1651070445581402.0,2
1161,1.0,0.0,-13.0,-7.0,-4.0,-3.0,0.0,-1.0,1651070445581402.0,2
1162,0.0,0.0,15.0,22.0,9.0,2.0,0.0,1.0,1651070445601678.0,2
1163,0.0,-2.0,-1.0,18.0,5.0,-1.0,2.0,-1.0,1651070445601678.0,2
1164,0.0,3.0,0.0,-25.0,-2.0,3.0,2.0,-2.0,1651070445603699.0,2
1165,-2.0,-4.0,1.0,4.0,-4.0,-2.0,1.0,1.0,1651070445603699.0,2
1166,-1.0,1.0,-7.0,-20.0,-8.0,-1.0,0.0,-3.0,1651070445616667.0,2
1167,0.0,-1.0,-1.0,7.0,-2.0,-2.0,0.0,1.0,1651070445616667.0,2
1168,0.0,1.0,2.0,1.0,-2.0,-3.0,-2.0,-1.0,1651070445622642.0,2
1169,-1.0,1.0,0.0,3.0,-3.0,2.0,-2.0,-1.0,1651070445622642.0,2
1170,0.0,0.0,-4.0,2.0,0.0,-1.0,-1.0,0.0,1651070445639723.0,2
1171,-2.0,-4.0,0.0,-5.0,-4.0,-1.0,-3.0,-2.0,1651070445639723.0,2
1172,0.0,-3.0,1.0,-4.0,-1.0,0.0,-1.0,1.0,1651070445640693.0,2
1173,0.0,1.0,5.0,19.0,4.0,-1.0,-1.0,0.0,1651070445640693.0,2
1174,-1.0,-4.0,-12.0,-19.0,4.0,1.0,-1.0,1.0,1651070445661443.0,2
1175,0.0,0.0,3.0,2.0,2.0,3.0,0.0,0.0,1651070445661443.0,2
1176,1.0,1.0,1.0,-5.0,-9.0,-5.0,1.0,0.0,1651070445663443.0,2
1177,0.0,-3.0,-4.0,4.0,-5.0,-1.0,0.0,-1.0,1651070445663443.0,2
1178,0.0,-1.0,-1.0,-6.0,-7.0,0.0,1.0,0.0,1651070445676476.0,2
1179,-1.0,-2.0,2.0,1.0,7.0,0.0,0.0,0.0,1651070445676476.0,2
1180,-3.0,-5.0,-5.0,4.0,-2.0,-2.0,-2.0,-2.0,1651070445683461.0,2
1181,-3.0,-3.0,8.0,14.0,2.0,0.0,-2.0,-3.0,1651070445683461.0,2
1182,-1.0,-1.0,-8.0,-7.0,-6.0,-1.0,0.0,-1.0,1651070445699543.0,2
1183,-2.0,2.0,1.0,-9.0,-7.0,-3.0,0.0,1.0,1651070445699543.0,2
1184,2.0,3.0,-8.0,1.0,6.0,-2.0,-1.0,-2.0,1651070445701474.0,2
1185,-1.0,1.0,3.0,-1.0,2.0,1.0,-2.0,0.0,1651070445701474.0,2
1186,-1.0,-5.0,-8.0,-9.0,3.0,-2.0,-5.0,-3.0,1651070445721680.0,2
1187,-1.0,0.0,2.0,7.0,2.0,1.0,1.0,0.0,1651070445721680.0,2
1188,-1.0,3.0,1.0,-7.0,-3.0,-3.0,1.0,0.0,1651070445723719.0,2
1189,0.0,-3.0,-14.0,-3.0,-5.0,-2.0,-1.0,1.0,1651070445723719.0,2
1190,0.0,7.0,20.0,-2.0,-15.0,-4.0,-4.0,-3.0,1651070445735323.0,2
1191,0.0,1.0,2.0,10.0,14.0,8.0,0.0,1.0,1651070445735323.0,2
1192,0.0,-2.0,-5.0,-9.0,-3.0,0.0,2.0,-1.0,1651070445744301.0,2
1193,0.0,-1.0,-2.0,-5.0,0.0,-2.0,-1.0,-1.0,1651070445744301.0,2
1194,0.0,-2.0,-8.0,-6.0,4.0,-1.0,2.0,1.0,1651070445760116.0,2
1195,1.0,-2.0,0.0,-2.0,-9.0,-2.0,-2.0,-1.0,1651070445760116.0,2
1196,-1.0,1.0,2.0,1.0,-2.0,1.0,-1.0,-1.0,1651070445761087.0,2
1197,-1.0,-2.0,3.0,7.0,3.0,1.0,0.0,0.0,1651070445761087.0,2
1198,-1.0,0.0,-1.0,9.0,-3.0,-1.0,-2.0,0.0,1651070445781682.0,2
1199,-2.0,-2.0,1.0,-9.0,-2.0,-1.0,-2.0,-1.0,1651070445781682.0,2
1200,-2.0,0.0,-1.0,-3.0,1.0,1.0,0.0,2.0,1651070445783679.0,2
1201,-1.0,0.0,-1.0,1.0,-3.0,-1.0,0.0,-1.0,1651070445783679.0,2
1202,1.0,-1.0,-4.0,3.0,9.0,1.0,1.0,-1.0,1651070445795674.0,2
1203,2.0,7.0,7.0,-1.0,-5.0,2.0,1.0,1.0,1651070445795674.0,2
1204,-3.0,-15.0,-19.0,-8.0,-2.0,-2.0,-4.0,-1.0,1651070445804623.0,2
1205,0.0,-2.0,4.0,16.0,0.0,-1.0,-3.0,0.0,1651070445804623.0,2
1206,0.0,-1.0,6.0,3.0,5.0,-1.0,-1.0,0.0,1651070445819734.0,2
1207,-1.0,-3.0,-13.0,-7.0,-1.0,-2.0,-1.0,-1.0,1651070445819734.0,2
1208,1.0,6.0,10.0,-1.0,-5.0,-3.0,-1.0,-2.0,1651070445820734.0,2
1209,-2.0,-2.0,4.0,-3.0,-9.0,-3.0,1.0,0.0,1651070445820734.0,2
1210,-1.0,-4.0,-7.0,5.0,10.0,-1.0,1.0,-2.0,1651070445842366.0,2
1211,0.0,1.0,2.0,-6.0,4.0,4.0,2.0,-2.0,1651070445842366.0,2
1212,-1.0,-2.0,6.0,10.0,-6.0,-3.0,-3.0,2.0,1651070445843366.0,2
1213,-1.0,-2.0,-7.0,-8.0,-1.0,-1.0,-2.0,0.0,1651070445843366.0,2
1214,-1.0,1.0,3.0,0.0,-10.0,-3.0,-1.0,1.0,1651070445855400.0,2
1215,-2.0,-3.0,-6.0,-1.0,5.0,0.0,0.0,-1.0,1651070445855400.0,2
1216,2.0,3.0,6.0,-1.0,6.0,3.0,2.0,0.0,1651070445871689.0,2
1217,0.0,2.0,4.0,6.0,-5.0,0.0,-1.0,-2.0,1651070445871689.0,2
1218,-1.0,-3.0,-14.0,-15.0,4.0,1.0,1.0,-1.0,1651070445879687.0,2
1219,-2.0,-4.0,-5.0,4.0,-3.0,-4.0,-2.0,-2.0,1651070445879687.0,2
1220,0.0,2.0,0.0,1.0,-3.0,0.0,2.0,0.0,1651070445880673.0,2
1221,1.0,-3.0,1.0,-6.0,-1.0,-2.0,-3.0,-3.0,1651070445880673.0,2
1222,0.0,3.0,3.0,5.0,-3.0,-1.0,-1.0,0.0,1651070445902360.0,2
1223,-1.0,-7.0,-10.0,2.0,-1.0,0.0,-1.0,1.0,1651070445902360.0,2
1224,1.0,1.0,0.0,1.0,2.0,0.0,0.0,0.0,1651070445903360.0,2
1225,1.0,5.0,1.0,-3.0,-1.0,1.0,0.0,-1.0,1651070445903360.0,2
1226,-3.0,0.0,2.0,1.0,2.0,2.0,1.0,0.0,1651070445915444.0,2
1227,0.0,1.0,4.0,2.0,-2.0,-1.0,0.0,-1.0,1651070445915444.0,2
1228,-1.0,-1.0,-3.0,-4.0,-10.0,-5.0,-2.0,-1.0,1651070445924687.0,2
1229,-2.0,-4.0,-5.0,-3.0,8.0,-1.0,-1.0,-1.0,1651070445924687.0,2
1230,0.0,-1.0,-2.0,-4.0,13.0,8.0,1.0,-1.0,1651070445939710.0,2
1231,-1.0,3.0,8.0,2.0,-6.0,-3.0,-1.0,0.0,1651070445939710.0,2
1232,1.0,-6.0,-10.0,5.0,1.0,0.0,-1.0,-1.0,1651070445940640.0,2
1233,-1.0,0.0,1.0,-5.0,-13.0,-3.0,-1.0,2.0,1651070445940640.0,2
1234,0.0,2.0,-5.0,-5.0,-2.0,-6.0,-3.0,0.0,1651070445961831.0,2
1235,1.0,-1.0,0.0,1.0,6.0,2.0,0.0,-1.0,1651070445961831.0,2
1236,1.0,3.0,6.0,-4.0,-7.0,-6.0,-2.0,-1.0,1651070445963757.0,2
1237,0.0,2.0,-3.0,5.0,1.0,0.0,1.0,0.0,1651070445963757.0,2
1238,-1.0,-4.0,-4.0,8.0,12.0,4.0,0.0,1.0,1651070445975233.0,2
1239,1.0,-1.0,0.0,-2.0,-7.0,-1.0,-2.0,-1.0,1651070445975233.0,2
1240,-1.0,-3.0,0.0,0.0,8.0,2.0,0.0,-2.0,1651070445984187.0,2
1241,-1.0,-1.0,-2.0,-7.0,-4.0,1.0,1.0,-2.0,1651070445984187.0,2
1242,-1.0,-1.0,2.0,3.0,-4.0,-2.0,-1.0,-1.0,1651070445999589.0,2
1243,-3.0,-3.0,-4.0,-3.0,1.0,-1.0,-1.0,-1.0,1651070445999589.0,2
1244,0.0,3.0,6.0,1.0,1.0,2.0,1.0,0.0,1651070446005925.0,2
1245,-2.0,-1.0,-3.0,-2.0,5.0,0.0,0.0,-2.0,1651070446005925.0,2
1246,-1.0,1.0,0.0,-2.0,-6.0,-3.0,0.0,-1.0,1651070446021817.0,2
1247,0.0,-1.0,-1.0,1.0,3.0,0.0,-2.0,1.0,1651070446021817.0,2
1248,0.0,-1.0,1.0,2.0,-1.0,-2.0,0.0,2.0,1651070446023745.0,2
1249,1.0,0.0,-2.0,-3.0,-14.0,-2.0,-1.0,0.0,1651070446023745.0,2
1250,-2.0,-2.0,-1.0,0.0,9.0,1.0,1.0,-3.0,1651070446036457.0,2
1251,0.0,2.0,1.0,1.0,5.0,2.0,1.0,1.0,1651070446036457.0,2
1252,-1.0,1.0,1.0,8.0,-1.0,0.0,1.0,-1.0,1651070446044193.0,2
1253,1.0,-2.0,-1.0,4.0,2.0,-2.0,-3.0,0.0,1651070446044193.0,2
1254,-1.0,-6.0,-5.0,-4.0,-16.0,-4.0,-3.0,-1.0,1651070446059268.0,2
1255,-2.0,-1.0,1.0,-4.0,-1.0,-1.0,-1.0,-1.0,1651070446059268.0,2
1256,0.0,-1.0,-1.0,-2.0,4.0,-2.0,0.0,-1.0,1651070446061232.0,2
1257,-2.0,-1.0,-3.0,-3.0,-2.0,-1.0,-1.0,0.0,1651070446061232.0,2
1258,0.0,0.0,3.0,1.0,-4.0,1.0,0.0,2.0,1651070446081776.0,2
1259,-1.0,1.0,4.0,14.0,11.0,4.0,2.0,0.0,1651070446081776.0,2
1260,-1.0,0.0,-7.0,-15.0,-5.0,0.0,-1.0,0.0,1651070446083773.0,2
1261,-1.0,-3.0,4.0,3.0,0.0,-2.0,-2.0,-1.0,1651070446083773.0,2
1262,0.0,-4.0,-3.0,-2.0,-3.0,-3.0,1.0,1.0,1651070446095874.0,2
1263,-1.0,-2.0,-4.0,-3.0,-5.0,-3.0,-2.0,-2.0,1651070446095874.0,2
1264,-2.0,0.0,-1.0,3.0,0.0,-2.0,-2.0,-1.0,1651070446104852.0,2
1265,-2.0,0.0,-1.0,-6.0,6.0,4.0,2.0,1.0,1651070446104852.0,2
1266,-3.0,2.0,2.0,1.0,-2.0,1.0,-1.0,0.0,1651070446119033.0,2
1267,0.0,-1.0,-3.0,-2.0,-1.0,-2.0,0.0,-2.0,1651070446119033.0,2
1268,0.0,-2.0,5.0,-1.0,-3.0,-2.0,-3.0,-1.0,1651070446120962.0,2
1269,1.0,0.0,4.0,14.0,6.0,0.0,0.0,1.0,1651070446120962.0,2
1270,2.0,1.0,0.0,4.0,13.0,6.0,0.0,-1.0,1651070446142154.0,2
1271,0.0,-2.0,-6.0,-12.0,-7.0,-3.0,1.0,-1.0,1651070446142154.0,2
1272,-1.0,-1.0,-1.0,-5.0,-3.0,-1.0,0.0,-2.0,1651070446148200.0,2
1273,1.0,-1.0,-5.0,-4.0,-6.0,-3.0,0.0,2.0,1651070446148200.0,2
1274,-1.0,1.0,0.0,1.0,-9.0,-7.0,-1.0,-1.0,1651070446155950.0,2
1275,0.0,-1.0,1.0,-1.0,5.0,2.0,-2.0,2.0,1651070446155950.0,2
1276,-2.0,-1.0,-1.0,4.0,2.0,4.0,-1.0,1.0,1651070446164750.0,2
1277,0.0,-1.0,0.0,-3.0,3.0,4.0,-2.0,-1.0,1651070446164750.0,2
1278,0.0,-1.0,-1.0,-3.0,-4.0,-3.0,-2.0,-1.0,1651070446179709.0,2
1279,-1.0,-4.0,3.0,2.0,-4.0,1.0,0.0,-1.0,1651070446179709.0,2
1280,1.0,-5.0,-11.0,6.0,4.0,-2.0,2.0,-1.0,1651070446180724.0,2
1281,-2.0,3.0,3.0,-4.0,-2.0,-2.0,-1.0,-2.0,1651070446180724.0,2
1282,-2.0,-7.0,-7.0,-6.0,-8.0,-4.0,-1.0,-1.0,1651070446202334.0,2
1283,0.0,2.0,0.0,-1.0,-3.0,-2.0,0.0,3.0,1651070446202334.0,2
1284,-1.0,-2.0,4.0,4.0,5.0,3.0,-1.0,0.0,1651070446203346.0,2
1285,0.0,2.0,3.0,-6.0,4.0,3.0,0.0,0.0,1651070446203346.0,2
1286,0.0,4.0,-3.0,5.0,-1.0,-2.0,-1.0,-1.0,1651070446225337.0,2
1287,-2.0,-2.0,4.0,2.0,1.0,5.0,1.0,0.0,1651070446225337.0,2
1288,1.0,-1.0,-2.0,6.0,9.0,-1.0,2.0,0.0,1651070446230324.0,2
1289,2.0,0.0,-8.0,-16.0,-2.0,-2.0,-1.0,1.0,1651070446230324.0,2
1290,1.0,2.0,7.0,-1.0,4.0,-1.0,0.0,1.0,1651070446239418.0,2
1291,-1.0,1.0,1.0,0.0,-8.0,-4.0,-3.0,-1.0,1651070446239418.0,2
1292,1.0,0.0,-1.0,2.0,-7.0,0.0,0.0,0.0,1651070446241408.0,0
1293,-1.0,-5.0,4.0,-3.0,-2.0,1.0,0.0,-3.0,1651070446241408.0,0
1294,1.0,0.0,-5.0,1.0,0.0,-1.0,-1.0,-1.0,1651070446261727.0,0
1295,0.0,-4.0,8.0,2.0,-1.0,0.0,0.0,-3.0,1651070446261727.0,0
1296,-3.0,2.0,-5.0,-1.0,-13.0,-7.0,-6.0,-3.0,1651070446263655.0,0
1297,0.0,0.0,3.0,1.0,16.0,3.0,1.0,0.0,1651070446263655.0,0
1298,-1.0,-5.0,-2.0,3.0,10.0,8.0,0.0,0.0,1651070446284624.0,0
1299,1.0,6.0,10.0,-4.0,0.0,0.0,0.0,1.0,1651070446284624.0,0
1300,-2.0,2.0,2.0,2.0,-6.0,-2.0,-2.0,-1.0,1651070446290735.0,0
1301,-4.0,-10.0,17.0,7.0,-9.0,-6.0,-1.0,-1.0,1651070446290735.0,0
1302,-1.0,-2.0,-37.0,-7.0,-4.0,-5.0,-3.0,-1.0,1651070446299768.0,0
1303,-2.0,1.0,-7.0,-5.0,-4.0,-1.0,-1.0,1.0,1651070446299768.0,3
1304,0.0,-1.0,4.0,-4.0,3.0,-1.0,1.0,1.0,1651070446300722.0,3
1305,0.0,1.0,-10.0,4.0,1.0,1.0,0.0,-1.0,1651070446300722.0,3
1306,0.0,0.0,17.0,-1.0,-2.0,-1.0,-2.0,0.0,1651070446321563.0,3
1307,0.0,1.0,17.0,4.0,-5.0,-2.0,0.0,-1.0,1651070446321563.0,3
1308,-4.0,-9.0,-21.0,-6.0,-3.0,-1.0,-1.0,-1.0,1651070446323560.0,3
1309,1.0,3.0,-3.0,1.0,4.0,-1.0,-1.0,-1.0,1651070446323560.0,3
1310,3.0,9.0,21.0,5.0,6.0,4.0,1.0,0.0,1651070446344880.0,3
1311,0.0,-3.0,-2.0,-1.0,7.0,0.0,1.0,0.0,1651070446344880.0,3
1312,1.0,-2.0,6.0,-8.0,-6.0,2.0,0.0,0.0,1651070446345828.0,3
1313,-2.0,-3.0,-26.0,-3.0,16.0,0.0,-1.0,0.0,1651070446345828.0,3
1314,-3.0,-12.0,11.0,11.0,-14.0,-8.0,-3.0,-1.0,1651070446358860.0,3
1315,1.0,15.0,9.0,6.0,-2.0,-2.0,-2.0,-2.0,1651070446358860.0,3
1316,2.0,4.0,30.0,8.0,4.0,-1.0,0.0,0.0,1651070446365842.0,3
1317,-1.0,8.0,-9.0,-13.0,-11.0,3.0,2.0,-1.0,1651070446365842.0,3
1318,2.0,2.0,-2.0,-6.0,14.0,-2.0,2.0,-1.0,1651070446382059.0,3
1319,-1.0,-17.0,-16.0,2.0,-1.0,2.0,0.0,-1.0,1651070446382059.0,3
1320,-1.0,-3.0,-11.0,0.0,5.0,0.0,1.0,1.0,1651070446383064.0,3
1321,2.0,4.0,15.0,0.0,-13.0,-4.0,-3.0,-2.0,1651070446383064.0,3
1322,0.0,6.0,-1.0,-6.0,-10.0,-1.0,-1.0,-1.0,1651070446404351.0,3
1323,-3.0,1.0,17.0,-1.0,-5.0,-5.0,-2.0,-4.0,1651070446404351.0,3
1324,-3.0,-4.0,-17.0,-4.0,0.0,-4.0,1.0,-1.0,1651070446406330.0,3
1325,9.0,11.0,15.0,11.0,12.0,16.0,4.0,7.0,1651070446406330.0,3
1326,1.0,-15.0,-20.0,2.0,20.0,9.0,3.0,4.0,1651070446419181.0,3
1327,2.0,-4.0,-8.0,18.0,-1.0,-4.0,0.0,1.0,1651070446419181.0,3
1328,-1.0,2.0,1.0,-9.0,-7.0,-5.0,0.0,-2.0,1651070446425169.0,3
1329,-8.0,2.0,12.0,4.0,-1.0,-3.0,-4.0,-4.0,1651070446425169.0,3
1330,-2.0,1.0,-2.0,-4.0,-1.0,0.0,-2.0,-2.0,1651070446441564.0,3
1331,1.0,0.0,5.0,-9.0,-4.0,-2.0,0.0,1.0,1651070446441564.0,3
1332,0.0,4.0,11.0,3.0,-3.0,-3.0,-1.0,-1.0,1651070446443558.0,3
1333,-3.0,-16.0,-22.0,-8.0,-5.0,-4.0,-2.0,-1.0,1651070446443558.0,3
1334,2.0,11.0,14.0,2.0,1.0,4.0,-1.0,2.0,1651070446464512.0,3
1335,-4.0,-7.0,-5.0,10.0,2.0,-1.0,1.0,-2.0,1651070446464512.0,3
1336,1.0,2.0,52.0,3.0,10.0,4.0,-1.0,-1.0,1651070446465510.0,3
1337,-2.0,-15.0,-93.0,-16.0,-5.0,-9.0,-4.0,-2.0,1651070446465510.0,3
1338,0.0,3.0,5.0,-11.0,-19.0,-8.0,-5.0,-4.0,1651070446479152.0,3
1339,6.0,-10.0,-8.0,6.0,2.0,1.0,3.0,5.0,1651070446479152.0,3
1340,1.0,5.0,-5.0,5.0,14.0,13.0,1.0,2.0,1651070446485154.0,3
1341,-1.0,4.0,41.0,22.0,9.0,-2.0,-1.0,-2.0,1651070446485154.0,3
1342,-8.0,33.0,-1.0,-18.0,-18.0,-8.0,-8.0,-6.0,1651070446502344.0,3
1343,-8.0,-30.0,-27.0,-1.0,10.0,5.0,-3.0,-4.0,1651070446502344.0,3
1344,12.0,11.0,8.0,-13.0,-16.0,-2.0,2.0,7.0,1651070446503342.0,3
1345,3.0,-16.0,50.0,-2.0,-4.0,-3.0,1.0,2.0,1651070446503342.0,3
1346,-10.0,-7.0,-81.0,5.0,5.0,-1.0,-2.0,-8.0,1651070446524609.0,3
1347,-12.0,5.0,9.0,3.0,-9.0,-7.0,-5.0,-9.0,1651070446524609.0,3
1348,-10.0,-30.0,-51.0,-29.0,-1.0,-4.0,-3.0,-5.0,1651070446525636.0,3
1349,34.0,36.0,3.0,17.0,-17.0,-5.0,9.0,20.0,1651070446525636.0,3
1350,4.0,-32.0,14.0,13.0,38.0,9.0,2.0,1.0,1651070446538425.0,3
1351,15.0,38.0,-13.0,24.0,39.0,13.0,7.0,8.0,1651070446538425.0,3
1352,-12.0,9.0,-10.0,-12.0,-26.0,-17.0,-9.0,-9.0,1651070446545407.0,3
1353,-3.0,-33.0,32.0,-17.0,-20.0,-7.0,-3.0,0.0,1651070446545407.0,3
1354,-6.0,4.0,38.0,-6.0,-10.0,-1.0,-1.0,-1.0,1651070446561626.0,3
1355,3.0,6.0,-47.0,-11.0,0.0,1.0,-3.0,-4.0,1651070446561626.0,3
1356,0.0,31.0,29.0,25.0,11.0,9.0,0.0,-3.0,1651070446563563.0,3
1357,-18.0,-57.0,3.0,-17.0,-7.0,-3.0,-2.0,-5.0,1651070446563563.0,3
1358,12.0,27.0,6.0,5.0,-2.0,1.0,3.0,5.0,1651070446584560.0,3
1359,15.0,46.0,-27.0,-6.0,5.0,-2.0,-2.0,2.0,1651070446584560.0,3
1360,-44.0,-49.0,63.0,15.0,7.0,0.0,-6.0,-11.0,1651070446585496.0,3
1361,6.0,-19.0,-27.0,0.0,1.0,-1.0,2.0,-6.0,1651070446585496.0,3
1362,4.0,-94.0,-27.0,2.0,-6.0,3.0,9.0,12.0,1651070446598490.0,3
1363,-58.0,21.0,-21.0,-37.0,-33.0,-18.0,-18.0,-28.0,1651070446598490.0,3
1364,85.0,14.0,-27.0,-1.0,5.0,6.0,12.0,27.0,1651070446606623.0,3
1365,-9.0,14.0,-48.0,14.0,26.0,4.0,-2.0,-4.0,1651070446606623.0,3
1366,-16.0,78.0,64.0,12.0,-2.0,5.0,3.0,-3.0,1651070446622380.0,3
1367,19.0,-54.0,-33.0,-20.0,-23.0,-7.0,-4.0,2.0,1651070446622380.0,3
1368,-7.0,-83.0,18.0,13.0,11.0,5.0,6.0,9.0,1651070446623386.0,3
1369,7.0,44.0,-44.0,-11.0,13.0,6.0,2.0,3.0,1651070446623386.0,3
1370,-32.0,24.0,-13.0,-6.0,-3.0,-2.0,-4.0,-9.0,1651070446644799.0,3
1371,62.0,-57.0,56.0,6.0,-4.0,6.0,1.0,3.0,1651070446644799.0,3
1372,-23.0,53.0,-48.0,-12.0,-8.0,-1.0,-1.0,3.0,1651070446646341.0,3
1373,46.0,72.0,60.0,17.0,-7.0,-5.0,9.0,19.0,1651070446646341.0,3
1374,-19.0,-41.0,-12.0,4.0,25.0,10.0,4.0,0.0,1651070446657737.0,3
1375,-47.0,6.0,34.0,-8.0,-23.0,-8.0,-8.0,-17.0,1651070446657737.0,3
1376,42.0,-9.0,26.0,17.0,40.0,16.0,6.0,5.0,1651070446666676.0,3
1377,-10.0,13.0,-16.0,0.0,-7.0,-2.0,-3.0,-8.0,1651070446666676.0,3
1378,0.0,9.0,-51.0,-20.0,-19.0,-18.0,-9.0,-6.0,1651070446681916.0,3
1379,-16.0,-15.0,13.0,-7.0,2.0,1.0,5.0,9.0,1651070446681916.0,3
1380,-4.0,11.0,25.0,2.0,-20.0,-7.0,-2.0,0.0,1651070446683889.0,3
1381,-42.0,-5.0,39.0,18.0,15.0,10.0,-4.0,-14.0,1651070446683889.0,3
1382,10.0,-27.0,-25.0,-14.0,-16.0,-9.0,-7.0,-10.0,1651070446704063.0,3
1383,4.0,-6.0,21.0,3.0,7.0,-1.0,0.0,-2.0,1651070446704063.0,3
1384,-17.0,44.0,-36.0,-7.0,-32.0,-14.0,-3.0,1.0,1651070446705995.0,3
1385,15.0,-73.0,-31.0,-13.0,34.0,20.0,8.0,9.0,1651070446705995.0,3
1386,56.0,50.0,60.0,0.0,-7.0,-3.0,2.0,15.0,1651070446717959.0,3
1387,-35.0,-72.0,-9.0,17.0,2.0,-3.0,-1.0,6.0,1651070446717959.0,3
1388,7.0,52.0,-6.0,-15.0,0.0,-3.0,-3.0,-8.0,1651070446726935.0,3
1389,-33.0,31.0,-40.0,-14.0,-20.0,-13.0,-4.0,-7.0,1651070446726935.0,3
1390,16.0,36.0,-9.0,-2.0,-11.0,-5.0,3.0,11.0,1651070446742032.0,3
1391,-3.0,9.0,5.0,5.0,19.0,3.0,1.0,5.0,1651070446742032.0,3
1392,-20.0,-20.0,77.0,4.0,-11.0,-3.0,-4.0,-7.0,1651070446743062.0,3
1393,-9.0,-24.0,-52.0,4.0,1.0,-1.0,-4.0,-11.0,1651070446743062.0,3
1394,23.0,16.0,4.0,-29.0,10.0,3.0,2.0,-3.0,1651070446764224.0,3
1395,-1.0,34.0,-20.0,8.0,-8.0,-7.0,1.0,4.0,1651070446764224.0,3
1396,-35.0,-86.0,-57.0,-12.0,2.0,-4.0,-9.0,-21.0,1651070446766241.0,3
1397,35.0,31.0,4.0,-5.0,-8.0,-3.0,-4.0,6.0,1651070446766241.0,3
1398,-63.0,-10.0,0.0,3.0,-14.0,-7.0,-4.0,-7.0,1651070446778256.0,3
1399,5.0,-27.0,-2.0,-7.0,9.0,9.0,3.0,5.0,1651070446778256.0,3
1400,28.0,51.0,-4.0,-3.0,-3.0,-4.0,3.0,10.0,1651070446787165.0,3
1401,5.0,8.0,31.0,28.0,27.0,20.0,8.0,2.0,1651070446787165.0,3
1402,-23.0,-56.0,5.0,9.0,-6.0,-3.0,-4.0,-9.0,1651070446801681.0,3
1403,17.0,28.0,25.0,-28.0,-9.0,2.0,1.0,5.0,1651070446801681.0,3
1404,-3.0,3.0,-12.0,15.0,-8.0,0.0,2.0,0.0,1651070446803706.0,3
1405,-13.0,-40.0,8.0,-5.0,-9.0,-13.0,-5.0,-1.0,1651070446803706.0,3
1406,19.0,-25.0,46.0,29.0,45.0,31.0,13.0,9.0,1651070446824108.0,3
1407,27.0,21.0,-53.0,-12.0,1.0,-7.0,-6.0,3.0,1651070446824108.0,3
1408,-85.0,-14.0,-53.0,10.0,-1.0,-3.0,-7.0,-5.0,1651070446826036.0,3
1409,67.0,23.0,66.0,-22.0,-18.0,-9.0,-5.0,-17.0,1651070446826036.0,3
1410,-33.0,23.0,-17.0,-8.0,-19.0,-13.0,-10.0,-6.0,1651070446838075.0,3
1411,27.0,73.0,49.0,21.0,10.0,7.0,12.0,13.0,1651070446838075.0,3
1412,17.0,-37.0,-14.0,-5.0,5.0,1.0,4.0,15.0,1651070446847359.0,3
1413,7.0,23.0,-18.0,-17.0,-14.0,-6.0,-2.0,3.0,1651070446847359.0,3
1414,-10.0,-11.0,19.0,4.0,9.0,5.0,2.0,-9.0,1651070446869857.0,3
1415,-12.0,10.0,-23.0,7.0,-13.0,-9.0,-2.0,-8.0,1651070446869857.0,3
1416,7.0,-10.0,11.0,0.0,22.0,16.0,1.0,-3.0,1651070446870857.0,3
1417,-11.0,-21.0,31.0,14.0,25.0,7.0,3.0,1.0,1651070446870857.0,3
1418,30.0,21.0,-35.0,-9.0,-3.0,-2.0,-5.0,-5.0,1651070446884773.0,3
1419,-28.0,-30.0,-40.0,-43.0,-38.0,-10.0,-4.0,0.0,1651070446884773.0,3
1420,45.0,1.0,7.0,9.0,8.0,2.0,4.0,3.0,1651070446886326.0,3
1421,-78.0,4.0,-11.0,21.0,4.0,0.0,-4.0,-8.0,1651070446886326.0,3
1422,29.0,8.0,-11.0,-11.0,-13.0,-2.0,4.0,7.0,1651070446898327.0,3
1423,-3.0,-55.0,38.0,13.0,-1.0,-8.0,-4.0,-6.0,1651070446898327.0,3
1424,-15.0,-7.0,21.0,-11.0,-5.0,-8.0,-8.0,-16.0,1651070446907236.0,3
1425,-8.0,27.0,-7.0,0.0,-7.0,-2.0,1.0,12.0,1651070446907236.0,3
1426,-51.0,-64.0,32.0,21.0,7.0,3.0,-2.0,5.0,1651070446921688.0,3
1427,2.0,-10.0,16.0,12.0,22.0,12.0,12.0,2.0,1651070446921688.0,3
1428,23.0,30.0,-13.0,-30.0,-15.0,-7.0,-6.0,-15.0,1651070446923617.0,3
1429,-25.0,-67.0,15.0,1.0,7.0,-1.0,0.0,18.0,1651070446923617.0,3
1430,63.0,40.0,-17.0,-10.0,-2.0,2.0,6.0,10.0,1651070446944548.0,3
1431,-60.0,19.0,-1.0,10.0,0.0,0.0,-3.0,1.0,1651070446944548.0,3
1432,11.0,-21.0,8.0,14.0,-4.0,1.0,-1.0,-5.0,1651070446950375.0,3
1433,2.0,35.0,-4.0,14.0,32.0,11.0,-6.0,-16.0,1651070446950375.0,3
1434,36.0,13.0,16.0,-28.0,-41.0,-25.0,1.0,10.0,1651070446958355.0,3
1435,0.0,-10.0,-19.0,-26.0,-1.0,4.0,-3.0,-1.0,1651070446958355.0,3
1436,-1.0,29.0,15.0,29.0,12.0,4.0,6.0,14.0,1651070446967263.0,3
1437,-24.0,-54.0,-1.0,-5.0,-18.0,-17.0,-9.0,-12.0,1651070446967263.0,3
1438,36.0,5.0,-1.0,9.0,18.0,12.0,3.0,0.0,1651070446981613.0,3
1439,-25.0,-16.0,-17.0,20.0,-2.0,-4.0,-3.0,-7.0,1651070446981613.0,3
1440,13.0,-40.0,-32.0,-50.0,-8.0,-3.0,-4.0,-2.0,1651070446983633.0,3
1441,5.0,21.0,-7.0,-2.0,-13.0,-3.0,2.0,0.0,1651070446983633.0,3
1442,-57.0,53.0,75.0,38.0,16.0,3.0,-4.0,-5.0,1651070447004722.0,3
1443,-2.0,-70.0,-71.0,-23.0,-1.0,0.0,1.0,-2.0,1651070447004722.0,3
1444,35.0,31.0,-18.0,17.0,1.0,4.0,5.0,3.0,1651070447005789.0,3
1445,18.0,22.0,11.0,-20.0,-7.0,-2.0,-1.0,3.0,1651070447005789.0,3
1446,-25.0,-32.0,-6.0,0.0,-5.0,-4.0,-2.0,-12.0,1651070447017756.0,3
1447,24.0,-20.0,1.0,6.0,6.0,-2.0,1.0,30.0,1651070447017756.0,3
1448,-13.0,27.0,-1.0,12.0,22.0,10.0,2.0,-2.0,1651070447026836.0,3
1449,-2.0,-13.0,11.0,-8.0,-1.0,-1.0,-3.0,-12.0,1651070447026836.0,3
1450,-22.0,6.0,-29.0,-21.0,-21.0,-10.0,-10.0,-11.0,1651070447041694.0,3
1451,48.0,22.0,10.0,3.0,8.0,5.0,-1.0,-14.0,1651070447041694.0,3
1452,-24.0,-18.0,-6.0,3.0,-12.0,-3.0,2.0,10.0,1651070447043691.0,3
1453,53.0,42.0,13.0,-8.0,12.0,11.0,10.0,18.0,1651070447043691.0,3
1454,-5.0,-56.0,-75.0,1.0,7.0,2.0,2.0,4.0,1651070447064041.0,3
1455,19.0,55.0,50.0,35.0,-10.0,-4.0,-1.0,-10.0,1651070447064041.0,3
1456,-46.0,-34.0,-5.0,-16.0,21.0,3.0,0.0,0.0,1651070447066151.0,3
1457,-16.0,-20.0,-27.0,14.0,-19.0,-4.0,-1.0,3.0,1651070447066151.0,3
1458,-12.0,11.0,-20.0,-10.0,14.0,0.0,-7.0,-25.0,1651070447078004.0,3
1459,37.0,39.0,-11.0,7.0,-2.0,4.0,4.0,27.0,1651070447078004.0,3
1460,-40.0,-6.0,12.0,-4.0,-22.0,-8.0,-5.0,-12.0,1651070447086916.0,3
1461,44.0,34.0,46.0,16.0,4.0,6.0,8.0,6.0,1651070447086916.0,3
1462,8.0,38.0,-67.0,-8.0,-7.0,-9.0,-5.0,4.0,1651070447101987.0,3
1463,-6.0,-57.0,45.0,11.0,4.0,-4.0,-6.0,-15.0,1651070447101987.0,3
1464,23.0,1.0,-2.0,6.0,-4.0,-5.0,-2.0,-3.0,1651070447102985.0,3
1465,2.0,-20.0,-13.0,-15.0,-3.0,-4.0,0.0,3.0,1651070447102985.0,3
1466,5.0,10.0,42.0,4.0,-10.0,2.0,-1.0,3.0,1651070447124798.0,3
1467,-5.0,53.0,1.0,-11.0,6.0,3.0,3.0,-3.0,1651070447124798.0,3
1468,0.0,-1.0,12.0,9.0,-2.0,-3.0,-5.0,-4.0,1651070447126340.0,3
1469,-31.0,-61.0,3.0,-33.0,-13.0,-5.0,-7.0,-13.0,1651070447126340.0,3
1470,16.0,11.0,11.0,20.0,18.0,5.0,4.0,9.0,1651070447147823.0,3
1471,-9.0,2.0,30.0,4.0,-11.0,-7.0,-4.0,0.0,1651070447147823.0,3
1472,5.0,-11.0,-50.0,-39.0,16.0,8.0,4.0,4.0,1651070447148791.0,3
1473,53.0,48.0,8.0,18.0,-10.0,-8.0,-1.0,5.0,1651070447148791.0,3
1474,-60.0,-41.0,40.0,29.0,0.0,-3.0,-1.0,-4.0,1651070447162323.0,3
1475,-3.0,-22.0,-62.0,-14.0,0.0,-2.0,1.0,2.0,1651070447162323.0,3
1476,11.0,2.0,26.0,7.0,15.0,5.0,-2.0,-5.0,1651070447163335.0,3
1477,-23.0,-12.0,-39.0,-30.0,-10.0,-4.0,-6.0,-3.0,1651070447163335.0,3
1478,24.0,-5.0,-9.0,-17.0,-8.0,3.0,4.0,7.0,1651070447184357.0,3
1479,-31.0,-28.0,8.0,-1.0,7.0,3.0,2.0,-19.0,1651070447184357.0,3
1480,-9.0,24.0,11.0,11.0,-14.0,-4.0,-2.0,-9.0,1651070447186434.0,3
1481,-2.0,12.0,0.0,13.0,-1.0,-5.0,2.0,17.0,1651070447186434.0,3
1482,-2.0,-7.0,40.0,9.0,4.0,-2.0,0.0,10.0,1651070447206741.0,3
1483,12.0,-9.0,-53.0,-24.0,-12.0,-1.0,2.0,4.0,1651070447206741.0,3
1484,2.0,66.0,21.0,17.0,11.0,2.0,-1.0,-2.0,1651070447208669.0,3
1485,-13.0,-30.0,-23.0,-14.0,-17.0,-4.0,-6.0,-13.0,1651070447208669.0,3
1486,-5.0,4.0,12.0,16.0,9.0,-3.0,-3.0,-5.0,1651070447220704.0,3
1487,24.0,4.0,22.0,-6.0,12.0,8.0,4.0,-3.0,1651070447220704.0,3
1488,3.0,-24.0,-24.0,-16.0,-17.0,-5.0,-3.0,6.0,1651070447229329.0,3
1489,36.0,35.0,63.0,27.0,-1.0,0.0,3.0,1.0,1651070447229329.0,3
1490,-8.0,-17.0,-21.0,-29.0,11.0,7.0,1.0,-1.0,1651070447244354.0,3
1491,-36.0,-17.0,9.0,6.0,10.0,0.0,-5.0,-12.0,1651070447244354.0,3
1492,18.0,16.0,-13.0,12.0,2.0,2.0,6.0,13.0,1651070447246282.0,3
1493,-15.0,-5.0,3.0,-7.0,-7.0,-8.0,-8.0,-15.0,1651070447246282.0,3
1494,38.0,6.0,-34.0,-15.0,-11.0,0.0,0.0,2.0,1651070447266740.0,3
1495,-11.0,0.0,68.0,-4.0,-10.0,-4.0,-5.0,-4.0,1651070447266740.0,3
1496,33.0,52.0,-8.0,23.0,-3.0,3.0,9.0,17.0,1651070447268666.0,3
1497,-24.0,-20.0,-12.0,11.0,51.0,15.0,3.0,0.0,1651070447268666.0,3
1498,1.0,-1.0,13.0,-2.0,-3.0,3.0,3.0,-5.0,1651070447281743.0,3
1499,-5.0,2.0,-3.0,-2.0,6.0,-4.0,-5.0,-6.0,1651070447281743.0,3
1500,-1.0,-35.0,-38.0,-20.0,-18.0,-9.0,-2.0,-7.0,1651070447283714.0,3
1501,-18.0,-24.0,-29.0,-6.0,-13.0,-7.0,-3.0,2.0,1651070447283714.0,3
1502,10.0,-11.0,24.0,0.0,3.0,-4.0,0.0,5.0,1651070447304814.0,3
1503,-52.0,15.0,-4.0,7.0,3.0,3.0,3.0,7.0,1651070447304814.0,3
1504,-21.0,-22.0,19.0,-10.0,-11.0,-5.0,-4.0,-7.0,1651070447305916.0,3
1505,-10.0,20.0,9.0,3.0,10.0,5.0,4.0,-12.0,1651070447305916.0,3
1506,1.0,-20.0,-30.0,3.0,-1.0,-2.0,-5.0,-6.0,1651070447327285.0,3
1507,16.0,41.0,24.0,-4.0,-2.0,0.0,1.0,8.0,1651070447327285.0,3
1508,13.0,-28.0,-42.0,-24.0,-10.0,-4.0,-6.0,-13.0,1651070447328285.0,3
1509,-16.0,-21.0,19.0,0.0,-1.0,3.0,3.0,7.0,1651070447328285.0,3
1510,8.0,19.0,-33.0,22.0,-2.0,-7.0,-3.0,-8.0,1651070447341398.0,3
1511,11.0,-6.0,5.0,5.0,10.0,2.0,2.0,8.0,1651070447341398.0,3
1512,5.0,9.0,23.0,16.0,3.0,-2.0,-1.0,0.0,1651070447348382.0,3
1513,1.0,17.0,4.0,-13.0,-12.0,-4.0,-5.0,-1.0,1651070447348382.0,3
1514,-32.0,-24.0,-20.0,-18.0,-11.0,0.0,-1.0,-5.0,1651070447364411.0,3
1515,0.0,6.0,7.0,9.0,-8.0,-7.0,-4.0,-7.0,1651070447364411.0,3
1516,24.0,14.0,45.0,7.0,39.0,13.0,8.0,15.0,1651070447366336.0,3
1517,-9.0,14.0,-9.0,1.0,-7.0,-5.0,-1.0,4.0,1651070447366336.0,3
1518,24.0,-7.0,-21.0,-10.0,-4.0,-5.0,-4.0,-10.0,1651070447387383.0,3
1519,-29.0,-4.0,-16.0,-11.0,-8.0,0.0,-1.0,8.0,1651070447387383.0,3
1520,-22.0,-11.0,40.0,0.0,-15.0,-6.0,-1.0,5.0,1651070447388381.0,3
1521,5.0,23.0,-3.0,3.0,5.0,-2.0,-1.0,-1.0,1651070447388381.0,3
1522,9.0,-1.0,53.0,13.0,7.0,4.0,-1.0,-6.0,1651070447401413.0,3
1523,19.0,46.0,-47.0,-14.0,-17.0,-7.0,-1.0,-6.0,1651070447401413.0,3
1524,-12.0,-20.0,-34.0,-8.0,10.0,-2.0,0.0,-6.0,1651070447408399.0,3
1525,2.0,-12.0,15.0,7.0,8.0,5.0,1.0,-2.0,1651070447408399.0,3
1526,-18.0,-9.0,20.0,6.0,-5.0,-2.0,3.0,7.0,1651070447425297.0,3
1527,8.0,35.0,54.0,-5.0,-7.0,5.0,2.0,4.0,1651070447425297.0,3
1528,14.0,-51.0,-53.0,-12.0,-9.0,-6.0,-4.0,1.0,1651070447426298.0,3
1529,-33.0,-7.0,-9.0,4.0,0.0,1.0,1.0,-3.0,1651070447426298.0,3
1530,-14.0,-30.0,15.0,17.0,-10.0,-4.0,-3.0,-2.0,1651070447447377.0,3
1531,18.0,-19.0,-2.0,3.0,5.0,-2.0,1.0,-1.0,1651070447447377.0,3
1532,-3.0,70.0,17.0,-16.0,3.0,0.0,-3.0,-7.0,1651070447448376.0,3
1533,9.0,-2.0,-6.0,3.0,-7.0,-9.0,-2.0,4.0,1651070447448376.0,3
1534,7.0,5.0,-31.0,-16.0,22.0,12.0,2.0,-1.0,1651070447461660.0,3
1535,-2.0,-9.0,-6.0,9.0,-5.0,-3.0,0.0,2.0,1651070447461660.0,3
1536,-8.0,-14.0,14.0,-10.0,-5.0,-2.0,-2.0,-6.0,1651070447467715.0,3
1537,-42.0,-34.0,-37.0,-8.0,-13.0,-2.0,-3.0,1.0,1651070447467715.0,3
1538,-14.0,16.0,12.0,13.0,-2.0,-3.0,0.0,-9.0,1651070447484865.0,3
1539,29.0,-9.0,-7.0,2.0,7.0,1.0,0.0,10.0,1651070447484865.0,3
1540,-3.0,16.0,-5.0,-6.0,-5.0,-2.0,-1.0,1.0,1651070447485898.0,3
1541,5.0,13.0,33.0,0.0,4.0,2.0,-2.0,-8.0,1651070447485898.0,3
1542,16.0,-10.0,-23.0,-13.0,-8.0,-2.0,3.0,7.0,1651070447507354.0,3
1543,-6.0,-14.0,-17.0,3.0,8.0,4.0,-2.0,-6.0,1651070447507354.0,3
1544,5.0,0.0,10.0,6.0,0.0,-1.0,-2.0,-6.0,1651070447508364.0,3
1545,-1.0,0.0,7.0,15.0,1.0,5.0,4.0,4.0,1651070447508364.0,3
1546,-5.0,17.0,0.0,-20.0,-7.0,-3.0,-3.0,3.0,1651070447521426.0,3
1547,16.0,3.0,4.0,4.0,0.0,-2.0,0.0,1.0,1651070447521426.0,3
1548,-9.0,8.0,21.0,11.0,0.0,1.0,-1.0,3.0,1651070447535627.0,3
1549,48.0,6.0,-11.0,-20.0,-6.0,1.0,3.0,-2.0,1651070447535627.0,3
1550,-9.0,11.0,13.0,7.0,5.0,-1.0,1.0,5.0,1651070447544476.0,3
1551,0.0,5.0,23.0,0.0,3.0,1.0,0.0,-2.0,1651070447544476.0,3
1552,-7.0,-4.0,-21.0,15.0,-3.0,-5.0,-2.0,-4.0,1651070447546403.0,3
1553,-5.0,-18.0,-27.0,-16.0,-4.0,0.0,-3.0,-7.0,1651070447546403.0,3
1554,4.0,8.0,10.0,0.0,2.0,1.0,-1.0,2.0,1651070447566527.0,3
1555,8.0,-18.0,-5.0,-6.0,-5.0,0.0,0.0,2.0,1651070447566527.0,3
1556,0.0,26.0,48.0,12.0,7.0,3.0,2.0,2.0,1651070447568549.0,3
1557,2.0,-4.0,11.0,3.0,2.0,1.0,0.0,2.0,1651070447568549.0,3
1558,1.0,-3.0,-41.0,-16.0,-9.0,-2.0,-3.0,-16.0,1651070447581548.0,3
1559,-16.0,-2.0,2.0,3.0,-2.0,-3.0,-5.0,3.0,1651070447581548.0,3
1560,2.0,-26.0,3.0,8.0,5.0,4.0,5.0,4.0,1651070447588520.0,3
1561,-4.0,-4.0,-5.0,5.0,4.0,-2.0,-1.0,0.0,1651070447588520.0,3
1562,6.0,6.0,28.0,9.0,-2.0,-2.0,0.0,3.0,1651070447604772.0,3
1563,-1.0,2.0,-11.0,-10.0,-4.0,-1.0,-1.0,-8.0,1651070447604772.0,3
1564,-1.0,-2.0,13.0,5.0,-12.0,-5.0,-3.0,-2.0,1651070447606180.0,3
1565,2.0,-4.0,-29.0,-6.0,7.0,3.0,1.0,0.0,1651070447606180.0,3
1566,8.0,-2.0,-8.0,2.0,7.0,2.0,3.0,5.0,1651070447627208.0,3
1567,5.0,10.0,-11.0,5.0,1.0,5.0,2.0,0.0,1651070447627208.0,3
1568,-12.0,-5.0,-3.0,-9.0,-7.0,-3.0,0.0,1.0,1651070447628208.0,3
1569,0.0,-2.0,8.0,0.0,-21.0,-6.0,-1.0,-2.0,1651070447628208.0,3
1570,12.0,15.0,6.0,1.0,8.0,1.0,3.0,12.0,1651070447640243.0,3
1571,2.0,18.0,-7.0,7.0,28.0,8.0,-1.0,-2.0,1651070447640243.0,3
1572,-3.0,-12.0,-10.0,-7.0,-10.0,-6.0,-3.0,-1.0,1651070447649151.0,3
1573,-5.0,14.0,4.0,2.0,-1.0,-2.0,-4.0,-3.0,1651070447649151.0,3
1574,-18.0,-17.0,12.0,0.0,-13.0,-7.0,-2.0,-4.0,1651070447664297.0,3
1575,-5.0,-28.0,14.0,0.0,-6.0,-4.0,0.0,-3.0,1651070447664297.0,3
1576,14.0,21.0,-11.0,2.0,0.0,6.0,2.0,5.0,1651070447666345.0,3
1577,-2.0,10.0,-10.0,-11.0,8.0,-1.0,-4.0,-4.0,1651070447666345.0,3
1578,6.0,0.0,-3.0,-1.0,-2.0,0.0,-1.0,1.0,1651070447686522.0,3
1579,-9.0,19.0,18.0,2.0,1.0,1.0,-2.0,-9.0,1651070447686522.0,3
1580,-2.0,-30.0,-29.0,-3.0,1.0,0.0,0.0,-2.0,1651070447688459.0,3
1581,5.0,-7.0,-20.0,-9.0,-11.0,-2.0,1.0,1.0,1651070447688459.0,3
1582,3.0,9.0,6.0,5.0,5.0,2.0,-1.0,2.0,1651070447701451.0,3
1583,-7.0,-1.0,4.0,9.0,5.0,3.0,-1.0,-2.0,1651070447701451.0,3
1584,7.0,20.0,19.0,-2.0,-7.0,-3.0,0.0,0.0,1651070447709177.0,3
1585,13.0,-8.0,-14.0,-3.0,3.0,-1.0,0.0,2.0,1651070447709177.0,3
1586,-14.0,1.0,-9.0,-7.0,0.0,-1.0,0.0,0.0,1651070447724295.0,3
1587,0.0,-1.0,-10.0,-11.0,-6.0,-2.0,1.0,4.0,1651070447724295.0,3
1588,1.0,-31.0,-26.0,-11.0,3.0,-1.0,-3.0,-5.0,1651070447726325.0,3
1589,-1.0,8.0,18.0,14.0,2.0,0.0,2.0,0.0,1651070447726325.0,3
1590,0.0,-9.0,12.0,6.0,-4.0,0.0,-2.0,-8.0,1651070447746532.0,3
1591,-6.0,-1.0,-6.0,3.0,-1.0,-6.0,-2.0,2.0,1651070447746532.0,3
1592,2.0,9.0,18.0,1.0,1.0,1.0,1.0,5.0,1651070447748457.0,3
1593,5.0,1.0,-25.0,-10.0,2.0,2.0,4.0,4.0,1651070447748457.0,3
1594,10.0,9.0,-13.0,0.0,-3.0,-2.0,1.0,3.0,1651070447760452.0,3
1595,-6.0,-15.0,-7.0,-10.0,-1.0,0.0,0.0,-8.0,1651070447760452.0,3
1596,-10.0,2.0,-5.0,5.0,-2.0,-5.0,-1.0,-8.0,1651070447769401.0,3
1597,6.0,3.0,23.0,10.0,1.0,1.0,-2.0,1.0,1651070447769401.0,3
1598,-22.0,-12.0,1.0,-10.0,1.0,1.0,-1.0,0.0,1651070447784430.0,3
1599,6.0,4.0,-3.0,-5.0,-6.0,-5.0,-1.0,0.0,1651070447784430.0,3
1600,-6.0,0.0,14.0,22.0,10.0,4.0,-1.0,2.0,1651070447786391.0,3
1601,2.0,7.0,-8.0,-36.0,-8.0,-4.0,-3.0,-6.0,1651070447786391.0,3
1602,3.0,1.0,-4.0,13.0,3.0,0.0,-1.0,0.0,1651070447806611.0,3
1603,5.0,-4.0,0.0,5.0,-2.0,-2.0,-5.0,-1.0,1651070447806611.0,3
1604,2.0,3.0,1.0,4.0,-1.0,-1.0,-2.0,-1.0,1651070447808547.0,3
1605,-9.0,1.0,13.0,13.0,2.0,1.0,0.0,-2.0,1651070447808547.0,3
1606,9.0,1.0,-9.0,-9.0,2.0,0.0,1.0,2.0,1651070447820574.0,3
1607,-2.0,5.0,-2.0,-8.0,1.0,2.0,1.0,3.0,1651070447820574.0,3
1608,-7.0,-15.0,-3.0,8.0,-2.0,-4.0,-3.0,-5.0,1651070447829255.0,3
1609,-7.0,-5.0,-8.0,2.0,-2.0,-2.0,-2.0,1.0,1651070447829255.0,3
1610,14.0,2.0,3.0,-13.0,-5.0,1.0,0.0,2.0,1651070447844327.0,3
1611,-6.0,1.0,2.0,20.0,0.0,-1.0,1.0,1.0,1651070447844327.0,3
1612,-2.0,4.0,3.0,-2.0,4.0,0.0,-2.0,-1.0,1651070447846325.0,3
1613,4.0,-2.0,0.0,22.0,-1.0,-1.0,0.0,1.0,1651070447846325.0,3
1614,-4.0,4.0,15.0,-19.0,3.0,0.0,2.0,0.0,1651070447866698.0,3
1615,-1.0,-1.0,-7.0,-6.0,-8.0,-2.0,1.0,-1.0,1651070447866698.0,3
1616,-3.0,-6.0,-9.0,-24.0,-6.0,-3.0,1.0,-1.0,1651070447868633.0,3
1617,-6.0,-3.0,4.0,16.0,4.0,1.0,0.0,0.0,1651070447868633.0,3
1618,3.0,3.0,1.0,0.0,-6.0,-4.0,0.0,2.0,1651070447880660.0,3
1619,4.0,2.0,-4.0,-8.0,3.0,1.0,1.0,1.0,1651070447880660.0,3
1620,5.0,-2.0,0.0,-6.0,2.0,2.0,1.0,-1.0,1651070447889591.0,3
1621,-25.0,-9.0,5.0,8.0,-8.0,-5.0,-5.0,-4.0,1651070447889591.0,3
1622,4.0,-2.0,5.0,24.0,12.0,8.0,1.0,4.0,1651070447904708.0,3
1623,14.0,7.0,-6.0,-7.0,5.0,-1.0,0.0,2.0,1651070447904708.0,3
1624,3.0,8.0,-4.0,-3.0,-2.0,-1.0,0.0,0.0,1651070447905770.0,3
1625,3.0,14.0,22.0,-10.0,-5.0,1.0,1.0,2.0,1651070447905770.0,3
1626,-11.0,-25.0,-31.0,-9.0,-1.0,-1.0,-3.0,-5.0,1651070447926789.0,3
1627,-1.0,-9.0,1.0,17.0,-3.0,-4.0,-2.0,-4.0,1651070447926789.0,3
1628,-3.0,5.0,6.0,11.0,7.0,3.0,-1.0,-1.0,1651070447928766.0,3
1629,1.0,0.0,-3.0,-33.0,2.0,0.0,1.0,0.0,1651070447928766.0,3
1630,-4.0,3.0,6.0,11.0,-12.0,-5.0,-2.0,-1.0,1651070447940767.0,3
1631,6.0,5.0,8.0,14.0,1.0,0.0,0.0,-1.0,1651070447940767.0,3
1632,2.0,-1.0,0.0,-16.0,0.0,0.0,0.0,1.0,1651070447949039.0,3
1633,-20.0,-11.0,-10.0,12.0,0.0,0.0,0.0,-3.0,1651070447949039.0,3
1634,3.0,2.0,-1.0,-10.0,12.0,5.0,1.0,0.0,1651070447964107.0,3
1635,-5.0,5.0,-8.0,-13.0,-4.0,0.0,-3.0,-4.0,1651070447964107.0,3
1636,12.0,-3.0,22.0,20.0,-13.0,-4.0,-1.0,-2.0,1651070447966075.0,3
1637,5.0,4.0,-1.0,2.0,-6.0,-3.0,-1.0,1.0,1651070447966075.0,3
1638,1.0,-1.0,-20.0,-45.0,-5.0,-1.0,-2.0,-1.0,1651070447987317.0,3
1639,-11.0,-6.0,-6.0,5.0,8.0,3.0,0.0,2.0,1651070447987317.0,3
1640,36.0,11.0,9.0,13.0,6.0,2.0,-2.0,-2.0,1651070447988286.0,3
1641,-25.0,-8.0,-9.0,-11.0,2.0,-1.0,-1.0,3.0,1651070447988286.0,3
1642,0.0,0.0,17.0,41.0,0.0,-2.0,-1.0,1.0,1651070448000320.0,3
1643,6.0,-8.0,-15.0,-25.0,-1.0,0.0,-1.0,-1.0,1651070448000320.0,3
1644,-15.0,-9.0,-18.0,-17.0,-12.0,-8.0,-2.0,-2.0,1651070448009233.0,3
1645,14.0,6.0,9.0,-3.0,1.0,0.0,-1.0,-2.0,1651070448009233.0,3
1646,1.0,5.0,10.0,6.0,1.0,0.0,0.0,0.0,1651070448023447.0,3
1647,-2.0,-3.0,2.0,8.0,1.0,2.0,1.0,-1.0,1651070448023447.0,3
1648,-7.0,1.0,-4.0,-11.0,-14.0,-4.0,-3.0,-1.0,1651070448030946.0,3
1649,3.0,-2.0,-3.0,-5.0,9.0,2.0,-1.0,-2.0,1651070448030946.0,3
1650,-5.0,-2.0,-3.0,21.0,-6.0,-2.0,-1.0,-2.0,1651070448046764.0,3
1651,8.0,10.0,28.0,-2.0,13.0,4.0,4.0,2.0,1651070448046764.0,3
1652,-16.0,-12.0,-17.0,8.0,6.0,1.0,1.0,-2.0,1651070448048671.0,3
1653,16.0,-6.0,-34.0,-72.0,-22.0,-9.0,-1.0,-2.0,1651070448048671.0,3
1654,-16.0,-7.0,7.0,40.0,4.0,-4.0,-4.0,-2.0,1651070448060639.0,3
1655,-7.0,-10.0,0.0,-7.0,-5.0,-1.0,-3.0,0.0,1651070448060639.0,3
1656,-10.0,11.0,-16.0,19.0,4.0,0.0,0.0,0.0,1651070448069615.0,3
1657,4.0,2.0,2.0,-14.0,11.0,6.0,2.0,2.0,1651070448069615.0,3
1658,5.0,2.0,5.0,-12.0,-9.0,-3.0,-1.0,-2.0,1651070448083933.0,3
1659,4.0,-2.0,2.0,29.0,-8.0,-5.0,-1.0,-1.0,1651070448083933.0,3
1660,-7.0,0.0,8.0,-23.0,4.0,4.0,1.0,4.0,1651070448090961.0,3
1661,6.0,-4.0,0.0,15.0,4.0,1.0,0.0,-1.0,1651070448090961.0,3
1662,2.0,7.0,-2.0,2.0,6.0,1.0,-1.0,0.0,1651070448106993.0,3
1663,6.0,2.0,-13.0,-23.0,-8.0,-6.0,-4.0,-2.0,1651070448106993.0,3
1664,3.0,-1.0,3.0,3.0,-2.0,0.0,-2.0,1.0,1651070448108014.0,3
1665,-9.0,-4.0,12.0,46.0,5.0,0.0,-1.0,-1.0,1651070448108014.0,3
1666,10.0,2.0,4.0,-17.0,-5.0,1.0,2.0,2.0,1651070448129056.0,3
1667,-2.0,-2.0,5.0,-7.0,5.0,3.0,3.0,0.0,1651070448129056.0,3
1668,-1.0,-5.0,-9.0,-20.0,3.0,2.0,0.0,-2.0,1651070448131075.0,3
1669,-1.0,-3.0,-5.0,-5.0,-6.0,0.0,0.0,1.0,1651070448131075.0,3
1670,0.0,0.0,-1.0,-13.0,-1.0,1.0,0.0,0.0,1651070448144058.0,3
1671,0.0,4.0,-2.0,21.0,-2.0,-1.0,3.0,-3.0,1651070448144058.0,3
1672,-3.0,0.0,0.0,-5.0,-2.0,0.0,-2.0,-1.0,1651070448151039.0,3
1673,1.0,1.0,15.0,23.0,2.0,-3.0,-3.0,-2.0,1651070448151039.0,3
1674,0.0,-4.0,-8.0,-9.0,-3.0,-1.0,-2.0,1.0,1651070448167051.0,3
1675,2.0,4.0,-10.0,3.0,9.0,8.0,4.0,2.0,1651070448167051.0,3
1676,-5.0,-2.0,24.0,20.0,0.0,0.0,0.0,-1.0,1651070448168049.0,3
1677,0.0,5.0,13.0,0.0,0.0,0.0,-1.0,-1.0,1651070448168049.0,3
1678,16.0,6.0,9.0,-4.0,-8.0,-7.0,-2.0,-1.0,1651070448189146.0,3
1679,-16.0,-11.0,-15.0,-23.0,-8.0,-5.0,-3.0,-3.0,1651070448189146.0,3
1680,-1.0,2.0,7.0,22.0,1.0,1.0,0.0,1.0,1651070448191074.0,3
1681,3.0,-1.0,-16.0,-13.0,-2.0,-2.0,0.0,-2.0,1651070448191074.0,3
1682,-5.0,0.0,-2.0,-5.0,4.0,1.0,0.0,-1.0,1651070448204127.0,3
1683,1.0,-7.0,11.0,23.0,2.0,0.0,0.0,0.0,1651070448204127.0,3
1684,1.0,-1.0,-3.0,-16.0,0.0,1.0,2.0,0.0,1651070448210180.0,3
1685,-1.0,-4.0,-4.0,9.0,-3.0,0.0,1.0,-1.0,1651070448210180.0,3
1686,-2.0,-8.0,0.0,1.0,8.0,3.0,1.0,1.0,1651070448227069.0,3
1687,-1.0,0.0,-16.0,-8.0,-7.0,-3.0,-4.0,0.0,1651070448227069.0,3
1688,0.0,1.0,3.0,-12.0,-1.0,-2.0,-2.0,-1.0,1651070448228065.0,3
1689,-3.0,3.0,5.0,12.0,4.0,1.0,-1.0,-1.0,1651070448228065.0,3
1690,-7.0,-1.0,-25.0,-25.0,-7.0,-2.0,1.0,-2.0,1651070448248208.0,3
1691,4.0,2.0,9.0,2.0,-2.0,-1.0,-2.0,-1.0,1651070448248208.0,3
1692,1.0,-1.0,1.0,8.0,1.0,-1.0,-2.0,0.0,1651070448257302.0,3
1693,3.0,3.0,-7.0,5.0,1.0,1.0,-1.0,0.0,1651070448257302.0,3
1694,-2.0,-6.0,15.0,9.0,0.0,0.0,-2.0,0.0,1651070448263354.0,3
1695,-1.0,-1.0,-9.0,-25.0,-3.0,2.0,0.0,-1.0,1651070448263354.0,3
1696,-1.0,-3.0,-6.0,-4.0,2.0,0.0,1.0,-2.0,1651070448270268.0,3
1697,1.0,-2.0,4.0,24.0,1.0,-2.0,0.0,0.0,1651070448270268.0,3
1698,-4.0,2.0,2.0,9.0,9.0,2.0,0.0,1.0,1651070448287205.0,3
1699,-1.0,2.0,4.0,-3.0,-6.0,-4.0,0.0,-2.0,1651070448287205.0,3
1700,-2.0,-2.0,-14.0,-18.0,-5.0,-1.0,1.0,-1.0,1651070448288204.0,3
1701,6.0,2.0,3.0,-6.0,0.0,-1.0,-2.0,-1.0,1651070448288204.0,3
1702,-16.0,-9.0,-2.0,-2.0,-5.0,-4.0,-1.0,-1.0,1651070448309009.0,3
1703,-1.0,5.0,6.0,2.0,1.0,0.0,1.0,1.0,1651070448309009.0,3
1704,-1.0,-1.0,-3.0,1.0,-4.0,-2.0,-2.0,-2.0,1651070448310938.0,3
1705,2.0,1.0,-4.0,1.0,0.0,-2.0,0.0,0.0,1651070448310938.0,3
1706,2.0,-4.0,1.0,-3.0,4.0,3.0,2.0,0.0,1651070448323512.0,3
1707,3.0,11.0,15.0,44.0,6.0,0.0,0.0,0.0,1651070448323512.0,3
1708,-4.0,-3.0,0.0,-34.0,-1.0,2.0,1.0,0.0,1651070448330921.0,3
1709,-1.0,-1.0,2.0,9.0,1.0,-1.0,-2.0,-1.0,1651070448330921.0,3
1710,4.0,7.0,21.0,3.0,-3.0,-1.0,-2.0,0.0,1651070448347337.0,3
1711,-2.0,-8.0,-18.0,-10.0,-2.0,-3.0,0.0,-1.0,1651070448347337.0,3
1712,1.0,3.0,2.0,14.0,1.0,-2.0,0.0,-1.0,1651070448348307.0,3
1713,-1.0,-4.0,-5.0,-2.0,-1.0,3.0,1.0,1.0,1651070448348307.0,3
1714,1.0,1.0,-8.0,-11.0,-3.0,-3.0,-1.0,0.0,1651070448369805.0,3
1715,-1.0,-1.0,6.0,-7.0,-3.0,-4.0,-2.0,0.0,1651070448369805.0,3
1716,0.0,3.0,-7.0,4.0,-3.0,1.0,-3.0,0.0,1651070448370805.0,3
1717,-1.0,-2.0,-2.0,-11.0,-5.0,0.0,0.0,-1.0,1651070448370805.0,3
1718,-2.0,8.0,0.0,1.0,-6.0,-4.0,-1.0,-1.0,1651070448383781.0,3
1719,-1.0,-5.0,-1.0,18.0,20.0,6.0,-1.0,0.0,1651070448383781.0,3
1720,0.0,-3.0,9.0,2.0,-6.0,-4.0,-2.0,-1.0,1651070448390946.0,3
1721,-1.0,-6.0,-19.0,5.0,-2.0,-1.0,-1.0,-1.0,1651070448390946.0,3
1722,2.0,2.0,1.0,-1.0,-7.0,-2.0,-1.0,0.0,1651070448406514.0,3
1723,-1.0,-2.0,-6.0,-8.0,-12.0,-5.0,-2.0,-2.0,1651070448406514.0,3
1724,-1.0,3.0,-1.0,-8.0,-1.0,-2.0,-1.0,-1.0,1651070448408442.0,3
1725,0.0,-4.0,0.0,-7.0,-3.0,-2.0,-3.0,1.0,1651070448408442.0,3
1726,2.0,2.0,-3.0,0.0,-2.0,0.0,-2.0,0.0,1651070448429568.0,3
1727,-1.0,1.0,-4.0,-11.0,-4.0,-1.0,-2.0,1.0,1651070448429568.0,3
1728,-4.0,-3.0,-3.0,10.0,4.0,3.0,3.0,1.0,1651070448430499.0,3
1729,-4.0,3.0,13.0,-5.0,-1.0,0.0,3.0,-1.0,1651070448430499.0,3
1730,1.0,-2.0,-4.0,6.0,6.0,1.0,0.0,-2.0,1651070448443533.0,3
1731,2.0,1.0,13.0,1.0,0.0,-1.0,0.0,1.0,1651070448443533.0,3
1732,11.0,4.0,-7.0,-12.0,-3.0,0.0,0.0,0.0,1651070448450444.0,3
1733,-1.0,-2.0,-12.0,18.0,5.0,-2.0,1.0,0.0,1651070448450444.0,3
1734,-2.0,-4.0,23.0,2.0,6.0,1.0,1.0,0.0,1651070448466538.0,3
1735,-2.0,0.0,7.0,-25.0,-11.0,-5.0,-1.0,-2.0,1651070448466538.0,3
1736,-1.0,-4.0,-27.0,-1.0,-2.0,-3.0,-1.0,-1.0,1651070448468476.0,3
1737,1.0,0.0,0.0,-15.0,-5.0,-1.0,-2.0,0.0,1651070448468476.0,3
1738,-2.0,-6.0,-23.0,5.0,11.0,1.0,0.0,-2.0,1651070448489037.0,3
1739,2.0,-1.0,6.0,15.0,-7.0,-1.0,0.0,0.0,1651070448489037.0,3
1740,-5.0,-2.0,1.0,-6.0,6.0,3.0,-1.0,0.0,1651070448491185.0,3
1741,-1.0,1.0,9.0,6.0,2.0,1.0,0.0,1.0,1651070448491185.0,3
1742,-1.0,-2.0,-7.0,-4.0,-8.0,-5.0,-3.0,-2.0,1651070448504180.0,3
1743,1.0,5.0,0.0,-16.0,9.0,5.0,0.0,1.0,1651070448504180.0,3
1744,-5.0,-4.0,-10.0,12.0,-4.0,-1.0,0.0,-1.0,1651070448510970.0,3
1745,-1.0,-2.0,4.0,8.0,-2.0,-2.0,0.0,-2.0,1651070448510970.0,3
1746,-1.0,1.0,9.0,1.0,-6.0,-2.0,-1.0,0.0,1651070448526779.0,3
1747,0.0,-2.0,-10.0,-12.0,0.0,-2.0,-2.0,0.0,1651070448526779.0,3
1748,0.0,2.0,14.0,7.0,-2.0,-3.0,2.0,0.0,1651070448528774.0,3
1749,-1.0,1.0,4.0,-9.0,5.0,3.0,-1.0,-1.0,1651070448528774.0,3
1750,-2.0,1.0,-9.0,-6.0,-3.0,-2.0,0.0,1.0,1651070448549648.0,3
1751,-1.0,-2.0,4.0,16.0,11.0,0.0,-1.0,-2.0,1651070448549648.0,3
1752,0.0,1.0,-2.0,6.0,3.0,4.0,0.0,1.0,1651070448550599.0,3
1753,-1.0,0.0,1.0,-8.0,-6.0,-4.0,-3.0,0.0,1651070448550599.0,3
1754,2.0,4.0,2.0,-1.0,-3.0,0.0,-1.0,-2.0,1651070448563610.0,3
1755,-1.0,-1.0,-13.0,-11.0,-7.0,-1.0,-2.0,-1.0,1651070448563610.0,3
1756,-1.0,-5.0,16.0,-1.0,5.0,0.0,-1.0,1.0,1651070448571019.0,3
1757,-5.0,-5.0,-21.0,21.0,-5.0,-2.0,-3.0,-2.0,1651070448571019.0,3
1758,2.0,3.0,6.0,4.0,-9.0,1.0,1.0,0.0,1651070448586739.0,3
1759,-2.0,-2.0,-7.0,-13.0,11.0,-1.0,0.0,0.0,1651070448586739.0,3
1760,-1.0,-1.0,-2.0,0.0,-3.0,-3.0,-2.0,-2.0,1651070448588667.0,3
1761,0.0,0.0,4.0,-14.0,-2.0,-1.0,-3.0,-1.0,1651070448588667.0,3
1762,-1.0,-4.0,-2.0,2.0,1.0,-2.0,-1.0,-1.0,1651070448609821.0,3
1763,-1.0,-3.0,-6.0,4.0,-11.0,0.0,0.0,-1.0,1651070448609821.0,3
1764,1.0,3.0,3.0,-4.0,-3.0,-1.0,-2.0,0.0,1651070448610784.0,3
1765,2.0,3.0,5.0,0.0,4.0,1.0,1.0,1.0,1651070448610784.0,3
1766,-1.0,-2.0,11.0,14.0,8.0,3.0,1.0,-2.0,1651070448622761.0,3
1767,0.0,3.0,5.0,-13.0,-9.0,-1.0,0.0,0.0,1651070448622761.0,3
1768,-2.0,-2.0,-4.0,10.0,9.0,3.0,0.0,-1.0,1651070448632234.0,3
1769,1.0,0.0,2.0,-2.0,-6.0,-1.0,-1.0,-1.0,1651070448632234.0,3
1770,-2.0,-1.0,-16.0,-8.0,2.0,0.0,-2.0,0.0,1651070448647393.0,3
1771,0.0,2.0,3.0,2.0,-2.0,-1.0,0.0,2.0,1651070448647393.0,3
1772,0.0,-3.0,4.0,-3.0,-4.0,-1.0,-3.0,2.0,1651070448648334.0,3
1773,0.0,1.0,0.0,-5.0,0.0,-1.0,-1.0,0.0,1651070448648334.0,3
1774,0.0,2.0,-2.0,-3.0,1.0,-1.0,0.0,-1.0,1651070448669337.0,3
1775,1.0,-4.0,-2.0,7.0,1.0,-3.0,-1.0,-2.0,1651070448669337.0,3
1776,-1.0,-1.0,-8.0,-6.0,-12.0,-3.0,-1.0,-3.0,1651070448671262.0,3
1777,1.0,0.0,9.0,0.0,10.0,5.0,2.0,1.0,1651070448671262.0,3
1778,-2.0,-4.0,0.0,7.0,3.0,0.0,-3.0,-1.0,1651070448683297.0,3
1779,-1.0,-1.0,1.0,7.0,-4.0,-2.0,-2.0,-2.0,1651070448683297.0,3
1780,-1.0,-1.0,-3.0,-1.0,2.0,-2.0,-2.0,-1.0,1651070448692313.0,3
1781,1.0,-1.0,7.0,-2.0,-4.0,-1.0,-2.0,-1.0,1651070448692313.0,3
1782,-2.0,-2.0,-10.0,-9.0,1.0,1.0,1.0,0.0,1651070448707298.0,3
1783,0.0,1.0,2.0,-4.0,-2.0,1.0,2.0,-2.0,1651070448707298.0,3
1784,-3.0,0.0,5.0,13.0,10.0,8.0,1.0,0.0,1651070448708271.0,3
1785,-1.0,-1.0,-7.0,-9.0,-1.0,-1.0,0.0,0.0,1651070448708271.0,3
1786,-1.0,0.0,-9.0,-9.0,-6.0,-3.0,1.0,-3.0,1651070448729443.0,3
1787,-3.0,2.0,7.0,6.0,-1.0,-1.0,1.0,-1.0,1651070448729443.0,3
1788,2.0,-2.0,-6.0,-5.0,-2.0,-1.0,-1.0,1.0,1651070448731336.0,3
1789,-1.0,-4.0,6.0,0.0,-1.0,2.0,1.0,1.0,1651070448731336.0,3
1790,-1.0,0.0,0.0,5.0,-2.0,-1.0,-1.0,-2.0,1651070448743324.0,3
1791,0.0,2.0,2.0,-5.0,-1.0,1.0,-3.0,6.0,1651070448743324.0,3
1792,-1.0,-5.0,-9.0,7.0,3.0,-1.0,1.0,-3.0,1651070448752286.0,3
1793,0.0,5.0,1.0,2.0,-2.0,-3.0,1.0,-2.0,1651070448752286.0,3
1794,-1.0,-9.0,-2.0,-11.0,-1.0,1.0,-2.0,-2.0,1651070448766735.0,3
1795,2.0,2.0,3.0,17.0,1.0,2.0,1.0,-2.0,1651070448766735.0,3
1796,-2.0,5.0,6.0,-8.0,-3.0,-1.0,-1.0,1.0,1651070448768680.0,3
1797,-1.0,-1.0,1.0,6.0,-1.0,-2.0,-1.0,-1.0,1651070448768680.0,3
1798,1.0,2.0,-2.0,-6.0,2.0,-2.0,0.0,1.0,1651070448789793.0,3
1799,-1.0,-2.0,-3.0,-9.0,0.0,-2.0,-1.0,-1.0,1651070448789793.0,3
1800,1.0,-1.0,5.0,4.0,-8.0,-4.0,0.0,-1.0,1651070448790724.0,3
1801,1.0,-1.0,-13.0,-2.0,3.0,5.0,1.0,-2.0,1651070448790724.0,3
1802,0.0,2.0,6.0,-5.0,4.0,-1.0,-2.0,3.0,1651070448802997.0,3
1803,0.0,-5.0,-8.0,2.0,7.0,0.0,0.0,0.0,1651070448802997.0,3
1804,0.0,1.0,4.0,-3.0,-3.0,-2.0,0.0,0.0,1651070448811911.0,3
1805,-2.0,1.0,-5.0,-3.0,-9.0,-4.0,-1.0,0.0,1651070448811911.0,3
1806,1.0,3.0,-1.0,3.0,-1.0,0.0,2.0,0.0,1651070448826512.0,3
1807,-1.0,-1.0,4.0,5.0,4.0,2.0,0.0,0.0,1651070448826512.0,3
1808,0.0,-1.0,-1.0,11.0,6.0,-1.0,-1.0,-2.0,1651070448828440.0,3
1809,-1.0,-4.0,2.0,-3.0,-6.0,-1.0,-1.0,0.0,1651070448828440.0,3
1810,-1.0,-1.0,-5.0,-10.0,-5.0,-1.0,-2.0,0.0,1651070448849402.0,3
1811,1.0,-2.0,-6.0,-9.0,-3.0,0.0,-1.0,-2.0,1651070448849402.0,3
1812,0.0,2.0,-1.0,-8.0,0.0,3.0,2.0,-1.0,1651070448851354.0,3
1813,2.0,2.0,2.0,2.0,6.0,2.0,1.0,2.0,1651070448851354.0,3
1814,-3.0,-4.0,-2.0,2.0,-3.0,-3.0,-1.0,-3.0,1651070448863299.0,3
1815,-2.0,-1.0,-1.0,3.0,3.0,3.0,-1.0,0.0,1651070448863299.0,3
1816,-1.0,0.0,-3.0,2.0,-8.0,-6.0,-1.0,0.0,1651070448872275.0,3
1817,-1.0,1.0,6.0,-4.0,5.0,0.0,2.0,0.0,1651070448872275.0,3
1818,0.0,1.0,-7.0,-2.0,-2.0,1.0,1.0,-1.0,1651070448887394.0,3
1819,-1.0,0.0,-1.0,-5.0,-6.0,-1.0,-1.0,-4.0,1651070448887394.0,3
1820,-4.0,0.0,3.0,-2.0,-1.0,0.0,-3.0,0.0,1651070448888381.0,3
1821,0.0,-3.0,-7.0,-1.0,-3.0,-5.0,-2.0,-1.0,1651070448888381.0,3
1822,1.0,2.0,12.0,18.0,3.0,0.0,-1.0,-1.0,1651070448909627.0,3
1823,0.0,1.0,-5.0,-1.0,-6.0,-2.0,-1.0,-2.0,1651070448909627.0,3
1824,-1.0,-1.0,1.0,-5.0,-9.0,0.0,-1.0,-2.0,1651070448910586.0,3
1825,-1.0,-3.0,-4.0,-4.0,5.0,-1.0,0.0,0.0,1651070448910586.0,3
1826,-1.0,2.0,3.0,-3.0,8.0,4.0,3.0,2.0,1651070448922641.0,3
1827,-1.0,0.0,1.0,0.0,-9.0,-3.0,-1.0,0.0,1651070448922641.0,3
1828,0.0,1.0,3.0,2.0,5.0,-1.0,-1.0,-1.0,1651070448932532.0,3
1829,2.0,4.0,2.0,-5.0,3.0,11.0,1.0,0.0,1651070448932532.0,3
1830,-2.0,-8.0,-12.0,2.0,-10.0,-2.0,0.0,0.0,1651070448946676.0,3
1831,0.0,0.0,-1.0,-15.0,9.0,4.0,2.0,-4.0,1651070448946676.0,3
1832,-1.0,-1.0,-1.0,6.0,-7.0,-5.0,0.0,2.0,1651070448948696.0,3
1833,0.0,0.0,-1.0,0.0,-5.0,-6.0,-2.0,0.0,1651070448948696.0,3
1834,0.0,-1.0,9.0,7.0,3.0,0.0,-1.0,0.0,1651070448969640.0,3
1835,-1.0,-4.0,-3.0,-3.0,-8.0,-4.0,0.0,0.0,1651070448969640.0,3
1836,0.0,-3.0,-4.0,-6.0,4.0,1.0,1.0,-3.0,1651070448970610.0,3
1837,-1.0,2.0,-2.0,-2.0,0.0,-1.0,-1.0,-2.0,1651070448970610.0,3
1838,0.0,2.0,-1.0,-6.0,1.0,1.0,1.0,1.0,1651070448982728.0,3
1839,1.0,1.0,-2.0,4.0,2.0,1.0,0.0,0.0,1651070448982728.0,3
1840,-1.0,0.0,5.0,3.0,4.0,5.0,2.0,-2.0,1651070448991707.0,3
1841,-3.0,-7.0,-5.0,-3.0,-3.0,-3.0,-1.0,1.0,1651070448991707.0,3
1842,0.0,1.0,4.0,5.0,-1.0,-1.0,1.0,0.0,1651070449006693.0,3
1843,0.0,-2.0,-3.0,2.0,-4.0,0.0,-1.0,0.0,1651070449006693.0,3
1844,1.0,1.0,4.0,-4.0,-7.0,-5.0,-2.0,1.0,1651070449008681.0,3
1845,1.0,1.0,3.0,0.0,3.0,5.0,-1.0,-1.0,1651070449008681.0,3
1846,-1.0,-3.0,-6.0,-2.0,-6.0,-1.0,-1.0,-2.0,1651070449029633.0,3
1847,-2.0,1.0,9.0,5.0,11.0,0.0,0.0,2.0,1651070449029633.0,3
1848,2.0,1.0,-1.0,-5.0,6.0,5.0,3.0,4.0,1651070449030607.0,3
1849,-1.0,0.0,-3.0,1.0,-6.0,-4.0,-3.0,-5.0,1651070449030607.0,3
1850,-1.0,-7.0,-5.0,17.0,1.0,2.0,-2.0,-2.0,1651070449051469.0,3
1851,-1.0,-2.0,-1.0,-4.0,-4.0,0.0,-3.0,0.0,1651070449051469.0,3
1852,-1.0,-1.0,-5.0,-7.0,-6.0,-4.0,-3.0,-2.0,1651070449053467.0,3
1853,-3.0,-7.0,-10.0,0.0,4.0,2.0,2.0,2.0,1651070449053467.0,3
1854,1.0,4.0,3.0,-9.0,-4.0,-3.0,-3.0,-1.0,1651070449066498.0,3
1855,2.0,0.0,3.0,2.0,-8.0,-5.0,1.0,4.0,1651070449066498.0,3
1856,-2.0,-3.0,-8.0,-3.0,9.0,5.0,0.0,-2.0,1651070449068426.0,3
1857,-2.0,3.0,7.0,12.0,1.0,-2.0,0.0,2.0,1651070449068426.0,3
1858,1.0,-2.0,-2.0,-11.0,-1.0,-1.0,-2.0,-4.0,1651070449089483.0,3
1859,-2.0,-3.0,-14.0,-7.0,2.0,0.0,-1.0,-1.0,1651070449089483.0,3
1860,0.0,1.0,10.0,2.0,-6.0,-2.0,-1.0,0.0,1651070449090463.0,3
1861,0.0,0.0,-3.0,-1.0,-5.0,-4.0,-3.0,-2.0,1651070449090463.0,3
1862,-2.0,-5.0,-5.0,0.0,2.0,3.0,0.0,1.0,1651070449111713.0,3
1863,-2.0,0.0,-2.0,-8.0,-4.0,-3.0,-1.0,-1.0,1651070449111713.0,3
1864,-2.0,-3.0,-1.0,3.0,-3.0,-2.0,-2.0,0.0,1651070449113641.0,3
1865,1.0,1.0,4.0,1.0,-3.0,-1.0,-1.0,-1.0,1651070449113641.0,3
1866,1.0,3.0,2.0,-3.0,-3.0,-3.0,0.0,0.0,1651070449126673.0,3
1867,0.0,-1.0,-3.0,2.0,1.0,-1.0,2.0,0.0,1651070449126673.0,0
1868,0.0,3.0,3.0,0.0,6.0,1.0,2.0,-2.0,1651070449128601.0,0
1869,-1.0,1.0,6.0,-2.0,2.0,1.0,0.0,2.0,1651070449128601.0,0
1870,0.0,1.0,-5.0,-4.0,-3.0,0.0,-2.0,1.0,1651070449149809.0,0
1871,0.0,0.0,2.0,0.0,-1.0,-1.0,-2.0,-2.0,1651070449149809.0,0
1872,0.0,-3.0,-2.0,-5.0,2.0,0.0,0.0,-1.0,1651070449150812.0,0
1873,-1.0,-1.0,2.0,10.0,1.0,-2.0,1.0,0.0,1651070449150812.0,0
1874,1.0,-1.0,3.0,-1.0,5.0,1.0,0.0,-2.0,1651070449171869.0,0
1875,-2.0,-5.0,2.0,5.0,-1.0,-2.0,-1.0,-2.0,1651070449171869.0,0
1876,0.0,1.0,-3.0,-3.0,-4.0,-1.0,-3.0,-2.0,1651070449173824.0,0
1877,0.0,0.0,-1.0,-10.0,-3.0,1.0,-2.0,-1.0,1651070449173824.0,0
1878,-2.0,-1.0,1.0,3.0,-3.0,-4.0,-1.0,0.0,1651070449186888.0,0
1879,2.0,1.0,3.0,5.0,-2.0,5.0,2.0,0.0,1651070449186888.0,0
1880,0.0,-1.0,-2.0,-1.0,4.0,-2.0,-1.0,-1.0,1651070449188882.0,0
1881,-2.0,0.0,-1.0,3.0,5.0,4.0,-2.0,0.0,1651070449188882.0,0
1882,-2.0,1.0,2.0,0.0,-3.0,-1.0,0.0,-1.0,1651070449209830.0,0
1883,3.0,4.0,-2.0,-12.0,-9.0,-3.0,-1.0,-3.0,1651070449209830.0,0
1884,0.0,-9.0,-2.0,-2.0,-3.0,-1.0,2.0,-1.0,1651070449210844.0,0
1885,0.0,0.0,0.0,-1.0,-3.0,0.0,2.0,-1.0,1651070449210844.0,0
1886,-1.0,-2.0,-6.0,-1.0,1.0,5.0,0.0,1.0,1651070449231682.0,0
1887,-1.0,2.0,1.0,-5.0,5.0,-1.0,-2.0,-1.0,1651070449231682.0,0
1888,1.0,3.0,-3.0,10.0,-1.0,1.0,-1.0,1.0,1651070449233706.0,0
1889,-1.0,-1.0,-1.0,-4.0,-2.0,-5.0,-4.0,-3.0,1651070449233706.0,0
1890,-2.0,-4.0,-3.0,-8.0,-2.0,-1.0,2.0,0.0,1651070449246602.0,0
1891,-1.0,-1.0,7.0,28.0,2.0,-1.0,0.0,-1.0,1651070449246602.0,0
1892,-2.0,1.0,0.0,-5.0,2.0,0.0,0.0,1.0,1651070449252587.0,0
1893,1.0,0.0,2.0,-3.0,-4.0,-2.0,1.0,-1.0,1651070449252587.0,0
1894,1.0,0.0,-4.0,-5.0,6.0,3.0,0.0,-1.0,1651070449269175.0,0
1895,-1.0,-3.0,-8.0,-11.0,-5.0,-3.0,0.0,-2.0,1651070449269175.0,0
1896,1.0,2.0,6.0,3.0,-3.0,-1.0,-2.0,0.0,1651070449271172.0,0
1897,0.0,-2.0,-5.0,-4.0,-5.0,2.0,1.0,-2.0,1651070449271172.0,0
1898,-2.0,1.0,1.0,2.0,-3.0,-5.0,-1.0,-2.0,1651070449292370.0,0
1899,-1.0,-1.0,1.0,3.0,11.0,4.0,-1.0,0.0,1651070449292370.0,0
1900,-1.0,-2.0,-1.0,3.0,2.0,-3.0,-2.0,-1.0,1651070449293366.0,0
1901,-2.0,4.0,0.0,-10.0,0.0,0.0,1.0,0.0,1651070449293366.0,0
1902,-1.0,-5.0,1.0,9.0,-7.0,-3.0,-2.0,-1.0,1651070449306555.0,0
1903,-1.0,-2.0,-3.0,-2.0,-2.0,-2.0,-3.0,-1.0,1651070449306555.0,0
1904,0.0,-2.0,0.0,3.0,3.0,-3.0,-2.0,0.0,1651070449312802.0,0
1905,0.0,1.0,-1.0,-6.0,-9.0,-1.0,-2.0,-1.0,1651070449312802.0,0
