,EMG_s0,EMG_s1,EMG_s2,EMG_s3,EMG_s4,EMG_s5,EMG_s6,EMG_s7,timestamp,signal
0,-2.0,-3.0,1.0,1.0,3.0,1.0,0.0,-2.0,1651070633445589.0,0
1,-2.0,-2.0,0.0,-4.0,-4.0,-2.0,-3.0,-1.0,1651070633445589.0,0
2,-1.0,0.0,-3.0,-1.0,-3.0,-2.0,0.0,0.0,1651070633446519.0,0
3,2.0,1.0,0.0,2.0,4.0,2.0,0.0,-1.0,1651070633446519.0,0
4,0.0,1.0,0.0,1.0,0.0,-2.0,-1.0,0.0,1651070633468527.0,0
5,1.0,-1.0,0.0,-2.0,-1.0,-1.0,-1.0,-1.0,1651070633468527.0,0
6,-2.0,0.0,-2.0,0.0,0.0,-1.0,0.0,-2.0,1651070633469458.0,0
7,1.0,1.0,-2.0,-3.0,-5.0,-3.0,1.0,-1.0,1651070633469458.0,0
8,-1.0,-1.0,0.0,-1.0,-4.0,-1.0,-1.0,-1.0,1651070633484448.0,0
9,1.0,-1.0,-1.0,0.0,1.0,0.0,0.0,0.0,1651070633484448.0,0
10,1.0,1.0,0.0,3.0,6.0,4.0,-2.0,1.0,1651070633485415.0,0
11,0.0,-2.0,0.0,1.0,-1.0,-1.0,-2.0,0.0,1651070633485415.0,0
12,0.0,-1.0,0.0,-1.0,-1.0,-1.0,-1.0,0.0,1651070633505516.0,0
13,-1.0,0.0,0.0,3.0,7.0,-1.0,0.0,-2.0,1651070633505516.0,0
14,-2.0,-1.0,0.0,2.0,-4.0,-3.0,-2.0,-2.0,1651070633506518.0,0
15,-1.0,-1.0,-1.0,-4.0,-5.0,-4.0,-1.0,-1.0,1651070633506518.0,0
16,-1.0,0.0,-2.0,-4.0,-8.0,1.0,0.0,0.0,1651070633528663.0,0
17,0.0,0.0,-3.0,-2.0,4.0,1.0,-2.0,-1.0,1651070633528663.0,0
18,2.0,0.0,1.0,-3.0,-4.0,0.0,2.0,-1.0,1651070633528663.0,0
19,-2.0,0.0,2.0,0.0,1.0,-2.0,-2.0,0.0,1651070633528663.0,0
20,-2.0,1.0,0.0,-1.0,-2.0,-3.0,-1.0,-1.0,1651070633543758.0,0
21,0.0,0.0,-1.0,3.0,-1.0,1.0,-1.0,-1.0,1651070633543758.0,0
22,-1.0,-2.0,-2.0,0.0,2.0,1.0,0.0,-1.0,1651070633543758.0,0
23,-1.0,0.0,1.0,-1.0,-4.0,-2.0,0.0,0.0,1651070633543758.0,0
24,0.0,0.0,-2.0,-2.0,2.0,1.0,1.0,0.0,1651070633565984.0,0
25,-1.0,1.0,1.0,-2.0,-2.0,1.0,0.0,0.0,1651070633565984.0,0
26,0.0,0.0,-2.0,-1.0,4.0,-2.0,1.0,-1.0,1651070633566915.0,0
27,-1.0,-1.0,-1.0,2.0,3.0,5.0,0.0,0.0,1651070633566915.0,0
28,-2.0,-1.0,-2.0,1.0,3.0,-2.0,-2.0,0.0,1651070633587944.0,0
29,0.0,1.0,1.0,0.0,0.0,-1.0,-1.0,0.0,1651070633587944.0,0
30,-1.0,-1.0,-2.0,-3.0,-5.0,0.0,-1.0,0.0,1651070633588941.0,0
31,-2.0,2.0,0.0,-4.0,3.0,-2.0,-1.0,-1.0,1651070633588941.0,0
32,1.0,2.0,-2.0,-1.0,0.0,2.0,1.0,-1.0,1651070633603679.0,0
33,-1.0,-1.0,1.0,2.0,-2.0,-1.0,0.0,0.0,1651070633603679.0,0
34,-1.0,2.0,0.0,0.0,-5.0,-3.0,-3.0,-1.0,1651070633603679.0,0
35,0.0,0.0,-1.0,-3.0,-7.0,-2.0,-1.0,0.0,1651070633603679.0,0
36,0.0,-1.0,-1.0,0.0,4.0,4.0,1.0,1.0,1651070633625652.0,0
37,-1.0,0.0,-1.0,-4.0,0.0,-3.0,0.0,0.0,1651070633625652.0,0
38,-1.0,-1.0,-1.0,-1.0,0.0,1.0,1.0,-1.0,1651070633626582.0,0
39,-1.0,-4.0,-1.0,1.0,-7.0,-5.0,-1.0,-1.0,1651070633626582.0,0
40,-1.0,-2.0,0.0,1.0,4.0,-3.0,-2.0,-1.0,1651070633648733.0,0
41,-1.0,0.0,0.0,3.0,8.0,2.0,0.0,-1.0,1651070633648733.0,0
42,-1.0,0.0,2.0,-1.0,-1.0,-1.0,-1.0,0.0,1651070633648733.0,0
43,-1.0,-1.0,-4.0,-2.0,2.0,1.0,1.0,-1.0,1651070633648733.0,0
44,-2.0,-2.0,0.0,0.0,-4.0,-3.0,0.0,0.0,1651070633663681.0,0
45,-1.0,0.0,-3.0,-6.0,-9.0,-2.0,-1.0,0.0,1651070633663681.0,0
46,0.0,1.0,-2.0,1.0,5.0,0.0,0.0,1.0,1651070633663681.0,0
47,0.0,-1.0,-1.0,1.0,-3.0,0.0,-1.0,-1.0,1651070633663681.0,0
48,1.0,-1.0,0.0,0.0,-3.0,-2.0,-2.0,-2.0,1651070633685814.0,0
49,-1.0,-1.0,0.0,-1.0,0.0,-1.0,0.0,-1.0,1651070633685814.0,0
50,-1.0,-1.0,-1.0,-3.0,0.0,-2.0,0.0,-1.0,1651070633686775.0,0
51,-1.0,0.0,-1.0,-3.0,-4.0,-1.0,0.0,0.0,1651070633686775.0,0
52,0.0,-1.0,1.0,6.0,-1.0,-5.0,-1.0,0.0,1651070633708712.0,0
53,0.0,-3.0,-1.0,-1.0,0.0,2.0,2.0,2.0,1651070633708712.0,0
54,0.0,-1.0,1.0,-2.0,-11.0,-2.0,0.0,-1.0,1651070633708712.0,0
55,-2.0,-2.0,-1.0,1.0,5.0,-2.0,-2.0,0.0,1651070633708712.0,0
56,1.0,0.0,0.0,3.0,22.0,10.0,2.0,0.0,1651070633723612.0,0
57,-1.0,1.0,-2.0,0.0,-7.0,-3.0,-3.0,-1.0,1651070633723612.0,0
58,0.0,-1.0,1.0,-2.0,3.0,-1.0,-1.0,1.0,1651070633723612.0,0
59,2.0,-1.0,-1.0,-1.0,-11.0,-3.0,0.0,0.0,1651070633723612.0,0
60,0.0,0.0,-2.0,-3.0,-6.0,-3.0,-1.0,-1.0,1651070633745677.0,0
61,-2.0,-2.0,2.0,-2.0,-1.0,1.0,0.0,-1.0,1651070633745677.0,0
62,-1.0,0.0,1.0,6.0,8.0,5.0,0.0,0.0,1651070633746674.0,0
63,-2.0,0.0,-1.0,-2.0,-3.0,1.0,-1.0,-1.0,1651070633746674.0,0
64,-1.0,-1.0,0.0,-3.0,1.0,-2.0,1.0,-1.0,1651070633768784.0,0
65,-1.0,0.0,-1.0,4.0,5.0,1.0,1.0,-2.0,1651070633768784.0,0
66,-2.0,2.0,-1.0,-4.0,-8.0,-5.0,-1.0,0.0,1651070633768784.0,0
67,-1.0,-2.0,1.0,0.0,1.0,2.0,0.0,0.0,1651070633768784.0,0
68,-3.0,0.0,0.0,-3.0,-4.0,-3.0,-2.0,-2.0,1651070633782899.0,0
69,0.0,0.0,0.0,-3.0,-5.0,-3.0,-1.0,-1.0,1651070633782899.0,0
70,0.0,-3.0,2.0,3.0,2.0,-1.0,0.0,0.0,1651070633783903.0,0
71,1.0,2.0,-2.0,1.0,9.0,1.0,1.0,-1.0,1651070633783903.0,0
72,-1.0,-1.0,0.0,-2.0,-3.0,-1.0,-3.0,0.0,1651070633804857.0,0
73,0.0,0.0,-1.0,0.0,-3.0,0.0,-1.0,1.0,1651070633804857.0,0
74,1.0,-3.0,-1.0,1.0,-2.0,-1.0,0.0,0.0,1651070633812815.0,0
75,-1.0,-2.0,-1.0,-1.0,-2.0,-3.0,-2.0,0.0,1651070633812815.0,0
76,0.0,-1.0,2.0,-2.0,-2.0,2.0,2.0,-2.0,1651070633827824.0,0
77,-1.0,0.0,0.0,0.0,-3.0,0.0,0.0,0.0,1651070633827824.0,0
78,0.0,-1.0,-3.0,0.0,0.0,0.0,-1.0,-2.0,1651070633828802.0,0
79,0.0,0.0,-1.0,0.0,2.0,0.0,1.0,0.0,1651070633828802.0,0
80,0.0,1.0,-2.0,-1.0,-3.0,2.0,-2.0,1.0,1651070633851978.0,0
81,-1.0,-1.0,0.0,0.0,0.0,-1.0,0.0,-1.0,1651070633851978.0,0
82,0.0,-2.0,-2.0,-2.0,0.0,-1.0,0.0,0.0,1651070633851978.0,0
83,-1.0,-1.0,-1.0,2.0,-1.0,-1.0,-1.0,-1.0,1651070633851978.0,0
84,-3.0,0.0,0.0,-2.0,-5.0,-2.0,-1.0,-2.0,1651070633865075.0,0
85,0.0,1.0,-1.0,0.0,3.0,0.0,2.0,-1.0,1651070633865075.0,0
86,-2.0,0.0,-1.0,-5.0,-7.0,-4.0,-1.0,-1.0,1651070633873703.0,0
87,1.0,2.0,0.0,1.0,12.0,7.0,2.0,2.0,1651070633873703.0,0
88,0.0,0.0,1.0,6.0,-3.0,-2.0,0.0,-1.0,1651070633888064.0,0
89,-1.0,-2.0,-1.0,-2.0,-4.0,-2.0,-2.0,-1.0,1651070633888064.0,0
90,0.0,2.0,0.0,-1.0,-2.0,1.0,0.0,-1.0,1651070633889003.0,0
91,0.0,0.0,0.0,-4.0,-3.0,-4.0,-1.0,-2.0,1651070633889003.0,0
92,1.0,-1.0,1.0,0.0,0.0,1.0,1.0,0.0,1651070633911061.0,0
93,0.0,-2.0,-2.0,0.0,1.0,1.0,1.0,1.0,1651070633911061.0,0
94,-1.0,-2.0,-1.0,-4.0,1.0,0.0,-1.0,-1.0,1651070633912058.0,0
95,0.0,0.0,-2.0,-1.0,-4.0,1.0,-2.0,-1.0,1651070633912058.0,0
96,0.0,0.0,-1.0,-2.0,2.0,1.0,0.0,0.0,1651070633934193.0,0
97,0.0,-1.0,0.0,1.0,-2.0,-2.0,-2.0,-2.0,1651070633934193.0,0
98,0.0,0.0,-1.0,-3.0,-9.0,-2.0,0.0,1.0,1651070633935193.0,0
99,-1.0,0.0,-1.0,2.0,14.0,0.0,-1.0,-2.0,1651070633935193.0,0
100,0.0,0.0,-1.0,0.0,-6.0,-3.0,0.0,0.0,1651070633948227.0,0
101,1.0,1.0,-1.0,-2.0,-3.0,-2.0,-1.0,0.0,1651070633948227.0,0
102,0.0,2.0,2.0,4.0,13.0,7.0,3.0,0.0,1651070633949156.0,0
103,-1.0,-2.0,2.0,-1.0,-6.0,-3.0,0.0,-3.0,1651070633949156.0,0
104,0.0,-1.0,-2.0,-3.0,-3.0,-2.0,-2.0,-3.0,1651070633971916.0,0
105,-2.0,-2.0,-4.0,-1.0,3.0,-1.0,-1.0,0.0,1651070633971916.0,0
106,1.0,-1.0,1.0,0.0,-5.0,-3.0,-3.0,0.0,1651070633971916.0,0
107,-1.0,0.0,0.0,0.0,0.0,0.0,-3.0,-1.0,1651070633971916.0,0
108,0.0,-1.0,-2.0,-1.0,1.0,0.0,-2.0,1.0,1651070633994378.0,0
109,-2.0,-1.0,0.0,-1.0,2.0,2.0,2.0,0.0,1651070633994378.0,0
110,-1.0,-2.0,-2.0,-2.0,2.0,-2.0,0.0,-2.0,1651070633994647.0,0
111,1.0,0.0,-1.0,-1.0,2.0,4.0,1.0,1.0,1651070633994647.0,0
112,1.0,1.0,2.0,1.0,-12.0,-6.0,-1.0,-2.0,1651070634008683.0,0
113,0.0,0.0,0.0,-2.0,4.0,0.0,-1.0,0.0,1651070634008683.0,0
114,-4.0,-2.0,-1.0,2.0,0.0,0.0,0.0,1.0,1651070634008683.0,0
115,-1.0,0.0,0.0,-2.0,-10.0,-6.0,0.0,0.0,1651070634008683.0,0
116,-1.0,-1.0,-2.0,-2.0,5.0,2.0,-1.0,1.0,1651070634031618.0,0
117,1.0,-2.0,2.0,2.0,3.0,-1.0,-2.0,0.0,1651070634031618.0,0
118,-1.0,-1.0,-1.0,-1.0,-2.0,-1.0,-2.0,-1.0,1651070634032575.0,0
119,-1.0,0.0,-4.0,-2.0,-6.0,1.0,0.0,0.0,1651070634032575.0,0
120,-1.0,-1.0,0.0,-1.0,-1.0,0.0,2.0,0.0,1651070634054503.0,0
121,-1.0,0.0,-1.0,-2.0,-6.0,1.0,1.0,-2.0,1651070634054503.0,0
122,0.0,-2.0,0.0,0.0,-1.0,-2.0,-2.0,0.0,1651070634054503.0,0
123,-1.0,0.0,0.0,1.0,0.0,-1.0,-1.0,1.0,1651070634054503.0,0
124,1.0,0.0,-1.0,0.0,1.0,1.0,0.0,-2.0,1651070634068592.0,0
125,1.0,0.0,-1.0,-1.0,-3.0,1.0,0.0,1.0,1651070634068592.0,0
126,1.0,0.0,-1.0,-2.0,-1.0,-1.0,-1.0,-1.0,1651070634068592.0,0
127,-2.0,-2.0,-2.0,1.0,0.0,4.0,0.0,-2.0,1651070634068592.0,0
128,-2.0,-2.0,-1.0,-1.0,1.0,0.0,-1.0,0.0,1651070634091906.0,0
129,-2.0,1.0,0.0,0.0,2.0,-2.0,0.0,-2.0,1651070634091906.0,0
130,-1.0,-1.0,-1.0,-1.0,-3.0,-1.0,-1.0,0.0,1651070634091906.0,0
131,-1.0,0.0,0.0,-4.0,-5.0,-4.0,0.0,0.0,1651070634091906.0,0
132,-1.0,1.0,0.0,1.0,6.0,-2.0,0.0,-1.0,1651070634113916.0,0
133,-1.0,-1.0,1.0,5.0,-2.0,-2.0,-1.0,1.0,1651070634113916.0,0
134,1.0,-1.0,1.0,0.0,1.0,-1.0,0.0,0.0,1651070634114847.0,0
135,0.0,-1.0,0.0,0.0,-3.0,-2.0,-1.0,-1.0,1651070634114847.0,0
136,-1.0,-2.0,-3.0,-3.0,4.0,1.0,-2.0,-2.0,1651070634127878.0,0
137,-2.0,-2.0,-2.0,-5.0,-4.0,-1.0,-1.0,2.0,1651070634127878.0,0
138,-1.0,-2.0,-2.0,-1.0,1.0,-1.0,0.0,-1.0,1651070634128810.0,0
139,0.0,-1.0,-2.0,2.0,4.0,-1.0,1.0,-2.0,1651070634128810.0,0
140,0.0,0.0,-1.0,-2.0,0.0,2.0,2.0,1.0,1651070634150656.0,0
141,-1.0,-3.0,1.0,2.0,2.0,0.0,-2.0,-2.0,1651070634150656.0,0
142,0.0,1.0,-2.0,-3.0,-4.0,-1.0,0.0,-1.0,1651070634151654.0,0
143,2.0,-1.0,-2.0,-2.0,-3.0,-2.0,-1.0,0.0,1651070634151654.0,0
144,0.0,1.0,-1.0,0.0,-6.0,-3.0,-1.0,0.0,1651070634172762.0,0
145,-2.0,-2.0,-3.0,0.0,-2.0,-2.0,1.0,0.0,1651070634172762.0,0
146,-1.0,-3.0,1.0,-3.0,4.0,-2.0,0.0,0.0,1651070634181253.0,0
147,2.0,1.0,3.0,6.0,17.0,13.0,0.0,2.0,1651070634181253.0,0
148,0.0,0.0,-1.0,1.0,1.0,-2.0,-1.0,-1.0,1651070634188677.0,0
149,1.0,2.0,-1.0,-1.0,-6.0,0.0,-1.0,0.0,1651070634188677.0,0
150,-2.0,2.0,-1.0,-1.0,-8.0,-2.0,-2.0,-1.0,1651070634188677.0,0
151,-3.0,0.0,-3.0,-2.0,-3.0,-4.0,-1.0,0.0,1651070634188677.0,0
152,-1.0,-5.0,0.0,1.0,-5.0,-2.0,0.0,0.0,1651070634211756.0,0
153,0.0,0.0,0.0,-4.0,-2.0,2.0,0.0,-1.0,1651070634211756.0,0
154,1.0,-1.0,-2.0,3.0,6.0,0.0,1.0,1.0,1651070634211756.0,0
155,2.0,-1.0,0.0,1.0,-2.0,-1.0,-1.0,0.0,1651070634211756.0,0
156,-1.0,1.0,0.0,-3.0,-2.0,-1.0,0.0,0.0,1651070634233796.0,0
157,-1.0,-1.0,-2.0,-6.0,-13.0,-4.0,-1.0,-1.0,1651070634233796.0,0
158,0.0,0.0,-2.0,1.0,5.0,-3.0,0.0,-1.0,1651070634234809.0,0
159,-2.0,-4.0,1.0,3.0,6.0,3.0,-1.0,1.0,1651070634234809.0,0
160,-1.0,-1.0,0.0,2.0,-6.0,0.0,-1.0,-1.0,1651070634248759.0,0
161,1.0,1.0,-1.0,6.0,16.0,0.0,-1.0,0.0,1651070634248759.0,0
162,-2.0,-2.0,1.0,-4.0,-9.0,-2.0,0.0,-1.0,1651070634248759.0,0
163,0.0,1.0,0.0,-2.0,9.0,2.0,-1.0,-1.0,1651070634248759.0,0
164,-1.0,0.0,-1.0,-2.0,-2.0,-3.0,-1.0,-1.0,1651070634271872.0,0
165,2.0,-1.0,0.0,0.0,-5.0,-1.0,-1.0,1.0,1651070634271872.0,0
166,0.0,0.0,-2.0,0.0,0.0,-1.0,-1.0,-1.0,1651070634271872.0,0
167,0.0,-1.0,-2.0,-4.0,-9.0,-6.0,0.0,-2.0,1651070634271872.0,0
168,-1.0,-1.0,-1.0,-2.0,2.0,3.0,0.0,-1.0,1651070634301628.0,0
169,-2.0,3.0,3.0,1.0,3.0,0.0,0.0,-1.0,1651070634301628.0,0
170,-2.0,0.0,1.0,-2.0,-4.0,-2.0,-1.0,-2.0,1651070634302646.0,0
171,0.0,2.0,-2.0,-4.0,-8.0,-2.0,-2.0,-2.0,1651070634302646.0,0
172,2.0,6.0,-1.0,-2.0,0.0,-3.0,-2.0,0.0,1651070634308609.0,0
173,-3.0,-3.0,4.0,9.0,13.0,5.0,2.0,-2.0,1651070634308609.0,0
174,-1.0,-6.0,2.0,2.0,12.0,10.0,2.0,3.0,1651070634308609.0,0
175,1.0,-3.0,1.0,-2.0,-5.0,0.0,0.0,0.0,1651070634308609.0,0
176,-3.0,-2.0,-1.0,3.0,-1.0,-2.0,1.0,-1.0,1651070634331616.0,0
177,-2.0,-5.0,-2.0,-6.0,-13.0,-7.0,-2.0,-2.0,1651070634331616.0,0
178,0.0,-1.0,3.0,3.0,-4.0,0.0,0.0,-1.0,1651070634332546.0,0
179,0.0,4.0,1.0,3.0,3.0,-4.0,-2.0,0.0,1651070634332546.0,0
180,-1.0,-7.0,-12.0,-4.0,3.0,1.0,-2.0,-3.0,1651070634354486.0,0
181,0.0,2.0,0.0,-1.0,-11.0,-7.0,-1.0,0.0,1651070634354486.0,0
182,0.0,1.0,-17.0,-19.0,5.0,4.0,-2.0,-3.0,1651070634354486.0,0
183,0.0,1.0,2.0,5.0,-2.0,-1.0,0.0,0.0,1651070634354486.0,0
184,-2.0,0.0,8.0,12.0,10.0,7.0,1.0,-3.0,1651070634368450.0,0
185,-3.0,-11.0,-6.0,-9.0,0.0,-1.0,-1.0,-2.0,1651070634368450.0,0
186,1.0,2.0,1.0,-6.0,-11.0,-4.0,-2.0,-2.0,1651070634369468.0,0
187,1.0,1.0,-7.0,-5.0,-6.0,-4.0,-2.0,0.0,1651070634369468.0,0
188,0.0,2.0,4.0,4.0,-4.0,-3.0,-1.0,1.0,1651070634390583.0,0
189,-1.0,4.0,3.0,3.0,-2.0,-4.0,-1.0,0.0,1651070634390583.0,0
190,3.0,23.0,5.0,-4.0,-15.0,-7.0,-2.0,-2.0,1651070634391513.0,0
191,-9.0,-45.0,-24.0,4.0,29.0,15.0,2.0,-2.0,1651070634391513.0,0
192,3.0,8.0,16.0,2.0,-3.0,-2.0,0.0,1.0,1651070634414352.0,1
193,1.0,-10.0,-17.0,1.0,25.0,7.0,0.0,1.0,1651070634414352.0,1
194,0.0,-3.0,-7.0,-6.0,-17.0,-12.0,-1.0,1.0,1651070634414545.0,1
195,-1.0,16.0,23.0,-2.0,-11.0,-4.0,-2.0,-4.0,1651070634414545.0,1
196,-6.0,-5.0,-3.0,-1.0,6.0,7.0,1.0,-3.0,1651070634428576.0,1
197,4.0,4.0,-1.0,0.0,-2.0,-1.0,0.0,7.0,1651070634428576.0,1
198,4.0,5.0,-8.0,2.0,-16.0,-7.0,-1.0,2.0,1651070634429519.0,1
199,4.0,7.0,-10.0,-19.0,-15.0,-10.0,0.0,-2.0,1651070634429519.0,1
200,-3.0,-16.0,1.0,5.0,3.0,3.0,6.0,1.0,1651070634450651.0,1
201,-18.0,1.0,47.0,5.0,1.0,-4.0,-11.0,-36.0,1651070634450651.0,1
202,-7.0,-25.0,-6.0,9.0,29.0,22.0,10.0,25.0,1651070634451582.0,1
203,14.0,30.0,-2.0,-5.0,13.0,15.0,12.0,19.0,1651070634451582.0,1
204,14.0,16.0,-5.0,-4.0,1.0,-6.0,-14.0,-24.0,1651070634474402.0,1
205,23.0,-4.0,-9.0,10.0,2.0,-2.0,3.0,59.0,1651070634474402.0,1
206,-12.0,24.0,54.0,19.0,-19.0,-14.0,-5.0,-20.0,1651070634474528.0,1
207,-45.0,-24.0,-56.0,-10.0,-8.0,-2.0,-6.0,-44.0,1651070634474528.0,1
208,10.0,20.0,18.0,-34.0,-17.0,-7.0,3.0,2.0,1651070634488562.0,1
209,30.0,-8.0,8.0,3.0,-10.0,-1.0,11.0,62.0,1651070634488562.0,1
210,-14.0,-4.0,-13.0,-5.0,11.0,0.0,-13.0,-4.0,1651070634488562.0,1
211,3.0,20.0,19.0,11.0,4.0,2.0,2.0,-6.0,1651070634488562.0,1
212,-1.0,74.0,-10.0,22.0,0.0,-9.0,-8.0,-3.0,1651070634510558.0,1
213,-8.0,-105.0,-18.0,-7.0,-1.0,1.0,-3.0,-14.0,1651070634510558.0,1
214,-37.0,-12.0,-14.0,-10.0,0.0,2.0,8.0,-36.0,1651070634511507.0,1
215,-45.0,-3.0,5.0,-8.0,-25.0,-15.0,-29.0,-100.0,1651070634511507.0,1
216,22.0,-65.0,-34.0,-8.0,18.0,13.0,10.0,71.0,1651070634533768.0,1
217,76.0,127.0,34.0,18.0,15.0,12.0,31.0,97.0,1651070634533768.0,1
218,20.0,-66.0,-16.0,-9.0,-17.0,-9.0,-1.0,41.0,1651070634534767.0,1
219,-14.0,-60.0,48.0,-3.0,11.0,-8.0,-6.0,-14.0,1651070634534767.0,1
220,-26.0,-1.0,-14.0,15.0,-2.0,-2.0,-5.0,-48.0,1651070634547657.0,1
221,-51.0,-85.0,2.0,9.0,9.0,11.0,-6.0,-47.0,1651070634547657.0,1
222,15.0,72.0,18.0,11.0,22.0,16.0,9.0,-9.0,1651070634555636.0,1
223,3.0,-30.0,-14.0,-15.0,-20.0,-9.0,0.0,20.0,1651070634555636.0,1
224,34.0,17.0,-61.0,-8.0,-13.0,-8.0,-5.0,0.0,1651070634571593.0,1
225,-22.0,27.0,-2.0,-37.0,-38.0,-16.0,-4.0,-33.0,1651070634571593.0,1
226,9.0,56.0,61.0,21.0,37.0,21.0,6.0,-1.0,1651070634571593.0,1
227,19.0,-38.0,-79.0,0.0,5.0,5.0,9.0,35.0,1651070634571593.0,1
228,-15.0,-34.0,45.0,2.0,11.0,-4.0,-6.0,9.0,1651070634594500.0,1
229,-22.0,-34.0,-37.0,-4.0,-12.0,-8.0,-11.0,-36.0,1651070634594500.0,1
230,-5.0,-35.0,5.0,-1.0,-7.0,-5.0,1.0,-1.0,1651070634594500.0,1
231,13.0,76.0,24.0,-1.0,-7.0,-3.0,2.0,24.0,1651070634594500.0,1
232,3.0,-9.0,45.0,7.0,5.0,9.0,5.0,4.0,1651070634607612.0,1
233,-14.0,3.0,-24.0,-5.0,-4.0,-3.0,-6.0,-29.0,1651070634607612.0,1
234,-11.0,-61.0,2.0,-5.0,-7.0,-11.0,-16.0,-5.0,1651070634615649.0,1
235,38.0,41.0,50.0,16.0,15.0,17.0,23.0,20.0,1651070634615649.0,1
236,-30.0,-39.0,-88.0,-23.0,-19.0,-12.0,-9.0,-1.0,1651070634631152.0,1
237,0.0,50.0,22.0,-1.0,-2.0,8.0,1.0,-15.0,1651070634631152.0,1
238,34.0,42.0,-34.0,17.0,28.0,11.0,7.0,25.0,1651070634631379.0,1
239,-15.0,-47.0,-15.0,2.0,-1.0,0.0,-6.0,1.0,1651070634631379.0,1
240,20.0,65.0,41.0,8.0,-7.0,-1.0,18.0,32.0,1651070634653749.0,1
241,-6.0,26.0,14.0,-6.0,-14.0,-14.0,-14.0,-25.0,1651070634653749.0,1
242,-10.0,-38.0,-57.0,-4.0,13.0,15.0,2.0,-9.0,1651070634654679.0,1
243,6.0,6.0,44.0,7.0,14.0,-2.0,-4.0,4.0,1651070634654679.0,1
244,-8.0,10.0,35.0,2.0,15.0,1.0,0.0,-6.0,1651070634667714.0,1
245,-18.0,-39.0,-88.0,-18.0,1.0,3.0,-1.0,-8.0,1651070634667714.0,1
246,9.0,18.0,18.0,-2.0,-18.0,-6.0,-3.0,-11.0,1651070634675690.0,1
247,7.0,-22.0,31.0,1.0,1.0,-1.0,-1.0,28.0,1651070634675690.0,1
248,-15.0,-26.0,-53.0,-17.0,-4.0,3.0,5.0,-7.0,1651070634691176.0,1
249,14.0,27.0,31.0,11.0,6.0,0.0,0.0,8.0,1651070634691176.0,1
250,6.0,35.0,14.0,-7.0,-10.0,-6.0,-5.0,-11.0,1651070634691617.0,1
251,9.0,13.0,-40.0,5.0,1.0,5.0,9.0,6.0,1651070634691617.0,1
252,-4.0,-11.0,-17.0,-3.0,-9.0,-5.0,-11.0,-14.0,1651070634715487.0,1
253,-7.0,-1.0,22.0,19.0,10.0,6.0,5.0,-32.0,1651070634715487.0,1
254,-1.0,-31.0,3.0,7.0,5.0,-2.0,-2.0,40.0,1651070634716477.0,1
255,10.0,33.0,3.0,0.0,-14.0,-8.0,2.0,4.0,1651070634716477.0,1
256,-2.0,29.0,23.0,-4.0,-6.0,3.0,7.0,10.0,1651070634736516.0,1
257,-15.0,-38.0,-22.0,5.0,28.0,9.0,-6.0,-18.0,1651070634736516.0,1
258,-4.0,-3.0,27.0,18.0,-11.0,-1.0,1.0,-12.0,1651070634737505.0,1
259,-5.0,31.0,24.0,-36.0,-14.0,-11.0,-8.0,7.0,1651070634737505.0,1
260,12.0,-42.0,-76.0,10.0,-19.0,0.0,-1.0,-7.0,1651070634750483.0,1
261,-8.0,-10.0,-28.0,-22.0,0.0,-11.0,-10.0,-7.0,1651070634750483.0,1
262,7.0,1.0,-34.0,-39.0,8.0,10.0,6.0,2.0,1651070634751467.0,1
263,-10.0,1.0,45.0,41.0,1.0,-7.0,-6.0,-6.0,1651070634751467.0,1
264,-8.0,16.0,62.0,16.0,7.0,6.0,-3.0,-23.0,1651070634774413.0,1
265,31.0,22.0,-45.0,-2.0,-38.0,-13.0,5.0,28.0,1651070634774413.0,1
266,-5.0,-27.0,-3.0,-7.0,3.0,2.0,2.0,-7.0,1651070634774413.0,1
267,-3.0,-34.0,-50.0,3.0,17.0,6.0,0.0,4.0,1651070634774413.0,1
268,0.0,11.0,32.0,-14.0,-3.0,-9.0,0.0,-2.0,1651070634787442.0,1
269,3.0,-1.0,8.0,-14.0,-2.0,-3.0,-10.0,-10.0,1651070634787442.0,1
270,-12.0,3.0,9.0,-11.0,-32.0,-15.0,0.0,8.0,1651070634795420.0,1
271,5.0,1.0,2.0,7.0,15.0,11.0,5.0,10.0,1651070634795420.0,1
272,-8.0,-27.0,-9.0,5.0,-1.0,-3.0,0.0,-13.0,1651070634810463.0,1
273,8.0,14.0,52.0,10.0,12.0,2.0,3.0,21.0,1651070634810463.0,1
274,3.0,14.0,11.0,4.0,-10.0,-1.0,2.0,-3.0,1651070634811394.0,1
275,-15.0,-4.0,20.0,1.0,-13.0,-8.0,-9.0,-12.0,1651070634811394.0,1
276,0.0,-4.0,-11.0,-13.0,1.0,2.0,3.0,-6.0,1651070634834438.0,1
277,4.0,31.0,-9.0,2.0,7.0,8.0,3.0,6.0,1651070634834438.0,1
278,5.0,-40.0,4.0,11.0,9.0,0.0,2.0,-4.0,1651070634834438.0,1
279,0.0,6.0,-12.0,12.0,-6.0,-2.0,3.0,23.0,1651070634834438.0,1
280,-16.0,-22.0,8.0,-24.0,-20.0,-11.0,-17.0,-26.0,1651070634856483.0,1
281,6.0,21.0,43.0,21.0,19.0,2.0,-5.0,-26.0,1651070634856483.0,1
282,5.0,18.0,-64.0,-6.0,-23.0,-9.0,-1.0,24.0,1651070634857508.0,1
283,1.0,-12.0,46.0,6.0,33.0,14.0,1.0,-12.0,1651070634857508.0,1
284,13.0,11.0,26.0,11.0,19.0,16.0,7.0,22.0,1651070634871176.0,1
285,-17.0,-16.0,15.0,-18.0,-19.0,-8.0,-3.0,-1.0,1651070634871176.0,1
286,6.0,40.0,7.0,14.0,6.0,-4.0,-4.0,-13.0,1651070634871381.0,1
287,3.0,5.0,-11.0,1.0,-11.0,-3.0,0.0,-3.0,1651070634871381.0,1
288,-17.0,4.0,0.0,-2.0,-5.0,-7.0,-6.0,-4.0,1651070634894388.0,1
289,1.0,3.0,-12.0,18.0,8.0,6.0,2.0,5.0,1651070634894388.0,1
290,-3.0,-6.0,-7.0,-27.0,-8.0,-6.0,-4.0,-9.0,1651070634894388.0,1
291,-6.0,16.0,2.0,6.0,-10.0,-3.0,-4.0,-39.0,1651070634894388.0,1
292,3.0,-48.0,12.0,-15.0,-3.0,0.0,2.0,43.0,1651070634916940.0,1
293,14.0,-13.0,-22.0,13.0,3.0,-2.0,8.0,22.0,1651070634916940.0,1
294,-14.0,-7.0,-14.0,20.0,18.0,-1.0,-10.0,-18.0,1651070634916940.0,1
295,4.0,17.0,-22.0,-29.0,-12.0,-10.0,-6.0,-3.0,1651070634916940.0,1
296,4.0,6.0,35.0,12.0,5.0,5.0,5.0,-6.0,1651070634930556.0,1
297,-13.0,-15.0,-21.0,-20.0,-27.0,-6.0,-3.0,0.0,1651070634930556.0,1
298,-5.0,21.0,84.0,15.0,26.0,3.0,-4.0,-24.0,1651070634931557.0,1
299,6.0,-4.0,-63.0,-20.0,-11.0,-3.0,5.0,20.0,1651070634931557.0,1
300,-2.0,23.0,24.0,22.0,12.0,5.0,-7.0,-21.0,1651070634953490.0,1
301,5.0,-14.0,5.0,7.0,-2.0,-1.0,5.0,18.0,1651070634953490.0,1
302,-9.0,12.0,35.0,-1.0,-4.0,-4.0,-6.0,-13.0,1651070634954461.0,1
303,17.0,36.0,-19.0,-12.0,-11.0,-4.0,-2.0,8.0,1651070634954461.0,1
304,-4.0,-61.0,-49.0,-14.0,-1.0,-5.0,1.0,2.0,1651070634976611.0,1
305,-13.0,11.0,21.0,8.0,4.0,-1.0,-5.0,-16.0,1651070634976611.0,1
306,2.0,-14.0,-11.0,-12.0,-4.0,1.0,3.0,1.0,1651070634976611.0,1
307,-11.0,-19.0,-40.0,-17.0,16.0,8.0,0.0,3.0,1651070634976611.0,1
308,2.0,3.0,20.0,41.0,13.0,5.0,1.0,-1.0,1651070634991176.0,1
309,12.0,29.0,8.0,1.0,-22.0,-2.0,1.0,-3.0,1651070634991176.0,1
310,-7.0,-7.0,-2.0,11.0,10.0,5.0,6.0,12.0,1651070634991617.0,1
311,-11.0,3.0,-5.0,-12.0,-7.0,-5.0,-14.0,-56.0,1651070634991617.0,1
312,21.0,14.0,49.0,-3.0,1.0,0.0,15.0,67.0,1651070635014148.0,1
313,-17.0,-29.0,-15.0,11.0,6.0,0.0,-6.0,-16.0,1651070635014148.0,1
314,30.0,28.0,-22.0,-14.0,-9.0,-4.0,1.0,15.0,1651070635015214.0,1
315,-3.0,8.0,27.0,12.0,-9.0,-5.0,-2.0,2.0,1651070635015214.0,1
316,-24.0,-37.0,-9.0,9.0,11.0,4.0,-4.0,-45.0,1651070635036546.0,1
317,19.0,14.0,9.0,-39.0,-7.0,1.0,4.0,32.0,1651070635036546.0,1
318,-1.0,-5.0,-63.0,-4.0,-6.0,-1.0,0.0,2.0,1651070635037538.0,1
319,3.0,-28.0,-12.0,7.0,6.0,4.0,1.0,-3.0,1651070635037538.0,1
320,-4.0,25.0,-5.0,-25.0,0.0,2.0,-4.0,-10.0,1651070635051176.0,1
321,-6.0,-33.0,16.0,14.0,-5.0,-1.0,1.0,13.0,1651070635051176.0,1
322,-6.0,-2.0,18.0,3.0,-2.0,-11.0,-10.0,-18.0,1651070635051525.0,1
323,-14.0,-23.0,-5.0,16.0,18.0,13.0,3.0,5.0,1651070635051525.0,1
324,14.0,23.0,-32.0,-32.0,-30.0,-19.0,-6.0,-8.0,1651070635074511.0,1
325,2.0,17.0,48.0,6.0,38.0,19.0,8.0,8.0,1651070635074511.0,1
326,-4.0,-18.0,-8.0,1.0,-12.0,-3.0,-4.0,-4.0,1651070635074511.0,1
327,-7.0,7.0,35.0,13.0,-8.0,-7.0,-5.0,-11.0,1651070635074511.0,1
328,-3.0,-11.0,-10.0,-6.0,-7.0,-3.0,-4.0,-23.0,1651070635096563.0,1
329,25.0,19.0,-11.0,-32.0,-13.0,-3.0,6.0,30.0,1651070635096563.0,1
330,-7.0,1.0,12.0,19.0,-4.0,3.0,5.0,5.0,1651070635097580.0,1
331,12.0,28.0,21.0,-1.0,11.0,-1.0,5.0,19.0,1651070635097580.0,1
332,4.0,16.0,-36.0,-15.0,-2.0,0.0,1.0,0.0,1651070635110592.0,1
333,-15.0,-18.0,-46.0,16.0,-8.0,-6.0,-7.0,-21.0,1651070635110592.0,1
334,-5.0,-67.0,-7.0,-18.0,-2.0,10.0,5.0,8.0,1651070635111523.0,1
335,8.0,38.0,31.0,23.0,21.0,4.0,2.0,9.0,1651070635111523.0,1
336,0.0,15.0,14.0,10.0,5.0,2.0,-1.0,-21.0,1651070635134462.0,1
337,-8.0,5.0,-7.0,-11.0,-5.0,-7.0,-7.0,6.0,1651070635134462.0,1
338,2.0,20.0,-27.0,-14.0,-23.0,-9.0,-6.0,2.0,1651070635134462.0,1
339,-5.0,-22.0,11.0,-17.0,-5.0,-3.0,-2.0,-5.0,1651070635134462.0,1
340,-6.0,32.0,-6.0,-6.0,8.0,4.0,1.0,1.0,1651070635156322.0,1
341,-12.0,-32.0,-22.0,14.0,-1.0,0.0,-1.0,-11.0,1651070635156322.0,1
342,3.0,0.0,35.0,0.0,1.0,1.0,-1.0,-1.0,1651070635157252.0,1
343,2.0,-27.0,-14.0,-4.0,-11.0,-6.0,-5.0,-9.0,1651070635157252.0,1
344,12.0,78.0,33.0,21.0,7.0,1.0,8.0,45.0,1651070635171280.0,1
345,2.0,-15.0,-11.0,5.0,-9.0,-2.0,0.0,-9.0,1651070635171280.0,1
346,5.0,18.0,19.0,-7.0,12.0,-2.0,0.0,3.0,1651070635171280.0,1
347,-14.0,-34.0,-47.0,5.0,-2.0,-1.0,-1.0,0.0,1651070635171280.0,1
348,15.0,8.0,12.0,-9.0,-4.0,9.0,0.0,-16.0,1651070635194351.0,1
349,-2.0,-9.0,5.0,-6.0,9.0,-1.0,2.0,7.0,1651070635194351.0,1
350,0.0,30.0,-16.0,-8.0,-2.0,6.0,0.0,-8.0,1651070635194351.0,1
351,14.0,-34.0,1.0,2.0,-6.0,-3.0,-1.0,9.0,1651070635194351.0,1
352,-15.0,-44.0,14.0,14.0,-7.0,-10.0,-9.0,-17.0,1651070635216376.0,1
353,1.0,-1.0,18.0,-13.0,-4.0,1.0,2.0,-8.0,1651070635216376.0,1
354,7.0,-12.0,32.0,22.0,14.0,0.0,1.0,29.0,1651070635217357.0,1
355,5.0,47.0,-8.0,-3.0,-10.0,0.0,3.0,-2.0,1651070635217357.0,1
356,6.0,33.0,-43.0,-19.0,0.0,-3.0,-2.0,5.0,1651070635230340.0,1
357,-16.0,18.0,-13.0,-17.0,-14.0,0.0,-6.0,-26.0,1651070635230340.0,1
358,-11.0,-2.0,-8.0,8.0,5.0,-5.0,-7.0,-21.0,1651070635231322.0,1
359,7.0,-18.0,-11.0,-6.0,8.0,4.0,7.0,21.0,1651070635231322.0,1
360,-1.0,-42.0,0.0,13.0,2.0,-1.0,-3.0,10.0,1651070635254376.0,1
361,9.0,44.0,27.0,1.0,6.0,-1.0,3.0,-3.0,1651070635254376.0,1
362,-7.0,-37.0,-30.0,-6.0,-5.0,1.0,4.0,-4.0,1651070635254376.0,1
363,0.0,17.0,18.0,-12.0,-24.0,-7.0,-1.0,-1.0,1651070635254376.0,1
364,6.0,38.0,26.0,51.0,32.0,6.0,1.0,-4.0,1651070635276741.0,1
365,-8.0,-40.0,13.0,-12.0,7.0,8.0,0.0,-2.0,1651070635276741.0,1
366,-7.0,-2.0,-28.0,-9.0,21.0,9.0,3.0,-7.0,1651070635277729.0,1
367,13.0,0.0,-20.0,-14.0,-16.0,-11.0,2.0,15.0,1651070635277729.0,1
368,-9.0,22.0,-40.0,-48.0,-10.0,-3.0,-8.0,-29.0,1651070635290866.0,1
369,6.0,-26.0,36.0,35.0,5.0,-1.0,-2.0,25.0,1651070635290866.0,1
370,2.0,9.0,4.0,15.0,5.0,1.0,12.0,34.0,1651070635291809.0,1
371,-18.0,11.0,20.0,-1.0,1.0,-2.0,-6.0,-22.0,1651070635291809.0,1
372,-4.0,-21.0,-7.0,6.0,-12.0,-3.0,4.0,26.0,1651070635314101.0,1
373,-9.0,45.0,5.0,-1.0,7.0,2.0,-6.0,-28.0,1651070635314101.0,1
374,11.0,-28.0,8.0,19.0,-9.0,-1.0,0.0,-13.0,1651070635315133.0,1
375,2.0,41.0,23.0,0.0,13.0,4.0,1.0,14.0,1651070635315133.0,1
376,6.0,-39.0,-22.0,-10.0,-13.0,-2.0,4.0,5.0,1651070635336408.0,1
377,-9.0,-18.0,-28.0,2.0,0.0,-1.0,0.0,-4.0,1651070635336408.0,1
378,-3.0,34.0,4.0,-6.0,-2.0,-2.0,-5.0,-7.0,1651070635337377.0,1
379,13.0,5.0,11.0,7.0,-17.0,-3.0,-2.0,2.0,1651070635337377.0,1
380,14.0,-2.0,64.0,26.0,36.0,14.0,6.0,7.0,1651070635350354.0,1
381,-8.0,8.0,-37.0,-25.0,-11.0,-3.0,3.0,0.0,1651070635350354.0,1
382,-16.0,-19.0,-18.0,-18.0,-16.0,-8.0,-4.0,-4.0,1651070635351345.0,1
383,-4.0,-31.0,5.0,-1.0,7.0,5.0,1.0,-1.0,1651070635351345.0,1
384,3.0,26.0,42.0,16.0,-21.0,-6.0,-3.0,8.0,1651070635374695.0,1
385,3.0,-43.0,-32.0,-1.0,24.0,10.0,3.0,10.0,1651070635374695.0,1
386,4.0,10.0,-5.0,-10.0,-2.0,-7.0,-1.0,3.0,1651070635375625.0,1
387,-16.0,-24.0,-33.0,-15.0,-2.0,0.0,-2.0,-13.0,1651070635375625.0,1
388,-23.0,-27.0,1.0,32.0,2.0,6.0,-1.0,-10.0,1651070635404355.0,1
389,4.0,27.0,-23.0,-50.0,-8.0,-2.0,-3.0,-10.0,1651070635404355.0,1
390,10.0,25.0,16.0,34.0,-2.0,-3.0,-6.0,-10.0,1651070635404545.0,1
391,25.0,4.0,-6.0,5.0,3.0,-2.0,4.0,26.0,1651070635404545.0,1
392,-8.0,-27.0,-19.0,-25.0,-6.0,-7.0,-3.0,3.0,1651070635410556.0,1
393,-2.0,-9.0,3.0,18.0,-6.0,-3.0,-2.0,6.0,1651070635410556.0,1
394,-15.0,-23.0,-10.0,-33.0,-5.0,1.0,-5.0,-38.0,1651070635411528.0,1
395,6.0,34.0,33.0,34.0,6.0,6.0,0.0,12.0,1651070635411528.0,1
396,17.0,37.0,14.0,15.0,12.0,-3.0,-4.0,12.0,1651070635434350.0,1
397,-10.0,-58.0,-26.0,-42.0,-18.0,-14.0,-7.0,-3.0,1651070635434350.0,1
398,9.0,26.0,-15.0,16.0,-6.0,-3.0,0.0,-2.0,1651070635434350.0,1
399,-34.0,-21.0,-6.0,-10.0,-8.0,-2.0,-9.0,-21.0,1651070635434350.0,1
400,8.0,-4.0,-5.0,-17.0,-18.0,-4.0,6.0,13.0,1651070635456677.0,1
401,-4.0,2.0,26.0,76.0,47.0,16.0,4.0,0.0,1651070635456677.0,1
402,22.0,9.0,32.0,-32.0,3.0,-1.0,6.0,14.0,1651070635457670.0,1
403,1.0,8.0,-35.0,-1.0,-2.0,-3.0,-1.0,-3.0,1651070635457670.0,1
404,-4.0,-21.0,-34.0,-25.0,-18.0,-8.0,-4.0,-2.0,1651070635470637.0,1
405,-26.0,7.0,40.0,5.0,-22.0,-11.0,-10.0,-19.0,1651070635470637.0,1
406,-6.0,-25.0,-42.0,-18.0,13.0,5.0,-3.0,-15.0,1651070635478681.0,1
407,4.0,18.0,33.0,26.0,10.0,3.0,2.0,6.0,1651070635478681.0,1
408,-2.0,-45.0,-49.0,-16.0,1.0,0.0,4.0,12.0,1651070635494350.0,1
409,18.0,42.0,48.0,-2.0,-4.0,2.0,5.0,4.0,1651070635494350.0,1
410,9.0,-13.0,-9.0,34.0,-8.0,-6.0,-5.0,3.0,1651070635494350.0,1
411,-52.0,-12.0,-14.0,-28.0,-5.0,-4.0,-3.0,-12.0,1651070635494350.0,1
412,-11.0,-5.0,7.0,15.0,8.0,0.0,-5.0,-24.0,1651070635516320.0,1
413,6.0,16.0,7.0,1.0,1.0,1.0,-1.0,11.0,1651070635516320.0,1
414,-2.0,-17.0,-4.0,-7.0,-19.0,-2.0,3.0,9.0,1651070635518129.0,1
415,21.0,6.0,34.0,14.0,28.0,14.0,14.0,12.0,1651070635518129.0,1
416,19.0,4.0,-18.0,30.0,26.0,10.0,4.0,14.0,1651070635530559.0,1
417,-18.0,-10.0,-36.0,-65.0,-13.0,-6.0,-1.0,3.0,1651070635530559.0,1
418,-11.0,-4.0,-39.0,-20.0,-24.0,-12.0,-8.0,-5.0,1651070635539541.0,1
419,-8.0,-27.0,23.0,10.0,-6.0,-5.0,-4.0,-11.0,1651070635539541.0,1
420,0.0,31.0,15.0,-33.0,-12.0,-6.0,-4.0,1.0,1651070635553500.0,1
421,19.0,-11.0,-3.0,39.0,10.0,5.0,4.0,-1.0,1651070635553500.0,1
422,-4.0,24.0,39.0,6.0,12.0,6.0,4.0,6.0,1651070635555495.0,1
423,5.0,-8.0,14.0,-10.0,-10.0,-5.0,-5.0,-8.0,1651070635555495.0,1
424,-5.0,-6.0,-63.0,2.0,-5.0,0.0,-1.0,-5.0,1651070635576917.0,1
425,1.0,9.0,7.0,7.0,1.0,0.0,-1.0,-16.0,1651070635576917.0,1
426,20.0,32.0,-3.0,-19.0,8.0,7.0,8.0,21.0,1651070635577945.0,1
427,-1.0,-17.0,13.0,37.0,-3.0,-6.0,-2.0,-6.0,1651070635577945.0,1
428,9.0,-10.0,3.0,-37.0,-5.0,-2.0,0.0,21.0,1651070635590031.0,1
429,1.0,6.0,-6.0,14.0,-8.0,-5.0,3.0,3.0,1651070635590031.0,1
430,-13.0,-19.0,6.0,8.0,8.0,3.0,-3.0,0.0,1651070635599010.0,1
431,12.0,14.0,-10.0,-5.0,-4.0,0.0,0.0,0.0,1651070635599010.0,1
432,-8.0,-12.0,6.0,3.0,-3.0,-1.0,-4.0,-19.0,1651070635614233.0,1
433,32.0,15.0,0.0,-16.0,-7.0,-2.0,-1.0,-2.0,1651070635614233.0,1
434,-19.0,-4.0,20.0,17.0,7.0,1.0,0.0,9.0,1651070635615198.0,1
435,-18.0,-15.0,-16.0,-3.0,0.0,-2.0,-2.0,-1.0,1651070635615198.0,1
436,-24.0,-9.0,22.0,1.0,-2.0,-1.0,0.0,-11.0,1651070635636614.0,1
437,6.0,-3.0,-6.0,44.0,6.0,0.0,-2.0,6.0,1651070635636614.0,1
438,16.0,21.0,3.0,-44.0,-3.0,1.0,0.0,0.0,1651070635637610.0,1
439,2.0,-17.0,-15.0,23.0,-4.0,0.0,0.0,-2.0,1651070635637610.0,1
440,-8.0,-16.0,-2.0,-21.0,-2.0,-1.0,0.0,1.0,1651070635650578.0,1
441,5.0,2.0,-5.0,-19.0,-6.0,-3.0,-4.0,-19.0,1651070635650578.0,1
442,10.0,8.0,-2.0,29.0,4.0,-1.0,-1.0,11.0,1651070635659577.0,1
443,0.0,9.0,-1.0,-9.0,4.0,3.0,3.0,2.0,1651070635659577.0,1
444,8.0,5.0,7.0,4.0,-1.0,-1.0,-2.0,-3.0,1651070635673340.0,1
445,-19.0,-10.0,3.0,11.0,-4.0,-4.0,0.0,2.0,1651070635673340.0,1
446,-16.0,-18.0,6.0,-5.0,-1.0,4.0,-1.0,-6.0,1651070635681333.0,1
447,13.0,3.0,-20.0,-36.0,-2.0,-1.0,1.0,4.0,1651070635681333.0,1
448,-2.0,7.0,10.0,30.0,0.0,-1.0,-2.0,-8.0,1651070635696402.0,1
449,-11.0,2.0,9.0,15.0,7.0,3.0,3.0,3.0,1651070635696402.0,1
450,0.0,-2.0,-2.0,-9.0,-4.0,-1.0,-1.0,-4.0,1651070635698353.0,1
451,-3.0,3.0,-17.0,-14.0,-6.0,-3.0,0.0,-2.0,1651070635698353.0,1
452,2.0,5.0,15.0,-2.0,-1.0,2.0,1.0,-3.0,1651070635710499.0,1
453,3.0,1.0,-4.0,8.0,-1.0,0.0,-1.0,2.0,1651070635710499.0,1
454,0.0,1.0,-1.0,2.0,0.0,-2.0,0.0,2.0,1651070635719414.0,1
455,7.0,-12.0,-11.0,-9.0,8.0,4.0,1.0,2.0,1651070635719414.0,1
456,-11.0,0.0,4.0,-7.0,-4.0,-5.0,0.0,-5.0,1651070635734491.0,1
457,9.0,2.0,-18.0,-18.0,-1.0,0.0,0.0,4.0,1651070635734491.0,1
458,-16.0,-5.0,24.0,14.0,-1.0,-3.0,-4.0,-7.0,1651070635735491.0,1
459,0.0,1.0,1.0,-4.0,-5.0,-2.0,-4.0,-2.0,1651070635735491.0,1
460,4.0,7.0,6.0,22.0,6.0,3.0,4.0,2.0,1651070635756396.0,1
461,-2.0,-5.0,2.0,-12.0,0.0,0.0,2.0,5.0,1651070635756396.0,1
462,-3.0,-5.0,-3.0,28.0,-1.0,-3.0,-2.0,-5.0,1651070635758339.0,1
463,3.0,3.0,-5.0,-44.0,-3.0,-2.0,-1.0,2.0,1651070635758339.0,1
464,-13.0,-17.0,-12.0,7.0,-7.0,-4.0,-2.0,-2.0,1651070635769929.0,1
465,32.0,27.0,-4.0,-26.0,-9.0,-2.0,-3.0,-1.0,1651070635769929.0,1
466,1.0,5.0,14.0,29.0,8.0,4.0,1.0,0.0,1651070635778853.0,1
467,1.0,-1.0,13.0,28.0,7.0,1.0,1.0,3.0,1651070635778853.0,1
468,-20.0,-4.0,-18.0,-14.0,-12.0,-7.0,-7.0,-14.0,1651070635793748.0,1
469,4.0,-3.0,-4.0,-15.0,0.0,2.0,0.0,11.0,1651070635793748.0,1
470,7.0,-5.0,0.0,19.0,-2.0,-2.0,1.0,2.0,1651070635795676.0,1
471,4.0,9.0,1.0,-36.0,5.0,8.0,6.0,4.0,1651070635795676.0,1
472,16.0,11.0,12.0,18.0,3.0,1.0,-1.0,-1.0,1651070635816680.0,1
473,-11.0,-5.0,-8.0,8.0,-2.0,-4.0,-3.0,-6.0,1651070635816680.0,1
474,-1.0,-5.0,2.0,-2.0,-3.0,-3.0,-2.0,-1.0,1651070635817671.0,1
475,-3.0,-10.0,-7.0,7.0,-2.0,0.0,-2.0,-1.0,1651070635817671.0,1
476,2.0,4.0,-7.0,-3.0,6.0,3.0,0.0,0.0,1651070635839402.0,1
477,-6.0,-7.0,3.0,8.0,6.0,8.0,3.0,2.0,1651070635839402.0,1
478,-11.0,-8.0,-21.0,-31.0,-12.0,-4.0,-1.0,-1.0,1651070635840352.0,1
479,9.0,12.0,12.0,21.0,1.0,-3.0,-4.0,-7.0,1651070635840352.0,1
480,2.0,-13.0,-6.0,-6.0,-1.0,-1.0,0.0,1.0,1651070635854328.0,1
481,-11.0,8.0,12.0,2.0,-3.0,0.0,-2.0,0.0,1651070635854328.0,1
482,11.0,7.0,-4.0,1.0,-2.0,-2.0,0.0,-2.0,1651070635855312.0,1
483,-1.0,3.0,4.0,33.0,-1.0,0.0,0.0,-1.0,1651070635855312.0,1
484,-10.0,2.0,6.0,-35.0,-4.0,1.0,2.0,-1.0,1651070635876406.0,1
485,-8.0,1.0,-1.0,3.0,-5.0,-4.0,-2.0,0.0,1651070635876406.0,1
486,-16.0,-6.0,-14.0,-10.0,1.0,0.0,0.0,-2.0,1651070635878384.0,1
487,9.0,2.0,-3.0,8.0,2.0,-3.0,-2.0,0.0,1651070635878384.0,1
488,-1.0,13.0,21.0,23.0,9.0,1.0,-2.0,6.0,1651070635899352.0,1
489,7.0,-9.0,-6.0,37.0,3.0,3.0,0.0,0.0,1651070635899352.0,1
490,-3.0,4.0,13.0,-28.0,0.0,4.0,1.0,2.0,1651070635900353.0,1
491,-11.0,-2.0,-5.0,-35.0,-12.0,-2.0,1.0,3.0,1651070635900353.0,1
492,5.0,3.0,-28.0,-7.0,-8.0,-3.0,-2.0,-8.0,1651070635914377.0,1
493,4.0,9.0,25.0,-14.0,0.0,0.0,0.0,-1.0,1651070635914377.0,1
494,3.0,-27.0,-46.0,5.0,9.0,4.0,2.0,0.0,1651070635915313.0,1
495,-3.0,-6.0,7.0,34.0,5.0,-1.0,0.0,-1.0,1651070635915313.0,1
496,5.0,11.0,-3.0,-36.0,-14.0,-7.0,0.0,1.0,1651070635936325.0,1
497,-11.0,-11.0,-16.0,-6.0,-3.0,-3.0,-2.0,-4.0,1651070635936325.0,1
498,1.0,21.0,36.0,38.0,12.0,3.0,1.0,-1.0,1651070635938251.0,1
499,0.0,-22.0,-19.0,-5.0,5.0,3.0,1.0,0.0,1651070635938251.0,1
500,2.0,0.0,16.0,59.0,2.0,0.0,1.0,1.0,1651070635959404.0,1
501,-5.0,-14.0,-6.0,-59.0,-13.0,-5.0,0.0,-1.0,1651070635959404.0,1
502,8.0,10.0,-7.0,-5.0,-14.0,-4.0,-2.0,0.0,1651070635960308.0,1
503,1.0,8.0,22.0,-24.0,-6.0,-1.0,-2.0,-2.0,1651070635960308.0,1
504,5.0,1.0,-12.0,8.0,10.0,5.0,4.0,3.0,1651070635973340.0,1
505,-2.0,-6.0,22.0,33.0,14.0,0.0,-1.0,-3.0,1651070635973340.0,1
506,2.0,6.0,7.0,5.0,0.0,2.0,1.0,1.0,1651070635980321.0,1
507,-2.0,-7.0,-18.0,-12.0,3.0,4.0,1.0,1.0,1651070635980321.0,1
508,-10.0,-7.0,0.0,-5.0,-5.0,-2.0,-3.0,-1.0,1651070635996162.0,1
509,2.0,22.0,32.0,-12.0,-5.0,-1.0,1.0,-1.0,1651070635996162.0,1
510,2.0,-8.0,-28.0,-19.0,-6.0,-5.0,-2.0,-3.0,1651070635998118.0,1
511,1.0,10.0,13.0,28.0,-5.0,-6.0,-2.0,-1.0,1651070635998118.0,1
512,-1.0,-6.0,-20.0,-18.0,-1.0,3.0,0.0,0.0,1651070636018756.0,1
513,0.0,9.0,4.0,22.0,3.0,2.0,2.0,1.0,1651070636018756.0,1
514,0.0,-5.0,12.0,-11.0,1.0,1.0,-3.0,1.0,1651070636020700.0,1
515,-3.0,-6.0,-12.0,-9.0,-5.0,-3.0,-1.0,-2.0,1651070636020700.0,1
516,-1.0,-3.0,10.0,8.0,0.0,1.0,-2.0,-5.0,1651070636033710.0,1
517,3.0,3.0,1.0,-2.0,-8.0,-2.0,1.0,-2.0,1651070636033710.0,1
518,1.0,-3.0,16.0,1.0,14.0,2.0,1.0,7.0,1651070636039745.0,1
519,-3.0,-4.0,-16.0,0.0,-5.0,-3.0,-1.0,-3.0,1651070636039745.0,1
520,2.0,1.0,2.0,-4.0,14.0,5.0,0.0,0.0,1651070636056699.0,1
521,-4.0,-7.0,-11.0,8.0,-8.0,0.0,-1.0,-2.0,1651070636056699.0,1
522,-1.0,-6.0,-7.0,1.0,2.0,-3.0,-1.0,-3.0,1651070636057692.0,1
523,1.0,4.0,5.0,-14.0,1.0,-3.0,1.0,3.0,1651070636057692.0,1
524,2.0,0.0,18.0,34.0,7.0,6.0,0.0,0.0,1651070636079460.0,1
525,-13.0,-6.0,-23.0,-12.0,-3.0,-3.0,-4.0,-2.0,1651070636079460.0,1
526,0.0,2.0,-3.0,-33.0,-10.0,-1.0,-3.0,-3.0,1651070636080461.0,1
527,0.0,-4.0,20.0,38.0,-4.0,-5.0,-3.0,-1.0,1651070636080461.0,1
528,-3.0,-10.0,-12.0,-27.0,-13.0,-5.0,1.0,-2.0,1651070636093063.0,1
529,1.0,-2.0,-20.0,-5.0,5.0,1.0,-2.0,-1.0,1651070636093063.0,1
530,-1.0,-6.0,4.0,11.0,-1.0,-1.0,-3.0,-1.0,1651070636102046.0,1
531,-4.0,6.0,-8.0,-10.0,0.0,2.0,0.0,-2.0,1651070636102046.0,1
532,2.0,-3.0,10.0,16.0,3.0,0.0,-2.0,-1.0,1651070636124186.0,1
533,-1.0,-6.0,-30.0,-23.0,-1.0,-2.0,-1.0,1.0,1651070636124186.0,1
534,0.0,4.0,14.0,0.0,-2.0,-3.0,1.0,-1.0,1651070636125143.0,1
535,3.0,4.0,17.0,7.0,0.0,0.0,-1.0,-1.0,1651070636125143.0,1
536,-2.0,-8.0,-18.0,-11.0,-5.0,-2.0,-1.0,2.0,1651070636139198.0,1
537,1.0,-3.0,1.0,24.0,5.0,-2.0,0.0,1.0,1651070636139198.0,1
538,-1.0,3.0,0.0,0.0,-1.0,2.0,0.0,-1.0,1651070636140214.0,1
539,-1.0,-7.0,-38.0,-19.0,-1.0,0.0,-2.0,-2.0,1651070636140214.0,1
540,2.0,10.0,8.0,2.0,0.0,-1.0,0.0,1.0,1651070636153057.0,1
541,-1.0,-8.0,2.0,-1.0,2.0,-3.0,0.0,0.0,1651070636153057.0,1
542,0.0,5.0,9.0,3.0,-10.0,-3.0,-3.0,-1.0,1651070636162039.0,1
543,0.0,2.0,14.0,7.0,14.0,4.0,1.0,3.0,1651070636162039.0,1
544,-1.0,3.0,-15.0,-41.0,-11.0,-2.0,-1.0,-4.0,1651070636176227.0,1
545,0.0,-2.0,0.0,39.0,0.0,-4.0,-2.0,-1.0,1651070636176227.0,1
546,0.0,-1.0,-16.0,-15.0,-11.0,1.0,0.0,-2.0,1651070636178155.0,1
547,-1.0,0.0,-1.0,-25.0,0.0,-1.0,-2.0,0.0,1651070636178155.0,1
548,-3.0,1.0,16.0,25.0,22.0,3.0,-1.0,-1.0,1651070636198765.0,1
549,5.0,11.0,5.0,-3.0,4.0,7.0,3.0,-1.0,1651070636198765.0,1
550,-3.0,-4.0,-3.0,-5.0,-3.0,-4.0,1.0,-2.0,1651070636204819.0,1
551,1.0,5.0,9.0,25.0,-12.0,-4.0,-1.0,0.0,1651070636204819.0,1
552,2.0,-1.0,-9.0,-32.0,-6.0,-1.0,2.0,1.0,1651070636213045.0,1
553,2.0,-4.0,-1.0,-7.0,-1.0,-2.0,-5.0,0.0,1651070636213045.0,1
554,-1.0,-4.0,1.0,11.0,5.0,1.0,0.0,2.0,1651070636221753.0,1
555,0.0,-1.0,-8.0,-3.0,-2.0,-1.0,-2.0,-3.0,1651070636221753.0,1
556,-4.0,-5.0,-14.0,-12.0,-9.0,-8.0,-3.0,-7.0,1651070636244172.0,1
557,5.0,5.0,8.0,-3.0,0.0,2.0,3.0,4.0,1651070636244172.0,1
558,-1.0,-5.0,-5.0,-3.0,1.0,1.0,-2.0,0.0,1651070636245173.0,1
559,-2.0,1.0,13.0,2.0,-1.0,0.0,-2.0,-2.0,1651070636245173.0,1
560,-1.0,-4.0,-22.0,4.0,1.0,1.0,-2.0,-7.0,1651070636259351.0,1
561,0.0,-3.0,1.0,0.0,-4.0,-2.0,-2.0,1.0,1651070636259351.0,1
562,2.0,-2.0,-2.0,-8.0,1.0,-3.0,-1.0,4.0,1651070636260335.0,1
563,-1.0,-5.0,-8.0,-2.0,-5.0,-2.0,0.0,-1.0,1651070636260335.0,1
564,1.0,-3.0,27.0,25.0,1.0,-1.0,-2.0,5.0,1651070636273789.0,1
565,-1.0,6.0,-11.0,9.0,3.0,0.0,3.0,-3.0,1651070636273789.0,1
566,-1.0,3.0,16.0,7.0,17.0,11.0,3.0,1.0,1651070636279845.0,1
567,-2.0,-8.0,-10.0,-17.0,-10.0,-4.0,-2.0,-2.0,1651070636279845.0,1
568,-1.0,2.0,0.0,-7.0,0.0,-3.0,-2.0,-2.0,1651070636296918.0,1
569,-1.0,5.0,1.0,5.0,-5.0,-1.0,0.0,0.0,1651070636296918.0,1
570,1.0,2.0,4.0,-29.0,-6.0,-1.0,-1.0,0.0,1651070636297883.0,1
571,-1.0,-1.0,-10.0,17.0,1.0,0.0,0.0,-2.0,1651070636297883.0,1
572,1.0,0.0,8.0,6.0,-5.0,0.0,-2.0,3.0,1651070636318625.0,1
573,-3.0,-2.0,6.0,-12.0,1.0,-1.0,-2.0,-1.0,1651070636318625.0,1
574,-3.0,-5.0,-3.0,19.0,-3.0,0.0,0.0,-4.0,1651070636320553.0,1
575,0.0,-2.0,2.0,-1.0,1.0,2.0,0.0,0.0,1651070636320553.0,1
576,2.0,2.0,-11.0,-11.0,-8.0,-4.0,-2.0,2.0,1651070636332667.0,1
577,0.0,2.0,11.0,-1.0,6.0,1.0,0.0,-1.0,1651070636332667.0,1
578,-2.0,-4.0,-2.0,8.0,-2.0,-2.0,0.0,-1.0,1651070636341608.0,1
579,1.0,1.0,0.0,-2.0,2.0,0.0,0.0,1.0,1651070636341608.0,1
580,1.0,1.0,1.0,-2.0,-1.0,-2.0,-1.0,-1.0,1651070636356567.0,1
581,3.0,6.0,-22.0,-24.0,-28.0,-9.0,-2.0,-3.0,1651070636356567.0,1
582,-1.0,1.0,10.0,15.0,46.0,15.0,2.0,-5.0,1651070636357592.0,1
583,-2.0,-1.0,7.0,20.0,3.0,0.0,-1.0,1.0,1651070636357592.0,1
584,-1.0,-5.0,11.0,5.0,-2.0,0.0,0.0,3.0,1651070636378536.0,1
585,-2.0,-5.0,-8.0,-12.0,0.0,4.0,-1.0,-2.0,1651070636378536.0,1
586,-1.0,1.0,-11.0,-6.0,-18.0,-11.0,-5.0,-2.0,1651070636380504.0,1
587,0.0,0.0,-9.0,-18.0,-5.0,0.0,0.0,-2.0,1651070636380504.0,1
588,1.0,5.0,14.0,18.0,6.0,0.0,-1.0,4.0,1651070636392539.0,1
589,-1.0,-8.0,-11.0,5.0,5.0,3.0,1.0,1.0,1651070636392539.0,1
590,0.0,-3.0,0.0,-1.0,-10.0,-5.0,-2.0,-2.0,1651070636401565.0,1
591,-3.0,-6.0,-4.0,-10.0,6.0,4.0,0.0,-1.0,1651070636401565.0,1
592,1.0,0.0,-6.0,-8.0,-12.0,-3.0,1.0,0.0,1651070636416950.0,1
593,-3.0,-3.0,10.0,9.0,3.0,-1.0,1.0,2.0,1651070636416950.0,1
594,0.0,4.0,6.0,2.0,1.0,0.0,-1.0,-1.0,1651070636417954.0,1
595,2.0,3.0,-4.0,-12.0,-4.0,-2.0,-2.0,-1.0,1651070636417954.0,1
596,-2.0,-2.0,-3.0,8.0,-14.0,-2.0,0.0,-1.0,1651070636438612.0,1
597,-2.0,-5.0,-14.0,-9.0,18.0,3.0,-1.0,-1.0,1651070636438612.0,1
598,-1.0,-4.0,8.0,14.0,-7.0,-3.0,1.0,-1.0,1651070636440580.0,1
599,0.0,-5.0,1.0,-7.0,-3.0,-3.0,2.0,1.0,1651070636440580.0,1
600,1.0,2.0,8.0,-9.0,3.0,3.0,1.0,0.0,1651070636453048.0,1
601,-2.0,5.0,11.0,3.0,-6.0,-4.0,0.0,-2.0,1651070636453048.0,1
602,0.0,-3.0,-13.0,2.0,-5.0,-2.0,0.0,0.0,1651070636461611.0,1
603,-1.0,1.0,-4.0,-6.0,3.0,1.0,-1.0,0.0,1651070636461611.0,1
604,0.0,2.0,7.0,13.0,-17.0,-3.0,-1.0,-1.0,1651070636476572.0,1
605,-2.0,-5.0,-8.0,-11.0,5.0,-2.0,-1.0,0.0,1651070636476572.0,1
606,-1.0,0.0,-6.0,-10.0,7.0,4.0,1.0,1.0,1651070636477569.0,1
607,0.0,4.0,3.0,2.0,-5.0,-3.0,-1.0,-2.0,1651070636477569.0,1
608,-1.0,-4.0,-1.0,-5.0,10.0,2.0,0.0,-2.0,1651070636499275.0,1
609,-1.0,2.0,13.0,11.0,-12.0,-2.0,-1.0,-4.0,1651070636499275.0,1
610,-1.0,4.0,-9.0,-4.0,-10.0,-6.0,-2.0,2.0,1651070636500288.0,1
611,-4.0,-15.0,2.0,3.0,5.0,1.0,-1.0,-2.0,1651070636500288.0,1
612,1.0,1.0,2.0,-2.0,-1.0,1.0,0.0,3.0,1651070636512719.0,1
613,1.0,0.0,4.0,-5.0,4.0,0.0,0.0,-1.0,1651070636512719.0,1
614,-1.0,1.0,-4.0,4.0,2.0,0.0,-1.0,-3.0,1651070636521627.0,1
615,1.0,2.0,3.0,8.0,-5.0,-2.0,1.0,-3.0,1651070636521627.0,1
616,-2.0,-2.0,-3.0,-6.0,4.0,0.0,0.0,-1.0,1651070636536357.0,1
617,1.0,-4.0,-6.0,3.0,-7.0,-3.0,0.0,1.0,1651070636536357.0,1
618,3.0,18.0,21.0,-7.0,4.0,2.0,-1.0,2.0,1651070636538312.0,1
619,-1.0,-10.0,-27.0,-2.0,-4.0,-5.0,-3.0,1.0,1651070636538312.0,1
620,1.0,-4.0,-2.0,3.0,16.0,9.0,1.0,-4.0,1651070636559228.0,1
621,0.0,-5.0,0.0,4.0,8.0,4.0,2.0,2.0,1651070636559228.0,1
622,0.0,-5.0,-7.0,-2.0,-10.0,-5.0,-1.0,0.0,1651070636560225.0,1
623,2.0,4.0,2.0,1.0,-4.0,-1.0,0.0,-1.0,1651070636560225.0,1
624,-2.0,1.0,-5.0,-11.0,2.0,-1.0,-1.0,-1.0,1651070636572261.0,1
625,1.0,3.0,1.0,4.0,-4.0,0.0,-3.0,0.0,1651070636572261.0,1
626,-1.0,2.0,17.0,-4.0,-18.0,-3.0,-2.0,-1.0,1651070636581237.0,1
627,-3.0,-8.0,-4.0,2.0,30.0,6.0,2.0,0.0,1651070636581237.0,1
628,1.0,-5.0,-1.0,8.0,12.0,7.0,3.0,1.0,1651070636596418.0,1
629,0.0,2.0,9.0,4.0,-1.0,-1.0,2.0,0.0,1651070636596418.0,1
630,0.0,-4.0,-3.0,0.0,-5.0,-3.0,-1.0,-3.0,1651070636598381.0,1
631,1.0,11.0,17.0,-2.0,-17.0,-5.0,-2.0,-1.0,1651070636598381.0,1
632,-3.0,-7.0,-29.0,-15.0,-7.0,-4.0,-5.0,-4.0,1651070636619461.0,1
633,1.0,-3.0,5.0,6.0,10.0,4.0,0.0,0.0,1651070636619461.0,1
634,-1.0,-8.0,-9.0,5.0,1.0,0.0,0.0,0.0,1651070636620467.0,1
635,0.0,4.0,3.0,2.0,-3.0,1.0,0.0,1.0,1651070636620467.0,1
636,0.0,1.0,4.0,-2.0,-4.0,-2.0,-1.0,-1.0,1651070636632493.0,1
637,-1.0,-1.0,-1.0,-6.0,-4.0,-2.0,-4.0,-1.0,1651070636632493.0,1
638,-2.0,-9.0,-5.0,2.0,4.0,0.0,1.0,0.0,1651070636647453.0,1
639,0.0,-1.0,-4.0,-10.0,-2.0,1.0,0.0,-1.0,1651070636647453.0,1
640,-2.0,2.0,-3.0,21.0,0.0,-2.0,0.0,0.0,1651070636656404.0,1
641,0.0,-3.0,1.0,-6.0,-1.0,-1.0,1.0,1.0,1651070636656404.0,1
642,1.0,0.0,0.0,-3.0,1.0,0.0,0.0,-1.0,1651070636658356.0,1
643,-1.0,2.0,8.0,12.0,-5.0,0.0,0.0,-1.0,1651070636658356.0,1
644,0.0,5.0,-15.0,-29.0,-11.0,-6.0,-4.0,-1.0,1651070636679899.0,1
645,-2.0,-1.0,-1.0,4.0,8.0,2.0,0.0,-1.0,1651070636679899.0,1
646,-2.0,0.0,3.0,21.0,2.0,-1.0,0.0,-1.0,1651070636680898.0,1
647,0.0,0.0,-4.0,-22.0,-3.0,0.0,1.0,0.0,1651070636680898.0,1
648,0.0,4.0,10.0,13.0,-2.0,-4.0,0.0,-1.0,1651070636692984.0,1
649,-2.0,0.0,-4.0,-7.0,-12.0,-6.0,-1.0,-3.0,1651070636692984.0,1
650,0.0,-2.0,0.0,-10.0,12.0,5.0,0.0,0.0,1651070636701902.0,1
651,0.0,2.0,-2.0,7.0,-2.0,3.0,-2.0,0.0,1651070636701902.0,1
652,-2.0,-2.0,7.0,-3.0,2.0,0.0,0.0,1.0,1651070636716604.0,1
653,0.0,0.0,-1.0,1.0,1.0,2.0,-1.0,1.0,1651070636716604.0,1
654,0.0,-1.0,-4.0,-3.0,-14.0,-5.0,0.0,-1.0,1651070636717605.0,1
655,-2.0,-8.0,-12.0,1.0,10.0,2.0,0.0,0.0,1651070636717605.0,1
656,0.0,7.0,13.0,2.0,-1.0,2.0,1.0,1.0,1651070636738761.0,1
657,-3.0,-13.0,-3.0,-7.0,-3.0,-2.0,0.0,0.0,1651070636738761.0,1
658,3.0,1.0,-11.0,10.0,7.0,2.0,0.0,-2.0,1651070636740697.0,1
659,-2.0,3.0,11.0,-4.0,-11.0,-6.0,-2.0,-2.0,1651070636740697.0,1
660,-1.0,-3.0,-4.0,1.0,1.0,-2.0,-4.0,-2.0,1651070636761973.0,1
661,4.0,6.0,8.0,7.0,3.0,0.0,0.0,0.0,1651070636761973.0,1
662,-2.0,-3.0,-11.0,-18.0,0.0,0.0,-1.0,0.0,1651070636762910.0,1
663,-2.0,-2.0,-2.0,1.0,5.0,2.0,0.0,0.0,1651070636762910.0,1
664,0.0,-2.0,-4.0,-1.0,-9.0,-2.0,1.0,0.0,1651070636776421.0,1
665,0.0,8.0,13.0,6.0,1.0,0.0,-1.0,-3.0,1651070636776421.0,1
666,-2.0,-8.0,-7.0,-4.0,4.0,0.0,-1.0,0.0,1651070636778413.0,1
667,2.0,2.0,0.0,1.0,6.0,2.0,2.0,0.0,1651070636778413.0,1
668,0.0,3.0,11.0,2.0,-7.0,-5.0,-1.0,-1.0,1651070636799405.0,1
669,0.0,-2.0,-10.0,-9.0,1.0,-1.0,1.0,0.0,1651070636799405.0,1
670,-1.0,-1.0,2.0,3.0,-5.0,2.0,1.0,-1.0,1651070636800369.0,1
671,1.0,3.0,-1.0,-2.0,2.0,3.0,-1.0,0.0,1651070636800369.0,1
672,-3.0,-10.0,-4.0,-4.0,6.0,0.0,-1.0,1.0,1651070636821681.0,1
673,-2.0,1.0,-3.0,2.0,-2.0,3.0,0.0,2.0,1651070636821681.0,1
674,1.0,-1.0,-7.0,-6.0,5.0,-3.0,0.0,-1.0,1651070636822687.0,1
675,-2.0,-4.0,-6.0,-6.0,-9.0,-5.0,-3.0,-1.0,1651070636822687.0,1
676,0.0,1.0,-5.0,-1.0,0.0,0.0,-2.0,-2.0,1651070636836709.0,1
677,-2.0,-1.0,1.0,-2.0,-4.0,-2.0,-2.0,-1.0,1651070636836709.0,1
678,0.0,0.0,0.0,2.0,-8.0,-4.0,-3.0,0.0,1651070636837707.0,1
679,0.0,3.0,6.0,2.0,4.0,1.0,-1.0,-1.0,1651070636837707.0,1
680,1.0,1.0,0.0,-1.0,6.0,5.0,3.0,-1.0,1651070636859432.0,1
681,0.0,-1.0,-5.0,0.0,-2.0,-1.0,0.0,-1.0,1651070636859432.0,1
682,1.0,5.0,4.0,-3.0,-3.0,-2.0,0.0,-1.0,1651070636860433.0,1
683,1.0,-1.0,-5.0,2.0,-1.0,-2.0,0.0,-2.0,1651070636860433.0,1
684,-1.0,4.0,8.0,3.0,-10.0,-6.0,-3.0,-2.0,1651070636881500.0,1
685,-1.0,-5.0,1.0,-1.0,8.0,0.0,0.0,0.0,1651070636881500.0,1
686,0.0,0.0,4.0,2.0,-3.0,-1.0,0.0,0.0,1651070636882527.0,1
687,0.0,1.0,-1.0,4.0,7.0,2.0,-1.0,1.0,1651070636882527.0,1
688,0.0,-4.0,-6.0,-12.0,-9.0,-4.0,2.0,-1.0,1651070636896603.0,1
689,0.0,4.0,-2.0,4.0,-1.0,-2.0,-1.0,-2.0,1651070636896603.0,1
690,-1.0,-3.0,2.0,-3.0,1.0,-1.0,-1.0,0.0,1651070636897630.0,1
691,-2.0,-1.0,-2.0,-3.0,5.0,3.0,-2.0,-1.0,1651070636897630.0,1
692,-1.0,3.0,7.0,14.0,8.0,8.0,2.0,1.0,1651070636918882.0,1
693,-3.0,-5.0,-6.0,-14.0,-6.0,-3.0,-1.0,-1.0,1651070636918882.0,1
694,-1.0,3.0,10.0,14.0,-2.0,0.0,0.0,1.0,1651070636920838.0,1
695,-3.0,-4.0,-10.0,-12.0,-15.0,-8.0,-5.0,-6.0,1651070636920838.0,1
696,0.0,0.0,-4.0,-4.0,5.0,-1.0,-2.0,-1.0,1651070636941909.0,1
697,-1.0,-4.0,1.0,1.0,-4.0,1.0,0.0,-2.0,1651070636941909.0,1
698,1.0,2.0,-3.0,1.0,4.0,-1.0,2.0,0.0,1651070636942906.0,1
699,0.0,3.0,5.0,-1.0,-6.0,0.0,-2.0,0.0,1651070636942906.0,1
700,-2.0,-10.0,1.0,12.0,12.0,1.0,0.0,1.0,1651070636956247.0,1
701,0.0,-2.0,1.0,1.0,-3.0,1.0,1.0,1.0,1651070636956247.0,1
702,-1.0,-2.0,-4.0,-8.0,-4.0,-2.0,-2.0,0.0,1651070636962655.0,1
703,1.0,1.0,1.0,2.0,-1.0,-2.0,0.0,2.0,1651070636962655.0,1
704,-1.0,2.0,1.0,-2.0,-2.0,3.0,-1.0,-1.0,1651070636978863.0,1
705,-1.0,4.0,-3.0,4.0,2.0,-1.0,1.0,1.0,1651070636978863.0,1
706,0.0,1.0,-2.0,-5.0,11.0,1.0,-1.0,-2.0,1651070636980853.0,1
707,1.0,-4.0,3.0,3.0,-10.0,0.0,1.0,1.0,1651070636980853.0,1
708,-1.0,-3.0,1.0,-3.0,-6.0,-4.0,-3.0,0.0,1651070637001203.0,1
709,1.0,0.0,0.0,-10.0,-8.0,-2.0,1.0,1.0,1651070637001203.0,1
710,0.0,-5.0,-12.0,-11.0,1.0,-1.0,-1.0,-1.0,1651070637003217.0,1
711,0.0,3.0,5.0,7.0,5.0,0.0,-1.0,-1.0,1651070637003217.0,1
712,1.0,3.0,3.0,-1.0,2.0,1.0,-1.0,-2.0,1651070637016305.0,1
713,2.0,1.0,2.0,5.0,-2.0,-2.0,-2.0,-1.0,1651070637016305.0,1
714,-1.0,1.0,-4.0,-6.0,-5.0,-1.0,0.0,1.0,1651070637022270.0,1
715,-2.0,-11.0,10.0,7.0,4.0,0.0,-1.0,-1.0,1651070637022270.0,1
716,-2.0,3.0,2.0,-3.0,-4.0,1.0,3.0,-1.0,1651070637039400.0,1
717,-1.0,-3.0,-21.0,-7.0,-4.0,-6.0,-3.0,-1.0,1651070637039400.0,1
718,-1.0,2.0,12.0,12.0,18.0,9.0,0.0,-1.0,1651070637040347.0,1
719,1.0,3.0,-1.0,1.0,-4.0,-3.0,-1.0,0.0,1651070637040347.0,1
720,-1.0,-2.0,1.0,4.0,14.0,-1.0,-2.0,1.0,1651070637062382.0,1
721,1.0,4.0,-1.0,-5.0,-5.0,-4.0,-1.0,-1.0,1651070637062382.0,1
722,-1.0,-5.0,-1.0,12.0,-8.0,1.0,1.0,-1.0,1651070637067384.0,1
723,0.0,-1.0,-4.0,-2.0,0.0,0.0,-1.0,-1.0,1651070637067384.0,1
724,2.0,4.0,9.0,-3.0,-13.0,-3.0,-2.0,0.0,1651070637075500.0,1
725,-1.0,1.0,-1.0,-2.0,6.0,1.0,1.0,-1.0,1651070637075500.0,1
726,-2.0,-6.0,-9.0,-16.0,-8.0,-3.0,0.0,-3.0,1651070637082532.0,1
727,-3.0,-8.0,-6.0,5.0,7.0,5.0,1.0,-1.0,1651070637082532.0,1
728,2.0,10.0,19.0,-7.0,-9.0,-3.0,0.0,0.0,1651070637099404.0,1
729,-5.0,-6.0,-28.0,2.0,0.0,-2.0,-3.0,-3.0,1651070637099404.0,1
730,0.0,-2.0,0.0,-2.0,0.0,0.0,-1.0,5.0,1651070637100366.0,1
731,-1.0,4.0,6.0,0.0,-1.0,-5.0,-1.0,-10.0,1651070637100366.0,1
732,-3.0,-12.0,-12.0,-1.0,4.0,2.0,0.0,4.0,1651070637121412.0,1
733,0.0,13.0,13.0,9.0,-13.0,-3.0,-3.0,1.0,1651070637121412.0,1
734,-3.0,-5.0,10.0,8.0,21.0,2.0,0.0,-1.0,1651070637123367.0,1
735,11.0,7.0,-10.0,-10.0,-5.0,2.0,2.0,6.0,1651070637123367.0,1
736,5.0,2.0,-8.0,-6.0,8.0,-1.0,1.0,-2.0,1651070637135871.0,1
737,-1.0,2.0,0.0,-3.0,-8.0,-1.0,-2.0,-5.0,1651070637135871.0,1
738,-4.0,-7.0,-19.0,7.0,-19.0,-13.0,-3.0,1.0,1651070637143022.0,1
739,-10.0,-7.0,28.0,16.0,12.0,10.0,4.0,-1.0,1651070637143022.0,1
740,-4.0,4.0,-15.0,-8.0,-1.0,-2.0,-4.0,-2.0,1651070637158561.0,1
741,7.0,-10.0,5.0,-8.0,7.0,5.0,1.0,8.0,1651070637158561.0,1
742,-1.0,-9.0,6.0,3.0,-3.0,1.0,-4.0,-9.0,1651070637160489.0,1
743,5.0,7.0,-16.0,-8.0,-9.0,-6.0,0.0,3.0,1651070637160489.0,1
744,-5.0,3.0,3.0,5.0,0.0,4.0,0.0,0.0,1651070637181679.0,1
745,-7.0,-8.0,8.0,7.0,5.0,0.0,-1.0,-5.0,1651070637181679.0,1
746,6.0,23.0,-6.0,-24.0,-6.0,0.0,1.0,1.0,1651070637182688.0,1
747,5.0,-1.0,-5.0,7.0,-3.0,-2.0,1.0,2.0,1651070637182688.0,1
748,-3.0,16.0,21.0,12.0,9.0,1.0,-1.0,-4.0,1651070637195714.0,1
749,-1.0,-20.0,-33.0,-15.0,4.0,1.0,-3.0,-1.0,1651070637195714.0,1
750,-5.0,17.0,30.0,14.0,-9.0,1.0,3.0,2.0,1651070637202692.0,1
751,0.0,-1.0,37.0,-8.0,13.0,11.0,2.0,5.0,1651070637202692.0,1
752,7.0,-36.0,-72.0,-17.0,-11.0,-6.0,0.0,1.0,1651070637219426.0,1
753,12.0,22.0,29.0,8.0,-1.0,0.0,4.0,3.0,1651070637219426.0,1
754,4.0,0.0,-30.0,10.0,7.0,-1.0,-2.0,0.0,1651070637220355.0,1
755,-13.0,27.0,-28.0,-11.0,5.0,-3.0,-6.0,-11.0,1651070637220355.0,1
756,-13.0,-35.0,77.0,23.0,-8.0,-5.0,1.0,-11.0,1651070637241399.0,1
757,10.0,3.0,-24.0,-14.0,-7.0,2.0,4.0,16.0,1651070637241399.0,1
758,3.0,36.0,-14.0,2.0,2.0,-2.0,-4.0,1.0,1651070637243327.0,1
759,-30.0,-6.0,51.0,5.0,-3.0,-5.0,-4.0,-4.0,1651070637243327.0,1
760,-18.0,-48.0,-3.0,-7.0,-1.0,5.0,-5.0,-15.0,1651070637255362.0,1
761,56.0,-48.0,-49.0,2.0,0.0,11.0,16.0,18.0,1651070637255362.0,1
762,-4.0,-7.0,-38.0,-38.0,-16.0,-18.0,-6.0,1.0,1651070637264271.0,1
763,1.0,-39.0,-4.0,14.0,11.0,1.0,-1.0,2.0,1651070637264271.0,1
764,-36.0,12.0,10.0,2.0,3.0,-1.0,-5.0,-21.0,1651070637279447.0,1
765,18.0,60.0,15.0,10.0,9.0,4.0,0.0,4.0,1651070637279447.0,1
766,21.0,-27.0,-16.0,-26.0,-30.0,-11.0,3.0,11.0,1651070637280403.0,1
767,40.0,-31.0,72.0,14.0,16.0,1.0,-2.0,-1.0,1651070637280403.0,1
768,-61.0,73.0,7.0,9.0,0.0,-2.0,-3.0,-3.0,1651070637301689.0,1
769,-7.0,-21.0,48.0,9.0,7.0,7.0,5.0,0.0,1651070637301689.0,1
770,-30.0,-116.0,-37.0,-1.0,4.0,5.0,-6.0,-14.0,1651070637302689.0,1
771,26.0,81.0,-27.0,3.0,-14.0,-8.0,2.0,7.0,1651070637302689.0,1
772,16.0,28.0,-24.0,-9.0,7.0,2.0,1.0,6.0,1651070637315372.0,1
773,-9.0,-10.0,31.0,12.0,3.0,3.0,-1.0,-3.0,1651070637315372.0,1
774,12.0,60.0,2.0,-7.0,-4.0,1.0,3.0,4.0,1651070637324395.0,1
775,-10.0,-23.0,18.0,10.0,6.0,5.0,5.0,0.0,1651070637324395.0,1
776,25.0,-24.0,-43.0,-11.0,-7.0,-3.0,-4.0,-4.0,1651070637346189.0,1
777,-95.0,-18.0,61.0,3.0,-16.0,-17.0,-19.0,-25.0,1651070637346189.0,1
778,-9.0,-15.0,12.0,11.0,24.0,13.0,7.0,-2.0,1651070637348118.0,1
779,69.0,81.0,-7.0,-6.0,14.0,13.0,11.0,26.0,1651070637348118.0,1
780,16.0,39.0,-2.0,1.0,4.0,0.0,-3.0,-8.0,1651070637361149.0,1
781,-30.0,-34.0,-21.0,-10.0,-13.0,-14.0,-12.0,-12.0,1651070637361149.0,1
782,52.0,33.0,34.0,27.0,-3.0,8.0,10.0,20.0,1651070637363077.0,1
783,-31.0,-21.0,-65.0,-22.0,-5.0,-7.0,-4.0,-4.0,1651070637363077.0,1
784,7.0,-13.0,-16.0,-33.0,-17.0,-7.0,2.0,14.0,1651070637375223.0,1
785,2.0,5.0,9.0,6.0,6.0,-1.0,-7.0,-20.0,1651070637375223.0,1
786,-26.0,35.0,67.0,29.0,10.0,1.0,-9.0,-26.0,1651070637384146.0,1
787,-10.0,-30.0,-50.0,-17.0,-8.0,-2.0,3.0,13.0,1651070637384146.0,1
788,47.0,24.0,48.0,7.0,2.0,5.0,7.0,21.0,1651070637399254.0,1
789,9.0,-20.0,-10.0,-19.0,-16.0,-8.0,-4.0,-5.0,1651070637399254.0,1
790,-55.0,21.0,6.0,-6.0,-4.0,-1.0,2.0,8.0,1651070637400232.0,1
791,12.0,-60.0,-31.0,-11.0,-8.0,-3.0,2.0,-1.0,1651070637400232.0,1
792,5.0,35.0,19.0,8.0,0.0,-3.0,-6.0,-12.0,1651070637421386.0,1
793,2.0,-5.0,0.0,23.0,21.0,2.0,3.0,9.0,1651070637421386.0,0
794,7.0,32.0,-4.0,-9.0,2.0,0.0,-1.0,-13.0,1651070637423383.0,2
795,-49.0,68.0,2.0,0.0,-30.0,-8.0,-6.0,-10.0,1651070637423383.0,2
796,83.0,-49.0,-17.0,0.0,38.0,25.0,23.0,41.0,1651070637435295.0,2
797,13.0,60.0,1.0,0.0,-13.0,-5.0,1.0,3.0,1651070637435295.0,2
798,-2.0,-84.0,38.0,12.0,13.0,4.0,0.0,0.0,1651070637443814.0,2
799,-31.0,9.0,-15.0,-37.0,-20.0,-8.0,-11.0,-23.0,1651070637443814.0,2
800,7.0,0.0,-36.0,5.0,-18.0,-10.0,-3.0,-10.0,1651070637458837.0,2
801,-2.0,4.0,15.0,27.0,-5.0,-1.0,-1.0,11.0,1651070637458837.0,2
802,7.0,-17.0,-11.0,-31.0,5.0,-3.0,-2.0,-1.0,1651070637460772.0,2
803,-25.0,-4.0,19.0,-6.0,-11.0,-7.0,-5.0,-4.0,1651070637460772.0,2
804,-17.0,54.0,-6.0,19.0,-1.0,1.0,-1.0,-11.0,1651070637481678.0,2
805,-50.0,-50.0,24.0,0.0,26.0,8.0,-7.0,-20.0,1651070637481678.0,2
806,36.0,33.0,-26.0,-8.0,-19.0,-8.0,1.0,14.0,1651070637482690.0,2
807,31.0,-34.0,-16.0,-5.0,-12.0,-3.0,1.0,-5.0,1651070637482690.0,2
808,-26.0,24.0,-3.0,-9.0,-7.0,-6.0,-7.0,-8.0,1651070637495348.0,2
809,29.0,82.0,-25.0,3.0,27.0,9.0,15.0,34.0,1651070637495348.0,2
810,1.0,-18.0,2.0,4.0,2.0,2.0,-8.0,-6.0,1651070637504452.0,2
811,-26.0,29.0,-7.0,-14.0,-7.0,-9.0,-11.0,-15.0,1651070637504452.0,2
812,-3.0,7.0,4.0,10.0,-3.0,-1.0,1.0,7.0,1651070637519457.0,2
813,-3.0,-68.0,6.0,-12.0,-14.0,-1.0,-2.0,-9.0,1651070637519457.0,2
814,-1.0,-13.0,2.0,8.0,4.0,1.0,2.0,-12.0,1651070637520465.0,2
815,2.0,-7.0,-10.0,25.0,7.0,4.0,6.0,9.0,1651070637520465.0,2
816,13.0,2.0,33.0,-4.0,1.0,1.0,3.0,14.0,1651070637541309.0,2
817,-11.0,-28.0,-40.0,-24.0,-15.0,-2.0,0.0,-9.0,1651070637541309.0,2
818,10.0,24.0,-7.0,-3.0,12.0,4.0,2.0,2.0,1651070637543338.0,2
819,-7.0,-17.0,31.0,20.0,2.0,-4.0,-8.0,-11.0,1651070637543338.0,2
820,-32.0,17.0,30.0,9.0,-1.0,-5.0,-6.0,-8.0,1651070637555272.0,2
821,36.0,0.0,-27.0,-22.0,-7.0,2.0,6.0,12.0,1651070637555272.0,2
822,23.0,25.0,48.0,53.0,32.0,10.0,3.0,3.0,1651070637564248.0,2
823,-72.0,-75.0,-24.0,-30.0,1.0,1.0,-4.0,-14.0,1651070637564248.0,2
824,75.0,21.0,-18.0,-17.0,8.0,5.0,11.0,31.0,1651070637579274.0,2
825,11.0,39.0,17.0,3.0,-11.0,-4.0,-1.0,-3.0,1651070637579274.0,2
826,-34.0,-30.0,-22.0,-16.0,-21.0,-9.0,-6.0,-17.0,1651070637580205.0,2
827,30.0,-14.0,71.0,28.0,5.0,6.0,7.0,15.0,1651070637580205.0,2
828,-10.0,43.0,-41.0,-3.0,3.0,0.0,-3.0,2.0,1651070637601474.0,2
829,-4.0,19.0,-20.0,15.0,2.0,-6.0,-7.0,-21.0,1651070637601474.0,2
830,-17.0,1.0,11.0,-4.0,-2.0,-2.0,-6.0,-1.0,1651070637603489.0,2
831,21.0,-4.0,17.0,15.0,15.0,7.0,7.0,20.0,1651070637603489.0,2
832,-29.0,-53.0,-9.0,-17.0,-13.0,-1.0,-5.0,-29.0,1651070637615361.0,2
833,11.0,4.0,-9.0,-2.0,7.0,1.0,0.0,19.0,1651070637615361.0,2
834,3.0,-12.0,3.0,-12.0,-7.0,0.0,6.0,12.0,1651070637624339.0,2
835,12.0,38.0,-33.0,-6.0,-4.0,-4.0,-2.0,1.0,1651070637624339.0,2
836,-33.0,-43.0,7.0,-4.0,1.0,-3.0,-5.0,-6.0,1651070637638487.0,2
837,1.0,3.0,-35.0,4.0,-3.0,-4.0,-6.0,-17.0,1651070637638487.0,2
838,-5.0,2.0,18.0,-3.0,2.0,3.0,0.0,1.0,1651070637645364.0,2
839,21.0,-9.0,13.0,-14.0,-22.0,-6.0,-4.0,1.0,1651070637645364.0,2
840,-12.0,-13.0,-85.0,-7.0,-6.0,-11.0,-5.0,-3.0,1651070637661467.0,2
841,-5.0,20.0,13.0,21.0,50.0,20.0,4.0,3.0,1651070637661467.0,2
842,-14.0,15.0,-53.0,-21.0,-24.0,-5.0,6.0,5.0,1651070637663465.0,2
843,7.0,-1.0,11.0,19.0,-1.0,-6.0,-5.0,-10.0,1651070637663465.0,2
844,-19.0,-11.0,41.0,-8.0,6.0,5.0,-1.0,1.0,1651070637675395.0,2
845,15.0,-50.0,-23.0,-10.0,-17.0,-4.0,6.0,14.0,1651070637675395.0,2
846,14.0,-28.0,-3.0,9.0,7.0,3.0,0.0,5.0,1651070637684429.0,2
847,1.0,56.0,1.0,4.0,-11.0,-9.0,-10.0,-27.0,1651070637684429.0,2
848,60.0,-29.0,23.0,-10.0,-4.0,6.0,9.0,37.0,1651070637698849.0,2
849,-29.0,12.0,0.0,2.0,-1.0,-4.0,-2.0,-2.0,1651070637698849.0,2
850,7.0,-3.0,-7.0,-12.0,0.0,-1.0,-4.0,-2.0,1651070637700777.0,2
851,-16.0,-18.0,-2.0,8.0,3.0,1.0,-2.0,-12.0,1651070637700777.0,2
852,49.0,-37.0,22.0,7.0,4.0,1.0,0.0,3.0,1651070637721998.0,2
853,-16.0,28.0,-2.0,-11.0,-8.0,-5.0,-5.0,-7.0,1651070637721998.0,2
854,5.0,6.0,-10.0,-2.0,-7.0,-5.0,-4.0,-11.0,1651070637722958.0,2
855,-15.0,-4.0,9.0,-3.0,9.0,2.0,-2.0,-13.0,1651070637722958.0,2
856,-24.0,-76.0,-44.0,1.0,2.0,3.0,0.0,3.0,1651070637744340.0,2
857,31.0,46.0,-1.0,-9.0,-36.0,-11.0,4.0,3.0,1651070637744340.0,2
858,-23.0,-31.0,16.0,8.0,28.0,4.0,-2.0,-8.0,1651070637745295.0,2
859,21.0,45.0,-5.0,-8.0,6.0,3.0,0.0,15.0,1651070637745295.0,2
860,-11.0,1.0,23.0,23.0,1.0,-6.0,-7.0,-30.0,1651070637758359.0,2
861,-31.0,13.0,40.0,-2.0,-8.0,1.0,-4.0,-1.0,1651070637758359.0,2
862,10.0,-23.0,-27.0,-24.0,-9.0,-4.0,2.0,4.0,1651070637765340.0,2
863,9.0,6.0,23.0,18.0,14.0,7.0,6.0,9.0,1651070637765340.0,2
864,-28.0,-1.0,-20.0,-19.0,-16.0,-4.0,-2.0,-7.0,1651070637781569.0,2
865,12.0,-29.0,-13.0,-3.0,-10.0,-6.0,-4.0,-7.0,1651070637781569.0,2
866,1.0,31.0,34.0,8.0,-1.0,-4.0,-5.0,-1.0,1651070637782525.0,2
867,-3.0,-45.0,-26.0,4.0,6.0,6.0,4.0,11.0,1651070637782525.0,2
868,-9.0,74.0,42.0,2.0,-5.0,-3.0,-6.0,-24.0,1651070637804371.0,2
869,38.0,-18.0,16.0,5.0,13.0,6.0,14.0,32.0,1651070637804371.0,2
870,-15.0,3.0,12.0,-4.0,-7.0,-2.0,0.0,4.0,1651070637805334.0,2
871,-10.0,9.0,-33.0,-23.0,-7.0,-5.0,-6.0,-13.0,1651070637805334.0,2
872,-21.0,-30.0,57.0,25.0,0.0,2.0,5.0,9.0,1651070637819301.0,2
873,32.0,18.0,-79.0,-22.0,11.0,3.0,-1.0,-8.0,1651070637819301.0,2
874,-19.0,11.0,-1.0,6.0,-2.0,-4.0,-2.0,-1.0,1651070637820301.0,2
875,-2.0,-26.0,26.0,13.0,6.0,3.0,6.0,8.0,1651070637820301.0,2
876,11.0,10.0,-15.0,4.0,1.0,-1.0,1.0,9.0,1651070637841241.0,2
877,-22.0,-38.0,35.0,3.0,0.0,-1.0,-11.0,-32.0,1651070637841241.0,2
878,3.0,12.0,-15.0,1.0,-15.0,1.0,9.0,24.0,1651070637843236.0,2
879,6.0,17.0,-8.0,-7.0,9.0,3.0,1.0,-5.0,1651070637843236.0,2
880,-1.0,15.0,-13.0,-10.0,5.0,-1.0,-2.0,16.0,1651070637864371.0,2
881,-14.0,8.0,19.0,19.0,0.0,-2.0,-4.0,-19.0,1651070637864371.0,2
882,-20.0,-37.0,-19.0,22.0,-8.0,-3.0,-7.0,-10.0,1651070637865319.0,2
883,19.0,24.0,-4.0,-33.0,-9.0,1.0,0.0,1.0,1651070637865319.0,2
884,-10.0,18.0,11.0,-2.0,-4.0,-4.0,-2.0,-3.0,1651070637878355.0,2
885,3.0,-12.0,3.0,-17.0,-4.0,-1.0,1.0,4.0,1651070637878355.0,2
886,8.0,30.0,21.0,13.0,7.0,-1.0,-1.0,-7.0,1651070637885296.0,2
887,-1.0,-13.0,-29.0,5.0,-6.0,-5.0,-2.0,-7.0,1651070637885296.0,2
888,-26.0,-21.0,1.0,7.0,8.0,3.0,-3.0,12.0,1651070637901444.0,2
889,6.0,-26.0,4.0,0.0,-2.0,3.0,3.0,-6.0,1651070637901444.0,2
890,13.0,54.0,24.0,-5.0,1.0,-1.0,-2.0,-3.0,1651070637903399.0,2
891,13.0,14.0,12.0,11.0,-7.0,1.0,7.0,10.0,1651070637903399.0,2
892,-9.0,-26.0,-10.0,14.0,15.0,1.0,-3.0,-20.0,1651070637923516.0,2
893,-31.0,-12.0,-1.0,-5.0,11.0,-1.0,-5.0,-2.0,1651070637923516.0,2
894,20.0,19.0,-22.0,-25.0,-12.0,-2.0,0.0,2.0,1651070637925480.0,2
895,20.0,-50.0,-13.0,-2.0,-1.0,-2.0,0.0,11.0,1651070637925480.0,2
896,-23.0,0.0,22.0,7.0,-16.0,-8.0,2.0,16.0,1651070637938513.0,2
897,-1.0,50.0,-11.0,-4.0,-4.0,2.0,3.0,2.0,1651070637938513.0,2
898,-9.0,-57.0,17.0,27.0,9.0,5.0,-4.0,-16.0,1651070637945506.0,2
899,36.0,53.0,11.0,-14.0,5.0,-3.0,0.0,13.0,1651070637945506.0,2
900,-34.0,-13.0,-64.0,-1.0,-1.0,-1.0,-5.0,-24.0,1651070637961903.0,2
901,-14.0,-19.0,13.0,0.0,-2.0,-1.0,-1.0,3.0,1651070637961903.0,2
902,16.0,46.0,71.0,1.0,6.0,6.0,4.0,17.0,1651070637962903.0,2
903,-13.0,-32.0,-31.0,3.0,-2.0,1.0,3.0,2.0,1651070637962903.0,2
904,16.0,-12.0,16.0,11.0,3.0,-1.0,1.0,1.0,1651070637984395.0,2
905,1.0,41.0,0.0,-23.0,-4.0,0.0,-6.0,-12.0,1651070637984395.0,2
906,-9.0,-46.0,-15.0,-22.0,-6.0,-3.0,1.0,5.0,1651070637985058.0,2
907,-8.0,19.0,8.0,8.0,7.0,1.0,-1.0,-4.0,1651070637985058.0,2
908,29.0,10.0,26.0,4.0,-1.0,0.0,0.0,-5.0,1651070637998426.0,2
909,-5.0,13.0,-27.0,9.0,-7.0,-4.0,0.0,16.0,1651070637998426.0,2
910,-5.0,-39.0,-11.0,9.0,10.0,2.0,3.0,-2.0,1651070638005360.0,2
911,-35.0,-28.0,7.0,17.0,9.0,-1.0,-2.0,16.0,1651070638005360.0,2
912,10.0,-26.0,-66.0,-42.0,-31.0,-5.0,-2.0,-17.0,1651070638021577.0,2
913,18.0,13.0,26.0,3.0,9.0,-6.0,-7.0,-7.0,1651070638021577.0,2
914,-21.0,-8.0,-20.0,13.0,16.0,8.0,-1.0,-7.0,1651070638022576.0,2
915,16.0,25.0,11.0,-19.0,-5.0,3.0,-1.0,6.0,1651070638022576.0,2
916,8.0,-11.0,26.0,1.0,-1.0,2.0,5.0,10.0,1651070638044345.0,2
917,-9.0,1.0,2.0,-3.0,-8.0,-2.0,2.0,-1.0,1651070638044345.0,2
918,34.0,29.0,-29.0,-33.0,-26.0,-9.0,-3.0,-12.0,1651070638045497.0,2
919,-36.0,-29.0,14.0,19.0,15.0,-4.0,-10.0,-15.0,1651070638045497.0,2
920,19.0,47.0,14.0,1.0,23.0,14.0,7.0,11.0,1651070638058453.0,2
921,3.0,-17.0,-36.0,-12.0,-4.0,2.0,-2.0,-2.0,1651070638058453.0,2
922,-21.0,2.0,5.0,19.0,3.0,-1.0,-3.0,-11.0,1651070638066426.0,2
923,3.0,-3.0,-29.0,-9.0,-12.0,-5.0,-4.0,1.0,1651070638066426.0,2
924,1.0,22.0,12.0,-2.0,-16.0,-6.0,-4.0,-11.0,1651070638081683.0,2
925,28.0,6.0,8.0,2.0,-1.0,-1.0,1.0,17.0,1651070638081683.0,2
926,-17.0,-17.0,-20.0,-4.0,31.0,12.0,-2.0,-15.0,1651070638082714.0,2
927,7.0,26.0,5.0,16.0,-3.0,5.0,6.0,-1.0,1651070638082714.0,2
928,-32.0,0.0,-6.0,-30.0,-12.0,-8.0,-2.0,14.0,1651070638104345.0,2
929,-9.0,-9.0,15.0,14.0,11.0,4.0,-3.0,-3.0,1651070638104345.0,2
930,13.0,-25.0,12.0,21.0,-7.0,-7.0,1.0,-8.0,1651070638105308.0,2
931,-44.0,17.0,-5.0,-3.0,2.0,0.0,2.0,1.0,1651070638105308.0,2
932,12.0,1.0,-7.0,17.0,5.0,-3.0,-5.0,-8.0,1651070638118663.0,2
933,-27.0,-40.0,37.0,-9.0,-10.0,-2.0,1.0,-12.0,1651070638118663.0,2
934,6.0,34.0,-31.0,-15.0,-7.0,-1.0,-5.0,5.0,1651070638125596.0,2
935,16.0,-31.0,11.0,-9.0,1.0,-2.0,0.0,5.0,1651070638125596.0,2
936,14.0,16.0,0.0,4.0,1.0,1.0,2.0,5.0,1651070638149400.0,2
937,-12.0,-21.0,-14.0,0.0,-6.0,-3.0,0.0,5.0,1651070638149400.0,2
938,-4.0,4.0,7.0,12.0,0.0,-5.0,-3.0,-2.0,1651070638150340.0,2
939,7.0,-23.0,-4.0,-4.0,-5.0,4.0,5.0,8.0,1651070638150340.0,2
940,6.0,30.0,-11.0,-3.0,1.0,-3.0,-1.0,1.0,1651070638164414.0,2
941,7.0,3.0,24.0,9.0,8.0,3.0,2.0,-10.0,1651070638164414.0,2
942,-7.0,25.0,40.0,-4.0,-28.0,-5.0,-4.0,6.0,1651070638165390.0,2
943,1.0,-26.0,-69.0,-8.0,10.0,-4.0,-2.0,-7.0,1651070638165390.0,2
944,9.0,-36.0,-9.0,45.0,18.0,7.0,5.0,3.0,1651070638178416.0,2
945,5.0,36.0,-22.0,-32.0,-1.0,-1.0,1.0,13.0,1651070638178416.0,2
946,-6.0,1.0,-5.0,-11.0,-13.0,-8.0,-2.0,3.0,1651070638185397.0,2
947,24.0,13.0,23.0,-14.0,-7.0,4.0,4.0,-2.0,1651070638185397.0,2
948,-10.0,6.0,23.0,5.0,7.0,2.0,1.0,3.0,1651070638201354.0,2
949,-11.0,-1.0,-3.0,26.0,1.0,-2.0,-7.0,-23.0,1651070638201354.0,2
950,11.0,-22.0,-31.0,-1.0,-3.0,1.0,4.0,15.0,1651070638203283.0,2
951,-1.0,-20.0,25.0,-2.0,1.0,0.0,0.0,1.0,1651070638203283.0,2
952,0.0,1.0,-26.0,-21.0,5.0,2.0,2.0,-2.0,1651070638224120.0,2
953,3.0,44.0,27.0,-18.0,-12.0,-3.0,4.0,6.0,1651070638224120.0,2
954,5.0,-15.0,-2.0,24.0,9.0,1.0,-3.0,-23.0,1651070638230324.0,2
955,-4.0,-2.0,19.0,6.0,5.0,-3.0,-3.0,7.0,1651070638230324.0,2
956,-13.0,-24.0,-8.0,-23.0,-11.0,-3.0,1.0,-12.0,1651070638237671.0,2
957,7.0,-17.0,-23.0,2.0,-1.0,-2.0,-5.0,-1.0,1651070638237671.0,2
958,-12.0,2.0,1.0,-3.0,4.0,3.0,7.0,13.0,1651070638246580.0,2
959,-2.0,15.0,-25.0,-5.0,-3.0,-1.0,1.0,5.0,1651070638246580.0,2
960,2.0,41.0,11.0,3.0,-9.0,-7.0,-4.0,-3.0,1651070638261608.0,2
961,-7.0,-50.0,-4.0,-4.0,-7.0,-2.0,-1.0,2.0,1651070638261608.0,2
962,0.0,16.0,17.0,8.0,17.0,5.0,0.0,-5.0,1651070638262630.0,2
963,-12.0,-4.0,-22.0,-24.0,-2.0,-5.0,-6.0,-12.0,1651070638262630.0,2
964,2.0,-30.0,43.0,15.0,8.0,3.0,-2.0,2.0,1651070638284349.0,2
965,-11.0,-26.0,-35.0,24.0,-4.0,-6.0,1.0,-1.0,1651070638284349.0,2
966,3.0,-14.0,-13.0,-22.0,-10.0,-1.0,3.0,6.0,1651070638285376.0,2
967,11.0,21.0,2.0,-7.0,-13.0,-7.0,-3.0,-7.0,1651070638285376.0,2
968,-56.0,-25.0,-1.0,-12.0,-10.0,-1.0,-4.0,-8.0,1651070638297332.0,2
969,22.0,37.0,34.0,19.0,18.0,7.0,5.0,19.0,1651070638297332.0,2
970,-11.0,-18.0,-12.0,-11.0,-7.0,-1.0,-4.0,-4.0,1651070638306612.0,2
971,11.0,15.0,-1.0,9.0,-4.0,0.0,2.0,0.0,1651070638306612.0,2
972,-7.0,-18.0,-9.0,-4.0,2.0,1.0,-2.0,-5.0,1651070638321642.0,2
973,-8.0,-4.0,21.0,10.0,2.0,1.0,0.0,-2.0,1651070638321642.0,2
974,7.0,20.0,1.0,6.0,5.0,-3.0,-1.0,-2.0,1651070638322598.0,2
975,-7.0,4.0,22.0,6.0,2.0,5.0,3.0,6.0,1651070638322598.0,2
976,6.0,25.0,-6.0,-16.0,-10.0,-5.0,-3.0,-6.0,1651070638343583.0,2
977,-8.0,-51.0,-10.0,-6.0,0.0,2.0,-2.0,-8.0,1651070638343583.0,2
978,33.0,74.0,-3.0,-23.0,1.0,-3.0,1.0,10.0,1651070638345610.0,2
979,-6.0,-27.0,0.0,27.0,0.0,1.0,-3.0,-6.0,1651070638345610.0,2
980,35.0,20.0,-2.0,-23.0,2.0,2.0,10.0,32.0,1651070638357480.0,2
981,-13.0,-11.0,-3.0,10.0,-3.0,-4.0,-2.0,-5.0,1651070638357480.0,2
982,5.0,-1.0,-9.0,19.0,-1.0,-1.0,-2.0,2.0,1651070638366453.0,2
983,-35.0,-34.0,-6.0,-33.0,-6.0,-5.0,-7.0,-32.0,1651070638366453.0,2
984,6.0,12.0,-24.0,-4.0,-9.0,-2.0,-5.0,3.0,1651070638381589.0,2
985,15.0,15.0,2.0,-14.0,-4.0,2.0,3.0,11.0,1651070638381589.0,2
986,-8.0,-14.0,23.0,31.0,17.0,1.0,-1.0,-2.0,1651070638383515.0,2
987,-5.0,16.0,18.0,12.0,2.0,-2.0,0.0,-4.0,1651070638383515.0,2
988,0.0,-26.0,-11.0,5.0,-4.0,-3.0,-7.0,-13.0,1651070638403473.0,2
989,4.0,0.0,3.0,12.0,-1.0,0.0,3.0,4.0,1651070638403473.0,2
990,-1.0,12.0,2.0,-39.0,-9.0,-1.0,4.0,2.0,1651070638405561.0,2
991,4.0,-5.0,5.0,7.0,-7.0,-1.0,-3.0,1.0,1651070638405561.0,2
992,5.0,11.0,15.0,21.0,14.0,0.0,0.0,-2.0,1651070638417426.0,2
993,-11.0,-1.0,-6.0,3.0,2.0,0.0,-3.0,-5.0,1651070638417426.0,2
994,4.0,-24.0,-30.0,-18.0,-3.0,-3.0,0.0,2.0,1651070638426400.0,2
995,-2.0,5.0,-1.0,6.0,3.0,1.0,0.0,0.0,1651070638426400.0,2
996,0.0,2.0,10.0,-1.0,-4.0,-1.0,1.0,-3.0,1651070638441689.0,2
997,6.0,13.0,-4.0,-7.0,-2.0,-1.0,-5.0,-2.0,1651070638441689.0,2
998,-17.0,-9.0,-9.0,9.0,3.0,2.0,0.0,-3.0,1651070638442707.0,2
999,20.0,26.0,21.0,-5.0,-2.0,2.0,4.0,9.0,1651070638442707.0,2
1000,10.0,-10.0,-1.0,5.0,-3.0,-1.0,1.0,-1.0,1651070638463629.0,2
1001,3.0,13.0,22.0,-14.0,6.0,0.0,4.0,3.0,1651070638463629.0,2
1002,0.0,-18.0,-28.0,-5.0,-2.0,2.0,-1.0,-2.0,1651070638465639.0,2
1003,-9.0,-5.0,7.0,20.0,3.0,0.0,-5.0,-14.0,1651070638465639.0,2
1004,-8.0,-17.0,-27.0,-20.0,1.0,4.0,2.0,11.0,1651070638477652.0,2
1005,8.0,13.0,-2.0,-7.0,-2.0,1.0,3.0,5.0,1651070638477652.0,2
1006,5.0,10.0,29.0,11.0,-1.0,-1.0,-1.0,0.0,1651070638486568.0,2
1007,-32.0,-21.0,-4.0,5.0,1.0,0.0,-2.0,-2.0,1651070638486568.0,2
1008,-10.0,-6.0,-7.0,-16.0,-1.0,-2.0,-4.0,-10.0,1651070638501711.0,2
1009,0.0,-9.0,-10.0,-14.0,-10.0,-2.0,-1.0,1.0,1651070638501711.0,2
1010,-4.0,-4.0,-2.0,2.0,5.0,2.0,0.0,-1.0,1651070638502674.0,2
1011,11.0,5.0,-5.0,3.0,2.0,0.0,0.0,4.0,1651070638502674.0,2
1012,2.0,-2.0,16.0,17.0,5.0,-2.0,1.0,-4.0,1651070638523846.0,2
1013,-5.0,-2.0,-11.0,-8.0,2.0,-2.0,-4.0,-2.0,1651070638523846.0,2
1014,13.0,13.0,-1.0,4.0,-10.0,-4.0,-1.0,0.0,1651070638525843.0,2
1015,6.0,13.0,10.0,-10.0,5.0,3.0,2.0,3.0,1651070638525843.0,2
1016,-7.0,-15.0,-19.0,-4.0,1.0,-1.0,-1.0,-1.0,1651070638537813.0,2
1017,1.0,5.0,3.0,13.0,1.0,-3.0,-3.0,-5.0,1651070638537813.0,2
1018,-9.0,-18.0,1.0,0.0,-6.0,-6.0,-4.0,-7.0,1651070638546602.0,2
1019,4.0,3.0,-5.0,4.0,-2.0,-2.0,-3.0,3.0,1651070638546602.0,2
1020,4.0,4.0,2.0,-10.0,-1.0,1.0,4.0,2.0,1651070638561623.0,2
1021,8.0,4.0,1.0,-1.0,5.0,4.0,4.0,2.0,1651070638561623.0,2
1022,-3.0,-7.0,-2.0,-7.0,1.0,1.0,1.0,2.0,1651070638562562.0,2
1023,27.0,9.0,0.0,25.0,-2.0,-3.0,0.0,-1.0,1651070638562562.0,2
1024,-27.0,0.0,-13.0,-30.0,-1.0,0.0,-2.0,-6.0,1651070638584503.0,2
1025,-37.0,-7.0,-2.0,10.0,-5.0,-1.0,-3.0,-4.0,1651070638584503.0,2
1026,14.0,8.0,17.0,12.0,0.0,1.0,-2.0,1.0,1651070638585500.0,2
1027,-23.0,-10.0,-9.0,-18.0,4.0,0.0,2.0,0.0,1651070638585500.0,2
1028,17.0,-2.0,5.0,15.0,-5.0,-1.0,-3.0,-3.0,1651070638597528.0,2
1029,10.0,5.0,-3.0,-3.0,-2.0,-1.0,-1.0,0.0,1651070638597528.0,2
1030,-10.0,-3.0,-1.0,-11.0,2.0,2.0,2.0,0.0,1651070638606448.0,2
1031,2.0,6.0,3.0,2.0,-1.0,0.0,0.0,0.0,1651070638606448.0,2
1032,1.0,10.0,4.0,1.0,-5.0,-2.0,-1.0,-4.0,1651070638621412.0,2
1033,2.0,5.0,-3.0,-13.0,-6.0,0.0,2.0,1.0,1651070638621412.0,2
1034,1.0,-9.0,7.0,21.0,0.0,-2.0,-3.0,-3.0,1651070638627387.0,2
1035,1.0,-2.0,-15.0,-2.0,2.0,0.0,-1.0,-2.0,1651070638627387.0,2
1036,1.0,4.0,23.0,15.0,9.0,2.0,0.0,4.0,1651070638644430.0,2
1037,10.0,-7.0,-6.0,-1.0,-3.0,-4.0,-3.0,-4.0,1651070638644430.0,2
1038,-3.0,-6.0,-13.0,-11.0,-7.0,-4.0,-3.0,-1.0,1651070638645353.0,2
1039,4.0,3.0,-9.0,-13.0,-5.0,-1.0,1.0,2.0,1651070638645353.0,2
1040,-4.0,-6.0,-4.0,-29.0,-1.0,-1.0,-1.0,0.0,1651070638666324.0,2
1041,-1.0,7.0,5.0,54.0,13.0,5.0,1.0,-1.0,1651070638666324.0,2
1042,-5.0,-3.0,14.0,-2.0,12.0,4.0,1.0,0.0,1651070638668319.0,2
1043,-10.0,1.0,0.0,15.0,-12.0,-5.0,-1.0,-2.0,1651070638668319.0,2
1044,17.0,-3.0,-5.0,0.0,5.0,4.0,2.0,1.0,1651070638681288.0,2
1045,5.0,-3.0,-3.0,-13.0,-3.0,0.0,-2.0,1.0,1651070638681288.0,2
1046,-5.0,3.0,5.0,5.0,-5.0,-4.0,-3.0,-3.0,1651070638687240.0,2
1047,0.0,2.0,-7.0,10.0,6.0,1.0,2.0,2.0,1651070638687240.0,2
1048,0.0,2.0,10.0,-11.0,8.0,2.0,1.0,2.0,1651070638704286.0,2
1049,7.0,-12.0,-26.0,-26.0,-16.0,-7.0,-4.0,-3.0,1651070638704286.0,2
1050,-18.0,4.0,2.0,17.0,-7.0,1.0,-1.0,2.0,1651070638705285.0,2
1051,0.0,-18.0,13.0,0.0,-9.0,-7.0,-2.0,-2.0,1651070638705285.0,2
1052,0.0,0.0,-7.0,11.0,3.0,0.0,0.0,-3.0,1651070638726257.0,2
1053,5.0,4.0,5.0,-10.0,13.0,3.0,2.0,2.0,1651070638726257.0,2
1054,6.0,11.0,12.0,-3.0,7.0,5.0,-1.0,-1.0,1651070638728225.0,2
1055,6.0,-1.0,15.0,42.0,8.0,0.0,-2.0,2.0,1651070638728225.0,2
1056,-5.0,0.0,-23.0,-28.0,-23.0,-10.0,-4.0,-2.0,1651070638741243.0,2
1057,-4.0,-3.0,12.0,-17.0,3.0,2.0,1.0,2.0,1651070638741243.0,2
1058,3.0,-2.0,-31.0,-13.0,1.0,4.0,3.0,2.0,1651070638747663.0,2
1059,-1.0,15.0,-1.0,34.0,11.0,2.0,1.0,-1.0,1651070638747663.0,2
1060,-5.0,3.0,37.0,19.0,5.0,-1.0,0.0,-2.0,1651070638763730.0,2
1061,1.0,2.0,-8.0,-54.0,-25.0,-7.0,1.0,2.0,1651070638763730.0,2
1062,1.0,-10.0,19.0,17.0,4.0,-1.0,0.0,0.0,1651070638765666.0,2
1063,4.0,5.0,-36.0,-29.0,7.0,2.0,0.0,0.0,1651070638765666.0,2
1064,-4.0,0.0,-9.0,26.0,-7.0,-8.0,-5.0,-4.0,1651070638786614.0,2
1065,2.0,13.0,28.0,17.0,7.0,1.0,-2.0,0.0,1651070638786614.0,2
1066,0.0,-1.0,-5.0,-29.0,-6.0,-4.0,-2.0,-4.0,1651070638787615.0,2
1067,-1.0,4.0,16.0,-6.0,-3.0,0.0,-1.0,0.0,1651070638787615.0,2
1068,1.0,-6.0,-1.0,11.0,-1.0,0.0,1.0,-1.0,1651070638801244.0,2
1069,-1.0,3.0,4.0,-4.0,-5.0,-4.0,-1.0,-1.0,1651070638801244.0,2
1070,-1.0,-11.0,-33.0,-7.0,-7.0,-3.0,-1.0,-2.0,1651070638807680.0,2
1071,2.0,0.0,-5.0,-18.0,6.0,4.0,1.0,2.0,1651070638807680.0,2
1072,-1.0,-1.0,-3.0,16.0,5.0,0.0,-3.0,-3.0,1651070638824371.0,2
1073,-1.0,10.0,14.0,32.0,13.0,6.0,1.0,-2.0,1651070638824371.0,2
1074,-1.0,-8.0,-2.0,-10.0,-17.0,-8.0,-1.0,-2.0,1651070638825309.0,2
1075,0.0,-14.0,-33.0,-42.0,-10.0,0.0,2.0,0.0,1651070638825309.0,2
1076,-1.0,-11.0,0.0,10.0,3.0,1.0,2.0,2.0,1651070638846313.0,2
1077,-1.0,11.0,9.0,12.0,19.0,5.0,0.0,-1.0,1651070638846313.0,2
1078,-3.0,-27.0,-9.0,1.0,-4.0,-5.0,-2.0,-5.0,1651070638848275.0,2
1079,-1.0,-2.0,5.0,-15.0,-3.0,1.0,-1.0,-1.0,1651070638848275.0,2
1080,0.0,2.0,5.0,10.0,-10.0,-3.0,-3.0,-1.0,1651070638861303.0,2
1081,0.0,-7.0,-5.0,4.0,8.0,5.0,2.0,1.0,1651070638861303.0,2
1082,-1.0,-7.0,-8.0,-18.0,-3.0,3.0,2.0,0.0,1651070638867356.0,2
1083,-1.0,-3.0,-17.0,-3.0,-4.0,-3.0,-2.0,0.0,1651070638867356.0,2
1084,0.0,-1.0,19.0,4.0,1.0,1.0,-1.0,1.0,1651070638885018.0,2
1085,-4.0,-7.0,-9.0,5.0,-8.0,-6.0,-2.0,-2.0,1651070638885018.0,2
1086,0.0,12.0,2.0,-14.0,3.0,-2.0,-1.0,2.0,1651070638886293.0,2
1087,-1.0,1.0,26.0,18.0,0.0,-4.0,-3.0,-1.0,1651070638886293.0,2
1088,11.0,7.0,-31.0,-21.0,-2.0,1.0,-1.0,-1.0,1651070638906585.0,2
1089,-10.0,-12.0,-9.0,4.0,-8.0,-2.0,-1.0,0.0,1651070638906585.0,2
1090,2.0,14.0,14.0,7.0,13.0,4.0,0.0,0.0,1651070638907570.0,2
1091,-4.0,-8.0,15.0,6.0,-4.0,-5.0,-3.0,-2.0,1651070638907570.0,2
1092,-1.0,-12.0,-27.0,-14.0,-2.0,-1.0,-2.0,0.0,1651070638920569.0,2
1093,2.0,7.0,-13.0,-11.0,-5.0,-1.0,1.0,2.0,1651070638920569.0,2
1094,-1.0,-5.0,12.0,7.0,-5.0,-4.0,-1.0,0.0,1651070638927546.0,2
1095,-1.0,1.0,-11.0,-4.0,5.0,3.0,0.0,0.0,1651070638927546.0,2
1096,-3.0,-7.0,17.0,23.0,-1.0,1.0,0.0,-1.0,1651070638943796.0,2
1097,1.0,-12.0,10.0,-12.0,28.0,11.0,2.0,0.0,1651070638943796.0,2
1098,-6.0,6.0,-14.0,20.0,-11.0,-5.0,-5.0,-4.0,1651070638945888.0,2
1099,3.0,12.0,32.0,-5.0,2.0,-3.0,0.0,-1.0,1651070638945888.0,2
1100,-5.0,-4.0,-26.0,-8.0,-6.0,-2.0,1.0,1.0,1651070638966907.0,2
1101,1.0,6.0,-4.0,9.0,-8.0,-7.0,-3.0,0.0,1651070638966907.0,2
1102,2.0,3.0,6.0,-6.0,3.0,0.0,0.0,-1.0,1651070638967867.0,2
1103,-1.0,0.0,-3.0,-11.0,-5.0,-1.0,-1.0,-2.0,1651070638967867.0,2
1104,-2.0,2.0,11.0,10.0,5.0,0.0,-1.0,-2.0,1651070638980980.0,2
1105,-1.0,-4.0,-9.0,6.0,0.0,-4.0,0.0,-2.0,1651070638980980.0,2
1106,1.0,7.0,12.0,3.0,3.0,0.0,1.0,-1.0,1651070638987964.0,2
1107,-1.0,-3.0,-11.0,-2.0,-4.0,0.0,0.0,-1.0,1651070638987964.0,2
1108,-2.0,2.0,4.0,-21.0,-3.0,0.0,1.0,0.0,1651070639005069.0,2
1109,3.0,1.0,-15.0,5.0,-8.0,-5.0,-2.0,-2.0,1651070639005069.0,2
1110,-1.0,-8.0,10.0,-21.0,-3.0,-2.0,-2.0,-1.0,1651070639006158.0,2
1111,-2.0,1.0,-9.0,2.0,-3.0,0.0,-1.0,0.0,1651070639006158.0,2
1112,-1.0,-2.0,-1.0,16.0,6.0,0.0,-1.0,-1.0,1651070639026203.0,2
1113,-1.0,-2.0,7.0,2.0,-3.0,-1.0,-1.0,0.0,1651070639026203.0,2
1114,1.0,4.0,-5.0,-5.0,0.0,-2.0,0.0,0.0,1651070639028003.0,2
1115,2.0,11.0,30.0,0.0,-14.0,-3.0,3.0,2.0,1651070639028003.0,2
1116,-1.0,-10.0,-33.0,-31.0,17.0,7.0,1.0,-2.0,1651070639040536.0,2
1117,-5.0,-9.0,3.0,34.0,-7.0,-3.0,-3.0,-5.0,1651070639040536.0,2
1118,1.0,7.0,0.0,3.0,9.0,5.0,2.0,0.0,1651070639049533.0,2
1119,2.0,0.0,7.0,-6.0,-1.0,-3.0,-1.0,0.0,1651070639049533.0,2
1120,-1.0,-4.0,11.0,0.0,-8.0,-1.0,2.0,1.0,1651070639063542.0,2
1121,-2.0,0.0,-8.0,-19.0,-11.0,-2.0,0.0,0.0,1651070639063542.0,2
1122,0.0,1.0,0.0,12.0,0.0,-3.0,0.0,1.0,1651070639065615.0,2
1123,-2.0,-5.0,-8.0,5.0,-8.0,-5.0,-2.0,-2.0,1651070639065615.0,2
1124,0.0,7.0,12.0,-21.0,4.0,1.0,-2.0,-3.0,1651070639086684.0,2
1125,-1.0,-9.0,-13.0,4.0,0.0,-2.0,-4.0,1.0,1651070639086684.0,2
1126,-1.0,2.0,10.0,3.0,-4.0,-1.0,-1.0,4.0,1651070639087674.0,2
1127,-2.0,-5.0,-12.0,-2.0,2.0,-2.0,-1.0,-2.0,1651070639087674.0,2
1128,-1.0,4.0,4.0,6.0,-3.0,-2.0,0.0,0.0,1651070639100700.0,2
1129,0.0,4.0,6.0,-7.0,-1.0,1.0,0.0,-1.0,1651070639100700.0,2
1130,2.0,5.0,-12.0,-4.0,-4.0,-3.0,0.0,-2.0,1651070639107681.0,2
1131,-1.0,-11.0,7.0,0.0,-1.0,1.0,0.0,0.0,1651070639107681.0,2
1132,2.0,6.0,-6.0,0.0,1.0,-1.0,0.0,1.0,1651070639123737.0,2
1133,-1.0,-12.0,8.0,19.0,26.0,11.0,4.0,0.0,1651070639123737.0,2
1134,0.0,4.0,26.0,24.0,4.0,1.0,2.0,0.0,1651070639125780.0,2
1135,-2.0,1.0,-23.0,-4.0,3.0,1.0,-2.0,-3.0,1651070639125780.0,2
1136,-2.0,4.0,8.0,-12.0,-10.0,-6.0,-2.0,-2.0,1651070639146672.0,2
1137,-1.0,5.0,-5.0,-8.0,-9.0,-3.0,-1.0,-1.0,1651070639146672.0,2
1138,-1.0,0.0,-11.0,-5.0,4.0,1.0,1.0,0.0,1651070639147689.0,2
1139,-1.0,-1.0,12.0,6.0,2.0,1.0,1.0,-3.0,1651070639147689.0,2
1140,0.0,-2.0,3.0,14.0,-1.0,-2.0,-2.0,0.0,1651070639160633.0,2
1141,1.0,3.0,-6.0,-12.0,-4.0,-1.0,0.0,-1.0,1651070639160633.0,2
1142,-2.0,-5.0,-2.0,-2.0,0.0,0.0,0.0,-2.0,1651070639168679.0,2
1143,-1.0,-2.0,-4.0,-3.0,1.0,0.0,0.0,1.0,1651070639168679.0,2
1144,-1.0,-2.0,-3.0,4.0,1.0,1.0,-2.0,-1.0,1651070639183640.0,2
1145,1.0,2.0,0.0,-16.0,-7.0,-2.0,-1.0,-1.0,1651070639183640.0,2
1146,3.0,-3.0,-9.0,-7.0,-3.0,0.0,0.0,0.0,1651070639185634.0,2
1147,-1.0,4.0,12.0,24.0,11.0,0.0,-1.0,-1.0,1651070639185634.0,2
1148,-2.0,3.0,2.0,-6.0,-19.0,-2.0,-1.0,-2.0,1651070639205612.0,2
1149,-2.0,-10.0,-15.0,-4.0,6.0,-2.0,-1.0,0.0,1651070639205612.0,2
1150,-2.0,-6.0,-5.0,-10.0,4.0,6.0,2.0,0.0,1651070639214613.0,2
1151,3.0,2.0,-11.0,-17.0,2.0,-2.0,0.0,2.0,1651070639214613.0,2
1152,1.0,5.0,12.0,22.0,8.0,2.0,-1.0,2.0,1651070639220590.0,2
1153,1.0,7.0,2.0,-8.0,-16.0,-8.0,-2.0,-1.0,1651070639220590.0,2
1154,-1.0,-1.0,-9.0,-6.0,-6.0,-5.0,-2.0,-1.0,1651070639229543.0,2
1155,-1.0,0.0,-8.0,-10.0,0.0,3.0,-1.0,-1.0,1651070639229543.0,2
1156,1.0,-2.0,11.0,18.0,-3.0,-6.0,0.0,0.0,1651070639244347.0,2
1157,0.0,8.0,4.0,3.0,8.0,4.0,1.0,-1.0,1651070639244347.0,2
1158,-2.0,-11.0,-19.0,-1.0,0.0,-2.0,-1.0,-2.0,1651070639245595.0,2
1159,0.0,2.0,7.0,6.0,4.0,3.0,-2.0,-1.0,1651070639245595.0,2
1160,-2.0,-5.0,-14.0,-18.0,-8.0,-2.0,-2.0,-1.0,1651070639266402.0,2
1161,0.0,6.0,7.0,-5.0,-4.0,-2.0,0.0,-1.0,1651070639266402.0,2
1162,-1.0,-5.0,8.0,14.0,3.0,-1.0,-3.0,0.0,1651070639268353.0,2
1163,-1.0,0.0,-9.0,-20.0,-17.0,-4.0,-1.0,0.0,1651070639268353.0,2
1164,3.0,3.0,-5.0,12.0,20.0,4.0,3.0,0.0,1651070639280388.0,2
1165,0.0,-4.0,7.0,5.0,0.0,1.0,1.0,0.0,1651070639280388.0,2
1166,0.0,4.0,-4.0,-10.0,-6.0,-2.0,0.0,5.0,1651070639289296.0,2
1167,-1.0,-2.0,7.0,11.0,-4.0,-1.0,0.0,-2.0,1651070639289296.0,2
1168,-2.0,-3.0,-2.0,-3.0,0.0,-4.0,-2.0,-2.0,1651070639303688.0,2
1169,0.0,3.0,-4.0,-13.0,-3.0,-3.0,-2.0,-2.0,1651070639303688.0,2
1170,0.0,1.0,4.0,5.0,0.0,1.0,0.0,-5.0,1651070639305685.0,2
1171,0.0,-5.0,-2.0,5.0,1.0,-1.0,1.0,-1.0,1651070639305685.0,2
1172,-3.0,-4.0,-1.0,-9.0,-6.0,-1.0,0.0,-2.0,1651070639326400.0,2
1173,-1.0,-3.0,-2.0,1.0,2.0,1.0,-1.0,0.0,1651070639326400.0,2
1174,0.0,4.0,-3.0,-10.0,-10.0,-3.0,-2.0,-1.0,1651070639328359.0,2
1175,2.0,-3.0,-2.0,6.0,6.0,3.0,0.0,-1.0,1651070639328359.0,2
1176,-1.0,0.0,3.0,2.0,9.0,2.0,0.0,-2.0,1651070639340518.0,2
1177,-2.0,-5.0,-10.0,-6.0,-3.0,-3.0,-1.0,1.0,1651070639340518.0,2
1178,0.0,4.0,16.0,10.0,-3.0,-2.0,-1.0,-2.0,1651070639349557.0,2
1179,0.0,-1.0,-8.0,-9.0,-3.0,-3.0,-1.0,2.0,1651070639349557.0,2
1180,0.0,2.0,12.0,12.0,4.0,1.0,-2.0,-1.0,1651070639364338.0,2
1181,0.0,-2.0,-6.0,7.0,-1.0,-2.0,-2.0,-1.0,1651070639364338.0,2
1182,0.0,2.0,3.0,-14.0,-4.0,1.0,0.0,-3.0,1651070639365292.0,2
1183,-2.0,-12.0,-4.0,2.0,6.0,1.0,-1.0,1.0,1651070639365292.0,2
1184,2.0,-1.0,-7.0,-8.0,-8.0,-1.0,1.0,0.0,1651070639386279.0,2
1185,-2.0,4.0,12.0,17.0,6.0,1.0,-1.0,-1.0,1651070639386279.0,2
1186,-4.0,2.0,-3.0,6.0,0.0,1.0,-2.0,-1.0,1651070639388207.0,2
1187,-2.0,-4.0,-19.0,-25.0,-6.0,-2.0,-1.0,-5.0,1651070639388207.0,2
1188,1.0,8.0,0.0,-10.0,-13.0,-3.0,-2.0,7.0,1651070639400546.0,2
1189,1.0,-4.0,1.0,3.0,7.0,4.0,2.0,-2.0,1651070639400546.0,2
1190,-2.0,-3.0,-1.0,7.0,3.0,-4.0,-1.0,1.0,1651070639409538.0,2
1191,-1.0,8.0,5.0,-2.0,1.0,3.0,-1.0,0.0,1651070639409538.0,2
1192,0.0,2.0,14.0,-1.0,5.0,1.0,-1.0,-2.0,1651070639424327.0,2
1193,1.0,-3.0,-22.0,2.0,-9.0,-5.0,-3.0,-2.0,1651070639424327.0,2
1194,-1.0,-2.0,5.0,-4.0,4.0,0.0,0.0,1.0,1651070639425257.0,2
1195,0.0,4.0,-4.0,-4.0,0.0,-1.0,-1.0,-1.0,1651070639425257.0,2
1196,0.0,-3.0,-1.0,2.0,-2.0,-1.0,1.0,-3.0,1651070639454355.0,2
1197,-1.0,0.0,13.0,1.0,-2.0,-1.0,-3.0,0.0,1651070639454355.0,2
1198,0.0,-1.0,-11.0,-5.0,0.0,0.0,0.0,0.0,1651070639455417.0,2
1199,-2.0,0.0,9.0,2.0,-2.0,-3.0,0.0,-1.0,1651070639455417.0,2
1200,-2.0,2.0,-1.0,1.0,3.0,1.0,-1.0,-1.0,1651070639460341.0,2
1201,-2.0,-5.0,-13.0,-16.0,-11.0,-4.0,-1.0,1.0,1651070639460341.0,2
1202,1.0,-4.0,-5.0,9.0,5.0,1.0,1.0,0.0,1651070639469318.0,2
1203,1.0,2.0,10.0,5.0,0.0,6.0,0.0,0.0,1651070639469318.0,2
1204,-2.0,-3.0,-9.0,-10.0,14.0,0.0,-3.0,-3.0,1651070639484348.0,2
1205,2.0,3.0,6.0,4.0,3.0,0.0,-1.0,0.0,1651070639484348.0,2
1206,0.0,-2.0,4.0,4.0,-7.0,-4.0,-2.0,-2.0,1651070639485401.0,2
1207,1.0,6.0,9.0,3.0,-3.0,-3.0,-1.0,0.0,1651070639485401.0,2
1208,-2.0,-13.0,-21.0,-8.0,-15.0,-5.0,1.0,-2.0,1651070639506564.0,2
1209,-3.0,2.0,-3.0,-5.0,3.0,-3.0,0.0,-2.0,1651070639506564.0,2
1210,1.0,1.0,3.0,-2.0,4.0,6.0,2.0,4.0,1651070639507548.0,2
1211,-1.0,4.0,-1.0,5.0,-3.0,-1.0,-1.0,4.0,1651070639507548.0,2
1212,-3.0,-1.0,9.0,0.0,-3.0,-1.0,-1.0,-1.0,1651070639520541.0,2
1213,-3.0,1.0,4.0,-4.0,-4.0,-2.0,-2.0,0.0,1651070639520541.0,2
1214,1.0,2.0,-5.0,-2.0,-3.0,-3.0,1.0,-6.0,1651070639529490.0,2
1215,-2.0,-8.0,-6.0,-1.0,-2.0,-1.0,-1.0,-2.0,1651070639529490.0,2
1216,2.0,3.0,-7.0,-5.0,-1.0,-4.0,-2.0,1.0,1651070639543563.0,2
1217,-2.0,0.0,22.0,22.0,8.0,4.0,2.0,-1.0,1651070639543563.0,2
1218,-3.0,-2.0,5.0,12.0,11.0,3.0,-2.0,-2.0,1651070639550552.0,2
1219,0.0,-4.0,0.0,-14.0,-2.0,-2.0,-3.0,-1.0,1651070639550552.0,2
1220,1.0,-2.0,-7.0,0.0,-2.0,-1.0,0.0,0.0,1651070639566488.0,2
1221,1.0,0.0,-1.0,-9.0,-6.0,1.0,-1.0,-1.0,1651070639566488.0,2
1222,0.0,0.0,-2.0,-7.0,-2.0,-1.0,0.0,-2.0,1651070639568477.0,2
1223,-2.0,0.0,-2.0,8.0,2.0,-2.0,0.0,-1.0,1651070639568477.0,2
1224,0.0,3.0,5.0,4.0,0.0,1.0,-1.0,-1.0,1651070639588619.0,2
1225,0.0,-6.0,-2.0,-7.0,-6.0,-1.0,0.0,-1.0,1651070639588619.0,2
1226,-1.0,-1.0,-15.0,-5.0,0.0,-2.0,0.0,-1.0,1651070639590615.0,2
1227,1.0,3.0,3.0,4.0,4.0,-1.0,0.0,0.0,1651070639590615.0,2
1228,-2.0,-6.0,-1.0,5.0,1.0,4.0,-1.0,-1.0,1651070639604639.0,2
1229,-1.0,0.0,-5.0,-3.0,-4.0,-2.0,0.0,0.0,1651070639604639.0,2
1230,-1.0,-1.0,1.0,-7.0,-6.0,-4.0,-3.0,-2.0,1651070639609654.0,2
1231,-1.0,-1.0,-1.0,-5.0,-2.0,0.0,-1.0,-1.0,1651070639609654.0,2
1232,1.0,2.0,1.0,4.0,5.0,1.0,0.0,1.0,1651070639626727.0,2
1233,-1.0,-6.0,1.0,5.0,2.0,1.0,2.0,2.0,1651070639626727.0,2
1234,-2.0,-10.0,-4.0,-7.0,-5.0,-3.0,-2.0,-1.0,1651070639627720.0,2
1235,-2.0,-4.0,-11.0,1.0,8.0,4.0,0.0,-2.0,1651070639627720.0,2
1236,-1.0,4.0,24.0,-4.0,-17.0,-1.0,-1.0,1.0,1651070639648989.0,2
1237,-1.0,-9.0,-9.0,10.0,17.0,2.0,-1.0,-2.0,1651070639648989.0,2
1238,-1.0,4.0,6.0,6.0,2.0,-3.0,0.0,-1.0,1651070639651019.0,2
1239,1.0,-5.0,2.0,7.0,1.0,-3.0,-1.0,-1.0,1651070639651019.0,2
1240,1.0,2.0,-4.0,-10.0,1.0,-1.0,0.0,-4.0,1651070639664392.0,2
1241,0.0,6.0,-2.0,-13.0,-9.0,0.0,1.0,4.0,1651070639664392.0,2
1242,0.0,2.0,0.0,-3.0,0.0,4.0,0.0,0.0,1651070639665445.0,2
1243,-1.0,2.0,2.0,5.0,-1.0,-3.0,-1.0,1.0,1651070639665445.0,2
1244,0.0,-3.0,-4.0,2.0,2.0,1.0,1.0,-2.0,1651070639686412.0,2
1245,3.0,2.0,-7.0,-7.0,-3.0,3.0,-2.0,-1.0,1651070639686412.0,2
1246,-2.0,0.0,9.0,-2.0,0.0,2.0,0.0,0.0,1651070639688418.0,2
1247,0.0,-3.0,7.0,29.0,3.0,-2.0,-1.0,-2.0,1651070639688418.0,2
1248,0.0,-6.0,-2.0,-7.0,12.0,8.0,2.0,0.0,1651070639709424.0,2
1249,-1.0,-2.0,1.0,5.0,0.0,-3.0,-1.0,-2.0,1651070639709424.0,2
1250,1.0,3.0,-3.0,-13.0,-4.0,0.0,0.0,1.0,1651070639710343.0,2
1251,-2.0,1.0,-3.0,-9.0,-7.0,-1.0,1.0,0.0,1651070639710343.0,2
1252,-2.0,0.0,-3.0,7.0,0.0,-5.0,-2.0,0.0,1651070639723377.0,2
1253,0.0,3.0,-2.0,-3.0,1.0,-2.0,0.0,-1.0,1651070639723377.0,2
1254,0.0,1.0,-4.0,-2.0,-3.0,-2.0,-1.0,-1.0,1651070639730356.0,2
1255,2.0,-1.0,1.0,-8.0,1.0,-1.0,-1.0,-1.0,1651070639730356.0,2
1256,-1.0,-5.0,-4.0,9.0,-1.0,-1.0,0.0,0.0,1651070639746483.0,2
1257,-1.0,-7.0,10.0,0.0,-11.0,-2.0,1.0,-1.0,1651070639746483.0,2
1258,-1.0,2.0,-7.0,-1.0,0.0,-5.0,-3.0,0.0,1651070639748241.0,2
1259,-1.0,-3.0,-6.0,7.0,36.0,13.0,1.0,1.0,1651070639748241.0,2
1260,-1.0,3.0,-1.0,-4.0,-5.0,-1.0,-1.0,2.0,1651070639769298.0,2
1261,-2.0,2.0,-3.0,-2.0,-1.0,-2.0,0.0,-2.0,1651070639769298.0,2
1262,-1.0,-2.0,5.0,-2.0,-11.0,-3.0,-1.0,1.0,1651070639770298.0,2
1263,-2.0,2.0,4.0,3.0,-16.0,-6.0,-2.0,-3.0,1651070639770298.0,2
1264,0.0,0.0,-3.0,-1.0,7.0,3.0,-1.0,-3.0,1651070639783331.0,2
1265,1.0,4.0,9.0,3.0,-4.0,-2.0,-1.0,0.0,1651070639783331.0,2
1266,-2.0,-5.0,-2.0,3.0,0.0,-1.0,1.0,-2.0,1651070639790558.0,2
1267,-1.0,0.0,-17.0,-25.0,-9.0,-1.0,0.0,0.0,1651070639790558.0,2
1268,-1.0,2.0,6.0,-2.0,-2.0,-3.0,-1.0,2.0,1651070639806421.0,2
1269,-1.0,-3.0,-1.0,-1.0,-1.0,-2.0,-2.0,-3.0,1651070639806421.0,2
1270,0.0,0.0,4.0,4.0,4.0,1.0,0.0,-2.0,1651070639808416.0,2
1271,-2.0,-1.0,0.0,-3.0,-5.0,-2.0,-1.0,-2.0,1651070639808416.0,2
1272,0.0,0.0,-10.0,0.0,-5.0,-3.0,-1.0,5.0,1651070639828484.0,2
1273,0.0,-3.0,1.0,-6.0,-6.0,-2.0,1.0,-2.0,1651070639828484.0,2
1274,-3.0,-7.0,-1.0,5.0,19.0,8.0,1.0,3.0,1651070639830416.0,2
1275,-1.0,1.0,7.0,-4.0,-5.0,0.0,0.0,-1.0,1651070639830416.0,2
1276,0.0,1.0,-4.0,-2.0,-1.0,-2.0,-1.0,-2.0,1651070639843491.0,2
1277,0.0,4.0,-5.0,3.0,3.0,0.0,0.0,2.0,1651070639843491.0,2
1278,0.0,-8.0,-10.0,-7.0,-8.0,-3.0,-3.0,-3.0,1651070639850543.0,2
1279,0.0,0.0,4.0,0.0,-11.0,-2.0,-1.0,0.0,1651070639850543.0,2
1280,-2.0,-5.0,0.0,-1.0,7.0,0.0,-1.0,-1.0,1651070639866602.0,2
1281,-1.0,1.0,-1.0,22.0,10.0,-3.0,0.0,1.0,1651070639866602.0,2
1282,-1.0,4.0,3.0,-5.0,6.0,3.0,1.0,0.0,1651070639867609.0,2
1283,0.0,-3.0,0.0,0.0,-2.0,0.0,2.0,2.0,1651070639867609.0,2
1284,2.0,0.0,1.0,-1.0,-7.0,-2.0,-1.0,-2.0,1651070639889080.0,2
1285,0.0,3.0,0.0,-8.0,-5.0,0.0,-1.0,-2.0,1651070639889080.0,2
1286,2.0,-1.0,3.0,3.0,0.0,-3.0,-3.0,-1.0,1651070639890050.0,2
1287,0.0,-9.0,-19.0,-14.0,-1.0,-1.0,0.0,1.0,1651070639890050.0,2
1288,-1.0,1.0,6.0,11.0,2.0,4.0,-1.0,-1.0,1651070639903757.0,2
1289,-3.0,-3.0,0.0,-5.0,0.0,-1.0,-2.0,-1.0,1651070639903757.0,2
1290,0.0,5.0,2.0,4.0,0.0,-1.0,-1.0,-1.0,1651070639909811.0,2
1291,-1.0,-1.0,-16.0,-5.0,-2.0,-3.0,1.0,-1.0,1651070639909811.0,2
1292,-2.0,0.0,9.0,1.0,-2.0,-3.0,1.0,-2.0,1651070639926614.0,2
1293,0.0,0.0,-8.0,-5.0,1.0,2.0,0.0,0.0,1651070639926614.0,2
1294,-2.0,1.0,1.0,1.0,-6.0,1.0,1.0,-2.0,1651070639927601.0,2
1295,1.0,3.0,-2.0,2.0,-1.0,-2.0,-4.0,-1.0,1651070639927601.0,2
1296,-1.0,5.0,4.0,2.0,5.0,1.0,0.0,0.0,1651070639949144.0,2
1297,-1.0,-8.0,-3.0,-9.0,2.0,4.0,0.0,-1.0,1651070639949144.0,2
1298,-1.0,1.0,4.0,18.0,1.0,-1.0,-1.0,1.0,1651070639950163.0,2
1299,-1.0,4.0,11.0,3.0,0.0,-3.0,0.0,1.0,1651070639950163.0,2
1300,2.0,1.0,-6.0,2.0,1.0,-1.0,0.0,-1.0,1651070639963737.0,2
1301,-1.0,1.0,-1.0,-8.0,-4.0,-2.0,-2.0,0.0,1651070639963737.0,2
1302,1.0,0.0,-9.0,-8.0,-12.0,-4.0,0.0,1.0,1651070639969732.0,2
1303,0.0,-2.0,10.0,5.0,15.0,3.0,-1.0,-1.0,1651070639969732.0,2
1304,0.0,-1.0,1.0,0.0,-2.0,2.0,-1.0,0.0,1651070639986409.0,2
1305,0.0,2.0,3.0,3.0,-3.0,-1.0,-1.0,0.0,1651070639986409.0,2
1306,0.0,-2.0,-7.0,-11.0,-1.0,1.0,0.0,-2.0,1651070639988427.0,2
1307,-2.0,0.0,2.0,9.0,-7.0,-2.0,-1.0,0.0,1651070639988427.0,2
1308,-1.0,-2.0,4.0,-7.0,-7.0,-4.0,-1.0,-1.0,1651070640009356.0,2
1309,1.0,1.0,-11.0,-4.0,6.0,2.0,-1.0,-1.0,1651070640009356.0,2
1310,1.0,6.0,-1.0,0.0,-3.0,-3.0,-1.0,0.0,1651070640010360.0,2
1311,-1.0,1.0,6.0,-2.0,-3.0,-2.0,-1.0,-1.0,1651070640010360.0,2
1312,-2.0,-4.0,6.0,3.0,-2.0,-2.0,-1.0,-1.0,1651070640023420.0,2
1313,0.0,-4.0,-12.0,-5.0,-3.0,-1.0,0.0,0.0,1651070640023420.0,2
1314,0.0,2.0,11.0,0.0,-2.0,0.0,-1.0,1.0,1651070640029580.0,2
1315,0.0,-2.0,-5.0,1.0,5.0,1.0,-1.0,0.0,1651070640029580.0,2
1316,-2.0,-1.0,-10.0,0.0,-1.0,-2.0,-1.0,1.0,1651070640046539.0,2
1317,2.0,5.0,7.0,0.0,-2.0,-2.0,-2.0,0.0,1651070640046539.0,2
1318,-3.0,-10.0,-4.0,-7.0,1.0,2.0,0.0,-1.0,1651070640048532.0,2
1319,-2.0,2.0,-10.0,-5.0,-5.0,-1.0,1.0,0.0,1651070640048532.0,2
1320,-2.0,-2.0,17.0,6.0,4.0,0.0,-1.0,-2.0,1651070640068546.0,2
1321,-1.0,-1.0,-9.0,-4.0,-2.0,-2.0,-2.0,0.0,1651070640068546.0,2
1322,0.0,3.0,11.0,3.0,11.0,-1.0,-1.0,0.0,1651070640070473.0,2
1323,-3.0,-18.0,-11.0,4.0,1.0,2.0,-2.0,0.0,1651070640070473.0,2
1324,0.0,0.0,-10.0,-5.0,-4.0,-5.0,0.0,-1.0,1651070640083079.0,2
1325,-2.0,-1.0,5.0,-1.0,3.0,1.0,0.0,0.0,1651070640083079.0,2
1326,1.0,-3.0,-10.0,-9.0,-3.0,2.0,-1.0,0.0,1651070640092057.0,2
1327,2.0,5.0,2.0,-2.0,-8.0,-1.0,0.0,-1.0,1651070640092057.0,2
1328,-1.0,2.0,-13.0,-4.0,1.0,-2.0,1.0,1.0,1651070640106257.0,2
1329,-1.0,0.0,24.0,7.0,5.0,0.0,-1.0,0.0,1651070640106257.0,2
1330,-2.0,-2.0,-4.0,3.0,-12.0,-5.0,-3.0,-3.0,1651070640108156.0,2
1331,1.0,4.0,16.0,6.0,6.0,-1.0,0.0,0.0,1651070640108156.0,2
1332,0.0,-3.0,-23.0,-3.0,5.0,5.0,1.0,-1.0,1651070640129224.0,2
1333,1.0,2.0,-10.0,2.0,-2.0,-3.0,3.0,1.0,1651070640129224.0,2
1334,-1.0,4.0,1.0,-8.0,1.0,-5.0,-1.0,-6.0,1651070640130184.0,2
1335,-2.0,-4.0,-16.0,-11.0,-7.0,4.0,1.0,4.0,1651070640130184.0,2
1336,-4.0,-3.0,18.0,4.0,-5.0,-1.0,-1.0,-4.0,1651070640142751.0,2
1337,1.0,3.0,2.0,5.0,-9.0,3.0,1.0,2.0,1651070640142751.0,2
1338,7.0,8.0,-4.0,-8.0,24.0,3.0,4.0,4.0,1651070640151378.0,2
1339,-1.0,-1.0,3.0,4.0,12.0,7.0,3.0,-4.0,1651070640151378.0,2
1340,0.0,1.0,3.0,-8.0,-14.0,-6.0,-4.0,-2.0,1651070640166552.0,2
1341,-7.0,-12.0,-10.0,1.0,-2.0,1.0,-2.0,-4.0,1651070640166552.0,2
1342,-1.0,13.0,38.0,19.0,-12.0,-6.0,-3.0,-2.0,1651070640168559.0,2
1343,4.0,-24.0,-42.0,-12.0,-16.0,-12.0,-1.0,2.0,1651070640168559.0,2
1344,-1.0,-4.0,-18.0,-20.0,7.0,7.0,1.0,2.0,1651070640188560.0,2
1345,-1.0,3.0,14.0,-7.0,-4.0,-3.0,-3.0,-1.0,1651070640188560.0,2
1346,-1.0,-5.0,-17.0,18.0,4.0,2.0,-4.0,1.0,1651070640190487.0,2
1347,-12.0,10.0,30.0,19.0,6.0,0.0,-4.0,-5.0,1651070640190487.0,2
1348,1.0,2.0,8.0,-14.0,-16.0,-3.0,-2.0,-5.0,1651070640202456.0,2
1349,15.0,11.0,-20.0,-12.0,-7.0,2.0,5.0,8.0,1651070640202456.0,2
1350,5.0,0.0,4.0,-25.0,3.0,5.0,6.0,5.0,1651070640211443.0,2
1351,8.0,-8.0,-3.0,9.0,12.0,9.0,2.0,3.0,1651070640211443.0,2
1352,-8.0,0.0,3.0,20.0,-3.0,-10.0,-5.0,-4.0,1651070640226531.0,2
1353,-16.0,-16.0,25.0,8.0,8.0,0.0,-4.0,-13.0,1651070640226531.0,2
1354,-11.0,-1.0,32.0,16.0,-4.0,4.0,1.0,-3.0,1651070640227549.0,2
1355,15.0,19.0,-38.0,-23.0,-10.0,-6.0,-4.0,3.0,1651070640227549.0,2
1356,13.0,-5.0,-6.0,-15.0,6.0,6.0,4.0,16.0,1651070640249425.0,2
1357,-21.0,1.0,-10.0,-11.0,-7.0,-5.0,-2.0,-7.0,1651070640249425.0,2
1358,-5.0,-3.0,-12.0,14.0,-12.0,-5.0,-4.0,-10.0,1651070640250427.0,2
1359,-1.0,-44.0,28.0,-9.0,4.0,3.0,-1.0,-4.0,1651070640250427.0,2
1360,19.0,47.0,-1.0,11.0,14.0,2.0,2.0,9.0,1651070640262496.0,2
1361,8.0,6.0,11.0,10.0,2.0,0.0,1.0,16.0,1651070640262496.0,2
1362,-12.0,-9.0,-5.0,4.0,-1.0,0.0,0.0,-7.0,1651070640271590.0,2
1363,-27.0,59.0,-20.0,-15.0,-25.0,-16.0,-13.0,-17.0,1651070640271590.0,2
1364,-10.0,-86.0,35.0,23.0,10.0,7.0,0.0,-14.0,1651070640286503.0,2
1365,58.0,63.0,-3.0,-3.0,-14.0,-3.0,8.0,21.0,1651070640286503.0,2
1366,13.0,-83.0,-17.0,4.0,47.0,29.0,18.0,34.0,1651070640288488.0,2
1367,14.0,99.0,-22.0,-25.0,-17.0,-13.0,-10.0,-7.0,1651070640288488.0,2
1368,-12.0,34.0,0.0,2.0,8.0,-1.0,-1.0,1.0,1651070640309420.0,2
1369,26.0,23.0,13.0,13.0,-2.0,-6.0,-1.0,-1.0,1651070640309420.0,2
1370,-15.0,-30.0,63.0,-6.0,-14.0,-10.0,-6.0,-14.0,1651070640310344.0,2
1371,-57.0,-18.0,61.0,36.0,19.0,13.0,3.0,-12.0,1651070640310344.0,2
1372,8.0,-40.0,-51.0,-3.0,-10.0,1.0,-3.0,-9.0,1651070640323047.0,2
1373,-35.0,-14.0,-5.0,8.0,15.0,6.0,4.0,9.0,1651070640323047.0,2
1374,66.0,58.0,-43.0,-32.0,-6.0,-4.0,4.0,25.0,1651070640331584.0,2
1375,4.0,8.0,14.0,-9.0,-10.0,-5.0,0.0,-5.0,1651070640331584.0,2
1376,-37.0,49.0,35.0,13.0,-10.0,-12.0,-7.0,-10.0,1651070640346085.0,2
1377,5.0,-44.0,31.0,14.0,45.0,33.0,15.0,10.0,1651070640346085.0,2
1378,1.0,67.0,-3.0,9.0,-12.0,-11.0,-9.0,-11.0,1651070640352658.0,2
1379,42.0,3.0,-6.0,4.0,-1.0,3.0,9.0,18.0,1651070640352658.0,2
1380,-7.0,-35.0,-23.0,-4.0,-4.0,-6.0,-6.0,-6.0,1651070640368712.0,2
1381,5.0,-64.0,-22.0,11.0,15.0,2.0,3.0,8.0,1651070640368712.0,2
1382,-35.0,-8.0,-15.0,0.0,-7.0,-8.0,-4.0,-11.0,1651070640370649.0,2
1383,-16.0,-62.0,6.0,-32.0,-18.0,-4.0,-6.0,-6.0,1651070640370649.0,2
1384,-4.0,86.0,0.0,-6.0,-9.0,-3.0,-1.0,-5.0,1651070640383041.0,2
1385,-34.0,-77.0,-62.0,-11.0,-12.0,-12.0,-13.0,-18.0,1651070640383041.0,2
1386,-26.0,-5.0,13.0,-13.0,-8.0,-6.0,-9.0,-18.0,1651070640392036.0,2
1387,67.0,68.0,-9.0,19.0,24.0,17.0,21.0,34.0,1651070640392036.0,2
1388,12.0,-67.0,-25.0,-7.0,-6.0,-5.0,2.0,6.0,1651070640406407.0,2
1389,-28.0,-34.0,74.0,12.0,0.0,-8.0,-17.0,-26.0,1651070640406407.0,2
1390,9.0,22.0,-62.0,-3.0,-7.0,9.0,6.0,6.0,1651070640408427.0,2
1391,-44.0,37.0,4.0,-7.0,-12.0,-12.0,-13.0,-22.0,1651070640408427.0,2
1392,52.0,-49.0,26.0,-8.0,12.0,13.0,14.0,36.0,1651070640429246.0,2
1393,-48.0,-10.0,-46.0,3.0,-4.0,-1.0,0.0,-15.0,1651070640429246.0,2
1394,10.0,18.0,35.0,9.0,-2.0,1.0,-5.0,-18.0,1651070640430241.0,2
1395,53.0,-76.0,37.0,-2.0,-5.0,0.0,10.0,37.0,1651070640430241.0,0
1396,-8.0,-2.0,-38.0,-18.0,-10.0,-10.0,-10.0,-12.0,1651070640442330.0,3
1397,7.0,6.0,0.0,-10.0,-28.0,-12.0,-5.0,-13.0,1651070640442330.0,3
1398,52.0,-26.0,-5.0,2.0,36.0,16.0,12.0,25.0,1651070640451421.0,3
1399,-46.0,67.0,11.0,27.0,4.0,0.0,0.0,-3.0,1651070640451421.0,3
1400,-19.0,28.0,19.0,6.0,13.0,1.0,-3.0,-11.0,1651070640465541.0,3
1401,-6.0,-36.0,21.0,-21.0,-14.0,-6.0,-2.0,-4.0,1651070640465541.0,3
1402,4.0,29.0,-25.0,-1.0,-15.0,-8.0,-9.0,-5.0,1651070640472534.0,3
1403,-20.0,-38.0,38.0,-10.0,-8.0,1.0,-1.0,-3.0,1651070640472534.0,3
1404,46.0,72.0,-29.0,8.0,6.0,5.0,5.0,11.0,1651070640489439.0,3
1405,-22.0,23.0,-1.0,0.0,8.0,2.0,-2.0,-7.0,1651070640489439.0,3
1406,14.0,-10.0,13.0,6.0,2.0,2.0,7.0,11.0,1651070640490428.0,3
1407,9.0,-37.0,-27.0,7.0,7.0,-1.0,-1.0,-6.0,1651070640490428.0,3
1408,-23.0,8.0,3.0,-9.0,-4.0,-2.0,-4.0,-11.0,1651070640502454.0,3
1409,13.0,15.0,16.0,-8.0,-4.0,2.0,2.0,4.0,1651070640502454.0,3
1410,-18.0,-10.0,-10.0,0.0,-5.0,-1.0,2.0,2.0,1651070640511488.0,3
1411,-3.0,-14.0,8.0,19.0,12.0,6.0,0.0,1.0,1651070640511488.0,3
1412,-10.0,-35.0,45.0,3.0,-4.0,1.0,5.0,7.0,1651070640525600.0,3
1413,48.0,30.0,-52.0,-2.0,2.0,1.0,2.0,4.0,1651070640525600.0,3
1414,-27.0,13.0,11.0,3.0,-12.0,-11.0,-6.0,0.0,1651070640533079.0,3
1415,7.0,-37.0,-7.0,-14.0,11.0,4.0,-1.0,-18.0,1651070640533079.0,3
1416,-3.0,34.0,33.0,21.0,14.0,9.0,0.0,-1.0,1651070640549299.0,3
1417,5.0,-28.0,-48.0,-20.0,1.0,-4.0,-1.0,3.0,1651070640549299.0,3
1418,8.0,39.0,-25.0,-4.0,4.0,4.0,3.0,-2.0,1651070640550267.0,3
1419,-14.0,-63.0,35.0,23.0,0.0,-5.0,-7.0,-6.0,1651070640550267.0,3
1420,3.0,18.0,1.0,2.0,-7.0,-3.0,1.0,4.0,1651070640571683.0,3
1421,-1.0,9.0,10.0,-1.0,-8.0,-2.0,1.0,-12.0,1651070640571683.0,3
1422,-23.0,-3.0,-27.0,-18.0,-5.0,-3.0,-6.0,5.0,1651070640572694.0,3
1423,5.0,19.0,3.0,-1.0,-3.0,-1.0,4.0,11.0,1651070640572694.0,3
1424,7.0,-1.0,13.0,-4.0,-4.0,0.0,-6.0,-10.0,1651070640586646.0,3
1425,-10.0,0.0,24.0,12.0,0.0,-2.0,-5.0,-6.0,1651070640586646.0,3
1426,-10.0,5.0,37.0,10.0,-5.0,-1.0,-1.0,-2.0,1651070640587663.0,3
1427,31.0,56.0,4.0,-9.0,11.0,5.0,6.0,12.0,1651070640587663.0,3
1428,-12.0,-73.0,-44.0,-5.0,0.0,1.0,-1.0,0.0,1651070640608735.0,3
1429,25.0,112.0,2.0,1.0,-15.0,-5.0,-1.0,-1.0,1651070640608735.0,3
1430,-19.0,-49.0,-29.0,-14.0,-9.0,-8.0,-4.0,-1.0,1651070640610664.0,3
1431,-21.0,30.0,1.0,1.0,6.0,1.0,-4.0,-15.0,1651070640610664.0,3
1432,5.0,2.0,-9.0,-17.0,0.0,5.0,-4.0,-3.0,1651070640631771.0,3
1433,5.0,-17.0,37.0,28.0,9.0,0.0,1.0,8.0,1651070640631771.0,3
1434,13.0,74.0,-11.0,-23.0,3.0,5.0,6.0,14.0,1651070640632707.0,3
1435,-24.0,-30.0,-46.0,-36.0,-42.0,-19.0,-9.0,-16.0,1651070640632707.0,3
1436,14.0,-16.0,14.0,2.0,30.0,8.0,9.0,0.0,1651070640645369.0,3
1437,-2.0,21.0,-6.0,-9.0,-17.0,-7.0,0.0,7.0,1651070640645369.0,3
1438,-7.0,-29.0,39.0,21.0,11.0,0.0,1.0,-6.0,1651070640652355.0,3
1439,-22.0,7.0,-37.0,6.0,9.0,4.0,0.0,-14.0,1651070640652355.0,3
1440,28.0,59.0,8.0,0.0,-11.0,-4.0,-2.0,10.0,1651070640669392.0,3
1441,-3.0,-43.0,-14.0,-12.0,-3.0,-1.0,3.0,12.0,1651070640669392.0,3
1442,9.0,23.0,-5.0,8.0,1.0,1.0,3.0,-2.0,1651070640670404.0,3
1443,2.0,-1.0,14.0,6.0,2.0,3.0,-2.0,-10.0,1651070640670404.0,3
1444,-19.0,27.0,-5.0,4.0,-10.0,-7.0,0.0,5.0,1651070640691606.0,3
1445,11.0,-84.0,5.0,3.0,14.0,8.0,5.0,3.0,1651070640691606.0,3
1446,8.0,-39.0,17.0,-4.0,-2.0,2.0,0.0,-2.0,1651070640692603.0,3
1447,1.0,5.0,-20.0,-9.0,-10.0,-9.0,-4.0,-1.0,1651070640692603.0,3
1448,-20.0,3.0,-8.0,-1.0,3.0,2.0,-1.0,-3.0,1651070640705638.0,3
1449,-19.0,12.0,-8.0,-13.0,3.0,2.0,-5.0,-14.0,1651070640705638.0,3
1450,1.0,-15.0,-3.0,1.0,-20.0,-3.0,-2.0,-3.0,1651070640712616.0,3
1451,8.0,-31.0,-20.0,-10.0,11.0,5.0,0.0,11.0,1651070640712616.0,3
1452,-11.0,13.0,23.0,12.0,9.0,3.0,2.0,-2.0,1651070640728773.0,3
1453,5.0,18.0,-4.0,-22.0,7.0,3.0,2.0,6.0,1651070640728773.0,3
1454,6.0,-29.0,-48.0,9.0,0.0,0.0,-2.0,-8.0,1651070640730702.0,3
1455,9.0,1.0,12.0,18.0,-3.0,-1.0,-4.0,-12.0,1651070640730702.0,3
1456,-1.0,16.0,-14.0,-6.0,-20.0,-8.0,2.0,13.0,1651070640751894.0,3
1457,5.0,27.0,22.0,-4.0,3.0,1.0,2.0,7.0,1651070640751894.0,3
1458,-15.0,-6.0,1.0,-15.0,-11.0,-9.0,-5.0,-7.0,1651070640752813.0,3
1459,9.0,-1.0,24.0,21.0,15.0,14.0,4.0,1.0,1651070640752813.0,3
1460,-19.0,-65.0,-15.0,3.0,2.0,-2.0,0.0,-6.0,1651070640765881.0,3
1461,14.0,64.0,-7.0,-1.0,-10.0,-5.0,-5.0,-6.0,1651070640765881.0,3
1462,-15.0,-5.0,16.0,9.0,3.0,-2.0,-3.0,-3.0,1651070640773049.0,3
1463,6.0,-40.0,-37.0,-18.0,-5.0,-3.0,1.0,13.0,1651070640773049.0,3
1464,-12.0,-14.0,17.0,4.0,-4.0,-1.0,1.0,10.0,1651070640789229.0,3
1465,11.0,5.0,-23.0,-4.0,-2.0,0.0,-2.0,3.0,1651070640789229.0,3
1466,-9.0,15.0,5.0,-9.0,-3.0,-4.0,-5.0,-24.0,1651070640790206.0,3
1467,-6.0,-11.0,10.0,-8.0,-17.0,-7.0,-2.0,4.0,1651070640790206.0,3
1468,0.0,-31.0,-18.0,-3.0,12.0,4.0,-1.0,-9.0,1651070640811319.0,3
1469,-1.0,51.0,-11.0,2.0,2.0,-3.0,-2.0,5.0,1651070640811319.0,3
1470,-5.0,-10.0,4.0,6.0,-8.0,-4.0,-2.0,-18.0,1651070640813247.0,3
1471,2.0,12.0,-5.0,1.0,25.0,7.0,2.0,14.0,1651070640813247.0,3
1472,-9.0,2.0,10.0,-1.0,-15.0,-9.0,-6.0,-18.0,1651070640826272.0,3
1473,-14.0,-49.0,9.0,22.0,-5.0,-5.0,-2.0,-6.0,1651070640826272.0,3
1474,19.0,30.0,-7.0,-22.0,-2.0,-2.0,-1.0,13.0,1651070640833080.0,3
1475,5.0,31.0,-9.0,-6.0,-9.0,-2.0,2.0,3.0,1651070640833080.0,3
1476,-3.0,-19.0,-1.0,-6.0,-11.0,-6.0,-5.0,-4.0,1651070640849301.0,3
1477,-13.0,7.0,13.0,2.0,11.0,10.0,2.0,-8.0,1651070640849301.0,3
1478,11.0,26.0,37.0,18.0,4.0,4.0,3.0,10.0,1651070640850232.0,3
1479,11.0,0.0,-44.0,-6.0,2.0,0.0,2.0,9.0,1651070640850232.0,3
1480,-8.0,-63.0,-33.0,-13.0,0.0,-2.0,-2.0,-10.0,1651070640871326.0,3
1481,2.0,28.0,-10.0,1.0,-8.0,-3.0,-2.0,-1.0,1651070640871326.0,3
1482,-22.0,-46.0,49.0,10.0,5.0,-1.0,1.0,5.0,1651070640873280.0,3
1483,-4.0,38.0,-16.0,1.0,5.0,1.0,-5.0,-23.0,1651070640873280.0,3
1484,4.0,-34.0,-26.0,-3.0,-4.0,0.0,0.0,-16.0,1651070640886269.0,3
1485,22.0,4.0,21.0,8.0,0.0,-3.0,5.0,29.0,1651070640886269.0,3
1486,-5.0,2.0,-36.0,-2.0,14.0,4.0,3.0,15.0,1651070640892203.0,3
1487,-3.0,-17.0,30.0,-16.0,-10.0,-5.0,0.0,0.0,1651070640892203.0,3
1488,6.0,67.0,71.0,15.0,-1.0,5.0,2.0,-2.0,1651070640909409.0,3
1489,-1.0,-24.0,-68.0,-12.0,-4.0,-5.0,-5.0,-14.0,1651070640909409.0,3
1490,-22.0,4.0,-13.0,-16.0,0.0,0.0,-1.0,1.0,1651070640910369.0,3
1491,3.0,-27.0,20.0,12.0,2.0,0.0,2.0,5.0,1651070640910369.0,3
1492,2.0,19.0,6.0,-1.0,5.0,4.0,0.0,-1.0,1651070640931643.0,3
1493,-18.0,-17.0,43.0,20.0,0.0,-2.0,-2.0,-2.0,1651070640931643.0,3
1494,19.0,22.0,18.0,4.0,2.0,1.0,1.0,6.0,1651070640932612.0,3
1495,-11.0,-16.0,-43.0,-10.0,-7.0,-3.0,-2.0,-9.0,1651070640932612.0,3
1496,10.0,42.0,-14.0,-10.0,-11.0,-4.0,0.0,11.0,1651070640945377.0,3
1497,-3.0,5.0,24.0,6.0,5.0,4.0,3.0,-1.0,1651070640945377.0,3
1498,-13.0,-8.0,-30.0,-17.0,-10.0,-9.0,-9.0,-21.0,1651070640953755.0,3
1499,1.0,-13.0,29.0,22.0,-7.0,2.0,2.0,8.0,1651070640953755.0,3
1500,21.0,21.0,-43.0,2.0,14.0,2.0,4.0,20.0,1651070640968734.0,3
1501,-7.0,50.0,18.0,3.0,2.0,-2.0,-3.0,-7.0,1651070640968734.0,3
1502,-6.0,-22.0,-4.0,-8.0,-5.0,-2.0,-6.0,-8.0,1651070640970663.0,3
1503,1.0,23.0,-4.0,-6.0,6.0,0.0,-3.0,1.0,1651070640970663.0,3
1504,-4.0,-47.0,1.0,-1.0,-4.0,0.0,0.0,0.0,1651070640990978.0,3
1505,4.0,33.0,-9.0,-9.0,-10.0,-1.0,-2.0,-7.0,1651070640990978.0,3
1506,3.0,2.0,-5.0,7.0,12.0,5.0,-1.0,-4.0,1651070640992976.0,3
1507,-27.0,-1.0,13.0,0.0,-13.0,-4.0,-2.0,-1.0,1651070640992976.0,3
1508,-6.0,-3.0,13.0,8.0,0.0,-3.0,-3.0,-18.0,1651070641005370.0,3
1509,21.0,-28.0,11.0,13.0,10.0,2.0,10.0,38.0,1651070641005370.0,3
1510,-12.0,-36.0,-4.0,-6.0,-17.0,-1.0,-2.0,-9.0,1651070641012420.0,3
1511,-9.0,-7.0,-16.0,-14.0,0.0,-6.0,-6.0,-11.0,1651070641012420.0,3
1512,16.0,-6.0,-27.0,-10.0,-13.0,-1.0,-2.0,4.0,1651070641028552.0,3
1513,-34.0,-67.0,19.0,2.0,11.0,10.0,3.0,-15.0,1651070641028552.0,3
1514,29.0,66.0,20.0,35.0,5.0,2.0,5.0,-4.0,1651070641030483.0,3
1515,14.0,3.0,-54.0,-16.0,4.0,-4.0,3.0,26.0,1651070641030483.0,3
1516,-25.0,-1.0,-7.0,-16.0,-8.0,-10.0,-6.0,-11.0,1651070641051731.0,3
1517,-2.0,-8.0,6.0,-2.0,0.0,-1.0,-3.0,-4.0,1651070641051731.0,3
1518,9.0,0.0,11.0,0.0,1.0,4.0,5.0,5.0,1651070641052661.0,3
1519,-5.0,-13.0,29.0,10.0,0.0,1.0,-1.0,-10.0,1651070641052661.0,3
1520,13.0,18.0,5.0,2.0,8.0,5.0,2.0,5.0,1651070641064695.0,3
1521,3.0,10.0,-12.0,-9.0,-6.0,-3.0,-2.0,-2.0,1651070641064695.0,3
1522,-4.0,-9.0,-7.0,-14.0,-4.0,-5.0,-7.0,4.0,1651070641074636.0,3
1523,0.0,30.0,14.0,11.0,2.0,1.0,-2.0,-21.0,1651070641074636.0,3
1524,0.0,-26.0,-6.0,-1.0,-12.0,-1.0,2.0,18.0,1651070641088631.0,3
1525,0.0,20.0,-3.0,-2.0,2.0,-8.0,-5.0,-5.0,1651070641088631.0,3
1526,4.0,-12.0,-14.0,-10.0,21.0,6.0,7.0,9.0,1651070641090559.0,3
1527,14.0,21.0,3.0,4.0,-4.0,-2.0,1.0,-9.0,1651070641090559.0,3
1528,-15.0,-28.0,4.0,-13.0,-5.0,-4.0,-5.0,4.0,1651070641118572.0,3
1529,-12.0,-24.0,-13.0,-6.0,-6.0,0.0,-3.0,-14.0,1651070641118572.0,3
1530,-3.0,33.0,11.0,15.0,-4.0,-3.0,-5.0,2.0,1651070641120513.0,3
1531,4.0,-7.0,18.0,1.0,-10.0,-1.0,4.0,14.0,1651070641120513.0,3
1532,-3.0,-15.0,-2.0,-7.0,26.0,8.0,-4.0,-19.0,1651070641125506.0,3
1533,5.0,30.0,-20.0,-1.0,-4.0,2.0,1.0,8.0,1651070641125506.0,3
1534,10.0,-10.0,-3.0,3.0,2.0,-5.0,1.0,6.0,1651070641134463.0,3
1535,-1.0,-1.0,18.0,8.0,-5.0,-2.0,-3.0,-2.0,1651070641134463.0,3
1536,-21.0,-6.0,-17.0,-1.0,-10.0,-4.0,-3.0,-25.0,1651070641149407.0,3
1537,23.0,1.0,14.0,-7.0,-3.0,-3.0,0.0,12.0,1651070641149407.0,3
1538,-4.0,-28.0,-4.0,-6.0,-4.0,0.0,1.0,-1.0,1651070641150367.0,3
1539,11.0,-11.0,-8.0,-1.0,7.0,3.0,1.0,1.0,1651070641150367.0,3
1540,-28.0,19.0,12.0,11.0,2.0,0.0,-4.0,-9.0,1651070641171663.0,3
1541,26.0,13.0,-7.0,-1.0,3.0,3.0,3.0,4.0,1651070641171663.0,3
1542,4.0,-5.0,-10.0,-5.0,11.0,10.0,9.0,13.0,1651070641172677.0,3
1543,9.0,28.0,6.0,10.0,8.0,6.0,5.0,6.0,1651070641172677.0,3
1544,4.0,16.0,-25.0,-6.0,-2.0,-3.0,1.0,7.0,1651070641184698.0,3
1545,-20.0,-19.0,-1.0,-17.0,-4.0,-5.0,-3.0,-1.0,1651070641184698.0,3
1546,-7.0,-14.0,5.0,0.0,-7.0,-4.0,-5.0,-24.0,1651070641200506.0,3
1547,9.0,24.0,6.0,-3.0,-12.0,-3.0,-1.0,15.0,1651070641200506.0,3
1548,14.0,-20.0,17.0,18.0,11.0,1.0,2.0,0.0,1651070641208706.0,3
1549,-14.0,34.0,7.0,4.0,3.0,1.0,-2.0,-4.0,1651070641208706.0,3
1550,20.0,-52.0,-11.0,-8.0,-9.0,-4.0,0.0,5.0,1651070641210674.0,3
1551,-21.0,-11.0,-3.0,-5.0,-1.0,-3.0,-4.0,-10.0,1651070641210674.0,3
1552,-1.0,14.0,15.0,6.0,-13.0,-5.0,-5.0,-7.0,1651070641231661.0,3
1553,3.0,-19.0,3.0,-8.0,-7.0,-3.0,4.0,20.0,1651070641231661.0,3
1554,6.0,29.0,-18.0,2.0,4.0,0.0,-1.0,-2.0,1651070641232659.0,3
1555,-9.0,-21.0,5.0,18.0,0.0,-1.0,-1.0,-8.0,1651070641232659.0,3
1556,-6.0,-22.0,-9.0,-32.0,0.0,1.0,0.0,0.0,1651070641244778.0,3
1557,12.0,15.0,-7.0,9.0,-5.0,0.0,1.0,-9.0,1651070641244778.0,3
1558,-3.0,37.0,34.0,3.0,1.0,5.0,4.0,10.0,1651070641253787.0,3
1559,7.0,-43.0,-28.0,1.0,4.0,-1.0,2.0,4.0,1651070641253787.0,3
1560,11.0,31.0,12.0,5.0,0.0,-2.0,1.0,10.0,1651070641268816.0,3
1561,-13.0,-36.0,-21.0,-2.0,7.0,3.0,0.0,-7.0,1651070641268816.0,3
1562,-27.0,15.0,-10.0,-11.0,-10.0,-7.0,-8.0,-14.0,1651070641270772.0,3
1563,-3.0,14.0,30.0,-7.0,-1.0,-3.0,-5.0,-5.0,1651070641270772.0,3
1564,6.0,-3.0,-6.0,13.0,2.0,4.0,6.0,7.0,1651070641291653.0,3
1565,6.0,1.0,-9.0,2.0,1.0,-6.0,-5.0,-5.0,1651070641291653.0,3
1566,-5.0,-20.0,15.0,12.0,3.0,1.0,2.0,0.0,1651070641292672.0,3
1567,-9.0,12.0,12.0,8.0,5.0,5.0,0.0,2.0,1651070641292672.0,3
1568,12.0,3.0,-39.0,-30.0,-11.0,-6.0,-2.0,4.0,1651070641305335.0,3
1569,-9.0,-9.0,14.0,11.0,3.0,1.0,-4.0,-9.0,1651070641305335.0,3
1570,-10.0,-12.0,-25.0,-25.0,-3.0,-1.0,-2.0,6.0,1651070641314314.0,3
1571,-6.0,-16.0,0.0,2.0,2.0,-1.0,-2.0,-6.0,1651070641314314.0,3
1572,9.0,34.0,19.0,8.0,-8.0,-5.0,-1.0,-9.0,1651070641329419.0,3
1573,-1.0,-13.0,18.0,9.0,5.0,7.0,2.0,9.0,1651070641329419.0,3
1574,-10.0,-54.0,-32.0,-1.0,-2.0,-3.0,0.0,-2.0,1651070641330398.0,3
1575,4.0,60.0,-12.0,-19.0,-11.0,-2.0,1.0,-2.0,1651070641330398.0,3
1576,-4.0,-49.0,8.0,16.0,7.0,2.0,-2.0,-17.0,1651070641351447.0,3
1577,12.0,18.0,8.0,11.0,17.0,3.0,0.0,2.0,1651070641351447.0,3
1578,4.0,35.0,14.0,-8.0,-7.0,-1.0,5.0,17.0,1651070641353454.0,3
1579,4.0,-22.0,-12.0,-13.0,8.0,0.0,-1.0,-2.0,1651070641353454.0,3
1580,15.0,44.0,14.0,5.0,-9.0,-1.0,7.0,24.0,1651070641365414.0,3
1581,-30.0,-13.0,-10.0,-18.0,-8.0,-3.0,-9.0,-25.0,1651070641365414.0,3
1582,17.0,4.0,5.0,21.0,-1.0,2.0,1.0,1.0,1651070641374388.0,3
1583,-5.0,-32.0,4.0,-1.0,-1.0,0.0,0.0,4.0,1651070641374388.0,3
1584,-10.0,12.0,9.0,-3.0,7.0,3.0,-1.0,-4.0,1651070641396453.0,3
1585,-1.0,-6.0,-11.0,2.0,-6.0,-2.0,-1.0,-2.0,1651070641396453.0,3
1586,15.0,18.0,16.0,5.0,5.0,-2.0,0.0,8.0,1651070641398386.0,3
1587,-3.0,-8.0,-27.0,-1.0,-8.0,1.0,2.0,-8.0,1651070641398386.0,3
1588,16.0,-11.0,32.0,18.0,20.0,11.0,5.0,12.0,1651070641411503.0,3
1589,-27.0,-26.0,-59.0,-19.0,-11.0,-9.0,-2.0,-2.0,1651070641411503.0,3
1590,-8.0,-3.0,-10.0,-29.0,1.0,-3.0,-5.0,-12.0,1651070641412530.0,3
1591,-4.0,10.0,18.0,21.0,-1.0,-5.0,-7.0,-8.0,1651070641412530.0,3
1592,-5.0,17.0,17.0,0.0,-10.0,-1.0,1.0,0.0,1651070641425468.0,3
1593,7.0,-17.0,-30.0,6.0,-2.0,-3.0,-1.0,-1.0,1651070641425468.0,3
1594,-1.0,3.0,14.0,3.0,-3.0,2.0,0.0,-2.0,1651070641434609.0,3
1595,9.0,5.0,2.0,-1.0,8.0,4.0,1.0,4.0,1651070641434609.0,3
1596,-5.0,12.0,-13.0,-3.0,1.0,-2.0,-1.0,2.0,1651070641449418.0,3
1597,-25.0,-21.0,21.0,-6.0,-8.0,-7.0,-3.0,-11.0,1651070641449418.0,3
1598,33.0,-3.0,-21.0,-8.0,-2.0,1.0,3.0,5.0,1651070641450368.0,3
1599,-1.0,-5.0,-6.0,7.0,0.0,0.0,2.0,6.0,1651070641450368.0,3
1600,4.0,14.0,3.0,10.0,1.0,-1.0,-1.0,-1.0,1651070641471488.0,3
1601,-5.0,-9.0,21.0,-7.0,-3.0,-1.0,-1.0,-3.0,1651070641471488.0,3
1602,-9.0,-21.0,-8.0,-10.0,-6.0,-3.0,-7.0,-7.0,1651070641473416.0,3
1603,-13.0,-6.0,11.0,-10.0,-1.0,-1.0,-2.0,-11.0,1651070641473416.0,3
1604,3.0,-16.0,-22.0,-4.0,1.0,1.0,1.0,14.0,1651070641494388.0,3
1605,10.0,67.0,9.0,7.0,3.0,3.0,1.0,1.0,1651070641494388.0,3
1606,3.0,1.0,-2.0,6.0,-4.0,-3.0,0.0,-10.0,1651070641495521.0,3
1607,9.0,-17.0,9.0,-4.0,0.0,-2.0,1.0,15.0,1651070641495521.0,3
1608,-9.0,2.0,-15.0,-14.0,-4.0,-1.0,-4.0,-6.0,1651070641509399.0,3
1609,9.0,3.0,14.0,-2.0,4.0,1.0,1.0,5.0,1651070641509399.0,3
1610,-14.0,0.0,-2.0,13.0,-3.0,-1.0,-3.0,-4.0,1651070641510399.0,3
1611,-1.0,0.0,-12.0,-15.0,-1.0,1.0,-5.0,-7.0,1651070641510399.0,3
1612,0.0,-4.0,3.0,10.0,-2.0,0.0,1.0,1.0,1651070641531444.0,3
1613,5.0,-4.0,-5.0,-7.0,-4.0,-1.0,0.0,1.0,1651070641531444.0,3
1614,-20.0,-8.0,-12.0,-12.0,-7.0,-7.0,-4.0,-5.0,1651070641533398.0,3
1615,-2.0,-11.0,-1.0,-11.0,-7.0,-2.0,0.0,-5.0,1651070641533398.0,3
1616,-4.0,7.0,13.0,14.0,24.0,3.0,0.0,-5.0,1651070641554428.0,3
1617,36.0,10.0,5.0,5.0,4.0,5.0,6.0,5.0,1651070641554428.0,3
1618,-2.0,-5.0,-8.0,4.0,6.0,0.0,0.0,10.0,1651070641555406.0,3
1619,-13.0,11.0,4.0,7.0,-7.0,-3.0,0.0,4.0,1651070641555406.0,3
1620,-3.0,-4.0,-7.0,-13.0,-13.0,-4.0,-5.0,-1.0,1651070641569402.0,3
1621,-13.0,-13.0,1.0,3.0,-2.0,-5.0,-4.0,-13.0,1651070641569402.0,3
1622,-6.0,-39.0,10.0,12.0,-2.0,10.0,2.0,-13.0,1651070641570362.0,3
1623,11.0,17.0,-8.0,-18.0,4.0,-7.0,1.0,21.0,1651070641570362.0,3
1624,7.0,8.0,-2.0,16.0,1.0,-1.0,3.0,2.0,1651070641591413.0,3
1625,1.0,-5.0,-6.0,-4.0,-1.0,0.0,0.0,6.0,1651070641591413.0,3
1626,-12.0,-9.0,6.0,-11.0,-3.0,-2.0,-3.0,-4.0,1651070641593342.0,3
1627,4.0,7.0,4.0,9.0,-3.0,1.0,-2.0,-6.0,1651070641593342.0,3
1628,-2.0,-20.0,-2.0,7.0,-3.0,-1.0,-1.0,-2.0,1651070641613723.0,3
1629,1.0,8.0,-5.0,-13.0,-3.0,0.0,-1.0,5.0,1651070641613723.0,3
1630,-4.0,14.0,1.0,2.0,1.0,-2.0,-2.0,-4.0,1651070641615721.0,3
1631,-4.0,-4.0,0.0,-7.0,-2.0,1.0,-2.0,-5.0,1651070641615721.0,3
1632,-4.0,1.0,-2.0,-15.0,-7.0,-8.0,-1.0,4.0,1651070641629426.0,3
1633,21.0,12.0,9.0,24.0,3.0,7.0,5.0,6.0,1651070641629426.0,3
1634,-4.0,6.0,-3.0,-4.0,13.0,0.0,-1.0,-1.0,1651070641630435.0,3
1635,-14.0,12.0,-1.0,-3.0,0.0,0.0,-2.0,-6.0,1651070641630435.0,3
1636,17.0,-23.0,8.0,14.0,-4.0,-3.0,-4.0,4.0,1651070641651682.0,3
1637,-4.0,4.0,-1.0,-4.0,-4.0,-2.0,2.0,3.0,1651070641651682.0,3
1638,-1.0,4.0,-5.0,-5.0,-8.0,-2.0,-3.0,-9.0,1651070641652692.0,3
1639,11.0,-2.0,-4.0,-4.0,-3.0,-1.0,2.0,1.0,1651070641652692.0,3
1640,5.0,1.0,-8.0,-15.0,-5.0,1.0,2.0,-4.0,1651070641674773.0,3
1641,-18.0,-2.0,2.0,-4.0,2.0,-2.0,-2.0,-4.0,1651070641674773.0,3
1642,2.0,1.0,8.0,12.0,6.0,1.0,0.0,5.0,1651070641675773.0,3
1643,-8.0,-14.0,0.0,12.0,7.0,5.0,-1.0,-1.0,1651070641675773.0,3
1644,-1.0,16.0,-7.0,-4.0,-2.0,0.0,-4.0,-15.0,1651070641687807.0,3
1645,30.0,9.0,-1.0,-4.0,0.0,0.0,9.0,31.0,1651070641687807.0,3
1646,-1.0,13.0,2.0,6.0,-2.0,-4.0,1.0,0.0,1651070641694789.0,3
1647,1.0,2.0,3.0,-2.0,0.0,0.0,-3.0,0.0,1651070641694789.0,3
1648,-14.0,-2.0,2.0,13.0,2.0,2.0,0.0,-7.0,1651070641711682.0,3
1649,-20.0,-13.0,-8.0,4.0,-2.0,-1.0,-5.0,-12.0,1651070641711682.0,3
1650,3.0,7.0,3.0,-26.0,-3.0,2.0,2.0,2.0,1651070641712682.0,3
1651,8.0,-1.0,-1.0,11.0,1.0,-2.0,0.0,-3.0,1651070641712682.0,3
1652,-23.0,-15.0,-1.0,-12.0,-3.0,0.0,-4.0,-2.0,1651070641733950.0,3
1653,16.0,7.0,-1.0,5.0,-5.0,-5.0,-3.0,-12.0,1651070641733950.0,3
1654,6.0,0.0,9.0,10.0,-1.0,1.0,2.0,17.0,1651070641735974.0,3
1655,1.0,0.0,4.0,4.0,10.0,5.0,2.0,-2.0,1651070641735974.0,3
1656,7.0,-5.0,-8.0,-13.0,-2.0,-2.0,0.0,3.0,1651070641747673.0,3
1657,-25.0,-11.0,1.0,-1.0,-4.0,-3.0,-5.0,-3.0,1651070641747673.0,3
1658,3.0,2.0,-2.0,10.0,-2.0,-1.0,-1.0,-5.0,1651070641756597.0,3
1659,2.0,2.0,-1.0,-2.0,-4.0,-1.0,-1.0,1.0,1651070641756597.0,3
1660,3.0,2.0,-8.0,-9.0,-2.0,0.0,0.0,4.0,1651070641771772.0,3
1661,-4.0,-5.0,2.0,-5.0,1.0,-1.0,-5.0,-5.0,1651070641771772.0,3
1662,2.0,-3.0,-7.0,-11.0,-3.0,-2.0,-3.0,-4.0,1651070641772702.0,3
1663,2.0,2.0,4.0,22.0,0.0,1.0,1.0,2.0,1651070641772702.0,3
1664,2.0,0.0,-1.0,-15.0,3.0,2.0,4.0,2.0,1651070641793595.0,3
1665,-1.0,3.0,2.0,-2.0,-1.0,-1.0,2.0,-1.0,1651070641793595.0,3
1666,4.0,3.0,2.0,-10.0,-2.0,1.0,2.0,1.0,1651070641795590.0,3
1667,-11.0,-13.0,-4.0,18.0,-4.0,-3.0,-1.0,-3.0,1651070641795590.0,3
1668,2.0,5.0,1.0,-8.0,3.0,-1.0,0.0,-2.0,1651070641808621.0,3
1669,-3.0,-3.0,-8.0,3.0,-2.0,-1.0,0.0,0.0,1651070641808621.0,3
1670,0.0,-3.0,0.0,11.0,3.0,0.0,-1.0,-1.0,1651070641814605.0,3
1671,3.0,-1.0,2.0,-9.0,0.0,-1.0,-1.0,0.0,1651070641814605.0,3
1672,-1.0,-9.0,-4.0,17.0,-2.0,1.0,0.0,2.0,1651070641831361.0,3
1673,-14.0,-3.0,5.0,-21.0,-2.0,-2.0,-3.0,-2.0,1651070641831361.0,3
1674,9.0,-1.0,1.0,9.0,-1.0,1.0,1.0,-2.0,1651070641833356.0,3
1675,2.0,-2.0,-6.0,-1.0,2.0,-1.0,1.0,0.0,1651070641833356.0,3
1676,-1.0,3.0,4.0,8.0,2.0,-2.0,-1.0,2.0,1651070641853647.0,3
1677,-2.0,-4.0,8.0,-10.0,2.0,2.0,0.0,0.0,1651070641853647.0,3
1678,-7.0,-3.0,-10.0,-1.0,-7.0,-5.0,-3.0,-3.0,1651070641855614.0,3
1679,-1.0,1.0,-5.0,-18.0,-4.0,-3.0,0.0,0.0,1651070641855614.0,3
1680,3.0,5.0,11.0,16.0,1.0,1.0,3.0,0.0,1651070641876654.0,3
1681,2.0,5.0,6.0,6.0,5.0,2.0,-1.0,-3.0,1651070641876654.0,3
1682,-6.0,-4.0,-5.0,4.0,2.0,0.0,-2.0,-1.0,1651070641877674.0,3
1683,9.0,5.0,5.0,-2.0,1.0,0.0,-2.0,-1.0,1651070641877674.0,3
1684,-3.0,-9.0,-14.0,-6.0,-4.0,-1.0,-1.0,-1.0,1651070641891685.0,3
1685,2.0,5.0,4.0,8.0,-2.0,-3.0,0.0,0.0,1651070641891685.0,3
1686,4.0,5.0,7.0,-23.0,4.0,5.0,3.0,0.0,1651070641892684.0,3
1687,3.0,1.0,-14.0,-23.0,-10.0,-3.0,-2.0,0.0,1651070641892684.0,3
1688,-16.0,-9.0,4.0,25.0,-7.0,-5.0,-4.0,-2.0,1651070641914339.0,3
1689,1.0,0.0,11.0,13.0,8.0,2.0,-1.0,0.0,1651070641914339.0,3
1690,3.0,0.0,-5.0,14.0,-6.0,-4.0,-1.0,0.0,1651070641915310.0,3
1691,-7.0,-2.0,-12.0,-29.0,3.0,-2.0,-1.0,-3.0,1651070641915310.0,3
1692,2.0,-4.0,6.0,-4.0,1.0,2.0,0.0,1.0,1651070641927281.0,3
1693,3.0,0.0,-17.0,22.0,-5.0,-1.0,0.0,0.0,1651070641927281.0,3
1694,-3.0,-4.0,9.0,-7.0,-3.0,0.0,2.0,0.0,1651070641936284.0,3
1695,2.0,9.0,4.0,10.0,0.0,0.0,-1.0,-2.0,1651070641936284.0,3
1696,0.0,-3.0,-11.0,-24.0,-2.0,0.0,-1.0,-1.0,1651070641952338.0,3
1697,2.0,0.0,-3.0,-4.0,2.0,0.0,-2.0,-2.0,1651070641952338.0,3
1698,0.0,4.0,17.0,30.0,16.0,5.0,1.0,1.0,1651070641953343.0,3
1699,0.0,1.0,-1.0,9.0,4.0,0.0,2.0,1.0,1651070641953343.0,3
1700,3.0,0.0,2.0,18.0,21.0,5.0,1.0,0.0,1651070641974337.0,3
1701,0.0,-1.0,-19.0,-48.0,-16.0,-2.0,-1.0,0.0,1651070641974337.0,3
1702,-7.0,0.0,-1.0,-8.0,-7.0,-2.0,-3.0,-2.0,1651070641975524.0,3
1703,0.0,-7.0,-8.0,10.0,-6.0,-1.0,-3.0,-2.0,1651070641975524.0,3
1704,3.0,12.0,5.0,-14.0,1.0,0.0,2.0,2.0,1651070641987683.0,3
1705,1.0,-6.0,-2.0,5.0,-14.0,-5.0,-1.0,-2.0,1651070641987683.0,3
1706,-2.0,5.0,9.0,0.0,0.0,-1.0,-1.0,-2.0,1651070641996372.0,3
1707,-2.0,5.0,16.0,14.0,4.0,4.0,1.0,1.0,1651070641996372.0,3
1708,1.0,-5.0,6.0,17.0,3.0,0.0,-1.0,0.0,1651070642011416.0,3
1709,8.0,2.0,-3.0,-15.0,12.0,7.0,3.0,2.0,1651070642011416.0,3
1710,-1.0,-2.0,-2.0,-15.0,-2.0,-1.0,-2.0,-2.0,1651070642013371.0,3
1711,-4.0,-9.0,-4.0,6.0,-8.0,-5.0,-2.0,-2.0,1651070642013371.0,3
1712,-1.0,1.0,-13.0,-18.0,-1.0,-3.0,-3.0,-1.0,1651070642034362.0,3
1713,6.0,6.0,19.0,3.0,-7.0,-6.0,-3.0,1.0,1651070642034362.0,3
1714,-10.0,-6.0,-8.0,13.0,-2.0,-2.0,-1.0,-1.0,1651070642035294.0,3
1715,1.0,-1.0,0.0,-34.0,0.0,2.0,-1.0,-2.0,1651070642035294.0,3
1716,3.0,5.0,6.0,21.0,-5.0,0.0,1.0,-2.0,1651070642047325.0,3
1717,-4.0,-6.0,-11.0,1.0,0.0,1.0,0.0,-1.0,1651070642047325.0,3
1718,1.0,1.0,-1.0,-9.0,-1.0,-2.0,-2.0,0.0,1651070642056370.0,3
1719,-2.0,-1.0,5.0,16.0,-3.0,-4.0,0.0,-1.0,1651070642056370.0,3
1720,-2.0,-5.0,-6.0,-10.0,-1.0,1.0,0.0,0.0,1651070642071381.0,3
1721,-4.0,4.0,-6.0,-11.0,7.0,2.0,-1.0,-2.0,1651070642071381.0,3
1722,-4.0,-9.0,-5.0,7.0,2.0,-2.0,-1.0,-1.0,1651070642073332.0,3
1723,-1.0,0.0,1.0,-13.0,-7.0,-2.0,-2.0,0.0,1651070642073332.0,3
1724,1.0,4.0,4.0,7.0,-16.0,-7.0,-3.0,-3.0,1651070642094379.0,3
1725,-3.0,-7.0,-15.0,-15.0,-11.0,-1.0,2.0,0.0,1651070642094379.0,3
1726,2.0,1.0,-21.0,-8.0,12.0,1.0,2.0,0.0,1651070642095376.0,3
1727,1.0,2.0,10.0,22.0,15.0,3.0,1.0,2.0,1651070642095376.0,3
1728,0.0,7.0,3.0,3.0,-3.0,0.0,-1.0,-2.0,1651070642107405.0,3
1729,-6.0,-6.0,12.0,9.0,4.0,0.0,-2.0,-1.0,1651070642107405.0,3
1730,1.0,1.0,-10.0,-18.0,-12.0,-2.0,0.0,0.0,1651070642116329.0,3
1731,0.0,4.0,4.0,7.0,-3.0,1.0,0.0,2.0,1651070642116329.0,3
1732,-3.0,-8.0,-4.0,-24.0,0.0,1.0,1.0,-1.0,1651070642131472.0,3
1733,-2.0,-2.0,3.0,7.0,-3.0,-5.0,-2.0,-1.0,1651070642131472.0,3
1734,1.0,3.0,7.0,4.0,-1.0,-1.0,-1.0,0.0,1651070642133401.0,3
1735,0.0,1.0,1.0,3.0,1.0,1.0,0.0,1.0,1651070642133401.0,3
1736,-2.0,-3.0,-6.0,-10.0,-5.0,-1.0,-3.0,-1.0,1651070642153585.0,3
1737,-3.0,0.0,1.0,17.0,8.0,0.0,-3.0,-3.0,1651070642153585.0,3
1738,3.0,1.0,6.0,16.0,0.0,5.0,1.0,2.0,1651070642155562.0,3
1739,-1.0,0.0,-4.0,-34.0,-6.0,-2.0,0.0,-2.0,1651070642155562.0,3
1740,0.0,1.0,1.0,-9.0,-9.0,-1.0,-2.0,-1.0,1651070642167598.0,3
1741,0.0,-3.0,-12.0,-12.0,-5.0,-4.0,1.0,0.0,1651070642167598.0,3
1742,1.0,4.0,13.0,20.0,4.0,1.0,0.0,0.0,1651070642183629.0,3
1743,-1.0,-3.0,-15.0,1.0,16.0,3.0,0.0,0.0,1651070642183629.0,3
1744,0.0,2.0,2.0,8.0,-2.0,-2.0,0.0,0.0,1651070642191682.0,3
1745,0.0,0.0,5.0,-12.0,2.0,-1.0,-2.0,-2.0,1651070642191682.0,3
1746,-1.0,-1.0,-9.0,-23.0,-11.0,-1.0,1.0,0.0,1651070642192682.0,3
1747,-3.0,-7.0,-4.0,10.0,-11.0,-6.0,-2.0,-1.0,1651070642192682.0,3
1748,0.0,0.0,-3.0,2.0,6.0,0.0,0.0,0.0,1651070642214387.0,3
1749,2.0,8.0,19.0,10.0,-5.0,2.0,-1.0,0.0,1651070642214387.0,3
1750,-3.0,-12.0,-16.0,1.0,-5.0,-8.0,-4.0,-3.0,1651070642215358.0,3
1751,-2.0,-3.0,1.0,-4.0,4.0,2.0,0.0,-1.0,1651070642215358.0,3
1752,0.0,2.0,8.0,6.0,9.0,0.0,1.0,0.0,1651070642228604.0,3
1753,-1.0,-2.0,-3.0,-3.0,0.0,2.0,2.0,0.0,1651070642228604.0,3
1754,-2.0,5.0,-16.0,1.0,4.0,2.0,-1.0,0.0,1651070642236601.0,3
1755,-1.0,-8.0,3.0,0.0,-3.0,-4.0,-1.0,-2.0,1651070642236601.0,3
1756,-2.0,-5.0,8.0,-8.0,-7.0,-1.0,-1.0,-2.0,1651070642251749.0,3
1757,-1.0,-3.0,-16.0,-2.0,8.0,4.0,-1.0,-2.0,1651070642251749.0,3
1758,0.0,-1.0,9.0,-6.0,1.0,2.0,0.0,0.0,1651070642252679.0,3
1759,-2.0,1.0,1.0,12.0,-1.0,3.0,-1.0,2.0,1651070642252679.0,3
1760,1.0,4.0,-2.0,-1.0,0.0,0.0,0.0,1.0,1651070642273801.0,3
1761,0.0,-1.0,-2.0,2.0,0.0,-3.0,-1.0,-2.0,1651070642273801.0,3
1762,0.0,1.0,9.0,10.0,0.0,-2.0,-2.0,-1.0,1651070642275799.0,3
1763,1.0,8.0,1.0,-8.0,-14.0,-4.0,-1.0,-2.0,1651070642275799.0,3
1764,0.0,-15.0,-8.0,-10.0,9.0,6.0,1.0,-1.0,1651070642287833.0,3
1765,0.0,0.0,3.0,14.0,-3.0,0.0,-1.0,0.0,1651070642287833.0,3
1766,0.0,-3.0,2.0,11.0,7.0,2.0,2.0,-1.0,1651070642296546.0,3
1767,-1.0,0.0,10.0,10.0,1.0,-2.0,-1.0,-2.0,1651070642296546.0,3
1768,-1.0,1.0,-14.0,-23.0,-11.0,-5.0,-1.0,0.0,1651070642311502.0,3
1769,-1.0,-3.0,-7.0,-2.0,0.0,-1.0,-2.0,-3.0,1651070642311502.0,3
1770,-1.0,4.0,5.0,-8.0,-4.0,-2.0,0.0,-1.0,1651070642313499.0,3
1771,0.0,-3.0,-2.0,-2.0,2.0,1.0,-1.0,1.0,1651070642313499.0,3
1772,-1.0,4.0,6.0,14.0,2.0,0.0,-1.0,-2.0,1651070642332754.0,3
1773,1.0,-1.0,-3.0,-4.0,-2.0,-1.0,1.0,0.0,1651070642332754.0,3
1774,-2.0,-2.0,1.0,-2.0,-4.0,-3.0,0.0,1.0,1651070642341960.0,3
1775,0.0,-2.0,-4.0,-5.0,0.0,-1.0,0.0,-2.0,1651070642341960.0,3
1776,1.0,5.0,6.0,11.0,8.0,5.0,0.0,2.0,1651070642347989.0,3
1777,-3.0,-10.0,-22.0,-14.0,-6.0,-1.0,0.0,-1.0,1651070642347989.0,3
1778,0.0,1.0,10.0,12.0,19.0,7.0,0.0,0.0,1651070642356372.0,3
1779,0.0,-2.0,-17.0,-10.0,-10.0,-5.0,-2.0,0.0,1651070642356372.0,3
1780,-2.0,3.0,6.0,-7.0,-5.0,-4.0,-3.0,-1.0,1651070642371323.0,3
1781,0.0,1.0,7.0,17.0,2.0,0.0,-1.0,-1.0,1651070642371323.0,3
1782,0.0,2.0,3.0,-5.0,-5.0,-1.0,-1.0,-1.0,1651070642373344.0,3
1783,-2.0,-1.0,-7.0,-6.0,-1.0,1.0,-1.0,0.0,1651070642373344.0,3
1784,1.0,1.0,-8.0,-19.0,-4.0,-2.0,1.0,1.0,1651070642393774.0,3
1785,2.0,6.0,5.0,-12.0,-5.0,0.0,1.0,1.0,1651070642393774.0,3
1786,-4.0,-11.0,-4.0,22.0,-4.0,-9.0,-4.0,-3.0,1651070642395798.0,3
1787,0.0,-4.0,8.0,4.0,4.0,6.0,1.0,-1.0,1651070642395798.0,3
1788,0.0,0.0,4.0,4.0,9.0,2.0,-1.0,-1.0,1651070642407450.0,3
1789,0.0,3.0,-1.0,-2.0,1.0,0.0,0.0,1.0,1651070642407450.0,3
1790,1.0,3.0,3.0,-15.0,-1.0,0.0,1.0,-1.0,1651070642416359.0,3
1791,1.0,-1.0,-1.0,1.0,1.0,-2.0,3.0,0.0,1651070642416359.0,3
1792,-5.0,-4.0,-9.0,0.0,-5.0,-3.0,-1.0,-2.0,1651070642431417.0,3
1793,0.0,0.0,6.0,2.0,3.0,2.0,-1.0,1.0,1651070642431417.0,3
1794,0.0,-1.0,4.0,6.0,-4.0,-2.0,-1.0,-1.0,1651070642433375.0,3
1795,0.0,3.0,-1.0,-10.0,1.0,-1.0,-2.0,1.0,1651070642433375.0,3
1796,1.0,-1.0,-4.0,0.0,0.0,-1.0,-1.0,-3.0,1651070642454331.0,3
1797,0.0,-1.0,2.0,5.0,0.0,-3.0,-2.0,-1.0,1651070642454331.0,3
1798,0.0,0.0,-6.0,0.0,-4.0,-1.0,-2.0,1.0,1651070642455864.0,3
1799,-1.0,0.0,3.0,-10.0,-1.0,0.0,0.0,1.0,1651070642455864.0,3
1800,-1.0,-2.0,-4.0,0.0,0.0,0.0,1.0,-2.0,1651070642476939.0,3
1801,-2.0,-1.0,11.0,25.0,2.0,-4.0,-2.0,-1.0,1651070642476939.0,3
1802,0.0,-1.0,-1.0,-9.0,-3.0,-2.0,-2.0,0.0,1651070642477932.0,3
1803,1.0,2.0,2.0,1.0,6.0,1.0,0.0,0.0,1651070642477932.0,3
1804,-1.0,-2.0,-6.0,-3.0,3.0,1.0,-1.0,-7.0,1651070642491919.0,3
1805,-2.0,-4.0,0.0,-8.0,-3.0,-4.0,0.0,3.0,1651070642491919.0,3
1806,-2.0,4.0,-1.0,18.0,-10.0,-1.0,-1.0,-1.0,1651070642492919.0,3
1807,0.0,4.0,6.0,-16.0,18.0,4.0,2.0,-1.0,1651070642492919.0,3
1808,-3.0,-8.0,-6.0,4.0,4.0,7.0,1.0,0.0,1651070642513612.0,3
1809,1.0,-1.0,-5.0,-1.0,3.0,0.0,2.0,-2.0,1651070642513612.0,3
1810,1.0,1.0,7.0,4.0,3.0,-1.0,0.0,-1.0,1651070642515540.0,3
1811,2.0,-2.0,-10.0,-4.0,-18.0,-5.0,0.0,0.0,1651070642515540.0,3
1812,-1.0,7.0,6.0,-3.0,-3.0,-2.0,1.0,1.0,1651070642536716.0,3
1813,-1.0,-3.0,-5.0,9.0,7.0,4.0,-1.0,-1.0,1651070642536716.0,3
1814,0.0,-1.0,-10.0,-14.0,-7.0,-2.0,-1.0,1.0,1651070642537723.0,3
1815,-3.0,-5.0,9.0,14.0,2.0,0.0,-2.0,-2.0,1651070642537723.0,3
1816,-1.0,2.0,4.0,-5.0,-7.0,-4.0,0.0,1.0,1651070642551817.0,3
1817,-1.0,0.0,1.0,-8.0,-4.0,-2.0,-1.0,-2.0,1651070642551817.0,3
1818,2.0,-1.0,-1.0,-4.0,0.0,-1.0,-1.0,0.0,1651070642552754.0,3
1819,0.0,-3.0,-5.0,1.0,-5.0,2.0,-1.0,-2.0,1651070642552754.0,3
1820,-1.0,-1.0,-1.0,4.0,2.0,-2.0,-2.0,1.0,1651070642574494.0,3
1821,0.0,2.0,1.0,0.0,-3.0,-3.0,-1.0,-2.0,1651070642574494.0,3
1822,2.0,-1.0,7.0,1.0,9.0,5.0,2.0,-1.0,1651070642575495.0,3
1823,-3.0,3.0,-6.0,-2.0,-6.0,-1.0,-2.0,-1.0,1651070642575495.0,3
1824,2.0,-1.0,1.0,2.0,-2.0,-3.0,-1.0,1.0,1651070642596570.0,3
1825,0.0,-2.0,-1.0,0.0,1.0,3.0,1.0,1.0,1651070642596570.0,3
1826,-2.0,-2.0,-3.0,-10.0,-2.0,-2.0,-1.0,-1.0,1651070642597568.0,3
1827,1.0,-1.0,-2.0,1.0,-2.0,-3.0,-1.0,-2.0,1651070642597568.0,3
1828,0.0,1.0,0.0,4.0,-10.0,-3.0,-1.0,-1.0,1651070642610805.0,3
1829,-2.0,-4.0,-3.0,-9.0,-1.0,-2.0,-2.0,-6.0,1651070642610805.0,3
1830,0.0,8.0,13.0,6.0,-12.0,-4.0,2.0,1.0,1651070642617615.0,3
1831,-3.0,-7.0,-7.0,-9.0,16.0,7.0,0.0,3.0,1651070642617615.0,3
1832,-1.0,-5.0,-5.0,1.0,4.0,3.0,1.0,-1.0,1651070642634336.0,3
1833,-1.0,-5.0,-9.0,-2.0,-6.0,-6.0,-3.0,-2.0,1651070642634336.0,3
1834,0.0,-2.0,-2.0,-20.0,-1.0,0.0,-2.0,-2.0,1651070642635651.0,3
1835,1.0,3.0,2.0,5.0,-10.0,-6.0,1.0,2.0,1651070642635651.0,3
1836,0.0,3.0,3.0,5.0,6.0,1.0,-1.0,2.0,1651070642656527.0,3
1837,0.0,-3.0,-5.0,-5.0,-2.0,1.0,1.0,-1.0,1651070642656527.0,3
1838,-1.0,0.0,-1.0,4.0,-1.0,0.0,-2.0,-2.0,1651070642658527.0,3
1839,0.0,-2.0,0.0,4.0,0.0,1.0,-3.0,-1.0,1651070642658527.0,3
1840,-2.0,5.0,3.0,-14.0,-5.0,-3.0,-1.0,-2.0,1651070642671486.0,3
1841,2.0,1.0,3.0,22.0,4.0,1.0,2.0,-1.0,1651070642671486.0,3
1842,-2.0,-3.0,-4.0,-9.0,1.0,-2.0,-2.0,0.0,1651070642677534.0,3
1843,0.0,-3.0,1.0,13.0,3.0,-1.0,0.0,0.0,1651070642677534.0,3
1844,0.0,0.0,-2.0,-3.0,-4.0,-1.0,0.0,0.0,1651070642693620.0,3
1845,-1.0,3.0,4.0,-1.0,-1.0,0.0,0.0,0.0,1651070642693620.0,3
1846,-2.0,-2.0,-6.0,-4.0,3.0,2.0,2.0,0.0,1651070642695550.0,3
1847,-1.0,0.0,-5.0,-8.0,-5.0,-1.0,-2.0,-1.0,1651070642695550.0,3
1848,1.0,-1.0,2.0,7.0,-1.0,-1.0,-2.0,-1.0,1651070642716552.0,3
1849,-1.0,-1.0,0.0,-3.0,0.0,-1.0,-2.0,0.0,1651070642716552.0,3
1850,-1.0,-4.0,-3.0,0.0,2.0,-1.0,0.0,-1.0,1651070642718550.0,3
1851,0.0,-1.0,3.0,3.0,0.0,0.0,0.0,-1.0,1651070642718550.0,3
1852,0.0,-4.0,-2.0,4.0,-1.0,-2.0,0.0,1.0,1651070642730636.0,3
1853,-2.0,-1.0,1.0,-4.0,3.0,5.0,0.0,1.0,1651070642730636.0,3
1854,1.0,2.0,-1.0,-3.0,2.0,2.0,1.0,0.0,1651070642737668.0,3
1855,-1.0,-4.0,1.0,8.0,3.0,-1.0,-1.0,-2.0,1651070642737668.0,3
1856,0.0,-3.0,-6.0,-12.0,-8.0,-2.0,-1.0,0.0,1651070642753676.0,3
1857,-1.0,-1.0,-3.0,-10.0,-3.0,-2.0,-3.0,0.0,1651070642753676.0,3
1858,0.0,-2.0,3.0,9.0,-1.0,3.0,-1.0,-2.0,1651070642755698.0,3
1859,0.0,1.0,1.0,9.0,0.0,-3.0,1.0,-1.0,1651070642755698.0,3
1860,1.0,-1.0,-3.0,-1.0,-3.0,0.0,0.0,-1.0,1651070642775741.0,3
1861,-2.0,0.0,-1.0,1.0,-8.0,-5.0,-1.0,1.0,1651070642775741.0,3
1862,-1.0,4.0,-3.0,-6.0,3.0,-3.0,-1.0,0.0,1651070642782722.0,3
1863,-2.0,-7.0,-4.0,-1.0,-3.0,1.0,2.0,1.0,1651070642782722.0,3
1864,1.0,5.0,8.0,5.0,5.0,-2.0,-1.0,-1.0,1651070642790701.0,3
1865,-2.0,-3.0,9.0,-7.0,-3.0,1.0,0.0,1.0,1651070642790701.0,3
1866,0.0,-3.0,-10.0,0.0,5.0,2.0,0.0,1.0,1651070642797684.0,3
1867,-2.0,1.0,3.0,0.0,-8.0,-5.0,-3.0,-1.0,1651070642797684.0,3
1868,-2.0,1.0,-3.0,3.0,1.0,0.0,-1.0,1.0,1651070642814308.0,3
1869,-1.0,0.0,3.0,-4.0,-2.0,-2.0,-1.0,1.0,1651070642814308.0,3
1870,0.0,-1.0,3.0,8.0,-4.0,-3.0,0.0,-1.0,1651070642815298.0,3
1871,0.0,1.0,-2.0,-5.0,3.0,7.0,3.0,0.0,1651070642815298.0,3
1872,-1.0,-1.0,0.0,-1.0,-1.0,-1.0,1.0,-2.0,1651070642836390.0,3
1873,0.0,1.0,1.0,3.0,4.0,-1.0,1.0,-2.0,1651070642836390.0,3
1874,0.0,-4.0,-3.0,-2.0,-1.0,1.0,0.0,2.0,1651070642838357.0,3
1875,1.0,3.0,3.0,-5.0,-3.0,-3.0,-2.0,0.0,1651070642838357.0,3
1876,-2.0,-3.0,-5.0,-4.0,-5.0,0.0,-1.0,0.0,1651070642851322.0,3
1877,1.0,-4.0,-14.0,2.0,4.0,0.0,1.0,0.0,1651070642851322.0,3
1878,0.0,-2.0,11.0,0.0,-1.0,-1.0,-1.0,-1.0,1651070642865643.0,3
1879,0.0,5.0,-2.0,-7.0,-3.0,-4.0,-1.0,-1.0,1651070642865643.0,3
1880,0.0,-1.0,5.0,3.0,0.0,-1.0,0.0,1.0,1651070642874361.0,3
1881,-1.0,-4.0,-2.0,-3.0,1.0,1.0,-1.0,1.0,1651070642874361.0,3
1882,0.0,1.0,0.0,-2.0,-1.0,-1.0,-1.0,-1.0,1651070642875295.0,3
1883,-1.0,-6.0,-9.0,-5.0,2.0,1.0,0.0,2.0,1651070642875295.0,3
1884,0.0,3.0,12.0,3.0,1.0,-2.0,0.0,1.0,1651070642897391.0,3
1885,-2.0,-9.0,-18.0,-4.0,-4.0,0.0,-1.0,-2.0,1651070642897391.0,3
1886,0.0,-1.0,-4.0,11.0,-3.0,1.0,0.0,-1.0,1651070642898389.0,3
1887,0.0,4.0,13.0,6.0,12.0,-1.0,0.0,0.0,1651070642898389.0,3
1888,1.0,-2.0,-3.0,2.0,2.0,0.0,-1.0,-1.0,1651070642911236.0,3
1889,2.0,7.0,18.0,-17.0,-12.0,0.0,2.0,-2.0,1651070642911236.0,3
1890,-3.0,-9.0,-30.0,-8.0,0.0,-3.0,-2.0,-1.0,1651070642917682.0,3
