EMG_s0,EMG_s1,EMG_s2,EMG_s3,EMG_s4,EMG_s5,EMG_s6,EMG_s7,timestamp
-1.0,1.0,-1.0,-1.0,-1.0,-1.0,-1.0,-2.0,1651087829297198.0
-1.0,-1.0,-1.0,2.0,2.0,0.0,-1.0,0.0,1651087829297198.0
1.0,0.0,-5.0,-9.0,-4.0,-2.0,-1.0,-1.0,1651087829306296.0
1.0,1.0,5.0,11.0,6.0,1.0,1.0,-1.0,1651087829306296.0
-1.0,-1.0,0.0,0.0,2.0,-2.0,-1.0,0.0,1651087829309126.0
2.0,0.0,0.0,-3.0,3.0,2.0,0.0,-1.0,1651087829309126.0
-1.0,-1.0,2.0,0.0,-2.0,-3.0,-1.0,0.0,1651087829310157.0
0.0,1.0,-6.0,-6.0,-4.0,-1.0,-1.0,1.0,1651087829310157.0
-1.0,-1.0,4.0,2.0,-2.0,1.0,0.0,1.0,1651087829320444.0
0.0,-1.0,-1.0,0.0,-2.0,-2.0,0.0,-1.0,1651087829320444.0
0.0,-2.0,1.0,1.0,-3.0,-2.0,-2.0,-4.0,1651087829326427.0
0.0,-1.0,3.0,2.0,4.0,-2.0,-2.0,-2.0,1651087829326427.0
-1.0,0.0,-2.0,-1.0,1.0,1.0,1.0,-2.0,1651087829334251.0
-4.0,-6.0,-6.0,-8.0,-7.0,-5.0,-3.0,-2.0,1651087829334251.0
-2.0,-1.0,-4.0,0.0,1.0,-1.0,-2.0,-1.0,1651087829356216.0
-3.0,-1.0,-2.0,-3.0,-6.0,-1.0,-2.0,-2.0,1651087829356216.0
-1.0,-2.0,-2.0,-2.0,-1.0,-1.0,0.0,1.0,1651087829357180.0
-1.0,1.0,3.0,5.0,2.0,-1.0,-2.0,-1.0,1651087829357180.0
-1.0,-1.0,2.0,4.0,-2.0,0.0,-1.0,-1.0,1651087829371070.0
0.0,-2.0,-4.0,1.0,8.0,3.0,1.0,1.0,1651087829371070.0
1.0,1.0,-3.0,-3.0,-3.0,-4.0,-1.0,-1.0,1651087829380336.0
0.0,1.0,0.0,-1.0,1.0,-2.0,-2.0,-1.0,1651087829380336.0
-1.0,-2.0,-5.0,-6.0,-1.0,0.0,1.0,0.0,1651087829394234.0
-1.0,0.0,0.0,2.0,7.0,2.0,0.0,0.0,1651087829394234.0
1.0,0.0,1.0,1.0,0.0,-1.0,-1.0,0.0,1651087829433433.0
0.0,0.0,7.0,1.0,-1.0,-1.0,0.0,1.0,1651087829433433.0
-1.0,-2.0,-20.0,-6.0,1.0,-1.0,1.0,-1.0,1651087829434431.0
1.0,0.0,0.0,-1.0,-2.0,-1.0,-1.0,1.0,1651087829434431.0
0.0,-1.0,4.0,2.0,0.0,-1.0,-2.0,-2.0,1651087829435462.0
0.0,0.0,2.0,-1.0,3.0,0.0,-1.0,1.0,1651087829435462.0
0.0,1.0,5.0,2.0,-3.0,-1.0,-1.0,-1.0,1651087829438420.0
-1.0,-3.0,-6.0,-1.0,5.0,0.0,-1.0,0.0,1651087829438420.0
0.0,0.0,-1.0,-2.0,-3.0,-4.0,-1.0,0.0,1651087829445433.0
-1.0,3.0,-3.0,-6.0,-3.0,-2.0,-1.0,-1.0,1651087829445433.0
-1.0,0.0,7.0,9.0,8.0,3.0,0.0,1.0,1651087829452511.0
-1.0,-3.0,-1.0,-4.0,-4.0,0.0,-1.0,-3.0,1651087829452511.0
1.0,-1.0,2.0,-2.0,-4.0,0.0,0.0,-1.0,1651087829461386.0
0.0,0.0,1.0,2.0,2.0,2.0,-2.0,-1.0,1651087829461386.0
-1.0,1.0,-2.0,-1.0,-3.0,0.0,-1.0,0.0,1651087829475368.0
1.0,0.0,3.0,1.0,-1.0,-1.0,0.0,0.0,1651087829475368.0
-2.0,2.0,1.0,3.0,7.0,3.0,1.0,1.0,1651087829484298.0
-2.0,-3.0,0.0,-5.0,-6.0,-3.0,-1.0,-3.0,1651087829484298.0
1.0,-1.0,-10.0,-7.0,-1.0,-2.0,1.0,-1.0,1651087829506343.0
0.0,0.0,3.0,5.0,-2.0,-2.0,-1.0,-1.0,1651087829506343.0
1.0,-2.0,-2.0,-2.0,-1.0,-3.0,-3.0,-1.0,1651087829508226.0
-3.0,-2.0,-2.0,1.0,-1.0,-2.0,0.0,1.0,1651087829508226.0
1.0,-1.0,6.0,0.0,-5.0,-2.0,-1.0,0.0,1651087829520363.0
0.0,-1.0,-1.0,-2.0,1.0,-1.0,0.0,-1.0,1651087829520363.0
-1.0,0.0,-7.0,-4.0,0.0,0.0,0.0,1.0,1651087829529073.0
0.0,-1.0,3.0,6.0,5.0,2.0,-1.0,-2.0,1651087829529073.0
-2.0,-1.0,3.0,-4.0,-6.0,-3.0,-1.0,-1.0,1651087829544366.0
-1.0,-1.0,-5.0,-3.0,-8.0,-3.0,0.0,-1.0,1651087829544366.0
-1.0,-1.0,1.0,9.0,7.0,2.0,3.0,0.0,1651087829545218.0
0.0,0.0,-3.0,-6.0,-4.0,-3.0,-2.0,0.0,1651087829545218.0
-2.0,-3.0,-3.0,-5.0,-1.0,-3.0,-1.0,-2.0,1651087829567344.0
0.0,0.0,-5.0,-10.0,-7.0,0.0,-2.0,-1.0,1651087829567344.0
-1.0,-4.0,-1.0,-1.0,-2.0,-2.0,0.0,-2.0,1651087829568345.0
-1.0,-1.0,-2.0,2.0,1.0,-2.0,1.0,0.0,1651087829568345.0
0.0,0.0,4.0,4.0,1.0,0.0,0.0,0.0,1651087829581349.0
-2.0,1.0,3.0,1.0,5.0,-1.0,-1.0,-1.0,1651087829581349.0
-1.0,-2.0,-2.0,-6.0,-5.0,0.0,1.0,-1.0,1651087829588184.0
0.0,0.0,-1.0,5.0,0.0,1.0,2.0,1.0,1651087829588184.0
1.0,0.0,3.0,3.0,3.0,1.0,0.0,-1.0,1651087829604348.0
-2.0,0.0,0.0,4.0,1.0,0.0,0.0,-2.0,1651087829604348.0
-2.0,2.0,2.0,1.0,-5.0,-1.0,-3.0,0.0,1651087829605234.0
-1.0,-4.0,-4.0,-4.0,-4.0,-4.0,-2.0,-1.0,1651087829605234.0
1.0,1.0,7.0,-2.0,0.0,1.0,1.0,-1.0,1651087829626344.0
0.0,-1.0,-11.0,2.0,6.0,1.0,0.0,-1.0,1651087829626344.0
0.0,1.0,-1.0,-2.0,-2.0,-1.0,-1.0,0.0,1651087829628194.0
0.0,-1.0,1.0,0.0,-6.0,-1.0,-1.0,0.0,1651087829628194.0
-2.0,0.0,1.0,1.0,1.0,-3.0,-1.0,-1.0,1651087829641373.0
-3.0,1.0,2.0,-1.0,0.0,1.0,0.0,-1.0,1651087829641373.0
-3.0,-2.0,-2.0,4.0,4.0,1.0,2.0,-2.0,1651087829648184.0
0.0,1.0,-1.0,-3.0,-4.0,-1.0,0.0,-2.0,1651087829648184.0
-1.0,-1.0,-4.0,-2.0,2.0,-1.0,-2.0,0.0,1651087829664505.0
0.0,2.0,6.0,1.0,-5.0,-5.0,-2.0,-2.0,1651087829664505.0
0.0,-1.0,-7.0,-3.0,7.0,1.0,0.0,0.0,1651087829666415.0
0.0,-1.0,-5.0,2.0,3.0,2.0,0.0,0.0,1651087829666415.0
-1.0,-1.0,0.0,0.0,1.0,2.0,-1.0,0.0,1651087829686924.0
0.0,-2.0,-1.0,-6.0,-4.0,-3.0,-1.0,0.0,1651087829686924.0
-2.0,0.0,5.0,1.0,-1.0,-2.0,-2.0,-1.0,1651087829687924.0
-2.0,1.0,0.0,-5.0,-2.0,-1.0,0.0,0.0,1651087829687924.0
-1.0,1.0,-2.0,3.0,4.0,2.0,-2.0,-1.0,1651087829701236.0
0.0,0.0,1.0,-1.0,-2.0,0.0,0.0,1.0,1651087829701236.0
0.0,-1.0,0.0,-4.0,-9.0,-3.0,-1.0,-1.0,1651087829708173.0
0.0,0.0,-1.0,1.0,4.0,0.0,0.0,-2.0,1651087829708173.0
-1.0,-1.0,-2.0,-6.0,-7.0,-2.0,-1.0,-1.0,1651087829724206.0
-1.0,-1.0,-2.0,-3.0,-2.0,0.0,0.0,1.0,1651087829724206.0
0.0,1.0,-1.0,-2.0,-1.0,0.0,-1.0,0.0,1651087829725238.0
-1.0,-1.0,-2.0,0.0,-1.0,1.0,1.0,-1.0,1651087829725238.0
0.0,-2.0,0.0,-1.0,-5.0,-2.0,-2.0,0.0,1651087829746215.0
-3.0,0.0,0.0,2.0,2.0,-1.0,0.0,-1.0,1651087829746215.0
0.0,1.0,1.0,-1.0,-2.0,1.0,2.0,1.0,1651087829748242.0
0.0,0.0,6.0,4.0,4.0,2.0,-1.0,0.0,1651087829748242.0
0.0,0.0,-2.0,-2.0,2.0,0.0,-1.0,-1.0,1651087829761209.0
1.0,-1.0,2.0,4.0,-2.0,0.0,-1.0,0.0,1651087829761209.0
-2.0,-1.0,0.0,2.0,1.0,-1.0,-2.0,-1.0,1651087829769115.0
-1.0,0.0,-2.0,-8.0,-4.0,-2.0,-1.0,1.0,1651087829769115.0
-1.0,-1.0,0.0,-7.0,-3.0,1.0,0.0,-1.0,1651087829784360.0
0.0,-1.0,2.0,10.0,3.0,2.0,0.0,-1.0,1651087829784360.0
-1.0,-1.0,9.0,10.0,9.0,1.0,-1.0,-1.0,1651087829785244.0
-1.0,0.0,-5.0,-7.0,0.0,0.0,0.0,-1.0,1651087829785244.0
-1.0,0.0,-4.0,-12.0,-34.0,-12.0,-3.0,-1.0,1651087829807206.0
-1.0,-1.0,4.0,14.0,32.0,12.0,2.0,-1.0,1651087829807206.0
-1.0,0.0,-9.0,-6.0,-3.0,-2.0,0.0,-2.0,1651087829809239.0
-2.0,-7.0,-2.0,4.0,5.0,1.0,-2.0,-2.0,1651087829809239.0
1.0,3.0,3.0,4.0,5.0,0.0,0.0,2.0,1651087829821143.0
-1.0,-3.0,-3.0,-10.0,-16.0,-6.0,-2.0,-1.0,1651087829821143.0
0.0,3.0,3.0,4.0,0.0,0.0,0.0,0.0,1651087829829559.0
-1.0,2.0,8.0,-3.0,-3.0,-1.0,0.0,-1.0,1651087829829559.0
-2.0,-4.0,-19.0,-3.0,-1.0,-1.0,-1.0,-1.0,1651087829844241.0
2.0,1.0,2.0,2.0,-1.0,0.0,-1.0,0.0,1651087829844241.0
-1.0,-3.0,-3.0,-3.0,-1.0,0.0,0.0,1.0,1651087829846237.0
0.0,1.0,6.0,0.0,-8.0,-2.0,-2.0,0.0,1651087829846237.0
0.0,-1.0,3.0,9.0,9.0,2.0,-1.0,2.0,1651087829865219.0
-1.0,2.0,-1.0,-1.0,1.0,0.0,0.0,0.0,1651087829865219.0
0.0,-2.0,-2.0,-4.0,-2.0,-1.0,1.0,-1.0,1651087829875192.0
0.0,-3.0,-1.0,0.0,-1.0,-2.0,1.0,-2.0,1651087829875192.0
0.0,0.0,4.0,3.0,4.0,0.0,-2.0,-1.0,1651087829880345.0
-1.0,0.0,-7.0,-8.0,-6.0,-3.0,0.0,-1.0,1651087829880345.0
0.0,-1.0,0.0,-2.0,-4.0,0.0,0.0,0.0,1651087829889365.0
0.0,0.0,-1.0,-1.0,-1.0,-1.0,0.0,0.0,1651087829889365.0
-1.0,-2.0,3.0,10.0,11.0,3.0,0.0,-2.0,1651087829904388.0
1.0,-1.0,0.0,-3.0,-7.0,-3.0,-1.0,-1.0,1651087829904388.0
1.0,3.0,-8.0,0.0,2.0,-3.0,-3.0,-2.0,1651087829905255.0
-1.0,0.0,7.0,3.0,3.0,1.0,1.0,0.0,1651087829905255.0
-4.0,-4.0,-4.0,-8.0,-8.0,-1.0,-1.0,-3.0,1651087829927372.0
-1.0,1.0,6.0,4.0,3.0,-1.0,0.0,0.0,1651087829927372.0
-2.0,-2.0,5.0,-5.0,-4.0,0.0,0.0,0.0,1651087829928243.0
2.0,2.0,-12.0,-5.0,-4.0,-2.0,-2.0,0.0,1651087829928243.0
0.0,0.0,4.0,-2.0,-4.0,-2.0,-1.0,-1.0,1651087829940282.0
-2.0,-2.0,-2.0,0.0,-5.0,-2.0,-1.0,-1.0,1651087829940282.0
1.0,-1.0,-3.0,5.0,2.0,1.0,-1.0,0.0,1651087829949156.0
-1.0,0.0,0.0,-6.0,-1.0,0.0,0.0,2.0,1651087829949156.0
0.0,-2.0,2.0,-5.0,-1.0,2.0,0.0,0.0,1651087829972236.0
-2.0,0.0,-7.0,1.0,-2.0,-1.0,-2.0,0.0,1651087829972236.0
-1.0,-1.0,-4.0,-15.0,0.0,1.0,1.0,-1.0,1651087829973061.0
-3.0,-4.0,-1.0,23.0,14.0,2.0,-2.0,-2.0,1651087829973061.0
-1.0,4.0,-7.0,-5.0,-3.0,-4.0,0.0,-1.0,1651087829987375.0
2.0,3.0,9.0,-6.0,-6.0,0.0,0.0,1.0,1651087829987375.0
1.0,-2.0,12.0,7.0,-3.0,-3.0,-2.0,-2.0,1651087829988248.0
0.0,-2.0,-18.0,-20.0,-12.0,-5.0,-1.0,-1.0,1651087829988248.0
0.0,-4.0,-5.0,1.0,-5.0,-3.0,1.0,0.0,1651087830000530.0
0.0,5.0,11.0,13.0,25.0,9.0,2.0,1.0,1651087830000530.0
-1.0,-6.0,-5.0,-19.0,-17.0,-5.0,-2.0,0.0,1651087830010231.0
2.0,-3.0,-6.0,-2.0,1.0,1.0,-1.0,2.0,1651087830010231.0
0.0,13.0,5.0,12.0,28.0,7.0,-1.0,-1.0,1651087830024223.0
-5.0,-12.0,-15.0,8.0,-20.0,-9.0,-3.0,-4.0,1651087830024223.0
4.0,19.0,24.0,28.0,48.0,27.0,10.0,5.0,1651087830025252.0
2.0,-4.0,-12.0,-15.0,-11.0,-2.0,-1.0,0.0,1651087830025252.0
0.0,-6.0,6.0,4.0,-12.0,-6.0,-2.0,-3.0,1651087830046230.0
2.0,3.0,4.0,-9.0,8.0,2.0,-1.0,0.0,1651087830046230.0
-1.0,1.0,-10.0,-7.0,-8.0,-8.0,-3.0,-2.0,1651087830048256.0
-5.0,-8.0,5.0,2.0,-20.0,-7.0,-2.0,-1.0,1651087830048256.0
0.0,-1.0,6.0,-20.0,-12.0,-4.0,0.0,1.0,1651087830060194.0
-2.0,-14.0,2.0,23.0,36.0,12.0,1.0,1.0,1651087830060194.0
-1.0,-5.0,-3.0,7.0,-4.0,-5.0,0.0,0.0,1651087830069168.0
-3.0,-1.0,1.0,0.0,7.0,3.0,-1.0,-4.0,1651087830069168.0
-1.0,-3.0,-2.0,-21.0,-21.0,-5.0,2.0,-4.0,1651087830083151.0
-1.0,-16.0,-10.0,3.0,-8.0,-6.0,-10.0,-13.0,1651087830083151.0
-2.0,16.0,3.0,2.0,10.0,6.0,13.0,30.0,1651087830090243.0
2.0,3.0,5.0,-2.0,-11.0,-8.0,-2.0,3.0,1651087830090243.0
-2.0,-7.0,-3.0,-6.0,-10.0,-3.0,-2.0,3.0,1651087830106353.0
7.0,12.0,-6.0,-21.0,-2.0,3.0,5.0,-6.0,1651087830106353.0
-2.0,1.0,10.0,20.0,-2.0,-7.0,-13.0,-14.0,1651087830108200.0
-9.0,-7.0,-11.0,6.0,18.0,19.0,25.0,1.0,1651087830108200.0
-2.0,-8.0,-10.0,-13.0,-18.0,-28.0,-37.0,-18.0,1651087830120357.0
9.0,4.0,-3.0,5.0,8.0,1.0,7.0,18.0,1651087830120357.0
2.0,2.0,-9.0,-22.0,-30.0,-16.0,-11.0,0.0,1651087830129070.0
-8.0,20.0,3.0,7.0,10.0,-4.0,-27.0,-38.0,1651087830129070.0
0.0,-7.0,6.0,-1.0,2.0,7.0,14.0,20.0,1651087830143222.0
-4.0,-6.0,26.0,24.0,6.0,9.0,32.0,27.0,1651087830143222.0
-15.0,-17.0,-24.0,-22.0,-7.0,1.0,-17.0,-7.0,1651087830150374.0
8.0,-2.0,20.0,23.0,6.0,8.0,10.0,4.0,1651087830150374.0
2.0,-1.0,-14.0,-4.0,2.0,-4.0,31.0,23.0,1651087830166597.0
2.0,18.0,-8.0,-14.0,-18.0,-24.0,-25.0,0.0,1651087830166597.0
-9.0,-7.0,8.0,-1.0,-3.0,31.0,21.0,-44.0,1651087830168481.0
-3.0,-5.0,4.0,-19.0,-18.0,-53.0,-63.0,15.0,1651087830168481.0
1.0,-4.0,-13.0,19.0,18.0,3.0,-17.0,-5.0,1651087830180418.0
-3.0,40.0,6.0,-12.0,-7.0,20.0,-40.0,-38.0,1651087830180418.0
-9.0,-47.0,-15.0,4.0,3.0,-11.0,58.0,5.0,1651087830189070.0
17.0,-8.0,-1.0,-5.0,-2.0,13.0,19.0,40.0,1651087830189070.0
-7.0,0.0,23.0,18.0,16.0,15.0,9.0,-6.0,1651087830203206.0
4.0,-16.0,-22.0,-10.0,-3.0,-3.0,7.0,-16.0,1651087830203206.0
-5.0,24.0,7.0,-1.0,6.0,31.0,-40.0,-20.0,1651087830210361.0
11.0,5.0,7.0,3.0,0.0,-23.0,5.0,32.0,1651087830210361.0
10.0,2.0,-1.0,11.0,-3.0,-22.0,11.0,36.0,1651087830226343.0
-17.0,0.0,-4.0,-10.0,-3.0,24.0,2.0,-37.0,1651087830226343.0
-4.0,-31.0,-11.0,-4.0,-7.0,-10.0,26.0,22.0,1651087830228379.0
8.0,28.0,8.0,-2.0,0.0,-5.0,31.0,34.0,1651087830228379.0
-5.0,1.0,12.0,13.0,8.0,22.0,26.0,-10.0,1651087830250206.0
-2.0,-17.0,13.0,4.0,2.0,-14.0,-75.0,-42.0,1651087830250206.0
6.0,-26.0,-22.0,17.0,15.0,22.0,37.0,-6.0,1651087830252200.0
3.0,19.0,-13.0,-24.0,-22.0,-20.0,-40.0,-3.0,1651087830252200.0
4.0,-3.0,-11.0,-26.0,-13.0,-14.0,11.0,6.0,1651087830263066.0
-2.0,-10.0,17.0,18.0,5.0,-1.0,-16.0,-1.0,1651087830263066.0
11.0,30.0,17.0,9.0,0.0,-14.0,20.0,17.0,1651087830270683.0
-11.0,-9.0,-5.0,4.0,10.0,31.0,-3.0,-44.0,1651087830270683.0
0.0,-13.0,-2.0,-3.0,5.0,3.0,-35.0,-6.0,1651087830287032.0
5.0,11.0,3.0,-6.0,-8.0,-1.0,35.0,-8.0,1651087830287032.0
1.0,-7.0,-5.0,-7.0,1.0,-12.0,-18.0,42.0,1651087830288040.0
-3.0,-14.0,-9.0,4.0,-1.0,8.0,16.0,-18.0,1651087830288040.0
-5.0,21.0,-4.0,1.0,4.0,16.0,36.0,1.0,1651087830309234.0
-7.0,-38.0,-35.0,-17.0,-13.0,-19.0,-11.0,32.0,1651087830309234.0
-4.0,62.0,36.0,-7.0,-12.0,-7.0,-24.0,-35.0,1651087830311048.0
-4.0,-7.0,-38.0,16.0,21.0,19.0,15.0,-8.0,1651087830311048.0
-2.0,-12.0,42.0,9.0,1.0,-19.0,-58.0,-26.0,1651087830323416.0
-4.0,18.0,-3.0,-24.0,-32.0,-10.0,56.0,34.0,1651087830323416.0
10.0,-5.0,-31.0,-4.0,11.0,-4.0,-10.0,17.0,1651087830330269.0
0.0,27.0,16.0,-5.0,-12.0,5.0,-40.0,-26.0,1651087830330269.0
4.0,31.0,-4.0,4.0,1.0,-5.0,62.0,24.0,1651087830346437.0
4.0,-34.0,-7.0,10.0,33.0,3.0,-60.0,-20.0,1651087830346437.0
-5.0,-14.0,-8.0,-21.0,-32.0,-30.0,14.0,26.0,1651087830348466.0
-2.0,20.0,18.0,-23.0,2.0,17.0,31.0,-5.0,1651087830348466.0
2.0,-11.0,-33.0,19.0,-1.0,-8.0,-51.0,17.0,1651087830370357.0
-9.0,-16.0,30.0,3.0,-5.0,-8.0,6.0,2.0,1651087830370357.0
10.0,19.0,-30.0,-10.0,-2.0,9.0,-14.0,-33.0,1651087830371245.0
-7.0,-64.0,11.0,11.0,8.0,-12.0,-65.0,-1.0,1651087830371245.0
-3.0,26.0,-16.0,-20.0,-12.0,16.0,63.0,-16.0,1651087830383381.0
14.0,38.0,16.0,15.0,2.0,3.0,17.0,10.0,1651087830383381.0
1.0,-3.0,12.0,-1.0,-6.0,-37.0,-101.0,-69.0,1651087830399225.0
0.0,5.0,-23.0,1.0,5.0,8.0,95.0,47.0,1651087830399225.0
-1.0,-28.0,5.0,5.0,13.0,27.0,23.0,27.0,1651087830405243.0
6.0,5.0,-24.0,-9.0,-8.0,-8.0,-1.0,1.0,1651087830405243.0
-20.0,-13.0,-1.0,5.0,11.0,20.0,22.0,-13.0,1651087830414189.0
17.0,-22.0,19.0,3.0,-1.0,-5.0,-33.0,-41.0,1651087830414189.0
0.0,79.0,-6.0,2.0,-9.0,-16.0,-41.0,3.0,1651087830429147.0
2.0,-18.0,16.0,-6.0,2.0,16.0,40.0,28.0,1651087830429147.0
-7.0,-6.0,-15.0,-6.0,-9.0,1.0,-12.0,-6.0,1651087830430180.0
-14.0,-20.0,14.0,6.0,-18.0,-4.0,-40.0,-33.0,1651087830430180.0
-20.0,-20.0,2.0,9.0,23.0,2.0,-4.0,-8.0,1651087830452422.0
-11.0,-41.0,-8.0,-2.0,1.0,-3.0,16.0,35.0,1651087830452422.0
10.0,27.0,21.0,6.0,-5.0,-16.0,-8.0,15.0,1651087830453094.0
2.0,-15.0,-22.0,-32.0,-22.0,7.0,53.0,19.0,1651087830453094.0
0.0,1.0,9.0,5.0,6.0,10.0,19.0,-16.0,1651087830465731.0
4.0,61.0,-2.0,-10.0,-11.0,-5.0,6.0,3.0,1651087830465731.0
2.0,-65.0,-7.0,10.0,15.0,-7.0,26.0,37.0,1651087830474227.0
0.0,13.0,-11.0,-1.0,-14.0,-19.0,-39.0,-16.0,1651087830474227.0
2.0,-12.0,24.0,1.0,-5.0,5.0,-17.0,-27.0,1651087830489246.0
-12.0,-10.0,-41.0,-4.0,7.0,9.0,15.0,11.0,1651087830489246.0
8.0,2.0,9.0,-1.0,1.0,13.0,19.0,3.0,1651087830490247.0
-6.0,24.0,3.0,0.0,3.0,1.0,-1.0,-15.0,1651087830490247.0
-13.0,7.0,-3.0,21.0,11.0,4.0,-7.0,-24.0,1651087830512368.0
15.0,-4.0,18.0,-5.0,-6.0,2.0,-20.0,-20.0,1651087830512368.0
18.0,-13.0,-4.0,8.0,5.0,12.0,48.0,65.0,1651087830513212.0
-25.0,10.0,-9.0,-25.0,-2.0,-1.0,-45.0,-39.0,1651087830513212.0
7.0,-3.0,10.0,8.0,-5.0,2.0,22.0,50.0,1651087830525178.0
-4.0,-3.0,9.0,32.0,5.0,2.0,-34.0,-42.0,1651087830525178.0
0.0,3.0,-2.0,-9.0,6.0,5.0,9.0,-27.0,1651087830534311.0
-8.0,-5.0,18.0,20.0,20.0,-2.0,5.0,52.0,1651087830534311.0
6.0,-23.0,-24.0,-38.0,-35.0,-18.0,-37.0,-53.0,1651087830549158.0
-2.0,15.0,-14.0,-13.0,3.0,1.0,16.0,27.0,1651087830549158.0
-9.0,-4.0,5.0,12.0,-3.0,-9.0,-64.0,-25.0,1651087830556282.0
3.0,-4.0,3.0,-1.0,8.0,7.0,-8.0,-1.0,1651087830556282.0
-10.0,-33.0,-11.0,-16.0,-4.0,24.0,19.0,-6.0,1651087830572032.0
16.0,10.0,-3.0,1.0,-1.0,-17.0,64.0,86.0,1651087830572032.0
-5.0,21.0,24.0,14.0,3.0,4.0,-18.0,-16.0,1651087830573032.0
1.0,-1.0,-4.0,8.0,11.0,10.0,37.0,12.0,1651087830573032.0
6.0,-12.0,-8.0,12.0,10.0,-3.0,-46.0,-37.0,1651087830585141.0
-14.0,43.0,29.0,-3.0,-1.0,-3.0,-34.0,-40.0,1651087830585141.0
-5.0,12.0,-5.0,-20.0,-20.0,-1.0,26.0,34.0,1651087830594204.0
11.0,8.0,-5.0,-2.0,-6.0,4.0,-2.0,-17.0,1651087830594204.0
-1.0,-3.0,3.0,2.0,9.0,-5.0,-16.0,-12.0,1651087830609211.0
-3.0,-24.0,-16.0,14.0,2.0,2.0,42.0,22.0,1651087830609211.0
-6.0,-5.0,0.0,-6.0,-1.0,4.0,-18.0,-11.0,1651087830610210.0
-1.0,4.0,15.0,25.0,12.0,-1.0,9.0,15.0,1651087830610210.0
21.0,-10.0,9.0,-8.0,-4.0,-1.0,20.0,21.0,1651087830631589.0
-10.0,-5.0,-4.0,-2.0,-9.0,-15.0,-52.0,-15.0,1651087830631589.0
18.0,35.0,0.0,-9.0,1.0,12.0,34.0,41.0,1651087830633575.0
0.0,-1.0,9.0,16.0,4.0,8.0,21.0,11.0,1651087830633575.0
-6.0,-17.0,-23.0,-13.0,-34.0,-28.0,-33.0,1.0,1651087830645349.0
2.0,-7.0,19.0,8.0,41.0,15.0,-16.0,-37.0,1651087830645349.0
-2.0,-8.0,-6.0,22.0,20.0,5.0,18.0,2.0,1651087830654184.0
5.0,-8.0,-1.0,-6.0,4.0,2.0,-8.0,-30.0,1651087830654184.0
-2.0,23.0,3.0,-3.0,4.0,-6.0,-25.0,23.0,1651087830676269.0
7.0,-35.0,-13.0,5.0,-10.0,5.0,33.0,21.0,1651087830676269.0
-7.0,17.0,21.0,-3.0,-16.0,-14.0,-43.0,-22.0,1651087830678154.0
-1.0,2.0,-1.0,7.0,3.0,-1.0,21.0,-6.0,1651087830678154.0
4.0,21.0,13.0,5.0,4.0,-1.0,-10.0,-3.0,1651087830691874.0
-17.0,-47.0,-11.0,-15.0,-16.0,-10.0,-42.0,1.0,1651087830691874.0
9.0,9.0,-2.0,-11.0,-1.0,4.0,57.0,32.0,1651087830692888.0
-4.0,-14.0,1.0,16.0,-7.0,-19.0,-55.0,-39.0,1651087830692888.0
1.0,6.0,2.0,-12.0,9.0,16.0,10.0,-27.0,1651087830705351.0
8.0,8.0,4.0,-2.0,-5.0,0.0,26.0,35.0,1651087830705351.0
1.0,-9.0,-32.0,1.0,2.0,-2.0,-27.0,-25.0,1651087830714185.0
-5.0,17.0,21.0,-6.0,-3.0,1.0,-35.0,-23.0,1651087830714185.0
-5.0,17.0,-16.0,-2.0,-9.0,-1.0,56.0,54.0,1651087830729229.0
-3.0,1.0,6.0,-4.0,-1.0,-1.0,-2.0,-14.0,1651087830729229.0
9.0,2.0,16.0,2.0,0.0,7.0,-29.0,-31.0,1651087830730233.0
2.0,5.0,-11.0,-19.0,-19.0,-6.0,41.0,33.0,1651087830730233.0
-1.0,-3.0,19.0,24.0,17.0,9.0,9.0,15.0,1651087830752030.0
2.0,-12.0,-32.0,-9.0,-4.0,-5.0,-7.0,-13.0,1651087830752030.0
-3.0,-17.0,5.0,-2.0,-3.0,1.0,-29.0,-28.0,1651087830753034.0
4.0,33.0,-1.0,-8.0,-7.0,-11.0,26.0,25.0,1651087830753034.0
-5.0,-29.0,-2.0,-5.0,-7.0,-7.0,-13.0,6.0,1651087830774217.0
5.0,1.0,-6.0,9.0,-2.0,-3.0,3.0,-7.0,1651087830774217.0
-8.0,30.0,7.0,-6.0,1.0,-5.0,-2.0,-11.0,1651087830775247.0
-10.0,-33.0,-13.0,-1.0,0.0,-6.0,-13.0,-25.0,1651087830775247.0
-1.0,-2.0,6.0,8.0,17.0,8.0,3.0,14.0,1651087830789243.0
4.0,3.0,-11.0,-14.0,-12.0,-5.0,-5.0,-25.0,1651087830789243.0
-2.0,-35.0,-17.0,-8.0,-7.0,-3.0,8.0,14.0,1651087830790243.0
-2.0,25.0,12.0,4.0,6.0,11.0,-32.0,-32.0,1651087830790243.0
5.0,3.0,6.0,0.0,-1.0,0.0,16.0,21.0,1651087830812373.0
-16.0,-3.0,-20.0,-14.0,-9.0,-3.0,4.0,-9.0,1651087830812373.0
13.0,4.0,-11.0,-21.0,-12.0,-6.0,-19.0,-12.0,1651087830813206.0
-2.0,-44.0,-9.0,29.0,23.0,11.0,-7.0,2.0,1651087830813206.0
9.0,1.0,3.0,-9.0,-4.0,3.0,25.0,17.0,1651087830834388.0
-2.0,-11.0,23.0,-4.0,-6.0,-4.0,24.0,25.0,1651087830834388.0
-17.0,5.0,-1.0,35.0,27.0,6.0,-23.0,-17.0,1651087830835222.0
3.0,-5.0,-7.0,-27.0,-22.0,-9.0,33.0,41.0,1651087830835222.0
4.0,-4.0,-8.0,-10.0,-1.0,-3.0,-26.0,-34.0,1651087830849244.0
-7.0,26.0,6.0,16.0,-1.0,5.0,-22.0,-47.0,1651087830849244.0
9.0,-5.0,14.0,8.0,4.0,2.0,31.0,52.0,1651087830855231.0
-2.0,-13.0,9.0,-9.0,2.0,2.0,5.0,0.0,1651087830855231.0
-12.0,8.0,-19.0,3.0,9.0,5.0,-27.0,-33.0,1651087830871237.0
13.0,15.0,12.0,0.0,-1.0,0.0,-23.0,36.0,1651087830871237.0
-3.0,-4.0,-9.0,-1.0,-2.0,7.0,57.0,7.0,1651087830873231.0
13.0,-2.0,-13.0,12.0,10.0,3.0,13.0,22.0,1651087830873231.0
1.0,24.0,-6.0,-10.0,-11.0,2.0,4.0,-29.0,1651087830894364.0
0.0,10.0,14.0,2.0,5.0,0.0,-34.0,10.0,1651087830894364.0
0.0,-22.0,4.0,2.0,-13.0,-8.0,21.0,12.0,1651087830895218.0
-11.0,-15.0,-2.0,5.0,15.0,1.0,21.0,2.0,1651087830895218.0
1.0,-9.0,-7.0,0.0,4.0,2.0,-17.0,4.0,1651087830908322.0
-2.0,17.0,1.0,0.0,-1.0,-1.0,16.0,-27.0,1651087830908322.0
-3.0,-18.0,3.0,5.0,-1.0,-2.0,-18.0,4.0,1651087830915250.0
-6.0,32.0,3.0,-29.0,-23.0,-11.0,-28.0,-64.0,1651087830915250.0
5.0,-29.0,-21.0,6.0,-3.0,-5.0,7.0,65.0,1651087830931368.0
-22.0,3.0,8.0,2.0,8.0,10.0,57.0,9.0,1651087830931368.0
-2.0,-8.0,-10.0,-22.0,-19.0,-24.0,-51.0,-17.0,1651087830933252.0
6.0,23.0,-1.0,8.0,7.0,5.0,2.0,3.0,1651087830933252.0
-1.0,15.0,18.0,10.0,1.0,-3.0,-7.0,-14.0,1651087830954364.0
4.0,1.0,4.0,3.0,5.0,0.0,-17.0,-3.0,1651087830954364.0
-1.0,-11.0,2.0,-9.0,-6.0,1.0,11.0,-19.0,1651087830955248.0
-10.0,2.0,-6.0,10.0,5.0,4.0,-1.0,45.0,1651087830955248.0
6.0,3.0,6.0,-7.0,-8.0,-7.0,16.0,-1.0,1651087830968856.0
14.0,1.0,-13.0,0.0,4.0,0.0,13.0,10.0,1651087830968856.0
-2.0,17.0,4.0,-1.0,0.0,-7.0,-32.0,-52.0,1651087830975130.0
-2.0,-6.0,2.0,2.0,-2.0,3.0,-3.0,28.0,1651087830975130.0
-16.0,-17.0,-13.0,1.0,-3.0,-10.0,-26.0,-27.0,1651087830991256.0
11.0,12.0,32.0,-5.0,-3.0,0.0,22.0,31.0,1651087830991256.0
13.0,-14.0,-15.0,-8.0,2.0,3.0,27.0,7.0,1651087830993249.0
-3.0,11.0,-5.0,8.0,0.0,-2.0,-12.0,-10.0,1651087830993249.0
-14.0,10.0,27.0,-10.0,-8.0,-3.0,-3.0,-8.0,1651087831014312.0
-21.0,-1.0,-9.0,4.0,6.0,4.0,-32.0,-51.0,1651087831014312.0
14.0,1.0,-17.0,-13.0,-12.0,-3.0,-1.0,33.0,1651087831015199.0
12.0,-2.0,-9.0,3.0,-8.0,0.0,39.0,12.0,1651087831015199.0
12.0,11.0,3.0,8.0,21.0,3.0,-14.0,-29.0,1651087831028884.0
-14.0,-17.0,-2.0,2.0,-2.0,-5.0,-28.0,-7.0,1651087831028884.0
-14.0,27.0,11.0,4.0,3.0,3.0,-2.0,-27.0,1651087831035058.0
5.0,-48.0,-15.0,-21.0,-22.0,-9.0,37.0,41.0,1651087831035058.0
-6.0,10.0,-9.0,-6.0,6.0,0.0,-10.0,-29.0,1651087831052032.0
-2.0,-21.0,10.0,-7.0,-6.0,0.0,-12.0,12.0,1651087831052032.0
18.0,24.0,-5.0,31.0,22.0,11.0,1.0,-2.0,1651087831053033.0
-14.0,8.0,7.0,2.0,3.0,0.0,-14.0,-10.0,1651087831053033.0
34.0,-18.0,-19.0,-9.0,-8.0,-3.0,-11.0,-11.0,1651087831074242.0
1.0,-12.0,-25.0,-19.0,-7.0,5.0,34.0,31.0,1651087831074242.0
-14.0,-8.0,20.0,7.0,4.0,1.0,12.0,2.0,1651087831075205.0
-1.0,4.0,-6.0,-4.0,-3.0,-3.0,-18.0,-11.0,1651087831075205.0
-7.0,-19.0,-1.0,6.0,7.0,11.0,-17.0,-52.0,1651087831089135.0
5.0,3.0,-6.0,7.0,7.0,-5.0,12.0,17.0,1651087831089135.0
-9.0,-9.0,3.0,-6.0,-6.0,-4.0,-36.0,10.0,1651087831095291.0
9.0,11.0,6.0,-9.0,-5.0,3.0,33.0,16.0,1651087831095291.0
-14.0,-17.0,-2.0,6.0,2.0,-1.0,1.0,1.0,1651087831112613.0
-3.0,2.0,-16.0,-2.0,-18.0,-12.0,-17.0,-19.0,1651087831112613.0
3.0,11.0,7.0,8.0,12.0,5.0,5.0,7.0,1651087831113059.0
11.0,-15.0,-31.0,-19.0,-2.0,-2.0,-11.0,-14.0,1651087831113059.0
-29.0,51.0,31.0,-4.0,-20.0,-10.0,-47.0,-27.0,1651087831134394.0
-6.0,-1.0,-10.0,17.0,16.0,20.0,58.0,42.0,1651087831134394.0
18.0,-5.0,-11.0,-19.0,-6.0,-18.0,6.0,29.0,1651087831135260.0
-3.0,-17.0,22.0,11.0,1.0,-1.0,-15.0,-29.0,1651087831135260.0
0.0,25.0,19.0,5.0,0.0,0.0,27.0,53.0,1651087831148540.0
11.0,1.0,10.0,-3.0,-4.0,-3.0,-29.0,-45.0,1651087831148540.0
-8.0,30.0,20.0,-4.0,-8.0,0.0,21.0,11.0,1651087831155511.0
-21.0,-36.0,-1.0,7.0,12.0,6.0,-27.0,-7.0,1651087831155511.0
2.0,1.0,-13.0,-1.0,-6.0,-6.0,29.0,21.0,1651087831172248.0
1.0,-4.0,-3.0,2.0,6.0,2.0,-12.0,-17.0,1651087831172248.0
-7.0,7.0,0.0,-14.0,-10.0,-7.0,-2.0,4.0,1651087831173063.0
4.0,-10.0,10.0,3.0,0.0,-2.0,-17.0,-13.0,1651087831173063.0
-2.0,7.0,-4.0,7.0,5.0,5.0,17.0,17.0,1651087831194394.0
3.0,1.0,4.0,0.0,-11.0,-4.0,2.0,-1.0,1651087831194394.0
-7.0,18.0,-11.0,-7.0,7.0,4.0,-15.0,-17.0,1651087831195231.0
11.0,21.0,3.0,9.0,-1.0,-3.0,2.0,3.0,1651087831195231.0
-20.0,-35.0,-8.0,-12.0,-6.0,3.0,31.0,23.0,1651087831209382.0
18.0,18.0,3.0,12.0,10.0,0.0,4.0,-1.0,1651087831209382.0
-8.0,-24.0,5.0,-3.0,-9.0,-4.0,2.0,-8.0,1651087831215248.0
-9.0,14.0,1.0,-1.0,-9.0,-9.0,-15.0,15.0,1651087831215248.0
16.0,-9.0,-29.0,-6.0,15.0,4.0,-24.0,-6.0,1651087831232778.0
-5.0,3.0,6.0,-27.0,-17.0,-6.0,-25.0,1.0,1651087831232778.0
-1.0,-20.0,-6.0,21.0,7.0,4.0,38.0,20.0,1651087831233096.0
0.0,24.0,3.0,1.0,5.0,4.0,4.0,-13.0,1651087831233096.0
-4.0,-15.0,5.0,-4.0,-4.0,1.0,10.0,-3.0,1651087831254400.0
22.0,7.0,-2.0,-2.0,0.0,1.0,-14.0,-11.0,1651087831254400.0
-31.0,-20.0,-4.0,-1.0,-2.0,-2.0,-18.0,-17.0,1651087831255279.0
1.0,-1.0,2.0,1.0,3.0,3.0,14.0,16.0,1651087831255279.0
2.0,4.0,2.0,2.0,1.0,-3.0,1.0,-2.0,1651087831268430.0
-5.0,-3.0,-1.0,-2.0,1.0,-4.0,3.0,-1.0,1651087831268430.0
14.0,2.0,2.0,0.0,-7.0,-3.0,0.0,-2.0,1651087831277217.0
3.0,-2.0,-5.0,1.0,8.0,4.0,-19.0,-27.0,1651087831277217.0
3.0,-6.0,1.0,0.0,-5.0,0.0,19.0,30.0,1651087831291962.0
-7.0,2.0,-4.0,-10.0,-4.0,-4.0,0.0,-6.0,1651087831291962.0
-1.0,-7.0,3.0,17.0,8.0,4.0,-4.0,0.0,1651087831292961.0
-2.0,6.0,-6.0,-9.0,-7.0,-3.0,1.0,-2.0,1651087831292961.0
8.0,-3.0,0.0,1.0,1.0,-3.0,-3.0,-9.0,1651087831312615.0
-4.0,-1.0,1.0,2.0,1.0,2.0,4.0,3.0,1651087831312615.0
0.0,4.0,-3.0,-6.0,-1.0,5.0,-1.0,-3.0,1651087831321403.0
3.0,4.0,2.0,1.0,4.0,1.0,6.0,8.0,1651087831321403.0
-2.0,2.0,3.0,6.0,1.0,0.0,3.0,-2.0,1651087831328549.0
-2.0,12.0,-2.0,-4.0,-5.0,-8.0,-2.0,1.0,1651087831328549.0
2.0,7.0,-7.0,-7.0,-5.0,-5.0,-10.0,-7.0,1651087831336098.0
-1.0,4.0,-3.0,6.0,8.0,1.0,8.0,6.0,1651087831336098.0
2.0,-10.0,-1.0,-3.0,-3.0,0.0,0.0,0.0,1651087831352531.0
-2.0,-3.0,3.0,3.0,-1.0,-2.0,-3.0,-6.0,1651087831352531.0
2.0,-6.0,-1.0,-4.0,2.0,4.0,-5.0,-2.0,1651087831353098.0
-1.0,2.0,0.0,2.0,-2.0,-2.0,7.0,7.0,1651087831353098.0
-1.0,2.0,4.0,-6.0,-4.0,-4.0,-3.0,-5.0,1651087831374238.0
0.0,-3.0,-1.0,-1.0,1.0,-2.0,-3.0,-3.0,1651087831374238.0
-2.0,-7.0,0.0,2.0,2.0,-3.0,2.0,1.0,1651087831375268.0
0.0,-10.0,-6.0,-10.0,-5.0,7.0,5.0,5.0,1651087831375268.0
-1.0,-6.0,3.0,1.0,-1.0,-8.0,-3.0,-6.0,1651087831388365.0
-3.0,-5.0,-13.0,-1.0,4.0,9.0,7.0,3.0,1651087831388365.0
0.0,-2.0,-3.0,-1.0,2.0,16.0,2.0,4.0,1651087831397230.0
-1.0,1.0,-1.0,-7.0,-6.0,-13.0,-16.0,-4.0,1651087831397230.0
5.0,0.0,-2.0,7.0,3.0,6.0,12.0,21.0,1651087831412472.0
-10.0,-4.0,4.0,1.0,1.0,1.0,7.0,-28.0,1651087831412472.0
0.0,1.0,-7.0,-19.0,-5.0,-10.0,-12.0,-3.0,1651087831413370.0
2.0,0.0,6.0,5.0,0.0,3.0,10.0,4.0,1651087831413370.0
0.0,1.0,-9.0,-8.0,-5.0,-8.0,-8.0,-5.0,1651087831434202.0
2.0,-4.0,-7.0,0.0,-4.0,-11.0,-9.0,9.0,1651087831434202.0
-1.0,3.0,4.0,7.0,4.0,-1.0,-1.0,-4.0,1651087831435232.0
0.0,1.0,-2.0,-8.0,-2.0,-7.0,-6.0,-5.0,1651087831435232.0
-9.0,-3.0,0.0,0.0,2.0,21.0,0.0,-3.0,1651087831448217.0
5.0,-2.0,10.0,10.0,1.0,8.0,19.0,9.0,1651087831448217.0
5.0,-3.0,-6.0,-1.0,2.0,15.0,7.0,-1.0,1651087831456346.0
1.0,2.0,23.0,9.0,-1.0,3.0,-6.0,4.0,1651087831456346.0
-1.0,-3.0,-23.0,-2.0,-1.0,5.0,13.0,-5.0,1651087831471488.0
-1.0,1.0,2.0,-3.0,-1.0,-9.0,-17.0,-2.0,1651087831471488.0
-1.0,-3.0,-5.0,-3.0,-5.0,-12.0,1.0,5.0,1651087831478456.0
-2.0,-3.0,-19.0,-4.0,11.0,5.0,9.0,-1.0,1651087831478456.0
1.0,1.0,14.0,10.0,2.0,-6.0,-18.0,-4.0,1651087831495330.0
-5.0,-4.0,0.0,-4.0,-4.0,-10.0,6.0,-4.0,1651087831495330.0
1.0,1.0,-1.0,2.0,4.0,12.0,5.0,4.0,1651087831497193.0
-1.0,-2.0,11.0,-2.0,-8.0,1.0,4.0,1.0,1651087831497193.0
-2.0,-1.0,5.0,13.0,2.0,-5.0,-4.0,-2.0,1651087831507639.0
-2.0,-3.0,7.0,-15.0,-1.0,1.0,-8.0,0.0,1651087831507639.0
-2.0,-1.0,-3.0,10.0,1.0,-9.0,0.0,-3.0,1651087831516962.0
0.0,-3.0,-19.0,-17.0,-4.0,-1.0,4.0,2.0,1651087831516962.0
-1.0,3.0,13.0,15.0,0.0,-20.0,2.0,7.0,1651087831531366.0
1.0,2.0,-13.0,-8.0,-3.0,0.0,-20.0,-28.0,1651087831531366.0
-9.0,-3.0,28.0,5.0,-7.0,5.0,11.0,-4.0,1651087831538529.0
2.0,2.0,-7.0,3.0,4.0,20.0,10.0,8.0,1651087831538529.0
-5.0,-3.0,-1.0,-3.0,-4.0,-7.0,1.0,-3.0,1651087831554284.0
4.0,0.0,10.0,12.0,3.0,8.0,3.0,11.0,1651087831554284.0
-6.0,-1.0,-9.0,-9.0,-2.0,-10.0,-10.0,-4.0,1651087831555149.0
5.0,1.0,1.0,3.0,-4.0,-15.0,-8.0,-6.0,1651087831555149.0
0.0,1.0,-3.0,-1.0,0.0,6.0,8.0,2.0,1651087831568467.0
0.0,2.0,4.0,1.0,2.0,2.0,3.0,7.0,1651087831568467.0
-3.0,-4.0,-22.0,-4.0,-4.0,-5.0,-8.0,-4.0,1651087831577269.0
-2.0,-2.0,-15.0,-5.0,2.0,-5.0,1.0,5.0,1651087831577269.0
1.0,0.0,20.0,6.0,-3.0,5.0,-3.0,-5.0,1651087831591247.0
-1.0,0.0,1.0,-1.0,1.0,2.0,2.0,4.0,1651087831591247.0
2.0,-3.0,-14.0,-7.0,1.0,-5.0,-2.0,-1.0,1651087831598584.0
-4.0,1.0,13.0,6.0,0.0,-7.0,-2.0,-1.0,1651087831598584.0
-1.0,-2.0,-10.0,-8.0,-4.0,2.0,-6.0,-7.0,1651087831613840.0
0.0,2.0,5.0,10.0,0.0,-3.0,1.0,3.0,1651087831613840.0
4.0,1.0,11.0,0.0,3.0,0.0,-1.0,3.0,1651087831615729.0
-4.0,-5.0,-10.0,-3.0,0.0,2.0,1.0,-2.0,1651087831615729.0
0.0,-1.0,3.0,-6.0,0.0,-1.0,-4.0,-1.0,1651087831628528.0
1.0,1.0,-7.0,-1.0,-2.0,-1.0,2.0,2.0,1651087831628528.0
-1.0,0.0,3.0,0.0,0.0,0.0,-2.0,-1.0,1651087831636862.0
-1.0,0.0,1.0,-1.0,-2.0,-3.0,-1.0,-2.0,1651087831636862.0
1.0,-1.0,4.0,-6.0,-3.0,-3.0,-1.0,0.0,1651087831651169.0
-3.0,-2.0,-8.0,-1.0,0.0,1.0,2.0,1.0,1651087831651169.0
2.0,1.0,11.0,5.0,-2.0,-1.0,-1.0,0.0,1651087831658181.0
-1.0,-2.0,5.0,6.0,3.0,1.0,0.0,-2.0,1651087831658181.0
0.0,-3.0,-9.0,-8.0,-1.0,0.0,0.0,-1.0,1651087831674233.0
0.0,-1.0,-4.0,-1.0,1.0,0.0,0.0,1.0,1651087831674233.0
0.0,0.0,-2.0,1.0,-3.0,-2.0,-2.0,1.0,1651087831675269.0
-2.0,-1.0,7.0,3.0,-2.0,-2.0,1.0,1.0,1651087831675269.0
0.0,-2.0,-21.0,-13.0,2.0,4.0,2.0,0.0,1651087831696231.0
-1.0,-1.0,0.0,4.0,4.0,2.0,2.0,0.0,1651087831696231.0
2.0,0.0,7.0,0.0,1.0,-2.0,-2.0,2.0,1651087831698250.0
0.0,0.0,-2.0,-2.0,-5.0,-3.0,-2.0,-1.0,1651087831698250.0
1.0,1.0,1.0,0.0,-3.0,-3.0,-1.0,-2.0,1651087831711355.0
-1.0,0.0,-3.0,-1.0,-3.0,-2.0,0.0,1.0,1651087831711355.0
-1.0,1.0,0.0,0.0,1.0,1.0,0.0,0.0,1651087831718519.0
-2.0,0.0,2.0,0.0,2.0,3.0,2.0,0.0,1651087831718519.0
1.0,-1.0,-3.0,-3.0,-1.0,-1.0,0.0,0.0,1651087831734376.0
-1.0,-3.0,-17.0,-5.0,-3.0,0.0,-1.0,0.0,1651087831734376.0
1.0,-1.0,3.0,2.0,2.0,2.0,4.0,0.0,1651087831735248.0
-1.0,-1.0,-3.0,-1.0,2.0,0.0,-2.0,-1.0,1651087831735248.0
0.0,1.0,4.0,0.0,-3.0,-2.0,-1.0,-2.0,1651087831756388.0
1.0,-2.0,1.0,-5.0,-3.0,-3.0,-2.0,1.0,1651087831756388.0
-2.0,0.0,-2.0,1.0,0.0,0.0,0.0,-1.0,1651087831758253.0
-1.0,-1.0,-2.0,-3.0,-1.0,0.0,1.0,-1.0,1651087831758253.0
-2.0,-1.0,-4.0,1.0,3.0,2.0,0.0,0.0,1651087831771415.0
-1.0,0.0,0.0,-3.0,0.0,2.0,1.0,1.0,1651087831771415.0
1.0,0.0,6.0,6.0,-4.0,-4.0,-2.0,0.0,1651087831785394.0
0.0,1.0,2.0,-2.0,-2.0,-2.0,0.0,-1.0,1651087831785394.0
0.0,1.0,5.0,5.0,1.0,2.0,1.0,0.0,1651087831794396.0
0.0,1.0,4.0,-2.0,2.0,1.0,1.0,0.0,1651087831794396.0
-3.0,-5.0,-18.0,-10.0,-2.0,0.0,-1.0,-2.0,1651087831795232.0
0.0,1.0,-2.0,1.0,-3.0,-1.0,-2.0,0.0,1651087831795232.0
-1.0,-1.0,-2.0,-3.0,-2.0,-1.0,0.0,1.0,1651087831817386.0
-2.0,-1.0,7.0,3.0,-1.0,-1.0,-1.0,-2.0,1651087831817386.0
1.0,-1.0,2.0,2.0,0.0,1.0,-1.0,1.0,1651087831818222.0
-2.0,0.0,-5.0,-1.0,-3.0,-2.0,-1.0,0.0,1651087831818222.0
-1.0,0.0,1.0,-4.0,-3.0,-1.0,-1.0,-1.0,1651087831831328.0
-1.0,-1.0,1.0,5.0,5.0,4.0,0.0,0.0,1651087831831328.0
-1.0,0.0,2.0,0.0,1.0,-3.0,-1.0,0.0,1651087831839536.0
1.0,-1.0,-4.0,0.0,2.0,1.0,2.0,-1.0,1651087831839536.0
0.0,-1.0,0.0,0.0,-2.0,-4.0,-1.0,-1.0,1651087831853883.0
1.0,0.0,-3.0,-1.0,-4.0,-3.0,-1.0,0.0,1651087831853883.0
-1.0,1.0,0.0,0.0,2.0,1.0,0.0,0.0,1651087831855837.0
0.0,-2.0,2.0,0.0,0.0,0.0,-1.0,-1.0,1651087831855837.0
0.0,-1.0,-1.0,-2.0,-2.0,-1.0,1.0,-1.0,1651087831876057.0
0.0,0.0,2.0,-1.0,-1.0,-3.0,0.0,1.0,1651087831876057.0
0.0,0.0,-3.0,-3.0,-1.0,-1.0,0.0,0.0,1651087831878018.0
-1.0,-2.0,2.0,0.0,-1.0,0.0,0.0,0.0,1651087831878018.0
-2.0,0.0,-4.0,1.0,3.0,1.0,-1.0,0.0,1651087831891225.0
0.0,-1.0,-2.0,-2.0,-4.0,-1.0,-1.0,-1.0,1651087831891225.0
1.0,0.0,-1.0,0.0,-1.0,0.0,-3.0,0.0,1651087831898181.0
-1.0,-2.0,3.0,-1.0,-2.0,-1.0,-1.0,0.0,1651087831898181.0
-2.0,0.0,-2.0,-4.0,0.0,0.0,-2.0,-2.0,1651087831914426.0
0.0,0.0,6.0,4.0,0.0,-2.0,-1.0,-1.0,1651087831914426.0
0.0,1.0,6.0,-1.0,0.0,1.0,0.0,1.0,1651087831915424.0
-2.0,-1.0,-21.0,-6.0,-2.0,-2.0,-2.0,-1.0,1651087831915424.0
1.0,-1.0,-1.0,-3.0,-5.0,-3.0,-2.0,0.0,1651087831937380.0
-1.0,-1.0,2.0,1.0,2.0,-1.0,-1.0,-2.0,1651087831937380.0
-1.0,0.0,-5.0,-2.0,1.0,1.0,0.0,-1.0,1651087831938246.0
1.0,0.0,2.0,4.0,3.0,2.0,0.0,0.0,1651087831938246.0
-1.0,-3.0,3.0,4.0,0.0,0.0,-2.0,-1.0,1651087831951404.0
-3.0,0.0,-5.0,3.0,0.0,-1.0,-2.0,-1.0,1651087831951404.0
0.0,2.0,0.0,-3.0,-2.0,-2.0,-2.0,0.0,1651087831957390.0
1.0,-3.0,7.0,-2.0,-2.0,-1.0,-1.0,0.0,1651087831957390.0
-1.0,-1.0,-5.0,-1.0,4.0,0.0,1.0,-1.0,1651087831974281.0
0.0,-1.0,1.0,-2.0,-2.0,2.0,-1.0,0.0,1651087831974281.0
-2.0,-2.0,4.0,5.0,1.0,1.0,0.0,0.0,1651087831975263.0
-1.0,1.0,-5.0,-2.0,-2.0,-1.0,-2.0,-2.0,1651087831975263.0
0.0,1.0,9.0,5.0,-1.0,-1.0,1.0,-1.0,1651087831996220.0
1.0,-2.0,-15.0,-6.0,-5.0,-6.0,0.0,1.0,1651087831996220.0
1.0,2.0,-2.0,-4.0,2.0,1.0,0.0,-2.0,1651087831998214.0
-1.0,0.0,10.0,10.0,13.0,7.0,5.0,-1.0,1651087831998214.0
-2.0,1.0,-2.0,-5.0,-3.0,0.0,-2.0,0.0,1651087832011364.0
-1.0,0.0,1.0,1.0,-1.0,-1.0,-1.0,-1.0,1651087832011364.0
1.0,-4.0,-7.0,-4.0,-7.0,-3.0,0.0,-1.0,1651087832018442.0
1.0,0.0,2.0,-7.0,-8.0,-5.0,-3.0,-2.0,1651087832018442.0
0.0,-3.0,-4.0,-1.0,-1.0,0.0,-1.0,-1.0,1651087832034400.0
-1.0,1.0,1.0,4.0,7.0,4.0,1.0,0.0,1651087832034400.0
0.0,-1.0,1.0,-3.0,-2.0,-1.0,-1.0,-1.0,1651087832035258.0
-1.0,0.0,5.0,4.0,6.0,1.0,0.0,0.0,1651087832035258.0
1.0,1.0,-2.0,-1.0,0.0,1.0,2.0,0.0,1651087832056375.0
0.0,-1.0,-1.0,0.0,-5.0,-3.0,-2.0,0.0,1651087832056375.0
-3.0,-1.0,-1.0,2.0,0.0,-2.0,-1.0,-1.0,1651087832058231.0
-2.0,-1.0,0.0,-5.0,-6.0,-3.0,0.0,1.0,1651087832058231.0
-1.0,-1.0,-3.0,2.0,4.0,3.0,3.0,1.0,1651087832071392.0
0.0,-1.0,-9.0,-9.0,0.0,2.0,-1.0,0.0,1651087832071392.0
-1.0,-3.0,5.0,5.0,-3.0,-2.0,-1.0,0.0,1651087832078451.0
1.0,2.0,-4.0,0.0,0.0,-1.0,-1.0,0.0,1651087832078451.0
1.0,-2.0,-4.0,-5.0,-1.0,-2.0,-2.0,-2.0,1651087832094394.0
-3.0,-2.0,0.0,-5.0,-5.0,-2.0,0.0,-1.0,1651087832094394.0
-1.0,-1.0,0.0,-1.0,3.0,1.0,2.0,0.0,1651087832095228.0
0.0,0.0,-8.0,-3.0,-6.0,-3.0,-2.0,-1.0,1651087832095228.0
-2.0,0.0,2.0,-1.0,-2.0,-1.0,-1.0,-1.0,1651087832117060.0
-1.0,0.0,0.0,-1.0,3.0,2.0,0.0,-1.0,1651087832117060.0
0.0,-2.0,4.0,-2.0,-4.0,-2.0,-2.0,0.0,1651087832118060.0
-2.0,-2.0,3.0,6.0,1.0,0.0,1.0,0.0,1651087832118060.0
1.0,4.0,-3.0,0.0,-2.0,-2.0,0.0,0.0,1651087832131313.0
1.0,-10.0,4.0,-2.0,3.0,1.0,0.0,-1.0,1651087832131313.0
-1.0,-2.0,-8.0,-3.0,1.0,0.0,0.0,-2.0,1651087832138597.0
-1.0,-1.0,2.0,-2.0,0.0,-1.0,0.0,-1.0,1651087832138597.0
-2.0,-3.0,-2.0,-3.0,-4.0,-2.0,-1.0,0.0,1651087832154391.0
-1.0,10.0,4.0,1.0,-7.0,-3.0,-1.0,0.0,1651087832154391.0
0.0,-1.0,3.0,-1.0,3.0,2.0,0.0,0.0,1651087832155269.0
1.0,-4.0,-7.0,-2.0,-7.0,-4.0,-3.0,-1.0,1651087832155269.0
0.0,0.0,-10.0,2.0,8.0,2.0,-2.0,0.0,1651087832177412.0
-2.0,-1.0,5.0,6.0,2.0,1.0,3.0,0.0,1651087832177412.0
-1.0,0.0,2.0,-7.0,1.0,-2.0,0.0,0.0,1651087832178398.0
1.0,-1.0,-4.0,2.0,-3.0,-1.0,0.0,0.0,1651087832178398.0
0.0,-4.0,2.0,-8.0,-5.0,-2.0,0.0,0.0,1651087832190237.0
-1.0,0.0,-3.0,-3.0,-1.0,-3.0,-3.0,-1.0,1651087832190237.0
-1.0,-1.0,-6.0,-4.0,-9.0,-3.0,-1.0,0.0,1651087832199228.0
0.0,-1.0,-2.0,-11.0,-6.0,-3.0,-1.0,0.0,1651087832199228.0
1.0,1.0,-1.0,11.0,15.0,8.0,3.0,2.0,1651087832214168.0
0.0,3.0,-2.0,-1.0,0.0,2.0,0.0,-1.0,1651087832214168.0
-1.0,-8.0,1.0,3.0,0.0,1.0,-1.0,-2.0,1651087832216023.0
-1.0,-1.0,2.0,-3.0,-12.0,-4.0,-3.0,-3.0,1651087832216023.0
-1.0,-1.0,6.0,7.0,12.0,4.0,1.0,-3.0,1651087832237031.0
0.0,0.0,-4.0,-4.0,-1.0,-2.0,0.0,-1.0,1651087832237031.0
0.0,2.0,2.0,2.0,-5.0,-3.0,0.0,1.0,1651087832238031.0
-1.0,0.0,-4.0,-5.0,-1.0,-1.0,-1.0,-1.0,1651087832238031.0
-2.0,0.0,1.0,2.0,-3.0,-2.0,-1.0,-1.0,1651087832250506.0
1.0,-2.0,-3.0,-1.0,-2.0,-1.0,0.0,0.0,1651087832250506.0
0.0,0.0,5.0,7.0,3.0,1.0,0.0,-1.0,1651087832259070.0
-3.0,-1.0,3.0,-3.0,5.0,1.0,1.0,1.0,1651087832259070.0
1.0,4.0,0.0,-4.0,-8.0,-2.0,-2.0,0.0,1651087832274204.0
-1.0,-2.0,2.0,3.0,1.0,-2.0,0.0,0.0,1651087832274204.0
-2.0,0.0,-1.0,-4.0,-7.0,-2.0,-2.0,0.0,1651087832275233.0
1.0,1.0,10.0,16.0,19.0,7.0,1.0,-1.0,1651087832275233.0
0.0,-3.0,-4.0,-4.0,-7.0,-3.0,-3.0,-1.0,1651087832296353.0
0.0,-5.0,2.0,1.0,-1.0,1.0,-2.0,-1.0,1651087832296353.0
1.0,2.0,0.0,-2.0,-2.0,-1.0,-1.0,0.0,1651087832298210.0
0.0,0.0,2.0,3.0,0.0,0.0,1.0,-1.0,1651087832298210.0
0.0,-1.0,4.0,-1.0,4.0,0.0,-1.0,0.0,1651087832310677.0
-2.0,0.0,-5.0,0.0,2.0,0.0,0.0,0.0,1651087832310677.0
0.0,1.0,-2.0,-1.0,-1.0,-1.0,0.0,-1.0,1651087832319068.0
-1.0,-2.0,0.0,-4.0,-5.0,-1.0,-1.0,0.0,1651087832319068.0
-1.0,-1.0,-11.0,-2.0,-5.0,-2.0,0.0,0.0,1651087832333219.0
-1.0,-2.0,1.0,-3.0,0.0,0.0,-3.0,-1.0,1651087832333219.0
1.0,0.0,-1.0,6.0,3.0,2.0,-1.0,1.0,1651087832341373.0
-1.0,1.0,-4.0,-4.0,-1.0,0.0,-1.0,1.0,1651087832341373.0
2.0,-1.0,7.0,-1.0,-8.0,-5.0,0.0,-1.0,1651087832356345.0
-1.0,-1.0,-1.0,5.0,6.0,3.0,2.0,-1.0,1651087832356345.0
0.0,4.0,-4.0,-2.0,-1.0,-1.0,0.0,0.0,1651087832358200.0
0.0,4.0,4.0,4.0,1.0,0.0,2.0,0.0,1651087832358200.0
-4.0,-7.0,-6.0,-5.0,-8.0,-6.0,0.0,-2.0,1651087832370651.0
0.0,-1.0,0.0,-5.0,-5.0,-3.0,-1.0,-1.0,1651087832370651.0
-1.0,0.0,6.0,-8.0,-9.0,-4.0,-1.0,-2.0,1651087832379073.0
0.0,-4.0,-6.0,13.0,17.0,5.0,1.0,-1.0,1651087832379073.0
-2.0,5.0,1.0,-1.0,9.0,6.0,1.0,0.0,1651087832394244.0
1.0,-4.0,-3.0,-1.0,-4.0,-4.0,-1.0,0.0,1651087832394244.0
-1.0,-2.0,-5.0,-2.0,-1.0,-2.0,0.0,1.0,1651087832395232.0
-1.0,-3.0,2.0,-9.0,-12.0,-4.0,-1.0,-1.0,1651087832395232.0
-1.0,-3.0,-9.0,-5.0,-4.0,-2.0,1.0,-2.0,1651087832416514.0
0.0,1.0,6.0,4.0,2.0,0.0,-2.0,0.0,1651087832416514.0
-2.0,-2.0,-12.0,0.0,1.0,-1.0,-1.0,-2.0,1651087832418410.0
-1.0,-2.0,-8.0,-10.0,-5.0,-1.0,-1.0,-2.0,1651087832418410.0
-1.0,-2.0,1.0,1.0,4.0,3.0,-1.0,0.0,1651087832430343.0
0.0,1.0,2.0,-4.0,-5.0,-2.0,1.0,0.0,1651087832430343.0
-2.0,-1.0,-3.0,2.0,-1.0,0.0,0.0,0.0,1651087832439319.0
0.0,0.0,-3.0,-3.0,3.0,1.0,0.0,0.0,1651087832439319.0
-1.0,-1.0,4.0,5.0,0.0,0.0,-2.0,-1.0,1651087832454058.0
1.0,2.0,-4.0,-6.0,-4.0,-2.0,-1.0,0.0,1651087832454058.0
1.0,3.0,2.0,2.0,4.0,3.0,-1.0,0.0,1651087832456052.0
-3.0,-9.0,-3.0,1.0,0.0,-1.0,0.0,-3.0,1651087832456052.0
-2.0,1.0,3.0,-3.0,-4.0,-2.0,0.0,0.0,1651087832477029.0
-2.0,-1.0,1.0,0.0,-1.0,0.0,-1.0,0.0,1651087832477029.0
-2.0,10.0,6.0,1.0,0.0,-2.0,1.0,-1.0,1651087832477995.0
1.0,1.0,-1.0,-4.0,-3.0,-1.0,-1.0,0.0,1651087832477995.0
2.0,0.0,-4.0,-3.0,-7.0,-3.0,-1.0,-2.0,1651087832490169.0
-3.0,-4.0,5.0,9.0,17.0,5.0,0.0,-1.0,1651087832490169.0
-1.0,-5.0,-14.0,-6.0,-4.0,-3.0,1.0,1.0,1651087832499590.0
0.0,2.0,1.0,5.0,6.0,1.0,-1.0,-1.0,1651087832499590.0
1.0,-2.0,1.0,-2.0,-4.0,-3.0,0.0,1.0,1651087832514835.0
1.0,1.0,1.0,-2.0,-2.0,0.0,-2.0,0.0,1651087832514835.0
0.0,-4.0,-2.0,-4.0,-3.0,0.0,-2.0,-1.0,1651087832516685.0
1.0,3.0,3.0,13.0,19.0,4.0,1.0,2.0,1651087832516685.0
-1.0,-2.0,3.0,4.0,0.0,-1.0,-2.0,-2.0,1651087832536381.0
1.0,2.0,-6.0,-6.0,-7.0,-3.0,0.0,0.0,1651087832536381.0
-2.0,-8.0,2.0,6.0,8.0,-1.0,-1.0,-1.0,1651087832538375.0
1.0,5.0,6.0,-1.0,-6.0,0.0,0.0,0.0,1651087832538375.0
-2.0,1.0,4.0,1.0,2.0,1.0,0.0,-2.0,1651087832550343.0
1.0,-2.0,-21.0,-11.0,-8.0,-4.0,0.0,0.0,1651087832550343.0
-1.0,-2.0,1.0,-1.0,3.0,2.0,-1.0,-1.0,1651087832559321.0
1.0,-3.0,-11.0,-12.0,-12.0,-8.0,-5.0,0.0,1651087832559321.0
-2.0,-1.0,10.0,6.0,5.0,2.0,0.0,0.0,1651087832574279.0
-2.0,-8.0,-7.0,4.0,1.0,3.0,2.0,-1.0,1651087832574279.0
0.0,4.0,2.0,0.0,-1.0,-1.0,-1.0,0.0,1651087832575277.0
0.0,-1.0,-3.0,-3.0,-6.0,-1.0,0.0,1.0,1651087832575277.0
1.0,-2.0,-2.0,-5.0,-1.0,-2.0,-2.0,0.0,1651087832596162.0
1.0,-1.0,3.0,2.0,-2.0,-2.0,0.0,0.0,1651087832596162.0
0.0,-1.0,-1.0,-1.0,-3.0,-1.0,-1.0,-2.0,1651087832598116.0
-1.0,-1.0,3.0,0.0,0.0,0.0,2.0,-2.0,1651087832598116.0
-1.0,-2.0,-5.0,1.0,-5.0,-4.0,0.0,-1.0,1651087832619133.0
-1.0,3.0,1.0,-7.0,2.0,3.0,2.0,0.0,1651087832619133.0
-1.0,-9.0,1.0,7.0,1.0,-1.0,2.0,-1.0,1651087832620175.0
1.0,7.0,4.0,0.0,-4.0,-4.0,-2.0,1.0,1651087832620175.0
2.0,-2.0,-5.0,-4.0,-10.0,-5.0,-2.0,-2.0,1651087832634146.0
-2.0,-4.0,-2.0,-1.0,3.0,0.0,-1.0,-1.0,1651087832634146.0
0.0,6.0,2.0,-8.0,-1.0,4.0,0.0,0.0,1651087832635102.0
-1.0,-19.0,-3.0,5.0,1.0,-1.0,-1.0,-1.0,1651087832635102.0
0.0,19.0,4.0,14.0,24.0,5.0,4.0,1.0,1651087832656168.0
0.0,3.0,6.0,-1.0,-6.0,-5.0,-2.0,-2.0,1651087832656168.0
1.0,1.0,-6.0,-7.0,-4.0,-3.0,-1.0,-1.0,1651087832658121.0
0.0,-1.0,0.0,3.0,0.0,3.0,0.0,1.0,1651087832658121.0
-1.0,-2.0,3.0,-3.0,-4.0,-2.0,0.0,0.0,1651087832679115.0
0.0,-2.0,0.0,0.0,-2.0,-1.0,0.0,-1.0,1651087832679115.0
-2.0,-4.0,1.0,1.0,0.0,-1.0,0.0,1.0,1651087832680157.0
-2.0,1.0,-2.0,-5.0,-4.0,-2.0,-1.0,-1.0,1651087832680157.0
-1.0,-6.0,-6.0,-5.0,2.0,1.0,-1.0,1.0,1651087832694165.0
0.0,8.0,1.0,-5.0,-12.0,-8.0,-4.0,-2.0,1651087832694165.0
-3.0,-16.0,6.0,7.0,5.0,2.0,0.0,-2.0,1651087832695120.0
2.0,16.0,4.0,-6.0,-2.0,3.0,2.0,0.0,1651087832695120.0
-1.0,-7.0,-21.0,5.0,8.0,3.0,0.0,0.0,1651087832716273.0
-2.0,-5.0,-7.0,-2.0,1.0,0.0,0.0,0.0,1651087832716273.0
2.0,7.0,4.0,4.0,-3.0,-3.0,0.0,1.0,1651087832718194.0
-3.0,-2.0,-1.0,-7.0,-3.0,-3.0,0.0,-2.0,1651087832718194.0
0.0,-3.0,0.0,-8.0,-19.0,-5.0,-2.0,-1.0,1651087832739202.0
0.0,-5.0,9.0,15.0,19.0,5.0,1.0,-1.0,1651087832739202.0
0.0,0.0,-3.0,0.0,0.0,-1.0,-2.0,0.0,1651087832740203.0
0.0,0.0,-3.0,3.0,11.0,0.0,-1.0,-1.0,1651087832740203.0
0.0,-2.0,1.0,-12.0,-13.0,-3.0,-3.0,0.0,1651087832754274.0
0.0,-25.0,-16.0,-22.0,-35.0,-12.0,-3.0,-3.0,1651087832754274.0
-4.0,48.0,28.0,22.0,21.0,8.0,-5.0,-30.0,1651087832761305.0
0.0,6.0,-4.0,-31.0,-27.0,-6.0,8.0,33.0,1651087832761305.0
1.0,-8.0,7.0,38.0,37.0,9.0,2.0,5.0,1651087832777337.0
1.0,-2.0,4.0,-2.0,2.0,0.0,0.0,5.0,1651087832777337.0
-1.0,-15.0,-6.0,21.0,24.0,1.0,-1.0,-1.0,1651087832778222.0
-2.0,2.0,-5.0,0.0,-15.0,-5.0,-5.0,-13.0,1651087832778222.0
-1.0,5.0,5.0,-12.0,-10.0,-3.0,-1.0,-3.0,1651087832799397.0
-3.0,8.0,0.0,-27.0,-24.0,-10.0,0.0,-2.0,1651087832799397.0
1.0,-23.0,-6.0,-8.0,-24.0,-10.0,-1.0,3.0,1651087832800397.0
-2.0,14.0,6.0,13.0,6.0,0.0,-5.0,-8.0,1651087832800397.0
0.0,-2.0,-3.0,-10.0,-10.0,-3.0,0.0,4.0,1651087832813356.0
1.0,9.0,4.0,22.0,21.0,7.0,1.0,-3.0,1651087832813356.0
-2.0,-13.0,-1.0,-34.0,-24.0,-7.0,-1.0,4.0,1651087832820360.0
1.0,-4.0,-9.0,24.0,34.0,10.0,1.0,-1.0,1651087832820360.0
1.0,5.0,3.0,-21.0,1.0,1.0,0.0,-2.0,1651087832837245.0
-1.0,11.0,7.0,27.0,12.0,5.0,-1.0,-1.0,1651087832837245.0
2.0,6.0,-2.0,-1.0,-4.0,0.0,5.0,3.0,1651087832838227.0
-2.0,-9.0,-2.0,-11.0,-16.0,-5.0,-2.0,-12.0,1651087832838227.0
2.0,3.0,0.0,-12.0,-8.0,-8.0,-9.0,4.0,1651087832859172.0
2.0,-6.0,1.0,2.0,6.0,3.0,1.0,5.0,1651087832859172.0
-1.0,-8.0,-11.0,-12.0,-11.0,-5.0,-1.0,5.0,1651087832860483.0
-4.0,-4.0,4.0,12.0,16.0,8.0,3.0,-6.0,1651087832860483.0
-1.0,0.0,-5.0,-10.0,-4.0,0.0,0.0,-8.0,1651087832873148.0
0.0,-1.0,2.0,7.0,1.0,1.0,0.0,2.0,1651087832873148.0
-1.0,1.0,0.0,2.0,5.0,0.0,1.0,3.0,1651087832881248.0
-2.0,-3.0,-2.0,-6.0,-16.0,-8.0,-4.0,-4.0,1651087832881248.0
-3.0,-5.0,7.0,2.0,-6.0,-4.0,-1.0,-2.0,1651087832897328.0
1.0,3.0,-14.0,2.0,2.0,0.0,-1.0,0.0,1651087832897328.0
-1.0,4.0,1.0,-12.0,5.0,5.0,-3.0,-11.0,1651087832898224.0
1.0,-13.0,-10.0,-1.0,11.0,7.0,7.0,14.0,1651087832898224.0
0.0,-2.0,10.0,8.0,-2.0,-4.0,1.0,5.0,1651087832920220.0
-3.0,6.0,23.0,10.0,1.0,2.0,1.0,-6.0,1651087832920220.0
0.0,1.0,-11.0,-10.0,-10.0,-5.0,-1.0,4.0,1651087832922246.0
-1.0,-2.0,-10.0,-3.0,0.0,-3.0,-4.0,-6.0,1651087832922246.0
2.0,4.0,-2.0,4.0,-1.0,3.0,-1.0,-14.0,1651087832933162.0
-2.0,-11.0,-7.0,-14.0,0.0,0.0,-4.0,4.0,1651087832933162.0
0.0,0.0,5.0,8.0,0.0,-3.0,-7.0,-17.0,1651087832941361.0
5.0,3.0,-2.0,-10.0,-12.0,-7.0,6.0,32.0,1651087832941361.0
-3.0,-12.0,0.0,11.0,10.0,7.0,8.0,8.0,1651087832956644.0
1.0,3.0,0.0,7.0,1.0,-3.0,1.0,-7.0,1651087832956644.0
2.0,-1.0,-3.0,-4.0,0.0,5.0,-2.0,7.0,1651087832958494.0
-2.0,3.0,10.0,5.0,-8.0,-2.0,-5.0,-19.0,1651087832958494.0
1.0,7.0,-6.0,-26.0,-7.0,-3.0,-3.0,-3.0,1651087832979223.0
-4.0,-4.0,2.0,8.0,5.0,-1.0,-4.0,-3.0,1651087832979223.0
-3.0,-3.0,18.0,16.0,4.0,3.0,2.0,5.0,1651087832980256.0
2.0,2.0,-36.0,-16.0,-4.0,0.0,0.0,-1.0,1651087832980256.0
-2.0,-3.0,0.0,-8.0,2.0,-1.0,-3.0,-2.0,1651087832993183.0
-1.0,2.0,3.0,-1.0,-5.0,-4.0,-3.0,-5.0,1651087832993183.0
0.0,-2.0,-11.0,4.0,3.0,4.0,11.0,5.0,1651087833001386.0
-3.0,-2.0,11.0,2.0,5.0,3.0,-5.0,-8.0,1651087833001386.0
0.0,2.0,-10.0,-19.0,-22.0,-18.0,3.0,-4.0,1651087833016352.0
-3.0,-10.0,-9.0,-4.0,-7.0,-2.0,-8.0,3.0,1651087833016352.0
2.0,6.0,26.0,22.0,20.0,-1.0,-8.0,13.0,1651087833018198.0
2.0,2.0,0.0,-12.0,-6.0,3.0,2.0,-4.0,1651087833018198.0
-4.0,-3.0,-9.0,6.0,8.0,7.0,-2.0,-9.0,1651087833039222.0
4.0,10.0,13.0,-16.0,-12.0,-3.0,7.0,15.0,1651087833039222.0
3.0,3.0,-10.0,1.0,2.0,-1.0,-4.0,-2.0,1651087833040223.0
-2.0,-8.0,1.0,5.0,0.0,-3.0,-3.0,-9.0,1651087833040223.0
-4.0,-7.0,8.0,2.0,-3.0,2.0,-2.0,-1.0,1651087833053171.0
0.0,4.0,-4.0,-4.0,-3.0,1.0,3.0,-5.0,1651087833053171.0
-5.0,-5.0,-9.0,-7.0,-8.0,-15.0,-15.0,3.0,1651087833062160.0
4.0,6.0,23.0,13.0,10.0,26.0,13.0,-23.0,1651087833062160.0
-2.0,1.0,2.0,9.0,5.0,6.0,11.0,11.0,1651087833077462.0
4.0,24.0,3.0,-3.0,-1.0,4.0,10.0,6.0,1651087833077462.0
-7.0,-29.0,-7.0,2.0,10.0,-2.0,-10.0,-2.0,1651087833078494.0
-3.0,-6.0,-17.0,-27.0,-8.0,-13.0,-4.0,9.0,1651087833078494.0
-1.0,2.0,2.0,15.0,0.0,1.0,-4.0,-1.0,1651087833099362.0
-15.0,-6.0,8.0,7.0,5.0,1.0,-1.0,-9.0,1651087833099362.0
8.0,14.0,-8.0,-6.0,-6.0,2.0,10.0,4.0,1651087833100363.0
8.0,3.0,0.0,0.0,-4.0,-5.0,-5.0,-7.0,1651087833100363.0
3.0,5.0,22.0,12.0,-1.0,13.0,-7.0,-24.0,1651087833112399.0
-11.0,-13.0,-15.0,-12.0,-5.0,-32.0,-23.0,24.0,1651087833112399.0
0.0,5.0,9.0,2.0,1.0,7.0,20.0,29.0,1651087833121574.0
-2.0,-9.0,12.0,18.0,14.0,1.0,1.0,-6.0,1651087833121574.0
5.0,2.0,-21.0,-6.0,-5.0,-4.0,0.0,7.0,1651087833137383.0
-1.0,-3.0,17.0,10.0,2.0,9.0,-10.0,-33.0,1651087833137383.0
-1.0,-3.0,-6.0,-20.0,-10.0,-4.0,0.0,-7.0,1651087833138255.0
-6.0,3.0,-4.0,18.0,7.0,-5.0,-1.0,12.0,1651087833138255.0
1.0,2.0,-15.0,-17.0,-6.0,0.0,4.0,-5.0,1651087833159236.0
4.0,-7.0,-13.0,-7.0,7.0,4.0,4.0,-3.0,1651087833159236.0
-1.0,3.0,12.0,11.0,4.0,-1.0,-4.0,-13.0,1651087833160267.0
4.0,14.0,33.0,23.0,-1.0,-2.0,-1.0,11.0,1651087833160267.0
-5.0,-12.0,-26.0,-37.0,-16.0,-6.0,-4.0,-1.0,1651087833173224.0
0.0,-5.0,-22.0,-9.0,0.0,3.0,5.0,-2.0,1651087833173224.0
10.0,16.0,-6.0,8.0,3.0,3.0,-7.0,9.0,1651087833181588.0
-10.0,-16.0,-4.0,-17.0,-8.0,-2.0,12.0,-4.0,1651087833181588.0
-5.0,-3.0,6.0,25.0,11.0,0.0,-1.0,9.0,1651087833196220.0
10.0,10.0,6.0,-3.0,-3.0,-12.0,-8.0,-15.0,1651087833196220.0
-4.0,-6.0,-9.0,-20.0,-14.0,-16.0,10.0,-5.0,1651087833198215.0
0.0,4.0,9.0,8.0,-1.0,21.0,-8.0,-2.0,1651087833198215.0
-6.0,4.0,9.0,15.0,7.0,1.0,4.0,-3.0,1651087833219241.0
9.0,-8.0,-12.0,1.0,0.0,6.0,13.0,18.0,1651087833219241.0
0.0,14.0,3.0,-6.0,-1.0,2.0,-2.0,-17.0,1651087833220273.0
2.0,-7.0,-1.0,0.0,-1.0,-11.0,-1.0,2.0,1651087833220273.0
-7.0,14.0,9.0,-1.0,1.0,-2.0,0.0,9.0,1651087833233248.0
3.0,-7.0,0.0,14.0,11.0,-4.0,-10.0,10.0,1651087833233248.0
-9.0,-18.0,3.0,-5.0,-3.0,5.0,-29.0,-39.0,1651087833241391.0
-8.0,-13.0,-6.0,-4.0,-3.0,-5.0,28.0,30.0,1651087833241391.0
8.0,17.0,23.0,15.0,10.0,11.0,13.0,24.0,1651087833256386.0
-12.0,-6.0,-22.0,-8.0,-8.0,-3.0,2.0,1.0,1651087833256386.0
-5.0,-3.0,14.0,0.0,-4.0,-1.0,7.0,5.0,1651087833258252.0
-1.0,1.0,-14.0,-10.0,-1.0,-4.0,-17.0,-15.0,1651087833258252.0
8.0,0.0,-5.0,-6.0,-5.0,-11.0,-17.0,-16.0,1651087833279211.0
3.0,8.0,36.0,-6.0,-7.0,2.0,5.0,1.0,1651087833279211.0
2.0,1.0,-29.0,-1.0,3.0,-2.0,1.0,3.0,1651087833280240.0
-9.0,-9.0,7.0,4.0,0.0,8.0,-3.0,-9.0,1651087833280240.0
1.0,-10.0,-2.0,6.0,7.0,-6.0,-11.0,3.0,1651087833293327.0
-4.0,-2.0,-6.0,2.0,-5.0,2.0,3.0,-9.0,1651087833293327.0
3.0,-4.0,8.0,4.0,7.0,0.0,7.0,4.0,1651087833302245.0
-2.0,6.0,-4.0,-17.0,-8.0,-7.0,-4.0,-17.0,1651087833302245.0
2.0,-7.0,-8.0,4.0,4.0,-3.0,-2.0,4.0,1651087833317065.0
-5.0,5.0,16.0,11.0,1.0,5.0,11.0,16.0,1651087833317065.0
1.0,-4.0,-11.0,1.0,-1.0,2.0,-4.0,-5.0,1651087833318066.0
7.0,10.0,-12.0,-3.0,0.0,-5.0,-16.0,-6.0,1651087833318066.0
-6.0,-13.0,3.0,-5.0,-14.0,-4.0,8.0,0.0,1651087833339242.0
0.0,-3.0,3.0,14.0,12.0,9.0,-7.0,-12.0,1651087833339242.0
5.0,11.0,-19.0,-15.0,-4.0,4.0,28.0,27.0,1651087833340244.0
0.0,7.0,27.0,24.0,5.0,1.0,-6.0,5.0,1651087833340244.0
-7.0,-30.0,-24.0,-2.0,2.0,-4.0,-5.0,-16.0,1651087833353219.0
7.0,9.0,-3.0,-14.0,-7.0,-1.0,4.0,18.0,1651087833353219.0
-4.0,-4.0,-8.0,8.0,4.0,4.0,0.0,-25.0,1651087833361395.0
5.0,5.0,4.0,-10.0,-7.0,-10.0,-12.0,8.0,1651087833361395.0
-4.0,6.0,-3.0,12.0,3.0,1.0,0.0,-9.0,1651087833377507.0
-4.0,-3.0,6.0,2.0,0.0,0.0,0.0,-10.0,1651087833377507.0
2.0,-2.0,2.0,-8.0,1.0,6.0,-16.0,-6.0,1651087833378405.0
0.0,-1.0,-2.0,13.0,8.0,2.0,22.0,14.0,1651087833378405.0
10.0,7.0,-9.0,-4.0,1.0,0.0,-2.0,1.0,1651087833399243.0
0.0,-7.0,10.0,9.0,3.0,1.0,-4.0,7.0,1651087833399243.0
-6.0,-15.0,-64.0,-33.0,-10.0,-2.0,-2.0,2.0,1651087833400275.0
-9.0,-4.0,18.0,12.0,-2.0,1.0,-4.0,-14.0,1651087833400275.0
10.0,9.0,-3.0,-14.0,-8.0,-10.0,3.0,28.0,1651087833412225.0
-2.0,2.0,3.0,1.0,0.0,7.0,13.0,-6.0,1651087833412225.0
-8.0,0.0,4.0,11.0,10.0,-1.0,-6.0,-4.0,1651087833421351.0
13.0,10.0,4.0,4.0,2.0,-8.0,-8.0,-4.0,1651087833421351.0
-7.0,-10.0,-20.0,-21.0,-7.0,5.0,7.0,4.0,1651087833437669.0
2.0,-6.0,-7.0,3.0,4.0,1.0,-12.0,-12.0,1651087833437669.0
4.0,16.0,34.0,9.0,3.0,-3.0,6.0,13.0,1651087833437669.0
-5.0,-7.0,-35.0,1.0,4.0,5.0,-4.0,-18.0,1651087833437669.0
-8.0,-8.0,13.0,-1.0,-6.0,-4.0,-12.0,8.0,1651087833460066.0
2.0,-1.0,-12.0,-18.0,-10.0,-5.0,14.0,5.0,1651087833460066.0
1.0,0.0,19.0,14.0,-2.0,-2.0,-2.0,1.0,1651087833460983.0
-1.0,-5.0,-10.0,-13.0,-2.0,-2.0,-5.0,2.0,1651087833460983.0
-3.0,14.0,8.0,17.0,9.0,4.0,-6.0,-1.0,1651087833473208.0
2.0,-12.0,-18.0,-18.0,-4.0,2.0,6.0,7.0,1651087833473208.0
6.0,4.0,6.0,19.0,9.0,8.0,5.0,3.0,1651087833482124.0
6.0,-7.0,-31.0,-23.0,-11.0,-16.0,3.0,18.0,1651087833482124.0
-4.0,-2.0,-14.0,-21.0,-10.0,1.0,2.0,-14.0,1651087833496413.0
1.0,9.0,5.0,3.0,9.0,5.0,-1.0,0.0,1651087833496413.0
6.0,3.0,19.0,13.0,-3.0,-10.0,-11.0,16.0,1651087833498443.0
0.0,-1.0,15.0,-9.0,-2.0,-3.0,1.0,-5.0,1651087833498443.0
0.0,-4.0,0.0,-3.0,1.0,1.0,-3.0,-6.0,1651087833519225.0
-3.0,7.0,11.0,11.0,1.0,5.0,-3.0,-7.0,1651087833519225.0
-4.0,-1.0,-18.0,-14.0,-13.0,-13.0,6.0,-9.0,1651087833520226.0
-7.0,-5.0,33.0,12.0,3.0,2.0,-17.0,-6.0,1651087833520226.0
7.0,-2.0,8.0,15.0,10.0,1.0,9.0,27.0,1651087833533218.0
1.0,15.0,-5.0,-12.0,-9.0,2.0,-2.0,-10.0,1651087833533218.0
-8.0,-19.0,3.0,6.0,-13.0,-3.0,-3.0,0.0,1651087833541350.0
-6.0,-13.0,-15.0,-28.0,5.0,6.0,11.0,-9.0,1651087833541350.0
16.0,5.0,22.0,5.0,1.0,-5.0,-22.0,-21.0,1651087833556363.0
-11.0,1.0,-7.0,12.0,6.0,3.0,-7.0,-3.0,1651087833556363.0
-4.0,-1.0,-17.0,-5.0,-2.0,-1.0,-1.0,-3.0,1651087833558203.0
-7.0,0.0,-6.0,-6.0,-5.0,3.0,11.0,15.0,1651087833558203.0
-5.0,-6.0,2.0,13.0,3.0,0.0,-1.0,-9.0,1651087833579542.0
14.0,5.0,20.0,-5.0,2.0,-7.0,-1.0,1.0,1651087833579542.0
-2.0,-2.0,-12.0,-5.0,-6.0,-1.0,-4.0,-5.0,1651087833580504.0
1.0,2.0,3.0,-1.0,2.0,6.0,-1.0,2.0,1651087833580504.0
-14.0,-3.0,4.0,8.0,3.0,2.0,-7.0,-21.0,1651087833602021.0
1.0,-5.0,-4.0,-8.0,-9.0,-14.0,0.0,11.0,1651087833602021.0
3.0,7.0,5.0,2.0,8.0,6.0,9.0,9.0,1651087833603023.0
-2.0,-8.0,17.0,-3.0,-8.0,0.0,7.0,6.0,1651087833603023.0
4.0,-4.0,-18.0,6.0,-9.0,-4.0,-4.0,0.0,1651087833616939.0
-6.0,-9.0,1.0,-3.0,1.0,5.0,2.0,-12.0,1651087833616939.0
-1.0,8.0,9.0,-6.0,12.0,7.0,1.0,-12.0,1651087833617940.0
7.0,16.0,9.0,18.0,0.0,-6.0,6.0,14.0,1651087833617940.0
2.0,-1.0,-3.0,-19.0,-7.0,1.0,9.0,0.0,1651087833639203.0
-2.0,-8.0,17.0,21.0,-1.0,2.0,1.0,-6.0,1651087833639203.0
-9.0,-8.0,-2.0,-8.0,-4.0,-1.0,-2.0,-8.0,1651087833640205.0
2.0,4.0,-13.0,-12.0,-12.0,0.0,-4.0,-3.0,1651087833640205.0
-1.0,3.0,6.0,14.0,9.0,-2.0,-6.0,-2.0,1651087833661507.0
5.0,2.0,-9.0,3.0,5.0,-6.0,-4.0,1.0,1651087833661507.0
5.0,1.0,15.0,-2.0,5.0,7.0,8.0,23.0,1651087833662507.0
0.0,4.0,-13.0,-5.0,-3.0,-4.0,-7.0,-7.0,1651087833662507.0
-8.0,-2.0,17.0,5.0,0.0,3.0,7.0,-3.0,1651087833676318.0
1.0,0.0,-28.0,-21.0,-6.0,-9.0,-13.0,-3.0,1651087833676318.0
2.0,2.0,26.0,11.0,-4.0,0.0,0.0,0.0,1651087833676318.0
1.0,-2.0,-5.0,12.0,10.0,4.0,1.0,-13.0,1651087833676318.0
2.0,4.0,-39.0,-22.0,0.0,1.0,19.0,30.0,1651087833698316.0
-16.0,-11.0,2.0,12.0,1.0,3.0,-24.0,-37.0,1651087833698316.0
4.0,2.0,3.0,-4.0,-4.0,-4.0,12.0,6.0,1651087833699179.0
0.0,-10.0,-26.0,-15.0,-2.0,-1.0,15.0,18.0,1651087833699179.0
3.0,4.0,19.0,10.0,1.0,1.0,-1.0,-9.0,1651087833729184.0
-3.0,7.0,-11.0,-10.0,-10.0,-3.0,-9.0,-7.0,1651087833729184.0
-4.0,-4.0,-1.0,5.0,12.0,-6.0,-18.0,-2.0,1651087833730227.0
-2.0,1.0,1.0,9.0,13.0,5.0,-11.0,-19.0,1651087833730227.0
3.0,-2.0,-1.0,0.0,-2.0,0.0,5.0,7.0,1651087833736214.0
-1.0,0.0,-12.0,-28.0,-12.0,-3.0,0.0,14.0,1651087833736214.0
-3.0,-4.0,-18.0,4.0,-2.0,-1.0,3.0,-8.0,1651087833736214.0
5.0,8.0,0.0,-6.0,-7.0,-5.0,-1.0,16.0,1651087833736214.0
10.0,11.0,35.0,12.0,12.0,10.0,-2.0,-11.0,1651087833758378.0
-1.0,-3.0,4.0,23.0,7.0,-3.0,-11.0,2.0,1651087833758378.0
3.0,-3.0,-2.0,-26.0,-7.0,1.0,4.0,3.0,1651087833759376.0
1.0,8.0,11.0,16.0,-1.0,-3.0,-5.0,1.0,1651087833759376.0
2.0,3.0,-40.0,-25.0,-3.0,-2.0,3.0,10.0,1651087833780334.0
-2.0,-12.0,30.0,13.0,6.0,12.0,5.0,5.0,1651087833780334.0
-6.0,-3.0,-35.0,11.0,-3.0,-3.0,10.0,-3.0,1651087833781357.0
1.0,1.0,8.0,-15.0,-6.0,-1.0,-5.0,1.0,1651087833781357.0
-9.0,-8.0,-2.0,3.0,0.0,-4.0,-7.0,-21.0,1651087833795322.0
5.0,3.0,-29.0,-12.0,5.0,3.0,0.0,13.0,1651087833795322.0
-4.0,1.0,14.0,-7.0,-11.0,-7.0,-4.0,4.0,1651087833803301.0
3.0,-3.0,-6.0,28.0,14.0,6.0,0.0,2.0,1651087833803301.0
1.0,-2.0,-7.0,-28.0,-16.0,-6.0,-2.0,-11.0,1651087833818659.0
2.0,16.0,7.0,12.0,5.0,-7.0,2.0,0.0,1651087833818659.0
-4.0,-13.0,10.0,-21.0,3.0,4.0,-5.0,-3.0,1651087833819075.0
-8.0,-6.0,2.0,19.0,-7.0,0.0,-1.0,-8.0,1651087833819075.0
0.0,-5.0,23.0,15.0,8.0,2.0,-11.0,-19.0,1651087833841322.0
-2.0,-2.0,-33.0,-13.0,-1.0,3.0,20.0,36.0,1651087833841322.0
12.0,14.0,12.0,0.0,-8.0,-4.0,-7.0,-9.0,1651087833842502.0
-1.0,0.0,25.0,3.0,3.0,2.0,5.0,-1.0,1651087833842502.0
-9.0,-3.0,-20.0,-16.0,-11.0,-7.0,-33.0,-20.0,1651087833855251.0
-4.0,-8.0,-13.0,13.0,5.0,6.0,23.0,-11.0,1651087833855251.0
6.0,1.0,23.0,-6.0,-3.0,-3.0,2.0,28.0,1651087833864389.0
-7.0,-11.0,-29.0,-11.0,-10.0,-4.0,-12.0,-24.0,1651087833864389.0
0.0,9.0,9.0,7.0,0.0,-2.0,11.0,22.0,1651087833878417.0
0.0,-10.0,7.0,21.0,6.0,-2.0,0.0,-1.0,1651087833878417.0
0.0,2.0,-7.0,-11.0,2.0,5.0,-4.0,-1.0,1651087833879451.0
8.0,-6.0,0.0,2.0,-3.0,-3.0,3.0,0.0,1651087833879451.0
8.0,-4.0,-4.0,-13.0,1.0,1.0,-1.0,5.0,1651087833900418.0
-16.0,-5.0,20.0,14.0,1.0,-3.0,0.0,27.0,1651087833900418.0
9.0,4.0,-21.0,1.0,-5.0,3.0,-4.0,-23.0,1651087833901449.0
-6.0,9.0,4.0,8.0,14.0,3.0,-1.0,9.0,1651087833901449.0
-3.0,-4.0,-2.0,-10.0,-5.0,5.0,25.0,19.0,1651087833915266.0
1.0,-7.0,-7.0,-22.0,-13.0,-15.0,-16.0,-9.0,1651087833915266.0
-8.0,1.0,16.0,22.0,13.0,14.0,-4.0,-3.0,1651087833923233.0
0.0,0.0,1.0,-1.0,4.0,-5.0,10.0,5.0,1651087833923233.0
-1.0,1.0,-7.0,22.0,5.0,-7.0,-12.0,13.0,1651087833939232.0
3.0,3.0,-10.0,-33.0,-14.0,2.0,15.0,-10.0,1651087833939232.0
-5.0,4.0,-20.0,8.0,10.0,4.0,-4.0,1.0,1651087833939232.0
-5.0,-7.0,8.0,-4.0,3.0,0.0,-3.0,-6.0,1651087833939232.0
1.0,-3.0,26.0,33.0,4.0,5.0,-2.0,-3.0,1651087833961386.0
3.0,6.0,-5.0,-21.0,-10.0,-6.0,-2.0,-7.0,1651087833961386.0
-2.0,-4.0,-6.0,-7.0,-1.0,-5.0,-2.0,-16.0,1651087833961386.0
-2.0,-2.0,-3.0,0.0,3.0,9.0,8.0,12.0,1651087833961386.0
-2.0,2.0,-9.0,0.0,-4.0,-3.0,4.0,1.0,1651087833984392.0
1.0,9.0,18.0,-4.0,4.0,7.0,-14.0,-25.0,1651087833984392.0
-1.0,0.0,11.0,22.0,-5.0,-11.0,4.0,4.0,1651087833984392.0
-1.0,-14.0,-22.0,-6.0,-1.0,-1.0,14.0,16.0,1651087833984392.0
1.0,2.0,-10.0,-26.0,-5.0,-4.0,-8.0,-7.0,1651087834006381.0
1.0,-5.0,-2.0,-1.0,-1.0,3.0,7.0,0.0,1651087834006381.0
1.0,5.0,54.0,15.0,1.0,4.0,-4.0,18.0,1651087834007217.0
-9.0,-4.0,-33.0,-21.0,-9.0,1.0,9.0,-19.0,1651087834007217.0
11.0,1.0,-8.0,1.0,5.0,-7.0,-12.0,12.0,1651087834021396.0
8.0,1.0,-5.0,-2.0,-1.0,-4.0,-7.0,-1.0,1651087834021396.0
-4.0,2.0,13.0,10.0,-9.0,-2.0,-1.0,-1.0,1651087834021396.0
-2.0,1.0,19.0,3.0,7.0,2.0,-4.0,7.0,1651087834021396.0
-1.0,4.0,-4.0,-1.0,-4.0,3.0,13.0,-11.0,1651087834035392.0
1.0,0.0,-7.0,-4.0,-4.0,-4.0,-4.0,-2.0,1651087834035392.0
-1.0,-2.0,-1.0,-3.0,11.0,2.0,-2.0,-3.0,1651087834044368.0
-3.0,-1.0,-44.0,-7.0,-12.0,-3.0,-12.0,-1.0,1651087834044368.0
-11.0,-1.0,18.0,2.0,-1.0,0.0,-1.0,-8.0,1651087834059232.0
-2.0,4.0,9.0,3.0,-7.0,-5.0,-19.0,-26.0,1651087834059232.0
-9.0,-22.0,-13.0,-3.0,2.0,5.0,4.0,5.0,1651087834059232.0
12.0,5.0,-18.0,-17.0,-3.0,-5.0,0.0,1.0,1651087834059232.0
-10.0,-3.0,6.0,6.0,-9.0,-5.0,17.0,26.0,1651087834081560.0
4.0,13.0,-3.0,15.0,19.0,4.0,-27.0,-3.0,1651087834081560.0
-2.0,3.0,-24.0,-19.0,-2.0,-2.0,5.0,-17.0,1651087834081560.0
-6.0,-15.0,26.0,30.0,2.0,-5.0,-4.0,3.0,1651087834081560.0
-5.0,-2.0,-3.0,-25.0,-10.0,-2.0,12.0,2.0,1651087834095213.0
8.0,0.0,-5.0,0.0,-7.0,3.0,11.0,11.0,1651087834095213.0
-2.0,5.0,-11.0,16.0,5.0,-4.0,-21.0,-1.0,1651087834103037.0
7.0,4.0,13.0,-15.0,6.0,3.0,-3.0,0.0,1651087834103037.0
-9.0,-5.0,9.0,-1.0,-4.0,-2.0,-2.0,3.0,1651087834118788.0
7.0,-2.0,-16.0,14.0,10.0,2.0,3.0,-26.0,1651087834118788.0
2.0,8.0,14.0,-6.0,-13.0,-6.0,1.0,-6.0,1651087834119099.0
-12.0,-8.0,6.0,-15.0,-12.0,-3.0,0.0,-7.0,1651087834119099.0
4.0,4.0,7.0,19.0,11.0,6.0,-7.0,-28.0,1651087834141230.0
-6.0,-7.0,-5.0,-10.0,-1.0,0.0,9.0,15.0,1651087834141230.0
4.0,2.0,9.0,-8.0,-13.0,-6.0,7.0,15.0,1651087834141230.0
6.0,9.0,-10.0,11.0,11.0,3.0,-2.0,-6.0,1651087834141230.0
3.0,-3.0,10.0,9.0,18.0,5.0,-8.0,0.0,1651087834156263.0
-15.0,-14.0,-26.0,-9.0,-8.0,-3.0,18.0,8.0,1651087834156263.0
8.0,2.0,5.0,18.0,10.0,10.0,24.0,11.0,1651087834163181.0
3.0,3.0,-4.0,-19.0,-6.0,-10.0,-20.0,0.0,1651087834163181.0
2.0,-2.0,9.0,-4.0,-9.0,-6.0,-1.0,-1.0,1651087834179117.0
-3.0,3.0,19.0,27.0,7.0,1.0,-16.0,-25.0,1651087834179117.0
-6.0,-3.0,-1.0,-12.0,-1.0,3.0,12.0,18.0,1651087834179117.0
4.0,3.0,-12.0,11.0,-10.0,-5.0,-1.0,2.0,1651087834179117.0
-3.0,4.0,4.0,-11.0,1.0,1.0,-1.0,-4.0,1651087834201185.0
2.0,-12.0,11.0,-15.0,-4.0,-5.0,7.0,4.0,1651087834201185.0
-6.0,-13.0,-5.0,9.0,1.0,1.0,-9.0,-16.0,1651087834201185.0
4.0,11.0,24.0,2.0,0.0,1.0,5.0,3.0,1651087834201185.0
3.0,6.0,-17.0,-2.0,-7.0,-3.0,-6.0,-5.0,1651087834215264.0
-2.0,-2.0,2.0,9.0,13.0,6.0,11.0,21.0,1651087834215264.0
3.0,3.0,-5.0,-13.0,-8.0,0.0,-1.0,-5.0,1651087834224173.0
-2.0,0.0,-5.0,2.0,-2.0,-2.0,-3.0,0.0,1651087834224173.0
-3.0,-1.0,-6.0,6.0,6.0,5.0,1.0,-1.0,1651087834239199.0
4.0,3.0,13.0,1.0,-4.0,-4.0,-8.0,-12.0,1651087834239199.0
-1.0,-5.0,-15.0,1.0,1.0,-5.0,-5.0,7.0,1651087834239199.0
0.0,0.0,9.0,-4.0,-3.0,-5.0,-3.0,-5.0,1651087834239199.0
1.0,-1.0,-9.0,-3.0,3.0,9.0,6.0,0.0,1651087834261400.0
-1.0,-1.0,3.0,-2.0,0.0,3.0,3.0,7.0,1651087834261400.0
-3.0,-2.0,-6.0,-7.0,-7.0,-5.0,-10.0,-15.0,1651087834261400.0
1.0,1.0,2.0,3.0,0.0,5.0,2.0,-1.0,1651087834261400.0
1.0,-5.0,-3.0,1.0,3.0,-1.0,4.0,5.0,1651087834284594.0
-2.0,1.0,1.0,-2.0,1.0,2.0,1.0,3.0,1651087834284594.0
2.0,-1.0,-9.0,-5.0,-1.0,-3.0,-6.0,-4.0,1651087834284594.0
-2.0,-1.0,3.0,-2.0,-6.0,0.0,3.0,2.0,1651087834284594.0
0.0,-3.0,-5.0,5.0,0.0,-3.0,-3.0,-1.0,1651087834298573.0
0.0,2.0,6.0,-4.0,-5.0,-3.0,-4.0,1.0,1651087834298573.0
-3.0,0.0,-5.0,0.0,-2.0,-3.0,-3.0,-3.0,1651087834299468.0
0.0,0.0,1.0,1.0,4.0,2.0,0.0,1.0,1651087834299468.0
0.0,-1.0,-1.0,4.0,-1.0,-1.0,0.0,-1.0,1651087834321772.0
-1.0,2.0,0.0,0.0,8.0,1.0,1.0,4.0,1651087834321772.0
2.0,-1.0,-1.0,0.0,0.0,7.0,4.0,-1.0,1651087834321772.0
-2.0,-3.0,-2.0,-2.0,-5.0,-10.0,-4.0,-5.0,1651087834321772.0
2.0,0.0,-2.0,-4.0,-3.0,15.0,7.0,3.0,1651087834335888.0
-3.0,-2.0,0.0,2.0,-6.0,-7.0,3.0,2.0,1651087834335888.0
0.0,-1.0,-6.0,-5.0,-1.0,-2.0,-2.0,-3.0,1651087834344374.0
0.0,3.0,3.0,-3.0,0.0,-2.0,-3.0,-3.0,1651087834344374.0
-2.0,-3.0,-4.0,-1.0,-1.0,-8.0,-5.0,-1.0,1651087834359165.0
-1.0,0.0,2.0,0.0,-4.0,2.0,1.0,2.0,1651087834359165.0
0.0,1.0,-1.0,3.0,2.0,0.0,-1.0,-2.0,1651087834359165.0
0.0,0.0,0.0,-4.0,-5.0,-1.0,0.0,0.0,1651087834359165.0
-1.0,-2.0,-4.0,0.0,0.0,-3.0,0.0,0.0,1651087834382872.0
0.0,-1.0,0.0,-3.0,-1.0,3.0,-1.0,0.0,1651087834382872.0
0.0,0.0,-1.0,-1.0,5.0,-2.0,1.0,2.0,1651087834382872.0
0.0,-2.0,-8.0,-1.0,1.0,0.0,1.0,-1.0,1651087834382872.0
0.0,2.0,-10.0,-5.0,-6.0,-7.0,-2.0,-3.0,1651087834395835.0
-1.0,0.0,43.0,18.0,3.0,7.0,1.0,0.0,1651087834395835.0
0.0,-1.0,-18.0,-3.0,-1.0,4.0,1.0,0.0,1651087834403186.0
-1.0,1.0,2.0,1.0,-1.0,3.0,-5.0,-1.0,1651087834403186.0
2.0,-1.0,-8.0,-4.0,1.0,-3.0,0.0,-1.0,1651087834418824.0
-8.0,0.0,-5.0,-5.0,-4.0,-6.0,-4.0,0.0,1651087834418824.0
11.0,1.0,3.0,3.0,3.0,3.0,1.0,2.0,1651087834419070.0
-3.0,-4.0,2.0,1.0,-1.0,-6.0,-3.0,19.0,1651087834419070.0
-1.0,-1.0,-3.0,-6.0,-4.0,0.0,-5.0,-21.0,1651087834441298.0
-6.0,-1.0,-16.0,-6.0,-4.0,-10.0,-1.0,0.0,1651087834441298.0
1.0,0.0,5.0,2.0,4.0,13.0,-4.0,-2.0,1651087834441298.0
0.0,1.0,1.0,2.0,2.0,5.0,5.0,7.0,1651087834441298.0
6.0,0.0,3.0,3.0,2.0,1.0,0.0,4.0,1651087834463208.0
0.0,-1.0,-3.0,-3.0,-1.0,-3.0,2.0,2.0,1651087834463208.0
-4.0,-1.0,-10.0,-6.0,-7.0,1.0,-2.0,-2.0,1651087834464205.0
-1.0,2.0,20.0,12.0,3.0,-1.0,1.0,-10.0,1651087834464205.0
-7.0,-4.0,-20.0,-14.0,-7.0,-4.0,0.0,4.0,1651087834480222.0
5.0,0.0,-5.0,1.0,1.0,-1.0,-1.0,-4.0,1651087834480222.0
-3.0,-2.0,-3.0,1.0,0.0,-5.0,1.0,0.0,1651087834480222.0
0.0,2.0,5.0,1.0,1.0,3.0,1.0,-4.0,1651087834480222.0
-3.0,-1.0,9.0,3.0,1.0,0.0,2.0,0.0,1651087834501339.0
4.0,2.0,-9.0,-7.0,-2.0,-1.0,-2.0,1.0,1651087834501339.0
-3.0,0.0,-3.0,1.0,-3.0,-6.0,-4.0,-4.0,1651087834501339.0
-3.0,-2.0,-5.0,-2.0,-2.0,-1.0,-2.0,-4.0,1651087834501339.0
-1.0,-1.0,-1.0,2.0,8.0,-3.0,1.0,2.0,1651087834523244.0
1.0,0.0,-5.0,-5.0,-2.0,0.0,-1.0,-1.0,1651087834523244.0
-3.0,0.0,5.0,3.0,2.0,0.0,-1.0,-1.0,1651087834524244.0
2.0,-2.0,-5.0,-4.0,-3.0,0.0,1.0,-3.0,1651087834524244.0
0.0,0.0,4.0,0.0,-6.0,-5.0,-4.0,3.0,1651087834539230.0
0.0,0.0,3.0,4.0,3.0,6.0,1.0,2.0,1651087834539230.0
-1.0,-2.0,3.0,-5.0,0.0,1.0,2.0,0.0,1651087834539230.0
0.0,1.0,4.0,7.0,2.0,-1.0,-2.0,-3.0,1651087834539230.0
-1.0,-3.0,-29.0,-12.0,-4.0,-1.0,-1.0,0.0,1651087834561401.0
0.0,-2.0,1.0,2.0,2.0,2.0,0.0,0.0,1651087834561401.0
0.0,2.0,-2.0,-4.0,-1.0,-3.0,1.0,1.0,1651087834562230.0
0.0,0.0,4.0,2.0,-1.0,-1.0,-1.0,-1.0,1651087834562230.0
0.0,1.0,24.0,6.0,1.0,0.0,-1.0,0.0,1651087834584386.0
-1.0,0.0,-9.0,0.0,-1.0,-2.0,-1.0,-2.0,1651087834584386.0
-1.0,-2.0,-5.0,-1.0,-2.0,-2.0,-1.0,-2.0,1651087834584386.0
0.0,1.0,3.0,-3.0,1.0,1.0,2.0,-2.0,1651087834584386.0
0.0,0.0,2.0,0.0,-1.0,2.0,-1.0,2.0,1651087834598532.0
1.0,-2.0,-2.0,0.0,0.0,3.0,1.0,0.0,1651087834598532.0
-2.0,0.0,7.0,3.0,1.0,-2.0,-1.0,-1.0,1651087834599533.0
-1.0,-2.0,-9.0,-5.0,-4.0,-1.0,-3.0,-2.0,1651087834599533.0
-2.0,-1.0,5.0,3.0,0.0,1.0,1.0,-2.0,1651087834621691.0
-1.0,-2.0,0.0,-3.0,1.0,-1.0,-1.0,-2.0,1651087834621691.0
-1.0,-3.0,-2.0,-2.0,-1.0,-3.0,-3.0,-2.0,1651087834621691.0
-1.0,-2.0,-6.0,-5.0,1.0,1.0,-1.0,-3.0,1651087834621691.0
0.0,0.0,-1.0,-2.0,-1.0,0.0,0.0,2.0,1651087834643214.0
-2.0,1.0,7.0,5.0,5.0,2.0,3.0,-1.0,1651087834643214.0
-2.0,-1.0,-1.0,0.0,-2.0,-4.0,-1.0,-2.0,1651087834651282.0
1.0,-2.0,-6.0,1.0,2.0,2.0,2.0,-1.0,1651087834651282.0
0.0,2.0,4.0,1.0,-3.0,-1.0,-2.0,0.0,1651087834658141.0
1.0,0.0,-2.0,-4.0,-7.0,-6.0,-3.0,0.0,1651087834658141.0
0.0,-1.0,-1.0,-1.0,-2.0,-3.0,-1.0,0.0,1651087834673212.0
-1.0,-1.0,-2.0,-1.0,-1.0,-2.0,-2.0,-1.0,1651087834673212.0
-1.0,0.0,1.0,3.0,1.0,-1.0,1.0,-2.0,1651087834681222.0
-2.0,1.0,-1.0,0.0,-1.0,0.0,-1.0,-1.0,1651087834681222.0
0.0,1.0,1.0,-1.0,1.0,0.0,0.0,0.0,1651087834681222.0
-2.0,0.0,-1.0,-1.0,-2.0,-1.0,-1.0,0.0,1651087834681222.0
0.0,-2.0,1.0,-1.0,-1.0,-1.0,-1.0,-1.0,1651087834704351.0
1.0,-1.0,-4.0,-3.0,-4.0,-1.0,-1.0,-3.0,1651087834704351.0
0.0,0.0,3.0,0.0,1.0,3.0,0.0,-1.0,1651087834704351.0
-1.0,-2.0,-1.0,2.0,4.0,2.0,2.0,-2.0,1651087834704351.0
0.0,-2.0,-1.0,2.0,-2.0,-1.0,0.0,-1.0,1651087834718887.0
1.0,-1.0,-1.0,-2.0,-1.0,-2.0,1.0,1.0,1651087834718887.0
0.0,-1.0,-2.0,-1.0,-3.0,-4.0,-3.0,1.0,1651087834719071.0
-1.0,-1.0,-1.0,1.0,1.0,1.0,1.0,0.0,1651087834719071.0
-1.0,0.0,0.0,1.0,0.0,-1.0,0.0,0.0,1651087834741309.0
-1.0,-1.0,0.0,-1.0,-1.0,1.0,0.0,-1.0,1651087834741309.0
1.0,-1.0,0.0,-3.0,-3.0,-2.0,0.0,0.0,1651087834741309.0
1.0,-1.0,-1.0,-3.0,-2.0,-1.0,-1.0,0.0,1651087834741309.0
-1.0,0.0,2.0,2.0,1.0,0.0,0.0,0.0,1651087834763585.0
-1.0,0.0,1.0,-1.0,0.0,-1.0,-1.0,1.0,1651087834763585.0
0.0,-1.0,0.0,1.0,-3.0,0.0,2.0,-1.0,1651087834763585.0
-1.0,-1.0,-2.0,-3.0,-2.0,-1.0,-2.0,-2.0,1651087834763585.0
-1.0,0.0,1.0,-1.0,0.0,0.0,1.0,0.0,1651087834787288.0
1.0,0.0,-3.0,-1.0,-3.0,-4.0,-3.0,0.0,1651087834787288.0
-2.0,-1.0,0.0,2.0,2.0,1.0,0.0,-2.0,1651087834787288.0
-1.0,0.0,0.0,3.0,6.0,2.0,1.0,0.0,1651087834787288.0
0.0,-1.0,-3.0,-3.0,-1.0,0.0,-1.0,-2.0,1651087834801295.0
0.0,0.0,0.0,0.0,1.0,-2.0,-2.0,1.0,1651087834801295.0
1.0,-1.0,1.0,-1.0,-1.0,-1.0,-1.0,-1.0,1651087834801295.0
1.0,-1.0,-2.0,-6.0,-4.0,-3.0,-2.0,1.0,1651087834801295.0
-3.0,0.0,2.0,4.0,1.0,2.0,1.0,-2.0,1651087834823219.0
-2.0,-1.0,-1.0,0.0,-5.0,-2.0,0.0,-1.0,1651087834823219.0
-3.0,-1.0,-1.0,1.0,1.0,0.0,0.0,0.0,1651087834824093.0
-1.0,-2.0,-1.0,-2.0,0.0,-2.0,-1.0,0.0,1651087834824093.0
1.0,0.0,-2.0,0.0,0.0,-1.0,-2.0,-1.0,1651087834839225.0
-1.0,-2.0,-1.0,1.0,0.0,0.0,0.0,-1.0,1651087834839225.0
-1.0,0.0,0.0,-1.0,0.0,-1.0,-1.0,1.0,1651087834839225.0
0.0,-1.0,-1.0,0.0,0.0,1.0,-1.0,-1.0,1651087834839225.0
0.0,-2.0,-2.0,0.0,0.0,-1.0,-2.0,0.0,1651087834861215.0
0.0,0.0,-1.0,-1.0,0.0,1.0,0.0,0.0,1651087834861215.0
0.0,0.0,0.0,1.0,0.0,1.0,0.0,-1.0,1651087834861215.0
0.0,-1.0,-2.0,1.0,-2.0,0.0,-1.0,0.0,1651087834861215.0
0.0,1.0,0.0,-1.0,-3.0,0.0,0.0,-1.0,1651087834884247.0
1.0,-1.0,-2.0,-1.0,-2.0,-2.0,-1.0,-2.0,1651087834884247.0
-2.0,-2.0,-1.0,-2.0,-1.0,-3.0,-1.0,0.0,1651087834884247.0
-1.0,1.0,1.0,0.0,-1.0,-1.0,1.0,0.0,1651087834884247.0
-1.0,-1.0,0.0,1.0,2.0,1.0,0.0,-1.0,1651087834898207.0
0.0,0.0,0.0,-2.0,-1.0,-3.0,-1.0,1.0,1651087834898207.0
1.0,0.0,0.0,-2.0,0.0,1.0,0.0,1.0,1651087834899204.0
0.0,0.0,-1.0,1.0,-2.0,-1.0,-1.0,-1.0,1651087834899204.0
0.0,-1.0,-3.0,-2.0,-5.0,-2.0,0.0,1.0,1651087834921522.0
-2.0,-1.0,0.0,1.0,4.0,2.0,1.0,-1.0,1651087834921522.0
-4.0,-1.0,0.0,3.0,1.0,2.0,0.0,-1.0,1651087834921522.0
-1.0,-2.0,0.0,-1.0,-3.0,-2.0,1.0,-2.0,1651087834921522.0
-1.0,-1.0,0.0,-2.0,0.0,0.0,-1.0,-1.0,1651087834943186.0
-1.0,-1.0,1.0,0.0,0.0,1.0,1.0,-1.0,1651087834943186.0
0.0,-1.0,-3.0,-2.0,-1.0,-2.0,0.0,-2.0,1651087834944186.0
-1.0,-1.0,-1.0,-1.0,1.0,1.0,-1.0,-1.0,1651087834944186.0
0.0,-1.0,1.0,0.0,-1.0,-2.0,-2.0,0.0,1651087834958175.0
1.0,0.0,1.0,-3.0,-3.0,-2.0,-3.0,-1.0,1651087834958175.0
-2.0,-2.0,2.0,3.0,3.0,3.0,0.0,-2.0,1651087834959070.0
-1.0,0.0,0.0,-1.0,0.0,-2.0,-1.0,1.0,1651087834959070.0
1.0,-1.0,-11.0,-4.0,0.0,-2.0,-1.0,1.0,1651087834981336.0
-1.0,0.0,0.0,-1.0,0.0,-1.0,-1.0,-2.0,1651087834981336.0
1.0,0.0,0.0,-2.0,-2.0,-3.0,-1.0,0.0,1651087834981336.0
0.0,1.0,-3.0,-3.0,-2.0,0.0,-2.0,-2.0,1651087834981336.0
-3.0,0.0,2.0,4.0,4.0,3.0,-1.0,1.0,1651087835003218.0
0.0,-2.0,0.0,1.0,0.0,-1.0,-1.0,0.0,1651087835003218.0
0.0,-1.0,-2.0,-3.0,-5.0,-2.0,-1.0,-1.0,1651087835004218.0
-1.0,-1.0,0.0,3.0,1.0,1.0,0.0,-1.0,1651087835004218.0
0.0,0.0,-1.0,-1.0,1.0,0.0,0.0,0.0,1651087835018483.0
-1.0,-1.0,-1.0,1.0,1.0,1.0,0.0,-2.0,1651087835018483.0
0.0,0.0,0.0,1.0,2.0,1.0,0.0,1.0,1651087835019105.0
2.0,-1.0,-3.0,-3.0,-3.0,-2.0,-2.0,0.0,1651087835019105.0
0.0,-1.0,3.0,0.0,-2.0,-1.0,0.0,-1.0,1651087835041310.0
1.0,0.0,-1.0,-2.0,0.0,-1.0,0.0,-2.0,1651087835041310.0
1.0,1.0,-3.0,-1.0,0.0,-2.0,-3.0,0.0,1651087835041310.0
-1.0,-1.0,-1.0,-1.0,-2.0,0.0,-1.0,0.0,1651087835041310.0
1.0,0.0,1.0,-1.0,2.0,-1.0,0.0,-2.0,1651087835063337.0
-1.0,-2.0,-3.0,0.0,-4.0,-2.0,0.0,1.0,1651087835063337.0
0.0,-1.0,-2.0,-2.0,-1.0,-1.0,0.0,-3.0,1651087835064198.0
0.0,0.0,0.0,1.0,1.0,0.0,-1.0,0.0,1651087835064198.0
-1.0,-1.0,1.0,2.0,1.0,3.0,2.0,0.0,1651087835078499.0
0.0,-1.0,1.0,2.0,2.0,2.0,1.0,0.0,1651087835078499.0
0.0,-1.0,-1.0,1.0,-1.0,-1.0,-1.0,-2.0,1651087835079392.0
0.0,-3.0,-5.0,-7.0,-3.0,-3.0,0.0,-1.0,1651087835079392.0
-3.0,0.0,1.0,-2.0,-2.0,-2.0,0.0,0.0,1651087835101185.0
-1.0,-1.0,1.0,1.0,1.0,0.0,-1.0,0.0,1651087835101185.0
-2.0,-1.0,-1.0,2.0,0.0,1.0,-1.0,0.0,1651087835101185.0
-1.0,-1.0,0.0,0.0,2.0,1.0,-2.0,-1.0,1651087835101185.0
0.0,-1.0,0.0,-1.0,-3.0,0.0,-1.0,1.0,1651087835123196.0
-1.0,0.0,-1.0,-3.0,-2.0,-1.0,2.0,1.0,1651087835123196.0
0.0,0.0,0.0,-3.0,-3.0,-2.0,-1.0,-1.0,1651087835124196.0
-1.0,-1.0,3.0,2.0,3.0,1.0,0.0,1.0,1651087835124196.0
0.0,-2.0,-1.0,0.0,0.0,1.0,0.0,0.0,1651087835138126.0
1.0,0.0,1.0,-3.0,-3.0,0.0,-3.0,-1.0,1651087835138126.0
1.0,-1.0,-1.0,-4.0,-2.0,-1.0,1.0,-1.0,1651087835146191.0
-1.0,-2.0,2.0,-1.0,0.0,0.0,-1.0,-1.0,1651087835146191.0
0.0,-1.0,0.0,1.0,1.0,0.0,-2.0,-2.0,1651087835161492.0
1.0,0.0,-1.0,-3.0,-3.0,-2.0,-2.0,0.0,1651087835161492.0
-1.0,0.0,0.0,0.0,-1.0,-1.0,-1.0,-3.0,1651087835161492.0
-1.0,1.0,-1.0,1.0,2.0,1.0,1.0,-2.0,1651087835161492.0
-1.0,-1.0,3.0,1.0,0.0,-3.0,0.0,-1.0,1651087835183659.0
0.0,0.0,2.0,3.0,1.0,0.0,-1.0,0.0,1651087835183659.0
-3.0,-3.0,0.0,-6.0,-2.0,-1.0,-2.0,-1.0,1651087835184535.0
0.0,0.0,-2.0,1.0,-2.0,-2.0,0.0,-1.0,1651087835184535.0
0.0,1.0,-4.0,-4.0,0.0,-1.0,0.0,0.0,1651087835198125.0
0.0,-1.0,0.0,-1.0,-4.0,-2.0,-3.0,-2.0,1651087835198125.0
-2.0,-1.0,2.0,3.0,2.0,-1.0,0.0,0.0,1651087835206245.0
-2.0,-1.0,-1.0,1.0,2.0,1.0,1.0,-1.0,1651087835206245.0
-1.0,0.0,-3.0,-3.0,-5.0,-4.0,-2.0,0.0,1651087835221388.0
-2.0,2.0,-1.0,3.0,5.0,3.0,2.0,-1.0,1651087835221388.0
0.0,-1.0,-2.0,2.0,3.0,1.0,0.0,0.0,1651087835221388.0
0.0,0.0,-1.0,-3.0,-6.0,-3.0,-2.0,-1.0,1651087835221388.0
0.0,1.0,1.0,-3.0,-2.0,-2.0,0.0,-1.0,1651087835244360.0
0.0,-3.0,-3.0,-2.0,0.0,0.0,-2.0,-1.0,1651087835244360.0
-1.0,-1.0,-5.0,-1.0,-1.0,0.0,0.0,-1.0,1651087835244360.0
0.0,1.0,-3.0,-2.0,-4.0,-3.0,-1.0,0.0,1651087835244360.0
0.0,-1.0,3.0,5.0,5.0,5.0,2.0,0.0,1651087835258055.0
0.0,1.0,3.0,-2.0,1.0,-2.0,0.0,0.0,1651087835258055.0
-1.0,0.0,0.0,-2.0,-2.0,-2.0,-1.0,2.0,1651087835266194.0
0.0,0.0,2.0,0.0,0.0,-1.0,0.0,1.0,1651087835266194.0
-1.0,-1.0,-3.0,1.0,-2.0,-2.0,-1.0,-1.0,1651087835281485.0
-1.0,-1.0,-4.0,-2.0,-1.0,-1.0,-1.0,-1.0,1651087835281485.0
0.0,1.0,2.0,1.0,-2.0,-1.0,0.0,0.0,1651087835281485.0
0.0,-1.0,-2.0,-4.0,-5.0,-4.0,-2.0,1.0,1651087835281485.0
-3.0,-2.0,0.0,5.0,6.0,2.0,0.0,-1.0,1651087835304281.0
-1.0,-2.0,-1.0,-4.0,-1.0,0.0,-2.0,-1.0,1651087835304281.0
1.0,0.0,1.0,0.0,0.0,0.0,0.0,-1.0,1651087835304281.0
0.0,0.0,1.0,1.0,1.0,1.0,0.0,0.0,1651087835304281.0
1.0,-1.0,-1.0,1.0,-1.0,0.0,0.0,-1.0,1651087835318260.0
-1.0,-2.0,1.0,-2.0,-3.0,-2.0,-1.0,-1.0,1651087835318260.0
-1.0,1.0,-1.0,-1.0,-1.0,1.0,-2.0,-1.0,1651087835326250.0
0.0,-2.0,-3.0,-4.0,-5.0,-2.0,-1.0,-1.0,1651087835326250.0
0.0,1.0,2.0,1.0,4.0,1.0,0.0,1.0,1651087835341311.0
-1.0,0.0,-5.0,0.0,1.0,-1.0,0.0,1.0,1651087835341311.0
-1.0,1.0,0.0,-1.0,-2.0,-1.0,-1.0,0.0,1651087835341311.0
0.0,-2.0,-2.0,0.0,1.0,1.0,1.0,-2.0,1651087835341311.0
0.0,-2.0,-1.0,-3.0,-2.0,-1.0,-1.0,0.0,1651087835363132.0
-1.0,-1.0,3.0,2.0,1.0,2.0,1.0,-3.0,1651087835363132.0
0.0,-2.0,-7.0,-2.0,2.0,2.0,0.0,-1.0,1651087835363998.0
0.0,-1.0,0.0,0.0,-2.0,-1.0,-2.0,-1.0,1651087835363998.0
-1.0,-2.0,-1.0,-5.0,-5.0,-5.0,-3.0,-1.0,1651087835378176.0
1.0,0.0,-3.0,3.0,-1.0,0.0,0.0,0.0,1651087835378176.0
-2.0,-2.0,2.0,1.0,5.0,4.0,2.0,-1.0,1651087835386175.0
0.0,-1.0,-1.0,0.0,0.0,0.0,0.0,-3.0,1651087835386175.0
0.0,-1.0,4.0,-2.0,-3.0,-3.0,-1.0,0.0,1651087835401243.0
-1.0,0.0,-5.0,1.0,0.0,0.0,0.0,-1.0,1651087835401243.0
0.0,0.0,-1.0,0.0,-3.0,-4.0,-1.0,-1.0,1651087835401243.0
-2.0,0.0,-2.0,-1.0,1.0,1.0,-1.0,-1.0,1651087835401243.0
-1.0,0.0,1.0,-1.0,1.0,-1.0,-1.0,0.0,1651087835423189.0
1.0,-1.0,-1.0,-1.0,-1.0,-1.0,0.0,1.0,1651087835423189.0
0.0,0.0,2.0,1.0,-1.0,0.0,0.0,1.0,1651087835424189.0
-1.0,-3.0,-7.0,-2.0,-1.0,-2.0,-1.0,0.0,1651087835424189.0
1.0,-1.0,2.0,-1.0,-4.0,-1.0,-2.0,-1.0,1651087835447362.0
-2.0,-2.0,-14.0,-3.0,3.0,1.0,-1.0,-1.0,1651087835447362.0
-1.0,-1.0,-2.0,2.0,-1.0,-2.0,-2.0,1.0,1651087835448357.0
2.0,0.0,2.0,0.0,-1.0,-1.0,0.0,1.0,1651087835448357.0
0.0,0.0,0.0,1.0,-1.0,0.0,-1.0,-2.0,1651087835461480.0
0.0,-2.0,4.0,-1.0,0.0,1.0,0.0,0.0,1651087835461480.0
1.0,-1.0,1.0,6.0,6.0,3.0,0.0,2.0,1651087835461480.0
0.0,1.0,4.0,3.0,0.0,-1.0,0.0,0.0,1651087835461480.0
-1.0,-3.0,-9.0,-7.0,-5.0,-1.0,0.0,-2.0,1651087835483716.0
0.0,-1.0,3.0,-1.0,-2.0,-1.0,-1.0,-2.0,1651087835483716.0
-1.0,-2.0,-2.0,-4.0,-3.0,-1.0,0.0,-1.0,1651087835483716.0
-1.0,1.0,-1.0,1.0,0.0,-2.0,-3.0,1.0,1651087835483716.0
-1.0,1.0,1.0,-1.0,2.0,2.0,0.0,0.0,1651087835506386.0
-3.0,-7.0,1.0,-3.0,-3.0,-3.0,-2.0,-2.0,1651087835506386.0
-1.0,-1.0,1.0,-3.0,-2.0,-1.0,-1.0,-1.0,1651087835507219.0
-1.0,-1.0,5.0,1.0,1.0,1.0,0.0,0.0,1651087835507219.0
0.0,0.0,-7.0,-3.0,-3.0,-2.0,-1.0,0.0,1651087835521432.0
1.0,3.0,-6.0,-2.0,-1.0,-2.0,-1.0,0.0,1651087835521432.0
-3.0,0.0,5.0,2.0,2.0,1.0,0.0,-3.0,1651087835521432.0
0.0,-1.0,-14.0,-7.0,-5.0,-1.0,-1.0,-3.0,1651087835521432.0
0.0,2.0,1.0,2.0,-1.0,-2.0,-1.0,-1.0,1651087835543375.0
-2.0,-1.0,6.0,4.0,4.0,1.0,0.0,0.0,1651087835543375.0
0.0,-3.0,-1.0,0.0,0.0,0.0,0.0,0.0,1651087835544373.0
-2.0,0.0,5.0,2.0,0.0,2.0,-1.0,-1.0,1651087835544373.0
0.0,-2.0,0.0,-4.0,-3.0,-1.0,1.0,-1.0,1651087835567190.0
0.0,0.0,-2.0,2.0,0.0,1.0,1.0,0.0,1651087835567190.0
0.0,1.0,1.0,-2.0,-5.0,-1.0,-3.0,-1.0,1651087835567190.0
0.0,-1.0,3.0,-2.0,-4.0,-2.0,-1.0,-1.0,1651087835567190.0
0.0,-2.0,-6.0,-8.0,-5.0,-2.0,-2.0,-1.0,1651087835581312.0
1.0,0.0,-4.0,-10.0,-6.0,-2.0,-1.0,-1.0,1651087835581312.0
-1.0,6.0,6.0,18.0,5.0,1.0,1.0,-1.0,1651087835581312.0
-2.0,-14.0,2.0,13.0,20.0,3.0,-1.0,-2.0,1651087835581312.0
1.0,7.0,7.0,4.0,-3.0,0.0,1.0,-1.0,1651087835603207.0
-1.0,-2.0,0.0,-3.0,-5.0,-2.0,-1.0,0.0,1651087835603207.0
0.0,-2.0,-5.0,-11.0,-9.0,-4.0,-1.0,-1.0,1651087835604207.0
-1.0,3.0,-3.0,-7.0,-9.0,-4.0,-2.0,0.0,1651087835604207.0
-2.0,-2.0,-1.0,1.0,3.0,0.0,2.0,-1.0,1651087835627030.0
-1.0,1.0,-2.0,0.0,0.0,-1.0,0.0,-1.0,1651087835627030.0
0.0,-2.0,-3.0,-2.0,-2.0,-2.0,0.0,-1.0,1651087835627030.0
-1.0,1.0,1.0,0.0,-1.0,1.0,-1.0,-2.0,1651087835627030.0
0.0,-5.0,-1.0,-1.0,1.0,1.0,-1.0,0.0,1651087835640340.0
1.0,2.0,4.0,2.0,2.0,1.0,0.0,-1.0,1651087835640340.0
0.0,-3.0,-7.0,-2.0,-1.0,0.0,-1.0,-1.0,1651087835641412.0
1.0,1.0,-3.0,-5.0,0.0,2.0,3.0,1.0,1651087835641412.0
-1.0,2.0,1.0,1.0,-5.0,-2.0,-3.0,0.0,1651087835671360.0
2.0,-1.0,6.0,2.0,3.0,2.0,-1.0,-1.0,1651087835671360.0
1.0,-2.0,-10.0,1.0,1.0,-3.0,-2.0,0.0,1651087835672211.0
-2.0,-19.0,-2.0,-16.0,-14.0,-4.0,0.0,-1.0,1651087835672211.0
1.0,22.0,10.0,16.0,8.0,0.0,-1.0,1.0,1651087835687032.0
-1.0,-7.0,5.0,15.0,21.0,7.0,2.0,0.0,1651087835687032.0
-1.0,10.0,-5.0,-11.0,6.0,2.0,-1.0,-3.0,1651087835687032.0
2.0,4.0,0.0,5.0,4.0,5.0,3.0,1.0,1651087835687032.0
0.0,-14.0,-11.0,-13.0,-13.0,-5.0,-1.0,-1.0,1651087835701321.0
0.0,-5.0,-12.0,-12.0,-33.0,-15.0,-2.0,-1.0,1651087835701321.0
-3.0,-6.0,3.0,7.0,11.0,4.0,-1.0,-1.0,1651087835701321.0
-3.0,5.0,6.0,7.0,0.0,-4.0,-2.0,-3.0,1651087835701321.0
-2.0,-5.0,1.0,-6.0,10.0,6.0,1.0,-1.0,1651087835723190.0
2.0,10.0,1.0,0.0,-6.0,1.0,-1.0,3.0,1651087835723190.0
-2.0,-13.0,-1.0,1.0,-20.0,-11.0,-3.0,-2.0,1651087835724190.0
0.0,2.0,0.0,15.0,24.0,8.0,0.0,0.0,1651087835724190.0
-1.0,0.0,11.0,4.0,-12.0,-5.0,-1.0,-2.0,1651087835746206.0
-4.0,-1.0,-6.0,-21.0,6.0,-1.0,-3.0,-1.0,1651087835746206.0
1.0,1.0,16.0,-7.0,-21.0,-8.0,0.0,1.0,1651087835747204.0
-1.0,0.0,-5.0,3.0,7.0,2.0,1.0,-1.0,1651087835747204.0
-2.0,-3.0,-4.0,-3.0,-12.0,-4.0,-1.0,-1.0,1651087835761345.0
-2.0,0.0,1.0,1.0,8.0,4.0,0.0,-1.0,1651087835761345.0
1.0,2.0,-4.0,-27.0,-11.0,-2.0,1.0,0.0,1651087835761345.0
-3.0,4.0,31.0,37.0,14.0,2.0,-2.0,0.0,1651087835761345.0
4.0,-4.0,-23.0,-3.0,7.0,6.0,3.0,2.0,1651087835784330.0
2.0,-3.0,13.0,17.0,35.0,15.0,4.0,0.0,1651087835784330.0
-1.0,-1.0,4.0,2.0,-7.0,-6.0,-3.0,-1.0,1651087835784330.0
1.0,3.0,-7.0,-21.0,-25.0,-10.0,-3.0,-2.0,1651087835784330.0
0.0,-2.0,-13.0,-16.0,-2.0,-2.0,-1.0,1.0,1651087835806377.0
-1.0,6.0,20.0,16.0,2.0,1.0,0.0,0.0,1651087835806377.0
-1.0,-2.0,8.0,-6.0,-11.0,-5.0,-1.0,-1.0,1651087835807213.0
0.0,-3.0,-9.0,6.0,17.0,2.0,-1.0,-1.0,1651087835807213.0
-1.0,-4.0,-1.0,2.0,0.0,-2.0,-3.0,-2.0,1651087835821373.0
2.0,2.0,-20.0,-3.0,-5.0,-2.0,2.0,0.0,1651087835821373.0
0.0,-6.0,-13.0,-13.0,28.0,10.0,-1.0,1.0,1651087835821373.0
2.0,5.0,6.0,-19.0,-25.0,-9.0,0.0,1.0,1651087835821373.0
-3.0,-4.0,-3.0,2.0,9.0,2.0,0.0,-3.0,1651087835844359.0
-1.0,2.0,-10.0,-5.0,-25.0,-13.0,-6.0,-3.0,1651087835844359.0
1.0,-1.0,-12.0,2.0,9.0,7.0,4.0,2.0,1651087835844359.0
1.0,6.0,25.0,34.0,27.0,10.0,1.0,1.0,1651087835844359.0
-2.0,-1.0,-12.0,-28.0,-20.0,-5.0,-1.0,-2.0,1651087835867523.0
-4.0,-6.0,31.0,16.0,-6.0,-5.0,-1.0,-2.0,1651087835867523.0
0.0,1.0,-23.0,-3.0,-1.0,-1.0,-7.0,0.0,1651087835868556.0
-2.0,2.0,14.0,-5.0,-8.0,-4.0,-1.0,-2.0,1651087835868556.0
2.0,1.0,9.0,0.0,3.0,2.0,0.0,2.0,1651087835881399.0
1.0,-1.0,-15.0,-3.0,-13.0,-3.0,4.0,0.0,1651087835881399.0
1.0,6.0,12.0,16.0,-2.0,-7.0,-3.0,0.0,1651087835889237.0
1.0,-2.0,-18.0,-14.0,-9.0,0.0,1.0,1.0,1651087835889237.0
-2.0,1.0,3.0,11.0,14.0,2.0,-3.0,-2.0,1651087835903410.0
-1.0,-3.0,6.0,-12.0,-1.0,1.0,0.0,0.0,1651087835903410.0
0.0,0.0,-19.0,20.0,17.0,8.0,4.0,2.0,1651087835904243.0
2.0,-1.0,-4.0,-21.0,-3.0,2.0,1.0,1.0,1651087835904243.0
-3.0,0.0,26.0,14.0,-5.0,-4.0,-2.0,-3.0,1651087835927336.0
0.0,-3.0,-31.0,-18.0,-3.0,0.0,1.0,0.0,1651087835927336.0
-2.0,1.0,24.0,10.0,-5.0,-8.0,-3.0,-1.0,1651087835927336.0
-1.0,-3.0,1.0,0.0,-2.0,-1.0,0.0,1.0,1651087835927336.0
-3.0,-3.0,-23.0,-3.0,-3.0,-6.0,-6.0,-1.0,1651087835940137.0
-1.0,-3.0,1.0,-2.0,11.0,4.0,1.0,-1.0,1651087835940137.0
0.0,1.0,10.0,3.0,-7.0,-4.0,1.0,0.0,1651087835949127.0
-4.0,-6.0,-20.0,-19.0,-2.0,1.0,-3.0,-2.0,1651087835949127.0
3.0,6.0,35.0,31.0,11.0,6.0,8.0,4.0,1651087835963328.0
-2.0,-1.0,-4.0,-7.0,-5.0,-7.0,-11.0,-1.0,1651087835963328.0
2.0,1.0,-21.0,-3.0,-1.0,-2.0,-3.0,-3.0,1651087835964325.0
-9.0,-5.0,19.0,2.0,-4.0,-3.0,0.0,1.0,1651087835964325.0
3.0,3.0,-3.0,0.0,5.0,10.0,8.0,0.0,1651087835987278.0
-3.0,1.0,4.0,-6.0,-10.0,-9.0,-3.0,-4.0,1651087835987278.0
3.0,2.0,-19.0,-3.0,8.0,12.0,4.0,2.0,1651087835987278.0
2.0,0.0,20.0,2.0,-2.0,-5.0,-2.0,-1.0,1651087835987278.0
-3.0,0.0,12.0,5.0,-2.0,-5.0,-7.0,-7.0,1651087836001299.0
5.0,6.0,8.0,18.0,5.0,-2.0,-2.0,1.0,1651087836001299.0
-11.0,-13.0,-50.0,-37.0,-3.0,8.0,7.0,6.0,1651087836001299.0
-5.0,1.0,-12.0,6.0,-3.0,-1.0,-1.0,-15.0,1651087836001299.0
0.0,-1.0,14.0,1.0,4.0,8.0,3.0,2.0,1651087836023185.0
0.0,-4.0,-28.0,-11.0,-4.0,-2.0,-7.0,0.0,1651087836023185.0
5.0,7.0,30.0,19.0,0.0,-2.0,5.0,-1.0,1651087836024207.0
-11.0,-3.0,17.0,4.0,-1.0,-4.0,-10.0,-18.0,1651087836024207.0
-1.0,-8.0,-35.0,-14.0,-6.0,4.0,0.0,6.0,1651087836046238.0
-1.0,-3.0,-17.0,-30.0,-1.0,-1.0,2.0,-10.0,1651087836046238.0
6.0,-1.0,30.0,18.0,0.0,-4.0,-4.0,4.0,1651087836047235.0
-12.0,-4.0,-34.0,-20.0,-6.0,-5.0,-7.0,-2.0,1651087836047235.0
-3.0,-3.0,-21.0,-8.0,4.0,11.0,9.0,-1.0,1651087836061233.0
4.0,4.0,4.0,8.0,-1.0,1.0,1.0,2.0,1651087836061233.0
-5.0,-10.0,2.0,-9.0,-1.0,-10.0,-9.0,-9.0,1651087836069168.0
13.0,9.0,22.0,7.0,0.0,11.0,11.0,7.0,1651087836069168.0
-5.0,-3.0,0.0,13.0,13.0,-6.0,-4.0,-2.0,1651087836084283.0
4.0,-2.0,0.0,-3.0,-5.0,2.0,3.0,15.0,1651087836084283.0
-3.0,0.0,29.0,21.0,-1.0,0.0,1.0,-5.0,1651087836084283.0
3.0,2.0,-7.0,0.0,-6.0,-8.0,-5.0,-13.0,1651087836084283.0
3.0,6.0,5.0,-4.0,-5.0,-6.0,-2.0,13.0,1651087836106361.0
-3.0,3.0,20.0,7.0,0.0,3.0,2.0,-2.0,1651087836106361.0
-2.0,3.0,10.0,11.0,11.0,2.0,0.0,-3.0,1651087836107204.0
9.0,-2.0,-24.0,-8.0,4.0,11.0,5.0,6.0,1651087836107204.0
13.0,2.0,12.0,6.0,-1.0,-9.0,-3.0,0.0,1651087836120387.0
-8.0,-3.0,33.0,-3.0,-2.0,-2.0,-7.0,4.0,1651087836120387.0
3.0,1.0,-38.0,-3.0,-6.0,0.0,5.0,9.0,1651087836128376.0
6.0,-6.0,4.0,-3.0,-11.0,-15.0,-7.0,7.0,1651087836128376.0
-7.0,-2.0,-14.0,0.0,-6.0,-8.0,-7.0,-4.0,1651087836144353.0
-5.0,-2.0,17.0,3.0,-1.0,-7.0,-6.0,-3.0,1651087836144353.0
-6.0,-2.0,-1.0,-5.0,-5.0,-4.0,-9.0,-17.0,1651087836144353.0
0.0,2.0,-10.0,-2.0,4.0,4.0,4.0,19.0,1651087836144353.0
11.0,3.0,-7.0,-1.0,0.0,3.0,2.0,-3.0,1651087836166563.0
-7.0,6.0,13.0,12.0,4.0,2.0,4.0,-1.0,1651087836166563.0
-11.0,-10.0,-17.0,-4.0,-4.0,1.0,-6.0,-6.0,1651087836167403.0
3.0,-5.0,-24.0,-9.0,-5.0,-2.0,1.0,6.0,1651087836167403.0
0.0,2.0,19.0,1.0,4.0,3.0,3.0,0.0,1651087836180537.0
7.0,6.0,-7.0,18.0,8.0,11.0,10.0,5.0,1651087836180537.0
5.0,2.0,7.0,2.0,4.0,1.0,-1.0,-2.0,1651087836189223.0
3.0,8.0,27.0,11.0,-4.0,-5.0,-2.0,10.0,1651087836189223.0
-3.0,-4.0,-43.0,-19.0,-3.0,2.0,4.0,3.0,1651087836204271.0
0.0,-5.0,5.0,16.0,8.0,-1.0,-1.0,-15.0,1651087836204271.0
5.0,8.0,7.0,-10.0,1.0,9.0,11.0,8.0,1651087836204271.0
-2.0,-5.0,0.0,1.0,2.0,7.0,4.0,7.0,1651087836204271.0
-3.0,1.0,27.0,7.0,-3.0,-10.0,-10.0,-1.0,1651087836227524.0
-7.0,-5.0,-12.0,-11.0,-5.0,0.0,-2.0,-7.0,1651087836227524.0
-2.0,3.0,10.0,11.0,2.0,-4.0,-3.0,8.0,1651087836227524.0
-2.0,-9.0,-23.0,-23.0,-8.0,-9.0,-10.0,-19.0,1651087836227524.0
-2.0,1.0,9.0,4.0,0.0,3.0,3.0,-4.0,1651087836240240.0
-8.0,0.0,9.0,9.0,2.0,9.0,15.0,10.0,1651087836240240.0
6.0,-4.0,-21.0,-13.0,-7.0,-10.0,-9.0,-3.0,1651087836248382.0
1.0,6.0,10.0,2.0,3.0,-1.0,2.0,1.0,1651087836248382.0
-2.0,-7.0,-9.0,-6.0,0.0,1.0,0.0,2.0,1651087836263535.0
2.0,0.0,1.0,3.0,1.0,7.0,3.0,-2.0,1651087836263535.0
6.0,3.0,3.0,-24.0,4.0,7.0,7.0,15.0,1651087836264377.0
0.0,2.0,32.0,58.0,11.0,0.0,-2.0,-1.0,1651087836264377.0
6.0,-1.0,1.0,-21.0,-6.0,-7.0,-9.0,-3.0,1651087836287535.0
-15.0,1.0,-19.0,-7.0,1.0,0.0,-1.0,-1.0,1651087836287535.0
-7.0,-9.0,-12.0,-19.0,-14.0,-9.0,-5.0,26.0,1651087836287535.0
-3.0,-1.0,-20.0,-4.0,5.0,7.0,4.0,2.0,1651087836287535.0
17.0,7.0,30.0,22.0,0.0,0.0,7.0,1.0,1651087836300661.0
5.0,-8.0,2.0,-6.0,-2.0,-6.0,-14.0,-5.0,1651087836300661.0
-5.0,1.0,-9.0,11.0,-2.0,-2.0,3.0,-5.0,1651087836308523.0
-6.0,-2.0,-6.0,-11.0,3.0,5.0,5.0,-2.0,1651087836308523.0
-13.0,1.0,23.0,8.0,1.0,0.0,-3.0,-9.0,1651087836323146.0
2.0,-5.0,-15.0,-27.0,-5.0,-3.0,1.0,5.0,1651087836323146.0
9.0,0.0,1.0,15.0,3.0,5.0,3.0,-9.0,1651087836324151.0
-10.0,4.0,-24.0,-18.0,-6.0,-7.0,-1.0,-7.0,1651087836324151.0
-1.0,6.0,34.0,28.0,12.0,17.0,11.0,5.0,1651087836346198.0
10.0,-8.0,-70.0,-22.0,-14.0,-16.0,-13.0,5.0,1651087836346198.0
-15.0,-3.0,36.0,-14.0,-4.0,-4.0,-2.0,-10.0,1651087836347196.0
0.0,-4.0,1.0,9.0,-3.0,-5.0,-13.0,-19.0,1651087836347196.0
-4.0,2.0,-28.0,-16.0,2.0,5.0,2.0,-7.0,1651087836360406.0
3.0,7.0,33.0,14.0,7.0,4.0,3.0,-3.0,1651087836360406.0
-6.0,-2.0,-27.0,15.0,2.0,6.0,6.0,-3.0,1651087836368804.0
16.0,-2.0,-13.0,-25.0,-9.0,3.0,9.0,8.0,1651087836368804.0
-15.0,-11.0,-22.0,-18.0,-8.0,-6.0,-6.0,-6.0,1651087836383212.0
5.0,3.0,27.0,12.0,-1.0,-2.0,-6.0,-5.0,1651087836383212.0
4.0,4.0,-37.0,-19.0,-2.0,-2.0,-2.0,3.0,1651087836384212.0
-8.0,4.0,25.0,11.0,4.0,3.0,0.0,-9.0,1651087836384212.0
-2.0,1.0,20.0,14.0,0.0,-3.0,-4.0,6.0,1651087836406337.0
-9.0,-3.0,-19.0,-15.0,-7.0,-1.0,1.0,6.0,1651087836406337.0
8.0,9.0,46.0,27.0,8.0,1.0,-1.0,-19.0,1651087836407194.0
1.0,-7.0,-27.0,-15.0,-11.0,1.0,3.0,13.0,1651087836407194.0
-2.0,1.0,20.0,9.0,2.0,-8.0,-9.0,-11.0,1651087836429120.0
0.0,-2.0,-27.0,-2.0,0.0,1.0,8.0,4.0,1651087836429120.0
0.0,-3.0,-10.0,-7.0,0.0,3.0,12.0,13.0,1651087836430149.0
-1.0,-1.0,18.0,12.0,4.0,3.0,-6.0,0.0,1651087836430149.0
-1.0,3.0,-24.0,-9.0,-3.0,-9.0,-10.0,-13.0,1651087836443206.0
6.0,-4.0,34.0,13.0,7.0,5.0,-2.0,-16.0,1651087836443206.0
-12.0,-6.0,-4.0,-1.0,-2.0,-2.0,4.0,2.0,1651087836444206.0
9.0,7.0,6.0,14.0,7.0,4.0,3.0,5.0,1651087836444206.0
-1.0,-6.0,-9.0,-11.0,-6.0,-6.0,-5.0,-4.0,1651087836466611.0
-3.0,2.0,-20.0,-7.0,1.0,1.0,5.0,6.0,1651087836466611.0
-4.0,6.0,27.0,29.0,4.0,-1.0,-7.0,-15.0,1651087836467464.0
-4.0,-3.0,7.0,-15.0,0.0,-1.0,0.0,11.0,1651087836467464.0
0.0,-9.0,-38.0,-6.0,-2.0,5.0,5.0,2.0,1651087836489216.0
17.0,10.0,25.0,9.0,-4.0,-7.0,-7.0,-1.0,1651087836489216.0
3.0,2.0,21.0,-4.0,-2.0,-6.0,-8.0,3.0,1651087836490223.0
0.0,1.0,3.0,1.0,1.0,4.0,7.0,0.0,1651087836490223.0
4.0,3.0,-22.0,-13.0,-1.0,3.0,7.0,24.0,1651087836504245.0
-19.0,-11.0,13.0,2.0,-9.0,-8.0,-12.0,-29.0,1651087836504245.0
6.0,4.0,13.0,11.0,3.0,4.0,-1.0,6.0,1651087836504245.0
2.0,0.0,-23.0,-24.0,-7.0,-8.0,-1.0,-1.0,1651087836504245.0
-8.0,-12.0,-20.0,-1.0,3.0,2.0,-2.0,-14.0,1651087836526264.0
7.0,5.0,14.0,-2.0,-6.0,-7.0,-2.0,9.0,1651087836526264.0
5.0,-2.0,-3.0,-6.0,4.0,9.0,8.0,-17.0,1651087836527121.0
-5.0,-5.0,-1.0,11.0,-3.0,-3.0,-2.0,-8.0,1651087836527121.0
2.0,-12.0,-29.0,-10.0,-7.0,-2.0,-2.0,0.0,1651087836549206.0
-4.0,2.0,-27.0,-8.0,-4.0,-7.0,-6.0,-2.0,1651087836549206.0
-5.0,-3.0,39.0,-10.0,0.0,1.0,2.0,1.0,1651087836550239.0
3.0,3.0,23.0,14.0,-2.0,-5.0,-6.0,1.0,1651087836550239.0
5.0,15.0,25.0,20.0,4.0,8.0,4.0,-13.0,1651087836563385.0
-11.0,-7.0,-3.0,-11.0,0.0,4.0,-8.0,-2.0,1651087836563385.0
10.0,8.0,-15.0,-5.0,-7.0,-2.0,8.0,14.0,1651087836564323.0
6.0,-6.0,-22.0,-15.0,4.0,0.0,-3.0,0.0,1651087836564323.0
-7.0,-1.0,56.0,15.0,1.0,-5.0,-7.0,5.0,1651087836586296.0
4.0,5.0,-36.0,-5.0,3.0,7.0,8.0,-10.0,1651087836586296.0
-7.0,-2.0,-7.0,-5.0,-6.0,-2.0,-12.0,4.0,1651087836587175.0
-1.0,7.0,18.0,11.0,3.0,-2.0,-2.0,-3.0,1651087836587175.0
-7.0,-4.0,-25.0,-11.0,-2.0,-2.0,-4.0,-1.0,1651087836609185.0
16.0,-2.0,11.0,33.0,9.0,5.0,7.0,10.0,1651087836609185.0
9.0,-13.0,-18.0,-35.0,-8.0,-6.0,-7.0,-11.0,1651087836610185.0
-6.0,1.0,-1.0,13.0,-4.0,0.0,0.0,20.0,1651087836610185.0
-3.0,5.0,20.0,7.0,3.0,-1.0,1.0,-12.0,1651087836623102.0
7.0,11.0,28.0,13.0,2.0,1.0,5.0,8.0,1651087836623102.0
-8.0,-4.0,-36.0,-11.0,-5.0,-3.0,-6.0,-25.0,1651087836624103.0
-3.0,-8.0,-6.0,-5.0,0.0,1.0,3.0,4.0,1651087836624103.0
-2.0,0.0,4.0,-6.0,-6.0,-2.0,-3.0,1.0,1651087836647000.0
-1.0,2.0,-23.0,-6.0,0.0,-5.0,-5.0,3.0,1651087836647000.0
-3.0,0.0,57.0,22.0,9.0,7.0,4.0,-4.0,1651087836647000.0
2.0,1.0,-26.0,-2.0,-1.0,0.0,-2.0,-11.0,1651087836647000.0
-1.0,-3.0,-8.0,-7.0,-1.0,-3.0,0.0,6.0,1651087836669393.0
-1.0,-4.0,15.0,1.0,-1.0,1.0,5.0,4.0,1651087836669393.0
1.0,-4.0,-42.0,-4.0,-4.0,-8.0,-6.0,9.0,1651087836669393.0
-1.0,4.0,37.0,-4.0,-3.0,3.0,-3.0,-21.0,1651087836669393.0
1.0,2.0,-16.0,-5.0,-1.0,-1.0,2.0,5.0,1651087836683298.0
0.0,-7.0,23.0,8.0,9.0,3.0,0.0,1.0,1651087836683298.0
4.0,3.0,-13.0,2.0,-3.0,3.0,4.0,-4.0,1651087836684181.0
6.0,-7.0,-26.0,8.0,5.0,-7.0,-10.0,-12.0,1651087836684181.0
0.0,4.0,16.0,0.0,-5.0,1.0,3.0,1.0,1651087836706285.0
1.0,5.0,-55.0,-38.0,-8.0,-1.0,0.0,9.0,1651087836706285.0
-2.0,7.0,19.0,5.0,2.0,3.0,5.0,-24.0,1651087836707166.0
-5.0,8.0,32.0,34.0,4.0,-3.0,1.0,5.0,1651087836707166.0
14.0,-16.0,12.0,-20.0,-7.0,-7.0,-1.0,7.0,1651087836729197.0
-9.0,3.0,1.0,3.0,-2.0,1.0,-1.0,2.0,1651087836729197.0
-6.0,-5.0,33.0,23.0,1.0,-4.0,-8.0,-6.0,1651087836730077.0
-1.0,-2.0,-36.0,-42.0,-17.0,-11.0,-2.0,19.0,1651087836730077.0
-5.0,4.0,-6.0,-4.0,1.0,2.0,-2.0,-4.0,1651087836743220.0
-3.0,-5.0,7.0,18.0,6.0,3.0,0.0,-1.0,1651087836743220.0
-3.0,2.0,-12.0,-14.0,-3.0,-1.0,-1.0,10.0,1651087836744219.0
-8.0,3.0,49.0,24.0,5.0,3.0,4.0,-15.0,1651087836744219.0
4.0,-13.0,-82.0,-46.0,-11.0,-9.0,-2.0,9.0,1651087836766328.0
-8.0,-5.0,17.0,5.0,-1.0,-2.0,-2.0,-6.0,1651087836766328.0
15.0,10.0,39.0,13.0,1.0,0.0,2.0,14.0,1651087836767178.0
7.0,1.0,-54.0,-10.0,3.0,5.0,6.0,15.0,1651087836767178.0
1.0,4.0,41.0,22.0,3.0,0.0,0.0,-5.0,1651087836789213.0
0.0,-2.0,11.0,-10.0,-4.0,3.0,6.0,15.0,1651087836789213.0
-12.0,3.0,9.0,34.0,2.0,-6.0,-11.0,-5.0,1651087836790214.0
-4.0,-12.0,-40.0,-46.0,-10.0,-1.0,7.0,6.0,1651087836790214.0
4.0,12.0,-11.0,23.0,7.0,4.0,-11.0,-6.0,1651087836803206.0
-5.0,6.0,24.0,-11.0,-6.0,-2.0,2.0,3.0,1651087836803206.0
-1.0,-5.0,0.0,7.0,3.0,2.0,2.0,4.0,1651087836804214.0
-5.0,3.0,19.0,-14.0,-6.0,-3.0,1.0,-2.0,1651087836804214.0
-8.0,-5.0,-5.0,13.0,8.0,3.0,-3.0,-9.0,1651087836826322.0
1.0,-4.0,1.0,-7.0,-3.0,-3.0,1.0,-13.0,1651087836826322.0
-10.0,3.0,-42.0,-14.0,-1.0,0.0,-2.0,8.0,1651087836827187.0
1.0,-4.0,26.0,7.0,3.0,3.0,-4.0,-5.0,1651087836827187.0
0.0,-5.0,-7.0,-6.0,4.0,-1.0,2.0,5.0,1651087836849204.0
-8.0,2.0,-18.0,12.0,2.0,-1.0,0.0,-4.0,1651087836849204.0
5.0,-9.0,-9.0,-39.0,-5.0,-1.0,-1.0,22.0,1651087836850238.0
4.0,8.0,0.0,17.0,-1.0,3.0,1.0,-2.0,1651087836850238.0
-19.0,3.0,27.0,12.0,4.0,5.0,4.0,-7.0,1651087836863191.0
12.0,5.0,-7.0,-6.0,-4.0,-7.0,-7.0,-6.0,1651087836863191.0
5.0,-7.0,-13.0,0.0,1.0,-1.0,3.0,-19.0,1651087836864191.0
-13.0,-5.0,12.0,-9.0,-2.0,-4.0,-8.0,8.0,1651087836864191.0
5.0,9.0,57.0,22.0,-2.0,3.0,4.0,5.0,1651087836887013.0
-10.0,-16.0,-38.0,-17.0,-10.0,-3.0,-2.0,-8.0,1651087836887013.0
1.0,0.0,-4.0,-1.0,6.0,7.0,3.0,-3.0,1651087836887013.0
7.0,-5.0,11.0,30.0,-1.0,-7.0,-4.0,-2.0,1651087836887013.0
-4.0,-14.0,-56.0,-31.0,-11.0,-7.0,-2.0,-7.0,1651087836910090.0
11.0,9.0,7.0,-5.0,-5.0,0.0,-1.0,2.0,1651087836910090.0
-3.0,-3.0,29.0,7.0,2.0,-2.0,3.0,3.0,1651087836910090.0
-5.0,1.0,-24.0,1.0,-3.0,1.0,0.0,5.0,1651087836910090.0
8.0,1.0,1.0,-10.0,-3.0,-3.0,-2.0,8.0,1651087836923100.0
-4.0,5.0,51.0,46.0,4.0,-2.0,0.0,-3.0,1651087836923100.0
-4.0,-9.0,-10.0,-29.0,-10.0,-2.0,-8.0,-4.0,1651087836924101.0
3.0,7.0,-7.0,14.0,9.0,1.0,-2.0,-6.0,1651087836924101.0
-4.0,1.0,-20.0,-16.0,-8.0,-5.0,3.0,18.0,1651087836946193.0
3.0,-1.0,8.0,4.0,7.0,4.0,1.0,-1.0,1651087836946193.0
3.0,4.0,28.0,22.0,7.0,3.0,3.0,3.0,1651087836947190.0
8.0,-6.0,4.0,-4.0,-7.0,-2.0,2.0,-18.0,1651087836947190.0
-2.0,-9.0,-29.0,-8.0,7.0,1.0,1.0,25.0,1651087836969313.0
-15.0,-4.0,34.0,12.0,8.0,4.0,-3.0,-14.0,1651087836969313.0
9.0,12.0,-11.0,5.0,7.0,7.0,8.0,7.0,1651087836969313.0
-11.0,-12.0,-21.0,-13.0,-7.0,-8.0,1.0,9.0,1651087836969313.0
-7.0,7.0,25.0,11.0,-1.0,-2.0,-3.0,-14.0,1651087836983218.0
-6.0,-6.0,-15.0,-12.0,-8.0,-5.0,-5.0,0.0,1651087836983218.0
-6.0,-7.0,-48.0,-13.0,-1.0,-3.0,-4.0,0.0,1651087836984218.0
11.0,7.0,34.0,17.0,13.0,9.0,7.0,4.0,1651087836984218.0
4.0,0.0,-7.0,-8.0,0.0,0.0,-4.0,-19.0,1651087837006346.0
0.0,-3.0,-13.0,-1.0,-6.0,-5.0,-1.0,6.0,1651087837006346.0
-4.0,4.0,16.0,-1.0,0.0,1.0,3.0,5.0,1651087837007202.0
-9.0,-18.0,-38.0,-30.0,-5.0,-2.0,-6.0,-22.0,1651087837007202.0
4.0,6.0,41.0,28.0,-1.0,-1.0,3.0,12.0,1651087837037025.0
12.0,5.0,-6.0,-13.0,4.0,4.0,4.0,0.0,1651087837037025.0
-7.0,-1.0,5.0,-14.0,-8.0,-7.0,-6.0,-15.0,1651087837037025.0
-1.0,2.0,-35.0,-9.0,4.0,11.0,6.0,6.0,1651087837037025.0
11.0,6.0,5.0,-3.0,-4.0,-4.0,1.0,-5.0,1651087837043047.0
-14.0,-6.0,-16.0,0.0,1.0,7.0,-1.0,-19.0,1651087837043047.0
-1.0,-21.0,21.0,-1.0,-9.0,-8.0,-1.0,6.0,1651087837058097.0
5.0,5.0,-45.0,-11.0,-9.0,-5.0,-4.0,2.0,1651087837058097.0
-4.0,-12.0,-5.0,-13.0,-8.0,-10.0,-2.0,5.0,1651087837067054.0
3.0,0.0,-9.0,-4.0,-4.0,-4.0,-5.0,-12.0,1651087837067054.0
10.0,-3.0,-11.0,1.0,3.0,2.0,-2.0,3.0,1651087837067054.0
-12.0,-3.0,42.0,13.0,3.0,2.0,-4.0,-4.0,1651087837067054.0
1.0,4.0,-32.0,3.0,2.0,1.0,2.0,2.0,1651087837089223.0
-4.0,-1.0,-7.0,-11.0,-8.0,-8.0,-4.0,-8.0,1651087837089223.0
9.0,-5.0,12.0,14.0,4.0,1.0,-1.0,-6.0,1651087837090232.0
1.0,0.0,2.0,-15.0,-5.0,-3.0,-3.0,7.0,1651087837090232.0
9.0,3.0,21.0,5.0,3.0,5.0,3.0,-1.0,1651087837102544.0
-2.0,-6.0,-42.0,-3.0,1.0,-2.0,-3.0,6.0,1651087837102544.0
-6.0,10.0,16.0,7.0,-4.0,-4.0,-1.0,-3.0,1651087837111204.0
3.0,3.0,14.0,13.0,-1.0,1.0,1.0,5.0,1651087837111204.0
-9.0,-11.0,18.0,5.0,10.0,7.0,0.0,-3.0,1651087837126234.0
8.0,1.0,-22.0,-13.0,-10.0,-8.0,-7.0,7.0,1651087837126234.0
0.0,1.0,-15.0,-4.0,-1.0,-1.0,-3.0,0.0,1651087837127149.0
5.0,-16.0,7.0,18.0,12.0,2.0,2.0,-2.0,1651087837127149.0
-7.0,24.0,-23.0,-14.0,-6.0,-7.0,-5.0,5.0,1651087837149212.0
-4.0,-8.0,47.0,20.0,5.0,0.0,1.0,-2.0,1651087837149212.0
-8.0,1.0,-24.0,-5.0,-5.0,4.0,-2.0,-4.0,1651087837150244.0
1.0,1.0,10.0,-13.0,0.0,-2.0,-3.0,1.0,1651087837150244.0
-2.0,0.0,-4.0,5.0,0.0,1.0,2.0,-8.0,1651087837162547.0
4.0,-6.0,4.0,-5.0,-2.0,2.0,-3.0,10.0,1651087837162547.0
1.0,8.0,-16.0,-18.0,-5.0,1.0,9.0,9.0,1651087837171340.0
4.0,12.0,2.0,-3.0,-4.0,-6.0,-5.0,-14.0,1651087837171340.0
-6.0,-7.0,15.0,9.0,4.0,3.0,0.0,5.0,1651087837186316.0
-6.0,4.0,-14.0,-7.0,1.0,2.0,6.0,12.0,1651087837186316.0
3.0,-4.0,26.0,18.0,0.0,-1.0,-5.0,-18.0,1651087837187177.0
-1.0,8.0,7.0,2.0,6.0,6.0,3.0,-1.0,1651087837187177.0
-1.0,-4.0,-7.0,2.0,2.0,-1.0,-2.0,-5.0,1651087837209220.0
-2.0,0.0,11.0,10.0,-1.0,-2.0,-2.0,6.0,1651087837209220.0
-3.0,1.0,-11.0,-13.0,1.0,1.0,1.0,2.0,1651087837209220.0
-2.0,9.0,12.0,7.0,-5.0,-2.0,0.0,0.0,1651087837209220.0
-3.0,-12.0,-10.0,4.0,12.0,3.0,-1.0,-10.0,1651087837232025.0
2.0,0.0,2.0,0.0,-4.0,-1.0,2.0,-2.0,1651087837232025.0
0.0,0.0,-8.0,-1.0,-4.0,-5.0,-1.0,1.0,1651087837232025.0
-4.0,0.0,9.0,0.0,1.0,1.0,1.0,-5.0,1651087837232025.0
3.0,1.0,-1.0,-2.0,-3.0,1.0,1.0,2.0,1651087837245990.0
-3.0,5.0,-4.0,-8.0,-1.0,-2.0,1.0,-3.0,1651087837245990.0
-1.0,1.0,-3.0,-2.0,0.0,-1.0,-2.0,-1.0,1651087837245990.0
-4.0,-3.0,-1.0,0.0,-3.0,-2.0,-1.0,4.0,1651087837245990.0
0.0,0.0,2.0,-1.0,-6.0,-1.0,0.0,-1.0,1651087837269067.0
2.0,-5.0,-3.0,-1.0,5.0,0.0,0.0,-3.0,1651087837269067.0
-2.0,-2.0,-2.0,-1.0,-3.0,1.0,1.0,0.0,1651087837269926.0
1.0,-2.0,-4.0,4.0,4.0,2.0,2.0,2.0,1651087837269926.0
-1.0,0.0,1.0,-4.0,-7.0,-3.0,-4.0,-5.0,1651087837283149.0
1.0,0.0,-1.0,2.0,-1.0,0.0,1.0,-4.0,1651087837283149.0
-3.0,-3.0,-4.0,-3.0,1.0,0.0,0.0,3.0,1651087837291314.0
-1.0,-5.0,-3.0,-2.0,-3.0,-1.0,0.0,-1.0,1651087837291314.0
-1.0,5.0,7.0,0.0,-3.0,-1.0,0.0,0.0,1651087837306197.0
1.0,0.0,-3.0,3.0,0.0,-2.0,0.0,1.0,1651087837306197.0
-1.0,0.0,-3.0,2.0,3.0,1.0,1.0,-1.0,1651087837306197.0
-1.0,-1.0,-2.0,-7.0,0.0,-1.0,1.0,0.0,1651087837306197.0
1.0,-3.0,-3.0,0.0,-3.0,-3.0,-4.0,-2.0,1651087837330019.0
1.0,-1.0,-1.0,2.0,4.0,4.0,3.0,0.0,1651087837330019.0
-1.0,0.0,-1.0,2.0,-2.0,-3.0,-2.0,1.0,1651087837331019.0
0.0,-1.0,3.0,8.0,-2.0,3.0,-2.0,-1.0,1651087837331019.0
-1.0,-2.0,-3.0,-7.0,-4.0,-4.0,-1.0,0.0,1651087837352021.0
0.0,1.0,-3.0,-3.0,1.0,3.0,0.0,0.0,1651087837352021.0
-1.0,-1.0,4.0,1.0,1.0,-1.0,-1.0,-1.0,1651087837352021.0
0.0,0.0,0.0,0.0,1.0,1.0,1.0,1.0,1651087837352021.0
1.0,-1.0,0.0,1.0,-1.0,-2.0,0.0,-1.0,1651087837365518.0
0.0,2.0,-1.0,-3.0,-1.0,-2.0,1.0,8.0,1651087837365518.0
5.0,2.0,-1.0,1.0,-1.0,-1.0,-4.0,-2.0,1651087837366412.0
-5.0,-3.0,-4.0,-3.0,-2.0,-1.0,4.0,1.0,1651087837366412.0
0.0,2.0,1.0,-1.0,0.0,8.0,2.0,-3.0,1651087837388837.0
-1.0,1.0,-1.0,0.0,-2.0,-2.0,-1.0,5.0,1651087837388837.0
-3.0,0.0,-1.0,-2.0,-1.0,-1.0,-2.0,0.0,1651087837389837.0
0.0,0.0,-2.0,-4.0,-4.0,-1.0,-3.0,-3.0,1651087837389837.0
0.0,-1.0,1.0,0.0,0.0,-4.0,1.0,6.0,1651087837411954.0
-2.0,0.0,0.0,1.0,4.0,4.0,2.0,-2.0,1651087837411954.0
-1.0,-2.0,-1.0,-1.0,-2.0,0.0,3.0,-1.0,1651087837411954.0
1.0,-1.0,-2.0,-3.0,-2.0,-3.0,-3.0,-1.0,1651087837411954.0
0.0,2.0,0.0,-2.0,-2.0,0.0,0.0,-4.0,1651087837425960.0
2.0,-1.0,-1.0,-3.0,-2.0,-1.0,-4.0,-3.0,1651087837425960.0
-1.0,0.0,-3.0,0.0,0.0,-2.0,-1.0,-3.0,1651087837426946.0
0.0,-1.0,-1.0,-1.0,-2.0,0.0,-2.0,1.0,1651087837426946.0
0.0,-3.0,-2.0,-1.0,-3.0,-1.0,-1.0,-4.0,1651087837448854.0
0.0,0.0,3.0,2.0,7.0,3.0,0.0,-4.0,1651087837448854.0
0.0,0.0,-1.0,0.0,1.0,-2.0,1.0,3.0,1651087837449851.0
-1.0,-1.0,-2.0,-1.0,0.0,-2.0,-1.0,0.0,1651087837449851.0
1.0,1.0,-1.0,-1.0,-6.0,-3.0,1.0,2.0,1651087837471815.0
-1.0,0.0,1.0,0.0,-4.0,-1.0,0.0,-2.0,1651087837471815.0
-3.0,-2.0,-1.0,1.0,3.0,3.0,0.0,1.0,1651087837471815.0
1.0,-1.0,-1.0,-1.0,1.0,0.0,-1.0,-1.0,1651087837471815.0
0.0,1.0,-3.0,1.0,0.0,-2.0,-1.0,-2.0,1651087837485778.0
0.0,-5.0,1.0,-1.0,-1.0,-2.0,-1.0,1.0,1651087837485778.0
-1.0,1.0,2.0,-1.0,-4.0,-2.0,-1.0,0.0,1651087837486774.0
0.0,1.0,-2.0,0.0,-2.0,-1.0,-2.0,-1.0,1651087837486774.0
-1.0,-1.0,-3.0,0.0,3.0,-1.0,-2.0,1.0,1651087837509340.0
-2.0,1.0,-3.0,-2.0,-2.0,-2.0,-1.0,-1.0,1651087837509340.0
-1.0,-2.0,1.0,-2.0,0.0,-1.0,1.0,-1.0,1651087837509340.0
1.0,0.0,2.0,1.0,0.0,-2.0,0.0,-1.0,1651087837509340.0
-1.0,0.0,1.0,4.0,3.0,1.0,0.0,-1.0,1651087837532020.0
0.0,-1.0,-3.0,-2.0,-3.0,-2.0,-2.0,-1.0,1651087837532020.0
0.0,-2.0,-3.0,0.0,1.0,1.0,1.0,-2.0,1651087837532020.0
1.0,1.0,0.0,1.0,-1.0,0.0,2.0,0.0,1651087837532020.0
-2.0,1.0,-2.0,0.0,1.0,-1.0,0.0,-2.0,1651087837546202.0
-1.0,0.0,-1.0,-2.0,-2.0,1.0,-1.0,0.0,1651087837546202.0
0.0,0.0,-3.0,-2.0,-1.0,-2.0,-1.0,0.0,1651087837546202.0
-1.0,0.0,1.0,0.0,2.0,1.0,0.0,0.0,1651087837546202.0
2.0,-4.0,1.0,-2.0,1.0,0.0,-1.0,-1.0,1651087837569226.0
0.0,0.0,-2.0,-3.0,-2.0,-3.0,1.0,0.0,1651087837569226.0
0.0,-1.0,1.0,-3.0,-3.0,-2.0,-1.0,1.0,1651087837569226.0
-1.0,-2.0,-1.0,-1.0,2.0,0.0,0.0,-2.0,1651087837569226.0
-2.0,0.0,1.0,1.0,1.0,2.0,-2.0,1.0,1651087837592028.0
-2.0,1.0,-2.0,-2.0,-1.0,-1.0,0.0,-1.0,1651087837592028.0
0.0,-1.0,-2.0,-2.0,-2.0,-1.0,0.0,0.0,1651087837592028.0
-2.0,-2.0,-1.0,1.0,0.0,0.0,-2.0,-3.0,1651087837592028.0
-1.0,-2.0,-1.0,2.0,0.0,-2.0,1.0,0.0,1651087837613650.0
0.0,-1.0,-1.0,-1.0,-1.0,1.0,0.0,1.0,1651087837613650.0
-2.0,0.0,-1.0,-1.0,-1.0,-3.0,-1.0,-1.0,1651087837614542.0
0.0,1.0,-5.0,-2.0,-2.0,-1.0,-1.0,0.0,1651087837614542.0
0.0,-2.0,1.0,1.0,-1.0,-1.0,3.0,0.0,1651087837629096.0
0.0,-1.0,-1.0,-1.0,1.0,1.0,-1.0,0.0,1651087837629096.0
-1.0,0.0,-1.0,0.0,2.0,2.0,-2.0,0.0,1651087837630064.0
1.0,-1.0,0.0,-2.0,-3.0,-4.0,-2.0,0.0,1651087837630064.0
-2.0,-1.0,0.0,-1.0,1.0,-2.0,-1.0,0.0,1651087837651275.0
1.0,-1.0,1.0,2.0,3.0,2.0,2.0,0.0,1651087837651275.0
0.0,-1.0,-1.0,-2.0,-2.0,-2.0,-1.0,0.0,1651087837652274.0
-1.0,0.0,0.0,-2.0,-1.0,0.0,-1.0,0.0,1651087837652274.0
-1.0,-1.0,-1.0,-1.0,-3.0,1.0,-1.0,0.0,1651087837665280.0
0.0,-1.0,0.0,0.0,-2.0,-4.0,-2.0,-1.0,1651087837665280.0
0.0,0.0,-1.0,2.0,3.0,2.0,1.0,1.0,1651087837666270.0
0.0,-2.0,-1.0,0.0,-1.0,-1.0,0.0,0.0,1651087837666270.0
0.0,0.0,-2.0,-2.0,-4.0,-3.0,-1.0,-1.0,1651087837689221.0
-1.0,1.0,-2.0,-2.0,-1.0,0.0,-2.0,-2.0,1651087837689221.0
-1.0,-2.0,-1.0,-1.0,-1.0,0.0,-2.0,-1.0,1651087837689221.0
0.0,-1.0,0.0,0.0,0.0,1.0,1.0,-1.0,1651087837689221.0
1.0,-1.0,0.0,0.0,0.0,0.0,1.0,-1.0,1651087837711198.0
-2.0,0.0,0.0,-1.0,1.0,-1.0,0.0,-1.0,1651087837711198.0
-2.0,0.0,-2.0,-1.0,-2.0,-2.0,-1.0,0.0,1651087837712082.0
0.0,-1.0,-1.0,0.0,1.0,1.0,0.0,-1.0,1651087837712082.0
-2.0,-1.0,-1.0,0.0,0.0,0.0,1.0,0.0,1651087837725226.0
-1.0,0.0,0.0,0.0,0.0,-3.0,-4.0,0.0,1651087837725226.0
-1.0,1.0,-1.0,-1.0,-2.0,-1.0,1.0,-2.0,1651087837734211.0
-1.0,-1.0,-3.0,-2.0,-3.0,-1.0,-2.0,2.0,1651087837734211.0
0.0,-1.0,-2.0,0.0,-1.0,1.0,-1.0,-1.0,1651087837749215.0
-1.0,-1.0,1.0,4.0,2.0,1.0,1.0,1.0,1651087837749215.0
0.0,1.0,0.0,0.0,0.0,0.0,-1.0,0.0,1651087837750216.0
0.0,0.0,0.0,-1.0,-2.0,-3.0,0.0,0.0,1651087837750216.0
-2.0,-1.0,0.0,0.0,1.0,1.0,0.0,-1.0,1651087837771360.0
0.0,0.0,-2.0,0.0,-1.0,-1.0,0.0,-1.0,1651087837771360.0
0.0,0.0,0.0,-2.0,-4.0,-2.0,-2.0,-1.0,1651087837773210.0
-2.0,-1.0,-2.0,-1.0,-1.0,0.0,0.0,0.0,1651087837773210.0
-2.0,-1.0,1.0,2.0,2.0,0.0,-1.0,-1.0,1651087837785177.0
0.0,-2.0,-2.0,-1.0,0.0,0.0,-2.0,0.0,1651087837785177.0
-1.0,-2.0,1.0,1.0,-1.0,0.0,0.0,0.0,1651087837794199.0
0.0,-2.0,-2.0,-3.0,-3.0,-3.0,0.0,-1.0,1651087837794199.0
1.0,1.0,-5.0,-5.0,-3.0,-4.0,-2.0,0.0,1651087837809218.0
-1.0,0.0,0.0,3.0,5.0,4.0,1.0,-2.0,1651087837809218.0
-1.0,-1.0,-1.0,1.0,1.0,-1.0,1.0,-2.0,1651087837810217.0
0.0,-1.0,1.0,0.0,-2.0,-1.0,-2.0,0.0,1651087837810217.0
0.0,-1.0,1.0,-1.0,-2.0,0.0,-1.0,-1.0,1651087837831453.0
-1.0,-1.0,-1.0,-3.0,-3.0,-2.0,-1.0,-1.0,1651087837831453.0
-1.0,-1.0,-1.0,1.0,1.0,1.0,-1.0,-1.0,1651087837833539.0
-1.0,-2.0,0.0,1.0,3.0,1.0,0.0,-1.0,1651087837833539.0
0.0,0.0,0.0,-1.0,-1.0,-1.0,-1.0,-1.0,1651087837845360.0
-1.0,0.0,-2.0,-1.0,-4.0,-2.0,-1.0,0.0,1651087837845360.0
0.0,-1.0,-1.0,0.0,-2.0,1.0,0.0,-1.0,1651087837854193.0
-2.0,0.0,0.0,2.0,2.0,1.0,-1.0,0.0,1651087837854193.0
1.0,-1.0,-2.0,0.0,-1.0,-3.0,-2.0,-1.0,1651087837869219.0
-1.0,-1.0,0.0,1.0,1.0,-1.0,0.0,-2.0,1651087837869219.0
-1.0,0.0,-3.0,1.0,2.0,0.0,1.0,0.0,1651087837870251.0
0.0,0.0,-2.0,-2.0,-3.0,-1.0,-1.0,0.0,1651087837870251.0
-1.0,-1.0,-1.0,-1.0,-3.0,-1.0,-1.0,0.0,1651087837892029.0
-2.0,0.0,1.0,-1.0,-2.0,-2.0,1.0,-2.0,1651087837892029.0
0.0,0.0,0.0,1.0,0.0,0.0,1.0,-1.0,1651087837893029.0
-1.0,2.0,0.0,1.0,1.0,1.0,0.0,0.0,1651087837893029.0
0.0,0.0,2.0,1.0,-1.0,-2.0,-1.0,-1.0,1651087837904740.0
1.0,0.0,-1.0,-2.0,-2.0,-2.0,-3.0,0.0,1651087837904740.0
1.0,-1.0,0.0,1.0,-1.0,0.0,-1.0,0.0,1651087837913568.0
-2.0,-1.0,0.0,-1.0,1.0,-1.0,-1.0,-1.0,1651087837913568.0
0.0,-1.0,0.0,1.0,0.0,1.0,1.0,-1.0,1651087837928861.0
-1.0,0.0,-2.0,0.0,0.0,-1.0,1.0,0.0,1651087837928861.0
0.0,0.0,-2.0,-3.0,-3.0,-5.0,-2.0,-1.0,1651087837930742.0
0.0,-1.0,0.0,1.0,3.0,0.0,0.0,-1.0,1651087837930742.0
-1.0,-1.0,1.0,3.0,3.0,3.0,1.0,0.0,1651087837958976.0
0.0,-2.0,-1.0,-2.0,-3.0,-1.0,-1.0,-1.0,1651087837958976.0
-1.0,1.0,0.0,0.0,0.0,0.0,-1.0,-1.0,1651087837960856.0
-1.0,0.0,1.0,-2.0,-1.0,-1.0,0.0,0.0,1651087837960856.0
-1.0,-1.0,0.0,-1.0,-1.0,0.0,-1.0,-2.0,1651087837964845.0
1.0,0.0,0.0,-1.0,-3.0,-1.0,0.0,-1.0,1651087837964845.0
1.0,0.0,-1.0,-1.0,-2.0,-2.0,-3.0,-1.0,1651087837973980.0
-1.0,0.0,0.0,0.0,-3.0,-2.0,0.0,-2.0,1651087837973980.0
-2.0,1.0,-1.0,0.0,4.0,3.0,0.0,-1.0,1651087837989214.0
-1.0,0.0,-1.0,-1.0,-3.0,-2.0,-2.0,-1.0,1651087837989214.0
-2.0,-1.0,0.0,-3.0,-3.0,-1.0,-2.0,-2.0,1651087837990213.0
-3.0,-2.0,0.0,1.0,4.0,1.0,2.0,-1.0,1651087837990213.0
-1.0,-1.0,0.0,0.0,-3.0,0.0,0.0,3.0,1651087838011330.0
-1.0,-2.0,-2.0,-1.0,-1.0,-1.0,-1.0,-1.0,1651087838011330.0
1.0,-1.0,-1.0,-3.0,-2.0,-2.0,0.0,-1.0,1651087838013327.0
2.0,1.0,-2.0,-2.0,-6.0,-3.0,-1.0,-1.0,1651087838013327.0
0.0,1.0,-2.0,-4.0,-3.0,-3.0,-1.0,0.0,1651087838025229.0
-2.0,0.0,1.0,2.0,4.0,2.0,1.0,-2.0,1651087838025229.0
-1.0,0.0,-1.0,1.0,1.0,0.0,1.0,-1.0,1651087838034209.0
-1.0,-1.0,1.0,-1.0,0.0,0.0,-1.0,-3.0,1651087838034209.0
1.0,0.0,0.0,-3.0,0.0,-2.0,0.0,0.0,1651087838049229.0
1.0,-1.0,-3.0,-3.0,-6.0,-3.0,-2.0,0.0,1651087838049229.0
-3.0,-1.0,0.0,0.0,2.0,1.0,1.0,0.0,1651087838050261.0
0.0,0.0,-2.0,-2.0,0.0,-1.0,-1.0,-1.0,1651087838050261.0
0.0,-1.0,1.0,-2.0,0.0,-1.0,0.0,-1.0,1651087838072001.0
0.0,0.0,0.0,-2.0,-2.0,0.0,0.0,0.0,1651087838072001.0
-3.0,-2.0,-1.0,3.0,3.0,3.0,0.0,0.0,1651087838073003.0
-1.0,-2.0,-1.0,-1.0,-2.0,-1.0,-2.0,1.0,1651087838073003.0
-1.0,1.0,0.0,0.0,-1.0,-1.0,-3.0,0.0,1651087838085616.0
-1.0,-1.0,0.0,0.0,2.0,0.0,1.0,0.0,1651087838085616.0
2.0,1.0,0.0,0.0,-1.0,0.0,0.0,0.0,1651087838094180.0
0.0,1.0,1.0,1.0,0.0,1.0,0.0,0.0,1651087838094180.0
1.0,-3.0,-3.0,-1.0,-2.0,-2.0,-1.0,-2.0,1651087838109202.0
-2.0,-1.0,-1.0,-2.0,-1.0,-1.0,-1.0,-1.0,1651087838109202.0
-1.0,-3.0,-1.0,0.0,-1.0,-1.0,0.0,1.0,1651087838110236.0
-1.0,0.0,-1.0,0.0,-2.0,0.0,-1.0,0.0,1651087838110236.0
-1.0,0.0,-1.0,0.0,-2.0,0.0,0.0,-2.0,1651087838132351.0
-2.0,1.0,-1.0,2.0,3.0,1.0,1.0,0.0,1651087838132351.0
0.0,-2.0,-1.0,1.0,0.0,-1.0,0.0,-1.0,1651087838133232.0
0.0,-2.0,0.0,-1.0,1.0,-2.0,1.0,0.0,1651087838133232.0
0.0,0.0,0.0,-2.0,-3.0,-2.0,-3.0,-2.0,1651087838145443.0
0.0,0.0,-1.0,-2.0,-4.0,-2.0,-1.0,-2.0,1651087838145443.0
-2.0,2.0,-1.0,-3.0,-2.0,-2.0,-1.0,0.0,1651087838154174.0
0.0,-2.0,-2.0,1.0,0.0,0.0,0.0,-1.0,1651087838154174.0
-3.0,-1.0,1.0,2.0,5.0,2.0,3.0,2.0,1651087838169188.0
1.0,-2.0,1.0,-1.0,0.0,-1.0,-1.0,-1.0,1651087838169188.0
-1.0,0.0,0.0,-1.0,-1.0,0.0,-1.0,0.0,1651087838170217.0
-1.0,1.0,-2.0,-2.0,-3.0,-1.0,-2.0,-2.0,1651087838170217.0
0.0,-1.0,-1.0,1.0,0.0,0.0,-1.0,0.0,1651087838192001.0
0.0,0.0,-1.0,0.0,2.0,-1.0,-1.0,0.0,1651087838192001.0
1.0,-2.0,-1.0,-3.0,-3.0,-2.0,1.0,0.0,1651087838193002.0
0.0,0.0,1.0,1.0,-1.0,0.0,-1.0,-1.0,1651087838193002.0
1.0,-1.0,-1.0,-2.0,-4.0,-3.0,-1.0,0.0,1651087838205299.0
-1.0,0.0,0.0,0.0,0.0,1.0,1.0,0.0,1651087838205299.0
0.0,0.0,0.0,2.0,2.0,3.0,-1.0,-1.0,1651087838214156.0
-2.0,0.0,-1.0,1.0,4.0,-1.0,1.0,1.0,1651087838214156.0
0.0,-2.0,-1.0,-1.0,-1.0,-2.0,1.0,-1.0,1651087838229209.0
1.0,-1.0,0.0,-3.0,-3.0,-2.0,0.0,1.0,1651087838229209.0
0.0,-1.0,-1.0,-2.0,-4.0,-2.0,-1.0,0.0,1651087838230211.0
0.0,-1.0,0.0,0.0,-1.0,0.0,-2.0,0.0,1651087838230211.0
0.0,0.0,-2.0,1.0,-2.0,-1.0,-1.0,0.0,1651087838251561.0
0.0,-2.0,-1.0,-2.0,-2.0,-1.0,-3.0,0.0,1651087838251561.0
-1.0,-2.0,-1.0,-2.0,1.0,-1.0,-2.0,-1.0,1651087838266242.0
1.0,1.0,-1.0,-1.0,-1.0,0.0,-2.0,-2.0,1651087838266242.0
0.0,-3.0,-2.0,-2.0,-2.0,0.0,-2.0,1.0,1651087838266242.0
0.0,0.0,1.0,2.0,0.0,0.0,0.0,-2.0,1651087838266242.0
0.0,0.0,1.0,-1.0,-2.0,-1.0,1.0,-1.0,1651087838274168.0
-1.0,-1.0,-2.0,0.0,0.0,0.0,1.0,1.0,1651087838274168.0
-1.0,1.0,1.0,-1.0,0.0,-1.0,0.0,0.0,1651087838289214.0
0.0,0.0,-1.0,0.0,1.0,1.0,0.0,1.0,1651087838289214.0
-2.0,0.0,-1.0,-1.0,-1.0,-2.0,0.0,-2.0,1651087838290216.0
0.0,-1.0,-1.0,-1.0,-1.0,-2.0,0.0,0.0,1651087838290216.0
1.0,-2.0,-3.0,0.0,0.0,1.0,-2.0,0.0,1651087838312342.0
-2.0,-2.0,-1.0,0.0,-1.0,-1.0,0.0,-1.0,1651087838312342.0
0.0,0.0,-1.0,0.0,0.0,0.0,0.0,-2.0,1651087838313206.0
0.0,-2.0,1.0,-1.0,-2.0,0.0,0.0,-1.0,1651087838313206.0
-1.0,1.0,-1.0,-1.0,1.0,-1.0,0.0,1.0,1651087838334331.0
0.0,-2.0,-1.0,-1.0,-2.0,1.0,-1.0,-2.0,1651087838334331.0
1.0,0.0,0.0,2.0,2.0,2.0,-1.0,-2.0,1651087838335199.0
-1.0,0.0,0.0,-2.0,-1.0,-1.0,-1.0,-2.0,1651087838335199.0
0.0,-1.0,-2.0,-1.0,-3.0,-2.0,-1.0,-1.0,1651087838349305.0
1.0,0.0,-1.0,-2.0,-4.0,-1.0,0.0,-2.0,1651087838349305.0
0.0,0.0,2.0,3.0,3.0,2.0,1.0,1.0,1651087838350306.0
0.0,0.0,-2.0,-3.0,-1.0,-2.0,0.0,0.0,1651087838350306.0
-1.0,-1.0,1.0,0.0,0.0,0.0,1.0,-1.0,1651087838372304.0
-1.0,-1.0,-2.0,-3.0,-1.0,-3.0,-2.0,0.0,1651087838372304.0
0.0,-1.0,1.0,-1.0,-3.0,-3.0,-1.0,0.0,1651087838373197.0
1.0,0.0,-1.0,1.0,-1.0,-3.0,1.0,0.0,1651087838373197.0
0.0,-1.0,-2.0,0.0,-3.0,-1.0,-2.0,0.0,1651087838394416.0
-1.0,-1.0,-2.0,-1.0,1.0,0.0,1.0,-1.0,1651087838394416.0
0.0,-2.0,0.0,2.0,5.0,3.0,2.0,-1.0,1651087838395272.0
-1.0,0.0,-2.0,1.0,1.0,1.0,1.0,0.0,1651087838395272.0
0.0,0.0,1.0,-2.0,0.0,-3.0,-1.0,-3.0,1651087838409233.0
-1.0,2.0,1.0,0.0,0.0,0.0,0.0,0.0,1651087838409233.0
0.0,-1.0,-3.0,-1.0,-3.0,-1.0,-2.0,-1.0,1651087838410259.0
-2.0,-1.0,-1.0,-2.0,-3.0,-1.0,-1.0,-2.0,1651087838410259.0
-1.0,-1.0,-1.0,-1.0,-2.0,0.0,0.0,0.0,1651087838432375.0
-2.0,-1.0,2.0,3.0,6.0,1.0,1.0,-1.0,1651087838432375.0
0.0,-1.0,-2.0,-1.0,0.0,-1.0,-1.0,1.0,1651087838433085.0
1.0,-1.0,-2.0,-5.0,-5.0,-1.0,-1.0,1.0,1651087838433085.0
0.0,-1.0,2.0,0.0,-3.0,-2.0,-1.0,-2.0,1651087838454380.0
-1.0,0.0,1.0,2.0,2.0,0.0,-1.0,0.0,1651087838454380.0
-2.0,0.0,0.0,-2.0,-2.0,-1.0,-1.0,0.0,1651087838455260.0
-2.0,-1.0,2.0,-1.0,-2.0,0.0,-1.0,-1.0,1651087838455260.0
-2.0,-1.0,0.0,0.0,7.0,4.0,1.0,-1.0,1651087838469277.0
-2.0,1.0,1.0,2.0,5.0,4.0,1.0,0.0,1651087838469277.0
-1.0,-2.0,-1.0,-2.0,-4.0,-3.0,0.0,0.0,1651087838475312.0
1.0,-2.0,-2.0,-5.0,-7.0,-5.0,-2.0,0.0,1651087838475312.0
-3.0,0.0,-1.0,0.0,0.0,1.0,-1.0,-3.0,1651087838491261.0
0.0,0.0,-1.0,-3.0,-3.0,-1.0,-1.0,-1.0,1651087838491261.0
0.0,-1.0,-2.0,-3.0,-2.0,-1.0,-3.0,-1.0,1651087838493205.0
-1.0,-1.0,1.0,3.0,4.0,-1.0,-1.0,0.0,1651087838493205.0
0.0,0.0,0.0,-1.0,-2.0,0.0,1.0,1.0,1651087838514290.0
0.0,-1.0,-2.0,0.0,-6.0,-2.0,-1.0,-1.0,1651087838514290.0
0.0,0.0,-2.0,-1.0,-4.0,-1.0,-1.0,-2.0,1651087838515187.0
-2.0,-2.0,0.0,-1.0,-2.0,0.0,0.0,-2.0,1651087838515187.0
2.0,0.0,0.0,-4.0,1.0,0.0,-1.0,0.0,1651087838528310.0
-2.0,-1.0,1.0,4.0,3.0,3.0,-1.0,0.0,1651087838528310.0
2.0,-1.0,4.0,19.0,26.0,7.0,0.0,2.0,1651087838535453.0
-2.0,-2.0,-1.0,-1.0,-1.0,0.0,0.0,-2.0,1651087838535453.0
-1.0,0.0,-3.0,-7.0,-9.0,-4.0,-2.0,1.0,1651087838552026.0
-1.0,-2.0,-2.0,-4.0,-6.0,-4.0,-1.0,0.0,1651087838552026.0
1.0,4.0,0.0,-1.0,3.0,-1.0,-1.0,0.0,1651087838553026.0
0.0,-6.0,3.0,9.0,8.0,2.0,1.0,0.0,1651087838553026.0
-1.0,-1.0,-10.0,0.0,-2.0,0.0,1.0,-1.0,1651087838574167.0
1.0,1.0,-4.0,-12.0,-6.0,-3.0,0.0,-1.0,1651087838574167.0
-2.0,-3.0,-2.0,3.0,0.0,0.0,2.0,-1.0,1651087838575061.0
0.0,-1.0,-3.0,-8.0,-9.0,-6.0,-2.0,-1.0,1651087838575061.0
-1.0,5.0,5.0,-4.0,-9.0,-2.0,-2.0,-4.0,1651087838589233.0
-2.0,-1.0,-1.0,3.0,-2.0,-1.0,0.0,0.0,1651087838589233.0
-2.0,-2.0,-3.0,-12.0,-13.0,-5.0,-1.0,-1.0,1651087838595386.0
-1.0,-1.0,-2.0,2.0,4.0,4.0,1.0,1.0,1651087838595386.0
0.0,-3.0,0.0,1.0,-2.0,-2.0,0.0,-2.0,1651087838612459.0
-1.0,0.0,-2.0,-4.0,-4.0,-2.0,0.0,0.0,1651087838612459.0
0.0,-1.0,3.0,2.0,3.0,0.0,0.0,1.0,1651087838613059.0
0.0,2.0,-3.0,-8.0,-5.0,-1.0,-1.0,0.0,1651087838613059.0
0.0,-4.0,1.0,8.0,2.0,0.0,-1.0,0.0,1651087838634124.0
0.0,-1.0,2.0,-3.0,1.0,2.0,1.0,-1.0,1651087838634124.0
-1.0,1.0,-3.0,-18.0,-16.0,-7.0,-2.0,-1.0,1651087838636003.0
-4.0,-10.0,0.0,11.0,12.0,5.0,-1.0,1.0,1651087838636003.0
-1.0,2.0,-1.0,0.0,2.0,0.0,1.0,0.0,1651087838648383.0
-1.0,-1.0,-1.0,-3.0,0.0,-3.0,-2.0,-1.0,1651087838648383.0
-3.0,0.0,-1.0,-1.0,-5.0,-2.0,-1.0,-1.0,1651087838655359.0
1.0,2.0,1.0,-9.0,-12.0,-3.0,-1.0,-1.0,1651087838655359.0
-1.0,-1.0,0.0,4.0,9.0,4.0,-1.0,2.0,1651087838672065.0
0.0,-1.0,-2.0,5.0,-7.0,-5.0,-2.0,-2.0,1651087838672065.0
-1.0,-2.0,-1.0,0.0,0.0,0.0,0.0,-1.0,1651087838673061.0
0.0,3.0,-2.0,-3.0,-1.0,-2.0,0.0,0.0,1651087838673061.0
-1.0,-6.0,-1.0,-8.0,-2.0,0.0,-2.0,0.0,1651087838694398.0
0.0,0.0,-4.0,-5.0,-14.0,-3.0,-3.0,-1.0,1651087838694398.0
2.0,2.0,2.0,-9.0,13.0,10.0,3.0,3.0,1651087838695260.0
0.0,-2.0,0.0,27.0,22.0,6.0,1.0,-1.0,1651087838695260.0
1.0,-4.0,2.0,1.0,14.0,5.0,2.0,-2.0,1651087838707363.0
-4.0,5.0,3.0,10.0,3.0,-3.0,-3.0,0.0,1651087838707363.0
-2.0,-1.0,3.0,-3.0,-13.0,-6.0,-1.0,-3.0,1651087838733107.0
-1.0,2.0,-4.0,-13.0,-5.0,0.0,2.0,0.0,1651087838733107.0
0.0,0.0,-1.0,-17.0,-27.0,-9.0,-1.0,0.0,1651087838733107.0
0.0,-4.0,0.0,13.0,17.0,2.0,1.0,0.0,1651087838733107.0
1.0,5.0,1.0,7.0,-2.0,0.0,0.0,0.0,1651087838734141.0
1.0,-3.0,-1.0,17.0,13.0,4.0,1.0,2.0,1651087838734141.0
0.0,-1.0,-7.0,-30.0,-29.0,-12.0,-4.0,-1.0,1651087838754393.0
1.0,-2.0,3.0,27.0,36.0,15.0,6.0,3.0,1651087838754393.0
-3.0,-4.0,-6.0,-24.0,-28.0,-14.0,-3.0,-2.0,1651087838755262.0
-2.0,1.0,2.0,8.0,6.0,1.0,-1.0,-1.0,1651087838755262.0
1.0,4.0,3.0,1.0,1.0,1.0,2.0,0.0,1651087838768428.0
0.0,1.0,1.0,-1.0,-5.0,0.0,1.0,-1.0,1651087838768428.0
-1.0,-2.0,-1.0,9.0,12.0,0.0,0.0,0.0,1651087838777227.0
-4.0,-2.0,-1.0,-8.0,-17.0,-7.0,-1.0,-2.0,1651087838777227.0
0.0,-1.0,-1.0,-10.0,-11.0,-4.0,-1.0,1.0,1651087838792534.0
1.0,-3.0,-1.0,3.0,18.0,6.0,2.0,1.0,1651087838792534.0
2.0,4.0,-1.0,4.0,-6.0,-1.0,-1.0,-1.0,1651087838793059.0
-1.0,-5.0,-2.0,-11.0,-8.0,-4.0,-2.0,-1.0,1651087838793059.0
-3.0,-3.0,6.0,20.0,14.0,4.0,1.0,0.0,1651087838814347.0
1.0,3.0,0.0,-14.0,2.0,2.0,2.0,0.0,1651087838814347.0
-1.0,-6.0,-7.0,-9.0,-11.0,-3.0,-2.0,-1.0,1651087838815197.0
1.0,6.0,7.0,20.0,24.0,7.0,2.0,1.0,1651087838815197.0
1.0,-1.0,2.0,5.0,11.0,6.0,1.0,-1.0,1651087838828287.0
-1.0,-5.0,-3.0,2.0,-13.0,-5.0,-3.0,-2.0,1651087838828287.0
-1.0,-4.0,-22.0,-8.0,-12.0,-5.0,-1.0,-1.0,1651087838837217.0
0.0,-2.0,0.0,-15.0,1.0,-2.0,-1.0,-3.0,1651087838837217.0
-2.0,-2.0,-3.0,5.0,-2.0,0.0,-2.0,-1.0,1651087838852388.0
0.0,-1.0,0.0,-2.0,-2.0,0.0,0.0,-1.0,1651087838852388.0
2.0,3.0,14.0,12.0,5.0,3.0,1.0,0.0,1651087838853097.0
-5.0,-4.0,-16.0,-22.0,-14.0,-7.0,-3.0,-4.0,1651087838853097.0
-1.0,2.0,5.0,5.0,-2.0,-3.0,-2.0,0.0,1651087838874062.0
0.0,0.0,7.0,-16.0,-13.0,-3.0,0.0,1.0,1651087838874062.0
0.0,-4.0,-35.0,7.0,10.0,4.0,1.0,0.0,1651087838875092.0
-1.0,3.0,24.0,2.0,-5.0,-3.0,-1.0,-1.0,1651087838875092.0
1.0,5.0,4.0,19.0,15.0,5.0,4.0,0.0,1651087838888487.0
-2.0,-6.0,1.0,-7.0,-8.0,-3.0,-3.0,-3.0,1651087838888487.0
1.0,-3.0,15.0,0.0,5.0,3.0,1.0,3.0,1651087838897122.0
-1.0,-4.0,-26.0,-12.0,-8.0,-4.0,-5.0,-1.0,1651087838897122.0
1.0,1.0,16.0,11.0,3.0,4.0,0.0,2.0,1651087838911354.0
1.0,6.0,-15.0,-5.0,-5.0,-3.0,0.0,-2.0,1651087838911354.0
0.0,1.0,2.0,3.0,6.0,4.0,0.0,0.0,1651087838913353.0
-1.0,0.0,-3.0,-13.0,-8.0,-1.0,0.0,0.0,1651087838913353.0
-1.0,0.0,-11.0,11.0,7.0,3.0,-1.0,0.0,1651087838934349.0
-1.0,-2.0,4.0,10.0,0.0,1.0,-1.0,0.0,1651087838934349.0
-3.0,-4.0,-26.0,-21.0,1.0,-2.0,-2.0,-6.0,1651087838935202.0
4.0,5.0,13.0,23.0,-2.0,0.0,-1.0,1.0,1651087838935202.0
-1.0,5.0,12.0,9.0,-2.0,-2.0,1.0,3.0,1651087838948454.0
1.0,-1.0,57.0,32.0,13.0,1.0,0.0,9.0,1651087838948454.0
-9.0,-8.0,-13.0,-36.0,-13.0,-8.0,-3.0,-27.0,1651087838956226.0
0.0,5.0,-10.0,11.0,7.0,3.0,-1.0,-3.0,1651087838956226.0
4.0,-6.0,-39.0,-34.0,-6.0,2.0,0.0,1.0,1651087838972620.0
-1.0,-4.0,23.0,17.0,-7.0,-7.0,-6.0,0.0,1651087838972620.0
2.0,11.0,37.0,26.0,13.0,6.0,4.0,11.0,1651087838973061.0
-1.0,-2.0,-11.0,0.0,-4.0,-3.0,0.0,7.0,1651087838973061.0
-6.0,3.0,14.0,1.0,3.0,0.0,-1.0,-11.0,1651087838994312.0
4.0,-8.0,-16.0,-31.0,-8.0,-1.0,0.0,9.0,1651087838994312.0
-3.0,0.0,17.0,15.0,0.0,-4.0,-3.0,-1.0,1651087839002286.0
0.0,-2.0,-27.0,-4.0,0.0,2.0,3.0,3.0,1651087839002286.0
0.0,1.0,22.0,5.0,4.0,-2.0,2.0,-8.0,1651087839008134.0
-9.0,5.0,-34.0,-8.0,1.0,0.0,-3.0,1.0,1651087839008134.0
1.0,-6.0,-17.0,-9.0,0.0,0.0,0.0,9.0,1651087839017191.0
-1.0,2.0,26.0,21.0,-4.0,-2.0,-5.0,-34.0,1651087839017191.0
-4.0,-5.0,12.0,-15.0,0.0,-4.0,-3.0,5.0,1651087839031332.0
5.0,-3.0,-3.0,7.0,3.0,4.0,6.0,6.0,1651087839031332.0
0.0,6.0,-28.0,-10.0,-8.0,-5.0,-6.0,-5.0,1651087839038054.0
0.0,7.0,56.0,33.0,10.0,4.0,3.0,6.0,1651087839038054.0
7.0,-4.0,-39.0,-28.0,-2.0,-2.0,1.0,0.0,1651087839062006.0
-8.0,1.0,-17.0,-7.0,-4.0,-1.0,-4.0,-5.0,1651087839062006.0
5.0,3.0,11.0,18.0,6.0,2.0,4.0,32.0,1651087839063007.0
2.0,-10.0,-17.0,-22.0,-6.0,-3.0,-1.0,-9.0,1651087839063007.0
7.0,11.0,30.0,31.0,6.0,1.0,0.0,5.0,1651087839067992.0
-17.0,-8.0,-9.0,2.0,3.0,-1.0,-2.0,-16.0,1651087839067992.0
-2.0,-1.0,7.0,3.0,-1.0,4.0,12.0,20.0,1651087839077153.0
4.0,-1.0,-17.0,-15.0,-3.0,0.0,-9.0,12.0,1651087839077153.0
-7.0,1.0,28.0,22.0,0.0,1.0,-1.0,-12.0,1651087839091193.0
29.0,0.0,-44.0,-28.0,-7.0,-1.0,6.0,18.0,1651087839091193.0
1.0,3.0,33.0,15.0,5.0,4.0,1.0,-11.0,1651087839098060.0
-1.0,-10.0,-14.0,-38.0,-8.0,-5.0,0.0,19.0,1651087839098060.0
-10.0,-6.0,-23.0,27.0,0.0,0.0,1.0,7.0,1651087839114336.0
-7.0,3.0,9.0,-1.0,0.0,-3.0,-4.0,6.0,1651087839114336.0
-2.0,-4.0,-6.0,-34.0,-14.0,-5.0,-6.0,-27.0,1651087839115251.0
15.0,16.0,28.0,1.0,6.0,7.0,9.0,7.0,1651087839115251.0
-5.0,-15.0,-53.0,-24.0,-6.0,-2.0,-7.0,-1.0,1651087839127305.0
-4.0,-3.0,-5.0,7.0,-3.0,-4.0,-5.0,-38.0,1651087839127305.0
1.0,-2.0,-17.0,-8.0,8.0,2.0,-1.0,-3.0,1651087839136278.0
0.0,-13.0,-6.0,8.0,-7.0,-4.0,1.0,6.0,1651087839136278.0
3.0,5.0,34.0,15.0,0.0,-1.0,3.0,9.0,1651087839151267.0
-3.0,8.0,1.0,-11.0,-7.0,-5.0,-6.0,13.0,1651087839151267.0
-9.0,-1.0,48.0,9.0,2.0,2.0,-4.0,-34.0,1651087839157253.0
-5.0,6.0,-40.0,8.0,3.0,-2.0,-1.0,-3.0,1651087839157253.0
-19.0,-15.0,-41.0,-30.0,-12.0,-9.0,-4.0,12.0,1651087839174178.0
21.0,0.0,23.0,-12.0,-6.0,6.0,4.0,-11.0,1651087839174178.0
13.0,1.0,-17.0,12.0,5.0,0.0,2.0,16.0,1651087839175091.0
-2.0,-4.0,7.0,-18.0,-2.0,1.0,2.0,-12.0,1651087839175091.0
7.0,11.0,23.0,9.0,-5.0,3.0,-5.0,-19.0,1651087839188116.0
-8.0,-2.0,-18.0,10.0,4.0,-3.0,5.0,6.0,1651087839188116.0
5.0,-3.0,66.0,16.0,-2.0,-3.0,-2.0,18.0,1651087839196999.0
1.0,-3.0,-29.0,9.0,4.0,-1.0,-3.0,-19.0,1651087839196999.0
10.0,6.0,-23.0,-23.0,8.0,0.0,4.0,8.0,1651087839211025.0
-22.0,-3.0,17.0,-24.0,-7.0,1.0,5.0,7.0,1651087839211025.0
30.0,-2.0,28.0,25.0,-2.0,-1.0,2.0,5.0,1651087839218124.0
-7.0,1.0,-11.0,-7.0,-4.0,-5.0,-8.0,9.0,1651087839218124.0
-16.0,-5.0,2.0,21.0,9.0,1.0,-4.0,-17.0,1651087839234359.0
5.0,8.0,5.0,11.0,-5.0,0.0,-2.0,-9.0,1651087839234359.0
-12.0,0.0,-48.0,-46.0,-2.0,-3.0,2.0,-3.0,1651087839235245.0
1.0,-8.0,40.0,34.0,0.0,-1.0,0.0,22.0,1651087839235245.0
11.0,6.0,-48.0,-39.0,-5.0,1.0,-2.0,-21.0,1651087839256259.0
6.0,-1.0,26.0,21.0,10.0,3.0,2.0,1.0,1651087839256259.0
-28.0,-4.0,-6.0,-5.0,-6.0,-4.0,-7.0,-21.0,1651087839258229.0
6.0,11.0,0.0,4.0,0.0,1.0,3.0,-3.0,1651087839258229.0
-17.0,-11.0,4.0,11.0,-7.0,-4.0,-2.0,-17.0,1651087839270366.0
4.0,-7.0,11.0,11.0,8.0,-1.0,3.0,18.0,1651087839270366.0
5.0,-3.0,-39.0,-29.0,-10.0,-1.0,-5.0,12.0,1651087839279537.0
-8.0,6.0,37.0,-10.0,-1.0,-1.0,-3.0,-8.0,1651087839279537.0
10.0,0.0,14.0,1.0,6.0,4.0,3.0,15.0,1651087839294355.0
-2.0,-6.0,-26.0,-15.0,-5.0,-3.0,0.0,-2.0,1651087839294355.0
-5.0,2.0,4.0,22.0,5.0,-2.0,-4.0,2.0,1651087839295251.0
-19.0,2.0,-15.0,-9.0,-2.0,3.0,10.0,13.0,1651087839295251.0
-1.0,1.0,11.0,1.0,-2.0,-6.0,-9.0,-4.0,1651087839316713.0
4.0,-3.0,29.0,37.0,8.0,0.0,-2.0,-4.0,1651087839316713.0
-11.0,0.0,-4.0,-13.0,-8.0,-1.0,-1.0,-3.0,1651087839317609.0
-17.0,2.0,15.0,6.0,2.0,4.0,2.0,-4.0,1651087839317609.0
29.0,1.0,-71.0,-55.0,-11.0,-6.0,-4.0,-8.0,1651087839330673.0
-15.0,-3.0,-9.0,-3.0,2.0,2.0,-2.0,-20.0,1651087839330673.0
9.0,-1.0,36.0,27.0,5.0,4.0,5.0,-5.0,1651087839337692.0
1.0,-9.0,-27.0,-29.0,-1.0,-3.0,-2.0,10.0,1651087839337692.0
20.0,7.0,9.0,4.0,2.0,5.0,1.0,5.0,1651087839354339.0
-2.0,-7.0,4.0,-12.0,-4.0,-4.0,2.0,8.0,1651087839354339.0
4.0,8.0,-14.0,-2.0,2.0,1.0,-6.0,-11.0,1651087839355238.0
5.0,-2.0,-12.0,-5.0,-6.0,-3.0,-1.0,1.0,1651087839355238.0
-8.0,-8.0,7.0,-18.0,-2.0,0.0,6.0,28.0,1651087839376185.0
-3.0,10.0,20.0,7.0,4.0,-2.0,-8.0,-8.0,1651087839376185.0
3.0,3.0,-41.0,17.0,8.0,6.0,8.0,22.0,1651087839378080.0
-8.0,-4.0,-16.0,-34.0,-3.0,-2.0,-5.0,-21.0,1651087839378080.0
-6.0,-3.0,57.0,67.0,8.0,2.0,2.0,13.0,1651087839391208.0
3.0,8.0,-30.0,-37.0,-13.0,-3.0,-3.0,-1.0,1651087839391208.0
-3.0,-7.0,-16.0,-6.0,-1.0,0.0,0.0,-9.0,1651087839398097.0
6.0,1.0,-3.0,19.0,0.0,-1.0,-3.0,5.0,1651087839398097.0
-8.0,-8.0,8.0,-7.0,-9.0,-6.0,0.0,-13.0,1651087839414220.0
3.0,2.0,-21.0,-50.0,-3.0,2.0,6.0,7.0,1651087839414220.0
-19.0,-8.0,12.0,48.0,3.0,-4.0,-11.0,-13.0,1651087839415092.0
5.0,6.0,13.0,20.0,7.0,1.0,1.0,-1.0,1651087839415092.0
-1.0,5.0,17.0,-3.0,-2.0,-1.0,2.0,-3.0,1651087839437657.0
-2.0,1.0,-3.0,4.0,-8.0,-3.0,-4.0,-8.0,1651087839437657.0
10.0,-10.0,9.0,-4.0,4.0,0.0,3.0,15.0,1651087839437657.0
-21.0,-9.0,-12.0,4.0,-1.0,-5.0,-5.0,-9.0,1651087839437657.0
-16.0,0.0,18.0,-1.0,-2.0,-1.0,-2.0,-17.0,1651087839450843.0
0.0,-12.0,-14.0,2.0,-3.0,-4.0,-5.0,7.0,1651087839450843.0
-5.0,9.0,14.0,8.0,-5.0,0.0,2.0,3.0,1651087839457879.0
8.0,-7.0,-8.0,7.0,0.0,0.0,-3.0,6.0,1651087839457879.0
-7.0,-4.0,-12.0,5.0,6.0,-2.0,-3.0,2.0,1651087839473972.0
2.0,5.0,14.0,-4.0,1.0,5.0,13.0,-21.0,1651087839473972.0
3.0,-6.0,-22.0,-2.0,0.0,-3.0,-7.0,15.0,1651087839476011.0
10.0,12.0,32.0,22.0,0.0,1.0,2.0,-12.0,1651087839476011.0
0.0,-6.0,-30.0,-17.0,-9.0,-4.0,-4.0,11.0,1651087839496394.0
6.0,3.0,-12.0,19.0,9.0,4.0,3.0,-14.0,1651087839496394.0
-5.0,-2.0,-4.0,-24.0,-5.0,-6.0,-5.0,0.0,1651087839498423.0
-3.0,0.0,6.0,23.0,5.0,2.0,0.0,2.0,1651087839498423.0
-2.0,4.0,18.0,-14.0,0.0,3.0,2.0,4.0,1651087839511366.0
8.0,-2.0,-1.0,-1.0,-2.0,-2.0,-2.0,12.0,1651087839511366.0
-4.0,0.0,-49.0,-25.0,-5.0,-4.0,1.0,-11.0,1651087839518484.0
-11.0,-6.0,35.0,-26.0,-7.0,-2.0,-2.0,-9.0,1651087839518484.0
2.0,-9.0,-8.0,16.0,0.0,-3.0,-1.0,0.0,1651087839534244.0
-7.0,-5.0,-36.0,-21.0,-3.0,-2.0,-3.0,18.0,1651087839534244.0
-8.0,2.0,18.0,-26.0,-8.0,-3.0,-2.0,-13.0,1651087839535211.0
20.0,-9.0,-19.0,7.0,-1.0,-2.0,2.0,12.0,1651087839535211.0
10.0,4.0,-8.0,-4.0,-2.0,1.0,1.0,5.0,1651087839557782.0
-3.0,2.0,30.0,13.0,2.0,0.0,-3.0,1.0,1651087839557782.0
5.0,2.0,17.0,14.0,10.0,6.0,5.0,17.0,1651087839563161.0
5.0,-2.0,-7.0,-2.0,-3.0,1.0,2.0,2.0,1651087839563161.0
-17.0,-10.0,-18.0,-25.0,-6.0,-2.0,-2.0,-20.0,1651087839571206.0
-5.0,-3.0,-10.0,5.0,-3.0,-3.0,-8.0,-19.0,1651087839571206.0
17.0,10.0,14.0,19.0,0.0,0.0,1.0,-12.0,1651087839578353.0
-4.0,-2.0,-30.0,-42.0,-3.0,-3.0,-4.0,-10.0,1651087839578353.0
3.0,11.0,24.0,45.0,9.0,2.0,1.0,0.0,1651087839594401.0
-12.0,2.0,18.0,-8.0,-5.0,-1.0,-1.0,-7.0,1651087839594401.0
-19.0,-16.0,-16.0,-3.0,0.0,-1.0,-5.0,-32.0,1651087839595233.0
-12.0,4.0,54.0,31.0,7.0,1.0,0.0,7.0,1651087839595233.0
5.0,-4.0,-17.0,-9.0,2.0,1.0,1.0,1.0,1651087839616961.0
2.0,2.0,-24.0,6.0,1.0,-1.0,4.0,19.0,1651087839616961.0
-2.0,-10.0,11.0,-10.0,-11.0,-5.0,-1.0,9.0,1651087839617960.0
8.0,2.0,-2.0,0.0,-2.0,-2.0,3.0,27.0,1651087839617960.0
-2.0,5.0,3.0,12.0,11.0,3.0,-3.0,-14.0,1651087839631174.0
-3.0,3.0,18.0,11.0,-4.0,1.0,1.0,11.0,1651087839631174.0
-3.0,9.0,-6.0,-12.0,8.0,1.0,2.0,-5.0,1651087839638459.0
-11.0,-12.0,-15.0,-12.0,-5.0,-1.0,-1.0,-4.0,1651087839638459.0
8.0,1.0,-2.0,-15.0,-7.0,-2.0,1.0,0.0,1651087839654406.0
-18.0,-1.0,-13.0,8.0,5.0,1.0,0.0,16.0,1651087839654406.0
26.0,10.0,37.0,19.0,4.0,1.0,-2.0,-8.0,1651087839655259.0
5.0,0.0,6.0,-5.0,-2.0,0.0,2.0,-7.0,1651087839655259.0
13.0,2.0,17.0,10.0,0.0,-1.0,-5.0,-6.0,1651087839676222.0
5.0,-5.0,-36.0,-13.0,-2.0,0.0,2.0,-4.0,1651087839676222.0
-7.0,3.0,25.0,14.0,-2.0,-1.0,0.0,17.0,1651087839684034.0
2.0,-2.0,-18.0,-5.0,-3.0,0.0,2.0,1.0,1651087839684034.0
-4.0,-5.0,-13.0,-1.0,0.0,0.0,-1.0,-3.0,1651087839690224.0
-1.0,-5.0,54.0,34.0,6.0,-3.0,-5.0,-12.0,1651087839690224.0
-3.0,-5.0,-28.0,-8.0,1.0,2.0,1.0,-2.0,1651087839698723.0
13.0,8.0,-27.0,-13.0,-2.0,0.0,0.0,10.0,1651087839698723.0
-20.0,2.0,22.0,6.0,-3.0,-4.0,-1.0,24.0,1651087839714357.0
2.0,-6.0,12.0,15.0,2.0,-3.0,-6.0,-22.0,1651087839714357.0
-4.0,1.0,11.0,-2.0,1.0,1.0,2.0,14.0,1651087839715195.0
-1.0,-4.0,-9.0,-1.0,-1.0,-2.0,-4.0,9.0,1651087839715195.0
3.0,2.0,26.0,11.0,1.0,-1.0,0.0,7.0,1651087839737527.0
7.0,12.0,25.0,-4.0,1.0,0.0,-1.0,3.0,1651087839737527.0
-4.0,-8.0,-40.0,-15.0,-5.0,-2.0,-2.0,-14.0,1651087839737527.0
-3.0,3.0,-4.0,15.0,0.0,-1.0,-2.0,-5.0,1651087839737527.0
-1.0,1.0,11.0,-4.0,-3.0,-3.0,2.0,-10.0,1651087839750397.0
13.0,1.0,-15.0,-11.0,-1.0,2.0,1.0,4.0,1651087839750397.0
9.0,3.0,19.0,-2.0,-5.0,-3.0,1.0,10.0,1651087839759154.0
-7.0,-10.0,-15.0,-13.0,-2.0,-3.0,-3.0,0.0,1651087839759154.0
7.0,8.0,10.0,15.0,-1.0,0.0,0.0,2.0,1651087839774060.0
-15.0,-7.0,5.0,-6.0,1.0,1.0,1.0,-4.0,1651087839774060.0
3.0,-1.0,-14.0,-6.0,-5.0,-4.0,-5.0,11.0,1651087839775090.0
7.0,11.0,8.0,-16.0,1.0,0.0,0.0,-4.0,1651087839775090.0
10.0,-2.0,40.0,30.0,-3.0,-2.0,0.0,1.0,1651087839797524.0
-9.0,-5.0,-43.0,-53.0,-12.0,-6.0,-5.0,5.0,1651087839797524.0
4.0,2.0,-12.0,17.0,5.0,5.0,4.0,3.0,1651087839797524.0
-12.0,-3.0,30.0,-7.0,0.0,-2.0,-4.0,-13.0,1651087839797524.0
4.0,-1.0,-27.0,-14.0,1.0,0.0,3.0,-1.0,1651087839810395.0
5.0,3.0,14.0,12.0,-1.0,0.0,-2.0,-6.0,1651087839810395.0
-16.0,-13.0,-4.0,11.0,-5.0,-5.0,-2.0,-15.0,1651087839819235.0
0.0,7.0,14.0,12.0,5.0,4.0,0.0,-14.0,1651087839819235.0
-1.0,-1.0,-21.0,-13.0,6.0,7.0,7.0,34.0,1651087839834598.0
6.0,3.0,20.0,14.0,-2.0,-2.0,2.0,3.0,1651087839834598.0
-28.0,-10.0,-70.0,-31.0,-3.0,-5.0,-7.0,-14.0,1651087839835584.0
-1.0,-2.0,4.0,-11.0,-2.0,2.0,5.0,-21.0,1651087839835584.0
-12.0,-4.0,38.0,24.0,0.0,0.0,0.0,1.0,1651087839856224.0
14.0,2.0,-50.0,-12.0,0.0,0.0,1.0,15.0,1651087839856224.0
6.0,8.0,17.0,2.0,-1.0,2.0,4.0,7.0,1651087839858075.0
5.0,7.0,6.0,8.0,2.0,-1.0,-1.0,-6.0,1651087839858075.0
-8.0,-13.0,-39.0,-19.0,-2.0,-4.0,-2.0,-7.0,1651087839871026.0
-3.0,1.0,21.0,0.0,-5.0,-3.0,-1.0,-8.0,1651087839871026.0
1.0,4.0,31.0,11.0,-1.0,0.0,1.0,-1.0,1651087839879072.0
6.0,0.0,-28.0,22.0,-3.0,-2.0,0.0,15.0,1651087839879072.0
13.0,-1.0,-17.0,-22.0,-1.0,-1.0,-3.0,-10.0,1651087839894369.0
-3.0,-4.0,17.0,22.0,7.0,4.0,0.0,-8.0,1651087839894369.0
6.0,4.0,13.0,13.0,-2.0,-3.0,-3.0,-6.0,1651087839895199.0
-2.0,-9.0,-35.0,-29.0,0.0,1.0,2.0,11.0,1651087839895199.0
-15.0,5.0,-11.0,2.0,7.0,1.0,-3.0,-30.0,1651087839916952.0
3.0,4.0,8.0,5.0,-8.0,-9.0,-11.0,-3.0,1651087839916952.0
4.0,3.0,10.0,4.0,3.0,3.0,6.0,-12.0,1651087839917952.0
0.0,-11.0,-17.0,-12.0,-2.0,-2.0,-4.0,22.0,1651087839917952.0
2.0,1.0,32.0,-2.0,-5.0,-3.0,-3.0,5.0,1651087839930250.0
-5.0,-1.0,-25.0,-21.0,-4.0,1.0,4.0,4.0,1651087839930250.0
