EMG_s0,EMG_s1,EMG_s2,EMG_s3,EMG_s4,EMG_s5,EMG_s6,EMG_s7,timestamp
-3.0,-2.0,-1.0,-1.0,30.0,-1.0,-1.0,-2.0,1651091332638497.0
-1.0,-3.0,-1.0,-3.0,-8.0,-2.0,-1.0,0.0,1651091332638497.0
-1.0,-1.0,-3.0,-1.0,3.0,1.0,-1.0,-1.0,1651091332639497.0
0.0,0.0,0.0,-2.0,-13.0,-2.0,-2.0,-2.0,1651091332639497.0
0.0,0.0,0.0,-1.0,-9.0,0.0,0.0,1.0,1651091332648473.0
-2.0,-2.0,-3.0,0.0,-1.0,0.0,-1.0,-1.0,1651091332648473.0
-1.0,-2.0,-2.0,-2.0,-5.0,-3.0,0.0,0.0,1651091332649470.0
-1.0,-3.0,-3.0,-4.0,-11.0,0.0,-1.0,-1.0,1651091332649470.0
-1.0,0.0,-1.0,1.0,5.0,0.0,0.0,-1.0,1651091332651465.0
-1.0,1.0,0.0,-2.0,1.0,0.0,-1.0,1.0,1651091332651465.0
-1.0,0.0,0.0,3.0,-38.0,-1.0,0.0,-2.0,1651091332656451.0
-2.0,0.0,0.0,8.0,39.0,1.0,1.0,-2.0,1651091332656451.0
-1.0,-2.0,-2.0,-1.0,0.0,-1.0,0.0,-1.0,1651091332662435.0
-1.0,1.0,0.0,-3.0,-4.0,-3.0,-2.0,0.0,1651091332662435.0
0.0,1.0,3.0,-2.0,1.0,-3.0,-3.0,0.0,1651091332678162.0
1.0,-2.0,-1.0,-4.0,-22.0,-3.0,0.0,1.0,1651091332678162.0
0.0,-3.0,-2.0,1.0,6.0,0.0,0.0,2.0,1651091332686309.0
0.0,-4.0,-3.0,1.0,13.0,3.0,2.0,-1.0,1651091332686309.0
0.0,-1.0,-2.0,-2.0,5.0,2.0,2.0,1.0,1651091332709291.0
-1.0,-1.0,0.0,-3.0,1.0,-1.0,-1.0,2.0,1651091332709291.0
-1.0,-1.0,0.0,4.0,-9.0,-2.0,-2.0,-2.0,1651091332712282.0
-1.0,0.0,-2.0,-5.0,-9.0,-3.0,0.0,-1.0,1651091332712282.0
-1.0,0.0,-2.0,3.0,16.0,-1.0,1.0,0.0,1651091332724535.0
-1.0,0.0,-1.0,5.0,3.0,1.0,-1.0,0.0,1651091332724535.0
1.0,0.0,-2.0,-4.0,-12.0,-1.0,0.0,0.0,1651091332729454.0
0.0,0.0,-4.0,0.0,-1.0,-1.0,-1.0,-1.0,1651091332729454.0
1.0,2.0,5.0,-6.0,-3.0,-1.0,-2.0,-2.0,1651091332745412.0
1.0,-1.0,-1.0,2.0,-10.0,-5.0,-3.0,-1.0,1651091332745412.0
-1.0,-1.0,0.0,-2.0,20.0,0.0,-1.0,-2.0,1651091332786035.0
1.0,1.0,1.0,0.0,-3.0,-2.0,0.0,-2.0,1651091332786035.0
0.0,-1.0,-3.0,-2.0,-4.0,-1.0,0.0,0.0,1651091332787008.0
0.0,0.0,-1.0,-3.0,-6.0,-2.0,-1.0,-2.0,1651091332787008.0
-1.0,-1.0,0.0,1.0,-2.0,0.0,-1.0,-1.0,1651091332790033.0
-1.0,-2.0,-2.0,-5.0,-5.0,-1.0,-2.0,0.0,1651091332790033.0
1.0,0.0,0.0,4.0,9.0,-3.0,-1.0,-3.0,1651091332791029.0
-2.0,-2.0,0.0,0.0,1.0,0.0,-1.0,0.0,1651091332791029.0
0.0,-1.0,-3.0,-3.0,-16.0,-1.0,1.0,-1.0,1651091332797015.0
-2.0,-2.0,0.0,0.0,7.0,-2.0,1.0,1.0,1651091332797015.0
0.0,1.0,-3.0,-3.0,-1.0,1.0,-1.0,-1.0,1651091332804994.0
-1.0,3.0,4.0,0.0,1.0,-2.0,-1.0,-2.0,1651091332804994.0
0.0,0.0,1.0,1.0,-4.0,-1.0,0.0,-1.0,1651091332812287.0
0.0,0.0,0.0,4.0,-5.0,-1.0,1.0,-2.0,1651091332812287.0
-1.0,-1.0,-2.0,-5.0,0.0,-1.0,-1.0,1.0,1651091332827476.0
-1.0,-2.0,-2.0,4.0,2.0,-1.0,-1.0,0.0,1651091332827476.0
-1.0,0.0,1.0,1.0,-10.0,3.0,0.0,0.0,1651091332834925.0
-1.0,0.0,0.0,-1.0,0.0,1.0,-1.0,0.0,1651091332834925.0
-2.0,0.0,2.0,2.0,-8.0,-3.0,0.0,-3.0,1651091332849876.0
1.0,-1.0,-4.0,0.0,16.0,2.0,0.0,0.0,1651091332849876.0
-1.0,-3.0,-3.0,-3.0,-24.0,-1.0,0.0,0.0,1651091332857963.0
-1.0,1.0,1.0,-5.0,-9.0,0.0,-1.0,0.0,1651091332857963.0
0.0,1.0,0.0,4.0,-13.0,2.0,-1.0,1.0,1651091332873131.0
0.0,0.0,1.0,-4.0,-13.0,-2.0,-1.0,-1.0,1651091332873131.0
0.0,0.0,-2.0,1.0,34.0,1.0,-1.0,0.0,1651091332873131.0
0.0,0.0,0.0,-1.0,-7.0,-2.0,-1.0,-1.0,1651091332873131.0
2.0,-4.0,-3.0,-4.0,0.0,0.0,1.0,-1.0,1651091332896159.0
0.0,2.0,2.0,1.0,-8.0,1.0,2.0,0.0,1651091332896159.0
-1.0,0.0,-2.0,-1.0,3.0,0.0,1.0,1.0,1651091332896159.0
-2.0,0.0,1.0,-2.0,1.0,-1.0,-3.0,0.0,1651091332896159.0
-2.0,1.0,-2.0,-4.0,1.0,-2.0,0.0,-1.0,1651091332919151.0
-1.0,-1.0,-3.0,3.0,4.0,-1.0,0.0,1.0,1651091332919151.0
0.0,-2.0,1.0,-1.0,-3.0,-1.0,-2.0,-1.0,1651091332919151.0
0.0,-1.0,-1.0,2.0,14.0,0.0,-1.0,-1.0,1651091332919151.0
1.0,0.0,3.0,2.0,-3.0,1.0,-3.0,1.0,1651091332933003.0
1.0,-2.0,-1.0,-3.0,-25.0,0.0,0.0,0.0,1651091332933003.0
0.0,0.0,1.0,-5.0,-6.0,-2.0,0.0,-1.0,1651091332933003.0
-2.0,-1.0,-2.0,-2.0,35.0,1.0,1.0,-2.0,1651091332933003.0
-3.0,-1.0,-1.0,10.0,-2.0,1.0,-1.0,-1.0,1651091332956320.0
-2.0,0.0,-1.0,4.0,14.0,0.0,-1.0,0.0,1651091332956320.0
0.0,2.0,0.0,-2.0,-2.0,0.0,-1.0,2.0,1651091332956320.0
1.0,0.0,-1.0,-2.0,-8.0,1.0,1.0,-1.0,1651091332956320.0
0.0,-4.0,-3.0,-7.0,-3.0,-3.0,1.0,0.0,1651091332985898.0
0.0,1.0,3.0,0.0,-2.0,1.0,1.0,-1.0,1651091332985898.0
-2.0,0.0,0.0,-1.0,-20.0,-3.0,-1.0,-2.0,1651091332985898.0
-1.0,-3.0,-3.0,-1.0,4.0,0.0,-1.0,0.0,1651091332985898.0
-1.0,0.0,0.0,-1.0,12.0,0.0,-1.0,2.0,1651091332992938.0
0.0,-1.0,0.0,-1.0,-13.0,-1.0,-2.0,-2.0,1651091332992938.0
0.0,0.0,-1.0,0.0,7.0,-1.0,-1.0,0.0,1651091332992938.0
0.0,2.0,1.0,0.0,-10.0,0.0,-2.0,-1.0,1651091332992938.0
0.0,-3.0,-3.0,-2.0,-8.0,-1.0,0.0,-1.0,1651091333016317.0
0.0,-2.0,-2.0,-8.0,22.0,0.0,1.0,-2.0,1651091333016317.0
1.0,2.0,1.0,5.0,-13.0,0.0,-1.0,-3.0,1651091333016317.0
1.0,-1.0,1.0,4.0,10.0,-1.0,-1.0,0.0,1651091333016317.0
-1.0,0.0,0.0,-3.0,-6.0,0.0,0.0,-1.0,1651091333054305.0
-2.0,1.0,-1.0,-5.0,-14.0,-2.0,-1.0,-2.0,1651091333054305.0
-2.0,-2.0,-3.0,-2.0,5.0,-3.0,0.0,-3.0,1651091333055301.0
1.0,0.0,-1.0,7.0,26.0,4.0,1.0,1.0,1651091333055301.0
1.0,3.0,7.0,-3.0,-6.0,-1.0,-3.0,-3.0,1651091333057296.0
-2.0,0.0,-2.0,-2.0,9.0,-2.0,0.0,-1.0,1651091333057296.0
0.0,0.0,1.0,8.0,-17.0,-2.0,0.0,0.0,1651091333060289.0
-1.0,-2.0,-5.0,-8.0,-18.0,-5.0,-2.0,-1.0,1651091333060289.0
-2.0,-2.0,-3.0,3.0,14.0,-1.0,0.0,0.0,1651091333075248.0
0.0,-2.0,-2.0,2.0,7.0,2.0,-2.0,0.0,1651091333075248.0
0.0,0.0,0.0,-4.0,1.0,-1.0,-2.0,0.0,1651091333076247.0
-1.0,-1.0,-1.0,-2.0,-7.0,-2.0,-1.0,0.0,1651091333076247.0
0.0,0.0,3.0,0.0,6.0,0.0,1.0,-1.0,1651091333098634.0
-1.0,-2.0,-3.0,-2.0,-5.0,-1.0,-2.0,1.0,1651091333098634.0
1.0,-1.0,0.0,-2.0,7.0,1.0,0.0,-1.0,1651091333098634.0
0.0,-1.0,-1.0,-2.0,-4.0,1.0,-1.0,0.0,1651091333098634.0
1.0,-1.0,0.0,-2.0,-19.0,0.0,0.0,0.0,1651091333112581.0
-1.0,-3.0,-2.0,-4.0,-24.0,-4.0,-2.0,-1.0,1651091333112581.0
-2.0,-1.0,-3.0,1.0,51.0,2.0,0.0,0.0,1651091333113612.0
0.0,2.0,5.0,1.0,-12.0,2.0,1.0,-1.0,1651091333113612.0
-2.0,-1.0,-3.0,0.0,27.0,-2.0,0.0,0.0,1651091333135928.0
-1.0,-1.0,1.0,4.0,14.0,0.0,0.0,0.0,1651091333135928.0
-1.0,-2.0,0.0,-1.0,-31.0,1.0,-1.0,0.0,1651091333136865.0
-2.0,-1.0,-4.0,-4.0,-17.0,-4.0,-3.0,-1.0,1651091333136865.0
-1.0,-1.0,-1.0,-1.0,5.0,3.0,0.0,0.0,1651091333158329.0
1.0,-2.0,1.0,-4.0,-3.0,-3.0,1.0,-1.0,1651091333158329.0
0.0,0.0,0.0,3.0,4.0,-1.0,-3.0,-1.0,1651091333158860.0
-1.0,0.0,0.0,5.0,4.0,0.0,0.0,0.0,1651091333158860.0
0.0,1.0,0.0,0.0,-6.0,-1.0,-2.0,0.0,1651091333173102.0
-1.0,1.0,-2.0,-1.0,3.0,0.0,0.0,0.0,1651091333173102.0
-2.0,-1.0,-2.0,-2.0,4.0,-2.0,1.0,0.0,1651091333173102.0
0.0,0.0,0.0,-1.0,-6.0,-3.0,-1.0,-1.0,1651091333173102.0
0.0,-1.0,-1.0,-1.0,-49.0,0.0,-1.0,-1.0,1651091333195865.0
2.0,4.0,5.0,2.0,39.0,3.0,0.0,0.0,1651091333195865.0
0.0,1.0,0.0,-5.0,-8.0,-1.0,-1.0,0.0,1651091333196830.0
-1.0,-3.0,-5.0,0.0,-16.0,-2.0,-1.0,-1.0,1651091333196830.0
-1.0,-2.0,-2.0,2.0,34.0,1.0,0.0,0.0,1651091333218819.0
-2.0,-1.0,-1.0,4.0,-22.0,0.0,-1.0,0.0,1651091333218819.0
0.0,-1.0,1.0,-2.0,-7.0,-2.0,0.0,-2.0,1651091333218819.0
-1.0,0.0,0.0,-8.0,4.0,-3.0,0.0,0.0,1651091333218819.0
-1.0,0.0,1.0,3.0,-13.0,-2.0,-1.0,-1.0,1651091333232784.0
0.0,-1.0,-1.0,0.0,0.0,0.0,0.0,0.0,1651091333232784.0
-1.0,1.0,0.0,-3.0,11.0,0.0,0.0,-1.0,1651091333232784.0
-1.0,-2.0,0.0,-4.0,-40.0,-2.0,-1.0,0.0,1651091333232784.0
-1.0,-2.0,1.0,3.0,9.0,1.0,-1.0,-1.0,1651091333256278.0
-2.0,-1.0,-2.0,-2.0,6.0,0.0,0.0,-2.0,1651091333256278.0
0.0,0.0,-2.0,-1.0,-4.0,0.0,-1.0,-1.0,1651091333257113.0
1.0,1.0,1.0,1.0,11.0,-2.0,1.0,-1.0,1651091333257113.0
-1.0,0.0,1.0,-2.0,-15.0,-3.0,-2.0,0.0,1651091333278805.0
-1.0,-1.0,-3.0,-4.0,-1.0,-1.0,-1.0,1.0,1651091333278805.0
0.0,1.0,4.0,5.0,-18.0,-2.0,-2.0,-1.0,1651091333279280.0
1.0,0.0,-2.0,0.0,25.0,3.0,-1.0,0.0,1651091333279280.0
-2.0,0.0,-2.0,0.0,8.0,-1.0,0.0,0.0,1651091333292434.0
0.0,-1.0,-4.0,-4.0,-1.0,-1.0,-1.0,-1.0,1651091333292434.0
0.0,-2.0,-1.0,3.0,-1.0,0.0,-1.0,-2.0,1651091333293432.0
-1.0,0.0,0.0,0.0,-4.0,-1.0,-2.0,0.0,1651091333293432.0
1.0,0.0,-1.0,0.0,13.0,1.0,-1.0,-1.0,1651091333314907.0
1.0,0.0,-1.0,-8.0,1.0,-3.0,0.0,-1.0,1651091333314907.0
1.0,0.0,-1.0,-2.0,-13.0,-1.0,-2.0,-1.0,1651091333323025.0
-2.0,-3.0,1.0,5.0,36.0,1.0,-1.0,-2.0,1651091333323025.0
-1.0,1.0,0.0,-3.0,1.0,0.0,-1.0,-2.0,1651091333338086.0
0.0,-1.0,-1.0,0.0,-15.0,-1.0,1.0,-1.0,1651091333338086.0
0.0,1.0,0.0,-3.0,14.0,-1.0,1.0,0.0,1651091333338921.0
0.0,-1.0,-2.0,1.0,-17.0,-3.0,-1.0,-1.0,1651091333338921.0
-1.0,-1.0,-1.0,-2.0,1.0,-1.0,0.0,1.0,1651091333361303.0
-1.0,-1.0,0.0,3.0,3.0,-1.0,0.0,-1.0,1651091333361303.0
-2.0,2.0,2.0,1.0,-7.0,0.0,-2.0,0.0,1651091333361303.0
-2.0,-1.0,0.0,0.0,-5.0,-1.0,1.0,-1.0,1651091333361303.0
-1.0,0.0,-1.0,-3.0,-7.0,-1.0,-2.0,-2.0,1651091333375473.0
-1.0,0.0,0.0,5.0,18.0,5.0,0.0,2.0,1651091333375473.0
-1.0,-2.0,-3.0,-5.0,4.0,-1.0,-1.0,1.0,1651091333376470.0
0.0,2.0,2.0,1.0,-4.0,1.0,-1.0,-2.0,1651091333376470.0
1.0,-3.0,-1.0,0.0,-11.0,-2.0,1.0,0.0,1651091333398820.0
0.0,-1.0,2.0,4.0,3.0,-1.0,-1.0,-1.0,1651091333398820.0
0.0,-3.0,-2.0,-4.0,-12.0,-1.0,0.0,-1.0,1651091333398820.0
1.0,3.0,-2.0,2.0,34.0,2.0,-1.0,0.0,1651091333398820.0
-2.0,0.0,-2.0,0.0,-41.0,-2.0,1.0,-2.0,1651091333411792.0
-1.0,-1.0,-2.0,-2.0,21.0,-2.0,-2.0,-1.0,1651091333411792.0
0.0,3.0,0.0,1.0,4.0,2.0,0.0,1.0,1651091333419812.0
1.0,-2.0,-2.0,-6.0,-18.0,-1.0,-1.0,-1.0,1651091333419812.0
1.0,2.0,4.0,0.0,13.0,-1.0,0.0,2.0,1651091333436100.0
0.0,1.0,-1.0,-1.0,-36.0,-2.0,0.0,-1.0,1651091333436100.0
-2.0,-5.0,-3.0,-1.0,20.0,-1.0,1.0,2.0,1651091333436100.0
-3.0,2.0,0.0,0.0,0.0,1.0,1.0,1.0,1651091333436100.0
1.0,0.0,-4.0,-6.0,10.0,1.0,-1.0,-2.0,1651091333458322.0
-2.0,0.0,0.0,11.0,-11.0,1.0,0.0,0.0,1651091333458322.0
-1.0,-6.0,-2.0,-1.0,-5.0,-3.0,0.0,-1.0,1651091333459220.0
0.0,-1.0,1.0,2.0,-6.0,-1.0,0.0,1.0,1651091333459220.0
-1.0,-1.0,-2.0,-3.0,12.0,-2.0,1.0,-1.0,1651091333480785.0
-1.0,-1.0,0.0,-7.0,-17.0,-3.0,-3.0,-2.0,1651091333480785.0
0.0,-2.0,-2.0,-1.0,11.0,1.0,-1.0,-1.0,1651091333481819.0
-3.0,-2.0,1.0,2.0,-10.0,1.0,-1.0,0.0,1651091333481819.0
0.0,3.0,3.0,-2.0,5.0,-1.0,-1.0,-2.0,1651091333495861.0
-1.0,0.0,-1.0,0.0,-2.0,2.0,1.0,0.0,1651091333495861.0
-1.0,-3.0,-3.0,6.0,5.0,-1.0,0.0,-1.0,1651091333496734.0
1.0,1.0,4.0,-1.0,-5.0,-3.0,-1.0,-2.0,1651091333496734.0
0.0,-2.0,-2.0,0.0,-2.0,-2.0,-1.0,2.0,1651091333518769.0
-1.0,0.0,1.0,-5.0,-18.0,-2.0,-2.0,-2.0,1651091333518769.0
0.0,0.0,1.0,-2.0,12.0,-1.0,0.0,0.0,1651091333518769.0
-2.0,-1.0,-3.0,0.0,4.0,0.0,1.0,1.0,1651091333518769.0
0.0,-1.0,-5.0,5.0,7.0,-2.0,-3.0,0.0,1651091333532245.0
0.0,-1.0,1.0,-2.0,6.0,0.0,0.0,0.0,1651091333532245.0
0.0,2.0,2.0,-4.0,-11.0,-3.0,-1.0,-1.0,1651091333540448.0
-1.0,-1.0,-4.0,-1.0,-8.0,-1.0,-1.0,0.0,1651091333540448.0
0.0,0.0,1.0,4.0,27.0,5.0,-1.0,-2.0,1651091333555675.0
-2.0,-3.0,-1.0,-1.0,-3.0,-1.0,-1.0,0.0,1651091333555675.0
1.0,0.0,-2.0,-1.0,-12.0,-1.0,0.0,-1.0,1651091333556513.0
2.0,1.0,-2.0,-3.0,-8.0,-1.0,-1.0,0.0,1651091333556513.0
-1.0,0.0,-2.0,0.0,-1.0,1.0,-1.0,0.0,1651091333578720.0
1.0,-2.0,-2.0,1.0,8.0,-1.0,-1.0,-2.0,1651091333578720.0
-1.0,5.0,4.0,0.0,3.0,2.0,-1.0,-1.0,1651091333578720.0
-1.0,-3.0,2.0,0.0,3.0,-3.0,-1.0,-2.0,1651091333578720.0
-3.0,-4.0,-4.0,-5.0,-39.0,-2.0,0.0,0.0,1651091333591650.0
1.0,-1.0,0.0,-3.0,55.0,0.0,-1.0,-2.0,1651091333591650.0
0.0,-2.0,-2.0,2.0,-5.0,1.0,0.0,2.0,1651091333600648.0
-2.0,-1.0,-2.0,4.0,-7.0,-1.0,-1.0,-1.0,1651091333600648.0
0.0,-1.0,1.0,-1.0,8.0,1.0,0.0,0.0,1651091333615741.0
0.0,1.0,-2.0,-1.0,-18.0,-3.0,-1.0,-1.0,1651091333615741.0
-1.0,-2.0,-1.0,-5.0,-9.0,-1.0,-3.0,-1.0,1651091333616608.0
-1.0,1.0,1.0,-3.0,13.0,1.0,0.0,-1.0,1651091333616608.0
1.0,1.0,-1.0,-5.0,-12.0,-1.0,1.0,0.0,1651091333638799.0
-1.0,-2.0,-1.0,5.0,11.0,0.0,-1.0,0.0,1651091333638799.0
1.0,0.0,-1.0,0.0,4.0,0.0,1.0,-1.0,1651091333638799.0
-1.0,-1.0,-2.0,-4.0,-4.0,-3.0,-1.0,0.0,1651091333638799.0
-2.0,1.0,0.0,4.0,6.0,1.0,-1.0,0.0,1651091333652342.0
-1.0,2.0,1.0,-2.0,-16.0,1.0,0.0,-1.0,1651091333652342.0
0.0,0.0,0.0,-1.0,-1.0,-1.0,0.0,-1.0,1651091333668012.0
-1.0,-3.0,-4.0,-2.0,-8.0,-2.0,2.0,-1.0,1651091333668012.0
0.0,2.0,4.0,2.0,12.0,-1.0,-1.0,0.0,1651091333675876.0
-1.0,1.0,-1.0,-1.0,4.0,2.0,0.0,0.0,1651091333675876.0
-3.0,-1.0,-2.0,1.0,-11.0,-1.0,-1.0,0.0,1651091333676878.0
0.0,-3.0,-1.0,-1.0,14.0,3.0,0.0,0.0,1651091333676878.0
-1.0,-2.0,-3.0,-5.0,8.0,-3.0,-1.0,-1.0,1651091333698444.0
0.0,1.0,1.0,7.0,-20.0,-3.0,0.0,-1.0,1651091333698444.0
0.0,1.0,1.0,0.0,32.0,2.0,-1.0,0.0,1651091333699280.0
-1.0,-1.0,-2.0,-1.0,-5.0,-1.0,0.0,-1.0,1651091333699280.0
-2.0,-1.0,-1.0,0.0,-9.0,0.0,-1.0,0.0,1651091333712354.0
-1.0,-1.0,-2.0,-2.0,-1.0,0.0,-1.0,0.0,1651091333712354.0
0.0,0.0,-1.0,-2.0,-7.0,0.0,-2.0,0.0,1651091333720578.0
0.0,-1.0,3.0,2.0,-3.0,-2.0,0.0,0.0,1651091333720578.0
1.0,-2.0,-3.0,-4.0,12.0,-2.0,-1.0,0.0,1651091333735969.0
-1.0,2.0,0.0,1.0,4.0,-2.0,-1.0,-1.0,1651091333735969.0
-1.0,-2.0,-3.0,3.0,-10.0,-1.0,2.0,0.0,1651091333736810.0
-1.0,3.0,0.0,-1.0,3.0,0.0,-2.0,-1.0,1651091333736810.0
-1.0,-1.0,3.0,0.0,-13.0,0.0,1.0,1.0,1651091333758150.0
0.0,-2.0,-3.0,-5.0,0.0,-4.0,0.0,0.0,1651091333758150.0
0.0,-2.0,-2.0,-8.0,-7.0,-1.0,1.0,-2.0,1651091333764998.0
0.0,-1.0,-3.0,6.0,-3.0,0.0,-2.0,0.0,1651091333764998.0
-1.0,0.0,2.0,5.0,3.0,-1.0,1.0,-4.0,1651091333781301.0
0.0,1.0,2.0,2.0,1.0,1.0,-2.0,0.0,1651091333781301.0
-2.0,0.0,0.0,-1.0,-10.0,-2.0,-1.0,0.0,1651091333782263.0
0.0,-1.0,-2.0,-5.0,14.0,-1.0,-1.0,-1.0,1651091333782263.0
0.0,3.0,-1.0,2.0,-22.0,-1.0,0.0,1.0,1651091333803665.0
1.0,-3.0,-1.0,-5.0,-3.0,0.0,-2.0,2.0,1651091333803665.0
-2.0,-2.0,-1.0,1.0,-10.0,-3.0,0.0,0.0,1651091333804665.0
-2.0,0.0,0.0,-1.0,12.0,-1.0,-3.0,-1.0,1651091333804665.0
1.0,1.0,1.0,0.0,5.0,1.0,0.0,-1.0,1651091333817948.0
0.0,0.0,1.0,2.0,-6.0,1.0,1.0,-1.0,1651091333817948.0
-1.0,-3.0,-1.0,0.0,0.0,2.0,0.0,-1.0,1651091333824962.0
-1.0,2.0,0.0,-2.0,-6.0,-2.0,1.0,-2.0,1651091333824962.0
-2.0,-1.0,-2.0,-2.0,-14.0,-3.0,-1.0,-1.0,1651091333841251.0
0.0,0.0,-4.0,-3.0,13.0,1.0,-2.0,0.0,1651091333841251.0
1.0,0.0,1.0,0.0,-1.0,1.0,-1.0,-2.0,1651091333841989.0
-1.0,-1.0,-1.0,-1.0,-7.0,0.0,-2.0,0.0,1651091333841989.0
1.0,0.0,1.0,1.0,6.0,2.0,1.0,0.0,1651091333863798.0
0.0,-1.0,1.0,-2.0,-13.0,-2.0,-1.0,-1.0,1651091333863798.0
1.0,1.0,0.0,1.0,1.0,-1.0,-2.0,-1.0,1651091333865165.0
1.0,0.0,0.0,-2.0,2.0,-2.0,1.0,0.0,1651091333865165.0
0.0,-1.0,-3.0,-1.0,2.0,-1.0,-3.0,-1.0,1651091333878102.0
-1.0,-2.0,0.0,0.0,-12.0,-1.0,-1.0,-1.0,1651091333878102.0
1.0,1.0,0.0,4.0,9.0,-1.0,0.0,0.0,1651091333884145.0
1.0,0.0,0.0,0.0,19.0,3.0,0.0,0.0,1651091333884145.0
-1.0,-5.0,-3.0,-3.0,10.0,-1.0,-1.0,-1.0,1651091333901186.0
-1.0,2.0,1.0,1.0,2.0,-1.0,0.0,-2.0,1651091333901186.0
-1.0,-1.0,1.0,0.0,-25.0,-1.0,-2.0,0.0,1651091333902132.0
0.0,0.0,-1.0,0.0,7.0,0.0,-1.0,0.0,1651091333902132.0
0.0,0.0,-1.0,2.0,-3.0,-1.0,-2.0,-1.0,1651091333923633.0
-1.0,-4.0,-3.0,-3.0,-8.0,-2.0,-2.0,0.0,1651091333923633.0
-1.0,0.0,-2.0,-2.0,2.0,1.0,2.0,-1.0,1651091333924481.0
2.0,0.0,-2.0,0.0,-10.0,1.0,0.0,-1.0,1651091333924481.0
-1.0,-2.0,0.0,-1.0,0.0,-1.0,1.0,0.0,1651091333936950.0
0.0,-2.0,0.0,0.0,-2.0,-1.0,-2.0,0.0,1651091333936950.0
-2.0,-1.0,0.0,-1.0,6.0,-1.0,-2.0,-1.0,1651091333945610.0
0.0,-2.0,-1.0,-1.0,-5.0,-1.0,0.0,-1.0,1651091333945610.0
-1.0,-1.0,-1.0,2.0,-3.0,-1.0,-1.0,-2.0,1651091333960934.0
0.0,2.0,1.0,1.0,10.0,0.0,0.0,0.0,1651091333960934.0
1.0,0.0,1.0,1.0,11.0,0.0,0.0,1.0,1651091333961801.0
-2.0,-3.0,-1.0,-3.0,-11.0,-1.0,0.0,-1.0,1651091333961801.0
-2.0,-3.0,-2.0,-6.0,0.0,-2.0,-1.0,0.0,1651091333982717.0
0.0,1.0,0.0,0.0,6.0,1.0,1.0,0.0,1651091333982717.0
-1.0,2.0,2.0,1.0,-1.0,-2.0,0.0,0.0,1651091333984712.0
-2.0,-2.0,2.0,1.0,-5.0,1.0,-1.0,0.0,1651091333984712.0
1.0,2.0,1.0,-3.0,5.0,-2.0,-1.0,-2.0,1651091333996987.0
-2.0,-3.0,-5.0,1.0,-3.0,-1.0,0.0,-1.0,1651091333996987.0
-1.0,-2.0,-2.0,-7.0,-14.0,0.0,1.0,0.0,1651091334005846.0
-1.0,0.0,1.0,6.0,28.0,3.0,-1.0,-1.0,1651091334005846.0
-1.0,1.0,0.0,0.0,-2.0,-1.0,0.0,2.0,1651091334021297.0
-1.0,-2.0,1.0,-5.0,-1.0,-1.0,-1.0,-1.0,1651091334021297.0
-1.0,-1.0,-2.0,-3.0,-2.0,-3.0,-1.0,-1.0,1651091334022250.0
0.0,-1.0,-1.0,4.0,-16.0,-1.0,0.0,0.0,1651091334022250.0
-1.0,1.0,-2.0,0.0,6.0,0.0,0.0,-1.0,1651091334043475.0
0.0,3.0,0.0,0.0,0.0,-2.0,0.0,-1.0,1651091334043475.0
1.0,0.0,0.0,0.0,1.0,0.0,0.0,-1.0,1651091334044472.0
0.0,-2.0,-2.0,-4.0,-3.0,-1.0,2.0,-1.0,1651091334044472.0
0.0,-1.0,-2.0,-2.0,0.0,1.0,0.0,-2.0,1651091334056799.0
-1.0,0.0,1.0,1.0,2.0,-2.0,0.0,-2.0,1651091334056799.0
-1.0,0.0,-1.0,-1.0,4.0,0.0,0.0,0.0,1651091334065613.0
0.0,-1.0,0.0,1.0,-2.0,-1.0,0.0,0.0,1651091334065613.0
1.0,0.0,-1.0,1.0,-2.0,0.0,-1.0,-1.0,1651091334080947.0
-1.0,-3.0,-1.0,-4.0,-9.0,-2.0,-1.0,0.0,1651091334080947.0
-1.0,2.0,-1.0,1.0,8.0,1.0,-1.0,-2.0,1651091334081941.0
-1.0,0.0,0.0,-5.0,-2.0,2.0,0.0,0.0,1651091334081941.0
-1.0,-1.0,0.0,0.0,-17.0,-3.0,-3.0,-1.0,1651091334104141.0
0.0,-1.0,0.0,3.0,15.0,-1.0,-1.0,-1.0,1651091334104141.0
-1.0,-1.0,0.0,0.0,-5.0,1.0,-1.0,0.0,1651091334105141.0
0.0,0.0,0.0,0.0,-12.0,-1.0,0.0,-1.0,1651091334105141.0
-1.0,1.0,-1.0,-6.0,7.0,0.0,0.0,1.0,1651091334117438.0
1.0,0.0,-3.0,3.0,-7.0,1.0,0.0,0.0,1651091334117438.0
-2.0,-2.0,0.0,1.0,0.0,-1.0,-1.0,0.0,1651091334125697.0
-1.0,0.0,0.0,-2.0,-1.0,-5.0,-1.0,-1.0,1651091334125697.0
1.0,-3.0,-2.0,1.0,-1.0,-1.0,-1.0,-2.0,1651091334141004.0
1.0,1.0,3.0,-1.0,7.0,0.0,0.0,1.0,1651091334141004.0
0.0,-2.0,-2.0,-5.0,-7.0,-3.0,-1.0,-2.0,1651091334142844.0
-1.0,-1.0,-1.0,7.0,-5.0,-2.0,1.0,0.0,1651091334142844.0
0.0,-3.0,-1.0,-2.0,-3.0,-1.0,-1.0,0.0,1651091334163040.0
-1.0,-2.0,-2.0,2.0,10.0,3.0,-1.0,-2.0,1651091334163040.0
1.0,1.0,0.0,0.0,8.0,0.0,-2.0,-2.0,1651091334164906.0
-2.0,0.0,-2.0,-9.0,-8.0,-2.0,-2.0,-2.0,1651091334164906.0
0.0,0.0,0.0,6.0,-14.0,-2.0,-1.0,0.0,1651091334176841.0
0.0,0.0,2.0,2.0,29.0,0.0,-1.0,-1.0,1651091334176841.0
0.0,1.0,-1.0,-3.0,0.0,2.0,0.0,-1.0,1651091334185818.0
1.0,1.0,1.0,-3.0,3.0,0.0,-1.0,1.0,1651091334185818.0
-1.0,-2.0,0.0,-3.0,6.0,-1.0,-1.0,1.0,1651091334201080.0
-1.0,-3.0,-2.0,-4.0,-15.0,-2.0,-1.0,1.0,1651091334201080.0
0.0,0.0,-1.0,3.0,3.0,-1.0,-1.0,-1.0,1651091334201927.0
-1.0,-3.0,-3.0,-2.0,-1.0,0.0,-2.0,-1.0,1651091334201927.0
0.0,3.0,1.0,-3.0,5.0,1.0,0.0,-1.0,1651091334223714.0
0.0,1.0,0.0,0.0,-8.0,-1.0,-2.0,-1.0,1651091334223714.0
-1.0,-3.0,-4.0,-1.0,6.0,-1.0,-1.0,-1.0,1651091334225123.0
-2.0,-2.0,-2.0,-2.0,-6.0,0.0,-1.0,1.0,1651091334225123.0
0.0,1.0,0.0,4.0,7.0,0.0,1.0,0.0,1651091334237428.0
-1.0,-1.0,-1.0,1.0,-15.0,0.0,-1.0,-1.0,1651091334237428.0
1.0,-2.0,0.0,3.0,3.0,-2.0,1.0,1.0,1651091334246134.0
-1.0,0.0,-1.0,-2.0,-2.0,-1.0,-2.0,0.0,1651091334246134.0
0.0,0.0,0.0,2.0,6.0,-1.0,-2.0,-1.0,1651091334261211.0
-1.0,1.0,-3.0,-6.0,-9.0,-1.0,0.0,0.0,1651091334261211.0
-1.0,-1.0,-4.0,-2.0,-6.0,0.0,0.0,-1.0,1651091334262076.0
-1.0,0.0,-1.0,1.0,4.0,-2.0,-1.0,-2.0,1651091334262076.0
-1.0,-5.0,-5.0,-6.0,-8.0,0.0,0.0,0.0,1651091334283703.0
1.0,4.0,4.0,-2.0,-2.0,-1.0,0.0,-1.0,1651091334283703.0
0.0,0.0,0.0,0.0,6.0,3.0,-1.0,0.0,1651091334284542.0
0.0,2.0,1.0,0.0,3.0,-2.0,-1.0,-1.0,1651091334284542.0
-2.0,-1.0,-2.0,-3.0,-19.0,-2.0,0.0,-2.0,1651091334296670.0
-1.0,-2.0,-5.0,0.0,9.0,-2.0,-1.0,0.0,1651091334296670.0
-2.0,-3.0,2.0,4.0,-4.0,0.0,-1.0,-1.0,1651091334312853.0
-1.0,1.0,0.0,-2.0,1.0,-1.0,0.0,0.0,1651091334312853.0
0.0,1.0,2.0,5.0,1.0,-1.0,0.0,0.0,1651091334320953.0
-2.0,-4.0,-2.0,-1.0,-9.0,-1.0,0.0,-1.0,1651091334320953.0
-1.0,1.0,-2.0,3.0,0.0,-1.0,-2.0,-2.0,1651091334321797.0
1.0,0.0,1.0,-1.0,7.0,-1.0,-2.0,-2.0,1651091334321797.0
0.0,-2.0,0.0,3.0,1.0,-2.0,1.0,1.0,1651091334342929.0
0.0,0.0,-1.0,-7.0,-2.0,-2.0,0.0,0.0,1651091334342929.0
0.0,-2.0,-1.0,-2.0,-5.0,-1.0,-1.0,1.0,1651091334344786.0
-1.0,-1.0,0.0,4.0,10.0,0.0,-1.0,0.0,1651091334344786.0
-1.0,3.0,2.0,-5.0,-8.0,-2.0,-4.0,-2.0,1651091334365857.0
1.0,-1.0,-2.0,-4.0,0.0,0.0,2.0,1.0,1651091334365857.0
0.0,-1.0,0.0,-2.0,0.0,-2.0,-8.0,-3.0,1651091334366751.0
1.0,0.0,-2.0,-2.0,-10.0,-6.0,3.0,1.0,1651091334366751.0
-1.0,0.0,0.0,0.0,18.0,2.0,-5.0,0.0,1651091334381342.0
-2.0,-1.0,-2.0,6.0,-6.0,-1.0,30.0,-1.0,1651091334381342.0
-1.0,1.0,0.0,-3.0,-21.0,9.0,-3.0,1.0,1651091334382326.0
0.0,-2.0,-1.0,0.0,25.0,3.0,-4.0,-1.0,1651091334382326.0
0.0,-1.0,0.0,-4.0,-5.0,-2.0,-9.0,-3.0,1651091334403498.0
1.0,0.0,0.0,-4.0,12.0,-8.0,-14.0,-5.0,1651091334403498.0
-3.0,-1.0,0.0,-4.0,1.0,-9.0,-9.0,-2.0,1651091334404350.0
-1.0,0.0,0.0,6.0,-13.0,-1.0,-9.0,-1.0,1651091334404350.0
2.0,2.0,-1.0,-1.0,-6.0,23.0,50.0,9.0,1651091334433030.0
-1.0,-4.0,0.0,-6.0,-5.0,7.0,-3.0,0.0,1651091334433030.0
-1.0,-1.0,-4.0,0.0,10.0,-3.0,4.0,1.0,1651091334434870.0
0.0,1.0,6.0,2.0,-8.0,-5.0,-21.0,-2.0,1651091334434870.0
-2.0,-3.0,-5.0,-2.0,7.0,-16.0,-15.0,-6.0,1651091334440978.0
-1.0,-1.0,-1.0,0.0,-6.0,-3.0,-6.0,0.0,1651091334440978.0
1.0,-1.0,-2.0,-2.0,0.0,-6.0,-6.0,-2.0,1651091334441821.0
-3.0,-1.0,-2.0,0.0,-10.0,-3.0,8.0,-2.0,1651091334441821.0
1.0,-2.0,-1.0,1.0,14.0,1.0,1.0,-1.0,1651091334463775.0
0.0,1.0,-1.0,-6.0,-3.0,0.0,-3.0,-2.0,1651091334463775.0
-1.0,0.0,0.0,5.0,0.0,-2.0,0.0,0.0,1651091334464621.0
0.0,0.0,0.0,1.0,-5.0,6.0,12.0,2.0,1651091334464621.0
-2.0,-2.0,0.0,-1.0,-3.0,-4.0,-4.0,1.0,1651091334485959.0
-1.0,-1.0,-1.0,-1.0,7.0,-2.0,-1.0,-1.0,1651091334485959.0
3.0,0.0,1.0,-1.0,1.0,5.0,-8.0,1.0,1651091334486794.0
-1.0,-3.0,-2.0,-4.0,1.0,-1.0,19.0,0.0,1651091334486794.0
1.0,-2.0,0.0,1.0,-4.0,6.0,-12.0,0.0,1651091334499915.0
-1.0,1.0,0.0,2.0,-6.0,-6.0,-10.0,-1.0,1651091334499915.0
-1.0,0.0,1.0,0.0,4.0,0.0,8.0,-5.0,1651091334506903.0
-1.0,0.0,-2.0,-2.0,-1.0,-2.0,-14.0,-1.0,1651091334506903.0
0.0,1.0,4.0,-1.0,-6.0,-1.0,11.0,-1.0,1651091334523776.0
0.0,-3.0,-2.0,0.0,-2.0,-3.0,-20.0,-1.0,1651091334523776.0
0.0,1.0,2.0,1.0,3.0,-6.0,-9.0,0.0,1651091334525044.0
-8.0,-4.0,-2.0,1.0,-2.0,5.0,-15.0,-12.0,1651091334525044.0
-10.0,-3.0,-1.0,0.0,12.0,35.0,94.0,-4.0,1651091334546374.0
8.0,5.0,3.0,1.0,-5.0,10.0,-12.0,5.0,1651091334546374.0
22.0,4.0,3.0,4.0,-7.0,-12.0,21.0,27.0,1651091334547337.0
3.0,-1.0,-1.0,-7.0,-7.0,-19.0,-37.0,-3.0,1651091334547337.0
-13.0,-4.0,-4.0,3.0,-3.0,-28.0,-44.0,-32.0,1651091334560336.0
-26.0,-6.0,-2.0,-3.0,-6.0,7.0,8.0,-22.0,1651091334560336.0
-1.0,-3.0,-4.0,-6.0,12.0,5.0,-9.0,4.0,1651091334567454.0
35.0,11.0,3.0,2.0,5.0,-3.0,14.0,45.0,1651091334567454.0
0.0,1.0,2.0,-1.0,0.0,45.0,16.0,-2.0,1651091334583505.0
-9.0,-1.0,0.0,3.0,5.0,0.0,50.0,-10.0,1651091334583505.0
4.0,0.0,2.0,-2.0,-4.0,-12.0,-22.0,15.0,1651091334584519.0
-30.0,-8.0,-3.0,-3.0,-6.0,-5.0,3.0,-43.0,1651091334584519.0
12.0,0.0,-3.0,-1.0,0.0,-2.0,-25.0,-4.0,1651091334605814.0
22.0,5.0,2.0,3.0,-2.0,1.0,-26.0,50.0,1651091334605814.0
-20.0,-5.0,-1.0,0.0,-1.0,-13.0,26.0,-40.0,1651091334607689.0
-3.0,-3.0,-2.0,1.0,1.0,20.0,-9.0,4.0,1651091334607689.0
9.0,5.0,4.0,0.0,-2.0,-59.0,-3.0,19.0,1651091334619856.0
5.0,1.0,-2.0,1.0,-3.0,12.0,-5.0,-16.0,1651091334619856.0
-4.0,1.0,0.0,-2.0,-1.0,18.0,-10.0,-6.0,1651091334626840.0
-43.0,-12.0,-6.0,-1.0,-7.0,7.0,10.0,-59.0,1651091334626840.0
-16.0,-3.0,-1.0,-4.0,1.0,-30.0,-2.0,-25.0,1651091334651147.0
43.0,4.0,0.0,4.0,1.0,12.0,33.0,97.0,1651091334651147.0
18.0,5.0,1.0,1.0,-2.0,-12.0,-25.0,7.0,1651091334651909.0
6.0,-1.0,0.0,-6.0,-6.0,-6.0,36.0,-3.0,1651091334651909.0
-12.0,-2.0,-1.0,0.0,-1.0,-3.0,-28.0,-14.0,1651091334665196.0
-13.0,-3.0,1.0,2.0,2.0,-15.0,-21.0,-36.0,1651091334665196.0
-10.0,-3.0,-1.0,-3.0,-3.0,18.0,4.0,-11.0,1651091334667058.0
-6.0,-1.0,0.0,0.0,0.0,-9.0,-10.0,-8.0,1651091334667058.0
11.0,-1.0,-1.0,-9.0,-4.0,6.0,-4.0,24.0,1651091334680504.0
-3.0,-2.0,-2.0,5.0,1.0,-40.0,-5.0,-12.0,1651091334680504.0
-6.0,-1.0,-1.0,-1.0,-1.0,12.0,3.0,-2.0,1651091334686652.0
8.0,4.0,3.0,3.0,3.0,-2.0,-2.0,9.0,1651091334686652.0
-1.0,-5.0,-6.0,-2.0,-2.0,16.0,2.0,-10.0,1651091334711205.0
0.0,2.0,6.0,1.0,-1.0,10.0,-10.0,10.0,1651091334711205.0
-5.0,-1.0,-1.0,-3.0,-2.0,-9.0,0.0,-30.0,1651091334712205.0
23.0,5.0,1.0,0.0,3.0,18.0,4.0,54.0,1651091334712205.0
8.0,1.0,0.0,1.0,-2.0,5.0,20.0,14.0,1651091334725390.0
-17.0,-5.0,-4.0,-3.0,-3.0,3.0,-25.0,-34.0,1651091334725390.0
-6.0,-1.0,1.0,7.0,2.0,8.0,-1.0,4.0,1651091334727419.0
2.0,-1.0,1.0,-2.0,-1.0,0.0,-8.0,-11.0,1651091334727419.0
4.0,0.0,-3.0,-2.0,-3.0,-6.0,-1.0,6.0,1651091334740516.0
-8.0,-1.0,-3.0,0.0,6.0,-24.0,2.0,-11.0,1651091334740516.0
-2.0,0.0,-1.0,-1.0,-4.0,9.0,11.0,8.0,1651091334747439.0
-1.0,-2.0,-2.0,2.0,3.0,-17.0,-6.0,-8.0,1651091334747439.0
-20.0,-3.0,1.0,4.0,2.0,1.0,-29.0,-34.0,1651091334763641.0
13.0,-2.0,-4.0,-5.0,-5.0,-4.0,24.0,3.0,1651091334763641.0
15.0,3.0,2.0,-4.0,1.0,7.0,-2.0,21.0,1651091334764474.0
5.0,3.0,4.0,-1.0,-1.0,9.0,9.0,17.0,1651091334764474.0
-7.0,-3.0,0.0,0.0,1.0,-9.0,-8.0,-2.0,1651091334785942.0
8.0,2.0,2.0,-2.0,-1.0,-10.0,-5.0,15.0,1651091334785942.0
-2.0,-4.0,-3.0,1.0,-1.0,20.0,12.0,2.0,1651091334786812.0
-4.0,-5.0,-4.0,-1.0,-4.0,-4.0,-6.0,-7.0,1651091334786812.0
-2.0,1.0,0.0,-2.0,3.0,17.0,17.0,-15.0,1651091334800301.0
-13.0,-2.0,0.0,-1.0,-3.0,4.0,2.0,-20.0,1651091334800301.0
4.0,-1.0,-1.0,4.0,-5.0,-4.0,12.0,24.0,1651091334807426.0
5.0,4.0,1.0,3.0,-2.0,-11.0,-33.0,-5.0,1651091334807426.0
0.0,0.0,-1.0,1.0,0.0,-17.0,-3.0,22.0,1651091334823780.0
0.0,-3.0,-5.0,-6.0,-5.0,7.0,2.0,-3.0,1651091334823780.0
3.0,3.0,0.0,-2.0,-1.0,-8.0,4.0,-2.0,1651091334824661.0
-10.0,-3.0,-4.0,-6.0,1.0,6.0,-2.0,-28.0,1651091334824661.0
-6.0,-3.0,0.0,1.0,-5.0,-19.0,-20.0,-7.0,1651091334846238.0
-11.0,-3.0,-2.0,-9.0,-5.0,-2.0,1.0,-8.0,1651091334846238.0
-3.0,-3.0,-3.0,0.0,0.0,-19.0,9.0,-25.0,1651091334847102.0
13.0,1.0,-2.0,5.0,1.0,10.0,9.0,27.0,1651091334847102.0
10.0,3.0,5.0,1.0,0.0,-2.0,14.0,29.0,1651091334859768.0
-8.0,1.0,1.0,-1.0,-1.0,-5.0,0.0,-20.0,1651091334859768.0
-16.0,-2.0,-2.0,-4.0,-1.0,6.0,-6.0,-29.0,1651091334868879.0
21.0,4.0,1.0,3.0,3.0,-2.0,19.0,61.0,1651091334868879.0
7.0,1.0,-1.0,-2.0,1.0,13.0,-14.0,-6.0,1651091334884254.0
-13.0,-3.0,0.0,4.0,1.0,2.0,-7.0,-13.0,1651091334884254.0
-6.0,-2.0,0.0,-2.0,-1.0,-14.0,-7.0,1.0,1651091334885120.0
5.0,-1.0,-1.0,-1.0,-3.0,9.0,14.0,-26.0,1651091334885120.0
11.0,2.0,-2.0,-3.0,-2.0,4.0,5.0,26.0,1651091334906331.0
8.0,1.0,0.0,4.0,2.0,17.0,-5.0,22.0,1651091334906331.0
-8.0,-2.0,1.0,0.0,1.0,1.0,-21.0,-11.0,1651091334907283.0
-16.0,-2.0,-1.0,-4.0,-3.0,-8.0,16.0,-7.0,1651091334907283.0
5.0,-1.0,-2.0,0.0,-1.0,-15.0,-5.0,8.0,1651091334928654.0
-4.0,-3.0,0.0,0.0,3.0,-1.0,1.0,-7.0,1651091334928654.0
3.0,-4.0,-3.0,-8.0,2.0,5.0,13.0,11.0,1651091334929431.0
-11.0,1.0,3.0,3.0,-2.0,-7.0,-24.0,-30.0,1651091334929431.0
-9.0,-2.0,1.0,8.0,-1.0,10.0,-4.0,-21.0,1651091334942923.0
15.0,2.0,-1.0,0.0,-5.0,18.0,17.0,32.0,1651091334942923.0
-2.0,-1.0,0.0,-3.0,1.0,-24.0,4.0,-22.0,1651091334944790.0
10.0,-1.0,-3.0,-8.0,-3.0,11.0,-1.0,44.0,1651091334944790.0
-5.0,-2.0,-3.0,-2.0,-4.0,-14.0,1.0,-7.0,1651091334966027.0
-2.0,-1.0,1.0,0.0,2.0,26.0,0.0,4.0,1651091334966027.0
-1.0,3.0,1.0,1.0,-3.0,-14.0,-14.0,-6.0,1651091334966883.0
-4.0,-3.0,1.0,-2.0,0.0,-2.0,14.0,-5.0,1651091334966883.0
4.0,0.0,-1.0,-1.0,0.0,21.0,12.0,12.0,1651091334979026.0
-3.0,0.0,-2.0,3.0,2.0,-5.0,-11.0,-15.0,1651091334979026.0
-2.0,-2.0,-2.0,-2.0,-3.0,-5.0,-8.0,18.0,1651091334988166.0
-3.0,-2.0,-1.0,3.0,1.0,-9.0,5.0,-14.0,1651091334988166.0
1.0,3.0,5.0,0.0,0.0,9.0,-21.0,5.0,1651091335003647.0
-5.0,0.0,-1.0,-2.0,-1.0,6.0,29.0,-18.0,1651091335003647.0
2.0,1.0,1.0,0.0,1.0,15.0,3.0,8.0,1651091335005157.0
-10.0,-3.0,0.0,-3.0,-2.0,-4.0,-7.0,-1.0,1651091335005157.0
5.0,-2.0,-4.0,-2.0,2.0,-7.0,-2.0,6.0,1651091335025424.0
0.0,0.0,-2.0,-3.0,-3.0,-28.0,-26.0,-7.0,1651091335025424.0
-8.0,0.0,2.0,12.0,-3.0,33.0,17.0,6.0,1651091335027452.0
4.0,0.0,0.0,1.0,-1.0,-7.0,7.0,1.0,1651091335027452.0
7.0,-1.0,-1.0,-4.0,3.0,-9.0,4.0,27.0,1651091335039588.0
0.0,0.0,1.0,-1.0,4.0,8.0,-2.0,11.0,1651091335039588.0
-2.0,-1.0,-3.0,-6.0,0.0,-2.0,-4.0,1.0,1651091335047762.0
-13.0,-2.0,-2.0,-2.0,-1.0,0.0,-3.0,-41.0,1651091335047762.0
2.0,1.0,-2.0,-1.0,-2.0,9.0,-8.0,23.0,1651091335063770.0
-1.0,-1.0,1.0,2.0,-3.0,-17.0,-14.0,-3.0,1651091335063770.0
1.0,-1.0,-2.0,0.0,1.0,-3.0,-5.0,-10.0,1651091335064770.0
1.0,2.0,5.0,0.0,1.0,20.0,8.0,14.0,1651091335064770.0
-2.0,-1.0,0.0,-3.0,-3.0,-14.0,27.0,-25.0,1651091335086058.0
5.0,0.0,-3.0,-2.0,-1.0,9.0,5.0,7.0,1651091335086058.0
-4.0,-2.0,-2.0,-1.0,-1.0,-5.0,-9.0,-29.0,1651091335086896.0
6.0,-1.0,-2.0,1.0,1.0,7.0,-12.0,50.0,1651091335086896.0
-9.0,-4.0,-1.0,1.0,2.0,2.0,0.0,-13.0,1651091335099112.0
7.0,1.0,1.0,1.0,-2.0,-34.0,5.0,12.0,1651091335099112.0
8.0,0.0,2.0,0.0,1.0,-17.0,-3.0,19.0,1651091335115418.0
-3.0,-1.0,-3.0,-2.0,-1.0,20.0,15.0,-14.0,1651091335115418.0
-12.0,-1.0,1.0,0.0,-3.0,22.0,-26.0,-30.0,1651091335123594.0
1.0,-1.0,-2.0,1.0,0.0,4.0,14.0,26.0,1651091335123594.0
4.0,0.0,-1.0,-2.0,0.0,-12.0,-2.0,17.0,1651091335124433.0
3.0,0.0,0.0,-4.0,-1.0,-17.0,-12.0,0.0,1651091335124433.0
-4.0,-1.0,-2.0,0.0,-7.0,-5.0,-2.0,-13.0,1651091335145708.0
-16.0,-3.0,-2.0,-6.0,-1.0,5.0,2.0,-38.0,1651091335145708.0
6.0,3.0,5.0,5.0,2.0,11.0,7.0,35.0,1651091335147577.0
16.0,3.0,-2.0,5.0,1.0,20.0,-2.0,12.0,1651091335147577.0
-2.0,-1.0,1.0,-2.0,-2.0,-21.0,-7.0,-16.0,1651091335159516.0
-6.0,-3.0,-1.0,1.0,4.0,-5.0,-14.0,3.0,1651091335159516.0
-2.0,-2.0,-3.0,-6.0,-3.0,6.0,-13.0,-1.0,1651091335175661.0
1.0,-1.0,-2.0,-1.0,3.0,-16.0,7.0,18.0,1651091335175661.0
4.0,2.0,0.0,0.0,2.0,28.0,21.0,6.0,1651091335183820.0
7.0,3.0,1.0,0.0,-1.0,13.0,7.0,3.0,1651091335183820.0
-2.0,0.0,-1.0,-1.0,5.0,0.0,-4.0,5.0,1651091335184849.0
-21.0,-6.0,-3.0,0.0,-7.0,-16.0,-13.0,-38.0,1651091335184849.0
24.0,0.0,-2.0,3.0,4.0,5.0,7.0,70.0,1651091335206265.0
3.0,3.0,1.0,0.0,-4.0,17.0,4.0,-21.0,1651091335206265.0
3.0,1.0,1.0,2.0,1.0,-20.0,7.0,7.0,1651091335207100.0
-3.0,-2.0,-3.0,0.0,-1.0,-13.0,2.0,-7.0,1651091335207100.0
-8.0,2.0,3.0,-1.0,0.0,3.0,-5.0,-9.0,1651091335219409.0
-7.0,-4.0,-2.0,-2.0,-2.0,5.0,-2.0,-4.0,1651091335219409.0
2.0,1.0,-1.0,4.0,-1.0,-11.0,-7.0,-11.0,1651091335228882.0
0.0,-1.0,0.0,-8.0,-4.0,-10.0,5.0,3.0,1651091335228882.0
-6.0,-4.0,-4.0,-1.0,-7.0,-12.0,-9.0,-10.0,1651091335243583.0
-2.0,-1.0,-2.0,-3.0,3.0,13.0,5.0,-8.0,1651091335243583.0
-16.0,-3.0,-3.0,-1.0,-3.0,-2.0,-1.0,-37.0,1651091335244530.0
0.0,2.0,1.0,4.0,-3.0,6.0,-2.0,2.0,1651091335244530.0
11.0,5.0,0.0,0.0,2.0,-16.0,1.0,-9.0,1651091335266739.0
8.0,0.0,-1.0,-7.0,-5.0,6.0,13.0,29.0,1651091335266739.0
5.0,-4.0,-2.0,0.0,3.0,11.0,9.0,4.0,1651091335267667.0
-12.0,2.0,3.0,4.0,7.0,-1.0,-27.0,-27.0,1651091335267667.0
-5.0,-1.0,0.0,-5.0,-8.0,-14.0,21.0,-19.0,1651091335288846.0
3.0,1.0,-2.0,2.0,-1.0,-4.0,-38.0,6.0,1651091335288846.0
-1.0,-3.0,-4.0,-5.0,-2.0,-15.0,59.0,-8.0,1651091335289844.0
7.0,-1.0,-3.0,-3.0,-1.0,12.0,-22.0,16.0,1651091335289844.0
-9.0,-1.0,-2.0,-1.0,3.0,18.0,2.0,-20.0,1651091335303834.0
3.0,-1.0,1.0,1.0,3.0,-15.0,-3.0,4.0,1651091335303834.0
-3.0,2.0,2.0,-1.0,-2.0,15.0,-6.0,-19.0,1651091335304870.0
4.0,1.0,0.0,-2.0,0.0,-7.0,-2.0,22.0,1651091335304870.0
0.0,-4.0,0.0,0.0,0.0,6.0,-7.0,8.0,1651091335326196.0
-1.0,-1.0,-1.0,1.0,-4.0,-1.0,-3.0,-15.0,1651091335326196.0
3.0,0.0,-1.0,-2.0,-2.0,6.0,-16.0,13.0,1651091335327155.0
-7.0,-4.0,-2.0,4.0,-2.0,-8.0,12.0,-24.0,1651091335327155.0
-5.0,-3.0,-5.0,-5.0,0.0,5.0,-7.0,2.0,1651091335348607.0
-2.0,2.0,0.0,3.0,3.0,3.0,2.0,-8.0,1651091335348607.0
0.0,1.0,2.0,-4.0,-5.0,-19.0,-4.0,-6.0,1651091335349354.0
1.0,-1.0,-3.0,-7.0,2.0,5.0,9.0,8.0,1651091335349354.0
2.0,0.0,2.0,10.0,4.0,-5.0,-7.0,6.0,1651091335363639.0
-12.0,-3.0,-3.0,-2.0,-9.0,-2.0,-14.0,-19.0,1651091335363639.0
-14.0,0.0,0.0,1.0,2.0,11.0,-11.0,-20.0,1651091335364476.0
22.0,3.0,1.0,1.0,1.0,-9.0,24.0,55.0,1651091335364476.0
2.0,1.0,-1.0,-2.0,1.0,-6.0,0.0,0.0,1651091335386021.0
13.0,1.0,0.0,1.0,2.0,-8.0,-2.0,29.0,1651091335386021.0
-5.0,-2.0,-2.0,-10.0,-4.0,-21.0,-44.0,-9.0,1651091335386976.0
-1.0,1.0,1.0,4.0,-1.0,2.0,36.0,-12.0,1651091335386976.0
-12.0,-1.0,-2.0,1.0,2.0,14.0,-1.0,-18.0,1651091335408276.0
-13.0,-4.0,0.0,3.0,2.0,2.0,0.0,-17.0,1651091335408276.0
22.0,3.0,1.0,1.0,-4.0,2.0,3.0,39.0,1651091335409273.0
-3.0,-1.0,-3.0,-2.0,-3.0,-8.0,-13.0,-17.0,1651091335409273.0
-9.0,-2.0,1.0,-4.0,-2.0,-4.0,-1.0,-11.0,1651091335423587.0
-12.0,-2.0,-1.0,-4.0,1.0,0.0,0.0,-16.0,1651091335423587.0
14.0,3.0,-2.0,5.0,6.0,9.0,6.0,44.0,1651091335424433.0
2.0,-3.0,2.0,-1.0,-2.0,6.0,3.0,-6.0,1651091335424433.0
-3.0,-2.0,-1.0,-2.0,-2.0,7.0,-3.0,-1.0,1651091335453743.0
-10.0,-3.0,1.0,2.0,1.0,-14.0,2.0,-20.0,1651091335453743.0
-3.0,-2.0,-2.0,0.0,0.0,7.0,10.0,-2.0,1651091335454918.0
-1.0,0.0,-1.0,-1.0,0.0,3.0,-9.0,6.0,1651091335454918.0
6.0,2.0,0.0,-5.0,-4.0,-6.0,-12.0,17.0,1651091335467979.0
-7.0,-1.0,-1.0,-2.0,-4.0,5.0,-4.0,-18.0,1651091335467979.0
-4.0,-2.0,-1.0,8.0,4.0,7.0,7.0,-3.0,1651091335469880.0
6.0,1.0,-2.0,8.0,8.0,-7.0,3.0,-6.0,1651091335469880.0
10.0,0.0,-2.0,-5.0,2.0,7.0,7.0,25.0,1651091335482799.0
5.0,3.0,1.0,2.0,3.0,-3.0,29.0,1.0,1651091335482799.0
-22.0,-6.0,-3.0,-7.0,-8.0,-11.0,-9.0,-31.0,1651091335489243.0
-1.0,2.0,3.0,-1.0,0.0,-2.0,2.0,-22.0,1651091335489243.0
8.0,1.0,0.0,1.0,-2.0,4.0,-2.0,15.0,1651091335505519.0
8.0,0.0,-2.0,-1.0,1.0,-8.0,2.0,23.0,1651091335505519.0
-8.0,-4.0,-2.0,2.0,1.0,1.0,3.0,-12.0,1651091335507386.0
-9.0,-1.0,0.0,-4.0,-5.0,-12.0,-16.0,-21.0,1651091335507386.0
-5.0,1.0,-1.0,3.0,2.0,1.0,-2.0,0.0,1651091335528725.0
-15.0,-6.0,0.0,4.0,-2.0,10.0,-13.0,-29.0,1651091335528725.0
28.0,3.0,0.0,-1.0,1.0,10.0,10.0,60.0,1651091335529547.0
10.0,1.0,-3.0,-3.0,-1.0,-1.0,2.0,21.0,1651091335529547.0
3.0,2.0,1.0,-1.0,-4.0,8.0,3.0,1.0,1651091335542519.0
-4.0,-2.0,-2.0,1.0,0.0,0.0,-5.0,-4.0,1651091335542519.0
-11.0,-2.0,-2.0,-1.0,1.0,-4.0,-3.0,-23.0,1651091335549695.0
-4.0,1.0,4.0,-2.0,-6.0,3.0,0.0,-2.0,1651091335549695.0
-3.0,-3.0,-2.0,-1.0,7.0,-8.0,-18.0,-8.0,1651091335565781.0
2.0,0.0,-1.0,-1.0,-24.0,-6.0,1.0,-3.0,1651091335565781.0
1.0,0.0,3.0,-3.0,-8.0,1.0,1.0,8.0,1651091335567650.0
-1.0,-1.0,-3.0,6.0,56.0,10.0,-4.0,-4.0,1651091335567650.0
-6.0,-3.0,-4.0,-5.0,0.0,-9.0,4.0,-1.0,1651091335588811.0
6.0,-2.0,-5.0,-9.0,-13.0,-7.0,-1.0,8.0,1651091335588811.0
0.0,0.0,0.0,-2.0,-28.0,1.0,-1.0,6.0,1651091335589844.0
-3.0,2.0,4.0,10.0,-35.0,5.0,-6.0,-17.0,1651091335589844.0
-3.0,-1.0,0.0,-5.0,88.0,-6.0,-2.0,-3.0,1651091335602916.0
9.0,0.0,1.0,8.0,-78.0,-3.0,-17.0,20.0,1651091335602916.0
2.0,4.0,5.0,12.0,61.0,15.0,28.0,0.0,1651091335608763.0
-8.0,-6.0,-6.0,-13.0,-36.0,-6.0,-4.0,-8.0,1651091335608763.0
2.0,4.0,1.0,-1.0,4.0,-9.0,0.0,1.0,1651091335626040.0
4.0,-1.0,-5.0,-13.0,-42.0,-7.0,2.0,9.0,1651091335626040.0
-4.0,-2.0,-3.0,4.0,31.0,0.0,-13.0,-16.0,1651091335627034.0
-3.0,-3.0,0.0,4.0,46.0,6.0,-1.0,4.0,1651091335627034.0
2.0,1.0,2.0,9.0,-58.0,4.0,8.0,1.0,1651091335648299.0
-2.0,1.0,2.0,-2.0,45.0,6.0,4.0,2.0,1651091335648299.0
-3.0,-1.0,-1.0,-5.0,-54.0,-7.0,-3.0,-9.0,1651091335649287.0
-1.0,-1.0,-6.0,-13.0,-33.0,-4.0,1.0,5.0,1651091335649287.0
-1.0,-3.0,-3.0,-3.0,30.0,-3.0,-3.0,-2.0,1651091335662265.0
-1.0,0.0,0.0,3.0,-36.0,0.0,1.0,0.0,1651091335662265.0
0.0,-1.0,0.0,-3.0,-56.0,0.0,-1.0,0.0,1651091335677402.0
-1.0,1.0,3.0,3.0,60.0,8.0,-2.0,5.0,1651091335677402.0
-1.0,-2.0,2.0,1.0,-31.0,-1.0,-4.0,-5.0,1651091335685669.0
3.0,-4.0,-3.0,-1.0,7.0,-1.0,2.0,3.0,1651091335685669.0
-4.0,-3.0,-2.0,-11.0,16.0,-10.0,-2.0,-3.0,1651091335687537.0
0.0,2.0,1.0,2.0,-57.0,3.0,-2.0,-1.0,1651091335687537.0
-2.0,0.0,-1.0,0.0,-29.0,-3.0,1.0,-5.0,1651091335707813.0
2.0,-3.0,0.0,2.0,38.0,3.0,6.0,6.0,1651091335707813.0
-3.0,-2.0,-3.0,-3.0,-24.0,-3.0,-3.0,-1.0,1651091335709642.0
-2.0,1.0,5.0,-12.0,-45.0,1.0,-1.0,-2.0,1651091335709642.0
3.0,-1.0,-3.0,7.0,46.0,-1.0,1.0,0.0,1651091335723152.0
1.0,-2.0,-3.0,2.0,-63.0,-4.0,-1.0,1.0,1651091335723152.0
0.0,1.0,5.0,31.0,98.0,18.0,2.0,-2.0,1651091335729893.0
-1.0,0.0,-3.0,-7.0,-32.0,-7.0,-2.0,-2.0,1651091335729893.0
-1.0,0.0,-3.0,-10.0,-36.0,-2.0,1.0,-1.0,1651091335746133.0
0.0,2.0,2.0,-3.0,9.0,-2.0,0.0,-2.0,1651091335746133.0
0.0,0.0,-4.0,-3.0,-17.0,-5.0,-4.0,-3.0,1651091335746972.0
-1.0,-3.0,-2.0,7.0,30.0,1.0,0.0,1.0,1651091335746972.0
-1.0,-1.0,-2.0,-3.0,-8.0,-3.0,-2.0,-1.0,1651091335768471.0
0.0,1.0,0.0,-3.0,24.0,0.0,1.0,-2.0,1651091335768471.0
0.0,2.0,2.0,-4.0,10.0,4.0,0.0,-1.0,1651091335769471.0
-1.0,-1.0,1.0,3.0,-3.0,-2.0,-1.0,0.0,1651091335769471.0
-1.0,0.0,0.0,0.0,-27.0,-1.0,1.0,-1.0,1651091335782421.0
0.0,0.0,1.0,5.0,30.0,4.0,0.0,0.0,1651091335782421.0
0.0,-2.0,-3.0,-8.0,-14.0,-3.0,0.0,-2.0,1651091335790775.0
0.0,1.0,0.0,-4.0,-2.0,-3.0,-3.0,-2.0,1651091335790775.0
-1.0,-3.0,0.0,6.0,14.0,-1.0,0.0,0.0,1651091335806239.0
0.0,1.0,2.0,1.0,30.0,8.0,2.0,2.0,1651091335806239.0
0.0,-3.0,-3.0,-3.0,-20.0,-5.0,-1.0,-3.0,1651091335807074.0
-3.0,-4.0,-4.0,0.0,14.0,-2.0,-1.0,0.0,1651091335807074.0
0.0,1.0,2.0,4.0,17.0,6.0,1.0,1.0,1651091335828642.0
0.0,2.0,3.0,0.0,8.0,-2.0,-1.0,1.0,1651091335828642.0
0.0,-3.0,-2.0,-12.0,-28.0,-3.0,-3.0,0.0,1651091335829200.0
-1.0,-2.0,-1.0,0.0,-2.0,-3.0,0.0,-1.0,1651091335829200.0
-2.0,0.0,-2.0,-2.0,-41.0,-3.0,0.0,-2.0,1651091335841488.0
1.0,1.0,1.0,7.0,57.0,5.0,2.0,0.0,1651091335841488.0
0.0,1.0,3.0,1.0,8.0,0.0,-2.0,-2.0,1651091335850638.0
0.0,-2.0,-3.0,-4.0,-20.0,-3.0,-1.0,1.0,1651091335850638.0
0.0,-1.0,1.0,1.0,10.0,1.0,-3.0,1.0,1651091335865628.0
-1.0,0.0,-2.0,0.0,14.0,1.0,0.0,0.0,1651091335865628.0
-3.0,-4.0,-2.0,-9.0,-20.0,-2.0,0.0,0.0,1651091335867463.0
0.0,-3.0,-3.0,-1.0,-20.0,-4.0,1.0,0.0,1651091335867463.0
-2.0,0.0,0.0,5.0,30.0,3.0,1.0,-2.0,1651091335888768.0
-2.0,-1.0,1.0,-2.0,-4.0,1.0,-1.0,1.0,1651091335888768.0
0.0,0.0,-3.0,2.0,12.0,-1.0,1.0,1.0,1651091335889591.0
-3.0,0.0,2.0,-5.0,-14.0,-3.0,-1.0,-1.0,1651091335889591.0
0.0,0.0,-3.0,-7.0,-16.0,-4.0,-3.0,-1.0,1651091335902408.0
-1.0,1.0,1.0,7.0,12.0,-3.0,0.0,-1.0,1651091335902408.0
-2.0,-3.0,-1.0,-7.0,-10.0,3.0,0.0,0.0,1651091335910644.0
0.0,-1.0,-1.0,-2.0,16.0,-2.0,1.0,-1.0,1651091335910644.0
0.0,0.0,4.0,3.0,-42.0,0.0,-1.0,-1.0,1651091335925843.0
1.0,1.0,-1.0,-3.0,10.0,-2.0,1.0,0.0,1651091335925843.0
0.0,0.0,0.0,0.0,1.0,0.0,0.0,-1.0,1651091335926842.0
0.0,-1.0,-1.0,6.0,5.0,2.0,-1.0,0.0,1651091335926842.0
-2.0,-1.0,1.0,-3.0,6.0,-2.0,0.0,0.0,1651091335948632.0
1.0,0.0,-1.0,-3.0,-38.0,0.0,0.0,-1.0,1651091335948632.0
0.0,1.0,1.0,3.0,13.0,-1.0,0.0,-1.0,1651091335949336.0
0.0,0.0,-2.0,-3.0,-7.0,0.0,-1.0,0.0,1651091335949336.0
0.0,0.0,-1.0,3.0,14.0,0.0,0.0,-1.0,1651091335962371.0
-1.0,-3.0,-4.0,-7.0,-3.0,-4.0,-3.0,0.0,1651091335962371.0
0.0,1.0,-1.0,5.0,0.0,3.0,2.0,-1.0,1651091335976777.0
0.0,2.0,5.0,0.0,-37.0,-2.0,-2.0,-1.0,1651091335976777.0
-2.0,-4.0,-2.0,-5.0,-7.0,-1.0,0.0,-1.0,1651091335986103.0
0.0,0.0,-3.0,0.0,-25.0,0.0,0.0,0.0,1651091335986103.0
0.0,1.0,0.0,0.0,-6.0,-2.0,-2.0,0.0,1651091335992992.0
-2.0,-3.0,-3.0,0.0,27.0,0.0,2.0,-1.0,1651091335992992.0
0.0,0.0,1.0,-1.0,-17.0,-2.0,1.0,-2.0,1651091336008145.0
-2.0,-2.0,-2.0,-4.0,-9.0,-1.0,-1.0,-1.0,1651091336008145.0
-2.0,-2.0,-3.0,-3.0,-7.0,-4.0,-1.0,-3.0,1651091336010152.0
0.0,0.0,-1.0,0.0,18.0,5.0,1.0,0.0,1651091336010152.0
1.0,-1.0,0.0,-1.0,-8.0,-2.0,0.0,1.0,1651091336022316.0
0.0,-3.0,-2.0,2.0,32.0,6.0,0.0,0.0,1651091336022316.0
2.0,-1.0,-2.0,5.0,-19.0,-2.0,-2.0,-1.0,1651091336031685.0
-1.0,-1.0,-1.0,1.0,27.0,-2.0,0.0,-1.0,1651091336031685.0
1.0,1.0,0.0,2.0,-4.0,3.0,1.0,0.0,1651091336045796.0
-2.0,-3.0,-2.0,-1.0,-6.0,-1.0,1.0,0.0,1651091336045796.0
-1.0,3.0,2.0,-5.0,7.0,-2.0,-2.0,0.0,1651091336047658.0
-1.0,-1.0,-1.0,-6.0,-10.0,1.0,-1.0,-1.0,1651091336047658.0
0.0,1.0,-3.0,-1.0,9.0,-3.0,-1.0,1.0,1651091336068816.0
-2.0,0.0,0.0,-3.0,-17.0,-1.0,0.0,-1.0,1651091336068816.0
1.0,-3.0,-2.0,0.0,8.0,0.0,0.0,-1.0,1651091336069754.0
0.0,-1.0,0.0,4.0,-10.0,0.0,0.0,-2.0,1651091336069754.0
0.0,-3.0,0.0,2.0,15.0,-1.0,-2.0,0.0,1651091336081854.0
1.0,-1.0,1.0,4.0,-13.0,-1.0,0.0,-1.0,1651091336081854.0
-1.0,1.0,0.0,0.0,24.0,6.0,1.0,0.0,1651091336091468.0
0.0,0.0,-1.0,-3.0,1.0,-1.0,-1.0,1.0,1651091336091468.0
0.0,0.0,-1.0,-5.0,-8.0,-2.0,-1.0,0.0,1651091336105439.0
0.0,-1.0,-2.0,-2.0,-22.0,-4.0,-1.0,-2.0,1651091336105439.0
-1.0,0.0,-1.0,-1.0,1.0,1.0,-1.0,0.0,1651091336107433.0
-1.0,-2.0,-1.0,0.0,-9.0,-3.0,-1.0,0.0,1651091336107433.0
-1.0,-3.0,-2.0,1.0,-1.0,0.0,-1.0,-2.0,1651091336128746.0
1.0,1.0,4.0,3.0,38.0,3.0,0.0,1.0,1651091336128746.0
0.0,-5.0,-2.0,-4.0,-5.0,-3.0,-3.0,1.0,1651091336129592.0
-1.0,2.0,1.0,3.0,14.0,2.0,0.0,0.0,1651091336129592.0
-1.0,0.0,-1.0,-3.0,-18.0,-5.0,-1.0,0.0,1651091336141751.0
-1.0,-1.0,-3.0,-9.0,0.0,-3.0,-1.0,-1.0,1651091336141751.0
-1.0,-2.0,-3.0,-1.0,-36.0,-5.0,-1.0,-1.0,1651091336151454.0
2.0,-1.0,0.0,11.0,70.0,1.0,-3.0,0.0,1651091336151454.0
0.0,-1.0,1.0,-1.0,3.0,2.0,0.0,0.0,1651091336165645.0
0.0,-1.0,-1.0,-1.0,13.0,-4.0,-1.0,-2.0,1651091336165645.0
-2.0,0.0,0.0,-3.0,-27.0,-1.0,0.0,1.0,1651091336167476.0
-2.0,1.0,-2.0,-2.0,1.0,-1.0,0.0,0.0,1651091336167476.0
0.0,-2.0,-1.0,0.0,16.0,-2.0,1.0,-1.0,1651091336188799.0
1.0,0.0,-1.0,-2.0,-1.0,0.0,0.0,0.0,1651091336188799.0
0.0,-2.0,0.0,-5.0,17.0,-2.0,1.0,-1.0,1651091336189796.0
0.0,-1.0,2.0,7.0,-31.0,1.0,1.0,-1.0,1651091336189796.0
0.0,1.0,-2.0,-4.0,-3.0,0.0,0.0,0.0,1651091336202842.0
-2.0,-1.0,-1.0,2.0,27.0,2.0,0.0,0.0,1651091336202842.0
-1.0,0.0,0.0,2.0,-26.0,2.0,-1.0,0.0,1651091336211138.0
1.0,-4.0,-3.0,-4.0,-6.0,1.0,-1.0,2.0,1651091336211138.0
0.0,3.0,5.0,1.0,22.0,1.0,0.0,0.0,1651091336226213.0
0.0,-1.0,0.0,-4.0,-22.0,-3.0,0.0,-1.0,1651091336226213.0
-1.0,-1.0,0.0,-3.0,3.0,-2.0,-1.0,-2.0,1651091336227211.0
-2.0,-2.0,0.0,8.0,20.0,3.0,1.0,-1.0,1651091336227211.0
-1.0,-3.0,-1.0,-1.0,-24.0,-3.0,-3.0,0.0,1651091336248301.0
-2.0,0.0,-2.0,0.0,-4.0,-1.0,0.0,-1.0,1651091336248301.0
1.0,0.0,2.0,4.0,23.0,2.0,2.0,0.0,1651091336256271.0
0.0,1.0,-3.0,-14.0,-21.0,-2.0,-2.0,-1.0,1651091336256271.0
0.0,-1.0,-2.0,-2.0,9.0,0.0,-1.0,-1.0,1651091336271321.0
0.0,0.0,0.0,1.0,7.0,1.0,-1.0,1.0,1651091336271321.0
0.0,0.0,-1.0,7.0,-5.0,-1.0,-1.0,-1.0,1651091336272352.0
-1.0,-2.0,-1.0,-4.0,-13.0,-3.0,-1.0,-1.0,1651091336272352.0
-1.0,0.0,-1.0,-3.0,15.0,0.0,0.0,0.0,1651091336286146.0
0.0,1.0,-3.0,-3.0,-11.0,-3.0,-1.0,0.0,1651091336286146.0
-1.0,-1.0,-1.0,-1.0,1.0,1.0,-2.0,0.0,1651091336286987.0
-1.0,-2.0,0.0,-1.0,2.0,-2.0,0.0,0.0,1651091336286987.0
-1.0,1.0,2.0,-1.0,-2.0,1.0,-1.0,-1.0,1651091336315471.0
0.0,-2.0,0.0,3.0,-9.0,1.0,0.0,-1.0,1651091336315471.0
-1.0,1.0,0.0,0.0,6.0,-2.0,-1.0,0.0,1651091336317364.0
0.0,-2.0,-1.0,-4.0,-22.0,-2.0,0.0,0.0,1651091336317364.0
-1.0,-4.0,-3.0,0.0,31.0,6.0,0.0,-1.0,1651091336331636.0
0.0,0.0,2.0,1.0,-4.0,-1.0,-1.0,-1.0,1651091336331636.0
-1.0,2.0,-1.0,1.0,1.0,1.0,0.0,1.0,1651091336332477.0
-2.0,-1.0,0.0,-1.0,-2.0,-1.0,-1.0,0.0,1651091336332477.0
0.0,-1.0,-4.0,-3.0,-15.0,-2.0,-1.0,-1.0,1651091336346777.0
-1.0,-1.0,1.0,-4.0,4.0,0.0,-2.0,-1.0,1651091336346777.0
1.0,0.0,1.0,3.0,2.0,1.0,-1.0,-1.0,1651091336347800.0
0.0,-1.0,1.0,-2.0,0.0,-2.0,-1.0,-1.0,1651091336347800.0
-1.0,-1.0,0.0,1.0,-19.0,-1.0,0.0,0.0,1651091336376122.0
0.0,1.0,-1.0,2.0,7.0,2.0,-1.0,-1.0,1651091336376122.0
-1.0,-2.0,-3.0,-8.0,-2.0,0.0,-1.0,-2.0,1651091336377079.0
-1.0,1.0,-1.0,0.0,7.0,0.0,0.0,1.0,1651091336377079.0
-2.0,-1.0,4.0,2.0,-7.0,-2.0,2.0,-1.0,1651091336391247.0
-2.0,1.0,-3.0,1.0,-4.0,-3.0,-2.0,0.0,1651091336391247.0
1.0,-2.0,1.0,-1.0,5.0,-1.0,-3.0,-3.0,1651091336392244.0
-1.0,-1.0,-3.0,-4.0,-17.0,0.0,-2.0,0.0,1651091336392244.0
0.0,-1.0,-3.0,1.0,28.0,-2.0,-2.0,-2.0,1651091336405516.0
0.0,-2.0,1.0,-2.0,-25.0,0.0,1.0,0.0,1651091336405516.0
-1.0,-1.0,0.0,-1.0,6.0,2.0,0.0,0.0,1651091336412305.0
-1.0,1.0,0.0,4.0,6.0,0.0,-1.0,-1.0,1651091336412305.0
1.0,-2.0,-1.0,-3.0,-18.0,0.0,-1.0,-1.0,1651091336428659.0
0.0,1.0,-2.0,-3.0,-5.0,-1.0,-1.0,0.0,1651091336428659.0
1.0,-1.0,-2.0,-3.0,-8.0,-3.0,-2.0,-1.0,1651091336429554.0
1.0,-1.0,0.0,0.0,21.0,0.0,-1.0,-2.0,1651091336429554.0
-1.0,1.0,-1.0,3.0,-16.0,0.0,1.0,0.0,1651091336450887.0
0.0,-2.0,-2.0,-4.0,-4.0,1.0,-1.0,-2.0,1651091336450887.0
0.0,-3.0,-2.0,8.0,13.0,-2.0,0.0,1.0,1651091336451749.0
-1.0,4.0,3.0,2.0,-14.0,-2.0,-1.0,0.0,1651091336451749.0
-1.0,-1.0,0.0,-2.0,6.0,-2.0,-2.0,0.0,1651091336464991.0
0.0,-1.0,-1.0,-2.0,1.0,-1.0,0.0,-1.0,1651091336464991.0
-1.0,0.0,-2.0,-5.0,-7.0,-3.0,0.0,0.0,1651091336472160.0
0.0,-3.0,-2.0,0.0,50.0,4.0,1.0,0.0,1651091336472160.0
-2.0,-2.0,-2.0,0.0,-7.0,-1.0,1.0,-1.0,1651091336488777.0
0.0,1.0,0.0,-3.0,-8.0,-1.0,0.0,1.0,1651091336488777.0
-2.0,-1.0,-1.0,-1.0,9.0,-2.0,0.0,-1.0,1651091336490171.0
1.0,-1.0,-1.0,0.0,-7.0,-2.0,0.0,0.0,1651091336490171.0
-1.0,-2.0,-1.0,-1.0,-5.0,1.0,-1.0,-1.0,1651091336511306.0
-3.0,-1.0,-3.0,1.0,3.0,-1.0,-1.0,-1.0,1651091336511306.0
0.0,0.0,0.0,-3.0,3.0,0.0,-1.0,0.0,1651091336512338.0
-1.0,0.0,2.0,1.0,-9.0,0.0,1.0,0.0,1651091336512338.0
-1.0,0.0,-2.0,4.0,-6.0,-2.0,-1.0,-1.0,1651091336533582.0
-2.0,0.0,2.0,-1.0,-1.0,-1.0,-1.0,0.0,1651091336533582.0
1.0,0.0,-3.0,2.0,2.0,1.0,0.0,-1.0,1651091336534441.0
-1.0,-2.0,1.0,-3.0,-9.0,-1.0,1.0,0.0,1651091336534441.0
1.0,-4.0,-3.0,-2.0,2.0,0.0,-2.0,1.0,1651091336548649.0
-2.0,-2.0,1.0,6.0,9.0,-1.0,0.0,-1.0,1651091336548649.0
0.0,0.0,3.0,-2.0,-8.0,-1.0,0.0,0.0,1651091336549431.0
0.0,-1.0,-3.0,-6.0,-6.0,1.0,-1.0,-3.0,1651091336549431.0
-1.0,1.0,0.0,-2.0,1.0,0.0,0.0,-1.0,1651091336570516.0
1.0,0.0,0.0,0.0,5.0,-1.0,-1.0,0.0,1651091336570516.0
-1.0,0.0,-1.0,2.0,2.0,4.0,2.0,1.0,1651091336572545.0
-1.0,-1.0,-3.0,1.0,-14.0,-2.0,0.0,0.0,1651091336572545.0
0.0,2.0,-1.0,-2.0,1.0,0.0,0.0,-1.0,1651091336593779.0
0.0,-3.0,-2.0,-2.0,-15.0,-2.0,-1.0,0.0,1651091336593779.0
-1.0,0.0,0.0,0.0,-7.0,-2.0,-2.0,-2.0,1651091336594760.0
-1.0,-3.0,-1.0,5.0,7.0,1.0,-3.0,-2.0,1651091336594760.0
-1.0,3.0,0.0,-4.0,-8.0,-2.0,-1.0,1.0,1651091336608050.0
-1.0,-1.0,1.0,2.0,3.0,-1.0,0.0,-1.0,1651091336608050.0
-1.0,2.0,0.0,0.0,-8.0,-2.0,0.0,1.0,1651091336609950.0
-1.0,0.0,-2.0,-5.0,1.0,1.0,0.0,-1.0,1651091336609950.0
-1.0,-2.0,-1.0,1.0,-10.0,-1.0,-1.0,-1.0,1651091336631248.0
1.0,1.0,-2.0,0.0,1.0,0.0,1.0,0.0,1651091336631248.0
0.0,1.0,0.0,0.0,6.0,-1.0,0.0,-3.0,1651091336632193.0
-2.0,-2.0,-2.0,-1.0,-6.0,-2.0,-1.0,0.0,1651091336632193.0
-1.0,-1.0,0.0,1.0,3.0,2.0,0.0,-2.0,1651091336645350.0
-2.0,-1.0,-2.0,-3.0,3.0,2.0,-1.0,-1.0,1651091336645350.0
-1.0,0.0,0.0,-2.0,-2.0,-2.0,-1.0,-1.0,1651091336652369.0
0.0,3.0,0.0,1.0,1.0,0.0,-2.0,0.0,1651091336652369.0
-1.0,-2.0,0.0,-3.0,-1.0,0.0,-1.0,0.0,1651091336668674.0
-1.0,-1.0,0.0,-2.0,-4.0,-2.0,0.0,1.0,1651091336668674.0
1.0,-5.0,-3.0,2.0,14.0,0.0,-2.0,-3.0,1651091336669524.0
0.0,4.0,5.0,6.0,-5.0,-1.0,0.0,-2.0,1651091336669524.0
-1.0,-1.0,0.0,0.0,-4.0,0.0,0.0,-1.0,1651091336691012.0
-1.0,0.0,-3.0,-3.0,3.0,-1.0,-2.0,0.0,1651091336691012.0
0.0,-1.0,0.0,-5.0,12.0,1.0,1.0,0.0,1651091336691857.0
-1.0,-2.0,-2.0,1.0,-3.0,0.0,1.0,0.0,1651091336691857.0
-1.0,1.0,-4.0,-1.0,-1.0,-1.0,0.0,-2.0,1651091336704959.0
0.0,-2.0,-3.0,-2.0,-7.0,-1.0,0.0,-1.0,1651091336704959.0
-1.0,-1.0,-2.0,-2.0,-10.0,-2.0,-2.0,0.0,1651091336712111.0
0.0,0.0,0.0,-1.0,-9.0,-1.0,-1.0,0.0,1651091336712111.0
0.0,0.0,0.0,1.0,-8.0,-1.0,-1.0,-1.0,1651091336728728.0
-2.0,-1.0,0.0,2.0,31.0,2.0,0.0,1.0,1651091336728728.0
0.0,0.0,0.0,-3.0,-5.0,0.0,-1.0,0.0,1651091336729229.0
0.0,0.0,1.0,-3.0,-2.0,-1.0,0.0,0.0,1651091336729229.0
-1.0,0.0,-1.0,-3.0,-7.0,-1.0,-1.0,0.0,1651091336751311.0
1.0,-1.0,-1.0,4.0,-8.0,2.0,-1.0,-1.0,1651091336751311.0
-1.0,-3.0,-3.0,5.0,10.0,-1.0,-1.0,-1.0,1651091336752345.0
0.0,3.0,4.0,-1.0,2.0,-2.0,1.0,-2.0,1651091336752345.0
0.0,0.0,1.0,0.0,5.0,-2.0,0.0,-1.0,1651091336764320.0
0.0,-1.0,0.0,-6.0,0.0,-2.0,-1.0,-2.0,1651091336764320.0
-2.0,0.0,1.0,3.0,-5.0,0.0,-1.0,0.0,1651091336780670.0
-1.0,-2.0,-5.0,-1.0,-2.0,0.0,0.0,-1.0,1651091336780670.0
-3.0,1.0,2.0,-1.0,-1.0,0.0,-1.0,0.0,1651091336788670.0
-1.0,1.0,0.0,0.0,3.0,-2.0,1.0,-2.0,1651091336788670.0
-2.0,1.0,0.0,-7.0,-9.0,0.0,0.0,0.0,1651091336789673.0
0.0,-4.0,-2.0,0.0,5.0,-2.0,-1.0,-2.0,1651091336789673.0
0.0,0.0,2.0,0.0,-3.0,0.0,0.0,0.0,1651091336810982.0
0.0,-1.0,-1.0,-1.0,-6.0,-1.0,-2.0,-1.0,1651091336810982.0
-2.0,-2.0,-1.0,2.0,0.0,-2.0,-1.0,0.0,1651091336811984.0
0.0,1.0,-2.0,-2.0,3.0,-1.0,-1.0,-1.0,1651091336811984.0
0.0,-3.0,-6.0,-2.0,5.0,0.0,-1.0,0.0,1651091336824159.0
1.0,1.0,5.0,-1.0,-6.0,-2.0,0.0,0.0,1651091336824159.0
-1.0,0.0,-1.0,-5.0,-1.0,-1.0,0.0,-1.0,1651091336839425.0
-1.0,-2.0,1.0,-1.0,-12.0,0.0,0.0,-1.0,1651091336839425.0
1.0,-2.0,0.0,5.0,10.0,-1.0,-1.0,-2.0,1651091336848577.0
0.0,0.0,-1.0,1.0,-3.0,1.0,-1.0,0.0,1651091336848577.0
0.0,2.0,4.0,-1.0,-2.0,0.0,-1.0,-1.0,1651091336849428.0
-1.0,-3.0,-4.0,-5.0,-2.0,-1.0,-1.0,-1.0,1651091336849428.0
0.0,-3.0,-3.0,-4.0,-3.0,-1.0,0.0,-1.0,1651091336870804.0
-2.0,0.0,-4.0,-2.0,0.0,-3.0,0.0,-2.0,1651091336870804.0
1.0,1.0,-3.0,-3.0,-1.0,0.0,-1.0,-2.0,1651091336872672.0
-1.0,-1.0,0.0,2.0,-1.0,0.0,0.0,-1.0,1651091336872672.0
-1.0,0.0,1.0,0.0,-7.0,-1.0,0.0,-1.0,1651091336884752.0
-3.0,-2.0,0.0,-1.0,13.0,1.0,0.0,0.0,1651091336884752.0
0.0,-1.0,1.0,3.0,-3.0,0.0,0.0,1.0,1651091336893652.0
-1.0,0.0,-4.0,-7.0,3.0,-1.0,-1.0,1.0,1651091336893652.0
0.0,3.0,5.0,8.0,5.0,0.0,0.0,-3.0,1651091336907953.0
-1.0,-1.0,-1.0,-6.0,-3.0,-1.0,1.0,-1.0,1651091336907953.0
0.0,-1.0,-1.0,2.0,-7.0,-1.0,-1.0,0.0,1651091336909809.0
-1.0,0.0,-1.0,-1.0,-14.0,1.0,-1.0,1.0,1651091336909809.0
-1.0,-1.0,-1.0,-1.0,44.0,1.0,-1.0,1.0,1651091336931393.0
-1.0,1.0,-1.0,-3.0,-8.0,0.0,-2.0,-1.0,1651091336931393.0
-1.0,0.0,-2.0,0.0,0.0,0.0,0.0,0.0,1651091336932264.0
-1.0,-2.0,2.0,3.0,2.0,-1.0,-2.0,-1.0,1651091336932264.0
-1.0,-2.0,-3.0,-2.0,-12.0,-1.0,1.0,-1.0,1651091336944995.0
-1.0,-2.0,-1.0,3.0,2.0,0.0,0.0,0.0,1651091336944995.0
-1.0,1.0,-1.0,-3.0,-1.0,-2.0,0.0,-1.0,1651091336952748.0
3.0,2.0,0.0,0.0,-4.0,0.0,-1.0,0.0,1651091336952748.0
-1.0,-1.0,-1.0,-4.0,-3.0,-2.0,-1.0,0.0,1651091336968758.0
0.0,-2.0,1.0,2.0,0.0,0.0,-1.0,-1.0,1651091336968758.0
0.0,-2.0,-2.0,-1.0,-5.0,-2.0,0.0,-1.0,1651091336969736.0
-1.0,0.0,-1.0,-3.0,3.0,1.0,1.0,-1.0,1651091336969736.0
0.0,-2.0,-1.0,-3.0,-7.0,-2.0,0.0,0.0,1651091336990672.0
0.0,3.0,1.0,4.0,5.0,4.0,3.0,1.0,1651091336990672.0
-2.0,0.0,3.0,-2.0,9.0,0.0,-2.0,1.0,1651091336992729.0
-2.0,-4.0,-2.0,-8.0,2.0,0.0,0.0,0.0,1651091336992729.0
0.0,-1.0,1.0,9.0,-12.0,-1.0,-3.0,-1.0,1651091337004611.0
-1.0,-1.0,-3.0,4.0,-11.0,-5.0,-9.0,-2.0,1651091337004611.0
0.0,-2.0,-3.0,-2.0,-6.0,-5.0,1.0,-1.0,1651091337013740.0
-1.0,-1.0,0.0,-2.0,19.0,1.0,4.0,0.0,1651091337013740.0
-2.0,-1.0,-3.0,-7.0,-5.0,3.0,20.0,0.0,1651091337028047.0
2.0,3.0,2.0,-2.0,-54.0,7.0,0.0,1.0,1651091337028047.0
1.0,0.0,1.0,1.0,61.0,6.0,-3.0,1.0,1651091337029912.0
-1.0,-2.0,2.0,11.0,-15.0,-13.0,-13.0,-2.0,1651091337029912.0
0.0,-1.0,-2.0,-12.0,-5.0,-11.0,0.0,-2.0,1651091337051251.0
-2.0,-3.0,-2.0,1.0,-2.0,0.0,-22.0,-3.0,1651091337051251.0
0.0,3.0,5.0,-3.0,-21.0,6.0,-24.0,-2.0,1651091337052093.0
0.0,-1.0,-3.0,-10.0,-3.0,-12.0,33.0,1.0,1651091337052093.0
-2.0,-5.0,-7.0,-17.0,6.0,-1.0,18.0,0.0,1651091337064243.0
3.0,2.0,0.0,5.0,7.0,27.0,-9.0,-1.0,1651091337064243.0
-1.0,-1.0,7.0,48.0,-7.0,-8.0,-13.0,-4.0,1651091337073542.0
0.0,2.0,2.0,1.0,12.0,2.0,-9.0,1.0,1651091337073542.0
-8.0,-3.0,-1.0,1.0,16.0,-15.0,-14.0,-9.0,1651091337088766.0
-4.0,-2.0,-2.0,-25.0,-2.0,12.0,38.0,2.0,1651091337088766.0
4.0,-2.0,-6.0,-16.0,-25.0,-9.0,-9.0,2.0,1651091337089574.0
9.0,2.0,-1.0,16.0,22.0,-3.0,30.0,11.0,1651091337089574.0
-5.0,0.0,2.0,-2.0,-18.0,7.0,-46.0,-24.0,1651091337117924.0
0.0,-2.0,1.0,7.0,41.0,20.0,68.0,-3.0,1651091337117924.0
-5.0,-1.0,-3.0,-7.0,-8.0,-47.0,-75.0,8.0,1651091337119946.0
-7.0,-3.0,-2.0,-6.0,-12.0,-5.0,-43.0,-6.0,1651091337119946.0
20.0,7.0,1.0,0.0,0.0,41.0,42.0,39.0,1651091337123935.0
-4.0,2.0,1.0,7.0,2.0,-12.0,-40.0,-23.0,1651091337123935.0
-2.0,-1.0,-3.0,-4.0,-11.0,-6.0,0.0,-29.0,1651091337133155.0
15.0,0.0,-2.0,-6.0,-5.0,-40.0,-60.0,43.0,1651091337133155.0
-4.0,1.0,1.0,10.0,11.0,-13.0,61.0,-11.0,1651091337148067.0
-12.0,-8.0,-7.0,-1.0,-6.0,-15.0,-23.0,-14.0,1651091337148067.0
-7.0,2.0,1.0,-7.0,0.0,32.0,64.0,0.0,1651091337156048.0
-4.0,-1.0,1.0,1.0,5.0,51.0,14.0,-15.0,1651091337156048.0
20.0,5.0,4.0,7.0,1.0,11.0,-32.0,37.0,1651091337171324.0
4.0,1.0,-1.0,-3.0,-3.0,-22.0,6.0,-29.0,1651091337171324.0
6.0,-3.0,-4.0,-5.0,-7.0,-14.0,-7.0,19.0,1651091337172359.0
-7.0,-3.0,-2.0,-7.0,3.0,-22.0,-20.0,-8.0,1651091337172359.0
-14.0,-2.0,0.0,6.0,-5.0,47.0,12.0,-12.0,1651091337193060.0
-17.0,-5.0,-1.0,-9.0,-12.0,-24.0,-27.0,-19.0,1651091337193060.0
-12.0,-7.0,-5.0,-2.0,11.0,27.0,-12.0,-30.0,1651091337208829.0
17.0,4.0,4.0,8.0,5.0,1.0,47.0,27.0,1651091337208829.0
11.0,3.0,3.0,0.0,-7.0,-26.0,9.0,28.0,1651091337209826.0
-2.0,-2.0,-1.0,0.0,4.0,10.0,-36.0,17.0,1651091337209826.0
-38.0,-8.0,0.0,-6.0,-1.0,-27.0,-35.0,-61.0,1651091337213841.0
5.0,4.0,-1.0,-3.0,-14.0,-5.0,23.0,-70.0,1651091337213841.0
48.0,7.0,-2.0,1.0,-1.0,-5.0,17.0,83.0,1651091337230972.0
8.0,4.0,-1.0,-5.0,2.0,28.0,15.0,14.0,1651091337230972.0
-4.0,-2.0,-3.0,-4.0,-2.0,-11.0,-9.0,-26.0,1651091337231971.0
10.0,-2.0,-4.0,-2.0,2.0,17.0,-4.0,54.0,1651091337231971.0
-16.0,-3.0,-1.0,2.0,-1.0,1.0,11.0,-52.0,1651091337253753.0
-2.0,-1.0,2.0,4.0,-15.0,0.0,-68.0,15.0,1651091337253753.0
-15.0,-4.0,-6.0,-3.0,1.0,13.0,71.0,-28.0,1651091337255163.0
-9.0,2.0,7.0,3.0,5.0,33.0,-8.0,-16.0,1651091337255163.0
-13.0,-1.0,-4.0,-3.0,-3.0,2.0,42.0,-31.0,1651091337268750.0
14.0,0.0,-1.0,1.0,5.0,-29.0,33.0,16.0,1651091337268750.0
-8.0,0.0,-2.0,2.0,-7.0,-5.0,-23.0,-41.0,1651091337269178.0
10.0,-2.0,-2.0,-7.0,-4.0,-29.0,4.0,59.0,1651091337269178.0
-2.0,-1.0,-3.0,3.0,-1.0,-10.0,-21.0,5.0,1651091337290644.0
2.0,-3.0,-3.0,-6.0,5.0,29.0,-6.0,-5.0,1651091337290644.0
7.0,4.0,3.0,-6.0,-3.0,-57.0,12.0,18.0,1651091337292479.0
-5.0,-2.0,1.0,15.0,-5.0,-2.0,6.0,-15.0,1651091337292479.0
-45.0,-8.0,-2.0,-18.0,-5.0,27.0,-68.0,-128.0,1651091337313753.0
39.0,6.0,-4.0,-22.0,-3.0,38.0,54.0,87.0,1651091337313753.0
10.0,-6.0,1.0,47.0,12.0,37.0,-7.0,27.0,1651091337314784.0
21.0,6.0,4.0,-1.0,1.0,-89.0,14.0,69.0,1651091337314784.0
-9.0,-5.0,-3.0,3.0,1.0,52.0,12.0,-6.0,1651091337337577.0
-7.0,5.0,6.0,5.0,7.0,47.0,6.0,-8.0,1651091337337577.0
13.0,5.0,0.0,-17.0,-3.0,48.0,-5.0,51.0,1651091337338578.0
-19.0,-8.0,-7.0,-2.0,-8.0,49.0,1.0,-58.0,1651091337338578.0
-8.0,-4.0,-1.0,1.0,-1.0,-9.0,-39.0,-18.0,1651091337350820.0
-10.0,-3.0,-1.0,-2.0,-2.0,1.0,-25.0,-44.0,1651091337350820.0
4.0,5.0,3.0,-3.0,4.0,15.0,35.0,3.0,1651091337352686.0
-1.0,0.0,-3.0,1.0,-5.0,47.0,11.0,11.0,1651091337352686.0
17.0,1.0,-1.0,-4.0,-2.0,-36.0,-24.0,65.0,1651091337373791.0
-12.0,-6.0,-4.0,-2.0,3.0,16.0,18.0,-16.0,1651091337373791.0
-13.0,-1.0,2.0,10.0,4.0,-12.0,-13.0,-2.0,1651091337374794.0
-5.0,-1.0,0.0,0.0,-8.0,-24.0,-11.0,-82.0,1651091337374794.0
32.0,0.0,-1.0,1.0,-3.0,2.0,7.0,98.0,1651091337388063.0
-16.0,-1.0,3.0,9.0,-2.0,-20.0,-15.0,-45.0,1651091337388063.0
-3.0,-3.0,-5.0,-16.0,-3.0,-47.0,-2.0,-8.0,1651091337396076.0
13.0,2.0,-3.0,-6.0,4.0,59.0,18.0,56.0,1651091337396076.0
-6.0,-1.0,3.0,-2.0,3.0,20.0,-36.0,-30.0,1651091337411254.0
-12.0,-2.0,0.0,7.0,-4.0,-58.0,31.0,-10.0,1651091337411254.0
-3.0,0.0,1.0,-1.0,5.0,64.0,11.0,-45.0,1651091337412221.0
-2.0,-1.0,-2.0,-3.0,-2.0,22.0,-13.0,-2.0,1651091337412221.0
15.0,3.0,1.0,2.0,-10.0,-16.0,-6.0,40.0,1651091337433657.0
10.0,1.0,1.0,4.0,6.0,-44.0,45.0,39.0,1651091337433657.0
2.0,1.0,-3.0,-3.0,-3.0,55.0,3.0,-5.0,1651091337434624.0
-29.0,-6.0,0.0,2.0,1.0,-15.0,-19.0,-65.0,1651091337434624.0
-5.0,-2.0,-2.0,-7.0,0.0,21.0,14.0,-6.0,1651091337447727.0
-6.0,-2.0,-4.0,0.0,-5.0,-11.0,-34.0,-53.0,1651091337447727.0
13.0,1.0,0.0,9.0,-1.0,-33.0,18.0,43.0,1651091337454947.0
1.0,-1.0,0.0,-3.0,2.0,9.0,-23.0,11.0,1651091337454947.0
-14.0,-2.0,-1.0,-5.0,-3.0,-44.0,-10.0,-38.0,1651091337471273.0
6.0,-3.0,-6.0,-1.0,3.0,24.0,1.0,21.0,1651091337471273.0
9.0,2.0,3.0,-1.0,1.0,-13.0,0.0,8.0,1651091337472270.0
-4.0,3.0,0.0,-10.0,-6.0,-14.0,-2.0,-7.0,1651091337472270.0
-31.0,-5.0,0.0,-8.0,-4.0,-3.0,-4.0,-43.0,1651091337493662.0
28.0,2.0,0.0,18.0,3.0,-3.0,-6.0,44.0,1651091337493662.0
29.0,3.0,-1.0,-9.0,-5.0,-18.0,-7.0,50.0,1651091337495547.0
-8.0,-4.0,-2.0,-1.0,5.0,14.0,7.0,-23.0,1651091337495547.0
8.0,0.0,0.0,4.0,-3.0,-48.0,2.0,30.0,1651091337507925.0
-24.0,-3.0,0.0,-5.0,2.0,49.0,-17.0,-42.0,1651091337507925.0
5.0,2.0,0.0,-4.0,-2.0,-5.0,-22.0,33.0,1651091337513929.0
-3.0,-1.0,1.0,6.0,-3.0,0.0,51.0,-14.0,1651091337513929.0
-17.0,0.0,2.0,1.0,5.0,68.0,-5.0,-52.0,1651091337530342.0
13.0,2.0,1.0,2.0,-2.0,-17.0,-9.0,26.0,1651091337530342.0
22.0,4.0,0.0,-3.0,2.0,-20.0,20.0,36.0,1651091337532340.0
-13.0,-7.0,-5.0,-7.0,-6.0,-2.0,-39.0,-17.0,1651091337532340.0
0.0,-4.0,-4.0,6.0,3.0,-17.0,35.0,1.0,1651091337553754.0
-9.0,0.0,2.0,-6.0,-7.0,11.0,-6.0,-30.0,1651091337553754.0
-4.0,0.0,3.0,0.0,-4.0,-12.0,3.0,10.0,1651091337555123.0
-1.0,-2.0,-4.0,0.0,0.0,-7.0,-10.0,-5.0,1651091337555123.0
-4.0,-1.0,-1.0,5.0,3.0,-20.0,0.0,-13.0,1651091337568089.0
4.0,0.0,-3.0,3.0,2.0,10.0,-9.0,3.0,1651091337568089.0
-5.0,-1.0,0.0,0.0,-7.0,-37.0,-11.0,-8.0,1651091337574226.0
3.0,1.0,-1.0,-13.0,-7.0,18.0,6.0,12.0,1651091337574226.0
12.0,0.0,2.0,12.0,2.0,3.0,-19.0,-4.0,1651091337590530.0
-3.0,-2.0,-2.0,-4.0,-7.0,21.0,13.0,12.0,1651091337590530.0
-8.0,-1.0,-1.0,0.0,-3.0,-38.0,7.0,-22.0,1651091337592370.0
1.0,0.0,-2.0,4.0,7.0,11.0,-15.0,20.0,1651091337592370.0
14.0,2.0,-2.0,-9.0,-1.0,27.0,0.0,68.0,1651091337613682.0
-3.0,2.0,0.0,0.0,-2.0,-34.0,11.0,-10.0,1651091337613682.0
-9.0,-5.0,-2.0,-1.0,1.0,43.0,-26.0,-13.0,1651091337614682.0
-6.0,0.0,0.0,0.0,1.0,34.0,26.0,-2.0,1651091337614682.0
-7.0,-2.0,0.0,-4.0,-4.0,-40.0,-20.0,-26.0,1651091337627690.0
15.0,2.0,-2.0,3.0,3.0,30.0,17.0,52.0,1651091337627690.0
-6.0,-3.0,-3.0,-4.0,-3.0,12.0,-2.0,-33.0,1651091337634787.0
13.0,1.0,1.0,0.0,0.0,-52.0,-27.0,58.0,1651091337634787.0
-9.0,-1.0,-3.0,2.0,-8.0,-14.0,9.0,-12.0,1651091337651440.0
5.0,0.0,2.0,-2.0,1.0,-16.0,-4.0,18.0,1651091337651440.0
-3.0,2.0,-5.0,-12.0,-8.0,7.0,3.0,-25.0,1651091337653312.0
-3.0,-4.0,-1.0,16.0,6.0,15.0,3.0,-5.0,1651091337653312.0
0.0,1.0,2.0,-7.0,-9.0,11.0,-4.0,-16.0,1651091337673748.0
-7.0,-3.0,-2.0,-6.0,-4.0,-32.0,-10.0,1.0,1651091337673748.0
-7.0,-2.0,0.0,4.0,5.0,-10.0,28.0,-16.0,1651091337674634.0
-14.0,-3.0,-2.0,-3.0,0.0,24.0,-28.0,-46.0,1651091337674634.0
-3.0,-2.0,-4.0,0.0,4.0,-38.0,-7.0,-45.0,1651091337686755.0
14.0,0.0,-2.0,-4.0,-7.0,-34.0,7.0,41.0,1651091337686755.0
21.0,4.0,1.0,-2.0,4.0,55.0,35.0,29.0,1651091337703126.0
-13.0,0.0,2.0,-2.0,-5.0,-42.0,-29.0,-43.0,1651091337703126.0
-11.0,0.0,-1.0,3.0,3.0,33.0,5.0,-3.0,1651091337711095.0
-15.0,-1.0,0.0,-2.0,3.0,35.0,20.0,-53.0,1651091337711095.0
9.0,-2.0,-1.0,1.0,4.0,7.0,-14.0,37.0,1651091337712097.0
-4.0,-3.0,-1.0,-2.0,-5.0,-34.0,-7.0,-10.0,1651091337712097.0
-3.0,2.0,2.0,0.0,1.0,14.0,-21.0,-12.0,1651091337733698.0
38.0,4.0,-2.0,2.0,1.0,-23.0,4.0,106.0,1651091337733698.0
8.0,0.0,-1.0,0.0,1.0,35.0,-13.0,27.0,1651091337734539.0
-2.0,0.0,0.0,-5.0,-10.0,1.0,25.0,-16.0,1651091337734539.0
-6.0,-2.0,0.0,3.0,5.0,1.0,2.0,-1.0,1651091337746829.0
-30.0,-6.0,-1.0,1.0,5.0,-13.0,-17.0,-76.0,1651091337746829.0
-8.0,-2.0,-2.0,-2.0,1.0,-24.0,-8.0,-22.0,1651091337763827.0
7.0,0.0,-4.0,-2.0,-4.0,10.0,8.0,16.0,1651091337763827.0
-5.0,-2.0,-1.0,-3.0,4.0,-1.0,1.0,-17.0,1651091337770788.0
3.0,0.0,1.0,6.0,5.0,-4.0,8.0,26.0,1651091337770788.0
0.0,-1.0,-3.0,1.0,-3.0,4.0,-10.0,-20.0,1651091337772657.0
0.0,0.0,0.0,-1.0,2.0,-7.0,10.0,-6.0,1651091337772657.0
11.0,0.0,-4.0,-8.0,-1.0,8.0,21.0,36.0,1651091337793343.0
-5.0,1.0,-2.0,0.0,-3.0,10.0,-4.0,-22.0,1651091337793343.0
-10.0,-2.0,4.0,3.0,-3.0,-10.0,-14.0,1.0,1651091337794340.0
-10.0,0.0,1.0,1.0,-2.0,-41.0,3.0,-19.0,1651091337794340.0
11.0,1.0,2.0,-3.0,4.0,19.0,6.0,1.0,1651091337806675.0
2.0,-2.0,-2.0,2.0,0.0,13.0,-22.0,6.0,1651091337806675.0
4.0,3.0,-2.0,-2.0,-5.0,-7.0,-15.0,-7.0,1651091337815834.0
-9.0,0.0,2.0,1.0,4.0,33.0,52.0,-17.0,1651091337815834.0
14.0,0.0,-3.0,-1.0,-1.0,22.0,7.0,75.0,1651091337831249.0
-3.0,-2.0,0.0,0.0,1.0,-16.0,4.0,-20.0,1651091337831249.0
-1.0,0.0,0.0,-4.0,1.0,10.0,-15.0,-8.0,1651091337832157.0
1.0,-1.0,-1.0,-2.0,-2.0,3.0,-25.0,4.0,1651091337832157.0
-9.0,-3.0,-3.0,-2.0,-5.0,-13.0,-15.0,-18.0,1651091337853622.0
-8.0,-4.0,-3.0,2.0,0.0,14.0,-1.0,-26.0,1651091337853622.0
1.0,-1.0,1.0,6.0,1.0,0.0,11.0,19.0,1651091337854463.0
9.0,2.0,1.0,-1.0,-2.0,-10.0,-9.0,9.0,1651091337854463.0
-4.0,-3.0,1.0,0.0,-5.0,-11.0,7.0,-19.0,1651091337866783.0
11.0,3.0,1.0,5.0,-3.0,18.0,21.0,43.0,1651091337866783.0
-18.0,-4.0,-1.0,-1.0,12.0,24.0,3.0,-50.0,1651091337875983.0
8.0,1.0,1.0,-5.0,-3.0,4.0,7.0,67.0,1651091337875983.0
11.0,1.0,0.0,-1.0,-5.0,-2.0,-31.0,-5.0,1651091337891252.0
-13.0,-5.0,-2.0,-1.0,-9.0,-27.0,9.0,-22.0,1651091337891252.0
-5.0,-2.0,-4.0,4.0,3.0,1.0,-29.0,-14.0,1651091337892147.0
11.0,1.0,-2.0,1.0,7.0,18.0,27.0,17.0,1651091337892147.0
8.0,4.0,2.0,-5.0,-2.0,12.0,-3.0,21.0,1651091337913774.0
2.0,2.0,3.0,-7.0,-3.0,14.0,-10.0,-11.0,1651091337913774.0
-12.0,-3.0,-1.0,-1.0,-9.0,-12.0,-10.0,-12.0,1651091337914616.0
0.0,-1.0,1.0,1.0,2.0,4.0,-8.0,-1.0,1651091337914616.0
-9.0,-3.0,-2.0,4.0,-3.0,-1.0,-6.0,-30.0,1651091337927092.0
-6.0,0.0,-1.0,-6.0,7.0,20.0,19.0,-14.0,1651091337927092.0
9.0,0.0,2.0,1.0,-6.0,-16.0,2.0,16.0,1651091337936111.0
2.0,-1.0,-4.0,-2.0,-1.0,-11.0,-19.0,-8.0,1651091337936111.0
-2.0,-3.0,-1.0,1.0,4.0,5.0,3.0,3.0,1651091337951272.0
-20.0,-2.0,-1.0,-3.0,-4.0,-8.0,1.0,-27.0,1651091337951272.0
2.0,0.0,-1.0,2.0,3.0,-6.0,18.0,-4.0,1651091337952100.0
13.0,-2.0,-4.0,0.0,-7.0,-9.0,-3.0,42.0,1651091337952100.0
-3.0,1.0,-1.0,-2.0,-9.0,3.0,14.0,-6.0,1651091337972391.0
-3.0,1.0,-1.0,-6.0,5.0,-27.0,-32.0,-24.0,1651091337972391.0
-26.0,-5.0,-2.0,-8.0,-2.0,-7.0,-12.0,-39.0,1651091337980573.0
27.0,2.0,1.0,5.0,2.0,20.0,31.0,65.0,1651091337980573.0
14.0,1.0,-1.0,-4.0,-2.0,-49.0,-2.0,26.0,1651091337987438.0
-12.0,-2.0,-1.0,0.0,6.0,14.0,12.0,-18.0,1651091337987438.0
14.0,1.0,1.0,1.0,1.0,7.0,12.0,17.0,1651091337995536.0
-12.0,1.0,0.0,-3.0,-4.0,-2.0,-32.0,-24.0,1651091337995536.0
-6.0,-2.0,-1.0,1.0,-1.0,5.0,-4.0,-2.0,1651091338011149.0
4.0,-2.0,-2.0,1.0,-3.0,-10.0,-5.0,12.0,1651091338011149.0
-12.0,-4.0,-3.0,-3.0,-1.0,24.0,24.0,-25.0,1651091338012149.0
-12.0,-2.0,0.0,-1.0,1.0,-23.0,-11.0,-16.0,1651091338012149.0
20.0,6.0,5.0,3.0,0.0,-3.0,13.0,28.0,1651091338040969.0
13.0,3.0,1.0,2.0,0.0,-4.0,-9.0,45.0,1651091338040969.0
4.0,1.0,0.0,-1.0,-7.0,-2.0,-3.0,12.0,1651091338041808.0
-11.0,-4.0,-2.0,-7.0,-2.0,4.0,2.0,-20.0,1651091338041808.0
-24.0,-6.0,-5.0,-3.0,1.0,6.0,-25.0,-59.0,1651091338046825.0
13.0,1.0,-2.0,5.0,-1.0,-14.0,16.0,26.0,1651091338046825.0
9.0,4.0,2.0,4.0,-5.0,-1.0,17.0,26.0,1651091338056010.0
-3.0,-1.0,0.0,-2.0,0.0,1.0,-8.0,-20.0,1651091338056010.0
-12.0,-3.0,-1.0,-2.0,0.0,-18.0,15.0,-5.0,1651091338071289.0
-10.0,-3.0,-2.0,4.0,0.0,39.0,-13.0,-23.0,1651091338071289.0
16.0,1.0,-1.0,3.0,4.0,6.0,4.0,49.0,1651091338072321.0
0.0,2.0,-2.0,-2.0,-4.0,3.0,-11.0,-23.0,1651091338072321.0
1.0,-1.0,3.0,-2.0,-3.0,-26.0,32.0,11.0,1651091338093718.0
-2.0,-2.0,-3.0,-5.0,-6.0,-21.0,-13.0,-8.0,1651091338093718.0
-7.0,-1.0,2.0,-2.0,2.0,19.0,20.0,-14.0,1651091338094570.0
5.0,1.0,0.0,-1.0,4.0,14.0,-13.0,29.0,1651091338094570.0
0.0,-1.0,-1.0,1.0,0.0,15.0,-9.0,10.0,1651091338115971.0
6.0,4.0,2.0,-6.0,4.0,-12.0,4.0,0.0,1651091338115971.0
9.0,2.0,-1.0,4.0,3.0,-24.0,-3.0,1.0,1651091338116836.0
-12.0,-4.0,-1.0,0.0,-5.0,7.0,-12.0,-37.0,1651091338116836.0
-3.0,0.0,-4.0,-3.0,-7.0,15.0,8.0,5.0,1651091338130298.0
-5.0,-1.0,-1.0,9.0,3.0,15.0,-9.0,-17.0,1651091338130298.0
-8.0,-3.0,-2.0,-10.0,-7.0,-35.0,-13.0,-13.0,1651091338132141.0
6.0,1.0,1.0,6.0,7.0,34.0,11.0,-3.0,1651091338132141.0
-2.0,-2.0,1.0,3.0,1.0,-10.0,7.0,5.0,1651091338153766.0
-1.0,-2.0,-2.0,-9.0,-2.0,-13.0,-18.0,-11.0,1651091338153766.0
2.0,-3.0,-3.0,0.0,0.0,8.0,4.0,4.0,1651091338154766.0
0.0,3.0,2.0,-2.0,3.0,0.0,4.0,-4.0,1651091338154766.0
-1.0,-1.0,-5.0,-8.0,0.0,5.0,-1.0,0.0,1651091338176089.0
-12.0,-2.0,1.0,9.0,-1.0,-1.0,-31.0,-23.0,1651091338176089.0
8.0,2.0,1.0,0.0,-5.0,-9.0,30.0,3.0,1651091338176974.0
-5.0,-4.0,-2.0,-2.0,3.0,-17.0,-8.0,26.0,1651091338176974.0
-7.0,-2.0,-2.0,4.0,0.0,15.0,1.0,-30.0,1651091338191080.0
15.0,3.0,3.0,-8.0,0.0,18.0,-10.0,-3.0,1651091338191080.0
7.0,1.0,-1.0,-1.0,-1.0,6.0,8.0,2.0,1651091338191934.0
-2.0,1.0,-1.0,3.0,-3.0,8.0,0.0,15.0,1651091338191934.0
1.0,-3.0,0.0,1.0,7.0,-47.0,-18.0,12.0,1651091338213766.0
-13.0,-5.0,-1.0,2.0,-3.0,1.0,15.0,-10.0,1651091338213766.0
-5.0,1.0,1.0,-7.0,4.0,-16.0,-18.0,-5.0,1651091338215139.0
1.0,-2.0,-2.0,1.0,-7.0,1.0,32.0,-40.0,1651091338215139.0
13.0,5.0,3.0,4.0,8.0,1.0,23.0,32.0,1651091338235732.0
-11.0,0.0,0.0,-2.0,-11.0,-12.0,-10.0,-20.0,1651091338235732.0
-9.0,-4.0,-5.0,0.0,8.0,27.0,-5.0,-22.0,1651091338237569.0
9.0,-1.0,-3.0,-1.0,-3.0,-33.0,-15.0,43.0,1651091338237569.0
-18.0,-5.0,-3.0,-6.0,-4.0,-10.0,-34.0,-46.0,1651091338250874.0
10.0,0.0,-2.0,3.0,-1.0,23.0,43.0,41.0,1651091338250874.0
-2.0,1.0,3.0,7.0,-2.0,9.0,-5.0,-9.0,1651091338252716.0
-7.0,-1.0,0.0,4.0,-1.0,-5.0,-11.0,-22.0,1651091338252716.0
2.0,1.0,2.0,-3.0,-4.0,14.0,-9.0,2.0,1651091338273838.0
2.0,-1.0,-3.0,-7.0,0.0,-27.0,4.0,17.0,1651091338273838.0
-6.0,-3.0,-2.0,2.0,2.0,2.0,-7.0,5.0,1651091338274837.0
-7.0,-3.0,-3.0,2.0,1.0,8.0,-6.0,-17.0,1651091338274837.0
-11.0,0.0,2.0,3.0,-14.0,-8.0,-6.0,-30.0,1651091338296291.0
-7.0,-3.0,-2.0,0.0,5.0,-18.0,-13.0,-28.0,1651091338296291.0
38.0,5.0,1.0,-4.0,-3.0,18.0,47.0,72.0,1651091338297266.0
10.0,0.0,0.0,0.0,1.0,-5.0,21.0,29.0,1651091338297266.0
4.0,5.0,5.0,2.0,6.0,-32.0,-4.0,3.0,1651091338318724.0
-13.0,-4.0,-1.0,-2.0,-5.0,-13.0,-16.0,-23.0,1651091338318724.0
-16.0,-3.0,-1.0,0.0,-2.0,9.0,19.0,-31.0,1651091338319371.0
-18.0,-4.0,-2.0,0.0,7.0,-9.0,-10.0,-36.0,1651091338319371.0
28.0,5.0,-1.0,-3.0,3.0,40.0,17.0,69.0,1651091338333777.0
9.0,2.0,-1.0,-6.0,-5.0,-17.0,-2.0,15.0,1651091338333777.0
-5.0,-2.0,-1.0,9.0,2.0,-9.0,-34.0,3.0,1651091338334742.0
-4.0,-2.0,1.0,-8.0,-10.0,12.0,-6.0,-17.0,1651091338334742.0
-11.0,-3.0,-1.0,1.0,-1.0,6.0,-14.0,-37.0,1651091338356129.0
11.0,0.0,-2.0,4.0,11.0,5.0,0.0,31.0,1651091338356129.0
5.0,0.0,0.0,-5.0,-6.0,-5.0,-3.0,15.0,1651091338357033.0
-2.0,-3.0,-5.0,-4.0,4.0,33.0,9.0,-2.0,1651091338357033.0
-3.0,2.0,5.0,11.0,1.0,10.0,10.0,0.0,1651091338370447.0
-2.0,-2.0,0.0,-5.0,-4.0,8.0,-17.0,-11.0,1651091338370447.0
-6.0,-1.0,-3.0,-6.0,-2.0,-21.0,-38.0,-4.0,1651091338376434.0
-19.0,-3.0,2.0,5.0,8.0,-13.0,8.0,-27.0,1651091338376434.0
25.0,2.0,-4.0,4.0,-7.0,27.0,40.0,52.0,1651091338392718.0
7.0,1.0,0.0,-3.0,1.0,20.0,5.0,-3.0,1651091338392718.0
-10.0,0.0,0.0,0.0,-2.0,-10.0,9.0,-11.0,1651091338394715.0
8.0,2.0,2.0,1.0,-1.0,-15.0,10.0,38.0,1651091338394715.0
-10.0,-5.0,-3.0,-4.0,0.0,-9.0,-34.0,-18.0,1651091338415794.0
-11.0,-1.0,0.0,3.0,-4.0,4.0,0.0,-14.0,1651091338415794.0
-5.0,-4.0,-2.0,-5.0,-1.0,0.0,-3.0,-33.0,1651091338417653.0
20.0,8.0,4.0,-2.0,1.0,-5.0,-18.0,76.0,1651091338417653.0
2.0,-5.0,-4.0,-2.0,3.0,13.0,15.0,39.0,1651091338429811.0
6.0,0.0,-1.0,-2.0,-3.0,-6.0,-1.0,15.0,1651091338429811.0
-10.0,-4.0,-3.0,0.0,-3.0,-13.0,-9.0,-21.0,1651091338436957.0
-6.0,3.0,6.0,4.0,-1.0,1.0,-3.0,-28.0,1651091338436957.0
-2.0,-3.0,0.0,-2.0,3.0,-8.0,-13.0,-11.0,1651091338453462.0
-1.0,0.0,-1.0,-4.0,4.0,-12.0,22.0,1.0,1651091338453462.0
-4.0,-3.0,-4.0,8.0,4.0,13.0,-39.0,9.0,1651091338454339.0
1.0,-2.0,-4.0,4.0,-11.0,-1.0,7.0,-14.0,1651091338454339.0
1.0,0.0,-1.0,-1.0,-2.0,-3.0,3.0,-7.0,1651091338476101.0
-4.0,-2.0,1.0,-1.0,-17.0,-10.0,-2.0,-5.0,1651091338476101.0
3.0,4.0,1.0,2.0,76.0,7.0,8.0,4.0,1651091338476953.0
4.0,0.0,-1.0,-12.0,-18.0,-4.0,-1.0,-3.0,1651091338476953.0
-4.0,-1.0,-1.0,8.0,14.0,-3.0,-12.0,-18.0,1651091338490282.0
-5.0,-5.0,-5.0,-9.0,-12.0,6.0,1.0,6.0,1651091338490282.0
2.0,1.0,-2.0,-3.0,-53.0,0.0,5.0,9.0,1651091338497266.0
1.0,3.0,5.0,-1.0,-16.0,-6.0,-1.0,-8.0,1651091338497266.0
-4.0,-2.0,-4.0,-10.0,4.0,-8.0,8.0,-4.0,1651091338513740.0
0.0,0.0,3.0,14.0,45.0,13.0,-4.0,-3.0,1651091338513740.0
5.0,-2.0,2.0,1.0,-13.0,6.0,13.0,11.0,1651091338520655.0
-2.0,-1.0,-4.0,-6.0,3.0,-6.0,-3.0,-14.0,1651091338520655.0
-4.0,-2.0,-1.0,-1.0,-24.0,-2.0,-3.0,-8.0,1651091338536930.0
0.0,-2.0,-3.0,-2.0,24.0,-4.0,1.0,0.0,1651091338536930.0
-3.0,0.0,-1.0,-4.0,13.0,-1.0,-3.0,14.0,1651091338537771.0
-1.0,1.0,3.0,10.0,-7.0,2.0,0.0,0.0,1651091338537771.0
-1.0,-4.0,-5.0,-11.0,-37.0,-4.0,-3.0,1.0,1651091338550305.0
0.0,-2.0,-1.0,2.0,13.0,0.0,3.0,-6.0,1651091338550305.0
0.0,-1.0,5.0,-5.0,0.0,-2.0,7.0,3.0,1651091338564769.0
-3.0,-3.0,-3.0,-2.0,23.0,1.0,1.0,-7.0,1651091338564769.0
-1.0,1.0,0.0,3.0,-24.0,-1.0,1.0,-2.0,1651091338572581.0
-2.0,-2.0,-2.0,-2.0,2.0,-1.0,-4.0,-2.0,1651091338572581.0
-1.0,-1.0,-1.0,-8.0,-38.0,-7.0,-4.0,-5.0,1651091338574545.0
3.0,0.0,0.0,4.0,61.0,-1.0,1.0,1.0,1651091338574545.0
-2.0,0.0,2.0,11.0,52.0,6.0,-1.0,-6.0,1651091338595643.0
2.0,1.0,-1.0,-9.0,-51.0,-3.0,1.0,5.0,1651091338595643.0
-1.0,0.0,-2.0,0.0,5.0,-3.0,0.0,-1.0,1651091338597508.0
0.0,-2.0,1.0,2.0,-58.0,3.0,1.0,2.0,1651091338597508.0
-1.0,1.0,1.0,2.0,-32.0,-1.0,1.0,-3.0,1651091338609566.0
1.0,2.0,3.0,6.0,24.0,6.0,0.0,4.0,1651091338609566.0
0.0,-3.0,-4.0,-5.0,-44.0,-4.0,2.0,1.0,1651091338618958.0
-3.0,-2.0,-3.0,-4.0,-3.0,-7.0,-5.0,-8.0,1651091338618958.0
-3.0,0.0,0.0,1.0,45.0,2.0,0.0,-1.0,1651091338633537.0
1.0,1.0,-3.0,-2.0,-28.0,-3.0,0.0,4.0,1651091338633537.0
-1.0,-6.0,-5.0,-4.0,-65.0,-3.0,0.0,-4.0,1651091338635070.0
0.0,1.0,-1.0,-7.0,-30.0,-4.0,-1.0,-2.0,1651091338635070.0
0.0,1.0,2.0,12.0,74.0,5.0,-1.0,0.0,1651091338657236.0
1.0,0.0,2.0,2.0,21.0,5.0,2.0,4.0,1651091338657236.0
0.0,-2.0,-2.0,-2.0,-17.0,0.0,0.0,-1.0,1651091338658234.0
-1.0,-1.0,-1.0,1.0,18.0,-1.0,-2.0,-1.0,1651091338658234.0
-1.0,-3.0,-1.0,-10.0,-40.0,-5.0,-1.0,-1.0,1651091338669419.0
-3.0,-3.0,1.0,-2.0,-27.0,-3.0,-2.0,-2.0,1651091338669419.0
1.0,1.0,5.0,12.0,66.0,8.0,3.0,1.0,1651091338678204.0
0.0,-1.0,-4.0,-10.0,-55.0,-2.0,1.0,0.0,1651091338678204.0
-2.0,-1.0,-4.0,-1.0,24.0,-4.0,-3.0,-4.0,1651091338693732.0
0.0,2.0,2.0,14.0,27.0,8.0,3.0,1.0,1651091338693732.0
-2.0,-3.0,-5.0,-12.0,-58.0,-6.0,-3.0,-2.0,1651091338694572.0
3.0,3.0,5.0,16.0,116.0,6.0,2.0,0.0,1651091338694572.0
1.0,1.0,0.0,-9.0,-16.0,-5.0,-3.0,-1.0,1651091338715642.0
-2.0,-3.0,-5.0,-9.0,-57.0,0.0,-1.0,1.0,1651091338715642.0
2.0,0.0,2.0,9.0,103.0,7.0,2.0,-1.0,1651091338717533.0
-1.0,-3.0,-3.0,-11.0,-70.0,-10.0,-3.0,-2.0,1651091338717533.0
-1.0,-1.0,-2.0,-1.0,-14.0,-2.0,-4.0,-1.0,1651091338729689.0
1.0,3.0,5.0,-1.0,67.0,1.0,0.0,1.0,1651091338729689.0
-1.0,-1.0,0.0,-3.0,-36.0,0.0,1.0,0.0,1651091338738826.0
0.0,-1.0,1.0,-1.0,-72.0,1.0,1.0,-1.0,1651091338738826.0
0.0,-2.0,2.0,9.0,33.0,4.0,2.0,0.0,1651091338753749.0
-1.0,-1.0,-2.0,3.0,-26.0,-3.0,-1.0,1.0,1651091338753749.0
0.0,1.0,0.0,-3.0,9.0,-2.0,0.0,-1.0,1651091338755028.0
-1.0,-3.0,-5.0,-2.0,-1.0,-4.0,-2.0,-2.0,1651091338755028.0
-1.0,-1.0,-2.0,-6.0,-43.0,-2.0,0.0,-1.0,1651091338774267.0
1.0,-1.0,-1.0,0.0,35.0,3.0,-1.0,-1.0,1651091338774267.0
0.0,2.0,3.0,7.0,15.0,3.0,0.0,0.0,1651091338783245.0
-1.0,-2.0,0.0,5.0,35.0,1.0,-1.0,0.0,1651091338783245.0
-1.0,0.0,-1.0,-2.0,-8.0,-4.0,1.0,-3.0,1651091338789548.0
-2.0,-3.0,-4.0,-16.0,-34.0,-7.0,-2.0,0.0,1651091338789548.0
0.0,0.0,1.0,19.0,53.0,3.0,1.0,1.0,1651091338797967.0
-2.0,-2.0,-1.0,-4.0,26.0,-1.0,-1.0,1.0,1651091338797967.0
0.0,-3.0,-2.0,1.0,-16.0,-1.0,-1.0,-2.0,1651091338813672.0
2.0,5.0,6.0,-2.0,-2.0,0.0,0.0,2.0,1651091338813672.0
-1.0,-1.0,-2.0,-9.0,-26.0,-5.0,-2.0,-1.0,1651091338815069.0
-2.0,-5.0,-5.0,2.0,5.0,0.0,0.0,-3.0,1651091338815069.0
2.0,0.0,0.0,0.0,15.0,0.0,0.0,1.0,1651091338835663.0
-1.0,-2.0,-1.0,2.0,26.0,3.0,2.0,0.0,1651091338835663.0
1.0,2.0,3.0,-8.0,-5.0,-2.0,0.0,-1.0,1651091338837509.0
-3.0,1.0,0.0,5.0,25.0,-1.0,-1.0,1.0,1651091338837509.0
-2.0,-2.0,-5.0,-4.0,-20.0,-1.0,-1.0,-2.0,1651091338849656.0
0.0,0.0,-1.0,2.0,-41.0,-2.0,0.0,-1.0,1651091338849656.0
0.0,1.0,-1.0,-5.0,1.0,-3.0,1.0,-1.0,1651091338882398.0
1.0,0.0,1.0,3.0,19.0,-1.0,1.0,-1.0,1651091338882398.0
-2.0,-1.0,1.0,-2.0,-15.0,-1.0,1.0,1.0,1651091338883396.0
-2.0,-1.0,-5.0,4.0,-14.0,0.0,1.0,0.0,1651091338883396.0
0.0,-1.0,-2.0,3.0,7.0,-2.0,0.0,-2.0,1651091338886387.0
1.0,-1.0,-1.0,-4.0,2.0,-2.0,-1.0,1.0,1651091338886387.0
0.0,5.0,3.0,3.0,-12.0,2.0,0.0,1.0,1651091338895514.0
0.0,1.0,2.0,4.0,1.0,2.0,0.0,0.0,1651091338895514.0
-1.0,0.0,-3.0,-1.0,-9.0,5.0,0.0,0.0,1651091338897358.0
-3.0,-2.0,-2.0,-5.0,-32.0,-1.0,-3.0,-1.0,1651091338897358.0
0.0,0.0,0.0,-4.0,33.0,0.0,-2.0,0.0,1651091338909326.0
1.0,-2.0,0.0,2.0,-7.0,1.0,0.0,-2.0,1651091338909326.0
1.0,-2.0,0.0,0.0,-13.0,-1.0,-2.0,-1.0,1651091338918302.0
-1.0,-1.0,-3.0,-7.0,13.0,0.0,0.0,0.0,1651091338918302.0
0.0,-2.0,-2.0,6.0,4.0,0.0,-1.0,-2.0,1651091338933602.0
0.0,0.0,-1.0,1.0,-18.0,0.0,-2.0,1.0,1651091338933602.0
-2.0,-2.0,1.0,-4.0,-50.0,-4.0,0.0,-1.0,1651091338934460.0
0.0,2.0,1.0,-4.0,84.0,6.0,1.0,1.0,1651091338934460.0
-1.0,-4.0,0.0,-5.0,-32.0,0.0,1.0,1.0,1651091338955915.0
0.0,-4.0,0.0,0.0,30.0,-2.0,-1.0,0.0,1651091338955915.0
-1.0,-4.0,-4.0,2.0,-48.0,1.0,-1.0,-2.0,1651091338956756.0
-1.0,3.0,1.0,8.0,25.0,0.0,0.0,0.0,1651091338956756.0
0.0,3.0,3.0,-5.0,8.0,0.0,0.0,0.0,1651091338968959.0
0.0,-1.0,-4.0,-4.0,3.0,-3.0,-1.0,-2.0,1651091338968959.0
-1.0,0.0,1.0,0.0,11.0,-1.0,-1.0,0.0,1651091338978099.0
0.0,-1.0,-1.0,-2.0,-35.0,-2.0,-1.0,0.0,1651091338978099.0
-2.0,0.0,-2.0,-3.0,18.0,0.0,0.0,0.0,1651091338992941.0
-1.0,0.0,1.0,-2.0,-15.0,-1.0,-2.0,-2.0,1651091338992941.0
0.0,-1.0,-2.0,1.0,42.0,0.0,-1.0,-1.0,1651091338994954.0
-1.0,-1.0,1.0,3.0,-40.0,-4.0,-1.0,-3.0,1651091338994954.0
0.0,-2.0,2.0,3.0,38.0,2.0,0.0,0.0,1651091339016303.0
-1.0,-2.0,-4.0,-7.0,-55.0,-3.0,-2.0,0.0,1651091339016303.0
0.0,-1.0,0.0,3.0,45.0,-1.0,0.0,-1.0,1651091339017267.0
0.0,-1.0,2.0,3.0,-8.0,1.0,1.0,-1.0,1651091339017267.0
0.0,-3.0,-3.0,-6.0,-25.0,-4.0,-1.0,0.0,1651091339029713.0
0.0,0.0,-2.0,-2.0,-10.0,-2.0,-1.0,-1.0,1651091339029713.0
0.0,2.0,-1.0,5.0,61.0,3.0,-1.0,2.0,1651091339038030.0
0.0,-1.0,-1.0,-2.0,-24.0,-4.0,-1.0,-2.0,1651091339038030.0
1.0,0.0,-2.0,-2.0,-21.0,0.0,-1.0,-1.0,1651091339053356.0
1.0,2.0,3.0,2.0,7.0,0.0,1.0,0.0,1651091339053356.0
-1.0,-3.0,-4.0,-1.0,-28.0,2.0,0.0,1.0,1651091339054233.0
-1.0,-2.0,0.0,0.0,0.0,-2.0,0.0,0.0,1651091339054233.0
0.0,-1.0,-1.0,6.0,27.0,0.0,0.0,1.0,1651091339075555.0
1.0,-2.0,-2.0,-1.0,15.0,1.0,-1.0,-1.0,1651091339075555.0
-2.0,1.0,-2.0,-5.0,-13.0,-4.0,-3.0,-1.0,1651091339077549.0
-2.0,-2.0,-1.0,-1.0,-12.0,1.0,0.0,1.0,1651091339077549.0
-1.0,0.0,1.0,6.0,-13.0,4.0,1.0,-2.0,1651091339098593.0
1.0,0.0,0.0,7.0,33.0,-1.0,2.0,0.0,1651091339098593.0
0.0,-2.0,2.0,-2.0,-8.0,-1.0,1.0,1.0,1651091339099594.0
0.0,-1.0,-3.0,-5.0,-5.0,0.0,-1.0,0.0,1651091339099594.0
-1.0,-4.0,-4.0,-9.0,-28.0,-4.0,-1.0,0.0,1651091339113562.0
0.0,-2.0,3.0,5.0,54.0,1.0,0.0,0.0,1651091339113562.0
0.0,-1.0,-5.0,-4.0,15.0,0.0,0.0,-1.0,1651091339121395.0
1.0,2.0,3.0,6.0,-19.0,0.0,-1.0,-1.0,1651091339121395.0
1.0,1.0,3.0,-3.0,-13.0,-1.0,0.0,0.0,1651091339135536.0
-3.0,-4.0,-6.0,-6.0,-1.0,-3.0,-1.0,-2.0,1651091339135536.0
-2.0,0.0,1.0,2.0,-13.0,2.0,1.0,1.0,1651091339137394.0
1.0,-1.0,-1.0,1.0,-14.0,2.0,0.0,-2.0,1651091339137394.0
0.0,0.0,-1.0,2.0,43.0,1.0,-1.0,-1.0,1651091339158375.0
0.0,1.0,0.0,-2.0,-27.0,0.0,-1.0,-1.0,1651091339158375.0
-1.0,-2.0,0.0,-1.0,13.0,-1.0,-1.0,-1.0,1651091339159373.0
1.0,0.0,-2.0,2.0,5.0,-1.0,-2.0,-1.0,1651091339159373.0
-2.0,0.0,3.0,3.0,-6.0,-2.0,-1.0,-1.0,1651091339173708.0
-1.0,1.0,3.0,1.0,-19.0,2.0,0.0,0.0,1651091339173708.0
-2.0,1.0,-1.0,-5.0,12.0,-2.0,-1.0,-2.0,1651091339174556.0
0.0,-2.0,0.0,-3.0,2.0,-3.0,1.0,0.0,1651091339174556.0
2.0,1.0,0.0,5.0,45.0,4.0,1.0,1.0,1651091339195969.0
-1.0,-3.0,-3.0,-2.0,-2.0,-2.0,2.0,1.0,1651091339195969.0
0.0,3.0,0.0,-1.0,-26.0,-3.0,-2.0,-1.0,1651091339196814.0
-1.0,1.0,1.0,0.0,3.0,0.0,0.0,-1.0,1651091339196814.0
-2.0,-3.0,-5.0,-7.0,-20.0,2.0,1.0,-2.0,1651091339218470.0
1.0,1.0,0.0,-1.0,-17.0,-3.0,-1.0,0.0,1651091339218470.0
0.0,0.0,-1.0,4.0,8.0,1.0,-1.0,0.0,1651091339219470.0
0.0,-2.0,0.0,-6.0,-6.0,-2.0,0.0,0.0,1651091339219470.0
0.0,1.0,3.0,6.0,6.0,3.0,0.0,0.0,1651091339232640.0
-1.0,-2.0,-4.0,-10.0,3.0,1.0,0.0,0.0,1651091339232640.0
0.0,-1.0,1.0,2.0,-20.0,-3.0,0.0,-1.0,1651091339239753.0
0.0,0.0,0.0,-1.0,1.0,-1.0,-2.0,-1.0,1651091339239753.0
-2.0,-1.0,-2.0,-2.0,-15.0,-2.0,-1.0,-2.0,1651091339256202.0
-1.0,-1.0,0.0,0.0,2.0,1.0,-1.0,0.0,1651091339256202.0
1.0,0.0,0.0,-2.0,-32.0,-1.0,-2.0,0.0,1651091339257053.0
-2.0,-2.0,-3.0,-2.0,26.0,0.0,1.0,-2.0,1651091339257053.0
0.0,0.0,0.0,2.0,-10.0,1.0,0.0,1.0,1651091339279166.0
0.0,0.0,1.0,-1.0,3.0,-2.0,0.0,0.0,1651091339279166.0
-1.0,0.0,-1.0,0.0,9.0,-1.0,-1.0,-1.0,1651091339284387.0
0.0,2.0,3.0,-2.0,-10.0,-1.0,-1.0,0.0,1651091339284387.0
-3.0,-2.0,-2.0,-8.0,-3.0,-5.0,-2.0,-3.0,1651091339292390.0
1.0,0.0,0.0,10.0,-8.0,5.0,0.0,0.0,1651091339292390.0
-2.0,-1.0,-3.0,-3.0,-11.0,-2.0,-2.0,-1.0,1651091339299521.0
1.0,0.0,-2.0,-2.0,16.0,0.0,-1.0,-2.0,1651091339299521.0
0.0,1.0,1.0,7.0,5.0,-2.0,1.0,1.0,1651091339316698.0
0.0,-2.0,4.0,8.0,9.0,3.0,-1.0,0.0,1651091339316698.0
0.0,-1.0,-3.0,-7.0,2.0,-1.0,0.0,0.0,1651091339317577.0
-1.0,0.0,-3.0,-1.0,-3.0,-2.0,0.0,-1.0,1651091339317577.0
-1.0,-2.0,-3.0,-5.0,-29.0,-1.0,-2.0,2.0,1651091339338749.0
0.0,-2.0,-3.0,1.0,17.0,-2.0,-2.0,-2.0,1651091339338749.0
-1.0,0.0,0.0,0.0,4.0,0.0,2.0,-2.0,1651091339339741.0
-1.0,-1.0,1.0,3.0,-7.0,1.0,0.0,2.0,1651091339339741.0
-1.0,-3.0,-4.0,-3.0,-5.0,-3.0,-2.0,-2.0,1651091339352887.0
-1.0,2.0,1.0,0.0,3.0,-1.0,-1.0,-1.0,1651091339352887.0
0.0,0.0,5.0,-9.0,-12.0,-3.0,1.0,-1.0,1651091339359768.0
-2.0,-1.0,-3.0,0.0,-20.0,-1.0,-1.0,-1.0,1651091339359768.0
-1.0,1.0,1.0,10.0,51.0,6.0,0.0,0.0,1651091339376025.0
-2.0,-2.0,-2.0,-4.0,6.0,1.0,0.0,-2.0,1651091339376025.0
-1.0,0.0,-1.0,2.0,-2.0,1.0,0.0,-1.0,1651091339377023.0
0.0,2.0,0.0,-7.0,-29.0,-1.0,-1.0,-1.0,1651091339377023.0
0.0,-2.0,-3.0,1.0,23.0,-2.0,1.0,0.0,1651091339398743.0
-1.0,-1.0,1.0,2.0,-6.0,0.0,-1.0,-1.0,1651091339398743.0
1.0,-1.0,-1.0,0.0,-4.0,-1.0,-3.0,-2.0,1651091339399317.0
0.0,-2.0,-2.0,-2.0,5.0,-3.0,-2.0,0.0,1651091339399317.0
-1.0,1.0,-1.0,-10.0,-42.0,-3.0,0.0,0.0,1651091339412482.0
-1.0,2.0,1.0,4.0,59.0,3.0,1.0,0.0,1651091339412482.0
-1.0,-2.0,-1.0,-2.0,-2.0,-1.0,1.0,-1.0,1651091339419615.0
0.0,-1.0,2.0,6.0,18.0,1.0,-3.0,-1.0,1651091339419615.0
0.0,-1.0,-2.0,-3.0,-15.0,-4.0,-1.0,-1.0,1651091339435936.0
1.0,0.0,-3.0,-5.0,-23.0,-2.0,-1.0,0.0,1651091339435936.0
1.0,-2.0,-2.0,1.0,3.0,1.0,0.0,0.0,1651091339436804.0
-1.0,-3.0,-2.0,1.0,5.0,0.0,-1.0,0.0,1651091339436804.0
0.0,1.0,2.0,-1.0,10.0,-1.0,-1.0,0.0,1651091339458070.0
0.0,2.0,0.0,3.0,-24.0,2.0,1.0,0.0,1651091339458070.0
0.0,1.0,-1.0,-6.0,17.0,-1.0,-2.0,-1.0,1651091339460096.0
-1.0,1.0,-3.0,-6.0,-3.0,2.0,1.0,-1.0,1651091339460096.0
1.0,-3.0,-2.0,6.0,-21.0,-1.0,-2.0,0.0,1651091339473093.0
-1.0,-3.0,-3.0,-7.0,-12.0,-4.0,0.0,0.0,1651091339473093.0
0.0,1.0,4.0,6.0,16.0,2.0,0.0,0.0,1651091339479362.0
0.0,-1.0,-2.0,1.0,-3.0,-1.0,0.0,-1.0,1651091339479362.0
0.0,-2.0,0.0,-1.0,13.0,2.0,0.0,0.0,1651091339495665.0
-1.0,0.0,0.0,-2.0,-20.0,-3.0,-2.0,-1.0,1651091339495665.0
0.0,2.0,0.0,0.0,21.0,1.0,-1.0,0.0,1651091339497503.0
-1.0,-1.0,3.0,0.0,-3.0,-1.0,-1.0,0.0,1651091339497503.0
0.0,1.0,0.0,-2.0,-13.0,-2.0,-3.0,-2.0,1651091339518823.0
-2.0,0.0,1.0,4.0,38.0,3.0,1.0,0.0,1651091339518823.0
0.0,-3.0,-4.0,1.0,-13.0,-2.0,1.0,0.0,1651091339519833.0
1.0,3.0,4.0,-4.0,9.0,-2.0,1.0,0.0,1651091339519833.0
-1.0,0.0,-3.0,-1.0,-5.0,-2.0,-1.0,-2.0,1651091339533074.0
0.0,0.0,2.0,1.0,-8.0,-1.0,0.0,-2.0,1651091339533074.0
-1.0,-3.0,-3.0,0.0,-9.0,1.0,-2.0,-1.0,1651091339539930.0
0.0,-1.0,-1.0,2.0,4.0,1.0,1.0,0.0,1651091339539930.0
-2.0,-1.0,1.0,-1.0,9.0,0.0,-1.0,0.0,1651091339556257.0
-2.0,0.0,-2.0,2.0,12.0,0.0,-1.0,-1.0,1651091339556257.0
0.0,-1.0,-1.0,-3.0,16.0,4.0,1.0,-1.0,1651091339557095.0
0.0,-3.0,-2.0,-3.0,-5.0,-2.0,-1.0,0.0,1651091339557095.0
0.0,0.0,2.0,4.0,-7.0,0.0,-1.0,0.0,1651091339578530.0
-1.0,-2.0,-1.0,-5.0,-23.0,-3.0,0.0,-2.0,1651091339578530.0
-2.0,-3.0,-2.0,4.0,6.0,-2.0,-2.0,0.0,1651091339584537.0
-2.0,-1.0,0.0,0.0,-29.0,4.0,-1.0,0.0,1651091339584537.0
-2.0,0.0,1.0,-6.0,-11.0,0.0,0.0,-1.0,1651091339591361.0
0.0,-4.0,-4.0,-6.0,17.0,-3.0,-1.0,0.0,1651091339591361.0
1.0,2.0,2.0,1.0,-13.0,-3.0,0.0,-1.0,1651091339600685.0
-1.0,4.0,7.0,4.0,17.0,1.0,-1.0,0.0,1651091339600685.0
0.0,0.0,-3.0,-2.0,0.0,1.0,0.0,-1.0,1651091339615822.0
0.0,-1.0,-1.0,0.0,-24.0,-2.0,-3.0,1.0,1651091339615822.0
-3.0,-2.0,-4.0,-2.0,7.0,1.0,-1.0,1.0,1651091339616832.0
0.0,-1.0,-2.0,2.0,12.0,0.0,-1.0,0.0,1651091339616832.0
-2.0,1.0,0.0,-5.0,-14.0,-1.0,-2.0,-1.0,1651091339638776.0
1.0,1.0,-3.0,-1.0,32.0,2.0,0.0,-1.0,1651091339638776.0
0.0,-1.0,2.0,3.0,-18.0,-2.0,0.0,-2.0,1651091339640116.0
1.0,1.0,0.0,2.0,-2.0,-1.0,0.0,-1.0,1651091339640116.0
0.0,-1.0,1.0,-2.0,16.0,-1.0,-1.0,1.0,1651091339652386.0
-1.0,-1.0,-2.0,-5.0,-18.0,0.0,-1.0,-1.0,1651091339652386.0
1.0,0.0,-1.0,-2.0,17.0,1.0,-1.0,0.0,1651091339661170.0
0.0,-2.0,-1.0,5.0,-33.0,-1.0,-2.0,-1.0,1651091339661170.0
-1.0,-4.0,-4.0,-7.0,23.0,-2.0,-2.0,-1.0,1651091339676365.0
-2.0,1.0,2.0,5.0,-22.0,2.0,0.0,-1.0,1651091339676365.0
0.0,3.0,2.0,1.0,4.0,0.0,1.0,0.0,1651091339677368.0
-1.0,0.0,-4.0,-4.0,10.0,-2.0,-2.0,0.0,1651091339677368.0
1.0,0.0,1.0,3.0,-16.0,-2.0,0.0,0.0,1651091339706014.0
0.0,0.0,-2.0,0.0,5.0,1.0,-1.0,1.0,1651091339706014.0
-1.0,0.0,-2.0,-9.0,-26.0,-2.0,-1.0,0.0,1651091339706865.0
-2.0,-2.0,-3.0,4.0,11.0,-2.0,0.0,-2.0,1651091339706865.0
0.0,2.0,1.0,1.0,38.0,2.0,1.0,1.0,1651091339711877.0
0.0,-2.0,1.0,-1.0,-20.0,-4.0,0.0,-1.0,1651091339711877.0
0.0,-1.0,0.0,-4.0,5.0,1.0,-1.0,-1.0,1651091339721461.0
0.0,0.0,0.0,3.0,23.0,4.0,0.0,1.0,1651091339721461.0
0.0,0.0,0.0,-1.0,9.0,1.0,1.0,-4.0,1651091339735695.0
0.0,-2.0,1.0,-3.0,-3.0,0.0,-2.0,2.0,1651091339735695.0
-1.0,-2.0,-3.0,3.0,12.0,-2.0,-1.0,-1.0,1651091339737532.0
-2.0,-3.0,-2.0,-4.0,-18.0,0.0,-1.0,-1.0,1651091339737532.0
-1.0,-1.0,-1.0,2.0,-7.0,-2.0,-1.0,2.0,1651091339757869.0
1.0,2.0,0.0,6.0,3.0,-2.0,1.0,-2.0,1651091339757869.0
-1.0,0.0,4.0,-2.0,-3.0,-1.0,-1.0,-1.0,1651091339759797.0
0.0,-2.0,-4.0,-3.0,12.0,-3.0,-1.0,0.0,1651091339759797.0
0.0,2.0,-3.0,-6.0,-19.0,3.0,0.0,-1.0,1651091339772171.0
0.0,-1.0,-2.0,-5.0,20.0,-4.0,-1.0,0.0,1651091339772171.0
-1.0,-1.0,1.0,7.0,-8.0,1.0,2.0,0.0,1651091339781458.0
0.0,0.0,1.0,-4.0,-14.0,-1.0,-1.0,-1.0,1651091339781458.0
0.0,-4.0,1.0,6.0,-3.0,-1.0,-1.0,-1.0,1651091339795634.0
0.0,1.0,-1.0,-2.0,14.0,0.0,-6.0,-1.0,1651091339795634.0
1.0,1.0,-1.0,3.0,-5.0,-3.0,1.0,-1.0,1651091339797502.0
0.0,4.0,2.0,-3.0,7.0,4.0,3.0,1.0,1651091339797502.0
-2.0,1.0,-2.0,0.0,-19.0,0.0,2.0,-1.0,1651091339818413.0
0.0,0.0,1.0,1.0,-2.0,3.0,3.0,0.0,1651091339818413.0
-1.0,-1.0,-3.0,-5.0,-3.0,-2.0,-4.0,-1.0,1651091339819413.0
-1.0,0.0,-1.0,-3.0,-7.0,-5.0,-1.0,-1.0,1651091339819413.0
-1.0,-1.0,1.0,8.0,39.0,-2.0,-2.0,0.0,1651091339831732.0
-1.0,-2.0,-1.0,-2.0,-15.0,-2.0,-4.0,-3.0,1651091339831732.0
0.0,0.0,4.0,-3.0,-47.0,-1.0,4.0,0.0,1651091339840749.0
0.0,1.0,-1.0,1.0,0.0,0.0,1.0,-2.0,1651091339840749.0
-2.0,1.0,-2.0,-5.0,-6.0,-1.0,-1.0,0.0,1651091339855871.0
-2.0,-2.0,0.0,0.0,0.0,-2.0,0.0,0.0,1651091339855871.0
-1.0,-3.0,-2.0,-5.0,-10.0,-2.0,-3.0,-2.0,1651091339856731.0
0.0,-1.0,-1.0,-2.0,-18.0,-1.0,-2.0,-2.0,1651091339856731.0
0.0,1.0,2.0,6.0,30.0,3.0,0.0,-1.0,1651091339877848.0
0.0,1.0,-1.0,-2.0,29.0,-1.0,3.0,0.0,1651091339877848.0
-1.0,0.0,0.0,-2.0,-1.0,0.0,0.0,0.0,1651091339879858.0
-1.0,-2.0,0.0,2.0,4.0,-3.0,-2.0,-1.0,1651091339879858.0
-1.0,-2.0,-4.0,-2.0,-23.0,-1.0,-1.0,-1.0,1651091339891293.0
0.0,-1.0,-4.0,-10.0,-6.0,-2.0,0.0,2.0,1651091339891293.0
0.0,0.0,1.0,4.0,-17.0,-1.0,-1.0,-1.0,1651091339901437.0
0.0,-1.0,-2.0,2.0,21.0,0.0,1.0,0.0,1651091339901437.0
0.0,0.0,4.0,1.0,-24.0,-2.0,-2.0,0.0,1651091339923047.0
1.0,2.0,4.0,2.0,13.0,1.0,0.0,-2.0,1651091339923047.0
0.0,-4.0,-3.0,-7.0,10.0,-2.0,-5.0,-1.0,1651091339924882.0
-1.0,-3.0,-4.0,-3.0,-13.0,-6.0,-18.0,-3.0,1651091339924882.0
-2.0,0.0,0.0,6.0,17.0,-1.0,20.0,0.0,1651091339946271.0
-1.0,-2.0,-4.0,0.0,-80.0,-4.0,0.0,-1.0,1651091339946271.0
0.0,-1.0,-2.0,-4.0,71.0,2.0,-11.0,1.0,1651091339947215.0
-3.0,-1.0,-1.0,0.0,-14.0,-4.0,3.0,-4.0,1651091339947215.0
-1.0,0.0,0.0,-2.0,23.0,-5.0,10.0,-4.0,1651091339951204.0
3.0,0.0,2.0,6.0,-27.0,26.0,-10.0,4.0,1651091339951204.0
1.0,2.0,3.0,-9.0,-7.0,-16.0,-23.0,-3.0,1651091339961334.0
-3.0,-4.0,-3.0,-5.0,0.0,1.0,-35.0,-1.0,1651091339961334.0
-3.0,-2.0,-7.0,-18.0,-20.0,-15.0,1.0,-8.0,1651091339982888.0
-10.0,-4.0,-3.0,33.0,10.0,-27.0,-43.0,-10.0,1651091339982888.0
2.0,0.0,0.0,9.0,-5.0,81.0,89.0,9.0,1651091339984915.0
0.0,5.0,8.0,0.0,23.0,-16.0,-11.0,-2.0,1651091339984915.0
-5.0,-4.0,-1.0,-12.0,-23.0,-18.0,-79.0,-18.0,1651091339998004.0
6.0,1.0,-3.0,-13.0,8.0,-14.0,-15.0,20.0,1651091339998004.0
11.0,3.0,-1.0,5.0,9.0,24.0,15.0,22.0,1651091339999843.0
9.0,1.0,-3.0,1.0,-2.0,-59.0,19.0,11.0,1651091339999843.0
1.0,-2.0,-2.0,-3.0,-9.0,43.0,-10.0,4.0,1651091340020786.0
-24.0,1.0,6.0,-8.0,13.0,-16.0,75.0,-23.0,1651091340020786.0
15.0,5.0,2.0,12.0,9.0,49.0,-11.0,7.0,1651091340021802.0
9.0,-3.0,0.0,-3.0,5.0,15.0,-31.0,17.0,1651091340021802.0
11.0,2.0,-1.0,3.0,-5.0,-14.0,-30.0,-3.0,1651091340034791.0
7.0,-1.0,-6.0,-8.0,3.0,-33.0,-21.0,0.0,1651091340034791.0
-17.0,-5.0,-2.0,-5.0,-19.0,-40.0,56.0,-16.0,1651091340041775.0
-13.0,-2.0,-1.0,3.0,-6.0,19.0,3.0,-15.0,1651091340041775.0
-35.0,-9.0,-3.0,1.0,1.0,-4.0,-21.0,-47.0,1651091340057882.0
-1.0,-2.0,-1.0,2.0,4.0,-8.0,-10.0,-21.0,1651091340057882.0
19.0,4.0,-2.0,-6.0,-3.0,-8.0,-47.0,41.0,1651091340059876.0
7.0,3.0,1.0,9.0,9.0,-19.0,20.0,-16.0,1651091340059876.0
11.0,3.0,4.0,1.0,-10.0,15.0,-15.0,30.0,1651091340080520.0
-9.0,-4.0,-2.0,-2.0,6.0,-18.0,28.0,-17.0,1651091340080520.0
-9.0,-4.0,-2.0,-2.0,-8.0,76.0,1.0,16.0,1651091340082517.0
11.0,0.0,-1.0,-5.0,-6.0,-69.0,-1.0,23.0,1651091340082517.0
1.0,1.0,0.0,-3.0,-1.0,18.0,43.0,-16.0,1651091340095585.0
3.0,1.0,3.0,11.0,20.0,54.0,-5.0,6.0,1651091340095585.0
-25.0,-8.0,-3.0,0.0,-8.0,-114.0,-46.0,-47.0,1651091340101564.0
-3.0,-1.0,-1.0,-2.0,6.0,-1.0,22.0,0.0,1651091340101564.0
13.0,2.0,0.0,5.0,0.0,-8.0,-6.0,40.0,1651091340118715.0
16.0,1.0,-5.0,-5.0,-6.0,-4.0,-36.0,9.0,1651091340118715.0
-3.0,0.0,2.0,-4.0,-2.0,35.0,-3.0,-18.0,1651091340119557.0
-10.0,-1.0,0.0,-2.0,-6.0,43.0,-7.0,-5.0,1651091340119557.0
-8.0,-2.0,-3.0,-1.0,1.0,-27.0,8.0,-8.0,1651091340141039.0
14.0,1.0,-1.0,2.0,2.0,28.0,78.0,23.0,1651091340141039.0
-12.0,-1.0,-3.0,-2.0,-7.0,-16.0,3.0,-42.0,1651091340141876.0
11.0,5.0,3.0,15.0,9.0,56.0,53.0,43.0,1651091340141876.0
-4.0,-1.0,1.0,0.0,1.0,26.0,23.0,1.0,1651091340155235.0
-1.0,0.0,-1.0,-9.0,-5.0,-16.0,-36.0,19.0,1651091340155235.0
-26.0,-1.0,0.0,-3.0,-1.0,-15.0,-40.0,-74.0,1651091340163125.0
20.0,-2.0,-3.0,-10.0,-8.0,-5.0,5.0,-33.0,1651091340163125.0
29.0,5.0,3.0,24.0,19.0,24.0,42.0,72.0,1651091340177392.0
-19.0,-2.0,0.0,-5.0,-4.0,17.0,-11.0,-58.0,1651091340177392.0
12.0,-1.0,-3.0,-4.0,-3.0,-54.0,-8.0,44.0,1651091340178236.0
-23.0,-4.0,-5.0,-7.0,-1.0,5.0,-32.0,-56.0,1651091340178236.0
3.0,0.0,-1.0,-1.0,-9.0,-1.0,6.0,44.0,1651091340208601.0
15.0,4.0,3.0,-10.0,-1.0,20.0,10.0,10.0,1651091340208601.0
-11.0,-3.0,1.0,8.0,8.0,10.0,2.0,-29.0,1651091340208601.0
7.0,0.0,-1.0,-1.0,3.0,47.0,-5.0,33.0,1651091340208601.0
-15.0,-5.0,-2.0,-1.0,0.0,6.0,-12.0,-42.0,1651091340214616.0
-4.0,-2.0,-3.0,1.0,1.0,-16.0,25.0,-13.0,1651091340214616.0
23.0,6.0,2.0,-1.0,-5.0,1.0,-3.0,51.0,1651091340222960.0
-7.0,-2.0,0.0,-4.0,-2.0,-45.0,23.0,-10.0,1651091340222960.0
-8.0,-6.0,-3.0,-1.0,1.0,14.0,-15.0,-18.0,1651091340237168.0
-22.0,-2.0,-2.0,0.0,1.0,26.0,-28.0,-41.0,1651091340237168.0
30.0,3.0,-3.0,1.0,-10.0,-61.0,-15.0,61.0,1651091340238011.0
-14.0,-3.0,-1.0,-1.0,4.0,-7.0,-52.0,-25.0,1651091340238011.0
11.0,1.0,-1.0,-6.0,2.0,35.0,66.0,-2.0,1651091340261051.0
21.0,1.0,2.0,7.0,3.0,14.0,7.0,100.0,1651091340261051.0
-9.0,0.0,1.0,-5.0,1.0,-20.0,-12.0,-25.0,1651091340261051.0
-5.0,3.0,1.0,0.0,1.0,19.0,16.0,-9.0,1651091340261051.0
-37.0,-8.0,-4.0,-4.0,-2.0,-33.0,-38.0,-90.0,1651091340290858.0
12.0,-2.0,-4.0,0.0,-10.0,9.0,10.0,43.0,1651091340290858.0
24.0,8.0,5.0,6.0,11.0,51.0,40.0,18.0,1651091340291695.0
-3.0,0.0,2.0,-4.0,-2.0,-2.0,-8.0,-4.0,1651091340291695.0
-4.0,1.0,4.0,7.0,5.0,-22.0,-15.0,-11.0,1651091340297904.0
-19.0,-6.0,-1.0,-6.0,-1.0,12.0,-31.0,-44.0,1651091340297904.0
-2.0,-9.0,-8.0,-3.0,-3.0,-42.0,-31.0,29.0,1651091340297904.0
2.0,6.0,2.0,8.0,-2.0,-16.0,28.0,14.0,1651091340297904.0
8.0,2.0,-2.0,-5.0,-1.0,19.0,6.0,12.0,1651091340320430.0
-4.0,-1.0,2.0,3.0,-1.0,5.0,-8.0,-3.0,1651091340320430.0
-32.0,-6.0,-2.0,-2.0,0.0,32.0,-13.0,-71.0,1651091340320430.0
34.0,-1.0,-5.0,6.0,4.0,16.0,14.0,91.0,1651091340320430.0
18.0,3.0,1.0,-4.0,-5.0,-24.0,-5.0,52.0,1651091340334548.0
-9.0,-2.0,1.0,-1.0,1.0,-15.0,-22.0,-8.0,1651091340334548.0
-20.0,-7.0,-1.0,-4.0,2.0,37.0,7.0,-87.0,1651091340342724.0
4.0,1.0,1.0,3.0,7.0,-31.0,-5.0,15.0,1651091340342724.0
11.0,3.0,1.0,-3.0,-5.0,-8.0,5.0,22.0,1651091340357928.0
1.0,-1.0,-1.0,-3.0,-3.0,-8.0,-6.0,3.0,1651091340357928.0
-13.0,-2.0,-1.0,2.0,2.0,-8.0,-22.0,-23.0,1651091340358880.0
-19.0,-7.0,-4.0,-5.0,-1.0,52.0,14.0,-25.0,1651091340358880.0
9.0,3.0,-3.0,1.0,-5.0,-27.0,35.0,-6.0,1651091340380292.0
8.0,9.0,7.0,1.0,1.0,-44.0,20.0,12.0,1651091340380292.0
9.0,-3.0,-3.0,-1.0,-3.0,10.0,13.0,56.0,1651091340380292.0
5.0,-1.0,-3.0,-2.0,2.0,12.0,-30.0,-6.0,1651091340380292.0
-11.0,-4.0,-1.0,-1.0,-2.0,2.0,-27.0,-32.0,1651091340394413.0
-7.0,-1.0,0.0,-1.0,0.0,2.0,-9.0,-17.0,1651091340394413.0
-2.0,1.0,-1.0,0.0,2.0,0.0,36.0,-9.0,1651091340402741.0
-7.0,-2.0,3.0,9.0,4.0,0.0,-7.0,-18.0,1651091340402741.0
14.0,3.0,1.0,-7.0,-6.0,6.0,13.0,53.0,1651091340425961.0
-7.0,-5.0,-3.0,0.0,-3.0,-26.0,-4.0,-26.0,1651091340425961.0
-4.0,-2.0,0.0,-1.0,1.0,-13.0,-44.0,-42.0,1651091340425961.0
7.0,1.0,-2.0,-1.0,-2.0,3.0,45.0,49.0,1651091340425961.0
-4.0,-3.0,1.0,-1.0,1.0,24.0,-7.0,-23.0,1651091340440051.0
2.0,-1.0,-4.0,3.0,2.0,-70.0,24.0,14.0,1651091340440051.0
3.0,3.0,5.0,3.0,0.0,43.0,-3.0,7.0,1651091340447021.0
-3.0,-1.0,0.0,-6.0,-7.0,-5.0,3.0,-7.0,1651091340447021.0
1.0,1.0,-2.0,0.0,3.0,15.0,1.0,-9.0,1651091340454193.0
2.0,-1.0,0.0,-1.0,-4.0,29.0,-12.0,4.0,1651091340454193.0
-12.0,-6.0,-2.0,1.0,-4.0,-76.0,-12.0,7.0,1651091340462297.0
-10.0,0.0,-1.0,0.0,-1.0,-4.0,-4.0,-29.0,1651091340462297.0
18.0,2.0,2.0,-1.0,-3.0,-20.0,5.0,95.0,1651091340477863.0
7.0,0.0,0.0,-3.0,1.0,26.0,8.0,-18.0,1651091340477863.0
1.0,1.0,1.0,1.0,3.0,22.0,-4.0,17.0,1651091340477863.0
0.0,-1.0,1.0,-2.0,-9.0,-20.0,-9.0,32.0,1651091340477863.0
-21.0,-2.0,0.0,-1.0,5.0,-8.0,-7.0,-65.0,1651091340500442.0
12.0,1.0,-1.0,2.0,1.0,-57.0,3.0,37.0,1651091340500442.0
10.0,2.0,0.0,-1.0,2.0,25.0,16.0,13.0,1651091340500442.0
-18.0,-5.0,-4.0,-15.0,-6.0,-2.0,-18.0,-37.0,1651091340500442.0
1.0,4.0,4.0,16.0,7.0,-2.0,-2.0,-6.0,1651091340514454.0
1.0,0.0,-1.0,0.0,-4.0,51.0,-6.0,-7.0,1651091340514454.0
-4.0,0.0,-3.0,1.0,0.0,-43.0,1.0,-11.0,1651091340522615.0
-6.0,-3.0,0.0,0.0,5.0,-15.0,-4.0,-5.0,1651091340522615.0
-1.0,-1.0,-2.0,0.0,-6.0,31.0,-3.0,-27.0,1651091340537896.0
-7.0,-6.0,-2.0,-4.0,-8.0,31.0,-43.0,-5.0,1651091340537896.0
12.0,2.0,1.0,4.0,0.0,19.0,2.0,52.0,1651091340538736.0
12.0,1.0,-3.0,-1.0,3.0,-90.0,32.0,-4.0,1651091340538736.0
1.0,-2.0,-2.0,-6.0,0.0,35.0,-15.0,12.0,1651091340560018.0
11.0,4.0,2.0,2.0,3.0,-41.0,29.0,-16.0,1651091340560018.0
-7.0,-2.0,1.0,0.0,-3.0,27.0,-21.0,-12.0,1651091340560847.0
-9.0,-1.0,-2.0,0.0,-5.0,15.0,-39.0,-20.0,1651091340560847.0
-10.0,-7.0,-3.0,-1.0,3.0,-18.0,13.0,-5.0,1651091340574011.0
-14.0,-4.0,-3.0,-7.0,-1.0,26.0,-10.0,-42.0,1651091340574011.0
20.0,4.0,2.0,9.0,5.0,29.0,20.0,37.0,1651091340583069.0
7.0,3.0,1.0,0.0,-1.0,38.0,7.0,2.0,1651091340583069.0
-7.0,-4.0,-2.0,-3.0,-8.0,-29.0,9.0,-10.0,1651091340597983.0
-18.0,-2.0,-3.0,1.0,4.0,28.0,-14.0,-21.0,1651091340597983.0
0.0,-2.0,-2.0,-7.0,-4.0,11.0,6.0,-5.0,1651091340597983.0
3.0,-1.0,-1.0,2.0,-3.0,-55.0,-8.0,-6.0,1651091340597983.0
2.0,4.0,3.0,4.0,1.0,-12.0,4.0,24.0,1651091340620553.0
1.0,-3.0,-4.0,-2.0,-2.0,-6.0,4.0,7.0,1651091340620553.0
-9.0,-2.0,-3.0,1.0,-5.0,-7.0,1.0,-23.0,1651091340620553.0
-1.0,-1.0,-1.0,1.0,2.0,30.0,27.0,2.0,1651091340620553.0
-5.0,0.0,0.0,-7.0,-10.0,-15.0,-13.0,-14.0,1651091340634597.0
8.0,1.0,3.0,-4.0,4.0,17.0,22.0,37.0,1651091340634597.0
-1.0,2.0,1.0,7.0,0.0,-37.0,-22.0,-19.0,1651091340642806.0
-2.0,-2.0,1.0,-5.0,5.0,63.0,-9.0,-9.0,1651091340642806.0
10.0,0.0,-1.0,-1.0,-5.0,-8.0,-14.0,19.0,1651091340657753.0
4.0,0.0,1.0,0.0,-2.0,2.0,22.0,10.0,1651091340657753.0
-14.0,-2.0,-2.0,-9.0,0.0,17.0,21.0,-32.0,1651091340657753.0
0.0,-3.0,0.0,2.0,-3.0,-16.0,-2.0,10.0,1651091340657753.0
0.0,0.0,0.0,1.0,2.0,35.0,17.0,-15.0,1651091340687982.0
-5.0,-2.0,-1.0,-2.0,-1.0,2.0,-16.0,-7.0,1651091340687982.0
2.0,0.0,-1.0,0.0,-4.0,-34.0,9.0,28.0,1651091340688835.0
-9.0,1.0,1.0,-1.0,3.0,15.0,-20.0,-20.0,1651091340688835.0
0.0,0.0,-3.0,-3.0,-8.0,-23.0,5.0,-5.0,1651091340693847.0
3.0,0.0,-1.0,1.0,0.0,-17.0,-4.0,13.0,1651091340693847.0
0.0,-1.0,-1.0,-1.0,-1.0,-16.0,9.0,0.0,1651091340703113.0
-5.0,-2.0,0.0,-8.0,-7.0,21.0,-8.0,-8.0,1651091340703113.0
-8.0,-3.0,-1.0,5.0,9.0,-14.0,-13.0,-19.0,1651091340717400.0
7.0,2.0,0.0,4.0,-5.0,-22.0,24.0,21.0,1651091340717400.0
7.0,0.0,-2.0,-3.0,-3.0,2.0,-5.0,5.0,1651091340718240.0
-12.0,-2.0,-2.0,-3.0,-4.0,8.0,-19.0,-20.0,1651091340718240.0
0.0,-1.0,-1.0,-6.0,2.0,-3.0,22.0,5.0,1651091340739793.0
7.0,1.0,-1.0,-2.0,1.0,-5.0,-12.0,1.0,1651091340739793.0
1.0,-2.0,0.0,-5.0,-3.0,-6.0,-13.0,2.0,1651091340740633.0
-7.0,-1.0,-2.0,1.0,-1.0,27.0,19.0,-18.0,1651091340740633.0
2.0,2.0,-1.0,1.0,3.0,28.0,-7.0,-10.0,1651091340754960.0
1.0,2.0,6.0,2.0,3.0,-4.0,-15.0,-12.0,1651091340754960.0
9.0,1.0,-2.0,-2.0,-1.0,5.0,19.0,33.0,1651091340763074.0
-3.0,-1.0,0.0,2.0,-5.0,13.0,-6.0,-5.0,1651091340763074.0
-12.0,-4.0,-2.0,0.0,-1.0,-23.0,-13.0,-14.0,1651091340778125.0
0.0,-1.0,-3.0,-3.0,-2.0,12.0,-5.0,-1.0,1651091340778125.0
1.0,2.0,3.0,3.0,3.0,8.0,23.0,4.0,1651091340778125.0
8.0,-1.0,-1.0,2.0,3.0,-32.0,5.0,16.0,1651091340778125.0
1.0,0.0,-1.0,-3.0,-3.0,-5.0,-6.0,9.0,1651091340800588.0
-13.0,-2.0,0.0,-5.0,-7.0,9.0,-20.0,-30.0,1651091340800588.0
0.0,-3.0,0.0,-2.0,-1.0,-2.0,-5.0,24.0,1651091340800588.0
5.0,-2.0,-1.0,-6.0,0.0,13.0,7.0,16.0,1651091340800588.0
9.0,-2.0,-4.0,5.0,12.0,-7.0,-7.0,17.0,1651091340815658.0
-10.0,2.0,4.0,10.0,-8.0,-2.0,2.0,-18.0,1651091340815658.0
-9.0,0.0,0.0,-7.0,-8.0,-7.0,-6.0,-31.0,1651091340823099.0
4.0,-1.0,-2.0,5.0,4.0,5.0,11.0,21.0,1651091340823099.0
0.0,1.0,2.0,-6.0,-1.0,0.0,-15.0,3.0,1651091340838045.0
-9.0,-3.0,-1.0,1.0,7.0,-29.0,22.0,9.0,1651091340838045.0
-3.0,-1.0,-1.0,7.0,7.0,7.0,17.0,-3.0,1651091340838045.0
8.0,4.0,3.0,-3.0,0.0,11.0,-22.0,3.0,1651091340838045.0
15.0,0.0,-2.0,0.0,-5.0,-13.0,10.0,-9.0,1651091340860361.0
15.0,0.0,-1.0,0.0,2.0,-1.0,14.0,42.0,1651091340860361.0
-5.0,0.0,0.0,-2.0,-9.0,-29.0,-14.0,-12.0,1651091340860361.0
-13.0,0.0,-1.0,1.0,3.0,-10.0,-8.0,-41.0,1651091340860361.0
-12.0,-3.0,0.0,1.0,-2.0,18.0,-9.0,8.0,1651091340874552.0
2.0,-3.0,-3.0,-2.0,-3.0,26.0,25.0,11.0,1651091340874552.0
5.0,-1.0,0.0,-1.0,9.0,15.0,-16.0,28.0,1651091340882887.0
-5.0,-3.0,-4.0,1.0,-3.0,-33.0,20.0,-14.0,1651091340882887.0
0.0,3.0,3.0,-7.0,-5.0,9.0,4.0,9.0,1651091340897803.0
-2.0,-4.0,-4.0,-5.0,11.0,12.0,-14.0,-14.0,1651091340897803.0
-3.0,1.0,-1.0,-4.0,4.0,20.0,-5.0,-4.0,1651091340897803.0
0.0,2.0,3.0,2.0,-13.0,-26.0,-5.0,7.0,1651091340897803.0
-3.0,-1.0,-2.0,10.0,-2.0,-15.0,-8.0,-7.0,1651091340920297.0
-4.0,-1.0,-2.0,-4.0,-2.0,-25.0,3.0,-31.0,1651091340920297.0
-14.0,-5.0,-6.0,1.0,1.0,4.0,-13.0,-36.0,1651091340921298.0
14.0,0.0,-1.0,0.0,4.0,16.0,9.0,28.0,1651091340921298.0
-3.0,-1.0,1.0,-7.0,-4.0,12.0,1.0,-15.0,1651091340943369.0
12.0,3.0,0.0,0.0,0.0,8.0,7.0,44.0,1651091340943369.0
2.0,2.0,3.0,1.0,-5.0,-41.0,-9.0,-24.0,1651091340944234.0
-15.0,-7.0,-3.0,5.0,5.0,16.0,-31.0,-2.0,1651091340944234.0
-1.0,1.0,0.0,-1.0,5.0,40.0,64.0,2.0,1651091340957545.0
1.0,0.0,1.0,3.0,-3.0,10.0,3.0,-24.0,1651091340957545.0
4.0,3.0,2.0,-1.0,-1.0,-6.0,27.0,22.0,1651091340958386.0
1.0,2.0,0.0,0.0,-1.0,12.0,-14.0,-8.0,1651091340958386.0
-6.0,-4.0,-3.0,2.0,-1.0,-40.0,-31.0,-6.0,1651091340979699.0
-2.0,-1.0,2.0,0.0,-3.0,-11.0,-7.0,10.0,1651091340979699.0
-3.0,-2.0,-3.0,-1.0,-9.0,1.0,1.0,-2.0,1651091340980548.0
1.0,0.0,-3.0,-1.0,2.0,-2.0,-1.0,-13.0,1651091340980548.0
1.0,-1.0,-3.0,-5.0,-5.0,-4.0,-7.0,4.0,1651091341003784.0
-2.0,0.0,1.0,11.0,2.0,6.0,1.0,-5.0,1651091341003784.0
3.0,1.0,2.0,-1.0,-7.0,-20.0,-8.0,4.0,1651091341003784.0
-4.0,-1.0,0.0,1.0,3.0,-6.0,7.0,-4.0,1651091341003784.0
-20.0,-3.0,0.0,-4.0,0.0,1.0,-14.0,-20.0,1651091341017861.0
15.0,3.0,-1.0,-4.0,0.0,3.0,4.0,58.0,1651091341017861.0
12.0,-2.0,-2.0,-1.0,-2.0,14.0,-3.0,10.0,1651091341017861.0
5.0,1.0,-1.0,-9.0,-3.0,0.0,-1.0,11.0,1651091341017861.0
-15.0,-6.0,-3.0,1.0,3.0,8.0,-4.0,-49.0,1651091341040299.0
1.0,3.0,0.0,0.0,0.0,-29.0,-27.0,11.0,1651091341040299.0
4.0,2.0,2.0,2.0,1.0,36.0,8.0,13.0,1651091341041152.0
3.0,0.0,0.0,-3.0,-4.0,-9.0,15.0,-1.0,1651091341041152.0
-9.0,2.0,3.0,5.0,4.0,1.0,12.0,-31.0,1651091341063729.0
8.0,-4.0,-4.0,-7.0,0.0,4.0,-5.0,61.0,1651091341063729.0
0.0,-1.0,-1.0,-2.0,-1.0,-7.0,-30.0,-8.0,1651091341063729.0
-8.0,-2.0,-2.0,0.0,-5.0,15.0,-12.0,-3.0,1651091341063729.0
2.0,-1.0,-3.0,-3.0,0.0,-16.0,10.0,-3.0,1651091341078050.0
9.0,1.0,-1.0,-6.0,5.0,4.0,1.0,0.0,1651091341078050.0
3.0,-1.0,0.0,-2.0,-6.0,13.0,5.0,11.0,1651091341078050.0
-10.0,-3.0,0.0,2.0,1.0,3.0,-25.0,-18.0,1651091341078050.0
6.0,0.0,1.0,5.0,11.0,-10.0,25.0,28.0,1651091341100433.0
-9.0,-1.0,0.0,-9.0,-11.0,10.0,-1.0,-39.0,1651091341100433.0
-5.0,-3.0,-7.0,1.0,11.0,-2.0,6.0,-4.0,1651091341100433.0
0.0,3.0,0.0,0.0,2.0,-1.0,-3.0,-10.0,1651091341100433.0
9.0,3.0,0.0,-3.0,-16.0,-29.0,-24.0,20.0,1651091341123655.0
-7.0,-4.0,-2.0,6.0,2.0,32.0,13.0,-14.0,1651091341123655.0
-2.0,3.0,3.0,1.0,2.0,15.0,8.0,3.0,1651091341123655.0
-6.0,0.0,-2.0,1.0,4.0,-39.0,-11.0,-37.0,1651091341123655.0
18.0,2.0,0.0,-3.0,0.0,-10.0,3.0,59.0,1651091341137976.0
-3.0,2.0,1.0,-3.0,-8.0,10.0,-19.0,-16.0,1651091341137976.0
-7.0,0.0,-2.0,0.0,-5.0,-18.0,35.0,-15.0,1651091341137976.0
27.0,7.0,4.0,0.0,12.0,12.0,24.0,50.0,1651091341137976.0
-6.0,-5.0,-4.0,-3.0,1.0,-18.0,-17.0,-26.0,1651091341160203.0
-10.0,-3.0,0.0,5.0,-7.0,-25.0,-9.0,1.0,1651091341160203.0
-1.0,-3.0,-3.0,-1.0,-2.0,5.0,-7.0,-6.0,1651091341160203.0
3.0,-1.0,0.0,0.0,-4.0,-7.0,-22.0,15.0,1651091341160203.0
-7.0,-3.0,-1.0,-3.0,2.0,27.0,30.0,-26.0,1651091341183779.0
-7.0,2.0,2.0,3.0,3.0,-1.0,-3.0,-11.0,1651091341183779.0
6.0,0.0,0.0,-7.0,8.0,-9.0,-9.0,2.0,1651091341183779.0
-4.0,-4.0,0.0,-3.0,-6.0,4.0,24.0,5.0,1651091341183779.0
4.0,0.0,0.0,0.0,2.0,20.0,-27.0,12.0,1651091341197181.0
-18.0,-6.0,-6.0,-5.0,-9.0,1.0,-10.0,-49.0,1651091341197181.0
8.0,5.0,4.0,-2.0,1.0,2.0,38.0,26.0,1651091341198182.0
6.0,0.0,-1.0,5.0,-8.0,4.0,25.0,-3.0,1651091341198182.0
4.0,3.0,0.0,4.0,1.0,-4.0,-7.0,22.0,1651091341220526.0
5.0,1.0,1.0,2.0,5.0,-11.0,7.0,36.0,1651091341220526.0
-10.0,-5.0,-3.0,2.0,5.0,-28.0,-35.0,-24.0,1651091341220526.0
7.0,2.0,-2.0,-7.0,-6.0,-10.0,6.0,12.0,1651091341220526.0
3.0,3.0,2.0,-2.0,-10.0,5.0,-19.0,-24.0,1651091341242865.0
-2.0,-2.0,-2.0,-8.0,-4.0,-20.0,-21.0,27.0,1651091341242865.0
-6.0,-7.0,-5.0,3.0,-1.0,2.0,16.0,1.0,1651091341242865.0
-2.0,1.0,1.0,7.0,9.0,-3.0,-9.0,-1.0,1651091341242865.0
10.0,3.0,2.0,0.0,-1.0,11.0,-8.0,4.0,1651091341257282.0
1.0,0.0,-1.0,-3.0,5.0,10.0,-6.0,-21.0,1651091341257282.0
-5.0,-3.0,-1.0,0.0,-2.0,-24.0,-16.0,-12.0,1651091341258121.0
-9.0,-3.0,-1.0,-2.0,-4.0,6.0,-14.0,-17.0,1651091341258121.0
-4.0,-1.0,1.0,0.0,0.0,-7.0,20.0,18.0,1651091341280565.0
0.0,-3.0,-4.0,1.0,7.0,-22.0,-2.0,-16.0,1651091341280565.0
1.0,4.0,2.0,1.0,-10.0,9.0,3.0,-7.0,1651091341280565.0
-2.0,-2.0,-1.0,-7.0,-5.0,0.0,7.0,17.0,1651091341280565.0
1.0,-2.0,-1.0,-6.0,-8.0,4.0,-13.0,-2.0,1651091341310882.0
-1.0,-2.0,-1.0,-1.0,-12.0,6.0,13.0,-12.0,1651091341310882.0
3.0,1.0,1.0,0.0,1.0,8.0,5.0,2.0,1651091341310882.0
-3.0,-2.0,-2.0,1.0,-24.0,2.0,-7.0,0.0,1651091341310882.0
1.0,-3.0,-3.0,-4.0,12.0,-4.0,-3.0,5.0,1651091341316891.0
1.0,2.0,1.0,6.0,36.0,5.0,11.0,-10.0,1651091341316891.0
2.0,5.0,7.0,6.0,7.0,9.0,-7.0,5.0,1651091341317852.0
0.0,-2.0,-1.0,-6.0,-2.0,-5.0,-5.0,1.0,1651091341317852.0
-1.0,-4.0,-3.0,10.0,-3.0,0.0,3.0,-2.0,1651091341348533.0
0.0,-2.0,-6.0,-6.0,4.0,-1.0,6.0,-13.0,1651091341348533.0
-1.0,-2.0,-1.0,8.0,-19.0,2.0,-6.0,3.0,1651091341349156.0
-1.0,1.0,2.0,-7.0,33.0,1.0,6.0,0.0,1651091341349156.0
0.0,0.0,2.0,-6.0,-50.0,-4.0,2.0,-3.0,1651091341362266.0
0.0,1.0,0.0,0.0,-13.0,6.0,-2.0,-4.0,1651091341362266.0
0.0,-1.0,1.0,9.0,36.0,4.0,-4.0,6.0,1651091341363122.0
-1.0,-5.0,-3.0,-3.0,0.0,-4.0,0.0,-5.0,1651091341363122.0
-1.0,0.0,0.0,-2.0,-17.0,3.0,-3.0,1.0,1651091341377328.0
1.0,1.0,1.0,-1.0,4.0,5.0,-1.0,-3.0,1651091341377328.0
-2.0,-2.0,-4.0,-8.0,6.0,-4.0,-2.0,0.0,1651091341378322.0
-1.0,0.0,-1.0,5.0,-41.0,1.0,1.0,-3.0,1651091341378322.0
-2.0,-4.0,-3.0,0.0,13.0,-2.0,-1.0,-1.0,1651091341400590.0
1.0,3.0,7.0,15.0,38.0,9.0,6.0,0.0,1651091341400590.0
-4.0,-2.0,-4.0,-13.0,-35.0,-9.0,-3.0,-1.0,1651091341400590.0
-2.0,-1.0,2.0,-2.0,-46.0,3.0,-3.0,-1.0,1651091341400590.0
-1.0,3.0,2.0,9.0,65.0,2.0,1.0,0.0,1651091341422914.0
-1.0,-4.0,-1.0,-4.0,-78.0,-1.0,4.0,-3.0,1651091341422914.0
-1.0,-3.0,-3.0,-7.0,1.0,-2.0,-2.0,-1.0,1651091341422914.0
1.0,2.0,2.0,9.0,65.0,0.0,2.0,1.0,1651091341422914.0
-1.0,1.0,1.0,-3.0,-23.0,-2.0,0.0,-2.0,1651091341438762.0
-1.0,-1.0,0.0,-6.0,21.0,-4.0,-1.0,-4.0,1651091341438762.0
0.0,-3.0,-2.0,-9.0,-67.0,-6.0,-4.0,-2.0,1651091341444910.0
-1.0,-1.0,-3.0,3.0,16.0,0.0,1.0,-1.0,1651091341444910.0
0.0,2.0,1.0,4.0,-7.0,2.0,1.0,-2.0,1651091341460269.0
0.0,0.0,3.0,6.0,57.0,7.0,1.0,-2.0,1651091341460269.0
0.0,-1.0,0.0,3.0,-20.0,-2.0,-2.0,-1.0,1651091341461144.0
-1.0,-3.0,-3.0,-9.0,-17.0,-5.0,-2.0,1.0,1651091341461144.0
-2.0,-4.0,-4.0,0.0,3.0,-3.0,-2.0,-1.0,1651091341482728.0
-1.0,3.0,5.0,-4.0,-48.0,-8.0,-4.0,-2.0,1651091341482728.0
1.0,1.0,-1.0,-4.0,59.0,6.0,2.0,1.0,1651091341482728.0
-2.0,-1.0,3.0,13.0,8.0,2.0,2.0,-3.0,1651091341482728.0
-2.0,-3.0,-4.0,-9.0,-3.0,1.0,0.0,1.0,1651091341497041.0
-1.0,-3.0,-5.0,-4.0,-13.0,-6.0,-2.0,-1.0,1651091341497041.0
-1.0,0.0,3.0,8.0,-1.0,4.0,1.0,0.0,1651091341497879.0
-2.0,-1.0,-2.0,-9.0,-55.0,-5.0,-2.0,-1.0,1651091341497879.0
2.0,2.0,3.0,8.0,79.0,6.0,1.0,1.0,1651091341520288.0
-1.0,1.0,0.0,4.0,14.0,0.0,1.0,0.0,1651091341520288.0
-1.0,1.0,0.0,0.0,-10.0,5.0,0.0,1.0,1651091341520288.0
1.0,2.0,-1.0,-1.0,4.0,-1.0,-2.0,0.0,1651091341520288.0
-2.0,-2.0,-1.0,-3.0,-46.0,-4.0,-1.0,-1.0,1651091341542270.0
0.0,-2.0,-4.0,-7.0,-12.0,2.0,0.0,-2.0,1651091341542270.0
0.0,0.0,-1.0,1.0,11.0,2.0,-1.0,0.0,1651091341543267.0
-1.0,-2.0,0.0,-4.0,4.0,-2.0,-1.0,1.0,1651091341543267.0
0.0,-2.0,-4.0,-4.0,-18.0,-1.0,0.0,0.0,1651091341557394.0
0.0,-1.0,0.0,3.0,13.0,1.0,1.0,-1.0,1651091341557394.0
-1.0,1.0,3.0,1.0,14.0,-3.0,-2.0,0.0,1651091341564566.0
1.0,1.0,0.0,1.0,-23.0,-2.0,2.0,-1.0,1651091341564566.0
-1.0,-1.0,-3.0,-1.0,38.0,-2.0,-1.0,0.0,1651091341579886.0
-1.0,-2.0,-4.0,-6.0,-29.0,-1.0,-1.0,-1.0,1651091341579886.0
0.0,1.0,-3.0,-1.0,-22.0,-2.0,-2.0,-1.0,1651091341580885.0
0.0,-2.0,0.0,-2.0,4.0,1.0,0.0,-2.0,1651091341580885.0
0.0,1.0,1.0,0.0,-10.0,0.0,-1.0,-1.0,1651091341602956.0
-1.0,-1.0,-2.0,-2.0,-17.0,1.0,0.0,0.0,1651091341602956.0
2.0,-2.0,-3.0,-1.0,30.0,1.0,0.0,1.0,1651091341602956.0
-1.0,1.0,-1.0,-6.0,-4.0,-2.0,-4.0,-1.0,1651091341602956.0
-2.0,-2.0,0.0,2.0,-2.0,0.0,1.0,-2.0,1651091341616949.0
0.0,2.0,3.0,8.0,13.0,4.0,0.0,2.0,1651091341616949.0
-2.0,1.0,1.0,0.0,35.0,1.0,0.0,-2.0,1651091341624970.0
0.0,-3.0,-4.0,0.0,4.0,0.0,2.0,0.0,1651091341624970.0
2.0,-1.0,-3.0,-6.0,-33.0,-6.0,-2.0,0.0,1651091341655582.0
0.0,-1.0,-1.0,-3.0,-9.0,-1.0,-1.0,-1.0,1651091341655582.0
1.0,0.0,1.0,1.0,-2.0,0.0,1.0,0.0,1651091341656424.0
1.0,0.0,0.0,1.0,35.0,4.0,1.0,0.0,1651091341656424.0
-2.0,3.0,4.0,6.0,-2.0,-1.0,0.0,-1.0,1651091341662783.0
-3.0,-2.0,-2.0,-1.0,-8.0,-3.0,-1.0,-2.0,1651091341662783.0
-1.0,-1.0,0.0,-4.0,0.0,-1.0,0.0,0.0,1651091341663406.0
1.0,-2.0,-1.0,2.0,1.0,1.0,0.0,-1.0,1651091341663406.0
0.0,0.0,0.0,-5.0,-5.0,0.0,1.0,-1.0,1651091341676759.0
0.0,-1.0,-2.0,0.0,-17.0,-2.0,-1.0,-1.0,1651091341676759.0
-1.0,-3.0,-1.0,-5.0,-12.0,-4.0,0.0,0.0,1651091341685255.0
-1.0,-1.0,1.0,-2.0,46.0,0.0,-2.0,-1.0,1651091341685255.0
1.0,-2.0,0.0,2.0,1.0,2.0,-1.0,0.0,1651091341700596.0
-1.0,-2.0,-1.0,-3.0,-14.0,-3.0,-1.0,0.0,1651091341700596.0
0.0,-2.0,-2.0,-1.0,-10.0,-2.0,-2.0,0.0,1651091341700596.0
-1.0,0.0,2.0,7.0,20.0,1.0,1.0,0.0,1651091341700596.0
-1.0,0.0,1.0,-4.0,-13.0,-2.0,-1.0,-1.0,1651091341730987.0
0.0,-3.0,-3.0,6.0,8.0,0.0,-1.0,0.0,1651091341730987.0
0.0,-3.0,-6.0,-6.0,-31.0,0.0,0.0,-1.0,1651091341730987.0
1.0,4.0,5.0,2.0,-1.0,-1.0,-1.0,1.0,1651091341730987.0
0.0,0.0,0.0,2.0,3.0,0.0,-1.0,1.0,1651091341737006.0
0.0,0.0,1.0,-3.0,-2.0,1.0,1.0,0.0,1651091341737006.0
0.0,0.0,2.0,2.0,45.0,5.0,0.0,1.0,1651091341745324.0
-1.0,-3.0,-6.0,-2.0,-22.0,-4.0,-1.0,-1.0,1651091341745324.0
-1.0,2.0,3.0,9.0,25.0,0.0,0.0,0.0,1651091341760446.0
1.0,-1.0,-1.0,0.0,-1.0,-2.0,1.0,0.0,1651091341760446.0
0.0,0.0,-1.0,0.0,-27.0,-1.0,0.0,-1.0,1651091341760446.0
-2.0,0.0,-1.0,-3.0,-1.0,-2.0,0.0,0.0,1651091341760446.0
-2.0,-1.0,-3.0,-5.0,-9.0,-1.0,0.0,0.0,1651091341782581.0
0.0,-1.0,-1.0,0.0,13.0,0.0,0.0,-1.0,1651091341782581.0
0.0,-2.0,-2.0,-3.0,8.0,-1.0,0.0,0.0,1651091341783581.0
0.0,0.0,-1.0,0.0,-10.0,1.0,-2.0,-1.0,1651091341783581.0
1.0,1.0,0.0,6.0,-2.0,2.0,2.0,1.0,1651091341796706.0
0.0,1.0,0.0,1.0,5.0,0.0,0.0,-1.0,1651091341796706.0
0.0,-1.0,-4.0,-1.0,-13.0,0.0,0.0,-2.0,1651091341805606.0
-1.0,0.0,4.0,-2.0,5.0,-5.0,0.0,1.0,1651091341805606.0
-1.0,-2.0,-2.0,-2.0,-56.0,2.0,0.0,-2.0,1651091341819984.0
-2.0,1.0,0.0,-1.0,35.0,1.0,0.0,-1.0,1651091341819984.0
-1.0,-2.0,-1.0,-4.0,-18.0,-1.0,-3.0,-1.0,1651091341820825.0
-2.0,-2.0,-4.0,-2.0,3.0,-1.0,0.0,-1.0,1651091341820825.0
0.0,0.0,3.0,6.0,34.0,-1.0,0.0,0.0,1651091341842306.0
0.0,-1.0,-1.0,-1.0,5.0,-1.0,-1.0,1.0,1651091341842306.0
-1.0,-1.0,0.0,0.0,-5.0,0.0,1.0,0.0,1651091341843316.0
1.0,-2.0,-3.0,-4.0,-17.0,-1.0,-2.0,-1.0,1651091341843316.0
1.0,-1.0,-3.0,-2.0,4.0,0.0,-1.0,0.0,1651091341865736.0
-1.0,-1.0,1.0,0.0,-20.0,-3.0,-2.0,0.0,1651091341865736.0
-1.0,0.0,1.0,5.0,10.0,-1.0,0.0,-1.0,1651091341866644.0
-1.0,-3.0,-1.0,3.0,47.0,7.0,1.0,0.0,1651091341866644.0
-1.0,0.0,0.0,-5.0,-8.0,-3.0,-1.0,0.0,1651091341880315.0
1.0,-1.0,-1.0,-4.0,4.0,-1.0,-1.0,0.0,1651091341880315.0
0.0,-4.0,-2.0,-3.0,-30.0,-3.0,-2.0,0.0,1651091341880315.0
0.0,1.0,-1.0,-4.0,8.0,-1.0,-1.0,0.0,1651091341880315.0
-1.0,-1.0,1.0,3.0,2.0,0.0,-2.0,0.0,1651091341902612.0
0.0,1.0,-2.0,-1.0,-9.0,-1.0,0.0,-1.0,1651091341902612.0
-1.0,0.0,1.0,-1.0,8.0,-3.0,-1.0,-2.0,1651091341903612.0
-2.0,-3.0,-4.0,-1.0,-17.0,-1.0,0.0,-1.0,1651091341903612.0
-2.0,0.0,-1.0,-1.0,12.0,1.0,-2.0,-1.0,1651091341925880.0
1.0,-1.0,1.0,0.0,0.0,0.0,-2.0,-1.0,1651091341925880.0
0.0,1.0,-1.0,0.0,-4.0,0.0,0.0,-1.0,1651091341926746.0
-2.0,-2.0,-1.0,-3.0,-12.0,-3.0,-1.0,-1.0,1651091341926746.0
1.0,0.0,1.0,-1.0,-2.0,3.0,1.0,-1.0,1651091341940060.0
-2.0,1.0,0.0,7.0,2.0,1.0,-1.0,0.0,1651091341940060.0
-2.0,1.0,0.0,-6.0,-3.0,0.0,-2.0,-2.0,1651091341940938.0
0.0,0.0,-2.0,4.0,7.0,-1.0,-1.0,-1.0,1651091341940938.0
-1.0,-5.0,-6.0,-2.0,-16.0,-1.0,1.0,-1.0,1651091341963488.0
-1.0,3.0,2.0,-5.0,-13.0,-2.0,-2.0,-1.0,1651091341963488.0
1.0,1.0,3.0,6.0,30.0,0.0,0.0,0.0,1651091341963488.0
2.0,1.0,-3.0,-2.0,-38.0,0.0,0.0,-1.0,1651091341963488.0
0.0,-4.0,-5.0,-4.0,6.0,-2.0,-3.0,0.0,1651091341985712.0
-1.0,-3.0,-4.0,-1.0,11.0,-1.0,-1.0,1.0,1651091341985712.0
-1.0,1.0,-1.0,-5.0,-8.0,-1.0,-1.0,0.0,1651091341986595.0
0.0,0.0,3.0,1.0,1.0,1.0,0.0,0.0,1651091341986595.0
-1.0,1.0,2.0,11.0,4.0,-1.0,0.0,-1.0,1651091341999738.0
-1.0,-1.0,-1.0,-6.0,4.0,-1.0,1.0,1.0,1651091341999738.0
0.0,0.0,-3.0,2.0,-18.0,-2.0,-1.0,0.0,1651091342000739.0
-1.0,-2.0,-3.0,-4.0,6.0,-2.0,0.0,-1.0,1651091342000739.0
-1.0,0.0,-2.0,-4.0,-5.0,-1.0,-2.0,0.0,1651091342023035.0
-2.0,-1.0,0.0,-2.0,-12.0,-1.0,0.0,-1.0,1651091342023035.0
1.0,-2.0,1.0,2.0,24.0,2.0,2.0,0.0,1651091342023035.0
1.0,2.0,2.0,5.0,-17.0,3.0,0.0,1.0,1651091342023035.0
0.0,1.0,-3.0,-8.0,-1.0,-2.0,0.0,0.0,1651091342046267.0
-1.0,3.0,1.0,5.0,-18.0,-1.0,1.0,-2.0,1651091342046267.0
0.0,0.0,0.0,5.0,10.0,0.0,-2.0,-1.0,1651091342046267.0
-2.0,-1.0,3.0,0.0,21.0,-2.0,1.0,-3.0,1651091342046267.0
-1.0,-1.0,0.0,-3.0,-3.0,0.0,0.0,0.0,1651091342060363.0
-1.0,-4.0,-3.0,-3.0,10.0,2.0,-1.0,-1.0,1651091342060363.0
-1.0,-1.0,-2.0,-4.0,-13.0,0.0,-1.0,-2.0,1651091342060363.0
-2.0,-1.0,-2.0,5.0,12.0,-1.0,0.0,0.0,1651091342060363.0
-2.0,-1.0,1.0,-6.0,-15.0,-2.0,-1.0,-3.0,1651091342082469.0
-2.0,-1.0,1.0,4.0,1.0,-1.0,0.0,-2.0,1651091342082469.0
-2.0,-1.0,0.0,-1.0,0.0,-2.0,-3.0,1.0,1651091342083469.0
1.0,0.0,1.0,-4.0,-10.0,2.0,-1.0,0.0,1651091342083469.0
2.0,1.0,-1.0,2.0,2.0,0.0,0.0,0.0,1651091342106786.0
0.0,2.0,0.0,-1.0,7.0,0.0,-1.0,-1.0,1651091342106786.0
0.0,-6.0,-2.0,3.0,-2.0,0.0,2.0,0.0,1651091342106786.0
0.0,1.0,0.0,-2.0,-9.0,0.0,-3.0,0.0,1651091342106786.0
-1.0,1.0,2.0,-6.0,5.0,0.0,1.0,-1.0,1651091342119829.0
1.0,0.0,-4.0,5.0,8.0,0.0,-2.0,-1.0,1651091342119829.0
0.0,2.0,3.0,2.0,4.0,1.0,-1.0,-2.0,1651091342120828.0
1.0,-2.0,-1.0,-5.0,-5.0,-2.0,0.0,1.0,1651091342120828.0
0.0,-2.0,-1.0,2.0,-3.0,-2.0,-1.0,0.0,1651091342143125.0
-3.0,-3.0,-2.0,-3.0,-7.0,-1.0,-2.0,0.0,1651091342143125.0
0.0,1.0,-3.0,5.0,11.0,-1.0,1.0,-1.0,1651091342143125.0
-1.0,2.0,2.0,8.0,21.0,1.0,1.0,-2.0,1651091342143125.0
0.0,2.0,0.0,-7.0,-27.0,-4.0,-1.0,-2.0,1651091342164475.0
-1.0,-4.0,0.0,-3.0,49.0,0.0,2.0,0.0,1651091342164475.0
-2.0,-1.0,0.0,-8.0,-25.0,-1.0,1.0,1.0,1651091342172626.0
0.0,0.0,-1.0,-3.0,-5.0,-1.0,-1.0,0.0,1651091342172626.0
0.0,-1.0,-1.0,2.0,12.0,1.0,-1.0,0.0,1651091342180608.0
-1.0,-5.0,-4.0,1.0,-14.0,-1.0,-2.0,0.0,1651091342180608.0
0.0,2.0,1.0,-4.0,0.0,-3.0,-1.0,-2.0,1651091342180608.0
-1.0,-2.0,-2.0,-2.0,6.0,-1.0,-1.0,-2.0,1651091342180608.0
0.0,-1.0,-3.0,0.0,9.0,0.0,-2.0,0.0,1651091342210610.0
0.0,3.0,0.0,-2.0,-11.0,-1.0,-3.0,-1.0,1651091342210610.0
0.0,-2.0,0.0,-1.0,8.0,1.0,1.0,-1.0,1651091342211595.0
0.0,0.0,-4.0,-7.0,-15.0,-2.0,0.0,-1.0,1651091342211595.0
0.0,-3.0,1.0,7.0,10.0,0.0,0.0,0.0,1651091342225861.0
0.0,-1.0,-1.0,3.0,-5.0,1.0,2.0,-1.0,1651091342225861.0
-1.0,-1.0,1.0,-2.0,1.0,-2.0,-1.0,1.0,1651091342226752.0
-2.0,0.0,-1.0,-4.0,-15.0,-1.0,-2.0,0.0,1651091342226752.0
-2.0,-1.0,-2.0,0.0,6.0,0.0,0.0,-1.0,1651091342240034.0
0.0,1.0,1.0,-2.0,4.0,0.0,-2.0,0.0,1651091342240034.0
0.0,0.0,-1.0,1.0,-4.0,-1.0,1.0,0.0,1651091342240914.0
-1.0,-1.0,-2.0,1.0,3.0,1.0,-1.0,0.0,1651091342240914.0
0.0,-1.0,0.0,-3.0,-5.0,2.0,-1.0,0.0,1651091342271296.0
1.0,-2.0,-2.0,-4.0,-11.0,-4.0,0.0,-1.0,1651091342271296.0
0.0,1.0,0.0,1.0,-1.0,-1.0,-2.0,-1.0,1651091342271296.0
1.0,-4.0,-4.0,-4.0,-20.0,-1.0,-1.0,1.0,1651091342271296.0
-2.0,1.0,3.0,2.0,40.0,1.0,1.0,1.0,1651091342285682.0
0.0,0.0,2.0,4.0,-8.0,0.0,2.0,-1.0,1651091342285682.0
-1.0,-1.0,-2.0,-3.0,12.0,1.0,-1.0,-1.0,1651091342286523.0
-1.0,1.0,1.0,1.0,-20.0,-2.0,-1.0,-2.0,1651091342286523.0
0.0,-2.0,-2.0,-9.0,4.0,-2.0,-1.0,0.0,1651091342299718.0
0.0,2.0,0.0,6.0,-4.0,-1.0,-1.0,-2.0,1651091342299718.0
0.0,-1.0,0.0,2.0,-5.0,-1.0,-1.0,-2.0,1651091342300724.0
-2.0,-1.0,1.0,0.0,-1.0,-1.0,-2.0,-2.0,1651091342300724.0
-1.0,0.0,-1.0,-3.0,-3.0,-1.0,1.0,-1.0,1651091342323352.0
0.0,2.0,-2.0,-3.0,-1.0,3.0,0.0,0.0,1651091342323352.0
0.0,-2.0,-4.0,-3.0,8.0,2.0,1.0,1.0,1651091342330377.0
-1.0,-2.0,1.0,2.0,6.0,0.0,0.0,-1.0,1651091342330377.0
-1.0,0.0,-4.0,-5.0,-21.0,-2.0,-1.0,-1.0,1651091342346339.0
0.0,0.0,1.0,2.0,0.0,0.0,0.0,1.0,1651091342346339.0
-1.0,0.0,0.0,5.0,16.0,3.0,1.0,-1.0,1651091342346339.0
-1.0,-1.0,-3.0,-2.0,5.0,-2.0,-1.0,0.0,1651091342346339.0
0.0,2.0,5.0,1.0,1.0,-2.0,0.0,-1.0,1651091342360463.0
0.0,-1.0,0.0,0.0,-18.0,-2.0,0.0,-1.0,1651091342360463.0
1.0,2.0,3.0,6.0,-5.0,0.0,-1.0,0.0,1651091342360463.0
0.0,-1.0,-2.0,-2.0,11.0,0.0,-2.0,-3.0,1651091342360463.0
-1.0,-3.0,-4.0,-1.0,-17.0,-2.0,-1.0,0.0,1651091342382637.0
-2.0,-2.0,0.0,-4.0,18.0,1.0,-2.0,0.0,1651091342382637.0
-1.0,-1.0,-1.0,-5.0,-3.0,-1.0,-1.0,-1.0,1651091342382637.0
0.0,1.0,1.0,-3.0,1.0,-1.0,-2.0,0.0,1651091342382637.0
-1.0,-2.0,0.0,2.0,-3.0,1.0,-1.0,1.0,1651091342405969.0
0.0,-3.0,0.0,-1.0,-9.0,0.0,-2.0,-1.0,1651091342405969.0
-2.0,-1.0,0.0,0.0,3.0,-2.0,-1.0,-2.0,1651091342405969.0
0.0,1.0,0.0,2.0,7.0,2.0,0.0,1.0,1651091342405969.0
0.0,-1.0,1.0,0.0,-1.0,1.0,0.0,0.0,1651091342420513.0
-1.0,-5.0,-5.0,-6.0,0.0,-4.0,-2.0,0.0,1651091342420513.0
0.0,1.0,-1.0,4.0,-22.0,-1.0,-1.0,0.0,1651091342420513.0
-2.0,-1.0,0.0,-4.0,-2.0,0.0,0.0,0.0,1651091342420513.0
2.0,0.0,-1.0,9.0,1.0,5.0,1.0,1.0,1651091342442596.0
-2.0,-1.0,1.0,-9.0,12.0,-2.0,1.0,-2.0,1651091342442596.0
-1.0,-3.0,-5.0,-3.0,-3.0,1.0,0.0,-1.0,1651091342443486.0
0.0,0.0,1.0,1.0,-9.0,-1.0,0.0,1.0,1651091342443486.0
0.0,2.0,1.0,-2.0,-4.0,-3.0,0.0,-1.0,1651091342465733.0
1.0,-1.0,-2.0,-1.0,0.0,-3.0,-1.0,1.0,1651091342465733.0
1.0,1.0,-2.0,-3.0,-1.0,-1.0,-1.0,0.0,1651091342466578.0
0.0,1.0,1.0,4.0,7.0,-1.0,1.0,0.0,1651091342466578.0
2.0,0.0,1.0,-2.0,4.0,-3.0,0.0,-3.0,1651091342480842.0
-2.0,0.0,0.0,4.0,-4.0,0.0,0.0,-1.0,1651091342480842.0
-1.0,-4.0,-2.0,-5.0,0.0,-1.0,-2.0,-2.0,1651091342480842.0
-1.0,0.0,2.0,-2.0,7.0,1.0,-1.0,-1.0,1651091342480842.0
1.0,0.0,2.0,3.0,-1.0,0.0,-2.0,-2.0,1651091342502903.0
2.0,3.0,0.0,5.0,1.0,1.0,-1.0,1.0,1651091342502903.0
-1.0,-1.0,-1.0,1.0,-2.0,-1.0,1.0,1.0,1651091342502903.0
1.0,-3.0,-2.0,1.0,0.0,-2.0,0.0,-1.0,1651091342502903.0
-1.0,0.0,-2.0,-1.0,-1.0,-2.0,-1.0,-1.0,1651091342525168.0
-2.0,0.0,0.0,-6.0,-6.0,0.0,-2.0,0.0,1651091342525168.0
-1.0,-2.0,-3.0,-1.0,-12.0,-1.0,-1.0,-2.0,1651091342526165.0
1.0,-2.0,1.0,5.0,39.0,3.0,0.0,0.0,1651091342526165.0
-2.0,-2.0,-3.0,1.0,0.0,-2.0,-1.0,-1.0,1651091342539358.0
0.0,-1.0,-1.0,-1.0,-7.0,-1.0,1.0,0.0,1651091342539358.0
-1.0,0.0,1.0,-3.0,-3.0,-1.0,0.0,-1.0,1651091342547872.0
-2.0,-1.0,-1.0,-2.0,-16.0,-2.0,0.0,-1.0,1651091342547872.0
0.0,-1.0,-2.0,-5.0,-8.0,1.0,1.0,0.0,1651091342562678.0
-1.0,-3.0,-1.0,0.0,11.0,0.0,1.0,-1.0,1651091342562678.0
-1.0,-1.0,0.0,-5.0,6.0,-2.0,-1.0,-1.0,1651091342563549.0
0.0,2.0,3.0,-5.0,-11.0,-1.0,0.0,0.0,1651091342563549.0
0.0,1.0,-1.0,4.0,21.0,0.0,-1.0,1.0,1651091342585908.0
0.0,-2.0,-2.0,5.0,-9.0,-1.0,-1.0,1.0,1651091342585908.0
-2.0,-2.0,0.0,0.0,1.0,-1.0,-1.0,-1.0,1651091342585908.0
-1.0,-1.0,-1.0,5.0,-9.0,-1.0,0.0,0.0,1651091342585908.0
0.0,-2.0,0.0,-3.0,-10.0,0.0,-1.0,1.0,1651091342598959.0
0.0,1.0,0.0,-4.0,4.0,-1.0,1.0,1.0,1651091342598959.0
0.0,1.0,0.0,4.0,-1.0,0.0,-1.0,-2.0,1651091342607078.0
-2.0,-1.0,-3.0,-1.0,-5.0,-1.0,0.0,-1.0,1651091342607078.0
-2.0,0.0,0.0,0.0,5.0,0.0,-2.0,0.0,1651091342621935.0
-1.0,1.0,2.0,1.0,0.0,-1.0,1.0,-1.0,1651091342621935.0
1.0,1.0,3.0,-4.0,-1.0,1.0,0.0,0.0,1651091342622898.0
-2.0,-1.0,-3.0,-1.0,-13.0,-1.0,0.0,0.0,1651091342622898.0
-1.0,-4.0,-3.0,2.0,9.0,0.0,2.0,-1.0,1651091342645362.0
0.0,1.0,1.0,-3.0,5.0,2.0,0.0,-2.0,1651091342645362.0
-1.0,1.0,-3.0,-4.0,2.0,0.0,-1.0,0.0,1651091342646220.0
0.0,-1.0,1.0,-2.0,7.0,1.0,0.0,-1.0,1651091342646220.0
-1.0,0.0,0.0,-2.0,-17.0,0.0,-1.0,2.0,1651091342659228.0
-1.0,-1.0,0.0,2.0,-12.0,0.0,-2.0,-1.0,1651091342659228.0
0.0,1.0,1.0,1.0,17.0,0.0,-1.0,-1.0,1651091342667938.0
2.0,0.0,-1.0,3.0,5.0,2.0,0.0,0.0,1651091342667938.0
-2.0,-2.0,1.0,0.0,-8.0,-2.0,1.0,0.0,1651091342682754.0
-2.0,-1.0,-3.0,-4.0,-9.0,-3.0,1.0,0.0,1651091342682754.0
-1.0,2.0,4.0,0.0,-8.0,0.0,-1.0,0.0,1651091342682754.0
0.0,-1.0,-4.0,-2.0,3.0,-1.0,0.0,0.0,1651091342682754.0
1.0,-1.0,-1.0,0.0,-3.0,0.0,-1.0,0.0,1651091342713335.0
1.0,1.0,1.0,0.0,-4.0,0.0,-1.0,0.0,1651091342713335.0
-3.0,-2.0,-1.0,1.0,-1.0,0.0,0.0,0.0,1651091342714228.0
-3.0,-2.0,-1.0,-1.0,1.0,0.0,-1.0,-1.0,1651091342714228.0
0.0,1.0,0.0,0.0,3.0,-2.0,0.0,0.0,1651091342719183.0
0.0,-5.0,-5.0,-1.0,4.0,0.0,-1.0,-3.0,1651091342719183.0
1.0,2.0,1.0,-2.0,0.0,-1.0,1.0,0.0,1651091342727972.0
-1.0,2.0,-1.0,2.0,-6.0,-3.0,-1.0,-2.0,1651091342727972.0
1.0,-1.0,0.0,8.0,3.0,-2.0,-1.0,-2.0,1651091342742804.0
-1.0,0.0,-3.0,0.0,4.0,-2.0,0.0,-2.0,1651091342742804.0
0.0,-1.0,0.0,-1.0,-4.0,-2.0,1.0,0.0,1651091342742804.0
-1.0,0.0,-2.0,-5.0,-1.0,2.0,-1.0,0.0,1651091342742804.0
0.0,-3.0,-1.0,-7.0,3.0,-1.0,0.0,0.0,1651091342765744.0
0.0,0.0,-1.0,-1.0,-6.0,-3.0,-2.0,0.0,1651091342765744.0
0.0,-1.0,-3.0,1.0,10.0,1.0,0.0,0.0,1651091342766609.0
-1.0,1.0,1.0,5.0,-6.0,-1.0,-1.0,-1.0,1651091342766609.0
0.0,-2.0,1.0,-1.0,7.0,1.0,0.0,-1.0,1651091342779723.0
-1.0,0.0,1.0,0.0,-8.0,0.0,-2.0,0.0,1651091342779723.0
1.0,-1.0,2.0,-2.0,-3.0,-2.0,-1.0,-2.0,1651091342787836.0
0.0,-3.0,-4.0,-1.0,-1.0,0.0,-2.0,1.0,1651091342787836.0
0.0,0.0,-1.0,-6.0,0.0,-1.0,0.0,0.0,1651091342802906.0
0.0,0.0,1.0,2.0,0.0,0.0,1.0,1.0,1651091342802906.0
1.0,-1.0,-3.0,4.0,3.0,-1.0,-2.0,-1.0,1651091342802906.0
-1.0,-1.0,1.0,-1.0,-3.0,0.0,-1.0,-1.0,1651091342802906.0
-1.0,-1.0,1.0,1.0,-7.0,1.0,-1.0,0.0,1651091342825077.0
-1.0,0.0,-1.0,-5.0,3.0,-2.0,1.0,-1.0,1651091342825077.0
-2.0,1.0,-1.0,-1.0,11.0,1.0,0.0,0.0,1651091342826066.0
2.0,-2.0,0.0,0.0,3.0,0.0,1.0,-1.0,1651091342826066.0
-1.0,0.0,-1.0,0.0,-3.0,-2.0,-1.0,-1.0,1651091342848287.0
1.0,-1.0,4.0,4.0,2.0,0.0,-1.0,1.0,1651091342848287.0
-2.0,0.0,1.0,1.0,-7.0,-4.0,0.0,-1.0,1651091342849260.0
-1.0,0.0,-2.0,-5.0,0.0,0.0,0.0,-1.0,1651091342849260.0
-2.0,1.0,-2.0,-4.0,-4.0,0.0,-2.0,-1.0,1651091342862429.0
0.0,-3.0,-2.0,2.0,2.0,1.0,-1.0,-1.0,1651091342862429.0
0.0,-1.0,-2.0,-1.0,-10.0,0.0,0.0,-1.0,1651091342863428.0
0.0,-4.0,-2.0,-2.0,7.0,-1.0,-2.0,0.0,1651091342863428.0
-1.0,1.0,5.0,0.0,-4.0,0.0,1.0,-1.0,1651091342885815.0
-1.0,0.0,-1.0,-8.0,9.0,0.0,-1.0,1.0,1651091342885815.0
-1.0,0.0,-3.0,2.0,-18.0,1.0,0.0,0.0,1651091342886712.0
-1.0,2.0,6.0,4.0,-8.0,-3.0,-3.0,-1.0,1651091342886712.0
1.0,0.0,-5.0,1.0,18.0,0.0,0.0,-1.0,1651091342907925.0
0.0,-1.0,-3.0,-4.0,-1.0,1.0,0.0,-2.0,1651091342907925.0
-3.0,-6.0,-4.0,-5.0,-1.0,-1.0,0.0,-1.0,1651091342908949.0
-2.0,0.0,-1.0,2.0,-6.0,-1.0,0.0,0.0,1651091342908949.0
1.0,-1.0,1.0,1.0,-6.0,-2.0,-1.0,-1.0,1651091342930989.0
-2.0,0.0,2.0,0.0,2.0,-2.0,-1.0,-1.0,1651091342930989.0
0.0,0.0,-1.0,0.0,-9.0,-1.0,-1.0,-2.0,1651091342930989.0
0.0,-1.0,-1.0,-4.0,10.0,-1.0,0.0,-1.0,1651091342930989.0
-1.0,-1.0,0.0,8.0,2.0,2.0,0.0,-1.0,1651091342946240.0
1.0,-1.0,-4.0,-4.0,-1.0,1.0,-3.0,1.0,1651091342946240.0
-1.0,-3.0,-3.0,4.0,-1.0,-4.0,-2.0,0.0,1651091342946240.0
0.0,2.0,5.0,-3.0,-5.0,-3.0,-5.0,0.0,1651091342946240.0
-3.0,-1.0,-1.0,-4.0,-4.0,-2.0,1.0,-1.0,1651091342968641.0
1.0,0.0,-1.0,3.0,12.0,7.0,14.0,0.0,1651091342968641.0
1.0,1.0,-2.0,-3.0,-2.0,2.0,11.0,2.0,1651091342968641.0
1.0,-1.0,-2.0,-3.0,0.0,-2.0,-11.0,-1.0,1651091342968641.0
0.0,-2.0,-3.0,-4.0,-3.0,-8.0,-13.0,0.0,1651091342982429.0
-2.0,0.0,-1.0,1.0,-15.0,-2.0,1.0,-1.0,1651091342982429.0
1.0,1.0,2.0,0.0,20.0,8.0,3.0,-1.0,1651091342983357.0
0.0,3.0,0.0,2.0,-2.0,-3.0,4.0,0.0,1651091342983357.0
-2.0,-1.0,-3.0,-4.0,-3.0,-6.0,-7.0,1.0,1651091343005840.0
-2.0,-4.0,-1.0,1.0,-2.0,3.0,0.0,-1.0,1651091343005840.0
0.0,-2.0,0.0,-1.0,1.0,-5.0,-8.0,-1.0,1651091343006711.0
-1.0,-1.0,0.0,-4.0,0.0,-1.0,-7.0,-1.0,1651091343006711.0
0.0,1.0,2.0,4.0,0.0,-1.0,9.0,-1.0,1651091343028321.0
-2.0,0.0,-2.0,-4.0,-3.0,-9.0,-10.0,-1.0,1651091343028321.0
-1.0,-4.0,-2.0,1.0,-7.0,2.0,7.0,-1.0,1651091343029166.0
-1.0,1.0,0.0,-6.0,2.0,9.0,-2.0,0.0,1651091343029166.0
-1.0,-2.0,-1.0,-2.0,-2.0,-2.0,-2.0,-2.0,1651091343042167.0
1.0,1.0,1.0,6.0,1.0,-6.0,-1.0,-2.0,1651091343042167.0
-1.0,-1.0,-1.0,1.0,3.0,-15.0,-25.0,-3.0,1651091343043131.0
-3.0,-3.0,-4.0,-3.0,-12.0,-4.0,16.0,0.0,1651091343043131.0
-3.0,-2.0,-3.0,-1.0,20.0,24.0,21.0,0.0,1651091343065603.0
-1.0,0.0,1.0,-1.0,-5.0,-3.0,-32.0,-1.0,1651091343065603.0
4.0,2.0,1.0,-1.0,3.0,7.0,49.0,3.0,1651091343066600.0
0.0,0.0,0.0,1.0,-7.0,0.0,1.0,2.0,1651091343066600.0
0.0,1.0,2.0,-2.0,-2.0,11.0,7.0,2.0,1651091343088770.0
-3.0,-3.0,1.0,0.0,-1.0,-21.0,-20.0,-5.0,1651091343088770.0
-4.0,-2.0,-1.0,-3.0,-6.0,-6.0,-24.0,-7.0,1651091343088770.0
-5.0,-6.0,-3.0,0.0,1.0,-22.0,-16.0,-3.0,1651091343088770.0
-4.0,2.0,0.0,1.0,-3.0,24.0,-20.0,-7.0,1651091343103032.0
9.0,1.0,0.0,-1.0,3.0,42.0,79.0,12.0,1651091343103032.0
9.0,1.0,1.0,2.0,2.0,-32.0,13.0,22.0,1651091343103032.0
5.0,3.0,5.0,4.0,6.0,22.0,1.0,0.0,1651091343103032.0
-1.0,1.0,-4.0,-8.0,-9.0,-24.0,-21.0,3.0,1651091343125102.0
-11.0,-5.0,-4.0,1.0,-1.0,-29.0,-28.0,-13.0,1651091343125102.0
-9.0,-3.0,0.0,-3.0,-4.0,27.0,-10.0,-24.0,1651091343126098.0
-6.0,-2.0,-3.0,-1.0,2.0,5.0,1.0,17.0,1651091343126098.0
-5.0,-3.0,-3.0,0.0,-6.0,-15.0,10.0,-19.0,1651091343148606.0
20.0,5.0,3.0,-2.0,-2.0,10.0,-2.0,34.0,1651091343148606.0
12.0,3.0,-2.0,-1.0,1.0,18.0,6.0,6.0,1651091343148606.0
-3.0,-1.0,-2.0,0.0,3.0,-2.0,5.0,11.0,1651091343148606.0
-13.0,-2.0,3.0,-2.0,-4.0,7.0,18.0,-35.0,1651091343162902.0
-1.0,-3.0,-1.0,0.0,1.0,19.0,-14.0,24.0,1651091343162902.0
-12.0,0.0,2.0,2.0,1.0,-25.0,7.0,-32.0,1651091343163618.0
4.0,2.0,-1.0,3.0,4.0,8.0,2.0,0.0,1651091343163618.0
16.0,3.0,2.0,3.0,-2.0,14.0,19.0,56.0,1651091343185911.0
-7.0,-2.0,-2.0,-1.0,-1.0,-22.0,-27.0,-36.0,1651091343185911.0
-16.0,-3.0,-3.0,-6.0,2.0,8.0,-17.0,-19.0,1651091343186778.0
4.0,1.0,4.0,4.0,-3.0,-2.0,16.0,9.0,1651091343186778.0
-24.0,-5.0,-1.0,3.0,3.0,12.0,-4.0,-54.0,1651091343207896.0
14.0,3.0,2.0,-4.0,0.0,17.0,-21.0,5.0,1651091343207896.0
34.0,6.0,2.0,-5.0,5.0,-8.0,17.0,93.0,1651091343208930.0
-12.0,-1.0,-2.0,-1.0,2.0,25.0,-12.0,-50.0,1651091343208930.0
2.0,0.0,1.0,-1.0,3.0,-19.0,8.0,18.0,1651091343223022.0
-9.0,-3.0,0.0,-6.0,-7.0,-17.0,17.0,-29.0,1651091343223022.0
-27.0,-5.0,-3.0,3.0,-3.0,-20.0,-21.0,-65.0,1651091343223022.0
-16.0,-6.0,-4.0,1.0,0.0,17.0,-15.0,-37.0,1651091343223022.0
16.0,4.0,1.0,3.0,-2.0,-14.0,0.0,13.0,1651091343245314.0
18.0,4.0,-1.0,1.0,3.0,36.0,-14.0,41.0,1651091343245314.0
3.0,-3.0,0.0,-2.0,-3.0,-10.0,-5.0,58.0,1651091343246280.0
35.0,8.0,1.0,-3.0,4.0,14.0,35.0,35.0,1651091343246280.0
-10.0,-4.0,-3.0,-1.0,-5.0,20.0,-45.0,-13.0,1651091343268617.0
-20.0,-4.0,0.0,0.0,-3.0,-33.0,23.0,-46.0,1651091343268617.0
-25.0,-3.0,-2.0,-2.0,-5.0,-17.0,-27.0,-71.0,1651091343268617.0
-6.0,-5.0,-3.0,-1.0,2.0,92.0,-17.0,0.0,1651091343268617.0
29.0,5.0,2.0,-6.0,-8.0,-40.0,-15.0,70.0,1651091343282489.0
