,EMG_s0,EMG_s1,EMG_s2,EMG_s3,EMG_s4,EMG_s5,EMG_s6,EMG_s7,timestamp,signal
0,3.0,3.0,1.0,-1.0,4.0,3.0,1.0,0.0,1651024690853964.0,0
1,-3.0,-1.0,-1.0,0.0,-2.0,-2.0,-2.0,0.0,1651024690853964.0,0
2,0.0,1.0,2.0,4.0,1.0,2.0,1.0,-2.0,1651024690866009.0,0
3,0.0,0.0,-5.0,-3.0,-2.0,-1.0,-1.0,0.0,1651024690866009.0,0
4,-1.0,2.0,1.0,0.0,-7.0,-1.0,-2.0,1.0,1651024690873027.0,0
5,3.0,-3.0,0.0,1.0,12.0,-1.0,0.0,-3.0,1651024690873027.0,0
6,0.0,1.0,1.0,-2.0,-6.0,1.0,0.0,-2.0,1651024690888951.0,0
7,-2.0,1.0,0.0,0.0,4.0,3.0,-1.0,-2.0,1651024690888951.0,0
8,0.0,-1.0,-3.0,-1.0,-8.0,-1.0,0.0,1.0,1651024690896929.0,0
9,-2.0,-2.0,-1.0,0.0,-1.0,-2.0,-2.0,0.0,1651024690896929.0,0
10,-2.0,-7.0,-5.0,0.0,6.0,4.0,-1.0,0.0,1651024690911909.0,0
11,1.0,1.0,0.0,1.0,-5.0,-2.0,0.0,-1.0,1651024690911909.0,0
12,-1.0,-4.0,-2.0,-2.0,3.0,1.0,-1.0,-1.0,1651024690913905.0,0
13,1.0,-1.0,0.0,-1.0,4.0,-2.0,0.0,-1.0,1651024690913905.0,0
14,0.0,-2.0,-2.0,0.0,-1.0,1.0,-1.0,0.0,1651024690925909.0,0
15,-1.0,-3.0,0.0,-1.0,-7.0,-3.0,1.0,-2.0,1651024690925909.0,0
16,-2.0,-1.0,-1.0,4.0,8.0,0.0,-1.0,1.0,1651024690934829.0,0
17,-1.0,0.0,0.0,0.0,-5.0,-1.0,0.0,-2.0,1651024690934829.0,0
18,0.0,6.0,0.0,-2.0,-4.0,-3.0,-1.0,-1.0,1651024690949945.0,0
19,1.0,-5.0,-2.0,1.0,4.0,3.0,0.0,1.0,1651024690949945.0,0
20,-1.0,-1.0,0.0,0.0,-13.0,-3.0,-1.0,-4.0,1651024690950899.0,0
21,0.0,5.0,1.0,1.0,10.0,2.0,-2.0,-1.0,1651024690950899.0,0
22,0.0,1.0,1.0,2.0,0.0,0.0,-1.0,0.0,1651024690971936.0,0
23,0.0,1.0,0.0,0.0,-1.0,2.0,-2.0,-1.0,1651024690971936.0,0
24,-3.0,-4.0,-1.0,-2.0,1.0,0.0,1.0,-2.0,1651024690973923.0,0
25,1.0,5.0,0.0,-1.0,-7.0,-1.0,-1.0,0.0,1651024690973923.0,0
26,-2.0,-8.0,-2.0,-1.0,-2.0,-2.0,-1.0,-1.0,1651024690985697.0,0
27,-1.0,1.0,0.0,0.0,-2.0,-2.0,-1.0,0.0,1651024690985697.0,0
28,0.0,0.0,-2.0,-1.0,-1.0,-1.0,-1.0,1.0,1651024690994486.0,0
29,-1.0,-4.0,-1.0,-2.0,-9.0,-2.0,-3.0,0.0,1651024690994486.0,0
30,-3.0,0.0,-1.0,-2.0,8.0,0.0,-2.0,-1.0,1651024691017453.0,0
31,0.0,-2.0,-1.0,-3.0,2.0,4.0,0.0,-1.0,1651024691017453.0,0
32,1.0,4.0,-1.0,-3.0,0.0,-3.0,0.0,-1.0,1651024691018428.0,0
33,-1.0,-1.0,-1.0,-1.0,-4.0,-3.0,-1.0,0.0,1651024691018428.0,0
34,-3.0,1.0,0.0,2.0,-5.0,-2.0,0.0,-1.0,1651024691032425.0,0
35,-2.0,-6.0,-3.0,0.0,-3.0,-1.0,-2.0,-3.0,1651024691032425.0,0
36,-1.0,-2.0,0.0,0.0,5.0,3.0,0.0,-1.0,1651024691033397.0,0
37,1.0,-2.0,-2.0,-4.0,-12.0,1.0,1.0,0.0,1651024691033397.0,0
38,1.0,-1.0,-1.0,2.0,11.0,-1.0,-2.0,2.0,1651024691045605.0,0
39,1.0,5.0,0.0,0.0,2.0,0.0,-1.0,0.0,1651024691045605.0,0
40,0.0,-2.0,-2.0,-1.0,-8.0,-3.0,-1.0,0.0,1651024691054921.0,0
41,0.0,1.0,0.0,0.0,2.0,1.0,1.0,-1.0,1651024691054921.0,0
42,-4.0,-6.0,2.0,1.0,-2.0,1.0,0.0,-1.0,1651024691069866.0,0
43,0.0,2.0,-1.0,-1.0,-1.0,0.0,-3.0,-1.0,1651024691069866.0,0
44,-2.0,-5.0,0.0,0.0,-1.0,-2.0,-2.0,-1.0,1651024691070796.0,0
45,-1.0,1.0,-1.0,-2.0,-1.0,-3.0,-2.0,-1.0,1651024691070796.0,0
46,1.0,-4.0,-1.0,-4.0,-17.0,-4.0,1.0,-1.0,1651024691092251.0,0
47,-2.0,3.0,0.0,1.0,15.0,3.0,0.0,1.0,1651024691092251.0,0
48,-1.0,-3.0,1.0,2.0,-2.0,1.0,0.0,1.0,1651024691093190.0,0
49,-1.0,-2.0,-1.0,0.0,1.0,0.0,-2.0,-1.0,1651024691093190.0,0
50,3.0,3.0,1.0,0.0,-20.0,-6.0,-2.0,0.0,1651024691105426.0,0
51,-2.0,-2.0,1.0,-3.0,3.0,1.0,2.0,1.0,1651024691105426.0,0
52,1.0,3.0,1.0,2.0,6.0,2.0,-1.0,-1.0,1651024691114895.0,0
53,-1.0,3.0,1.0,2.0,-1.0,0.0,-1.0,-1.0,1651024691114895.0,0
54,-1.0,-14.0,-4.0,-4.0,-3.0,-1.0,0.0,0.0,1651024691136990.0,0
55,3.0,7.0,0.0,-2.0,-6.0,-3.0,-1.0,0.0,1651024691136990.0,0
56,-3.0,-7.0,2.0,4.0,15.0,1.0,-1.0,0.0,1651024691138931.0,0
57,-1.0,1.0,-1.0,-2.0,-7.0,-1.0,-1.0,-2.0,1651024691138931.0,0
58,-2.0,2.0,-2.0,-2.0,5.0,0.0,0.0,-1.0,1651024691151963.0,0
59,-1.0,3.0,0.0,0.0,-5.0,-3.0,0.0,0.0,1651024691151963.0,0
60,-2.0,0.0,-1.0,-1.0,-5.0,-3.0,0.0,-2.0,1651024691153911.0,0
61,1.0,-3.0,-1.0,0.0,5.0,1.0,-1.0,0.0,1651024691153911.0,0
62,0.0,3.0,2.0,-1.0,4.0,1.0,0.0,-1.0,1651024691165927.0,0
63,-2.0,-7.0,-3.0,-2.0,-4.0,-3.0,-1.0,0.0,1651024691165927.0,0
64,1.0,3.0,0.0,-3.0,-22.0,-8.0,-2.0,-2.0,1651024691174591.0,0
65,-1.0,-6.0,-3.0,-2.0,21.0,8.0,-1.0,1.0,1651024691174591.0,0
66,0.0,-1.0,-2.0,-1.0,1.0,1.0,1.0,0.0,1651024691189559.0,0
67,3.0,2.0,4.0,3.0,-1.0,-2.0,0.0,1.0,1651024691189559.0,0
68,-6.0,-8.0,-4.0,-1.0,-6.0,-1.0,0.0,-2.0,1651024691190575.0,0
69,1.0,2.0,0.0,-3.0,-3.0,-3.0,-1.0,0.0,1651024691190575.0,0
70,1.0,6.0,2.0,2.0,8.0,2.0,-1.0,0.0,1651024691211822.0,0
71,0.0,-5.0,-2.0,0.0,-1.0,-3.0,0.0,0.0,1651024691211822.0,0
72,2.0,0.0,-1.0,0.0,-1.0,0.0,0.0,0.0,1651024691213815.0,0
73,0.0,0.0,0.0,1.0,-2.0,0.0,0.0,-1.0,1651024691213815.0,0
74,-2.0,-1.0,-3.0,0.0,0.0,0.0,0.0,1.0,1651024691226052.0,0
75,0.0,2.0,1.0,-2.0,-4.0,0.0,-1.0,-1.0,1651024691226052.0,0
76,0.0,2.0,-1.0,-2.0,2.0,-2.0,-1.0,0.0,1651024691235068.0,0
77,-1.0,-7.0,-1.0,1.0,-3.0,-1.0,-1.0,-2.0,1651024691235068.0,0
78,2.0,0.0,2.0,3.0,3.0,0.0,1.0,-2.0,1651024691257438.0,0
79,-3.0,2.0,1.0,0.0,-3.0,0.0,-1.0,-2.0,1651024691257438.0,0
80,0.0,1.0,-2.0,-4.0,2.0,1.0,0.0,0.0,1651024691258409.0,0
81,0.0,3.0,0.0,-2.0,0.0,-1.0,-1.0,-1.0,1651024691258409.0,0
82,1.0,-3.0,-1.0,-2.0,-5.0,-3.0,-3.0,-1.0,1651024691272374.0,0
83,0.0,-2.0,-1.0,0.0,8.0,6.0,-1.0,-1.0,1651024691272374.0,0
84,2.0,4.0,4.0,3.0,1.0,1.0,1.0,1.0,1651024691273370.0,0
85,-2.0,-3.0,-2.0,-2.0,-1.0,0.0,1.0,0.0,1651024691273370.0,0
86,0.0,3.0,2.0,0.0,-5.0,-1.0,-2.0,0.0,1651024691285824.0,0
87,0.0,-6.0,-4.0,-2.0,0.0,-2.0,0.0,-2.0,1651024691285824.0,0
88,1.0,3.0,-1.0,-1.0,3.0,3.0,-1.0,1.0,1651024691294666.0,0
89,0.0,-7.0,0.0,-1.0,-11.0,-5.0,-1.0,0.0,1651024691294666.0,0
90,-1.0,-2.0,-2.0,0.0,-2.0,-3.0,-1.0,-2.0,1651024691309621.0,0
91,-2.0,5.0,1.0,3.0,12.0,4.0,0.0,-1.0,1651024691309621.0,0
92,1.0,-3.0,-1.0,0.0,-6.0,-1.0,-1.0,1.0,1651024691310618.0,0
93,0.0,2.0,-2.0,-1.0,4.0,0.0,0.0,0.0,1651024691310618.0,0
94,-3.0,1.0,0.0,-3.0,-5.0,0.0,-1.0,-2.0,1651024691331622.0,0
95,-1.0,2.0,1.0,0.0,-2.0,-1.0,0.0,-1.0,1651024691331622.0,0
96,-2.0,2.0,0.0,1.0,4.0,0.0,-1.0,-2.0,1651024691333557.0,0
97,0.0,0.0,-1.0,1.0,-4.0,-2.0,0.0,0.0,1651024691333557.0,0
98,0.0,-2.0,-1.0,-3.0,1.0,0.0,1.0,1.0,1651024691354568.0,0
99,-1.0,-3.0,-3.0,-5.0,-16.0,-3.0,0.0,0.0,1651024691354568.0,0
100,-1.0,1.0,1.0,-2.0,21.0,6.0,-1.0,-1.0,1651024691356501.0,0
101,-4.0,-3.0,-3.0,0.0,-1.0,1.0,0.0,-2.0,1651024691356501.0,0
102,2.0,1.0,-1.0,-1.0,-2.0,-2.0,0.0,0.0,1651024691369017.0,0
103,-1.0,1.0,0.0,1.0,-1.0,-3.0,0.0,-2.0,1651024691369017.0,0
104,-1.0,6.0,0.0,1.0,-9.0,-4.0,-1.0,-3.0,1651024691376000.0,0
105,-2.0,-9.0,-2.0,-2.0,1.0,1.0,-1.0,-1.0,1651024691376000.0,0
106,0.0,0.0,-1.0,0.0,2.0,2.0,0.0,0.0,1651024691392014.0,0
107,2.0,1.0,0.0,-3.0,-20.0,-7.0,-2.0,0.0,1651024691392014.0,0
108,-3.0,-7.0,-2.0,4.0,22.0,5.0,-1.0,0.0,1651024691393959.0,0
109,-1.0,3.0,1.0,4.0,2.0,1.0,1.0,0.0,1651024691393959.0,0
110,0.0,5.0,-1.0,0.0,-7.0,-4.0,0.0,1.0,1651024691414949.0,0
111,-1.0,-3.0,-2.0,-2.0,-1.0,-1.0,-1.0,0.0,1651024691414949.0,0
112,0.0,1.0,0.0,-1.0,-7.0,-2.0,-2.0,0.0,1651024691416904.0,0
113,2.0,0.0,2.0,2.0,0.0,-5.0,-1.0,0.0,1651024691416904.0,0
114,-3.0,-4.0,-2.0,-1.0,3.0,7.0,0.0,-1.0,1651024691429908.0,0
115,-1.0,-2.0,0.0,-1.0,4.0,0.0,1.0,1.0,1651024691429908.0,0
116,0.0,-4.0,-1.0,-2.0,-5.0,-2.0,1.0,0.0,1651024691430839.0,0
117,-1.0,-3.0,-4.0,-4.0,-1.0,-1.0,0.0,0.0,1651024691430839.0,0
118,-1.0,2.0,-1.0,1.0,-1.0,-3.0,0.0,0.0,1651024691450847.0,0
119,1.0,6.0,1.0,0.0,-10.0,-3.0,-1.0,0.0,1651024691450847.0,0
120,-1.0,-10.0,-2.0,-2.0,12.0,4.0,1.0,0.0,1651024691459761.0,0
121,-1.0,-1.0,0.0,0.0,-5.0,1.0,-1.0,1.0,1651024691459761.0,0
122,1.0,7.0,1.0,-5.0,-6.0,-1.0,0.0,0.0,1651024691474923.0,0
123,-7.0,-20.0,-2.0,4.0,13.0,2.0,-2.0,-1.0,1651024691474923.0,0
124,1.0,1.0,-1.0,0.0,-9.0,-5.0,-1.0,-1.0,1651024691475883.0,0
125,0.0,11.0,1.0,-3.0,-5.0,-2.0,-2.0,0.0,1651024691475883.0,0
126,0.0,0.0,0.0,1.0,15.0,7.0,0.0,-1.0,1651024691497408.0,0
127,0.0,5.0,1.0,-1.0,-7.0,-2.0,1.0,1.0,1651024691497408.0,0
128,-1.0,-3.0,-3.0,-1.0,-5.0,1.0,-1.0,0.0,1651024691498894.0,0
129,0.0,-3.0,0.0,2.0,8.0,1.0,0.0,0.0,1651024691498894.0,0
130,0.0,-3.0,-1.0,-1.0,-4.0,-1.0,-3.0,-1.0,1651024691510904.0,0
131,1.0,4.0,1.0,-1.0,5.0,1.0,1.0,1.0,1651024691510904.0,0
132,-4.0,-9.0,-7.0,-3.0,-7.0,-4.0,-1.0,-1.0,1651024691519812.0,0
133,0.0,3.0,0.0,0.0,-2.0,-1.0,-1.0,-1.0,1651024691519812.0,0
134,-2.0,-3.0,-1.0,1.0,1.0,0.0,0.0,-2.0,1651024691534904.0,0
135,-1.0,-4.0,-3.0,-1.0,3.0,-2.0,0.0,-1.0,1651024691534904.0,0
136,2.0,7.0,0.0,-2.0,6.0,-1.0,1.0,0.0,1651024691535906.0,0
137,-1.0,1.0,1.0,0.0,-3.0,2.0,1.0,-2.0,1651024691535906.0,0
138,-3.0,-14.0,-4.0,1.0,2.0,-2.0,0.0,-1.0,1651024691556950.0,0
139,1.0,3.0,1.0,1.0,12.0,2.0,0.0,-3.0,1651024691556950.0,0
140,3.0,6.0,1.0,-2.0,-13.0,-2.0,1.0,-2.0,1651024691558944.0,0
141,-1.0,-1.0,-2.0,-1.0,2.0,-2.0,-1.0,0.0,1651024691558944.0,0
142,-1.0,1.0,0.0,-3.0,-2.0,-1.0,-1.0,1.0,1651024691570912.0,0
143,0.0,2.0,1.0,-3.0,-7.0,-1.0,0.0,1.0,1651024691570912.0,0
144,-1.0,0.0,1.0,-1.0,-4.0,-3.0,-1.0,0.0,1651024691579888.0,0
145,3.0,-1.0,-1.0,1.0,6.0,3.0,-1.0,-2.0,1651024691579888.0,0
146,-2.0,-4.0,-1.0,0.0,7.0,5.0,0.0,0.0,1651024691594142.0,0
147,3.0,2.0,0.0,0.0,-1.0,1.0,-1.0,1.0,1651024691594142.0,0
148,-4.0,-9.0,0.0,-2.0,0.0,-1.0,-1.0,0.0,1651024691596070.0,0
149,0.0,7.0,-1.0,-2.0,-5.0,-2.0,-1.0,-1.0,1651024691596070.0,0
150,1.0,-5.0,-2.0,-2.0,-3.0,-4.0,0.0,1.0,1651024691617383.0,0
151,-1.0,0.0,0.0,0.0,3.0,0.0,1.0,-1.0,1651024691617383.0,0
152,0.0,2.0,1.0,0.0,-4.0,-1.0,0.0,-1.0,1651024691618899.0,0
153,0.0,-1.0,-1.0,0.0,-1.0,1.0,-1.0,0.0,1651024691618899.0,0
154,-2.0,-1.0,-3.0,-6.0,-6.0,-1.0,0.0,-1.0,1651024691630906.0,0
155,-3.0,-7.0,-2.0,1.0,5.0,0.0,-3.0,-1.0,1651024691630906.0,0
156,-1.0,3.0,1.0,4.0,9.0,5.0,-1.0,0.0,1651024691639815.0,0
157,0.0,-4.0,-1.0,-2.0,-5.0,0.0,0.0,-1.0,1651024691639815.0,0
158,2.0,3.0,0.0,1.0,6.0,0.0,0.0,-1.0,1651024691654843.0,0
159,-3.0,-4.0,-3.0,-5.0,-14.0,-3.0,0.0,0.0,1651024691654843.0,0
160,1.0,8.0,-1.0,-2.0,-6.0,-3.0,0.0,-1.0,1651024691655772.0,0
161,-4.0,-15.0,-5.0,-3.0,14.0,0.0,-1.0,0.0,1651024691655772.0,0
162,-3.0,1.0,0.0,1.0,-2.0,4.0,-1.0,-1.0,1651024691676783.0,0
163,2.0,8.0,4.0,5.0,0.0,0.0,-1.0,1.0,1651024691676783.0,0
164,-3.0,-9.0,-6.0,-3.0,0.0,0.0,-1.0,0.0,1651024691678738.0,0
165,2.0,5.0,1.0,-1.0,-9.0,-4.0,-1.0,0.0,1651024691678738.0,0
166,1.0,-2.0,1.0,0.0,-3.0,-3.0,-2.0,-1.0,1651024691690709.0,0
167,-1.0,3.0,1.0,2.0,5.0,4.0,0.0,0.0,1651024691690709.0,0
168,-1.0,-1.0,-1.0,-4.0,-4.0,0.0,-1.0,0.0,1651024691699654.0,0
169,3.0,8.0,2.0,2.0,-1.0,-1.0,0.0,0.0,1651024691699654.0,0
170,-4.0,-7.0,-1.0,-1.0,-5.0,-2.0,0.0,-1.0,1651024691714674.0,0
171,0.0,-2.0,-2.0,-1.0,-8.0,-5.0,-1.0,-3.0,1651024691714674.0,0
172,0.0,-1.0,-2.0,0.0,7.0,1.0,0.0,1.0,1651024691715766.0,0
173,1.0,4.0,-1.0,-15.0,-10.0,3.0,0.0,1.0,1651024691715766.0,0
174,-1.0,1.0,-2.0,7.0,3.0,-2.0,0.0,1.0,1651024691737346.0,0
175,1.0,-3.0,6.0,9.0,-2.0,-2.0,0.0,0.0,1651024691737346.0,0
176,-4.0,4.0,1.0,0.0,4.0,-1.0,-1.0,-3.0,1651024691738869.0,0
177,2.0,5.0,3.0,1.0,8.0,3.0,0.0,1.0,1651024691738869.0,0
178,1.0,16.0,0.0,-11.0,-13.0,-5.0,-1.0,-1.0,1651024691750902.0,0
179,-3.0,-24.0,-6.0,0.0,10.0,3.0,-1.0,-2.0,1651024691750902.0,0
180,4.0,19.0,4.0,-2.0,-3.0,0.0,0.0,1.0,1651024691759820.0,0
181,-6.0,-10.0,-5.0,0.0,1.0,-1.0,0.0,-1.0,1651024691759820.0,0
182,0.0,0.0,1.0,3.0,2.0,0.0,-1.0,0.0,1651024691774985.0,0
183,-1.0,4.0,-1.0,-5.0,-4.0,-2.0,0.0,1.0,1651024691774985.0,0
184,0.0,0.0,4.0,1.0,-5.0,-1.0,-1.0,-1.0,1651024691775985.0,0
185,-1.0,-2.0,-1.0,-1.0,-3.0,-1.0,1.0,-1.0,1651024691775985.0,0
186,-3.0,-21.0,-4.0,6.0,12.0,0.0,0.0,-2.0,1651024691797113.0,0
187,-4.0,19.0,-3.0,-14.0,-8.0,-2.0,-1.0,-2.0,1651024691797113.0,0
188,-2.0,-12.0,-6.0,-11.0,-24.0,-5.0,1.0,-2.0,1651024691799041.0,0
189,3.0,13.0,-3.0,11.0,16.0,3.0,0.0,0.0,1651024691799041.0,0
190,-1.0,6.0,17.0,10.0,7.0,4.0,0.0,-4.0,1651024691811009.0,0
191,7.0,7.0,-6.0,12.0,5.0,-2.0,2.0,0.0,1651024691811009.0,0
192,-4.0,-16.0,-9.0,-13.0,-6.0,2.0,0.0,1.0,1651024691819985.0,0
193,5.0,21.0,24.0,16.0,-6.0,-2.0,1.0,3.0,1651024691819985.0,0
194,-5.0,-25.0,-24.0,-10.0,9.0,5.0,0.0,1.0,1651024691835028.0,0
195,5.0,15.0,9.0,-4.0,3.0,3.0,0.0,2.0,1651024691835028.0,0
196,-2.0,-15.0,-26.0,-16.0,-3.0,-3.0,-1.0,-3.0,1651024691835899.0,0
197,5.0,10.0,4.0,34.0,14.0,-3.0,-2.0,0.0,1651024691835899.0,0
198,-4.0,8.0,30.0,0.0,-2.0,3.0,2.0,2.0,1651024691856958.0,0
199,-2.0,-7.0,-12.0,-14.0,-14.0,-3.0,-5.0,-1.0,1651024691856958.0,0
200,8.0,12.0,-2.0,8.0,7.0,2.0,2.0,1.0,1651024691858953.0,0
201,-5.0,-2.0,20.0,20.0,7.0,0.0,-19.0,-9.0,1651024691858953.0,0
202,5.0,16.0,15.0,10.0,11.0,7.0,17.0,8.0,1651024691879908.0,0
203,-4.0,-28.0,-30.0,-40.0,-14.0,-3.0,3.0,-2.0,1651024691879908.0,1
204,-7.0,0.0,5.0,20.0,10.0,-1.0,-5.0,-4.0,1651024691880894.0,1
205,4.0,-13.0,-33.0,-30.0,-9.0,0.0,4.0,4.0,1651024691880894.0,1
206,0.0,7.0,-9.0,8.0,-13.0,-10.0,-10.0,-8.0,1651024691893894.0,1
207,-8.0,2.0,30.0,42.0,27.0,8.0,-1.0,-1.0,1651024691893894.0,1
208,-3.0,-11.0,0.0,-27.0,-9.0,-1.0,7.0,4.0,1651024691900906.0,1
209,-4.0,-6.0,-21.0,-45.0,-22.0,-11.0,-11.0,-9.0,1651024691900906.0,1
210,-9.0,-21.0,4.0,37.0,15.0,0.0,2.0,1.0,1651024691917385.0,1
211,-2.0,5.0,-3.0,-40.0,-5.0,-2.0,-3.0,-1.0,1651024691917385.0,1
212,0.0,-1.0,-16.0,17.0,-6.0,-6.0,-34.0,-11.0,1651024691918868.0,1
213,3.0,0.0,22.0,17.0,9.0,4.0,23.0,10.0,1651024691918868.0,1
214,12.0,22.0,-13.0,-33.0,-12.0,3.0,13.0,7.0,1651024691939873.0,1
215,-17.0,-12.0,26.0,42.0,1.0,-9.0,-31.0,-21.0,1651024691939873.0,1
216,6.0,12.0,8.0,-10.0,8.0,12.0,26.0,13.0,1651024691940810.0,1
217,2.0,2.0,-19.0,-17.0,-10.0,-17.0,-24.0,-11.0,1651024691940810.0,1
218,-1.0,-13.0,-30.0,-10.0,-3.0,-4.0,-8.0,-3.0,1651024691953860.0,1
219,6.0,10.0,29.0,23.0,14.0,7.0,21.0,11.0,1651024691953860.0,1
220,3.0,17.0,27.0,27.0,1.0,15.0,1.0,-1.0,1651024691960918.0,1
221,-16.0,-40.0,-48.0,-18.0,-6.0,-20.0,-16.0,-10.0,1651024691960918.0,1
222,-3.0,8.0,-2.0,-13.0,-4.0,17.0,-24.0,-19.0,1651024691976991.0,1
223,5.0,-3.0,-11.0,-44.0,-9.0,14.0,47.0,24.0,1651024691976991.0,1
224,2.0,3.0,26.0,73.0,26.0,-1.0,4.0,2.0,1651024691978946.0,1
225,-2.0,-20.0,-34.0,-32.0,-20.0,0.0,18.0,7.0,1651024691978946.0,1
226,3.0,22.0,54.0,1.0,-5.0,-32.0,-23.0,-5.0,1651024691999405.0,1
227,-17.0,-30.0,-63.0,23.0,-2.0,2.0,-39.0,-30.0,1651024691999405.0,1
228,-6.0,-14.0,0.0,-32.0,-32.0,-15.0,20.0,6.0,1651024692005539.0,1
229,2.0,15.0,10.0,32.0,30.0,12.0,-2.0,2.0,1651024692005539.0,1
230,-4.0,-19.0,-7.0,-22.0,-15.0,-3.0,-27.0,-17.0,1651024692013418.0,1
231,18.0,35.0,3.0,-33.0,-12.0,3.0,48.0,29.0,1651024692013418.0,1
232,-11.0,-21.0,16.0,8.0,11.0,-1.0,-1.0,-6.0,1651024692020467.0,1
233,-5.0,-7.0,-3.0,7.0,6.0,4.0,-11.0,-2.0,1651024692020467.0,1
234,1.0,5.0,1.0,2.0,2.0,3.0,0.0,5.0,1651024692036963.0,1
235,-3.0,-19.0,-3.0,20.0,0.0,-14.0,-19.0,-11.0,1651024692036963.0,1
236,6.0,11.0,10.0,-21.0,-17.0,-8.0,11.0,2.0,1651024692038919.0,1
237,-6.0,-12.0,7.0,9.0,18.0,12.0,-31.0,-8.0,1651024692038919.0,1
238,7.0,20.0,1.0,3.0,6.0,10.0,55.0,15.0,1651024692059924.0,1
239,-4.0,-10.0,-3.0,-2.0,-1.0,-4.0,-4.0,0.0,1651024692059924.0,1
240,-6.0,-3.0,-5.0,-3.0,-11.0,-18.0,-40.0,-20.0,1651024692060902.0,1
241,6.0,8.0,3.0,-53.0,-26.0,4.0,61.0,26.0,1651024692060902.0,1
242,-1.0,7.0,3.0,56.0,17.0,0.0,4.0,5.0,1651024692073865.0,1
243,-4.0,-25.0,-18.0,-9.0,-7.0,-8.0,-1.0,-2.0,1651024692073865.0,1
244,4.0,13.0,5.0,-8.0,0.0,-1.0,-1.0,5.0,1651024692080903.0,1
245,-5.0,3.0,25.0,-3.0,-2.0,4.0,-6.0,-9.0,1651024692080903.0,1
246,2.0,-20.0,-41.0,-21.0,-13.0,-3.0,-11.0,2.0,1651024692096904.0,1
247,-12.0,-18.0,-23.0,-25.0,4.0,-5.0,14.0,-1.0,1651024692096904.0,1
248,6.0,20.0,12.0,26.0,29.0,13.0,-27.0,-10.0,1651024692098871.0,1
249,-6.0,-12.0,1.0,-5.0,-14.0,-5.0,21.0,8.0,1651024692098871.0,1
250,0.0,-3.0,12.0,-7.0,-11.0,-10.0,-7.0,1.0,1651024692120022.0,1
251,6.0,24.0,30.0,22.0,3.0,2.0,-12.0,-5.0,1651024692120022.0,1
252,-1.0,-15.0,-43.0,-23.0,-5.0,0.0,7.0,3.0,1651024692120990.0,1
253,0.0,4.0,12.0,9.0,13.0,-2.0,2.0,-2.0,1651024692120990.0,1
254,-2.0,-11.0,-14.0,-7.0,-3.0,6.0,-8.0,-8.0,1651024692133392.0,1
255,8.0,18.0,26.0,2.0,-5.0,-27.0,-10.0,0.0,1651024692133392.0,1
256,1.0,4.0,-12.0,-8.0,-2.0,55.0,30.0,9.0,1651024692142371.0,1
257,1.0,-4.0,6.0,-3.0,-11.0,-19.0,-7.0,-3.0,1651024692142371.0,1
258,-3.0,-6.0,-13.0,-13.0,8.0,25.0,7.0,-1.0,1651024692157375.0,1
259,-2.0,12.0,2.0,5.0,-2.0,-3.0,-26.0,-12.0,1651024692157375.0,1
260,1.0,-9.0,2.0,-6.0,-2.0,-9.0,32.0,9.0,1651024692163359.0,1
261,1.0,9.0,12.0,18.0,5.0,-4.0,-14.0,-4.0,1651024692163359.0,1
262,4.0,6.0,2.0,-1.0,4.0,-2.0,13.0,7.0,1651024692179316.0,1
263,4.0,2.0,6.0,7.0,-2.0,2.0,-13.0,-5.0,1651024692179316.0,1
264,-1.0,-8.0,-21.0,-18.0,-24.0,-23.0,-17.0,-5.0,1651024692181312.0,1
265,5.0,10.0,-4.0,1.0,26.0,21.0,-4.0,-7.0,1651024692181312.0,1
266,0.0,-9.0,-11.0,-14.0,-3.0,-8.0,45.0,20.0,1651024692193315.0,1
267,6.0,24.0,34.0,-5.0,-5.0,7.0,10.0,7.0,1651024692193315.0,1
268,-1.0,-4.0,15.0,63.0,20.0,-4.0,-12.0,-2.0,1651024692202256.0,1
269,-7.0,-9.0,-8.0,4.0,-15.0,-6.0,-23.0,-13.0,1651024692202256.0,1
270,2.0,15.0,20.0,0.0,-6.0,-8.0,-8.0,0.0,1651024692217243.0,1
271,2.0,-5.0,-28.0,-26.0,-2.0,4.0,-8.0,-1.0,1651024692217243.0,1
272,-7.0,-4.0,-16.0,-13.0,1.0,-2.0,10.0,2.0,1651024692218216.0,1
273,3.0,8.0,7.0,2.0,-5.0,1.0,-3.0,1.0,1651024692218216.0,1
274,-9.0,-5.0,11.0,-4.0,-9.0,-12.0,-27.0,-20.0,1651024692246978.0,1
275,5.0,5.0,-5.0,7.0,-2.0,-4.0,2.0,11.0,1651024692246978.0,1
276,5.0,12.0,20.0,0.0,16.0,5.0,7.0,4.0,1651024692248912.0,1
277,-2.0,-9.0,-7.0,13.0,4.0,14.0,10.0,4.0,1651024692248912.0,1
278,-2.0,-5.0,0.0,-12.0,-10.0,-10.0,-20.0,-9.0,1651024692253922.0,1
279,-7.0,-9.0,-2.0,-2.0,-8.0,-8.0,15.0,5.0,1651024692253922.0,1
280,1.0,-1.0,-8.0,-23.0,-6.0,-2.0,-12.0,-7.0,1651024692260895.0,1
281,2.0,9.0,3.0,8.0,-1.0,8.0,32.0,8.0,1651024692260895.0,1
282,4.0,3.0,1.0,-14.0,-2.0,4.0,-1.0,3.0,1651024692276791.0,1
283,-8.0,-19.0,-1.0,33.0,6.0,4.0,-9.0,-8.0,1651024692276791.0,1
284,-1.0,-1.0,-18.0,-27.0,19.0,-13.0,-7.0,-4.0,1651024692278818.0,1
285,-3.0,1.0,26.0,59.0,13.0,10.0,10.0,5.0,1651024692278818.0,1
286,5.0,-2.0,-21.0,5.0,-10.0,-2.0,0.0,7.0,1651024692299827.0,1
287,0.0,16.0,6.0,-18.0,-7.0,-4.0,-18.0,-9.0,1651024692299827.0,1
288,0.0,4.0,11.0,-2.0,-9.0,-2.0,14.0,3.0,1651024692300825.0,1
289,6.0,-1.0,-3.0,-17.0,-6.0,-3.0,-7.0,-3.0,1651024692300825.0,1
290,1.0,12.0,10.0,11.0,16.0,9.0,3.0,-1.0,1651024692313796.0,1
291,-6.0,-30.0,-52.0,-16.0,-7.0,-5.0,2.0,2.0,1651024692313796.0,1
292,-3.0,-13.0,0.0,-7.0,-5.0,7.0,1.0,-2.0,1651024692320776.0,1
293,-9.0,-8.0,-9.0,-16.0,-7.0,-9.0,-17.0,-9.0,1651024692320776.0,1
294,10.0,13.0,15.0,17.0,5.0,-5.0,11.0,9.0,1651024692336860.0,1
295,-2.0,5.0,9.0,2.0,9.0,24.0,35.0,5.0,1651024692336860.0,1
296,-5.0,-2.0,-13.0,-8.0,-10.0,-4.0,-36.0,-15.0,1651024692338857.0,1
297,6.0,10.0,14.0,6.0,-6.0,-7.0,14.0,9.0,1651024692338857.0,1
298,-3.0,-6.0,0.0,6.0,6.0,10.0,-1.0,-3.0,1651024692358311.0,1
299,0.0,-1.0,7.0,-5.0,4.0,-3.0,-10.0,-7.0,1651024692358311.0,1
300,3.0,-4.0,-24.0,-13.0,-16.0,-8.0,2.0,4.0,1651024692367088.0,1
301,-5.0,-1.0,31.0,40.0,27.0,5.0,-10.0,-7.0,1651024692367088.0,1
302,-3.0,2.0,-1.0,-10.0,-9.0,-4.0,11.0,1.0,1651024692373073.0,1
303,0.0,-6.0,-5.0,22.0,-1.0,-3.0,-3.0,0.0,1651024692373073.0,1
304,-5.0,-7.0,2.0,-2.0,16.0,3.0,-4.0,-3.0,1651024692382635.0,1
305,-2.0,-8.0,-33.0,-38.0,-14.0,-3.0,6.0,3.0,1651024692382635.0,1
306,-3.0,5.0,16.0,27.0,0.0,-3.0,4.0,0.0,1651024692396995.0,1
307,1.0,-5.0,-5.0,-2.0,-6.0,2.0,4.0,4.0,1651024692396995.0,1
308,1.0,1.0,3.0,-10.0,-29.0,-10.0,-1.0,-1.0,1651024692398949.0,1
309,-3.0,-2.0,-4.0,-2.0,15.0,10.0,-6.0,-2.0,1651024692398949.0,1
310,1.0,-1.0,-11.0,1.0,8.0,3.0,7.0,3.0,1651024692419926.0,1
311,1.0,11.0,9.0,-14.0,-8.0,-1.0,-3.0,-2.0,1651024692419926.0,1
312,3.0,8.0,13.0,14.0,1.0,-3.0,-1.0,1.0,1651024692420924.0,1
313,-4.0,-7.0,-26.0,-23.0,-12.0,-12.0,-21.0,-12.0,1651024692420924.0,1
314,-5.0,-10.0,4.0,-6.0,-3.0,-7.0,-11.0,-4.0,1651024692432960.0,1
315,2.0,5.0,-4.0,-1.0,5.0,0.0,-16.0,-6.0,1651024692432960.0,1
316,-3.0,-9.0,-7.0,1.0,11.0,11.0,8.0,2.0,1651024692441868.0,1
317,6.0,16.0,34.0,16.0,-15.0,-2.0,-2.0,2.0,1651024692441868.0,1
318,-7.0,-19.0,-16.0,6.0,21.0,6.0,7.0,0.0,1651024692456889.0,1
319,3.0,6.0,10.0,5.0,7.0,-5.0,-16.0,-1.0,1651024692456889.0,1
320,-4.0,-1.0,4.0,-4.0,-9.0,-10.0,-9.0,-6.0,1651024692458823.0,1
321,1.0,-6.0,-14.0,4.0,1.0,4.0,3.0,0.0,1651024692458823.0,1
322,-6.0,-5.0,15.0,-2.0,-14.0,-11.0,-13.0,-5.0,1651024692479434.0,1
323,2.0,5.0,-3.0,-6.0,-1.0,4.0,20.0,7.0,1651024692479434.0,1
324,0.0,-11.0,-12.0,-8.0,2.0,2.0,-13.0,-4.0,1651024692481362.0,1
325,-1.0,-1.0,-11.0,-5.0,-13.0,-12.0,8.0,5.0,1651024692481362.0,1
326,-4.0,1.0,-12.0,-17.0,-6.0,-2.0,-9.0,-5.0,1651024692493365.0,1
327,0.0,10.0,22.0,10.0,2.0,3.0,4.0,-4.0,1651024692493365.0,1
328,3.0,6.0,6.0,8.0,10.0,3.0,14.0,7.0,1651024692502313.0,1
329,-8.0,-11.0,-11.0,-14.0,-4.0,-1.0,5.0,-5.0,1651024692502313.0,1
330,-1.0,3.0,5.0,-1.0,0.0,-5.0,-34.0,-18.0,1651024692517335.0,1
331,-5.0,-22.0,-29.0,-33.0,-18.0,-2.0,11.0,6.0,1651024692517335.0,1
332,-4.0,-8.0,3.0,16.0,-1.0,0.0,-2.0,-4.0,1651024692518261.0,1
333,2.0,0.0,5.0,0.0,-1.0,-2.0,1.0,2.0,1651024692518261.0,1
334,-5.0,-4.0,-13.0,-14.0,3.0,-9.0,-4.0,-5.0,1651024692539012.0,1
335,3.0,8.0,20.0,30.0,-4.0,-9.0,-4.0,-2.0,1651024692539012.0,1
336,-6.0,-10.0,-12.0,-25.0,11.0,1.0,-22.0,-7.0,1651024692540939.0,1
337,0.0,1.0,8.0,21.0,5.0,8.0,15.0,5.0,1651024692540939.0,1
338,3.0,3.0,-13.0,3.0,-4.0,3.0,-9.0,-3.0,1651024692562267.0,1
339,0.0,-6.0,-5.0,-8.0,0.0,-3.0,-10.0,-9.0,1651024692562267.0,1
340,5.0,8.0,14.0,13.0,-8.0,-3.0,39.0,20.0,1651024692563197.0,1
341,-1.0,9.0,5.0,-24.0,-10.0,-6.0,-10.0,-8.0,1651024692563197.0,1
342,3.0,-6.0,-3.0,11.0,3.0,8.0,9.0,10.0,1651024692577224.0,1
343,5.0,11.0,13.0,7.0,13.0,4.0,-11.0,-1.0,1651024692577224.0,1
344,-1.0,1.0,-14.0,4.0,-4.0,-9.0,-14.0,-8.0,1651024692578950.0,1
345,-8.0,-17.0,-14.0,-18.0,-6.0,-15.0,-33.0,-13.0,1651024692578950.0,1
346,8.0,2.0,0.0,4.0,-6.0,16.0,62.0,22.0,1651024692599944.0,1
347,-7.0,-7.0,-4.0,-4.0,1.0,-15.0,0.0,-3.0,1651024692599944.0,1
348,1.0,9.0,20.0,2.0,21.0,32.0,3.0,0.0,1651024692600894.0,1
349,3.0,7.0,2.0,5.0,-7.0,-2.0,8.0,6.0,1651024692600894.0,1
350,-6.0,-5.0,-4.0,-1.0,2.0,-10.0,-21.0,-10.0,1651024692612980.0,1
351,-1.0,0.0,-8.0,-16.0,-14.0,-2.0,-11.0,-7.0,1651024692612980.0,1
352,5.0,-3.0,-3.0,16.0,15.0,1.0,12.0,8.0,1651024692621959.0,1
353,1.0,7.0,19.0,8.0,11.0,11.0,1.0,0.0,1651024692621959.0,1
354,0.0,-5.0,4.0,23.0,-1.0,-5.0,-1.0,4.0,1651024692644907.0,1
355,1.0,-2.0,-12.0,-11.0,-3.0,5.0,8.0,3.0,1651024692644907.0,1
356,-4.0,0.0,4.0,3.0,-9.0,-15.0,-24.0,-14.0,1651024692645882.0,1
357,8.0,5.0,-3.0,-10.0,3.0,3.0,16.0,6.0,1651024692645882.0,1
358,0.0,-7.0,-25.0,-12.0,-6.0,-4.0,-5.0,0.0,1651024692659906.0,1
359,-6.0,-2.0,10.0,6.0,-2.0,-2.0,1.0,-3.0,1651024692659906.0,1
360,-4.0,-6.0,-2.0,2.0,-6.0,-2.0,-13.0,-5.0,1651024692660842.0,1
361,-3.0,-7.0,-14.0,-24.0,-15.0,-6.0,24.0,12.0,1651024692660842.0,1
362,4.0,12.0,20.0,16.0,5.0,7.0,13.0,6.0,1651024692673469.0,1
363,4.0,8.0,-3.0,7.0,29.0,13.0,11.0,2.0,1651024692673469.0,1
364,4.0,2.0,-8.0,-9.0,-15.0,-6.0,3.0,6.0,1651024692682289.0,1
365,-4.0,-12.0,-14.0,-2.0,7.0,-3.0,-12.0,-8.0,1651024692682289.0,1
366,-4.0,3.0,17.0,-18.0,-19.0,-11.0,-1.0,-2.0,1651024692697305.0,1
367,3.0,-5.0,-23.0,-1.0,-2.0,-2.0,-2.0,3.0,1651024692697305.0,1
368,-7.0,1.0,15.0,5.0,0.0,-5.0,7.0,-6.0,1651024692698236.0,1
369,-1.0,-8.0,-19.0,15.0,2.0,-5.0,-9.0,-4.0,1651024692698236.0,1
370,-3.0,2.0,8.0,-13.0,2.0,9.0,-9.0,-6.0,1651024692719381.0,1
371,-1.0,-5.0,-10.0,1.0,-3.0,-3.0,7.0,2.0,1651024692719381.0,1
372,4.0,6.0,6.0,-2.0,-5.0,-8.0,11.0,7.0,1651024692721335.0,1
373,4.0,10.0,9.0,-3.0,-1.0,0.0,-11.0,-4.0,1651024692721335.0,1
374,-3.0,-6.0,-16.0,-15.0,-3.0,-4.0,-3.0,-7.0,1651024692733357.0,1
375,6.0,17.0,37.0,28.0,7.0,1.0,27.0,13.0,1651024692733357.0,1
376,-5.0,-16.0,-25.0,-11.0,-8.0,3.0,0.0,-3.0,1651024692742259.0,1
377,3.0,8.0,6.0,-3.0,-3.0,3.0,-5.0,1.0,1651024692742259.0,1
378,1.0,6.0,3.0,-6.0,7.0,-2.0,-2.0,-1.0,1651024692757280.0,1
379,-5.0,-8.0,-4.0,18.0,5.0,-1.0,-19.0,-9.0,1651024692757280.0,1
380,0.0,-7.0,-13.0,-15.0,-2.0,3.0,7.0,1.0,1651024692758250.0,1
381,-1.0,2.0,10.0,34.0,5.0,-1.0,-7.0,-2.0,1651024692758250.0,1
382,-1.0,1.0,2.0,-9.0,0.0,4.0,-12.0,-7.0,1651024692779213.0,1
383,2.0,-1.0,2.0,-15.0,-9.0,2.0,9.0,6.0,1651024692779213.0,1
384,2.0,6.0,-1.0,5.0,-24.0,-15.0,-1.0,1.0,1651024692781175.0,1
385,-3.0,-1.0,1.0,-3.0,27.0,16.0,-3.0,-4.0,1651024692781175.0,1
386,2.0,5.0,10.0,-16.0,-4.0,2.0,7.0,2.0,1651024692802356.0,1
387,2.0,0.0,-2.0,35.0,12.0,-2.0,-7.0,-4.0,1651024692802356.0,1
388,5.0,4.0,-2.0,2.0,8.0,16.0,16.0,9.0,1651024692803354.0,1
389,0.0,7.0,17.0,-5.0,-25.0,-16.0,-12.0,-4.0,1651024692803354.0,1
390,-3.0,-7.0,-4.0,-8.0,1.0,5.0,4.0,0.0,1651024692817317.0,1
391,1.0,8.0,9.0,-3.0,0.0,4.0,-1.0,-2.0,1651024692817317.0,1
392,-2.0,-9.0,-3.0,2.0,13.0,-3.0,-28.0,-12.0,1651024692818314.0,1
393,-1.0,-3.0,-5.0,2.0,-1.0,-2.0,21.0,7.0,1651024692818314.0,1
394,1.0,1.0,0.0,2.0,-13.0,-1.0,8.0,5.0,1651024692839443.0,1
395,-13.0,-28.0,-22.0,-10.0,8.0,-6.0,-14.0,-9.0,1651024692839443.0,1
396,3.0,16.0,9.0,4.0,7.0,8.0,3.0,1.0,1651024692841370.0,1
397,-5.0,-8.0,0.0,-21.0,-13.0,-3.0,8.0,5.0,1651024692841370.0,1
398,0.0,-5.0,-15.0,18.0,0.0,-13.0,-45.0,-17.0,1651024692861915.0,1
399,10.0,0.0,-7.0,-12.0,-8.0,8.0,37.0,18.0,1651024692861915.0,1
400,-2.0,6.0,0.0,-11.0,1.0,0.0,-8.0,-6.0,1651024692863882.0,1
401,-1.0,2.0,19.0,30.0,14.0,2.0,12.0,4.0,1651024692863882.0,1
402,-4.0,-7.0,-9.0,-10.0,0.0,14.0,15.0,3.0,1651024692877380.0,1
403,-6.0,-4.0,5.0,13.0,-5.0,-6.0,-34.0,-17.0,1651024692877380.0,1
404,-2.0,3.0,5.0,-6.0,6.0,2.0,-10.0,-3.0,1651024692878869.0,1
405,-1.0,-5.0,-18.0,-28.0,-24.0,-15.0,-9.0,-4.0,1651024692878869.0,1
406,2.0,4.0,13.0,28.0,17.0,-1.0,-8.0,-2.0,1651024692899040.0,1
407,-9.0,-21.0,-19.0,-7.0,3.0,7.0,27.0,8.0,1651024692899040.0,1
408,-3.0,-1.0,0.0,-28.0,-31.0,-13.0,-5.0,-2.0,1651024692900971.0,1
409,2.0,8.0,16.0,46.0,20.0,8.0,6.0,0.0,1651024692900971.0,1
410,-7.0,-11.0,-17.0,-16.0,-8.0,-8.0,-10.0,-8.0,1651024692921980.0,1
411,5.0,24.0,17.0,-12.0,0.0,2.0,-5.0,-2.0,1651024692921980.0,1
412,6.0,-3.0,1.0,8.0,-4.0,-1.0,23.0,15.0,1651024692923934.0,1
413,-5.0,-8.0,-17.0,-11.0,0.0,1.0,-13.0,-8.0,1651024692923934.0,1
414,4.0,11.0,5.0,-9.0,-8.0,2.0,26.0,12.0,1651024692937390.0,1
415,1.0,-2.0,-4.0,9.0,8.0,-6.0,-21.0,-7.0,1651024692937390.0,1
416,0.0,2.0,-1.0,-15.0,4.0,0.0,-9.0,-3.0,1651024692938895.0,1
417,0.0,0.0,-3.0,-7.0,-1.0,3.0,-14.0,-6.0,1651024692938895.0,1
418,0.0,-1.0,8.0,25.0,13.0,5.0,10.0,11.0,1651024692960304.0,1
419,-1.0,2.0,7.0,-15.0,-21.0,-6.0,-9.0,-2.0,1651024692960304.0,1
420,-2.0,-3.0,-5.0,11.0,1.0,-2.0,8.0,1.0,1651024692961275.0,1
421,-1.0,-5.0,-18.0,-12.0,-5.0,-8.0,-47.0,-17.0,1651024692961275.0,1
422,-1.0,-4.0,4.0,-11.0,-13.0,-8.0,11.0,3.0,1651024692981967.0,1
423,-7.0,-8.0,0.0,1.0,-2.0,3.0,-11.0,-7.0,1651024692981967.0,1
424,-1.0,-3.0,9.0,27.0,12.0,2.0,12.0,1.0,1651024692983893.0,1
425,-2.0,-4.0,-10.0,-17.0,-14.0,-5.0,9.0,2.0,1651024692983893.0,1
426,-2.0,-7.0,-17.0,2.0,5.0,-7.0,-29.0,-13.0,1651024692995929.0,1
427,7.0,8.0,4.0,-15.0,-2.0,10.0,34.0,18.0,1651024692995929.0,1
428,-5.0,-5.0,-4.0,14.0,18.0,3.0,-19.0,-11.0,1651024693010982.0,1
429,1.0,4.0,6.0,3.0,3.0,-2.0,6.0,2.0,1651024693010982.0,1
430,-8.0,-20.0,-6.0,-8.0,-22.0,-16.0,-4.0,-4.0,1651024693019963.0,1
431,-4.0,-1.0,-4.0,-8.0,2.0,0.0,-21.0,-11.0,1651024693019963.0,1
432,-2.0,6.0,18.0,3.0,-4.0,-2.0,7.0,4.0,1651024693020970.0,1
433,1.0,2.0,-21.0,-11.0,-6.0,-1.0,0.0,-1.0,1651024693020970.0,1
434,1.0,2.0,2.0,12.0,11.0,0.0,20.0,9.0,1651024693042265.0,1
435,-1.0,3.0,2.0,-6.0,-14.0,-16.0,-24.0,-9.0,1651024693042265.0,1
436,-1.0,1.0,-1.0,-1.0,-5.0,1.0,4.0,0.0,1651024693043269.0,1
437,1.0,-1.0,3.0,-1.0,5.0,-3.0,9.0,7.0,1651024693043269.0,1
438,0.0,6.0,4.0,-1.0,6.0,23.0,-7.0,-6.0,1651024693056299.0,1
439,-2.0,-6.0,-8.0,-1.0,-10.0,-3.0,9.0,3.0,1651024693056299.0,1
440,2.0,1.0,-2.0,-2.0,5.0,1.0,-3.0,1.0,1651024693063365.0,1
441,1.0,-2.0,8.0,-8.0,-4.0,1.0,18.0,6.0,1651024693063365.0,1
442,4.0,5.0,1.0,13.0,-9.0,-14.0,-6.0,-3.0,1651024693079298.0,1
443,1.0,0.0,1.0,10.0,34.0,7.0,-1.0,0.0,1651024693079298.0,1
444,7.0,9.0,5.0,6.0,1.0,12.0,14.0,9.0,1651024693081254.0,1
445,-3.0,-17.0,-9.0,-17.0,-14.0,-6.0,-8.0,-2.0,1651024693081254.0,1
446,0.0,4.0,11.0,4.0,-3.0,-3.0,0.0,1.0,1651024693102397.0,1
447,-1.0,-8.0,-17.0,-4.0,-3.0,-18.0,-3.0,-1.0,1651024693102397.0,1
448,0.0,5.0,3.0,2.0,-14.0,-23.0,-8.0,-9.0,1651024693103327.0,1
449,3.0,6.0,3.0,5.0,19.0,56.0,19.0,10.0,1651024693103327.0,1
450,-1.0,-9.0,0.0,-6.0,-5.0,3.0,-7.0,-5.0,1651024693116357.0,1
451,-1.0,4.0,3.0,-4.0,-10.0,-19.0,1.0,2.0,1651024693116357.0,1
452,10.0,4.0,-1.0,-1.0,-17.0,12.0,4.0,-3.0,1651024693123326.0,1
453,-13.0,0.0,-5.0,4.0,30.0,9.0,12.0,2.0,1651024693123326.0,1
454,6.0,19.0,7.0,3.0,3.0,-9.0,1.0,-4.0,1651024693139928.0,1
455,-4.0,-7.0,1.0,1.0,-9.0,4.0,-13.0,-9.0,1651024693139928.0,1
456,10.0,29.0,-4.0,0.0,12.0,-1.0,-1.0,19.0,1651024693140937.0,1
457,-6.0,-46.0,-38.0,-15.0,-17.0,-4.0,2.0,2.0,1651024693140937.0,1
458,-10.0,-1.0,-6.0,-12.0,2.0,-1.0,-5.0,-5.0,1651024693161898.0,1
459,2.0,8.0,21.0,11.0,-4.0,-8.0,3.0,-2.0,1651024693161898.0,1
460,5.0,0.0,5.0,4.0,6.0,-4.0,-4.0,-9.0,1651024693163865.0,1
461,0.0,6.0,41.0,22.0,4.0,1.0,-3.0,4.0,1651024693163865.0,1
462,0.0,3.0,-24.0,-7.0,7.0,-7.0,1.0,2.0,1651024693175863.0,1
463,-3.0,0.0,-17.0,-20.0,-15.0,4.0,-3.0,3.0,1651024693175863.0,1
464,-5.0,-21.0,-3.0,0.0,-1.0,10.0,2.0,5.0,1651024693182814.0,1
465,11.0,16.0,5.0,4.0,13.0,-12.0,-2.0,1.0,1651024693182814.0,1
466,1.0,-3.0,14.0,5.0,-22.0,-8.0,0.0,0.0,1651024693199949.0,1
467,11.0,41.0,8.0,4.0,21.0,24.0,9.0,3.0,1651024693199949.0,1
468,-19.0,-64.0,-22.0,-8.0,-2.0,-3.0,-4.0,-8.0,1651024693200948.0,1
469,2.0,22.0,13.0,3.0,-19.0,-17.0,-2.0,-4.0,1651024693200948.0,1
470,1.0,-3.0,-1.0,1.0,23.0,11.0,5.0,2.0,1651024693221949.0,1
471,2.0,3.0,2.0,2.0,1.0,8.0,6.0,4.0,1651024693221949.0,1
472,-1.0,-3.0,0.0,-3.0,-4.0,-10.0,-3.0,-2.0,1651024693223909.0,1
473,1.0,-11.0,-4.0,2.0,-13.0,-4.0,-1.0,-2.0,1651024693223909.0,1
474,3.0,23.0,-1.0,-6.0,3.0,5.0,0.0,3.0,1651024693235926.0,1
475,1.0,-6.0,6.0,2.0,1.0,-1.0,0.0,1.0,1651024693235926.0,1
476,3.0,34.0,7.0,-1.0,-8.0,-3.0,-3.0,-4.0,1651024693242835.0,1
477,-2.0,-5.0,-2.0,-1.0,5.0,-2.0,-1.0,-3.0,1651024693242835.0,1
478,10.0,2.0,6.0,0.0,-3.0,2.0,2.0,4.0,1651024693259927.0,1
479,-13.0,-27.0,-13.0,-5.0,-5.0,-4.0,4.0,-1.0,1651024693259927.0,1
480,-4.0,-1.0,6.0,2.0,1.0,6.0,-3.0,-9.0,1651024693260924.0,1
481,1.0,6.0,3.0,8.0,9.0,0.0,1.0,-1.0,1651024693260924.0,1
482,9.0,-1.0,-6.0,0.0,17.0,6.0,0.0,4.0,1651024693282016.0,1
483,-5.0,0.0,5.0,-2.0,-12.0,0.0,-1.0,-4.0,1651024693282016.0,1
484,-1.0,3.0,2.0,2.0,7.0,3.0,1.0,3.0,1651024693284049.0,1
485,4.0,4.0,0.0,-1.0,2.0,-1.0,0.0,2.0,1651024693284049.0,1
486,11.0,73.0,34.0,10.0,-4.0,-1.0,0.0,0.0,1651024693296110.0,1
487,-16.0,-92.0,-35.0,-7.0,-4.0,0.0,-1.0,-3.0,1651024693296110.0,1
488,4.0,-3.0,4.0,-3.0,-2.0,-1.0,-1.0,2.0,1651024693305152.0,1
489,-15.0,1.0,-12.0,-5.0,-1.0,-4.0,-3.0,-6.0,1651024693305152.0,1
490,-3.0,7.0,-24.0,-13.0,-14.0,0.0,2.0,2.0,1651024693319234.0,1
491,8.0,26.0,12.0,4.0,18.0,3.0,0.0,2.0,1651024693319234.0,1
492,-4.0,-38.0,-14.0,-5.0,-4.0,-3.0,1.0,1.0,1651024693321249.0,1
493,0.0,3.0,-1.0,-7.0,-9.0,-1.0,-2.0,-6.0,1651024693321249.0,1
494,-16.0,-56.0,-6.0,0.0,2.0,2.0,-1.0,-1.0,1651024693342080.0,1
495,5.0,53.0,6.0,2.0,7.0,5.0,-2.0,-1.0,1651024693342080.0,1
496,-1.0,-20.0,11.0,9.0,6.0,-1.0,1.0,1.0,1651024693344006.0,1
497,12.0,32.0,4.0,1.0,-4.0,4.0,1.0,5.0,1651024693344006.0,1
498,-19.0,-45.0,-20.0,-10.0,-21.0,-10.0,-5.0,-8.0,1651024693356010.0,1
499,3.0,-10.0,14.0,5.0,11.0,5.0,2.0,2.0,1651024693356010.0,1
500,6.0,14.0,-2.0,4.0,2.0,0.0,1.0,2.0,1651024693364950.0,1
501,-14.0,-4.0,-13.0,-13.0,-12.0,-7.0,-4.0,-4.0,1651024693364950.0,1
502,5.0,0.0,0.0,-3.0,-3.0,-1.0,0.0,1.0,1651024693379117.0,1
503,8.0,43.0,2.0,-1.0,-11.0,-2.0,1.0,3.0,1651024693379117.0,1
504,-7.0,-23.0,-7.0,0.0,3.0,-2.0,0.0,1.0,1651024693381085.0,1
505,-4.0,23.0,0.0,1.0,9.0,-3.0,-6.0,-5.0,1651024693381085.0,1
506,-8.0,-46.0,-5.0,6.0,9.0,5.0,2.0,1.0,1651024693402090.0,1
507,4.0,4.0,15.0,-2.0,-8.0,-4.0,-3.0,-2.0,1651024693402090.0,1
508,11.0,20.0,-4.0,-4.0,-8.0,-2.0,0.0,4.0,1651024693404017.0,1
509,-27.0,-44.0,-5.0,-4.0,-6.0,-3.0,-3.0,-8.0,1651024693404017.0,1
510,28.0,21.0,7.0,7.0,12.0,5.0,4.0,9.0,1651024693416015.0,1
511,-17.0,-11.0,-2.0,1.0,-1.0,1.0,2.0,-3.0,1651024693416015.0,1
512,-5.0,-4.0,-6.0,-4.0,-1.0,-3.0,-2.0,-1.0,1651024693425011.0,1
513,3.0,-9.0,8.0,5.0,1.0,-1.0,2.0,1.0,1651024693425011.0,1
514,4.0,26.0,4.0,-1.0,0.0,0.0,1.0,0.0,1651024693439033.0,1
515,1.0,-3.0,-8.0,-4.0,-9.0,-4.0,-3.0,0.0,1651024693439033.0,1
516,-7.0,-45.0,-8.0,-2.0,5.0,6.0,0.0,-2.0,1651024693446023.0,1
517,24.0,40.0,16.0,5.0,-20.0,-5.0,2.0,7.0,1651024693446023.0,1
518,-26.0,-21.0,-14.0,-7.0,19.0,4.0,-6.0,-8.0,1651024693462080.0,1
519,-12.0,-11.0,-12.0,-3.0,2.0,-2.0,-3.0,-7.0,1651024693462080.0,1
520,1.0,55.0,8.0,2.0,-5.0,-4.0,-2.0,-1.0,1651024693464037.0,1
521,5.0,-48.0,-1.0,3.0,2.0,6.0,4.0,5.0,1651024693464037.0,1
522,11.0,4.0,0.0,-1.0,-6.0,-1.0,1.0,1.0,1651024693476044.0,1
523,17.0,-28.0,7.0,10.0,7.0,3.0,8.0,9.0,1651024693476044.0,1
524,16.0,97.0,17.0,-7.0,-10.0,-5.0,-2.0,1.0,1651024693484952.0,1
525,-5.0,-45.0,-3.0,0.0,1.0,5.0,2.0,1.0,1651024693484952.0,1
526,-11.0,-6.0,-9.0,-2.0,7.0,-4.0,-4.0,-5.0,1651024693499912.0,1
527,1.0,-23.0,-2.0,7.0,7.0,5.0,1.0,0.0,1651024693499912.0,1
528,-7.0,32.0,-6.0,-4.0,-10.0,-3.0,-4.0,-5.0,1651024693500910.0,1
529,11.0,-17.0,-7.0,-5.0,1.0,-1.0,-1.0,4.0,1651024693500910.0,1
530,-3.0,-3.0,6.0,-1.0,-7.0,-2.0,0.0,1.0,1651024693522477.0,1
531,-15.0,-25.0,-6.0,-3.0,-6.0,-1.0,-3.0,-6.0,1651024693522477.0,1
532,0.0,-28.0,-10.0,0.0,2.0,-2.0,0.0,1.0,1651024693523476.0,1
533,1.0,-36.0,-7.0,3.0,8.0,3.0,2.0,2.0,1651024693523476.0,1
534,-2.0,-34.0,4.0,6.0,5.0,5.0,4.0,5.0,1651024693535636.0,1
535,7.0,42.0,5.0,-2.0,-5.0,-4.0,-6.0,-4.0,1651024693535636.0,1
536,-8.0,-23.0,-9.0,-1.0,-1.0,-1.0,-1.0,-2.0,1651024693544542.0,1
537,2.0,31.0,-1.0,1.0,9.0,4.0,1.0,-1.0,1651024693544542.0,1
538,-1.0,-32.0,4.0,-1.0,-7.0,-3.0,3.0,1.0,1651024693559506.0,1
539,-1.0,6.0,-5.0,-3.0,0.0,0.0,1.0,0.0,1651024693559506.0,1
540,2.0,11.0,-1.0,1.0,4.0,1.0,-1.0,-1.0,1651024693560499.0,1
541,-8.0,-16.0,4.0,-2.0,-2.0,-2.0,-3.0,-6.0,1651024693560499.0,1
542,-4.0,-19.0,-37.0,-11.0,-19.0,-6.0,-3.0,-2.0,1651024693581508.0,1
543,3.0,16.0,11.0,0.0,11.0,5.0,2.0,2.0,1651024693581508.0,1
544,-21.0,-30.0,-7.0,2.0,2.0,-1.0,-3.0,-9.0,1651024693583438.0,1
545,-31.0,-36.0,-22.0,-9.0,-13.0,-9.0,-5.0,-9.0,1651024693583438.0,1
546,2.0,25.0,13.0,-5.0,3.0,0.0,-3.0,-4.0,1651024693595474.0,1
547,3.0,30.0,2.0,-2.0,-10.0,-1.0,0.0,2.0,1651024693595474.0,1
548,3.0,-18.0,8.0,5.0,17.0,3.0,2.0,5.0,1651024693604381.0,1
549,12.0,31.0,4.0,6.0,3.0,4.0,3.0,6.0,1651024693604381.0,1
550,-4.0,2.0,2.0,1.0,-5.0,-2.0,-1.0,-2.0,1651024693619383.0,1
551,-6.0,-17.0,-8.0,-7.0,-8.0,-4.0,-3.0,-3.0,1651024693619383.0,1
552,-3.0,-11.0,2.0,-2.0,0.0,2.0,1.0,0.0,1651024693621337.0,1
553,6.0,-4.0,4.0,5.0,3.0,1.0,2.0,2.0,1651024693621337.0,1
554,8.0,48.0,9.0,0.0,0.0,0.0,-1.0,-1.0,1651024693641955.0,1
555,-14.0,-25.0,-2.0,-2.0,2.0,-1.0,-3.0,-4.0,1651024693641955.0,1
556,15.0,0.0,1.0,-1.0,-3.0,1.0,1.0,5.0,1651024693643893.0,1
557,-8.0,-1.0,-1.0,-6.0,0.0,-3.0,-4.0,-4.0,1651024693643893.0,1
558,0.0,22.0,7.0,0.0,-2.0,0.0,-1.0,2.0,1651024693655970.0,1
559,1.0,4.0,1.0,2.0,2.0,-1.0,-1.0,1.0,1651024693655970.0,1
560,4.0,24.0,7.0,0.0,-2.0,-2.0,-1.0,0.0,1651024693664832.0,1
561,13.0,25.0,6.0,0.0,-4.0,-2.0,2.0,4.0,1651024693664832.0,1
562,5.0,-3.0,3.0,1.0,4.0,2.0,-1.0,0.0,1651024693679040.0,1
563,0.0,-5.0,-4.0,0.0,-5.0,-4.0,0.0,-1.0,1651024693679040.0,1
564,11.0,50.0,14.0,-1.0,-12.0,-1.0,-1.0,1.0,1651024693685955.0,1
565,6.0,24.0,18.0,2.0,18.0,4.0,2.0,1.0,1651024693685955.0,1
566,-3.0,9.0,-21.0,2.0,-3.0,-1.0,1.0,1.0,1651024693701681.0,1
567,12.0,9.0,1.0,0.0,-2.0,-4.0,2.0,3.0,1651024693701681.0,1
568,-3.0,0.0,5.0,-3.0,-7.0,-3.0,-2.0,-5.0,1651024693703619.0,1
569,1.0,4.0,-1.0,0.0,-3.0,1.0,-3.0,0.0,1651024693703619.0,1
570,-4.0,-25.0,3.0,2.0,2.0,0.0,0.0,0.0,1651024693715581.0,1
571,3.0,26.0,1.0,-3.0,-18.0,-4.0,0.0,-3.0,1651024693715581.0,1
572,1.0,2.0,-7.0,-1.0,23.0,6.0,-1.0,-1.0,1651024693724614.0,1
573,5.0,8.0,1.0,1.0,-4.0,1.0,1.0,1.0,1651024693724614.0,1
574,-4.0,-7.0,1.0,-2.0,-1.0,-3.0,-2.0,-3.0,1651024693739972.0,1
575,3.0,2.0,-5.0,1.0,-1.0,-1.0,1.0,2.0,1651024693739972.0,1
576,-9.0,-40.0,-7.0,-3.0,-7.0,-2.0,-2.0,-3.0,1651024693740949.0,1
577,2.0,41.0,1.0,1.0,2.0,-1.0,-2.0,-2.0,1651024693740949.0,1
578,-2.0,-6.0,1.0,-2.0,-6.0,-2.0,1.0,0.0,1651024693761929.0,1
579,2.0,9.0,0.0,-1.0,4.0,1.0,1.0,1.0,1651024693761929.0,1
580,6.0,12.0,0.0,-1.0,-3.0,-3.0,0.0,2.0,1651024693763946.0,1
581,-3.0,21.0,1.0,-4.0,2.0,-1.0,-2.0,-2.0,1651024693763946.0,1
582,6.0,21.0,9.0,3.0,-2.0,-2.0,0.0,-1.0,1651024693783679.0,1
583,-8.0,-8.0,3.0,2.0,6.0,1.0,-2.0,-2.0,1651024693783679.0,1
584,-7.0,0.0,-4.0,-4.0,0.0,-1.0,-2.0,-4.0,1651024693792655.0,1
585,3.0,0.0,-11.0,2.0,-7.0,-2.0,1.0,2.0,1651024693792655.0,1
586,-2.0,39.0,2.0,-5.0,-1.0,-2.0,-3.0,-5.0,1651024693799703.0,1
587,4.0,16.0,4.0,2.0,2.0,0.0,1.0,0.0,1651024693799703.0,1
588,0.0,-22.0,-6.0,2.0,-6.0,-1.0,1.0,2.0,1651024693800634.0,1
589,-1.0,-13.0,1.0,-6.0,-3.0,-2.0,0.0,-1.0,1651024693800634.0,1
590,-2.0,-7.0,0.0,3.0,20.0,5.0,2.0,1.0,1651024693821583.0,1
591,4.0,-14.0,-11.0,3.0,3.0,2.0,2.0,2.0,1651024693821583.0,1
592,0.0,-10.0,2.0,-3.0,-7.0,-1.0,-3.0,-2.0,1651024693823572.0,1
593,-7.0,4.0,3.0,-1.0,-5.0,-4.0,-1.0,-2.0,1651024693823572.0,1
594,1.0,-24.0,-11.0,-2.0,-5.0,0.0,-1.0,0.0,1651024693844940.0,1
595,15.0,-3.0,3.0,-1.0,2.0,0.0,-1.0,1.0,1651024693844940.0,1
596,-15.0,-3.0,0.0,1.0,1.0,0.0,3.0,2.0,1651024693845937.0,1
597,-6.0,-5.0,-5.0,-1.0,-15.0,-10.0,-1.0,-2.0,1651024693845937.0,1
598,1.0,-36.0,-1.0,-1.0,11.0,9.0,0.0,1.0,1651024693859686.0,1
599,-16.0,-28.0,-4.0,1.0,1.0,0.0,-3.0,-9.0,1651024693859686.0,1
600,-12.0,-24.0,-3.0,0.0,-2.0,-1.0,-2.0,-6.0,1651024693861615.0,1
601,4.0,3.0,-2.0,0.0,2.0,1.0,1.0,3.0,1651024693861615.0,1
602,-5.0,-30.0,-5.0,-2.0,-11.0,-5.0,1.0,0.0,1651024693881635.0,1
603,4.0,-28.0,-9.0,-3.0,1.0,3.0,1.0,4.0,1651024693881635.0,1
604,2.0,47.0,0.0,1.0,4.0,2.0,-1.0,-1.0,1651024693883616.0,1
605,1.0,26.0,13.0,1.0,3.0,1.0,-1.0,-1.0,1651024693883616.0,1
606,5.0,21.0,3.0,0.0,-6.0,-3.0,-1.0,1.0,1651024693904904.0,1
607,-2.0,-7.0,-1.0,-1.0,1.0,0.0,1.0,1.0,1651024693904904.0,1
608,0.0,-3.0,-3.0,0.0,-1.0,-1.0,1.0,-1.0,1651024693905903.0,1
609,7.0,22.0,1.0,0.0,1.0,1.0,0.0,1.0,1651024693905903.0,1
610,-3.0,18.0,0.0,-2.0,-5.0,-1.0,-2.0,-2.0,1651024693918869.0,1
611,-6.0,7.0,3.0,-2.0,-3.0,-3.0,-2.0,-1.0,1651024693918869.0,1
612,4.0,26.0,1.0,-2.0,-3.0,-2.0,-3.0,0.0,1651024693925861.0,1
613,-3.0,-20.0,-7.0,1.0,9.0,5.0,-1.0,-1.0,1651024693925861.0,1
614,1.0,16.0,10.0,4.0,8.0,-1.0,1.0,-1.0,1651024693940874.0,1
615,-2.0,2.0,2.0,2.0,-2.0,3.0,2.0,-1.0,1651024693940874.0,1
616,-5.0,-44.0,-9.0,-3.0,-4.0,-3.0,0.0,0.0,1651024693949794.0,1
617,-2.0,-5.0,1.0,-1.0,-5.0,-2.0,-1.0,-2.0,1651024693949794.0,1
618,1.0,-1.0,-10.0,-5.0,-6.0,-6.0,-2.0,0.0,1651024693964297.0,1
619,1.0,36.0,11.0,0.0,2.0,1.0,-2.0,-1.0,1651024693964297.0,1
620,3.0,5.0,2.0,3.0,3.0,0.0,0.0,-1.0,1651024693966291.0,1
621,-6.0,-43.0,-9.0,-2.0,-2.0,-2.0,-1.0,-2.0,1651024693966291.0,1
622,-12.0,-49.0,-8.0,-1.0,-3.0,-2.0,-2.0,-1.0,1651024693979274.0,1
623,3.0,18.0,0.0,-3.0,-9.0,-7.0,-2.0,-1.0,1651024693979274.0,1
624,-1.0,-18.0,1.0,1.0,13.0,8.0,2.0,1.0,1651024693985382.0,1
625,-1.0,5.0,-1.0,0.0,1.0,-1.0,0.0,-1.0,1651024693985382.0,1
626,-1.0,12.0,3.0,2.0,0.0,0.0,1.0,-1.0,1651024694001916.0,1
627,-2.0,-29.0,-7.0,-1.0,-2.0,-1.0,1.0,1.0,1651024694001916.0,1
628,-1.0,27.0,-1.0,-5.0,-6.0,-5.0,-4.0,-4.0,1651024694003934.0,1
629,-3.0,-20.0,-7.0,-3.0,0.0,-1.0,-1.0,2.0,1651024694003934.0,1
630,3.0,1.0,2.0,1.0,-3.0,0.0,-1.0,-1.0,1651024694024935.0,1
631,-2.0,0.0,1.0,1.0,4.0,1.0,-1.0,1.0,1651024694024935.0,1
632,10.0,32.0,6.0,2.0,-1.0,0.0,0.0,-1.0,1651024694025931.0,1
633,-2.0,6.0,2.0,2.0,1.0,1.0,-1.0,-1.0,1651024694025931.0,1
634,4.0,15.0,-3.0,-3.0,-5.0,-3.0,-3.0,0.0,1651024694038963.0,1
635,0.0,-9.0,-4.0,-1.0,-2.0,-1.0,-2.0,0.0,1651024694038963.0,1
636,-3.0,-11.0,-3.0,0.0,-1.0,-6.0,-1.0,-2.0,1651024694045948.0,1
637,0.0,-4.0,1.0,0.0,13.0,7.0,-2.0,0.0,1651024694045948.0,1
638,-5.0,-6.0,-1.0,5.0,4.0,4.0,-1.0,-2.0,1651024694076918.0,1
639,1.0,21.0,4.0,2.0,-4.0,-1.0,1.0,-1.0,1651024694076918.0,1
640,7.0,-7.0,6.0,-1.0,-6.0,-1.0,-2.0,0.0,1651024694078886.0,1
641,-7.0,0.0,-5.0,-3.0,-6.0,-6.0,-1.0,-1.0,1651024694078886.0,1
642,3.0,18.0,1.0,-3.0,-3.0,-3.0,-1.0,0.0,1651024694084890.0,1
643,-3.0,-17.0,-8.0,-3.0,5.0,1.0,-2.0,0.0,1651024694084890.0,1
644,-7.0,-39.0,-2.0,-1.0,-2.0,0.0,0.0,0.0,1651024694085867.0,1
645,6.0,6.0,5.0,1.0,-2.0,-3.0,1.0,-1.0,1651024694085867.0,1
646,6.0,11.0,4.0,1.0,11.0,3.0,1.0,3.0,1651024694098900.0,1
647,0.0,10.0,6.0,2.0,2.0,0.0,0.0,-1.0,1651024694098900.0,1
648,5.0,-3.0,-4.0,1.0,2.0,0.0,1.0,1.0,1651024694105877.0,1
649,4.0,4.0,3.0,0.0,-3.0,-2.0,-2.0,-1.0,1651024694105877.0,1
650,-12.0,-11.0,-5.0,-4.0,-10.0,-3.0,-1.0,-4.0,1651024694121955.0,1
651,0.0,-20.0,-4.0,-1.0,-1.0,-1.0,0.0,0.0,1651024694121955.0,1
652,-1.0,-6.0,-1.0,-1.0,0.0,1.0,-1.0,0.0,1651024694123909.0,1
653,0.0,-7.0,-2.0,-1.0,-6.0,0.0,0.0,-1.0,1651024694123909.0,1
654,-2.0,36.0,3.0,-2.0,-8.0,-6.0,-1.0,0.0,1651024694144833.0,1
655,0.0,-17.0,-7.0,-6.0,3.0,-2.0,-2.0,-3.0,1651024694144833.0,1
656,1.0,9.0,2.0,1.0,12.0,8.0,0.0,-1.0,1651024694145844.0,1
657,0.0,-11.0,-1.0,2.0,-5.0,-3.0,-1.0,-2.0,1651024694145844.0,1
658,2.0,4.0,5.0,2.0,-3.0,-1.0,2.0,1.0,1651024694158866.0,1
659,4.0,24.0,2.0,1.0,-4.0,-1.0,0.0,-1.0,1651024694158866.0,1
660,-4.0,-9.0,-6.0,-2.0,-3.0,-2.0,0.0,0.0,1651024694165843.0,1
661,1.0,-17.0,-7.0,-4.0,1.0,1.0,-2.0,-1.0,1651024694165843.0,1
662,2.0,-2.0,3.0,-1.0,-1.0,1.0,-2.0,0.0,1651024694181737.0,1
663,-8.0,7.0,-3.0,-1.0,0.0,-1.0,-2.0,-2.0,1651024694181737.0,1
664,1.0,5.0,3.0,1.0,-2.0,-4.0,-1.0,-3.0,1651024694183732.0,1
665,3.0,20.0,-5.0,1.0,5.0,2.0,1.0,0.0,1651024694183732.0,1
666,0.0,-4.0,3.0,1.0,0.0,0.0,0.0,-1.0,1651024694205048.0,1
667,-1.0,3.0,-1.0,-2.0,0.0,-1.0,0.0,1.0,1651024694205048.0,1
668,-3.0,3.0,-10.0,-5.0,3.0,-1.0,-1.0,-2.0,1651024694205866.0,1
669,-2.0,-2.0,-4.0,-4.0,-11.0,-1.0,-1.0,-1.0,1651024694205866.0,1
670,-4.0,-35.0,-6.0,3.0,15.0,-1.0,0.0,0.0,1651024694218885.0,1
671,0.0,6.0,13.0,2.0,0.0,0.0,-2.0,-1.0,1651024694218885.0,1
672,-4.0,-6.0,-9.0,-1.0,-9.0,-3.0,1.0,0.0,1651024694226040.0,1
673,-2.0,-2.0,1.0,0.0,2.0,-1.0,-1.0,-1.0,1651024694226040.0,1
674,0.0,-5.0,-5.0,-4.0,-4.0,2.0,-3.0,-3.0,1651024694242473.0,1
675,-1.0,-9.0,-6.0,0.0,-1.0,1.0,2.0,2.0,1651024694242473.0,1
676,4.0,12.0,6.0,0.0,-3.0,-3.0,-1.0,0.0,1651024694243472.0,1
677,0.0,-4.0,-2.0,-1.0,3.0,4.0,0.0,2.0,1651024694243472.0,1
678,-3.0,-1.0,1.0,2.0,0.0,1.0,1.0,0.0,1651024694264485.0,1
679,-1.0,-12.0,1.0,2.0,2.0,-1.0,-1.0,-2.0,1651024694264485.0,1
680,0.0,-20.0,-3.0,0.0,-3.0,-1.0,0.0,2.0,1651024694266438.0,1
681,4.0,30.0,4.0,2.0,-7.0,-6.0,-2.0,0.0,1651024694266438.0,1
682,-3.0,-10.0,-7.0,-4.0,11.0,3.0,-3.0,-3.0,1651024694278379.0,1
683,0.0,2.0,-2.0,-2.0,-1.0,0.0,2.0,0.0,1651024694278379.0,1
684,2.0,20.0,5.0,0.0,-7.0,-5.0,-3.0,0.0,1651024694287355.0,1
685,-2.0,5.0,1.0,2.0,5.0,3.0,0.0,0.0,1651024694287355.0,1
686,0.0,-5.0,4.0,-1.0,-6.0,-3.0,-2.0,0.0,1651024694302314.0,1
687,1.0,-3.0,-9.0,-5.0,-18.0,-5.0,-1.0,1.0,1651024694302314.0,1
688,-4.0,-1.0,-7.0,-1.0,23.0,7.0,0.0,0.0,1651024694303325.0,1
689,-5.0,-12.0,1.0,2.0,-1.0,-3.0,1.0,-3.0,1651024694303325.0,1
690,-1.0,8.0,3.0,-1.0,-4.0,-1.0,1.0,-1.0,1651024694324294.0,1
691,-2.0,-4.0,-2.0,-3.0,0.0,0.0,-1.0,-2.0,1651024694324294.0,1
692,0.0,15.0,-1.0,-3.0,-11.0,-1.0,-1.0,-2.0,1651024694326278.0,1
693,-3.0,-12.0,-4.0,-3.0,2.0,-1.0,-1.0,-3.0,1651024694326278.0,1
694,1.0,1.0,-2.0,-1.0,-1.0,0.0,0.0,-1.0,1651024694338094.0,1
695,1.0,4.0,2.0,0.0,-4.0,-1.0,-1.0,0.0,1651024694338094.0,1
696,-1.0,-11.0,3.0,1.0,4.0,4.0,1.0,2.0,1651024694347005.0,1
697,1.0,-34.0,-4.0,-1.0,5.0,1.0,1.0,0.0,1651024694347005.0,1
698,-5.0,-9.0,-5.0,0.0,-5.0,0.0,-3.0,-1.0,1651024694361965.0,1
699,1.0,-5.0,-3.0,-2.0,-1.0,-3.0,-1.0,0.0,1651024694361965.0,1
700,1.0,4.0,3.0,2.0,0.0,-3.0,-1.0,0.0,1651024694363965.0,1
701,-2.0,5.0,1.0,1.0,9.0,5.0,0.0,0.0,1651024694363965.0,1
702,0.0,-11.0,1.0,-1.0,-8.0,-4.0,0.0,1.0,1651024694384929.0,1
703,1.0,-10.0,-4.0,1.0,3.0,1.0,0.0,0.0,1651024694384929.0,1
704,2.0,-9.0,0.0,-1.0,-6.0,-2.0,1.0,1.0,1651024694385884.0,1
705,-2.0,15.0,1.0,-6.0,-12.0,-6.0,-3.0,-1.0,1651024694385884.0,1
706,-3.0,0.0,-1.0,-2.0,5.0,0.0,-1.0,-3.0,1651024694397896.0,1
707,-1.0,-38.0,-4.0,5.0,14.0,3.0,1.0,0.0,1651024694397896.0,1
708,-12.0,-11.0,4.0,0.0,-6.0,2.0,0.0,-2.0,1651024694406829.0,1
709,4.0,6.0,9.0,3.0,2.0,0.0,-2.0,1.0,1651024694406829.0,1
710,6.0,11.0,-4.0,-2.0,-9.0,-2.0,-2.0,0.0,1651024694422474.0,1
711,-2.0,16.0,3.0,-1.0,8.0,2.0,-1.0,-1.0,1651024694422474.0,1
712,3.0,-14.0,-6.0,-2.0,1.0,-1.0,-3.0,-2.0,1651024694423479.0,1
713,-5.0,-12.0,-5.0,0.0,-6.0,-3.0,1.0,0.0,1651024694423479.0,1
714,0.0,9.0,2.0,2.0,1.0,0.0,0.0,0.0,1651024694444486.0,1
715,1.0,8.0,3.0,1.0,-4.0,-4.0,2.0,0.0,1651024694444486.0,1
716,-9.0,-5.0,-6.0,-3.0,-2.0,-3.0,-3.0,-2.0,1651024694446440.0,1
717,1.0,18.0,-2.0,-2.0,-1.0,3.0,-1.0,-2.0,1651024694446440.0,1
718,3.0,2.0,3.0,-2.0,-1.0,1.0,-1.0,0.0,1651024694457939.0,1
719,-4.0,1.0,3.0,0.0,1.0,0.0,-1.0,-2.0,1651024694457939.0,1
720,3.0,-7.0,-1.0,0.0,3.0,0.0,1.0,0.0,1651024694466918.0,1
721,7.0,4.0,4.0,0.0,2.0,2.0,2.0,1.0,1651024694466918.0,1
722,-5.0,28.0,-4.0,-2.0,-6.0,-3.0,0.0,-3.0,1651024694481944.0,1
723,0.0,7.0,0.0,1.0,13.0,4.0,0.0,0.0,1651024694481944.0,1
724,0.0,-8.0,1.0,0.0,-9.0,-3.0,0.0,-1.0,1651024694483898.0,1
725,1.0,3.0,-1.0,0.0,-4.0,-5.0,0.0,-1.0,1651024694483898.0,1
726,4.0,2.0,6.0,0.0,3.0,2.0,3.0,1.0,1651024694504921.0,1
727,0.0,6.0,1.0,-2.0,-8.0,-1.0,0.0,1.0,1651024694504921.0,1
728,-1.0,-17.0,-7.0,-2.0,0.0,-2.0,-2.0,-2.0,1651024694505874.0,1
729,-10.0,-5.0,-5.0,-1.0,2.0,1.0,-2.0,-4.0,1651024694505874.0,1
730,2.0,14.0,0.0,0.0,0.0,0.0,-1.0,0.0,1651024694517842.0,1
731,3.0,10.0,-1.0,-2.0,-7.0,-3.0,-3.0,-2.0,1651024694517842.0,1
732,3.0,1.0,6.0,1.0,3.0,1.0,1.0,0.0,1651024694526832.0,1
733,5.0,23.0,4.0,0.0,0.0,-2.0,0.0,2.0,1651024694526832.0,1
734,-5.0,-27.0,-4.0,-1.0,0.0,-2.0,-1.0,-1.0,1651024694541846.0,1
735,-3.0,1.0,-1.0,0.0,-8.0,-5.0,0.0,0.0,1651024694541846.0,1
736,2.0,11.0,-1.0,-1.0,5.0,2.0,-1.0,-1.0,1651024694543799.0,1
737,0.0,11.0,-2.0,-2.0,-2.0,1.0,-2.0,-1.0,1651024694543799.0,1
738,3.0,3.0,-1.0,3.0,5.0,0.0,0.0,-1.0,1651024694564725.0,1
739,-1.0,1.0,-1.0,0.0,-4.0,-2.0,-1.0,-1.0,1651024694564725.0,1
740,3.0,4.0,4.0,0.0,-2.0,0.0,0.0,1.0,1651024694565715.0,1
741,-2.0,-8.0,0.0,0.0,1.0,-1.0,0.0,0.0,1651024694565715.0,1
742,-2.0,-16.0,-5.0,0.0,0.0,0.0,0.0,-2.0,1651024694578679.0,1
743,-1.0,5.0,-1.0,-8.0,-24.0,-6.0,-3.0,-4.0,1651024694578679.0,1
744,-3.0,-4.0,-2.0,0.0,18.0,4.0,-1.0,-1.0,1651024694587656.0,1
745,-1.0,-7.0,-2.0,3.0,8.0,-1.0,1.0,1.0,1651024694587656.0,1
746,-5.0,-13.0,0.0,0.0,-6.0,-1.0,-1.0,-1.0,1651024694601618.0,1
747,3.0,10.0,1.0,0.0,1.0,2.0,0.0,2.0,1651024694601618.0,1
748,3.0,11.0,-5.0,-3.0,-9.0,-3.0,-1.0,-1.0,1651024694603613.0,1
749,-4.0,-7.0,-3.0,-4.0,-4.0,-3.0,-2.0,-3.0,1651024694603613.0,1
750,1.0,-10.0,-5.0,-1.0,4.0,-1.0,0.0,0.0,1651024694624624.0,1
751,-5.0,14.0,-3.0,-1.0,5.0,2.0,-2.0,-1.0,1651024694624624.0,1
752,-5.0,-4.0,-2.0,-1.0,-3.0,-1.0,-2.0,-1.0,1651024694625577.0,1
753,1.0,-8.0,-1.0,2.0,2.0,2.0,0.0,1.0,1651024694625577.0,1
754,0.0,9.0,3.0,-1.0,-3.0,-3.0,-1.0,-1.0,1651024694638550.0,1
755,3.0,-14.0,-4.0,-1.0,4.0,1.0,-1.0,-3.0,1651024694638550.0,1
756,0.0,8.0,4.0,0.0,-2.0,-2.0,0.0,-1.0,1651024694647496.0,1
757,-2.0,-3.0,-3.0,0.0,-3.0,-3.0,0.0,1.0,1651024694647496.0,1
758,-6.0,-12.0,1.0,2.0,-2.0,1.0,-2.0,-1.0,1651024694661463.0,1
759,-4.0,-22.0,-3.0,1.0,6.0,0.0,1.0,-1.0,1651024694661463.0,1
760,5.0,-2.0,0.0,1.0,-1.0,1.0,1.0,3.0,1651024694663453.0,1
761,-4.0,-46.0,-10.0,-4.0,-9.0,-3.0,-3.0,-3.0,1651024694663453.0,1
762,1.0,15.0,4.0,-2.0,7.0,1.0,-1.0,0.0,1651024694684468.0,1
763,0.0,1.0,5.0,4.0,10.0,6.0,-1.0,-1.0,1651024694684468.0,1
764,0.0,-4.0,0.0,1.0,-6.0,-5.0,0.0,0.0,1651024694686314.0,1
765,0.0,8.0,-2.0,-1.0,0.0,1.0,0.0,-1.0,1651024694686314.0,1
766,-1.0,-30.0,-9.0,-4.0,-1.0,-2.0,1.0,0.0,1651024694706985.0,1
767,-2.0,-17.0,-5.0,-1.0,-2.0,-4.0,1.0,0.0,1651024694706985.0,1
768,0.0,13.0,2.0,0.0,2.0,2.0,-2.0,-1.0,1651024694708941.0,1
769,0.0,4.0,3.0,-4.0,-24.0,-7.0,-3.0,-2.0,1651024694708941.0,1
770,4.0,1.0,-3.0,1.0,26.0,5.0,0.0,1.0,1651024694722498.0,1
771,-5.0,-18.0,1.0,3.0,4.0,2.0,0.0,0.0,1651024694722498.0,1
772,-1.0,-2.0,0.0,0.0,-9.0,-2.0,0.0,1.0,1651024694723498.0,1
773,-3.0,-2.0,0.0,-1.0,2.0,0.0,0.0,-1.0,1651024694723498.0,1
774,4.0,20.0,5.0,-1.0,-12.0,0.0,0.0,0.0,1651024694744903.0,1
775,0.0,-21.0,-6.0,-4.0,-1.0,1.0,0.0,1.0,1651024694744903.0,1
776,3.0,20.0,-2.0,-4.0,4.0,-2.0,-4.0,-2.0,1651024694745903.0,1
777,1.0,3.0,3.0,1.0,2.0,0.0,0.0,0.0,1651024694745903.0,1
778,1.0,13.0,2.0,0.0,-3.0,-1.0,-1.0,1.0,1651024694766915.0,1
779,0.0,7.0,1.0,1.0,0.0,-4.0,-1.0,-1.0,1651024694766915.0,1
780,-4.0,-10.0,-2.0,1.0,-1.0,0.0,0.0,-1.0,1651024694768842.0,1
781,4.0,22.0,6.0,1.0,6.0,0.0,0.0,1.0,1651024694768842.0,1
782,-3.0,-13.0,-4.0,-1.0,-3.0,-1.0,-3.0,-3.0,1651024694781808.0,1
783,1.0,33.0,1.0,-1.0,-3.0,-1.0,0.0,-1.0,1651024694781808.0,1
784,-10.0,-5.0,-1.0,-3.0,-5.0,-3.0,-1.0,-4.0,1651024694783830.0,1
785,2.0,4.0,1.0,2.0,7.0,1.0,-1.0,-1.0,1651024694783830.0,1
786,1.0,10.0,1.0,1.0,-1.0,-2.0,-1.0,1.0,1651024694804901.0,1
787,-4.0,-3.0,-4.0,-2.0,-7.0,-5.0,-1.0,-2.0,1651024694804901.0,1
788,3.0,10.0,-2.0,-1.0,3.0,4.0,1.0,0.0,1651024694805841.0,1
789,-2.0,-2.0,-1.0,-1.0,1.0,3.0,0.0,-1.0,1651024694805841.0,1
790,-1.0,5.0,1.0,0.0,10.0,-1.0,-1.0,-1.0,1651024694826785.0,1
791,3.0,-5.0,1.0,-1.0,0.0,3.0,0.0,1.0,1651024694826785.0,1
792,1.0,3.0,0.0,-1.0,-6.0,-3.0,-1.0,0.0,1651024694828779.0,1
793,6.0,30.0,5.0,0.0,-2.0,0.0,-2.0,0.0,1651024694828779.0,1
794,-7.0,-25.0,-2.0,-2.0,-7.0,-3.0,-2.0,-3.0,1651024694841753.0,1
795,2.0,2.0,-1.0,-1.0,-9.0,-3.0,-1.0,0.0,1651024694841753.0,1
796,-1.0,-2.0,0.0,0.0,16.0,3.0,0.0,0.0,1651024694847757.0,1
797,1.0,2.0,6.0,0.0,2.0,0.0,0.0,0.0,1651024694847757.0,1
798,4.0,5.0,-5.0,0.0,-6.0,-3.0,0.0,2.0,1651024694864683.0,1
799,-7.0,-25.0,-1.0,-2.0,0.0,-1.0,-1.0,-3.0,1651024694864683.0,1
800,4.0,-8.0,-2.0,0.0,-9.0,-1.0,1.0,1.0,1651024694865693.0,1
801,1.0,11.0,-1.0,-1.0,-3.0,-4.0,-1.0,1.0,1651024694865693.0,1
802,-1.0,1.0,-1.0,-2.0,3.0,1.0,0.0,0.0,1651024694886985.0,1
803,2.0,5.0,1.0,1.0,3.0,2.0,1.0,2.0,1651024694886985.0,1
804,0.0,-1.0,2.0,-4.0,-1.0,0.0,-1.0,-1.0,1651024694888942.0,0
805,-4.0,-14.0,0.0,6.0,4.0,0.0,-2.0,-1.0,1651024694888942.0,2
806,0.0,-12.0,2.0,2.0,-6.0,-1.0,0.0,1.0,1651024694900951.0,2
807,4.0,22.0,1.0,-5.0,-6.0,-5.0,-3.0,-1.0,1651024694900951.0,2
808,-1.0,3.0,-2.0,-8.0,-16.0,-1.0,-1.0,0.0,1651024694907929.0,2
809,-1.0,-12.0,-11.0,-1.0,21.0,4.0,-1.0,-1.0,1651024694907929.0,2
810,-2.0,4.0,6.0,13.0,-1.0,2.0,-1.0,2.0,1651024694924865.0,2
811,3.0,5.0,-4.0,1.0,6.0,1.0,1.0,0.0,1651024694924865.0,2
812,-3.0,-11.0,4.0,0.0,-2.0,-4.0,1.0,-1.0,1651024694925900.0,2
813,-2.0,-13.0,-14.0,-19.0,-26.0,-9.0,-2.0,-4.0,1651024694925900.0,2
814,-4.0,3.0,-15.0,-12.0,8.0,5.0,-1.0,-3.0,1651024694946895.0,2
815,-6.0,-6.0,1.0,15.0,2.0,2.0,-1.0,-2.0,1651024694946895.0,2
816,3.0,4.0,4.0,5.0,5.0,1.0,2.0,2.0,1651024694948890.0,2
817,-11.0,-81.0,-2.0,17.0,5.0,2.0,3.0,0.0,1651024694948890.0,2
818,6.0,10.0,6.0,-4.0,-3.0,-2.0,-1.0,1.0,1651024694961004.0,2
819,1.0,4.0,-15.0,-17.0,-6.0,1.0,-1.0,0.0,1651024694961004.0,2
820,-2.0,1.0,1.0,1.0,1.0,-1.0,-3.0,-3.0,1651024694967949.0,2
821,1.0,17.0,6.0,-2.0,0.0,0.0,-1.0,1.0,1651024694967949.0,2
822,-14.0,-7.0,-7.0,-5.0,-8.0,-2.0,1.0,-4.0,1651024694983926.0,2
823,-3.0,-24.0,0.0,-5.0,-8.0,-3.0,0.0,-1.0,1651024694983926.0,2
824,0.0,-1.0,1.0,9.0,15.0,4.0,1.0,1.0,1651024694990970.0,2
825,-1.0,10.0,0.0,1.0,7.0,2.0,-1.0,-1.0,1651024694990970.0,2
826,5.0,8.0,2.0,1.0,-27.0,-7.0,-1.0,0.0,1651024695007381.0,2
827,1.0,15.0,9.0,10.0,28.0,9.0,1.0,-1.0,1651024695007381.0,2
828,-3.0,2.0,22.0,7.0,-3.0,0.0,-1.0,0.0,1651024695008896.0,2
829,5.0,8.0,-34.0,-15.0,-23.0,-9.0,0.0,2.0,1651024695008896.0,2
830,-3.0,-6.0,-2.0,-11.0,13.0,5.0,-1.0,-4.0,1651024695021834.0,2
831,0.0,-2.0,-4.0,-21.0,-26.0,-10.0,-3.0,0.0,1651024695021834.0,2
832,3.0,3.0,0.0,-6.0,6.0,-3.0,-2.0,-4.0,1651024695027926.0,2
833,0.0,5.0,19.0,-10.0,-2.0,5.0,2.0,1.0,1651024695027926.0,2
834,5.0,9.0,13.0,40.0,28.0,7.0,4.0,4.0,1651024695044989.0,2
835,3.0,-1.0,-7.0,16.0,11.0,5.0,6.0,4.0,1651024695044989.0,2
836,-11.0,-19.0,-35.0,-63.0,-19.0,-6.0,-11.0,-10.0,1651024695045986.0,2
837,-3.0,5.0,23.0,29.0,-3.0,-2.0,-3.0,-4.0,1651024695045986.0,2
838,3.0,2.0,-6.0,-4.0,-3.0,-2.0,6.0,3.0,1651024695067026.0,2
839,4.0,22.0,37.0,22.0,11.0,2.0,-9.0,-3.0,1651024695067026.0,2
840,1.0,-4.0,-4.0,17.0,7.0,1.0,3.0,3.0,1651024695069014.0,2
841,5.0,6.0,-19.0,-29.0,-10.0,-7.0,5.0,6.0,1651024695069014.0,2
842,-4.0,-4.0,10.0,-6.0,-10.0,-12.0,-41.0,-16.0,1651024695080983.0,2
843,7.0,4.0,-13.0,-23.0,-4.0,15.0,33.0,18.0,1651024695080983.0,2
844,6.0,-1.0,-39.0,-32.0,-8.0,1.0,8.0,5.0,1651024695088028.0,2
845,-18.0,0.0,-3.0,-30.0,-6.0,-14.0,-7.0,-7.0,1651024695088028.0,2
846,3.0,7.0,8.0,-8.0,-7.0,11.0,-1.0,1.0,1651024695104866.0,2
847,-6.0,2.0,26.0,35.0,3.0,-9.0,-9.0,-12.0,1651024695104866.0,2
848,0.0,-17.0,25.0,75.0,13.0,2.0,-32.0,-8.0,1651024695105866.0,2
849,7.0,10.0,-19.0,-71.0,-4.0,5.0,8.0,7.0,1651024695105866.0,2
850,-2.0,-3.0,12.0,39.0,13.0,-2.0,2.0,0.0,1651024695126969.0,2
851,-24.0,-20.0,-41.0,27.0,14.0,-20.0,-3.0,-6.0,1651024695126969.0,2
852,-2.0,-3.0,12.0,-36.0,-7.0,17.0,10.0,4.0,1651024695128923.0,2
853,6.0,11.0,12.0,9.0,-3.0,-36.0,-33.0,-12.0,1651024695128923.0,2
854,8.0,1.0,-4.0,-3.0,-10.0,6.0,35.0,15.0,1651024695140933.0,2
855,1.0,8.0,-2.0,10.0,11.0,62.0,1.0,-1.0,1651024695140933.0,2
856,-14.0,-3.0,-6.0,24.0,4.0,-1.0,3.0,0.0,1651024695149841.0,2
857,8.0,20.0,8.0,0.0,-2.0,3.0,9.0,3.0,1651024695149841.0,2
858,-1.0,2.0,-13.0,-24.0,-5.0,0.0,-13.0,-14.0,1651024695164828.0,2
859,11.0,15.0,18.0,-5.0,-12.0,-30.0,10.0,11.0,1651024695164828.0,2
860,-2.0,-1.0,2.0,12.0,5.0,-3.0,16.0,12.0,1651024695165798.0,2
861,-8.0,-19.0,-21.0,-3.0,8.0,1.0,-17.0,-11.0,1651024695165798.0,2
862,5.0,3.0,-44.0,-17.0,-7.0,0.0,46.0,23.0,1651024695194683.0,2
863,-14.0,-25.0,31.0,-3.0,-15.0,-13.0,-24.0,-18.0,1651024695194683.0,2
864,11.0,20.0,17.0,-14.0,-3.0,-3.0,-20.0,-9.0,1651024695195735.0,2
865,2.0,5.0,1.0,31.0,3.0,-6.0,14.0,5.0,1651024695195735.0,2
866,-8.0,-10.0,2.0,15.0,3.0,0.0,-57.0,-25.0,1651024695200123.0,2
867,-1.0,-10.0,-30.0,-45.0,-7.0,19.0,13.0,6.0,1651024695200123.0,2
868,3.0,-2.0,-19.0,-20.0,-6.0,-13.0,8.0,7.0,1651024695210104.0,2
869,-8.0,-1.0,43.0,34.0,2.0,0.0,1.0,-9.0,1651024695210104.0,2
870,4.0,-5.0,-24.0,-33.0,-9.0,-17.0,3.0,3.0,1651024695225056.0,2
871,4.0,21.0,16.0,-3.0,4.0,1.0,-18.0,-7.0,1651024695225056.0,2
872,6.0,14.0,22.0,28.0,3.0,-11.0,4.0,3.0,1651024695226053.0,2
873,-4.0,-20.0,-34.0,14.0,20.0,25.0,12.0,5.0,1651024695226053.0,2
874,-18.0,-18.0,9.0,-30.0,-12.0,-9.0,-22.0,-18.0,1651024695246896.0,2
875,13.0,8.0,13.0,1.0,13.0,0.0,22.0,14.0,1651024695246896.0,2
876,-9.0,-11.0,-22.0,-12.0,-9.0,-3.0,8.0,-1.0,1651024695248892.0,2
877,7.0,10.0,17.0,16.0,-7.0,-18.0,-22.0,-6.0,1651024695248892.0,2
878,3.0,5.0,11.0,7.0,3.0,1.0,30.0,12.0,1651024695260929.0,2
879,-12.0,-21.0,-28.0,1.0,-13.0,-9.0,-19.0,-15.0,1651024695260929.0,2
880,5.0,12.0,14.0,7.0,12.0,4.0,1.0,-1.0,1651024695269835.0,2
881,-6.0,-18.0,-1.0,-28.0,-4.0,8.0,12.0,5.0,1651024695269835.0,2
882,-1.0,4.0,8.0,18.0,7.0,0.0,-10.0,-5.0,1651024695284896.0,2
883,12.0,5.0,-18.0,-28.0,-20.0,-17.0,4.0,7.0,1651024695284896.0,2
884,0.0,-1.0,-21.0,23.0,10.0,13.0,3.0,0.0,1651024695285910.0,2
885,-9.0,-1.0,20.0,1.0,-8.0,-21.0,-51.0,-25.0,1651024695285910.0,2
886,7.0,1.0,4.0,15.0,8.0,35.0,84.0,38.0,1651024695307893.0,2
887,0.0,-10.0,-6.0,2.0,4.0,-7.0,-4.0,4.0,1651024695307893.0,2
888,0.0,-2.0,2.0,-30.0,-20.0,-6.0,-5.0,-7.0,1651024695308878.0,2
889,7.0,12.0,7.0,16.0,14.0,15.0,-2.0,2.0,1651024695308878.0,2
890,11.0,4.0,-3.0,-2.0,7.0,-5.0,10.0,17.0,1651024695320848.0,2
891,3.0,7.0,6.0,-1.0,-2.0,5.0,-7.0,-4.0,1651024695320848.0,2
892,-7.0,-9.0,-2.0,-3.0,-3.0,-3.0,-9.0,-6.0,1651024695329849.0,2
893,-1.0,2.0,-8.0,33.0,10.0,8.0,21.0,7.0,1651024695329849.0,2
894,-7.0,-7.0,-14.0,-40.0,-26.0,-40.0,-41.0,-19.0,1651024695352498.0,2
895,1.0,-3.0,4.0,-1.0,2.0,31.0,32.0,11.0,1651024695352498.0,2
896,0.0,3.0,6.0,6.0,4.0,-2.0,-14.0,-5.0,1651024695353508.0,2
897,5.0,19.0,10.0,11.0,18.0,10.0,-30.0,-12.0,1651024695353508.0,2
898,-6.0,-14.0,-9.0,-33.0,-24.0,-6.0,13.0,6.0,1651024695366472.0,2
899,-6.0,-2.0,8.0,37.0,19.0,-11.0,-7.0,-3.0,1651024695366472.0,2
900,-8.0,-7.0,0.0,-1.0,-5.0,-2.0,-16.0,-15.0,1651024695373452.0,2
901,10.0,8.0,8.0,19.0,10.0,16.0,37.0,23.0,1651024695373452.0,2
902,2.0,8.0,11.0,16.0,15.0,6.0,-7.0,-3.0,1651024695380434.0,2
903,-3.0,-4.0,-1.0,-13.0,-9.0,-13.0,-18.0,-11.0,1651024695380434.0,2
904,-6.0,3.0,-3.0,-22.0,-10.0,-10.0,-15.0,-6.0,1651024695390011.0,2
905,4.0,-11.0,-19.0,1.0,1.0,7.0,38.0,18.0,1651024695390011.0,2
906,-7.0,-4.0,13.0,9.0,-8.0,-29.0,-55.0,-25.0,1651024695405082.0,2
907,6.0,16.0,16.0,-8.0,7.0,0.0,10.0,9.0,1651024695405082.0,2
908,-3.0,-19.0,-34.0,-7.0,-2.0,3.0,9.0,4.0,1651024695405978.0,2
909,0.0,2.0,13.0,-14.0,-8.0,17.0,8.0,-1.0,1651024695405978.0,2
910,-11.0,-27.0,-21.0,-2.0,5.0,22.0,-5.0,-8.0,1651024695426976.0,2
911,0.0,16.0,17.0,4.0,5.0,-17.0,-22.0,-7.0,1651024695426976.0,2
912,-1.0,1.0,17.0,13.0,1.0,-7.0,9.0,5.0,1651024695428935.0,2
913,-2.0,-4.0,-32.0,-29.0,-6.0,-8.0,-13.0,-3.0,1651024695428935.0,2
914,0.0,7.0,18.0,30.0,7.0,-7.0,3.0,2.0,1651024695440943.0,2
915,5.0,25.0,46.0,8.0,-5.0,4.0,3.0,1.0,1651024695440943.0,2
916,-6.0,-14.0,-53.0,10.0,23.0,18.0,14.0,6.0,1651024695456832.0,2
917,-3.0,0.0,35.0,-8.0,-17.0,-5.0,-6.0,-6.0,1651024695456832.0,2
918,4.0,11.0,-7.0,-12.0,3.0,5.0,-11.0,0.0,1651024695464829.0,2
919,1.0,-3.0,-2.0,-23.0,6.0,12.0,33.0,15.0,1651024695464829.0,2
920,4.0,0.0,4.0,13.0,1.0,8.0,9.0,5.0,1651024695465875.0,2
921,-3.0,-26.0,-49.0,5.0,-2.0,-10.0,-10.0,-6.0,1651024695465875.0,2
922,-1.0,10.0,17.0,2.0,-3.0,-19.0,-19.0,-9.0,1651024695486768.0,2
923,-2.0,7.0,8.0,10.0,-5.0,16.0,3.0,-3.0,1651024695486768.0,2
924,-8.0,-19.0,-8.0,-25.0,-13.0,-1.0,-32.0,-18.0,1651024695488771.0,2
925,2.0,4.0,1.0,7.0,7.0,8.0,-1.0,-1.0,1651024695488771.0,2
926,-10.0,1.0,5.0,2.0,7.0,8.0,33.0,13.0,1651024695500717.0,2
927,-1.0,-3.0,-25.0,-8.0,-1.0,0.0,-7.0,-6.0,1651024695500717.0,2
928,-1.0,9.0,23.0,5.0,-7.0,-17.0,7.0,0.0,1651024695509692.0,2
929,-8.0,-10.0,-19.0,1.0,-8.0,-1.0,-8.0,-7.0,1651024695509692.0,2
930,8.0,8.0,5.0,2.0,9.0,4.0,-6.0,-1.0,1651024695524991.0,2
931,1.0,1.0,-19.0,-13.0,-6.0,-15.0,-9.0,-2.0,1651024695524991.0,2
932,11.0,11.0,4.0,-29.0,4.0,21.0,40.0,21.0,1651024695525897.0,2
933,-3.0,2.0,37.0,39.0,11.0,-1.0,1.0,2.0,1651024695525897.0,2
934,2.0,-3.0,-11.0,2.0,-1.0,2.0,14.0,4.0,1651024695546966.0,2
935,-13.0,-22.0,-24.0,-6.0,-11.0,-16.0,-14.0,-8.0,1651024695546966.0,2
936,9.0,15.0,16.0,0.0,-2.0,2.0,-5.0,1.0,1651024695548894.0,2
937,-3.0,-5.0,-22.0,-42.0,-17.0,-6.0,0.0,-2.0,1651024695548894.0,2
938,1.0,-4.0,-6.0,9.0,3.0,-3.0,-39.0,-14.0,1651024695560928.0,2
939,-8.0,-13.0,-12.0,7.0,-9.0,-8.0,1.0,-2.0,1651024695560928.0,2
940,4.0,18.0,16.0,-12.0,-13.0,-36.0,-19.0,-4.0,1651024695569838.0,2
941,-10.0,-20.0,-23.0,-20.0,-1.0,21.0,9.0,-3.0,1651024695569838.0,2
942,1.0,3.0,6.0,20.0,8.0,14.0,5.0,-1.0,1651024695584799.0,2
943,3.0,7.0,2.0,-20.0,-9.0,-4.0,-9.0,-2.0,1651024695584799.0,2
944,-8.0,-9.0,-1.0,10.0,7.0,15.0,12.0,0.0,1651024695585906.0,2
945,7.0,25.0,18.0,10.0,0.0,-26.0,-23.0,-3.0,1651024695585906.0,2
946,-1.0,-23.0,-31.0,-20.0,-6.0,2.0,12.0,2.0,1651024695606959.0,2
947,3.0,-5.0,-8.0,-7.0,-1.0,11.0,19.0,9.0,1651024695606959.0,2
948,-1.0,1.0,17.0,17.0,9.0,-11.0,-6.0,-3.0,1651024695608892.0,2
949,0.0,8.0,33.0,33.0,12.0,7.0,-3.0,-3.0,1651024695608892.0,2
950,0.0,3.0,-25.0,-36.0,-6.0,7.0,2.0,2.0,1651024695620871.0,2
951,0.0,3.0,20.0,44.0,18.0,-7.0,-19.0,-9.0,1651024695620871.0,2
952,4.0,-1.0,0.0,11.0,-1.0,1.0,2.0,6.0,1651024695635979.0,2
953,-4.0,2.0,-13.0,-27.0,-13.0,-3.0,7.0,4.0,1651024695635979.0,2
954,5.0,-17.0,8.0,2.0,9.0,1.0,13.0,7.0,1651024695644918.0,2
955,-15.0,-9.0,-2.0,0.0,4.0,0.0,-6.0,-9.0,1651024695644918.0,2
956,-1.0,11.0,1.0,-4.0,-11.0,-4.0,-37.0,-18.0,1651024695645923.0,2
957,7.0,7.0,-3.0,-2.0,-4.0,4.0,36.0,17.0,1651024695645923.0,2
958,-4.0,-4.0,17.0,-1.0,8.0,-10.0,-13.0,-7.0,1651024695666984.0,2
959,10.0,2.0,-10.0,16.0,11.0,-14.0,3.0,10.0,1651024695666984.0,2
960,3.0,3.0,4.0,7.0,13.0,51.0,17.0,2.0,1651024695668937.0,2
961,-12.0,1.0,-3.0,-12.0,-13.0,-13.0,0.0,-4.0,1651024695668937.0,2
962,-3.0,2.0,-5.0,-5.0,-16.0,-8.0,3.0,5.0,1651024695689819.0,2
963,1.0,-6.0,-11.0,-6.0,6.0,12.0,-7.0,-3.0,1651024695689819.0,2
964,2.0,6.0,2.0,6.0,-2.0,-16.0,38.0,18.0,1651024695696783.0,2
965,-3.0,-8.0,6.0,-1.0,-3.0,-12.0,-14.0,-4.0,1651024695696783.0,2
966,-3.0,10.0,25.0,4.0,-16.0,-10.0,-23.0,-12.0,1651024695704776.0,2
967,10.0,20.0,-6.0,14.0,26.0,24.0,43.0,23.0,1651024695704776.0,2
968,-5.0,-29.0,-35.0,-36.0,-16.0,-9.0,-9.0,-6.0,1651024695705829.0,2
969,4.0,0.0,12.0,9.0,17.0,8.0,1.0,-1.0,1651024695705829.0,2
970,-4.0,-12.0,-10.0,35.0,6.0,-8.0,-15.0,-8.0,1651024695725936.0,2
971,-6.0,-7.0,-4.0,-49.0,-41.0,-18.0,-8.0,-9.0,1651024695725936.0,2
972,3.0,8.0,25.0,59.0,25.0,11.0,-15.0,-3.0,1651024695734715.0,2
973,3.0,-10.0,-24.0,-23.0,-7.0,-8.0,15.0,6.0,1651024695734715.0,2
974,-3.0,15.0,10.0,-2.0,-3.0,0.0,1.0,-2.0,1651024695749766.0,2
975,4.0,-11.0,-1.0,5.0,6.0,9.0,-8.0,3.0,1651024695749766.0,2
976,-2.0,-4.0,-9.0,-19.0,-5.0,-7.0,4.0,2.0,1651024695750700.0,2
977,-10.0,-13.0,-9.0,-14.0,-11.0,-6.0,-19.0,-15.0,1651024695750700.0,2
978,4.0,10.0,4.0,4.0,-10.0,1.0,26.0,7.0,1651024695763730.0,2
979,-1.0,8.0,10.0,3.0,2.0,3.0,-29.0,-10.0,1651024695763730.0,2
980,-3.0,-18.0,-26.0,-14.0,4.0,-14.0,-5.0,-3.0,1651024695771750.0,2
981,6.0,-4.0,-3.0,-4.0,-10.0,-3.0,-9.0,-1.0,1651024695771750.0,2
982,-6.0,0.0,2.0,15.0,20.0,12.0,-12.0,-10.0,1651024695786099.0,2
983,3.0,-1.0,1.0,-26.0,-14.0,-7.0,10.0,5.0,1651024695786099.0,2
984,0.0,6.0,6.0,-34.0,-19.0,-10.0,-8.0,-4.0,1651024695787028.0,2
985,10.0,13.0,30.0,92.0,40.0,16.0,10.0,2.0,1651024695787028.0,2
986,7.0,-3.0,-7.0,-19.0,-13.0,1.0,6.0,8.0,1651024695808995.0,2
987,-4.0,-2.0,10.0,17.0,2.0,-2.0,2.0,-3.0,1651024695808995.0,2
988,-7.0,-13.0,-31.0,-26.0,-5.0,1.0,-10.0,-6.0,1651024695809956.0,2
989,-1.0,-10.0,-14.0,-32.0,-13.0,-5.0,7.0,3.0,1651024695809956.0,2
990,0.0,6.0,10.0,-2.0,-1.0,-1.0,7.0,4.0,1651024695822903.0,2
991,2.0,4.0,-3.0,6.0,7.0,12.0,14.0,4.0,1651024695822903.0,2
992,2.0,9.0,9.0,0.0,-3.0,-1.0,-4.0,-4.0,1651024695830874.0,2
993,3.0,-13.0,-19.0,-10.0,-6.0,-17.0,-24.0,-8.0,1651024695830874.0,2
994,7.0,7.0,4.0,9.0,9.0,29.0,23.0,17.0,1651024695854073.0,2
995,-5.0,-6.0,-6.0,-12.0,-6.0,-10.0,-29.0,-16.0,1651024695854073.0,2
996,0.0,2.0,22.0,7.0,-1.0,2.0,51.0,24.0,1651024695855155.0,2
997,4.0,1.0,-24.0,-22.0,-4.0,14.0,8.0,4.0,1651024695855155.0,2
998,7.0,28.0,40.0,51.0,12.0,-8.0,-5.0,3.0,1651024695868901.0,2
999,-2.0,-4.0,-27.0,-16.0,10.0,5.0,-23.0,-9.0,1651024695868901.0,2
1000,1.0,-13.0,3.0,22.0,-2.0,1.0,-3.0,-1.0,1651024695869860.0,2
1001,-3.0,3.0,15.0,-3.0,4.0,-4.0,4.0,2.0,1651024695869860.0,2
1002,-4.0,-12.0,-15.0,-16.0,-3.0,-5.0,-8.0,-9.0,1651024695882864.0,2
1003,1.0,3.0,9.0,4.0,-1.0,-3.0,-9.0,-1.0,1651024695882864.0,2
1004,1.0,13.0,-2.0,13.0,6.0,-4.0,-7.0,-1.0,1651024695891347.0,2
1005,-1.0,14.0,7.0,-15.0,-5.0,11.0,30.0,9.0,1651024695891347.0,2
1006,-10.0,-11.0,-2.0,-19.0,-18.0,-12.0,0.0,-4.0,1651024695906757.0,2
1007,-3.0,-9.0,-5.0,5.0,-6.0,-9.0,-7.0,-4.0,1651024695906757.0,2
1008,4.0,8.0,11.0,-3.0,0.0,-12.0,16.0,9.0,1651024695906757.0,2
1009,-2.0,-1.0,12.0,7.0,9.0,31.0,3.0,3.0,1651024695906757.0,2
1010,5.0,4.0,-11.0,0.0,13.0,8.0,-13.0,-8.0,1651024695929029.0,2
1011,-3.0,-14.0,-14.0,-34.0,-26.0,-27.0,30.0,12.0,1651024695929029.0,2
1012,-2.0,1.0,-1.0,17.0,0.0,3.0,-18.0,-10.0,1651024695929972.0,2
1013,-1.0,-3.0,10.0,-10.0,1.0,-7.0,-11.0,-4.0,1651024695929972.0,2
1014,-1.0,-2.0,11.0,37.0,22.0,-4.0,-11.0,-4.0,1651024695942926.0,2
1015,0.0,-8.0,-21.0,-5.0,-3.0,8.0,10.0,4.0,1651024695942926.0,2
1016,1.0,4.0,-5.0,-6.0,-6.0,-10.0,-21.0,-8.0,1651024695950973.0,2
1017,1.0,7.0,25.0,15.0,-5.0,-4.0,13.0,3.0,1651024695950973.0,2
1018,-6.0,-15.0,-20.0,-24.0,-14.0,-2.0,-12.0,-3.0,1651024695966551.0,2
1019,-4.0,-10.0,-16.0,-1.0,9.0,-1.0,6.0,-2.0,1651024695966551.0,2
1020,-1.0,2.0,10.0,4.0,5.0,10.0,14.0,4.0,1651024695973548.0,2
1021,4.0,5.0,-23.0,-10.0,-5.0,-10.0,-7.0,0.0,1651024695973548.0,2
1022,-4.0,-7.0,-9.0,-17.0,-12.0,-3.0,-5.0,-3.0,1651024695988561.0,2
1023,-4.0,-1.0,5.0,8.0,-3.0,-1.0,6.0,-4.0,1651024695988561.0,2
1024,0.0,3.0,2.0,-12.0,1.0,6.0,-4.0,-2.0,1651024695989492.0,2
1025,-2.0,-7.0,1.0,9.0,7.0,1.0,-6.0,2.0,1651024695989492.0,2
1026,0.0,-1.0,-13.0,-8.0,2.0,-6.0,-10.0,-8.0,1651024696003460.0,2
1027,1.0,0.0,-3.0,-5.0,-6.0,-3.0,5.0,2.0,1651024696003460.0,2
1028,0.0,8.0,19.0,4.0,-6.0,-7.0,-3.0,-3.0,1651024696011495.0,2
1029,-1.0,-13.0,-8.0,-9.0,-17.0,-15.0,1.0,0.0,1651024696011495.0,2
1030,8.0,17.0,-15.0,-24.0,15.0,10.0,11.0,7.0,1651024696026161.0,2
1031,0.0,-7.0,16.0,41.0,11.0,4.0,-5.0,3.0,1651024696026161.0,2
1032,-2.0,0.0,-1.0,-5.0,-9.0,5.0,1.0,-3.0,1651024696027091.0,2
1033,-4.0,-5.0,-13.0,-5.0,4.0,-7.0,-32.0,-16.0,1651024696027091.0,2
1034,2.0,6.0,19.0,7.0,-7.0,-3.0,6.0,1.0,1651024696049257.0,2
1035,2.0,8.0,16.0,-8.0,-11.0,4.0,9.0,2.0,1651024696049257.0,2
1036,-2.0,-9.0,-10.0,2.0,0.0,-6.0,-5.0,-4.0,1651024696049257.0,2
1037,3.0,7.0,1.0,10.0,13.0,5.0,7.0,6.0,1651024696049257.0,2
1038,0.0,6.0,-3.0,0.0,3.0,0.0,5.0,1.0,1651024696063400.0,2
1039,2.0,1.0,-10.0,-17.0,3.0,-3.0,-7.0,2.0,1651024696063400.0,2
1040,-4.0,-9.0,20.0,46.0,1.0,-1.0,5.0,5.0,1651024696071381.0,2
1041,-2.0,-9.0,-25.0,-18.0,7.0,14.0,12.0,3.0,1651024696071381.0,2
1042,-4.0,-4.0,2.0,1.0,-5.0,-5.0,6.0,1.0,1651024696086804.0,2
1043,-1.0,6.0,4.0,-4.0,-10.0,-11.0,-12.0,-5.0,1651024696086804.0,2
1044,-3.0,-1.0,-5.0,-10.0,0.0,1.0,-7.0,0.0,1651024696086804.0,2
1045,3.0,6.0,0.0,2.0,14.0,37.0,18.0,2.0,1651024696086804.0,2
1046,-3.0,-6.0,-8.0,4.0,-1.0,-7.0,1.0,-1.0,1651024696108957.0,2
1047,0.0,0.0,10.0,4.0,-1.0,5.0,-7.0,-3.0,1651024696108957.0,2
1048,3.0,8.0,-4.0,-15.0,-4.0,-7.0,5.0,1.0,1651024696109914.0,2
1049,-4.0,0.0,1.0,-2.0,-14.0,-16.0,-9.0,-2.0,1651024696109914.0,2
1050,0.0,-9.0,1.0,-2.0,-2.0,4.0,6.0,3.0,1651024696122860.0,2
1051,-1.0,7.0,13.0,12.0,17.0,-3.0,-16.0,-10.0,1651024696122860.0,2
1052,0.0,-6.0,-19.0,-6.0,-4.0,1.0,-10.0,-1.0,1651024696130903.0,2
1053,12.0,25.0,37.0,33.0,26.0,13.0,39.0,23.0,1651024696130903.0,2
1054,-11.0,-39.0,-37.0,-33.0,-14.0,-3.0,3.0,-4.0,1651024696146392.0,2
1055,-3.0,2.0,1.0,1.0,-11.0,-12.0,-11.0,-7.0,1651024696146392.0,2
1056,3.0,11.0,5.0,-3.0,8.0,16.0,-5.0,-2.0,1651024696147316.0,2
1057,-3.0,-1.0,1.0,-9.0,-21.0,-12.0,-20.0,-11.0,1651024696147316.0,2
1058,2.0,9.0,11.0,17.0,0.0,1.0,-5.0,-1.0,1651024696168937.0,2
1059,-2.0,-13.0,-25.0,-11.0,12.0,3.0,11.0,2.0,1651024696168937.0,2
1060,1.0,7.0,14.0,-2.0,-3.0,-1.0,-1.0,-3.0,1651024696169880.0,2
1061,-4.0,-10.0,-12.0,-4.0,-5.0,-16.0,-18.0,-7.0,1651024696169880.0,2
1062,1.0,8.0,11.0,1.0,8.0,10.0,10.0,5.0,1651024696182836.0,2
1063,-2.0,-14.0,-11.0,1.0,-11.0,-1.0,1.0,-3.0,1651024696182836.0,2
1064,8.0,3.0,-5.0,-3.0,1.0,20.0,10.0,9.0,1651024696191823.0,2
1065,-5.0,1.0,6.0,2.0,7.0,-7.0,-13.0,-6.0,1651024696191823.0,2
1066,0.0,4.0,5.0,4.0,-7.0,7.0,2.0,-1.0,1651024696205984.0,2
1067,0.0,0.0,-5.0,-3.0,12.0,-9.0,-20.0,-7.0,1651024696205984.0,2
1068,0.0,-2.0,-6.0,-11.0,-1.0,6.0,13.0,-1.0,1651024696206919.0,2
1069,-1.0,1.0,3.0,20.0,-6.0,-7.0,3.0,0.0,1651024696206919.0,2
1070,-3.0,-7.0,-9.0,-20.0,-5.0,-6.0,0.0,2.0,1651024696229021.0,2
1071,3.0,13.0,13.0,11.0,0.0,3.0,5.0,3.0,1651024696229021.0,2
1072,0.0,3.0,12.0,9.0,3.0,-21.0,-13.0,-9.0,1651024696229977.0,2
1073,-5.0,-13.0,-23.0,-22.0,-6.0,6.0,-3.0,-1.0,1651024696229977.0,2
1074,0.0,3.0,6.0,7.0,-5.0,-24.0,3.0,0.0,1651024696243380.0,2
1075,0.0,1.0,2.0,-6.0,7.0,45.0,5.0,3.0,1651024696243380.0,2
1076,-2.0,-2.0,-4.0,-1.0,-2.0,-2.0,3.0,1.0,1651024696259343.0,2
1077,-1.0,-2.0,4.0,11.0,11.0,2.0,1.0,0.0,1651024696259343.0,2
1078,0.0,0.0,5.0,-4.0,0.0,-11.0,-9.0,-2.0,1651024696266371.0,2
1079,-1.0,-7.0,-13.0,-7.0,-16.0,4.0,11.0,3.0,1651024696266371.0,2
1080,-2.0,-1.0,3.0,1.0,5.0,-12.0,-7.0,-3.0,1651024696267398.0,2
1081,-2.0,2.0,-2.0,-4.0,0.0,15.0,3.0,-3.0,1651024696267398.0,2
1082,0.0,-2.0,-2.0,-5.0,-8.0,-13.0,-6.0,-3.0,1651024696289318.0,2
1083,-3.0,2.0,8.0,-1.0,-15.0,-20.0,-4.0,-3.0,1651024696289318.0,2
1084,-2.0,-3.0,-6.0,4.0,17.0,17.0,4.0,1.0,1651024696289318.0,2
1085,-2.0,-3.0,-3.0,-5.0,-12.0,-17.0,-2.0,-6.0,1651024696289318.0,2
1086,-2.0,1.0,1.0,3.0,6.0,16.0,4.0,2.0,1651024696304271.0,2
1087,0.0,0.0,0.0,8.0,0.0,19.0,10.0,5.0,1651024696304271.0,2
1088,-2.0,-5.0,-11.0,-7.0,-6.0,-14.0,-10.0,-3.0,1651024696311322.0,2
1089,-1.0,-2.0,0.0,-2.0,7.0,-5.0,-4.0,-2.0,1651024696311322.0,2
1090,2.0,8.0,-3.0,0.0,-17.0,-5.0,8.0,-2.0,1651024696326241.0,2
1091,1.0,-5.0,-1.0,1.0,10.0,-11.0,-11.0,-4.0,1651024696326241.0,2
1092,-7.0,-8.0,-10.0,-6.0,-10.0,-4.0,-1.0,0.0,1651024696327223.0,2
1093,3.0,4.0,11.0,1.0,2.0,-4.0,-4.0,-2.0,1651024696327223.0,2
1094,2.0,6.0,2.0,5.0,8.0,9.0,1.0,0.0,1651024696349153.0,2
1095,-6.0,-2.0,-2.0,0.0,7.0,-4.0,5.0,0.0,1651024696349153.0,2
1096,-2.0,-6.0,-1.0,3.0,5.0,7.0,5.0,2.0,1651024696349153.0,2
1097,-2.0,-1.0,2.0,2.0,-12.0,-7.0,-3.0,-1.0,1651024696349153.0,2
1098,5.0,-1.0,-12.0,-12.0,-6.0,3.0,-4.0,4.0,1651024696363364.0,2
1099,1.0,0.0,-2.0,-4.0,3.0,4.0,3.0,-6.0,1651024696363364.0,2
1100,3.0,1.0,2.0,5.0,0.0,-1.0,-2.0,3.0,1651024696371274.0,2
1101,-1.0,2.0,1.0,-1.0,-3.0,0.0,2.0,1.0,1651024696371274.0,2
1102,-2.0,-2.0,2.0,-2.0,8.0,7.0,-2.0,1.0,1651024696386267.0,2
1103,-1.0,5.0,13.0,10.0,3.0,1.0,4.0,-1.0,1651024696386267.0,2
1104,1.0,-1.0,-6.0,0.0,6.0,-8.0,0.0,-2.0,1651024696387239.0,2
1105,1.0,-1.0,-1.0,3.0,6.0,8.0,0.0,3.0,1651024696387239.0,2
1106,0.0,-6.0,-6.0,-2.0,-1.0,2.0,-2.0,-1.0,1651024696409061.0,2
1107,-1.0,4.0,8.0,0.0,-8.0,-7.0,0.0,-1.0,1651024696409061.0,2
1108,0.0,7.0,12.0,1.0,-4.0,0.0,-2.0,-2.0,1651024696409996.0,2
1109,1.0,-12.0,-28.0,-12.0,-5.0,-2.0,-2.0,-4.0,1651024696409996.0,2
1110,-6.0,-7.0,-1.0,1.0,3.0,2.0,0.0,0.0,1651024696423333.0,2
1111,2.0,2.0,6.0,0.0,-9.0,-6.0,2.0,2.0,1651024696423333.0,2
1112,-5.0,-7.0,-14.0,-8.0,-14.0,-1.0,0.0,-2.0,1651024696431829.0,2
1113,3.0,7.0,1.0,2.0,15.0,3.0,-1.0,0.0,1651024696431829.0,2
1114,0.0,5.0,4.0,4.0,-1.0,1.0,-1.0,-1.0,1651024696446817.0,2
1115,1.0,-1.0,-3.0,-2.0,0.0,-3.0,3.0,3.0,1651024696446817.0,2
1116,-1.0,1.0,19.0,10.0,5.0,4.0,1.0,-1.0,1651024696446817.0,2
1117,-3.0,-1.0,-8.0,0.0,-5.0,-6.0,-3.0,0.0,1651024696446817.0,2
1118,3.0,4.0,7.0,-6.0,3.0,1.0,-3.0,-3.0,1651024696468817.0,2
1119,0.0,2.0,10.0,9.0,-10.0,-6.0,-3.0,0.0,1651024696468817.0,2
1120,-4.0,-20.0,-48.0,-26.0,-12.0,-2.0,0.0,-4.0,1651024696469775.0,2
1121,-3.0,1.0,9.0,3.0,-6.0,-9.0,-1.0,1.0,1651024696469775.0,2
1122,3.0,13.0,11.0,13.0,23.0,11.0,3.0,11.0,1651024696482742.0,2
1123,-2.0,2.0,-20.0,-15.0,-6.0,1.0,1.0,-2.0,1651024696482742.0,2
1124,2.0,7.0,17.0,10.0,-1.0,-2.0,1.0,0.0,1651024696491702.0,2
1125,-1.0,-20.0,5.0,2.0,-4.0,-2.0,-3.0,-1.0,1651024696491702.0,2
1126,6.0,24.0,4.0,-2.0,-8.0,-5.0,0.0,-1.0,1651024696505921.0,2
1127,5.0,-11.0,-4.0,2.0,4.0,0.0,0.0,4.0,1651024696505921.0,2
1128,-9.0,31.0,-3.0,-5.0,1.0,-1.0,-2.0,-3.0,1651024696506918.0,2
1129,-6.0,-14.0,11.0,2.0,0.0,0.0,0.0,-1.0,1651024696506918.0,2
1130,2.0,-8.0,-13.0,-5.0,-2.0,2.0,-1.0,-2.0,1651024696528320.0,2
1131,6.0,6.0,5.0,2.0,3.0,1.0,2.0,1.0,1651024696528320.0,2
1132,-6.0,-17.0,16.0,7.0,0.0,-1.0,1.0,-2.0,1651024696536299.0,2
1133,6.0,25.0,29.0,9.0,-4.0,-6.0,0.0,3.0,1651024696536299.0,2
1134,-7.0,-15.0,-61.0,-22.0,-8.0,2.0,-2.0,-5.0,1651024696543290.0,2
1135,-7.0,-36.0,-24.0,-13.0,3.0,0.0,-3.0,-2.0,1651024696543290.0,2
1136,7.0,-1.0,5.0,6.0,19.0,4.0,-1.0,2.0,1651024696551340.0,2
1137,4.0,5.0,13.0,1.0,-8.0,1.0,0.0,0.0,1651024696551340.0,2
1138,-5.0,1.0,23.0,8.0,-4.0,-9.0,-1.0,-3.0,1651024696566333.0,2
1139,10.0,25.0,0.0,0.0,3.0,2.0,1.0,5.0,1651024696566333.0,2
1140,-10.0,-25.0,-6.0,-6.0,-12.0,-8.0,-5.0,-6.0,1651024696567351.0,2
1141,-5.0,-3.0,-8.0,1.0,7.0,3.0,-2.0,-3.0,1651024696567351.0,2
1142,7.0,8.0,-4.0,-1.0,2.0,2.0,1.0,1.0,1651024696589266.0,2
1143,-9.0,-8.0,-2.0,1.0,2.0,-3.0,-2.0,-3.0,1651024696589266.0,2
1144,5.0,-13.0,3.0,5.0,5.0,2.0,2.0,5.0,1651024696589266.0,2
1145,-3.0,13.0,-23.0,-18.0,-14.0,-1.0,-2.0,-5.0,1651024696589266.0,2
1146,6.0,-12.0,6.0,6.0,19.0,4.0,1.0,3.0,1651024696612261.0,2
1147,-13.0,-29.0,8.0,7.0,-1.0,-2.0,0.0,-4.0,1651024696612261.0,2
1148,10.0,3.0,4.0,1.0,-5.0,1.0,2.0,4.0,1651024696613201.0,2
1149,-6.0,-2.0,11.0,7.0,-1.0,-1.0,-1.0,-1.0,1651024696613201.0,2
1150,-19.0,-16.0,-53.0,-31.0,-20.0,-8.0,-8.0,-10.0,1651024696626737.0,2
1151,5.0,31.0,10.0,3.0,5.0,2.0,-1.0,0.0,1651024696626737.0,2
1152,1.0,-7.0,-7.0,0.0,-5.0,-2.0,3.0,4.0,1651024696626737.0,2
1153,3.0,-10.0,0.0,-1.0,9.0,5.0,0.0,2.0,1651024696626737.0,2
1154,-2.0,22.0,28.0,17.0,13.0,0.0,-1.0,-5.0,1651024696648747.0,2
1155,2.0,-22.0,-8.0,-1.0,-11.0,-3.0,-2.0,1.0,1651024696648747.0,2
1156,0.0,41.0,2.0,-6.0,-4.0,-1.0,-1.0,-1.0,1651024696649678.0,2
1157,-6.0,-54.0,-11.0,-2.0,-1.0,0.0,0.0,-2.0,1651024696649678.0,2
1158,3.0,-1.0,12.0,5.0,-8.0,-1.0,0.0,0.0,1651024696671676.0,2
1159,-4.0,6.0,-12.0,-5.0,4.0,0.0,3.0,-2.0,1651024696671676.0,2
1160,10.0,25.0,11.0,6.0,-7.0,-4.0,-2.0,2.0,1651024696672617.0,2
1161,7.0,34.0,1.0,-2.0,8.0,4.0,2.0,1.0,1651024696672617.0,2
1162,2.0,-21.0,4.0,4.0,1.0,-1.0,0.0,0.0,1651024696686606.0,2
1163,-17.0,-12.0,1.0,-6.0,-6.0,-4.0,-7.0,-11.0,1651024696686606.0,2
1164,-3.0,-8.0,-7.0,-1.0,2.0,1.0,-1.0,-1.0,1651024696686606.0,2
1165,10.0,58.0,-10.0,-9.0,-1.0,-2.0,2.0,3.0,1651024696686606.0,2
1166,-15.0,-75.0,-8.0,-2.0,-9.0,-2.0,-5.0,-4.0,1651024696708678.0,2
1167,-15.0,30.0,6.0,-1.0,-3.0,-3.0,-1.0,-3.0,1651024696708678.0,2
1168,-7.0,-15.0,-6.0,-1.0,-4.0,-4.0,-2.0,-1.0,1651024696709611.0,2
1169,0.0,-16.0,-11.0,4.0,8.0,5.0,1.0,0.0,1651024696709611.0,2
1170,8.0,36.0,-2.0,-6.0,3.0,0.0,1.0,1.0,1651024696739531.0,2
1171,4.0,-34.0,1.0,3.0,-2.0,1.0,1.0,5.0,1651024696739531.0,2
1172,-5.0,-10.0,-3.0,-2.0,7.0,1.0,-1.0,-1.0,1651024696740529.0,2
1173,-5.0,-23.0,-2.0,1.0,-7.0,-2.0,-2.0,2.0,1651024696740529.0,2
1174,-4.0,22.0,15.0,5.0,-4.0,-1.0,0.0,-1.0,1651024696746543.0,2
1175,9.0,-6.0,0.0,1.0,6.0,1.0,3.0,4.0,1651024696746543.0,2
1176,9.0,-18.0,2.0,-2.0,0.0,1.0,1.0,1.0,1651024696746543.0,2
1177,-10.0,40.0,9.0,10.0,-2.0,-4.0,-6.0,-8.0,1651024696746543.0,2
1178,-11.0,-9.0,2.0,-1.0,4.0,-2.0,-2.0,-4.0,1651024696768434.0,2
1179,11.0,26.0,2.0,0.0,-1.0,2.0,-1.0,2.0,1651024696768434.0,2
1180,-3.0,16.0,4.0,3.0,6.0,2.0,1.0,1.0,1651024696769367.0,2
1181,-15.0,-49.0,-23.0,-13.0,-2.0,-7.0,-4.0,-4.0,1651024696769367.0,2
1182,2.0,8.0,3.0,3.0,-5.0,0.0,0.0,2.0,1651024696792374.0,2
1183,-3.0,-4.0,2.0,1.0,-2.0,-1.0,-1.0,1.0,1651024696792374.0,2
1184,2.0,7.0,-4.0,-5.0,1.0,1.0,1.0,-1.0,1651024696792374.0,2
1185,-4.0,-35.0,-15.0,-7.0,-5.0,-3.0,-1.0,-2.0,1651024696792374.0,2
1186,4.0,32.0,17.0,4.0,-3.0,1.0,0.0,1.0,1651024696806269.0,2
1187,10.0,20.0,-4.0,0.0,-2.0,-3.0,-2.0,-2.0,1651024696806269.0,2
1188,-15.0,-7.0,4.0,2.0,2.0,1.0,-3.0,-4.0,1651024696807266.0,2
1189,1.0,-15.0,-18.0,-6.0,-3.0,0.0,-1.0,1.0,1651024696807266.0,2
1190,7.0,28.0,12.0,1.0,-4.0,-1.0,-2.0,-2.0,1651024696829207.0,2
1191,1.0,14.0,2.0,0.0,-3.0,-1.0,2.0,2.0,1651024696829207.0,2
1192,1.0,5.0,0.0,-5.0,0.0,0.0,-3.0,-4.0,1651024696829207.0,2
1193,13.0,51.0,12.0,4.0,15.0,2.0,2.0,1.0,1651024696829207.0,2
1194,-11.0,-40.0,-9.0,3.0,-3.0,-1.0,-1.0,-1.0,1651024696852149.0,2
1195,0.0,0.0,1.0,0.0,0.0,1.0,0.0,-1.0,1651024696852149.0,2
1196,-5.0,-25.0,-8.0,-4.0,-8.0,-3.0,0.0,-1.0,1651024696853144.0,2
1197,17.0,39.0,16.0,-1.0,-5.0,4.0,2.0,3.0,1651024696853144.0,2
1198,6.0,-46.0,-4.0,8.0,10.0,4.0,1.0,0.0,1651024696866297.0,2
1199,6.0,50.0,7.0,-2.0,-2.0,-3.0,-3.0,-2.0,1651024696866297.0,2
1200,1.0,0.0,-6.0,0.0,0.0,-1.0,-1.0,2.0,1651024696867284.0,2
1201,-3.0,-22.0,0.0,-2.0,-2.0,0.0,-2.0,0.0,1651024696867284.0,2
1202,6.0,31.0,7.0,-2.0,-3.0,-1.0,-1.0,1.0,1651024696897449.0,2
1203,-11.0,-16.0,-12.0,0.0,-14.0,-6.0,-3.0,-3.0,1651024696897449.0,2
1204,3.0,3.0,-3.0,1.0,18.0,3.0,-1.0,-1.0,1651024696897449.0,2
1205,2.0,7.0,4.0,1.0,-3.0,0.0,-2.0,2.0,1651024696897449.0,2
1206,4.0,18.0,3.0,1.0,-1.0,0.0,2.0,3.0,1651024696911469.0,2
1207,-16.0,-47.0,-7.0,-11.0,-4.0,-2.0,-5.0,-3.0,1651024696911469.0,2
1208,-1.0,6.0,-14.0,3.0,-5.0,-3.0,-1.0,-2.0,1651024696912399.0,2
1209,-6.0,-20.0,-8.0,-5.0,-9.0,-4.0,1.0,-1.0,1651024696912399.0,2
1210,-2.0,5.0,5.0,3.0,12.0,0.0,0.0,-1.0,1651024696926539.0,2
1211,9.0,6.0,-3.0,4.0,9.0,3.0,1.0,3.0,1651024696926539.0,2
1212,6.0,-1.0,13.0,1.0,-4.0,1.0,4.0,5.0,1651024696933520.0,2
1213,-14.0,-20.0,-8.0,-5.0,-4.0,-3.0,-3.0,-7.0,1651024696933520.0,2
1214,0.0,-8.0,1.0,-1.0,-9.0,-2.0,0.0,0.0,1651024696948479.0,2
1215,0.0,-6.0,4.0,-1.0,0.0,-1.0,0.0,-2.0,1651024696948479.0,2
1216,-1.0,-8.0,-2.0,-3.0,7.0,1.0,-2.0,-2.0,1651024696949477.0,2
1217,1.0,21.0,1.0,3.0,2.0,5.0,3.0,3.0,1651024696949477.0,2
1218,0.0,11.0,1.0,0.0,-1.0,-2.0,0.0,0.0,1651024696971482.0,2
1219,-1.0,-3.0,1.0,2.0,5.0,2.0,1.0,1.0,1651024696971482.0,2
1220,7.0,30.0,-1.0,-3.0,-8.0,-6.0,-1.0,0.0,1651024696972437.0,2
1221,3.0,9.0,4.0,1.0,-1.0,-2.0,1.0,-1.0,1651024696972437.0,2
1222,-5.0,-10.0,-2.0,-3.0,0.0,0.0,-1.0,-4.0,1651024696986792.0,2
1223,4.0,-1.0,2.0,-1.0,0.0,1.0,-1.0,0.0,1651024696986792.0,2
1224,1.0,-12.0,-5.0,-1.0,-2.0,-1.0,0.0,0.0,1651024696986792.0,2
1225,-19.0,-43.0,2.0,2.0,-1.0,0.0,3.0,1.0,1651024696986792.0,2
1226,1.0,18.0,5.0,3.0,11.0,2.0,-1.0,-2.0,1651024697008312.0,2
1227,0.0,-3.0,-7.0,1.0,2.0,2.0,3.0,1.0,1651024697008312.0,2
1228,-3.0,2.0,1.0,-1.0,-8.0,-3.0,-1.0,-3.0,1651024697009307.0,2
1229,4.0,-15.0,3.0,2.0,4.0,2.0,0.0,1.0,1651024697009307.0,2
1230,-1.0,-5.0,-4.0,-4.0,-13.0,-3.0,0.0,1.0,1651024697031449.0,2
1231,-4.0,-8.0,0.0,2.0,4.0,0.0,-2.0,0.0,1651024697031449.0,2
1232,-22.0,14.0,3.0,1.0,14.0,2.0,-2.0,-5.0,1651024697032413.0,2
1233,0.0,2.0,3.0,1.0,-10.0,-3.0,0.0,-1.0,1651024697032413.0,2
1234,4.0,0.0,8.0,0.0,0.0,0.0,0.0,1.0,1651024697046410.0,2
1235,0.0,6.0,-19.0,-9.0,-5.0,-1.0,0.0,-2.0,1651024697046410.0,2
1236,-1.0,-2.0,1.0,-1.0,-6.0,-1.0,-2.0,0.0,1651024697047344.0,2
1237,3.0,9.0,-2.0,-2.0,1.0,-3.0,-3.0,1.0,1651024697047344.0,2
1238,-1.0,23.0,0.0,-1.0,-3.0,1.0,0.0,0.0,1651024697068432.0,2
1239,0.0,-14.0,8.0,5.0,6.0,2.0,3.0,2.0,1651024697068432.0,2
1240,-4.0,-25.0,-4.0,-2.0,-12.0,-5.0,-1.0,-1.0,1651024697069363.0,2
1241,0.0,6.0,1.0,-2.0,10.0,4.0,0.0,-3.0,1651024697069363.0,2
1242,2.0,-20.0,-7.0,-2.0,0.0,1.0,0.0,1.0,1651024697091332.0,2
1243,4.0,14.0,9.0,6.0,-4.0,-4.0,-3.0,-1.0,1651024697091332.0,2
1244,-3.0,-15.0,0.0,-1.0,1.0,0.0,0.0,-2.0,1651024697092302.0,2
1245,3.0,23.0,0.0,-1.0,-6.0,-3.0,-2.0,0.0,1651024697092302.0,2
1246,-3.0,-8.0,-7.0,0.0,-6.0,-2.0,-1.0,1.0,1651024697106311.0,2
1247,-2.0,-2.0,-2.0,-5.0,10.0,1.0,1.0,1.0,1651024697106311.0,2
1248,4.0,39.0,8.0,3.0,-2.0,1.0,0.0,0.0,1651024697107336.0,2
1249,-16.0,-48.0,-4.0,0.0,9.0,-2.0,-3.0,-6.0,1651024697107336.0,2
1250,-2.0,-3.0,-6.0,-1.0,-2.0,-1.0,-1.0,-2.0,1651024697128422.0,2
1251,-2.0,-6.0,1.0,-1.0,-6.0,-3.0,-1.0,0.0,1651024697128422.0,2
1252,8.0,8.0,1.0,-3.0,-3.0,-1.0,0.0,2.0,1651024697129361.0,2
1253,2.0,-12.0,2.0,2.0,1.0,3.0,2.0,0.0,1651024697129361.0,2
1254,-4.0,2.0,-2.0,0.0,3.0,-2.0,0.0,-3.0,1651024697151485.0,2
1255,-5.0,-14.0,-3.0,-2.0,-5.0,-1.0,-2.0,-2.0,1651024697151485.0,2
1256,4.0,-25.0,-6.0,1.0,3.0,2.0,2.0,0.0,1651024697152441.0,2
1257,3.0,14.0,4.0,0.0,-3.0,-4.0,0.0,0.0,1651024697152441.0,2
1258,-2.0,-17.0,-2.0,-2.0,2.0,0.0,-1.0,-1.0,1651024697166435.0,2
1259,0.0,-7.0,2.0,0.0,-2.0,-1.0,-2.0,0.0,1651024697166435.0,2
1260,1.0,-1.0,1.0,-1.0,3.0,-1.0,0.0,0.0,1651024697167370.0,2
1261,2.0,14.0,-1.0,-3.0,-4.0,-1.0,-2.0,1.0,1651024697167370.0,2
1262,2.0,1.0,4.0,1.0,0.0,0.0,-1.0,0.0,1651024697188928.0,2
1263,2.0,18.0,0.0,-2.0,0.0,-1.0,-1.0,-1.0,1651024697188928.0,2
1264,-7.0,-52.0,-8.0,-3.0,-2.0,1.0,-2.0,0.0,1651024697189857.0,2
1265,5.0,9.0,7.0,0.0,2.0,2.0,-1.0,-1.0,1651024697189857.0,2
1266,-3.0,6.0,-5.0,-3.0,1.0,-1.0,1.0,-1.0,1651024697211000.0,2
1267,-2.0,-7.0,-4.0,0.0,-8.0,-1.0,-2.0,0.0,1651024697211000.0,2
1268,2.0,9.0,2.0,2.0,4.0,1.0,0.0,-1.0,1651024697211930.0,2
1269,5.0,4.0,-2.0,3.0,3.0,0.0,0.0,-1.0,1651024697211930.0,2
1270,-8.0,-38.0,-2.0,-4.0,5.0,1.0,0.0,-1.0,1651024697225957.0,2
1271,6.0,15.0,6.0,0.0,1.0,0.0,1.0,0.0,1651024697225957.0,2
1272,2.0,-3.0,0.0,-1.0,-9.0,-3.0,-1.0,1.0,1651024697233945.0,2
1273,2.0,4.0,-3.0,-1.0,0.0,1.0,0.0,1.0,1651024697233945.0,2
1274,9.0,30.0,5.0,0.0,-4.0,-2.0,-2.0,0.0,1651024697249003.0,2
1275,-2.0,16.0,3.0,-1.0,-3.0,1.0,-1.0,-2.0,1651024697249003.0,2
1276,3.0,17.0,6.0,0.0,4.0,1.0,0.0,1.0,1651024697249961.0,2
1277,6.0,10.0,-2.0,-2.0,-4.0,-2.0,-1.0,1.0,1651024697249961.0,2
1278,-2.0,9.0,3.0,1.0,-3.0,-2.0,-1.0,1.0,1651024697270936.0,2
1279,-10.0,-27.0,-4.0,-1.0,4.0,1.0,1.0,-2.0,1651024697270936.0,2
1280,7.0,3.0,-2.0,1.0,1.0,1.0,-2.0,-1.0,1651024697271884.0,2
1281,-7.0,-11.0,-1.0,-1.0,0.0,1.0,-2.0,-1.0,1651024697271884.0,2
1282,0.0,2.0,-1.0,-1.0,-5.0,1.0,0.0,-2.0,1651024697285905.0,2
1283,0.0,3.0,2.0,2.0,-1.0,1.0,-2.0,2.0,1651024697285905.0,2
1284,-2.0,-1.0,-4.0,0.0,0.0,0.0,0.0,0.0,1651024697293818.0,2
1285,0.0,7.0,-1.0,-2.0,-7.0,-2.0,0.0,-2.0,1651024697293818.0,2
1286,0.0,-8.0,-3.0,2.0,-1.0,-2.0,1.0,-1.0,1651024697308660.0,2
1287,-3.0,-18.0,-2.0,0.0,3.0,-1.0,2.0,1.0,1651024697308660.0,2
1288,-8.0,-35.0,-7.0,-1.0,-2.0,-4.0,-2.0,-2.0,1651024697309590.0,2
1289,5.0,15.0,1.0,-2.0,-2.0,2.0,-1.0,0.0,1651024697309590.0,2
1290,0.0,-11.0,-2.0,-2.0,1.0,0.0,-3.0,1.0,1651024697331531.0,2
1291,3.0,52.0,7.0,-4.0,-8.0,-4.0,-2.0,-4.0,1651024697331531.0,2
1292,-2.0,10.0,-1.0,0.0,5.0,0.0,0.0,-2.0,1651024697331531.0,2
1293,0.0,23.0,3.0,1.0,4.0,-1.0,-2.0,-1.0,1651024697331531.0,2
1294,0.0,-9.0,-2.0,0.0,-3.0,-1.0,1.0,-3.0,1651024697345558.0,2
1295,0.0,-12.0,-4.0,-2.0,-4.0,-4.0,-2.0,-1.0,1651024697345558.0,2
1296,1.0,6.0,1.0,-4.0,6.0,4.0,-1.0,1.0,1651024697353476.0,2
1297,6.0,18.0,2.0,1.0,-2.0,-2.0,0.0,1.0,1651024697353476.0,2
1298,3.0,22.0,2.0,2.0,7.0,1.0,0.0,1.0,1651024697369275.0,2
1299,-7.0,-46.0,-9.0,-3.0,-4.0,-2.0,-2.0,-1.0,1651024697369275.0,2
1300,1.0,21.0,6.0,4.0,-5.0,-2.0,0.0,0.0,1651024697369275.0,2
1301,-1.0,-7.0,-3.0,3.0,2.0,0.0,0.0,0.0,1651024697369275.0,2
1302,0.0,-4.0,0.0,0.0,-4.0,-1.0,0.0,0.0,1651024697399236.0,2
1303,4.0,9.0,1.0,-2.0,-3.0,-1.0,2.0,0.0,1651024697399236.0,2
1304,4.0,13.0,1.0,-1.0,1.0,1.0,1.0,1.0,1651024697400168.0,2
1305,-3.0,-4.0,0.0,-2.0,-1.0,0.0,0.0,-1.0,1651024697400168.0,2
1306,-2.0,10.0,2.0,1.0,-4.0,-2.0,-1.0,-2.0,1651024697405184.0,2
1307,1.0,-3.0,0.0,5.0,7.0,2.0,0.0,0.0,1651024697405184.0,2
1308,4.0,5.0,0.0,-3.0,-3.0,-2.0,1.0,0.0,1651024697414138.0,2
1309,-5.0,-1.0,4.0,-1.0,-7.0,-3.0,-2.0,-1.0,1651024697414138.0,2
1310,-6.0,-9.0,-5.0,-1.0,2.0,0.0,0.0,0.0,1651024697429159.0,2
1311,9.0,8.0,0.0,-8.0,-6.0,1.0,-1.0,1.0,1651024697429159.0,2
1312,-15.0,-17.0,-7.0,5.0,9.0,-7.0,-2.0,-4.0,1651024697429159.0,2
1313,1.0,-8.0,0.0,0.0,0.0,5.0,2.0,2.0,1651024697429159.0,2
1314,3.0,28.0,5.0,0.0,0.0,-2.0,-2.0,1.0,1651024697450929.0,2
1315,-6.0,-7.0,1.0,1.0,-4.0,2.0,-2.0,0.0,1651024697450929.0,2
1316,1.0,-9.0,-10.0,-9.0,1.0,0.0,-2.0,1.0,1651024697451928.0,2
1317,-2.0,-14.0,-4.0,-2.0,-6.0,-3.0,-1.0,-1.0,1651024697451928.0,2
1318,-8.0,6.0,2.0,3.0,8.0,2.0,-2.0,-3.0,1651024697465957.0,2
1319,2.0,3.0,2.0,3.0,1.0,1.0,2.0,1.0,1651024697465957.0,2
1320,0.0,9.0,2.0,-1.0,-11.0,-5.0,-1.0,0.0,1651024697473881.0,2
1321,0.0,-4.0,-4.0,0.0,5.0,1.0,1.0,-1.0,1651024697473881.0,2
1322,-2.0,-13.0,-3.0,-3.0,-3.0,1.0,1.0,-1.0,1651024697488983.0,2
1323,0.0,3.0,-1.0,2.0,3.0,-3.0,-2.0,1.0,1651024697488983.0,2
1324,-2.0,13.0,1.0,0.0,-2.0,2.0,-1.0,1.0,1651024697489979.0,2
1325,-1.0,-23.0,-6.0,-2.0,-4.0,-2.0,-1.0,1.0,1651024697489979.0,2
1326,-4.0,-18.0,-8.0,-5.0,-6.0,-2.0,-3.0,-2.0,1651024697519952.0,2
1327,0.0,26.0,7.0,3.0,5.0,2.0,1.0,-1.0,1651024697519952.0,2
1328,6.0,-2.0,1.0,0.0,-1.0,2.0,-1.0,-1.0,1651024697519952.0,2
1329,7.0,19.0,-1.0,-2.0,1.0,-1.0,0.0,3.0,1651024697519952.0,2
1330,2.0,2.0,1.0,-8.0,-6.0,-2.0,0.0,1.0,1651024697534078.0,2
1331,-1.0,-16.0,3.0,13.0,3.0,-2.0,1.0,-2.0,1651024697534078.0,2
1332,3.0,20.0,4.0,5.0,-7.0,0.0,-1.0,-1.0,1651024697535008.0,2
1333,-2.0,-3.0,-2.0,3.0,15.0,-2.0,-1.0,-2.0,1651024697535008.0,2
1334,-1.0,3.0,1.0,1.0,-13.0,-6.0,-1.0,0.0,1651024697557006.0,2
1335,0.0,8.0,-3.0,-9.0,15.0,7.0,-4.0,0.0,1651024697557006.0,2
1336,-1.0,-12.0,0.0,-1.0,-5.0,0.0,1.0,-1.0,1651024697557969.0,2
1337,-3.0,-3.0,0.0,-7.0,-20.0,-9.0,-1.0,-1.0,1651024697557969.0,2
1338,0.0,-5.0,-6.0,1.0,11.0,2.0,0.0,0.0,1651024697570933.0,2
1339,-7.0,-17.0,1.0,-1.0,-3.0,0.0,1.0,0.0,1651024697570933.0,2
1340,3.0,3.0,2.0,1.0,2.0,0.0,0.0,1.0,1651024697571863.0,2
1341,-5.0,10.0,-1.0,-3.0,-1.0,1.0,-1.0,-1.0,1651024697571863.0,2
1342,9.0,8.0,1.0,-1.0,-4.0,-3.0,-2.0,0.0,1651024697594594.0,2
1343,-1.0,2.0,-5.0,-1.0,-2.0,-2.0,-1.0,-1.0,1651024697594594.0,2
1344,-3.0,-13.0,-1.0,-1.0,4.0,2.0,1.0,0.0,1651024697595500.0,2
1345,1.0,-7.0,2.0,-4.0,-10.0,-3.0,-2.0,-2.0,1651024697595500.0,2
1346,1.0,0.0,-3.0,-4.0,8.0,0.0,-1.0,0.0,1651024697609002.0,2
1347,-1.0,2.0,-5.0,0.0,5.0,3.0,0.0,-2.0,1651024697609002.0,2
1348,-2.0,-1.0,0.0,-1.0,-3.0,-1.0,0.0,0.0,1651024697609958.0,2
1349,-1.0,-6.0,2.0,1.0,4.0,2.0,-2.0,-1.0,1651024697609958.0,2
1350,2.0,11.0,2.0,3.0,-7.0,2.0,1.0,3.0,1651024697630939.0,2
1351,-6.0,-8.0,-3.0,-8.0,-11.0,-6.0,0.0,-1.0,1651024697630939.0,2
1352,-2.0,-17.0,1.0,-5.0,11.0,1.0,-1.0,-2.0,1651024697631884.0,2
1353,-4.0,5.0,-15.0,9.0,3.0,3.0,1.0,-3.0,1651024697631884.0,2
1354,-1.0,-17.0,-4.0,-1.0,-19.0,-10.0,0.0,-1.0,1651024697654951.0,2
1355,2.0,-5.0,2.0,-4.0,4.0,6.0,2.0,1.0,1651024697654951.0,2
1356,-1.0,5.0,1.0,-2.0,3.0,-2.0,0.0,0.0,1651024697654951.0,2
1357,4.0,11.0,7.0,11.0,3.0,0.0,-1.0,0.0,1651024697654951.0,2
1358,-2.0,-18.0,-8.0,2.0,1.0,4.0,-1.0,0.0,1651024697668884.0,2
1359,3.0,6.0,0.0,-7.0,0.0,-6.0,-1.0,0.0,1651024697668884.0,2
1360,-2.0,-4.0,-4.0,-8.0,-8.0,-1.0,0.0,0.0,1651024697669868.0,2
1361,1.0,-1.0,1.0,-3.0,5.0,1.0,0.0,1.0,1651024697669868.0,2
1362,-3.0,-7.0,-1.0,2.0,4.0,0.0,1.0,-2.0,1651024697690934.0,2
1363,0.0,17.0,-1.0,-1.0,-14.0,-4.0,0.0,-1.0,1651024697690934.0,2
1364,1.0,9.0,-4.0,-5.0,1.0,0.0,-2.0,-1.0,1651024697691931.0,2
1365,-2.0,-13.0,-2.0,-3.0,-1.0,-3.0,1.0,0.0,1651024697691931.0,2
1366,3.0,6.0,2.0,-1.0,0.0,0.0,1.0,0.0,1651024697713986.0,2
1367,-2.0,1.0,1.0,2.0,1.0,-2.0,-3.0,-3.0,1651024697713986.0,2
1368,-1.0,0.0,0.0,2.0,0.0,1.0,1.0,-2.0,1651024697714986.0,2
1369,-2.0,-3.0,-1.0,-2.0,-3.0,0.0,1.0,-2.0,1651024697714986.0,2
1370,-3.0,1.0,-3.0,-5.0,0.0,-1.0,-2.0,-2.0,1651024697729012.0,2
1371,0.0,-5.0,-2.0,2.0,-1.0,1.0,0.0,-1.0,1651024697729012.0,2
1372,-1.0,-2.0,-3.0,1.0,9.0,2.0,0.0,-1.0,1651024697729946.0,2
1373,-1.0,-5.0,0.0,-4.0,-4.0,1.0,-1.0,-1.0,1651024697729946.0,2
1374,-1.0,-2.0,2.0,-3.0,3.0,0.0,0.0,0.0,1651024697751095.0,2
1375,2.0,-4.0,1.0,5.0,2.0,1.0,-1.0,2.0,1651024697751095.0,2
1376,-1.0,1.0,-5.0,0.0,-10.0,-4.0,-2.0,-1.0,1651024697752038.0,2
1377,-1.0,-4.0,-1.0,-10.0,-3.0,-2.0,-3.0,-2.0,1651024697752038.0,2
1378,1.0,-1.0,-2.0,-2.0,7.0,4.0,1.0,1.0,1651024697774981.0,2
1379,2.0,-1.0,-2.0,-3.0,-7.0,-3.0,1.0,-1.0,1651024697774981.0,2
1380,-3.0,-11.0,-1.0,-3.0,-13.0,-4.0,0.0,-2.0,1651024697774981.0,2
1381,-1.0,5.0,1.0,0.0,1.0,1.0,0.0,0.0,1651024697774981.0,2
1382,4.0,14.0,5.0,6.0,23.0,5.0,-1.0,-2.0,1651024697796982.0,2
1383,-3.0,-31.0,-8.0,11.0,-1.0,-2.0,1.0,1.0,1651024697796982.0,2
1384,1.0,16.0,4.0,-5.0,-4.0,0.0,0.0,0.0,1651024697797912.0,2
1385,1.0,3.0,31.0,-7.0,-10.0,-5.0,-1.0,-1.0,1651024697797912.0,2
1386,-3.0,-15.0,-26.0,8.0,-2.0,0.0,-1.0,-1.0,1651024697811943.0,2
1387,0.0,2.0,-11.0,-14.0,2.0,1.0,0.0,0.0,1651024697811943.0,2
1388,-1.0,4.0,6.0,9.0,0.0,-4.0,-2.0,-1.0,1651024697818861.0,2
1389,-2.0,-10.0,-16.0,-6.0,-9.0,-4.0,-2.0,-2.0,1651024697818861.0,2
1390,0.0,9.0,15.0,-24.0,-11.0,-5.0,-2.0,-1.0,1651024697834813.0,2
1391,1.0,-1.0,-4.0,6.0,5.0,0.0,1.0,2.0,1651024697834813.0,2
1392,-1.0,-2.0,4.0,1.0,-4.0,-2.0,0.0,0.0,1651024697834813.0,2
1393,3.0,11.0,8.0,24.0,17.0,7.0,3.0,3.0,1651024697834813.0,2
1394,-2.0,-9.0,5.0,6.0,3.0,3.0,0.0,0.0,1651024697848844.0,2
1395,1.0,-2.0,7.0,9.0,6.0,2.0,0.0,1.0,1651024697848844.0,2
1396,-1.0,4.0,20.0,15.0,8.0,3.0,-1.0,-1.0,1651024697856799.0,2
1397,0.0,0.0,-32.0,-25.0,-11.0,-5.0,-2.0,-1.0,1651024697856799.0,2
1398,-7.0,-28.0,-25.0,4.0,-3.0,-4.0,-5.0,-3.0,1651024697870958.0,2
1399,5.0,26.0,18.0,-3.0,-2.0,1.0,5.0,4.0,1651024697870958.0,2
1400,5.0,3.0,-1.0,6.0,3.0,0.0,0.0,0.0,1651024697871892.0,2
1401,-7.0,-20.0,-19.0,-9.0,-2.0,-4.0,-2.0,-4.0,1651024697871892.0,2
1402,-2.0,-8.0,-25.0,-46.0,-19.0,-3.0,-3.0,-1.0,1651024697895012.0,2
1403,2.0,14.0,31.0,21.0,8.0,2.0,-1.0,0.0,1651024697895012.0,2
1404,1.0,14.0,23.0,-8.0,-6.0,-1.0,-7.0,-3.0,1651024697895012.0,2
1405,11.0,12.0,11.0,38.0,16.0,7.0,-5.0,5.0,1651024697895012.0,2
1406,-10.0,-16.0,14.0,35.0,20.0,2.0,15.0,-2.0,1651024697908856.0,0
1407,8.0,-15.0,-54.0,-34.0,-7.0,-3.0,-1.0,3.0,1651024697908856.0,3
1408,-13.0,-9.0,16.0,34.0,11.0,1.0,3.0,-2.0,1651024697909785.0,3
1409,0.0,6.0,-4.0,-34.0,-23.0,-5.0,-10.0,-4.0,1651024697909785.0,3
1410,-4.0,-5.0,-15.0,-27.0,-13.0,-8.0,-6.0,-2.0,1651024697931750.0,3
1411,2.0,15.0,11.0,-27.0,-5.0,-6.0,3.0,1.0,1651024697931750.0,3
1412,-4.0,11.0,0.0,8.0,8.0,18.0,1.0,1.0,1651024697931750.0,3
1413,-6.0,-9.0,13.0,46.0,11.0,-5.0,-9.0,-7.0,1651024697931750.0,3
1414,12.0,43.0,41.0,8.0,-7.0,-34.0,-2.0,7.0,1651024697955003.0,3
1415,-7.0,-18.0,-26.0,0.0,-4.0,15.0,-12.0,-10.0,1651024697955003.0,3
1416,1.0,-12.0,-20.0,-60.0,-27.0,-2.0,-8.0,0.0,1651024697955003.0,3
1417,-16.0,-26.0,-20.0,-27.0,-3.0,0.0,-10.0,-15.0,1651024697955003.0,3
1418,16.0,0.0,-25.0,6.0,8.0,4.0,55.0,34.0,1651024697968884.0,3
1419,-9.0,13.0,23.0,-10.0,-13.0,-30.0,-32.0,-21.0,1651024697968884.0,3
1420,14.0,2.0,-5.0,-5.0,5.0,13.0,15.0,18.0,1651024697969867.0,3
1421,-8.0,-11.0,-16.0,-18.0,-7.0,0.0,-20.0,-16.0,1651024697969867.0,3
1422,-9.0,11.0,31.0,13.0,-2.0,-4.0,-20.0,-16.0,1651024697991868.0,3
1423,2.0,-18.0,-8.0,29.0,18.0,8.0,39.0,24.0,1651024697991868.0,3
1424,-9.0,-27.0,-35.0,-11.0,-4.0,-7.0,7.0,-12.0,1651024697992805.0,3
1425,13.0,14.0,8.0,-8.0,-4.0,0.0,11.0,15.0,1651024697992805.0,3
1426,-4.0,1.0,-15.0,-24.0,-9.0,9.0,41.0,16.0,1651024698014934.0,3
1427,5.0,15.0,26.0,20.0,1.0,4.0,20.0,6.0,1651024698014934.0,3
1428,-7.0,-14.0,-17.0,-10.0,0.0,0.0,1.0,-6.0,1651024698015012.0,3
1429,3.0,3.0,-8.0,-4.0,1.0,-10.0,8.0,5.0,1651024698015012.0,3
1430,1.0,0.0,7.0,7.0,4.0,7.0,-30.0,-14.0,1651024698029095.0,3
1431,-8.0,-10.0,0.0,16.0,2.0,4.0,-18.0,-10.0,1651024698029095.0,3
1432,3.0,19.0,44.0,6.0,1.0,-8.0,0.0,1.0,1651024698030022.0,3
1433,-11.0,-14.0,-28.0,-6.0,-6.0,-10.0,-14.0,-12.0,1651024698030022.0,3
1434,-8.0,-23.0,-9.0,2.0,-5.0,11.0,-2.0,-3.0,1651024698051010.0,3
1435,4.0,3.0,-2.0,-6.0,1.0,-2.0,-1.0,3.0,1651024698051010.0,3
1436,1.0,-2.0,-17.0,-13.0,5.0,-7.0,-17.0,-6.0,1651024698052012.0,3
1437,7.0,18.0,58.0,20.0,13.0,16.0,32.0,18.0,1651024698052012.0,3
1438,-1.0,-3.0,-28.0,21.0,6.0,6.0,-22.0,-10.0,1651024698074932.0,3
1439,-4.0,-12.0,-17.0,-29.0,-12.0,-10.0,-3.0,-2.0,1651024698074932.0,3
1440,1.0,2.0,0.0,8.0,-5.0,-3.0,6.0,-1.0,1651024698075047.0,3
1441,0.0,1.0,10.0,7.0,8.0,8.0,3.0,5.0,1651024698075047.0,3
1442,1.0,9.0,9.0,-7.0,-5.0,-5.0,-7.0,0.0,1651024698087926.0,3
1443,-3.0,-6.0,-3.0,-2.0,-6.0,-4.0,-10.0,-6.0,1651024698087926.0,3
1444,-1.0,-5.0,-25.0,-12.0,-5.0,-8.0,-10.0,-4.0,1651024698096800.0,3
1445,-1.0,-3.0,-16.0,-11.0,-12.0,-1.0,3.0,2.0,1651024698096800.0,3
1446,2.0,1.0,28.0,4.0,3.0,-1.0,-15.0,-11.0,1651024698112078.0,3
1447,-3.0,-5.0,-1.0,1.0,-1.0,2.0,-1.0,-2.0,1651024698112078.0,3
1448,1.0,-6.0,-26.0,0.0,-5.0,-6.0,-10.0,-5.0,1651024698112078.0,3
1449,-5.0,-4.0,4.0,-5.0,-9.0,-8.0,-6.0,-2.0,1651024698112078.0,3
1450,7.0,17.0,9.0,-3.0,11.0,9.0,-1.0,2.0,1651024698136067.0,3
1451,-3.0,-6.0,8.0,20.0,3.0,5.0,26.0,8.0,1651024698136067.0,3
1452,3.0,5.0,4.0,8.0,2.0,-1.0,7.0,4.0,1651024698137083.0,3
1453,3.0,-2.0,-2.0,-2.0,-1.0,-6.0,-2.0,2.0,1651024698137083.0,3
1454,1.0,10.0,5.0,-15.0,-6.0,-4.0,-23.0,-9.0,1651024698147934.0,3
1455,-5.0,-17.0,-23.0,13.0,-3.0,3.0,1.0,-3.0,1651024698147934.0,3
1456,3.0,-4.0,-4.0,-3.0,12.0,0.0,-2.0,1.0,1651024698155983.0,3
1457,-2.0,15.0,29.0,34.0,11.0,6.0,4.0,0.0,1651024698155983.0,3
1458,-2.0,4.0,10.0,6.0,6.0,7.0,6.0,1.0,1651024698170984.0,3
1459,-5.0,-5.0,-10.0,-19.0,-13.0,-5.0,-7.0,-3.0,1651024698170984.0,3
1460,2.0,6.0,14.0,22.0,2.0,2.0,6.0,2.0,1651024698171989.0,3
1461,-5.0,-18.0,-23.0,-14.0,1.0,-2.0,-9.0,-3.0,1651024698171989.0,3
1462,-1.0,-8.0,0.0,-2.0,-5.0,8.0,57.0,19.0,1651024698193714.0,3
1463,-2.0,0.0,-11.0,-21.0,-10.0,-7.0,-5.0,-1.0,1651024698193714.0,3
1464,1.0,7.0,22.0,9.0,12.0,1.0,6.0,1.0,1651024698194715.0,3
1465,5.0,3.0,-1.0,-4.0,-5.0,0.0,0.0,1.0,1651024698194715.0,3
1466,-6.0,-13.0,-12.0,0.0,-2.0,-3.0,-12.0,-7.0,1651024698208677.0,3
1467,1.0,10.0,9.0,2.0,1.0,-4.0,-13.0,-7.0,1651024698208677.0,3
1468,4.0,-2.0,-8.0,-6.0,-2.0,15.0,35.0,16.0,1651024698216719.0,3
1469,-9.0,-6.0,-7.0,-9.0,-9.0,-13.0,-11.0,-10.0,1651024698216719.0,3
1470,-2.0,1.0,9.0,11.0,3.0,-5.0,-33.0,-20.0,1651024698230998.0,3
1471,9.0,8.0,5.0,7.0,16.0,21.0,38.0,26.0,1651024698230998.0,3
1472,0.0,9.0,12.0,2.0,-5.0,-8.0,-16.0,-2.0,1651024698231929.0,3
1473,-1.0,-1.0,10.0,8.0,6.0,6.0,9.0,0.0,1651024698231929.0,3
1474,-1.0,-10.0,-39.0,-10.0,-9.0,-4.0,3.0,2.0,1651024698254941.0,3
1475,3.0,13.0,25.0,-1.0,3.0,-1.0,-9.0,-3.0,1651024698254941.0,3
1476,-5.0,-9.0,-2.0,6.0,-1.0,-1.0,-18.0,-7.0,1651024698254941.0,3
1477,15.0,3.0,-22.0,-22.0,-8.0,1.0,5.0,4.0,1651024698254941.0,3
1478,-4.0,-14.0,-1.0,7.0,1.0,6.0,23.0,11.0,1651024698268136.0,3
1479,2.0,6.0,1.0,12.0,5.0,-4.0,-10.0,-4.0,1651024698268136.0,3
1480,-4.0,4.0,1.0,-4.0,-5.0,-1.0,1.0,0.0,1651024698276063.0,3
1481,0.0,-7.0,4.0,9.0,3.0,-1.0,-14.0,-6.0,1651024698276063.0,3
1482,3.0,8.0,5.0,-7.0,0.0,1.0,0.0,-1.0,1651024698291155.0,3
1483,-1.0,7.0,-7.0,-20.0,-6.0,-9.0,-42.0,-18.0,1651024698291155.0,3
1484,-5.0,-3.0,13.0,23.0,8.0,13.0,46.0,13.0,1651024698292118.0,3
1485,3.0,8.0,-12.0,-10.0,-3.0,-1.0,11.0,7.0,1651024698292118.0,3
1486,-6.0,-4.0,0.0,-4.0,-7.0,-15.0,-17.0,-9.0,1651024698314094.0,3
1487,0.0,-6.0,0.0,3.0,2.0,-2.0,-4.0,-1.0,1651024698314094.0,3
1488,-5.0,-11.0,-18.0,-13.0,-6.0,-10.0,-14.0,-7.0,1651024698315032.0,3
1489,0.0,6.0,16.0,-2.0,6.0,8.0,5.0,1.0,1651024698315032.0,3
1490,3.0,0.0,10.0,19.0,4.0,6.0,7.0,3.0,1651024698328276.0,3
1491,-7.0,-5.0,-4.0,-8.0,-14.0,-20.0,-21.0,-16.0,1651024698328276.0,3
1492,-9.0,-3.0,2.0,2.0,1.0,-3.0,-57.0,-26.0,1651024698336256.0,3
1493,5.0,1.0,-35.0,-14.0,-5.0,-1.0,38.0,21.0,1651024698336256.0,3
1494,-1.0,5.0,31.0,14.0,3.0,-2.0,-10.0,-3.0,1651024698350977.0,3
1495,3.0,6.0,9.0,-3.0,4.0,11.0,17.0,6.0,1651024698350977.0,3
1496,5.0,-4.0,-32.0,-19.0,-5.0,-7.0,-19.0,-4.0,1651024698351950.0,3
1497,0.0,6.0,18.0,-1.0,-5.0,-4.0,-8.0,-6.0,1651024698351950.0,3
1498,-10.0,-13.0,-21.0,-8.0,-1.0,-2.0,4.0,-2.0,1651024698374968.0,3
1499,2.0,11.0,20.0,17.0,8.0,4.0,-5.0,3.0,1651024698374968.0,3
1500,0.0,4.0,19.0,4.0,-2.0,0.0,12.0,6.0,1651024698374968.0,3
1501,-4.0,-14.0,-19.0,3.0,2.0,-1.0,-14.0,-11.0,1651024698374968.0,3
1502,2.0,4.0,5.0,-1.0,0.0,-2.0,-11.0,-3.0,1651024698387964.0,3
1503,1.0,3.0,0.0,5.0,3.0,8.0,22.0,5.0,1651024698387964.0,3
1504,-9.0,-19.0,-31.0,-35.0,-21.0,-10.0,2.0,0.0,1651024698395943.0,3
1505,-5.0,2.0,8.0,4.0,6.0,-1.0,-1.0,-6.0,1651024698395943.0,3
1506,9.0,16.0,20.0,15.0,13.0,6.0,-1.0,7.0,1651024698410902.0,3
1507,-12.0,-28.0,-21.0,-1.0,-1.0,-5.0,-15.0,-14.0,1651024698410902.0,3
1508,6.0,1.0,12.0,9.0,0.0,8.0,25.0,11.0,1651024698411831.0,3
1509,1.0,10.0,6.0,1.0,-2.0,-2.0,-6.0,-3.0,1651024698411831.0,3
1510,-1.0,-6.0,-17.0,-15.0,-6.0,-2.0,-2.0,-2.0,1651024698434895.0,3
1511,8.0,13.0,5.0,27.0,10.0,13.0,15.0,6.0,1651024698434895.0,3
1512,-4.0,-14.0,-14.0,-17.0,-14.0,-9.0,8.0,2.0,1651024698434895.0,3
1513,0.0,8.0,24.0,13.0,4.0,-1.0,-4.0,1.0,1651024698434895.0,3
1514,1.0,-8.0,-22.0,-2.0,1.0,2.0,14.0,6.0,1651024698457355.0,3
1515,-9.0,-10.0,1.0,-16.0,-13.0,-13.0,-30.0,-18.0,1651024698457355.0,3
1516,6.0,9.0,9.0,10.0,7.0,5.0,0.0,2.0,1651024698457869.0,3
1517,2.0,6.0,4.0,1.0,0.0,6.0,13.0,5.0,1651024698457869.0,3
1518,3.0,10.0,7.0,-7.0,-2.0,-7.0,-25.0,-5.0,1651024698470993.0,3
1519,2.0,-7.0,-22.0,-14.0,-10.0,-5.0,4.0,3.0,1651024698470993.0,3
1520,0.0,4.0,9.0,3.0,6.0,-1.0,-6.0,-2.0,1651024698479005.0,3
1521,-3.0,-2.0,13.0,9.0,2.0,-3.0,-6.0,-1.0,1651024698479005.0,3
1522,4.0,6.0,-8.0,3.0,-1.0,2.0,-3.0,-2.0,1651024698494940.0,3
1523,-5.0,6.0,8.0,3.0,-4.0,3.0,3.0,2.0,1651024698494940.0,3
1524,-4.0,-7.0,6.0,24.0,23.0,2.0,-2.0,-1.0,1651024698494940.0,3
1525,-1.0,-3.0,-4.0,-5.0,-2.0,1.0,21.0,3.0,1651024698494940.0,3
1526,0.0,-2.0,-3.0,-8.0,-14.0,-6.0,-14.0,-6.0,1651024698517114.0,3
1527,-1.0,-6.0,-13.0,-9.0,6.0,0.0,-7.0,-2.0,1651024698517114.0,3
1528,-6.0,-6.0,-13.0,5.0,-6.0,-5.0,-5.0,-5.0,1651024698518069.0,3
1529,-3.0,1.0,5.0,-13.0,-8.0,-7.0,-27.0,-9.0,1651024698518069.0,3
1530,-4.0,-9.0,-5.0,3.0,10.0,6.0,13.0,5.0,1651024698531076.0,3
1531,2.0,8.0,8.0,-6.0,-3.0,-3.0,8.0,3.0,1651024698531076.0,3
1532,2.0,5.0,5.0,-2.0,-1.0,2.0,-4.0,-2.0,1651024698532012.0,3
1533,-2.0,-13.0,-10.0,8.0,5.0,-3.0,-31.0,-12.0,1651024698532012.0,3
1534,4.0,5.0,-2.0,-7.0,-5.0,-1.0,12.0,8.0,1651024698554960.0,3
1535,1.0,-1.0,2.0,0.0,0.0,0.0,6.0,2.0,1651024698554960.0,3
1536,-1.0,-7.0,-13.0,-13.0,-10.0,-4.0,7.0,3.0,1651024698554960.0,3
1537,5.0,10.0,11.0,10.0,8.0,7.0,15.0,9.0,1651024698554960.0,3
1538,-5.0,-10.0,-1.0,12.0,0.0,-2.0,-3.0,-6.0,1651024698577149.0,3
1539,-1.0,-2.0,9.0,1.0,7.0,1.0,8.0,2.0,1651024698577149.0,3
1540,5.0,9.0,4.0,9.0,6.0,5.0,0.0,2.0,1651024698578133.0,3
1541,3.0,16.0,14.0,-3.0,-3.0,-1.0,1.0,1.0,1651024698578133.0,3
1542,-13.0,-28.0,-31.0,-14.0,-13.0,-14.0,-35.0,-17.0,1651024698591043.0,3
1543,4.0,-1.0,9.0,4.0,0.0,4.0,20.0,12.0,1651024698591043.0,3
1544,5.0,17.0,4.0,-7.0,-3.0,-1.0,-2.0,1.0,1651024698592041.0,3
1545,-6.0,-13.0,-20.0,-3.0,3.0,3.0,5.0,0.0,1651024698592041.0,3
1546,3.0,14.0,27.0,8.0,0.0,-5.0,-11.0,-5.0,1651024698614979.0,3
1547,2.0,1.0,-5.0,-5.0,-19.0,-7.0,6.0,4.0,1651024698614979.0,3
1548,-6.0,-14.0,-13.0,-9.0,-4.0,-1.0,-8.0,-6.0,1651024698614979.0,3
1549,-2.0,4.0,0.0,4.0,21.0,8.0,16.0,6.0,1651024698614979.0,3
1550,-1.0,-1.0,-1.0,8.0,-1.0,2.0,6.0,1.0,1651024698636877.0,3
1551,0.0,2.0,7.0,-1.0,3.0,-1.0,-11.0,-5.0,1651024698636877.0,3
1552,2.0,8.0,8.0,-1.0,-5.0,0.0,-7.0,-3.0,1651024698637875.0,3
1553,1.0,7.0,18.0,8.0,-5.0,-4.0,-12.0,-3.0,1651024698637875.0,3
1554,-4.0,-30.0,-31.0,-4.0,2.0,0.0,9.0,3.0,1651024698650994.0,3
1555,5.0,2.0,1.0,-5.0,0.0,3.0,1.0,-1.0,1651024698650994.0,3
1556,-1.0,2.0,2.0,-2.0,-2.0,-2.0,-20.0,-7.0,1651024698651933.0,3
1557,-3.0,-11.0,-9.0,-7.0,-3.0,-3.0,-6.0,-5.0,1651024698651933.0,3
1558,0.0,14.0,18.0,0.0,2.0,5.0,19.0,7.0,1651024698674141.0,3
1559,-1.0,-4.0,-15.0,-3.0,0.0,-2.0,-7.0,-4.0,1651024698674141.0,3
1560,-2.0,-5.0,2.0,-12.0,-1.0,0.0,5.0,3.0,1651024698675071.0,3
1561,0.0,-1.0,-7.0,10.0,1.0,1.0,-6.0,-2.0,1651024698675071.0,3
1562,4.0,5.0,4.0,-8.0,-2.0,2.0,24.0,10.0,1651024698696845.0,3
1563,-7.0,-12.0,-12.0,-9.0,-7.0,-2.0,9.0,1.0,1651024698696845.0,3
1564,1.0,7.0,17.0,16.0,12.0,5.0,14.0,3.0,1651024698697846.0,3
1565,1.0,0.0,-18.0,-18.0,-16.0,-8.0,3.0,2.0,1651024698697846.0,3
1566,-3.0,0.0,-2.0,17.0,9.0,4.0,-7.0,-5.0,1651024698711809.0,3
1567,3.0,4.0,6.0,-7.0,3.0,-1.0,-4.0,0.0,1651024698711809.0,3
1568,1.0,2.0,3.0,5.0,0.0,-1.0,2.0,2.0,1651024698711809.0,3
1569,3.0,11.0,6.0,9.0,-3.0,-3.0,-4.0,-1.0,1651024698711809.0,3
1570,-6.0,-18.0,-12.0,-11.0,-2.0,-1.0,-15.0,-7.0,1651024698734435.0,3
1571,-4.0,-9.0,-15.0,-8.0,0.0,4.0,12.0,7.0,1651024698734435.0,3
1572,0.0,3.0,19.0,17.0,7.0,2.0,-9.0,-4.0,1651024698735397.0,3
1573,-4.0,-4.0,0.0,-1.0,-2.0,-7.0,-19.0,-10.0,1651024698735397.0,3
1574,1.0,9.0,10.0,-6.0,-5.0,-4.0,5.0,3.0,1651024698757378.0,3
1575,2.0,5.0,3.0,5.0,2.0,1.0,-7.0,-4.0,1651024698757378.0,3
1576,2.0,-1.0,-16.0,-19.0,-10.0,-3.0,-3.0,-1.0,1651024698757378.0,3
1577,-1.0,-8.0,-10.0,6.0,2.0,3.0,-3.0,-1.0,1651024698757378.0,3
1578,-2.0,3.0,5.0,-6.0,-1.0,-2.0,-5.0,-5.0,1651024698771337.0,3
1579,-4.0,-3.0,5.0,17.0,0.0,-4.0,-7.0,-3.0,1651024698771337.0,3
1580,3.0,1.0,4.0,12.0,12.0,2.0,2.0,0.0,1651024698772267.0,3
1581,-2.0,-4.0,4.0,1.0,-8.0,-1.0,1.0,0.0,1651024698772267.0,3
1582,0.0,-6.0,-13.0,-17.0,-6.0,-1.0,12.0,5.0,1651024698794907.0,3
1583,3.0,14.0,27.0,21.0,6.0,0.0,0.0,-4.0,1651024698794907.0,3
1584,3.0,-2.0,-11.0,-11.0,-8.0,4.0,9.0,7.0,1651024698794907.0,3
1585,-6.0,-11.0,-24.0,-19.0,-11.0,-7.0,3.0,-1.0,1651024698794907.0,3
1586,1.0,6.0,19.0,13.0,13.0,6.0,14.0,6.0,1651024698817371.0,3
1587,-2.0,-10.0,-13.0,-10.0,-5.0,-5.0,-5.0,0.0,1651024698817371.0,3
1588,1.0,3.0,9.0,-4.0,0.0,-4.0,-21.0,-10.0,1651024698817898.0,3
1589,4.0,0.0,1.0,11.0,7.0,7.0,17.0,7.0,1651024698817898.0,3
1590,0.0,4.0,1.0,3.0,-5.0,-6.0,-6.0,-5.0,1651024698830866.0,3
1591,2.0,10.0,4.0,-11.0,-5.0,-1.0,1.0,0.0,1651024698830866.0,3
1592,-4.0,-15.0,-23.0,-6.0,-7.0,-5.0,-1.0,-2.0,1651024698831866.0,3
1593,-3.0,0.0,0.0,-32.0,-10.0,-6.0,0.0,-4.0,1651024698831866.0,3
1594,1.0,6.0,13.0,32.0,9.0,0.0,-22.0,-10.0,1651024698854803.0,3
1595,0.0,-1.0,-1.0,-9.0,4.0,7.0,22.0,6.0,1651024698854803.0,3
1596,-3.0,-11.0,-7.0,-1.0,-10.0,-5.0,-2.0,0.0,1651024698854803.0,3
1597,-1.0,-1.0,-9.0,-16.0,-3.0,1.0,-1.0,1.0,1651024698854803.0,3
1598,0.0,-3.0,2.0,-5.0,-1.0,1.0,-2.0,-5.0,1651024698876917.0,3
1599,-3.0,-3.0,9.0,-1.0,-4.0,-3.0,-1.0,-2.0,1651024698876917.0,3
1600,-1.0,1.0,-15.0,6.0,7.0,1.0,3.0,1.0,1651024698877911.0,3
1601,-1.0,2.0,14.0,9.0,5.0,4.0,5.0,3.0,1651024698877911.0,3
1602,-4.0,-1.0,3.0,-6.0,-6.0,-5.0,-13.0,-6.0,1651024698890910.0,3
1603,3.0,-3.0,-11.0,-5.0,-9.0,-7.0,11.0,3.0,1651024698890910.0,3
1604,5.0,13.0,18.0,-6.0,3.0,6.0,3.0,4.0,1651024698891877.0,3
1605,4.0,5.0,11.0,18.0,13.0,7.0,3.0,1.0,1651024698891877.0,3
1606,5.0,8.0,3.0,9.0,1.0,4.0,26.0,11.0,1651024698914906.0,3
1607,-6.0,-15.0,-24.0,-10.0,3.0,1.0,-14.0,-7.0,1651024698914906.0,3
1608,-2.0,4.0,4.0,-8.0,-8.0,-5.0,6.0,3.0,1651024698915076.0,3
1609,-1.0,-4.0,-4.0,-8.0,-8.0,-4.0,-1.0,1.0,1651024698915076.0,3
1610,3.0,5.0,10.0,14.0,2.0,1.0,-5.0,1.0,1651024698937003.0,3
1611,1.0,-3.0,-5.0,7.0,6.0,1.0,0.0,-1.0,1651024698937003.0,3
1612,-10.0,-25.0,-21.0,-10.0,2.0,-2.0,-5.0,-6.0,1651024698938010.0,3
1613,1.0,1.0,2.0,15.0,-4.0,4.0,1.0,3.0,1651024698938010.0,3
1614,2.0,10.0,3.0,-21.0,6.0,-3.0,-9.0,-3.0,1651024698951036.0,3
1615,1.0,4.0,4.0,14.0,-2.0,1.0,-3.0,0.0,1651024698951036.0,3
1616,-2.0,-5.0,-11.0,-5.0,-5.0,1.0,3.0,1.0,1651024698951963.0,3
1617,1.0,-6.0,-1.0,-3.0,4.0,2.0,17.0,6.0,1651024698951963.0,3
1618,1.0,0.0,5.0,-2.0,-8.0,-2.0,-4.0,-2.0,1651024698974011.0,3
1619,-2.0,-1.0,-3.0,-1.0,2.0,0.0,-9.0,-5.0,1651024698974011.0,3
1620,2.0,9.0,11.0,2.0,-2.0,0.0,2.0,2.0,1651024698981830.0,3
1621,0.0,-4.0,-1.0,0.0,1.0,-3.0,-1.0,0.0,1651024698981830.0,3
1622,-2.0,-5.0,-16.0,-13.0,-6.0,-5.0,-6.0,-2.0,1651024698996967.0,3
1623,-3.0,-13.0,-3.0,11.0,7.0,3.0,7.0,2.0,1651024698996967.0,3
1624,-4.0,4.0,8.0,-10.0,-7.0,-4.0,-8.0,-4.0,1651024698997896.0,3
1625,1.0,2.0,1.0,27.0,12.0,3.0,3.0,2.0,1651024698997896.0,3
1626,2.0,7.0,3.0,-11.0,-4.0,3.0,4.0,2.0,1651024699010926.0,3
1627,-2.0,3.0,2.0,-2.0,3.0,-2.0,-11.0,-4.0,1651024699010926.0,3
1628,2.0,1.0,5.0,7.0,-1.0,-1.0,2.0,0.0,1651024699011872.0,3
1629,1.0,7.0,4.0,-21.0,-7.0,-3.0,-11.0,-4.0,1651024699011872.0,3
1630,-1.0,-3.0,6.0,29.0,-1.0,2.0,3.0,3.0,1651024699034145.0,3
1631,-4.0,-12.0,-26.0,-17.0,-5.0,-5.0,-26.0,-11.0,1651024699034145.0,3
1632,3.0,9.0,28.0,16.0,21.0,4.0,11.0,4.0,1651024699035172.0,3
1633,2.0,-4.0,-17.0,-9.0,-7.0,5.0,7.0,5.0,1651024699035172.0,3
1634,-1.0,4.0,-2.0,-17.0,-1.0,-5.0,0.0,-1.0,1651024699056089.0,3
1635,0.0,11.0,20.0,26.0,2.0,-2.0,-21.0,-7.0,1651024699056089.0,3
1636,-1.0,-9.0,-15.0,-1.0,-4.0,2.0,25.0,9.0,1651024699064099.0,3
1637,-2.0,4.0,7.0,-10.0,-6.0,-4.0,-8.0,-7.0,1651024699064099.0,3
1638,0.0,-1.0,-5.0,-12.0,-5.0,1.0,2.0,1.0,1651024699078995.0,3
1639,-4.0,-8.0,-1.0,15.0,3.0,0.0,4.0,1.0,1651024699078995.0,3
1640,-2.0,-1.0,-1.0,-4.0,-2.0,-2.0,-14.0,-8.0,1651024699080005.0,3
1641,-4.0,-4.0,-2.0,4.0,4.0,0.0,-4.0,-1.0,1651024699080005.0,3
1642,0.0,-1.0,-7.0,-15.0,-6.0,3.0,17.0,5.0,1651024699093955.0,3
1643,0.0,1.0,2.0,2.0,2.0,-2.0,-11.0,-2.0,1651024699093955.0,3
1644,0.0,-1.0,-13.0,-6.0,-5.0,0.0,0.0,-1.0,1651024699095318.0,3
1645,0.0,2.0,20.0,11.0,-6.0,-6.0,-5.0,-2.0,1651024699095318.0,3
1646,-1.0,-2.0,19.0,9.0,4.0,-5.0,-10.0,-9.0,1651024699117358.0,3
1647,-1.0,-6.0,-34.0,-14.0,2.0,6.0,1.0,6.0,1651024699117358.0,3
1648,0.0,0.0,10.0,8.0,10.0,1.0,-3.0,-5.0,1651024699117869.0,3
1649,-1.0,0.0,1.0,-7.0,0.0,0.0,7.0,1.0,1651024699117869.0,3
1650,2.0,-1.0,-12.0,-14.0,-8.0,-6.0,-17.0,-1.0,1651024699130905.0,3
1651,0.0,0.0,5.0,-14.0,-20.0,-9.0,-8.0,-10.0,1651024699130905.0,3
1652,-3.0,-8.0,-14.0,1.0,6.0,-2.0,2.0,-6.0,1651024699138883.0,3
1653,-3.0,3.0,7.0,4.0,0.0,-6.0,2.0,0.0,1651024699138883.0,3
1654,2.0,3.0,1.0,0.0,3.0,6.0,13.0,1.0,1651024699154773.0,3
1655,0.0,5.0,4.0,-5.0,-6.0,-6.0,0.0,7.0,1651024699154773.0,3
1656,1.0,4.0,11.0,3.0,-7.0,-7.0,11.0,7.0,1651024699154773.0,3
1657,-3.0,-12.0,-28.0,-4.0,0.0,17.0,1.0,-4.0,1651024699154773.0,3
1658,-1.0,2.0,0.0,-5.0,1.0,0.0,-4.0,-3.0,1651024699184895.0,3
1659,1.0,3.0,20.0,23.0,11.0,4.0,14.0,5.0,1651024699184895.0,3
1660,0.0,1.0,2.0,6.0,1.0,-2.0,-1.0,2.0,1651024699184895.0,3
1661,1.0,3.0,5.0,4.0,-2.0,-6.0,2.0,-1.0,1651024699184895.0,3
1662,2.0,7.0,9.0,16.0,3.0,2.0,-16.0,0.0,1651024699190882.0,3
1663,1.0,-12.0,-31.0,-28.0,0.0,2.0,6.0,3.0,1651024699190882.0,3
1664,1.0,6.0,14.0,6.0,-3.0,-3.0,-10.0,-4.0,1651024699198890.0,3
1665,-1.0,-6.0,-3.0,9.0,5.0,0.0,-2.0,-3.0,1651024699198890.0,3
1666,1.0,-2.0,-11.0,-6.0,-15.0,-3.0,6.0,0.0,1651024699213888.0,3
1667,1.0,1.0,4.0,-5.0,2.0,2.0,9.0,-2.0,1651024699213888.0,3
1668,1.0,3.0,-2.0,8.0,12.0,0.0,-4.0,1.0,1651024699220801.0,3
1669,-1.0,-3.0,-3.0,-8.0,-5.0,-4.0,-13.0,-5.0,1651024699220801.0,3
1670,-3.0,-8.0,-5.0,4.0,0.0,-9.0,-6.0,-7.0,1651024699236873.0,3
1671,2.0,7.0,11.0,-7.0,-15.0,-30.0,24.0,17.0,1651024699236873.0,3
1672,0.0,-7.0,-14.0,-5.0,10.0,80.0,24.0,10.0,1651024699237804.0,3
1673,-2.0,-4.0,1.0,8.0,7.0,-6.0,-4.0,-1.0,1651024699237804.0,3
1674,-4.0,-2.0,5.0,-2.0,-2.0,4.0,-7.0,-5.0,1651024699250836.0,3
1675,-1.0,5.0,0.0,-2.0,1.0,-8.0,-4.0,-1.0,1651024699250836.0,3
1676,-3.0,-3.0,-10.0,-8.0,-8.0,-26.0,-12.0,-5.0,1651024699258811.0,3
1677,-1.0,-4.0,2.0,3.0,2.0,9.0,4.0,-5.0,1651024699258811.0,3
1678,-3.0,-3.0,-10.0,-13.0,-5.0,-1.0,8.0,11.0,1651024699274235.0,3
1679,2.0,10.0,21.0,14.0,3.0,9.0,1.0,-2.0,1651024699274235.0,3
1680,0.0,-4.0,-5.0,3.0,-1.0,-13.0,-4.0,1.0,1651024699274911.0,3
1681,2.0,3.0,-4.0,-12.0,1.0,0.0,-4.0,1.0,1651024699274911.0,3
1682,1.0,-6.0,-4.0,17.0,7.0,-3.0,3.0,-4.0,1651024699296802.0,3
1683,-7.0,-5.0,-4.0,-19.0,-15.0,-5.0,-6.0,-1.0,1651024699296802.0,3
1684,0.0,4.0,2.0,-5.0,-12.0,-7.0,-4.0,-3.0,1651024699297731.0,3
1685,1.0,0.0,3.0,2.0,12.0,-4.0,0.0,0.0,1651024699297731.0,3
1686,2.0,0.0,-3.0,-2.0,3.0,2.0,1.0,1.0,1651024699310763.0,3
1687,1.0,5.0,6.0,1.0,0.0,2.0,7.0,0.0,1651024699310763.0,3
1688,0.0,-4.0,-3.0,-5.0,-11.0,-14.0,-10.0,-1.0,1651024699318744.0,3
1689,0.0,2.0,-2.0,0.0,-5.0,3.0,3.0,2.0,1651024699318744.0,3
1690,-1.0,-2.0,-4.0,0.0,0.0,-51.0,-12.0,-7.0,1651024699333647.0,3
1691,1.0,5.0,-1.0,3.0,9.0,56.0,23.0,4.0,1651024699333647.0,3
1692,2.0,-3.0,0.0,-2.0,-2.0,-15.0,-8.0,-3.0,1651024699341613.0,3
1693,-8.0,-25.0,-1.0,-1.0,-3.0,-4.0,3.0,4.0,1651024699341613.0,3
1694,0.0,20.0,-5.0,-3.0,5.0,45.0,11.0,-6.0,1651024699357409.0,3
1695,4.0,7.0,2.0,0.0,-7.0,-30.0,-7.0,-1.0,1651024699357409.0,3
1696,3.0,15.0,1.0,0.0,0.0,-2.0,0.0,0.0,1651024699357866.0,3
1697,-3.0,-7.0,2.0,2.0,-4.0,-5.0,2.0,3.0,1651024699357866.0,3
1698,-4.0,-9.0,-3.0,0.0,-5.0,-35.0,-12.0,2.0,1651024699370897.0,3
1699,1.0,-2.0,0.0,-1.0,7.0,25.0,4.0,-4.0,1651024699370897.0,3
1700,3.0,7.0,10.0,5.0,5.0,14.0,8.0,4.0,1651024699378880.0,3
1701,-3.0,15.0,-7.0,-3.0,-4.0,-6.0,-5.0,-3.0,1651024699378880.0,3
1702,-5.0,-19.0,-1.0,-4.0,-3.0,2.0,5.0,0.0,1651024699393772.0,3
1703,3.0,7.0,-8.0,-6.0,0.0,0.0,-1.0,1.0,1651024699393772.0,3
1704,1.0,-6.0,-4.0,-4.0,-17.0,-20.0,-8.0,0.0,1651024699394770.0,3
1705,1.0,6.0,5.0,1.0,12.0,17.0,-8.0,-4.0,1651024699394770.0,3
1706,-3.0,-6.0,-1.0,5.0,11.0,14.0,10.0,1.0,1651024699416786.0,3
1707,-1.0,-9.0,-11.0,-8.0,-8.0,-11.0,-11.0,-3.0,1651024699416786.0,3
1708,-1.0,1.0,0.0,1.0,2.0,-3.0,6.0,1.0,1651024699417797.0,3
1709,3.0,11.0,11.0,1.0,0.0,-1.0,5.0,1.0,1651024699417797.0,3
1710,-1.0,0.0,2.0,5.0,-1.0,8.0,-2.0,4.0,1651024699439002.0,3
1711,-4.0,-13.0,-2.0,-1.0,3.0,-6.0,6.0,-3.0,1651024699439002.0,3
1712,0.0,9.0,7.0,3.0,-8.0,-4.0,-12.0,-11.0,1651024699439989.0,3
1713,-10.0,-63.0,-46.0,-21.0,-10.0,-4.0,12.0,5.0,1651024699439989.0,3
1714,13.0,76.0,17.0,0.0,9.0,7.0,-10.0,-7.0,1651024699453934.0,3
1715,1.0,2.0,12.0,9.0,-12.0,-10.0,-6.0,14.0,1651024699453934.0,3
1716,-8.0,-37.0,-34.0,-18.0,8.0,1.0,2.0,-3.0,1651024699454931.0,3
1717,4.0,13.0,23.0,11.0,4.0,2.0,-2.0,1.0,1651024699454931.0,3
1718,-5.0,-37.0,-8.0,-1.0,-4.0,-2.0,2.0,-7.0,1651024699476872.0,3
1719,3.0,15.0,6.0,3.0,4.0,-1.0,-5.0,-1.0,1651024699476872.0,3
1720,-7.0,9.0,-2.0,-6.0,-8.0,-2.0,-6.0,-7.0,1651024699477869.0,3
1721,16.0,-20.0,8.0,7.0,-14.0,-8.0,-3.0,2.0,1651024699477869.0,3
1722,-24.0,10.0,-12.0,-9.0,11.0,1.0,-5.0,-4.0,1651024699499897.0,3
1723,10.0,36.0,7.0,2.0,6.0,4.0,-2.0,-4.0,1651024699499897.0,3
1724,0.0,-26.0,-7.0,-1.0,-3.0,0.0,1.0,2.0,1651024699499897.0,3
1725,-2.0,8.0,-11.0,-8.0,-6.0,-6.0,-3.0,-6.0,1651024699499897.0,3
1726,6.0,3.0,7.0,0.0,-8.0,1.0,5.0,4.0,1651024699513773.0,3
1727,-13.0,-45.0,-2.0,3.0,4.0,-1.0,-4.0,-7.0,1651024699513773.0,3
1728,-12.0,-24.0,-2.0,2.0,-5.0,-4.0,-4.0,-1.0,1651024699514800.0,3
1729,-2.0,-5.0,4.0,1.0,2.0,1.0,0.0,1.0,1651024699514800.0,3
1730,12.0,36.0,14.0,7.0,17.0,6.0,1.0,5.0,1651024699537416.0,3
1731,-10.0,-26.0,-17.0,-3.0,0.0,-2.0,-3.0,-3.0,1651024699537416.0,3
1732,15.0,-6.0,-4.0,-6.0,-4.0,1.0,1.0,4.0,1651024699537871.0,3
1733,-10.0,39.0,8.0,0.0,-10.0,-9.0,-5.0,-6.0,1651024699537871.0,3
1734,-9.0,-67.0,3.0,3.0,-2.0,7.0,5.0,5.0,1651024699560811.0,3
1735,16.0,71.0,-20.0,-10.0,-1.0,-4.0,-4.0,-4.0,1651024699560811.0,3
1736,-11.0,17.0,11.0,1.0,0.0,-2.0,-1.0,-4.0,1651024699562801.0,3
1737,-5.0,-9.0,5.0,7.0,4.0,1.0,-2.0,-1.0,1651024699562801.0,3
1738,10.0,-2.0,-8.0,0.0,-3.0,-2.0,0.0,2.0,1651024699573772.0,3
1739,-4.0,-71.0,6.0,5.0,3.0,0.0,0.0,1.0,1651024699573772.0,3
1740,-11.0,34.0,1.0,-1.0,0.0,-1.0,-1.0,-5.0,1651024699574769.0,3
1741,9.0,25.0,2.0,-2.0,4.0,0.0,-2.0,2.0,1651024699574769.0,3
1742,-4.0,-10.0,-8.0,-7.0,-9.0,-4.0,-2.0,-1.0,1651024699596814.0,3
1743,4.0,9.0,7.0,-2.0,-5.0,-1.0,-2.0,-1.0,1651024699596814.0,3
1744,-6.0,-4.0,5.0,-2.0,2.0,2.0,-1.0,-1.0,1651024699597784.0,3
1745,-3.0,-44.0,-10.0,3.0,7.0,2.0,2.0,-1.0,1651024699597784.0,3
1746,17.0,44.0,16.0,16.0,3.0,1.0,5.0,7.0,1651024699619742.0,3
1747,-5.0,-25.0,-7.0,-2.0,-1.0,0.0,-1.0,0.0,1651024699619742.0,3
1748,23.0,46.0,17.0,11.0,9.0,5.0,4.0,6.0,1651024699619742.0,3
1749,5.0,20.0,6.0,-3.0,-7.0,-1.0,0.0,1.0,1651024699619742.0,3
1750,-13.0,-35.0,-17.0,-16.0,-1.0,-3.0,-1.0,-5.0,1651024699633689.0,3
1751,8.0,40.0,11.0,12.0,10.0,5.0,4.0,6.0,1651024699633689.0,3
1752,-17.0,-49.0,1.0,-1.0,-3.0,-4.0,-2.0,-6.0,1651024699634685.0,3
1753,12.0,19.0,5.0,1.0,2.0,1.0,3.0,4.0,1651024699634685.0,3
1754,-4.0,0.0,-5.0,-9.0,-16.0,-4.0,-2.0,-2.0,1651024699657348.0,3
1755,5.0,31.0,10.0,6.0,16.0,1.0,0.0,1.0,1651024699657348.0,3
1756,9.0,46.0,4.0,1.0,1.0,1.0,0.0,0.0,1651024699657903.0,3
1757,4.0,48.0,4.0,-3.0,-5.0,-3.0,-1.0,0.0,1651024699657903.0,3
1758,-3.0,-62.0,-13.0,0.0,1.0,2.0,0.0,1.0,1651024699679893.0,3
1759,-15.0,-27.0,0.0,2.0,-2.0,1.0,-4.0,-5.0,1651024699679893.0,3
1760,2.0,-9.0,-5.0,0.0,0.0,1.0,0.0,1.0,1651024699679893.0,3
1761,9.0,25.0,0.0,-3.0,1.0,0.0,0.0,1.0,1651024699679893.0,3
1762,-10.0,-22.0,-4.0,-2.0,-10.0,-5.0,-1.0,-3.0,1651024699693810.0,3
1763,-19.0,-21.0,-11.0,-3.0,2.0,0.0,-4.0,-5.0,1651024699693810.0,3
1764,-5.0,-10.0,-6.0,0.0,5.0,1.0,1.0,0.0,1651024699694828.0,3
1765,5.0,2.0,4.0,1.0,-6.0,-3.0,-1.0,-2.0,1651024699694828.0,3
1766,-6.0,10.0,-3.0,-2.0,9.0,1.0,0.0,-2.0,1651024699716876.0,3
1767,-3.0,-11.0,-1.0,-1.0,-2.0,0.0,3.0,-1.0,1651024699716876.0,3
1768,-4.0,5.0,1.0,-1.0,-2.0,-4.0,-2.0,-3.0,1651024699717875.0,3
1769,-7.0,-7.0,-3.0,-2.0,3.0,0.0,0.0,-2.0,1651024699717875.0,3
1770,16.0,33.0,3.0,-2.0,-5.0,-3.0,-1.0,4.0,1651024699739958.0,3
1771,-2.0,23.0,-1.0,-5.0,-6.0,-2.0,-2.0,0.0,1651024699739958.0,3
1772,4.0,-50.0,0.0,0.0,1.0,0.0,-2.0,2.0,1651024699740889.0,3
1773,-25.0,-10.0,-11.0,-4.0,0.0,-1.0,-5.0,-6.0,1651024699740889.0,3
1774,7.0,1.0,0.0,0.0,-1.0,1.0,1.0,4.0,1651024699754206.0,3
1775,4.0,24.0,5.0,-4.0,-6.0,-3.0,-1.0,-3.0,1651024699754206.0,3
1776,7.0,11.0,5.0,2.0,1.0,2.0,1.0,2.0,1651024699754921.0,3
1777,0.0,-11.0,-4.0,-1.0,0.0,-2.0,-1.0,0.0,1651024699754921.0,3
1778,-9.0,-3.0,-1.0,-3.0,-3.0,1.0,0.0,-3.0,1651024699776777.0,3
1779,8.0,1.0,-1.0,-5.0,0.0,-2.0,-2.0,-3.0,1651024699776777.0,3
1780,2.0,16.0,4.0,11.0,9.0,6.0,3.0,5.0,1651024699777789.0,3
1781,1.0,18.0,0.0,-7.0,-8.0,-5.0,-4.0,-6.0,1651024699777789.0,3
1782,5.0,-5.0,5.0,4.0,-6.0,0.0,1.0,1.0,1651024699799777.0,3
1783,-3.0,0.0,5.0,5.0,5.0,-1.0,0.0,0.0,1651024699799777.0,3
1784,3.0,0.0,-5.0,-2.0,1.0,-1.0,1.0,0.0,1651024699800714.0,3
1785,3.0,9.0,4.0,3.0,4.0,4.0,1.0,2.0,1651024699800714.0,3
1786,-14.0,8.0,-9.0,-7.0,-6.0,-3.0,-4.0,-6.0,1651024699812706.0,3
1787,-4.0,-20.0,-6.0,-5.0,-9.0,-1.0,-1.0,-3.0,1651024699812706.0,3
1788,0.0,-4.0,-2.0,-10.0,-6.0,-1.0,-1.0,0.0,1651024699821722.0,3
1789,-11.0,-19.0,-5.0,6.0,4.0,0.0,0.0,-2.0,1651024699821722.0,3
1790,6.0,30.0,10.0,3.0,0.0,1.0,1.0,1.0,1651024699836622.0,3
1791,-3.0,-75.0,-12.0,-2.0,-3.0,-3.0,-2.0,-3.0,1651024699836622.0,3
1792,3.0,14.0,2.0,5.0,8.0,6.0,2.0,0.0,1651024699838612.0,3
1793,-4.0,-48.0,-11.0,-11.0,-10.0,-3.0,-3.0,-4.0,1651024699838612.0,3
1794,14.0,20.0,10.0,3.0,0.0,2.0,2.0,3.0,1651024699859693.0,3
1795,-13.0,-18.0,-13.0,-3.0,-3.0,-1.0,0.0,-4.0,1651024699859693.0,3
1796,4.0,6.0,1.0,-11.0,-6.0,-2.0,2.0,3.0,1651024699861652.0,3
1797,2.0,0.0,5.0,16.0,3.0,1.0,1.0,1.0,1651024699861652.0,3
1798,-1.0,-10.0,-2.0,-3.0,2.0,-1.0,0.0,1.0,1651024699873609.0,3
1799,9.0,34.0,10.0,10.0,2.0,1.0,-1.0,1.0,1651024699873609.0,3
1800,-4.0,-21.0,-6.0,6.0,-1.0,-1.0,-1.0,-2.0,1651024699882573.0,3
1801,10.0,24.0,0.0,-5.0,2.0,0.0,1.0,3.0,1651024699882573.0,3
1802,-8.0,-12.0,-5.0,-3.0,2.0,-1.0,-2.0,-5.0,1651024699897902.0,3
1803,0.0,24.0,3.0,-4.0,-4.0,-1.0,1.0,4.0,1651024699897902.0,3
1804,-6.0,-55.0,-7.0,-4.0,-3.0,-2.0,-3.0,-1.0,1651024699898912.0,3
1805,1.0,20.0,7.0,1.0,1.0,1.0,0.0,-1.0,1651024699898912.0,3
1806,9.0,5.0,0.0,1.0,-2.0,-1.0,1.0,2.0,1651024699919961.0,3
1807,-5.0,-7.0,2.0,-2.0,-5.0,-1.0,1.0,-2.0,1651024699919961.0,3
1808,0.0,22.0,2.0,-1.0,2.0,1.0,-1.0,-2.0,1651024699920931.0,3
1809,-4.0,-12.0,-4.0,-1.0,9.0,2.0,0.0,-2.0,1651024699920931.0,3
1810,-5.0,-22.0,-3.0,3.0,6.0,-2.0,-1.0,0.0,1651024699932959.0,3
1811,-12.0,-7.0,-7.0,-4.0,-10.0,-3.0,-4.0,-5.0,1651024699932959.0,3
1812,17.0,62.0,17.0,3.0,7.0,1.0,1.0,4.0,1651024699942407.0,3
1813,-2.0,-43.0,-9.0,-6.0,-5.0,1.0,-1.0,-2.0,1651024699942407.0,3
1814,-6.0,3.0,-5.0,-2.0,2.0,-2.0,-1.0,-3.0,1651024699957394.0,3
1815,4.0,2.0,4.0,1.0,-2.0,0.0,1.0,4.0,1651024699957394.0,3
1816,3.0,21.0,2.0,-3.0,-7.0,-4.0,-3.0,-3.0,1651024699958363.0,3
1817,-15.0,-10.0,-3.0,-1.0,-3.0,-3.0,-4.0,-6.0,1651024699958363.0,3
1818,1.0,10.0,3.0,4.0,6.0,2.0,1.0,1.0,1651024699979307.0,3
1819,-1.0,10.0,2.0,-5.0,-1.0,-1.0,-1.0,-1.0,1651024699979307.0,3
1820,-14.0,-5.0,-7.0,-3.0,-6.0,-2.0,-1.0,-3.0,1651024699981303.0,3
1821,4.0,10.0,3.0,0.0,4.0,0.0,3.0,4.0,1651024699981303.0,3
1822,-2.0,-9.0,-5.0,-4.0,-4.0,-1.0,-1.0,0.0,1651024699993356.0,3
1823,-5.0,-31.0,-7.0,-1.0,-2.0,-2.0,-3.0,-3.0,1651024699993356.0,3
1824,-16.0,-3.0,-2.0,5.0,3.0,0.0,-2.0,-5.0,1651024700002549.0,3
1825,5.0,35.0,2.0,-5.0,-1.0,0.0,0.0,2.0,1651024700002549.0,3
1826,-6.0,-1.0,0.0,-3.0,-7.0,-1.0,-1.0,-1.0,1651024700016702.0,3
1827,5.0,13.0,3.0,-1.0,2.0,2.0,0.0,2.0,1651024700016702.0,3
1828,2.0,-7.0,-3.0,-1.0,0.0,-1.0,0.0,0.0,1651024700018697.0,3
1829,1.0,15.0,6.0,5.0,7.0,1.0,0.0,1.0,1651024700018697.0,3
1830,-4.0,-29.0,-7.0,-7.0,-8.0,0.0,-1.0,-1.0,1651024700039369.0,3
1831,16.0,30.0,6.0,3.0,-2.0,-1.0,2.0,3.0,1651024700039369.0,3
1832,2.0,-16.0,-1.0,3.0,2.0,3.0,-1.0,0.0,1651024700041391.0,3
1833,9.0,18.0,7.0,4.0,2.0,0.0,2.0,3.0,1651024700041391.0,3
1834,2.0,8.0,-3.0,0.0,4.0,-1.0,-3.0,0.0,1651024700053362.0,3
1835,4.0,6.0,4.0,1.0,-1.0,0.0,1.0,2.0,1651024700053362.0,3
1836,-5.0,-13.0,-3.0,-3.0,-6.0,-4.0,0.0,-2.0,1651024700062309.0,3
1837,-1.0,48.0,5.0,-1.0,0.0,1.0,1.0,1.0,1651024700062309.0,3
1838,0.0,-43.0,-3.0,4.0,2.0,0.0,0.0,-1.0,1651024700077334.0,3
1839,2.0,7.0,0.0,-1.0,0.0,-1.0,0.0,-1.0,1651024700077334.0,3
1840,2.0,6.0,-1.0,-2.0,0.0,-2.0,0.0,0.0,1651024700078278.0,3
1841,-3.0,-23.0,-6.0,-3.0,-5.0,-2.0,-2.0,-1.0,1651024700078278.0,3
1842,-2.0,29.0,2.0,-1.0,1.0,0.0,0.0,0.0,1651024700100448.0,3
1843,-8.0,-13.0,-4.0,-2.0,2.0,1.0,0.0,0.0,1651024700100448.0,3
1844,4.0,-1.0,3.0,5.0,4.0,0.0,-1.0,-1.0,1651024700101433.0,3
1845,-7.0,-26.0,-6.0,0.0,-6.0,-4.0,-3.0,-5.0,1651024700101433.0,3
1846,2.0,15.0,1.0,0.0,0.0,0.0,-1.0,-1.0,1651024700113410.0,3
1847,2.0,-5.0,-1.0,0.0,5.0,1.0,-1.0,0.0,1651024700113410.0,3
1848,0.0,11.0,0.0,0.0,-4.0,0.0,-1.0,0.0,1651024700122385.0,3
1849,5.0,-29.0,-6.0,-4.0,-5.0,-4.0,-2.0,-3.0,1651024700122385.0,3
1850,-1.0,5.0,2.0,0.0,5.0,4.0,0.0,-2.0,1651024700137386.0,3
1851,0.0,4.0,0.0,-2.0,1.0,-1.0,0.0,-1.0,1651024700137386.0,3
1852,6.0,16.0,-1.0,-2.0,-4.0,-2.0,0.0,0.0,1651024700138895.0,3
1853,1.0,12.0,-1.0,-2.0,-14.0,-2.0,1.0,2.0,1651024700138895.0,3
1854,3.0,7.0,0.0,-1.0,13.0,-1.0,0.0,-2.0,1651024700159881.0,3
1855,7.0,-23.0,0.0,6.0,6.0,4.0,2.0,1.0,1651024700159881.0,3
1856,-6.0,-3.0,-2.0,2.0,-3.0,0.0,0.0,-1.0,1651024700160810.0,3
1857,6.0,11.0,0.0,-2.0,-14.0,-5.0,0.0,0.0,1651024700160810.0,3
1858,-6.0,10.0,2.0,0.0,6.0,4.0,1.0,2.0,1651024700172968.0,3
1859,2.0,-1.0,1.0,-2.0,0.0,-3.0,-1.0,0.0,1651024700172968.0,3
1860,-6.0,-32.0,-4.0,0.0,0.0,0.0,0.0,1.0,1651024700182068.0,3
1861,1.0,13.0,2.0,2.0,3.0,3.0,0.0,-1.0,1651024700182068.0,3
1862,2.0,-21.0,-5.0,0.0,-6.0,-2.0,0.0,0.0,1651024700197068.0,3
1863,3.0,12.0,4.0,1.0,0.0,1.0,0.0,0.0,1651024700197068.0,3
1864,3.0,7.0,1.0,-1.0,0.0,0.0,-1.0,-1.0,1651024700199004.0,3
1865,-6.0,-13.0,-1.0,-1.0,4.0,0.0,-1.0,-2.0,1651024700199004.0,3
1866,1.0,-2.0,0.0,-2.0,-2.0,-2.0,-1.0,0.0,1651024700219495.0,3
1867,0.0,22.0,3.0,3.0,3.0,2.0,-1.0,0.0,1651024700219495.0,3
1868,-2.0,-9.0,-2.0,0.0,-4.0,-2.0,0.0,0.0,1651024700221490.0,3
1869,0.0,-37.0,-3.0,0.0,3.0,2.0,-1.0,3.0,1651024700221490.0,3
1870,4.0,17.0,3.0,3.0,-4.0,-1.0,0.0,0.0,1651024700233459.0,3
1871,-13.0,3.0,-8.0,-7.0,-7.0,-3.0,-3.0,-3.0,1651024700233459.0,3
1872,9.0,3.0,-3.0,-2.0,0.0,-1.0,-2.0,2.0,1651024700242434.0,3
1873,-4.0,-61.0,-10.0,-1.0,4.0,1.0,1.0,-2.0,1651024700242434.0,3
1874,-10.0,-9.0,1.0,1.0,-3.0,-3.0,0.0,-2.0,1651024700257384.0,3
1875,3.0,7.0,4.0,2.0,-1.0,-2.0,0.0,0.0,1651024700257384.0,3
1876,-2.0,22.0,-2.0,-5.0,-1.0,0.0,-2.0,-3.0,1651024700258367.0,3
1877,1.0,-1.0,-1.0,-1.0,2.0,0.0,1.0,0.0,1651024700258367.0,3
1878,-6.0,-1.0,-4.0,-2.0,-3.0,-2.0,-2.0,-1.0,1651024700279311.0,3
1879,-2.0,-15.0,-2.0,2.0,2.0,0.0,-2.0,0.0,1651024700279311.0,3
1880,-4.0,5.0,2.0,-4.0,0.0,0.0,-2.0,0.0,1651024700281330.0,3
1881,4.0,38.0,8.0,3.0,-1.0,1.0,-1.0,-1.0,1651024700281330.0,3
1882,1.0,-9.0,3.0,3.0,-9.0,-1.0,0.0,-2.0,1651024700293346.0,3
1883,5.0,30.0,3.0,-3.0,6.0,-1.0,0.0,0.0,1651024700293346.0,3
1884,-8.0,-20.0,0.0,2.0,14.0,3.0,0.0,-2.0,1651024700302350.0,3
1885,-8.0,7.0,-2.0,0.0,-4.0,-3.0,0.0,0.0,1651024700302350.0,3
1886,3.0,-7.0,1.0,1.0,0.0,-1.0,0.0,2.0,1651024700317373.0,3
1887,8.0,7.0,-2.0,-1.0,-10.0,-4.0,1.0,0.0,1651024700317373.0,3
1888,-6.0,-19.0,-3.0,-8.0,-4.0,-1.0,-1.0,-3.0,1651024700318310.0,3
1889,-3.0,-44.0,-4.0,2.0,8.0,3.0,1.0,1.0,1651024700318310.0,3
1890,8.0,11.0,4.0,1.0,-3.0,1.0,1.0,-1.0,1651024700339284.0,3
1891,-3.0,-7.0,0.0,1.0,-1.0,1.0,0.0,0.0,1651024700339284.0,3
1892,4.0,10.0,1.0,-1.0,-6.0,-4.0,-1.0,-1.0,1651024700341268.0,3
1893,0.0,1.0,-6.0,-7.0,-11.0,-3.0,-1.0,-1.0,1651024700341268.0,3
1894,2.0,7.0,-2.0,-3.0,11.0,4.0,0.0,1.0,1651024700361886.0,3
1895,1.0,14.0,4.0,3.0,3.0,1.0,0.0,1.0,1651024700361886.0,3
1896,12.0,-17.0,6.0,3.0,1.0,0.0,1.0,5.0,1651024700363882.0,3
1897,0.0,4.0,0.0,0.0,0.0,-1.0,0.0,1.0,1651024700363882.0,3
1898,3.0,19.0,0.0,-1.0,-6.0,-2.0,-2.0,0.0,1651024700376913.0,3
1899,-6.0,-19.0,-6.0,-3.0,2.0,-1.0,-1.0,-1.0,1651024700376913.0,3
1900,-2.0,-2.0,-3.0,-1.0,-7.0,-2.0,1.0,-1.0,1651024700378866.0,3
1901,0.0,1.0,0.0,-2.0,-1.0,-1.0,-1.0,0.0,1651024700378866.0,3
1902,-6.0,-41.0,-1.0,7.0,19.0,3.0,0.0,-2.0,1651024700399852.0,3
1903,5.0,63.0,9.0,-2.0,-6.0,0.0,-1.0,-1.0,1651024700399852.0,3
