,EMG_s0,EMG_s1,EMG_s2,EMG_s3,EMG_s4,EMG_s5,EMG_s6,EMG_s7,timestamp,signal
0,-1.0,6.0,1.0,0.0,0.0,-1.0,-1.0,-1.0,1651024549539883.0,0
1,-1.0,-9.0,-3.0,-1.0,0.0,-2.0,-1.0,0.0,1651024549539883.0,0
2,0.0,3.0,1.0,-1.0,-2.0,-1.0,-2.0,0.0,1651024549545009.0,0
3,-2.0,-3.0,-2.0,-1.0,-10.0,-1.0,-2.0,-2.0,1651024549545009.0,0
4,0.0,0.0,-1.0,2.0,15.0,0.0,-1.0,3.0,1651024549545869.0,0
5,-2.0,-2.0,0.0,3.0,-2.0,1.0,2.0,1.0,1651024549545869.0,0
6,1.0,7.0,2.0,4.0,6.0,4.0,2.0,2.0,1651024549547861.0,0
7,0.0,-2.0,1.0,-2.0,-4.0,3.0,2.0,1.0,1651024549547861.0,0
8,3.0,1.0,-1.0,-1.0,-2.0,0.0,1.0,-1.0,1651024549558858.0,0
9,6.0,16.0,5.0,1.0,0.0,0.0,-1.0,1.0,1651024549558858.0,0
10,-9.0,-39.0,-5.0,-5.0,-4.0,-4.0,0.0,-2.0,1651024549566811.0,0
11,0.0,2.0,0.0,0.0,2.0,1.0,1.0,-1.0,1651024549566811.0,0
12,1.0,-2.0,1.0,0.0,-6.0,1.0,1.0,-2.0,1651024549573795.0,0
13,-1.0,6.0,2.0,0.0,3.0,1.0,0.0,-2.0,1651024549573795.0,0
14,3.0,9.0,-1.0,0.0,-3.0,-1.0,1.0,1.0,1651024549588752.0,0
15,-4.0,-6.0,0.0,-2.0,2.0,-1.0,-1.0,1.0,1651024549588752.0,0
16,0.0,-4.0,0.0,0.0,-1.0,0.0,0.0,-1.0,1651024549596731.0,0
17,0.0,-4.0,-2.0,-1.0,1.0,0.0,-1.0,-1.0,1651024549596731.0,0
18,2.0,8.0,3.0,1.0,1.0,1.0,0.0,0.0,1651024549611688.0,0
19,2.0,9.0,1.0,1.0,3.0,-3.0,0.0,0.0,1651024549611688.0,0
20,0.0,3.0,-2.0,-2.0,-11.0,-2.0,-2.0,-1.0,1651024549618738.0,0
21,-1.0,-2.0,0.0,1.0,5.0,-2.0,1.0,-1.0,1651024549618738.0,0
22,4.0,9.0,-1.0,1.0,3.0,1.0,0.0,-1.0,1651024549633360.0,0
23,0.0,-6.0,3.0,1.0,-2.0,-1.0,0.0,1.0,1651024549633360.0,0
24,0.0,2.0,-1.0,-1.0,-4.0,-1.0,0.0,1.0,1651024549674253.0,0
25,1.0,-3.0,-1.0,1.0,3.0,-1.0,0.0,0.0,1651024549674253.0,0
26,0.0,-8.0,-2.0,0.0,-1.0,1.0,0.0,2.0,1651024549675386.0,0
27,2.0,21.0,3.0,-1.0,1.0,-1.0,-1.0,0.0,1651024549675386.0,0
28,0.0,-21.0,-2.0,-1.0,-1.0,-1.0,-1.0,0.0,1651024549675386.0,0
29,-1.0,-8.0,-2.0,-3.0,-4.0,-2.0,-1.0,-1.0,1651024549675386.0,0
30,0.0,3.0,0.0,1.0,1.0,1.0,-1.0,-1.0,1651024549679241.0,0
31,-2.0,-4.0,-1.0,1.0,-1.0,0.0,0.0,0.0,1651024549679241.0,0
32,2.0,11.0,2.0,0.0,1.0,0.0,1.0,0.0,1651024549685382.0,0
33,0.0,7.0,0.0,0.0,0.0,-1.0,0.0,0.0,1651024549685382.0,0
34,5.0,7.0,1.0,0.0,-1.0,-1.0,1.0,1.0,1651024549693229.0,0
35,-10.0,-18.0,-5.0,-2.0,-2.0,-1.0,-1.0,-3.0,1651024549693229.0,0
36,1.0,2.0,0.0,-1.0,0.0,0.0,-1.0,-1.0,1651024549702178.0,0
37,0.0,-3.0,-1.0,-1.0,-1.0,2.0,1.0,1.0,1651024549702178.0,0
38,0.0,6.0,0.0,-1.0,1.0,-1.0,-1.0,-2.0,1651024549715964.0,0
39,2.0,3.0,0.0,-2.0,0.0,0.0,-1.0,0.0,1651024549715964.0,0
40,-1.0,-2.0,-3.0,0.0,-1.0,1.0,-1.0,-1.0,1651024549731868.0,0
41,-1.0,5.0,1.0,-2.0,-5.0,-1.0,-1.0,0.0,1651024549731868.0,0
42,-3.0,-18.0,-4.0,-2.0,-2.0,-1.0,-1.0,-1.0,1651024549746855.0,0
43,2.0,-2.0,0.0,2.0,8.0,1.0,-1.0,0.0,1651024549746855.0,0
44,-3.0,-6.0,-1.0,0.0,-4.0,-1.0,-1.0,-1.0,1651024549748832.0,0
45,2.0,3.0,0.0,2.0,2.0,1.0,-1.0,0.0,1651024549748832.0,0
46,-1.0,5.0,-1.0,-3.0,-7.0,-3.0,1.0,-1.0,1651024549761788.0,0
47,0.0,-6.0,-2.0,-3.0,-7.0,-3.0,0.0,0.0,1651024549761788.0,0
48,-2.0,1.0,0.0,0.0,3.0,0.0,1.0,-1.0,1651024549767837.0,0
49,0.0,1.0,2.0,1.0,1.0,1.0,0.0,-1.0,1651024549767837.0,0
50,0.0,3.0,0.0,-1.0,0.0,-2.0,-2.0,-1.0,1651024549784924.0,0
51,1.0,-3.0,-3.0,-2.0,-3.0,0.0,0.0,-2.0,1651024549784924.0,0
52,-1.0,1.0,-2.0,-2.0,-1.0,-1.0,0.0,0.0,1651024549785924.0,0
53,-2.0,1.0,-5.0,-4.0,-2.0,-1.0,0.0,-2.0,1651024549785924.0,0
54,-1.0,-2.0,1.0,2.0,2.0,-1.0,1.0,0.0,1651024549806904.0,0
55,1.0,8.0,2.0,4.0,1.0,-1.0,0.0,-2.0,1651024549806904.0,0
56,-1.0,-7.0,-3.0,-2.0,-2.0,-1.0,0.0,-3.0,1651024549808922.0,0
57,0.0,0.0,0.0,1.0,1.0,0.0,0.0,-1.0,1651024549808922.0,0
58,0.0,0.0,-1.0,-3.0,-10.0,-1.0,0.0,-2.0,1651024549821871.0,0
59,-1.0,0.0,-2.0,-1.0,9.0,0.0,-1.0,1.0,1651024549821871.0,0
60,1.0,5.0,2.0,2.0,0.0,1.0,0.0,1.0,1651024549827847.0,0
61,2.0,12.0,2.0,2.0,-3.0,0.0,0.0,0.0,1651024549827847.0,0
62,-3.0,-12.0,-2.0,-1.0,-2.0,-2.0,-1.0,-2.0,1651024549845027.0,0
63,-1.0,-4.0,1.0,-1.0,-4.0,-1.0,-2.0,0.0,1651024549845027.0,0
64,-1.0,1.0,1.0,-1.0,2.0,-1.0,-1.0,0.0,1651024549845858.0,0
65,3.0,0.0,1.0,-1.0,2.0,-1.0,0.0,1.0,1651024549845858.0,0
66,0.0,3.0,0.0,0.0,-2.0,0.0,0.0,0.0,1651024549867386.0,0
67,-1.0,-3.0,0.0,-2.0,-5.0,-3.0,1.0,-1.0,1651024549867386.0,0
68,0.0,2.0,1.0,-1.0,3.0,1.0,-1.0,0.0,1651024549868870.0,0
69,-2.0,-4.0,0.0,2.0,-2.0,-1.0,1.0,-1.0,1651024549868870.0,0
70,1.0,3.0,0.0,-2.0,2.0,1.0,0.0,0.0,1651024549880905.0,0
71,-2.0,-2.0,-1.0,0.0,-1.0,0.0,-1.0,-1.0,1651024549880905.0,0
72,-2.0,-15.0,-5.0,1.0,-2.0,0.0,-3.0,-2.0,1651024549889814.0,0
73,-2.0,-6.0,-3.0,-2.0,-1.0,1.0,-2.0,-2.0,1651024549889814.0,0
74,-1.0,5.0,1.0,-4.0,-5.0,-1.0,-2.0,1.0,1651024549904899.0,0
75,0.0,1.0,-1.0,1.0,5.0,0.0,0.0,1.0,1651024549904899.0,0
76,0.0,5.0,3.0,0.0,3.0,0.0,-1.0,0.0,1651024549905899.0,0
77,4.0,-1.0,-2.0,-1.0,-4.0,0.0,1.0,-2.0,1651024549905899.0,0
78,-3.0,-9.0,-4.0,-1.0,5.0,1.0,0.0,0.0,1651024549926843.0,0
79,3.0,1.0,-1.0,-3.0,-10.0,0.0,0.0,2.0,1651024549926843.0,0
80,-1.0,3.0,0.0,-1.0,-3.0,-1.0,0.0,-1.0,1651024549928839.0,0
81,-5.0,-28.0,-3.0,-1.0,7.0,0.0,-1.0,-1.0,1651024549928839.0,0
82,1.0,4.0,1.0,1.0,-2.0,-3.0,-1.0,-1.0,1651024549941813.0,0
83,-2.0,0.0,-2.0,0.0,0.0,1.0,0.0,0.0,1651024549941813.0,0
84,1.0,2.0,-1.0,-1.0,-1.0,0.0,-1.0,0.0,1651024549947786.0,0
85,1.0,7.0,1.0,-4.0,-2.0,-1.0,0.0,0.0,1651024549947786.0,0
86,0.0,3.0,-2.0,1.0,1.0,0.0,0.0,-1.0,1651024549964926.0,0
87,-5.0,-17.0,-5.0,-1.0,0.0,-2.0,-1.0,-2.0,1651024549964926.0,0
88,0.0,4.0,1.0,-2.0,-2.0,-1.0,0.0,0.0,1651024549965900.0,0
89,2.0,6.0,0.0,2.0,-3.0,-1.0,-3.0,0.0,1651024549965900.0,0
90,-4.0,-6.0,1.0,1.0,1.0,0.0,-1.0,-1.0,1651024549986924.0,0
91,2.0,4.0,-1.0,-1.0,0.0,0.0,-1.0,0.0,1651024549986924.0,0
92,1.0,3.0,-2.0,0.0,-4.0,-2.0,0.0,-1.0,1651024549988919.0,0
93,-2.0,-6.0,1.0,-1.0,-3.0,-4.0,0.0,0.0,1651024549988919.0,0
94,2.0,3.0,0.0,-1.0,4.0,1.0,-1.0,1.0,1651024550000951.0,0
95,0.0,5.0,2.0,2.0,-2.0,-2.0,1.0,0.0,1651024550000951.0,0
96,-5.0,-21.0,-1.0,2.0,3.0,0.0,0.0,-2.0,1651024550009863.0,0
97,0.0,5.0,0.0,0.0,1.0,0.0,-1.0,0.0,1651024550009863.0,0
98,-1.0,3.0,-2.0,1.0,-2.0,-1.0,2.0,0.0,1651024550024912.0,0
99,-1.0,1.0,-1.0,-3.0,-6.0,-1.0,-1.0,-1.0,1651024550024912.0,0
100,2.0,5.0,0.0,-1.0,2.0,-3.0,-1.0,0.0,1651024550025931.0,0
101,-2.0,1.0,0.0,0.0,4.0,1.0,-1.0,0.0,1651024550025931.0,0
102,0.0,-6.0,-4.0,0.0,1.0,1.0,-1.0,0.0,1651024550047934.0,0
103,1.0,7.0,1.0,2.0,1.0,1.0,0.0,-1.0,1651024550047934.0,0
104,0.0,2.0,0.0,-2.0,-6.0,0.0,-2.0,-1.0,1651024550048934.0,0
105,-1.0,2.0,-2.0,-1.0,-2.0,-1.0,-1.0,0.0,1651024550048934.0,0
106,-1.0,-3.0,-2.0,-3.0,0.0,0.0,-1.0,1.0,1651024550060969.0,0
107,3.0,0.0,0.0,1.0,-2.0,1.0,0.0,0.0,1651024550060969.0,0
108,0.0,9.0,0.0,1.0,0.0,-2.0,0.0,0.0,1651024550069878.0,0
109,-1.0,1.0,-2.0,-4.0,-3.0,-1.0,0.0,0.0,1651024550069878.0,0
110,-2.0,-1.0,-2.0,-1.0,-1.0,-2.0,0.0,-1.0,1651024550085037.0,0
111,-1.0,1.0,-1.0,1.0,1.0,0.0,-1.0,-1.0,1651024550085037.0,0
112,1.0,16.0,2.0,0.0,1.0,1.0,1.0,0.0,1651024550086833.0,0
113,-1.0,-22.0,-4.0,-2.0,-1.0,0.0,-1.0,-1.0,1651024550086833.0,0
114,-2.0,1.0,3.0,1.0,-3.0,0.0,0.0,-2.0,1651024550106980.0,0
115,1.0,-1.0,0.0,-2.0,1.0,-1.0,1.0,0.0,1651024550106980.0,0
116,2.0,7.0,1.0,0.0,-1.0,-2.0,0.0,0.0,1651024550108905.0,0
117,-1.0,5.0,2.0,1.0,-1.0,0.0,0.0,1.0,1651024550108905.0,0
118,-2.0,-14.0,-5.0,-3.0,-9.0,-3.0,-2.0,0.0,1651024550120941.0,0
119,-1.0,3.0,-1.0,-1.0,6.0,0.0,-1.0,-1.0,1651024550120941.0,0
120,-2.0,-5.0,1.0,2.0,8.0,2.0,1.0,1.0,1651024550129849.0,0
121,1.0,7.0,1.0,1.0,-5.0,2.0,-1.0,0.0,1651024550129849.0,0
122,2.0,2.0,2.0,2.0,4.0,0.0,0.0,-2.0,1651024550144143.0,0
123,-2.0,-11.0,-2.0,-4.0,-10.0,-3.0,-1.0,-1.0,1651024550144143.0,0
124,1.0,1.0,-3.0,-4.0,-2.0,-2.0,0.0,-1.0,1651024550146075.0,0
125,0.0,7.0,-1.0,1.0,2.0,-2.0,-1.0,0.0,1651024550146075.0,0
126,-2.0,16.0,2.0,1.0,-1.0,1.0,-1.0,-2.0,1651024550167388.0,0
127,-2.0,-14.0,-3.0,-1.0,-1.0,0.0,0.0,-1.0,1651024550167388.0,0
128,-1.0,-3.0,-1.0,0.0,-2.0,-1.0,0.0,1.0,1651024550168869.0,0
129,1.0,0.0,0.0,-2.0,-2.0,-2.0,1.0,-2.0,1651024550168869.0,0
130,1.0,4.0,-1.0,0.0,0.0,0.0,-1.0,-1.0,1651024550180863.0,0
131,1.0,11.0,1.0,-1.0,0.0,0.0,0.0,-2.0,1651024550180863.0,0
132,-2.0,-8.0,-1.0,-1.0,0.0,1.0,-1.0,-1.0,1651024550189929.0,0
133,0.0,2.0,1.0,0.0,0.0,0.0,-1.0,0.0,1651024550189929.0,0
134,1.0,1.0,4.0,0.0,3.0,-1.0,-1.0,1.0,1651024550204871.0,0
135,-2.0,-8.0,-4.0,0.0,0.0,-1.0,0.0,0.0,1651024550204871.0,0
136,-2.0,-6.0,0.0,-2.0,-4.0,-2.0,0.0,-2.0,1651024550205878.0,0
137,-3.0,-3.0,0.0,0.0,0.0,0.0,0.0,-1.0,1651024550205878.0,0
138,3.0,15.0,2.0,-2.0,0.0,-2.0,1.0,-1.0,1651024550226882.0,0
139,-3.0,-5.0,-1.0,-1.0,0.0,-1.0,0.0,-1.0,1651024550226882.0,0
140,-1.0,-3.0,-2.0,-2.0,-4.0,1.0,-1.0,0.0,1651024550228810.0,0
141,1.0,7.0,2.0,-2.0,-3.0,-1.0,-1.0,0.0,1651024550228810.0,0
142,-1.0,-9.0,-1.0,0.0,13.0,2.0,-2.0,1.0,1651024550240804.0,0
143,-3.0,-8.0,-4.0,0.0,-7.0,-1.0,-1.0,1.0,1651024550240804.0,0
144,-1.0,2.0,-2.0,-2.0,-3.0,-2.0,0.0,-1.0,1651024550249754.0,0
145,-3.0,-3.0,-2.0,0.0,1.0,2.0,0.0,-1.0,1651024550249754.0,0
146,-1.0,-6.0,-2.0,0.0,-1.0,0.0,-1.0,-1.0,1651024550265001.0,0
147,2.0,8.0,3.0,0.0,1.0,1.0,0.0,0.0,1651024550265001.0,0
148,0.0,-7.0,-1.0,-1.0,-3.0,-2.0,0.0,0.0,1651024550265867.0,0
149,1.0,2.0,-1.0,-3.0,-3.0,-2.0,1.0,-1.0,1651024550265867.0,0
150,-2.0,-1.0,-5.0,-3.0,-3.0,-2.0,0.0,-1.0,1651024550287076.0,0
151,-1.0,-1.0,1.0,1.0,3.0,1.0,-1.0,-1.0,1651024550287076.0,0
152,3.0,6.0,1.0,3.0,-1.0,0.0,-1.0,1.0,1651024550289006.0,0
153,-4.0,-5.0,0.0,1.0,2.0,0.0,1.0,-2.0,1651024550289006.0,0
154,-1.0,-11.0,0.0,-1.0,-1.0,-2.0,0.0,-1.0,1651024550301014.0,0
155,2.0,4.0,-1.0,-3.0,-3.0,0.0,0.0,-2.0,1651024550301014.0,0
156,0.0,-2.0,-2.0,-2.0,1.0,1.0,0.0,-1.0,1651024550309962.0,0
157,-1.0,-5.0,-1.0,-1.0,0.0,0.0,-3.0,-1.0,1651024550309962.0,0
158,-1.0,1.0,1.0,0.0,-2.0,-1.0,1.0,0.0,1651024550324910.0,0
159,0.0,5.0,1.0,0.0,2.0,0.0,-1.0,-1.0,1651024550324910.0,0
160,0.0,4.0,-2.0,1.0,1.0,-2.0,0.0,-1.0,1651024550325926.0,0
161,-1.0,6.0,-1.0,-3.0,0.0,-1.0,-1.0,-1.0,1651024550325926.0,0
162,-2.0,2.0,0.0,-2.0,-3.0,-1.0,-1.0,-2.0,1651024550346984.0,0
163,-1.0,5.0,1.0,-1.0,-9.0,-2.0,-2.0,0.0,1651024550346984.0,0
164,-3.0,-9.0,0.0,1.0,14.0,1.0,0.0,1.0,1651024550348979.0,0
165,3.0,15.0,3.0,0.0,-5.0,0.0,0.0,0.0,1651024550348979.0,0
166,2.0,-5.0,-2.0,0.0,-3.0,-2.0,0.0,1.0,1651024550361015.0,0
167,0.0,5.0,5.0,1.0,2.0,-1.0,1.0,-1.0,1651024550361015.0,0
168,-7.0,-8.0,-4.0,-1.0,-6.0,-1.0,-2.0,-2.0,1651024550369924.0,0
169,0.0,-8.0,-2.0,1.0,2.0,1.0,-1.0,0.0,1651024550369924.0,0
170,2.0,1.0,0.0,-1.0,-1.0,2.0,0.0,0.0,1651024550384890.0,0
171,1.0,-2.0,-2.0,-1.0,-5.0,-4.0,1.0,2.0,1651024550384890.0,0
172,0.0,2.0,0.0,-4.0,0.0,1.0,0.0,0.0,1651024550385897.0,0
173,-2.0,-4.0,0.0,2.0,1.0,-1.0,1.0,0.0,1651024550385897.0,0
174,-2.0,-5.0,-2.0,-1.0,-2.0,-1.0,-2.0,-2.0,1651024550406984.0,0
175,1.0,0.0,0.0,0.0,3.0,0.0,-1.0,-2.0,1651024550406984.0,0
176,-1.0,-1.0,-1.0,1.0,-4.0,-1.0,-1.0,0.0,1651024550408978.0,0
177,-2.0,-1.0,-3.0,-2.0,0.0,-1.0,1.0,-1.0,1651024550408978.0,0
178,-1.0,-4.0,0.0,-1.0,0.0,-1.0,2.0,-1.0,1651024550429941.0,0
179,-4.0,-2.0,-1.0,1.0,2.0,2.0,-2.0,-1.0,1651024550429941.0,0
180,6.0,26.0,5.0,0.0,-1.0,-1.0,0.0,0.0,1651024550430931.0,0
181,-8.0,-45.0,-5.0,-1.0,-1.0,-1.0,-1.0,-3.0,1651024550430931.0,0
182,0.0,5.0,-2.0,1.0,-2.0,-1.0,-1.0,0.0,1651024550444894.0,0
183,0.0,-6.0,-4.0,-2.0,3.0,-1.0,1.0,-1.0,1651024550444894.0,0
184,1.0,3.0,0.0,-1.0,-2.0,-1.0,1.0,-1.0,1651024550445911.0,0
185,3.0,13.0,2.0,-1.0,0.0,-1.0,0.0,2.0,1651024550445911.0,0
186,-4.0,-11.0,-3.0,-2.0,-12.0,-1.0,-1.0,-2.0,1651024550466904.0,0
187,-4.0,-1.0,-2.0,2.0,17.0,0.0,-3.0,-1.0,1651024550466904.0,0
188,0.0,1.0,-1.0,-1.0,-5.0,1.0,0.0,-1.0,1651024550468858.0,0
189,0.0,2.0,1.0,-1.0,-3.0,-1.0,0.0,-1.0,1651024550468858.0,0
190,1.0,2.0,0.0,-2.0,-2.0,0.0,-1.0,0.0,1651024550489888.0,0
191,2.0,5.0,0.0,-1.0,-6.0,0.0,0.0,1.0,1651024550489888.0,0
192,-2.0,-13.0,-5.0,0.0,1.0,0.0,1.0,-1.0,1651024550490888.0,0
193,3.0,11.0,0.0,-2.0,0.0,-2.0,-2.0,0.0,1651024550490888.0,0
194,0.0,1.0,1.0,0.0,0.0,-1.0,-1.0,0.0,1651024550504927.0,0
195,0.0,4.0,-1.0,1.0,-3.0,0.0,-1.0,-1.0,1651024550504927.0,0
196,-6.0,-15.0,-1.0,-2.0,2.0,-3.0,-1.0,-1.0,1651024550505891.0,0
197,1.0,2.0,-1.0,-3.0,-5.0,-2.0,-2.0,0.0,1651024550505891.0,0
198,2.0,9.0,3.0,2.0,8.0,0.0,1.0,1.0,1651024550527417.0,0
199,2.0,0.0,1.0,2.0,0.0,0.0,1.0,-1.0,1651024550527417.0,0
200,-2.0,-8.0,-3.0,-4.0,0.0,1.0,-2.0,-1.0,1651024550528895.0,0
201,-1.0,-5.0,-4.0,-1.0,-1.0,-1.0,1.0,-2.0,1651024550528895.0,0
202,-2.0,0.0,0.0,1.0,0.0,0.0,-1.0,-1.0,1651024550549926.0,0
203,1.0,6.0,1.0,-2.0,-3.0,-2.0,0.0,0.0,1651024550549926.0,0
204,-3.0,-2.0,1.0,2.0,-2.0,-2.0,-2.0,-1.0,1651024550550928.0,0
205,0.0,4.0,3.0,2.0,2.0,2.0,0.0,1.0,1651024550550928.0,0
206,-1.0,-7.0,-5.0,-3.0,-2.0,0.0,0.0,0.0,1651024550564886.0,0
207,1.0,-3.0,-2.0,-1.0,-4.0,1.0,0.0,0.0,1651024550564886.0,0
208,-1.0,-1.0,-2.0,1.0,10.0,1.0,-2.0,-1.0,1651024550565890.0,0
209,-1.0,3.0,1.0,-1.0,-1.0,0.0,-1.0,-1.0,1651024550565890.0,0
210,0.0,3.0,1.0,0.0,1.0,-1.0,0.0,0.0,1651024550586969.0,0
211,-4.0,-8.0,0.0,-2.0,-6.0,0.0,0.0,-1.0,1651024550586969.0,0
212,4.0,20.0,5.0,0.0,-2.0,-1.0,1.0,1.0,1651024550588909.0,0
213,-2.0,-5.0,-3.0,-2.0,0.0,-1.0,-1.0,-2.0,1651024550588909.0,0
214,-3.0,-16.0,-2.0,0.0,-1.0,-2.0,-1.0,-2.0,1651024550609875.0,0
215,-3.0,-5.0,-2.0,2.0,2.0,0.0,0.0,-1.0,1651024550609875.0,0
216,2.0,-2.0,0.0,2.0,0.0,-1.0,1.0,1.0,1651024550610838.0,0
217,-2.0,4.0,1.0,0.0,0.0,-1.0,0.0,0.0,1651024550610838.0,0
218,4.0,21.0,3.0,-4.0,-2.0,-1.0,-1.0,-1.0,1651024550623804.0,0
219,-4.0,-31.0,-4.0,-3.0,-4.0,-4.0,-3.0,-1.0,1651024550623804.0,0
220,1.0,-2.0,0.0,0.0,3.0,1.0,0.0,-1.0,1651024550630809.0,0
221,2.0,3.0,1.0,2.0,-2.0,0.0,1.0,1.0,1651024550630809.0,0
222,0.0,-1.0,-2.0,-2.0,-9.0,-1.0,0.0,0.0,1651024550645934.0,0
223,0.0,10.0,1.0,3.0,18.0,2.0,-1.0,-1.0,1651024550645934.0,0
224,4.0,4.0,2.0,-1.0,-9.0,-2.0,0.0,1.0,1651024550654723.0,0
225,-5.0,-13.0,-3.0,-1.0,2.0,-2.0,0.0,-1.0,1651024550654723.0,0
226,0.0,-3.0,1.0,0.0,0.0,0.0,-2.0,0.0,1651024550669748.0,0
227,-2.0,3.0,0.0,-1.0,-6.0,-2.0,1.0,0.0,1651024550669748.0,0
228,0.0,1.0,2.0,0.0,-1.0,0.0,-1.0,-1.0,1651024550670722.0,0
229,0.0,9.0,-2.0,0.0,2.0,0.0,-1.0,1.0,1651024550670722.0,0
230,-1.0,-7.0,0.0,0.0,0.0,-2.0,-1.0,-1.0,1651024550691808.0,0
231,-1.0,5.0,-2.0,-4.0,-2.0,1.0,0.0,0.0,1651024550691808.0,0
232,0.0,-4.0,0.0,1.0,-3.0,-2.0,1.0,-1.0,1651024550693765.0,0
233,5.0,28.0,5.0,4.0,-1.0,2.0,1.0,0.0,1651024550693765.0,0
234,-4.0,-19.0,-3.0,2.0,2.0,0.0,1.0,-1.0,1651024550705973.0,0
235,0.0,0.0,-3.0,-3.0,-1.0,0.0,-1.0,-1.0,1651024550705973.0,0
236,-1.0,-5.0,-3.0,-4.0,-1.0,-1.0,-1.0,-1.0,1651024550720932.0,0
237,-2.0,-4.0,-1.0,1.0,-1.0,0.0,0.0,0.0,1651024550720932.0,0
238,-1.0,8.0,1.0,0.0,3.0,0.0,-1.0,1.0,1651024550729842.0,0
239,2.0,3.0,-1.0,-3.0,-3.0,0.0,-1.0,0.0,1651024550729842.0,0
240,1.0,-1.0,-2.0,-11.0,-13.0,-4.0,0.0,0.0,1651024550730838.0,0
241,-2.0,-10.0,-5.0,3.0,16.0,-1.0,-2.0,-2.0,1651024550730838.0,0
242,2.0,10.0,10.0,18.0,7.0,3.0,1.0,0.0,1651024550751810.0,0
243,-2.0,-10.0,-3.0,0.0,-3.0,-2.0,1.0,-2.0,1651024550751810.0,0
244,-1.0,4.0,2.0,6.0,2.0,1.0,-1.0,-3.0,1651024550753807.0,0
245,1.0,-5.0,-4.0,-6.0,-8.0,-3.0,1.0,0.0,1651024550753807.0,0
246,-3.0,3.0,-4.0,-8.0,-1.0,-1.0,-1.0,0.0,1651024550765978.0,0
247,0.0,7.0,-3.0,-5.0,-5.0,-3.0,-3.0,-1.0,1651024550765978.0,0
248,-3.0,-2.0,1.0,3.0,-2.0,-1.0,-2.0,-1.0,1651024550774733.0,0
249,-4.0,-10.0,1.0,6.0,-1.0,0.0,-1.0,-2.0,1651024550774733.0,0
250,3.0,17.0,1.0,0.0,5.0,1.0,2.0,2.0,1651024550789747.0,0
251,4.0,5.0,7.0,2.0,1.0,0.0,3.0,2.0,1651024550789747.0,0
252,-1.0,5.0,-7.0,-9.0,-10.0,-2.0,1.0,-1.0,1651024550790681.0,0
253,-4.0,-19.0,-5.0,-2.0,15.0,2.0,-2.0,0.0,1651024550790681.0,0
254,0.0,5.0,0.0,-1.0,-5.0,0.0,-1.0,0.0,1651024550811963.0,0
255,0.0,1.0,2.0,-1.0,-7.0,-1.0,-1.0,0.0,1651024550811963.0,0
256,-1.0,0.0,-3.0,-3.0,-1.0,-3.0,-1.0,-1.0,1651024550813915.0,0
257,1.0,5.0,-4.0,-9.0,-9.0,1.0,-1.0,-2.0,1651024550813915.0,0
258,2.0,3.0,5.0,18.0,9.0,3.0,1.0,-1.0,1651024550825921.0,0
259,-2.0,-11.0,-7.0,-5.0,0.0,0.0,0.0,-1.0,1651024550825921.0,0
260,-2.0,-3.0,2.0,-6.0,3.0,0.0,1.0,1.0,1651024550840822.0,0
261,0.0,-1.0,-4.0,0.0,-3.0,-3.0,-1.0,0.0,1651024550840822.0,0
262,0.0,-1.0,7.0,-11.0,0.0,-2.0,-2.0,1.0,1651024550849860.0,0
263,-2.0,-6.0,-7.0,11.0,0.0,1.0,-1.0,-1.0,1651024550849860.0,0
264,0.0,0.0,7.0,7.0,2.0,-2.0,-3.0,-3.0,1651024550850796.0,0
265,2.0,2.0,-2.0,1.0,-7.0,-2.0,1.0,1.0,1651024550850796.0,0
266,2.0,2.0,14.0,-26.0,-22.0,-5.0,2.0,0.0,1651024550872461.0,0
267,-4.0,-1.0,-8.0,1.0,20.0,1.0,0.0,-1.0,1651024550872461.0,0
268,1.0,-3.0,-30.0,-3.0,-1.0,3.0,1.0,1.0,1651024550873463.0,0
269,3.0,-2.0,-21.0,2.0,-2.0,0.0,-2.0,0.0,1651024550873463.0,0
270,-6.0,-4.0,43.0,19.0,0.0,-4.0,0.0,-3.0,1651024550894408.0,0
271,5.0,30.0,68.0,14.0,-2.0,0.0,1.0,0.0,1651024550894408.0,0
272,0.0,5.0,-34.0,4.0,5.0,2.0,1.0,2.0,1651024550896334.0,1
273,-15.0,-42.0,-52.0,-61.0,-23.0,-12.0,-8.0,-6.0,1651024550896334.0,1
274,1.0,-1.0,-19.0,-17.0,-9.0,-1.0,3.0,0.0,1651024550909312.0,1
275,-1.0,-4.0,15.0,49.0,17.0,2.0,-5.0,-3.0,1651024550909312.0,1
276,11.0,22.0,51.0,9.0,14.0,7.0,16.0,11.0,1651024550915508.0,1
277,-1.0,-6.0,-23.0,31.0,-4.0,-23.0,-2.0,-1.0,1651024550915508.0,1
278,0.0,8.0,12.0,-51.0,-4.0,40.0,8.0,-2.0,1651024550931957.0,1
279,1.0,6.0,11.0,24.0,16.0,8.0,-4.0,0.0,1651024550931957.0,1
280,-11.0,-30.0,-8.0,48.0,22.0,5.0,14.0,0.0,1651024550933925.0,1
281,0.0,-1.0,-6.0,-9.0,-5.0,5.0,-4.0,-2.0,1651024550933925.0,1
282,-10.0,-26.0,-45.0,-26.0,-23.0,-35.0,-7.0,-6.0,1651024550954984.0,1
283,7.0,22.0,-12.0,-35.0,-40.0,-41.0,-11.0,-7.0,1651024550954984.0,1
284,-7.0,-15.0,-7.0,-78.0,-9.0,29.0,6.0,0.0,1651024550955978.0,1
285,-1.0,17.0,17.0,-9.0,-5.0,12.0,-17.0,-3.0,1651024550955978.0,1
286,11.0,26.0,65.0,59.0,46.0,51.0,18.0,15.0,1651024550969011.0,1
287,-6.0,-27.0,-40.0,-14.0,3.0,9.0,-5.0,-4.0,1651024550969011.0,1
288,-4.0,5.0,12.0,18.0,4.0,-11.0,-6.0,-5.0,1651024550975926.0,1
289,13.0,0.0,-21.0,-3.0,-2.0,9.0,19.0,7.0,1651024550975926.0,1
290,-2.0,10.0,12.0,43.0,24.0,-50.0,-24.0,-3.0,1651024550991888.0,1
291,-6.0,-4.0,-1.0,-20.0,-16.0,16.0,17.0,-2.0,1651024550991888.0,1
292,-3.0,-19.0,-28.0,-11.0,-6.0,32.0,0.0,3.0,1651024550997873.0,1
293,-2.0,22.0,23.0,-48.0,0.0,45.0,16.0,3.0,1651024550997873.0,1
294,-5.0,-26.0,-71.0,4.0,-5.0,-28.0,-16.0,-7.0,1651024551014869.0,1
295,-21.0,-20.0,17.0,45.0,36.0,4.0,-8.0,-9.0,1651024551014869.0,1
296,-11.0,11.0,12.0,19.0,5.0,-15.0,-25.0,-16.0,1651024551015860.0,1
297,19.0,15.0,39.0,6.0,-7.0,-31.0,-3.0,9.0,1651024551015860.0,1
298,5.0,15.0,-6.0,-3.0,-16.0,21.0,8.0,-3.0,1651024551029001.0,1
299,-1.0,2.0,-7.0,-89.0,-51.0,-21.0,-20.0,-7.0,1651024551029001.0,1
300,-10.0,-48.0,-54.0,3.0,10.0,-15.0,-24.0,-15.0,1651024551035983.0,1
301,6.0,8.0,49.0,93.0,31.0,-35.0,-10.0,8.0,1651024551035983.0,1
302,-12.0,-14.0,26.0,7.0,9.0,-1.0,-8.0,-4.0,1651024551051957.0,1
303,23.0,17.0,21.0,4.0,11.0,79.0,63.0,29.0,1651024551051957.0,1
304,13.0,28.0,-12.0,-36.0,-19.0,32.0,14.0,5.0,1651024551053981.0,1
305,-21.0,-38.0,-34.0,12.0,-2.0,-18.0,-35.0,-27.0,1651024551053981.0,1
306,16.0,30.0,52.0,6.0,5.0,-18.0,-42.0,-11.0,1651024551074301.0,1
307,-21.0,-49.0,-59.0,-27.0,-8.0,-46.0,34.0,24.0,1651024551074301.0,1
308,8.0,-6.0,-11.0,8.0,3.0,7.0,16.0,6.0,1651024551076297.0,1
309,-11.0,-11.0,-9.0,-19.0,-10.0,0.0,-7.0,-14.0,1651024551076297.0,1
310,0.0,-8.0,-36.0,39.0,7.0,17.0,17.0,14.0,1651024551089018.0,1
311,5.0,38.0,75.0,-25.0,-21.0,-16.0,-36.0,-18.0,1651024551089018.0,1
312,-7.0,-8.0,7.0,26.0,9.0,-26.0,-25.0,-13.0,1651024551095933.0,1
313,9.0,15.0,24.0,11.0,6.0,17.0,23.0,15.0,1651024551095933.0,1
314,-13.0,-41.0,-72.0,-72.0,-21.0,0.0,-7.0,-13.0,1651024551111942.0,1
315,11.0,10.0,8.0,72.0,17.0,-4.0,-22.0,-3.0,1651024551111942.0,1
316,-20.0,-22.0,4.0,-36.0,-29.0,-32.0,4.0,3.0,1651024551113909.0,1
317,0.0,26.0,18.0,11.0,15.0,1.0,-14.0,-8.0,1651024551113909.0,1
318,0.0,-8.0,-15.0,-1.0,-1.0,-10.0,13.0,8.0,1651024551134982.0,1
319,4.0,4.0,-28.0,3.0,13.0,80.0,25.0,8.0,1651024551134982.0,1
320,6.0,18.0,12.0,7.0,5.0,-4.0,-4.0,-5.0,1651024551135811.0,1
321,7.0,10.0,17.0,-16.0,-15.0,-7.0,3.0,8.0,1651024551135811.0,1
322,-7.0,2.0,-21.0,-34.0,-12.0,-4.0,12.0,-5.0,1651024551148840.0,1
323,11.0,0.0,8.0,53.0,18.0,-23.0,-42.0,-8.0,1651024551148840.0,1
324,16.0,-14.0,-17.0,-12.0,-12.0,-3.0,16.0,9.0,1651024551155994.0,1
325,-11.0,-4.0,-23.0,-33.0,-18.0,-27.0,-16.0,-9.0,1651024551155994.0,1
326,3.0,21.0,62.0,19.0,-8.0,5.0,9.0,4.0,1651024551171715.0,1
327,-7.0,-10.0,-11.0,9.0,2.0,-5.0,-3.0,-8.0,1651024551171715.0,1
328,15.0,30.0,42.0,14.0,11.0,8.0,-14.0,5.0,1651024551173709.0,1
329,0.0,-16.0,-37.0,2.0,12.0,10.0,50.0,23.0,1651024551173709.0,1
330,0.0,4.0,1.0,-3.0,-1.0,-4.0,-12.0,-9.0,1651024551194918.0,1
331,4.0,-9.0,-32.0,-18.0,-11.0,-27.0,29.0,21.0,1651024551194918.0,1
332,-7.0,-3.0,-1.0,-8.0,0.0,25.0,-13.0,-10.0,1651024551195917.0,1
333,0.0,-1.0,9.0,-11.0,-6.0,-4.0,-29.0,-18.0,1651024551195917.0,1
334,8.0,15.0,23.0,32.0,18.0,11.0,25.0,23.0,1651024551207880.0,1
335,5.0,14.0,4.0,-5.0,2.0,-35.0,-25.0,-6.0,1651024551207880.0,1
336,-4.0,-2.0,-2.0,-12.0,-4.0,71.0,17.0,-2.0,1651024551216858.0,1
337,10.0,-15.0,-14.0,-14.0,-5.0,24.0,41.0,14.0,1651024551216858.0,1
338,3.0,-1.0,-5.0,23.0,10.0,-12.0,1.0,2.0,1651024551231898.0,1
339,-8.0,-5.0,7.0,-10.0,1.0,-31.0,-29.0,-12.0,1651024551231898.0,1
340,12.0,12.0,9.0,-1.0,-3.0,-23.0,32.0,19.0,1651024551233824.0,1
341,1.0,2.0,12.0,5.0,-4.0,2.0,6.0,1.0,1651024551233824.0,1
342,6.0,9.0,15.0,32.0,20.0,13.0,1.0,1.0,1651024551254767.0,1
343,9.0,-6.0,-34.0,-35.0,-6.0,4.0,16.0,3.0,1651024551254767.0,1
344,-21.0,16.0,41.0,53.0,3.0,-10.0,12.0,2.0,1651024551255773.0,1
345,-4.0,12.0,-4.0,1.0,0.0,1.0,-25.0,-8.0,1651024551255773.0,1
346,-29.0,-32.0,-17.0,-20.0,-18.0,-22.0,23.0,2.0,1651024551267735.0,1
347,-7.0,-3.0,-14.0,-14.0,-10.0,-12.0,-25.0,-8.0,1651024551267735.0,1
348,-1.0,9.0,13.0,-15.0,-6.0,1.0,-15.0,-8.0,1651024551276773.0,1
349,-2.0,3.0,-4.0,13.0,18.0,20.0,-19.0,-15.0,1651024551276773.0,1
350,14.0,24.0,10.0,-12.0,-6.0,20.0,14.0,15.0,1651024551291669.0,1
351,-13.0,-37.0,-31.0,-9.0,-6.0,-4.0,-23.0,-20.0,1651024551291669.0,1
352,8.0,7.0,45.0,23.0,12.0,-22.0,22.0,22.0,1651024551293664.0,1
353,-4.0,-9.0,2.0,4.0,-7.0,-13.0,-13.0,-4.0,1651024551293664.0,1
354,1.0,-15.0,-51.0,-64.0,-22.0,12.0,-2.0,-10.0,1651024551314105.0,1
355,-2.0,16.0,60.0,73.0,19.0,6.0,1.0,-1.0,1651024551314105.0,1
356,5.0,1.0,-23.0,25.0,19.0,-12.0,-21.0,-6.0,1651024551316098.0,1
357,-3.0,1.0,-1.0,3.0,-4.0,15.0,25.0,5.0,1651024551316098.0,1
358,7.0,21.0,8.0,-14.0,2.0,-7.0,-10.0,4.0,1651024551328904.0,1
359,-3.0,-12.0,-15.0,-1.0,-3.0,5.0,0.0,-4.0,1651024551328904.0,1
360,-6.0,-1.0,4.0,-15.0,-9.0,-13.0,-9.0,-3.0,1651024551335886.0,1
361,14.0,4.0,15.0,36.0,7.0,-6.0,11.0,16.0,1651024551335886.0,1
362,-10.0,-23.0,-26.0,-17.0,-8.0,-3.0,-15.0,-16.0,1651024551351843.0,1
363,6.0,12.0,6.0,-9.0,-3.0,-51.0,-2.0,2.0,1651024551351843.0,1
364,4.0,13.0,11.0,0.0,12.0,83.0,-3.0,-9.0,1651024551353798.0,1
365,-10.0,-26.0,-25.0,-23.0,-7.0,-26.0,-4.0,-3.0,1651024551353798.0,1
366,5.0,-8.0,-17.0,-11.0,-8.0,26.0,17.0,10.0,1651024551374743.0,1
367,-3.0,15.0,28.0,17.0,5.0,2.0,7.0,2.0,1651024551374743.0,1
368,-7.0,-27.0,-55.0,-25.0,-16.0,-52.0,-26.0,-8.0,1651024551375834.0,1
369,-2.0,18.0,8.0,-41.0,-24.0,-1.0,-5.0,-5.0,1651024551375834.0,1
370,-12.0,-36.0,-17.0,12.0,5.0,-14.0,-17.0,-10.0,1651024551388745.0,1
371,3.0,9.0,23.0,18.0,14.0,25.0,6.0,5.0,1651024551388745.0,1
372,8.0,5.0,-32.0,-3.0,4.0,-10.0,10.0,3.0,1651024551395852.0,1
373,1.0,33.0,96.0,35.0,18.0,17.0,13.0,9.0,1651024551395852.0,1
374,-5.0,-28.0,-74.0,-22.0,-15.0,-24.0,-24.0,-15.0,1651024551411827.0,1
375,-3.0,5.0,14.0,-32.0,-14.0,9.0,-35.0,-18.0,1651024551411827.0,1
376,4.0,-15.0,-31.0,-1.0,-8.0,-11.0,24.0,19.0,1651024551413825.0,1
377,3.0,16.0,8.0,3.0,-3.0,-11.0,-19.0,-10.0,1651024551413825.0,1
378,2.0,6.0,22.0,10.0,-12.0,-57.0,30.0,17.0,1651024551434916.0,1
379,-3.0,-4.0,-19.0,-11.0,9.0,85.0,20.0,-1.0,1651024551434916.0,1
380,1.0,-2.0,4.0,6.0,-2.0,3.0,-47.0,-21.0,1651024551436940.0,1
381,-2.0,-5.0,-19.0,-7.0,6.0,-15.0,24.0,12.0,1651024551436940.0,1
382,-3.0,7.0,32.0,10.0,2.0,26.0,-15.0,-8.0,1651024551447956.0,1
383,-12.0,-28.0,-32.0,-39.0,-22.0,-29.0,23.0,5.0,1651024551447956.0,1
384,1.0,7.0,20.0,13.0,-2.0,-23.0,-2.0,2.0,1651024551456860.0,1
385,-2.0,10.0,16.0,-8.0,-14.0,7.0,-19.0,-14.0,1651024551456860.0,1
386,-13.0,-31.0,-6.0,53.0,40.0,-2.0,-10.0,-6.0,1651024551471867.0,1
387,5.0,6.0,-17.0,-33.0,-8.0,-5.0,24.0,15.0,1651024551471867.0,1
388,-2.0,2.0,-1.0,14.0,2.0,-3.0,-9.0,-10.0,1651024551473892.0,1
389,0.0,-1.0,5.0,14.0,7.0,0.0,-22.0,-4.0,1651024551473892.0,1
390,-1.0,4.0,11.0,-2.0,-4.0,4.0,1.0,-2.0,1651024551494815.0,1
391,3.0,1.0,-8.0,-13.0,-2.0,10.0,14.0,10.0,1651024551494815.0,1
392,3.0,8.0,15.0,1.0,-1.0,-11.0,6.0,4.0,1651024551495804.0,1
393,-9.0,-15.0,-22.0,-3.0,-3.0,-10.0,-42.0,-21.0,1651024551495804.0,1
394,16.0,29.0,10.0,-10.0,-10.0,6.0,52.0,26.0,1651024551507863.0,1
395,0.0,-3.0,0.0,4.0,-7.0,5.0,-21.0,-7.0,1651024551507863.0,1
396,-2.0,1.0,-21.0,-20.0,3.0,5.0,30.0,11.0,1651024551516853.0,1
397,-4.0,-12.0,19.0,3.0,6.0,6.0,4.0,0.0,1651024551516853.0,1
398,-7.0,-2.0,5.0,4.0,-4.0,4.0,-16.0,-15.0,1651024551531846.0,1
399,-1.0,4.0,6.0,2.0,-6.0,-23.0,-29.0,-13.0,1651024551531846.0,1
400,8.0,2.0,-10.0,18.0,-2.0,-12.0,17.0,16.0,1651024551533867.0,1
401,-1.0,-3.0,-14.0,-32.0,-9.0,5.0,-11.0,-8.0,1651024551533867.0,1
402,5.0,12.0,-14.0,-34.0,9.0,1.0,2.0,6.0,1651024551554828.0,1
403,-1.0,-5.0,21.0,75.0,23.0,3.0,20.0,10.0,1651024551554828.0,1
404,-9.0,-9.0,15.0,-37.0,-21.0,-7.0,-1.0,-9.0,1651024551555782.0,1
405,-2.0,-8.0,-31.0,22.0,8.0,3.0,7.0,0.0,1651024551555782.0,1
406,2.0,-7.0,-14.0,-8.0,-10.0,-10.0,-32.0,-14.0,1651024551567813.0,1
407,3.0,12.0,10.0,-13.0,0.0,6.0,23.0,8.0,1651024551567813.0,1
408,-12.0,-13.0,10.0,-2.0,-10.0,-13.0,-13.0,-10.0,1651024551576752.0,1
409,0.0,-6.0,-21.0,-1.0,3.0,3.0,11.0,3.0,1651024551576752.0,1
410,5.0,23.0,18.0,12.0,0.0,-9.0,-16.0,-8.0,1651024551591939.0,1
411,-4.0,-17.0,-18.0,-9.0,-1.0,-16.0,1.0,0.0,1651024551591939.0,1
412,-1.0,3.0,-1.0,5.0,3.0,-2.0,-9.0,-2.0,1651024551593930.0,1
413,5.0,5.0,-4.0,-4.0,0.0,44.0,30.0,10.0,1651024551593930.0,1
414,-3.0,-5.0,-5.0,-14.0,-2.0,12.0,3.0,-3.0,1651024551614873.0,1
415,1.0,5.0,9.0,8.0,-3.0,-11.0,-3.0,0.0,1651024551614873.0,1
416,-5.0,-3.0,-5.0,-19.0,-20.0,-40.0,-27.0,-12.0,1651024551615879.0,1
417,4.0,10.0,14.0,4.0,6.0,12.0,18.0,10.0,1651024551615879.0,1
418,3.0,-1.0,12.0,19.0,11.0,8.0,1.0,1.0,1651024551627840.0,1
419,4.0,15.0,-31.0,-43.0,-14.0,-15.0,-28.0,-13.0,1651024551627840.0,1
420,-3.0,-1.0,50.0,61.0,18.0,0.0,2.0,-1.0,1651024551636845.0,1
421,-3.0,-5.0,1.0,-6.0,-8.0,-6.0,-1.0,3.0,1651024551636845.0,1
422,-1.0,7.0,-3.0,-12.0,-2.0,6.0,-4.0,-4.0,1651024551651802.0,1
423,-4.0,11.0,28.0,34.0,15.0,7.0,20.0,3.0,1651024551651802.0,1
424,-2.0,-23.0,-27.0,-23.0,-2.0,17.0,23.0,9.0,1651024551653797.0,1
425,2.0,1.0,23.0,-7.0,1.0,-7.0,-3.0,-2.0,1651024551653797.0,1
426,-8.0,-29.0,-50.0,7.0,-4.0,-2.0,-1.0,-5.0,1651024551674811.0,1
427,-5.0,-2.0,11.0,4.0,-2.0,-1.0,-16.0,-11.0,1651024551674811.0,1
428,10.0,17.0,3.0,-8.0,2.0,2.0,1.0,5.0,1651024551675741.0,1
429,-10.0,3.0,32.0,18.0,5.0,-6.0,-14.0,-9.0,1651024551675741.0,1
430,5.0,4.0,1.0,-23.0,-4.0,28.0,71.0,31.0,1651024551687774.0,1
431,-7.0,-18.0,-23.0,-10.0,-2.0,0.0,-10.0,-5.0,1651024551687774.0,1
432,-7.0,-13.0,-25.0,-9.0,-2.0,4.0,25.0,1.0,1651024551696735.0,1
433,4.0,1.0,-19.0,-11.0,-10.0,-24.0,-27.0,-5.0,1651024551696735.0,1
434,-4.0,1.0,25.0,22.0,6.0,-25.0,-37.0,-10.0,1651024551711645.0,1
435,1.0,7.0,0.0,-14.0,6.0,58.0,31.0,9.0,1651024551711645.0,1
436,4.0,17.0,43.0,42.0,13.0,-3.0,15.0,6.0,1651024551713640.0,1
437,-13.0,-40.0,-90.0,-21.0,-8.0,-19.0,-15.0,-16.0,1651024551713640.0,1
438,1.0,9.0,26.0,-43.0,-27.0,-9.0,-4.0,-1.0,1651024551734643.0,1
439,3.0,-4.0,16.0,52.0,17.0,-14.0,3.0,6.0,1651024551734643.0,1
440,3.0,4.0,-15.0,-29.0,-8.0,-2.0,-18.0,-4.0,1651024551735702.0,1
441,6.0,23.0,49.0,29.0,11.0,3.0,-1.0,1.0,1651024551735702.0,1
442,-4.0,-7.0,-16.0,-3.0,-9.0,-7.0,-20.0,-11.0,1651024551748555.0,1
443,8.0,-13.0,-37.0,-51.0,-18.0,0.0,43.0,23.0,1651024551748555.0,1
444,8.0,36.0,32.0,-2.0,13.0,16.0,-12.0,0.0,1651024551756553.0,1
445,-15.0,-29.0,-18.0,6.0,4.0,-16.0,-37.0,-29.0,1651024551756553.0,1
446,18.0,8.0,8.0,4.0,-1.0,6.0,42.0,35.0,1651024551771529.0,1
447,3.0,21.0,23.0,22.0,1.0,-2.0,-13.0,-8.0,1651024551771529.0,1
448,0.0,-10.0,-10.0,0.0,0.0,30.0,22.0,11.0,1651024551773491.0,1
449,5.0,0.0,-3.0,2.0,7.0,4.0,-5.0,2.0,1651024551773491.0,1
450,-9.0,1.0,3.0,-4.0,-10.0,-11.0,-34.0,-22.0,1651024551794053.0,1
451,2.0,7.0,5.0,-3.0,5.0,1.0,-5.0,-2.0,1651024551794053.0,1
452,-4.0,-5.0,-22.0,-10.0,-7.0,-17.0,-11.0,-9.0,1651024551796047.0,1
453,-1.0,-1.0,0.0,-26.0,-16.0,1.0,18.0,5.0,1651024551796047.0,1
454,5.0,22.0,48.0,25.0,16.0,17.0,7.0,2.0,1651024551807911.0,1
455,-8.0,-29.0,-60.0,7.0,0.0,-12.0,-5.0,0.0,1651024551807911.0,1
456,-5.0,11.0,25.0,-15.0,-14.0,-9.0,-17.0,-13.0,1651024551816714.0,1
457,-8.0,-3.0,-9.0,6.0,2.0,-3.0,-13.0,-11.0,1651024551816714.0,1
458,1.0,-3.0,7.0,5.0,-8.0,-9.0,4.0,9.0,1651024551832675.0,1
459,1.0,-2.0,6.0,-10.0,5.0,3.0,-2.0,0.0,1651024551832675.0,1
460,-6.0,-20.0,-37.0,-13.0,-6.0,-18.0,-34.0,-16.0,1651024551833674.0,1
461,-1.0,-3.0,0.0,-3.0,-5.0,-1.0,41.0,16.0,1651024551833674.0,1
462,0.0,1.0,-9.0,-6.0,8.0,31.0,11.0,1.0,1651024551854642.0,1
463,-1.0,-5.0,-2.0,-5.0,-4.0,7.0,-7.0,-5.0,1651024551854642.0,1
464,-4.0,-7.0,-6.0,-6.0,-8.0,-20.0,-30.0,-10.0,1651024551855644.0,1
465,10.0,19.0,21.0,12.0,17.0,20.0,25.0,19.0,1651024551855644.0,1
466,-6.0,-14.0,-15.0,0.0,-5.0,-10.0,-8.0,-12.0,1651024551876863.0,1
467,4.0,-5.0,1.0,-10.0,-3.0,-6.0,-3.0,5.0,1651024551876863.0,1
468,3.0,8.0,4.0,-5.0,-8.0,9.0,27.0,12.0,1651024551878858.0,1
469,7.0,7.0,9.0,13.0,10.0,-8.0,-13.0,1.0,1651024551878858.0,1
470,-2.0,-3.0,-6.0,21.0,18.0,0.0,-4.0,-1.0,1651024551891861.0,1
471,-5.0,-1.0,16.0,13.0,0.0,-5.0,-36.0,-15.0,1651024551891861.0,1
472,-4.0,-13.0,2.0,-14.0,-10.0,-10.0,4.0,3.0,1651024551893818.0,1
473,0.0,2.0,-7.0,-18.0,-11.0,4.0,11.0,5.0,1651024551893818.0,1
474,2.0,11.0,15.0,-18.0,-1.0,4.0,-12.0,-4.0,1651024551914799.0,1
475,-3.0,-10.0,-11.0,29.0,14.0,0.0,-8.0,-11.0,1651024551914799.0,1
476,2.0,6.0,3.0,1.0,-3.0,7.0,33.0,14.0,1651024551915842.0,1
477,5.0,2.0,2.0,10.0,-1.0,8.0,21.0,13.0,1651024551915842.0,1
478,-1.0,7.0,6.0,-8.0,10.0,-6.0,-4.0,-1.0,1651024551936754.0,1
479,-3.0,-2.0,-5.0,-10.0,-6.0,-18.0,6.0,2.0,1651024551936754.0,1
480,-4.0,-10.0,-3.0,15.0,16.0,25.0,-1.0,-3.0,1651024551938757.0,1
481,2.0,3.0,1.0,-2.0,-11.0,15.0,-13.0,-4.0,1651024551938757.0,1
482,-6.0,-4.0,0.0,11.0,5.0,-2.0,-12.0,-16.0,1651024551952714.0,1
483,9.0,16.0,15.0,-10.0,2.0,3.0,18.0,18.0,1651024551952714.0,1
484,-4.0,-4.0,-21.0,-1.0,4.0,-7.0,4.0,1.0,1651024551953708.0,1
485,-3.0,-2.0,8.0,12.0,3.0,-10.0,0.0,-1.0,1651024551953708.0,1
486,-8.0,-16.0,-35.0,-12.0,-9.0,11.0,-42.0,-20.0,1651024551974667.0,1
487,1.0,9.0,17.0,1.0,-20.0,-15.0,8.0,5.0,1651024551974667.0,1
488,2.0,-1.0,2.0,15.0,16.0,14.0,-14.0,-8.0,1651024551975659.0,1
489,0.0,7.0,10.0,7.0,2.0,-10.0,8.0,2.0,1651024551975659.0,1
490,1.0,-10.0,-23.0,-17.0,4.0,-7.0,7.0,7.0,1651024551996572.0,1
491,-3.0,-17.0,-15.0,29.0,1.0,8.0,0.0,-3.0,1651024551996572.0,1
492,0.0,6.0,9.0,-8.0,-13.0,-10.0,-4.0,-3.0,1651024551998569.0,1
493,-6.0,7.0,7.0,-8.0,-4.0,-15.0,-28.0,-17.0,1651024551998569.0,1
494,5.0,-17.0,-17.0,6.0,0.0,6.0,24.0,23.0,1651024552011530.0,1
495,-2.0,13.0,6.0,-26.0,-3.0,25.0,2.0,-4.0,1651024552011530.0,1
496,-5.0,-1.0,8.0,15.0,15.0,1.0,-12.0,-6.0,1651024552013533.0,1
497,-4.0,-5.0,-19.0,-6.0,0.0,5.0,22.0,9.0,1651024552013533.0,1
498,-1.0,12.0,22.0,1.0,-13.0,-22.0,-9.0,-4.0,1651024552034864.0,1
499,-6.0,-8.0,-12.0,-16.0,-7.0,3.0,9.0,0.0,1651024552034864.0,1
500,-4.0,-4.0,-3.0,-20.0,-14.0,-18.0,-10.0,-4.0,1651024552035865.0,1
501,-2.0,0.0,16.0,46.0,15.0,25.0,2.0,1.0,1651024552035865.0,1
502,-1.0,4.0,4.0,-9.0,-14.0,-26.0,-5.0,-1.0,1651024552056869.0,1
503,1.0,1.0,3.0,-10.0,8.0,32.0,4.0,0.0,1651024552056869.0,1
504,5.0,6.0,-16.0,-16.0,9.0,3.0,2.0,0.0,1651024552058833.0,1
505,1.0,-3.0,7.0,26.0,4.0,-2.0,3.0,5.0,1651024552058833.0,1
506,-7.0,-8.0,-7.0,-20.0,-15.0,-13.0,-18.0,-11.0,1651024552071769.0,1
507,-6.0,-10.0,-4.0,-16.0,-17.0,-22.0,-17.0,-6.0,1651024552071769.0,1
508,4.0,-3.0,-4.0,11.0,3.0,3.0,2.0,-1.0,1651024552077754.0,1
509,2.0,3.0,7.0,-8.0,5.0,3.0,11.0,9.0,1651024552077754.0,1
510,6.0,15.0,7.0,25.0,2.0,-1.0,-29.0,-12.0,1651024552094739.0,1
511,-7.0,-21.0,-19.0,-23.0,-16.0,0.0,33.0,9.0,1651024552094739.0,1
512,5.0,15.0,7.0,7.0,14.0,-1.0,9.0,5.0,1651024552095799.0,1
513,-7.0,-7.0,-1.0,-13.0,-2.0,-11.0,-36.0,-24.0,1651024552095799.0,1
514,2.0,-9.0,-12.0,2.0,-5.0,-6.0,29.0,15.0,1651024552116978.0,1
515,0.0,9.0,4.0,-4.0,0.0,3.0,-13.0,-2.0,1651024552116978.0,1
516,2.0,-1.0,3.0,-21.0,-15.0,8.0,-4.0,0.0,1651024552118905.0,1
517,4.0,2.0,-4.0,18.0,16.0,3.0,-2.0,1.0,1651024552118905.0,1
518,-6.0,-1.0,-4.0,-6.0,-1.0,-7.0,-12.0,-6.0,1651024552130936.0,1
519,2.0,7.0,9.0,5.0,-8.0,-18.0,-2.0,-2.0,1651024552130936.0,1
520,0.0,-7.0,7.0,14.0,2.0,-3.0,-4.0,0.0,1651024552137918.0,1
521,5.0,21.0,19.0,-25.0,-4.0,-2.0,4.0,6.0,1651024552137918.0,1
522,-4.0,-32.0,-34.0,15.0,10.0,15.0,-1.0,-3.0,1651024552154963.0,1
523,3.0,15.0,29.0,-2.0,-10.0,-10.0,33.0,13.0,1651024552154963.0,1
524,2.0,23.0,39.0,6.0,3.0,7.0,-6.0,0.0,1651024552155957.0,1
525,1.0,-21.0,-40.0,-26.0,-8.0,6.0,48.0,20.0,1651024552155957.0,1
526,-5.0,-3.0,-5.0,3.0,5.0,6.0,-8.0,-7.0,1651024552176902.0,1
527,-2.0,-6.0,-16.0,-1.0,2.0,-5.0,-8.0,-3.0,1651024552176902.0,1
528,-4.0,-5.0,6.0,2.0,-9.0,-20.0,-10.0,-4.0,1651024552178911.0,1
529,-3.0,0.0,-11.0,-14.0,-15.0,1.0,-10.0,-10.0,1651024552178911.0,1
530,3.0,6.0,18.0,2.0,13.0,14.0,4.0,1.0,1651024552190932.0,1
531,1.0,-6.0,-12.0,-2.0,8.0,5.0,2.0,-3.0,1651024552190932.0,1
532,0.0,3.0,-9.0,-5.0,-3.0,1.0,5.0,2.0,1651024552199841.0,1
533,-2.0,-10.0,-9.0,-4.0,-8.0,-12.0,2.0,5.0,1651024552199841.0,1
534,-10.0,-12.0,0.0,-26.0,-9.0,-7.0,3.0,-3.0,1651024552214931.0,1
535,1.0,5.0,13.0,40.0,20.0,-1.0,-24.0,-10.0,1651024552214931.0,1
536,-9.0,-12.0,-14.0,-7.0,-13.0,-10.0,-8.0,-7.0,1651024552215917.0,1
537,-6.0,-8.0,-4.0,-10.0,-5.0,3.0,-6.0,-1.0,1651024552215917.0,1
538,1.0,1.0,2.0,-2.0,-7.0,-1.0,20.0,5.0,1651024552236924.0,1
539,1.0,-8.0,-9.0,1.0,8.0,-3.0,-34.0,-14.0,1651024552236924.0,1
540,-1.0,-10.0,-15.0,-4.0,3.0,10.0,-16.0,-11.0,1651024552238855.0,1
541,3.0,8.0,12.0,0.0,-5.0,-5.0,-15.0,4.0,1651024552238855.0,1
542,11.0,13.0,13.0,12.0,-5.0,6.0,15.0,11.0,1651024552250823.0,1
543,-9.0,5.0,-7.0,-19.0,-4.0,-10.0,-5.0,-5.0,1651024552250823.0,1
544,-5.0,-7.0,-8.0,8.0,6.0,-1.0,-16.0,-12.0,1651024552265783.0,1
545,2.0,2.0,-3.0,-9.0,-1.0,2.0,-6.0,-4.0,1651024552265783.0,1
546,-2.0,1.0,4.0,23.0,5.0,1.0,11.0,5.0,1651024552274823.0,1
547,8.0,10.0,6.0,-14.0,-11.0,-3.0,-14.0,0.0,1651024552274823.0,1
548,1.0,0.0,15.0,9.0,14.0,10.0,20.0,10.0,1651024552275880.0,1
549,6.0,5.0,-21.0,8.0,8.0,7.0,30.0,11.0,1651024552275880.0,1
550,-5.0,-4.0,14.0,6.0,4.0,-1.0,-18.0,-10.0,1651024552296701.0,1
551,-1.0,4.0,4.0,7.0,-1.0,-10.0,0.0,0.0,1651024552296701.0,1
552,-4.0,-4.0,-13.0,-14.0,-16.0,-9.0,16.0,4.0,1651024552298695.0,1
553,-2.0,-11.0,-5.0,-15.0,-12.0,-19.0,-11.0,-5.0,1651024552298695.0,1
554,-1.0,5.0,3.0,7.0,-2.0,11.0,-12.0,-10.0,1651024552310809.0,1
555,3.0,9.0,4.0,-5.0,-3.0,-45.0,-6.0,2.0,1651024552310809.0,1
556,4.0,-3.0,0.0,9.0,16.0,50.0,28.0,14.0,1651024552317784.0,1
557,-11.0,-5.0,-8.0,2.0,0.0,43.0,3.0,-3.0,1651024552317784.0,1
558,4.0,2.0,7.0,0.0,-6.0,-29.0,12.0,18.0,1651024552334776.0,1
559,-3.0,-1.0,-3.0,5.0,13.0,23.0,10.0,-2.0,1651024552334776.0,1
560,-11.0,-4.0,-3.0,-5.0,-9.0,-40.0,-12.0,-33.0,1651024552335737.0,1
561,0.0,-6.0,-10.0,-7.0,-11.0,-17.0,-3.0,10.0,1651024552335737.0,1
562,1.0,5.0,14.0,1.0,2.0,17.0,-6.0,-13.0,1651024552356718.0,1
563,-7.0,-15.0,-6.0,2.0,-4.0,-23.0,-10.0,3.0,1651024552356718.0,1
564,1.0,-3.0,-14.0,2.0,3.0,4.0,3.0,15.0,1651024552358675.0,1
565,-1.0,6.0,28.0,9.0,7.0,13.0,3.0,-5.0,1651024552358675.0,1
566,-2.0,-19.0,-35.0,-10.0,-6.0,-11.0,14.0,1.0,1651024552371706.0,1
567,-2.0,4.0,-10.0,-9.0,-12.0,5.0,-6.0,-9.0,1651024552371706.0,1
568,5.0,9.0,11.0,2.0,3.0,15.0,-1.0,12.0,1651024552377694.0,1
569,-1.0,9.0,0.0,0.0,5.0,-33.0,-3.0,-6.0,1651024552377694.0,1
570,12.0,6.0,21.0,10.0,8.0,37.0,12.0,22.0,1651024552394937.0,1
571,9.0,0.0,-7.0,-6.0,-7.0,19.0,15.0,31.0,1651024552394937.0,1
572,-12.0,-31.0,-10.0,-1.0,8.0,5.0,3.0,-41.0,1651024552395935.0,1
573,3.0,12.0,-10.0,-8.0,-8.0,-12.0,-8.0,15.0,1651024552395935.0,1
574,-2.0,3.0,12.0,6.0,13.0,-4.0,-6.0,-7.0,1651024552424030.0,1
575,8.0,3.0,14.0,8.0,1.0,14.0,11.0,12.0,1651024552424030.0,1
576,15.0,31.0,12.0,12.0,-9.0,-8.0,-1.0,17.0,1651024552426027.0,1
577,-14.0,-43.0,-27.0,-17.0,4.0,-5.0,-4.0,-10.0,1651024552426027.0,1
578,-1.0,4.0,-9.0,2.0,-2.0,3.0,-2.0,-8.0,1651024552439994.0,1
579,4.0,8.0,9.0,-3.0,-7.0,2.0,4.0,0.0,1651024552439994.0,1
580,-1.0,-7.0,-9.0,-3.0,-12.0,-13.0,-5.0,-1.0,1651024552440987.0,1
581,4.0,32.0,7.0,7.0,12.0,5.0,1.0,-6.0,1651024552440987.0,1
582,-24.0,-15.0,-2.0,-1.0,7.0,0.0,-2.0,-7.0,1651024552454951.0,1
583,21.0,24.0,12.0,4.0,3.0,2.0,-1.0,-2.0,1651024552454951.0,1
584,11.0,-2.0,7.0,8.0,7.0,0.0,3.0,6.0,1651024552455947.0,1
585,-9.0,-18.0,-3.0,-2.0,-10.0,6.0,3.0,-2.0,1651024552455947.0,1
586,-10.0,-33.0,5.0,-4.0,-6.0,-10.0,-4.0,-10.0,1651024552477924.0,1
587,5.0,2.0,-9.0,5.0,10.0,5.0,0.0,1.0,1651024552477924.0,1
588,-36.0,-10.0,-17.0,-22.0,-16.0,-9.0,4.0,8.0,1651024552478887.0,1
589,15.0,20.0,-3.0,-3.0,-8.0,-6.0,-22.0,-10.0,1651024552478887.0,1
590,26.0,21.0,14.0,11.0,11.0,0.0,2.0,-11.0,1651024552490922.0,1
591,-35.0,-30.0,-17.0,-6.0,-4.0,-4.0,-7.0,-30.0,1651024552490922.0,1
592,-15.0,-41.0,-10.0,-6.0,-12.0,-4.0,1.0,1.0,1651024552499830.0,1
593,6.0,31.0,19.0,7.0,3.0,3.0,7.0,17.0,1651024552499830.0,1
594,4.0,78.0,8.0,1.0,15.0,2.0,-3.0,-33.0,1651024552514854.0,1
595,-25.0,-93.0,-27.0,-8.0,-3.0,2.0,0.0,-4.0,1651024552514854.0,1
596,14.0,-11.0,7.0,6.0,-2.0,-1.0,-2.0,7.0,1651024552515787.0,1
597,13.0,15.0,20.0,11.0,14.0,3.0,5.0,0.0,1651024552515787.0,1
598,-13.0,7.0,-24.0,-14.0,-20.0,-8.0,-9.0,6.0,1651024552536897.0,1
599,10.0,38.0,15.0,6.0,-1.0,3.0,10.0,8.0,1651024552536897.0,1
600,0.0,1.0,2.0,5.0,19.0,5.0,0.0,-3.0,1651024552538853.0,1
601,10.0,11.0,2.0,2.0,-7.0,2.0,0.0,1.0,1651024552538853.0,1
602,4.0,-43.0,-10.0,-3.0,-2.0,0.0,1.0,14.0,1651024552550860.0,1
603,-20.0,14.0,-9.0,-14.0,-15.0,-8.0,-7.0,-15.0,1651024552550860.0,1
604,-2.0,27.0,1.0,-5.0,2.0,-5.0,-1.0,0.0,1651024552559774.0,1
605,-8.0,-40.0,-7.0,-1.0,3.0,2.0,-2.0,-5.0,1651024552559774.0,1
606,10.0,19.0,9.0,7.0,3.0,1.0,4.0,13.0,1651024552574958.0,1
607,-6.0,31.0,4.0,-4.0,-3.0,-3.0,-3.0,-5.0,1651024552574958.0,1
608,14.0,4.0,2.0,2.0,-1.0,2.0,0.0,3.0,1651024552575936.0,1
609,-4.0,-11.0,-1.0,1.0,3.0,1.0,4.0,-4.0,1651024552575936.0,1
610,-1.0,-23.0,-1.0,-4.0,-12.0,-1.0,0.0,3.0,1651024552597100.0,1
611,15.0,46.0,8.0,3.0,18.0,4.0,1.0,6.0,1651024552597100.0,1
612,-3.0,-29.0,2.0,5.0,0.0,3.0,1.0,2.0,1651024552599033.0,1
613,0.0,-7.0,-4.0,-2.0,-9.0,-2.0,1.0,-3.0,1651024552599033.0,1
614,3.0,42.0,5.0,-1.0,1.0,-1.0,-3.0,2.0,1651024552611002.0,1
615,8.0,-18.0,3.0,4.0,2.0,1.0,2.0,3.0,1651024552611002.0,1
616,8.0,41.0,10.0,2.0,3.0,2.0,0.0,3.0,1651024552620041.0,1
617,-14.0,-34.0,1.0,2.0,-5.0,-3.0,1.0,-6.0,1651024552620041.0,1
618,-4.0,-3.0,-12.0,-5.0,-3.0,-3.0,0.0,2.0,1651024552634096.0,1
619,7.0,1.0,4.0,3.0,5.0,3.0,3.0,2.0,1651024552634096.0,1
620,4.0,-27.0,-7.0,-4.0,-3.0,-3.0,0.0,0.0,1651024552636094.0,1
621,-2.0,21.0,2.0,-2.0,-4.0,-3.0,-3.0,-2.0,1651024552636094.0,1
622,-10.0,-20.0,-2.0,-1.0,2.0,0.0,0.0,1.0,1651024552657105.0,1
623,5.0,2.0,4.0,2.0,3.0,2.0,2.0,1.0,1651024552657105.0,1
624,-16.0,-32.0,-17.0,-4.0,-8.0,-4.0,-5.0,-7.0,1651024552663090.0,1
625,-17.0,-9.0,-5.0,-4.0,0.0,-2.0,-4.0,-8.0,1651024552663090.0,1
626,8.0,-4.0,-6.0,-5.0,1.0,0.0,0.0,5.0,1651024552671071.0,1
627,-7.0,4.0,1.0,9.0,-1.0,2.0,-1.0,-2.0,1651024552671071.0,1
628,14.0,52.0,12.0,-1.0,0.0,1.0,0.0,4.0,1651024552679976.0,1
629,-9.0,-46.0,-9.0,-4.0,0.0,-3.0,-1.0,-4.0,1651024552679976.0,1
630,-7.0,-34.0,-1.0,3.0,1.0,0.0,0.0,-3.0,1651024552694985.0,1
631,9.0,29.0,8.0,2.0,-3.0,-1.0,1.0,1.0,1651024552694985.0,1
632,4.0,24.0,8.0,0.0,1.0,-1.0,0.0,0.0,1651024552695980.0,1
633,1.0,-11.0,-19.0,-5.0,1.0,2.0,0.0,1.0,1651024552695980.0,1
634,-8.0,-13.0,-1.0,-2.0,-4.0,-3.0,-3.0,-1.0,1651024552716991.0,1
635,11.0,41.0,1.0,-2.0,-9.0,-1.0,-1.0,-1.0,1651024552716991.0,1
636,3.0,-25.0,4.0,4.0,9.0,0.0,-1.0,0.0,1651024552718920.0,1
637,3.0,15.0,8.0,4.0,4.0,3.0,3.0,0.0,1651024552718920.0,1
638,6.0,11.0,2.0,0.0,-4.0,-2.0,-2.0,1.0,1651024552730948.0,1
639,1.0,42.0,7.0,1.0,4.0,-1.0,0.0,2.0,1651024552730948.0,1
640,-10.0,-48.0,-14.0,-9.0,-13.0,-6.0,-2.0,-3.0,1651024552739863.0,1
641,-2.0,-4.0,-5.0,-4.0,2.0,-2.0,-3.0,-4.0,1651024552739863.0,1
642,1.0,20.0,-4.0,3.0,7.0,2.0,-1.0,1.0,1651024552754823.0,1
643,-5.0,-50.0,-3.0,-1.0,-1.0,0.0,-2.0,-3.0,1651024552754823.0,1
644,12.0,44.0,5.0,0.0,-1.0,0.0,2.0,4.0,1651024552755820.0,1
645,-9.0,-25.0,-11.0,-7.0,-5.0,-3.0,-2.0,-4.0,1651024552755820.0,1
646,-7.0,-8.0,2.0,1.0,2.0,-2.0,-2.0,-3.0,1651024552777037.0,1
647,-12.0,-78.0,-12.0,2.0,4.0,0.0,2.0,0.0,1651024552777037.0,1
648,23.0,72.0,13.0,3.0,0.0,2.0,0.0,3.0,1651024552778037.0,1
649,21.0,22.0,3.0,-1.0,-1.0,0.0,2.0,7.0,1651024552778037.0,1
650,1.0,-8.0,7.0,-1.0,0.0,3.0,0.0,1.0,1651024552799049.0,1
651,-11.0,-43.0,-13.0,-4.0,-2.0,-1.0,-3.0,-4.0,1651024552799049.0,1
652,-10.0,-26.0,-8.0,0.0,0.0,0.0,-2.0,-2.0,1651024552800997.0,1
653,4.0,-24.0,12.0,7.0,-2.0,1.0,1.0,2.0,1651024552800997.0,1
654,10.0,30.0,4.0,-3.0,-9.0,-1.0,1.0,3.0,1651024552813944.0,1
655,0.0,4.0,-9.0,-3.0,14.0,-1.0,-1.0,0.0,1651024552813944.0,1
656,-9.0,-36.0,-5.0,3.0,0.0,1.0,0.0,-1.0,1651024552821856.0,1
657,9.0,21.0,4.0,1.0,1.0,0.0,0.0,0.0,1651024552821856.0,1
658,-16.0,-41.0,-6.0,-2.0,-6.0,-2.0,0.0,-4.0,1651024552836872.0,1
659,-1.0,-33.0,0.0,3.0,-2.0,-1.0,1.0,1.0,1651024552836872.0,1
660,8.0,49.0,4.0,-4.0,2.0,-2.0,-2.0,-2.0,1651024552838800.0,1
661,4.0,25.0,0.0,-1.0,-2.0,1.0,0.0,1.0,1651024552838800.0,1
662,12.0,21.0,5.0,2.0,1.0,0.0,1.0,3.0,1651024552859811.0,1
663,5.0,17.0,4.0,-1.0,-2.0,1.0,0.0,1.0,1651024552859811.0,1
664,-2.0,-20.0,4.0,2.0,0.0,2.0,1.0,0.0,1651024552860750.0,1
665,-1.0,18.0,4.0,1.0,-1.0,0.0,0.0,-1.0,1651024552860750.0,1
666,3.0,28.0,-3.0,-2.0,-1.0,-2.0,-1.0,-3.0,1651024552874803.0,1
667,-10.0,-6.0,-5.0,-3.0,-2.0,-3.0,-4.0,-5.0,1651024552874803.0,1
668,4.0,21.0,5.0,2.0,0.0,0.0,0.0,0.0,1651024552875824.0,1
669,-8.0,-29.0,-5.0,0.0,3.0,0.0,0.0,-2.0,1651024552875824.0,1
670,-3.0,-11.0,0.0,2.0,5.0,1.0,1.0,1.0,1651024552896860.0,1
671,-1.0,3.0,-3.0,-4.0,-5.0,-3.0,-3.0,-3.0,1651024552896860.0,1
672,-6.0,-11.0,-6.0,-5.0,-5.0,0.0,-1.0,-1.0,1651024552898810.0,1
673,-5.0,6.0,-2.0,-4.0,-3.0,-4.0,-3.0,-4.0,1651024552898810.0,1
674,-3.0,0.0,3.0,4.0,10.0,1.0,1.0,-3.0,1651024552919920.0,1
675,0.0,-1.0,-8.0,-2.0,-6.0,-1.0,0.0,0.0,1651024552919920.0,1
676,4.0,26.0,2.0,-1.0,3.0,2.0,-1.0,1.0,1651024552920890.0,1
677,-16.0,11.0,-7.0,-4.0,-6.0,-4.0,-1.0,-3.0,1651024552920890.0,1
678,-3.0,-3.0,0.0,-3.0,-2.0,-3.0,0.0,1.0,1651024552934852.0,1
679,4.0,20.0,6.0,0.0,1.0,-1.0,0.0,-1.0,1651024552934852.0,1
680,-5.0,-18.0,-5.0,-2.0,-3.0,-2.0,0.0,-1.0,1651024552935856.0,1
681,0.0,29.0,8.0,2.0,5.0,2.0,-1.0,-2.0,1651024552935856.0,1
682,10.0,-9.0,3.0,5.0,1.0,3.0,4.0,7.0,1651024552957386.0,1
683,5.0,6.0,2.0,-1.0,0.0,-1.0,0.0,0.0,1651024552957386.0,1
684,-7.0,-15.0,-3.0,-2.0,-1.0,-2.0,0.0,-2.0,1651024552958719.0,1
685,-1.0,-36.0,-5.0,-3.0,-4.0,-3.0,-4.0,-3.0,1651024552958719.0,1
686,-2.0,-4.0,-1.0,1.0,1.0,0.0,-3.0,-1.0,1651024552979915.0,1
687,2.0,-3.0,2.0,-1.0,-1.0,1.0,1.0,1.0,1651024552979915.0,1
688,-7.0,-35.0,-8.0,-3.0,1.0,1.0,-2.0,-1.0,1651024552980894.0,1
689,6.0,-9.0,0.0,-1.0,0.0,0.0,-1.0,2.0,1651024552980894.0,1
690,-2.0,14.0,0.0,-1.0,-4.0,-2.0,-2.0,-4.0,1651024552994181.0,1
691,1.0,-4.0,3.0,4.0,3.0,2.0,2.0,2.0,1651024552994181.0,1
692,-4.0,8.0,0.0,0.0,-2.0,-3.0,-2.0,-3.0,1651024553001095.0,1
693,1.0,2.0,0.0,-1.0,-2.0,-2.0,2.0,1.0,1651024553001095.0,1
694,-6.0,-6.0,-4.0,-3.0,-7.0,-1.0,-2.0,-3.0,1651024553017241.0,1
695,-2.0,-23.0,-3.0,4.0,15.0,1.0,0.0,0.0,1651024553017241.0,1
696,9.0,20.0,1.0,2.0,-3.0,1.0,-1.0,2.0,1651024553018175.0,1
697,-14.0,-38.0,0.0,1.0,2.0,2.0,2.0,2.0,1651024553018175.0,1
698,-3.0,3.0,-2.0,-3.0,-6.0,-2.0,-2.0,-4.0,1651024553039943.0,1
699,2.0,-6.0,-1.0,-3.0,-3.0,-1.0,0.0,0.0,1651024553039943.0,1
700,-3.0,-8.0,-5.0,0.0,1.0,0.0,0.0,0.0,1651024553040937.0,1
701,8.0,12.0,4.0,3.0,4.0,2.0,-1.0,1.0,1651024553040937.0,1
702,0.0,-2.0,0.0,-1.0,3.0,0.0,-1.0,-1.0,1651024553061582.0,1
703,4.0,10.0,1.0,-2.0,-8.0,-2.0,-3.0,1.0,1651024553061582.0,1
704,-5.0,3.0,-3.0,-2.0,2.0,-1.0,-3.0,-3.0,1651024553063566.0,1
705,-1.0,5.0,3.0,1.0,-1.0,1.0,-1.0,-2.0,1651024553063566.0,1
706,-4.0,-15.0,-1.0,1.0,0.0,1.0,0.0,-2.0,1651024553076599.0,1
707,5.0,20.0,2.0,0.0,0.0,0.0,1.0,0.0,1651024553076599.0,1
708,-7.0,-64.0,-7.0,-1.0,-2.0,-1.0,0.0,-1.0,1651024553078529.0,1
709,6.0,23.0,5.0,0.0,-1.0,-2.0,0.0,2.0,1651024553078529.0,1
710,2.0,15.0,-3.0,-2.0,0.0,0.0,0.0,-2.0,1651024553099541.0,1
711,-6.0,21.0,-1.0,-2.0,-5.0,-1.0,-2.0,-1.0,1651024553099541.0,1
712,-6.0,-6.0,-4.0,-2.0,-1.0,-2.0,-1.0,-4.0,1651024553101475.0,1
713,3.0,6.0,1.0,2.0,2.0,0.0,0.0,1.0,1651024553101475.0,1
714,-3.0,-16.0,-4.0,-1.0,-1.0,-1.0,-1.0,1.0,1651024553113432.0,1
715,4.0,11.0,4.0,-1.0,-1.0,1.0,1.0,2.0,1651024553113432.0,1
716,0.0,19.0,3.0,-4.0,-9.0,-2.0,-1.0,-1.0,1651024553120484.0,1
717,10.0,39.0,2.0,1.0,8.0,-1.0,-1.0,-1.0,1651024553120484.0,1
718,-11.0,-8.0,1.0,2.0,3.0,-2.0,-3.0,-2.0,1651024553137406.0,1
719,-9.0,-1.0,-9.0,-4.0,-6.0,-2.0,0.0,-5.0,1651024553137406.0,1
720,2.0,9.0,3.0,-1.0,3.0,-1.0,0.0,1.0,1651024553138378.0,1
721,-2.0,-28.0,-3.0,-2.0,-9.0,-2.0,2.0,0.0,1651024553138378.0,1
722,13.0,14.0,3.0,1.0,1.0,0.0,1.0,2.0,1651024553159380.0,1
723,-8.0,0.0,6.0,2.0,2.0,1.0,-2.0,-2.0,1651024553159380.0,1
724,-1.0,-2.0,-2.0,-1.0,-1.0,-2.0,0.0,1.0,1651024553161305.0,1
725,0.0,14.0,0.0,-2.0,-2.0,-1.0,-2.0,-2.0,1651024553161305.0,1
726,-10.0,-40.0,-7.0,-1.0,3.0,-3.0,0.0,-3.0,1651024553174212.0,1
727,-8.0,-20.0,-2.0,-1.0,-2.0,-1.0,0.0,-2.0,1651024553174212.0,1
728,2.0,6.0,1.0,0.0,-1.0,-1.0,-1.0,0.0,1651024553180967.0,1
729,-1.0,-1.0,2.0,1.0,4.0,2.0,-1.0,-1.0,1651024553180967.0,1
730,1.0,23.0,-1.0,-3.0,-2.0,1.0,-2.0,-1.0,1651024553196607.0,1
731,2.0,18.0,-4.0,-2.0,-2.0,0.0,0.0,-1.0,1651024553196607.0,1
732,-3.0,9.0,0.0,-2.0,-1.0,-1.0,0.0,-2.0,1651024553198621.0,1
733,-1.0,-12.0,-6.0,0.0,-1.0,0.0,1.0,0.0,1651024553198621.0,1
734,3.0,5.0,1.0,-3.0,-5.0,-3.0,-3.0,-2.0,1651024553219797.0,1
735,0.0,-21.0,-2.0,0.0,0.0,2.0,1.0,1.0,1651024553219797.0,1
736,7.0,14.0,3.0,1.0,-4.0,0.0,1.0,0.0,1651024553220738.0,1
737,18.0,47.0,4.0,-3.0,-3.0,-1.0,0.0,1.0,1651024553220738.0,1
738,-18.0,-18.0,-1.0,3.0,12.0,1.0,2.0,-2.0,1651024553233837.0,1
739,-7.0,-39.0,-10.0,-2.0,-4.0,-2.0,-2.0,-3.0,1651024553233837.0,1
740,-9.0,-42.0,-4.0,0.0,1.0,-2.0,-2.0,-1.0,1651024553240860.0,1
741,0.0,2.0,-2.0,-2.0,-7.0,0.0,0.0,2.0,1651024553240860.0,1
742,0.0,-10.0,-6.0,-2.0,-4.0,-1.0,2.0,1.0,1651024553256776.0,1
743,-3.0,14.0,7.0,3.0,4.0,-1.0,-1.0,-1.0,1651024553256776.0,1
744,-2.0,1.0,0.0,1.0,-3.0,-1.0,-1.0,-2.0,1651024553258746.0,1
745,-6.0,-15.0,-2.0,-1.0,-1.0,0.0,-1.0,-1.0,1651024553258746.0,1
746,-1.0,-18.0,0.0,0.0,1.0,-1.0,-1.0,2.0,1651024553279996.0,1
747,2.0,1.0,2.0,0.0,1.0,-1.0,1.0,1.0,1651024553279996.0,1
748,2.0,3.0,-2.0,0.0,-1.0,0.0,1.0,-2.0,1651024553280944.0,1
749,-2.0,-12.0,0.0,0.0,-3.0,-2.0,-2.0,-1.0,1651024553280944.0,1
750,8.0,34.0,5.0,2.0,2.0,0.0,0.0,-1.0,1651024553293977.0,1
751,-3.0,-10.0,-4.0,-1.0,-6.0,0.0,-1.0,2.0,1651024553293977.0,1
752,-7.0,-27.0,-3.0,-1.0,5.0,-1.0,-1.0,-2.0,1651024553300918.0,1
753,-5.0,-15.0,-4.0,0.0,2.0,1.0,-1.0,-1.0,1651024553300918.0,1
754,0.0,6.0,1.0,-2.0,-5.0,-1.0,0.0,0.0,1651024553316915.0,1
755,3.0,6.0,2.0,0.0,1.0,-1.0,1.0,1.0,1651024553316915.0,1
756,2.0,2.0,2.0,0.0,1.0,1.0,0.0,2.0,1651024553318843.0,1
757,-7.0,6.0,-6.0,-3.0,-1.0,-2.0,-1.0,-1.0,1651024553318843.0,1
758,-10.0,-31.0,-5.0,-4.0,-13.0,-2.0,-1.0,-2.0,1651024553339835.0,1
759,8.0,13.0,6.0,2.0,12.0,1.0,0.0,1.0,1651024553339835.0,1
760,0.0,11.0,2.0,2.0,3.0,1.0,1.0,-2.0,1651024553340832.0,1
761,3.0,-7.0,3.0,2.0,0.0,-1.0,2.0,1.0,1651024553340832.0,1
762,6.0,32.0,0.0,-1.0,-1.0,0.0,0.0,1.0,1651024553352813.0,1
763,-10.0,-17.0,-6.0,-6.0,-7.0,-1.0,-3.0,-3.0,1651024553352813.0,1
764,-7.0,-2.0,-4.0,-2.0,-3.0,-1.0,-1.0,-1.0,1651024553361805.0,1
765,-10.0,-22.0,-5.0,-1.0,-1.0,-3.0,-4.0,-5.0,1651024553361805.0,1
766,0.0,10.0,2.0,-1.0,-2.0,1.0,1.0,0.0,1651024553376879.0,1
767,5.0,6.0,0.0,-1.0,1.0,-1.0,0.0,1.0,1651024553376879.0,1
768,0.0,6.0,1.0,0.0,2.0,0.0,-2.0,0.0,1651024553378811.0,1
769,2.0,5.0,1.0,-1.0,-2.0,-2.0,0.0,-1.0,1651024553378811.0,1
770,-3.0,-32.0,-6.0,0.0,1.0,0.0,0.0,0.0,1651024553398963.0,1
771,7.0,33.0,2.0,-4.0,-3.0,-2.0,-1.0,-1.0,1651024553398963.0,1
772,3.0,1.0,0.0,-1.0,-2.0,1.0,0.0,3.0,1651024553400947.0,1
773,1.0,1.0,1.0,0.0,2.0,0.0,-1.0,0.0,1651024553400947.0,1
774,3.0,3.0,2.0,1.0,1.0,-1.0,-1.0,0.0,1651024553412931.0,1
775,-1.0,-7.0,-4.0,-1.0,0.0,0.0,0.0,2.0,1651024553412931.0,1
776,2.0,5.0,1.0,2.0,-2.0,-1.0,-1.0,0.0,1651024553421890.0,1
777,2.0,6.0,2.0,-2.0,-5.0,0.0,0.0,1.0,1651024553421890.0,1
778,4.0,2.0,0.0,0.0,-3.0,1.0,0.0,2.0,1651024553436910.0,1
779,-16.0,-57.0,-8.0,-1.0,13.0,2.0,-2.0,-4.0,1651024553436910.0,1
780,4.0,18.0,6.0,2.0,-2.0,1.0,1.0,2.0,1651024553438869.0,1
781,-2.0,-4.0,-1.0,-1.0,2.0,1.0,0.0,0.0,1651024553438869.0,1
782,-1.0,-6.0,-3.0,-1.0,-5.0,-2.0,-1.0,0.0,1651024553459856.0,1
783,5.0,14.0,3.0,2.0,-5.0,0.0,0.0,0.0,1651024553459856.0,1
784,-4.0,-18.0,-4.0,-1.0,5.0,1.0,0.0,-1.0,1651024553460786.0,1
785,-17.0,-7.0,-8.0,-2.0,0.0,-1.0,-3.0,-2.0,1651024553460786.0,1
786,4.0,9.0,1.0,-1.0,-2.0,-2.0,-4.0,-3.0,1651024553472819.0,1
787,1.0,-2.0,-1.0,0.0,-3.0,0.0,-1.0,0.0,1651024553472819.0,1
788,-3.0,-4.0,-3.0,0.0,3.0,0.0,0.0,-2.0,1651024553481759.0,1
789,8.0,21.0,5.0,-1.0,-1.0,-2.0,0.0,0.0,1651024553481759.0,1
790,-1.0,7.0,-2.0,0.0,3.0,-1.0,-2.0,-1.0,1651024553496747.0,1
791,-9.0,-40.0,-6.0,2.0,-2.0,-2.0,-1.0,-3.0,1651024553496747.0,1
792,3.0,12.0,3.0,-2.0,-4.0,0.0,-1.0,1.0,1651024553498746.0,1
793,0.0,-4.0,-1.0,0.0,1.0,0.0,1.0,1.0,1651024553498746.0,1
794,1.0,12.0,5.0,1.0,4.0,1.0,1.0,2.0,1651024553519678.0,1
795,-5.0,-7.0,0.0,1.0,-3.0,1.0,1.0,-1.0,1651024553519678.0,1
796,1.0,-4.0,-3.0,-3.0,-3.0,-1.0,0.0,0.0,1651024553520701.0,1
797,1.0,-3.0,0.0,-2.0,-11.0,-2.0,-1.0,-1.0,1651024553520701.0,1
798,-5.0,-7.0,-6.0,-1.0,12.0,-2.0,-2.0,-1.0,1651024553532706.0,1
799,7.0,21.0,3.0,1.0,0.0,1.0,0.0,3.0,1651024553532706.0,1
800,-5.0,1.0,-3.0,-2.0,-2.0,-1.0,-2.0,-1.0,1651024553541682.0,1
801,-3.0,-8.0,1.0,1.0,1.0,1.0,1.0,-1.0,1651024553541682.0,1
802,-1.0,11.0,2.0,0.0,-5.0,-3.0,-2.0,-2.0,1651024553556646.0,1
803,5.0,16.0,3.0,-1.0,0.0,3.0,0.0,0.0,1651024553556646.0,1
804,3.0,-17.0,-6.0,0.0,4.0,1.0,0.0,1.0,1651024553558601.0,1
805,4.0,24.0,6.0,-1.0,-5.0,-2.0,-1.0,0.0,1651024553558601.0,1
806,-2.0,-5.0,0.0,-1.0,-2.0,0.0,1.0,-1.0,1651024553579936.0,1
807,2.0,9.0,0.0,0.0,1.0,-3.0,0.0,-1.0,1651024553579936.0,1
808,-7.0,-4.0,-7.0,-4.0,-4.0,-1.0,-2.0,-2.0,1651024553580946.0,1
809,4.0,2.0,-4.0,-2.0,3.0,0.0,0.0,0.0,1651024553580946.0,1
810,-3.0,-5.0,1.0,2.0,0.0,1.0,-1.0,-1.0,1651024553593478.0,1
811,0.0,3.0,1.0,-2.0,-3.0,-1.0,-1.0,1.0,1651024553593478.0,1
812,2.0,15.0,3.0,1.0,-3.0,-2.0,0.0,1.0,1651024553602455.0,1
813,-2.0,21.0,1.0,0.0,-2.0,-1.0,-1.0,-2.0,1651024553602455.0,1
814,-3.0,-2.0,1.0,0.0,-4.0,1.0,-2.0,-1.0,1651024553617415.0,1
815,-2.0,-12.0,-6.0,2.0,9.0,0.0,0.0,-1.0,1651024553617415.0,1
816,0.0,-2.0,3.0,2.0,1.0,-1.0,0.0,0.0,1651024553618418.0,1
817,2.0,2.0,1.0,2.0,2.0,-1.0,0.0,2.0,1651024553618418.0,1
818,0.0,0.0,-1.0,-6.0,-7.0,0.0,0.0,1.0,1651024553639610.0,1
819,0.0,9.0,1.0,-3.0,-7.0,-2.0,-1.0,-1.0,1651024553639610.0,1
820,1.0,-5.0,1.0,1.0,-4.0,-6.0,0.0,1.0,1651024553641549.0,1
821,2.0,8.0,-2.0,2.0,7.0,6.0,-2.0,0.0,1651024553641549.0,1
822,0.0,-11.0,2.0,5.0,5.0,4.0,1.0,1.0,1651024553653512.0,1
823,5.0,13.0,0.0,-9.0,-7.0,-4.0,-2.0,-2.0,1651024553653512.0,1
824,1.0,7.0,-2.0,-5.0,-3.0,-1.0,0.0,-2.0,1651024553662480.0,1
825,-1.0,-12.0,-2.0,6.0,0.0,-3.0,2.0,1.0,1651024553662480.0,1
826,-1.0,-2.0,-2.0,-1.0,-2.0,-3.0,0.0,0.0,1651024553677417.0,1
827,-3.0,-14.0,-3.0,-3.0,0.0,0.0,1.0,0.0,1651024553677417.0,1
828,1.0,6.0,4.0,3.0,-10.0,-3.0,-1.0,-1.0,1651024553678355.0,1
829,-7.0,-22.0,-5.0,1.0,7.0,1.0,-2.0,-3.0,1651024553678355.0,1
830,3.0,5.0,0.0,-2.0,8.0,2.0,-1.0,0.0,1651024553699357.0,1
831,-1.0,-3.0,-3.0,-3.0,-6.0,-3.0,-1.0,-1.0,1651024553699357.0,1
832,1.0,9.0,9.0,10.0,5.0,1.0,1.0,0.0,1651024553701284.0,1
833,-2.0,-19.0,-8.0,-8.0,-13.0,-4.0,-3.0,-2.0,1651024553701284.0,1
834,-6.0,-3.0,-4.0,-1.0,0.0,-1.0,-1.0,-3.0,1651024553713253.0,1
835,3.0,7.0,-3.0,-1.0,3.0,3.0,1.0,2.0,1651024553713253.0,1
836,0.0,2.0,-1.0,-4.0,-1.0,-1.0,-3.0,-2.0,1651024553722235.0,1
837,-2.0,-1.0,-5.0,-2.0,4.0,-1.0,0.0,-2.0,1651024553722235.0,1
838,2.0,1.0,2.0,-2.0,-6.0,-3.0,0.0,-2.0,1651024553736662.0,1
839,-2.0,1.0,-3.0,-17.0,-5.0,-2.0,-2.0,-1.0,1651024553736662.0,1
840,-2.0,8.0,8.0,-2.0,-8.0,-1.0,-2.0,1.0,1651024553738686.0,1
841,1.0,-11.0,-9.0,7.0,8.0,3.0,1.0,2.0,1651024553738686.0,1
842,0.0,2.0,17.0,-2.0,6.0,-1.0,0.0,-2.0,1651024553759632.0,1
843,-1.0,1.0,-2.0,21.0,-4.0,2.0,-1.0,0.0,1651024553759632.0,1
844,2.0,-8.0,1.0,6.0,11.0,0.0,-1.0,0.0,1651024553760628.0,1
845,0.0,0.0,-5.0,-17.0,-12.0,-2.0,-1.0,0.0,1651024553760628.0,1
846,1.0,0.0,-4.0,1.0,-6.0,0.0,1.0,1.0,1651024553782059.0,1
847,-4.0,-7.0,-13.0,-12.0,-2.0,-2.0,-2.0,-1.0,1651024553782059.0,1
848,0.0,1.0,-3.0,-6.0,-4.0,0.0,1.0,-1.0,1651024553784020.0,1
849,-1.0,3.0,6.0,9.0,5.0,-1.0,0.0,0.0,1651024553784020.0,1
850,2.0,26.0,1.0,-4.0,-3.0,-3.0,-1.0,1.0,1651024553797107.0,1
851,1.0,-9.0,4.0,0.0,4.0,1.0,-1.0,0.0,1651024553797107.0,1
852,-1.0,-2.0,-7.0,0.0,2.0,0.0,-1.0,-2.0,1651024553798103.0,1
853,1.0,6.0,12.0,2.0,1.0,0.0,1.0,-2.0,1651024553798103.0,1
854,-3.0,-8.0,-11.0,-5.0,-8.0,-2.0,-1.0,0.0,1651024553818994.0,1
855,8.0,18.0,5.0,3.0,1.0,0.0,0.0,2.0,1651024553818994.0,1
856,-5.0,5.0,-2.0,-6.0,8.0,2.0,-1.0,-1.0,1651024553820927.0,1
857,-1.0,-25.0,0.0,-3.0,-6.0,0.0,0.0,2.0,1651024553820927.0,1
858,1.0,11.0,3.0,16.0,3.0,-1.0,0.0,-1.0,1651024553842339.0,1
859,1.0,14.0,6.0,2.0,-2.0,1.0,0.0,-2.0,1651024553842339.0,1
860,2.0,-2.0,1.0,7.0,5.0,1.0,0.0,0.0,1651024553843345.0,1
861,1.0,-5.0,-1.0,-5.0,-1.0,0.0,-1.0,-1.0,1651024553843345.0,1
862,-2.0,-7.0,7.0,-5.0,-5.0,-4.0,-2.0,-2.0,1651024553857369.0,1
863,-4.0,-14.0,-25.0,-10.0,-1.0,0.0,-1.0,1.0,1651024553857369.0,1
864,0.0,-1.0,-2.0,-2.0,-2.0,-1.0,0.0,-1.0,1651024553858298.0,1
865,-1.0,12.0,9.0,3.0,2.0,-1.0,0.0,-1.0,1651024553858298.0,1
866,0.0,-4.0,12.0,-6.0,-4.0,0.0,0.0,0.0,1651024553879309.0,1
867,2.0,5.0,-2.0,14.0,5.0,0.0,1.0,1.0,1651024553879309.0,1
868,-1.0,-8.0,4.0,14.0,6.0,1.0,-2.0,-1.0,1651024553881238.0,1
869,2.0,3.0,-2.0,-6.0,-10.0,0.0,0.0,0.0,1651024553881238.0,1
870,1.0,-1.0,13.0,3.0,22.0,3.0,0.0,-1.0,1651024553902209.0,1
871,-5.0,-11.0,-15.0,-8.0,-11.0,-3.0,-1.0,-3.0,1651024553902209.0,1
872,0.0,-2.0,-5.0,-3.0,-9.0,-3.0,-1.0,1.0,1651024553903178.0,1
873,1.0,12.0,18.0,8.0,7.0,0.0,0.0,1.0,1651024553903178.0,0
874,-9.0,-38.0,-49.0,-11.0,-8.0,-4.0,-3.0,-4.0,1651024553917208.0,2
875,-2.0,3.0,24.0,5.0,-1.0,-4.0,-1.0,-2.0,1651024553917208.0,2
876,-7.0,-18.0,-38.0,-11.0,-4.0,-2.0,-1.0,-3.0,1651024553918138.0,2
877,1.0,5.0,16.0,-13.0,-4.0,-3.0,0.0,1.0,1651024553918138.0,2
878,-1.0,1.0,2.0,-12.0,-9.0,-2.0,-5.0,-2.0,1651024553940080.0,2
879,-1.0,-6.0,3.0,-6.0,2.0,1.0,1.0,-1.0,1651024553940080.0,2
880,2.0,2.0,14.0,31.0,8.0,3.0,3.0,1.0,1651024553941077.0,2
881,6.0,7.0,-13.0,-6.0,3.0,0.0,-1.0,0.0,1651024553941077.0,2
882,1.0,-2.0,5.0,24.0,11.0,3.0,-1.0,0.0,1651024553962185.0,2
883,-4.0,-17.0,-43.0,-4.0,-4.0,-4.0,-5.0,-4.0,1651024553962185.0,2
884,-9.0,-23.0,-18.0,-23.0,-7.0,-4.0,-4.0,-6.0,1651024553963185.0,2
885,4.0,11.0,-8.0,-14.0,-5.0,-3.0,-5.0,-2.0,1651024553963185.0,2
886,-3.0,-8.0,25.0,27.0,8.0,2.0,-2.0,-1.0,1651024553976786.0,2
887,10.0,32.0,35.0,-11.0,-7.0,2.0,11.0,8.0,1651024553976786.0,2
888,-2.0,-5.0,-39.0,-32.0,-9.0,-4.0,-8.0,-5.0,1651024553982839.0,2
889,-11.0,-36.0,-29.0,21.0,6.0,0.0,-14.0,-12.0,1651024553982839.0,2
890,6.0,18.0,-4.0,-25.0,-12.0,-2.0,17.0,9.0,1651024553999794.0,2
891,-5.0,-7.0,5.0,11.0,7.0,1.0,-1.0,-3.0,1651024553999794.0,2
892,8.0,24.0,29.0,-8.0,-9.0,-5.0,-9.0,1.0,1651024554000724.0,2
893,-4.0,-4.0,-14.0,-29.0,-14.0,-12.0,3.0,2.0,1651024554000724.0,2
894,-14.0,-3.0,9.0,29.0,2.0,-1.0,-28.0,-21.0,1651024554021732.0,2
895,14.0,17.0,9.0,-86.0,-28.0,0.0,42.0,27.0,1651024554021732.0,2
896,-1.0,2.0,28.0,93.0,59.0,18.0,4.0,2.0,1651024554023689.0,2
897,-14.0,-29.0,-22.0,5.0,3.0,-2.0,-26.0,-17.0,1651024554023689.0,2
898,9.0,10.0,-19.0,-56.0,-33.0,-13.0,16.0,11.0,1651024554036336.0,2
899,-7.0,10.0,13.0,-11.0,-6.0,-16.0,-52.0,-28.0,1651024554036336.0,2
900,6.0,-10.0,-28.0,-23.0,-12.0,14.0,81.0,33.0,1651024554043347.0,2
901,7.0,34.0,26.0,-44.0,-8.0,-12.0,-8.0,2.0,1651024554043347.0,2
902,-6.0,-13.0,57.0,118.0,38.0,0.0,-35.0,-16.0,1651024554059462.0,2
903,-7.0,-31.0,-68.0,-17.0,-8.0,14.0,23.0,4.0,1651024554059462.0,2
904,-5.0,-6.0,0.0,-19.0,-8.0,-9.0,-40.0,-16.0,1651024554061416.0,2
905,2.0,-5.0,-9.0,5.0,-4.0,5.0,25.0,9.0,1651024554061416.0,2
906,2.0,2.0,-32.0,-61.0,-25.0,-12.0,0.0,-2.0,1651024554081657.0,2
907,3.0,14.0,47.0,53.0,30.0,13.0,-1.0,0.0,1651024554081657.0,2
908,-2.0,0.0,12.0,5.0,-7.0,-12.0,-21.0,-11.0,1651024554081657.0,2
909,-9.0,0.0,1.0,-10.0,-7.0,-4.0,16.0,-9.0,1651024554081657.0,2
910,15.0,9.0,-15.0,-57.0,-24.0,1.0,78.0,42.0,1651024554104760.0,2
911,-3.0,-6.0,2.0,84.0,33.0,5.0,-5.0,-3.0,1651024554104760.0,2
912,2.0,2.0,0.0,-14.0,-5.0,7.0,21.0,13.0,1651024554105702.0,2
913,1.0,9.0,4.0,14.0,3.0,-2.0,-30.0,-10.0,1651024554105702.0,2
914,-9.0,-11.0,-14.0,0.0,6.0,1.0,-27.0,-13.0,1651024554118719.0,2
915,6.0,20.0,31.0,-18.0,-8.0,-5.0,-3.0,3.0,1651024554118719.0,2
916,-4.0,-6.0,-48.0,-35.0,-13.0,-9.0,-23.0,-10.0,1651024554119652.0,2
917,-1.0,8.0,54.0,39.0,2.0,3.0,6.0,2.0,1651024554119652.0,2
918,-5.0,-13.0,-15.0,-4.0,19.0,5.0,10.0,2.0,1651024554141656.0,2
919,-4.0,-10.0,-9.0,4.0,-10.0,-6.0,-11.0,-4.0,1651024554141656.0,2
920,6.0,16.0,20.0,-18.0,-7.0,7.0,23.0,7.0,1651024554141656.0,2
921,6.0,2.0,-29.0,-9.0,-4.0,1.0,11.0,9.0,1651024554141656.0,2
922,-5.0,-24.0,-3.0,48.0,19.0,5.0,-16.0,-7.0,1651024554163920.0,2
923,-3.0,1.0,12.0,-27.0,-6.0,-8.0,9.0,0.0,1651024554163920.0,2
924,4.0,8.0,12.0,25.0,0.0,3.0,-4.0,-2.0,1651024554164918.0,2
925,2.0,-4.0,5.0,8.0,8.0,8.0,13.0,8.0,1651024554164918.0,2
926,0.0,9.0,-3.0,-19.0,1.0,-2.0,-18.0,-8.0,1651024554179003.0,2
927,-5.0,-16.0,-11.0,17.0,2.0,-11.0,-3.0,-4.0,1651024554179003.0,2
928,3.0,11.0,15.0,10.0,3.0,1.0,-10.0,-1.0,1651024554179933.0,2
929,2.0,-6.0,-4.0,7.0,3.0,7.0,17.0,7.0,1651024554179933.0,2
930,-3.0,-2.0,-30.0,-49.0,-19.0,-10.0,-27.0,-15.0,1651024554202341.0,2
931,5.0,9.0,32.0,67.0,20.0,12.0,16.0,9.0,1651024554202341.0,2
932,1.0,8.0,13.0,-2.0,-4.0,-6.0,0.0,0.0,1651024554203343.0,2
933,-3.0,-8.0,-7.0,-12.0,6.0,-4.0,-7.0,-2.0,1651024554203343.0,2
934,3.0,11.0,8.0,-1.0,5.0,2.0,-7.0,-4.0,1651024554224002.0,2
935,5.0,10.0,-1.0,-5.0,-3.0,2.0,8.0,9.0,1651024554224002.0,2
936,-7.0,-22.0,-37.0,-14.0,-9.0,-7.0,-6.0,-6.0,1651024554224973.0,2
937,-2.0,6.0,21.0,13.0,1.0,-2.0,-14.0,-6.0,1651024554224973.0,2
938,1.0,3.0,9.0,8.0,0.0,2.0,3.0,1.0,1651024554238968.0,2
939,1.0,-4.0,-5.0,0.0,4.0,5.0,6.0,4.0,1651024554238968.0,2
940,-3.0,-9.0,0.0,-10.0,-1.0,-1.0,-4.0,-4.0,1651024554239926.0,2
941,5.0,7.0,2.0,11.0,3.0,2.0,9.0,5.0,1651024554239926.0,2
942,-5.0,-11.0,-16.0,-3.0,-6.0,-7.0,6.0,2.0,1651024554260869.0,2
943,-1.0,-2.0,-4.0,-11.0,-1.0,7.0,-9.0,-5.0,1651024554260869.0,2
944,-1.0,1.0,11.0,-3.0,-1.0,2.0,-4.0,-2.0,1651024554261869.0,2
945,-2.0,-3.0,-6.0,-10.0,-4.0,-7.0,-6.0,-4.0,1651024554261869.0,2
946,3.0,9.0,15.0,18.0,4.0,7.0,11.0,2.0,1651024554275866.0,2
947,-2.0,-5.0,9.0,-5.0,1.0,-2.0,-9.0,-5.0,1651024554275866.0,2
948,2.0,1.0,-7.0,0.0,-3.0,-4.0,7.0,2.0,1651024554283849.0,2
949,-1.0,-1.0,-9.0,-18.0,-15.0,-6.0,-11.0,-6.0,1651024554283849.0,2
950,0.0,5.0,17.0,27.0,15.0,3.0,-3.0,-3.0,1651024554298802.0,2
951,-1.0,-16.0,-30.0,-38.0,-12.0,-6.0,-2.0,-1.0,1651024554298802.0,2
952,-4.0,4.0,23.0,7.0,10.0,-1.0,-6.0,-6.0,1651024554299760.0,2
953,2.0,-5.0,-2.0,17.0,5.0,5.0,3.0,5.0,1651024554299760.0,2
954,0.0,2.0,-1.0,-18.0,-12.0,-5.0,-7.0,-2.0,1651024554321769.0,2
955,-4.0,-4.0,-10.0,-12.0,-6.0,-5.0,-13.0,-6.0,1651024554321769.0,2
956,1.0,1.0,9.0,10.0,3.0,8.0,32.0,10.0,1651024554321769.0,2
957,-6.0,-18.0,-13.0,2.0,-2.0,0.0,-4.0,-3.0,1651024554321769.0,2
958,2.0,8.0,14.0,-4.0,-1.0,3.0,-1.0,2.0,1651024554335982.0,2
959,-2.0,-3.0,-11.0,2.0,6.0,4.0,-11.0,-2.0,1651024554335982.0,2
960,-1.0,-3.0,-4.0,-10.0,-7.0,-4.0,25.0,8.0,1651024554344068.0,2
961,-5.0,-13.0,-15.0,-11.0,-10.0,-3.0,-2.0,-3.0,1651024554344068.0,2
962,1.0,-1.0,4.0,-2.0,2.0,8.0,12.0,6.0,1651024554359087.0,2
963,0.0,7.0,12.0,-11.0,-3.0,-5.0,-14.0,-6.0,1651024554359087.0,2
964,0.0,0.0,5.0,13.0,4.0,-2.0,-13.0,-5.0,1651024554360026.0,2
965,2.0,8.0,10.0,4.0,7.0,1.0,5.0,3.0,1651024554360026.0,2
966,-1.0,-2.0,-1.0,-5.0,-5.0,-2.0,4.0,2.0,1651024554380926.0,2
967,-2.0,-6.0,-19.0,-3.0,-6.0,-3.0,-6.0,-5.0,1651024554380926.0,2
968,3.0,3.0,-2.0,-10.0,-13.0,-3.0,-7.0,1.0,1651024554381930.0,2
969,-3.0,-1.0,27.0,17.0,18.0,1.0,4.0,0.0,1651024554381930.0,2
970,-2.0,-6.0,-26.0,-4.0,1.0,3.0,-4.0,-3.0,1651024554396047.0,2
971,-2.0,3.0,12.0,1.0,-3.0,-6.0,-3.0,-3.0,1651024554396047.0,2
972,2.0,5.0,1.0,1.0,-1.0,4.0,0.0,1.0,1651024554404049.0,2
973,0.0,3.0,-9.0,-10.0,-7.0,-2.0,-5.0,-2.0,1651024554404049.0,2
974,-1.0,1.0,7.0,8.0,-1.0,-1.0,2.0,-1.0,1651024554418968.0,2
975,-4.0,-7.0,-4.0,2.0,2.0,-3.0,-20.0,-10.0,1651024554418968.0,2
976,1.0,2.0,6.0,2.0,2.0,0.0,8.0,5.0,1651024554419944.0,2
977,1.0,1.0,-9.0,-7.0,-4.0,0.0,-1.0,-2.0,1651024554419944.0,2
978,5.0,9.0,3.0,-7.0,1.0,2.0,4.0,3.0,1651024554440886.0,2
979,2.0,3.0,-2.0,4.0,4.0,2.0,5.0,1.0,1651024554440886.0,2
980,-5.0,-6.0,4.0,-2.0,-3.0,-5.0,-20.0,-9.0,1651024554448925.0,2
981,1.0,3.0,-15.0,-5.0,3.0,2.0,3.0,2.0,1651024554448925.0,2
982,0.0,-1.0,0.0,-5.0,-6.0,-6.0,-2.0,1.0,1651024554455853.0,2
983,0.0,-4.0,-3.0,2.0,-6.0,0.0,2.0,2.0,1651024554455853.0,2
984,-2.0,1.0,4.0,-9.0,1.0,-1.0,-7.0,-3.0,1651024554464291.0,2
985,3.0,4.0,6.0,7.0,7.0,4.0,4.0,2.0,1651024554464291.0,2
986,-4.0,-2.0,-10.0,7.0,-1.0,-5.0,-20.0,-9.0,1651024554479051.0,2
987,4.0,5.0,11.0,4.0,1.0,0.0,6.0,4.0,1651024554479051.0,2
988,-4.0,-13.0,-6.0,-8.0,-6.0,0.0,-1.0,-2.0,1651024554485918.0,2
989,-5.0,-4.0,-8.0,-6.0,-15.0,-5.0,-4.0,-2.0,1651024554485918.0,2
990,0.0,1.0,1.0,5.0,22.0,4.0,1.0,-1.0,1651024554500903.0,2
991,1.0,10.0,3.0,-1.0,-8.0,-2.0,3.0,0.0,1651024554500903.0,2
992,4.0,2.0,9.0,12.0,9.0,6.0,2.0,1.0,1651024554501883.0,2
993,-3.0,-6.0,-5.0,3.0,-1.0,-2.0,-12.0,-5.0,1651024554501883.0,2
994,1.0,-5.0,-7.0,-7.0,-8.0,1.0,11.0,4.0,1651024554515856.0,2
995,-2.0,-3.0,-4.0,1.0,0.0,-2.0,5.0,-1.0,1651024554515856.0,2
996,-1.0,7.0,10.0,-1.0,-7.0,-4.0,-8.0,-1.0,1651024554523988.0,2
997,1.0,-2.0,-1.0,-2.0,7.0,2.0,-3.0,-4.0,1651024554523988.0,2
998,-2.0,-2.0,3.0,14.0,7.0,3.0,9.0,4.0,1651024554539006.0,2
999,-1.0,-1.0,-1.0,1.0,1.0,0.0,6.0,1.0,1651024554539006.0,2
1000,-2.0,4.0,2.0,-7.0,-7.0,-8.0,-16.0,-9.0,1651024554539936.0,2
1001,2.0,0.0,2.0,5.0,-1.0,5.0,28.0,10.0,1651024554539936.0,2
1002,-4.0,-3.0,-5.0,-8.0,-7.0,-5.0,-5.0,-2.0,1651024554561698.0,2
1003,0.0,0.0,5.0,-11.0,-2.0,1.0,4.0,1.0,1651024554561698.0,2
1004,1.0,-1.0,-22.0,11.0,6.0,2.0,-8.0,-1.0,1651024554562155.0,2
1005,1.0,6.0,14.0,12.0,10.0,4.0,13.0,4.0,1651024554562155.0,2
1006,0.0,3.0,3.0,0.0,-17.0,-5.0,-3.0,-3.0,1651024554584162.0,2
1007,0.0,-1.0,1.0,9.0,17.0,6.0,7.0,3.0,1651024554584162.0,2
1008,-3.0,2.0,5.0,-11.0,-3.0,-4.0,-4.0,-3.0,1651024554585107.0,2
1009,-1.0,-3.0,-6.0,-2.0,0.0,-2.0,-7.0,-3.0,1651024554585107.0,2
1010,2.0,7.0,10.0,2.0,4.0,5.0,7.0,3.0,1651024554599126.0,2
1011,-2.0,-11.0,-6.0,-5.0,-11.0,-4.0,-7.0,-4.0,1651024554599126.0,2
1012,-1.0,-2.0,-12.0,-1.0,2.0,-1.0,0.0,-1.0,1651024554599126.0,2
1013,-2.0,-3.0,-1.0,-7.0,-6.0,-4.0,-7.0,-2.0,1651024554599126.0,2
1014,0.0,1.0,2.0,0.0,-7.0,-2.0,-1.0,1.0,1651024554621123.0,2
1015,-1.0,-2.0,-10.0,1.0,4.0,2.0,11.0,7.0,1651024554621123.0,2
1016,3.0,1.0,-4.0,5.0,9.0,3.0,4.0,3.0,1651024554622133.0,2
1017,-2.0,5.0,19.0,-8.0,-8.0,-1.0,-2.0,-3.0,1651024554622133.0,2
1018,-3.0,-8.0,-18.0,-8.0,-5.0,-3.0,1.0,-1.0,1651024554644883.0,2
1019,0.0,-4.0,0.0,5.0,3.0,-1.0,-4.0,-2.0,1651024554644883.0,2
1020,0.0,-4.0,-2.0,-11.0,-9.0,0.0,5.0,3.0,1651024554644883.0,2
1021,1.0,2.0,0.0,5.0,9.0,-2.0,-8.0,-5.0,1651024554644883.0,2
1022,1.0,-1.0,-3.0,-8.0,3.0,2.0,-4.0,1.0,1651024554659002.0,2
1023,0.0,4.0,12.0,10.0,3.0,2.0,3.0,0.0,1651024554659002.0,2
1024,0.0,-4.0,-4.0,-14.0,-11.0,-6.0,0.0,0.0,1651024554659958.0,2
1025,1.0,2.0,-9.0,4.0,-4.0,3.0,-5.0,-3.0,1651024554659958.0,2
1026,-3.0,-1.0,7.0,0.0,9.0,-2.0,0.0,-3.0,1651024554681049.0,2
1027,1.0,5.0,3.0,-4.0,-6.0,2.0,8.0,4.0,1651024554681049.0,2
1028,-2.0,-13.0,-20.0,-4.0,0.0,0.0,-4.0,-3.0,1651024554682013.0,2
1029,1.0,2.0,3.0,-7.0,-2.0,0.0,0.0,1.0,1651024554682013.0,2
1030,0.0,-2.0,-6.0,-1.0,-6.0,-1.0,0.0,-2.0,1651024554703982.0,2
1031,-2.0,-1.0,0.0,-3.0,-2.0,-5.0,-11.0,-6.0,1651024554703982.0,2
1032,1.0,13.0,21.0,12.0,6.0,5.0,5.0,2.0,1651024554704993.0,2
1033,-1.0,-2.0,-9.0,0.0,-3.0,-5.0,4.0,3.0,1651024554704993.0,2
1034,-7.0,-19.0,-5.0,-13.0,-3.0,1.0,1.0,-3.0,1651024554719009.0,2
1035,-2.0,-3.0,-10.0,-1.0,2.0,-1.0,-4.0,-2.0,1651024554719009.0,2
1036,1.0,2.0,4.0,13.0,3.0,1.0,2.0,-1.0,1651024554719939.0,2
1037,1.0,0.0,-2.0,-1.0,-4.0,-3.0,1.0,2.0,1651024554719939.0,2
1038,2.0,5.0,3.0,5.0,2.0,-1.0,0.0,1.0,1651024554741005.0,2
1039,-3.0,2.0,3.0,-3.0,-6.0,-5.0,-11.0,-7.0,1651024554741005.0,2
1040,-3.0,-2.0,4.0,-3.0,5.0,3.0,8.0,2.0,1651024554741978.0,2
1041,-3.0,-3.0,-2.0,-4.0,-2.0,0.0,-10.0,-4.0,1651024554741978.0,2
1042,-1.0,-7.0,-5.0,-3.0,-1.0,0.0,13.0,3.0,1651024554763921.0,2
1043,1.0,0.0,3.0,-8.0,-4.0,-1.0,-5.0,-1.0,1651024554763921.0,2
1044,-3.0,-2.0,4.0,20.0,7.0,-1.0,-8.0,-6.0,1651024554764923.0,2
1045,5.0,1.0,-2.0,1.0,7.0,3.0,7.0,4.0,1651024554764923.0,2
1046,0.0,1.0,4.0,5.0,-5.0,-2.0,-10.0,-3.0,1651024554778972.0,2
1047,0.0,-2.0,-17.0,-5.0,-8.0,1.0,5.0,3.0,1651024554778972.0,2
1048,-2.0,3.0,3.0,-7.0,12.0,-1.0,-2.0,-2.0,1651024554779943.0,2
1049,0.0,6.0,12.0,5.0,5.0,5.0,18.0,5.0,1651024554779943.0,2
1050,1.0,-6.0,-15.0,-1.0,-4.0,-1.0,0.0,0.0,1651024554800930.0,2
1051,1.0,-1.0,0.0,-6.0,-6.0,-5.0,-3.0,-1.0,1651024554800930.0,2
1052,-2.0,-2.0,-5.0,-4.0,-7.0,-1.0,-7.0,-3.0,1651024554801861.0,2
1053,-3.0,0.0,7.0,-5.0,-3.0,-4.0,-8.0,-5.0,1651024554801861.0,2
1054,2.0,7.0,5.0,10.0,8.0,1.0,5.0,4.0,1651024554824134.0,2
1055,-2.0,-3.0,3.0,-3.0,-6.0,-2.0,-1.0,-1.0,1651024554824134.0,2
1056,0.0,-2.0,-7.0,-1.0,-2.0,-1.0,-1.0,0.0,1651024554824134.0,2
1057,1.0,-1.0,-2.0,2.0,4.0,2.0,-2.0,2.0,1651024554824134.0,2
1058,-2.0,4.0,16.0,-5.0,-6.0,-2.0,-3.0,0.0,1651024554839164.0,2
1059,0.0,-6.0,-14.0,2.0,4.0,0.0,-5.0,-5.0,1651024554839164.0,2
1060,0.0,0.0,5.0,-4.0,-1.0,-3.0,0.0,0.0,1651024554839164.0,2
1061,0.0,-1.0,-6.0,-7.0,-6.0,-2.0,-6.0,-4.0,1651024554839164.0,2
1062,2.0,4.0,4.0,8.0,2.0,2.0,0.0,2.0,1651024554861255.0,2
1063,-2.0,-2.0,-3.0,-3.0,2.0,1.0,5.0,2.0,1651024554861255.0,2
1064,1.0,1.0,4.0,-2.0,-2.0,0.0,-13.0,-4.0,1651024554862185.0,2
1065,-1.0,1.0,-7.0,-15.0,-8.0,-3.0,8.0,2.0,1651024554862185.0,2
1066,-2.0,-6.0,-1.0,22.0,11.0,1.0,-5.0,-4.0,1651024554884188.0,2
1067,-3.0,2.0,12.0,17.0,6.0,-1.0,-10.0,-5.0,1651024554884188.0,2
1068,3.0,3.0,1.0,-3.0,-4.0,0.0,15.0,8.0,1651024554884188.0,2
1069,-2.0,-1.0,5.0,3.0,-1.0,-3.0,-8.0,-5.0,1651024554884188.0,2
1070,1.0,2.0,-22.0,-15.0,-3.0,-2.0,1.0,-3.0,1651024554899104.0,2
1071,-5.0,-13.0,-14.0,-7.0,-4.0,-1.0,-2.0,-3.0,1651024554899104.0,2
1072,1.0,0.0,5.0,-4.0,-13.0,-1.0,-6.0,-2.0,1651024554899104.0,2
1073,-8.0,-17.0,-11.0,-2.0,17.0,-1.0,-1.0,-3.0,1651024554899104.0,2
1074,1.0,10.0,16.0,3.0,-6.0,-3.0,2.0,2.0,1651024554921326.0,2
1075,1.0,3.0,-1.0,0.0,0.0,1.0,4.0,4.0,1651024554921326.0,2
1076,1.0,2.0,-13.0,-1.0,-2.0,-1.0,0.0,-1.0,1651024554922255.0,2
1077,-1.0,0.0,1.0,1.0,-1.0,-5.0,-15.0,-7.0,1651024554922255.0,2
1078,0.0,1.0,4.0,1.0,2.0,2.0,-4.0,3.0,1651024554943996.0,2
1079,1.0,8.0,4.0,-4.0,-1.0,0.0,6.0,0.0,1651024554943996.0,2
1080,-4.0,-17.0,-10.0,1.0,-1.0,-1.0,1.0,-1.0,1651024554944926.0,2
1081,1.0,3.0,1.0,1.0,-7.0,-2.0,-1.0,-2.0,1651024554944926.0,2
1082,-1.0,-1.0,0.0,5.0,8.0,-1.0,-5.0,-5.0,1651024554959083.0,2
1083,2.0,3.0,7.0,4.0,5.0,1.0,-1.0,2.0,1651024554959083.0,2
1084,0.0,11.0,10.0,-13.0,-3.0,-5.0,-16.0,-4.0,1651024554959083.0,2
1085,-4.0,-18.0,-22.0,15.0,-5.0,2.0,19.0,6.0,1651024554959083.0,2
1086,2.0,1.0,-7.0,-26.0,-9.0,-3.0,-3.0,-3.0,1651024554980880.0,2
1087,1.0,4.0,21.0,24.0,15.0,3.0,7.0,4.0,1651024554980880.0,2
1088,-2.0,-10.0,-16.0,3.0,6.0,0.0,-6.0,-3.0,1651024554981808.0,2
1089,2.0,11.0,21.0,-4.0,-3.0,-1.0,-11.0,-2.0,1651024554981808.0,2
1090,-1.0,-5.0,-12.0,-6.0,-10.0,-1.0,16.0,5.0,1651024555004748.0,2
1091,-2.0,-2.0,5.0,-5.0,-4.0,0.0,-4.0,-4.0,1651024555004748.0,2
1092,2.0,9.0,12.0,-1.0,0.0,-3.0,-1.0,-2.0,1651024555004748.0,2
1093,2.0,5.0,10.0,2.0,-3.0,3.0,7.0,5.0,1651024555004748.0,2
1094,-3.0,2.0,11.0,3.0,-2.0,0.0,-2.0,-2.0,1651024555018736.0,2
1095,-3.0,-9.0,-31.0,-6.0,12.0,-4.0,-20.0,-10.0,1651024555018736.0,2
1096,1.0,-2.0,3.0,9.0,2.0,7.0,27.0,13.0,1651024555019706.0,2
1097,0.0,0.0,-7.0,-8.0,-7.0,-4.0,-3.0,-3.0,1651024555019706.0,2
1098,-1.0,-1.0,11.0,3.0,-5.0,-2.0,-7.0,-3.0,1651024555040953.0,2
1099,-4.0,-5.0,-10.0,-4.0,-5.0,-2.0,3.0,2.0,1651024555040953.0,2
1100,0.0,1.0,3.0,3.0,6.0,3.0,-2.0,-2.0,1651024555041888.0,2
1101,1.0,4.0,4.0,-8.0,3.0,0.0,-14.0,-4.0,1651024555041888.0,2
1102,-7.0,-17.0,-22.0,-3.0,-4.0,-2.0,13.0,4.0,1651024555064186.0,2
1103,2.0,6.0,11.0,4.0,-8.0,-2.0,-15.0,-2.0,1651024555064186.0,2
1104,0.0,0.0,-1.0,3.0,5.0,2.0,16.0,4.0,1651024555064948.0,2
1105,-2.0,-1.0,0.0,-15.0,-1.0,-1.0,-2.0,-3.0,1651024555064948.0,2
1106,5.0,3.0,1.0,-4.0,2.0,5.0,3.0,5.0,1651024555078948.0,2
1107,-3.0,-4.0,-3.0,-2.0,-6.0,-6.0,-2.0,-4.0,1651024555078948.0,2
1108,-1.0,6.0,16.0,2.0,-7.0,2.0,-3.0,0.0,1651024555079948.0,2
1109,1.0,1.0,-5.0,3.0,9.0,-1.0,-3.0,-2.0,1651024555079948.0,2
1110,2.0,5.0,3.0,-3.0,-1.0,-4.0,-11.0,-4.0,1651024555100949.0,2
1111,0.0,-13.0,-15.0,-2.0,2.0,8.0,25.0,10.0,1651024555100949.0,2
1112,-2.0,-3.0,-9.0,-4.0,-6.0,-5.0,-8.0,-4.0,1651024555101882.0,2
1113,-2.0,6.0,25.0,4.0,-1.0,-4.0,-5.0,-1.0,1651024555101882.0,2
1114,-2.0,-9.0,-19.0,8.0,5.0,-2.0,-1.0,-2.0,1651024555124000.0,2
1115,2.0,7.0,9.0,-5.0,-3.0,0.0,5.0,3.0,1651024555124000.0,2
1116,-1.0,-3.0,-3.0,0.0,1.0,-2.0,-5.0,-4.0,1651024555124957.0,2
1117,0.0,-5.0,-8.0,4.0,1.0,2.0,-4.0,-2.0,1651024555124957.0,2
1118,1.0,6.0,6.0,-7.0,1.0,4.0,5.0,4.0,1651024555138960.0,2
1119,2.0,9.0,15.0,9.0,-2.0,-2.0,-10.0,-2.0,1651024555138960.0,2
1120,-3.0,-11.0,-5.0,8.0,15.0,4.0,16.0,5.0,1651024555139912.0,2
1121,2.0,1.0,-5.0,10.0,1.0,0.0,-5.0,0.0,1651024555139912.0,2
1122,-2.0,-1.0,-7.0,-6.0,-8.0,-5.0,-1.0,-2.0,1651024555160902.0,2
1123,-1.0,-2.0,-3.0,-16.0,-18.0,-7.0,0.0,-4.0,1651024555160902.0,2
1124,1.0,6.0,-2.0,-9.0,9.0,3.0,-5.0,-2.0,1651024555161833.0,2
1125,-4.0,-1.0,9.0,-9.0,-2.0,-2.0,-7.0,-4.0,1651024555161833.0,2
1126,2.0,-2.0,-8.0,27.0,10.0,4.0,6.0,0.0,1651024555183808.0,2
1127,-1.0,0.0,2.0,-10.0,-2.0,0.0,-1.0,1.0,1651024555183808.0,2
1128,-4.0,-5.0,-6.0,-3.0,-15.0,-10.0,-11.0,-6.0,1651024555184733.0,2
1129,-1.0,-5.0,0.0,12.0,10.0,8.0,16.0,9.0,1651024555184733.0,2
1130,1.0,2.0,-1.0,-14.0,-1.0,-2.0,-1.0,0.0,1651024555198695.0,2
1131,-1.0,3.0,3.0,-4.0,-4.0,-3.0,-5.0,-6.0,1651024555198695.0,2
1132,1.0,0.0,0.0,-10.0,-4.0,2.0,1.0,2.0,1651024555199694.0,2
1133,-2.0,-3.0,-12.0,3.0,-12.0,-6.0,7.0,0.0,1651024555199694.0,2
1134,-2.0,0.0,8.0,4.0,6.0,1.0,-8.0,-6.0,1651024555221279.0,2
1135,6.0,15.0,29.0,0.0,5.0,4.0,6.0,5.0,1651024555221279.0,2
1136,-4.0,-28.0,-35.0,2.0,3.0,1.0,-4.0,-5.0,1651024555222218.0,2
1137,-1.0,-3.0,-3.0,-1.0,0.0,-3.0,-26.0,-8.0,1651024555222218.0,2
1138,2.0,6.0,6.0,-3.0,-5.0,1.0,4.0,2.0,1651024555244216.0,2
1139,-3.0,1.0,0.0,-3.0,-10.0,-3.0,-18.0,-9.0,1651024555244216.0,2
1140,1.0,2.0,-3.0,-4.0,7.0,-7.0,6.0,4.0,1651024555244216.0,2
1141,-1.0,-1.0,-3.0,-1.0,-5.0,0.0,1.0,1.0,1651024555244216.0,2
1142,-2.0,-3.0,3.0,-1.0,-2.0,-4.0,-8.0,-4.0,1651024555259112.0,2
1143,0.0,-3.0,-8.0,-1.0,3.0,1.0,-5.0,-2.0,1651024555259112.0,2
1144,-1.0,6.0,12.0,8.0,-3.0,3.0,4.0,2.0,1651024555259112.0,2
1145,2.0,-5.0,-11.0,-2.0,0.0,-1.0,7.0,2.0,1651024555259112.0,2
1146,0.0,3.0,10.0,2.0,-3.0,-21.0,-11.0,-2.0,1651024555281116.0,2
1147,1.0,-3.0,-5.0,0.0,4.0,16.0,15.0,0.0,1651024555281116.0,2
1148,-2.0,2.0,1.0,0.0,-4.0,5.0,-1.0,1.0,1651024555282059.0,2
1149,-1.0,-4.0,-3.0,-1.0,1.0,1.0,8.0,2.0,1651024555282059.0,2
1150,-1.0,-3.0,-7.0,-3.0,3.0,10.0,2.0,0.0,1651024555303938.0,2
1151,-2.0,3.0,1.0,6.0,4.0,-19.0,-2.0,-1.0,1651024555303938.0,2
1152,1.0,1.0,7.0,2.0,-13.0,-8.0,-8.0,-4.0,1651024555304935.0,2
1153,0.0,-1.0,11.0,-5.0,15.0,19.0,8.0,3.0,1651024555304935.0,2
1154,-2.0,-11.0,-23.0,-4.0,-13.0,-14.0,-3.0,-1.0,1651024555319918.0,2
1155,-4.0,-7.0,-6.0,4.0,-2.0,0.0,3.0,3.0,1651024555319918.0,2
1156,1.0,7.0,9.0,-1.0,5.0,3.0,-4.0,-2.0,1651024555325947.0,2
1157,3.0,5.0,2.0,2.0,-2.0,-9.0,2.0,1.0,1651024555325947.0,2
1158,1.0,3.0,11.0,2.0,7.0,16.0,2.0,1.0,1651024555341083.0,2
1159,-3.0,-6.0,-11.0,-2.0,-2.0,-11.0,10.0,4.0,1651024555341083.0,2
1160,0.0,2.0,2.0,-8.0,-14.0,1.0,-5.0,-3.0,1651024555342013.0,2
1161,2.0,1.0,-1.0,1.0,-2.0,-14.0,8.0,1.0,1651024555342013.0,2
1162,-1.0,-1.0,-1.0,0.0,7.0,19.0,-3.0,-1.0,1651024555364186.0,2
1163,3.0,6.0,1.0,6.0,6.0,10.0,8.0,-1.0,1651024555364186.0,2
1164,-5.0,-4.0,11.0,0.0,-12.0,-24.0,-9.0,-3.0,1651024555364836.0,2
1165,-5.0,-6.0,-13.0,0.0,11.0,14.0,-1.0,-2.0,1651024555364836.0,2
1166,-1.0,4.0,-14.0,-7.0,4.0,11.0,6.0,0.0,1651024555386990.0,2
1167,1.0,2.0,3.0,1.0,-5.0,1.0,1.0,3.0,1651024555386990.0,2
1168,3.0,1.0,-14.0,-4.0,2.0,4.0,-3.0,-1.0,1651024555387919.0,2
1169,-1.0,0.0,7.0,0.0,-13.0,-16.0,1.0,-2.0,1651024555387919.0,2
1170,-4.0,-9.0,8.0,3.0,-4.0,-11.0,-3.0,-4.0,1651024555400951.0,2
1171,5.0,14.0,-1.0,-2.0,8.0,12.0,2.0,1.0,1651024555400951.0,2
1172,-2.0,10.0,0.0,-1.0,1.0,-4.0,-5.0,-2.0,1651024555401898.0,2
1173,-2.0,-4.0,-10.0,-4.0,-8.0,-1.0,-2.0,2.0,1651024555401898.0,2
1174,1.0,4.0,8.0,4.0,5.0,-1.0,-2.0,0.0,1651024555424190.0,2
1175,-1.0,-12.0,-7.0,6.0,5.0,-2.0,-3.0,1.0,1651024555424190.0,2
1176,3.0,3.0,6.0,2.0,-2.0,-2.0,3.0,0.0,1651024555424861.0,2
1177,1.0,5.0,10.0,0.0,-9.0,4.0,7.0,2.0,1651024555424861.0,2
1178,0.0,0.0,11.0,6.0,12.0,0.0,-6.0,-5.0,1651024555439824.0,2
1179,-6.0,-9.0,-16.0,-7.0,-30.0,-8.0,-3.0,0.0,1651024555439824.0,2
1180,1.0,-6.0,-35.0,-13.0,30.0,11.0,4.0,4.0,1651024555446810.0,2
1181,1.0,1.0,-3.0,-1.0,-1.0,5.0,1.0,0.0,1651024555446810.0,2
1182,4.0,7.0,17.0,6.0,-17.0,-11.0,9.0,3.0,1651024555461783.0,2
1183,1.0,9.0,60.0,25.0,23.0,4.0,-14.0,-2.0,1651024555461783.0,2
1184,-1.0,-7.0,-46.0,-7.0,-9.0,-5.0,8.0,0.0,1651024555461783.0,2
1185,1.0,-3.0,-39.0,-26.0,-16.0,1.0,-31.0,-5.0,1651024555461783.0,2
1186,-5.0,-17.0,-15.0,-10.0,-2.0,-2.0,4.0,3.0,1651024555484193.0,2
1187,4.0,18.0,4.0,0.0,-4.0,-3.0,10.0,1.0,1651024555484193.0,2
1188,-1.0,7.0,64.0,30.0,7.0,2.0,-10.0,0.0,1651024555484833.0,2
1189,1.0,8.0,-20.0,3.0,15.0,-2.0,2.0,-6.0,1651024555484833.0,2
1190,0.0,10.0,24.0,5.0,-13.0,-3.0,-4.0,4.0,1651024555497872.0,2
1191,-5.0,-19.0,-45.0,-14.0,3.0,-1.0,-1.0,-5.0,1651024555497872.0,2
1192,-2.0,-4.0,-5.0,-11.0,1.0,2.0,6.0,2.0,1651024555505788.0,2
1193,6.0,4.0,14.0,5.0,-19.0,-5.0,7.0,1.0,1651024555505788.0,2
1194,-7.0,-6.0,1.0,2.0,16.0,1.0,-8.0,-1.0,1651024555520739.0,2
1195,0.0,-27.0,16.0,10.0,-7.0,0.0,5.0,4.0,1651024555520739.0,2
1196,-3.0,44.0,6.0,1.0,16.0,3.0,-6.0,-8.0,1651024555528782.0,2
1197,0.0,-5.0,2.0,7.0,3.0,1.0,2.0,6.0,1651024555528782.0,2
1198,6.0,18.0,1.0,-3.0,-9.0,-2.0,4.0,1.0,1651024555543680.0,2
1199,-1.0,-1.0,-11.0,-10.0,0.0,-6.0,-3.0,-2.0,1651024555543680.0,2
1200,1.0,-36.0,-11.0,-5.0,-9.0,5.0,-1.0,4.0,1651024555544704.0,2
1201,-3.0,-2.0,6.0,0.0,5.0,-2.0,1.0,-2.0,1651024555544704.0,2
1202,2.0,21.0,0.0,-1.0,1.0,0.0,0.0,-2.0,1651024555558640.0,2
1203,-5.0,-14.0,-8.0,-3.0,-1.0,-1.0,-1.0,0.0,1651024555558640.0,2
1204,7.0,1.0,-2.0,-2.0,-6.0,-2.0,-1.0,-1.0,1651024555566663.0,2
1205,-5.0,8.0,20.0,8.0,8.0,-1.0,2.0,-3.0,1651024555566663.0,2
1206,-4.0,0.0,-5.0,1.0,-2.0,1.0,1.0,-1.0,1651024555581012.0,2
1207,-16.0,-39.0,-21.0,-14.0,-2.0,-1.0,-3.0,-3.0,1651024555581012.0,2
1208,3.0,14.0,10.0,4.0,-4.0,-1.0,0.0,-1.0,1651024555581943.0,2
1209,6.0,13.0,8.0,4.0,2.0,-3.0,1.0,-1.0,1651024555581943.0,2
1210,5.0,3.0,-8.0,-4.0,-5.0,0.0,1.0,4.0,1651024555603803.0,2
1211,9.0,22.0,9.0,3.0,5.0,2.0,0.0,3.0,1651024555603803.0,2
1212,-3.0,-14.0,0.0,6.0,10.0,3.0,2.0,-2.0,1651024555604802.0,2
1213,1.0,-21.0,-1.0,-2.0,-3.0,-1.0,1.0,2.0,1651024555604802.0,2
1214,-11.0,-1.0,-8.0,-3.0,-7.0,-3.0,-6.0,-6.0,1651024555628738.0,2
1215,0.0,16.0,0.0,-4.0,-5.0,5.0,0.0,1.0,1651024555628738.0,2
1216,-2.0,-11.0,0.0,-1.0,4.0,-3.0,-1.0,-1.0,1651024555628738.0,2
1217,10.0,16.0,7.0,5.0,6.0,0.0,0.0,5.0,1651024555628738.0,2
1218,-10.0,-17.0,-6.0,-2.0,-6.0,-3.0,0.0,-5.0,1651024555641701.0,2
1219,8.0,5.0,4.0,2.0,4.0,3.0,0.0,2.0,1651024555641701.0,2
1220,-7.0,4.0,-6.0,-3.0,-9.0,-3.0,-3.0,-4.0,1651024555641701.0,2
1221,-3.0,5.0,-10.0,-8.0,-6.0,-2.0,-1.0,-2.0,1651024555641701.0,2
1222,2.0,-21.0,-4.0,-2.0,3.0,-2.0,-1.0,-1.0,1651024555663534.0,2
1223,1.0,14.0,2.0,-1.0,-4.0,-1.0,-1.0,0.0,1651024555663534.0,2
1224,9.0,12.0,12.0,4.0,-1.0,1.0,0.0,2.0,1651024555664516.0,2
1225,-10.0,-3.0,2.0,0.0,2.0,-1.0,-1.0,-4.0,1651024555664516.0,2
1226,0.0,-36.0,-15.0,-4.0,1.0,1.0,0.0,0.0,1651024555687133.0,2
1227,-9.0,-32.0,-18.0,-7.0,-1.0,-4.0,-3.0,-1.0,1651024555687133.0,2
1228,-2.0,-2.0,4.0,0.0,-4.0,0.0,-1.0,0.0,1651024555687871.0,2
1229,-2.0,3.0,-3.0,-1.0,0.0,0.0,1.0,1.0,1651024555687871.0,2
1230,-4.0,6.0,7.0,3.0,4.0,2.0,-1.0,-5.0,1651024555700903.0,2
1231,-2.0,-12.0,0.0,1.0,0.0,-2.0,0.0,0.0,1651024555700903.0,2
1232,-7.0,-6.0,-7.0,-4.0,-5.0,-2.0,0.0,-1.0,1651024555701835.0,2
1233,-1.0,-18.0,0.0,0.0,-2.0,1.0,-2.0,0.0,1651024555701835.0,2
1234,6.0,14.0,-2.0,0.0,4.0,0.0,3.0,2.0,1651024555724082.0,2
1235,2.0,19.0,3.0,1.0,-4.0,0.0,1.0,0.0,1651024555724082.0,2
1236,-4.0,-20.0,-1.0,-1.0,1.0,0.0,1.0,1.0,1651024555724082.0,2
1237,2.0,8.0,7.0,6.0,9.0,1.0,1.0,0.0,1651024555724082.0,2
1238,2.0,20.0,-9.0,-3.0,-3.0,0.0,0.0,2.0,1651024555747411.0,2
1239,-3.0,-14.0,0.0,0.0,1.0,-3.0,-1.0,-1.0,1651024555747411.0,2
1240,3.0,9.0,2.0,-2.0,-12.0,-6.0,0.0,1.0,1651024555747866.0,2
1241,1.0,1.0,0.0,-1.0,1.0,3.0,-2.0,0.0,1651024555747866.0,2
1242,3.0,7.0,8.0,2.0,4.0,0.0,1.0,1.0,1651024555760861.0,2
1243,0.0,-9.0,-18.0,-7.0,-4.0,-1.0,1.0,-1.0,1651024555760861.0,2
1244,2.0,15.0,6.0,3.0,0.0,1.0,1.0,0.0,1651024555761832.0,2
1245,1.0,-2.0,-4.0,-3.0,-2.0,-2.0,0.0,0.0,1651024555761832.0,2
1246,-1.0,-10.0,3.0,0.0,2.0,0.0,-2.0,0.0,1651024555783966.0,2
1247,4.0,15.0,7.0,2.0,5.0,-1.0,-1.0,0.0,1651024555783966.0,2
1248,1.0,-8.0,-3.0,-1.0,-1.0,2.0,1.0,0.0,1651024555784897.0,2
1249,-2.0,2.0,-5.0,-2.0,-3.0,-13.0,-5.0,-2.0,1651024555784897.0,2
1250,-1.0,-8.0,-1.0,-2.0,-3.0,-2.0,-1.0,-2.0,1651024555806766.0,2
1251,-2.0,6.0,2.0,2.0,-2.0,0.0,-1.0,-4.0,1651024555806766.0,2
1252,4.0,-2.0,1.0,-1.0,-1.0,4.0,-2.0,1.0,1651024555807762.0,2
1253,-7.0,-4.0,-4.0,-5.0,-6.0,-4.0,-3.0,-3.0,1651024555807762.0,2
1254,-2.0,3.0,3.0,0.0,1.0,-7.0,-1.0,0.0,1651024555821736.0,2
1255,2.0,10.0,1.0,1.0,8.0,20.0,2.0,2.0,1651024555821736.0,2
1256,0.0,-4.0,-2.0,-4.0,-9.0,-2.0,1.0,-1.0,1651024555821736.0,2
1257,-1.0,1.0,0.0,1.0,6.0,-1.0,-1.0,1.0,1651024555821736.0,2
1258,0.0,-10.0,0.0,5.0,4.0,-5.0,-4.0,0.0,1651024555843357.0,2
1259,3.0,6.0,3.0,0.0,-5.0,-7.0,0.0,1.0,1651024555843357.0,2
1260,-4.0,1.0,0.0,-1.0,3.0,2.0,0.0,-1.0,1651024555844361.0,2
1261,-1.0,3.0,0.0,-3.0,-6.0,0.0,-1.0,-2.0,1651024555844361.0,2
1262,2.0,3.0,1.0,-1.0,0.0,1.0,0.0,0.0,1651024555866719.0,2
1263,0.0,5.0,1.0,0.0,2.0,1.0,-2.0,0.0,1651024555866719.0,2
1264,-4.0,-4.0,-2.0,1.0,0.0,-3.0,1.0,-2.0,1651024555867720.0,2
1265,8.0,5.0,4.0,2.0,0.0,1.0,1.0,1.0,1651024555867720.0,2
1266,-9.0,-13.0,-3.0,0.0,-4.0,3.0,1.0,-3.0,1651024555881689.0,2
1267,1.0,6.0,1.0,0.0,2.0,-5.0,-2.0,-2.0,1651024555881689.0,2
1268,3.0,12.0,3.0,0.0,-1.0,-2.0,0.0,0.0,1651024555881689.0,2
1269,-3.0,-16.0,-5.0,-2.0,-2.0,2.0,0.0,0.0,1651024555881689.0,2
1270,3.0,39.0,5.0,1.0,3.0,6.0,-1.0,-1.0,1651024555904189.0,2
1271,-2.0,-15.0,-2.0,-1.0,-5.0,-5.0,0.0,1.0,1651024555904189.0,2
1272,-9.0,6.0,-5.0,-2.0,-2.0,-2.0,-3.0,-3.0,1651024555904704.0,2
1273,1.0,5.0,2.0,0.0,0.0,2.0,3.0,3.0,1651024555904704.0,2
1274,4.0,6.0,3.0,0.0,-2.0,0.0,0.0,2.0,1651024555927388.0,2
1275,-1.0,-10.0,-2.0,0.0,2.0,-4.0,-1.0,-2.0,1651024555927388.0,2
1276,0.0,-2.0,2.0,2.0,1.0,0.0,-1.0,-3.0,1651024555927894.0,2
1277,-2.0,-24.0,-4.0,-1.0,-7.0,3.0,0.0,-1.0,1651024555927894.0,2
1278,2.0,5.0,-2.0,1.0,14.0,-2.0,-2.0,-2.0,1651024555940929.0,2
1279,-2.0,7.0,-1.0,1.0,-2.0,1.0,0.0,0.0,1651024555940929.0,2
1280,2.0,-2.0,0.0,-1.0,-3.0,-1.0,0.0,2.0,1651024555941859.0,2
1281,4.0,9.0,-2.0,-1.0,-2.0,-1.0,-1.0,1.0,1651024555941859.0,2
1282,-7.0,-19.0,-5.0,-3.0,-5.0,-1.0,-1.0,-4.0,1651024555963989.0,2
1283,-3.0,1.0,-1.0,0.0,0.0,-1.0,0.0,0.0,1651024555963989.0,2
1284,-1.0,-8.0,-2.0,-1.0,0.0,1.0,-3.0,-1.0,1651024555964947.0,2
1285,1.0,1.0,0.0,-1.0,-4.0,-1.0,-1.0,-1.0,1651024555964947.0,2
1286,3.0,12.0,4.0,3.0,4.0,2.0,0.0,0.0,1651024555987085.0,2
1287,0.0,4.0,1.0,-1.0,-2.0,-2.0,-2.0,0.0,1651024555987085.0,2
1288,0.0,-23.0,-3.0,0.0,-1.0,-1.0,1.0,1.0,1651024555988014.0,2
1289,-3.0,5.0,2.0,2.0,0.0,0.0,0.0,-1.0,1651024555988014.0,2
1290,-1.0,-7.0,-1.0,-2.0,-3.0,0.0,-1.0,-1.0,1651024556000980.0,2
1291,0.0,3.0,2.0,0.0,-4.0,-3.0,-1.0,-3.0,1651024556000980.0,2
1292,5.0,-9.0,-4.0,-2.0,0.0,1.0,0.0,2.0,1651024556001976.0,2
1293,-5.0,-4.0,-2.0,2.0,3.0,1.0,-1.0,-2.0,1651024556001976.0,2
1294,0.0,-5.0,-1.0,-1.0,-5.0,-1.0,0.0,1.0,1651024556032042.0,2
1295,-1.0,4.0,1.0,-2.0,0.0,-1.0,-1.0,-1.0,1651024556032042.0,2
1296,3.0,4.0,-2.0,-1.0,0.0,-1.0,0.0,0.0,1651024556033042.0,2
1297,-1.0,-2.0,-3.0,-3.0,0.0,-1.0,0.0,-1.0,1651024556033042.0,2
1298,1.0,2.0,3.0,-2.0,-4.0,0.0,0.0,2.0,1651024556047369.0,2
1299,1.0,-3.0,-1.0,0.0,-6.0,-2.0,0.0,-2.0,1651024556047369.0,2
1300,-3.0,1.0,-2.0,-1.0,3.0,-4.0,-2.0,-3.0,1651024556047849.0,2
1301,0.0,-6.0,0.0,2.0,14.0,7.0,-1.0,1.0,1651024556047849.0,2
1302,-1.0,8.0,4.0,-1.0,-6.0,-1.0,0.0,-1.0,1651024556060885.0,2
1303,0.0,2.0,-1.0,1.0,2.0,0.0,-2.0,1.0,1651024556060885.0,2
1304,-7.0,-8.0,-2.0,-2.0,-9.0,-2.0,-2.0,-3.0,1651024556061814.0,2
1305,-5.0,-33.0,-6.0,-4.0,-3.0,-3.0,1.0,0.0,1651024556061814.0,2
1306,3.0,10.0,-1.0,-1.0,2.0,0.0,-1.0,1.0,1651024556083835.0,2
1307,-3.0,-10.0,1.0,-1.0,-1.0,-1.0,2.0,0.0,1651024556083835.0,2
1308,1.0,6.0,1.0,-1.0,0.0,-1.0,1.0,0.0,1651024556084836.0,2
1309,4.0,12.0,5.0,0.0,-3.0,-1.0,0.0,1.0,1651024556084836.0,2
1310,-9.0,-41.0,-19.0,-4.0,-1.0,-2.0,-2.0,-4.0,1651024556106844.0,2
1311,-7.0,-17.0,-8.0,0.0,0.0,-1.0,-3.0,-4.0,1651024556106844.0,2
1312,-7.0,-13.0,0.0,2.0,1.0,2.0,-3.0,-2.0,1651024556107774.0,2
1313,-1.0,8.0,0.0,1.0,2.0,-1.0,0.0,0.0,1651024556107774.0,2
1314,3.0,-4.0,0.0,-1.0,-4.0,0.0,0.0,2.0,1651024556121743.0,2
1315,1.0,8.0,-1.0,-2.0,1.0,-1.0,2.0,2.0,1651024556121743.0,2
1316,-1.0,-8.0,-3.0,-1.0,0.0,0.0,0.0,-1.0,1651024556121743.0,2
1317,-2.0,3.0,-1.0,0.0,-3.0,-2.0,0.0,-5.0,1651024556121743.0,2
1318,-1.0,3.0,4.0,1.0,1.0,0.0,0.0,1.0,1651024556143356.0,2
1319,1.0,3.0,0.0,0.0,2.0,0.0,-1.0,-1.0,1651024556143356.0,2
1320,4.0,21.0,5.0,-1.0,-6.0,0.0,0.0,1.0,1651024556144358.0,2
1321,-5.0,-7.0,-5.0,-6.0,-3.0,-3.0,-1.0,-2.0,1651024556144358.0,2
1322,4.0,4.0,1.0,3.0,10.0,0.0,1.0,0.0,1651024556167360.0,2
1323,-4.0,1.0,5.0,3.0,-1.0,1.0,-1.0,-1.0,1651024556167360.0,2
1324,1.0,10.0,2.0,0.0,2.0,0.0,0.0,-1.0,1651024556167360.0,2
1325,-2.0,-8.0,-3.0,-2.0,-5.0,-2.0,-1.0,-1.0,1651024556167360.0,2
1326,1.0,5.0,-1.0,0.0,-1.0,-1.0,-2.0,1.0,1651024556180997.0,0
1327,2.0,6.0,0.0,-4.0,0.0,-1.0,0.0,0.0,1651024556180997.0,0
1328,-3.0,-6.0,-3.0,-1.0,-1.0,1.0,-1.0,0.0,1651024556181944.0,0
1329,0.0,3.0,-1.0,-2.0,-4.0,-3.0,-1.0,1.0,1651024556181944.0,0
1330,1.0,1.0,1.0,-3.0,-2.0,3.0,0.0,1.0,1651024556204187.0,0
1331,8.0,-6.0,3.0,4.0,7.0,6.0,3.0,5.0,1651024556204187.0,0
1332,-17.0,26.0,0.0,-3.0,-2.0,-3.0,-4.0,-7.0,1651024556204836.0,0
1333,-1.0,-12.0,-2.0,1.0,4.0,1.0,1.0,-1.0,1651024556204836.0,0
1334,1.0,1.0,-1.0,0.0,-2.0,-2.0,0.0,0.0,1651024556226966.0,0
1335,2.0,1.0,-4.0,-4.0,-7.0,-2.0,0.0,0.0,1651024556226966.0,0
1336,3.0,-7.0,0.0,0.0,3.0,0.0,1.0,2.0,1651024556227897.0,0
1337,-1.0,7.0,-1.0,0.0,-3.0,-1.0,-1.0,-1.0,1651024556227897.0,0
1338,-4.0,-2.0,1.0,-3.0,-4.0,0.0,0.0,-1.0,1651024556240927.0,0
1339,-5.0,-10.0,-4.0,-4.0,-9.0,-1.0,-3.0,-3.0,1651024556240927.0,0
1340,5.0,-2.0,0.0,4.0,17.0,1.0,1.0,2.0,1651024556248907.0,0
1341,-1.0,2.0,0.0,3.0,-1.0,1.0,0.0,-2.0,1651024556248907.0,0
1342,4.0,10.0,3.0,2.0,-3.0,-1.0,1.0,0.0,1651024556263827.0,0
1343,0.0,8.0,-1.0,0.0,-1.0,0.0,0.0,0.0,1651024556263827.0,0
1344,4.0,0.0,1.0,-2.0,-6.0,-1.0,2.0,0.0,1651024556270965.0,0
1345,4.0,2.0,0.0,-2.0,0.0,1.0,0.0,1.0,1651024556270965.0,0
1346,0.0,2.0,0.0,0.0,1.0,0.0,-1.0,0.0,1651024556287419.0,0
1347,-2.0,-1.0,0.0,1.0,0.0,-2.0,0.0,1.0,1651024556287419.0,0
1348,3.0,-5.0,-3.0,-1.0,-3.0,-2.0,-1.0,1.0,1651024556287419.0,0
1349,0.0,4.0,-2.0,-1.0,0.0,-3.0,-2.0,-2.0,1651024556287419.0,0
1350,-3.0,-3.0,0.0,1.0,-2.0,2.0,1.0,-1.0,1651024556300997.0,0
1351,2.0,-4.0,4.0,2.0,11.0,2.0,1.0,2.0,1651024556300997.0,0
1352,6.0,16.0,0.0,0.0,-2.0,0.0,0.0,0.0,1651024556309043.0,0
1353,0.0,4.0,3.0,-2.0,-1.0,1.0,0.0,0.0,1651024556309043.0,0
1354,-3.0,-7.0,-4.0,-2.0,-4.0,-4.0,-2.0,-1.0,1651024556323935.0,0
1355,1.0,8.0,1.0,-3.0,-4.0,0.0,-2.0,0.0,1651024556323935.0,0
1356,-2.0,-6.0,-1.0,1.0,2.0,1.0,0.0,0.0,1651024556325075.0,0
1357,-3.0,-2.0,1.0,-1.0,-3.0,0.0,-2.0,0.0,1651024556325075.0,0
1358,2.0,3.0,1.0,-2.0,-11.0,-1.0,-1.0,0.0,1651024556346945.0,0
1359,-2.0,-1.0,-3.0,3.0,19.0,1.0,-1.0,-3.0,1651024556346945.0,0
1360,3.0,-3.0,0.0,0.0,-5.0,-1.0,-2.0,1.0,1651024556347872.0,0
1361,-7.0,-24.0,-4.0,-2.0,-4.0,-2.0,-1.0,0.0,1651024556347872.0,0
1362,-2.0,-11.0,0.0,1.0,1.0,2.0,0.0,0.0,1651024556360904.0,0
1363,-3.0,-4.0,-2.0,-5.0,-7.0,-3.0,-1.0,-1.0,1651024556360904.0,0
1364,0.0,-2.0,0.0,-2.0,0.0,-1.0,1.0,-2.0,1651024556368937.0,0
1365,3.0,8.0,1.0,-1.0,3.0,-1.0,0.0,1.0,1651024556368937.0,0
1366,-1.0,-2.0,0.0,0.0,1.0,-2.0,-1.0,0.0,1651024556391822.0,0
1367,-2.0,-5.0,-1.0,-2.0,-4.0,-3.0,-1.0,-1.0,1651024556391822.0,0
1368,-2.0,-1.0,-2.0,1.0,0.0,0.0,0.0,-2.0,1651024556392818.0,0
1369,2.0,5.0,1.0,4.0,-2.0,1.0,-1.0,-1.0,1651024556392818.0,0
1370,-4.0,4.0,-2.0,-1.0,0.0,-1.0,-1.0,-2.0,1651024556406960.0,0
1371,0.0,7.0,-1.0,0.0,-1.0,1.0,1.0,0.0,1651024556406960.0,0
1372,-3.0,-2.0,-4.0,-4.0,-3.0,-1.0,-1.0,0.0,1651024556407890.0,0
1373,1.0,2.0,-1.0,-1.0,0.0,0.0,-1.0,-1.0,1651024556407890.0,0
1374,-1.0,0.0,0.0,-1.0,1.0,2.0,1.0,-1.0,1651024556420918.0,0
1375,2.0,-2.0,-2.0,1.0,0.0,1.0,0.0,0.0,1651024556420918.0,0
1376,-1.0,-7.0,-1.0,0.0,-1.0,-1.0,1.0,-1.0,1651024556428897.0,0
1377,-1.0,1.0,-1.0,-1.0,-5.0,-2.0,0.0,1.0,1651024556428897.0,0
1378,4.0,14.0,1.0,0.0,-3.0,-3.0,-1.0,-1.0,1651024556443956.0,0
1379,0.0,2.0,0.0,6.0,18.0,4.0,1.0,-2.0,1651024556443956.0,0
1380,5.0,12.0,8.0,0.0,-5.0,-1.0,1.0,2.0,1651024556444954.0,0
1381,-5.0,6.0,-5.0,-1.0,3.0,-1.0,-3.0,-3.0,1651024556444954.0,0
1382,3.0,-2.0,1.0,-2.0,-6.0,0.0,1.0,1.0,1651024556466895.0,0
1383,1.0,-3.0,-1.0,-3.0,-10.0,-3.0,-2.0,1.0,1651024556466895.0,0
1384,-3.0,-6.0,-1.0,-1.0,2.0,-1.0,-2.0,-2.0,1651024556467893.0,0
1385,4.0,4.0,2.0,-1.0,0.0,1.0,2.0,0.0,1651024556467893.0,0
1386,-4.0,-4.0,-2.0,1.0,1.0,-2.0,0.0,-1.0,1651024556480925.0,0
1387,-3.0,9.0,2.0,1.0,-2.0,0.0,-1.0,-1.0,1651024556480925.0,0
1388,-1.0,-6.0,-3.0,-2.0,-1.0,-2.0,0.0,0.0,1651024556488904.0,0
1389,4.0,1.0,2.0,0.0,-1.0,0.0,0.0,2.0,1651024556488904.0,0
1390,-5.0,-4.0,-6.0,-1.0,4.0,0.0,-1.0,-2.0,1651024556504215.0,0
1391,-5.0,0.0,-3.0,-2.0,-3.0,-2.0,-1.0,-3.0,1651024556504215.0,0
1392,-6.0,-12.0,-1.0,0.0,-4.0,-1.0,-1.0,1.0,1651024556504955.0,0
1393,0.0,9.0,2.0,-1.0,-3.0,-5.0,-1.0,0.0,1651024556504955.0,0
1394,-3.0,-26.0,1.0,0.0,2.0,6.0,-1.0,0.0,1651024556526845.0,0
1395,2.0,-3.0,-2.0,0.0,10.0,-2.0,-1.0,0.0,1651024556526845.0,0
1396,0.0,6.0,-3.0,-2.0,-2.0,0.0,-3.0,-1.0,1651024556527779.0,0
1397,-7.0,-21.0,-4.0,-2.0,-2.0,-3.0,-2.0,-2.0,1651024556527779.0,0
1398,0.0,5.0,2.0,0.0,1.0,-1.0,0.0,-1.0,1651024556540743.0,0
1399,-2.0,-27.0,-5.0,-3.0,-10.0,-3.0,0.0,0.0,1651024556540743.0,0
1400,-7.0,-1.0,-2.0,1.0,4.0,-1.0,-1.0,-1.0,1651024556548786.0,0
1401,2.0,8.0,-1.0,0.0,1.0,2.0,1.0,1.0,1651024556548786.0,0
1402,1.0,2.0,-3.0,-4.0,-5.0,-4.0,-2.0,-2.0,1651024556564187.0,0
1403,-3.0,-1.0,-1.0,-2.0,-5.0,-3.0,0.0,-1.0,1651024556564187.0,0
1404,3.0,1.0,2.0,-1.0,-8.0,-1.0,0.0,1.0,1651024556564712.0,0
1405,0.0,3.0,1.0,3.0,14.0,0.0,1.0,1.0,1651024556564712.0,0
1406,1.0,22.0,1.0,-1.0,3.0,5.0,0.0,-1.0,1651024556586782.0,0
1407,1.0,-7.0,-4.0,-1.0,-3.0,0.0,-1.0,1.0,1651024556586782.0,0
1408,-6.0,-12.0,1.0,0.0,-5.0,-2.0,0.0,-3.0,1651024556587716.0,0
1409,0.0,2.0,1.0,-2.0,-5.0,1.0,0.0,-1.0,1651024556587716.0,0
1410,0.0,-8.0,-5.0,-3.0,5.0,-1.0,-2.0,-1.0,1651024556609857.0,0
1411,1.0,3.0,-1.0,2.0,-4.0,0.0,-1.0,-1.0,1651024556609857.0,0
1412,-1.0,-2.0,-3.0,-3.0,1.0,-1.0,-1.0,-1.0,1651024556609857.0,0
1413,1.0,0.0,4.0,3.0,-2.0,0.0,-1.0,-2.0,1651024556609857.0,0
1414,-1.0,-6.0,3.0,4.0,3.0,0.0,0.0,0.0,1651024556623753.0,0
1415,1.0,5.0,1.0,-4.0,-7.0,-2.0,0.0,1.0,1651024556623753.0,0
1416,2.0,0.0,-2.0,-1.0,0.0,2.0,1.0,0.0,1651024556624750.0,0
1417,1.0,-1.0,-3.0,-2.0,2.0,1.0,0.0,0.0,1651024556624750.0,0
1418,3.0,5.0,0.0,0.0,-4.0,-3.0,0.0,2.0,1651024556646691.0,0
1419,-4.0,-22.0,-2.0,-4.0,-15.0,-7.0,-3.0,-3.0,1651024556646691.0,0
1420,-5.0,-2.0,-1.0,-2.0,18.0,3.0,-2.0,-2.0,1651024556647689.0,0
1421,-2.0,1.0,2.0,1.0,0.0,1.0,0.0,0.0,1651024556647689.0,0
1422,3.0,6.0,7.0,12.0,3.0,1.0,1.0,3.0,1651024556669697.0,0
1423,-3.0,-8.0,-17.0,-5.0,-3.0,-1.0,-2.0,-1.0,1651024556669697.0,0
1424,2.0,0.0,0.0,-2.0,-9.0,-4.0,1.0,0.0,1651024556670627.0,0
1425,-2.0,-3.0,-2.0,-5.0,2.0,1.0,-1.0,-1.0,1651024556670627.0,0
1426,0.0,6.0,1.0,-8.0,-8.0,-5.0,-2.0,-1.0,1651024556684213.0,0
1427,4.0,11.0,4.0,0.0,5.0,2.0,0.0,0.0,1651024556684213.0,0
1428,3.0,2.0,5.0,8.0,2.0,2.0,0.0,1.0,1651024556684917.0,0
1429,-2.0,-1.0,3.0,1.0,-1.0,1.0,-1.0,0.0,1651024556684917.0,0
1430,1.0,-1.0,3.0,4.0,-3.0,-2.0,-1.0,-2.0,1651024556707088.0,0
1431,-1.0,8.0,15.0,-3.0,-2.0,-2.0,0.0,-1.0,1651024556707088.0,0
1432,0.0,-5.0,-38.0,-23.0,-12.0,-6.0,-1.0,0.0,1651024556708085.0,0
1433,-2.0,1.0,7.0,-2.0,-3.0,3.0,-1.0,-2.0,1651024556708085.0,0
1434,-3.0,-9.0,1.0,5.0,18.0,3.0,0.0,-1.0,1651024556729091.0,0
1435,1.0,7.0,14.0,14.0,0.0,1.0,1.0,1.0,1651024556729091.0,0
1436,-1.0,-1.0,4.0,5.0,3.0,-1.0,-1.0,-2.0,1651024556730026.0,0
1437,1.0,0.0,-11.0,-3.0,-9.0,-3.0,2.0,-1.0,1651024556730026.0,0
1438,2.0,0.0,-1.0,-17.0,-12.0,-4.0,-2.0,0.0,1651024556744057.0,0
1439,-6.0,-9.0,4.0,12.0,14.0,2.0,0.0,-3.0,1651024556744057.0,0
1440,4.0,11.0,-15.0,-19.0,-7.0,0.0,1.0,3.0,1651024556745018.0,0
1441,-3.0,-20.0,-15.0,-4.0,-3.0,-3.0,0.0,0.0,1651024556745018.0,0
1442,-2.0,7.0,21.0,31.0,16.0,3.0,-2.0,-3.0,1651024556766905.0,0
1443,5.0,6.0,-11.0,-7.0,-6.0,0.0,1.0,2.0,1651024556766905.0,0
1444,-3.0,-8.0,2.0,-5.0,-4.0,-2.0,-2.0,-2.0,1651024556767872.0,0
1445,0.0,-2.0,4.0,-9.0,-2.0,-2.0,-1.0,0.0,1651024556767872.0,0
1446,-3.0,-4.0,-1.0,14.0,5.0,1.0,2.0,2.0,1651024556789911.0,0
1447,1.0,6.0,6.0,-2.0,-3.0,0.0,-1.0,-1.0,1651024556789911.0,0
1448,0.0,-5.0,-4.0,7.0,5.0,1.0,1.0,-1.0,1651024556789911.0,0
1449,0.0,9.0,9.0,-6.0,-2.0,0.0,2.0,0.0,1651024556789911.0,0
1450,1.0,1.0,-10.0,-7.0,-11.0,-4.0,-2.0,0.0,1651024556803936.0,0
1451,-1.0,3.0,-7.0,-6.0,-7.0,0.0,1.0,0.0,1651024556803936.0,0
1452,-2.0,-3.0,2.0,-2.0,6.0,-3.0,-6.0,-2.0,1651024556805006.0,0
1453,-1.0,-3.0,-11.0,2.0,2.0,2.0,0.0,0.0,1651024556805006.0,0
1454,2.0,6.0,9.0,2.0,0.0,-1.0,1.0,1.0,1651024556826869.0,0
1455,0.0,-1.0,-5.0,1.0,8.0,3.0,2.0,3.0,1651024556826869.0,0
1456,0.0,2.0,2.0,-7.0,-9.0,-3.0,-1.0,-3.0,1651024556827808.0,0
1457,2.0,10.0,29.0,21.0,3.0,0.0,-1.0,-1.0,1651024556827808.0,0
1458,-2.0,-1.0,-14.0,-2.0,-2.0,-1.0,-2.0,-1.0,1651024556849809.0,0
1459,-4.0,-6.0,-1.0,-12.0,-5.0,-2.0,-3.0,-2.0,1651024556849809.0,0
1460,-4.0,-15.0,-19.0,-3.0,-3.0,-2.0,-2.0,-2.0,1651024556849809.0,0
1461,2.0,4.0,16.0,2.0,2.0,0.0,0.0,1.0,1651024556849809.0,0
1462,-1.0,-3.0,-10.0,0.0,-6.0,-2.0,-2.0,-3.0,1651024556864184.0,0
1463,0.0,0.0,3.0,-8.0,1.0,-1.0,-2.0,-1.0,1651024556864184.0,0
1464,3.0,4.0,6.0,21.0,7.0,4.0,1.0,1.0,1651024556864859.0,0
1465,-5.0,-10.0,0.0,-2.0,3.0,0.0,0.0,0.0,1651024556864859.0,0
1466,-2.0,-7.0,-21.0,-15.0,-4.0,-2.0,-3.0,-1.0,1651024556887032.0,0
1467,-1.0,2.0,8.0,-1.0,-2.0,-1.0,0.0,1.0,1651024556887032.0,0
1468,5.0,11.0,9.0,-5.0,-1.0,2.0,-1.0,0.0,1651024556887986.0,0
1469,1.0,2.0,-3.0,5.0,-2.0,-3.0,-1.0,1.0,1651024556887986.0,0
1470,-1.0,1.0,2.0,-16.0,-7.0,-2.0,0.0,0.0,1651024556909960.0,0
1471,-4.0,-12.0,-17.0,-16.0,-8.0,-4.0,-3.0,-5.0,1651024556909960.0,0
1472,-1.0,6.0,16.0,14.0,0.0,-1.0,-1.0,-1.0,1651024556909960.0,0
1473,0.0,-3.0,-8.0,15.0,10.0,-2.0,-2.0,-2.0,1651024556909960.0,0
1474,-5.0,-9.0,2.0,-19.0,-5.0,-5.0,-12.0,-3.0,1651024556924089.0,0
1475,4.0,12.0,3.0,18.0,2.0,5.0,11.0,6.0,1651024556924089.0,0
1476,5.0,11.0,16.0,-7.0,-5.0,-1.0,4.0,4.0,1651024556924089.0,0
1477,-6.0,-7.0,4.0,-14.0,-6.0,-11.0,-5.0,-3.0,1651024556924089.0,3
1478,0.0,-9.0,-28.0,-2.0,19.0,30.0,5.0,3.0,1651024556946970.0,3
1479,2.0,8.0,13.0,20.0,5.0,-2.0,-7.0,-3.0,1651024556946970.0,3
1480,3.0,0.0,2.0,12.0,1.0,-4.0,1.0,1.0,1651024556947899.0,3
1481,0.0,-5.0,-22.0,-7.0,-13.0,4.0,2.0,-1.0,1651024556947899.0,3
1482,2.0,0.0,7.0,-4.0,-3.0,-10.0,3.0,1.0,1651024556969449.0,3
1483,2.0,13.0,19.0,1.0,6.0,-2.0,-3.0,-2.0,1651024556969449.0,3
1484,-4.0,-2.0,-4.0,0.0,-5.0,-4.0,-3.0,-4.0,1651024556970456.0,3
1485,-3.0,-4.0,-16.0,-3.0,5.0,7.0,4.0,4.0,1651024556970456.0,3
1486,0.0,8.0,34.0,18.0,-1.0,-4.0,-7.0,-5.0,1651024556984474.0,3
1487,-1.0,-15.0,-38.0,-27.0,-10.0,0.0,0.0,2.0,1651024556984474.0,3
1488,-7.0,-12.0,16.0,35.0,15.0,1.0,3.0,-2.0,1651024556985478.0,3
1489,8.0,15.0,-2.0,1.0,5.0,-2.0,0.0,2.0,1651024556985478.0,3
1490,-4.0,-9.0,-13.0,-16.0,-12.0,-2.0,-5.0,-5.0,1651024557005978.0,3
1491,2.0,11.0,18.0,9.0,2.0,-4.0,1.0,1.0,1651024557005978.0,3
1492,-1.0,-4.0,-16.0,-28.0,-7.0,2.0,-8.0,-4.0,1651024557006918.0,3
1493,0.0,1.0,6.0,-4.0,-6.0,10.0,17.0,7.0,1651024557006918.0,3
1494,2.0,6.0,4.0,5.0,1.0,-14.0,-13.0,-3.0,1651024557029912.0,3
1495,4.0,4.0,-21.0,-10.0,0.0,13.0,5.0,3.0,1651024557029912.0,3
1496,2.0,16.0,53.0,-17.0,-7.0,-7.0,-3.0,0.0,1651024557029912.0,3
1497,-8.0,-20.0,-15.0,32.0,4.0,-3.0,-5.0,-7.0,1651024557029912.0,3
1498,-3.0,-6.0,9.0,-4.0,-2.0,-8.0,0.0,-2.0,1651024557044183.0,3
1499,3.0,1.0,-19.0,11.0,9.0,1.0,2.0,1.0,1651024557044183.0,3
1500,-5.0,-13.0,-20.0,-13.0,-6.0,-6.0,-1.0,-5.0,1651024557044986.0,3
1501,6.0,15.0,18.0,-3.0,0.0,0.0,-2.0,3.0,1651024557044986.0,3
1502,0.0,-5.0,-2.0,2.0,-6.0,2.0,5.0,4.0,1651024557065946.0,3
1503,-1.0,-3.0,2.0,3.0,-1.0,-1.0,0.0,0.0,1651024557065946.0,3
1504,0.0,1.0,1.0,4.0,3.0,2.0,-4.0,-1.0,1651024557066875.0,3
1505,-3.0,-5.0,-11.0,2.0,3.0,-7.0,-13.0,-7.0,1651024557066875.0,3
1506,-1.0,4.0,-3.0,-1.0,-3.0,2.0,14.0,6.0,1651024557089705.0,3
1507,1.0,6.0,32.0,13.0,3.0,2.0,1.0,-1.0,1651024557089705.0,3
1508,-6.0,-14.0,-23.0,-11.0,-1.0,-4.0,-4.0,-2.0,1651024557089705.0,3
1509,2.0,7.0,24.0,-10.0,-7.0,1.0,0.0,2.0,1651024557089705.0,3
1510,2.0,-2.0,-10.0,6.0,8.0,1.0,-1.0,-1.0,1651024557104791.0,3
1511,-5.0,-7.0,-2.0,10.0,2.0,3.0,3.0,-3.0,1651024557104791.0,3
1512,2.0,4.0,5.0,6.0,0.0,-2.0,3.0,3.0,1651024557104791.0,3
1513,0.0,2.0,-9.0,-11.0,-3.0,-6.0,-5.0,-4.0,1651024557104791.0,3
1514,-1.0,-8.0,-4.0,9.0,8.0,6.0,15.0,5.0,1651024557126755.0,3
1515,-3.0,-3.0,2.0,-11.0,-14.0,-14.0,-6.0,-3.0,1651024557126755.0,3
1516,6.0,14.0,16.0,1.0,-6.0,11.0,6.0,5.0,1651024557126755.0,3
1517,-3.0,-4.0,-8.0,-3.0,11.0,-2.0,-1.0,0.0,1651024557126755.0,3
1518,2.0,8.0,1.0,-11.0,-5.0,-6.0,-6.0,-4.0,1651024557149945.0,3
1519,-2.0,-3.0,0.0,16.0,-2.0,-6.0,-5.0,-3.0,1651024557149945.0,3
1520,3.0,0.0,-9.0,10.0,6.0,5.0,8.0,4.0,1651024557149945.0,3
1521,0.0,4.0,4.0,-7.0,-7.0,-3.0,-17.0,-9.0,1651024557149945.0,3
1522,-3.0,-4.0,0.0,-1.0,-2.0,0.0,10.0,5.0,1651024557163926.0,3
1523,-1.0,1.0,11.0,-1.0,5.0,3.0,3.0,1.0,1651024557163926.0,3
1524,-2.0,0.0,-24.0,-4.0,-4.0,-1.0,-2.0,-1.0,1651024557164853.0,3
1525,-2.0,-7.0,-2.0,1.0,1.0,1.0,-2.0,-1.0,1651024557164853.0,3
1526,1.0,-7.0,-16.0,-5.0,6.0,6.0,-1.0,0.0,1651024557186935.0,3
1527,-4.0,-8.0,-1.0,-6.0,-3.0,-2.0,-2.0,-1.0,1651024557186935.0,3
1528,1.0,7.0,4.0,0.0,-8.0,0.0,-2.0,1.0,1651024557186935.0,3
1529,-2.0,-1.0,-3.0,0.0,3.0,-3.0,-2.0,1.0,1651024557186935.0,3
1530,3.0,14.0,29.0,4.0,4.0,0.0,8.0,2.0,1651024557209934.0,3
1531,4.0,1.0,-12.0,4.0,2.0,2.0,-3.0,3.0,1651024557209934.0,3
1532,-5.0,-9.0,2.0,-4.0,-5.0,-6.0,0.0,-2.0,1651024557209934.0,3
1533,-1.0,-1.0,2.0,0.0,-1.0,2.0,5.0,-1.0,1651024557209934.0,3
1534,-3.0,-2.0,0.0,-1.0,-10.0,-5.0,-5.0,0.0,1651024557222885.0,3
1535,0.0,5.0,-3.0,-3.0,3.0,5.0,-2.0,0.0,1651024557222885.0,3
1536,-3.0,-8.0,-16.0,0.0,4.0,2.0,-2.0,-2.0,1651024557230968.0,3
1537,0.0,-1.0,-7.0,-10.0,-7.0,0.0,8.0,1.0,1651024557230968.0,3
1538,1.0,3.0,3.0,5.0,-2.0,-2.0,-1.0,0.0,1651024557246781.0,3
1539,-4.0,3.0,5.0,-13.0,-6.0,0.0,-6.0,-3.0,1651024557246781.0,3
1540,-2.0,-3.0,1.0,-6.0,14.0,6.0,5.0,4.0,1651024557246781.0,3
1541,-1.0,-2.0,-12.0,4.0,2.0,1.0,-5.0,-1.0,1651024557246781.0,3
1542,0.0,-2.0,-2.0,1.0,-4.0,-3.0,-4.0,-3.0,1651024557269066.0,3
1543,-2.0,-1.0,4.0,-4.0,-5.0,-6.0,-3.0,-2.0,1651024557269066.0,3
1544,2.0,2.0,-6.0,6.0,0.0,-1.0,0.0,-2.0,1651024557270041.0,3
1545,-3.0,-12.0,-11.0,-15.0,-7.0,-3.0,3.0,-1.0,1651024557270041.0,3
1546,-5.0,-3.0,4.0,2.0,-8.0,-2.0,-5.0,-6.0,1651024557283308.0,3
1547,1.0,-1.0,-4.0,-4.0,0.0,4.0,8.0,2.0,1651024557283308.0,3
1548,3.0,5.0,14.0,1.0,7.0,2.0,-1.0,-1.0,1651024557291078.0,3
1549,1.0,5.0,12.0,13.0,8.0,1.0,2.0,2.0,1651024557291078.0,3
1550,-2.0,-11.0,-23.0,-5.0,0.0,0.0,-8.0,-1.0,1651024557306042.0,3
1551,-1.0,1.0,5.0,0.0,-5.0,-7.0,7.0,1.0,1651024557306042.0,3
1552,-2.0,-5.0,-5.0,-2.0,-1.0,2.0,10.0,2.0,1651024557306971.0,3
1553,3.0,10.0,-1.0,-20.0,-12.0,-1.0,1.0,0.0,1651024557306971.0,3
1554,-3.0,-5.0,26.0,20.0,11.0,1.0,-4.0,-3.0,1651024557329939.0,3
1555,1.0,-3.0,-15.0,-4.0,5.0,3.0,6.0,2.0,1651024557329939.0,3
1556,-1.0,3.0,7.0,0.0,1.0,-1.0,-8.0,-2.0,1651024557329939.0,3
1557,0.0,-3.0,-8.0,10.0,0.0,1.0,5.0,3.0,1651024557329939.0,3
1558,5.0,5.0,-6.0,-7.0,-3.0,1.0,0.0,-1.0,1651024557342944.0,3
1559,-4.0,-7.0,-10.0,-10.0,-5.0,-5.0,-8.0,-4.0,1651024557342944.0,3
1560,0.0,-2.0,2.0,0.0,-13.0,-4.0,-1.0,-1.0,1651024557350922.0,3
1561,-6.0,-10.0,-10.0,-12.0,2.0,-3.0,-7.0,-5.0,1651024557350922.0,3
1562,2.0,4.0,-4.0,0.0,3.0,4.0,0.0,2.0,1651024557366817.0,3
1563,1.0,8.0,18.0,19.0,3.0,0.0,-2.0,0.0,1651024557366817.0,3
1564,-3.0,-18.0,-25.0,-15.0,-1.0,3.0,-8.0,-4.0,1651024557366817.0,3
1565,3.0,7.0,13.0,13.0,-2.0,-3.0,19.0,6.0,1651024557366817.0,3
1566,-1.0,-4.0,-10.0,-8.0,-2.0,-2.0,1.0,0.0,1651024557389890.0,3
1567,1.0,5.0,14.0,0.0,5.0,2.0,-1.0,-2.0,1651024557389890.0,3
1568,-2.0,-4.0,-12.0,4.0,-2.0,-3.0,2.0,1.0,1651024557389890.0,3
1569,0.0,-4.0,-11.0,4.0,0.0,-2.0,-9.0,-5.0,1651024557389890.0,3
1570,-1.0,0.0,3.0,-3.0,-2.0,-1.0,-2.0,-2.0,1651024557402851.0,3
1571,1.0,5.0,-7.0,-11.0,-5.0,0.0,1.0,0.0,1651024557402851.0,3
1572,-4.0,-14.0,-5.0,-3.0,-1.0,-1.0,-8.0,-6.0,1651024557418866.0,3
1573,0.0,3.0,6.0,3.0,4.0,-1.0,-8.0,-2.0,1651024557418866.0,3
1574,-1.0,-9.0,-20.0,-4.0,-6.0,0.0,9.0,3.0,1651024557426789.0,3
1575,1.0,14.0,32.0,12.0,-1.0,-3.0,-5.0,-6.0,1651024557426789.0,3
1576,-1.0,0.0,-8.0,-2.0,-1.0,-5.0,3.0,1.0,1651024557426789.0,3
1577,-2.0,-6.0,-1.0,-4.0,3.0,7.0,0.0,-3.0,1651024557426789.0,3
1578,-1.0,2.0,13.0,0.0,1.0,1.0,1.0,2.0,1651024557449789.0,3
1579,-3.0,-11.0,-23.0,-6.0,-1.0,-3.0,-17.0,-6.0,1651024557449789.0,3
1580,4.0,11.0,25.0,9.0,3.0,2.0,15.0,6.0,1651024557450724.0,3
1581,0.0,-1.0,-8.0,2.0,-7.0,-5.0,-6.0,-4.0,1651024557450724.0,3
1582,-6.0,-12.0,-31.0,-15.0,-11.0,-4.0,-1.0,0.0,1651024557462819.0,3
1583,2.0,-4.0,2.0,-7.0,5.0,11.0,12.0,5.0,1651024557462819.0,3
1584,3.0,13.0,29.0,15.0,11.0,1.0,-4.0,-2.0,1651024557471801.0,3
1585,3.0,5.0,-2.0,3.0,3.0,3.0,-1.0,5.0,1651024557471801.0,3
1586,1.0,3.0,9.0,-3.0,-5.0,-6.0,-11.0,-6.0,1651024557485829.0,3
1587,0.0,-4.0,-19.0,-4.0,-3.0,-4.0,-7.0,-2.0,1651024557485829.0,3
1588,1.0,9.0,6.0,-2.0,-2.0,-3.0,-11.0,-5.0,1651024557486759.0,3
1589,3.0,9.0,18.0,6.0,4.0,5.0,18.0,5.0,1651024557486759.0,3
1590,2.0,7.0,1.0,-2.0,0.0,-2.0,-6.0,-3.0,1651024557509706.0,3
1591,-8.0,-26.0,-25.0,-4.0,0.0,-3.0,0.0,-4.0,1651024557509706.0,3
1592,-1.0,5.0,17.0,-1.0,-7.0,2.0,9.0,-1.0,1651024557510694.0,3
1593,4.0,8.0,15.0,-3.0,0.0,2.0,1.0,2.0,1651024557510694.0,3
1594,0.0,-4.0,-11.0,1.0,0.0,3.0,6.0,3.0,1651024557522684.0,3
1595,2.0,9.0,6.0,3.0,7.0,-1.0,-8.0,-2.0,1651024557522684.0,3
1596,-1.0,-2.0,-7.0,0.0,2.0,0.0,-1.0,-1.0,1651024557531677.0,3
1597,-3.0,-5.0,7.0,6.0,1.0,-4.0,1.0,-2.0,1651024557531677.0,3
1598,-2.0,-4.0,-7.0,-2.0,-4.0,-3.0,-6.0,-3.0,1651024557546737.0,3
1599,1.0,1.0,-4.0,-4.0,-9.0,-1.0,-8.0,-3.0,1651024557546737.0,3
1600,-3.0,-11.0,-19.0,-9.0,13.0,-3.0,2.0,4.0,1651024557546737.0,3
1601,2.0,2.0,0.0,-5.0,-5.0,6.0,5.0,3.0,1651024557546737.0,3
1602,1.0,1.0,8.0,5.0,-2.0,-2.0,-5.0,-4.0,1651024557576836.0,3
1603,-3.0,4.0,16.0,6.0,-3.0,-4.0,-2.0,-3.0,1651024557576836.0,3
1604,4.0,-5.0,-12.0,13.0,8.0,9.0,13.0,7.0,1651024557577836.0,3
1605,-2.0,-6.0,-21.0,-15.0,-5.0,-5.0,-4.0,-1.0,1651024557577836.0,3
1606,-3.0,-2.0,1.0,-13.0,-3.0,-3.0,-2.0,-1.0,1651024557591866.0,3
1607,2.0,-4.0,-3.0,29.0,10.0,5.0,6.0,1.0,1651024557591866.0,3
1608,3.0,13.0,16.0,0.0,-5.0,-1.0,-2.0,1.0,1651024557592815.0,3
1609,0.0,-5.0,-8.0,-1.0,0.0,-2.0,-7.0,-4.0,1651024557592815.0,3
1610,-2.0,-8.0,2.0,3.0,1.0,4.0,9.0,3.0,1651024557606775.0,3
1611,1.0,11.0,18.0,-20.0,-7.0,-2.0,5.0,1.0,1651024557606775.0,3
1612,-1.0,-1.0,-10.0,-1.0,-1.0,-1.0,-6.0,-3.0,1651024557606775.0,3
1613,-2.0,0.0,0.0,4.0,-1.0,-2.0,-7.0,-4.0,1651024557606775.0,3
1614,3.0,15.0,9.0,2.0,0.0,-1.0,-8.0,-2.0,1651024557629764.0,3
1615,-1.0,-7.0,-9.0,3.0,4.0,2.0,-12.0,-2.0,1651024557629764.0,3
1616,-6.0,-9.0,-3.0,-2.0,-8.0,-6.0,13.0,0.0,1651024557630703.0,3
1617,-4.0,-8.0,-6.0,-15.0,-10.0,-7.0,-8.0,-5.0,1651024557630703.0,3
1618,-4.0,-3.0,-12.0,-1.0,-1.0,-7.0,-17.0,-7.0,1651024557651876.0,3
1619,3.0,-3.0,-6.0,-2.0,3.0,3.0,20.0,9.0,1651024557651876.0,3
1620,3.0,3.0,3.0,2.0,2.0,3.0,0.0,-2.0,1651024557652806.0,3
1621,0.0,5.0,14.0,10.0,3.0,2.0,3.0,-1.0,1651024557652806.0,3
1622,0.0,0.0,6.0,-2.0,0.0,-2.0,2.0,-1.0,1651024557666771.0,3
1623,-2.0,-1.0,-13.0,-11.0,-18.0,-5.0,-8.0,-3.0,1651024557666771.0,3
1624,1.0,-4.0,-4.0,5.0,14.0,-2.0,-6.0,2.0,1651024557666771.0,3
1625,3.0,13.0,13.0,7.0,8.0,2.0,-11.0,-2.0,1651024557666771.0,3
1626,-2.0,-12.0,-7.0,3.0,1.0,6.0,13.0,3.0,1651024557689923.0,3
1627,3.0,5.0,5.0,-4.0,-2.0,-1.0,1.0,2.0,1651024557689923.0,3
1628,-4.0,-5.0,-5.0,-11.0,-11.0,-4.0,-6.0,-4.0,1651024557689923.0,3
1629,-4.0,-2.0,5.0,3.0,4.0,-2.0,-7.0,-3.0,1651024557689923.0,3
1630,0.0,8.0,11.0,-1.0,-1.0,0.0,0.0,0.0,1651024557711922.0,3
1631,-2.0,-12.0,-11.0,-3.0,-3.0,-1.0,10.0,3.0,1651024557711922.0,3
1632,1.0,7.0,5.0,-1.0,1.0,1.0,-7.0,-2.0,1651024557712856.0,3
1633,-2.0,-4.0,-13.0,-5.0,-4.0,-8.0,-17.0,-10.0,1651024557712856.0,3
1634,6.0,10.0,6.0,5.0,3.0,5.0,25.0,14.0,1651024557725820.0,3
1635,-5.0,-6.0,2.0,-3.0,0.0,-2.0,1.0,-2.0,1651024557725820.0,3
1636,1.0,0.0,-4.0,3.0,-4.0,0.0,-6.0,0.0,1651024557726833.0,3
1637,-5.0,-4.0,-6.0,-10.0,-8.0,0.0,14.0,0.0,1651024557726833.0,3
1638,0.0,-3.0,-9.0,-4.0,2.0,2.0,-6.0,-2.0,1651024557749948.0,3
1639,5.0,11.0,15.0,22.0,15.0,4.0,4.0,2.0,1651024557749948.0,3
1640,-1.0,-2.0,-10.0,-3.0,-5.0,-5.0,-5.0,-2.0,1651024557749948.0,3
1641,1.0,3.0,15.0,3.0,-13.0,-2.0,4.0,4.0,1651024557749948.0,3
1642,-4.0,5.0,26.0,2.0,5.0,-2.0,-16.0,-6.0,1651024557771886.0,3
1643,0.0,-21.0,-54.0,-6.0,20.0,8.0,11.0,6.0,1651024557771886.0,3
1644,0.0,7.0,6.0,-1.0,-2.0,0.0,-6.0,-4.0,1651024557772883.0,3
1645,3.0,4.0,8.0,7.0,1.0,3.0,7.0,5.0,1651024557772883.0,3
1646,0.0,0.0,4.0,4.0,-7.0,-7.0,-7.0,-8.0,1651024557785913.0,3
1647,1.0,11.0,14.0,-10.0,-9.0,-1.0,-12.0,1.0,1651024557785913.0,3
1648,0.0,-6.0,-15.0,-9.0,-2.0,-1.0,10.0,5.0,1651024557786847.0,3
1649,-5.0,-18.0,-20.0,-2.0,4.0,-2.0,-1.0,-2.0,1651024557786847.0,3
1650,-2.0,0.0,0.0,1.0,-2.0,-5.0,-13.0,-10.0,1651024557809956.0,3
1651,8.0,8.0,9.0,11.0,3.0,4.0,29.0,14.0,1651024557809956.0,3
1652,3.0,8.0,4.0,-1.0,-6.0,0.0,-2.0,1.0,1651024557809956.0,3
1653,-2.0,-1.0,0.0,-4.0,-4.0,-4.0,-1.0,1.0,1651024557809956.0,3
1654,-4.0,-7.0,-4.0,-4.0,5.0,4.0,-2.0,-1.0,1651024557832392.0,3
1655,-4.0,-2.0,14.0,-4.0,-6.0,-3.0,-1.0,-5.0,1651024557832392.0,3
1656,-1.0,-4.0,-17.0,-5.0,-2.0,1.0,-3.0,-1.0,1651024557832392.0,3
1657,1.0,3.0,-1.0,-10.0,-3.0,-2.0,-4.0,0.0,1651024557832392.0,3
1658,-1.0,-2.0,-3.0,-2.0,4.0,2.0,7.0,4.0,1651024557846728.0,3
1659,-4.0,-2.0,5.0,6.0,-3.0,-7.0,-11.0,-9.0,1651024557846728.0,3
1660,-1.0,-9.0,-15.0,-4.0,-3.0,-1.0,1.0,1.0,1651024557846728.0,3
1661,-1.0,1.0,1.0,20.0,10.0,4.0,5.0,2.0,1651024557846728.0,3
1662,5.0,12.0,6.0,-5.0,-9.0,-3.0,-6.0,-2.0,1651024557869841.0,3
1663,-8.0,-19.0,-33.0,-29.0,-5.0,-6.0,-11.0,-7.0,1651024557869841.0,3
1664,-1.0,8.0,37.0,26.0,17.0,2.0,9.0,0.0,1651024557869841.0,3
1665,3.0,-9.0,-27.0,-25.0,-13.0,2.0,29.0,13.0,1651024557869841.0,3
1666,1.0,1.0,-2.0,7.0,0.0,0.0,2.0,0.0,1651024557891781.0,3
1667,-3.0,2.0,3.0,-8.0,-16.0,-7.0,-18.0,-9.0,1651024557891781.0,3
1668,1.0,7.0,8.0,6.0,7.0,2.0,6.0,0.0,1651024557892711.0,3
1669,2.0,1.0,1.0,5.0,7.0,2.0,-8.0,-2.0,1651024557892711.0,3
1670,-1.0,0.0,5.0,0.0,-1.0,0.0,-3.0,1.0,1651024557906738.0,3
1671,1.0,-1.0,-1.0,3.0,-3.0,0.0,6.0,3.0,1651024557906738.0,3
1672,-2.0,-6.0,-7.0,-5.0,-5.0,-4.0,-7.0,-5.0,1651024557906738.0,3
1673,2.0,11.0,15.0,4.0,2.0,-3.0,-2.0,-2.0,1651024557906738.0,3
1674,-2.0,-6.0,-10.0,-1.0,5.0,7.0,1.0,0.0,1651024557929962.0,3
1675,-1.0,-1.0,-7.0,-16.0,-4.0,0.0,-7.0,-6.0,1651024557929962.0,3
1676,-1.0,3.0,13.0,21.0,-4.0,-1.0,-4.0,-2.0,1651024557929962.0,3
1677,0.0,2.0,6.0,-9.0,2.0,2.0,6.0,3.0,1651024557929962.0,3
1678,1.0,4.0,21.0,20.0,8.0,-2.0,2.0,1.0,1651024557952452.0,3
1679,-5.0,-14.0,-32.0,-7.0,1.0,1.0,-2.0,-4.0,1651024557952452.0,3
1680,-3.0,-3.0,7.0,-18.0,-13.0,-8.0,1.0,0.0,1651024557952452.0,3
1681,-2.0,-7.0,-20.0,-8.0,-8.0,-4.0,-12.0,-6.0,1651024557952452.0,3
1682,1.0,-1.0,1.0,-5.0,-6.0,0.0,-9.0,-3.0,1651024557974826.0,3
1683,5.0,8.0,8.0,8.0,17.0,3.0,24.0,11.0,1651024557974826.0,3
1684,-2.0,-4.0,-14.0,-11.0,-8.0,5.0,-3.0,-1.0,1651024557974826.0,3
1685,-1.0,1.0,6.0,6.0,0.0,-1.0,-7.0,-7.0,1651024557974826.0,3
1686,-4.0,-8.0,-16.0,-4.0,-5.0,-9.0,-6.0,-3.0,1651024557989786.0,3
1687,-2.0,0.0,7.0,3.0,-10.0,-30.0,-33.0,-12.0,1651024557989786.0,3
1688,3.0,1.0,4.0,3.0,10.0,41.0,32.0,11.0,1651024557990716.0,3
1689,1.0,-8.0,-17.0,4.0,9.0,12.0,11.0,4.0,1651024557990716.0,3
1690,1.0,6.0,-3.0,4.0,1.0,4.0,7.0,2.0,1651024558012350.0,3
1691,5.0,0.0,4.0,2.0,-6.0,-1.0,-5.0,-1.0,1651024558012350.0,3
1692,-4.0,-3.0,-4.0,-8.0,-2.0,-21.0,-13.0,-6.0,1651024558012350.0,3
1693,-1.0,1.0,1.0,6.0,-1.0,-3.0,-11.0,-4.0,1651024558012350.0,3
1694,-3.0,-10.0,-11.0,-10.0,-2.0,-3.0,7.0,3.0,1651024558026432.0,3
1695,1.0,11.0,18.0,5.0,0.0,3.0,5.0,3.0,1651024558026432.0,3
1696,2.0,4.0,-10.0,-11.0,-8.0,-5.0,-6.0,-3.0,1651024558034219.0,3
1697,-2.0,-6.0,19.0,-12.0,-7.0,-2.0,-1.0,-1.0,1651024558034219.0,3
1698,-5.0,-11.0,-29.0,19.0,22.0,-1.0,-8.0,-5.0,1651024558049963.0,3
1699,0.0,10.0,29.0,12.0,-3.0,5.0,17.0,4.0,1651024558049963.0,3
1700,4.0,11.0,2.0,5.0,1.0,2.0,1.0,5.0,1651024558049963.0,3
1701,-3.0,-19.0,-28.0,-21.0,-10.0,-4.0,-1.0,0.0,1651024558049963.0,3
1702,-1.0,0.0,12.0,4.0,4.0,-8.0,-20.0,-5.0,1651024558071907.0,3
1703,0.0,-2.0,-4.0,3.0,6.0,11.0,11.0,5.0,1651024558071907.0,3
1704,-2.0,-1.0,2.0,-1.0,-6.0,-15.0,-8.0,-4.0,1651024558072905.0,3
1705,3.0,11.0,14.0,10.0,-1.0,10.0,-8.0,-3.0,1651024558072905.0,3
1706,0.0,-4.0,-8.0,-8.0,-6.0,3.0,3.0,0.0,1651024558085972.0,3
1707,0.0,2.0,-2.0,8.0,10.0,13.0,21.0,5.0,1651024558085972.0,3
1708,-8.0,-5.0,-1.0,-9.0,-14.0,-15.0,-9.0,-4.0,1651024558094880.0,3
1709,1.0,8.0,1.0,6.0,10.0,-3.0,-4.0,-1.0,1651024558094880.0,3
1710,1.0,-1.0,-5.0,-3.0,-1.0,-3.0,9.0,2.0,1651024558109068.0,3
1711,-1.0,-1.0,-4.0,-10.0,-6.0,-7.0,-16.0,-7.0,1651024558109068.0,3
1712,4.0,3.0,6.0,5.0,4.0,1.0,0.0,2.0,1651024558110996.0,3
1713,-1.0,1.0,2.0,-1.0,-9.0,-8.0,-6.0,-3.0,1651024558110996.0,3
1714,-5.0,11.0,16.0,17.0,10.0,10.0,4.0,3.0,1651024558132095.0,3
1715,0.0,0.0,4.0,3.0,-6.0,-4.0,-4.0,0.0,1651024558132095.0,3
1716,2.0,0.0,-2.0,3.0,15.0,7.0,-5.0,-2.0,1651024558134022.0,3
1717,4.0,7.0,0.0,-4.0,3.0,-1.0,3.0,2.0,1651024558134022.0,3
1718,3.0,2.0,5.0,-8.0,-11.0,-7.0,1.0,-1.0,1651024558146054.0,3
1719,-2.0,-1.0,2.0,-5.0,-17.0,0.0,-10.0,-7.0,1651024558146054.0,3
1720,0.0,-7.0,-12.0,3.0,13.0,-6.0,0.0,2.0,1651024558154967.0,3
1721,-5.0,6.0,26.0,5.0,3.0,-8.0,-13.0,-10.0,1651024558154967.0,3
1722,1.0,-7.0,-35.0,-10.0,-4.0,25.0,8.0,4.0,1651024558169956.0,3
1723,-1.0,-5.0,4.0,1.0,1.0,-1.0,15.0,5.0,1651024558169956.0,3
1724,-1.0,-3.0,-6.0,-6.0,-14.0,-5.0,-2.0,-4.0,1651024558170931.0,3
1725,-1.0,-9.0,-9.0,5.0,1.0,-20.0,-3.0,0.0,1651024558170931.0,3
1726,3.0,12.0,22.0,-1.0,-2.0,-9.0,-9.0,-3.0,1651024558191939.0,3
1727,-1.0,-2.0,-5.0,-3.0,7.0,28.0,1.0,1.0,1651024558191939.0,3
1728,0.0,-2.0,-4.0,0.0,-3.0,0.0,-2.0,-1.0,1651024558193895.0,3
1729,-4.0,-2.0,0.0,-1.0,9.0,0.0,3.0,0.0,1651024558193895.0,3
1730,4.0,4.0,9.0,2.0,-8.0,-9.0,9.0,3.0,1651024558206008.0,3
1731,1.0,-2.0,-17.0,-5.0,-1.0,-7.0,-8.0,-2.0,1651024558206008.0,3
1732,0.0,-4.0,4.0,4.0,8.0,7.0,4.0,3.0,1651024558214922.0,3
1733,0.0,0.0,8.0,21.0,3.0,4.0,3.0,2.0,1651024558214922.0,3
1734,-1.0,5.0,20.0,-14.0,-20.0,-19.0,-2.0,-2.0,1651024558229079.0,3
1735,-2.0,-9.0,-27.0,1.0,14.0,9.0,2.0,-3.0,1651024558229079.0,3
1736,0.0,5.0,11.0,0.0,-1.0,8.0,-2.0,-1.0,1651024558231005.0,3
1737,1.0,0.0,-17.0,-7.0,-9.0,-5.0,4.0,2.0,1651024558231005.0,3
1738,0.0,-3.0,1.0,4.0,6.0,4.0,2.0,3.0,1651024558252127.0,3
1739,-3.0,-5.0,0.0,-7.0,-12.0,-17.0,-11.0,-4.0,1651024558252127.0,3
1740,-1.0,0.0,12.0,6.0,0.0,-7.0,0.0,-4.0,1651024558253084.0,3
1741,2.0,-1.0,3.0,7.0,10.0,24.0,8.0,2.0,1651024558253084.0,3
1742,-5.0,-6.0,-14.0,-11.0,-8.0,-31.0,-9.0,-1.0,1651024558266021.0,3
1743,4.0,5.0,2.0,3.0,20.0,71.0,16.0,5.0,1651024558266021.0,3
1744,0.0,0.0,-3.0,-3.0,-11.0,-7.0,1.0,3.0,1651024558275025.0,3
1745,-4.0,-3.0,1.0,0.0,4.0,-1.0,1.0,0.0,1651024558275025.0,3
1746,0.0,-1.0,5.0,7.0,0.0,-13.0,-5.0,-2.0,1651024558289913.0,3
1747,-1.0,4.0,8.0,4.0,-11.0,-33.0,-9.0,-4.0,1651024558289913.0,3
1748,-6.0,-13.0,-21.0,-13.0,-5.0,16.0,0.0,-3.0,1651024558290924.0,3
1749,2.0,3.0,-2.0,2.0,7.0,-3.0,1.0,0.0,1651024558290924.0,3
1750,-1.0,-5.0,-13.0,-7.0,1.0,13.0,8.0,3.0,1651024558312266.0,3
1751,0.0,4.0,18.0,11.0,6.0,-14.0,-4.0,2.0,1651024558312266.0,3
1752,0.0,-3.0,-6.0,-2.0,-9.0,-3.0,0.0,-1.0,1651024558313231.0,3
1753,-3.0,-7.0,-5.0,-9.0,-7.0,-6.0,-3.0,0.0,1651024558313231.0,3
1754,-1.0,-1.0,5.0,5.0,8.0,12.0,9.0,0.0,1651024558334135.0,3
1755,0.0,-1.0,-3.0,-3.0,-8.0,-11.0,-14.0,-11.0,1651024558334135.0,3
1756,1.0,3.0,4.0,0.0,-8.0,-6.0,-6.0,0.0,1651024558336072.0,3
1757,-1.0,-1.0,9.0,5.0,16.0,3.0,4.0,-1.0,1651024558336072.0,3
1758,-1.0,-3.0,-13.0,-7.0,-2.0,12.0,2.0,-5.0,1651024558349268.0,3
1759,-1.0,-2.0,-1.0,-3.0,-7.0,-12.0,-3.0,2.0,1651024558349268.0,3
1760,0.0,-2.0,-5.0,-2.0,2.0,-3.0,0.0,-2.0,1651024558355190.0,3
1761,0.0,-1.0,-7.0,-9.0,-11.0,1.0,-1.0,-2.0,1651024558355190.0,3
1762,-1.0,3.0,2.0,-1.0,5.0,6.0,5.0,3.0,1651024558371888.0,3
1763,-1.0,-7.0,0.0,-2.0,-5.0,-9.0,-4.0,1.0,1651024558371888.0,3
1764,-2.0,-8.0,3.0,6.0,10.0,0.0,-1.0,0.0,1651024558373901.0,3
1765,0.0,7.0,-4.0,-1.0,-17.0,-1.0,1.0,1.0,1651024558373901.0,3
1766,-7.0,-21.0,-12.0,-10.0,-6.0,-5.0,-6.0,-12.0,1651024558386167.0,3
1767,-7.0,13.0,-1.0,-2.0,32.0,2.0,-1.0,8.0,1651024558386167.0,3
1768,-1.0,-20.0,16.0,16.0,0.0,3.0,1.0,-3.0,1651024558395151.0,3
1769,-13.0,19.0,-7.0,-3.0,-10.0,-3.0,-2.0,-9.0,1651024558395151.0,3
1770,4.0,-10.0,-22.0,-8.0,4.0,4.0,1.0,9.0,1651024558409871.0,3
1771,16.0,46.0,6.0,0.0,-12.0,-5.0,-4.0,-6.0,1651024558409871.0,3
1772,-5.0,-64.0,-21.0,-9.0,9.0,0.0,-6.0,3.0,1651024558410819.0,3
1773,-2.0,-10.0,0.0,-5.0,-9.0,-7.0,-3.0,0.0,1651024558410819.0,3
1774,-13.0,-18.0,3.0,1.0,-7.0,-1.0,1.0,-4.0,1651024558432117.0,3
1775,3.0,-1.0,-2.0,-2.0,0.0,1.0,0.0,4.0,1651024558432117.0,3
1776,-2.0,18.0,-5.0,-3.0,-2.0,-2.0,1.0,11.0,1651024558433144.0,3
1777,-11.0,6.0,0.0,-1.0,-3.0,1.0,-4.0,-32.0,1651024558433144.0,3
1778,19.0,3.0,6.0,2.0,5.0,2.0,2.0,16.0,1651024558445325.0,3
1779,-31.0,-84.0,-15.0,-6.0,-3.0,-4.0,-4.0,-19.0,1651024558445325.0,3
1780,9.0,35.0,11.0,2.0,-1.0,0.0,4.0,4.0,1651024558454833.0,3
1781,13.0,-14.0,-4.0,-1.0,1.0,0.0,-5.0,4.0,1651024558454833.0,3
1782,-3.0,25.0,7.0,-1.0,3.0,1.0,-6.0,-10.0,1651024558469866.0,3
1783,-3.0,-2.0,7.0,5.0,-3.0,-2.0,2.0,12.0,1651024558469866.0,3
1784,-6.0,8.0,-9.0,-13.0,-6.0,-4.0,-3.0,-11.0,1651024558470793.0,3
1785,0.0,8.0,2.0,6.0,-3.0,3.0,4.0,12.0,1651024558470793.0,3
1786,12.0,12.0,5.0,4.0,15.0,2.0,4.0,3.0,1651024558499903.0,3
1787,3.0,-13.0,8.0,-1.0,-15.0,-7.0,0.0,-3.0,1651024558499903.0,3
1788,6.0,37.0,8.0,13.0,9.0,4.0,2.0,4.0,1651024558501863.0,3
1789,-1.0,-18.0,0.0,0.0,12.0,6.0,2.0,5.0,1651024558501863.0,3
1790,-11.0,-27.0,-4.0,7.0,-5.0,0.0,-1.0,-3.0,1651024558514167.0,3
1791,2.0,19.0,-6.0,-4.0,-1.0,-2.0,4.0,2.0,1651024558514167.0,3
1792,6.0,21.0,3.0,-4.0,-3.0,-2.0,-1.0,-2.0,1651024558516165.0,3
1793,0.0,-12.0,1.0,2.0,-3.0,-2.0,0.0,4.0,1651024558516165.0,3
1794,-5.0,15.0,-4.0,-7.0,-13.0,-4.0,-2.0,-3.0,1651024558529198.0,3
1795,4.0,-23.0,-8.0,3.0,16.0,4.0,-1.0,4.0,1651024558529198.0,3
1796,2.0,11.0,6.0,-2.0,-5.0,-2.0,-1.0,-4.0,1651024558536120.0,3
1797,1.0,7.0,0.0,-3.0,0.0,0.0,0.0,3.0,1651024558536120.0,3
1798,8.0,39.0,9.0,-1.0,-3.0,2.0,3.0,8.0,1651024558552130.0,3
1799,-8.0,-71.0,-13.0,-1.0,-4.0,-3.0,0.0,-5.0,1651024558552130.0,3
1800,-5.0,-31.0,-2.0,1.0,6.0,6.0,0.0,-1.0,1651024558553060.0,3
1801,-7.0,23.0,-2.0,-3.0,1.0,-3.0,0.0,-1.0,1651024558553060.0,3
1802,4.0,40.0,9.0,2.0,0.0,0.0,1.0,-1.0,1651024558574931.0,3
1803,4.0,14.0,3.0,-2.0,-8.0,-2.0,-1.0,0.0,1651024558574931.0,3
1804,-11.0,-35.0,-7.0,-1.0,-1.0,-1.0,-2.0,-7.0,1651024558575931.0,3
1805,2.0,-11.0,-4.0,-4.0,0.0,-1.0,0.0,4.0,1651024558575931.0,3
1806,-2.0,-25.0,-6.0,-2.0,-7.0,-2.0,-1.0,-2.0,1651024558588896.0,3
1807,4.0,19.0,12.0,4.0,4.0,0.0,0.0,0.0,1651024558588896.0,3
1808,-10.0,-12.0,-12.0,-7.0,-3.0,-3.0,-3.0,-2.0,1651024558595947.0,3
1809,9.0,25.0,5.0,0.0,-2.0,0.0,1.0,3.0,1651024558595947.0,3
1810,-5.0,-21.0,-4.0,1.0,-1.0,0.0,-1.0,0.0,1651024558612923.0,3
1811,6.0,23.0,1.0,-2.0,-3.0,-1.0,0.0,-2.0,1651024558612923.0,3
1812,4.0,17.0,-2.0,1.0,11.0,0.0,2.0,2.0,1651024558613905.0,3
1813,-4.0,-36.0,-3.0,0.0,-3.0,-1.0,2.0,1.0,1651024558613905.0,3
1814,-20.0,-18.0,-12.0,-6.0,-3.0,-4.0,-5.0,-10.0,1651024558634904.0,3
1815,5.0,29.0,6.0,-1.0,-6.0,0.0,0.0,1.0,1651024558634904.0,3
1816,-2.0,-4.0,-2.0,-2.0,-6.0,-3.0,-4.0,-1.0,1651024558635834.0,3
1817,3.0,12.0,2.0,0.0,2.0,0.0,-1.0,2.0,1651024558635834.0,3
1818,11.0,3.0,4.0,3.0,1.0,2.0,2.0,3.0,1651024558648867.0,3
1819,-2.0,44.0,-1.0,-2.0,-2.0,-1.0,-2.0,-2.0,1651024558648867.0,3
1820,-7.0,-8.0,-4.0,1.0,-2.0,-2.0,0.0,-4.0,1651024558655790.0,3
1821,6.0,-29.0,0.0,0.0,3.0,1.0,2.0,0.0,1651024558655790.0,3
1822,-4.0,-6.0,3.0,3.0,1.0,0.0,2.0,6.0,1651024558671808.0,3
1823,5.0,79.0,7.0,1.0,-2.0,-3.0,-2.0,-3.0,1651024558671808.0,3
1824,-3.0,-15.0,0.0,-2.0,0.0,1.0,-1.0,0.0,1651024558673733.0,3
1825,-9.0,-25.0,-3.0,1.0,-4.0,-3.0,-3.0,-5.0,1651024558673733.0,3
1826,14.0,27.0,13.0,3.0,2.0,3.0,5.0,4.0,1651024558694425.0,3
1827,-17.0,-49.0,-22.0,-6.0,-2.0,-4.0,-6.0,-7.0,1651024558694425.0,3
1828,3.0,21.0,6.0,1.0,-1.0,-1.0,4.0,4.0,1651024558696380.0,3
1829,-2.0,-18.0,-6.0,-3.0,0.0,0.0,-1.0,2.0,1651024558696380.0,3
1830,0.0,-17.0,-4.0,-2.0,1.0,0.0,-1.0,-4.0,1651024558709003.0,3
1831,-18.0,-21.0,-4.0,-3.0,-5.0,-3.0,-3.0,-4.0,1651024558709003.0,3
1832,4.0,14.0,2.0,0.0,-2.0,0.0,0.0,-3.0,1651024558716031.0,3
1833,7.0,10.0,-2.0,-1.0,2.0,1.0,-1.0,-1.0,1651024558716031.0,3
1834,-8.0,-33.0,-5.0,-1.0,1.0,0.0,-2.0,-2.0,1651024558731992.0,3
1835,8.0,-5.0,5.0,2.0,0.0,2.0,2.0,2.0,1651024558731992.0,3
1836,-1.0,-16.0,-2.0,0.0,-4.0,-1.0,-1.0,0.0,1651024558738043.0,3
1837,7.0,29.0,6.0,1.0,1.0,-1.0,0.0,0.0,1651024558738043.0,3
1838,-8.0,-23.0,-10.0,-3.0,-2.0,-2.0,-5.0,-3.0,1651024558754914.0,3
1839,-2.0,-7.0,3.0,3.0,-1.0,2.0,3.0,1.0,1651024558754914.0,3
1840,-1.0,-42.0,-12.0,-4.0,-2.0,-3.0,-1.0,-4.0,1651024558755915.0,3
1841,-4.0,-5.0,-2.0,-1.0,-2.0,-2.0,-1.0,-1.0,1651024558755915.0,3
1842,0.0,3.0,-2.0,-1.0,1.0,0.0,-2.0,-2.0,1651024558768879.0,3
1843,5.0,-25.0,-1.0,-1.0,0.0,0.0,0.0,1.0,1651024558768879.0,3
1844,3.0,50.0,7.0,-1.0,-1.0,0.0,-1.0,0.0,1651024558775889.0,3
1845,11.0,27.0,4.0,0.0,1.0,1.0,0.0,2.0,1651024558775889.0,3
1846,-4.0,-9.0,-2.0,-4.0,-11.0,-1.0,0.0,-3.0,1651024558791945.0,3
1847,5.0,3.0,2.0,1.0,13.0,1.0,2.0,3.0,1651024558791945.0,3
1848,2.0,-4.0,2.0,5.0,4.0,3.0,-1.0,0.0,1651024558793876.0,3
1849,2.0,12.0,2.0,-1.0,-4.0,0.0,0.0,1.0,1651024558793876.0,3
1850,1.0,8.0,-1.0,1.0,-1.0,0.0,-1.0,-1.0,1651024558814428.0,3
1851,4.0,6.0,3.0,1.0,-4.0,1.0,1.0,-1.0,1651024558814428.0,3
1852,6.0,10.0,1.0,-3.0,-2.0,-2.0,-1.0,1.0,1651024558816384.0,3
1853,6.0,14.0,2.0,1.0,1.0,0.0,1.0,1.0,1651024558816384.0,3
1854,-6.0,-2.0,-3.0,-2.0,-1.0,-2.0,-1.0,-3.0,1651024558828323.0,3
1855,-4.0,-14.0,-3.0,-1.0,0.0,1.0,1.0,-2.0,1651024558828323.0,3
1856,-5.0,-3.0,1.0,1.0,1.0,1.0,-1.0,-1.0,1651024558835372.0,3
1857,0.0,-1.0,1.0,0.0,0.0,-1.0,0.0,0.0,1651024558835372.0,3
1858,-1.0,8.0,1.0,1.0,4.0,0.0,0.0,3.0,1651024558852330.0,3
1859,9.0,21.0,4.0,0.0,-2.0,-1.0,-1.0,0.0,1651024558852330.0,3
1860,-17.0,-41.0,-8.0,-2.0,-3.0,0.0,-2.0,-4.0,1651024558853257.0,3
1861,0.0,27.0,-1.0,-3.0,-5.0,-2.0,-2.0,-2.0,1651024558853257.0,3
1862,0.0,-7.0,-2.0,-1.0,2.0,1.0,0.0,-1.0,1651024558874902.0,3
1863,-5.0,-12.0,-3.0,-1.0,-1.0,-1.0,0.0,0.0,1651024558874902.0,3
1864,9.0,4.0,5.0,0.0,-2.0,0.0,1.0,1.0,1651024558875875.0,3
1865,-8.0,-7.0,-4.0,-1.0,1.0,-2.0,0.0,0.0,1651024558875875.0,3
1866,1.0,7.0,-3.0,-2.0,-1.0,-1.0,-1.0,-2.0,1651024558888933.0,3
1867,0.0,15.0,3.0,1.0,-2.0,-2.0,-1.0,0.0,1651024558888933.0,3
1868,-3.0,-5.0,-4.0,-2.0,-2.0,-2.0,-1.0,-3.0,1651024558895984.0,3
1869,-1.0,-13.0,-4.0,-1.0,0.0,1.0,-1.0,0.0,1651024558895984.0,3
1870,1.0,12.0,1.0,0.0,-1.0,-1.0,1.0,0.0,1651024558912000.0,3
1871,0.0,6.0,2.0,-2.0,-1.0,-1.0,0.0,1.0,1651024558912000.0,3
1872,3.0,11.0,2.0,0.0,1.0,-1.0,1.0,0.0,1651024558913996.0,3
1873,-4.0,-23.0,-4.0,-1.0,0.0,0.0,-2.0,-2.0,1651024558913996.0,3
1874,3.0,5.0,2.0,3.0,-1.0,-1.0,-1.0,0.0,1651024558934164.0,3
1875,-1.0,5.0,-2.0,0.0,-1.0,0.0,-1.0,0.0,1651024558934164.0,3
1876,-7.0,-8.0,-5.0,-2.0,-1.0,-1.0,-1.0,-1.0,1651024558936123.0,3
1877,0.0,-9.0,0.0,0.0,0.0,1.0,-1.0,-1.0,1651024558936123.0,3
1878,0.0,-11.0,0.0,2.0,1.0,1.0,-1.0,1.0,1651024558949130.0,3
1879,-3.0,21.0,2.0,0.0,-2.0,0.0,-1.0,0.0,1651024558949130.0,3
1880,6.0,18.0,0.0,0.0,-1.0,2.0,-1.0,1.0,1651024558956043.0,3
1881,-3.0,-21.0,-1.0,0.0,0.0,1.0,-1.0,-1.0,1651024558956043.0,3
1882,3.0,26.0,3.0,0.0,1.0,1.0,0.0,-1.0,1651024558972279.0,3
1883,3.0,-11.0,-2.0,0.0,0.0,0.0,2.0,1.0,1651024558972279.0,3
1884,1.0,-18.0,-1.0,1.0,-1.0,-2.0,0.0,0.0,1651024558973279.0,3
1885,7.0,38.0,5.0,1.0,-1.0,-2.0,1.0,0.0,1651024558973279.0,3
1886,-3.0,-8.0,-2.0,-1.0,1.0,-1.0,-1.0,-1.0,1651024558994614.0,3
1887,0.0,-4.0,2.0,-1.0,-1.0,0.0,3.0,1.0,1651024558994614.0,3
1888,4.0,-13.0,-4.0,0.0,1.0,0.0,-1.0,1.0,1651024558995544.0,3
1889,-4.0,20.0,3.0,-3.0,-3.0,-2.0,-2.0,-3.0,1651024558995544.0,3
1890,7.0,12.0,1.0,-1.0,-3.0,-1.0,1.0,3.0,1651024559007966.0,3
1891,-1.0,-12.0,-2.0,-1.0,3.0,0.0,-1.0,1.0,1651024559007966.0,3
1892,2.0,-3.0,2.0,2.0,-1.0,1.0,0.0,0.0,1651024559016896.0,3
1893,-2.0,1.0,0.0,2.0,2.0,0.0,0.0,-2.0,1651024559016896.0,3
1894,-5.0,-15.0,-2.0,-1.0,0.0,0.0,0.0,-2.0,1651024559031902.0,3
1895,1.0,-12.0,-6.0,-1.0,-3.0,0.0,-2.0,1.0,1651024559031902.0,3
1896,-2.0,8.0,3.0,-2.0,0.0,-1.0,-1.0,-1.0,1651024559033829.0,3
1897,-3.0,-28.0,-7.0,-2.0,1.0,0.0,0.0,0.0,1651024559033829.0,3
1898,-4.0,-3.0,2.0,-1.0,0.0,-1.0,0.0,-1.0,1651024559054895.0,3
1899,-3.0,-8.0,-2.0,0.0,-5.0,-4.0,-1.0,-3.0,1651024559054895.0,3
1900,3.0,24.0,4.0,0.0,3.0,0.0,0.0,0.0,1651024559055892.0,3
1901,-7.0,-70.0,-8.0,0.0,1.0,1.0,1.0,0.0,1651024559055892.0,3
1902,2.0,9.0,1.0,-2.0,-8.0,-1.0,1.0,-1.0,1651024559067929.0,3
1903,1.0,-7.0,-1.0,0.0,10.0,0.0,0.0,1.0,1651024559067929.0,3
1904,1.0,17.0,2.0,-1.0,-2.0,-1.0,-1.0,0.0,1651024559083077.0,3
1905,10.0,34.0,4.0,0.0,-5.0,0.0,0.0,1.0,1651024559083077.0,3
1906,-8.0,-26.0,-3.0,1.0,4.0,0.0,0.0,0.0,1651024559092122.0,3
1907,-3.0,6.0,2.0,2.0,-1.0,1.0,-2.0,-2.0,1651024559092122.0,3
