,EMG_s0,EMG_s1,EMG_s2,EMG_s3,EMG_s4,EMG_s5,EMG_s6,EMG_s7,timestamp,signal
0,-2.0,0.0,-2.0,0.0,0.0,1.0,-1.0,0.0,1651024373123919.0,0
1,-3.0,-7.0,-2.0,1.0,2.0,0.0,-1.0,0.0,1651024373123919.0,0
2,-1.0,3.0,0.0,-1.0,-5.0,-3.0,0.0,-1.0,1651024373144142.0,0
3,-2.0,-14.0,-6.0,-5.0,-1.0,0.0,-1.0,-2.0,1651024373144142.0,0
4,1.0,6.0,1.0,0.0,-3.0,-2.0,0.0,-2.0,1651024373146166.0,0
5,1.0,1.0,-2.0,0.0,1.0,0.0,0.0,-1.0,1651024373146166.0,0
6,1.0,-3.0,0.0,0.0,-1.0,-1.0,-1.0,-2.0,1651024373159104.0,0
7,1.0,6.0,1.0,0.0,0.0,0.0,0.0,0.0,1651024373159104.0,0
8,-2.0,-13.0,-1.0,3.0,1.0,-1.0,-1.0,0.0,1651024373165116.0,0
9,-1.0,3.0,-1.0,-4.0,-2.0,1.0,0.0,0.0,1651024373165116.0,0
10,0.0,-1.0,0.0,0.0,0.0,-1.0,0.0,0.0,1651024373182003.0,0
11,0.0,1.0,0.0,0.0,-8.0,-2.0,0.0,0.0,1651024373182003.0,0
12,1.0,5.0,0.0,0.0,11.0,1.0,0.0,-1.0,1651024373183964.0,0
13,1.0,0.0,1.0,2.0,2.0,2.0,-2.0,1.0,1651024373183964.0,0
14,-1.0,-3.0,1.0,1.0,-3.0,-1.0,2.0,0.0,1651024373204887.0,0
15,0.0,4.0,1.0,-4.0,-3.0,-1.0,-2.0,1.0,1651024373204887.0,0
16,-3.0,-5.0,-3.0,-4.0,-9.0,-3.0,0.0,-1.0,1651024373205888.0,0
17,-1.0,2.0,1.0,1.0,0.0,1.0,-1.0,0.0,1651024373205888.0,0
18,1.0,3.0,-1.0,-1.0,3.0,0.0,0.0,0.0,1651024373218918.0,0
19,-4.0,-12.0,-3.0,-7.0,-7.0,-3.0,-1.0,-2.0,1651024373218918.0,0
20,1.0,0.0,4.0,3.0,5.0,0.0,2.0,-1.0,1651024373225900.0,0
21,-4.0,-2.0,-5.0,1.0,-2.0,1.0,-1.0,-2.0,1651024373225900.0,0
22,-1.0,3.0,1.0,-2.0,-4.0,0.0,-2.0,0.0,1651024373250017.0,0
23,0.0,-6.0,1.0,0.0,3.0,-2.0,0.0,0.0,1651024373250017.0,0
24,-3.0,15.0,-1.0,2.0,-2.0,-1.0,-3.0,-1.0,1651024373251959.0,0
25,3.0,0.0,2.0,-1.0,-1.0,-1.0,0.0,0.0,1651024373251959.0,0
26,-1.0,-6.0,-3.0,-1.0,-3.0,-2.0,-1.0,-2.0,1651024373264916.0,0
27,-2.0,4.0,0.0,0.0,8.0,5.0,1.0,-1.0,1651024373264916.0,0
28,0.0,-8.0,-1.0,-3.0,-6.0,-2.0,-1.0,0.0,1651024373265914.0,0
29,-1.0,-3.0,-1.0,-2.0,-1.0,-2.0,-1.0,0.0,1651024373265914.0,0
30,3.0,2.0,0.0,-1.0,-2.0,-2.0,-1.0,-1.0,1651024373278947.0,0
31,-2.0,-6.0,1.0,1.0,-7.0,-3.0,-1.0,0.0,1651024373278947.0,0
32,-3.0,-15.0,-5.0,-1.0,5.0,0.0,0.0,-2.0,1651024373285927.0,0
33,-2.0,3.0,3.0,3.0,4.0,1.0,-1.0,-1.0,1651024373285927.0,0
34,0.0,-2.0,2.0,2.0,-3.0,1.0,1.0,0.0,1651024373301880.0,0
35,0.0,3.0,0.0,3.0,4.0,-2.0,1.0,0.0,1651024373301880.0,0
36,0.0,2.0,0.0,-1.0,-8.0,1.0,0.0,-1.0,1651024373303837.0,0
37,2.0,0.0,-1.0,-4.0,-4.0,-1.0,0.0,0.0,1651024373303837.0,0
38,-6.0,-8.0,-3.0,0.0,5.0,0.0,-1.0,-1.0,1651024373324782.0,0
39,1.0,10.0,2.0,2.0,0.0,0.0,1.0,1.0,1651024373324782.0,0
40,0.0,1.0,-1.0,-3.0,-3.0,-2.0,0.0,0.0,1651024373325754.0,0
41,1.0,-5.0,-2.0,-1.0,-3.0,-1.0,-1.0,-2.0,1651024373325754.0,0
42,-1.0,2.0,-1.0,1.0,5.0,-1.0,0.0,0.0,1651024373337899.0,0
43,0.0,7.0,0.0,2.0,0.0,-1.0,-1.0,-2.0,1651024373337899.0,0
44,3.0,0.0,0.0,-1.0,-1.0,0.0,0.0,1.0,1651024373346819.0,0
45,-3.0,-2.0,0.0,-1.0,0.0,-1.0,1.0,-3.0,1651024373346819.0,0
46,0.0,-3.0,0.0,1.0,-3.0,0.0,0.0,1.0,1651024373362389.0,0
47,1.0,4.0,0.0,-1.0,3.0,0.0,0.0,2.0,1651024373362389.0,0
48,-1.0,-2.0,-1.0,-5.0,-1.0,0.0,-2.0,0.0,1651024373363325.0,0
49,1.0,3.0,0.0,2.0,-9.0,1.0,0.0,0.0,1651024373363325.0,0
50,0.0,-6.0,2.0,2.0,9.0,-1.0,-1.0,0.0,1651024373384442.0,0
51,-4.0,2.0,-8.0,-3.0,4.0,-2.0,-2.0,-3.0,1651024373384442.0,0
52,-1.0,3.0,2.0,-2.0,-8.0,-3.0,-2.0,-1.0,1651024373386398.0,0
53,1.0,-1.0,-1.0,-1.0,3.0,1.0,-1.0,0.0,1651024373386398.0,0
54,-3.0,-2.0,-2.0,-1.0,-5.0,-1.0,0.0,-2.0,1651024373398337.0,0
55,1.0,-1.0,0.0,0.0,1.0,1.0,1.0,1.0,1651024373398337.0,0
56,-1.0,-13.0,-5.0,-2.0,3.0,0.0,-2.0,-1.0,1651024373407313.0,0
57,0.0,2.0,1.0,-3.0,-2.0,-2.0,-2.0,0.0,1651024373407313.0,0
58,1.0,0.0,0.0,2.0,-1.0,0.0,0.0,0.0,1651024373422273.0,0
59,0.0,-2.0,-1.0,-1.0,-4.0,-2.0,-1.0,-1.0,1651024373422273.0,0
60,-1.0,1.0,0.0,2.0,1.0,0.0,0.0,-1.0,1651024373423271.0,0
61,1.0,3.0,1.0,0.0,2.0,0.0,0.0,1.0,1651024373423271.0,0
62,-6.0,-11.0,-4.0,-5.0,-1.0,-1.0,0.0,-1.0,1651024373444935.0,0
63,-1.0,-1.0,2.0,3.0,-1.0,-2.0,-1.0,-1.0,1651024373444935.0,0
64,0.0,3.0,1.0,0.0,-5.0,-1.0,-1.0,-1.0,1651024373445928.0,0
65,0.0,-1.0,-1.0,-1.0,12.0,0.0,0.0,-2.0,1651024373445928.0,0
66,1.0,8.0,0.0,-2.0,-4.0,-1.0,1.0,-1.0,1651024373457960.0,0
67,0.0,1.0,-1.0,-2.0,-3.0,-1.0,-1.0,-2.0,1651024373457960.0,0
68,-2.0,-5.0,1.0,0.0,-3.0,-1.0,0.0,-1.0,1651024373466873.0,0
69,-2.0,-3.0,0.0,0.0,-2.0,-2.0,0.0,0.0,1651024373466873.0,0
70,-3.0,-2.0,-3.0,4.0,0.0,2.0,-1.0,-1.0,1651024373488996.0,0
71,-1.0,-3.0,1.0,-1.0,3.0,2.0,0.0,-1.0,1651024373488996.0,0
72,0.0,3.0,2.0,4.0,2.0,2.0,0.0,1.0,1651024373490992.0,0
73,0.0,10.0,0.0,-2.0,-2.0,-1.0,-1.0,0.0,1651024373490992.0,0
74,0.0,-12.0,-2.0,-3.0,0.0,-2.0,-1.0,-2.0,1651024373504941.0,0
75,-2.0,-2.0,-2.0,-3.0,-4.0,-2.0,0.0,0.0,1651024373504941.0,0
76,0.0,3.0,0.0,-4.0,-1.0,-1.0,0.0,0.0,1651024373505939.0,0
77,-2.0,-1.0,1.0,4.0,0.0,0.0,-1.0,-1.0,1651024373505939.0,0
78,1.0,2.0,-3.0,-1.0,0.0,0.0,0.0,2.0,1651024373517973.0,0
79,1.0,-2.0,0.0,1.0,1.0,0.0,-2.0,1.0,1651024373517973.0,0
80,-1.0,0.0,-2.0,-1.0,-1.0,0.0,0.0,-1.0,1651024373526882.0,0
81,-3.0,-10.0,-3.0,-3.0,-4.0,-2.0,0.0,-1.0,1651024373526882.0,0
82,1.0,16.0,2.0,2.0,0.0,-1.0,-1.0,-1.0,1651024373541993.0,0
83,1.0,-2.0,-4.0,-1.0,1.0,-2.0,0.0,-1.0,1651024373541993.0,0
84,0.0,-1.0,0.0,-1.0,-9.0,0.0,0.0,1.0,1651024373543946.0,0
85,0.0,-3.0,0.0,-1.0,10.0,0.0,2.0,0.0,1651024373543946.0,0
86,1.0,-2.0,1.0,-1.0,-3.0,-1.0,-1.0,-2.0,1651024373564898.0,0
87,-1.0,1.0,2.0,1.0,-2.0,1.0,-2.0,-1.0,1651024373564898.0,0
88,1.0,4.0,-1.0,2.0,-1.0,-1.0,-2.0,-1.0,1651024373565886.0,0
89,-3.0,-7.0,-2.0,-2.0,-8.0,1.0,-1.0,0.0,1651024373565886.0,0
90,0.0,5.0,-1.0,-4.0,0.0,-1.0,-1.0,-1.0,1651024373577920.0,0
91,1.0,-6.0,-1.0,4.0,-2.0,0.0,-1.0,0.0,1651024373577920.0,0
92,0.0,3.0,1.0,1.0,3.0,-1.0,2.0,-1.0,1651024373586772.0,0
93,0.0,-1.0,-1.0,-3.0,-1.0,-1.0,-2.0,-1.0,1651024373586772.0,0
94,-1.0,-3.0,-1.0,-5.0,1.0,0.0,0.0,2.0,1651024373601801.0,0
95,0.0,3.0,1.0,-1.0,-2.0,1.0,-1.0,-2.0,1651024373601801.0,0
96,0.0,-3.0,0.0,0.0,1.0,-1.0,-1.0,1.0,1651024373603756.0,0
97,-1.0,1.0,0.0,-2.0,-8.0,-4.0,0.0,-1.0,1651024373603756.0,0
98,0.0,-4.0,0.0,-1.0,-2.0,-2.0,1.0,-1.0,1651024373624943.0,0
99,1.0,1.0,0.0,1.0,9.0,0.0,-1.0,-1.0,1651024373624943.0,0
100,-3.0,-2.0,-1.0,-3.0,-4.0,-1.0,0.0,-3.0,1651024373625931.0,0
101,0.0,0.0,-4.0,2.0,3.0,-1.0,1.0,-1.0,1651024373625931.0,0
102,0.0,-3.0,0.0,0.0,-7.0,-1.0,0.0,-1.0,1651024373637964.0,0
103,-3.0,-5.0,-2.0,-6.0,-2.0,-2.0,0.0,-1.0,1651024373637964.0,0
104,1.0,5.0,3.0,1.0,4.0,0.0,0.0,-1.0,1651024373646777.0,0
105,1.0,3.0,-3.0,-2.0,-7.0,0.0,0.0,-1.0,1651024373646777.0,0
106,1.0,-1.0,-4.0,3.0,-3.0,-5.0,-2.0,0.0,1651024373662165.0,0
107,-3.0,-2.0,-3.0,6.0,-2.0,1.0,-1.0,0.0,1651024373662165.0,0
108,-4.0,-12.0,-2.0,-1.0,9.0,5.0,-1.0,1.0,1651024373663163.0,0
109,2.0,7.0,2.0,-3.0,-1.0,2.0,0.0,1.0,1651024373663163.0,0
110,0.0,-2.0,1.0,-2.0,-1.0,-1.0,0.0,-1.0,1651024373684915.0,0
111,-1.0,4.0,-3.0,-4.0,-3.0,-2.0,0.0,0.0,1651024373684915.0,0
112,1.0,0.0,-1.0,2.0,-7.0,-3.0,0.0,1.0,1651024373685915.0,0
113,0.0,2.0,4.0,-1.0,-10.0,-1.0,-2.0,0.0,1651024373685915.0,0
114,-2.0,1.0,4.0,2.0,20.0,3.0,0.0,0.0,1651024373697950.0,0
115,0.0,0.0,3.0,0.0,-4.0,1.0,2.0,1.0,1651024373697950.0,0
116,-2.0,-2.0,-10.0,-7.0,-2.0,-3.0,0.0,-2.0,1651024373706867.0,0
117,-1.0,-1.0,0.0,-4.0,-1.0,0.0,-2.0,0.0,1651024373706867.0,0
118,0.0,1.0,3.0,6.0,-5.0,-1.0,0.0,-2.0,1651024373722026.0,0
119,0.0,1.0,6.0,0.0,5.0,0.0,0.0,0.0,1651024373722026.0,0
120,2.0,4.0,-5.0,-6.0,-6.0,-6.0,0.0,0.0,1651024373723960.0,0
121,-3.0,-12.0,-13.0,-3.0,2.0,-1.0,-1.0,-3.0,1651024373723960.0,0
122,1.0,4.0,4.0,3.0,-1.0,1.0,0.0,-1.0,1651024373744123.0,0
123,0.0,-4.0,-1.0,3.0,4.0,2.0,-1.0,2.0,1651024373744123.0,0
124,-5.0,2.0,4.0,-3.0,2.0,0.0,-3.0,-6.0,1651024373751081.0,0
125,0.0,-2.0,2.0,-2.0,-3.0,-3.0,-1.0,0.0,1651024373751081.0,0
126,1.0,8.0,-4.0,0.0,1.0,0.0,0.0,0.0,1651024373767056.0,0
127,1.0,1.0,-1.0,-4.0,-4.0,-1.0,0.0,-1.0,1651024373767056.0,0
128,2.0,0.0,4.0,-2.0,-19.0,-4.0,-1.0,0.0,1651024373769022.0,0
129,0.0,-1.0,-3.0,2.0,29.0,4.0,-1.0,0.0,1651024373769022.0,0
130,-3.0,-7.0,-19.0,-3.0,2.0,5.0,-1.0,-3.0,1651024373788973.0,0
131,1.0,-4.0,0.0,-1.0,-5.0,-4.0,1.0,-1.0,1651024373788973.0,0
132,1.0,3.0,0.0,-3.0,-3.0,-1.0,1.0,0.0,1651024373790903.0,0
133,-3.0,0.0,2.0,-1.0,-8.0,-4.0,-1.0,0.0,1651024373790903.0,0
134,-2.0,-1.0,7.0,8.0,4.0,-2.0,-3.0,1.0,1651024373803342.0,0
135,-1.0,1.0,-6.0,-4.0,1.0,1.0,-2.0,-1.0,1651024373803342.0,0
136,1.0,-3.0,-3.0,-2.0,-3.0,0.0,1.0,0.0,1651024373812320.0,0
137,-1.0,5.0,7.0,6.0,0.0,0.0,0.0,-1.0,1651024373812320.0,0
138,-1.0,-1.0,2.0,-8.0,-4.0,-3.0,-1.0,1.0,1651024373827362.0,0
139,-3.0,-14.0,-13.0,3.0,0.0,4.0,-2.0,-1.0,1651024373827362.0,0
140,5.0,15.0,8.0,5.0,6.0,2.0,1.0,2.0,1651024373828277.0,0
141,-3.0,-3.0,0.0,-3.0,-6.0,-1.0,0.0,-1.0,1651024373828277.0,0
142,-2.0,0.0,1.0,-5.0,-4.0,-4.0,0.0,-1.0,1651024373849292.0,0
143,0.0,1.0,5.0,-1.0,-5.0,-3.0,-1.0,-1.0,1651024373849292.0,0
144,-1.0,-7.0,-4.0,-1.0,-5.0,0.0,-2.0,1.0,1651024373851216.0,0
145,1.0,3.0,13.0,3.0,12.0,0.0,1.0,-1.0,1651024373851216.0,0
146,1.0,-3.0,-11.0,-2.0,-2.0,1.0,0.0,-1.0,1651024373863267.0,0
147,1.0,4.0,3.0,4.0,-3.0,-1.0,1.0,-1.0,1651024373863267.0,0
148,-2.0,-3.0,2.0,4.0,10.0,2.0,0.0,0.0,1651024373872583.0,0
149,0.0,1.0,8.0,1.0,-20.0,-4.0,-1.0,-2.0,1651024373872583.0,0
150,1.0,3.0,-3.0,-17.0,5.0,3.0,-1.0,0.0,1651024373886587.0,0
151,3.0,6.0,3.0,8.0,7.0,2.0,0.0,1.0,1651024373886587.0,0
152,1.0,13.0,29.0,21.0,4.0,1.0,2.0,1.0,1651024373888526.0,0
153,-2.0,-15.0,-33.0,-3.0,0.0,1.0,1.0,-1.0,1651024373888526.0,0
154,-10.0,-25.0,-28.0,-20.0,-16.0,-8.0,-4.0,-4.0,1651024373909487.0,0
155,4.0,2.0,1.0,-4.0,0.0,1.0,1.0,2.0,1651024373909487.0,1
156,-1.0,20.0,42.0,-9.0,1.0,-1.0,-1.0,-2.0,1651024373911452.0,1
157,7.0,19.0,3.0,19.0,4.0,6.0,-3.0,1.0,1651024373911452.0,1
158,-5.0,-15.0,9.0,-13.0,-6.0,-8.0,-4.0,-5.0,1651024373923421.0,1
159,1.0,-3.0,-34.0,4.0,4.0,3.0,1.0,1.0,1651024373923421.0,1
160,-3.0,-6.0,18.0,-6.0,5.0,3.0,0.0,-1.0,1651024373932449.0,1
161,0.0,0.0,35.0,-7.0,-2.0,1.0,-1.0,-3.0,1651024373932449.0,1
162,0.0,-9.0,-66.0,25.0,12.0,4.0,-7.0,-1.0,1651024373947462.0,1
163,-3.0,-14.0,28.0,7.0,1.0,2.0,19.0,7.0,1651024373947462.0,1
164,-10.0,-17.0,-58.0,-32.0,-13.0,-11.0,-6.0,-7.0,1651024373948402.0,1
165,2.0,21.0,36.0,-2.0,1.0,1.0,-1.0,-1.0,1651024373948402.0,1
166,7.0,13.0,31.0,3.0,3.0,3.0,2.0,1.0,1651024373969412.0,1
167,-7.0,-6.0,-39.0,-35.0,-8.0,-4.0,-7.0,-8.0,1651024373969412.0,1
168,11.0,22.0,14.0,86.0,25.0,9.0,11.0,8.0,1651024373971368.0,1
169,-12.0,-41.0,-51.0,-37.0,-20.0,-9.0,-2.0,-6.0,1651024373971368.0,1
170,-15.0,-32.0,-12.0,-4.0,-15.0,-27.0,-25.0,-18.0,1651024373983361.0,1
171,12.0,-3.0,-5.0,4.0,5.0,0.0,-8.0,-3.0,1651024373983361.0,1
172,8.0,7.0,-8.0,-42.0,-15.0,4.0,7.0,6.0,1651024373992340.0,1
173,-6.0,-8.0,-10.0,20.0,3.0,-14.0,-4.0,-3.0,1651024373992340.0,1
174,12.0,19.0,3.0,-2.0,17.0,30.0,25.0,15.0,1651024374007301.0,1
175,2.0,21.0,52.0,-16.0,10.0,43.0,3.0,0.0,1651024374007301.0,1
176,-24.0,-72.0,-70.0,4.0,1.0,-3.0,-9.0,-14.0,1651024374008298.0,1
177,15.0,17.0,-16.0,-31.0,-11.0,-8.0,11.0,10.0,1651024374008298.0,1
178,-2.0,6.0,24.0,59.0,4.0,-43.0,-37.0,-9.0,1651024374029829.0,1
179,12.0,36.0,33.0,18.0,10.0,32.0,25.0,10.0,1651024374029829.0,1
180,12.0,4.0,-33.0,-29.0,-1.0,0.0,0.0,5.0,1651024374030836.0,1
181,-21.0,-53.0,-47.0,-26.0,-24.0,-19.0,-11.0,-12.0,1651024374030836.0,1
182,-17.0,-14.0,18.0,-19.0,-17.0,-1.0,-23.0,-21.0,1651024374043335.0,1
183,7.0,24.0,27.0,18.0,7.0,-16.0,45.0,27.0,1651024374043335.0,1
184,-5.0,-10.0,5.0,-9.0,5.0,32.0,14.0,7.0,1651024374052313.0,1
185,20.0,37.0,9.0,8.0,5.0,-43.0,-3.0,10.0,1651024374052313.0,1
186,2.0,16.0,26.0,-15.0,-8.0,30.0,-31.0,-15.0,1651024374067382.0,1
187,-3.0,-3.0,-47.0,-12.0,-6.0,26.0,49.0,14.0,1651024374067382.0,1
188,-3.0,-1.0,32.0,27.0,7.0,8.0,1.0,-4.0,1651024374068896.0,1
189,-7.0,-21.0,-28.0,24.0,22.0,-22.0,-7.0,-3.0,1651024374068896.0,1
190,7.0,16.0,28.0,17.0,6.0,4.0,32.0,19.0,1651024374089947.0,1
191,-7.0,3.0,18.0,-2.0,-7.0,-2.0,-41.0,-22.0,1651024374089947.0,1
192,0.0,-7.0,-12.0,-15.0,-17.0,-14.0,4.0,6.0,1651024374090946.0,1
193,5.0,22.0,30.0,-13.0,-6.0,23.0,4.0,-3.0,1651024374090946.0,1
194,-5.0,-22.0,-44.0,-22.0,-3.0,-24.0,-9.0,-8.0,1651024374103315.0,1
195,-1.0,-1.0,8.0,8.0,1.0,-18.0,-18.0,-6.0,1651024374103315.0,1
196,6.0,26.0,19.0,1.0,-2.0,-11.0,-4.0,-2.0,1651024374112293.0,1
197,8.0,26.0,19.0,16.0,10.0,22.0,-8.0,1.0,1651024374112293.0,1
198,-7.0,-23.0,-64.0,-26.0,5.0,13.0,31.0,13.0,1651024374127357.0,1
199,-10.0,-1.0,73.0,2.0,-16.0,-14.0,4.0,-1.0,1651024374127357.0,1
200,-11.0,-32.0,-42.0,-16.0,6.0,-14.0,-6.0,-3.0,1651024374128866.0,1
201,9.0,56.0,102.0,30.0,-6.0,-4.0,11.0,5.0,1651024374128866.0,1
202,-7.0,-44.0,-77.0,-10.0,-4.0,-13.0,-11.0,-1.0,1651024374150934.0,1
203,-10.0,-23.0,-37.0,2.0,14.0,-6.0,-36.0,-26.0,1651024374150934.0,1
204,-2.0,-1.0,26.0,9.0,7.0,20.0,4.0,4.0,1651024374152928.0,1
205,-6.0,-25.0,-26.0,-11.0,2.0,23.0,23.0,8.0,1651024374152928.0,1
206,10.0,23.0,-15.0,-4.0,-2.0,-1.0,-25.0,-5.0,1651024374162902.0,1
207,-10.0,-16.0,42.0,9.0,-7.0,5.0,43.0,12.0,1651024374162902.0,1
208,4.0,9.0,-40.0,-14.0,-7.0,-3.0,3.0,-1.0,1651024374171889.0,1
209,-3.0,4.0,4.0,4.0,-6.0,-8.0,-19.0,-10.0,1651024374171889.0,1
210,14.0,40.0,75.0,26.0,9.0,-12.0,6.0,10.0,1651024374185992.0,1
211,2.0,-9.0,-64.0,-38.0,-21.0,-18.0,-20.0,-4.0,1651024374185992.0,1
212,0.0,-6.0,-34.0,-2.0,10.0,10.0,5.0,1.0,1651024374193329.0,1
213,-4.0,-4.0,3.0,-17.0,-10.0,1.0,-10.0,-5.0,1651024374193329.0,1
214,8.0,2.0,19.0,53.0,31.0,14.0,28.0,15.0,1651024374209357.0,1
215,-3.0,0.0,3.0,-5.0,-5.0,-9.0,-17.0,-6.0,1651024374209357.0,1
216,6.0,37.0,75.0,5.0,-2.0,-2.0,-9.0,-9.0,1651024374211284.0,1
217,-4.0,-20.0,-34.0,2.0,2.0,-4.0,45.0,25.0,1651024374211284.0,1
218,5.0,22.0,11.0,-24.0,-7.0,24.0,16.0,5.0,1651024374232295.0,1
219,-1.0,-3.0,-12.0,-5.0,-8.0,-14.0,-9.0,1.0,1651024374232295.0,1
220,6.0,26.0,50.0,18.0,-9.0,-17.0,-10.0,-8.0,1651024374233256.0,1
221,-7.0,-33.0,-56.0,-27.0,12.0,12.0,-12.0,-4.0,1651024374233256.0,1
222,6.0,23.0,44.0,12.0,-4.0,5.0,5.0,4.0,1651024374246506.0,1
223,-13.0,-12.0,-30.0,6.0,-1.0,-36.0,-43.0,-18.0,1651024374246506.0,1
224,7.0,22.0,8.0,18.0,23.0,54.0,50.0,23.0,1651024374253524.0,1
225,-9.0,-17.0,32.0,-8.0,-14.0,0.0,-14.0,-12.0,1651024374253524.0,1
226,2.0,8.0,4.0,-4.0,2.0,3.0,14.0,5.0,1651024374269850.0,1
227,-1.0,-10.0,-42.0,-5.0,-11.0,-26.0,-29.0,-11.0,1651024374269850.0,1
228,-9.0,-20.0,-12.0,-5.0,-9.0,-15.0,-16.0,-6.0,1651024374270794.0,1
229,8.0,15.0,10.0,18.0,18.0,20.0,13.0,7.0,1651024374270794.0,1
230,-6.0,-7.0,7.0,5.0,1.0,-12.0,-13.0,-9.0,1651024374291996.0,1
231,8.0,19.0,11.0,0.0,0.0,5.0,9.0,0.0,1651024374291996.0,1
232,-10.0,-33.0,-32.0,-32.0,-18.0,-13.0,4.0,3.0,1651024374293946.0,1
233,-1.0,9.0,26.0,18.0,8.0,9.0,1.0,3.0,1651024374293946.0,1
234,-12.0,-18.0,-4.0,-18.0,-18.0,-16.0,-45.0,-29.0,1651024374306943.0,1
235,15.0,30.0,16.0,7.0,15.0,22.0,44.0,26.0,1651024374306943.0,1
236,-9.0,-44.0,-41.0,24.0,13.0,-10.0,-5.0,-8.0,1651024374308894.0,1
237,2.0,4.0,24.0,3.0,-11.0,-45.0,-26.0,-5.0,1651024374308894.0,1
238,-5.0,3.0,-4.0,-3.0,0.0,58.0,4.0,-14.0,1651024374329962.0,1
239,12.0,26.0,30.0,7.0,-3.0,-51.0,-7.0,14.0,1651024374329962.0,1
240,-15.0,-56.0,-45.0,-29.0,-4.0,71.0,19.0,-9.0,1651024374330911.0,1
241,-4.0,3.0,-20.0,0.0,2.0,-3.0,-64.0,-25.0,1651024374330911.0,1
242,8.0,12.0,10.0,11.0,-10.0,-8.0,25.0,18.0,1651024374351854.0,1
243,-13.0,-29.0,-48.0,-31.0,1.0,8.0,2.0,-6.0,1651024374351854.0,1
244,0.0,28.0,62.0,17.0,-7.0,-50.0,-43.0,-19.0,1651024374353850.0,1
245,6.0,1.0,-28.0,-5.0,5.0,15.0,41.0,21.0,1651024374353850.0,1
246,-2.0,-15.0,-6.0,0.0,4.0,6.0,14.0,3.0,1651024374366841.0,1
247,-3.0,-7.0,0.0,10.0,-6.0,-6.0,-4.0,-2.0,1651024374366841.0,1
248,8.0,32.0,18.0,8.0,9.0,-14.0,-17.0,1.0,1651024374368836.0,1
249,-10.0,-31.0,-40.0,-25.0,-14.0,15.0,4.0,-8.0,1651024374368836.0,1
250,2.0,11.0,14.0,-1.0,8.0,-17.0,-10.0,-1.0,1651024374389780.0,1
251,-7.0,-25.0,-18.0,2.0,4.0,9.0,-3.0,-5.0,1651024374389780.0,1
252,12.0,31.0,25.0,8.0,1.0,-2.0,2.0,8.0,1651024374390751.0,1
253,-6.0,-9.0,-28.0,-17.0,-12.0,1.0,4.0,-5.0,1651024374390751.0,1
254,1.0,4.0,4.0,-9.0,-8.0,-8.0,21.0,13.0,1651024374411694.0,1
255,7.0,19.0,22.0,7.0,1.0,12.0,-14.0,-3.0,1651024374411694.0,1
256,-10.0,-14.0,-14.0,-11.0,0.0,-9.0,-25.0,-6.0,1651024374413690.0,1
257,5.0,7.0,11.0,18.0,4.0,0.0,24.0,10.0,1651024374413690.0,1
258,-1.0,3.0,7.0,-16.0,-17.0,-21.0,-10.0,0.0,1651024374426654.0,1
259,-6.0,-9.0,30.0,27.0,16.0,20.0,-6.0,-14.0,1651024374426654.0,1
260,-5.0,-15.0,-49.0,-25.0,-13.0,-21.0,-21.0,-9.0,1651024374432637.0,1
261,10.0,29.0,27.0,8.0,2.0,1.0,5.0,10.0,1651024374432637.0,1
262,-5.0,-18.0,-11.0,-10.0,1.0,4.0,6.0,1.0,1651024374449593.0,1
263,7.0,26.0,16.0,2.0,-5.0,-10.0,-18.0,-5.0,1651024374449593.0,1
264,13.0,17.0,24.0,10.0,5.0,4.0,12.0,12.0,1651024374450591.0,1
265,-14.0,-19.0,-6.0,1.0,-5.0,5.0,4.0,-8.0,1651024374450591.0,1
266,6.0,17.0,7.0,-5.0,3.0,2.0,-2.0,3.0,1651024374471535.0,1
267,-11.0,-35.0,-30.0,-20.0,-14.0,-29.0,7.0,0.0,1651024374471535.0,1
268,9.0,20.0,10.0,-4.0,-1.0,47.0,43.0,15.0,1651024374473529.0,1
269,5.0,13.0,24.0,34.0,24.0,-3.0,-29.0,-6.0,1651024374473529.0,1
270,-9.0,-22.0,-10.0,-19.0,-8.0,-2.0,-15.0,-10.0,1651024374486495.0,1
271,8.0,19.0,-6.0,29.0,14.0,11.0,14.0,11.0,1651024374486495.0,1
272,-12.0,-35.0,-44.0,-26.0,-17.0,-24.0,6.0,-4.0,1651024374493476.0,1
273,8.0,22.0,50.0,8.0,1.0,3.0,14.0,12.0,1651024374493476.0,1
274,1.0,-13.0,-68.0,7.0,11.0,9.0,-22.0,-10.0,1651024374509469.0,1
275,-5.0,-3.0,9.0,-11.0,-11.0,-10.0,-2.0,-4.0,1651024374509469.0,1
276,4.0,15.0,28.0,23.0,13.0,-1.0,-7.0,-1.0,1651024374511469.0,1
277,-9.0,-6.0,-14.0,-8.0,-6.0,2.0,-15.0,-13.0,1651024374511469.0,1
278,3.0,12.0,11.0,7.0,6.0,-8.0,8.0,5.0,1651024374531931.0,1
279,-11.0,-18.0,-13.0,-23.0,-8.0,9.0,-20.0,-13.0,1651024374531931.0,1
280,-1.0,-25.0,-40.0,-9.0,-1.0,1.0,53.0,24.0,1651024374533913.0,1
281,9.0,16.0,18.0,1.0,2.0,-6.0,-8.0,-2.0,1651024374533913.0,1
282,-9.0,-19.0,-21.0,-3.0,-7.0,-4.0,9.0,-1.0,1651024374545892.0,1
283,2.0,9.0,26.0,9.0,2.0,16.0,2.0,4.0,1651024374545892.0,1
284,-2.0,14.0,26.0,9.0,-1.0,-19.0,-43.0,-26.0,1651024374553264.0,1
285,12.0,10.0,-41.0,4.0,6.0,-1.0,44.0,30.0,1651024374553264.0,1
286,-6.0,-22.0,-1.0,-10.0,-8.0,6.0,8.0,-6.0,1651024374569944.0,1
287,-8.0,-20.0,-23.0,-16.0,-5.0,1.0,-16.0,-3.0,1651024374569944.0,1
288,1.0,14.0,16.0,-16.0,-6.0,-12.0,-21.0,-5.0,1651024374570949.0,1
289,-7.0,-6.0,12.0,33.0,13.0,7.0,-8.0,-9.0,1651024374570949.0,1
290,4.0,2.0,-25.0,2.0,0.0,-8.0,1.0,5.0,1651024374591942.0,1
291,5.0,13.0,49.0,14.0,3.0,0.0,14.0,10.0,1651024374591942.0,1
292,-2.0,-4.0,-29.0,-11.0,-3.0,-2.0,-8.0,-3.0,1651024374597917.0,1
293,4.0,26.0,47.0,-8.0,-15.0,-6.0,-18.0,-7.0,1651024374597917.0,1
294,-14.0,-35.0,-7.0,-24.0,-16.0,-3.0,44.0,12.0,1651024374606020.0,1
295,-5.0,-13.0,-53.0,28.0,41.0,15.0,-16.0,-14.0,1651024374606020.0,1
296,-10.0,-24.0,1.0,-5.0,-9.0,-3.0,20.0,7.0,1651024374613003.0,1
297,4.0,3.0,-6.0,-34.0,-13.0,-3.0,24.0,13.0,1651024374613003.0,1
298,7.0,28.0,24.0,61.0,19.0,4.0,-10.0,-2.0,1651024374629183.0,1
299,-9.0,-9.0,-14.0,-45.0,-32.0,-10.0,-19.0,-16.0,1651024374629183.0,1
300,1.0,12.0,19.0,32.0,10.0,0.0,15.0,7.0,1651024374631111.0,1
301,-3.0,-8.0,-23.0,-3.0,3.0,-4.0,-35.0,-22.0,1651024374631111.0,1
302,8.0,24.0,40.0,-1.0,6.0,19.0,59.0,28.0,1651024374652143.0,1
303,-4.0,-30.0,-41.0,-20.0,-11.0,-14.0,-19.0,-12.0,1651024374652143.0,1
304,16.0,44.0,46.0,18.0,10.0,1.0,-8.0,2.0,1651024374653137.0,1
305,-22.0,-68.0,-61.0,-20.0,-18.0,-7.0,-14.0,-15.0,1651024374653137.0,1
306,3.0,22.0,28.0,3.0,2.0,-6.0,-22.0,-6.0,1651024374666129.0,1
307,7.0,15.0,14.0,15.0,7.0,15.0,39.0,13.0,1651024374666129.0,1
308,-4.0,-12.0,16.0,-25.0,-16.0,-12.0,-41.0,-23.0,1651024374673199.0,1
309,6.0,-20.0,-78.0,-19.0,1.0,5.0,23.0,20.0,1651024374673199.0,1
310,1.0,38.0,61.0,9.0,0.0,-7.0,-12.0,-8.0,1651024374689977.0,1
311,-12.0,-41.0,-33.0,4.0,3.0,5.0,7.0,0.0,1651024374689977.0,1
312,0.0,17.0,36.0,19.0,2.0,-8.0,-48.0,-15.0,1651024374690946.0,1
313,-12.0,-29.0,-21.0,-18.0,-25.0,-37.0,1.0,-8.0,1651024374690946.0,1
314,1.0,7.0,2.0,-9.0,18.0,51.0,-12.0,-7.0,1651024374712039.0,1
315,11.0,27.0,32.0,17.0,3.0,0.0,25.0,17.0,1651024374712039.0,1
316,5.0,15.0,-2.0,-1.0,-2.0,2.0,6.0,6.0,1651024374713967.0,1
317,4.0,3.0,24.0,19.0,12.0,23.0,35.0,7.0,1651024374713967.0,1
318,-7.0,-40.0,-66.0,-33.0,-15.0,-20.0,-12.0,-1.0,1651024374726007.0,1
319,7.0,33.0,36.0,12.0,6.0,-1.0,-6.0,-7.0,1651024374726007.0,1
320,-11.0,-40.0,-55.0,-64.0,-24.0,-10.0,11.0,9.0,1651024374735034.0,1
321,-4.0,12.0,11.0,50.0,12.0,-8.0,-46.0,-20.0,1651024374735034.0,1
322,11.0,0.0,15.0,14.0,0.0,4.0,44.0,19.0,1651024374749990.0,1
323,4.0,19.0,-4.0,2.0,5.0,7.0,-3.0,-3.0,1651024374749990.0,1
324,-7.0,-13.0,-26.0,-1.0,-2.0,-11.0,-38.0,-17.0,1651024374750983.0,1
325,-2.0,12.0,28.0,-4.0,-1.0,8.0,13.0,6.0,1651024374750983.0,1
326,-5.0,-18.0,-21.0,-11.0,-6.0,-13.0,-23.0,-14.0,1651024374772269.0,1
327,-2.0,-9.0,10.0,21.0,9.0,0.0,-6.0,-2.0,1651024374772269.0,1
328,21.0,31.0,4.0,-14.0,-5.0,4.0,21.0,17.0,1651024374773269.0,1
329,4.0,16.0,32.0,6.0,10.0,12.0,3.0,3.0,1651024374773269.0,1
330,-13.0,-42.0,-68.0,-2.0,-4.0,-11.0,-25.0,-13.0,1651024374794221.0,1
331,-5.0,5.0,5.0,-13.0,-13.0,-12.0,4.0,-2.0,1651024374794221.0,1
332,7.0,0.0,11.0,13.0,8.0,17.0,74.0,28.0,1651024374796235.0,1
333,1.0,8.0,9.0,-1.0,0.0,-3.0,-22.0,-6.0,1651024374796235.0,1
334,-1.0,20.0,50.0,4.0,0.0,-4.0,-10.0,-3.0,1651024374809880.0,1
335,-1.0,-30.0,-44.0,-12.0,-5.0,-2.0,2.0,5.0,1651024374809880.0,1
336,-3.0,2.0,-9.0,9.0,3.0,9.0,-5.0,-7.0,1651024374810884.0,1
337,7.0,7.0,20.0,19.0,13.0,-3.0,20.0,12.0,1651024374810884.0,1
338,-1.0,1.0,3.0,-11.0,-7.0,-1.0,2.0,-7.0,1651024374831895.0,1
339,-2.0,-2.0,-8.0,-24.0,-11.0,-5.0,-7.0,2.0,1651024374831895.0,1
340,-2.0,0.0,20.0,33.0,18.0,1.0,0.0,1.0,1651024374833852.0,1
341,4.0,8.0,-18.0,-22.0,-17.0,2.0,47.0,18.0,1651024374833852.0,1
342,-4.0,-18.0,16.0,15.0,4.0,-7.0,-7.0,-3.0,1651024374845979.0,1
343,5.0,4.0,-12.0,-3.0,9.0,4.0,11.0,7.0,1651024374845979.0,1
344,-4.0,6.0,10.0,1.0,-3.0,-4.0,-21.0,-12.0,1651024374854958.0,1
345,-4.0,-22.0,-23.0,-3.0,8.0,2.0,-17.0,-6.0,1651024374854958.0,1
346,5.0,11.0,-16.0,-14.0,-15.0,-8.0,4.0,4.0,1651024374868930.0,1
347,1.0,7.0,22.0,1.0,-7.0,1.0,-1.0,0.0,1651024374868930.0,1
348,-8.0,-17.0,-10.0,7.0,8.0,4.0,13.0,-6.0,1651024374876900.0,1
349,0.0,14.0,2.0,-15.0,-9.0,-5.0,-8.0,-1.0,1651024374876900.0,1
350,0.0,7.0,6.0,0.0,3.0,-6.0,-32.0,-13.0,1651024374891860.0,1
351,2.0,-7.0,-10.0,2.0,0.0,5.0,30.0,8.0,1651024374891860.0,1
352,6.0,6.0,6.0,1.0,1.0,2.0,-8.0,6.0,1651024374893878.0,1
353,-8.0,-17.0,-9.0,1.0,1.0,0.0,-1.0,-10.0,1651024374893878.0,1
354,4.0,13.0,2.0,6.0,4.0,0.0,-17.0,-5.0,1651024374905884.0,1
355,12.0,20.0,10.0,-2.0,2.0,5.0,31.0,17.0,1651024374905884.0,1
356,-15.0,-35.0,-9.0,-18.0,-10.0,-12.0,-31.0,-16.0,1651024374914798.0,1
357,-5.0,-22.0,-34.0,-23.0,-16.0,5.0,1.0,-1.0,1651024374914798.0,1
358,-4.0,-1.0,15.0,14.0,14.0,-7.0,-19.0,-6.0,1651024374929838.0,1
359,2.0,19.0,26.0,2.0,7.0,3.0,21.0,2.0,1651024374929838.0,1
360,8.0,7.0,-15.0,2.0,-6.0,3.0,22.0,14.0,1651024374930772.0,1
361,-7.0,-16.0,6.0,-20.0,-3.0,0.0,-6.0,-8.0,1651024374930772.0,1
362,3.0,10.0,-26.0,1.0,-12.0,2.0,34.0,13.0,1651024374951905.0,1
363,-11.0,-17.0,-3.0,-28.0,-12.0,-13.0,-26.0,-9.0,1651024374951905.0,1
364,-7.0,-1.0,-7.0,9.0,4.0,-7.0,-24.0,-20.0,1651024374953900.0,1
365,13.0,12.0,7.0,12.0,5.0,15.0,43.0,29.0,1651024374953900.0,1
366,-2.0,10.0,25.0,-9.0,-1.0,-7.0,-52.0,-24.0,1651024374965813.0,1
367,5.0,13.0,0.0,14.0,3.0,10.0,21.0,8.0,1651024374965813.0,1
368,5.0,-11.0,-6.0,2.0,0.0,3.0,19.0,18.0,1651024374974728.0,1
369,-7.0,2.0,-1.0,-5.0,1.0,-5.0,-22.0,-18.0,1651024374974728.0,1
370,0.0,-1.0,5.0,2.0,-4.0,-2.0,2.0,3.0,1651024374989875.0,1
371,2.0,12.0,18.0,6.0,5.0,1.0,-16.0,-7.0,1651024374989875.0,1
372,-6.0,-21.0,-52.0,-10.0,-4.0,-5.0,-17.0,-13.0,1651024374990806.0,1
373,4.0,16.0,35.0,1.0,1.0,-1.0,-13.0,-3.0,1651024374990806.0,1
374,3.0,-15.0,-3.0,28.0,18.0,14.0,65.0,27.0,1651024375011967.0,1
375,-5.0,-4.0,4.0,-19.0,-15.0,-10.0,-22.0,-9.0,1651024375011967.0,1
376,1.0,11.0,16.0,20.0,26.0,6.0,9.0,4.0,1651024375013925.0,1
377,-5.0,-13.0,-13.0,-3.0,-13.0,-8.0,-27.0,-12.0,1651024375013925.0,1
378,1.0,0.0,-22.0,-9.0,0.0,-2.0,7.0,-1.0,1651024375025923.0,1
379,-10.0,-10.0,5.0,-21.0,-16.0,-10.0,-26.0,-8.0,1651024375025923.0,1
380,-4.0,-8.0,27.0,39.0,15.0,7.0,15.0,6.0,1651024375034899.0,1
381,-2.0,-4.0,-19.0,-28.0,-9.0,-6.0,7.0,0.0,1651024375034899.0,1
382,5.0,10.0,1.0,9.0,0.0,-2.0,-11.0,-2.0,1651024375049110.0,1
383,-8.0,-6.0,7.0,19.0,5.0,-4.0,-30.0,-17.0,1651024375049110.0,1
384,-1.0,-5.0,-16.0,-27.0,-22.0,-8.0,3.0,1.0,1651024375051038.0,1
385,6.0,42.0,31.0,34.0,20.0,-2.0,-49.0,-19.0,1651024375051038.0,1
386,-10.0,-27.0,-26.0,-36.0,-17.0,-5.0,35.0,11.0,1651024375072261.0,1
387,6.0,-4.0,-6.0,-6.0,-5.0,3.0,52.0,23.0,1651024375072261.0,1
388,5.0,17.0,-9.0,6.0,12.0,4.0,-16.0,-5.0,1651024375073261.0,1
389,-1.0,-5.0,21.0,12.0,-6.0,-1.0,-6.0,0.0,1651024375073261.0,1
390,-4.0,3.0,8.0,-2.0,-3.0,-3.0,-25.0,-12.0,1651024375085291.0,1
391,1.0,7.0,-9.0,-14.0,0.0,-1.0,-36.0,-19.0,1651024375085291.0,1
392,3.0,-7.0,1.0,2.0,-6.0,2.0,46.0,22.0,1651024375102321.0,1
393,3.0,11.0,19.0,10.0,7.0,-2.0,-36.0,-17.0,1651024375102321.0,1
394,10.0,20.0,3.0,-5.0,-2.0,6.0,33.0,10.0,1651024375109302.0,1
395,-6.0,-36.0,-31.0,-1.0,-3.0,0.0,13.0,9.0,1651024375109302.0,1
396,4.0,22.0,24.0,2.0,12.0,-3.0,-22.0,-12.0,1651024375111326.0,1
397,-1.0,-1.0,3.0,0.0,0.0,6.0,22.0,6.0,1651024375111326.0,1
398,-3.0,-24.0,-41.0,-21.0,-6.0,-4.0,2.0,0.0,1651024375131956.0,1
399,-7.0,-1.0,3.0,23.0,0.0,-7.0,-41.0,-28.0,1651024375131956.0,1
400,7.0,12.0,10.0,-2.0,-4.0,4.0,24.0,16.0,1651024375133912.0,1
401,3.0,9.0,17.0,19.0,14.0,7.0,20.0,6.0,1651024375133912.0,1
402,-5.0,-12.0,-14.0,-35.0,-18.0,-7.0,-2.0,1.0,1651024375145919.0,1
403,6.0,4.0,0.0,6.0,6.0,8.0,12.0,3.0,1651024375145919.0,1
404,-7.0,-22.0,-35.0,27.0,11.0,-3.0,-19.0,-10.0,1651024375154963.0,1
405,-5.0,-20.0,-7.0,3.0,-5.0,-1.0,12.0,2.0,1651024375154963.0,1
406,1.0,8.0,24.0,13.0,6.0,3.0,-28.0,-10.0,1651024375168951.0,1
407,4.0,1.0,-6.0,-12.0,-9.0,-6.0,20.0,12.0,1651024375168951.0,1
408,-5.0,-6.0,5.0,-11.0,-17.0,-6.0,-4.0,-3.0,1651024375170918.0,1
409,3.0,10.0,-7.0,11.0,14.0,7.0,-4.0,0.0,1651024375170918.0,1
410,5.0,12.0,9.0,4.0,-6.0,-5.0,50.0,24.0,1651024375192103.0,1
411,-2.0,-9.0,-6.0,0.0,17.0,4.0,5.0,3.0,1651024375192103.0,1
412,-1.0,14.0,41.0,0.0,-7.0,0.0,-6.0,-8.0,1651024375193098.0,1
413,-4.0,-32.0,-76.0,-22.0,-2.0,-2.0,-7.0,-6.0,1651024375193098.0,1
414,-3.0,5.0,24.0,0.0,-7.0,-3.0,-18.0,-6.0,1651024375214311.0,1
415,2.0,14.0,6.0,17.0,7.0,7.0,7.0,3.0,1651024375214311.0,1
416,-5.0,-5.0,-13.0,-16.0,-6.0,0.0,27.0,9.0,1651024375216239.0,1
417,-14.0,-40.0,-25.0,-19.0,-15.0,-11.0,17.0,5.0,1651024375216239.0,1
418,0.0,-7.0,-6.0,5.0,12.0,19.0,-1.0,-2.0,1651024375228962.0,1
419,11.0,23.0,22.0,-11.0,-9.0,-1.0,9.0,12.0,1651024375228962.0,1
420,4.0,19.0,5.0,19.0,21.0,4.0,-14.0,-10.0,1651024375235943.0,1
421,6.0,20.0,11.0,-15.0,-9.0,7.0,-21.0,-4.0,1651024375235943.0,1
422,-14.0,-62.0,-45.0,8.0,15.0,-3.0,7.0,-1.0,1651024375251954.0,1
423,-3.0,5.0,12.0,-4.0,-13.0,-11.0,-35.0,-18.0,1651024375251954.0,1
424,4.0,1.0,17.0,45.0,22.0,10.0,-8.0,4.0,1651024375253908.0,1
425,9.0,21.0,19.0,-11.0,-10.0,-4.0,60.0,28.0,1651024375253908.0,1
426,3.0,12.0,-3.0,-8.0,-3.0,-1.0,0.0,-2.0,1651024375274050.0,1
427,2.0,-1.0,-2.0,2.0,-3.0,2.0,-22.0,-10.0,1651024375274050.0,1
428,-14.0,-22.0,-24.0,-38.0,-8.0,-17.0,-36.0,-20.0,1651024375276033.0,1
429,6.0,14.0,22.0,17.0,4.0,2.0,9.0,6.0,1651024375276033.0,1
430,1.0,12.0,4.0,1.0,-1.0,-4.0,-7.0,-5.0,1651024375289957.0,1
431,-12.0,-21.0,2.0,10.0,8.0,8.0,-46.0,-24.0,1651024375289957.0,1
432,3.0,-4.0,-14.0,-13.0,-9.0,9.0,21.0,6.0,1651024375290950.0,1
433,-10.0,-12.0,-13.0,-18.0,-15.0,-34.0,-20.0,-8.0,1651024375290950.0,1
434,3.0,20.0,40.0,11.0,-4.0,-12.0,-12.0,-11.0,1651024375311998.0,1
435,-3.0,-5.0,-17.0,0.0,7.0,16.0,8.0,5.0,1651024375311998.0,1
436,8.0,23.0,23.0,-2.0,5.0,0.0,30.0,17.0,1651024375313926.0,1
437,0.0,-12.0,-21.0,5.0,6.0,-38.0,-22.0,-4.0,1651024375313926.0,1
438,-4.0,-9.0,-8.0,-1.0,-4.0,23.0,-5.0,-8.0,1651024375334888.0,1
439,1.0,-2.0,-8.0,2.0,-11.0,-6.0,14.0,5.0,1651024375334888.0,1
440,0.0,0.0,9.0,-7.0,7.0,30.0,23.0,2.0,1651024375335888.0,1
441,-2.0,10.0,3.0,3.0,-8.0,-52.0,-36.0,-13.0,1651024375335888.0,1
442,-1.0,-12.0,-18.0,-3.0,2.0,11.0,9.0,6.0,1651024375349895.0,1
443,5.0,8.0,14.0,11.0,16.0,13.0,2.0,8.0,1651024375349895.0,1
444,-4.0,-16.0,-19.0,-9.0,-20.0,-16.0,-9.0,-8.0,1651024375350855.0,1
445,3.0,-7.0,34.0,11.0,10.0,12.0,15.0,3.0,1651024375350855.0,1
446,3.0,20.0,-18.0,5.0,5.0,-19.0,-27.0,1.0,1651024375379968.0,1
447,10.0,74.0,8.0,-11.0,-8.0,-2.0,9.0,0.0,1651024375379968.0,1
448,1.0,-10.0,-7.0,-8.0,-11.0,-6.0,-15.0,-2.0,1651024375380918.0,1
449,1.0,35.0,5.0,6.0,11.0,-19.0,9.0,-10.0,1651024375380918.0,1
450,3.0,-39.0,26.0,9.0,6.0,53.0,18.0,14.0,1651024375393999.0,1
451,3.0,-24.0,-6.0,6.0,-4.0,-4.0,6.0,10.0,1651024375393999.0,1
452,-1.0,15.0,-13.0,-12.0,-1.0,-3.0,-10.0,-2.0,1651024375395995.0,1
453,3.0,-1.0,-4.0,-1.0,-1.0,24.0,3.0,1.0,1651024375395995.0,1
454,2.0,24.0,16.0,1.0,-1.0,-15.0,-6.0,-6.0,1651024375408938.0,1
455,-5.0,-20.0,-14.0,-3.0,0.0,-3.0,8.0,-3.0,1651024375408938.0,1
456,1.0,6.0,8.0,0.0,-11.0,-22.0,-2.0,-1.0,1651024375416910.0,1
457,-5.0,-15.0,-4.0,0.0,5.0,25.0,-5.0,2.0,1651024375416910.0,1
458,1.0,8.0,-2.0,-5.0,0.0,-8.0,-1.0,-3.0,1651024375431935.0,1
459,0.0,0.0,4.0,13.0,6.0,-6.0,7.0,4.0,1651024375431935.0,1
460,-3.0,-16.0,-2.0,1.0,-13.0,-5.0,-10.0,-2.0,1651024375433893.0,1
461,2.0,-3.0,-10.0,-6.0,13.0,26.0,5.0,1.0,1651024375433893.0,1
462,-7.0,6.0,9.0,8.0,16.0,-3.0,-3.0,-4.0,1651024375454810.0,1
463,0.0,4.0,-2.0,2.0,-8.0,-9.0,3.0,2.0,1651024375454810.0,1
464,-1.0,2.0,0.0,-4.0,0.0,0.0,-3.0,-2.0,1651024375455809.0,1
465,-2.0,-2.0,0.0,-3.0,-7.0,12.0,1.0,0.0,1651024375455809.0,1
466,2.0,-6.0,4.0,-1.0,-9.0,-12.0,-2.0,1.0,1651024375467867.0,1
467,-4.0,-20.0,-15.0,-9.0,5.0,-1.0,8.0,0.0,1651024375467867.0,1
468,-2.0,2.0,-16.0,-12.0,-4.0,0.0,-15.0,-5.0,1651024375476912.0,1
469,-1.0,-11.0,-4.0,-1.0,-10.0,4.0,-1.0,2.0,1651024375476912.0,1
470,2.0,5.0,2.0,-2.0,0.0,-6.0,-4.0,-1.0,1651024375492002.0,1
471,-3.0,1.0,8.0,4.0,4.0,0.0,4.0,2.0,1651024375492002.0,1
472,0.0,-5.0,20.0,11.0,5.0,5.0,6.0,0.0,1651024375493943.0,1
473,-2.0,-13.0,-21.0,-4.0,-9.0,3.0,2.0,0.0,1651024375493943.0,1
474,-5.0,-1.0,-3.0,-4.0,7.0,-7.0,-4.0,-3.0,1651024375515062.0,1
475,2.0,-3.0,2.0,4.0,11.0,6.0,2.0,2.0,1651024375515062.0,1
476,2.0,6.0,8.0,-3.0,-8.0,-3.0,0.0,2.0,1651024375515871.0,1
477,7.0,6.0,14.0,6.0,10.0,7.0,-2.0,2.0,1651024375515871.0,1
478,-8.0,2.0,-9.0,0.0,-13.0,-6.0,-2.0,-3.0,1651024375528837.0,1
479,0.0,-12.0,-7.0,-12.0,-23.0,-12.0,-3.0,-2.0,1651024375528837.0,1
480,-4.0,-4.0,2.0,-3.0,18.0,7.0,-3.0,-2.0,1651024375535817.0,1
481,-1.0,2.0,14.0,16.0,4.0,5.0,3.0,1.0,1651024375535817.0,1
482,2.0,3.0,-5.0,-2.0,-2.0,-4.0,1.0,1.0,1651024375551841.0,1
483,2.0,6.0,-10.0,-13.0,-1.0,-2.0,-2.0,1.0,1651024375551841.0,1
484,-6.0,-16.0,-6.0,-6.0,-12.0,-7.0,0.0,-3.0,1651024375553770.0,1
485,-2.0,-5.0,10.0,0.0,2.0,10.0,3.0,1.0,1651024375553770.0,1
486,1.0,0.0,-1.0,9.0,-1.0,0.0,-1.0,1.0,1651024375574780.0,1
487,-1.0,8.0,-1.0,7.0,12.0,3.0,-1.0,1.0,1651024375574780.0,1
488,1.0,-9.0,-3.0,-3.0,-3.0,-2.0,1.0,-1.0,1651024375575816.0,1
489,-4.0,7.0,-1.0,-7.0,-10.0,-1.0,-1.0,-3.0,1651024375575816.0,1
490,3.0,6.0,7.0,0.0,8.0,-5.0,-3.0,1.0,1651024375589674.0,1
491,7.0,-7.0,1.0,-4.0,-6.0,2.0,1.0,2.0,1651024375589674.0,1
492,-7.0,12.0,-9.0,5.0,15.0,1.0,-1.0,-5.0,1651024375597653.0,1
493,-2.0,5.0,4.0,2.0,-6.0,1.0,1.0,-1.0,1651024375597653.0,1
494,1.0,5.0,2.0,-2.0,-12.0,-5.0,-2.0,0.0,1651024375611928.0,1
495,-2.0,-9.0,-1.0,4.0,8.0,4.0,0.0,-2.0,1651024375611928.0,1
496,0.0,-23.0,4.0,3.0,-3.0,1.0,1.0,2.0,1651024375613923.0,1
497,7.0,22.0,-6.0,-5.0,3.0,0.0,0.0,-1.0,1651024375613923.0,1
498,2.0,18.0,3.0,-1.0,-12.0,-4.0,-1.0,0.0,1651024375633999.0,1
499,-1.0,-27.0,-3.0,3.0,8.0,0.0,0.0,0.0,1651024375633999.0,1
500,-12.0,-36.0,-10.0,-5.0,-16.0,-7.0,-3.0,-3.0,1651024375635984.0,1
501,-6.0,40.0,-1.0,-4.0,4.0,1.0,-2.0,-4.0,1651024375635984.0,1
502,1.0,-6.0,0.0,-1.0,4.0,5.0,1.0,2.0,1651024375649001.0,1
503,3.0,18.0,6.0,-5.0,-5.0,-4.0,0.0,-1.0,1651024375649001.0,1
504,4.0,-5.0,-1.0,-1.0,-7.0,-1.0,1.0,1.0,1651024375656095.0,1
505,-4.0,-22.0,-2.0,2.0,1.0,-2.0,0.0,-1.0,1651024375656095.0,1
506,-3.0,-9.0,-4.0,-1.0,4.0,0.0,-1.0,-2.0,1651024375672052.0,1
507,-1.0,-14.0,-1.0,3.0,-1.0,0.0,-2.0,-2.0,1651024375672052.0,1
508,-4.0,-3.0,-4.0,-2.0,3.0,2.0,0.0,-3.0,1651024375673050.0,1
509,-3.0,-16.0,-12.0,-10.0,-8.0,-2.0,-1.0,-1.0,1651024375673050.0,1
510,1.0,7.0,7.0,-1.0,1.0,0.0,-1.0,0.0,1651024375693995.0,1
511,1.0,0.0,4.0,4.0,-2.0,-1.0,-1.0,-2.0,1651024375693995.0,1
512,16.0,14.0,-13.0,-7.0,-4.0,2.0,3.0,6.0,1651024375695989.0,1
513,-3.0,30.0,1.0,-4.0,1.0,0.0,-3.0,-4.0,1651024375695989.0,1
514,3.0,0.0,1.0,1.0,5.0,0.0,0.0,0.0,1651024375707960.0,1
515,-1.0,7.0,1.0,0.0,-4.0,1.0,-1.0,-1.0,1651024375707960.0,1
516,5.0,21.0,15.0,7.0,4.0,0.0,-1.0,2.0,1651024375716939.0,1
517,4.0,-23.0,-7.0,2.0,3.0,1.0,1.0,3.0,1651024375716939.0,1
518,-1.0,2.0,10.0,3.0,-1.0,-1.0,-1.0,-2.0,1651024375730959.0,1
519,5.0,30.0,-5.0,-2.0,-2.0,-1.0,-1.0,-2.0,1651024375730959.0,1
520,-14.0,-23.0,-7.0,-2.0,1.0,-1.0,-2.0,-4.0,1651024375739877.0,1
521,7.0,-12.0,-2.0,0.0,0.0,0.0,1.0,1.0,1651024375739877.0,1
522,-2.0,5.0,-1.0,0.0,-3.0,0.0,-1.0,-3.0,1651024375754105.0,1
523,-5.0,-20.0,0.0,3.0,2.0,2.0,1.0,1.0,1651024375754105.0,1
524,5.0,15.0,3.0,1.0,-5.0,-4.0,0.0,1.0,1651024375756103.0,1
525,0.0,-13.0,-3.0,-4.0,-6.0,2.0,0.0,-1.0,1651024375756103.0,1
526,0.0,-1.0,1.0,1.0,8.0,-1.0,2.0,-1.0,1651024375768137.0,1
527,-5.0,-18.0,-2.0,2.0,4.0,0.0,-1.0,-2.0,1651024375768137.0,1
528,4.0,28.0,3.0,0.0,-1.0,-2.0,-2.0,1.0,1651024375777101.0,1
529,-1.0,-22.0,-1.0,2.0,2.0,1.0,0.0,0.0,1651024375777101.0,1
530,3.0,26.0,1.0,-1.0,-4.0,-1.0,-1.0,-1.0,1651024375792126.0,1
531,-7.0,-28.0,-12.0,-2.0,-1.0,0.0,1.0,-1.0,1651024375792126.0,1
532,2.0,18.0,-7.0,-14.0,-17.0,-7.0,-3.0,-3.0,1651024375793057.0,1
533,-9.0,-24.0,-1.0,1.0,15.0,5.0,-1.0,-3.0,1651024375793057.0,1
534,8.0,12.0,-6.0,-3.0,-4.0,1.0,3.0,3.0,1651024375815121.0,1
535,-11.0,-8.0,-1.0,-3.0,-4.0,-4.0,-3.0,-6.0,1651024375815121.0,1
536,2.0,-6.0,4.0,7.0,-2.0,0.0,1.0,1.0,1651024375815925.0,1
537,-2.0,16.0,-3.0,-5.0,-3.0,-2.0,-2.0,-1.0,1651024375815925.0,1
538,-5.0,-15.0,-9.0,-7.0,0.0,-2.0,-4.0,-3.0,1651024375827884.0,1
539,2.0,7.0,6.0,1.0,-5.0,-1.0,0.0,3.0,1651024375827884.0,1
540,-3.0,0.0,2.0,0.0,3.0,3.0,1.0,-1.0,1651024375836859.0,1
541,-4.0,-7.0,-3.0,2.0,-1.0,-2.0,0.0,-1.0,1651024375836859.0,1
542,-5.0,-16.0,2.0,2.0,2.0,0.0,0.0,0.0,1651024375851849.0,1
543,4.0,13.0,1.0,-2.0,-4.0,-1.0,1.0,-1.0,1651024375851849.0,1
544,0.0,6.0,4.0,2.0,5.0,2.0,-1.0,0.0,1651024375853814.0,1
545,0.0,-18.0,-3.0,3.0,1.0,-1.0,1.0,2.0,1651024375853814.0,1
546,0.0,-1.0,-2.0,-1.0,-6.0,-1.0,0.0,-1.0,1651024375874816.0,1
547,-3.0,2.0,-4.0,-3.0,0.0,-2.0,-3.0,0.0,1651024375874816.0,1
548,2.0,3.0,1.0,1.0,1.0,1.0,1.0,0.0,1651024375875855.0,1
549,-10.0,-45.0,-12.0,-1.0,-5.0,-3.0,-2.0,-3.0,1651024375875855.0,1
550,-1.0,3.0,2.0,2.0,8.0,0.0,-1.0,-1.0,1651024375887776.0,1
551,2.0,11.0,4.0,-1.0,-4.0,-1.0,0.0,1.0,1651024375887776.0,1
552,-2.0,-11.0,-8.0,2.0,5.0,1.0,-1.0,-1.0,1651024375896689.0,1
553,2.0,14.0,4.0,-3.0,-9.0,-1.0,0.0,1.0,1651024375896689.0,1
554,-2.0,-3.0,-1.0,-2.0,-4.0,1.0,-1.0,-1.0,1651024375912133.0,1
555,-1.0,-12.0,-1.0,1.0,11.0,0.0,-1.0,0.0,1651024375912133.0,1
556,0.0,10.0,6.0,3.0,-1.0,0.0,1.0,1.0,1651024375913136.0,1
557,3.0,13.0,0.0,1.0,-3.0,-4.0,-2.0,0.0,1651024375913136.0,1
558,-6.0,-17.0,-3.0,0.0,2.0,3.0,-2.0,-2.0,1651024375934868.0,1
559,3.0,10.0,-2.0,0.0,-1.0,1.0,1.0,1.0,1651024375934868.0,1
560,-5.0,-14.0,0.0,-3.0,-1.0,0.0,0.0,-3.0,1651024375936486.0,1
561,10.0,29.0,5.0,0.0,-2.0,-1.0,-2.0,-1.0,1651024375936486.0,1
562,-7.0,-29.0,-10.0,0.0,-5.0,-4.0,-1.0,-4.0,1651024375948515.0,1
563,1.0,-4.0,-1.0,-1.0,-3.0,0.0,0.0,1.0,1651024375948515.0,1
564,-4.0,11.0,-1.0,-1.0,5.0,2.0,-1.0,-5.0,1651024375956896.0,1
565,-2.0,-18.0,2.0,2.0,2.0,3.0,0.0,2.0,1651024375956896.0,1
566,3.0,9.0,8.0,2.0,-2.0,0.0,1.0,2.0,1651024375971920.0,1
567,-6.0,-15.0,-17.0,-6.0,-2.0,-2.0,-2.0,-2.0,1651024375971920.0,1
568,1.0,-1.0,-4.0,0.0,-1.0,-1.0,0.0,2.0,1651024375973872.0,1
569,-1.0,-1.0,0.0,1.0,1.0,-1.0,-1.0,-1.0,1651024375973872.0,1
570,0.0,10.0,0.0,-3.0,-3.0,0.0,-1.0,-2.0,1651024375994295.0,1
571,-2.0,1.0,1.0,-1.0,1.0,0.0,-1.0,0.0,1651024375994295.0,1
572,4.0,13.0,4.0,2.0,0.0,-1.0,0.0,2.0,1651024375996298.0,1
573,-3.0,-9.0,-3.0,-3.0,-8.0,-1.0,0.0,-2.0,1651024375996298.0,1
574,1.0,-4.0,-4.0,0.0,14.0,1.0,0.0,-1.0,1651024376007833.0,1
575,-1.0,6.0,4.0,-5.0,-10.0,-2.0,-2.0,-3.0,1651024376007833.0,1
576,0.0,3.0,5.0,9.0,7.0,1.0,-1.0,0.0,1651024376024723.0,1
577,1.0,3.0,4.0,1.0,-5.0,-1.0,1.0,0.0,1651024376024723.0,1
578,4.0,17.0,-2.0,-1.0,-5.0,-2.0,0.0,0.0,1651024376031723.0,1
579,2.0,-1.0,0.0,-1.0,1.0,0.0,0.0,2.0,1651024376031723.0,1
580,-2.0,-24.0,-7.0,-5.0,-2.0,1.0,1.0,0.0,1651024376033700.0,1
581,-3.0,38.0,3.0,-2.0,0.0,-3.0,-2.0,-2.0,1651024376033700.0,1
582,-7.0,-1.0,1.0,-3.0,-3.0,-2.0,-3.0,-5.0,1651024376070291.0,1
583,1.0,5.0,2.0,1.0,0.0,-1.0,0.0,-1.0,1651024376070291.0,1
584,1.0,0.0,0.0,0.0,-4.0,-2.0,-1.0,-1.0,1651024376071222.0,1
585,-2.0,-44.0,-8.0,2.0,7.0,2.0,0.0,0.0,1651024376071222.0,1
586,0.0,14.0,4.0,-2.0,-1.0,-2.0,-2.0,-1.0,1651024376072219.0,1
587,-4.0,4.0,0.0,0.0,-2.0,-1.0,0.0,-1.0,1651024376072219.0,1
588,-2.0,-17.0,-3.0,-3.0,0.0,0.0,0.0,-1.0,1651024376077206.0,1
589,0.0,10.0,1.0,-1.0,1.0,-1.0,1.0,1.0,1651024376077206.0,1
590,2.0,-1.0,-1.0,-1.0,-5.0,-2.0,0.0,2.0,1651024376092168.0,1
591,-1.0,-9.0,-1.0,2.0,1.0,0.0,-1.0,1.0,1651024376092168.0,1
592,2.0,7.0,2.0,-1.0,1.0,-1.0,0.0,1.0,1651024376093163.0,1
593,-10.0,3.0,-11.0,-5.0,-2.0,-1.0,-2.0,-4.0,1651024376093163.0,1
594,-5.0,-8.0,-1.0,-1.0,-8.0,0.0,-1.0,-1.0,1651024376114931.0,1
595,-2.0,2.0,2.0,3.0,18.0,1.0,1.0,-1.0,1651024376114931.0,1
596,-2.0,6.0,-2.0,-2.0,-4.0,1.0,0.0,2.0,1651024376115918.0,1
597,4.0,4.0,1.0,2.0,0.0,1.0,0.0,2.0,1651024376115918.0,1
598,4.0,-4.0,1.0,0.0,-4.0,-1.0,0.0,2.0,1651024376137360.0,1
599,-4.0,-10.0,-5.0,-4.0,-9.0,0.0,1.0,-1.0,1651024376137360.0,1
600,4.0,21.0,5.0,-1.0,3.0,-2.0,-3.0,-2.0,1651024376138867.0,1
601,-2.0,-19.0,-2.0,1.0,1.0,-1.0,-1.0,-4.0,1651024376138867.0,1
602,0.0,0.0,1.0,1.0,1.0,1.0,0.0,1.0,1651024376152442.0,1
603,2.0,0.0,-2.0,-2.0,-5.0,-2.0,-1.0,-2.0,1651024376152442.0,1
604,-2.0,-9.0,-3.0,-2.0,-2.0,0.0,0.0,0.0,1651024376153450.0,1
605,4.0,7.0,2.0,0.0,-2.0,-1.0,0.0,2.0,1651024376153450.0,1
606,2.0,16.0,4.0,0.0,5.0,2.0,0.0,0.0,1651024376174416.0,1
607,-9.0,-51.0,-11.0,-3.0,-3.0,-2.0,-2.0,-2.0,1651024376174416.0,1
608,-3.0,-16.0,-6.0,0.0,-1.0,-1.0,-1.0,-2.0,1651024376176380.0,1
609,1.0,11.0,3.0,-2.0,0.0,0.0,1.0,-1.0,1651024376176380.0,1
610,-5.0,-10.0,-4.0,-1.0,0.0,0.0,0.0,-1.0,1651024376197324.0,1
611,2.0,18.0,4.0,1.0,-2.0,1.0,-1.0,0.0,1651024376197324.0,1
612,0.0,0.0,-1.0,-1.0,-1.0,-2.0,0.0,0.0,1651024376198324.0,1
613,1.0,-3.0,1.0,-1.0,0.0,-1.0,-2.0,1.0,1651024376198324.0,1
614,1.0,-6.0,0.0,2.0,1.0,-1.0,1.0,1.0,1651024376212285.0,1
615,1.0,10.0,-1.0,0.0,-1.0,-1.0,-2.0,-2.0,1651024376212285.0,1
616,-2.0,-4.0,1.0,-1.0,0.0,0.0,0.0,-1.0,1651024376213281.0,1
617,3.0,12.0,1.0,0.0,2.0,-1.0,0.0,-1.0,1651024376213281.0,1
618,-1.0,-5.0,-2.0,-2.0,-4.0,-2.0,0.0,-1.0,1651024376234289.0,1
619,0.0,8.0,1.0,-1.0,0.0,-1.0,0.0,1.0,1651024376234289.0,1
620,0.0,-1.0,0.0,0.0,-1.0,0.0,0.0,0.0,1651024376236221.0,1
621,0.0,-3.0,0.0,0.0,1.0,0.0,0.0,3.0,1651024376236221.0,1
622,4.0,-1.0,0.0,1.0,2.0,0.0,1.0,-1.0,1651024376256951.0,1
623,2.0,4.0,2.0,0.0,0.0,-2.0,0.0,-2.0,1651024376256951.0,1
624,1.0,4.0,-1.0,0.0,0.0,0.0,0.0,-1.0,1651024376258909.0,1
625,0.0,5.0,0.0,0.0,-1.0,0.0,0.0,1.0,1651024376258909.0,1
626,-1.0,-13.0,-3.0,0.0,-1.0,-2.0,-1.0,-1.0,1651024376271916.0,1
627,-1.0,15.0,0.0,-2.0,-1.0,-2.0,-1.0,-1.0,1651024376271916.0,1
628,-2.0,-11.0,-1.0,-1.0,-1.0,-2.0,0.0,0.0,1651024376273866.0,1
629,0.0,-5.0,0.0,-1.0,-1.0,-2.0,-1.0,-2.0,1651024376273866.0,1
630,3.0,7.0,0.0,-1.0,-2.0,1.0,-1.0,0.0,1651024376294786.0,1
631,5.0,2.0,5.0,1.0,-1.0,0.0,1.0,2.0,1651024376294786.0,1
632,0.0,4.0,-1.0,0.0,2.0,-1.0,-2.0,-1.0,1651024376295796.0,1
633,-5.0,-18.0,-4.0,1.0,-1.0,1.0,1.0,1.0,1651024376295796.0,1
634,0.0,2.0,1.0,-1.0,3.0,-1.0,-1.0,1.0,1651024376316727.0,1
635,1.0,1.0,1.0,-3.0,-6.0,-3.0,0.0,-1.0,1651024376316727.0,1
636,1.0,7.0,3.0,0.0,3.0,2.0,-1.0,0.0,1651024376318749.0,1
637,-3.0,0.0,-1.0,-1.0,1.0,0.0,0.0,-2.0,1651024376318749.0,1
638,0.0,-1.0,-3.0,-3.0,-3.0,0.0,0.0,-1.0,1651024376331698.0,1
639,-1.0,3.0,-2.0,-1.0,-2.0,-1.0,-1.0,-2.0,1651024376331698.0,1
640,-2.0,-1.0,1.0,0.0,-3.0,-3.0,-1.0,-3.0,1651024376337736.0,1
641,-1.0,-4.0,1.0,1.0,1.0,0.0,-2.0,0.0,1651024376337736.0,1
642,1.0,13.0,2.0,1.0,1.0,-1.0,-1.0,1.0,1651024376354813.0,1
643,-3.0,-5.0,-1.0,-4.0,-4.0,-1.0,-1.0,0.0,1651024376354813.0,1
644,-4.0,0.0,-3.0,-1.0,-2.0,-1.0,-1.0,-1.0,1651024376355871.0,1
645,-1.0,-9.0,0.0,1.0,11.0,2.0,0.0,-1.0,1651024376355871.0,1
646,2.0,10.0,4.0,0.0,-5.0,-1.0,-2.0,0.0,1651024376377328.0,1
647,0.0,-4.0,2.0,1.0,3.0,1.0,0.0,-1.0,1651024376377328.0,1
648,-1.0,-6.0,-3.0,-3.0,-6.0,-1.0,0.0,-1.0,1651024376378729.0,1
649,1.0,11.0,1.0,0.0,-3.0,-1.0,-1.0,0.0,1651024376378729.0,1
650,0.0,-11.0,-2.0,-1.0,3.0,0.0,-1.0,-2.0,1651024376391736.0,1
651,-3.0,10.0,0.0,-2.0,-3.0,-2.0,-3.0,-2.0,1651024376391736.0,1
652,-1.0,-4.0,-1.0,-1.0,5.0,-1.0,1.0,0.0,1651024376398686.0,1
653,2.0,7.0,1.0,1.0,-4.0,-1.0,0.0,-1.0,1651024376398686.0,1
654,-7.0,-18.0,-5.0,0.0,0.0,0.0,0.0,0.0,1651024376414644.0,1
655,-1.0,-3.0,-1.0,1.0,-1.0,0.0,0.0,-1.0,1651024376414644.0,1
656,-1.0,2.0,1.0,1.0,-1.0,0.0,-1.0,-1.0,1651024376415740.0,1
657,1.0,7.0,-1.0,-1.0,-1.0,0.0,-2.0,-1.0,1651024376415740.0,1
658,-3.0,-7.0,0.0,-1.0,-3.0,-1.0,0.0,0.0,1651024376436639.0,1
659,0.0,1.0,-1.0,2.0,2.0,-1.0,0.0,-1.0,1651024376436639.0,1
660,-1.0,-1.0,-2.0,0.0,1.0,0.0,0.0,1.0,1651024376438569.0,1
661,0.0,2.0,0.0,-3.0,-4.0,-3.0,-1.0,-3.0,1651024376438569.0,1
662,-4.0,1.0,0.0,-3.0,-1.0,-4.0,-1.0,-3.0,1651024376450857.0,1
663,1.0,-2.0,0.0,0.0,3.0,2.0,0.0,1.0,1651024376450857.0,1
664,1.0,10.0,2.0,0.0,-1.0,0.0,0.0,-1.0,1651024376457935.0,1
665,0.0,-2.0,-2.0,0.0,-2.0,0.0,0.0,0.0,1651024376457935.0,1
666,-1.0,3.0,0.0,0.0,1.0,0.0,-2.0,0.0,1651024376474441.0,1
667,0.0,0.0,0.0,0.0,1.0,0.0,-2.0,-2.0,1651024376474441.0,1
668,-1.0,2.0,0.0,0.0,-1.0,0.0,0.0,0.0,1651024376476366.0,1
669,-2.0,-2.0,0.0,-2.0,-2.0,-2.0,0.0,1.0,1651024376476366.0,1
670,3.0,2.0,0.0,-1.0,-1.0,0.0,1.0,-1.0,1651024376497102.0,1
671,-7.0,-5.0,-1.0,0.0,0.0,1.0,-1.0,-1.0,1651024376497102.0,1
672,2.0,-3.0,1.0,-2.0,1.0,1.0,0.0,0.0,1651024376498117.0,1
673,-2.0,-1.0,-3.0,-3.0,-10.0,-3.0,0.0,-1.0,1651024376498117.0,1
674,1.0,-1.0,0.0,4.0,15.0,1.0,1.0,3.0,1651024376511104.0,1
675,0.0,1.0,0.0,3.0,2.0,0.0,-1.0,1.0,1651024376511104.0,1
676,0.0,-3.0,-3.0,-2.0,-5.0,-1.0,0.0,0.0,1651024376518109.0,1
677,0.0,-1.0,-1.0,-1.0,1.0,-1.0,0.0,0.0,1651024376518109.0,1
678,0.0,1.0,0.0,-1.0,-7.0,-1.0,-2.0,-3.0,1651024376542370.0,1
679,-1.0,-3.0,-3.0,-2.0,-3.0,-2.0,0.0,1.0,1651024376542370.0,1
680,-2.0,-5.0,0.0,1.0,1.0,-1.0,-1.0,0.0,1651024376543377.0,1
681,2.0,5.0,1.0,1.0,-1.0,1.0,0.0,-1.0,1651024376543377.0,1
682,-3.0,-2.0,-2.0,-1.0,0.0,0.0,1.0,-1.0,1651024376557406.0,1
683,0.0,7.0,-2.0,-3.0,-3.0,-3.0,0.0,0.0,1651024376557406.0,1
684,1.0,-6.0,2.0,1.0,7.0,6.0,0.0,-1.0,1651024376558330.0,1
685,-6.0,-31.0,-8.0,0.0,-1.0,-2.0,-1.0,-3.0,1651024376558330.0,1
686,0.0,4.0,1.0,2.0,1.0,-1.0,0.0,0.0,1651024376571295.0,0
687,-4.0,-7.0,-1.0,-2.0,-3.0,-2.0,0.0,-2.0,1651024376571295.0,0
688,1.0,4.0,-1.0,-3.0,-8.0,-3.0,1.0,0.0,1651024376577909.0,0
689,1.0,3.0,0.0,0.0,2.0,1.0,-1.0,0.0,1651024376577909.0,0
690,-2.0,-4.0,-1.0,0.0,1.0,-2.0,-1.0,-3.0,1651024376594883.0,0
691,0.0,-6.0,-3.0,-1.0,-2.0,1.0,0.0,0.0,1651024376594883.0,0
692,1.0,8.0,0.0,-1.0,-1.0,-3.0,-2.0,-2.0,1651024376595881.0,0
693,-1.0,7.0,0.0,-2.0,0.0,0.0,-1.0,-1.0,1651024376595881.0,0
694,1.0,-1.0,-1.0,-1.0,-6.0,-2.0,-3.0,-2.0,1651024376617035.0,0
695,2.0,4.0,-2.0,-3.0,-11.0,-1.0,0.0,2.0,1651024376617035.0,0
696,-1.0,-2.0,-1.0,-2.0,19.0,3.0,-1.0,-1.0,1651024376618967.0,0
697,3.0,6.0,2.0,5.0,0.0,0.0,1.0,0.0,1651024376618967.0,0
698,-3.0,-11.0,-2.0,-2.0,-5.0,0.0,0.0,1.0,1651024376631001.0,0
699,0.0,-3.0,0.0,1.0,2.0,1.0,-1.0,-1.0,1651024376631001.0,0
700,-1.0,9.0,-1.0,1.0,-10.0,-2.0,1.0,0.0,1651024376639649.0,0
701,-2.0,-3.0,-2.0,0.0,1.0,0.0,0.0,-1.0,1651024376639649.0,0
702,1.0,3.0,1.0,-2.0,1.0,0.0,1.0,2.0,1651024376654962.0,0
703,1.0,5.0,1.0,-1.0,1.0,-1.0,0.0,-1.0,1651024376654962.0,0
704,-3.0,-8.0,-5.0,-2.0,-4.0,-2.0,-2.0,-2.0,1651024376655789.0,0
705,0.0,3.0,4.0,1.0,4.0,1.0,0.0,-1.0,1651024376655789.0,0
706,0.0,6.0,-3.0,0.0,-4.0,-1.0,2.0,-2.0,1651024376677377.0,0
707,0.0,1.0,-1.0,0.0,5.0,-2.0,0.0,1.0,1651024376677377.0,0
708,0.0,4.0,4.0,1.0,1.0,0.0,0.0,1.0,1651024376678374.0,0
709,0.0,-5.0,-2.0,-1.0,-1.0,0.0,-1.0,-1.0,1651024376678374.0,0
710,-4.0,-13.0,-2.0,-1.0,-4.0,-2.0,-3.0,-2.0,1651024376699385.0,0
711,1.0,2.0,2.0,-1.0,0.0,1.0,0.0,-2.0,1651024376699385.0,0
712,-2.0,-5.0,-2.0,0.0,1.0,-1.0,-2.0,0.0,1651024376700317.0,0
713,-1.0,0.0,-2.0,-6.0,-24.0,-8.0,-2.0,-2.0,1651024376700317.0,0
714,1.0,6.0,1.0,-1.0,23.0,5.0,0.0,1.0,1651024376714280.0,0
715,-1.0,-8.0,2.0,6.0,5.0,1.0,1.0,-1.0,1651024376714280.0,0
716,-1.0,0.0,2.0,2.0,-9.0,-1.0,1.0,-1.0,1651024376714280.0,0
717,0.0,3.0,-1.0,0.0,2.0,1.0,-1.0,0.0,1651024376714280.0,0
718,-2.0,0.0,-2.0,-4.0,-8.0,-3.0,-3.0,-2.0,1651024376736334.0,0
719,1.0,5.0,0.0,-3.0,-1.0,-1.0,0.0,-1.0,1651024376736334.0,0
720,-1.0,-7.0,-5.0,-1.0,0.0,-1.0,-1.0,-1.0,1651024376737318.0,0
721,1.0,3.0,6.0,1.0,1.0,-2.0,0.0,1.0,1651024376737318.0,0
722,0.0,-4.0,-10.0,-4.0,-4.0,-1.0,-1.0,-2.0,1651024376766913.0,0
723,-3.0,-3.0,-3.0,-1.0,2.0,-1.0,-1.0,1.0,1651024376766913.0,0
724,1.0,1.0,1.0,2.0,2.0,0.0,1.0,-1.0,1651024376767849.0,0
725,0.0,3.0,1.0,1.0,4.0,2.0,1.0,0.0,1651024376767849.0,0
726,1.0,3.0,2.0,1.0,-2.0,0.0,0.0,3.0,1651024376773860.0,0
727,-3.0,-25.0,-6.0,-4.0,-2.0,-1.0,-1.0,-1.0,1651024376773860.0,0
728,0.0,1.0,6.0,2.0,-3.0,0.0,0.0,2.0,1651024376774859.0,0
729,-1.0,-6.0,-9.0,-14.0,1.0,0.0,0.0,-1.0,1651024376774859.0,0
730,-1.0,4.0,3.0,1.0,-3.0,1.0,0.0,-1.0,1651024376796708.0,0
731,-2.0,3.0,3.0,10.0,-6.0,-1.0,-1.0,0.0,1651024376796708.0,0
732,0.0,-2.0,-3.0,-4.0,11.0,-1.0,0.0,0.0,1651024376796708.0,0
733,-2.0,-4.0,2.0,0.0,1.0,0.0,-1.0,-1.0,1651024376796708.0,0
734,2.0,3.0,15.0,2.0,-2.0,-1.0,1.0,-1.0,1651024376818723.0,0
735,1.0,2.0,-11.0,-6.0,-2.0,-2.0,0.0,0.0,1651024376818723.0,0
736,0.0,3.0,20.0,11.0,2.0,4.0,0.0,-1.0,1651024376819649.0,0
737,3.0,14.0,6.0,8.0,6.0,1.0,2.0,4.0,1651024376819649.0,0
738,-2.0,-13.0,-31.0,-9.0,-3.0,-1.0,-1.0,1.0,1651024376833639.0,0
739,-3.0,-7.0,-31.0,-18.0,-7.0,-4.0,-3.0,-2.0,1651024376833639.0,0
740,-1.0,4.0,22.0,7.0,-1.0,-2.0,-2.0,-3.0,1651024376834609.0,0
741,1.0,4.0,11.0,-1.0,0.0,-2.0,1.0,3.0,1651024376834609.0,0
742,-1.0,17.0,30.0,-2.0,-7.0,-3.0,-5.0,-4.0,1651024376856750.0,0
743,1.0,-2.0,-26.0,-3.0,6.0,2.0,0.0,1.0,1651024376856750.0,0
744,-1.0,-11.0,-10.0,-15.0,-11.0,-8.0,-1.0,0.0,1651024376856750.0,0
745,0.0,-3.0,0.0,25.0,-8.0,-3.0,-2.0,-2.0,1651024376856750.0,2
746,6.0,22.0,50.0,20.0,7.0,-1.0,0.0,3.0,1651024376886799.0,2
747,-6.0,-2.0,-1.0,-11.0,-5.0,-1.0,-3.0,-5.0,1651024376886799.0,2
748,8.0,6.0,-13.0,28.0,16.0,11.0,12.0,9.0,1651024376887734.0,2
749,3.0,16.0,35.0,12.0,23.0,5.0,2.0,3.0,1651024376887734.0,2
750,-2.0,-16.0,-54.0,-21.0,-6.0,-3.0,-3.0,-3.0,1651024376893719.0,2
751,4.0,-4.0,-11.0,-3.0,-14.0,-5.0,2.0,3.0,1651024376893719.0,2
752,-4.0,-10.0,-5.0,-34.0,-27.0,-8.0,-8.0,-7.0,1651024376894716.0,2
753,-2.0,-1.0,-8.0,-30.0,-14.0,2.0,8.0,1.0,1651024376894716.0,2
754,6.0,15.0,23.0,27.0,32.0,10.0,9.0,6.0,1651024376923910.0,2
755,-11.0,-17.0,-3.0,13.0,1.0,-41.0,-36.0,-20.0,1651024376923910.0,2
756,-13.0,3.0,-23.0,-63.0,-13.0,4.0,17.0,9.0,1651024376924908.0,2
757,-14.0,-15.0,5.0,60.0,7.0,1.0,-11.0,-9.0,1651024376924908.0,2
758,-2.0,-18.0,-4.0,-10.0,-14.0,-4.0,-8.0,-7.0,1651024376939197.0,2
759,9.0,29.0,9.0,-1.0,3.0,33.0,2.0,7.0,1651024376939197.0,2
760,-12.0,-32.0,-21.0,13.0,-8.0,-25.0,-16.0,-16.0,1651024376939197.0,2
761,-17.0,6.0,11.0,-38.0,6.0,16.0,20.0,13.0,1651024376939197.0,2
762,10.0,8.0,-16.0,-21.0,-21.0,-25.0,-11.0,-2.0,1651024376954240.0,2
763,-3.0,5.0,41.0,22.0,14.0,32.0,-6.0,-1.0,1651024376954240.0,2
764,-2.0,19.0,15.0,-44.0,-5.0,-8.0,9.0,3.0,1651024376954240.0,2
765,20.0,-3.0,-38.0,7.0,2.0,-1.0,-16.0,-2.0,1651024376954240.0,2
766,0.0,-29.0,6.0,60.0,19.0,11.0,18.0,12.0,1651024376976770.0,2
767,-2.0,-7.0,-48.0,-33.0,-11.0,-23.0,-50.0,-31.0,1651024376976770.0,2
768,19.0,33.0,66.0,38.0,2.0,10.0,47.0,32.0,1651024376976770.0,2
769,15.0,4.0,-54.0,-54.0,-15.0,5.0,28.0,19.0,1651024376976770.0,2
770,-17.0,-14.0,39.0,19.0,5.0,2.0,7.0,-4.0,1651024376999039.0,2
771,4.0,32.0,49.0,21.0,11.0,-9.0,-62.0,-22.0,1651024376999039.0,2
772,-8.0,-38.0,-69.0,3.0,6.0,11.0,71.0,34.0,1651024377006036.0,2
773,-12.0,-19.0,17.0,11.0,7.0,-53.0,-30.0,-19.0,1651024377006036.0,2
774,-9.0,-13.0,-42.0,-44.0,-21.0,14.0,-19.0,-16.0,1651024377014207.0,2
775,4.0,1.0,-3.0,7.0,20.0,60.0,65.0,30.0,1651024377014207.0,2
776,22.0,48.0,41.0,-29.0,-9.0,-5.0,-27.0,-5.0,1651024377014835.0,2
777,-7.0,-22.0,-4.0,47.0,-2.0,-3.0,-8.0,-7.0,1651024377014835.0,2
778,-21.0,-42.0,-43.0,-25.0,-1.0,-31.0,7.0,-3.0,1651024377035878.0,2
779,1.0,6.0,22.0,-7.0,-1.0,-3.0,1.0,-1.0,1651024377035878.0,2
780,4.0,9.0,-10.0,17.0,-2.0,-9.0,-38.0,-14.0,1651024377036878.0,2
781,4.0,12.0,-2.0,-11.0,0.0,3.0,-58.0,-21.0,1651024377036878.0,2
782,8.0,22.0,8.0,3.0,-3.0,4.0,-8.0,-3.0,1651024377059003.0,2
783,4.0,9.0,44.0,7.0,4.0,5.0,92.0,41.0,1651024377059003.0,2
784,-3.0,-20.0,-66.0,-6.0,7.0,3.0,-11.0,-4.0,1651024377059980.0,2
785,-9.0,-29.0,-9.0,1.0,-8.0,-4.0,-5.0,-9.0,1651024377059980.0,2
786,1.0,8.0,2.0,14.0,6.0,10.0,-14.0,-8.0,1651024377073897.0,2
787,0.0,-20.0,-9.0,-35.0,-18.0,-5.0,4.0,10.0,1651024377073897.0,2
788,7.0,13.0,39.0,19.0,6.0,3.0,-17.0,-6.0,1651024377074918.0,2
789,8.0,59.0,44.0,12.0,18.0,12.0,-27.0,-11.0,1651024377074918.0,2
790,-10.0,-52.0,-76.0,-29.0,-8.0,9.0,43.0,18.0,1651024377095913.0,2
791,7.0,14.0,23.0,26.0,-21.0,-25.0,25.0,8.0,1651024377095913.0,2
792,-3.0,0.0,44.0,12.0,28.0,17.0,-41.0,-17.0,1651024377096923.0,2
793,-4.0,-13.0,-52.0,-5.0,-2.0,-2.0,5.0,3.0,1651024377096923.0,2
794,12.0,43.0,46.0,-9.0,-8.0,1.0,-8.0,-1.0,1651024377118877.0,2
795,-7.0,-15.0,-34.0,-15.0,-1.0,-7.0,-7.0,-8.0,1651024377118877.0,2
796,-10.0,-23.0,-14.0,4.0,-11.0,-6.0,-13.0,-12.0,1651024377126789.0,2
797,5.0,15.0,24.0,-17.0,-12.0,0.0,5.0,1.0,1651024377126789.0,2
798,7.0,19.0,2.0,-5.0,1.0,-18.0,0.0,11.0,1651024377133839.0,2
799,-8.0,-14.0,-19.0,15.0,-5.0,-37.0,-36.0,-23.0,1651024377133839.0,2
800,0.0,-8.0,-4.0,1.0,6.0,38.0,86.0,37.0,1651024377134773.0,2
801,0.0,-14.0,-22.0,-14.0,-3.0,11.0,19.0,7.0,1651024377134773.0,2
802,3.0,21.0,37.0,12.0,-3.0,-28.0,-35.0,-12.0,1651024377164804.0,2
803,4.0,-12.0,-23.0,-8.0,1.0,47.0,28.0,10.0,1651024377164804.0,2
804,-3.0,4.0,-15.0,-11.0,-4.0,-16.0,-86.0,-40.0,1651024377164804.0,2
805,10.0,24.0,50.0,3.0,10.0,11.0,73.0,34.0,1651024377164804.0,2
806,0.0,-9.0,18.0,-8.0,-15.0,0.0,9.0,4.0,1651024377178727.0,2
807,-12.0,-31.0,-17.0,55.0,23.0,-17.0,-22.0,-8.0,1651024377178727.0,2
808,-9.0,0.0,19.0,8.0,1.0,-6.0,-3.0,-8.0,1651024377179696.0,2
809,-10.0,-38.0,-47.0,7.0,7.0,5.0,-2.0,-5.0,1651024377179696.0,2
810,11.0,41.0,33.0,20.0,17.0,5.0,-4.0,1.0,1651024377193329.0,2
811,-3.0,6.0,17.0,-15.0,-12.0,-4.0,18.0,10.0,1651024377193329.0,2
812,-4.0,-8.0,-28.0,-16.0,-10.0,5.0,-29.0,-17.0,1651024377194342.0,2
813,-9.0,-41.0,-18.0,-19.0,-22.0,-13.0,10.0,1.0,1651024377194342.0,2
814,15.0,-3.0,2.0,-3.0,10.0,-7.0,-9.0,-4.0,1651024377216464.0,2
815,12.0,5.0,-25.0,3.0,9.0,11.0,3.0,9.0,1651024377216464.0,2
816,-4.0,0.0,-7.0,3.0,-9.0,-4.0,18.0,9.0,1651024377217395.0,2
817,-4.0,-2.0,3.0,-13.0,-4.0,-8.0,-26.0,-11.0,1651024377217395.0,2
818,-2.0,-9.0,2.0,11.0,-1.0,19.0,-1.0,-5.0,1651024377238346.0,2
819,-5.0,-14.0,-25.0,-22.0,-1.0,6.0,3.0,2.0,1651024377238346.0,2
820,2.0,25.0,43.0,4.0,2.0,-21.0,-65.0,-28.0,1651024377239336.0,2
821,8.0,26.0,20.0,-8.0,-17.0,2.0,50.0,24.0,1651024377239336.0,2
822,-2.0,-5.0,5.0,61.0,34.0,18.0,9.0,5.0,1651024377253326.0,2
823,-1.0,9.0,-2.0,26.0,23.0,-6.0,-5.0,-3.0,1651024377253326.0,2
824,-4.0,-39.0,-26.0,7.0,7.0,-1.0,8.0,4.0,1651024377254296.0,2
825,-1.0,14.0,12.0,-9.0,-6.0,1.0,-4.0,-5.0,1651024377254296.0,2
826,-2.0,16.0,-4.0,-40.0,-18.0,2.0,14.0,7.0,1651024377276767.0,2
827,1.0,8.0,17.0,19.0,5.0,-4.0,-20.0,-11.0,1651024377276767.0,2
828,1.0,-7.0,-7.0,10.0,5.0,-4.0,-32.0,-17.0,1651024377276767.0,2
829,7.0,22.0,47.0,23.0,7.0,-1.0,49.0,23.0,1651024377276767.0,2
830,-11.0,-43.0,-86.0,-28.0,-6.0,-8.0,-40.0,-16.0,1651024377298778.0,2
831,9.0,3.0,28.0,-19.0,-11.0,22.0,75.0,36.0,1651024377298778.0,2
832,2.0,4.0,11.0,3.0,-11.0,-52.0,32.0,15.0,1651024377299708.0,2
833,-21.0,-57.0,-52.0,-17.0,3.0,57.0,-50.0,-35.0,1651024377299708.0,2
834,6.0,26.0,-11.0,-27.0,-11.0,9.0,41.0,16.0,1651024377313672.0,2
835,1.0,21.0,29.0,-2.0,1.0,1.0,-18.0,-9.0,1651024377313672.0,2
836,1.0,-1.0,-1.0,12.0,5.0,-7.0,1.0,1.0,1651024377321737.0,2
837,-3.0,-17.0,-32.0,-27.0,-30.0,-48.0,-9.0,1.0,1651024377321737.0,2
838,-6.0,-9.0,-27.0,-44.0,1.0,0.0,-16.0,-11.0,1651024377337607.0,2
839,1.0,13.0,30.0,56.0,11.0,0.0,-22.0,-9.0,1651024377337607.0,2
840,-2.0,-14.0,-3.0,0.0,-9.0,2.0,42.0,18.0,1651024377338604.0,2
841,0.0,36.0,19.0,28.0,21.0,-3.0,-35.0,-16.0,1651024377338604.0,2
842,-4.0,-28.0,14.0,-25.0,-19.0,9.0,5.0,4.0,1651024377358693.0,2
843,4.0,14.0,-37.0,-12.0,8.0,-8.0,-14.0,-5.0,1651024377358693.0,2
844,-9.0,-23.0,-8.0,1.0,-2.0,7.0,-24.0,-14.0,1651024377359628.0,2
845,5.0,-20.0,-36.0,-8.0,-5.0,4.0,27.0,23.0,1651024377359628.0,2
846,-2.0,11.0,24.0,12.0,-3.0,-13.0,-20.0,-12.0,1651024377374184.0,2
847,-3.0,-6.0,1.0,-11.0,1.0,-12.0,-13.0,-5.0,1651024377374184.0,2
848,4.0,14.0,13.0,18.0,8.0,-1.0,20.0,7.0,1651024377374468.0,2
849,1.0,21.0,23.0,-5.0,5.0,56.0,27.0,4.0,1651024377374468.0,2
850,2.0,7.0,3.0,31.0,7.0,-5.0,14.0,0.0,1651024377396322.0,2
851,-3.0,-1.0,22.0,-20.0,-13.0,-3.0,-22.0,-2.0,1651024377396322.0,2
852,-2.0,11.0,-3.0,-37.0,-16.0,8.0,6.0,-4.0,1651024377397320.0,2
853,2.0,-6.0,-3.0,-1.0,6.0,-22.0,-20.0,-3.0,1651024377397320.0,2
854,1.0,-1.0,-1.0,73.0,26.0,9.0,12.0,6.0,1651024377419028.0,2
855,5.0,18.0,32.0,2.0,5.0,7.0,-6.0,-1.0,1651024377419028.0,2
856,-5.0,-6.0,-27.0,-22.0,-11.0,-6.0,-18.0,-8.0,1651024377419028.0,2
857,-5.0,-16.0,16.0,-9.0,-1.0,-11.0,-5.0,-4.0,1651024377419028.0,2
858,7.0,19.0,26.0,7.0,2.0,11.0,30.0,17.0,1651024377433999.0,2
859,-5.0,-6.0,-32.0,-26.0,-16.0,-17.0,-29.0,-22.0,1651024377433999.0,2
860,12.0,14.0,23.0,9.0,1.0,16.0,63.0,42.0,1651024377434985.0,2
861,-11.0,-36.0,-40.0,-9.0,6.0,-18.0,-46.0,-25.0,1651024377434985.0,2
862,-11.0,-4.0,9.0,-6.0,-14.0,-20.0,-35.0,-18.0,1651024377456743.0,2
863,-6.0,-18.0,-10.0,-6.0,-3.0,4.0,30.0,5.0,1651024377456743.0,2
864,0.0,8.0,-4.0,7.0,9.0,45.0,-24.0,-11.0,1651024377456743.0,2
865,9.0,23.0,17.0,17.0,4.0,-4.0,18.0,8.0,1651024377456743.0,2
866,-11.0,-25.0,-20.0,-47.0,-21.0,-7.0,-20.0,-9.0,1651024377479134.0,2
867,5.0,2.0,0.0,27.0,0.0,-3.0,43.0,20.0,1651024377479134.0,2
868,-9.0,-27.0,-20.0,27.0,29.0,3.0,-11.0,-9.0,1651024377479134.0,2
869,6.0,19.0,-8.0,6.0,4.0,-9.0,-6.0,0.0,1651024377479134.0,2
870,3.0,33.0,58.0,1.0,-5.0,-5.0,-11.0,-4.0,1651024377494027.0,2
871,-21.0,-46.0,-61.0,-58.0,-24.0,-14.0,-35.0,-26.0,1651024377494027.0,2
872,1.0,3.0,13.0,28.0,3.0,2.0,19.0,11.0,1651024377494027.0,2
873,13.0,18.0,8.0,2.0,8.0,5.0,-1.0,10.0,1651024377494027.0,2
874,9.0,41.0,46.0,10.0,4.0,3.0,8.0,8.0,1651024377516728.0,2
875,4.0,-7.0,-20.0,-14.0,-5.0,8.0,0.0,2.0,1651024377516728.0,2
876,-19.0,-34.0,-26.0,-16.0,-3.0,-25.0,-53.0,-32.0,1651024377516728.0,2
877,2.0,11.0,6.0,2.0,-4.0,2.0,11.0,3.0,1651024377516728.0,2
878,3.0,-5.0,-10.0,-3.0,-1.0,-6.0,-17.0,-5.0,1651024377539107.0,2
879,2.0,11.0,21.0,13.0,7.0,18.0,14.0,4.0,1651024377539107.0,2
880,2.0,10.0,7.0,-16.0,-13.0,2.0,9.0,3.0,1651024377539107.0,2
881,0.0,-4.0,-1.0,-4.0,-7.0,-13.0,-7.0,-1.0,1651024377539107.0,2
882,-1.0,-4.0,7.0,34.0,9.0,3.0,-4.0,1.0,1651024377554004.0,2
883,7.0,11.0,0.0,2.0,17.0,3.0,11.0,5.0,1651024377554004.0,2
884,5.0,16.0,-3.0,-3.0,-8.0,-11.0,12.0,3.0,1651024377554995.0,2
885,-4.0,8.0,8.0,-2.0,-4.0,-3.0,-29.0,-12.0,1651024377554995.0,2
886,-1.0,-18.0,-19.0,-12.0,0.0,3.0,12.0,13.0,1651024377576766.0,2
887,-2.0,-6.0,-22.0,-9.0,-13.0,-10.0,-16.0,-4.0,1651024377576766.0,2
888,10.0,24.0,21.0,7.0,0.0,5.0,-12.0,-10.0,1651024377576766.0,2
889,7.0,14.0,52.0,15.0,11.0,7.0,23.0,20.0,1651024377576766.0,2
890,-20.0,-59.0,-97.0,-31.0,-14.0,-9.0,-21.0,-19.0,1651024377598927.0,2
891,0.0,7.0,16.0,-26.0,2.0,-3.0,0.0,1.0,1651024377598927.0,2
892,2.0,5.0,6.0,43.0,12.0,4.0,-8.0,1.0,1651024377599872.0,2
893,-3.0,14.0,4.0,-1.0,-10.0,-14.0,-1.0,-9.0,1651024377599872.0,2
894,-3.0,-6.0,12.0,7.0,9.0,20.0,7.0,0.0,1651024377613820.0,2
895,0.0,5.0,6.0,-1.0,-3.0,-1.0,13.0,8.0,1651024377613820.0,2
896,0.0,-3.0,-4.0,-20.0,-7.0,-11.0,-13.0,-4.0,1651024377614818.0,2
897,-12.0,-7.0,-1.0,-4.0,-5.0,-10.0,-29.0,-22.0,1651024377614818.0,2
898,14.0,27.0,38.0,37.0,21.0,43.0,71.0,34.0,1651024377635902.0,2
899,-2.0,-7.0,-2.0,8.0,1.0,-6.0,-11.0,-7.0,1651024377635902.0,2
900,-3.0,2.0,-6.0,-13.0,-7.0,-11.0,2.0,4.0,1651024377636898.0,2
901,-1.0,-18.0,-20.0,4.0,8.0,1.0,-3.0,-3.0,1651024377636898.0,2
902,-3.0,5.0,3.0,-54.0,-34.0,-17.0,-10.0,-8.0,1651024377658909.0,2
903,6.0,30.0,40.0,70.0,45.0,9.0,-6.0,0.0,1651024377658909.0,2
904,-7.0,-17.0,-11.0,-19.0,-11.0,3.0,29.0,0.0,1651024377659837.0,2
905,2.0,-8.0,-10.0,-12.0,-5.0,4.0,17.0,14.0,1651024377659837.0,2
906,6.0,20.0,36.0,5.0,-7.0,-6.0,-10.0,-4.0,1651024377681779.0,2
907,-6.0,-24.0,-64.0,-19.0,-10.0,-4.0,-15.0,-12.0,1651024377681779.0,2
908,7.0,14.0,25.0,-3.0,3.0,-2.0,11.0,10.0,1651024377682776.0,2
909,-14.0,-48.0,-38.0,-10.0,-9.0,-7.0,-1.0,-7.0,1651024377682776.0,2
910,0.0,6.0,4.0,-8.0,-2.0,-5.0,-19.0,-10.0,1651024377696896.0,2
911,3.0,14.0,16.0,-7.0,-7.0,-9.0,-20.0,-6.0,1651024377696896.0,2
912,0.0,2.0,4.0,7.0,12.0,16.0,14.0,6.0,1651024377696896.0,2
913,4.0,-5.0,-10.0,-1.0,-2.0,-5.0,3.0,3.0,1651024377696896.0,2
914,-1.0,-8.0,-20.0,11.0,11.0,12.0,0.0,-3.0,1651024377734906.0,2
915,-2.0,2.0,21.0,-5.0,-7.0,-9.0,-33.0,-13.0,1651024377734906.0,2
916,-2.0,-9.0,-42.0,-33.0,-10.0,-3.0,-21.0,-7.0,1651024377735951.0,2
917,10.0,38.0,64.0,31.0,5.0,2.0,33.0,22.0,1651024377735951.0,2
918,-14.0,-45.0,-74.0,-4.0,-1.0,-3.0,-10.0,-11.0,1651024377737926.0,2
919,2.0,8.0,25.0,-12.0,-5.0,1.0,1.0,1.0,1651024377737926.0,2
920,6.0,1.0,-18.0,0.0,-4.0,4.0,2.0,5.0,1651024377740916.0,2
921,-2.0,3.0,-5.0,-9.0,-5.0,-5.0,-16.0,-11.0,1651024377740916.0,2
922,0.0,19.0,37.0,-3.0,-15.0,-8.0,1.0,3.0,1651024377755914.0,2
923,-7.0,-24.0,-30.0,-1.0,20.0,8.0,19.0,3.0,1651024377755914.0,2
924,0.0,11.0,30.0,14.0,5.0,-3.0,-9.0,-1.0,1651024377756858.0,2
925,-1.0,-7.0,-25.0,4.0,-2.0,5.0,8.0,2.0,1651024377756858.0,2
926,-1.0,-1.0,-7.0,16.0,6.0,-5.0,3.0,4.0,1651024377779112.0,2
927,-2.0,-11.0,-12.0,-18.0,-24.0,-8.0,1.0,0.0,1651024377779112.0,2
928,-5.0,4.0,32.0,5.0,1.0,-2.0,-8.0,-6.0,1651024377780056.0,2
929,-1.0,3.0,-4.0,-3.0,6.0,9.0,17.0,3.0,1651024377780056.0,2
930,8.0,12.0,3.0,6.0,7.0,-1.0,8.0,5.0,1651024377793324.0,2
931,-1.0,10.0,34.0,0.0,1.0,3.0,-1.0,0.0,1651024377793324.0,2
932,11.0,8.0,-23.0,10.0,4.0,6.0,52.0,29.0,1651024377801369.0,2
933,-12.0,-36.0,-15.0,-6.0,-4.0,13.0,-15.0,-13.0,1651024377801369.0,2
934,-1.0,1.0,10.0,-15.0,-4.0,-12.0,-9.0,-3.0,1651024377816745.0,2
935,3.0,-7.0,-32.0,1.0,1.0,0.0,3.0,5.0,1651024377816745.0,2
936,-4.0,-3.0,17.0,4.0,2.0,-7.0,-9.0,-11.0,1651024377816745.0,2
937,0.0,3.0,-13.0,-27.0,-5.0,0.0,-18.0,-9.0,1651024377816745.0,2
938,-4.0,-17.0,-23.0,24.0,6.0,-4.0,12.0,5.0,1651024377839740.0,2
939,2.0,14.0,56.0,-13.0,-14.0,-4.0,-7.0,-4.0,1651024377839740.0,2
940,-6.0,-14.0,-46.0,-22.0,-5.0,3.0,1.0,-3.0,1651024377839740.0,2
941,6.0,24.0,20.0,24.0,7.0,-3.0,-7.0,-2.0,1651024377839740.0,2
942,-10.0,-31.0,-8.0,-17.0,1.0,1.0,-17.0,-10.0,1651024377852914.0,2
943,-6.0,-9.0,-22.0,-12.0,-20.0,-12.0,-15.0,-12.0,1651024377852914.0,2
944,8.0,16.0,19.0,-7.0,-4.0,6.0,32.0,14.0,1651024377860960.0,2
945,2.0,1.0,-13.0,-6.0,-1.0,1.0,-2.0,3.0,1651024377860960.0,2
946,-3.0,-1.0,-1.0,4.0,3.0,-7.0,-7.0,-4.0,1651024377876917.0,2
947,4.0,3.0,-2.0,1.0,11.0,4.0,5.0,3.0,1651024377876917.0,2
948,-1.0,-3.0,14.0,9.0,-1.0,2.0,3.0,1.0,1651024377877848.0,2
949,-1.0,5.0,14.0,15.0,18.0,10.0,-11.0,-9.0,1651024377877848.0,2
950,-1.0,-4.0,-7.0,-2.0,-9.0,-4.0,18.0,5.0,1651024377899011.0,2
951,-4.0,4.0,21.0,9.0,-2.0,-12.0,-14.0,1.0,1651024377899011.0,2
952,-5.0,-8.0,-31.0,-17.0,-10.0,-1.0,-21.0,-13.0,1651024377899945.0,2
953,4.0,16.0,26.0,-5.0,-1.0,7.0,15.0,5.0,1651024377899945.0,2
954,18.0,32.0,-2.0,21.0,21.0,12.0,15.0,19.0,1651024377913205.0,2
955,-11.0,-24.0,-1.0,19.0,2.0,-8.0,7.0,-3.0,1651024377913205.0,2
956,-1.0,-3.0,1.0,0.0,1.0,-3.0,-1.0,1.0,1651024377920842.0,2
957,-4.0,-3.0,0.0,-21.0,-12.0,-10.0,-13.0,-8.0,1651024377920842.0,2
958,10.0,22.0,3.0,26.0,15.0,7.0,-5.0,4.0,1651024377935858.0,2
959,-1.0,-14.0,-1.0,-27.0,-14.0,4.0,44.0,16.0,1651024377935858.0,2
960,-4.0,-10.0,-7.0,28.0,6.0,1.0,-14.0,-4.0,1651024377936812.0,2
961,-1.0,-3.0,-5.0,-2.0,-4.0,4.0,22.0,7.0,1651024377936812.0,2
962,3.0,29.0,43.0,-13.0,-12.0,-6.0,-1.0,2.0,1651024377958984.0,2
963,-2.0,-18.0,-49.0,-9.0,19.0,-1.0,-2.0,-2.0,1651024377958984.0,2
964,-3.0,-8.0,5.0,-1.0,-5.0,-2.0,-3.0,-6.0,1651024377959916.0,2
965,-4.0,0.0,0.0,-1.0,0.0,7.0,-5.0,-4.0,1651024377959916.0,2
966,-9.0,-20.0,-9.0,-7.0,-6.0,9.0,-7.0,-8.0,1651024377973327.0,2
967,4.0,24.0,14.0,14.0,-9.0,2.0,8.0,3.0,1651024377973327.0,2
968,-1.0,-13.0,-20.0,-41.0,-12.0,-12.0,-13.0,-7.0,1651024377981317.0,2
969,-2.0,-2.0,19.0,17.0,1.0,-19.0,-6.0,-3.0,1651024377981317.0,2
970,-3.0,-11.0,-17.0,2.0,18.0,12.0,3.0,-4.0,1651024377996336.0,2
971,2.0,13.0,7.0,-4.0,-2.0,4.0,-13.0,-4.0,1651024377996336.0,2
972,-8.0,-10.0,-11.0,6.0,6.0,-1.0,-16.0,-8.0,1651024377997290.0,2
973,1.0,-10.0,1.0,31.0,-1.0,-1.0,10.0,4.0,1651024377997290.0,2
974,-3.0,-9.0,-5.0,-19.0,-16.0,-15.0,-14.0,-5.0,1651024378019043.0,2
975,-1.0,2.0,6.0,2.0,8.0,3.0,-2.0,-2.0,1651024378019043.0,2
976,7.0,27.0,15.0,5.0,0.0,-1.0,-6.0,-6.0,1651024378019973.0,2
977,4.0,6.0,9.0,-8.0,-2.0,0.0,3.0,10.0,1651024378019973.0,2
978,-8.0,-27.0,-34.0,-16.0,-8.0,-10.0,-4.0,-7.0,1651024378042053.0,2
979,4.0,14.0,4.0,5.0,-9.0,3.0,4.0,6.0,1651024378042053.0,2
980,3.0,7.0,15.0,10.0,19.0,-2.0,-3.0,-2.0,1651024378043010.0,2
981,-2.0,2.0,-5.0,-1.0,0.0,5.0,-47.0,-16.0,1651024378043010.0,2
982,-1.0,-2.0,-7.0,-12.0,-8.0,3.0,44.0,14.0,1651024378055964.0,2
983,-2.0,3.0,11.0,1.0,-13.0,-5.0,-6.0,-4.0,1651024378055964.0,2
984,0.0,-5.0,0.0,3.0,-4.0,-13.0,-11.0,-2.0,1651024378056901.0,2
985,1.0,1.0,-13.0,-22.0,-2.0,2.0,10.0,-3.0,1651024378056901.0,2
986,13.0,24.0,33.0,42.0,25.0,8.0,4.0,15.0,1651024378079085.0,2
987,-9.0,-15.0,-8.0,-5.0,-3.0,1.0,-1.0,-6.0,1651024378079085.0,2
988,3.0,8.0,0.0,5.0,3.0,3.0,6.0,6.0,1651024378080028.0,2
989,-6.0,2.0,17.0,-4.0,-12.0,-22.0,-17.0,-14.0,1651024378080028.0,2
990,-10.0,-38.0,-38.0,-21.0,-12.0,6.0,-3.0,-7.0,1651024378102119.0,2
991,7.0,28.0,35.0,15.0,12.0,8.0,22.0,7.0,1651024378102119.0,2
992,-6.0,-20.0,-15.0,-13.0,-9.0,-3.0,-21.0,-4.0,1651024378103118.0,2
993,-3.0,0.0,-7.0,-6.0,-7.0,-18.0,6.0,-7.0,1651024378103118.0,2
994,-1.0,2.0,-14.0,-2.0,-10.0,-7.0,-26.0,-13.0,1651024378116898.0,2
995,-1.0,-10.0,-4.0,3.0,12.0,5.0,-5.0,8.0,1651024378116898.0,2
996,2.0,3.0,11.0,-1.0,0.0,9.0,19.0,3.0,1651024378117856.0,2
997,1.0,-9.0,-25.0,-2.0,6.0,16.0,13.0,7.0,1651024378117856.0,2
998,-3.0,3.0,14.0,-3.0,-11.0,-27.0,-16.0,-9.0,1651024378138839.0,2
999,2.0,-1.0,-8.0,-3.0,-10.0,-24.0,-16.0,-6.0,1651024378138839.0,2
1000,1.0,2.0,1.0,-2.0,-1.0,34.0,24.0,1.0,1651024378139774.0,2
1001,3.0,4.0,19.0,9.0,10.0,8.0,3.0,13.0,1651024378139774.0,2
1002,7.0,15.0,-22.0,-3.0,10.0,-13.0,-5.0,1.0,1651024378161778.0,2
1003,-2.0,-2.0,5.0,-1.0,-1.0,16.0,0.0,-2.0,1651024378161778.0,2
1004,-4.0,-3.0,15.0,10.0,6.0,-10.0,8.0,3.0,1651024378162715.0,2
1005,0.0,-1.0,-8.0,-1.0,-7.0,2.0,14.0,2.0,1651024378162715.0,2
1006,-1.0,7.0,10.0,-7.0,-8.0,1.0,-27.0,-9.0,1651024378176692.0,2
1007,2.0,-1.0,-9.0,6.0,17.0,-11.0,-6.0,2.0,1651024378176692.0,2
1008,0.0,-7.0,-12.0,-6.0,-13.0,11.0,11.0,6.0,1651024378176692.0,2
1009,1.0,-7.0,-29.0,-15.0,-14.0,6.0,29.0,3.0,1651024378176692.0,2
1010,-2.0,9.0,27.0,7.0,11.0,-1.0,-13.0,-3.0,1651024378198771.0,2
1011,-3.0,-10.0,-13.0,-2.0,-1.0,0.0,-14.0,-9.0,1651024378198771.0,2
1012,-1.0,4.0,18.0,7.0,7.0,2.0,1.0,0.0,1651024378199756.0,2
1013,1.0,-1.0,1.0,4.0,2.0,-15.0,-33.0,-3.0,1651024378199756.0,2
1014,0.0,0.0,27.0,8.0,-2.0,9.0,29.0,7.0,1651024378222000.0,2
1015,-1.0,-5.0,-41.0,-19.0,-8.0,7.0,9.0,2.0,1651024378222000.0,2
1016,-1.0,0.0,-12.0,-8.0,2.0,-10.0,-11.0,-2.0,1651024378222931.0,2
1017,1.0,1.0,3.0,-6.0,-5.0,-2.0,4.0,2.0,1651024378222931.0,2
1018,-1.0,-1.0,16.0,0.0,0.0,5.0,0.0,-2.0,1651024378235964.0,2
1019,0.0,0.0,5.0,5.0,-9.0,2.0,1.0,-1.0,1651024378235964.0,2
1020,2.0,2.0,-6.0,3.0,14.0,-7.0,-5.0,3.0,1651024378236898.0,2
1021,-1.0,-1.0,-4.0,3.0,3.0,5.0,-2.0,-3.0,1651024378236898.0,2
1022,-1.0,-2.0,-1.0,-5.0,-5.0,2.0,1.0,-2.0,1651024378259279.0,2
1023,1.0,1.0,10.0,1.0,-4.0,-6.0,-2.0,1.0,1651024378259279.0,2
1024,-3.0,-2.0,-1.0,0.0,-4.0,3.0,4.0,-1.0,1651024378259279.0,2
1025,3.0,8.0,40.0,21.0,12.0,6.0,-5.0,0.0,1651024378259279.0,2
1026,1.0,-8.0,-57.0,-17.0,-12.0,-8.0,-2.0,1.0,1651024378282224.0,2
1027,-1.0,1.0,11.0,-6.0,-6.0,2.0,6.0,2.0,1651024378282224.0,2
1028,-1.0,-3.0,-16.0,-9.0,1.0,-3.0,-4.0,-2.0,1651024378283216.0,2
1029,-2.0,1.0,19.0,6.0,2.0,5.0,-5.0,0.0,1651024378283216.0,2
1030,0.0,4.0,4.0,6.0,20.0,-2.0,4.0,2.0,1651024378296288.0,2
1031,1.0,1.0,-8.0,-4.0,-2.0,3.0,3.0,0.0,1651024378296288.0,2
1032,0.0,2.0,22.0,18.0,0.0,-2.0,-1.0,1.0,1651024378297254.0,2
1033,-1.0,-3.0,-2.0,-1.0,-8.0,-6.0,-5.0,-1.0,1651024378297254.0,2
1034,-2.0,-1.0,6.0,-5.0,-9.0,1.0,1.0,-2.0,1651024378318910.0,2
1035,-2.0,0.0,3.0,0.0,-6.0,-4.0,2.0,-2.0,1651024378318910.0,2
1036,-2.0,0.0,10.0,-1.0,3.0,0.0,-3.0,-2.0,1651024378319841.0,2
1037,-3.0,-6.0,-17.0,-4.0,-6.0,-3.0,1.0,-1.0,1651024378319841.0,2
1038,-2.0,-6.0,-7.0,-5.0,-8.0,-2.0,-1.0,-2.0,1651024378341782.0,2
1039,7.0,18.0,10.0,4.0,17.0,7.0,1.0,1.0,1651024378341782.0,2
1040,-8.0,-24.0,-9.0,-3.0,-14.0,-5.0,-2.0,-3.0,1651024378342780.0,2
1041,-2.0,-2.0,-12.0,-5.0,2.0,-4.0,0.0,-1.0,1651024378342780.0,2
1042,5.0,5.0,-6.0,-7.0,7.0,4.0,0.0,-1.0,1651024378356770.0,2
1043,-9.0,0.0,9.0,10.0,-1.0,0.0,1.0,1.0,1651024378356770.0,2
1044,4.0,12.0,-3.0,-2.0,-4.0,-3.0,0.0,-1.0,1651024378363724.0,2
1045,-3.0,-15.0,-7.0,-7.0,0.0,-1.0,-2.0,0.0,1651024378363724.0,2
1046,4.0,-18.0,13.0,6.0,0.0,-2.0,0.0,1.0,1651024378378684.0,2
1047,-2.0,27.0,-4.0,-3.0,4.0,0.0,-1.0,-1.0,1651024378378684.0,2
1048,0.0,0.0,-12.0,1.0,-2.0,1.0,-1.0,2.0,1651024378379695.0,2
1049,-2.0,12.0,-3.0,-6.0,-1.0,-3.0,-2.0,-3.0,1651024378379695.0,2
1050,4.0,-15.0,7.0,0.0,-9.0,2.0,2.0,3.0,1651024378403616.0,2
1051,-3.0,-5.0,-11.0,2.0,2.0,-1.0,0.0,-3.0,1651024378403616.0,2
1052,1.0,25.0,6.0,0.0,11.0,0.0,-2.0,-1.0,1651024378404615.0,2
1053,-2.0,-25.0,-9.0,-6.0,-4.0,-1.0,-1.0,0.0,1651024378404615.0,2
1054,0.0,13.0,2.0,-10.0,-3.0,1.0,1.0,-1.0,1651024378416610.0,2
1055,-4.0,-15.0,2.0,10.0,-3.0,1.0,1.0,0.0,1651024378416610.0,2
1056,0.0,-2.0,1.0,-2.0,-2.0,-2.0,-1.0,-2.0,1651024378416610.0,2
1057,7.0,7.0,-5.0,4.0,6.0,1.0,1.0,1.0,1651024378416610.0,2
1058,-5.0,-26.0,-3.0,-4.0,4.0,0.0,-2.0,1.0,1651024378438562.0,2
1059,2.0,36.0,4.0,-8.0,-7.0,-6.0,-2.0,-4.0,1651024378438562.0,2
1060,0.0,-21.0,-2.0,1.0,-5.0,-2.0,-2.0,0.0,1651024378439521.0,2
1061,7.0,41.0,1.0,-3.0,1.0,-3.0,-1.0,0.0,1651024378439521.0,2
1062,-2.0,1.0,1.0,3.0,2.0,3.0,-1.0,0.0,1651024378462308.0,2
1063,1.0,-14.0,4.0,1.0,-3.0,-1.0,-2.0,1.0,1651024378462308.0,2
1064,2.0,-5.0,7.0,2.0,-2.0,0.0,1.0,2.0,1651024378462490.0,2
1065,-13.0,-34.0,-22.0,-8.0,10.0,-1.0,0.0,-6.0,1651024378462490.0,2
1066,-1.0,23.0,2.0,1.0,-7.0,-3.0,-5.0,-3.0,1651024378476494.0,2
1067,3.0,3.0,0.0,1.0,4.0,2.0,0.0,1.0,1651024378476494.0,2
1068,-3.0,-21.0,-3.0,-7.0,-6.0,-1.0,-1.0,-1.0,1651024378477473.0,2
1069,-2.0,13.0,7.0,2.0,-2.0,-2.0,0.0,1.0,1651024378477473.0,2
1070,-13.0,-36.0,-10.0,1.0,8.0,4.0,-1.0,-3.0,1651024378498858.0,2
1071,8.0,-11.0,3.0,2.0,-4.0,-1.0,0.0,4.0,1651024378498858.0,2
1072,3.0,75.0,-1.0,-4.0,-5.0,-2.0,-3.0,-1.0,1651024378499855.0,2
1073,-7.0,-58.0,-12.0,-1.0,-4.0,-1.0,-1.0,-2.0,1651024378499855.0,2
1074,0.0,2.0,2.0,0.0,0.0,0.0,2.0,0.0,1651024378522112.0,2
1075,-5.0,-25.0,-2.0,-6.0,-1.0,-2.0,-1.0,-2.0,1651024378522112.0,2
1076,5.0,11.0,7.0,5.0,1.0,1.0,1.0,1.0,1651024378523095.0,2
1077,4.0,14.0,3.0,4.0,2.0,1.0,-1.0,1.0,1651024378523095.0,2
1078,-3.0,19.0,-3.0,-4.0,-3.0,-2.0,-1.0,-1.0,1651024378536634.0,2
1079,0.0,-25.0,-5.0,-1.0,1.0,1.0,1.0,0.0,1651024378536634.0,2
1080,2.0,-4.0,1.0,-4.0,-2.0,-1.0,0.0,0.0,1651024378536634.0,2
1081,-11.0,-14.0,-2.0,-4.0,-2.0,1.0,-1.0,-2.0,1651024378536634.0,2
1082,10.0,8.0,8.0,8.0,3.0,0.0,2.0,3.0,1651024378558959.0,2
1083,2.0,19.0,1.0,1.0,-1.0,1.0,-2.0,-2.0,1651024378558959.0,2
1084,-8.0,-32.0,-28.0,-15.0,-4.0,-3.0,-2.0,-3.0,1651024378559952.0,2
1085,7.0,23.0,9.0,1.0,1.0,1.0,1.0,3.0,1651024378559952.0,2
1086,2.0,12.0,5.0,0.0,-1.0,1.0,0.0,2.0,1651024378589863.0,2
1087,-3.0,-21.0,-4.0,2.0,-4.0,-3.0,0.0,1.0,1651024378589863.0,2
1088,-10.0,16.0,4.0,3.0,14.0,4.0,0.0,-3.0,1651024378589863.0,2
1089,0.0,-7.0,-3.0,0.0,2.0,2.0,1.0,-2.0,1651024378589863.0,2
1090,3.0,33.0,4.0,0.0,-3.0,-1.0,1.0,-2.0,1651024378595856.0,2
1091,2.0,2.0,-9.0,-4.0,-3.0,1.0,1.0,1.0,1651024378595856.0,2
1092,-6.0,-35.0,-4.0,0.0,-5.0,-4.0,-2.0,-1.0,1651024378596819.0,2
1093,4.0,20.0,-8.0,-4.0,-12.0,-8.0,-2.0,-2.0,1651024378596819.0,2
1094,-2.0,3.0,9.0,4.0,11.0,6.0,-1.0,-2.0,1651024378618761.0,2
1095,8.0,14.0,3.0,0.0,-1.0,-1.0,-1.0,0.0,1651024378618761.0,2
1096,-4.0,-8.0,1.0,2.0,1.0,-1.0,0.0,-2.0,1651024378619759.0,2
1097,2.0,13.0,7.0,8.0,2.0,-1.0,2.0,3.0,1651024378619759.0,2
1098,-5.0,-8.0,-2.0,-1.0,-4.0,-3.0,0.0,0.0,1651024378642255.0,2
1099,2.0,0.0,1.0,-1.0,0.0,1.0,1.0,0.0,1651024378642255.0,2
1100,3.0,4.0,-1.0,-2.0,-3.0,-1.0,1.0,1.0,1651024378642255.0,2
1101,-4.0,-18.0,-3.0,-4.0,-1.0,0.0,-1.0,-2.0,1651024378642255.0,2
1102,3.0,-2.0,-6.0,-3.0,-9.0,-4.0,-1.0,-1.0,1651024378655196.0,2
1103,-4.0,-5.0,0.0,1.0,9.0,4.0,0.0,0.0,1651024378655196.0,2
1104,-4.0,-21.0,1.0,3.0,1.0,-1.0,-2.0,1.0,1651024378670890.0,2
1105,5.0,16.0,4.0,-2.0,1.0,1.0,0.0,0.0,1651024378670890.0,2
1106,3.0,3.0,0.0,-4.0,-13.0,-4.0,1.0,1.0,1651024378678895.0,2
1107,-6.0,-20.0,1.0,1.0,7.0,-1.0,-1.0,-2.0,1651024378678895.0,2
1108,7.0,5.0,0.0,-2.0,-2.0,1.0,0.0,0.0,1651024378679865.0,2
1109,1.0,9.0,6.0,3.0,2.0,4.0,0.0,1.0,1651024378679865.0,2
1110,0.0,-9.0,-8.0,-1.0,1.0,-1.0,1.0,0.0,1651024378701730.0,2
1111,-3.0,27.0,6.0,-1.0,-6.0,0.0,-1.0,-2.0,1651024378701730.0,2
1112,0.0,6.0,0.0,-2.0,-1.0,-2.0,-1.0,0.0,1651024378702663.0,2
1113,-1.0,-2.0,-1.0,-7.0,-2.0,-2.0,-2.0,-1.0,1651024378702663.0,2
1114,0.0,8.0,13.0,19.0,9.0,3.0,0.0,0.0,1651024378715826.0,2
1115,-1.0,-6.0,-9.0,-6.0,-1.0,-3.0,-2.0,-2.0,1651024378715826.0,2
1116,8.0,6.0,2.0,1.0,1.0,-1.0,0.0,2.0,1651024378724230.0,2
1117,-3.0,-1.0,-6.0,-3.0,-3.0,1.0,-1.0,-3.0,1651024378724230.0,2
1118,-4.0,-11.0,0.0,-3.0,3.0,-1.0,-2.0,-2.0,1651024378738827.0,2
1119,0.0,-3.0,2.0,1.0,-2.0,-2.0,-1.0,-1.0,1651024378738827.0,2
1120,-2.0,12.0,-1.0,0.0,-2.0,0.0,0.0,-2.0,1651024378739852.0,2
1121,-2.0,-19.0,-5.0,-1.0,-2.0,-1.0,0.0,1.0,1651024378739852.0,2
1122,-3.0,-10.0,-5.0,-5.0,0.0,-1.0,-1.0,0.0,1651024378761833.0,2
1123,-5.0,21.0,-3.0,0.0,0.0,0.0,1.0,-1.0,1651024378761833.0,2
1124,4.0,9.0,6.0,0.0,-2.0,1.0,0.0,2.0,1651024378762802.0,2
1125,-9.0,-17.0,-7.0,0.0,1.0,-1.0,-4.0,-3.0,1651024378762802.0,2
1126,0.0,6.0,-3.0,-2.0,1.0,0.0,-1.0,1.0,1651024378775796.0,2
1127,-1.0,-1.0,-3.0,-3.0,-2.0,-1.0,0.0,-1.0,1651024378775796.0,2
1128,0.0,16.0,3.0,0.0,-6.0,-3.0,0.0,-1.0,1651024378783721.0,2
1129,-2.0,-19.0,-5.0,-1.0,-1.0,0.0,0.0,1.0,1651024378783721.0,2
1130,1.0,16.0,0.0,2.0,13.0,1.0,-1.0,-1.0,1651024378798841.0,2
1131,1.0,-6.0,0.0,0.0,-7.0,-1.0,0.0,-1.0,1651024378798841.0,2
1132,-4.0,0.0,-2.0,-3.0,-3.0,-3.0,-1.0,-3.0,1651024378799811.0,2
1133,1.0,11.0,4.0,1.0,-1.0,1.0,1.0,0.0,1651024378799811.0,2
1134,-2.0,-6.0,0.0,-4.0,-2.0,-1.0,0.0,-1.0,1651024378829066.0,2
1135,1.0,-7.0,1.0,1.0,3.0,1.0,-2.0,2.0,1651024378829066.0,2
1136,0.0,-3.0,-1.0,1.0,-3.0,0.0,0.0,0.0,1651024378830014.0,2
1137,2.0,6.0,2.0,-1.0,-1.0,-3.0,1.0,0.0,1651024378830014.0,2
1138,8.0,3.0,-1.0,-1.0,-2.0,1.0,0.0,1.0,1651024378835985.0,2
1139,-7.0,23.0,4.0,-1.0,-2.0,-2.0,-3.0,-6.0,1651024378835985.0,2
1140,0.0,-5.0,-3.0,-1.0,-3.0,0.0,0.0,-1.0,1651024378843977.0,2
1141,-1.0,-14.0,-2.0,0.0,3.0,1.0,0.0,2.0,1651024378843977.0,2
1142,5.0,17.0,3.0,0.0,-3.0,0.0,0.0,0.0,1651024378858960.0,2
1143,5.0,-8.0,-3.0,-2.0,-4.0,-2.0,-2.0,1.0,1651024378858960.0,2
1144,2.0,-5.0,1.0,1.0,2.0,1.0,-2.0,0.0,1651024378865917.0,2
1145,0.0,5.0,0.0,1.0,2.0,1.0,0.0,0.0,1651024378865917.0,2
1146,-5.0,-7.0,-3.0,-4.0,-4.0,-1.0,-2.0,-1.0,1651024378881938.0,2
1147,0.0,-8.0,1.0,1.0,1.0,1.0,0.0,1.0,1651024378881938.0,2
1148,-3.0,-1.0,3.0,1.0,0.0,0.0,-1.0,-2.0,1651024378882872.0,2
1149,6.0,24.0,1.0,-1.0,-1.0,-3.0,-1.0,0.0,1651024378882872.0,2
1150,-7.0,-24.0,-5.0,-1.0,-1.0,0.0,0.0,2.0,1651024378895950.0,2
1151,1.0,-19.0,-1.0,1.0,-3.0,0.0,0.0,-1.0,1651024378895950.0,2
1152,-1.0,-9.0,-2.0,0.0,10.0,3.0,0.0,1.0,1651024378903562.0,2
1153,4.0,22.0,3.0,-1.0,0.0,2.0,-1.0,-1.0,1651024378903562.0,2
1154,-1.0,4.0,-2.0,-1.0,-4.0,-3.0,-1.0,-1.0,1651024378918738.0,2
1155,-2.0,-10.0,0.0,0.0,3.0,1.0,0.0,0.0,1651024378918738.0,2
1156,3.0,-3.0,1.0,0.0,-6.0,-2.0,1.0,0.0,1651024378919673.0,2
1157,-4.0,-38.0,-12.0,-5.0,-15.0,-4.0,-1.0,-2.0,1651024378919673.0,2
1158,-4.0,22.0,5.0,0.0,19.0,4.0,-1.0,-2.0,1651024378949935.0,2
1159,2.0,10.0,4.0,4.0,-1.0,0.0,0.0,1.0,1651024378949935.0,2
1160,0.0,4.0,1.0,-2.0,0.0,0.0,0.0,1.0,1651024378949935.0,2
1161,-7.0,-13.0,-4.0,-1.0,-1.0,-1.0,1.0,1.0,1651024378949935.0,2
1162,-2.0,-7.0,-4.0,-3.0,-8.0,-1.0,-3.0,-2.0,1651024378955918.0,2
1163,1.0,-4.0,-4.0,-3.0,0.0,-1.0,0.0,-1.0,1651024378955918.0,2
1164,-2.0,9.0,0.0,0.0,-1.0,0.0,-1.0,0.0,1651024378964005.0,2
1165,2.0,-12.0,2.0,3.0,3.0,1.0,-1.0,1.0,1651024378964005.0,2
1166,2.0,14.0,1.0,-2.0,-5.0,-2.0,-2.0,-1.0,1651024378979010.0,2
1167,-6.0,12.0,1.0,-2.0,0.0,-1.0,0.0,-2.0,1651024378979010.0,2
1168,-6.0,-25.0,-3.0,0.0,-1.0,0.0,1.0,-1.0,1651024378979942.0,2
1169,2.0,6.0,3.0,0.0,4.0,-1.0,0.0,1.0,1651024378979942.0,2
1170,-2.0,-15.0,-3.0,0.0,-1.0,0.0,1.0,0.0,1651024379002050.0,2
1171,4.0,18.0,0.0,-3.0,-5.0,-2.0,-1.0,0.0,1651024379002050.0,2
1172,2.0,-1.0,0.0,2.0,5.0,-1.0,-1.0,-2.0,1651024379003008.0,2
1173,-4.0,-15.0,-2.0,0.0,0.0,-1.0,-1.0,-2.0,1651024379003008.0,2
1174,3.0,2.0,0.0,1.0,-1.0,1.0,2.0,1.0,1651024379024095.0,2
1175,-5.0,25.0,3.0,-3.0,-3.0,-3.0,0.0,-2.0,1651024379024095.0,2
1176,-3.0,-17.0,-4.0,-5.0,-12.0,-4.0,-3.0,-4.0,1651024379025024.0,2
1177,1.0,16.0,3.0,0.0,15.0,0.0,-1.0,-2.0,1651024379025024.0,2
1178,1.0,-3.0,2.0,0.0,-3.0,1.0,0.0,-1.0,1651024379039055.0,2
1179,0.0,-24.0,-2.0,0.0,-3.0,2.0,0.0,1.0,1651024379039055.0,2
1180,-1.0,7.0,2.0,0.0,-1.0,0.0,0.0,1.0,1651024379039055.0,2
1181,4.0,2.0,1.0,-1.0,-5.0,-1.0,-1.0,1.0,1651024379039055.0,2
1182,-4.0,38.0,-5.0,-7.0,-9.0,-6.0,-4.0,-6.0,1651024379061925.0,2
1183,-5.0,-16.0,-4.0,0.0,7.0,2.0,0.0,-1.0,1651024379061925.0,2
1184,-1.0,0.0,0.0,2.0,-1.0,1.0,0.0,1.0,1651024379062929.0,2
1185,4.0,19.0,2.0,0.0,-1.0,-1.0,-1.0,-1.0,1651024379062929.0,2
1186,-2.0,-16.0,-1.0,-2.0,1.0,0.0,0.0,2.0,1651024379084938.0,2
1187,-1.0,-5.0,-1.0,1.0,-2.0,-1.0,-2.0,2.0,1651024379084938.0,2
1188,0.0,5.0,-3.0,-1.0,-1.0,-1.0,0.0,-1.0,1651024379084938.0,2
1189,-7.0,0.0,1.0,1.0,0.0,0.0,0.0,-1.0,1651024379084938.0,2
1190,-6.0,-17.0,-1.0,1.0,-1.0,-3.0,-2.0,-3.0,1651024379098891.0,2
1191,3.0,2.0,1.0,0.0,0.0,-2.0,-1.0,0.0,1651024379098891.0,2
1192,0.0,-11.0,-1.0,-1.0,1.0,1.0,0.0,0.0,1651024379099825.0,2
1193,2.0,7.0,0.0,-3.0,-2.0,-1.0,-1.0,-1.0,1651024379099825.0,2
1194,-1.0,-8.0,-1.0,-3.0,-2.0,-1.0,-2.0,-1.0,1651024379121770.0,2
1195,1.0,-21.0,-1.0,-1.0,2.0,0.0,0.0,1.0,1651024379121770.0,2
1196,1.0,26.0,-3.0,-2.0,-1.0,-1.0,0.0,-1.0,1651024379122762.0,2
1197,-5.0,-8.0,0.0,-1.0,3.0,-2.0,0.0,-1.0,1651024379122762.0,2
1198,5.0,15.0,4.0,2.0,-2.0,1.0,1.0,1.0,1651024379143959.0,2
1199,2.0,-1.0,0.0,1.0,1.0,-1.0,0.0,-1.0,1651024379143959.0,2
1200,1.0,-8.0,0.0,0.0,0.0,1.0,-1.0,0.0,1651024379144960.0,2
1201,-4.0,-25.0,-6.0,-1.0,-2.0,2.0,1.0,1.0,1651024379144960.0,2
1202,-1.0,-6.0,0.0,1.0,1.0,1.0,-1.0,-1.0,1651024379158989.0,2
1203,-1.0,8.0,0.0,-1.0,-2.0,0.0,-1.0,-2.0,1651024379158989.0,2
1204,-4.0,-13.0,-4.0,-3.0,-1.0,-1.0,-1.0,-1.0,1651024379159947.0,2
1205,0.0,4.0,0.0,0.0,-3.0,-1.0,-1.0,-1.0,1651024379159947.0,2
1206,-5.0,-11.0,-2.0,0.0,0.0,-1.0,0.0,1.0,1651024379181887.0,2
1207,-1.0,-7.0,-1.0,-1.0,-2.0,0.0,0.0,-1.0,1651024379181887.0,2
1208,1.0,6.0,0.0,-4.0,-8.0,-1.0,-1.0,-1.0,1651024379182868.0,2
1209,0.0,11.0,1.0,-1.0,2.0,-3.0,0.0,-1.0,1651024379182868.0,2
1210,-2.0,-5.0,1.0,4.0,9.0,2.0,-1.0,0.0,1651024379204148.0,2
1211,0.0,4.0,2.0,1.0,1.0,5.0,1.0,0.0,1651024379204148.0,2
1212,1.0,-1.0,1.0,0.0,2.0,0.0,0.0,0.0,1651024379205078.0,2
1213,-3.0,-9.0,-4.0,-1.0,-4.0,1.0,-1.0,-1.0,1651024379205078.0,2
1214,5.0,12.0,1.0,-3.0,-7.0,-5.0,-1.0,1.0,1651024379227086.0,2
1215,3.0,3.0,-2.0,1.0,2.0,-2.0,0.0,1.0,1651024379227086.0,2
1216,-7.0,-9.0,-3.0,-3.0,-4.0,-1.0,-3.0,-3.0,1651024379228017.0,2
1217,5.0,1.0,-1.0,1.0,-4.0,-3.0,0.0,1.0,1651024379228017.0,2
1218,1.0,-1.0,0.0,3.0,4.0,3.0,-1.0,-1.0,1651024379241050.0,2
1219,-7.0,-3.0,-2.0,-1.0,-2.0,-1.0,-1.0,0.0,1651024379241050.0,2
1220,3.0,4.0,-1.0,-2.0,1.0,-1.0,0.0,0.0,1651024379241991.0,2
1221,1.0,-1.0,-1.0,-2.0,-3.0,0.0,1.0,0.0,1651024379241991.0,2
1222,-2.0,-4.0,-5.0,-4.0,-2.0,0.0,0.0,-2.0,1651024379264950.0,2
1223,-2.0,-3.0,-1.0,-1.0,-1.0,-1.0,0.0,-1.0,1651024379264950.0,2
1224,-2.0,-9.0,-2.0,1.0,0.0,0.0,-1.0,0.0,1651024379264950.0,2
1225,-2.0,5.0,1.0,2.0,1.0,0.0,-1.0,-2.0,1651024379264950.0,2
1226,0.0,-4.0,0.0,-1.0,-1.0,-1.0,0.0,-1.0,1651024379278943.0,2
1227,0.0,-16.0,-4.0,-3.0,-3.0,-2.0,0.0,0.0,1651024379278943.0,2
1228,-4.0,7.0,5.0,2.0,0.0,-1.0,0.0,-1.0,1651024379279878.0,2
1229,2.0,12.0,3.0,1.0,0.0,2.0,-1.0,1.0,1651024379279878.0,2
1230,-1.0,-3.0,0.0,1.0,-3.0,-1.0,-1.0,0.0,1651024379300831.0,2
1231,-3.0,-9.0,-4.0,0.0,-1.0,-2.0,-2.0,-2.0,1651024379300831.0,2
1232,2.0,-2.0,-4.0,0.0,2.0,0.0,0.0,0.0,1651024379301829.0,2
1233,2.0,1.0,-1.0,-2.0,-1.0,-1.0,0.0,-1.0,1651024379301829.0,2
1234,-3.0,-12.0,-1.0,0.0,-3.0,1.0,0.0,-1.0,1651024379324941.0,2
1235,3.0,0.0,0.0,-2.0,0.0,-1.0,-1.0,0.0,1651024379324941.0,2
1236,-7.0,-9.0,-2.0,-1.0,-1.0,-2.0,-1.0,-4.0,1651024379324941.0,2
1237,1.0,8.0,1.0,0.0,1.0,0.0,-1.0,-2.0,1651024379324941.0,2
1238,0.0,8.0,-1.0,-4.0,-2.0,-1.0,0.0,0.0,1651024379337960.0,2
1239,4.0,23.0,5.0,2.0,0.0,0.0,1.0,-1.0,1651024379337960.0,2
1240,0.0,-12.0,0.0,1.0,0.0,1.0,1.0,0.0,1651024379345883.0,2
1241,3.0,12.0,2.0,1.0,-1.0,-1.0,1.0,0.0,1651024379345883.0,2
1242,-1.0,-3.0,1.0,-2.0,-3.0,0.0,-1.0,-1.0,1651024379360897.0,2
1243,-2.0,-9.0,-10.0,-1.0,-2.0,-1.0,-1.0,0.0,1651024379360897.0,2
1244,-2.0,-1.0,2.0,2.0,2.0,0.0,0.0,0.0,1651024379361834.0,2
1245,0.0,-8.0,0.0,0.0,1.0,2.0,-1.0,0.0,1651024379361834.0,2
1246,0.0,-11.0,1.0,0.0,2.0,0.0,0.0,1.0,1651024379384800.0,2
1247,2.0,-18.0,-1.0,0.0,0.0,0.0,-1.0,1.0,1651024379384800.0,2
1248,2.0,4.0,-2.0,-1.0,0.0,0.0,-1.0,0.0,1651024379385728.0,2
1249,-3.0,-4.0,-1.0,-3.0,-2.0,-2.0,-1.0,-1.0,1651024379385728.0,2
1250,-1.0,-6.0,-2.0,1.0,-3.0,0.0,1.0,0.0,1651024379398762.0,2
1251,0.0,7.0,2.0,-2.0,-11.0,0.0,-1.0,-1.0,1651024379398762.0,2
1252,1.0,6.0,0.0,4.0,17.0,1.0,0.0,-1.0,1651024379399720.0,2
1253,1.0,2.0,-1.0,1.0,0.0,1.0,2.0,0.0,1651024379399720.0,2
1254,-4.0,-9.0,-3.0,-1.0,-1.0,-2.0,0.0,-1.0,1651024379421699.0,2
1255,3.0,21.0,4.0,-2.0,-1.0,-3.0,0.0,-2.0,1651024379421699.0,2
1256,-1.0,-29.0,-7.0,-5.0,-7.0,-2.0,2.0,0.0,1651024379421699.0,2
1257,-1.0,-3.0,-1.0,-1.0,-1.0,-1.0,-2.0,-1.0,1651024379421699.0,2
1258,0.0,5.0,0.0,-1.0,2.0,-1.0,-1.0,1.0,1651024379444636.0,2
1259,7.0,-2.0,3.0,1.0,2.0,1.0,2.0,1.0,1651024379444636.0,2
1260,0.0,29.0,4.0,-1.0,-5.0,-2.0,-2.0,-2.0,1651024379445597.0,2
1261,-3.0,0.0,-2.0,-2.0,4.0,-1.0,-2.0,0.0,1651024379445597.0,2
1262,-2.0,-9.0,-2.0,-2.0,-3.0,-1.0,-2.0,-3.0,1651024379458603.0,2
1263,1.0,-5.0,2.0,0.0,2.0,-1.0,0.0,-1.0,1651024379458603.0,2
1264,2.0,21.0,2.0,-1.0,-4.0,-2.0,-3.0,0.0,1651024379459535.0,2
1265,-2.0,-10.0,-3.0,-2.0,-3.0,0.0,-1.0,-1.0,1651024379459535.0,2
1266,1.0,4.0,1.0,1.0,0.0,1.0,0.0,-2.0,1651024379481664.0,2
1267,-1.0,0.0,-1.0,-2.0,0.0,0.0,-2.0,0.0,1651024379481664.0,2
1268,-6.0,-5.0,-3.0,0.0,-2.0,0.0,0.0,-3.0,1651024379481664.0,2
1269,-1.0,0.0,-3.0,-2.0,0.0,-1.0,0.0,1.0,1651024379481664.0,2
1270,1.0,-2.0,-2.0,-2.0,-4.0,-3.0,1.0,1.0,1651024379505144.0,2
1271,0.0,10.0,7.0,6.0,-3.0,0.0,1.0,0.0,1651024379505144.0,2
1272,0.0,-11.0,-3.0,0.0,14.0,3.0,1.0,0.0,1651024379506070.0,2
1273,2.0,8.0,2.0,2.0,-1.0,1.0,-1.0,-1.0,1651024379506070.0,2
1274,-4.0,-8.0,-2.0,-3.0,1.0,0.0,0.0,0.0,1651024379519103.0,2
1275,0.0,8.0,-1.0,-3.0,-5.0,-2.0,0.0,1.0,1651024379519103.0,2
1276,3.0,8.0,-1.0,-3.0,-9.0,-1.0,-1.0,1.0,1651024379519103.0,2
1277,-1.0,-3.0,-1.0,-3.0,1.0,0.0,-1.0,0.0,1651024379519103.0,2
1278,-1.0,2.0,-2.0,-1.0,0.0,-1.0,-2.0,-1.0,1651024379542157.0,0
1279,-5.0,-9.0,-4.0,-4.0,-1.0,-1.0,-2.0,-1.0,1651024379542157.0,0
1280,1.0,-4.0,2.0,0.0,0.0,2.0,0.0,0.0,1651024379542157.0,0
1281,0.0,-10.0,0.0,-1.0,1.0,-2.0,2.0,1.0,1651024379542157.0,0
1282,-1.0,9.0,-4.0,2.0,-4.0,1.0,2.0,-2.0,1651024379564127.0,0
1283,-6.0,-8.0,0.0,3.0,8.0,-1.0,-2.0,-2.0,1651024379564127.0,0
1284,-2.0,-12.0,-6.0,-13.0,-6.0,1.0,-1.0,1.0,1651024379565057.0,0
1285,4.0,15.0,6.0,8.0,-5.0,-2.0,0.0,1.0,1651024379565057.0,0
1286,3.0,8.0,4.0,4.0,-2.0,-2.0,0.0,-1.0,1651024379578086.0,0
1287,-2.0,-6.0,-3.0,2.0,1.0,-1.0,0.0,-1.0,1651024379578086.0,0
1288,1.0,-2.0,5.0,4.0,6.0,-2.0,1.0,-1.0,1651024379586002.0,0
1289,-3.0,-5.0,-8.0,-11.0,-3.0,5.0,0.0,-2.0,1651024379586002.0,0
1290,-2.0,-6.0,-4.0,-3.0,1.0,-1.0,1.0,-1.0,1651024379600962.0,0
1291,0.0,1.0,0.0,2.0,-2.0,-1.0,1.0,-1.0,1651024379600962.0,0
1292,0.0,1.0,-3.0,-2.0,-6.0,-3.0,0.0,-1.0,1651024379601958.0,0
1293,-3.0,-2.0,1.0,0.0,1.0,-1.0,-1.0,-3.0,1651024379601958.0,0
1294,-2.0,-4.0,0.0,-3.0,-5.0,-1.0,-2.0,0.0,1651024379624093.0,0
1295,-1.0,-3.0,0.0,-5.0,-1.0,1.0,-3.0,-2.0,1651024379624093.0,0
1296,0.0,4.0,2.0,3.0,3.0,1.0,-1.0,0.0,1651024379625025.0,0
1297,0.0,8.0,1.0,0.0,-1.0,-1.0,0.0,0.0,1651024379625025.0,0
1298,4.0,-34.0,-5.0,-9.0,4.0,3.0,3.0,3.0,1651024379638051.0,0
1299,-16.0,-7.0,-3.0,7.0,-5.0,-2.0,-1.0,-4.0,1651024379638051.0,0
1300,4.0,4.0,1.0,6.0,4.0,0.0,0.0,-1.0,1651024379646113.0,0
1301,4.0,29.0,6.0,6.0,2.0,1.0,0.0,0.0,1651024379646113.0,0
1302,0.0,-21.0,-7.0,5.0,5.0,2.0,1.0,2.0,1651024379661052.0,0
1303,-2.0,-18.0,-18.0,-24.0,-8.0,-1.0,-1.0,-2.0,1651024379661052.0,0
1304,-5.0,-7.0,5.0,18.0,-2.0,-2.0,0.0,-3.0,1651024379662051.0,0
1305,-1.0,-14.0,-4.0,-3.0,0.0,-1.0,1.0,2.0,1651024379662051.0,0
1306,0.0,9.0,5.0,0.0,0.0,-2.0,-2.0,-1.0,1651024379684003.0,0
1307,-6.0,1.0,1.0,2.0,5.0,2.0,-1.0,-3.0,1651024379684003.0,0
1308,0.0,7.0,-3.0,-10.0,-17.0,-3.0,-5.0,-4.0,1651024379684990.0,0
1309,-2.0,-11.0,2.0,1.0,12.0,0.0,5.0,0.0,1651024379684990.0,0
1310,2.0,13.0,1.0,1.0,-1.0,1.0,0.0,0.0,1651024379698069.0,0
1311,2.0,-10.0,-10.0,0.0,0.0,1.0,1.0,-1.0,1651024379698069.0,0
1312,3.0,15.0,33.0,-5.0,-4.0,0.0,2.0,4.0,1651024379706095.0,0
1313,-5.0,-16.0,-41.0,-2.0,-11.0,-5.0,-3.0,-4.0,1651024379706095.0,0
1314,-3.0,9.0,12.0,-6.0,2.0,-1.0,-2.0,0.0,1651024379721088.0,3
1315,5.0,17.0,17.0,21.0,12.0,2.0,2.0,3.0,1651024379721088.0,3
1316,-2.0,-6.0,-6.0,-12.0,-1.0,2.0,1.0,2.0,1651024379722050.0,3
1317,2.0,-2.0,9.0,2.0,-4.0,-2.0,-2.0,0.0,1651024379722050.0,3
1318,1.0,14.0,10.0,4.0,-1.0,-2.0,-2.0,-1.0,1651024379744991.0,3
1319,1.0,-10.0,-35.0,-20.0,-20.0,-7.0,0.0,1.0,1651024379744991.0,3
1320,3.0,-8.0,21.0,2.0,16.0,4.0,3.0,-1.0,1651024379744991.0,3
1321,-1.0,2.0,-7.0,-2.0,-2.0,1.0,0.0,-2.0,1651024379744991.0,3
1322,3.0,21.0,38.0,12.0,-1.0,-2.0,1.0,1.0,1651024379758147.0,3
1323,7.0,18.0,-11.0,-7.0,-8.0,2.0,1.0,6.0,1651024379758147.0,3
1324,-12.0,-20.0,1.0,-10.0,1.0,-6.0,-3.0,-10.0,1651024379766778.0,3
1325,6.0,9.0,4.0,22.0,10.0,6.0,2.0,3.0,1651024379766778.0,3
1326,0.0,4.0,-7.0,-6.0,-2.0,-1.0,0.0,-2.0,1651024379780959.0,3
1327,-12.0,-36.0,-38.0,-17.0,-5.0,-10.0,-7.0,-8.0,1651024379780959.0,3
1328,3.0,13.0,-1.0,-9.0,-13.0,-10.0,-3.0,1.0,1651024379781888.0,3
1329,1.0,7.0,10.0,-36.0,-10.0,17.0,5.0,2.0,1651024379781888.0,3
1330,-1.0,11.0,25.0,21.0,3.0,-5.0,0.0,1.0,1651024379804964.0,3
1331,10.0,18.0,24.0,8.0,14.0,31.0,6.0,2.0,1651024379804964.0,3
1332,-2.0,-10.0,-39.0,0.0,1.0,2.0,1.0,2.0,1651024379804964.0,3
1333,-7.0,-31.0,-25.0,6.0,-5.0,-24.0,-14.0,-6.0,1651024379804964.0,3
1334,2.0,7.0,1.0,-20.0,-10.0,-6.0,-2.0,2.0,1651024379817868.0,3
1335,3.0,5.0,-11.0,7.0,18.0,9.0,10.0,4.0,1651024379817868.0,3
1336,2.0,13.0,28.0,5.0,-6.0,-4.0,5.0,1.0,1651024379825918.0,3
1337,2.0,6.0,40.0,-20.0,-12.0,11.0,1.0,2.0,1651024379825918.0,3
1338,-9.0,-27.0,-87.0,-23.0,-5.0,22.0,1.0,-5.0,1651024379840877.0,3
1339,1.0,18.0,101.0,32.0,10.0,-7.0,-4.0,-1.0,1651024379840877.0,3
1340,3.0,10.0,-64.0,25.0,18.0,5.0,6.0,7.0,1651024379841807.0,3
1341,-7.0,20.0,45.0,-7.0,-15.0,-34.0,-9.0,-7.0,1651024379841807.0,3
1342,4.0,-18.0,-3.0,2.0,-10.0,-49.0,-19.0,0.0,1651024379864807.0,3
1343,0.0,6.0,13.0,-6.0,4.0,42.0,19.0,6.0,1651024379864807.0,3
1344,-19.0,-33.0,-54.0,-37.0,-12.0,-3.0,7.0,-9.0,1651024379864807.0,3
1345,1.0,14.0,12.0,4.0,7.0,42.0,-31.0,-7.0,1651024379864807.0,3
1346,3.0,6.0,-13.0,-30.0,-10.0,-18.0,0.0,-1.0,1651024379877779.0,3
1347,-3.0,-10.0,10.0,44.0,-1.0,-32.0,-14.0,-8.0,1651024379877779.0,3
1348,11.0,24.0,40.0,28.0,-3.0,-15.0,6.0,10.0,1651024379886132.0,3
1349,-19.0,-48.0,-58.0,-27.0,2.0,2.0,3.0,-7.0,1651024379886132.0,3
1350,-17.0,-29.0,-51.0,-28.0,-5.0,6.0,-2.0,-12.0,1651024379901035.0,3
1351,-9.0,-8.0,-13.0,-55.0,-27.0,-36.0,-34.0,-11.0,1651024379901035.0,3
1352,12.0,27.0,28.0,11.0,8.0,17.0,15.0,12.0,1651024379902031.0,3
1353,11.0,36.0,58.0,79.0,9.0,-65.0,-4.0,6.0,1651024379902031.0,3
1354,-2.0,-28.0,-13.0,1.0,12.0,8.0,21.0,7.0,1651024379924032.0,3
1355,-2.0,1.0,-36.0,-29.0,0.0,81.0,56.0,8.0,1651024379924032.0,3
1356,-3.0,-18.0,24.0,34.0,31.0,36.0,0.0,0.0,1651024379925029.0,3
1357,7.0,8.0,-54.0,-91.0,-22.0,17.0,5.0,-1.0,1651024379925029.0,3
1358,3.0,17.0,26.0,53.0,3.0,-35.0,-19.0,-4.0,1651024379947382.0,3
1359,3.0,1.0,8.0,23.0,-4.0,-56.0,-19.0,-4.0,1651024379947382.0,3
1360,-13.0,-23.0,-24.0,-58.0,-29.0,-18.0,-57.0,-35.0,1651024379947883.0,3
1361,13.0,1.0,5.0,71.0,37.0,24.0,79.0,44.0,1651024379947883.0,3
1362,-12.0,-7.0,24.0,47.0,19.0,12.0,-46.0,-28.0,1651024379960918.0,3
1363,-3.0,-5.0,-23.0,-29.0,-20.0,-9.0,34.0,15.0,1651024379960918.0,3
1364,5.0,12.0,22.0,-17.0,0.0,-7.0,-23.0,-7.0,1651024379961848.0,3
1365,17.0,46.0,25.0,-19.0,-25.0,-14.0,33.0,20.0,1651024379961848.0,3
1366,-13.0,-41.0,-52.0,-31.0,-36.0,-94.0,-67.0,-18.0,1651024379983908.0,3
1367,-10.0,-26.0,-20.0,12.0,45.0,119.0,79.0,6.0,1651024379983908.0,3
1368,1.0,-5.0,-3.0,-11.0,4.0,-36.0,-28.0,-15.0,1651024379984922.0,3
1369,6.0,19.0,35.0,32.0,9.0,-77.0,-13.0,2.0,1651024379984922.0,3
1370,-12.0,-13.0,-18.0,-37.0,-1.0,83.0,55.0,10.0,1651024380006981.0,3
1371,4.0,-5.0,18.0,-1.0,-9.0,-66.0,-39.0,-4.0,1651024380006981.0,3
1372,7.0,2.0,-5.0,25.0,1.0,1.0,7.0,8.0,1651024380007911.0,3
1373,-10.0,-27.0,-28.0,-49.0,-12.0,23.0,-3.0,-12.0,1651024380007911.0,3
1374,16.0,46.0,63.0,111.0,29.0,-8.0,-1.0,8.0,1651024380020876.0,3
1375,-9.0,-18.0,-42.0,-124.0,-35.0,-35.0,-33.0,-16.0,1651024380020876.0,3
1376,2.0,16.0,63.0,106.0,45.0,40.0,20.0,8.0,1651024380021873.0,3
1377,-1.0,-7.0,-15.0,-11.0,-12.0,-14.0,-34.0,-12.0,1651024380021873.0,3
1378,-1.0,-7.0,-14.0,-53.0,-23.0,-6.0,17.0,7.0,1651024380045959.0,3
1379,14.0,44.0,44.0,39.0,18.0,12.0,-29.0,-12.0,1651024380045959.0,3
1380,2.0,-21.0,-61.0,-30.0,-22.0,-22.0,14.0,16.0,1651024380046980.0,3
1381,-7.0,8.0,42.0,42.0,19.0,-10.0,-22.0,-18.0,1651024380046980.0,3
1382,-1.0,-1.0,-4.0,-21.0,-5.0,4.0,36.0,15.0,1651024380067360.0,3
1383,15.0,36.0,43.0,32.0,12.0,-16.0,-9.0,14.0,1651024380067360.0,3
1384,-14.0,-35.0,-58.0,-32.0,-14.0,21.0,-59.0,-44.0,1651024380067882.0,3
1385,-2.0,-13.0,-8.0,-3.0,-7.0,31.0,81.0,33.0,1651024380067882.0,3
1386,25.0,0.0,-4.0,-22.0,-1.0,38.0,26.0,5.0,1651024380080918.0,3
1387,-1.0,11.0,19.0,33.0,1.0,-48.0,-56.0,-19.0,1651024380080918.0,3
1388,5.0,28.0,27.0,-16.0,-22.0,-37.0,64.0,29.0,1651024380081848.0,3
1389,-10.0,-47.0,-72.0,-45.0,-6.0,1.0,-16.0,-7.0,1651024380081848.0,3
1390,5.0,16.0,40.0,22.0,7.0,22.0,11.0,4.0,1651024380104941.0,3
1391,7.0,17.0,33.0,52.0,12.0,0.0,23.0,18.0,1651024380104941.0,3
1392,-18.0,-32.0,-37.0,-23.0,-6.0,2.0,-33.0,-23.0,1651024380104941.0,3
1393,-2.0,6.0,-8.0,4.0,8.0,3.0,-25.0,-13.0,1651024380104941.0,3
1394,5.0,41.0,61.0,2.0,9.0,-5.0,15.0,16.0,1651024380126935.0,3
1395,-15.0,-55.0,-75.0,-24.0,-17.0,-9.0,-27.0,-24.0,1651024380126935.0,3
1396,2.0,4.0,14.0,26.0,1.0,8.0,-2.0,3.0,1651024380127875.0,3
1397,5.0,15.0,5.0,10.0,11.0,10.0,-8.0,-1.0,1651024380127875.0,3
1398,1.0,23.0,9.0,-23.0,-2.0,-15.0,-37.0,-18.0,1651024380140839.0,3
1399,-11.0,-24.0,5.0,29.0,-3.0,-50.0,-5.0,7.0,1651024380140839.0,3
1400,-9.0,-35.0,-47.0,-45.0,-2.0,21.0,2.0,-10.0,1651024380141838.0,3
1401,2.0,-14.0,-4.0,5.0,1.0,24.0,28.0,14.0,1651024380141838.0,3
1402,0.0,25.0,14.0,14.0,3.0,29.0,-22.0,-20.0,1651024380164963.0,3
1403,2.0,-8.0,-12.0,-19.0,-8.0,-28.0,17.0,10.0,1651024380164963.0,3
1404,5.0,23.0,33.0,-9.0,-10.0,-20.0,3.0,5.0,1651024380164963.0,3
1405,7.0,24.0,15.0,7.0,20.0,28.0,-10.0,-5.0,1651024380164963.0,3
1406,-15.0,-36.0,-21.0,33.0,-11.0,-27.0,-11.0,-9.0,1651024380186894.0,3
1407,8.0,12.0,-1.0,1.0,9.0,-10.0,12.0,7.0,1651024380186894.0,3
1408,14.0,25.0,7.0,-38.0,-9.0,21.0,37.0,30.0,1651024380187864.0,3
1409,-1.0,6.0,27.0,22.0,17.0,12.0,-4.0,-6.0,1651024380187864.0,3
1410,4.0,8.0,14.0,34.0,18.0,-3.0,0.0,5.0,1651024380200892.0,3
1411,-7.0,-27.0,-49.0,-28.0,-5.0,17.0,16.0,3.0,1651024380200892.0,3
1412,-2.0,-6.0,24.0,18.0,1.0,1.0,-12.0,-8.0,1651024380201826.0,3
1413,-1.0,15.0,29.0,19.0,6.0,-18.0,-26.0,-22.0,1651024380201826.0,3
1414,-6.0,-23.0,-65.0,-37.0,-23.0,-70.0,15.0,29.0,1651024380224765.0,3
1415,3.0,3.0,15.0,11.0,13.0,93.0,8.0,-7.0,1651024380224765.0,3
1416,-15.0,-10.0,-11.0,-12.0,5.0,31.0,6.0,-10.0,1651024380224765.0,3
1417,1.0,1.0,10.0,-1.0,-9.0,3.0,35.0,17.0,1651024380224765.0,3
1418,-21.0,-32.0,-22.0,-11.0,-7.0,-46.0,-55.0,-37.0,1651024380247332.0,3
1419,10.0,26.0,11.0,-12.0,12.0,91.0,58.0,27.0,1651024380247332.0,3
1420,6.0,1.0,-10.0,-21.0,-18.0,-42.0,-12.0,8.0,1651024380247894.0,3
1421,-9.0,-10.0,18.0,30.0,7.0,-7.0,7.0,-2.0,1651024380247894.0,3
1422,5.0,-6.0,-57.0,-33.0,-7.0,10.0,-5.0,-5.0,1651024380260929.0,3
1423,1.0,32.0,81.0,39.0,-9.0,-56.0,-49.0,-22.0,1651024380260929.0,3
1424,-8.0,-42.0,-68.0,-22.0,-12.0,-1.0,23.0,6.0,1651024380261859.0,3
1425,-3.0,-10.0,-43.0,-61.0,-17.0,-11.0,-29.0,-12.0,1651024380261859.0,3
1426,3.0,12.0,33.0,-6.0,19.0,22.0,23.0,7.0,1651024380284975.0,3
1427,14.0,33.0,47.0,51.0,18.0,-5.0,-5.0,-1.0,1651024380284975.0,3
1428,15.0,25.0,-20.0,30.0,15.0,5.0,-2.0,7.0,1651024380284975.0,3
1429,-13.0,-37.0,-4.0,-25.0,-29.0,-31.0,4.0,3.0,1651024380284975.0,3
1430,-6.0,-11.0,-15.0,-35.0,-18.0,4.0,-7.0,-6.0,1651024380306956.0,3
1431,6.0,11.0,-5.0,-7.0,-3.0,-3.0,-9.0,0.0,1651024380306956.0,3
1432,9.0,45.0,68.0,36.0,10.0,-14.0,6.0,-1.0,1651024380307887.0,3
1433,3.0,-3.0,-41.0,-20.0,-12.0,-10.0,-16.0,-4.0,1651024380307887.0,3
1434,12.0,17.0,29.0,23.0,26.0,89.0,31.0,13.0,1651024380320920.0,3
1435,-6.0,4.0,4.0,1.0,1.0,-26.0,-51.0,-24.0,1651024380320920.0,3
1436,11.0,14.0,21.0,-8.0,-2.0,-25.0,42.0,27.0,1651024380321850.0,3
1437,-8.0,-5.0,-13.0,-18.0,-10.0,-17.0,-57.0,-25.0,1651024380321850.0,3
1438,-5.0,-25.0,0.0,67.0,14.0,9.0,23.0,9.0,1651024380344986.0,3
1439,-4.0,-6.0,-53.0,-56.0,-19.0,-12.0,-2.0,-1.0,1651024380344986.0,3
1440,-1.0,18.0,77.0,39.0,17.0,3.0,-10.0,-7.0,1651024380344986.0,3
1441,1.0,-4.0,-24.0,-41.0,-6.0,15.0,-7.0,-4.0,1651024380344986.0,3
1442,-20.0,-41.0,-21.0,31.0,3.0,-5.0,-13.0,-15.0,1651024380367016.0,3
1443,6.0,15.0,13.0,-3.0,0.0,2.0,12.0,8.0,1651024380367016.0,3
1444,-23.0,-41.0,-35.0,-13.0,-15.0,-41.0,-47.0,-28.0,1651024380367946.0,3
1445,14.0,20.0,13.0,28.0,13.0,37.0,56.0,31.0,1651024380367946.0,3
1446,7.0,32.0,32.0,-17.0,-13.0,-48.0,-2.0,5.0,1651024380380978.0,3
1447,-9.0,-25.0,-45.0,-8.0,12.0,82.0,31.0,2.0,1651024380380978.0,3
1448,3.0,4.0,15.0,-3.0,1.0,28.0,22.0,11.0,1651024380381909.0,3
1449,-5.0,-4.0,-6.0,14.0,3.0,18.0,-10.0,-12.0,1651024380381909.0,3
1450,16.0,21.0,8.0,-16.0,0.0,-9.0,-3.0,10.0,1651024380404964.0,3
1451,-17.0,-37.0,-17.0,-7.0,-12.0,-37.0,14.0,1.0,1651024380404964.0,3
1452,8.0,36.0,17.0,-27.0,-6.0,8.0,-22.0,-6.0,1651024380404964.0,3
1453,1.0,-22.0,-7.0,57.0,27.0,10.0,31.0,16.0,1651024380404964.0,3
1454,-6.0,2.0,29.0,-15.0,-15.0,-6.0,6.0,-1.0,1651024380426863.0,3
1455,8.0,18.0,22.0,38.0,20.0,-14.0,-19.0,-5.0,1651024380426863.0,3
1456,-9.0,-32.0,-52.0,-12.0,-16.0,-4.0,-4.0,-6.0,1651024380427860.0,3
1457,6.0,30.0,35.0,13.0,-1.0,-20.0,-21.0,-7.0,1651024380427860.0,3
1458,-10.0,-23.0,-27.0,-67.0,-19.0,10.0,-1.0,-5.0,1651024380440826.0,3
1459,-3.0,-13.0,-10.0,12.0,2.0,-8.0,-10.0,-5.0,1651024380440826.0,3
1460,0.0,14.0,23.0,35.0,9.0,2.0,-9.0,-3.0,1651024380441829.0,3
1461,-7.0,-21.0,-21.0,-4.0,-7.0,-25.0,4.0,-1.0,1651024380441829.0,3
1462,3.0,14.0,4.0,-2.0,7.0,15.0,-10.0,-9.0,1651024380464937.0,3
1463,0.0,-10.0,-13.0,-24.0,-12.0,9.0,-5.0,-3.0,1651024380464937.0,3
1464,-6.0,-10.0,4.0,-1.0,-1.0,-6.0,9.0,4.0,1651024380464937.0,3
1465,-4.0,-3.0,-5.0,-15.0,-6.0,-11.0,-12.0,-11.0,1651024380464937.0,3
1466,-1.0,-12.0,-19.0,9.0,8.0,17.0,0.0,-6.0,1651024380494912.0,3
1467,-3.0,10.0,27.0,-1.0,-12.0,-40.0,1.0,6.0,1651024380494912.0,3
1468,3.0,-16.0,-39.0,-8.0,2.0,39.0,10.0,-3.0,1651024380494912.0,3
1469,-15.0,-30.0,-9.0,14.0,-4.0,-18.0,-35.0,-11.0,1651024380494912.0,3
1470,6.0,22.0,13.0,-68.0,-12.0,-7.0,24.0,12.0,1651024380500916.0,3
1471,1.0,-2.0,-8.0,39.0,-5.0,4.0,7.0,6.0,1651024380500916.0,3
1472,-3.0,-11.0,-8.0,28.0,7.0,-18.0,-2.0,-1.0,1651024380501889.0,3
1473,-5.0,3.0,0.0,-8.0,7.0,12.0,-8.0,-6.0,1651024380501889.0,3
1474,1.0,3.0,10.0,30.0,5.0,6.0,18.0,11.0,1651024380524828.0,3
1475,8.0,17.0,22.0,14.0,6.0,-19.0,1.0,3.0,1651024380524828.0,3
1476,-4.0,-21.0,-37.0,-39.0,-26.0,-54.0,-38.0,-13.0,1651024380524828.0,3
1477,5.0,9.0,-7.0,-29.0,7.0,78.0,33.0,7.0,1651024380524828.0,3
1478,-1.0,-9.0,-14.0,7.0,7.0,11.0,-4.0,-1.0,1651024380546838.0,3
1479,-2.0,11.0,2.0,-11.0,-12.0,6.0,-1.0,-9.0,1651024380546838.0,3
1480,-6.0,-15.0,-16.0,-6.0,2.0,-12.0,-2.0,0.0,1651024380547767.0,3
1481,0.0,5.0,12.0,-2.0,-17.0,-53.0,-49.0,-16.0,1651024380547767.0,3
1482,4.0,11.0,12.0,8.0,6.0,41.0,40.0,15.0,1651024380560804.0,3
1483,9.0,10.0,5.0,7.0,10.0,-1.0,23.0,19.0,1651024380560804.0,3
1484,-24.0,-49.0,-34.0,-25.0,-9.0,-10.0,-7.0,-13.0,1651024380568888.0,3
1485,2.0,17.0,2.0,-34.0,-15.0,-12.0,-7.0,-5.0,1651024380568888.0,3
1486,-1.0,-7.0,27.0,90.0,24.0,-8.0,-10.0,-1.0,1651024380584968.0,3
1487,5.0,19.0,11.0,-18.0,-13.0,-17.0,-19.0,-7.0,1651024380584968.0,3
1488,3.0,12.0,0.0,55.0,28.0,31.0,24.0,9.0,1651024380584968.0,3
1489,-1.0,10.0,34.0,-17.0,-13.0,-28.0,6.0,4.0,1651024380584968.0,3
1490,6.0,2.0,-19.0,-27.0,4.0,6.0,-9.0,-1.0,1651024380606969.0,3
1491,-7.0,-15.0,-22.0,-19.0,-4.0,12.0,3.0,-6.0,1651024380606969.0,3
1492,14.0,45.0,63.0,36.0,5.0,-9.0,19.0,11.0,1651024380607900.0,3
1493,4.0,-21.0,-25.0,7.0,4.0,23.0,17.0,16.0,1651024380607900.0,3
1494,3.0,34.0,24.0,-3.0,-3.0,-39.0,-42.0,-18.0,1651024380620932.0,3
1495,-6.0,-33.0,-17.0,-1.0,-5.0,-47.0,-14.0,2.0,1651024380620932.0,3
1496,6.0,-5.0,-18.0,-11.0,12.0,87.0,31.0,11.0,1651024380628911.0,3
1497,3.0,11.0,1.0,11.0,2.0,-3.0,-9.0,-9.0,1651024380628911.0,3
1498,5.0,5.0,-12.0,-13.0,-6.0,17.0,13.0,2.0,1651024380651842.0,3
1499,-7.0,-4.0,12.0,-7.0,1.0,-13.0,-5.0,3.0,1651024380651842.0,3
1500,2.0,13.0,6.0,-3.0,-12.0,-41.0,-34.0,-15.0,1651024380652780.0,3
1501,-7.0,-8.0,8.0,22.0,6.0,6.0,5.0,2.0,1651024380652780.0,3
1502,-12.0,-24.0,-6.0,-6.0,0.0,-20.0,-12.0,-8.0,1651024380666863.0,3
1503,0.0,3.0,-17.0,-33.0,-11.0,30.0,-4.0,-11.0,1651024380666863.0,3
1504,11.0,7.0,18.0,42.0,23.0,2.0,10.0,13.0,1651024380667794.0,3
1505,-3.0,1.0,-13.0,-14.0,-10.0,9.0,27.0,8.0,1651024380667794.0,3
1506,-4.0,-17.0,-12.0,-5.0,-3.0,-16.0,-6.0,0.0,1651024380680780.0,3
1507,-4.0,-7.0,-19.0,-14.0,-10.0,-1.0,-1.0,-3.0,1651024380680780.0,3
1508,9.0,22.0,29.0,-9.0,6.0,13.0,14.0,8.0,1651024380688765.0,3
1509,2.0,-1.0,13.0,13.0,8.0,20.0,2.0,1.0,1651024380688765.0,3
1510,-7.0,-6.0,-13.0,-3.0,-10.0,-48.0,-12.0,-5.0,1651024380704835.0,3
1511,5.0,2.0,-3.0,10.0,15.0,79.0,36.0,14.0,1651024380704835.0,3
1512,-8.0,-4.0,0.0,-52.0,-29.0,-65.0,-59.0,-24.0,1651024380704835.0,3
1513,5.0,-12.0,-1.0,67.0,30.0,15.0,49.0,23.0,1651024380704835.0,3
1514,5.0,18.0,12.0,2.0,3.0,46.0,9.0,2.0,1651024380726924.0,3
1515,-13.0,-25.0,-15.0,-41.0,-7.0,-18.0,-20.0,-13.0,1651024380726924.0,3
1516,2.0,-9.0,-11.0,22.0,0.0,5.0,9.0,4.0,1651024380728883.0,3
1517,1.0,7.0,9.0,4.0,-9.0,-45.0,-43.0,-15.0,1651024380728883.0,3
1518,-13.0,-24.0,-53.0,-71.0,-22.0,-2.0,-7.0,-6.0,1651024380740890.0,3
1519,12.0,10.0,55.0,77.0,30.0,2.0,14.0,11.0,1651024380740890.0,3
1520,-3.0,0.0,-3.0,-35.0,-11.0,-1.0,13.0,5.0,1651024380749799.0,3
1521,3.0,10.0,25.0,75.0,27.0,2.0,-3.0,-1.0,1651024380749799.0,3
1522,3.0,7.0,21.0,5.0,-5.0,3.0,1.0,3.0,1651024380764826.0,3
1523,-2.0,8.0,-11.0,-31.0,-18.0,-22.0,-23.0,-12.0,1651024380764826.0,3
1524,-4.0,-7.0,-12.0,1.0,1.0,-5.0,3.0,1.0,1651024380765763.0,3
1525,2.0,10.0,2.0,-28.0,-18.0,-30.0,0.0,-2.0,1651024380765763.0,3
1526,16.0,14.0,21.0,19.0,29.0,97.0,46.0,24.0,1651024380786784.0,3
1527,-8.0,-19.0,-35.0,-8.0,0.0,12.0,-14.0,-11.0,1651024380786784.0,3
1528,7.0,29.0,61.0,15.0,0.0,-6.0,-5.0,-1.0,1651024380788806.0,3
1529,-7.0,-19.0,-47.0,-51.0,-10.0,13.0,-28.0,-18.0,1651024380788806.0,3
1530,6.0,13.0,2.0,-14.0,-10.0,-48.0,0.0,7.0,1651024380800815.0,3
1531,2.0,14.0,12.0,31.0,9.0,-5.0,-10.0,-6.0,1651024380800815.0,3
1532,1.0,-20.0,-10.0,35.0,11.0,14.0,19.0,9.0,1651024380809722.0,3
1533,5.0,19.0,20.0,2.0,9.0,5.0,-10.0,-1.0,1651024380809722.0,3
1534,-6.0,-5.0,-14.0,-10.0,-9.0,-18.0,-16.0,-14.0,1651024380824914.0,3
1535,-11.0,-7.0,-2.0,-6.0,-5.0,2.0,-12.0,-2.0,1651024380824914.0,3
1536,8.0,40.0,42.0,-24.0,-13.0,-2.0,19.0,8.0,1651024380825914.0,3
1537,-9.0,-33.0,-19.0,54.0,20.0,-19.0,-12.0,-1.0,1651024380825914.0,3
1538,-5.0,1.0,13.0,-15.0,-5.0,6.0,0.0,-6.0,1651024380846925.0,3
1539,15.0,21.0,-26.0,-11.0,4.0,11.0,22.0,13.0,1651024380846925.0,3
1540,-21.0,-50.0,-43.0,-22.0,-16.0,5.0,-12.0,-13.0,1651024380848852.0,3
1541,-7.0,-9.0,-3.0,-37.0,-10.0,6.0,17.0,1.0,1651024380848852.0,3
1542,-4.0,-21.0,-19.0,-2.0,-2.0,-19.0,-22.0,-6.0,1651024380860887.0,3
1543,4.0,8.0,7.0,-2.0,-5.0,-9.0,-6.0,3.0,1651024380860887.0,3
1544,20.0,38.0,44.0,49.0,27.0,19.0,21.0,19.0,1651024380869796.0,3
1545,-9.0,-36.0,-73.0,-52.0,-17.0,16.0,3.0,-7.0,1651024380869796.0,3
1546,-2.0,5.0,9.0,17.0,-4.0,-28.0,-12.0,-10.0,1651024380884887.0,3
1547,8.0,14.0,17.0,-4.0,-10.0,-14.0,4.0,5.0,1651024380884887.0,3
1548,-15.0,-35.0,-49.0,-47.0,-10.0,-6.0,-22.0,-18.0,1651024380885920.0,3
1549,4.0,16.0,23.0,-4.0,-7.0,6.0,2.0,4.0,1651024380885920.0,3
1550,3.0,12.0,3.0,3.0,-7.0,-18.0,-1.0,0.0,1651024380907028.0,3
1551,-7.0,-22.0,-2.0,2.0,7.0,16.0,-5.0,-10.0,1651024380907028.0,3
1552,9.0,22.0,-5.0,-28.0,4.0,21.0,16.0,14.0,1651024380908957.0,3
1553,-2.0,7.0,37.0,7.0,-2.0,-12.0,-6.0,-6.0,1651024380908957.0,3
1554,-2.0,-15.0,-11.0,28.0,4.0,-13.0,-11.0,-2.0,1651024380930086.0,3
1555,-4.0,-30.0,-38.0,-14.0,-4.0,16.0,61.0,29.0,1651024380930086.0,3
1556,-5.0,4.0,-3.0,-12.0,2.0,-12.0,-25.0,-19.0,1651024380931074.0,3
1557,12.0,19.0,-2.0,-41.0,-11.0,15.0,9.0,17.0,1651024380931074.0,3
1558,6.0,15.0,24.0,61.0,11.0,-43.0,-15.0,1.0,1651024380944210.0,3
1559,-7.0,1.0,11.0,-1.0,-9.0,3.0,1.0,-7.0,1651024380944210.0,3
1560,-8.0,-14.0,2.0,-3.0,5.0,28.0,-7.0,-8.0,1651024380950911.0,3
1561,2.0,4.0,-26.0,-9.0,-12.0,-25.0,4.0,3.0,1651024380950911.0,3
1562,-15.0,-23.0,-18.0,-17.0,-8.0,-5.0,-5.0,-7.0,1651024380966864.0,3
1563,-4.0,-8.0,-14.0,-19.0,0.0,2.0,1.0,-2.0,1651024380966864.0,3
1564,5.0,26.0,36.0,-1.0,-11.0,-12.0,1.0,3.0,1651024380968821.0,3
1565,0.0,-16.0,-21.0,16.0,21.0,18.0,-5.0,-6.0,1651024380968821.0,3
1566,3.0,11.0,25.0,47.0,19.0,2.0,0.0,4.0,1651024380989940.0,3
1567,0.0,-4.0,-7.0,-12.0,-3.0,-15.0,-18.0,-9.0,1651024380989940.0,3
1568,2.0,-2.0,-24.0,-32.0,-21.0,-7.0,0.0,-2.0,1651024380990853.0,3
1569,-10.0,-11.0,29.0,29.0,4.0,-27.0,-21.0,-10.0,1651024380990853.0,3
1570,1.0,-14.0,-33.0,-39.0,-5.0,68.0,45.0,12.0,1651024381002888.0,3
1571,7.0,20.0,33.0,27.0,17.0,-5.0,5.0,9.0,1651024381002888.0,3
1572,-6.0,-12.0,-24.0,7.0,4.0,-27.0,-32.0,-12.0,1651024381011809.0,3
1573,10.0,15.0,-3.0,-15.0,-11.0,22.0,51.0,22.0,1651024381011809.0,3
1574,-4.0,0.0,5.0,1.0,1.0,-13.0,-14.0,-4.0,1651024381026884.0,3
1575,-3.0,0.0,-2.0,2.0,0.0,15.0,-3.0,-5.0,1651024381026884.0,3
1576,1.0,-6.0,0.0,10.0,3.0,-15.0,7.0,6.0,1651024381028898.0,3
1577,-5.0,8.0,7.0,-4.0,-3.0,-4.0,-23.0,-15.0,1651024381028898.0,3
1578,-4.0,1.0,-8.0,-11.0,-7.0,12.0,3.0,0.0,1651024381049881.0,3
1579,1.0,3.0,7.0,-27.0,-16.0,-29.0,-2.0,4.0,1651024381049881.0,3
1580,-1.0,2.0,-2.0,39.0,21.0,-4.0,-5.0,-4.0,1651024381051836.0,3
1581,-10.0,-12.0,5.0,7.0,-6.0,7.0,-22.0,-15.0,1651024381051836.0,3
1582,7.0,15.0,9.0,0.0,5.0,10.0,23.0,11.0,1651024381063843.0,3
1583,-6.0,-17.0,-22.0,-14.0,-12.0,-35.0,-19.0,-11.0,1651024381063843.0,3
1584,-2.0,-6.0,1.0,5.0,-2.0,-6.0,6.0,2.0,1651024381070760.0,3
1585,-1.0,4.0,5.0,-11.0,1.0,37.0,5.0,-4.0,1651024381070760.0,3
1586,-2.0,-1.0,11.0,-8.0,-17.0,-36.0,-24.0,-12.0,1651024381086715.0,3
1587,-1.0,-6.0,-19.0,2.0,13.0,56.0,37.0,12.0,1651024381086715.0,3
1588,3.0,1.0,-1.0,-1.0,4.0,7.0,2.0,4.0,1651024381088710.0,3
1589,-1.0,-7.0,-9.0,-2.0,-4.0,-37.0,-5.0,2.0,1651024381088710.0,3
1590,-2.0,-2.0,3.0,7.0,-3.0,-22.0,-14.0,-4.0,1651024381109888.0,3
1591,-4.0,-3.0,-2.0,3.0,-11.0,-10.0,-6.0,-7.0,1651024381109888.0,3
1592,1.0,0.0,4.0,2.0,1.0,46.0,18.0,5.0,1651024381110797.0,3
1593,0.0,2.0,0.0,-7.0,-2.0,9.0,-4.0,-1.0,1651024381110797.0,3
1594,4.0,6.0,-2.0,-19.0,10.0,19.0,9.0,4.0,1651024381124208.0,3
1595,-1.0,7.0,27.0,28.0,8.0,-22.0,-16.0,-8.0,1651024381124208.0,3
1596,-7.0,-13.0,-18.0,-2.0,-11.0,-14.0,1.0,5.0,1651024381130876.0,3
1597,-3.0,-7.0,3.0,14.0,1.0,-19.0,-10.0,-4.0,1651024381130876.0,3
1598,-1.0,-3.0,-14.0,-24.0,-12.0,12.0,3.0,-1.0,1651024381147353.0,3
1599,2.0,1.0,2.0,-3.0,-1.0,-12.0,-8.0,1.0,1651024381147353.0,3
1600,3.0,3.0,7.0,8.0,6.0,10.0,12.0,-1.0,1651024381148881.0,3
1601,3.0,6.0,12.0,10.0,9.0,1.0,3.0,6.0,1651024381148881.0,3
1602,-3.0,-1.0,10.0,9.0,6.0,11.0,12.0,-2.0,1651024381169966.0,3
1603,-4.0,-11.0,-36.0,-18.0,-19.0,-30.0,-23.0,-6.0,1651024381169966.0,3
1604,1.0,4.0,1.0,-3.0,-5.0,-12.0,-5.0,1.0,1651024381170936.0,3
1605,-1.0,1.0,12.0,3.0,6.0,25.0,5.0,-2.0,1651024381170936.0,3
1606,5.0,7.0,0.0,4.0,1.0,12.0,6.0,3.0,1651024381183928.0,3
1607,0.0,0.0,3.0,6.0,11.0,0.0,2.0,-1.0,1651024381183928.0,3
1608,-2.0,-13.0,-25.0,-19.0,0.0,2.0,4.0,-2.0,1651024381190946.0,3
1609,2.0,4.0,14.0,-2.0,-11.0,10.0,8.0,5.0,1651024381190946.0,3
1610,2.0,7.0,34.0,22.0,16.0,12.0,4.0,-1.0,1651024381206906.0,3
1611,2.0,3.0,-9.0,10.0,2.0,3.0,-16.0,1.0,1651024381206906.0,3
1612,-5.0,-13.0,-28.0,-22.0,-8.0,-18.0,-6.0,-6.0,1651024381208860.0,3
1613,0.0,1.0,4.0,-5.0,1.0,-10.0,0.0,-1.0,1651024381208860.0,3
1614,-3.0,-2.0,0.0,2.0,-14.0,-5.0,-1.0,-2.0,1651024381229845.0,3
1615,-2.0,0.0,22.0,-13.0,1.0,2.0,3.0,0.0,1651024381229845.0,3
1616,-1.0,1.0,-11.0,5.0,2.0,5.0,0.0,0.0,1651024381230775.0,3
1617,-4.0,-10.0,-48.0,-33.0,-7.0,-5.0,-1.0,-1.0,1651024381230775.0,3
1618,2.0,-3.0,-10.0,5.0,2.0,3.0,-1.0,2.0,1651024381243852.0,3
1619,0.0,3.0,21.0,11.0,12.0,4.0,6.0,0.0,1651024381243852.0,3
1620,3.0,9.0,36.0,21.0,-9.0,1.0,-1.0,1.0,1651024381250899.0,3
1621,2.0,5.0,1.0,-4.0,7.0,1.0,4.0,0.0,1651024381250899.0,3
1622,-5.0,-10.0,-32.0,-17.0,-2.0,-6.0,-7.0,-2.0,1651024381267383.0,3
1623,-1.0,-2.0,-2.0,-1.0,-9.0,1.0,1.0,0.0,1651024381267383.0,3
1624,2.0,9.0,41.0,12.0,4.0,4.0,2.0,0.0,1651024381268898.0,3
1625,1.0,-1.0,-11.0,9.0,-1.0,-7.0,-2.0,0.0,1651024381268898.0,3
1626,-2.0,-2.0,-1.0,-3.0,-5.0,0.0,-3.0,-1.0,1651024381289836.0,3
1627,0.0,-3.0,-5.0,3.0,13.0,4.0,2.0,-3.0,1651024381289836.0,3
1628,-2.0,3.0,6.0,-3.0,-10.0,-2.0,0.0,-1.0,1651024381290812.0,3
1629,1.0,2.0,8.0,8.0,8.0,0.0,0.0,1.0,1651024381290812.0,3
1630,0.0,-5.0,-8.0,-2.0,-4.0,2.0,-4.0,-3.0,1651024381303777.0,3
1631,1.0,-1.0,-1.0,-7.0,2.0,2.0,5.0,2.0,1651024381303777.0,3
1632,1.0,2.0,-3.0,10.0,20.0,5.0,1.0,2.0,1651024381310789.0,3
1633,1.0,2.0,2.0,-2.0,-8.0,-4.0,1.0,0.0,1651024381310789.0,3
1634,4.0,-1.0,-5.0,-4.0,-26.0,-12.0,-4.0,1.0,1651024381326716.0,3
1635,-6.0,-2.0,2.0,2.0,7.0,8.0,0.0,-2.0,1651024381326716.0,3
1636,-6.0,-2.0,-6.0,-4.0,15.0,5.0,1.0,-2.0,1651024381328711.0,3
1637,2.0,0.0,7.0,8.0,-1.0,-3.0,0.0,-1.0,1651024381328711.0,3
1638,-1.0,-5.0,2.0,-5.0,-1.0,0.0,1.0,1.0,1651024381349719.0,3
1639,10.0,22.0,-1.0,-8.0,-21.0,-6.0,0.0,1.0,1651024381349719.0,3
1640,-2.0,3.0,9.0,34.0,17.0,2.0,-2.0,-1.0,1651024381350680.0,3
1641,-2.0,-12.0,4.0,-2.0,-9.0,-2.0,2.0,-1.0,1651024381350680.0,3
1642,-2.0,5.0,0.0,6.0,12.0,5.0,-2.0,0.0,1651024381362653.0,3
1643,-1.0,10.0,-8.0,-5.0,7.0,-2.0,1.0,-1.0,1651024381362653.0,3
1644,0.0,-12.0,-10.0,-19.0,-17.0,-4.0,-1.0,0.0,1651024381372632.0,3
1645,5.0,18.0,14.0,10.0,9.0,2.0,-3.0,1.0,1651024381372632.0,3
1646,2.0,1.0,6.0,6.0,7.0,5.0,2.0,2.0,1651024381386756.0,3
1647,-11.0,-25.0,-8.0,-5.0,-8.0,2.0,1.0,-1.0,1651024381386756.0,3
1648,1.0,2.0,-14.0,-12.0,-17.0,-9.0,-4.0,0.0,1651024381388684.0,3
1649,-7.0,-22.0,-1.0,-1.0,7.0,-1.0,-1.0,0.0,1651024381388684.0,3
1650,-3.0,19.0,-2.0,-5.0,7.0,2.0,-3.0,-2.0,1651024381409318.0,3
1651,5.0,9.0,0.0,2.0,-6.0,-2.0,0.0,0.0,1651024381409318.0,3
1652,4.0,-8.0,-7.0,-4.0,-5.0,-3.0,1.0,0.0,1651024381411341.0,3
1653,-8.0,4.0,-3.0,-14.0,-24.0,-5.0,-4.0,-2.0,1651024381411341.0,3
1654,-4.0,-9.0,-1.0,3.0,33.0,2.0,-1.0,-2.0,1651024381423328.0,3
1655,3.0,-3.0,2.0,7.0,-3.0,-1.0,2.0,1.0,1651024381423328.0,3
1656,-3.0,-13.0,-1.0,0.0,-1.0,2.0,1.0,1.0,1651024381432332.0,3
1657,1.0,6.0,-7.0,-3.0,-1.0,-1.0,-1.0,-6.0,1651024381432332.0,3
1658,-5.0,-14.0,-3.0,2.0,-10.0,-6.0,-2.0,1.0,1651024381447267.0,3
1659,5.0,20.0,3.0,-2.0,3.0,0.0,-3.0,0.0,1651024381447267.0,3
1660,-4.0,-8.0,-4.0,-8.0,1.0,0.0,0.0,-2.0,1651024381448264.0,3
1661,1.0,-6.0,1.0,1.0,-2.0,-3.0,1.0,1.0,1651024381448264.0,3
1662,1.0,2.0,3.0,-1.0,-14.0,-4.0,0.0,-2.0,1651024381469775.0,3
1663,-1.0,-14.0,-6.0,-10.0,6.0,-2.0,0.0,0.0,1651024381469775.0,3
1664,-6.0,-28.0,-10.0,0.0,2.0,3.0,-1.0,-2.0,1651024381470700.0,3
1665,5.0,21.0,5.0,2.0,1.0,-2.0,2.0,1.0,1651024381470700.0,3
1666,8.0,26.0,5.0,1.0,1.0,2.0,2.0,1.0,1651024381483343.0,3
1667,-18.0,-49.0,-14.0,-2.0,-4.0,2.0,0.0,-3.0,1651024381483343.0,3
1668,-4.0,3.0,-1.0,-8.0,-4.0,-2.0,-1.0,-2.0,1651024381491777.0,3
1669,-1.0,-19.0,-3.0,2.0,5.0,0.0,-1.0,-1.0,1651024381491777.0,3
1670,-6.0,-24.0,-6.0,-3.0,-1.0,-1.0,-1.0,-1.0,1651024381508757.0,3
1671,16.0,64.0,10.0,1.0,-6.0,-1.0,-2.0,1.0,1651024381508757.0,3
1672,1.0,9.0,7.0,1.0,-6.0,-2.0,0.0,1.0,1651024381509754.0,3
1673,3.0,9.0,-4.0,0.0,17.0,2.0,1.0,1.0,1651024381509754.0,3
1674,-8.0,-24.0,-7.0,-6.0,-2.0,1.0,0.0,-2.0,1651024381529904.0,3
1675,-1.0,-8.0,1.0,-2.0,-19.0,-4.0,0.0,0.0,1651024381529904.0,3
1676,-3.0,-2.0,-1.0,5.0,21.0,4.0,-1.0,-2.0,1651024381530899.0,3
1677,4.0,8.0,-1.0,1.0,-6.0,0.0,0.0,1.0,1651024381530899.0,3
1678,1.0,-5.0,1.0,-1.0,0.0,1.0,1.0,-1.0,1651024381543037.0,3
1679,-9.0,-21.0,-2.0,-3.0,3.0,0.0,0.0,-2.0,1651024381543037.0,3
1680,5.0,33.0,1.0,-5.0,-17.0,-6.0,-1.0,0.0,1651024381551967.0,3
1681,0.0,3.0,0.0,-3.0,-12.0,-3.0,-2.0,1.0,1651024381551967.0,3
1682,-3.0,8.0,-5.0,-2.0,12.0,3.0,-2.0,-3.0,1651024381567383.0,3
1683,1.0,-14.0,2.0,8.0,4.0,2.0,0.0,1.0,1651024381567383.0,3
1684,1.0,-1.0,2.0,-3.0,-5.0,-3.0,1.0,0.0,1651024381568871.0,3
1685,-5.0,-7.0,0.0,4.0,5.0,0.0,0.0,0.0,1651024381568871.0,3
1686,1.0,4.0,2.0,-2.0,-7.0,-2.0,-1.0,0.0,1651024381589479.0,3
1687,1.0,1.0,-2.0,4.0,4.0,1.0,0.0,0.0,1651024381589479.0,3
1688,3.0,14.0,1.0,0.0,0.0,-1.0,-1.0,-1.0,1651024381591410.0,3
1689,0.0,-9.0,-1.0,-3.0,-1.0,0.0,0.0,-2.0,1651024381591410.0,3
1690,-5.0,-7.0,-2.0,-4.0,-7.0,-3.0,-2.0,0.0,1651024381603330.0,3
1691,-8.0,-25.0,-6.0,4.0,4.0,0.0,0.0,-1.0,1651024381603330.0,3
1692,9.0,24.0,8.0,1.0,1.0,2.0,0.0,2.0,1651024381612308.0,3
1693,3.0,-9.0,-10.0,-5.0,-2.0,-2.0,0.0,1.0,1651024381612308.0,3
1694,3.0,11.0,19.0,8.0,3.0,4.0,1.0,-1.0,1651024381627288.0,3
1695,0.0,3.0,-3.0,-1.0,-4.0,-18.0,-6.0,-4.0,1651024381627288.0,3
1696,-7.0,-35.0,-18.0,-12.0,1.0,24.0,5.0,-2.0,1651024381628266.0,3
1697,5.0,39.0,5.0,-3.0,-12.0,-11.0,-4.0,-1.0,1651024381628266.0,3
1698,2.0,3.0,-1.0,1.0,13.0,15.0,3.0,1.0,1651024381657409.0,3
1699,-5.0,-31.0,10.0,7.0,2.0,4.0,3.0,0.0,1651024381657409.0,3
1700,6.0,30.0,5.0,1.0,-19.0,-11.0,-2.0,-1.0,1651024381658868.0,3
1701,-4.0,-4.0,-8.0,-1.0,20.0,9.0,-1.0,0.0,1651024381658868.0,3
1702,-9.0,-26.0,-9.0,-6.0,-13.0,-11.0,-4.0,-6.0,1651024381662886.0,3
1703,9.0,27.0,4.0,-2.0,-2.0,-1.0,0.0,3.0,1651024381662886.0,3
1704,-9.0,-18.0,-2.0,3.0,3.0,-4.0,-1.0,-2.0,1651024381671833.0,3
1705,-7.0,-5.0,-2.0,-1.0,-6.0,-1.0,-1.0,-4.0,1651024381671833.0,3
1706,4.0,17.0,-2.0,-2.0,-5.0,-7.0,-1.0,3.0,1651024381686793.0,3
1707,0.0,-4.0,-4.0,-5.0,4.0,3.0,1.0,1.0,1651024381686793.0,3
1708,-3.0,-18.0,-5.0,1.0,0.0,-4.0,-1.0,2.0,1651024381688789.0,3
1709,1.0,26.0,5.0,3.0,2.0,3.0,-2.0,-3.0,1651024381688789.0,3
1710,0.0,-15.0,0.0,1.0,3.0,1.0,-2.0,0.0,1651024381709846.0,3
1711,-6.0,-3.0,-8.0,-4.0,-6.0,2.0,0.0,-3.0,1651024381709846.0,3
1712,4.0,9.0,3.0,-2.0,2.0,-2.0,0.0,2.0,1651024381710846.0,3
1713,-3.0,-5.0,-1.0,-1.0,-2.0,-3.0,0.0,1.0,1651024381710846.0,3
1714,2.0,5.0,0.0,-1.0,-2.0,-4.0,-1.0,0.0,1651024381722924.0,3
1715,-3.0,-3.0,-5.0,-2.0,-1.0,1.0,-1.0,-4.0,1651024381722924.0,3
1716,-1.0,-2.0,1.0,0.0,3.0,-3.0,-2.0,0.0,1651024381731892.0,3
1717,-3.0,-22.0,-1.0,0.0,-9.0,1.0,0.0,1.0,1651024381731892.0,3
1718,9.0,13.0,5.0,5.0,13.0,0.0,0.0,4.0,1651024381747266.0,3
1719,-11.0,-16.0,-7.0,0.0,-4.0,0.0,-1.0,-4.0,1651024381747266.0,3
1720,2.0,-9.0,-5.0,-3.0,3.0,0.0,-1.0,-1.0,1651024381748224.0,3
1721,1.0,-6.0,1.0,-4.0,-5.0,-1.0,2.0,1.0,1651024381748224.0,3
1722,-3.0,-2.0,-1.0,2.0,-3.0,-2.0,0.0,-2.0,1651024381769926.0,3
1723,-2.0,4.0,-2.0,0.0,1.0,0.0,0.0,0.0,1651024381769926.0,3
1724,1.0,4.0,0.0,0.0,0.0,0.0,0.0,0.0,1651024381770886.0,3
1725,-2.0,-3.0,1.0,-1.0,0.0,-2.0,1.0,0.0,1651024381770886.0,3
1726,-10.0,-29.0,-11.0,-4.0,-6.0,-3.0,-1.0,-2.0,1651024381783334.0,3
1727,10.0,18.0,8.0,1.0,5.0,3.0,1.0,3.0,1651024381783334.0,3
1728,-4.0,0.0,-4.0,-2.0,2.0,-2.0,-2.0,-4.0,1651024381792312.0,3
1729,-4.0,-2.0,0.0,0.0,-13.0,-6.0,-4.0,-1.0,1651024381792312.0,3
1730,-5.0,-4.0,-4.0,-2.0,12.0,5.0,-2.0,-3.0,1651024381807340.0,3
1731,-3.0,-26.0,-5.0,-1.0,-3.0,0.0,0.0,-1.0,1651024381807340.0,3
1732,8.0,20.0,7.0,0.0,-3.0,-3.0,0.0,2.0,1651024381808269.0,3
1733,7.0,23.0,6.0,3.0,3.0,0.0,2.0,1.0,1651024381808269.0,3
1734,-11.0,-45.0,-10.0,-3.0,-8.0,-4.0,-3.0,-3.0,1651024381829404.0,3
1735,8.0,29.0,4.0,1.0,0.0,1.0,-1.0,2.0,1651024381829404.0,3
1736,-5.0,-25.0,-3.0,1.0,2.0,1.0,0.0,0.0,1651024381831358.0,3
1737,0.0,1.0,-1.0,1.0,5.0,1.0,-1.0,0.0,1651024381831358.0,3
1738,6.0,18.0,0.0,-3.0,-7.0,-1.0,2.0,2.0,1651024381852427.0,3
1739,-5.0,-5.0,0.0,-2.0,-8.0,-5.0,1.0,-1.0,1651024381852427.0,3
1740,-1.0,11.0,1.0,6.0,19.0,5.0,0.0,-1.0,1651024381853426.0,3
1741,0.0,-3.0,-1.0,-3.0,0.0,1.0,-1.0,1.0,1651024381853426.0,3
1742,4.0,16.0,5.0,3.0,-2.0,0.0,0.0,0.0,1651024381867360.0,3
1743,2.0,4.0,1.0,-3.0,-6.0,-3.0,-1.0,0.0,1651024381867360.0,3
1744,-1.0,5.0,1.0,-1.0,-5.0,-2.0,-1.0,-1.0,1651024381868896.0,3
1745,4.0,-1.0,0.0,1.0,5.0,2.0,0.0,1.0,1651024381868896.0,3
1746,1.0,8.0,0.0,-7.0,-5.0,0.0,0.0,-1.0,1651024381889880.0,3
1747,0.0,4.0,-5.0,-1.0,3.0,-1.0,-1.0,0.0,1651024381889880.0,3
1748,3.0,3.0,6.0,2.0,-3.0,0.0,-1.0,1.0,1651024381890811.0,3
1749,-8.0,-19.0,-4.0,-7.0,-4.0,-3.0,-4.0,-4.0,1651024381890811.0,3
1750,2.0,9.0,3.0,11.0,2.0,1.0,0.0,0.0,1651024381911976.0,3
1751,-4.0,-3.0,-2.0,-2.0,4.0,0.0,1.0,-2.0,1651024381911976.0,3
1752,-2.0,-8.0,-4.0,0.0,5.0,4.0,-1.0,-2.0,1651024381913903.0,3
1753,-2.0,-14.0,-2.0,1.0,0.0,-2.0,0.0,0.0,1651024381913903.0,3
1754,3.0,-6.0,-5.0,-6.0,-5.0,-2.0,0.0,-1.0,1651024381926932.0,3
1755,-4.0,18.0,0.0,-1.0,-4.0,-2.0,-4.0,-4.0,1651024381926932.0,3
1756,0.0,-6.0,-2.0,-2.0,-3.0,-2.0,-1.0,0.0,1651024381928891.0,3
1757,-5.0,-1.0,-2.0,-1.0,3.0,2.0,1.0,-3.0,1651024381928891.0,3
1758,6.0,4.0,4.0,1.0,-4.0,-2.0,-1.0,3.0,1651024381949818.0,3
1759,-1.0,-3.0,0.0,2.0,6.0,1.0,1.0,0.0,1651024381949818.0,3
1760,-2.0,6.0,1.0,0.0,-6.0,-2.0,2.0,0.0,1651024381950847.0,3
1761,-2.0,-8.0,-4.0,0.0,1.0,0.0,-1.0,-1.0,1651024381950847.0,3
1762,0.0,2.0,1.0,2.0,2.0,-1.0,-1.0,0.0,1651024381971750.0,3
1763,5.0,30.0,0.0,-3.0,-4.0,1.0,-4.0,0.0,1651024381971750.0,3
1764,-11.0,-2.0,-1.0,-1.0,-1.0,-1.0,-3.0,-4.0,1651024381973743.0,3
1765,0.0,-9.0,2.0,3.0,0.0,-1.0,0.0,0.0,1651024381973743.0,3
1766,-3.0,10.0,0.0,-2.0,0.0,0.0,-2.0,-3.0,1651024381986732.0,3
1767,1.0,-4.0,-1.0,-5.0,-11.0,0.0,1.0,2.0,1651024381986732.0,3
1768,4.0,-4.0,-1.0,0.0,10.0,-2.0,0.0,0.0,1651024381992755.0,3
1769,-4.0,-16.0,-3.0,4.0,5.0,1.0,-1.0,-1.0,1651024381992755.0,3
1770,1.0,28.0,2.0,-2.0,-5.0,-1.0,-1.0,-1.0,1651024382009994.0,3
1771,1.0,-9.0,0.0,1.0,3.0,0.0,0.0,0.0,1651024382009994.0,3
1772,4.0,15.0,0.0,-2.0,-8.0,-3.0,-2.0,1.0,1651024382010931.0,3
1773,-5.0,-38.0,-6.0,-5.0,-2.0,-3.0,-2.0,-2.0,1651024382010931.0,3
1774,5.0,12.0,1.0,-1.0,-1.0,-2.0,-1.0,1.0,1651024382039892.0,3
1775,-1.0,-11.0,-3.0,-2.0,0.0,-1.0,-1.0,1.0,1651024382039892.0,3
1776,-2.0,5.0,2.0,0.0,1.0,1.0,0.0,-1.0,1651024382040888.0,3
1777,0.0,-5.0,-3.0,-3.0,0.0,-2.0,-1.0,-3.0,1651024382040888.0,3
1778,0.0,6.0,0.0,-1.0,-2.0,0.0,1.0,1.0,1651024382045905.0,3
1779,1.0,-8.0,0.0,2.0,1.0,-1.0,0.0,0.0,1651024382045905.0,3
1780,-2.0,-4.0,-3.0,-1.0,-10.0,-5.0,-2.0,-1.0,1651024382052856.0,3
1781,2.0,8.0,4.0,2.0,10.0,7.0,0.0,1.0,1651024382052856.0,3
1782,2.0,-15.0,0.0,-1.0,-1.0,-2.0,0.0,1.0,1651024382069842.0,3
1783,-1.0,5.0,-6.0,-2.0,1.0,-1.0,2.0,-3.0,1651024382069842.0,3
1784,0.0,-8.0,-1.0,-1.0,-4.0,-1.0,-2.0,0.0,1651024382070813.0,3
1785,0.0,15.0,-1.0,-2.0,-16.0,-3.0,0.0,-3.0,1651024382070813.0,3
1786,-2.0,-1.0,-2.0,-2.0,12.0,1.0,-3.0,-2.0,1651024382091780.0,3
1787,-1.0,0.0,1.0,3.0,3.0,0.0,0.0,2.0,1651024382091780.0,3
1788,-2.0,-7.0,-2.0,-1.0,-1.0,2.0,0.0,0.0,1651024382093747.0,3
1789,2.0,13.0,0.0,1.0,-1.0,-2.0,0.0,0.0,1651024382093747.0,3
1790,-1.0,10.0,2.0,0.0,-3.0,1.0,0.0,-1.0,1651024382106831.0,3
1791,-1.0,-10.0,-2.0,-2.0,-1.0,-2.0,1.0,-3.0,1651024382106831.0,3
1792,2.0,-5.0,-1.0,-2.0,-1.0,0.0,-2.0,-2.0,1651024382113334.0,3
1793,-4.0,12.0,-1.0,-3.0,-1.0,-1.0,0.0,-2.0,1651024382113334.0,3
1794,-7.0,-8.0,-4.0,-4.0,-6.0,-2.0,-1.0,-3.0,1651024382129566.0,3
1795,1.0,2.0,1.0,0.0,2.0,1.0,0.0,0.0,1651024382129566.0,3
1796,5.0,20.0,5.0,1.0,-1.0,-1.0,-1.0,-1.0,1651024382131497.0,3
1797,1.0,-8.0,-3.0,1.0,-1.0,1.0,2.0,0.0,1651024382131497.0,3
1798,-16.0,-25.0,-2.0,0.0,1.0,-1.0,-2.0,-5.0,1651024382152459.0,3
1799,-9.0,-4.0,-2.0,-1.0,0.0,-1.0,0.0,-2.0,1651024382152459.0,3
1800,0.0,17.0,2.0,-3.0,1.0,0.0,-3.0,-2.0,1651024382153464.0,3
1801,-1.0,-4.0,0.0,2.0,-2.0,-2.0,0.0,1.0,1651024382153464.0,3
1802,5.0,13.0,2.0,-2.0,-1.0,-2.0,-1.0,-2.0,1651024382166491.0,3
1803,1.0,-4.0,2.0,1.0,-1.0,0.0,0.0,-1.0,1651024382166491.0,3
1804,-3.0,-18.0,-7.0,-7.0,-18.0,-5.0,-1.0,0.0,1651024382173405.0,3
1805,0.0,23.0,1.0,3.0,25.0,5.0,1.0,2.0,1651024382173405.0,3
1806,-6.0,-22.0,-5.0,0.0,-3.0,-1.0,1.0,-2.0,1651024382189367.0,3
1807,1.0,-1.0,2.0,0.0,-3.0,-1.0,-2.0,2.0,1651024382189367.0,3
1808,3.0,6.0,-1.0,-1.0,-3.0,-2.0,2.0,0.0,1651024382191384.0,3
1809,2.0,-1.0,-1.0,-3.0,-9.0,-3.0,0.0,-1.0,1651024382191384.0,3
1810,6.0,6.0,0.0,0.0,4.0,1.0,1.0,1.0,1651024382212068.0,3
1811,-11.0,-22.0,-6.0,-3.0,-1.0,-2.0,-2.0,-4.0,1651024382212068.0,3
1812,-3.0,-13.0,-2.0,1.0,1.0,0.0,-1.0,-1.0,1651024382213066.0,3
1813,1.0,0.0,0.0,0.0,-1.0,-1.0,-2.0,-2.0,1651024382213066.0,3
1814,1.0,1.0,0.0,1.0,1.0,1.0,0.0,1.0,1651024382226185.0,3
1815,3.0,6.0,0.0,1.0,-2.0,-2.0,-1.0,-1.0,1651024382226185.0,3
1816,-2.0,-5.0,-4.0,-3.0,0.0,-1.0,1.0,0.0,1651024382233283.0,3
1817,-3.0,-6.0,-4.0,0.0,4.0,1.0,0.0,-1.0,1651024382233283.0,3
1818,4.0,24.0,9.0,5.0,-2.0,1.0,2.0,2.0,1651024382249138.0,3
1819,5.0,16.0,3.0,1.0,-1.0,1.0,-2.0,1.0,1651024382249138.0,3
1820,2.0,-21.0,-2.0,2.0,5.0,2.0,1.0,0.0,1651024382251101.0,3
1821,-10.0,44.0,2.0,-5.0,-9.0,-6.0,-3.0,-6.0,1651024382251101.0,3
1822,-3.0,-14.0,-5.0,-2.0,-4.0,-3.0,-1.0,-1.0,1651024382272070.0,3
1823,-1.0,-3.0,-2.0,0.0,3.0,1.0,0.0,-1.0,1651024382272070.0,3
1824,1.0,8.0,2.0,1.0,4.0,1.0,0.0,1.0,1651024382273042.0,3
1825,8.0,-1.0,-2.0,-1.0,-2.0,-1.0,1.0,1.0,1651024382273042.0,3
1826,-8.0,-18.0,-3.0,-4.0,-3.0,-2.0,-1.0,-2.0,1651024382286124.0,3
1827,2.0,25.0,6.0,0.0,3.0,-1.0,-1.0,0.0,1651024382286124.0,3
1828,0.0,1.0,-1.0,0.0,-4.0,-1.0,-2.0,0.0,1651024382293167.0,3
1829,0.0,-15.0,-2.0,-2.0,-2.0,-1.0,-2.0,0.0,1651024382293167.0,3
1830,1.0,6.0,-2.0,0.0,11.0,1.0,-1.0,-2.0,1651024382309996.0,3
1831,1.0,-7.0,0.0,4.0,-5.0,2.0,0.0,-1.0,1651024382309996.0,3
1832,-3.0,-3.0,2.0,0.0,4.0,1.0,1.0,1.0,1651024382310976.0,3
1833,2.0,-4.0,3.0,1.0,-4.0,1.0,0.0,1.0,1651024382310976.0,3
1834,0.0,-1.0,-3.0,-2.0,-4.0,-2.0,-1.0,-2.0,1651024382331942.0,3
1835,0.0,-1.0,-4.0,-3.0,1.0,-1.0,0.0,0.0,1651024382331942.0,3
1836,-1.0,6.0,1.0,2.0,-2.0,1.0,-2.0,-3.0,1651024382333950.0,3
1837,-3.0,-15.0,1.0,3.0,2.0,0.0,-1.0,0.0,1651024382333950.0,3
1838,1.0,3.0,-2.0,0.0,-1.0,0.0,0.0,0.0,1651024382345890.0,3
1839,0.0,-6.0,-3.0,-1.0,-5.0,-2.0,0.0,0.0,1651024382345890.0,3
1840,-3.0,-3.0,-2.0,-1.0,6.0,2.0,-2.0,-2.0,1651024382354866.0,3
1841,7.0,17.0,3.0,-1.0,-3.0,-2.0,-1.0,0.0,1651024382354866.0,3
1842,0.0,-8.0,1.0,1.0,0.0,2.0,0.0,0.0,1651024382369828.0,3
1843,1.0,2.0,-1.0,-3.0,-1.0,2.0,0.0,0.0,1651024382369828.0,3
1844,-2.0,-5.0,-3.0,0.0,1.0,-1.0,0.0,0.0,1651024382370824.0,3
1845,-7.0,-3.0,-2.0,-3.0,-4.0,0.0,-3.0,-3.0,1651024382370824.0,3
1846,4.0,-6.0,-2.0,4.0,9.0,0.0,1.0,1.0,1651024382391767.0,3
1847,6.0,19.0,5.0,-1.0,-7.0,-1.0,0.0,-2.0,1651024382391767.0,3
1848,1.0,2.0,-1.0,-2.0,0.0,-1.0,1.0,0.0,1651024382393764.0,3
1849,-1.0,-10.0,2.0,5.0,-1.0,-1.0,0.0,-1.0,1651024382393764.0,3
1850,0.0,3.0,2.0,1.0,-7.0,-1.0,1.0,0.0,1651024382405731.0,3
1851,1.0,1.0,-2.0,0.0,5.0,2.0,-1.0,2.0,1651024382405731.0,3
1852,-5.0,-12.0,-4.0,-4.0,-1.0,-1.0,-2.0,-2.0,1651024382414707.0,3
1853,2.0,7.0,0.0,-5.0,-2.0,-2.0,0.0,1.0,1651024382414707.0,3
1854,-1.0,0.0,2.0,4.0,-1.0,0.0,-1.0,-3.0,1651024382429668.0,3
1855,-2.0,-8.0,-2.0,0.0,4.0,1.0,1.0,-2.0,1651024382429668.0,3
1856,1.0,0.0,-1.0,0.0,-6.0,-3.0,-2.0,-1.0,1651024382430664.0,3
1857,-2.0,-15.0,-2.0,-2.0,2.0,0.0,-1.0,-2.0,1651024382430664.0,3
1858,1.0,11.0,0.0,-6.0,-2.0,1.0,0.0,2.0,1651024382451609.0,3
1859,-5.0,-21.0,-3.0,0.0,0.0,-1.0,-3.0,-3.0,1651024382451609.0,3
1860,-1.0,1.0,0.0,0.0,0.0,-1.0,2.0,-2.0,1651024382453603.0,3
1861,2.0,0.0,0.0,2.0,-3.0,0.0,1.0,-1.0,1651024382453603.0,3
1862,-3.0,-8.0,-1.0,-1.0,2.0,-1.0,0.0,1.0,1651024382465572.0,3
1863,-2.0,-3.0,1.0,-1.0,-3.0,-4.0,0.0,0.0,1651024382465572.0,3
1864,4.0,19.0,1.0,1.0,-11.0,-4.0,-2.0,-1.0,1651024382474553.0,3
1865,3.0,-11.0,-2.0,4.0,22.0,6.0,2.0,2.0,1651024382474553.0,3
1866,-1.0,7.0,1.0,1.0,-6.0,0.0,1.0,-2.0,1651024382489022.0,3
1867,-3.0,-10.0,-2.0,-1.0,-3.0,0.0,-2.0,2.0,1651024382489022.0,3
1868,-3.0,-13.0,-4.0,-2.0,3.0,1.0,0.0,0.0,1651024382490954.0,3
1869,-1.0,4.0,-8.0,-9.0,-10.0,-5.0,-2.0,-3.0,1651024382490954.0,3
1870,0.0,7.0,-2.0,-6.0,-4.0,-2.0,-4.0,-1.0,1651024382512006.0,3
1871,1.0,2.0,1.0,7.0,7.0,0.0,1.0,1.0,1651024382512006.0,3
1872,-2.0,-4.0,3.0,0.0,-3.0,-1.0,-2.0,0.0,1651024382514005.0,3
1873,2.0,4.0,2.0,-1.0,-2.0,-2.0,0.0,1.0,1651024382514005.0,3
1874,0.0,-4.0,-7.0,-7.0,-4.0,-3.0,-3.0,-3.0,1651024382525995.0,3
1875,-4.0,-7.0,-1.0,-1.0,0.0,0.0,-1.0,-2.0,1651024382525995.0,3
1876,-2.0,-22.0,-7.0,-6.0,2.0,0.0,-1.0,0.0,1651024382534948.0,3
1877,-3.0,8.0,3.0,2.0,-20.0,-5.0,-1.0,-1.0,1651024382534948.0,3
1878,-4.0,-8.0,-5.0,-9.0,9.0,4.0,0.0,-2.0,1651024382549140.0,3
1879,3.0,5.0,0.0,2.0,4.0,0.0,0.0,1.0,1651024382549140.0,3
1880,0.0,-6.0,5.0,11.0,11.0,2.0,1.0,1.0,1651024382551069.0,3
1881,0.0,-6.0,-7.0,-15.0,-8.0,-2.0,-1.0,0.0,1651024382551069.0,3
1882,0.0,-8.0,0.0,8.0,-6.0,-4.0,1.0,-1.0,1651024382572256.0,3
1883,4.0,15.0,3.0,2.0,-1.0,0.0,-1.0,2.0,1651024382572256.0,3
1884,-7.0,-6.0,-8.0,-14.0,-5.0,-6.0,-3.0,-5.0,1651024382573192.0,3
1885,1.0,9.0,6.0,7.0,7.0,2.0,-1.0,-1.0,1651024382573192.0,3
1886,1.0,3.0,-5.0,-7.0,-4.0,1.0,-1.0,-1.0,1651024382585227.0,3
1887,1.0,-4.0,-4.0,1.0,4.0,-1.0,-1.0,-1.0,1651024382585227.0,3
