,EMG_s0,EMG_s1,EMG_s2,EMG_s3,EMG_s4,EMG_s5,EMG_s6,EMG_s7,timestamp,signal
0,0.0,0.0,2.0,1.0,-1.0,5.0,1.0,-1.0,1650823520553049.0,0
1,-1.0,-1.0,0.0,-2.0,2.0,1.0,-1.0,0.0,1650823520553049.0,0
2,-1.0,1.0,0.0,3.0,4.0,9.0,-1.0,-1.0,1650823520553049.0,0
3,0.0,-1.0,-6.0,-4.0,-3.0,-13.0,-2.0,-2.0,1650823520553049.0,0
4,-2.0,-1.0,1.0,-4.0,-7.0,-6.0,-1.0,-2.0,1650823520557005.0,0
5,-1.0,-1.0,-5.0,1.0,2.0,3.0,1.0,-1.0,1650823520557005.0,0
6,-1.0,-2.0,-2.0,-1.0,15.0,6.0,1.0,-1.0,1650823520558975.0,0
7,-1.0,-1.0,8.0,2.0,-9.0,0.0,-1.0,0.0,1650823520558975.0,0
8,1.0,0.0,-4.0,-1.0,2.0,2.0,2.0,-1.0,1650823520562959.0,0
9,0.0,1.0,7.0,2.0,2.0,-2.0,0.0,-2.0,1650823520562959.0,0
10,0.0,-2.0,-3.0,-3.0,0.0,0.0,-1.0,0.0,1650823520574933.0,0
11,-3.0,-4.0,-7.0,-3.0,-5.0,-4.0,-2.0,-1.0,1650823520574933.0,0
12,0.0,1.0,8.0,3.0,6.0,2.0,0.0,1.0,1650823520577918.0,0
13,-1.0,-1.0,4.0,-2.0,-5.0,-1.0,-2.0,0.0,1650823520577918.0,0
14,0.0,0.0,-3.0,-1.0,-6.0,-5.0,0.0,0.0,1650823520596896.0,0
15,-1.0,0.0,-3.0,-4.0,1.0,2.0,-2.0,-2.0,1650823520596896.0,0
16,-1.0,-2.0,-7.0,-1.0,5.0,0.0,-1.0,-1.0,1650823520600858.0,0
17,0.0,-2.0,-1.0,0.0,-13.0,-4.0,1.0,-2.0,1650823520600858.0,0
18,2.0,3.0,0.0,1.0,-7.0,-5.0,-3.0,0.0,1650823520624699.0,0
19,-2.0,-1.0,-8.0,-11.0,-4.0,-1.0,1.0,-1.0,1650823520624699.0,0
20,-1.0,0.0,0.0,0.0,6.0,2.0,-1.0,-1.0,1650823520626694.0,0
21,0.0,-1.0,-2.0,2.0,4.0,0.0,-1.0,2.0,1650823520626694.0,0
22,-2.0,-3.0,-5.0,-6.0,-6.0,-5.0,1.0,-2.0,1650823520639639.0,0
23,1.0,0.0,5.0,5.0,4.0,6.0,2.0,0.0,1650823520639639.0,0
24,-1.0,-4.0,-2.0,3.0,2.0,-1.0,1.0,0.0,1650823520679771.0,0
25,-1.0,1.0,-3.0,-2.0,1.0,-1.0,1.0,0.0,1650823520679771.0,0
26,0.0,-1.0,-3.0,-2.0,-1.0,10.0,0.0,-1.0,1650823520680764.0,0
27,-1.0,-1.0,0.0,-5.0,-10.0,-17.0,-3.0,-2.0,1650823520680764.0,0
28,-1.0,-1.0,-1.0,-3.0,-9.0,-2.0,-4.0,-1.0,1650823520683756.0,0
29,-1.0,-1.0,0.0,3.0,5.0,3.0,1.0,-2.0,1650823520683756.0,0
30,-1.0,2.0,3.0,5.0,9.0,5.0,2.0,0.0,1650823520684754.0,0
31,1.0,-2.0,-3.0,3.0,2.0,1.0,1.0,-1.0,1650823520684754.0,0
32,0.0,0.0,-3.0,-4.0,0.0,0.0,-2.0,0.0,1650823520691734.0,0
33,0.0,-1.0,0.0,-4.0,-9.0,-5.0,-3.0,-2.0,1650823520691734.0,0
34,0.0,-1.0,-2.0,-4.0,-5.0,-5.0,-1.0,0.0,1650823520697718.0,0
35,0.0,-1.0,0.0,0.0,4.0,6.0,1.0,0.0,1650823520697718.0,0
36,-1.0,0.0,0.0,-1.0,-5.0,-5.0,-1.0,-1.0,1650823520714673.0,0
37,-1.0,1.0,2.0,0.0,1.0,3.0,0.0,1.0,1650823520714673.0,0
38,-1.0,-1.0,-5.0,0.0,-1.0,-3.0,0.0,0.0,1650823520720656.0,0
39,-1.0,1.0,5.0,4.0,-4.0,1.0,2.0,-1.0,1650823520720656.0,0
40,2.0,1.0,-5.0,2.0,10.0,6.0,2.0,-1.0,1650823520729633.0,0
41,0.0,-1.0,1.0,-1.0,3.0,-6.0,-1.0,1.0,1650823520729633.0,0
42,-1.0,-4.0,-3.0,-5.0,-8.0,-10.0,-4.0,-1.0,1650823520751573.0,0
43,-2.0,-1.0,2.0,-3.0,0.0,3.0,0.0,1.0,1650823520751573.0,0
44,-1.0,2.0,4.0,4.0,3.0,1.0,0.0,0.0,1650823520753569.0,0
45,0.0,1.0,1.0,5.0,6.0,3.0,-1.0,0.0,1650823520753569.0,0
46,0.0,-1.0,-2.0,1.0,-6.0,-3.0,-1.0,-1.0,1650823520774533.0,0
47,-1.0,-1.0,0.0,-5.0,-5.0,-6.0,-2.0,-2.0,1650823520774533.0,0
48,0.0,-1.0,2.0,1.0,-4.0,3.0,2.0,-1.0,1650823520775521.0,0
49,1.0,0.0,0.0,2.0,7.0,2.0,0.0,1.0,1650823520775521.0,0
50,0.0,-1.0,2.0,-3.0,1.0,-3.0,0.0,-2.0,1650823520789542.0,0
51,-1.0,0.0,0.0,3.0,1.0,-1.0,-1.0,-1.0,1650823520789542.0,0
52,0.0,1.0,-3.0,0.0,3.0,-2.0,-1.0,-1.0,1650823520790471.0,0
53,-1.0,-3.0,3.0,-3.0,-9.0,-5.0,-3.0,-4.0,1650823520790471.0,0
54,0.0,-1.0,-4.0,-2.0,-1.0,-1.0,-1.0,0.0,1650823520811695.0,0
55,-1.0,0.0,-4.0,-1.0,0.0,1.0,-2.0,1.0,1650823520811695.0,0
56,-1.0,-1.0,-1.0,0.0,6.0,1.0,0.0,0.0,1650823520813670.0,0
57,-2.0,-2.0,0.0,-1.0,-8.0,-2.0,-1.0,0.0,1650823520813670.0,0
58,0.0,1.0,0.0,-1.0,-4.0,0.0,-1.0,0.0,1650823520834789.0,0
59,1.0,0.0,0.0,-1.0,11.0,2.0,-2.0,0.0,1650823520834789.0,0
60,-1.0,-1.0,-1.0,0.0,-9.0,3.0,0.0,-1.0,1650823520836746.0,0
61,2.0,2.0,-2.0,0.0,3.0,-9.0,-1.0,-1.0,1650823520836746.0,0
62,-2.0,-4.0,-3.0,-2.0,-4.0,-6.0,-3.0,0.0,1650823520848723.0,0
63,-1.0,1.0,-1.0,4.0,4.0,3.0,1.0,0.0,1650823520848723.0,0
64,0.0,-2.0,3.0,-1.0,-3.0,-4.0,-2.0,-1.0,1650823520855770.0,0
65,-1.0,-2.0,-6.0,-1.0,1.0,7.0,1.0,-1.0,1650823520855770.0,0
66,-1.0,-1.0,-5.0,-3.0,-6.0,-3.0,-2.0,-1.0,1650823520872827.0,0
67,-2.0,0.0,9.0,0.0,-11.0,-9.0,-1.0,-1.0,1650823520872827.0,0
68,0.0,1.0,3.0,-1.0,3.0,2.0,0.0,-2.0,1650823520873797.0,0
69,-2.0,0.0,8.0,-1.0,-3.0,2.0,0.0,-1.0,1650823520873797.0,0
70,1.0,3.0,-1.0,5.0,11.0,6.0,3.0,-1.0,1650823520894706.0,0
71,1.0,0.0,-3.0,3.0,4.0,2.0,1.0,0.0,1650823520894706.0,0
72,-3.0,-2.0,1.0,0.0,-1.0,0.0,0.0,-2.0,1650823520896070.0,0
73,-1.0,-2.0,-8.0,-10.0,-9.0,-6.0,-3.0,-2.0,1650823520896070.0,0
74,-1.0,1.0,7.0,-1.0,1.0,-2.0,-3.0,-2.0,1650823520909110.0,0
75,0.0,-2.0,-4.0,-2.0,-6.0,3.0,1.0,-1.0,1650823520909110.0,0
76,0.0,0.0,-7.0,1.0,5.0,1.0,2.0,3.0,1650823520915097.0,0
77,2.0,1.0,-1.0,4.0,1.0,0.0,-1.0,0.0,1650823520915097.0,0
78,-2.0,-5.0,-7.0,-9.0,-6.0,-3.0,-1.0,0.0,1650823520932316.0,0
79,-2.0,-3.0,-3.0,-5.0,0.0,-3.0,-3.0,-1.0,1650823520932316.0,0
80,0.0,-1.0,-2.0,0.0,-4.0,-1.0,0.0,0.0,1650823520933317.0,0
81,-1.0,1.0,6.0,6.0,8.0,11.0,3.0,-1.0,1650823520933317.0,0
82,0.0,2.0,5.0,5.0,16.0,19.0,2.0,1.0,1650823520954224.0,0
83,-1.0,-1.0,-3.0,-5.0,-17.0,-21.0,-2.0,-1.0,1650823520954224.0,0
84,0.0,-1.0,2.0,-4.0,-4.0,-5.0,-2.0,-1.0,1650823520956221.0,0
85,-1.0,0.0,0.0,-2.0,-2.0,-3.0,1.0,0.0,1650823520956221.0,0
86,0.0,-2.0,5.0,5.0,7.0,9.0,3.0,-1.0,1650823520969193.0,0
87,0.0,0.0,-2.0,-1.0,6.0,2.0,-1.0,-1.0,1650823520969193.0,0
88,-1.0,1.0,0.0,-2.0,-4.0,-3.0,0.0,1.0,1650823520975236.0,0
89,0.0,-1.0,-2.0,1.0,-4.0,-1.0,0.0,-1.0,1650823520975236.0,0
90,-4.0,0.0,-1.0,0.0,0.0,-1.0,-1.0,-2.0,1650823520993331.0,0
91,-2.0,-1.0,-1.0,0.0,0.0,2.0,-1.0,0.0,1650823520993331.0,0
92,2.0,2.0,3.0,4.0,-5.0,-4.0,0.0,-1.0,1650823520994331.0,0
93,1.0,-1.0,1.0,-3.0,2.0,2.0,-2.0,-1.0,1650823520994331.0,0
94,-1.0,0.0,-4.0,-1.0,-8.0,-6.0,-1.0,1.0,1650823521014492.0,0
95,-2.0,-1.0,-1.0,0.0,13.0,5.0,-1.0,-3.0,1650823521014492.0,0
96,0.0,1.0,2.0,-2.0,-5.0,-1.0,-2.0,0.0,1650823521015458.0,0
97,-4.0,-2.0,2.0,-3.0,-3.0,-1.0,0.0,-1.0,1650823521015458.0,0
98,0.0,1.0,4.0,3.0,-2.0,-4.0,1.0,-2.0,1650823521036556.0,0
99,1.0,1.0,-5.0,-1.0,4.0,4.0,1.0,2.0,1650823521036556.0,0
100,0.0,-5.0,-8.0,0.0,8.0,6.0,-2.0,0.0,1650823521038491.0,0
101,1.0,-2.0,-4.0,-1.0,10.0,-3.0,-2.0,-2.0,1650823521038491.0,0
102,-1.0,2.0,3.0,1.0,-18.0,-10.0,0.0,0.0,1650823521051522.0,0
103,0.0,-1.0,0.0,-1.0,1.0,3.0,1.0,0.0,1650823521051522.0,0
104,0.0,0.0,0.0,0.0,-2.0,-1.0,-1.0,-1.0,1650823521053451.0,0
105,0.0,0.0,-1.0,1.0,4.0,0.0,-1.0,0.0,1650823521053451.0,0
106,-3.0,-1.0,-1.0,0.0,2.0,-2.0,0.0,-1.0,1650823521074171.0,0
107,2.0,1.0,4.0,4.0,-3.0,2.0,0.0,0.0,1650823521074171.0,0
108,-1.0,-3.0,0.0,-6.0,-2.0,2.0,-3.0,-2.0,1650823521076100.0,0
109,0.0,-1.0,-5.0,-4.0,-4.0,-10.0,-1.0,-3.0,1650823521076100.0,0
110,2.0,1.0,2.0,-1.0,-4.0,-8.0,0.0,-1.0,1650823521089066.0,0
111,-1.0,-1.0,-2.0,-2.0,-11.0,0.0,-1.0,0.0,1650823521089066.0,0
112,-1.0,1.0,1.0,2.0,5.0,-3.0,1.0,0.0,1650823521095063.0,0
113,0.0,-2.0,-1.0,0.0,1.0,6.0,-1.0,0.0,1650823521095063.0,0
114,-2.0,-3.0,-6.0,0.0,4.0,4.0,-1.0,-1.0,1650823521112155.0,0
115,0.0,0.0,-6.0,-8.0,-6.0,-3.0,-1.0,0.0,1650823521112155.0,0
116,-2.0,-1.0,-6.0,-1.0,0.0,3.0,0.0,-1.0,1650823521114085.0,0
117,-1.0,-1.0,1.0,2.0,-4.0,0.0,2.0,0.0,1650823521114085.0,0
118,1.0,2.0,5.0,4.0,5.0,0.0,0.0,0.0,1650823521133925.0,0
119,-3.0,-2.0,2.0,2.0,6.0,6.0,0.0,0.0,1650823521133925.0,0
120,1.0,-1.0,2.0,1.0,9.0,-7.0,-3.0,-1.0,1650823521135920.0,0
121,-3.0,-2.0,-4.0,-7.0,-23.0,-6.0,0.0,-2.0,1650823521135920.0,0
122,0.0,-2.0,-1.0,-3.0,4.0,-1.0,-2.0,1.0,1650823521148997.0,0
123,1.0,2.0,3.0,6.0,4.0,3.0,2.0,0.0,1650823521148997.0,0
124,0.0,-2.0,-4.0,-1.0,-2.0,-1.0,1.0,2.0,1650823521155957.0,0
125,-1.0,1.0,2.0,3.0,2.0,3.0,1.0,-1.0,1650823521155957.0,0
126,-2.0,-1.0,-2.0,-3.0,-2.0,2.0,-1.0,-2.0,1650823521172342.0,0
127,-2.0,-2.0,-7.0,-4.0,-3.0,-3.0,-1.0,-3.0,1650823521172342.0,0
128,-2.0,1.0,1.0,-2.0,0.0,-1.0,-1.0,-1.0,1650823521173342.0,0
129,-1.0,-4.0,-3.0,-1.0,-7.0,4.0,-2.0,-1.0,1650823521173342.0,0
130,0.0,2.0,3.0,5.0,7.0,2.0,4.0,-1.0,1650823521194699.0,0
131,1.0,2.0,4.0,9.0,4.0,-2.0,-1.0,3.0,1650823521194699.0,0
132,-2.0,-4.0,-14.0,-11.0,-16.0,-8.0,-3.0,-2.0,1650823521195681.0,0
133,-1.0,-2.0,-3.0,-6.0,-6.0,-1.0,-4.0,-1.0,1650823521195681.0,0
134,1.0,-1.0,-1.0,-4.0,-1.0,-8.0,-3.0,0.0,1650823521207652.0,0
135,0.0,-1.0,-2.0,2.0,-1.0,-1.0,-1.0,-1.0,1650823521207652.0,0
136,1.0,4.0,13.0,10.0,8.0,5.0,4.0,1.0,1650823521216637.0,0
137,0.0,-3.0,-14.0,-2.0,0.0,-1.0,0.0,1.0,1650823521216637.0,0
138,-1.0,-2.0,1.0,0.0,-7.0,4.0,0.0,1.0,1650823521231650.0,0
139,0.0,1.0,-4.0,-5.0,-1.0,-5.0,0.0,-1.0,1650823521231650.0,0
140,-1.0,-2.0,7.0,7.0,-4.0,-2.0,-1.0,-1.0,1650823521233583.0,0
141,-1.0,0.0,-2.0,-2.0,4.0,-1.0,1.0,-1.0,1650823521233583.0,0
142,-2.0,-2.0,-1.0,-1.0,-2.0,-3.0,-1.0,-2.0,1650823521254799.0,0
143,-1.0,-3.0,0.0,-2.0,-2.0,2.0,-1.0,-1.0,1650823521254799.0,0
144,0.0,0.0,-1.0,-4.0,5.0,1.0,0.0,5.0,1650823521255799.0,0
145,1.0,0.0,-2.0,3.0,9.0,2.0,-2.0,-14.0,1650823521255799.0,0
146,1.0,1.0,2.0,2.0,-4.0,1.0,0.0,-2.0,1650823521268749.0,0
147,-1.0,2.0,6.0,3.0,7.0,1.0,1.0,-2.0,1650823521268749.0,0
148,0.0,-2.0,-6.0,-3.0,-10.0,0.0,0.0,-3.0,1650823521276718.0,0
149,-1.0,-1.0,3.0,3.0,1.0,-4.0,0.0,3.0,1650823521276718.0,0
150,0.0,1.0,12.0,1.0,-6.0,-4.0,-1.0,0.0,1650823521291743.0,0
151,0.0,-1.0,-2.0,-3.0,14.0,4.0,1.0,-1.0,1650823521291743.0,0
152,-3.0,-5.0,-7.0,-2.0,-5.0,-1.0,1.0,0.0,1650823521293673.0,0
153,0.0,1.0,2.0,-2.0,-2.0,-2.0,1.0,2.0,1650823521293673.0,0
154,1.0,-2.0,-2.0,-2.0,0.0,-4.0,-4.0,-1.0,1650823521314684.0,0
155,-2.0,0.0,6.0,0.0,-1.0,11.0,-2.0,0.0,1650823521314684.0,0
156,-1.0,3.0,0.0,5.0,1.0,-8.0,0.0,-3.0,1650823521315623.0,0
157,-1.0,0.0,5.0,-2.0,-4.0,1.0,2.0,4.0,1650823521315623.0,0
158,0.0,-1.0,-2.0,3.0,3.0,3.0,0.0,-3.0,1650823521327581.0,0
159,1.0,1.0,-4.0,0.0,-3.0,0.0,1.0,-1.0,1650823521327581.0,0
160,2.0,2.0,2.0,2.0,2.0,3.0,-3.0,0.0,1650823521336624.0,0
161,-4.0,-6.0,-35.0,-26.0,-12.0,0.0,-2.0,-3.0,1650823521336624.0,0
162,1.0,0.0,2.0,6.0,7.0,-2.0,3.0,2.0,1650823521351545.0,0
163,0.0,-3.0,-8.0,-5.0,2.0,-6.0,-2.0,-2.0,1650823521351545.0,0
164,-1.0,-2.0,2.0,0.0,-12.0,-2.0,-2.0,-1.0,1650823521353513.0,0
165,3.0,6.0,21.0,14.0,4.0,-6.0,3.0,5.0,1650823521353513.0,0
166,-2.0,-3.0,-10.0,-6.0,3.0,5.0,-3.0,0.0,1650823521374732.0,0
167,-3.0,-6.0,-10.0,-6.0,-18.0,-4.0,-2.0,8.0,1650823521374732.0,0
168,-2.0,-2.0,-5.0,-3.0,12.0,4.0,-2.0,-14.0,1650823521375686.0,0
169,4.0,6.0,9.0,5.0,7.0,3.0,-1.0,2.0,1650823521375686.0,0
170,-3.0,-3.0,3.0,6.0,-7.0,-6.0,-2.0,-4.0,1650823521387720.0,0
171,0.0,2.0,-1.0,5.0,-1.0,-4.0,2.0,2.0,1650823521387720.0,0
172,-2.0,-1.0,-1.0,-6.0,-2.0,1.0,1.0,4.0,1650823521396630.0,0
173,-2.0,-2.0,4.0,4.0,-2.0,-1.0,-3.0,-1.0,1650823521396630.0,0
174,-2.0,-8.0,-24.0,-13.0,-3.0,-1.0,-3.0,-3.0,1650823521411589.0,0
175,-1.0,0.0,12.0,3.0,-4.0,-2.0,-1.0,-5.0,1650823521411589.0,0
176,1.0,0.0,0.0,2.0,0.0,-1.0,-1.0,1.0,1650823521413584.0,0
177,0.0,3.0,2.0,9.0,13.0,8.0,2.0,1.0,1650823521413584.0,0
178,-1.0,3.0,13.0,4.0,-1.0,2.0,1.0,1.0,1650823521434083.0,0
179,0.0,-2.0,-2.0,-6.0,-9.0,-1.0,-3.0,-2.0,1650823521434083.0,0
180,0.0,-3.0,-5.0,-5.0,-5.0,-8.0,-3.0,-2.0,1650823521436091.0,0
181,-2.0,4.0,17.0,8.0,-1.0,-1.0,1.0,1.0,1650823521436091.0,0
182,-1.0,-4.0,-20.0,-3.0,-1.0,-3.0,-1.0,1.0,1650823521448111.0,0
183,0.0,-1.0,-6.0,-6.0,6.0,2.0,1.0,0.0,1650823521448111.0,0
184,-2.0,-1.0,3.0,-4.0,0.0,2.0,-1.0,0.0,1650823521456756.0,0
185,-2.0,0.0,4.0,1.0,-9.0,8.0,1.0,-3.0,1650823521456756.0,0
186,2.0,4.0,3.0,3.0,-3.0,-5.0,5.0,10.0,1650823521471866.0,0
187,1.0,1.0,5.0,3.0,4.0,-1.0,-5.0,-13.0,1650823521471866.0,0
188,1.0,0.0,2.0,4.0,4.0,-2.0,-1.0,0.0,1650823521473795.0,0
189,-1.0,-8.0,-9.0,-11.0,-1.0,-4.0,-3.0,-1.0,1650823521473795.0,0
190,1.0,2.0,2.0,-3.0,3.0,7.0,2.0,1.0,1650823521494759.0,0
191,-1.0,2.0,7.0,6.0,-1.0,1.0,2.0,3.0,1650823521494759.0,0
192,-3.0,-1.0,7.0,3.0,0.0,-3.0,-1.0,-2.0,1650823521495737.0,0
193,-3.0,-4.0,-19.0,-10.0,-7.0,-6.0,-3.0,-3.0,1650823521495737.0,0
194,1.0,-1.0,0.0,-2.0,8.0,8.0,1.0,-3.0,1650823521507703.0,0
195,1.0,2.0,12.0,3.0,-10.0,-12.0,-3.0,3.0,1650823521507703.0,0
196,-3.0,-4.0,-7.0,-5.0,-1.0,8.0,1.0,-2.0,1650823521516715.0,0
197,0.0,-1.0,-4.0,1.0,3.0,-4.0,-1.0,1.0,1650823521516715.0,0
198,-2.0,0.0,-5.0,-2.0,-4.0,2.0,0.0,-2.0,1650823521531763.0,0
199,0.0,-2.0,0.0,2.0,5.0,6.0,0.0,-1.0,1650823521531763.0,0
200,2.0,4.0,10.0,6.0,1.0,2.0,0.0,3.0,1650823521533758.0,0
201,0.0,-4.0,-8.0,4.0,5.0,-8.0,-2.0,-1.0,1650823521533758.0,0
202,-1.0,-8.0,-12.0,-8.0,-2.0,-3.0,-4.0,0.0,1650823521554748.0,0
203,-3.0,8.0,7.0,-4.0,-6.0,-9.0,-3.0,-3.0,1650823521554748.0,0
204,-1.0,-2.0,-2.0,-2.0,-3.0,-2.0,0.0,0.0,1650823521555761.0,0
205,2.0,3.0,6.0,4.0,6.0,4.0,0.0,1.0,1650823521555761.0,0
206,2.0,0.0,2.0,1.0,-5.0,0.0,-1.0,-2.0,1650823521567716.0,0
207,0.0,-5.0,-8.0,-3.0,-4.0,-2.0,0.0,2.0,1650823521567716.0,0
208,1.0,2.0,6.0,5.0,8.0,4.0,-1.0,0.0,1650823521582734.0,0
209,-2.0,-3.0,-22.0,-14.0,-10.0,0.0,0.0,-1.0,1650823521582734.0,0
210,-2.0,2.0,8.0,2.0,1.0,-2.0,0.0,1.0,1650823521599766.0,0
211,-1.0,-6.0,-4.0,2.0,0.0,-1.0,0.0,4.0,1650823521599766.0,0
212,1.0,2.0,-13.0,-1.0,0.0,5.0,-1.0,0.0,1650823521600761.0,0
213,-1.0,-7.0,0.0,0.0,-3.0,-7.0,1.0,0.0,1650823521600761.0,0
214,-1.0,-2.0,-18.0,-14.0,0.0,-4.0,-3.0,-4.0,1650823521614723.0,0
215,-3.0,-1.0,8.0,-3.0,-1.0,-2.0,0.0,-1.0,1650823521614723.0,0
216,-1.0,0.0,-1.0,10.0,-6.0,-1.0,3.0,0.0,1650823521615722.0,0
217,1.0,3.0,26.0,13.0,2.0,5.0,0.0,-1.0,1650823521615722.0,0
218,1.0,1.0,-5.0,-1.0,8.0,2.0,2.0,4.0,1650823521627688.0,0
219,-3.0,-4.0,-9.0,-9.0,-1.0,-2.0,-1.0,-4.0,1650823521627688.0,0
220,-1.0,1.0,2.0,-5.0,-3.0,-1.0,-4.0,-1.0,1650823521636664.0,0
221,1.0,5.0,4.0,1.0,0.0,-1.0,-1.0,0.0,1650823521636664.0,0
222,1.0,4.0,12.0,17.0,-7.0,-5.0,-3.0,-1.0,1650823521659634.0,0
223,0.0,-7.0,-9.0,2.0,19.0,17.0,5.0,-3.0,1650823521659634.0,0
224,-4.0,-8.0,-27.0,-18.0,-1.0,4.0,1.0,2.0,1650823521660614.0,0
225,-1.0,4.0,10.0,7.0,4.0,-12.0,-5.0,-8.0,1650823521660614.0,0
226,1.0,2.0,-10.0,-3.0,-13.0,-7.0,-4.0,-3.0,1650823521674089.0,0
227,-6.0,-11.0,14.0,-6.0,-4.0,3.0,-2.0,-3.0,1650823521674089.0,0
228,3.0,-1.0,1.0,1.0,8.0,6.0,2.0,2.0,1650823521680102.0,0
229,0.0,-4.0,-22.0,-10.0,0.0,2.0,3.0,11.0,1650823521680102.0,0
230,1.0,6.0,16.0,9.0,0.0,2.0,-5.0,-10.0,1650823521704695.0,0
231,2.0,7.0,-1.0,9.0,1.0,3.0,4.0,-9.0,1650823521704695.0,0
232,-3.0,-8.0,-17.0,-12.0,-4.0,-5.0,-9.0,-2.0,1650823521705681.0,0
233,1.0,5.0,10.0,6.0,0.0,1.0,0.0,4.0,1650823521705681.0,0
234,2.0,5.0,16.0,2.0,1.0,-1.0,1.0,3.0,1650823521719712.0,0
235,0.0,-2.0,-32.0,-3.0,-5.0,-1.0,-1.0,3.0,1650823521719712.0,0
236,-4.0,-5.0,5.0,-3.0,1.0,0.0,2.0,-7.0,1650823521720653.0,0
237,0.0,2.0,9.0,10.0,4.0,5.0,-1.0,-3.0,1650823521720653.0,0
238,0.0,7.0,5.0,8.0,0.0,-4.0,-4.0,-5.0,1650823521732639.0,0
239,-3.0,-7.0,9.0,-10.0,-8.0,-6.0,-3.0,-12.0,1650823521732639.0,0
240,0.0,-4.0,0.0,-19.0,-8.0,-9.0,11.0,22.0,1650823521741661.0,0
241,0.0,-6.0,-12.0,-3.0,-1.0,0.0,-4.0,-5.0,1650823521741661.0,0
242,0.0,0.0,12.0,1.0,3.0,3.0,3.0,7.0,1650823521756548.0,0
243,-4.0,6.0,-4.0,-4.0,-8.0,-7.0,-9.0,-13.0,1650823521756548.0,0
244,6.0,15.0,-16.0,10.0,6.0,0.0,0.0,-6.0,1650823521758542.0,0
245,-7.0,-15.0,7.0,-15.0,-12.0,-4.0,0.0,7.0,1650823521758542.0,0
246,-2.0,-5.0,3.0,0.0,2.0,3.0,2.0,2.0,1650823521779659.0,0
247,3.0,-1.0,0.0,6.0,3.0,0.0,-3.0,2.0,1650823521779659.0,0
248,0.0,7.0,15.0,2.0,-3.0,-5.0,-3.0,1.0,1650823521780620.0,0
249,-4.0,2.0,-8.0,5.0,4.0,2.0,-3.0,-17.0,1650823521780620.0,0
250,7.0,8.0,8.0,6.0,9.0,10.0,12.0,2.0,1650823521792561.0,0
251,-1.0,-9.0,-12.0,-2.0,7.0,0.0,3.0,9.0,1650823521792561.0,0
252,-3.0,-9.0,-28.0,-12.0,-5.0,-4.0,0.0,-2.0,1650823521801536.0,0
253,1.0,4.0,12.0,1.0,-5.0,-4.0,-12.0,-14.0,1650823521801536.0,0
254,-4.0,-19.0,-36.0,-18.0,-4.0,-7.0,-7.0,-7.0,1650823521824691.0,0
255,6.0,22.0,31.0,7.0,-5.0,-1.0,5.0,8.0,1650823521824691.0,0
256,0.0,5.0,-2.0,7.0,4.0,5.0,1.0,-2.0,1650823521825679.0,0
257,-1.0,1.0,-9.0,12.0,0.0,1.0,-1.0,4.0,1650823521825679.0,0
258,-13.0,-21.0,8.0,-16.0,13.0,3.0,-7.0,-19.0,1650823521839710.0,0
259,7.0,0.0,-15.0,0.0,4.0,6.0,1.0,-7.0,1650823521839710.0,0
260,-3.0,46.0,46.0,14.0,-5.0,-7.0,12.0,33.0,1650823521840642.0,0
261,13.0,3.0,-9.0,7.0,12.0,10.0,11.0,35.0,1650823521840642.0,1
262,-23.0,-54.0,-36.0,-40.0,-23.0,-17.0,-12.0,-15.0,1650823521852610.0,1
263,-1.0,2.0,13.0,18.0,0.0,0.0,0.0,-2.0,1650823521852610.0,1
264,-5.0,-14.0,0.0,-4.0,-3.0,-2.0,-29.0,-69.0,1650823521861585.0,1
265,4.0,59.0,42.0,12.0,1.0,10.0,32.0,43.0,1650823521861585.0,1
266,2.0,-4.0,0.0,19.0,8.0,3.0,3.0,10.0,1650823521876612.0,1
267,-5.0,-14.0,-51.0,-25.0,-5.0,-3.0,-2.0,0.0,1650823521876612.0,1
268,-1.0,-12.0,-6.0,-5.0,10.0,1.0,-6.0,-9.0,1650823521878541.0,1
269,-11.0,-14.0,3.0,-6.0,-19.0,-4.0,-15.0,-26.0,1650823521878541.0,1
270,13.0,29.0,20.0,30.0,12.0,6.0,6.0,6.0,1650823521899511.0,1
271,-4.0,11.0,19.0,-7.0,-7.0,-6.0,7.0,20.0,1650823521899511.0,1
272,-10.0,-43.0,-22.0,-9.0,-8.0,-8.0,-9.0,-3.0,1650823521900482.0,1
273,0.0,-30.0,-25.0,-22.0,9.0,0.0,-5.0,-5.0,1650823521900482.0,1
274,-4.0,49.0,26.0,14.0,8.0,11.0,24.0,20.0,1650823521912478.0,1
275,8.0,11.0,-5.0,15.0,10.0,6.0,-8.0,-14.0,1650823521912478.0,1
276,8.0,42.0,40.0,24.0,2.0,0.0,3.0,12.0,1650823521921713.0,1
277,-11.0,-33.0,-38.0,-48.0,-18.0,-11.0,-7.0,-4.0,1650823521921713.0,1
278,-7.0,-82.0,-47.0,-15.0,-12.0,-4.0,-10.0,-19.0,1650823521936685.0,1
279,8.0,17.0,16.0,10.0,8.0,2.0,12.0,37.0,1650823521936685.0,1
280,0.0,-61.0,-17.0,-7.0,-7.0,0.0,-1.0,-42.0,1650823521938668.0,1
281,7.0,39.0,23.0,12.0,5.0,0.0,-10.0,-19.0,1650823521938668.0,1
282,18.0,-2.0,3.0,6.0,2.0,1.0,-11.0,1.0,1650823521959809.0,1
283,1.0,-30.0,11.0,4.0,-4.0,1.0,29.0,34.0,1650823521959809.0,1
284,-7.0,-4.0,-5.0,-2.0,-8.0,-8.0,-17.0,-20.0,1650823521960735.0,1
285,-6.0,6.0,14.0,12.0,8.0,2.0,8.0,33.0,1650823521960735.0,1
286,2.0,-2.0,-25.0,0.0,4.0,7.0,-11.0,-10.0,1650823521981744.0,1
287,-3.0,-2.0,11.0,-17.0,-10.0,-13.0,-16.0,-13.0,1650823521981744.0,1
288,6.0,16.0,24.0,11.0,0.0,9.0,16.0,25.0,1650823521983674.0,1
289,0.0,-25.0,5.0,-13.0,-2.0,-3.0,0.0,-8.0,1650823521983674.0,1
290,-5.0,16.0,-41.0,0.0,-9.0,-5.0,-3.0,-7.0,1650823521997663.0,1
291,1.0,26.0,42.0,16.0,3.0,8.0,9.0,5.0,1650823521997663.0,1
292,2.0,0.0,-20.0,-12.0,11.0,2.0,-8.0,-2.0,1650823521998634.0,1
293,13.0,32.0,36.0,17.0,0.0,1.0,19.0,19.0,1650823521998634.0,1
294,4.0,23.0,17.0,1.0,-9.0,-3.0,0.0,14.0,1650823522019609.0,1
295,-13.0,9.0,11.0,1.0,-1.0,1.0,7.0,10.0,1650823522019609.0,1
296,5.0,16.0,32.0,10.0,-8.0,-9.0,0.0,16.0,1650823522020575.0,1
297,9.0,9.0,-39.0,-8.0,5.0,5.0,1.0,-3.0,1650823522020575.0,1
298,-14.0,-11.0,-13.0,-17.0,-4.0,-5.0,-8.0,-27.0,1650823522033967.0,1
299,1.0,22.0,4.0,-1.0,-10.0,-6.0,-10.0,-3.0,1650823522033967.0,1
300,4.0,2.0,7.0,18.0,9.0,8.0,7.0,3.0,1650823522041948.0,1
301,0.0,-5.0,-11.0,-7.0,-3.0,-2.0,1.0,20.0,1650823522041948.0,1
302,4.0,22.0,19.0,-4.0,1.0,4.0,23.0,-2.0,1650823522055977.0,1
303,5.0,-20.0,-23.0,-17.0,-8.0,-11.0,-44.0,-68.0,1650823522055977.0,1
304,10.0,5.0,22.0,19.0,4.0,6.0,29.0,46.0,1650823522062920.0,1
305,-4.0,-22.0,-21.0,1.0,7.0,-2.0,-2.0,-2.0,1650823522062920.0,1
306,-4.0,-9.0,-27.0,-28.0,-8.0,-4.0,-8.0,0.0,1650823522080909.0,1
307,8.0,-12.0,8.0,16.0,6.0,6.0,-2.0,12.0,1650823522080909.0,1
308,5.0,22.0,4.0,-5.0,10.0,10.0,10.0,9.0,1650823522081908.0,1
309,-2.0,5.0,-20.0,18.0,2.0,-2.0,12.0,6.0,1650823522081908.0,1
310,5.0,14.0,74.0,10.0,3.0,-9.0,3.0,17.0,1650823522092906.0,1
311,-23.0,-41.0,-55.0,-60.0,-31.0,-15.0,-21.0,-29.0,1650823522092906.0,1
312,-3.0,1.0,7.0,-2.0,-8.0,-1.0,-9.0,-18.0,1650823522101860.0,1
313,2.0,4.0,17.0,15.0,9.0,7.0,5.0,19.0,1650823522101860.0,1
314,18.0,29.0,30.0,37.0,11.0,5.0,-7.0,-11.0,1650823522116845.0,1
315,-14.0,2.0,-7.0,7.0,5.0,0.0,6.0,-1.0,1650823522116845.0,1
316,-3.0,-47.0,-35.0,-24.0,-10.0,-6.0,1.0,3.0,1650823522118810.0,1
317,-8.0,-9.0,14.0,-8.0,-10.0,-8.0,-25.0,-44.0,1650823522118810.0,1
318,-5.0,-1.0,-6.0,-13.0,-7.0,-10.0,-7.0,-22.0,1650823522139807.0,1
319,7.0,8.0,-3.0,13.0,5.0,4.0,9.0,1.0,1650823522139807.0,1
320,-11.0,-3.0,-12.0,-6.0,-5.0,-4.0,-6.0,11.0,1650823522140752.0,1
321,3.0,10.0,5.0,3.0,6.0,6.0,7.0,-26.0,1650823522140752.0,1
322,1.0,-7.0,0.0,19.0,-13.0,-4.0,3.0,52.0,1650823522161830.0,1
323,-3.0,8.0,7.0,-24.0,16.0,-2.0,-4.0,4.0,1650823522161830.0,1
324,-1.0,-8.0,-10.0,11.0,3.0,3.0,-6.0,-11.0,1650823522163797.0,1
325,-13.0,-24.0,16.0,-23.0,-13.0,-12.0,-18.0,-27.0,1650823522163797.0,1
326,9.0,11.0,16.0,28.0,-4.0,5.0,9.0,-1.0,1650823522176876.0,1
327,8.0,-57.0,-26.0,23.0,27.0,13.0,7.0,24.0,1650823522176876.0,1
328,-1.0,24.0,-35.0,-6.0,-3.0,-4.0,8.0,20.0,1650823522178871.0,1
329,-10.0,-15.0,-34.0,-59.0,-16.0,-9.0,-9.0,-14.0,1650823522178871.0,1
330,-4.0,22.0,31.0,-1.0,-2.0,0.0,-1.0,-12.0,1650823522199815.0,1
331,8.0,6.0,7.0,18.0,4.0,6.0,26.0,58.0,1650823522199815.0,1
332,6.0,23.0,7.0,7.0,10.0,8.0,1.0,-43.0,1650823522200819.0,1
333,10.0,7.0,20.0,18.0,-2.0,2.0,2.0,0.0,1650823522200819.0,1
334,5.0,10.0,1.0,0.0,15.0,9.0,4.0,12.0,1650823522221823.0,1
335,2.0,-14.0,-20.0,-3.0,-6.0,4.0,1.0,-10.0,1650823522221823.0,1
336,3.0,5.0,18.0,11.0,9.0,4.0,18.0,26.0,1650823522223751.0,1
337,-18.0,-1.0,-18.0,-5.0,-2.0,-4.0,-1.0,-20.0,1650823522223751.0,1
338,-5.0,-4.0,4.0,-8.0,0.0,-3.0,-8.0,8.0,1650823522236834.0,1
339,-3.0,19.0,28.0,33.0,-6.0,-7.0,-6.0,-14.0,1650823522236834.0,1
340,-12.0,-41.0,-28.0,-52.0,-3.0,1.0,7.0,2.0,1650823522238799.0,1
341,4.0,-7.0,-36.0,-3.0,10.0,7.0,-7.0,-17.0,1650823522238799.0,1
342,-6.0,-20.0,2.0,-4.0,-7.0,-17.0,-10.0,-2.0,1650823522259801.0,1
343,-1.0,-3.0,-2.0,12.0,-12.0,2.0,2.0,-11.0,1650823522259801.0,1
344,-11.0,30.0,-5.0,-26.0,-17.0,-15.0,-5.0,-9.0,1650823522260732.0,1
345,16.0,44.0,28.0,33.0,27.0,13.0,-12.0,-26.0,1650823522260732.0,1
346,-7.0,-34.0,26.0,27.0,4.0,12.0,9.0,14.0,1650823522281704.0,1
347,-19.0,-27.0,-74.0,-68.0,-20.0,-14.0,-8.0,-20.0,1650823522281704.0,1
348,4.0,29.0,24.0,26.0,4.0,3.0,6.0,55.0,1650823522283691.0,1
349,20.0,-10.0,18.0,-5.0,-13.0,-11.0,3.0,8.0,1650823522283691.0,1
350,-2.0,20.0,1.0,0.0,0.0,-1.0,0.0,-11.0,1650823522296643.0,1
351,9.0,27.0,41.0,25.0,8.0,-2.0,-10.0,-11.0,1650823522296643.0,1
352,-10.0,-26.0,-23.0,-19.0,-6.0,1.0,-10.0,-2.0,1650823522298631.0,1
353,-18.0,-27.0,-12.0,-4.0,-8.0,-6.0,4.0,3.0,1650823522298631.0,1
354,15.0,15.0,-4.0,-1.0,1.0,-1.0,4.0,20.0,1650823522319575.0,1
355,6.0,17.0,43.0,28.0,11.0,15.0,33.0,6.0,1650823522319575.0,1
356,-16.0,-44.0,-70.0,-71.0,-17.0,-16.0,-27.0,-29.0,1650823522320593.0,1
357,14.0,24.0,62.0,45.0,-1.0,-2.0,8.0,40.0,1650823522320593.0,1
358,-10.0,-20.0,-46.0,-45.0,-3.0,2.0,9.0,6.0,1650823522341576.0,1
359,-1.0,16.0,43.0,6.0,-5.0,1.0,-19.0,-4.0,1650823522341576.0,1
360,5.0,15.0,48.0,36.0,4.0,-2.0,2.0,-11.0,1650823522343534.0,1
361,-8.0,-13.0,-61.0,-12.0,8.0,3.0,5.0,7.0,1650823522343534.0,1
362,-5.0,-20.0,-32.0,-2.0,3.0,3.0,0.0,-10.0,1650823522356536.0,1
363,-2.0,34.0,59.0,-10.0,-7.0,-7.0,-6.0,-5.0,1650823522356536.0,1
364,-3.0,-19.0,-28.0,7.0,-2.0,-3.0,0.0,20.0,1650823522363496.0,1
365,-5.0,-16.0,1.0,-19.0,-18.0,-3.0,-5.0,-15.0,1650823522363496.0,1
366,6.0,34.0,11.0,28.0,14.0,2.0,-2.0,-16.0,1650823522379664.0,1
367,-7.0,-20.0,-44.0,-22.0,-8.0,-9.0,-14.0,-44.0,1650823522379664.0,1
368,-7.0,13.0,23.0,4.0,-2.0,-7.0,-23.0,-34.0,1650823522380627.0,1
369,4.0,12.0,27.0,14.0,1.0,0.0,19.0,32.0,1650823522380627.0,1
370,9.0,3.0,-26.0,-13.0,-2.0,0.0,-10.0,-6.0,1650823522401601.0,1
371,-22.0,1.0,-7.0,-1.0,5.0,0.0,-3.0,-3.0,1650823522401601.0,1
372,1.0,-10.0,14.0,2.0,-3.0,-4.0,6.0,15.0,1650823522403569.0,1
373,-2.0,-16.0,-28.0,7.0,-1.0,3.0,2.0,-4.0,1650823522403569.0,1
374,-5.0,-5.0,-10.0,-32.0,-9.0,-2.0,-6.0,-9.0,1650823522416701.0,1
375,12.0,-5.0,1.0,26.0,27.0,6.0,1.0,9.0,1650823522416701.0,1
376,8.0,16.0,16.0,6.0,-7.0,0.0,10.0,7.0,1650823522422662.0,1
377,5.0,2.0,-27.0,-16.0,-9.0,-4.0,1.0,13.0,1650823522422662.0,1
378,-22.0,-21.0,10.0,-14.0,-8.0,5.0,8.0,3.0,1650823522439678.0,1
379,4.0,7.0,-20.0,8.0,10.0,3.0,-10.0,-8.0,1650823522439678.0,1
380,2.0,8.0,19.0,13.0,1.0,-1.0,8.0,-6.0,1650823522440608.0,1
381,9.0,35.0,24.0,-12.0,-2.0,-5.0,-6.0,-2.0,1650823522440608.0,1
382,0.0,-4.0,-27.0,-14.0,-12.0,-6.0,9.0,61.0,1650823522461702.0,1
383,15.0,21.0,-2.0,-1.0,-2.0,4.0,0.0,15.0,1650823522461702.0,1
384,-2.0,-7.0,3.0,16.0,6.0,0.0,-6.0,-24.0,1650823522463630.0,1
385,8.0,7.0,-1.0,-10.0,-11.0,-8.0,-15.0,-8.0,1650823522463630.0,1
386,13.0,8.0,23.0,11.0,6.0,-1.0,7.0,12.0,1650823522476610.0,1
387,-22.0,-25.0,-35.0,-14.0,-9.0,-7.0,-16.0,-42.0,1650823522476610.0,1
388,14.0,-3.0,16.0,7.0,0.0,-2.0,-7.0,-16.0,1650823522482579.0,1
389,-17.0,-19.0,8.0,18.0,27.0,12.0,1.0,7.0,1650823522482579.0,1
390,1.0,3.0,26.0,9.0,-9.0,-6.0,-8.0,-14.0,1650823522499743.0,1
391,5.0,-20.0,-78.0,-51.0,-17.0,-9.0,3.0,23.0,1650823522499743.0,1
392,-13.0,2.0,31.0,6.0,-8.0,-2.0,-10.0,-31.0,1650823522501672.0,1
393,1.0,5.0,-1.0,1.0,8.0,8.0,1.0,-5.0,1650823522501672.0,1
394,7.0,22.0,9.0,25.0,20.0,9.0,3.0,-7.0,1650823522521685.0,1
395,-14.0,-35.0,-23.0,-31.0,-9.0,-1.0,11.0,-3.0,1650823522521685.0,1
396,6.0,23.0,-13.0,5.0,12.0,8.0,5.0,46.0,1650823522523640.0,1
397,-1.0,6.0,20.0,38.0,1.0,-1.0,-5.0,-28.0,1650823522523640.0,1
398,-4.0,-7.0,-59.0,-51.0,-10.0,-6.0,-7.0,-7.0,1650823522536579.0,1
399,0.0,8.0,37.0,-4.0,-10.0,-9.0,9.0,18.0,1650823522536579.0,1
400,10.0,3.0,-7.0,1.0,0.0,0.0,6.0,22.0,1650823522542564.0,1
401,-12.0,-10.0,14.0,4.0,-2.0,-4.0,-4.0,2.0,1650823522542564.0,1
402,1.0,6.0,20.0,21.0,8.0,4.0,-2.0,-3.0,1650823522559583.0,1
403,9.0,-2.0,24.0,8.0,1.0,4.0,11.0,24.0,1650823522559583.0,1
404,-10.0,-14.0,-27.0,-18.0,-8.0,-4.0,2.0,-3.0,1650823522560515.0,1
405,4.0,11.0,11.0,1.0,-2.0,-2.0,1.0,-15.0,1650823522560515.0,1
406,-19.0,-53.0,-18.0,1.0,-3.0,-4.0,-2.0,-11.0,1650823522581571.0,1
407,5.0,0.0,7.0,14.0,5.0,2.0,-3.0,-27.0,1650823522581571.0,1
408,-7.0,25.0,27.0,4.0,3.0,3.0,-4.0,-17.0,1650823522583536.0,1
409,-30.0,-32.0,-5.0,8.0,-8.0,-3.0,1.0,-16.0,1650823522583536.0,1
410,2.0,-5.0,-32.0,-32.0,-4.0,-1.0,-1.0,-2.0,1650823522596501.0,1
411,7.0,35.0,67.0,39.0,8.0,7.0,2.0,3.0,1650823522596501.0,1
412,-5.0,-29.0,-76.0,-39.0,-3.0,-4.0,-2.0,-16.0,1650823522602498.0,1
413,2.0,-2.0,5.0,-6.0,-1.0,-3.0,-10.0,-16.0,1650823522602498.0,1
414,1.0,2.0,4.0,9.0,5.0,-2.0,14.0,32.0,1650823522619560.0,1
415,-1.0,12.0,10.0,6.0,-4.0,0.0,-2.0,-1.0,1650823522619560.0,1
416,11.0,8.0,9.0,11.0,-1.0,7.0,-5.0,-3.0,1650823522620557.0,1
417,-4.0,-5.0,0.0,-14.0,-8.0,-3.0,-1.0,0.0,1650823522620557.0,1
418,2.0,0.0,7.0,13.0,4.0,0.0,5.0,11.0,1650823522641567.0,1
419,0.0,-4.0,-15.0,-4.0,-1.0,-1.0,4.0,-2.0,1650823522641567.0,1
420,-1.0,-1.0,1.0,10.0,3.0,3.0,16.0,4.0,1650823522643526.0,1
421,-2.0,-17.0,-12.0,-6.0,-3.0,-4.0,-8.0,19.0,1650823522643526.0,1
422,11.0,26.0,35.0,18.0,2.0,-5.0,-10.0,2.0,1650823522655959.0,1
423,-4.0,-10.0,-63.0,-41.0,-3.0,-3.0,-3.0,2.0,1650823522655959.0,1
424,-4.0,-18.0,-5.0,2.0,-1.0,2.0,-1.0,-7.0,1650823522664891.0,1
425,1.0,13.0,20.0,1.0,0.0,4.0,7.0,17.0,1650823522664891.0,1
426,-6.0,14.0,-14.0,-15.0,-17.0,-7.0,-10.0,-41.0,1650823522678878.0,1
427,-6.0,-5.0,33.0,6.0,5.0,-3.0,-7.0,3.0,1650823522678878.0,1
428,8.0,0.0,2.0,0.0,6.0,2.0,-1.0,9.0,1650823522680873.0,1
429,14.0,30.0,11.0,12.0,10.0,12.0,11.0,-1.0,1650823522680873.0,1
430,-5.0,-33.0,-3.0,12.0,12.0,8.0,1.0,1.0,1650823522701846.0,1
431,2.0,19.0,-45.0,-33.0,-16.0,-11.0,-3.0,7.0,1650823522701846.0,1
432,-3.0,-2.0,35.0,22.0,8.0,-1.0,-5.0,-13.0,1650823522703812.0,1
433,2.0,-5.0,-12.0,-14.0,-10.0,-4.0,0.0,9.0,1650823522703812.0,1
434,-4.0,7.0,2.0,0.0,-3.0,-2.0,-6.0,-21.0,1650823522715808.0,1
435,-11.0,-17.0,-8.0,4.0,-7.0,-5.0,-24.0,-32.0,1650823522715808.0,1
436,20.0,9.0,6.0,5.0,-2.0,8.0,26.0,59.0,1650823522724773.0,1
437,-11.0,10.0,-19.0,-9.0,3.0,-6.0,0.0,-10.0,1650823522724773.0,1
438,-17.0,-38.0,-6.0,2.0,2.0,2.0,-7.0,-13.0,1650823522739837.0,1
439,11.0,2.0,18.0,11.0,15.0,1.0,15.0,6.0,1650823522739837.0,1
440,-12.0,20.0,13.0,10.0,-7.0,-5.0,-5.0,-1.0,1650823522740825.0,1
441,8.0,-12.0,2.0,-8.0,-13.0,-7.0,-8.0,-14.0,1650823522740825.0,1
442,6.0,32.0,16.0,0.0,1.0,-1.0,3.0,-13.0,1650823522761970.0,1
443,-7.0,-23.0,-29.0,-9.0,6.0,8.0,6.0,-1.0,1650823522761970.0,1
444,-4.0,-22.0,-14.0,-19.0,-3.0,-5.0,-12.0,-13.0,1650823522762941.0,1
445,4.0,-2.0,-7.0,15.0,5.0,3.0,10.0,21.0,1650823522762941.0,1
446,-2.0,-10.0,-22.0,-18.0,-8.0,-2.0,2.0,4.0,1650823522775981.0,1
447,9.0,32.0,48.0,37.0,21.0,9.0,-13.0,-32.0,1650823522775981.0,1
448,26.0,5.0,-1.0,10.0,11.0,11.0,9.0,5.0,1650823522784883.0,1
449,-22.0,-4.0,15.0,6.0,2.0,4.0,6.0,14.0,1650823522784883.0,1
450,-11.0,-18.0,-37.0,-44.0,-29.0,-20.0,-8.0,-23.0,1650823522799049.0,1
451,10.0,-2.0,5.0,10.0,-5.0,1.0,6.0,20.0,1650823522799049.0,1
452,4.0,1.0,-3.0,-3.0,0.0,-2.0,7.0,6.0,1650823522800982.0,1
453,3.0,-4.0,-19.0,0.0,2.0,-3.0,-13.0,-7.0,1650823522800982.0,1
454,13.0,23.0,38.0,30.0,15.0,15.0,17.0,46.0,1650823522821988.0,1
455,-3.0,2.0,-7.0,-5.0,-1.0,4.0,2.0,26.0,1650823522821988.0,1
456,7.0,3.0,-11.0,-2.0,-1.0,-10.0,-17.0,-29.0,1650823522823920.0,1
457,-3.0,-5.0,1.0,-1.0,-4.0,-4.0,13.0,8.0,1650823522823920.0,1
458,-2.0,-1.0,17.0,6.0,8.0,2.0,-7.0,-4.0,1650823522835898.0,1
459,6.0,0.0,-8.0,-8.0,0.0,-4.0,21.0,45.0,1650823522835898.0,1
460,-2.0,22.0,16.0,18.0,-6.0,0.0,-15.0,-6.0,1650823522844379.0,1
461,-2.0,-27.0,-1.0,-9.0,-9.0,-6.0,-5.0,7.0,1650823522844379.0,1
462,-8.0,-22.0,-53.0,-24.0,1.0,-2.0,1.0,-15.0,1650823522859333.0,1
463,12.0,11.0,33.0,26.0,13.0,9.0,3.0,5.0,1650823522859333.0,1
464,-28.0,3.0,4.0,-12.0,6.0,3.0,-6.0,-37.0,1650823522861328.0,1
465,10.0,24.0,-3.0,20.0,11.0,6.0,0.0,0.0,1650823522861328.0,1
466,-4.0,-28.0,-4.0,-8.0,-4.0,3.0,11.0,7.0,1650823522882182.0,1
467,-23.0,-22.0,-31.0,-22.0,-19.0,-13.0,-14.0,-14.0,1650823522882182.0,1
468,-7.0,-15.0,-24.0,-25.0,-16.0,-7.0,4.0,31.0,1650823522883180.0,1
469,1.0,3.0,27.0,6.0,-6.0,-6.0,-7.0,-8.0,1650823522883180.0,1
470,-6.0,-5.0,-12.0,4.0,3.0,0.0,-6.0,0.0,1650823522895332.0,1
471,25.0,13.0,14.0,15.0,9.0,8.0,10.0,37.0,1650823522895332.0,1
472,-4.0,-1.0,7.0,9.0,4.0,0.0,1.0,-10.0,1650823522904244.0,1
473,-2.0,-18.0,-27.0,-25.0,-5.0,2.0,7.0,-9.0,1650823522904244.0,1
474,-1.0,33.0,22.0,4.0,0.0,1.0,-8.0,-9.0,1650823522919759.0,1
475,4.0,4.0,10.0,3.0,-10.0,-3.0,2.0,9.0,1650823522919759.0,1
476,-2.0,-3.0,-1.0,5.0,0.0,-1.0,5.0,0.0,1650823522920734.0,1
477,7.0,15.0,-6.0,-3.0,10.0,7.0,10.0,38.0,1650823522920734.0,1
478,14.0,9.0,39.0,13.0,-5.0,-6.0,-2.0,-14.0,1650823522941744.0,1
479,-4.0,-14.0,-25.0,-16.0,-9.0,-12.0,-5.0,-22.0,1650823522941744.0,1
480,-20.0,9.0,27.0,11.0,-1.0,-1.0,-7.0,-10.0,1650823522943673.0,1
481,8.0,3.0,14.0,26.0,14.0,14.0,14.0,18.0,1650823522943673.0,1
482,-19.0,-57.0,-68.0,-46.0,13.0,2.0,0.0,9.0,1650823522955678.0,1
483,-9.0,-2.0,-2.0,-1.0,-15.0,-4.0,-3.0,-8.0,1650823522955678.0,1
484,9.0,-2.0,12.0,-3.0,-14.0,-9.0,-3.0,2.0,1650823522970611.0,1
485,3.0,9.0,9.0,-2.0,-9.0,-6.0,-9.0,-17.0,1650823522970611.0,1
486,4.0,30.0,30.0,26.0,6.0,7.0,-1.0,3.0,1650823522979576.0,1
487,-4.0,-8.0,-1.0,-4.0,10.0,1.0,1.0,-5.0,1650823522979576.0,1
488,-14.0,-15.0,-19.0,-14.0,0.0,-5.0,-15.0,3.0,1650823522980573.0,1
489,0.0,4.0,-7.0,-8.0,-4.0,-6.0,9.0,35.0,1650823522980573.0,1
490,17.0,23.0,30.0,22.0,0.0,0.0,-3.0,-64.0,1650823523001869.0,1
491,-6.0,-5.0,-1.0,0.0,5.0,8.0,-5.0,0.0,1650823523001869.0,1
492,0.0,-11.0,-9.0,-5.0,-7.0,-5.0,1.0,-5.0,1650823523003799.0,1
493,-11.0,-4.0,1.0,-1.0,-2.0,0.0,0.0,-15.0,1650823523003799.0,1
494,0.0,5.0,-10.0,-5.0,-7.0,-5.0,-12.0,-3.0,1650823523015765.0,1
495,2.0,14.0,7.0,10.0,-3.0,2.0,17.0,-6.0,1650823523015765.0,1
496,14.0,-11.0,14.0,-1.0,9.0,2.0,-11.0,1.0,1650823523024776.0,1
497,-6.0,-8.0,2.0,-9.0,-5.0,3.0,-4.0,-10.0,1650823523024776.0,1
498,-6.0,-13.0,-20.0,-6.0,-6.0,-10.0,-2.0,4.0,1650823523039809.0,1
499,10.0,44.0,19.0,10.0,1.0,6.0,-2.0,-13.0,1650823523039809.0,1
500,-1.0,-30.0,-20.0,-12.0,-3.0,-1.0,7.0,11.0,1650823523040737.0,1
501,4.0,-4.0,17.0,13.0,6.0,2.0,-1.0,-5.0,1650823523040737.0,1
502,2.0,19.0,35.0,5.0,-6.0,-2.0,3.0,27.0,1650823523061896.0,1
503,-6.0,-14.0,-14.0,0.0,0.0,-4.0,-13.0,-19.0,1650823523061896.0,1
504,2.0,5.0,-8.0,9.0,6.0,5.0,3.0,3.0,1650823523063825.0,1
505,-2.0,-11.0,-17.0,-15.0,-3.0,-6.0,-12.0,0.0,1650823523063825.0,1
506,4.0,11.0,23.0,21.0,4.0,7.0,14.0,3.0,1650823523075859.0,1
507,-22.0,-20.0,-13.0,-10.0,-6.0,-5.0,5.0,6.0,1650823523075859.0,1
508,2.0,6.0,7.0,1.0,-1.0,-2.0,-10.0,12.0,1650823523091750.0,1
509,-3.0,-3.0,-16.0,-5.0,-2.0,-7.0,-10.0,-63.0,1650823523091750.0,1
510,4.0,3.0,-1.0,-1.0,1.0,0.0,16.0,35.0,1650823523099808.0,1
511,0.0,-10.0,2.0,-1.0,1.0,-3.0,-10.0,-3.0,1650823523099808.0,1
512,1.0,6.0,-8.0,0.0,-5.0,2.0,1.0,16.0,1650823523100726.0,1
513,-4.0,0.0,-5.0,-13.0,4.0,-1.0,-21.0,-20.0,1650823523100726.0,1
514,-2.0,-2.0,-1.0,1.0,-15.0,-3.0,15.0,7.0,1650823523121697.0,1
515,-3.0,1.0,8.0,14.0,14.0,8.0,-10.0,-9.0,1650823523121697.0,1
516,-2.0,1.0,19.0,-1.0,0.0,-3.0,5.0,-8.0,1650823523123692.0,1
517,4.0,-2.0,-13.0,-8.0,-2.0,1.0,1.0,15.0,1650823523123692.0,1
518,-4.0,-2.0,-9.0,-7.0,7.0,-3.0,-12.0,-11.0,1650823523144731.0,1
519,1.0,-3.0,8.0,2.0,-16.0,-5.0,-2.0,3.0,1650823523144731.0,1
520,3.0,10.0,6.0,9.0,-4.0,-5.0,2.0,-7.0,1650823523145731.0,1
521,2.0,0.0,-8.0,-2.0,0.0,1.0,-3.0,4.0,1650823523145731.0,1
522,-1.0,-1.0,3.0,1.0,4.0,8.0,-1.0,-3.0,1650823523159693.0,1
523,1.0,5.0,2.0,0.0,12.0,0.0,0.0,5.0,1650823523159693.0,1
524,0.0,5.0,-7.0,3.0,0.0,4.0,5.0,-6.0,1650823523160700.0,1
525,-2.0,-4.0,-3.0,-3.0,-11.0,-5.0,6.0,1.0,1650823523160700.0,1
526,-2.0,0.0,0.0,-1.0,-1.0,-1.0,-3.0,4.0,1650823523181700.0,1
527,4.0,-3.0,-3.0,-2.0,0.0,-1.0,-15.0,-5.0,1650823523181700.0,1
528,-1.0,0.0,3.0,-6.0,12.0,5.0,9.0,-8.0,1650823523183629.0,1
529,-4.0,-6.0,-14.0,-8.0,-9.0,-4.0,-6.0,1.0,1650823523183629.0,1
530,3.0,3.0,3.0,2.0,-5.0,-2.0,9.0,7.0,1650823523204573.0,1
531,-1.0,-6.0,-3.0,-7.0,-2.0,-4.0,9.0,0.0,1650823523204573.0,1
532,-1.0,5.0,5.0,7.0,8.0,0.0,6.0,-7.0,1650823523205584.0,1
533,1.0,4.0,5.0,2.0,-5.0,-2.0,-1.0,7.0,1650823523205584.0,1
534,-3.0,-4.0,-6.0,-2.0,6.0,1.0,-5.0,-2.0,1650823523219562.0,1
535,0.0,0.0,6.0,-7.0,-14.0,-4.0,-2.0,-2.0,1650823523219562.0,1
536,1.0,3.0,-3.0,3.0,2.0,-1.0,-6.0,-1.0,1650823523220531.0,1
537,1.0,0.0,9.0,2.0,12.0,8.0,10.0,3.0,1650823523220531.0,1
538,1.0,-1.0,1.0,-4.0,-5.0,-11.0,-9.0,-3.0,1650823523241689.0,1
539,0.0,3.0,0.0,5.0,3.0,2.0,2.0,0.0,1650823523241689.0,1
540,-3.0,-4.0,-5.0,-5.0,-2.0,1.0,2.0,-2.0,1650823523247634.0,1
541,2.0,0.0,5.0,-4.0,-3.0,-2.0,-1.0,0.0,1650823523247634.0,1
542,0.0,-4.0,-1.0,0.0,6.0,2.0,-5.0,0.0,1650823523264705.0,1
543,1.0,2.0,-3.0,1.0,-9.0,-5.0,3.0,3.0,1650823523264705.0,1
544,3.0,4.0,2.0,5.0,1.0,0.0,-2.0,-1.0,1650823523265686.0,1
545,-1.0,0.0,-6.0,-5.0,-4.0,-4.0,-7.0,-2.0,1650823523265686.0,1
546,0.0,-2.0,-3.0,-3.0,-3.0,-3.0,-1.0,-4.0,1650823523278654.0,1
547,-5.0,-6.0,1.0,7.0,9.0,6.0,6.0,3.0,1650823523278654.0,1
548,-4.0,-5.0,-4.0,-4.0,-1.0,5.0,0.0,-2.0,1650823523285742.0,1
549,2.0,4.0,-5.0,3.0,6.0,2.0,-1.0,0.0,1650823523285742.0,1
550,-3.0,-7.0,-2.0,-2.0,-1.0,-1.0,-1.0,1.0,1650823523301791.0,1
551,9.0,2.0,1.0,-4.0,-10.0,-9.0,-4.0,-1.0,1650823523301791.0,1
552,-12.0,3.0,4.0,1.0,-5.0,-1.0,3.0,-5.0,1650823523303731.0,1
553,-4.0,-9.0,-10.0,-6.0,-5.0,-9.0,-5.0,8.0,1650823523303731.0,1
554,-1.0,0.0,-3.0,1.0,-3.0,-8.0,-10.0,-23.0,1650823523340762.0,1
555,1.0,-9.0,-4.0,-12.0,7.0,2.0,0.0,0.0,1650823523340762.0,1
556,6.0,1.0,-7.0,-3.0,-3.0,4.0,-2.0,-1.0,1650823523342690.0,1
557,4.0,0.0,6.0,4.0,-1.0,3.0,4.0,0.0,1650823523342690.0,1
558,-7.0,2.0,3.0,2.0,-3.0,4.0,2.0,5.0,1650823523342690.0,1
559,-2.0,4.0,0.0,9.0,12.0,1.0,4.0,2.0,1650823523342690.0,1
560,7.0,-1.0,7.0,-1.0,-5.0,-5.0,-6.0,-1.0,1650823523346682.0,1
561,-2.0,0.0,-12.0,-7.0,0.0,-3.0,-1.0,-1.0,1650823523346682.0,1
562,-1.0,2.0,5.0,2.0,0.0,1.0,1.0,0.0,1650823523369645.0,1
563,1.0,2.0,9.0,8.0,5.0,1.0,1.0,-3.0,1650823523369645.0,1
564,9.0,0.0,-11.0,3.0,-2.0,-4.0,-5.0,3.0,1650823523370615.0,1
565,-16.0,-9.0,0.0,-10.0,-5.0,4.0,4.0,-2.0,1650823523370615.0,1
566,-11.0,-7.0,-2.0,-1.0,5.0,-3.0,-8.0,-3.0,1650823523384577.0,1
567,2.0,-1.0,-4.0,-5.0,-11.0,-4.0,-2.0,-1.0,1650823523384577.0,1
568,-5.0,-1.0,3.0,4.0,4.0,5.0,0.0,-2.0,1650823523385597.0,1
569,18.0,6.0,4.0,7.0,3.0,-3.0,6.0,3.0,1650823523385597.0,1
570,7.0,6.0,-1.0,0.0,9.0,7.0,-1.0,1.0,1650823523398603.0,1
571,-12.0,-2.0,-2.0,-7.0,-8.0,-5.0,-1.0,-2.0,1650823523398603.0,1
572,4.0,-5.0,-4.0,-4.0,6.0,-4.0,-3.0,0.0,1650823523406519.0,1
573,1.0,5.0,1.0,2.0,-6.0,-1.0,-1.0,-2.0,1650823523406519.0,1
574,7.0,-2.0,9.0,7.0,4.0,4.0,2.0,4.0,1650823523421479.0,1
575,1.0,-4.0,-11.0,-1.0,-2.0,-1.0,0.0,-1.0,1650823523421479.0,1
576,-6.0,-2.0,-7.0,-4.0,-3.0,-1.0,-3.0,-3.0,1650823523423475.0,1
577,-6.0,1.0,3.0,7.0,8.0,3.0,2.0,0.0,1650823523423475.0,1
578,5.0,3.0,7.0,4.0,-7.0,-4.0,0.0,3.0,1650823523444559.0,1
579,-2.0,-9.0,2.0,-11.0,-4.0,1.0,0.0,-2.0,1650823523444559.0,1
580,-5.0,3.0,6.0,18.0,2.0,1.0,5.0,-1.0,1650823523445585.0,1
581,0.0,-2.0,4.0,-9.0,5.0,3.0,-1.0,-2.0,1650823523445585.0,1
582,4.0,2.0,0.0,0.0,-1.0,0.0,-3.0,0.0,1650823523458591.0,1
583,2.0,4.0,-7.0,-1.0,-3.0,-4.0,-2.0,2.0,1650823523458591.0,1
584,-5.0,-3.0,-4.0,-7.0,5.0,-3.0,-2.0,-2.0,1650823523465528.0,1
585,3.0,-4.0,-10.0,-5.0,-16.0,-2.0,-1.0,-1.0,1650823523465528.0,1
586,-8.0,1.0,1.0,-1.0,-7.0,-6.0,1.0,1.0,1650823523481644.0,1
587,-2.0,-2.0,5.0,4.0,6.0,4.0,0.0,-3.0,1650823523481644.0,1
588,5.0,2.0,-4.0,4.0,5.0,1.0,0.0,1.0,1650823523483599.0,1
589,8.0,-2.0,0.0,-4.0,-2.0,-4.0,-8.0,1.0,1650823523483599.0,1
590,7.0,6.0,-14.0,-17.0,-5.0,1.0,0.0,-1.0,1650823523504515.0,1
591,-20.0,-6.0,-1.0,0.0,-14.0,-3.0,6.0,0.0,1650823523504515.0,0
592,-2.0,-3.0,5.0,9.0,11.0,3.0,-2.0,-1.0,1650823523505513.0,0
593,-5.0,2.0,1.0,7.0,10.0,6.0,7.0,4.0,1650823523505513.0,0
594,-4.0,0.0,8.0,7.0,3.0,2.0,0.0,-1.0,1650823523526523.0,0
595,17.0,3.0,-21.0,-5.0,3.0,-2.0,-5.0,2.0,1650823523526523.0,0
596,1.0,-2.0,3.0,-12.0,-14.0,-4.0,-2.0,-1.0,1650823523528482.0,0
597,-6.0,-6.0,-13.0,-15.0,-3.0,-3.0,-1.0,-4.0,1650823523528482.0,0
598,-3.0,0.0,4.0,7.0,-1.0,1.0,0.0,1.0,1650823523541485.0,0
599,-3.0,-3.0,5.0,-2.0,1.0,-2.0,-2.0,-2.0,1650823523541485.0,0
600,-2.0,4.0,3.0,-3.0,1.0,6.0,1.0,0.0,1650823523543412.0,0
601,1.0,-2.0,-12.0,12.0,2.0,-10.0,-3.0,0.0,1650823523543412.0,0
602,0.0,0.0,0.0,-2.0,-7.0,-2.0,0.0,-2.0,1650823523564355.0,0
603,1.0,2.0,3.0,1.0,4.0,3.0,1.0,2.0,1650823523564355.0,0
604,3.0,-1.0,0.0,-1.0,-4.0,0.0,1.0,-1.0,1650823523566377.0,0
605,-5.0,2.0,11.0,6.0,9.0,8.0,0.0,-1.0,1650823523566377.0,0
606,-2.0,-6.0,-9.0,-5.0,15.0,2.0,-4.0,-2.0,1650823523578802.0,0
607,2.0,0.0,4.0,5.0,-20.0,-6.0,1.0,-1.0,1650823523578802.0,0
608,-2.0,-2.0,-7.0,-13.0,-6.0,-5.0,1.0,0.0,1650823523585855.0,0
609,0.0,1.0,-1.0,2.0,-2.0,0.0,1.0,0.0,1650823523585855.0,0
610,-2.0,-7.0,-5.0,-2.0,-2.0,-1.0,-5.0,-4.0,1650823523601894.0,0
611,3.0,2.0,5.0,-2.0,11.0,6.0,1.0,3.0,1650823523601894.0,0
612,-1.0,2.0,-1.0,4.0,-11.0,-6.0,-3.0,-2.0,1650823523603859.0,0
613,-5.0,-5.0,-9.0,-9.0,1.0,3.0,8.0,3.0,1650823523603859.0,0
614,2.0,1.0,-8.0,1.0,4.0,1.0,-1.0,3.0,1650823523624847.0,0
615,-2.0,-4.0,31.0,19.0,3.0,-1.0,1.0,-1.0,1650823523624847.0,0
616,-7.0,-2.0,0.0,-24.0,-8.0,1.0,-6.0,-5.0,1650823523625855.0,0
617,-1.0,-1.0,4.0,-4.0,-10.0,-10.0,-2.0,-2.0,1650823523625855.0,0
618,2.0,3.0,-5.0,-1.0,-4.0,0.0,1.0,1.0,1650823523646491.0,0
619,2.0,2.0,-13.0,0.0,8.0,3.0,0.0,-1.0,1650823523646491.0,0
620,4.0,2.0,13.0,15.0,7.0,6.0,6.0,3.0,1650823523648487.0,0
621,1.0,4.0,9.0,7.0,6.0,0.0,-3.0,-1.0,1650823523648487.0,0
622,-4.0,-9.0,-16.0,-12.0,-10.0,1.0,-1.0,-2.0,1650823523661512.0,0
623,0.0,2.0,2.0,0.0,6.0,-5.0,-3.0,-3.0,1650823523661512.0,0
624,-3.0,1.0,-6.0,-2.0,-11.0,-11.0,0.0,0.0,1650823523663447.0,0
625,-1.0,-7.0,-5.0,-7.0,-9.0,0.0,-2.0,-2.0,1650823523663447.0,0
626,3.0,4.0,8.0,8.0,5.0,0.0,3.0,2.0,1650823523684501.0,0
627,-9.0,-2.0,-4.0,-2.0,4.0,8.0,0.0,-1.0,1650823523684501.0,0
628,-2.0,-3.0,-5.0,0.0,4.0,3.0,0.0,1.0,1650823523685472.0,0
629,-3.0,1.0,2.0,10.0,-8.0,-8.0,-6.0,-5.0,1650823523685472.0,0
630,2.0,-3.0,-2.0,-12.0,1.0,-1.0,-3.0,0.0,1650823523698437.0,0
631,6.0,4.0,-2.0,-2.0,1.0,6.0,3.0,3.0,1650823523698437.0,0
632,-10.0,3.0,-1.0,7.0,8.0,-3.0,2.0,1.0,1650823523707414.0,0
633,-10.0,0.0,16.0,13.0,16.0,6.0,2.0,-2.0,1650823523707414.0,0
634,-3.0,-7.0,-2.0,-9.0,-21.0,-10.0,-2.0,-3.0,1650823523722374.0,0
635,1.0,-3.0,-11.0,-9.0,-3.0,-3.0,-6.0,-3.0,1650823523722374.0,0
636,5.0,0.0,5.0,2.0,-3.0,3.0,3.0,3.0,1650823523723370.0,0
637,3.0,3.0,-2.0,2.0,5.0,2.0,-1.0,1.0,1650823523723370.0,0
638,-1.0,0.0,-6.0,2.0,0.0,-1.0,-2.0,-1.0,1650823523744424.0,0
639,0.0,4.0,7.0,3.0,-1.0,0.0,5.0,2.0,1650823523744424.0,0
640,4.0,0.0,-3.0,11.0,8.0,5.0,-3.0,-2.0,1650823523746412.0,0
641,-4.0,-4.0,13.0,-23.0,-4.0,0.0,-4.0,-5.0,1650823523746412.0,0
642,0.0,0.0,2.0,9.0,-8.0,-5.0,-2.0,-1.0,1650823523766386.0,0
643,-1.0,-1.0,-6.0,-8.0,-6.0,-4.0,-4.0,-2.0,1650823523766386.0,0
644,0.0,-1.0,8.0,0.0,-5.0,-2.0,0.0,0.0,1650823523768353.0,0
645,6.0,4.0,0.0,6.0,2.0,1.0,1.0,2.0,1650823523768353.0,0
646,-2.0,0.0,3.0,5.0,8.0,5.0,1.0,-3.0,1650823523782383.0,0
647,-1.0,3.0,4.0,7.0,10.0,6.0,3.0,2.0,1650823523782383.0,0
648,0.0,-1.0,-7.0,1.0,18.0,6.0,2.0,1.0,1650823523783321.0,0
649,5.0,2.0,-4.0,-6.0,-19.0,-1.0,-2.0,-3.0,1650823523783321.0,0
650,-5.0,-4.0,3.0,-6.0,-8.0,-12.0,-1.0,0.0,1650823523805268.0,0
651,-1.0,-4.0,-15.0,-8.0,-7.0,-1.0,2.0,-3.0,1650823523805268.0,0
652,1.0,-2.0,-7.0,-5.0,5.0,5.0,2.0,0.0,1650823523806254.0,0
653,1.0,0.0,-5.0,2.0,-1.0,-1.0,-3.0,-2.0,1650823523806254.0,0
654,0.0,2.0,3.0,6.0,5.0,1.0,-1.0,2.0,1650823523818247.0,0
655,0.0,-5.0,3.0,-11.0,-12.0,-8.0,-5.0,-4.0,1650823523818247.0,0
656,-1.0,-3.0,-12.0,-9.0,-7.0,2.0,-1.0,-1.0,1650823523827283.0,0
657,1.0,4.0,8.0,8.0,6.0,-1.0,3.0,1.0,1650823523827283.0,0
658,-1.0,3.0,6.0,9.0,8.0,1.0,0.0,1.0,1650823523841674.0,0
659,-4.0,-4.0,-1.0,-8.0,-8.0,-5.0,-3.0,-4.0,1650823523841674.0,0
660,2.0,2.0,4.0,4.0,-1.0,1.0,4.0,4.0,1650823523843628.0,0
661,-3.0,-9.0,-2.0,-10.0,-7.0,-4.0,-5.0,-4.0,1650823523843628.0,0
662,2.0,2.0,0.0,-3.0,-7.0,4.0,0.0,0.0,1650823523864612.0,0
663,1.0,5.0,5.0,9.0,4.0,-5.0,1.0,2.0,1650823523864612.0,0
664,-2.0,-3.0,-8.0,-1.0,1.0,-1.0,-6.0,-2.0,1650823523865569.0,0
665,-4.0,-2.0,-12.0,-2.0,4.0,-3.0,3.0,0.0,1650823523865569.0,0
666,1.0,-2.0,0.0,-5.0,-9.0,-6.0,0.0,0.0,1650823523877633.0,0
667,0.0,6.0,5.0,2.0,2.0,2.0,0.0,-2.0,1650823523877633.0,0
668,-2.0,-6.0,-13.0,-17.0,-12.0,-8.0,-5.0,-4.0,1650823523886629.0,0
669,2.0,2.0,2.0,3.0,6.0,3.0,-1.0,3.0,1650823523886629.0,0
670,-2.0,-3.0,-14.0,-4.0,2.0,2.0,0.0,-2.0,1650823523901747.0,0
671,-1.0,1.0,2.0,6.0,8.0,0.0,2.0,1.0,1650823523901747.0,0
672,2.0,6.0,6.0,0.0,2.0,2.0,-1.0,0.0,1650823523903705.0,0
673,-2.0,-5.0,-5.0,-6.0,-4.0,-2.0,-4.0,-3.0,1650823523903705.0,0
674,1.0,3.0,2.0,1.0,6.0,2.0,-2.0,1.0,1650823523924696.0,0
675,-2.0,0.0,6.0,-3.0,-13.0,4.0,3.0,-1.0,1650823523924696.0,0
676,-1.0,-14.0,-5.0,5.0,1.0,-7.0,3.0,0.0,1650823523926707.0,0
677,1.0,3.0,4.0,4.0,7.0,10.0,5.0,0.0,1650823523926707.0,0
678,-3.0,-2.0,-15.0,-5.0,0.0,-1.0,1.0,0.0,1650823523937718.0,0
679,-2.0,-2.0,-17.0,-10.0,4.0,1.0,-7.0,-1.0,1650823523937718.0,0
680,-1.0,2.0,8.0,-3.0,-21.0,-11.0,-5.0,-2.0,1650823523946710.0,0
681,2.0,6.0,13.0,15.0,2.0,-2.0,-2.0,0.0,1650823523946710.0,0
682,3.0,-3.0,-5.0,-3.0,3.0,0.0,5.0,4.0,1650823523961763.0,0
683,-3.0,-5.0,-7.0,-10.0,-5.0,7.0,-3.0,-3.0,1650823523961763.0,0
684,0.0,0.0,-1.0,2.0,5.0,-7.0,1.0,-3.0,1650823523963697.0,0
685,1.0,2.0,2.0,6.0,-8.0,-1.0,0.0,1.0,1650823523963697.0,0
686,2.0,2.0,8.0,3.0,3.0,2.0,0.0,0.0,1650823523984677.0,0
687,0.0,-3.0,4.0,-1.0,5.0,-3.0,0.0,-3.0,1650823523984677.0,0
688,-2.0,3.0,10.0,2.0,-1.0,9.0,2.0,-1.0,1650823523985638.0,0
689,-2.0,-2.0,-5.0,-8.0,-2.0,-4.0,0.0,-1.0,1650823523985638.0,0
690,0.0,5.0,11.0,6.0,1.0,-4.0,-2.0,0.0,1650823523997635.0,0
691,1.0,-3.0,-6.0,2.0,5.0,-2.0,-3.0,-1.0,1650823523997635.0,0
692,-1.0,-2.0,-4.0,1.0,-10.0,-5.0,-3.0,-2.0,1650823524007593.0,0
693,-1.0,-2.0,-4.0,-9.0,-4.0,-1.0,0.0,-2.0,1650823524007593.0,0
694,0.0,-1.0,3.0,1.0,-3.0,3.0,1.0,0.0,1650823524021569.0,0
695,2.0,-1.0,1.0,-1.0,15.0,0.0,-2.0,1.0,1650823524021569.0,0
696,0.0,2.0,3.0,-3.0,-5.0,3.0,-2.0,-1.0,1650823524023538.0,0
697,0.0,-3.0,-14.0,-7.0,0.0,3.0,0.0,0.0,1650823524023538.0,0
698,-1.0,-1.0,7.0,7.0,7.0,2.0,0.0,-4.0,1650823524044732.0,0
699,-2.0,0.0,0.0,-1.0,-4.0,0.0,4.0,0.0,1650823524044732.0,0
700,2.0,-1.0,-2.0,-5.0,2.0,-5.0,-3.0,1.0,1650823524045735.0,0
701,0.0,-3.0,-4.0,-5.0,-13.0,-8.0,-3.0,2.0,1650823524045735.0,0
702,0.0,0.0,6.0,4.0,1.0,2.0,-3.0,-1.0,1650823524066743.0,0
703,-1.0,-3.0,-23.0,-8.0,-2.0,-1.0,0.0,-1.0,1650823524066743.0,0
704,-2.0,0.0,-4.0,-3.0,-2.0,-1.0,-2.0,-2.0,1650823524068671.0,0
705,-3.0,-2.0,3.0,1.0,1.0,-5.0,0.0,-3.0,1650823524068671.0,0
706,-1.0,2.0,9.0,-2.0,-7.0,0.0,-1.0,-1.0,1650823524081635.0,0
707,0.0,-2.0,-10.0,4.0,4.0,2.0,0.0,3.0,1650823524081635.0,0
708,-1.0,3.0,2.0,2.0,6.0,2.0,2.0,1.0,1650823524083650.0,0
709,-1.0,-1.0,-13.0,-3.0,6.0,4.0,-3.0,0.0,1650823524083650.0,0
710,0.0,2.0,1.0,0.0,-3.0,-4.0,-5.0,0.0,1650823524104603.0,0
711,-2.0,-5.0,2.0,1.0,-14.0,-5.0,1.0,-2.0,1650823524104603.0,0
712,-4.0,-3.0,-1.0,0.0,7.0,6.0,2.0,0.0,1650823524105571.0,0
713,1.0,1.0,5.0,5.0,15.0,1.0,-2.0,-1.0,1650823524105571.0,0
714,-4.0,-2.0,-6.0,-8.0,-17.0,-2.0,0.0,-1.0,1650823524126582.0,0
715,0.0,6.0,13.0,10.0,7.0,1.0,0.0,1.0,1650823524126582.0,0
716,1.0,-1.0,3.0,7.0,1.0,10.0,-2.0,-1.0,1650823524128512.0,0
717,-1.0,-5.0,-8.0,-11.0,-5.0,-11.0,0.0,0.0,1650823524128512.0,0
718,-2.0,-2.0,-8.0,-1.0,6.0,3.0,1.0,-3.0,1650823524141543.0,0
719,2.0,4.0,18.0,7.0,-4.0,1.0,-2.0,-1.0,1650823524141543.0,0
720,0.0,0.0,-11.0,-14.0,-1.0,-6.0,-5.0,-3.0,1650823524148496.0,0
721,-1.0,-2.0,1.0,4.0,-8.0,2.0,2.0,-1.0,1650823524148496.0,0
722,1.0,-2.0,-1.0,1.0,8.0,3.0,2.0,1.0,1650823524164701.0,0
723,-3.0,-2.0,2.0,-2.0,-5.0,-1.0,-2.0,-2.0,1650823524164701.0,0
724,-1.0,1.0,7.0,1.0,3.0,-6.0,0.0,0.0,1650823524166472.0,0
725,0.0,1.0,-2.0,-4.0,7.0,5.0,-4.0,-1.0,1650823524166472.0,0
726,-2.0,-1.0,-5.0,-3.0,-28.0,-5.0,0.0,-1.0,1650823524186418.0,0
727,1.0,-2.0,7.0,7.0,13.0,7.0,2.0,0.0,1650823524186418.0,0
728,0.0,0.0,1.0,0.0,-5.0,-7.0,-2.0,1.0,1650823524188431.0,0
729,1.0,-1.0,-2.0,3.0,2.0,0.0,-1.0,0.0,1650823524188431.0,0
730,-4.0,-1.0,-1.0,-2.0,5.0,3.0,1.0,2.0,1650823524201380.0,0
731,0.0,-1.0,3.0,1.0,-4.0,1.0,-2.0,-1.0,1650823524201380.0,0
732,-2.0,-2.0,-1.0,-3.0,-5.0,0.0,2.0,-3.0,1650823524208401.0,0
733,-1.0,-2.0,-12.0,-8.0,2.0,-1.0,2.0,1.0,1650823524208401.0,0
734,0.0,2.0,9.0,-2.0,8.0,0.0,-3.0,1.0,1650823524224290.0,0
735,0.0,-4.0,-14.0,-14.0,-28.0,-14.0,-4.0,-2.0,1650823524224290.0,0
736,0.0,2.0,5.0,2.0,4.0,0.0,1.0,1.0,1650823524226312.0,0
737,1.0,3.0,9.0,13.0,8.0,14.0,4.0,0.0,1650823524226312.0,0
738,0.0,-1.0,3.0,2.0,6.0,1.0,0.0,0.0,1650823524247361.0,0
739,-2.0,0.0,-2.0,-4.0,1.0,-11.0,-3.0,-1.0,1650823524247361.0,0
740,1.0,-3.0,-4.0,-6.0,-9.0,-2.0,-3.0,-2.0,1650823524248348.0,0
741,-1.0,1.0,3.0,7.0,3.0,-1.0,4.0,0.0,1650823524248348.0,0
742,0.0,1.0,6.0,1.0,-12.0,5.0,-3.0,-2.0,1650823524260953.0,0
743,-1.0,-2.0,-7.0,-1.0,4.0,-6.0,3.0,0.0,1650823524260953.0,0
744,-1.0,-1.0,-3.0,-8.0,-9.0,-7.0,-4.0,0.0,1650823524268000.0,0
745,-1.0,-3.0,-7.0,-5.0,-4.0,0.0,-3.0,-2.0,1650823524268000.0,0
746,1.0,3.0,4.0,11.0,16.0,5.0,5.0,-2.0,1650823524284690.0,0
747,1.0,3.0,11.0,4.0,2.0,3.0,-4.0,-1.0,1650823524284690.0,0
748,0.0,-7.0,-14.0,-7.0,-5.0,-1.0,-2.0,1.0,1650823524285890.0,0
749,-1.0,5.0,7.0,-4.0,-11.0,-9.0,-3.0,1.0,1650823524285890.0,0
750,-1.0,-7.0,-15.0,-10.0,1.0,-5.0,-2.0,-1.0,1650823524306835.0,0
751,-1.0,2.0,5.0,3.0,-8.0,0.0,1.0,0.0,1650823524306835.0,0
752,0.0,1.0,3.0,13.0,9.0,5.0,4.0,0.0,1650823524308855.0,0
753,0.0,1.0,2.0,-2.0,-1.0,0.0,-1.0,-1.0,1650823524308855.0,0
754,-1.0,-3.0,0.0,4.0,6.0,8.0,2.0,1.0,1650823524320823.0,0
755,0.0,0.0,-2.0,-2.0,4.0,-4.0,0.0,1.0,1650823524320823.0,0
756,-1.0,-2.0,-3.0,-3.0,3.0,-3.0,-4.0,-2.0,1650823524327845.0,0
757,-2.0,-1.0,0.0,-2.0,-20.0,1.0,1.0,-2.0,1650823524327845.0,0
758,-2.0,3.0,2.0,0.0,1.0,-5.0,-2.0,-1.0,1650823524344535.0,0
759,1.0,-4.0,-8.0,0.0,0.0,-2.0,-3.0,-1.0,1650823524344535.0,0
760,0.0,0.0,1.0,0.0,3.0,4.0,2.0,-1.0,1650823524345527.0,0
761,-1.0,-2.0,17.0,6.0,1.0,-3.0,-2.0,-2.0,1650823524345527.0,0
762,-2.0,-3.0,-16.0,-15.0,-4.0,1.0,-1.0,-2.0,1650823524366690.0,0
763,2.0,3.0,4.0,4.0,3.0,3.0,1.0,1.0,1650823524366690.0,0
764,2.0,3.0,6.0,8.0,7.0,-6.0,0.0,0.0,1650823524368644.0,0
765,2.0,3.0,8.0,3.0,-3.0,-3.0,-1.0,1.0,1650823524368644.0,0
766,-1.0,-7.0,-26.0,-14.0,-7.0,-6.0,-1.0,-2.0,1650823524381594.0,0
767,-3.0,-2.0,-5.0,-9.0,-8.0,-1.0,-3.0,-1.0,1650823524381594.0,0
768,0.0,1.0,3.0,6.0,17.0,15.0,-2.0,-1.0,1650823524387594.0,0
769,-1.0,1.0,3.0,11.0,-6.0,-12.0,2.0,1.0,1650823524387594.0,0
770,0.0,0.0,7.0,3.0,3.0,-2.0,2.0,0.0,1650823524404521.0,0
771,-3.0,-4.0,-8.0,-4.0,1.0,-2.0,-1.0,-2.0,1650823524404521.0,0
772,0.0,0.0,2.0,-5.0,-19.0,-1.0,-3.0,2.0,1650823524405519.0,0
773,0.0,1.0,6.0,6.0,18.0,11.0,0.0,-1.0,1650823524405519.0,0
774,-2.0,-3.0,12.0,-6.0,-8.0,-5.0,-3.0,0.0,1650823524426646.0,0
775,2.0,0.0,-2.0,3.0,1.0,3.0,2.0,7.0,1650823524426646.0,0
776,-3.0,-4.0,-8.0,-7.0,-4.0,-4.0,-4.0,-19.0,1650823524428574.0,0
777,-2.0,6.0,-3.0,4.0,0.0,0.0,1.0,1.0,1650823524428574.0,0
778,0.0,2.0,3.0,7.0,6.0,-1.0,0.0,-1.0,1650823524441540.0,0
779,0.0,-2.0,17.0,6.0,-2.0,-1.0,-3.0,-3.0,1650823524441540.0,0
780,-1.0,-2.0,-4.0,-3.0,-5.0,-1.0,2.0,5.0,1650823524448532.0,0
781,-1.0,-3.0,-11.0,-9.0,-1.0,-1.0,-1.0,0.0,1650823524448532.0,0
782,2.0,3.0,5.0,3.0,-3.0,-3.0,-3.0,-2.0,1650823524464705.0,0
783,-2.0,-1.0,-4.0,0.0,5.0,0.0,0.0,-1.0,1650823524464705.0,0
784,2.0,5.0,16.0,18.0,9.0,4.0,4.0,3.0,1650823524465679.0,0
785,-2.0,-6.0,-15.0,-11.0,-11.0,-8.0,-2.0,-3.0,1650823524465679.0,0
786,-3.0,-5.0,1.0,-4.0,4.0,2.0,-2.0,0.0,1650823524486692.0,0
787,1.0,5.0,3.0,6.0,-7.0,1.0,2.0,-1.0,1650823524486692.0,0
788,-1.0,0.0,-1.0,-2.0,-3.0,-4.0,-1.0,3.0,1650823524488634.0,0
789,-1.0,-4.0,-5.0,-7.0,-2.0,-2.0,-4.0,-2.0,1650823524488634.0,0
790,1.0,1.0,3.0,-2.0,-6.0,-7.0,-1.0,7.0,1650823524501586.0,0
791,2.0,4.0,13.0,7.0,7.0,10.0,1.0,-16.0,1650823524501586.0,0
792,1.0,-2.0,-18.0,-3.0,7.0,0.0,1.0,2.0,1650823524515667.0,0
793,-2.0,-3.0,1.0,0.0,4.0,9.0,-2.0,-6.0,1650823524515667.0,0
794,1.0,2.0,2.0,8.0,2.0,-4.0,4.0,10.0,1650823524524643.0,0
795,0.0,4.0,24.0,10.0,1.0,0.0,0.0,5.0,1650823524524643.0,0
796,-1.0,-9.0,-30.0,-24.0,-12.0,-8.0,-3.0,-1.0,1650823524525641.0,0
797,1.0,1.0,-8.0,0.0,3.0,1.0,-3.0,-3.0,1650823524525641.0,0
798,0.0,1.0,3.0,-2.0,-1.0,4.0,2.0,-7.0,1650823524546733.0,0
799,-3.0,-4.0,-3.0,1.0,-3.0,-4.0,1.0,0.0,1650823524546733.0,0
800,-1.0,-2.0,-11.0,-8.0,-10.0,-7.0,-4.0,-1.0,1650823524548688.0,0
801,-5.0,-7.0,-19.0,-10.0,-8.0,-5.0,-1.0,0.0,1650823524548688.0,0
802,3.0,9.0,22.0,26.0,6.0,3.0,5.0,-2.0,1650823524569666.0,0
803,2.0,-3.0,-36.0,-28.0,3.0,-3.0,-5.0,4.0,1650823524569666.0,0
804,-6.0,-9.0,5.0,-7.0,-7.0,0.0,-1.0,-5.0,1650823524570617.0,0
805,4.0,7.0,9.0,12.0,0.0,3.0,0.0,2.0,1650823524570617.0,0
806,1.0,0.0,-4.0,2.0,6.0,5.0,2.0,1.0,1650823524584592.0,0
807,-1.0,0.0,12.0,2.0,2.0,1.0,0.0,0.0,1650823524584592.0,0
808,-1.0,-1.0,3.0,5.0,-9.0,-3.0,-3.0,-2.0,1650823524585583.0,0
809,1.0,-2.0,-7.0,-9.0,9.0,0.0,-1.0,0.0,1650823524585583.0,0
810,2.0,8.0,4.0,2.0,-8.0,-4.0,0.0,5.0,1650823524606507.0,0
811,-2.0,-10.0,-15.0,-8.0,-10.0,-4.0,-1.0,-1.0,1650823524606507.0,0
812,1.0,5.0,11.0,8.0,4.0,2.0,1.0,2.0,1650823524608513.0,0
813,1.0,5.0,21.0,25.0,16.0,6.0,6.0,6.0,1650823524608513.0,0
814,-1.0,-1.0,-18.0,-19.0,-4.0,-2.0,-4.0,-5.0,1650823524620497.0,0
815,-3.0,-5.0,10.0,-3.0,-5.0,-3.0,-5.0,-1.0,1650823524620497.0,0
816,-3.0,1.0,9.0,7.0,8.0,4.0,2.0,0.0,1650823524629453.0,0
817,0.0,0.0,1.0,-2.0,3.0,2.0,0.0,2.0,1650823524629453.0,0
818,-1.0,-6.0,-2.0,0.0,-17.0,-1.0,-2.0,-6.0,1650823524644472.0,0
819,1.0,0.0,-2.0,1.0,7.0,-5.0,0.0,8.0,1650823524644472.0,0
820,-2.0,-5.0,-5.0,-4.0,0.0,-6.0,-4.0,6.0,1650823524646400.0,0
821,-5.0,-4.0,-2.0,-1.0,-1.0,-2.0,-10.0,-40.0,1650823524646400.0,0
822,1.0,-1.0,-3.0,-2.0,4.0,0.0,-1.0,-1.0,1650823524665744.0,0
823,1.0,1.0,4.0,9.0,3.0,8.0,2.0,-3.0,1650823524665744.0,0
824,5.0,13.0,23.0,14.0,-1.0,4.0,4.0,-1.0,1650823524674700.0,0
825,-5.0,-23.0,-45.0,-41.0,-14.0,-9.0,-3.0,8.0,1650823524674700.0,0
826,-3.0,5.0,16.0,2.0,-7.0,-4.0,-3.0,3.0,1650823524680748.0,0
827,-3.0,-1.0,-3.0,4.0,12.0,5.0,-1.0,-10.0,1650823524680748.0,0
828,2.0,6.0,7.0,9.0,-2.0,2.0,6.0,15.0,1650823524689660.0,0
829,8.0,10.0,3.0,11.0,12.0,17.0,10.0,24.0,1650823524689660.0,0
830,-4.0,-9.0,-1.0,-8.0,-12.0,-18.0,-11.0,-8.0,1650823524704734.0,0
831,-2.0,-1.0,-4.0,-3.0,-6.0,-1.0,11.0,4.0,1650823524704734.0,0
832,0.0,2.0,-1.0,8.0,27.0,5.0,-1.0,-3.0,1650823524705734.0,0
833,3.0,12.0,31.0,18.0,-9.0,3.0,4.0,5.0,1650823524705734.0,0
834,-8.0,-21.0,-35.0,-27.0,-3.0,4.0,-2.0,-8.0,1650823524727047.0,0
835,3.0,3.0,6.0,3.0,-4.0,-5.0,-2.0,-3.0,1650823524727047.0,0
836,0.0,-7.0,-14.0,-4.0,-3.0,1.0,0.0,0.0,1650823524728003.0,0
837,0.0,6.0,-11.0,-17.0,4.0,-1.0,2.0,9.0,1650823524728003.0,0
838,0.0,-16.0,-14.0,-4.0,2.0,-1.0,1.0,0.0,1650823524740950.0,0
839,0.0,7.0,5.0,1.0,-4.0,1.0,3.0,-6.0,1650823524740950.0,0
840,-4.0,-7.0,-12.0,-10.0,-15.0,-8.0,-9.0,-25.0,1650823524757473.0,0
841,3.0,2.0,10.0,7.0,2.0,1.0,-2.0,14.0,1650823524757473.0,0
842,6.0,14.0,10.0,6.0,-1.0,-5.0,6.0,7.0,1650823524764659.0,0
843,-1.0,1.0,27.0,11.0,5.0,7.0,4.0,4.0,1650823524764659.0,0
844,-9.0,-18.0,-61.0,-44.0,-6.0,-3.0,-7.0,-1.0,1650823524771656.0,0
845,-8.0,-7.0,2.0,9.0,-4.0,-6.0,-12.0,-17.0,1650823524771656.0,2
846,-2.0,-1.0,-1.0,5.0,11.0,3.0,0.0,-2.0,1650823524786667.0,2
847,3.0,6.0,6.0,6.0,-4.0,-2.0,-3.0,-6.0,1650823524786667.0,2
848,0.0,4.0,24.0,27.0,4.0,2.0,4.0,14.0,1650823524788624.0,2
849,9.0,1.0,27.0,-12.0,7.0,11.0,15.0,14.0,1650823524788624.0,2
850,-8.0,-7.0,-13.0,-9.0,-15.0,-5.0,-5.0,-12.0,1650823524800565.0,2
851,-2.0,0.0,-25.0,-5.0,12.0,0.0,0.0,12.0,1650823524800565.0,2
852,2.0,4.0,2.0,-26.0,-12.0,-5.0,-4.0,-7.0,1650823524809542.0,2
853,-4.0,0.0,23.0,29.0,-5.0,-10.0,-9.0,-11.0,1650823524809542.0,2
854,1.0,-16.0,-22.0,-2.0,18.0,12.0,13.0,10.0,1650823524824510.0,2
855,-3.0,1.0,11.0,6.0,-6.0,-5.0,-10.0,-24.0,1650823524824510.0,2
856,16.0,34.0,20.0,24.0,21.0,10.0,9.0,20.0,1650823524825529.0,2
857,-16.0,-53.0,-64.0,-35.0,-5.0,-1.0,1.0,-8.0,1650823524825529.0,2
858,6.0,9.0,33.0,0.0,-4.0,-3.0,-13.0,3.0,1650823524846830.0,2
859,-5.0,-6.0,-21.0,-14.0,-8.0,-2.0,-1.0,11.0,1650823524846830.0,2
860,3.0,16.0,40.0,25.0,4.0,6.0,1.0,-19.0,1650823524848783.0,2
861,12.0,16.0,3.0,0.0,-1.0,0.0,7.0,13.0,1650823524848783.0,2
862,-8.0,-3.0,11.0,4.0,-1.0,-1.0,-10.0,-20.0,1650823524860815.0,2
863,2.0,-10.0,-17.0,-10.0,-2.0,-3.0,-3.0,3.0,1650823524860815.0,2
864,12.0,19.0,34.0,29.0,6.0,5.0,10.0,12.0,1650823524876870.0,2
865,0.0,6.0,40.0,33.0,7.0,7.0,0.0,-2.0,1650823524876870.0,2
866,-14.0,-39.0,-103.0,-62.0,-14.0,-10.0,-11.0,-8.0,1650823524883878.0,2
867,3.0,25.0,20.0,-7.0,-14.0,1.0,7.0,8.0,1650823524883878.0,2
868,-12.0,-21.0,16.0,-21.0,-2.0,-6.0,0.0,4.0,1650823524885846.0,2
869,-7.0,-17.0,-66.0,-33.0,-15.0,-9.0,-6.0,-15.0,1650823524885846.0,2
870,7.0,18.0,40.0,15.0,-3.0,2.0,7.0,6.0,1650823524905954.0,2
871,6.0,-13.0,-43.0,21.0,37.0,19.0,8.0,19.0,1650823524905954.0,2
872,-8.0,-7.0,9.0,0.0,-14.0,-14.0,-9.0,-16.0,1650823524914919.0,2
873,-12.0,-11.0,-37.0,-36.0,-19.0,-14.0,-13.0,-2.0,1650823524914919.0,2
874,-4.0,2.0,45.0,22.0,5.0,2.0,7.0,6.0,1650823524920963.0,2
875,6.0,11.0,20.0,-2.0,-11.0,-7.0,2.0,15.0,1650823524920963.0,2
876,7.0,-5.0,-32.0,-5.0,-3.0,2.0,-3.0,-6.0,1650823524929864.0,2
877,-2.0,-3.0,2.0,19.0,6.0,-2.0,-5.0,-20.0,1650823524929864.0,2
878,-10.0,11.0,-6.0,1.0,-9.0,-13.0,-13.0,-4.0,1650823524944840.0,2
879,-6.0,-16.0,30.0,-22.0,-11.0,-6.0,-16.0,-28.0,1650823524944840.0,2
880,1.0,5.0,29.0,17.0,10.0,8.0,12.0,-3.0,1650823524945822.0,2
881,7.0,13.0,8.0,11.0,1.0,5.0,6.0,12.0,1650823524945822.0,2
882,-1.0,4.0,14.0,5.0,7.0,4.0,-6.0,-17.0,1650823524966793.0,2
883,0.0,-2.0,-25.0,9.0,1.0,1.0,8.0,15.0,1650823524966793.0,2
884,-14.0,-35.0,-31.0,-48.0,-6.0,-3.0,-14.0,-16.0,1650823524968760.0,2
885,-13.0,8.0,-21.0,-27.0,-16.0,-5.0,-6.0,-30.0,1650823524968760.0,2
886,3.0,3.0,12.0,19.0,-4.0,0.0,8.0,39.0,1650823524989753.0,2
887,11.0,11.0,21.0,14.0,13.0,7.0,12.0,19.0,1650823524989753.0,2
888,11.0,35.0,26.0,35.0,12.0,8.0,1.0,-1.0,1650823524990703.0,2
889,-11.0,-23.0,-53.0,-41.0,-9.0,-7.0,-3.0,-4.0,1650823524990703.0,2
890,-6.0,-17.0,-9.0,-14.0,-10.0,-6.0,-2.0,-2.0,1650823525004724.0,2
891,-11.0,-10.0,-25.0,-15.0,-24.0,-16.0,-25.0,-41.0,1650823525004724.0,2
892,4.0,-8.0,-26.0,-4.0,-8.0,-5.0,17.0,46.0,1650823525005662.0,2
893,5.0,15.0,44.0,22.0,14.0,6.0,-11.0,-34.0,1650823525005662.0,2
894,16.0,32.0,26.0,28.0,5.0,5.0,6.0,3.0,1650823525034605.0,2
895,-15.0,-27.0,-23.0,-33.0,-9.0,-5.0,-7.0,-20.0,1650823525034605.0,2
896,-3.0,-6.0,-19.0,-1.0,2.0,3.0,7.0,6.0,1650823525035582.0,2
897,3.0,-4.0,-4.0,10.0,4.0,5.0,7.0,15.0,1650823525035582.0,2
898,3.0,16.0,56.0,23.0,8.0,9.0,8.0,-2.0,1650823525049607.0,2
899,3.0,-4.0,-52.0,-9.0,7.0,0.0,8.0,4.0,1650823525049607.0,2
900,-10.0,-16.0,-6.0,-27.0,-20.0,-13.0,-11.0,-10.0,1650823525050542.0,2
901,3.0,7.0,48.0,34.0,11.0,0.0,3.0,18.0,1650823525050542.0,2
902,-2.0,-21.0,-63.0,-10.0,5.0,4.0,-1.0,-22.0,1650823525064504.0,2
903,5.0,23.0,49.0,5.0,8.0,12.0,19.0,38.0,1650823525064504.0,2
904,-11.0,-27.0,-46.0,-17.0,-20.0,-18.0,-20.0,-18.0,1650823525065502.0,2
905,-8.0,-10.0,10.0,-21.0,-14.0,0.0,18.0,6.0,1650823525065502.0,2
906,16.0,17.0,21.0,25.0,26.0,8.0,2.0,15.0,1650823525086970.0,2
907,3.0,-3.0,-13.0,-1.0,7.0,4.0,-1.0,4.0,1650823525086970.0,2
908,9.0,19.0,23.0,25.0,11.0,13.0,28.0,3.0,1650823525088898.0,2
909,1.0,14.0,18.0,-1.0,-6.0,-4.0,-29.0,-20.0,1650823525088898.0,2
910,-4.0,-7.0,-21.0,-5.0,-1.0,-4.0,21.0,41.0,1650823525108845.0,2
911,0.0,5.0,32.0,-2.0,-6.0,-10.0,-17.0,-45.0,1650823525108845.0,2
912,-6.0,9.0,8.0,16.0,-5.0,-10.0,-17.0,-6.0,1650823525110838.0,2
913,10.0,10.0,27.0,-3.0,7.0,2.0,7.0,17.0,1650823525110838.0,2
914,-16.0,-33.0,-49.0,-37.0,-25.0,-12.0,-7.0,-16.0,1650823525124802.0,2
915,-4.0,-11.0,2.0,12.0,1.0,1.0,0.0,-2.0,1650823525124802.0,2
916,4.0,1.0,10.0,8.0,5.0,5.0,7.0,14.0,1650823525125799.0,2
917,1.0,12.0,-29.0,-7.0,3.0,1.0,-1.0,-5.0,1650823525125799.0,2
918,13.0,27.0,45.0,48.0,21.0,12.0,-1.0,1.0,1650823525145772.0,2
919,-18.0,-45.0,-80.0,-73.0,-23.0,-10.0,1.0,5.0,1650823525145772.0,2
920,-12.0,-13.0,21.0,-15.0,-18.0,-11.0,-11.0,-11.0,1650823525154721.0,2
921,4.0,5.0,12.0,26.0,10.0,4.0,11.0,39.0,1650823525154721.0,2
922,7.0,21.0,31.0,4.0,-6.0,-5.0,-9.0,-19.0,1650823525169681.0,2
923,5.0,5.0,-12.0,36.0,25.0,13.0,4.0,0.0,1650823525169681.0,2
924,-2.0,-8.0,-31.0,-27.0,8.0,12.0,3.0,-6.0,1650823525170678.0,2
925,-2.0,-19.0,-39.0,-16.0,-2.0,-8.0,-2.0,-2.0,1650823525170678.0,2
926,-7.0,-2.0,0.0,-11.0,-16.0,-8.0,-12.0,-24.0,1650823525183644.0,2
927,2.0,19.0,29.0,21.0,0.0,3.0,14.0,18.0,1650823525183644.0,2
928,8.0,5.0,0.0,6.0,6.0,2.0,-8.0,6.0,1650823525190647.0,2
929,11.0,11.0,14.0,10.0,3.0,5.0,12.0,10.0,1650823525190647.0,2
930,-10.0,-13.0,-15.0,-11.0,-4.0,-5.0,-20.0,-16.0,1650823525206614.0,2
931,-6.0,12.0,27.0,29.0,2.0,-4.0,-16.0,-8.0,1650823525206614.0,2
932,-1.0,-5.0,-26.0,-25.0,1.0,7.0,19.0,22.0,1650823525208577.0,2
933,6.0,-3.0,-3.0,-8.0,-5.0,-4.0,-7.0,-11.0,1650823525208577.0,2
934,-22.0,-16.0,-18.0,-15.0,-9.0,-6.0,-5.0,-25.0,1650823525229553.0,2
935,4.0,12.0,36.0,38.0,-13.0,-6.0,-1.0,35.0,1650823525229553.0,2
936,0.0,-14.0,-53.0,-37.0,34.0,11.0,6.0,15.0,1650823525230519.0,2
937,7.0,30.0,39.0,30.0,13.0,9.0,4.0,5.0,1650823525230519.0,2
938,-8.0,-48.0,-64.0,-50.0,-17.0,-6.0,-1.0,-2.0,1650823525243484.0,2
939,-8.0,-9.0,12.0,7.0,-8.0,-8.0,-13.0,-24.0,1650823525243484.0,2
940,0.0,11.0,31.0,21.0,-16.0,-11.0,-6.0,-10.0,1650823525250465.0,2
941,-4.0,-1.0,-8.0,-6.0,-2.0,-2.0,-6.0,-19.0,1650823525250465.0,2
942,7.0,23.0,22.0,13.0,13.0,7.0,-1.0,0.0,1650823525266454.0,2
943,-4.0,-3.0,-11.0,-18.0,-7.0,-5.0,-17.0,-48.0,1650823525266454.0,2
944,17.0,18.0,34.0,34.0,11.0,8.0,18.0,41.0,1650823525268418.0,2
945,-8.0,-9.0,5.0,-1.0,-3.0,-6.0,-11.0,-11.0,1650823525268418.0,2
946,7.0,11.0,10.0,9.0,8.0,7.0,19.0,19.0,1650823525289361.0,2
947,-2.0,-18.0,-30.0,-19.0,-11.0,-5.0,-18.0,-11.0,1650823525289361.0,2
948,-16.0,-17.0,-8.0,-21.0,-23.0,-16.0,-16.0,-39.0,1650823525291357.0,2
949,1.0,8.0,35.0,21.0,16.0,10.0,5.0,9.0,1650823525291357.0,2
950,-2.0,-7.0,-23.0,-6.0,1.0,7.0,6.0,9.0,1650823525311302.0,2
951,13.0,20.0,3.0,18.0,25.0,14.0,19.0,24.0,1650823525311302.0,2
952,-7.0,-8.0,27.0,-4.0,-20.0,-17.0,-14.0,-17.0,1650823525313297.0,2
953,-2.0,2.0,12.0,6.0,-2.0,-3.0,0.0,6.0,1650823525313297.0,2
954,-1.0,-14.0,-25.0,-7.0,3.0,1.0,-3.0,-6.0,1650823525327268.0,2
955,-3.0,-19.0,-33.0,-24.0,1.0,0.0,14.0,15.0,1650823525327268.0,2
956,2.0,27.0,21.0,19.0,-1.0,-2.0,-6.0,-2.0,1650823525328257.0,2
957,8.0,-2.0,6.0,1.0,-6.0,2.0,9.0,22.0,1650823525328257.0,2
958,7.0,26.0,29.0,15.0,7.0,1.0,-6.0,-11.0,1650823525349201.0,2
959,2.0,-2.0,0.0,-1.0,-6.0,-1.0,3.0,10.0,1650823525349201.0,2
960,-9.0,-6.0,11.0,-10.0,-4.0,-4.0,-22.0,-35.0,1650823525351196.0,2
961,-15.0,-14.0,-4.0,-1.0,-8.0,-9.0,-5.0,4.0,1650823525351196.0,2
962,25.0,21.0,4.0,7.0,6.0,8.0,28.0,45.0,1650823525363164.0,2
963,-7.0,14.0,31.0,7.0,-2.0,1.0,2.0,-6.0,1650823525363164.0,2
964,-3.0,-24.0,-33.0,-17.0,-1.0,0.0,-10.0,11.0,1650823525370145.0,2
965,-6.0,-8.0,-29.0,-11.0,-11.0,-6.0,-12.0,-13.0,1650823525370145.0,2
966,-2.0,0.0,16.0,-1.0,0.0,-1.0,-14.0,-22.0,1650823525387099.0,2
967,-2.0,-10.0,-28.0,-23.0,1.0,-3.0,3.0,7.0,1650823525387099.0,2
968,-4.0,10.0,24.0,41.0,9.0,-1.0,-7.0,-14.0,1650823525388097.0,2
969,10.0,0.0,-44.0,-37.0,-6.0,6.0,13.0,20.0,1650823525388097.0,2
970,-22.0,-19.0,9.0,-31.0,-28.0,-19.0,-10.0,-9.0,1650823525409041.0,2
971,10.0,12.0,-10.0,17.0,12.0,10.0,6.0,5.0,1650823525409041.0,2
972,0.0,-10.0,20.0,8.0,14.0,7.0,2.0,-13.0,1650823525411036.0,2
973,-8.0,8.0,24.0,24.0,2.0,-11.0,-8.0,-10.0,1650823525411036.0,2
974,4.0,-1.0,-33.0,-27.0,-14.0,-8.0,-11.0,-2.0,1650823525424001.0,2
975,-2.0,14.0,-4.0,0.0,-1.0,-1.0,0.0,-11.0,1650823525424001.0,2
976,0.0,-15.0,-46.0,-10.0,-4.0,0.0,3.0,17.0,1650823525429985.0,2
977,-3.0,2.0,9.0,3.0,2.0,0.0,-27.0,-67.0,1650823525429985.0,2
978,21.0,14.0,1.0,22.0,21.0,17.0,36.0,50.0,1650823525446939.0,2
979,-9.0,-8.0,8.0,-7.0,-11.0,-7.0,-17.0,-11.0,1650823525446939.0,2
980,-1.0,1.0,-10.0,-1.0,-5.0,-2.0,-3.0,3.0,1650823525447937.0,2
981,-1.0,-13.0,-19.0,0.0,3.0,2.0,-4.0,-9.0,1650823525447937.0,2
982,-13.0,-10.0,8.0,-1.0,-9.0,-12.0,-10.0,-16.0,1650823525468881.0,2
983,10.0,1.0,15.0,5.0,7.0,4.0,-8.0,-23.0,1650823525468881.0,2
984,-4.0,13.0,-1.0,3.0,-5.0,1.0,10.0,-5.0,1650823525470876.0,2
985,2.0,14.0,31.0,-6.0,-1.0,-2.0,5.0,26.0,1650823525470876.0,2
986,7.0,1.0,-27.0,33.0,10.0,10.0,3.0,11.0,1650823525482844.0,2
987,-1.0,-17.0,-15.0,-29.0,23.0,5.0,4.0,4.0,1650823525482844.0,2
988,-5.0,-20.0,-47.0,-60.0,-21.0,-11.0,-2.0,-3.0,1650823525491821.0,2
989,-10.0,-15.0,16.0,11.0,-3.0,-5.0,4.0,-3.0,1650823525491821.0,2
990,-3.0,2.0,18.0,15.0,-3.0,-4.0,-6.0,-18.0,1650823525506780.0,2
991,7.0,15.0,-3.0,14.0,0.0,-2.0,12.0,35.0,1650823525506780.0,2
992,-6.0,-6.0,-12.0,2.0,0.0,-1.0,-1.0,-14.0,1650823525508775.0,2
993,6.0,4.0,-8.0,-16.0,-9.0,-2.0,5.0,15.0,1650823525508775.0,2
994,-5.0,-7.0,-2.0,-3.0,4.0,-1.0,-13.0,-24.0,1650823525529718.0,2
995,5.0,12.0,24.0,18.0,-1.0,6.0,24.0,27.0,1650823525529718.0,2
996,6.0,10.0,14.0,8.0,10.0,5.0,-10.0,1.0,1650823525530716.0,2
997,-3.0,-9.0,-19.0,-7.0,-13.0,-4.0,36.0,20.0,1650823525530716.0,2
998,3.0,13.0,28.0,18.0,14.0,8.0,7.0,3.0,1650823525542684.0,2
999,-6.0,-1.0,15.0,-7.0,-20.0,-13.0,-16.0,-23.0,1650823525542684.0,2
1000,3.0,1.0,-18.0,16.0,18.0,8.0,2.0,12.0,1650823525551659.0,2
1001,1.0,-12.0,-12.0,-15.0,1.0,4.0,-2.0,-1.0,1650823525551659.0,2
1002,-4.0,-5.0,15.0,-8.0,-3.0,-7.0,3.0,27.0,1650823525566620.0,2
1003,9.0,3.0,-1.0,-2.0,-4.0,3.0,0.0,-2.0,1650823525566620.0,2
1004,-12.0,11.0,-19.0,12.0,0.0,-4.0,-16.0,-12.0,1650823525568615.0,2
1005,-1.0,-26.0,-45.0,7.0,5.0,3.0,2.0,11.0,1650823525568615.0,2
1006,-4.0,26.0,47.0,-13.0,-5.0,-3.0,-6.0,-13.0,1650823525589558.0,2
1007,-5.0,-37.0,-59.0,-32.0,-18.0,-12.0,-11.0,-6.0,1650823525589558.0,2
1008,10.0,23.0,59.0,17.0,0.0,1.0,12.0,17.0,1650823525591554.0,2
1009,-16.0,-9.0,-7.0,5.0,0.0,-7.0,-19.0,-33.0,1650823525591554.0,2
1010,-4.0,-10.0,-20.0,-23.0,-15.0,-8.0,-11.0,28.0,1650823525602524.0,2
1011,-9.0,6.0,12.0,-1.0,-6.0,-7.0,-8.0,-12.0,1650823525602524.0,2
1012,3.0,-6.0,-7.0,-2.0,-3.0,1.0,7.0,2.0,1650823525611500.0,2
1013,0.0,10.0,24.0,12.0,8.0,5.0,1.0,9.0,1650823525611500.0,2
1014,0.0,-6.0,-16.0,-2.0,0.0,-3.0,-6.0,-11.0,1650823525626463.0,2
1015,-6.0,-1.0,3.0,0.0,-1.0,5.0,3.0,-7.0,1650823525626463.0,2
1016,2.0,-1.0,10.0,2.0,4.0,0.0,-4.0,-39.0,1650823525628455.0,2
1017,7.0,9.0,1.0,9.0,-6.0,2.0,13.0,20.0,1650823525628455.0,2
1018,1.0,-1.0,-11.0,-5.0,9.0,6.0,-1.0,-4.0,1650823525649399.0,2
1019,3.0,8.0,15.0,1.0,1.0,3.0,12.0,20.0,1650823525649399.0,2
1020,10.0,13.0,-4.0,11.0,6.0,9.0,16.0,11.0,1650823525650396.0,2
1021,3.0,10.0,51.0,16.0,5.0,1.0,-10.0,-16.0,1650823525650396.0,2
1022,-7.0,-22.0,-30.0,-24.0,-7.0,-4.0,11.0,10.0,1650823525663361.0,2
1023,8.0,1.0,15.0,12.0,-2.0,-2.0,-7.0,-1.0,1650823525663361.0,2
1024,-10.0,-18.0,0.0,-19.0,-5.0,0.0,3.0,-3.0,1650823525672337.0,2
1025,10.0,31.0,22.0,26.0,10.0,5.0,-2.0,9.0,1650823525672337.0,2
1026,-10.0,11.0,21.0,-1.0,2.0,0.0,-2.0,-14.0,1650823525687297.0,2
1027,-4.0,-28.0,4.0,-3.0,-7.0,-4.0,0.0,8.0,1650823525687297.0,2
1028,-5.0,-18.0,-12.0,-8.0,-8.0,-5.0,-5.0,-1.0,1650823525688295.0,2
1029,-5.0,2.0,-3.0,-11.0,-4.0,-2.0,1.0,6.0,1650823525688295.0,2
1030,11.0,18.0,14.0,32.0,8.0,4.0,2.0,0.0,1650823525709241.0,2
1031,3.0,18.0,9.0,-6.0,9.0,5.0,14.0,7.0,1650823525709241.0,2
1032,4.0,3.0,6.0,2.0,5.0,3.0,-4.0,10.0,1650823525711234.0,2
1033,-10.0,-20.0,-22.0,-12.0,-8.0,-10.0,-18.0,-32.0,1650823525711234.0,2
1034,0.0,-3.0,-12.0,5.0,5.0,10.0,18.0,-16.0,1650823525723201.0,2
1035,0.0,1.0,1.0,4.0,2.0,5.0,-5.0,-4.0,1650823525723201.0,2
1036,4.0,3.0,4.0,3.0,-1.0,-4.0,7.0,34.0,1650823525732177.0,2
1037,8.0,5.0,-8.0,-9.0,5.0,4.0,5.0,15.0,1650823525732177.0,2
1038,2.0,6.0,25.0,26.0,4.0,-1.0,-13.0,-16.0,1650823525747137.0,2
1039,-9.0,-9.0,-51.0,-22.0,-5.0,-1.0,3.0,-4.0,1650823525747137.0,2
1040,0.0,6.0,46.0,7.0,-2.0,5.0,7.0,-12.0,1650823525748135.0,2
1041,8.0,31.0,-36.0,-9.0,8.0,3.0,-4.0,10.0,1650823525748135.0,2
1042,-9.0,-36.0,40.0,-6.0,-7.0,-7.0,1.0,5.0,1650823525769078.0,2
1043,-8.0,-23.0,-59.0,-8.0,-4.0,-8.0,-6.0,-7.0,1650823525769078.0,2
1044,0.0,11.0,28.0,1.0,-12.0,-10.0,-5.0,10.0,1650823525771073.0,2
1045,-7.0,-1.0,-11.0,-3.0,-11.0,-5.0,-2.0,-9.0,1650823525771073.0,2
1046,7.0,10.0,19.0,2.0,1.0,0.0,-6.0,-14.0,1650823525783041.0,2
1047,5.0,16.0,24.0,16.0,11.0,11.0,8.0,6.0,1650823525783041.0,2
1048,-5.0,-4.0,-11.0,5.0,10.0,3.0,-19.0,-35.0,1650823525792017.0,2
1049,13.0,-1.0,4.0,-5.0,-8.0,1.0,20.0,33.0,1650823525792017.0,2
1050,-1.0,2.0,-18.0,-1.0,-3.0,-4.0,-13.0,-4.0,1650823525806977.0,2
1051,-9.0,-2.0,25.0,3.0,-9.0,-8.0,0.0,-11.0,1650823525806977.0,2
1052,-2.0,-4.0,-19.0,-7.0,13.0,8.0,8.0,-21.0,1650823525807974.0,2
1053,-9.0,-13.0,-3.0,11.0,-1.0,1.0,-4.0,-4.0,1650823525807974.0,2
1054,2.0,-6.0,-19.0,-23.0,-5.0,-5.0,-7.0,6.0,1650823525829915.0,2
1055,3.0,16.0,30.0,8.0,3.0,-2.0,-10.0,-23.0,1650823525829915.0,2
1056,11.0,9.0,2.0,26.0,-1.0,0.0,2.0,13.0,1650823525830913.0,2
1057,-9.0,-38.0,-34.0,-38.0,-1.0,-3.0,-2.0,-14.0,1650823525830913.0,2
1058,-6.0,-9.0,-41.0,-20.0,-12.0,-1.0,1.0,7.0,1650823525842881.0,2
1059,3.0,13.0,39.0,23.0,12.0,6.0,-1.0,-2.0,1650823525842881.0,2
1060,6.0,2.0,-33.0,-9.0,-9.0,-5.0,8.0,12.0,1650823525852363.0,2
1061,1.0,-1.0,21.0,23.0,3.0,0.0,-4.0,-6.0,1650823525852363.0,2
1062,0.0,-12.0,-39.0,-21.0,-7.0,-1.0,3.0,-7.0,1650823525867323.0,2
1063,-13.0,2.0,7.0,1.0,-6.0,-7.0,-15.0,-15.0,1650823525867323.0,2
1064,3.0,7.0,16.0,10.0,8.0,5.0,2.0,-3.0,1650823525869317.0,2
1065,4.0,11.0,10.0,-6.0,4.0,0.0,8.0,9.0,1650823525869317.0,2
1066,-3.0,-6.0,2.0,1.0,-7.0,-1.0,-10.0,-1.0,1650823525889264.0,2
1067,4.0,-2.0,-5.0,-3.0,-8.0,3.0,33.0,-12.0,1650823525889264.0,2
1068,1.0,1.0,10.0,6.0,4.0,-6.0,-40.0,4.0,1650823525891259.0,2
1069,1.0,1.0,-5.0,11.0,17.0,10.0,5.0,-10.0,1650823525891259.0,2
1070,4.0,6.0,14.0,-6.0,7.0,1.0,6.0,8.0,1650823525903227.0,2
1071,-1.0,-6.0,-13.0,-4.0,-18.0,-9.0,-19.0,-9.0,1650823525903227.0,2
1072,-1.0,1.0,-7.0,0.0,-6.0,2.0,18.0,12.0,1650823525912203.0,2
1073,0.0,6.0,27.0,1.0,-7.0,-3.0,-4.0,-5.0,1650823525912203.0,2
1074,-8.0,-21.0,-42.0,-16.0,3.0,-2.0,-5.0,-13.0,1650823525927163.0,2
1075,-9.0,-33.0,-31.0,-14.0,-6.0,-6.0,-7.0,9.0,1650823525927163.0,2
1076,-3.0,-3.0,-7.0,-15.0,-12.0,-11.0,2.0,-2.0,1650823525928160.0,2
1077,-2.0,2.0,13.0,14.0,-7.0,-6.0,-10.0,-1.0,1650823525928160.0,2
1078,1.0,17.0,21.0,11.0,4.0,2.0,5.0,0.0,1650823525949105.0,2
1079,3.0,12.0,15.0,5.0,14.0,6.0,-9.0,8.0,1650823525949105.0,2
1080,-3.0,-7.0,-6.0,-1.0,4.0,4.0,9.0,-1.0,1650823525951100.0,2
1081,2.0,-3.0,-9.0,-2.0,1.0,1.0,4.0,-12.0,1650823525951100.0,2
1082,4.0,6.0,3.0,8.0,-2.0,-2.0,0.0,7.0,1650823525972043.0,2
1083,1.0,0.0,-7.0,-6.0,-2.0,-7.0,6.0,5.0,1650823525972043.0,2
1084,-2.0,-5.0,-4.0,-9.0,-12.0,-1.0,-7.0,2.0,1650823525973041.0,2
1085,-3.0,-3.0,-1.0,-8.0,-10.0,-3.0,-1.0,-6.0,1650823525973041.0,2
1086,1.0,2.0,-3.0,9.0,8.0,9.0,0.0,6.0,1650823525987002.0,2
1087,2.0,4.0,12.0,11.0,10.0,0.0,-6.0,4.0,1650823525987002.0,2
1088,-3.0,-7.0,-2.0,-1.0,8.0,5.0,5.0,-8.0,1650823525988001.0,2
1089,-6.0,-8.0,-20.0,-11.0,-5.0,-7.0,-6.0,-1.0,1650823525988001.0,2
1090,1.0,0.0,17.0,-4.0,-8.0,-6.0,-6.0,4.0,1650823526008944.0,2
1091,-1.0,0.0,-2.0,-3.0,-28.0,-8.0,-2.0,-1.0,1650823526008944.0,2
1092,3.0,-1.0,-11.0,-1.0,10.0,2.0,1.0,1.0,1650823526010939.0,2
1093,-4.0,-8.0,-16.0,3.0,9.0,3.0,-2.0,2.0,1650823526010939.0,2
1094,4.0,10.0,7.0,18.0,12.0,9.0,6.0,3.0,1650823526031883.0,2
1095,0.0,4.0,9.0,-6.0,3.0,1.0,1.0,1.0,1650823526031883.0,2
1096,1.0,4.0,-11.0,-9.0,-5.0,-8.0,0.0,1.0,1650823526033889.0,2
1097,-5.0,-7.0,-7.0,-9.0,-9.0,1.0,-1.0,3.0,1650823526033889.0,2
1098,-3.0,-3.0,-6.0,0.0,2.0,-4.0,10.0,3.0,1650823526046843.0,2
1099,2.0,6.0,3.0,0.0,10.0,7.0,-4.0,-4.0,1650823526046843.0,2
1100,-2.0,-1.0,5.0,-1.0,-10.0,-3.0,10.0,1.0,1650823526048838.0,2
1101,2.0,-2.0,-6.0,-6.0,-1.0,-4.0,-6.0,-1.0,1650823526048838.0,2
1102,0.0,-3.0,0.0,5.0,-3.0,3.0,12.0,3.0,1650823526068784.0,2
1103,0.0,1.0,-1.0,1.0,8.0,2.0,-22.0,-4.0,1650823526068784.0,2
1104,0.0,0.0,1.0,-4.0,0.0,2.0,26.0,10.0,1650823526070779.0,2
1105,-4.0,-1.0,5.0,5.0,-1.0,-7.0,-3.0,-5.0,1650823526070779.0,2
1106,0.0,-1.0,8.0,6.0,3.0,2.0,5.0,-2.0,1650823526091722.0,2
1107,-1.0,-5.0,-2.0,-8.0,-10.0,-5.0,-3.0,1.0,1650823526091722.0,2
1108,-3.0,-5.0,3.0,-4.0,-1.0,0.0,-12.0,-6.0,1650823526093718.0,2
1109,3.0,4.0,9.0,0.0,-5.0,-1.0,4.0,4.0,1650823526093718.0,2
1110,1.0,4.0,1.0,6.0,4.0,-1.0,-6.0,-1.0,1650823526105685.0,2
1111,1.0,-5.0,-16.0,3.0,11.0,6.0,8.0,5.0,1650823526105685.0,2
1112,-3.0,6.0,19.0,-3.0,-7.0,-3.0,-11.0,-6.0,1650823526113664.0,2
1113,-1.0,1.0,3.0,-7.0,-8.0,-5.0,1.0,2.0,1650823526113664.0,2
1114,0.0,-5.0,-10.0,2.0,-4.0,-5.0,-11.0,-5.0,1650823526128624.0,2
1115,2.0,16.0,33.0,11.0,6.0,5.0,6.0,6.0,1650823526128624.0,2
1116,-6.0,-11.0,-20.0,-4.0,4.0,-1.0,2.0,4.0,1650823526129622.0,2
1117,1.0,-1.0,3.0,2.0,9.0,4.0,-13.0,-9.0,1650823526129622.0,2
1118,4.0,8.0,0.0,0.0,-9.0,3.0,-2.0,3.0,1650823526151562.0,2
1119,-6.0,-11.0,7.0,0.0,-2.0,-9.0,17.0,12.0,1650823526151562.0,2
1120,-2.0,-1.0,-1.0,0.0,-3.0,-2.0,-19.0,-22.0,1650823526151562.0,2
1121,0.0,3.0,5.0,1.0,6.0,4.0,2.0,-2.0,1650823526151562.0,2
1122,0.0,-3.0,-13.0,-3.0,3.0,3.0,-2.0,-3.0,1650823526165525.0,2
1123,3.0,3.0,4.0,-5.0,-7.0,-1.0,4.0,2.0,1650823526165525.0,2
1124,0.0,-1.0,0.0,0.0,-3.0,-2.0,2.0,4.0,1650823526173504.0,2
1125,3.0,-4.0,-8.0,-2.0,4.0,0.0,-7.0,-1.0,1650823526173504.0,2
1126,-1.0,1.0,7.0,10.0,-18.0,-7.0,2.0,-1.0,1650823526188464.0,2
1127,2.0,-1.0,-11.0,-11.0,10.0,3.0,-3.0,0.0,1650823526188464.0,2
1128,5.0,0.0,5.0,11.0,-1.0,-3.0,-1.0,4.0,1650823526189461.0,2
1129,-3.0,17.0,6.0,-6.0,4.0,11.0,6.0,0.0,1650823526189461.0,2
1130,-14.0,-19.0,-12.0,-3.0,3.0,-4.0,1.0,-1.0,1650823526211403.0,2
1131,-2.0,-8.0,-11.0,1.0,-5.0,-5.0,-6.0,-6.0,1650823526211403.0,2
1132,4.0,3.0,7.0,-3.0,0.0,1.0,-1.0,1.0,1650823526211403.0,2
1133,-7.0,-3.0,1.0,-3.0,-9.0,-3.0,3.0,5.0,1650823526211403.0,2
1134,0.0,-4.0,11.0,-2.0,-5.0,-5.0,-4.0,-3.0,1650823526225366.0,2
1135,1.0,5.0,-15.0,2.0,2.0,2.0,-4.0,-4.0,1650823526225366.0,2
1136,1.0,-5.0,6.0,5.0,2.0,4.0,7.0,14.0,1650823526233344.0,2
1137,0.0,-4.0,-6.0,-4.0,-3.0,-3.0,-3.0,-13.0,1650823526233344.0,2
1138,2.0,5.0,-5.0,-8.0,0.0,0.0,-1.0,1.0,1650823526248304.0,2
1139,3.0,10.0,7.0,8.0,1.0,1.0,-5.0,0.0,1650823526248304.0,2
1140,4.0,-3.0,7.0,7.0,5.0,1.0,4.0,7.0,1650823526249302.0,2
1141,12.0,0.0,-16.0,-14.0,-9.0,-9.0,1.0,6.0,1650823526249302.0,2
1142,-6.0,-8.0,-7.0,-9.0,-3.0,1.0,-17.0,-3.0,1650823526271242.0,2
1143,-17.0,-5.0,2.0,-2.0,-6.0,-5.0,25.0,0.0,1650823526271242.0,2
1144,-11.0,0.0,2.0,-1.0,-3.0,3.0,-16.0,-14.0,1650823526272241.0,2
1145,13.0,-5.0,8.0,12.0,10.0,6.0,4.0,5.0,1650823526272241.0,2
1146,-12.0,14.0,2.0,1.0,5.0,2.0,-4.0,-3.0,1650823526285205.0,2
1147,-1.0,-20.0,0.0,-1.0,0.0,4.0,-7.0,-4.0,1650823526285205.0,2
1148,5.0,5.0,-10.0,-6.0,5.0,-2.0,2.0,9.0,1650823526293185.0,2
1149,12.0,0.0,-3.0,9.0,-7.0,-7.0,0.0,0.0,1650823526293185.0,2
1150,9.0,17.0,9.0,6.0,5.0,3.0,1.0,5.0,1650823526308144.0,2
1151,-8.0,-15.0,-6.0,-15.0,-6.0,-4.0,-6.0,-2.0,1650823526308144.0,2
1152,-4.0,-2.0,-5.0,-11.0,-11.0,-4.0,3.0,-5.0,1650823526309141.0,2
1153,-5.0,2.0,16.0,8.0,-1.0,0.0,-5.0,-2.0,1650823526309141.0,2
1154,3.0,5.0,10.0,10.0,19.0,6.0,7.0,2.0,1650823526331083.0,2
1155,3.0,-2.0,-15.0,0.0,-2.0,-1.0,-1.0,0.0,1650823526331083.0,2
1156,11.0,16.0,20.0,9.0,13.0,5.0,-3.0,-1.0,1650823526332080.0,2
1157,-15.0,-23.0,-23.0,-11.0,-24.0,-13.0,-3.0,3.0,1650823526332080.0,2
1158,-17.0,-4.0,2.0,-6.0,-9.0,-4.0,1.0,-5.0,1650823526345045.0,2
1159,10.0,7.0,-2.0,4.0,7.0,3.0,-5.0,-3.0,1650823526345045.0,2
1160,7.0,4.0,3.0,6.0,9.0,4.0,5.0,3.0,1650823526353531.0,2
1161,-3.0,13.0,4.0,4.0,10.0,4.0,5.0,4.0,1650823526353531.0,2
1162,3.0,-17.0,-6.0,-3.0,-7.0,-7.0,-2.0,-3.0,1650823526368491.0,2
1163,0.0,-1.0,0.0,-8.0,-7.0,-3.0,-4.0,-1.0,1650823526368491.0,2
1164,6.0,0.0,-2.0,2.0,-1.0,0.0,1.0,2.0,1650823526369489.0,2
1165,1.0,3.0,4.0,-1.0,4.0,3.0,0.0,4.0,1650823526369489.0,2
1166,-14.0,-2.0,-5.0,-1.0,-7.0,-1.0,3.0,-4.0,1650823526391430.0,2
1167,2.0,-2.0,1.0,0.0,17.0,3.0,-1.0,0.0,1650823526391430.0,2
1168,-4.0,-4.0,-5.0,-1.0,-11.0,-2.0,1.0,-2.0,1650823526391430.0,2
1169,7.0,1.0,-2.0,4.0,7.0,3.0,0.0,1.0,1650823526391430.0,2
1170,5.0,-1.0,1.0,-5.0,-2.0,-2.0,-2.0,2.0,1650823526405393.0,2
1171,-5.0,5.0,1.0,3.0,-1.0,-3.0,0.0,-4.0,1650823526405393.0,2
1172,-5.0,-4.0,-10.0,-4.0,-4.0,-2.0,0.0,-3.0,1650823526421350.0,2
1173,-1.0,-2.0,1.0,-4.0,-5.0,-5.0,-4.0,-2.0,1650823526421350.0,2
1174,4.0,0.0,-3.0,1.0,2.0,3.0,2.0,1.0,1650823526428332.0,2
1175,2.0,3.0,8.0,9.0,-2.0,2.0,0.0,1.0,1650823526428332.0,2
1176,-2.0,0.0,12.0,3.0,2.0,1.0,-2.0,-1.0,1650823526429342.0,0
1177,-7.0,0.0,0.0,-3.0,0.0,2.0,0.0,-2.0,1650823526429342.0,0
1178,6.0,3.0,0.0,0.0,3.0,-2.0,0.0,2.0,1650823526451270.0,0
1179,2.0,-4.0,-4.0,0.0,-8.0,-3.0,-1.0,-2.0,1650823526451270.0,0
1180,-6.0,3.0,-3.0,-2.0,-3.0,0.0,0.0,-1.0,1650823526452268.0,0
1181,5.0,1.0,7.0,4.0,1.0,0.0,1.0,-1.0,1650823526452268.0,0
1182,5.0,-4.0,-2.0,-1.0,0.0,1.0,2.0,-1.0,1650823526465741.0,0
1183,-10.0,1.0,-7.0,-4.0,-1.0,-1.0,-3.0,-2.0,1650823526465741.0,0
1184,8.0,-4.0,-7.0,-9.0,-4.0,-4.0,-3.0,-4.0,1650823526473719.0,0
1185,-23.0,-6.0,-2.0,-4.0,-4.0,-3.0,1.0,-3.0,1650823526473719.0,0
1186,-28.0,-9.0,-4.0,9.0,9.0,3.0,2.0,-3.0,1650823526488680.0,0
1187,12.0,6.0,8.0,3.0,5.0,3.0,1.0,0.0,1650823526488680.0,0
1188,-14.0,3.0,-8.0,-6.0,4.0,0.0,-2.0,-4.0,1650823526489678.0,0
1189,4.0,-8.0,-4.0,-9.0,-21.0,-9.0,-5.0,-4.0,1650823526489678.0,0
1190,14.0,4.0,-4.0,-8.0,-2.0,-1.0,0.0,3.0,1650823526510623.0,0
1191,-6.0,7.0,6.0,10.0,1.0,4.0,5.0,1.0,1650823526510623.0,0
1192,6.0,-1.0,-4.0,2.0,9.0,3.0,-1.0,2.0,1650823526511619.0,0
1193,3.0,5.0,6.0,4.0,4.0,0.0,-1.0,-1.0,1650823526511619.0,0
1194,2.0,3.0,6.0,2.0,0.0,1.0,1.0,2.0,1650823526525582.0,0
1195,-1.0,-4.0,2.0,5.0,-9.0,-7.0,-5.0,-1.0,1650823526525582.0,0
1196,1.0,-10.0,-33.0,-33.0,-14.0,-11.0,-2.0,-3.0,1650823526533560.0,0
1197,-5.0,2.0,0.0,2.0,-3.0,2.0,-1.0,0.0,1650823526533560.0,0
1198,2.0,-3.0,-3.0,-6.0,-3.0,-2.0,-4.0,-4.0,1650823526548519.0,0
1199,5.0,6.0,3.0,10.0,10.0,6.0,5.0,3.0,1650823526548519.0,0
1200,-8.0,-5.0,6.0,12.0,1.0,4.0,-1.0,-2.0,1650823526549517.0,0
1201,-5.0,-2.0,0.0,0.0,5.0,1.0,1.0,-1.0,1650823526549517.0,0
1202,6.0,2.0,-1.0,-4.0,-1.0,-1.0,-1.0,-1.0,1650823526578949.0,0
1203,1.0,4.0,-4.0,-7.0,-18.0,-6.0,-3.0,1.0,1650823526578949.0,0
1204,-4.0,-6.0,-2.0,1.0,-2.0,0.0,3.0,0.0,1650823526579947.0,0
1205,2.0,6.0,6.0,0.0,7.0,5.0,2.0,-1.0,1650823526579947.0,0
1206,6.0,-2.0,2.0,13.0,-4.0,-3.0,-2.0,-3.0,1650823526584934.0,0
1207,-4.0,0.0,-3.0,-12.0,2.0,-3.0,-2.0,-1.0,1650823526584934.0,0
1208,-2.0,-2.0,-6.0,-7.0,-15.0,-6.0,-5.0,0.0,1650823526593909.0,0
1209,1.0,-5.0,-1.0,8.0,16.0,8.0,3.0,1.0,1650823526593909.0,0
1210,0.0,0.0,2.0,4.0,12.0,6.0,1.0,2.0,1650823526608868.0,0
1211,-5.0,-5.0,-5.0,-2.0,2.0,-1.0,-1.0,-2.0,1650823526608868.0,0
1212,2.0,7.0,16.0,5.0,-3.0,1.0,0.0,1.0,1650823526609867.0,0
1213,0.0,-4.0,-15.0,-14.0,-17.0,-8.0,-2.0,-4.0,1650823526609867.0,0
1214,-9.0,-6.0,3.0,3.0,-4.0,1.0,-1.0,-2.0,1650823526630809.0,0
1215,-1.0,-3.0,-17.0,-14.0,-7.0,-8.0,-4.0,-2.0,1650823526630809.0,0
1216,1.0,1.0,4.0,-2.0,3.0,-2.0,-1.0,0.0,1650823526631807.0,0
1217,1.0,3.0,7.0,5.0,15.0,6.0,0.0,0.0,1650823526631807.0,0
1218,4.0,2.0,-12.0,-5.0,-11.0,0.0,2.0,0.0,1650823526645770.0,0
1219,3.0,5.0,7.0,3.0,3.0,3.0,1.0,-1.0,1650823526645770.0,0
1220,-7.0,-4.0,-4.0,3.0,2.0,0.0,-2.0,-3.0,1650823526653265.0,0
1221,0.0,7.0,12.0,0.0,-13.0,-10.0,-3.0,-1.0,1650823526653265.0,0
1222,-1.0,-7.0,-5.0,-9.0,0.0,1.0,-1.0,-1.0,1650823526668218.0,0
1223,1.0,0.0,3.0,5.0,5.0,1.0,-2.0,-1.0,1650823526668218.0,0
1224,1.0,0.0,-1.0,6.0,6.0,3.0,2.0,0.0,1650823526669215.0,0
1225,-3.0,-3.0,-3.0,5.0,5.0,1.0,3.0,0.0,1650823526669215.0,0
1226,1.0,2.0,0.0,-5.0,-1.0,-4.0,-3.0,0.0,1650823526699135.0,0
1227,-1.0,-4.0,-4.0,-6.0,-1.0,1.0,-1.0,2.0,1650823526699135.0,0
1228,-1.0,1.0,6.0,9.0,3.0,-1.0,-1.0,-1.0,1650823526700140.0,0
1229,0.0,-5.0,-7.0,-11.0,-9.0,-1.0,-1.0,1.0,1650823526700140.0,0
1230,-1.0,3.0,3.0,0.0,-2.0,1.0,1.0,1.0,1650823526705120.0,0
1231,-2.0,-4.0,-3.0,1.0,11.0,-2.0,-4.0,-2.0,1650823526705120.0,0
1232,-1.0,-4.0,-2.0,-2.0,-12.0,-4.0,-1.0,-2.0,1650823526714096.0,0
1233,-1.0,1.0,0.0,1.0,5.0,1.0,1.0,-1.0,1650823526714096.0,0
1234,1.0,-4.0,6.0,2.0,-1.0,-6.0,-3.0,-1.0,1650823526729056.0,0
1235,0.0,1.0,3.0,2.0,-2.0,3.0,3.0,0.0,1650823526729056.0,0
1236,0.0,3.0,-7.0,-7.0,2.0,2.0,0.0,0.0,1650823526729056.0,0
1237,-5.0,-7.0,-5.0,-3.0,-3.0,-1.0,-2.0,-2.0,1650823526729056.0,0
1238,3.0,3.0,0.0,1.0,6.0,-2.0,-2.0,0.0,1650823526750996.0,0
1239,-1.0,-3.0,-1.0,-5.0,-16.0,-3.0,-1.0,-2.0,1650823526750996.0,0
1240,0.0,1.0,7.0,10.0,7.0,3.0,1.0,1.0,1650823526751995.0,0
1241,0.0,0.0,-2.0,2.0,0.0,-1.0,-1.0,0.0,1650823526751995.0,0
1242,0.0,-1.0,-6.0,-9.0,0.0,-3.0,-1.0,-1.0,1650823526765468.0,0
1243,1.0,-1.0,-3.0,0.0,5.0,0.0,-3.0,-1.0,1650823526765468.0,0
1244,-3.0,2.0,16.0,3.0,1.0,3.0,2.0,0.0,1650823526773447.0,0
1245,-1.0,-3.0,-2.0,1.0,0.0,1.0,-2.0,-1.0,1650823526773447.0,0
1246,0.0,-3.0,-5.0,-2.0,-5.0,-2.0,-2.0,-3.0,1650823526788406.0,0
1247,-1.0,3.0,-2.0,-3.0,-11.0,-8.0,-2.0,-1.0,1650823526788406.0,0
1248,-3.0,-6.0,-4.0,-6.0,-5.0,-5.0,-2.0,-1.0,1650823526789404.0,0
1249,0.0,1.0,3.0,4.0,13.0,8.0,6.0,1.0,1650823526789404.0,0
1250,2.0,2.0,1.0,-1.0,-5.0,-3.0,0.0,0.0,1650823526811346.0,0
1251,1.0,1.0,-2.0,2.0,4.0,6.0,0.0,0.0,1650823526811346.0,0
1252,-3.0,-5.0,4.0,-2.0,1.0,-4.0,-5.0,-2.0,1650823526812343.0,0
1253,0.0,-1.0,-2.0,-6.0,-9.0,-2.0,-1.0,-3.0,1650823526812343.0,0
1254,0.0,0.0,-4.0,3.0,-5.0,5.0,5.0,1.0,1650823526825308.0,0
1255,-1.0,-1.0,3.0,3.0,5.0,-2.0,2.0,1.0,1650823526825308.0,0
1256,1.0,0.0,-2.0,-4.0,-1.0,-3.0,0.0,0.0,1650823526833287.0,0
1257,0.0,-3.0,-2.0,-4.0,-8.0,-7.0,-7.0,0.0,1650823526833287.0,0
1258,-1.0,1.0,1.0,2.0,11.0,7.0,-1.0,-1.0,1650823526848249.0,0
1259,-2.0,-2.0,0.0,6.0,1.0,-3.0,3.0,1.0,1650823526848249.0,0
1260,4.0,3.0,-3.0,1.0,-1.0,2.0,0.0,2.0,1650823526856225.0,0
1261,-2.0,-1.0,4.0,6.0,3.0,-3.0,-2.0,0.0,1650823526856225.0,0
1262,-2.0,-5.0,-6.0,-12.0,-2.0,-1.0,1.0,-1.0,1650823526871211.0,0
1263,2.0,3.0,2.0,-1.0,-3.0,-2.0,-2.0,-1.0,1650823526871211.0,0
1264,-2.0,-4.0,-6.0,-4.0,2.0,0.0,0.0,-2.0,1650823526872209.0,0
1265,0.0,-1.0,-5.0,-6.0,-10.0,-2.0,0.0,0.0,1650823526872209.0,0
1266,-1.0,1.0,5.0,8.0,0.0,-2.0,-1.0,-1.0,1650823526894150.0,0
1267,-1.0,0.0,4.0,4.0,7.0,5.0,1.0,-1.0,1650823526894150.0,0
1268,0.0,-2.0,-18.0,-13.0,-1.0,1.0,-1.0,0.0,1650823526895148.0,0
1269,0.0,2.0,2.0,8.0,12.0,5.0,1.0,0.0,1650823526895148.0,0
1270,2.0,0.0,-1.0,-4.0,-18.0,-7.0,0.0,0.0,1650823526909118.0,0
1271,-2.0,-6.0,-6.0,1.0,2.0,-5.0,-2.0,-1.0,1650823526909118.0,0
1272,1.0,-1.0,-1.0,-4.0,-8.0,0.0,1.0,2.0,1650823526909118.0,0
1273,-3.0,-5.0,-3.0,-8.0,4.0,0.0,-3.0,-3.0,1650823526909118.0,0
1274,-2.0,4.0,1.0,6.0,10.0,2.0,1.0,1.0,1650823526931053.0,0
1275,-2.0,2.0,5.0,0.0,-1.0,4.0,1.0,-1.0,1650823526931053.0,0
1276,2.0,2.0,-1.0,6.0,5.0,0.0,0.0,-1.0,1650823526932049.0,0
1277,0.0,-2.0,0.0,-6.0,-9.0,-2.0,-1.0,1.0,1650823526932049.0,0
1278,1.0,-3.0,-3.0,-8.0,-10.0,-9.0,-2.0,-4.0,1650823526953992.0,0
1279,-3.0,-1.0,-4.0,-3.0,-9.0,-8.0,-3.0,0.0,1650823526953992.0,0
1280,-2.0,1.0,2.0,7.0,8.0,5.0,2.0,-1.0,1650823526954992.0,0
1281,2.0,4.0,0.0,3.0,5.0,6.0,3.0,1.0,1650823526954992.0,0
1282,0.0,1.0,5.0,9.0,1.0,2.0,-1.0,0.0,1650823526977111.0,0
1283,1.0,-1.0,0.0,1.0,8.0,3.0,-1.0,-1.0,1650823526977111.0,0
1284,-2.0,-7.0,-24.0,-19.0,-7.0,-6.0,-3.0,-2.0,1650823526978066.0,0
1285,-2.0,1.0,2.0,2.0,11.0,3.0,1.0,-1.0,1650823526978066.0,0
1286,1.0,1.0,0.0,-5.0,-7.0,-3.0,0.0,0.0,1650823526991059.0,0
1287,2.0,2.0,0.0,-2.0,-12.0,-3.0,-1.0,0.0,1650823526991059.0,0
1288,-1.0,2.0,7.0,5.0,-2.0,-1.0,0.0,0.0,1650823526992036.0,0
1289,0.0,1.0,-2.0,-2.0,2.0,0.0,-1.0,1.0,1650823526992036.0,0
1290,-3.0,-2.0,-2.0,2.0,7.0,6.0,-1.0,-3.0,1650823527013981.0,0
1291,0.0,-2.0,0.0,-1.0,2.0,-7.0,-1.0,0.0,1650823527013981.0,0
1292,2.0,-1.0,3.0,5.0,-3.0,-7.0,-1.0,-1.0,1650823527014968.0,0
1293,-2.0,-2.0,-7.0,-4.0,-8.0,-1.0,1.0,0.0,1650823527014968.0,0
1294,-2.0,-1.0,11.0,3.0,5.0,4.0,-3.0,-3.0,1650823527028930.0,0
1295,-2.0,-2.0,-2.0,3.0,5.0,9.0,4.0,-1.0,1650823527028930.0,0
1296,-1.0,2.0,7.0,0.0,-1.0,-2.0,-1.0,-2.0,1650823527028930.0,0
1297,-1.0,-1.0,-8.0,-10.0,-11.0,-13.0,-4.0,-2.0,1650823527028930.0,0
1298,0.0,0.0,-4.0,-1.0,2.0,0.0,-1.0,2.0,1650823527050938.0,0
1299,-1.0,3.0,9.0,1.0,0.0,3.0,3.0,-1.0,1650823527050938.0,0
1300,-1.0,-1.0,3.0,7.0,11.0,3.0,0.0,0.0,1650823527051875.0,0
1301,-1.0,1.0,5.0,5.0,-12.0,-3.0,-1.0,0.0,1650823527051875.0,0
1302,0.0,-1.0,-4.0,-4.0,-5.0,-6.0,-3.0,-1.0,1650823527073857.0,0
1303,2.0,0.0,1.0,-2.0,-2.0,-3.0,-3.0,-1.0,1650823527073857.0,0
1304,-1.0,-2.0,-1.0,-2.0,-1.0,-2.0,-3.0,0.0,1650823527074826.0,0
1305,2.0,-3.0,-2.0,-4.0,-14.0,-7.0,-3.0,-2.0,1650823527074826.0,0
1306,0.0,2.0,1.0,1.0,10.0,7.0,2.0,1.0,1650823527088816.0,0
1307,1.0,2.0,2.0,8.0,12.0,6.0,4.0,1.0,1650823527088816.0,0
1308,1.0,0.0,-2.0,-1.0,6.0,3.0,3.0,1.0,1650823527089786.0,0
1309,-1.0,0.0,-2.0,-1.0,0.0,-2.0,0.0,-2.0,1650823527089786.0,0
1310,-1.0,-13.0,-8.0,-6.0,-10.0,-9.0,-4.0,-2.0,1650823527110923.0,0
1311,-3.0,-1.0,-3.0,-12.0,-12.0,-3.0,-2.0,-2.0,1650823527110923.0,0
1312,-1.0,0.0,1.0,4.0,1.0,3.0,0.0,-1.0,1650823527111919.0,0
1313,2.0,4.0,4.0,5.0,7.0,0.0,2.0,1.0,1650823527111919.0,0
1314,1.0,2.0,-2.0,-3.0,5.0,1.0,4.0,1.0,1650823527134958.0,0
1315,0.0,0.0,-3.0,-5.0,-5.0,1.0,-3.0,0.0,1650823527134958.0,0
1316,-1.0,-1.0,1.0,4.0,-3.0,0.0,0.0,0.0,1650823527135955.0,0
1317,0.0,0.0,4.0,1.0,-3.0,-1.0,-1.0,-1.0,1650823527135955.0,0
1318,1.0,0.0,-5.0,-3.0,2.0,-1.0,-2.0,0.0,1650823527148986.0,0
1319,-3.0,-3.0,-3.0,0.0,-3.0,-2.0,-1.0,-2.0,1650823527148986.0,0
1320,-1.0,2.0,0.0,-7.0,-6.0,-3.0,-2.0,-1.0,1650823527149921.0,0
1321,-1.0,-1.0,0.0,3.0,7.0,3.0,-1.0,0.0,1650823527149921.0,0
1322,-1.0,2.0,1.0,4.0,9.0,7.0,4.0,0.0,1650823527170995.0,0
1323,0.0,0.0,-2.0,0.0,-11.0,-7.0,-3.0,2.0,1650823527170995.0,0
1324,-1.0,-1.0,-1.0,-4.0,-12.0,-7.0,-3.0,-3.0,1650823527171929.0,0
1325,-2.0,-4.0,-4.0,-4.0,-1.0,-1.0,-1.0,-3.0,1650823527171929.0,0
1326,0.0,0.0,2.0,4.0,8.0,3.0,-1.0,1.0,1650823527193897.0,0
1327,1.0,1.0,2.0,5.0,16.0,8.0,2.0,2.0,1650823527193897.0,0
1328,-1.0,0.0,-2.0,-2.0,5.0,3.0,2.0,0.0,1650823527194877.0,0
1329,1.0,0.0,-4.0,-1.0,-5.0,-3.0,-2.0,-1.0,1650823527194877.0,0
1330,-2.0,-1.0,7.0,-7.0,-11.0,-4.0,-1.0,-1.0,1650823527208860.0,0
1331,0.0,0.0,-10.0,-2.0,0.0,-5.0,-1.0,-2.0,1650823527208860.0,0
1332,-2.0,-4.0,-21.0,-9.0,1.0,-1.0,-1.0,1.0,1650823527209828.0,0
1333,0.0,1.0,0.0,-2.0,7.0,2.0,1.0,2.0,1650823527209828.0,0
1334,0.0,-3.0,-3.0,2.0,-13.0,-4.0,0.0,0.0,1650823527230834.0,0
1335,-1.0,-1.0,0.0,-5.0,-10.0,-7.0,-4.0,-2.0,1650823527230834.0,0
1336,-3.0,0.0,16.0,2.0,-3.0,1.0,1.0,-4.0,1650823527231774.0,0
1337,0.0,2.0,-4.0,1.0,6.0,5.0,1.0,1.0,1650823527231774.0,0
1338,0.0,5.0,-1.0,3.0,9.0,2.0,0.0,-1.0,1650823527253710.0,0
1339,-2.0,-5.0,-2.0,-7.0,-7.0,-7.0,-2.0,-2.0,1650823527253710.0,0
1340,2.0,1.0,4.0,11.0,-1.0,0.0,0.0,1.0,1650823527254715.0,0
1341,-1.0,-2.0,-10.0,-9.0,1.0,0.0,-1.0,-2.0,1650823527254715.0,0
1342,0.0,4.0,4.0,1.0,-3.0,-1.0,0.0,-1.0,1650823527268737.0,0
1343,0.0,-3.0,-2.0,-5.0,-2.0,1.0,-1.0,-1.0,1650823527268737.0,0
1344,-2.0,-1.0,-3.0,-4.0,-2.0,-4.0,-2.0,-3.0,1650823527269668.0,0
1345,-1.0,0.0,5.0,10.0,5.0,9.0,4.0,0.0,1650823527269668.0,0
1346,0.0,1.0,1.0,-2.0,-1.0,0.0,-2.0,2.0,1650823527291621.0,0
1347,1.0,-1.0,-7.0,0.0,5.0,2.0,-1.0,0.0,1650823527291621.0,0
1348,1.0,0.0,4.0,1.0,1.0,-2.0,1.0,1.0,1650823527291621.0,0
1349,1.0,0.0,5.0,10.0,-2.0,-2.0,-1.0,0.0,1650823527291621.0,0
1350,0.0,-3.0,-4.0,-12.0,-5.0,-4.0,0.0,-2.0,1650823527313618.0,0
1351,-1.0,-3.0,1.0,-8.0,-2.0,0.0,-3.0,-1.0,1650823527313618.0,0
1352,0.0,-3.0,-1.0,1.0,0.0,1.0,0.0,-1.0,1650823527314548.0,0
1353,0.0,0.0,13.0,3.0,-9.0,-2.0,-1.0,-1.0,1650823527314548.0,0
1354,0.0,1.0,7.0,7.0,2.0,1.0,0.0,0.0,1650823527328518.0,0
1355,2.0,2.0,2.0,5.0,9.0,8.0,4.0,0.0,1650823527328518.0,0
1356,-1.0,0.0,-6.0,-3.0,-4.0,-3.0,-2.0,0.0,1650823527329508.0,0
1357,1.0,0.0,-1.0,2.0,1.0,-2.0,-1.0,-1.0,1650823527329508.0,0
1358,-1.0,-2.0,-4.0,-2.0,-2.0,-3.0,-3.0,0.0,1650823527350938.0,0
1359,-2.0,1.0,-1.0,1.0,-7.0,-2.0,0.0,-1.0,1650823527350938.0,0
1360,1.0,1.0,5.0,6.0,4.0,6.0,4.0,-1.0,1650823527351937.0,0
1361,2.0,3.0,4.0,2.0,4.0,0.0,1.0,1.0,1650823527351937.0,0
1362,-1.0,-4.0,-11.0,-4.0,5.0,3.0,-1.0,-1.0,1650823527373755.0,0
1363,-3.0,-3.0,-11.0,-5.0,0.0,-1.0,-2.0,-2.0,1650823527373755.0,0
1364,-2.0,-4.0,0.0,-10.0,-13.0,-4.0,-5.0,-2.0,1650823527374732.0,0
1365,-1.0,-2.0,-2.0,-2.0,3.0,0.0,0.0,9.0,1650823527374732.0,0
1366,2.0,2.0,0.0,3.0,4.0,3.0,0.0,-2.0,1650823527389083.0,0
1367,-3.0,1.0,14.0,8.0,-1.0,0.0,2.0,-2.0,1650823527389083.0,0
1368,1.0,2.0,-5.0,-4.0,-5.0,-5.0,-2.0,-3.0,1650823527389083.0,0
1369,0.0,3.0,11.0,-2.0,6.0,4.0,0.0,-4.0,1650823527389083.0,0
1370,-1.0,-17.0,-24.0,-7.0,-3.0,-2.0,3.0,29.0,1650823527411054.0,0
1371,0.0,12.0,8.0,0.0,-5.0,0.0,-6.0,-27.0,1650823527411054.0,0
1372,-1.0,-2.0,-2.0,2.0,9.0,3.0,0.0,-1.0,1650823527412025.0,0
1373,-2.0,-4.0,0.0,-1.0,-7.0,-7.0,-5.0,-12.0,1650823527412025.0,0
1374,1.0,7.0,8.0,7.0,6.0,4.0,2.0,3.0,1650823527433774.0,0
1375,5.0,4.0,4.0,2.0,-1.0,1.0,3.0,12.0,1650823527433774.0,0
1376,-7.0,-14.0,2.0,-6.0,-7.0,-4.0,-3.0,-3.0,1650823527434711.0,0
1377,-2.0,-8.0,-9.0,-7.0,-1.0,-7.0,-1.0,0.0,1650823527434711.0,0
1378,-4.0,-5.0,0.0,4.0,-3.0,-2.0,0.0,-9.0,1650823527457145.0,0
1379,1.0,1.0,2.0,8.0,11.0,6.0,5.0,15.0,1650823527457145.0,0
1380,4.0,7.0,10.0,4.0,1.0,1.0,-4.0,-18.0,1650823527457145.0,0
1381,0.0,2.0,5.0,8.0,2.0,3.0,0.0,5.0,1650823527457145.0,0
1382,-1.0,4.0,-6.0,-10.0,-6.0,-2.0,-2.0,-3.0,1650823527471147.0,0
1383,-4.0,-15.0,-25.0,-16.0,-5.0,-5.0,-1.0,-6.0,1650823527471147.0,0
1384,-2.0,-4.0,12.0,-2.0,-1.0,-2.0,0.0,9.0,1650823527472078.0,0
1385,0.0,5.0,9.0,11.0,-12.0,-2.0,0.0,-1.0,1650823527472078.0,0
1386,-3.0,-2.0,-4.0,-19.0,-7.0,2.0,1.0,-17.0,1650823527494108.0,0
1387,3.0,6.0,4.0,18.0,13.0,5.0,5.0,15.0,1650823527494108.0,0
1388,-1.0,-2.0,-7.0,-7.0,2.0,-4.0,0.0,2.0,1650823527494108.0,0
1389,-2.0,-14.0,-28.0,-11.0,-6.0,-2.0,0.0,-2.0,1650823527494108.0,0
1390,7.0,19.0,35.0,27.0,4.0,-1.0,0.0,0.0,1650823527508128.0,0
1391,-7.0,-19.0,-46.0,-27.0,-12.0,-3.0,-2.0,-3.0,1650823527508128.0,0
1392,-6.0,-8.0,-16.0,-18.0,-11.0,-3.0,-3.0,-6.0,1650823527515763.0,0
1393,7.0,21.0,39.0,25.0,15.0,0.0,2.0,-1.0,1650823527515763.0,0
1394,-1.0,-8.0,-38.0,-14.0,-2.0,-6.0,-1.0,2.0,1650823527532742.0,0
1395,-5.0,-15.0,-10.0,-17.0,-9.0,-7.0,-3.0,4.0,1650823527532742.0,0
1396,2.0,6.0,7.0,16.0,6.0,6.0,-5.0,-9.0,1650823527532742.0,0
1397,0.0,1.0,7.0,-1.0,4.0,7.0,0.0,-9.0,1650823527532742.0,0
1398,7.0,19.0,38.0,37.0,7.0,5.0,6.0,12.0,1650823527553738.0,0
1399,-8.0,-26.0,-13.0,-23.0,-8.0,-9.0,-4.0,14.0,1650823527553738.0,0
1400,-2.0,0.0,-14.0,-16.0,-7.0,-7.0,-6.0,-29.0,1650823527554708.0,0
1401,-2.0,3.0,12.0,1.0,-8.0,-5.0,0.0,-13.0,1650823527554708.0,0
1402,2.0,-2.0,-4.0,-7.0,7.0,1.0,-4.0,-9.0,1650823527567675.0,0
1403,0.0,2.0,7.0,15.0,1.0,-4.0,-5.0,-15.0,1650823527567675.0,0
1404,5.0,5.0,16.0,7.0,-3.0,6.0,4.0,20.0,1650823527576650.0,0
1405,-4.0,-11.0,-44.0,-22.0,2.0,-1.0,-1.0,-3.0,1650823527576650.0,0
1406,-5.0,-1.0,-6.0,-7.0,-14.0,-7.0,-8.0,18.0,1650823527591059.0,3
1407,4.0,12.0,26.0,10.0,6.0,7.0,4.0,-16.0,1650823527591059.0,3
1408,2.0,-1.0,5.0,9.0,9.0,3.0,6.0,19.0,1650823527592030.0,3
1409,1.0,6.0,6.0,4.0,2.0,-2.0,5.0,5.0,1650823527592030.0,3
1410,-4.0,-13.0,-18.0,-12.0,-6.0,-5.0,-6.0,1.0,1650823527614076.0,3
1411,2.0,13.0,26.0,15.0,3.0,4.0,5.0,9.0,1650823527614076.0,3
1412,-4.0,-5.0,0.0,7.0,2.0,-4.0,-16.0,-24.0,1650823527614076.0,3
1413,2.0,5.0,-10.0,-9.0,-6.0,-6.0,-3.0,20.0,1650823527614076.0,3
1414,3.0,-1.0,29.0,1.0,0.0,1.0,5.0,1.0,1650823527628215.0,3
1415,-6.0,-20.0,-37.0,-11.0,-8.0,-2.0,-3.0,-5.0,1650823527628215.0,3
1416,1.0,2.0,1.0,2.0,0.0,0.0,4.0,4.0,1650823527636195.0,3
1417,-7.0,-5.0,-5.0,-7.0,4.0,6.0,1.0,6.0,1650823527636195.0,3
1418,0.0,0.0,27.0,24.0,-2.0,-8.0,-6.0,-8.0,1650823527650912.0,3
1419,8.0,28.0,17.0,-12.0,-2.0,0.0,5.0,7.0,1650823527650912.0,3
1420,-11.0,-39.0,-42.0,-14.0,-2.0,1.0,1.0,-2.0,1650823527651922.0,3
1421,1.0,-10.0,5.0,9.0,8.0,3.0,7.0,9.0,1650823527651922.0,3
1422,-4.0,0.0,-34.0,-11.0,4.0,2.0,-7.0,-18.0,1650823527673922.0,3
1423,11.0,21.0,25.0,22.0,2.0,1.0,-8.0,-32.0,1650823527673922.0,3
1424,-5.0,-12.0,2.0,-4.0,-13.0,-8.0,10.0,51.0,1650823527674850.0,3
1425,4.0,6.0,44.0,17.0,4.0,9.0,-4.0,-9.0,1650823527674850.0,3
1426,0.0,-15.0,-70.0,-12.0,-2.0,0.0,14.0,15.0,1650823527687815.0,3
1427,-6.0,-6.0,13.0,-25.0,-14.0,-11.0,-8.0,-10.0,1650823527687815.0,3
1428,16.0,15.0,36.0,30.0,15.0,14.0,22.0,24.0,1650823527695794.0,3
1429,4.0,-2.0,-33.0,-19.0,-1.0,-5.0,-8.0,-10.0,1650823527695794.0,3
1430,4.0,8.0,29.0,12.0,-1.0,4.0,1.0,8.0,1650823527710817.0,3
1431,4.0,6.0,0.0,21.0,11.0,3.0,0.0,-6.0,1650823527710817.0,3
1432,0.0,-7.0,-32.0,-39.0,-10.0,-2.0,0.0,-9.0,1650823527711759.0,3
1433,-4.0,2.0,26.0,28.0,0.0,0.0,0.0,-7.0,1650823527711759.0,3
1434,8.0,9.0,-24.0,-16.0,4.0,1.0,-4.0,-8.0,1650823527733760.0,3
1435,0.0,-3.0,16.0,28.0,11.0,8.0,30.0,58.0,1650823527733760.0,3
1436,2.0,20.0,25.0,-12.0,-12.0,-10.0,-40.0,-74.0,1650823527740705.0,3
1437,2.0,7.0,-32.0,-17.0,-8.0,-1.0,4.0,10.0,1650823527740705.0,3
1438,-18.0,-5.0,24.0,15.0,0.0,5.0,-12.0,-71.0,1650823527747656.0,3
1439,20.0,14.0,-11.0,5.0,21.0,15.0,18.0,72.0,1650823527747656.0,3
1440,4.0,-1.0,-13.0,13.0,10.0,4.0,22.0,32.0,1650823527756658.0,3
1441,-15.0,-29.0,7.0,-16.0,0.0,-3.0,-7.0,-18.0,1650823527756658.0,3
1442,7.0,23.0,8.0,5.0,-10.0,-5.0,4.0,15.0,1650823527770652.0,3
1443,-16.0,-10.0,-16.0,-40.0,-20.0,-14.0,-22.0,-40.0,1650823527770652.0,3
1444,3.0,-3.0,-40.0,14.0,7.0,2.0,-1.0,0.0,1650823527771655.0,3
1445,9.0,20.0,3.0,6.0,4.0,4.0,11.0,27.0,1650823527771655.0,3
1446,-15.0,-37.0,-70.0,-65.0,-22.0,-16.0,-42.0,-48.0,1650823527793800.0,3
1447,-8.0,-12.0,27.0,7.0,1.0,1.0,-7.0,-15.0,1650823527793800.0,3
1448,3.0,17.0,24.0,7.0,8.0,2.0,3.0,23.0,1650823527794730.0,3
1449,6.0,5.0,8.0,29.0,-5.0,-3.0,-9.0,-6.0,1650823527794730.0,3
1450,-16.0,-10.0,-26.0,-7.0,7.0,2.0,23.0,35.0,1650823527816819.0,3
1451,7.0,-1.0,-4.0,-3.0,-7.0,-7.0,3.0,9.0,1650823527816819.0,3
1452,19.0,52.0,62.0,34.0,11.0,11.0,17.0,12.0,1650823527817751.0,3
1453,-17.0,-68.0,-86.0,-52.0,-19.0,-9.0,-4.0,-8.0,1650823527817751.0,3
1454,4.0,16.0,66.0,42.0,17.0,3.0,10.0,22.0,1650823527830713.0,3
1455,-8.0,-18.0,-24.0,-37.0,-18.0,-7.0,3.0,18.0,1650823527830713.0,3
1456,-9.0,1.0,15.0,21.0,6.0,1.0,-12.0,-27.0,1650823527831725.0,3
1457,11.0,30.0,26.0,8.0,3.0,6.0,-3.0,-8.0,1650823527831725.0,3
1458,10.0,-6.0,22.0,-4.0,-5.0,-5.0,8.0,23.0,1650823527854136.0,3
1459,-17.0,-12.0,-44.0,-9.0,-10.0,-12.0,-14.0,-28.0,1650823527854136.0,3
1460,7.0,-31.0,14.0,7.0,5.0,3.0,2.0,14.0,1650823527854136.0,3
1461,-22.0,18.0,29.0,-13.0,-10.0,-8.0,-2.0,-17.0,1650823527854136.0,3
1462,-1.0,-5.0,26.0,14.0,9.0,6.0,-8.0,-21.0,1650823527877004.0,3
1463,14.0,28.0,40.0,35.0,2.0,1.0,5.0,44.0,1650823527877004.0,3
1464,-7.0,-27.0,-29.0,2.0,-16.0,-8.0,5.0,12.0,1650823527877960.0,3
1465,3.0,3.0,-37.0,-37.0,6.0,2.0,-2.0,0.0,1650823527877960.0,3
1466,3.0,13.0,11.0,11.0,6.0,5.0,-5.0,-29.0,1650823527891014.0,3
1467,-1.0,1.0,27.0,31.0,8.0,2.0,7.0,2.0,1650823527891014.0,3
1468,-8.0,12.0,-38.0,-14.0,-2.0,-2.0,-15.0,-61.0,1650823527891896.0,3
1469,6.0,-14.0,-63.0,-30.0,-5.0,3.0,10.0,33.0,1650823527891896.0,3
1470,-5.0,3.0,24.0,2.0,-4.0,-2.0,-3.0,-18.0,1650823527913646.0,3
1471,6.0,-11.0,-27.0,-4.0,2.0,-2.0,-6.0,16.0,1650823527913646.0,3
1472,-1.0,10.0,25.0,36.0,7.0,1.0,-2.0,-2.0,1650823527914642.0,3
1473,-14.0,-29.0,-59.0,-46.0,-9.0,-6.0,-2.0,-8.0,1650823527914642.0,3
1474,2.0,9.0,-7.0,-16.0,-3.0,0.0,8.0,34.0,1650823527936705.0,3
1475,-10.0,-48.0,-35.0,-14.0,0.0,-1.0,-31.0,-95.0,1650823527936705.0,3
1476,2.0,27.0,32.0,-2.0,6.0,8.0,6.0,22.0,1650823527937675.0,3
1477,0.0,-13.0,18.0,16.0,-12.0,-12.0,-4.0,-1.0,1650823527937675.0,3
1478,10.0,4.0,0.0,0.0,-6.0,-4.0,-2.0,13.0,1650823527950755.0,3
1479,-5.0,20.0,12.0,14.0,6.0,4.0,-6.0,-16.0,1650823527950755.0,3
1480,5.0,7.0,-12.0,-6.0,13.0,5.0,4.0,11.0,1650823527951757.0,3
1481,-2.0,-30.0,4.0,5.0,1.0,1.0,1.0,-5.0,1650823527951757.0,3
1482,-10.0,-15.0,-6.0,-13.0,-16.0,-11.0,-2.0,-4.0,1650823527973723.0,3
1483,-1.0,27.0,37.0,29.0,12.0,5.0,0.0,-10.0,1650823527973723.0,3
1484,7.0,-6.0,-27.0,-22.0,-4.0,-1.0,0.0,0.0,1650823527974702.0,3
1485,-14.0,17.0,46.0,12.0,-3.0,-11.0,-4.0,13.0,1650823527974702.0,3
1486,1.0,-14.0,-25.0,2.0,-1.0,0.0,5.0,16.0,1650823527996862.0,3
1487,-12.0,1.0,-11.0,3.0,2.0,-3.0,-1.0,-22.0,1650823527996862.0,3
1488,3.0,-10.0,-6.0,-35.0,-24.0,-17.0,-8.0,7.0,1650823527997851.0,3
1489,18.0,29.0,41.0,17.0,4.0,6.0,14.0,16.0,1650823527997851.0,3
1490,-3.0,-36.0,15.0,22.0,2.0,2.0,-4.0,-14.0,1650823528010843.0,3
1491,-1.0,17.0,0.0,-8.0,-1.0,8.0,3.0,13.0,1650823528010843.0,3
1492,-10.0,-3.0,-57.0,-42.0,-4.0,-5.0,-5.0,-13.0,1650823528011812.0,3
1493,5.0,-9.0,48.0,21.0,-1.0,1.0,-1.0,-9.0,1650823528011812.0,3
1494,-2.0,-3.0,-28.0,-9.0,6.0,2.0,0.0,7.0,1650823528041800.0,3
1495,19.0,37.0,80.0,47.0,8.0,8.0,12.0,14.0,1650823528041800.0,3
1496,-17.0,-45.0,-47.0,-43.0,-12.0,-7.0,-5.0,-5.0,1650823528042731.0,3
1497,-1.0,-2.0,-27.0,5.0,3.0,2.0,-5.0,0.0,1650823528042731.0,3
1498,8.0,8.0,-4.0,-5.0,-6.0,-3.0,-2.0,1.0,1650823528056720.0,3
1499,-2.0,2.0,-3.0,-9.0,-4.0,-4.0,14.0,30.0,1650823528056720.0,3
1500,-10.0,1.0,7.0,8.0,0.0,-6.0,-17.0,-9.0,1650823528057690.0,3
1501,7.0,16.0,33.0,24.0,8.0,2.0,-1.0,16.0,1650823528057690.0,3
1502,-1.0,-8.0,-7.0,-2.0,2.0,0.0,3.0,-1.0,1650823528070655.0,3
1503,17.0,-9.0,-29.0,-20.0,-6.0,1.0,-5.0,19.0,1650823528070655.0,3
1504,-6.0,1.0,26.0,11.0,0.0,-1.0,6.0,12.0,1650823528071665.0,3
1505,4.0,14.0,39.0,29.0,8.0,3.0,-11.0,-60.0,1650823528071665.0,3
1506,-11.0,10.0,-8.0,-14.0,-9.0,-6.0,2.0,7.0,1650823528093594.0,3
1507,-11.0,-50.0,-32.0,-28.0,-14.0,-11.0,-14.0,-26.0,1650823528093594.0,3
1508,7.0,14.0,-21.0,8.0,5.0,13.0,11.0,10.0,1650823528094591.0,3
1509,-16.0,-32.0,-33.0,-15.0,0.0,-7.0,-12.0,-12.0,1650823528094591.0,3
1510,3.0,8.0,11.0,-10.0,-10.0,0.0,11.0,10.0,1650823528116599.0,3
1511,4.0,46.0,72.0,8.0,-12.0,-4.0,-6.0,-17.0,1650823528116599.0,3
1512,-14.0,-62.0,-55.0,-5.0,18.0,1.0,3.0,2.0,1650823528117530.0,3
1513,8.0,25.0,21.0,33.0,10.0,9.0,14.0,17.0,1650823528117530.0,3
1514,-11.0,-8.0,-48.0,-25.0,-4.0,-4.0,-2.0,-16.0,1650823528131556.0,3
1515,0.0,-9.0,-2.0,-3.0,-4.0,-9.0,-1.0,12.0,1650823528131556.0,3
1516,7.0,26.0,40.0,8.0,-12.0,-4.0,12.0,32.0,1650823528131556.0,3
1517,4.0,6.0,-21.0,-12.0,3.0,2.0,0.0,2.0,1650823528131556.0,3
1518,-6.0,-8.0,7.0,4.0,2.0,0.0,17.0,25.0,1650823528153433.0,3
1519,-10.0,-1.0,12.0,2.0,3.0,-1.0,-13.0,-32.0,1650823528153433.0,3
1520,5.0,-4.0,-14.0,-6.0,-6.0,-6.0,-11.0,-25.0,1650823528154431.0,3
1521,24.0,5.0,1.0,1.0,1.0,4.0,19.0,49.0,1650823528154431.0,3
1522,10.0,22.0,28.0,8.0,4.0,7.0,-3.0,-6.0,1650823528176373.0,3
1523,-1.0,-2.0,-7.0,1.0,1.0,0.0,4.0,2.0,1650823528176373.0,3
1524,-15.0,-8.0,-40.0,3.0,3.0,2.0,-12.0,-53.0,1650823528177389.0,3
1525,8.0,34.0,57.0,-6.0,-7.0,2.0,7.0,26.0,1650823528177389.0,3
1526,-1.0,-35.0,-47.0,1.0,28.0,10.0,-10.0,-20.0,1650823528191397.0,3
1527,-1.0,-19.0,-9.0,-16.0,1.0,4.0,11.0,19.0,1650823528191397.0,3
1528,3.0,15.0,35.0,18.0,-9.0,-6.0,-13.0,-34.0,1650823528192330.0,3
1529,-1.0,-5.0,-22.0,4.0,-1.0,-4.0,2.0,14.0,1650823528192330.0,3
1530,12.0,29.0,2.0,7.0,3.0,2.0,-2.0,-2.0,1650823528213274.0,3
1531,-19.0,-20.0,-43.0,-24.0,1.0,0.0,4.0,9.0,1650823528213274.0,3
1532,0.0,7.0,55.0,13.0,-5.0,0.0,3.0,4.0,1650823528214280.0,3
1533,-11.0,1.0,-18.0,-1.0,-1.0,-3.0,-19.0,-16.0,1650823528214280.0,3
1534,-3.0,0.0,-3.0,-2.0,-6.0,-9.0,0.0,14.0,1650823528236817.0,3
1535,1.0,-1.0,-14.0,8.0,11.0,6.0,-11.0,-44.0,1650823528236817.0,3
1536,9.0,13.0,23.0,-3.0,-4.0,0.0,25.0,35.0,1650823528237747.0,3
1537,-4.0,-4.0,-13.0,-8.0,-1.0,2.0,3.0,-17.0,1650823528237747.0,3
1538,4.0,-8.0,18.0,-1.0,16.0,3.0,-13.0,-37.0,1650823528250712.0,3
1539,-20.0,3.0,-6.0,4.0,-24.0,-9.0,14.0,43.0,1650823528250712.0,3
1540,9.0,20.0,41.0,27.0,16.0,12.0,8.0,25.0,1650823528258718.0,3
1541,-5.0,-33.0,-56.0,-52.0,-11.0,-2.0,-1.0,-31.0,1650823528258718.0,3
1542,0.0,6.0,-27.0,-14.0,-8.0,-8.0,1.0,11.0,1650823528273786.0,3
1543,9.0,-6.0,-18.0,4.0,1.0,2.0,0.0,-11.0,1650823528273786.0,3
1544,-4.0,9.0,41.0,11.0,10.0,3.0,-9.0,-14.0,1650823528274796.0,3
1545,-6.0,-14.0,-48.0,-20.0,-1.0,4.0,4.0,9.0,1650823528274796.0,3
1546,-8.0,3.0,32.0,24.0,-9.0,-7.0,-12.0,-19.0,1650823528296716.0,3
1547,2.0,-25.0,-21.0,-22.0,-3.0,-2.0,5.0,2.0,1650823528296716.0,3
1548,3.0,15.0,28.0,26.0,4.0,-1.0,-14.0,-4.0,1650823528297715.0,3
1549,11.0,25.0,-18.0,-10.0,9.0,7.0,6.0,-1.0,1650823528297715.0,3
1550,-13.0,-16.0,25.0,-7.0,-17.0,-11.0,-21.0,-10.0,1650823528310706.0,3
1551,13.0,2.0,-6.0,0.0,-1.0,-6.0,-18.0,-43.0,1650823528310706.0,3
1552,0.0,5.0,8.0,21.0,-7.0,1.0,6.0,-6.0,1650823528311691.0,3
1553,-16.0,-28.0,-40.0,-19.0,22.0,1.0,-8.0,-24.0,1650823528311691.0,3
1554,0.0,11.0,8.0,3.0,-4.0,-3.0,-9.0,-12.0,1650823528333679.0,3
1555,23.0,16.0,5.0,1.0,10.0,8.0,35.0,77.0,1650823528333679.0,3
1556,13.0,12.0,16.0,6.0,3.0,5.0,-12.0,-24.0,1650823528334615.0,3
1557,-9.0,2.0,83.0,33.0,-17.0,-11.0,-1.0,-3.0,1650823528334615.0,3
1558,-6.0,-25.0,-83.0,-70.0,-17.0,-4.0,8.0,9.0,1650823528355586.0,3
1559,-6.0,10.0,25.0,23.0,7.0,7.0,-10.0,-30.0,1650823528355586.0,3
1560,9.0,4.0,7.0,-4.0,6.0,1.0,-2.0,12.0,1650823528363538.0,3
1561,-8.0,1.0,3.0,-5.0,-2.0,-6.0,-3.0,-4.0,1650823528363538.0,3
1562,20.0,24.0,19.0,19.0,4.0,3.0,9.0,13.0,1650823528371516.0,3
1563,-25.0,-79.0,-74.0,-41.0,-12.0,-9.0,-12.0,-5.0,1650823528371516.0,3
1564,-6.0,-1.0,-9.0,-10.0,-8.0,3.0,12.0,12.0,1650823528371516.0,3
1565,5.0,16.0,21.0,17.0,6.0,-4.0,-4.0,1.0,1650823528371516.0,3
1566,26.0,16.0,69.0,44.0,15.0,20.0,49.0,67.0,1650823528393484.0,3
1567,-3.0,29.0,-66.0,-39.0,-8.0,-5.0,-15.0,-28.0,1650823528393484.0,3
1568,-5.0,-17.0,-30.0,-34.0,-4.0,-4.0,9.0,24.0,1650823528394454.0,3
1569,-16.0,-9.0,1.0,13.0,-1.0,-3.0,-12.0,-35.0,1650823528394454.0,3
1570,1.0,9.0,10.0,2.0,-2.0,-3.0,-14.0,6.0,1650823528416463.0,3
1571,20.0,10.0,41.0,25.0,5.0,4.0,7.0,16.0,1650823528416463.0,3
1572,-2.0,12.0,9.0,13.0,3.0,1.0,8.0,13.0,1650823528417394.0,3
1573,-15.0,-24.0,-53.0,-32.0,-17.0,-15.0,-19.0,-6.0,1650823528417394.0,3
1574,-19.0,7.0,10.0,2.0,-10.0,-8.0,-9.0,-27.0,1650823528430359.0,3
1575,3.0,-13.0,26.0,17.0,19.0,13.0,5.0,-10.0,1650823528430359.0,3
1576,1.0,18.0,-19.0,-16.0,-11.0,-14.0,-9.0,20.0,1650823528438401.0,3
1577,11.0,-19.0,24.0,13.0,2.0,8.0,18.0,27.0,1650823528438401.0,3
1578,2.0,-21.0,-20.0,-11.0,-2.0,1.0,3.0,15.0,1650823528454080.0,3
1579,2.0,31.0,13.0,10.0,21.0,7.0,3.0,-6.0,1650823528454080.0,3
1580,-13.0,-19.0,-1.0,-9.0,-17.0,-10.0,-17.0,-51.0,1650823528454394.0,3
1581,23.0,29.0,17.0,26.0,16.0,19.0,28.0,53.0,1650823528454394.0,3
1582,-2.0,-2.0,12.0,-7.0,-7.0,-9.0,1.0,1.0,1650823528476556.0,3
1583,1.0,21.0,34.0,25.0,2.0,-1.0,0.0,-10.0,1650823528476556.0,3
1584,-7.0,-14.0,-29.0,-10.0,1.0,1.0,0.0,-5.0,1650823528477491.0,3
1585,-7.0,-8.0,-2.0,-9.0,-6.0,-5.0,-15.0,-14.0,1650823528477491.0,3
1586,3.0,9.0,3.0,16.0,5.0,5.0,-3.0,-3.0,1650823528490479.0,3
1587,8.0,-2.0,8.0,-3.0,-4.0,-1.0,4.0,7.0,1650823528490479.0,3
1588,-1.0,-10.0,-3.0,-5.0,-1.0,5.0,18.0,36.0,1650823528498430.0,3
1589,-7.0,1.0,8.0,5.0,-5.0,-6.0,-20.0,-38.0,1650823528498430.0,3
1590,22.0,44.0,40.0,46.0,24.0,14.0,8.0,21.0,1650823528513459.0,3
1591,-24.0,-60.0,-84.0,-87.0,-29.0,-21.0,-9.0,5.0,1650823528513459.0,3
1592,-12.0,-32.0,-11.0,-2.0,-16.0,-10.0,-8.0,-12.0,1650823528514389.0,3
1593,12.0,37.0,38.0,16.0,9.0,10.0,11.0,11.0,1650823528514389.0,3
1594,-10.0,-40.0,-14.0,-14.0,-4.0,3.0,-6.0,-16.0,1650823528537327.0,3
1595,9.0,36.0,41.0,44.0,24.0,12.0,4.0,12.0,1650823528537327.0,3
1596,-2.0,-16.0,-20.0,-20.0,-11.0,-6.0,-5.0,-6.0,1650823528537327.0,3
1597,-4.0,-6.0,-37.0,-22.0,-7.0,-7.0,-11.0,-20.0,1650823528537327.0,3
1598,-11.0,-13.0,17.0,11.0,-9.0,-9.0,-6.0,-23.0,1650823528550359.0,3
1599,-9.0,-5.0,-23.0,-20.0,-8.0,-6.0,1.0,-11.0,1650823528550359.0,3
1600,16.0,11.0,9.0,10.0,4.0,6.0,2.0,28.0,1650823528558298.0,3
1601,1.0,2.0,10.0,14.0,9.0,9.0,7.0,12.0,1650823528558298.0,3
1602,-3.0,-9.0,-14.0,-5.0,-3.0,1.0,7.0,4.0,1650823528573332.0,3
1603,-2.0,22.0,35.0,10.0,-7.0,-11.0,-15.0,-21.0,1650823528573332.0,3
1604,5.0,8.0,6.0,15.0,12.0,8.0,3.0,-10.0,1650823528574302.0,3
1605,1.0,0.0,-10.0,-12.0,-14.0,-8.0,-1.0,-4.0,1650823528574302.0,3
1606,3.0,6.0,2.0,-5.0,-7.0,-4.0,-5.0,7.0,1650823528597327.0,3
1607,5.0,8.0,24.0,18.0,16.0,11.0,19.0,13.0,1650823528597327.0,3
1608,-11.0,-9.0,-36.0,-31.0,-5.0,0.0,-5.0,-9.0,1650823528597327.0,3
1609,0.0,-3.0,25.0,10.0,-4.0,2.0,6.0,5.0,1650823528597327.0,3
1610,-6.0,13.0,10.0,12.0,15.0,-3.0,-11.0,-30.0,1650823528610320.0,3
1611,1.0,-22.0,-86.0,-32.0,-10.0,-4.0,-8.0,19.0,1650823528610320.0,3
1612,10.0,30.0,71.0,34.0,15.0,7.0,8.0,8.0,1650823528618338.0,3
1613,-5.0,0.0,-19.0,-10.0,-13.0,-7.0,-3.0,-4.0,1650823528618338.0,3
1614,-16.0,-32.0,-26.0,-29.0,-23.0,-16.0,-5.0,-12.0,1650823528642352.0,3
1615,12.0,12.0,14.0,26.0,9.0,15.0,8.0,22.0,1650823528642352.0,3
1616,-8.0,11.0,11.0,-1.0,8.0,3.0,-1.0,-22.0,1650823528642352.0,3
1617,3.0,2.0,6.0,6.0,-1.0,-6.0,-10.0,12.0,1650823528642352.0,3
1618,4.0,9.0,-13.0,-6.0,3.0,4.0,10.0,23.0,1650823528656290.0,3
1619,8.0,1.0,30.0,7.0,-7.0,-8.0,-14.0,-31.0,1650823528656290.0,3
1620,-16.0,-21.0,-27.0,-17.0,-11.0,-12.0,-6.0,-10.0,1650823528657287.0,3
1621,-5.0,-8.0,-3.0,4.0,13.0,4.0,-3.0,-2.0,1650823528657287.0,3
1622,0.0,-2.0,-9.0,5.0,1.0,7.0,7.0,18.0,1650823528670322.0,3
1623,5.0,7.0,39.0,17.0,-1.0,-6.0,1.0,-20.0,1650823528670322.0,3
1624,2.0,-1.0,-30.0,-33.0,-3.0,2.0,12.0,33.0,1650823528678259.0,3
1625,-4.0,-30.0,-19.0,6.0,-3.0,-8.0,-11.0,-22.0,1650823528678259.0,3
1626,-5.0,-39.0,-22.0,-29.0,-16.0,-9.0,-8.0,1.0,1650823528693218.0,3
1627,-16.0,10.0,14.0,6.0,3.0,2.0,-2.0,19.0,1650823528693218.0,3
1628,8.0,11.0,12.0,19.0,-1.0,-2.0,-3.0,-12.0,1650823528694194.0,3
1629,9.0,25.0,28.0,32.0,2.0,4.0,13.0,21.0,1650823528694194.0,3
1630,-6.0,-15.0,-30.0,-40.0,5.0,5.0,-2.0,-13.0,1650823528717194.0,3
1631,-1.0,7.0,25.0,16.0,-3.0,4.0,5.0,4.0,1650823528717194.0,3
1632,-2.0,-4.0,-8.0,-10.0,1.0,-1.0,-2.0,-4.0,1650823528718126.0,3
1633,3.0,1.0,0.0,-5.0,-3.0,3.0,-5.0,-15.0,1650823528718126.0,3
1634,2.0,10.0,10.0,18.0,-2.0,-2.0,-3.0,-5.0,1650823528730157.0,3
1635,0.0,3.0,-1.0,-10.0,-9.0,-5.0,-13.0,-4.0,1650823528730157.0,3
1636,-3.0,-8.0,-4.0,5.0,14.0,4.0,4.0,-11.0,1650823528739068.0,3
1637,-5.0,-7.0,-1.0,-4.0,-15.0,-6.0,1.0,33.0,1650823528739068.0,3
1638,3.0,17.0,8.0,8.0,4.0,0.0,4.0,-4.0,1650823528753958.0,3
1639,-4.0,-10.0,-12.0,-2.0,5.0,0.0,3.0,5.0,1650823528753958.0,3
1640,1.0,-2.0,15.0,7.0,-3.0,-3.0,-6.0,-11.0,1650823528761453.0,3
1641,1.0,1.0,15.0,10.0,2.0,3.0,10.0,-2.0,1650823528761453.0,3
1642,-5.0,-3.0,-24.0,-38.0,-8.0,-7.0,-11.0,-14.0,1650823528776387.0,3
1643,0.0,-11.0,-11.0,3.0,11.0,12.0,8.0,8.0,1650823528776387.0,3
1644,-2.0,-10.0,-10.0,-2.0,-12.0,-2.0,-2.0,-1.0,1650823528777355.0,3
1645,5.0,22.0,23.0,17.0,19.0,9.0,8.0,-4.0,1650823528777355.0,3
1646,2.0,2.0,-5.0,3.0,0.0,-4.0,1.0,4.0,1650823528800294.0,3
1647,-2.0,-2.0,8.0,-3.0,-9.0,-4.0,-1.0,-4.0,1650823528800294.0,3
1648,-1.0,-1.0,-7.0,-2.0,0.0,-4.0,-6.0,3.0,1650823528800294.0,3
1649,-1.0,-5.0,-6.0,-9.0,3.0,2.0,-5.0,-6.0,1650823528800294.0,3
1650,4.0,13.0,24.0,22.0,5.0,11.0,14.0,1.0,1650823528814094.0,3
1651,-4.0,-4.0,-6.0,-5.0,-5.0,-3.0,5.0,2.0,1650823528814094.0,3
1652,1.0,-4.0,0.0,2.0,-1.0,-6.0,-4.0,-1.0,1650823528814094.0,3
1653,-2.0,-1.0,-6.0,-9.0,-7.0,-10.0,3.0,0.0,1650823528814094.0,3
1654,2.0,3.0,8.0,8.0,3.0,0.0,-9.0,-5.0,1650823528836813.0,3
1655,-1.0,0.0,-2.0,-2.0,-2.0,-4.0,4.0,0.0,1650823528836813.0,3
1656,1.0,0.0,-12.0,0.0,1.0,5.0,-3.0,5.0,1650823528837743.0,3
1657,-5.0,-7.0,-13.0,-16.0,-5.0,-3.0,8.0,-2.0,1650823528837743.0,3
1658,-4.0,-5.0,-1.0,8.0,-3.0,-5.0,-24.0,-13.0,1650823528859826.0,3
1659,-2.0,0.0,8.0,-14.0,-5.0,0.0,-1.0,-1.0,1650823528859826.0,3
1660,2.0,1.0,5.0,8.0,2.0,-4.0,0.0,4.0,1650823528860683.0,3
1661,2.0,-5.0,-27.0,-12.0,-4.0,0.0,-5.0,-1.0,1650823528860683.0,3
1662,1.0,12.0,20.0,17.0,9.0,4.0,13.0,7.0,1650823528873675.0,3
1663,-1.0,-1.0,-6.0,-1.0,-4.0,-3.0,-1.0,-1.0,1650823528873675.0,3
1664,0.0,-2.0,1.0,2.0,10.0,3.0,-8.0,0.0,1650823528874671.0,3
1665,-4.0,-3.0,-7.0,-8.0,-13.0,-6.0,-13.0,-8.0,1650823528874671.0,3
1666,2.0,2.0,9.0,7.0,-1.0,-1.0,19.0,6.0,1650823528896653.0,3
1667,4.0,0.0,1.0,1.0,4.0,5.0,-16.0,-1.0,1650823528896653.0,3
1668,-3.0,5.0,-6.0,5.0,2.0,-2.0,15.0,5.0,1650823528897584.0,3
1669,-5.0,0.0,15.0,-8.0,-2.0,4.0,-2.0,-3.0,1650823528897584.0,3
1670,-6.0,-22.0,-9.0,5.0,5.0,-4.0,-8.0,-1.0,1650823528919642.0,3
1671,-4.0,-3.0,0.0,-12.0,-10.0,-10.0,-1.0,-2.0,1650823528919642.0,3
1672,1.0,3.0,4.0,-5.0,-8.0,-2.0,2.0,2.0,1650823528920642.0,3
1673,6.0,-2.0,-15.0,2.0,10.0,9.0,3.0,4.0,1650823528920642.0,3
1674,-3.0,15.0,15.0,2.0,-4.0,2.0,-1.0,0.0,1650823528934078.0,3
1675,4.0,5.0,3.0,3.0,1.0,1.0,4.0,3.0,1650823528934078.0,3
1676,7.0,-7.0,-3.0,10.0,-6.0,-9.0,-5.0,-2.0,1650823528934650.0,3
1677,-16.0,2.0,-6.0,-11.0,-6.0,-2.0,5.0,-2.0,1650823528934650.0,3
1678,-8.0,-12.0,-8.0,0.0,10.0,2.0,-1.0,-2.0,1650823528957185.0,3
1679,0.0,-4.0,-5.0,0.0,0.0,1.0,3.0,1.0,1650823528957185.0,3
1680,1.0,7.0,6.0,-10.0,-8.0,-1.0,-4.0,-2.0,1650823528958117.0,3
1681,14.0,-1.0,8.0,17.0,10.0,10.0,-2.0,0.0,1650823528958117.0,3
1682,29.0,11.0,-8.0,-2.0,-6.0,-7.0,4.0,5.0,1650823528979594.0,3
1683,-43.0,-9.0,3.0,2.0,-1.0,-3.0,-1.0,-4.0,1650823528979594.0,3
1684,-16.0,-23.0,-13.0,-10.0,-7.0,-9.0,-5.0,-7.0,1650823528980570.0,3
1685,4.0,-4.0,-2.0,-4.0,5.0,0.0,1.0,-3.0,1650823528980570.0,3
1686,-14.0,7.0,2.0,-1.0,-4.0,5.0,4.0,1.0,1650823528993559.0,3
1687,19.0,12.0,6.0,9.0,8.0,3.0,7.0,1.0,1650823528993559.0,3
1688,0.0,0.0,4.0,4.0,8.0,3.0,-1.0,1.0,1650823528994526.0,3
1689,1.0,2.0,4.0,-1.0,-4.0,-6.0,-3.0,-2.0,1650823528994526.0,3
1690,6.0,2.0,-22.0,-14.0,-3.0,0.0,-5.0,-1.0,1650823529016716.0,3
1691,3.0,-13.0,2.0,0.0,-5.0,-7.0,-3.0,1.0,1650823529016716.0,3
1692,-10.0,-6.0,-10.0,-3.0,-5.0,-1.0,3.0,-1.0,1650823529017713.0,3
1693,-1.0,-4.0,-12.0,-9.0,0.0,-9.0,-3.0,-3.0,1650823529017713.0,3
1694,3.0,7.0,2.0,3.0,6.0,5.0,1.0,2.0,1650823529039716.0,3
1695,-1.0,1.0,-3.0,-3.0,2.0,-1.0,-1.0,0.0,1650823529039716.0,3
1696,3.0,-6.0,-3.0,1.0,-7.0,4.0,-2.0,-1.0,1650823529039716.0,3
1697,5.0,3.0,9.0,10.0,3.0,2.0,5.0,2.0,1650823529039716.0,3
1698,8.0,9.0,5.0,3.0,6.0,2.0,-1.0,-2.0,1650823529053674.0,3
1699,-22.0,3.0,-6.0,-4.0,-2.0,-1.0,-3.0,-5.0,1650823529053674.0,3
1700,-17.0,-12.0,3.0,1.0,-3.0,-4.0,-5.0,-5.0,1650823529054614.0,3
1701,-3.0,-8.0,-3.0,-5.0,1.0,0.0,-1.0,-1.0,1650823529054614.0,3
1702,-1.0,-5.0,2.0,0.0,-5.0,1.0,-2.0,0.0,1650823529076636.0,3
1703,29.0,9.0,4.0,4.0,11.0,5.0,4.0,2.0,1650823529076636.0,3
1704,23.0,17.0,3.0,-6.0,-5.0,-2.0,6.0,8.0,1650823529077564.0,3
1705,-38.0,-16.0,-1.0,3.0,-13.0,-14.0,-3.0,-4.0,1650823529077564.0,3
1706,6.0,-1.0,-2.0,-3.0,-2.0,-3.0,-3.0,-3.0,1650823529099684.0,3
1707,3.0,1.0,-1.0,-1.0,-2.0,-1.0,-4.0,-4.0,1650823529099684.0,3
1708,6.0,4.0,5.0,4.0,5.0,5.0,1.0,3.0,1650823529099684.0,3
1709,9.0,-1.0,-3.0,-8.0,-11.0,-1.0,-1.0,3.0,1650823529099684.0,3
1710,-4.0,-3.0,0.0,-3.0,1.0,-6.0,0.0,1.0,1650823529113674.0,3
1711,1.0,2.0,0.0,3.0,2.0,4.0,5.0,2.0,1650823529113674.0,3
1712,-5.0,3.0,-2.0,4.0,5.0,0.0,2.0,1.0,1650823529114644.0,3
1713,3.0,3.0,1.0,-3.0,-6.0,0.0,-3.0,-1.0,1650823529114644.0,3
1714,-7.0,-1.0,-4.0,-1.0,-7.0,-4.0,-9.0,-4.0,1650823529136653.0,3
1715,-1.0,-4.0,-2.0,1.0,-3.0,3.0,2.0,2.0,1650823529136653.0,3
1716,-3.0,-3.0,2.0,-2.0,1.0,-1.0,-4.0,-3.0,1650823529137584.0,3
1717,6.0,1.0,-4.0,4.0,9.0,0.0,-2.0,-2.0,1650823529137584.0,3
1718,-6.0,4.0,2.0,-5.0,-6.0,0.0,3.0,-1.0,1650823529159668.0,3
1719,-3.0,-9.0,-6.0,1.0,-4.0,-7.0,-1.0,1.0,1650823529159668.0,3
1720,5.0,2.0,4.0,0.0,5.0,6.0,2.0,1.0,1650823529159668.0,3
1721,-3.0,6.0,3.0,6.0,20.0,6.0,-1.0,-1.0,1650823529159668.0,3
1722,-1.0,-8.0,1.0,1.0,-21.0,-3.0,0.0,-1.0,1650823529173723.0,3
1723,2.0,2.0,-5.0,-10.0,0.0,-4.0,-1.0,5.0,1650823529173723.0,3
1724,10.0,-1.0,-6.0,-5.0,-8.0,-8.0,10.0,6.0,1650823529174728.0,3
1725,-16.0,6.0,4.0,5.0,2.0,-1.0,-9.0,-7.0,1650823529174728.0,3
1726,11.0,-7.0,-3.0,-2.0,2.0,-1.0,0.0,-1.0,1650823529197687.0,3
1727,-4.0,-2.0,3.0,11.0,-5.0,1.0,-3.0,-3.0,1650823529197687.0,3
1728,0.0,1.0,3.0,-1.0,4.0,0.0,3.0,3.0,1650823529197687.0,3
1729,9.0,-3.0,-6.0,-15.0,-4.0,-1.0,0.0,3.0,1650823529197687.0,3
1730,-5.0,2.0,8.0,0.0,5.0,1.0,2.0,0.0,1650823529219669.0,3
1731,1.0,0.0,2.0,7.0,-7.0,-5.0,-6.0,-2.0,1650823529219669.0,3
1732,-3.0,-4.0,-11.0,-7.0,0.0,-2.0,-4.0,-1.0,1650823529220598.0,3
1733,-1.0,-2.0,7.0,1.0,-1.0,10.0,2.0,1.0,1650823529220598.0,3
1734,-7.0,-2.0,-4.0,-5.0,3.0,-8.0,-3.0,-1.0,1650823529233564.0,3
1735,0.0,-2.0,2.0,2.0,-3.0,-3.0,0.0,-2.0,1650823529233564.0,3
1736,-5.0,1.0,5.0,2.0,1.0,0.0,-6.0,-4.0,1650823529234561.0,3
1737,2.0,1.0,-2.0,2.0,-2.0,-2.0,1.0,0.0,1650823529234561.0,3
1738,1.0,-1.0,0.0,-1.0,9.0,8.0,4.0,2.0,1650823529256590.0,3
1739,1.0,0.0,0.0,1.0,-6.0,1.0,3.0,-1.0,1650823529256590.0,3
1740,-4.0,1.0,-1.0,2.0,1.0,-3.0,-1.0,-1.0,1650823529257587.0,3
1741,2.0,-1.0,-3.0,-7.0,-8.0,-1.0,-1.0,-1.0,1650823529257587.0,0
1742,-3.0,-1.0,2.0,-1.0,9.0,3.0,-2.0,0.0,1650823529279602.0,0
1743,-7.0,-5.0,-3.0,-2.0,0.0,1.0,5.0,3.0,1650823529279602.0,0
1744,-2.0,0.0,-4.0,-4.0,-3.0,-2.0,-6.0,-3.0,1650823529280541.0,0
1745,5.0,1.0,5.0,1.0,0.0,-6.0,-1.0,0.0,1650823529280541.0,0
1746,-3.0,-2.0,-5.0,-1.0,-10.0,-5.0,-2.0,-2.0,1650823529293559.0,0
1747,-1.0,-1.0,-2.0,3.0,6.0,-2.0,0.0,-3.0,1650823529293559.0,0
1748,0.0,2.0,-3.0,-3.0,4.0,7.0,1.0,-1.0,1650823529294489.0,0
1749,2.0,1.0,-2.0,3.0,1.0,1.0,-1.0,-1.0,1650823529294489.0,0
1750,-2.0,-2.0,3.0,2.0,1.0,-3.0,-3.0,0.0,1650823529316431.0,0
1751,2.0,3.0,8.0,-1.0,-3.0,2.0,-3.0,0.0,1650823529316431.0,0
1752,3.0,2.0,-1.0,1.0,-6.0,-3.0,0.0,1.0,1650823529317430.0,0
1753,1.0,-1.0,-1.0,2.0,1.0,-3.0,-1.0,1.0,1650823529317430.0,0
1754,-5.0,3.0,-7.0,-4.0,-2.0,1.0,3.0,-1.0,1650823529339779.0,0
1755,2.0,-2.0,6.0,-3.0,6.0,-1.0,-2.0,-2.0,1650823529339779.0,0
1756,-1.0,-1.0,-1.0,0.0,4.0,1.0,-4.0,-4.0,1650823529339779.0,0
1757,2.0,2.0,1.0,1.0,-9.0,2.0,5.0,-1.0,1650823529339779.0,0
1758,3.0,-3.0,-3.0,-1.0,-3.0,-8.0,2.0,2.0,1650823529353872.0,0
1759,-1.0,-1.0,-5.0,-4.0,-3.0,-2.0,-2.0,-3.0,1650823529353872.0,0
1760,1.0,1.0,2.0,2.0,2.0,-1.0,4.0,1.0,1650823529361664.0,0
1761,2.0,-1.0,-1.0,-2.0,2.0,2.0,0.0,0.0,1650823529361664.0,0
1762,-2.0,1.0,-1.0,-2.0,-3.0,0.0,-4.0,-3.0,1650823529376595.0,0
1763,7.0,-1.0,-7.0,-5.0,-4.0,-1.0,-1.0,0.0,1650823529376595.0,0
1764,-7.0,-6.0,-3.0,1.0,-3.0,0.0,-4.0,0.0,1650823529377565.0,0
1765,0.0,3.0,1.0,5.0,7.0,7.0,7.0,-1.0,1650823529377565.0,0
1766,-1.0,1.0,6.0,4.0,2.0,0.0,1.0,-1.0,1650823529398901.0,0
1767,2.0,-1.0,-1.0,-8.0,6.0,-3.0,-2.0,1.0,1650823529398901.0,0
1768,-1.0,-2.0,-9.0,-3.0,-17.0,-2.0,-3.0,-2.0,1650823529399898.0,0
1769,0.0,-2.0,-2.0,-5.0,1.0,-3.0,-3.0,1.0,1650823529399898.0,0
1770,2.0,1.0,2.0,-2.0,2.0,5.0,3.0,3.0,1650823529412931.0,0
1771,-2.0,1.0,-3.0,2.0,6.0,6.0,0.0,-1.0,1650823529412931.0,0
1772,-2.0,-3.0,1.0,3.0,1.0,-8.0,4.0,0.0,1650823529420857.0,0
1773,-3.0,0.0,1.0,-4.0,4.0,-2.0,-1.0,-2.0,1650823529420857.0,0
1774,1.0,5.0,4.0,5.0,-7.0,6.0,-2.0,1.0,1650823529436867.0,0
1775,-2.0,-3.0,-11.0,-5.0,-2.0,0.0,2.0,2.0,1650823529436867.0,0
1776,-1.0,0.0,3.0,0.0,3.0,1.0,-5.0,-3.0,1650823529437797.0,0
1777,2.0,-4.0,-3.0,-5.0,-13.0,-10.0,-3.0,-2.0,1650823529437797.0,0
1778,1.0,-2.0,-3.0,-3.0,6.0,1.0,-1.0,-1.0,1650823529459830.0,0
1779,-4.0,2.0,1.0,-2.0,-5.0,-1.0,-2.0,0.0,1650823529459830.0,0
1780,-1.0,0.0,0.0,1.0,9.0,-2.0,-2.0,0.0,1650823529459830.0,0
1781,1.0,-2.0,4.0,6.0,-13.0,-2.0,0.0,1.0,1650823529459830.0,0
1782,2.0,-1.0,-5.0,-8.0,2.0,-5.0,2.0,-1.0,1650823529473786.0,0
1783,-1.0,-2.0,-8.0,1.0,3.0,12.0,-3.0,-1.0,1650823529473786.0,0
1784,0.0,1.0,2.0,-3.0,-6.0,-13.0,1.0,-2.0,1650823529480842.0,0
1785,-4.0,-4.0,-6.0,0.0,0.0,-1.0,-3.0,0.0,1650823529480842.0,0
1786,-4.0,3.0,5.0,0.0,1.0,0.0,0.0,0.0,1650823529496866.0,0
1787,0.0,-2.0,5.0,-4.0,-14.0,-7.0,-2.0,-3.0,1650823529496866.0,0
1788,1.0,1.0,1.0,2.0,5.0,12.0,2.0,2.0,1650823529497800.0,0
1789,0.0,2.0,-1.0,2.0,7.0,4.0,1.0,0.0,1650823529497800.0,0
1790,2.0,-1.0,0.0,9.0,15.0,5.0,1.0,0.0,1650823529519584.0,0
1791,-1.0,-2.0,-5.0,2.0,-5.0,-2.0,1.0,0.0,1650823529519584.0,0
1792,0.0,2.0,1.0,-4.0,-8.0,-4.0,-1.0,-1.0,1650823529520566.0,0
1793,-3.0,-2.0,6.0,-5.0,-9.0,-6.0,-3.0,-1.0,1650823529520566.0,0
1794,-3.0,-3.0,-10.0,-9.0,5.0,1.0,-3.0,1.0,1650823529541734.0,0
1795,1.0,5.0,3.0,-1.0,-22.0,-8.0,-2.0,0.0,1650823529541734.0,0
1796,-2.0,0.0,-2.0,2.0,2.0,3.0,0.0,0.0,1650823529542732.0,0
1797,-2.0,-2.0,-1.0,4.0,9.0,5.0,1.0,-1.0,1650823529542732.0,0
1798,0.0,2.0,10.0,5.0,4.0,2.0,3.0,1.0,1650823529556725.0,0
1799,-2.0,-6.0,-16.0,-9.0,3.0,-4.0,-4.0,-4.0,1650823529556725.0,0
1800,-3.0,-4.0,-5.0,-7.0,-5.0,-1.0,-2.0,0.0,1650823529557692.0,0
1801,0.0,0.0,-6.0,-7.0,-6.0,-4.0,0.0,-1.0,1650823529557692.0,0
1802,-1.0,-4.0,-1.0,1.0,-8.0,-5.0,-6.0,-2.0,1650823529579694.0,0
1803,-2.0,2.0,3.0,3.0,4.0,1.0,2.0,0.0,1650823529579694.0,0
1804,0.0,0.0,3.0,1.0,-2.0,-4.0,-1.0,1.0,1650823529579694.0,0
1805,3.0,4.0,-2.0,-1.0,2.0,1.0,1.0,1.0,1650823529579694.0,0
1806,-1.0,-1.0,1.0,6.0,0.0,3.0,5.0,0.0,1650823529593697.0,0
1807,1.0,3.0,6.0,-2.0,4.0,11.0,2.0,0.0,1650823529593697.0,0
1808,3.0,1.0,-3.0,8.0,15.0,0.0,2.0,0.0,1650823529601734.0,0
1809,-1.0,-4.0,-7.0,-7.0,-9.0,-6.0,-1.0,-2.0,1650823529601734.0,0
1810,-2.0,-4.0,-2.0,-9.0,-9.0,-5.0,-3.0,-2.0,1650823529616696.0,0
1811,-2.0,-1.0,2.0,1.0,-2.0,-5.0,0.0,0.0,1650823529616696.0,0
1812,0.0,-1.0,1.0,-2.0,-3.0,1.0,-3.0,-1.0,1650823529617691.0,0
1813,-2.0,-1.0,-2.0,0.0,-3.0,-3.0,-4.0,-3.0,1650823529617691.0,0
1814,-1.0,1.0,-4.0,0.0,-20.0,-8.0,1.0,1.0,1650823529639694.0,0
1815,-1.0,2.0,3.0,4.0,16.0,5.0,3.0,-1.0,1650823529639694.0,0
1816,1.0,1.0,-1.0,0.0,-4.0,0.0,3.0,2.0,1650823529639694.0,0
1817,-1.0,-3.0,1.0,5.0,8.0,4.0,-2.0,-1.0,1650823529639694.0,0
1818,-3.0,-5.0,-4.0,-5.0,10.0,2.0,-4.0,-1.0,1650823529652658.0,0
1819,0.0,2.0,4.0,3.0,-9.0,-5.0,2.0,2.0,1650823529652658.0,0
1820,-1.0,-2.0,-5.0,-2.0,2.0,2.0,-3.0,-5.0,1650823529661641.0,0
1821,-1.0,0.0,1.0,-5.0,-6.0,-5.0,1.0,0.0,1650823529661641.0,0
1822,0.0,-1.0,-2.0,-1.0,-5.0,-2.0,-2.0,-2.0,1650823529676616.0,0
1823,-1.0,-2.0,-5.0,-4.0,-1.0,-1.0,-1.0,0.0,1650823529676616.0,0
1824,-1.0,0.0,1.0,-1.0,-2.0,-4.0,-2.0,-3.0,1650823529676616.0,0
1825,-2.0,2.0,8.0,7.0,9.0,6.0,4.0,2.0,1650823529676616.0,0
1826,0.0,2.0,1.0,1.0,2.0,4.0,1.0,0.0,1650823529699513.0,0
1827,-1.0,2.0,2.0,9.0,21.0,10.0,1.0,1.0,1650823529699513.0,0
1828,-1.0,-9.0,-15.0,-7.0,-17.0,-5.0,0.0,1.0,1650823529700512.0,0
1829,0.0,6.0,9.0,-6.0,-9.0,-8.0,-3.0,0.0,1650823529700512.0,0
1830,-2.0,0.0,1.0,-1.0,-3.0,-4.0,-3.0,-3.0,1650823529721522.0,0
1831,1.0,2.0,1.0,-3.0,-4.0,-3.0,-4.0,-3.0,1650823529721522.0,0
1832,-3.0,-1.0,0.0,-1.0,1.0,5.0,-2.0,2.0,1650823529722453.0,0
1833,1.0,-4.0,-9.0,2.0,9.0,0.0,-3.0,-3.0,1650823529722453.0,0
1834,-1.0,1.0,1.0,1.0,-9.0,3.0,2.0,-1.0,1650823529736678.0,0
1835,0.0,-3.0,1.0,0.0,0.0,-2.0,0.0,-1.0,1650823529736678.0,0
1836,1.0,3.0,4.0,6.0,4.0,2.0,2.0,1.0,1650823529736678.0,0
1837,1.0,-3.0,-3.0,-3.0,0.0,-3.0,-2.0,1.0,1650823529736678.0,0
1838,0.0,1.0,-2.0,-1.0,-3.0,-5.0,-2.0,-1.0,1650823529759635.0,0
1839,1.0,-3.0,-2.0,-2.0,8.0,3.0,1.0,-2.0,1650823529759635.0,0
1840,-1.0,-1.0,1.0,0.0,-6.0,-4.0,0.0,1.0,1650823529760617.0,0
1841,-1.0,1.0,2.0,-4.0,-8.0,6.0,0.0,3.0,1650823529760617.0,0
1842,1.0,-1.0,2.0,15.0,6.0,-3.0,1.0,0.0,1650823529781667.0,0
1843,0.0,-4.0,-9.0,-9.0,2.0,-2.0,-1.0,2.0,1650823529781667.0,0
1844,0.0,1.0,4.0,1.0,6.0,1.0,1.0,-2.0,1650823529782671.0,0
1845,0.0,-1.0,0.0,1.0,2.0,3.0,-1.0,-2.0,1650823529782671.0,0
1846,0.0,0.0,-4.0,-2.0,-5.0,-1.0,-1.0,1.0,1650823529795781.0,0
1847,-1.0,-1.0,5.0,2.0,-3.0,0.0,0.0,-1.0,1650823529795781.0,0
1848,-1.0,0.0,-5.0,-8.0,-4.0,-3.0,-2.0,-1.0,1650823529796752.0,0
1849,-2.0,-2.0,0.0,-6.0,-14.0,-14.0,-4.0,-2.0,1650823529796752.0,0
1850,-3.0,0.0,4.0,8.0,9.0,6.0,1.0,0.0,1650823529819803.0,0
1851,-4.0,-3.0,-8.0,-6.0,6.0,-1.0,-2.0,1.0,1650823529819803.0,0
1852,-1.0,1.0,3.0,1.0,-5.0,6.0,2.0,-1.0,1650823529819803.0,0
1853,1.0,0.0,-3.0,-1.0,3.0,6.0,4.0,1.0,1650823529819803.0,0
1854,1.0,1.0,0.0,-3.0,-1.0,-3.0,0.0,1.0,1650823529841715.0,0
1855,0.0,-2.0,-1.0,1.0,-7.0,-6.0,-2.0,-1.0,1650823529841715.0,0
1856,-2.0,-4.0,-3.0,-5.0,3.0,-2.0,-4.0,-1.0,1650823529842685.0,0
1857,-1.0,0.0,2.0,6.0,-1.0,4.0,2.0,0.0,1650823529842685.0,0
1858,-4.0,2.0,1.0,-2.0,6.0,3.0,1.0,-3.0,1650823529855734.0,0
1859,-1.0,0.0,-2.0,2.0,-3.0,0.0,1.0,2.0,1650823529855734.0,0
1860,0.0,-2.0,1.0,1.0,-2.0,-2.0,-1.0,0.0,1650823529856734.0,0
1861,0.0,-1.0,-1.0,-3.0,-5.0,-5.0,-2.0,-1.0,1650823529856734.0,0
1862,2.0,-1.0,-6.0,-5.0,-2.0,-2.0,-3.0,-1.0,1650823529879779.0,0
1863,1.0,2.0,3.0,-1.0,-7.0,2.0,-1.0,1.0,1650823529879779.0,0
1864,-2.0,0.0,-5.0,-2.0,-4.0,-10.0,1.0,-3.0,1650823529879779.0,0
1865,-1.0,-1.0,1.0,-1.0,8.0,5.0,1.0,0.0,1650823529879779.0,0
1866,0.0,-3.0,-2.0,-2.0,1.0,0.0,-1.0,-1.0,1650823529901710.0,0
1867,-2.0,0.0,-1.0,1.0,-6.0,0.0,1.0,-2.0,1650823529901710.0,0
1868,2.0,1.0,4.0,4.0,4.0,4.0,0.0,0.0,1650823529902643.0,0
1869,-2.0,1.0,-2.0,-3.0,1.0,-1.0,-3.0,-2.0,1650823529902643.0,0
1870,-3.0,-4.0,-5.0,-2.0,2.0,0.0,-3.0,-1.0,1650823529916606.0,0
1871,-1.0,0.0,1.0,2.0,0.0,-10.0,0.0,-1.0,1650823529916606.0,0
1872,0.0,0.0,6.0,-4.0,-10.0,-1.0,-2.0,-2.0,1650823529916606.0,0
1873,1.0,-1.0,0.0,5.0,2.0,0.0,0.0,0.0,1650823529916606.0,0
1874,0.0,0.0,-2.0,-5.0,-2.0,3.0,-1.0,0.0,1650823529939613.0,0
1875,-2.0,-7.0,-13.0,-3.0,-1.0,0.0,-1.0,-2.0,1650823529939613.0,0
1876,0.0,1.0,3.0,-2.0,-8.0,0.0,0.0,1.0,1650823529940542.0,0
1877,-2.0,0.0,0.0,2.0,1.0,1.0,1.0,-1.0,1650823529940542.0,0
1878,3.0,3.0,3.0,1.0,2.0,-4.0,2.0,-1.0,1650823529961731.0,0
1879,-1.0,-1.0,1.0,-2.0,-4.0,-1.0,0.0,0.0,1650823529961731.0,0
1880,-1.0,-1.0,-2.0,-2.0,4.0,-2.0,0.0,0.0,1650823529962681.0,0
1881,-1.0,-1.0,-4.0,-3.0,-7.0,-3.0,-3.0,0.0,1650823529962681.0,0
1882,0.0,-2.0,10.0,5.0,-1.0,1.0,-1.0,-2.0,1650823529975646.0,0
1883,-1.0,-2.0,-8.0,-1.0,2.0,-2.0,-1.0,-4.0,1650823529975646.0,0
1884,-4.0,-5.0,-13.0,-6.0,2.0,7.0,-1.0,0.0,1650823529976643.0,0
1885,0.0,2.0,2.0,-1.0,-3.0,-1.0,-2.0,-1.0,1650823529976643.0,0
1886,-2.0,-4.0,-7.0,-11.0,-9.0,-9.0,-5.0,-1.0,1650823529999610.0,0
1887,2.0,4.0,7.0,3.0,4.0,5.0,3.0,2.0,1650823529999610.0,0
1888,4.0,5.0,10.0,11.0,11.0,4.0,1.0,-1.0,1650823530000581.0,0
1889,0.0,-4.0,-10.0,-1.0,-1.0,-1.0,2.0,1.0,1650823530000581.0,0
1890,-1.0,7.0,5.0,1.0,12.0,13.0,2.0,-1.0,1650823530029702.0,0
1891,-2.0,-2.0,-1.0,-3.0,-12.0,-15.0,-4.0,-1.0,1650823530029702.0,0
1892,1.0,1.0,-5.0,-8.0,-4.0,-1.0,0.0,-1.0,1650823530029702.0,0
1893,1.0,-1.0,3.0,5.0,-4.0,1.0,1.0,0.0,1650823530029702.0,0
1894,1.0,0.0,-1.0,2.0,-3.0,-4.0,-1.0,1.0,1650823530035648.0,0
1895,0.0,1.0,5.0,0.0,6.0,4.0,-1.0,0.0,1650823530035648.0,0
1896,-2.0,-2.0,-5.0,5.0,0.0,1.0,0.0,-1.0,1650823530036616.0,0
1897,-2.0,-4.0,-3.0,-15.0,-2.0,-5.0,-5.0,-5.0,1650823530036616.0,0
1898,-1.0,-4.0,-5.0,-4.0,-1.0,-1.0,-1.0,-1.0,1650823530059711.0,0
