,EMG_s0,EMG_s1,EMG_s2,EMG_s3,EMG_s4,EMG_s5,EMG_s6,EMG_s7,timestamp,signal
0,-1.0,1.0,0.0,-2.0,-3.0,-2.0,1.0,-2.0,1651087708118402.0,0
1,1.0,1.0,3.0,0.0,-1.0,-2.0,-2.0,-1.0,1651087708118402.0,0
2,0.0,-2.0,4.0,3.0,2.0,2.0,1.0,1.0,1651087708121067.0,0
3,-2.0,0.0,4.0,-6.0,-1.0,0.0,0.0,0.0,1651087708121067.0,0
4,0.0,-1.0,-1.0,-1.0,0.0,0.0,-1.0,0.0,1651087708122065.0,0
5,0.0,-3.0,0.0,-2.0,-1.0,0.0,-1.0,-1.0,1651087708122065.0,0
6,-1.0,6.0,-3.0,-2.0,-3.0,-1.0,-2.0,-1.0,1651087708123063.0,0
7,1.0,-3.0,-1.0,1.0,2.0,1.0,0.0,-2.0,1651087708123063.0,0
8,-1.0,-2.0,9.0,2.0,-2.0,-5.0,-3.0,-1.0,1651087708127051.0,0
9,0.0,1.0,-10.0,-1.0,-3.0,-3.0,-1.0,-1.0,1651087708127051.0,0
10,-1.0,-5.0,-5.0,-8.0,-7.0,-5.0,-3.0,-4.0,1651087708135189.0,0
11,-2.0,-3.0,-3.0,0.0,-1.0,-1.0,0.0,-2.0,1651087708135189.0,0
12,-3.0,-1.0,-4.0,-1.0,-2.0,0.0,-2.0,-1.0,1651087708149007.0,0
13,-3.0,-3.0,-4.0,-2.0,2.0,1.0,0.0,0.0,1651087708149007.0,0
14,-3.0,-2.0,4.0,6.0,1.0,0.0,0.0,1.0,1651087708161203.0,0
15,-1.0,-2.0,-4.0,-1.0,-1.0,-3.0,-1.0,0.0,1651087708161203.0,0
16,0.0,-1.0,-2.0,-4.0,-4.0,-4.0,-3.0,-1.0,1651087708163072.0,0
17,-2.0,-3.0,-17.0,-6.0,-2.0,-1.0,0.0,-1.0,1651087708163072.0,0
18,-3.0,-3.0,-2.0,-1.0,1.0,0.0,-1.0,-2.0,1651087708186987.0,0
19,0.0,0.0,2.0,-3.0,1.0,5.0,0.0,0.0,1651087708186987.0,0
20,0.0,0.0,-3.0,0.0,0.0,1.0,0.0,0.0,1651087708187980.0,0
21,-2.0,0.0,6.0,3.0,-1.0,-2.0,-1.0,-1.0,1651087708187980.0,0
22,0.0,0.0,-6.0,-1.0,1.0,3.0,0.0,-1.0,1651087708225202.0,0
23,-1.0,-3.0,-1.0,-2.0,-3.0,-2.0,-1.0,0.0,1651087708225202.0,0
24,0.0,2.0,6.0,-1.0,2.0,-1.0,-1.0,-1.0,1651087708232387.0,0
25,-1.0,0.0,-3.0,-3.0,-3.0,-3.0,-1.0,-1.0,1651087708232387.0,0
26,-1.0,-1.0,-3.0,2.0,-1.0,-2.0,0.0,0.0,1651087708233389.0,0
27,-1.0,0.0,0.0,1.0,-1.0,0.0,0.0,0.0,1651087708233389.0,0
28,1.0,2.0,-1.0,0.0,2.0,2.0,1.0,-1.0,1651087708235384.0,0
29,1.0,-2.0,1.0,-1.0,-1.0,0.0,0.0,-2.0,1651087708235384.0,0
30,0.0,-1.0,9.0,1.0,1.0,0.0,1.0,-2.0,1651087708246508.0,0
31,1.0,1.0,-5.0,-4.0,-2.0,0.0,-2.0,1.0,1651087708246508.0,0
32,-2.0,-3.0,-9.0,-4.0,-2.0,-1.0,-1.0,1.0,1651087708255228.0,0
33,2.0,1.0,7.0,4.0,1.0,0.0,-1.0,0.0,1651087708255228.0,0
34,0.0,-1.0,-3.0,-5.0,-2.0,0.0,-1.0,-1.0,1651087708261844.0,0
35,0.0,0.0,-7.0,-2.0,-1.0,-1.0,1.0,-2.0,1651087708261844.0,0
36,-1.0,-2.0,14.0,2.0,-2.0,-1.0,1.0,-2.0,1651087708278537.0,0
37,-1.0,-6.0,-15.0,-4.0,-1.0,-2.0,0.0,0.0,1651087708278537.0,0
38,0.0,3.0,15.0,3.0,-2.0,-1.0,0.0,0.0,1651087708283066.0,0
39,-1.0,1.0,3.0,4.0,1.0,-2.0,0.0,0.0,1651087708283066.0,0
40,-1.0,-3.0,-11.0,-1.0,-1.0,1.0,0.0,0.0,1651087708307385.0,0
41,-1.0,1.0,2.0,3.0,2.0,2.0,1.0,0.0,1651087708307385.0,0
42,-2.0,-2.0,0.0,-1.0,-2.0,-1.0,-1.0,-1.0,1651087708307385.0,0
43,2.0,4.0,13.0,2.0,-1.0,-1.0,0.0,-2.0,1651087708307385.0,0
44,-1.0,-3.0,-7.0,-2.0,0.0,-3.0,-2.0,-2.0,1651087708321239.0,0
45,-1.0,-1.0,-6.0,-4.0,1.0,-2.0,2.0,0.0,1651087708321239.0,0
46,0.0,-3.0,2.0,4.0,2.0,0.0,0.0,0.0,1651087708322243.0,0
47,0.0,-1.0,-7.0,-8.0,-2.0,0.0,0.0,1.0,1651087708322243.0,0
48,0.0,0.0,3.0,10.0,0.0,-2.0,0.0,1.0,1651087708344141.0,0
49,-1.0,-2.0,4.0,-1.0,1.0,1.0,-1.0,-1.0,1651087708344141.0,0
50,-1.0,-2.0,-16.0,-7.0,-1.0,-4.0,-1.0,-1.0,1651087708344970.0,0
51,-2.0,-2.0,2.0,2.0,-1.0,0.0,0.0,-1.0,1651087708344970.0,0
52,1.0,-1.0,2.0,-3.0,-3.0,2.0,0.0,2.0,1651087708366215.0,0
53,0.0,2.0,6.0,1.0,-3.0,-1.0,-1.0,-1.0,1651087708366215.0,0
54,-1.0,0.0,-17.0,-3.0,0.0,-1.0,-3.0,-1.0,1651087708367231.0,0
55,-1.0,-2.0,1.0,0.0,4.0,2.0,0.0,-1.0,1651087708367231.0,0
56,-1.0,1.0,-3.0,-2.0,-1.0,-3.0,-1.0,0.0,1651087708383367.0,0
57,-1.0,0.0,2.0,0.0,-2.0,-3.0,-3.0,-2.0,1651087708383367.0,0
58,1.0,0.0,11.0,8.0,6.0,2.0,1.0,1.0,1651087708383367.0,0
59,-2.0,-2.0,-5.0,-2.0,0.0,0.0,-1.0,0.0,1651087708383367.0,0
60,1.0,0.0,-4.0,-2.0,1.0,1.0,0.0,-1.0,1651087708404378.0,0
61,-2.0,-1.0,0.0,-1.0,-3.0,-1.0,0.0,-1.0,1651087708404378.0,0
62,0.0,-2.0,3.0,-4.0,-2.0,-1.0,0.0,0.0,1651087708405209.0,0
63,-1.0,-4.0,-11.0,-1.0,-2.0,-2.0,-3.0,0.0,1651087708405209.0,0
64,1.0,6.0,6.0,-5.0,-1.0,-1.0,0.0,0.0,1651087708427096.0,0
65,-2.0,-3.0,3.0,7.0,5.0,3.0,1.0,0.0,1651087708427096.0,0
66,0.0,0.0,-2.0,-1.0,-1.0,1.0,-1.0,-2.0,1651087708427096.0,0
67,0.0,0.0,8.0,2.0,4.0,3.0,1.0,0.0,1651087708427096.0,0
68,-2.0,-3.0,-5.0,-5.0,-9.0,-6.0,-3.0,-3.0,1651087708442019.0,0
69,1.0,0.0,-3.0,-5.0,1.0,1.0,0.0,-1.0,1651087708442019.0,0
70,0.0,0.0,-1.0,2.0,-2.0,0.0,0.0,0.0,1651087708442019.0,0
71,2.0,-2.0,1.0,3.0,3.0,-2.0,-1.0,-2.0,1651087708442019.0,0
72,1.0,0.0,2.0,1.0,4.0,0.0,-1.0,-1.0,1651087708464384.0,0
73,0.0,-1.0,-9.0,-3.0,0.0,0.0,0.0,1.0,1651087708464384.0,0
74,-1.0,1.0,13.0,-2.0,-6.0,-2.0,-1.0,-1.0,1651087708465217.0,0
75,-2.0,-2.0,-14.0,-7.0,-3.0,-1.0,0.0,-1.0,1651087708465217.0,0
76,-2.0,0.0,4.0,3.0,-1.0,-2.0,-2.0,1.0,1651087708487134.0,0
77,1.0,2.0,-1.0,-1.0,-2.0,-2.0,0.0,-2.0,1651087708487134.0,0
78,0.0,-3.0,-1.0,4.0,4.0,3.0,0.0,-1.0,1651087708487134.0,0
79,-1.0,1.0,-1.0,2.0,2.0,0.0,2.0,1.0,1651087708487134.0,0
80,-2.0,0.0,6.0,2.0,0.0,1.0,1.0,-1.0,1651087708502421.0,0
81,0.0,1.0,-10.0,1.0,-2.0,2.0,-2.0,1.0,1651087708502421.0,0
82,-1.0,-1.0,-10.0,-11.0,-7.0,-5.0,-3.0,-1.0,1651087708502421.0,0
83,-1.0,2.0,11.0,5.0,-2.0,-1.0,-1.0,-1.0,1651087708502421.0,0
84,-1.0,-2.0,-5.0,-6.0,3.0,4.0,2.0,0.0,1651087708525587.0,0
85,0.0,2.0,11.0,10.0,6.0,0.0,0.0,-1.0,1651087708525587.0,0
86,-1.0,-1.0,-7.0,-2.0,-2.0,-3.0,-1.0,-1.0,1651087708526428.0,0
87,0.0,-1.0,3.0,-3.0,-2.0,-1.0,-1.0,-1.0,1651087708526428.0,0
88,-1.0,-4.0,-1.0,-2.0,-4.0,-1.0,0.0,0.0,1651087708547373.0,0
89,0.0,1.0,2.0,-2.0,-3.0,-1.0,0.0,-2.0,1651087708547373.0,0
90,-1.0,-5.0,-20.0,-4.0,0.0,1.0,0.0,-2.0,1651087708547373.0,0
91,-1.0,4.0,15.0,1.0,-3.0,-2.0,-3.0,-3.0,1651087708547373.0,0
92,0.0,-4.0,-17.0,-6.0,0.0,2.0,0.0,-2.0,1651087708561400.0,0
93,-2.0,-1.0,0.0,-3.0,0.0,-1.0,-2.0,-1.0,1651087708561400.0,0
94,2.0,3.0,7.0,1.0,-2.0,-3.0,-2.0,0.0,1651087708562232.0,0
95,1.0,-2.0,-2.0,10.0,2.0,0.0,1.0,-1.0,1651087708562232.0,0
96,-2.0,-3.0,-25.0,-10.0,-3.0,-2.0,-1.0,-1.0,1651087708584389.0,0
97,-1.0,-2.0,-1.0,-3.0,0.0,-1.0,-2.0,0.0,1651087708584389.0,0
98,0.0,1.0,6.0,1.0,-3.0,1.0,0.0,0.0,1651087708585256.0,0
99,-2.0,-1.0,-13.0,-4.0,-1.0,1.0,1.0,0.0,1651087708585256.0,0
100,1.0,1.0,30.0,12.0,6.0,1.0,0.0,-1.0,1651087708606229.0,0
101,-1.0,-2.0,-23.0,-8.0,-1.0,-1.0,0.0,0.0,1651087708606229.0,0
102,0.0,0.0,3.0,6.0,1.0,-1.0,-1.0,0.0,1651087708607227.0,0
103,2.0,0.0,7.0,-1.0,-3.0,-3.0,-1.0,0.0,1651087708607227.0,0
104,-1.0,0.0,0.0,4.0,5.0,0.0,0.0,-2.0,1651087708621376.0,0
105,0.0,-2.0,-14.0,-7.0,-5.0,-1.0,-1.0,0.0,1651087708621376.0,0
106,0.0,-1.0,3.0,-3.0,0.0,-1.0,-1.0,0.0,1651087708622377.0,0
107,0.0,0.0,7.0,-1.0,-4.0,1.0,-1.0,0.0,1651087708622377.0,0
108,0.0,0.0,-7.0,-5.0,-6.0,-2.0,-3.0,0.0,1651087708644331.0,0
109,-2.0,1.0,6.0,6.0,4.0,0.0,1.0,0.0,1651087708644331.0,0
110,-2.0,0.0,5.0,-1.0,1.0,0.0,0.0,-1.0,1651087708645202.0,0
111,-1.0,-2.0,-5.0,-2.0,1.0,-1.0,0.0,0.0,1651087708645202.0,0
112,0.0,1.0,3.0,1.0,-2.0,-2.0,0.0,1.0,1651087708666190.0,0
113,1.0,0.0,0.0,0.0,-3.0,-1.0,-2.0,0.0,1651087708666190.0,0
114,1.0,0.0,-7.0,-6.0,-1.0,-1.0,-1.0,1.0,1651087708667212.0,0
115,0.0,-5.0,-2.0,1.0,0.0,-2.0,0.0,-2.0,1651087708667212.0,0
116,-1.0,1.0,15.0,9.0,-1.0,3.0,0.0,0.0,1651087708681317.0,0
117,-1.0,-1.0,-20.0,-10.0,-2.0,2.0,2.0,-1.0,1651087708681317.0,0
118,-1.0,0.0,2.0,1.0,-2.0,-1.0,0.0,-1.0,1651087708682317.0,0
119,-1.0,-1.0,-11.0,-3.0,1.0,1.0,-1.0,1.0,1651087708682317.0,0
120,0.0,0.0,-5.0,-2.0,-2.0,-1.0,-2.0,0.0,1651087708704331.0,0
121,2.0,-1.0,7.0,1.0,-2.0,-3.0,-2.0,-2.0,1651087708704331.0,0
122,0.0,0.0,13.0,-3.0,-3.0,-1.0,-1.0,-2.0,1651087708705193.0,0
123,-1.0,-3.0,-16.0,-2.0,6.0,1.0,-2.0,0.0,1651087708705193.0,0
124,-2.0,2.0,10.0,3.0,-5.0,-1.0,2.0,-1.0,1651087708727715.0,0
125,-2.0,-2.0,5.0,1.0,1.0,-1.0,0.0,1.0,1651087708727715.0,0
126,-2.0,0.0,4.0,4.0,0.0,-1.0,-1.0,1.0,1651087708727715.0,0
127,0.0,-1.0,-14.0,-2.0,-4.0,0.0,-1.0,0.0,1651087708727715.0,0
128,0.0,-3.0,-5.0,1.0,2.0,-1.0,0.0,0.0,1651087708742009.0,0
129,-1.0,0.0,10.0,2.0,-3.0,0.0,0.0,0.0,1651087708742009.0,0
130,0.0,-1.0,-1.0,5.0,2.0,0.0,1.0,-1.0,1651087708742009.0,0
131,-1.0,0.0,4.0,-6.0,-1.0,0.0,1.0,-2.0,1651087708742009.0,0
132,-1.0,-2.0,-5.0,-2.0,-1.0,-1.0,-2.0,-2.0,1651087708764445.0,0
133,-1.0,-2.0,4.0,0.0,1.0,0.0,1.0,-1.0,1651087708764445.0,0
134,1.0,0.0,-5.0,1.0,4.0,1.0,2.0,1.0,1651087708764445.0,0
135,-2.0,0.0,8.0,-2.0,-5.0,-2.0,0.0,1.0,1651087708764445.0,0
136,-1.0,-3.0,-15.0,-8.0,-1.0,-1.0,-1.0,0.0,1651087708786321.0,0
137,-1.0,1.0,28.0,16.0,0.0,0.0,-1.0,-1.0,1651087708786321.0,0
138,-1.0,-5.0,-27.0,-11.0,-4.0,-1.0,-2.0,-1.0,1651087708787188.0,0
139,0.0,0.0,5.0,-4.0,0.0,-1.0,2.0,-2.0,1651087708787188.0,0
140,0.0,1.0,6.0,-3.0,-5.0,-3.0,-1.0,1.0,1651087708802090.0,0
141,1.0,1.0,1.0,-1.0,2.0,0.0,0.0,1.0,1651087708802090.0,0
142,0.0,-1.0,-9.0,0.0,3.0,2.0,-1.0,-2.0,1651087708802090.0,0
143,-1.0,1.0,-1.0,2.0,-1.0,3.0,0.0,-3.0,1651087708802090.0,0
144,0.0,-4.0,-11.0,-5.0,1.0,1.0,-2.0,-1.0,1651087708832279.0,0
145,1.0,1.0,12.0,2.0,-4.0,-4.0,-1.0,0.0,1651087708832279.0,0
146,0.0,0.0,2.0,-2.0,-5.0,-3.0,-1.0,0.0,1651087708833204.0,0
147,0.0,-5.0,-8.0,-6.0,-2.0,-2.0,0.0,0.0,1651087708833204.0,0
148,-1.0,1.0,5.0,5.0,3.0,4.0,2.0,-2.0,1651087708854352.0,0
149,0.0,-1.0,-5.0,1.0,1.0,0.0,-2.0,0.0,1651087708854352.0,0
150,-1.0,0.0,3.0,-2.0,-1.0,-2.0,-1.0,0.0,1651087708855244.0,0
151,-1.0,1.0,-3.0,-1.0,0.0,0.0,-1.0,1.0,1651087708855244.0,0
152,-1.0,-1.0,6.0,5.0,-3.0,-1.0,0.0,0.0,1651087708861193.0,0
153,-1.0,2.0,-8.0,-3.0,0.0,1.0,-2.0,0.0,1651087708861193.0,0
154,0.0,-2.0,11.0,-4.0,-1.0,2.0,-1.0,0.0,1651087708868214.0,0
155,0.0,2.0,-16.0,-2.0,-2.0,0.0,2.0,0.0,1651087708868214.0,0
156,-1.0,-4.0,-2.0,-5.0,1.0,-1.0,-1.0,-2.0,1651087708884331.0,0
157,1.0,-1.0,-4.0,-4.0,-3.0,0.0,0.0,-1.0,1651087708884331.0,0
158,1.0,2.0,16.0,9.0,7.0,4.0,0.0,1.0,1651087708884331.0,0
159,1.0,0.0,5.0,-1.0,-3.0,-2.0,-2.0,-1.0,1651087708884331.0,0
160,0.0,1.0,-9.0,2.0,1.0,0.0,0.0,1.0,1651087708906071.0,0
161,0.0,-4.0,-12.0,-10.0,-3.0,-1.0,0.0,0.0,1651087708906071.0,0
162,-1.0,4.0,-8.0,-2.0,-4.0,-2.0,-1.0,-1.0,1651087708907443.0,0
163,0.0,0.0,15.0,6.0,0.0,1.0,-1.0,-1.0,1651087708907443.0,0
164,0.0,0.0,-1.0,-5.0,-3.0,-3.0,0.0,0.0,1651087708921260.0,0
165,-2.0,-1.0,6.0,-2.0,-2.0,0.0,0.0,1.0,1651087708921260.0,0
166,-2.0,-5.0,-4.0,2.0,3.0,3.0,0.0,-2.0,1651087708929140.0,0
167,-3.0,1.0,1.0,4.0,3.0,-2.0,-1.0,-2.0,1651087708929140.0,0
168,0.0,-1.0,-3.0,-3.0,-2.0,-1.0,0.0,0.0,1651087708944423.0,0
169,1.0,-2.0,-4.0,-7.0,-4.0,0.0,0.0,-1.0,1651087708944423.0,0
170,0.0,0.0,11.0,11.0,-1.0,0.0,0.0,0.0,1651087708945247.0,0
171,0.0,1.0,5.0,1.0,0.0,0.0,-1.0,-2.0,1651087708945247.0,0
172,0.0,-1.0,3.0,7.0,4.0,3.0,-1.0,0.0,1651087708966998.0,0
173,0.0,0.0,-9.0,-5.0,-3.0,-2.0,-1.0,-1.0,1651087708966998.0,0
174,0.0,-2.0,-3.0,-6.0,-3.0,-2.0,-1.0,-1.0,1651087708966998.0,0
175,0.0,0.0,8.0,2.0,1.0,0.0,-2.0,0.0,1651087708966998.0,0
176,1.0,1.0,2.0,2.0,-4.0,-2.0,0.0,-1.0,1651087708981293.0,0
177,-2.0,-2.0,-3.0,-4.0,5.0,2.0,-1.0,-2.0,1651087708981293.0,0
178,-1.0,1.0,1.0,-1.0,-1.0,-3.0,0.0,0.0,1651087708988645.0,0
179,1.0,2.0,0.0,3.0,3.0,-1.0,0.0,1.0,1651087708988645.0,0
180,-2.0,0.0,6.0,0.0,0.0,1.0,0.0,-1.0,1651087709004358.0,0
181,-1.0,-2.0,-6.0,-1.0,-2.0,-1.0,1.0,0.0,1651087709004358.0,0
182,1.0,-1.0,-8.0,0.0,8.0,2.0,1.0,0.0,1651087709005213.0,0
183,0.0,-2.0,-5.0,-7.0,-4.0,-3.0,-1.0,0.0,1651087709005213.0,0
184,-1.0,0.0,2.0,1.0,-2.0,-3.0,0.0,-2.0,1651087709026462.0,0
185,-1.0,0.0,-2.0,1.0,1.0,4.0,0.0,-3.0,1651087709026462.0,0
186,-1.0,-2.0,11.0,7.0,-4.0,-1.0,1.0,0.0,1651087709027315.0,0
187,-1.0,-1.0,-18.0,-5.0,-3.0,-2.0,0.0,-1.0,1651087709027315.0,0
188,1.0,1.0,3.0,0.0,1.0,0.0,-1.0,2.0,1651087709040604.0,0
189,-1.0,-2.0,-7.0,-10.0,-5.0,-4.0,-3.0,0.0,1651087709040604.0,0
190,0.0,-3.0,-2.0,-8.0,-7.0,0.0,1.0,0.0,1651087709048899.0,0
191,0.0,0.0,12.0,7.0,-1.0,0.0,-1.0,-2.0,1651087709048899.0,0
192,0.0,-1.0,0.0,1.0,4.0,-1.0,0.0,-1.0,1651087709065238.0,0
193,-2.0,-2.0,-17.0,-5.0,0.0,-1.0,0.0,-2.0,1651087709065238.0,0
194,0.0,-1.0,5.0,3.0,1.0,0.0,1.0,0.0,1651087709065238.0,0
195,1.0,-3.0,0.0,-6.0,-7.0,-2.0,-2.0,-1.0,1651087709065238.0,0
196,-1.0,0.0,-10.0,-3.0,0.0,1.0,1.0,0.0,1651087709086608.0,0
197,-2.0,2.0,17.0,7.0,2.0,-1.0,-2.0,3.0,1651087709086608.0,0
198,-3.0,-2.0,-14.0,-4.0,-2.0,-2.0,-1.0,-2.0,1651087709087458.0,0
199,0.0,0.0,4.0,4.0,1.0,-1.0,0.0,-1.0,1651087709087458.0,0
200,-3.0,0.0,-4.0,-4.0,1.0,3.0,1.0,0.0,1651087709101316.0,0
201,1.0,1.0,15.0,3.0,1.0,0.0,0.0,0.0,1651087709101316.0,0
202,1.0,-1.0,-20.0,1.0,-4.0,-1.0,0.0,0.0,1651087709108912.0,0
203,-3.0,-5.0,-3.0,-5.0,3.0,0.0,1.0,-1.0,1651087709108912.0,0
204,-2.0,1.0,5.0,-2.0,-2.0,-1.0,-1.0,-1.0,1651087709124322.0,0
205,-1.0,-2.0,0.0,3.0,0.0,-2.0,-1.0,0.0,1651087709124322.0,0
206,0.0,1.0,-2.0,-1.0,0.0,-3.0,1.0,-2.0,1651087709138704.0,0
207,-1.0,-1.0,3.0,3.0,1.0,1.0,-1.0,1.0,1651087709138704.0,0
208,2.0,-2.0,-10.0,-2.0,-2.0,0.0,0.0,-1.0,1651087709147098.0,0
209,1.0,3.0,2.0,2.0,-5.0,-1.0,-1.0,-1.0,1651087709147098.0,0
210,0.0,-1.0,1.0,1.0,-1.0,-1.0,0.0,1.0,1651087709147098.0,0
211,-2.0,1.0,1.0,-6.0,-5.0,0.0,-1.0,0.0,1651087709147098.0,0
212,0.0,-1.0,5.0,5.0,2.0,0.0,1.0,-1.0,1651087709161398.0,0
213,-1.0,-3.0,-21.0,-2.0,4.0,1.0,0.0,-1.0,1651087709161398.0,0
214,1.0,1.0,10.0,-3.0,-1.0,0.0,-2.0,-1.0,1651087709168360.0,0
215,-2.0,1.0,-4.0,0.0,1.0,-1.0,0.0,0.0,1651087709168360.0,0
216,-1.0,-2.0,0.0,-5.0,-9.0,-4.0,-4.0,-2.0,1651087709184400.0,0
217,0.0,-2.0,-8.0,-4.0,-4.0,-5.0,-1.0,-1.0,1651087709184400.0,0
218,-1.0,2.0,16.0,7.0,8.0,3.0,1.0,-1.0,1651087709185253.0,0
219,1.0,0.0,-16.0,-3.0,-1.0,1.0,-1.0,-1.0,1651087709185253.0,0
220,0.0,2.0,1.0,-3.0,-5.0,-2.0,-1.0,-1.0,1651087709206342.0,0
221,-1.0,1.0,5.0,3.0,3.0,0.0,-1.0,-1.0,1651087709206342.0,0
222,-3.0,-4.0,-13.0,-5.0,-3.0,0.0,-1.0,-1.0,1651087709207194.0,0
223,0.0,6.0,14.0,5.0,-1.0,1.0,1.0,-2.0,1651087709207194.0,0
224,1.0,1.0,-1.0,3.0,2.0,-3.0,-1.0,-1.0,1651087709229476.0,0
225,0.0,0.0,-6.0,-4.0,1.0,-1.0,0.0,-1.0,1651087709229476.0,0
226,-3.0,-2.0,2.0,-6.0,-7.0,-4.0,-2.0,-1.0,1651087709229476.0,0
227,1.0,5.0,-4.0,-1.0,2.0,-1.0,1.0,1.0,1651087709229476.0,0
228,-1.0,-10.0,5.0,3.0,3.0,1.0,0.0,0.0,1651087709252726.0,0
229,0.0,-3.0,-4.0,4.0,2.0,0.0,1.0,0.0,1651087709252726.0,0
230,1.0,0.0,-4.0,1.0,0.0,-2.0,-2.0,-2.0,1651087709253059.0,0
231,-1.0,3.0,7.0,-6.0,-2.0,0.0,-2.0,-1.0,1651087709253059.0,0
232,0.0,2.0,0.0,0.0,-2.0,-1.0,-1.0,1.0,1651087709266204.0,0
233,-3.0,-3.0,-3.0,-2.0,-1.0,1.0,0.0,-1.0,1651087709266204.0,0
234,-1.0,-4.0,-15.0,-6.0,-1.0,-2.0,-2.0,0.0,1651087709267201.0,0
235,-1.0,-3.0,2.0,6.0,1.0,-1.0,-1.0,1.0,1651087709267201.0,0
236,0.0,2.0,2.0,1.0,3.0,1.0,2.0,0.0,1651087709289189.0,0
237,2.0,-2.0,3.0,0.0,-4.0,-1.0,-1.0,-1.0,1651087709289189.0,0
238,1.0,8.0,10.0,2.0,7.0,6.0,0.0,-1.0,1651087709290222.0,0
239,-2.0,-4.0,-1.0,-1.0,-3.0,-4.0,0.0,1.0,1651087709290222.0,0
240,-1.0,-2.0,7.0,1.0,8.0,0.0,-2.0,0.0,1651087709312734.0,0
241,-3.0,0.0,0.0,-12.0,-18.0,-4.0,-1.0,0.0,1651087709312734.0,0
242,1.0,-1.0,3.0,4.0,3.0,-2.0,1.0,1.0,1651087709313093.0,0
243,2.0,-3.0,-8.0,-6.0,10.0,9.0,1.0,0.0,1651087709313093.0,0
244,-2.0,4.0,0.0,-7.0,-23.0,-13.0,-5.0,-4.0,1651087709327008.0,0
245,-1.0,-5.0,6.0,21.0,19.0,8.0,1.0,0.0,1651087709327008.0,0
246,0.0,2.0,5.0,-12.0,-22.0,-7.0,-2.0,-1.0,1651087709327008.0,0
247,-1.0,-4.0,-2.0,5.0,14.0,4.0,0.0,-3.0,1651087709327008.0,0
248,-2.0,-12.0,-24.0,-4.0,8.0,4.0,3.0,-1.0,1651087709349044.0,0
249,0.0,12.0,6.0,-22.0,-24.0,-11.0,-3.0,-1.0,1651087709349044.0,0
250,-1.0,-7.0,-1.0,12.0,10.0,6.0,1.0,2.0,1651087709350045.0,0
251,-1.0,-3.0,-9.0,-5.0,0.0,-3.0,1.0,-1.0,1651087709350045.0,0
252,-1.0,1.0,-5.0,-10.0,-13.0,-6.0,-1.0,-3.0,1651087709372204.0,0
253,-1.0,-2.0,2.0,9.0,8.0,4.0,-2.0,0.0,1651087709372204.0,0
254,-1.0,2.0,6.0,1.0,4.0,1.0,3.0,-1.0,1651087709373201.0,0
255,-1.0,-4.0,1.0,-3.0,-8.0,-4.0,-2.0,-1.0,1651087709373201.0,0
256,0.0,2.0,2.0,5.0,6.0,4.0,0.0,0.0,1651087709386341.0,0
257,-3.0,-2.0,-10.0,-5.0,5.0,-1.0,-2.0,-1.0,1651087709386341.0,0
258,-1.0,-2.0,0.0,-2.0,1.0,0.0,-2.0,-1.0,1651087709394392.0,0
259,0.0,1.0,-4.0,-1.0,-10.0,-2.0,-2.0,-1.0,1651087709394392.0,0
260,-2.0,1.0,2.0,1.0,11.0,5.0,2.0,1.0,1651087709409241.0,0
261,1.0,1.0,3.0,-2.0,-1.0,-2.0,-2.0,-2.0,1651087709409241.0,0
262,-3.0,-4.0,-7.0,2.0,-4.0,-2.0,-2.0,-2.0,1651087709410283.0,0
263,0.0,1.0,9.0,0.0,3.0,1.0,-2.0,2.0,1651087709410283.0,0
264,-3.0,-5.0,-21.0,-8.0,-7.0,-3.0,1.0,-1.0,1651087709432267.0,0
265,0.0,-6.0,1.0,5.0,2.0,2.0,0.0,0.0,1651087709432267.0,0
266,1.0,5.0,-1.0,-7.0,-1.0,-1.0,1.0,0.0,1651087709448172.0,0
267,0.0,0.0,11.0,5.0,-10.0,0.0,1.0,0.0,1651087709448172.0,0
268,1.0,3.0,6.0,-2.0,8.0,2.0,1.0,2.0,1651087709449075.0,0
269,-1.0,-2.0,-5.0,-1.0,-3.0,-2.0,0.0,-1.0,1651087709449075.0,0
270,-1.0,-3.0,-12.0,-7.0,-7.0,-6.0,-2.0,-2.0,1651087709454097.0,0
271,-1.0,-2.0,-2.0,-7.0,-6.0,-1.0,-1.0,-2.0,1651087709454097.0,0
272,1.0,2.0,1.0,2.0,-3.0,0.0,0.0,-1.0,1651087709469214.0,0
273,-1.0,-1.0,-1.0,0.0,0.0,1.0,0.0,-2.0,1651087709469214.0,0
274,0.0,1.0,9.0,3.0,0.0,-1.0,-1.0,0.0,1651087709470214.0,0
275,1.0,3.0,-3.0,-11.0,-7.0,-6.0,-2.0,-1.0,1651087709470214.0,0
276,-2.0,-4.0,4.0,17.0,19.0,6.0,-1.0,0.0,1651087709491711.0,0
277,-1.0,1.0,5.0,-11.0,3.0,0.0,1.0,1.0,1651087709491711.0,0
278,1.0,-6.0,-3.0,7.0,-2.0,-2.0,0.0,0.0,1651087709492568.0,0
279,-1.0,10.0,10.0,11.0,27.0,11.0,1.0,1.0,1651087709492568.0,0
280,-2.0,-10.0,-8.0,-1.0,-16.0,-4.0,-1.0,-1.0,1651087709506057.0,0
281,2.0,8.0,6.0,-2.0,-7.0,-2.0,-1.0,1.0,1651087709506057.0,0
282,0.0,-2.0,-2.0,-3.0,5.0,2.0,3.0,1.0,1651087709514327.0,0
283,-2.0,-2.0,4.0,-1.0,-12.0,-3.0,1.0,-2.0,1651087709514327.0,0
284,-5.0,-6.0,-6.0,-17.0,-12.0,-5.0,-3.0,-3.0,1651087709529209.0,0
285,-1.0,-6.0,-1.0,17.0,12.0,5.0,1.0,0.0,1651087709529209.0,0
286,0.0,13.0,5.0,-6.0,1.0,3.0,-2.0,-1.0,1651087709530244.0,0
287,3.0,-13.0,-8.0,14.0,3.0,-5.0,0.0,-1.0,1651087709530244.0,0
288,3.0,0.0,2.0,0.0,7.0,2.0,0.0,2.0,1651087709552675.0,0
289,-1.0,7.0,9.0,-3.0,-10.0,-4.0,-1.0,-1.0,1651087709552675.0,0
290,-2.0,-2.0,-4.0,3.0,4.0,0.0,0.0,-1.0,1651087709552675.0,0
291,-4.0,5.0,3.0,-1.0,2.0,-1.0,0.0,1.0,1651087709552675.0,0
292,-1.0,-6.0,-4.0,-8.0,-13.0,-6.0,-1.0,-1.0,1651087709565810.0,0
293,0.0,-2.0,-3.0,3.0,8.0,1.0,2.0,2.0,1651087709565810.0,0
294,0.0,-5.0,-2.0,-14.0,-5.0,-1.0,-1.0,-1.0,1651087709574271.0,0
295,-2.0,5.0,6.0,20.0,17.0,4.0,-1.0,-1.0,1651087709574271.0,0
296,2.0,11.0,4.0,0.0,-4.0,-2.0,1.0,0.0,1651087709589132.0,0
297,-1.0,-11.0,-16.0,-1.0,-1.0,0.0,-1.0,-1.0,1651087709589132.0,0
298,-2.0,7.0,4.0,-9.0,-8.0,-4.0,0.0,-1.0,1651087709590016.0,0
299,2.0,-4.0,-12.0,-19.0,-15.0,-2.0,1.0,-1.0,1651087709590016.0,0
300,2.0,20.0,16.0,21.0,9.0,3.0,0.0,2.0,1651087709612436.0,0
301,-3.0,-19.0,-8.0,-17.0,-8.0,-3.0,2.0,5.0,1651087709612436.0,0
302,-2.0,23.0,0.0,11.0,14.0,6.0,-3.0,-9.0,1651087709612436.0,0
303,-7.0,-39.0,-2.0,-10.0,-11.0,-8.0,-7.0,0.0,1651087709612436.0,0
304,-1.0,10.0,-4.0,2.0,5.0,0.0,-2.0,-2.0,1651087709626350.0,0
305,11.0,-8.0,-2.0,-6.0,-14.0,-7.0,-5.0,-3.0,1651087709626350.0,0
306,-8.0,-1.0,5.0,6.0,0.0,1.0,1.0,1.0,1651087709634467.0,0
307,2.0,21.0,6.0,-2.0,2.0,1.0,5.0,3.0,1651087709634467.0,0
308,-2.0,-9.0,-3.0,-8.0,-2.0,0.0,-1.0,-2.0,1651087709649185.0,0
309,-2.0,2.0,7.0,4.0,0.0,-1.0,0.0,-2.0,1651087709649185.0,0
310,3.0,-8.0,-8.0,-3.0,-3.0,-1.0,0.0,0.0,1651087709650180.0,0
311,-2.0,5.0,-7.0,7.0,8.0,3.0,-3.0,-4.0,1651087709650180.0,0
312,-1.0,-9.0,7.0,-5.0,-7.0,-2.0,0.0,2.0,1651087709672522.0,0
313,-1.0,9.0,-1.0,2.0,4.0,1.0,-1.0,-2.0,1651087709672522.0,0
314,0.0,-3.0,-1.0,0.0,-4.0,-2.0,0.0,2.0,1651087709672522.0,0
315,4.0,2.0,2.0,6.0,8.0,2.0,2.0,2.0,1651087709672522.0,0
316,-4.0,-12.0,-12.0,-3.0,0.0,-1.0,-1.0,-2.0,1651087709695399.0,0
317,0.0,28.0,14.0,-5.0,-1.0,0.0,-1.0,-4.0,1651087709695399.0,0
318,-3.0,-18.0,-2.0,10.0,6.0,6.0,5.0,-21.0,1651087709695399.0,0
319,0.0,-20.0,-15.0,-16.0,-28.0,-13.0,-8.0,16.0,1651087709695399.0,0
320,3.0,30.0,-11.0,17.0,33.0,3.0,-8.0,16.0,1651087709717747.0,0
321,-5.0,-16.0,35.0,14.0,7.0,0.0,-12.0,-9.0,1651087709717747.0,0
322,1.0,1.0,-2.0,-1.0,-4.0,-2.0,11.0,12.0,1651087709717747.0,0
323,4.0,2.0,7.0,-9.0,-4.0,-4.0,-2.0,-7.0,1651087709717747.0,0
324,-4.0,-14.0,-10.0,-15.0,-12.0,-1.0,2.0,-7.0,1651087709732945.0,0
325,-6.0,0.0,-21.0,6.0,0.0,2.0,2.0,-1.0,1651087709732945.0,0
326,2.0,7.0,9.0,-4.0,-3.0,-3.0,-10.0,-13.0,1651087709733971.0,0
327,-9.0,7.0,4.0,7.0,4.0,5.0,12.0,8.0,1651087709733971.0,0
328,0.0,-3.0,-5.0,-9.0,-16.0,-9.0,0.0,-15.0,1651087709755046.0,0
329,5.0,19.0,23.0,4.0,11.0,7.0,-2.0,11.0,1651087709755046.0,0
330,-4.0,-22.0,-7.0,0.0,-3.0,4.0,9.0,10.0,1651087709755046.0,0
331,-2.0,4.0,-18.0,-6.0,-4.0,1.0,7.0,-14.0,1651087709755046.0,1
332,-4.0,8.0,33.0,5.0,3.0,1.0,-39.0,-50.0,1651087709769231.0,1
333,5.0,5.0,-15.0,-7.0,-10.0,-23.0,-1.0,57.0,1651087709769231.0,1
334,2.0,-14.0,-3.0,12.0,14.0,2.0,20.0,23.0,1651087709770262.0,1
335,9.0,16.0,5.0,-1.0,-2.0,7.0,8.0,17.0,1651087709770262.0,1
336,4.0,-4.0,-10.0,-3.0,0.0,11.0,18.0,-3.0,1651087709792077.0,1
337,-2.0,-4.0,12.0,7.0,3.0,11.0,-7.0,-35.0,1651087709792077.0,1
338,-2.0,1.0,-12.0,-12.0,-7.0,-8.0,-3.0,10.0,1651087709792077.0,1
339,-8.0,11.0,0.0,6.0,6.0,6.0,8.0,-58.0,1651087709792077.0,1
340,-3.0,-9.0,3.0,-3.0,-11.0,-12.0,10.0,48.0,1651087709815395.0,1
341,0.0,12.0,-5.0,-7.0,-3.0,0.0,-4.0,-13.0,1651087709815395.0,1
342,1.0,-9.0,5.0,7.0,4.0,9.0,-30.0,-55.0,1651087709815395.0,1
343,-9.0,-50.0,17.0,1.0,2.0,6.0,39.0,33.0,1651087709815395.0,1
344,4.0,13.0,-45.0,-9.0,-6.0,-13.0,13.0,56.0,1651087709830272.0,1
345,2.0,-8.0,0.0,14.0,12.0,19.0,5.0,-37.0,1651087709830272.0,1
346,-10.0,28.0,20.0,-4.0,-5.0,-4.0,-1.0,-10.0,1651087709830272.0,1
347,14.0,-5.0,-3.0,-14.0,-20.0,-39.0,-43.0,41.0,1651087709830272.0,1
348,-6.0,-7.0,13.0,7.0,5.0,12.0,18.0,-8.0,1651087709852378.0,1
349,-6.0,-8.0,24.0,6.0,3.0,19.0,-6.0,-15.0,1651087709852378.0,1
350,5.0,7.0,-20.0,-9.0,-4.0,-7.0,24.0,3.0,1651087709852378.0,1
351,2.0,18.0,-11.0,12.0,12.0,-7.0,-40.0,-31.0,1651087709852378.0,1
352,-1.0,0.0,14.0,-12.0,-7.0,1.0,1.0,19.0,1651087709875612.0,1
353,1.0,-4.0,-23.0,-9.0,-5.0,-10.0,3.0,-16.0,1651087709875612.0,1
354,-15.0,-48.0,-11.0,0.0,-3.0,4.0,13.0,-14.0,1651087709875612.0,1
355,5.0,57.0,4.0,-4.0,-2.0,-14.0,-41.0,25.0,1651087709875612.0,1
356,3.0,10.0,-3.0,20.0,7.0,5.0,3.0,-16.0,1651087709888794.0,1
357,-15.0,-49.0,-37.0,-25.0,-16.0,-4.0,15.0,-21.0,1651087709888794.0,1
358,21.0,14.0,1.0,-7.0,-5.0,-7.0,5.0,49.0,1651087709889655.0,1
359,-2.0,1.0,-17.0,13.0,9.0,7.0,4.0,-76.0,1651087709889655.0,1
360,-8.0,-16.0,5.0,1.0,3.0,11.0,-4.0,56.0,1651087709912258.0,1
361,14.0,-19.0,-13.0,-6.0,1.0,-3.0,7.0,26.0,1651087709912258.0,1
362,-10.0,25.0,12.0,2.0,-3.0,-5.0,-24.0,1.0,1651087709912258.0,1
363,-1.0,-41.0,-16.0,-2.0,-3.0,-2.0,-22.0,-25.0,1651087709912258.0,1
364,0.0,18.0,-11.0,-12.0,-3.0,5.0,14.0,-57.0,1651087709935219.0,1
365,1.0,-29.0,-22.0,-3.0,-4.0,-20.0,-25.0,49.0,1651087709935219.0,1
366,-2.0,20.0,3.0,-8.0,-5.0,4.0,-9.0,-27.0,1651087709935219.0,1
367,5.0,-8.0,12.0,12.0,11.0,-14.0,-27.0,23.0,1651087709935219.0,1
368,-2.0,-11.0,3.0,7.0,10.0,14.0,48.0,-4.0,1651087709949073.0,1
369,11.0,20.0,-23.0,-9.0,-4.0,-8.0,-13.0,26.0,1651087709949073.0,1
370,-2.0,-22.0,5.0,-1.0,-10.0,-11.0,-16.0,-7.0,1651087709950108.0,1
371,-7.0,40.0,23.0,-12.0,-6.0,18.0,23.0,-48.0,1651087709950108.0,1
372,-4.0,-21.0,13.0,6.0,-4.0,-24.0,-16.0,51.0,1651087709971416.0,1
373,6.0,18.0,38.0,28.0,19.0,17.0,39.0,26.0,1651087709971416.0,1
374,3.0,15.0,-7.0,-4.0,-2.0,-1.0,9.0,-16.0,1651087709972438.0,1
375,-2.0,-5.0,7.0,9.0,9.0,17.0,19.0,17.0,1651087709972438.0,1
376,11.0,-6.0,-39.0,-19.0,-15.0,-24.0,-47.0,4.0,1651087709995833.0,1
377,-7.0,2.0,18.0,-2.0,-4.0,8.0,22.0,12.0,1651087709995833.0,1
378,10.0,17.0,2.0,1.0,0.0,-6.0,-20.0,23.0,1651087709995833.0,1
379,-17.0,-25.0,15.0,-4.0,-6.0,7.0,17.0,-15.0,1651087709995833.0,1
380,0.0,2.0,-20.0,3.0,9.0,0.0,-31.0,-48.0,1651087710008929.0,1
381,-12.0,-9.0,2.0,6.0,4.0,8.0,14.0,-67.0,1651087710008929.0,1
382,-3.0,6.0,6.0,9.0,12.0,11.0,53.0,91.0,1651087710009929.0,1
383,7.0,4.0,-14.0,-11.0,-10.0,-8.0,-10.0,1.0,1651087710009929.0,1
384,5.0,18.0,21.0,-1.0,1.0,1.0,-17.0,-16.0,1651087710031416.0,1
385,-7.0,13.0,10.0,-14.0,-12.0,-10.0,-14.0,-3.0,1651087710031416.0,1
386,-8.0,-36.0,-6.0,6.0,-9.0,-8.0,-42.0,-55.0,1651087710032415.0,1
387,11.0,-1.0,-3.0,-13.0,-10.0,11.0,61.0,78.0,1651087710032415.0,1
388,-2.0,-27.0,-3.0,12.0,-9.0,6.0,14.0,-23.0,1651087710062547.0,1
389,8.0,28.0,20.0,11.0,39.0,-1.0,-11.0,24.0,1651087710062547.0,1
390,5.0,0.0,14.0,6.0,3.0,2.0,-30.0,-22.0,1651087710063436.0,1
391,-10.0,23.0,-29.0,-25.0,-13.0,-6.0,-53.0,-50.0,1651087710063436.0,1
392,-1.0,-18.0,-19.0,-10.0,-19.0,6.0,85.0,40.0,1651087710069434.0,1
393,-12.0,-17.0,-29.0,-11.0,-25.0,-21.0,-37.0,-62.0,1651087710069434.0,1
394,5.0,9.0,1.0,13.0,20.0,4.0,42.0,65.0,1651087710069434.0,1
395,0.0,-17.0,4.0,-3.0,-5.0,6.0,9.0,-28.0,1651087710069434.0,1
396,7.0,21.0,56.0,-1.0,4.0,-6.0,-32.0,7.0,1651087710092509.0,1
397,-4.0,36.0,-16.0,1.0,-2.0,-2.0,-9.0,9.0,1651087710092509.0,1
398,-10.0,-32.0,2.0,11.0,17.0,12.0,-6.0,-36.0,1651087710092509.0,1
399,-2.0,-2.0,25.0,19.0,5.0,-5.0,12.0,49.0,1651087710092509.0,1
400,4.0,-50.0,-15.0,-14.0,-1.0,-1.0,-28.0,-19.0,1651087710115300.0,1
401,-8.0,8.0,10.0,-2.0,0.0,6.0,38.0,21.0,1651087710115300.0,1
402,16.0,14.0,-21.0,-28.0,-26.0,-31.0,-53.0,-4.0,1651087710115300.0,1
403,-3.0,-18.0,15.0,9.0,8.0,11.0,61.0,4.0,1651087710115300.0,1
404,5.0,-6.0,-15.0,7.0,3.0,-6.0,-46.0,-35.0,1651087710129477.0,1
405,5.0,7.0,18.0,-2.0,-7.0,1.0,-35.0,11.0,1651087710129477.0,1
406,-17.0,-9.0,-31.0,-3.0,6.0,20.0,89.0,29.0,1651087710129477.0,1
407,-2.0,12.0,15.0,2.0,7.0,1.0,-25.0,-32.0,1651087710129477.0,1
408,11.0,24.0,12.0,12.0,7.0,-4.0,41.0,90.0,1651087710152183.0,1
409,0.0,-23.0,-39.0,-4.0,-3.0,-2.0,-9.0,-26.0,1651087710152183.0,1
410,7.0,12.0,32.0,1.0,-20.0,-2.0,-9.0,-46.0,1651087710152183.0,1
411,-7.0,-31.0,-26.0,-23.0,8.0,5.0,-22.0,32.0,1651087710152183.0,1
412,-14.0,17.0,33.0,42.0,43.0,14.0,3.0,-9.0,1651087710175554.0,1
413,14.0,16.0,16.0,-11.0,-8.0,1.0,19.0,17.0,1651087710175554.0,1
414,-2.0,-2.0,10.0,8.0,-3.0,-3.0,0.0,9.0,1651087710175554.0,1
415,-6.0,-30.0,3.0,5.0,-1.0,-7.0,-29.0,-33.0,1651087710175554.0,1
416,-3.0,18.0,8.0,-2.0,-8.0,1.0,1.0,-27.0,1651087710189527.0,1
417,-1.0,-1.0,-14.0,-1.0,4.0,-2.0,-40.0,3.0,1651087710189527.0,1
418,2.0,-25.0,-22.0,-17.0,4.0,0.0,24.0,22.0,1651087710189527.0,1
419,5.0,41.0,9.0,11.0,-5.0,0.0,-1.0,21.0,1651087710189527.0,1
420,-11.0,-18.0,14.0,-20.0,-9.0,-5.0,-40.0,-83.0,1651087710212429.0,1
421,-5.0,-20.0,-8.0,0.0,-7.0,-2.0,42.0,43.0,1651087710212429.0,1
422,-5.0,-4.0,-16.0,-7.0,-6.0,-4.0,-39.0,-17.0,1651087710212429.0,1
423,2.0,-7.0,-7.0,11.0,8.0,-2.0,0.0,-6.0,1651087710212429.0,1
424,12.0,11.0,8.0,-10.0,-8.0,6.0,25.0,27.0,1651087710234396.0,1
425,-16.0,14.0,-3.0,2.0,-3.0,-5.0,5.0,-13.0,1651087710234396.0,1
426,-6.0,-36.0,-25.0,-9.0,7.0,1.0,-58.0,-66.0,1651087710242564.0,1
427,6.0,-2.0,-20.0,-15.0,-16.0,-8.0,63.0,76.0,1651087710242564.0,1
428,1.0,8.0,18.0,19.0,18.0,4.0,-20.0,-14.0,1651087710249077.0,1
429,-4.0,-14.0,-12.0,2.0,-5.0,-7.0,7.0,-2.0,1651087710249077.0,1
430,2.0,24.0,15.0,-16.0,-14.0,0.0,15.0,24.0,1651087710250077.0,1
431,7.0,12.0,-33.0,3.0,7.0,4.0,-60.0,-76.0,1651087710250077.0,1
432,-10.0,-39.0,-11.0,-14.0,-20.0,-18.0,39.0,30.0,1651087710272528.0,1
433,20.0,58.0,43.0,21.0,19.0,7.0,6.0,55.0,1651087710272528.0,1
434,-12.0,-11.0,16.0,6.0,0.0,-3.0,0.0,-17.0,1651087710272774.0,1
435,0.0,-8.0,-5.0,-1.0,0.0,3.0,11.0,-9.0,1651087710272774.0,1
436,5.0,36.0,-13.0,-20.0,-10.0,-4.0,-14.0,-14.0,1651087710295361.0,1
437,-8.0,-10.0,-2.0,17.0,-4.0,-8.0,-2.0,-33.0,1651087710295361.0,1
438,7.0,-42.0,-30.0,3.0,38.0,13.0,24.0,10.0,1651087710295361.0,1
439,15.0,64.0,2.0,5.0,-6.0,-13.0,-20.0,22.0,1651087710295361.0,1
440,-17.0,9.0,20.0,4.0,5.0,4.0,-10.0,9.0,1651087710309549.0,1
441,-5.0,-26.0,-5.0,-4.0,-6.0,4.0,17.0,-32.0,1651087710309549.0,1
442,8.0,17.0,7.0,-3.0,-7.0,-3.0,-1.0,18.0,1651087710309549.0,1
443,-10.0,-24.0,-3.0,2.0,2.0,11.0,2.0,-4.0,1651087710309549.0,1
444,1.0,9.0,-32.0,-4.0,-3.0,3.0,35.0,20.0,1651087710332142.0,1
445,10.0,17.0,15.0,-2.0,-1.0,3.0,8.0,24.0,1651087710332142.0,1
446,-3.0,-8.0,-6.0,-2.0,-10.0,-6.0,-23.0,-9.0,1651087710332539.0,1
447,-2.0,-21.0,15.0,17.0,22.0,7.0,11.0,-8.0,1651087710332539.0,1
448,-8.0,47.0,3.0,-5.0,-12.0,-1.0,-14.0,-24.0,1651087710354401.0,1
449,-2.0,-49.0,-34.0,-9.0,4.0,3.0,-23.0,-20.0,1651087710354401.0,1
450,2.0,20.0,5.0,7.0,-9.0,-1.0,12.0,6.0,1651087710355235.0,1
451,6.0,13.0,3.0,2.0,-4.0,-8.0,12.0,43.0,1651087710355235.0,1
452,-2.0,-37.0,-16.0,6.0,7.0,4.0,-9.0,-14.0,1651087710369116.0,1
453,-1.0,-9.0,-18.0,-10.0,-3.0,0.0,-12.0,-23.0,1651087710369116.0,1
454,-1.0,13.0,13.0,-12.0,-6.0,-3.0,-9.0,-9.0,1651087710376101.0,1
455,-3.0,-23.0,-6.0,8.0,-4.0,-6.0,-20.0,-35.0,1651087710376101.0,1
456,-2.0,3.0,3.0,-14.0,-5.0,1.0,44.0,47.0,1651087710391093.0,1
457,2.0,-9.0,-23.0,-13.0,-2.0,5.0,4.0,-2.0,1651087710391093.0,1
458,7.0,31.0,1.0,11.0,1.0,-10.0,-3.0,36.0,1651087710392074.0,1
459,-4.0,-10.0,4.0,-16.0,-15.0,1.0,29.0,6.0,1651087710392074.0,1
460,-7.0,-38.0,7.0,24.0,24.0,-2.0,-38.0,-22.0,1651087710415389.0,1
461,13.0,28.0,13.0,-8.0,-4.0,-8.0,11.0,-4.0,1651087710415389.0,1
462,-6.0,12.0,8.0,12.0,8.0,3.0,-30.0,-40.0,1651087710415389.0,1
463,-2.0,10.0,8.0,-17.0,-9.0,-5.0,11.0,28.0,1651087710415389.0,1
464,7.0,-17.0,-3.0,24.0,9.0,0.0,-15.0,8.0,1651087710437760.0,1
465,-11.0,-15.0,-26.0,-20.0,-19.0,-8.0,-17.0,-23.0,1651087710437760.0,1
466,-4.0,-19.0,-12.0,-6.0,7.0,8.0,15.0,24.0,1651087710437760.0,1
467,1.0,26.0,23.0,-7.0,-10.0,-7.0,-6.0,-4.0,1651087710437760.0,1
468,0.0,-13.0,-1.0,-15.0,-17.0,1.0,-6.0,-29.0,1651087710451987.0,1
469,-7.0,5.0,8.0,17.0,14.0,2.0,3.0,10.0,1651087710451987.0,1
470,0.0,18.0,5.0,9.0,3.0,0.0,-5.0,-30.0,1651087710451987.0,1
471,-12.0,-23.0,-7.0,-9.0,-6.0,-4.0,30.0,53.0,1651087710451987.0,1
472,-5.0,18.0,-15.0,-2.0,-3.0,-1.0,-28.0,-35.0,1651087710474546.0,1
473,10.0,-49.0,-2.0,-3.0,-12.0,-7.0,-9.0,2.0,1651087710474546.0,1
474,-1.0,-3.0,5.0,5.0,9.0,1.0,9.0,13.0,1651087710475451.0,1
475,6.0,-1.0,9.0,5.0,11.0,6.0,19.0,2.0,1651087710475451.0,1
476,1.0,14.0,15.0,-11.0,-11.0,-8.0,-35.0,-20.0,1651087710488678.0,1
477,-7.0,5.0,1.0,9.0,2.0,-1.0,2.0,15.0,1651087710488678.0,1
478,-11.0,-1.0,-13.0,-5.0,-16.0,-3.0,6.0,17.0,1651087710496814.0,1
479,-6.0,-4.0,3.0,-7.0,-9.0,-7.0,-36.0,-35.0,1651087710496814.0,1
480,14.0,-2.0,-24.0,-14.0,-1.0,8.0,14.0,-3.0,1651087710520253.0,1
481,-1.0,21.0,12.0,14.0,8.0,3.0,21.0,25.0,1651087710520253.0,1
482,-7.0,-26.0,-9.0,-17.0,-16.0,-5.0,3.0,-7.0,1651087710520253.0,1
483,5.0,14.0,-3.0,10.0,9.0,7.0,-12.0,-31.0,1651087710520253.0,1
484,-4.0,-7.0,-4.0,-17.0,-8.0,-7.0,6.0,31.0,1651087710534470.0,1
485,-6.0,-7.0,-11.0,-17.0,-14.0,-1.0,19.0,-9.0,1651087710534470.0,1
486,10.0,25.0,44.0,39.0,19.0,-2.0,-15.0,29.0,1651087710535337.0,1
487,1.0,-11.0,-24.0,0.0,11.0,2.0,1.0,2.0,1651087710535337.0,1
488,-1.0,9.0,8.0,-9.0,-13.0,-7.0,-5.0,-15.0,1651087710548808.0,1
489,0.0,4.0,-2.0,13.0,8.0,3.0,-6.0,-25.0,1651087710548808.0,1
490,-6.0,-14.0,-1.0,-12.0,-10.0,4.0,19.0,27.0,1651087710557103.0,1
491,-4.0,8.0,-14.0,-1.0,-4.0,-13.0,-65.0,-49.0,1651087710557103.0,1
492,7.0,1.0,9.0,0.0,-1.0,-1.0,33.0,11.0,1651087710571170.0,1
493,-2.0,16.0,5.0,9.0,9.0,0.0,-3.0,31.0,1651087710571170.0,1
494,4.0,0.0,-1.0,0.0,-1.0,-2.0,4.0,-14.0,1651087710572171.0,1
495,-7.0,-23.0,-6.0,-1.0,1.0,8.0,-21.0,-22.0,1651087710572171.0,1
496,-5.0,25.0,5.0,-12.0,-8.0,-7.0,27.0,22.0,1651087710594542.0,1
497,5.0,-19.0,-2.0,6.0,5.0,-4.0,-30.0,1.0,1651087710594542.0,1
498,-2.0,-1.0,2.0,-12.0,-24.0,1.0,5.0,-12.0,1651087710595405.0,1
499,-5.0,-1.0,6.0,20.0,29.0,6.0,-7.0,-2.0,1651087710595405.0,1
500,5.0,9.0,14.0,6.0,-1.0,1.0,3.0,-4.0,1651087710608650.0,1
501,-11.0,-25.0,24.0,-12.0,-7.0,-1.0,5.0,-22.0,1651087710608650.0,1
502,16.0,30.0,-14.0,3.0,0.0,0.0,10.0,22.0,1651087710617021.0,1
503,-4.0,-13.0,0.0,-3.0,7.0,-2.0,-4.0,-7.0,1651087710617021.0,1
504,1.0,-14.0,-12.0,-2.0,-1.0,5.0,13.0,16.0,1651087710632089.0,1
505,0.0,26.0,11.0,5.0,4.0,2.0,4.0,35.0,1651087710632089.0,1
506,-3.0,-7.0,31.0,17.0,7.0,0.0,-19.0,-31.0,1651087710632641.0,1
507,-4.0,40.0,-12.0,-20.0,-13.0,-5.0,20.0,16.0,1651087710632641.0,1
508,-3.0,-22.0,6.0,16.0,0.0,0.0,-39.0,-55.0,1651087710654336.0,1
509,-8.0,6.0,-6.0,-13.0,-18.0,-7.0,15.0,-6.0,1651087710654336.0,1
510,7.0,16.0,-6.0,11.0,47.0,21.0,20.0,44.0,1651087710655200.0,1
511,11.0,-21.0,17.0,10.0,-3.0,0.0,0.0,33.0,1651087710655200.0,1
512,-5.0,4.0,11.0,-12.0,-12.0,-9.0,17.0,11.0,1651087710668865.0,1
513,-15.0,6.0,14.0,-1.0,-9.0,-9.0,-37.0,-33.0,1651087710668865.0,1
514,8.0,-3.0,-1.0,-11.0,-21.0,-5.0,-10.0,-43.0,1651087710677106.0,1
515,2.0,-6.0,-13.0,11.0,17.0,10.0,-12.0,-24.0,1651087710677106.0,1
516,5.0,11.0,2.0,8.0,12.0,-3.0,43.0,94.0,1651087710692092.0,1
517,7.0,-2.0,-34.0,-10.0,-3.0,0.0,6.0,-6.0,1651087710692092.0,1
518,-9.0,-48.0,22.0,1.0,-4.0,-6.0,-4.0,-7.0,1651087710692092.0,1
519,0.0,7.0,7.0,-7.0,-6.0,2.0,5.0,1.0,1651087710692092.0,1
520,0.0,4.0,-14.0,-9.0,-2.0,1.0,-22.0,-38.0,1651087710715357.0,1
521,-3.0,6.0,8.0,-1.0,5.0,2.0,-1.0,-6.0,1651087710715357.0,1
522,-5.0,2.0,-16.0,-6.0,-12.0,-4.0,-2.0,6.0,1651087710715357.0,1
523,19.0,10.0,17.0,15.0,-15.0,-1.0,6.0,-11.0,1651087710715357.0,1
524,-3.0,-38.0,-8.0,19.0,34.0,14.0,-9.0,16.0,1651087710737526.0,1
525,9.0,33.0,10.0,1.0,6.0,5.0,8.0,-8.0,1651087710737526.0,1
526,-4.0,-14.0,1.0,-14.0,-18.0,-3.0,-13.0,5.0,1651087710738529.0,1
527,-10.0,40.0,-9.0,-18.0,-12.0,-10.0,-10.0,-29.0,1651087710738529.0,1
528,12.0,-5.0,-2.0,-5.0,-12.0,-8.0,43.0,50.0,1651087710752078.0,1
529,1.0,-13.0,-4.0,16.0,0.0,1.0,-13.0,-13.0,1651087710752078.0,1
530,-2.0,24.0,-36.0,-24.0,7.0,0.0,-2.0,-27.0,1651087710752078.0,1
531,-11.0,-51.0,9.0,8.0,0.0,-5.0,-5.0,3.0,1651087710752078.0,1
532,-2.0,22.0,-4.0,-5.0,-2.0,2.0,-6.0,-15.0,1651087710775357.0,1
533,3.0,-12.0,-2.0,-4.0,0.0,3.0,2.0,-8.0,1651087710775357.0,1
534,-14.0,-17.0,-2.0,2.0,-4.0,-4.0,-27.0,-60.0,1651087710775357.0,1
535,8.0,16.0,-2.0,-3.0,-7.0,1.0,66.0,114.0,1651087710775357.0,1
536,-4.0,-3.0,4.0,7.0,8.0,11.0,-43.0,-48.0,1651087710805223.0,1
537,10.0,-3.0,9.0,6.0,-4.0,3.0,54.0,57.0,1651087710805223.0,1
538,-1.0,25.0,8.0,-5.0,6.0,2.0,-7.0,-4.0,1651087710806218.0,1
539,-4.0,-40.0,-16.0,-3.0,-2.0,0.0,-13.0,-29.0,1651087710806218.0,1
540,-6.0,14.0,9.0,-2.0,2.0,3.0,-75.0,-48.0,1651087710811205.0,1
541,-3.0,-10.0,-3.0,13.0,3.0,-12.0,53.0,20.0,1651087710811205.0,1
542,8.0,8.0,-5.0,3.0,9.0,6.0,7.0,28.0,1651087710812202.0,1
543,-3.0,3.0,14.0,-1.0,-4.0,-1.0,7.0,2.0,1651087710812202.0,1
544,17.0,-23.0,-26.0,2.0,-8.0,1.0,1.0,-5.0,1651087710835183.0,1
545,-12.0,-4.0,-10.0,-23.0,-5.0,-5.0,-29.0,-22.0,1651087710835183.0,1
546,2.0,4.0,6.0,5.0,1.0,1.0,0.0,-20.0,1651087710835183.0,1
547,2.0,2.0,-15.0,-8.0,2.0,-1.0,22.0,40.0,1651087710835183.0,1
548,-3.0,7.0,13.0,2.0,-9.0,1.0,-14.0,-62.0,1651087710857720.0,1
549,-5.0,-24.0,-28.0,-8.0,-3.0,-12.0,-7.0,67.0,1651087710857720.0,1
550,0.0,-12.0,8.0,23.0,17.0,3.0,8.0,6.0,1651087710857720.0,1
551,-13.0,-34.0,-24.0,-29.0,-15.0,6.0,-21.0,-51.0,1651087710857720.0,1
552,17.0,25.0,7.0,14.0,5.0,-7.0,32.0,48.0,1651087710872123.0,1
553,8.0,10.0,18.0,9.0,5.0,9.0,-9.0,13.0,1651087710872123.0,1
554,-3.0,6.0,13.0,3.0,-5.0,-2.0,-10.0,-33.0,1651087710872123.0,1
555,-11.0,4.0,-27.0,-10.0,-2.0,-3.0,10.0,33.0,1651087710872123.0,1
556,-5.0,-24.0,-11.0,-3.0,-11.0,-5.0,22.0,4.0,1651087710895399.0,1
557,-1.0,-10.0,4.0,-10.0,-4.0,1.0,-29.0,-41.0,1651087710895399.0,1
558,7.0,-1.0,-27.0,4.0,3.0,1.0,21.0,32.0,1651087710895399.0,1
559,-3.0,15.0,65.0,11.0,-6.0,-2.0,-18.0,-36.0,1651087710895399.0,1
560,-12.0,1.0,-10.0,-6.0,1.0,-2.0,-1.0,1.0,1651087710917549.0,1
561,1.0,25.0,10.0,1.0,7.0,8.0,-8.0,-1.0,1651087710917549.0,1
562,-2.0,-13.0,-7.0,3.0,11.0,3.0,-9.0,-50.0,1651087710917549.0,1
563,6.0,-1.0,-17.0,5.0,7.0,6.0,38.0,65.0,1651087710917549.0,1
564,12.0,18.0,13.0,-1.0,-5.0,-3.0,-4.0,14.0,1651087710931449.0,1
565,-10.0,-26.0,12.0,1.0,1.0,0.0,-9.0,-39.0,1651087710931449.0,1
566,2.0,-4.0,-24.0,-9.0,-15.0,-2.0,13.0,34.0,1651087710932449.0,1
567,-2.0,4.0,12.0,6.0,-1.0,-1.0,-6.0,-34.0,1651087710932449.0,1
568,8.0,46.0,0.0,-11.0,-6.0,-2.0,-38.0,-22.0,1651087710954389.0,1
569,2.0,-29.0,-12.0,15.0,23.0,12.0,50.0,36.0,1651087710954389.0,1
570,-10.0,-23.0,11.0,-9.0,-1.0,3.0,-14.0,-39.0,1651087710955226.0,1
571,6.0,2.0,-21.0,10.0,3.0,-12.0,9.0,88.0,1651087710955226.0,1
572,-11.0,-21.0,-12.0,-17.0,-15.0,-3.0,2.0,-20.0,1651087710977209.0,1
573,2.0,24.0,7.0,1.0,-3.0,-2.0,-13.0,-15.0,1651087710977209.0,1
574,0.0,9.0,1.0,-6.0,-5.0,-1.0,-4.0,-1.0,1651087710978165.0,1
575,-3.0,-8.0,-7.0,-6.0,-4.0,-2.0,-8.0,-3.0,1651087710978165.0,1
576,-7.0,4.0,13.0,19.0,9.0,4.0,35.0,24.0,1651087710992428.0,1
577,1.0,-1.0,-19.0,-18.0,-3.0,-2.0,-25.0,-11.0,1651087710992428.0,1
578,2.0,22.0,-1.0,-6.0,-8.0,-6.0,21.0,30.0,1651087710992428.0,1
579,-1.0,-2.0,4.0,-13.0,-14.0,0.0,-24.0,-54.0,1651087710992428.0,1
580,-3.0,0.0,-7.0,21.0,17.0,5.0,2.0,7.0,1651087711015361.0,1
581,0.0,6.0,11.0,11.0,3.0,2.0,-2.0,-6.0,1651087711015361.0,1
582,-2.0,-4.0,1.0,-11.0,-11.0,-4.0,-2.0,9.0,1651087711015361.0,1
583,4.0,4.0,-6.0,3.0,0.0,-2.0,-2.0,-15.0,1651087711015361.0,1
584,-4.0,-13.0,-15.0,-17.0,-5.0,-4.0,1.0,10.0,1651087711037406.0,1
585,-1.0,11.0,6.0,1.0,-2.0,1.0,-1.0,-8.0,1651087711037406.0,1
586,-3.0,0.0,5.0,5.0,0.0,-4.0,-5.0,7.0,1651087711038439.0,1
587,-5.0,8.0,5.0,7.0,3.0,6.0,-12.0,-71.0,1651087711038439.0,1
588,-5.0,-7.0,-2.0,-9.0,-8.0,-14.0,3.0,92.0,1651087711052349.0,1
589,-6.0,-22.0,0.0,4.0,0.0,-3.0,-6.0,-20.0,1651087711052349.0,1
590,1.0,-5.0,-16.0,-3.0,-8.0,-1.0,4.0,11.0,1651087711052349.0,1
591,3.0,5.0,7.0,-4.0,4.0,-5.0,-4.0,-2.0,1651087711052349.0,1
592,-10.0,-1.0,-3.0,2.0,5.0,6.0,-11.0,-46.0,1651087711076334.0,1
593,3.0,13.0,8.0,4.0,-2.0,-1.0,-9.0,-8.0,1651087711076334.0,1
594,0.0,-3.0,0.0,1.0,-2.0,-1.0,4.0,26.0,1651087711076334.0,1
595,-5.0,1.0,3.0,-5.0,-5.0,2.0,-6.0,-32.0,1651087711076334.0,1
596,2.0,-9.0,2.0,16.0,19.0,3.0,13.0,19.0,1651087711098301.0,1
597,2.0,3.0,0.0,-2.0,-2.0,-2.0,-4.0,10.0,1651087711098301.0,1
598,1.0,5.0,11.0,-1.0,-1.0,-2.0,5.0,1.0,1651087711098301.0,1
599,1.0,-3.0,-15.0,-2.0,-2.0,-2.0,-5.0,-5.0,1651087711098301.0,1
600,-1.0,-12.0,8.0,-6.0,-6.0,-3.0,-2.0,-16.0,1651087711112405.0,1
601,-3.0,5.0,-30.0,-16.0,-4.0,2.0,2.0,-1.0,1651087711112405.0,1
602,-2.0,8.0,15.0,12.0,8.0,2.0,-3.0,-7.0,1651087711112405.0,1
603,3.0,2.0,4.0,4.0,0.0,-1.0,7.0,18.0,1651087711112405.0,1
604,1.0,-9.0,-4.0,1.0,-5.0,-1.0,1.0,-2.0,1651087711135334.0,1
605,-1.0,4.0,9.0,0.0,4.0,5.0,-1.0,-6.0,1651087711135334.0,1
606,-1.0,0.0,-4.0,-1.0,-8.0,-14.0,-11.0,-4.0,1651087711135334.0,1
607,1.0,0.0,1.0,5.0,6.0,-1.0,0.0,22.0,1651087711135334.0,1
608,-19.0,1.0,1.0,-5.0,-6.0,-23.0,-9.0,-10.0,1651087711158384.0,1
609,18.0,3.0,-11.0,-6.0,-5.0,16.0,2.0,-32.0,1651087711158384.0,1
610,2.0,0.0,-12.0,-3.0,2.0,5.0,-2.0,-3.0,1651087711158384.0,1
611,2.0,-2.0,17.0,4.0,4.0,-8.0,3.0,9.0,1651087711158384.0,1
612,-2.0,-2.0,-13.0,-9.0,-1.0,11.0,2.0,-6.0,1651087711171985.0,1
613,-5.0,3.0,2.0,-2.0,-6.0,-15.0,-9.0,6.0,1651087711171985.0,1
614,-3.0,-3.0,2.0,4.0,3.0,7.0,5.0,10.0,1651087711171985.0,1
615,3.0,1.0,-3.0,3.0,-7.0,-10.0,-2.0,-2.0,1651087711171985.0,1
616,3.0,1.0,4.0,7.0,17.0,1.0,-3.0,-10.0,1651087711195627.0,1
617,-2.0,-2.0,-3.0,3.0,-1.0,-4.0,-2.0,5.0,1651087711195627.0,1
618,1.0,3.0,4.0,0.0,-1.0,-3.0,0.0,2.0,1651087711195627.0,1
619,-3.0,-2.0,-2.0,-4.0,-2.0,0.0,1.0,4.0,1651087711195627.0,1
620,2.0,0.0,-1.0,-2.0,-3.0,8.0,3.0,-6.0,1651087711218173.0,1
621,0.0,1.0,4.0,0.0,-1.0,2.0,-1.0,3.0,1651087711218173.0,1
622,-3.0,-3.0,-4.0,-9.0,3.0,-2.0,-4.0,-3.0,1651087711218173.0,1
623,-1.0,3.0,5.0,11.0,6.0,7.0,3.0,3.0,1651087711218173.0,1
624,3.0,5.0,16.0,7.0,-7.0,0.0,2.0,-2.0,1651087711232111.0,1
625,-2.0,4.0,6.0,-3.0,-3.0,-4.0,-1.0,-3.0,1651087711232111.0,1
626,-4.0,-5.0,-35.0,-18.0,-7.0,-2.0,-3.0,0.0,1651087711240190.0,1
627,3.0,-1.0,2.0,1.0,5.0,6.0,6.0,6.0,1651087711240190.0,1
628,1.0,0.0,20.0,22.0,1.0,1.0,-1.0,-11.0,1651087711255360.0,1
629,-4.0,2.0,2.0,-17.0,-5.0,-6.0,-5.0,4.0,1651087711255360.0,1
630,5.0,1.0,6.0,9.0,2.0,10.0,8.0,20.0,1651087711255360.0,1
631,-4.0,-3.0,-3.0,-4.0,3.0,2.0,-4.0,-9.0,1651087711255360.0,1
632,-2.0,-2.0,-21.0,-9.0,-6.0,-2.0,0.0,-2.0,1651087711278164.0,1
633,0.0,1.0,6.0,10.0,6.0,7.0,5.0,4.0,1651087711278164.0,1
634,-11.0,-3.0,-2.0,-1.0,-1.0,-7.0,-3.0,0.0,1651087711278279.0,1
635,1.0,-3.0,4.0,-3.0,0.0,-6.0,-4.0,4.0,1651087711278279.0,1
636,2.0,-3.0,17.0,-2.0,-4.0,10.0,3.0,-2.0,1651087711291389.0,1
637,-2.0,-4.0,-37.0,-15.0,-9.0,-12.0,-6.0,1.0,1651087711291389.0,1
638,1.0,3.0,20.0,9.0,5.0,5.0,7.0,-2.0,1651087711299225.0,1
639,2.0,-5.0,-28.0,-10.0,-7.0,11.0,3.0,2.0,1651087711299225.0,1
640,-8.0,-5.0,-22.0,-17.0,-5.0,-11.0,-7.0,-11.0,1651087711314380.0,1
641,11.0,2.0,29.0,37.0,6.0,4.0,-16.0,9.0,1651087711314380.0,1
642,0.0,4.0,16.0,-8.0,-1.0,1.0,8.0,-2.0,1651087711314380.0,1
643,-1.0,-2.0,6.0,-28.0,-6.0,1.0,1.0,-2.0,1651087711314380.0,1
644,1.0,-3.0,-10.0,3.0,-3.0,1.0,5.0,-1.0,1651087711337367.0,1
645,-8.0,-9.0,-41.0,-12.0,-3.0,-7.0,-3.0,-6.0,1651087711337367.0,1
646,-1.0,-2.0,-6.0,6.0,-3.0,-12.0,-11.0,-8.0,1651087711338209.0,1
647,2.0,3.0,7.0,2.0,1.0,4.0,4.0,2.0,1651087711338209.0,1
648,1.0,1.0,4.0,1.0,4.0,0.0,0.0,7.0,1651087711351488.0,1
649,-3.0,-1.0,13.0,-3.0,1.0,0.0,4.0,-3.0,1651087711351488.0,1
650,3.0,2.0,5.0,18.0,0.0,2.0,-5.0,-3.0,1651087711359217.0,1
651,-3.0,-2.0,3.0,3.0,-5.0,-1.0,7.0,-3.0,1651087711359217.0,1
652,4.0,0.0,-20.0,-14.0,3.0,5.0,0.0,4.0,1651087711374521.0,1
653,-3.0,5.0,61.0,34.0,-1.0,-4.0,-2.0,-6.0,1651087711374521.0,1
654,-1.0,-1.0,-25.0,-17.0,-4.0,-17.0,-12.0,-2.0,1651087711374521.0,1
655,-2.0,-8.0,-29.0,-13.0,-1.0,5.0,-5.0,-4.0,1651087711374521.0,1
656,-2.0,-3.0,14.0,-3.0,-6.0,5.0,3.0,-3.0,1651087711397367.0,1
657,-2.0,2.0,2.0,-11.0,5.0,10.0,11.0,4.0,1651087711397367.0,1
658,1.0,-1.0,30.0,5.0,2.0,1.0,-2.0,1.0,1651087711398209.0,1
659,2.0,4.0,-6.0,5.0,-1.0,-11.0,-6.0,1.0,1651087711398209.0,1
660,-2.0,-4.0,-21.0,-5.0,-5.0,-3.0,-3.0,-1.0,1651087711411287.0,1
661,-1.0,0.0,-13.0,-2.0,1.0,0.0,-2.0,-3.0,1651087711411287.0,1
662,0.0,-1.0,-13.0,5.0,-4.0,1.0,3.0,-1.0,1651087711419238.0,1
663,-1.0,0.0,14.0,-14.0,-1.0,-5.0,-1.0,1.0,1651087711419238.0,1
664,3.0,-2.0,-12.0,-1.0,1.0,0.0,-2.0,2.0,1651087711434371.0,1
665,-2.0,-1.0,11.0,6.0,-1.0,-2.0,1.0,-5.0,1651087711434371.0,1
666,-1.0,1.0,3.0,1.0,1.0,3.0,5.0,2.0,1651087711435255.0,1
667,-1.0,2.0,11.0,14.0,4.0,1.0,-1.0,-4.0,1651087711435255.0,1
668,3.0,2.0,19.0,5.0,-2.0,-9.0,-1.0,19.0,1651087711457775.0,1
669,-4.0,-1.0,-16.0,-3.0,1.0,5.0,0.0,-12.0,1651087711457775.0,1
670,-4.0,-8.0,-56.0,-32.0,-8.0,3.0,2.0,-4.0,1651087711457775.0,1
671,0.0,3.0,25.0,16.0,3.0,2.0,5.0,1.0,1651087711457775.0,1
672,-2.0,1.0,15.0,17.0,4.0,2.0,2.0,2.0,1651087711471155.0,1
673,1.0,-2.0,-23.0,-12.0,-6.0,-5.0,-2.0,1.0,1651087711471155.0,1
674,2.0,0.0,18.0,6.0,3.0,3.0,3.0,6.0,1651087711479505.0,1
675,1.0,1.0,-7.0,10.0,0.0,-3.0,-1.0,2.0,1651087711479505.0,1
676,-2.0,-4.0,-22.0,-21.0,-2.0,-1.0,0.0,-6.0,1651087711494854.0,1
677,0.0,3.0,14.0,2.0,0.0,0.0,1.0,4.0,1651087711494854.0,1
678,2.0,-1.0,-25.0,-17.0,0.0,2.0,0.0,-3.0,1651087711495729.0,1
679,0.0,2.0,17.0,22.0,-1.0,1.0,2.0,1.0,1651087711495729.0,1
680,2.0,0.0,-5.0,0.0,2.0,1.0,1.0,1.0,1651087711518386.0,1
681,-1.0,-3.0,3.0,-4.0,-4.0,-1.0,1.0,0.0,1651087711518386.0,1
682,-1.0,2.0,14.0,7.0,2.0,0.0,-1.0,2.0,1651087711518386.0,1
683,-2.0,-4.0,-24.0,-4.0,-1.0,0.0,-2.0,-2.0,1651087711518386.0,1
684,0.0,2.0,5.0,-4.0,2.0,3.0,2.0,-3.0,1651087711531292.0,1
685,-2.0,0.0,-10.0,-2.0,-1.0,-1.0,-2.0,0.0,1651087711531292.0,1
686,0.0,0.0,13.0,-1.0,-1.0,0.0,0.0,-2.0,1651087711539508.0,1
687,1.0,4.0,16.0,11.0,4.0,1.0,1.0,1.0,1651087711539508.0,1
688,-2.0,-3.0,-5.0,-8.0,-5.0,-4.0,-5.0,-6.0,1651087711554216.0,1
689,0.0,-1.0,-5.0,-8.0,-3.0,-2.0,-2.0,0.0,1651087711554216.0,1
690,-2.0,-2.0,-9.0,-9.0,-6.0,-3.0,-1.0,-2.0,1651087711555213.0,1
691,0.0,0.0,2.0,-4.0,2.0,0.0,1.0,-1.0,1651087711555213.0,1
692,-1.0,-2.0,9.0,9.0,4.0,1.0,0.0,0.0,1651087711578205.0,1
693,0.0,1.0,7.0,1.0,-3.0,-1.0,0.0,0.0,1651087711578205.0,1
694,-2.0,-4.0,-2.0,4.0,-2.0,1.0,0.0,-1.0,1651087711578205.0,1
695,-2.0,-2.0,17.0,-1.0,-1.0,-1.0,-1.0,0.0,1651087711578205.0,1
696,0.0,2.0,4.0,9.0,1.0,-1.0,-4.0,-4.0,1651087711591255.0,1
697,2.0,3.0,-4.0,-5.0,2.0,4.0,3.0,2.0,1651087711591255.0,1
698,0.0,1.0,-4.0,3.0,0.0,-2.0,-3.0,0.0,1651087711599420.0,1
699,1.0,-1.0,-6.0,-9.0,-3.0,-3.0,-2.0,0.0,1651087711599420.0,1
700,-2.0,-5.0,-5.0,2.0,-1.0,1.0,0.0,-3.0,1651087711614399.0,1
701,1.0,3.0,10.0,4.0,4.0,3.0,2.0,0.0,1651087711614399.0,1
702,0.0,2.0,12.0,4.0,1.0,-2.0,-1.0,-2.0,1651087711615236.0,1
703,-1.0,-1.0,-7.0,-3.0,0.0,-2.0,0.0,0.0,1651087711615236.0,1
704,1.0,2.0,-3.0,-13.0,-4.0,0.0,0.0,0.0,1651087711638267.0,1
705,-1.0,-7.0,4.0,2.0,-5.0,-4.0,-4.0,-1.0,1651087711638267.0,1
706,1.0,-8.0,-7.0,-11.0,-6.0,-1.0,0.0,-1.0,1651087711638267.0,1
707,-2.0,-1.0,-34.0,-4.0,1.0,1.0,-1.0,-1.0,1651087711638267.0,1
708,-1.0,3.0,5.0,8.0,0.0,0.0,-3.0,-2.0,1651087711660337.0,1
709,0.0,-6.0,-5.0,-7.0,-4.0,-4.0,-1.0,0.0,1651087711660337.0,1
710,-2.0,4.0,21.0,8.0,2.0,2.0,1.0,-1.0,1651087711660337.0,1
711,1.0,-4.0,-13.0,-10.0,1.0,1.0,0.0,2.0,1651087711660337.0,1
712,0.0,-4.0,-2.0,-7.0,-4.0,-3.0,0.0,-3.0,1651087711674537.0,1
713,-2.0,4.0,12.0,5.0,-3.0,-1.0,-1.0,-2.0,1651087711674537.0,1
714,-1.0,-9.0,-1.0,1.0,-4.0,-3.0,0.0,-2.0,1651087711674537.0,1
715,1.0,6.0,6.0,3.0,2.0,2.0,2.0,0.0,1651087711674537.0,1
716,1.0,9.0,-21.0,1.0,-1.0,-3.0,1.0,-1.0,1651087711697402.0,1
717,-2.0,-10.0,4.0,3.0,-3.0,-3.0,-2.0,-2.0,1651087711697402.0,1
718,0.0,2.0,0.0,-6.0,1.0,0.0,-2.0,-1.0,1651087711698392.0,1
719,-3.0,-2.0,0.0,-4.0,2.0,1.0,-1.0,-1.0,1651087711698392.0,1
720,0.0,1.0,23.0,19.0,4.0,4.0,-2.0,0.0,1651087711720353.0,1
721,-1.0,1.0,-17.0,-5.0,-1.0,-4.0,1.0,1.0,1651087711720353.0,1
722,0.0,-1.0,7.0,6.0,3.0,4.0,-1.0,2.0,1651087711720353.0,1
723,-2.0,-2.0,-8.0,0.0,-2.0,-3.0,0.0,-1.0,1651087711720353.0,1
724,-1.0,-1.0,13.0,-10.0,-5.0,-5.0,-2.0,-1.0,1651087711734525.0,1
725,-2.0,-3.0,-20.0,0.0,2.0,4.0,2.0,-1.0,1651087711734525.0,1
726,-1.0,-1.0,-8.0,7.0,-1.0,-2.0,-1.0,0.0,1651087711734525.0,1
727,1.0,1.0,16.0,1.0,0.0,-1.0,-2.0,-1.0,1651087711734525.0,1
728,-2.0,-1.0,12.0,3.0,0.0,-2.0,-1.0,-1.0,1651087711758203.0,1
729,-1.0,3.0,2.0,-11.0,-10.0,-3.0,-3.0,0.0,1651087711758203.0,1
730,-3.0,-15.0,-23.0,-3.0,0.0,1.0,-1.0,-2.0,1651087711758203.0,1
731,1.0,21.0,2.0,2.0,-1.0,1.0,0.0,0.0,1651087711758203.0,1
732,-1.0,-1.0,5.0,-5.0,-5.0,0.0,1.0,0.0,1651087711780289.0,1
733,0.0,-5.0,-6.0,1.0,5.0,-1.0,1.0,-1.0,1651087711780289.0,1
734,-1.0,11.0,24.0,-3.0,-4.0,2.0,-2.0,-3.0,1651087711780289.0,1
735,0.0,-10.0,-13.0,-18.0,-7.0,-4.0,0.0,-3.0,1651087711780289.0,1
736,0.0,-2.0,-10.0,1.0,-1.0,0.0,0.0,0.0,1651087711794374.0,1
737,0.0,5.0,-19.0,-12.0,0.0,0.0,0.0,0.0,1651087711794374.0,1
738,-2.0,2.0,37.0,24.0,5.0,0.0,0.0,-1.0,1651087711795217.0,1
739,-2.0,-10.0,-8.0,5.0,2.0,1.0,0.0,0.0,1651087711795217.0,1
740,-1.0,3.0,-11.0,-7.0,-1.0,3.0,1.0,0.0,1651087711818414.0,1
741,-1.0,-6.0,-5.0,8.0,1.0,-2.0,0.0,-2.0,1651087711818414.0,1
742,1.0,6.0,-1.0,-10.0,-4.0,-2.0,-1.0,0.0,1651087711818414.0,1
743,0.0,-8.0,-3.0,-1.0,0.0,-1.0,0.0,-1.0,1651087711818414.0,1
744,0.0,4.0,9.0,3.0,0.0,-1.0,0.0,-1.0,1651087711840733.0,1
745,2.0,3.0,13.0,-1.0,-1.0,2.0,0.0,1.0,1651087711840733.0,1
746,-1.0,0.0,-10.0,-1.0,0.0,-3.0,1.0,0.0,1651087711841612.0,1
747,1.0,2.0,7.0,1.0,-1.0,-2.0,-3.0,1.0,1651087711841612.0,1
748,-1.0,-8.0,-27.0,0.0,4.0,1.0,-1.0,0.0,1651087711854368.0,1
749,-1.0,0.0,10.0,0.0,0.0,1.0,1.0,0.0,1651087711854368.0,1
750,-1.0,2.0,5.0,2.0,-6.0,-4.0,1.0,-1.0,1651087711862469.0,1
751,0.0,-5.0,-5.0,-6.0,-3.0,0.0,-1.0,0.0,1651087711862469.0,1
752,1.0,8.0,12.0,2.0,5.0,-1.0,-1.0,-2.0,1651087711877688.0,1
753,-1.0,1.0,11.0,10.0,3.0,1.0,-2.0,-3.0,1651087711877688.0,1
754,1.0,0.0,-5.0,-5.0,1.0,3.0,1.0,1.0,1651087711878689.0,1
755,0.0,2.0,-4.0,0.0,-8.0,-4.0,0.0,-1.0,1651087711878689.0,1
756,-3.0,-10.0,2.0,1.0,6.0,1.0,1.0,0.0,1651087711899180.0,1
757,1.0,-6.0,3.0,-5.0,-5.0,-2.0,-1.0,0.0,1651087711899180.0,1
758,-1.0,11.0,6.0,4.0,-1.0,-1.0,0.0,-1.0,1651087711906203.0,1
759,1.0,-2.0,3.0,-1.0,1.0,0.0,0.0,0.0,1651087711906203.0,1
760,-1.0,5.0,11.0,8.0,-5.0,0.0,-2.0,-3.0,1651087711913184.0,1
761,0.0,0.0,-8.0,-6.0,5.0,0.0,1.0,0.0,1651087711913184.0,1
762,1.0,-6.0,-4.0,10.0,1.0,-3.0,-1.0,-3.0,1651087711922338.0,1
763,-2.0,4.0,15.0,5.0,-1.0,1.0,-1.0,0.0,1651087711922338.0,1
764,-1.0,-5.0,-5.0,-9.0,-2.0,-2.0,-1.0,0.0,1651087711937704.0,1
765,-1.0,2.0,-11.0,-7.0,-4.0,-2.0,-2.0,0.0,1651087711937704.0,1
766,0.0,0.0,1.0,5.0,1.0,-1.0,-2.0,0.0,1651087711938706.0,1
767,-2.0,-6.0,-24.0,-14.0,-1.0,-1.0,0.0,0.0,1651087711938706.0,1
768,-2.0,-1.0,0.0,5.0,-4.0,-1.0,-1.0,0.0,1651087711959853.0,1
769,-1.0,1.0,8.0,1.0,-6.0,-3.0,-1.0,-1.0,1651087711959853.0,1
770,0.0,0.0,-6.0,-16.0,-4.0,-1.0,-1.0,-1.0,1651087711960854.0,1
771,0.0,0.0,5.0,16.0,12.0,4.0,2.0,1.0,1651087711960854.0,0
772,-2.0,-8.0,-20.0,-13.0,-7.0,-3.0,-1.0,-1.0,1651087711973384.0,0
773,0.0,9.0,7.0,3.0,-2.0,-2.0,-2.0,1.0,1651087711973384.0,0
774,-2.0,-6.0,-24.0,-4.0,1.0,0.0,0.0,0.0,1651087711982208.0,0
775,-3.0,6.0,25.0,-1.0,-3.0,-2.0,-3.0,-2.0,1651087711982208.0,0
776,1.0,-3.0,-3.0,3.0,3.0,0.0,2.0,1.0,1651087711997368.0,0
777,1.0,0.0,2.0,1.0,-1.0,-1.0,0.0,0.0,1651087711997368.0,0
778,0.0,1.0,-3.0,-12.0,-7.0,-2.0,-1.0,-1.0,1651087712003219.0,0
779,-1.0,-1.0,-11.0,8.0,2.0,-1.0,-1.0,1.0,1651087712003219.0,0
780,-1.0,-2.0,7.0,3.0,-3.0,-1.0,-2.0,-2.0,1651087712020263.0,0
781,-2.0,-14.0,-13.0,-17.0,0.0,-1.0,-2.0,-3.0,1651087712020263.0,0
782,0.0,-2.0,4.0,16.0,7.0,2.0,1.0,1.0,1651087712021229.0,0
783,-1.0,20.0,18.0,4.0,1.0,-5.0,0.0,-1.0,1651087712021229.0,0
784,0.0,3.0,9.0,-2.0,0.0,1.0,2.0,-1.0,1651087712033357.0,0
785,-1.0,-2.0,-24.0,-1.0,0.0,1.0,1.0,2.0,1651087712033357.0,0
786,0.0,-2.0,-12.0,-12.0,-3.0,-2.0,0.0,-1.0,1651087712042098.0,0
787,-1.0,-17.0,-25.0,-5.0,-5.0,-1.0,-3.0,-1.0,1651087712042098.0,0
788,-2.0,0.0,15.0,7.0,2.0,0.0,0.0,0.0,1651087712057251.0,0
789,-2.0,0.0,13.0,6.0,4.0,1.0,1.0,-2.0,1651087712057251.0,0
790,0.0,-2.0,-5.0,-3.0,-1.0,2.0,0.0,-1.0,1651087712058251.0,0
791,-1.0,6.0,10.0,0.0,-6.0,-6.0,-1.0,-2.0,1651087712058251.0,0
792,1.0,1.0,1.0,1.0,14.0,5.0,2.0,-1.0,1651087712080329.0,0
793,-1.0,-4.0,-9.0,-1.0,0.0,2.0,-2.0,-1.0,1651087712080329.0,0
794,0.0,0.0,-1.0,3.0,1.0,-4.0,-2.0,0.0,1651087712081259.0,0
795,1.0,-7.0,-5.0,-7.0,-5.0,-2.0,0.0,0.0,1651087712081259.0,0
796,-1.0,-1.0,3.0,3.0,-7.0,-2.0,-1.0,1.0,1651087712094323.0,0
797,0.0,9.0,23.0,11.0,-3.0,-2.0,-1.0,-2.0,1651087712094323.0,0
798,-2.0,-3.0,-7.0,3.0,7.0,0.0,0.0,0.0,1651087712102353.0,0
799,-1.0,-1.0,11.0,-6.0,-2.0,-1.0,0.0,-3.0,1651087712102353.0,0
800,-1.0,7.0,-33.0,-5.0,-2.0,-4.0,-2.0,0.0,1651087712118365.0,0
801,-1.0,-8.0,14.0,7.0,5.0,2.0,-1.0,1.0,1651087712118365.0,0
802,-1.0,-3.0,2.0,-5.0,-5.0,-1.0,0.0,0.0,1651087712119248.0,0
803,-1.0,-6.0,4.0,2.0,0.0,0.0,0.0,-1.0,1651087712119248.0,0
804,1.0,4.0,-5.0,-9.0,-3.0,1.0,1.0,0.0,1651087712140642.0,0
805,-1.0,3.0,0.0,1.0,-2.0,-1.0,-1.0,0.0,1651087712140642.0,0
806,-2.0,0.0,15.0,5.0,2.0,1.0,0.0,-1.0,1651087712141331.0,0
807,-1.0,-3.0,-24.0,-9.0,2.0,0.0,0.0,0.0,1651087712141331.0,0
808,0.0,-2.0,21.0,-1.0,-8.0,-4.0,-1.0,0.0,1651087712163224.0,0
809,-1.0,-3.0,-19.0,5.0,9.0,3.0,0.0,-1.0,1651087712163224.0,0
810,1.0,2.0,-11.0,-3.0,6.0,3.0,-1.0,-1.0,1651087712164224.0,0
811,1.0,-4.0,-4.0,0.0,-3.0,-3.0,-3.0,0.0,1651087712164224.0,0
812,0.0,-3.0,-7.0,-6.0,-5.0,-1.0,-1.0,-1.0,1651087712178227.0,0
813,-1.0,2.0,5.0,0.0,-4.0,1.0,0.0,0.0,1651087712178227.0,0
814,-1.0,1.0,12.0,10.0,3.0,-1.0,0.0,0.0,1651087712179104.0,0
815,-4.0,-7.0,-9.0,-12.0,-6.0,-2.0,-2.0,-1.0,1651087712179104.0,0
816,0.0,-6.0,-15.0,-4.0,-2.0,-5.0,-2.0,-1.0,1651087712200195.0,0
817,0.0,9.0,16.0,5.0,5.0,-1.0,-1.0,-3.0,1651087712200195.0,0
818,1.0,1.0,-13.0,-7.0,-1.0,1.0,0.0,-1.0,1651087712201072.0,0
819,-1.0,3.0,21.0,7.0,1.0,0.0,-1.0,-1.0,1651087712201072.0,0
820,-1.0,-3.0,-6.0,-13.0,-1.0,-1.0,1.0,-1.0,1651087712213203.0,0
821,1.0,3.0,28.0,16.0,-6.0,-5.0,-2.0,0.0,1651087712213203.0,0
822,-1.0,-4.0,-21.0,-3.0,0.0,-2.0,-1.0,-2.0,1651087712222717.0,0
823,-1.0,-5.0,-4.0,-3.0,2.0,1.0,0.0,-2.0,1651087712222717.0,0
824,0.0,2.0,-12.0,-8.0,-2.0,-2.0,-1.0,2.0,1651087712237406.0,0
825,0.0,1.0,4.0,0.0,-1.0,-1.0,-2.0,-1.0,1651087712237406.0,0
826,-1.0,-3.0,10.0,2.0,2.0,-1.0,-3.0,0.0,1651087712238408.0,0
827,1.0,-2.0,0.0,7.0,2.0,3.0,3.0,1.0,1651087712238408.0,0
828,-2.0,0.0,-17.0,-3.0,2.0,-1.0,-2.0,-3.0,1651087712260486.0,0
829,0.0,-3.0,-3.0,-9.0,-6.0,-3.0,-1.0,1.0,1651087712260486.0,0
830,-1.0,1.0,-1.0,-9.0,-10.0,-5.0,-2.0,0.0,1651087712261379.0,0
831,1.0,-5.0,-11.0,4.0,7.0,3.0,2.0,0.0,1651087712261379.0,0
832,0.0,11.0,26.0,16.0,5.0,2.0,0.0,-1.0,1651087712274386.0,0
833,1.0,1.0,-11.0,-8.0,-1.0,1.0,0.0,0.0,1651087712274386.0,0
834,0.0,-5.0,6.0,-2.0,-4.0,1.0,0.0,-1.0,1651087712282228.0,0
835,0.0,5.0,-6.0,1.0,-4.0,-2.0,-2.0,-1.0,1651087712282228.0,0
836,-1.0,-4.0,2.0,-6.0,-3.0,0.0,-1.0,-3.0,1651087712297923.0,0
837,-1.0,-7.0,-20.0,-2.0,-6.0,-3.0,-2.0,-1.0,1651087712297923.0,0
838,1.0,8.0,15.0,9.0,7.0,3.0,3.0,1.0,1651087712298923.0,0
839,-1.0,0.0,2.0,4.0,5.0,0.0,-1.0,0.0,1651087712298923.0,0
840,-3.0,-5.0,5.0,-3.0,-1.0,-3.0,-1.0,-1.0,1651087712320376.0,0
841,1.0,0.0,-6.0,-3.0,0.0,4.0,1.0,0.0,1651087712320376.0,0
842,0.0,-4.0,-3.0,-6.0,-4.0,-3.0,-1.0,-1.0,1651087712321228.0,0
843,0.0,-2.0,5.0,6.0,-2.0,-2.0,-2.0,0.0,1651087712321228.0,0
844,-1.0,1.0,-1.0,6.0,6.0,-1.0,-2.0,0.0,1651087712333287.0,0
845,-1.0,1.0,20.0,7.0,-2.0,-2.0,0.0,-3.0,1651087712333287.0,0
846,-2.0,-2.0,-21.0,-10.0,2.0,3.0,-1.0,-1.0,1651087712342498.0,0
847,-1.0,-3.0,-9.0,-7.0,5.0,1.0,0.0,-1.0,1651087712342498.0,0
848,1.0,-2.0,6.0,5.0,-2.0,1.0,-1.0,-1.0,1651087712358328.0,0
849,-1.0,-1.0,-1.0,-3.0,0.0,-1.0,0.0,-1.0,1651087712358328.0,0
850,-1.0,4.0,16.0,-4.0,-5.0,-3.0,-3.0,-1.0,1651087712359103.0,0
851,0.0,3.0,-9.0,-6.0,-3.0,-1.0,0.0,-1.0,1651087712359103.0,0
852,0.0,-6.0,2.0,3.0,-2.0,0.0,0.0,-1.0,1651087712380710.0,0
853,-1.0,-5.0,-16.0,-2.0,0.0,-1.0,1.0,2.0,1651087712380710.0,0
854,-1.0,9.0,20.0,11.0,-2.0,0.0,1.0,-1.0,1651087712381324.0,0
855,0.0,-1.0,-11.0,4.0,9.0,3.0,0.0,1.0,1651087712381324.0,0
856,0.0,4.0,-3.0,-4.0,1.0,-2.0,-1.0,0.0,1651087712393490.0,0
857,0.0,-7.0,-10.0,9.0,9.0,1.0,-2.0,-2.0,1651087712393490.0,0
858,0.0,-5.0,-1.0,-7.0,-3.0,-1.0,-1.0,-1.0,1651087712402555.0,0
859,0.0,3.0,9.0,-2.0,-2.0,2.0,2.0,6.0,1651087712402555.0,0
860,-2.0,-3.0,10.0,-1.0,-9.0,-2.0,-5.0,-8.0,1651087712417624.0,0
861,-1.0,-1.0,-6.0,-8.0,0.0,-1.0,0.0,4.0,1651087712417624.0,0
862,-2.0,-2.0,-9.0,0.0,0.0,-2.0,0.0,-2.0,1651087712418624.0,0
863,-1.0,3.0,-6.0,0.0,-4.0,-2.0,-2.0,-2.0,1651087712418624.0,0
864,0.0,-6.0,-3.0,-2.0,4.0,1.0,2.0,1.0,1651087712440729.0,0
865,0.0,1.0,-2.0,-16.0,-6.0,-3.0,0.0,-4.0,1651087712440729.0,0
866,-2.0,-5.0,13.0,16.0,-2.0,0.0,-1.0,0.0,1651087712441563.0,0
867,-1.0,1.0,7.0,1.0,-6.0,-5.0,-2.0,-3.0,1651087712441563.0,0
868,-1.0,-2.0,-8.0,-12.0,1.0,0.0,-1.0,1.0,1651087712462746.0,0
869,0.0,1.0,-5.0,0.0,8.0,6.0,2.0,1.0,1651087712462746.0,0
870,1.0,4.0,16.0,9.0,-1.0,3.0,5.0,4.0,1651087712464092.0,0
871,-1.0,0.0,-1.0,9.0,9.0,2.0,-1.0,-1.0,1651087712464092.0,0
872,0.0,1.0,0.0,1.0,0.0,-2.0,0.0,2.0,1651087712478307.0,0
873,-1.0,-2.0,-16.0,-18.0,-18.0,-6.0,-2.0,-1.0,1651087712478307.0,0
874,1.0,-1.0,-9.0,3.0,3.0,0.0,-2.0,-3.0,1651087712479071.0,0
875,-2.0,0.0,-5.0,-4.0,-8.0,-3.0,0.0,-1.0,1651087712479071.0,0
876,-2.0,4.0,14.0,9.0,2.0,2.0,0.0,1.0,1651087712500188.0,0
877,-1.0,0.0,-6.0,-6.0,2.0,5.0,-1.0,1.0,1651087712500188.0,0
878,-1.0,-2.0,1.0,0.0,-4.0,-3.0,-2.0,-1.0,1651087712501102.0,0
879,0.0,2.0,4.0,-9.0,-1.0,-1.0,-1.0,-1.0,1651087712501102.0,0
880,-2.0,-5.0,5.0,16.0,2.0,1.0,-2.0,1.0,1651087712513211.0,0
881,0.0,0.0,-12.0,-1.0,-3.0,-2.0,3.0,5.0,1651087712513211.0,0
882,-3.0,-2.0,-16.0,-7.0,3.0,2.0,-4.0,-6.0,1651087712522223.0,0
883,1.0,1.0,16.0,6.0,-2.0,-2.0,1.0,3.0,1651087712522223.0,0
884,0.0,-5.0,-9.0,-2.0,-1.0,0.0,1.0,-4.0,1651087712537340.0,0
885,-3.0,11.0,15.0,8.0,4.0,1.0,-1.0,3.0,1651087712537340.0,0
886,1.0,-4.0,11.0,-5.0,-4.0,-2.0,1.0,0.0,1651087712539230.0,0
887,-2.0,-14.0,-11.0,6.0,5.0,3.0,-1.0,-3.0,1651087712539230.0,0
888,-1.0,13.0,14.0,-1.0,-6.0,-3.0,0.0,3.0,1651087712560279.0,0
889,0.0,0.0,12.0,8.0,3.0,0.0,-1.0,-5.0,1651087712560279.0,0
890,0.0,1.0,-13.0,-7.0,1.0,1.0,0.0,0.0,1651087712561210.0,0
891,2.0,-1.0,4.0,0.0,-7.0,-4.0,-1.0,0.0,1651087712561210.0,0
892,0.0,-6.0,-7.0,-6.0,-3.0,2.0,-1.0,-2.0,1651087712582211.0,0
893,-2.0,-2.0,-2.0,-6.0,-6.0,-3.0,-1.0,-2.0,1651087712582211.0,0
894,-3.0,0.0,2.0,3.0,7.0,2.0,0.0,1.0,1651087712584240.0,0
895,-2.0,5.0,7.0,4.0,-7.0,-7.0,-6.0,-8.0,1651087712584240.0,0
896,5.0,7.0,-12.0,-18.0,-3.0,1.0,1.0,0.0,1651087712598235.0,0
897,4.0,-18.0,3.0,18.0,17.0,7.0,6.0,14.0,1651087712598235.0,0
898,-2.0,-6.0,-8.0,-8.0,-7.0,-3.0,-1.0,1.0,1651087712599073.0,0
899,-2.0,-1.0,-1.0,-2.0,0.0,0.0,-2.0,0.0,1651087712599073.0,0
900,-3.0,2.0,-7.0,-4.0,-11.0,-9.0,-5.0,-7.0,1651087712620329.0,0
901,-1.0,-2.0,-4.0,-3.0,-6.0,-3.0,-4.0,-6.0,1651087712620329.0,0
902,-2.0,8.0,11.0,6.0,2.0,1.0,2.0,2.0,1651087712621219.0,0
903,0.0,3.0,-5.0,-11.0,-7.0,1.0,0.0,-1.0,1651087712621219.0,0
904,-1.0,-1.0,-2.0,14.0,14.0,3.0,-1.0,1.0,1651087712643133.0,0
905,2.0,1.0,7.0,-11.0,-4.0,-3.0,-2.0,-2.0,1651087712643133.0,0
906,-1.0,-8.0,-4.0,17.0,9.0,3.0,-1.0,1.0,1651087712644133.0,0
907,-1.0,5.0,-9.0,-24.0,-5.0,1.0,-1.0,-3.0,1651087712644133.0,0
908,-2.0,-8.0,-7.0,-1.0,-9.0,0.0,3.0,2.0,1651087712658815.0,0
909,-1.0,2.0,4.0,7.0,8.0,0.0,1.0,-3.0,1651087712658815.0,0
910,2.0,3.0,-2.0,-7.0,-5.0,-4.0,-1.0,0.0,1651087712659070.0,0
911,-1.0,-1.0,3.0,2.0,3.0,3.0,1.0,1.0,1651087712659070.0,0
912,-2.0,-4.0,3.0,18.0,16.0,2.0,-1.0,1.0,1651087712680408.0,0
913,-1.0,0.0,9.0,-3.0,-8.0,-2.0,-2.0,-4.0,1651087712680408.0,0
914,-1.0,5.0,-4.0,4.0,-1.0,-4.0,-3.0,-2.0,1651087712681251.0,0
915,-1.0,-5.0,-6.0,-8.0,16.0,7.0,2.0,3.0,1651087712681251.0,0
916,-2.0,-5.0,-9.0,-12.0,-13.0,-4.0,-2.0,0.0,1651087712702726.0,0
917,-2.0,-4.0,5.0,12.0,7.0,0.0,-1.0,-4.0,1651087712702726.0,0
918,0.0,19.0,-5.0,-4.0,-4.0,0.0,-2.0,0.0,1651087712704096.0,0
919,5.0,6.0,30.0,6.0,-14.0,-8.0,-3.0,0.0,1651087712704096.0,0
920,-3.0,-8.0,-26.0,-5.0,6.0,-2.0,-2.0,-3.0,1651087712717976.0,0
921,-3.0,3.0,-1.0,-13.0,-29.0,-8.0,0.0,-1.0,1651087712717976.0,0
922,3.0,-7.0,13.0,18.0,42.0,17.0,4.0,2.0,1651087712719009.0,0
923,0.0,2.0,-4.0,12.0,4.0,0.0,-1.0,0.0,1651087712719009.0,0
924,2.0,2.0,7.0,-1.0,-7.0,-2.0,1.0,1.0,1651087712740647.0,0
925,0.0,-2.0,-9.0,-16.0,-16.0,-5.0,-1.0,-2.0,1651087712740647.0,0
926,-2.0,-6.0,-3.0,-2.0,-15.0,-9.0,-3.0,0.0,1651087712741540.0,0
927,-3.0,1.0,-4.0,1.0,-8.0,-4.0,-3.0,-2.0,1651087712741540.0,0
928,1.0,-6.0,3.0,1.0,13.0,4.0,1.0,1.0,1651087712763196.0,0
929,0.0,4.0,-6.0,-19.0,3.0,3.0,2.0,1.0,1651087712763196.0,0
930,2.0,-7.0,-5.0,8.0,-9.0,-3.0,0.0,-2.0,1651087712764228.0,0
931,-7.0,3.0,15.0,6.0,4.0,-1.0,2.0,0.0,1651087712764228.0,0
932,7.0,9.0,-1.0,3.0,3.0,2.0,3.0,3.0,1651087712777468.0,0
933,-2.0,4.0,7.0,13.0,-5.0,0.0,1.0,-10.0,1651087712777468.0,0
934,-4.0,-17.0,-7.0,-20.0,18.0,10.0,7.0,4.0,1651087712783586.0,0
935,-4.0,-24.0,-10.0,21.0,4.0,-18.0,-29.0,7.0,1651087712783586.0,0
936,-1.0,0.0,4.0,-20.0,-13.0,-5.0,-4.0,-2.0,1651087712799742.0,0
937,2.0,12.0,-2.0,2.0,-6.0,-6.0,11.0,-8.0,1651087712799742.0,0
938,-3.0,-1.0,-7.0,-27.0,-12.0,11.0,10.0,0.0,1651087712801756.0,0
939,1.0,-2.0,-15.0,12.0,9.0,4.0,-9.0,5.0,1651087712801756.0,0
940,0.0,-1.0,16.0,10.0,4.0,-9.0,-21.0,5.0,1651087712823000.0,0
941,0.0,-3.0,-3.0,7.0,6.0,-4.0,-12.0,-4.0,1651087712823000.0,0
942,-2.0,-2.0,-15.0,-32.0,-41.0,-18.0,-3.0,-12.0,1651087712824098.0,0
943,-1.0,-4.0,7.0,-13.0,-6.0,9.0,21.0,-2.0,1651087712824098.0,0
944,-3.0,4.0,1.0,6.0,6.0,5.0,-1.0,-4.0,1651087712836615.0,0
945,-1.0,-3.0,3.0,4.0,6.0,1.0,-1.0,3.0,1651087712836615.0,0
946,-1.0,1.0,-16.0,-3.0,-2.0,-1.0,11.0,4.0,1651087712845051.0,0
947,0.0,2.0,3.0,-7.0,-5.0,-3.0,-5.0,-2.0,1651087712845051.0,0
948,0.0,4.0,13.0,15.0,6.0,1.0,2.0,-1.0,1651087712860386.0,0
949,-2.0,-1.0,-25.0,-15.0,-1.0,0.0,-6.0,0.0,1651087712860386.0,0
950,2.0,9.0,51.0,43.0,12.0,1.0,-4.0,1.0,1651087712861263.0,0
951,0.0,-3.0,-30.0,-26.0,-2.0,2.0,9.0,6.0,1651087712861263.0,0
952,3.0,3.0,9.0,1.0,-13.0,-4.0,-4.0,-56.0,1651087712882243.0,0
953,-12.0,-13.0,-17.0,-6.0,7.0,9.0,1.0,28.0,1651087712882243.0,2
954,2.0,5.0,-1.0,9.0,0.0,-4.0,-9.0,-1.0,1651087712884278.0,2
955,8.0,5.0,8.0,-8.0,-9.0,1.0,-6.0,18.0,1651087712884278.0,2
956,0.0,9.0,8.0,2.0,5.0,5.0,3.0,-66.0,1651087712896388.0,2
957,-5.0,-5.0,-39.0,-16.0,-8.0,-6.0,2.0,80.0,1651087712896388.0,2
958,11.0,-31.0,-3.0,4.0,18.0,4.0,13.0,58.0,1651087712905220.0,2
959,-5.0,6.0,3.0,10.0,0.0,0.0,2.0,-15.0,1651087712905220.0,2
960,-3.0,-8.0,-10.0,-9.0,-5.0,-3.0,0.0,-1.0,1651087712920380.0,2
961,4.0,8.0,10.0,9.0,10.0,11.0,0.0,-64.0,1651087712920380.0,2
962,-6.0,13.0,25.0,26.0,-12.0,-6.0,-3.0,-20.0,1651087712921241.0,2
963,-5.0,-10.0,-17.0,-22.0,-7.0,-4.0,-1.0,3.0,1651087712921241.0,2
964,-4.0,5.0,-5.0,-4.0,1.0,7.0,2.0,11.0,1651087712942759.0,2
965,-1.0,-14.0,17.0,4.0,7.0,0.0,1.0,-13.0,1651087712942759.0,2
966,-14.0,-4.0,-14.0,-6.0,-9.0,-8.0,-12.0,0.0,1651087712943759.0,2
967,12.0,6.0,15.0,5.0,1.0,0.0,8.0,6.0,1651087712943759.0,2
968,-5.0,2.0,-4.0,-2.0,1.0,-1.0,-1.0,8.0,1651087712958370.0,2
969,-2.0,0.0,1.0,-1.0,4.0,6.0,6.0,4.0,1651087712958370.0,2
970,0.0,1.0,-3.0,-5.0,-2.0,0.0,3.0,-22.0,1651087712965337.0,2
971,4.0,10.0,19.0,14.0,4.0,-6.0,-10.0,12.0,1651087712965337.0,2
972,-13.0,-2.0,-30.0,-8.0,-6.0,-6.0,-7.0,31.0,1651087712980361.0,2
973,4.0,-12.0,-9.0,-23.0,-4.0,-6.0,1.0,-8.0,1651087712980361.0,2
974,9.0,9.0,7.0,4.0,4.0,11.0,13.0,-3.0,1651087712981237.0,2
975,-12.0,11.0,-2.0,10.0,7.0,2.0,0.0,-41.0,1651087712981237.0,2
976,-8.0,-19.0,-1.0,5.0,-1.0,4.0,25.0,71.0,1651087713003050.0,2
977,-14.0,-6.0,6.0,-5.0,-3.0,-7.0,-35.0,-54.0,1651087713003050.0,2
978,9.0,16.0,-13.0,-15.0,-3.0,-6.0,-1.0,16.0,1651087713004105.0,2
979,-4.0,1.0,-2.0,-6.0,-4.0,5.0,9.0,7.0,1651087713004105.0,2
980,10.0,-6.0,-1.0,-7.0,0.0,-2.0,-1.0,-2.0,1651087713016073.0,2
981,1.0,24.0,28.0,25.0,4.0,3.0,4.0,-1.0,1651087713016073.0,2
982,-26.0,-47.0,-40.0,-8.0,-9.0,-9.0,-12.0,-20.0,1651087713025049.0,2
983,2.0,-9.0,-10.0,-23.0,-6.0,-1.0,-12.0,-26.0,1651087713025049.0,2
984,4.0,-1.0,-2.0,0.0,3.0,4.0,3.0,20.0,1651087713040398.0,2
985,8.0,12.0,23.0,26.0,3.0,-2.0,9.0,18.0,1651087713040398.0,2
986,0.0,18.0,3.0,-19.0,-4.0,0.0,-7.0,-7.0,1651087713041241.0,2
987,6.0,0.0,-19.0,7.0,8.0,4.0,15.0,-5.0,1651087713041241.0,2
988,-8.0,-4.0,6.0,5.0,-3.0,0.0,-5.0,5.0,1651087713063218.0,2
989,6.0,-6.0,-5.0,-5.0,-13.0,-9.0,-3.0,-1.0,1651087713063218.0,2
990,17.0,28.0,25.0,9.0,8.0,-1.0,-6.0,7.0,1651087713064218.0,2
991,-13.0,-26.0,7.0,2.0,-1.0,-1.0,1.0,-12.0,1651087713064218.0,2
992,1.0,-4.0,-9.0,-3.0,1.0,4.0,2.0,-9.0,1651087713076372.0,2
993,3.0,22.0,7.0,24.0,11.0,9.0,-8.0,6.0,1651087713076372.0,2
994,-1.0,-29.0,6.0,-12.0,-17.0,-7.0,11.0,8.0,1651087713085193.0,2
995,6.0,-5.0,-51.0,-38.0,-9.0,-9.0,-24.0,-4.0,1651087713085193.0,2
996,7.0,6.0,10.0,17.0,2.0,-4.0,6.0,22.0,1651087713100235.0,2
997,-2.0,5.0,9.0,-7.0,-4.0,5.0,20.0,14.0,1651087713100235.0,2
998,-3.0,10.0,-13.0,1.0,2.0,0.0,-52.0,-92.0,1651087713101150.0,2
999,-1.0,2.0,14.0,18.0,-5.0,-5.0,42.0,88.0,1651087713101150.0,2
1000,0.0,3.0,-15.0,-16.0,9.0,-3.0,-6.0,-26.0,1651087713122427.0,2
1001,2.0,-15.0,10.0,19.0,3.0,-2.0,-3.0,-7.0,1651087713122427.0,2
1002,1.0,2.0,2.0,-8.0,-1.0,5.0,15.0,-14.0,1651087713124092.0,2
1003,-7.0,1.0,26.0,24.0,8.0,1.0,-16.0,-22.0,1651087713124092.0,2
1004,11.0,17.0,1.0,-10.0,-11.0,-3.0,-6.0,-4.0,1651087713136689.0,2
1005,-19.0,-17.0,0.0,-4.0,11.0,1.0,0.0,3.0,1651087713136689.0,2
1006,-4.0,-13.0,-15.0,3.0,6.0,2.0,0.0,-4.0,1651087713144866.0,2
1007,6.0,11.0,11.0,4.0,-3.0,0.0,3.0,3.0,1651087713144866.0,2
1008,8.0,-13.0,-26.0,-13.0,-9.0,-4.0,6.0,13.0,1651087713160402.0,2
1009,-1.0,-1.0,-1.0,-8.0,-4.0,-1.0,-9.0,-35.0,1651087713160402.0,2
1010,0.0,-2.0,-14.0,-14.0,-3.0,-5.0,4.0,20.0,1651087713161243.0,2
1011,-7.0,-2.0,11.0,19.0,8.0,8.0,7.0,-7.0,1651087713161243.0,2
1012,0.0,13.0,34.0,-19.0,-13.0,1.0,0.0,-10.0,1651087713182433.0,2
1013,4.0,3.0,-7.0,4.0,1.0,-13.0,-27.0,-39.0,1651087713182433.0,2
1014,7.0,-8.0,-8.0,1.0,1.0,1.0,18.0,46.0,1651087713183428.0,2
1015,0.0,-8.0,9.0,-2.0,9.0,5.0,15.0,15.0,1651087713183428.0,2
1016,-8.0,-4.0,13.0,29.0,7.0,1.0,4.0,10.0,1651087713196555.0,2
1017,10.0,22.0,-14.0,-8.0,-8.0,-1.0,7.0,3.0,1651087713196555.0,2
1018,-40.0,-42.0,34.0,7.0,-13.0,-12.0,-31.0,-27.0,1651087713212500.0,2
1019,2.0,14.0,-27.0,-10.0,20.0,8.0,-1.0,-24.0,1651087713212500.0,2
1020,-11.0,-30.0,1.0,15.0,2.0,-1.0,7.0,18.0,1651087713220401.0,2
1021,6.0,2.0,15.0,0.0,0.0,3.0,12.0,26.0,1651087713220401.0,2
1022,10.0,10.0,-45.0,-20.0,-5.0,-4.0,-2.0,13.0,1651087713221243.0,2
1023,-12.0,3.0,22.0,7.0,-12.0,-1.0,-10.0,-18.0,1651087713221243.0,2
1024,-10.0,6.0,11.0,5.0,1.0,0.0,-4.0,-7.0,1651087713242525.0,2
1025,10.0,4.0,27.0,13.0,5.0,-4.0,4.0,22.0,1651087713242525.0,2
1026,-1.0,9.0,-12.0,-4.0,1.0,3.0,5.0,1.0,1651087713243553.0,2
1027,3.0,3.0,-15.0,-21.0,-12.0,-6.0,-17.0,-9.0,1651087713243553.0,2
1028,4.0,3.0,-15.0,-14.0,-1.0,0.0,-4.0,-32.0,1651087713256649.0,2
1029,-7.0,-14.0,14.0,23.0,-2.0,-4.0,-5.0,11.0,1651087713256649.0,2
1030,-2.0,8.0,6.0,6.0,8.0,12.0,30.0,20.0,1651087713265313.0,2
1031,24.0,10.0,-46.0,-52.0,-11.0,-4.0,1.0,15.0,1651087713265313.0,2
1032,6.0,-4.0,19.0,30.0,-2.0,-2.0,5.0,7.0,1651087713280369.0,2
1033,-12.0,-15.0,-38.0,-17.0,7.0,6.0,-4.0,-21.0,1651087713280369.0,2
1034,3.0,15.0,7.0,-13.0,-3.0,-2.0,-15.0,6.0,1651087713281240.0,2
1035,4.0,-22.0,45.0,54.0,11.0,2.0,12.0,-15.0,1651087713281240.0,2
1036,-8.0,-6.0,-20.0,-22.0,-4.0,6.0,-7.0,-8.0,1651087713303109.0,2
1037,-8.0,18.0,26.0,-7.0,-9.0,-7.0,-1.0,4.0,1651087713303109.0,2
1038,6.0,2.0,-47.0,14.0,-1.0,-2.0,2.0,3.0,1651087713304109.0,2
1039,0.0,19.0,45.0,2.0,-11.0,-2.0,-18.0,-18.0,1651087713304109.0,2
1040,3.0,0.0,-9.0,10.0,9.0,-4.0,15.0,34.0,1651087713316223.0,2
1041,0.0,-12.0,-38.0,-42.0,-10.0,2.0,1.0,14.0,1651087713316223.0,2
1042,7.0,9.0,8.0,6.0,5.0,0.0,-3.0,-12.0,1651087713325386.0,2
1043,-5.0,-6.0,8.0,-7.0,-4.0,-2.0,-1.0,1.0,1651087713325386.0,2
1044,2.0,-3.0,5.0,9.0,-3.0,-1.0,-7.0,-21.0,1651087713340646.0,2
1045,-2.0,4.0,-1.0,11.0,8.0,7.0,7.0,18.0,1651087713340646.0,2
1046,12.0,7.0,22.0,7.0,-6.0,-4.0,-10.0,-17.0,1651087713341307.0,2
1047,5.0,8.0,-1.0,-20.0,-24.0,-13.0,5.0,21.0,1651087713341307.0,2
1048,-1.0,0.0,16.0,13.0,21.0,10.0,-1.0,-4.0,1651087713362968.0,2
1049,-1.0,-16.0,-20.0,14.0,6.0,7.0,8.0,-18.0,1651087713362968.0,2
1050,-10.0,-3.0,34.0,-20.0,-10.0,-5.0,-3.0,2.0,1651087713364000.0,2
1051,-5.0,-1.0,-53.0,-16.0,2.0,-3.0,-12.0,-5.0,1651087713364000.0,2
1052,-7.0,3.0,12.0,-8.0,-16.0,-3.0,1.0,-7.0,1651087713376342.0,2
1053,8.0,9.0,-2.0,-9.0,-9.0,2.0,5.0,20.0,1651087713376342.0,2
1054,-2.0,2.0,13.0,26.0,7.0,-8.0,-28.0,-16.0,1651087713385423.0,2
1055,-1.0,-17.0,0.0,-2.0,6.0,0.0,6.0,7.0,1651087713385423.0,2
1056,1.0,9.0,16.0,-3.0,-4.0,7.0,27.0,22.0,1651087713400212.0,2
1057,-6.0,-15.0,-31.0,-14.0,-3.0,-14.0,-14.0,-3.0,1651087713400212.0,2
1058,9.0,13.0,25.0,16.0,0.0,1.0,10.0,12.0,1651087713401106.0,2
1059,-13.0,-2.0,-9.0,25.0,10.0,3.0,-10.0,-43.0,1651087713401106.0,2
1060,1.0,-6.0,-29.0,-30.0,-5.0,-2.0,-11.0,-5.0,1651087713421982.0,2
1061,-15.0,5.0,42.0,28.0,3.0,2.0,7.0,2.0,1651087713421982.0,2
1062,15.0,1.0,-31.0,-4.0,4.0,4.0,8.0,2.0,1651087713424014.0,2
1063,4.0,8.0,26.0,-8.0,-4.0,-2.0,-1.0,6.0,1651087713424014.0,2
1064,3.0,-10.0,-25.0,-8.0,-1.0,-3.0,-5.0,-19.0,1651087713435990.0,2
1065,-16.0,0.0,-23.0,-42.0,-30.0,-8.0,12.0,19.0,1651087713435990.0,2
1066,-1.0,-35.0,15.0,33.0,27.0,8.0,6.0,0.0,1651087713445089.0,2
1067,-2.0,3.0,36.0,47.0,25.0,10.0,-8.0,4.0,1651087713445089.0,2
1068,2.0,12.0,-19.0,-28.0,-6.0,2.0,9.0,3.0,1651087713460520.0,2
1069,9.0,-5.0,-22.0,4.0,3.0,-7.0,-23.0,-28.0,1651087713460520.0,2
1070,-8.0,9.0,-4.0,-32.0,-16.0,-3.0,18.0,41.0,1651087713461215.0,2
1071,3.0,-11.0,-11.0,25.0,-4.0,0.0,-8.0,-22.0,1651087713461215.0,2
1072,-4.0,-4.0,20.0,0.0,-3.0,-9.0,-16.0,-13.0,1651087713482229.0,2
1073,9.0,4.0,7.0,4.0,0.0,8.0,-9.0,-28.0,1651087713482229.0,2
1074,2.0,10.0,-11.0,-12.0,4.0,-2.0,11.0,17.0,1651087713484259.0,2
1075,-3.0,-23.0,-9.0,-13.0,1.0,1.0,4.0,6.0,1651087713484259.0,2
1076,-7.0,-6.0,-25.0,-3.0,-6.0,-8.0,-9.0,4.0,1651087713496345.0,2
1077,3.0,-5.0,8.0,21.0,5.0,1.0,-5.0,-11.0,1651087713496345.0,2
1078,-7.0,6.0,17.0,-33.0,-10.0,0.0,-4.0,-9.0,1651087713505228.0,2
1079,-3.0,8.0,-20.0,-23.0,-3.0,1.0,8.0,-24.0,1651087713505228.0,2
1080,-3.0,-17.0,-28.0,24.0,3.0,-2.0,-5.0,1.0,1651087713520372.0,2
1081,-7.0,-2.0,16.0,-27.0,-16.0,-6.0,-3.0,-19.0,1651087713520372.0,2
1082,-2.0,7.0,30.0,46.0,39.0,15.0,7.0,-2.0,1651087713521214.0,2
1083,2.0,7.0,-4.0,3.0,-5.0,-2.0,10.0,19.0,1651087713521214.0,2
1084,-2.0,-1.0,8.0,-9.0,-2.0,-1.0,-18.0,-26.0,1651087713543213.0,2
1085,7.0,-3.0,1.0,13.0,2.0,-1.0,19.0,33.0,1651087713543213.0,2
1086,-8.0,10.0,0.0,1.0,-17.0,-9.0,-25.0,-51.0,1651087713544212.0,2
1087,-1.0,-6.0,3.0,6.0,11.0,10.0,16.0,30.0,1651087713544212.0,2
1088,17.0,18.0,30.0,10.0,10.0,14.0,-8.0,-6.0,1651087713565279.0,2
1089,-9.0,-5.0,-63.0,-44.0,-19.0,-26.0,-7.0,-5.0,1651087713565279.0,2
1090,2.0,-25.0,-5.0,1.0,-17.0,-3.0,10.0,35.0,1651087713571245.0,2
1091,0.0,9.0,-1.0,-1.0,5.0,-1.0,-8.0,-7.0,1651087713571245.0,2
1092,0.0,11.0,47.0,33.0,3.0,0.0,-2.0,-1.0,1651087713580286.0,2
1093,3.0,7.0,4.0,-2.0,11.0,11.0,-6.0,-20.0,1651087713580286.0,2
1094,4.0,-8.0,-20.0,-12.0,6.0,4.0,6.0,19.0,1651087713581232.0,2
1095,-1.0,6.0,6.0,-10.0,-11.0,-5.0,-11.0,-21.0,1651087713581232.0,2
1096,-8.0,-6.0,-6.0,0.0,-13.0,-10.0,3.0,15.0,1651087713603152.0,2
1097,9.0,3.0,-23.0,-2.0,9.0,8.0,23.0,28.0,1651087713603152.0,2
1098,-5.0,-16.0,-10.0,-6.0,0.0,-4.0,-9.0,-33.0,1651087713604152.0,2
1099,-2.0,-1.0,-4.0,9.0,0.0,-2.0,-3.0,23.0,1651087713604152.0,2
1100,0.0,3.0,-4.0,-12.0,6.0,3.0,7.0,-4.0,1651087713625223.0,2
1101,-3.0,-3.0,-30.0,10.0,6.0,0.0,-9.0,4.0,1651087713625223.0,2
1102,2.0,9.0,10.0,-10.0,-8.0,1.0,10.0,-1.0,1651087713626219.0,2
1103,8.0,0.0,-14.0,1.0,-7.0,-7.0,-22.0,-24.0,1651087713626219.0,2
1104,-10.0,-14.0,-16.0,-3.0,-4.0,-5.0,14.0,35.0,1651087713640438.0,2
1105,1.0,9.0,33.0,13.0,2.0,0.0,1.0,6.0,1651087713640438.0,2
1106,2.0,-4.0,-12.0,-23.0,-14.0,-10.0,-28.0,-13.0,1651087713641279.0,2
1107,-3.0,-2.0,1.0,0.0,-1.0,1.0,22.0,10.0,1651087713641279.0,2
1108,-8.0,10.0,-32.0,-22.0,2.0,4.0,-13.0,-8.0,1651087713662754.0,2
1109,-11.0,1.0,24.0,31.0,7.0,4.0,7.0,3.0,1651087713662754.0,2
1110,-4.0,-23.0,12.0,1.0,0.0,0.0,-9.0,-22.0,1651087713663754.0,2
1111,-11.0,4.0,-13.0,-6.0,1.0,-6.0,-10.0,8.0,1651087713663754.0,2
1112,1.0,8.0,-9.0,-6.0,-5.0,-3.0,-16.0,0.0,1651087713685034.0,2
1113,-2.0,-1.0,3.0,-7.0,-13.0,-3.0,21.0,3.0,1651087713685034.0,2
1114,2.0,16.0,-15.0,-9.0,7.0,5.0,-6.0,1.0,1651087713685876.0,2
1115,-8.0,-5.0,46.0,22.0,22.0,9.0,15.0,10.0,1651087713685876.0,2
1116,-1.0,-8.0,-30.0,6.0,2.0,-3.0,-4.0,-15.0,1651087713698869.0,2
1117,5.0,-4.0,-21.0,-25.0,0.0,-1.0,-4.0,3.0,1651087713698869.0,2
1118,1.0,1.0,-16.0,5.0,-2.0,-2.0,10.0,24.0,1651087713705986.0,2
1119,7.0,11.0,-10.0,-15.0,-11.0,-4.0,-16.0,-22.0,1651087713705986.0,2
1120,-4.0,-8.0,-1.0,-5.0,-4.0,-2.0,21.0,12.0,1651087713722586.0,2
1121,14.0,2.0,19.0,17.0,9.0,3.0,-12.0,5.0,1651087713722586.0,2
1122,-6.0,-12.0,-17.0,1.0,-10.0,-5.0,9.0,14.0,1651087713724062.0,2
1123,4.0,9.0,8.0,-10.0,3.0,2.0,-2.0,-18.0,1651087713724062.0,2
1124,-2.0,4.0,-5.0,24.0,-3.0,-3.0,-10.0,-5.0,1651087713745382.0,2
1125,0.0,2.0,24.0,-1.0,3.0,2.0,4.0,9.0,1651087713745382.0,2
1126,-3.0,4.0,20.0,21.0,9.0,6.0,1.0,-7.0,1651087713746223.0,2
1127,1.0,8.0,-36.0,-37.0,-12.0,-2.0,4.0,-6.0,1651087713746223.0,2
1128,7.0,-9.0,2.0,11.0,2.0,0.0,-12.0,-7.0,1651087713759628.0,2
1129,-3.0,-4.0,9.0,-12.0,-8.0,-3.0,8.0,-2.0,1651087713759628.0,2
1130,9.0,0.0,-2.0,9.0,-6.0,-1.0,-5.0,12.0,1651087713765614.0,2
1131,-3.0,-14.0,4.0,22.0,21.0,4.0,22.0,-2.0,1651087713765614.0,2
1132,-1.0,17.0,27.0,-15.0,-15.0,-3.0,4.0,-1.0,1651087713782237.0,2
1133,-6.0,-23.0,-29.0,-1.0,9.0,3.0,-12.0,-9.0,1651087713782237.0,2
1134,6.0,13.0,4.0,12.0,5.0,-5.0,-20.0,-5.0,1651087713784256.0,2
1135,-3.0,-8.0,-6.0,-27.0,-14.0,-1.0,31.0,29.0,1651087713784256.0,2
1136,1.0,3.0,29.0,29.0,14.0,1.0,-3.0,-4.0,1651087713805057.0,2
1137,6.0,1.0,-13.0,-23.0,-5.0,3.0,2.0,-9.0,1651087713805057.0,2
1138,-6.0,11.0,6.0,21.0,3.0,5.0,-1.0,-47.0,1651087713806057.0,2
1139,-3.0,-13.0,15.0,-4.0,-25.0,-17.0,-38.0,19.0,1651087713806057.0,2
1140,-2.0,6.0,-18.0,-3.0,14.0,3.0,15.0,-17.0,1651087713819485.0,2
1141,1.0,5.0,7.0,-6.0,-13.0,-9.0,-15.0,-16.0,1651087713819485.0,2
1142,-4.0,-6.0,18.0,18.0,21.0,11.0,13.0,12.0,1651087713826622.0,2
1143,-6.0,-12.0,-12.0,1.0,-3.0,2.0,-5.0,-12.0,1651087713826622.0,2
1144,4.0,-2.0,20.0,-3.0,-4.0,-2.0,4.0,-3.0,1651087713841427.0,2
1145,-4.0,-8.0,-30.0,-2.0,0.0,-2.0,-6.0,-3.0,1651087713841427.0,2
1146,8.0,3.0,-11.0,-37.0,-16.0,-4.0,9.0,34.0,1651087713848410.0,2
1147,-9.0,8.0,14.0,22.0,3.0,6.0,0.0,-13.0,1651087713848410.0,2
1148,-2.0,-15.0,0.0,1.0,-3.0,-7.0,-12.0,6.0,1651087713864368.0,2
1149,-4.0,13.0,4.0,17.0,4.0,2.0,-5.0,2.0,1651087713864368.0,2
1150,-11.0,-18.0,20.0,-15.0,-8.0,-7.0,14.0,4.0,1651087713866362.0,2
1151,11.0,0.0,-44.0,-3.0,7.0,-2.0,-7.0,6.0,1651087713866362.0,2
1152,0.0,13.0,18.0,-22.0,-16.0,0.0,-4.0,-14.0,1651087713879369.0,2
1153,-5.0,-11.0,-39.0,1.0,16.0,5.0,3.0,18.0,1651087713879369.0,2
1154,-1.0,7.0,14.0,7.0,7.0,-1.0,0.0,-15.0,1651087713885311.0,2
1155,1.0,1.0,-5.0,2.0,-9.0,-1.0,-12.0,13.0,1651087713885311.0,2
1156,5.0,-2.0,-1.0,-22.0,-15.0,-7.0,1.0,5.0,1651087713902266.0,2
1157,-8.0,-8.0,-6.0,13.0,4.0,-2.0,8.0,6.0,1651087713902266.0,2
1158,7.0,11.0,18.0,0.0,1.0,8.0,-5.0,-18.0,1651087713903263.0,2
1159,-3.0,-17.0,24.0,40.0,13.0,-6.0,-17.0,-42.0,1651087713903263.0,2
1160,2.0,6.0,-17.0,-29.0,-7.0,4.0,15.0,39.0,1651087713925152.0,2
1161,7.0,-14.0,25.0,1.0,-10.0,-9.0,5.0,32.0,1651087713925152.0,2
1162,-4.0,6.0,-38.0,-9.0,-8.0,-4.0,-4.0,3.0,1651087713926149.0,2
1163,-1.0,1.0,12.0,-5.0,-5.0,1.0,4.0,-16.0,1651087713926149.0,2
1164,-3.0,3.0,-20.0,-5.0,6.0,-2.0,-13.0,-16.0,1651087713939113.0,2
1165,-1.0,-4.0,30.0,1.0,-1.0,2.0,0.0,-15.0,1651087713939113.0,2
1166,-2.0,4.0,-15.0,11.0,7.0,-1.0,3.0,6.0,1651087713946094.0,2
1167,-1.0,3.0,-12.0,-15.0,-2.0,4.0,7.0,7.0,1651087713946094.0,2
1168,16.0,-5.0,1.0,18.0,9.0,0.0,4.0,23.0,1651087713961835.0,2
1169,-10.0,5.0,20.0,8.0,3.0,2.0,1.0,3.0,1651087713961835.0,2
1170,6.0,12.0,-1.0,5.0,-2.0,-2.0,3.0,3.0,1651087713963832.0,2
1171,-4.0,-6.0,-14.0,-11.0,2.0,7.0,7.0,9.0,1651087713963832.0,2
1172,-9.0,-1.0,1.0,-10.0,-2.0,-5.0,-6.0,-10.0,1651087713984776.0,2
1173,6.0,8.0,11.0,20.0,4.0,2.0,-4.0,-12.0,1651087713984776.0,2
1174,-7.0,-6.0,-29.0,-23.0,-8.0,-2.0,6.0,-1.0,1651087713985774.0,2
1175,6.0,14.0,24.0,-9.0,-4.0,-3.0,-10.0,-2.0,1651087713985774.0,2
1176,-13.0,-14.0,-14.0,0.0,6.0,4.0,7.0,-10.0,1651087713998740.0,2
1177,11.0,13.0,5.0,6.0,5.0,7.0,3.0,-1.0,1651087713998740.0,2
1178,-7.0,-8.0,5.0,-4.0,-2.0,-2.0,5.0,-3.0,1651087714005720.0,2
1179,2.0,0.0,-3.0,5.0,-6.0,-4.0,-5.0,23.0,1651087714005720.0,2
1180,-6.0,0.0,-7.0,0.0,-6.0,-1.0,5.0,2.0,1651087714021710.0,2
1181,4.0,-2.0,1.0,-1.0,-2.0,-4.0,-11.0,-15.0,1651087714021710.0,2
1182,-1.0,0.0,8.0,-2.0,3.0,0.0,6.0,7.0,1651087714023673.0,2
1183,-1.0,1.0,4.0,5.0,0.0,-1.0,6.0,6.0,1651087714023673.0,2
1184,3.0,-5.0,18.0,13.0,3.0,0.0,-6.0,0.0,1651087714045266.0,2
1185,-4.0,1.0,-33.0,-17.0,-5.0,1.0,3.0,-7.0,1651087714045266.0,2
1186,1.0,-4.0,17.0,2.0,-2.0,-3.0,-1.0,-5.0,1651087714046104.0,2
1187,1.0,3.0,-7.0,-2.0,-2.0,2.0,3.0,12.0,1651087714046104.0,2
1188,-3.0,-2.0,0.0,1.0,2.0,-1.0,-3.0,-11.0,1651087714058125.0,2
1189,4.0,2.0,9.0,11.0,6.0,2.0,10.0,13.0,1651087714058125.0,2
1190,2.0,0.0,5.0,-3.0,-6.0,-4.0,-12.0,-14.0,1651087714067059.0,2
1191,-2.0,-5.0,-22.0,-10.0,-6.0,-4.0,0.0,0.0,1651087714067059.0,2
1192,4.0,1.0,-3.0,5.0,11.0,4.0,5.0,-3.0,1651087714082272.0,2
1193,-2.0,2.0,12.0,15.0,-5.0,-1.0,-6.0,0.0,1651087714082272.0,2
1194,-2.0,-2.0,-6.0,-18.0,2.0,2.0,10.0,7.0,1651087714084265.0,2
1195,0.0,0.0,16.0,11.0,3.0,-2.0,2.0,10.0,1651087714084265.0,2
1196,-1.0,-4.0,-20.0,-18.0,-7.0,-1.0,-8.0,-8.0,1651087714105380.0,2
1197,0.0,2.0,-5.0,-7.0,-7.0,-6.0,-4.0,-9.0,1651087714105380.0,2
1198,-1.0,-2.0,-11.0,2.0,-3.0,-1.0,-2.0,-5.0,1651087714106221.0,2
1199,1.0,-8.0,-4.0,-3.0,6.0,4.0,8.0,14.0,1651087714106221.0,2
1200,2.0,7.0,9.0,2.0,-1.0,-1.0,-3.0,-7.0,1651087714118861.0,2
1201,-4.0,-5.0,6.0,-6.0,-3.0,-3.0,-6.0,-4.0,1651087714118861.0,2
1202,0.0,1.0,-11.0,2.0,-2.0,-2.0,-5.0,3.0,1651087714127110.0,2
1203,-1.0,-2.0,6.0,-12.0,0.0,2.0,0.0,-9.0,1651087714127110.0,2
1204,1.0,1.0,7.0,17.0,4.0,1.0,1.0,3.0,1651087714142697.0,2
1205,1.0,0.0,-2.0,-5.0,7.0,1.0,-1.0,0.0,1651087714142697.0,2
1206,-1.0,-3.0,-1.0,2.0,-6.0,-1.0,-6.0,1.0,1651087714144083.0,2
1207,0.0,2.0,0.0,1.0,0.0,0.0,0.0,-5.0,1651087714144083.0,2
1208,0.0,-4.0,-2.0,-1.0,-3.0,-3.0,-2.0,3.0,1651087714165245.0,2
1209,0.0,1.0,0.0,-8.0,-4.0,2.0,3.0,0.0,1651087714165245.0,2
1210,0.0,-4.0,0.0,-1.0,-1.0,-2.0,-2.0,-1.0,1651087714167207.0,2
1211,-2.0,-1.0,-2.0,1.0,-4.0,-1.0,1.0,-4.0,1651087714167207.0,2
1212,-2.0,-2.0,1.0,1.0,3.0,1.0,2.0,7.0,1651087714178848.0,2
1213,0.0,-3.0,3.0,-7.0,-2.0,-3.0,-2.0,-5.0,1651087714178848.0,2
1214,-1.0,-3.0,-2.0,6.0,3.0,2.0,-4.0,3.0,1651087714187112.0,2
1215,1.0,1.0,-3.0,-3.0,-6.0,-4.0,2.0,-2.0,1651087714187112.0,2
1216,-2.0,-2.0,1.0,-1.0,0.0,-1.0,1.0,-2.0,1651087714202698.0,2
1217,-2.0,0.0,1.0,0.0,-1.0,-1.0,-2.0,-2.0,1651087714202698.0,2
1218,-1.0,-2.0,-2.0,-2.0,-5.0,-2.0,-2.0,-1.0,1651087714204063.0,2
1219,-1.0,-1.0,-3.0,4.0,2.0,-1.0,0.0,-2.0,1651087714204063.0,2
1220,-1.0,-1.0,-1.0,-4.0,-2.0,-2.0,0.0,-4.0,1651087714225264.0,2
1221,-1.0,2.0,6.0,-1.0,-1.0,-5.0,-3.0,0.0,1651087714225264.0,2
1222,-1.0,-1.0,-4.0,-2.0,-3.0,2.0,-2.0,-1.0,1651087714226201.0,2
1223,-1.0,-1.0,14.0,4.0,1.0,-2.0,-1.0,-1.0,1651087714226201.0,2
1224,0.0,-5.0,-16.0,-6.0,1.0,-11.0,-3.0,-2.0,1651087714247798.0,2
1225,-2.0,1.0,3.0,1.0,-1.0,5.0,3.0,0.0,1651087714247798.0,2
1226,-2.0,-2.0,1.0,0.0,-1.0,1.0,-2.0,0.0,1651087714249238.0,2
1227,1.0,-3.0,-18.0,-16.0,-2.0,1.0,1.0,1.0,1651087714249238.0,2
1228,-2.0,-2.0,17.0,11.0,-3.0,-3.0,0.0,0.0,1651087714262722.0,2
1229,-2.0,-1.0,8.0,-3.0,-4.0,-2.0,-3.0,-3.0,1651087714262722.0,2
1230,0.0,0.0,11.0,20.0,5.0,-3.0,0.0,-2.0,1651087714264096.0,2
1231,-3.0,-1.0,-1.0,-1.0,0.0,-11.0,-9.0,-2.0,1651087714264096.0,2
1232,1.0,-5.0,-46.0,-34.0,-4.0,11.0,10.0,1.0,1651087714284351.0,2
1233,0.0,4.0,11.0,16.0,1.0,-5.0,-4.0,-4.0,1651087714284351.0,2
1234,-1.0,-1.0,6.0,3.0,0.0,-1.0,-1.0,24.0,1651087714286201.0,2
1235,-1.0,-1.0,0.0,1.0,-6.0,-20.0,-8.0,-19.0,1651087714286201.0,2
1236,0.0,-1.0,9.0,1.0,-1.0,14.0,3.0,1.0,1651087714298511.0,2
1237,-3.0,-5.0,-34.0,-24.0,-5.0,-12.0,-11.0,-6.0,1651087714298511.0,2
1238,8.0,0.0,2.0,1.0,4.0,19.0,5.0,1.0,1651087714307888.0,2
1239,2.0,0.0,-5.0,4.0,0.0,2.0,5.0,9.0,1651087714307888.0,2
1240,-11.0,-3.0,10.0,0.0,-3.0,-24.0,-22.0,-9.0,1651087714322239.0,2
1241,-2.0,0.0,6.0,-2.0,2.0,17.0,20.0,1.0,1651087714322239.0,2
1242,-5.0,-3.0,-12.0,-2.0,-3.0,-13.0,-7.0,-13.0,1651087714329120.0,2
1243,0.0,-2.0,3.0,-1.0,2.0,15.0,9.0,4.0,1651087714329120.0,2
1244,0.0,2.0,7.0,1.0,0.0,-2.0,-3.0,-5.0,1651087714345318.0,2
1245,-2.0,-1.0,-2.0,2.0,-3.0,-1.0,0.0,4.0,1651087714345318.0,2
1246,-3.0,3.0,0.0,-3.0,-3.0,-11.0,-3.0,-5.0,1651087714346192.0,2
1247,-3.0,1.0,21.0,13.0,7.0,10.0,2.0,0.0,1651087714346192.0,2
1248,-2.0,-3.0,-27.0,-17.0,0.0,-2.0,4.0,5.0,1651087714358853.0,2
1249,1.0,-1.0,-5.0,-4.0,-4.0,-6.0,-3.0,-1.0,1651087714358853.0,2
1250,1.0,2.0,3.0,-5.0,-1.0,4.0,5.0,-1.0,1651087714368174.0,2
1251,4.0,1.0,6.0,9.0,-2.0,-3.0,-3.0,1.0,1651087714368174.0,2
1252,2.0,0.0,12.0,10.0,2.0,6.0,3.0,0.0,1651087714381176.0,2
1253,2.0,-1.0,3.0,0.0,3.0,2.0,-1.0,0.0,1651087714381176.0,2
1254,-1.0,-2.0,-10.0,-5.0,-2.0,-4.0,-5.0,-5.0,1651087714388477.0,2
1255,-1.0,0.0,-5.0,-8.0,-2.0,1.0,1.0,6.0,1651087714388477.0,2
1256,2.0,3.0,9.0,10.0,-2.0,0.0,3.0,1.0,1651087714405317.0,2
1257,1.0,-1.0,1.0,-3.0,2.0,2.0,-1.0,0.0,1651087714405317.0,2
1258,-3.0,-1.0,-15.0,-3.0,0.0,-2.0,-2.0,-1.0,1651087714406191.0,2
1259,-1.0,-2.0,5.0,4.0,0.0,-1.0,-1.0,-3.0,1651087714406191.0,2
1260,2.0,2.0,8.0,4.0,-5.0,1.0,0.0,0.0,1651087714418605.0,2
1261,2.0,0.0,-3.0,-1.0,0.0,-1.0,-1.0,0.0,1651087714418605.0,2
1262,0.0,1.0,4.0,-2.0,5.0,1.0,1.0,-2.0,1651087714427053.0,2
1263,-2.0,0.0,-8.0,-6.0,-1.0,1.0,0.0,2.0,1651087714427053.0,0
1264,1.0,-3.0,4.0,4.0,-2.0,-3.0,-2.0,-1.0,1651087714442049.0,0
1265,-1.0,0.0,6.0,4.0,-4.0,-2.0,0.0,0.0,1651087714442049.0,0
1266,-2.0,-3.0,-2.0,-6.0,3.0,4.0,2.0,1.0,1651087714448154.0,0
1267,0.0,-1.0,-4.0,-2.0,-2.0,1.0,0.0,0.0,1651087714448154.0,0
1268,-2.0,1.0,9.0,6.0,-1.0,-2.0,0.0,0.0,1651087714465223.0,0
1269,1.0,-2.0,-3.0,-3.0,-3.0,-1.0,-2.0,-1.0,1651087714465223.0,0
1270,-1.0,-2.0,0.0,1.0,-3.0,-3.0,1.0,0.0,1651087714466187.0,0
1271,0.0,0.0,-5.0,-5.0,-3.0,-4.0,-3.0,-2.0,1651087714466187.0,0
1272,1.0,-1.0,-1.0,-2.0,0.0,0.0,1.0,1.0,1651087714487521.0,0
1273,-2.0,-2.0,0.0,1.0,1.0,0.0,1.0,0.0,1651087714487521.0,0
1274,0.0,0.0,4.0,3.0,1.0,1.0,-2.0,0.0,1651087714493210.0,0
1275,-2.0,-2.0,-3.0,-2.0,0.0,1.0,-1.0,-1.0,1651087714493210.0,0
1276,-1.0,-2.0,-2.0,2.0,1.0,0.0,-1.0,0.0,1651087714502096.0,0
1277,-1.0,0.0,-1.0,-3.0,-4.0,-5.0,-2.0,0.0,1651087714502096.0,0
1278,0.0,-2.0,0.0,-2.0,-3.0,-3.0,-2.0,0.0,1651087714508846.0,0
1279,-3.0,-1.0,-4.0,0.0,0.0,1.0,0.0,0.0,1651087714508846.0,0
1280,1.0,0.0,1.0,3.0,3.0,2.0,1.0,-1.0,1651087714525235.0,0
1281,0.0,-1.0,1.0,0.0,-1.0,1.0,0.0,0.0,1651087714525235.0,0
1282,0.0,-1.0,-3.0,-1.0,-1.0,-1.0,0.0,0.0,1651087714526199.0,0
1283,-1.0,-1.0,-1.0,-4.0,0.0,-2.0,-1.0,-1.0,1651087714526199.0,0
1284,-2.0,0.0,0.0,0.0,1.0,-2.0,0.0,-1.0,1651087714547341.0,0
1285,0.0,0.0,-1.0,-2.0,-4.0,-1.0,-1.0,-2.0,1651087714547341.0,0
1286,0.0,-1.0,-2.0,-1.0,-4.0,-3.0,-2.0,-2.0,1651087714549192.0,0
1287,1.0,0.0,-2.0,-1.0,0.0,-2.0,0.0,1.0,1651087714549192.0,0
1288,-1.0,2.0,1.0,2.0,4.0,3.0,1.0,0.0,1651087714561329.0,0
1289,1.0,-2.0,-5.0,-3.0,0.0,0.0,0.0,-1.0,1651087714561329.0,0
1290,0.0,0.0,1.0,2.0,-4.0,-3.0,-2.0,0.0,1651087714568849.0,0
1291,0.0,0.0,1.0,-1.0,-4.0,-2.0,-1.0,-1.0,1651087714568849.0,0
1292,-2.0,-1.0,-1.0,0.0,1.0,-1.0,-2.0,-2.0,1651087714584467.0,0
1293,-1.0,0.0,-1.0,2.0,3.0,3.0,2.0,1.0,1651087714584467.0,0
1294,-1.0,-2.0,-4.0,-1.0,-1.0,-2.0,0.0,1.0,1651087714586319.0,0
1295,0.0,0.0,-3.0,-2.0,0.0,-1.0,0.0,0.0,1651087714586319.0,0
1296,0.0,0.0,0.0,2.0,-1.0,1.0,-1.0,1.0,1651087714607349.0,0
1297,-1.0,0.0,1.0,-1.0,0.0,-2.0,-1.0,0.0,1651087714607349.0,0
1298,-2.0,-2.0,-2.0,-2.0,0.0,1.0,0.0,-1.0,1651087714609200.0,0
1299,-1.0,-1.0,-2.0,-3.0,-1.0,0.0,-1.0,0.0,1651087714609200.0,0
1300,-1.0,0.0,-1.0,-3.0,-2.0,-4.0,0.0,-1.0,1651087714621259.0,0
1301,-1.0,1.0,0.0,0.0,-2.0,0.0,0.0,-1.0,1651087714621259.0,0
1302,0.0,1.0,-1.0,-1.0,0.0,0.0,-1.0,-1.0,1651087714630256.0,0
1303,-2.0,-2.0,0.0,-1.0,1.0,-1.0,0.0,-1.0,1651087714630256.0,0
1304,0.0,0.0,-1.0,-1.0,-1.0,0.0,0.0,0.0,1651087714644540.0,0
1305,1.0,-1.0,-1.0,-1.0,-5.0,-3.0,-3.0,1.0,1651087714644540.0,0
1306,0.0,-1.0,1.0,4.0,7.0,1.0,1.0,0.0,1651087714646389.0,0
1307,0.0,-1.0,-2.0,-1.0,2.0,0.0,0.0,-1.0,1651087714646389.0,0
1308,0.0,0.0,0.0,-1.0,-2.0,1.0,-2.0,1.0,1651087714667696.0,0
1309,0.0,0.0,0.0,-1.0,-4.0,-4.0,0.0,-1.0,1651087714667696.0,0
1310,-2.0,-1.0,-3.0,-1.0,-2.0,1.0,0.0,0.0,1651087714668697.0,0
1311,-1.0,-1.0,2.0,4.0,1.0,2.0,1.0,0.0,1651087714668697.0,0
1312,-2.0,0.0,-1.0,-1.0,0.0,0.0,0.0,-2.0,1651087714681861.0,0
1313,-1.0,-2.0,-3.0,-1.0,-2.0,-3.0,1.0,0.0,1651087714681861.0,0
1314,1.0,-1.0,-1.0,-2.0,-1.0,-1.0,-1.0,-1.0,1651087714690966.0,0
1315,0.0,0.0,0.0,0.0,1.0,-2.0,-1.0,-2.0,1651087714690966.0,0
1316,-1.0,-3.0,-1.0,-2.0,-4.0,-3.0,-2.0,-1.0,1651087714705061.0,0
1317,-2.0,0.0,0.0,1.0,2.0,3.0,0.0,0.0,1651087714705061.0,0
1318,1.0,-2.0,-1.0,-1.0,1.0,0.0,1.0,0.0,1651087714706060.0,0
1319,-1.0,1.0,-2.0,-1.0,-5.0,-3.0,-2.0,-1.0,1651087714706060.0,0
1320,0.0,-1.0,-3.0,-1.0,-2.0,0.0,0.0,1.0,1651087714728227.0,0
1321,-1.0,0.0,0.0,2.0,1.0,1.0,0.0,-1.0,1651087714728227.0,0
1322,-3.0,1.0,-1.0,2.0,-1.0,-1.0,0.0,-2.0,1651087714729072.0,0
1323,1.0,-2.0,0.0,-3.0,-2.0,-3.0,0.0,1.0,1651087714729072.0,0
1324,2.0,-1.0,2.0,-1.0,0.0,3.0,-2.0,-1.0,1651087714741249.0,0
1325,-1.0,-2.0,0.0,-2.0,-2.0,-1.0,-3.0,-2.0,1651087714741249.0,0
1326,-1.0,-2.0,1.0,0.0,-2.0,-1.0,0.0,0.0,1651087714750227.0,0
1327,0.0,-2.0,0.0,-1.0,2.0,-1.0,-1.0,-1.0,1651087714750227.0,0
1328,0.0,-1.0,0.0,1.0,-2.0,-2.0,1.0,1.0,1651087714764690.0,0
1329,-3.0,-2.0,-1.0,0.0,4.0,2.0,-1.0,0.0,1651087714764690.0,0
1330,0.0,0.0,2.0,-1.0,0.0,1.0,0.0,0.0,1651087714766569.0,0
1331,0.0,-1.0,-3.0,-3.0,-3.0,-2.0,0.0,1.0,1651087714766569.0,0
1332,-1.0,-1.0,-1.0,0.0,1.0,1.0,1.0,0.0,1651087714787229.0,0
1333,-1.0,1.0,-2.0,-2.0,-2.0,-3.0,-1.0,-2.0,1651087714787229.0,0
1334,-1.0,-2.0,-2.0,0.0,-1.0,-1.0,-1.0,-1.0,1651087714789231.0,0
1335,-1.0,-1.0,1.0,0.0,1.0,0.0,0.0,-2.0,1651087714789231.0,0
1336,0.0,-1.0,2.0,-1.0,-1.0,-4.0,0.0,0.0,1651087714801327.0,0
1337,1.0,-1.0,-1.0,-1.0,-2.0,-1.0,-2.0,1.0,1651087714801327.0,0
1338,-1.0,1.0,-1.0,-2.0,1.0,0.0,-2.0,0.0,1651087714810194.0,0
1339,1.0,-2.0,-1.0,-1.0,-1.0,-1.0,-1.0,0.0,1651087714810194.0,0
1340,-3.0,-2.0,-1.0,1.0,2.0,0.0,1.0,-2.0,1651087714825355.0,0
1341,-2.0,0.0,1.0,0.0,-2.0,-1.0,1.0,-1.0,1651087714825355.0,0
1342,0.0,-1.0,-1.0,-2.0,-4.0,-2.0,0.0,0.0,1651087714826208.0,0
1343,0.0,-1.0,0.0,0.0,-3.0,1.0,-1.0,2.0,1651087714826208.0,0
1344,0.0,0.0,-2.0,-2.0,-3.0,-3.0,-1.0,0.0,1651087714847366.0,0
1345,-1.0,1.0,-2.0,0.0,0.0,-3.0,-1.0,0.0,1651087714847366.0,0
1346,-2.0,2.0,-1.0,0.0,2.0,4.0,0.0,-1.0,1651087714849205.0,0
1347,-3.0,0.0,-1.0,1.0,1.0,2.0,0.0,0.0,1651087714849205.0,0
1348,0.0,-1.0,0.0,0.0,-3.0,-3.0,-1.0,1.0,1651087714863219.0,0
1349,0.0,-3.0,-1.0,-3.0,-2.0,2.0,-1.0,-1.0,1651087714863219.0,0
1350,1.0,0.0,-1.0,-1.0,0.0,-1.0,-1.0,0.0,1651087714869127.0,0
1351,-2.0,0.0,-1.0,-3.0,1.0,0.0,-1.0,0.0,1651087714869127.0,0
1352,-1.0,3.0,-1.0,0.0,2.0,1.0,0.0,-1.0,1651087714885455.0,0
1353,-1.0,-2.0,-1.0,1.0,-1.0,-1.0,0.0,-1.0,1651087714885455.0,0
1354,0.0,-2.0,1.0,-1.0,-2.0,-1.0,-2.0,0.0,1651087714886310.0,0
1355,1.0,-1.0,0.0,0.0,-4.0,-1.0,0.0,0.0,1651087714886310.0,0
1356,-1.0,-1.0,-6.0,-1.0,-1.0,1.0,0.0,-3.0,1651087714907616.0,0
1357,1.0,-1.0,-1.0,-1.0,-2.0,-1.0,-1.0,-1.0,1651087714907616.0,0
1358,1.0,-2.0,-1.0,2.0,2.0,0.0,2.0,-1.0,1651087714908616.0,0
1359,0.0,-1.0,0.0,2.0,2.0,1.0,0.0,-1.0,1651087714908616.0,0
1360,0.0,-1.0,0.0,-1.0,-3.0,-3.0,0.0,-1.0,1651087714922091.0,0
1361,-1.0,-1.0,0.0,0.0,1.0,-1.0,0.0,0.0,1651087714922091.0,0
1362,-1.0,-1.0,-4.0,-5.0,-4.0,-2.0,-3.0,-1.0,1651087714928892.0,0
1363,-1.0,-1.0,-6.0,-3.0,0.0,-1.0,-1.0,-1.0,1651087714928892.0,0
1364,-1.0,-2.0,-2.0,-2.0,-2.0,0.0,1.0,-1.0,1651087714945365.0,0
1365,-1.0,-1.0,0.0,1.0,1.0,1.0,0.0,0.0,1651087714945365.0,0
1366,0.0,0.0,2.0,2.0,-1.0,-3.0,1.0,2.0,1651087714946218.0,0
1367,0.0,0.0,0.0,-2.0,-2.0,-3.0,0.0,-2.0,1651087714946218.0,0
1368,1.0,2.0,0.0,0.0,0.0,3.0,-1.0,1.0,1651087714968382.0,0
1369,1.0,-1.0,0.0,-1.0,-1.0,-2.0,0.0,1.0,1651087714968382.0,0
1370,-1.0,-1.0,-1.0,-2.0,-2.0,-3.0,-1.0,-1.0,1651087714969074.0,0
1371,-2.0,0.0,0.0,-1.0,3.0,1.0,0.0,-1.0,1651087714969074.0,0
1372,-1.0,-1.0,3.0,0.0,0.0,-1.0,0.0,0.0,1651087714981242.0,0
1373,-1.0,-2.0,-1.0,-1.0,-1.0,0.0,1.0,1.0,1651087714981242.0,0
1374,-2.0,0.0,-2.0,0.0,1.0,0.0,0.0,0.0,1651087714989582.0,0
1375,0.0,-1.0,-2.0,-2.0,-3.0,-2.0,-1.0,-1.0,1651087714989582.0,0
1376,1.0,0.0,1.0,-2.0,-1.0,-2.0,-1.0,0.0,1651087715004396.0,0
1377,0.0,0.0,2.0,0.0,2.0,0.0,0.0,0.0,1651087715004396.0,0
1378,0.0,0.0,0.0,0.0,-2.0,1.0,0.0,-1.0,1651087715006234.0,0
1379,0.0,0.0,1.0,2.0,-1.0,-1.0,0.0,2.0,1651087715006234.0,0
1380,1.0,0.0,-8.0,-3.0,-5.0,-4.0,-2.0,0.0,1651087715027792.0,0
1381,-2.0,-1.0,1.0,2.0,3.0,1.0,-1.0,-1.0,1651087715027792.0,0
1382,-2.0,-3.0,0.0,-3.0,0.0,-1.0,1.0,-1.0,1651087715028792.0,0
1383,1.0,1.0,0.0,-2.0,-1.0,1.0,-2.0,-1.0,1651087715028792.0,0
1384,0.0,1.0,2.0,0.0,4.0,1.0,-2.0,-2.0,1651087715041272.0,0
1385,-1.0,0.0,-3.0,-3.0,-3.0,-1.0,2.0,2.0,1651087715041272.0,0
1386,0.0,0.0,1.0,-3.0,-3.0,-2.0,-1.0,0.0,1651087715050294.0,0
1387,-1.0,-2.0,1.0,0.0,1.0,-2.0,1.0,1.0,1651087715050294.0,0
1388,-1.0,-2.0,0.0,0.0,0.0,-1.0,-1.0,-1.0,1651087715064398.0,0
1389,1.0,0.0,-5.0,-4.0,0.0,1.0,-2.0,-1.0,1651087715064398.0,0
1390,0.0,-4.0,-13.0,-6.0,-5.0,-2.0,-1.0,-2.0,1651087715066234.0,0
1391,0.0,1.0,4.0,-1.0,-3.0,-1.0,-1.0,-2.0,1651087715066234.0,0
1392,-2.0,-2.0,0.0,1.0,2.0,0.0,-1.0,-1.0,1651087715087409.0,0
1393,-1.0,-1.0,4.0,5.0,6.0,3.0,4.0,-1.0,1651087715087409.0,0
1394,0.0,2.0,2.0,1.0,3.0,3.0,0.0,1.0,1651087715088455.0,0
1395,-1.0,0.0,-5.0,-3.0,-4.0,-3.0,-2.0,0.0,1651087715088455.0,0
1396,0.0,-1.0,1.0,2.0,-2.0,-1.0,-1.0,1.0,1651087715101518.0,0
1397,1.0,-1.0,-1.0,-3.0,-4.0,-2.0,-2.0,-1.0,1651087715101518.0,0
1398,1.0,0.0,-4.0,-3.0,-2.0,-3.0,-2.0,-3.0,1651087715110287.0,0
1399,-2.0,-1.0,0.0,3.0,5.0,5.0,1.0,0.0,1651087715110287.0,0
1400,-1.0,-1.0,0.0,1.0,1.0,-1.0,1.0,-2.0,1651087715125339.0,0
1401,-1.0,-2.0,-1.0,-1.0,0.0,-1.0,-2.0,-1.0,1651087715125339.0,0
1402,0.0,-1.0,3.0,-1.0,-2.0,-1.0,0.0,1.0,1651087715126191.0,0
1403,2.0,0.0,0.0,-2.0,-4.0,-1.0,-1.0,-1.0,1651087715126191.0,0
1404,-1.0,-1.0,-1.0,0.0,0.0,-1.0,-1.0,0.0,1651087715147889.0,0
1405,-1.0,1.0,-1.0,0.0,-2.0,0.0,0.0,-1.0,1651087715147889.0,0
1406,-1.0,0.0,-2.0,-3.0,-1.0,-2.0,0.0,-1.0,1651087715149250.0,0
1407,-3.0,-1.0,-2.0,1.0,1.0,-1.0,0.0,-1.0,1651087715149250.0,0
1408,-1.0,0.0,-2.0,-2.0,-2.0,-1.0,-1.0,0.0,1651087715161366.0,0
1409,-1.0,-1.0,-1.0,-1.0,-2.0,-2.0,-2.0,0.0,1651087715161366.0,0
1410,-2.0,0.0,5.0,6.0,4.0,2.0,-1.0,1.0,1651087715170218.0,0
1411,0.0,0.0,-2.0,-1.0,-1.0,-1.0,0.0,1.0,1651087715170218.0,0
1412,-2.0,-1.0,0.0,-2.0,-2.0,-2.0,-1.0,0.0,1651087715185403.0,0
1413,1.0,1.0,1.0,1.0,-2.0,1.0,-1.0,-1.0,1651087715185403.0,0
1414,-1.0,0.0,-3.0,-1.0,1.0,0.0,0.0,0.0,1651087715186252.0,0
1415,0.0,-3.0,-2.0,-3.0,-1.0,0.0,-2.0,0.0,1651087715186252.0,0
1416,-1.0,4.0,-1.0,-4.0,-1.0,0.0,0.0,1.0,1651087715208180.0,0
1417,-1.0,-10.0,-2.0,0.0,2.0,0.0,1.0,-1.0,1651087715208180.0,0
1418,-1.0,1.0,3.0,-1.0,-2.0,-2.0,-1.0,-1.0,1651087715208281.0,0
1419,0.0,1.0,5.0,6.0,2.0,1.0,0.0,1.0,1651087715208281.0,0
1420,0.0,-1.0,-3.0,-3.0,-1.0,0.0,-1.0,-2.0,1651087715221474.0,0
1421,0.0,0.0,-3.0,-3.0,-4.0,-3.0,-2.0,-1.0,1651087715221474.0,0
1422,-1.0,-1.0,1.0,0.0,-1.0,-3.0,0.0,-1.0,1651087715237356.0,0
1423,0.0,-1.0,-4.0,-1.0,1.0,1.0,0.0,-2.0,1651087715237356.0,0
1424,0.0,0.0,5.0,6.0,2.0,1.0,1.0,1.0,1651087715245333.0,0
1425,0.0,0.0,2.0,0.0,0.0,-3.0,1.0,-1.0,1651087715245333.0,0
1426,-1.0,-2.0,0.0,1.0,0.0,1.0,-1.0,0.0,1651087715246186.0,0
1427,-1.0,1.0,1.0,-3.0,-5.0,-4.0,0.0,0.0,1651087715246186.0,0
1428,-1.0,-2.0,-3.0,-1.0,0.0,-1.0,1.0,0.0,1651087715267612.0,0
1429,0.0,0.0,-4.0,-1.0,-1.0,1.0,0.0,1.0,1651087715267612.0,0
1430,-1.0,-1.0,-1.0,2.0,-3.0,-2.0,-1.0,-1.0,1651087715268611.0,0
1431,-2.0,-2.0,1.0,-1.0,0.0,1.0,0.0,1.0,1651087715268611.0,0
1432,0.0,-2.0,-1.0,-4.0,-3.0,-1.0,-2.0,-2.0,1651087715281365.0,0
1433,-4.0,0.0,-1.0,1.0,4.0,4.0,2.0,-1.0,1651087715281365.0,0
1434,1.0,1.0,-2.0,0.0,0.0,-1.0,-1.0,1.0,1651087715290195.0,0
1435,-1.0,0.0,-1.0,0.0,-2.0,-2.0,-2.0,-2.0,1651087715290195.0,0
1436,0.0,-1.0,4.0,0.0,1.0,0.0,-2.0,-1.0,1651087715304375.0,0
1437,-1.0,0.0,-3.0,-2.0,-1.0,-3.0,-4.0,-3.0,1651087715304375.0,0
1438,1.0,-1.0,5.0,3.0,2.0,2.0,2.0,-1.0,1651087715306211.0,0
1439,-1.0,-2.0,-8.0,-2.0,-2.0,-1.0,-1.0,-2.0,1651087715306211.0,0
1440,1.0,-3.0,-3.0,-1.0,-4.0,-2.0,0.0,0.0,1651087715327652.0,0
1441,0.0,1.0,2.0,-2.0,-2.0,1.0,-1.0,0.0,1651087715327652.0,0
1442,1.0,3.0,-3.0,-1.0,3.0,3.0,1.0,-1.0,1651087715328652.0,0
1443,-1.0,-3.0,3.0,-1.0,-3.0,-3.0,-2.0,-2.0,1651087715328652.0,0
1444,-1.0,-1.0,1.0,2.0,0.0,-1.0,-1.0,-1.0,1651087715341657.0,0
1445,-2.0,1.0,0.0,-1.0,0.0,4.0,-2.0,1.0,1651087715341657.0,0
1446,0.0,0.0,-2.0,-2.0,-5.0,-4.0,-1.0,-1.0,1651087715349596.0,0
1447,1.0,2.0,1.0,0.0,-1.0,1.0,0.0,-1.0,1651087715349596.0,0
1448,-3.0,0.0,-11.0,-2.0,0.0,0.0,0.0,0.0,1651087715364387.0,0
1449,1.0,-2.0,-3.0,-4.0,-4.0,-3.0,-1.0,-1.0,1651087715364387.0,0
1450,0.0,0.0,-2.0,-2.0,-1.0,-1.0,0.0,0.0,1651087715366218.0,0
1451,0.0,4.0,4.0,5.0,5.0,1.0,1.0,0.0,1651087715366218.0,0
1452,-1.0,-1.0,4.0,0.0,-4.0,-1.0,0.0,-1.0,1651087715387434.0,0
1453,0.0,-1.0,-11.0,-2.0,4.0,4.0,-1.0,1.0,1651087715387434.0,0
1454,-1.0,-1.0,2.0,-1.0,-9.0,-4.0,0.0,0.0,1651087715388477.0,0
1455,1.0,-1.0,-8.0,-4.0,0.0,-2.0,0.0,-1.0,1651087715388477.0,0
1456,1.0,-3.0,-7.0,1.0,-1.0,1.0,0.0,2.0,1651087715410311.0,0
1457,0.0,-4.0,16.0,8.0,12.0,-2.0,-1.0,0.0,1651087715410311.0,0
1458,0.0,0.0,8.0,7.0,2.0,2.0,0.0,1.0,1651087715411250.0,0
1459,-2.0,-7.0,-12.0,-9.0,-7.0,-4.0,-1.0,-2.0,1651087715411250.0,0
1460,0.0,8.0,-1.0,2.0,7.0,2.0,-1.0,0.0,1651087715432367.0,0
1461,1.0,-1.0,-2.0,-3.0,-9.0,-4.0,-1.0,-1.0,1651087715432367.0,0
1462,-2.0,-4.0,-6.0,-4.0,0.0,0.0,0.0,-3.0,1651087715433364.0,0
1463,1.0,-7.0,5.0,0.0,-5.0,-2.0,-1.0,-1.0,1651087715433364.0,0
1464,1.0,11.0,9.0,1.0,-1.0,0.0,1.0,-1.0,1651087715447971.0,0
1465,-1.0,6.0,-9.0,-3.0,2.0,0.0,1.0,0.0,1651087715447971.0,0
1466,0.0,-1.0,1.0,4.0,6.0,8.0,0.0,1.0,1651087715448517.0,0
1467,1.0,-6.0,-7.0,-2.0,10.0,4.0,2.0,-1.0,1651087715448517.0,0
1468,-1.0,-5.0,11.0,-12.0,-16.0,-7.0,-4.0,-3.0,1651087715470233.0,0
1469,0.0,2.0,4.0,11.0,0.0,-2.0,0.0,0.0,1651087715470233.0,0
1470,-3.0,-5.0,8.0,15.0,12.0,0.0,-1.0,-1.0,1651087715471119.0,0
1471,-1.0,5.0,4.0,-2.0,-1.0,0.0,0.0,1.0,1651087715471119.0,0
1472,-2.0,-11.0,-8.0,-7.0,-12.0,-3.0,0.0,-2.0,1651087715485420.0,0
1473,-1.0,9.0,6.0,-10.0,-10.0,-2.0,1.0,0.0,1651087715485420.0,0
1474,1.0,0.0,0.0,-11.0,-16.0,-8.0,-3.0,-3.0,1651087715486288.0,0
1475,-1.0,3.0,-1.0,13.0,6.0,1.0,0.0,0.0,1651087715486288.0,0
1476,-1.0,0.0,1.0,0.0,9.0,4.0,0.0,-1.0,1651087715514343.0,0
1477,1.0,-7.0,-10.0,-3.0,-4.0,-2.0,-2.0,-2.0,1651087715514343.0,0
1478,0.0,1.0,5.0,2.0,-2.0,-1.0,0.0,0.0,1651087715516195.0,0
1479,-1.0,-1.0,9.0,-8.0,-5.0,-5.0,-2.0,-2.0,1651087715516195.0,0
1480,2.0,1.0,-6.0,6.0,16.0,11.0,3.0,2.0,1651087715530243.0,0
1481,-2.0,-3.0,-3.0,-4.0,-2.0,1.0,0.0,-1.0,1651087715530243.0,0
1482,2.0,0.0,-4.0,-8.0,-2.0,-3.0,0.0,-1.0,1651087715531215.0,0
1483,-1.0,4.0,2.0,-3.0,-13.0,-3.0,-4.0,0.0,1651087715531215.0,0
1484,0.0,-2.0,2.0,10.0,17.0,6.0,1.0,2.0,1651087715544386.0,0
1485,-1.0,-2.0,0.0,3.0,6.0,2.0,1.0,-1.0,1651087715544386.0,0
1486,1.0,1.0,-5.0,-11.0,-8.0,-4.0,-1.0,-1.0,1651087715551661.0,0
1487,-2.0,-2.0,-9.0,2.0,-5.0,-3.0,-1.0,-1.0,1651087715551661.0,0
1488,-3.0,-5.0,12.0,7.0,9.0,-2.0,-1.0,-1.0,1651087715567982.0,0
1489,0.0,10.0,6.0,-4.0,-12.0,-2.0,-1.0,1.0,1651087715567982.0,0
1490,-2.0,-4.0,8.0,19.0,19.0,14.0,2.0,1.0,1651087715568822.0,0
1491,0.0,-7.0,-36.0,-10.0,8.0,3.0,3.0,0.0,1651087715568822.0,0
1492,-2.0,0.0,-9.0,-2.0,6.0,3.0,0.0,-1.0,1651087715590306.0,0
1493,2.0,-1.0,5.0,-1.0,-15.0,-11.0,-2.0,-1.0,1651087715590306.0,0
1494,-2.0,-4.0,-7.0,0.0,2.0,-2.0,-1.0,-1.0,1651087715591166.0,0
1495,1.0,6.0,13.0,-14.0,-12.0,-4.0,-1.0,-1.0,1651087715591166.0,0
1496,-2.0,-4.0,-10.0,-1.0,2.0,-5.0,0.0,-3.0,1651087715604390.0,0
1497,-1.0,-10.0,0.0,-10.0,-5.0,-3.0,1.0,0.0,1651087715604390.0,0
1498,-1.0,3.0,-10.0,1.0,-10.0,-8.0,-4.0,-2.0,1651087715611587.0,0
1499,-2.0,-3.0,10.0,3.0,7.0,4.0,0.0,-1.0,1651087715611587.0,0
1500,0.0,-1.0,2.0,-8.0,-12.0,-4.0,-1.0,-1.0,1651087715627586.0,0
1501,0.0,5.0,2.0,6.0,14.0,6.0,1.0,0.0,1651087715627586.0,0
1502,1.0,0.0,7.0,1.0,-2.0,-2.0,-1.0,2.0,1651087715628415.0,0
1503,-1.0,-1.0,-6.0,-8.0,-14.0,-10.0,-3.0,-1.0,1651087715628415.0,0
1504,-2.0,2.0,2.0,7.0,16.0,4.0,1.0,-2.0,1651087715649431.0,0
1505,0.0,0.0,-7.0,-6.0,-3.0,2.0,0.0,0.0,1651087715649431.0,0
1506,-1.0,-4.0,-3.0,13.0,18.0,7.0,1.0,1.0,1651087715651421.0,0
1507,1.0,-4.0,7.0,7.0,4.0,0.0,0.0,0.0,1651087715651421.0,0
1508,0.0,3.0,-6.0,-4.0,-17.0,-7.0,-4.0,-1.0,1651087715663231.0,0
1509,-2.0,-5.0,-3.0,10.0,0.0,1.0,0.0,0.0,1651087715663231.0,0
1510,-3.0,1.0,-3.0,-30.0,-27.0,-9.0,-4.0,-4.0,1651087715672117.0,0
1511,0.0,0.0,16.0,31.0,23.0,5.0,1.0,2.0,1651087715672117.0,0
1512,0.0,-1.0,-7.0,-10.0,-13.0,-7.0,0.0,0.0,1651087715688279.0,0
1513,-1.0,-1.0,-6.0,-2.0,2.0,3.0,-9.0,-19.0,1651087715688279.0,0
1514,-3.0,2.0,6.0,3.0,1.0,-4.0,4.0,20.0,1651087715689280.0,0
1515,1.0,-2.0,-11.0,-23.0,-2.0,0.0,0.0,-1.0,1651087715689280.0,0
1516,-3.0,4.0,19.0,3.0,-12.0,-4.0,-3.0,-2.0,1651087715710399.0,0
1517,-2.0,-5.0,-26.0,-18.0,-6.0,-5.0,1.0,-2.0,1651087715710399.0,0
1518,0.0,-1.0,4.0,-8.0,-8.0,-2.0,-2.0,-7.0,1651087715711281.0,0
1519,-3.0,0.0,3.0,27.0,14.0,6.0,0.0,-1.0,1651087715711281.0,0
1520,3.0,-1.0,0.0,-1.0,8.0,3.0,2.0,2.0,1651087715724363.0,0
1521,-1.0,-5.0,5.0,-12.0,-14.0,-5.0,0.0,4.0,1651087715724363.0,0
1522,-2.0,-3.0,-2.0,3.0,-2.0,-2.0,-5.0,-4.0,1651087715738176.0,0
1523,-2.0,-1.0,-4.0,3.0,-5.0,-4.0,-1.0,2.0,1651087715738176.0,0
1524,-1.0,-4.0,-6.0,-2.0,-7.0,0.0,-3.0,-5.0,1651087715747340.0,0
1525,0.0,4.0,8.0,16.0,32.0,9.0,2.0,6.0,1651087715747340.0,0
1526,2.0,0.0,-15.0,-12.0,-16.0,-6.0,0.0,0.0,1651087715748372.0,0
1527,2.0,2.0,13.0,-13.0,1.0,5.0,2.0,-1.0,1651087715748372.0,0
1528,0.0,-2.0,-22.0,-4.0,1.0,1.0,-2.0,0.0,1651087715770335.0,0
1529,-2.0,-3.0,-2.0,-9.0,-6.0,-3.0,-1.0,3.0,1651087715770335.0,0
1530,1.0,1.0,-3.0,5.0,-3.0,0.0,0.0,-2.0,1651087715771196.0,0
1531,2.0,8.0,12.0,8.0,-6.0,-3.0,-1.0,-1.0,1651087715771196.0,0
1532,-1.0,-9.0,1.0,1.0,6.0,2.0,2.0,2.0,1651087715783385.0,0
1533,-4.0,0.0,22.0,4.0,-1.0,-1.0,0.0,1.0,1651087715783385.0,0
1534,-1.0,-1.0,-3.0,0.0,5.0,1.0,-1.0,-3.0,1651087715792550.0,0
1535,-2.0,-2.0,-7.0,-11.0,-4.0,-6.0,-1.0,-2.0,1651087715792550.0,0
1536,1.0,1.0,-1.0,-1.0,-8.0,-1.0,0.0,1.0,1651087715807688.0,0
1537,0.0,-2.0,11.0,17.0,5.0,2.0,0.0,1.0,1651087715807688.0,0
1538,-2.0,5.0,15.0,11.0,6.0,0.0,0.0,-1.0,1651087715808719.0,0
1539,0.0,3.0,6.0,-12.0,-5.0,1.0,0.0,-1.0,1651087715808719.0,0
1540,-1.0,-3.0,-6.0,2.0,-1.0,-4.0,0.0,1.0,1651087715830275.0,0
1541,0.0,1.0,-1.0,3.0,-3.0,-2.0,0.0,-1.0,1651087715830275.0,0
1542,2.0,0.0,-7.0,-10.0,0.0,-2.0,-1.0,-2.0,1651087715831238.0,0
1543,-1.0,-3.0,-10.0,-13.0,-8.0,-3.0,0.0,1.0,1651087715831238.0,0
1544,-3.0,0.0,-9.0,3.0,-1.0,-2.0,-3.0,-2.0,1651087715844366.0,0
1545,-1.0,-1.0,7.0,2.0,-3.0,-4.0,-3.0,0.0,1651087715844366.0,0
1546,0.0,2.0,3.0,6.0,0.0,-1.0,0.0,0.0,1651087715853341.0,0
1547,-1.0,-1.0,-1.0,4.0,4.0,1.0,-1.0,-1.0,1651087715853341.0,0
1548,1.0,2.0,-7.0,8.0,13.0,6.0,3.0,1.0,1651087715875363.0,0
1549,-6.0,-8.0,-28.0,-24.0,-14.0,-8.0,-5.0,-5.0,1651087715875363.0,0
1550,-2.0,2.0,-20.0,-9.0,6.0,5.0,0.0,-2.0,1651087715876215.0,3
1551,-4.0,-9.0,-31.0,-15.0,-14.0,-10.0,-8.0,-3.0,1651087715876215.0,3
1552,3.0,3.0,11.0,0.0,-2.0,4.0,3.0,3.0,1651087715899407.0,3
1553,3.0,5.0,3.0,9.0,-4.0,-4.0,0.0,1.0,1651087715899407.0,3
1554,-1.0,-1.0,19.0,11.0,18.0,7.0,4.0,-1.0,1651087715904544.0,3
1555,-1.0,1.0,-8.0,2.0,1.0,0.0,0.0,1.0,1651087715904544.0,3
1556,-2.0,-3.0,-7.0,-20.0,-12.0,-11.0,-6.0,-4.0,1651087715905392.0,3
1557,-2.0,0.0,-9.0,-2.0,3.0,2.0,-1.0,-1.0,1651087715905392.0,3
1558,-1.0,-4.0,-8.0,-14.0,-5.0,-1.0,-4.0,-2.0,1651087715914515.0,3
1559,3.0,1.0,7.0,16.0,2.0,2.0,8.0,3.0,1651087715914515.0,3
1560,-2.0,-3.0,-2.0,3.0,-2.0,-2.0,-5.0,-4.0,1651087715916402.0,3
1561,-2.0,-1.0,-4.0,3.0,-5.0,-4.0,-1.0,2.0,1651087715916402.0,3
1562,-1.0,-4.0,-6.0,-2.0,-7.0,0.0,-3.0,-5.0,1651087715919384.0,3
1563,0.0,4.0,8.0,16.0,32.0,9.0,2.0,6.0,1651087715919384.0,3
1564,0.0,2.0,17.0,-6.0,-3.0,-7.0,-7.0,-2.0,1651087715928187.0,3
1565,-1.0,0.0,8.0,4.0,3.0,10.0,11.0,4.0,1651087715928187.0,3
1566,-3.0,-4.0,-18.0,-7.0,-2.0,-9.0,-3.0,-2.0,1651087715935080.0,3
1567,1.0,2.0,18.0,10.0,6.0,13.0,7.0,0.0,1651087715935080.0,3
1568,-1.0,-1.0,3.0,2.0,-14.0,-1.0,-1.0,-3.0,1651087715950084.0,3
1569,1.0,0.0,-11.0,-5.0,18.0,5.0,4.0,0.0,1651087715950084.0,3
1570,0.0,-1.0,-6.0,-3.0,-3.0,-7.0,-3.0,-1.0,1651087715951088.0,3
1571,-3.0,1.0,28.0,0.0,-6.0,-7.0,-7.0,-5.0,1651087715951088.0,3
1572,0.0,-2.0,-15.0,3.0,-1.0,-3.0,1.0,0.0,1651087715964342.0,3
1573,-1.0,3.0,32.0,12.0,-8.0,-5.0,-3.0,-2.0,1651087715964342.0,3
1574,2.0,-2.0,-39.0,-9.0,-3.0,-5.0,-7.0,0.0,1651087715972233.0,3
1575,2.0,1.0,11.0,-11.0,3.0,0.0,0.0,1.0,1651087715972233.0,3
1576,-2.0,4.0,27.0,42.0,6.0,2.0,2.0,0.0,1651087715987225.0,3
1577,-3.0,-4.0,-9.0,-29.0,-10.0,-3.0,-3.0,-1.0,1651087715987225.0,3
1578,1.0,2.0,19.0,2.0,2.0,0.0,2.0,2.0,1651087715989188.0,3
1579,-2.0,-1.0,-2.0,12.0,-2.0,1.0,-6.0,-2.0,1651087715989188.0,3
1580,1.0,-7.0,-48.0,-45.0,-3.0,9.0,6.0,8.0,1651087716010177.0,3
1581,1.0,2.0,52.0,44.0,13.0,-2.0,-3.0,-16.0,1651087716010177.0,3
1582,4.0,4.0,31.0,12.0,-5.0,-8.0,6.0,4.0,1651087716011178.0,3
1583,-9.0,-18.0,-76.0,-40.0,-21.0,-19.0,-23.0,-1.0,1651087716011178.0,3
1584,-5.0,2.0,-20.0,-10.0,0.0,13.0,2.0,-7.0,1651087716024375.0,3
1585,-8.0,7.0,19.0,-3.0,5.0,15.0,4.0,7.0,1651087716024375.0,3
1586,-9.0,-4.0,-19.0,28.0,12.0,19.0,7.0,2.0,1651087716032434.0,3
1587,1.0,-1.0,11.0,5.0,9.0,5.0,-3.0,-12.0,1651087716032434.0,3
1588,6.0,3.0,15.0,-3.0,-10.0,-17.0,-1.0,12.0,1651087716047618.0,3
1589,-9.0,-4.0,-72.0,-34.0,-16.0,-22.0,-11.0,1.0,1651087716047618.0,3
1590,2.0,2.0,-1.0,-13.0,-3.0,-2.0,1.0,-21.0,1651087716048605.0,3
1591,-3.0,-4.0,8.0,8.0,-10.0,-13.0,-6.0,13.0,1651087716048605.0,3
1592,-9.0,-1.0,31.0,19.0,10.0,3.0,-3.0,-10.0,1651087716070063.0,3
1593,7.0,2.0,-13.0,-55.0,2.0,14.0,19.0,7.0,1651087716070063.0,3
1594,4.0,-1.0,57.0,59.0,7.0,-11.0,-8.0,12.0,1651087716070926.0,3
1595,-13.0,-11.0,-42.0,-23.0,-5.0,-14.0,-4.0,1.0,1651087716070926.0,3
1596,2.0,-6.0,-25.0,18.0,9.0,11.0,4.0,-16.0,1651087716084234.0,3
1597,-5.0,-7.0,15.0,22.0,-3.0,-21.0,-18.0,-7.0,1651087716084234.0,3
1598,21.0,18.0,9.0,-7.0,14.0,36.0,20.0,14.0,1651087716092388.0,3
1599,-15.0,-29.0,-49.0,-14.0,-13.0,-19.0,-9.0,-12.0,1651087716092388.0,3
1600,15.0,4.0,8.0,-34.0,-8.0,17.0,6.0,-2.0,1651087716107694.0,3
1601,-1.0,-7.0,-20.0,4.0,5.0,23.0,14.0,27.0,1651087716107694.0,3
1602,-8.0,0.0,-29.0,-25.0,0.0,5.0,9.0,-2.0,1651087716108694.0,3
1603,6.0,7.0,10.0,12.0,9.0,3.0,-9.0,-7.0,1651087716108694.0,3
1604,-1.0,3.0,14.0,9.0,-7.0,-26.0,-23.0,-3.0,1651087716130260.0,3
1605,1.0,2.0,12.0,19.0,-2.0,1.0,-7.0,-5.0,1651087716130260.0,3
1606,13.0,-3.0,-9.0,-23.0,-8.0,-9.0,-1.0,-4.0,1651087716131063.0,3
1607,-8.0,9.0,15.0,4.0,13.0,25.0,29.0,32.0,1651087716131063.0,3
1608,-14.0,-3.0,49.0,47.0,17.0,10.0,3.0,-37.0,1651087716144351.0,3
1609,22.0,1.0,-7.0,-10.0,-15.0,-29.0,-27.0,-8.0,1651087716144351.0,3
1610,2.0,-10.0,-46.0,-19.0,-6.0,-4.0,-4.0,7.0,1651087716152468.0,3
1611,0.0,16.0,26.0,5.0,8.0,3.0,3.0,-12.0,1651087716152468.0,3
1612,3.0,-11.0,-11.0,21.0,5.0,11.0,16.0,3.0,1651087716166919.0,3
1613,-10.0,9.0,18.0,14.0,15.0,7.0,7.0,5.0,1651087716166919.0,3
1614,-6.0,-10.0,45.0,36.0,9.0,-3.0,-9.0,4.0,1651087716174059.0,3
1615,7.0,7.0,45.0,25.0,2.0,3.0,3.0,-1.0,1651087716174059.0,3
1616,9.0,4.0,-23.0,-36.0,-10.0,-11.0,-4.0,13.0,1651087716190241.0,3
1617,4.0,-3.0,-39.0,-25.0,-2.0,21.0,17.0,-9.0,1651087716190241.0,3
1618,-10.0,0.0,11.0,5.0,-15.0,-16.0,-8.0,4.0,1651087716191087.0,3
1619,27.0,6.0,33.0,19.0,7.0,10.0,16.0,15.0,1651087716191087.0,3
1620,-19.0,4.0,25.0,-16.0,-10.0,-25.0,-26.0,-20.0,1651087716204371.0,3
1621,-2.0,0.0,-21.0,-3.0,0.0,16.0,13.0,13.0,1651087716204371.0,3
1622,2.0,16.0,67.0,64.0,8.0,3.0,-4.0,-22.0,1651087716212525.0,3
1623,-15.0,-21.0,-99.0,-59.0,-13.0,4.0,3.0,-4.0,1651087716212525.0,3
1624,6.0,8.0,37.0,0.0,-1.0,-1.0,-3.0,24.0,1651087716227367.0,3
1625,13.0,-1.0,17.0,9.0,-7.0,-25.0,-15.0,-23.0,1651087716227367.0,3
1626,-18.0,1.0,-40.0,-19.0,-1.0,7.0,2.0,23.0,1651087716233329.0,3
1627,-1.0,-2.0,24.0,9.0,3.0,12.0,3.0,-27.0,1651087716233329.0,3
1628,-7.0,-1.0,-28.0,-7.0,3.0,-2.0,2.0,8.0,1651087716249430.0,3
1629,-3.0,-5.0,-5.0,44.0,12.0,-1.0,-1.0,-7.0,1651087716249430.0,3
1630,-8.0,-16.0,5.0,-21.0,-9.0,-6.0,-9.0,-7.0,1651087716251425.0,3
1631,2.0,2.0,-2.0,-2.0,-5.0,-5.0,5.0,10.0,1651087716251425.0,3
1632,1.0,-5.0,-44.0,-8.0,12.0,11.0,9.0,8.0,1651087716264325.0,3
1633,6.0,8.0,51.0,29.0,-7.0,-16.0,-11.0,18.0,1651087716264325.0,3
1634,-2.0,-1.0,-24.0,-24.0,-4.0,-3.0,0.0,-15.0,1651087716272237.0,3
1635,7.0,4.0,23.0,-14.0,3.0,3.0,-8.0,-1.0,1651087716272237.0,3
1636,1.0,5.0,-10.0,-1.0,-4.0,-3.0,4.0,-2.0,1651087716287387.0,3
1637,-28.0,-9.0,12.0,13.0,1.0,10.0,5.0,1.0,1651087716287387.0,3
1638,1.0,-7.0,-45.0,-33.0,-6.0,0.0,-1.0,-2.0,1651087716294317.0,3
1639,7.0,8.0,33.0,10.0,-9.0,-22.0,-4.0,-2.0,1651087716294317.0,3
1640,4.0,-4.0,3.0,-5.0,-3.0,20.0,6.0,19.0,1651087716310722.0,3
1641,-13.0,2.0,-14.0,3.0,6.0,1.0,2.0,-7.0,1651087716310722.0,3
1642,-15.0,-8.0,23.0,-3.0,-6.0,4.0,-5.0,-29.0,1651087716311557.0,3
1643,-7.0,8.0,14.0,26.0,13.0,10.0,3.0,8.0,1651087716311557.0,3
1644,4.0,1.0,-13.0,-19.0,-12.0,-20.0,-7.0,0.0,1651087716322879.0,3
1645,8.0,2.0,-37.0,-10.0,0.0,0.0,7.0,3.0,1651087716322879.0,3
1646,-5.0,-2.0,32.0,-1.0,-7.0,-5.0,1.0,-1.0,1651087716332206.0,3
1647,5.0,14.0,37.0,22.0,4.0,3.0,-4.0,4.0,1651087716332206.0,3
1648,-9.0,-15.0,-29.0,-7.0,8.0,3.0,3.0,-5.0,1651087716347691.0,3
1649,3.0,-6.0,23.0,-3.0,-3.0,-4.0,-9.0,-10.0,1651087716347691.0,3
1650,6.0,7.0,15.0,20.0,7.0,3.0,8.0,14.0,1651087716354377.0,3
1651,1.0,-6.0,-29.0,-37.0,-5.0,-4.0,-6.0,-8.0,1651087716354377.0,3
1652,3.0,18.0,45.0,29.0,6.0,5.0,3.0,-9.0,1651087716370394.0,3
1653,-2.0,-13.0,-28.0,4.0,-4.0,-4.0,2.0,15.0,1651087716370394.0,3
1654,4.0,4.0,-15.0,-17.0,-2.0,-1.0,0.0,-12.0,1651087716371238.0,3
1655,-4.0,-9.0,-7.0,-3.0,-7.0,-3.0,-7.0,-25.0,1651087716371238.0,3
1656,-14.0,-6.0,11.0,23.0,11.0,0.0,4.0,1.0,1651087716393222.0,3
1657,-6.0,-3.0,-44.0,-45.0,-3.0,1.0,2.0,-15.0,1651087716393222.0,3
1658,0.0,-1.0,-24.0,0.0,6.0,-2.0,1.0,6.0,1651087716394223.0,3
1659,16.0,11.0,-24.0,-12.0,-5.0,2.0,0.0,19.0,1651087716394223.0,3
1660,-7.0,-6.0,-12.0,-13.0,-6.0,-9.0,-9.0,-29.0,1651087716408282.0,3
1661,3.0,6.0,64.0,-3.0,-8.0,0.0,-4.0,-8.0,1651087716408282.0,3
1662,3.0,4.0,-10.0,11.0,-1.0,-12.0,-15.0,-6.0,1651087716408282.0,3
1663,-6.0,-8.0,-6.0,9.0,3.0,3.0,7.0,-2.0,1651087716408282.0,3
1664,6.0,1.0,8.0,4.0,-1.0,0.0,-11.0,10.0,1651087716430408.0,3
1665,11.0,8.0,29.0,-16.0,1.0,9.0,20.0,12.0,1651087716430408.0,3
1666,-5.0,-2.0,19.0,5.0,-3.0,-4.0,-1.0,3.0,1651087716431249.0,3
1667,7.0,-6.0,-34.0,-24.0,0.0,1.0,1.0,-2.0,1651087716431249.0,3
1668,-12.0,4.0,4.0,43.0,-1.0,-6.0,-4.0,1.0,1651087716452357.0,3
1669,13.0,10.0,-10.0,-16.0,0.0,1.0,-2.0,-10.0,1651087716452357.0,3
1670,8.0,-2.0,1.0,16.0,-1.0,0.0,-6.0,6.0,1651087716454230.0,3
1671,-9.0,-1.0,1.0,1.0,3.0,3.0,10.0,16.0,1651087716454230.0,3
1672,1.0,3.0,1.0,-14.0,-1.0,-4.0,0.0,5.0,1651087716467674.0,3
1673,-3.0,-4.0,3.0,-8.0,-12.0,-14.0,-16.0,-15.0,1651087716467674.0,3
1674,4.0,6.0,-7.0,-1.0,13.0,7.0,5.0,16.0,1651087716468516.0,3
1675,-9.0,-4.0,7.0,38.0,3.0,-1.0,0.0,5.0,1651087716468516.0,3
1676,15.0,-6.0,-38.0,-41.0,-14.0,-2.0,1.0,23.0,1651087716489786.0,3
1677,-14.0,-6.0,13.0,36.0,7.0,1.0,3.0,-6.0,1651087716489786.0,3
1678,2.0,2.0,3.0,-25.0,1.0,1.0,0.0,2.0,1651087716491687.0,3
1679,1.0,11.0,19.0,8.0,2.0,3.0,2.0,-23.0,1651087716491687.0,3
1680,10.0,-2.0,37.0,15.0,-7.0,-7.0,-2.0,0.0,1651087716512854.0,3
1681,-4.0,-6.0,-90.0,-22.0,5.0,-12.0,-13.0,2.0,1651087716512854.0,3
1682,-7.0,-13.0,-15.0,-23.0,-7.0,13.0,7.0,-12.0,1651087716514093.0,3
1683,-10.0,5.0,39.0,23.0,-3.0,-2.0,-2.0,4.0,1651087716514093.0,3
1684,7.0,-6.0,-29.0,6.0,-1.0,7.0,7.0,-7.0,1651087716527562.0,3
1685,9.0,1.0,3.0,-18.0,-3.0,-5.0,-8.0,-7.0,1651087716527562.0,3
1686,-2.0,5.0,15.0,45.0,5.0,-4.0,2.0,8.0,1651087716534702.0,3
1687,5.0,-8.0,-34.0,-56.0,-1.0,1.0,0.0,4.0,1651087716534702.0,3
1688,-1.0,6.0,41.0,15.0,-1.0,-2.0,0.0,17.0,1651087716549934.0,3
1689,-6.0,3.0,29.0,26.0,0.0,6.0,-2.0,-3.0,1651087716549934.0,3
1690,8.0,-1.0,-49.0,-12.0,2.0,-2.0,-2.0,4.0,1651087716550966.0,3
1691,1.0,-6.0,4.0,1.0,-3.0,3.0,6.0,18.0,1651087716550966.0,3
1692,-7.0,-4.0,-29.0,-35.0,-9.0,-3.0,-7.0,-19.0,1651087716572417.0,3
1693,1.0,3.0,48.0,26.0,12.0,0.0,4.0,9.0,1651087716572417.0,3
1694,9.0,1.0,-12.0,-38.0,-20.0,-6.0,-2.0,-7.0,1651087716574092.0,3
1695,-7.0,-2.0,-4.0,12.0,3.0,-6.0,-17.0,-9.0,1651087716574092.0,3
1696,2.0,-11.0,-14.0,-19.0,-5.0,3.0,12.0,24.0,1651087716586817.0,3
1697,-6.0,9.0,18.0,33.0,5.0,8.0,0.0,-5.0,1651087716586817.0,3
1698,12.0,-6.0,-55.0,-39.0,-5.0,-1.0,5.0,-12.0,1651087716593956.0,3
1699,-19.0,-6.0,-9.0,6.0,5.0,7.0,0.0,-26.0,1651087716593956.0,3
1700,8.0,12.0,11.0,-2.0,-2.0,-6.0,-14.0,-5.0,1651087716610533.0,3
1701,2.0,-12.0,-3.0,0.0,-2.0,6.0,7.0,-4.0,1651087716610533.0,3
1702,-13.0,-1.0,9.0,-10.0,3.0,-5.0,-9.0,15.0,1651087716611121.0,3
1703,-4.0,-3.0,-13.0,7.0,-3.0,-1.0,5.0,-2.0,1651087716611121.0,3
1704,-11.0,-10.0,-17.0,-5.0,-1.0,-3.0,-5.0,-11.0,1651087716632231.0,3
1705,4.0,2.0,-10.0,-14.0,-6.0,2.0,0.0,9.0,1651087716632231.0,3
1706,-2.0,7.0,44.0,32.0,1.0,-2.0,5.0,19.0,1651087716634249.0,3
1707,2.0,4.0,21.0,12.0,6.0,-4.0,-17.0,-13.0,1651087716634249.0,3
1708,-15.0,-25.0,-86.0,-41.0,-6.0,-2.0,6.0,-9.0,1651087716647184.0,3
1709,9.0,-2.0,-13.0,-28.0,-2.0,-3.0,1.0,5.0,1651087716647184.0,3
1710,-7.0,-4.0,36.0,24.0,-2.0,-2.0,2.0,4.0,1651087716653226.0,3
1711,5.0,8.0,18.0,2.0,-3.0,-4.0,-3.0,-2.0,1651087716653226.0,3
1712,-6.0,6.0,13.0,12.0,4.0,2.0,0.0,0.0,1651087716670389.0,3
1713,3.0,-5.0,-23.0,-13.0,-2.0,1.0,7.0,7.0,1651087716670389.0,3
1714,-7.0,11.0,39.0,9.0,-1.0,1.0,-9.0,-21.0,1651087716671231.0,3
1715,5.0,-1.0,-6.0,2.0,-1.0,3.0,17.0,5.0,1651087716671231.0,3
1716,-1.0,5.0,59.0,37.0,13.0,3.0,-9.0,-16.0,1651087716693220.0,3
1717,-13.0,-15.0,-74.0,-60.0,-14.0,-6.0,-2.0,15.0,1651087716693220.0,3
1718,-5.0,4.0,22.0,3.0,5.0,1.0,1.0,-10.0,1651087716694222.0,3
1719,-7.0,2.0,-28.0,-4.0,-7.0,-4.0,0.0,12.0,1651087716694222.0,3
1720,2.0,6.0,21.0,1.0,5.0,9.0,7.0,0.0,1651087716707392.0,3
1721,-1.0,0.0,-12.0,-5.0,-5.0,-2.0,-4.0,1.0,1651087716707392.0,3
1722,-3.0,-13.0,-14.0,-8.0,-1.0,-2.0,-6.0,-3.0,1651087716714341.0,3
1723,0.0,2.0,6.0,0.0,2.0,-4.0,-1.0,16.0,1651087716714341.0,3
1724,8.0,-5.0,-41.0,-13.0,-3.0,4.0,5.0,-12.0,1651087716730557.0,3
1725,-16.0,8.0,116.0,71.0,9.0,-2.0,-5.0,-17.0,1651087716730557.0,3
1726,1.0,-21.0,-88.0,-40.0,-11.0,-5.0,1.0,3.0,1651087716731358.0,3
1727,11.0,-5.0,20.0,-13.0,-6.0,-2.0,-5.0,1.0,1651087716731358.0,3
1728,3.0,19.0,10.0,19.0,1.0,-5.0,-2.0,12.0,1651087716753223.0,3
1729,12.0,1.0,5.0,-7.0,2.0,-2.0,-3.0,-5.0,1651087716753223.0,3
1730,4.0,-2.0,-10.0,21.0,2.0,-1.0,1.0,2.0,1651087716754255.0,3
1731,1.0,2.0,8.0,14.0,9.0,3.0,-2.0,-4.0,1651087716754255.0,3
1732,1.0,-2.0,-8.0,-30.0,-5.0,3.0,10.0,4.0,1651087716766986.0,3
1733,5.0,5.0,-27.0,-1.0,-4.0,4.0,2.0,-2.0,1651087716766986.0,3
1734,-10.0,5.0,14.0,-11.0,-3.0,-2.0,-1.0,6.0,1651087716774361.0,3
1735,8.0,-17.0,-55.0,-21.0,-5.0,-2.0,2.0,5.0,1651087716774361.0,3
1736,-1.0,2.0,42.0,21.0,-4.0,-1.0,-6.0,-3.0,1651087716790288.0,3
1737,1.0,2.0,6.0,-13.0,3.0,-3.0,5.0,-11.0,1651087716790288.0,3
1738,3.0,2.0,27.0,33.0,8.0,7.0,-2.0,-19.0,1651087716791239.0,3
1739,-20.0,-4.0,-43.0,-41.0,-15.0,-10.0,-9.0,-10.0,1651087716791239.0,3
1740,7.0,-4.0,33.0,4.0,3.0,0.0,4.0,7.0,1651087716820055.0,3
1741,-7.0,-6.0,21.0,23.0,3.0,-1.0,0.0,5.0,1651087716820055.0,3
1742,9.0,6.0,-13.0,-1.0,3.0,3.0,2.0,-10.0,1651087716820924.0,3
1743,-5.0,4.0,9.0,-7.0,-4.0,0.0,2.0,-2.0,1651087716820924.0,3
1744,2.0,10.0,5.0,17.0,13.0,13.0,12.0,5.0,1651087716826931.0,3
1745,6.0,-1.0,-17.0,-14.0,-9.0,-12.0,-10.0,9.0,1651087716826931.0,3
1746,9.0,11.0,8.0,-1.0,-2.0,-1.0,3.0,9.0,1651087716833382.0,3
1747,2.0,-22.0,-24.0,-8.0,1.0,-1.0,-4.0,-1.0,1651087716833382.0,3
1748,0.0,1.0,11.0,4.0,-7.0,-2.0,0.0,2.0,1651087716849851.0,3
1749,-5.0,-1.0,-1.0,32.0,31.0,10.0,4.0,-3.0,1651087716849851.0,3
1750,-5.0,-1.0,37.0,0.0,-8.0,-1.0,2.0,-2.0,1651087716851749.0,3
1751,1.0,9.0,-8.0,17.0,5.0,-2.0,2.0,6.0,1651087716851749.0,3
1752,0.0,-1.0,-36.0,-36.0,-5.0,-7.0,-5.0,4.0,1651087716871960.0,3
1753,1.0,-6.0,-6.0,-4.0,-8.0,1.0,-2.0,0.0,1651087716871960.0,3
1754,-10.0,-9.0,18.0,9.0,3.0,4.0,1.0,-4.0,1651087716873988.0,3
1755,-13.0,0.0,-7.0,-22.0,0.0,-3.0,-5.0,-6.0,1651087716873988.0,3
1756,-5.0,-3.0,23.0,39.0,-3.0,-3.0,-3.0,-5.0,1651087716886086.0,3
1757,12.0,11.0,-8.0,0.0,-4.0,2.0,5.0,20.0,1651087716886086.0,3
1758,-7.0,-4.0,-26.0,-8.0,-2.0,-4.0,-3.0,1.0,1651087716912456.0,3
1759,12.0,5.0,16.0,18.0,2.0,3.0,3.0,-1.0,1651087716912456.0,3
1760,-1.0,1.0,2.0,0.0,2.0,-4.0,-4.0,-2.0,1651087716912456.0,3
1761,-4.0,-4.0,-16.0,-4.0,-2.0,2.0,3.0,4.0,1651087716912456.0,3
1762,3.0,-4.0,-8.0,-10.0,-2.0,0.0,2.0,1.0,1651087716915447.0,3
1763,1.0,3.0,24.0,8.0,-1.0,2.0,2.0,-3.0,1651087716915447.0,3
1764,1.0,-1.0,-8.0,4.0,1.0,-3.0,-2.0,4.0,1651087716932628.0,3
1765,-3.0,-3.0,-1.0,-5.0,-5.0,-1.0,-2.0,-2.0,1651087716932628.0,3
1766,0.0,3.0,7.0,-1.0,-3.0,-3.0,-3.0,4.0,1651087716933626.0,3
1767,3.0,2.0,7.0,4.0,-3.0,-5.0,-3.0,-12.0,1651087716933626.0,3
1768,-4.0,-4.0,-15.0,-2.0,4.0,4.0,1.0,-2.0,1651087716946387.0,3
1769,-3.0,-1.0,9.0,-14.0,-4.0,-1.0,-2.0,-5.0,1651087716946387.0,3
1770,0.0,1.0,-5.0,2.0,3.0,-3.0,1.0,0.0,1651087716955229.0,3
1771,2.0,0.0,-3.0,4.0,-7.0,-3.0,-1.0,4.0,1651087716955229.0,3
1772,-1.0,-8.0,-10.0,-16.0,3.0,0.0,-1.0,-2.0,1651087716970343.0,3
1773,0.0,5.0,1.0,-2.0,-8.0,-3.0,-2.0,-6.0,1651087716970343.0,3
1774,3.0,0.0,-5.0,-3.0,-2.0,-4.0,-2.0,5.0,1651087716971240.0,3
1775,1.0,1.0,12.0,12.0,3.0,2.0,-1.0,3.0,1651087716971240.0,3
1776,-1.0,-2.0,-5.0,-5.0,3.0,-2.0,-3.0,-2.0,1651087716999866.0,3
1777,-4.0,0.0,-3.0,3.0,-5.0,-3.0,-5.0,-3.0,1651087716999866.0,3
1778,0.0,0.0,0.0,-11.0,-2.0,1.0,1.0,0.0,1651087717001740.0,3
1779,2.0,10.0,7.0,1.0,2.0,1.0,-1.0,2.0,1651087717001740.0,3
1780,-2.0,-14.0,-11.0,1.0,-3.0,-3.0,-1.0,-2.0,1651087717005760.0,3
1781,-2.0,-2.0,-2.0,-7.0,-1.0,-2.0,0.0,-1.0,1651087717005760.0,3
1782,1.0,0.0,-4.0,-4.0,-5.0,-2.0,-2.0,-3.0,1651087717014737.0,3
1783,0.0,2.0,4.0,3.0,2.0,0.0,0.0,0.0,1651087717014737.0,3
1784,0.0,5.0,4.0,5.0,3.0,0.0,1.0,1.0,1651087717029666.0,3
1785,0.0,-4.0,-5.0,-12.0,0.0,-2.0,-1.0,-3.0,1651087717029666.0,3
1786,0.0,-1.0,-2.0,-2.0,-6.0,-3.0,-1.0,-1.0,1651087717031660.0,3
1787,1.0,-4.0,-3.0,-2.0,0.0,0.0,1.0,1.0,1651087717031660.0,3
1788,-1.0,1.0,4.0,-5.0,-1.0,0.0,1.0,0.0,1651087717052602.0,3
1789,1.0,-4.0,-9.0,4.0,-5.0,-5.0,-4.0,-2.0,1651087717052602.0,3
1790,-1.0,0.0,3.0,7.0,4.0,2.0,3.0,1.0,1651087717053599.0,3
1791,1.0,-3.0,7.0,-6.0,-3.0,7.0,1.0,1.0,1651087717053599.0,3
1792,0.0,2.0,-1.0,0.0,4.0,-1.0,0.0,-2.0,1651087717065568.0,3
1793,-1.0,0.0,-2.0,-5.0,-4.0,-2.0,-1.0,-1.0,1651087717065568.0,3
1794,0.0,-3.0,-5.0,1.0,-3.0,-2.0,0.0,1.0,1651087717074543.0,3
1795,-1.0,2.0,7.0,8.0,4.0,-2.0,0.0,-1.0,1651087717074543.0,3
1796,-1.0,-2.0,-7.0,-10.0,-5.0,-3.0,-2.0,0.0,1651087717088506.0,3
1797,-1.0,-1.0,5.0,5.0,3.0,2.0,0.0,-1.0,1651087717088506.0,3
1798,-1.0,-2.0,0.0,5.0,3.0,0.0,-1.0,0.0,1651087717095488.0,3
1799,0.0,-3.0,-2.0,3.0,-2.0,0.0,1.0,1.0,1651087717095488.0,3
1800,-1.0,1.0,4.0,-3.0,0.0,0.0,-1.0,-1.0,1651087717113221.0,3
1801,1.0,0.0,-2.0,-7.0,-6.0,-2.0,0.0,-1.0,1651087717113221.0,3
1802,1.0,-1.0,1.0,3.0,1.0,-2.0,-1.0,-1.0,1651087717114221.0,3
1803,-2.0,0.0,4.0,5.0,5.0,1.0,2.0,-2.0,1651087717114221.0,3
1804,0.0,-1.0,-4.0,-8.0,-5.0,-2.0,-1.0,0.0,1651087717126189.0,3
1805,0.0,-3.0,1.0,15.0,6.0,2.0,0.0,-1.0,1651087717126189.0,3
1806,-1.0,1.0,-4.0,-15.0,-6.0,0.0,-2.0,0.0,1651087717134526.0,3
1807,0.0,0.0,2.0,0.0,-2.0,-2.0,-2.0,0.0,1651087717134526.0,3
1808,0.0,0.0,-3.0,2.0,-1.0,-1.0,-1.0,-1.0,1651087717150206.0,3
1809,-2.0,0.0,-2.0,-3.0,2.0,2.0,0.0,1.0,1651087717150206.0,3
1810,-1.0,1.0,-2.0,2.0,-1.0,0.0,-1.0,-3.0,1651087717156321.0,3
1811,0.0,-2.0,0.0,2.0,-1.0,-1.0,-1.0,0.0,1651087717156321.0,3
1812,-1.0,-1.0,-3.0,-3.0,-4.0,-1.0,0.0,0.0,1651087717171242.0,3
1813,-1.0,2.0,1.0,0.0,1.0,-2.0,0.0,-2.0,1651087717171242.0,3
1814,-1.0,0.0,2.0,2.0,1.0,-1.0,-1.0,1.0,1651087717180245.0,3
1815,0.0,0.0,0.0,-3.0,0.0,0.0,-1.0,0.0,1651087717180245.0,3
1816,-1.0,0.0,-1.0,1.0,-1.0,-3.0,0.0,-2.0,1651087717186385.0,3
1817,0.0,-1.0,-1.0,0.0,0.0,0.0,0.0,0.0,1651087717186385.0,3
1818,1.0,0.0,-1.0,2.0,-1.0,0.0,2.0,-1.0,1651087717195388.0,3
1819,1.0,-2.0,0.0,-2.0,2.0,0.0,-1.0,0.0,1651087717195388.0,3
1820,1.0,-1.0,-1.0,-2.0,-3.0,-2.0,-2.0,0.0,1651087717209693.0,3
1821,-2.0,-2.0,1.0,1.0,0.0,0.0,1.0,-1.0,1651087717209693.0,3
1822,0.0,-1.0,-3.0,-2.0,0.0,-2.0,-3.0,1.0,1651087717215534.0,3
1823,0.0,-1.0,-1.0,0.0,-3.0,-2.0,-1.0,0.0,1651087717215534.0,3
1824,0.0,1.0,-1.0,1.0,0.0,0.0,-2.0,-2.0,1651087717232244.0,3
1825,-1.0,1.0,0.0,0.0,0.0,2.0,0.0,0.0,1651087717232244.0,3
1826,0.0,-3.0,-3.0,1.0,1.0,1.0,0.0,-2.0,1651087717234273.0,3
1827,1.0,1.0,2.0,3.0,0.0,0.0,-1.0,1.0,1651087717234273.0,3
1828,-2.0,-7.0,1.0,-5.0,-5.0,-2.0,-2.0,-2.0,1651087717246530.0,3
1829,1.0,2.0,2.0,-2.0,-3.0,-2.0,0.0,-3.0,1651087717246530.0,3
1830,-2.0,-3.0,-14.0,1.0,3.0,3.0,-1.0,-1.0,1651087717255375.0,3
1831,-1.0,1.0,1.0,1.0,-1.0,-1.0,-1.0,-3.0,1651087717255375.0,3
1832,-1.0,1.0,-2.0,3.0,1.0,1.0,0.0,0.0,1651087717270377.0,3
1833,2.0,-2.0,0.0,-1.0,-1.0,-2.0,0.0,2.0,1651087717270377.0,3
1834,-1.0,-1.0,2.0,2.0,2.0,0.0,1.0,1.0,1651087717271242.0,3
1835,-1.0,-3.0,-1.0,-2.0,0.0,1.0,-2.0,1.0,1651087717271242.0,3
1836,0.0,2.0,2.0,1.0,2.0,0.0,1.0,-2.0,1651087717292354.0,3
1837,-2.0,-1.0,0.0,-3.0,0.0,0.0,-2.0,-1.0,1651087717292354.0,3
1838,0.0,4.0,0.0,-1.0,-4.0,-2.0,-2.0,0.0,1651087717294225.0,3
1839,-1.0,-3.0,-1.0,-7.0,-10.0,-4.0,-1.0,0.0,1651087717294225.0,3
1840,-1.0,-2.0,1.0,5.0,9.0,1.0,0.0,0.0,1651087717314389.0,3
1841,0.0,0.0,-3.0,0.0,-2.0,-1.0,0.0,1.0,1651087717314389.0,3
1842,0.0,-3.0,1.0,4.0,1.0,3.0,2.0,1.0,1651087717316228.0,3
1843,0.0,-1.0,0.0,-1.0,-2.0,-3.0,1.0,0.0,1651087717316228.0,3
1844,-1.0,1.0,-1.0,-6.0,-10.0,-3.0,-3.0,0.0,1651087717329242.0,3
1845,0.0,0.0,-1.0,-1.0,-2.0,-3.0,-2.0,-2.0,1651087717329242.0,3
1846,0.0,-2.0,4.0,3.0,5.0,2.0,0.0,0.0,1651087717344317.0,3
1847,-2.0,0.0,-2.0,-5.0,-4.0,-2.0,-1.0,-3.0,1651087717344317.0,3
1848,-1.0,-1.0,-11.0,-6.0,1.0,1.0,1.0,-1.0,1651087717353210.0,3
1849,0.0,0.0,-4.0,0.0,3.0,1.0,-2.0,-1.0,1651087717353210.0,3
1850,-1.0,1.0,16.0,10.0,-1.0,-1.0,1.0,-1.0,1651087717354210.0,3
1851,-1.0,-2.0,-3.0,-2.0,-1.0,-3.0,0.0,-1.0,1651087717354210.0,0
1852,-2.0,1.0,-2.0,-4.0,-1.0,-1.0,-1.0,0.0,1651087717375357.0,0
1853,1.0,-1.0,-4.0,-1.0,-1.0,1.0,0.0,0.0,1651087717375357.0,0
1854,0.0,-1.0,-4.0,-4.0,-2.0,-2.0,-1.0,0.0,1651087717376212.0,0
1855,0.0,1.0,2.0,5.0,2.0,0.0,-1.0,1.0,1651087717376212.0,0
1856,0.0,1.0,4.0,3.0,0.0,-1.0,-1.0,0.0,1651087717390168.0,0
1857,-1.0,-1.0,-1.0,-4.0,0.0,1.0,0.0,-1.0,1651087717390168.0,0
1858,0.0,3.0,7.0,3.0,-1.0,-1.0,-2.0,0.0,1651087717391168.0,0
1859,0.0,-2.0,-4.0,0.0,3.0,2.0,1.0,1.0,1651087717391168.0,0
1860,1.0,0.0,-6.0,-15.0,-7.0,-2.0,0.0,0.0,1651087717412458.0,0
1861,-1.0,0.0,1.0,1.0,0.0,0.0,1.0,0.0,1651087717412458.0,0
1862,-2.0,0.0,-4.0,-5.0,-1.0,-1.0,-1.0,-1.0,1651087717419430.0,0
1863,-2.0,1.0,6.0,4.0,2.0,0.0,0.0,-2.0,1651087717419430.0,0
1864,-1.0,-1.0,3.0,6.0,-1.0,-2.0,0.0,0.0,1651087717435379.0,0
1865,-3.0,-2.0,-2.0,1.0,4.0,4.0,2.0,-1.0,1651087717435379.0,0
1866,1.0,-1.0,-1.0,-3.0,0.0,-3.0,-1.0,0.0,1651087717436221.0,0
1867,-1.0,0.0,-4.0,-1.0,1.0,-3.0,0.0,-2.0,1651087717436221.0,0
1868,-1.0,-3.0,-2.0,1.0,0.0,0.0,0.0,-1.0,1651087717457569.0,0
1869,2.0,1.0,3.0,0.0,-3.0,-2.0,-1.0,-1.0,1651087717457569.0,0
1870,0.0,-1.0,-7.0,-1.0,0.0,-1.0,0.0,-1.0,1651087717458569.0,0
1871,0.0,-3.0,0.0,-2.0,-1.0,1.0,0.0,-1.0,1651087717458569.0,0
1872,-1.0,0.0,0.0,-1.0,-4.0,-1.0,1.0,-1.0,1651087717472570.0,0
1873,1.0,0.0,2.0,0.0,1.0,-1.0,-3.0,0.0,1651087717472570.0,0
1874,-1.0,0.0,-2.0,0.0,0.0,0.0,1.0,0.0,1651087717473423.0,0
1875,0.0,1.0,-3.0,-1.0,-2.0,-2.0,2.0,1.0,1651087717473423.0,0
1876,0.0,-1.0,3.0,2.0,2.0,0.0,0.0,-2.0,1651087717494938.0,0
1877,-1.0,0.0,-2.0,-1.0,-1.0,0.0,-1.0,0.0,1651087717494938.0,0
1878,1.0,-1.0,-4.0,-3.0,-2.0,0.0,-3.0,-1.0,1651087717495802.0,0
1879,-1.0,1.0,1.0,1.0,2.0,4.0,0.0,0.0,1651087717495802.0,0
1880,0.0,1.0,1.0,4.0,1.0,-1.0,0.0,0.0,1651087717508944.0,0
1881,2.0,1.0,-1.0,-2.0,-4.0,-5.0,-1.0,0.0,1651087717508944.0,0
1882,-1.0,0.0,-2.0,-3.0,0.0,-2.0,0.0,1.0,1651087717517090.0,0
1883,-1.0,-1.0,-1.0,-1.0,1.0,1.0,0.0,-1.0,1651087717517090.0,0
1884,-1.0,-3.0,0.0,5.0,3.0,2.0,-1.0,1.0,1651087717532259.0,0
1885,-2.0,-1.0,-2.0,-2.0,-2.0,-2.0,-1.0,-1.0,1651087717532259.0,0
1886,0.0,-1.0,0.0,-1.0,-2.0,-1.0,-1.0,0.0,1651087717534253.0,0
1887,0.0,0.0,-1.0,-3.0,-4.0,-2.0,0.0,0.0,1651087717534253.0,0
1888,1.0,1.0,-1.0,2.0,2.0,2.0,0.0,-1.0,1651087717554405.0,0
1889,-1.0,-4.0,0.0,1.0,0.0,-1.0,0.0,-1.0,1651087717554405.0,0
1890,-2.0,-1.0,-2.0,-2.0,-3.0,-2.0,-1.0,-2.0,1651087717556230.0,0
1891,-1.0,-3.0,-1.0,0.0,0.0,1.0,-2.0,-1.0,1651087717556230.0,0
1892,0.0,3.0,0.0,-2.0,-3.0,-1.0,-2.0,-1.0,1651087717569112.0,0
1893,-2.0,-3.0,-1.0,-1.0,0.0,0.0,-1.0,0.0,1651087717569112.0,0
1894,-1.0,1.0,-1.0,-1.0,-2.0,-1.0,0.0,-1.0,1651087717577247.0,0
1895,2.0,-1.0,-1.0,-1.0,-2.0,-1.0,-3.0,1.0,1651087717577247.0,0
1896,-2.0,-2.0,0.0,1.0,0.0,1.0,0.0,0.0,1651087717593229.0,0
1897,-1.0,-1.0,-1.0,1.0,2.0,3.0,0.0,0.0,1651087717593229.0,0
1898,-1.0,-1.0,-1.0,-1.0,-1.0,0.0,0.0,0.0,1651087717593229.0,0
1899,1.0,-1.0,-3.0,0.0,-1.0,-2.0,-3.0,1.0,1651087717593229.0,0
1900,-1.0,-1.0,0.0,0.0,-5.0,-2.0,-1.0,-1.0,1651087717614392.0,0
1901,1.0,0.0,1.0,1.0,1.0,-1.0,0.0,-1.0,1651087717614392.0,0
