,EMG_s0,EMG_s1,EMG_s2,EMG_s3,EMG_s4,EMG_s5,EMG_s6,EMG_s7,timestamp,signal
0,0.0,1.0,1.0,0.0,5.0,6.0,3.0,1.0,1650917172570825.0,0
1,-3.0,-2.0,-2.0,0.0,7.0,4.0,0.0,1.0,1650917172570825.0,0
2,-1.0,-1.0,-2.0,0.0,0.0,-5.0,-5.0,-4.0,1650917172570825.0,0
3,1.0,-1.0,-1.0,-3.0,-5.0,0.0,-2.0,-4.0,1650917172570825.0,0
4,-2.0,-1.0,0.0,2.0,-7.0,-11.0,0.0,-2.0,1650917172592974.0,0
5,2.0,-1.0,2.0,2.0,2.0,-2.0,1.0,-1.0,1650917172592974.0,0
6,0.0,1.0,4.0,4.0,11.0,7.0,0.0,0.0,1650917172592974.0,0
7,-1.0,1.0,1.0,1.0,2.0,3.0,-2.0,0.0,1650917172592974.0,0
8,-2.0,0.0,2.0,1.0,-12.0,-10.0,-5.0,-1.0,1650917172607762.0,0
9,-1.0,-1.0,-7.0,-9.0,-4.0,-5.0,1.0,-1.0,1650917172607762.0,0
10,1.0,-2.0,-5.0,-2.0,0.0,-14.0,-4.0,2.0,1650917172607762.0,0
11,2.0,-1.0,-1.0,-1.0,2.0,22.0,4.0,0.0,1650917172607762.0,0
12,0.0,1.0,8.0,5.0,8.0,9.0,4.0,0.0,1650917172629102.0,0
13,-1.0,-1.0,0.0,2.0,-1.0,-1.0,-2.0,-2.0,1650917172629102.0,0
14,-1.0,-2.0,-2.0,-3.0,-4.0,-4.0,-2.0,0.0,1650917172630062.0,0
15,-1.0,0.0,1.0,2.0,7.0,-7.0,1.0,2.0,1650917172630062.0,0
16,1.0,0.0,2.0,1.0,-8.0,-7.0,-4.0,-1.0,1650917172652578.0,0
17,-1.0,-4.0,-12.0,-10.0,-7.0,-5.0,-1.0,-1.0,1650917172652578.0,0
18,-1.0,1.0,-1.0,-2.0,1.0,4.0,0.0,-2.0,1650917172653412.0,0
19,-1.0,-1.0,-2.0,2.0,1.0,5.0,1.0,-1.0,1650917172653412.0,0
20,0.0,-2.0,-7.0,-8.0,5.0,8.0,4.0,2.0,1650917172667273.0,0
21,2.0,2.0,2.0,3.0,0.0,-2.0,0.0,0.0,1650917172667273.0,0
22,1.0,0.0,-3.0,-4.0,-9.0,-8.0,-1.0,-1.0,1650917172667273.0,0
23,-1.0,0.0,6.0,6.0,-5.0,-5.0,-3.0,-2.0,1650917172667273.0,0
24,1.0,-1.0,1.0,-1.0,4.0,-3.0,-2.0,0.0,1650917172689146.0,0
25,-2.0,-2.0,-8.0,-7.0,4.0,-1.0,1.0,1.0,1650917172689146.0,0
26,1.0,-1.0,1.0,4.0,2.0,5.0,-1.0,0.0,1650917172690143.0,0
27,-1.0,0.0,-4.0,-8.0,-13.0,-24.0,-5.0,-3.0,1650917172690143.0,0
28,-2.0,1.0,6.0,7.0,3.0,17.0,8.0,2.0,1650917172713406.0,0
29,0.0,-2.0,-2.0,-1.0,-1.0,13.0,8.0,1.0,1650917172713406.0,0
30,-3.0,-1.0,5.0,5.0,6.0,0.0,-3.0,-1.0,1650917172713406.0,0
31,0.0,1.0,-2.0,-1.0,-2.0,-3.0,-2.0,2.0,1650917172713406.0,0
32,-1.0,-1.0,-9.0,-3.0,1.0,-11.0,-8.0,-1.0,1650917172726298.0,0
33,-2.0,1.0,8.0,5.0,5.0,1.0,-1.0,1.0,1650917172726298.0,0
34,0.0,0.0,-3.0,0.0,-4.0,5.0,1.0,0.0,1650917172727202.0,0
35,-1.0,-3.0,-4.0,-9.0,-5.0,-4.0,-1.0,-1.0,1650917172727202.0,0
36,0.0,-3.0,-3.0,-4.0,-4.0,-6.0,-2.0,-2.0,1650917172749536.0,0
37,0.0,2.0,3.0,5.0,3.0,5.0,2.0,0.0,1650917172749536.0,0
38,-1.0,0.0,-6.0,-6.0,1.0,-1.0,0.0,-1.0,1650917172749536.0,0
39,1.0,2.0,0.0,-1.0,3.0,2.0,1.0,1.0,1650917172749536.0,0
40,1.0,0.0,1.0,-3.0,-4.0,0.0,0.0,0.0,1650917172772535.0,0
41,0.0,0.0,0.0,0.0,-6.0,-8.0,-1.0,0.0,1650917172772535.0,0
42,0.0,-1.0,1.0,0.0,2.0,4.0,-2.0,-2.0,1650917172773508.0,0
43,-2.0,-2.0,0.0,2.0,-3.0,1.0,-4.0,-2.0,1650917172773508.0,0
44,-2.0,2.0,3.0,3.0,-2.0,-16.0,4.0,0.0,1650917172786833.0,0
45,-2.0,-3.0,-3.0,-5.0,-8.0,-1.0,-5.0,-2.0,1650917172786833.0,0
46,-1.0,1.0,-1.0,-2.0,-1.0,8.0,3.0,1.0,1650917172787665.0,0
47,0.0,0.0,0.0,0.0,7.0,14.0,3.0,0.0,1650917172787665.0,0
48,5.0,-1.0,-3.0,-1.0,5.0,1.0,-3.0,-2.0,1650917172809598.0,0
49,-4.0,1.0,4.0,8.0,1.0,-7.0,5.0,2.0,1650917172809598.0,0
50,-3.0,-1.0,-1.0,-5.0,-7.0,-8.0,-5.0,-4.0,1650917172809598.0,0
51,0.0,0.0,-4.0,-3.0,-3.0,-3.0,-3.0,-2.0,1650917172809598.0,0
52,-1.0,-2.0,-2.0,-2.0,-2.0,3.0,0.0,0.0,1650917172833077.0,0
53,1.0,1.0,-1.0,2.0,4.0,1.0,0.0,1.0,1650917172833077.0,0
54,-2.0,-3.0,-2.0,-1.0,0.0,-2.0,-4.0,-1.0,1650917172833077.0,0
55,0.0,1.0,0.0,-1.0,-4.0,-5.0,2.0,0.0,1650917172833077.0,0
56,-1.0,-1.0,2.0,0.0,8.0,15.0,1.0,0.0,1650917172847085.0,0
57,2.0,0.0,4.0,4.0,2.0,8.0,1.0,-1.0,1650917172847085.0,0
58,0.0,-1.0,1.0,3.0,-1.0,-1.0,2.0,1.0,1650917172847085.0,0
59,-1.0,-1.0,1.0,1.0,-4.0,-9.0,-3.0,-1.0,1650917172847085.0,0
60,0.0,-2.0,-1.0,0.0,-6.0,-5.0,-2.0,0.0,1650917172870016.0,0
61,0.0,-3.0,-10.0,-10.0,-7.0,-16.0,-5.0,-3.0,1650917172870016.0,0
62,0.0,0.0,2.0,0.0,-5.0,6.0,-2.0,0.0,1650917172870369.0,0
63,-1.0,-1.0,-2.0,-4.0,0.0,1.0,0.0,-1.0,1650917172870369.0,0
64,-1.0,0.0,2.0,3.0,5.0,7.0,1.0,0.0,1650917172892906.0,0
65,0.0,1.0,11.0,12.0,10.0,5.0,2.0,1.0,1650917172892906.0,0
66,0.0,0.0,-4.0,-5.0,-7.0,-13.0,-2.0,0.0,1650917172892906.0,0
67,-1.0,0.0,-3.0,1.0,2.0,8.0,5.0,-2.0,1650917172892906.0,0
68,-1.0,-1.0,0.0,2.0,2.0,-1.0,-2.0,-1.0,1650917172906972.0,0
69,0.0,-1.0,-5.0,-7.0,-4.0,-3.0,-6.0,-1.0,1650917172906972.0,0
70,-1.0,0.0,-5.0,-4.0,-8.0,-6.0,4.0,2.0,1650917172907935.0,0
71,1.0,0.0,4.0,3.0,9.0,9.0,0.0,0.0,1650917172907935.0,0
72,1.0,1.0,-2.0,-1.0,4.0,2.0,2.0,-1.0,1650917172929822.0,0
73,2.0,0.0,-2.0,-5.0,-3.0,3.0,1.0,-1.0,1650917172929822.0,0
74,-2.0,1.0,6.0,10.0,-1.0,-4.0,-1.0,1.0,1650917172929822.0,0
75,-1.0,-3.0,-4.0,-8.0,-2.0,-6.0,-7.0,-2.0,1650917172929822.0,0
76,1.0,0.0,-2.0,-2.0,-6.0,-15.0,8.0,1.0,1650917172952287.0,0
77,-1.0,1.0,4.0,2.0,2.0,14.0,0.0,0.0,1650917172952287.0,0
78,0.0,-3.0,-11.0,-13.0,0.0,7.0,0.0,-1.0,1650917172953122.0,0
79,-2.0,-2.0,2.0,2.0,1.0,0.0,-1.0,1.0,1650917172953122.0,0
80,-2.0,0.0,-3.0,-5.0,-3.0,-5.0,-4.0,0.0,1650917172966526.0,0
81,0.0,0.0,4.0,2.0,2.0,-1.0,0.0,0.0,1650917172966526.0,0
82,0.0,0.0,4.0,3.0,0.0,-1.0,-9.0,-3.0,1650917172967526.0,0
83,-1.0,-2.0,-5.0,-5.0,-7.0,-6.0,10.0,0.0,1650917172967526.0,0
84,-1.0,-3.0,-3.0,-4.0,-5.0,-8.0,-8.0,-4.0,1650917172989721.0,0
85,1.0,-2.0,1.0,1.0,-8.0,-2.0,2.0,0.0,1650917172989721.0,0
86,-3.0,-1.0,-1.0,0.0,13.0,13.0,3.0,1.0,1650917172989721.0,0
87,4.0,0.0,1.0,5.0,8.0,5.0,-5.0,-1.0,1650917172989721.0,0
88,-2.0,2.0,4.0,2.0,1.0,7.0,7.0,1.0,1650917173012803.0,0
89,-1.0,-4.0,-13.0,-10.0,-7.0,-21.0,-5.0,-1.0,1650917173012803.0,0
90,-1.0,1.0,2.0,-3.0,-7.0,4.0,-2.0,-4.0,1650917173013641.0,0
91,-3.0,-2.0,1.0,0.0,-8.0,0.0,0.0,0.0,1650917173013641.0,0
92,0.0,-2.0,2.0,6.0,5.0,0.0,1.0,-1.0,1650917173025979.0,0
93,-2.0,1.0,-2.0,-2.0,6.0,7.0,-2.0,-1.0,1650917173025979.0,0
94,0.0,-3.0,-1.0,-1.0,-6.0,-11.0,1.0,0.0,1650917173035124.0,0
95,-1.0,1.0,0.0,-1.0,-6.0,-2.0,0.0,-2.0,1650917173035124.0,0
96,-1.0,-2.0,1.0,4.0,4.0,7.0,-4.0,0.0,1650917173049619.0,0
97,-1.0,-1.0,-1.0,-4.0,4.0,6.0,1.0,-1.0,1650917173049619.0,0
98,-2.0,-2.0,2.0,2.0,-6.0,-9.0,-4.0,-1.0,1650917173049619.0,0
99,-1.0,-1.0,-1.0,-2.0,-3.0,-3.0,-2.0,-1.0,1650917173049619.0,0
100,-2.0,0.0,-2.0,-4.0,-3.0,1.0,-1.0,-1.0,1650917173073126.0,0
101,-1.0,1.0,5.0,5.0,0.0,-3.0,4.0,0.0,1650917173073126.0,0
102,1.0,1.0,0.0,1.0,13.0,7.0,4.0,0.0,1650917173073126.0,0
103,0.0,0.0,-5.0,-5.0,0.0,-1.0,-2.0,0.0,1650917173073126.0,0
104,0.0,-3.0,-2.0,-3.0,-4.0,-3.0,-1.0,0.0,1650917173087082.0,0
105,1.0,-1.0,-1.0,0.0,-1.0,-9.0,0.0,0.0,1650917173087082.0,0
106,1.0,0.0,1.0,3.0,1.0,10.0,2.0,2.0,1650917173093912.0,0
107,-3.0,1.0,-1.0,-2.0,-1.0,3.0,-1.0,-1.0,1650917173093912.0,0
108,-1.0,-3.0,-4.0,-6.0,-2.0,-2.0,-4.0,-2.0,1650917173109582.0,0
109,-1.0,1.0,3.0,0.0,-9.0,-9.0,-8.0,-2.0,1650917173109582.0,0
110,1.0,-2.0,-1.0,1.0,0.0,-7.0,10.0,2.0,1650917173109582.0,0
111,1.0,-1.0,2.0,4.0,9.0,-1.0,2.0,0.0,1650917173109582.0,0
112,-5.0,0.0,2.0,1.0,3.0,8.0,1.0,1.0,1650917173132103.0,0
113,1.0,0.0,-1.0,-3.0,-5.0,4.0,0.0,-2.0,1650917173132103.0,0
114,1.0,0.0,-4.0,-5.0,-3.0,-1.0,-2.0,-1.0,1650917173132943.0,0
115,0.0,-1.0,-3.0,-1.0,2.0,6.0,1.0,0.0,1650917173132943.0,0
116,0.0,-1.0,-3.0,-2.0,2.0,-2.0,-1.0,0.0,1650917173147065.0,0
117,-1.0,-1.0,7.0,12.0,6.0,1.0,-5.0,0.0,1650917173147065.0,0
118,-1.0,0.0,2.0,-4.0,0.0,0.0,4.0,0.0,1650917173155129.0,0
119,0.0,-2.0,-1.0,2.0,-9.0,-22.0,-3.0,-1.0,1650917173155129.0,0
120,-2.0,-1.0,-5.0,-5.0,-7.0,9.0,-3.0,-1.0,1650917173170239.0,0
121,2.0,0.0,-6.0,-5.0,-6.0,4.0,2.0,0.0,1650917173170239.0,0
122,-2.0,2.0,7.0,7.0,9.0,5.0,0.0,2.0,1650917173170239.0,0
123,0.0,2.0,4.0,3.0,5.0,1.0,1.0,1.0,1650917173170239.0,0
124,1.0,0.0,-2.0,-4.0,0.0,-7.0,-2.0,-2.0,1650917173192304.0,0
125,-3.0,-1.0,0.0,4.0,-6.0,-5.0,-2.0,-2.0,1650917173192304.0,0
126,0.0,0.0,-9.0,-7.0,-8.0,-12.0,-4.0,-4.0,1650917173193141.0,0
127,2.0,0.0,2.0,1.0,4.0,12.0,3.0,3.0,1650917173193141.0,0
128,-1.0,1.0,-4.0,-6.0,-9.0,-7.0,-4.0,-1.0,1650917173206550.0,0
129,-2.0,-2.0,-5.0,-6.0,-3.0,0.0,0.0,-1.0,1650917173206550.0,0
130,0.0,0.0,0.0,0.0,9.0,9.0,1.0,0.0,1650917173214401.0,0
131,0.0,0.0,2.0,4.0,3.0,1.0,-3.0,-1.0,1650917173214401.0,0
132,1.0,1.0,7.0,8.0,-1.0,-6.0,-1.0,-2.0,1650917173228980.0,0
133,0.0,2.0,-4.0,-4.0,5.0,8.0,3.0,2.0,1650917173228980.0,0
134,1.0,0.0,2.0,5.0,4.0,7.0,0.0,1.0,1650917173229981.0,0
135,0.0,-1.0,-6.0,-12.0,-5.0,-10.0,-2.0,-1.0,1650917173229981.0,0
136,-1.0,-1.0,-4.0,-5.0,-9.0,1.0,-2.0,-1.0,1650917173253309.0,0
137,-2.0,0.0,0.0,0.0,-2.0,-7.0,-6.0,-3.0,1650917173253309.0,0
138,3.0,-2.0,2.0,4.0,1.0,1.0,8.0,1.0,1650917173253309.0,0
139,-1.0,-1.0,0.0,1.0,5.0,1.0,0.0,-1.0,1650917173253309.0,0
140,2.0,-2.0,2.0,2.0,1.0,-3.0,0.0,0.0,1650917173266521.0,0
141,-2.0,-4.0,-11.0,-11.0,-4.0,-5.0,-4.0,-1.0,1650917173266521.0,0
142,-3.0,-2.0,0.0,-4.0,-10.0,-5.0,-5.0,-2.0,1650917173275033.0,0
143,3.0,2.0,3.0,3.0,3.0,0.0,4.0,1.0,1650917173275033.0,0
144,-5.0,-2.0,1.0,3.0,10.0,11.0,3.0,0.0,1650917173289923.0,0
145,0.0,0.0,-4.0,-3.0,4.0,12.0,1.0,-1.0,1650917173289923.0,0
146,-2.0,0.0,2.0,-1.0,-8.0,-11.0,-5.0,-1.0,1650917173289923.0,0
147,-1.0,-1.0,0.0,-1.0,-8.0,-11.0,-4.0,-2.0,1650917173289923.0,0
148,-1.0,-1.0,-3.0,-6.0,-1.0,-6.0,-1.0,-1.0,1650917173313157.0,0
149,-1.0,1.0,5.0,3.0,0.0,-3.0,2.0,-2.0,1650917173313157.0,0
150,0.0,0.0,-2.0,0.0,3.0,0.0,-1.0,-1.0,1650917173313157.0,0
151,-2.0,-2.0,-1.0,0.0,10.0,26.0,6.0,2.0,1650917173313157.0,0
152,4.0,0.0,3.0,4.0,10.0,7.0,1.0,1.0,1650917173326129.0,0
153,-3.0,-2.0,0.0,-2.0,-1.0,-6.0,0.0,1.0,1650917173326129.0,0
154,0.0,1.0,1.0,3.0,-8.0,-14.0,-4.0,-3.0,1650917173335155.0,0
155,-1.0,-2.0,-7.0,-13.0,-11.0,-7.0,-5.0,-2.0,1650917173335155.0,0
156,0.0,0.0,0.0,1.0,-5.0,3.0,1.0,0.0,1650917173349709.0,0
157,0.0,0.0,4.0,2.0,-2.0,-6.0,1.0,2.0,1650917173349709.0,0
158,-1.0,-1.0,-3.0,-3.0,0.0,-2.0,-3.0,-2.0,1650917173350449.0,0
159,1.0,1.0,6.0,10.0,11.0,9.0,-3.0,0.0,1650917173350449.0,0
160,4.0,1.0,3.0,7.0,5.0,2.0,5.0,2.0,1650917173372590.0,0
161,-7.0,-3.0,-4.0,-6.0,5.0,10.0,4.0,1.0,1650917173372590.0,0
162,1.0,0.0,2.0,5.0,-2.0,0.0,-1.0,-1.0,1650917173373466.0,0
163,-4.0,-2.0,-6.0,-7.0,-14.0,-12.0,-8.0,-3.0,1650917173373466.0,0
164,1.0,-1.0,-1.0,-5.0,-14.0,-20.0,-4.0,-1.0,1650917173395477.0,0
165,1.0,-3.0,0.0,2.0,6.0,3.0,0.0,0.0,1650917173395477.0,0
166,2.0,1.0,-1.0,0.0,19.0,26.0,4.0,1.0,1650917173395477.0,0
167,0.0,1.0,3.0,3.0,1.0,-3.0,0.0,1.0,1650917173395477.0,0
168,-3.0,1.0,-2.0,-1.0,-2.0,-1.0,-4.0,-2.0,1650917173409552.0,0
169,2.0,4.0,-1.0,0.0,-4.0,-2.0,1.0,1.0,1650917173409552.0,0
170,-5.0,-4.0,-7.0,-9.0,-6.0,-10.0,-5.0,-2.0,1650917173409552.0,0
171,0.0,-1.0,6.0,5.0,-6.0,-2.0,3.0,1.0,1650917173409552.0,0
172,-2.0,0.0,1.0,0.0,1.0,-2.0,-2.0,-1.0,1650917173432652.0,0
173,1.0,2.0,-4.0,-4.0,3.0,4.0,-3.0,-1.0,1650917173432652.0,0
174,0.0,-1.0,0.0,2.0,-1.0,-3.0,-1.0,-1.0,1650917173432652.0,0
175,0.0,0.0,0.0,5.0,4.0,2.0,3.0,-1.0,1650917173432652.0,0
176,1.0,1.0,0.0,-3.0,1.0,6.0,2.0,1.0,1650917173455507.0,0
177,0.0,-1.0,3.0,5.0,1.0,-2.0,2.0,-1.0,1650917173455507.0,0
178,-1.0,0.0,-2.0,-3.0,-6.0,-2.0,-3.0,-1.0,1650917173455653.0,0
179,1.0,0.0,0.0,-2.0,-7.0,-10.0,-1.0,-2.0,1650917173455653.0,0
180,4.0,-1.0,2.0,3.0,0.0,-9.0,-2.0,-1.0,1650917173470384.0,0
181,-3.0,-4.0,-2.0,0.0,2.0,12.0,-2.0,0.0,1650917173470384.0,0
182,-1.0,-1.0,-3.0,-2.0,-5.0,0.0,-8.0,-2.0,1650917173470384.0,0
183,0.0,0.0,1.0,3.0,3.0,6.0,15.0,4.0,1650917173470384.0,0
184,-4.0,-2.0,-7.0,-1.0,10.0,6.0,3.0,2.0,1650917173492311.0,0
185,2.0,2.0,9.0,7.0,1.0,0.0,1.0,0.0,1650917173492311.0,0
186,-2.0,-1.0,-1.0,-5.0,-16.0,-19.0,-4.0,-1.0,1650917173493150.0,0
187,0.0,-2.0,-1.0,0.0,0.0,4.0,-7.0,-5.0,1650917173493150.0,0
188,1.0,0.0,-2.0,1.0,5.0,6.0,0.0,1.0,1650917173515514.0,0
189,2.0,0.0,5.0,5.0,2.0,-5.0,-1.0,-1.0,1650917173515514.0,0
190,0.0,0.0,2.0,-4.0,-2.0,0.0,1.0,0.0,1650917173515514.0,0
191,0.0,1.0,-3.0,-6.0,-6.0,-1.0,0.0,0.0,1650917173515514.0,0
192,-3.0,0.0,-5.0,-6.0,-2.0,-4.0,2.0,0.0,1650917173529726.0,0
193,-2.0,-2.0,-3.0,-4.0,-4.0,-2.0,-4.0,-3.0,1650917173529726.0,0
194,0.0,0.0,2.0,5.0,7.0,-11.0,1.0,-1.0,1650917173529726.0,0
195,-1.0,-2.0,2.0,4.0,1.0,18.0,0.0,0.0,1650917173529726.0,0
196,-1.0,-3.0,-2.0,-3.0,2.0,13.0,1.0,-1.0,1650917173552531.0,0
197,1.0,-2.0,0.0,2.0,0.0,-8.0,2.0,2.0,1650917173552531.0,0
198,1.0,2.0,0.0,-2.0,2.0,-2.0,2.0,1.0,1650917173553485.0,0
199,-3.0,-3.0,1.0,2.0,-5.0,-8.0,-6.0,-2.0,1650917173553485.0,0
200,2.0,-1.0,1.0,-1.0,-1.0,-4.0,-1.0,-2.0,1650917173575745.0,0
201,-6.0,1.0,-3.0,-4.0,-3.0,-6.0,-4.0,-2.0,1650917173575745.0,0
202,2.0,-1.0,1.0,3.0,2.0,11.0,7.0,1.0,1650917173575745.0,0
203,-1.0,1.0,-4.0,-8.0,0.0,-1.0,-4.0,-2.0,1650917173575745.0,0
204,1.0,1.0,1.0,1.0,-9.0,-6.0,2.0,-3.0,1650917173590033.0,0
205,2.0,-1.0,-1.0,0.0,-4.0,-5.0,-2.0,-1.0,1650917173590033.0,0
206,0.0,-1.0,0.0,2.0,9.0,11.0,3.0,2.0,1650917173590033.0,0
207,-2.0,-2.0,-4.0,-5.0,0.0,1.0,-2.0,-2.0,1650917173590033.0,0
208,-3.0,0.0,3.0,-2.0,-12.0,-12.0,-7.0,-2.0,1650917173613286.0,0
209,-1.0,-1.0,-4.0,-4.0,-6.0,4.0,1.0,0.0,1650917173613286.0,0
210,-2.0,-1.0,1.0,4.0,16.0,10.0,2.0,-1.0,1650917173613286.0,0
211,2.0,-2.0,-3.0,0.0,5.0,-1.0,1.0,0.0,1650917173613286.0,0
212,0.0,-1.0,8.0,8.0,-1.0,-3.0,-2.0,-2.0,1650917173635467.0,0
213,0.0,-1.0,-1.0,-2.0,-11.0,-9.0,-4.0,-3.0,1650917173635467.0,0
214,-1.0,-2.0,2.0,-1.0,-5.0,3.0,0.0,0.0,1650917173636331.0,0
215,0.0,0.0,1.0,5.0,12.0,9.0,4.0,2.0,1650917173636331.0,0
216,-2.0,-1.0,-10.0,-7.0,0.0,-3.0,0.0,-1.0,1650917173649621.0,0
217,0.0,-2.0,-3.0,1.0,-9.0,-8.0,-2.0,0.0,1650917173649621.0,0
218,-3.0,-1.0,1.0,1.0,-4.0,-6.0,-5.0,-3.0,1650917173650356.0,0
219,0.0,-2.0,-7.0,-9.0,-5.0,-7.0,-1.0,-1.0,1650917173650356.0,0
220,5.0,3.0,4.0,3.0,2.0,4.0,-4.0,1.0,1650917173672991.0,0
221,-6.0,-1.0,4.0,3.0,8.0,7.0,-4.0,-1.0,1650917173672991.0,0
222,2.0,0.0,-9.0,-5.0,-3.0,-4.0,5.0,1.0,1650917173672991.0,0
223,-2.0,0.0,2.0,2.0,1.0,-12.0,-5.0,-1.0,1650917173672991.0,0
224,-2.0,-1.0,0.0,-2.0,0.0,14.0,-1.0,-1.0,1650917173694803.0,0
225,1.0,0.0,2.0,-1.0,-1.0,0.0,1.0,-2.0,1650917173694803.0,0
226,0.0,0.0,1.0,-4.0,-7.0,-6.0,-5.0,0.0,1650917173695769.0,0
227,-2.0,-2.0,-5.0,-6.0,-6.0,-7.0,1.0,-1.0,1650917173695769.0,0
228,0.0,-1.0,3.0,8.0,4.0,7.0,3.0,2.0,1650917173709347.0,0
229,2.0,1.0,-2.0,1.0,17.0,6.0,2.0,1.0,1650917173709347.0,0
230,-2.0,0.0,5.0,4.0,0.0,3.0,0.0,-1.0,1650917173710360.0,0
231,1.0,-1.0,-3.0,-2.0,-14.0,-11.0,-2.0,-2.0,1650917173710360.0,0
232,-3.0,-4.0,-8.0,-13.0,-8.0,-16.0,-5.0,-2.0,1650917173732831.0,0
233,-2.0,0.0,4.0,5.0,3.0,9.0,2.0,-2.0,1650917173732831.0,0
234,2.0,0.0,-3.0,-2.0,4.0,11.0,3.0,3.0,1650917173732831.0,0
235,0.0,2.0,0.0,0.0,2.0,-11.0,0.0,1.0,1650917173732831.0,0
236,-1.0,0.0,0.0,4.0,-2.0,5.0,0.0,2.0,1650917173755906.0,0
237,0.0,-3.0,-3.0,-3.0,3.0,4.0,0.0,0.0,1650917173755906.0,0
238,-1.0,0.0,1.0,0.0,-3.0,-7.0,-3.0,-4.0,1650917173755906.0,0
239,1.0,-1.0,3.0,3.0,-2.0,2.0,0.0,-1.0,1650917173755906.0,0
240,-1.0,-2.0,0.0,-4.0,-2.0,-8.0,-1.0,-2.0,1650917173768874.0,0
241,2.0,-1.0,-4.0,-3.0,-2.0,-3.0,-2.0,1.0,1650917173768874.0,0
242,-2.0,0.0,1.0,0.0,-2.0,2.0,-1.0,0.0,1650917173769871.0,0
243,1.0,-1.0,-1.0,1.0,5.0,10.0,1.0,2.0,1650917173769871.0,0
244,-3.0,-1.0,1.0,4.0,1.0,-1.0,2.0,0.0,1650917173792348.0,0
245,3.0,-3.0,-1.0,-3.0,-5.0,-2.0,-7.0,-1.0,1650917173792348.0,0
246,-5.0,-2.0,-5.0,-5.0,-9.0,-7.0,5.0,0.0,1650917173793185.0,0
247,1.0,1.0,0.0,0.0,2.0,4.0,-2.0,-2.0,1650917173793185.0,0
248,-3.0,0.0,4.0,3.0,-1.0,-9.0,-2.0,-1.0,1650917173815285.0,0
249,1.0,0.0,0.0,1.0,7.0,5.0,2.0,1.0,1650917173815285.0,0
250,1.0,-3.0,0.0,0.0,1.0,8.0,0.0,-1.0,1650917173816119.0,0
251,-2.0,1.0,3.0,2.0,-2.0,-1.0,-1.0,-2.0,1650917173816119.0,0
252,-2.0,-3.0,-11.0,-9.0,-8.0,-9.0,-3.0,-3.0,1650917173829652.0,0
253,-1.0,0.0,4.0,0.0,-9.0,-27.0,-4.0,0.0,1650917173829652.0,0
254,1.0,-1.0,-2.0,-1.0,5.0,14.0,-2.0,-3.0,1650917173837641.0,0
255,0.0,1.0,2.0,3.0,8.0,19.0,4.0,2.0,1650917173837641.0,0
256,1.0,1.0,0.0,-2.0,1.0,2.0,-1.0,0.0,1650917173852879.0,0
257,-1.0,0.0,-3.0,-4.0,-8.0,-8.0,0.0,-3.0,1650917173852879.0,0
258,-1.0,-1.0,1.0,6.0,-3.0,-5.0,-2.0,1.0,1650917173852879.0,0
259,-1.0,-1.0,3.0,3.0,3.0,-5.0,1.0,-1.0,1650917173852879.0,0
260,-1.0,-3.0,-15.0,-15.0,3.0,6.0,-4.0,-1.0,1650917173875422.0,0
261,-1.0,1.0,1.0,1.0,4.0,6.0,8.0,0.0,1650917173875422.0,0
262,2.0,0.0,-1.0,-3.0,2.0,2.0,-2.0,0.0,1650917173875658.0,0
263,1.0,-2.0,-1.0,0.0,-9.0,-6.0,-4.0,1.0,1650917173875658.0,0
264,-5.0,0.0,6.0,5.0,-3.0,-5.0,0.0,-2.0,1650917173890063.0,0
265,0.0,-2.0,2.0,2.0,-2.0,1.0,4.0,1.0,1650917173890063.0,0
266,0.0,0.0,-4.0,-3.0,-2.0,-12.0,-1.0,0.0,1650917173890063.0,0
267,2.0,0.0,-4.0,1.0,4.0,13.0,-1.0,1.0,1650917173890063.0,0
268,-3.0,0.0,2.0,3.0,11.0,13.0,6.0,3.0,1650917173920393.0,0
269,1.0,1.0,-1.0,0.0,4.0,5.0,0.0,0.0,1650917173920393.0,0
270,0.0,0.0,3.0,-1.0,-5.0,-10.0,-3.0,-1.0,1650917173920719.0,0
271,-2.0,-3.0,-3.0,-6.0,-8.0,-12.0,-4.0,-3.0,1650917173920719.0,0
272,-1.0,0.0,0.0,1.0,-8.0,-9.0,-5.0,-2.0,1650917173935155.0,0
273,-3.0,-2.0,-2.0,0.0,-2.0,7.0,1.0,-2.0,1650917173935155.0,0
274,1.0,0.0,-3.0,-1.0,11.0,8.0,0.0,0.0,1650917173936038.0,0
275,0.0,0.0,-3.0,1.0,5.0,0.0,1.0,0.0,1650917173936038.0,0
276,2.0,2.0,7.0,3.0,-3.0,0.0,0.0,0.0,1650917173949166.0,0
277,1.0,0.0,0.0,2.0,-5.0,-10.0,-1.0,0.0,1650917173949166.0,0
278,-3.0,-3.0,-5.0,-4.0,-5.0,-1.0,-4.0,-2.0,1650917173950169.0,0
279,-1.0,0.0,-2.0,-3.0,0.0,4.0,1.0,-1.0,1650917173950169.0,0
280,2.0,2.0,1.0,1.0,4.0,4.0,4.0,0.0,1650917173972543.0,0
281,-3.0,-1.0,-2.0,-5.0,-3.0,-14.0,0.0,1.0,1650917173972543.0,0
282,0.0,-2.0,0.0,0.0,-8.0,1.0,-4.0,-1.0,1650917173973410.0,0
283,-2.0,-1.0,1.0,2.0,1.0,8.0,0.0,0.0,1650917173973410.0,0
284,3.0,0.0,0.0,3.0,13.0,5.0,-1.0,-1.0,1650917173994355.0,0
285,0.0,-1.0,0.0,0.0,-3.0,-2.0,4.0,-1.0,1650917173994355.0,0
286,-1.0,-1.0,-4.0,-2.0,-4.0,-8.0,-3.0,0.0,1650917173995362.0,0
287,-1.0,-2.0,1.0,1.0,0.0,-4.0,1.0,-2.0,1650917173995362.0,0
288,2.0,0.0,-3.0,-3.0,-2.0,-6.0,-3.0,1.0,1650917174009512.0,0
289,-1.0,-2.0,-6.0,-4.0,4.0,8.0,-2.0,-1.0,1650917174009512.0,0
290,-1.0,1.0,4.0,5.0,-7.0,-6.0,1.0,-1.0,1650917174024845.0,0
291,-1.0,-1.0,-3.0,-7.0,-3.0,7.0,0.0,1.0,1650917174024845.0,0
292,1.0,1.0,6.0,5.0,2.0,0.0,-1.0,1.0,1650917174032811.0,0
293,-1.0,-2.0,-4.0,-2.0,2.0,-7.0,-6.0,0.0,1650917174032811.0,0
294,0.0,-2.0,0.0,1.0,-4.0,-3.0,-1.0,1.0,1650917174032811.0,0
295,0.0,1.0,1.0,2.0,3.0,7.0,3.0,1.0,1650917174032811.0,0
296,-2.0,0.0,2.0,0.0,2.0,-2.0,-2.0,-1.0,1650917174055302.0,0
297,-1.0,2.0,-3.0,0.0,1.0,12.0,5.0,0.0,1650917174055302.0,0
298,-1.0,-1.0,1.0,-1.0,-2.0,-3.0,-2.0,-2.0,1650917174056137.0,0
299,-3.0,-2.0,-8.0,-9.0,-8.0,-11.0,-4.0,-1.0,1650917174056137.0,0
300,0.0,-1.0,0.0,-3.0,-3.0,3.0,-3.0,0.0,1650917174068880.0,0
301,3.0,-1.0,-1.0,0.0,-5.0,-4.0,4.0,2.0,1650917174068880.0,0
302,-6.0,0.0,1.0,3.0,9.0,2.0,1.0,-1.0,1650917174076632.0,0
303,0.0,-1.0,0.0,3.0,6.0,2.0,-1.0,-2.0,1650917174076632.0,0
304,-1.0,-3.0,-5.0,-2.0,-14.0,-13.0,-2.0,-1.0,1650917174094473.0,0
305,-1.0,-1.0,6.0,1.0,3.0,10.0,-5.0,-1.0,1650917174094473.0,0
306,1.0,1.0,-4.0,-4.0,0.0,5.0,3.0,1.0,1650917174094473.0,0
307,1.0,-1.0,5.0,6.0,3.0,-6.0,0.0,0.0,1650917174094473.0,0
308,0.0,0.0,-5.0,-3.0,1.0,4.0,1.0,-1.0,1650917174114599.0,0
309,0.0,1.0,-1.0,1.0,-2.0,0.0,0.0,1.0,1650917174114599.0,0
310,1.0,-1.0,-5.0,-7.0,-7.0,-7.0,-4.0,-1.0,1650917174115434.0,0
311,-2.0,0.0,6.0,5.0,-3.0,-19.0,-3.0,-3.0,1650917174115434.0,0
312,0.0,-2.0,-9.0,-7.0,5.0,17.0,4.0,-1.0,1650917174128380.0,0
313,1.0,1.0,1.0,3.0,0.0,7.0,1.0,0.0,1650917174128380.0,0
314,2.0,0.0,2.0,0.0,4.0,6.0,1.0,0.0,1650917174137602.0,0
315,-5.0,-1.0,0.0,-2.0,4.0,-4.0,-2.0,0.0,1650917174137602.0,0
316,-1.0,-1.0,1.0,-2.0,0.0,-6.0,0.0,-2.0,1650917174152913.0,0
317,-2.0,-4.0,-7.0,-3.0,-8.0,-8.0,-5.0,-2.0,1650917174152913.0,0
318,-2.0,-4.0,6.0,6.0,-10.0,-12.0,-4.0,-1.0,1650917174152913.0,0
319,1.0,0.0,1.0,0.0,-1.0,5.0,0.0,0.0,1650917174152913.0,0
320,-1.0,1.0,2.0,2.0,7.0,9.0,3.0,1.0,1650917174175040.0,0
321,-2.0,2.0,7.0,7.0,6.0,-1.0,1.0,0.0,1650917174175040.0,0
322,1.0,0.0,-15.0,-11.0,-8.0,0.0,0.0,1.0,1650917174176072.0,0
323,0.0,0.0,-1.0,0.0,0.0,4.0,-2.0,-2.0,1650917174176072.0,0
324,-2.0,-1.0,1.0,3.0,1.0,1.0,0.0,3.0,1650917174189352.0,0
325,4.0,1.0,-2.0,-3.0,0.0,-2.0,3.0,-2.0,1650917174189352.0,0
326,0.0,3.0,14.0,8.0,-1.0,-9.0,-3.0,-5.0,1650917174197598.0,0
327,0.0,1.0,-9.0,-7.0,-9.0,-5.0,-2.0,0.0,1650917174197598.0,0
328,-2.0,-5.0,0.0,2.0,0.0,-9.0,-2.0,-2.0,1650917174213263.0,0
329,-1.0,1.0,-1.0,8.0,7.0,17.0,1.0,1.0,1650917174213263.0,0
330,0.0,2.0,-10.0,-12.0,0.0,0.0,-2.0,-4.0,1650917174213263.0,0
331,3.0,11.0,3.0,-9.0,-3.0,0.0,3.0,2.0,1650917174213263.0,0
332,1.0,-7.0,5.0,5.0,-1.0,-1.0,6.0,16.0,1650917174235388.0,0
333,-9.0,-14.0,-7.0,-3.0,2.0,-6.0,-7.0,-10.0,1650917174235388.0,0
334,-3.0,-7.0,-3.0,2.0,3.0,6.0,-4.0,-10.0,1650917174235388.0,0
335,-1.0,-2.0,-1.0,-6.0,-2.0,-1.0,-3.0,-6.0,1650917174235388.0,0
336,3.0,10.0,-9.0,-4.0,-6.0,-3.0,0.0,-3.0,1650917174248391.0,0
337,9.0,2.0,1.0,-2.0,-3.0,-4.0,3.0,8.0,1650917174248391.0,0
338,-6.0,8.0,6.0,2.0,5.0,3.0,3.0,3.0,1650917174257686.0,0
339,-4.0,-7.0,-2.0,2.0,-2.0,0.0,2.0,6.0,1650917174257686.0,0
340,1.0,-7.0,3.0,0.0,-5.0,0.0,2.0,9.0,1650917174271875.0,0
341,-1.0,19.0,-3.0,-2.0,-1.0,-3.0,-5.0,-27.0,1650917174271875.0,0
342,-3.0,-14.0,-10.0,-2.0,6.0,4.0,-3.0,-4.0,1650917174272743.0,0
343,-1.0,-9.0,4.0,5.0,-3.0,-10.0,-6.0,-6.0,1650917174272743.0,0
344,-10.0,-14.0,-2.0,-3.0,-2.0,1.0,-7.0,-9.0,1650917174295573.0,0
345,-2.0,3.0,8.0,0.0,0.0,14.0,2.0,10.0,1650917174295573.0,0
346,5.0,16.0,4.0,-3.0,8.0,1.0,5.0,4.0,1650917174295573.0,0
347,3.0,7.0,-4.0,3.0,2.0,5.0,6.0,5.0,1650917174295573.0,0
348,4.0,7.0,7.0,5.0,-6.0,-6.0,-3.0,-6.0,1650917174317738.0,0
349,-3.0,-1.0,3.0,-7.0,-9.0,-14.0,-4.0,0.0,1650917174317738.0,0
350,0.0,-10.0,-16.0,-11.0,-8.0,-1.0,-1.0,-1.0,1650917174317738.0,0
351,2.0,-2.0,6.0,5.0,6.0,-2.0,-3.0,4.0,1650917174317738.0,0
352,1.0,-10.0,-2.0,5.0,9.0,3.0,0.0,-10.0,1650917174331979.0,0
353,-4.0,-19.0,-15.0,-8.0,0.0,5.0,-2.0,-12.0,1650917174331979.0,0
354,9.0,13.0,7.0,9.0,-1.0,3.0,5.0,12.0,1650917174332814.0,0
355,-7.0,12.0,3.0,-6.0,-5.0,-3.0,0.0,12.0,1650917174332814.0,0
356,-14.0,-26.0,0.0,-5.0,-9.0,-5.0,-1.0,0.0,1650917174355994.0,0
357,-14.0,-11.0,-9.0,-1.0,-1.0,-3.0,-6.0,-15.0,1650917174355994.0,0
358,6.0,-5.0,-18.0,-10.0,0.0,-5.0,-2.0,12.0,1650917174355994.0,0
359,7.0,19.0,2.0,6.0,-1.0,1.0,-10.0,-56.0,1650917174355994.0,0
360,5.0,46.0,17.0,-4.0,-1.0,6.0,9.0,26.0,1650917174377135.0,0
361,8.0,-11.0,-13.0,-15.0,-5.0,-2.0,5.0,-4.0,1650917174377135.0,0
362,-1.0,-7.0,11.0,9.0,0.0,-5.0,-4.0,24.0,1650917174378159.0,0
363,6.0,63.0,2.0,3.0,-9.0,-5.0,-9.0,-21.0,1650917174378159.0,0
364,-3.0,-45.0,-5.0,0.0,21.0,12.0,-2.0,1.0,1650917174391328.0,0
365,-32.0,-62.0,-28.0,-19.0,0.0,-3.0,-1.0,-18.0,1650917174391328.0,1
366,53.0,29.0,16.0,-2.0,-2.0,5.0,19.0,66.0,1650917174392327.0,1
367,-23.0,70.0,13.0,19.0,-10.0,-11.0,-11.0,-62.0,1650917174392327.0,1
368,-26.0,-73.0,-13.0,10.0,4.0,-9.0,-19.0,-24.0,1650917174415624.0,1
369,-15.0,45.0,2.0,-16.0,-8.0,6.0,-1.0,3.0,1650917174415624.0,1
370,1.0,26.0,-14.0,-5.0,15.0,11.0,3.0,-18.0,1650917174415624.0,1
371,51.0,35.0,6.0,-2.0,-12.0,1.0,28.0,40.0,1650917174415624.0,1
372,7.0,55.0,19.0,26.0,13.0,0.0,4.0,19.0,1650917174437814.0,1
373,-58.0,-92.0,-1.0,7.0,-1.0,-15.0,-20.0,-17.0,1650917174437814.0,1
374,-28.0,-65.0,6.0,-27.0,-13.0,3.0,-3.0,8.0,1650917174437814.0,1
375,67.0,7.0,19.0,5.0,-1.0,7.0,23.0,100.0,1650917174437814.0,1
376,28.0,127.0,-8.0,-15.0,-3.0,7.0,20.0,-57.0,1650917174452103.0,1
377,-26.0,-60.0,-14.0,8.0,-2.0,-13.0,-8.0,12.0,1650917174452103.0,1
378,-36.0,13.0,19.0,14.0,13.0,6.0,-12.0,-68.0,1650917174452103.0,1
379,13.0,-73.0,-33.0,-10.0,0.0,-5.0,-15.0,13.0,1650917174452103.0,1
380,5.0,-21.0,-5.0,-7.0,-7.0,-8.0,-18.0,0.0,1650917174475550.0,1
381,19.0,105.0,11.0,8.0,-9.0,4.0,8.0,4.0,1650917174475550.0,1
382,23.0,14.0,-3.0,0.0,-7.0,-10.0,19.0,37.0,1650917174476386.0,1
383,-46.0,-97.0,-6.0,-5.0,14.0,4.0,-10.0,-12.0,1650917174476386.0,1
384,8.0,33.0,-16.0,-16.0,0.0,-4.0,1.0,-1.0,1650917174498174.0,1
385,-23.0,-79.0,1.0,-11.0,-37.0,-11.0,-10.0,-2.0,1650917174498174.0,1
386,-26.0,-73.0,-14.0,11.0,8.0,-5.0,-16.0,-19.0,1650917174498174.0,1
387,-14.0,27.0,-2.0,-2.0,-5.0,6.0,9.0,-11.0,1650917174498174.0,1
388,29.0,40.0,-3.0,11.0,25.0,15.0,15.0,26.0,1650917174511860.0,1
389,11.0,-36.0,46.0,7.0,1.0,8.0,9.0,9.0,1650917174511860.0,1
390,-1.0,40.0,-3.0,15.0,0.0,2.0,0.0,-7.0,1650917174512897.0,1
391,1.0,-23.0,-20.0,-20.0,1.0,-2.0,-7.0,-3.0,1650917174512897.0,1
392,19.0,69.0,-9.0,-17.0,-22.0,-1.0,5.0,12.0,1650917174535321.0,1
393,-9.0,-8.0,-12.0,-4.0,-2.0,-9.0,-13.0,-21.0,1650917174535321.0,1
394,-11.0,-11.0,17.0,9.0,-7.0,-12.0,-12.0,-53.0,1650917174535321.0,1
395,-33.0,-42.0,8.0,6.0,14.0,11.0,6.0,-8.0,1650917174535321.0,1
396,-5.0,-5.0,-14.0,-20.0,-1.0,2.0,7.0,25.0,1650917174557647.0,1
397,38.0,-35.0,-12.0,8.0,9.0,1.0,16.0,29.0,1650917174557647.0,1
398,-8.0,16.0,4.0,-6.0,0.0,-1.0,0.0,8.0,1650917174558482.0,1
399,-12.0,15.0,-1.0,17.0,-9.0,-12.0,-2.0,34.0,1650917174558482.0,1
400,64.0,56.0,46.0,10.0,10.0,8.0,4.0,-6.0,1650917174571845.0,1
401,59.0,26.0,20.0,18.0,5.0,-3.0,15.0,34.0,1650917174571845.0,1
402,-56.0,-97.0,-23.0,-19.0,-4.0,15.0,-3.0,-22.0,1650917174572680.0,1
403,-22.0,-92.0,-32.0,-21.0,-34.0,-22.0,-7.0,-10.0,1650917174572680.0,1
404,-58.0,-58.0,3.0,7.0,26.0,11.0,-4.0,-11.0,1650917174595848.0,1
405,33.0,127.0,-11.0,-31.0,-23.0,-6.0,-6.0,-14.0,1650917174595848.0,1
406,-4.0,-23.0,9.0,26.0,8.0,-13.0,-13.0,-15.0,1650917174595926.0,1
407,26.0,24.0,-15.0,-30.0,8.0,12.0,8.0,9.0,1650917174595926.0,1
408,-21.0,-28.0,5.0,12.0,-15.0,-11.0,-13.0,3.0,1650917174618516.0,1
409,23.0,54.0,11.0,11.0,17.0,7.0,5.0,-13.0,1650917174618516.0,1
410,13.0,24.0,11.0,29.0,37.0,21.0,18.0,30.0,1650917174618516.0,1
411,53.0,126.0,26.0,1.0,-5.0,4.0,8.0,35.0,1650917174618516.0,1
412,-84.0,-128.0,-46.0,-24.0,-25.0,-26.0,-20.0,-38.0,1650917174631984.0,1
413,32.0,120.0,5.0,4.0,-1.0,1.0,-1.0,9.0,1650917174631984.0,1
414,-10.0,23.0,14.0,9.0,-7.0,-6.0,2.0,2.0,1650917174632821.0,1
415,-34.0,-67.0,-38.0,-19.0,10.0,4.0,-5.0,-27.0,1650917174632821.0,1
416,32.0,32.0,20.0,22.0,-12.0,-3.0,1.0,2.0,1650917174655306.0,1
417,-22.0,-57.0,-3.0,-3.0,29.0,12.0,15.0,34.0,1650917174655306.0,1
418,5.0,25.0,-21.0,-35.0,-33.0,-18.0,-24.0,-34.0,1650917174656303.0,1
419,-19.0,15.0,17.0,22.0,-16.0,-5.0,-14.0,-37.0,1650917174656303.0,1
420,-1.0,3.0,-16.0,0.0,29.0,6.0,1.0,-6.0,1650917174677752.0,1
421,13.0,27.0,-3.0,1.0,4.0,10.0,2.0,7.0,1650917174677752.0,1
422,17.0,-65.0,-19.0,-17.0,-4.0,1.0,13.0,35.0,1650917174678752.0,1
423,-47.0,-59.0,-1.0,16.0,2.0,-8.0,-1.0,-16.0,1650917174678752.0,1
424,-43.0,-50.0,-4.0,-13.0,-21.0,-11.0,-14.0,-24.0,1650917174690761.0,1
425,20.0,27.0,24.0,19.0,-25.0,-8.0,1.0,6.0,1650917174690761.0,1
426,52.0,127.0,23.0,0.0,27.0,23.0,5.0,-22.0,1650917174699895.0,1
427,23.0,-16.0,-20.0,-4.0,1.0,-1.0,12.0,42.0,1650917174699895.0,1
428,-48.0,-84.0,-13.0,10.0,-9.0,-18.0,-27.0,-41.0,1650917174715222.0,1
429,-13.0,12.0,-11.0,-18.0,-17.0,-16.0,-9.0,-3.0,1650917174715222.0,1
430,15.0,25.0,10.0,7.0,4.0,6.0,1.0,13.0,1650917174716188.0,1
431,-19.0,38.0,-9.0,-16.0,-9.0,-4.0,-6.0,-5.0,1650917174716188.0,1
432,-9.0,28.0,19.0,25.0,2.0,4.0,7.0,-30.0,1650917174738452.0,1
433,12.0,-40.0,7.0,20.0,9.0,-3.0,8.0,36.0,1650917174738452.0,1
434,-2.0,12.0,-46.0,-45.0,-17.0,-8.0,-9.0,-8.0,1650917174739451.0,1
435,43.0,40.0,20.0,-2.0,23.0,13.0,0.0,5.0,1650917174739451.0,1
436,33.0,66.0,16.0,3.0,-15.0,-11.0,2.0,29.0,1650917174751781.0,1
437,-43.0,-27.0,-7.0,-20.0,20.0,8.0,-11.0,-32.0,1650917174751781.0,1
438,-52.0,-84.0,-35.0,-10.0,-9.0,1.0,7.0,-8.0,1650917174759537.0,1
439,5.0,7.0,19.0,16.0,-13.0,1.0,-6.0,0.0,1650917174759537.0,1
440,40.0,61.0,12.0,-9.0,1.0,16.0,14.0,21.0,1650917174775815.0,1
441,31.0,21.0,14.0,42.0,9.0,-8.0,-6.0,-12.0,1650917174775815.0,1
442,4.0,32.0,20.0,-5.0,-12.0,-1.0,9.0,32.0,1650917174776814.0,1
443,-44.0,-14.0,-7.0,-1.0,6.0,1.0,0.0,-3.0,1650917174776814.0,1
444,-16.0,-58.0,-12.0,-1.0,5.0,0.0,-11.0,-27.0,1650917174798679.0,1
445,-51.0,-82.0,-26.0,8.0,-10.0,-11.0,-7.0,-10.0,1650917174798679.0,1
446,6.0,9.0,8.0,-22.0,-22.0,-9.0,-22.0,-8.0,1650917174799718.0,1
447,46.0,117.0,28.0,17.0,43.0,19.0,12.0,-10.0,1650917174799718.0,1
448,84.0,47.0,-2.0,-9.0,-11.0,-3.0,-2.0,-5.0,1650917174811816.0,1
449,-59.0,-97.0,-13.0,-15.0,-16.0,-7.0,17.0,25.0,1650917174811816.0,1
450,-5.0,-38.0,-15.0,5.0,2.0,-4.0,-10.0,-7.0,1650917174819837.0,1
451,33.0,8.0,15.0,23.0,29.0,12.0,7.0,7.0,1650917174819837.0,1
452,11.0,-13.0,-33.0,-40.0,-30.0,-2.0,10.0,17.0,1650917174835312.0,1
453,6.0,55.0,6.0,-2.0,0.0,-7.0,-23.0,-23.0,1650917174835312.0,1
454,20.0,-1.0,19.0,15.0,-1.0,6.0,12.0,24.0,1650917174836152.0,1
455,10.0,2.0,1.0,3.0,-15.0,-14.0,-12.0,-30.0,1650917174836152.0,1
456,-72.0,-96.0,-21.0,-6.0,19.0,6.0,4.0,-5.0,1650917174858181.0,1
457,8.0,23.0,10.0,-26.0,-5.0,10.0,-1.0,8.0,1650917174858181.0,1
458,-18.0,18.0,10.0,26.0,-15.0,-16.0,3.0,-17.0,1650917174859213.0,1
459,-35.0,1.0,-8.0,-32.0,1.0,0.0,-19.0,-12.0,1650917174859213.0,1
460,25.0,-34.0,20.0,26.0,-2.0,-3.0,7.0,28.0,1650917174873582.0,1
461,-14.0,12.0,-9.0,-24.0,13.0,13.0,4.0,-18.0,1650917174873582.0,1
462,38.0,120.0,29.0,14.0,4.0,2.0,10.0,33.0,1650917174880467.0,1
463,-52.0,-115.0,-8.0,25.0,-42.0,-26.0,-20.0,-54.0,1650917174880467.0,1
464,33.0,45.0,-15.0,-25.0,18.0,17.0,6.0,52.0,1650917174895455.0,1
465,-34.0,-34.0,-15.0,12.0,22.0,-2.0,-15.0,-60.0,1650917174895455.0,1
466,54.0,-9.0,-6.0,-3.0,-8.0,-4.0,-1.0,23.0,1650917174896635.0,1
467,-58.0,19.0,22.0,13.0,-8.0,-11.0,-1.0,-8.0,1650917174896635.0,1
468,-8.0,-5.0,-13.0,26.0,17.0,5.0,11.0,25.0,1650917174917562.0,1
469,46.0,15.0,2.0,17.0,12.0,12.0,-9.0,-6.0,1650917174917562.0,1
470,-33.0,-14.0,-18.0,-47.0,4.0,26.0,25.0,15.0,1650917174918523.0,1
471,39.0,16.0,1.0,-15.0,-46.0,-23.0,-10.0,-3.0,1650917174918523.0,1
472,10.0,15.0,20.0,14.0,60.0,28.0,20.0,5.0,1650917174931832.0,1
473,-4.0,44.0,-24.0,-10.0,-9.0,-9.0,-5.0,1.0,1650917174931832.0,1
474,-41.0,-20.0,-6.0,12.0,-12.0,-19.0,-9.0,-28.0,1650917174947857.0,1
475,18.0,31.0,-3.0,-25.0,9.0,10.0,4.0,23.0,1650917174947857.0,1
476,19.0,37.0,21.0,17.0,-8.0,-13.0,3.0,14.0,1650917174955700.0,1
477,40.0,21.0,-8.0,-11.0,-16.0,0.0,12.0,27.0,1650917174955700.0,1
478,2.0,1.0,8.0,36.0,6.0,-5.0,-11.0,-10.0,1650917174956884.0,1
479,-19.0,-128.0,-30.0,-18.0,25.0,13.0,8.0,12.0,1650917174956884.0,1
480,-10.0,34.0,11.0,-12.0,-28.0,-3.0,0.0,16.0,1650917174977741.0,1
481,-45.0,6.0,7.0,13.0,3.0,-9.0,-7.0,-33.0,1650917174977741.0,1
482,40.0,20.0,10.0,29.0,-35.0,-31.0,-13.0,7.0,1650917174978741.0,1
483,14.0,-3.0,-7.0,-66.0,9.0,32.0,15.0,11.0,1650917174978741.0,1
484,-10.0,-23.0,-18.0,-6.0,-9.0,-2.0,-12.0,-36.0,1650917174991498.0,1
485,17.0,13.0,2.0,-15.0,-4.0,-1.0,7.0,33.0,1650917174991498.0,1
486,-33.0,-55.0,-18.0,33.0,16.0,-6.0,-9.0,-1.0,1650917174999682.0,1
487,48.0,87.0,8.0,4.0,-24.0,-10.0,-4.0,-19.0,1650917174999682.0,1
488,-82.0,-48.0,-11.0,-28.0,3.0,9.0,2.0,5.0,1650917175015003.0,1
489,15.0,7.0,35.0,26.0,-20.0,-9.0,-3.0,14.0,1650917175015003.0,1
490,18.0,-4.0,-1.0,-14.0,23.0,14.0,14.0,-2.0,1650917175016861.0,1
491,22.0,-3.0,2.0,26.0,15.0,-3.0,-3.0,50.0,1650917175016861.0,1
492,-28.0,18.0,-5.0,-14.0,-10.0,-4.0,-9.0,-47.0,1650917175038520.0,1
493,-54.0,-90.0,-15.0,19.0,10.0,4.0,7.0,-28.0,1650917175038520.0,1
494,36.0,-11.0,10.0,-4.0,-7.0,5.0,11.0,-5.0,1650917175039363.0,1
495,20.0,20.0,11.0,11.0,48.0,14.0,11.0,31.0,1650917175039363.0,1
496,-4.0,70.0,12.0,-4.0,-48.0,-28.0,-15.0,-3.0,1650917175051649.0,1
497,42.0,44.0,20.0,4.0,33.0,16.0,11.0,16.0,1650917175051649.0,1
498,5.0,-10.0,-9.0,-22.0,30.0,23.0,1.0,17.0,1650917175060476.0,1
499,-43.0,32.0,-8.0,-4.0,-30.0,-6.0,8.0,-19.0,1650917175060476.0,1
500,5.0,-85.0,-19.0,0.0,-16.0,-14.0,-18.0,-8.0,1650917175075581.0,1
501,34.0,27.0,11.0,10.0,36.0,25.0,9.0,18.0,1650917175075581.0,1
502,-15.0,41.0,-6.0,-24.0,1.0,-5.0,-14.0,-27.0,1650917175076433.0,1
503,-13.0,-39.0,-14.0,0.0,-6.0,-8.0,4.0,25.0,1650917175076433.0,1
504,9.0,20.0,35.0,19.0,-2.0,-15.0,-10.0,-24.0,1650917175097949.0,1
505,-41.0,-83.0,-32.0,-30.0,-41.0,-14.0,-9.0,-1.0,1650917175097949.0,1
506,39.0,17.0,17.0,44.0,42.0,6.0,3.0,9.0,1650917175098588.0,1
507,-32.0,-13.0,-22.0,6.0,1.0,-3.0,-6.0,-13.0,1650917175098588.0,1
508,38.0,42.0,8.0,-28.0,-11.0,11.0,20.0,57.0,1650917175111922.0,1
509,83.0,17.0,-7.0,2.0,2.0,6.0,37.0,78.0,1650917175111922.0,1
510,-6.0,70.0,24.0,0.0,-25.0,-11.0,-12.0,-12.0,1650917175119743.0,1
511,-48.0,-78.0,-6.0,32.0,1.0,-12.0,-9.0,-41.0,1650917175119743.0,1
512,-52.0,-13.0,-26.0,-44.0,15.0,12.0,-7.0,-28.0,1650917175134963.0,1
513,13.0,52.0,24.0,36.0,0.0,-10.0,-13.0,0.0,1650917175134963.0,1
514,1.0,-30.0,-18.0,-38.0,10.0,13.0,11.0,10.0,1650917175136957.0,1
515,48.0,61.0,8.0,30.0,-45.0,-20.0,4.0,24.0,1650917175136957.0,1
516,39.0,4.0,-5.0,-14.0,28.0,18.0,-1.0,-3.0,1650917175157592.0,1
517,-45.0,-39.0,-14.0,-12.0,-12.0,-5.0,-16.0,-32.0,1650917175157592.0,1
518,7.0,6.0,9.0,14.0,2.0,-3.0,-4.0,-13.0,1650917175165296.0,1
519,-5.0,42.0,24.0,-22.0,-17.0,4.0,-1.0,-21.0,1650917175165296.0,1
520,-5.0,-72.0,-22.0,14.0,-4.0,-18.0,-12.0,-13.0,1650917175171470.0,1
521,20.0,82.0,31.0,5.0,-12.0,4.0,3.0,0.0,1650917175171470.0,1
522,-13.0,-56.0,-9.0,9.0,-10.0,-4.0,6.0,33.0,1650917175180476.0,1
523,-54.0,16.0,11.0,-17.0,5.0,0.0,-12.0,-42.0,1650917175180476.0,1
524,37.0,66.0,29.0,75.0,42.0,4.0,7.0,17.0,1650917175195443.0,1
525,8.0,17.0,-34.0,-43.0,4.0,3.0,-7.0,-24.0,1650917175195443.0,1
526,6.0,20.0,19.0,-3.0,-31.0,-6.0,-4.0,-30.0,1650917175196811.0,1
527,13.0,7.0,-8.0,6.0,45.0,28.0,25.0,60.0,1650917175196811.0,1
528,18.0,0.0,11.0,9.0,-5.0,-5.0,1.0,0.0,1650917175218125.0,1
529,-17.0,-21.0,8.0,-1.0,-14.0,-15.0,-7.0,-4.0,1650917175218125.0,1
530,-53.0,14.0,11.0,27.0,11.0,-7.0,-4.0,-14.0,1650917175218719.0,1
531,25.0,-21.0,-12.0,-15.0,5.0,14.0,4.0,-6.0,1650917175218719.0,1
532,-34.0,22.0,-4.0,-6.0,7.0,-1.0,-3.0,10.0,1650917175231845.0,1
533,9.0,-69.0,-8.0,-6.0,10.0,4.0,0.0,-11.0,1650917175231845.0,1
534,-17.0,-14.0,-30.0,-54.0,6.0,18.0,8.0,10.0,1650917175239971.0,1
535,24.0,20.0,9.0,-4.0,-32.0,-18.0,-19.0,-18.0,1650917175239971.0,1
536,15.0,15.0,6.0,47.0,52.0,17.0,6.0,1.0,1650917175255194.0,1
537,-18.0,-5.0,-7.0,-17.0,-24.0,-8.0,1.0,-13.0,1650917175255194.0,1
538,20.0,-47.0,-19.0,-39.0,-23.0,-11.0,-15.0,8.0,1650917175256057.0,1
539,-5.0,-5.0,21.0,35.0,54.0,20.0,8.0,8.0,1650917175256057.0,1
540,-35.0,-28.0,-20.0,-23.0,-24.0,-7.0,-7.0,-30.0,1650917175277165.0,1
541,66.0,112.0,36.0,31.0,-10.0,-6.0,-8.0,-21.0,1650917175277165.0,1
542,-20.0,-16.0,-11.0,9.0,22.0,4.0,13.0,4.0,1650917175279193.0,1
543,-28.0,-93.0,-8.0,21.0,2.0,-22.0,-8.0,22.0,1650917175279193.0,1
544,48.0,34.0,-17.0,-53.0,-37.0,11.0,5.0,17.0,1650917175300703.0,1
545,-42.0,-34.0,22.0,32.0,9.0,9.0,8.0,11.0,1650917175300703.0,1
546,3.0,75.0,0.0,-20.0,-27.0,-10.0,-13.0,-24.0,1650917175302195.0,1
547,15.0,54.0,14.0,-4.0,-11.0,-5.0,-4.0,-18.0,1650917175302195.0,1
548,11.0,-31.0,2.0,17.0,-5.0,-10.0,-1.0,3.0,1650917175315100.0,1
549,-1.0,85.0,15.0,31.0,23.0,4.0,5.0,9.0,1650917175315100.0,1
550,-17.0,-45.0,-16.0,-42.0,4.0,7.0,-3.0,-17.0,1650917175315935.0,1
551,-29.0,-24.0,-8.0,-19.0,-4.0,8.0,3.0,9.0,1650917175315935.0,1
552,52.0,-43.0,-6.0,-7.0,-34.0,-10.0,12.0,46.0,1650917175337268.0,1
553,-27.0,0.0,7.0,11.0,30.0,4.0,-16.0,-81.0,1650917175337268.0,1
554,5.0,2.0,1.0,19.0,-23.0,-16.0,-12.0,8.0,1650917175339261.0,1
555,-70.0,-93.0,-27.0,-4.0,24.0,6.0,-9.0,-22.0,1650917175339261.0,1
556,-27.0,127.0,10.0,9.0,4.0,5.0,6.0,10.0,1650917175359427.0,1
557,55.0,69.0,2.0,8.0,-31.0,-9.0,-3.0,-39.0,1650917175359427.0,1
558,-34.0,-24.0,9.0,6.0,6.0,-14.0,-10.0,49.0,1650917175361424.0,1
559,85.0,68.0,1.0,-15.0,16.0,22.0,12.0,-8.0,1650917175361424.0,1
560,-14.0,14.0,-22.0,3.0,-3.0,-2.0,-4.0,-31.0,1650917175374887.0,1
561,-60.0,-79.0,-27.0,5.0,-14.0,-15.0,-8.0,49.0,1650917175374887.0,1
562,-56.0,-3.0,-17.0,3.0,5.0,7.0,-2.0,-80.0,1650917175382100.0,1
563,60.0,127.0,18.0,-4.0,-36.0,-17.0,1.0,38.0,1650917175382100.0,1
564,59.0,64.0,19.0,36.0,10.0,-11.0,-9.0,0.0,1650917175397257.0,1
565,12.0,55.0,-2.0,-68.0,28.0,43.0,28.0,48.0,1650917175397257.0,1
566,14.0,50.0,26.0,37.0,-1.0,-8.0,2.0,-2.0,1650917175399122.0,1
567,-91.0,-115.0,-57.0,-28.0,-6.0,-2.0,-5.0,-16.0,1650917175399122.0,1
568,-40.0,-126.0,7.0,24.0,-50.0,-35.0,-25.0,-37.0,1650917175420451.0,1
569,15.0,28.0,-8.0,-42.0,-12.0,2.0,7.0,30.0,1650917175420451.0,1
570,33.0,37.0,-3.0,-12.0,14.0,10.0,6.0,4.0,1650917175421231.0,1
571,41.0,73.0,19.0,7.0,8.0,10.0,13.0,41.0,1650917175421231.0,1
572,46.0,58.0,30.0,18.0,7.0,14.0,25.0,29.0,1650917175434426.0,1
573,-18.0,-128.0,-47.0,-31.0,-45.0,-33.0,-33.0,-19.0,1650917175434426.0,1
574,2.0,-8.0,3.0,12.0,25.0,3.0,-4.0,-12.0,1650917175441721.0,1
575,17.0,61.0,8.0,-4.0,16.0,21.0,34.0,31.0,1650917175441721.0,1
576,9.0,-112.0,-46.0,-15.0,7.0,-7.0,-23.0,-30.0,1650917175458864.0,1
577,-90.0,-77.0,-24.0,-1.0,-24.0,-22.0,-3.0,45.0,1650917175458864.0,1
578,84.0,72.0,12.0,-9.0,2.0,21.0,32.0,55.0,1650917175459709.0,1
579,-14.0,-8.0,-3.0,16.0,-25.0,-36.0,-41.0,-72.0,1650917175459709.0,1
580,-70.0,-73.0,12.0,15.0,29.0,20.0,2.0,-30.0,1650917175480974.0,1
581,61.0,58.0,12.0,1.0,-1.0,17.0,28.0,26.0,1650917175480974.0,1
582,3.0,14.0,23.0,4.0,-13.0,-4.0,-7.0,16.0,1650917175481974.0,1
583,-50.0,29.0,-3.0,9.0,9.0,-4.0,-11.0,-52.0,1650917175481974.0,1
584,18.0,59.0,-23.0,-33.0,-6.0,3.0,7.0,32.0,1650917175495267.0,1
585,71.0,105.0,44.0,38.0,15.0,-2.0,7.0,4.0,1650917175495267.0,1
586,-101.0,-128.0,-86.0,-22.0,-6.0,-5.0,-7.0,-16.0,1650917175501192.0,1
587,-33.0,63.0,11.0,7.0,-18.0,-7.0,-3.0,9.0,1650917175501192.0,1
588,-54.0,49.0,23.0,0.0,-14.0,-2.0,-5.0,-31.0,1650917175517818.0,1
589,46.0,14.0,-26.0,-7.0,17.0,-6.0,-22.0,-12.0,1650917175517818.0,1
590,39.0,76.0,46.0,38.0,-2.0,-13.0,-9.0,-29.0,1650917175518817.0,1
591,18.0,-4.0,0.0,4.0,24.0,11.0,19.0,33.0,1650917175518817.0,1
592,30.0,-12.0,16.0,3.0,0.0,-6.0,-7.0,-12.0,1650917175540104.0,1
593,-30.0,-3.0,13.0,-6.0,-3.0,13.0,28.0,26.0,1650917175540104.0,1
594,18.0,11.0,51.0,75.0,50.0,8.0,-1.0,-13.0,1650917175540978.0,1
595,28.0,47.0,6.0,-56.0,-27.0,0.0,-9.0,-12.0,1650917175540978.0,1
596,-2.0,-45.0,2.0,-8.0,-1.0,6.0,13.0,32.0,1650917175554945.0,1
597,-20.0,-60.0,-36.0,-12.0,4.0,-5.0,-16.0,-25.0,1650917175554945.0,1
598,-50.0,8.0,-2.0,3.0,-29.0,-16.0,-11.0,-11.0,1650917175562048.0,1
599,-10.0,-41.0,-13.0,6.0,19.0,19.0,16.0,-3.0,1650917175562048.0,1
600,36.0,78.0,40.0,3.0,4.0,-1.0,2.0,22.0,1650917175577853.0,1
601,-7.0,-5.0,-10.0,3.0,-15.0,-8.0,-9.0,-18.0,1650917175577853.0,1
602,55.0,64.0,-14.0,28.0,59.0,15.0,9.0,31.0,1650917175578852.0,1
603,-50.0,-65.0,-1.0,-5.0,-1.0,3.0,-8.0,-25.0,1650917175578852.0,1
604,-44.0,17.0,26.0,6.0,13.0,-6.0,-8.0,-10.0,1650917175600152.0,1
605,-9.0,-41.0,3.0,-11.0,-12.0,-1.0,1.0,-26.0,1650917175600152.0,1
606,47.0,73.0,28.0,1.0,-27.0,-8.0,3.0,18.0,1650917175601148.0,1
607,39.0,41.0,20.0,19.0,1.0,1.0,1.0,15.0,1650917175601148.0,1
608,-57.0,-75.0,-30.0,-22.0,-12.0,-5.0,-4.0,-34.0,1650917175614308.0,1
609,-28.0,39.0,5.0,12.0,14.0,4.0,-8.0,-9.0,1650917175614308.0,1
610,-4.0,-36.0,-32.0,-39.0,-9.0,4.0,0.0,9.0,1650917175621256.0,1
611,38.0,-8.0,15.0,21.0,-4.0,-11.0,4.0,1.0,1650917175621256.0,1
612,-1.0,0.0,-17.0,-9.0,-13.0,-9.0,-22.0,14.0,1650917175638461.0,1
613,-19.0,-9.0,16.0,9.0,17.0,15.0,22.0,7.0,1650917175638461.0,1
614,6.0,-8.0,-1.0,-20.0,-23.0,-1.0,2.0,-2.0,1650917175639475.0,1
615,-6.0,-40.0,-4.0,20.0,-13.0,-16.0,-3.0,-13.0,1650917175639475.0,1
616,2.0,26.0,-12.0,-26.0,10.0,5.0,10.0,18.0,1650917175659476.0,1
617,42.0,23.0,9.0,3.0,17.0,8.0,-12.0,-19.0,1650917175659476.0,1
618,-46.0,-48.0,-19.0,-18.0,-23.0,-6.0,1.0,-4.0,1650917175661474.0,1
619,8.0,-11.0,-9.0,-1.0,14.0,2.0,-4.0,8.0,1650917175661474.0,1
620,8.0,14.0,18.0,22.0,-16.0,-5.0,3.0,8.0,1650917175674848.0,1
621,13.0,9.0,17.0,19.0,35.0,19.0,8.0,15.0,1650917175674848.0,1
622,-21.0,-45.0,-42.0,-46.0,-22.0,-3.0,-3.0,-24.0,1650917175680481.0,1
623,10.0,-12.0,-11.0,-10.0,-8.0,-9.0,-9.0,5.0,1650917175680481.0,1
624,3.0,17.0,-15.0,-21.0,-6.0,-2.0,6.0,-22.0,1650917175697575.0,1
625,-14.0,1.0,20.0,7.0,-4.0,-10.0,-5.0,14.0,1650917175697575.0,1
626,5.0,-2.0,5.0,6.0,2.0,-2.0,-2.0,-6.0,1650917175698570.0,1
627,12.0,-18.0,-33.0,-21.0,-8.0,-11.0,-15.0,8.0,1650917175698570.0,1
628,4.0,4.0,-10.0,-3.0,9.0,4.0,7.0,4.0,1650917175720706.0,1
629,-16.0,-5.0,13.0,21.0,2.0,8.0,14.0,12.0,1650917175720706.0,1
630,-7.0,-17.0,2.0,-1.0,-1.0,2.0,2.0,12.0,1650917175721738.0,1
631,22.0,8.0,3.0,9.0,-1.0,-3.0,-11.0,-7.0,1650917175721738.0,1
632,-20.0,18.0,12.0,15.0,0.0,2.0,25.0,-18.0,1650917175734047.0,1
633,-27.0,-15.0,-26.0,-33.0,-13.0,-11.0,-4.0,-9.0,1650917175734047.0,1
634,11.0,2.0,-3.0,-18.0,-8.0,1.0,6.0,8.0,1650917175741038.0,1
635,-14.0,-2.0,5.0,4.0,2.0,4.0,-4.0,3.0,1650917175741038.0,1
636,14.0,3.0,4.0,31.0,7.0,-1.0,-3.0,30.0,1650917175757357.0,1
637,1.0,6.0,3.0,-1.0,7.0,6.0,-1.0,-21.0,1650917175757357.0,1
638,-16.0,-8.0,13.0,-10.0,-2.0,2.0,-2.0,-11.0,1650917175759350.0,1
639,4.0,-2.0,6.0,6.0,-13.0,-7.0,-2.0,-2.0,1650917175759350.0,1
640,10.0,7.0,0.0,-3.0,18.0,10.0,3.0,10.0,1650917175780586.0,1
641,3.0,-2.0,-25.0,-25.0,-21.0,-15.0,-4.0,3.0,1650917175780586.0,1
642,-4.0,-7.0,-14.0,-13.0,1.0,1.0,-9.0,-10.0,1650917175781586.0,1
643,0.0,-13.0,1.0,-11.0,-1.0,2.0,5.0,3.0,1650917175781586.0,1
644,13.0,4.0,6.0,13.0,-1.0,-2.0,0.0,1.0,1650917175794081.0,1
645,-19.0,0.0,11.0,18.0,6.0,1.0,-3.0,0.0,1650917175794081.0,1
646,11.0,3.0,-6.0,-11.0,-4.0,-4.0,0.0,-2.0,1650917175809201.0,1
647,-6.0,-10.0,-22.0,-21.0,-8.0,-2.0,3.0,-3.0,1650917175809201.0,1
648,-2.0,-1.0,6.0,-14.0,-5.0,-4.0,-3.0,-6.0,1650917175817530.0,1
649,-2.0,-3.0,-11.0,1.0,-4.0,-5.0,-19.0,-5.0,1650917175817530.0,1
650,-1.0,0.0,12.0,22.0,9.0,1.0,3.0,-1.0,1650917175819361.0,1
651,1.0,6.0,17.0,44.0,22.0,17.0,25.0,8.0,1650917175819361.0,1
652,-3.0,-5.0,-22.0,-31.0,-9.0,1.0,-3.0,-1.0,1650917175840535.0,1
653,7.0,1.0,7.0,-12.0,-13.0,-12.0,-12.0,-3.0,1650917175840535.0,1
654,1.0,-1.0,4.0,19.0,1.0,0.0,14.0,2.0,1650917175841536.0,1
655,-1.0,-2.0,1.0,-6.0,3.0,3.0,-9.0,-3.0,1650917175841536.0,1
656,-4.0,-5.0,-7.0,14.0,11.0,11.0,8.0,2.0,1650917175862591.0,1
657,8.0,1.0,0.0,-22.0,-4.0,-1.0,-3.0,16.0,1650917175862591.0,1
658,15.0,4.0,4.0,20.0,4.0,-10.0,-10.0,-21.0,1650917175864424.0,1
659,-3.0,-2.0,3.0,12.0,-3.0,-8.0,0.0,2.0,1650917175864424.0,1
660,-2.0,-5.0,-20.0,-79.0,-26.0,-4.0,-7.0,0.0,1650917175877738.0,1
661,-6.0,-1.0,1.0,18.0,14.0,14.0,10.0,0.0,1650917175877738.0,1
662,8.0,4.0,11.0,8.0,-1.0,1.0,-3.0,6.0,1650917175878597.0,1
663,3.0,-3.0,14.0,20.0,0.0,-5.0,2.0,-1.0,1650917175878597.0,1
664,-4.0,5.0,-5.0,9.0,-5.0,-13.0,-8.0,-2.0,1650917175900692.0,1
665,3.0,-5.0,4.0,5.0,4.0,-1.0,0.0,-4.0,1650917175900692.0,1
666,-6.0,5.0,11.0,27.0,16.0,11.0,3.0,7.0,1650917175901804.0,1
667,-4.0,-5.0,-27.0,-53.0,-21.0,-15.0,-29.0,-4.0,1650917175901804.0,1
668,-9.0,1.0,-8.0,1.0,-3.0,0.0,37.0,1.0,1650917175914583.0,1
669,2.0,0.0,-4.0,-1.0,-1.0,2.0,-2.0,1.0,1650917175914583.0,1
670,-6.0,-1.0,15.0,22.0,12.0,9.0,4.0,1.0,1650917175922732.0,1
671,-1.0,0.0,12.0,8.0,9.0,6.0,-5.0,6.0,1650917175922732.0,1
672,11.0,1.0,-7.0,7.0,-1.0,-7.0,-12.0,-1.0,1650917175937897.0,1
673,-8.0,-4.0,0.0,-3.0,2.0,-5.0,7.0,-3.0,1650917175937897.0,1
674,-9.0,-4.0,-10.0,-24.0,-9.0,-2.0,-2.0,-1.0,1650917175938895.0,1
675,-9.0,1.0,-11.0,-22.0,-4.0,3.0,0.0,1.0,1650917175938895.0,1
676,20.0,5.0,5.0,10.0,-1.0,3.0,-4.0,-9.0,1650917175959955.0,1
677,-1.0,-8.0,-13.0,12.0,4.0,3.0,0.0,-1.0,1650917175959955.0,1
678,0.0,0.0,-11.0,-26.0,-12.0,-4.0,-5.0,2.0,1650917175961952.0,1
679,1.0,6.0,21.0,13.0,8.0,0.0,10.0,0.0,1650917175961952.0,1
680,-8.0,-2.0,10.0,24.0,15.0,4.0,-6.0,3.0,1650917175974138.0,1
681,0.0,0.0,-2.0,-7.0,-4.0,-2.0,7.0,-1.0,1650917175974138.0,1
682,-1.0,-5.0,-1.0,7.0,1.0,6.0,0.0,-2.0,1650917175982452.0,1
683,5.0,0.0,-9.0,-21.0,-15.0,-8.0,4.0,-5.0,1650917175982452.0,1
684,-22.0,-2.0,2.0,5.0,0.0,-4.0,-12.0,-4.0,1650917175997474.0,1
685,4.0,3.0,16.0,7.0,0.0,-1.0,-3.0,1.0,1650917175997474.0,1
686,-10.0,-6.0,-20.0,-12.0,-7.0,-2.0,-5.0,2.0,1650917175999338.0,1
687,19.0,10.0,12.0,22.0,11.0,0.0,9.0,-1.0,1650917175999338.0,1
688,1.0,-2.0,14.0,7.0,5.0,8.0,-3.0,3.0,1650917176019819.0,1
689,-9.0,-5.0,-9.0,-6.0,-4.0,-5.0,-4.0,-2.0,1650917176019819.0,1
690,-2.0,1.0,13.0,14.0,5.0,6.0,-9.0,-1.0,1650917176021818.0,1
691,25.0,-1.0,-1.0,9.0,-2.0,5.0,18.0,5.0,1650917176021818.0,1
692,-22.0,6.0,0.0,-21.0,-11.0,-9.0,-9.0,-2.0,1650917176034113.0,1
693,2.0,-10.0,3.0,11.0,-2.0,-10.0,2.0,3.0,1650917176034113.0,1
694,-6.0,1.0,-14.0,-16.0,0.0,-5.0,-8.0,-5.0,1650917176042270.0,1
695,-4.0,-2.0,-10.0,-10.0,-1.0,6.0,-6.0,-1.0,1650917176042270.0,1
696,-2.0,-2.0,7.0,12.0,8.0,8.0,7.0,3.0,1650917176058538.0,1
697,24.0,3.0,-12.0,-3.0,2.0,0.0,-5.0,-3.0,1650917176058538.0,1
698,-1.0,0.0,7.0,1.0,-4.0,-6.0,2.0,0.0,1650917176059349.0,1
699,-9.0,-3.0,-13.0,-12.0,-14.0,-26.0,-7.0,-4.0,1650917176059349.0,1
700,6.0,-1.0,-1.0,-2.0,-3.0,10.0,3.0,2.0,1650917176079856.0,1
701,-7.0,2.0,-6.0,0.0,7.0,13.0,-4.0,-1.0,1650917176079856.0,1
702,4.0,2.0,8.0,7.0,9.0,6.0,10.0,4.0,1650917176081887.0,1
703,-4.0,7.0,23.0,17.0,7.0,10.0,4.0,1.0,1650917176081887.0,1
704,14.0,-3.0,-20.0,-6.0,1.0,-8.0,-7.0,2.0,1650917176094025.0,1
705,-25.0,-6.0,-7.0,-9.0,-12.0,-13.0,-6.0,-6.0,1650917176094025.0,1
706,3.0,-1.0,9.0,5.0,-6.0,-5.0,0.0,-3.0,1650917176102495.0,1
707,-9.0,-5.0,-14.0,-3.0,-2.0,-1.0,1.0,-2.0,1650917176102495.0,1
708,0.0,-1.0,8.0,-6.0,-7.0,-8.0,-4.0,-2.0,1650917176118585.0,1
709,2.0,2.0,6.0,6.0,4.0,9.0,3.0,1.0,1650917176118585.0,1
710,1.0,2.0,-16.0,-17.0,3.0,-5.0,-12.0,0.0,1650917176118585.0,1
711,-23.0,-9.0,-7.0,-5.0,3.0,10.0,12.0,-2.0,1650917176118585.0,1
712,18.0,-4.0,-3.0,-3.0,-5.0,3.0,-3.0,-3.0,1650917176140791.0,1
713,-13.0,0.0,2.0,2.0,-1.0,-5.0,2.0,1.0,1650917176140791.0,1
714,8.0,6.0,17.0,6.0,-6.0,-10.0,-1.0,-1.0,1650917176141065.0,1
715,8.0,1.0,-13.0,-11.0,0.0,1.0,-9.0,1.0,1650917176141065.0,1
716,-4.0,-2.0,-10.0,-6.0,-6.0,-5.0,-5.0,-2.0,1650917176154354.0,1
717,-2.0,1.0,-4.0,-7.0,-2.0,-3.0,3.0,2.0,1650917176154354.0,1
718,-1.0,-4.0,-2.0,6.0,-3.0,3.0,0.0,-2.0,1650917176163155.0,1
719,3.0,2.0,15.0,4.0,8.0,-7.0,-6.0,-2.0,1650917176163155.0,1
720,-3.0,0.0,-6.0,-4.0,-1.0,3.0,8.0,-1.0,1650917176177893.0,1
721,4.0,5.0,9.0,11.0,3.0,5.0,-5.0,0.0,1650917176177893.0,1
722,1.0,-1.0,-5.0,-7.0,8.0,12.0,7.0,0.0,1650917176178892.0,1
723,1.0,1.0,9.0,4.0,1.0,4.0,6.0,1.0,1650917176178892.0,1
724,-2.0,-2.0,7.0,12.0,2.0,-7.0,-5.0,-2.0,1650917176200950.0,1
725,11.0,-1.0,-7.0,-7.0,-3.0,-7.0,0.0,-2.0,1650917176200950.0,1
726,-2.0,1.0,0.0,-1.0,-4.0,-4.0,-5.0,-2.0,1650917176200950.0,1
727,-4.0,-1.0,-1.0,0.0,-6.0,-2.0,-3.0,1.0,1650917176200950.0,1
728,-3.0,-2.0,1.0,3.0,3.0,-7.0,-4.0,-2.0,1650917176223439.0,1
729,8.0,4.0,-4.0,-3.0,1.0,2.0,0.0,1.0,1650917176223439.0,1
730,5.0,-4.0,-1.0,-1.0,-2.0,-3.0,5.0,0.0,1650917176223439.0,1
731,-4.0,-6.0,2.0,0.0,-6.0,-1.0,-6.0,-4.0,1650917176223439.0,1
732,6.0,4.0,5.0,3.0,-1.0,2.0,5.0,4.0,1650917176237578.0,1
733,-1.0,-4.0,-13.0,-12.0,6.0,4.0,1.0,0.0,1650917176237578.0,1
734,-3.0,-3.0,-1.0,5.0,0.0,1.0,1.0,2.0,1650917176244064.0,1
735,1.0,1.0,-3.0,-4.0,3.0,4.0,2.0,-6.0,1650917176244064.0,1
736,-5.0,-5.0,-7.0,-12.0,-5.0,-9.0,-6.0,-3.0,1650917176260201.0,1
737,-4.0,0.0,11.0,5.0,-8.0,-7.0,-2.0,-1.0,1650917176260201.0,1
738,-3.0,-6.0,-13.0,-12.0,2.0,-1.0,-2.0,-1.0,1650917176261201.0,1
739,1.0,2.0,9.0,9.0,3.0,11.0,3.0,2.0,1650917176261201.0,1
740,1.0,3.0,1.0,-2.0,1.0,1.0,1.0,2.0,1650917176282270.0,1
741,-5.0,1.0,3.0,2.0,0.0,1.0,0.0,-3.0,1650917176282270.0,1
742,-1.0,-1.0,2.0,5.0,-8.0,-4.0,-2.0,-5.0,1650917176284298.0,1
743,0.0,-4.0,-3.0,-1.0,4.0,-1.0,-1.0,-1.0,1650917176284298.0,1
744,0.0,1.0,4.0,6.0,7.0,7.0,4.0,1.0,1650917176297748.0,1
745,-1.0,1.0,-4.0,-1.0,-3.0,-9.0,-4.0,-1.0,1650917176297748.0,1
746,-4.0,-1.0,-4.0,-7.0,-5.0,-8.0,1.0,0.0,1650917176298583.0,1
747,-2.0,-7.0,-21.0,-19.0,-5.0,4.0,-3.0,0.0,1650917176298583.0,1
748,3.0,2.0,-1.0,-4.0,5.0,9.0,0.0,-2.0,1650917176320046.0,1
749,0.0,-2.0,7.0,7.0,1.0,5.0,6.0,2.0,1650917176320046.0,1
750,-1.0,1.0,-2.0,-4.0,1.0,-4.0,1.0,2.0,1650917176321908.0,1
751,-5.0,-4.0,1.0,4.0,-8.0,-14.0,-5.0,-2.0,1650917176321908.0,1
752,2.0,-1.0,-5.0,-1.0,-3.0,-1.0,-3.0,1.0,1650917176343397.0,1
753,-1.0,-2.0,-6.0,-5.0,-2.0,0.0,-2.0,0.0,1650917176343397.0,1
754,0.0,0.0,0.0,9.0,14.0,15.0,-4.0,-1.0,1650917176345390.0,1
755,4.0,7.0,10.0,3.0,3.0,1.0,6.0,4.0,1650917176345390.0,1
756,-11.0,-7.0,1.0,1.0,-6.0,-4.0,6.0,-3.0,1650917176356713.0,1
757,-2.0,-2.0,-9.0,-7.0,-9.0,-17.0,-8.0,-6.0,1650917176356713.0,1
758,0.0,-3.0,-5.0,-9.0,-11.0,-4.0,2.0,5.0,1650917176363696.0,1
759,4.0,0.0,11.0,13.0,6.0,19.0,6.0,9.0,1650917176363696.0,1
760,-4.0,2.0,-1.0,-1.0,9.0,11.0,3.0,-2.0,1650917176380726.0,1
761,2.0,2.0,1.0,-6.0,1.0,-1.0,2.0,0.0,1650917176380726.0,1
762,-3.0,-2.0,-5.0,-7.0,-9.0,-15.0,-8.0,-6.0,1650917176381757.0,1
763,2.0,-1.0,-8.0,-4.0,-6.0,-10.0,-6.0,-1.0,1650917176381757.0,1
764,1.0,0.0,7.0,4.0,-1.0,1.0,-1.0,1.0,1650917176403039.0,1
765,-1.0,1.0,9.0,3.0,4.0,2.0,-1.0,0.0,1650917176403039.0,1
766,-1.0,0.0,-9.0,-6.0,2.0,5.0,4.0,1.0,1650917176404039.0,1
767,-2.0,-3.0,3.0,1.0,-2.0,0.0,0.0,0.0,1650917176404039.0,1
768,0.0,2.0,4.0,5.0,-4.0,-6.0,-1.0,0.0,1650917176418066.0,1
769,-3.0,-5.0,-9.0,-6.0,-1.0,1.0,-2.0,-5.0,1650917176418066.0,1
770,2.0,1.0,15.0,13.0,1.0,1.0,3.0,3.0,1650917176424044.0,1
771,-4.0,1.0,3.0,-1.0,-4.0,-5.0,-3.0,-6.0,1650917176424044.0,1
772,-3.0,-3.0,-10.0,-2.0,4.0,-3.0,-4.0,0.0,1650917176441051.0,1
773,1.0,0.0,-16.0,-18.0,-1.0,8.0,1.0,0.0,1650917176441051.0,1
774,0.0,3.0,4.0,7.0,0.0,-2.0,4.0,1.0,1650917176441051.0,1
775,-1.0,1.0,-4.0,-6.0,2.0,2.0,-5.0,-1.0,1650917176441051.0,1
776,3.0,0.0,3.0,-2.0,-8.0,-7.0,-4.0,0.0,1650917176462029.0,1
777,-1.0,0.0,11.0,16.0,-2.0,-14.0,0.0,1.0,1650917176462029.0,1
778,3.0,-1.0,-10.0,-2.0,7.0,18.0,7.0,1.0,1650917176463994.0,1
779,-4.0,0.0,8.0,6.0,1.0,9.0,-2.0,-2.0,1650917176463994.0,1
780,1.0,-1.0,-8.0,-8.0,-8.0,-14.0,-5.0,0.0,1650917176476396.0,1
781,0.0,0.0,-1.0,0.0,1.0,1.0,-8.0,-3.0,1650917176476396.0,1
782,-1.0,-2.0,-1.0,-6.0,-4.0,-3.0,13.0,0.0,1650917176483380.0,1
783,2.0,1.0,-1.0,3.0,1.0,-6.0,-1.0,0.0,1650917176483380.0,1
784,1.0,-5.0,10.0,16.0,2.0,5.0,0.0,1.0,1650917176499718.0,1
785,-1.0,-2.0,-6.0,-15.0,3.0,1.0,-1.0,0.0,1650917176499718.0,1
786,-3.0,0.0,3.0,7.0,-4.0,-5.0,-4.0,-2.0,1650917176501738.0,1
787,-4.0,-4.0,0.0,-3.0,-2.0,5.0,3.0,-2.0,1650917176501738.0,1
788,1.0,1.0,-14.0,-12.0,2.0,1.0,-3.0,0.0,1650917176522703.0,1
789,-2.0,-2.0,2.0,1.0,-1.0,-2.0,1.0,-5.0,1650917176522703.0,1
790,0.0,-1.0,-2.0,-4.0,-3.0,-4.0,-3.0,4.0,1650917176523577.0,1
791,2.0,3.0,4.0,3.0,-4.0,-8.0,-7.0,-5.0,1650917176523577.0,1
792,0.0,0.0,-2.0,2.0,2.0,4.0,6.0,0.0,1650917176537187.0,0
793,1.0,1.0,5.0,8.0,2.0,13.0,13.0,6.0,1650917176537187.0,0
794,-2.0,0.0,-2.0,-4.0,2.0,-2.0,-3.0,0.0,1650917176543173.0,0
795,0.0,-3.0,-14.0,-5.0,-5.0,-16.0,-4.0,-1.0,1650917176543173.0,0
796,2.0,2.0,5.0,-5.0,-5.0,-4.0,-4.0,-1.0,1650917176559393.0,0
797,-3.0,-1.0,3.0,8.0,4.0,17.0,-3.0,-4.0,1650917176559393.0,0
798,-1.0,-1.0,-8.0,-6.0,-2.0,0.0,-1.0,-2.0,1650917176561390.0,0
799,0.0,0.0,7.0,10.0,3.0,-2.0,-1.0,1.0,1650917176561390.0,0
800,3.0,-3.0,-5.0,-3.0,4.0,0.0,2.0,0.0,1650917176582699.0,0
801,0.0,-2.0,-1.0,-1.0,-8.0,-8.0,-2.0,-2.0,1650917176582699.0,0
802,-3.0,-1.0,6.0,3.0,-4.0,0.0,-3.0,-3.0,1650917176583697.0,0
803,-5.0,4.0,-2.0,-3.0,-1.0,-2.0,-3.0,-2.0,1650917176583697.0,0
804,6.0,2.0,0.0,1.0,-6.0,-4.0,3.0,4.0,1650917176596660.0,0
805,-1.0,-1.0,-1.0,-3.0,3.0,6.0,-2.0,2.0,1650917176596660.0,0
806,-1.0,-1.0,5.0,9.0,8.0,6.0,2.0,-1.0,1650917176603643.0,0
807,0.0,4.0,-2.0,-4.0,4.0,3.0,-4.0,2.0,1650917176603643.0,0
808,-4.0,0.0,5.0,3.0,-5.0,-2.0,9.0,2.0,1650917176619849.0,0
809,2.0,0.0,-10.0,-6.0,-7.0,-1.0,-4.0,1.0,1650917176619849.0,0
810,-2.0,2.0,-2.0,-4.0,-2.0,-3.0,-2.0,-3.0,1650917176621844.0,0
811,-2.0,-3.0,1.0,1.0,0.0,1.0,2.0,0.0,1650917176621844.0,0
812,-2.0,0.0,3.0,-2.0,-3.0,-4.0,-4.0,2.0,1650917176642324.0,0
813,2.0,-5.0,-15.0,-8.0,-3.0,0.0,-1.0,-8.0,1650917176642324.0,0
814,-1.0,0.0,-3.0,-7.0,-3.0,-5.0,-4.0,0.0,1650917176644156.0,0
815,1.0,-2.0,-6.0,-1.0,0.0,3.0,2.0,2.0,1650917176644156.0,0
816,-2.0,1.0,5.0,3.0,5.0,4.0,-1.0,-3.0,1650917176656282.0,0
817,1.0,1.0,2.0,4.0,2.0,-4.0,3.0,5.0,1650917176656282.0,0
818,-1.0,-1.0,7.0,5.0,-3.0,-3.0,-4.0,-3.0,1650917176665100.0,0
819,-3.0,-4.0,1.0,3.0,0.0,0.0,3.0,2.0,1650917176665100.0,0
820,0.0,-1.0,-6.0,-7.0,-5.0,-3.0,0.0,-2.0,1650917176679484.0,0
821,-2.0,1.0,4.0,2.0,-5.0,-6.0,-2.0,0.0,1650917176679484.0,0
822,0.0,-2.0,4.0,7.0,5.0,8.0,0.0,-1.0,1650917176681482.0,0
823,-1.0,-4.0,-17.0,-14.0,3.0,9.0,1.0,0.0,1650917176681482.0,0
824,3.0,4.0,5.0,6.0,10.0,14.0,13.0,3.0,1650917176703053.0,0
825,-2.0,-7.0,-2.0,0.0,-6.0,-13.0,-8.0,-2.0,1650917176703053.0,0
826,0.0,2.0,4.0,0.0,-6.0,-11.0,0.0,0.0,1650917176703892.0,0
827,1.0,-3.0,-5.0,-2.0,-1.0,2.0,-4.0,-4.0,1650917176703892.0,0
828,-2.0,-2.0,-8.0,-3.0,5.0,5.0,-11.0,-2.0,1650917176715852.0,0
829,2.0,1.0,2.0,-2.0,4.0,-1.0,13.0,5.0,1650917176715852.0,0
830,0.0,-2.0,0.0,-2.0,-7.0,-12.0,-5.0,-1.0,1650917176724806.0,0
831,-3.0,-4.0,-6.0,-5.0,-8.0,-2.0,-4.0,-6.0,1650917176724806.0,0
832,-1.0,-1.0,-4.0,-2.0,1.0,9.0,0.0,-3.0,1650917176740873.0,0
833,4.0,4.0,11.0,13.0,6.0,0.0,1.0,1.0,1650917176740873.0,0
834,-7.0,-1.0,-11.0,-12.0,0.0,-2.0,-11.0,0.0,1650917176741874.0,0
835,2.0,2.0,4.0,1.0,-1.0,-9.0,17.0,4.0,1650917176741874.0,0
836,-3.0,-2.0,0.0,1.0,-1.0,7.0,-7.0,-1.0,1650917176762493.0,0
837,3.0,0.0,3.0,0.0,-1.0,8.0,2.0,-1.0,1650917176762493.0,0
838,0.0,-1.0,-4.0,-5.0,-3.0,-4.0,1.0,-2.0,1650917176764324.0,0
839,2.0,2.0,5.0,5.0,-1.0,-7.0,-12.0,-3.0,1650917176764324.0,0
840,-1.0,-2.0,-5.0,-1.0,-2.0,-4.0,5.0,0.0,1650917176776466.0,0
841,-2.0,0.0,0.0,-1.0,6.0,10.0,0.0,0.0,1650917176776466.0,0
842,0.0,-2.0,-2.0,3.0,1.0,1.0,1.0,-2.0,1650917176785556.0,0
843,1.0,1.0,4.0,1.0,-1.0,-4.0,-2.0,0.0,1650917176785556.0,0
844,-1.0,-5.0,-9.0,-6.0,-2.0,-11.0,-2.0,-2.0,1650917176800509.0,0
845,-2.0,1.0,-6.0,-5.0,-5.0,-1.0,-2.0,1.0,1650917176800509.0,0
846,-2.0,-4.0,7.0,10.0,3.0,-1.0,-8.0,-4.0,1650917176801742.0,0
847,0.0,1.0,-1.0,-3.0,3.0,16.0,17.0,3.0,1650917176801742.0,0
848,0.0,1.0,4.0,6.0,-1.0,5.0,-8.0,-2.0,1650917176821852.0,0
849,-2.0,-2.0,-15.0,-18.0,-9.0,-10.0,6.0,-1.0,1650917176821852.0,0
850,0.0,-1.0,-9.0,-8.0,-7.0,-6.0,3.0,-1.0,1650917176829351.0,0
851,0.0,1.0,3.0,0.0,-1.0,-6.0,-4.0,3.0,1650917176829351.0,0
852,-2.0,-1.0,-1.0,1.0,-2.0,-8.0,0.0,-4.0,1650917176835715.0,0
853,-2.0,-2.0,-4.0,-5.0,0.0,2.0,-7.0,-3.0,1650917176835715.0,0
854,0.0,-2.0,-2.0,0.0,1.0,6.0,4.0,1.0,1650917176845617.0,0
855,0.0,-2.0,-5.0,-3.0,-3.0,-3.0,-7.0,0.0,1650917176845617.0,0
856,-3.0,-4.0,0.0,-1.0,-3.0,-6.0,8.0,0.0,1650917176860384.0,0
857,4.0,0.0,11.0,13.0,3.0,0.0,-3.0,0.0,1650917176860384.0,0
858,-3.0,3.0,-6.0,-7.0,9.0,7.0,3.0,1.0,1650917176861373.0,0
859,0.0,-5.0,5.0,11.0,5.0,4.0,-1.0,1.0,1650917176861373.0,0
860,1.0,-1.0,-3.0,-4.0,-1.0,1.0,-5.0,-1.0,1650917176882238.0,0
861,-3.0,2.0,2.0,3.0,-4.0,-10.0,-2.0,-2.0,1650917176882238.0,0
862,2.0,2.0,1.0,-2.0,-5.0,-4.0,-2.0,1.0,1650917176889919.0,0
863,0.0,1.0,-1.0,-4.0,1.0,7.0,-1.0,-2.0,1650917176889919.0,0
864,0.0,0.0,-4.0,-9.0,0.0,-3.0,-1.0,-1.0,1650917176896244.0,0
865,-2.0,-1.0,8.0,16.0,2.0,17.0,-9.0,-1.0,1650917176896244.0,0
866,4.0,2.0,6.0,3.0,0.0,4.0,23.0,4.0,1650917176905218.0,0
867,-2.0,-2.0,-5.0,-4.0,-2.0,-9.0,-4.0,-3.0,1650917176905218.0,0
868,-1.0,1.0,-2.0,-7.0,-3.0,-7.0,-8.0,-1.0,1650917176920445.0,0
869,-1.0,0.0,-3.0,-3.0,-3.0,-6.0,3.0,-2.0,1650917176920445.0,0
870,0.0,-4.0,-3.0,-2.0,0.0,-1.0,-7.0,-1.0,1650917176921359.0,0
871,-2.0,0.0,2.0,1.0,-3.0,-1.0,2.0,-2.0,1650917176921359.0,0
872,0.0,0.0,3.0,4.0,-4.0,-1.0,1.0,0.0,1650917176942698.0,0
873,-1.0,0.0,-2.0,0.0,5.0,1.0,-6.0,-2.0,1650917176942698.0,0
874,0.0,0.0,2.0,5.0,2.0,3.0,-6.0,-1.0,1650917176943695.0,0
875,0.0,2.0,-2.0,-3.0,-5.0,-6.0,5.0,3.0,1650917176943695.0,0
876,-3.0,-4.0,-3.0,-3.0,-1.0,-14.0,-3.0,-4.0,1650917176955704.0,0
877,-1.0,0.0,-6.0,-6.0,-1.0,9.0,5.0,1.0,1650917176955704.0,0
878,0.0,0.0,0.0,2.0,2.0,10.0,1.0,-2.0,1650917176964671.0,0
879,0.0,0.0,0.0,2.0,2.0,1.0,-5.0,1.0,1650917176964671.0,0
880,0.0,0.0,-7.0,-9.0,-5.0,4.0,-7.0,-1.0,1650917176980425.0,0
881,-2.0,0.0,3.0,3.0,-5.0,-11.0,11.0,5.0,1650917176980425.0,0
882,1.0,0.0,0.0,-2.0,7.0,5.0,2.0,-4.0,1650917176981811.0,0
883,-4.0,1.0,1.0,0.0,-1.0,-1.0,-8.0,-4.0,1650917176981811.0,0
884,1.0,2.0,5.0,7.0,6.0,5.0,15.0,5.0,1650917177003279.0,0
885,-1.0,0.0,-3.0,-3.0,1.0,-1.0,-4.0,-1.0,1650917177003279.0,0
886,0.0,-2.0,-1.0,-5.0,-15.0,-13.0,-9.0,-1.0,1650917177004144.0,0
887,0.0,-3.0,0.0,1.0,-8.0,-8.0,-1.0,-3.0,1650917177004144.0,0
888,-1.0,-1.0,-3.0,2.0,5.0,4.0,2.0,-2.0,1650917177016079.0,0
889,-2.0,-2.0,-4.0,0.0,7.0,5.0,-2.0,1.0,1650917177016079.0,0
890,-1.0,0.0,-4.0,-1.0,-3.0,-1.0,3.0,1.0,1650917177025232.0,0
891,0.0,3.0,6.0,-1.0,-7.0,-11.0,-7.0,-6.0,1650917177025232.0,0
892,-3.0,-2.0,5.0,3.0,-4.0,14.0,3.0,1.0,1650917177039528.0,0
893,2.0,0.0,-1.0,2.0,9.0,4.0,5.0,1.0,1650917177039528.0,0
894,-1.0,-1.0,0.0,0.0,3.0,4.0,-4.0,-2.0,1650917177041525.0,0
895,-1.0,-1.0,-8.0,-6.0,-5.0,1.0,4.0,1.0,1650917177041525.0,0
896,1.0,0.0,3.0,0.0,-5.0,-7.0,-2.0,-1.0,1650917177062517.0,0
897,-1.0,0.0,3.0,1.0,-2.0,1.0,-2.0,-1.0,1650917177062517.0,0
898,3.0,1.0,0.0,-1.0,1.0,0.0,3.0,2.0,1650917177064381.0,0
899,0.0,0.0,-5.0,-3.0,5.0,-3.0,-1.0,0.0,1650917177064381.0,0
900,0.0,-2.0,2.0,6.0,0.0,-5.0,-5.0,-3.0,1650917177075533.0,0
901,-1.0,2.0,-1.0,-11.0,-8.0,-12.0,-9.0,-3.0,1650917177075533.0,0
902,-1.0,0.0,4.0,4.0,-8.0,-2.0,9.0,4.0,1650917177085547.0,0
903,1.0,0.0,-2.0,-2.0,-2.0,2.0,2.0,0.0,1650917177085547.0,0
904,-1.0,-1.0,-8.0,-5.0,11.0,7.0,-1.0,-2.0,1650917177101027.0,0
905,4.0,-1.0,6.0,10.0,8.0,0.0,-9.0,-3.0,1650917177101027.0,0
906,-5.0,0.0,-1.0,-2.0,0.0,-6.0,2.0,-1.0,1650917177101862.0,0
907,2.0,-1.0,3.0,4.0,-5.0,-2.0,-1.0,4.0,1650917177101862.0,0
908,-1.0,0.0,-6.0,-9.0,-10.0,5.0,-3.0,-7.0,1650917177123300.0,0
909,-1.0,-4.0,-9.0,-5.0,-2.0,5.0,2.0,2.0,1650917177123300.0,0
910,2.0,1.0,-1.0,0.0,8.0,9.0,4.0,-4.0,1650917177124163.0,0
911,0.0,-1.0,0.0,0.0,5.0,-2.0,0.0,0.0,1650917177124163.0,0
912,-1.0,-3.0,-9.0,-5.0,-9.0,-25.0,-4.0,1.0,1650917177136461.0,0
913,-3.0,-3.0,0.0,-2.0,-13.0,-7.0,-11.0,6.0,1650917177136461.0,0
914,2.0,-2.0,-3.0,-5.0,0.0,6.0,11.0,-1.0,1650917177144773.0,0
915,-4.0,4.0,4.0,4.0,6.0,13.0,7.0,-16.0,1650917177144773.0,0
916,1.0,2.0,7.0,4.0,8.0,6.0,-21.0,3.0,1650917177159361.0,0
917,0.0,-2.0,-9.0,-7.0,-3.0,-7.0,38.0,12.0,1650917177159361.0,0
918,-4.0,-1.0,-6.0,-7.0,-2.0,-11.0,-18.0,-16.0,1650917177166347.0,0
919,4.0,0.0,-5.0,-3.0,-5.0,0.0,4.0,37.0,1650917177166347.0,0
920,-2.0,0.0,10.0,8.0,-3.0,1.0,-6.0,-45.0,1650917177182539.0,0
921,-7.0,1.0,5.0,9.0,6.0,0.0,-26.0,-29.0,1650917177182539.0,0
922,-4.0,-2.0,9.0,9.0,9.0,0.0,-2.0,26.0,1650917177184409.0,0
923,0.0,-1.0,-15.0,-9.0,3.0,3.0,10.0,2.0,1650917177184409.0,0
924,5.0,3.0,-8.0,-16.0,-3.0,-2.0,7.0,32.0,1650917177205775.0,0
925,-2.0,1.0,10.0,9.0,-5.0,2.0,3.0,6.0,1650917177205775.0,0
926,2.0,0.0,-4.0,-2.0,-6.0,0.0,-1.0,-17.0,1650917177206893.0,0
927,-6.0,2.0,10.0,2.0,-1.0,-10.0,-5.0,-4.0,1650917177206893.0,0
928,5.0,1.0,-5.0,-4.0,-4.0,3.0,6.0,9.0,1650917177220366.0,0
929,-1.0,4.0,2.0,-3.0,-2.0,6.0,-15.0,-13.0,1650917177220366.0,0
930,1.0,1.0,2.0,1.0,6.0,7.0,28.0,15.0,1650917177221220.0,0
931,0.0,-7.0,-2.0,2.0,6.0,3.0,0.0,2.0,1650917177221220.0,0
932,-6.0,-1.0,7.0,6.0,-3.0,-9.0,-5.0,-8.0,1650917177242036.0,0
933,-2.0,-6.0,-4.0,-4.0,1.0,0.0,6.0,-1.0,1650917177242036.0,0
934,0.0,-7.0,-6.0,2.0,-5.0,1.0,-14.0,-5.0,1650917177243881.0,0
935,8.0,6.0,10.0,4.0,1.0,3.0,6.0,21.0,1650917177243881.0,0
936,-3.0,4.0,2.0,4.0,4.0,0.0,0.0,-37.0,1650917177265033.0,0
937,-2.0,1.0,-10.0,-9.0,-6.0,-9.0,-10.0,-12.0,1650917177265033.0,0
938,-3.0,1.0,-2.0,-3.0,-2.0,-4.0,-7.0,9.0,1650917177266899.0,0
939,-1.0,0.0,-5.0,-7.0,-8.0,-3.0,-3.0,-8.0,1650917177266899.0,0
940,3.0,17.0,7.0,5.0,-1.0,1.0,7.0,24.0,1650917177280713.0,0
941,-2.0,-35.0,-12.0,-8.0,4.0,2.0,11.0,28.0,1650917177280713.0,0
942,-7.0,-9.0,-5.0,0.0,1.0,1.0,2.0,-30.0,1650917177281925.0,0
943,-7.0,-13.0,-2.0,0.0,7.0,5.0,-11.0,-18.0,1650917177281925.0,0
944,5.0,9.0,5.0,5.0,4.0,4.0,3.0,19.0,1650917177302584.0,0
945,7.0,22.0,7.0,2.0,-3.0,-10.0,3.0,18.0,1650917177302584.0,0
946,12.0,15.0,7.0,6.0,-12.0,-8.0,1.0,15.0,1650917177304421.0,0
947,-8.0,0.0,-5.0,-10.0,-2.0,-4.0,-14.0,-41.0,1650917177304421.0,2
948,-5.0,-12.0,-7.0,-14.0,7.0,5.0,2.0,1.0,1650917177325027.0,2
949,0.0,10.0,-3.0,-6.0,1.0,5.0,0.0,1.0,1650917177325027.0,2
950,0.0,4.0,2.0,4.0,-3.0,-13.0,-5.0,13.0,1650917177326028.0,2
951,11.0,9.0,-2.0,-2.0,-7.0,5.0,4.0,9.0,1650917177326028.0,2
952,-3.0,-6.0,10.0,14.0,8.0,12.0,5.0,5.0,1650917177339789.0,2
953,-18.0,-32.0,-5.0,2.0,10.0,11.0,0.0,-6.0,1650917177339789.0,2
954,-7.0,-20.0,-8.0,-11.0,-10.0,-10.0,-6.0,0.0,1650917177346498.0,2
955,9.0,23.0,-1.0,10.0,-4.0,-15.0,0.0,-12.0,1650917177346498.0,2
956,14.0,21.0,4.0,-2.0,-3.0,-2.0,2.0,15.0,1650917177362710.0,2
957,-12.0,-1.0,5.0,3.0,-3.0,-4.0,-15.0,-7.0,1650917177362710.0,2
958,-12.0,-19.0,-5.0,1.0,3.0,3.0,2.0,-7.0,1650917177363579.0,2
959,0.0,-7.0,11.0,7.0,4.0,7.0,7.0,39.0,1650917177363579.0,2
960,13.0,6.0,-14.0,-2.0,-6.0,0.0,10.0,-1.0,1650917177385806.0,2
961,25.0,36.0,16.0,0.0,-2.0,-6.0,-3.0,-40.0,1650917177385806.0,2
962,-3.0,8.0,6.0,4.0,3.0,2.0,-13.0,-10.0,1650917177386646.0,2
963,-7.0,-27.0,-35.0,-36.0,-4.0,-4.0,-7.0,-4.0,1650917177386646.0,2
964,-5.0,-9.0,11.0,18.0,3.0,-4.0,-9.0,22.0,1650917177399782.0,2
965,-19.0,-49.0,0.0,12.0,-5.0,-2.0,18.0,7.0,1650917177399782.0,2
966,-11.0,-42.0,-11.0,0.0,2.0,1.0,-5.0,-16.0,1650917177406733.0,2
967,28.0,55.0,8.0,-10.0,-16.0,-6.0,-2.0,5.0,1650917177406733.0,2
968,-8.0,-20.0,12.0,28.0,23.0,3.0,-2.0,-5.0,1650917177422708.0,2
969,-11.0,-21.0,-16.0,-22.0,-16.0,-7.0,5.0,8.0,1650917177422708.0,2
970,32.0,43.0,31.0,19.0,20.0,21.0,11.0,16.0,1650917177423547.0,2
971,-21.0,-28.0,-33.0,-26.0,-7.0,4.0,-1.0,-7.0,1650917177423547.0,2
972,9.0,-6.0,-11.0,-18.0,-19.0,-17.0,-12.0,0.0,1650917177444710.0,2
973,11.0,10.0,15.0,-2.0,-5.0,1.0,10.0,2.0,1650917177444710.0,2
974,-4.0,8.0,22.0,22.0,11.0,4.0,1.0,6.0,1650917177446734.0,2
975,28.0,18.0,14.0,20.0,18.0,2.0,-5.0,5.0,1650917177446734.0,2
976,-20.0,18.0,4.0,-16.0,-13.0,-3.0,-5.0,-9.0,1650917177458892.0,2
977,21.0,13.0,-21.0,6.0,20.0,13.0,12.0,3.0,1650917177458892.0,2
978,4.0,80.0,-28.0,-7.0,-12.0,-3.0,7.0,4.0,1650917177465841.0,2
979,-30.0,-96.0,-2.0,-32.0,-24.0,-9.0,-17.0,-8.0,1650917177465841.0,2
980,-30.0,-79.0,-7.0,12.0,6.0,0.0,10.0,-10.0,1650917177482259.0,2
981,10.0,99.0,36.0,14.0,-26.0,-30.0,-38.0,-32.0,1650917177482259.0,2
982,-41.0,-88.0,-27.0,9.0,18.0,2.0,-5.0,-21.0,1650917177484096.0,2
983,10.0,63.0,5.0,8.0,26.0,9.0,10.0,14.0,1650917177484096.0,2
984,-21.0,-54.0,-24.0,-36.0,-22.0,8.0,2.0,-3.0,1650917177505199.0,2
985,-20.0,-43.0,-23.0,-9.0,-12.0,-9.0,-4.0,14.0,1650917177505199.0,2
986,59.0,46.0,5.0,-3.0,-26.0,-19.0,-16.0,-6.0,1650917177506071.0,2
987,28.0,60.0,28.0,26.0,11.0,9.0,14.0,15.0,1650917177506071.0,2
988,42.0,-70.0,5.0,33.0,61.0,21.0,24.0,19.0,1650917177520158.0,2
989,-6.0,56.0,8.0,-26.0,-14.0,0.0,-18.0,-8.0,1650917177520158.0,2
990,-7.0,64.0,14.0,-1.0,-16.0,-11.0,-12.0,26.0,1650917177527980.0,2
991,15.0,10.0,21.0,20.0,1.0,4.0,28.0,-47.0,1650917177527980.0,2
992,-53.0,-31.0,-31.0,-15.0,-4.0,-3.0,-3.0,-16.0,1650917177542593.0,2
993,20.0,57.0,33.0,41.0,3.0,-12.0,-2.0,-8.0,1650917177542593.0,2
994,23.0,-54.0,1.0,-29.0,-3.0,19.0,30.0,33.0,1650917177543538.0,2
995,-57.0,20.0,-36.0,-44.0,-36.0,-21.0,-20.0,-11.0,1650917177543538.0,2
996,24.0,60.0,3.0,-8.0,-14.0,-3.0,-6.0,9.0,1650917177564480.0,2
997,-27.0,-18.0,13.0,21.0,18.0,-7.0,-22.0,-52.0,1650917177564480.0,2
998,4.0,81.0,3.0,-6.0,-13.0,-1.0,-10.0,-23.0,1650917177566313.0,2
999,56.0,37.0,43.0,45.0,14.0,16.0,23.0,27.0,1650917177566313.0,2
1000,-24.0,48.0,-52.0,-59.0,-21.0,-7.0,-9.0,-13.0,1650917177579637.0,2
1001,-24.0,-109.0,-25.0,-3.0,4.0,-1.0,3.0,24.0,1650917177579637.0,2
1002,8.0,13.0,6.0,1.0,-4.0,5.0,9.0,9.0,1650917177586781.0,2
1003,-10.0,-28.0,-19.0,1.0,6.0,3.0,-5.0,-5.0,1650917177586781.0,2
1004,45.0,75.0,27.0,28.0,-3.0,-12.0,-20.0,-29.0,1650917177603108.0,2
1005,-35.0,-2.0,8.0,-2.0,7.0,9.0,25.0,39.0,1650917177603108.0,2
1006,5.0,-24.0,-29.0,-17.0,2.0,-5.0,7.0,0.0,1650917177603947.0,2
1007,-34.0,-95.0,-7.0,-6.0,-9.0,-4.0,-27.0,-3.0,1650917177603947.0,2
1008,-13.0,-23.0,0.0,-3.0,-21.0,-8.0,2.0,-38.0,1650917177625933.0,2
1009,13.0,-12.0,-14.0,-3.0,7.0,3.0,4.0,-8.0,1650917177625933.0,2
1010,-43.0,-36.0,11.0,8.0,-8.0,-15.0,-26.0,-24.0,1650917177626934.0,2
1011,-17.0,33.0,8.0,11.0,17.0,15.0,14.0,-11.0,1650917177626934.0,2
1012,35.0,27.0,19.0,8.0,1.0,-9.0,-18.0,15.0,1650917177639144.0,2
1013,16.0,-37.0,-13.0,-13.0,-16.0,3.0,0.0,8.0,1650917177639144.0,2
1014,13.0,-2.0,-11.0,-9.0,23.0,14.0,19.0,17.0,1650917177647330.0,2
1015,-4.0,6.0,16.0,42.0,1.0,-7.0,-6.0,-9.0,1650917177647330.0,2
1016,-26.0,-3.0,-2.0,-4.0,2.0,8.0,8.0,7.0,1650917177663836.0,2
1017,3.0,-10.0,-10.0,-4.0,5.0,-17.0,-11.0,-11.0,1650917177663836.0,2
1018,15.0,4.0,-7.0,-34.0,-31.0,0.0,-6.0,23.0,1650917177663836.0,2
1019,-7.0,3.0,11.0,19.0,-1.0,-7.0,3.0,-8.0,1650917177663836.0,2
1020,7.0,18.0,2.0,-13.0,-4.0,3.0,3.0,-4.0,1650917177685326.0,2
1021,18.0,12.0,-18.0,-11.0,-6.0,9.0,3.0,14.0,1650917177685326.0,2
1022,-14.0,0.0,23.0,22.0,10.0,-12.0,-11.0,4.0,1650917177686841.0,2
1023,0.0,-1.0,-19.0,-26.0,-14.0,-10.0,-9.0,1.0,1650917177686841.0,2
1024,1.0,18.0,24.0,22.0,-3.0,-2.0,17.0,-8.0,1650917177698777.0,2
1025,26.0,13.0,-4.0,-5.0,15.0,10.0,5.0,26.0,1650917177698777.0,2
1026,-6.0,-17.0,6.0,2.0,8.0,-1.0,-14.0,-13.0,1650917177707795.0,2
1027,-13.0,-13.0,-12.0,-7.0,4.0,8.0,24.0,11.0,1650917177707795.0,2
1028,7.0,7.0,18.0,7.0,-5.0,-8.0,-8.0,12.0,1650917177723102.0,2
1029,-32.0,1.0,-9.0,-2.0,-2.0,-1.0,-3.0,-26.0,1650917177723102.0,2
1030,-18.0,-20.0,-11.0,7.0,7.0,11.0,-3.0,-26.0,1650917177723940.0,2
1031,-8.0,-7.0,3.0,0.0,-7.0,4.0,-4.0,-14.0,1650917177723940.0,2
1032,24.0,0.0,-6.0,8.0,34.0,2.0,2.0,29.0,1650917177745417.0,2
1033,21.0,8.0,-1.0,-2.0,-5.0,7.0,13.0,10.0,1650917177745417.0,2
1034,-5.0,1.0,-6.0,-10.0,-8.0,-4.0,-1.0,3.0,1650917177746262.0,2
1035,5.0,-5.0,9.0,-4.0,17.0,9.0,-2.0,12.0,1650917177746262.0,2
1036,-14.0,-16.0,-23.0,-5.0,-25.0,-9.0,-2.0,-9.0,1650917177759255.0,2
1037,10.0,31.0,41.0,22.0,8.0,0.0,5.0,-4.0,1650917177759255.0,2
1038,-18.0,-38.0,-43.0,-23.0,-11.0,-8.0,-17.0,-31.0,1650917177767401.0,2
1039,14.0,-8.0,-5.0,-7.0,-3.0,-2.0,-1.0,11.0,1650917177767401.0,2
1040,-21.0,-26.0,-29.0,-7.0,-2.0,2.0,-1.0,5.0,1650917177782539.0,2
1041,5.0,26.0,38.0,-5.0,-9.0,-5.0,-17.0,2.0,1650917177782539.0,2
1042,-12.0,3.0,9.0,13.0,7.0,-6.0,-14.0,-17.0,1650917177783540.0,2
1043,1.0,-14.0,-28.0,-11.0,-13.0,-14.0,8.0,23.0,1650917177783540.0,2
1044,31.0,11.0,24.0,19.0,20.0,28.0,23.0,14.0,1650917177812999.0,2
1045,-35.0,-20.0,-6.0,-3.0,3.0,7.0,17.0,5.0,1650917177812999.0,2
1046,27.0,-2.0,18.0,8.0,-11.0,-9.0,16.0,19.0,1650917177813841.0,2
1047,-10.0,-14.0,-1.0,-5.0,-10.0,-10.0,-24.0,2.0,1650917177813841.0,2
1048,-10.0,15.0,14.0,-7.0,-19.0,-13.0,-5.0,-11.0,1650917177818827.0,2
1049,9.0,-10.0,-32.0,-21.0,28.0,17.0,-7.0,-13.0,1650917177818827.0,2
1050,-4.0,6.0,21.0,24.0,23.0,11.0,6.0,-3.0,1650917177827272.0,2
1051,4.0,2.0,17.0,8.0,14.0,2.0,-1.0,27.0,1650917177827272.0,2
1052,-15.0,-20.0,-16.0,-13.0,-29.0,-15.0,-20.0,-24.0,1650917177849423.0,2
1053,-2.0,-13.0,-1.0,3.0,6.0,6.0,21.0,8.0,1650917177849423.0,2
1054,0.0,0.0,-9.0,-18.0,-12.0,-6.0,-2.0,2.0,1650917177851421.0,2
1055,11.0,35.0,26.0,6.0,6.0,6.0,4.0,-3.0,1650917177851421.0,2
1056,-12.0,12.0,-6.0,6.0,18.0,10.0,2.0,-2.0,1650917177864454.0,2
1057,5.0,8.0,-7.0,-3.0,-19.0,-13.0,-16.0,13.0,1650917177864454.0,2
1058,18.0,4.0,-8.0,-6.0,6.0,6.0,32.0,38.0,1650917177866285.0,2
1059,-12.0,-8.0,-12.0,0.0,14.0,6.0,-19.0,-21.0,1650917177866285.0,2
1060,-17.0,2.0,20.0,10.0,15.0,3.0,7.0,-17.0,1650917177878956.0,2
1061,-9.0,1.0,-3.0,-6.0,-19.0,-13.0,-21.0,-30.0,1650917177878956.0,2
1062,-13.0,3.0,10.0,4.0,-7.0,-4.0,-15.0,-22.0,1650917177888344.0,2
1063,7.0,-24.0,-29.0,-8.0,-2.0,-12.0,2.0,-13.0,1650917177888344.0,2
1064,17.0,-1.0,-1.0,-5.0,3.0,-2.0,8.0,48.0,1650917177902150.0,2
1065,-16.0,15.0,-3.0,3.0,8.0,12.0,11.0,20.0,1650917177902150.0,2
1066,0.0,4.0,12.0,25.0,8.0,6.0,1.0,-33.0,1650917177904144.0,2
1067,3.0,-7.0,-1.0,-19.0,-15.0,8.0,8.0,12.0,1650917177904144.0,2
1068,-8.0,-6.0,-9.0,-9.0,7.0,3.0,1.0,11.0,1650917177925088.0,2
1069,25.0,12.0,8.0,-9.0,-18.0,-11.0,-5.0,-5.0,1650917177925088.0,2
1070,-22.0,-11.0,35.0,5.0,-4.0,-6.0,-8.0,-6.0,1650917177926085.0,2
1071,11.0,3.0,-7.0,23.0,7.0,5.0,15.0,9.0,1650917177926085.0,2
1072,13.0,8.0,-8.0,-15.0,9.0,6.0,-3.0,7.0,1650917177938065.0,2
1073,-11.0,-42.0,-13.0,0.0,9.0,1.0,-1.0,4.0,1650917177938065.0,2
1074,-2.0,4.0,-10.0,-11.0,5.0,3.0,3.0,-2.0,1650917177947076.0,2
1075,-1.0,30.0,27.0,11.0,8.0,-6.0,-15.0,-41.0,1650917177947076.0,2
1076,3.0,-19.0,-12.0,-8.0,-21.0,2.0,10.0,20.0,1650917177962204.0,2
1077,25.0,18.0,6.0,20.0,-5.0,-6.0,-1.0,20.0,1650917177962204.0,2
1078,-21.0,-26.0,-26.0,-19.0,-9.0,1.0,14.0,-21.0,1650917177964187.0,2
1079,-10.0,10.0,9.0,9.0,0.0,-6.0,-11.0,-12.0,1650917177964187.0,2
1080,-3.0,10.0,-10.0,-11.0,9.0,6.0,-2.0,-8.0,1650917177985100.0,2
1081,-3.0,-5.0,10.0,27.0,10.0,8.0,12.0,-4.0,1650917177985100.0,2
1082,-21.0,5.0,-12.0,-17.0,-9.0,0.0,-8.0,-1.0,1650917177986097.0,2
1083,12.0,-34.0,-11.0,-7.0,-11.0,-9.0,-17.0,22.0,1650917177986097.0,2
1084,-9.0,20.0,26.0,8.0,-2.0,1.0,14.0,-7.0,1650917177998065.0,2
1085,9.0,-27.0,-28.0,-6.0,-13.0,-24.0,-26.0,-4.0,1650917177998065.0,2
1086,23.0,1.0,3.0,-2.0,-6.0,0.0,12.0,16.0,1650917178007039.0,2
1087,-21.0,-16.0,-17.0,-10.0,34.0,33.0,14.0,-11.0,1650917178007039.0,2
1088,9.0,10.0,12.0,20.0,13.0,10.0,-7.0,-4.0,1650917178022045.0,2
1089,-4.0,-14.0,-13.0,-14.0,8.0,8.0,14.0,6.0,1650917178022045.0,2
1090,8.0,20.0,-8.0,-5.0,-13.0,-12.0,-5.0,4.0,1650917178023995.0,2
1091,1.0,-3.0,-2.0,-9.0,-23.0,-15.0,-9.0,-4.0,1650917178023995.0,2
1092,8.0,-8.0,10.0,10.0,-13.0,-8.0,3.0,-2.0,1650917178044974.0,2
1093,-18.0,-7.0,-14.0,-16.0,-1.0,1.0,2.0,-11.0,1650917178044974.0,2
1094,8.0,2.0,7.0,10.0,1.0,-4.0,-3.0,5.0,1650917178046934.0,2
1095,7.0,5.0,-6.0,-9.0,-13.0,-7.0,-6.0,25.0,1650917178046934.0,2
1096,-28.0,2.0,20.0,15.0,1.0,-5.0,-5.0,-52.0,1650917178058937.0,2
1097,17.0,17.0,0.0,-13.0,-5.0,5.0,5.0,25.0,1650917178058937.0,2
1098,-4.0,-24.0,-2.0,6.0,3.0,7.0,5.0,-11.0,1650917178067878.0,2
1099,1.0,7.0,-1.0,6.0,-5.0,-10.0,-3.0,28.0,1650917178067878.0,2
1100,16.0,-1.0,-8.0,-10.0,19.0,3.0,6.0,13.0,1650917178081841.0,2
1101,-4.0,15.0,16.0,6.0,-6.0,-2.0,-15.0,-22.0,1650917178081841.0,2
1102,-5.0,1.0,-30.0,-16.0,-2.0,-1.0,-4.0,-1.0,1650917178083836.0,2
1103,9.0,4.0,20.0,-2.0,14.0,12.0,13.0,-2.0,1650917178083836.0,2
1104,-7.0,2.0,-9.0,9.0,-2.0,1.0,1.0,24.0,1650917178104778.0,2
1105,-11.0,2.0,-19.0,-23.0,-9.0,0.0,-3.0,-28.0,1650917178104778.0,2
1106,-1.0,-4.0,0.0,-11.0,1.0,-2.0,-3.0,23.0,1650917178106772.0,2
1107,7.0,17.0,19.0,20.0,5.0,-2.0,8.0,-14.0,1650917178106772.0,2
1108,-14.0,-35.0,-35.0,-6.0,-7.0,-4.0,-9.0,11.0,1650917178127752.0,2
1109,-4.0,-6.0,20.0,-16.0,2.0,10.0,11.0,-1.0,1650917178127752.0,2
1110,17.0,0.0,-12.0,9.0,0.0,-1.0,-9.0,16.0,1650917178128715.0,2
1111,-31.0,-19.0,14.0,-3.0,-15.0,-10.0,-8.0,-50.0,1650917178128715.0,2
1112,2.0,3.0,-17.0,3.0,7.0,-5.0,-14.0,0.0,1650917178142676.0,2
1113,-3.0,-10.0,8.0,7.0,-13.0,0.0,21.0,30.0,1650917178142676.0,2
1114,12.0,13.0,3.0,19.0,24.0,1.0,-1.0,10.0,1650917178143674.0,2
1115,25.0,9.0,8.0,-17.0,1.0,12.0,22.0,19.0,1650917178143674.0,2
1116,4.0,-7.0,8.0,3.0,-13.0,-8.0,-24.0,-48.0,1650917178164618.0,2
1117,28.0,19.0,11.0,23.0,14.0,13.0,2.0,43.0,1650917178164618.0,2
1118,-33.0,-28.0,-15.0,-20.0,-13.0,-8.0,12.0,13.0,1650917178166615.0,2
1119,-6.0,8.0,-19.0,10.0,36.0,16.0,3.0,-3.0,1650917178166615.0,2
1120,12.0,7.0,21.0,-18.0,-11.0,-11.0,-13.0,-8.0,1650917178187589.0,2
1121,-3.0,-4.0,-24.0,14.0,6.0,-2.0,-1.0,-5.0,1650917178187589.0,2
1122,0.0,7.0,22.0,4.0,8.0,13.0,2.0,-14.0,1650917178188589.0,2
1123,-7.0,7.0,12.0,29.0,-20.0,-12.0,-8.0,-6.0,1650917178188589.0,2
1124,4.0,7.0,-12.0,-42.0,-17.0,4.0,10.0,10.0,1650917178202516.0,2
1125,-5.0,-7.0,16.0,-6.0,-1.0,-5.0,-12.0,-14.0,1650917178202516.0,2
1126,10.0,1.0,-1.0,16.0,12.0,2.0,6.0,0.0,1650917178203514.0,2
1127,-14.0,-19.0,5.0,-24.0,-28.0,-15.0,-6.0,-6.0,1650917178203514.0,2
1128,27.0,15.0,14.0,27.0,9.0,0.0,-1.0,27.0,1650917178224499.0,2
1129,-10.0,-13.0,3.0,1.0,15.0,14.0,17.0,-12.0,1650917178224499.0,2
1130,21.0,-3.0,7.0,5.0,-7.0,-3.0,-2.0,16.0,1650917178226454.0,2
1131,-1.0,-7.0,-2.0,-4.0,3.0,1.0,2.0,0.0,1650917178226454.0,2
1132,-43.0,-23.0,-10.0,-8.0,-11.0,-11.0,-7.0,-19.0,1650917178247548.0,2
1133,18.0,13.0,20.0,3.0,-8.0,-16.0,-15.0,46.0,1650917178247548.0,2
1134,22.0,-2.0,-15.0,14.0,17.0,19.0,29.0,-15.0,1650917178249392.0,2
1135,-4.0,-16.0,-20.0,-2.0,-4.0,-3.0,-13.0,-14.0,1650917178249392.0,2
1136,9.0,24.0,-17.0,-18.0,-3.0,-2.0,-2.0,-15.0,1650917178262425.0,2
1137,-15.0,-40.0,-11.0,8.0,-10.0,-7.0,-4.0,-12.0,1650917178262425.0,2
1138,-27.0,-7.0,3.0,-6.0,4.0,-12.0,-19.0,-6.0,1650917178268283.0,2
1139,8.0,30.0,14.0,9.0,-33.0,-14.0,-6.0,13.0,1650917178268283.0,2
1140,-4.0,-1.0,13.0,-4.0,31.0,27.0,11.0,2.0,1650917178285546.0,2
1141,-3.0,9.0,-19.0,0.0,10.0,18.0,4.0,-24.0,1650917178285546.0,2
1142,14.0,3.0,15.0,11.0,-13.0,-5.0,2.0,25.0,1650917178286381.0,2
1143,-8.0,-4.0,-22.0,-43.0,25.0,10.0,-2.0,-14.0,1650917178286381.0,2
1144,-3.0,13.0,22.0,26.0,-8.0,-17.0,-17.0,-11.0,1650917178307866.0,2
1145,-11.0,-3.0,-3.0,-9.0,-11.0,-17.0,-14.0,-27.0,1650917178307866.0,2
1146,5.0,13.0,-12.0,-26.0,-12.0,-4.0,-6.0,5.0,1650917178308702.0,2
1147,3.0,-9.0,10.0,27.0,-3.0,-11.0,-6.0,-5.0,1650917178308702.0,2
1148,-12.0,-18.0,-18.0,-14.0,-14.0,3.0,8.0,5.0,1650917178322054.0,2
1149,18.0,19.0,16.0,4.0,20.0,13.0,3.0,14.0,1650917178322054.0,2
1150,-32.0,-9.0,-2.0,-5.0,-13.0,-5.0,-16.0,-54.0,1650917178329335.0,2
1151,-1.0,-15.0,-32.0,-9.0,-4.0,-8.0,-12.0,11.0,1650917178329335.0,2
1152,-7.0,2.0,22.0,20.0,0.0,-9.0,-3.0,-26.0,1650917178345090.0,2
1153,6.0,13.0,-21.0,-8.0,-4.0,9.0,20.0,14.0,1650917178345090.0,2
1154,-9.0,-2.0,27.0,15.0,4.0,3.0,1.0,13.0,1650917178346919.0,2
1155,-4.0,22.0,-2.0,7.0,6.0,4.0,-1.0,-21.0,1650917178346919.0,2
1156,-4.0,-24.0,-7.0,-16.0,-12.0,0.0,-1.0,22.0,1650917178368429.0,2
1157,-8.0,-6.0,-9.0,15.0,7.0,-5.0,1.0,-8.0,1650917178368429.0,2
1158,3.0,23.0,1.0,2.0,3.0,-6.0,-11.0,-18.0,1650917178369430.0,2
1159,2.0,-2.0,1.0,12.0,-18.0,-3.0,10.0,19.0,1650917178369430.0,2
1160,-6.0,-13.0,-16.0,-19.0,30.0,21.0,9.0,5.0,1650917178381559.0,2
1161,-6.0,16.0,9.0,-6.0,-40.0,-9.0,-6.0,-17.0,1650917178381559.0,2
1162,8.0,9.0,-34.0,-35.0,7.0,5.0,0.0,23.0,1650917178389095.0,2
1163,10.0,10.0,0.0,0.0,-16.0,-14.0,-7.0,-13.0,1650917178389095.0,2
1164,24.0,20.0,10.0,11.0,-5.0,-4.0,6.0,24.0,1650917178405829.0,2
1165,-40.0,-39.0,2.0,30.0,16.0,-5.0,6.0,-14.0,1650917178405829.0,2
1166,0.0,-1.0,5.0,-6.0,7.0,15.0,7.0,-15.0,1650917178406669.0,2
1167,32.0,-1.0,7.0,-9.0,6.0,10.0,22.0,60.0,1650917178406669.0,2
1168,-20.0,-15.0,4.0,2.0,-6.0,-5.0,8.0,-14.0,1650917178427959.0,2
1169,4.0,19.0,25.0,44.0,18.0,-14.0,-26.0,-28.0,1650917178427959.0,2
1170,27.0,5.0,-8.0,-5.0,3.0,13.0,18.0,48.0,1650917178428960.0,2
1171,-27.0,-16.0,-11.0,-31.0,-8.0,2.0,-8.0,-23.0,1650917178428960.0,2
1172,10.0,-13.0,-2.0,6.0,-9.0,-1.0,14.0,8.0,1650917178442089.0,2
1173,-6.0,14.0,-4.0,-12.0,-29.0,-19.0,-7.0,15.0,1650917178442089.0,2
1174,-7.0,-9.0,15.0,0.0,21.0,5.0,2.0,-8.0,1650917178449684.0,2
1175,10.0,-15.0,-13.0,7.0,41.0,37.0,13.0,14.0,1650917178449684.0,2
1176,5.0,2.0,-6.0,21.0,3.0,1.0,-3.0,-7.0,1650917178465809.0,2
1177,8.0,1.0,5.0,-40.0,-22.0,-2.0,-5.0,-4.0,1650917178465809.0,2
1178,-19.0,-14.0,-41.0,0.0,-29.0,-27.0,-18.0,-30.0,1650917178465942.0,2
1179,2.0,13.0,21.0,-2.0,-13.0,-11.0,1.0,10.0,1650917178465942.0,2
1180,-9.0,17.0,3.0,4.0,11.0,4.0,-5.0,-3.0,1650917178487149.0,2
1181,3.0,-32.0,-21.0,-2.0,17.0,0.0,-12.0,-21.0,1650917178487149.0,2
1182,22.0,-9.0,-7.0,-6.0,-7.0,-4.0,10.0,38.0,1650917178489169.0,2
1183,-16.0,16.0,27.0,10.0,-4.0,-12.0,-17.0,-58.0,1650917178489169.0,2
1184,-20.0,-20.0,-24.0,-9.0,-4.0,-3.0,11.0,5.0,1650917178501488.0,2
1185,7.0,3.0,8.0,-11.0,10.0,15.0,0.0,-30.0,1650917178501488.0,2
1186,-6.0,-8.0,16.0,9.0,-5.0,-5.0,2.0,23.0,1650917178509208.0,2
1187,25.0,25.0,-19.0,2.0,6.0,-6.0,-11.0,-8.0,1650917178509208.0,2
1188,8.0,-12.0,25.0,16.0,7.0,5.0,-16.0,-3.0,1650917178525358.0,2
1189,-2.0,-14.0,-32.0,-15.0,2.0,6.0,18.0,18.0,1650917178525358.0,2
1190,-8.0,8.0,19.0,21.0,7.0,-4.0,-11.0,-22.0,1650917178526358.0,2
1191,-9.0,-4.0,4.0,-13.0,-32.0,-8.0,0.0,2.0,1650917178526358.0,2
1192,11.0,17.0,-13.0,3.0,12.0,-1.0,5.0,15.0,1650917178547816.0,2
1193,8.0,17.0,18.0,6.0,17.0,14.0,7.0,13.0,1650917178547816.0,2
1194,-7.0,6.0,-2.0,-4.0,0.0,4.0,0.0,-13.0,1650917178548650.0,2
1195,-8.0,-24.0,-26.0,4.0,-1.0,-3.0,5.0,10.0,1650917178548650.0,2
1196,8.0,2.0,5.0,-7.0,-10.0,-3.0,-7.0,-9.0,1650917178561947.0,2
1197,-1.0,-1.0,10.0,-2.0,-11.0,-12.0,-12.0,6.0,1650917178561947.0,2
1198,-7.0,3.0,2.0,1.0,0.0,-5.0,-3.0,-15.0,1650917178569493.0,2
1199,-3.0,3.0,-6.0,-5.0,1.0,-1.0,5.0,13.0,1650917178569493.0,2
1200,10.0,2.0,-1.0,-2.0,-6.0,1.0,10.0,11.0,1650917178585921.0,2
1201,-4.0,-7.0,11.0,7.0,4.0,-5.0,-6.0,1.0,1650917178585921.0,2
1202,4.0,9.0,-5.0,-9.0,-5.0,-8.0,-26.0,10.0,1650917178586920.0,2
1203,-29.0,-16.0,-5.0,-2.0,4.0,11.0,25.0,-27.0,1650917178586920.0,2
1204,-3.0,0.0,8.0,1.0,-2.0,-4.0,-8.0,0.0,1650917178608023.0,2
1205,11.0,1.0,0.0,2.0,10.0,10.0,2.0,17.0,1650917178608023.0,2
1206,5.0,8.0,-4.0,1.0,2.0,11.0,2.0,-4.0,1650917178608863.0,2
1207,-4.0,10.0,23.0,15.0,8.0,0.0,9.0,8.0,1650917178608863.0,2
1208,5.0,2.0,-17.0,-18.0,-1.0,-2.0,1.0,0.0,1650917178621069.0,2
1209,5.0,20.0,3.0,-1.0,-7.0,-3.0,0.0,2.0,1650917178621069.0,2
1210,-5.0,-16.0,-16.0,-7.0,6.0,-7.0,-11.0,-6.0,1650917178636588.0,2
1211,4.0,-4.0,6.0,1.0,13.0,2.0,-8.0,0.0,1650917178636588.0,2
1212,-2.0,4.0,9.0,11.0,-18.0,-7.0,-3.0,-1.0,1650917178645487.0,2
1213,-6.0,3.0,-14.0,-9.0,-7.0,-6.0,-3.0,-11.0,1650917178645487.0,2
1214,-2.0,-6.0,11.0,-3.0,-5.0,0.0,3.0,-7.0,1650917178646487.0,2
1215,1.0,-4.0,-3.0,-6.0,-10.0,-12.0,-9.0,2.0,1650917178646487.0,2
1216,3.0,-6.0,2.0,4.0,-1.0,-6.0,5.0,4.0,1650917178667973.0,2
1217,-7.0,12.0,0.0,3.0,14.0,15.0,-2.0,-9.0,1650917178667973.0,2
1218,5.0,-1.0,-3.0,4.0,6.0,15.0,3.0,8.0,1650917178668974.0,2
1219,0.0,4.0,1.0,-5.0,2.0,3.0,4.0,-22.0,1650917178668974.0,2
1220,-6.0,-3.0,-19.0,-9.0,-6.0,-8.0,-19.0,-2.0,1650917178681119.0,2
1221,14.0,1.0,-3.0,-3.0,-5.0,-6.0,22.0,14.0,1650917178681119.0,2
1222,-13.0,-9.0,3.0,5.0,-4.0,-3.0,4.0,-9.0,1650917178690097.0,2
1223,7.0,5.0,5.0,4.0,7.0,5.0,-13.0,9.0,1650917178690097.0,2
1224,-2.0,-2.0,12.0,11.0,9.0,19.0,31.0,5.0,1650917178705288.0,2
1225,-6.0,-1.0,-2.0,-8.0,-9.0,-7.0,-5.0,-11.0,1650917178705288.0,2
1226,0.0,-7.0,-22.0,-11.0,-4.0,-6.0,0.0,2.0,1650917178706251.0,2
1227,2.0,-6.0,-3.0,6.0,1.0,0.0,-15.0,-2.0,1650917178706251.0,2
1228,-4.0,0.0,3.0,-11.0,-5.0,-10.0,-14.0,-8.0,1650917178734696.0,2
1229,3.0,1.0,-3.0,12.0,-2.0,-2.0,-1.0,9.0,1650917178734696.0,2
1230,4.0,2.0,14.0,-3.0,1.0,2.0,8.0,1.0,1650917178736529.0,2
1231,-6.0,-12.0,-11.0,-10.0,3.0,5.0,-10.0,0.0,1650917178736529.0,2
1232,0.0,0.0,7.0,0.0,4.0,6.0,11.0,-4.0,1650917178740550.0,2
1233,0.0,3.0,0.0,5.0,0.0,-5.0,-1.0,-3.0,1650917178740550.0,2
1234,2.0,2.0,-12.0,-13.0,-8.0,-6.0,-11.0,0.0,1650917178749753.0,2
1235,-4.0,-6.0,-3.0,8.0,-1.0,-1.0,11.0,-3.0,1650917178749753.0,2
1236,2.0,7.0,19.0,11.0,3.0,-5.0,-10.0,3.0,1650917178765154.0,2
1237,5.0,-8.0,-26.0,-22.0,-6.0,-4.0,-6.0,4.0,1650917178765154.0,2
1238,-3.0,5.0,12.0,16.0,4.0,11.0,18.0,-4.0,1650917178766151.0,2
1239,5.0,-3.0,-13.0,-21.0,-2.0,5.0,-1.0,5.0,1650917178766151.0,2
1240,0.0,-2.0,-14.0,-3.0,-1.0,-1.0,0.0,-2.0,1650917178788578.0,2
1241,-2.0,-3.0,-1.0,-1.0,-4.0,-4.0,-13.0,-2.0,1650917178788578.0,2
1242,-2.0,3.0,11.0,-1.0,-2.0,-7.0,10.0,-8.0,1650917178788578.0,2
1243,1.0,1.0,-5.0,-5.0,-1.0,0.0,-5.0,0.0,1650917178788578.0,2
1244,-3.0,4.0,11.0,12.0,-1.0,-5.0,-7.0,-3.0,1650917178802040.0,2
1245,0.0,-7.0,-7.0,2.0,4.0,-4.0,0.0,-4.0,1650917178802040.0,2
1246,-2.0,-1.0,3.0,15.0,6.0,3.0,-7.0,-5.0,1650917178810080.0,2
1247,0.0,1.0,-7.0,-11.0,-7.0,1.0,5.0,7.0,1650917178810080.0,2
1248,1.0,-5.0,9.0,13.0,1.0,4.0,12.0,5.0,1650917178825207.0,2
1249,-4.0,-3.0,-10.0,-10.0,-2.0,0.0,-8.0,-6.0,1650917178825207.0,2
1250,-2.0,-1.0,-4.0,-31.0,-15.0,-10.0,-2.0,-2.0,1650917178826208.0,2
1251,-3.0,-4.0,-18.0,-3.0,-2.0,0.0,-3.0,-1.0,1650917178826208.0,2
1252,2.0,3.0,2.0,-4.0,4.0,5.0,-5.0,-3.0,1650917178848518.0,2
1253,-2.0,-4.0,20.0,30.0,13.0,13.0,14.0,5.0,1650917178848518.0,2
1254,0.0,4.0,10.0,7.0,-3.0,-4.0,-6.0,-1.0,1650917178848664.0,2
1255,0.0,-5.0,-10.0,1.0,0.0,-8.0,1.0,-1.0,1650917178848664.0,2
1256,0.0,1.0,-3.0,-17.0,-9.0,-4.0,-12.0,-5.0,1650917178861993.0,2
1257,-2.0,6.0,6.0,4.0,-3.0,3.0,14.0,4.0,1650917178861993.0,2
1258,2.0,-2.0,-8.0,-3.0,-2.0,-5.0,-5.0,-1.0,1650917178869808.0,2
1259,-2.0,-1.0,2.0,-5.0,-6.0,-7.0,-1.0,1.0,1650917178869808.0,2
1260,-1.0,-3.0,-4.0,7.0,2.0,-2.0,-3.0,-3.0,1650917178884771.0,2
1261,1.0,5.0,4.0,-8.0,0.0,6.0,-1.0,2.0,1650917178884771.0,2
1262,-1.0,-6.0,-7.0,-8.0,6.0,10.0,5.0,0.0,1650917178886800.0,2
1263,1.0,1.0,17.0,21.0,7.0,7.0,5.0,2.0,1650917178886800.0,2
1264,-1.0,-4.0,-7.0,-7.0,-6.0,-7.0,-4.0,-1.0,1650917178907195.0,2
1265,2.0,2.0,-1.0,-7.0,-11.0,-8.0,-4.0,-2.0,1650917178907195.0,2
1266,2.0,-2.0,-14.0,-4.0,-4.0,-9.0,0.0,0.0,1650917178909189.0,2
1267,1.0,4.0,2.0,4.0,8.0,2.0,-1.0,2.0,1650917178909189.0,2
1268,-2.0,-1.0,0.0,7.0,3.0,9.0,-1.0,-1.0,1650917178921349.0,2
1269,-3.0,-2.0,4.0,-15.0,-4.0,-1.0,1.0,2.0,1650917178921349.0,2
1270,0.0,3.0,11.0,12.0,6.0,-3.0,3.0,1.0,1650917178929671.0,2
1271,1.0,-1.0,-4.0,-3.0,3.0,3.0,1.0,0.0,1650917178929671.0,2
1272,0.0,-1.0,-12.0,-6.0,-1.0,5.0,-1.0,-2.0,1650917178945836.0,2
1273,1.0,0.0,6.0,0.0,-6.0,-5.0,3.0,0.0,1650917178945836.0,2
1274,-2.0,-3.0,0.0,-1.0,-5.0,6.0,-8.0,-1.0,1650917178946867.0,2
1275,0.0,5.0,13.0,17.0,1.0,-7.0,0.0,0.0,1650917178946867.0,2
1276,-3.0,-8.0,-13.0,-21.0,-3.0,-3.0,-1.0,-1.0,1650917178968180.0,2
1277,2.0,0.0,-3.0,-2.0,2.0,1.0,-1.0,1.0,1650917178968180.0,2
1278,1.0,-1.0,-2.0,2.0,-2.0,-5.0,-1.0,2.0,1650917178969061.0,2
1279,0.0,2.0,7.0,-6.0,-4.0,-5.0,-3.0,-9.0,1650917178969061.0,2
1280,-6.0,-2.0,-2.0,4.0,-3.0,-7.0,-2.0,-3.0,1650917178981182.0,2
1281,0.0,0.0,-4.0,-2.0,0.0,0.0,-4.0,-1.0,1650917178981182.0,2
1282,2.0,0.0,0.0,2.0,-7.0,-4.0,-17.0,-6.0,1650917178990354.0,2
1283,1.0,4.0,15.0,12.0,1.0,10.0,19.0,8.0,1650917178990354.0,2
1284,3.0,2.0,-11.0,2.0,19.0,10.0,14.0,5.0,1650917179006369.0,2
1285,-4.0,-4.0,2.0,-2.0,7.0,0.0,-3.0,-5.0,1650917179006369.0,2
1286,-2.0,2.0,12.0,10.0,0.0,4.0,0.0,0.0,1650917179007381.0,2
1287,0.0,-4.0,-12.0,-14.0,-8.0,-3.0,-12.0,-2.0,1650917179007381.0,2
1288,2.0,-5.0,-9.0,-2.0,-9.0,-8.0,-6.0,-2.0,1650917179028522.0,2
1289,-6.0,1.0,4.0,-5.0,-5.0,-10.0,0.0,0.0,1650917179028522.0,2
1290,-5.0,-4.0,-11.0,-10.0,-7.0,6.0,1.0,1.0,1650917179028522.0,2
1291,-4.0,-5.0,5.0,6.0,3.0,0.0,0.0,1.0,1650917179028522.0,2
1292,2.0,2.0,-8.0,-11.0,-7.0,-6.0,-1.0,-3.0,1650917179041645.0,2
1293,2.0,1.0,1.0,16.0,4.0,1.0,-4.0,0.0,1650917179041645.0,2
1294,-1.0,-4.0,6.0,-10.0,-1.0,-3.0,-4.0,-1.0,1650917179049697.0,2
1295,1.0,0.0,-12.0,-11.0,10.0,19.0,5.0,3.0,1650917179049697.0,2
1296,1.0,4.0,11.0,12.0,1.0,5.0,14.0,3.0,1650917179064876.0,2
1297,2.0,0.0,8.0,13.0,-1.0,-7.0,-3.0,1.0,1650917179064876.0,2
1298,-2.0,4.0,-15.0,-18.0,-8.0,-10.0,1.0,-2.0,1650917179066713.0,2
1299,-4.0,-7.0,-9.0,-5.0,-2.0,-4.0,-13.0,-4.0,1650917179066713.0,2
1300,-1.0,3.0,12.0,5.0,7.0,4.0,3.0,-2.0,1650917179088134.0,2
1301,1.0,0.0,-5.0,-2.0,-2.0,5.0,-4.0,-3.0,1650917179088134.0,2
1302,1.0,2.0,8.0,1.0,-4.0,-14.0,0.0,-1.0,1650917179088976.0,2
1303,-1.0,-8.0,-10.0,-10.0,-10.0,-1.0,3.0,1.0,1650917179088976.0,2
1304,1.0,2.0,13.0,11.0,3.0,8.0,-5.0,-3.0,1650917179110365.0,2
1305,-3.0,0.0,0.0,-5.0,4.0,9.0,2.0,1.0,1650917179110365.0,2
1306,2.0,-2.0,8.0,15.0,3.0,2.0,-7.0,-2.0,1650917179111167.0,2
1307,0.0,-5.0,2.0,18.0,-2.0,-11.0,7.0,-1.0,1650917179111167.0,2
1308,0.0,-4.0,-19.0,-39.0,-12.0,-12.0,-7.0,-2.0,1650917179125485.0,2
1309,-1.0,-2.0,-8.0,-4.0,-2.0,3.0,2.0,0.0,1650917179125485.0,2
1310,1.0,4.0,2.0,4.0,3.0,0.0,2.0,-2.0,1650917179126327.0,2
1311,-1.0,6.0,4.0,0.0,3.0,1.0,-1.0,1.0,1650917179126327.0,2
1312,-3.0,-5.0,7.0,24.0,7.0,10.0,-3.0,-3.0,1650917179147642.0,2
1313,-3.0,1.0,-4.0,-8.0,-6.0,-1.0,5.0,3.0,1650917179147642.0,2
1314,-1.0,0.0,2.0,1.0,3.0,-2.0,-6.0,0.0,1650917179148479.0,2
1315,-1.0,-2.0,-1.0,-5.0,-1.0,-3.0,9.0,0.0,1650917179148479.0,2
1316,0.0,1.0,7.0,12.0,-1.0,-3.0,-6.0,0.0,1650917179170933.0,2
1317,2.0,3.0,-13.0,-12.0,5.0,5.0,3.0,2.0,1650917179170933.0,2
1318,-2.0,-4.0,8.0,13.0,6.0,7.0,4.0,0.0,1650917179171377.0,2
1319,0.0,4.0,2.0,-3.0,-2.0,-14.0,-2.0,1.0,1650917179171377.0,2
1320,-2.0,-5.0,-3.0,-6.0,-10.0,3.0,-4.0,-1.0,1650917179184672.0,2
1321,1.0,1.0,-12.0,-12.0,-6.0,2.0,-3.0,-3.0,1650917179184672.0,2
1322,-1.0,1.0,3.0,5.0,1.0,3.0,5.0,0.0,1650917179186520.0,2
1323,1.0,1.0,-4.0,-4.0,-1.0,-6.0,-7.0,-2.0,1650917179186520.0,2
1324,-4.0,-7.0,-13.0,-12.0,-8.0,-16.0,-5.0,-2.0,1650917179207966.0,2
1325,1.0,2.0,16.0,15.0,-1.0,-3.0,-2.0,0.0,1650917179207966.0,2
1326,-1.0,-5.0,-8.0,0.0,11.0,11.0,3.0,1.0,1650917179208479.0,2
1327,0.0,-5.0,-3.0,-7.0,0.0,4.0,6.0,2.0,1650917179208479.0,2
1328,0.0,5.0,3.0,10.0,-2.0,-6.0,-5.0,0.0,1650917179230492.0,2
1329,-3.0,-6.0,-7.0,-13.0,-6.0,-3.0,-2.0,-4.0,1650917179230492.0,2
1330,2.0,1.0,-6.0,-5.0,-4.0,4.0,4.0,0.0,1650917179231347.0,2
1331,-1.0,-4.0,6.0,11.0,3.0,1.0,-3.0,0.0,1650917179231347.0,2
1332,1.0,6.0,2.0,-1.0,2.0,-1.0,3.0,2.0,1650917179244672.0,2
1333,-1.0,-10.0,-9.0,-4.0,5.0,-9.0,-1.0,0.0,1650917179244672.0,2
1334,0.0,2.0,8.0,7.0,-2.0,1.0,2.0,0.0,1650917179250648.0,2
1335,-1.0,-3.0,-1.0,-1.0,-6.0,15.0,-6.0,-2.0,1650917179250648.0,2
1336,1.0,6.0,12.0,10.0,7.0,3.0,5.0,0.0,1650917179267791.0,2
1337,0.0,-3.0,-5.0,-3.0,0.0,-2.0,3.0,1.0,1650917179267791.0,2
1338,-1.0,3.0,-6.0,-10.0,-5.0,-7.0,-2.0,-1.0,1650917179268788.0,0
1339,-2.0,2.0,-8.0,-5.0,-6.0,-4.0,-3.0,-2.0,1650917179268788.0,0
1340,-2.0,-3.0,-1.0,-4.0,-9.0,-5.0,-4.0,-2.0,1650917179290850.0,0
1341,0.0,1.0,14.0,9.0,2.0,0.0,-1.0,0.0,1650917179290850.0,0
1342,0.0,-2.0,-2.0,2.0,1.0,0.0,-1.0,-1.0,1650917179291942.0,0
1343,0.0,4.0,10.0,9.0,-3.0,-6.0,-2.0,0.0,1650917179291942.0,0
1344,-1.0,-3.0,-4.0,-11.0,0.0,2.0,0.0,0.0,1650917179305263.0,0
1345,0.0,0.0,-10.0,-1.0,-6.0,-8.0,-1.0,0.0,1650917179305263.0,0
1346,0.0,1.0,-1.0,0.0,8.0,6.0,1.0,2.0,1650917179311053.0,0
1347,-3.0,-2.0,-2.0,-2.0,0.0,-2.0,-1.0,-1.0,1650917179311053.0,0
1348,0.0,-1.0,0.0,0.0,3.0,8.0,2.0,-1.0,1650917179327756.0,0
1349,2.0,1.0,9.0,10.0,7.0,-1.0,1.0,0.0,1650917179327756.0,0
1350,-1.0,1.0,-1.0,-5.0,-5.0,7.0,-1.0,-3.0,1650917179328758.0,0
1351,2.0,1.0,6.0,4.0,0.0,-3.0,0.0,1.0,1650917179328758.0,0
1352,-2.0,0.0,4.0,9.0,2.0,-3.0,-1.0,0.0,1650917179350217.0,0
1353,-2.0,-4.0,-21.0,-25.0,-9.0,-3.0,-3.0,-1.0,1650917179350217.0,0
1354,3.0,1.0,12.0,14.0,0.0,-7.0,-1.0,0.0,1650917179351880.0,0
1355,-6.0,-4.0,-7.0,-4.0,3.0,4.0,-1.0,-2.0,1650917179351880.0,0
1356,4.0,0.0,-9.0,-12.0,-3.0,2.0,0.0,-1.0,1650917179364772.0,0
1357,0.0,0.0,14.0,14.0,4.0,0.0,0.0,-3.0,1650917179364772.0,0
1358,-1.0,1.0,0.0,1.0,-6.0,-7.0,-2.0,-1.0,1650917179370686.0,0
1359,1.0,0.0,-3.0,-5.0,-1.0,0.0,-5.0,-1.0,1650917179370686.0,0
1360,0.0,0.0,-1.0,0.0,1.0,-8.0,3.0,2.0,1650917179387906.0,0
1361,3.0,0.0,5.0,7.0,6.0,8.0,4.0,0.0,1650917179387906.0,0
1362,-5.0,0.0,5.0,-1.0,6.0,7.0,3.0,2.0,1650917179388906.0,0
1363,1.0,-1.0,-7.0,-4.0,-4.0,4.0,0.0,-1.0,1650917179388906.0,0
1364,0.0,-2.0,-2.0,-1.0,-5.0,-7.0,-13.0,-2.0,1650917179410142.0,0
1365,1.0,4.0,-4.0,-5.0,-7.0,-22.0,6.0,1.0,1650917179410142.0,0
1366,0.0,-1.0,-6.0,-9.0,-6.0,1.0,-1.0,0.0,1650917179411139.0,0
1367,0.0,0.0,12.0,13.0,-2.0,1.0,3.0,-2.0,1650917179411139.0,0
1368,0.0,3.0,2.0,1.0,9.0,12.0,2.0,0.0,1650917179425263.0,0
1369,-5.0,0.0,-8.0,-3.0,6.0,11.0,-1.0,0.0,1650917179425263.0,0
1370,4.0,0.0,-3.0,2.0,1.0,-7.0,-5.0,0.0,1650917179431436.0,0
1371,1.0,1.0,-1.0,-3.0,-1.0,-5.0,0.0,1.0,1650917179431436.0,0
1372,1.0,0.0,6.0,5.0,1.0,-1.0,2.0,0.0,1650917179447741.0,0
1373,-2.0,-2.0,9.0,10.0,-2.0,-3.0,-3.0,-2.0,1650917179447741.0,0
1374,-3.0,-3.0,-10.0,-9.0,-9.0,-7.0,-10.0,-5.0,1650917179448575.0,0
1375,-1.0,-1.0,-4.0,-8.0,-12.0,-11.0,5.0,-1.0,1650917179448575.0,0
1376,-2.0,-1.0,2.0,5.0,1.0,10.0,3.0,1.0,1650917179470282.0,0
1377,0.0,1.0,-4.0,2.0,14.0,22.0,2.0,1.0,1650917179470282.0,0
1378,1.0,-1.0,7.0,9.0,8.0,6.0,4.0,2.0,1650917179471280.0,0
1379,0.0,-3.0,-15.0,-9.0,-6.0,-8.0,-4.0,-2.0,1650917179471280.0,0
1380,-4.0,-6.0,-19.0,-23.0,-16.0,-17.0,-7.0,-4.0,1650917179484245.0,0
1381,-1.0,3.0,4.0,0.0,-3.0,6.0,-7.0,-4.0,1650917179484245.0,0
1382,1.0,-1.0,4.0,-3.0,1.0,2.0,15.0,1.0,1650917179491415.0,0
1383,-1.0,-4.0,9.0,10.0,4.0,3.0,-3.0,-1.0,1650917179491415.0,0
1384,1.0,4.0,8.0,4.0,4.0,1.0,2.0,1.0,1650917179507959.0,0
1385,1.0,1.0,-11.0,0.0,4.0,1.0,-3.0,-3.0,1650917179507959.0,0
1386,1.0,3.0,7.0,5.0,-5.0,-7.0,-3.0,-2.0,1650917179508959.0,0
1387,-2.0,1.0,-4.0,-5.0,5.0,3.0,-11.0,-5.0,1650917179508959.0,0
1388,0.0,-1.0,-4.0,-6.0,-1.0,5.0,12.0,1.0,1650917179530453.0,0
1389,1.0,2.0,18.0,11.0,-2.0,-5.0,-1.0,4.0,1650917179530453.0,0
1390,0.0,-3.0,-12.0,-10.0,-6.0,-7.0,1.0,1.0,1650917179531295.0,0
1391,-1.0,-1.0,-5.0,-3.0,0.0,5.0,0.0,-1.0,1650917179531295.0,0
1392,-1.0,0.0,7.0,8.0,0.0,2.0,-6.0,-1.0,1650917179545202.0,0
1393,-1.0,-2.0,0.0,0.0,-4.0,-2.0,2.0,0.0,1650917179545202.0,0
1394,-2.0,0.0,-2.0,2.0,3.0,-4.0,-1.0,-1.0,1650917179551439.0,0
1395,0.0,0.0,0.0,-1.0,0.0,-2.0,-4.0,-1.0,1650917179551439.0,0
1396,-2.0,-4.0,-7.0,-2.0,-5.0,-10.0,4.0,0.0,1650917179568411.0,0
1397,1.0,-1.0,1.0,1.0,0.0,13.0,3.0,1.0,1650917179568411.0,0
1398,-2.0,-1.0,-9.0,-9.0,3.0,6.0,-1.0,-1.0,1650917179568670.0,0
1399,1.0,0.0,5.0,3.0,1.0,-4.0,-2.0,0.0,1650917179568670.0,0
1400,-2.0,1.0,-1.0,-5.0,-11.0,-15.0,-7.0,-1.0,1650917179590604.0,0
1401,-2.0,-5.0,-8.0,-9.0,-2.0,-5.0,-5.0,-1.0,1650917179590604.0,0
1402,-2.0,0.0,6.0,8.0,10.0,11.0,9.0,1.0,1650917179591441.0,0
1403,4.0,0.0,-1.0,3.0,11.0,12.0,5.0,1.0,1650917179591441.0,0
1404,-4.0,0.0,2.0,3.0,0.0,6.0,-2.0,0.0,1650917179603615.0,0
1405,0.0,-1.0,-1.0,-4.0,-11.0,-12.0,-2.0,-1.0,1650917179603615.0,0
1406,-2.0,1.0,-8.0,-8.0,-6.0,-8.0,-13.0,-3.0,1650917179612717.0,0
1407,0.0,-2.0,-7.0,-1.0,1.0,-1.0,11.0,2.0,1650917179612717.0,0
1408,2.0,-1.0,-2.0,-1.0,-6.0,-5.0,-2.0,-2.0,1650917179627898.0,0
1409,-2.0,-4.0,4.0,4.0,-2.0,6.0,-1.0,-3.0,1650917179627898.0,0
1410,-1.0,-4.0,-8.0,-14.0,2.0,5.0,-1.0,0.0,1650917179628788.0,0
1411,-1.0,3.0,3.0,8.0,-4.0,-14.0,-5.0,0.0,1650917179628788.0,0
1412,-1.0,-4.0,0.0,-4.0,0.0,8.0,1.0,-1.0,1650917179649774.0,0
1413,-3.0,2.0,6.0,3.0,2.0,3.0,1.0,0.0,1650917179649774.0,0
1414,0.0,-2.0,-11.0,-9.0,-3.0,-4.0,2.0,1.0,1650917179651726.0,0
1415,-2.0,1.0,2.0,1.0,-4.0,-3.0,-5.0,0.0,1650917179651726.0,0
1416,2.0,-3.0,-1.0,-1.0,-3.0,-6.0,-3.0,1.0,1650917179664012.0,0
1417,-5.0,-1.0,-4.0,-7.0,-9.0,-6.0,-1.0,-2.0,1650917179664012.0,0
1418,-1.0,-2.0,10.0,17.0,10.0,5.0,2.0,0.0,1650917179672343.0,0
1419,2.0,-1.0,-2.0,-3.0,9.0,13.0,2.0,1.0,1650917179672343.0,0
1420,2.0,3.0,1.0,0.0,-2.0,-6.0,-4.0,0.0,1650917179688390.0,0
1421,-1.0,-1.0,-2.0,-4.0,-3.0,-3.0,-8.0,-2.0,1650917179688390.0,0
1422,-1.0,-3.0,-5.0,-3.0,-13.0,-15.0,5.0,-1.0,1650917179689421.0,0
1423,-2.0,0.0,0.0,2.0,4.0,6.0,3.0,1.0,1650917179689421.0,0
1424,2.0,0.0,-1.0,3.0,12.0,11.0,4.0,0.0,1650917179710315.0,0
1425,1.0,-1.0,-2.0,-3.0,-3.0,0.0,-1.0,-1.0,1650917179710315.0,0
1426,-3.0,1.0,-2.0,1.0,-12.0,-13.0,-14.0,-4.0,1650917179711316.0,0
1427,0.0,-1.0,-3.0,-11.0,-4.0,-4.0,-5.0,-2.0,1650917179711316.0,0
1428,-2.0,-2.0,1.0,3.0,7.0,18.0,15.0,1.0,1650917179724261.0,0
1429,1.0,1.0,-5.0,-6.0,4.0,7.0,3.0,1.0,1650917179724261.0,0
1430,-1.0,-1.0,5.0,4.0,0.0,2.0,-1.0,-1.0,1650917179732400.0,0
1431,0.0,3.0,3.0,-1.0,-10.0,-19.0,-9.0,-2.0,1650917179732400.0,0
1432,-3.0,-2.0,1.0,3.0,-2.0,-11.0,-4.0,-2.0,1650917179747908.0,0
1433,2.0,-3.0,-2.0,-2.0,3.0,5.0,6.0,2.0,1650917179747908.0,0
1434,1.0,1.0,7.0,5.0,-2.0,2.0,0.0,0.0,1650917179748908.0,0
1435,-1.0,1.0,7.0,8.0,0.0,5.0,0.0,0.0,1650917179748908.0,0
1436,-2.0,-1.0,-11.0,-10.0,2.0,2.0,-2.0,-2.0,1650917179770051.0,0
1437,0.0,0.0,-11.0,-4.0,-9.0,-15.0,-2.0,0.0,1650917179770051.0,0
1438,0.0,0.0,-4.0,-5.0,-3.0,-1.0,-3.0,0.0,1650917179771083.0,0
1439,-2.0,-1.0,6.0,5.0,3.0,6.0,3.0,-1.0,1650917179771083.0,0
1440,-1.0,-1.0,4.0,4.0,6.0,10.0,2.0,0.0,1650917179784360.0,0
1441,1.0,1.0,4.0,2.0,3.0,-1.0,3.0,2.0,1650917179784360.0,0
1442,0.0,1.0,1.0,-1.0,-6.0,-11.0,-3.0,-1.0,1650917179792347.0,0
1443,0.0,-3.0,-11.0,-9.0,-1.0,6.0,-2.0,-2.0,1650917179792347.0,0
1444,-2.0,-4.0,-1.0,2.0,-3.0,-7.0,-6.0,-2.0,1650917179807380.0,0
1445,-1.0,1.0,-12.0,-9.0,-3.0,-2.0,3.0,-1.0,1650917179807380.0,0
1446,2.0,0.0,1.0,2.0,1.0,1.0,0.0,-2.0,1650917179809378.0,0
1447,-4.0,-2.0,4.0,3.0,-3.0,-8.0,-4.0,-1.0,1650917179809378.0,0
1448,-2.0,-1.0,-2.0,-4.0,-1.0,-4.0,-2.0,0.0,1650917179830542.0,0
1449,2.0,1.0,4.0,4.0,9.0,11.0,6.0,0.0,1650917179830542.0,0
1450,-2.0,-3.0,2.0,2.0,4.0,3.0,3.0,1.0,1650917179831542.0,0
1451,-2.0,-1.0,-5.0,-7.0,-6.0,-3.0,0.0,1.0,1650917179831542.0,0
1452,0.0,-1.0,-3.0,-3.0,0.0,-1.0,-10.0,-4.0,1650917179843869.0,0
1453,-1.0,0.0,1.0,-2.0,-4.0,-5.0,5.0,-1.0,1650917179843869.0,0
1454,1.0,1.0,4.0,4.0,11.0,6.0,4.0,1.0,1650917179859107.0,0
1455,0.0,0.0,2.0,6.0,10.0,9.0,6.0,0.0,1650917179859107.0,0
1456,0.0,0.0,0.0,-1.0,-3.0,-2.0,-3.0,0.0,1650917179868244.0,0
1457,-1.0,1.0,4.0,4.0,-7.0,-4.0,-3.0,-2.0,1650917179868244.0,0
1458,0.0,0.0,-9.0,-8.0,-4.0,14.0,-1.0,-2.0,1650917179869083.0,0
1459,2.0,-2.0,-6.0,-9.0,-3.0,-10.0,-3.0,-2.0,1650917179869083.0,0
1460,0.0,0.0,2.0,1.0,-6.0,-7.0,1.0,-1.0,1650917179890365.0,0
1461,-1.0,-2.0,2.0,0.0,-3.0,-7.0,-6.0,-1.0,1650917179890365.0,0
1462,2.0,2.0,6.0,5.0,6.0,3.0,1.0,2.0,1650917179891487.0,0
1463,1.0,5.0,9.0,9.0,3.0,8.0,7.0,1.0,1650917179891487.0,0
1464,-1.0,-5.0,-22.0,-16.0,-6.0,-5.0,-3.0,-1.0,1650917179904702.0,0
1465,-1.0,0.0,-3.0,-2.0,-2.0,-5.0,-6.0,-4.0,1650917179904702.0,0
1466,-2.0,-2.0,1.0,2.0,-4.0,-6.0,-2.0,-1.0,1650917179912304.0,0
1467,-2.0,-2.0,-2.0,-5.0,-3.0,1.0,-8.0,-3.0,1650917179912304.0,0
1468,0.0,3.0,3.0,1.0,-7.0,-6.0,8.0,2.0,1650917179927754.0,0
1469,-1.0,-2.0,2.0,3.0,11.0,11.0,5.0,2.0,1650917179927754.0,0
1470,0.0,1.0,-2.0,0.0,7.0,1.0,1.0,1.0,1650917179928754.0,0
1471,-2.0,-5.0,-27.0,-20.0,-2.0,13.0,1.0,0.0,1650917179928754.0,0
1472,1.0,1.0,12.0,12.0,0.0,-2.0,-7.0,-2.0,1650917179950306.0,0
1473,-1.0,0.0,-7.0,-8.0,-9.0,-7.0,-7.0,-3.0,1650917179950306.0,0
1474,1.0,-2.0,-2.0,-5.0,-6.0,-12.0,2.0,0.0,1650917179951171.0,0
1475,0.0,0.0,6.0,4.0,-1.0,-11.0,-1.0,2.0,1650917179951171.0,0
1476,-1.0,1.0,-4.0,-5.0,4.0,0.0,-3.0,-3.0,1650917179964073.0,0
1477,1.0,0.0,4.0,6.0,7.0,6.0,3.0,1.0,1650917179964073.0,0
1478,3.0,0.0,0.0,0.0,3.0,11.0,3.0,1.0,1650917179973494.0,0
1479,-7.0,-3.0,0.0,0.0,-12.0,-13.0,-6.0,-2.0,1650917179973494.0,0
1480,0.0,-3.0,-3.0,-1.0,-3.0,-3.0,-3.0,1.0,1650917179987788.0,0
1481,0.0,-2.0,2.0,2.0,-6.0,-15.0,5.0,2.0,1650917179987788.0,0
1482,-1.0,-1.0,-5.0,-2.0,2.0,11.0,0.0,-1.0,1650917179993926.0,0
1483,4.0,0.0,5.0,6.0,14.0,11.0,3.0,1.0,1650917179993926.0,0
1484,-1.0,-3.0,1.0,4.0,8.0,1.0,-3.0,0.0,1650917180010141.0,0
1485,-1.0,-1.0,-3.0,-3.0,0.0,6.0,-3.0,0.0,1650917180010141.0,0
1486,-1.0,-1.0,-5.0,-7.0,-10.0,-11.0,-4.0,-2.0,1650917180011126.0,0
1487,3.0,0.0,1.0,-1.0,-8.0,-13.0,1.0,0.0,1650917180011126.0,0
1488,-7.0,3.0,-6.0,-9.0,0.0,3.0,-1.0,-2.0,1650917180032589.0,0
1489,3.0,1.0,15.0,16.0,0.0,3.0,-5.0,-1.0,1650917180032589.0,0
1490,-1.0,-2.0,-10.0,-9.0,1.0,5.0,7.0,1.0,1650917180034423.0,0
1491,1.0,0.0,4.0,4.0,5.0,9.0,1.0,0.0,1650917180034423.0,0
1492,2.0,0.0,-2.0,0.0,1.0,2.0,-1.0,0.0,1650917180048446.0,0
1493,-1.0,0.0,-3.0,-2.0,4.0,1.0,8.0,0.0,1650917180048446.0,0
1494,-4.0,0.0,1.0,2.0,-15.0,-12.0,-8.0,-1.0,1650917180048446.0,0
1495,0.0,-2.0,-3.0,-3.0,-6.0,6.0,2.0,-4.0,1650917180048446.0,0
1496,1.0,3.0,3.0,-1.0,10.0,1.0,-3.0,0.0,1650917180069789.0,0
1497,-2.0,-1.0,-3.0,0.0,9.0,7.0,1.0,0.0,1650917180069789.0,0
1498,0.0,1.0,3.0,-2.0,-6.0,-9.0,2.0,0.0,1650917180071656.0,0
1499,-2.0,1.0,-2.0,-3.0,-4.0,-7.0,-10.0,0.0,1650917180071656.0,0
1500,2.0,-1.0,5.0,2.0,-4.0,5.0,11.0,2.0,1650917180092153.0,0
1501,0.0,-9.0,-8.0,-7.0,-4.0,-5.0,-7.0,-3.0,1650917180092153.0,0
1502,2.0,0.0,-2.0,0.0,8.0,2.0,1.0,2.0,1650917180093993.0,0
1503,0.0,-1.0,-3.0,0.0,-2.0,-2.0,0.0,-3.0,1650917180093993.0,0
1504,-3.0,-1.0,2.0,3.0,-6.0,-8.0,-2.0,-1.0,1650917180107911.0,0
1505,-1.0,2.0,-3.0,-4.0,-3.0,-2.0,-2.0,1.0,1650917180107911.0,0
1506,-3.0,0.0,2.0,3.0,3.0,10.0,1.0,1.0,1650917180108912.0,0
1507,1.0,2.0,4.0,2.0,4.0,5.0,1.0,1.0,1650917180108912.0,0
1508,2.0,0.0,2.0,3.0,-1.0,-6.0,-3.0,0.0,1650917180131006.0,0
1509,0.0,-2.0,-6.0,-5.0,-6.0,-8.0,-2.0,-1.0,1650917180131006.0,0
1510,-2.0,-3.0,-1.0,-1.0,-3.0,-12.0,-6.0,-3.0,1650917180131006.0,0
1511,0.0,-1.0,1.0,-2.0,0.0,-2.0,3.0,2.0,1650917180131006.0,0
1512,-1.0,0.0,-1.0,-6.0,-4.0,9.0,2.0,-2.0,1650917180152642.0,0
1513,-1.0,1.0,3.0,4.0,-1.0,-2.0,-1.0,-1.0,1650917180152642.0,0
1514,2.0,1.0,1.0,2.0,11.0,11.0,1.0,1.0,1650917180167832.0,0
1515,-1.0,-1.0,0.0,2.0,5.0,-4.0,0.0,1.0,1650917180167832.0,0
1516,1.0,1.0,-3.0,-2.0,-4.0,1.0,1.0,1.0,1650917180167832.0,0
1517,0.0,3.0,1.0,1.0,0.0,4.0,-2.0,2.0,1650917180167832.0,0
1518,-5.0,-2.0,4.0,3.0,-5.0,-9.0,-3.0,-7.0,1650917180173850.0,0
1519,3.0,0.0,-8.0,-7.0,-11.0,-7.0,1.0,1.0,1650917180173850.0,0
1520,1.0,-1.0,-2.0,3.0,4.0,1.0,-3.0,-1.0,1650917180190447.0,0
1521,-1.0,3.0,1.0,-5.0,1.0,2.0,-2.0,-2.0,1650917180190447.0,0
1522,1.0,0.0,10.0,14.0,3.0,0.0,0.0,1.0,1650917180191158.0,0
1523,-1.0,-1.0,0.0,0.0,3.0,0.0,0.0,-1.0,1650917180191158.0,0
1524,2.0,2.0,3.0,0.0,-2.0,10.0,1.0,0.0,1650917180212166.0,0
1525,4.0,-1.0,-7.0,-5.0,-3.0,-1.0,-2.0,3.0,1650917180212166.0,0
1526,-1.0,-1.0,-4.0,-4.0,-3.0,-7.0,-1.0,1.0,1650917180214129.0,0
1527,-5.0,-5.0,-4.0,-2.0,-16.0,-20.0,-6.0,-2.0,1650917180214129.0,0
1528,0.0,1.0,0.0,4.0,13.0,8.0,1.0,0.0,1650917180226294.0,0
1529,-2.0,4.0,5.0,7.0,15.0,15.0,5.0,0.0,1650917180226294.0,0
1530,1.0,-3.0,-11.0,-6.0,3.0,12.0,3.0,2.0,1650917180233275.0,0
1531,-5.0,-2.0,1.0,-1.0,-7.0,-9.0,-4.0,-3.0,1650917180233275.0,0
1532,-3.0,-3.0,-7.0,-8.0,-19.0,-24.0,-6.0,-6.0,1650917180250590.0,0
1533,-2.0,0.0,-3.0,-4.0,-10.0,-4.0,-2.0,2.0,1650917180250590.0,0
1534,4.0,6.0,11.0,8.0,19.0,9.0,4.0,2.0,1650917180251433.0,0
1535,4.0,-1.0,1.0,5.0,14.0,14.0,8.0,9.0,1650917180251433.0,0
1536,-7.0,-7.0,-2.0,0.0,-6.0,-13.0,-7.0,-15.0,1650917180272867.0,0
1537,-4.0,-1.0,-7.0,-16.0,-12.0,-1.0,-6.0,-3.0,1650917180272867.0,0
1538,4.0,-6.0,-5.0,-5.0,-14.0,-2.0,0.0,1.0,1650917180273703.0,0
1539,1.0,8.0,3.0,1.0,5.0,2.0,11.0,28.0,1650917180273703.0,0
1540,0.0,3.0,4.0,6.0,7.0,14.0,-2.0,-35.0,1650917180287008.0,0
1541,-5.0,-15.0,-2.0,5.0,1.0,-7.0,-5.0,2.0,1650917180287008.0,0
1542,-5.0,2.0,0.0,-3.0,-2.0,-8.0,-4.0,0.0,1650917180293969.0,0
1543,-7.0,-11.0,-8.0,-10.0,-4.0,-2.0,-6.0,-15.0,1650917180293969.0,0
1544,0.0,-6.0,-4.0,-1.0,-5.0,-7.0,6.0,16.0,1650917180310337.0,0
1545,3.0,4.0,0.0,1.0,-17.0,-18.0,-1.0,-11.0,1650917180310337.0,0
1546,1.0,4.0,-2.0,-3.0,12.0,14.0,1.0,12.0,1650917180311010.0,0
1547,8.0,13.0,5.0,4.0,5.0,-7.0,1.0,-3.0,1650917180311010.0,0
1548,4.0,11.0,-5.0,0.0,1.0,9.0,4.0,18.0,1650917180331958.0,0
1549,-5.0,-14.0,0.0,1.0,1.0,5.0,-1.0,-6.0,1650917180331958.0,0
1550,-6.0,-13.0,-4.0,-3.0,-5.0,-7.0,2.0,-9.0,1650917180333954.0,0
1551,-7.0,5.0,2.0,3.0,3.0,7.0,-1.0,-11.0,1650917180333954.0,0
1552,-1.0,3.0,1.0,-2.0,1.0,0.0,1.0,10.0,1650917180346918.0,0
1553,8.0,24.0,9.0,17.0,10.0,5.0,2.0,-6.0,1650917180346918.0,0
1554,-3.0,-14.0,-3.0,-12.0,-8.0,-6.0,-4.0,-2.0,1650917180353922.0,0
1555,-5.0,-24.0,-4.0,3.0,-2.0,0.0,-3.0,-7.0,1650917180353922.0,0
1556,-3.0,-8.0,-6.0,-3.0,-4.0,-4.0,2.0,11.0,1650917180369857.0,0
1557,-3.0,-18.0,-32.0,-30.0,-8.0,-1.0,0.0,6.0,1650917180369857.0,0
1558,11.0,11.0,4.0,6.0,-2.0,-6.0,-6.0,-7.0,1650917180371884.0,0
1559,-11.0,3.0,7.0,3.0,-8.0,-5.0,-3.0,-5.0,1650917180371884.0,0
1560,-5.0,-5.0,13.0,4.0,2.0,-2.0,1.0,4.0,1650917180392087.0,0
1561,-10.0,-1.0,6.0,18.0,24.0,6.0,0.0,1.0,1650917180392087.0,0
1562,8.0,26.0,-5.0,-13.0,-8.0,-2.0,3.0,2.0,1650917180393985.0,0
1563,24.0,1.0,14.0,28.0,17.0,14.0,8.0,5.0,1650917180393985.0,0
1564,-24.0,-12.0,-10.0,-5.0,1.0,2.0,-10.0,-11.0,1650917180407494.0,0
1565,13.0,21.0,2.0,-9.0,-10.0,-10.0,3.0,14.0,1650917180407494.0,0
1566,-6.0,-19.0,18.0,25.0,9.0,0.0,-4.0,-11.0,1650917180413512.0,0
1567,3.0,10.0,-21.0,-22.0,-7.0,8.0,6.0,8.0,1650917180413512.0,0
1568,-3.0,-39.0,12.0,13.0,-4.0,-5.0,-5.0,-13.0,1650917180430456.0,0
1569,-5.0,-6.0,-11.0,-13.0,4.0,0.0,0.0,-6.0,1650917180430456.0,0
1570,16.0,40.0,-6.0,-7.0,-20.0,-15.0,0.0,13.0,1650917180431294.0,0
1571,27.0,50.0,15.0,2.0,1.0,4.0,7.0,27.0,1650917180431294.0,0
1572,-23.0,-23.0,-6.0,-5.0,20.0,14.0,2.0,-17.0,1650917180452428.0,3
1573,-16.0,-67.0,-30.0,-20.0,-35.0,-6.0,3.0,5.0,1650917180452428.0,3
1574,6.0,19.0,31.0,16.0,-2.0,-6.0,-4.0,21.0,1650917180453450.0,3
1575,-11.0,15.0,4.0,16.0,24.0,6.0,-5.0,-36.0,1650917180453450.0,3
1576,22.0,58.0,-1.0,-24.0,-12.0,-9.0,-4.0,9.0,1650917180466552.0,3
1577,7.0,9.0,1.0,11.0,37.0,13.0,3.0,3.0,1650917180466552.0,3
1578,-6.0,-9.0,-12.0,-2.0,-27.0,-1.0,5.0,-7.0,1650917180474375.0,3
1579,-7.0,-27.0,17.0,-13.0,-16.0,-13.0,-9.0,9.0,1650917180474375.0,3
1580,-9.0,-13.0,14.0,32.0,-14.0,-22.0,-15.0,-5.0,1650917180490605.0,3
1581,7.0,7.0,-7.0,-18.0,2.0,20.0,12.0,39.0,1650917180490605.0,3
1582,-8.0,-15.0,-28.0,-30.0,6.0,9.0,-6.0,-17.0,1650917180491725.0,3
1583,-11.0,-15.0,-25.0,6.0,5.0,-2.0,1.0,-29.0,1650917180491725.0,3
1584,20.0,-2.0,-14.0,-37.0,-48.0,-18.0,-12.0,-8.0,1650917180513022.0,3
1585,0.0,22.0,30.0,9.0,18.0,6.0,0.0,2.0,1650917180513022.0,3
1586,24.0,1.0,12.0,38.0,17.0,1.0,1.0,-2.0,1650917180513861.0,3
1587,-21.0,-8.0,-21.0,-23.0,-30.0,-15.0,-16.0,-35.0,1650917180513861.0,3
1588,-20.0,10.0,-1.0,-8.0,9.0,5.0,5.0,22.0,1650917180526042.0,3
1589,0.0,-80.0,-13.0,22.0,9.0,-2.0,-2.0,1.0,1650917180526042.0,3
1590,-30.0,-12.0,-11.0,-20.0,4.0,5.0,-9.0,-18.0,1650917180535144.0,3
1591,7.0,-6.0,-6.0,30.0,20.0,8.0,8.0,15.0,1650917180535144.0,3
1592,47.0,42.0,2.0,-2.0,31.0,28.0,27.0,35.0,1650917180549325.0,3
1593,-9.0,38.0,6.0,-6.0,-30.0,-21.0,-10.0,-20.0,1650917180549325.0,3
1594,-5.0,-34.0,-14.0,-5.0,-4.0,3.0,10.0,37.0,1650917180551322.0,3
1595,-25.0,-30.0,8.0,19.0,19.0,0.0,-12.0,-47.0,1650917180551322.0,3
1596,5.0,7.0,-3.0,-6.0,6.0,3.0,-4.0,4.0,1650917180572138.0,3
1597,-2.0,19.0,6.0,-3.0,-11.0,-4.0,0.0,-18.0,1650917180572138.0,3
1598,-7.0,11.0,10.0,2.0,-14.0,-16.0,-7.0,-4.0,1650917180579112.0,3
1599,33.0,13.0,-5.0,1.0,10.0,9.0,9.0,20.0,1650917180579112.0,3
1600,-1.0,-6.0,17.0,-4.0,14.0,4.0,1.0,8.0,1650917180586129.0,3
1601,3.0,17.0,4.0,10.0,-6.0,-9.0,-18.0,-14.0,1650917180586129.0,3
1602,-11.0,-8.0,-1.0,-16.0,-2.0,-8.0,12.0,-8.0,1650917180595195.0,3
1603,-34.0,-28.0,-3.0,14.0,-18.0,-5.0,-5.0,31.0,1650917180595195.0,3
1604,14.0,28.0,14.0,12.0,-4.0,23.0,22.0,2.0,1650917180610358.0,3
1605,8.0,10.0,-13.0,-8.0,21.0,10.0,-3.0,-9.0,1650917180610358.0,3
1606,-14.0,-44.0,-15.0,-32.0,-8.0,8.0,-10.0,-12.0,1650917180611113.0,3
1607,-5.0,26.0,-1.0,-25.0,-14.0,-8.0,-3.0,10.0,1650917180611113.0,3
1608,21.0,-9.0,11.0,40.0,-8.0,-25.0,-7.0,19.0,1650917180632565.0,3
1609,-44.0,-13.0,8.0,-2.0,-30.0,-14.0,-9.0,-54.0,1650917180632565.0,3
1610,-10.0,-4.0,-10.0,12.0,11.0,-6.0,-10.0,-17.0,1650917180633459.0,3
1611,2.0,0.0,-5.0,-35.0,-3.0,6.0,-11.0,-48.0,1650917180633459.0,3
1612,10.0,-5.0,-12.0,15.0,23.0,6.0,-4.0,12.0,1650917180646393.0,3
1613,-9.0,33.0,14.0,11.0,-29.0,-19.0,-10.0,3.0,1650917180646393.0,3
1614,-9.0,32.0,13.0,4.0,35.0,24.0,14.0,-11.0,1650917180655356.0,3
1615,-2.0,-49.0,-24.0,-13.0,-17.0,-4.0,11.0,22.0,1650917180655356.0,3
1616,-12.0,-4.0,3.0,-6.0,-18.0,-18.0,-8.0,-26.0,1650917180671385.0,3
1617,4.0,-16.0,-6.0,6.0,10.0,1.0,-6.0,2.0,1650917180671385.0,3
1618,2.0,-2.0,-10.0,-2.0,-4.0,3.0,-7.0,1.0,1650917180672259.0,3
1619,-1.0,19.0,4.0,1.0,-9.0,-1.0,8.0,6.0,1650917180672259.0,3
1620,-1.0,8.0,-21.0,-15.0,-8.0,0.0,1.0,-5.0,1650917180692532.0,3
1621,6.0,-17.0,6.0,4.0,16.0,-1.0,3.0,-4.0,1650917180692532.0,3
1622,-2.0,8.0,7.0,6.0,-39.0,-16.0,-3.0,-7.0,1650917180693530.0,3
1623,12.0,11.0,13.0,15.0,66.0,31.0,14.0,23.0,1650917180693530.0,3
1624,-15.0,-32.0,-7.0,12.0,-24.0,-12.0,-12.0,-16.0,1650917180706842.0,3
1625,5.0,-4.0,-36.0,-79.0,-11.0,7.0,7.0,7.0,1650917180706842.0,3
1626,-6.0,1.0,21.0,16.0,0.0,2.0,11.0,32.0,1650917180714805.0,3
1627,4.0,-11.0,-21.0,-10.0,-9.0,-9.0,-12.0,-22.0,1650917180714805.0,3
1628,-16.0,-1.0,18.0,5.0,-3.0,9.0,8.0,6.0,1650917180730226.0,3
1629,11.0,10.0,7.0,21.0,32.0,22.0,15.0,13.0,1650917180730226.0,3
1630,24.0,3.0,24.0,8.0,3.0,7.0,2.0,-7.0,1650917180731238.0,3
1631,-1.0,45.0,3.0,2.0,-12.0,-15.0,-24.0,2.0,1650917180731238.0,3
1632,4.0,-31.0,-7.0,-13.0,-6.0,-16.0,33.0,-5.0,1650917180753329.0,3
1633,9.0,-4.0,-6.0,16.0,-12.0,-3.0,-14.0,1.0,1650917180753329.0,3
1634,-7.0,4.0,-3.0,15.0,-8.0,-4.0,7.0,-15.0,1650917180754190.0,3
1635,3.0,5.0,23.0,-6.0,19.0,30.0,19.0,5.0,1650917180754190.0,3
1636,30.0,7.0,-15.0,-31.0,-2.0,0.0,-5.0,12.0,1650917180766172.0,3
1637,-16.0,7.0,15.0,34.0,-13.0,-15.0,4.0,18.0,1650917180766172.0,3
1638,-4.0,15.0,-5.0,-26.0,-2.0,2.0,-6.0,1.0,1650917180775265.0,3
1639,-10.0,-19.0,-22.0,-12.0,-18.0,-22.0,-14.0,-10.0,1650917180775265.0,3
1640,-19.0,31.0,1.0,-12.0,-4.0,12.0,-2.0,-14.0,1650917180790647.0,3
1641,1.0,-29.0,-6.0,-1.0,27.0,7.0,7.0,6.0,1650917180790647.0,3
1642,28.0,23.0,0.0,14.0,35.0,12.0,-3.0,12.0,1650917180791271.0,3
1643,-1.0,-40.0,3.0,10.0,-42.0,-15.0,5.0,8.0,1650917180791271.0,3
1644,-6.0,-19.0,0.0,-17.0,36.0,13.0,1.0,-19.0,1650917180813258.0,3
1645,-6.0,26.0,2.0,5.0,-22.0,-7.0,-5.0,-13.0,1650917180813258.0,3
1646,8.0,21.0,-11.0,-12.0,-1.0,6.0,3.0,6.0,1650917180814096.0,3
1647,29.0,28.0,19.0,12.0,9.0,-2.0,-11.0,-13.0,1650917180814096.0,3
1648,6.0,0.0,21.0,25.0,4.0,8.0,14.0,41.0,1650917180826394.0,3
1649,1.0,-9.0,8.0,7.0,-14.0,-4.0,4.0,0.0,1650917180826394.0,3
1650,9.0,-23.0,-22.0,-5.0,-7.0,-20.0,-11.0,14.0,1650917180835374.0,3
1651,-17.0,4.0,12.0,-9.0,9.0,9.0,11.0,-15.0,1650917180835374.0,3
1652,-13.0,36.0,1.0,5.0,0.0,9.0,-7.0,-16.0,1650917180858011.0,3
1653,3.0,-6.0,6.0,-8.0,-5.0,1.0,6.0,17.0,1650917180858011.0,3
1654,-20.0,-46.0,-20.0,-20.0,-2.0,-9.0,-6.0,8.0,1650917180858849.0,3
1655,16.0,19.0,-4.0,8.0,16.0,9.0,2.0,-9.0,1650917180858849.0,3
1656,13.0,15.0,-28.0,-26.0,1.0,-5.0,-21.0,-25.0,1650917180873190.0,3
1657,21.0,-10.0,8.0,20.0,13.0,-5.0,7.0,21.0,1650917180873190.0,3
1658,-4.0,-6.0,20.0,5.0,0.0,10.0,13.0,-14.0,1650917180874029.0,3
1659,-16.0,-30.0,20.0,15.0,-3.0,0.0,-2.0,9.0,1650917180874029.0,3
1660,-25.0,-18.0,-8.0,2.0,-4.0,-10.0,-15.0,-1.0,1650917180886551.0,3
1661,-8.0,6.0,-2.0,-18.0,-14.0,-4.0,-12.0,-37.0,1650917180886551.0,3
1662,15.0,8.0,6.0,16.0,11.0,8.0,10.0,10.0,1650917180895347.0,3
1663,-27.0,-2.0,0.0,16.0,1.0,-3.0,-1.0,-6.0,1650917180895347.0,3
1664,9.0,2.0,-10.0,-30.0,-27.0,-10.0,4.0,28.0,1650917180910318.0,3
1665,21.0,19.0,0.0,-6.0,24.0,-2.0,-21.0,-44.0,1650917180910318.0,3
1666,-7.0,-3.0,-16.0,-8.0,-11.0,0.0,5.0,-12.0,1650917180911187.0,3
1667,8.0,11.0,-9.0,7.0,1.0,1.0,0.0,8.0,1650917180911187.0,3
1668,-37.0,-11.0,-1.0,15.0,-9.0,-10.0,9.0,26.0,1650917180932833.0,3
1669,-1.0,-10.0,5.0,2.0,-25.0,-14.0,-15.0,-26.0,1650917180932833.0,3
1670,-2.0,-17.0,1.0,1.0,14.0,-4.0,-10.0,-6.0,1650917180933696.0,3
1671,1.0,-6.0,-12.0,-10.0,-3.0,5.0,7.0,4.0,1650917180933696.0,3
1672,1.0,3.0,10.0,17.0,10.0,3.0,-9.0,-14.0,1650917180955933.0,3
1673,12.0,-1.0,1.0,-10.0,13.0,17.0,24.0,42.0,1650917180955933.0,3
1674,11.0,44.0,-20.0,-14.0,-11.0,-6.0,-5.0,-5.0,1650917180956933.0,3
1675,-31.0,-32.0,32.0,9.0,-25.0,-18.0,0.0,-1.0,1650917180956933.0,3
1676,3.0,35.0,-9.0,-1.0,17.0,-5.0,-21.0,-27.0,1650917180970513.0,3
1677,6.0,-18.0,-8.0,-5.0,16.0,27.0,20.0,31.0,1650917180970513.0,3
1678,-14.0,-14.0,13.0,10.0,-8.0,2.0,0.0,-6.0,1650917180971959.0,3
1679,23.0,16.0,-17.0,-25.0,-11.0,-11.0,-6.0,14.0,1650917180971959.0,3
1680,24.0,32.0,12.0,38.0,5.0,-10.0,-9.0,-33.0,1650917180992251.0,3
1681,-14.0,4.0,-2.0,-15.0,-4.0,-5.0,6.0,-3.0,1650917180992251.0,3
1682,1.0,-17.0,-11.0,-10.0,-2.0,-4.0,-4.0,-2.0,1650917180994085.0,3
1683,-13.0,2.0,-25.0,-22.0,-2.0,-1.0,-10.0,-11.0,1650917180994085.0,3
1684,-1.0,-41.0,9.0,5.0,-16.0,-1.0,3.0,-6.0,1650917181015375.0,3
1685,16.0,4.0,-4.0,14.0,20.0,-4.0,-2.0,4.0,1650917181015375.0,3
1686,14.0,10.0,6.0,-9.0,-13.0,9.0,18.0,65.0,1650917181016324.0,3
1687,0.0,6.0,22.0,4.0,-22.0,-6.0,-3.0,-22.0,1650917181016324.0,3
1688,-14.0,-13.0,-28.0,2.0,15.0,13.0,7.0,4.0,1650917181030655.0,3
1689,2.0,19.0,-2.0,-22.0,8.0,4.0,-6.0,-34.0,1650917181030655.0,3
1690,-54.0,-65.0,9.0,7.0,-12.0,-8.0,-15.0,-23.0,1650917181031687.0,3
1691,20.0,-10.0,-1.0,5.0,-3.0,-10.0,7.0,26.0,1650917181031687.0,3
1692,-10.0,-14.0,-4.0,-23.0,-15.0,1.0,0.0,0.0,1650917181052987.0,3
1693,-3.0,-2.0,5.0,27.0,5.0,-1.0,9.0,20.0,1650917181052987.0,3
1694,23.0,27.0,-3.0,-5.0,18.0,19.0,8.0,2.0,1650917181053826.0,3
1695,6.0,2.0,-3.0,-13.0,-14.0,-1.0,-4.0,15.0,1650917181053826.0,3
1696,-2.0,-14.0,-5.0,3.0,3.0,-9.0,3.0,2.0,1650917181075341.0,3
1697,9.0,9.0,-1.0,-7.0,-12.0,0.0,-4.0,6.0,1650917181075341.0,3
1698,-8.0,9.0,18.0,6.0,-4.0,-9.0,4.0,0.0,1650917181076340.0,3
1699,25.0,-1.0,-13.0,-1.0,25.0,10.0,10.0,22.0,1650917181076340.0,3
1700,-47.0,-10.0,-4.0,2.0,6.0,6.0,-4.0,-15.0,1650917181089306.0,3
1701,-21.0,-9.0,26.0,33.0,0.0,-6.0,1.0,2.0,1650917181089306.0,3
1702,31.0,6.0,-4.0,-2.0,1.0,3.0,1.0,1.0,1650917181097319.0,3
1703,14.0,22.0,-8.0,-8.0,-14.0,-4.0,-4.0,22.0,1650917181097319.0,3
1704,25.0,17.0,5.0,-7.0,15.0,5.0,6.0,5.0,1650917181112068.0,3
1705,-24.0,-26.0,1.0,-5.0,-6.0,1.0,-9.0,-15.0,1650917181112068.0,3
1706,-29.0,-49.0,-14.0,12.0,-7.0,-10.0,-11.0,-34.0,1650917181114096.0,3
1707,4.0,24.0,-9.0,-5.0,2.0,2.0,7.0,5.0,1650917181114096.0,3
1708,-8.0,-15.0,7.0,13.0,-12.0,-10.0,-15.0,-17.0,1650917181135421.0,3
1709,9.0,30.0,1.0,-14.0,-5.0,8.0,7.0,24.0,1650917181135421.0,3
1710,-5.0,9.0,-25.0,9.0,-11.0,-6.0,4.0,-20.0,1650917181136421.0,3
1711,-14.0,-9.0,12.0,-5.0,5.0,-3.0,-5.0,-7.0,1650917181136421.0,3
1712,15.0,8.0,11.0,-2.0,22.0,12.0,12.0,5.0,1650917181149519.0,3
1713,7.0,-22.0,-5.0,4.0,12.0,16.0,-3.0,28.0,1650917181149519.0,3
1714,-1.0,19.0,-1.0,-3.0,13.0,7.0,2.0,1.0,1650917181156515.0,3
1715,8.0,-1.0,0.0,-5.0,-7.0,-4.0,-5.0,-13.0,1650917181156515.0,3
1716,-41.0,-22.0,-6.0,0.0,-12.0,-12.0,-5.0,-30.0,1650917181172367.0,3
1717,16.0,25.0,-7.0,-9.0,-9.0,-16.0,-3.0,11.0,1650917181172367.0,3
1718,26.0,-17.0,6.0,-3.0,-1.0,4.0,-6.0,6.0,1650917181174351.0,3
1719,-7.0,-9.0,-1.0,24.0,9.0,1.0,6.0,13.0,1650917181174351.0,3
1720,2.0,17.0,17.0,-7.0,-11.0,1.0,1.0,-31.0,1650917181195682.0,3
1721,32.0,-5.0,-16.0,-4.0,-21.0,-18.0,-17.0,10.0,1650917181195682.0,3
1722,-26.0,19.0,10.0,-1.0,20.0,11.0,12.0,23.0,1650917181196717.0,3
1723,2.0,7.0,-6.0,-3.0,-9.0,-6.0,-4.0,-29.0,1650917181196717.0,3
1724,6.0,-12.0,-3.0,-1.0,9.0,4.0,0.0,24.0,1650917181209009.0,3
1725,-25.0,-1.0,5.0,18.0,-3.0,-15.0,-19.0,-54.0,1650917181209009.0,3
1726,13.0,2.0,-1.0,-7.0,-5.0,12.0,17.0,4.0,1650917181216997.0,3
1727,-24.0,-30.0,-14.0,-19.0,19.0,2.0,-9.0,-1.0,1650917181216997.0,3
1728,15.0,1.0,-12.0,8.0,23.0,17.0,22.0,18.0,1650917181233313.0,3
1729,1.0,5.0,3.0,-1.0,-1.0,3.0,-13.0,11.0,1650917181233313.0,3
1730,-31.0,-2.0,4.0,0.0,-18.0,-11.0,-2.0,-40.0,1650917181234188.0,3
1731,-3.0,1.0,-15.0,-10.0,22.0,4.0,-5.0,-4.0,1650917181234188.0,3
1732,36.0,22.0,30.0,21.0,-15.0,-7.0,6.0,12.0,1650917181255642.0,3
1733,-35.0,-31.0,15.0,7.0,7.0,4.0,4.0,-14.0,1650917181255642.0,3
1734,19.0,10.0,-1.0,-2.0,0.0,-6.0,-21.0,3.0,1650917181256474.0,3
1735,-24.0,-8.0,-16.0,-6.0,-23.0,-8.0,-4.0,-6.0,1650917181256474.0,3
1736,10.0,16.0,0.0,18.0,-16.0,-18.0,4.0,-7.0,1650917181269893.0,3
1737,-6.0,-30.0,-3.0,-18.0,9.0,14.0,13.0,27.0,1650917181269893.0,3
1738,6.0,-2.0,-2.0,-5.0,-21.0,-7.0,7.0,8.0,1650917181275669.0,3
1739,9.0,-11.0,18.0,19.0,16.0,8.0,4.0,-16.0,1650917181275669.0,3
1740,8.0,22.0,-11.0,-33.0,-9.0,-3.0,-9.0,10.0,1650917181292149.0,3
1741,3.0,35.0,2.0,7.0,12.0,4.0,-1.0,-22.0,1650917181292149.0,3
1742,-3.0,-8.0,5.0,16.0,5.0,-6.0,-35.0,-7.0,1650917181293981.0,3
1743,32.0,25.0,16.0,-8.0,21.0,18.0,43.0,35.0,1650917181293981.0,3
1744,-17.0,-25.0,-11.0,-32.0,-36.0,-12.0,-21.0,-6.0,1650917181315365.0,3
1745,-9.0,-5.0,4.0,26.0,17.0,2.0,10.0,-13.0,1650917181315365.0,3
1746,1.0,11.0,13.0,-27.0,6.0,8.0,3.0,13.0,1650917181316361.0,3
1747,-16.0,-6.0,-34.0,9.0,-1.0,-6.0,-17.0,-31.0,1650917181316361.0,3
1748,-8.0,-6.0,-4.0,0.0,-3.0,-2.0,-11.0,3.0,1650917181330237.0,3
1749,11.0,29.0,-13.0,-12.0,-8.0,-2.0,9.0,16.0,1650917181330237.0,3
1750,-10.0,-58.0,-14.0,12.0,14.0,-11.0,0.0,21.0,1650917181336508.0,3
1751,13.0,36.0,10.0,0.0,-8.0,-2.0,-18.0,-39.0,1650917181336508.0,3
1752,-51.0,-41.0,-28.0,-23.0,-9.0,-3.0,12.0,35.0,1650917181352808.0,3
1753,-10.0,3.0,1.0,11.0,12.0,1.0,-5.0,-10.0,1650917181352808.0,3
1754,6.0,28.0,-12.0,-13.0,-5.0,0.0,3.0,-2.0,1650917181353657.0,3
1755,15.0,-20.0,7.0,-17.0,-28.0,-3.0,1.0,10.0,1650917181353657.0,3
1756,-22.0,23.0,-9.0,19.0,34.0,10.0,-3.0,-12.0,1650917181375080.0,3
1757,-8.0,1.0,-1.0,-36.0,-55.0,-19.0,0.0,2.0,1650917181375080.0,3
1758,-8.0,1.0,1.0,-1.0,28.0,12.0,-2.0,-8.0,1650917181376939.0,3
1759,-2.0,-24.0,-6.0,2.0,-5.0,1.0,-7.0,-7.0,1650917181376939.0,3
1760,8.0,-9.0,26.0,15.0,-2.0,-3.0,-8.0,0.0,1650917181388119.0,3
1761,-10.0,-16.0,-3.0,29.0,18.0,1.0,5.0,-4.0,1650917181388119.0,3
1762,11.0,17.0,-5.0,-16.0,-7.0,4.0,0.0,-14.0,1650917181397666.0,3
1763,-1.0,19.0,3.0,4.0,2.0,7.0,5.0,22.0,1650917181397666.0,3
1764,40.0,13.0,-5.0,-9.0,4.0,6.0,2.0,22.0,1650917181413178.0,3
1765,2.0,-3.0,-3.0,-6.0,-7.0,-9.0,-8.0,-6.0,1650917181413178.0,3
1766,2.0,-6.0,26.0,23.0,-3.0,-9.0,-12.0,-49.0,1650917181414062.0,3
1767,-1.0,1.0,15.0,0.0,-5.0,-6.0,-10.0,21.0,1650917181414062.0,3
1768,3.0,1.0,7.0,-4.0,-3.0,0.0,32.0,6.0,1650917181435187.0,3
1769,32.0,-2.0,7.0,-14.0,-5.0,2.0,-1.0,40.0,1650917181435187.0,3
1770,1.0,6.0,-11.0,19.0,6.0,0.0,12.0,-4.0,1650917181436150.0,3
1771,5.0,13.0,-3.0,-10.0,-18.0,-9.0,-4.0,5.0,1650917181436150.0,3
1772,8.0,-9.0,-8.0,9.0,30.0,17.0,-6.0,-14.0,1650917181448307.0,3
1773,-18.0,-3.0,1.0,6.0,-21.0,-5.0,1.0,-17.0,1650917181448307.0,3
1774,-1.0,15.0,25.0,34.0,7.0,2.0,5.0,6.0,1650917181457493.0,3
1775,-9.0,-5.0,-9.0,-35.0,19.0,19.0,4.0,3.0,1650917181457493.0,3
1776,-8.0,-18.0,1.0,7.0,0.0,-5.0,-1.0,1.0,1650917181472834.0,3
1777,2.0,4.0,-20.0,-15.0,-9.0,-2.0,2.0,-8.0,1650917181472834.0,3
1778,8.0,18.0,8.0,12.0,-26.0,-21.0,-14.0,10.0,1650917181473684.0,3
1779,-1.0,-7.0,-2.0,-8.0,-3.0,4.0,13.0,3.0,1650917181473684.0,3
1780,1.0,0.0,7.0,3.0,-2.0,-1.0,-7.0,-9.0,1650917181495950.0,3
1781,2.0,-1.0,-10.0,-4.0,9.0,3.0,-21.0,23.0,1650917181495950.0,3
1782,-2.0,-21.0,-11.0,-11.0,-5.0,3.0,25.0,-16.0,1650917181501090.0,3
1783,15.0,-10.0,4.0,5.0,-6.0,-10.0,20.0,43.0,1650917181501090.0,3
1784,-5.0,-5.0,6.0,3.0,1.0,10.0,-6.0,-22.0,1650917181508980.0,3
1785,7.0,11.0,7.0,7.0,14.0,8.0,8.0,18.0,1650917181508980.0,3
1786,0.0,-1.0,-20.0,-21.0,-2.0,-13.0,-29.0,-28.0,1650917181517326.0,3
1787,-28.0,1.0,6.0,17.0,4.0,7.0,-4.0,-21.0,1650917181517326.0,3
1788,5.0,8.0,-7.0,-3.0,-2.0,6.0,5.0,6.0,1650917181532502.0,3
1789,-17.0,-17.0,-2.0,-4.0,-2.0,-14.0,-5.0,-10.0,1650917181532502.0,3
1790,0.0,0.0,0.0,-1.0,-9.0,4.0,2.0,15.0,1650917181534358.0,3
1791,3.0,-1.0,8.0,24.0,21.0,2.0,-4.0,-7.0,1650917181534358.0,3
1792,4.0,3.0,2.0,2.0,8.0,7.0,-2.0,-7.0,1650917181555516.0,3
1793,-1.0,8.0,-13.0,-23.0,1.0,3.0,5.0,-8.0,1650917181555516.0,3
1794,3.0,3.0,9.0,2.0,3.0,-4.0,2.0,12.0,1650917181556516.0,3
1795,-5.0,-15.0,-21.0,-10.0,-13.0,-18.0,-8.0,-9.0,1650917181556516.0,3
1796,3.0,-1.0,13.0,12.0,-10.0,-10.0,-5.0,6.0,1650917181568824.0,3
1797,-1.0,0.0,5.0,10.0,9.0,11.0,2.0,-7.0,1650917181568824.0,3
1798,4.0,0.0,-24.0,-18.0,-2.0,8.0,16.0,17.0,1650917181578123.0,3
1799,4.0,9.0,18.0,12.0,0.0,3.0,-17.0,-9.0,1650917181578123.0,3
1800,-27.0,-26.0,-4.0,4.0,-7.0,-13.0,9.0,-3.0,1650917181592249.0,3
1801,-4.0,-5.0,-23.0,-33.0,-20.0,-19.0,-3.0,-23.0,1650917181592249.0,3
1802,-8.0,4.0,8.0,11.0,0.0,-6.0,-13.0,-2.0,1650917181594082.0,3
1803,6.0,-2.0,5.0,3.0,12.0,12.0,0.0,2.0,1650917181594082.0,3
1804,-1.0,4.0,-19.0,-16.0,-2.0,6.0,10.0,7.0,1650917181615746.0,3
1805,4.0,3.0,8.0,12.0,-3.0,-1.0,3.0,0.0,1650917181615746.0,3
1806,-6.0,-7.0,-15.0,-22.0,5.0,4.0,-1.0,9.0,1650917181616587.0,3
1807,-5.0,3.0,18.0,18.0,-6.0,-23.0,-7.0,-7.0,1650917181616587.0,3
1808,14.0,5.0,6.0,0.0,-2.0,12.0,-4.0,2.0,1650917181629021.0,3
1809,-6.0,-1.0,5.0,10.0,1.0,11.0,9.0,-6.0,1650917181629021.0,3
1810,9.0,10.0,-2.0,-3.0,3.0,-7.0,-5.0,5.0,1650917181643394.0,3
1811,-1.0,-3.0,-8.0,-3.0,-8.0,-14.0,3.0,2.0,1650917181643394.0,3
1812,2.0,-5.0,-7.0,-11.0,-5.0,3.0,-5.0,-4.0,1650917181652715.0,3
1813,-1.0,4.0,4.0,18.0,20.0,14.0,2.0,-4.0,1650917181652715.0,3
1814,1.0,2.0,12.0,9.0,7.0,6.0,4.0,3.0,1650917181653579.0,3
1815,-7.0,6.0,7.0,-18.0,-7.0,0.0,2.0,-1.0,1650917181653579.0,3
1816,8.0,-8.0,-9.0,-2.0,-8.0,-10.0,-6.0,-1.0,1650917181675636.0,3
1817,5.0,2.0,0.0,11.0,-3.0,-6.0,0.0,3.0,1650917181675636.0,3
1818,-1.0,-4.0,2.0,-14.0,1.0,-2.0,-10.0,10.0,1650917181676747.0,3
1819,-4.0,1.0,-3.0,1.0,-3.0,4.0,17.0,-2.0,1650917181676747.0,3
1820,6.0,5.0,-11.0,-17.0,-1.0,-3.0,-14.0,0.0,1650917181689986.0,3
1821,0.0,-1.0,17.0,11.0,8.0,10.0,14.0,3.0,1650917181689986.0,3
1822,-1.0,-6.0,-9.0,10.0,6.0,7.0,13.0,7.0,1650917181698131.0,3
1823,-4.0,-4.0,2.0,-4.0,-8.0,-10.0,-10.0,-3.0,1650917181698131.0,3
1824,5.0,5.0,-3.0,0.0,0.0,-20.0,-2.0,-5.0,1650917181712170.0,3
1825,-1.0,-3.0,1.0,-3.0,-5.0,8.0,-6.0,5.0,1650917181712170.0,3
1826,-2.0,0.0,-5.0,-9.0,-7.0,0.0,-6.0,-7.0,1650917181714164.0,3
1827,-3.0,-2.0,3.0,14.0,7.0,13.0,-12.0,-2.0,1650917181714164.0,3
1828,3.0,7.0,8.0,14.0,8.0,1.0,20.0,2.0,1650917181735179.0,3
1829,-5.0,-6.0,-15.0,-46.0,-19.0,-19.0,-10.0,-4.0,1650917181735179.0,3
1830,-3.0,-1.0,11.0,12.0,-5.0,-4.0,-1.0,-6.0,1650917181736179.0,3
1831,0.0,-4.0,-13.0,-5.0,2.0,6.0,3.0,2.0,1650917181736179.0,3
1832,-2.0,0.0,0.0,5.0,-1.0,1.0,-7.0,0.0,1650917181748174.0,3
1833,8.0,2.0,7.0,35.0,7.0,-6.0,-1.0,1.0,1650917181748174.0,3
1834,-18.0,-11.0,-46.0,-58.0,-6.0,3.0,-4.0,-3.0,1650917181757144.0,3
1835,-19.0,9.0,28.0,26.0,7.0,6.0,14.0,2.0,1650917181757144.0,3
1836,15.0,-5.0,-16.0,-38.0,-10.0,5.0,-5.0,1.0,1650917181772574.0,3
1837,-2.0,-1.0,-10.0,-21.0,-21.0,-11.0,-3.0,-7.0,1650917181772574.0,3
1838,7.0,3.0,12.0,24.0,14.0,9.0,8.0,9.0,1650917181774423.0,3
1839,5.0,5.0,1.0,13.0,7.0,-4.0,-5.0,-1.0,1650917181774423.0,3
1840,-8.0,-2.0,-5.0,-1.0,-5.0,-6.0,0.0,-6.0,1650917181795753.0,3
1841,-3.0,2.0,19.0,24.0,0.0,-2.0,-16.0,-5.0,1650917181795753.0,3
1842,8.0,-4.0,19.0,29.0,0.0,0.0,6.0,14.0,1650917181796876.0,3
1843,0.0,-3.0,-29.0,-38.0,4.0,12.0,15.0,-4.0,1650917181796876.0,3
1844,-5.0,-11.0,-29.0,-50.0,-22.0,-8.0,-6.0,0.0,1650917181808971.0,3
1845,2.0,6.0,5.0,12.0,7.0,-2.0,-1.0,-1.0,1650917181808971.0,3
1846,-2.0,6.0,9.0,17.0,-5.0,-8.0,1.0,-3.0,1650917181817306.0,3
1847,8.0,3.0,17.0,14.0,9.0,6.0,-5.0,-3.0,1650917181817306.0,3
1848,-4.0,-9.0,7.0,7.0,-1.0,-4.0,-11.0,-4.0,1650917181832448.0,3
1849,-4.0,-6.0,-14.0,-21.0,-3.0,-1.0,2.0,1.0,1650917181832448.0,3
1850,-2.0,3.0,10.0,19.0,6.0,3.0,5.0,0.0,1650917181834333.0,3
1851,2.0,0.0,-9.0,-8.0,-5.0,-9.0,-21.0,-9.0,1650917181834333.0,3
1852,1.0,8.0,18.0,13.0,7.0,5.0,26.0,8.0,1650917181854993.0,3
1853,-2.0,-4.0,-22.0,-21.0,1.0,20.0,1.0,-4.0,1650917181854993.0,3
1854,6.0,1.0,-10.0,-1.0,4.0,2.0,2.0,1.0,1650917181856824.0,3
1855,0.0,-7.0,3.0,11.0,-4.0,-6.0,-6.0,-1.0,1650917181856824.0,3
1856,9.0,8.0,10.0,8.0,-4.0,-7.0,-12.0,-5.0,1650917181868956.0,3
1857,-15.0,-4.0,12.0,14.0,1.0,-5.0,9.0,2.0,1650917181868956.0,3
1858,-1.0,-3.0,-19.0,-24.0,1.0,4.0,-5.0,-8.0,1650917181878021.0,3
1859,-1.0,-6.0,-17.0,-20.0,-3.0,0.0,-1.0,-1.0,1650917181878021.0,3
1860,-1.0,5.0,15.0,19.0,-2.0,-1.0,2.0,3.0,1650917181892182.0,3
1861,6.0,6.0,4.0,22.0,5.0,-4.0,-3.0,3.0,1650917181892182.0,3
1862,6.0,-6.0,4.0,-46.0,-26.0,-15.0,-5.0,-7.0,1650917181894015.0,3
1863,-16.0,4.0,12.0,21.0,5.0,-17.0,2.0,0.0,1650917181894015.0,3
1864,2.0,2.0,-16.0,-16.0,11.0,37.0,0.0,1.0,1650917181914721.0,3
1865,-2.0,-6.0,8.0,5.0,10.0,17.0,17.0,5.0,1650917181914721.0,3
1866,-1.0,-3.0,0.0,10.0,3.0,-2.0,-11.0,-4.0,1650917181916552.0,3
1867,18.0,7.0,10.0,9.0,-2.0,-3.0,-5.0,2.0,1650917181916552.0,3
1868,-6.0,-3.0,7.0,8.0,-1.0,-14.0,11.0,3.0,1650917181937993.0,3
1869,3.0,1.0,22.0,11.0,-2.0,-13.0,-11.0,-9.0,1650917181937993.0,3
1870,-18.0,-2.0,1.0,10.0,5.0,8.0,2.0,-5.0,1650917181938993.0,3
1871,3.0,-6.0,-10.0,-17.0,-2.0,9.0,10.0,2.0,1650917181938993.0,3
1872,-3.0,1.0,-9.0,2.0,-3.0,-3.0,-8.0,-2.0,1650917181953119.0,3
1873,8.0,-2.0,-14.0,-18.0,-4.0,0.0,2.0,3.0,1650917181953119.0,3
1874,-6.0,-3.0,-6.0,-14.0,-12.0,-14.0,-1.0,-1.0,1650917181953953.0,3
1875,-6.0,-5.0,0.0,8.0,-4.0,0.0,-4.0,-1.0,1650917181953953.0,3
1876,0.0,0.0,5.0,9.0,4.0,2.0,-5.0,-3.0,1650917181974850.0,3
1877,5.0,4.0,-5.0,-17.0,-1.0,-20.0,1.0,1.0,1650917181974850.0,3
1878,4.0,5.0,12.0,5.0,3.0,17.0,-1.0,2.0,1650917181976814.0,3
1879,-3.0,-11.0,-21.0,-13.0,-7.0,9.0,1.0,-3.0,1650917181976814.0,3
1880,3.0,3.0,6.0,7.0,1.0,-9.0,-2.0,-2.0,1650917181998169.0,3
1881,-6.0,1.0,-6.0,-8.0,-2.0,-10.0,3.0,1.0,1650917181998169.0,3
1882,1.0,0.0,1.0,6.0,6.0,9.0,-2.0,-1.0,1650917181999000.0,3
