,EMG_s0,EMG_s1,EMG_s2,EMG_s3,EMG_s4,EMG_s5,EMG_s6,EMG_s7,timestamp,signal
0,-1.0,-2.0,-4.0,-1.0,-3.0,-3.0,2.0,0.0,1650916868867483.0,0
1,0.0,2.0,3.0,5.0,5.0,6.0,0.0,1.0,1650916868867483.0,0
2,2.0,1.0,0.0,-1.0,-6.0,-6.0,-4.0,-2.0,1650916868868323.0,0
3,0.0,-1.0,0.0,2.0,7.0,1.0,-4.0,-3.0,1650916868868323.0,0
4,-1.0,-1.0,-4.0,-1.0,-6.0,-15.0,9.0,1.0,1650916868889800.0,0
5,1.0,0.0,0.0,-1.0,-2.0,15.0,-2.0,1.0,1650916868889800.0,0
6,-3.0,-2.0,-4.0,-4.0,-1.0,1.0,2.0,-3.0,1650916868890800.0,0
7,2.0,1.0,-2.0,-1.0,-7.0,-13.0,-11.0,-1.0,1650916868890800.0,0
8,-1.0,0.0,4.0,5.0,7.0,2.0,0.0,0.0,1650916868903930.0,0
9,0.0,-2.0,-1.0,2.0,1.0,-5.0,-1.0,0.0,1650916868903930.0,0
10,2.0,0.0,0.0,-1.0,0.0,1.0,8.0,3.0,1650916868910957.0,0
11,-2.0,-4.0,-6.0,-12.0,-4.0,4.0,-8.0,-5.0,1650916868910957.0,0
12,0.0,-1.0,1.0,1.0,2.0,8.0,0.0,0.0,1650916868927124.0,0
13,-7.0,-3.0,-3.0,-4.0,1.0,-9.0,-5.0,-1.0,1650916868927124.0,0
14,2.0,2.0,1.0,2.0,1.0,-2.0,3.0,1.0,1650916868928947.0,0
15,0.0,-1.0,-2.0,-4.0,-3.0,-1.0,2.0,0.0,1650916868928947.0,0
16,2.0,0.0,1.0,1.0,0.0,3.0,1.0,-1.0,1650916868950090.0,0
17,0.0,1.0,0.0,1.0,2.0,2.0,0.0,0.0,1650916868950090.0,0
18,-2.0,-1.0,-5.0,-1.0,4.0,-1.0,-7.0,-3.0,1650916868951090.0,0
19,-2.0,0.0,5.0,4.0,2.0,-9.0,1.0,1.0,1650916868951090.0,0
20,-2.0,0.0,-6.0,-7.0,-9.0,7.0,-9.0,-4.0,1650916868963634.0,0
21,0.0,0.0,5.0,4.0,-1.0,2.0,12.0,2.0,1650916868963634.0,0
22,0.0,1.0,-2.0,-2.0,-4.0,-5.0,0.0,0.0,1650916868971816.0,0
23,0.0,1.0,0.0,1.0,2.0,-3.0,-7.0,-1.0,1650916868971816.0,0
24,0.0,2.0,7.0,5.0,2.0,-3.0,8.0,1.0,1650916868987714.0,0
25,1.0,-2.0,-9.0,-9.0,-1.0,-4.0,2.0,0.0,1650916868987714.0,0
26,-1.0,-2.0,1.0,0.0,1.0,5.0,-1.0,-1.0,1650916868988559.0,0
27,-3.0,-1.0,2.0,1.0,-1.0,1.0,-5.0,-2.0,1650916868988559.0,0
28,-1.0,0.0,-1.0,1.0,5.0,9.0,8.0,2.0,1650916869010023.0,0
29,-2.0,0.0,2.0,3.0,-3.0,1.0,-2.0,-2.0,1650916869010023.0,0
30,0.0,-3.0,1.0,-2.0,-5.0,-6.0,4.0,1.0,1650916869011034.0,0
31,3.0,-2.0,-4.0,-4.0,-1.0,-6.0,-8.0,-1.0,1650916869011034.0,0
32,-9.0,-2.0,-5.0,-1.0,3.0,1.0,0.0,-3.0,1650916869024331.0,0
33,0.0,0.0,7.0,3.0,-1.0,-11.0,-4.0,0.0,1650916869024331.0,0
34,0.0,-2.0,-6.0,-4.0,3.0,16.0,-11.0,-1.0,1650916869031338.0,0
35,-1.0,1.0,0.0,0.0,-7.0,6.0,14.0,3.0,1650916869031338.0,0
36,1.0,-1.0,1.0,5.0,-2.0,-11.0,0.0,0.0,1650916869048004.0,0
37,-3.0,-1.0,-5.0,-4.0,1.0,3.0,-3.0,-3.0,1650916869048004.0,0
38,-1.0,1.0,3.0,-1.0,1.0,-6.0,3.0,1.0,1650916869049030.0,0
39,0.0,-1.0,-3.0,-2.0,-3.0,3.0,1.0,1.0,1650916869049030.0,0
40,1.0,-2.0,-2.0,-5.0,-2.0,-2.0,-8.0,-4.0,1650916869069272.0,0
41,1.0,0.0,2.0,4.0,3.0,-2.0,3.0,-2.0,1650916869069272.0,0
42,-3.0,-2.0,-5.0,-5.0,-10.0,-16.0,-7.0,-2.0,1650916869071298.0,0
43,-2.0,0.0,1.0,0.0,2.0,3.0,0.0,-1.0,1650916869071298.0,0
44,2.0,0.0,1.0,2.0,6.0,9.0,7.0,3.0,1650916869084486.0,0
45,1.0,1.0,-7.0,-5.0,5.0,11.0,-1.0,1.0,1650916869084486.0,0
46,0.0,0.0,3.0,2.0,2.0,7.0,0.0,1.0,1650916869090490.0,0
47,-3.0,-1.0,-2.0,-3.0,-14.0,-22.0,0.0,-2.0,1650916869090490.0,0
48,-1.0,-2.0,2.0,-2.0,1.0,-3.0,-11.0,-1.0,1650916869107185.0,0
49,1.0,-1.0,-7.0,-5.0,0.0,6.0,-2.0,-1.0,1650916869107185.0,0
50,0.0,0.0,4.0,4.0,-1.0,-2.0,4.0,1.0,1650916869109055.0,0
51,-2.0,-1.0,0.0,0.0,1.0,0.0,-4.0,0.0,1650916869109055.0,0
52,0.0,-1.0,1.0,1.0,3.0,-2.0,0.0,0.0,1650916869129991.0,0
53,0.0,-1.0,-2.0,-5.0,-10.0,-12.0,-6.0,-3.0,1650916869129991.0,0
54,-3.0,-2.0,0.0,-4.0,-11.0,-8.0,-6.0,-3.0,1650916869130678.0,0
55,-3.0,-2.0,4.0,6.0,5.0,5.0,0.0,1.0,1650916869130678.0,0
56,1.0,2.0,-2.0,-3.0,7.0,6.0,0.0,0.0,1650916869143874.0,0
57,-2.0,0.0,0.0,2.0,10.0,11.0,16.0,3.0,1650916869143874.0,0
58,0.0,1.0,-2.0,-2.0,-1.0,5.0,-2.0,-3.0,1650916869151853.0,0
59,3.0,1.0,0.0,-1.0,-10.0,-13.0,-10.0,-1.0,1650916869151853.0,0
60,-7.0,-4.0,-4.0,-4.0,-5.0,-5.0,1.0,-1.0,1650916869168114.0,0
61,-1.0,-3.0,0.0,4.0,9.0,11.0,1.0,3.0,1650916869168114.0,0
62,-1.0,2.0,1.0,2.0,2.0,4.0,4.0,-1.0,1650916869168875.0,0
63,0.0,0.0,1.0,2.0,6.0,5.0,3.0,1.0,1650916869168875.0,0
64,1.0,1.0,3.0,-1.0,-5.0,-6.0,-6.0,-3.0,1650916869190312.0,0
65,-2.0,-1.0,-1.0,-2.0,-7.0,-19.0,-3.0,0.0,1650916869190312.0,0
66,1.0,-1.0,-2.0,-2.0,0.0,-1.0,7.0,1.0,1650916869191347.0,0
67,-2.0,-3.0,1.0,1.0,-5.0,4.0,-11.0,-5.0,1650916869191347.0,0
68,0.0,-1.0,-3.0,1.0,1.0,2.0,18.0,3.0,1650916869203658.0,0
69,3.0,0.0,1.0,-2.0,-4.0,-6.0,-6.0,-2.0,1650916869203658.0,0
70,1.0,-2.0,-3.0,-2.0,2.0,-2.0,-1.0,-1.0,1650916869211832.0,0
71,-5.0,-1.0,-9.0,-9.0,5.0,8.0,1.0,-4.0,1650916869211832.0,0
72,0.0,0.0,-1.0,3.0,3.0,10.0,2.0,2.0,1650916869227956.0,0
73,1.0,0.0,-1.0,-1.0,-9.0,-19.0,-12.0,0.0,1650916869227956.0,0
74,0.0,-1.0,0.0,0.0,6.0,13.0,1.0,-3.0,1650916869228839.0,0
75,0.0,-1.0,3.0,3.0,-5.0,6.0,14.0,4.0,1650916869228839.0,0
76,2.0,1.0,-1.0,-3.0,5.0,-2.0,-7.0,-1.0,1650916869249696.0,0
77,-4.0,-1.0,0.0,-1.0,1.0,2.0,-5.0,-2.0,1650916869249696.0,0
78,1.0,1.0,4.0,4.0,-7.0,-17.0,-1.0,1.0,1650916869251233.0,0
79,-2.0,-1.0,-5.0,-2.0,2.0,-1.0,-2.0,-3.0,1650916869251233.0,0
80,3.0,-1.0,-9.0,-1.0,-7.0,1.0,14.0,3.0,1650916869280606.0,0
81,2.0,-1.0,-3.0,-12.0,-11.0,-8.0,-7.0,-2.0,1650916869280606.0,0
82,2.0,0.0,5.0,2.0,-1.0,-8.0,2.0,-2.0,1650916869280697.0,0
83,-1.0,-6.0,-10.0,-11.0,11.0,9.0,-8.0,-4.0,1650916869280697.0,0
84,-2.0,0.0,5.0,4.0,-1.0,2.0,3.0,0.0,1650916869286685.0,0
85,-1.0,2.0,5.0,8.0,4.0,9.0,1.0,0.0,1650916869286685.0,0
86,1.0,1.0,1.0,1.0,9.0,12.0,2.0,2.0,1650916869288679.0,0
87,-4.0,3.0,8.0,7.0,2.0,-3.0,6.0,4.0,1650916869288679.0,0
88,-2.0,-3.0,-5.0,-6.0,-10.0,-15.0,-17.0,-6.0,1650916869310374.0,0
89,-3.0,-3.0,-2.0,2.0,-11.0,-4.0,4.0,0.0,1650916869310374.0,0
90,-1.0,1.0,-8.0,-9.0,-6.0,-5.0,-3.0,-3.0,1650916869311383.0,0
91,2.0,5.0,-1.0,-7.0,0.0,-12.0,6.0,3.0,1650916869311383.0,0
92,-1.0,-8.0,3.0,-1.0,2.0,14.0,-6.0,-2.0,1650916869323477.0,0
93,-2.0,-5.0,2.0,2.0,-4.0,5.0,3.0,-1.0,1650916869323477.0,0
94,0.0,-1.0,0.0,6.0,1.0,-4.0,-2.0,-1.0,1650916869332384.0,0
95,2.0,1.0,0.0,5.0,7.0,5.0,-6.0,-3.0,1650916869332384.0,0
96,2.0,7.0,9.0,7.0,3.0,1.0,8.0,4.0,1650916869347779.0,0
97,3.0,0.0,-3.0,2.0,2.0,1.0,-1.0,-2.0,1650916869347779.0,0
98,1.0,0.0,1.0,-2.0,-1.0,-4.0,4.0,5.0,1650916869348805.0,0
99,-1.0,-3.0,-7.0,-6.0,-4.0,-3.0,-11.0,-4.0,1650916869348805.0,0
100,0.0,-1.0,-4.0,-5.0,-1.0,-7.0,-2.0,-3.0,1650916869369981.0,0
101,-1.0,-1.0,3.0,3.0,4.0,5.0,-3.0,-1.0,1650916869369981.0,0
102,-1.0,1.0,1.0,2.0,-2.0,-1.0,0.0,0.0,1650916869370773.0,0
103,0.0,-1.0,10.0,3.0,0.0,7.0,8.0,3.0,1650916869370773.0,0
104,-2.0,-3.0,-8.0,-2.0,-1.0,-4.0,-12.0,-2.0,1650916869383084.0,0
105,0.0,1.0,-1.0,-5.0,-3.0,-12.0,0.0,-2.0,1650916869383084.0,0
106,-3.0,-2.0,-1.0,1.0,-2.0,1.0,0.0,-2.0,1650916869392060.0,0
107,1.0,-2.0,5.0,5.0,-2.0,14.0,6.0,3.0,1650916869392060.0,0
108,0.0,0.0,-3.0,-3.0,-4.0,-8.0,-12.0,-5.0,1650916869407488.0,0
109,-2.0,2.0,1.0,8.0,0.0,-1.0,15.0,4.0,1650916869407488.0,0
110,-1.0,-1.0,-3.0,-11.0,3.0,4.0,4.0,2.0,1650916869408360.0,0
111,-1.0,-2.0,0.0,-7.0,0.0,-3.0,-4.0,-5.0,1650916869408360.0,0
112,-1.0,0.0,-1.0,-7.0,-10.0,-14.0,-4.0,0.0,1650916869430015.0,0
113,-2.0,-5.0,-5.0,-5.0,3.0,6.0,-6.0,-3.0,1650916869430015.0,0
114,-1.0,1.0,4.0,12.0,9.0,12.0,-3.0,-2.0,1650916869431015.0,0
115,0.0,2.0,1.0,2.0,1.0,-1.0,13.0,2.0,1650916869431015.0,0
116,-1.0,-1.0,5.0,3.0,1.0,-3.0,2.0,0.0,1650916869443122.0,0
117,0.0,0.0,6.0,2.0,1.0,-2.0,1.0,1.0,1650916869443122.0,0
118,-1.0,-2.0,-4.0,-2.0,-4.0,-4.0,-10.0,-2.0,1650916869452294.0,0
119,0.0,-1.0,-7.0,-6.0,-2.0,-7.0,-4.0,-2.0,1650916869452294.0,0
120,-3.0,0.0,4.0,5.0,-2.0,1.0,0.0,-2.0,1650916869467534.0,0
121,-2.0,-2.0,-10.0,-9.0,-3.0,-5.0,-3.0,-3.0,1650916869467534.0,0
122,1.0,0.0,-4.0,-4.0,1.0,11.0,2.0,1.0,1650916869468534.0,0
123,-1.0,0.0,1.0,-1.0,2.0,4.0,3.0,0.0,1650916869468534.0,0
124,3.0,1.0,6.0,8.0,3.0,0.0,2.0,0.0,1650916869489430.0,0
125,-2.0,-1.0,-2.0,-4.0,-10.0,-12.0,-15.0,-3.0,1650916869489430.0,0
126,-1.0,-4.0,4.0,-1.0,-4.0,-6.0,14.0,4.0,1650916869491425.0,0
127,1.0,0.0,3.0,11.0,5.0,-1.0,8.0,1.0,1650916869491425.0,0
128,-2.0,0.0,3.0,4.0,6.0,12.0,3.0,1.0,1650916869503393.0,0
129,-1.0,-6.0,-31.0,-28.0,-2.0,4.0,-7.0,-2.0,1650916869503393.0,0
130,-3.0,-1.0,-5.0,-3.0,-9.0,-17.0,-6.0,-1.0,1650916869512369.0,0
131,0.0,1.0,7.0,8.0,3.0,5.0,0.0,-1.0,1650916869512369.0,0
132,0.0,1.0,1.0,-2.0,1.0,4.0,-3.0,-1.0,1650916869527328.0,0
133,-1.0,3.0,11.0,10.0,0.0,-4.0,1.0,1.0,1650916869527328.0,0
134,0.0,-2.0,-11.0,-13.0,-13.0,-10.0,-10.0,-4.0,1650916869528334.0,0
135,-5.0,-2.0,3.0,3.0,1.0,-11.0,-2.0,1.0,1650916869528334.0,0
136,-1.0,1.0,-1.0,1.0,10.0,19.0,4.0,1.0,1650916869550527.0,0
137,0.0,0.0,-5.0,-3.0,4.0,6.0,5.0,2.0,1650916869550527.0,0
138,1.0,0.0,1.0,4.0,2.0,1.0,3.0,1.0,1650916869551333.0,0
139,0.0,-2.0,-6.0,-6.0,-6.0,-14.0,-10.0,-4.0,1650916869551333.0,0
140,1.0,0.0,-3.0,-5.0,-4.0,-10.0,-4.0,0.0,1650916869572361.0,0
141,-1.0,1.0,7.0,9.0,-1.0,7.0,-4.0,-2.0,1650916869572361.0,0
142,0.0,-2.0,2.0,-2.0,0.0,0.0,14.0,2.0,1650916869573360.0,0
143,0.0,1.0,-1.0,-3.0,-6.0,-6.0,-15.0,-2.0,1650916869573360.0,0
144,-2.0,-5.0,-13.0,-12.0,-10.0,1.0,19.0,2.0,1650916869588775.0,0
145,3.0,1.0,8.0,4.0,6.0,10.0,9.0,3.0,1650916869588775.0,0
146,-1.0,0.0,-6.0,-3.0,16.0,9.0,-5.0,0.0,1650916869589774.0,0
147,-1.0,-2.0,-4.0,0.0,-2.0,3.0,-1.0,-3.0,1650916869589774.0,0
148,0.0,-2.0,-9.0,-10.0,-9.0,-15.0,-12.0,-4.0,1650916869609691.0,0
149,1.0,1.0,11.0,11.0,-7.0,-9.0,-9.0,1.0,1650916869609691.0,0
150,-1.0,-5.0,-1.0,6.0,-5.0,0.0,9.0,1.0,1650916869610694.0,0
151,-4.0,-3.0,-9.0,-10.0,-7.0,-1.0,5.0,3.0,1650916869610694.0,0
152,-1.0,1.0,7.0,0.0,-3.0,-9.0,-7.0,-2.0,1650916869639142.0,0
153,-3.0,0.0,4.0,3.0,10.0,9.0,8.0,-1.0,1650916869639142.0,0
154,1.0,2.0,6.0,1.0,6.0,9.0,-7.0,-4.0,1650916869641136.0,0
155,3.0,-1.0,0.0,6.0,1.0,4.0,0.0,-1.0,1650916869641136.0,0
156,1.0,1.0,-2.0,2.0,-2.0,-4.0,-4.0,-1.0,1650916869647120.0,0
157,-4.0,-6.0,-9.0,-7.0,-2.0,-10.0,-6.0,-5.0,1650916869647120.0,0
158,-1.0,1.0,2.0,4.0,-5.0,-11.0,2.0,1.0,1650916869648117.0,0
159,1.0,0.0,9.0,4.0,0.0,11.0,5.0,2.0,1650916869648117.0,0
160,1.0,1.0,-8.0,-7.0,-4.0,5.0,0.0,0.0,1650916869670410.0,0
161,1.0,4.0,10.0,6.0,11.0,8.0,1.0,-1.0,1650916869670410.0,0
162,-3.0,-3.0,-10.0,-1.0,-1.0,-3.0,-11.0,-3.0,1650916869671412.0,0
163,0.0,-4.0,-3.0,-8.0,-12.0,-11.0,1.0,0.0,1650916869671412.0,0
164,-1.0,-1.0,-7.0,-12.0,-14.0,-13.0,-5.0,-1.0,1650916869692669.0,0
165,2.0,-1.0,5.0,10.0,11.0,10.0,-3.0,-1.0,1650916869692669.0,0
166,3.0,1.0,0.0,-5.0,7.0,-1.0,16.0,5.0,1650916869693527.0,0
167,-1.0,3.0,-2.0,-2.0,-2.0,4.0,-3.0,-2.0,1650916869693527.0,0
168,2.0,0.0,2.0,4.0,4.0,6.0,-1.0,0.0,1650916869706706.0,0
169,-5.0,-1.0,0.0,-6.0,-9.0,1.0,-1.0,-5.0,1650916869706706.0,0
170,2.0,2.0,11.0,10.0,-1.0,-8.0,-9.0,1.0,1650916869713827.0,0
171,-2.0,-6.0,-7.0,-1.0,1.0,-6.0,5.0,8.0,1650916869713827.0,0
172,-2.0,-4.0,-4.0,-4.0,3.0,-5.0,-5.0,-2.0,1650916869729967.0,0
173,1.0,2.0,2.0,2.0,-2.0,-4.0,-1.0,-13.0,1650916869729967.0,0
174,-5.0,1.0,1.0,1.0,-2.0,4.0,-7.0,-3.0,1650916869730832.0,0
175,3.0,-1.0,-4.0,-5.0,0.0,7.0,4.0,6.0,1650916869730832.0,0
176,2.0,2.0,-2.0,4.0,7.0,9.0,7.0,0.0,1650916869752410.0,0
177,0.0,5.0,-6.0,-3.0,-4.0,-12.0,7.0,14.0,1650916869752410.0,0
178,-8.0,-12.0,-1.0,-11.0,-12.0,-8.0,-18.0,-32.0,1650916869753262.0,0
179,-5.0,-1.0,-2.0,-1.0,-1.0,3.0,-4.0,9.0,1650916869753262.0,0
180,7.0,0.0,9.0,12.0,1.0,-2.0,11.0,25.0,1650916869767374.0,0
181,3.0,-5.0,-6.0,-3.0,7.0,18.0,15.0,14.0,1650916869767374.0,0
182,-3.0,7.0,-1.0,-4.0,5.0,6.0,-1.0,-32.0,1650916869773237.0,0
183,-6.0,5.0,6.0,4.0,-1.0,-7.0,-11.0,-11.0,1650916869773237.0,0
184,-4.0,-3.0,-3.0,0.0,-6.0,-16.0,-27.0,-16.0,1650916869789558.0,0
185,5.0,5.0,7.0,11.0,-2.0,-8.0,-1.0,18.0,1650916869789558.0,0
186,-13.0,-4.0,-17.0,-10.0,-7.0,0.0,-1.0,4.0,1650916869791394.0,0
187,2.0,-3.0,-3.0,-10.0,6.0,4.0,7.0,7.0,1650916869791394.0,0
188,6.0,-4.0,6.0,5.0,7.0,6.0,17.0,29.0,1650916869812889.0,0
189,19.0,4.0,5.0,2.0,0.0,3.0,15.0,41.0,1650916869812889.0,0
190,11.0,24.0,13.0,10.0,0.0,9.0,0.0,-33.0,1650916869813758.0,0
191,-17.0,-12.0,-11.0,-1.0,1.0,-5.0,-15.0,-49.0,1650916869813758.0,0
192,-19.0,-29.0,-12.0,0.0,-6.0,-8.0,-20.0,-26.0,1650916869825855.0,0
193,4.0,18.0,1.0,-5.0,-2.0,-4.0,-6.0,-9.0,1650916869825855.0,0
194,2.0,-23.0,-1.0,-16.0,-9.0,-4.0,3.0,40.0,1650916869834671.0,0
195,19.0,35.0,19.0,10.0,4.0,-2.0,12.0,38.0,1650916869834671.0,0
196,-3.0,3.0,-4.0,-8.0,1.0,1.0,3.0,-9.0,1650916869848979.0,0
197,-31.0,-71.0,-15.0,2.0,-4.0,-5.0,-15.0,-24.0,1650916869848979.0,1
198,17.0,22.0,5.0,12.0,5.0,5.0,12.0,31.0,1650916869850974.0,1
199,10.0,-1.0,-16.0,-11.0,-2.0,1.0,-4.0,-13.0,1650916869850974.0,1
200,-19.0,-7.0,-18.0,-13.0,2.0,-1.0,-14.0,-41.0,1650916869872480.0,1
201,2.0,40.0,24.0,6.0,0.0,0.0,18.0,60.0,1650916869872480.0,1
202,-13.0,-19.0,-7.0,-18.0,-11.0,-15.0,-15.0,-59.0,1650916869873347.0,1
203,42.0,-13.0,17.0,24.0,1.0,7.0,16.0,26.0,1650916869873347.0,1
204,20.0,28.0,10.0,12.0,12.0,11.0,29.0,82.0,1650916869886311.0,1
205,-74.0,-7.0,-22.0,-13.0,-4.0,-8.0,-50.0,-128.0,1650916869886311.0,1
206,26.0,70.0,9.0,-14.0,0.0,2.0,-2.0,92.0,1650916869893476.0,1
207,-15.0,48.0,10.0,14.0,5.0,-7.0,-17.0,-43.0,1650916869893476.0,1
208,-12.0,-87.0,-16.0,-11.0,-10.0,-2.0,14.0,43.0,1650916869910020.0,1
209,40.0,63.0,-10.0,-11.0,1.0,6.0,32.0,50.0,1650916869910020.0,1
210,-58.0,-38.0,-3.0,18.0,1.0,3.0,14.0,-10.0,1650916869910654.0,1
211,13.0,37.0,15.0,7.0,-22.0,-25.0,-11.0,1.0,1650916869910654.0,1
212,45.0,88.0,34.0,21.0,21.0,26.0,14.0,11.0,1650916869931977.0,1
213,-10.0,-62.0,-3.0,-20.0,18.0,7.0,-6.0,-11.0,1650916869931977.0,1
214,13.0,14.0,-22.0,5.0,16.0,12.0,-9.0,-33.0,1650916869933972.0,1
215,-14.0,-16.0,-4.0,13.0,2.0,2.0,5.0,4.0,1650916869933972.0,1
216,0.0,-22.0,11.0,-26.0,-36.0,-15.0,-3.0,5.0,1650916869946208.0,1
217,50.0,92.0,13.0,-4.0,-14.0,-18.0,-20.0,-20.0,1650916869946208.0,1
218,-61.0,-82.0,-29.0,-12.0,2.0,6.0,12.0,30.0,1650916869954415.0,1
219,-1.0,-5.0,-8.0,-3.0,-4.0,2.0,3.0,-7.0,1650916869954415.0,1
220,-28.0,-18.0,-17.0,-13.0,-21.0,-12.0,-9.0,-38.0,1650916869970084.0,1
221,8.0,3.0,-22.0,5.0,18.0,2.0,2.0,36.0,1650916869970084.0,1
222,54.0,52.0,33.0,20.0,0.0,-7.0,-11.0,-32.0,1650916869971196.0,1
223,-67.0,-91.0,-27.0,-28.0,-10.0,1.0,16.0,34.0,1650916869971196.0,1
224,14.0,39.0,5.0,4.0,3.0,-1.0,-15.0,-41.0,1650916869992620.0,1
225,13.0,30.0,1.0,3.0,-4.0,-6.0,-4.0,-2.0,1650916869992620.0,1
226,-17.0,-65.0,-2.0,0.0,0.0,-6.0,-11.0,7.0,1650916869993462.0,1
227,-31.0,5.0,-21.0,-17.0,-7.0,0.0,-13.0,-11.0,1650916869993462.0,1
228,4.0,-6.0,-1.0,17.0,20.0,8.0,-8.0,6.0,1650916870005925.0,1
229,-8.0,15.0,6.0,9.0,5.0,9.0,14.0,-15.0,1650916870005925.0,1
230,-27.0,-38.0,-25.0,-18.0,-9.0,-5.0,7.0,-4.0,1650916870014929.0,1
231,69.0,34.0,18.0,10.0,11.0,8.0,10.0,18.0,1650916870014929.0,1
232,-21.0,12.0,14.0,21.0,-4.0,-14.0,-4.0,23.0,1650916870030437.0,1
233,12.0,-42.0,-29.0,-23.0,-28.0,-15.0,0.0,4.0,1650916870030437.0,1
234,-7.0,2.0,-3.0,-2.0,17.0,2.0,-11.0,-23.0,1650916870031056.0,1
235,-11.0,87.0,30.0,2.0,-7.0,4.0,0.0,-26.0,1650916870031056.0,1
236,62.0,23.0,-12.0,-1.0,13.0,-1.0,-1.0,-3.0,1650916870052713.0,1
237,7.0,-38.0,-10.0,7.0,-25.0,-13.0,5.0,34.0,1650916870052713.0,1
238,-44.0,-36.0,9.0,-11.0,16.0,10.0,-10.0,11.0,1650916870053556.0,1
239,-20.0,-65.0,-4.0,3.0,13.0,12.0,4.0,-29.0,1650916870053556.0,1
240,-29.0,-2.0,-9.0,-16.0,-5.0,-2.0,-8.0,-8.0,1650916870065737.0,1
241,15.0,65.0,6.0,9.0,0.0,1.0,-2.0,-20.0,1650916870065737.0,1
242,48.0,-16.0,15.0,1.0,-9.0,5.0,24.0,25.0,1650916870074712.0,1
243,15.0,-10.0,4.0,14.0,-7.0,-8.0,-5.0,7.0,1650916870074712.0,1
244,-56.0,-61.0,-5.0,-22.0,-14.0,-12.0,-8.0,-25.0,1650916870089904.0,1
245,-22.0,-20.0,19.0,12.0,28.0,7.0,0.0,22.0,1650916870089904.0,1
246,35.0,113.0,9.0,6.0,-5.0,-6.0,-7.0,-1.0,1650916870090904.0,1
247,30.0,91.0,-11.0,-1.0,3.0,5.0,18.0,2.0,1650916870090904.0,1
248,-63.0,-58.0,-29.0,-19.0,-7.0,-3.0,-15.0,-31.0,1650916870112539.0,1
249,29.0,51.0,1.0,-11.0,-11.0,3.0,22.0,28.0,1650916870112539.0,1
250,5.0,2.0,-17.0,1.0,1.0,-14.0,-10.0,9.0,1650916870113382.0,1
251,11.0,-13.0,6.0,-5.0,-12.0,-4.0,-21.0,27.0,1650916870113382.0,1
252,32.0,25.0,0.0,24.0,16.0,9.0,19.0,-33.0,1650916870126389.0,1
253,-61.0,-95.0,-11.0,-25.0,-3.0,16.0,21.0,23.0,1650916870126389.0,1
254,6.0,-2.0,-1.0,7.0,-20.0,-13.0,-18.0,-18.0,1650916870134422.0,1
255,55.0,69.0,19.0,-1.0,5.0,-5.0,18.0,27.0,1650916870134422.0,1
256,-49.0,-59.0,-45.0,-10.0,1.0,-2.0,-19.0,-26.0,1650916870150051.0,1
257,-24.0,-3.0,15.0,13.0,5.0,0.0,-21.0,-21.0,1650916870150051.0,1
258,17.0,16.0,4.0,3.0,-11.0,-5.0,11.0,-2.0,1650916870150994.0,1
259,-24.0,5.0,-10.0,-9.0,18.0,9.0,-5.0,-12.0,1650916870150994.0,1
260,89.0,68.0,39.0,14.0,9.0,15.0,10.0,56.0,1650916870172162.0,1
261,6.0,25.0,-17.0,2.0,-10.0,1.0,7.0,-41.0,1650916870172162.0,1
262,-5.0,-66.0,-2.0,-14.0,-13.0,-13.0,-11.0,9.0,1650916870173103.0,1
263,-33.0,26.0,-9.0,8.0,-1.0,-16.0,-22.0,-21.0,1650916870173103.0,1
264,42.0,-20.0,30.0,20.0,8.0,14.0,33.0,33.0,1650916870186426.0,1
265,10.0,45.0,17.0,-13.0,-7.0,6.0,-2.0,33.0,1650916870186426.0,1
266,-39.0,-33.0,-6.0,18.0,-5.0,-4.0,-11.0,-43.0,1650916870195371.0,1
267,-32.0,-62.0,-32.0,-26.0,6.0,-4.0,-20.0,-47.0,1650916870195371.0,1
268,41.0,126.0,26.0,8.0,-11.0,-4.0,28.0,23.0,1650916870210190.0,1
269,19.0,4.0,9.0,0.0,-10.0,-14.0,-15.0,-4.0,1650916870210190.0,1
270,12.0,-32.0,-2.0,2.0,11.0,14.0,33.0,11.0,1650916870210741.0,1
271,-26.0,-118.0,-20.0,-14.0,-4.0,6.0,-11.0,3.0,1650916870210741.0,1
272,-57.0,-26.0,-16.0,-16.0,-13.0,-14.0,-11.0,-5.0,1650916870232254.0,1
273,65.0,119.0,31.0,30.0,37.0,12.0,8.0,51.0,1650916870232254.0,1
274,0.0,13.0,15.0,-13.0,-18.0,-14.0,36.0,7.0,1650916870233252.0,1
275,-24.0,-100.0,-27.0,-19.0,-24.0,-1.0,-23.0,-10.0,1650916870233252.0,1
276,-59.0,-22.0,-4.0,26.0,49.0,13.0,-6.0,-10.0,1650916870246250.0,1
277,-21.0,-75.0,2.0,4.0,3.0,13.0,1.0,-34.0,1650916870246250.0,1
278,9.0,101.0,27.0,8.0,3.0,-2.0,-8.0,22.0,1650916870255193.0,1
279,57.0,69.0,-17.0,-8.0,12.0,2.0,14.0,-9.0,1650916870255193.0,1
280,-15.0,23.0,12.0,-4.0,-29.0,-17.0,-12.0,9.0,1650916870270484.0,1
281,-34.0,-44.0,4.0,-13.0,-18.0,-9.0,-12.0,-30.0,1650916870270484.0,1
282,-7.0,-105.0,-74.0,-15.0,25.0,13.0,1.0,17.0,1650916870271338.0,1
283,13.0,78.0,11.0,7.0,-30.0,-13.0,-2.0,3.0,1650916870271338.0,1
284,41.0,28.0,-2.0,1.0,27.0,18.0,11.0,11.0,1650916870291801.0,1
285,5.0,82.0,7.0,-2.0,-16.0,-14.0,-5.0,-29.0,1650916870291801.0,1
286,29.0,-36.0,-3.0,-9.0,-3.0,-4.0,-17.0,-10.0,1650916870293663.0,1
287,-44.0,56.0,-6.0,16.0,11.0,-2.0,2.0,50.0,1650916870293663.0,1
288,-61.0,-63.0,-28.0,-9.0,-12.0,-14.0,-29.0,-34.0,1650916870305822.0,1
289,30.0,1.0,4.0,-1.0,1.0,-6.0,11.0,0.0,1650916870305822.0,1
290,10.0,103.0,17.0,9.0,-3.0,12.0,9.0,-32.0,1650916870314800.0,1
291,10.0,9.0,11.0,11.0,12.0,11.0,6.0,17.0,1650916870314800.0,1
292,53.0,-47.0,1.0,-13.0,3.0,2.0,2.0,26.0,1650916870328725.0,1
293,-105.0,-98.0,-67.0,-31.0,-21.0,-20.0,-47.0,-85.0,1650916870328725.0,1
294,24.0,102.0,3.0,15.0,19.0,6.0,7.0,53.0,1650916870336909.0,1
295,-34.0,-103.0,12.0,9.0,9.0,16.0,12.0,-30.0,1650916870336909.0,1
296,43.0,104.0,33.0,9.0,-11.0,-4.0,-6.0,-18.0,1650916870353147.0,1
297,16.0,-13.0,3.0,-7.0,17.0,1.0,9.0,40.0,1650916870353147.0,1
298,-20.0,-58.0,-29.0,-15.0,-26.0,-12.0,-27.0,-31.0,1650916870354985.0,1
299,26.0,47.0,34.0,20.0,12.0,0.0,18.0,29.0,1650916870354985.0,1
300,7.0,-15.0,-14.0,-24.0,-9.0,3.0,-2.0,-33.0,1650916870366083.0,1
301,18.0,-4.0,-8.0,10.0,-3.0,0.0,6.0,4.0,1650916870366083.0,1
302,-9.0,25.0,16.0,-8.0,9.0,3.0,2.0,28.0,1650916870374931.0,1
303,-13.0,36.0,27.0,5.0,3.0,7.0,6.0,13.0,1650916870374931.0,1
304,-23.0,-42.0,-22.0,4.0,-3.0,-12.0,-16.0,-51.0,1650916870389623.0,1
305,7.0,10.0,-12.0,7.0,21.0,7.0,26.0,26.0,1650916870389623.0,1
306,50.0,106.0,17.0,-4.0,-5.0,9.0,-4.0,-10.0,1650916870390655.0,1
307,-31.0,-119.0,-23.0,-16.0,-14.0,-14.0,-2.0,10.0,1650916870390655.0,1
308,-14.0,61.0,15.0,11.0,-6.0,-6.0,26.0,92.0,1650916870412115.0,1
309,19.0,81.0,-6.0,-5.0,2.0,5.0,-11.0,-42.0,1650916870412115.0,1
310,-17.0,-41.0,24.0,20.0,11.0,9.0,2.0,4.0,1650916870413953.0,1
311,33.0,1.0,-1.0,-13.0,-7.0,-7.0,7.0,0.0,1650916870413953.0,1
312,0.0,45.0,26.0,4.0,15.0,16.0,-3.0,-6.0,1650916870426247.0,1
313,16.0,22.0,-3.0,10.0,-12.0,-2.0,9.0,18.0,1650916870426247.0,1
314,-26.0,-84.0,-23.0,-6.0,-11.0,-10.0,-12.0,-3.0,1650916870434242.0,1
315,14.0,15.0,28.0,33.0,37.0,8.0,-5.0,-12.0,1650916870434242.0,1
316,17.0,-23.0,-37.0,-47.0,-31.0,3.0,24.0,25.0,1650916870450589.0,1
317,1.0,0.0,49.0,13.0,-4.0,-11.0,-7.0,-18.0,1650916870450589.0,1
318,-14.0,-32.0,-16.0,-8.0,-10.0,4.0,13.0,-6.0,1650916870451275.0,1
319,-31.0,-16.0,27.0,44.0,-19.0,-22.0,-8.0,-3.0,1650916870451275.0,1
320,-1.0,11.0,-21.0,-34.0,27.0,20.0,21.0,-6.0,1650916870471671.0,1
321,9.0,-13.0,0.0,3.0,-8.0,5.0,4.0,26.0,1650916870471671.0,1
322,33.0,34.0,9.0,10.0,-19.0,-16.0,-1.0,10.0,1650916870473515.0,1
323,4.0,13.0,4.0,-31.0,-12.0,-2.0,-16.0,-36.0,1650916870473515.0,1
324,11.0,104.0,30.0,41.0,19.0,-3.0,-23.0,-7.0,1650916870485703.0,1
325,-35.0,-103.0,-10.0,-3.0,15.0,15.0,20.0,-11.0,1650916870485703.0,1
326,2.0,-5.0,-13.0,-5.0,12.0,6.0,-17.0,-34.0,1650916870494841.0,1
327,26.0,-12.0,-3.0,-3.0,-15.0,-6.0,31.0,87.0,1650916870494841.0,1
328,0.0,8.0,-7.0,-25.0,-33.0,-21.0,-24.0,-28.0,1650916870510479.0,1
329,-51.0,-73.0,-30.0,11.0,-3.0,-13.0,-20.0,-73.0,1650916870510479.0,1
330,17.0,40.0,20.0,-11.0,22.0,30.0,39.0,44.0,1650916870511348.0,1
331,-10.0,29.0,16.0,2.0,32.0,25.0,-10.0,-21.0,1650916870511348.0,1
332,25.0,62.0,29.0,41.0,10.0,-5.0,6.0,24.0,1650916870532442.0,1
333,34.0,32.0,4.0,-41.0,-33.0,10.0,3.0,22.0,1650916870532442.0,1
334,-7.0,-56.0,11.0,27.0,-9.0,-20.0,-7.0,1.0,1650916870533368.0,1
335,32.0,95.0,-18.0,-23.0,0.0,-8.0,-8.0,-8.0,1650916870533368.0,1
336,-35.0,-99.0,-28.0,-24.0,-30.0,-9.0,-6.0,-9.0,1650916870554882.0,1
337,-15.0,25.0,-2.0,-20.0,20.0,6.0,-9.0,-5.0,1650916870554882.0,1
338,-16.0,42.0,10.0,31.0,1.0,-20.0,-12.0,-11.0,1650916870555880.0,1
339,68.0,-1.0,8.0,14.0,13.0,26.0,35.0,48.0,1650916870555880.0,1
340,-44.0,-49.0,-29.0,18.0,30.0,5.0,-14.0,-36.0,1650916870570024.0,1
341,35.0,80.0,15.0,-12.0,-31.0,-13.0,-9.0,7.0,1650916870570024.0,1
342,-25.0,78.0,2.0,1.0,15.0,3.0,-21.0,-11.0,1650916870571024.0,1
343,-54.0,-95.0,-38.0,-31.0,-20.0,-15.0,10.0,-32.0,1650916870571024.0,1
344,22.0,-13.0,18.0,65.0,-14.0,-10.0,-6.0,19.0,1650916870592300.0,1
345,40.0,23.0,-23.0,-54.0,14.0,28.0,46.0,42.0,1650916870592300.0,1
346,-12.0,69.0,30.0,24.0,6.0,-13.0,-37.0,-36.0,1650916870593148.0,1
347,5.0,83.0,20.0,-33.0,-26.0,5.0,-7.0,-2.0,1650916870593148.0,1
348,-34.0,-73.0,-17.0,5.0,-8.0,-16.0,-7.0,-12.0,1650916870614622.0,1
349,18.0,56.0,27.0,25.0,-16.0,-13.0,-16.0,-18.0,1650916870614622.0,1
350,42.0,-57.0,-20.0,0.0,38.0,25.0,25.0,45.0,1650916870615623.0,1
351,-64.0,-82.0,-24.0,46.0,29.0,-20.0,-24.0,-36.0,1650916870615623.0,1
352,7.0,5.0,13.0,-31.0,-21.0,15.0,1.0,-20.0,1650916870629618.0,1
353,47.0,65.0,22.0,14.0,26.0,17.0,4.0,30.0,1650916870629618.0,1
354,-30.0,-53.0,-23.0,-10.0,-19.0,-4.0,7.0,-11.0,1650916870630616.0,1
355,35.0,115.0,14.0,9.0,11.0,-3.0,-6.0,3.0,1650916870630616.0,1
356,5.0,-25.0,-1.0,-50.0,-24.0,-9.0,17.0,16.0,1650916870651920.0,1
357,5.0,30.0,-4.0,25.0,16.0,-2.0,-4.0,25.0,1650916870651920.0,1
358,-12.0,-65.0,4.0,-8.0,-15.0,-2.0,-8.0,-17.0,1650916870653913.0,1
359,10.0,33.0,7.0,36.0,-15.0,-12.0,2.0,14.0,1650916870653913.0,1
360,27.0,17.0,13.0,-27.0,18.0,17.0,15.0,37.0,1650916870674447.0,1
361,-69.0,-52.0,-53.0,-5.0,-28.0,-24.0,-34.0,-69.0,1650916870674447.0,1
362,12.0,52.0,-5.0,0.0,27.0,12.0,-1.0,1.0,1650916870676282.0,1
363,-40.0,-99.0,-26.0,9.0,-4.0,-5.0,-13.0,-38.0,1650916870676282.0,1
364,23.0,78.0,14.0,-25.0,-7.0,10.0,17.0,31.0,1650916870689860.0,1
365,8.0,-1.0,8.0,18.0,14.0,-10.0,-22.0,-34.0,1650916870689860.0,1
366,-17.0,-6.0,-8.0,-18.0,-7.0,2.0,22.0,29.0,1650916870696479.0,1
367,73.0,76.0,-10.0,-2.0,-24.0,-2.0,-4.0,-7.0,1650916870696479.0,1
368,-47.0,-84.0,-30.0,-2.0,-3.0,-18.0,-13.0,6.0,1650916870719896.0,1
369,-75.0,-128.0,-21.0,-14.0,14.0,-10.0,-8.0,-15.0,1650916870719896.0,1
370,6.0,20.0,17.0,-7.0,-1.0,11.0,5.0,2.0,1650916870720732.0,1
371,-18.0,85.0,-3.0,15.0,-11.0,-14.0,-35.0,-44.0,1650916870720732.0,1
372,15.0,-3.0,7.0,21.0,39.0,9.0,-10.0,-22.0,1650916870735045.0,1
373,-17.0,-2.0,10.0,-11.0,-28.0,-9.0,6.0,26.0,1650916870735045.0,1
374,-5.0,7.0,-14.0,-16.0,-28.0,-9.0,6.0,0.0,1650916870735883.0,1
375,-14.0,-10.0,-5.0,-44.0,3.0,11.0,4.0,-3.0,1650916870735883.0,1
376,18.0,71.0,30.0,48.0,9.0,-8.0,0.0,1.0,1650916870748951.0,1
377,-4.0,-85.0,-25.0,16.0,6.0,-2.0,1.0,20.0,1650916870748951.0,1
378,-11.0,74.0,10.0,-2.0,16.0,5.0,-1.0,-11.0,1650916870755932.0,1
379,10.0,-3.0,12.0,-3.0,-6.0,15.0,6.0,-8.0,1650916870755932.0,1
380,-48.0,-16.0,-2.0,26.0,27.0,1.0,-4.0,-13.0,1650916870772296.0,1
381,19.0,-5.0,-14.0,-11.0,-43.0,-8.0,9.0,37.0,1650916870772296.0,1
382,17.0,-38.0,0.0,-14.0,45.0,20.0,2.0,5.0,1650916870773294.0,1
383,-40.0,-79.0,-10.0,-5.0,-16.0,-13.0,-6.0,19.0,1650916870773294.0,1
384,34.0,77.0,26.0,3.0,8.0,4.0,-4.0,-2.0,1650916870794270.0,1
385,-5.0,48.0,11.0,-2.0,12.0,10.0,14.0,-19.0,1650916870794270.0,1
386,-30.0,-37.0,-1.0,39.0,4.0,-27.0,-27.0,-29.0,1650916870796232.0,1
387,7.0,34.0,-19.0,-79.0,-21.0,12.0,4.0,-3.0,1650916870796232.0,1
388,24.0,-17.0,-18.0,3.0,10.0,19.0,22.0,23.0,1650916870809536.0,1
389,21.0,45.0,34.0,45.0,10.0,9.0,5.0,-3.0,1650916870809536.0,1
390,-13.0,-51.0,-28.0,-27.0,-16.0,-9.0,-2.0,5.0,1650916870815352.0,1
391,-10.0,-20.0,1.0,-10.0,8.0,-11.0,-11.0,-24.0,1650916870815352.0,1
392,55.0,72.0,24.0,35.0,-22.0,-26.0,6.0,17.0,1650916870832443.0,1
393,-15.0,-2.0,-26.0,-69.0,-25.0,-5.0,15.0,30.0,1650916870832443.0,1
394,-3.0,98.0,41.0,37.0,-7.0,2.0,-1.0,47.0,1650916870833307.0,1
395,1.0,-18.0,-6.0,-15.0,14.0,17.0,5.0,-17.0,1650916870833307.0,1
396,7.0,20.0,-3.0,-15.0,-17.0,0.0,-15.0,-32.0,1650916870854651.0,1
397,-17.0,-3.0,23.0,45.0,51.0,5.0,3.0,-8.0,1650916870854651.0,1
398,74.0,94.0,7.0,-20.0,-16.0,0.0,20.0,7.0,1650916870855647.0,1
399,-61.0,-127.0,-18.0,19.0,4.0,-7.0,-15.0,-16.0,1650916870855647.0,1
400,-14.0,21.0,10.0,-7.0,7.0,-1.0,-4.0,-29.0,1650916870868929.0,1
401,-3.0,18.0,-5.0,28.0,26.0,11.0,0.0,9.0,1650916870868929.0,1
402,4.0,37.0,-6.0,-18.0,-26.0,11.0,8.0,6.0,1650916870876209.0,1
403,44.0,97.0,1.0,1.0,-12.0,0.0,8.0,29.0,1650916870876209.0,1
404,3.0,-54.0,-15.0,-26.0,-16.0,-12.0,-6.0,-3.0,1650916870893448.0,1
405,-40.0,-79.0,-8.0,10.0,-7.0,-13.0,-20.0,-34.0,1650916870893448.0,1
406,-28.0,-38.0,-9.0,24.0,17.0,6.0,8.0,-5.0,1650916870894315.0,1
407,26.0,46.0,0.0,-19.0,-8.0,-7.0,5.0,38.0,1650916870894315.0,1
408,26.0,100.0,15.0,8.0,-17.0,-2.0,3.0,16.0,1650916870914502.0,1
409,-36.0,-69.0,-17.0,-5.0,8.0,0.0,-5.0,-19.0,1650916870914502.0,1
410,-2.0,17.0,-14.0,-13.0,-18.0,-15.0,-19.0,-27.0,1650916870916334.0,1
411,28.0,49.0,26.0,12.0,15.0,5.0,7.0,-5.0,1650916870916334.0,1
412,-65.0,42.0,-9.0,-30.0,-13.0,2.0,2.0,10.0,1650916870929473.0,1
413,-4.0,-45.0,-1.0,-3.0,-8.0,4.0,11.0,-9.0,1650916870929473.0,1
414,16.0,56.0,23.0,23.0,-9.0,-3.0,5.0,14.0,1650916870936547.0,1
415,-45.0,-106.0,-35.0,-7.0,-3.0,-9.0,7.0,18.0,1650916870936547.0,1
416,6.0,-47.0,-30.0,-11.0,14.0,10.0,-10.0,-44.0,1650916870952851.0,1
417,17.0,18.0,18.0,-7.0,-10.0,9.0,28.0,101.0,1650916870952851.0,1
418,-74.0,-41.0,-28.0,-31.0,-25.0,-19.0,-40.0,-110.0,1650916870953718.0,1
419,79.0,64.0,37.0,34.0,0.0,-3.0,-2.0,18.0,1650916870953718.0,1
420,-85.0,-89.0,-31.0,-14.0,10.0,-9.0,-24.0,-46.0,1650916870976209.0,1
421,28.0,108.0,12.0,24.0,-25.0,-19.0,-3.0,45.0,1650916870976209.0,1
422,53.0,-42.0,-3.0,-28.0,20.0,15.0,1.0,5.0,1650916870977052.0,1
423,-26.0,45.0,7.0,-13.0,-1.0,10.0,4.0,4.0,1650916870977052.0,1
424,9.0,10.0,1.0,15.0,-11.0,2.0,18.0,10.0,1650916870989320.0,1
425,28.0,61.0,5.0,-5.0,31.0,0.0,-17.0,-36.0,1650916870989320.0,1
426,-7.0,-46.0,10.0,9.0,2.0,-3.0,-7.0,10.0,1650916870997359.0,1
427,15.0,-6.0,-38.0,-12.0,31.0,19.0,3.0,2.0,1650916870997359.0,1
428,-20.0,-51.0,18.0,3.0,-16.0,-5.0,5.0,22.0,1650916871012814.0,1
429,9.0,-66.0,-31.0,1.0,15.0,-1.0,-3.0,-26.0,1650916871012814.0,1
430,-29.0,-14.0,2.0,25.0,-10.0,-12.0,8.0,17.0,1650916871013670.0,1
431,-8.0,17.0,-6.0,-49.0,-30.0,-9.0,-1.0,-13.0,1650916871013670.0,1
432,15.0,82.0,-10.0,11.0,18.0,9.0,9.0,29.0,1650916871034656.0,1
433,67.0,67.0,4.0,19.0,12.0,11.0,-7.0,-29.0,1650916871034656.0,1
434,-65.0,-87.0,-16.0,-5.0,-11.0,-13.0,7.0,43.0,1650916871035643.0,1
435,-7.0,15.0,22.0,4.0,-2.0,-11.0,-11.0,-10.0,1650916871035643.0,1
436,44.0,51.0,5.0,3.0,-15.0,-8.0,6.0,34.0,1650916871047579.0,1
437,-30.0,51.0,35.0,4.0,20.0,10.0,-14.0,-87.0,1650916871047579.0,1
438,7.0,-19.0,-22.0,-8.0,7.0,20.0,23.0,25.0,1650916871057553.0,1
439,-27.0,-24.0,2.0,30.0,15.0,3.0,0.0,-16.0,1650916871057553.0,1
440,-3.0,-72.0,-7.0,-23.0,1.0,-4.0,-11.0,-10.0,1650916871072343.0,1
441,41.0,110.0,-10.0,-39.0,-29.0,-5.0,-4.0,8.0,1650916871072343.0,1
442,2.0,-59.0,-12.0,19.0,-3.0,-7.0,-3.0,-18.0,1650916871073340.0,1
443,-43.0,-1.0,6.0,-6.0,17.0,8.0,18.0,10.0,1650916871073340.0,1
444,-43.0,-55.0,3.0,12.0,-4.0,-4.0,-6.0,-30.0,1650916871095328.0,1
445,35.0,29.0,26.0,19.0,-23.0,-9.0,4.0,36.0,1650916871095328.0,1
446,-38.0,42.0,-53.0,-39.0,15.0,8.0,0.0,-29.0,1650916871096499.0,1
447,38.0,24.0,1.0,-11.0,-22.0,-14.0,-6.0,59.0,1650916871096499.0,1
448,-50.0,15.0,-10.0,-2.0,-7.0,-8.0,-21.0,-58.0,1650916871108635.0,1
449,23.0,1.0,27.0,32.0,-4.0,-10.0,2.0,94.0,1650916871108635.0,1
450,60.0,17.0,5.0,-21.0,2.0,19.0,11.0,23.0,1650916871117693.0,1
451,21.0,53.0,21.0,19.0,19.0,7.0,11.0,-75.0,1650916871117693.0,1
452,19.0,5.0,-20.0,-13.0,-4.0,-3.0,-3.0,-15.0,1650916871131889.0,1
453,-79.0,-8.0,30.0,61.0,9.0,-9.0,0.0,-20.0,1650916871131889.0,1
454,24.0,-4.0,5.0,-17.0,-12.0,-3.0,-7.0,5.0,1650916871133917.0,1
455,-41.0,-128.0,-26.0,-15.0,-13.0,-6.0,-13.0,-5.0,1650916871133917.0,1
456,74.0,100.0,51.0,64.0,-4.0,-6.0,5.0,7.0,1650916871155257.0,1
457,-19.0,75.0,7.0,-58.0,18.0,37.0,34.0,20.0,1650916871155257.0,1
458,-28.0,-41.0,-11.0,-15.0,-8.0,-2.0,-4.0,10.0,1650916871156256.0,1
459,-35.0,-32.0,-23.0,-6.0,-35.0,-13.0,-14.0,-18.0,1650916871156256.0,1
460,16.0,40.0,-13.0,-17.0,21.0,2.0,-17.0,-25.0,1650916871169231.0,1
461,18.0,0.0,11.0,26.0,7.0,-3.0,6.0,38.0,1650916871169231.0,1
462,44.0,97.0,28.0,29.0,32.0,7.0,21.0,23.0,1650916871177377.0,1
463,-28.0,-108.0,-26.0,-24.0,-18.0,6.0,0.0,-9.0,1650916871177377.0,1
464,-31.0,-11.0,-3.0,-4.0,-7.0,-9.0,-7.0,3.0,1650916871192536.0,1
465,20.0,16.0,-11.0,33.0,38.0,2.0,-12.0,-26.0,1650916871192536.0,1
466,76.0,38.0,22.0,-58.0,-31.0,2.0,16.0,32.0,1650916871193376.0,1
467,-35.0,-1.0,-12.0,21.0,-8.0,-24.0,-12.0,7.0,1650916871193376.0,1
468,7.0,28.0,-11.0,-31.0,-10.0,9.0,12.0,26.0,1650916871214528.0,1
469,18.0,10.0,14.0,2.0,-43.0,-15.0,-7.0,7.0,1650916871214528.0,1
470,-8.0,-29.0,6.0,30.0,36.0,-3.0,-14.0,-55.0,1650916871216452.0,1
471,28.0,-20.0,15.0,-4.0,29.0,31.0,32.0,26.0,1650916871216452.0,1
472,-63.0,-128.0,8.0,21.0,1.0,-8.0,-18.0,-34.0,1650916871229105.0,1
473,8.0,56.0,-15.0,-48.0,-6.0,7.0,-2.0,11.0,1650916871229105.0,1
474,-5.0,83.0,41.0,66.0,2.0,0.0,21.0,20.0,1650916871237700.0,1
475,36.0,12.0,-14.0,3.0,11.0,4.0,-22.0,9.0,1650916871237700.0,1
476,-15.0,33.0,-3.0,-11.0,1.0,4.0,19.0,-13.0,1650916871253041.0,1
477,-4.0,-62.0,-4.0,9.0,-10.0,-11.0,-19.0,-14.0,1650916871253041.0,1
478,2.0,45.0,15.0,21.0,1.0,-5.0,5.0,14.0,1650916871253879.0,1
479,12.0,49.0,31.0,30.0,43.0,13.0,0.0,12.0,1650916871253879.0,1
480,14.0,-3.0,3.0,-34.0,-11.0,16.0,9.0,26.0,1650916871275192.0,1
481,5.0,-22.0,-9.0,-30.0,-25.0,-3.0,5.0,1.0,1650916871275192.0,1
482,-52.0,-21.0,-34.0,-13.0,-16.0,-16.0,-14.0,-25.0,1650916871276032.0,1
483,-38.0,-76.0,-20.0,9.0,-15.0,-26.0,-50.0,-5.0,1650916871276032.0,1
484,43.0,-1.0,-24.0,6.0,12.0,9.0,13.0,-12.0,1650916871288564.0,1
485,-5.0,-5.0,-10.0,-10.0,19.0,18.0,-6.0,-7.0,1650916871288564.0,1
486,-7.0,-17.0,1.0,-11.0,-20.0,-18.0,-16.0,-6.0,1650916871302790.0,1
487,56.0,49.0,19.0,26.0,-3.0,-5.0,26.0,28.0,1650916871302790.0,1
488,-44.0,13.0,4.0,-3.0,1.0,-2.0,-19.0,-5.0,1650916871312099.0,1
489,-10.0,-30.0,-18.0,-4.0,-10.0,-2.0,7.0,14.0,1650916871312099.0,1
490,5.0,52.0,4.0,-2.0,0.0,6.0,0.0,-6.0,1650916871313932.0,1
491,-12.0,2.0,-10.0,-12.0,7.0,3.0,-5.0,-4.0,1650916871313932.0,1
492,14.0,-13.0,6.0,4.0,12.0,12.0,14.0,17.0,1650916871334951.0,1
493,-4.0,-29.0,-10.0,7.0,-4.0,0.0,1.0,-3.0,1650916871334951.0,1
494,-12.0,13.0,14.0,13.0,-15.0,-25.0,-29.0,-29.0,1650916871335918.0,1
495,7.0,30.0,-13.0,-16.0,14.0,16.0,23.0,-11.0,1650916871335918.0,1
496,22.0,3.0,-25.0,-32.0,-21.0,-9.0,-3.0,20.0,1650916871347923.0,1
497,-34.0,-35.0,6.0,-5.0,1.0,-7.0,-8.0,-27.0,1650916871347923.0,1
498,1.0,-8.0,-14.0,-10.0,-10.0,-12.0,-16.0,-12.0,1650916871357226.0,1
499,11.0,36.0,7.0,-19.0,-14.0,2.0,1.0,-4.0,1650916871357226.0,1
500,5.0,-2.0,0.0,31.0,15.0,-2.0,14.0,28.0,1650916871372221.0,1
501,-8.0,-22.0,13.0,-9.0,8.0,13.0,-5.0,-7.0,1650916871372221.0,1
502,-5.0,-9.0,11.0,6.0,17.0,28.0,7.0,-20.0,1650916871373233.0,1
503,-19.0,22.0,10.0,14.0,-1.0,-7.0,-5.0,3.0,1650916871373233.0,1
504,25.0,8.0,7.0,8.0,-4.0,-10.0,-9.0,-30.0,1650916871394800.0,1
505,24.0,-6.0,-9.0,-11.0,-1.0,-16.0,-23.0,-6.0,1650916871394800.0,1
506,-37.0,-5.0,-6.0,-13.0,-9.0,-3.0,7.0,8.0,1650916871395637.0,1
507,12.0,19.0,10.0,10.0,1.0,-4.0,8.0,20.0,1650916871395637.0,1
508,-7.0,-3.0,-7.0,-12.0,4.0,22.0,35.0,0.0,1650916871409269.0,1
509,-24.0,-18.0,-17.0,-15.0,-7.0,-12.0,-13.0,-15.0,1650916871409269.0,1
510,23.0,-8.0,8.0,26.0,6.0,7.0,1.0,-2.0,1650916871416941.0,1
511,-3.0,13.0,-7.0,-19.0,-6.0,-2.0,-15.0,-3.0,1650916871416941.0,1
512,-14.0,2.0,28.0,38.0,10.0,-5.0,-8.0,19.0,1650916871432106.0,1
513,19.0,-8.0,-5.0,4.0,5.0,8.0,19.0,3.0,1650916871432106.0,1
514,2.0,-2.0,-29.0,-46.0,-3.0,3.0,-8.0,12.0,1650916871433103.0,1
515,3.0,11.0,7.0,8.0,1.0,4.0,12.0,1.0,1650916871433103.0,1
516,4.0,-6.0,0.0,-17.0,-9.0,-8.0,-12.0,0.0,1650916871455219.0,1
517,-19.0,-11.0,-25.0,1.0,-3.0,-5.0,0.0,-16.0,1650916871455219.0,1
518,5.0,-2.0,4.0,-14.0,-5.0,-5.0,-3.0,-6.0,1650916871456423.0,1
519,13.0,11.0,12.0,23.0,7.0,3.0,-2.0,-6.0,1650916871456423.0,1
520,3.0,4.0,12.0,5.0,0.0,4.0,-1.0,4.0,1650916871477594.0,1
521,-11.0,0.0,1.0,-3.0,-1.0,-2.0,-1.0,-1.0,1650916871477594.0,1
522,5.0,-7.0,-7.0,11.0,5.0,1.0,2.0,7.0,1650916871478594.0,1
523,-3.0,3.0,15.0,16.0,2.0,2.0,3.0,-7.0,1650916871478594.0,1
524,13.0,4.0,8.0,21.0,0.0,-3.0,5.0,9.0,1650916871491721.0,1
525,-13.0,-19.0,-21.0,-15.0,-7.0,-8.0,-3.0,14.0,1650916871491721.0,1
526,8.0,-4.0,-18.0,-43.0,-8.0,2.0,1.0,-18.0,1650916871493554.0,1
527,3.0,6.0,3.0,13.0,4.0,5.0,6.0,-2.0,1650916871493554.0,1
528,-3.0,-4.0,-8.0,-11.0,6.0,12.0,-11.0,-5.0,1650916871514229.0,1
529,-7.0,-1.0,9.0,28.0,7.0,0.0,2.0,1.0,1650916871514229.0,1
530,14.0,5.0,22.0,19.0,9.0,-2.0,-11.0,13.0,1650916871516066.0,1
531,3.0,9.0,14.0,-5.0,-14.0,-6.0,31.0,1.0,1650916871516066.0,1
532,-4.0,-6.0,-45.0,-25.0,-13.0,-11.0,-9.0,5.0,1650916871538489.0,1
533,-5.0,-14.0,-18.0,-24.0,-12.0,-3.0,1.0,-13.0,1650916871538489.0,1
534,4.0,5.0,24.0,34.0,13.0,9.0,-4.0,7.0,1650916871538719.0,1
535,4.0,13.0,12.0,13.0,15.0,11.0,-1.0,-2.0,1650916871538719.0,1
536,-4.0,-6.0,12.0,0.0,-2.0,-5.0,-6.0,-2.0,1650916871551988.0,1
537,-3.0,4.0,-2.0,5.0,-2.0,-3.0,-2.0,-7.0,1650916871551988.0,1
538,-2.0,1.0,3.0,33.0,0.0,-3.0,1.0,-2.0,1650916871553855.0,1
539,1.0,-5.0,-40.0,-90.0,-25.0,-5.0,-5.0,2.0,1650916871553855.0,1
540,-4.0,-2.0,8.0,13.0,-3.0,-6.0,0.0,-3.0,1650916871575470.0,1
541,2.0,0.0,1.0,-13.0,1.0,-1.0,-4.0,-6.0,1650916871575470.0,1
542,2.0,-1.0,-5.0,1.0,9.0,6.0,7.0,7.0,1650916871576342.0,1
543,0.0,-4.0,2.0,14.0,4.0,-1.0,-1.0,-4.0,1650916871576342.0,1
544,3.0,7.0,3.0,-4.0,-11.0,-11.0,-5.0,0.0,1650916871596586.0,1
545,-2.0,0.0,22.0,2.0,3.0,19.0,3.0,-4.0,1650916871596586.0,1
546,2.0,0.0,5.0,16.0,4.0,1.0,-4.0,5.0,1650916871598581.0,1
547,-1.0,-7.0,-19.0,-12.0,-4.0,0.0,14.0,-2.0,1650916871598581.0,1
548,-1.0,4.0,1.0,-9.0,-7.0,-13.0,-15.0,-11.0,1650916871611933.0,1
549,1.0,1.0,1.0,16.0,-1.0,-8.0,5.0,3.0,1650916871611933.0,1
550,-1.0,0.0,-11.0,-25.0,-3.0,1.0,1.0,1.0,1650916871617790.0,1
551,-3.0,-2.0,14.0,19.0,6.0,1.0,-8.0,-2.0,1650916871617790.0,1
552,-3.0,-2.0,8.0,2.0,5.0,8.0,-2.0,1.0,1650916871634868.0,1
553,-3.0,2.0,-10.0,6.0,4.0,4.0,12.0,-1.0,1650916871634868.0,1
554,-4.0,-3.0,7.0,-30.0,-14.0,-12.0,-11.0,-5.0,1650916871635710.0,1
555,3.0,2.0,11.0,15.0,-6.0,-14.0,-6.0,-3.0,1650916871635710.0,1
556,3.0,-4.0,-15.0,2.0,14.0,16.0,9.0,5.0,1650916871657491.0,1
557,-2.0,-4.0,-11.0,-17.0,-6.0,1.0,-11.0,-2.0,1650916871657491.0,1
558,1.0,1.0,1.0,17.0,0.0,-6.0,9.0,3.0,1650916871658333.0,1
559,-9.0,0.0,8.0,10.0,-1.0,-5.0,-2.0,-2.0,1650916871658333.0,1
560,5.0,5.0,7.0,-3.0,-11.0,-12.0,-4.0,1.0,1650916871671482.0,1
561,-5.0,-4.0,1.0,-2.0,6.0,6.0,2.0,0.0,1650916871671482.0,1
562,19.0,0.0,-20.0,-15.0,3.0,4.0,8.0,-2.0,1650916871678953.0,1
563,-8.0,-3.0,-3.0,-2.0,-2.0,0.0,-11.0,0.0,1650916871678953.0,1
564,1.0,0.0,-3.0,8.0,10.0,6.0,2.0,1.0,1650916871694964.0,1
565,-1.0,9.0,32.0,11.0,-9.0,-14.0,-1.0,-5.0,1650916871694964.0,1
566,-1.0,-5.0,0.0,3.0,-2.0,-6.0,-10.0,-4.0,1650916871695680.0,1
567,3.0,-1.0,-5.0,-11.0,-2.0,5.0,12.0,5.0,1650916871695680.0,1
568,-4.0,-7.0,-9.0,3.0,-1.0,-1.0,-2.0,1.0,1650916871717409.0,1
569,-1.0,1.0,-5.0,-10.0,-6.0,-10.0,-6.0,-4.0,1650916871717409.0,1
570,-6.0,-1.0,16.0,13.0,2.0,14.0,9.0,5.0,1650916871718419.0,1
571,4.0,-5.0,-23.0,-2.0,9.0,15.0,-2.0,-8.0,1650916871718419.0,1
572,-10.0,-1.0,5.0,-4.0,2.0,3.0,-4.0,-8.0,1650916871731725.0,1
573,10.0,-3.0,12.0,0.0,-7.0,-8.0,6.0,3.0,1650916871731725.0,1
574,-18.0,-1.0,-2.0,2.0,-3.0,-14.0,-5.0,-3.0,1650916871737701.0,1
575,-2.0,-5.0,-9.0,0.0,-4.0,-11.0,-12.0,-3.0,1650916871737701.0,1
576,1.0,-1.0,12.0,10.0,7.0,11.0,10.0,6.0,1650916871754078.0,1
577,2.0,5.0,2.0,4.0,4.0,8.0,-1.0,1.0,1650916871754078.0,1
578,2.0,-8.0,-7.0,-4.0,2.0,1.0,-1.0,1.0,1650916871756119.0,1
579,-2.0,-2.0,3.0,-9.0,-11.0,-7.0,-4.0,-3.0,1650916871756119.0,1
580,1.0,1.0,0.0,5.0,4.0,1.0,6.0,2.0,1650916871777382.0,1
581,-5.0,1.0,-2.0,-2.0,2.0,1.0,-1.0,0.0,1650916871777382.0,1
582,-1.0,2.0,0.0,2.0,1.0,4.0,-5.0,-4.0,1650916871778380.0,1
583,2.0,-3.0,-17.0,-7.0,3.0,0.0,7.0,2.0,1650916871778380.0,1
584,-2.0,-2.0,-7.0,-18.0,-11.0,-5.0,-3.0,0.0,1650916871791550.0,1
585,-2.0,1.0,6.0,10.0,3.0,9.0,2.0,1.0,1650916871791550.0,1
586,-1.0,-2.0,2.0,0.0,0.0,-5.0,7.0,1.0,1650916871798404.0,1
587,-1.0,2.0,-4.0,1.0,4.0,-2.0,-9.0,-3.0,1650916871798404.0,1
588,1.0,2.0,12.0,4.0,0.0,1.0,-2.0,-1.0,1650916871815591.0,1
589,-2.0,-10.0,-21.0,-15.0,-8.0,-3.0,-1.0,-3.0,1650916871815591.0,1
590,-7.0,0.0,8.0,9.0,5.0,8.0,-1.0,-2.0,1650916871817587.0,1
591,7.0,2.0,0.0,-2.0,1.0,-1.0,-7.0,0.0,1650916871817587.0,1
592,-1.0,0.0,-3.0,-10.0,1.0,1.0,18.0,4.0,1650916871837709.0,1
593,3.0,-2.0,6.0,15.0,-2.0,-10.0,-8.0,0.0,1650916871837709.0,1
594,1.0,6.0,16.0,0.0,-10.0,-7.0,1.0,-11.0,1650916871838561.0,1
595,-2.0,-8.0,-1.0,9.0,-2.0,3.0,-1.0,1.0,1650916871838561.0,1
596,-6.0,-3.0,-3.0,-7.0,3.0,1.0,-7.0,-5.0,1650916871860073.0,1
597,1.0,-6.0,-21.0,-15.0,8.0,9.0,11.0,7.0,1650916871860073.0,1
598,2.0,5.0,6.0,7.0,-7.0,-11.0,3.0,0.0,1650916871860702.0,1
599,0.0,2.0,7.0,5.0,3.0,3.0,-1.0,-1.0,1650916871860702.0,1
600,1.0,-3.0,0.0,-4.0,-7.0,-2.0,-9.0,-3.0,1650916871874830.0,1
601,-2.0,3.0,3.0,1.0,1.0,-2.0,7.0,4.0,1650916871874830.0,1
602,3.0,0.0,-5.0,-2.0,-2.0,2.0,1.0,2.0,1650916871875696.0,1
603,-1.0,6.0,13.0,4.0,2.0,1.0,5.0,1.0,1650916871875696.0,1
604,-1.0,-3.0,-19.0,-9.0,-4.0,-6.0,-4.0,-1.0,1650916871897628.0,1
605,-3.0,-4.0,-2.0,-7.0,-4.0,-9.0,-10.0,-5.0,1650916871897628.0,1
606,-1.0,-1.0,-14.0,-11.0,-4.0,-8.0,3.0,5.0,1650916871898628.0,1
607,-2.0,-4.0,7.0,7.0,3.0,18.0,1.0,-3.0,1650916871898628.0,1
608,8.0,7.0,9.0,11.0,13.0,17.0,1.0,4.0,1650916871911756.0,1
609,-4.0,0.0,-5.0,-9.0,-3.0,-10.0,-15.0,-4.0,1650916871911756.0,1
610,-2.0,-3.0,3.0,2.0,-3.0,-2.0,23.0,4.0,1650916871918739.0,1
611,0.0,3.0,4.0,2.0,0.0,-7.0,-1.0,-2.0,1650916871918739.0,1
612,2.0,2.0,2.0,0.0,-5.0,-8.0,-1.0,-1.0,1650916871933903.0,1
613,-2.0,-2.0,-9.0,0.0,-2.0,5.0,3.0,2.0,1650916871933903.0,1
614,-5.0,0.0,-4.0,-12.0,-3.0,0.0,-13.0,-7.0,1650916871942869.0,1
615,5.0,0.0,1.0,5.0,-2.0,-15.0,-5.0,-2.0,1650916871942869.0,1
616,-2.0,2.0,8.0,4.0,4.0,7.0,3.0,2.0,1650916871957384.0,1
617,0.0,0.0,-3.0,-1.0,3.0,2.0,-6.0,-5.0,1650916871957384.0,1
618,0.0,3.0,4.0,1.0,-1.0,2.0,7.0,2.0,1650916871958384.0,1
619,-3.0,-2.0,-2.0,0.0,0.0,-1.0,0.0,1.0,1650916871958384.0,1
620,0.0,0.0,2.0,-1.0,-5.0,-5.0,-3.0,0.0,1650916871970515.0,1
621,1.0,1.0,2.0,3.0,4.0,3.0,-1.0,-2.0,1650916871970515.0,1
622,2.0,-3.0,-6.0,-4.0,1.0,1.0,-9.0,-4.0,1650916871979453.0,1
623,-4.0,-2.0,0.0,3.0,-4.0,-7.0,-3.0,1.0,1650916871979453.0,1
624,3.0,-2.0,2.0,3.0,-2.0,-9.0,1.0,3.0,1650916871994887.0,1
625,-3.0,0.0,-4.0,-9.0,-4.0,4.0,-1.0,-6.0,1650916871994887.0,1
626,4.0,-2.0,-8.0,0.0,-3.0,-2.0,3.0,4.0,1650916872009828.0,1
627,-3.0,-2.0,-3.0,-3.0,11.0,12.0,2.0,-3.0,1650916872009828.0,1
628,-1.0,-3.0,-5.0,-2.0,6.0,6.0,-2.0,1.0,1650916872018030.0,1
629,-1.0,6.0,12.0,10.0,-1.0,-1.0,3.0,2.0,1650916872018030.0,1
630,0.0,1.0,-5.0,-9.0,-10.0,9.0,-2.0,2.0,1650916872019029.0,1
631,-3.0,-8.0,-1.0,-4.0,-5.0,-11.0,-5.0,-1.0,1650916872019029.0,1
632,-1.0,-1.0,0.0,2.0,0.0,0.0,-3.0,-1.0,1650916872030510.0,1
633,3.0,-2.0,-1.0,-8.0,-8.0,-8.0,-1.0,0.0,1650916872030510.0,1
634,-2.0,0.0,-6.0,5.0,3.0,-3.0,-6.0,-4.0,1650916872039639.0,1
635,0.0,-6.0,-6.0,-1.0,2.0,1.0,0.0,2.0,1650916872039639.0,0
636,0.0,5.0,0.0,1.0,4.0,6.0,5.0,-1.0,1650916872054076.0,0
637,-3.0,0.0,7.0,3.0,5.0,4.0,3.0,0.0,1650916872054076.0,0
638,-4.0,2.0,-2.0,-8.0,-2.0,-5.0,-9.0,1.0,1650916872056073.0,0
639,1.0,5.0,-5.0,-2.0,-6.0,-2.0,0.0,-1.0,1650916872056073.0,0
640,6.0,-4.0,-3.0,0.0,-5.0,-3.0,1.0,0.0,1650916872077559.0,0
641,3.0,5.0,4.0,-3.0,2.0,6.0,-6.0,0.0,1650916872077559.0,0
642,-1.0,-10.0,2.0,4.0,7.0,3.0,8.0,2.0,1650916872078547.0,0
643,-2.0,4.0,6.0,4.0,-3.0,-8.0,-7.0,-6.0,1650916872078547.0,0
644,-7.0,0.0,-4.0,-5.0,-9.0,-16.0,-4.0,-2.0,1650916872090707.0,0
645,-1.0,-3.0,-6.0,2.0,1.0,17.0,4.0,0.0,1650916872090707.0,0
646,3.0,3.0,6.0,6.0,9.0,12.0,-5.0,2.0,1650916872099374.0,0
647,2.0,1.0,0.0,5.0,-2.0,-7.0,6.0,2.0,1650916872099374.0,0
648,-2.0,-3.0,-6.0,-21.0,-5.0,-6.0,-2.0,0.0,1650916872114660.0,0
649,-3.0,0.0,6.0,11.0,-2.0,-8.0,-4.0,-2.0,1650916872114660.0,0
650,-1.0,-5.0,-3.0,-3.0,-2.0,-4.0,-4.0,-1.0,1650916872120645.0,0
651,3.0,2.0,4.0,2.0,-9.0,-4.0,2.0,6.0,1650916872120645.0,0
652,-4.0,-4.0,-1.0,4.0,4.0,14.0,2.0,-7.0,1650916872137690.0,0
653,-1.0,2.0,-1.0,-6.0,-6.0,-13.0,-3.0,-2.0,1650916872137690.0,0
654,-3.0,-11.0,-21.0,-12.0,-2.0,2.0,1.0,-1.0,1650916872138562.0,0
655,0.0,7.0,12.0,4.0,5.0,11.0,1.0,0.0,1650916872138562.0,0
656,1.0,5.0,4.0,1.0,7.0,3.0,-2.0,5.0,1650916872150767.0,0
657,0.0,-3.0,3.0,7.0,4.0,-1.0,12.0,-4.0,1650916872150767.0,0
658,-3.0,0.0,0.0,-7.0,-13.0,-11.0,0.0,-6.0,1650916872159900.0,0
659,7.0,-1.0,-12.0,-10.0,-12.0,-4.0,-7.0,-3.0,1650916872159900.0,0
660,-3.0,0.0,5.0,11.0,12.0,7.0,8.0,0.0,1650916872175215.0,0
661,-3.0,-1.0,-10.0,-4.0,-1.0,-3.0,-3.0,7.0,1650916872175215.0,0
662,-4.0,-3.0,-3.0,5.0,2.0,6.0,-9.0,-2.0,1650916872176048.0,0
663,2.0,-5.0,0.0,-2.0,-2.0,2.0,6.0,0.0,1650916872176048.0,0
664,-3.0,-6.0,-13.0,-7.0,-9.0,-5.0,-7.0,-5.0,1650916872197353.0,0
665,1.0,2.0,8.0,2.0,-5.0,-10.0,-6.0,-3.0,1650916872197353.0,0
666,-1.0,3.0,-4.0,0.0,6.0,-2.0,10.0,3.0,1650916872198210.0,0
667,-7.0,2.0,4.0,6.0,1.0,6.0,0.0,1.0,1650916872198210.0,0
668,1.0,-3.0,6.0,11.0,6.0,8.0,-1.0,-1.0,1650916872211370.0,0
669,-2.0,-6.0,-8.0,-12.0,-1.0,0.0,1.0,3.0,1650916872211370.0,0
670,0.0,1.0,-6.0,-6.0,-8.0,-8.0,-10.0,-5.0,1650916872219527.0,0
671,-2.0,3.0,-8.0,-4.0,-3.0,-5.0,1.0,2.0,1650916872219527.0,0
672,-1.0,-6.0,1.0,4.0,-5.0,-4.0,9.0,0.0,1650916872234842.0,0
673,-4.0,-2.0,-8.0,-4.0,0.0,2.0,1.0,0.0,1650916872234842.0,0
674,2.0,2.0,7.0,6.0,2.0,-3.0,-2.0,-1.0,1650916872235677.0,0
675,-1.0,2.0,3.0,-5.0,6.0,0.0,-3.0,-2.0,1650916872235677.0,0
676,0.0,6.0,-1.0,3.0,0.0,9.0,1.0,-2.0,1650916872257665.0,0
677,-2.0,-7.0,-2.0,-2.0,5.0,3.0,-10.0,-2.0,1650916872257665.0,0
678,4.0,0.0,8.0,5.0,1.0,-2.0,16.0,7.0,1650916872258146.0,0
679,0.0,3.0,7.0,8.0,-3.0,-4.0,0.0,-2.0,1650916872258146.0,0
680,-2.0,-3.0,-26.0,-25.0,-10.0,-6.0,-4.0,0.0,1650916872270506.0,0
681,2.0,3.0,7.0,8.0,8.0,12.0,3.0,2.0,1650916872270506.0,0
682,-2.0,1.0,-1.0,-2.0,-2.0,-5.0,-7.0,1.0,1650916872279662.0,0
683,-3.0,-4.0,-4.0,-4.0,-5.0,-16.0,-6.0,-3.0,1650916872279662.0,0
684,-1.0,6.0,10.0,1.0,-1.0,5.0,6.0,2.0,1650916872294690.0,0
685,2.0,-2.0,5.0,2.0,5.0,10.0,3.0,0.0,1650916872294690.0,0
686,-1.0,-3.0,-7.0,4.0,7.0,5.0,2.0,1.0,1650916872295521.0,0
687,1.0,0.0,1.0,-2.0,-1.0,3.0,-5.0,-3.0,1650916872295521.0,0
688,-1.0,-4.0,-10.0,-2.0,-10.0,-11.0,-6.0,1.0,1650916872317082.0,0
689,-5.0,-1.0,-6.0,-10.0,-6.0,-12.0,-3.0,-4.0,1650916872317082.0,0
690,-1.0,2.0,4.0,1.0,10.0,6.0,1.0,1.0,1650916872318950.0,0
691,-1.0,-1.0,1.0,0.0,2.0,-3.0,2.0,-2.0,1650916872318950.0,0
692,-3.0,-1.0,2.0,5.0,7.0,9.0,-5.0,-3.0,1650916872331065.0,0
693,2.0,3.0,4.0,8.0,7.0,15.0,18.0,9.0,1650916872331065.0,0
694,5.0,0.0,-5.0,-5.0,-6.0,2.0,-2.0,-2.0,1650916872340150.0,0
695,-6.0,-9.0,-18.0,-18.0,-11.0,-12.0,-4.0,-2.0,1650916872340150.0,0
696,-2.0,-2.0,-1.0,0.0,-14.0,-24.0,-10.0,-4.0,1650916872355112.0,0
697,-1.0,1.0,1.0,1.0,1.0,1.0,3.0,-4.0,1650916872355112.0,0
698,3.0,4.0,6.0,5.0,3.0,-7.0,-3.0,2.0,1650916872356114.0,0
699,-2.0,-2.0,0.0,1.0,7.0,21.0,5.0,1.0,1650916872356114.0,0
700,1.0,3.0,4.0,-1.0,2.0,1.0,2.0,3.0,1650916872377465.0,0
701,2.0,-4.0,-1.0,3.0,0.0,-5.0,-3.0,2.0,1650916872377465.0,0
702,-1.0,3.0,9.0,5.0,0.0,1.0,-8.0,-8.0,1650916872378256.0,0
703,-1.0,-1.0,-6.0,-4.0,-4.0,-4.0,-4.0,-1.0,1650916872378256.0,0
704,3.0,1.0,3.0,0.0,4.0,4.0,16.0,0.0,1650916872400513.0,0
705,-4.0,-7.0,-11.0,-13.0,-9.0,-10.0,-9.0,-2.0,1650916872400513.0,0
706,2.0,0.0,5.0,0.0,-9.0,-8.0,-5.0,-5.0,1650916872401513.0,0
707,0.0,0.0,2.0,4.0,7.0,6.0,6.0,2.0,1650916872401513.0,0
708,0.0,0.0,10.0,13.0,9.0,5.0,2.0,1.0,1650916872414705.0,0
709,-1.0,4.0,-6.0,-6.0,2.0,1.0,1.0,-2.0,1650916872414705.0,0
710,-2.0,-3.0,1.0,5.0,3.0,7.0,1.0,2.0,1650916872415681.0,0
711,-5.0,-1.0,-1.0,-6.0,-4.0,-3.0,-8.0,-6.0,1650916872415681.0,0
712,5.0,-6.0,-7.0,-9.0,-14.0,-22.0,1.0,3.0,1650916872436843.0,0
713,-1.0,-6.0,2.0,4.0,-4.0,12.0,-3.0,-3.0,1650916872436843.0,0
714,-1.0,0.0,12.0,22.0,9.0,18.0,10.0,6.0,1650916872438833.0,0
715,3.0,3.0,-12.0,-19.0,5.0,4.0,3.0,4.0,1650916872438833.0,0
716,-5.0,3.0,1.0,-4.0,-5.0,-8.0,-9.0,-6.0,1650916872460626.0,0
717,0.0,3.0,0.0,-1.0,-6.0,-11.0,-4.0,-2.0,1650916872460626.0,0
718,-2.0,-9.0,-20.0,-12.0,-8.0,-5.0,-5.0,-2.0,1650916872461191.0,0
719,1.0,0.0,10.0,12.0,0.0,-10.0,5.0,2.0,1650916872461191.0,0
720,1.0,3.0,7.0,3.0,3.0,14.0,-1.0,0.0,1650916872475328.0,0
721,0.0,1.0,8.0,10.0,6.0,6.0,7.0,5.0,1650916872475328.0,0
722,-1.0,4.0,-3.0,-7.0,2.0,-1.0,0.0,-8.0,1650916872476361.0,0
723,0.0,0.0,2.0,3.0,5.0,5.0,1.0,3.0,1650916872476361.0,0
724,1.0,-3.0,-6.0,-7.0,-1.0,-5.0,-8.0,-5.0,1650916872496841.0,0
725,-1.0,3.0,2.0,1.0,-8.0,-12.0,-8.0,-4.0,1650916872496841.0,0
726,3.0,-2.0,4.0,-1.0,-5.0,-7.0,-2.0,1.0,1650916872498835.0,0
727,-4.0,0.0,-3.0,4.0,10.0,6.0,6.0,7.0,1650916872498835.0,0
728,-3.0,-4.0,1.0,6.0,8.0,14.0,4.0,1.0,1650916872519999.0,0
729,1.0,0.0,-8.0,-11.0,1.0,5.0,2.0,0.0,1650916872519999.0,0
730,-2.0,4.0,2.0,-2.0,-10.0,-15.0,-1.0,0.0,1650916872520999.0,0
731,3.0,-5.0,0.0,2.0,-9.0,0.0,-9.0,-5.0,1650916872520999.0,0
732,0.0,-2.0,-2.0,-5.0,3.0,6.0,5.0,4.0,1650916872534107.0,0
733,-1.0,2.0,3.0,3.0,2.0,-3.0,-1.0,0.0,1650916872534107.0,0
734,-3.0,-8.0,-14.0,-12.0,-8.0,-11.0,-3.0,0.0,1650916872541120.0,0
735,-2.0,-1.0,16.0,16.0,1.0,3.0,4.0,-4.0,1650916872541120.0,0
736,0.0,1.0,-13.0,-13.0,-1.0,3.0,-5.0,1.0,1650916872557430.0,0
737,-2.0,-5.0,-8.0,-3.0,-5.0,-8.0,-3.0,-4.0,1650916872557430.0,0
738,1.0,-1.0,11.0,10.0,12.0,17.0,1.0,2.0,1650916872558380.0,0
739,-1.0,-3.0,-14.0,-11.0,0.0,-5.0,-4.0,-2.0,1650916872558380.0,0
740,-4.0,0.0,5.0,5.0,-6.0,-13.0,-3.0,-3.0,1650916872579356.0,0
741,1.0,2.0,0.0,-7.0,-10.0,-9.0,-3.0,-3.0,1650916872579356.0,0
742,-6.0,-1.0,-3.0,-2.0,-7.0,-2.0,-3.0,0.0,1650916872581320.0,0
743,-1.0,3.0,4.0,7.0,10.0,7.0,14.0,2.0,1650916872581320.0,0
744,10.0,-2.0,-6.0,-5.0,8.0,5.0,1.0,4.0,1650916872594284.0,0
745,-4.0,-3.0,3.0,7.0,-1.0,3.0,-5.0,-11.0,1650916872594284.0,0
746,-2.0,-1.0,0.0,2.0,4.0,-2.0,0.0,4.0,1650916872601088.0,0
747,-1.0,-5.0,0.0,-4.0,-12.0,-9.0,-7.0,-5.0,1650916872601088.0,0
748,-4.0,-2.0,-9.0,-11.0,-11.0,-6.0,8.0,1.0,1650916872616476.0,0
749,3.0,3.0,1.0,3.0,4.0,-1.0,2.0,3.0,1650916872616476.0,0
750,2.0,1.0,2.0,-5.0,-2.0,-13.0,-1.0,-5.0,1650916872618472.0,0
751,3.0,2.0,-4.0,0.0,8.0,25.0,-5.0,3.0,1650916872618472.0,0
752,-3.0,0.0,5.0,4.0,7.0,4.0,-3.0,-3.0,1650916872639950.0,0
753,-3.0,-7.0,-8.0,-3.0,-2.0,-7.0,1.0,1.0,1650916872639950.0,0
754,0.0,3.0,-1.0,-2.0,-2.0,-2.0,6.0,3.0,1650916872641472.0,0
755,0.0,-3.0,-1.0,-3.0,-11.0,-20.0,-5.0,-1.0,1650916872641472.0,0
756,0.0,1.0,5.0,6.0,2.0,5.0,-3.0,-1.0,1650916872654192.0,0
757,-2.0,2.0,3.0,3.0,4.0,3.0,-4.0,-1.0,1650916872654192.0,0
758,5.0,-1.0,-1.0,-4.0,5.0,5.0,4.0,-1.0,1650916872660749.0,0
759,-7.0,-1.0,4.0,5.0,-4.0,-1.0,5.0,-2.0,1650916872660749.0,0
760,-2.0,-3.0,1.0,2.0,-9.0,-3.0,-4.0,-2.0,1650916872677317.0,0
761,-2.0,-2.0,-10.0,-9.0,-5.0,-4.0,0.0,-1.0,1650916872677317.0,0
762,1.0,-2.0,-5.0,-2.0,8.0,8.0,-1.0,1.0,1650916872678317.0,0
763,-1.0,2.0,0.0,-2.0,2.0,0.0,-1.0,-3.0,1650916872678317.0,0
764,-1.0,1.0,3.0,5.0,-5.0,-10.0,-3.0,-1.0,1650916872699185.0,0
765,0.0,2.0,-1.0,-1.0,4.0,-12.0,1.0,3.0,1650916872699185.0,0
766,-2.0,4.0,3.0,0.0,-5.0,10.0,-1.0,1.0,1650916872701183.0,0
767,2.0,-1.0,-3.0,-2.0,1.0,10.0,1.0,0.0,1650916872701183.0,0
768,-1.0,2.0,2.0,-2.0,-1.0,-3.0,-4.0,0.0,1650916872713322.0,0
769,2.0,-2.0,1.0,4.0,-2.0,-6.0,1.0,2.0,1650916872713322.0,0
770,-2.0,-2.0,-6.0,-5.0,4.0,7.0,8.0,-1.0,1650916872721113.0,0
771,1.0,1.0,1.0,-1.0,-13.0,-23.0,-5.0,-1.0,1650916872721113.0,0
772,0.0,3.0,1.0,-1.0,1.0,3.0,-3.0,-2.0,1650916872737251.0,0
773,0.0,1.0,2.0,4.0,9.0,14.0,6.0,2.0,1650916872737251.0,0
774,1.0,-1.0,-3.0,-2.0,-4.0,-3.0,-6.0,-3.0,1650916872738214.0,0
775,-7.0,-2.0,6.0,5.0,-4.0,-2.0,0.0,-1.0,1650916872738214.0,0
776,-1.0,-6.0,-6.0,-7.0,0.0,-8.0,3.0,0.0,1650916872759929.0,0
777,0.0,-4.0,-2.0,-4.0,-1.0,2.0,-9.0,-4.0,1650916872759929.0,0
778,-3.0,-3.0,-1.0,0.0,5.0,5.0,7.0,1.0,1650916872760929.0,0
779,3.0,-2.0,-5.0,-1.0,2.0,-9.0,3.0,-1.0,1650916872760929.0,0
780,1.0,4.0,4.0,4.0,3.0,14.0,-1.0,-1.0,1650916872774229.0,0
781,-1.0,-2.0,1.0,1.0,3.0,11.0,1.0,2.0,1650916872774229.0,0
782,0.0,-3.0,-1.0,-1.0,-2.0,-7.0,-5.0,-1.0,1650916872781095.0,0
783,2.0,1.0,1.0,-1.0,-6.0,-10.0,-5.0,-2.0,1650916872781095.0,0
784,-4.0,-2.0,-2.0,0.0,-4.0,-8.0,-4.0,-5.0,1650916872797408.0,0
785,1.0,-1.0,-3.0,-5.0,-2.0,0.0,2.0,0.0,1650916872797408.0,0
786,-2.0,0.0,1.0,3.0,2.0,2.0,-2.0,0.0,1650916872798413.0,0
787,1.0,0.0,-3.0,-2.0,2.0,7.0,0.0,-1.0,1650916872798413.0,0
788,-1.0,-1.0,1.0,2.0,3.0,-8.0,1.0,3.0,1650916872819352.0,0
789,-2.0,-1.0,0.0,2.0,-1.0,6.0,1.0,-8.0,1650916872819352.0,0
790,2.0,0.0,-5.0,-4.0,-3.0,-6.0,-6.0,-2.0,1650916872821347.0,0
791,2.0,1.0,-1.0,-1.0,1.0,2.0,-3.0,0.0,1650916872821347.0,0
792,-2.0,2.0,-2.0,-1.0,-8.0,-6.0,7.0,1.0,1650916872833348.0,0
793,-1.0,0.0,1.0,0.0,-1.0,-4.0,0.0,2.0,1650916872833348.0,0
794,-2.0,1.0,2.0,2.0,6.0,0.0,0.0,1.0,1650916872840297.0,0
795,0.0,-1.0,-3.0,-5.0,2.0,12.0,0.0,-1.0,1650916872840297.0,0
796,0.0,-4.0,-1.0,-3.0,-2.0,9.0,-2.0,-3.0,1650916872857485.0,0
797,-3.0,0.0,4.0,7.0,5.0,-6.0,2.0,0.0,1650916872857485.0,0
798,-2.0,-5.0,-9.0,-12.0,-8.0,-10.0,-3.0,-2.0,1650916872858486.0,0
799,-1.0,0.0,-1.0,-1.0,-5.0,-4.0,1.0,2.0,1650916872858486.0,0
800,7.0,1.0,0.0,-1.0,3.0,-2.0,0.0,0.0,1650916872879429.0,0
801,1.0,4.0,4.0,3.0,-4.0,-1.0,2.0,2.0,1650916872879429.0,0
802,2.0,4.0,12.0,14.0,2.0,4.0,-1.0,1.0,1650916872881426.0,0
803,-4.0,-9.0,-7.0,-5.0,3.0,3.0,-1.0,-2.0,1650916872881426.0,0
804,-7.0,-5.0,-16.0,-25.0,-2.0,1.0,-3.0,-7.0,1650916872893391.0,0
805,0.0,-1.0,3.0,-1.0,-3.0,-3.0,-3.0,-2.0,1650916872893391.0,0
806,2.0,2.0,0.0,-1.0,0.0,-2.0,1.0,1.0,1650916872902371.0,0
807,-1.0,4.0,9.0,10.0,1.0,3.0,5.0,1.0,1650916872902371.0,0
808,5.0,7.0,7.0,13.0,7.0,7.0,1.0,4.0,1650916872917328.0,0
809,3.0,-1.0,-10.0,-10.0,-4.0,-15.0,4.0,9.0,1650916872917328.0,0
810,2.0,1.0,3.0,-2.0,-8.0,9.0,3.0,4.0,1650916872918325.0,0
811,1.0,-7.0,-5.0,-1.0,2.0,6.0,-3.0,-20.0,1650916872918325.0,0
812,-19.0,-13.0,8.0,5.0,5.0,-10.0,-5.0,1.0,1650916872939302.0,0
813,-5.0,-7.0,-5.0,-2.0,0.0,-3.0,-7.0,-9.0,1650916872939302.0,0
814,-1.0,2.0,-4.0,-7.0,-9.0,-7.0,3.0,16.0,1650916872941265.0,0
815,10.0,11.0,5.0,-2.0,-4.0,2.0,17.0,19.0,1650916872941265.0,0
816,11.0,18.0,7.0,18.0,9.0,3.0,-2.0,-16.0,1650916872953266.0,0
817,-6.0,6.0,11.0,20.0,10.0,8.0,-20.0,-51.0,1650916872953266.0,0
818,-12.0,-13.0,-24.0,-42.0,-12.0,-6.0,-8.0,2.0,1650916872969188.0,0
819,-10.0,-24.0,-11.0,-8.0,-2.0,1.0,-6.0,-13.0,1650916872969188.0,0
820,-6.0,-9.0,-7.0,-4.0,-5.0,-5.0,11.0,46.0,1650916872977170.0,0
821,7.0,-3.0,4.0,7.0,-2.0,-2.0,9.0,9.0,1650916872977170.0,0
822,2.0,16.0,6.0,7.0,-3.0,-8.0,-10.0,-29.0,1650916872978165.0,0
823,1.0,-2.0,3.0,-5.0,3.0,-2.0,-6.0,4.0,1650916872978165.0,0
824,0.0,6.0,-3.0,-4.0,-8.0,0.0,-1.0,-8.0,1650916872999110.0,0
825,1.0,-1.0,-7.0,-3.0,-5.0,0.0,5.0,20.0,1650916872999110.0,0
826,3.0,0.0,12.0,16.0,8.0,2.0,9.0,11.0,1650916873001105.0,0
827,15.0,11.0,-1.0,7.0,8.0,4.0,-4.0,-15.0,1650916873001105.0,0
828,-1.0,-8.0,-2.0,-12.0,2.0,7.0,0.0,-3.0,1650916873013071.0,0
829,-25.0,-18.0,6.0,-3.0,-4.0,0.0,-1.0,0.0,1650916873013071.0,0
830,12.0,-41.0,-14.0,-4.0,-13.0,-13.0,-4.0,24.0,1650916873022048.0,0
831,-4.0,3.0,-1.0,-2.0,0.0,-1.0,1.0,-14.0,1650916873022048.0,0
832,8.0,18.0,-16.0,-1.0,-5.0,-12.0,-14.0,-18.0,1650916873037503.0,0
833,33.0,34.0,-2.0,-10.0,13.0,14.0,12.0,39.0,1650916873037503.0,0
834,-6.0,26.0,31.0,26.0,13.0,10.0,17.0,-17.0,1650916873038438.0,0
835,-20.0,-75.0,-1.0,4.0,-9.0,-4.0,-7.0,19.0,1650916873038438.0,0
836,-10.0,-22.0,-7.0,-4.0,-5.0,-7.0,-2.0,-20.0,1650916873059481.0,2
837,1.0,1.0,-14.0,-10.0,6.0,6.0,-3.0,-5.0,1650916873059481.0,2
838,14.0,37.0,22.0,35.0,10.0,8.0,5.0,18.0,1650916873061480.0,2
839,21.0,48.0,-1.0,-33.0,-18.0,-14.0,4.0,22.0,1650916873061480.0,2
840,-3.0,-34.0,6.0,-10.0,-16.0,-6.0,3.0,-1.0,1650916873073440.0,2
841,-37.0,-100.0,-35.0,-17.0,-4.0,-5.0,-12.0,-11.0,1650916873073440.0,2
842,2.0,22.0,31.0,21.0,22.0,13.0,-5.0,-14.0,1650916873082416.0,2
843,4.0,18.0,9.0,29.0,19.0,7.0,11.0,14.0,1650916873082416.0,2
844,32.0,50.0,0.0,-4.0,-9.0,1.0,4.0,30.0,1650916873097378.0,2
845,3.0,91.0,14.0,4.0,-16.0,-10.0,-1.0,2.0,1650916873097378.0,2
846,-15.0,-88.0,-20.0,-6.0,36.0,23.0,9.0,-6.0,1650916873098377.0,2
847,-43.0,-29.0,-2.0,-8.0,-28.0,-28.0,-26.0,-42.0,1650916873098377.0,2
848,4.0,20.0,-25.0,0.0,6.0,-2.0,7.0,7.0,1650916873119319.0,2
849,16.0,-3.0,39.0,14.0,-5.0,4.0,6.0,18.0,1650916873119319.0,2
850,-18.0,-32.0,-26.0,-8.0,2.0,-4.0,-6.0,-16.0,1650916873121313.0,2
851,7.0,51.0,1.0,-10.0,2.0,3.0,-5.0,4.0,1650916873121313.0,2
852,-15.0,-24.0,-9.0,-9.0,-2.0,8.0,19.0,27.0,1650916873133280.0,2
853,1.0,10.0,12.0,9.0,0.0,-4.0,2.0,20.0,1650916873133280.0,2
854,23.0,-8.0,-14.0,-10.0,-27.0,-16.0,-19.0,-52.0,1650916873142280.0,2
855,23.0,38.0,7.0,9.0,4.0,0.0,17.0,-4.0,1650916873142280.0,2
856,18.0,-2.0,7.0,15.0,16.0,17.0,9.0,33.0,1650916873157216.0,2
857,0.0,-4.0,-9.0,-8.0,15.0,13.0,14.0,-19.0,1650916873157216.0,2
858,-49.0,-65.0,-7.0,-15.0,-14.0,-13.0,-8.0,48.0,1650916873158214.0,2
859,-34.0,-18.0,-7.0,12.0,-10.0,-14.0,-15.0,-25.0,1650916873158214.0,2
860,-9.0,44.0,-18.0,-44.0,-15.0,-2.0,-5.0,-11.0,1650916873179199.0,2
861,48.0,60.0,10.0,16.0,8.0,7.0,5.0,14.0,1650916873179199.0,2
862,24.0,42.0,-10.0,0.0,1.0,2.0,-17.0,-51.0,1650916873181152.0,2
863,34.0,-8.0,12.0,12.0,22.0,11.0,18.0,34.0,1650916873181152.0,2
864,1.0,49.0,24.0,6.0,-9.0,-7.0,7.0,18.0,1650916873193120.0,2
865,-103.0,-128.0,-23.0,-18.0,-33.0,-32.0,-46.0,-94.0,1650916873193120.0,2
866,36.0,69.0,1.0,-16.0,-4.0,10.0,18.0,22.0,1650916873202096.0,2
867,26.0,6.0,7.0,12.0,-5.0,-1.0,11.0,70.0,1650916873202096.0,2
868,10.0,-18.0,-10.0,1.0,5.0,-6.0,-30.0,-36.0,1650916873217203.0,2
869,50.0,29.0,0.0,6.0,2.0,5.0,15.0,-15.0,1650916873217203.0,2
870,-42.0,13.0,1.0,-1.0,4.0,-5.0,-5.0,-6.0,1650916873218168.0,2
871,-54.0,-73.0,-37.0,-9.0,-4.0,-3.0,-9.0,-11.0,1650916873218168.0,2
872,-15.0,7.0,22.0,-5.0,9.0,11.0,-2.0,-6.0,1650916873247256.0,2
873,35.0,67.0,-21.0,-3.0,-11.0,-11.0,15.0,82.0,1650916873247256.0,2
874,7.0,39.0,23.0,14.0,-24.0,-22.0,-26.0,-14.0,1650916873248211.0,2
875,26.0,16.0,13.0,-21.0,19.0,22.0,3.0,9.0,1650916873248211.0,2
876,-32.0,-34.0,-38.0,-8.0,-6.0,5.0,26.0,2.0,1650916873253228.0,2
877,35.0,-1.0,31.0,30.0,19.0,2.0,-9.0,-5.0,1650916873253228.0,2
878,6.0,43.0,22.0,-14.0,-10.0,8.0,7.0,-10.0,1650916873262175.0,2
879,-8.0,-46.0,-64.0,-10.0,21.0,6.0,-4.0,-1.0,1650916873262175.0,2
880,-8.0,20.0,21.0,18.0,-16.0,-17.0,-12.0,-7.0,1650916873277487.0,2
881,-55.0,-82.0,-24.0,-15.0,-11.0,-6.0,-2.0,-7.0,1650916873277487.0,2
882,-22.0,-22.0,26.0,25.0,-20.0,-10.0,7.0,-45.0,1650916873278488.0,2
883,-10.0,-1.0,-4.0,-2.0,34.0,19.0,10.0,7.0,1650916873278488.0,2
884,3.0,6.0,-11.0,-46.0,-8.0,5.0,-8.0,-21.0,1650916873299411.0,2
885,36.0,27.0,-15.0,0.0,-21.0,-2.0,14.0,12.0,1650916873299411.0,2
886,4.0,-2.0,-6.0,-3.0,40.0,10.0,-2.0,15.0,1650916873301350.0,2
887,6.0,34.0,21.0,21.0,-13.0,3.0,11.0,22.0,1650916873301350.0,2
888,55.0,-3.0,5.0,28.0,7.0,-7.0,0.0,-58.0,1650916873322279.0,2
889,-27.0,-12.0,-2.0,-18.0,-8.0,2.0,-19.0,6.0,1650916873322279.0,2
890,-19.0,17.0,-19.0,1.0,6.0,-3.0,-4.0,-28.0,1650916873323276.0,2
891,-2.0,11.0,10.0,-1.0,-6.0,-7.0,-15.0,-30.0,1650916873323276.0,2
892,10.0,-6.0,11.0,15.0,-1.0,-2.0,10.0,34.0,1650916873338239.0,2
893,-12.0,-9.0,15.0,-16.0,-20.0,1.0,-8.0,-42.0,1650916873338239.0,2
894,39.0,17.0,-12.0,4.0,46.0,28.0,33.0,85.0,1650916873343223.0,2
895,-28.0,16.0,10.0,9.0,-10.0,-10.0,-6.0,-17.0,1650916873343223.0,2
896,-34.0,-34.0,-5.0,-21.0,-2.0,-3.0,-22.0,-7.0,1650916873359210.0,2
897,-3.0,44.0,16.0,8.0,-2.0,-4.0,2.0,-26.0,1650916873359210.0,2
898,13.0,9.0,-17.0,-11.0,-22.0,-8.0,-6.0,19.0,1650916873361206.0,2
899,8.0,-12.0,20.0,4.0,16.0,11.0,11.0,-14.0,1650916873361206.0,2
900,-13.0,-12.0,1.0,14.0,-1.0,-19.0,-9.0,6.0,1650916873382125.0,2
901,-10.0,2.0,-3.0,7.0,4.0,-4.0,-6.0,-5.0,1650916873382125.0,2
902,-15.0,-12.0,-4.0,-3.0,-6.0,-2.0,-2.0,7.0,1650916873383159.0,2
903,14.0,20.0,-1.0,-12.0,-16.0,-7.0,-2.0,15.0,1650916873383159.0,2
904,-11.0,13.0,5.0,22.0,12.0,10.0,-9.0,-55.0,1650916873397087.0,2
905,6.0,9.0,13.0,-4.0,14.0,18.0,27.0,39.0,1650916873397087.0,2
906,21.0,-16.0,2.0,-2.0,-12.0,-7.0,11.0,19.0,1650916873398084.0,2
907,-1.0,-21.0,-4.0,0.0,-14.0,-10.0,-11.0,6.0,1650916873398084.0,2
908,-8.0,-8.0,12.0,4.0,16.0,7.0,-14.0,-26.0,1650916873419595.0,2
909,42.0,33.0,8.0,36.0,19.0,0.0,37.0,96.0,1650916873419595.0,2
910,44.0,12.0,-6.0,-26.0,-18.0,2.0,10.0,-15.0,1650916873420592.0,2
911,-83.0,1.0,6.0,1.0,9.0,-2.0,-3.0,-22.0,1650916873420592.0,2
912,28.0,22.0,10.0,3.0,-13.0,5.0,-6.0,20.0,1650916873441580.0,2
913,-22.0,-1.0,-23.0,-11.0,-8.0,-6.0,-6.0,-26.0,1650916873441580.0,2
914,-15.0,-8.0,13.0,20.0,31.0,7.0,-8.0,1.0,1650916873443531.0,2
915,40.0,7.0,-18.0,-29.0,-2.0,0.0,-7.0,-3.0,1650916873443531.0,2
916,-14.0,-20.0,-5.0,10.0,-14.0,-16.0,-2.0,-2.0,1650916873457510.0,2
917,0.0,-1.0,-5.0,3.0,-1.0,1.0,-5.0,15.0,1650916873457510.0,2
918,-5.0,8.0,-13.0,-8.0,-44.0,-18.0,-17.0,-17.0,1650916873458491.0,2
919,-2.0,17.0,31.0,-10.0,-2.0,11.0,10.0,7.0,1650916873458491.0,2
920,-11.0,-25.0,-18.0,2.0,13.0,7.0,15.0,-16.0,1650916873479961.0,2
921,24.0,-1.0,15.0,-2.0,-3.0,-11.0,-34.0,-26.0,1650916873479961.0,2
922,-9.0,7.0,-33.0,-17.0,-4.0,-3.0,7.0,10.0,1650916873480634.0,2
923,12.0,-12.0,17.0,22.0,1.0,-5.0,-13.0,1.0,1650916873480634.0,2
924,-9.0,10.0,7.0,-5.0,-12.0,-3.0,-1.0,29.0,1650916873501774.0,2
925,-1.0,-5.0,-32.0,-21.0,8.0,3.0,-13.0,-64.0,1650916873501774.0,2
926,-28.0,-17.0,27.0,23.0,-9.0,-7.0,-9.0,33.0,1650916873503737.0,2
927,49.0,10.0,-16.0,-23.0,-28.0,-10.0,18.0,28.0,1650916873503737.0,2
928,-18.0,-5.0,2.0,6.0,37.0,6.0,-2.0,16.0,1650916873516702.0,2
929,-9.0,20.0,-7.0,11.0,13.0,11.0,-5.0,-33.0,1650916873516702.0,2
930,-19.0,-12.0,-4.0,-37.0,-13.0,-4.0,-11.0,-7.0,1650916873522686.0,2
931,2.0,3.0,-6.0,16.0,-21.0,-13.0,-11.0,-31.0,1650916873522686.0,2
932,32.0,19.0,19.0,10.0,11.0,5.0,13.0,13.0,1650916873539339.0,2
933,15.0,37.0,2.0,4.0,20.0,15.0,9.0,38.0,1650916873539339.0,2
934,-9.0,-79.0,6.0,15.0,11.0,-4.0,-15.0,-24.0,1650916873541336.0,2
935,-43.0,-8.0,3.0,-21.0,-36.0,-9.0,-1.0,-18.0,1650916873541336.0,2
936,16.0,25.0,-11.0,-11.0,-2.0,-13.0,-23.0,-5.0,1650916873561587.0,2
937,-3.0,7.0,-20.0,15.0,-7.0,-7.0,4.0,-6.0,1650916873561587.0,2
938,10.0,-9.0,-5.0,-9.0,30.0,25.0,26.0,10.0,1650916873563439.0,2
939,4.0,-1.0,-1.0,10.0,0.0,-7.0,-4.0,-18.0,1650916873563439.0,2
940,10.0,9.0,18.0,-11.0,-16.0,-6.0,-16.0,-37.0,1650916873576539.0,2
941,-23.0,-7.0,19.0,14.0,19.0,6.0,20.0,26.0,1650916873576539.0,2
942,14.0,8.0,-7.0,-31.0,-24.0,-4.0,-11.0,-2.0,1650916873583384.0,2
943,46.0,11.0,0.0,27.0,36.0,29.0,14.0,6.0,1650916873583384.0,2
944,-78.0,-45.0,-6.0,3.0,-31.0,-19.0,-13.0,0.0,1650916873599341.0,2
945,36.0,3.0,6.0,8.0,58.0,18.0,23.0,56.0,1650916873599341.0,2
946,-55.0,-17.0,-1.0,4.0,-37.0,-29.0,-18.0,-59.0,1650916873601336.0,2
947,-27.0,23.0,1.0,-2.0,22.0,-2.0,-15.0,18.0,1650916873601336.0,2
948,16.0,27.0,-6.0,6.0,9.0,14.0,20.0,26.0,1650916873622280.0,2
949,-10.0,-57.0,17.0,-15.0,-32.0,-1.0,11.0,5.0,1650916873622280.0,2
950,11.0,47.0,3.0,33.0,38.0,17.0,13.0,11.0,1650916873623278.0,2
951,-3.0,22.0,-4.0,-34.0,-21.0,7.0,3.0,-7.0,1650916873623278.0,2
952,25.0,-35.0,-28.0,-9.0,-2.0,-2.0,-7.0,3.0,1650916873636323.0,2
953,-19.0,7.0,7.0,-3.0,-11.0,-13.0,-12.0,-33.0,1650916873636323.0,2
954,24.0,8.0,28.0,22.0,-4.0,0.0,30.0,44.0,1650916873643305.0,2
955,2.0,-10.0,1.0,19.0,24.0,4.0,4.0,-12.0,1650916873643305.0,2
956,1.0,3.0,9.0,2.0,15.0,15.0,20.0,41.0,1650916873659293.0,2
957,9.0,-10.0,-1.0,-12.0,-18.0,-8.0,-15.0,-36.0,1650916873659293.0,2
958,9.0,2.0,-5.0,-2.0,-6.0,-9.0,-8.0,20.0,1650916873661289.0,2
959,-8.0,-8.0,-9.0,0.0,-5.0,-8.0,-11.0,-25.0,1650916873661289.0,2
960,13.0,-3.0,6.0,4.0,-5.0,-4.0,10.0,35.0,1650916873681826.0,2
961,-3.0,9.0,-6.0,-25.0,5.0,5.0,2.0,-18.0,1650916873681826.0,2
962,-12.0,-15.0,-7.0,17.0,-13.0,0.0,15.0,43.0,1650916873683707.0,2
963,-18.0,-5.0,1.0,-8.0,1.0,-3.0,-14.0,-47.0,1650916873683707.0,2
964,6.0,7.0,10.0,-17.0,-8.0,-6.0,-8.0,-6.0,1650916873696737.0,2
965,-33.0,-4.0,-6.0,11.0,-1.0,-10.0,-20.0,-39.0,1650916873696737.0,2
966,23.0,17.0,4.0,-16.0,11.0,18.0,15.0,22.0,1650916873702857.0,2
967,28.0,9.0,-8.0,-30.0,-34.0,3.0,2.0,-2.0,1650916873702857.0,2
968,-19.0,-13.0,5.0,32.0,42.0,10.0,15.0,12.0,1650916873719960.0,2
969,-9.0,-7.0,-3.0,22.0,7.0,-5.0,0.0,38.0,1650916873719960.0,2
970,-7.0,6.0,-10.0,-13.0,14.0,10.0,10.0,-4.0,1650916873720888.0,2
971,2.0,-3.0,2.0,-6.0,-9.0,-7.0,4.0,7.0,1650916873720888.0,2
972,-2.0,-2.0,-45.0,-38.0,-30.0,-19.0,-28.0,-47.0,1650916873742340.0,2
973,-33.0,-16.0,18.0,5.0,4.0,-5.0,1.0,-2.0,1650916873742340.0,2
974,27.0,-8.0,-10.0,-3.0,3.0,-2.0,-15.0,-20.0,1650916873743338.0,2
975,-3.0,-5.0,-12.0,-9.0,-5.0,-2.0,9.0,30.0,1650916873743338.0,2
976,-18.0,-22.0,1.0,1.0,-6.0,3.0,0.0,-24.0,1650916873756438.0,2
977,7.0,5.0,12.0,7.0,3.0,2.0,0.0,18.0,1650916873756438.0,2
978,-4.0,4.0,-14.0,-6.0,-5.0,-8.0,-14.0,-27.0,1650916873763417.0,2
979,-19.0,-7.0,0.0,4.0,-9.0,-13.0,-6.0,-15.0,1650916873763417.0,2
980,28.0,12.0,-2.0,3.0,-13.0,-3.0,11.0,6.0,1650916873779857.0,2
981,-7.0,-4.0,-16.0,-11.0,-10.0,4.0,1.0,9.0,1650916873779857.0,2
982,-3.0,3.0,18.0,-13.0,14.0,8.0,-6.0,-27.0,1650916873780856.0,2
983,-1.0,-6.0,1.0,20.0,-4.0,-2.0,-4.0,11.0,1650916873780856.0,2
984,-1.0,2.0,2.0,-11.0,-8.0,2.0,-6.0,-12.0,1650916873802022.0,2
985,0.0,0.0,-2.0,-14.0,-22.0,-14.0,-12.0,-18.0,1650916873802022.0,2
986,5.0,-4.0,-6.0,-5.0,28.0,21.0,17.0,25.0,1650916873804016.0,2
987,12.0,3.0,-2.0,18.0,11.0,-3.0,1.0,16.0,1650916873804016.0,2
988,-8.0,5.0,6.0,-4.0,-1.0,10.0,-3.0,-2.0,1650916873815984.0,2
989,0.0,-1.0,-19.0,-24.0,-20.0,-10.0,-19.0,-34.0,1650916873815984.0,2
990,6.0,-6.0,2.0,4.0,-1.0,-8.0,5.0,17.0,1650916873822965.0,2
991,-24.0,-2.0,-7.0,-6.0,0.0,-11.0,-23.0,-17.0,1650916873822965.0,2
992,22.0,8.0,18.0,26.0,7.0,7.0,17.0,-41.0,1650916873839535.0,2
993,-16.0,1.0,10.0,-1.0,-1.0,3.0,-1.0,36.0,1650916873839535.0,2
994,27.0,23.0,8.0,7.0,-9.0,-3.0,22.0,43.0,1650916873841218.0,2
995,9.0,-15.0,-9.0,3.0,-2.0,4.0,10.0,16.0,1650916873841218.0,2
996,-12.0,-30.0,-6.0,-8.0,8.0,-1.0,2.0,28.0,1650916873862120.0,2
997,-15.0,5.0,12.0,11.0,9.0,-2.0,-20.0,-40.0,1650916873862120.0,2
998,-20.0,10.0,-18.0,-18.0,-15.0,-2.0,-4.0,-39.0,1650916873863116.0,2
999,29.0,20.0,1.0,5.0,1.0,-15.0,-6.0,14.0,1650916873863116.0,2
1000,9.0,-7.0,5.0,6.0,2.0,9.0,24.0,43.0,1650916873875262.0,2
1001,-24.0,-12.0,-18.0,-40.0,-10.0,7.0,-1.0,-27.0,1650916873875262.0,2
1002,-4.0,14.0,12.0,17.0,-37.0,-16.0,-13.0,-2.0,1650916873884240.0,2
1003,0.0,-14.0,-10.0,-10.0,49.0,26.0,-6.0,28.0,1650916873884240.0,2
1004,-9.0,17.0,21.0,29.0,-3.0,-6.0,-1.0,-77.0,1650916873899939.0,2
1005,47.0,13.0,0.0,-13.0,35.0,14.0,15.0,34.0,1650916873899939.0,2
1006,-37.0,-33.0,-7.0,-24.0,-41.0,-21.0,-18.0,-12.0,1650916873900939.0,2
1007,-2.0,12.0,-3.0,16.0,11.0,1.0,-4.0,-30.0,1650916873900939.0,2
1008,-5.0,6.0,-11.0,-19.0,-34.0,-23.0,-24.0,-2.0,1650916873929959.0,2
1009,9.0,-6.0,9.0,20.0,13.0,5.0,2.0,0.0,1650916873929959.0,2
1010,0.0,29.0,22.0,4.0,5.0,2.0,1.0,-14.0,1650916873931394.0,2
1011,14.0,-14.0,-4.0,7.0,-4.0,7.0,13.0,43.0,1650916873931394.0,2
1012,8.0,-21.0,-21.0,-18.0,9.0,7.0,1.0,-1.0,1650916873935350.0,2
1013,-3.0,0.0,5.0,17.0,-13.0,-3.0,-2.0,-23.0,1650916873935350.0,2
1014,28.0,-7.0,2.0,1.0,7.0,-1.0,-7.0,8.0,1650916873944239.0,2
1015,-27.0,-1.0,8.0,6.0,-27.0,-17.0,-1.0,-36.0,1650916873944239.0,2
1016,-29.0,23.0,5.0,10.0,24.0,11.0,8.0,42.0,1650916873959235.0,2
1017,24.0,-14.0,23.0,34.0,13.0,8.0,4.0,-43.0,1650916873959235.0,2
1018,9.0,-17.0,-17.0,-36.0,12.0,16.0,13.0,30.0,1650916873961229.0,2
1019,3.0,-26.0,-6.0,-8.0,-29.0,-1.0,-7.0,-4.0,1650916873961229.0,2
1020,-6.0,-17.0,-9.0,2.0,7.0,-10.0,2.0,-5.0,1650916873981522.0,2
1021,8.0,2.0,8.0,2.0,-14.0,-2.0,0.0,24.0,1650916873981522.0,2
1022,-27.0,8.0,0.0,18.0,-25.0,-17.0,-17.0,-13.0,1650916873983484.0,2
1023,46.0,21.0,20.0,8.0,46.0,17.0,16.0,3.0,1650916873983484.0,2
1024,-19.0,-15.0,13.0,-9.0,-27.0,-12.0,-18.0,8.0,1650916873995657.0,2
1025,1.0,4.0,-25.0,-8.0,15.0,9.0,21.0,32.0,1650916873995657.0,2
1026,13.0,-8.0,-8.0,9.0,5.0,-1.0,6.0,-7.0,1650916874004635.0,2
1027,-9.0,-4.0,8.0,-4.0,-11.0,-4.0,3.0,19.0,1650916874004635.0,2
1028,0.0,6.0,-7.0,4.0,-7.0,-6.0,-18.0,-22.0,1650916874020594.0,2
1029,3.0,3.0,2.0,-11.0,-5.0,2.0,7.0,-6.0,1650916874020594.0,2
1030,-14.0,0.0,-10.0,7.0,7.0,-4.0,-15.0,-24.0,1650916874020942.0,2
1031,-6.0,0.0,-4.0,2.0,24.0,8.0,7.0,2.0,1650916874020942.0,2
1032,36.0,28.0,11.0,1.0,10.0,14.0,39.0,21.0,1650916874042320.0,2
1033,-10.0,-18.0,15.0,27.0,-32.0,-22.0,-15.0,14.0,1650916874042320.0,2
1034,-19.0,-1.0,-21.0,-39.0,7.0,-6.0,-25.0,-39.0,1650916874043159.0,2
1035,10.0,6.0,-1.0,32.0,18.0,8.0,5.0,29.0,1650916874043159.0,2
1036,5.0,-3.0,14.0,-19.0,-10.0,-8.0,-11.0,-1.0,1650916874056137.0,2
1037,-7.0,13.0,-16.0,-30.0,-15.0,7.0,9.0,9.0,1650916874056137.0,2
1038,-1.0,14.0,7.0,18.0,-3.0,-6.0,0.0,11.0,1650916874073352.0,2
1039,-21.0,-12.0,19.0,-14.0,2.0,4.0,0.0,-1.0,1650916874073352.0,2
1040,9.0,-10.0,-24.0,4.0,2.0,-1.0,2.0,-2.0,1650916874080510.0,2
1041,-8.0,-8.0,10.0,-4.0,0.0,-4.0,-1.0,-7.0,1650916874080510.0,2
1042,34.0,1.0,-13.0,-1.0,0.0,0.0,1.0,5.0,1650916874080510.0,2
1043,-19.0,31.0,-12.0,-19.0,-21.0,-13.0,0.0,-22.0,1650916874080510.0,2
1044,-18.0,16.0,-6.0,12.0,6.0,2.0,-1.0,4.0,1650916874102399.0,2
1045,-4.0,-16.0,-29.0,-16.0,-5.0,-14.0,-22.0,-11.0,1650916874102399.0,2
1046,-11.0,-26.0,17.0,16.0,21.0,23.0,30.0,10.0,1650916874103398.0,2
1047,17.0,4.0,-3.0,-5.0,-15.0,-9.0,-10.0,-4.0,1650916874103398.0,2
1048,-6.0,2.0,1.0,0.0,-4.0,0.0,4.0,-2.0,1650916874115590.0,2
1049,46.0,24.0,6.0,18.0,-12.0,-9.0,-3.0,13.0,1650916874115590.0,2
1050,-33.0,-35.0,-8.0,-27.0,35.0,13.0,-17.0,-5.0,1650916874124794.0,2
1051,-9.0,3.0,-34.0,-23.0,-19.0,-4.0,10.0,-16.0,1650916874124794.0,2
1052,-4.0,-8.0,26.0,18.0,6.0,-1.0,-9.0,16.0,1650916874140101.0,2
1053,-16.0,-2.0,-4.0,-10.0,0.0,1.0,2.0,-7.0,1650916874140101.0,2
1054,10.0,6.0,-26.0,-4.0,14.0,-2.0,-9.0,-17.0,1650916874141147.0,2
1055,-14.0,-15.0,5.0,11.0,21.0,8.0,-2.0,-20.0,1650916874141147.0,2
1056,16.0,-6.0,-27.0,-18.0,-4.0,-3.0,-3.0,12.0,1650916874162189.0,2
1057,-1.0,13.0,24.0,34.0,-7.0,-3.0,5.0,6.0,1650916874162189.0,2
1058,-1.0,3.0,16.0,-18.0,-4.0,5.0,8.0,10.0,1650916874164022.0,2
1059,3.0,-1.0,4.0,-9.0,-8.0,-8.0,-6.0,-11.0,1650916874164022.0,2
1060,-18.0,-2.0,-4.0,3.0,1.0,-5.0,-5.0,24.0,1650916874176150.0,2
1061,10.0,7.0,0.0,-2.0,7.0,5.0,-5.0,-12.0,1650916874176150.0,2
1062,-16.0,-16.0,11.0,23.0,-5.0,-8.0,-3.0,-8.0,1650916874185284.0,2
1063,6.0,-2.0,-1.0,-9.0,-16.0,-2.0,14.0,37.0,1650916874185284.0,2
1064,0.0,3.0,-10.0,5.0,9.0,10.0,6.0,-15.0,1650916874199091.0,2
1065,3.0,13.0,3.0,-6.0,17.0,10.0,0.0,-1.0,1650916874199091.0,2
1066,26.0,6.0,0.0,5.0,-16.0,-6.0,-6.0,6.0,1650916874201110.0,2
1067,-3.0,15.0,21.0,10.0,2.0,1.0,-3.0,10.0,1650916874201110.0,2
1068,9.0,-17.0,-17.0,-14.0,-29.0,-17.0,-9.0,-4.0,1650916874221884.0,2
1069,-16.0,-23.0,-22.0,-12.0,38.0,17.0,-2.0,-5.0,1650916874221884.0,2
1070,-17.0,-9.0,10.0,37.0,7.0,5.0,17.0,-9.0,1650916874223726.0,2
1071,-1.0,-6.0,-9.0,-35.0,-15.0,4.0,-7.0,-6.0,1650916874223726.0,2
1072,3.0,16.0,24.0,31.0,20.0,10.0,5.0,-1.0,1650916874235836.0,2
1073,0.0,-8.0,-22.0,-43.0,-31.0,-13.0,0.0,-2.0,1650916874235836.0,2
1074,10.0,3.0,9.0,1.0,-2.0,-4.0,-5.0,11.0,1650916874244850.0,2
1075,-8.0,-12.0,-11.0,10.0,6.0,1.0,5.0,-16.0,1650916874244850.0,2
1076,-5.0,3.0,6.0,-8.0,-5.0,-8.0,-4.0,10.0,1650916874259313.0,2
1077,-10.0,-9.0,-5.0,-4.0,-10.0,-13.0,-18.0,-27.0,1650916874259313.0,2
1078,-8.0,9.0,4.0,9.0,-7.0,-13.0,-3.0,-4.0,1650916874261172.0,2
1079,0.0,-10.0,0.0,1.0,0.0,4.0,-3.0,-11.0,1650916874261172.0,2
1080,5.0,-12.0,-3.0,-4.0,10.0,14.0,4.0,3.0,1650916874281460.0,2
1081,-7.0,12.0,0.0,4.0,-1.0,-5.0,-12.0,-7.0,1650916874281460.0,2
1082,13.0,2.0,0.0,-4.0,-7.0,1.0,25.0,18.0,1650916874283455.0,2
1083,-4.0,-11.0,9.0,11.0,5.0,-5.0,-16.0,-19.0,1650916874283455.0,2
1084,4.0,3.0,-4.0,-6.0,2.0,8.0,19.0,6.0,1650916874304914.0,2
1085,-2.0,2.0,7.0,2.0,1.0,2.0,-3.0,10.0,1650916874304914.0,2
1086,-11.0,-1.0,-5.0,3.0,4.0,-1.0,-7.0,-11.0,1650916874305914.0,2
1087,10.0,1.0,-4.0,-2.0,-1.0,0.0,1.0,7.0,1650916874305914.0,2
1088,-7.0,-3.0,0.0,-1.0,-1.0,-6.0,-6.0,-18.0,1650916874319981.0,2
1089,2.0,3.0,-1.0,-4.0,0.0,7.0,13.0,16.0,1650916874319981.0,2
1090,1.0,1.0,1.0,1.0,-3.0,4.0,-8.0,-11.0,1650916874320932.0,2
1091,-1.0,-5.0,4.0,13.0,1.0,2.0,7.0,6.0,1650916874320932.0,2
1092,-1.0,-4.0,-8.0,-16.0,-1.0,-5.0,-8.0,-13.0,1650916874342960.0,2
1093,0.0,-7.0,-7.0,-9.0,-12.0,-5.0,2.0,8.0,1650916874342960.0,2
1094,0.0,8.0,-7.0,-2.0,-6.0,-9.0,-6.0,2.0,1650916874343802.0,2
1095,-2.0,8.0,-4.0,2.0,3.0,-4.0,-9.0,-11.0,1650916874343802.0,2
1096,0.0,1.0,16.0,8.0,6.0,5.0,-2.0,-3.0,1650916874364087.0,2
1097,-2.0,-8.0,10.0,32.0,11.0,4.0,12.0,9.0,1650916874364087.0,2
1098,0.0,2.0,-8.0,-21.0,-2.0,2.0,-3.0,-2.0,1650916874365922.0,2
1099,-1.0,-2.0,-21.0,-20.0,-9.0,-5.0,-3.0,0.0,1650916874365922.0,2
1100,-2.0,-5.0,1.0,-3.0,-4.0,0.0,0.0,-6.0,1650916874380311.0,2
1101,-3.0,-1.0,-5.0,-2.0,7.0,4.0,7.0,3.0,1650916874380311.0,2
1102,6.0,0.0,20.0,25.0,3.0,1.0,-6.0,-2.0,1650916874380944.0,2
1103,2.0,4.0,-5.0,-9.0,-2.0,-3.0,-2.0,-7.0,1650916874380944.0,2
1104,0.0,1.0,-12.0,-12.0,-4.0,0.0,-8.0,-3.0,1650916874402761.0,2
1105,4.0,2.0,3.0,2.0,1.0,3.0,15.0,3.0,1650916874402761.0,2
1106,-13.0,-6.0,-10.0,6.0,-2.0,-3.0,-1.0,-3.0,1650916874403597.0,2
1107,2.0,0.0,0.0,-17.0,-3.0,-3.0,3.0,0.0,1650916874403597.0,2
1108,2.0,0.0,2.0,12.0,3.0,-2.0,-9.0,1.0,1650916874425232.0,2
1109,-1.0,-2.0,-4.0,-9.0,-1.0,5.0,3.0,3.0,1650916874425232.0,2
1110,-5.0,-1.0,-7.0,-11.0,-4.0,-3.0,-1.0,-1.0,1650916874426071.0,2
1111,8.0,4.0,8.0,7.0,3.0,2.0,4.0,5.0,1650916874426071.0,2
1112,-2.0,-6.0,7.0,10.0,0.0,0.0,0.0,-2.0,1650916874439317.0,2
1113,-4.0,-1.0,-2.0,-2.0,-8.0,-6.0,-1.0,0.0,1650916874439317.0,2
1114,1.0,1.0,-5.0,-6.0,-2.0,-1.0,-1.0,-3.0,1650916874445248.0,2
1115,-3.0,6.0,9.0,7.0,2.0,0.0,-3.0,1.0,1650916874445248.0,2
1116,3.0,2.0,1.0,3.0,7.0,5.0,-1.0,1.0,1650916874462674.0,2
1117,0.0,-2.0,7.0,-7.0,-3.0,0.0,1.0,1.0,1650916874462674.0,2
1118,-5.0,-1.0,-1.0,3.0,-5.0,0.0,-1.0,-3.0,1650916874463607.0,2
1119,1.0,0.0,10.0,0.0,-2.0,-6.0,-9.0,-2.0,1650916874463607.0,2
1120,-2.0,-7.0,-13.0,-2.0,5.0,1.0,14.0,-4.0,1650916874484920.0,2
1121,0.0,-1.0,-13.0,-10.0,-2.0,0.0,-4.0,4.0,1650916874484920.0,2
1122,0.0,12.0,27.0,34.0,14.0,9.0,3.0,-1.0,1650916874485920.0,2
1123,-5.0,-6.0,-15.0,-22.0,-6.0,0.0,-3.0,-1.0,1650916874485920.0,2
1124,0.0,2.0,-3.0,0.0,-8.0,-8.0,-4.0,-1.0,1650916874499885.0,2
1125,0.0,-2.0,-4.0,-7.0,-9.0,-12.0,-6.0,-4.0,1650916874499885.0,2
1126,1.0,1.0,-12.0,-19.0,-3.0,-1.0,0.0,-2.0,1650916874505871.0,2
1127,-3.0,-5.0,6.0,18.0,2.0,-1.0,0.0,0.0,1650916874505871.0,2
1128,1.0,4.0,8.0,0.0,7.0,14.0,9.0,2.0,1650916874522130.0,2
1129,0.0,-3.0,-4.0,2.0,3.0,-3.0,-4.0,0.0,1650916874522130.0,2
1130,0.0,-1.0,3.0,8.0,0.0,1.0,1.0,-2.0,1650916874523983.0,2
1131,-1.0,5.0,-4.0,0.0,-7.0,-3.0,-1.0,0.0,1650916874523983.0,2
1132,-6.0,-3.0,4.0,-1.0,-3.0,-7.0,-6.0,-4.0,1650916874543963.0,2
1133,2.0,-1.0,3.0,14.0,4.0,0.0,1.0,1.0,1650916874543963.0,2
1134,3.0,3.0,16.0,3.0,2.0,6.0,0.0,-2.0,1650916874545925.0,2
1135,-2.0,-7.0,-32.0,-21.0,-1.0,3.0,1.0,1.0,1650916874545925.0,2
1136,-1.0,-5.0,-7.0,-4.0,-1.0,-2.0,-3.0,-2.0,1650916874559186.0,2
1137,-1.0,4.0,6.0,5.0,7.0,2.0,1.0,-1.0,1650916874559186.0,2
1138,-2.0,-4.0,-16.0,-2.0,-6.0,-9.0,-4.0,-3.0,1650916874565217.0,2
1139,-3.0,0.0,14.0,-3.0,-10.0,-9.0,-2.0,-4.0,1650916874565217.0,2
1140,1.0,4.0,-17.0,-29.0,-4.0,-1.0,-10.0,-2.0,1650916874581507.0,2
1141,1.0,-2.0,7.0,6.0,10.0,20.0,18.0,4.0,1650916874581507.0,2
1142,1.0,3.0,4.0,1.0,0.0,5.0,0.0,2.0,1650916874583500.0,2
1143,0.0,-11.0,-15.0,7.0,0.0,-10.0,-5.0,-10.0,1650916874583500.0,2
1144,1.0,-3.0,1.0,7.0,-7.0,-10.0,-11.0,-5.0,1650916874604548.0,2
1145,-3.0,3.0,-1.0,-10.0,-7.0,2.0,8.0,2.0,1650916874604548.0,2
1146,-2.0,-8.0,-2.0,-6.0,-4.0,-6.0,-7.0,-1.0,1650916874605582.0,2
1147,-2.0,5.0,12.0,10.0,7.0,8.0,12.0,2.0,1650916874605582.0,2
1148,3.0,3.0,-5.0,-2.0,4.0,-1.0,-9.0,1.0,1650916874619336.0,2
1149,-1.0,-3.0,-8.0,-5.0,-10.0,-12.0,-5.0,-4.0,1650916874619336.0,2
1150,0.0,2.0,5.0,-2.0,-4.0,-3.0,0.0,0.0,1650916874625322.0,2
1151,1.0,0.0,9.0,6.0,6.0,3.0,-7.0,-1.0,1650916874625322.0,2
1152,-2.0,0.0,1.0,12.0,5.0,8.0,5.0,0.0,1650916874642226.0,2
1153,2.0,1.0,9.0,9.0,8.0,10.0,3.0,3.0,1650916874642226.0,2
1154,-3.0,-7.0,-28.0,-37.0,-9.0,-6.0,-2.0,-4.0,1650916874643226.0,2
1155,-5.0,-1.0,-6.0,-7.0,-14.0,-12.0,-4.0,-4.0,1650916874643226.0,2
1156,0.0,0.0,-7.0,-11.0,-8.0,-5.0,6.0,-1.0,1650916874664251.0,2
1157,-4.0,1.0,14.0,12.0,5.0,3.0,-11.0,-4.0,1650916874664251.0,2
1158,5.0,0.0,12.0,6.0,4.0,0.0,5.0,3.0,1650916874664251.0,2
1159,-3.0,-10.0,-33.0,-18.0,0.0,5.0,2.0,1.0,1650916874664251.0,2
1160,2.0,1.0,8.0,5.0,1.0,0.0,-2.0,-2.0,1650916874678503.0,2
1161,-3.0,2.0,6.0,-1.0,-10.0,-10.0,0.0,1.0,1650916874678503.0,2
1162,-6.0,-5.0,-10.0,-4.0,-7.0,-8.0,-11.0,-7.0,1650916874686481.0,2
1163,3.0,5.0,19.0,18.0,10.0,14.0,6.0,6.0,1650916874686481.0,2
1164,-2.0,1.0,-9.0,-8.0,4.0,-9.0,4.0,0.0,1650916874701738.0,2
1165,2.0,-2.0,-4.0,0.0,-1.0,3.0,-5.0,2.0,1650916874701738.0,2
1166,1.0,6.0,9.0,3.0,0.0,9.0,-6.0,-3.0,1650916874701738.0,2
1167,0.0,0.0,11.0,4.0,-5.0,-3.0,-4.0,0.0,1650916874701738.0,2
1168,-1.0,-4.0,-12.0,-6.0,-3.0,-3.0,2.0,0.0,1650916874723852.0,2
1169,2.0,3.0,13.0,4.0,5.0,-4.0,-5.0,-2.0,1650916874723852.0,2
1170,-2.0,-6.0,-16.0,-5.0,-3.0,-4.0,5.0,0.0,1650916874724764.0,0
1171,-2.0,0.0,9.0,3.0,2.0,6.0,-4.0,1.0,1650916874724764.0,0
1172,-1.0,3.0,-6.0,-10.0,-5.0,4.0,8.0,0.0,1650916874738579.0,0
1173,-5.0,-11.0,-22.0,-12.0,-10.0,-10.0,-1.0,0.0,1650916874738579.0,0
1174,1.0,3.0,-3.0,-2.0,7.0,1.0,-3.0,-2.0,1650916874746863.0,0
1175,2.0,3.0,3.0,2.0,1.0,4.0,3.0,-1.0,1650916874746863.0,0
1176,2.0,5.0,22.0,12.0,4.0,5.0,1.0,0.0,1650916874761055.0,0
1177,2.0,-1.0,-7.0,-2.0,0.0,2.0,1.0,2.0,1650916874761055.0,0
1178,-2.0,-2.0,3.0,0.0,-2.0,-4.0,-2.0,-3.0,1650916874762055.0,0
1179,-3.0,0.0,0.0,3.0,-1.0,-5.0,0.0,-2.0,1650916874762055.0,0
1180,-1.0,-3.0,-16.0,-14.0,-10.0,-2.0,-4.0,-2.0,1650916874784162.0,0
1181,2.0,1.0,-3.0,-2.0,1.0,-3.0,-5.0,-2.0,1650916874784162.0,0
1182,0.0,2.0,6.0,5.0,6.0,1.0,2.0,-2.0,1650916874784162.0,0
1183,3.0,1.0,10.0,3.0,-1.0,-4.0,1.0,1.0,1650916874784162.0,0
1184,0.0,0.0,3.0,0.0,-3.0,1.0,-4.0,-1.0,1650916874798125.0,0
1185,-3.0,-6.0,-3.0,-1.0,3.0,12.0,6.0,1.0,1650916874798125.0,0
1186,1.0,3.0,-3.0,-7.0,5.0,6.0,1.0,2.0,1650916874806135.0,0
1187,-3.0,3.0,11.0,15.0,2.0,2.0,1.0,-1.0,1650916874806135.0,0
1188,-2.0,-11.0,-11.0,-11.0,-7.0,-15.0,-3.0,1.0,1650916874821062.0,0
1189,-2.0,2.0,-3.0,-4.0,-2.0,-5.0,-9.0,-4.0,1650916874821062.0,0
1190,3.0,3.0,-4.0,1.0,4.0,9.0,8.0,4.0,1650916874822060.0,0
1191,2.0,0.0,8.0,1.0,3.0,-1.0,-1.0,1.0,1650916874822060.0,0
1192,-1.0,3.0,10.0,7.0,4.0,0.0,0.0,-1.0,1650916874844001.0,0
1193,-2.0,-4.0,-14.0,-16.0,-14.0,-15.0,-8.0,-3.0,1650916874844001.0,0
1194,-5.0,-5.0,-5.0,2.0,-8.0,-4.0,0.0,-2.0,1650916874844001.0,0
1195,3.0,9.0,15.0,10.0,18.0,23.0,3.0,4.0,1650916874844001.0,0
1196,0.0,-1.0,11.0,14.0,8.0,6.0,2.0,6.0,1650916874857964.0,0
1197,4.0,-1.0,-18.0,-19.0,-9.0,-7.0,-5.0,-13.0,1650916874857964.0,0
1198,-3.0,-5.0,-6.0,-3.0,-11.0,-14.0,-9.0,-5.0,1650916874865945.0,0
1199,0.0,0.0,-1.0,4.0,3.0,-4.0,4.0,1.0,1650916874865945.0,0
1200,-1.0,3.0,7.0,5.0,6.0,9.0,2.0,-1.0,1650916874880903.0,0
1201,2.0,-1.0,-2.0,-8.0,-6.0,-7.0,-5.0,3.0,1650916874880903.0,0
1202,-1.0,-3.0,-1.0,0.0,-7.0,-5.0,2.0,-3.0,1650916874881901.0,0
1203,-4.0,-5.0,-11.0,-6.0,-5.0,0.0,-1.0,-3.0,1650916874881901.0,0
1204,0.0,-2.0,4.0,-2.0,6.0,-9.0,1.0,0.0,1650916874903842.0,0
1205,-2.0,-4.0,-17.0,-2.0,-3.0,6.0,-2.0,0.0,1650916874903842.0,0
1206,-1.0,1.0,8.0,6.0,-3.0,0.0,2.0,1.0,1650916874904839.0,0
1207,-2.0,-1.0,-2.0,1.0,-3.0,-4.0,0.0,-1.0,1650916874904839.0,0
1208,3.0,2.0,-2.0,-5.0,2.0,5.0,-6.0,-2.0,1650916874917804.0,0
1209,-2.0,1.0,8.0,9.0,8.0,5.0,-8.0,1.0,1650916874917804.0,0
1210,3.0,1.0,0.0,2.0,7.0,5.0,19.0,4.0,1650916874925783.0,0
1211,0.0,-3.0,-10.0,-10.0,-3.0,-4.0,-5.0,-4.0,1650916874925783.0,0
1212,-5.0,2.0,8.0,6.0,-4.0,-6.0,1.0,-4.0,1650916874941255.0,0
1213,2.0,0.0,7.0,3.0,-5.0,-5.0,-6.0,2.0,1650916874941255.0,0
1214,-5.0,-5.0,-11.0,2.0,1.0,5.0,-1.0,-3.0,1650916874942248.0,0
1215,0.0,0.0,-6.0,-5.0,0.0,-3.0,2.0,1.0,1650916874942248.0,0
1216,-4.0,0.0,7.0,3.0,-4.0,-5.0,-1.0,-3.0,1650916874963339.0,0
1217,-1.0,1.0,6.0,11.0,2.0,6.0,2.0,1.0,1650916874963339.0,0
1218,-3.0,-1.0,-2.0,-7.0,-3.0,-1.0,1.0,-1.0,1650916874964283.0,0
1219,2.0,0.0,-3.0,7.0,4.0,3.0,1.0,-1.0,1650916874964283.0,0
1220,-2.0,-3.0,-6.0,-11.0,-8.0,2.0,3.0,0.0,1650916874987295.0,0
1221,2.0,5.0,7.0,6.0,9.0,4.0,4.0,4.0,1650916874987295.0,0
1222,0.0,5.0,19.0,17.0,4.0,-6.0,-5.0,-2.0,1650916874987295.0,0
1223,-4.0,-10.0,-22.0,-16.0,-11.0,-6.0,-6.0,-1.0,1650916874987295.0,0
1224,0.0,0.0,6.0,7.0,-6.0,-6.0,1.0,-2.0,1650916875001595.0,0
1225,1.0,2.0,1.0,-1.0,5.0,6.0,7.0,3.0,1650916875001595.0,0
1226,0.0,-4.0,-9.0,-9.0,-3.0,-14.0,-8.0,-2.0,1650916875001595.0,0
1227,0.0,4.0,6.0,1.0,-7.0,1.0,-3.0,1.0,1650916875001595.0,0
1228,0.0,-9.0,-10.0,-2.0,0.0,4.0,-1.0,-3.0,1650916875024440.0,0
1229,-2.0,-3.0,-1.0,2.0,8.0,2.0,5.0,0.0,1650916875024440.0,0
1230,3.0,2.0,-1.0,0.0,9.0,15.0,5.0,6.0,1650916875024440.0,0
1231,1.0,1.0,2.0,1.0,-3.0,-5.0,-6.0,-3.0,1650916875024440.0,0
1232,-2.0,2.0,3.0,5.0,-7.0,-5.0,-7.0,0.0,1650916875047528.0,0
1233,-5.0,-3.0,-9.0,-5.0,-3.0,-2.0,8.0,-2.0,1650916875047528.0,0
1234,2.0,0.0,4.0,2.0,3.0,1.0,-1.0,0.0,1650916875047528.0,0
1235,-4.0,-1.0,5.0,1.0,-5.0,-8.0,-3.0,-1.0,1650916875047528.0,0
1236,2.0,4.0,-5.0,-5.0,-2.0,2.0,-2.0,0.0,1650916875061708.0,0
1237,-3.0,3.0,9.0,5.0,-5.0,0.0,-4.0,-5.0,1650916875061708.0,0
1238,1.0,-1.0,6.0,8.0,2.0,1.0,4.0,6.0,1650916875061708.0,0
1239,-1.0,-1.0,-7.0,-2.0,6.0,2.0,-3.0,-4.0,1650916875061708.0,0
1240,-1.0,1.0,-3.0,-5.0,4.0,6.0,1.0,-1.0,1650916875084660.0,0
1241,2.0,2.0,12.0,11.0,-6.0,-11.0,0.0,0.0,1650916875084660.0,0
1242,-2.0,-4.0,-22.0,-14.0,-10.0,-17.0,-13.0,-5.0,1650916875084660.0,0
1243,1.0,-3.0,14.0,8.0,0.0,13.0,2.0,1.0,1650916875084660.0,0
1244,0.0,3.0,-4.0,-2.0,10.0,11.0,8.0,1.0,1650916875107622.0,0
1245,2.0,-2.0,4.0,6.0,4.0,3.0,2.0,2.0,1650916875107622.0,0
1246,1.0,4.0,13.0,12.0,-7.0,-9.0,-7.0,-2.0,1650916875107622.0,0
1247,-1.0,-3.0,-28.0,-25.0,-10.0,-17.0,-4.0,-5.0,1650916875107622.0,0
1248,-7.0,-1.0,5.0,7.0,-1.0,3.0,1.0,-1.0,1650916875121756.0,0
1249,1.0,1.0,-6.0,-9.0,1.0,8.0,5.0,2.0,1650916875121756.0,0
1250,1.0,1.0,1.0,1.0,6.0,9.0,-1.0,-1.0,1650916875121756.0,0
1251,-1.0,0.0,-2.0,-4.0,-10.0,-16.0,-11.0,-2.0,1650916875121756.0,0
1252,1.0,1.0,4.0,-1.0,-7.0,-5.0,8.0,5.0,1650916875144686.0,0
1253,0.0,-3.0,-8.0,1.0,12.0,7.0,2.0,-9.0,1650916875144686.0,0
1254,-5.0,-4.0,-4.0,-2.0,7.0,7.0,-4.0,-2.0,1650916875144686.0,0
1255,1.0,3.0,4.0,1.0,3.0,11.0,9.0,3.0,1650916875144686.0,0
1256,1.0,-1.0,2.0,-2.0,-3.0,-10.0,-12.0,-4.0,1650916875167834.0,0
1257,-5.0,-3.0,-6.0,-6.0,-10.0,-13.0,2.0,2.0,1650916875167834.0,0
1258,2.0,1.0,-3.0,-5.0,1.0,3.0,3.0,-1.0,1650916875167834.0,0
1259,0.0,-3.0,8.0,12.0,7.0,5.0,1.0,2.0,1650916875167834.0,0
1260,-1.0,-3.0,-10.0,-9.0,-5.0,2.0,2.0,1.0,1650916875180871.0,0
1261,-1.0,0.0,2.0,-3.0,-9.0,-5.0,-4.0,-2.0,1650916875180871.0,0
1262,-1.0,3.0,3.0,3.0,-5.0,-12.0,-10.0,-4.0,1650916875181872.0,0
1263,-3.0,-6.0,-7.0,-10.0,13.0,1.0,12.0,2.0,1650916875181872.0,0
1264,1.0,4.0,2.0,9.0,4.0,13.0,1.0,0.0,1650916875204105.0,0
1265,0.0,1.0,2.0,0.0,0.0,14.0,0.0,1.0,1650916875204105.0,0
1266,-2.0,0.0,2.0,1.0,-6.0,-6.0,0.0,1.0,1650916875204105.0,0
1267,-1.0,1.0,3.0,-4.0,-4.0,-6.0,-5.0,-2.0,1650916875204105.0,0
1268,2.0,0.0,-5.0,-4.0,2.0,-6.0,-3.0,-2.0,1650916875226738.0,0
1269,4.0,1.0,3.0,-3.0,-5.0,-7.0,-2.0,0.0,1650916875226738.0,0
1270,-7.0,-3.0,-5.0,-8.0,-5.0,6.0,1.0,-2.0,1650916875226738.0,0
1271,3.0,-3.0,-4.0,2.0,0.0,-2.0,4.0,1.0,1650916875226738.0,0
1272,1.0,0.0,4.0,6.0,7.0,1.0,-4.0,-4.0,1650916875242000.0,0
1273,-2.0,2.0,3.0,0.0,7.0,6.0,4.0,3.0,1650916875242000.0,0
1274,2.0,0.0,0.0,-2.0,6.0,7.0,2.0,-1.0,1650916875242000.0,0
1275,1.0,3.0,8.0,6.0,1.0,-2.0,-5.0,-1.0,1650916875242000.0,0
1276,-1.0,-4.0,-1.0,-5.0,-6.0,0.0,1.0,1.0,1650916875264210.0,0
1277,0.0,-1.0,-3.0,4.0,-6.0,-11.0,-6.0,-1.0,1650916875264210.0,0
1278,-1.0,-3.0,-16.0,-17.0,-5.0,0.0,-4.0,0.0,1650916875264210.0,0
1279,-4.0,-1.0,10.0,10.0,0.0,3.0,2.0,-2.0,1650916875264210.0,0
1280,3.0,1.0,-1.0,5.0,-1.0,-13.0,-14.0,-3.0,1650916875286506.0,0
1281,-3.0,-3.0,-5.0,-3.0,2.0,8.0,15.0,3.0,1650916875286506.0,0
1282,-1.0,0.0,6.0,4.0,5.0,7.0,4.0,3.0,1650916875286506.0,0
1283,2.0,3.0,-4.0,-2.0,-3.0,1.0,-5.0,-1.0,1650916875286506.0,0
1284,0.0,-2.0,0.0,-2.0,-3.0,-6.0,0.0,0.0,1650916875310332.0,0
1285,1.0,-1.0,2.0,-7.0,0.0,-3.0,-3.0,2.0,1650916875310332.0,0
1286,3.0,-1.0,-3.0,1.0,0.0,-5.0,-2.0,-4.0,1650916875310332.0,0
1287,-4.0,0.0,0.0,0.0,4.0,3.0,4.0,2.0,1650916875310332.0,0
1288,1.0,1.0,2.0,3.0,-1.0,6.0,2.0,2.0,1650916875331861.0,0
1289,-1.0,-2.0,-10.0,-11.0,-9.0,-13.0,-7.0,-2.0,1650916875331861.0,0
1290,2.0,0.0,7.0,2.0,-5.0,-1.0,1.0,3.0,1650916875332858.0,0
1291,-2.0,0.0,1.0,1.0,4.0,1.0,0.0,-1.0,1650916875332858.0,0
1292,-3.0,0.0,-5.0,-2.0,13.0,9.0,5.0,1.0,1650916875346999.0,0
1293,3.0,-1.0,6.0,8.0,4.0,4.0,0.0,-2.0,1650916875346999.0,0
1294,0.0,-2.0,-3.0,-1.0,-10.0,-9.0,-3.0,-4.0,1650916875346999.0,0
1295,-5.0,-4.0,-6.0,-7.0,-12.0,-28.0,-7.0,-3.0,1650916875346999.0,0
1296,-1.0,-1.0,-1.0,-1.0,-5.0,10.0,6.0,-2.0,1650916875362275.0,0
1297,1.0,0.0,-4.0,1.0,3.0,14.0,2.0,1.0,1650916875362275.0,0
1298,-2.0,-1.0,1.0,4.0,11.0,6.0,3.0,-1.0,1650916875362275.0,0
1299,1.0,2.0,3.0,5.0,3.0,4.0,-6.0,0.0,1650916875362275.0,0
1300,1.0,0.0,-4.0,-6.0,-2.0,-9.0,0.0,0.0,1650916875384844.0,0
1301,-2.0,0.0,11.0,7.0,-3.0,-7.0,4.0,0.0,1650916875384844.0,0
1302,-1.0,-3.0,-23.0,-19.0,-8.0,-5.0,-8.0,-3.0,1650916875391423.0,0
1303,1.0,0.0,2.0,5.0,0.0,4.0,12.0,1.0,1650916875391423.0,0
1304,-1.0,-1.0,1.0,0.0,1.0,0.0,-6.0,-2.0,1650916875406736.0,0
1305,-2.0,3.0,-3.0,-7.0,-10.0,-9.0,-7.0,-3.0,1650916875406736.0,0
1306,-3.0,-2.0,3.0,5.0,12.0,13.0,0.0,1.0,1650916875406736.0,0
1307,2.0,0.0,1.0,0.0,3.0,10.0,-1.0,1.0,1650916875406736.0,0
1308,0.0,0.0,2.0,0.0,-3.0,-1.0,1.0,2.0,1650916875420868.0,0
1309,-3.0,0.0,-2.0,-1.0,-1.0,-5.0,-2.0,0.0,1650916875420868.0,0
1310,0.0,0.0,-2.0,-1.0,-7.0,-8.0,-6.0,-2.0,1650916875421865.0,0
1311,1.0,-1.0,-8.0,-10.0,1.0,5.0,5.0,-1.0,1650916875421865.0,0
1312,-1.0,-2.0,8.0,7.0,3.0,5.0,1.0,-1.0,1650916875444198.0,0
1313,1.0,3.0,-1.0,-1.0,-1.0,-2.0,-6.0,-3.0,1650916875444198.0,0
1314,0.0,-2.0,-3.0,-5.0,-8.0,-7.0,-4.0,0.0,1650916875444198.0,0
1315,-1.0,-5.0,-2.0,-3.0,-5.0,-1.0,-2.0,-2.0,1650916875444198.0,0
1316,3.0,2.0,-1.0,-2.0,2.0,-2.0,8.0,5.0,1650916875466503.0,0
1317,1.0,-4.0,-11.0,-8.0,-2.0,-2.0,-7.0,-1.0,1650916875466503.0,0
1318,-3.0,2.0,5.0,3.0,4.0,13.0,4.0,1.0,1650916875467469.0,0
1319,1.0,1.0,3.0,4.0,2.0,5.0,1.0,1.0,1650916875467469.0,0
1320,3.0,1.0,0.0,-2.0,2.0,1.0,-2.0,1.0,1650916875481656.0,0
1321,-4.0,-2.0,2.0,5.0,6.0,3.0,4.0,1.0,1650916875481656.0,0
1322,3.0,2.0,7.0,1.0,-4.0,-8.0,-2.0,0.0,1650916875481656.0,0
1323,0.0,-1.0,-9.0,-7.0,-9.0,-5.0,-7.0,-2.0,1650916875481656.0,0
1324,-6.0,-1.0,0.0,1.0,-1.0,0.0,-3.0,-4.0,1650916875503805.0,0
1325,-1.0,-2.0,0.0,-6.0,2.0,-2.0,-2.0,-1.0,1650916875503805.0,0
1326,6.0,2.0,-3.0,0.0,4.0,4.0,5.0,3.0,1650916875504641.0,0
1327,0.0,1.0,4.0,4.0,-2.0,1.0,2.0,1.0,1650916875504641.0,0
1328,1.0,3.0,1.0,0.0,-5.0,-4.0,-1.0,0.0,1650916875527628.0,0
1329,-4.0,-4.0,-11.0,-14.0,-6.0,0.0,-3.0,-3.0,1650916875527628.0,0
1330,-2.0,2.0,3.0,5.0,-1.0,0.0,3.0,-1.0,1650916875527628.0,0
1331,-1.0,-5.0,-2.0,-1.0,0.0,-3.0,-1.0,-1.0,1650916875527628.0,0
1332,1.0,-2.0,3.0,3.0,3.0,5.0,-5.0,-1.0,1650916875541646.0,0
1333,3.0,1.0,0.0,4.0,1.0,4.0,4.0,0.0,1650916875541646.0,0
1334,2.0,-2.0,-3.0,-2.0,-1.0,-4.0,-5.0,0.0,1650916875542505.0,0
1335,-3.0,-6.0,-3.0,-1.0,-2.0,-19.0,0.0,-2.0,1650916875542505.0,0
1336,-2.0,-2.0,-6.0,-4.0,1.0,13.0,5.0,0.0,1650916875564204.0,0
1337,1.0,-1.0,7.0,8.0,6.0,8.0,-4.0,-1.0,1650916875564204.0,0
1338,-1.0,0.0,-4.0,-7.0,-3.0,0.0,3.0,-2.0,1650916875564204.0,0
1339,2.0,4.0,9.0,9.0,-3.0,-5.0,-8.0,1.0,1650916875564204.0,0
1340,-1.0,-6.0,-3.0,-5.0,-3.0,-9.0,-9.0,-3.0,1650916875586695.0,0
1341,2.0,-2.0,-7.0,-2.0,1.0,-2.0,14.0,1.0,1650916875586695.0,0
1342,-4.0,-3.0,2.0,2.0,2.0,5.0,3.0,0.0,1650916875586695.0,0
1343,1.0,2.0,-2.0,1.0,6.0,9.0,1.0,-1.0,1650916875586695.0,0
1344,-2.0,-5.0,-8.0,-12.0,-12.0,-13.0,-5.0,-1.0,1650916875610519.0,0
1345,0.0,2.0,1.0,-1.0,-8.0,-13.0,-5.0,-1.0,1650916875610519.0,0
1346,-2.0,0.0,2.0,1.0,3.0,-1.0,-2.0,-1.0,1650916875610519.0,0
1347,-1.0,0.0,2.0,3.0,7.0,10.0,5.0,1.0,1650916875610519.0,0
1348,0.0,-1.0,1.0,-1.0,-2.0,1.0,3.0,1.0,1650916875624112.0,0
1349,-2.0,-9.0,-6.0,-3.0,-5.0,2.0,-2.0,1.0,1650916875624112.0,0
1350,0.0,-1.0,4.0,5.0,-2.0,-6.0,1.0,0.0,1650916875624112.0,0
1351,1.0,-1.0,-1.0,-3.0,-1.0,2.0,-2.0,1.0,1650916875624112.0,0
1352,1.0,0.0,1.0,0.0,0.0,-16.0,-8.0,-1.0,1650916875646014.0,0
1353,-2.0,1.0,-4.0,-6.0,-3.0,3.0,4.0,0.0,1650916875646014.0,0
1354,1.0,1.0,4.0,4.0,0.0,11.0,1.0,0.0,1650916875647013.0,0
1355,-2.0,-2.0,-1.0,4.0,4.0,0.0,-6.0,-3.0,1650916875647013.0,0
1356,2.0,1.0,0.0,-1.0,-3.0,-4.0,3.0,0.0,1650916875662127.0,0
1357,-1.0,0.0,4.0,4.0,-4.0,-11.0,-6.0,-4.0,1650916875662127.0,0
1358,0.0,3.0,2.0,-2.0,0.0,-1.0,1.0,1.0,1650916875662127.0,0
1359,-1.0,-6.0,-6.0,-2.0,-6.0,0.0,-1.0,-2.0,1650916875662127.0,0
1360,-1.0,2.0,-2.0,-5.0,0.0,4.0,-1.0,-2.0,1650916875684146.0,0
1361,0.0,1.0,5.0,7.0,9.0,4.0,-1.0,-1.0,1650916875684146.0,0
1362,-2.0,0.0,1.0,0.0,9.0,4.0,-2.0,1.0,1650916875684146.0,0
1363,0.0,-1.0,2.0,-1.0,-8.0,-4.0,6.0,3.0,1650916875684146.0,0
1364,-1.0,-1.0,-3.0,-1.0,-11.0,-9.0,0.0,-1.0,1650916875706901.0,0
1365,-2.0,-4.0,-3.0,0.0,3.0,8.0,0.0,0.0,1650916875706901.0,0
1366,1.0,-3.0,-2.0,-1.0,4.0,1.0,3.0,-1.0,1650916875706901.0,0
1367,0.0,1.0,-1.0,-4.0,-3.0,-5.0,-9.0,-3.0,1650916875706901.0,0
1368,-1.0,-1.0,-1.0,2.0,-2.0,-4.0,-1.0,-1.0,1650916875721103.0,0
1369,-1.0,1.0,1.0,-1.0,-2.0,-2.0,4.0,1.0,1650916875721103.0,0
1370,0.0,1.0,-5.0,-5.0,-8.0,-1.0,-1.0,-1.0,1650916875728725.0,0
1371,-1.0,-2.0,3.0,5.0,4.0,5.0,0.0,-2.0,1650916875728725.0,0
1372,0.0,-1.0,3.0,1.0,4.0,4.0,-1.0,0.0,1650916875743884.0,0
1373,-1.0,4.0,-1.0,-2.0,-3.0,-2.0,-7.0,-1.0,1650916875743884.0,0
1374,-2.0,-5.0,-3.0,-4.0,-4.0,-4.0,2.0,1.0,1650916875744721.0,0
1375,0.0,0.0,1.0,-2.0,0.0,6.0,1.0,0.0,1650916875744721.0,0
1376,1.0,0.0,-2.0,4.0,8.0,8.0,1.0,-1.0,1650916875766637.0,0
1377,-1.0,2.0,0.0,2.0,3.0,-3.0,-7.0,-3.0,1650916875766637.0,0
1378,0.0,-2.0,-5.0,-7.0,-11.0,-8.0,7.0,-2.0,1650916875766637.0,0
1379,1.0,0.0,-1.0,-3.0,-9.0,-9.0,-2.0,-3.0,1650916875766637.0,0
1380,-2.0,0.0,3.0,5.0,9.0,7.0,-1.0,-1.0,1650916875780789.0,0
1381,1.0,0.0,-2.0,-1.0,4.0,8.0,3.0,2.0,1650916875780789.0,0
1382,1.0,0.0,0.0,1.0,-3.0,-6.0,-3.0,-1.0,1650916875781789.0,0
1383,-2.0,1.0,-2.0,-2.0,1.0,0.0,-2.0,0.0,1650916875781789.0,0
1384,0.0,-1.0,-3.0,-1.0,-3.0,-2.0,1.0,0.0,1650916875804083.0,0
1385,-2.0,-1.0,-1.0,-5.0,-6.0,-9.0,-5.0,-2.0,1650916875804083.0,0
1386,0.0,0.0,-3.0,-1.0,-4.0,-6.0,0.0,-1.0,1650916875804083.0,0
1387,-2.0,1.0,4.0,6.0,9.0,16.0,5.0,1.0,1650916875804083.0,0
1388,-2.0,-1.0,-3.0,-6.0,1.0,10.0,0.0,0.0,1650916875826850.0,0
1389,2.0,-1.0,1.0,1.0,-2.0,-4.0,-3.0,-1.0,1650916875826850.0,0
1390,0.0,-2.0,1.0,-1.0,-1.0,-6.0,-5.0,-1.0,1650916875826850.0,0
1391,2.0,0.0,-3.0,-4.0,-5.0,-14.0,-3.0,-2.0,1650916875826850.0,0
1392,4.0,-2.0,2.0,2.0,4.0,11.0,2.0,1.0,1650916875841006.0,0
1393,-8.0,-4.0,0.0,-1.0,0.0,5.0,1.0,-5.0,1650916875841006.0,0
1394,-1.0,4.0,1.0,0.0,-3.0,-1.0,-1.0,-5.0,1650916875849234.0,0
1395,-2.0,0.0,-3.0,-4.0,-2.0,-4.0,-1.0,1.0,1650916875849234.0,0
1396,2.0,-3.0,0.0,-1.0,-1.0,-4.0,-2.0,3.0,1650916875864188.0,0
1397,3.0,2.0,-1.0,0.0,-2.0,-8.0,2.0,3.0,1650916875864188.0,0
1398,-2.0,2.0,1.0,5.0,9.0,8.0,1.0,-1.0,1650916875864188.0,0
1399,1.0,-1.0,-1.0,0.0,6.0,13.0,3.0,1.0,1650916875864188.0,0
1400,-3.0,-3.0,-1.0,-2.0,-5.0,-6.0,2.0,1.0,1650916875887702.0,0
1401,-3.0,-4.0,-1.0,-2.0,-5.0,-5.0,-4.0,-2.0,1650916875887702.0,0
1402,-2.0,-4.0,-2.0,-5.0,-6.0,-7.0,-3.0,0.0,1650916875887852.0,0
1403,-1.0,2.0,-1.0,0.0,-4.0,-8.0,2.0,-4.0,1650916875887852.0,0
1404,2.0,2.0,0.0,3.0,4.0,11.0,-1.0,-9.0,1650916875900900.0,0
1405,3.0,0.0,7.0,5.0,11.0,8.0,-5.0,-6.0,1650916875900900.0,0
1406,-8.0,-2.0,2.0,5.0,0.0,-3.0,-10.0,-10.0,1650916875909232.0,0
1407,0.0,0.0,-8.0,-15.0,-14.0,-25.0,-2.0,5.0,1650916875909232.0,0
1408,-1.0,2.0,-2.0,-2.0,-1.0,10.0,4.0,8.0,1650916875923961.0,0
1409,2.0,-5.0,0.0,1.0,1.0,8.0,8.0,13.0,1650916875923961.0,0
1410,7.0,16.0,2.0,1.0,2.0,-1.0,3.0,-6.0,1650916875924757.0,0
1411,-3.0,-1.0,0.0,-1.0,-1.0,-2.0,-6.0,-5.0,1650916875924757.0,0
1412,-7.0,-23.0,-2.0,1.0,-6.0,-11.0,-2.0,-3.0,1650916875946144.0,0
1413,1.0,2.0,2.0,2.0,10.0,8.0,4.0,0.0,1650916875946144.0,0
1414,0.0,-3.0,-3.0,-3.0,3.0,5.0,1.0,8.0,1650916875946979.0,0
1415,6.0,13.0,0.0,0.0,-7.0,-7.0,-3.0,0.0,1650916875946979.0,0
1416,6.0,7.0,6.0,4.0,-5.0,-2.0,-1.0,2.0,1650916875961129.0,0
1417,-5.0,3.0,2.0,4.0,-2.0,4.0,5.0,3.0,1650916875961129.0,0
1418,0.0,-15.0,1.0,5.0,9.0,8.0,4.0,1.0,1650916875969894.0,0
1419,7.0,23.0,-2.0,-13.0,1.0,4.0,-3.0,9.0,1650916875969894.0,0
1420,-7.0,-19.0,-6.0,-10.0,-8.0,-17.0,-15.0,-28.0,1650916875984767.0,0
1421,1.0,11.0,4.0,11.0,-7.0,-9.0,-10.0,-22.0,1650916875984767.0,0
1422,-16.0,-8.0,5.0,8.0,1.0,5.0,-1.0,1.0,1650916875984767.0,0
1423,-2.0,-21.0,-4.0,-10.0,1.0,6.0,7.0,6.0,1650916875984767.0,0
1424,5.0,16.0,-1.0,2.0,-4.0,-7.0,-5.0,18.0,1650916876006739.0,0
1425,9.0,-22.0,-8.0,-8.0,-8.0,-10.0,8.0,-2.0,1650916876006739.0,0
1426,15.0,28.0,4.0,3.0,6.0,-7.0,2.0,-7.0,1650916876006739.0,0
1427,-17.0,-24.0,0.0,13.0,14.0,31.0,1.0,-3.0,1650916876006739.0,0
1428,-8.0,30.0,1.0,-4.0,0.0,-4.0,-8.0,-14.0,1650916876020998.0,0
1429,-3.0,-15.0,-5.0,-7.0,4.0,6.0,2.0,6.0,1650916876020998.0,0
1430,15.0,-3.0,-2.0,-4.0,-10.0,-13.0,-7.0,-6.0,1650916876029331.0,0
1431,-17.0,-17.0,2.0,2.0,4.0,-1.0,-3.0,-13.0,1650916876029331.0,0
1432,-20.0,-48.0,-6.0,0.0,-2.0,1.0,2.0,-7.0,1650916876044651.0,0
1433,9.0,11.0,-3.0,-10.0,-9.0,-14.0,-11.0,12.0,1650916876044651.0,0
1434,-6.0,5.0,-10.0,-12.0,-9.0,-7.0,2.0,9.0,1650916876044651.0,0
1435,6.0,32.0,11.0,17.0,13.0,7.0,2.0,-13.0,1650916876044651.0,0
1436,24.0,-11.0,-8.0,-12.0,-5.0,0.0,9.0,28.0,1650916876066613.0,0
1437,-3.0,37.0,10.0,4.0,1.0,1.0,1.0,10.0,1650916876066613.0,0
1438,-2.0,29.0,-14.0,-5.0,-4.0,1.0,3.0,6.0,1650916876066613.0,0
1439,-9.0,-75.0,-3.0,-16.0,-13.0,-7.0,-5.0,-3.0,1650916876066613.0,0
1440,-22.0,-35.0,2.0,6.0,10.0,9.0,12.0,8.0,1650916876080926.0,0
1441,-4.0,40.0,-10.0,-13.0,-24.0,-19.0,-11.0,-1.0,1650916876080926.0,0
1442,1.0,60.0,17.0,24.0,17.0,8.0,1.0,3.0,1650916876089160.0,0
1443,8.0,-1.0,-30.0,-27.0,-6.0,6.0,17.0,26.0,1650916876089160.0,3
1444,30.0,30.0,1.0,3.0,1.0,-11.0,-2.0,-30.0,1650916876103649.0,3
1445,-34.0,-81.0,9.0,15.0,-12.0,-8.0,-19.0,-4.0,1650916876103649.0,3
1446,0.0,24.0,-21.0,0.0,-3.0,2.0,2.0,3.0,1650916876104511.0,3
1447,13.0,74.0,1.0,11.0,28.0,10.0,4.0,1.0,1650916876104511.0,3
1448,50.0,67.0,19.0,-10.0,6.0,14.0,19.0,33.0,1650916876126511.0,3
1449,10.0,19.0,0.0,-5.0,-6.0,3.0,10.0,-17.0,1650916876126511.0,3
1450,-58.0,-65.0,-21.0,-6.0,-8.0,-10.0,-14.0,-29.0,1650916876127379.0,3
1451,1.0,-37.0,-14.0,3.0,-9.0,-3.0,4.0,4.0,1650916876127379.0,3
1452,12.0,59.0,9.0,4.0,3.0,1.0,17.0,52.0,1650916876141617.0,3
1453,3.0,-28.0,-15.0,-3.0,2.0,-4.0,-5.0,-24.0,1650916876141617.0,3
1454,14.0,-29.0,9.0,-7.0,-1.0,6.0,1.0,-12.0,1650916876148571.0,3
1455,8.0,18.0,-1.0,0.0,-9.0,-14.0,-32.0,-60.0,1650916876148571.0,3
1456,-24.0,18.0,-15.0,-1.0,-19.0,-16.0,-16.0,3.0,1650916876163696.0,3
1457,41.0,30.0,40.0,27.0,29.0,24.0,32.0,40.0,1650916876163696.0,3
1458,-50.0,-64.0,-15.0,-28.0,-21.0,-19.0,-31.0,-45.0,1650916876164530.0,3
1459,16.0,30.0,15.0,10.0,-2.0,-1.0,21.0,42.0,1650916876164530.0,3
1460,-10.0,-66.0,-22.0,-9.0,10.0,9.0,10.0,7.0,1650916876186028.0,3
1461,-45.0,14.0,-4.0,4.0,10.0,0.0,-31.0,-44.0,1650916876186028.0,3
1462,42.0,37.0,17.0,-3.0,3.0,16.0,11.0,30.0,1650916876186868.0,3
1463,-10.0,-25.0,-13.0,10.0,1.0,1.0,-9.0,-11.0,1650916876186868.0,3
1464,-22.0,-9.0,20.0,12.0,-11.0,-13.0,-10.0,-41.0,1650916876209994.0,3
1465,48.0,32.0,-6.0,-7.0,2.0,5.0,19.0,25.0,1650916876209994.0,3
1466,4.0,49.0,19.0,7.0,15.0,3.0,5.0,0.0,1650916876209994.0,3
1467,-20.0,-83.0,-7.0,2.0,-19.0,-22.0,1.0,72.0,1650916876209994.0,3
1468,-15.0,16.0,1.0,17.0,-17.0,-9.0,-5.0,-8.0,1650916876224286.0,3
1469,12.0,36.0,-24.0,-24.0,20.0,9.0,-4.0,-69.0,1650916876224286.0,3
1470,-3.0,-82.0,-33.0,-48.0,-35.0,-11.0,-13.0,15.0,1650916876224286.0,3
1471,-23.0,2.0,12.0,17.0,20.0,7.0,-1.0,-12.0,1650916876224286.0,3
1472,53.0,18.0,-4.0,2.0,16.0,9.0,-6.0,37.0,1650916876246562.0,3
1473,-15.0,4.0,-2.0,-4.0,-9.0,-3.0,-4.0,-38.0,1650916876246562.0,3
1474,-21.0,67.0,14.0,20.0,-15.0,-18.0,-19.0,-23.0,1650916876247401.0,3
1475,-6.0,-91.0,-9.0,-7.0,11.0,6.0,8.0,-10.0,1650916876247401.0,3
1476,0.0,27.0,21.0,7.0,-3.0,6.0,12.0,26.0,1650916876269328.0,3
1477,28.0,-28.0,-5.0,14.0,20.0,-7.0,-10.0,28.0,1650916876269328.0,3
1478,19.0,25.0,9.0,6.0,-9.0,3.0,21.0,27.0,1650916876270329.0,3
1479,15.0,-7.0,4.0,-8.0,26.0,23.0,4.0,-17.0,1650916876270329.0,3
1480,-15.0,32.0,0.0,-13.0,-5.0,6.0,-11.0,-38.0,1650916876284479.0,3
1481,-38.0,-33.0,36.0,43.0,-6.0,-17.0,1.0,1.0,1650916876284479.0,3
1482,14.0,-40.0,-25.0,-33.0,-10.0,0.0,-15.0,25.0,1650916876284479.0,3
1483,7.0,85.0,13.0,15.0,-6.0,-13.0,-4.0,-13.0,1650916876284479.0,3
1484,13.0,-3.0,-14.0,-24.0,11.0,2.0,1.0,23.0,1650916876306848.0,3
1485,17.0,-22.0,-21.0,-58.0,-16.0,13.0,9.0,42.0,1650916876306848.0,3
1486,0.0,14.0,8.0,17.0,5.0,2.0,24.0,-3.0,1650916876306848.0,3
1487,20.0,67.0,33.0,27.0,-29.0,-20.0,-24.0,-19.0,1650916876306848.0,3
1488,16.0,-87.0,-16.0,-1.0,23.0,24.0,17.0,1.0,1650916876330405.0,3
1489,-48.0,52.0,17.0,58.0,-23.0,-38.0,-26.0,-20.0,1650916876330405.0,3
1490,10.0,-15.0,6.0,-5.0,41.0,27.0,26.0,44.0,1650916876330405.0,3
1491,-23.0,-9.0,-16.0,-58.0,-23.0,8.0,12.0,-38.0,1650916876330405.0,3
1492,-3.0,4.0,2.0,-2.0,-6.0,-14.0,-10.0,-28.0,1650916876344455.0,3
1493,17.0,-12.0,-8.0,-21.0,-17.0,3.0,8.0,24.0,1650916876344455.0,3
1494,-1.0,22.0,24.0,42.0,-4.0,-14.0,-18.0,-33.0,1650916876344455.0,3
1495,-43.0,-21.0,-24.0,1.0,-11.0,-15.0,-12.0,-12.0,1650916876344455.0,3
1496,15.0,-18.0,-9.0,-8.0,13.0,0.0,0.0,7.0,1650916876366395.0,3
1497,-1.0,-5.0,15.0,6.0,-18.0,1.0,2.0,-4.0,1650916876366395.0,3
1498,-4.0,-1.0,-14.0,-6.0,37.0,21.0,11.0,10.0,1650916876367265.0,3
1499,41.0,48.0,22.0,10.0,21.0,24.0,23.0,75.0,1650916876367265.0,3
1500,-8.0,-13.0,-9.0,23.0,-1.0,-12.0,-14.0,-88.0,1650916876391668.0,3
1501,-33.0,-9.0,-16.0,-17.0,-15.0,-14.0,-9.0,30.0,1650916876391668.0,3
1502,-2.0,-32.0,10.0,-1.0,8.0,3.0,6.0,-51.0,1650916876391668.0,3
1503,8.0,24.0,4.0,1.0,10.0,3.0,-6.0,39.0,1650916876391668.0,3
1504,-27.0,15.0,24.0,-7.0,-20.0,2.0,-3.0,15.0,1650916876404629.0,3
1505,-26.0,-51.0,3.0,20.0,10.0,3.0,-16.0,-38.0,1650916876404629.0,3
1506,35.0,-35.0,1.0,-18.0,4.0,2.0,11.0,4.0,1650916876404629.0,3
1507,1.0,4.0,-13.0,1.0,13.0,1.0,-1.0,-21.0,1650916876404629.0,3
1508,-16.0,46.0,17.0,10.0,5.0,13.0,23.0,8.0,1650916876426777.0,3
1509,7.0,-45.0,-12.0,-6.0,-1.0,-7.0,-21.0,6.0,1650916876426777.0,3
1510,-1.0,-23.0,-11.0,-18.0,0.0,8.0,17.0,75.0,1650916876426777.0,3
1511,12.0,-26.0,15.0,47.0,1.0,-15.0,-18.0,-38.0,1650916876426777.0,3
1512,25.0,9.0,-2.0,-37.0,-8.0,5.0,-6.0,-11.0,1650916876450922.0,3
1513,16.0,69.0,-10.0,0.0,23.0,8.0,22.0,23.0,1650916876450922.0,3
1514,-11.0,28.0,7.0,35.0,0.0,-1.0,3.0,18.0,1650916876450922.0,3
1515,18.0,-10.0,-29.0,-53.0,-2.0,6.0,-14.0,-14.0,1650916876450922.0,3
1516,-76.0,-48.0,-3.0,17.0,-44.0,-25.0,-17.0,-24.0,1650916876464156.0,3
1517,30.0,-30.0,4.0,-3.0,21.0,14.0,14.0,-12.0,1650916876464156.0,3
1518,-24.0,-12.0,-8.0,23.0,12.0,-18.0,-23.0,-17.0,1650916876464156.0,3
1519,-8.0,10.0,-10.0,-10.0,5.0,25.0,21.0,18.0,1650916876464156.0,3
1520,-5.0,7.0,38.0,23.0,25.0,8.0,1.0,-4.0,1650916876486277.0,3
1521,26.0,28.0,2.0,-27.0,-2.0,6.0,3.0,6.0,1650916876486277.0,3
1522,7.0,-1.0,11.0,49.0,-22.0,-20.0,-10.0,-21.0,1650916876487112.0,3
1523,-1.0,11.0,-14.0,-51.0,-19.0,-13.0,-14.0,-12.0,1650916876487112.0,3
1524,-10.0,-63.0,-26.0,6.0,3.0,0.0,24.0,38.0,1650916876510180.0,3
1525,-17.0,5.0,9.0,0.0,-5.0,2.0,2.0,22.0,1650916876510180.0,3
1526,13.0,34.0,3.0,5.0,0.0,-1.0,-9.0,-5.0,1650916876510180.0,3
1527,-17.0,36.0,3.0,28.0,14.0,-2.0,-4.0,-13.0,1650916876510180.0,3
1528,-6.0,-1.0,-13.0,-4.0,-36.0,-30.0,-30.0,-16.0,1650916876524313.0,3
1529,62.0,8.0,-7.0,5.0,3.0,6.0,5.0,22.0,1650916876524313.0,3
1530,25.0,-14.0,-21.0,-56.0,13.0,13.0,9.0,8.0,1650916876524313.0,3
1531,-42.0,-29.0,-6.0,-37.0,-23.0,5.0,-5.0,-31.0,1650916876524313.0,3
1532,69.0,41.0,18.0,15.0,12.0,-2.0,4.0,53.0,1650916876546663.0,3
1533,-36.0,-18.0,-29.0,-25.0,-20.0,-3.0,-1.0,-9.0,1650916876546663.0,3
1534,-19.0,22.0,-11.0,0.0,-15.0,5.0,-13.0,-30.0,1650916876546663.0,3
1535,10.0,24.0,47.0,59.0,21.0,14.0,17.0,41.0,1650916876546663.0,3
1536,-21.0,0.0,-29.0,-24.0,9.0,1.0,-12.0,-16.0,1650916876569286.0,3
1537,20.0,47.0,16.0,5.0,-23.0,-21.0,6.0,9.0,1650916876569286.0,3
1538,-13.0,-32.0,-6.0,-21.0,19.0,9.0,8.0,-11.0,1650916876570131.0,3
1539,7.0,-51.0,-4.0,29.0,-29.0,-26.0,0.0,-7.0,1650916876570131.0,3
1540,16.0,27.0,-2.0,-6.0,-18.0,4.0,-5.0,19.0,1650916876584329.0,3
1541,-13.0,31.0,1.0,-19.0,-2.0,3.0,9.0,-19.0,1650916876584329.0,3
1542,-32.0,-31.0,-7.0,-5.0,-21.0,-9.0,-9.0,6.0,1650916876584329.0,3
1543,15.0,-12.0,-2.0,-11.0,3.0,0.0,-7.0,-3.0,1650916876584329.0,3
1544,3.0,-38.0,-14.0,31.0,13.0,-15.0,-10.0,-6.0,1650916876606676.0,3
1545,-14.0,15.0,28.0,5.0,0.0,3.0,-24.0,-16.0,1650916876606676.0,3
1546,6.0,47.0,19.0,19.0,-10.0,13.0,40.0,39.0,1650916876606676.0,3
1547,35.0,27.0,16.0,7.0,15.0,-12.0,-9.0,-15.0,1650916876606676.0,3
1548,-28.0,15.0,-27.0,-51.0,-30.0,10.0,2.0,0.0,1650916876630209.0,3
1549,-3.0,-63.0,-21.0,25.0,61.0,26.0,9.0,-2.0,1650916876630209.0,3
1550,34.0,41.0,42.0,1.0,-3.0,-16.0,-35.0,-27.0,1650916876630209.0,3
1551,-4.0,-32.0,-54.0,-13.0,-19.0,-30.0,7.0,21.0,1650916876630209.0,3
1552,-57.0,-56.0,3.0,5.0,12.0,5.0,-9.0,-31.0,1650916876643894.0,3
1553,1.0,-39.0,-20.0,-16.0,2.0,12.0,9.0,5.0,1650916876643894.0,3
1554,-20.0,-17.0,-17.0,16.0,-18.0,5.0,-14.0,-34.0,1650916876644740.0,3
1555,32.0,10.0,-20.0,-17.0,43.0,31.0,19.0,17.0,1650916876644740.0,3
1556,3.0,5.0,19.0,4.0,2.0,-12.0,4.0,2.0,1650916876666681.0,3
1557,-22.0,18.0,27.0,3.0,-1.0,-18.0,-16.0,-18.0,1650916876666681.0,3
1558,18.0,-7.0,-25.0,-26.0,-10.0,-8.0,3.0,32.0,1650916876666681.0,3
1559,-23.0,4.0,31.0,23.0,-24.0,-8.0,-11.0,-34.0,1650916876666681.0,3
1560,17.0,-44.0,-36.0,-9.0,34.0,12.0,-6.0,14.0,1650916876690133.0,3
1561,10.0,6.0,2.0,-21.0,-39.0,-4.0,14.0,9.0,1650916876690133.0,3
1562,-22.0,26.0,7.0,7.0,30.0,-6.0,-1.0,-32.0,1650916876690133.0,3
1563,-10.0,35.0,24.0,-11.0,-43.0,-24.0,-40.0,-11.0,1650916876690133.0,3
1564,-7.0,35.0,-13.0,-11.0,33.0,26.0,34.0,34.0,1650916876704291.0,3
1565,25.0,-4.0,-6.0,3.0,1.0,-12.0,-9.0,-1.0,1650916876704291.0,3
1566,16.0,-30.0,-13.0,-7.0,-1.0,12.0,25.0,39.0,1650916876704291.0,3
1567,-27.0,32.0,2.0,12.0,-38.0,-5.0,11.0,14.0,1650916876704291.0,3
1568,18.0,-42.0,14.0,0.0,-13.0,-23.0,-22.0,-22.0,1650916876726307.0,3
1569,-7.0,15.0,1.0,4.0,-7.0,7.0,-3.0,14.0,1650916876726307.0,3
1570,-10.0,-23.0,-8.0,8.0,22.0,6.0,-2.0,-9.0,1650916876727338.0,3
1571,-14.0,-19.0,24.0,12.0,10.0,-3.0,-17.0,-23.0,1650916876727338.0,3
1572,35.0,97.0,12.0,-12.0,-23.0,-4.0,7.0,16.0,1650916876749712.0,3
1573,-28.0,-19.0,-14.0,12.0,8.0,-16.0,4.0,2.0,1650916876749712.0,3
1574,4.0,20.0,21.0,3.0,-35.0,-1.0,-8.0,-23.0,1650916876750567.0,3
1575,32.0,-63.0,-9.0,14.0,47.0,24.0,13.0,21.0,1650916876750567.0,3
1576,29.0,26.0,-12.0,-18.0,26.0,15.0,13.0,7.0,1650916876763859.0,3
1577,-50.0,-22.0,-7.0,-4.0,-48.0,-24.0,-22.0,-52.0,1650916876763859.0,3
1578,-13.0,10.0,-3.0,7.0,31.0,16.0,9.0,8.0,1650916876770869.0,3
1579,-36.0,43.0,13.0,10.0,43.0,17.0,4.0,-7.0,1650916876770869.0,3
1580,18.0,-17.0,-6.0,12.0,-39.0,-24.0,-25.0,2.0,1650916876786059.0,3
1581,4.0,-16.0,-1.0,9.0,12.0,9.0,15.0,28.0,1650916876786059.0,3
1582,-29.0,-71.0,5.0,-9.0,-6.0,-7.0,-8.0,-38.0,1650916876786895.0,3
1583,24.0,47.0,5.0,1.0,-33.0,-31.0,-20.0,12.0,1650916876786895.0,3
1584,-27.0,-57.0,0.0,1.0,58.0,29.0,3.0,-29.0,1650916876810143.0,3
1585,4.0,-21.0,15.0,19.0,14.0,7.0,7.0,36.0,1650916876810143.0,3
1586,2.0,15.0,-12.0,-24.0,-25.0,-16.0,-17.0,-47.0,1650916876810143.0,3
1587,-13.0,-3.0,3.0,-18.0,-21.0,4.0,16.0,11.0,1650916876810143.0,3
1588,-11.0,37.0,33.0,62.0,-1.0,-19.0,-7.0,-19.0,1650916876823095.0,3
1589,34.0,24.0,-14.0,-17.0,22.0,28.0,20.0,22.0,1650916876823095.0,3
1590,20.0,-20.0,-9.0,-27.0,-15.0,-8.0,-8.0,25.0,1650916876831106.0,3
1591,-22.0,-6.0,8.0,-23.0,-17.0,-13.0,-2.0,-20.0,1650916876831106.0,3
1592,25.0,2.0,-16.0,16.0,-8.0,14.0,14.0,-2.0,1650916876846562.0,3
1593,-60.0,32.0,-1.0,16.0,19.0,1.0,-28.0,-30.0,1650916876846562.0,3
1594,-1.0,1.0,2.0,14.0,0.0,-5.0,14.0,23.0,1650916876846562.0,3
1595,-23.0,-13.0,-11.0,3.0,-32.0,-21.0,-5.0,-5.0,1650916876846562.0,3
1596,19.0,82.0,34.0,29.0,37.0,12.0,-19.0,-16.0,1650916876869985.0,3
1597,23.0,-26.0,12.0,-13.0,-8.0,6.0,10.0,-20.0,1650916876869985.0,3
1598,1.0,13.0,-26.0,-22.0,10.0,12.0,22.0,50.0,1650916876869985.0,3
1599,2.0,-49.0,-39.0,-14.0,-7.0,-9.0,-28.0,-42.0,1650916876869985.0,3
1600,-32.0,53.0,15.0,-2.0,-15.0,-13.0,15.0,-27.0,1650916876883296.0,3
1601,18.0,-14.0,-16.0,-30.0,-20.0,19.0,22.0,37.0,1650916876883296.0,3
1602,25.0,37.0,26.0,16.0,10.0,5.0,-10.0,-5.0,1650916876891290.0,3
1603,-4.0,5.0,-7.0,10.0,46.0,13.0,15.0,26.0,1650916876891290.0,3
1604,-30.0,-63.0,15.0,37.0,24.0,6.0,-8.0,-16.0,1650916876906805.0,3
1605,31.0,59.0,14.0,4.0,20.0,11.0,13.0,6.0,1650916876906805.0,3
1606,0.0,-32.0,-23.0,-45.0,-46.0,-14.0,-2.0,3.0,1650916876906805.0,3
1607,-1.0,1.0,-7.0,24.0,-17.0,-20.0,9.0,15.0,1650916876906805.0,3
1608,-33.0,-83.0,-25.0,-57.0,-28.0,-3.0,-15.0,-7.0,1650916876929924.0,3
1609,-12.0,5.0,-15.0,14.0,20.0,-1.0,-18.0,3.0,1650916876929924.0,3
1610,39.0,-1.0,12.0,19.0,-7.0,3.0,11.0,17.0,1650916876929924.0,3
1611,-18.0,34.0,-2.0,-9.0,-22.0,-13.0,-35.0,-77.0,1650916876929924.0,3
1612,8.0,56.0,13.0,-3.0,20.0,2.0,22.0,38.0,1650916876943106.0,3
1613,20.0,23.0,3.0,-4.0,-6.0,-11.0,-5.0,-6.0,1650916876943106.0,3
1614,-27.0,-92.0,-35.0,-18.0,-12.0,-12.0,-17.0,-11.0,1650916876951278.0,3
1615,-27.0,42.0,31.0,29.0,12.0,7.0,13.0,7.0,1650916876951278.0,3
1616,71.0,21.0,-30.0,-43.0,-27.0,2.0,18.0,25.0,1650916876966753.0,3
1617,-17.0,-75.0,10.0,13.0,24.0,20.0,-1.0,17.0,1650916876966753.0,3
1618,-63.0,-78.0,-25.0,37.0,8.0,-15.0,-6.0,-1.0,1650916876966753.0,3
1619,37.0,27.0,25.0,-25.0,6.0,27.0,21.0,4.0,1650916876966753.0,3
1620,19.0,-16.0,9.0,3.0,-3.0,2.0,-4.0,-7.0,1650916876989737.0,3
1621,-25.0,78.0,19.0,26.0,34.0,-15.0,-1.0,-7.0,1650916876989737.0,3
1622,64.0,66.0,46.0,-7.0,-23.0,31.0,19.0,24.0,1650916876989737.0,3
1623,-27.0,-92.0,-24.0,-3.0,23.0,17.0,10.0,41.0,1650916876989737.0,3
1624,-67.0,1.0,9.0,1.0,10.0,9.0,-9.0,-32.0,1650916877003055.0,3
1625,12.0,-79.0,-43.0,-21.0,-40.0,-38.0,-16.0,-9.0,1650916877003055.0,3
1626,-30.0,14.0,-5.0,6.0,15.0,-16.0,-17.0,-23.0,1650916877011225.0,3
1627,72.0,127.0,-12.0,-17.0,6.0,10.0,-13.0,-60.0,1650916877011225.0,3
1628,9.0,43.0,31.0,41.0,19.0,14.0,21.0,31.0,1650916877026554.0,3
1629,-37.0,-107.0,-31.0,-28.0,-36.0,-10.0,29.0,41.0,1650916877026554.0,3
1630,25.0,127.0,6.0,11.0,22.0,1.0,-5.0,-9.0,1650916877027425.0,3
1631,27.0,-126.0,34.0,58.0,22.0,-4.0,2.0,23.0,1650916877027425.0,3
1632,-5.0,16.0,-89.0,-58.0,-28.0,0.0,-1.0,-8.0,1650916877049492.0,3
1633,-12.0,42.0,63.0,1.0,-10.0,3.0,-9.0,-8.0,1650916877049492.0,3
1634,17.0,-58.0,-17.0,-17.0,-34.0,-10.0,-6.0,-21.0,1650916877050522.0,3
1635,-12.0,8.0,-34.0,-19.0,72.0,20.0,17.0,36.0,1650916877050522.0,3
1636,-17.0,-18.0,-13.0,4.0,-47.0,-35.0,-15.0,-36.0,1650916877063841.0,3
1637,-9.0,31.0,-10.0,-32.0,5.0,19.0,8.0,11.0,1650916877063841.0,3
1638,-6.0,11.0,27.0,2.0,-11.0,-3.0,-15.0,-57.0,1650916877072020.0,3
1639,-35.0,4.0,7.0,16.0,-24.0,-1.0,-6.0,-15.0,1650916877072020.0,3
1640,11.0,-25.0,23.0,13.0,39.0,-4.0,-10.0,11.0,1650916877087284.0,3
1641,9.0,11.0,-50.0,-31.0,-13.0,-17.0,6.0,12.0,1650916877087284.0,3
1642,24.0,63.0,26.0,20.0,35.0,3.0,-21.0,-18.0,1650916877087284.0,3
1643,-28.0,-71.0,-53.0,-45.0,-9.0,12.0,16.0,38.0,1650916877087284.0,3
1644,18.0,27.0,40.0,33.0,-37.0,-20.0,-9.0,8.0,1650916877110581.0,3
1645,21.0,16.0,1.0,-8.0,59.0,24.0,11.0,-17.0,1650916877110581.0,3
1646,29.0,104.0,8.0,-14.0,1.0,-7.0,27.0,61.0,1650916877110581.0,3
1647,36.0,-22.0,0.0,24.0,-25.0,-20.0,-11.0,30.0,1650916877110581.0,3
1648,-54.0,-39.0,-24.0,-41.0,-22.0,8.0,-10.0,-3.0,1650916877131794.0,3
1649,25.0,88.0,27.0,26.0,7.0,-2.0,-13.0,-25.0,1650916877131794.0,3
1650,-8.0,-69.0,-11.0,0.0,-3.0,9.0,10.0,-22.0,1650916877132792.0,3
1651,-3.0,92.0,20.0,-21.0,11.0,11.0,10.0,35.0,1650916877132792.0,3
1652,-7.0,-27.0,-24.0,0.0,-14.0,-20.0,-17.0,-7.0,1650916877145756.0,3
1653,37.0,-18.0,17.0,65.0,-37.0,-28.0,-18.0,13.0,1650916877145756.0,3
1654,-3.0,13.0,-1.0,-14.0,25.0,14.0,9.0,18.0,1650916877146753.0,3
1655,21.0,19.0,34.0,-4.0,-18.0,-5.0,13.0,2.0,1650916877146753.0,3
1656,12.0,7.0,-40.0,4.0,48.0,30.0,13.0,7.0,1650916877170000.0,3
1657,-58.0,-60.0,8.0,-3.0,-43.0,-6.0,-18.0,-25.0,1650916877170000.0,3
1658,1.0,-15.0,-2.0,6.0,-12.0,-25.0,-3.0,7.0,1650916877170000.0,3
1659,14.0,-39.0,-35.0,-25.0,29.0,27.0,3.0,-19.0,1650916877170000.0,3
1660,-30.0,-15.0,32.0,10.0,-19.0,-13.0,-3.0,-6.0,1650916877192086.0,3
1661,48.0,7.0,-6.0,-6.0,24.0,2.0,-9.0,1.0,1650916877192086.0,3
1662,-14.0,8.0,9.0,6.0,-31.0,-25.0,-18.0,9.0,1650916877192920.0,3
1663,-23.0,-10.0,-8.0,-2.0,5.0,10.0,38.0,22.0,1650916877192920.0,3
1664,9.0,18.0,15.0,-4.0,8.0,-2.0,-12.0,-35.0,1650916877206697.0,3
1665,-10.0,-18.0,-16.0,-7.0,-15.0,-11.0,-30.0,-18.0,1650916877206697.0,3
1666,-32.0,-43.0,-2.0,-4.0,2.0,18.0,15.0,-7.0,1650916877206697.0,3
1667,37.0,26.0,7.0,27.0,7.0,8.0,9.0,1.0,1650916877206697.0,3
1668,-49.0,2.0,1.0,-9.0,15.0,23.0,23.0,32.0,1650916877229829.0,3
1669,4.0,5.0,7.0,13.0,2.0,-4.0,13.0,-17.0,1650916877229829.0,3
1670,-2.0,23.0,-6.0,-1.0,-19.0,-21.0,-27.0,2.0,1650916877229829.0,3
1671,-6.0,-15.0,1.0,4.0,-2.0,-14.0,-21.0,-17.0,1650916877229829.0,3
1672,17.0,-3.0,-1.0,-30.0,-15.0,5.0,13.0,3.0,1650916877252639.0,3
1673,-1.0,17.0,13.0,4.0,10.0,8.0,-8.0,-8.0,1650916877252639.0,3
1674,-24.0,-17.0,-30.0,-15.0,5.0,22.0,9.0,2.0,1650916877252639.0,3
1675,9.0,17.0,-2.0,-8.0,-55.0,-36.0,-15.0,-11.0,1650916877252639.0,3
1676,19.0,-19.0,21.0,-13.0,17.0,7.0,-4.0,4.0,1650916877266782.0,3
1677,-14.0,13.0,3.0,5.0,16.0,16.0,14.0,11.0,1650916877266782.0,3
1678,1.0,-20.0,-12.0,3.0,15.0,19.0,9.0,6.0,1650916877266782.0,3
1679,-4.0,42.0,-6.0,-11.0,-22.0,-16.0,-16.0,-27.0,1650916877266782.0,3
1680,9.0,-51.0,-2.0,13.0,-15.0,-24.0,-14.0,0.0,1650916877289891.0,3
1681,-6.0,14.0,-8.0,-8.0,-18.0,-16.0,-3.0,-9.0,1650916877289891.0,3
1682,9.0,-8.0,1.0,4.0,10.0,7.0,13.0,2.0,1650916877289891.0,3
1683,-36.0,9.0,5.0,-7.0,5.0,4.0,1.0,1.0,1650916877289891.0,3
1684,35.0,28.0,6.0,15.0,6.0,0.0,8.0,14.0,1650916877312503.0,3
1685,-10.0,-6.0,-7.0,-13.0,-4.0,3.0,7.0,1.0,1650916877312503.0,3
1686,8.0,5.0,11.0,10.0,1.0,-3.0,-8.0,4.0,1650916877312503.0,3
1687,-35.0,-18.0,-11.0,3.0,-6.0,-34.0,-25.0,-12.0,1650916877312503.0,3
1688,25.0,18.0,12.0,-8.0,-7.0,20.0,6.0,10.0,1650916877326475.0,3
1689,-5.0,-7.0,-10.0,0.0,25.0,26.0,12.0,-11.0,1650916877326475.0,3
1690,-13.0,10.0,-7.0,0.0,21.0,2.0,-6.0,-3.0,1650916877327337.0,3
1691,19.0,0.0,6.0,-6.0,-25.0,-8.0,-8.0,-2.0,1650916877327337.0,3
1692,-13.0,4.0,1.0,20.0,16.0,-8.0,1.0,-2.0,1650916877350398.0,3
1693,-8.0,3.0,-10.0,4.0,-3.0,1.0,0.0,0.0,1650916877350398.0,3
1694,8.0,-9.0,-7.0,-10.0,5.0,5.0,5.0,13.0,1650916877350398.0,3
1695,8.0,2.0,11.0,6.0,8.0,6.0,1.0,-15.0,1650916877350398.0,3
1696,-13.0,6.0,11.0,3.0,-10.0,-13.0,-7.0,0.0,1650916877372476.0,3
1697,-2.0,0.0,-5.0,-7.0,-14.0,-12.0,-3.0,0.0,1650916877372476.0,3
1698,12.0,10.0,11.0,6.0,-2.0,-3.0,-6.0,3.0,1650916877372476.0,3
1699,-8.0,-3.0,-3.0,-2.0,11.0,12.0,19.0,8.0,1650916877372476.0,3
1700,31.0,3.0,-5.0,-5.0,-5.0,-1.0,12.0,15.0,1650916877386444.0,3
1701,6.0,9.0,6.0,7.0,4.0,-2.0,-10.0,-6.0,1650916877386444.0,3
1702,-42.0,-7.0,10.0,10.0,-7.0,-12.0,2.0,-27.0,1650916877387279.0,3
1703,22.0,4.0,-2.0,-17.0,2.0,10.0,-4.0,4.0,1650916877387279.0,3
1704,-2.0,4.0,-11.0,1.0,5.0,-2.0,-8.0,-12.0,1650916877410393.0,3
1705,-3.0,-5.0,-2.0,-12.0,-4.0,-3.0,1.0,4.0,1650916877410393.0,3
1706,5.0,3.0,5.0,22.0,15.0,16.0,5.0,7.0,1650916877410475.0,3
1707,-8.0,-7.0,0.0,-5.0,-6.0,-6.0,3.0,-2.0,1650916877410475.0,3
1708,-9.0,-6.0,-7.0,2.0,-3.0,3.0,-4.0,-7.0,1650916877431881.0,3
1709,3.0,-3.0,1.0,9.0,-3.0,6.0,1.0,8.0,1650916877431881.0,3
1710,-4.0,1.0,-4.0,-20.0,5.0,5.0,-6.0,-6.0,1650916877432750.0,3
1711,-1.0,-4.0,5.0,22.0,7.0,9.0,7.0,6.0,1650916877432750.0,3
1712,5.0,9.0,-1.0,-4.0,-2.0,-14.0,-13.0,-6.0,1650916877446565.0,3
1713,-26.0,-8.0,-8.0,-28.0,-17.0,-8.0,13.0,-6.0,1650916877446565.0,3
1714,5.0,1.0,-1.0,3.0,-2.0,-11.0,-13.0,-2.0,1650916877446565.0,3
1715,2.0,-2.0,1.0,-14.0,5.0,6.0,7.0,1.0,1650916877446565.0,3
1716,-5.0,1.0,0.0,28.0,-4.0,-10.0,-4.0,-4.0,1650916877470453.0,3
1717,7.0,-3.0,-13.0,0.0,1.0,1.0,0.0,0.0,1650916877470453.0,3
1718,1.0,5.0,20.0,9.0,-4.0,-5.0,0.0,-1.0,1650916877470453.0,3
1719,1.0,-5.0,-11.0,-7.0,-2.0,0.0,-5.0,1.0,1650916877470453.0,3
1720,-2.0,5.0,4.0,16.0,9.0,5.0,2.0,2.0,1650916877491831.0,3
1721,4.0,-2.0,2.0,-9.0,1.0,7.0,2.0,3.0,1650916877491831.0,3
1722,1.0,-3.0,1.0,12.0,-7.0,3.0,-2.0,0.0,1650916877492697.0,3
1723,5.0,2.0,6.0,-2.0,9.0,5.0,0.0,0.0,1650916877492697.0,3
1724,27.0,5.0,7.0,-5.0,0.0,2.0,3.0,-1.0,1650916877506553.0,3
1725,-42.0,-3.0,-8.0,-8.0,-8.0,-14.0,-6.0,-2.0,1650916877506553.0,3
1726,8.0,6.0,-2.0,-7.0,-3.0,-5.0,-1.0,-2.0,1650916877506553.0,3
1727,-5.0,-5.0,1.0,16.0,5.0,-3.0,0.0,2.0,1650916877506553.0,3
1728,3.0,-3.0,-4.0,-7.0,4.0,7.0,1.0,-1.0,1650916877529989.0,3
1729,17.0,2.0,16.0,27.0,10.0,5.0,-3.0,1.0,1650916877529989.0,3
1730,-11.0,-7.0,-14.0,-27.0,-18.0,-12.0,-1.0,-4.0,1650916877529989.0,3
1731,6.0,2.0,3.0,-6.0,-8.0,2.0,-1.0,-2.0,1650916877529989.0,3
1732,-20.0,-12.0,-13.0,-7.0,0.0,-2.0,-1.0,-3.0,1650916877552500.0,3
1733,10.0,5.0,4.0,4.0,7.0,2.0,-11.0,-3.0,1650916877552500.0,3
1734,-8.0,-4.0,2.0,19.0,2.0,-2.0,25.0,3.0,1650916877553335.0,3
1735,6.0,-1.0,-4.0,-12.0,-2.0,5.0,-7.0,-1.0,1650916877553335.0,3
1736,-11.0,-3.0,-15.0,-35.0,-10.0,-4.0,-3.0,0.0,1650916877567123.0,3
1737,10.0,16.0,8.0,-2.0,-1.0,-5.0,-1.0,0.0,1650916877567123.0,3
1738,4.0,-9.0,5.0,18.0,-1.0,-6.0,-8.0,-1.0,1650916877574170.0,3
1739,-3.0,-6.0,-16.0,-12.0,3.0,3.0,-1.0,1.0,1650916877574170.0,3
1740,-6.0,-2.0,-2.0,13.0,5.0,8.0,0.0,3.0,1650916877590500.0,3
1741,-2.0,-1.0,13.0,7.0,3.0,5.0,8.0,-7.0,1650916877590500.0,3
1742,7.0,-3.0,-22.0,-33.0,-6.0,-4.0,-3.0,0.0,1650916877590500.0,3
1743,0.0,10.0,13.0,16.0,-3.0,-7.0,-5.0,-1.0,1650916877590500.0,3
1744,-8.0,2.0,10.0,12.0,-4.0,-2.0,-6.0,0.0,1650916877612676.0,3
1745,5.0,-2.0,-16.0,-17.0,-10.0,-11.0,0.0,1.0,1650916877612676.0,3
1746,8.0,10.0,22.0,1.0,0.0,-4.0,1.0,-3.0,1650916877612676.0,3
1747,4.0,-10.0,-10.0,1.0,3.0,16.0,-3.0,2.0,1650916877612676.0,3
1748,-17.0,-3.0,-14.0,-10.0,7.0,6.0,11.0,3.0,1650916877626734.0,3
1749,16.0,-4.0,-6.0,8.0,1.0,-6.0,-6.0,-3.0,1650916877626734.0,3
1750,-3.0,5.0,11.0,22.0,8.0,15.0,-5.0,1.0,1650916877626734.0,3
1751,-4.0,-2.0,-2.0,-37.0,-18.0,-11.0,12.0,2.0,1650916877626734.0,3
1752,-3.0,1.0,12.0,11.0,-7.0,-16.0,-10.0,-7.0,1650916877648924.0,3
1753,-2.0,0.0,-4.0,0.0,-1.0,-6.0,1.0,2.0,1650916877648924.0,3
1754,-2.0,2.0,-5.0,1.0,7.0,8.0,-5.0,1.0,1650916877649920.0,3
1755,8.0,4.0,-2.0,2.0,16.0,17.0,2.0,-2.0,1650916877649920.0,3
1756,1.0,0.0,-3.0,-2.0,-3.0,4.0,5.0,2.0,1650916877672043.0,3
1757,-4.0,-5.0,7.0,1.0,-4.0,-14.0,-1.0,-1.0,1650916877672043.0,3
1758,-2.0,-11.0,-51.0,-34.0,-9.0,-1.0,-6.0,0.0,1650916877673040.0,3
1759,-11.0,-8.0,-2.0,6.0,-7.0,-4.0,-2.0,-2.0,1650916877673040.0,3
1760,2.0,10.0,21.0,9.0,12.0,10.0,7.0,1.0,1650916877686342.0,3
1761,2.0,-5.0,-11.0,2.0,2.0,4.0,-3.0,-2.0,1650916877686342.0,3
1762,-2.0,6.0,18.0,1.0,-10.0,-25.0,0.0,3.0,1650916877687175.0,3
1763,-5.0,4.0,0.0,-3.0,-13.0,-44.0,-21.0,-6.0,1650916877687175.0,3
1764,1.0,3.0,-3.0,-3.0,-3.0,16.0,8.0,-1.0,1650916877709305.0,3
1765,6.0,5.0,15.0,10.0,19.0,59.0,15.0,4.0,1650916877709305.0,3
1766,0.0,-1.0,-2.0,13.0,21.0,14.0,-2.0,1.0,1650916877709305.0,3
1767,-3.0,-5.0,-7.0,6.0,3.0,-6.0,4.0,-1.0,1650916877709305.0,3
1768,0.0,-3.0,-15.0,-32.0,-8.0,-28.0,-17.0,-4.0,1650916877731429.0,3
1769,2.0,8.0,12.0,0.0,-15.0,-7.0,0.0,0.0,1650916877731429.0,3
1770,-8.0,0.0,3.0,7.0,3.0,1.0,2.0,-4.0,1650916877732425.0,3
1771,4.0,2.0,8.0,4.0,11.0,16.0,-5.0,3.0,1650916877732425.0,3
1772,-10.0,-14.0,-32.0,-10.0,-8.0,-5.0,1.0,-4.0,1650916877745609.0,3
1773,-2.0,3.0,14.0,4.0,7.0,5.0,2.0,-1.0,1650916877745609.0,3
1774,6.0,1.0,8.0,1.0,-6.0,-6.0,0.0,4.0,1650916877754303.0,3
1775,2.0,5.0,8.0,10.0,-6.0,-9.0,-7.0,-3.0,1650916877754303.0,3
1776,0.0,-5.0,-23.0,-26.0,-8.0,3.0,12.0,2.0,1650916877769666.0,3
1777,-7.0,-9.0,-6.0,6.0,-4.0,-13.0,-10.0,-3.0,1650916877769666.0,3
1778,13.0,7.0,14.0,10.0,2.0,-3.0,-1.0,-1.0,1650916877769666.0,3
1779,-12.0,-6.0,5.0,5.0,-6.0,1.0,4.0,0.0,1650916877769666.0,3
1780,1.0,-6.0,3.0,0.0,3.0,-10.0,-8.0,-2.0,1650916877792073.0,3
1781,0.0,1.0,-4.0,-7.0,-8.0,-3.0,-2.0,-1.0,1650916877792073.0,3
1782,-2.0,3.0,8.0,-1.0,5.0,11.0,4.0,0.0,1650916877792907.0,3
1783,7.0,8.0,0.0,-2.0,13.0,19.0,7.0,2.0,1650916877792907.0,3
1784,0.0,-3.0,-13.0,14.0,0.0,-6.0,-5.0,0.0,1650916877806226.0,3
1785,1.0,5.0,1.0,-22.0,-15.0,-24.0,-5.0,-2.0,1650916877806226.0,3
1786,-6.0,-3.0,11.0,14.0,-1.0,-6.0,0.0,-2.0,1650916877814079.0,3
1787,1.0,-1.0,-17.0,-11.0,2.0,20.0,3.0,0.0,1650916877814079.0,3
1788,-1.0,-1.0,28.0,22.0,-3.0,4.0,-5.0,0.0,1650916877830272.0,3
1789,-1.0,-3.0,-21.0,-17.0,6.0,3.0,6.0,4.0,1650916877830272.0,3
1790,-8.0,-7.0,-14.0,-15.0,-11.0,-13.0,1.0,-3.0,1650916877830272.0,3
1791,6.0,2.0,4.0,-2.0,-7.0,-13.0,-1.0,-1.0,1650916877830272.0,3
1792,-5.0,3.0,12.0,8.0,6.0,10.0,4.0,2.0,1650916877851615.0,3
1793,4.0,-4.0,-11.0,6.0,5.0,5.0,-14.0,-4.0,1650916877851615.0,3
1794,-6.0,-8.0,-4.0,-3.0,-8.0,-7.0,5.0,0.0,1650916877852614.0,3
1795,-3.0,-4.0,7.0,6.0,4.0,-5.0,-3.0,-1.0,1650916877852614.0,3
1796,5.0,5.0,2.0,-3.0,-11.0,3.0,-6.0,-3.0,1650916877865578.0,3
1797,2.0,-4.0,-15.0,-18.0,-8.0,-4.0,3.0,3.0,1650916877865578.0,3
1798,-2.0,6.0,6.0,6.0,5.0,5.0,-4.0,-2.0,1650916877881536.0,3
1799,-3.0,2.0,9.0,5.0,9.0,-12.0,-4.0,-3.0,1650916877881536.0,3
1800,4.0,7.0,1.0,-6.0,2.0,5.0,6.0,4.0,1650916877888519.0,3
1801,-8.0,-19.0,-16.0,-3.0,4.0,9.0,2.0,1.0,1650916877888519.0,3
1802,-4.0,-4.0,-15.0,-10.0,-5.0,-2.0,0.0,-6.0,1650916877889517.0,3
1803,-2.0,2.0,11.0,8.0,-17.0,-10.0,1.0,0.0,1650916877889517.0,3
1804,3.0,1.0,6.0,-1.0,4.0,2.0,-4.0,0.0,1650916877912140.0,3
1805,2.0,7.0,6.0,7.0,8.0,-4.0,0.0,2.0,1650916877912140.0,3
1806,0.0,-5.0,-9.0,1.0,6.0,15.0,4.0,3.0,1650916877912140.0,3
1807,-6.0,3.0,11.0,1.0,-4.0,-9.0,-3.0,-2.0,1650916877912140.0,3
1808,3.0,4.0,-6.0,-8.0,-6.0,6.0,-4.0,-4.0,1650916877925105.0,3
1809,-2.0,3.0,12.0,9.0,2.0,-2.0,9.0,3.0,1650916877925105.0,3
1810,0.0,0.0,-2.0,-2.0,8.0,10.0,0.0,0.0,1650916877934245.0,3
1811,1.0,0.0,-4.0,6.0,2.0,4.0,-5.0,-1.0,1650916877934245.0,3
1812,0.0,0.0,-9.0,-24.0,-14.0,-21.0,-5.0,-3.0,1650916877949511.0,3
1813,2.0,-1.0,21.0,24.0,-6.0,-6.0,-3.0,-3.0,1650916877949511.0,3
1814,2.0,2.0,12.0,5.0,14.0,9.0,19.0,7.0,1650916877949511.0,3
1815,-3.0,-23.0,-43.0,-19.0,-8.0,-2.0,-8.0,-5.0,1650916877949511.0,3
1816,-6.0,-9.0,7.0,14.0,-5.0,-4.0,1.0,-1.0,1650916877971637.0,3
1817,-1.0,-4.0,-5.0,-17.0,-12.0,-16.0,-16.0,-3.0,1650916877971637.0,3
1818,2.0,7.0,7.0,10.0,8.0,26.0,10.0,3.0,1650916877972982.0,3
1819,3.0,7.0,6.0,2.0,13.0,22.0,9.0,4.0,1650916877972982.0,3
1820,4.0,-6.0,-8.0,-3.0,5.0,0.0,2.0,1.0,1650916877985735.0,3
1821,-2.0,3.0,5.0,-2.0,-14.0,-20.0,-4.0,-4.0,1650916877985735.0,3
1822,-1.0,-2.0,-2.0,-5.0,-3.0,-16.0,-12.0,-2.0,1650916877993872.0,3
1823,-3.0,-2.0,-5.0,3.0,3.0,2.0,2.0,2.0,1650916877993872.0,3
1824,3.0,0.0,3.0,6.0,0.0,1.0,3.0,-1.0,1650916878008896.0,3
1825,1.0,2.0,6.0,4.0,7.0,12.0,4.0,1.0,1650916878008896.0,3
1826,-3.0,-2.0,-10.0,-10.0,-8.0,-7.0,-6.0,-2.0,1650916878009880.0,3
1827,7.0,7.0,3.0,1.0,0.0,0.0,-1.0,-2.0,1650916878009880.0,3
1828,-3.0,2.0,3.0,1.0,-2.0,-5.0,-1.0,4.0,1650916878031789.0,3
1829,2.0,0.0,2.0,0.0,-11.0,-3.0,0.0,-3.0,1650916878031789.0,3
1830,-2.0,-4.0,-6.0,-4.0,2.0,-5.0,-7.0,-2.0,1650916878032787.0,3
1831,5.0,-2.0,4.0,3.0,4.0,10.0,0.0,3.0,1650916878032787.0,3
1832,-16.0,3.0,3.0,4.0,5.0,6.0,17.0,4.0,1650916878045778.0,3
1833,0.0,-3.0,-4.0,-2.0,-1.0,13.0,3.0,1.0,1650916878045778.0,3
1834,-3.0,-3.0,-3.0,-6.0,-10.0,-5.0,-11.0,-5.0,1650916878053730.0,3
1835,1.0,0.0,-9.0,-13.0,-1.0,-13.0,1.0,2.0,1650916878053730.0,3
1836,5.0,2.0,18.0,11.0,1.0,-4.0,-7.0,-5.0,1650916878069765.0,3
1837,-5.0,-5.0,-22.0,-7.0,5.0,-5.0,5.0,0.0,1650916878069765.0,3
1838,-2.0,1.0,-3.0,1.0,0.0,0.0,-16.0,-2.0,1650916878069765.0,3
1839,-4.0,1.0,16.0,9.0,-15.0,-1.0,19.0,2.0,1650916878069765.0,3
1840,-1.0,5.0,-3.0,-2.0,0.0,3.0,-3.0,-3.0,1650916878092406.0,3
1841,-2.0,-2.0,6.0,0.0,8.0,-1.0,1.0,-1.0,1650916878092406.0,3
1842,3.0,-2.0,-13.0,-7.0,-2.0,-5.0,-8.0,0.0,1650916878092406.0,3
1843,-2.0,3.0,10.0,0.0,-4.0,0.0,-5.0,-4.0,1650916878092406.0,3
1844,-2.0,-8.0,-3.0,-4.0,0.0,2.0,-1.0,0.0,1650916878114092.0,3
1845,3.0,2.0,8.0,7.0,-4.0,-6.0,-4.0,0.0,1650916878114092.0,3
1846,-1.0,-2.0,-7.0,-12.0,-10.0,-21.0,5.0,0.0,1650916878115093.0,3
1847,-3.0,-5.0,-9.0,-1.0,3.0,-3.0,-6.0,-2.0,1650916878115093.0,3
1848,0.0,3.0,3.0,1.0,14.0,49.0,6.0,0.0,1650916878129413.0,3
1849,-1.0,-1.0,-3.0,3.0,17.0,18.0,5.0,3.0,1650916878129413.0,3
1850,0.0,0.0,9.0,5.0,-5.0,-9.0,0.0,-2.0,1650916878129413.0,3
1851,-5.0,-2.0,-5.0,-7.0,-20.0,-29.0,-8.0,-2.0,1650916878129413.0,3
1852,3.0,-4.0,-8.0,-2.0,-17.0,-36.0,-13.0,-3.0,1650916878152094.0,3
1853,2.0,3.0,3.0,4.0,5.0,17.0,7.0,4.0,1650916878152094.0,3
1854,-2.0,3.0,11.0,10.0,22.0,23.0,18.0,5.0,1650916878152928.0,3
1855,3.0,2.0,-1.0,-6.0,4.0,-1.0,-8.0,-3.0,1650916878152928.0,3
1856,2.0,-4.0,-8.0,-6.0,-6.0,-2.0,-1.0,-1.0,1650916878175412.0,3
1857,2.0,-5.0,-9.0,-6.0,-18.0,-24.0,-12.0,-4.0,1650916878175412.0,3
1858,-3.0,-1.0,6.0,0.0,-9.0,-4.0,1.0,0.0,1650916878175412.0,3
1859,-4.0,-2.0,2.0,7.0,12.0,25.0,1.0,0.0,1650916878175412.0,3
1860,1.0,3.0,8.0,5.0,9.0,-11.0,1.0,0.0,1650916878189727.0,3
1861,-2.0,-2.0,-7.0,0.0,-4.0,5.0,-10.0,-3.0,1650916878189727.0,3
1862,11.0,-3.0,5.0,7.0,3.0,12.0,7.0,3.0,1650916878189727.0,3
1863,-8.0,-4.0,6.0,-4.0,7.0,22.0,15.0,3.0,1650916878189727.0,3
1864,6.0,-2.0,-27.0,-17.0,-13.0,-14.0,-8.0,-5.0,1650916878212297.0,3
1865,-11.0,-1.0,1.0,3.0,-9.0,-22.0,2.0,-1.0,1650916878212297.0,3
1866,2.0,-1.0,-3.0,-4.0,-2.0,-20.0,-19.0,-4.0,1650916878213133.0,3
1867,1.0,4.0,8.0,5.0,-2.0,13.0,-1.0,0.0,1650916878213133.0,3
1868,6.0,3.0,13.0,11.0,10.0,11.0,9.0,3.0,1650916878235396.0,3
