EMG_s0,EMG_s1,EMG_s2,EMG_s3,EMG_s4,EMG_s5,EMG_s6,EMG_s7,timestamp
0.0,-4.0,-2.0,-2.0,-3.0,-3.0,-1.0,-1.0,1651023992234551.0
1.0,6.0,3.0,0.0,1.0,1.0,-3.0,1.0,1651023992234551.0
0.0,10.0,3.0,0.0,-2.0,-2.0,-1.0,-1.0,1651023992241532.0
0.0,-12.0,-6.0,-9.0,-5.0,-2.0,1.0,-1.0,1651023992241532.0
-3.0,-1.0,2.0,-4.0,-6.0,1.0,-3.0,-1.0,1651023992248516.0
3.0,11.0,7.0,8.0,21.0,4.0,0.0,1.0,1651023992248516.0
0.0,-6.0,1.0,3.0,-6.0,-5.0,-1.0,0.0,1651023992264501.0
0.0,-1.0,3.0,1.0,3.0,6.0,1.0,1.0,1651023992264501.0
0.0,-7.0,-3.0,-7.0,-2.0,-2.0,1.0,-2.0,1651023992270482.0
0.0,11.0,-1.0,-4.0,-7.0,-4.0,0.0,-1.0,1651023992270482.0
-1.0,1.0,-1.0,2.0,3.0,4.0,-1.0,-1.0,1651023992286440.0
0.0,2.0,-2.0,-3.0,-4.0,-2.0,-1.0,-1.0,1651023992286440.0
3.0,2.0,1.0,-6.0,-12.0,-2.0,1.0,3.0,1651023992288416.0
-4.0,2.0,-4.0,1.0,14.0,-1.0,-3.0,-4.0,1651023992288416.0
1.0,8.0,3.0,6.0,1.0,3.0,1.0,0.0,1651023992301435.0
-1.0,3.0,0.0,1.0,-1.0,-1.0,0.0,1.0,1651023992301435.0
-2.0,-3.0,2.0,7.0,3.0,1.0,0.0,0.0,1651023992308364.0
3.0,-7.0,-3.0,-4.0,-8.0,-3.0,0.0,-1.0,1651023992308364.0
-2.0,6.0,-2.0,-5.0,-2.0,-3.0,-2.0,-1.0,1651023992324386.0
-1.0,0.0,0.0,2.0,-4.0,-4.0,-2.0,-1.0,1651023992324386.0
-1.0,8.0,-2.0,-3.0,3.0,0.0,-1.0,0.0,1651023992326313.0
2.0,5.0,2.0,2.0,-2.0,-1.0,0.0,0.0,1651023992326313.0
-2.0,0.0,0.0,1.0,0.0,2.0,-2.0,-1.0,1651023992347322.0
1.0,4.0,-1.0,-5.0,0.0,0.0,0.0,-1.0,1651023992347322.0
0.0,-6.0,-2.0,-4.0,-3.0,-3.0,-1.0,-1.0,1651023992348266.0
0.0,3.0,1.0,2.0,-3.0,1.0,1.0,0.0,1651023992348266.0
-1.0,2.0,-2.0,-3.0,-1.0,-2.0,0.0,0.0,1651023992360292.0
-3.0,-24.0,1.0,-1.0,-8.0,-1.0,-1.0,-2.0,1651023992360292.0
-1.0,-3.0,-9.0,-7.0,4.0,-3.0,-3.0,-2.0,1651023992369588.0
-1.0,2.0,2.0,2.0,5.0,1.0,1.0,1.0,1651023992369588.0
-2.0,-7.0,-2.0,-1.0,-2.0,2.0,0.0,-1.0,1651023992383926.0
-1.0,-3.0,-1.0,-3.0,-16.0,-6.0,0.0,-1.0,1651023992383926.0
-1.0,-6.0,1.0,1.0,20.0,5.0,1.0,-3.0,1651023992392609.0
3.0,7.0,5.0,5.0,-5.0,0.0,1.0,1.0,1651023992392609.0
0.0,4.0,2.0,2.0,-2.0,-1.0,1.0,-1.0,1651023992406552.0
1.0,13.0,0.0,1.0,6.0,1.0,0.0,1.0,1651023992406552.0
-5.0,-23.0,-5.0,-1.0,-7.0,-2.0,-1.0,-2.0,1651023992408546.0
0.0,0.0,-3.0,-2.0,-3.0,-1.0,0.0,0.0,1651023992408546.0
-2.0,-7.0,-3.0,-3.0,3.0,1.0,-2.0,-3.0,1651023992420515.0
1.0,29.0,4.0,2.0,-1.0,0.0,0.0,2.0,1651023992420515.0
0.0,-10.0,1.0,4.0,1.0,1.0,-1.0,1.0,1651023992429592.0
-2.0,3.0,-4.0,-6.0,-1.0,-2.0,-1.0,-1.0,1651023992429592.0
2.0,0.0,-1.0,-3.0,-7.0,-4.0,-3.0,-1.0,1651023992444781.0
-3.0,-15.0,-1.0,3.0,5.0,1.0,0.0,-2.0,1651023992444781.0
3.0,14.0,0.0,-2.0,-2.0,0.0,0.0,0.0,1651023992445716.0
1.0,-9.0,-2.0,2.0,-4.0,-1.0,0.0,0.0,1651023992445716.0
0.0,15.0,2.0,-3.0,-2.0,-1.0,0.0,0.0,1651023992466772.0
1.0,-15.0,-3.0,-5.0,4.0,0.0,0.0,0.0,1651023992466772.0
-1.0,0.0,2.0,5.0,-2.0,-1.0,-1.0,0.0,1651023992468797.0
-1.0,-11.0,-1.0,-2.0,-3.0,0.0,0.0,0.0,1651023992468797.0
0.0,9.0,2.0,1.0,-1.0,0.0,-1.0,-1.0,1651023992480806.0
1.0,1.0,-2.0,0.0,10.0,0.0,0.0,0.0,1651023992480806.0
-1.0,-3.0,-3.0,-7.0,-18.0,-8.0,-1.0,-1.0,1651023992489714.0
0.0,10.0,1.0,1.0,12.0,6.0,0.0,-2.0,1651023992489714.0
-1.0,-13.0,3.0,13.0,15.0,4.0,0.0,0.0,1651023992511682.0
2.0,13.0,1.0,0.0,-9.0,0.0,1.0,1.0,1651023992511682.0
6.0,13.0,0.0,-2.0,2.0,-1.0,-1.0,-1.0,1651023992513650.0
-3.0,2.0,-3.0,-10.0,-17.0,-11.0,-4.0,-2.0,1651023992513650.0
-1.0,-5.0,-5.0,-5.0,2.0,4.0,0.0,-1.0,1651023992526679.0
-3.0,-3.0,1.0,5.0,8.0,5.0,-2.0,-2.0,1651023992526679.0
2.0,5.0,1.0,-2.0,-3.0,-3.0,4.0,0.0,1651023992528610.0
2.0,7.0,1.0,-4.0,-1.0,0.0,1.0,0.0,1651023992528610.0
0.0,-5.0,1.0,0.0,-5.0,-4.0,-1.0,-1.0,1651023992549617.0
-5.0,-22.0,-2.0,1.0,-1.0,-2.0,-1.0,0.0,1651023992549617.0
0.0,12.0,-1.0,-4.0,-17.0,1.0,0.0,-1.0,1651023992550575.0
-4.0,-15.0,-3.0,-1.0,25.0,-1.0,-1.0,-1.0,1651023992550575.0
-2.0,1.0,0.0,-3.0,-6.0,-1.0,0.0,0.0,1651023992564577.0
-2.0,-15.0,-5.0,1.0,0.0,0.0,0.0,-2.0,1651023992564577.0
-1.0,0.0,2.0,-2.0,0.0,0.0,0.0,1.0,1651023992566509.0
-4.0,-3.0,-1.0,0.0,-9.0,-1.0,-1.0,-1.0,1651023992566509.0
1.0,1.0,-1.0,-4.0,-9.0,-7.0,-1.0,1.0,1651023992586921.0
-4.0,5.0,-2.0,6.0,7.0,5.0,-2.0,-2.0,1651023992586921.0
-6.0,-14.0,-2.0,0.0,5.0,-2.0,0.0,0.0,1651023992588897.0
3.0,12.0,0.0,1.0,-6.0,0.0,0.0,1.0,1651023992588897.0
-3.0,-12.0,-5.0,-8.0,-4.0,-3.0,0.0,-2.0,1651023992600929.0
5.0,6.0,3.0,-1.0,0.0,2.0,1.0,1.0,1651023992600929.0
1.0,12.0,3.0,-4.0,8.0,4.0,0.0,0.0,1651023992609840.0
1.0,2.0,1.0,1.0,-3.0,-3.0,0.0,0.0,1651023992609840.0
1.0,1.0,4.0,10.0,6.0,3.0,1.0,0.0,1651023992624800.0
0.0,1.0,-1.0,0.0,-3.0,-3.0,-2.0,-2.0,1651023992624800.0
-3.0,-14.0,-2.0,-1.0,-8.0,-2.0,-3.0,-1.0,1651023992625797.0
2.0,-2.0,-3.0,-5.0,8.0,2.0,0.0,1.0,1651023992625797.0
1.0,15.0,1.0,-3.0,9.0,1.0,-2.0,-1.0,1651023992647340.0
1.0,5.0,2.0,-1.0,-3.0,-1.0,1.0,0.0,1651023992647340.0
0.0,7.0,1.0,-1.0,4.0,1.0,0.0,0.0,1651023992648897.0
-3.0,-19.0,0.0,2.0,-14.0,-1.0,0.0,-2.0,1651023992648897.0
1.0,1.0,-2.0,-2.0,-3.0,-3.0,-1.0,-2.0,1651023992660904.0
3.0,5.0,2.0,-3.0,5.0,0.0,0.0,3.0,1651023992660904.0
-5.0,0.0,-2.0,2.0,-4.0,0.0,-2.0,-2.0,1651023992669814.0
0.0,9.0,-1.0,-1.0,0.0,2.0,-1.0,0.0,1651023992669814.0
2.0,9.0,3.0,1.0,3.0,2.0,-1.0,-1.0,1651023992684889.0
-2.0,-4.0,0.0,-9.0,-7.0,-3.0,0.0,-2.0,1651023992684889.0
1.0,-4.0,-1.0,10.0,3.0,-2.0,-1.0,0.0,1651023992685885.0
-1.0,2.0,0.0,1.0,5.0,5.0,0.0,-2.0,1651023992685885.0
-2.0,0.0,-2.0,-1.0,-6.0,-6.0,0.0,1.0,1651023992706669.0
-5.0,-4.0,-8.0,-9.0,-4.0,3.0,-3.0,-4.0,1651023992706669.0
-2.0,-6.0,2.0,5.0,5.0,0.0,1.0,-1.0,1651023992708663.0
0.0,7.0,3.0,0.0,1.0,-2.0,-1.0,0.0,1651023992708663.0
-2.0,-11.0,-1.0,-1.0,8.0,1.0,0.0,-2.0,1651023992720633.0
2.0,2.0,-3.0,2.0,-5.0,-4.0,1.0,2.0,1651023992720633.0
-1.0,-6.0,-4.0,-3.0,3.0,3.0,0.0,0.0,1651023992729606.0
1.0,1.0,-2.0,-1.0,-5.0,0.0,1.0,0.0,1651023992729606.0
1.0,-4.0,1.0,0.0,0.0,-1.0,0.0,-1.0,1651023992744719.0
-5.0,-1.0,2.0,1.0,-5.0,-5.0,-2.0,-3.0,1651023992744719.0
2.0,-6.0,-4.0,-1.0,6.0,1.0,-1.0,0.0,1651023992745719.0
0.0,-1.0,-1.0,-2.0,-1.0,0.0,-1.0,0.0,1651023992745719.0
1.0,-3.0,-4.0,-3.0,-7.0,-1.0,-1.0,0.0,1651023992766725.0
0.0,6.0,4.0,5.0,4.0,0.0,1.0,-2.0,1651023992766725.0
-1.0,-21.0,-4.0,-5.0,-19.0,-8.0,-2.0,-1.0,1651023992768658.0
-2.0,-5.0,-1.0,1.0,20.0,4.0,-1.0,-1.0,1651023992768658.0
0.0,-20.0,-3.0,4.0,-3.0,3.0,1.0,2.0,1651023992780688.0
0.0,18.0,-2.0,-1.0,-1.0,0.0,-2.0,0.0,1651023992780688.0
1.0,6.0,0.0,-4.0,-13.0,-9.0,-1.0,0.0,1651023992789601.0
0.0,1.0,-4.0,-8.0,1.0,3.0,0.0,-1.0,1651023992789601.0
2.0,-6.0,2.0,0.0,5.0,3.0,2.0,1.0,1651023992804680.0
-1.0,-8.0,2.0,15.0,4.0,0.0,0.0,2.0,1651023992804680.0
0.0,10.0,2.0,-1.0,3.0,0.0,0.0,-1.0,1651023992805685.0
-4.0,-25.0,-3.0,2.0,-21.0,-12.0,-3.0,-3.0,1651023992805685.0
1.0,4.0,-4.0,-7.0,7.0,7.0,0.0,-1.0,1651023992826914.0
2.0,14.0,4.0,-7.0,1.0,-2.0,-2.0,0.0,1651023992826914.0
-1.0,2.0,3.0,4.0,2.0,1.0,0.0,-2.0,1651023992828934.0
3.0,10.0,11.0,13.0,2.0,0.0,-1.0,1.0,1651023992828934.0
-3.0,-9.0,-9.0,-2.0,8.0,0.0,-1.0,-3.0,1651023992849933.0
2.0,2.0,0.0,2.0,0.0,0.0,-1.0,0.0,1651023992849933.0
-4.0,-16.0,-5.0,-5.0,5.0,4.0,-1.0,-1.0,1651023992850930.0
0.0,1.0,-5.0,-10.0,-20.0,-1.0,-1.0,0.0,1651023992850930.0
-1.0,6.0,0.0,-3.0,-1.0,-11.0,-3.0,-1.0,1651023992871883.0
-2.0,-2.0,2.0,6.0,9.0,7.0,-1.0,-3.0,1651023992871883.0
1.0,13.0,9.0,7.0,-3.0,-2.0,0.0,1.0,1651023992873878.0
-2.0,-5.0,-12.0,-2.0,8.0,3.0,1.0,0.0,1651023992873878.0
-2.0,-6.0,5.0,1.0,-10.0,-2.0,0.0,0.0,1651023992885949.0
3.0,6.0,-19.0,-7.0,-3.0,-7.0,-2.0,-2.0,1651023992885949.0
-3.0,3.0,3.0,-1.0,2.0,3.0,-2.0,-2.0,1651023992894929.0
-1.0,3.0,-3.0,-13.0,-3.0,-1.0,0.0,1.0,1651023992894929.0
0.0,8.0,8.0,-4.0,-25.0,-3.0,-1.0,-1.0,1651023992909807.0
1.0,-8.0,-11.0,4.0,20.0,0.0,-1.0,2.0,1651023992909807.0
1.0,8.0,13.0,8.0,1.0,2.0,1.0,1.0,1651023992910799.0
2.0,-7.0,-12.0,11.0,4.0,4.0,0.0,0.0,1651023992910799.0
-13.0,9.0,-2.0,-5.0,6.0,2.0,-3.0,-6.0,1651023992931760.0
7.0,3.0,9.0,-10.0,-16.0,-3.0,2.0,2.0,1651023992931760.0
10.0,4.0,-17.0,-39.0,-35.0,-10.0,1.0,7.0,1651023992933714.0
-24.0,-19.0,-3.0,-14.0,9.0,-5.0,10.0,1.0,1651023992933714.0
20.0,6.0,2.0,27.0,16.0,3.0,0.0,7.0,1651023992945718.0
15.0,11.0,19.0,-2.0,6.0,-27.0,-35.0,-7.0,1651023992945718.0
14.0,19.0,-15.0,15.0,36.0,83.0,29.0,7.0,1651023992954634.0
-25.0,-19.0,43.0,58.0,32.0,14.0,41.0,-1.0,1651023992954634.0
9.0,-3.0,-38.0,-17.0,5.0,10.0,14.0,5.0,1651023992969761.0
-15.0,-4.0,-14.0,-81.0,-69.0,-58.0,-44.0,-18.0,1651023992969761.0
24.0,30.0,39.0,65.0,-20.0,-28.0,8.0,7.0,1651023992970695.0
7.0,-24.0,4.0,-12.0,-6.0,6.0,-1.0,16.0,1651023992970695.0
26.0,-3.0,6.0,21.0,-1.0,-9.0,75.0,25.0,1651023992991654.0
-1.0,39.0,-31.0,-68.0,-15.0,29.0,-85.0,-32.0,1651023992991654.0
-61.0,-74.0,-59.0,-87.0,-48.0,-62.0,-114.0,-74.0,1651023992993643.0
-44.0,6.0,72.0,103.0,67.0,26.0,62.0,20.0,1651023992993643.0
52.0,-41.0,23.0,-20.0,27.0,-22.0,-11.0,39.0,1651023993005667.0
-12.0,20.0,-45.0,-73.0,-50.0,-52.0,-14.0,-11.0,1651023993005667.0
-97.0,7.0,-21.0,-53.0,25.0,71.0,-9.0,-15.0,1651023993014578.0
11.0,19.0,32.0,14.0,15.0,24.0,46.0,37.0,1651023993014578.0
-43.0,31.0,61.0,34.0,-8.0,-13.0,-96.0,-86.0,1651023993029603.0
43.0,-51.0,-68.0,56.0,11.0,-53.0,118.0,8.0,1651023993029603.0
-4.0,11.0,14.0,-12.0,-21.0,21.0,80.0,37.0,1651023993030564.0
-9.0,-37.0,-15.0,-26.0,-23.0,-45.0,-97.0,-48.0,1651023993030564.0
18.0,25.0,21.0,27.0,0.0,-3.0,100.0,52.0,1651023993051970.0
-16.0,-55.0,-15.0,-42.0,-3.0,90.0,13.0,-12.0,1651023993051970.0
18.0,-27.0,20.0,22.0,-9.0,-60.0,-79.0,-50.0,1651023993053897.0
18.0,12.0,-15.0,9.0,13.0,21.0,66.0,25.0,1651023993053897.0
-8.0,11.0,62.0,56.0,15.0,-12.0,-31.0,-5.0,1651023993066002.0
10.0,-9.0,1.0,6.0,8.0,6.0,49.0,29.0,1651023993066002.0
18.0,-2.0,-22.0,-8.0,26.0,24.0,62.0,44.0,1651023993074835.0
19.0,9.0,38.0,-4.0,-10.0,-4.0,5.0,6.0,1651023993074835.0
-39.0,-8.0,-111.0,-81.0,-24.0,-14.0,-128.0,-81.0,1651023993089917.0
4.0,34.0,101.0,89.0,37.0,21.0,99.0,42.0,1651023993089917.0
-19.0,-15.0,-33.0,-41.0,-7.0,-31.0,4.0,-5.0,1651023993090909.0
14.0,11.0,-30.0,-14.0,-5.0,-22.0,-68.0,-26.0,1651023993090909.0
13.0,5.0,5.0,2.0,-30.0,-74.0,-13.0,-13.0,1651023993111908.0
-6.0,-8.0,-11.0,9.0,40.0,127.0,65.0,19.0,1651023993111908.0
17.0,28.0,44.0,41.0,13.0,-10.0,13.0,11.0,1651023993113865.0
-20.0,9.0,-16.0,-8.0,-24.0,-40.0,-18.0,3.0,1651023993113865.0
-21.0,-2.0,-16.0,-25.0,-16.0,-17.0,2.0,16.0,1651023993125870.0
-6.0,-4.0,-9.0,-30.0,-15.0,-11.0,-64.0,-21.0,1651023993125870.0
41.0,35.0,61.0,72.0,35.0,5.0,27.0,21.0,1651023993134779.0
12.0,-11.0,-57.0,-66.0,-24.0,-3.0,1.0,-8.0,1651023993134779.0
-23.0,-5.0,9.0,44.0,33.0,29.0,6.0,15.0,1651023993149905.0
-4.0,-6.0,27.0,15.0,-8.0,-54.0,-61.0,-20.0,1651023993149905.0
7.0,0.0,20.0,22.0,10.0,25.0,37.0,13.0,1651023993150914.0
7.0,8.0,-6.0,4.0,-14.0,-57.0,-33.0,2.0,1651023993150914.0
-4.0,-35.0,-50.0,-84.0,-19.0,106.0,31.0,-16.0,1651023993171952.0
19.0,-10.0,12.0,50.0,16.0,-3.0,48.0,20.0,1651023993171952.0
-16.0,7.0,-16.0,-44.0,-28.0,-22.0,6.0,1.0,1651023993173907.0
7.0,13.0,36.0,32.0,20.0,20.0,-46.0,-16.0,1651023993173907.0
5.0,13.0,-5.0,15.0,13.0,-66.0,-50.0,2.0,1651023993185875.0
-14.0,-12.0,-19.0,-9.0,-11.0,40.0,-1.0,-9.0,1651023993185875.0
9.0,-29.0,-11.0,1.0,15.0,20.0,26.0,7.0,1651023993194824.0
13.0,13.0,-16.0,-14.0,-22.0,-16.0,72.0,19.0,1651023993194824.0
2.0,-10.0,16.0,7.0,-1.0,57.0,51.0,10.0,1651023993208853.0
-41.0,7.0,-23.0,-41.0,-12.0,-69.0,-124.0,-50.0,1651023993208853.0
10.0,-15.0,4.0,4.0,-4.0,-29.0,-6.0,2.0,1651023993215836.0
-6.0,-4.0,-22.0,-5.0,-1.0,23.0,-11.0,-16.0,1651023993215836.0
-14.0,6.0,-15.0,-38.0,-13.0,-10.0,23.0,11.0,1651023993232014.0
6.0,3.0,38.0,21.0,5.0,-18.0,1.0,14.0,1651023993232014.0
3.0,-5.0,-12.0,13.0,8.0,16.0,-5.0,-1.0,1651023993233972.0
-1.0,3.0,7.0,10.0,-3.0,10.0,8.0,-1.0,1651023993233972.0
9.0,-5.0,14.0,-3.0,5.0,4.0,11.0,6.0,1651023993245984.0
3.0,7.0,13.0,47.0,18.0,-20.0,-11.0,7.0,1651023993245984.0
0.0,6.0,-33.0,-36.0,-21.0,-23.0,-22.0,-11.0,1651023993255061.0
-2.0,11.0,-6.0,-21.0,2.0,39.0,12.0,-3.0,1651023993255061.0
-11.0,-1.0,10.0,24.0,-9.0,-27.0,-17.0,-2.0,1651023993268816.0
-7.0,-12.0,-1.0,-9.0,0.0,44.0,38.0,10.0,1651023993268816.0
11.0,6.0,-17.0,-7.0,1.0,-24.0,41.0,21.0,1651023993275889.0
-15.0,-2.0,7.0,-9.0,-9.0,28.0,-53.0,-24.0,1651023993275889.0
0.0,1.0,-10.0,-4.0,2.0,-34.0,-2.0,0.0,1651023993291866.0
2.0,4.0,41.0,25.0,3.0,15.0,26.0,11.0,1651023993291866.0
12.0,0.0,-15.0,1.0,1.0,-5.0,-4.0,-6.0,1651023993293800.0
0.0,2.0,-45.0,-29.0,-6.0,-18.0,2.0,-2.0,1651023993293800.0
-4.0,-5.0,-5.0,-30.0,-13.0,23.0,16.0,3.0,1651023993314808.0
12.0,10.0,32.0,67.0,36.0,-15.0,-6.0,11.0,1651023993314808.0
-9.0,-2.0,19.0,30.0,20.0,8.0,-5.0,-5.0,1651023993315867.0
-1.0,2.0,48.0,11.0,-12.0,-29.0,-14.0,-3.0,1651023993315867.0
-2.0,-7.0,-68.0,-14.0,-10.0,-11.0,-4.0,-3.0,1651023993328774.0
-7.0,0.0,8.0,-21.0,-11.0,32.0,25.0,4.0,1651023993328774.0
14.0,17.0,14.0,-2.0,2.0,40.0,21.0,20.0,1651023993335760.0
3.0,-11.0,-17.0,-10.0,15.0,2.0,-53.0,-24.0,1651023993335760.0
-5.0,14.0,66.0,45.0,16.0,-49.0,-22.0,1.0,1651023993351673.0
-1.0,4.0,-59.0,-39.0,-16.0,77.0,85.0,-3.0,1651023993351673.0
3.0,0.0,-4.0,3.0,-2.0,-14.0,-52.0,1.0,1651023993353667.0
5.0,2.0,2.0,-8.0,-23.0,4.0,48.0,23.0,1651023993353667.0
12.0,11.0,42.0,17.0,26.0,39.0,6.0,10.0,1651023993373306.0
-6.0,2.0,-6.0,23.0,12.0,-52.0,-51.0,-18.0,1651023993373306.0
-7.0,-10.0,-37.0,-61.0,-28.0,-13.0,-39.0,-28.0,1651023993382284.0
-3.0,-6.0,-13.0,-7.0,-18.0,-27.0,34.0,6.0,1651023993382284.0
7.0,2.0,-5.0,-17.0,-18.0,13.0,-16.0,-4.0,1651023993389333.0
2.0,11.0,89.0,54.0,21.0,-16.0,7.0,13.0,1651023993389333.0
-6.0,-1.0,-37.0,-8.0,17.0,16.0,-28.0,-17.0,1651023993391287.0
13.0,-7.0,11.0,-2.0,7.0,-27.0,-5.0,6.0,1651023993391287.0
-11.0,-1.0,-9.0,-11.0,-12.0,42.0,37.0,5.0,1651023993412269.0
-24.0,0.0,-3.0,-3.0,-1.0,-30.0,-6.0,2.0,1651023993412269.0
18.0,1.0,8.0,10.0,0.0,22.0,12.0,0.0,1651023993413202.0
-10.0,4.0,-2.0,-5.0,7.0,-16.0,-28.0,-11.0,1651023993413202.0
-11.0,-22.0,-22.0,-2.0,-1.0,17.0,64.0,6.0,1651023993434212.0
15.0,-6.0,-5.0,3.0,-9.0,16.0,-55.0,4.0,1651023993434212.0
-25.0,2.0,-17.0,-30.0,-8.0,-19.0,-4.0,-28.0,1651023993436140.0
-1.0,15.0,12.0,0.0,-11.0,6.0,45.0,12.0,1651023993436140.0
11.0,9.0,-2.0,-20.0,-4.0,0.0,0.0,-9.0,1651023993449019.0
3.0,-4.0,37.0,61.0,20.0,-41.0,7.0,17.0,1651023993449019.0
3.0,-21.0,-38.0,-24.0,-10.0,14.0,13.0,8.0,1651023993455970.0
16.0,4.0,17.0,9.0,7.0,10.0,-19.0,-3.0,1651023993455970.0
2.0,2.0,14.0,15.0,-4.0,-16.0,-1.0,-2.0,1651023993472001.0
4.0,3.0,-20.0,-60.0,-8.0,10.0,-6.0,-4.0,1651023993472001.0
0.0,2.0,22.0,28.0,17.0,-7.0,-12.0,1.0,1651023993473000.0
-7.0,-7.0,-30.0,-11.0,-13.0,11.0,58.0,16.0,1651023993473000.0
2.0,-4.0,22.0,18.0,1.0,-29.0,-84.0,-25.0,1651023993494941.0
5.0,0.0,-19.0,-4.0,-13.0,-6.0,-6.0,-9.0,1651023993494941.0
-9.0,-22.0,-7.0,10.0,28.0,-7.0,-14.0,0.0,1651023993495937.0
-3.0,13.0,16.0,-9.0,-8.0,67.0,14.0,-7.0,1651023993495937.0
3.0,-7.0,-11.0,-6.0,9.0,33.0,44.0,23.0,1651023993508904.0
11.0,2.0,31.0,26.0,-4.0,-14.0,-8.0,-2.0,1651023993508904.0
19.0,-10.0,-26.0,-25.0,-26.0,-39.0,30.0,19.0,1651023993515884.0
-14.0,-11.0,-34.0,-35.0,3.0,-8.0,-80.0,-20.0,1651023993515884.0
-7.0,5.0,31.0,30.0,19.0,4.0,1.0,-8.0,1651023993531238.0
-11.0,9.0,49.0,42.0,19.0,2.0,29.0,6.0,1651023993531238.0
-4.0,-30.0,-62.0,-53.0,-24.0,-7.0,-6.0,2.0,1651023993539190.0
11.0,12.0,36.0,29.0,3.0,-11.0,23.0,1.0,1651023993539190.0
-4.0,4.0,-1.0,34.0,20.0,2.0,-12.0,-7.0,1651023993554125.0
9.0,-11.0,-45.0,-54.0,-20.0,5.0,2.0,0.0,1651023993554125.0
-10.0,18.0,68.0,51.0,24.0,16.0,13.0,4.0,1651023993556115.0
-1.0,-9.0,-25.0,0.0,-9.0,-38.0,-11.0,-2.0,1651023993556115.0
-10.0,-17.0,-3.0,-21.0,-13.0,51.0,12.0,5.0,1651023993568083.0
-2.0,7.0,-41.0,-16.0,5.0,-21.0,-8.0,-5.0,1651023993568083.0
2.0,7.0,56.0,25.0,2.0,1.0,6.0,-2.0,1651023993577059.0
-10.0,-5.0,-39.0,-8.0,10.0,33.0,-15.0,-3.0,1651023993577059.0
5.0,-5.0,-29.0,-33.0,-22.0,-44.0,-33.0,-16.0,1651023993591925.0
-9.0,-18.0,-3.0,-12.0,-11.0,8.0,-3.0,0.0,1651023993591925.0
3.0,11.0,19.0,6.0,-13.0,-39.0,-26.0,-30.0,1651023993593878.0
8.0,10.0,57.0,25.0,9.0,26.0,67.0,39.0,1651023993593878.0
-3.0,-10.0,-54.0,-7.0,-2.0,2.0,-46.0,-6.0,1651023993621950.0
-9.0,-13.0,-62.0,-84.0,-17.0,-15.0,-23.0,-10.0,1651023993621950.0
-1.0,21.0,50.0,77.0,25.0,-11.0,2.0,7.0,1651023993623933.0
4.0,-5.0,-11.0,-16.0,-7.0,-1.0,16.0,-6.0,1651023993623933.0
3.0,-1.0,-5.0,-31.0,-15.0,5.0,19.0,10.0,1651023993628920.0
-3.0,9.0,34.0,38.0,1.0,-35.0,-22.0,-3.0,1651023993628920.0
5.0,-6.0,22.0,33.0,5.0,25.0,7.0,2.0,1651023993635901.0
0.0,10.0,-28.0,-13.0,4.0,27.0,-30.0,-9.0,1651023993635901.0
7.0,10.0,-19.0,-10.0,16.0,18.0,40.0,19.0,1651023993652016.0
-4.0,-5.0,-11.0,-11.0,-4.0,-37.0,-18.0,-13.0,1651023993652016.0
6.0,7.0,29.0,5.0,-10.0,29.0,22.0,19.0,1651023993653034.0
1.0,13.0,33.0,40.0,14.0,-44.0,-14.0,-7.0,1651023993653034.0
-9.0,-13.0,-40.0,-46.0,-22.0,36.0,14.0,-2.0,1651023993673963.0
13.0,-10.0,-12.0,-1.0,0.0,21.0,22.0,11.0,1651023993673963.0
-1.0,12.0,19.0,7.0,-2.0,9.0,25.0,12.0,1651023993675946.0
2.0,-10.0,-24.0,-31.0,-21.0,-57.0,-69.0,-18.0,1651023993675946.0
-10.0,12.0,50.0,44.0,26.0,-22.0,-29.0,-24.0,1651023993688911.0
-3.0,-23.0,-41.0,-34.0,-18.0,21.0,11.0,-4.0,1651023993688911.0
-8.0,0.0,27.0,8.0,-1.0,-1.0,-21.0,0.0,1651023993696902.0
6.0,3.0,-29.0,-16.0,0.0,3.0,37.0,12.0,1651023993696902.0
3.0,-10.0,-48.0,-53.0,-11.0,-25.0,11.0,2.0,1651023993711880.0
2.0,10.0,21.0,13.0,7.0,20.0,14.0,2.0,1651023993711880.0
5.0,-14.0,-24.0,-4.0,-7.0,-21.0,-32.0,-6.0,1651023993713846.0
-6.0,4.0,-7.0,-10.0,-2.0,34.0,29.0,1.0,1651023993713846.0
-7.0,-19.0,29.0,24.0,-4.0,18.0,4.0,-5.0,1651023993734846.0
-1.0,3.0,-14.0,-11.0,2.0,-32.0,-12.0,-3.0,1651023993734846.0
-18.0,11.0,4.0,-12.0,-3.0,-3.0,-42.0,-26.0,1651023993735788.0
-1.0,-7.0,31.0,35.0,24.0,-30.0,3.0,1.0,1651023993735788.0
1.0,3.0,-32.0,-21.0,-3.0,70.0,28.0,5.0,1651023993748819.0
-3.0,6.0,7.0,4.0,-15.0,-35.0,16.0,8.0,1651023993748819.0
7.0,7.0,8.0,2.0,5.0,63.0,73.0,19.0,1651023993755732.0
-13.0,-1.0,12.0,6.0,4.0,5.0,-51.0,-12.0,1651023993755732.0
4.0,2.0,21.0,-10.0,1.0,-32.0,12.0,6.0,1651023993779784.0
-4.0,4.0,21.0,-3.0,-5.0,1.0,-36.0,-13.0,1651023993779784.0
-11.0,1.0,-81.0,-20.0,-1.0,-25.0,-17.0,-5.0,1651023993780666.0
7.0,1.0,26.0,16.0,-1.0,9.0,41.0,14.0,1651023993780666.0
7.0,6.0,42.0,46.0,-2.0,-23.0,22.0,16.0,1651023993794655.0
-12.0,10.0,-14.0,-8.0,11.0,30.0,-7.0,-8.0,1651023993794655.0
9.0,3.0,-1.0,-18.0,-10.0,-43.0,-9.0,1.0,1651023993795626.0
-4.0,-20.0,-13.0,-23.0,-4.0,27.0,-49.0,-21.0,1651023993795626.0
3.0,2.0,14.0,42.0,20.0,-62.0,-24.0,-1.0,1651023993807781.0
2.0,10.0,-6.0,-3.0,0.0,98.0,67.0,15.0,1651023993807781.0
3.0,-3.0,11.0,9.0,-5.0,13.0,47.0,16.0,1651023993816721.0
-9.0,-10.0,8.0,2.0,2.0,10.0,-26.0,-17.0,1651023993816721.0
1.0,1.0,-29.0,-25.0,-17.0,-68.0,-17.0,-1.0,1651023993831803.0
-2.0,-19.0,-39.0,-44.0,-10.0,-17.0,-25.0,-13.0,1651023993831803.0
-11.0,-5.0,32.0,35.0,10.0,26.0,0.0,-9.0,1651023993833730.0
-4.0,-1.0,-22.0,-14.0,-29.0,-19.0,31.0,6.0,1651023993833730.0
5.0,4.0,-4.0,-5.0,2.0,-13.0,-38.0,2.0,1651023993854825.0
15.0,2.0,23.0,11.0,6.0,-7.0,-16.0,-5.0,1651023993854825.0
-6.0,11.0,-20.0,-7.0,-9.0,-28.0,-17.0,-6.0,1651023993855795.0
-1.0,-1.0,11.0,17.0,11.0,13.0,-15.0,-6.0,1651023993855795.0
-9.0,-7.0,-11.0,-11.0,5.0,36.0,38.0,3.0,1651023993867829.0
9.0,10.0,19.0,-7.0,-15.0,-34.0,-26.0,-6.0,1651023993867829.0
7.0,-6.0,10.0,38.0,29.0,20.0,9.0,13.0,1651023993876739.0
7.0,10.0,4.0,17.0,4.0,-8.0,26.0,13.0,1651023993876739.0
3.0,-18.0,-56.0,-38.0,-14.0,24.0,-7.0,-11.0,1651023993891699.0
-4.0,-2.0,16.0,19.0,11.0,43.0,9.0,5.0,1651023993891699.0
-1.0,-3.0,17.0,3.0,2.0,-63.0,-24.0,-5.0,1651023993893693.0
-7.0,-9.0,-49.0,-37.0,-16.0,18.0,45.0,7.0,1651023993893693.0
0.0,5.0,24.0,8.0,-12.0,-6.0,-56.0,-28.0,1651023993914738.0
-2.0,7.0,-6.0,-1.0,4.0,-14.0,-10.0,2.0,1651023993914738.0
-5.0,0.0,24.0,19.0,11.0,14.0,9.0,-5.0,1651023993915845.0
9.0,6.0,18.0,16.0,8.0,2.0,1.0,3.0,1651023993915845.0
3.0,12.0,-16.0,-16.0,-6.0,-11.0,17.0,13.0,1651023993927775.0
-4.0,-11.0,-15.0,3.0,-6.0,6.0,22.0,0.0,1651023993927775.0
-12.0,-6.0,-21.0,-35.0,-5.0,8.0,-15.0,-5.0,1651023993936681.0
1.0,4.0,18.0,9.0,20.0,-11.0,-52.0,-12.0,1651023993936681.0
2.0,1.0,21.0,36.0,-8.0,-17.0,0.0,2.0,1651023993952359.0
12.0,0.0,13.0,6.0,-7.0,-4.0,-2.0,1.0,1651023993952359.0
-1.0,-2.0,-8.0,-9.0,-13.0,-12.0,24.0,7.0,1651023993953359.0
1.0,-5.0,-28.0,-30.0,-10.0,34.0,20.0,5.0,1651023993953359.0
-9.0,2.0,2.0,-1.0,-2.0,-61.0,-36.0,-12.0,1651023993974371.0
7.0,5.0,26.0,41.0,28.0,69.0,33.0,13.0,1651023993974371.0
-2.0,-19.0,-63.0,-72.0,-10.0,13.0,-26.0,-20.0,1651023993976330.0
10.0,4.0,15.0,22.0,-7.0,-32.0,7.0,11.0,1651023993976330.0
-19.0,2.0,28.0,10.0,-1.0,6.0,6.0,-6.0,1651023993988329.0
5.0,16.0,30.0,21.0,9.0,17.0,26.0,4.0,1651023993988329.0
1.0,-1.0,-15.0,-24.0,-26.0,-19.0,-21.0,3.0,1651023993996742.0
-5.0,2.0,5.0,35.0,31.0,-11.0,-10.0,-3.0,1651023993996742.0
10.0,18.0,25.0,22.0,13.0,34.0,7.0,5.0,1651023994011826.0
-11.0,-21.0,-63.0,-55.0,-25.0,-47.0,-17.0,-4.0,1651023994011826.0
2.0,1.0,16.0,57.0,20.0,32.0,18.0,-1.0,1651023994013812.0
-7.0,1.0,2.0,-32.0,-27.0,-21.0,-15.0,-9.0,1651023994013812.0
6.0,8.0,-5.0,3.0,13.0,6.0,19.0,9.0,1651023994034847.0
-7.0,-5.0,6.0,28.0,25.0,10.0,-12.0,-5.0,1651023994034847.0
11.0,9.0,-1.0,-18.0,-19.0,-68.0,-47.0,0.0,1651023994036452.0
-6.0,-6.0,13.0,-3.0,-15.0,51.0,38.0,1.0,1651023994036452.0
2.0,-2.0,2.0,1.0,12.0,40.0,25.0,-4.0,1651023994047835.0
-10.0,-12.0,-28.0,-28.0,-9.0,33.0,-14.0,0.0,1651023994047835.0
2.0,-10.0,4.0,8.0,22.0,-15.0,19.0,5.0,1651023994056814.0
1.0,11.0,30.0,27.0,0.0,-14.0,-9.0,-11.0,1651023994056814.0
-5.0,-20.0,-62.0,-76.0,-32.0,3.0,14.0,11.0,1651023994071960.0
8.0,1.0,18.0,39.0,14.0,-46.0,-10.0,1.0,1651023994071960.0
-10.0,-6.0,-3.0,-12.0,-14.0,14.0,-23.0,-7.0,1651023994073907.0
5.0,-5.0,16.0,20.0,12.0,-1.0,-18.0,5.0,1651023994073907.0
0.0,-1.0,-23.0,-29.0,-14.0,-11.0,8.0,-3.0,1651023994094454.0
8.0,6.0,24.0,-7.0,-15.0,4.0,8.0,7.0,1651023994094454.0
-2.0,1.0,15.0,56.0,43.0,19.0,11.0,1.0,1651023994096390.0
5.0,-9.0,-48.0,-36.0,-9.0,-23.0,1.0,0.0,1651023994096390.0
2.0,6.0,20.0,24.0,-6.0,-2.0,4.0,2.0,1651023994108413.0
-7.0,-4.0,-7.0,-40.0,-27.0,-17.0,-8.0,-2.0,1651023994108413.0
7.0,-2.0,-13.0,-3.0,4.0,42.0,23.0,3.0,1651023994117325.0
-12.0,0.0,20.0,2.0,4.0,-12.0,12.0,0.0,1651023994117325.0
8.0,10.0,23.0,42.0,31.0,18.0,26.0,16.0,1651023994132347.0
-2.0,-9.0,-40.0,-13.0,-11.0,-2.0,-43.0,-12.0,1651023994132347.0
-14.0,7.0,45.0,3.0,0.0,10.0,9.0,7.0,1651023994133286.0
-3.0,-7.0,-87.0,-85.0,-26.0,-7.0,13.0,5.0,1651023994133286.0
-9.0,2.0,64.0,63.0,7.0,-33.0,-23.0,-17.0,1651023994154232.0
-6.0,3.0,-11.0,-6.0,21.0,10.0,31.0,1.0,1651023994154232.0
-3.0,-16.0,-45.0,-52.0,-20.0,-3.0,-13.0,-5.0,1651023994156223.0
0.0,5.0,19.0,49.0,19.0,-7.0,-1.0,1.0,1651023994156223.0
4.0,5.0,29.0,7.0,-5.0,22.0,28.0,9.0,1651023994167930.0
-2.0,3.0,-46.0,-37.0,-13.0,-4.0,-29.0,-14.0,1651023994167930.0
4.0,6.0,17.0,9.0,-1.0,-10.0,1.0,-2.0,1651023994176923.0
1.0,-7.0,14.0,-1.0,1.0,-24.0,-16.0,1.0,1651023994176923.0
-2.0,-13.0,-28.0,-15.0,0.0,18.0,9.0,-10.0,1651023994191997.0
2.0,2.0,42.0,35.0,7.0,24.0,22.0,13.0,1651023994191997.0
-5.0,-5.0,-63.0,-49.0,-17.0,2.0,0.0,-8.0,1651023994193924.0
0.0,12.0,13.0,4.0,-7.0,10.0,29.0,13.0,1651023994193924.0
-23.0,4.0,46.0,48.0,33.0,-10.0,-51.0,-13.0,1651023994215040.0
-5.0,-26.0,-58.0,-30.0,-6.0,-13.0,8.0,-4.0,1651023994215040.0
1.0,3.0,10.0,-15.0,-5.0,-17.0,-10.0,-11.0,1651023994216902.0
8.0,6.0,21.0,7.0,-13.0,14.0,-18.0,-9.0,1651023994216902.0
-3.0,-9.0,4.0,-14.0,-19.0,-17.0,2.0,2.0,1651023994236980.0
-1.0,8.0,-3.0,31.0,18.0,1.0,19.0,10.0,1651023994236980.0
9.0,4.0,12.0,14.0,4.0,9.0,10.0,5.0,1651023994238907.0
-2.0,-2.0,-11.0,-2.0,2.0,-52.0,-19.0,3.0,1651023994238907.0
6.0,15.0,31.0,9.0,9.0,61.0,16.0,-1.0,1651023994251900.0
-7.0,-8.0,-18.0,-18.0,-14.0,-17.0,-1.0,-7.0,1651023994251900.0
3.0,-13.0,-41.0,-32.0,-18.0,-12.0,-6.0,4.0,1651023994253887.0
3.0,12.0,32.0,17.0,11.0,-9.0,-15.0,-9.0,1651023994253887.0
0.0,-11.0,-51.0,-24.0,-6.0,16.0,8.0,3.0,1651023994274820.0
1.0,1.0,40.0,30.0,2.0,-22.0,-7.0,0.0,1651023994274820.0
3.0,16.0,13.0,10.0,-4.0,18.0,5.0,1.0,1651023994275924.0
-9.0,-14.0,-13.0,-13.0,10.0,1.0,-3.0,-8.0,1651023994275924.0
7.0,-1.0,-20.0,-22.0,-17.0,-22.0,-10.0,2.0,1651023994296940.0
4.0,9.0,27.0,34.0,30.0,12.0,25.0,9.0,1651023994296940.0
-4.0,-5.0,1.0,-8.0,-17.0,2.0,-15.0,-4.0,1651023994298946.0
0.0,1.0,2.0,10.0,-2.0,7.0,3.0,-1.0,1651023994298946.0
5.0,4.0,7.0,6.0,12.0,-8.0,-11.0,4.0,1651023994310947.0
-3.0,-2.0,2.0,2.0,-11.0,-16.0,0.0,-2.0,1651023994310947.0
-4.0,-4.0,7.0,3.0,0.0,-9.0,3.0,-1.0,1651023994319866.0
1.0,-4.0,-27.0,-12.0,0.0,15.0,10.0,2.0,1651023994319866.0
0.0,-5.0,-17.0,-21.0,-18.0,-10.0,-10.0,-3.0,1651023994333914.0
-1.0,5.0,29.0,7.0,1.0,-6.0,-8.0,0.0,1651023994333914.0
1.0,-1.0,13.0,19.0,14.0,28.0,18.0,1.0,1651023994341820.0
0.0,-3.0,-1.0,4.0,11.0,34.0,-8.0,2.0,1651023994341820.0
1.0,3.0,2.0,-6.0,-9.0,-18.0,-5.0,0.0,1651023994356894.0
-2.0,0.0,0.0,5.0,14.0,2.0,0.0,-4.0,1651023994356894.0
1.0,1.0,10.0,8.0,-4.0,-16.0,-7.0,0.0,1651023994358887.0
-3.0,-3.0,-18.0,-17.0,-14.0,-5.0,-3.0,-2.0,1651023994358887.0
-2.0,-2.0,-7.0,-7.0,-17.0,3.0,8.0,2.0,1651023994371919.0
-1.0,4.0,13.0,0.0,20.0,0.0,-10.0,-3.0,1651023994371919.0
-2.0,-1.0,-5.0,-4.0,-2.0,-10.0,-4.0,0.0,1651023994373874.0
-1.0,1.0,16.0,11.0,7.0,6.0,7.0,2.0,1651023994373874.0
0.0,-7.0,-17.0,5.0,-3.0,15.0,5.0,2.0,1651023994394019.0
1.0,1.0,4.0,-3.0,-7.0,-8.0,-10.0,-2.0,1651023994394019.0
1.0,6.0,5.0,-1.0,5.0,1.0,2.0,-1.0,1651023994396016.0
-1.0,-6.0,-19.0,-8.0,-4.0,4.0,0.0,-1.0,1651023994396016.0
0.0,6.0,14.0,3.0,1.0,-20.0,-8.0,-4.0,1651023994417188.0
0.0,-26.0,-41.0,-16.0,-16.0,6.0,-2.0,-2.0,1651023994417188.0
-10.0,-7.0,29.0,7.0,6.0,8.0,3.0,-2.0,1651023994418131.0
1.0,3.0,-11.0,-5.0,3.0,-1.0,0.0,0.0,1651023994418131.0
5.0,-7.0,-10.0,15.0,28.0,3.0,0.0,2.0,1651023994431709.0
5.0,31.0,23.0,4.0,-9.0,-3.0,2.0,3.0,1651023994431709.0
-17.0,-56.0,-49.0,-10.0,-3.0,-7.0,-5.0,-6.0,1651023994437740.0
5.0,24.0,12.0,-3.0,-16.0,0.0,-1.0,0.0,1651023994437740.0
1.0,4.0,2.0,-5.0,-13.0,-10.0,2.0,0.0,1651023994454694.0
6.0,4.0,25.0,14.0,21.0,13.0,-2.0,-1.0,1651023994454694.0
3.0,22.0,23.0,14.0,3.0,5.0,1.0,6.0,1651023994455734.0
-5.0,5.0,25.0,7.0,-1.0,-1.0,2.0,-2.0,1651023994455734.0
-7.0,-37.0,-79.0,-26.0,-19.0,-7.0,-5.0,-3.0,1651023994476688.0
1.0,-33.0,-47.0,-22.0,18.0,-7.0,-4.0,-3.0,1651023994476688.0
-21.0,-2.0,8.0,-3.0,-7.0,-2.0,-5.0,-10.0,1651023994478642.0
-9.0,-12.0,13.0,8.0,0.0,-1.0,4.0,1.0,1651023994478642.0
15.0,66.0,84.0,24.0,12.0,6.0,0.0,7.0,1651023994492191.0
2.0,13.0,29.0,5.0,-20.0,-9.0,0.0,4.0,1651023994492191.0
4.0,-22.0,-54.0,-25.0,-7.0,-14.0,-4.0,-3.0,1651023994498244.0
-2.0,-5.0,0.0,-2.0,8.0,1.0,-5.0,-1.0,1651023994498244.0
0.0,-13.0,-19.0,9.0,16.0,37.0,18.0,-1.0,1651023994514251.0
7.0,24.0,39.0,13.0,-11.0,-4.0,-1.0,1.0,1651023994514251.0
-7.0,-10.0,-24.0,-11.0,-8.0,-15.0,-5.0,-6.0,1651023994516261.0
-4.0,-38.0,-26.0,-5.0,-21.0,-15.0,-9.0,-4.0,1651023994516261.0
2.0,12.0,15.0,-2.0,10.0,8.0,4.0,5.0,1651023994537251.0
-7.0,12.0,5.0,4.0,0.0,8.0,-6.0,0.0,1651023994537251.0
16.0,18.0,14.0,13.0,27.0,6.0,6.0,10.0,1651023994538214.0
-13.0,-23.0,-6.0,0.0,-14.0,-17.0,-8.0,-4.0,1651023994538214.0
3.0,-18.0,5.0,-3.0,26.0,6.0,1.0,0.0,1651023994550221.0
2.0,25.0,12.0,15.0,2.0,8.0,5.0,2.0,1651023994550221.0
-15.0,-44.0,-70.0,-31.0,-53.0,-14.0,-5.0,-9.0,1651023994559285.0
1.0,7.0,-4.0,-21.0,32.0,1.0,-8.0,-7.0,1651023994559285.0
-3.0,-23.0,19.0,11.0,-12.0,-1.0,1.0,1.0,1651023994574219.0
-5.0,1.0,7.0,3.0,-3.0,-4.0,1.0,-1.0,1651023994574219.0
19.0,81.0,41.0,24.0,22.0,10.0,3.0,6.0,1651023994576228.0
6.0,-22.0,-9.0,-2.0,-8.0,8.0,4.0,2.0,1651023994576228.0
-8.0,-25.0,-1.0,-13.0,-17.0,-14.0,-5.0,-1.0,1651023994597328.0
1.0,15.0,-28.0,-12.0,1.0,-9.0,-5.0,-8.0,1651023994597328.0
2.0,-13.0,7.0,5.0,9.0,4.0,-2.0,3.0,1651023994598259.0
-4.0,20.0,6.0,5.0,-1.0,7.0,4.0,-1.0,1651023994598259.0
4.0,14.0,15.0,2.0,4.0,-7.0,-5.0,-3.0,1651023994610295.0
2.0,-1.0,-14.0,-10.0,-22.0,-7.0,-2.0,1.0,1651023994610295.0
-11.0,-21.0,26.0,2.0,-3.0,2.0,3.0,2.0,1651023994619245.0
4.0,33.0,-11.0,0.0,9.0,-1.0,5.0,4.0,1651023994619245.0
-9.0,-20.0,12.0,6.0,15.0,5.0,-7.0,-7.0,1651023994634933.0
-4.0,-10.0,-29.0,-4.0,-16.0,-5.0,2.0,1.0,1651023994634933.0
16.0,33.0,36.0,12.0,25.0,12.0,1.0,3.0,1651023994635935.0
4.0,4.0,-11.0,-1.0,-11.0,-3.0,0.0,2.0,1651023994635935.0
-1.0,21.0,-13.0,-5.0,-19.0,-10.0,-2.0,1.0,1651023994656933.0
2.0,-20.0,7.0,0.0,6.0,-3.0,-3.0,-1.0,1651023994656933.0
-5.0,7.0,-4.0,-6.0,-19.0,-4.0,-3.0,0.0,1651023994658953.0
1.0,14.0,6.0,3.0,20.0,9.0,2.0,-1.0,1651023994658953.0
1.0,15.0,-10.0,-3.0,-9.0,0.0,-2.0,-3.0,1651023994670955.0
-9.0,-14.0,6.0,-2.0,7.0,-1.0,-3.0,-4.0,1651023994670955.0
8.0,3.0,6.0,8.0,3.0,0.0,1.0,2.0,1651023994679880.0
-2.0,-25.0,-18.0,-6.0,-9.0,-1.0,-1.0,0.0,1651023994679880.0
-16.0,-47.0,-2.0,-4.0,-5.0,-6.0,-4.0,-7.0,1651023994694880.0
0.0,-25.0,-1.0,2.0,1.0,0.0,0.0,2.0,1651023994694880.0
4.0,24.0,11.0,5.0,0.0,1.0,0.0,-2.0,1651023994695880.0
10.0,4.0,13.0,6.0,6.0,5.0,3.0,5.0,1651023994695880.0
5.0,20.0,-9.0,-9.0,-8.0,-7.0,-2.0,2.0,1651023994716990.0
-3.0,8.0,-4.0,-6.0,-18.0,-6.0,-4.0,-6.0,1651023994716990.0
4.0,-11.0,2.0,5.0,20.0,8.0,1.0,2.0,1651023994718932.0
1.0,15.0,11.0,6.0,0.0,0.0,-1.0,-2.0,1651023994718932.0
-3.0,-12.0,-13.0,-2.0,-1.0,-4.0,0.0,0.0,1651023994731946.0
-3.0,-5.0,-9.0,-12.0,-18.0,-5.0,-1.0,-1.0,1651023994731946.0
3.0,25.0,5.0,-2.0,8.0,-1.0,-1.0,1.0,1651023994737934.0
-16.0,-38.0,-12.0,0.0,10.0,2.0,-4.0,-7.0,1651023994737934.0
7.0,23.0,-5.0,2.0,-6.0,2.0,1.0,3.0,1651023994754882.0
-2.0,9.0,-3.0,0.0,11.0,3.0,0.0,1.0,1651023994754882.0
0.0,-12.0,5.0,1.0,-10.0,-3.0,0.0,-1.0,1651023994755820.0
4.0,-5.0,2.0,0.0,-6.0,0.0,0.0,0.0,1651023994755820.0
6.0,36.0,8.0,1.0,7.0,-2.0,1.0,1.0,1651023994776878.0
2.0,2.0,-12.0,-4.0,-8.0,-1.0,1.0,2.0,1651023994776878.0
-15.0,-61.0,-31.0,-16.0,-13.0,-4.0,-4.0,-8.0,1651023994778868.0
6.0,17.0,10.0,6.0,9.0,4.0,1.0,3.0,1651023994778868.0
-1.0,-6.0,-4.0,1.0,4.0,3.0,0.0,1.0,1651023994790927.0
3.0,20.0,-1.0,0.0,2.0,-1.0,1.0,1.0,1651023994790927.0
-4.0,-32.0,-5.0,-2.0,-5.0,-4.0,0.0,-1.0,1651023994799903.0
1.0,-3.0,-5.0,-3.0,-3.0,1.0,-2.0,0.0,1651023994799903.0
-13.0,-19.0,-3.0,-4.0,-4.0,-3.0,-2.0,-3.0,1651023994814875.0
4.0,4.0,4.0,2.0,1.0,-2.0,2.0,1.0,1651023994814875.0
1.0,24.0,8.0,4.0,6.0,3.0,-1.0,-1.0,1651023994815859.0
-5.0,16.0,0.0,-6.0,-21.0,-5.0,-2.0,-4.0,1651023994815859.0
-2.0,-15.0,3.0,6.0,6.0,-4.0,0.0,1.0,1651023994837008.0
-9.0,-24.0,-6.0,-1.0,12.0,6.0,-2.0,-3.0,1651023994837008.0
5.0,29.0,4.0,-3.0,-15.0,-5.0,-1.0,0.0,1651023994838946.0
5.0,9.0,7.0,-2.0,5.0,-3.0,1.0,2.0,1651023994838946.0
-3.0,-14.0,-4.0,10.0,1.0,7.0,2.0,0.0,1651023994850970.0
-2.0,27.0,8.0,1.0,1.0,-4.0,-3.0,-3.0,1651023994850970.0
4.0,-3.0,0.0,1.0,0.0,2.0,1.0,1.0,1651023994859878.0
-2.0,6.0,2.0,-3.0,-6.0,0.0,0.0,0.0,1651023994859878.0
-9.0,-7.0,-13.0,-10.0,-5.0,-6.0,-4.0,-5.0,1651023994873895.0
-9.0,-6.0,-5.0,-5.0,-4.0,-2.0,-3.0,-6.0,1651023994873895.0
2.0,-23.0,-7.0,-2.0,-12.0,-4.0,-1.0,1.0,1651023994875892.0
8.0,12.0,-14.0,1.0,12.0,6.0,2.0,3.0,1651023994875892.0
4.0,-19.0,1.0,-3.0,5.0,0.0,-1.0,-1.0,1651023994897082.0
5.0,-1.0,11.0,4.0,-3.0,-6.0,1.0,1.0,1651023994897082.0
5.0,12.0,6.0,2.0,4.0,4.0,1.0,1.0,1651023994898075.0
-2.0,-53.0,-9.0,2.0,-4.0,-2.0,1.0,1.0,1651023994898075.0
0.0,18.0,4.0,-3.0,-1.0,0.0,0.0,0.0,1651023994911070.0
-5.0,-39.0,-13.0,0.0,4.0,0.0,1.0,0.0,1651023994911070.0
1.0,3.0,5.0,4.0,11.0,0.0,-2.0,1.0,1651023994927079.0
2.0,-24.0,-1.0,2.0,-6.0,2.0,3.0,2.0,1651023994927079.0
2.0,44.0,1.0,-2.0,-2.0,-3.0,-2.0,-5.0,1651023994934120.0
3.0,12.0,3.0,-4.0,-13.0,-4.0,1.0,0.0,1651023994934120.0
0.0,26.0,0.0,-5.0,4.0,2.0,1.0,-2.0,1651023994936057.0
-2.0,-10.0,2.0,1.0,14.0,2.0,-1.0,0.0,1651023994936057.0
-1.0,-21.0,-2.0,6.0,-4.0,-2.0,2.0,2.0,1651023994957087.0
3.0,-1.0,-3.0,-1.0,2.0,0.0,1.0,2.0,1651023994957087.0
-10.0,-21.0,0.0,2.0,-2.0,-1.0,2.0,-3.0,1651023994958006.0
-6.0,-12.0,-11.0,-6.0,-8.0,-3.0,-4.0,-5.0,1651023994958006.0
6.0,-36.0,-3.0,-1.0,4.0,2.0,1.0,3.0,1651023994971008.0
-3.0,13.0,-14.0,-6.0,-1.0,-3.0,-6.0,-5.0,1651023994971008.0
1.0,10.0,12.0,11.0,2.0,0.0,1.0,-1.0,1651023994979940.0
7.0,43.0,5.0,-2.0,-12.0,-5.0,0.0,-2.0,1651023994979940.0
-5.0,15.0,20.0,13.0,11.0,5.0,-2.0,-3.0,1651023994993918.0
0.0,-22.0,-5.0,0.0,2.0,3.0,1.0,1.0,1651023994993918.0
-2.0,11.0,-10.0,-5.0,0.0,0.0,-3.0,-2.0,1651023994995897.0
-1.0,5.0,7.0,-2.0,-13.0,-7.0,0.0,-2.0,1651023994995897.0
3.0,-9.0,-14.0,-7.0,3.0,-1.0,0.0,2.0,1651023995016842.0
1.0,8.0,9.0,4.0,1.0,-1.0,2.0,1.0,1651023995016842.0
3.0,15.0,7.0,5.0,4.0,6.0,1.0,0.0,1651023995018836.0
-1.0,6.0,7.0,2.0,4.0,2.0,0.0,-2.0,1651023995018836.0
-1.0,2.0,-5.0,-6.0,-9.0,-3.0,0.0,1.0,1651023995030969.0
-5.0,-21.0,0.0,0.0,1.0,-1.0,-1.0,-1.0,1651023995030969.0
2.0,-6.0,-2.0,-5.0,-15.0,-8.0,-2.0,1.0,1651023995039948.0
-4.0,-3.0,-1.0,-3.0,6.0,4.0,-1.0,-2.0,1651023995039948.0
-3.0,-30.0,-2.0,3.0,11.0,-1.0,1.0,0.0,1651023995054064.0
1.0,34.0,10.0,4.0,-2.0,0.0,0.0,0.0,1651023995054064.0
4.0,0.0,-4.0,2.0,0.0,0.0,1.0,3.0,1651023995056061.0
-3.0,5.0,-3.0,-3.0,-3.0,-2.0,-1.0,2.0,1651023995056061.0
-16.0,5.0,-8.0,-8.0,-8.0,-4.0,-5.0,-6.0,1651023995077356.0
-6.0,-38.0,-10.0,-3.0,3.0,1.0,0.0,-2.0,1651023995077356.0
5.0,43.0,11.0,-2.0,-1.0,-1.0,1.0,1.0,1651023995078296.0
-3.0,-15.0,-7.0,-1.0,0.0,0.0,-1.0,-1.0,1651023995078296.0
2.0,20.0,-2.0,-3.0,-3.0,-2.0,-2.0,-1.0,1651023995090326.0
-2.0,-20.0,-3.0,-3.0,-13.0,-3.0,-1.0,0.0,1651023995090326.0
-3.0,-2.0,-1.0,0.0,11.0,1.0,-1.0,-2.0,1651023995099942.0
6.0,40.0,11.0,7.0,9.0,1.0,1.0,-1.0,1651023995099942.0
7.0,16.0,4.0,1.0,-9.0,0.0,3.0,2.0,1651023995114408.0
6.0,-11.0,0.0,1.0,4.0,1.0,1.0,4.0,1651023995114408.0
0.0,-17.0,-1.0,-1.0,-6.0,-3.0,-1.0,0.0,1651023995116337.0
1.0,6.0,1.0,0.0,1.0,0.0,-2.0,-1.0,1651023995116337.0
-8.0,-4.0,-3.0,-1.0,1.0,1.0,-2.0,-2.0,1651023995136964.0
7.0,13.0,5.0,0.0,-3.0,-1.0,-1.0,-1.0,1651023995136964.0
-4.0,21.0,-1.0,-2.0,1.0,-1.0,0.0,2.0,1651023995138899.0
-4.0,-26.0,-8.0,-2.0,-16.0,-6.0,0.0,0.0,1651023995138899.0
-4.0,-9.0,0.0,1.0,2.0,0.0,-1.0,-2.0,1651023995150934.0
0.0,-15.0,4.0,2.0,14.0,10.0,3.0,1.0,1651023995150934.0
-4.0,1.0,-9.0,-3.0,-5.0,-5.0,-3.0,-2.0,1651023995159843.0
-7.0,-17.0,1.0,0.0,-1.0,0.0,-1.0,-2.0,1651023995159843.0
3.0,-11.0,-4.0,1.0,-5.0,-3.0,1.0,2.0,1651023995174804.0
3.0,-3.0,-5.0,0.0,2.0,1.0,0.0,2.0,1651023995174804.0
4.0,-35.0,-8.0,-1.0,2.0,3.0,1.0,1.0,1651023995175800.0
-8.0,4.0,1.0,-2.0,-5.0,-1.0,-4.0,-2.0,1651023995175800.0
4.0,20.0,4.0,0.0,1.0,0.0,2.0,0.0,1651023995195995.0
1.0,8.0,2.0,0.0,2.0,-3.0,-2.0,-3.0,1651023995195995.0
1.0,-4.0,-3.0,-3.0,-17.0,-4.0,0.0,-2.0,1651023995205014.0
2.0,-3.0,1.0,1.0,21.0,3.0,0.0,2.0,1651023995205014.0
9.0,4.0,4.0,2.0,-6.0,3.0,1.0,3.0,1651023995219943.0
-8.0,-5.0,1.0,2.0,8.0,-1.0,0.0,-4.0,1651023995219943.0
2.0,7.0,3.0,0.0,-6.0,-2.0,-2.0,-1.0,1651023995220941.0
4.0,16.0,1.0,1.0,0.0,0.0,1.0,-1.0,1651023995220941.0
-11.0,-33.0,-6.0,-3.0,-2.0,0.0,-3.0,-3.0,1651023995234842.0
3.0,7.0,-1.0,-2.0,-5.0,-2.0,-1.0,0.0,1651023995234842.0
-9.0,-61.0,-14.0,-3.0,2.0,0.0,-1.0,-2.0,1651023995235844.0
2.0,-10.0,-2.0,-2.0,0.0,0.0,-1.0,0.0,1651023995235844.0
4.0,20.0,2.0,4.0,4.0,-2.0,-3.0,-2.0,1651023995256977.0
-5.0,1.0,-1.0,-1.0,-3.0,-2.0,-1.0,-1.0,1651023995256977.0
0.0,10.0,0.0,1.0,6.0,1.0,-1.0,-1.0,1651023995258928.0
0.0,9.0,0.0,-3.0,-12.0,-9.0,-2.0,0.0,1651023995258928.0
-5.0,-37.0,-5.0,-5.0,11.0,8.0,0.0,-1.0,1651023995278932.0
1.0,20.0,5.0,3.0,2.0,1.0,0.0,0.0,1651023995278932.0
0.0,55.0,12.0,0.0,-3.0,-1.0,0.0,0.0,1651023995286926.0
-3.0,-8.0,-2.0,0.0,-2.0,-1.0,0.0,1.0,1651023995286926.0
3.0,21.0,4.0,-1.0,-5.0,-4.0,-1.0,0.0,1651023995294892.0
-1.0,-5.0,2.0,1.0,0.0,2.0,-2.0,0.0,1651023995294892.0
-2.0,-4.0,-10.0,-3.0,1.0,-1.0,-1.0,-3.0,1651023995295887.0
-1.0,-2.0,1.0,1.0,-1.0,0.0,-1.0,-2.0,1651023995295887.0
1.0,24.0,4.0,0.0,11.0,-2.0,0.0,0.0,1651023995316026.0
6.0,16.0,-5.0,-5.0,-9.0,-3.0,0.0,-1.0,1651023995316026.0
2.0,-10.0,-3.0,-2.0,-6.0,-5.0,-1.0,1.0,1651023995324835.0
-3.0,-3.0,-5.0,-2.0,5.0,6.0,0.0,-1.0,1651023995324835.0
-1.0,19.0,-4.0,0.0,-2.0,-3.0,1.0,-1.0,1651023995339836.0
-1.0,-4.0,0.0,1.0,1.0,0.0,1.0,2.0,1651023995339836.0
2.0,-14.0,2.0,1.0,0.0,1.0,-2.0,0.0,1651023995340800.0
3.0,12.0,-1.0,0.0,1.0,0.0,3.0,2.0,1651023995340800.0
8.0,18.0,3.0,-2.0,-4.0,-1.0,0.0,3.0,1651023995354760.0
-9.0,-39.0,-9.0,-4.0,-6.0,-2.0,-2.0,-3.0,1651023995354760.0
0.0,6.0,6.0,1.0,2.0,0.0,-2.0,-1.0,1651023995355766.0
-7.0,4.0,2.0,4.0,9.0,4.0,0.0,-3.0,1651023995355766.0
6.0,20.0,3.0,2.0,-4.0,0.0,1.0,1.0,1651023995376850.0
-2.0,37.0,7.0,0.0,-4.0,-1.0,-3.0,-3.0,1651023995376850.0
0.0,-8.0,1.0,-1.0,-7.0,-4.0,0.0,1.0,1651023995378777.0
2.0,1.0,1.0,-2.0,5.0,4.0,0.0,2.0,1651023995378777.0
2.0,1.0,-4.0,-4.0,-14.0,-5.0,-2.0,0.0,1651023995399905.0
4.0,10.0,1.0,-1.0,9.0,-1.0,-2.0,1.0,1651023995399905.0
-4.0,8.0,2.0,1.0,8.0,1.0,-1.0,-2.0,1651023995400903.0
6.0,24.0,1.0,-1.0,-11.0,-4.0,-1.0,0.0,1651023995400903.0
-4.0,-17.0,-4.0,0.0,0.0,-2.0,0.0,-1.0,1651023995413868.0
-2.0,-13.0,-2.0,0.0,-5.0,-1.0,0.0,-1.0,1651023995413868.0
0.0,-12.0,-1.0,-1.0,6.0,4.0,0.0,1.0,1651023995420908.0
3.0,41.0,4.0,0.0,-2.0,-4.0,0.0,-3.0,1651023995420908.0
-3.0,-10.0,-3.0,-1.0,-1.0,0.0,-2.0,-1.0,1651023995436873.0
12.0,-5.0,0.0,5.0,4.0,2.0,3.0,4.0,1651023995436873.0
-16.0,17.0,2.0,-2.0,1.0,-4.0,-5.0,-8.0,1651023995438801.0
0.0,-20.0,-4.0,-4.0,-6.0,0.0,-1.0,1.0,1651023995438801.0
0.0,-8.0,-2.0,-3.0,-2.0,-4.0,-2.0,-2.0,1651023995459930.0
-2.0,2.0,1.0,-2.0,-6.0,-3.0,-1.0,1.0,1651023995459930.0
3.0,-3.0,0.0,4.0,12.0,10.0,3.0,2.0,1651023995460928.0
0.0,-11.0,4.0,-2.0,-11.0,-2.0,2.0,0.0,1651023995460928.0
-2.0,-16.0,-3.0,-2.0,-8.0,-9.0,-1.0,-2.0,1651023995473925.0
-5.0,-18.0,-2.0,3.0,25.0,7.0,-1.0,-2.0,1651023995473925.0
3.0,5.0,2.0,-1.0,-10.0,-3.0,1.0,2.0,1651023995481872.0
-9.0,-26.0,-1.0,1.0,-4.0,-3.0,-2.0,-3.0,1651023995481872.0
3.0,2.0,2.0,0.0,-2.0,3.0,1.0,2.0,1651023995497345.0
2.0,17.0,-2.0,-4.0,-12.0,-4.0,-1.0,-2.0,1651023995497345.0
-8.0,-10.0,-1.0,-1.0,2.0,-2.0,-3.0,-4.0,1651023995498869.0
0.0,-17.0,-2.0,2.0,3.0,-1.0,1.0,1.0,1651023995498869.0
-2.0,1.0,0.0,-1.0,-4.0,-2.0,-2.0,-2.0,1651023995519846.0
-1.0,27.0,5.0,-1.0,2.0,0.0,-2.0,-1.0,1651023995519846.0
4.0,-8.0,-2.0,2.0,2.0,2.0,3.0,2.0,1651023995520811.0
0.0,-12.0,-1.0,1.0,-1.0,-1.0,-2.0,0.0,1651023995520811.0
7.0,-14.0,4.0,3.0,4.0,4.0,1.0,2.0,1651023995533839.0
-1.0,13.0,1.0,-2.0,-4.0,-2.0,-1.0,-2.0,1651023995533839.0
1.0,3.0,0.0,-1.0,0.0,-1.0,0.0,2.0,1651023995540820.0
0.0,-5.0,0.0,3.0,2.0,-2.0,2.0,1.0,1651023995540820.0
1.0,18.0,3.0,3.0,3.0,0.0,1.0,0.0,1651023995556893.0
-1.0,-23.0,-7.0,-2.0,-4.0,0.0,3.0,0.0,1651023995556893.0
1.0,-6.0,-2.0,-4.0,-3.0,-3.0,-1.0,2.0,1651023995562876.0
-1.0,-2.0,-2.0,-3.0,1.0,0.0,-1.0,-4.0,1651023995562876.0
-5.0,-4.0,-5.0,-1.0,2.0,2.0,1.0,-1.0,1651023995579958.0
-3.0,10.0,5.0,-3.0,-17.0,-5.0,-1.0,-1.0,1651023995579958.0
-1.0,4.0,2.0,1.0,12.0,0.0,-1.0,-4.0,1651023995580929.0
-3.0,-6.0,-3.0,1.0,4.0,1.0,0.0,-1.0,1651023995580929.0
-4.0,-4.0,0.0,-1.0,1.0,2.0,-2.0,-1.0,1651023995608944.0
-3.0,-23.0,-8.0,0.0,3.0,3.0,0.0,1.0,1651023995608944.0
4.0,-8.0,1.0,-1.0,-9.0,0.0,1.0,1.0,1651023995610940.0
-2.0,-6.0,1.0,-1.0,-2.0,0.0,-2.0,-1.0,1651023995610940.0
1.0,32.0,3.0,-5.0,-15.0,-2.0,-2.0,0.0,1651023995616949.0
-4.0,-3.0,-3.0,0.0,12.0,-4.0,-2.0,-3.0,1651023995616949.0
1.0,0.0,0.0,4.0,10.0,5.0,3.0,0.0,1651023995618938.0
0.0,-1.0,-1.0,1.0,-2.0,0.0,0.0,0.0,1651023995618938.0
-2.0,-9.0,-8.0,-1.0,-2.0,-1.0,-1.0,-2.0,1651023995639892.0
-3.0,8.0,2.0,-1.0,-6.0,0.0,1.0,0.0,1651023995639892.0
0.0,20.0,-7.0,-7.0,-8.0,-7.0,-2.0,-1.0,1651023995640858.0
-2.0,0.0,0.0,0.0,-1.0,-1.0,-3.0,-3.0,1651023995640858.0
-1.0,-4.0,0.0,2.0,4.0,1.0,0.0,0.0,1651023995653890.0
4.0,11.0,4.0,0.0,-9.0,1.0,0.0,0.0,1651023995653890.0
-4.0,-16.0,-8.0,0.0,13.0,-1.0,-2.0,-2.0,1651023995660871.0
2.0,2.0,-1.0,-2.0,-5.0,0.0,0.0,1.0,1651023995660871.0
-1.0,-3.0,0.0,-3.0,2.0,-1.0,1.0,-1.0,1651023995676943.0
-2.0,-11.0,-3.0,-1.0,-1.0,-2.0,0.0,-2.0,1651023995676943.0
-1.0,-26.0,-7.0,-1.0,-10.0,-1.0,0.0,-1.0,1651023995678894.0
-3.0,-31.0,-7.0,-4.0,0.0,-1.0,-2.0,-2.0,1651023995678894.0
-2.0,-6.0,0.0,0.0,7.0,0.0,0.0,-2.0,1651023995699816.0
-3.0,-6.0,2.0,2.0,1.0,1.0,-1.0,-2.0,1651023995699816.0
2.0,-11.0,-7.0,-1.0,-7.0,0.0,-1.0,2.0,1651023995700817.0
2.0,19.0,2.0,2.0,1.0,1.0,-1.0,-1.0,1651023995700817.0
-3.0,9.0,-1.0,-2.0,-6.0,-5.0,-1.0,0.0,1651023995721941.0
0.0,-6.0,-5.0,-3.0,7.0,2.0,-1.0,1.0,1651023995721941.0
2.0,0.0,3.0,2.0,1.0,-3.0,0.0,1.0,1651023995723946.0
1.0,3.0,-4.0,-2.0,-7.0,2.0,2.0,-1.0,1651023995723946.0
-9.0,-25.0,-3.0,2.0,15.0,3.0,-2.0,-5.0,1651023995736957.0
4.0,-2.0,0.0,2.0,-2.0,0.0,0.0,0.0,1651023995736957.0
-2.0,8.0,4.0,-2.0,-3.0,0.0,-1.0,0.0,1651023995738917.0
-2.0,1.0,0.0,-4.0,-1.0,-2.0,-1.0,2.0,1651023995738917.0
0.0,8.0,1.0,-2.0,-8.0,-4.0,-1.0,-1.0,1651023995759931.0
-4.0,-4.0,-2.0,0.0,0.0,-2.0,-1.0,-2.0,1651023995759931.0
2.0,2.0,4.0,1.0,-3.0,2.0,1.0,2.0,1651023995760929.0
5.0,16.0,-1.0,-3.0,-7.0,-2.0,0.0,-1.0,1651023995760929.0
-4.0,29.0,3.0,7.0,18.0,5.0,0.0,0.0,1651023995772897.0
-2.0,-1.0,2.0,0.0,-4.0,-3.0,0.0,-2.0,1651023995772897.0
3.0,8.0,4.0,0.0,-1.0,0.0,-1.0,-1.0,1651023995781882.0
5.0,16.0,4.0,0.0,-2.0,-1.0,1.0,2.0,1651023995781882.0
7.0,6.0,-2.0,-4.0,-8.0,-2.0,1.0,1.0,1651023995796967.0
-2.0,-8.0,-5.0,-4.0,-5.0,-10.0,-2.0,-2.0,1651023995796967.0
-5.0,-6.0,-5.0,-3.0,-5.0,8.0,-2.0,-3.0,1651023995798922.0
-3.0,-15.0,0.0,7.0,7.0,-2.0,1.0,0.0,1651023995798922.0
7.0,-4.0,5.0,6.0,14.0,7.0,1.0,3.0,1651023995819006.0
-2.0,-4.0,-2.0,-2.0,-4.0,1.0,0.0,0.0,1651023995819006.0
1.0,-1.0,-1.0,-5.0,-19.0,-8.0,-1.0,-1.0,1651023995820933.0
-2.0,-14.0,-4.0,0.0,12.0,-1.0,-1.0,-1.0,1651023995820933.0
-2.0,-5.0,0.0,-3.0,-10.0,-4.0,-2.0,-2.0,1651023995833221.0
0.0,16.0,4.0,2.0,2.0,2.0,-2.0,0.0,1651023995833221.0
-2.0,-18.0,-1.0,1.0,8.0,0.0,0.0,1.0,1651023995841911.0
0.0,-7.0,0.0,-3.0,-3.0,-2.0,-1.0,-1.0,1651023995841911.0
-3.0,9.0,-6.0,-4.0,-18.0,-9.0,-1.0,-1.0,1651023995857346.0
2.0,9.0,0.0,-2.0,17.0,10.0,-1.0,0.0,1651023995857346.0
-5.0,-10.0,-5.0,-2.0,-23.0,-4.0,-1.0,-2.0,1651023995858867.0
-1.0,-14.0,0.0,4.0,31.0,1.0,-1.0,-1.0,1651023995858867.0
0.0,-11.0,3.0,0.0,-8.0,-2.0,0.0,1.0,1651023995879855.0
-3.0,1.0,-4.0,2.0,-8.0,-1.0,-1.0,-1.0,1651023995879855.0
3.0,11.0,3.0,1.0,3.0,0.0,-1.0,-2.0,1651023995880809.0
0.0,0.0,-12.0,-7.0,-11.0,0.0,0.0,0.0,1651023995880809.0
-5.0,-14.0,3.0,-1.0,0.0,0.0,-2.0,-2.0,1651023995892778.0
1.0,-3.0,-5.0,-11.0,-2.0,-1.0,-1.0,0.0,1651023995892778.0
-3.0,-1.0,-6.0,-8.0,-7.0,-8.0,0.0,-1.0,1651023995901787.0
-3.0,3.0,-5.0,31.0,9.0,6.0,1.0,-2.0,1651023995901787.0
1.0,1.0,9.0,0.0,1.0,2.0,2.0,2.0,1651023995916920.0
3.0,11.0,13.0,0.0,2.0,-1.0,1.0,3.0,1651023995916920.0
-9.0,-28.0,-44.0,-12.0,-2.0,-7.0,-3.0,-4.0,1651023995918876.0
-1.0,9.0,22.0,-30.0,-34.0,-1.0,-1.0,-2.0,1651023995918876.0
1.0,-1.0,-12.0,41.0,52.0,11.0,2.0,2.0,1651023995939832.0
26.0,17.0,53.0,25.0,10.0,2.0,4.0,11.0,1651023995939832.0
-41.0,9.0,14.0,20.0,19.0,6.0,0.0,-11.0,1651023995940789.0
-4.0,-4.0,3.0,-19.0,-6.0,-1.0,-7.0,-10.0,1651023995940789.0
-1.0,-1.0,-8.0,4.0,-28.0,-9.0,1.0,1.0,1651023995952926.0
6.0,3.0,12.0,12.0,-2.0,0.0,17.0,16.0,1651023995952926.0
-1.0,-12.0,-40.0,-21.0,-7.0,-8.0,-25.0,-14.0,1651023995961851.0
-5.0,6.0,-3.0,-26.0,-16.0,-3.0,16.0,7.0,1651023995961851.0
87.0,25.0,21.0,-19.0,-4.0,3.0,5.0,8.0,1651023995977257.0
-95.0,11.0,-6.0,50.0,19.0,-16.0,-7.0,8.0,1651023995977257.0
4.0,-46.0,37.0,13.0,-3.0,28.0,72.0,-6.0,1651023995978265.0
-3.0,-11.0,-21.0,-21.0,18.0,-4.0,-58.0,-2.0,1651023995978265.0
-19.0,-25.0,-66.0,-96.0,-27.0,24.0,-19.0,-16.0,1651023995999126.0
39.0,7.0,12.0,52.0,-5.0,-32.0,-58.0,-32.0,1651023995999126.0
0.0,38.0,45.0,24.0,32.0,19.0,28.0,33.0,1651023996001054.0
-7.0,-33.0,-27.0,51.0,-2.0,-14.0,-36.0,-17.0,1651023996001054.0
-1.0,23.0,33.0,-7.0,-10.0,-28.0,10.0,7.0,1651023996013086.0
-12.0,-21.0,-68.0,-107.0,-43.0,13.0,34.0,2.0,1651023996013086.0
-10.0,23.0,40.0,33.0,24.0,-36.0,-4.0,12.0,1651023996021998.0
9.0,-9.0,14.0,42.0,19.0,73.0,47.0,9.0,1651023996021998.0
-4.0,-15.0,-56.0,-47.0,-26.0,16.0,-67.0,-16.0,1651023996037892.0
9.0,-12.0,-10.0,-1.0,-14.0,-29.0,-7.0,-13.0,1651023996037892.0
-39.0,-3.0,18.0,-23.0,-10.0,24.0,3.0,-33.0,1651023996038895.0
15.0,-2.0,-7.0,-21.0,-4.0,-70.0,-63.0,-19.0,1651023996038895.0
-2.0,-9.0,-3.0,-23.0,-39.0,10.0,110.0,44.0,1651023996059840.0
-32.0,-28.0,-52.0,-45.0,26.0,29.0,-34.0,4.0,1651023996059840.0
39.0,23.0,68.0,87.0,45.0,-36.0,-7.0,-10.0,1651023996060830.0
0.0,-7.0,-31.0,-23.0,-3.0,-26.0,50.0,19.0,1651023996060830.0
-25.0,-4.0,16.0,-7.0,38.0,85.0,46.0,-8.0,1651023996073030.0
22.0,-3.0,-21.0,-6.0,-21.0,-17.0,-30.0,-9.0,1651023996073030.0
20.0,30.0,23.0,10.0,-10.0,30.0,1.0,19.0,1651023996081939.0
-13.0,10.0,7.0,25.0,7.0,-16.0,-13.0,-9.0,1651023996081939.0
10.0,21.0,14.0,13.0,-9.0,-41.0,27.0,15.0,1651023996095972.0
-2.0,-12.0,1.0,-35.0,-6.0,12.0,26.0,4.0,1651023996095972.0
12.0,-15.0,-67.0,-28.0,-2.0,24.0,-58.0,-11.0,1651023996102950.0
-3.0,25.0,45.0,7.0,-10.0,36.0,29.0,-3.0,1651023996102950.0
-9.0,-3.0,35.0,36.0,9.0,-26.0,3.0,10.0,1651023996119062.0
1.0,-11.0,-15.0,21.0,15.0,31.0,-58.0,-26.0,1651023996119062.0
12.0,16.0,12.0,-6.0,-6.0,-44.0,8.0,7.0,1651023996120991.0
-1.0,-2.0,-26.0,-33.0,-20.0,19.0,11.0,13.0,1651023996120991.0
-5.0,0.0,2.0,23.0,25.0,-17.0,-13.0,-5.0,1651023996142178.0
3.0,8.0,11.0,-2.0,-4.0,11.0,-28.0,-10.0,1651023996142178.0
11.0,-2.0,11.0,28.0,35.0,12.0,38.0,22.0,1651023996143179.0
6.0,17.0,9.0,-8.0,-4.0,-51.0,16.0,11.0,1651023996143179.0
-24.0,-22.0,-8.0,-42.0,-25.0,38.0,-25.0,-23.0,1651023996156256.0
0.0,0.0,46.0,98.0,41.0,-13.0,15.0,2.0,1651023996156256.0
5.0,3.0,-26.0,-35.0,-29.0,-52.0,-26.0,-5.0,1651023996163273.0
0.0,1.0,5.0,33.0,31.0,110.0,44.0,8.0,1651023996163273.0
-9.0,-18.0,-23.0,-20.0,0.0,-32.0,-26.0,-12.0,1651023996179388.0
7.0,1.0,-6.0,-48.0,-26.0,-15.0,10.0,4.0,1651023996179388.0
-3.0,1.0,-5.0,-5.0,-11.0,-17.0,-14.0,-1.0,1651023996181343.0
7.0,7.0,29.0,15.0,8.0,17.0,79.0,20.0,1651023996181343.0
1.0,10.0,21.0,43.0,6.0,-40.0,-94.0,-22.0,1651023996202350.0
-1.0,7.0,16.0,-5.0,-2.0,26.0,10.0,3.0,1651023996202350.0
-3.0,-20.0,-80.0,-63.0,-29.0,-6.0,-7.0,-8.0,1651023996203257.0
-4.0,16.0,13.0,-10.0,-12.0,-22.0,-11.0,-5.0,1651023996203257.0
2.0,-4.0,36.0,4.0,-11.0,15.0,44.0,12.0,1651023996216292.0
1.0,6.0,-28.0,55.0,45.0,-28.0,15.0,9.0,1651023996216292.0
7.0,7.0,14.0,-12.0,-6.0,5.0,-32.0,-9.0,1651023996223265.0
-6.0,-10.0,36.0,35.0,3.0,9.0,12.0,3.0,1651023996223265.0
-11.0,-9.0,-70.0,-25.0,11.0,-19.0,-25.0,-8.0,1651023996239291.0
39.0,23.0,47.0,18.0,0.0,0.0,28.0,12.0,1651023996239291.0
-41.0,-43.0,-59.0,-52.0,-29.0,-27.0,-45.0,-18.0,1651023996241247.0
1.0,-2.0,-13.0,-11.0,-4.0,-37.0,-4.0,-7.0,1651023996241247.0
-2.0,10.0,28.0,36.0,11.0,79.0,44.0,14.0,1651023996262199.0
-1.0,-7.0,5.0,-21.0,-12.0,34.0,27.0,-2.0,1651023996262199.0
-1.0,20.0,6.0,-6.0,1.0,30.0,55.0,13.0,1651023996263160.0
-11.0,-17.0,-30.0,-30.0,-14.0,-63.0,-115.0,-16.0,1651023996263160.0
0.0,3.0,26.0,39.0,12.0,-21.0,-5.0,-10.0,1651023996276126.0
-1.0,-4.0,-43.0,-46.0,-19.0,-2.0,27.0,6.0,1651023996276126.0
7.0,11.0,68.0,61.0,24.0,21.0,12.0,10.0,1651023996283174.0
0.0,9.0,-50.0,-51.0,-13.0,-24.0,28.0,7.0,1651023996283174.0
4.0,9.0,-6.0,-18.0,3.0,-5.0,-4.0,-4.0,1651023996299931.0
-5.0,-8.0,31.0,38.0,12.0,5.0,-58.0,-11.0,1651023996299931.0
-13.0,-19.0,-32.0,-16.0,-4.0,-13.0,-10.0,-7.0,1651023996300936.0
5.0,10.0,17.0,-4.0,6.0,26.0,52.0,8.0,1651023996300936.0
8.0,-5.0,6.0,51.0,19.0,-1.0,-7.0,8.0,1651023996322069.0
-5.0,-2.0,1.0,-39.0,-25.0,-20.0,-3.0,-9.0,1651023996322069.0
9.0,9.0,6.0,0.0,-18.0,-17.0,-4.0,-2.0,1651023996323025.0
3.0,2.0,-14.0,-10.0,0.0,-7.0,-29.0,-3.0,1651023996323025.0
-7.0,-6.0,-6.0,-2.0,-1.0,29.0,45.0,-4.0,1651023996336737.0
-2.0,-2.0,3.0,10.0,1.0,-22.0,-18.0,5.0,1651023996336737.0
-6.0,7.0,6.0,10.0,4.0,34.0,39.0,10.0,1651023996342790.0
-7.0,3.0,-29.0,-34.0,-16.0,8.0,-47.0,-18.0,1651023996342790.0
-9.0,-6.0,36.0,33.0,6.0,-45.0,-36.0,-9.0,1651023996359734.0
-9.0,5.0,10.0,-5.0,3.0,5.0,23.0,3.0,1651023996359734.0
21.0,-2.0,-53.0,-28.0,-4.0,-4.0,69.0,21.0,1651023996360690.0
2.0,6.0,-3.0,-14.0,-14.0,-3.0,-77.0,-16.0,1651023996360690.0
-30.0,-9.0,20.0,8.0,13.0,-10.0,7.0,-12.0,1651023996381883.0
-13.0,-22.0,-34.0,-19.0,-14.0,-2.0,16.0,-2.0,1651023996381883.0
0.0,10.0,14.0,6.0,-5.0,9.0,-16.0,-2.0,1651023996383909.0
-2.0,-3.0,2.0,-1.0,3.0,9.0,32.0,7.0,1651023996383909.0
10.0,-3.0,-35.0,-14.0,13.0,-13.0,-1.0,5.0,1651023996396545.0
8.0,3.0,5.0,-17.0,-11.0,11.0,15.0,8.0,1651023996396545.0
-7.0,4.0,14.0,13.0,6.0,-45.0,-57.0,-14.0,1651023996403460.0
11.0,-13.0,11.0,26.0,-8.0,-7.0,21.0,-3.0,1651023996403460.0
-5.0,10.0,2.0,-2.0,-4.0,55.0,-3.0,3.0,1651023996419483.0
6.0,-4.0,-13.0,-14.0,-13.0,-15.0,28.0,15.0,1651023996419483.0
11.0,9.0,-10.0,-9.0,5.0,7.0,-13.0,0.0,1651023996421432.0
-5.0,-5.0,-7.0,-14.0,3.0,17.0,-22.0,-8.0,1651023996421432.0
0.0,0.0,36.0,20.0,-4.0,-32.0,17.0,-5.0,1651023996442375.0
0.0,6.0,-24.0,-2.0,4.0,9.0,-22.0,-9.0,1651023996442375.0
-1.0,-10.0,25.0,12.0,-2.0,-5.0,-6.0,-3.0,1651023996443362.0
8.0,20.0,0.0,14.0,0.0,-29.0,-21.0,0.0,1651023996443362.0
6.0,-4.0,-11.0,-27.0,2.0,-1.0,7.0,5.0,1651023996456759.0
-4.0,-1.0,30.0,50.0,4.0,-21.0,-5.0,2.0,1651023996456759.0
-15.0,15.0,-24.0,-41.0,-15.0,53.0,52.0,11.0,1651023996462779.0
-14.0,-1.0,51.0,54.0,35.0,4.0,-21.0,-7.0,1651023996462779.0
11.0,-10.0,-71.0,-16.0,-22.0,-11.0,-33.0,-7.0,1651023996479892.0
-6.0,10.0,11.0,-22.0,-15.0,-46.0,-24.0,-1.0,1651023996479892.0
8.0,-14.0,20.0,14.0,22.0,56.0,5.0,8.0,1651023996480856.0
-11.0,4.0,9.0,12.0,-7.0,37.0,64.0,0.0,1651023996480856.0
-9.0,-1.0,-5.0,-17.0,-5.0,-53.0,-24.0,0.0,1651023996501862.0
12.0,7.0,19.0,14.0,9.0,35.0,8.0,-9.0,1651023996501862.0
-3.0,0.0,-17.0,7.0,-11.0,-27.0,3.0,2.0,1651023996503818.0
-3.0,-18.0,-24.0,-20.0,0.0,10.0,5.0,3.0,1651023996503818.0
5.0,19.0,44.0,27.0,2.0,-6.0,-9.0,1.0,1651023996516760.0
-13.0,-4.0,-38.0,-30.0,-18.0,6.0,28.0,-19.0,1651023996516760.0
3.0,-21.0,-9.0,-10.0,-3.0,4.0,-62.0,-5.0,1651023996522772.0
10.0,7.0,15.0,-4.0,-6.0,-22.0,-5.0,-10.0,1651023996522772.0
2.0,6.0,4.0,6.0,6.0,-6.0,10.0,6.0,1651023996539845.0
5.0,15.0,26.0,22.0,37.0,36.0,25.0,21.0,1651023996539845.0
2.0,5.0,21.0,31.0,9.0,6.0,9.0,-5.0,1651023996540821.0
-4.0,-3.0,-40.0,-54.0,-19.0,-28.0,-19.0,-4.0,1651023996540821.0
6.0,4.0,21.0,24.0,-1.0,5.0,27.0,15.0,1651023996561997.0
-8.0,-12.0,-4.0,-1.0,-10.0,12.0,-21.0,-9.0,1651023996561997.0
0.0,4.0,8.0,3.0,-7.0,-42.0,-7.0,-5.0,1651023996563944.0
-7.0,7.0,15.0,6.0,-1.0,-17.0,-24.0,-2.0,1651023996563944.0
12.0,1.0,-9.0,-8.0,3.0,81.0,63.0,14.0,1651023996576010.0
-3.0,1.0,21.0,21.0,10.0,-1.0,9.0,7.0,1651023996576010.0
-4.0,-4.0,-33.0,-36.0,-11.0,-12.0,18.0,-4.0,1651023996590963.0
10.0,-7.0,14.0,32.0,8.0,-18.0,21.0,27.0,1651023996590963.0
-20.0,3.0,-9.0,-9.0,-10.0,15.0,-99.0,-60.0,1651023996599910.0
8.0,-5.0,-34.0,-38.0,-13.0,-31.0,8.0,12.0,1651023996599910.0
-1.0,-6.0,21.0,22.0,8.0,-8.0,42.0,-12.0,1651023996600877.0
5.0,-1.0,-36.0,-23.0,7.0,34.0,93.0,18.0,1651023996600877.0
3.0,-1.0,46.0,39.0,5.0,-2.0,31.0,16.0,1651023996621991.0
-9.0,-9.0,13.0,3.0,12.0,-6.0,-85.0,-15.0,1651023996621991.0
4.0,-5.0,-65.0,-36.0,-25.0,-17.0,-45.0,-11.0,1651023996623946.0
7.0,3.0,13.0,21.0,12.0,13.0,16.0,16.0,1651023996623946.0
-4.0,-10.0,-14.0,-16.0,-17.0,-20.0,7.0,8.0,1651023996635886.0
-1.0,-1.0,-10.0,-23.0,-8.0,-5.0,-8.0,-10.0,1651023996635886.0
2.0,5.0,49.0,47.0,26.0,-5.0,-11.0,5.0,1651023996644863.0
-3.0,0.0,-1.0,7.0,-2.0,-5.0,23.0,5.0,1651023996644863.0
5.0,-1.0,-33.0,-35.0,-13.0,-16.0,-7.0,-2.0,1651023996659129.0
-9.0,7.0,48.0,44.0,12.0,80.0,32.0,1.0,1651023996659129.0
-3.0,-17.0,-56.0,-48.0,-11.0,3.0,-35.0,-16.0,1651023996661056.0
0.0,5.0,15.0,13.0,11.0,-18.0,-5.0,-4.0,1651023996661056.0
-20.0,-2.0,8.0,1.0,-3.0,-21.0,2.0,4.0,1651023996682062.0
8.0,-10.0,-40.0,-33.0,-21.0,-24.0,38.0,14.0,1651023996682062.0
0.0,1.0,20.0,11.0,-7.0,16.0,2.0,4.0,1651023996682997.0
11.0,0.0,8.0,-8.0,-7.0,18.0,-20.0,-7.0,1651023996682997.0
5.0,10.0,-25.0,-3.0,34.0,-4.0,39.0,10.0,1651023996696009.0
0.0,-21.0,-31.0,-21.0,-9.0,-23.0,-38.0,-3.0,1651023996696009.0
-11.0,9.0,26.0,24.0,4.0,-18.0,-4.0,-15.0,1651023996710924.0
-6.0,-6.0,11.0,3.0,-16.0,15.0,-42.0,-15.0,1651023996710924.0
5.0,-1.0,12.0,6.0,-6.0,2.0,60.0,13.0,1651023996718901.0
-5.0,0.0,-3.0,-17.0,-5.0,-12.0,-53.0,-25.0,1651023996718901.0
10.0,5.0,-11.0,-32.0,-15.0,-28.0,-17.0,9.0,1651023996720896.0
-4.0,-8.0,6.0,39.0,12.0,39.0,79.0,6.0,1651023996720896.0
5.0,4.0,14.0,8.0,2.0,-5.0,-63.0,-7.0,1651023996742395.0
9.0,2.0,-22.0,-7.0,17.0,33.0,127.0,34.0,1651023996742395.0
-17.0,3.0,21.0,21.0,5.0,-26.0,-107.0,-39.0,1651023996743395.0
-9.0,-9.0,-31.0,-48.0,-24.0,-17.0,-7.0,1.0,1651023996743395.0
12.0,0.0,-19.0,-8.0,-6.0,7.0,13.0,16.0,1651023996755429.0
3.0,2.0,29.0,28.0,11.0,-28.0,-9.0,3.0,1651023996755429.0
2.0,-1.0,11.0,6.0,4.0,19.0,60.0,14.0,1651023996764346.0
-3.0,4.0,-3.0,-2.0,1.0,13.0,-21.0,-4.0,1651023996764346.0
-6.0,-13.0,-24.0,-22.0,-5.0,-30.0,-73.0,-25.0,1651023996779363.0
3.0,10.0,22.0,5.0,-11.0,5.0,1.0,3.0,1651023996779363.0
7.0,-7.0,-21.0,15.0,13.0,9.0,30.0,12.0,1651023996781319.0
5.0,12.0,30.0,-7.0,-3.0,-2.0,-1.0,10.0,1651023996781319.0
-14.0,-25.0,-31.0,-10.0,-14.0,-20.0,-5.0,-22.0,1651023996802264.0
1.0,7.0,12.0,22.0,16.0,6.0,1.0,-6.0,1651023996802264.0
9.0,-1.0,10.0,-16.0,-8.0,57.0,83.0,26.0,1651023996803234.0
-3.0,-3.0,-12.0,18.0,4.0,-46.0,-99.0,-30.0,1651023996803234.0
1.0,13.0,28.0,10.0,4.0,22.0,6.0,12.0,1651023996815272.0
-10.0,-11.0,-33.0,-21.0,-1.0,-4.0,3.0,1.0,1651023996815272.0
-1.0,1.0,12.0,7.0,-5.0,3.0,29.0,6.0,1651023996824230.0
13.0,6.0,-6.0,-3.0,15.0,15.0,18.0,18.0,1651023996824230.0
-8.0,0.0,1.0,4.0,4.0,-30.0,8.0,-16.0,1651023996839206.0
-5.0,7.0,35.0,3.0,-21.0,25.0,-38.0,-14.0,1651023996839206.0
5.0,0.0,-47.0,2.0,10.0,4.0,7.0,10.0,1651023996841133.0
-6.0,-7.0,4.0,-4.0,0.0,-10.0,-15.0,-8.0,1651023996841133.0
6.0,-1.0,11.0,17.0,-7.0,-8.0,-42.0,-2.0,1651023996862105.0
4.0,7.0,13.0,11.0,19.0,-9.0,18.0,5.0,1651023996862105.0
0.0,3.0,5.0,-5.0,-3.0,15.0,14.0,4.0,1651023996863099.0
-5.0,-9.0,-27.0,-25.0,-8.0,-16.0,-16.0,-12.0,1651023996863099.0
9.0,3.0,-5.0,-7.0,4.0,23.0,30.0,17.0,1651023996875107.0
-10.0,-12.0,-9.0,-15.0,-16.0,-33.0,-41.0,-12.0,1651023996875107.0
-11.0,10.0,39.0,35.0,9.0,21.0,-14.0,-6.0,1651023996885016.0
4.0,-6.0,-10.0,2.0,6.0,18.0,17.0,6.0,1651023996885016.0
-1.0,2.0,14.0,-8.0,-18.0,-15.0,6.0,-1.0,1651023996898106.0
0.0,5.0,-15.0,-2.0,6.0,8.0,34.0,9.0,1651023996898106.0
4.0,-6.0,-17.0,-26.0,-7.0,-1.0,-34.0,-6.0,1651023996907024.0
-4.0,-1.0,-6.0,10.0,1.0,2.0,-18.0,-6.0,1651023996907024.0
0.0,-3.0,18.0,10.0,10.0,1.0,7.0,2.0,1651023996922045.0
-4.0,-2.0,-27.0,-22.0,-9.0,-10.0,18.0,-7.0,1651023996922045.0
4.0,-2.0,20.0,21.0,6.0,-11.0,-24.0,-7.0,1651023996923005.0
-5.0,-7.0,-13.0,-19.0,-5.0,-1.0,14.0,3.0,1651023996923005.0
22.0,-3.0,-3.0,-3.0,-5.0,5.0,17.0,4.0,1651023996936029.0
-1.0,-8.0,-39.0,-10.0,-7.0,-18.0,-33.0,-7.0,1651023996936029.0
-5.0,-1.0,6.0,-18.0,-18.0,-7.0,7.0,0.0,1651023996944924.0
1.0,20.0,47.0,29.0,4.0,-2.0,5.0,5.0,1651023996944924.0
-12.0,-2.0,-31.0,-15.0,11.0,32.0,1.0,-3.0,1651023996959895.0
6.0,3.0,16.0,12.0,-2.0,-5.0,10.0,9.0,1651023996959895.0
-4.0,1.0,12.0,5.0,-3.0,-20.0,-8.0,0.0,1651023996960882.0
6.0,1.0,13.0,29.0,11.0,67.0,106.0,27.0,1651023996960882.0
-18.0,7.0,-26.0,-47.0,-14.0,-26.0,-91.0,-52.0,1651023996980929.0
9.0,-30.0,-1.0,22.0,-3.0,-13.0,33.0,-5.0,1651023996980929.0
-1.0,-1.0,-6.0,-10.0,15.0,-21.0,14.0,1.0,1651023996989838.0
-4.0,4.0,10.0,12.0,12.0,-3.0,34.0,2.0,1651023996989838.0
3.0,-6.0,31.0,35.0,6.0,16.0,16.0,20.0,1651023996995883.0
1.0,8.0,-15.0,-13.0,-5.0,2.0,-4.0,-4.0,1651023996995883.0
-1.0,-4.0,-22.0,-18.0,-24.0,-9.0,-13.0,0.0,1651023997004925.0
0.0,-10.0,-10.0,-22.0,-8.0,-15.0,-28.0,-6.0,1651023997004925.0
-3.0,1.0,1.0,-1.0,-4.0,-5.0,7.0,4.0,1651023997018960.0
-3.0,4.0,16.0,21.0,9.0,0.0,-14.0,-2.0,1651023997018960.0
7.0,0.0,17.0,22.0,21.0,22.0,44.0,15.0,1651023997026895.0
3.0,5.0,-12.0,-16.0,-7.0,-6.0,-56.0,-6.0,1651023997026895.0
-6.0,13.0,2.0,0.0,-20.0,-44.0,-18.0,-1.0,1651023997041992.0
0.0,4.0,42.0,38.0,37.0,80.0,68.0,14.0,1651023997041992.0
-7.0,-13.0,-80.0,-51.0,-5.0,-10.0,-42.0,-17.0,1651023997043919.0
5.0,-3.0,0.0,-10.0,3.0,7.0,-4.0,0.0,1651023997043919.0
3.0,3.0,12.0,27.0,-4.0,-54.0,-4.0,3.0,1651023997055951.0
-5.0,2.0,10.0,0.0,-13.0,18.0,11.0,7.0,1651023997055951.0
-3.0,1.0,15.0,-3.0,-6.0,22.0,32.0,2.0,1651023997064991.0
-1.0,5.0,-1.0,1.0,12.0,-20.0,-59.0,-19.0,1651023997064991.0
-3.0,-10.0,-15.0,-15.0,-6.0,14.0,20.0,7.0,1651023997079823.0
1.0,13.0,53.0,47.0,17.0,-18.0,-13.0,1.0,1651023997079823.0
-4.0,-2.0,-52.0,-10.0,7.0,6.0,-1.0,-1.0,1651023997080820.0
-6.0,-3.0,5.0,-16.0,-38.0,-29.0,3.0,-5.0,1651023997080820.0
10.0,-9.0,-18.0,-18.0,21.0,10.0,8.0,1.0,1651023997109642.0
-5.0,-6.0,-18.0,-20.0,-4.0,27.0,-1.0,-7.0,1651023997109642.0
6.0,6.0,26.0,15.0,4.0,-6.0,-8.0,6.0,1651023997110576.0
-1.0,8.0,32.0,30.0,-13.0,-8.0,13.0,1.0,1651023997110576.0
-4.0,-9.0,-60.0,-44.0,4.0,-8.0,2.0,2.0,1651023997124780.0
0.0,1.0,-3.0,-11.0,-1.0,27.0,-2.0,-4.0,1651023997124780.0
1.0,1.0,18.0,9.0,-7.0,-12.0,2.0,1.0,1651023997125712.0
-2.0,0.0,-3.0,0.0,-2.0,-16.0,-10.0,-5.0,1651023997125712.0
1.0,0.0,29.0,32.0,8.0,46.0,27.0,2.0,1651023997139740.0
1.0,-3.0,-32.0,-22.0,-7.0,-47.0,-39.0,-4.0,1651023997139740.0
0.0,3.0,6.0,-15.0,-10.0,15.0,4.0,-2.0,1651023997140671.0
-2.0,-9.0,-7.0,1.0,16.0,-6.0,15.0,2.0,1651023997140671.0
-1.0,4.0,9.0,10.0,2.0,6.0,-13.0,-1.0,1651023997161758.0
-2.0,1.0,-7.0,-11.0,-1.0,-12.0,-3.0,3.0,1651023997161758.0
0.0,0.0,11.0,8.0,-3.0,-4.0,-2.0,-2.0,1651023997163782.0
-3.0,-2.0,-7.0,-8.0,-10.0,-9.0,-3.0,-5.0,1651023997163782.0
2.0,0.0,20.0,26.0,-4.0,17.0,17.0,5.0,1651023997184696.0
-3.0,-2.0,-36.0,-45.0,-7.0,-9.0,-5.0,-4.0,1651023997184696.0
0.0,-4.0,13.0,7.0,10.0,-16.0,-14.0,-5.0,1651023997185695.0
-2.0,-1.0,-3.0,0.0,-5.0,10.0,10.0,0.0,1651023997185695.0
2.0,2.0,4.0,-3.0,-2.0,10.0,6.0,2.0,1651023997199720.0
2.0,0.0,5.0,5.0,-8.0,-16.0,-11.0,1.0,1651023997199720.0
-2.0,-1.0,7.0,7.0,6.0,3.0,2.0,-1.0,1651023997200655.0
1.0,-3.0,-12.0,-3.0,17.0,10.0,3.0,1.0,1651023997200655.0
0.0,2.0,9.0,-2.0,-5.0,1.0,1.0,1.0,1651023997221909.0
2.0,2.0,-7.0,0.0,-12.0,-14.0,-6.0,0.0,1651023997221909.0
-2.0,-6.0,-18.0,-9.0,1.0,0.0,1.0,-3.0,1651023997223864.0
1.0,3.0,0.0,1.0,6.0,6.0,2.0,-2.0,1651023997223864.0
1.0,4.0,-2.0,-3.0,6.0,7.0,-3.0,-1.0,1651023997244930.0
-2.0,-2.0,14.0,10.0,11.0,-4.0,4.0,0.0,1651023997244930.0
0.0,-3.0,-5.0,-1.0,-5.0,-2.0,-1.0,-2.0,1651023997245927.0
-1.0,0.0,-3.0,-3.0,-21.0,-8.0,-4.0,-3.0,1651023997245927.0
-2.0,-5.0,-1.0,-6.0,10.0,-3.0,3.0,6.0,1651023997266907.0
2.0,12.0,14.0,11.0,10.0,7.0,-2.0,0.0,1651023997266907.0
1.0,-1.0,-2.0,2.0,-1.0,-2.0,0.0,3.0,1651023997268893.0
-2.0,-1.0,10.0,2.0,1.0,0.0,-2.0,-1.0,1651023997268893.0
0.0,0.0,-15.0,-6.0,-21.0,-1.0,-1.0,-2.0,1651023997281887.0
4.0,3.0,10.0,-1.0,4.0,-6.0,0.0,3.0,1651023997281887.0
-6.0,-8.0,-7.0,-1.0,-8.0,-8.0,-6.0,-4.0,1651023997283853.0
-3.0,-4.0,-4.0,2.0,17.0,11.0,7.0,1.0,1651023997283853.0
-2.0,-5.0,-1.0,-11.0,-12.0,-1.0,-1.0,-2.0,1651023997304600.0
0.0,-7.0,-6.0,2.0,-2.0,-9.0,-7.0,-2.0,1651023997304600.0
1.0,17.0,10.0,9.0,6.0,1.0,1.0,-2.0,1651023997305556.0
2.0,21.0,19.0,-4.0,2.0,4.0,0.0,-1.0,1651023997305556.0
-1.0,-1.0,6.0,16.0,2.0,0.0,3.0,2.0,1651023997318563.0
-6.0,-15.0,-24.0,-16.0,-13.0,-5.0,-2.0,-4.0,1651023997318563.0
7.0,18.0,30.0,12.0,1.0,-1.0,-1.0,-1.0,1651023997325545.0
-1.0,-13.0,-16.0,0.0,2.0,-6.0,-7.0,3.0,1651023997325545.0
-7.0,-21.0,-33.0,-15.0,-1.0,-9.0,0.0,-8.0,1651023997342353.0
6.0,20.0,29.0,14.0,-1.0,7.0,0.0,6.0,1651023997342353.0
-1.0,-9.0,-8.0,-5.0,2.0,-3.0,-3.0,1.0,1651023997343353.0
8.0,2.0,5.0,3.0,-3.0,25.0,11.0,1.0,1651023997343353.0
-1.0,11.0,4.0,4.0,-6.0,0.0,-3.0,0.0,1651023997364004.0
-25.0,-43.0,-37.0,-16.0,0.0,-7.0,-6.0,-13.0,1651023997364004.0
3.0,17.0,16.0,2.0,-4.0,-4.0,-1.0,0.0,1651023997365931.0
12.0,4.0,2.0,7.0,24.0,-3.0,-1.0,4.0,1651023997365931.0
3.0,24.0,28.0,17.0,5.0,3.0,3.0,2.0,1651023997378896.0
0.0,-9.0,-2.0,-5.0,-17.0,-9.0,-2.0,-3.0,1651023997378896.0
-4.0,-32.0,-39.0,-14.0,-2.0,2.0,-2.0,-3.0,1651023997386875.0
-9.0,-7.0,5.0,-11.0,-16.0,-10.0,-1.0,0.0,1651023997386875.0
2.0,-5.0,-19.0,-10.0,1.0,4.0,4.0,3.0,1651023997401904.0
7.0,29.0,29.0,15.0,13.0,3.0,5.0,3.0,1651023997401904.0
-2.0,-6.0,-4.0,-2.0,-12.0,2.0,-1.0,0.0,1651023997403850.0
-4.0,6.0,7.0,9.0,8.0,-5.0,-3.0,-4.0,1651023997403850.0
-1.0,-1.0,-4.0,-5.0,-4.0,-12.0,-2.0,-2.0,1651023997424897.0
5.0,5.0,13.0,9.0,4.0,12.0,4.0,3.0,1651023997424897.0
-2.0,-1.0,2.0,-5.0,2.0,2.0,-3.0,-6.0,1651023997425879.0
1.0,-16.0,-10.0,-3.0,-8.0,15.0,6.0,1.0,1651023997425879.0
-4.0,28.0,14.0,0.0,-1.0,-4.0,0.0,1.0,1651023997438911.0
1.0,12.0,-20.0,-11.0,-10.0,-10.0,-11.0,-15.0,1651023997438911.0
3.0,-23.0,31.0,7.0,2.0,-3.0,6.0,14.0,1651023997445826.0
5.0,38.0,-15.0,0.0,-18.0,-14.0,-5.0,-2.0,1651023997445826.0
-2.0,-30.0,1.0,1.0,19.0,9.0,0.0,-1.0,1651023997461825.0
3.0,-31.0,-18.0,-5.0,16.0,3.0,1.0,2.0,1651023997461825.0
-1.0,40.0,18.0,2.0,-6.0,3.0,1.0,0.0,1651023997463805.0
-7.0,-13.0,0.0,8.0,-2.0,-3.0,-3.0,-5.0,1651023997463805.0
2.0,-4.0,-14.0,-10.0,-12.0,-2.0,2.0,2.0,1651023997484909.0
-1.0,6.0,-1.0,-5.0,-18.0,-7.0,-2.0,1.0,1651023997484909.0
7.0,-14.0,-7.0,5.0,20.0,12.0,-1.0,0.0,1651023997485893.0
-10.0,10.0,10.0,4.0,0.0,-2.0,3.0,1.0,1651023997485893.0
4.0,1.0,-9.0,2.0,1.0,-3.0,-2.0,-3.0,1651023997507937.0
-4.0,-8.0,10.0,-2.0,-1.0,0.0,-2.0,-1.0,1651023997507937.0
-7.0,-6.0,-9.0,-3.0,-10.0,-5.0,1.0,0.0,1651023997508937.0
0.0,-8.0,-10.0,-8.0,-6.0,-4.0,-2.0,-3.0,1651023997508937.0
0.0,-9.0,12.0,3.0,9.0,5.0,2.0,-2.0,1651023997520971.0
4.0,9.0,18.0,4.0,4.0,1.0,1.0,4.0,1651023997520971.0
-2.0,-26.0,-33.0,6.0,2.0,0.0,-1.0,-2.0,1651023997521902.0
-4.0,4.0,-2.0,-9.0,-3.0,-3.0,-2.0,-1.0,1651023997521902.0
2.0,2.0,18.0,1.0,-14.0,-3.0,-4.0,-1.0,1651023997544080.0
5.0,11.0,8.0,4.0,24.0,1.0,1.0,3.0,1651023997544080.0
-3.0,2.0,5.0,1.0,-1.0,2.0,1.0,0.0,1651023997544080.0
5.0,0.0,5.0,0.0,-18.0,-10.0,-3.0,0.0,1651023997544080.0
0.0,-6.0,-14.0,-7.0,14.0,11.0,1.0,4.0,1651023997566096.0
-2.0,-1.0,-13.0,-3.0,-10.0,-1.0,0.0,1.0,1651023997566096.0
-1.0,-6.0,5.0,1.0,1.0,-3.0,-2.0,-2.0,1651023997567031.0
-4.0,-12.0,-11.0,-1.0,2.0,0.0,-2.0,1.0,1651023997567031.0
-1.0,6.0,14.0,1.0,-9.0,-5.0,-3.0,-4.0,1651023997580990.0
2.0,9.0,-2.0,0.0,-4.0,-3.0,-1.0,2.0,1651023997580990.0
0.0,-19.0,-9.0,-6.0,-8.0,-2.0,-1.0,-1.0,1651023997581928.0
1.0,-22.0,-6.0,2.0,14.0,2.0,2.0,3.0,1651023997581928.0
-8.0,0.0,-10.0,-2.0,3.0,-3.0,-2.0,-8.0,1651023997603900.0
-1.0,-25.0,-13.0,-2.0,3.0,3.0,-1.0,0.0,1651023997603900.0
-9.0,2.0,-3.0,-7.0,-12.0,-5.0,-2.0,-4.0,1651023997604896.0
2.0,6.0,3.0,-1.0,1.0,-1.0,-1.0,1.0,1651023997604896.0
4.0,0.0,-5.0,2.0,3.0,0.0,1.0,3.0,1651023997626001.0
-5.0,-5.0,-15.0,-7.0,-12.0,-3.0,0.0,-3.0,1651023997626001.0
-1.0,18.0,16.0,0.0,1.0,-1.0,-2.0,-2.0,1651023997626932.0
-3.0,-15.0,-8.0,-1.0,5.0,-1.0,-1.0,-2.0,1651023997626932.0
-3.0,-2.0,-4.0,-2.0,-3.0,0.0,-2.0,-2.0,1651023997640962.0
0.0,7.0,8.0,4.0,-6.0,-3.0,1.0,-1.0,1651023997640962.0
5.0,33.0,1.0,-3.0,0.0,3.0,1.0,4.0,1651023997641891.0
0.0,-3.0,5.0,1.0,13.0,3.0,0.0,-2.0,1651023997641891.0
-1.0,0.0,13.0,4.0,0.0,-1.0,-2.0,0.0,1651023997664125.0
10.0,18.0,-11.0,-2.0,-20.0,-6.0,1.0,3.0,1651023997664125.0
-7.0,-6.0,2.0,3.0,27.0,5.0,-1.0,-2.0,1651023997664864.0
4.0,10.0,3.0,2.0,-8.0,-1.0,0.0,0.0,1651023997664864.0
0.0,6.0,-6.0,-2.0,-1.0,-2.0,0.0,1.0,1651023997677832.0
2.0,3.0,11.0,1.0,-1.0,-1.0,-1.0,1.0,1651023997677832.0
10.0,35.0,1.0,-8.0,-11.0,-7.0,-3.0,1.0,1651023997685810.0
-3.0,16.0,4.0,12.0,5.0,3.0,-1.0,-2.0,1651023997685810.0
0.0,-6.0,-7.0,2.0,4.0,1.0,-1.0,1.0,1651023997700771.0
-2.0,4.0,4.0,0.0,1.0,-1.0,0.0,-2.0,1651023997700771.0
1.0,-12.0,-5.0,-3.0,-9.0,-3.0,0.0,0.0,1651023997701773.0
-5.0,9.0,-4.0,-8.0,6.0,4.0,-2.0,-2.0,1651023997701773.0
-3.0,-24.0,-10.0,-2.0,-1.0,-3.0,-2.0,-1.0,1651023997723736.0
-3.0,-7.0,1.0,1.0,3.0,2.0,0.0,-1.0,1651023997723736.0
-1.0,-15.0,-11.0,-4.0,-4.0,-1.0,-1.0,0.0,1651023997724730.0
-2.0,-6.0,-7.0,-8.0,-11.0,-6.0,-2.0,-1.0,1651023997724730.0
2.0,8.0,3.0,0.0,2.0,5.0,0.0,0.0,1651023997746904.0
-3.0,-9.0,7.0,0.0,10.0,-1.0,0.0,-1.0,1651023997746904.0
-3.0,10.0,-16.0,4.0,2.0,1.0,0.0,1.0,1651023997747899.0
1.0,-6.0,2.0,2.0,1.0,-1.0,0.0,1.0,1651023997747899.0
0.0,20.0,0.0,-3.0,-9.0,-3.0,0.0,0.0,1651023997760932.0
8.0,41.0,5.0,-3.0,0.0,-1.0,-3.0,-1.0,1651023997760932.0
8.0,21.0,18.0,6.0,6.0,2.0,2.0,3.0,1651023997761870.0
-4.0,-12.0,-6.0,-6.0,-7.0,-1.0,-1.0,-2.0,1651023997761870.0
-1.0,-19.0,-10.0,-4.0,-2.0,-2.0,-1.0,-2.0,1651023997783867.0
-3.0,16.0,5.0,-3.0,-12.0,-2.0,-2.0,-4.0,1651023997783867.0
2.0,-7.0,3.0,7.0,24.0,4.0,-2.0,0.0,1651023997784804.0
1.0,-5.0,-3.0,0.0,-5.0,2.0,1.0,1.0,1651023997784804.0
3.0,4.0,0.0,2.0,5.0,0.0,0.0,1.0,1651023997806905.0
-4.0,-15.0,-7.0,1.0,-2.0,-1.0,0.0,0.0,1651023997806905.0
-3.0,-9.0,-2.0,-7.0,-11.0,-5.0,-3.0,-1.0,1651023997807831.0
-1.0,-10.0,2.0,-2.0,2.0,-2.0,0.0,-1.0,1651023997807831.0
-6.0,-8.0,0.0,-3.0,-13.0,-8.0,-3.0,0.0,1651023997821821.0
-7.0,7.0,-9.0,-4.0,14.0,6.0,-1.0,-2.0,1651023997821821.0
-1.0,-12.0,4.0,3.0,-9.0,3.0,-1.0,0.0,1651023997822791.0
4.0,8.0,1.0,5.0,20.0,-4.0,2.0,3.0,1651023997822791.0
-1.0,-18.0,1.0,0.0,-3.0,1.0,2.0,-2.0,1651023997843962.0
8.0,4.0,6.0,2.0,-7.0,-3.0,-1.0,0.0,1651023997843962.0
4.0,9.0,-6.0,-2.0,0.0,0.0,0.0,2.0,1651023997843962.0
-1.0,-8.0,0.0,-2.0,-5.0,2.0,-2.0,-2.0,1651023997843962.0
9.0,-3.0,0.0,-1.0,-2.0,-3.0,2.0,3.0,1651023997874883.0
-15.0,-37.0,-5.0,2.0,4.0,-1.0,-2.0,-3.0,1651023997874883.0
5.0,20.0,9.0,1.0,1.0,3.0,-1.0,-1.0,1651023997874883.0
-2.0,-7.0,-1.0,0.0,-6.0,-3.0,-3.0,-1.0,1651023997874883.0
0.0,3.0,-3.0,-2.0,3.0,0.0,-1.0,-1.0,1651023997880897.0
1.0,-13.0,-5.0,-1.0,-1.0,2.0,0.0,1.0,1651023997880897.0
-5.0,-3.0,1.0,-3.0,-1.0,-1.0,0.0,-2.0,1651023997881868.0
-8.0,-6.0,-1.0,-1.0,-2.0,0.0,-1.0,-3.0,1651023997881868.0
-1.0,28.0,7.0,0.0,6.0,3.0,-2.0,-1.0,1651023997904153.0
-6.0,-11.0,-4.0,2.0,-3.0,-3.0,0.0,-1.0,1651023997904153.0
-2.0,-14.0,1.0,0.0,-1.0,-2.0,-1.0,-2.0,1651023997904835.0
4.0,2.0,-4.0,-2.0,-3.0,-1.0,-1.0,0.0,1651023997904835.0
0.0,36.0,6.0,0.0,-5.0,-1.0,0.0,-2.0,1651023997925936.0
-1.0,-24.0,-12.0,-7.0,-2.0,-2.0,1.0,1.0,1651023997925936.0
-6.0,-40.0,-8.0,1.0,15.0,0.0,2.0,1.0,1651023997926879.0
-3.0,21.0,1.0,-1.0,-5.0,-1.0,-2.0,-4.0,1651023997926879.0
5.0,-6.0,0.0,3.0,0.0,0.0,1.0,1.0,1651023997940897.0
-8.0,32.0,2.0,-2.0,-3.0,-4.0,-2.0,-2.0,1651023997940897.0
-2.0,4.0,1.0,-5.0,-9.0,-3.0,-1.0,-2.0,1651023997941828.0
1.0,-21.0,-4.0,-1.0,-1.0,0.0,-1.0,-1.0,1651023997941828.0
1.0,2.0,-1.0,-3.0,1.0,-1.0,-1.0,0.0,1651023997963768.0
8.0,23.0,4.0,-3.0,-5.0,-3.0,0.0,1.0,1651023997963768.0
-14.0,-19.0,-8.0,-1.0,5.0,4.0,-2.0,-5.0,1651023997964765.0
-1.0,13.0,5.0,0.0,-2.0,-3.0,-1.0,0.0,1651023997964765.0
-2.0,-3.0,5.0,2.0,1.0,0.0,-2.0,-1.0,1651023997985894.0
3.0,-12.0,3.0,6.0,2.0,1.0,2.0,3.0,1651023997985894.0
6.0,28.0,1.0,-5.0,-9.0,-3.0,1.0,-1.0,1651023997986825.0
-9.0,-41.0,-6.0,-3.0,-3.0,-1.0,0.0,-3.0,1651023997986825.0
-1.0,-12.0,-3.0,0.0,3.0,1.0,0.0,-2.0,1651023998000940.0
2.0,9.0,5.0,1.0,0.0,-3.0,0.0,0.0,1651023998000940.0
1.0,-3.0,0.0,0.0,1.0,3.0,0.0,1.0,1651023998001940.0
3.0,7.0,-3.0,0.0,2.0,0.0,0.0,2.0,1651023998001940.0
4.0,0.0,-1.0,-4.0,-14.0,-3.0,1.0,3.0,1651023998024066.0
-21.0,-72.0,-13.0,0.0,21.0,2.0,-3.0,-8.0,1651023998024066.0
3.0,19.0,6.0,3.0,0.0,2.0,1.0,0.0,1651023998024066.0
5.0,18.0,-9.0,-5.0,-10.0,-5.0,-2.0,0.0,1651023998024066.0
-3.0,-8.0,-1.0,0.0,-7.0,-2.0,-2.0,0.0,1651023998046562.0
6.0,8.0,1.0,-2.0,4.0,-1.0,2.0,1.0,1651023998046562.0
-2.0,-11.0,1.0,1.0,-1.0,-2.0,-2.0,-1.0,1651023998046562.0
-2.0,1.0,3.0,1.0,3.0,3.0,1.0,0.0,1651023998046562.0
0.0,-10.0,-5.0,-3.0,-3.0,-2.0,0.0,1.0,1651023998061602.0
4.0,51.0,3.0,-1.0,-9.0,-1.0,-2.0,-1.0,1651023998061602.0
-8.0,-32.0,-1.0,1.0,1.0,-3.0,-2.0,-5.0,1651023998061602.0
3.0,10.0,1.0,-1.0,1.0,0.0,0.0,1.0,1651023998061602.0
0.0,-3.0,-3.0,-1.0,1.0,-1.0,0.0,-1.0,1651023998084121.0
4.0,-28.0,-9.0,-1.0,1.0,2.0,2.0,3.0,1651023998084121.0
-3.0,6.0,-2.0,-2.0,-2.0,-2.0,0.0,1.0,1651023998084589.0
1.0,-2.0,0.0,-3.0,-2.0,-1.0,-1.0,1.0,1651023998084589.0
-5.0,7.0,-4.0,-4.0,4.0,-2.0,-1.0,-3.0,1651023998106732.0
-5.0,-3.0,1.0,3.0,-2.0,1.0,-1.0,0.0,1651023998106732.0
3.0,-4.0,1.0,2.0,2.0,-1.0,-1.0,0.0,1651023998106732.0
-1.0,-8.0,0.0,4.0,7.0,4.0,0.0,-2.0,1651023998106732.0
-2.0,4.0,-5.0,2.0,2.0,-1.0,-1.0,-1.0,1651023998121703.0
2.0,-1.0,5.0,-2.0,-5.0,-2.0,-1.0,-1.0,1651023998121703.0
3.0,15.0,-8.0,-4.0,-8.0,-1.0,-2.0,0.0,1651023998121703.0
-5.0,-24.0,-5.0,-5.0,-8.0,-2.0,-3.0,-1.0,1651023998121703.0
-2.0,-13.0,1.0,1.0,8.0,4.0,-2.0,-2.0,1651023998144101.0
2.0,16.0,0.0,2.0,6.0,1.0,-1.0,-1.0,1651023998144101.0
2.0,11.0,5.0,-1.0,-9.0,-5.0,0.0,-2.0,1651023998144859.0
17.0,26.0,6.0,2.0,6.0,2.0,1.0,5.0,1651023998144859.0
-16.0,10.0,2.0,-1.0,-9.0,-3.0,-4.0,-6.0,1651023998166716.0
-1.0,-15.0,1.0,-2.0,-4.0,-1.0,0.0,0.0,1651023998166716.0
4.0,9.0,5.0,2.0,3.0,0.0,0.0,1.0,1651023998166716.0
0.0,5.0,-1.0,1.0,-2.0,0.0,0.0,1.0,1651023998166716.0
4.0,-3.0,0.0,0.0,1.0,0.0,0.0,0.0,1651023998180803.0
-2.0,-10.0,-2.0,-1.0,2.0,1.0,-1.0,1.0,1651023998180803.0
0.0,8.0,-1.0,-6.0,-6.0,-3.0,-1.0,-1.0,1651023998181814.0
-4.0,-12.0,-6.0,-2.0,-4.0,-4.0,-1.0,-3.0,1651023998181814.0
0.0,-6.0,-1.0,2.0,15.0,4.0,0.0,-1.0,1651023998203948.0
-1.0,2.0,2.0,0.0,-6.0,-2.0,0.0,-2.0,1651023998203948.0
-8.0,-47.0,-12.0,-1.0,-4.0,-1.0,-1.0,0.0,1651023998204905.0
2.0,31.0,9.0,-1.0,-5.0,-1.0,-2.0,0.0,1651023998204905.0
-7.0,-38.0,-9.0,-3.0,-2.0,-1.0,-2.0,-3.0,1651023998226707.0
3.0,12.0,-1.0,0.0,2.0,1.0,-1.0,-2.0,1651023998226707.0
0.0,-5.0,0.0,1.0,-2.0,-2.0,0.0,-1.0,1651023998226707.0
-4.0,-2.0,-1.0,-1.0,0.0,1.0,1.0,-2.0,1651023998226707.0
1.0,6.0,-2.0,-1.0,0.0,0.0,1.0,-1.0,1651023998241699.0
3.0,-6.0,-2.0,-3.0,-20.0,-5.0,0.0,2.0,1651023998241699.0
-1.0,-5.0,5.0,2.0,30.0,8.0,-1.0,-3.0,1651023998241699.0
-1.0,-7.0,0.0,3.0,0.0,-1.0,1.0,0.0,1651023998241699.0
4.0,15.0,3.0,1.0,0.0,-1.0,0.0,1.0,1651023998272391.0
-4.0,-3.0,-3.0,-2.0,-8.0,-3.0,-2.0,0.0,1651023998272391.0
2.0,7.0,0.0,-1.0,-5.0,-4.0,1.0,0.0,1651023998272391.0
-1.0,-1.0,0.0,-1.0,5.0,1.0,-1.0,-1.0,1651023998272391.0
-3.0,-21.0,-9.0,-5.0,-17.0,-7.0,1.0,-1.0,1651023998286676.0
-3.0,-4.0,-1.0,-2.0,13.0,7.0,-3.0,-2.0,1651023998286676.0
7.0,60.0,12.0,4.0,3.0,3.0,-1.0,1.0,1651023998286676.0
-5.0,-6.0,-3.0,2.0,0.0,-2.0,-1.0,-3.0,1651023998286676.0
3.0,0.0,4.0,0.0,-2.0,0.0,0.0,1.0,1651023998301667.0
-1.0,-8.0,-6.0,-5.0,-3.0,-2.0,-1.0,0.0,1651023998301667.0
2.0,0.0,-2.0,-3.0,-3.0,-1.0,-1.0,3.0,1651023998301667.0
-1.0,1.0,3.0,-1.0,-6.0,-2.0,0.0,-1.0,1651023998301667.0
1.0,9.0,-2.0,-3.0,2.0,-1.0,0.0,0.0,1651023998324229.0
1.0,2.0,1.0,3.0,12.0,2.0,0.0,-1.0,1651023998324229.0
1.0,-9.0,-2.0,-1.0,-7.0,-2.0,1.0,-1.0,1651023998324229.0
-1.0,5.0,-3.0,-5.0,-16.0,-3.0,-1.0,-3.0,1651023998324229.0
-1.0,-3.0,0.0,1.0,15.0,2.0,-1.0,-2.0,1651023998346239.0
0.0,6.0,4.0,2.0,0.0,1.0,0.0,0.0,1651023998346239.0
-6.0,-24.0,-4.0,-2.0,-6.0,-2.0,0.0,0.0,1651023998347171.0
0.0,1.0,-3.0,-5.0,0.0,0.0,0.0,2.0,1651023998347171.0
1.0,17.0,0.0,-1.0,-3.0,0.0,0.0,0.0,1651023998361134.0
-4.0,-6.0,0.0,0.0,-1.0,-1.0,-3.0,-2.0,1651023998361134.0
-2.0,-5.0,2.0,1.0,1.0,0.0,0.0,1.0,1651023998362131.0
0.0,6.0,0.0,0.0,-2.0,-3.0,1.0,-1.0,1651023998362131.0
-6.0,-7.0,-3.0,-3.0,0.0,3.0,-1.0,-2.0,1651023998384127.0
-1.0,-14.0,-6.0,-3.0,-2.0,-2.0,2.0,-1.0,1651023998384127.0
3.0,14.0,2.0,1.0,-5.0,-3.0,0.0,1.0,1651023998384861.0
0.0,-2.0,0.0,1.0,8.0,0.0,1.0,-1.0,1651023998384861.0
1.0,2.0,1.0,-2.0,-11.0,-6.0,-1.0,-1.0,1651023998406731.0
0.0,3.0,1.0,-1.0,9.0,5.0,-1.0,0.0,1651023998406731.0
3.0,9.0,5.0,0.0,1.0,1.0,0.0,2.0,1651023998406731.0
-2.0,-6.0,-8.0,-2.0,0.0,-4.0,-2.0,-1.0,1651023998406731.0
-1.0,-3.0,0.0,1.0,1.0,2.0,0.0,-1.0,1651023998429853.0
5.0,12.0,3.0,-2.0,-10.0,-3.0,-1.0,1.0,1651023998429853.0
-6.0,-5.0,-2.0,-3.0,0.0,0.0,-1.0,-1.0,1651023998429853.0
0.0,-9.0,3.0,0.0,8.0,5.0,1.0,2.0,1651023998429853.0
1.0,3.0,-1.0,1.0,-3.0,0.0,-1.0,1.0,1651023998443806.0
5.0,15.0,1.0,-1.0,-1.0,0.0,0.0,0.0,1651023998443806.0
-8.0,-34.0,-8.0,-2.0,-2.0,-3.0,-2.0,-4.0,1651023998444763.0
-2.0,-2.0,3.0,1.0,-7.0,-1.0,-2.0,-2.0,1651023998444763.0
1.0,-2.0,2.0,4.0,14.0,0.0,-1.0,1.0,1651023998466707.0
-2.0,8.0,4.0,2.0,-3.0,-1.0,0.0,-1.0,1651023998466707.0
4.0,0.0,-1.0,0.0,-2.0,-1.0,0.0,-2.0,1651023998466707.0
-3.0,-4.0,-4.0,-6.0,-15.0,-1.0,-2.0,-1.0,1651023998466707.0
0.0,5.0,1.0,1.0,15.0,1.0,0.0,-1.0,1651023998481637.0
0.0,5.0,0.0,1.0,-1.0,0.0,1.0,-1.0,1651023998481637.0
-2.0,-38.0,-13.0,-3.0,-6.0,2.0,1.0,-1.0,1651023998481637.0
-1.0,13.0,-2.0,1.0,2.0,2.0,0.0,0.0,1651023998481637.0
5.0,5.0,2.0,0.0,-1.0,0.0,-1.0,2.0,1651023998504084.0
1.0,-12.0,-4.0,2.0,2.0,0.0,0.0,0.0,1651023998504084.0
-5.0,-32.0,-10.0,-3.0,-3.0,-3.0,-1.0,-2.0,1651023998504084.0
3.0,15.0,1.0,-2.0,2.0,2.0,0.0,0.0,1651023998504084.0
-6.0,-21.0,-5.0,-5.0,-8.0,-2.0,0.0,-2.0,1651023998526025.0
-6.0,-17.0,-3.0,-2.0,2.0,-2.0,-1.0,-1.0,1651023998526025.0
-1.0,25.0,5.0,-3.0,-4.0,0.0,0.0,-1.0,1651023998527024.0
3.0,-3.0,2.0,5.0,6.0,1.0,-1.0,-1.0,1651023998527024.0
2.0,16.0,6.0,0.0,-3.0,-1.0,0.0,1.0,1651023998540985.0
1.0,5.0,-4.0,-4.0,-4.0,-2.0,-2.0,-1.0,1651023998540985.0
1.0,10.0,0.0,-6.0,-22.0,-8.0,-2.0,-1.0,1651023998541983.0
-2.0,-3.0,3.0,-1.0,22.0,6.0,-1.0,0.0,1651023998541983.0
0.0,-1.0,-5.0,5.0,14.0,4.0,-1.0,0.0,1651023998563951.0
-5.0,14.0,3.0,-2.0,-8.0,-4.0,-1.0,-4.0,1651023998563951.0
3.0,14.0,1.0,-2.0,0.0,-3.0,1.0,1.0,1651023998565018.0
-2.0,-15.0,0.0,-5.0,-13.0,-2.0,-2.0,0.0,1651023998565018.0
1.0,-8.0,6.0,1.0,-5.0,-3.0,-1.0,1.0,1651023998586035.0
4.0,26.0,-8.0,1.0,4.0,-1.0,-1.0,1.0,1651023998586035.0
-3.0,-22.0,-4.0,-1.0,1.0,-1.0,-1.0,0.0,1651023998587035.0
5.0,14.0,4.0,1.0,-4.0,-5.0,0.0,0.0,1651023998587035.0
-7.0,-18.0,-5.0,-6.0,-2.0,1.0,-3.0,-3.0,1651023998601092.0
0.0,-3.0,10.0,0.0,0.0,3.0,1.0,0.0,1651023998601092.0
2.0,15.0,3.0,3.0,5.0,1.0,0.0,0.0,1651023998602027.0
0.0,-4.0,-10.0,-4.0,0.0,-2.0,-1.0,0.0,1651023998602027.0
0.0,-2.0,-2.0,-1.0,-7.0,-2.0,0.0,0.0,1651023998623987.0
5.0,16.0,3.0,0.0,-3.0,-4.0,-2.0,-1.0,1651023998623987.0
0.0,2.0,3.0,2.0,4.0,0.0,1.0,-1.0,1651023998624920.0
0.0,2.0,-2.0,-1.0,3.0,0.0,-1.0,0.0,1651023998624920.0
-2.0,15.0,1.0,-3.0,-19.0,-6.0,1.0,-2.0,1651023998646086.0
-5.0,-21.0,-5.0,1.0,19.0,6.0,-1.0,2.0,1651023998646086.0
0.0,1.0,-1.0,0.0,6.0,2.0,0.0,-1.0,1651023998647016.0
-9.0,4.0,4.0,2.0,-2.0,2.0,0.0,-3.0,1651023998647016.0
2.0,0.0,-11.0,-2.0,-6.0,-2.0,-1.0,0.0,1651023998660973.0
-1.0,-19.0,-2.0,-5.0,-12.0,-4.0,-1.0,0.0,1651023998660973.0
5.0,28.0,0.0,-2.0,6.0,1.0,-3.0,-2.0,1651023998668874.0
1.0,-1.0,-2.0,0.0,-14.0,-11.0,1.0,2.0,1651023998668874.0
7.0,-2.0,15.0,5.0,8.0,12.0,3.0,0.0,1651023998684131.0
-3.0,3.0,-1.0,1.0,15.0,6.0,1.0,-1.0,1651023998684131.0
-6.0,-6.0,-1.0,-3.0,-3.0,-2.0,-3.0,-2.0,1651023998684861.0
-2.0,-22.0,0.0,1.0,2.0,1.0,-2.0,1.0,1651023998684861.0
6.0,14.0,-16.0,-3.0,-5.0,-6.0,0.0,1.0,1651023998706032.0
8.0,6.0,-8.0,-3.0,-5.0,0.0,0.0,1.0,1651023998706032.0
0.0,-11.0,3.0,-1.0,-4.0,2.0,-1.0,1.0,1651023998706966.0
4.0,11.0,21.0,13.0,12.0,0.0,1.0,2.0,1651023998706966.0
-4.0,2.0,2.0,-2.0,8.0,0.0,-1.0,-1.0,1651023998720982.0
0.0,-26.0,-4.0,4.0,-5.0,0.0,0.0,0.0,1651023998720982.0
0.0,7.0,-6.0,-8.0,-7.0,-3.0,-2.0,-1.0,1651023998728970.0
0.0,-1.0,6.0,-3.0,-7.0,0.0,-1.0,1.0,1651023998728970.0
0.0,-1.0,6.0,3.0,4.0,0.0,0.0,2.0,1651023998743934.0
0.0,0.0,-18.0,-12.0,-10.0,-7.0,0.0,-1.0,1651023998743934.0
2.0,6.0,13.0,3.0,-6.0,3.0,0.0,2.0,1651023998744865.0
-2.0,-1.0,5.0,10.0,12.0,-4.0,-1.0,-2.0,1651023998744865.0
-2.0,11.0,4.0,0.0,8.0,6.0,-1.0,-3.0,1651023998765903.0
4.0,6.0,32.0,5.0,-1.0,2.0,1.0,1.0,1651023998765903.0
-3.0,-6.0,-53.0,-19.0,-13.0,-5.0,2.0,0.0,1651023998781814.0
-4.0,-14.0,-5.0,10.0,27.0,5.0,0.0,-2.0,1651023998781814.0
9.0,27.0,26.0,7.0,-9.0,-6.0,-2.0,-1.0,1651023998783788.0
-4.0,9.0,12.0,6.0,-5.0,-2.0,2.0,5.0,1651023998783788.0
-16.0,-14.0,-12.0,-2.0,-10.0,-6.0,-8.0,-11.0,1651023998788802.0
2.0,-2.0,-3.0,7.0,-7.0,-3.0,1.0,-1.0,1651023998788802.0
-9.0,-19.0,-18.0,-29.0,-9.0,-3.0,-4.0,-5.0,1651023998803748.0
13.0,18.0,34.0,26.0,17.0,6.0,1.0,3.0,1651023998803748.0
15.0,14.0,1.0,16.0,2.0,-4.0,7.0,8.0,1651023998811744.0
-13.0,4.0,-10.0,-17.0,1.0,2.0,-9.0,-12.0,1651023998811744.0
11.0,11.0,22.0,-11.0,-5.0,3.0,7.0,11.0,1651023998826657.0
-10.0,-37.0,-29.0,-9.0,-27.0,-10.0,-6.0,-8.0,1651023998826657.0
-19.0,-8.0,0.0,0.0,34.0,6.0,-1.0,-5.0,1651023998826657.0
-4.0,-5.0,-37.0,10.0,-5.0,1.0,3.0,-1.0,1651023998826657.0
7.0,-3.0,11.0,-21.0,-17.0,-3.0,4.0,4.0,1651023998840656.0
7.0,13.0,3.0,-8.0,12.0,1.0,-11.0,-2.0,1651023998840656.0
17.0,7.0,-12.0,-30.0,-17.0,-2.0,2.0,7.0,1651023998848764.0
6.0,3.0,29.0,55.0,24.0,5.0,18.0,4.0,1651023998848764.0
-45.0,-15.0,-3.0,15.0,8.0,3.0,-14.0,-6.0,1651023998863790.0
23.0,-2.0,-15.0,-14.0,-12.0,0.0,12.0,6.0,1651023998863790.0
-8.0,-6.0,-7.0,-6.0,2.0,20.0,95.0,29.0,1651023998864721.0
-36.0,-37.0,-94.0,-99.0,-44.0,-22.0,-105.0,-60.0,1651023998864721.0
-30.0,-19.0,40.0,-18.0,-20.0,-32.0,-16.0,-29.0,1651023998886082.0
63.0,24.0,12.0,38.0,30.0,17.0,81.0,34.0,1651023998886082.0
19.0,10.0,22.0,37.0,4.0,6.0,-40.0,5.0,1651023998893882.0
49.0,32.0,13.0,-38.0,-26.0,-7.0,127.0,53.0,1651023998893882.0
-44.0,-10.0,1.0,61.0,33.0,23.0,52.0,10.0,1651023998900932.0
-2.0,-16.0,3.0,0.0,12.0,-5.0,-116.0,-44.0,1651023998900932.0
1.0,38.0,112.0,66.0,53.0,4.0,-71.0,-33.0,1651023998908910.0
16.0,-19.0,-38.0,23.0,-21.0,-38.0,-51.0,-5.0,1651023998908910.0
13.0,2.0,-34.0,-40.0,-42.0,-39.0,-35.0,-18.0,1651023998924129.0
4.0,5.0,-35.0,-64.0,-25.0,0.0,127.0,59.0,1651023998924129.0
14.0,21.0,62.0,68.0,28.0,18.0,-68.0,10.0,1651023998924129.0
-27.0,-15.0,-24.0,-37.0,13.0,65.0,-76.0,-51.0,1651023998924129.0
16.0,8.0,53.0,62.0,25.0,70.0,99.0,12.0,1651023998946679.0
-30.0,-42.0,-114.0,-100.0,-29.0,22.0,21.0,-6.0,1651023998946679.0
-5.0,8.0,24.0,-5.0,-21.0,-99.0,-4.0,-1.0,1651023998946679.0
-15.0,-19.0,6.0,-16.0,1.0,20.0,4.0,7.0,1651023998946679.0
32.0,15.0,13.0,19.0,24.0,54.0,1.0,17.0,1651023998960710.0
-8.0,17.0,20.0,17.0,1.0,7.0,39.0,16.0,1651023998960710.0
-13.0,-7.0,37.0,47.0,10.0,-27.0,-68.0,-28.0,1651023998968689.0
0.0,6.0,-6.0,-19.0,-14.0,-35.0,37.0,11.0,1651023998968689.0
2.0,-14.0,-90.0,-94.0,-27.0,-34.0,-57.0,-17.0,1651023998983625.0
-20.0,10.0,79.0,123.0,34.0,11.0,-10.0,1.0,1651023998983625.0
-11.0,-22.0,-24.0,-48.0,-22.0,-10.0,31.0,-12.0,1651023998984625.0
23.0,14.0,-4.0,15.0,9.0,2.0,5.0,15.0,1651023998984625.0
-4.0,-9.0,-41.0,-38.0,-16.0,-42.0,-13.0,-2.0,1651023999005941.0
-12.0,-10.0,7.0,-14.0,-7.0,5.0,-45.0,-25.0,1651023999005941.0
7.0,4.0,-10.0,15.0,5.0,45.0,82.0,22.0,1651023999006881.0
20.0,18.0,47.0,33.0,12.0,21.0,79.0,41.0,1651023999006881.0
-3.0,19.0,-16.0,-3.0,9.0,-41.0,-81.0,-26.0,1651023999028957.0
-33.0,-51.0,-12.0,-20.0,-14.0,-40.0,-64.0,-41.0,1651023999028957.0
-3.0,-14.0,-17.0,-6.0,-4.0,39.0,55.0,-2.0,1651023999029932.0
-2.0,11.0,31.0,12.0,3.0,22.0,58.0,25.0,1651023999029932.0
32.0,35.0,70.0,75.0,9.0,0.0,58.0,33.0,1651023999043953.0
-18.0,-40.0,-82.0,-76.0,-40.0,-52.0,-79.0,-25.0,1651023999043953.0
0.0,-5.0,8.0,-33.0,7.0,-11.0,-40.0,-13.0,1651023999044915.0
-3.0,-1.0,10.0,9.0,12.0,-4.0,-21.0,0.0,1651023999044915.0
10.0,-1.0,9.0,7.0,2.0,11.0,14.0,13.0,1651023999065862.0
1.0,20.0,33.0,50.0,26.0,17.0,24.0,1.0,1651023999065862.0
-3.0,-1.0,-25.0,-29.0,-22.0,-2.0,2.0,5.0,1651023999066859.0
-12.0,2.0,1.0,-14.0,-11.0,-40.0,-21.0,-13.0,1651023999066859.0
-14.0,-16.0,-19.0,-18.0,-8.0,32.0,-13.0,-10.0,1651023999089953.0
-1.0,6.0,15.0,18.0,6.0,9.0,15.0,6.0,1651023999089953.0
10.0,-8.0,-23.0,-3.0,-2.0,-13.0,13.0,9.0,1651023999089953.0
2.0,12.0,12.0,22.0,3.0,-47.0,25.0,7.0,1651023999089953.0
-4.0,-14.0,-10.0,-15.0,-7.0,44.0,9.0,1.0,1651023999103884.0
-12.0,11.0,45.0,17.0,-5.0,-15.0,-66.0,-36.0,1651023999103884.0
8.0,2.0,-27.0,-24.0,-7.0,54.0,28.0,-4.0,1651023999104855.0
-19.0,-20.0,14.0,11.0,4.0,78.0,35.0,-7.0,1651023999104855.0
9.0,-15.0,-23.0,-3.0,2.0,-25.0,75.0,26.0,1651023999126681.0
8.0,26.0,43.0,31.0,5.0,-9.0,-25.0,12.0,1651023999126681.0
-20.0,-21.0,-68.0,-25.0,-2.0,-47.0,-27.0,-18.0,1651023999126681.0
2.0,-3.0,-1.0,-28.0,-14.0,-23.0,-28.0,-13.0,1651023999126681.0
7.0,5.0,11.0,14.0,11.0,-5.0,-6.0,0.0,1651023999149748.0
0.0,4.0,-6.0,6.0,-3.0,7.0,6.0,8.0,1651023999149748.0
-12.0,-13.0,26.0,18.0,10.0,7.0,22.0,8.0,1651023999149748.0
-2.0,7.0,-22.0,-13.0,-1.0,-6.0,-36.0,-10.0,1651023999149748.0
3.0,-1.0,8.0,34.0,13.0,3.0,-4.0,1.0,1651023999171838.0
12.0,14.0,3.0,-15.0,-12.0,2.0,21.0,6.0,1651023999171838.0
8.0,1.0,-16.0,-13.0,4.0,13.0,30.0,17.0,1651023999172836.0
-9.0,-5.0,33.0,26.0,0.0,-33.0,-42.0,-24.0,1651023999172836.0
-4.0,-7.0,-20.0,-17.0,-7.0,2.0,-54.0,-18.0,1651023999185964.0
18.0,-3.0,-31.0,-14.0,-6.0,-12.0,20.0,4.0,1651023999185964.0
-1.0,3.0,1.0,-8.0,-2.0,31.0,21.0,4.0,1651023999186894.0
1.0,3.0,33.0,25.0,8.0,7.0,8.0,7.0,1651023999186894.0
0.0,6.0,17.0,11.0,-1.0,22.0,34.0,6.0,1651023999209933.0
1.0,0.0,37.0,38.0,13.0,7.0,61.0,10.0,1651023999209933.0
-21.0,-22.0,-33.0,-63.0,-27.0,-29.0,-100.0,-53.0,1651023999209933.0
15.0,10.0,49.0,49.0,4.0,-17.0,0.0,4.0,1651023999209933.0
-4.0,-7.0,9.0,-9.0,5.0,-20.0,-7.0,2.0,1651023999223959.0
0.0,5.0,-57.0,-63.0,-16.0,16.0,38.0,12.0,1651023999223959.0
6.0,10.0,24.0,34.0,10.0,7.0,50.0,25.0,1651023999224924.0
8.0,7.0,-5.0,1.0,19.0,15.0,-21.0,-4.0,1651023999224924.0
-27.0,-11.0,25.0,32.0,2.0,-12.0,-28.0,-21.0,1651023999246150.0
-6.0,0.0,42.0,58.0,20.0,-20.0,-12.0,3.0,1651023999246150.0
-9.0,-7.0,-90.0,-107.0,-44.0,2.0,22.0,-2.0,1651023999247085.0
0.0,-16.0,-35.0,-28.0,-14.0,-1.0,-62.0,-9.0,1651023999247085.0
12.0,7.0,31.0,27.0,7.0,-56.0,-2.0,12.0,1651023999269008.0
-11.0,-5.0,14.0,-5.0,-1.0,52.0,15.0,-6.0,1651023999269008.0
15.0,5.0,-7.0,22.0,20.0,23.0,31.0,18.0,1651023999269947.0
-4.0,1.0,7.0,6.0,0.0,12.0,23.0,8.0,1651023999269947.0
5.0,5.0,21.0,13.0,-8.0,0.0,22.0,4.0,1651023999283897.0
-2.0,1.0,-72.0,-80.0,-22.0,-16.0,-21.0,-6.0,1651023999283897.0
-12.0,4.0,43.0,39.0,7.0,-36.0,-72.0,-27.0,1651023999284894.0
-10.0,2.0,-18.0,-27.0,-6.0,9.0,18.0,2.0,1651023999284894.0
1.0,3.0,17.0,15.0,19.0,-7.0,-4.0,-3.0,1651023999305982.0
-3.0,0.0,-14.0,-21.0,-13.0,-10.0,18.0,15.0,1651023999305982.0
10.0,5.0,88.0,87.0,19.0,31.0,51.0,21.0,1651023999306914.0
-9.0,-18.0,-80.0,-77.0,-22.0,-31.0,-64.0,-22.0,1651023999306914.0
7.0,8.0,-6.0,-10.0,-5.0,20.0,16.0,2.0,1651023999329918.0
-7.0,-5.0,-8.0,-11.0,0.0,-29.0,-10.0,-3.0,1651023999329918.0
-1.0,5.0,20.0,18.0,9.0,42.0,11.0,-2.0,1651023999330849.0
-4.0,-1.0,37.0,32.0,3.0,-29.0,-33.0,-5.0,1651023999330849.0
-8.0,-4.0,-27.0,-15.0,-4.0,39.0,53.0,12.0,1651023999343815.0
5.0,11.0,41.0,35.0,26.0,19.0,-7.0,-12.0,1651023999343815.0
-9.0,7.0,-47.0,-21.0,-4.0,-29.0,-58.0,2.0,1651023999344814.0
20.0,12.0,13.0,6.0,-5.0,40.0,14.0,-2.0,1651023999344814.0
-9.0,-6.0,-23.0,-20.0,-11.0,-2.0,-21.0,-8.0,1651023999365771.0
-6.0,-10.0,25.0,28.0,10.0,-27.0,-6.0,3.0,1651023999365771.0
3.0,8.0,63.0,16.0,5.0,7.0,50.0,10.0,1651023999366768.0
-3.0,-14.0,-77.0,7.0,18.0,6.0,19.0,12.0,1651023999366768.0
0.0,7.0,8.0,1.0,-14.0,-15.0,-46.0,-22.0,1651023999389861.0
5.0,18.0,61.0,53.0,29.0,27.0,5.0,8.0,1651023999389861.0
3.0,-19.0,-75.0,-57.0,-26.0,-25.0,50.0,14.0,1651023999389861.0
2.0,11.0,30.0,-6.0,13.0,-6.0,-40.0,-10.0,1651023999389861.0
8.0,2.0,52.0,52.0,21.0,7.0,-2.0,-2.0,1651023999403788.0
0.0,-12.0,-74.0,-67.0,-19.0,0.0,15.0,4.0,1651023999403788.0
0.0,0.0,-5.0,8.0,-5.0,-41.0,6.0,4.0,1651023999404786.0
19.0,0.0,45.0,34.0,10.0,82.0,71.0,25.0,1651023999404786.0
-20.0,-4.0,-11.0,-9.0,-1.0,-8.0,-43.0,-33.0,1651023999425968.0
-15.0,-9.0,-30.0,-38.0,-9.0,-3.0,-14.0,-10.0,1651023999425968.0
-1.0,-7.0,4.0,-13.0,-16.0,-14.0,-27.0,-14.0,1651023999426898.0
-4.0,2.0,21.0,23.0,-3.0,-25.0,33.0,14.0,1651023999426898.0
16.0,2.0,-9.0,-22.0,5.0,-6.0,-9.0,8.0,1651023999449944.0
3.0,-5.0,-14.0,-12.0,-2.0,2.0,12.0,-2.0,1651023999449944.0
-2.0,1.0,23.0,17.0,-3.0,-11.0,11.0,5.0,1651023999450961.0
5.0,3.0,-8.0,-8.0,-1.0,-12.0,-81.0,-34.0,1651023999450961.0
-21.0,-6.0,-11.0,-3.0,0.0,21.0,15.0,3.0,1651023999464003.0
5.0,-3.0,3.0,-13.0,-2.0,3.0,-12.0,-1.0,1651023999464003.0
12.0,12.0,8.0,21.0,4.0,0.0,35.0,20.0,1651023999464003.0
-14.0,-1.0,4.0,1.0,12.0,-13.0,-15.0,-14.0,1651023999464003.0
13.0,-9.0,-33.0,-35.0,-20.0,-13.0,-3.0,10.0,1651023999486063.0
3.0,3.0,-4.0,14.0,-11.0,-28.0,-18.0,-5.0,1651023999486063.0
-16.0,17.0,76.0,52.0,21.0,49.0,28.0,0.0,1651023999487032.0
-11.0,-21.0,-57.0,-36.0,-7.0,13.0,9.0,-8.0,1651023999487032.0
6.0,1.0,-37.0,-39.0,-11.0,-41.0,-28.0,-7.0,1651023999509196.0
-1.0,3.0,45.0,40.0,-1.0,22.0,37.0,9.0,1651023999509196.0
12.0,1.0,-42.0,-20.0,-5.0,-8.0,-63.0,-5.0,1651023999510126.0
0.0,15.0,63.0,55.0,10.0,-12.0,25.0,5.0,1651023999510126.0
-1.0,-14.0,-45.0,-35.0,-1.0,18.0,37.0,9.0,1651023999524153.0
12.0,-6.0,7.0,5.0,4.0,-6.0,-17.0,-7.0,1651023999524153.0
-9.0,1.0,-5.0,-11.0,-4.0,-4.0,14.0,-1.0,1651023999524861.0
-11.0,9.0,23.0,-4.0,-7.0,-12.0,-64.0,-8.0,1651023999524861.0
-1.0,-2.0,-3.0,13.0,-10.0,-16.0,3.0,4.0,1651023999545870.0
4.0,1.0,3.0,18.0,13.0,-2.0,8.0,5.0,1651023999545870.0
3.0,-13.0,-6.0,0.0,20.0,23.0,15.0,-5.0,1651023999546805.0
-2.0,-2.0,-13.0,-21.0,-18.0,-10.0,21.0,10.0,1651023999546805.0
-4.0,4.0,24.0,6.0,-7.0,3.0,6.0,2.0,1651023999569806.0
-7.0,8.0,21.0,42.0,11.0,-6.0,-26.0,-6.0,1651023999569806.0
2.0,-12.0,-61.0,-60.0,-23.0,0.0,-6.0,-6.0,1651023999569806.0
2.0,5.0,-4.0,-9.0,-4.0,-7.0,41.0,13.0,1651023999569806.0
4.0,2.0,17.0,17.0,9.0,39.0,-9.0,-1.0,1651023999582708.0
2.0,6.0,15.0,15.0,7.0,-3.0,18.0,5.0,1651023999582708.0
-8.0,-10.0,-13.0,-9.0,-7.0,-19.0,-45.0,-17.0,1651023999591717.0
-1.0,3.0,8.0,13.0,7.0,19.0,6.0,4.0,1651023999591717.0
0.0,4.0,-7.0,-2.0,3.0,-10.0,-1.0,-4.0,1651023999605823.0
-10.0,2.0,11.0,5.0,-4.0,-22.0,-5.0,-3.0,1651023999605823.0
5.0,-1.0,-24.0,-23.0,-12.0,21.0,14.0,4.0,1651023999606759.0
3.0,-4.0,12.0,14.0,-3.0,-4.0,-6.0,0.0,1651023999606759.0
3.0,7.0,11.0,7.0,6.0,-7.0,-8.0,-2.0,1651023999629765.0
-8.0,-6.0,-4.0,1.0,0.0,3.0,-11.0,-7.0,1651023999629765.0
7.0,10.0,-5.0,18.0,13.0,-15.0,-27.0,0.0,1651023999629765.0
-1.0,14.0,31.0,21.0,3.0,2.0,38.0,11.0,1651023999629765.0
-1.0,-7.0,-3.0,4.0,9.0,15.0,15.0,9.0,1651023999642725.0
-1.0,-15.0,-58.0,-69.0,-29.0,-11.0,26.0,3.0,1651023999642725.0
-8.0,8.0,62.0,38.0,5.0,-16.0,-84.0,-28.0,1651023999658682.0
2.0,-16.0,-71.0,-53.0,-19.0,25.0,37.0,6.0,1651023999658682.0
3.0,6.0,17.0,18.0,12.0,-43.0,-28.0,-4.0,1651023999666600.0
-1.0,-3.0,4.0,2.0,-4.0,10.0,20.0,2.0,1651023999666600.0
5.0,9.0,1.0,10.0,6.0,88.0,34.0,11.0,1651023999666600.0
-4.0,-8.0,-2.0,-11.0,-5.0,-24.0,-18.0,-12.0,1651023999666600.0
5.0,7.0,6.0,1.0,-9.0,-6.0,65.0,24.0,1651023999689605.0
-8.0,-9.0,18.0,3.0,0.0,13.0,-70.0,-26.0,1651023999689605.0
-1.0,-14.0,-42.0,-8.0,-4.0,-34.0,-12.0,-3.0,1651023999690562.0
2.0,3.0,0.0,-12.0,2.0,-1.0,6.0,6.0,1651023999690562.0
-1.0,-6.0,14.0,27.0,15.0,9.0,16.0,1.0,1651023999703505.0
1.0,1.0,-36.0,-39.0,-18.0,-9.0,-7.0,2.0,1651023999703505.0
-4.0,-8.0,11.0,-9.0,-5.0,-21.0,-6.0,-5.0,1651023999711548.0
-3.0,-4.0,-7.0,16.0,2.0,15.0,9.0,-2.0,1651023999711548.0
3.0,2.0,22.0,4.0,1.0,-4.0,10.0,2.0,1651023999726553.0
-3.0,-1.0,-20.0,12.0,9.0,15.0,-21.0,0.0,1651023999726553.0
-6.0,-6.0,-14.0,-26.0,-7.0,-13.0,-18.0,-10.0,1651023999726553.0
16.0,-8.0,-5.0,-13.0,-12.0,-15.0,17.0,9.0,1651023999726553.0
-5.0,-1.0,7.0,-9.0,-8.0,-1.0,-13.0,-4.0,1651023999749009.0
-4.0,11.0,19.0,38.0,22.0,8.0,13.0,7.0,1651023999749009.0
4.0,1.0,10.0,2.0,1.0,25.0,36.0,9.0,1651023999749943.0
-8.0,-1.0,38.0,29.0,11.0,-26.0,-62.0,-17.0,1651023999749943.0
-4.0,-14.0,-83.0,-69.0,-26.0,27.0,2.0,-16.0,1651023999763243.0
5.0,11.0,9.0,-6.0,-1.0,20.0,90.0,28.0,1651023999763243.0
3.0,-9.0,-12.0,-13.0,-4.0,-18.0,-63.0,-7.0,1651023999771290.0
4.0,13.0,44.0,32.0,2.0,-35.0,21.0,8.0,1651023999771290.0
1.0,-3.0,1.0,13.0,11.0,52.0,-5.0,1.0,1651023999786212.0
1.0,1.0,23.0,14.0,-5.0,-19.0,-27.0,-12.0,1651023999786212.0
-2.0,-1.0,-57.0,-68.0,-12.0,-5.0,34.0,4.0,1651023999787208.0
1.0,5.0,25.0,47.0,10.0,5.0,7.0,4.0,1651023999787208.0
1.0,0.0,-11.0,3.0,9.0,-19.0,-28.0,-5.0,1651023999809262.0
5.0,-2.0,-4.0,-13.0,-4.0,10.0,13.0,3.0,1651023999809262.0
4.0,6.0,38.0,32.0,15.0,-3.0,4.0,5.0,1651023999810192.0
-15.0,1.0,-6.0,-11.0,-2.0,0.0,-11.0,-8.0,1651023999810192.0
-7.0,-13.0,-1.0,-11.0,-16.0,-14.0,2.0,2.0,1651023999823210.0
2.0,4.0,-12.0,4.0,-5.0,-26.0,-25.0,-6.0,1651023999823210.0
6.0,9.0,11.0,11.0,3.0,15.0,31.0,6.0,1651023999831202.0
-4.0,-11.0,-30.0,-31.0,-1.0,30.0,13.0,0.0,1651023999831202.0
7.0,6.0,37.0,41.0,12.0,-20.0,-32.0,-6.0,1651023999846163.0
-4.0,-4.0,-18.0,-32.0,-13.0,12.0,-18.0,-4.0,1651023999846163.0
-9.0,-7.0,-12.0,-2.0,-12.0,-36.0,-13.0,-3.0,1651023999854073.0
13.0,5.0,-3.0,0.0,13.0,9.0,34.0,10.0,1651023999854073.0
-3.0,13.0,31.0,26.0,-1.0,4.0,29.0,5.0,1651023999869911.0
-3.0,-12.0,-26.0,-19.0,-12.0,-20.0,-50.0,-11.0,1651023999869911.0
3.0,-2.0,-13.0,-19.0,-17.0,-8.0,8.0,4.0,1651023999869911.0
-2.0,2.0,13.0,12.0,17.0,17.0,10.0,2.0,1651023999869911.0
-6.0,-9.0,-23.0,-31.0,-4.0,-15.0,-16.0,-7.0,1651023999882888.0
6.0,10.0,14.0,31.0,13.0,11.0,14.0,0.0,1651023999882888.0
-3.0,-3.0,13.0,14.0,2.0,8.0,11.0,1.0,1651023999890896.0
1.0,0.0,-2.0,-17.0,-15.0,-10.0,-13.0,-4.0,1651023999890896.0
0.0,-5.0,-13.0,-4.0,-2.0,-1.0,3.0,-1.0,1651023999905996.0
-1.0,-3.0,8.0,0.0,6.0,8.0,7.0,4.0,1651023999905996.0
2.0,-3.0,-21.0,-8.0,8.0,-3.0,-5.0,4.0,1651023999906994.0
-4.0,0.0,-1.0,-14.0,-10.0,-5.0,6.0,-7.0,1651023999906994.0
-1.0,-2.0,9.0,6.0,-9.0,14.0,14.0,3.0,1651023999929003.0
2.0,4.0,4.0,8.0,-4.0,-10.0,-11.0,8.0,1651023999929003.0
-3.0,3.0,26.0,34.0,28.0,8.0,-11.0,-4.0,1651023999929935.0
6.0,-7.0,-52.0,-49.0,-17.0,9.0,15.0,1.0,1651023999929935.0
6.0,6.0,0.0,7.0,15.0,4.0,-4.0,0.0,1651023999951938.0
-3.0,-1.0,10.0,13.0,3.0,-4.0,56.0,14.0,1651023999951938.0
0.0,7.0,27.0,30.0,-2.0,-17.0,-82.0,-26.0,1651023999952872.0
-7.0,-8.0,-21.0,-26.0,-16.0,-13.0,-6.0,-2.0,1651023999952872.0
0.0,-1.0,-6.0,-15.0,-7.0,4.0,-3.0,-3.0,1651023999965951.0
3.0,3.0,7.0,11.0,12.0,3.0,-4.0,-3.0,1651023999965951.0
2.0,5.0,8.0,13.0,0.0,0.0,24.0,5.0,1651023999966952.0
-1.0,-2.0,3.0,8.0,2.0,9.0,1.0,5.0,1651023999966952.0
2.0,0.0,-16.0,-26.0,-18.0,-14.0,-14.0,-1.0,1651023999989008.0
0.0,2.0,13.0,15.0,0.0,10.0,-2.0,-1.0,1651023999989008.0
-1.0,-1.0,-2.0,-4.0,4.0,5.0,16.0,2.0,1651023999989952.0
-2.0,-4.0,-9.0,3.0,-4.0,-8.0,-12.0,-3.0,1651023999989952.0
0.0,2.0,6.0,4.0,13.0,0.0,7.0,4.0,1651024000012013.0
-1.0,1.0,8.0,3.0,-7.0,2.0,-11.0,-4.0,1651024000012013.0
0.0,-2.0,2.0,7.0,11.0,1.0,9.0,-2.0,1651024000012944.0
-1.0,-4.0,-18.0,-13.0,-5.0,-5.0,-6.0,-2.0,1651024000012944.0
-1.0,5.0,7.0,6.0,-7.0,-4.0,-2.0,2.0,1651024000026660.0
-3.0,-6.0,-4.0,-14.0,-2.0,5.0,-7.0,-6.0,1651024000026660.0
1.0,-1.0,-19.0,-18.0,-12.0,-2.0,5.0,1.0,1651024000026660.0
1.0,6.0,37.0,34.0,9.0,6.0,7.0,3.0,1651024000026660.0
-3.0,-4.0,-35.0,-24.0,10.0,-1.0,-4.0,-3.0,1651024000049747.0
3.0,2.0,4.0,-4.0,-19.0,-7.0,-10.0,-4.0,1651024000049747.0
-1.0,-1.0,3.0,3.0,13.0,-2.0,11.0,4.0,1651024000049747.0
0.0,3.0,8.0,12.0,16.0,10.0,-2.0,-1.0,1651024000049747.0
-2.0,-7.0,-12.0,2.0,-11.0,-5.0,-5.0,-2.0,1651024000071696.0
1.0,1.0,2.0,0.0,8.0,-1.0,-2.0,-2.0,1651024000071696.0
-4.0,-5.0,-5.0,-16.0,-18.0,-3.0,5.0,-2.0,1651024000072636.0
-1.0,0.0,-2.0,2.0,-8.0,-3.0,0.0,8.0,1651024000072636.0
5.0,1.0,0.0,4.0,4.0,0.0,-4.0,2.0,1651024000086656.0
2.0,2.0,29.0,19.0,6.0,0.0,-3.0,-1.0,1651024000086656.0
3.0,0.0,-21.0,-15.0,-5.0,-1.0,1.0,3.0,1651024000086656.0
-11.0,-8.0,-35.0,-31.0,-7.0,-5.0,-4.0,-17.0,1651024000086656.0
1.0,6.0,37.0,25.0,3.0,0.0,2.0,0.0,1651024000109905.0
-1.0,-5.0,-43.0,-22.0,14.0,2.0,3.0,-2.0,1651024000109905.0
-1.0,0.0,27.0,15.0,-23.0,-5.0,-10.0,-3.0,1651024000109905.0
0.0,1.0,0.0,0.0,6.0,-3.0,1.0,1.0,1651024000109905.0
-2.0,-6.0,-11.0,-4.0,-4.0,0.0,-1.0,-2.0,1651024000131967.0
2.0,2.0,9.0,3.0,2.0,2.0,-2.0,-2.0,1651024000131967.0
-3.0,-2.0,-11.0,5.0,9.0,2.0,5.0,-2.0,1651024000132964.0
0.0,-6.0,-9.0,-7.0,-13.0,-5.0,-1.0,1.0,1651024000132964.0
-1.0,0.0,1.0,2.0,2.0,0.0,-1.0,-1.0,1651024000145964.0
2.0,1.0,1.0,1.0,-1.0,-1.0,-4.0,1.0,1651024000145964.0
0.0,2.0,7.0,5.0,7.0,6.0,8.0,1.0,1651024000146898.0
2.0,1.0,10.0,15.0,8.0,0.0,-1.0,-1.0,1651024000146898.0
-2.0,-4.0,-5.0,-4.0,-23.0,-8.0,-2.0,-1.0,1651024000169932.0
-3.0,1.0,0.0,-11.0,11.0,3.0,-4.0,-3.0,1651024000169932.0
-6.0,-19.0,-51.0,-16.0,-20.0,-7.0,0.0,-12.0,1651024000169932.0
4.0,7.0,20.0,5.0,-5.0,-5.0,1.0,15.0,1651024000169932.0
-2.0,-14.0,-40.0,-8.0,16.0,6.0,-5.0,-5.0,1651024000199893.0
1.0,15.0,30.0,-4.0,-29.0,-6.0,0.0,-3.0,1651024000199893.0
2.0,3.0,35.0,16.0,5.0,-3.0,2.0,4.0,1651024000199893.0
4.0,1.0,-9.0,8.0,10.0,5.0,-2.0,3.0,1651024000199893.0
1.0,-16.0,-14.0,-13.0,-18.0,-7.0,0.0,-3.0,1651024000205878.0
-2.0,-12.0,-19.0,-2.0,26.0,9.0,-1.0,0.0,1651024000205878.0
0.0,24.0,15.0,4.0,-8.0,-2.0,0.0,-1.0,1651024000206882.0
2.0,1.0,-2.0,-10.0,-8.0,-5.0,-1.0,-5.0,1651024000206882.0
-5.0,6.0,12.0,5.0,5.0,2.0,3.0,3.0,1651024000229948.0
0.0,-16.0,-13.0,-1.0,-5.0,-3.0,0.0,-3.0,1651024000229948.0
0.0,-5.0,4.0,4.0,2.0,2.0,3.0,3.0,1651024000229948.0
5.0,10.0,16.0,10.0,9.0,2.0,1.0,2.0,1651024000229948.0
1.0,0.0,-26.0,-6.0,0.0,1.0,0.0,0.0,1651024000251907.0
-7.0,7.0,46.0,-13.0,-20.0,-10.0,-7.0,-8.0,1651024000251907.0
0.0,-12.0,-8.0,-1.0,6.0,0.0,1.0,0.0,1651024000252877.0
-1.0,-4.0,-12.0,-2.0,-8.0,0.0,0.0,0.0,1651024000252877.0
2.0,20.0,31.0,7.0,10.0,5.0,1.0,-2.0,1651024000265905.0
0.0,10.0,8.0,7.0,5.0,4.0,1.0,1.0,1651024000265905.0
1.0,-1.0,-14.0,4.0,-7.0,-4.0,1.0,3.0,1651024000266841.0
-3.0,-6.0,8.0,4.0,15.0,8.0,0.0,-1.0,1651024000266841.0
2.0,-4.0,-14.0,-6.0,-27.0,-6.0,1.0,3.0,1651024000289780.0
1.0,3.0,-1.0,-9.0,-5.0,-5.0,-2.0,0.0,1651024000289780.0
4.0,7.0,24.0,6.0,18.0,5.0,-1.0,-1.0,1651024000289780.0
-4.0,-13.0,-13.0,8.0,18.0,5.0,3.0,-1.0,1651024000289780.0
2.0,22.0,37.0,10.0,10.0,-1.0,-4.0,-2.0,1651024000319066.0
0.0,1.0,-2.0,-1.0,-30.0,-9.0,-4.0,-6.0,1651024000319066.0
3.0,-2.0,-25.0,-15.0,2.0,2.0,0.0,9.0,1651024000320009.0
-3.0,-10.0,19.0,5.0,-5.0,-3.0,-1.0,-5.0,1651024000320009.0
4.0,2.0,22.0,0.0,-1.0,-1.0,4.0,11.0,1651024000326006.0
-5.0,0.0,-29.0,2.0,12.0,2.0,-1.0,-11.0,1651024000326006.0
3.0,-8.0,-1.0,-1.0,3.0,1.0,-2.0,-3.0,1651024000326978.0
6.0,-3.0,-12.0,-9.0,-9.0,-2.0,0.0,1.0,1651024000326978.0
-13.0,-2.0,2.0,2.0,0.0,2.0,0.0,-2.0,1651024000349003.0
3.0,-4.0,-18.0,1.0,1.0,-2.0,-2.0,2.0,1651024000349003.0
-7.0,18.0,11.0,-1.0,-5.0,0.0,0.0,2.0,1651024000349945.0
3.0,-35.0,-9.0,-7.0,-11.0,-7.0,-5.0,-3.0,1651024000349945.0
3.0,25.0,0.0,-4.0,-8.0,-4.0,-2.0,-5.0,1651024000371952.0
14.0,-15.0,-1.0,8.0,17.0,16.0,7.0,12.0,1651024000371952.0
-15.0,24.0,9.0,2.0,9.0,2.0,0.0,-3.0,1651024000372872.0
6.0,-1.0,0.0,8.0,5.0,0.0,-4.0,-6.0,1651024000372872.0
-13.0,2.0,-7.0,-2.0,1.0,-8.0,-4.0,-8.0,1651024000385837.0
-14.0,-55.0,-20.0,-1.0,6.0,2.0,-1.0,0.0,1651024000385837.0
8.0,29.0,4.0,0.0,-11.0,-3.0,-3.0,-2.0,1651024000393879.0
-3.0,42.0,6.0,-13.0,-19.0,-6.0,0.0,-1.0,1651024000393879.0
12.0,-20.0,-7.0,2.0,10.0,1.0,0.0,3.0,1651024000409159.0
1.0,21.0,-4.0,-2.0,2.0,-1.0,2.0,2.0,1651024000409159.0
-4.0,-17.0,2.0,4.0,-6.0,-3.0,0.0,-1.0,1651024000409159.0
4.0,3.0,1.0,-12.0,-17.0,1.0,0.0,3.0,1651024000409159.0
-1.0,-11.0,-7.0,0.0,25.0,2.0,0.0,0.0,1651024000432121.0
-3.0,21.0,24.0,5.0,-10.0,0.0,0.0,3.0,1651024000432121.0
4.0,-6.0,-9.0,7.0,12.0,2.0,2.0,-5.0,1651024000433052.0
-7.0,-28.0,-15.0,-5.0,-6.0,-10.0,1.0,6.0,1651024000433052.0
-4.0,4.0,0.0,-10.0,-19.0,5.0,-8.0,-7.0,1651024000446679.0
0.0,-8.0,-4.0,2.0,18.0,3.0,0.0,2.0,1651024000446679.0
8.0,3.0,10.0,0.0,0.0,1.0,3.0,3.0,1651024000446679.0
-3.0,-4.0,7.0,6.0,2.0,0.0,-1.0,-3.0,1651024000446679.0
2.0,-10.0,-9.0,7.0,10.0,2.0,3.0,0.0,1651024000468752.0
2.0,23.0,-3.0,-11.0,-26.0,-12.0,-4.0,-1.0,1651024000468752.0
0.0,-20.0,-4.0,1.0,4.0,0.0,-3.0,-1.0,1651024000469697.0
5.0,33.0,11.0,7.0,12.0,4.0,3.0,0.0,1651024000469697.0
-3.0,-25.0,-32.0,-11.0,-5.0,2.0,-1.0,1.0,1651024000491742.0
-2.0,-5.0,-5.0,4.0,1.0,-1.0,0.0,-2.0,1651024000491742.0
1.0,-1.0,-4.0,-15.0,-26.0,-10.0,0.0,-1.0,1651024000492671.0
-6.0,-2.0,-1.0,-4.0,18.0,6.0,0.0,-1.0,1651024000492671.0
-3.0,2.0,12.0,3.0,-5.0,-2.0,3.0,1.0,1651024000505978.0
-3.0,-26.0,-10.0,3.0,-2.0,1.0,0.0,-1.0,1651024000505978.0
5.0,5.0,3.0,7.0,12.0,1.0,2.0,3.0,1651024000506912.0
-8.0,3.0,-3.0,0.0,3.0,-2.0,-4.0,-5.0,1651024000506912.0
4.0,8.0,0.0,-2.0,-11.0,0.0,1.0,0.0,1651024000529042.0
-3.0,-12.0,-18.0,-7.0,-3.0,-4.0,-1.0,-3.0,1651024000529042.0
0.0,3.0,10.0,-2.0,-7.0,-2.0,-1.0,3.0,1651024000529042.0
-9.0,5.0,-2.0,-3.0,-6.0,-3.0,-2.0,-3.0,1651024000529042.0
-4.0,-12.0,-8.0,0.0,3.0,-1.0,1.0,1.0,1651024000551915.0
4.0,-18.0,-4.0,0.0,1.0,-3.0,-1.0,2.0,1651024000551915.0
-2.0,1.0,-3.0,0.0,10.0,10.0,1.0,-4.0,1651024000552912.0
2.0,-10.0,8.0,7.0,4.0,1.0,2.0,2.0,1651024000552912.0
3.0,38.0,18.0,1.0,-6.0,-3.0,-1.0,0.0,1651024000565970.0
5.0,17.0,6.0,0.0,-4.0,-1.0,0.0,2.0,1651024000565970.0
-2.0,-5.0,1.0,-2.0,-7.0,-1.0,-2.0,-2.0,1651024000574073.0
3.0,-18.0,-30.0,-6.0,-1.0,-1.0,-1.0,-2.0,1651024000574073.0
1.0,-4.0,13.0,3.0,-3.0,-2.0,-1.0,-1.0,1651024000589104.0
2.0,5.0,2.0,3.0,8.0,2.0,1.0,0.0,1651024000589104.0
1.0,-5.0,4.0,-2.0,-6.0,-3.0,0.0,-1.0,1651024000589104.0
-3.0,-7.0,-2.0,-6.0,-13.0,-3.0,-1.0,0.0,1651024000589104.0
3.0,-20.0,-10.0,1.0,13.0,1.0,0.0,0.0,1651024000612181.0
-11.0,-7.0,-2.0,5.0,22.0,4.0,-1.0,-5.0,1651024000612181.0
-2.0,9.0,2.0,6.0,2.0,0.0,0.0,0.0,1651024000613112.0
1.0,10.0,3.0,-2.0,-8.0,-4.0,2.0,1.0,1651024000613112.0
0.0,-7.0,-5.0,-7.0,-6.0,0.0,-1.0,1.0,1651024000626105.0
-1.0,13.0,-3.0,-8.0,-9.0,-4.0,1.0,-3.0,1651024000626105.0
-4.0,5.0,-1.0,-3.0,-1.0,-2.0,-1.0,-1.0,1651024000634244.0
-6.0,-29.0,-7.0,4.0,3.0,0.0,0.0,-1.0,1651024000634244.0
3.0,0.0,1.0,-2.0,-4.0,-1.0,0.0,0.0,1651024000649002.0
2.0,15.0,2.0,3.0,2.0,1.0,-1.0,0.0,1651024000649002.0
-2.0,-6.0,-4.0,-5.0,-1.0,-1.0,-2.0,0.0,1651024000649941.0
-2.0,-15.0,-5.0,-4.0,-4.0,0.0,0.0,-1.0,1651024000649941.0
1.0,11.0,8.0,2.0,0.0,-1.0,-1.0,-1.0,1651024000671956.0
-2.0,-4.0,-4.0,0.0,-2.0,-1.0,0.0,-2.0,1651024000671956.0
-3.0,-10.0,-5.0,0.0,2.0,-4.0,-1.0,0.0,1651024000672887.0
-1.0,4.0,6.0,0.0,11.0,6.0,0.0,1.0,1651024000672887.0
-14.0,-44.0,-7.0,-3.0,-15.0,-3.0,2.0,-2.0,1651024000685854.0
4.0,17.0,4.0,0.0,6.0,1.0,-2.0,0.0,1651024000685854.0
2.0,-1.0,2.0,4.0,-2.0,0.0,-1.0,0.0,1651024000693903.0
2.0,23.0,5.0,-1.0,-5.0,-2.0,0.0,0.0,1651024000693903.0
2.0,-5.0,-1.0,3.0,0.0,-1.0,-1.0,1.0,1651024000709007.0
-15.0,-16.0,-5.0,-5.0,-2.0,-4.0,-2.0,-2.0,1651024000709007.0
-5.0,-14.0,-2.0,0.0,7.0,7.0,1.0,-2.0,1651024000709945.0
5.0,11.0,0.0,1.0,2.0,-2.0,0.0,1.0,1651024000709945.0
-2.0,3.0,-2.0,-2.0,-8.0,-1.0,-1.0,-1.0,1651024000731946.0
10.0,24.0,6.0,0.0,-14.0,-8.0,1.0,2.0,1651024000731946.0
-11.0,-26.0,-7.0,-3.0,7.0,5.0,-2.0,-2.0,1651024000732876.0
-3.0,9.0,1.0,0.0,-2.0,2.0,0.0,-1.0,1651024000732876.0
4.0,15.0,3.0,2.0,8.0,1.0,-2.0,4.0,1651024000745949.0
1.0,-3.0,0.0,0.0,-3.0,-1.0,1.0,0.0,1651024000745949.0
8.0,36.0,6.0,-1.0,-6.0,-4.0,-1.0,3.0,1651024000753957.0
-5.0,-11.0,0.0,1.0,-2.0,-1.0,-1.0,-2.0,1651024000753957.0
-3.0,-2.0,0.0,0.0,8.0,1.0,1.0,-2.0,1651024000768225.0
0.0,-1.0,-3.0,0.0,1.0,3.0,-1.0,1.0,1651024000768225.0
-1.0,-5.0,-1.0,-4.0,-9.0,-3.0,0.0,-1.0,1651024000769236.0
1.0,-1.0,-1.0,-1.0,0.0,-2.0,0.0,-1.0,1651024000769236.0
3.0,15.0,2.0,-1.0,3.0,-2.0,0.0,-1.0,1651024000792160.0
-3.0,-15.0,-2.0,0.0,0.0,2.0,0.0,-1.0,1651024000792160.0
2.0,13.0,1.0,-1.0,-3.0,-3.0,-1.0,-1.0,1651024000793157.0
-6.0,-14.0,-9.0,-2.0,-3.0,-1.0,-2.0,-2.0,1651024000793157.0
-2.0,-13.0,-6.0,-4.0,-24.0,-9.0,-2.0,1.0,1651024000805190.0
-4.0,-9.0,-4.0,-2.0,19.0,9.0,-2.0,-4.0,1651024000805190.0
3.0,2.0,6.0,7.0,14.0,0.0,1.0,-1.0,1651024000814208.0
2.0,-15.0,-5.0,1.0,-1.0,0.0,0.0,1.0,1651024000814208.0
0.0,8.0,3.0,-1.0,-2.0,2.0,2.0,-1.0,1651024000829157.0
-1.0,-5.0,-5.0,-3.0,-14.0,-5.0,0.0,2.0,1651024000829157.0
0.0,11.0,0.0,-2.0,-6.0,-3.0,-1.0,0.0,1651024000829157.0
-7.0,-41.0,-5.0,0.0,3.0,2.0,-2.0,-4.0,1651024000829157.0
5.0,2.0,0.0,1.0,6.0,1.0,0.0,2.0,1651024000851929.0
1.0,12.0,2.0,-1.0,-3.0,-1.0,0.0,-1.0,1651024000851929.0
-3.0,-17.0,-3.0,-1.0,2.0,0.0,-1.0,-1.0,1651024000852926.0
4.0,29.0,6.0,-1.0,-4.0,-3.0,0.0,1.0,1651024000852926.0
-4.0,2.0,-3.0,-1.0,3.0,1.0,-2.0,-4.0,1651024000866044.0
-1.0,-4.0,1.0,1.0,1.0,-1.0,-1.0,0.0,1651024000866044.0
0.0,-1.0,1.0,-1.0,-5.0,-2.0,1.0,0.0,1651024000874024.0
2.0,11.0,2.0,0.0,-1.0,-1.0,0.0,1.0,1651024000874024.0
-4.0,-3.0,-4.0,-1.0,4.0,0.0,-3.0,-3.0,1651024000889014.0
-5.0,-20.0,-3.0,0.0,0.0,-2.0,-1.0,-2.0,1651024000889014.0
-1.0,-10.0,-4.0,-1.0,-7.0,-2.0,1.0,0.0,1651024000889014.0
-2.0,-17.0,0.0,-1.0,-4.0,-3.0,1.0,-1.0,1651024000889014.0
4.0,29.0,3.0,2.0,16.0,3.0,0.0,-1.0,1651024000911987.0
2.0,1.0,3.0,2.0,-2.0,4.0,0.0,0.0,1651024000911987.0
1.0,-6.0,-2.0,-2.0,-2.0,-2.0,0.0,1.0,1651024000912944.0
0.0,7.0,1.0,-1.0,-3.0,-3.0,-2.0,0.0,1651024000912944.0
-1.0,11.0,2.0,-1.0,-6.0,-3.0,-2.0,-2.0,1651024000934884.0
10.0,-14.0,0.0,1.0,0.0,0.0,2.0,4.0,1651024000934884.0
5.0,-3.0,0.0,-3.0,-10.0,-1.0,-2.0,0.0,1651024000934884.0
2.0,4.0,-3.0,0.0,7.0,-1.0,-1.0,1.0,1651024000934884.0
-2.0,-7.0,0.0,0.0,10.0,4.0,1.0,0.0,1651024000948915.0
4.0,17.0,2.0,3.0,4.0,3.0,0.0,-1.0,1651024000948915.0
-1.0,-12.0,-3.0,1.0,-2.0,-1.0,-1.0,0.0,1651024000949846.0
2.0,13.0,1.0,0.0,-2.0,-2.0,-1.0,-1.0,1651024000949846.0
-1.0,-6.0,0.0,0.0,-4.0,-3.0,-2.0,2.0,1651024000971969.0
-1.0,-3.0,-3.0,-2.0,-1.0,-1.0,-1.0,-1.0,1651024000971969.0
-3.0,-7.0,-4.0,-2.0,1.0,0.0,-1.0,-2.0,1651024000972899.0
-7.0,13.0,3.0,-2.0,-2.0,-1.0,1.0,-2.0,1651024000972899.0
8.0,15.0,2.0,1.0,-1.0,0.0,1.0,1.0,1651024000994910.0
-6.0,-4.0,1.0,-1.0,-2.0,-2.0,-1.0,-1.0,1651024000994910.0
-3.0,4.0,-2.0,-1.0,-1.0,-1.0,-1.0,0.0,1651024000994910.0
5.0,3.0,0.0,1.0,4.0,4.0,1.0,0.0,1651024000994910.0
-3.0,-13.0,-5.0,-6.0,-15.0,-1.0,2.0,0.0,1651024001008911.0
-3.0,9.0,-2.0,0.0,12.0,-5.0,-2.0,-3.0,1651024001008911.0
1.0,-2.0,2.0,2.0,1.0,4.0,-1.0,0.0,1651024001009838.0
1.0,1.0,-1.0,-2.0,0.0,2.0,0.0,0.0,1651024001009838.0
-2.0,-3.0,-1.0,1.0,-2.0,-2.0,-1.0,-1.0,1651024001031994.0
1.0,7.0,0.0,-3.0,-10.0,-3.0,0.0,0.0,1651024001031994.0
-11.0,-41.0,-17.0,-5.0,-2.0,-4.0,-3.0,-6.0,1651024001032926.0
4.0,35.0,11.0,-1.0,-8.0,-2.0,-2.0,0.0,1651024001032926.0
0.0,0.0,2.0,2.0,2.0,-1.0,-1.0,-2.0,1651024001054916.0
-2.0,1.0,-3.0,2.0,5.0,-2.0,-1.0,0.0,1651024001054916.0
5.0,3.0,4.0,1.0,3.0,1.0,2.0,2.0,1651024001054916.0
1.0,2.0,-3.0,0.0,-1.0,-1.0,0.0,0.0,1651024001054916.0
-1.0,-8.0,-4.0,-1.0,-2.0,0.0,-1.0,0.0,1651024001068879.0
1.0,-3.0,-1.0,-2.0,-3.0,0.0,-1.0,0.0,1651024001068879.0
-3.0,7.0,0.0,0.0,0.0,-2.0,-2.0,-1.0,1651024001069901.0
-2.0,-6.0,-4.0,-4.0,-10.0,-5.0,-1.0,-2.0,1651024001069901.0
-1.0,-4.0,-1.0,-1.0,18.0,3.0,-1.0,0.0,1651024001091817.0
0.0,11.0,2.0,5.0,4.0,1.0,0.0,-2.0,1651024001091817.0
-14.0,-41.0,-8.0,0.0,-4.0,-1.0,-1.0,-3.0,1651024001092815.0
3.0,33.0,8.0,0.0,4.0,-1.0,-2.0,-1.0,1651024001092815.0
1.0,-3.0,-3.0,-1.0,-6.0,-3.0,0.0,0.0,1651024001114823.0
-2.0,-10.0,-2.0,-5.0,-7.0,-3.0,0.0,-1.0,1651024001114823.0
4.0,16.0,4.0,-1.0,1.0,1.0,0.0,1.0,1651024001114823.0
-1.0,-15.0,-2.0,-1.0,0.0,-1.0,0.0,0.0,1651024001114823.0
-5.0,-10.0,-2.0,-1.0,-3.0,-4.0,0.0,-2.0,1651024001129017.0
2.0,11.0,0.0,-5.0,-14.0,2.0,0.0,0.0,1651024001129017.0
1.0,12.0,2.0,0.0,13.0,-1.0,-1.0,-1.0,1651024001129948.0
-1.0,-13.0,-3.0,-2.0,1.0,1.0,1.0,1.0,1651024001129948.0
0.0,7.0,3.0,1.0,-10.0,1.0,1.0,0.0,1651024001152116.0
-2.0,-8.0,-1.0,3.0,13.0,0.0,1.0,-1.0,1651024001152116.0
5.0,20.0,6.0,-1.0,-12.0,-4.0,-2.0,-2.0,1651024001153038.0
0.0,-7.0,-4.0,0.0,3.0,2.0,-1.0,-1.0,1651024001153038.0
1.0,0.0,1.0,0.0,4.0,-1.0,1.0,0.0,1651024001174047.0
-3.0,-11.0,-3.0,-3.0,-10.0,-4.0,-1.0,-2.0,1651024001174047.0
0.0,2.0,0.0,0.0,2.0,0.0,0.0,0.0,1651024001174977.0
0.0,-2.0,-2.0,-2.0,0.0,-1.0,-2.0,0.0,1651024001174977.0
2.0,5.0,-1.0,-2.0,-3.0,-3.0,0.0,0.0,1651024001188989.0
0.0,12.0,2.0,4.0,9.0,7.0,-3.0,-2.0,1651024001188989.0
-6.0,-29.0,-6.0,4.0,3.0,2.0,-1.0,1.0,1651024001189929.0
1.0,8.0,1.0,0.0,0.0,1.0,1.0,-1.0,1651024001189929.0
-4.0,-11.0,-4.0,1.0,8.0,-2.0,0.0,-1.0,1651024001212091.0
0.0,9.0,-1.0,-4.0,-14.0,-5.0,-1.0,-1.0,1651024001212091.0
1.0,1.0,-1.0,-1.0,7.0,2.0,-1.0,1.0,1651024001213022.0
0.0,8.0,2.0,3.0,-4.0,3.0,-1.0,0.0,1651024001213022.0
-1.0,-18.0,-5.0,-3.0,-2.0,-2.0,-1.0,-1.0,1651024001242011.0
0.0,-1.0,-4.0,-6.0,-6.0,-3.0,-1.0,-1.0,1651024001242011.0
1.0,9.0,0.0,1.0,2.0,-3.0,0.0,0.0,1651024001242942.0
-2.0,0.0,-2.0,1.0,-4.0,-3.0,-2.0,-1.0,1651024001242942.0
0.0,4.0,2.0,2.0,5.0,6.0,1.0,-2.0,1651024001248953.0
-1.0,-9.0,-2.0,0.0,-2.0,-1.0,0.0,0.0,1651024001248953.0
2.0,10.0,-1.0,-3.0,-8.0,-1.0,-1.0,-2.0,1651024001248953.0
0.0,-3.0,0.0,-1.0,5.0,-2.0,-1.0,1.0,1651024001248953.0
-4.0,-14.0,-4.0,-2.0,-14.0,-5.0,0.0,-2.0,1651024001271999.0
-2.0,-4.0,-3.0,0.0,11.0,2.0,-2.0,0.0,1651024001271999.0
2.0,18.0,5.0,3.0,-1.0,0.0,1.0,1.0,1651024001272935.0
-2.0,-16.0,-2.0,3.0,8.0,4.0,1.0,-1.0,1651024001272935.0
3.0,-1.0,-1.0,1.0,-3.0,6.0,1.0,2.0,1651024001294876.0
6.0,15.0,5.0,-1.0,-6.0,-4.0,0.0,1.0,1651024001294876.0
0.0,-4.0,-1.0,-3.0,3.0,2.0,-1.0,0.0,1651024001294876.0
-2.0,-10.0,-1.0,-1.0,-2.0,-1.0,-1.0,-1.0,1651024001294876.0
3.0,17.0,5.0,-1.0,-1.0,-3.0,1.0,2.0,1651024001307845.0
-4.0,-18.0,-4.0,1.0,2.0,-2.0,1.0,1.0,1651024001307845.0
-2.0,-3.0,-2.0,0.0,1.0,0.0,0.0,0.0,1651024001315888.0
-4.0,-12.0,-4.0,-5.0,-15.0,-5.0,0.0,-2.0,1651024001315888.0
-2.0,0.0,0.0,-1.0,19.0,7.0,-2.0,-1.0,1651024001332010.0
0.0,-1.0,-1.0,3.0,10.0,4.0,0.0,-1.0,1651024001332010.0
3.0,20.0,-1.0,-4.0,-13.0,-6.0,-1.0,-1.0,1651024001332941.0
1.0,-1.0,0.0,0.0,-2.0,-1.0,0.0,0.0,1651024001332941.0
1.0,10.0,-1.0,-3.0,-5.0,-4.0,-1.0,0.0,1651024001354895.0
-6.0,-15.0,-1.0,0.0,3.0,0.0,0.0,0.0,1651024001354895.0
2.0,11.0,1.0,0.0,-1.0,3.0,1.0,-1.0,1651024001354895.0
0.0,8.0,1.0,0.0,0.0,0.0,-2.0,2.0,1651024001354895.0
2.0,3.0,0.0,-3.0,-2.0,0.0,-1.0,-1.0,1651024001368908.0
-6.0,-23.0,-4.0,-2.0,-3.0,-1.0,-1.0,-2.0,1651024001368908.0
1.0,2.0,3.0,0.0,0.0,-1.0,0.0,0.0,1651024001369842.0
-1.0,-9.0,-1.0,1.0,3.0,4.0,1.0,-1.0,1651024001369842.0
1.0,8.0,1.0,-1.0,-3.0,-2.0,1.0,0.0,1651024001392857.0
1.0,-1.0,-3.0,-1.0,0.0,0.0,-2.0,1.0,1651024001392857.0
0.0,-6.0,0.0,-1.0,-1.0,0.0,-1.0,-2.0,1651024001392857.0
1.0,0.0,2.0,-2.0,-9.0,-5.0,-1.0,-1.0,1651024001392857.0
-7.0,-14.0,-7.0,-1.0,6.0,9.0,-1.0,-3.0,1651024001414502.0
8.0,36.0,10.0,4.0,4.0,-1.0,1.0,1.0,1651024001414502.0
-2.0,-4.0,-1.0,-1.0,-4.0,0.0,0.0,1.0,1651024001415433.0
2.0,6.0,1.0,1.0,2.0,0.0,0.0,1.0,1651024001415433.0
-2.0,-4.0,0.0,-1.0,-7.0,-4.0,-2.0,-2.0,1651024001428465.0
-1.0,2.0,0.0,-6.0,-19.0,-2.0,-1.0,-1.0,1651024001428465.0
-2.0,-3.0,-2.0,1.0,18.0,0.0,-1.0,-1.0,1651024001429408.0
0.0,-2.0,-3.0,-2.0,-10.0,-4.0,0.0,1.0,1651024001429408.0
-6.0,-14.0,1.0,1.0,6.0,5.0,0.0,-1.0,1651024001452454.0
-1.0,-6.0,-1.0,0.0,-6.0,0.0,0.0,0.0,1651024001452454.0
2.0,-2.0,2.0,3.0,3.0,2.0,1.0,1.0,1651024001452454.0
-5.0,-9.0,-4.0,0.0,3.0,1.0,-1.0,-1.0,1651024001452454.0
2.0,4.0,1.0,0.0,-2.0,-4.0,0.0,-1.0,1651024001474458.0
0.0,0.0,-1.0,-1.0,-3.0,-2.0,1.0,0.0,1651024001474458.0
-4.0,-10.0,-4.0,-5.0,-11.0,1.0,-2.0,-2.0,1651024001475389.0
3.0,4.0,-1.0,-2.0,1.0,0.0,1.0,-1.0,1651024001475389.0
-2.0,-6.0,0.0,5.0,7.0,-1.0,-2.0,2.0,1651024001488421.0
3.0,24.0,4.0,2.0,5.0,2.0,1.0,0.0,1651024001488421.0
-3.0,4.0,0.0,-1.0,-5.0,-4.0,0.0,1.0,1651024001496396.0
-1.0,1.0,-1.0,4.0,7.0,2.0,0.0,-1.0,1651024001496396.0
2.0,4.0,0.0,-1.0,-10.0,-1.0,-1.0,-2.0,1651024001511509.0
-1.0,-6.0,-5.0,-4.0,-4.0,-4.0,-1.0,-1.0,1651024001511509.0
-2.0,-5.0,-1.0,-2.0,-1.0,-3.0,-1.0,-1.0,1651024001512444.0
0.0,3.0,1.0,-3.0,-10.0,0.0,-2.0,0.0,1651024001512444.0
-1.0,1.0,0.0,1.0,11.0,-4.0,-2.0,-1.0,1651024001534403.0
9.0,8.0,5.0,3.0,7.0,5.0,0.0,2.0,1651024001534403.0
-10.0,-33.0,-13.0,-5.0,2.0,2.0,-2.0,-2.0,1651024001535383.0
0.0,-4.0,0.0,3.0,4.0,1.0,1.0,0.0,1651024001535383.0
7.0,25.0,6.0,6.0,-1.0,-1.0,1.0,2.0,1651024001547927.0
1.0,12.0,-1.0,-3.0,-6.0,-3.0,-2.0,-1.0,1651024001547927.0
1.0,-3.0,0.0,0.0,-8.0,-7.0,-1.0,2.0,1651024001556905.0
-3.0,3.0,-1.0,-2.0,9.0,3.0,-1.0,0.0,1651024001556905.0
1.0,-7.0,-6.0,-4.0,-1.0,-2.0,-1.0,0.0,1651024001571949.0
-6.0,-13.0,-3.0,0.0,-7.0,-5.0,0.0,-2.0,1651024001571949.0
2.0,9.0,3.0,0.0,2.0,5.0,0.0,-2.0,1651024001573887.0
1.0,5.0,0.0,1.0,-1.0,-3.0,3.0,-1.0,1651024001573887.0
0.0,2.0,-2.0,-1.0,-5.0,1.0,0.0,0.0,1651024001593957.0
-4.0,-11.0,-6.0,-1.0,11.0,0.0,-1.0,-3.0,1651024001593957.0
-1.0,0.0,1.0,-2.0,-8.0,-4.0,0.0,0.0,1651024001595954.0
1.0,4.0,-2.0,-3.0,-1.0,0.0,-2.0,0.0,1651024001595954.0
-2.0,-14.0,1.0,4.0,-15.0,-3.0,0.0,1.0,1651024001617297.0
4.0,38.0,8.0,2.0,22.0,4.0,-2.0,-2.0,1651024001617297.0
-5.0,-26.0,-13.0,-5.0,0.0,0.0,0.0,1.0,1651024001618227.0
14.0,0.0,1.0,-1.0,1.0,-2.0,-2.0,0.0,1651024001618227.0
-17.0,4.0,1.0,-2.0,-9.0,-9.0,-3.0,-1.0,1651024001632271.0
3.0,-19.0,-4.0,-13.0,-20.0,10.0,4.0,1.0,1651024001632271.0
6.0,20.0,10.0,7.0,18.0,3.0,2.0,1.0,1651024001633273.0
7.0,0.0,4.0,14.0,16.0,10.0,3.0,1.0,1651024001633273.0
-15.0,-26.0,-20.0,-6.0,-2.0,-3.0,-4.0,-7.0,1651024001653936.0
-3.0,-4.0,-1.0,-4.0,-21.0,-12.0,-2.0,0.0,1651024001653936.0
-10.0,8.0,-3.0,-6.0,0.0,-2.0,-4.0,-4.0,1651024001655919.0
0.0,-1.0,17.0,-3.0,1.0,-10.0,-3.0,-1.0,1651024001655919.0
11.0,6.0,-9.0,-6.0,5.0,6.0,2.0,3.0,1651024001676953.0
-4.0,-15.0,-7.0,15.0,14.0,19.0,8.0,4.0,1651024001676953.0
4.0,16.0,11.0,-5.0,-16.0,-6.0,0.0,0.0,1651024001677950.0
-8.0,1.0,-6.0,1.0,9.0,0.0,-2.0,-4.0,1651024001677950.0
3.0,10.0,21.0,3.0,2.0,-3.0,1.0,-1.0,1651024001691912.0
0.0,1.0,-1.0,-15.0,-20.0,-10.0,-6.0,2.0,1651024001691912.0
0.0,-12.0,-17.0,5.0,9.0,3.0,0.0,1.0,1651024001693920.0
-1.0,-15.0,-14.0,-3.0,-3.0,0.0,-1.0,-3.0,1651024001693920.0
7.0,6.0,6.0,7.0,-2.0,-1.0,0.0,3.0,1651024001714872.0
-16.0,-10.0,-4.0,-4.0,10.0,1.0,-2.0,-7.0,1651024001714872.0
-3.0,3.0,8.0,10.0,5.0,3.0,0.0,-1.0,1651024001715872.0
2.0,-4.0,-7.0,-8.0,-6.0,-5.0,2.0,4.0,1651024001715872.0
7.0,0.0,-9.0,-13.0,-15.0,-3.0,-3.0,-3.0,1651024001728219.0
11.0,11.0,25.0,16.0,8.0,-3.0,-2.0,-3.0,1651024001728219.0
-4.0,3.0,-5.0,-10.0,7.0,2.0,5.0,4.0,1651024001737128.0
-5.0,-5.0,-12.0,0.0,-6.0,1.0,0.0,0.0,1651024001737128.0
0.0,-2.0,19.0,7.0,16.0,10.0,1.0,1.0,1651024001752150.0
13.0,9.0,-17.0,-12.0,-7.0,-6.0,-3.0,-2.0,1651024001752150.0
-6.0,-2.0,-1.0,-8.0,-13.0,-3.0,-2.0,0.0,1651024001753085.0
0.0,-4.0,-4.0,-8.0,-12.0,-4.0,-4.0,-1.0,1651024001753085.0
1.0,1.0,-13.0,13.0,10.0,1.0,4.0,3.0,1651024001774842.0
-19.0,-7.0,22.0,2.0,4.0,-6.0,-6.0,-9.0,1651024001774842.0
18.0,-4.0,-16.0,4.0,-4.0,3.0,-1.0,0.0,1651024001775842.0
-18.0,-1.0,-5.0,-4.0,-22.0,-3.0,2.0,-3.0,1651024001775842.0
12.0,19.0,2.0,-18.0,6.0,2.0,0.0,6.0,1651024001787838.0
-10.0,6.0,15.0,22.0,20.0,-2.0,-5.0,-7.0,1651024001787838.0
26.0,0.0,-10.0,-1.0,-4.0,2.0,10.0,11.0,1651024001796800.0
-14.0,10.0,31.0,18.0,19.0,8.0,2.0,0.0,1651024001796800.0
-9.0,-45.0,-58.0,-48.0,-21.0,-4.0,10.0,1.0,1651024001811814.0
12.0,15.0,7.0,39.0,15.0,6.0,9.0,7.0,1651024001811814.0
-1.0,-5.0,-13.0,-26.0,-15.0,-5.0,6.0,-3.0,1651024001813770.0
12.0,0.0,13.0,3.0,-13.0,-2.0,-1.0,-2.0,1651024001813770.0
5.0,9.0,-21.0,-20.0,11.0,-6.0,-95.0,-25.0,1651024001834896.0
-26.0,-11.0,-4.0,-39.0,-32.0,-21.0,43.0,1.0,1651024001834896.0
-19.0,-22.0,41.0,46.0,11.0,12.0,-33.0,-9.0,1651024001835867.0
31.0,21.0,-21.0,-21.0,-7.0,-16.0,78.0,13.0,1651024001835867.0
-18.0,-2.0,-14.0,47.0,6.0,9.0,-4.0,1.0,1651024001856930.0
27.0,5.0,30.0,-56.0,-12.0,14.0,83.0,30.0,1651024001856930.0
-13.0,-25.0,-73.0,11.0,-7.0,8.0,-68.0,-2.0,1651024001858885.0
-7.0,13.0,39.0,36.0,20.0,-18.0,-19.0,-20.0,1651024001858885.0
15.0,36.0,33.0,16.0,7.0,18.0,94.0,28.0,1651024001870873.0
-11.0,8.0,54.0,8.0,0.0,-12.0,-128.0,-38.0,1651024001870873.0
-23.0,-25.0,-3.0,64.0,18.0,-20.0,79.0,-3.0,1651024001877808.0
8.0,5.0,-2.0,-20.0,-6.0,-36.0,62.0,47.0,1651024001877808.0
24.0,-5.0,7.0,-16.0,-10.0,35.0,-79.0,-46.0,1651024001894824.0
-24.0,-3.0,-47.0,-12.0,9.0,-27.0,1.0,16.0,1651024001894824.0
-21.0,24.0,82.0,22.0,11.0,-1.0,-51.0,-31.0,1651024001895803.0
-3.0,-21.0,-28.0,8.0,-3.0,20.0,24.0,2.0,1651024001895803.0
-5.0,-14.0,3.0,7.0,12.0,55.0,12.0,5.0,1651024001916964.0
1.0,7.0,19.0,6.0,-11.0,57.0,100.0,31.0,1651024001916964.0
21.0,7.0,-74.0,-73.0,-18.0,3.0,-55.0,-15.0,1651024001918919.0
8.0,2.0,8.0,-6.0,-3.0,-39.0,-24.0,0.0,1651024001918919.0
-4.0,4.0,58.0,32.0,4.0,-42.0,21.0,18.0,1651024001930979.0
7.0,-14.0,-37.0,-43.0,-13.0,15.0,-17.0,-7.0,1651024001930979.0
-12.0,6.0,34.0,81.0,35.0,-40.0,-8.0,1.0,1651024001939914.0
0.0,-9.0,19.0,-9.0,-7.0,23.0,-13.0,-3.0,1651024001939914.0
-16.0,-16.0,-44.0,-47.0,-15.0,-6.0,-5.0,-8.0,1651024001953876.0
14.0,3.0,16.0,58.0,15.0,-30.0,-19.0,-2.0,1651024001953876.0
10.0,-2.0,-13.0,-67.0,-21.0,22.0,57.0,16.0,1651024001955883.0
-6.0,-1.0,-11.0,-21.0,5.0,9.0,-41.0,-9.0,1651024001955883.0
-3.0,-1.0,-2.0,28.0,22.0,17.0,38.0,3.0,1651024001977285.0
5.0,-19.0,-48.0,-28.0,-13.0,-13.0,-33.0,-3.0,1651024001977285.0
18.0,32.0,41.0,-1.0,-10.0,-43.0,36.0,19.0,1651024001978218.0
-25.0,-27.0,3.0,27.0,9.0,89.0,-44.0,-30.0,1651024001978218.0
-14.0,-4.0,-12.0,-10.0,-8.0,-63.0,-32.0,-5.0,1651024001990892.0
6.0,-8.0,-21.0,-6.0,-16.0,0.0,56.0,-2.0,1651024001990892.0
-9.0,10.0,6.0,-26.0,4.0,18.0,5.0,4.0,1651024001998283.0
3.0,6.0,6.0,16.0,1.0,-31.0,-29.0,-2.0,1651024001998283.0
9.0,10.0,2.0,16.0,4.0,18.0,18.0,15.0,1651024002014239.0
8.0,-24.0,-26.0,-36.0,-9.0,-23.0,-6.0,-7.0,1651024002014239.0
1.0,-4.0,36.0,36.0,2.0,-7.0,-11.0,1.0,1651024002020223.0
9.0,-13.0,-34.0,-32.0,-12.0,-4.0,21.0,13.0,1651024002020223.0
-12.0,8.0,7.0,23.0,14.0,-20.0,-53.0,-28.0,1651024002037131.0
-1.0,-3.0,0.0,16.0,6.0,-6.0,-26.0,-2.0,1651024002037131.0
10.0,19.0,50.0,27.0,12.0,33.0,78.0,24.0,1651024002038120.0
-2.0,-17.0,-72.0,-71.0,-27.0,43.0,-61.0,-27.0,1651024002038120.0
1.0,1.0,9.0,-24.0,-21.0,-66.0,-42.0,-13.0,1651024002051084.0
-13.0,-18.0,-4.0,23.0,2.0,33.0,2.0,-7.0,1651024002051084.0
5.0,5.0,0.0,-12.0,-23.0,-89.0,-18.0,-2.0,1651024002059118.0
-6.0,10.0,19.0,24.0,20.0,54.0,54.0,9.0,1651024002059118.0
-1.0,2.0,2.0,-18.0,12.0,63.0,9.0,10.0,1651024002074915.0
-5.0,2.0,-34.0,-4.0,3.0,-19.0,-19.0,-6.0,1651024002074915.0
0.0,1.0,-11.0,-20.0,-18.0,0.0,-13.0,-1.0,1651024002075914.0
0.0,-4.0,17.0,22.0,-1.0,-43.0,4.0,3.0,1651024002075914.0
9.0,3.0,-1.0,-66.0,-25.0,-9.0,33.0,3.0,1651024002103944.0
-20.0,17.0,72.0,110.0,51.0,26.0,-20.0,4.0,1651024002103944.0
2.0,-20.0,-58.0,-51.0,-14.0,4.0,-35.0,-14.0,1651024002105914.0
-5.0,5.0,55.0,42.0,26.0,-26.0,-19.0,-4.0,1651024002105914.0
-2.0,-9.0,-56.0,-7.0,-7.0,-13.0,19.0,8.0,1651024002110904.0
7.0,1.0,-37.0,-63.0,-26.0,-14.0,25.0,0.0,1651024002110904.0
1.0,-1.0,12.0,5.0,3.0,39.0,0.0,-2.0,1651024002119876.0
-9.0,8.0,16.0,11.0,0.0,-48.0,-20.0,-5.0,1651024002119876.0
-7.0,-12.0,-4.0,-5.0,-1.0,78.0,67.0,13.0,1651024002134862.0
9.0,6.0,18.0,21.0,2.0,-16.0,37.0,11.0,1651024002134862.0
-18.0,-18.0,-48.0,-20.0,0.0,-49.0,-99.0,-33.0,1651024002135867.0
8.0,6.0,20.0,11.0,1.0,57.0,16.0,-1.0,1651024002135867.0
12.0,-10.0,11.0,1.0,-17.0,-55.0,4.0,8.0,1651024002157007.0
8.0,10.0,-31.0,-29.0,-13.0,-5.0,16.0,-9.0,1651024002157007.0
10.0,9.0,27.0,9.0,11.0,51.0,10.0,13.0,1651024002158900.0
-9.0,-9.0,-37.0,-13.0,4.0,-34.0,-19.0,-3.0,1651024002158900.0
2.0,10.0,32.0,15.0,14.0,2.0,-20.0,-8.0,1651024002170841.0
-6.0,-1.0,5.0,-11.0,6.0,18.0,34.0,8.0,1651024002170841.0
-3.0,3.0,-6.0,24.0,4.0,-5.0,-40.0,-6.0,1651024002177887.0
8.0,7.0,-3.0,-6.0,0.0,-13.0,39.0,10.0,1651024002177887.0
0.0,-13.0,19.0,21.0,-4.0,1.0,-25.0,-9.0,1651024002194831.0
4.0,7.0,-22.0,-20.0,-14.0,-23.0,-34.0,-1.0,1651024002194831.0
-16.0,-7.0,14.0,-8.0,-14.0,-17.0,-4.0,-15.0,1651024002195829.0
-6.0,-8.0,-42.0,-27.0,-9.0,15.0,5.0,4.0,1651024002195829.0
4.0,9.0,41.0,16.0,5.0,27.0,33.0,2.0,1651024002217333.0
2.0,-14.0,-29.0,14.0,7.0,-13.0,-17.0,7.0,1651024002217333.0
9.0,-2.0,-20.0,-24.0,0.0,18.0,37.0,10.0,1651024002218270.0
-5.0,4.0,-16.0,-24.0,-21.0,-16.0,-8.0,-3.0,1651024002218270.0
12.0,15.0,17.0,5.0,1.0,-9.0,27.0,7.0,1651024002231303.0
4.0,1.0,69.0,59.0,37.0,16.0,-39.0,-4.0,1651024002231303.0
-2.0,-3.0,-57.0,-22.0,-2.0,-4.0,13.0,5.0,1651024002238219.0
1.0,-6.0,-7.0,-28.0,-15.0,-26.0,-21.0,-3.0,1651024002238219.0
1.0,15.0,19.0,52.0,16.0,44.0,21.0,12.0,1651024002253984.0
3.0,6.0,29.0,-2.0,-5.0,-5.0,12.0,1.0,1651024002253984.0
-7.0,-7.0,-5.0,-3.0,9.0,6.0,-17.0,-8.0,1651024002255921.0
-5.0,9.0,26.0,11.0,-3.0,28.0,34.0,6.0,1651024002255921.0
-5.0,6.0,-20.0,-15.0,-1.0,-33.0,-41.0,-6.0,1651024002276973.0
-1.0,-10.0,-19.0,-17.0,-14.0,15.0,-8.0,-7.0,1651024002276973.0
8.0,11.0,14.0,3.0,-2.0,-23.0,4.0,5.0,1651024002278938.0
-28.0,-10.0,11.0,4.0,10.0,39.0,-21.0,-22.0,1651024002278938.0
-4.0,-12.0,-18.0,-8.0,-11.0,-22.0,4.0,1.0,1651024002290902.0
0.0,-4.0,-9.0,1.0,3.0,-2.0,-22.0,-5.0,1651024002290902.0
-4.0,7.0,-2.0,-10.0,-5.0,3.0,79.0,15.0,1651024002297935.0
21.0,23.0,27.0,14.0,-4.0,-16.0,-42.0,-2.0,1651024002297935.0
-36.0,-31.0,-38.0,-24.0,-4.0,-23.0,-21.0,-15.0,1651024002314188.0
2.0,5.0,13.0,-20.0,2.0,21.0,15.0,4.0,1651024002314188.0
5.0,-7.0,43.0,58.0,18.0,19.0,14.0,2.0,1651024002316115.0
6.0,5.0,-19.0,-1.0,14.0,-11.0,15.0,9.0,1651024002316115.0
6.0,-12.0,-40.0,-25.0,-19.0,-27.0,-9.0,2.0,1651024002337120.0
-8.0,5.0,-9.0,-15.0,-22.0,9.0,-50.0,-22.0,1651024002337120.0
-5.0,-9.0,13.0,-6.0,2.0,2.0,-26.0,-5.0,1651024002338111.0
4.0,3.0,11.0,22.0,16.0,35.0,19.0,4.0,1651024002338111.0
0.0,-1.0,8.0,5.0,-14.0,-70.0,-26.0,1.0,1651024002351087.0
-5.0,-6.0,-2.0,-3.0,5.0,25.0,40.0,-3.0,1651024002351087.0
6.0,4.0,2.0,-1.0,10.0,53.0,-3.0,0.0,1651024002360055.0
0.0,-1.0,40.0,35.0,-1.0,-18.0,6.0,-1.0,1651024002360055.0
2.0,5.0,-32.0,-15.0,-5.0,24.0,61.0,28.0,1651024002374082.0
-15.0,-26.0,-42.0,-32.0,-12.0,-69.0,-87.0,-47.0,1651024002374082.0
2.0,1.0,10.0,6.0,-1.0,-4.0,34.0,4.0,1651024002376015.0
0.0,4.0,9.0,13.0,12.0,11.0,2.0,1.0,1651024002376015.0
-7.0,-6.0,11.0,15.0,2.0,15.0,7.0,-6.0,1651024002396808.0
10.0,2.0,11.0,9.0,8.0,18.0,16.0,12.0,1651024002396808.0
0.0,2.0,-5.0,-10.0,-13.0,-8.0,0.0,-3.0,1651024002398826.0
-1.0,-4.0,-13.0,-6.0,-11.0,-16.0,14.0,7.0,1651024002398826.0
-3.0,14.0,12.0,-7.0,3.0,6.0,-28.0,-8.0,1651024002410838.0
11.0,7.0,-7.0,-13.0,-5.0,-7.0,40.0,12.0,1651024002410838.0
-5.0,-1.0,3.0,-3.0,-4.0,-25.0,-49.0,-8.0,1651024002419945.0
-3.0,-8.0,-9.0,-1.0,-12.0,-21.0,-20.0,-6.0,1651024002419945.0
5.0,8.0,24.0,12.0,10.0,56.0,14.0,-3.0,1651024002434049.0
-5.0,-2.0,-9.0,1.0,14.0,38.0,18.0,18.0,1651024002434049.0
6.0,5.0,0.0,-2.0,1.0,5.0,44.0,14.0,1651024002436046.0
1.0,-2.0,14.0,7.0,6.0,-30.0,-22.0,-6.0,1651024002436046.0
-6.0,-8.0,-52.0,-37.0,1.0,-3.0,-22.0,-8.0,1651024002457346.0
7.0,10.0,31.0,22.0,-12.0,2.0,-6.0,5.0,1651024002457346.0
-2.0,-3.0,-18.0,5.0,-1.0,-8.0,5.0,-6.0,1651024002458899.0
9.0,5.0,-7.0,-24.0,-8.0,1.0,15.0,13.0,1651024002458899.0
15.0,5.0,34.0,23.0,10.0,3.0,12.0,-11.0,1651024002471063.0
-23.0,-12.0,-10.0,14.0,16.0,-3.0,-42.0,-13.0,1651024002471063.0
0.0,-3.0,14.0,14.0,2.0,9.0,14.0,15.0,1651024002479900.0
2.0,-7.0,-74.0,-54.0,-16.0,-1.0,79.0,27.0,1651024002479900.0
-4.0,8.0,23.0,22.0,-3.0,-10.0,-68.0,-29.0,1651024002494115.0
7.0,4.0,6.0,12.0,1.0,-34.0,-4.0,-6.0,1651024002494115.0
-5.0,-3.0,10.0,5.0,5.0,-7.0,-20.0,-13.0,1651024002496141.0
0.0,-7.0,-1.0,19.0,15.0,46.0,35.0,5.0,1651024002496141.0
6.0,-1.0,4.0,-24.0,-26.0,-3.0,30.0,13.0,1651024002516966.0
-13.0,-8.0,-21.0,-22.0,-9.0,5.0,5.0,9.0,1651024002516966.0
15.0,1.0,1.0,-2.0,0.0,31.0,19.0,-1.0,1651024002518894.0
-10.0,-5.0,4.0,7.0,22.0,-13.0,-33.0,-16.0,1651024002518894.0
-2.0,-3.0,-1.0,4.0,-7.0,-23.0,-31.0,2.0,1651024002539866.0
-5.0,-3.0,-4.0,-6.0,-9.0,-10.0,-14.0,-7.0,1651024002539866.0
-1.0,15.0,31.0,0.0,-4.0,3.0,29.0,14.0,1651024002540836.0
-6.0,-8.0,-12.0,9.0,-12.0,-8.0,-28.0,-17.0,1651024002540836.0
-8.0,-16.0,-24.0,-20.0,3.0,12.0,3.0,-3.0,1651024002554825.0
10.0,7.0,-14.0,-5.0,7.0,-8.0,16.0,8.0,1651024002554825.0
0.0,2.0,2.0,0.0,4.0,4.0,23.0,3.0,1651024002555796.0
0.0,7.0,16.0,0.0,11.0,0.0,-24.0,-9.0,1651024002555796.0
-7.0,1.0,16.0,19.0,-2.0,-29.0,-50.0,-13.0,1651024002577325.0
15.0,-2.0,-7.0,-11.0,-15.0,1.0,56.0,26.0,1651024002577325.0
-7.0,-4.0,-31.0,-15.0,-1.0,32.0,-62.0,-33.0,1651024002578260.0
-11.0,2.0,-10.0,-19.0,-6.0,-55.0,-22.0,-6.0,1651024002578260.0
14.0,-1.0,20.0,16.0,24.0,98.0,115.0,30.0,1651024002590879.0
-8.0,7.0,15.0,14.0,1.0,-33.0,-95.0,-13.0,1651024002590879.0
-5.0,-11.0,-17.0,-11.0,-5.0,-12.0,16.0,4.0,1651024002599792.0
10.0,6.0,24.0,16.0,0.0,13.0,41.0,24.0,1651024002599792.0
-5.0,-5.0,-26.0,-28.0,-23.0,-36.0,3.0,-9.0,1651024002614929.0
-2.0,1.0,-5.0,4.0,12.0,9.0,-62.0,-30.0,1651024002614929.0
-4.0,-3.0,4.0,4.0,1.0,-22.0,-7.0,0.0,1651024002615916.0
-2.0,2.0,-12.0,-10.0,1.0,17.0,32.0,5.0,1651024002615916.0
3.0,16.0,17.0,20.0,11.0,-3.0,-16.0,1.0,1651024002637058.0
-3.0,-19.0,4.0,16.0,-11.0,1.0,28.0,5.0,1651024002637058.0
-4.0,1.0,-9.0,-19.0,-10.0,-11.0,-17.0,-7.0,1651024002638990.0
3.0,-1.0,4.0,-19.0,-13.0,-10.0,-9.0,-5.0,1651024002638990.0
-6.0,-3.0,8.0,18.0,10.0,0.0,6.0,-2.0,1651024002650959.0
5.0,11.0,5.0,-20.0,-26.0,-24.0,3.0,11.0,1651024002650959.0
-3.0,-13.0,-11.0,17.0,30.0,11.0,0.0,-4.0,1651024002659939.0
7.0,-1.0,9.0,2.0,-1.0,32.0,43.0,7.0,1651024002659939.0
1.0,13.0,16.0,11.0,1.0,-17.0,-27.0,0.0,1651024002674466.0
