,EMG_s0,EMG_s1,EMG_s2,EMG_s3,EMG_s4,EMG_s5,EMG_s6,EMG_s7,timestamp,signal
0,-2.0,-2.0,-3.0,-2.0,3.0,1.0,2.0,-1.0,1651071754934544.0,0
1,1.0,2.0,1.0,0.0,0.0,-1.0,0.0,-1.0,1651071754934544.0,0
2,-2.0,0.0,3.0,4.0,0.0,1.0,1.0,1.0,1651071754948553.0,0
3,0.0,3.0,-4.0,-6.0,1.0,2.0,0.0,0.0,1651071754948553.0,0
4,-1.0,0.0,4.0,2.0,-2.0,-4.0,-2.0,-2.0,1651071754949483.0,0
5,-2.0,-6.0,-7.0,1.0,-4.0,-3.0,-1.0,-1.0,1651071754949483.0,0
6,0.0,2.0,-5.0,-2.0,4.0,5.0,-1.0,-1.0,1651071754971265.0,0
7,-1.0,-1.0,4.0,2.0,1.0,0.0,0.0,0.0,1651071754971265.0,0
8,-1.0,3.0,-2.0,-1.0,1.0,-1.0,0.0,-2.0,1651071754971265.0,0
9,-1.0,6.0,5.0,-2.0,-6.0,-10.0,-1.0,0.0,1651071754971265.0,0
10,-2.0,-17.0,-21.0,-4.0,-9.0,3.0,0.0,-1.0,1651071755001961.0,0
11,1.0,1.0,25.0,5.0,4.0,3.0,2.0,-1.0,1651071755001961.0,0
12,0.0,0.0,-9.0,-1.0,3.0,3.0,1.0,-2.0,1651071755001961.0,0
13,0.0,-2.0,-4.0,4.0,5.0,3.0,0.0,-1.0,1651071755001961.0,0
14,0.0,5.0,5.0,-1.0,-4.0,-6.0,0.0,0.0,1651071755007975.0,0
15,-1.0,-1.0,-5.0,-8.0,-4.0,-6.0,-2.0,-1.0,1651071755007975.0,0
16,0.0,-1.0,2.0,-1.0,-2.0,0.0,-1.0,0.0,1651071755008945.0,0
17,0.0,-3.0,5.0,-2.0,-1.0,0.0,-1.0,-2.0,1651071755008945.0,0
18,1.0,5.0,8.0,0.0,4.0,1.0,0.0,0.0,1651071755031080.0,0
19,-1.0,-5.0,-7.0,1.0,-3.0,0.0,1.0,0.0,1651071755031080.0,0
20,0.0,1.0,1.0,-1.0,2.0,-2.0,1.0,2.0,1651071755032011.0,0
21,-1.0,-1.0,-4.0,-2.0,2.0,1.0,-2.0,-1.0,1651071755032011.0,0
22,-1.0,3.0,3.0,2.0,2.0,2.0,-1.0,-2.0,1651071755053821.0,0
23,-2.0,-1.0,-5.0,-3.0,-1.0,-1.0,-1.0,-1.0,1651071755053821.0,0
24,-2.0,-1.0,-6.0,-1.0,-6.0,-1.0,0.0,1.0,1651071755053821.0,0
25,-1.0,-2.0,0.0,0.0,0.0,2.0,0.0,0.0,1651071755053821.0,0
26,-1.0,3.0,-2.0,-2.0,5.0,1.0,-1.0,0.0,1651071755068827.0,0
27,0.0,-6.0,-5.0,1.0,-2.0,-2.0,-1.0,-2.0,1651071755068827.0,0
28,0.0,-4.0,-3.0,0.0,-6.0,-2.0,-1.0,-2.0,1651071755068827.0,0
29,-1.0,1.0,1.0,5.0,6.0,2.0,2.0,-1.0,1651071755068827.0,0
30,1.0,0.0,-2.0,-3.0,4.0,3.0,1.0,0.0,1651071755090791.0,0
31,0.0,2.0,-4.0,-1.0,-4.0,-13.0,-2.0,-1.0,1651071755090791.0,0
32,-2.0,0.0,1.0,-3.0,2.0,9.0,-1.0,-1.0,1651071755091722.0,0
33,0.0,0.0,4.0,0.0,1.0,3.0,0.0,1.0,1651071755091722.0,0
34,1.0,0.0,2.0,4.0,-6.0,-6.0,-2.0,-1.0,1651071755113598.0,0
35,1.0,-3.0,2.0,0.0,3.0,2.0,-1.0,1.0,1651071755113598.0,0
36,-1.0,-2.0,1.0,0.0,-3.0,-4.0,-1.0,-1.0,1651071755113598.0,0
37,0.0,2.0,0.0,1.0,1.0,-2.0,0.0,0.0,1651071755113598.0,0
38,-1.0,-5.0,-1.0,-2.0,-2.0,3.0,0.0,1.0,1651071755128493.0,0
39,0.0,-1.0,0.0,-1.0,-1.0,-1.0,1.0,-1.0,1651071755128493.0,0
40,-1.0,-1.0,-2.0,-5.0,-7.0,-6.0,0.0,-1.0,1651071755129489.0,0
41,0.0,-1.0,-4.0,-3.0,-3.0,1.0,-3.0,0.0,1651071755129489.0,0
42,0.0,4.0,2.0,-1.0,-3.0,-3.0,-1.0,-3.0,1651071755151261.0,0
43,-2.0,-6.0,3.0,6.0,1.0,-1.0,-2.0,-1.0,1651071755151261.0,0
44,1.0,-2.0,2.0,1.0,13.0,9.0,-1.0,0.0,1651071755151261.0,0
45,-4.0,2.0,16.0,-3.0,-5.0,-2.0,0.0,0.0,1651071755151261.0,0
46,1.0,-1.0,-21.0,-3.0,-3.0,-2.0,-1.0,1.0,1651071755173321.0,0
47,0.0,3.0,0.0,-1.0,-4.0,2.0,1.0,0.0,1651071755173321.0,0
48,0.0,0.0,3.0,1.0,-2.0,-2.0,0.0,-1.0,1651071755174262.0,0
49,0.0,-3.0,0.0,-1.0,3.0,2.0,-1.0,-1.0,1651071755174262.0,0
50,1.0,2.0,6.0,1.0,-4.0,-7.0,-3.0,0.0,1651071755188280.0,0
51,-1.0,-4.0,-4.0,0.0,3.0,7.0,-2.0,-1.0,1651071755188280.0,0
52,0.0,-2.0,2.0,-1.0,-6.0,-5.0,2.0,1.0,1651071755189211.0,0
53,0.0,-1.0,-13.0,-4.0,-5.0,-2.0,-2.0,0.0,1651071755189211.0,0
54,-1.0,-1.0,4.0,1.0,4.0,7.0,1.0,-1.0,1651071755210709.0,0
55,0.0,2.0,-2.0,-2.0,-1.0,-2.0,-2.0,0.0,1651071755210709.0,0
56,-1.0,0.0,2.0,0.0,0.0,-3.0,-2.0,0.0,1651071755211619.0,0
57,-1.0,-2.0,1.0,4.0,-5.0,-1.0,-3.0,-3.0,1651071755211619.0,0
58,-3.0,0.0,-5.0,-8.0,1.0,-2.0,0.0,0.0,1651071755233764.0,0
59,1.0,2.0,2.0,-1.0,-4.0,0.0,3.0,0.0,1651071755233764.0,0
60,1.0,1.0,0.0,0.0,2.0,-1.0,0.0,-2.0,1651071755233764.0,0
61,1.0,-2.0,0.0,2.0,5.0,1.0,2.0,-1.0,1651071755233764.0,0
62,-2.0,0.0,2.0,3.0,1.0,0.0,-1.0,-2.0,1651071755247713.0,0
63,0.0,1.0,1.0,0.0,1.0,0.0,-1.0,0.0,1651071755247713.0,0
64,-2.0,-3.0,-12.0,0.0,-1.0,1.0,-3.0,0.0,1651071755255645.0,0
65,-2.0,-2.0,-11.0,-2.0,1.0,-3.0,-2.0,-1.0,1651071755255645.0,0
66,0.0,-1.0,2.0,0.0,-1.0,2.0,-2.0,-1.0,1651071755278799.0,0
67,0.0,1.0,4.0,-1.0,-5.0,2.0,1.0,-1.0,1651071755278799.0,0
68,1.0,-1.0,-3.0,1.0,1.0,-2.0,-2.0,-1.0,1651071755279729.0,0
69,0.0,2.0,3.0,-4.0,-2.0,-2.0,0.0,0.0,1651071755279729.0,0
70,-2.0,-3.0,3.0,-4.0,-6.0,-2.0,1.0,0.0,1651071755293728.0,0
71,-2.0,-1.0,-3.0,-1.0,-6.0,-12.0,-3.0,-1.0,1651071755293728.0,0
72,-1.0,-1.0,0.0,1.0,2.0,5.0,0.0,0.0,1651071755293728.0,0
73,2.0,2.0,0.0,0.0,6.0,13.0,4.0,2.0,1651071755293728.0,0
74,1.0,-2.0,0.0,4.0,0.0,-3.0,0.0,-1.0,1651071755308142.0,0
75,-1.0,-1.0,-2.0,-5.0,1.0,1.0,-2.0,-1.0,1651071755308142.0,0
76,0.0,-1.0,1.0,-1.0,-4.0,-6.0,-1.0,-1.0,1651071755315182.0,0
77,-2.0,-3.0,12.0,-1.0,-6.0,-7.0,-2.0,-1.0,1651071755315182.0,0
78,-1.0,-1.0,-18.0,0.0,-4.0,0.0,0.0,0.0,1651071755331286.0,0
79,-2.0,0.0,3.0,2.0,7.0,0.0,-1.0,-1.0,1651071755331286.0,0
80,0.0,1.0,0.0,-2.0,-1.0,-1.0,2.0,-1.0,1651071755331286.0,0
81,0.0,-1.0,-1.0,-1.0,-3.0,1.0,1.0,-1.0,1651071755331286.0,0
82,-1.0,-1.0,6.0,1.0,1.0,-1.0,2.0,0.0,1651071755353595.0,0
83,-2.0,1.0,-2.0,-2.0,-2.0,-3.0,-2.0,1.0,1651071755353595.0,0
84,1.0,-3.0,-7.0,-2.0,1.0,1.0,0.0,-1.0,1651071755354545.0,0
85,-1.0,-3.0,-9.0,-2.0,-6.0,-1.0,-4.0,-3.0,1651071755354545.0,0
86,-2.0,-4.0,11.0,1.0,10.0,1.0,-1.0,-2.0,1651071755367517.0,0
87,1.0,0.0,-5.0,0.0,-1.0,1.0,0.0,1.0,1651071755367517.0,0
88,1.0,0.0,5.0,0.0,2.0,-1.0,0.0,0.0,1651071755375613.0,0
89,-1.0,1.0,-1.0,-2.0,-7.0,-6.0,-1.0,0.0,1651071755375613.0,0
90,1.0,-1.0,-6.0,-3.0,1.0,-3.0,-2.0,-1.0,1651071755390595.0,0
91,0.0,-2.0,2.0,-1.0,-1.0,3.0,-2.0,-1.0,1651071755390595.0,0
92,0.0,4.0,6.0,6.0,-1.0,-1.0,0.0,-2.0,1651071755391566.0,0
93,-2.0,-7.0,-3.0,-4.0,4.0,-2.0,0.0,-1.0,1651071755391566.0,0
94,0.0,3.0,2.0,-2.0,-5.0,2.0,-1.0,0.0,1651071755413789.0,0
95,-1.0,-1.0,1.0,4.0,1.0,-8.0,-1.0,-1.0,1651071755413789.0,0
96,-3.0,-1.0,-4.0,-3.0,-5.0,4.0,-1.0,-1.0,1651071755413789.0,0
97,-1.0,1.0,-2.0,3.0,4.0,3.0,0.0,1.0,1651071755413789.0,0
98,0.0,-2.0,1.0,0.0,-3.0,-2.0,-1.0,0.0,1651071755427758.0,0
99,1.0,0.0,4.0,0.0,3.0,2.0,0.0,0.0,1651071755427758.0,0
100,0.0,2.0,5.0,0.0,-5.0,-6.0,0.0,0.0,1651071755434804.0,0
101,-1.0,-6.0,-5.0,-2.0,-3.0,-4.0,-2.0,-2.0,1651071755434804.0,0
102,-1.0,2.0,6.0,-2.0,-3.0,1.0,-2.0,2.0,1651071755450899.0,0
103,-1.0,2.0,-6.0,-1.0,-4.0,-2.0,-1.0,1.0,1651071755450899.0,0
104,-1.0,0.0,-3.0,0.0,5.0,3.0,-2.0,0.0,1651071755451830.0,0
105,0.0,1.0,-1.0,-1.0,-1.0,-1.0,0.0,0.0,1651071755451830.0,0
106,0.0,-1.0,-3.0,-2.0,-2.0,-3.0,-2.0,-1.0,1651071755473780.0,0
107,-1.0,-1.0,8.0,1.0,-1.0,3.0,1.0,-2.0,1651071755473780.0,0
108,-1.0,-2.0,0.0,-3.0,0.0,-1.0,0.0,-1.0,1651071755473780.0,0
109,-1.0,1.0,-2.0,1.0,3.0,0.0,-1.0,-2.0,1651071755473780.0,0
110,0.0,-4.0,-3.0,1.0,-2.0,-1.0,1.0,-1.0,1651071755487791.0,0
111,-2.0,-1.0,-2.0,1.0,3.0,1.0,0.0,1.0,1651071755487791.0,0
112,-1.0,-4.0,-12.0,-11.0,-3.0,-1.0,0.0,0.0,1651071755494809.0,0
113,0.0,4.0,0.0,-3.0,-6.0,-4.0,-2.0,-3.0,1651071755494809.0,0
114,-1.0,0.0,-4.0,-2.0,7.0,2.0,0.0,-1.0,1651071755510902.0,0
115,1.0,-4.0,5.0,2.0,2.0,3.0,0.0,0.0,1651071755510902.0,0
116,-1.0,-1.0,-23.0,0.0,-7.0,-13.0,-4.0,-2.0,1651071755511902.0,0
117,0.0,-1.0,-1.0,2.0,5.0,12.0,1.0,1.0,1651071755511902.0,0
118,-3.0,0.0,7.0,0.0,-5.0,-5.0,0.0,0.0,1651071755533971.0,0
119,-1.0,0.0,-6.0,-2.0,9.0,8.0,0.0,-2.0,1651071755533971.0,0
120,0.0,-2.0,5.0,3.0,-1.0,-2.0,-2.0,-1.0,1651071755533971.0,0
121,1.0,0.0,-1.0,-1.0,-6.0,-5.0,-2.0,-1.0,1651071755533971.0,0
122,0.0,-1.0,-2.0,-1.0,-7.0,-3.0,-2.0,0.0,1651071755556210.0,0
123,0.0,-2.0,-3.0,-2.0,-3.0,-3.0,0.0,0.0,1651071755556210.0,0
124,2.0,2.0,3.0,0.0,5.0,5.0,1.0,0.0,1651071755556210.0,0
125,0.0,0.0,5.0,3.0,-3.0,-3.0,2.0,-1.0,1651071755556210.0,0
126,-2.0,-1.0,1.0,-1.0,0.0,2.0,-1.0,-2.0,1651071755579208.0,0
127,0.0,2.0,0.0,2.0,-2.0,-3.0,0.0,-3.0,1651071755579208.0,0
128,-1.0,-1.0,3.0,-1.0,0.0,1.0,0.0,1.0,1651071755580171.0,0
129,-1.0,0.0,-1.0,-3.0,0.0,0.0,0.0,-1.0,1651071755580171.0,0
130,-2.0,-3.0,-3.0,-2.0,-4.0,-3.0,0.0,0.0,1651071755593222.0,0
131,0.0,-3.0,-6.0,-2.0,2.0,0.0,0.0,1.0,1651071755593222.0,0
132,0.0,-1.0,3.0,5.0,7.0,3.0,0.0,-2.0,1651071755601288.0,0
133,0.0,0.0,0.0,1.0,2.0,-9.0,-3.0,-1.0,1651071755601288.0,0
134,1.0,2.0,0.0,0.0,-4.0,9.0,2.0,0.0,1651071755616197.0,0
135,-1.0,-2.0,-1.0,-2.0,0.0,3.0,0.0,-1.0,1651071755616197.0,0
136,1.0,-2.0,4.0,-1.0,-1.0,0.0,0.0,0.0,1651071755616197.0,0
137,0.0,3.0,-4.0,-2.0,-1.0,-3.0,-4.0,0.0,1651071755616197.0,0
138,1.0,0.0,3.0,0.0,-7.0,-9.0,-3.0,-1.0,1651071755639560.0,0
139,1.0,2.0,4.0,1.0,-1.0,3.0,-3.0,0.0,1651071755639560.0,0
140,0.0,0.0,2.0,2.0,4.0,3.0,-1.0,0.0,1651071755639560.0,0
141,-1.0,-1.0,-1.0,-1.0,-3.0,1.0,0.0,1.0,1651071755639560.0,0
142,0.0,-1.0,-10.0,-7.0,3.0,0.0,-1.0,1.0,1651071755653784.0,0
143,-2.0,-2.0,-3.0,-1.0,-7.0,-6.0,2.0,0.0,1651071755653784.0,0
144,-2.0,-1.0,1.0,-1.0,-2.0,-4.0,-2.0,1.0,1651071755653784.0,0
145,-1.0,-1.0,2.0,3.0,0.0,2.0,2.0,-1.0,1651071755653784.0,0
146,0.0,3.0,4.0,2.0,3.0,3.0,0.0,0.0,1651071755676123.0,0
147,-3.0,-8.0,-11.0,-2.0,-1.0,-2.0,1.0,-1.0,1651071755676123.0,0
148,0.0,-1.0,-5.0,-1.0,-6.0,1.0,-2.0,0.0,1651071755676123.0,0
149,-1.0,4.0,20.0,-1.0,1.0,1.0,0.0,0.0,1651071755676123.0,0
150,0.0,-9.0,-29.0,-2.0,2.0,-2.0,-1.0,-2.0,1651071755699170.0,0
151,2.0,2.0,-1.0,-3.0,1.0,-4.0,-2.0,0.0,1651071755699170.0,0
152,-1.0,1.0,7.0,0.0,1.0,2.0,0.0,1.0,1651071755700135.0,0
153,0.0,-1.0,-1.0,-2.0,-2.0,1.0,-2.0,-1.0,1651071755700135.0,0
154,0.0,4.0,10.0,0.0,4.0,2.0,1.0,0.0,1651071755713820.0,0
155,-1.0,1.0,-3.0,-2.0,1.0,0.0,0.0,0.0,1651071755713820.0,0
156,0.0,-1.0,2.0,1.0,-2.0,-3.0,1.0,-1.0,1651071755713820.0,0
157,0.0,1.0,-1.0,2.0,7.0,6.0,0.0,0.0,1651071755713820.0,0
158,-2.0,-1.0,0.0,-6.0,-6.0,-3.0,-2.0,0.0,1651071755736318.0,0
159,-1.0,-1.0,-4.0,-1.0,-4.0,-4.0,1.0,-2.0,1651071755736318.0,0
160,-1.0,2.0,4.0,-2.0,-3.0,1.0,0.0,-1.0,1651071755736318.0,0
161,-3.0,-1.0,-4.0,0.0,0.0,-1.0,-1.0,0.0,1651071755736318.0,0
162,0.0,0.0,7.0,5.0,3.0,-1.0,-1.0,-1.0,1651071755759245.0,0
163,-1.0,1.0,6.0,-3.0,2.0,5.0,1.0,0.0,1651071755759245.0,0
164,-1.0,-1.0,-7.0,-1.0,-3.0,-4.0,0.0,0.0,1651071755760209.0,0
165,-1.0,0.0,-3.0,-2.0,-8.0,-4.0,0.0,0.0,1651071755760209.0,0
166,0.0,-3.0,-1.0,2.0,0.0,-4.0,1.0,-1.0,1651071755773795.0,0
167,2.0,1.0,3.0,-1.0,0.0,-5.0,0.0,-2.0,1651071755773795.0,0
168,1.0,0.0,0.0,0.0,-3.0,0.0,0.0,-2.0,1651071755773795.0,0
169,-1.0,-4.0,-7.0,-2.0,-2.0,-1.0,0.0,-1.0,1651071755773795.0,0
170,-1.0,5.0,6.0,1.0,3.0,3.0,-2.0,1.0,1651071755795976.0,0
171,-2.0,-2.0,3.0,0.0,-7.0,-4.0,-2.0,-2.0,1651071755795976.0,0
172,-1.0,-3.0,-4.0,-1.0,5.0,2.0,0.0,3.0,1651071755797017.0,0
173,1.0,-3.0,-3.0,-2.0,5.0,-1.0,0.0,0.0,1651071755797017.0,0
174,0.0,-1.0,5.0,5.0,-2.0,-3.0,-1.0,0.0,1651071755819486.0,0
175,0.0,0.0,-5.0,-6.0,0.0,2.0,0.0,-1.0,1651071755819486.0,0
176,-1.0,0.0,5.0,-1.0,-3.0,-3.0,-1.0,0.0,1651071755819486.0,0
177,0.0,4.0,1.0,-2.0,-3.0,5.0,-1.0,0.0,1651071755819486.0,0
178,-2.0,-3.0,-4.0,1.0,7.0,5.0,1.0,-1.0,1651071755833161.0,0
179,0.0,-3.0,-3.0,2.0,-2.0,-2.0,-2.0,-1.0,1651071755833161.0,0
180,-1.0,-2.0,1.0,-3.0,-14.0,-13.0,-4.0,-3.0,1651071755841281.0,0
181,0.0,1.0,0.0,0.0,3.0,3.0,1.0,-1.0,1651071755841281.0,0
182,1.0,1.0,-8.0,0.0,4.0,3.0,1.0,-1.0,1651071755855399.0,0
183,-1.0,1.0,0.0,2.0,5.0,1.0,0.0,1.0,1651071755855399.0,0
184,-2.0,-1.0,2.0,-1.0,0.0,-2.0,-1.0,-1.0,1651071755856382.0,0
185,0.0,-3.0,-7.0,0.0,-5.0,-6.0,-1.0,-1.0,1651071755856382.0,0
186,-1.0,2.0,7.0,-2.0,-5.0,0.0,-1.0,-1.0,1651071755878846.0,0
187,2.0,0.0,2.0,-1.0,-2.0,-1.0,0.0,0.0,1651071755878846.0,0
188,0.0,-1.0,-7.0,0.0,4.0,2.0,3.0,0.0,1651071755879842.0,0
189,1.0,2.0,7.0,6.0,0.0,-2.0,2.0,1.0,1651071755879842.0,0
190,-1.0,-1.0,0.0,-5.0,2.0,0.0,-1.0,-2.0,1651071755893118.0,0
191,-1.0,1.0,-3.0,-2.0,-7.0,-2.0,-2.0,-2.0,1651071755893118.0,0
192,-2.0,0.0,2.0,2.0,5.0,1.0,0.0,-2.0,1651071755901178.0,0
193,0.0,-4.0,-6.0,-3.0,3.0,3.0,-1.0,0.0,1651071755901178.0,0
194,-1.0,-2.0,2.0,2.0,-3.0,-2.0,0.0,1.0,1651071755916263.0,0
195,0.0,-3.0,-5.0,0.0,-5.0,-2.0,-3.0,-1.0,1651071755916263.0,0
196,0.0,1.0,1.0,-3.0,-7.0,-12.0,-2.0,-3.0,1651071755916263.0,0
197,-2.0,-1.0,-1.0,1.0,4.0,13.0,1.0,1.0,1651071755916263.0,0
198,1.0,-5.0,-6.0,-2.0,7.0,-1.0,2.0,1.0,1651071755938335.0,0
199,-1.0,3.0,2.0,-2.0,-6.0,-8.0,-1.0,0.0,1651071755938335.0,0
200,2.0,-1.0,-4.0,-1.0,3.0,11.0,1.0,1.0,1651071755946312.0,0
201,1.0,-1.0,0.0,0.0,-1.0,-9.0,-2.0,-1.0,1651071755946312.0,0
202,-1.0,-2.0,1.0,4.0,-1.0,1.0,-2.0,0.0,1651071755952298.0,0
203,1.0,1.0,6.0,-2.0,1.0,2.0,0.0,-1.0,1651071755952298.0,0
204,0.0,-1.0,-3.0,-1.0,-5.0,-4.0,-2.0,-1.0,1651071755961271.0,0
205,0.0,3.0,-11.0,-4.0,-12.0,-6.0,-4.0,-4.0,1651071755961271.0,0
206,-2.0,3.0,14.0,-2.0,-10.0,1.0,-1.0,-1.0,1651071755976665.0,0
207,-3.0,-15.0,-12.0,12.0,27.0,-1.0,-1.0,2.0,1651071755976665.0,0
208,-2.0,1.0,0.0,2.0,22.0,17.0,4.0,2.0,1651071755977663.0,0
209,-2.0,-1.0,-13.0,-6.0,-11.0,-7.0,1.0,1.0,1651071755977663.0,0
210,0.0,4.0,11.0,-1.0,2.0,-2.0,1.0,-1.0,1651071755998667.0,0
211,-1.0,3.0,0.0,-3.0,-18.0,-4.0,-1.0,-1.0,1651071755998667.0,0
212,-1.0,0.0,2.0,6.0,-2.0,-2.0,-1.0,0.0,1651071755999611.0,0
213,-1.0,-3.0,4.0,-2.0,1.0,3.0,1.0,0.0,1651071755999611.0,0
214,0.0,-5.0,-9.0,-7.0,-2.0,-6.0,-3.0,-2.0,1651071756012628.0,0
215,1.0,2.0,0.0,-3.0,3.0,7.0,1.0,-1.0,1651071756012628.0,0
216,-1.0,-5.0,-7.0,1.0,-1.0,0.0,0.0,0.0,1651071756021282.0,0
217,-1.0,2.0,7.0,3.0,-2.0,-3.0,-2.0,-1.0,1651071756021282.0,0
218,1.0,3.0,9.0,-1.0,-6.0,-3.0,0.0,0.0,1651071756035823.0,0
219,-2.0,-12.0,-14.0,-10.0,-12.0,-1.0,0.0,1.0,1651071756035823.0,0
220,1.0,1.0,5.0,2.0,18.0,5.0,1.0,0.0,1651071756036580.0,0
221,-1.0,-1.0,1.0,12.0,19.0,4.0,1.0,-2.0,1651071756036580.0,0
222,0.0,-4.0,0.0,-3.0,-2.0,0.0,-2.0,0.0,1651071756058589.0,0
223,0.0,3.0,1.0,1.0,0.0,0.0,0.0,0.0,1651071756058589.0,0
224,2.0,2.0,3.0,-4.0,-17.0,-11.0,-1.0,-1.0,1651071756059545.0,0
225,-2.0,0.0,2.0,-8.0,-4.0,1.0,-3.0,0.0,1651071756059545.0,0
226,0.0,3.0,-5.0,4.0,6.0,2.0,-1.0,-1.0,1651071756072522.0,0
227,0.0,6.0,-3.0,-8.0,-6.0,2.0,0.0,-1.0,1651071756072522.0,0
228,-1.0,-2.0,-2.0,3.0,-7.0,-1.0,-1.0,0.0,1651071756080499.0,0
229,1.0,4.0,1.0,-2.0,3.0,-5.0,0.0,0.0,1651071756080499.0,0
230,-1.0,1.0,4.0,0.0,-2.0,3.0,0.0,-1.0,1651071756095722.0,0
231,0.0,1.0,-6.0,-14.0,-10.0,-4.0,-1.0,1.0,1651071756095722.0,0
232,0.0,0.0,-13.0,6.0,9.0,7.0,2.0,-1.0,1651071756096601.0,0
233,0.0,2.0,5.0,5.0,-1.0,-3.0,-2.0,-1.0,1651071756096601.0,0
234,-2.0,-11.0,-11.0,-8.0,-3.0,-3.0,0.0,-1.0,1651071756118720.0,0
235,2.0,-2.0,8.0,17.0,9.0,4.0,1.0,-1.0,1651071756118720.0,0
236,-2.0,5.0,4.0,-1.0,-7.0,-1.0,-4.0,-2.0,1651071756118720.0,0
237,0.0,-2.0,-11.0,-34.0,-17.0,-8.0,2.0,3.0,1651071756118720.0,0
238,1.0,-3.0,-8.0,17.0,10.0,7.0,0.0,0.0,1651071756141969.0,0
239,2.0,4.0,2.0,8.0,12.0,2.0,2.0,2.0,1651071756141969.0,0
240,0.0,-1.0,-2.0,-2.0,-11.0,-11.0,-4.0,-4.0,1651071756141969.0,0
241,-1.0,1.0,7.0,-10.0,-7.0,8.0,3.0,2.0,1651071756141969.0,0
242,-5.0,-3.0,-13.0,-12.0,-15.0,-10.0,-7.0,-5.0,1651071756156000.0,0
243,0.0,5.0,8.0,8.0,23.0,11.0,8.0,5.0,1651071756156000.0,0
244,1.0,10.0,-8.0,7.0,-3.0,4.0,-4.0,-2.0,1651071756156931.0,0
245,-1.0,-19.0,-21.0,-5.0,-2.0,-6.0,-1.0,0.0,1651071756156931.0,0
246,-1.0,0.0,16.0,17.0,12.0,0.0,-2.0,-2.0,1651071756178201.0,0
247,-2.0,2.0,4.0,-17.0,-28.0,-9.0,-6.0,-6.0,1651071756178201.0,1
248,-3.0,-9.0,-12.0,-16.0,-14.0,-6.0,0.0,-1.0,1651071756179191.0,1
249,-4.0,5.0,1.0,29.0,21.0,-1.0,-1.0,-3.0,1651071756179191.0,1
250,2.0,2.0,-4.0,-4.0,-6.0,2.0,1.0,3.0,1651071756201256.0,1
251,2.0,1.0,-7.0,-8.0,-3.0,-7.0,-1.0,2.0,1651071756201256.0,1
252,-1.0,-1.0,6.0,-6.0,4.0,5.0,-2.0,-1.0,1651071756202185.0,1
253,-1.0,-4.0,-4.0,-4.0,-5.0,0.0,-3.0,-3.0,1651071756202185.0,1
254,1.0,2.0,4.0,6.0,-9.0,-3.0,0.0,-2.0,1651071756216148.0,1
255,-1.0,5.0,5.0,2.0,12.0,5.0,1.0,-1.0,1651071756216148.0,1
256,0.0,-8.0,-10.0,-22.0,8.0,-2.0,2.0,2.0,1651071756223140.0,1
257,3.0,6.0,21.0,20.0,2.0,4.0,1.0,0.0,1651071756223140.0,1
258,2.0,0.0,-12.0,-1.0,-4.0,2.0,2.0,1.0,1651071756238259.0,1
259,-2.0,3.0,17.0,0.0,-1.0,0.0,-2.0,0.0,1651071756238259.0,1
260,-3.0,-13.0,-25.0,2.0,-8.0,-4.0,0.0,1.0,1651071756239190.0,1
261,0.0,6.0,20.0,11.0,1.0,-3.0,-2.0,-2.0,1651071756239190.0,1
262,-2.0,2.0,-10.0,-27.0,15.0,2.0,-2.0,-1.0,1651071756261198.0,1
263,2.0,3.0,-4.0,11.0,9.0,9.0,3.0,1.0,1651071756261198.0,1
264,1.0,2.0,13.0,-2.0,-34.0,-16.0,-1.0,-1.0,1651071756262128.0,1
265,-2.0,-6.0,4.0,10.0,29.0,15.0,4.0,-2.0,1651071756262128.0,1
266,2.0,1.0,-3.0,-7.0,-1.0,0.0,4.0,3.0,1651071756276157.0,1
267,-5.0,-7.0,0.0,11.0,-4.0,-3.0,-7.0,-6.0,1651071756276157.0,1
268,-2.0,3.0,6.0,5.0,4.0,-4.0,-2.0,1.0,1651071756276157.0,1
269,0.0,-2.0,-12.0,-19.0,-26.0,-12.0,-6.0,-3.0,1651071756276157.0,1
270,1.0,5.0,10.0,12.0,2.0,6.0,3.0,1.0,1651071756298229.0,1
271,-2.0,-5.0,-8.0,3.0,15.0,-1.0,6.0,2.0,1651071756298229.0,1
272,-2.0,-4.0,-6.0,-29.0,2.0,9.0,-1.0,-2.0,1651071756299159.0,1
273,0.0,2.0,3.0,6.0,4.0,-2.0,-2.0,-2.0,1651071756299159.0,1
274,-2.0,-6.0,-5.0,-2.0,-5.0,-9.0,-7.0,-4.0,1651071756321281.0,1
275,0.0,-2.0,-3.0,-50.0,-22.0,-13.0,-4.0,-5.0,1651071756321281.0,1
276,1.0,6.0,22.0,65.0,21.0,12.0,4.0,1.0,1651071756322211.0,1
277,-1.0,-5.0,0.0,-4.0,5.0,11.0,5.0,3.0,1651071756322211.0,1
278,1.0,6.0,14.0,25.0,14.0,7.0,2.0,2.0,1651071756336237.0,1
279,-2.0,-9.0,-29.0,-46.0,-30.0,-11.0,-3.0,-2.0,1651071756336237.0,1
280,-2.0,1.0,-4.0,-29.0,-30.0,-26.0,-7.0,-5.0,1651071756336237.0,1
281,2.0,5.0,17.0,8.0,15.0,17.0,5.0,4.0,1651071756336237.0,1
282,-2.0,-1.0,8.0,36.0,19.0,8.0,7.0,2.0,1651071756358181.0,1
283,1.0,2.0,8.0,6.0,1.0,1.0,-2.0,1.0,1651071756358181.0,1
284,-1.0,-5.0,-20.0,-17.0,11.0,0.0,-4.0,-2.0,1651071756359113.0,1
285,0.0,2.0,7.0,6.0,-10.0,-9.0,-3.0,1.0,1651071756359113.0,1
286,0.0,0.0,0.0,-20.0,-38.0,-11.0,-3.0,-1.0,1651071756389456.0,1
287,0.0,-1.0,3.0,17.0,22.0,19.0,8.0,4.0,1651071756389456.0,1
288,1.0,3.0,15.0,24.0,14.0,5.0,0.0,-1.0,1651071756390203.0,1
289,-2.0,-6.0,-10.0,-1.0,-16.0,-10.0,-2.0,-1.0,1651071756390203.0,1
290,-4.0,-10.0,-6.0,-12.0,16.0,-4.0,-5.0,-3.0,1651071756396190.0,1
291,0.0,6.0,12.0,43.0,-2.0,-3.0,-2.0,-1.0,1651071756396190.0,1
292,-5.0,-6.0,-8.0,-21.0,-34.0,-9.0,-6.0,-2.0,1651071756396190.0,1
293,-2.0,-3.0,1.0,-21.0,15.0,0.0,1.0,3.0,1651071756396190.0,1
294,-1.0,-6.0,-34.0,-48.0,-15.0,2.0,0.0,0.0,1651071756418151.0,1
295,-1.0,-5.0,-8.0,13.0,-7.0,0.0,0.0,-1.0,1651071756418151.0,1
296,3.0,10.0,26.0,30.0,38.0,14.0,8.0,4.0,1651071756419141.0,1
297,1.0,2.0,-2.0,-5.0,-18.0,-8.0,-3.0,-3.0,1651071756419141.0,1
298,-2.0,-5.0,-20.0,-9.0,-8.0,-5.0,0.0,0.0,1651071756441230.0,1
299,0.0,5.0,16.0,12.0,16.0,6.0,0.0,-1.0,1651071756441230.0,1
300,2.0,1.0,-4.0,-2.0,-1.0,5.0,1.0,1.0,1651071756442199.0,1
301,0.0,5.0,-2.0,12.0,9.0,2.0,1.0,0.0,1651071756442199.0,1
302,-1.0,0.0,0.0,-21.0,-9.0,-4.0,4.0,2.0,1651071756455836.0,1
303,-2.0,-2.0,-9.0,-9.0,-4.0,0.0,-2.0,-1.0,1651071756455836.0,1
304,-1.0,-1.0,6.0,-8.0,-3.0,0.0,0.0,2.0,1651071756456766.0,1
305,-2.0,-2.0,-5.0,3.0,-2.0,-5.0,-4.0,-2.0,1651071756456766.0,1
306,2.0,7.0,12.0,18.0,13.0,2.0,-5.0,-3.0,1651071756477932.0,1
307,1.0,-1.0,4.0,-12.0,-17.0,-4.0,-1.0,2.0,1651071756477932.0,1
308,0.0,1.0,0.0,6.0,20.0,12.0,2.0,-1.0,1651071756478884.0,1
309,1.0,-1.0,-3.0,-11.0,-8.0,-3.0,-1.0,-1.0,1651071756478884.0,1
310,-4.0,-12.0,-25.0,-5.0,-21.0,-11.0,-8.0,-6.0,1651071756501164.0,1
311,1.0,10.0,13.0,4.0,9.0,-2.0,1.0,0.0,1651071756501164.0,1
312,-2.0,-9.0,-21.0,11.0,19.0,3.0,1.0,2.0,1651071756502162.0,1
313,-1.0,1.0,0.0,-25.0,-19.0,-7.0,-3.0,-2.0,1651071756502162.0,1
314,4.0,8.0,29.0,23.0,1.0,0.0,3.0,2.0,1651071756516208.0,1
315,-2.0,-7.0,-12.0,-5.0,16.0,-4.0,-5.0,-3.0,1651071756516208.0,1
316,2.0,4.0,2.0,-14.0,-13.0,6.0,-1.0,-1.0,1651071756516208.0,1
317,-2.0,1.0,-1.0,16.0,3.0,0.0,0.0,-2.0,1651071756516208.0,1
318,-2.0,2.0,9.0,-4.0,1.0,3.0,3.0,3.0,1651071756538261.0,1
319,-2.0,-6.0,-4.0,-11.0,-24.0,-13.0,-2.0,-3.0,1651071756538261.0,1
320,2.0,6.0,0.0,4.0,9.0,2.0,3.0,-1.0,1651071756539190.0,1
321,2.0,-7.0,-6.0,-7.0,-1.0,8.0,2.0,3.0,1651071756539190.0,1
322,-2.0,4.0,15.0,23.0,7.0,0.0,-5.0,-3.0,1651071756561306.0,1
323,0.0,-3.0,-5.0,1.0,13.0,7.0,2.0,-1.0,1651071756561306.0,1
324,-3.0,-3.0,-12.0,-22.0,-11.0,-8.0,-1.0,2.0,1651071756562307.0,1
325,-1.0,3.0,3.0,-2.0,-14.0,-5.0,-2.0,-2.0,1651071756562307.0,1
326,-1.0,-4.0,-2.0,5.0,-4.0,-13.0,-2.0,-2.0,1651071756575273.0,1
327,0.0,0.0,-12.0,12.0,33.0,23.0,3.0,0.0,1651071756575273.0,1
328,2.0,4.0,10.0,-13.0,-12.0,1.0,7.0,3.0,1651071756583252.0,1
329,-2.0,-4.0,-3.0,6.0,-7.0,-7.0,-6.0,-3.0,1651071756583252.0,1
330,0.0,5.0,14.0,-8.0,9.0,2.0,0.0,2.0,1651071756598304.0,1
331,-3.0,-14.0,-7.0,20.0,-22.0,-16.0,-3.0,-2.0,1651071756598304.0,1
332,-3.0,-12.0,-6.0,8.0,-15.0,-4.0,-5.0,-5.0,1651071756599234.0,1
333,1.0,3.0,-27.0,-18.0,41.0,21.0,6.0,3.0,1651071756599234.0,1
334,2.0,-1.0,-9.0,-19.0,-15.0,0.0,1.0,0.0,1651071756621333.0,1
335,-1.0,6.0,21.0,12.0,-11.0,-14.0,-5.0,0.0,1651071756621333.0,1
336,-1.0,-3.0,-6.0,6.0,1.0,6.0,-2.0,-2.0,1651071756622338.0,1
337,-1.0,-3.0,-1.0,-3.0,-11.0,-3.0,1.0,2.0,1651071756622338.0,1
338,-2.0,1.0,10.0,-8.0,9.0,4.0,4.0,-1.0,1651071756636257.0,1
339,0.0,-1.0,-9.0,-13.0,-13.0,-7.0,-3.0,-2.0,1651071756636257.0,1
340,-1.0,4.0,4.0,11.0,-5.0,-5.0,0.0,0.0,1651071756636600.0,1
341,-2.0,-12.0,-10.0,-9.0,-4.0,-5.0,0.0,-1.0,1651071756636600.0,1
342,-2.0,-2.0,-4.0,0.0,3.0,6.0,1.0,-1.0,1651071756657699.0,1
343,-3.0,-4.0,-1.0,-1.0,-1.0,0.0,0.0,-3.0,1651071756657699.0,1
344,2.0,1.0,0.0,1.0,-5.0,-11.0,-1.0,1.0,1651071756665676.0,1
345,-1.0,3.0,9.0,0.0,-3.0,9.0,-3.0,-3.0,1651071756665676.0,1
346,0.0,2.0,-6.0,-3.0,3.0,1.0,-2.0,0.0,1651071756681763.0,1
347,-2.0,-5.0,-3.0,-14.0,-11.0,-4.0,1.0,-1.0,1651071756681763.0,1
348,1.0,3.0,11.0,17.0,4.0,3.0,1.0,-1.0,1651071756682727.0,1
349,1.0,0.0,9.0,24.0,1.0,-4.0,2.0,4.0,1651071756682727.0,1
350,-2.0,-5.0,-12.0,-15.0,-14.0,-5.0,-10.0,-6.0,1651071756695762.0,1
351,1.0,11.0,34.0,9.0,15.0,6.0,1.0,2.0,1651071756695762.0,1
352,-2.0,-4.0,-37.0,-35.0,-3.0,-3.0,0.0,0.0,1651071756696693.0,1
353,-4.0,-11.0,6.0,26.0,-2.0,0.0,-2.0,-4.0,1651071756696693.0,1
354,-4.0,4.0,15.0,31.0,4.0,-4.0,-3.0,-3.0,1651071756718664.0,1
355,-2.0,-14.0,-14.0,-21.0,-15.0,-6.0,-3.0,-2.0,1651071756718664.0,1
356,3.0,8.0,17.0,-6.0,6.0,3.0,-1.0,1.0,1651071756718664.0,1
357,0.0,4.0,-7.0,-16.0,-2.0,-2.0,2.0,3.0,1651071756718664.0,1
358,-1.0,0.0,-8.0,-2.0,9.0,7.0,-2.0,-1.0,1651071756740393.0,1
359,-1.0,4.0,-7.0,1.0,-4.0,0.0,1.0,-1.0,1651071756740393.0,1
360,-1.0,-7.0,8.0,3.0,-11.0,-4.0,-4.0,-1.0,1651071756748371.0,1
361,2.0,0.0,-9.0,0.0,6.0,-8.0,-2.0,-2.0,1651071756748371.0,1
362,1.0,-2.0,1.0,-6.0,-7.0,0.0,7.0,3.0,1651071756755355.0,1
363,1.0,6.0,7.0,7.0,6.0,12.0,1.0,0.0,1651071756755355.0,1
364,-4.0,-11.0,-18.0,7.0,3.0,-1.0,1.0,-1.0,1651071756763708.0,1
365,0.0,10.0,18.0,-10.0,-5.0,2.0,0.0,0.0,1651071756763708.0,1
366,-1.0,-11.0,-25.0,14.0,11.0,-9.0,-1.0,0.0,1651071756778261.0,1
367,-3.0,-7.0,-15.0,-10.0,-1.0,-5.0,-4.0,-3.0,1651071756778261.0,1
368,-2.0,2.0,13.0,-1.0,-9.0,1.0,-1.0,1.0,1651071756779191.0,1
369,-3.0,2.0,-1.0,1.0,-10.0,-6.0,-5.0,-4.0,1651071756779191.0,1
370,3.0,6.0,11.0,-13.0,-2.0,0.0,4.0,0.0,1651071756801299.0,1
371,-1.0,-4.0,-24.0,-6.0,-2.0,4.0,3.0,3.0,1651071756801299.0,1
372,-2.0,-3.0,20.0,29.0,7.0,-3.0,-5.0,-5.0,1651071756802323.0,1
373,2.0,4.0,0.0,-18.0,-4.0,4.0,4.0,2.0,1651071756802323.0,1
374,0.0,-7.0,-8.0,22.0,9.0,0.0,-4.0,-1.0,1651071756814899.0,1
375,-1.0,-6.0,-9.0,-29.0,-8.0,1.0,-1.0,-2.0,1651071756814899.0,1
376,-2.0,4.0,-2.0,-12.0,-7.0,-12.0,-4.0,-2.0,1651071756823466.0,1
377,-2.0,-5.0,-11.0,-11.0,3.0,3.0,0.0,-1.0,1651071756823466.0,1
378,-2.0,4.0,3.0,5.0,5.0,15.0,1.0,2.0,1651071756838429.0,1
379,1.0,5.0,2.0,-2.0,-10.0,-8.0,-1.0,-1.0,1651071756838429.0,1
380,0.0,0.0,8.0,12.0,17.0,5.0,0.0,0.0,1651071756839426.0,1
381,1.0,-8.0,-12.0,-2.0,-5.0,-6.0,-1.0,-1.0,1651071756839426.0,1
382,4.0,6.0,6.0,-8.0,-6.0,-3.0,0.0,0.0,1651071756861667.0,1
383,0.0,1.0,-4.0,7.0,5.0,1.0,-3.0,-2.0,1651071756861667.0,1
384,3.0,3.0,-3.0,-12.0,-4.0,-6.0,1.0,2.0,1651071756862602.0,1
385,-4.0,-2.0,9.0,18.0,2.0,0.0,-2.0,-3.0,1651071756862602.0,1
386,0.0,0.0,-6.0,-13.0,-5.0,-3.0,0.0,-1.0,1651071756883725.0,1
387,-3.0,2.0,14.0,0.0,-5.0,-1.0,-1.0,1.0,1651071756883725.0,1
388,-1.0,-4.0,-9.0,-5.0,-1.0,-1.0,-3.0,-3.0,1651071756884655.0,1
389,1.0,-2.0,-1.0,-8.0,-10.0,-4.0,-2.0,1.0,1651071756884655.0,1
390,-2.0,1.0,-7.0,23.0,12.0,7.0,0.0,0.0,1651071756898685.0,1
391,2.0,3.0,-13.0,-18.0,5.0,0.0,4.0,3.0,1651071756898685.0,1
392,-2.0,-5.0,1.0,-10.0,1.0,1.0,-3.0,-6.0,1651071756898685.0,1
393,-2.0,-7.0,-3.0,-9.0,-11.0,-6.0,-2.0,1.0,1651071756898685.0,1
394,-2.0,-2.0,16.0,16.0,-12.0,-11.0,-5.0,-2.0,1651071756921644.0,1
395,2.0,8.0,5.0,8.0,1.0,3.0,0.0,-1.0,1651071756921644.0,1
396,1.0,3.0,9.0,19.0,16.0,7.0,6.0,3.0,1651071756922575.0,1
397,1.0,1.0,-11.0,-2.0,-11.0,-5.0,-2.0,-1.0,1651071756922575.0,1
398,4.0,0.0,7.0,-29.0,-6.0,-3.0,1.0,2.0,1651071756943781.0,1
399,-2.0,-1.0,1.0,1.0,0.0,5.0,-3.0,-3.0,1651071756943781.0,1
400,0.0,-8.0,-17.0,-10.0,0.0,3.0,1.0,3.0,1651071756944752.0,1
401,-1.0,5.0,10.0,23.0,15.0,-2.0,0.0,-4.0,1651071756944752.0,1
402,1.0,4.0,6.0,-4.0,-1.0,10.0,3.0,2.0,1651071756958816.0,1
403,0.0,-6.0,-4.0,6.0,1.0,-4.0,0.0,-1.0,1651071756958816.0,1
404,-1.0,1.0,-8.0,-12.0,-15.0,-5.0,0.0,-1.0,1651071756958816.0,1
405,-1.0,-3.0,4.0,-2.0,3.0,-6.0,-4.0,-2.0,1651071756958816.0,1
406,1.0,5.0,-1.0,-4.0,5.0,6.0,8.0,4.0,1651071756982015.0,1
407,-2.0,-2.0,1.0,1.0,-8.0,-5.0,-2.0,-2.0,1651071756982015.0,1
408,2.0,4.0,-2.0,0.0,-6.0,0.0,-1.0,-1.0,1651071756982015.0,1
409,-2.0,1.0,22.0,17.0,12.0,5.0,3.0,1.0,1651071756982015.0,1
410,-2.0,-13.0,-21.0,29.0,12.0,-1.0,-2.0,-2.0,1651071756995116.0,1
411,-1.0,3.0,14.0,-1.0,1.0,2.0,-1.0,0.0,1651071756995116.0,1
412,0.0,-7.0,-6.0,-10.0,-4.0,-4.0,-1.0,0.0,1651071757003756.0,1
413,1.0,5.0,-1.0,-15.0,-12.0,3.0,1.0,1.0,1651071757003756.0,1
414,0.0,-4.0,-11.0,-23.0,2.0,-3.0,-4.0,-1.0,1651071757018227.0,1
415,0.0,-1.0,12.0,15.0,8.0,0.0,-1.0,-1.0,1651071757018227.0,1
416,-1.0,6.0,21.0,17.0,4.0,1.0,-2.0,-4.0,1651071757019158.0,1
417,0.0,-4.0,-15.0,-11.0,8.0,5.0,1.0,1.0,1651071757019158.0,1
418,-2.0,-3.0,1.0,-9.0,-20.0,-8.0,-4.0,-2.0,1651071757041685.0,1
419,-2.0,-2.0,-15.0,-8.0,5.0,-7.0,0.0,-1.0,1651071757041685.0,1
420,-3.0,0.0,9.0,-3.0,2.0,7.0,0.0,0.0,1651071757042685.0,1
421,0.0,6.0,1.0,5.0,-7.0,-1.0,-1.0,-2.0,1651071757042685.0,1
422,0.0,-1.0,-5.0,0.0,3.0,7.0,4.0,0.0,1651071757055652.0,1
423,0.0,-6.0,1.0,21.0,7.0,0.0,1.0,3.0,1651071757055652.0,1
424,-1.0,1.0,-5.0,-17.0,-1.0,-2.0,1.0,0.0,1651071757063629.0,1
425,-2.0,-5.0,-22.0,0.0,-4.0,0.0,-3.0,-3.0,1651071757063629.0,1
426,-3.0,-2.0,2.0,-15.0,-23.0,-10.0,-5.0,-2.0,1651071757078708.0,1
427,0.0,3.0,1.0,7.0,16.0,4.0,-2.0,-3.0,1651071757078708.0,1
428,-2.0,1.0,7.0,8.0,7.0,4.0,1.0,-2.0,1651071757078708.0,1
429,0.0,1.0,-11.0,-8.0,2.0,2.0,0.0,1.0,1651071757078708.0,1
430,-1.0,-5.0,-13.0,-14.0,-18.0,-14.0,-3.0,-3.0,1651071757101257.0,1
431,1.0,2.0,9.0,12.0,6.0,4.0,0.0,3.0,1651071757101257.0,1
432,2.0,-2.0,-13.0,0.0,5.0,5.0,3.0,2.0,1651071757102197.0,1
433,1.0,3.0,3.0,-19.0,-3.0,2.0,1.0,-2.0,1651071757102197.0,1
434,-2.0,9.0,24.0,10.0,2.0,-3.0,0.0,0.0,1651071757124202.0,1
435,0.0,-13.0,-21.0,12.0,-12.0,-18.0,-3.0,-1.0,1651071757124202.0,1
436,-1.0,-2.0,8.0,2.0,-5.0,8.0,2.0,-3.0,1651071757125229.0,1
437,1.0,-4.0,-23.0,8.0,27.0,12.0,2.0,1.0,1651071757125229.0,1
438,-1.0,-1.0,-11.0,-24.0,-9.0,-3.0,-2.0,-2.0,1651071757138194.0,1
439,1.0,4.0,3.0,-21.0,3.0,4.0,1.0,0.0,1651071757138194.0,1
440,1.0,2.0,1.0,3.0,-4.0,-8.0,-1.0,-1.0,1651071757139165.0,1
441,-4.0,-3.0,2.0,9.0,2.0,-2.0,-2.0,-3.0,1651071757139165.0,1
442,-1.0,-2.0,1.0,4.0,2.0,0.0,1.0,1.0,1651071757161469.0,1
443,-1.0,2.0,2.0,-8.0,-8.0,-4.0,-2.0,-2.0,1651071757161469.0,1
444,1.0,-1.0,-14.0,-13.0,-16.0,-6.0,1.0,2.0,1651071757162482.0,1
445,-1.0,4.0,10.0,5.0,27.0,10.0,0.0,-1.0,1651071757162482.0,1
446,-1.0,-5.0,6.0,15.0,2.0,-4.0,-1.0,-2.0,1651071757184444.0,1
447,1.0,5.0,6.0,8.0,8.0,7.0,5.0,2.0,1651071757184444.0,1
448,-1.0,-7.0,-5.0,-15.0,-12.0,-10.0,-5.0,-4.0,1651071757184444.0,1
449,-1.0,-3.0,10.0,9.0,0.0,3.0,2.0,2.0,1651071757184444.0,1
450,1.0,6.0,3.0,9.0,1.0,5.0,2.0,2.0,1651071757198495.0,1
451,-1.0,-4.0,6.0,4.0,14.0,6.0,0.0,-1.0,1651071757198495.0,1
452,-4.0,2.0,14.0,22.0,1.0,-7.0,-4.0,-2.0,1651071757199454.0,1
453,-3.0,-2.0,-8.0,-29.0,-24.0,-12.0,-1.0,-2.0,1651071757199454.0,1
454,0.0,-1.0,-17.0,-5.0,-4.0,1.0,1.0,1.0,1651071757222430.0,1
455,-2.0,0.0,16.0,4.0,-3.0,3.0,1.0,-1.0,1651071757222430.0,1
456,-1.0,-1.0,-12.0,-1.0,7.0,-1.0,0.0,0.0,1651071757222430.0,1
457,1.0,1.0,11.0,11.0,4.0,-2.0,-1.0,0.0,1651071757222430.0,1
458,1.0,7.0,14.0,4.0,12.0,6.0,-1.0,-1.0,1651071757244171.0,1
459,-1.0,-8.0,-26.0,-12.0,-16.0,-11.0,-2.0,-3.0,1651071757244171.0,1
460,1.0,0.0,-8.0,-3.0,0.0,1.0,1.0,3.0,1651071757245171.0,1
461,-2.0,-3.0,10.0,22.0,2.0,4.0,-1.0,-2.0,1651071757245171.0,1
462,-1.0,-4.0,-12.0,-22.0,-6.0,-4.0,0.0,-1.0,1651071757258202.0,1
463,-1.0,4.0,0.0,-1.0,-2.0,0.0,-1.0,-2.0,1651071757258202.0,1
464,-1.0,-2.0,3.0,-4.0,-6.0,-3.0,-3.0,-1.0,1651071757259133.0,1
465,1.0,3.0,3.0,10.0,-9.0,-4.0,0.0,-1.0,1651071757259133.0,1
466,0.0,-1.0,1.0,-10.0,-2.0,1.0,1.0,2.0,1651071757281165.0,1
467,-1.0,4.0,-10.0,-4.0,-8.0,-2.0,0.0,0.0,1651071757281165.0,1
468,0.0,0.0,7.0,-4.0,10.0,5.0,0.0,-2.0,1651071757282177.0,1
469,-4.0,-7.0,-7.0,-9.0,-6.0,-10.0,-7.0,-5.0,1651071757282177.0,1
470,1.0,1.0,4.0,18.0,-7.0,-2.0,-1.0,-1.0,1651071757304159.0,1
471,2.0,2.0,14.0,7.0,17.0,8.0,4.0,2.0,1651071757304159.0,1
472,2.0,9.0,-22.0,-8.0,-3.0,2.0,3.0,2.0,1651071757305130.0,1
473,0.0,-7.0,7.0,-5.0,-6.0,-5.0,-4.0,-1.0,1651071757305130.0,1
474,1.0,-1.0,-2.0,-8.0,-9.0,-4.0,-1.0,-2.0,1651071757318136.0,1
475,-1.0,-1.0,0.0,-3.0,-5.0,4.0,-1.0,-1.0,1651071757318136.0,1
476,0.0,1.0,7.0,11.0,6.0,4.0,2.0,0.0,1651071757319077.0,1
477,1.0,5.0,-10.0,-16.0,-1.0,-3.0,4.0,2.0,1651071757319077.0,1
478,-3.0,-6.0,3.0,25.0,13.0,4.0,-1.0,-2.0,1651071757341036.0,1
479,-2.0,0.0,-1.0,-9.0,-9.0,-3.0,0.0,0.0,1651071757341036.0,1
480,0.0,-2.0,-3.0,-10.0,10.0,-4.0,0.0,0.0,1651071757342015.0,1
481,1.0,1.0,4.0,4.0,-9.0,7.0,1.0,0.0,1651071757342015.0,1
482,-1.0,-4.0,-7.0,-5.0,2.0,-12.0,-3.0,-2.0,1651071757363664.0,1
483,-1.0,-1.0,0.0,2.0,-4.0,8.0,-1.0,-1.0,1651071757363664.0,1
484,-1.0,-4.0,2.0,-2.0,-5.0,2.0,0.0,1.0,1651071757364636.0,1
485,0.0,4.0,1.0,-8.0,-13.0,-8.0,-5.0,-2.0,1651071757364636.0,1
486,0.0,-1.0,20.0,13.0,24.0,10.0,2.0,1.0,1651071757378626.0,1
487,-1.0,0.0,-26.0,-9.0,-21.0,-17.0,-2.0,-2.0,1651071757378626.0,1
488,-2.0,-7.0,-13.0,-22.0,-6.0,2.0,-2.0,-1.0,1651071757378626.0,1
489,0.0,2.0,1.0,33.0,17.0,5.0,0.0,0.0,1651071757378626.0,1
490,0.0,-1.0,14.0,2.0,-4.0,-2.0,-4.0,-2.0,1651071757401563.0,1
491,-2.0,-4.0,-2.0,-17.0,-3.0,-2.0,0.0,-1.0,1651071757401563.0,1
492,-1.0,-2.0,-5.0,2.0,-11.0,-3.0,-2.0,-3.0,1651071757402561.0,1
493,-1.0,2.0,-2.0,-11.0,-2.0,-9.0,0.0,1.0,1651071757402561.0,1
494,-1.0,3.0,-9.0,-6.0,3.0,10.0,-1.0,-2.0,1651071757423507.0,1
495,-1.0,-4.0,-1.0,-4.0,3.0,-2.0,-1.0,-1.0,1651071757423507.0,1
496,-1.0,-1.0,3.0,18.0,7.0,1.0,-1.0,-1.0,1651071757424481.0,1
497,0.0,-3.0,-5.0,-4.0,-2.0,-3.0,0.0,-2.0,1651071757424481.0,1
498,0.0,0.0,-5.0,-9.0,-11.0,-10.0,2.0,-1.0,1651071757438504.0,1
499,0.0,-1.0,2.0,3.0,6.0,8.0,-2.0,-1.0,1651071757438504.0,1
500,2.0,3.0,11.0,3.0,7.0,3.0,-1.0,0.0,1651071757439467.0,1
501,0.0,-4.0,-9.0,-12.0,-1.0,0.0,2.0,1.0,1651071757439467.0,1
502,-1.0,2.0,0.0,14.0,3.0,-1.0,0.0,-1.0,1651071757461724.0,1
503,0.0,-1.0,1.0,-15.0,-11.0,-5.0,-2.0,0.0,1651071757461724.0,1
504,-2.0,-1.0,2.0,-1.0,-8.0,-12.0,-4.0,-1.0,1651071757462687.0,1
505,-1.0,0.0,2.0,7.0,4.0,7.0,-1.0,0.0,1651071757462687.0,1
506,-2.0,-1.0,-6.0,-9.0,4.0,5.0,1.0,0.0,1651071757484212.0,1
507,0.0,1.0,3.0,9.0,4.0,2.0,1.0,2.0,1651071757484212.0,1
508,1.0,1.0,1.0,1.0,-5.0,-2.0,-1.0,-2.0,1651071757485226.0,1
509,-1.0,-3.0,-4.0,-5.0,2.0,-6.0,1.0,-1.0,1651071757485226.0,1
510,-1.0,1.0,-4.0,-5.0,-2.0,1.0,0.0,-1.0,1651071757499234.0,1
511,-3.0,0.0,2.0,5.0,5.0,4.0,-2.0,-1.0,1651071757499234.0,1
512,-2.0,-1.0,5.0,10.0,-7.0,-6.0,2.0,-1.0,1651071757499234.0,1
513,-2.0,-3.0,-7.0,-10.0,3.0,5.0,-2.0,0.0,1651071757499234.0,1
514,2.0,-1.0,0.0,12.0,4.0,-1.0,-1.0,1.0,1651071757522613.0,1
515,1.0,0.0,-3.0,-7.0,-4.0,-4.0,-3.0,-2.0,1651071757522613.0,1
516,0.0,1.0,4.0,3.0,0.0,-1.0,-6.0,-3.0,1651071757522613.0,1
517,0.0,-1.0,-1.0,-7.0,-15.0,-13.0,-1.0,-1.0,1651071757522613.0,1
518,0.0,-2.0,-6.0,-16.0,-3.0,10.0,-4.0,1.0,1651071757544238.0,1
519,0.0,0.0,3.0,9.0,2.0,-3.0,-2.0,-2.0,1651071757544238.0,1
520,2.0,1.0,-2.0,2.0,13.0,12.0,-1.0,2.0,1651071757545229.0,1
521,0.0,2.0,2.0,20.0,7.0,-2.0,5.0,-1.0,1651071757545229.0,1
522,4.0,4.0,-3.0,-24.0,-8.0,-4.0,-3.0,0.0,1651071757558261.0,1
523,3.0,6.0,5.0,7.0,-16.0,-7.0,18.0,8.0,1651071757558261.0,1
524,-5.0,-9.0,-5.0,-3.0,2.0,9.0,1.0,2.0,1651071757559192.0,1
525,1.0,1.0,1.0,-4.0,9.0,8.0,-1.0,-1.0,1651071757559192.0,1
526,2.0,-1.0,-1.0,10.0,-1.0,-6.0,-4.0,-4.0,1651071757581286.0,1
527,-1.0,0.0,0.0,-4.0,8.0,-5.0,-12.0,-3.0,1651071757581286.0,1
528,0.0,2.0,1.0,3.0,4.0,0.0,3.0,0.0,1651071757582293.0,1
529,2.0,0.0,2.0,0.0,-6.0,1.0,2.0,-2.0,1651071757582293.0,1
530,-3.0,-1.0,0.0,10.0,0.0,-1.0,1.0,0.0,1651071757604386.0,1
531,0.0,3.0,-4.0,-10.0,-4.0,-1.0,-1.0,1.0,1651071757604386.0,1
532,-2.0,-2.0,-6.0,-1.0,-3.0,-9.0,0.0,-1.0,1651071757604386.0,1
533,-2.0,-9.0,-2.0,-4.0,0.0,6.0,-3.0,0.0,1651071757604386.0,1
534,0.0,-1.0,10.0,-6.0,3.0,1.0,1.0,-1.0,1651071757618413.0,1
535,0.0,-4.0,16.0,22.0,2.0,0.0,-2.0,-2.0,1651071757618413.0,1
536,2.0,2.0,-1.0,5.0,-1.0,-4.0,-1.0,-1.0,1651071757619339.0,1
537,0.0,6.0,17.0,13.0,-2.0,-3.0,-2.0,-1.0,1651071757619339.0,1
538,-3.0,-8.0,-38.0,-20.0,0.0,-4.0,2.0,1.0,1651071757641520.0,1
539,0.0,1.0,3.0,8.0,1.0,1.0,0.0,-1.0,1651071757641520.0,1
540,1.0,3.0,17.0,-9.0,-3.0,4.0,2.0,-1.0,1651071757642451.0,1
541,1.0,0.0,-14.0,-7.0,-9.0,-8.0,-3.0,-1.0,1651071757642451.0,1
542,-2.0,-11.0,-2.0,0.0,1.0,2.0,0.0,-1.0,1651071757664402.0,1
543,-1.0,-5.0,-8.0,0.0,3.0,-1.0,-4.0,-1.0,1651071757664402.0,1
544,-4.0,0.0,34.0,11.0,-2.0,-8.0,-4.0,-1.0,1651071757664402.0,1
545,4.0,2.0,-25.0,1.0,0.0,5.0,-1.0,1.0,1651071757664402.0,1
546,-1.0,-4.0,3.0,-1.0,-6.0,-2.0,2.0,-1.0,1651071757677425.0,1
547,-1.0,-2.0,0.0,-11.0,2.0,3.0,1.0,-1.0,1651071757677425.0,1
548,3.0,-1.0,-14.0,-4.0,0.0,1.0,-1.0,1.0,1651071757686342.0,1
549,-3.0,4.0,13.0,-2.0,-1.0,-5.0,-1.0,-1.0,1651071757686342.0,1
550,-1.0,4.0,12.0,18.0,-1.0,-1.0,-1.0,-1.0,1651071757701470.0,1
551,-1.0,0.0,1.0,4.0,1.0,-3.0,-2.0,-2.0,1651071757701470.0,1
552,0.0,-2.0,-17.0,-27.0,0.0,3.0,4.0,-1.0,1651071757702406.0,1
553,-2.0,-6.0,-13.0,-18.0,-11.0,-4.0,-1.0,-2.0,1651071757702406.0,1
554,-1.0,4.0,4.0,2.0,7.0,6.0,1.0,-1.0,1651071757724197.0,1
555,-1.0,0.0,13.0,5.0,0.0,0.0,-1.0,0.0,1651071757724197.0,1
556,-3.0,-3.0,-18.0,7.0,1.0,-5.0,1.0,-3.0,1651071757725224.0,1
557,-1.0,-2.0,-1.0,-14.0,-6.0,-13.0,-3.0,1.0,1651071757725224.0,1
558,0.0,8.0,1.0,1.0,-4.0,13.0,0.0,1.0,1651071757737990.0,1
559,0.0,-4.0,-7.0,2.0,-2.0,0.0,2.0,0.0,1651071757737990.0,1
560,-1.0,-1.0,13.0,-6.0,7.0,4.0,-2.0,1.0,1651071757746152.0,1
561,-2.0,1.0,2.0,17.0,1.0,2.0,0.0,-1.0,1651071757746152.0,1
562,-2.0,0.0,4.0,-11.0,-7.0,-12.0,-3.0,-1.0,1651071757761983.0,1
563,0.0,-3.0,-19.0,-6.0,0.0,2.0,-2.0,0.0,1651071757761983.0,1
564,1.0,16.0,19.0,11.0,-4.0,-1.0,-3.0,0.0,1651071757761983.0,1
565,2.0,-9.0,-6.0,-7.0,3.0,1.0,0.0,0.0,1651071757761983.0,1
566,-3.0,-7.0,6.0,13.0,-1.0,-5.0,0.0,-2.0,1651071757783464.0,1
567,-1.0,2.0,-6.0,-15.0,-2.0,-1.0,1.0,-2.0,1651071757783464.0,1
568,0.0,5.0,7.0,-3.0,0.0,0.0,0.0,-1.0,1651071757784464.0,1
569,0.0,8.0,20.0,15.0,9.0,7.0,0.0,1.0,1651071757784464.0,1
570,2.0,-3.0,1.0,5.0,-2.0,-3.0,-4.0,0.0,1651071757797488.0,1
571,-2.0,1.0,-2.0,-18.0,-6.0,2.0,0.0,0.0,1651071757797488.0,1
572,-1.0,-12.0,-29.0,5.0,-8.0,-6.0,-2.0,-1.0,1651071757806406.0,1
573,-2.0,-2.0,-8.0,-21.0,2.0,1.0,0.0,0.0,1651071757806406.0,1
574,0.0,-3.0,-2.0,19.0,1.0,3.0,0.0,0.0,1651071757821365.0,1
575,0.0,4.0,15.0,1.0,1.0,-3.0,-2.0,-1.0,1651071757821365.0,1
576,-1.0,-5.0,-9.0,9.0,1.0,2.0,-2.0,0.0,1651071757822363.0,1
577,2.0,3.0,5.0,-3.0,-1.0,0.0,0.0,0.0,1651071757822363.0,1
578,-1.0,7.0,-15.0,-19.0,0.0,-7.0,-2.0,0.0,1651071757844146.0,1
579,-3.0,-1.0,3.0,5.0,-3.0,0.0,0.0,0.0,1651071757844146.0,1
580,0.0,-9.0,-10.0,-9.0,1.0,5.0,2.0,-1.0,1651071757844810.0,1
581,-3.0,-2.0,3.0,8.0,-1.0,4.0,1.0,-2.0,1651071757844810.0,1
582,0.0,7.0,14.0,4.0,2.0,-3.0,0.0,-1.0,1651071757857845.0,1
583,-2.0,-1.0,-35.0,-11.0,-2.0,-4.0,-2.0,-3.0,1651071757857845.0,1
584,0.0,3.0,24.0,2.0,-5.0,-7.0,-2.0,-1.0,1651071757865757.0,1
585,-3.0,-11.0,-20.0,-1.0,-6.0,-3.0,-1.0,-2.0,1651071757865757.0,1
586,1.0,-6.0,-14.0,-15.0,0.0,2.0,1.0,0.0,1651071757888896.0,1
587,-2.0,1.0,13.0,8.0,1.0,-1.0,0.0,0.0,1651071757888896.0,1
588,-1.0,-5.0,-12.0,8.0,3.0,4.0,-1.0,2.0,1651071757889901.0,1
589,1.0,-1.0,12.0,-4.0,-1.0,-2.0,0.0,0.0,1651071757889901.0,1
590,2.0,10.0,4.0,1.0,-1.0,-5.0,1.0,1.0,1651071757904044.0,1
591,-1.0,-6.0,5.0,-4.0,2.0,3.0,-1.0,1.0,1651071757904044.0,1
592,-2.0,-12.0,-42.0,-13.0,-7.0,-4.0,-5.0,-2.0,1651071757905041.0,1
593,0.0,7.0,16.0,1.0,1.0,2.0,-2.0,-1.0,1651071757905041.0,1
594,-1.0,-8.0,-25.0,-1.0,0.0,-1.0,2.0,0.0,1651071757918066.0,1
595,1.0,0.0,-8.0,-11.0,-6.0,2.0,1.0,1.0,1651071757918066.0,1
596,2.0,14.0,22.0,16.0,7.0,-2.0,-1.0,-2.0,1651071757926283.0,1
597,-4.0,-7.0,-11.0,2.0,-5.0,-3.0,0.0,-3.0,1651071757926283.0,1
598,-1.0,1.0,11.0,-1.0,1.0,6.0,1.0,0.0,1651071757942034.0,1
599,1.0,0.0,0.0,0.0,-1.0,-8.0,0.0,1.0,1651071757942034.0,1
600,0.0,0.0,-4.0,-2.0,3.0,6.0,0.0,0.0,1651071757942034.0,1
601,0.0,4.0,2.0,-1.0,-2.0,-2.0,-1.0,1.0,1651071757942034.0,1
602,-1.0,-2.0,11.0,-3.0,-8.0,-2.0,-2.0,-2.0,1651071757964100.0,1
603,-2.0,-4.0,1.0,-12.0,3.0,-10.0,-1.0,-2.0,1651071757964100.0,1
604,0.0,5.0,4.0,14.0,-2.0,9.0,1.0,1.0,1651071757965100.0,1
605,0.0,0.0,5.0,2.0,1.0,0.0,0.0,0.0,1651071757965100.0,1
606,-2.0,-3.0,-4.0,6.0,-1.0,-3.0,-2.0,-1.0,1651071757978202.0,1
607,1.0,3.0,-9.0,-6.0,4.0,2.0,-1.0,0.0,1651071757978202.0,1
608,-1.0,1.0,5.0,-7.0,1.0,-5.0,-2.0,-2.0,1651071757986219.0,1
609,0.0,-3.0,-1.0,3.0,2.0,-6.0,-2.0,-1.0,1651071757986219.0,1
610,0.0,3.0,6.0,10.0,-1.0,11.0,2.0,2.0,1651071758001969.0,1
611,0.0,2.0,1.0,7.0,-5.0,-2.0,0.0,0.0,1651071758001969.0,1
612,-1.0,-1.0,5.0,-1.0,0.0,-4.0,1.0,1.0,1651071758001969.0,1
613,-1.0,-3.0,-10.0,7.0,3.0,8.0,1.0,2.0,1651071758001969.0,1
614,-3.0,-14.0,-12.0,-4.0,0.0,-9.0,-3.0,-2.0,1651071758031213.0,1
615,-3.0,-4.0,1.0,-3.0,-4.0,0.0,-2.0,-1.0,1651071758031213.0,1
616,0.0,0.0,-6.0,-9.0,-2.0,-1.0,2.0,0.0,1651071758032144.0,1
617,0.0,1.0,5.0,-8.0,-5.0,1.0,0.0,0.0,1651071758032144.0,1
618,-2.0,-14.0,-8.0,-2.0,-3.0,-2.0,1.0,-3.0,1651071758054166.0,1
619,0.0,3.0,-12.0,6.0,2.0,2.0,-1.0,-2.0,1651071758054166.0,1
620,-2.0,-5.0,-6.0,-10.0,-1.0,-1.0,-2.0,0.0,1651071758055163.0,1
621,0.0,5.0,4.0,-3.0,0.0,1.0,-1.0,0.0,1651071758055163.0,1
622,0.0,8.0,2.0,-8.0,-3.0,3.0,-1.0,0.0,1651071758061150.0,1
623,-1.0,-5.0,13.0,32.0,4.0,-1.0,-2.0,-1.0,1651071758061150.0,1
624,-1.0,1.0,4.0,-6.0,4.0,-4.0,0.0,1.0,1651071758062147.0,1
625,-3.0,-6.0,12.0,6.0,-3.0,-1.0,-2.0,-1.0,1651071758062147.0,1
626,0.0,-2.0,-30.0,-16.0,1.0,2.0,3.0,1.0,1651071758084148.0,1
627,1.0,0.0,-8.0,-5.0,1.0,-6.0,1.0,0.0,1651071758084148.0,1
628,-1.0,2.0,12.0,-9.0,-4.0,8.0,-1.0,-3.0,1651071758085178.0,1
629,0.0,-8.0,-10.0,17.0,-2.0,-8.0,-1.0,-1.0,1651071758085178.0,1
630,0.0,3.0,7.0,-17.0,0.0,-3.0,-4.0,1.0,1651071758106239.0,1
631,-2.0,-2.0,4.0,4.0,-2.0,8.0,3.0,0.0,1651071758106239.0,1
632,0.0,5.0,-8.0,-4.0,5.0,0.0,-1.0,-1.0,1651071758107182.0,1
633,0.0,2.0,-3.0,2.0,-3.0,-1.0,3.0,0.0,1651071758107182.0,1
634,-1.0,3.0,7.0,17.0,-1.0,-5.0,-3.0,-3.0,1651071758121200.0,1
635,0.0,0.0,8.0,-6.0,0.0,-1.0,-1.0,-1.0,1651071758121200.0,1
636,1.0,0.0,-2.0,-13.0,-12.0,-2.0,-1.0,0.0,1651071758122132.0,1
637,0.0,3.0,0.0,10.0,4.0,-1.0,0.0,-1.0,1651071758122132.0,1
638,0.0,1.0,-4.0,2.0,3.0,5.0,2.0,0.0,1651071758144145.0,1
639,0.0,-5.0,-2.0,-3.0,4.0,3.0,-2.0,0.0,1651071758144145.0,1
640,0.0,-4.0,-5.0,5.0,-10.0,-6.0,0.0,-2.0,1651071758145178.0,1
641,1.0,2.0,-5.0,-12.0,-1.0,-2.0,-3.0,-1.0,1651071758145178.0,1
642,1.0,12.0,19.0,-1.0,6.0,-6.0,-1.0,0.0,1651071758166360.0,1
643,0.0,-1.0,-17.0,4.0,-4.0,13.0,2.0,-1.0,1651071758166360.0,1
644,-3.0,-8.0,-3.0,14.0,9.0,-2.0,-1.0,0.0,1651071758168361.0,1
645,-1.0,2.0,0.0,-13.0,-7.0,0.0,-1.0,-1.0,1651071758168361.0,1
646,0.0,5.0,11.0,11.0,3.0,-2.0,-1.0,1.0,1651071758181253.0,1
647,-2.0,-1.0,6.0,-6.0,-4.0,-6.0,-3.0,-1.0,1651071758181253.0,1
648,0.0,-2.0,0.0,9.0,-3.0,-4.0,2.0,0.0,1651071758181373.0,1
649,0.0,3.0,-9.0,-11.0,4.0,7.0,-1.0,-1.0,1651071758181373.0,1
650,1.0,-4.0,-2.0,0.0,-5.0,1.0,0.0,1.0,1651071758203633.0,1
651,0.0,6.0,25.0,8.0,-2.0,-4.0,-1.0,0.0,1651071758203633.0,1
652,-3.0,-9.0,-11.0,-2.0,9.0,-2.0,-1.0,-3.0,1651071758204564.0,1
653,1.0,2.0,15.0,1.0,-1.0,4.0,-2.0,1.0,1651071758204564.0,1
654,0.0,-6.0,-3.0,-9.0,-5.0,2.0,0.0,-1.0,1651071758226671.0,1
655,1.0,9.0,-4.0,-4.0,-3.0,-1.0,2.0,0.0,1651071758226671.0,1
656,-2.0,-7.0,7.0,11.0,-1.0,0.0,0.0,-1.0,1651071758227675.0,1
657,-2.0,-9.0,-13.0,-16.0,-4.0,-5.0,0.0,-1.0,1651071758227675.0,1
658,-1.0,-4.0,3.0,13.0,-1.0,2.0,0.0,1.0,1651071758240667.0,1
659,-2.0,-1.0,2.0,6.0,6.0,3.0,-1.0,0.0,1651071758240667.0,1
660,0.0,3.0,8.0,1.0,-10.0,-7.0,-5.0,-2.0,1651071758248685.0,1
661,2.0,1.0,-11.0,-4.0,6.0,0.0,3.0,0.0,1651071758248685.0,1
662,-1.0,-3.0,-3.0,-12.0,-4.0,1.0,1.0,-1.0,1651071758263447.0,1
663,-3.0,-6.0,-2.0,7.0,-1.0,-2.0,-3.0,0.0,1651071758263447.0,1
664,1.0,1.0,-4.0,-11.0,-4.0,-1.0,-1.0,0.0,1651071758265464.0,1
665,-2.0,-1.0,1.0,6.0,0.0,-1.0,0.0,0.0,1651071758265464.0,1
666,0.0,1.0,-11.0,-6.0,0.0,-2.0,-1.0,-1.0,1651071758286578.0,1
667,0.0,-3.0,5.0,2.0,-5.0,-8.0,0.0,-1.0,1651071758286578.0,1
668,-2.0,0.0,-7.0,-14.0,5.0,8.0,-2.0,1.0,1651071758288506.0,1
669,0.0,1.0,5.0,23.0,2.0,1.0,-1.0,0.0,1651071758288506.0,1
670,-2.0,4.0,13.0,-14.0,-4.0,-2.0,-1.0,0.0,1651071758300541.0,1
671,-2.0,-4.0,-2.0,3.0,4.0,-4.0,-3.0,-3.0,1651071758300541.0,1
672,1.0,-1.0,-7.0,-1.0,-8.0,-3.0,-1.0,0.0,1651071758309450.0,1
673,-1.0,-1.0,6.0,-4.0,0.0,2.0,-1.0,0.0,1651071758309450.0,1
674,0.0,1.0,0.0,4.0,3.0,1.0,0.0,0.0,1651071758323413.0,1
675,1.0,3.0,1.0,-1.0,-4.0,-1.0,-1.0,0.0,1651071758323413.0,1
676,1.0,4.0,7.0,-5.0,0.0,-4.0,1.0,1.0,1651071758337441.0,1
677,-2.0,3.0,-1.0,6.0,0.0,9.0,-1.0,0.0,1651071758337441.0,1
678,-4.0,-16.0,-17.0,-6.0,1.0,-11.0,-2.0,-4.0,1651071758346539.0,1
679,0.0,1.0,0.0,12.0,8.0,15.0,0.0,1.0,1651071758346539.0,1
680,0.0,1.0,2.0,0.0,-1.0,-1.0,1.0,0.0,1651071758348495.0,1
681,-1.0,3.0,6.0,-1.0,0.0,0.0,2.0,0.0,1651071758348495.0,1
682,-1.0,1.0,-3.0,-1.0,0.0,-1.0,-2.0,-1.0,1651071758360502.0,1
683,1.0,-1.0,2.0,-16.0,-6.0,-4.0,0.0,-1.0,1651071758360502.0,1
684,-2.0,-5.0,-10.0,8.0,4.0,3.0,1.0,-1.0,1651071758369411.0,1
685,2.0,1.0,2.0,3.0,-4.0,-5.0,-2.0,-1.0,1651071758369411.0,1
686,0.0,1.0,5.0,1.0,3.0,7.0,0.0,1.0,1651071758384371.0,1
687,-1.0,0.0,0.0,-8.0,2.0,0.0,-1.0,0.0,1651071758384371.0,1
688,1.0,6.0,-15.0,-2.0,-2.0,3.0,-1.0,1.0,1651071758385374.0,1
689,-1.0,-10.0,2.0,-6.0,-12.0,-8.0,-2.0,-1.0,1651071758385374.0,1
690,0.0,2.0,8.0,9.0,6.0,-2.0,0.0,1.0,1651071758414095.0,1
691,1.0,-2.0,-8.0,-5.0,0.0,-5.0,0.0,-1.0,1651071758414095.0,1
692,-1.0,1.0,5.0,-3.0,5.0,11.0,2.0,-1.0,1651071758416023.0,1
693,2.0,2.0,-4.0,-8.0,1.0,0.0,0.0,-1.0,1651071758416023.0,1
694,1.0,1.0,0.0,0.0,-5.0,-1.0,-2.0,-3.0,1651071758420046.0,1
695,-1.0,0.0,3.0,1.0,-4.0,-2.0,0.0,-2.0,1651071758420046.0,1
696,-1.0,0.0,-3.0,0.0,-1.0,-3.0,-1.0,0.0,1651071758428988.0,1
697,-1.0,2.0,11.0,4.0,4.0,-1.0,-2.0,-1.0,1651071758428988.0,0
698,-2.0,-5.0,-19.0,-5.0,-7.0,5.0,-3.0,1.0,1651071758444171.0,0
699,-2.0,-11.0,-19.0,-20.0,-4.0,-6.0,-3.0,-1.0,1651071758444171.0,0
700,-3.0,-1.0,17.0,20.0,-14.0,-22.0,-5.0,-1.0,1651071758446097.0,0
701,0.0,0.0,-6.0,-2.0,22.0,27.0,5.0,-1.0,1651071758446097.0,2
702,-1.0,6.0,15.0,21.0,5.0,0.0,1.0,0.0,1651071758466600.0,2
703,1.0,5.0,-3.0,-8.0,4.0,5.0,0.0,1.0,1651071758466600.0,2
704,0.0,-7.0,-17.0,-15.0,-5.0,0.0,0.0,0.0,1651071758467633.0,2
705,0.0,-7.0,-22.0,-2.0,-10.0,-13.0,-4.0,0.0,1651071758467633.0,2
706,-1.0,-3.0,29.0,-2.0,-1.0,-2.0,0.0,1.0,1651071758480702.0,2
707,1.0,4.0,5.0,1.0,-5.0,2.0,2.0,1.0,1651071758480702.0,2
708,0.0,1.0,6.0,4.0,7.0,1.0,-1.0,-1.0,1651071758488750.0,2
709,1.0,1.0,-2.0,0.0,1.0,-1.0,-1.0,0.0,1651071758488750.0,2
710,2.0,1.0,-9.0,-13.0,1.0,-4.0,-3.0,-1.0,1651071758504442.0,2
711,-1.0,0.0,2.0,0.0,-2.0,5.0,2.0,-1.0,1651071758504442.0,2
712,0.0,4.0,1.0,4.0,4.0,2.0,0.0,-2.0,1651071758505451.0,2
713,-3.0,-2.0,2.0,-7.0,-5.0,-2.0,-2.0,-2.0,1651071758505451.0,2
714,-1.0,0.0,-6.0,-1.0,-6.0,-6.0,-3.0,-1.0,1651071758526738.0,2
715,0.0,-1.0,6.0,0.0,4.0,-2.0,-1.0,-1.0,1651071758526738.0,2
716,1.0,-1.0,2.0,-3.0,0.0,7.0,1.0,2.0,1651071758527699.0,2
717,-2.0,-1.0,0.0,2.0,-1.0,-5.0,-2.0,-2.0,1651071758527699.0,2
718,-1.0,1.0,-2.0,1.0,0.0,3.0,2.0,-2.0,1651071758540636.0,2
719,-1.0,0.0,-1.0,6.0,0.0,-1.0,-1.0,-1.0,1651071758540636.0,2
720,0.0,1.0,-12.0,-12.0,-8.0,1.0,1.0,-1.0,1651071758548717.0,2
721,-2.0,3.0,20.0,9.0,1.0,-7.0,-3.0,1.0,1651071758548717.0,2
722,-1.0,-1.0,0.0,2.0,4.0,2.0,-2.0,-2.0,1651071758563858.0,2
723,-1.0,-4.0,-6.0,14.0,-2.0,-1.0,1.0,0.0,1651071758563858.0,2
724,1.0,1.0,-1.0,-2.0,5.0,6.0,1.0,0.0,1651071758565855.0,2
725,1.0,3.0,-4.0,-7.0,-8.0,-4.0,1.0,-2.0,1651071758565855.0,2
726,1.0,0.0,-3.0,-4.0,-5.0,-2.0,-1.0,0.0,1651071758586467.0,2
727,0.0,5.0,6.0,0.0,-2.0,-2.0,-2.0,0.0,1651071758586467.0,2
728,-1.0,-4.0,-6.0,-16.0,1.0,-9.0,-1.0,0.0,1651071758588422.0,2
729,-3.0,-6.0,0.0,12.0,-1.0,12.0,0.0,0.0,1651071758588422.0,2
730,1.0,1.0,7.0,12.0,9.0,4.0,2.0,1.0,1651071758609470.0,2
731,1.0,-2.0,-7.0,-4.0,-4.0,-5.0,-1.0,-1.0,1651071758609470.0,2
732,-1.0,0.0,16.0,5.0,-9.0,-5.0,-1.0,0.0,1651071758610427.0,2
733,-1.0,-13.0,-42.0,-21.0,7.0,-3.0,-1.0,-2.0,1651071758610427.0,2
734,-1.0,-1.0,-6.0,4.0,3.0,6.0,2.0,0.0,1651071758624140.0,2
735,-1.0,0.0,5.0,-3.0,-4.0,-2.0,-1.0,0.0,1651071758624140.0,2
736,0.0,2.0,6.0,2.0,-3.0,-4.0,-2.0,-3.0,1651071758625963.0,2
737,0.0,2.0,13.0,7.0,-1.0,-5.0,0.0,-1.0,1651071758625963.0,2
738,-2.0,0.0,-3.0,-8.0,-5.0,0.0,-2.0,-1.0,1651071758647060.0,2
739,-2.0,-3.0,-8.0,-5.0,-9.0,-6.0,1.0,-1.0,1651071758647060.0,2
740,-1.0,1.0,0.0,8.0,16.0,11.0,2.0,2.0,1651071758648057.0,2
741,0.0,4.0,15.0,1.0,-1.0,2.0,-2.0,1.0,1651071758648057.0,2
742,-3.0,-7.0,-8.0,-6.0,-7.0,-4.0,-1.0,-1.0,1651071758660092.0,2
743,0.0,5.0,16.0,5.0,5.0,1.0,-1.0,0.0,1651071758660092.0,2
744,0.0,-6.0,-14.0,-4.0,-10.0,-6.0,-1.0,-2.0,1651071758669000.0,2
745,1.0,2.0,3.0,6.0,-2.0,-7.0,-1.0,0.0,1651071758669000.0,2
746,1.0,2.0,3.0,4.0,4.0,0.0,-2.0,0.0,1651071758684136.0,2
747,0.0,-3.0,-2.0,-5.0,-1.0,9.0,1.0,-1.0,1651071758684136.0,2
748,0.0,0.0,3.0,-1.0,3.0,2.0,2.0,1.0,1651071758685112.0,2
749,-2.0,0.0,-8.0,-7.0,-1.0,3.0,1.0,-1.0,1651071758685112.0,2
750,-2.0,2.0,-4.0,-6.0,-6.0,-4.0,-2.0,0.0,1651071758706672.0,2
751,-2.0,-7.0,-9.0,4.0,6.0,-4.0,-2.0,-1.0,1651071758706672.0,2
752,-1.0,-3.0,0.0,-4.0,-2.0,0.0,-3.0,0.0,1651071758707685.0,2
753,0.0,0.0,3.0,-2.0,-7.0,-2.0,1.0,1.0,1651071758707685.0,2
754,1.0,-1.0,0.0,3.0,9.0,5.0,0.0,-1.0,1651071758721052.0,2
755,2.0,3.0,2.0,1.0,-2.0,-2.0,-1.0,-1.0,1651071758721052.0,2
756,-3.0,-2.0,2.0,1.0,1.0,2.0,-1.0,-2.0,1651071758729598.0,2
757,1.0,10.0,0.0,-1.0,8.0,1.0,0.0,-1.0,1651071758729598.0,2
758,-1.0,-15.0,-18.0,-3.0,-8.0,-4.0,-1.0,-3.0,1651071758743745.0,2
759,-3.0,0.0,5.0,-4.0,-2.0,-14.0,-2.0,-1.0,1651071758743745.0,2
760,1.0,-1.0,1.0,-1.0,-3.0,9.0,1.0,-1.0,1651071758745688.0,2
761,1.0,2.0,0.0,4.0,11.0,4.0,2.0,1.0,1651071758745688.0,2
762,0.0,3.0,2.0,2.0,-4.0,-3.0,0.0,0.0,1651071758766007.0,2
763,-2.0,-3.0,-4.0,-5.0,-9.0,-6.0,-3.0,0.0,1651071758766007.0,2
764,-2.0,-2.0,-6.0,-3.0,-3.0,0.0,3.0,0.0,1651071758767936.0,2
765,0.0,4.0,8.0,-4.0,7.0,-1.0,0.0,0.0,1651071758767936.0,2
766,0.0,-4.0,-3.0,5.0,11.0,7.0,2.0,-1.0,1651071758779970.0,2
767,-2.0,-5.0,-9.0,-3.0,-12.0,-6.0,-3.0,-1.0,1651071758779970.0,2
768,0.0,3.0,6.0,11.0,3.0,-8.0,-1.0,-1.0,1651071758788880.0,2
769,0.0,-5.0,-7.0,-4.0,2.0,8.0,-2.0,-2.0,1651071758788880.0,2
770,1.0,5.0,3.0,-2.0,-17.0,-8.0,-1.0,1.0,1651071758803992.0,2
771,-1.0,0.0,0.0,4.0,11.0,7.0,-2.0,1.0,1651071758803992.0,2
772,2.0,0.0,-8.0,-14.0,0.0,1.0,0.0,0.0,1651071758805946.0,2
773,-2.0,-4.0,-1.0,7.0,-9.0,-9.0,-3.0,-1.0,1651071758805946.0,2
774,-1.0,3.0,10.0,1.0,5.0,2.0,0.0,-2.0,1651071758826214.0,2
775,1.0,-1.0,-3.0,-2.0,-1.0,-5.0,0.0,-1.0,1651071758826214.0,2
776,1.0,1.0,3.0,4.0,4.0,12.0,1.0,0.0,1651071758828140.0,2
777,-1.0,-6.0,-1.0,-6.0,-12.0,-10.0,0.0,-1.0,1651071758828140.0,2
778,-1.0,1.0,4.0,5.0,-1.0,-5.0,0.0,-2.0,1651071758840175.0,2
779,0.0,-2.0,0.0,12.0,3.0,6.0,1.0,1.0,1651071758840175.0,2
780,-1.0,-1.0,-2.0,-3.0,-2.0,-9.0,-3.0,0.0,1651071758849085.0,2
781,1.0,0.0,0.0,0.0,-5.0,-2.0,-3.0,-2.0,1651071758849085.0,2
782,-2.0,0.0,0.0,-7.0,-2.0,3.0,-2.0,-1.0,1651071758864172.0,2
783,1.0,-2.0,-2.0,5.0,17.0,0.0,1.0,-1.0,1651071758864172.0,2
784,-2.0,-1.0,1.0,-3.0,-11.0,-1.0,-3.0,-4.0,1651071758865172.0,2
785,0.0,0.0,-5.0,-2.0,-4.0,4.0,2.0,-1.0,1651071758865172.0,2
786,1.0,-3.0,-2.0,-2.0,8.0,2.0,3.0,2.0,1651071758886447.0,2
787,1.0,2.0,10.0,-12.0,-3.0,6.0,2.0,0.0,1651071758886447.0,2
788,-1.0,-1.0,3.0,13.0,-2.0,-5.0,-4.0,-2.0,1651071758888401.0,2
789,-1.0,-2.0,-5.0,-5.0,-8.0,-12.0,-3.0,-1.0,1651071758888401.0,2
790,-1.0,0.0,4.0,7.0,-1.0,1.0,-1.0,-1.0,1651071758900343.0,2
791,3.0,6.0,-3.0,2.0,7.0,7.0,2.0,0.0,1651071758900343.0,2
792,2.0,3.0,11.0,-17.0,-4.0,-1.0,3.0,2.0,1651071758909318.0,2
793,-4.0,-16.0,-17.0,-14.0,-10.0,-3.0,-3.0,-1.0,1651071758909318.0,2
794,0.0,2.0,-3.0,-1.0,0.0,-3.0,-1.0,0.0,1651071758923679.0,2
795,-2.0,-3.0,-7.0,-14.0,-12.0,-3.0,-3.0,0.0,1651071758923679.0,2
796,-1.0,7.0,7.0,16.0,13.0,4.0,0.0,0.0,1651071758930617.0,2
797,1.0,2.0,8.0,2.0,10.0,5.0,2.0,-1.0,1651071758930617.0,2
798,-1.0,-3.0,4.0,-5.0,-7.0,-7.0,-1.0,0.0,1651071758946668.0,2
799,-2.0,-7.0,-18.0,3.0,5.0,7.0,-2.0,-2.0,1651071758946668.0,2
800,0.0,0.0,-1.0,15.0,12.0,0.0,2.0,-1.0,1651071758948602.0,2
801,0.0,8.0,16.0,-8.0,-14.0,-2.0,0.0,1.0,1651071758948602.0,2
802,-1.0,-6.0,-16.0,-13.0,2.0,0.0,-3.0,0.0,1651071758969190.0,2
803,-2.0,0.0,6.0,4.0,-7.0,-5.0,-3.0,-1.0,1651071758969190.0,2
804,-1.0,-5.0,-10.0,-4.0,-4.0,-3.0,-1.0,0.0,1651071758970145.0,2
805,2.0,3.0,-1.0,9.0,5.0,2.0,-2.0,0.0,1651071758970145.0,2
806,3.0,3.0,8.0,-3.0,-3.0,-1.0,1.0,-2.0,1651071758983706.0,2
807,0.0,0.0,0.0,4.0,-3.0,-1.0,1.0,1.0,1651071758983706.0,2
808,-2.0,-1.0,3.0,6.0,4.0,4.0,-1.0,-1.0,1651071758985764.0,2
809,-1.0,-1.0,1.0,-1.0,-1.0,1.0,1.0,-1.0,1651071758985764.0,2
810,1.0,-1.0,-5.0,-8.0,-16.0,-17.0,-2.0,0.0,1651071759006500.0,2
811,-2.0,-4.0,-4.0,-3.0,-8.0,8.0,-1.0,0.0,1651071759006500.0,2
812,-1.0,0.0,-2.0,-6.0,10.0,2.0,1.0,-6.0,1651071759008513.0,2
813,3.0,2.0,5.0,16.0,14.0,6.0,2.0,8.0,1651071759008513.0,2
814,-1.0,1.0,3.0,1.0,-4.0,-1.0,-1.0,5.0,1651071759028589.0,2
815,-2.0,-1.0,0.0,-6.0,-10.0,-8.0,-2.0,-5.0,1651071759028589.0,2
816,-4.0,-5.0,-7.0,-9.0,-20.0,-11.0,-3.0,-4.0,1651071759030583.0,2
817,0.0,0.0,-4.0,4.0,3.0,5.0,1.0,2.0,1651071759030583.0,2
818,-1.0,3.0,4.0,6.0,12.0,3.0,0.0,3.0,1651071759043702.0,2
819,5.0,5.0,5.0,1.0,1.0,9.0,3.0,2.0,1651071759043702.0,2
820,0.0,-1.0,-8.0,-10.0,0.0,0.0,2.0,-1.0,1651071759045789.0,2
821,-4.0,-4.0,2.0,7.0,-4.0,-3.0,-3.0,-7.0,1651071759045789.0,2
822,-1.0,-5.0,-4.0,-4.0,-21.0,-3.0,-1.0,-1.0,1651071759066940.0,2
823,-2.0,1.0,5.0,7.0,13.0,-4.0,-2.0,-3.0,1651071759066940.0,2
824,1.0,1.0,3.0,-6.0,-5.0,-3.0,1.0,2.0,1651071759067872.0,2
825,2.0,-4.0,-13.0,-6.0,-9.0,0.0,2.0,3.0,1651071759067872.0,2
826,-1.0,5.0,4.0,-6.0,-5.0,2.0,-2.0,-2.0,1651071759088971.0,2
827,1.0,1.0,7.0,13.0,3.0,-5.0,-1.0,1.0,1651071759088971.0,2
828,2.0,1.0,-12.0,-15.0,-5.0,-9.0,-4.0,2.0,1651071759090898.0,2
829,-3.0,-2.0,1.0,-8.0,20.0,3.0,-3.0,-4.0,1651071759090898.0,2
830,-2.0,-2.0,5.0,11.0,-2.0,11.0,2.0,-3.0,1651071759104206.0,2
831,-1.0,-1.0,2.0,9.0,-1.0,1.0,3.0,-1.0,1651071759104206.0,2
832,3.0,0.0,6.0,14.0,3.0,0.0,-3.0,2.0,1651071759105206.0,2
833,2.0,2.0,-10.0,-17.0,-5.0,-10.0,0.0,7.0,1651071759105206.0,2
834,-2.0,-4.0,-13.0,-37.0,-6.0,-6.0,-3.0,-4.0,1651071759126374.0,2
835,-2.0,-2.0,-6.0,6.0,-9.0,-2.0,-2.0,0.0,1651071759126374.0,2
836,-1.0,2.0,11.0,10.0,5.0,1.0,1.0,-1.0,1651071759128301.0,2
837,-4.0,2.0,4.0,2.0,5.0,5.0,0.0,-5.0,1651071759128301.0,2
838,-3.0,-1.0,-2.0,9.0,-12.0,-8.0,-1.0,-3.0,1651071759149312.0,2
839,-1.0,-1.0,-3.0,-2.0,7.0,0.0,-1.0,0.0,1651071759149312.0,2
840,0.0,-2.0,-3.0,5.0,-16.0,4.0,3.0,2.0,1651071759150243.0,2
841,1.0,-1.0,-5.0,-27.0,-10.0,-6.0,-2.0,-1.0,1651071759150243.0,2
842,2.0,1.0,2.0,19.0,34.0,10.0,2.0,1.0,1651071759163585.0,2
843,-1.0,-4.0,6.0,16.0,-10.0,-7.0,-3.0,-2.0,1651071759163585.0,2
844,-1.0,-2.0,-6.0,-16.0,-4.0,-3.0,-4.0,0.0,1651071759170601.0,2
845,-3.0,0.0,-6.0,12.0,-14.0,-11.0,-5.0,-5.0,1651071759170601.0,2
846,0.0,0.0,0.0,-8.0,2.0,5.0,2.0,-1.0,1651071759186777.0,2
847,0.0,1.0,2.0,-21.0,-10.0,4.0,1.0,0.0,1651071759186777.0,2
848,1.0,-2.0,-1.0,13.0,16.0,0.0,0.0,1.0,1651071759187724.0,2
849,0.0,3.0,1.0,-8.0,-8.0,-2.0,0.0,1.0,1651071759187724.0,2
850,-3.0,2.0,4.0,16.0,3.0,-4.0,-5.0,-5.0,1651071759209306.0,2
851,0.0,-2.0,3.0,7.0,20.0,2.0,3.0,1.0,1651071759209306.0,2
852,0.0,-4.0,-4.0,-15.0,-17.0,-4.0,-5.0,-2.0,1651071759210279.0,2
853,0.0,-1.0,4.0,1.0,0.0,-2.0,2.0,-1.0,1651071759210279.0,2
854,-1.0,-2.0,-14.0,-11.0,-5.0,0.0,0.0,-1.0,1651071759223683.0,2
855,-4.0,-2.0,-4.0,-7.0,-4.0,-5.0,-3.0,-1.0,1651071759223683.0,2
856,-2.0,1.0,-4.0,-4.0,-5.0,-3.0,1.0,1.0,1651071759230660.0,2
857,1.0,3.0,6.0,15.0,10.0,8.0,3.0,1.0,1651071759230660.0,2
858,0.0,-4.0,-8.0,-5.0,-7.0,0.0,3.0,2.0,1651071759246838.0,2
859,-1.0,0.0,0.0,-12.0,3.0,-1.0,-3.0,-3.0,1651071759246838.0,2
860,-1.0,-1.0,18.0,35.0,4.0,-2.0,-3.0,-2.0,1651071759247782.0,2
861,0.0,-4.0,-10.0,-8.0,5.0,5.0,0.0,0.0,1651071759247782.0,2
862,0.0,5.0,9.0,8.0,-5.0,-4.0,-2.0,1.0,1651071759269512.0,2
863,4.0,3.0,-9.0,-20.0,3.0,9.0,2.0,4.0,1651071759269512.0,2
864,-3.0,-4.0,-6.0,-21.0,-3.0,2.0,1.0,0.0,1651071759270511.0,2
865,-4.0,-1.0,17.0,20.0,-18.0,-4.0,-5.0,-3.0,1651071759270511.0,2
866,2.0,7.0,17.0,-15.0,16.0,1.0,3.0,4.0,1651071759283839.0,2
867,-2.0,-16.0,-21.0,21.0,3.0,4.0,-2.0,-4.0,1651071759283839.0,2
868,2.0,6.0,9.0,19.0,12.0,5.0,3.0,1.0,1651071759289893.0,2
869,-2.0,-6.0,-6.0,-12.0,-14.0,-5.0,-1.0,-1.0,1651071759289893.0,2
870,-2.0,3.0,2.0,5.0,5.0,0.0,-2.0,-3.0,1651071759306365.0,2
871,-3.0,4.0,8.0,-8.0,-15.0,-9.0,-3.0,-9.0,1651071759306365.0,2
872,1.0,-2.0,1.0,-3.0,15.0,11.0,3.0,8.0,1651071759308201.0,2
873,-2.0,-5.0,-10.0,1.0,4.0,-4.0,-5.0,4.0,1651071759308201.0,2
874,-1.0,-1.0,-2.0,15.0,5.0,2.0,1.0,-3.0,1651071759329257.0,2
875,0.0,-1.0,2.0,-7.0,-4.0,0.0,1.0,0.0,1651071759329257.0,2
876,-2.0,1.0,-9.0,-8.0,-6.0,-4.0,-2.0,-6.0,1651071759330278.0,2
877,0.0,2.0,9.0,0.0,0.0,0.0,0.0,-2.0,1651071759330278.0,2
878,-1.0,-7.0,-17.0,-5.0,-9.0,-3.0,-3.0,0.0,1651071759343223.0,2
879,0.0,0.0,6.0,1.0,2.0,2.0,1.0,1.0,1651071759343223.0,2
880,-3.0,-2.0,-4.0,-7.0,-1.0,-5.0,-4.0,-1.0,1651071759350576.0,2
881,-1.0,-4.0,-12.0,-2.0,-5.0,-1.0,-2.0,-3.0,1651071759350576.0,2
882,2.0,2.0,5.0,18.0,13.0,10.0,2.0,3.0,1651071759367053.0,2
883,0.0,1.0,-9.0,-5.0,0.0,-4.0,-3.0,1.0,1651071759367053.0,2
884,-2.0,-2.0,-12.0,-16.0,9.0,-7.0,1.0,0.0,1651071759368051.0,2
885,3.0,11.0,25.0,12.0,8.0,11.0,3.0,1.0,1651071759368051.0,2
886,-3.0,-10.0,-18.0,14.0,-20.0,-10.0,-2.0,-1.0,1651071759389317.0,2
887,-1.0,3.0,-5.0,-3.0,13.0,7.0,2.0,3.0,1651071759389317.0,2
888,2.0,0.0,3.0,-17.0,-17.0,-5.0,-4.0,-2.0,1651071759390317.0,2
889,1.0,3.0,8.0,11.0,9.0,-3.0,0.0,-2.0,1651071759390317.0,2
890,0.0,0.0,-12.0,-20.0,4.0,4.0,0.0,-2.0,1651071759403800.0,2
891,1.0,5.0,15.0,7.0,-7.0,-5.0,1.0,1.0,1651071759403800.0,2
892,-4.0,-3.0,1.0,1.0,-9.0,0.0,-2.0,-4.0,1651071759410601.0,2
893,0.0,0.0,-8.0,-18.0,0.0,-3.0,0.0,0.0,1651071759410601.0,2
894,0.0,2.0,14.0,35.0,10.0,0.0,-2.0,0.0,1651071759426735.0,2
895,2.0,0.0,-7.0,-21.0,-2.0,1.0,1.0,3.0,1651071759426735.0,2
896,0.0,-2.0,-11.0,-12.0,0.0,2.0,1.0,0.0,1651071759427699.0,2
897,0.0,2.0,6.0,10.0,2.0,0.0,-3.0,-1.0,1651071759427699.0,2
898,-1.0,-1.0,18.0,5.0,1.0,-1.0,-1.0,0.0,1651071759448677.0,2
899,-1.0,0.0,-6.0,5.0,-3.0,-3.0,2.0,2.0,1651071759448677.0,2
900,-2.0,-2.0,-1.0,3.0,-3.0,-3.0,-5.0,-4.0,1651071759450610.0,2
901,1.0,-3.0,-14.0,-13.0,-15.0,-2.0,2.0,3.0,1651071759450610.0,2
902,1.0,-2.0,5.0,-1.0,18.0,8.0,1.0,1.0,1651071759462761.0,2
903,0.0,-1.0,2.0,6.0,3.0,-5.0,-3.0,-3.0,1651071759462761.0,2
904,0.0,5.0,7.0,16.0,-14.0,4.0,1.0,2.0,1651071759471617.0,2
905,-3.0,-11.0,-8.0,-4.0,2.0,0.0,1.0,-1.0,1651071759471617.0,2
906,-2.0,0.0,3.0,-13.0,-5.0,-4.0,-5.0,-2.0,1651071759486770.0,2
907,-1.0,3.0,-5.0,-8.0,3.0,0.0,2.0,-1.0,1651071759486770.0,2
908,-1.0,-4.0,13.0,15.0,3.0,-3.0,-1.0,-1.0,1651071759487723.0,2
909,-1.0,0.0,-14.0,-6.0,-9.0,-3.0,-4.0,-4.0,1651071759487723.0,2
910,1.0,-3.0,-9.0,-34.0,-12.0,-8.0,-1.0,1.0,1651071759508850.0,2
911,0.0,-1.0,4.0,23.0,6.0,11.0,-2.0,2.0,1651071759508850.0,2
912,0.0,2.0,4.0,1.0,19.0,5.0,0.0,2.0,1651071759510812.0,2
913,0.0,1.0,0.0,9.0,-11.0,-2.0,0.0,-2.0,1651071759510812.0,2
914,-2.0,0.0,1.0,-7.0,-12.0,-11.0,-6.0,-4.0,1651071759522813.0,2
915,0.0,1.0,6.0,3.0,6.0,-1.0,0.0,-1.0,1651071759522813.0,2
916,2.0,-3.0,1.0,19.0,-2.0,3.0,1.0,1.0,1651071759531723.0,2
917,-1.0,3.0,2.0,-15.0,10.0,4.0,0.0,-1.0,1651071759531723.0,2
918,-2.0,-1.0,-2.0,22.0,8.0,4.0,3.0,3.0,1651071759546261.0,2
919,-4.0,-4.0,-10.0,-21.0,-11.0,-5.0,-2.0,-2.0,1651071759546261.0,2
920,-1.0,2.0,-2.0,-4.0,-3.0,-2.0,1.0,-2.0,1651071759548188.0,2
921,-1.0,-2.0,-7.0,-5.0,5.0,1.0,-2.0,-2.0,1651071759548188.0,2
922,3.0,1.0,7.0,-9.0,-22.0,-4.0,-1.0,-1.0,1651071759569229.0,2
923,1.0,-1.0,3.0,14.0,10.0,0.0,-1.0,-2.0,1651071759569229.0,2
924,0.0,0.0,-3.0,-10.0,4.0,4.0,4.0,1.0,1651071759570229.0,2
925,-2.0,-1.0,2.0,-1.0,0.0,1.0,0.0,0.0,1651071759570229.0,2
926,1.0,1.0,-3.0,-4.0,-1.0,0.0,-2.0,-1.0,1651071759582270.0,2
927,-2.0,-2.0,7.0,12.0,-10.0,-3.0,5.0,4.0,1651071759582270.0,2
928,-4.0,-5.0,-15.0,-16.0,4.0,0.0,-4.0,-2.0,1651071759591242.0,2
929,-2.0,1.0,9.0,14.0,11.0,3.0,1.0,1.0,1651071759591242.0,2
930,1.0,1.0,-6.0,-5.0,-1.0,-1.0,1.0,0.0,1651071759606373.0,2
931,0.0,1.0,13.0,2.0,-12.0,-2.0,-2.0,-1.0,1651071759606373.0,2
932,-2.0,-8.0,-1.0,9.0,8.0,-4.0,-3.0,-1.0,1651071759608336.0,2
933,0.0,4.0,13.0,4.0,9.0,-5.0,2.0,1.0,1651071759608336.0,2
934,0.0,-5.0,-23.0,-19.0,3.0,9.0,0.0,0.0,1651071759628673.0,2
935,2.0,1.0,-1.0,-13.0,-2.0,-1.0,2.0,1.0,1651071759628673.0,2
936,-2.0,-4.0,6.0,20.0,-24.0,-10.0,-4.0,-2.0,1651071759630659.0,2
937,1.0,0.0,-2.0,19.0,30.0,6.0,-2.0,-3.0,1651071759630659.0,2
938,-1.0,3.0,23.0,7.0,-3.0,-4.0,1.0,1.0,1651071759642765.0,2
939,0.0,-5.0,-24.0,-24.0,-19.0,-3.0,0.0,-1.0,1651071759642765.0,2
940,0.0,-1.0,-7.0,3.0,11.0,2.0,3.0,-1.0,1651071759651615.0,2
941,-3.0,-3.0,-2.0,-15.0,-16.0,-8.0,-4.0,-3.0,1651071759651615.0,2
942,-1.0,3.0,2.0,7.0,3.0,0.0,1.0,0.0,1651071759666341.0,2
943,-4.0,-7.0,-9.0,-18.0,2.0,-5.0,-5.0,-5.0,1651071759666341.0,2
944,1.0,6.0,3.0,3.0,-8.0,1.0,3.0,2.0,1651071759668217.0,2
945,2.0,-1.0,9.0,15.0,-6.0,-1.0,0.0,0.0,1651071759668217.0,2
946,-1.0,-3.0,-12.0,-7.0,12.0,3.0,1.0,-1.0,1651071759689381.0,2
947,-1.0,1.0,1.0,9.0,0.0,-3.0,-3.0,0.0,1651071759689381.0,2
948,0.0,5.0,13.0,-14.0,-1.0,0.0,-2.0,0.0,1651071759690308.0,2
949,0.0,-2.0,-24.0,-8.0,-9.0,0.0,0.0,-2.0,1651071759690308.0,2
950,2.0,1.0,13.0,20.0,3.0,0.0,-1.0,1.0,1651071759702277.0,2
951,4.0,-1.0,-9.0,-7.0,0.0,-2.0,2.0,-1.0,1651071759702277.0,2
952,-4.0,-7.0,4.0,13.0,6.0,1.0,-2.0,-3.0,1651071759719232.0,2
953,-1.0,-2.0,-5.0,-10.0,6.0,1.0,-1.0,-1.0,1651071759719232.0,2
954,1.0,5.0,10.0,6.0,-6.0,-4.0,0.0,-1.0,1651071759726219.0,2
955,-1.0,-4.0,-14.0,-17.0,3.0,1.0,0.0,-1.0,1651071759726219.0,2
956,0.0,1.0,-8.0,-11.0,-13.0,-3.0,-1.0,-2.0,1651071759728208.0,2
957,1.0,2.0,3.0,-1.0,2.0,-2.0,-1.0,0.0,1651071759728208.0,2
958,0.0,-1.0,-8.0,-4.0,-5.0,-6.0,-1.0,0.0,1651071759749006.0,2
959,1.0,6.0,19.0,27.0,7.0,10.0,0.0,-1.0,1651071759749006.0,2
960,1.0,1.0,-1.0,-6.0,10.0,4.0,5.0,3.0,1651071759750959.0,2
961,-3.0,-8.0,-9.0,-16.0,-13.0,-6.0,-5.0,-6.0,1651071759750959.0,2
962,-1.0,1.0,9.0,26.0,2.0,4.0,-3.0,-3.0,1651071759762412.0,2
963,-3.0,-4.0,-14.0,-13.0,1.0,-3.0,0.0,-4.0,1651071759762412.0,2
964,0.0,-2.0,-8.0,-4.0,2.0,-2.0,1.0,6.0,1651071759771620.0,2
965,0.0,1.0,9.0,16.0,5.0,4.0,0.0,1.0,1651071759771620.0,2
966,2.0,2.0,12.0,-8.0,-9.0,-3.0,1.0,3.0,1651071759786763.0,2
967,0.0,0.0,-12.0,-4.0,2.0,-3.0,-3.0,-1.0,1651071759786763.0,2
968,1.0,-3.0,-8.0,3.0,0.0,0.0,-1.0,-1.0,1651071759787714.0,2
969,0.0,6.0,1.0,-4.0,-5.0,2.0,2.0,3.0,1651071759787714.0,2
970,-2.0,2.0,5.0,2.0,-6.0,-6.0,-1.0,-3.0,1651071759808852.0,2
971,1.0,3.0,30.0,23.0,7.0,-4.0,1.0,1.0,1651071759808852.0,2
972,-1.0,-3.0,-27.0,-32.0,-1.0,3.0,-2.0,-4.0,1651071759810808.0,2
973,0.0,-2.0,6.0,6.0,1.0,2.0,5.0,2.0,1651071759810808.0,2
974,-2.0,-2.0,-20.0,-14.0,-8.0,-4.0,-4.0,-5.0,1651071759831728.0,2
975,0.0,1.0,7.0,-1.0,-8.0,-5.0,-1.0,-1.0,1651071759831728.0,2
976,3.0,5.0,15.0,24.0,-4.0,0.0,-2.0,1.0,1651071759832712.0,2
977,-1.0,-7.0,-4.0,-14.0,17.0,5.0,0.0,2.0,1651071759832712.0,2
978,-3.0,-6.0,-14.0,-8.0,-12.0,-3.0,-2.0,-5.0,1651071759846660.0,2
979,0.0,1.0,4.0,-5.0,4.0,1.0,-3.0,0.0,1651071759846660.0,2
980,0.0,0.0,10.0,14.0,8.0,1.0,-1.0,-4.0,1651071759847657.0,2
981,-2.0,-8.0,-21.0,12.0,-10.0,0.0,2.0,3.0,1651071759847657.0,2
982,-1.0,0.0,18.0,-1.0,17.0,0.0,2.0,1.0,1651071759868601.0,2
983,1.0,-2.0,-23.0,-11.0,-6.0,-3.0,1.0,4.0,1651071759868601.0,2
984,0.0,2.0,-4.0,-20.0,-16.0,-5.0,-2.0,-1.0,1651071759870610.0,2
985,2.0,6.0,12.0,1.0,-10.0,-2.0,-2.0,0.0,1651071759870610.0,2
986,-1.0,0.0,-2.0,-1.0,8.0,3.0,0.0,-3.0,1651071759892006.0,2
987,-3.0,-10.0,-4.0,-3.0,-4.0,-5.0,-4.0,-4.0,1651071759892006.0,2
988,-1.0,2.0,2.0,8.0,6.0,6.0,2.0,1.0,1651071759893006.0,2
989,0.0,3.0,5.0,4.0,-6.0,-5.0,-1.0,-1.0,1651071759893006.0,2
990,0.0,-6.0,-9.0,1.0,4.0,3.0,2.0,0.0,1651071759906998.0,2
991,1.0,6.0,20.0,5.0,5.0,5.0,-3.0,-2.0,1651071759906998.0,2
992,-1.0,-2.0,-1.0,10.0,-1.0,-4.0,-5.0,-2.0,1651071759907975.0,2
993,-1.0,0.0,-1.0,-9.0,-8.0,-3.0,-3.0,-4.0,1651071759907975.0,2
994,-1.0,3.0,-2.0,-1.0,-14.0,-5.0,-2.0,-2.0,1651071759929425.0,2
995,-2.0,0.0,-7.0,6.0,10.0,-3.0,1.0,-1.0,1651071759929425.0,2
996,1.0,-6.0,8.0,0.0,5.0,5.0,3.0,1.0,1651071759930221.0,2
997,3.0,5.0,-3.0,0.0,-5.0,1.0,2.0,0.0,1651071759930221.0,2
998,-2.0,-3.0,-5.0,1.0,10.0,1.0,-2.0,-2.0,1651071759951251.0,2
999,0.0,-1.0,5.0,2.0,-13.0,-3.0,0.0,2.0,1651071759951251.0,2
1000,0.0,3.0,4.0,-9.0,-6.0,-4.0,-1.0,-1.0,1651071759953176.0,2
1001,-3.0,1.0,-5.0,-5.0,7.0,-2.0,0.0,-1.0,1651071759953176.0,2
1002,1.0,-2.0,-10.0,-8.0,-6.0,1.0,1.0,2.0,1651071759966451.0,2
1003,-2.0,-2.0,1.0,-3.0,-2.0,2.0,3.0,1.0,1651071759966451.0,2
1004,-3.0,-3.0,-5.0,2.0,-1.0,-4.0,-4.0,-5.0,1651071759968413.0,2
1005,1.0,0.0,4.0,2.0,-1.0,0.0,-1.0,-5.0,1651071759968413.0,2
1006,1.0,-2.0,-16.0,1.0,2.0,0.0,0.0,9.0,1651071759988485.0,2
1007,-2.0,-2.0,2.0,-2.0,7.0,5.0,0.0,-2.0,1651071759988485.0,2
1008,-2.0,0.0,-4.0,6.0,4.0,-3.0,-2.0,-2.0,1651071759996464.0,2
1009,-3.0,3.0,5.0,-4.0,-1.0,-8.0,-5.0,-3.0,1651071759996464.0,2
1010,-2.0,-5.0,-3.0,-4.0,-3.0,12.0,1.0,1.0,1651071760011488.0,2
1011,2.0,2.0,-1.0,-8.0,-15.0,-5.0,3.0,1.0,1651071760011488.0,2
1012,2.0,3.0,-10.0,-7.0,2.0,0.0,1.0,0.0,1651071760013450.0,2
1013,-2.0,1.0,26.0,6.0,8.0,-1.0,1.0,0.0,1651071760013450.0,2
1014,-1.0,-1.0,-13.0,6.0,0.0,-11.0,-4.0,-4.0,1651071760026264.0,2
1015,0.0,0.0,-5.0,-12.0,-4.0,2.0,1.0,2.0,1651071760026264.0,2
1016,1.0,4.0,13.0,12.0,-2.0,1.0,2.0,0.0,1651071760028227.0,2
1017,-2.0,-6.0,-6.0,-4.0,-9.0,-2.0,-2.0,-3.0,1651071760028227.0,2
1018,0.0,0.0,-1.0,-13.0,-5.0,-2.0,-2.0,-1.0,1651071760048938.0,2
1019,1.0,4.0,5.0,13.0,6.0,-2.0,-4.0,-1.0,1651071760048938.0,2
1020,-3.0,-1.0,-3.0,-2.0,-5.0,-4.0,-2.0,1.0,1651071760050867.0,2
1021,0.0,-2.0,-3.0,-3.0,2.0,4.0,1.0,2.0,1651071760050867.0,2
1022,1.0,0.0,5.0,8.0,10.0,2.0,3.0,3.0,1651071760071230.0,2
1023,2.0,7.0,4.0,5.0,8.0,2.0,-1.0,-3.0,1651071760071230.0,2
1024,1.0,-2.0,1.0,7.0,-11.0,-1.0,1.0,2.0,1651071760073152.0,2
1025,1.0,2.0,-6.0,-10.0,3.0,1.0,2.0,2.0,1651071760073152.0,2
1026,-2.0,-1.0,0.0,-2.0,-7.0,-3.0,0.0,-2.0,1651071760086117.0,2
1027,-1.0,2.0,17.0,0.0,5.0,-1.0,-2.0,-1.0,1651071760086117.0,2
1028,0.0,-3.0,-18.0,-1.0,-4.0,-2.0,-2.0,0.0,1651071760093125.0,2
1029,-1.0,-4.0,-4.0,-9.0,-4.0,2.0,-1.0,0.0,1651071760093125.0,2
1030,0.0,1.0,4.0,-1.0,-1.0,-1.0,1.0,0.0,1651071760109233.0,2
1031,0.0,-4.0,-5.0,-6.0,-13.0,-5.0,0.0,0.0,1651071760109233.0,2
1032,1.0,4.0,11.0,2.0,27.0,8.0,3.0,0.0,1651071760110234.0,2
1033,-3.0,-4.0,-11.0,1.0,-5.0,-4.0,-2.0,-5.0,1651071760110234.0,2
1034,0.0,-8.0,7.0,-12.0,-8.0,-6.0,-4.0,-3.0,1651071760131951.0,2
1035,2.0,-1.0,-2.0,12.0,0.0,-2.0,2.0,1.0,1651071760131951.0,2
1036,-1.0,-3.0,-6.0,-13.0,-11.0,0.0,-1.0,0.0,1651071760132951.0,2
1037,2.0,4.0,-11.0,-7.0,10.0,4.0,0.0,2.0,1651071760132951.0,2
1038,2.0,5.0,13.0,-4.0,-9.0,4.0,-1.0,0.0,1651071760146018.0,2
1039,-4.0,-7.0,-2.0,9.0,2.0,-5.0,-6.0,-4.0,1651071760146018.0,2
1040,-1.0,5.0,7.0,-5.0,0.0,1.0,3.0,0.0,1651071760153000.0,2
1041,-1.0,0.0,7.0,8.0,-2.0,2.0,0.0,0.0,1651071760153000.0,2
1042,-2.0,-3.0,-4.0,-6.0,7.0,0.0,0.0,-3.0,1651071760169175.0,2
1043,-1.0,0.0,5.0,-1.0,-8.0,-1.0,-1.0,0.0,1651071760169175.0,2
1044,0.0,-9.0,-33.0,-10.0,13.0,-4.0,-5.0,-4.0,1651071760171103.0,2
1045,1.0,5.0,19.0,17.0,-28.0,-9.0,0.0,1.0,1651071760171103.0,2
1046,0.0,2.0,-5.0,5.0,3.0,-3.0,-2.0,0.0,1651071760191117.0,2
1047,1.0,3.0,3.0,10.0,27.0,13.0,4.0,2.0,1651071760191117.0,2
1048,-1.0,-1.0,0.0,-20.0,-20.0,-5.0,-4.0,-2.0,1651071760193056.0,2
1049,0.0,0.0,1.0,4.0,-8.0,-2.0,3.0,2.0,1651071760193056.0,2
1050,-5.0,-3.0,-13.0,-20.0,-15.0,-6.0,-6.0,-5.0,1651071760206077.0,2
1051,-1.0,2.0,6.0,10.0,1.0,0.0,0.0,0.0,1651071760206077.0,2
1052,1.0,-3.0,4.0,16.0,15.0,4.0,1.0,-1.0,1651071760213058.0,2
1053,0.0,-5.0,-12.0,-10.0,-1.0,2.0,-2.0,0.0,1651071760213058.0,2
1054,1.0,3.0,5.0,5.0,3.0,-6.0,0.0,0.0,1651071760229398.0,2
1055,-1.0,-5.0,-13.0,-14.0,-16.0,3.0,1.0,2.0,1651071760229398.0,2
1056,0.0,-2.0,-6.0,-2.0,3.0,2.0,1.0,0.0,1651071760230178.0,2
1057,1.0,1.0,7.0,-1.0,9.0,1.0,2.0,-1.0,1651071760230178.0,2
1058,-1.0,-3.0,-11.0,9.0,-2.0,-2.0,-3.0,-2.0,1651071760251245.0,2
1059,-1.0,3.0,4.0,11.0,-1.0,-5.0,-2.0,-2.0,1651071760251245.0,2
1060,-1.0,-1.0,0.0,-13.0,-22.0,-8.0,-3.0,-1.0,1651071760253172.0,2
1061,-2.0,-4.0,-9.0,-13.0,7.0,2.0,-3.0,-1.0,1651071760253172.0,2
1062,0.0,-1.0,19.0,11.0,-8.0,0.0,2.0,2.0,1651071760266205.0,2
1063,-2.0,-10.0,-45.0,-8.0,10.0,3.0,-3.0,-1.0,1651071760266205.0,2
1064,-1.0,6.0,11.0,-7.0,-5.0,-1.0,-2.0,0.0,1651071760273176.0,2
1065,1.0,1.0,5.0,20.0,31.0,3.0,-1.0,-2.0,1651071760273176.0,2
1066,-2.0,-14.0,2.0,11.0,-12.0,0.0,-1.0,-1.0,1651071760289270.0,2
1067,2.0,10.0,-1.0,-4.0,11.0,-2.0,4.0,4.0,1651071760289270.0,2
1068,1.0,-10.0,-4.0,-22.0,-2.0,-2.0,-3.0,-1.0,1651071760290214.0,2
1069,-1.0,2.0,-6.0,7.0,-8.0,-5.0,-2.0,-1.0,1651071760290214.0,2
1070,-1.0,2.0,-1.0,11.0,8.0,0.0,0.0,-1.0,1651071760311260.0,2
1071,3.0,4.0,12.0,-1.0,-6.0,3.0,3.0,2.0,1651071760311260.0,2
1072,0.0,-1.0,2.0,-7.0,-6.0,-1.0,1.0,1.0,1651071760313255.0,2
1073,-2.0,-4.0,-1.0,-9.0,-9.0,-8.0,-4.0,-2.0,1651071760313255.0,2
1074,2.0,6.0,-9.0,-9.0,10.0,11.0,3.0,1.0,1651071760326303.0,2
1075,0.0,-4.0,5.0,4.0,0.0,2.0,1.0,1.0,1651071760326303.0,2
1076,-1.0,4.0,2.0,6.0,7.0,3.0,3.0,2.0,1651071760332270.0,2
1077,-2.0,-5.0,-12.0,2.0,0.0,-4.0,-5.0,-5.0,1651071760332270.0,2
1078,0.0,6.0,26.0,25.0,-6.0,-2.0,0.0,1.0,1651071760349226.0,2
1079,-2.0,-5.0,-26.0,-42.0,-9.0,-6.0,-4.0,-2.0,1651071760349226.0,2
1080,1.0,-1.0,8.0,23.0,-1.0,-5.0,-2.0,-2.0,1651071760350156.0,2
1081,2.0,6.0,-5.0,-8.0,9.0,7.0,3.0,2.0,1651071760350156.0,2
1082,-1.0,-8.0,-2.0,-8.0,-2.0,-1.0,1.0,2.0,1651071760371167.0,2
1083,-3.0,-3.0,13.0,-7.0,-4.0,-5.0,-5.0,-4.0,1651071760371167.0,2
1084,-2.0,-4.0,2.0,14.0,4.0,0.0,-1.0,-2.0,1651071760373095.0,2
1085,3.0,1.0,4.0,6.0,-2.0,1.0,1.0,1.0,1651071760373095.0,2
1086,2.0,2.0,-6.0,-16.0,5.0,4.0,2.0,1.0,1651071760385469.0,2
1087,-1.0,-1.0,5.0,15.0,-8.0,-4.0,-3.0,-1.0,1651071760385469.0,2
1088,-1.0,3.0,-1.0,-27.0,-24.0,-6.0,-2.0,-1.0,1651071760394288.0,2
1089,-1.0,0.0,-2.0,12.0,34.0,6.0,0.0,-1.0,1651071760394288.0,2
1090,0.0,4.0,-6.0,-10.0,-2.0,-1.0,-1.0,-1.0,1651071760408936.0,2
1091,-3.0,-12.0,-4.0,-5.0,-6.0,-3.0,-2.0,-2.0,1651071760408936.0,2
1092,2.0,3.0,5.0,6.0,9.0,7.0,3.0,1.0,1651071760410956.0,2
1093,-2.0,-4.0,4.0,3.0,-11.0,-2.0,-3.0,-1.0,1651071760410956.0,2
1094,2.0,3.0,5.0,2.0,-2.0,-4.0,0.0,-1.0,1651071760431984.0,2
1095,0.0,3.0,-7.0,0.0,0.0,3.0,0.0,3.0,1651071760431984.0,2
1096,-1.0,2.0,1.0,-7.0,-3.0,-9.0,1.0,1.0,1651071760432970.0,2
1097,0.0,-3.0,-6.0,-1.0,-7.0,7.0,-1.0,0.0,1651071760432970.0,2
1098,-1.0,1.0,-5.0,-2.0,10.0,2.0,-1.0,1.0,1651071760444994.0,2
1099,0.0,1.0,24.0,20.0,-7.0,-4.0,0.0,-2.0,1651071760444994.0,2
1100,-2.0,-6.0,-27.0,-14.0,6.0,2.0,2.0,1.0,1651071760453903.0,2
1101,-1.0,-1.0,0.0,-3.0,-9.0,0.0,0.0,0.0,1651071760453903.0,2
1102,0.0,1.0,3.0,-5.0,2.0,-1.0,1.0,0.0,1651071760468930.0,2
1103,1.0,5.0,2.0,-3.0,1.0,3.0,-2.0,-1.0,1651071760468930.0,2
1104,1.0,2.0,3.0,12.0,-5.0,-5.0,-4.0,-4.0,1651071760470858.0,2
1105,-1.0,-1.0,1.0,-11.0,14.0,6.0,3.0,3.0,1651071760470858.0,2
1106,-3.0,-1.0,3.0,10.0,4.0,1.0,-2.0,-3.0,1651071760491684.0,2
1107,-1.0,-2.0,-23.0,-8.0,0.0,-3.0,0.0,-1.0,1651071760491684.0,2
1108,-2.0,-2.0,6.0,13.0,-4.0,-2.0,0.0,1.0,1651071760492711.0,2
1109,1.0,3.0,3.0,0.0,-11.0,-10.0,-2.0,0.0,1651071760492711.0,2
1110,2.0,-2.0,-13.0,-15.0,4.0,14.0,2.0,-2.0,1651071760505090.0,2
1111,0.0,0.0,5.0,6.0,-4.0,-2.0,1.0,0.0,1651071760505090.0,2
1112,-1.0,0.0,6.0,5.0,-4.0,-1.0,-2.0,-2.0,1651071760514066.0,2
1113,-2.0,-5.0,-7.0,-9.0,-1.0,0.0,-2.0,-1.0,1651071760514066.0,2
1114,-1.0,-1.0,4.0,-1.0,0.0,-5.0,-3.0,1.0,1651071760529209.0,2
1115,9.0,3.0,-5.0,2.0,0.0,0.0,0.0,0.0,1651071760529209.0,2
1116,-16.0,-6.0,-4.0,-7.0,7.0,9.0,0.0,1.0,1651071760530168.0,2
1117,2.0,-1.0,5.0,16.0,-5.0,-7.0,-1.0,-3.0,1651071760530168.0,2
1118,-1.0,-4.0,-3.0,-6.0,-7.0,-5.0,-1.0,-1.0,1651071760552377.0,2
1119,-2.0,1.0,-4.0,-2.0,4.0,0.0,0.0,0.0,1651071760552377.0,2
1120,4.0,3.0,4.0,-3.0,0.0,7.0,2.0,-1.0,1651071760553306.0,2
1121,0.0,-1.0,2.0,2.0,-3.0,-5.0,0.0,0.0,1651071760553306.0,2
1122,-3.0,-2.0,-6.0,7.0,1.0,-9.0,-3.0,-3.0,1651071760565367.0,2
1123,-1.0,-3.0,3.0,-6.0,-11.0,3.0,0.0,-1.0,1651071760565367.0,2
1124,4.0,-1.0,-10.0,-8.0,8.0,0.0,1.0,0.0,1651071760574320.0,2
1125,-2.0,-3.0,-2.0,-6.0,-2.0,5.0,0.0,-1.0,1651071760574320.0,2
1126,3.0,-3.0,0.0,5.0,1.0,0.0,-1.0,-1.0,1651071760589435.0,2
1127,-2.0,-2.0,7.0,2.0,1.0,-3.0,-2.0,-1.0,1651071760589435.0,2
1128,1.0,-1.0,-3.0,-6.0,-7.0,-4.0,-4.0,-1.0,1651071760590432.0,2
1129,-1.0,0.0,-3.0,-12.0,-5.0,0.0,0.0,-1.0,1651071760590432.0,2
1130,-2.0,0.0,2.0,14.0,0.0,-3.0,-1.0,-2.0,1651071760611443.0,2
1131,-3.0,-1.0,0.0,0.0,3.0,2.0,-1.0,-1.0,1651071760611443.0,2
1132,0.0,-1.0,-2.0,-4.0,-1.0,1.0,0.0,-1.0,1651071760613397.0,2
1133,0.0,-2.0,4.0,2.0,-1.0,-3.0,-2.0,0.0,1651071760613397.0,2
1134,-1.0,0.0,1.0,-1.0,-8.0,-9.0,-4.0,-2.0,1651071760634207.0,2
1135,-1.0,-1.0,-5.0,-3.0,2.0,3.0,2.0,-1.0,1651071760634207.0,2
1136,3.0,2.0,10.0,23.0,13.0,14.0,2.0,0.0,1651071760635235.0,2
1137,-2.0,-6.0,-23.0,-29.0,-2.0,-3.0,0.0,0.0,1651071760635235.0,2
1138,1.0,2.0,3.0,-6.0,-16.0,-5.0,1.0,1.0,1651071760649285.0,2
1139,-2.0,-4.0,-15.0,1.0,9.0,0.0,-1.0,0.0,1651071760649285.0,2
1140,1.0,4.0,34.0,14.0,-3.0,-10.0,-3.0,-2.0,1651071760650252.0,2
1141,-2.0,-1.0,-18.0,-4.0,-12.0,-4.0,0.0,-1.0,1651071760650252.0,2
1142,2.0,5.0,3.0,-6.0,10.0,10.0,2.0,2.0,1651071760671283.0,2
1143,-4.0,-15.0,-18.0,-11.0,-9.0,-5.0,-3.0,-3.0,1651071760671283.0,2
1144,1.0,7.0,-4.0,-7.0,1.0,0.0,0.0,-1.0,1651071760673265.0,2
1145,0.0,-2.0,5.0,10.0,3.0,0.0,0.0,-1.0,1651071760673265.0,2
1146,6.0,0.0,-12.0,-14.0,-4.0,-4.0,1.0,-1.0,1651071760685410.0,2
1147,-15.0,5.0,36.0,25.0,0.0,2.0,1.0,-1.0,1651071760685410.0,2
1148,-1.0,-7.0,-37.0,-25.0,-9.0,-3.0,-1.0,0.0,1651071760694327.0,2
1149,1.0,8.0,20.0,2.0,-4.0,-5.0,-1.0,0.0,1651071760694327.0,2
1150,-4.0,-14.0,-23.0,13.0,8.0,-4.0,-1.0,-1.0,1651071760709434.0,2
1151,3.0,4.0,11.0,-3.0,5.0,14.0,0.0,-1.0,1651071760709434.0,2
1152,1.0,1.0,-25.0,1.0,1.0,-2.0,0.0,0.0,1651071760710439.0,2
1153,3.0,-9.0,-26.0,-7.0,1.0,-1.0,1.0,1.0,1651071760710439.0,2
1154,-1.0,4.0,22.0,-2.0,-2.0,3.0,0.0,-1.0,1651071760731673.0,2
1155,4.0,14.0,9.0,12.0,6.0,-4.0,0.0,-1.0,1651071760731673.0,2
1156,-6.0,-16.0,6.0,-11.0,-15.0,-11.0,-2.0,-1.0,1651071760732673.0,2
1157,16.0,8.0,15.0,5.0,7.0,9.0,1.0,1.0,1651071760732673.0,2
1158,-19.0,-11.0,-13.0,18.0,11.0,4.0,-1.0,0.0,1651071760744843.0,2
1159,0.0,7.0,-5.0,-12.0,-10.0,-4.0,0.0,-2.0,1651071760744843.0,2
1160,0.0,9.0,34.0,7.0,-1.0,-1.0,-2.0,0.0,1651071760754338.0,2
1161,-1.0,-5.0,-6.0,5.0,1.0,-4.0,-1.0,-1.0,1651071760754338.0,2
1162,6.0,2.0,22.0,0.0,-3.0,1.0,-1.0,-1.0,1651071760769298.0,2
1163,27.0,-11.0,-46.0,-17.0,1.0,-1.0,2.0,3.0,1651071760769298.0,2
1164,-19.0,21.0,-2.0,7.0,4.0,0.0,1.0,-2.0,1651071760770295.0,2
1165,-2.0,8.0,33.0,-4.0,-4.0,0.0,-2.0,-3.0,1651071760770295.0,2
1166,-6.0,-11.0,-4.0,-7.0,-3.0,0.0,1.0,-1.0,1651071760791422.0,2
1167,5.0,5.0,7.0,9.0,7.0,4.0,-2.0,2.0,1651071760791422.0,2
1168,17.0,2.0,17.0,-2.0,0.0,-2.0,-2.0,-1.0,1651071760793349.0,2
1169,-17.0,-3.0,3.0,5.0,-8.0,-5.0,-1.0,-1.0,1651071760793349.0,2
1170,7.0,14.0,-16.0,-15.0,-6.0,-4.0,0.0,0.0,1651071760805427.0,2
1171,-3.0,-13.0,0.0,-5.0,4.0,5.0,1.0,-1.0,1651071760805427.0,2
1172,-1.0,-8.0,-16.0,4.0,6.0,4.0,-1.0,-1.0,1651071760813627.0,2
1173,-13.0,15.0,12.0,1.0,-3.0,-1.0,-1.0,-1.0,1651071760813627.0,2
1174,12.0,-6.0,-10.0,-11.0,-4.0,-9.0,-2.0,-2.0,1651071760829505.0,2
1175,-6.0,6.0,11.0,0.0,0.0,-1.0,-1.0,0.0,1651071760829505.0,2
1176,-3.0,-15.0,-18.0,0.0,-4.0,0.0,0.0,-1.0,1651071760830501.0,2
1177,5.0,9.0,24.0,2.0,1.0,-2.0,0.0,1.0,1651071760830501.0,2
1178,-6.0,-9.0,-28.0,-5.0,-4.0,1.0,0.0,1.0,1651071760851536.0,2
1179,-4.0,1.0,-10.0,5.0,0.0,-3.0,-1.0,0.0,1651071760851536.0,2
1180,0.0,-3.0,0.0,-6.0,-3.0,0.0,1.0,0.0,1651071760853489.0,2
1181,2.0,7.0,17.0,17.0,-1.0,0.0,0.0,0.0,1651071760853489.0,2
1182,-4.0,-1.0,3.0,6.0,2.0,0.0,-1.0,-1.0,1651071760874196.0,2
1183,-3.0,5.0,36.0,-1.0,-5.0,-1.0,-1.0,-1.0,1651071760874196.0,2
1184,-2.0,-5.0,-22.0,-8.0,2.0,-2.0,-2.0,-1.0,1651071760875196.0,2
1185,-1.0,-19.0,-46.0,-13.0,-8.0,-4.0,-1.0,-3.0,1651071760875196.0,2
1186,-2.0,6.0,29.0,4.0,7.0,4.0,-2.0,1.0,1651071760889255.0,2
1187,-5.0,-8.0,-67.0,-20.0,-5.0,-14.0,-4.0,-1.0,1651071760889255.0,2
1188,1.0,-2.0,3.0,3.0,-3.0,10.0,0.0,-2.0,1651071760890186.0,2
1189,4.0,2.0,2.0,-14.0,-1.0,-6.0,0.0,1.0,1651071760890186.0,2
1190,-1.0,4.0,11.0,17.0,7.0,10.0,2.0,0.0,1651071760911910.0,2
1191,0.0,-1.0,25.0,5.0,3.0,2.0,0.0,0.0,1651071760911910.0,2
1192,0.0,-7.0,-37.0,-13.0,-2.0,-4.0,-2.0,0.0,1651071760912841.0,2
1193,-2.0,3.0,6.0,0.0,0.0,1.0,2.0,-1.0,1651071760912841.0,2
1194,-1.0,3.0,31.0,9.0,-2.0,-1.0,-1.0,1.0,1651071760934034.0,2
1195,1.0,4.0,-9.0,-14.0,-4.0,-1.0,0.0,-1.0,1651071760934034.0,2
1196,-3.0,-23.0,-19.0,7.0,-3.0,-6.0,-3.0,-2.0,1651071760936056.0,2
1197,4.0,7.0,39.0,10.0,4.0,3.0,-1.0,0.0,1651071760936056.0,2
1198,-2.0,-5.0,-32.0,-19.0,-1.0,-2.0,0.0,1.0,1651071760949115.0,2
1199,-2.0,3.0,9.0,-11.0,-6.0,0.0,1.0,-2.0,1651071760949115.0,2
1200,1.0,5.0,9.0,15.0,5.0,0.0,-1.0,0.0,1651071760950143.0,2
1201,-1.0,-2.0,-8.0,3.0,-5.0,-2.0,-2.0,-2.0,1651071760950143.0,2
1202,0.0,2.0,6.0,-7.0,0.0,1.0,0.0,0.0,1651071760971617.0,2
1203,-3.0,-7.0,-9.0,6.0,0.0,-2.0,-3.0,-3.0,1651071760971617.0,2
1204,0.0,8.0,25.0,14.0,2.0,1.0,0.0,0.0,1651071760972645.0,2
1205,0.0,-12.0,-20.0,-7.0,0.0,1.0,1.0,0.0,1651071760972645.0,2
1206,0.0,2.0,-20.0,2.0,-3.0,-1.0,-2.0,-1.0,1651071761001489.0,2
1207,-3.0,-4.0,22.0,-8.0,-2.0,-1.0,0.0,-2.0,1651071761001489.0,2
1208,2.0,8.0,-19.0,7.0,0.0,-3.0,0.0,0.0,1651071761003413.0,2
1209,-1.0,-7.0,-10.0,3.0,1.0,0.0,0.0,0.0,1651071761003413.0,2
1210,-4.0,-16.0,-14.0,-5.0,-3.0,1.0,-1.0,0.0,1651071761009397.0,2
1211,-1.0,-1.0,13.0,-3.0,0.0,-2.0,-1.0,1.0,1651071761009397.0,2
1212,0.0,-4.0,-12.0,-5.0,-3.0,-1.0,-1.0,-1.0,1651071761010394.0,2
1213,-3.0,-8.0,-6.0,-3.0,1.0,4.0,0.0,-1.0,1651071761010394.0,2
1214,1.0,2.0,7.0,0.0,-3.0,-7.0,-1.0,-1.0,1651071761031489.0,2
1215,-3.0,-7.0,-10.0,13.0,1.0,-2.0,-2.0,-2.0,1651071761031489.0,2
1216,1.0,6.0,26.0,-1.0,2.0,9.0,0.0,0.0,1651071761033417.0,2
1217,2.0,2.0,-6.0,-5.0,-2.0,-4.0,-1.0,1.0,1651071761033417.0,2
1218,-2.0,-7.0,0.0,-11.0,-1.0,-2.0,0.0,0.0,1651071761054142.0,2
1219,-1.0,3.0,11.0,11.0,-1.0,3.0,1.0,0.0,1651071761054142.0,2
1220,-1.0,0.0,13.0,7.0,-1.0,-5.0,-1.0,0.0,1651071761055501.0,2
1221,-2.0,-4.0,-3.0,-4.0,-3.0,-1.0,-3.0,-3.0,1651071761055501.0,2
1222,0.0,5.0,17.0,3.0,-2.0,0.0,-1.0,-1.0,1651071761068533.0,2
1223,3.0,7.0,-5.0,-5.0,-2.0,-5.0,1.0,0.0,1651071761068533.0,2
1224,-2.0,-15.0,3.0,-9.0,-3.0,-1.0,1.0,-3.0,1651071761075514.0,2
1225,-2.0,-2.0,-4.0,3.0,6.0,7.0,-1.0,0.0,1651071761075514.0,2
1226,-1.0,-10.0,-18.0,8.0,-8.0,-8.0,-2.0,-2.0,1651071761091627.0,2
1227,1.0,4.0,8.0,0.0,3.0,3.0,1.0,2.0,1651071761091627.0,2
1228,2.0,9.0,9.0,-4.0,8.0,4.0,2.0,2.0,1651071761093554.0,2
1229,1.0,-2.0,1.0,-2.0,-4.0,-2.0,-1.0,-1.0,1651071761093554.0,2
1230,-2.0,0.0,-3.0,7.0,-3.0,-3.0,-1.0,-2.0,1651071761114193.0,2
1231,1.0,-3.0,-7.0,1.0,-3.0,-2.0,0.0,0.0,1651071761114193.0,2
1232,-2.0,-3.0,0.0,-4.0,-1.0,4.0,0.0,-1.0,1651071761115212.0,2
1233,-1.0,1.0,-10.0,-4.0,-2.0,-4.0,-1.0,0.0,1651071761115212.0,2
1234,1.0,4.0,-6.0,-4.0,8.0,6.0,0.0,0.0,1651071761128213.0,2
1235,-1.0,3.0,35.0,4.0,-6.0,-4.0,-2.0,-1.0,1651071761128213.0,2
1236,-3.0,-3.0,-13.0,8.0,-4.0,-7.0,-1.0,-2.0,1651071761135272.0,2
1237,1.0,-3.0,-11.0,0.0,6.0,0.0,-2.0,0.0,1651071761135272.0,2
1238,-1.0,4.0,7.0,-6.0,-4.0,-4.0,-2.0,-1.0,1651071761151229.0,2
1239,-1.0,4.0,1.0,12.0,8.0,6.0,0.0,0.0,1651071761151229.0,2
1240,1.0,5.0,6.0,-9.0,-5.0,0.0,0.0,-1.0,1651071761153158.0,2
1241,-1.0,0.0,-2.0,2.0,-3.0,-2.0,1.0,-1.0,1651071761153158.0,2
1242,1.0,5.0,2.0,-3.0,0.0,1.0,0.0,0.0,1651071761174122.0,2
1243,1.0,-3.0,-6.0,-5.0,0.0,-1.0,1.0,-1.0,1651071761174122.0,2
1244,0.0,0.0,-10.0,-2.0,-2.0,-1.0,-1.0,0.0,1651071761176095.0,2
1245,-3.0,-16.0,-13.0,-1.0,-1.0,-3.0,-1.0,1.0,1651071761176095.0,2
1246,-1.0,1.0,16.0,2.0,7.0,5.0,3.0,0.0,1651071761188066.0,2
1247,-1.0,1.0,-2.0,-1.0,-6.0,-2.0,-2.0,-1.0,1651071761188066.0,2
1248,1.0,5.0,-3.0,4.0,3.0,-2.0,-1.0,-1.0,1651071761195072.0,2
1249,0.0,-1.0,3.0,-14.0,-9.0,-8.0,-1.0,0.0,1651071761195072.0,2
1250,1.0,-2.0,-10.0,6.0,13.0,11.0,-1.0,0.0,1651071761211108.0,2
1251,-2.0,-3.0,-2.0,20.0,4.0,3.0,1.0,1.0,1651071761211108.0,2
1252,0.0,3.0,9.0,-4.0,2.0,-1.0,-1.0,0.0,1651071761213110.0,2
1253,1.0,4.0,0.0,-3.0,-1.0,0.0,1.0,-1.0,1651071761213110.0,2
1254,0.0,-1.0,1.0,-2.0,-10.0,-4.0,-2.0,0.0,1651071761234080.0,2
1255,1.0,1.0,-12.0,-5.0,-1.0,-8.0,0.0,-2.0,1651071761234080.0,2
1256,1.0,-3.0,8.0,-5.0,2.0,6.0,-2.0,0.0,1651071761236054.0,2
1257,-1.0,3.0,3.0,4.0,1.0,2.0,-1.0,-1.0,1651071761236054.0,2
1258,-1.0,-2.0,-2.0,-4.0,-2.0,-2.0,0.0,0.0,1651071761248049.0,2
1259,1.0,3.0,-2.0,-1.0,-3.0,-4.0,-2.0,-1.0,1651071761248049.0,2
1260,0.0,2.0,3.0,-1.0,-1.0,-5.0,0.0,1.0,1651071761255169.0,2
1261,-3.0,-2.0,5.0,1.0,1.0,2.0,0.0,-1.0,1651071761255169.0,2
1262,1.0,7.0,-2.0,-7.0,-4.0,-2.0,-1.0,-2.0,1651071761271306.0,2
1263,0.0,2.0,2.0,-5.0,-3.0,3.0,-1.0,-2.0,1651071761271306.0,2
1264,1.0,-1.0,6.0,0.0,-2.0,-3.0,1.0,-1.0,1651071761273330.0,2
1265,2.0,0.0,1.0,14.0,9.0,4.0,-1.0,-1.0,1651071761273330.0,2
1266,-3.0,3.0,-10.0,-11.0,-8.0,-4.0,0.0,-1.0,1651071761294437.0,2
1267,-1.0,-2.0,-6.0,-9.0,-1.0,2.0,0.0,1.0,1651071761294437.0,2
1268,-2.0,-2.0,9.0,-1.0,-5.0,0.0,0.0,0.0,1651071761295423.0,2
1269,0.0,4.0,3.0,-1.0,0.0,-5.0,1.0,0.0,1651071761295423.0,2
1270,2.0,-4.0,5.0,-3.0,0.0,3.0,0.0,-1.0,1651071761308249.0,2
1271,-1.0,-2.0,5.0,0.0,-1.0,-3.0,-1.0,-1.0,1651071761308249.0,2
1272,-2.0,-4.0,-12.0,0.0,-1.0,-4.0,-2.0,0.0,1651071761315230.0,2
1273,-1.0,1.0,6.0,1.0,2.0,7.0,1.0,-1.0,1651071761315230.0,2
1274,-2.0,-6.0,-8.0,16.0,-2.0,-13.0,-4.0,-1.0,1651071761331282.0,2
1275,-2.0,-7.0,-7.0,-7.0,-4.0,12.0,0.0,-1.0,1651071761331282.0,2
1276,0.0,-3.0,-9.0,-2.0,0.0,-6.0,0.0,-2.0,1651071761333210.0,2
1277,-1.0,0.0,-16.0,-4.0,-2.0,0.0,-1.0,0.0,1651071761333210.0,2
1278,0.0,2.0,18.0,3.0,4.0,0.0,0.0,1.0,1651071761354266.0,2
1279,-1.0,-5.0,-32.0,-11.0,-3.0,-4.0,-2.0,-2.0,1651071761354266.0,2
1280,0.0,0.0,1.0,-9.0,0.0,2.0,0.0,1.0,1651071761355277.0,2
1281,1.0,5.0,6.0,9.0,-2.0,-2.0,1.0,0.0,1651071761355277.0,2
1282,-4.0,-1.0,4.0,-1.0,-2.0,0.0,-1.0,-2.0,1651071761367702.0,2
1283,0.0,-2.0,-4.0,2.0,5.0,1.0,-1.0,2.0,1651071761367702.0,2
1284,-2.0,-7.0,1.0,-1.0,-4.0,-2.0,-3.0,-2.0,1651071761384680.0,2
1285,-2.0,0.0,-11.0,-5.0,-5.0,-6.0,-2.0,-1.0,1651071761384680.0,2
1286,0.0,4.0,-6.0,2.0,-1.0,8.0,1.0,0.0,1651071761391686.0,2
1287,-3.0,-5.0,13.0,-8.0,4.0,-1.0,-1.0,0.0,1651071761391686.0,2
1288,2.0,8.0,10.0,7.0,1.0,0.0,0.0,-1.0,1651071761392724.0,2
1289,-1.0,1.0,9.0,2.0,-1.0,-1.0,-2.0,-1.0,1651071761392724.0,2
1290,1.0,0.0,-5.0,0.0,1.0,-11.0,-3.0,-3.0,1651071761414135.0,2
1291,0.0,1.0,-2.0,-3.0,-2.0,9.0,1.0,-1.0,1651071761414135.0,2
1292,0.0,0.0,3.0,0.0,-3.0,-3.0,-1.0,0.0,1651071761415748.0,2
1293,-1.0,2.0,6.0,-1.0,-4.0,-5.0,-1.0,-3.0,1651071761415748.0,2
1294,0.0,-2.0,-18.0,-10.0,3.0,3.0,1.0,1.0,1651071761427715.0,2
1295,1.0,1.0,6.0,9.0,7.0,-2.0,2.0,0.0,1651071761427715.0,2
1296,-1.0,4.0,22.0,-5.0,-1.0,-3.0,-1.0,-1.0,1651071761436691.0,2
1297,-1.0,-4.0,-8.0,15.0,4.0,4.0,-1.0,-1.0,1651071761436691.0,2
1298,1.0,1.0,1.0,1.0,1.0,1.0,-1.0,-1.0,1651071761451981.0,2
1299,-1.0,-3.0,-1.0,4.0,-4.0,-7.0,-2.0,-2.0,1651071761451981.0,2
1300,0.0,-1.0,2.0,-1.0,2.0,-3.0,-1.0,-1.0,1651071761452981.0,2
1301,1.0,2.0,-3.0,-8.0,6.0,11.0,3.0,1.0,1651071761452981.0,2
1302,0.0,-2.0,6.0,-2.0,-1.0,-1.0,3.0,0.0,1651071761474197.0,0
1303,0.0,2.0,-5.0,18.0,1.0,-1.0,0.0,1.0,1651071761474197.0,3
1304,-3.0,-7.0,-13.0,-10.0,-12.0,-6.0,-3.0,-2.0,1651071761475224.0,3
1305,1.0,0.0,2.0,-4.0,-3.0,-2.0,-4.0,-1.0,1651071761475224.0,3
1306,1.0,0.0,-13.0,0.0,5.0,1.0,-1.0,0.0,1651071761488170.0,3
1307,0.0,-1.0,6.0,-7.0,-4.0,-2.0,0.0,0.0,1651071761488170.0,3
1308,-1.0,1.0,-2.0,-2.0,-1.0,0.0,-1.0,0.0,1651071761497139.0,3
1309,0.0,-2.0,-3.0,5.0,-8.0,-2.0,1.0,0.0,1651071761497139.0,3
1310,0.0,0.0,8.0,-4.0,4.0,-6.0,-1.0,-2.0,1651071761511179.0,3
1311,-1.0,0.0,-2.0,1.0,-2.0,7.0,-1.0,-1.0,1651071761511179.0,3
1312,2.0,1.0,-5.0,4.0,5.0,3.0,1.0,3.0,1651071761513190.0,3
1313,-2.0,-4.0,4.0,-5.0,-1.0,0.0,0.0,-1.0,1651071761513190.0,3
1314,-1.0,2.0,7.0,6.0,-4.0,-1.0,0.0,-1.0,1651071761533872.0,3
1315,-1.0,-3.0,-1.0,-1.0,0.0,-5.0,-2.0,-1.0,1651071761533872.0,3
1316,-1.0,0.0,-12.0,-6.0,-2.0,2.0,-1.0,0.0,1651071761535886.0,3
1317,1.0,1.0,-6.0,-8.0,-3.0,-1.0,1.0,1.0,1651071761535886.0,3
1318,-2.0,1.0,21.0,1.0,-3.0,-4.0,-1.0,0.0,1651071761548008.0,3
1319,-1.0,-9.0,-17.0,1.0,4.0,-2.0,-1.0,-2.0,1651071761548008.0,3
1320,-1.0,4.0,13.0,18.0,6.0,6.0,2.0,-2.0,1651071761557083.0,3
1321,1.0,2.0,-12.0,3.0,0.0,-5.0,-1.0,-2.0,1651071761557083.0,3
1322,-1.0,-2.0,0.0,-4.0,-3.0,1.0,-1.0,-1.0,1651071761571701.0,3
1323,2.0,2.0,1.0,-5.0,-4.0,-1.0,0.0,1.0,1651071761571701.0,3
1324,0.0,1.0,3.0,5.0,-3.0,-7.0,0.0,-1.0,1651071761572701.0,3
1325,-2.0,-2.0,10.0,0.0,9.0,5.0,-1.0,-1.0,1651071761572701.0,3
1326,-2.0,-2.0,-5.0,-5.0,-5.0,3.0,1.0,0.0,1651071761594439.0,3
1327,-4.0,-1.0,-3.0,-6.0,0.0,-4.0,0.0,1.0,1651071761594439.0,3
1328,0.0,-5.0,-11.0,-2.0,1.0,4.0,1.0,0.0,1651071761595451.0,3
1329,1.0,-2.0,-1.0,1.0,-2.0,-4.0,-1.0,0.0,1651071761595451.0,3
1330,0.0,-4.0,-4.0,-7.0,-2.0,0.0,-1.0,-2.0,1651071761617452.0,3
1331,1.0,0.0,5.0,1.0,-5.0,-3.0,-2.0,-2.0,1651071761617452.0,3
1332,-2.0,-2.0,-6.0,-1.0,-5.0,-6.0,0.0,-1.0,1651071761618376.0,3
1333,-1.0,-2.0,2.0,-1.0,0.0,7.0,1.0,-1.0,1651071761618376.0,3
1334,0.0,0.0,0.0,2.0,2.0,0.0,0.0,-1.0,1651071761631407.0,3
1335,2.0,3.0,-1.0,-4.0,1.0,1.0,1.0,1.0,1651071761631407.0,3
1336,1.0,0.0,-2.0,-3.0,0.0,-2.0,-1.0,-2.0,1651071761633336.0,3
1337,-2.0,-3.0,-7.0,-8.0,-4.0,-4.0,-1.0,0.0,1651071761633336.0,3
1338,2.0,6.0,4.0,-6.0,0.0,2.0,-1.0,2.0,1651071761653547.0,3
1339,-2.0,-3.0,15.0,5.0,-8.0,-8.0,-4.0,-2.0,1651071761653547.0,3
1340,-2.0,-20.0,-43.0,0.0,4.0,-1.0,-3.0,-3.0,1651071761660625.0,3
1341,2.0,3.0,6.0,8.0,6.0,8.0,1.0,1.0,1651071761660625.0,3
1342,-3.0,1.0,-4.0,0.0,4.0,2.0,2.0,0.0,1651071761667676.0,3
1343,0.0,9.0,5.0,-16.0,-5.0,0.0,3.0,0.0,1651071761667676.0,3
1344,-3.0,-6.0,-1.0,2.0,-5.0,-1.0,-2.0,-1.0,1651071761676586.0,3
1345,2.0,-1.0,-8.0,5.0,-1.0,-2.0,0.0,-1.0,1651071761676586.0,3
1346,-1.0,0.0,4.0,3.0,2.0,1.0,1.0,0.0,1651071761691346.0,3
1347,-2.0,-1.0,-3.0,3.0,6.0,-1.0,-2.0,-1.0,1651071761691346.0,3
1348,1.0,6.0,7.0,-3.0,-5.0,-1.0,-1.0,1.0,1651071761693391.0,3
1349,-2.0,-6.0,-7.0,-5.0,3.0,1.0,0.0,0.0,1651071761693391.0,3
1350,1.0,-2.0,5.0,0.0,-6.0,-3.0,-2.0,0.0,1651071761714288.0,3
1351,1.0,-2.0,-6.0,0.0,2.0,5.0,-1.0,-1.0,1651071761714288.0,3
1352,3.0,5.0,14.0,-3.0,1.0,2.0,2.0,0.0,1651071761715323.0,3
1353,-1.0,1.0,3.0,-5.0,-3.0,-6.0,-2.0,-1.0,1651071761715323.0,3
1354,1.0,0.0,3.0,4.0,0.0,0.0,-1.0,-1.0,1651071761727320.0,3
1355,-1.0,5.0,5.0,-5.0,0.0,-4.0,-1.0,-3.0,1651071761727320.0,3
1356,-1.0,-3.0,-1.0,10.0,0.0,-1.0,0.0,-1.0,1651071761736329.0,3
1357,0.0,-1.0,-1.0,-2.0,-7.0,-5.0,-1.0,0.0,1651071761736329.0,3
1358,-1.0,-3.0,-7.0,0.0,5.0,4.0,-1.0,-1.0,1651071761751734.0,3
1359,0.0,0.0,-2.0,0.0,2.0,1.0,-1.0,1.0,1651071761751734.0,3
1360,0.0,5.0,6.0,-6.0,-1.0,2.0,-1.0,-1.0,1651071761752687.0,3
1361,0.0,5.0,2.0,12.0,0.0,-4.0,0.0,0.0,1651071761752687.0,3
1362,-3.0,-17.0,-17.0,-12.0,-7.0,-4.0,-2.0,-1.0,1651071761773788.0,3
1363,-2.0,1.0,24.0,5.0,0.0,-2.0,1.0,-2.0,1651071761773788.0,3
1364,-3.0,-3.0,-25.0,-6.0,4.0,4.0,-2.0,1.0,1651071761775717.0,3
1365,-1.0,-4.0,0.0,-1.0,-7.0,-3.0,0.0,-2.0,1651071761775717.0,3
1366,2.0,5.0,0.0,0.0,6.0,2.0,0.0,-1.0,1651071761797023.0,3
1367,0.0,-3.0,-4.0,2.0,3.0,1.0,1.0,2.0,1651071761797023.0,3
1368,0.0,2.0,10.0,-2.0,-3.0,-1.0,1.0,-1.0,1651071761797991.0,3
1369,1.0,3.0,0.0,-7.0,0.0,1.0,-1.0,-2.0,1651071761797991.0,3
1370,-3.0,-8.0,-13.0,16.0,-4.0,-3.0,-1.0,-3.0,1651071761811068.0,3
1371,-2.0,-4.0,1.0,-1.0,-3.0,-7.0,-1.0,-3.0,1651071761811068.0,3
1372,0.0,7.0,17.0,5.0,1.0,3.0,0.0,0.0,1651071761813067.0,3
1373,-1.0,-1.0,-4.0,-5.0,5.0,1.0,-1.0,1.0,1651071761813067.0,3
1374,1.0,4.0,1.0,-7.0,3.0,7.0,0.0,0.0,1651071761834229.0,3
1375,-1.0,-3.0,-14.0,0.0,0.0,0.0,-1.0,0.0,1651071761834229.0,3
1376,-1.0,0.0,-3.0,-4.0,-11.0,-2.0,-2.0,1.0,1651071761835255.0,3
1377,-2.0,-2.0,2.0,-3.0,1.0,-1.0,-3.0,1.0,1651071761835255.0,3
1378,0.0,0.0,2.0,0.0,-6.0,-8.0,1.0,-2.0,1651071761856185.0,3
1379,-1.0,0.0,-6.0,-8.0,-2.0,2.0,1.0,0.0,1651071761856185.0,3
1380,-2.0,2.0,13.0,24.0,5.0,-2.0,-1.0,0.0,1651071761858180.0,3
1381,-4.0,-8.0,-3.0,5.0,-2.0,-1.0,-3.0,-3.0,1651071761858180.0,3
1382,-2.0,3.0,4.0,-7.0,-4.0,-1.0,-2.0,2.0,1651071761871696.0,3
1383,2.0,-2.0,-4.0,0.0,-9.0,-2.0,1.0,0.0,1651071761871696.0,3
1384,3.0,-1.0,2.0,-9.0,10.0,8.0,4.0,2.0,1651071761872696.0,3
1385,-2.0,1.0,-4.0,-2.0,1.0,-1.0,1.0,-1.0,1651071761872696.0,3
1386,-1.0,4.0,2.0,4.0,0.0,-2.0,-2.0,-1.0,1651071761893763.0,3
1387,-3.0,-6.0,6.0,-7.0,-2.0,-2.0,-1.0,-2.0,1651071761893763.0,3
1388,0.0,4.0,13.0,16.0,3.0,-4.0,-1.0,-1.0,1651071761895691.0,3
1389,-1.0,-3.0,-15.0,-26.0,-3.0,2.0,2.0,1.0,1651071761895691.0,3
1390,1.0,4.0,13.0,15.0,-3.0,-11.0,-2.0,0.0,1651071761916798.0,3
1391,2.0,2.0,-3.0,-2.0,-3.0,11.0,0.0,1.0,1651071761916798.0,3
1392,0.0,-1.0,-5.0,-13.0,-2.0,-2.0,-1.0,-1.0,1651071761917736.0,3
1393,2.0,4.0,4.0,9.0,0.0,-5.0,2.0,0.0,1651071761917736.0,3
1394,-1.0,-2.0,-2.0,-12.0,5.0,7.0,0.0,-1.0,1651071761938739.0,3
1395,-2.0,-6.0,-11.0,8.0,1.0,-6.0,1.0,1.0,1651071761938739.0,3
1396,0.0,-3.0,-5.0,-10.0,-6.0,-1.0,-1.0,0.0,1651071761940668.0,3
1397,0.0,0.0,1.0,-4.0,5.0,2.0,2.0,-1.0,1651071761940668.0,3
1398,-1.0,-3.0,-6.0,-5.0,-8.0,-3.0,0.0,0.0,1651071761954146.0,3
1399,1.0,-3.0,-1.0,12.0,6.0,-2.0,-1.0,-1.0,1651071761954146.0,3
1400,-1.0,2.0,4.0,3.0,4.0,1.0,-2.0,-1.0,1651071761955709.0,3
1401,-1.0,-2.0,0.0,0.0,-6.0,-4.0,-2.0,1.0,1651071761955709.0,3
1402,-1.0,-1.0,-4.0,0.0,2.0,0.0,1.0,-1.0,1651071761976720.0,3
1403,-2.0,2.0,4.0,-3.0,3.0,3.0,-1.0,-1.0,1651071761976720.0,3
1404,-1.0,0.0,-8.0,-14.0,-8.0,-6.0,-3.0,1.0,1651071761977650.0,3
1405,0.0,-1.0,4.0,5.0,1.0,-2.0,-2.0,-1.0,1651071761977650.0,3
1406,-2.0,-14.0,-6.0,5.0,-1.0,-3.0,-1.0,-1.0,1651071761990683.0,3
1407,1.0,1.0,-2.0,-6.0,-1.0,5.0,1.0,0.0,1651071761990683.0,3
1408,0.0,5.0,-3.0,-7.0,4.0,-1.0,-1.0,0.0,1651071761997663.0,3
1409,-2.0,0.0,7.0,6.0,-2.0,-3.0,-1.0,-3.0,1651071761997663.0,3
1410,0.0,3.0,-5.0,-2.0,-7.0,1.0,0.0,2.0,1651071762013679.0,3
1411,-1.0,-2.0,6.0,7.0,4.0,-8.0,0.0,0.0,1651071762013679.0,3
1412,0.0,3.0,0.0,-14.0,4.0,3.0,0.0,-1.0,1651071762020459.0,3
1413,-2.0,-2.0,-6.0,2.0,-2.0,3.0,0.0,2.0,1651071762020459.0,3
1414,-2.0,-4.0,3.0,3.0,1.0,-4.0,-1.0,-3.0,1651071762036417.0,3
1415,-2.0,-1.0,-10.0,-2.0,-3.0,-1.0,-1.0,-1.0,1651071762036417.0,3
1416,0.0,0.0,5.0,-2.0,-5.0,-1.0,0.0,-1.0,1651071762038372.0,3
1417,0.0,0.0,-1.0,1.0,3.0,2.0,0.0,-2.0,1651071762038372.0,3
1418,-2.0,0.0,-10.0,-10.0,0.0,-2.0,-2.0,-1.0,1651071762051334.0,3
1419,0.0,2.0,2.0,5.0,1.0,0.0,-1.0,1.0,1651071762051334.0,3
1420,-2.0,-4.0,-5.0,-7.0,-2.0,-2.0,-1.0,-1.0,1651071762057295.0,3
1421,-1.0,-1.0,3.0,5.0,-4.0,-5.0,-2.0,-1.0,1651071762057295.0,3
1422,0.0,1.0,2.0,-1.0,-4.0,2.0,1.0,0.0,1651071762074442.0,3
1423,1.0,4.0,11.0,6.0,3.0,5.0,2.0,0.0,1651071762074442.0,3
1424,-2.0,-8.0,-22.0,-3.0,2.0,3.0,0.0,-2.0,1651071762075439.0,3
1425,0.0,0.0,-3.0,-3.0,-2.0,0.0,-1.0,0.0,1651071762075439.0,3
1426,1.0,4.0,6.0,1.0,-9.0,-9.0,0.0,0.0,1651071762096608.0,3
1427,1.0,0.0,-7.0,-12.0,-1.0,2.0,0.0,0.0,1651071762096608.0,3
1428,-2.0,1.0,8.0,14.0,4.0,3.0,1.0,-1.0,1651071762098603.0,3
1429,-1.0,0.0,13.0,5.0,-8.0,-2.0,-2.0,-2.0,1651071762098603.0,3
1430,-1.0,0.0,-1.0,-2.0,2.0,-4.0,-2.0,-1.0,1651071762110617.0,3
1431,-1.0,-2.0,-9.0,-3.0,-1.0,-3.0,-1.0,0.0,1651071762110617.0,3
1432,0.0,3.0,2.0,4.0,-2.0,-1.0,2.0,1.0,1651071762117602.0,3
1433,-1.0,-3.0,-8.0,-8.0,10.0,7.0,1.0,0.0,1651071762117602.0,3
1434,-1.0,1.0,6.0,2.0,-13.0,-7.0,-3.0,-1.0,1651071762134196.0,3
1435,-2.0,-5.0,-3.0,-4.0,-12.0,-9.0,-3.0,-4.0,1651071762134196.0,3
1436,-1.0,1.0,10.0,2.0,4.0,-2.0,-2.0,-1.0,1651071762135233.0,3
1437,0.0,-7.0,-10.0,-5.0,-9.0,-12.0,-1.0,0.0,1651071762135233.0,3
1438,-3.0,-1.0,-4.0,-6.0,9.0,15.0,-1.0,-2.0,1651071762156950.0,3
1439,0.0,2.0,2.0,12.0,6.0,0.0,1.0,0.0,1651071762156950.0,3
1440,-1.0,-1.0,-4.0,-2.0,-4.0,-4.0,0.0,0.0,1651071762157947.0,3
1441,-1.0,2.0,5.0,5.0,-13.0,-11.0,-3.0,-2.0,1651071762157947.0,3
1442,0.0,-1.0,5.0,4.0,2.0,2.0,-2.0,0.0,1651071762170978.0,3
1443,0.0,0.0,-2.0,-3.0,2.0,6.0,1.0,1.0,1651071762170978.0,3
1444,-2.0,-2.0,2.0,-1.0,2.0,3.0,-1.0,1.0,1651071762177961.0,3
1445,1.0,1.0,-2.0,1.0,3.0,3.0,1.0,2.0,1651071762177961.0,3
1446,0.0,0.0,-1.0,8.0,-4.0,-9.0,-1.0,0.0,1651071762193918.0,3
1447,-1.0,-1.0,-2.0,-9.0,-3.0,-4.0,-3.0,-3.0,1651071762193918.0,3
1448,1.0,-3.0,-5.0,-3.0,-4.0,5.0,3.0,2.0,1651071762195873.0,3
1449,-1.0,1.0,9.0,4.0,3.0,1.0,-2.0,-1.0,1651071762195873.0,3
1450,0.0,2.0,3.0,11.0,1.0,1.0,1.0,0.0,1651071762216850.0,3
1451,1.0,-3.0,-2.0,-2.0,9.0,1.0,-1.0,0.0,1651071762216850.0,3
1452,-3.0,-2.0,-2.0,-3.0,-3.0,-5.0,-3.0,-3.0,1651071762217793.0,3
1453,-2.0,-3.0,-6.0,-9.0,0.0,0.0,-2.0,-1.0,1651071762217793.0,3
1454,-2.0,2.0,1.0,-4.0,0.0,1.0,-2.0,-3.0,1651071762230837.0,3
1455,1.0,0.0,4.0,3.0,6.0,3.0,1.0,1.0,1651071762230837.0,3
1456,-1.0,-2.0,-1.0,4.0,6.0,0.0,1.0,0.0,1651071762237882.0,3
1457,0.0,2.0,8.0,11.0,2.0,7.0,2.0,1.0,1651071762237882.0,3
1458,0.0,0.0,-3.0,-12.0,6.0,-1.0,1.0,0.0,1651071762254329.0,3
1459,0.0,-3.0,-11.0,0.0,-3.0,-2.0,-1.0,1.0,1651071762254329.0,3
1460,-3.0,1.0,8.0,2.0,-11.0,-9.0,-5.0,-4.0,1651071762255343.0,3
1461,-3.0,-12.0,-15.0,2.0,12.0,8.0,2.0,-2.0,1651071762255343.0,3
1462,0.0,3.0,4.0,-3.0,1.0,1.0,1.0,1.0,1651071762276202.0,3
1463,0.0,3.0,5.0,11.0,-4.0,-4.0,-4.0,-1.0,1651071762276202.0,3
1464,1.0,-1.0,-1.0,-5.0,-6.0,-4.0,0.0,1.0,1651071762278129.0,3
1465,-1.0,4.0,1.0,0.0,7.0,0.0,-1.0,-1.0,1651071762278129.0,3
1466,0.0,-1.0,0.0,-6.0,7.0,9.0,2.0,0.0,1651071762290097.0,3
1467,-1.0,-1.0,-2.0,-6.0,-14.0,-3.0,0.0,1.0,1651071762290097.0,3
1468,-1.0,-1.0,-5.0,-2.0,-7.0,-9.0,-4.0,-1.0,1651071762299087.0,3
1469,1.0,2.0,3.0,-10.0,-5.0,2.0,3.0,0.0,1651071762299087.0,3
1470,1.0,-1.0,-1.0,16.0,3.0,-1.0,0.0,0.0,1651071762314185.0,3
1471,0.0,0.0,-4.0,-9.0,13.0,11.0,3.0,1.0,1651071762314185.0,3
1472,1.0,-2.0,-1.0,4.0,0.0,-2.0,1.0,1.0,1651071762315205.0,3
1473,0.0,0.0,-2.0,-10.0,-13.0,-7.0,-4.0,1.0,1651071762315205.0,3
1474,-1.0,-1.0,-2.0,-6.0,-3.0,5.0,5.0,2.0,1651071762336417.0,3
1475,-3.0,-2.0,-4.0,-4.0,-4.0,-6.0,-2.0,-3.0,1651071762336417.0,3
1476,2.0,1.0,-5.0,-16.0,-23.0,3.0,-1.0,1.0,1651071762338413.0,3
1477,-1.0,-4.0,-4.0,2.0,32.0,2.0,0.0,-1.0,1651071762338413.0,3
1478,2.0,3.0,7.0,18.0,1.0,2.0,-2.0,-1.0,1651071762350448.0,3
1479,-1.0,-3.0,-6.0,-14.0,-8.0,-8.0,0.0,0.0,1651071762350448.0,3
1480,2.0,7.0,3.0,8.0,-1.0,7.0,0.0,1.0,1651071762359357.0,3
1481,-2.0,0.0,5.0,-29.0,-10.0,-4.0,0.0,-1.0,1651071762359357.0,3
1482,-3.0,-16.0,-11.0,19.0,11.0,-3.0,-4.0,0.0,1651071762374332.0,3
1483,2.0,5.0,16.0,21.0,19.0,10.0,2.0,-1.0,1651071762374332.0,3
1484,0.0,0.0,6.0,-5.0,-1.0,-2.0,-3.0,0.0,1651071762375336.0,3
1485,3.0,5.0,-13.0,-8.0,-14.0,-3.0,-1.0,0.0,1651071762375336.0,3
1486,-3.0,-1.0,5.0,-7.0,-10.0,-7.0,-3.0,-2.0,1651071762396670.0,3
1487,0.0,-5.0,-12.0,-18.0,-8.0,-1.0,-2.0,-2.0,1651071762396670.0,3
1488,0.0,3.0,17.0,15.0,30.0,11.0,5.0,1.0,1651071762397690.0,3
1489,-1.0,-1.0,0.0,4.0,-12.0,-7.0,-4.0,-3.0,1651071762397690.0,3
1490,-1.0,1.0,-8.0,2.0,14.0,5.0,2.0,2.0,1651071762410570.0,3
1491,-3.0,-1.0,0.0,6.0,-16.0,-3.0,-3.0,-1.0,1651071762410570.0,3
1492,-2.0,-1.0,2.0,3.0,14.0,1.0,0.0,1.0,1651071762418774.0,3
1493,-2.0,-1.0,-9.0,-5.0,-4.0,-1.0,-1.0,-1.0,1651071762418774.0,3
1494,1.0,-1.0,25.0,0.0,-9.0,-4.0,-2.0,-2.0,1651071762433883.0,3
1495,-1.0,-3.0,-24.0,-8.0,-5.0,1.0,1.0,2.0,1651071762433883.0,3
1496,1.0,1.0,-6.0,-5.0,-2.0,-2.0,-3.0,-1.0,1651071762435812.0,3
1497,-2.0,-3.0,2.0,8.0,5.0,-1.0,-2.0,-2.0,1651071762435812.0,3
1498,1.0,6.0,-9.0,-17.0,-22.0,-15.0,-2.0,1.0,1651071762456927.0,3
1499,3.0,8.0,12.0,3.0,14.0,6.0,-1.0,-2.0,1651071762456927.0,3
1500,-5.0,-22.0,-10.0,4.0,-2.0,-4.0,0.0,-1.0,1651071762457925.0,3
1501,3.0,5.0,6.0,5.0,-5.0,3.0,2.0,2.0,1651071762457925.0,3
1502,3.0,4.0,7.0,11.0,14.0,4.0,0.0,0.0,1651071762469960.0,3
1503,2.0,0.0,-1.0,-13.0,-2.0,-4.0,1.0,1.0,1651071762469960.0,3
1504,-2.0,1.0,-8.0,17.0,17.0,-6.0,-2.0,-3.0,1651071762478886.0,3
1505,2.0,7.0,15.0,12.0,-2.0,5.0,1.0,2.0,1651071762478886.0,3
1506,-3.0,-9.0,-17.0,-19.0,-8.0,3.0,0.0,-2.0,1651071762494884.0,3
1507,1.0,4.0,10.0,17.0,-1.0,-4.0,-2.0,-1.0,1651071762494884.0,3
1508,2.0,4.0,4.0,-15.0,-1.0,0.0,1.0,-2.0,1651071762495823.0,3
1509,-1.0,-6.0,-12.0,-1.0,-2.0,1.0,1.0,-1.0,1651071762495823.0,3
1510,-1.0,1.0,-2.0,-7.0,-17.0,-3.0,-3.0,-3.0,1651071762516889.0,3
1511,-2.0,1.0,-12.0,-13.0,18.0,9.0,0.0,1.0,1651071762516889.0,3
1512,-2.0,-10.0,-8.0,18.0,-1.0,-4.0,-1.0,-1.0,1651071762517828.0,3
1513,0.0,0.0,5.0,11.0,5.0,-1.0,-1.0,-1.0,1651071762517828.0,3
1514,-2.0,-3.0,-17.0,-19.0,-13.0,-10.0,-4.0,-2.0,1651071762529806.0,3
1515,-1.0,-5.0,7.0,-3.0,0.0,5.0,1.0,-2.0,1651071762529806.0,3
1516,1.0,5.0,-8.0,-13.0,-9.0,-2.0,1.0,2.0,1651071762538805.0,3
1517,-1.0,7.0,5.0,-4.0,3.0,0.0,-3.0,-2.0,1651071762538805.0,3
1518,-3.0,-12.0,-14.0,-6.0,-11.0,-1.0,0.0,-2.0,1651071762553928.0,3
1519,-1.0,-2.0,7.0,16.0,10.0,-2.0,-1.0,0.0,1651071762553928.0,3
1520,2.0,6.0,6.0,13.0,1.0,2.0,2.0,1.0,1651071762555889.0,3
1521,1.0,-6.0,2.0,2.0,0.0,-2.0,-1.0,-2.0,1651071762555889.0,3
1522,1.0,9.0,8.0,-6.0,3.0,2.0,0.0,1.0,1651071762576757.0,3
1523,-3.0,-10.0,-6.0,-3.0,-11.0,-8.0,-2.0,-2.0,1651071762576757.0,3
1524,-2.0,1.0,-5.0,-17.0,1.0,3.0,3.0,1.0,1651071762577712.0,3
1525,-3.0,-3.0,0.0,14.0,0.0,-1.0,-1.0,-1.0,1651071762577712.0,3
1526,-2.0,2.0,7.0,6.0,4.0,0.0,0.0,0.0,1651071762590401.0,3
1527,-2.0,-1.0,-8.0,-9.0,-18.0,-7.0,-2.0,1.0,1651071762590401.0,3
1528,1.0,4.0,16.0,-5.0,-14.0,-1.0,-1.0,-1.0,1651071762598793.0,3
1529,0.0,-5.0,-31.0,-1.0,22.0,5.0,3.0,1.0,1651071762598793.0,3
1530,1.0,-4.0,17.0,6.0,12.0,11.0,0.0,-4.0,1651071762613715.0,3
1531,-1.0,1.0,5.0,21.0,-3.0,-6.0,-4.0,-2.0,1651071762613715.0,3
1532,-3.0,-6.0,2.0,-14.0,-14.0,-3.0,-4.0,-1.0,1651071762615710.0,3
1533,-1.0,6.0,2.0,-10.0,-24.0,-8.0,-2.0,0.0,1651071762615710.0,3
1534,3.0,0.0,-20.0,-5.0,9.0,1.0,2.0,1.0,1651071762636995.0,3
1535,1.0,2.0,14.0,-5.0,-6.0,1.0,1.0,1.0,1651071762636995.0,3
1536,-1.0,0.0,-13.0,-7.0,7.0,3.0,-1.0,-3.0,1651071762637959.0,3
1537,-1.0,-4.0,-2.0,15.0,8.0,-4.0,0.0,0.0,1651071762637959.0,3
1538,-1.0,2.0,-1.0,-7.0,-11.0,2.0,0.0,0.0,1651071762649954.0,3
1539,0.0,2.0,4.0,-5.0,-9.0,-7.0,-1.0,0.0,1651071762649954.0,3
1540,-1.0,1.0,-3.0,-8.0,10.0,5.0,0.0,-2.0,1651071762658903.0,3
1541,-1.0,-4.0,-6.0,-4.0,-17.0,-3.0,-4.0,-1.0,1651071762658903.0,3
1542,0.0,6.0,20.0,14.0,11.0,1.0,2.0,2.0,1651071762673899.0,3
1543,0.0,-3.0,7.0,12.0,11.0,2.0,0.0,0.0,1651071762673899.0,3
1544,-2.0,-6.0,-19.0,9.0,-3.0,-6.0,-4.0,-1.0,1651071762675923.0,3
1545,0.0,-2.0,6.0,-16.0,-3.0,3.0,-1.0,1.0,1651071762675923.0,3
1546,-3.0,-4.0,-9.0,-4.0,-8.0,-6.0,-3.0,-4.0,1651071762696141.0,3
1547,-1.0,-2.0,0.0,4.0,3.0,4.0,-1.0,-3.0,1651071762696141.0,3
1548,3.0,11.0,9.0,6.0,2.0,3.0,4.0,4.0,1651071762698123.0,3
1549,-2.0,-5.0,-4.0,8.0,2.0,-2.0,-3.0,-4.0,1651071762698123.0,3
1550,1.0,1.0,-7.0,-8.0,5.0,2.0,1.0,3.0,1651071762710243.0,3
1551,-2.0,-1.0,-3.0,-15.0,-14.0,-6.0,-2.0,-1.0,1651071762710243.0,3
1552,2.0,4.0,12.0,16.0,8.0,5.0,2.0,1.0,1651071762719222.0,3
1553,0.0,-6.0,-15.0,-21.0,17.0,4.0,2.0,2.0,1651071762719222.0,3
1554,-1.0,2.0,7.0,19.0,5.0,0.0,-3.0,-2.0,1651071762734086.0,3
1555,-1.0,-6.0,-15.0,-5.0,-3.0,-3.0,-2.0,0.0,1651071762734086.0,3
1556,-1.0,-4.0,-1.0,-7.0,-10.0,-3.0,1.0,-2.0,1651071762736053.0,3
1557,3.0,0.0,-4.0,-3.0,-4.0,-1.0,1.0,2.0,1651071762736053.0,3
1558,-1.0,-4.0,-7.0,7.0,7.0,1.0,0.0,-1.0,1651071762756283.0,3
1559,1.0,2.0,-1.0,-15.0,-9.0,-3.0,2.0,3.0,1651071762756283.0,3
1560,0.0,-2.0,-4.0,-8.0,4.0,2.0,-1.0,1.0,1651071762758081.0,3
1561,-5.0,3.0,36.0,42.0,6.0,0.0,-2.0,-5.0,1651071762758081.0,3
1562,-2.0,-6.0,-23.0,-7.0,-4.0,-7.0,-2.0,-2.0,1651071762779481.0,3
1563,0.0,-18.0,-22.0,-9.0,-3.0,-6.0,-1.0,-2.0,1651071762779481.0,3
1564,0.0,1.0,1.0,0.0,-1.0,7.0,-2.0,-2.0,1651071762780482.0,3
1565,-1.0,5.0,-3.0,-19.0,-10.0,-2.0,-1.0,0.0,1651071762780482.0,3
1566,2.0,5.0,11.0,-2.0,-5.0,0.0,-1.0,0.0,1651071762794186.0,3
1567,-1.0,6.0,9.0,10.0,5.0,1.0,0.0,-1.0,1651071762794186.0,3
1568,0.0,-8.0,-9.0,-9.0,-9.0,-7.0,-3.0,-1.0,1651071762795195.0,3
1569,0.0,-1.0,-15.0,-8.0,14.0,8.0,3.0,1.0,1651071762795195.0,3
1570,-1.0,-1.0,7.0,22.0,1.0,2.0,0.0,-1.0,1651071762816371.0,3
1571,0.0,3.0,4.0,-9.0,4.0,-1.0,-4.0,-2.0,1651071762816371.0,3
1572,-1.0,-1.0,-2.0,1.0,-10.0,-6.0,-1.0,0.0,1651071762818327.0,3
1573,1.0,5.0,3.0,-8.0,-10.0,-2.0,-3.0,0.0,1651071762818327.0,3
1574,2.0,1.0,-2.0,-7.0,-1.0,-1.0,2.0,2.0,1651071762839516.0,3
1575,-1.0,6.0,17.0,3.0,-4.0,3.0,4.0,1.0,1651071762839516.0,3
1576,-2.0,-7.0,-6.0,-2.0,3.0,1.0,0.0,0.0,1651071762840484.0,3
1577,0.0,1.0,4.0,-3.0,0.0,-3.0,0.0,0.0,1651071762840484.0,3
1578,-1.0,-4.0,-4.0,3.0,2.0,0.0,-4.0,-1.0,1651071762854473.0,3
1579,2.0,7.0,12.0,12.0,4.0,4.0,0.0,-1.0,1651071762854473.0,3
1580,-1.0,2.0,3.0,5.0,-7.0,-6.0,0.0,1.0,1651071762855582.0,3
1581,1.0,-2.0,-12.0,-13.0,-9.0,-3.0,-1.0,-2.0,1651071762855582.0,3
1582,-1.0,-1.0,2.0,-31.0,-6.0,-2.0,-1.0,-1.0,1651071762876401.0,3
1583,-1.0,2.0,6.0,38.0,32.0,5.0,1.0,0.0,1651071762876401.0,3
1584,-1.0,-16.0,-9.0,-10.0,-5.0,-2.0,-1.0,-1.0,1651071762878181.0,3
1585,2.0,1.0,7.0,6.0,-1.0,-8.0,-2.0,0.0,1651071762878181.0,3
1586,0.0,6.0,5.0,-5.0,-15.0,4.0,0.0,0.0,1651071762899315.0,3
1587,0.0,3.0,0.0,-10.0,-1.0,7.0,3.0,4.0,1651071762899315.0,3
1588,0.0,9.0,-8.0,-2.0,12.0,4.0,1.0,1.0,1651071762900245.0,3
1589,-3.0,-12.0,4.0,16.0,-11.0,-4.0,-3.0,-3.0,1651071762900245.0,3
1590,0.0,-3.0,3.0,3.0,1.0,-6.0,-1.0,-2.0,1651071762913210.0,3
1591,-1.0,-4.0,-9.0,-4.0,7.0,0.0,-3.0,-4.0,1651071762913210.0,3
1592,0.0,5.0,3.0,-3.0,-1.0,-1.0,0.0,1.0,1651071762920259.0,3
1593,1.0,3.0,-4.0,0.0,-8.0,-3.0,1.0,1.0,1651071762920259.0,3
1594,-2.0,-1.0,-4.0,-1.0,11.0,5.0,1.0,2.0,1651071762936223.0,3
1595,-1.0,-5.0,-11.0,-9.0,-12.0,-2.0,-2.0,0.0,1651071762936223.0,3
1596,0.0,3.0,9.0,21.0,2.0,3.0,2.0,0.0,1651071762938126.0,3
1597,-2.0,-3.0,5.0,-6.0,1.0,-6.0,-6.0,-5.0,1651071762938126.0,3
1598,-2.0,-10.0,-20.0,-10.0,-2.0,0.0,4.0,0.0,1651071762959260.0,3
1599,-1.0,4.0,0.0,-9.0,-10.0,-1.0,2.0,0.0,1651071762959260.0,3
1600,0.0,-1.0,6.0,8.0,-1.0,-3.0,-1.0,-2.0,1651071762960220.0,3
1601,-1.0,2.0,1.0,0.0,1.0,6.0,3.0,-1.0,1651071762960220.0,3
1602,0.0,2.0,5.0,-1.0,2.0,0.0,-1.0,0.0,1651071762973379.0,3
1603,-1.0,-3.0,-9.0,-23.0,-26.0,-10.0,-4.0,-2.0,1651071762973379.0,3
1604,-1.0,2.0,-5.0,5.0,16.0,-1.0,-3.0,-3.0,1651071762980394.0,3
1605,4.0,4.0,11.0,16.0,18.0,3.0,3.0,1.0,1651071762980394.0,3
1606,-3.0,-5.0,21.0,5.0,4.0,2.0,-2.0,-4.0,1651071762996503.0,3
1607,0.0,-2.0,-11.0,-4.0,-4.0,-7.0,1.0,-1.0,1651071762996503.0,3
1608,-1.0,2.0,-1.0,-12.0,-9.0,0.0,-1.0,-2.0,1651071762998432.0,3
1609,0.0,6.0,6.0,-12.0,-6.0,2.0,3.0,3.0,1651071762998432.0,3
1610,0.0,9.0,5.0,1.0,-1.0,-2.0,0.0,-1.0,1651071763018905.0,3
1611,-1.0,-10.0,-9.0,10.0,-4.0,0.0,0.0,0.0,1651071763018905.0,3
1612,-2.0,-3.0,0.0,-9.0,-8.0,-10.0,-4.0,-4.0,1651071763020833.0,3
1613,2.0,11.0,-3.0,3.0,20.0,13.0,0.0,-1.0,1651071763020833.0,3
1614,-2.0,-23.0,-21.0,2.0,-11.0,-6.0,-1.0,-1.0,1651071763032947.0,3
1615,1.0,3.0,0.0,7.0,11.0,1.0,0.0,-2.0,1651071763032947.0,3
1616,0.0,0.0,-11.0,-15.0,-7.0,-2.0,-2.0,1.0,1651071763039998.0,3
1617,-2.0,-2.0,-4.0,-3.0,-7.0,-2.0,-2.0,-1.0,1651071763039998.0,3
1618,2.0,2.0,2.0,-5.0,4.0,-4.0,1.0,0.0,1651071763056948.0,3
1619,0.0,2.0,-1.0,-1.0,6.0,2.0,-2.0,-1.0,1651071763056948.0,3
1620,0.0,-1.0,12.0,5.0,-5.0,2.0,-1.0,0.0,1651071763057883.0,3
1621,0.0,-6.0,-14.0,5.0,4.0,1.0,3.0,1.0,1651071763057883.0,3
1622,2.0,5.0,22.0,5.0,8.0,1.0,0.0,0.0,1651071763079231.0,3
1623,-1.0,-7.0,-27.0,-26.0,-13.0,-5.0,-1.0,0.0,1651071763079231.0,3
1624,0.0,7.0,35.0,29.0,-8.0,-1.0,-4.0,-3.0,1651071763080207.0,3
1625,-2.0,-5.0,-3.0,1.0,11.0,2.0,-1.0,-1.0,1651071763080207.0,3
1626,0.0,3.0,-2.0,2.0,5.0,-1.0,-2.0,-2.0,1651071763093793.0,3
1627,1.0,1.0,-3.0,1.0,3.0,2.0,4.0,2.0,1651071763093793.0,3
1628,0.0,4.0,-9.0,-13.0,0.0,0.0,0.0,0.0,1651071763100387.0,3
1629,-2.0,-2.0,1.0,0.0,-12.0,-4.0,-1.0,-2.0,1651071763100387.0,3
1630,1.0,5.0,1.0,16.0,-3.0,-1.0,0.0,-1.0,1651071763116467.0,3
1631,0.0,-8.0,5.0,-19.0,8.0,2.0,-1.0,-1.0,1651071763116467.0,3
1632,0.0,-4.0,-10.0,5.0,-3.0,0.0,1.0,1.0,1651071763118395.0,3
1633,-1.0,3.0,30.0,7.0,-20.0,-10.0,-2.0,-2.0,1651071763118395.0,3
1634,-1.0,-16.0,-58.0,-14.0,21.0,8.0,1.0,2.0,1651071763139462.0,3
1635,-1.0,6.0,19.0,4.0,-2.0,-1.0,-5.0,-4.0,1651071763139462.0,3
1636,0.0,-6.0,-5.0,-5.0,-3.0,-8.0,-1.0,-2.0,1651071763140460.0,3
1637,1.0,3.0,11.0,2.0,4.0,12.0,2.0,3.0,1651071763140460.0,3
1638,-2.0,0.0,2.0,-5.0,-7.0,0.0,-2.0,-3.0,1651071763153427.0,3
1639,-2.0,0.0,0.0,11.0,1.0,-1.0,-1.0,-2.0,1651071763153427.0,3
1640,0.0,-5.0,-9.0,-13.0,0.0,-1.0,2.0,0.0,1651071763161614.0,3
1641,-3.0,-2.0,-14.0,-12.0,-13.0,-12.0,-6.0,-4.0,1651071763161614.0,3
1642,1.0,5.0,16.0,9.0,3.0,5.0,2.0,2.0,1651071763176797.0,3
1643,-1.0,-3.0,-4.0,17.0,7.0,4.0,4.0,1.0,1651071763176797.0,3
1644,-2.0,-3.0,-11.0,-28.0,3.0,3.0,0.0,0.0,1651071763177727.0,3
1645,-1.0,1.0,11.0,26.0,-6.0,-5.0,1.0,-1.0,1651071763177727.0,3
1646,1.0,8.0,-4.0,-9.0,-12.0,-6.0,-2.0,0.0,1651071763199326.0,3
1647,-1.0,-9.0,1.0,12.0,10.0,6.0,-1.0,-3.0,1651071763199326.0,3
1648,0.0,4.0,7.0,-5.0,-5.0,2.0,-2.0,0.0,1651071763200256.0,3
1649,-1.0,0.0,-10.0,-13.0,12.0,3.0,3.0,0.0,1651071763200256.0,3
1650,-2.0,-4.0,6.0,-7.0,0.0,-4.0,-1.0,0.0,1651071763213289.0,3
1651,3.0,7.0,9.0,7.0,-16.0,-5.0,-3.0,0.0,1651071763213289.0,3
1652,-1.0,-2.0,-8.0,10.0,13.0,4.0,0.0,1.0,1651071763220271.0,3
1653,2.0,2.0,3.0,-3.0,0.0,2.0,2.0,1.0,1651071763220271.0,3
1654,0.0,4.0,6.0,-20.0,-22.0,-6.0,-5.0,-1.0,1651071763236817.0,3
1655,-5.0,-15.0,-10.0,16.0,23.0,4.0,0.0,-1.0,1651071763236817.0,3
1656,-1.0,-1.0,2.0,6.0,0.0,-10.0,0.0,0.0,1651071763237747.0,3
1657,-2.0,-3.0,-24.0,-16.0,-3.0,9.0,-1.0,-2.0,1651071763237747.0,3
1658,-1.0,9.0,23.0,4.0,-2.0,-5.0,-2.0,-1.0,1651071763258583.0,3
1659,1.0,5.0,1.0,-13.0,-9.0,3.0,1.0,-1.0,1651071763258583.0,3
1660,-1.0,-3.0,-1.0,18.0,2.0,0.0,-2.0,-3.0,1651071763260583.0,3
1661,-1.0,-3.0,0.0,-4.0,6.0,-1.0,-1.0,0.0,1651071763260583.0,3
1662,0.0,0.0,-2.0,-8.0,-14.0,-2.0,1.0,0.0,1651071763272759.0,3
1663,1.0,2.0,4.0,-6.0,0.0,-5.0,-1.0,1.0,1651071763272759.0,3
1664,-1.0,0.0,4.0,8.0,9.0,2.0,-2.0,-1.0,1651071763281672.0,3
1665,1.0,1.0,10.0,0.0,4.0,3.0,5.0,4.0,1651071763281672.0,3
1666,-1.0,-8.0,-20.0,7.0,11.0,3.0,-2.0,-3.0,1651071763296248.0,3
1667,-1.0,6.0,14.0,-4.0,-7.0,-5.0,1.0,2.0,1651071763296248.0,3
1668,0.0,0.0,-19.0,-14.0,-13.0,1.0,0.0,0.0,1651071763298177.0,3
1669,-2.0,-1.0,5.0,4.0,1.0,-1.0,-4.0,-2.0,1651071763298177.0,3
1670,-4.0,-3.0,-1.0,-3.0,-3.0,1.0,-2.0,-1.0,1651071763326182.0,3
1671,0.0,0.0,-11.0,-5.0,-6.0,-1.0,-2.0,-1.0,1651071763326182.0,3
1672,-1.0,-2.0,6.0,-7.0,0.0,3.0,0.0,-2.0,1651071763328175.0,3
1673,0.0,1.0,-1.0,3.0,2.0,-2.0,1.0,0.0,1651071763328175.0,3
1674,-1.0,-3.0,3.0,15.0,0.0,-5.0,-1.0,-2.0,1651071763332164.0,3
1675,-1.0,3.0,6.0,-1.0,0.0,-1.0,0.0,0.0,1651071763332164.0,3
1676,-1.0,1.0,4.0,5.0,-2.0,3.0,0.0,1.0,1651071763341613.0,3
1677,-1.0,-4.0,-3.0,-5.0,1.0,3.0,3.0,0.0,1651071763341613.0,3
1678,2.0,2.0,-1.0,-1.0,7.0,5.0,2.0,3.0,1651071763356668.0,3
1679,-2.0,-1.0,4.0,2.0,-6.0,-7.0,-2.0,-1.0,1651071763356668.0,3
1680,0.0,-2.0,0.0,-1.0,2.0,1.0,-2.0,-1.0,1651071763358665.0,3
1681,0.0,-3.0,-4.0,2.0,2.0,-1.0,0.0,-1.0,1651071763358665.0,3
1682,0.0,2.0,4.0,1.0,-5.0,-3.0,-1.0,-1.0,1651071763378773.0,3
1683,2.0,2.0,-1.0,-2.0,-3.0,-3.0,-2.0,-1.0,1651071763378773.0,3
1684,-1.0,-1.0,4.0,5.0,6.0,6.0,1.0,1.0,1651071763380727.0,3
1685,-1.0,-1.0,-10.0,-18.0,-5.0,-2.0,-4.0,-2.0,1651071763380727.0,3
1686,-2.0,1.0,0.0,5.0,3.0,-2.0,0.0,1.0,1651071763392668.0,3
1687,-1.0,1.0,0.0,-1.0,-1.0,-2.0,-2.0,1.0,1651071763392668.0,3
1688,-1.0,-3.0,-4.0,-11.0,-9.0,-3.0,0.0,-3.0,1651071763401644.0,3
1689,-1.0,0.0,-3.0,3.0,0.0,-9.0,-3.0,1.0,1651071763401644.0,3
1690,1.0,-2.0,-3.0,-4.0,4.0,16.0,2.0,0.0,1651071763416794.0,3
1691,9.0,2.0,-1.0,5.0,7.0,0.0,2.0,-1.0,1651071763416794.0,3
1692,-18.0,-5.0,4.0,-2.0,-7.0,-6.0,-6.0,-3.0,1651071763417730.0,3
1693,0.0,-2.0,-4.0,-12.0,-11.0,-15.0,-2.0,0.0,1651071763417730.0,3
1694,0.0,-4.0,-3.0,4.0,5.0,13.0,-2.0,0.0,1651071763439460.0,3
1695,-1.0,-1.0,1.0,8.0,0.0,1.0,0.0,0.0,1651071763439460.0,3
1696,6.0,3.0,0.0,0.0,6.0,3.0,1.0,1.0,1651071763440426.0,3
1697,-1.0,-1.0,-3.0,-9.0,-5.0,-3.0,-3.0,-2.0,1651071763440426.0,3
1698,-2.0,0.0,2.0,10.0,1.0,-7.0,-3.0,-2.0,1651071763452412.0,3
1699,-2.0,0.0,-1.0,-8.0,1.0,2.0,0.0,1.0,1651071763452412.0,3
1700,2.0,0.0,-1.0,4.0,-4.0,-6.0,-5.0,-2.0,1651071763461427.0,3
1701,-1.0,-2.0,0.0,10.0,-2.0,5.0,1.0,0.0,1651071763461427.0,3
1702,1.0,1.0,-6.0,-20.0,3.0,-1.0,5.0,0.0,1651071763476993.0,3
1703,-2.0,2.0,-1.0,1.0,-3.0,-7.0,-2.0,-2.0,1651071763476993.0,3
1704,2.0,-2.0,1.0,1.0,3.0,12.0,2.0,1.0,1651071763477934.0,3
1705,-1.0,2.0,2.0,4.0,1.0,2.0,-2.0,-1.0,1651071763477934.0,3
1706,0.0,-1.0,-1.0,-1.0,-4.0,-2.0,-1.0,2.0,1651071763499475.0,3
1707,-3.0,-2.0,-1.0,-11.0,-7.0,-6.0,-3.0,0.0,1651071763499475.0,3
1708,0.0,-2.0,-2.0,7.0,3.0,-4.0,2.0,0.0,1651071763500477.0,3
1709,9.0,2.0,4.0,14.0,2.0,3.0,-1.0,-3.0,1651071763500477.0,3
1710,-17.0,-6.0,-7.0,-5.0,-5.0,-8.0,1.0,0.0,1651071763512513.0,3
1711,-1.0,7.0,23.0,-10.0,1.0,2.0,2.0,-2.0,1651071763512513.0,3
1712,-1.0,-13.0,-23.0,-13.0,-9.0,-3.0,0.0,-2.0,1651071763521442.0,3
1713,0.0,2.0,-5.0,-5.0,-3.0,0.0,0.0,-2.0,1651071763521442.0,3
1714,4.0,-5.0,17.0,9.0,3.0,-4.0,-2.0,-1.0,1651071763536626.0,3
1715,0.0,0.0,-18.0,7.0,4.0,4.0,0.0,0.0,1651071763536626.0,3
1716,4.0,6.0,14.0,-1.0,2.0,-1.0,2.0,0.0,1651071763537556.0,3
1717,-2.0,3.0,9.0,13.0,-3.0,-2.0,-3.0,0.0,1651071763537556.0,3
1718,-2.0,-1.0,-7.0,-4.0,-5.0,-2.0,0.0,-2.0,1651071763558627.0,3
1719,-2.0,4.0,-3.0,-1.0,1.0,4.0,1.0,1.0,1651071763558627.0,3
1720,2.0,-5.0,1.0,3.0,2.0,0.0,1.0,0.0,1651071763560552.0,3
1721,-1.0,-5.0,-2.0,-22.0,-3.0,-1.0,0.0,0.0,1651071763560552.0,3
1722,5.0,6.0,-2.0,25.0,5.0,-4.0,0.0,-1.0,1651071763572584.0,3
1723,-17.0,-11.0,-1.0,-10.0,3.0,5.0,-2.0,-2.0,1651071763572584.0,3
1724,1.0,3.0,4.0,-14.0,-13.0,-5.0,-1.0,0.0,1651071763581496.0,3
1725,-3.0,-5.0,-1.0,15.0,5.0,0.0,-1.0,1.0,1651071763581496.0,3
1726,3.0,1.0,1.0,-33.0,-8.0,0.0,0.0,0.0,1651071763604200.0,3
1727,4.0,2.0,-1.0,10.0,2.0,-3.0,-1.0,0.0,1651071763604200.0,3
1728,-2.0,4.0,-6.0,23.0,7.0,0.0,-2.0,1.0,1651071763605231.0,3
1729,-8.0,-1.0,22.0,-11.0,-3.0,5.0,-2.0,-3.0,1651071763605231.0,3
1730,7.0,-2.0,-12.0,6.0,-1.0,-6.0,0.0,-1.0,1651071763619263.0,3
1731,1.0,0.0,8.0,5.0,4.0,8.0,1.0,1.0,1651071763619263.0,3
1732,-1.0,0.0,9.0,-4.0,1.0,-1.0,1.0,0.0,1651071763620194.0,3
1733,5.0,6.0,0.0,2.0,1.0,-2.0,1.0,-1.0,1651071763620194.0,3
1734,-2.0,-1.0,-1.0,-1.0,-2.0,-2.0,0.0,0.0,1651071763633165.0,3
1735,-1.0,-4.0,1.0,3.0,-5.0,-5.0,-1.0,-3.0,1651071763633165.0,3
1736,-1.0,1.0,-2.0,-2.0,0.0,1.0,1.0,0.0,1651071763641616.0,3
1737,0.0,-7.0,-11.0,0.0,-1.0,-2.0,-2.0,0.0,1651071763641616.0,3
1738,-3.0,9.0,13.0,-3.0,0.0,1.0,-1.0,-3.0,1651071763656760.0,3
1739,1.0,-5.0,-6.0,-17.0,-5.0,-3.0,1.0,1.0,1651071763656760.0,3
1740,-1.0,1.0,-7.0,1.0,2.0,1.0,-2.0,-1.0,1651071763657691.0,3
1741,-3.0,-5.0,-10.0,3.0,5.0,1.0,-2.0,0.0,1651071763657691.0,3
1742,2.0,4.0,6.0,-2.0,-3.0,2.0,-2.0,1.0,1651071763677858.0,3
1743,0.0,-4.0,-19.0,0.0,-5.0,-5.0,-4.0,-2.0,1651071763677858.0,3
1744,1.0,7.0,-5.0,-4.0,-3.0,-8.0,-1.0,-1.0,1651071763686768.0,3
1745,1.0,3.0,11.0,-25.0,-3.0,9.0,2.0,1.0,1651071763686768.0,3
1746,-2.0,-4.0,8.0,39.0,6.0,-1.0,-2.0,-1.0,1651071763701793.0,3
1747,4.0,4.0,9.0,1.0,2.0,1.0,1.0,0.0,1651071763701793.0,3
1748,-1.0,4.0,-4.0,-1.0,-1.0,-1.0,-1.0,0.0,1651071763702730.0,3
1749,-1.0,-1.0,0.0,-5.0,-2.0,-2.0,-1.0,0.0,1651071763702730.0,3
1750,0.0,1.0,-6.0,-9.0,4.0,2.0,-1.0,-2.0,1651071763716753.0,3
1751,0.0,7.0,-1.0,3.0,-3.0,0.0,-1.0,0.0,1651071763716753.0,3
1752,-2.0,-12.0,10.0,-3.0,-5.0,-4.0,0.0,-2.0,1651071763718682.0,3
1753,-3.0,-9.0,-14.0,1.0,3.0,-1.0,-1.0,-2.0,1651071763718682.0,3
1754,1.0,3.0,-1.0,-2.0,2.0,4.0,0.0,0.0,1651071763739300.0,3
1755,-1.0,-7.0,-19.0,-15.0,-4.0,-4.0,-2.0,-2.0,1651071763739300.0,3
1756,2.0,6.0,9.0,-1.0,-2.0,3.0,0.0,0.0,1651071763740271.0,3
1757,-3.0,-2.0,20.0,34.0,1.0,-4.0,-3.0,-3.0,1651071763740271.0,3
1758,-1.0,-3.0,-12.0,-2.0,-4.0,-2.0,-3.0,0.0,1651071763761344.0,3
1759,0.0,6.0,11.0,-11.0,0.0,0.0,0.0,-1.0,1651071763761344.0,3
1760,-1.0,-1.0,-19.0,-5.0,-1.0,-3.0,0.0,-3.0,1651071763763299.0,3
1761,1.0,9.0,-1.0,-4.0,-5.0,-4.0,0.0,1.0,1651071763763299.0,3
1762,-1.0,-10.0,-7.0,0.0,1.0,1.0,1.0,0.0,1651071763776632.0,3
1763,1.0,2.0,10.0,3.0,0.0,3.0,1.0,0.0,1651071763776632.0,3
1764,-7.0,-14.0,-2.0,2.0,-5.0,-3.0,-3.0,-3.0,1651071763777632.0,3
1765,0.0,1.0,-12.0,4.0,2.0,1.0,3.0,0.0,1651071763777632.0,3
1766,0.0,0.0,-1.0,-10.0,-3.0,0.0,0.0,1.0,1651071763798696.0,3
1767,0.0,-3.0,-9.0,-2.0,0.0,0.0,0.0,-1.0,1651071763798696.0,3
1768,2.0,4.0,7.0,11.0,5.0,2.0,1.0,1.0,1651071763800664.0,3
1769,-2.0,-2.0,-8.0,1.0,-1.0,-1.0,-3.0,-3.0,1651071763800664.0,3
1770,2.0,0.0,3.0,-3.0,-2.0,-2.0,1.0,-1.0,1651071763821763.0,3
1771,-1.0,-12.0,-13.0,-2.0,-4.0,-1.0,-2.0,0.0,1651071763821763.0,3
1772,0.0,10.0,29.0,13.0,4.0,3.0,-1.0,-1.0,1651071763822719.0,3
1773,-2.0,-13.0,-40.0,-21.0,-1.0,1.0,0.0,-2.0,1651071763822719.0,3
1774,-2.0,1.0,7.0,8.0,1.0,-1.0,-1.0,-3.0,1651071763836835.0,3
1775,1.0,8.0,18.0,16.0,-4.0,-1.0,-2.0,0.0,1651071763836835.0,3
1776,2.0,-3.0,1.0,-1.0,10.0,3.0,2.0,1.0,1651071763837765.0,3
1777,0.0,2.0,-10.0,-20.0,-5.0,1.0,0.0,-1.0,1651071763837765.0,3
1778,-1.0,0.0,-1.0,3.0,-1.0,-1.0,-1.0,-1.0,1651071763859631.0,3
1779,-1.0,-7.0,-17.0,-3.0,0.0,0.0,0.0,-3.0,1651071763859631.0,3
1780,-2.0,0.0,0.0,2.0,-4.0,-3.0,-1.0,1.0,1651071763860637.0,3
1781,1.0,1.0,15.0,9.0,-2.0,-2.0,1.0,1.0,1651071763860637.0,3
1782,-1.0,3.0,-1.0,-6.0,1.0,3.0,1.0,0.0,1651071763881685.0,3
1783,-1.0,6.0,3.0,8.0,-6.0,-16.0,-1.0,-2.0,1651071763881685.0,3
1784,-2.0,-16.0,-12.0,-10.0,2.0,13.0,-1.0,-2.0,1651071763882714.0,3
1785,0.0,2.0,-4.0,4.0,9.0,7.0,3.0,2.0,1651071763882714.0,3
1786,0.0,1.0,7.0,-9.0,-9.0,-4.0,1.0,-2.0,1651071763895716.0,3
1787,-1.0,0.0,-8.0,1.0,5.0,2.0,2.0,0.0,1651071763895716.0,3
1788,-1.0,8.0,2.0,8.0,-2.0,-6.0,-1.0,-1.0,1651071763902647.0,3
1789,-4.0,-13.0,-22.0,-7.0,-7.0,-6.0,0.0,0.0,1651071763902647.0,3
1790,-1.0,-5.0,-3.0,-1.0,2.0,5.0,-1.0,1.0,1651071763918589.0,3
1791,-2.0,0.0,7.0,-9.0,-1.0,-1.0,0.0,0.0,1651071763918589.0,3
1792,3.0,2.0,-20.0,-8.0,-1.0,-1.0,-2.0,-2.0,1651071763920583.0,3
1793,-3.0,-6.0,4.0,5.0,-6.0,-3.0,-2.0,-2.0,1651071763920583.0,3
1794,1.0,3.0,7.0,12.0,6.0,0.0,1.0,1.0,1651071763941920.0,3
1795,-4.0,-4.0,-3.0,-6.0,2.0,2.0,0.0,-1.0,1651071763941920.0,3
1796,-1.0,1.0,0.0,-2.0,-2.0,2.0,1.0,0.0,1651071763942929.0,3
1797,0.0,5.0,12.0,4.0,1.0,-1.0,-2.0,0.0,1651071763942929.0,3
1798,-2.0,-5.0,-5.0,-6.0,-5.0,-5.0,-2.0,-3.0,1651071763955419.0,3
1799,0.0,2.0,7.0,6.0,-3.0,1.0,0.0,-2.0,1651071763955419.0,3
1800,1.0,1.0,-4.0,-3.0,-1.0,0.0,1.0,-1.0,1651071763979689.0,3
1801,0.0,4.0,5.0,-4.0,-1.0,-2.0,-2.0,-1.0,1651071763979689.0,3
1802,-3.0,-2.0,-6.0,-1.0,-4.0,-5.0,-3.0,1.0,1651071763980619.0,3
1803,2.0,5.0,3.0,4.0,-2.0,-2.0,1.0,0.0,1651071763980619.0,3
1804,-2.0,2.0,19.0,-6.0,-1.0,4.0,1.0,1.0,1651071763981617.0,3
1805,-1.0,-12.0,-14.0,-9.0,-4.0,2.0,1.0,1.0,1651071763981617.0,3
1806,-1.0,-3.0,11.0,16.0,12.0,3.0,0.0,-2.0,1651071764002007.0,3
1807,0.0,-7.0,-5.0,14.0,1.0,-4.0,-2.0,0.0,1651071764002007.0,3
1808,1.0,1.0,-6.0,-6.0,-7.0,-8.0,-3.0,-1.0,1651071764003012.0,3
1809,0.0,5.0,14.0,-6.0,-2.0,1.0,0.0,1.0,1651071764003012.0,3
1810,1.0,1.0,-8.0,-21.0,-8.0,-1.0,0.0,-1.0,1651071764015972.0,3
1811,-2.0,-3.0,-2.0,1.0,-1.0,2.0,0.0,-1.0,1651071764015972.0,3
1812,-3.0,-4.0,-1.0,4.0,0.0,-1.0,-1.0,-1.0,1651071764023096.0,3
1813,1.0,7.0,6.0,2.0,4.0,2.0,0.0,2.0,1651071764023096.0,3
1814,-1.0,-1.0,-17.0,-4.0,-8.0,-6.0,0.0,-2.0,1651071764039239.0,3
1815,0.0,1.0,-2.0,-4.0,6.0,6.0,-1.0,1.0,1651071764039239.0,3
1816,0.0,-10.0,-2.0,6.0,7.0,3.0,1.0,-2.0,1651071764040170.0,3
1817,0.0,3.0,9.0,11.0,4.0,-2.0,-2.0,-1.0,1651071764040170.0,3
1818,0.0,-1.0,7.0,8.0,3.0,1.0,0.0,1.0,1651071764061277.0,3
1819,-3.0,-4.0,-2.0,-7.0,-16.0,-4.0,-2.0,0.0,1651071764061277.0,3
1820,0.0,1.0,-12.0,-9.0,-3.0,1.0,-1.0,0.0,1651071764063231.0,3
1821,0.0,2.0,-3.0,-11.0,0.0,-1.0,-2.0,-1.0,1651071764063231.0,3
1822,-1.0,-3.0,-2.0,-4.0,2.0,0.0,-1.0,1.0,1651071764076257.0,3
1823,1.0,0.0,0.0,16.0,3.0,1.0,-1.0,0.0,1651071764076257.0,3
1824,0.0,-2.0,2.0,-15.0,-6.0,-2.0,0.0,0.0,1651071764082344.0,3
1825,0.0,3.0,9.0,36.0,4.0,-2.0,-1.0,-3.0,1651071764082344.0,3
1826,-1.0,1.0,5.0,-17.0,-5.0,2.0,0.0,1.0,1651071764099324.0,3
1827,0.0,-3.0,-17.0,-7.0,-2.0,1.0,0.0,0.0,1651071764099324.0,3
1828,0.0,1.0,5.0,11.0,-8.0,-9.0,-2.0,-1.0,1651071764100295.0,3
1829,0.0,-3.0,-4.0,-10.0,9.0,9.0,2.0,1.0,1651071764100295.0,3
1830,0.0,2.0,4.0,-2.0,-1.0,0.0,0.0,0.0,1651071764121321.0,3
1831,0.0,0.0,7.0,-7.0,-2.0,-2.0,-2.0,-1.0,1651071764121321.0,3
1832,0.0,-3.0,-10.0,-4.0,-4.0,0.0,-2.0,1.0,1651071764123249.0,3
1833,0.0,3.0,3.0,-2.0,-6.0,-2.0,0.0,-1.0,1651071764123249.0,3
1834,1.0,0.0,-5.0,6.0,0.0,-9.0,-3.0,0.0,1651071764136326.0,3
1835,2.0,8.0,10.0,-4.0,4.0,13.0,2.0,0.0,1651071764136326.0,3
1836,-2.0,-9.0,-18.0,1.0,1.0,-3.0,0.0,-1.0,1651071764143195.0,3
1837,-1.0,-2.0,1.0,0.0,-10.0,-5.0,1.0,-1.0,1651071764143195.0,3
1838,0.0,-1.0,-1.0,1.0,9.0,3.0,1.0,0.0,1651071764159268.0,3
1839,0.0,0.0,3.0,-1.0,2.0,-4.0,1.0,-2.0,1651071764159268.0,3
1840,0.0,6.0,6.0,3.0,3.0,0.0,-1.0,-1.0,1651071764160199.0,3
1841,0.0,-3.0,-7.0,-18.0,1.0,2.0,-2.0,-1.0,1651071764160199.0,3
1842,-1.0,0.0,-6.0,5.0,-8.0,-3.0,1.0,-1.0,1651071764181211.0,3
1843,-4.0,-4.0,34.0,11.0,-2.0,-4.0,-3.0,-2.0,1651071764181211.0,3
1844,-2.0,-3.0,-25.0,-3.0,0.0,-2.0,0.0,-1.0,1651071764183138.0,3
1845,0.0,0.0,4.0,6.0,0.0,-12.0,-1.0,0.0,1651071764183138.0,3
1846,0.0,-1.0,-10.0,-24.0,2.0,13.0,2.0,-2.0,1651071764195568.0,3
1847,1.0,5.0,2.0,-3.0,7.0,6.0,5.0,2.0,1651071764195568.0,3
1848,0.0,0.0,7.0,3.0,-3.0,-1.0,0.0,-1.0,1651071764204433.0,3
1849,-2.0,0.0,-5.0,-7.0,-6.0,-5.0,-2.0,-1.0,1651071764204433.0,3
1850,1.0,4.0,5.0,9.0,-4.0,-4.0,-2.0,1.0,1651071764219362.0,3
1851,1.0,7.0,-4.0,-8.0,0.0,0.0,1.0,2.0,1651071764219362.0,3
1852,-4.0,-16.0,-10.0,27.0,-3.0,-3.0,-2.0,-3.0,1651071764220360.0,3
1853,-2.0,-3.0,7.0,2.0,-1.0,0.0,-3.0,-2.0,1651071764220360.0,3
1854,0.0,0.0,9.0,-4.0,-3.0,-8.0,-3.0,-2.0,1651071764241371.0,3
1855,-3.0,-4.0,-13.0,-8.0,-1.0,8.0,1.0,-2.0,1651071764241371.0,3
1856,1.0,8.0,13.0,1.0,8.0,0.0,3.0,1.0,1651071764243299.0,3
1857,-1.0,4.0,2.0,0.0,6.0,10.0,3.0,1.0,1651071764243299.0,3
1858,-1.0,-5.0,-3.0,5.0,-3.0,-2.0,2.0,-2.0,1651071764255385.0,3
1859,-1.0,-4.0,-7.0,-5.0,-3.0,-6.0,-3.0,-1.0,1651071764255385.0,3
1860,0.0,7.0,8.0,-10.0,-3.0,0.0,1.0,0.0,1651071764264372.0,3
1861,-1.0,-4.0,-3.0,6.0,0.0,-1.0,-2.0,0.0,1651071764264372.0,3
1862,-2.0,-1.0,0.0,-4.0,1.0,1.0,0.0,-1.0,1651071764278732.0,3
1863,0.0,-1.0,-14.0,-1.0,-4.0,-4.0,-2.0,1.0,1651071764278732.0,3
1864,-2.0,-1.0,13.0,16.0,0.0,1.0,0.0,0.0,1651071764280687.0,3
1865,0.0,5.0,8.0,-1.0,3.0,1.0,0.0,-1.0,1651071764280687.0,3
1866,0.0,0.0,-8.0,0.0,-3.0,-8.0,-3.0,0.0,1651071764301670.0,3
1867,2.0,-1.0,-3.0,-3.0,3.0,6.0,1.0,0.0,1651071764301670.0,3
1868,1.0,1.0,-5.0,-13.0,3.0,3.0,2.0,2.0,1651071764303599.0,3
1869,-1.0,-1.0,-6.0,-9.0,-4.0,1.0,2.0,-2.0,1651071764303599.0,3
1870,-3.0,2.0,6.0,8.0,-2.0,1.0,1.0,-1.0,1651071764315592.0,3
1871,-1.0,-3.0,0.0,5.0,-4.0,-8.0,-1.0,-2.0,1651071764315592.0,3
1872,-1.0,1.0,1.0,-7.0,-2.0,0.0,-1.0,2.0,1651071764323857.0,3
1873,0.0,-1.0,-5.0,-5.0,-5.0,-3.0,-1.0,-2.0,1651071764323857.0,3
1874,-2.0,2.0,0.0,-4.0,-2.0,2.0,-1.0,-2.0,1651071764338969.0,3
1875,-4.0,-15.0,-12.0,1.0,-4.0,-7.0,-2.0,-1.0,1651071764338969.0,3
1876,-2.0,2.0,4.0,-8.0,1.0,2.0,-1.0,-2.0,1651071764340924.0,3
1877,-1.0,0.0,7.0,27.0,9.0,0.0,0.0,0.0,1651071764340924.0,3
1878,0.0,-2.0,-1.0,4.0,0.0,3.0,-1.0,1.0,1651071764361956.0,3
1879,-1.0,2.0,3.0,-2.0,-1.0,-1.0,-2.0,0.0,1651071764361956.0,3
1880,1.0,3.0,0.0,-5.0,-5.0,-2.0,-2.0,0.0,1651071764362944.0,3
1881,-1.0,-4.0,-8.0,-11.0,-3.0,-1.0,1.0,0.0,1651071764362944.0,3
1882,-1.0,0.0,-2.0,-5.0,1.0,1.0,2.0,1.0,1651071764374971.0,3
1883,-1.0,2.0,2.0,9.0,-1.0,0.0,1.0,1.0,1651071764374971.0,3
1884,0.0,-1.0,-6.0,-10.0,-7.0,-9.0,-1.0,0.0,1651071764383901.0,3
1885,-2.0,-3.0,8.0,7.0,2.0,7.0,-2.0,-1.0,1651071764383901.0,3
1886,-2.0,0.0,3.0,3.0,-3.0,-1.0,0.0,0.0,1651071764398953.0,3
1887,-1.0,-1.0,1.0,3.0,4.0,-1.0,-2.0,-2.0,1651071764398953.0,3
1888,1.0,1.0,4.0,-3.0,4.0,5.0,0.0,-1.0,1651071764400950.0,3
1889,-1.0,-3.0,-10.0,-5.0,-3.0,-3.0,0.0,0.0,1651071764400950.0,3
1890,-1.0,0.0,1.0,6.0,1.0,0.0,-2.0,-2.0,1651071764421240.0,3
1891,0.0,0.0,-4.0,-10.0,-9.0,-6.0,0.0,-1.0,1651071764421240.0,3
1892,-2.0,7.0,26.0,3.0,-5.0,-5.0,-1.0,0.0,1651071764423167.0,3
1893,-1.0,-8.0,-5.0,1.0,8.0,7.0,1.0,1.0,1651071764423167.0,3
1894,-1.0,0.0,6.0,3.0,1.0,0.0,-1.0,-1.0,1651071764435314.0,3
1895,1.0,0.0,-2.0,3.0,4.0,1.0,0.0,1.0,1651071764435314.0,3
1896,2.0,2.0,-1.0,-10.0,-5.0,-2.0,0.0,1.0,1651071764444324.0,3
1897,2.0,2.0,-18.0,-25.0,-7.0,-5.0,1.0,0.0,1651071764444324.0,3
1898,-2.0,-1.0,30.0,33.0,3.0,0.0,-1.0,-2.0,1651071764459350.0,3
1899,2.0,1.0,-15.0,-11.0,-7.0,-3.0,-1.0,-1.0,1651071764459350.0,3
1900,-3.0,-5.0,-1.0,5.0,6.0,2.0,-1.0,-2.0,1651071764460281.0,3
1901,-2.0,0.0,-4.0,-12.0,-7.0,-9.0,-3.0,-1.0,1651071764460281.0,3
1902,1.0,-2.0,-6.0,-9.0,-5.0,10.0,1.0,0.0,1651071764481674.0,3
1903,-1.0,3.0,10.0,9.0,9.0,0.0,2.0,1.0,1651071764481674.0,3
1904,-1.0,-3.0,-7.0,2.0,1.0,4.0,1.0,0.0,1651071764482674.0,0
1905,-1.0,0.0,1.0,-3.0,-2.0,-2.0,-1.0,1.0,1651071764482674.0,4
1906,3.0,16.0,4.0,2.0,1.0,-3.0,0.0,-2.0,1651071764495652.0,4
1907,-3.0,-13.0,7.0,6.0,-4.0,-3.0,-2.0,-1.0,1651071764495652.0,4
1908,0.0,-2.0,-9.0,5.0,3.0,2.0,-1.0,-1.0,1651071764503773.0,4
1909,1.0,2.0,1.0,7.0,4.0,-3.0,0.0,0.0,1651071764503773.0,4
1910,-1.0,-2.0,-19.0,-16.0,-9.0,-7.0,-2.0,0.0,1651071764518752.0,4
1911,-1.0,5.0,16.0,-9.0,-7.0,-5.0,-2.0,-2.0,1651071764518752.0,4
1912,-1.0,4.0,5.0,-1.0,9.0,13.0,3.0,-1.0,1651071764520688.0,4
1913,-1.0,-8.0,-1.0,20.0,6.0,3.0,0.0,-2.0,1651071764520688.0,4
1914,0.0,-4.0,-4.0,-7.0,5.0,2.0,1.0,-2.0,1651071764549202.0,4
1915,1.0,-2.0,-5.0,6.0,-1.0,0.0,-2.0,0.0,1651071764549202.0,4
1916,1.0,-3.0,-9.0,-21.0,-8.0,-8.0,-2.0,-1.0,1651071764550164.0,4
1917,0.0,4.0,11.0,5.0,-11.0,-3.0,-2.0,1.0,1651071764550164.0,4
1918,1.0,1.0,-8.0,-14.0,6.0,2.0,-1.0,2.0,1651071764555187.0,4
1919,-2.0,-16.0,-28.0,-6.0,-4.0,-1.0,-2.0,-2.0,1651071764555187.0,4
1920,-2.0,0.0,5.0,25.0,1.0,0.0,-2.0,0.0,1651071764563855.0,4
1921,0.0,5.0,15.0,-8.0,-2.0,2.0,0.0,-1.0,1651071764563855.0,4
1922,-1.0,-11.0,-8.0,0.0,-1.0,-5.0,-1.0,1.0,1651071764577830.0,4
