,EMG_s0,EMG_s1,EMG_s2,EMG_s3,EMG_s4,EMG_s5,EMG_s6,EMG_s7,timestamp,signal
0,-1.0,-3.0,-2.0,-4.0,3.0,11.0,6.0,3.0,1651071539236520.0,0
1,0.0,2.0,0.0,3.0,2.0,4.0,-1.0,-1.0,1651071539236520.0,0
2,-1.0,-2.0,-4.0,-1.0,-9.0,-1.0,1.0,0.0,1651071539257489.0,0
3,0.0,1.0,5.0,4.0,5.0,-4.0,-1.0,-2.0,1651071539257489.0,0
4,0.0,0.0,-3.0,-5.0,-3.0,-7.0,-3.0,0.0,1651071539258498.0,0
5,0.0,-1.0,3.0,0.0,-8.0,2.0,-1.0,0.0,1651071539258498.0,0
6,0.0,-3.0,-5.0,1.0,7.0,2.0,1.0,-1.0,1651071539271517.0,0
7,0.0,1.0,5.0,5.0,-6.0,-5.0,-3.0,-1.0,1651071539271517.0,0
8,0.0,1.0,1.0,-2.0,0.0,-10.0,-1.0,-1.0,1651071539278431.0,0
9,-2.0,-3.0,-7.0,-13.0,3.0,16.0,1.0,-1.0,1651071539278431.0,0
10,0.0,1.0,5.0,-3.0,-3.0,-4.0,-1.0,0.0,1651071539294446.0,0
11,-1.0,-8.0,-4.0,0.0,2.0,4.0,0.0,-1.0,1651071539294446.0,0
12,-1.0,3.0,0.0,0.0,-5.0,-2.0,-1.0,-1.0,1651071539296441.0,0
13,0.0,-3.0,-1.0,-9.0,3.0,-5.0,-1.0,1.0,1651071539296441.0,0
14,-2.0,0.0,5.0,25.0,4.0,-10.0,-4.0,-1.0,1651071539316754.0,0
15,-1.0,1.0,1.0,-2.0,4.0,14.0,1.0,-1.0,1651071539316754.0,0
16,-1.0,0.0,-2.0,-3.0,-3.0,-8.0,-2.0,-1.0,1651071539318708.0,0
17,-1.0,-1.0,-4.0,-6.0,-8.0,-4.0,6.0,0.0,1651071539318708.0,0
18,0.0,1.0,-5.0,-9.0,2.0,7.0,2.0,0.0,1651071539331773.0,0
19,1.0,1.0,4.0,6.0,9.0,2.0,3.0,2.0,1651071539331773.0,0
20,-1.0,-5.0,0.0,0.0,-3.0,1.0,-1.0,-1.0,1651071539337780.0,0
21,1.0,2.0,-3.0,-3.0,-6.0,-6.0,-3.0,-1.0,1651071539337780.0,0
22,1.0,-3.0,-5.0,-4.0,4.0,-3.0,-1.0,-1.0,1651071539354938.0,0
23,0.0,-1.0,2.0,2.0,-6.0,0.0,-1.0,0.0,1651071539354938.0,0
24,-1.0,0.0,-3.0,-5.0,-3.0,0.0,-1.0,0.0,1651071539355948.0,0
25,0.0,-1.0,1.0,9.0,7.0,2.0,0.0,1.0,1651071539355948.0,0
26,-1.0,-2.0,-1.0,-3.0,-6.0,0.0,0.0,-2.0,1651071539384529.0,0
27,-1.0,0.0,-2.0,-6.0,-3.0,-5.0,-2.0,-2.0,1651071539384529.0,0
28,1.0,0.0,2.0,3.0,-1.0,-1.0,0.0,0.0,1651071539386457.0,0
29,-1.0,-2.0,0.0,8.0,1.0,-4.0,-2.0,-1.0,1651071539386457.0,0
30,0.0,-1.0,-3.0,-7.0,0.0,1.0,-1.0,-1.0,1651071539391472.0,0
31,1.0,4.0,-3.0,-5.0,-2.0,1.0,1.0,1.0,1651071539391472.0,0
32,-2.0,-10.0,-5.0,-2.0,1.0,-1.0,1.0,0.0,1651071539398451.0,0
33,1.0,-1.0,-8.0,2.0,6.0,-5.0,-1.0,-1.0,1651071539398451.0,0
34,-2.0,-4.0,6.0,-5.0,-2.0,8.0,-1.0,-3.0,1651071539414478.0,0
35,-2.0,0.0,-4.0,-1.0,-3.0,-5.0,-3.0,-1.0,1651071539414478.0,0
36,0.0,3.0,5.0,13.0,-7.0,-5.0,-5.0,0.0,1651071539416498.0,0
37,-1.0,1.0,-3.0,0.0,2.0,11.0,6.0,2.0,1651071539416498.0,0
38,0.0,0.0,-4.0,-3.0,3.0,-1.0,0.0,1.0,1651071539437561.0,0
39,-1.0,1.0,0.0,-3.0,-2.0,-1.0,-1.0,-3.0,1651071539437561.0,0
40,-2.0,-3.0,-5.0,-8.0,2.0,-1.0,0.0,-1.0,1651071539438544.0,0
41,-1.0,-2.0,0.0,0.0,-5.0,-6.0,-3.0,-2.0,1651071539438544.0,0
42,-1.0,-1.0,-5.0,-6.0,-4.0,0.0,1.0,-1.0,1651071539451706.0,0
43,-1.0,-2.0,2.0,2.0,1.0,0.0,-1.0,-1.0,1651071539451706.0,0
44,0.0,0.0,2.0,-2.0,-2.0,-2.0,0.0,-1.0,1651071539458690.0,0
45,-1.0,-1.0,4.0,4.0,0.0,1.0,-4.0,-2.0,1651071539458690.0,0
46,1.0,6.0,3.0,-4.0,-3.0,-1.0,0.0,1.0,1651071539474546.0,0
47,0.0,-7.0,1.0,-1.0,-1.0,0.0,-3.0,-2.0,1651071539474546.0,0
48,-1.0,-1.0,-5.0,4.0,4.0,2.0,2.0,-2.0,1651071539475554.0,0
49,0.0,-2.0,0.0,-8.0,-8.0,-5.0,0.0,-1.0,1651071539475554.0,0
50,-1.0,-2.0,-1.0,3.0,9.0,6.0,2.0,1.0,1651071539497515.0,0
51,1.0,6.0,6.0,7.0,6.0,2.0,3.0,2.0,1651071539497515.0,0
52,0.0,-2.0,3.0,9.0,-1.0,3.0,0.0,-1.0,1651071539498484.0,0
53,-1.0,2.0,-1.0,0.0,1.0,-1.0,-3.0,-2.0,1651071539498484.0,0
54,-1.0,-3.0,-10.0,-11.0,-9.0,-9.0,-1.0,-2.0,1651071539511516.0,0
55,-2.0,0.0,-4.0,1.0,-3.0,-9.0,-2.0,-2.0,1651071539511516.0,0
56,-2.0,1.0,3.0,-4.0,2.0,2.0,-3.0,-1.0,1651071539518498.0,0
57,1.0,2.0,1.0,0.0,4.0,12.0,6.0,3.0,1651071539518498.0,0
58,-1.0,-2.0,1.0,7.0,-6.0,-5.0,-3.0,-2.0,1651071539534447.0,0
59,0.0,1.0,-1.0,-3.0,2.0,2.0,0.0,0.0,1651071539534447.0,0
60,0.0,1.0,0.0,0.0,1.0,0.0,0.0,0.0,1651071539536445.0,0
61,-1.0,-1.0,-1.0,-1.0,-6.0,-8.0,-4.0,-3.0,1651071539536445.0,0
62,0.0,1.0,3.0,-1.0,0.0,3.0,0.0,-1.0,1651071539557010.0,0
63,-1.0,-2.0,-4.0,-4.0,-4.0,-1.0,0.0,-2.0,1651071539557010.0,0
64,-2.0,1.0,-6.0,-11.0,-4.0,-10.0,-2.0,-3.0,1651071539558963.0,0
65,-2.0,0.0,12.0,35.0,7.0,9.0,-2.0,-1.0,1651071539558963.0,0
66,0.0,-1.0,1.0,0.0,4.0,4.0,2.0,1.0,1651071539571713.0,0
67,0.0,1.0,-2.0,0.0,-4.0,-3.0,-1.0,1.0,1651071539571713.0,0
68,2.0,0.0,0.0,-8.0,-4.0,3.0,3.0,1.0,1651071539578642.0,0
69,2.0,-1.0,0.0,-12.0,0.0,-6.0,-1.0,0.0,1651071539578642.0,0
70,-2.0,1.0,-4.0,-1.0,-5.0,-7.0,0.0,-1.0,1651071539592794.0,0
71,-1.0,2.0,8.0,5.0,2.0,5.0,1.0,0.0,1651071539592794.0,0
72,0.0,-4.0,-3.0,-9.0,7.0,5.0,1.0,-2.0,1651071539602522.0,0
73,-2.0,-2.0,3.0,7.0,-5.0,-2.0,-3.0,-3.0,1651071539602522.0,0
74,0.0,-3.0,-1.0,3.0,1.0,-3.0,-1.0,-3.0,1651071539616722.0,0
75,0.0,-1.0,-7.0,-9.0,-4.0,-1.0,0.0,-1.0,1651071539616722.0,0
76,-3.0,2.0,1.0,1.0,-8.0,-23.0,-5.0,-2.0,1651071539618650.0,0
77,0.0,-3.0,-7.0,-8.0,-1.0,17.0,8.0,-1.0,1651071539618650.0,0
78,3.0,2.0,2.0,-3.0,6.0,2.0,0.0,-1.0,1651071539639519.0,0
79,0.0,-1.0,1.0,2.0,1.0,4.0,0.0,0.0,1651071539639519.0,0
80,0.0,-3.0,-4.0,3.0,2.0,2.0,-2.0,0.0,1651071539641474.0,0
81,0.0,0.0,-6.0,-14.0,-7.0,-11.0,-5.0,-1.0,1651071539641474.0,0
82,-1.0,3.0,4.0,3.0,-4.0,-4.0,-3.0,-1.0,1651071539662663.0,0
83,-1.0,-4.0,-6.0,-3.0,1.0,2.0,-1.0,-1.0,1651071539662663.0,0
84,1.0,0.0,-1.0,0.0,-3.0,-1.0,-2.0,-1.0,1651071539663590.0,0
85,-1.0,1.0,0.0,-4.0,0.0,-7.0,-1.0,-1.0,1651071539663590.0,0
86,0.0,-6.0,-5.0,-1.0,5.0,10.0,2.0,0.0,1651071539676645.0,0
87,1.0,0.0,-1.0,-9.0,1.0,-2.0,-1.0,1.0,1651071539676645.0,0
88,-3.0,1.0,3.0,10.0,-2.0,0.0,-1.0,-2.0,1651071539678572.0,0
89,-2.0,-3.0,3.0,9.0,1.0,3.0,-2.0,-1.0,1651071539678572.0,0
90,1.0,0.0,0.0,0.0,-1.0,-3.0,1.0,-1.0,1651071539699791.0,0
91,0.0,-1.0,-2.0,3.0,-3.0,-2.0,-3.0,-2.0,1651071539699791.0,0
92,0.0,1.0,-3.0,-9.0,-4.0,4.0,1.0,-1.0,1651071539700728.0,0
93,0.0,2.0,2.0,-2.0,-6.0,-17.0,-1.0,1.0,1651071539700728.0,0
94,0.0,9.0,1.0,0.0,9.0,11.0,3.0,0.0,1651071539721893.0,0
95,-4.0,-12.0,-6.0,0.0,0.0,3.0,2.0,0.0,1651071539721893.0,0
96,2.0,0.0,-4.0,3.0,-1.0,2.0,-2.0,-1.0,1651071539723864.0,0
97,-1.0,1.0,0.0,-1.0,1.0,2.0,4.0,1.0,1651071539723864.0,0
98,-1.0,-1.0,-15.0,-9.0,-12.0,-7.0,-4.0,-2.0,1651071539737454.0,0
99,-2.0,-1.0,11.0,-1.0,-6.0,-4.0,0.0,-2.0,1651071539737454.0,0
100,-2.0,-7.0,-3.0,7.0,6.0,1.0,-3.0,-1.0,1651071539738451.0,0
101,-1.0,1.0,-2.0,2.0,0.0,0.0,-3.0,1.0,1651071539738451.0,0
102,1.0,-5.0,-2.0,-4.0,-2.0,0.0,-2.0,0.0,1651071539759571.0,0
103,1.0,4.0,-3.0,-5.0,0.0,2.0,-1.0,-2.0,1651071539759571.0,0
104,0.0,-1.0,2.0,-4.0,-5.0,0.0,1.0,-1.0,1651071539760572.0,0
105,0.0,2.0,-5.0,-5.0,1.0,-2.0,0.0,-2.0,1651071539760572.0,0
106,-2.0,-5.0,2.0,1.0,4.0,4.0,-1.0,-1.0,1651071539782508.0,0
107,0.0,2.0,4.0,5.0,-3.0,-8.0,-2.0,1.0,1651071539782508.0,0
108,-2.0,2.0,3.0,3.0,4.0,7.0,3.0,1.0,1651071539783479.0,0
109,-1.0,-2.0,-8.0,-13.0,0.0,2.0,-1.0,0.0,1651071539783479.0,0
110,-3.0,-1.0,3.0,11.0,-4.0,-8.0,-2.0,-2.0,1651071539796528.0,0
111,-2.0,1.0,0.0,5.0,-3.0,-21.0,-9.0,0.0,1651071539796528.0,0
112,1.0,3.0,2.0,-4.0,-8.0,17.0,7.0,1.0,1651071539803527.0,0
113,0.0,1.0,1.0,-4.0,15.0,10.0,2.0,1.0,1651071539803527.0,0
114,-2.0,-8.0,-12.0,-8.0,-8.0,-4.0,-2.0,0.0,1651071539819579.0,0
115,0.0,-1.0,1.0,6.0,2.0,2.0,-2.0,-2.0,1651071539819579.0,0
116,0.0,-1.0,0.0,1.0,-1.0,-10.0,-4.0,3.0,1651071539821552.0,0
117,-2.0,-5.0,-4.0,-5.0,-6.0,-7.0,-2.0,-1.0,1651071539821552.0,0
118,-1.0,1.0,2.0,0.0,-2.0,1.0,-1.0,-1.0,1651071539841712.0,0
119,1.0,0.0,-4.0,-7.0,-3.0,-5.0,3.0,0.0,1651071539841712.0,0
120,0.0,0.0,3.0,13.0,6.0,6.0,0.0,-1.0,1651071539843641.0,0
121,0.0,-1.0,2.0,5.0,5.0,2.0,2.0,0.0,1651071539843641.0,0
122,1.0,3.0,6.0,0.0,5.0,3.0,1.0,1.0,1651071539856706.0,0
123,-2.0,1.0,-4.0,-2.0,-5.0,1.0,0.0,0.0,1651071539856706.0,0
124,-2.0,-1.0,2.0,-9.0,-4.0,-4.0,0.0,-1.0,1651071539863449.0,0
125,1.0,-2.0,-8.0,3.0,-2.0,1.0,-3.0,-1.0,1651071539863449.0,0
126,-2.0,-10.0,-1.0,-13.0,-6.0,-3.0,-1.0,-3.0,1651071539879970.0,0
127,-1.0,3.0,8.0,10.0,1.0,-6.0,-6.0,0.0,1651071539879970.0,0
128,0.0,-3.0,-4.0,0.0,-5.0,5.0,5.0,1.0,1651071539880983.0,0
129,0.0,2.0,2.0,5.0,7.0,6.0,1.0,1.0,1651071539880983.0,0
130,-1.0,2.0,6.0,-3.0,4.0,1.0,0.0,1.0,1651071539902519.0,0
131,-1.0,-3.0,-12.0,-7.0,-3.0,3.0,1.0,-1.0,1651071539902519.0,0
132,-2.0,2.0,0.0,-4.0,0.0,-7.0,-3.0,-1.0,1651071539903529.0,0
133,0.0,0.0,1.0,2.0,-8.0,-13.0,-4.0,-3.0,1651071539903529.0,0
134,1.0,1.0,-3.0,1.0,-2.0,9.0,3.0,0.0,1651071539916511.0,0
135,0.0,-1.0,2.0,0.0,4.0,-1.0,1.0,-1.0,1651071539916511.0,0
136,-2.0,0.0,1.0,-4.0,3.0,1.0,-2.0,0.0,1651071539923562.0,0
137,-1.0,-1.0,1.0,9.0,2.0,2.0,2.0,1.0,1651071539923562.0,0
138,-1.0,0.0,2.0,2.0,0.0,-4.0,-3.0,-2.0,1651071539940485.0,0
139,-1.0,1.0,2.0,-1.0,-5.0,0.0,1.0,-1.0,1651071539940485.0,0
140,2.0,-4.0,-5.0,-9.0,-2.0,-3.0,0.0,-3.0,1651071539941443.0,0
141,0.0,0.0,0.0,-6.0,1.0,3.0,-1.0,0.0,1651071539941443.0,0
142,-1.0,-1.0,-1.0,9.0,-5.0,-8.0,-2.0,0.0,1651071539962492.0,0
143,0.0,3.0,3.0,-2.0,3.0,6.0,2.0,1.0,1651071539962492.0,0
144,0.0,-1.0,0.0,1.0,2.0,-3.0,-1.0,0.0,1651071539963490.0,0
145,-2.0,-4.0,-7.0,-7.0,-6.0,-9.0,-5.0,-2.0,1651071539963490.0,0
146,0.0,1.0,-5.0,2.0,-4.0,0.0,2.0,0.0,1651071539976646.0,0
147,-1.0,1.0,-2.0,2.0,5.0,10.0,2.0,0.0,1651071539976646.0,0
148,0.0,-1.0,4.0,2.0,6.0,1.0,-1.0,-1.0,1651071539983604.0,0
149,1.0,3.0,-4.0,4.0,4.0,4.0,1.0,-1.0,1651071539983604.0,0
150,1.0,0.0,2.0,-9.0,-3.0,-7.0,-2.0,-1.0,1651071539999584.0,0
151,0.0,-3.0,4.0,19.0,-2.0,-1.0,-1.0,-2.0,1651071539999584.0,0
152,0.0,2.0,-4.0,-4.0,-1.0,-1.0,0.0,0.0,1651071540001512.0,0
153,-1.0,-2.0,-2.0,-3.0,-4.0,-3.0,0.0,0.0,1651071540001512.0,0
154,2.0,9.0,-1.0,0.0,-1.0,-1.0,0.0,0.0,1651071540021482.0,0
155,-1.0,-5.0,1.0,6.0,2.0,2.0,1.0,-1.0,1651071540021482.0,0
156,-2.0,0.0,7.0,3.0,-4.0,-2.0,-3.0,0.0,1651071540023454.0,0
157,-2.0,0.0,6.0,2.0,0.0,0.0,-2.0,-1.0,1651071540023454.0,0
158,-2.0,0.0,6.0,-6.0,-5.0,-1.0,-1.0,0.0,1651071540036485.0,0
159,-1.0,1.0,-9.0,-6.0,0.0,-1.0,0.0,0.0,1651071540036485.0,0
160,-2.0,-3.0,-6.0,-1.0,1.0,-3.0,-2.0,-1.0,1651071540043466.0,0
161,-1.0,-1.0,5.0,-5.0,-3.0,-1.0,0.0,0.0,1651071540043466.0,0
162,-1.0,-5.0,-5.0,3.0,2.0,3.0,2.0,0.0,1651071540059575.0,0
163,1.0,0.0,-3.0,-3.0,-6.0,-5.0,-3.0,0.0,1651071540059575.0,0
164,-1.0,-2.0,0.0,-2.0,-2.0,-4.0,-1.0,-2.0,1651071540061503.0,0
165,0.0,0.0,3.0,3.0,7.0,10.0,4.0,2.0,1651071540061503.0,0
166,-1.0,-1.0,0.0,5.0,7.0,3.0,0.0,-1.0,1651071540082489.0,0
167,-1.0,-2.0,-4.0,-8.0,-1.0,-4.0,0.0,-1.0,1651071540082489.0,0
168,2.0,6.0,2.0,-6.0,-2.0,7.0,-1.0,0.0,1651071540083429.0,0
169,0.0,-10.0,-10.0,5.0,-6.0,-9.0,-2.0,-1.0,1651071540083429.0,0
170,-1.0,2.0,9.0,17.0,-1.0,-7.0,-3.0,0.0,1651071540096458.0,0
171,-1.0,-2.0,-3.0,-13.0,-2.0,2.0,-2.0,0.0,1651071540096458.0,0
172,0.0,-3.0,-4.0,-5.0,1.0,-2.0,3.0,-2.0,1651071540103440.0,0
173,1.0,3.0,2.0,2.0,-2.0,-1.0,-2.0,-1.0,1651071540103440.0,0
174,-1.0,-5.0,-6.0,5.0,1.0,4.0,1.0,1.0,1651071540119548.0,0
175,-1.0,1.0,7.0,4.0,0.0,-4.0,-1.0,-1.0,1651071540119548.0,0
176,0.0,1.0,-1.0,3.0,2.0,3.0,0.0,2.0,1651071540121514.0,0
177,-1.0,2.0,8.0,-2.0,-2.0,2.0,-1.0,-2.0,1651071540121514.0,0
178,0.0,-4.0,-2.0,-5.0,-6.0,-8.0,-3.0,-1.0,1651071540142510.0,0
179,0.0,2.0,2.0,0.0,4.0,-1.0,-3.0,-1.0,1651071540142510.0,0
180,1.0,-3.0,-4.0,-5.0,5.0,8.0,2.0,2.0,1651071540143480.0,0
181,-2.0,0.0,4.0,5.0,-1.0,-4.0,-2.0,-1.0,1651071540143480.0,0
182,0.0,-2.0,0.0,7.0,-8.0,-7.0,-3.0,1.0,1651071540155451.0,0
183,1.0,3.0,0.0,-10.0,-9.0,-10.0,-4.0,0.0,1651071540155451.0,0
184,-2.0,-1.0,-1.0,4.0,7.0,20.0,8.0,2.0,1651071540164442.0,0
185,1.0,0.0,-4.0,-9.0,3.0,-3.0,-1.0,0.0,1651071540164442.0,0
186,-2.0,2.0,-6.0,-1.0,-2.0,-4.0,0.0,-2.0,1651071540179568.0,0
187,-2.0,0.0,1.0,1.0,4.0,-2.0,2.0,0.0,1651071540179568.0,0
188,1.0,2.0,-2.0,-2.0,-7.0,-2.0,-1.0,-1.0,1651071540181500.0,0
189,0.0,-2.0,-2.0,1.0,5.0,2.0,0.0,1.0,1651071540181500.0,0
190,1.0,2.0,-4.0,7.0,8.0,0.0,-1.0,-1.0,1651071540202515.0,0
191,-1.0,-4.0,6.0,-2.0,0.0,2.0,-2.0,-2.0,1651071540202515.0,0
192,-2.0,4.0,10.0,7.0,-9.0,-12.0,-5.0,-1.0,1651071540203515.0,0
193,-3.0,0.0,1.0,0.0,-24.0,-10.0,-4.0,-3.0,1651071540203515.0,0
194,0.0,-2.0,-7.0,5.0,33.0,14.0,2.0,2.0,1651071540216540.0,0
195,1.0,6.0,6.0,-3.0,-13.0,2.0,1.0,0.0,1651071540216540.0,0
196,-1.0,-15.0,-11.0,8.0,6.0,-3.0,-1.0,-2.0,1651071540224459.0,0
197,1.0,2.0,1.0,7.0,-3.0,-4.0,-1.0,-3.0,1651071540224459.0,0
198,-1.0,2.0,2.0,-18.0,-14.0,-11.0,-3.0,-1.0,1651071540239969.0,0
199,-3.0,-7.0,-9.0,-7.0,-2.0,-9.0,-4.0,-3.0,1651071540239969.0,0
200,-1.0,3.0,2.0,2.0,-14.0,-9.0,1.0,-2.0,1651071540240976.0,0
201,-1.0,4.0,-7.0,-15.0,6.0,11.0,1.0,0.0,1651071540240976.0,0
202,1.0,-1.0,19.0,5.0,10.0,7.0,2.0,1.0,1651071540262464.0,0
203,3.0,0.0,5.0,10.0,-5.0,16.0,6.0,4.0,1651071540262464.0,0
204,0.0,-1.0,2.0,10.0,6.0,-17.0,-7.0,-2.0,1651071540263476.0,0
205,-1.0,3.0,-3.0,-4.0,-5.0,-8.0,-2.0,-3.0,1651071540263476.0,0
206,1.0,11.0,32.0,-13.0,-22.0,-2.0,3.0,-1.0,1651071540275530.0,0
207,-4.0,-39.0,-39.0,2.0,37.0,14.0,2.0,-1.0,1651071540275530.0,0
208,2.0,4.0,31.0,-4.0,0.0,-4.0,-3.0,1.0,1651071540284325.0,0
209,-2.0,3.0,-32.0,-12.0,-7.0,-3.0,1.0,-2.0,1651071540284325.0,0
210,-2.0,3.0,3.0,-5.0,-3.0,2.0,-1.0,1.0,1651071540299921.0,0
211,-1.0,10.0,5.0,-3.0,-25.0,-13.0,-1.0,0.0,1651071540299921.0,0
212,3.0,1.0,1.0,0.0,23.0,15.0,4.0,1.0,1651071540300855.0,0
213,-1.0,-6.0,13.0,10.0,9.0,5.0,-2.0,-1.0,1651071540300855.0,0
214,-1.0,-6.0,-11.0,-8.0,-11.0,-8.0,-2.0,-2.0,1651071540329524.0,0
215,2.0,6.0,-7.0,-14.0,-2.0,1.0,1.0,0.0,1651071540329524.0,0
216,-1.0,-2.0,-9.0,11.0,0.0,1.0,-1.0,-2.0,1651071540331495.0,0
217,0.0,2.0,13.0,-2.0,-5.0,-2.0,1.0,0.0,1651071540331495.0,0
218,-1.0,-4.0,-16.0,-1.0,2.0,-4.0,-2.0,-2.0,1651071540335485.0,0
219,-2.0,2.0,-3.0,0.0,6.0,4.0,1.0,1.0,1651071540335485.0,0
220,0.0,1.0,-2.0,-8.0,-8.0,-2.0,-2.0,0.0,1651071540344460.0,0
221,-3.0,-5.0,-4.0,-12.0,-6.0,-14.0,-2.0,-2.0,1651071540344460.0,0
222,0.0,-2.0,-2.0,2.0,10.0,18.0,4.0,2.0,1651071540359532.0,0
223,1.0,2.0,8.0,29.0,10.0,-4.0,1.0,-1.0,1651071540359532.0,0
224,-3.0,-1.0,-1.0,1.0,4.0,3.0,-1.0,-4.0,1651071540361514.0,0
225,-1.0,-3.0,-2.0,7.0,5.0,0.0,0.0,0.0,1651071540361514.0,0
226,-2.0,-2.0,-8.0,8.0,20.0,11.0,0.0,-1.0,1651071540382497.0,0
227,1.0,-1.0,-15.0,-21.0,19.0,14.0,3.0,1.0,1651071540382497.0,0
228,-4.0,-6.0,-13.0,-6.0,-89.0,-34.0,-9.0,-6.0,1651071540383456.0,0
229,-4.0,-9.0,-20.0,-6.0,66.0,11.0,-3.0,-1.0,1651071540383456.0,1
230,-4.0,7.0,8.0,-1.0,-33.0,-10.0,-2.0,-4.0,1651071540395478.0,1
231,3.0,2.0,33.0,-4.0,5.0,9.0,4.0,3.0,1651071540395478.0,1
232,3.0,-22.0,-21.0,4.0,14.0,-6.0,-2.0,3.0,1651071540404452.0,1
233,3.0,3.0,-1.0,-3.0,-14.0,5.0,0.0,0.0,1651071540404452.0,1
234,-3.0,4.0,5.0,0.0,-16.0,-16.0,-7.0,-5.0,1651071540419705.0,1
235,-6.0,4.0,3.0,6.0,0.0,-4.0,-4.0,-4.0,1651071540419705.0,1
236,-6.0,-3.0,1.0,-2.0,-14.0,-2.0,0.0,-1.0,1651071540420636.0,1
237,1.0,6.0,13.0,-14.0,-21.0,-4.0,-1.0,-1.0,1651071540420636.0,1
238,0.0,-5.0,-29.0,-21.0,3.0,4.0,2.0,2.0,1651071540441727.0,1
239,3.0,4.0,22.0,38.0,4.0,1.0,3.0,1.0,1651071540441727.0,1
240,-1.0,13.0,17.0,-10.0,-4.0,3.0,-1.0,-1.0,1651071540443713.0,1
241,-7.0,-23.0,-31.0,16.0,58.0,19.0,3.0,0.0,1651071540443713.0,1
242,2.0,-11.0,3.0,1.0,-17.0,-6.0,1.0,3.0,1651071540455683.0,1
243,-3.0,-8.0,-10.0,-7.0,-6.0,-5.0,-3.0,-3.0,1651071540455683.0,1
244,4.0,15.0,34.0,18.0,25.0,9.0,3.0,3.0,1651071540464669.0,1
245,-2.0,-9.0,38.0,21.0,-20.0,-9.0,-2.0,0.0,1651071540464669.0,1
246,2.0,1.0,-28.0,19.0,4.0,-4.0,-2.0,-3.0,1651071540478856.0,1
247,-5.0,-7.0,-28.0,-34.0,-7.0,-6.0,-4.0,-5.0,1651071540478856.0,1
248,1.0,6.0,-5.0,-17.0,4.0,0.0,0.0,1.0,1651071540492922.0,1
249,1.0,11.0,13.0,-9.0,-33.0,-2.0,-1.0,1.0,1651071540492922.0,1
250,1.0,-6.0,10.0,22.0,29.0,3.0,0.0,1.0,1651071540501682.0,1
251,4.0,15.0,8.0,3.0,3.0,1.0,2.0,3.0,1651071540501682.0,1
252,-3.0,-2.0,-23.0,-30.0,1.0,6.0,-1.0,-1.0,1651071540503679.0,1
253,6.0,18.0,16.0,13.0,-6.0,-4.0,-1.0,-1.0,1651071540503679.0,1
254,-5.0,-20.0,-15.0,-24.0,-3.0,-5.0,-5.0,-5.0,1651071540515503.0,1
255,0.0,0.0,-10.0,-2.0,-14.0,-4.0,1.0,0.0,1651071540515503.0,1
256,-1.0,8.0,16.0,-4.0,1.0,0.0,1.0,-1.0,1651071540524371.0,1
257,-1.0,-13.0,6.0,25.0,-5.0,-7.0,-4.0,-2.0,1651071540524371.0,1
258,1.0,6.0,6.0,8.0,13.0,-4.0,-2.0,-1.0,1651071540538784.0,1
259,-3.0,1.0,8.0,-22.0,-5.0,-2.0,-1.0,-1.0,1651071540538784.0,1
260,0.0,-4.0,-9.0,2.0,6.0,3.0,-2.0,0.0,1651071540545806.0,1
261,5.0,3.0,-5.0,-5.0,-26.0,-3.0,2.0,1.0,1651071540545806.0,1
262,-1.0,9.0,9.0,2.0,24.0,14.0,4.0,2.0,1651071540562431.0,1
263,0.0,1.0,-11.0,-1.0,-11.0,-12.0,-3.0,-2.0,1651071540562431.0,1
264,-4.0,-10.0,-7.0,26.0,25.0,2.0,-1.0,-2.0,1651071540563428.0,1
265,-1.0,7.0,1.0,-9.0,4.0,-11.0,-1.0,-1.0,1651071540563428.0,1
266,2.0,-5.0,-5.0,-19.0,-27.0,10.0,2.0,-1.0,1651071540584529.0,1
267,1.0,18.0,-9.0,3.0,-6.0,-9.0,-4.0,-1.0,1651071540584529.0,1
268,-1.0,-17.0,-23.0,-25.0,4.0,11.0,4.0,1.0,1651071540586485.0,1
269,2.0,1.0,6.0,6.0,9.0,0.0,3.0,1.0,1651071540586485.0,1
270,-2.0,4.0,11.0,7.0,-12.0,-11.0,-6.0,-2.0,1651071540607500.0,1
271,-3.0,-6.0,11.0,19.0,-2.0,3.0,-2.0,1.0,1651071540607500.0,1
272,0.0,3.0,-3.0,0.0,12.0,0.0,-1.0,0.0,1651071540608465.0,1
273,0.0,3.0,-9.0,-17.0,-18.0,-2.0,0.0,0.0,1651071540608465.0,1
274,2.0,1.0,-16.0,-1.0,24.0,8.0,4.0,2.0,1651071540622425.0,1
275,0.0,2.0,13.0,17.0,-2.0,-1.0,-3.0,-3.0,1651071540622425.0,1
276,-1.0,2.0,-4.0,-14.0,-7.0,-9.0,-1.0,-2.0,1651071540623423.0,1
277,1.0,-3.0,-8.0,-7.0,-2.0,1.0,1.0,2.0,1651071540623423.0,1
278,-2.0,-6.0,-20.0,2.0,0.0,-9.0,-1.0,1.0,1651071540644513.0,1
279,3.0,0.0,8.0,-16.0,0.0,9.0,3.0,2.0,1651071540644513.0,1
280,-2.0,-6.0,-13.0,2.0,-14.0,-11.0,-5.0,-1.0,1651071540646508.0,1
281,-2.0,3.0,-9.0,-22.0,-3.0,5.0,5.0,2.0,1651071540646508.0,1
282,0.0,-2.0,11.0,0.0,4.0,7.0,-2.0,-1.0,1651071540659541.0,1
283,2.0,2.0,6.0,15.0,12.0,7.0,7.0,1.0,1651071540659541.0,1
284,-1.0,5.0,5.0,5.0,0.0,-2.0,-1.0,-2.0,1651071540661468.0,1
285,-3.0,-1.0,2.0,2.0,-14.0,-8.0,-3.0,0.0,1651071540661468.0,1
286,-1.0,0.0,6.0,-7.0,-6.0,-6.0,2.0,1.0,1651071540681682.0,1
287,-1.0,-1.0,8.0,15.0,15.0,6.0,-1.0,-1.0,1651071540681682.0,1
288,-1.0,3.0,10.0,2.0,-4.0,0.0,0.0,-3.0,1651071540683679.0,1
289,-1.0,-4.0,-2.0,-1.0,-2.0,-6.0,-2.0,0.0,1651071540683679.0,1
290,-2.0,4.0,3.0,-8.0,3.0,9.0,3.0,-1.0,1651071540704733.0,1
291,-1.0,-1.0,-4.0,-16.0,-13.0,-5.0,-4.0,-2.0,1651071540704733.0,1
292,0.0,-1.0,5.0,9.0,8.0,1.0,2.0,1.0,1651071540705730.0,1
293,-1.0,-1.0,-1.0,-2.0,8.0,6.0,-1.0,0.0,1651071540705730.0,1
294,-1.0,0.0,10.0,18.0,-14.0,-4.0,-4.0,0.0,1651071540718755.0,1
295,0.0,-4.0,-15.0,-15.0,-3.0,-4.0,-3.0,0.0,1651071540718755.0,1
296,3.0,5.0,10.0,2.0,7.0,3.0,3.0,3.0,1651071540725740.0,1
297,-4.0,-9.0,-12.0,-3.0,-5.0,0.0,-2.0,-4.0,1651071540725740.0,1
298,3.0,5.0,5.0,-10.0,-4.0,-3.0,0.0,1.0,1651071540742462.0,1
299,-5.0,-10.0,-9.0,7.0,-2.0,-13.0,-4.0,-3.0,1651071540742462.0,1
300,0.0,1.0,-12.0,5.0,6.0,12.0,-1.0,-1.0,1651071540743495.0,1
301,3.0,3.0,2.0,-4.0,4.0,7.0,2.0,0.0,1651071540743495.0,1
302,-2.0,-8.0,-22.0,-8.0,-12.0,-10.0,-3.0,-5.0,1651071540764545.0,1
303,-2.0,-13.0,6.0,-12.0,-8.0,-6.0,-1.0,-2.0,1651071540764545.0,1
304,3.0,5.0,2.0,-3.0,-6.0,-6.0,-3.0,-1.0,1651071540766525.0,1
305,-2.0,10.0,0.0,6.0,10.0,-7.0,-3.0,-3.0,1651071540766525.0,1
306,-1.0,2.0,12.0,7.0,7.0,13.0,3.0,1.0,1651071540778695.0,1
307,2.0,-2.0,-18.0,-4.0,0.0,-4.0,-1.0,0.0,1651071540778695.0,1
308,-2.0,-1.0,10.0,2.0,-2.0,2.0,1.0,-1.0,1651071540785711.0,1
309,0.0,1.0,-13.0,-6.0,9.0,3.0,0.0,0.0,1651071540785711.0,1
310,-1.0,-4.0,16.0,18.0,0.0,-10.0,0.0,-2.0,1651071540802518.0,1
311,1.0,5.0,0.0,4.0,2.0,3.0,-2.0,-1.0,1651071540802518.0,1
312,-1.0,5.0,2.0,-8.0,-9.0,-2.0,0.0,1.0,1651071540803519.0,1
313,-3.0,-6.0,17.0,8.0,-1.0,3.0,0.0,-2.0,1651071540803519.0,1
314,-2.0,0.0,-45.0,-43.0,-8.0,-8.0,-5.0,-2.0,1651071540824529.0,1
315,-2.0,-5.0,19.0,36.0,-5.0,-1.0,-4.0,-4.0,1651071540824529.0,1
316,5.0,6.0,0.0,8.0,30.0,19.0,7.0,2.0,1651071540826484.0,1
317,-2.0,0.0,-1.0,8.0,-5.0,-6.0,-3.0,-2.0,1651071540826484.0,1
318,2.0,0.0,18.0,12.0,6.0,7.0,3.0,0.0,1651071540838491.0,1
319,0.0,-5.0,-29.0,-35.0,-18.0,-9.0,-3.0,1.0,1651071540838491.0,1
320,1.0,-1.0,-9.0,-6.0,-20.0,-11.0,-6.0,-3.0,1651071540845418.0,1
321,-4.0,-2.0,1.0,8.0,12.0,0.0,2.0,-3.0,1651071540845418.0,1
322,1.0,0.0,16.0,-1.0,18.0,2.0,-1.0,1.0,1651071540862360.0,1
323,-1.0,-2.0,-5.0,-11.0,-7.0,-1.0,0.0,0.0,1651071540862360.0,1
324,-2.0,-4.0,2.0,7.0,-6.0,0.0,-1.0,0.0,1651071540863360.0,1
325,3.0,0.0,-4.0,-9.0,2.0,3.0,2.0,3.0,1651071540863360.0,1
326,-4.0,4.0,2.0,2.0,-9.0,-5.0,-3.0,-3.0,1651071540884459.0,1
327,0.0,3.0,4.0,5.0,2.0,-4.0,1.0,0.0,1651071540884459.0,1
328,0.0,-5.0,-3.0,-7.0,-5.0,2.0,0.0,-2.0,1651071540886417.0,1
329,2.0,5.0,23.0,10.0,-15.0,-3.0,0.0,1.0,1651071540886417.0,1
330,2.0,0.0,-14.0,5.0,34.0,8.0,3.0,0.0,1651071540898458.0,1
331,-2.0,7.0,11.0,-8.0,-3.0,1.0,0.0,-1.0,1651071540898458.0,1
332,-1.0,-4.0,1.0,12.0,0.0,-17.0,-6.0,1.0,1651071540905484.0,1
333,2.0,7.0,1.0,-4.0,-12.0,6.0,2.0,1.0,1651071540905484.0,1
334,1.0,-5.0,5.0,-1.0,-7.0,0.0,0.0,0.0,1651071540921697.0,1
335,2.0,3.0,1.0,-10.0,6.0,-4.0,-3.0,-1.0,1651071540921697.0,1
336,-2.0,-1.0,-2.0,4.0,-7.0,8.0,6.0,0.0,1651071540923694.0,1
337,1.0,2.0,-4.0,-8.0,7.0,-5.0,-2.0,0.0,1651071540923694.0,1
338,-4.0,-9.0,-24.0,-8.0,-13.0,-4.0,-2.0,-1.0,1651071540944789.0,1
339,0.0,0.0,3.0,13.0,11.0,3.0,3.0,1.0,1651071540944789.0,1
340,-1.0,2.0,7.0,-11.0,-20.0,-8.0,-2.0,-1.0,1651071540946801.0,1
341,-2.0,-10.0,-14.0,2.0,14.0,0.0,-3.0,-3.0,1651071540946801.0,1
342,-5.0,-2.0,9.0,-10.0,0.0,1.0,1.0,-4.0,1651071540959319.0,1
343,2.0,2.0,-10.0,2.0,-3.0,0.0,2.0,2.0,1651071540959319.0,1
344,2.0,-3.0,-4.0,-8.0,4.0,3.0,-1.0,-3.0,1651071540965306.0,1
345,0.0,-5.0,0.0,4.0,-17.0,-4.0,-1.0,-1.0,1651071540965306.0,1
346,0.0,-1.0,-6.0,8.0,4.0,-2.0,0.0,0.0,1651071540982457.0,1
347,1.0,1.0,8.0,10.0,4.0,3.0,2.0,2.0,1651071540982457.0,1
348,-4.0,-5.0,-3.0,-6.0,-3.0,-12.0,-6.0,-1.0,1651071540983391.0,1
349,-4.0,-7.0,5.0,-3.0,-4.0,8.0,0.0,-2.0,1651071540983391.0,1
350,-2.0,-2.0,-1.0,-11.0,-12.0,-1.0,-2.0,1.0,1651071541004455.0,1
351,0.0,7.0,9.0,7.0,0.0,2.0,2.0,-3.0,1651071541004455.0,1
352,0.0,-13.0,-13.0,-9.0,11.0,10.0,2.0,-1.0,1651071541006462.0,1
353,0.0,-1.0,-22.0,-11.0,-20.0,-9.0,-1.0,1.0,1651071541006462.0,1
354,-2.0,0.0,11.0,-1.0,9.0,4.0,-3.0,-3.0,1651071541018487.0,1
355,0.0,-4.0,7.0,10.0,19.0,7.0,3.0,4.0,1651071541018487.0,1
356,-1.0,10.0,6.0,0.0,-21.0,-7.0,-5.0,-2.0,1651071541025513.0,1
357,1.0,-2.0,-5.0,6.0,25.0,10.0,2.0,1.0,1651071541025513.0,1
358,2.0,-1.0,2.0,-4.0,-19.0,-5.0,2.0,0.0,1651071541049573.0,1
359,-2.0,-10.0,-18.0,-20.0,-8.0,-4.0,-2.0,-2.0,1651071541049573.0,1
360,0.0,0.0,12.0,46.0,16.0,-8.0,-2.0,0.0,1651071541051565.0,1
361,-1.0,9.0,-2.0,7.0,4.0,7.0,4.0,-1.0,1651071541051565.0,1
362,1.0,-3.0,9.0,10.0,0.0,4.0,2.0,0.0,1651071541064605.0,1
363,-1.0,-4.0,-17.0,-26.0,-7.0,-1.0,-3.0,-3.0,1651071541064605.0,1
364,-2.0,3.0,-1.0,-24.0,-20.0,-10.0,-1.0,-1.0,1651071541066529.0,1
365,0.0,-2.0,1.0,11.0,21.0,3.0,-3.0,1.0,1651071541066529.0,1
366,-1.0,4.0,8.0,17.0,3.0,-8.0,0.0,0.0,1651071541078493.0,1
367,-3.0,-4.0,-9.0,-19.0,-22.0,-3.0,-3.0,-1.0,1651071541078493.0,1
368,0.0,-3.0,-8.0,-2.0,6.0,9.0,5.0,2.0,1651071541087470.0,1
369,-2.0,0.0,-7.0,1.0,13.0,-4.0,-3.0,-1.0,1651071541087470.0,1
370,0.0,0.0,3.0,-8.0,-10.0,-1.0,-1.0,-2.0,1651071541102559.0,1
371,2.0,0.0,-10.0,3.0,3.0,2.0,-2.0,1.0,1651071541102559.0,1
372,-1.0,-3.0,2.0,-1.0,-10.0,-4.0,-1.0,-1.0,1651071541103549.0,1
373,-1.0,0.0,8.0,-4.0,6.0,1.0,1.0,-2.0,1651071541103549.0,1
374,-2.0,-2.0,-8.0,14.0,5.0,-1.0,-2.0,0.0,1651071541123495.0,1
375,0.0,-6.0,-11.0,0.0,-12.0,-7.0,-1.0,-2.0,1651071541123495.0,1
376,2.0,4.0,-6.0,-8.0,15.0,12.0,2.0,2.0,1651071541124492.0,1
377,0.0,-4.0,7.0,-14.0,-14.0,-3.0,-1.0,0.0,1651071541124492.0,1
378,2.0,4.0,-9.0,3.0,12.0,7.0,5.0,2.0,1651071541147462.0,1
379,0.0,8.0,22.0,-11.0,-19.0,-8.0,1.0,-1.0,1651071541147462.0,1
380,-1.0,-1.0,-6.0,25.0,32.0,10.0,4.0,1.0,1651071541147462.0,1
381,1.0,-6.0,1.0,6.0,-6.0,-3.0,-1.0,1.0,1651071541147462.0,1
382,-2.0,0.0,6.0,-10.0,-16.0,-13.0,-7.0,-2.0,1651071541161596.0,1
383,-1.0,-4.0,-8.0,3.0,12.0,0.0,1.0,1.0,1651071541161596.0,1
384,-2.0,-14.0,-7.0,-14.0,-9.0,-2.0,-1.0,-1.0,1651071541162524.0,1
385,-2.0,0.0,-22.0,-3.0,-7.0,-4.0,0.0,-1.0,1651071541162524.0,1
386,1.0,9.0,7.0,1.0,6.0,-3.0,-1.0,-2.0,1651071541184182.0,1
387,-2.0,-15.0,-24.0,1.0,9.0,10.0,0.0,-2.0,1651071541184182.0,1
388,-2.0,1.0,1.0,-13.0,-9.0,-7.0,0.0,-1.0,1651071541184378.0,1
389,1.0,6.0,7.0,11.0,2.0,-1.0,-1.0,0.0,1651071541184378.0,1
390,1.0,3.0,4.0,-10.0,-22.0,-8.0,0.0,1.0,1651071541214568.0,1
391,-2.0,-1.0,12.0,29.0,36.0,11.0,1.0,0.0,1651071541214568.0,1
392,-2.0,1.0,-1.0,-19.0,-6.0,-8.0,-4.0,-2.0,1651071541215525.0,1
393,-1.0,1.0,-3.0,-12.0,-16.0,1.0,0.0,0.0,1651071541215525.0,1
394,2.0,-2.0,0.0,-2.0,1.0,7.0,3.0,2.0,1651071541221509.0,1
395,-2.0,6.0,7.0,5.0,7.0,2.0,-3.0,0.0,1651071541221509.0,1
396,3.0,5.0,8.0,21.0,10.0,8.0,5.0,4.0,1651071541222494.0,1
397,-2.0,-8.0,7.0,-20.0,-10.0,-12.0,-5.0,-3.0,1651071541222494.0,1
398,-1.0,-5.0,-31.0,-7.0,-5.0,-6.0,1.0,1.0,1651071541251613.0,1
399,-1.0,-6.0,-2.0,-6.0,2.0,-3.0,-4.0,-4.0,1651071541251613.0,1
400,1.0,6.0,6.0,16.0,8.0,-4.0,-2.0,-2.0,1651071541252613.0,1
401,-2.0,-2.0,-3.0,-6.0,-4.0,-1.0,-2.0,0.0,1651071541252613.0,1
402,-1.0,-1.0,13.0,-7.0,0.0,4.0,2.0,1.0,1651071541266639.0,1
403,0.0,7.0,13.0,4.0,-9.0,-2.0,5.0,0.0,1651071541266639.0,1
404,-1.0,0.0,-15.0,-9.0,-17.0,-5.0,-3.0,-2.0,1651071541266639.0,1
405,-1.0,-1.0,19.0,11.0,26.0,9.0,3.0,1.0,1651071541266639.0,1
406,-2.0,-6.0,-4.0,6.0,5.0,1.0,-3.0,-1.0,1651071541281693.0,1
407,1.0,9.0,8.0,-7.0,-1.0,-3.0,1.0,0.0,1651071541281693.0,1
408,-2.0,-4.0,2.0,7.0,0.0,0.0,-2.0,-2.0,1651071541281693.0,1
409,0.0,-1.0,-2.0,2.0,-14.0,-3.0,-3.0,0.0,1651071541281693.0,1
410,-1.0,0.0,-4.0,9.0,6.0,-5.0,0.0,1.0,1651071541303973.0,1
411,0.0,1.0,-3.0,3.0,-12.0,-4.0,-2.0,0.0,1651071541303973.0,1
412,-1.0,-3.0,0.0,-8.0,10.0,18.0,2.0,1.0,1651071541304931.0,1
413,-2.0,-6.0,-7.0,2.0,9.0,-12.0,-4.0,-4.0,1651071541304931.0,1
414,0.0,1.0,2.0,-2.0,7.0,17.0,5.0,2.0,1651071541327001.0,1
415,0.0,8.0,17.0,6.0,-20.0,-10.0,-4.0,0.0,1651071541327001.0,1
416,2.0,4.0,9.0,-20.0,-7.0,-3.0,1.0,0.0,1651071541327928.0,1
417,-3.0,-11.0,-16.0,13.0,24.0,4.0,-2.0,1.0,1651071541327928.0,1
418,-1.0,1.0,6.0,9.0,1.0,-9.0,-2.0,-3.0,1651071541340897.0,1
419,-1.0,4.0,3.0,1.0,-2.0,2.0,0.0,1.0,1651071541340897.0,1
420,2.0,0.0,-15.0,-3.0,-7.0,-4.0,-1.0,0.0,1651071541341903.0,1
421,-1.0,-2.0,8.0,-12.0,-8.0,0.0,1.0,0.0,1651071541341903.0,1
422,1.0,2.0,14.0,5.0,0.0,0.0,1.0,0.0,1651071541363463.0,1
423,-3.0,-12.0,-49.0,2.0,8.0,-1.0,-2.0,-2.0,1651071541363463.0,1
424,-2.0,1.0,-5.0,-4.0,7.0,4.0,0.0,1.0,1651071541364458.0,1
425,1.0,4.0,12.0,-5.0,-1.0,0.0,0.0,1.0,1651071541364458.0,1
426,-2.0,-4.0,-8.0,-4.0,-12.0,-2.0,-2.0,-1.0,1651071541386468.0,1
427,-3.0,-3.0,6.0,-4.0,-3.0,0.0,1.0,1.0,1651071541386468.0,1
428,0.0,2.0,5.0,9.0,0.0,-7.0,-5.0,-2.0,1651071541387423.0,1
429,-2.0,-14.0,-23.0,6.0,-12.0,8.0,2.0,-2.0,1651071541387423.0,1
430,2.0,9.0,8.0,2.0,12.0,1.0,1.0,0.0,1651071541401426.0,1
431,-1.0,-9.0,-19.0,-21.0,5.0,-2.0,-2.0,-2.0,1651071541401426.0,1
432,-3.0,0.0,4.0,3.0,-19.0,-8.0,-4.0,-3.0,1651071541402356.0,1
433,1.0,13.0,14.0,-5.0,0.0,1.0,4.0,1.0,1651071541402356.0,1
434,-2.0,0.0,-19.0,-7.0,6.0,5.0,-1.0,-2.0,1651071541424148.0,1
435,-1.0,-4.0,14.0,6.0,-5.0,1.0,2.0,0.0,1651071541424148.0,1
436,-2.0,0.0,-2.0,-7.0,-1.0,-2.0,-1.0,2.0,1651071541424148.0,1
437,0.0,8.0,23.0,12.0,0.0,-3.0,-2.0,0.0,1651071541424148.0,1
438,-2.0,-6.0,-4.0,-2.0,7.0,-2.0,-2.0,-3.0,1651071541446680.0,1
439,2.0,3.0,4.0,0.0,0.0,1.0,1.0,0.0,1651071541446680.0,1
440,-1.0,-2.0,1.0,-12.0,-7.0,-8.0,-2.0,-2.0,1651071541446680.0,1
441,1.0,0.0,2.0,-5.0,0.0,10.0,-3.0,-2.0,1651071541446680.0,1
442,1.0,0.0,-6.0,-1.0,-12.0,-1.0,3.0,3.0,1651071541461701.0,1
443,-1.0,0.0,6.0,9.0,12.0,5.0,0.0,0.0,1651071541461701.0,1
444,-2.0,-5.0,8.0,5.0,17.0,5.0,4.0,0.0,1651071541461701.0,1
445,-2.0,0.0,-17.0,-6.0,-11.0,-9.0,-3.0,-2.0,1651071541461701.0,1
446,-2.0,3.0,2.0,-13.0,-14.0,-5.0,-2.0,-2.0,1651071541484232.0,1
447,-2.0,-11.0,-7.0,9.0,-3.0,2.0,-3.0,0.0,1651071541484232.0,1
448,0.0,3.0,1.0,-2.0,14.0,-4.0,1.0,1.0,1651071541484425.0,1
449,0.0,0.0,2.0,7.0,0.0,4.0,1.0,-1.0,1651071541484425.0,1
450,0.0,3.0,4.0,-2.0,-2.0,1.0,-2.0,-1.0,1651071541506561.0,1
451,-1.0,6.0,10.0,-9.0,-4.0,-5.0,0.0,1.0,1651071541506561.0,1
452,-2.0,-4.0,-7.0,8.0,-2.0,-7.0,-4.0,-1.0,1651071541507494.0,1
453,-2.0,-1.0,-2.0,-8.0,-10.0,-3.0,1.0,0.0,1651071541507494.0,1
454,-1.0,0.0,0.0,0.0,5.0,4.0,-2.0,0.0,1651071541521612.0,1
455,1.0,0.0,1.0,3.0,1.0,5.0,1.0,2.0,1651071541521612.0,1
456,3.0,2.0,-1.0,3.0,3.0,2.0,1.0,0.0,1651071541521612.0,1
457,0.0,-4.0,4.0,6.0,-7.0,-9.0,-2.0,-2.0,1651071541521612.0,1
458,-2.0,-3.0,0.0,-4.0,-8.0,-12.0,-6.0,-1.0,1651071541543586.0,1
459,1.0,1.0,-3.0,0.0,-1.0,-3.0,0.0,-3.0,1651071541543586.0,1
460,0.0,-3.0,-1.0,-11.0,-7.0,-3.0,1.0,0.0,1651071541544529.0,1
461,1.0,1.0,-1.0,14.0,9.0,13.0,3.0,1.0,1651071541544529.0,1
462,1.0,-2.0,1.0,11.0,9.0,3.0,1.0,0.0,1651071541566689.0,1
463,-1.0,0.0,4.0,-3.0,-2.0,-2.0,-2.0,-1.0,1651071541566689.0,1
464,-2.0,1.0,-3.0,-8.0,-9.0,-6.0,-2.0,-3.0,1651071541566689.0,1
465,1.0,-1.0,-7.0,-6.0,1.0,-13.0,-5.0,-1.0,1651071541566689.0,1
466,-3.0,-4.0,-4.0,0.0,1.0,10.0,3.0,0.0,1651071541581702.0,1
467,1.0,3.0,-1.0,-3.0,-5.0,1.0,0.0,-1.0,1651071541581702.0,1
468,-2.0,-2.0,3.0,10.0,0.0,6.0,1.0,-1.0,1651071541581702.0,1
469,0.0,-1.0,-9.0,-10.0,4.0,1.0,4.0,2.0,1651071541581702.0,1
470,-1.0,-4.0,4.0,11.0,-4.0,-8.0,-6.0,-3.0,1651071541603815.0,1
471,0.0,2.0,-1.0,-21.0,-4.0,-7.0,-2.0,-1.0,1651071541603815.0,1
472,-1.0,-2.0,1.0,16.0,-3.0,-5.0,-2.0,-2.0,1651071541604815.0,1
473,0.0,-2.0,-1.0,0.0,11.0,17.0,-1.0,-1.0,1651071541604815.0,1
474,-1.0,1.0,0.0,-12.0,-7.0,-4.0,0.0,1.0,1651071541625936.0,1
475,-1.0,-1.0,5.0,16.0,5.0,5.0,2.0,0.0,1651071541625936.0,1
476,-1.0,-3.0,-10.0,-6.0,-6.0,0.0,-3.0,0.0,1651071541626912.0,1
477,-1.0,0.0,-3.0,-7.0,-6.0,-7.0,-2.0,-1.0,1651071541626912.0,1
478,1.0,1.0,3.0,7.0,0.0,2.0,-1.0,0.0,1651071541641221.0,1
479,-1.0,-3.0,-9.0,-12.0,-1.0,-2.0,3.0,-1.0,1651071541641221.0,1
480,0.0,1.0,0.0,-2.0,0.0,-8.0,-5.0,-1.0,1651071541642217.0,1
481,-1.0,1.0,2.0,2.0,-3.0,3.0,5.0,-1.0,1651071541642217.0,1
482,-1.0,-1.0,-6.0,-6.0,2.0,1.0,1.0,1.0,1651071541663487.0,1
483,1.0,5.0,10.0,5.0,3.0,0.0,-1.0,0.0,1651071541663487.0,1
484,-2.0,-6.0,-6.0,14.0,7.0,7.0,4.0,0.0,1651071541664446.0,1
485,0.0,1.0,7.0,-3.0,-7.0,-1.0,-3.0,0.0,1651071541664446.0,1
486,0.0,-3.0,-23.0,-22.0,-4.0,-9.0,-3.0,-2.0,1651071541686372.0,1
487,0.0,-2.0,6.0,18.0,1.0,0.0,0.0,0.0,1651071541686372.0,1
488,-2.0,2.0,-7.0,-13.0,-5.0,-4.0,-2.0,-3.0,1651071541687370.0,1
489,0.0,0.0,-3.0,5.0,12.0,4.0,1.0,1.0,1651071541687370.0,1
490,-1.0,5.0,5.0,12.0,0.0,-1.0,0.0,-1.0,1651071541701415.0,1
491,-3.0,-6.0,-5.0,-8.0,-1.0,5.0,-2.0,0.0,1651071541701415.0,1
492,-1.0,0.0,-10.0,1.0,-5.0,3.0,2.0,1.0,1651071541702442.0,1
493,0.0,5.0,36.0,-1.0,0.0,-6.0,0.0,-1.0,1651071541702442.0,1
494,0.0,2.0,-20.0,11.0,-6.0,-8.0,-1.0,-1.0,1651071541723713.0,1
495,0.0,-3.0,-16.0,-9.0,3.0,5.0,1.0,2.0,1651071541723713.0,1
496,-2.0,-13.0,-8.0,-3.0,1.0,1.0,-2.0,-1.0,1651071541724445.0,1
497,3.0,1.0,-10.0,10.0,-4.0,-2.0,-1.0,1.0,1651071541724445.0,1
498,-1.0,7.0,29.0,-6.0,1.0,-6.0,-5.0,-2.0,1651071541746479.0,1
499,2.0,-4.0,-9.0,2.0,-3.0,2.0,7.0,-1.0,1651071541746479.0,1
500,0.0,9.0,5.0,14.0,11.0,12.0,3.0,3.0,1651071541747488.0,1
501,1.0,-10.0,16.0,-23.0,-3.0,3.0,1.0,1.0,1651071541747488.0,1
502,1.0,-13.0,-13.0,5.0,-8.0,-8.0,-4.0,-2.0,1651071541761632.0,1
503,-2.0,5.0,9.0,9.0,-3.0,-1.0,-3.0,-4.0,1651071541761632.0,1
504,-5.0,-5.0,3.0,-30.0,-4.0,-7.0,-2.0,0.0,1651071541761632.0,1
505,-3.0,8.0,-21.0,-5.0,-5.0,-7.0,-2.0,0.0,1651071541761632.0,1
506,0.0,-6.0,9.0,12.0,8.0,11.0,3.0,0.0,1651071541783577.0,1
507,1.0,2.0,3.0,-12.0,-3.0,-5.0,-3.0,-1.0,1651071541783577.0,1
508,1.0,-1.0,9.0,10.0,1.0,-4.0,-3.0,-2.0,1651071541784572.0,1
509,-3.0,1.0,-9.0,0.0,1.0,4.0,-1.0,0.0,1651071541784572.0,1
510,-3.0,-10.0,-6.0,-7.0,-2.0,2.0,2.0,0.0,1651071541806619.0,1
511,1.0,6.0,19.0,11.0,1.0,-2.0,-3.0,-1.0,1651071541806619.0,1
512,-1.0,-9.0,-11.0,3.0,-1.0,-1.0,-1.0,-2.0,1651071541807547.0,1
513,-3.0,-6.0,-26.0,-11.0,-4.0,-6.0,-2.0,-3.0,1651071541807547.0,1
514,1.0,-6.0,-8.0,-15.0,-2.0,-1.0,1.0,-1.0,1651071541821680.0,1
515,0.0,-3.0,5.0,18.0,3.0,2.0,0.0,0.0,1651071541821680.0,1
516,-2.0,3.0,7.0,1.0,1.0,3.0,1.0,-1.0,1651071541821680.0,1
517,2.0,1.0,-2.0,10.0,-4.0,-6.0,-2.0,-2.0,1651071541821680.0,1
518,1.0,-2.0,-25.0,-19.0,-7.0,7.0,5.0,2.0,1651071541844231.0,1
519,0.0,5.0,16.0,8.0,5.0,-2.0,-1.0,0.0,1651071541844231.0,1
520,4.0,-10.0,-10.0,-5.0,-2.0,5.0,2.0,1.0,1651071541844431.0,1
521,0.0,2.0,5.0,5.0,-5.0,-6.0,-3.0,-1.0,1651071541844431.0,1
522,1.0,4.0,19.0,10.0,2.0,-4.0,-3.0,-3.0,1651071541866378.0,1
523,0.0,-2.0,-12.0,-18.0,-4.0,0.0,0.0,-2.0,1651071541866378.0,1
524,-1.0,4.0,6.0,9.0,6.0,1.0,2.0,1.0,1651071541867372.0,1
525,0.0,-2.0,5.0,-6.0,0.0,1.0,1.0,1.0,1651071541867372.0,1
526,0.0,-1.0,5.0,7.0,-4.0,-6.0,-3.0,-1.0,1651071541881711.0,1
527,-4.0,-1.0,5.0,2.0,-2.0,-12.0,-4.0,-1.0,1651071541881711.0,1
528,0.0,-3.0,-18.0,-5.0,9.0,20.0,1.0,0.0,1651071541881711.0,1
529,-2.0,-2.0,7.0,7.0,0.0,-2.0,-1.0,-1.0,1651071541881711.0,1
530,-2.0,1.0,-1.0,7.0,5.0,3.0,1.0,-1.0,1651071541904224.0,1
531,-1.0,-5.0,-3.0,-12.0,-4.0,-5.0,-1.0,0.0,1651071541904224.0,1
532,1.0,4.0,-1.0,1.0,-6.0,-9.0,-3.0,-1.0,1651071541904439.0,0
533,-1.0,-3.0,-11.0,-10.0,0.0,2.0,1.0,0.0,1651071541904439.0,0
534,-2.0,11.0,18.0,1.0,0.0,0.0,-1.0,-2.0,1651071541926670.0,0
535,2.0,-19.0,-44.0,5.0,0.0,1.0,0.0,-1.0,1651071541926670.0,0
536,1.0,18.0,23.0,-4.0,-3.0,-3.0,-2.0,-2.0,1651071541926670.0,0
537,-3.0,-1.0,13.0,3.0,-2.0,-8.0,-5.0,-1.0,1651071541926670.0,0
538,3.0,0.0,-23.0,-8.0,4.0,10.0,8.0,2.0,1651071541941615.0,0
539,0.0,10.0,14.0,-2.0,1.0,3.0,2.0,-2.0,1651071541941615.0,0
540,-1.0,0.0,0.0,17.0,5.0,0.0,1.0,-1.0,1651071541941615.0,0
541,1.0,3.0,-9.0,0.0,-1.0,-1.0,-1.0,0.0,1651071541941615.0,0
542,-1.0,4.0,29.0,3.0,-2.0,-5.0,-3.0,-1.0,1651071541972340.0,0
543,0.0,0.0,-2.0,6.0,-3.0,0.0,0.0,0.0,1651071541972340.0,0
544,1.0,-4.0,-3.0,-14.0,-4.0,-2.0,-1.0,-1.0,1651071541973183.0,0
545,-2.0,3.0,-5.0,-6.0,4.0,4.0,0.0,0.0,1651071541973183.0,0
546,-2.0,-8.0,-24.0,-3.0,-3.0,-4.0,-4.0,-3.0,1651071541986277.0,0
547,-1.0,-3.0,0.0,-7.0,-2.0,1.0,-2.0,0.0,1651071541986277.0,0
548,2.0,16.0,29.0,5.0,-2.0,-4.0,0.0,1.0,1651071541987207.0,0
549,-5.0,-33.0,-27.0,-3.0,0.0,0.0,0.0,-2.0,1651071541987207.0,0
550,0.0,5.0,13.0,-9.0,1.0,1.0,-3.0,-1.0,1651071542001721.0,0
551,-1.0,6.0,-11.0,21.0,2.0,1.0,-2.0,0.0,1651071542001721.0,0
552,-1.0,3.0,8.0,-9.0,-8.0,-7.0,-2.0,-1.0,1651071542001721.0,0
553,2.0,3.0,-1.0,-4.0,2.0,11.0,1.0,-2.0,1651071542001721.0,0
554,0.0,1.0,2.0,2.0,4.0,-3.0,-1.0,-1.0,1651071542023764.0,0
555,-1.0,0.0,13.0,2.0,1.0,-1.0,-2.0,-2.0,1651071542023764.0,0
556,-1.0,-7.0,2.0,-12.0,6.0,4.0,0.0,-1.0,1651071542024706.0,0
557,1.0,4.0,-2.0,15.0,-5.0,-2.0,0.0,1.0,1651071542024706.0,0
558,-1.0,0.0,12.0,8.0,-2.0,-4.0,-3.0,-2.0,1651071542046713.0,0
559,0.0,-3.0,-24.0,-31.0,-8.0,-3.0,-1.0,-1.0,1651071542046713.0,0
560,0.0,-6.0,-13.0,10.0,1.0,0.0,-1.0,-1.0,1651071542046713.0,2
561,-1.0,4.0,11.0,-9.0,-6.0,-4.0,-1.0,0.0,1651071542046713.0,2
562,-2.0,1.0,12.0,6.0,-8.0,-6.0,0.0,2.0,1651071542061664.0,2
563,-2.0,4.0,8.0,3.0,3.0,9.0,0.0,0.0,1651071542061664.0,2
564,-1.0,-6.0,-13.0,-18.0,-5.0,-2.0,-3.0,-1.0,1651071542061664.0,2
565,-1.0,2.0,5.0,3.0,5.0,2.0,0.0,0.0,1651071542061664.0,2
566,0.0,2.0,-4.0,3.0,-2.0,-5.0,-1.0,0.0,1651071542084181.0,2
567,0.0,2.0,11.0,1.0,-4.0,-3.0,0.0,0.0,1651071542084181.0,2
568,-2.0,-10.0,-16.0,-2.0,-6.0,-7.0,-3.0,0.0,1651071542084477.0,2
569,-1.0,8.0,11.0,1.0,2.0,3.0,0.0,1.0,1651071542084477.0,2
570,1.0,-5.0,-4.0,3.0,3.0,5.0,1.0,1.0,1651071542106569.0,2
571,-3.0,-4.0,10.0,-2.0,-1.0,-5.0,-1.0,1.0,1651071542106569.0,2
572,0.0,2.0,5.0,-2.0,8.0,9.0,0.0,-1.0,1651071542106569.0,2
573,-1.0,4.0,-3.0,4.0,-5.0,-9.0,-2.0,-2.0,1651071542106569.0,2
574,0.0,6.0,-4.0,-14.0,1.0,5.0,-1.0,1.0,1651071542120601.0,2
575,-2.0,-5.0,3.0,0.0,-3.0,-1.0,-3.0,-2.0,1651071542120601.0,2
576,-1.0,3.0,-2.0,8.0,1.0,-5.0,-4.0,0.0,1651071542128580.0,2
577,1.0,-3.0,2.0,10.0,4.0,2.0,-1.0,0.0,1651071542128580.0,2
578,0.0,2.0,-17.0,-29.0,-8.0,-3.0,-1.0,-2.0,1651071542144180.0,2
579,0.0,-5.0,1.0,3.0,0.0,-4.0,0.0,0.0,1651071542144180.0,2
580,0.0,1.0,15.0,5.0,-3.0,-4.0,-1.0,0.0,1651071542144477.0,2
581,1.0,3.0,-4.0,2.0,6.0,0.0,0.0,0.0,1651071542144477.0,2
582,-1.0,2.0,7.0,-2.0,5.0,9.0,0.0,0.0,1651071542166599.0,2
583,-2.0,-8.0,-8.0,6.0,-4.0,-6.0,-3.0,-1.0,1651071542166599.0,2
584,0.0,-2.0,-1.0,2.0,-7.0,-1.0,0.0,0.0,1651071542167536.0,2
585,-1.0,-1.0,-2.0,-11.0,-2.0,-1.0,1.0,-1.0,1651071542167536.0,2
586,0.0,-1.0,-6.0,-1.0,1.0,-5.0,-1.0,-1.0,1651071542180612.0,2
587,-2.0,3.0,10.0,-6.0,2.0,3.0,0.0,0.0,1651071542180612.0,2
588,1.0,1.0,6.0,12.0,-1.0,0.0,1.0,1.0,1651071542188657.0,2
589,0.0,2.0,6.0,1.0,-4.0,0.0,1.0,0.0,1651071542188657.0,2
590,2.0,-2.0,10.0,10.0,0.0,2.0,-1.0,-1.0,1651071542204231.0,2
591,1.0,-1.0,-19.0,-17.0,-3.0,-2.0,-1.0,-2.0,1651071542204231.0,2
592,-2.0,1.0,-8.0,5.0,4.0,4.0,2.0,0.0,1651071542204484.0,2
593,1.0,2.0,11.0,9.0,-4.0,-8.0,-2.0,-1.0,1651071542204484.0,2
594,-2.0,-7.0,-6.0,-1.0,3.0,5.0,2.0,1.0,1651071542226660.0,2
595,1.0,2.0,8.0,3.0,5.0,5.0,3.0,1.0,1651071542226660.0,2
596,-1.0,1.0,1.0,-9.0,-1.0,-4.0,-1.0,-2.0,1651071542226660.0,2
597,0.0,-7.0,-42.0,-11.0,-2.0,9.0,5.0,0.0,1651071542226660.0,2
598,0.0,-8.0,-22.0,9.0,1.0,-7.0,-2.0,-2.0,1651071542240713.0,2
599,1.0,-2.0,-2.0,-5.0,1.0,-1.0,0.0,0.0,1651071542240713.0,2
600,-1.0,-2.0,-4.0,3.0,-7.0,-5.0,-2.0,-1.0,1651071542249265.0,2
601,-1.0,-1.0,9.0,6.0,0.0,-3.0,-4.0,-1.0,1651071542249265.0,2
602,-2.0,3.0,0.0,2.0,-4.0,-3.0,-2.0,0.0,1651071542263422.0,2
603,0.0,2.0,-6.0,-1.0,5.0,3.0,0.0,-1.0,1651071542263422.0,2
604,-1.0,-2.0,-4.0,-3.0,-2.0,1.0,-1.0,-1.0,1651071542278501.0,2
605,-1.0,8.0,17.0,8.0,-2.0,-2.0,0.0,-1.0,1651071542278501.0,2
606,-2.0,-12.0,-18.0,-16.0,-2.0,-2.0,-1.0,1.0,1651071542286479.0,2
607,0.0,-7.0,-13.0,-5.0,-2.0,-1.0,-2.0,0.0,1651071542286479.0,2
608,1.0,0.0,6.0,19.0,5.0,1.0,1.0,0.0,1651071542287439.0,2
609,0.0,0.0,9.0,-3.0,-5.0,-7.0,-1.0,-2.0,1651071542287439.0,2
610,-1.0,2.0,12.0,13.0,1.0,7.0,2.0,0.0,1651071542300491.0,2
611,-1.0,6.0,3.0,-12.0,-3.0,-2.0,1.0,1.0,1651071542300491.0,2
612,-2.0,0.0,-1.0,20.0,5.0,-1.0,-1.0,0.0,1651071542308442.0,2
613,0.0,-2.0,-7.0,-8.0,0.0,2.0,-2.0,-1.0,1651071542308442.0,2
614,-3.0,-7.0,-6.0,-3.0,-5.0,-6.0,-3.0,-2.0,1651071542323553.0,2
615,-1.0,-1.0,-11.0,0.0,0.0,0.0,-1.0,-2.0,1651071542323553.0,2
616,-1.0,1.0,-4.0,-15.0,-6.0,-11.0,-4.0,-3.0,1651071542324515.0,2
617,-1.0,-7.0,-9.0,8.0,1.0,13.0,3.0,1.0,1651071542324515.0,2
618,0.0,5.0,10.0,1.0,8.0,5.0,1.0,1.0,1651071542346646.0,2
619,2.0,-7.0,0.0,5.0,5.0,5.0,1.0,-2.0,1651071542346646.0,2
620,-1.0,-3.0,1.0,-11.0,-4.0,-5.0,-1.0,-2.0,1651071542347585.0,2
621,1.0,3.0,-4.0,-9.0,-5.0,-7.0,-1.0,-1.0,1651071542347585.0,2
622,0.0,1.0,2.0,2.0,-4.0,-4.0,-1.0,0.0,1651071542360610.0,2
623,0.0,1.0,11.0,5.0,-1.0,-1.0,0.0,-2.0,1651071542360610.0,2
624,1.0,-6.0,-7.0,-8.0,-2.0,0.0,-1.0,-1.0,1651071542368587.0,2
625,-1.0,-4.0,12.0,2.0,0.0,-2.0,-3.0,0.0,1651071542368587.0,2
626,1.0,5.0,13.0,1.0,2.0,1.0,-1.0,-1.0,1651071542384205.0,2
627,0.0,0.0,0.0,3.0,-1.0,-4.0,-3.0,-2.0,1651071542384205.0,2
628,0.0,0.0,-3.0,1.0,1.0,5.0,1.0,0.0,1651071542384465.0,2
629,0.0,0.0,-6.0,-12.0,0.0,1.0,0.0,-1.0,1651071542384465.0,2
630,-1.0,-2.0,-3.0,-11.0,-2.0,-2.0,-1.0,-1.0,1651071542406594.0,2
631,-1.0,4.0,8.0,34.0,2.0,-9.0,-1.0,0.0,1651071542406594.0,2
632,0.0,0.0,-2.0,-10.0,2.0,14.0,4.0,1.0,1651071542406594.0,2
633,0.0,2.0,-2.0,-8.0,0.0,-1.0,-1.0,0.0,1651071542406594.0,2
634,-1.0,1.0,10.0,-1.0,-3.0,-4.0,1.0,0.0,1651071542420682.0,2
635,-1.0,2.0,-18.0,-20.0,-10.0,-6.0,-1.0,0.0,1651071542420682.0,2
636,0.0,3.0,14.0,0.0,3.0,-3.0,-2.0,-3.0,1651071542436639.0,2
637,-2.0,0.0,-1.0,10.0,4.0,6.0,3.0,1.0,1651071542436639.0,2
638,-1.0,-12.0,-14.0,2.0,4.0,6.0,-1.0,-1.0,1651071542443672.0,2
639,-3.0,-10.0,-7.0,12.0,-2.0,1.0,1.0,-1.0,1651071542443672.0,2
640,-2.0,3.0,2.0,-3.0,-5.0,-3.0,-3.0,-1.0,1651071542444602.0,2
641,1.0,0.0,-4.0,-5.0,-2.0,-5.0,-4.0,-1.0,1651071542444602.0,2
642,0.0,4.0,4.0,-2.0,-1.0,-4.0,0.0,0.0,1651071542466709.0,2
643,-1.0,1.0,4.0,-7.0,0.0,3.0,0.0,0.0,1651071542466709.0,2
644,0.0,-2.0,-6.0,3.0,2.0,-7.0,1.0,2.0,1651071542466709.0,2
645,1.0,-1.0,-6.0,-10.0,-1.0,2.0,-1.0,-1.0,1651071542466709.0,2
646,-1.0,-3.0,14.0,18.0,-2.0,3.0,2.0,-3.0,1651071542489905.0,2
647,-1.0,3.0,10.0,-19.0,0.0,-3.0,-1.0,-2.0,1651071542489905.0,2
648,0.0,1.0,-1.0,2.0,-1.0,0.0,0.0,0.0,1651071542490667.0,2
649,0.0,0.0,2.0,6.0,0.0,-7.0,-3.0,-2.0,1651071542490667.0,2
650,0.0,1.0,-7.0,-7.0,-4.0,-5.0,-2.0,1.0,1651071542503749.0,2
651,1.0,1.0,4.0,-1.0,4.0,8.0,1.0,0.0,1651071542503749.0,2
652,0.0,-2.0,-2.0,-2.0,-3.0,-1.0,1.0,-1.0,1651071542504678.0,2
653,-2.0,-3.0,0.0,-1.0,-1.0,1.0,-3.0,-1.0,1651071542504678.0,2
654,0.0,3.0,1.0,9.0,2.0,-1.0,0.0,0.0,1651071542526831.0,2
655,-1.0,4.0,14.0,-7.0,-5.0,-3.0,-1.0,2.0,1651071542526831.0,2
656,0.0,-4.0,-1.0,9.0,-8.0,-8.0,-1.0,0.0,1651071542526831.0,2
657,-1.0,-4.0,0.0,-3.0,10.0,7.0,1.0,-1.0,1651071542526831.0,2
658,-1.0,3.0,1.0,0.0,2.0,4.0,2.0,-2.0,1651071542549878.0,2
659,-1.0,5.0,1.0,6.0,2.0,-1.0,2.0,-1.0,1651071542549878.0,2
660,1.0,0.0,-7.0,-12.0,-1.0,3.0,1.0,-2.0,1651071542550808.0,2
661,-1.0,-1.0,1.0,-3.0,-8.0,-10.0,-6.0,0.0,1651071542550808.0,2
662,0.0,3.0,-1.0,-3.0,-7.0,3.0,4.0,2.0,1651071542563777.0,2
663,0.0,0.0,-5.0,-8.0,1.0,5.0,2.0,2.0,1651071542563777.0,2
664,-3.0,-5.0,1.0,3.0,2.0,5.0,1.0,0.0,1651071542564705.0,2
665,-3.0,-2.0,-10.0,-6.0,-5.0,-5.0,-1.0,0.0,1651071542564705.0,2
666,-2.0,-3.0,-22.0,-12.0,2.0,-5.0,-5.0,-3.0,1651071542586735.0,2
667,0.0,1.0,14.0,38.0,0.0,-4.0,-2.0,-1.0,1651071542586735.0,2
668,-1.0,2.0,6.0,2.0,-1.0,0.0,-1.0,1.0,1651071542586735.0,2
669,-1.0,-2.0,-4.0,-11.0,-1.0,1.0,2.0,-1.0,1651071542586735.0,2
670,-2.0,-4.0,-1.0,-10.0,-5.0,-3.0,0.0,0.0,1651071542609681.0,2
671,0.0,3.0,0.0,3.0,2.0,-5.0,1.0,0.0,1651071542609681.0,2
672,0.0,1.0,-6.0,-4.0,4.0,12.0,1.0,-1.0,1651071542610676.0,2
673,0.0,2.0,0.0,4.0,-7.0,-3.0,2.0,1.0,1651071542610676.0,2
674,2.0,7.0,17.0,0.0,1.0,0.0,-1.0,2.0,1651071542623809.0,2
675,0.0,-3.0,-9.0,-6.0,2.0,2.0,-2.0,-1.0,1651071542623809.0,2
676,0.0,-2.0,3.0,12.0,1.0,-2.0,1.0,-2.0,1651071542624739.0,2
677,0.0,-2.0,-10.0,-19.0,-5.0,-2.0,-1.0,0.0,1651071542624739.0,2
678,1.0,-3.0,1.0,1.0,-1.0,-3.0,-3.0,-1.0,1651071542645932.0,2
679,0.0,0.0,2.0,2.0,-2.0,4.0,0.0,-2.0,1651071542645932.0,2
680,0.0,-1.0,-10.0,-7.0,-12.0,-17.0,-5.0,0.0,1651071542646866.0,2
681,-2.0,3.0,10.0,10.0,11.0,13.0,7.0,1.0,1651071542646866.0,2
682,-2.0,1.0,-1.0,1.0,6.0,4.0,0.0,-1.0,1651071542669920.0,2
683,-1.0,-5.0,-5.0,-7.0,2.0,6.0,1.0,2.0,1651071542669920.0,2
684,-2.0,0.0,-2.0,-6.0,-2.0,-3.0,-1.0,-2.0,1651071542669920.0,2
685,2.0,3.0,5.0,3.0,-4.0,-7.0,-2.0,-1.0,1651071542669920.0,2
686,-2.0,-7.0,-1.0,-1.0,-8.0,-6.0,-2.0,-1.0,1651071542684141.0,2
687,-1.0,-8.0,-7.0,-2.0,-1.0,-1.0,0.0,-1.0,1651071542684141.0,2
688,-1.0,-2.0,7.0,6.0,4.0,-4.0,-1.0,-2.0,1651071542684141.0,2
689,0.0,1.0,2.0,10.0,5.0,6.0,-2.0,-1.0,1651071542684141.0,2
690,-1.0,1.0,0.0,3.0,-3.0,-1.0,2.0,-1.0,1651071542706248.0,2
691,0.0,2.0,-6.0,-7.0,-5.0,-2.0,-2.0,-1.0,1651071542706248.0,2
692,-1.0,-3.0,-7.0,-16.0,-3.0,-1.0,0.0,-1.0,1651071542707183.0,2
693,0.0,-1.0,8.0,3.0,6.0,2.0,-2.0,-1.0,1651071542707183.0,2
694,-1.0,2.0,-1.0,11.0,5.0,-5.0,-1.0,1.0,1651071542729338.0,2
695,-1.0,0.0,2.0,-9.0,-4.0,2.0,0.0,-2.0,1651071542729338.0,2
696,1.0,6.0,1.0,-4.0,-1.0,6.0,1.0,0.0,1651071542730267.0,2
697,-2.0,-10.0,-12.0,-1.0,-7.0,-8.0,-2.0,-2.0,1651071542730267.0,2
698,0.0,-1.0,-2.0,0.0,0.0,1.0,-1.0,0.0,1651071542744283.0,2
699,0.0,4.0,7.0,5.0,2.0,-8.0,-2.0,0.0,1651071542744283.0,2
700,-3.0,-2.0,-9.0,5.0,6.0,6.0,0.0,1.0,1651071542744283.0,2
701,-2.0,1.0,16.0,0.0,-3.0,-2.0,-1.0,-1.0,1651071542744283.0,2
702,1.0,-1.0,-5.0,-7.0,-3.0,-3.0,-2.0,-1.0,1651071542766713.0,2
703,1.0,0.0,-1.0,-5.0,-2.0,-3.0,-2.0,0.0,1651071542766713.0,2
704,0.0,-2.0,1.0,0.0,-3.0,1.0,1.0,1.0,1651071542766713.0,2
705,0.0,-1.0,-5.0,0.0,1.0,2.0,1.0,0.0,1651071542766713.0,2
706,0.0,0.0,-1.0,6.0,1.0,0.0,0.0,-2.0,1651071542789908.0,2
707,0.0,1.0,-2.0,-13.0,-1.0,-1.0,0.0,0.0,1651071542789908.0,2
708,0.0,-2.0,5.0,11.0,-5.0,-10.0,-5.0,-2.0,1651071542789908.0,2
709,0.0,2.0,-4.0,-7.0,4.0,8.0,7.0,2.0,1651071542789908.0,2
710,-4.0,-3.0,17.0,24.0,-5.0,-3.0,-3.0,-5.0,1651071542803708.0,2
711,1.0,-7.0,-13.0,-2.0,7.0,6.0,1.0,1.0,1651071542803708.0,2
712,-1.0,-10.0,-14.0,-21.0,3.0,2.0,0.0,1.0,1651071542804658.0,2
713,-1.0,3.0,7.0,6.0,-1.0,-6.0,-4.0,0.0,1651071542804658.0,2
714,1.0,3.0,-5.0,-14.0,-4.0,-1.0,0.0,1.0,1651071542826592.0,2
715,-3.0,3.0,1.0,-5.0,-9.0,-8.0,-2.0,-2.0,1651071542826592.0,2
716,-3.0,-2.0,3.0,3.0,4.0,3.0,-1.0,-4.0,1651071542826592.0,2
717,1.0,-1.0,-3.0,2.0,-1.0,-3.0,-4.0,-1.0,1651071542826592.0,2
718,1.0,4.0,-6.0,-9.0,2.0,3.0,0.0,1.0,1651071542849585.0,2
719,-2.0,3.0,8.0,13.0,-3.0,-5.0,-1.0,1.0,1651071542849585.0,2
720,-1.0,-1.0,15.0,1.0,-1.0,2.0,0.0,1.0,1651071542850516.0,2
721,-1.0,1.0,-1.0,12.0,1.0,3.0,0.0,-2.0,1651071542850516.0,2
722,-1.0,-5.0,-6.0,-3.0,2.0,-2.0,-3.0,-1.0,1651071542864172.0,2
723,-1.0,1.0,-1.0,-3.0,0.0,4.0,1.0,-1.0,1651071542864172.0,2
724,-1.0,1.0,-1.0,-8.0,-2.0,-2.0,0.0,-1.0,1651071542864507.0,2
725,1.0,-1.0,1.0,13.0,-3.0,-2.0,-1.0,-2.0,1651071542864507.0,2
726,0.0,-2.0,0.0,-1.0,0.0,-2.0,0.0,-2.0,1651071542886243.0,2
727,0.0,4.0,-10.0,-6.0,-5.0,-8.0,-4.0,-3.0,1651071542886243.0,2
728,0.0,-12.0,-10.0,-1.0,-4.0,9.0,5.0,1.0,1651071542887182.0,2
729,1.0,2.0,-5.0,-5.0,3.0,2.0,1.0,1.0,1651071542887182.0,2
730,2.0,13.0,10.0,10.0,2.0,0.0,0.0,2.0,1651071542909227.0,2
731,-2.0,-14.0,-23.0,-15.0,1.0,1.0,-1.0,-1.0,1651071542909227.0,2
732,1.0,7.0,10.0,0.0,3.0,-2.0,-1.0,-2.0,1651071542910193.0,2
733,-3.0,-9.0,-2.0,-1.0,-9.0,-8.0,-3.0,-2.0,1651071542910193.0,2
734,2.0,1.0,0.0,-3.0,-2.0,-3.0,0.0,2.0,1651071542923616.0,2
735,1.0,2.0,4.0,-2.0,2.0,5.0,-1.0,1.0,1651071542923616.0,2
736,1.0,2.0,-6.0,-5.0,-4.0,-12.0,-2.0,1.0,1651071542931602.0,2
737,0.0,1.0,0.0,-1.0,6.0,12.0,2.0,1.0,1651071542931602.0,2
738,-2.0,2.0,14.0,1.0,-4.0,0.0,2.0,0.0,1651071542946742.0,2
739,-2.0,-7.0,-14.0,-5.0,-4.0,-3.0,-1.0,-3.0,1651071542946742.0,2
740,-1.0,-3.0,-1.0,11.0,4.0,1.0,0.0,-1.0,1651071542946742.0,2
741,0.0,5.0,11.0,6.0,1.0,-7.0,-3.0,0.0,1651071542946742.0,2
742,-2.0,-5.0,-15.0,-19.0,-5.0,-3.0,0.0,1.0,1651071542969929.0,2
743,-2.0,-10.0,6.0,11.0,-1.0,3.0,1.0,0.0,1651071542969929.0,2
744,2.0,6.0,4.0,6.0,4.0,3.0,1.0,1.0,1651071542970754.0,2
745,2.0,4.0,5.0,-4.0,-3.0,-8.0,-5.0,-1.0,1651071542970754.0,2
746,1.0,-1.0,-8.0,0.0,7.0,11.0,3.0,-1.0,1651071542992440.0,2
747,2.0,6.0,-3.0,-4.0,-5.0,-8.0,-1.0,0.0,1651071542992440.0,2
748,-2.0,4.0,2.0,1.0,3.0,10.0,1.0,-2.0,1651071542992440.0,2
749,-4.0,-15.0,-14.0,-7.0,-1.0,-10.0,-3.0,-3.0,1651071542992440.0,2
750,0.0,-1.0,12.0,11.0,-1.0,-4.0,-3.0,-2.0,1651071543006669.0,2
751,1.0,7.0,-10.0,3.0,7.0,4.0,3.0,0.0,1651071543006669.0,2
752,0.0,-8.0,-14.0,6.0,-4.0,-4.0,-1.0,1.0,1651071543006669.0,2
753,1.0,7.0,6.0,-9.0,-3.0,1.0,0.0,-1.0,1651071543006669.0,2
754,-1.0,-6.0,-17.0,-15.0,-2.0,-5.0,-3.0,-1.0,1651071543029814.0,2
755,2.0,8.0,17.0,3.0,-2.0,-2.0,-2.0,-1.0,1651071543029814.0,2
756,0.0,0.0,1.0,10.0,-6.0,-1.0,0.0,1.0,1651071543029814.0,2
757,0.0,-2.0,-6.0,-15.0,2.0,-1.0,2.0,0.0,1651071543029814.0,2
758,0.0,-4.0,-3.0,16.0,-2.0,-2.0,-1.0,-3.0,1651071543042868.0,2
759,-1.0,0.0,8.0,-14.0,8.0,8.0,2.0,0.0,1651071543042868.0,2
760,-1.0,2.0,3.0,18.0,-3.0,-4.0,-2.0,1.0,1651071543051860.0,2
761,-2.0,-3.0,-1.0,-4.0,-11.0,-6.0,-2.0,-2.0,1651071543051860.0,2
762,-1.0,4.0,0.0,-17.0,2.0,3.0,0.0,1.0,1651071543066820.0,2
763,-1.0,-2.0,6.0,9.0,7.0,2.0,-1.0,-1.0,1651071543066820.0,2
764,-2.0,3.0,16.0,-4.0,-1.0,-17.0,-8.0,-3.0,1651071543066820.0,2
765,-1.0,-3.0,-10.0,8.0,0.0,13.0,3.0,0.0,1651071543066820.0,2
766,2.0,-3.0,-3.0,6.0,1.0,2.0,3.0,2.0,1651071543089904.0,2
767,-3.0,-2.0,9.0,9.0,-8.0,-6.0,-1.0,-1.0,1651071543089904.0,2
768,1.0,0.0,-8.0,-18.0,12.0,8.0,0.0,1.0,1651071543089904.0,2
769,0.0,4.0,-1.0,4.0,10.0,-7.0,-1.0,2.0,1651071543089904.0,2
770,1.0,1.0,2.0,5.0,-2.0,5.0,-1.0,-1.0,1651071543102871.0,2
771,-1.0,0.0,-4.0,-9.0,-11.0,0.0,3.0,1.0,1651071543102871.0,2
772,-1.0,0.0,-1.0,9.0,1.0,-4.0,-1.0,-1.0,1651071543111727.0,2
773,0.0,1.0,2.0,-5.0,-1.0,0.0,-1.0,0.0,1651071543111727.0,2
774,-2.0,-3.0,-4.0,-6.0,-1.0,-2.0,1.0,-1.0,1651071543126683.0,2
775,0.0,-4.0,-4.0,3.0,-1.0,0.0,-2.0,-1.0,1651071543126683.0,2
776,-3.0,2.0,7.0,7.0,-11.0,-6.0,-2.0,-3.0,1651071543126683.0,2
777,-2.0,-1.0,-2.0,-11.0,4.0,5.0,1.0,-1.0,1651071543126683.0,2
778,0.0,5.0,0.0,-3.0,3.0,4.0,3.0,2.0,1651071543149368.0,2
779,-1.0,-6.0,-3.0,4.0,0.0,-6.0,-3.0,-2.0,1651071543149368.0,2
780,2.0,14.0,0.0,-20.0,-6.0,-2.0,-2.0,0.0,1651071543150368.0,2
781,-4.0,-20.0,-32.0,-2.0,2.0,-2.0,-3.0,-2.0,1651071543150368.0,2
782,-3.0,-3.0,7.0,0.0,-11.0,2.0,2.0,1.0,1651071543163332.0,2
783,0.0,3.0,13.0,23.0,33.0,12.0,0.0,0.0,1651071543163332.0,2
784,1.0,1.0,-3.0,-27.0,4.0,8.0,4.0,0.0,1651071543171377.0,2
785,0.0,0.0,-7.0,12.0,-15.0,-16.0,-6.0,-2.0,1651071543171377.0,2
786,-3.0,-2.0,-6.0,-10.0,-10.0,-11.0,-4.0,-3.0,1651071543186336.0,2
787,1.0,7.0,12.0,0.0,-10.0,-3.0,1.0,0.0,1651071543186336.0,2
788,-3.0,-17.0,-29.0,-15.0,6.0,3.0,1.0,-2.0,1651071543187268.0,2
789,-2.0,4.0,8.0,11.0,1.0,1.0,-1.0,-1.0,1651071543187268.0,2
790,1.0,-1.0,4.0,0.0,-2.0,-1.0,1.0,-1.0,1651071543209214.0,2
791,2.0,8.0,-3.0,-5.0,-5.0,-2.0,-1.0,0.0,1651071543209214.0,2
792,-1.0,-13.0,-6.0,17.0,3.0,-2.0,-1.0,-1.0,1651071543210145.0,2
793,0.0,1.0,-2.0,-12.0,-4.0,2.0,2.0,1.0,1651071543210145.0,2
794,0.0,-7.0,9.0,11.0,12.0,6.0,-1.0,0.0,1651071543222750.0,2
795,-1.0,4.0,14.0,-5.0,-7.0,-5.0,-3.0,-2.0,1651071543222750.0,2
796,-1.0,-4.0,-4.0,-4.0,-6.0,4.0,2.0,0.0,1651071543231727.0,2
797,1.0,4.0,2.0,-14.0,1.0,-5.0,1.0,0.0,1651071543231727.0,2
798,-1.0,1.0,6.0,13.0,-2.0,-11.0,-3.0,-3.0,1651071543246620.0,2
799,2.0,6.0,8.0,-3.0,4.0,19.0,3.0,-1.0,1651071543246620.0,2
800,-1.0,4.0,8.0,5.0,-7.0,-2.0,3.0,0.0,1651071543246620.0,2
801,-1.0,1.0,5.0,-3.0,-3.0,-8.0,-5.0,-2.0,1651071543246620.0,2
802,-1.0,5.0,6.0,4.0,1.0,4.0,2.0,0.0,1651071543269916.0,2
803,-2.0,-6.0,-8.0,-7.0,2.0,-7.0,-3.0,-5.0,1651071543269916.0,2
804,-1.0,-2.0,6.0,20.0,2.0,0.0,-2.0,10.0,1651071543271014.0,2
805,-1.0,2.0,-3.0,-4.0,-2.0,-2.0,0.0,-1.0,1651071543271014.0,2
806,-1.0,0.0,-10.0,-11.0,-3.0,-5.0,-6.0,-2.0,1651071543283030.0,2
807,1.0,-2.0,-4.0,-7.0,-12.0,-5.0,-1.0,1.0,1651071543283030.0,2
808,0.0,3.0,-7.0,-8.0,6.0,5.0,4.0,-6.0,1651071543291048.0,2
809,2.0,2.0,9.0,10.0,0.0,4.0,2.0,3.0,1651071543291048.0,2
810,0.0,-1.0,-1.0,-4.0,8.0,5.0,1.0,-3.0,1651071543306139.0,2
811,-3.0,-15.0,-41.0,9.0,-11.0,-9.0,-1.0,-2.0,1651071543306139.0,2
812,1.0,3.0,10.0,-7.0,6.0,3.0,-1.0,-2.0,1651071543306957.0,2
813,0.0,2.0,4.0,-4.0,1.0,1.0,0.0,-2.0,1651071543306957.0,2
814,-3.0,3.0,-5.0,-2.0,-5.0,-4.0,-3.0,-9.0,1651071543329105.0,2
815,1.0,-1.0,14.0,1.0,-12.0,-5.0,1.0,5.0,1651071543329105.0,2
816,4.0,2.0,-17.0,-4.0,17.0,10.0,1.0,13.0,1651071543330105.0,2
817,2.0,-3.0,-7.0,25.0,4.0,0.0,-1.0,-4.0,1651071543330105.0,2
818,-2.0,4.0,6.0,-2.0,-3.0,11.0,5.0,3.0,1651071543343435.0,2
819,-3.0,-4.0,5.0,-5.0,-3.0,-11.0,-3.0,-7.0,1651071543343435.0,2
820,-1.0,4.0,1.0,-14.0,-13.0,-5.0,-3.0,-3.0,1651071543351484.0,2
821,0.0,-10.0,6.0,16.0,7.0,5.0,1.0,4.0,1651071543351484.0,2
822,3.0,0.0,1.0,3.0,1.0,-6.0,-1.0,0.0,1651071543366465.0,2
823,-4.0,-1.0,-6.0,1.0,-1.0,-1.0,-1.0,-2.0,1651071543366465.0,2
824,-2.0,2.0,6.0,6.0,-9.0,-5.0,-1.0,-4.0,1651071543367491.0,2
825,2.0,5.0,-2.0,-18.0,10.0,10.0,4.0,1.0,1651071543367491.0,2
826,-2.0,-10.0,-26.0,2.0,0.0,-6.0,-2.0,-2.0,1651071543389911.0,2
827,-2.0,-6.0,5.0,-6.0,1.0,3.0,1.0,2.0,1651071543389911.0,2
828,2.0,7.0,20.0,11.0,13.0,5.0,0.0,0.0,1651071543389911.0,2
829,-2.0,-4.0,-1.0,-12.0,-9.0,-6.0,1.0,-1.0,1651071543389911.0,2
830,-1.0,-3.0,-17.0,-6.0,4.0,2.0,-3.0,-1.0,1651071543412408.0,2
831,1.0,6.0,12.0,9.0,3.0,1.0,1.0,-5.0,1651071543412408.0,2
832,1.0,-4.0,3.0,19.0,-6.0,-1.0,1.0,6.0,1651071543412408.0,2
833,-1.0,-6.0,-12.0,-15.0,-6.0,-3.0,-2.0,3.0,1651071543412408.0,2
834,-1.0,1.0,-3.0,-17.0,-1.0,1.0,-4.0,0.0,1651071543426370.0,2
835,-5.0,-7.0,-5.0,-2.0,-8.0,-5.0,-3.0,-4.0,1651071543426370.0,2
836,0.0,9.0,7.0,-9.0,4.0,-6.0,-1.0,-6.0,1651071543427301.0,2
837,-4.0,-1.0,7.0,19.0,1.0,12.0,0.0,-8.0,1651071543427301.0,2
838,2.0,3.0,11.0,11.0,9.0,-1.0,5.0,9.0,1651071543449309.0,2
839,3.0,-2.0,-8.0,-7.0,4.0,1.0,0.0,6.0,1651071543449309.0,2
840,-1.0,-3.0,-4.0,-8.0,-14.0,-6.0,0.0,-4.0,1651071543450248.0,2
841,-2.0,0.0,6.0,8.0,4.0,-3.0,-7.0,-2.0,1651071543450248.0,2
842,-2.0,-1.0,-6.0,-7.0,-3.0,0.0,4.0,-5.0,1651071543472348.0,2
843,0.0,5.0,7.0,5.0,9.0,10.0,3.0,3.0,1651071543472348.0,2
844,-1.0,-2.0,-4.0,-1.0,-7.0,6.0,-1.0,-1.0,1651071543472348.0,2
845,-1.0,-6.0,-13.0,-9.0,-2.0,-7.0,-1.0,-3.0,1651071543472348.0,2
846,-1.0,-1.0,12.0,2.0,-18.0,-5.0,-4.0,-2.0,1651071543486381.0,2
847,-2.0,-2.0,-2.0,11.0,20.0,0.0,-1.0,2.0,1651071543486381.0,2
848,-2.0,-2.0,-14.0,-7.0,-4.0,-6.0,-5.0,-3.0,1651071543487311.0,2
849,-1.0,1.0,17.0,1.0,-8.0,2.0,0.0,0.0,1651071543487311.0,2
850,1.0,-3.0,-4.0,-2.0,-4.0,-2.0,0.0,1.0,1651071543508436.0,2
851,-1.0,-1.0,-3.0,-7.0,0.0,-1.0,1.0,2.0,1651071543508436.0,2
852,0.0,-2.0,1.0,-11.0,0.0,-2.0,0.0,-5.0,1651071543509366.0,2
853,2.0,1.0,-5.0,29.0,2.0,2.0,1.0,0.0,1651071543509366.0,2
854,1.0,3.0,3.0,-19.0,-4.0,-4.0,0.0,3.0,1651071543532536.0,2
855,-1.0,-2.0,-2.0,6.0,1.0,2.0,-2.0,-3.0,1651071543532536.0,2
856,-3.0,-8.0,-7.0,0.0,-8.0,-4.0,-1.0,-1.0,1651071543532536.0,2
857,3.0,11.0,1.0,-14.0,5.0,5.0,6.0,5.0,1651071543532536.0,2
858,-7.0,-10.0,7.0,17.0,3.0,-7.0,-6.0,-10.0,1651071543546487.0,2
859,2.0,-1.0,-10.0,-9.0,-12.0,0.0,-1.0,2.0,1651071543546487.0,2
860,1.0,-2.0,-8.0,-5.0,7.0,1.0,2.0,7.0,1651071543547496.0,2
861,2.0,9.0,15.0,-1.0,6.0,5.0,2.0,-3.0,1651071543547496.0,2
862,-3.0,-11.0,-5.0,-1.0,-1.0,0.0,-1.0,-2.0,1651071543568496.0,2
863,0.0,3.0,-6.0,-10.0,-2.0,-4.0,0.0,-4.0,1651071543568496.0,2
864,-2.0,-1.0,10.0,4.0,-14.0,-7.0,-2.0,-1.0,1651071543569426.0,2
865,-2.0,4.0,18.0,3.0,-6.0,-5.0,-1.0,-2.0,1651071543569426.0,2
866,1.0,3.0,-14.0,4.0,0.0,0.0,-2.0,1.0,1651071543593085.0,2
867,-2.0,-9.0,-1.0,-10.0,-5.0,-2.0,-1.0,-2.0,1651071543593085.0,2
868,-2.0,-1.0,-6.0,8.0,6.0,-7.0,-5.0,-1.0,1651071543593085.0,2
869,0.0,3.0,5.0,-6.0,7.0,10.0,5.0,2.0,1651071543593085.0,2
870,-1.0,-1.0,-5.0,-14.0,-3.0,-2.0,-3.0,-2.0,1651071543606214.0,2
871,0.0,3.0,3.0,14.0,-2.0,-1.0,-1.0,1.0,1651071543606214.0,2
872,-2.0,-8.0,-9.0,-1.0,-9.0,-2.0,-1.0,-3.0,1651071543607024.0,2
873,-1.0,2.0,3.0,-14.0,-3.0,-3.0,-1.0,-1.0,1651071543607024.0,2
874,1.0,-6.0,-4.0,4.0,-1.0,1.0,-1.0,1.0,1651071543628382.0,2
875,2.0,2.0,-4.0,-11.0,0.0,-1.0,0.0,2.0,1651071543628382.0,2
876,1.0,4.0,11.0,17.0,4.0,4.0,1.0,-3.0,1651071543629373.0,2
877,-3.0,-4.0,-12.0,-13.0,-5.0,-6.0,-4.0,-2.0,1651071543629373.0,2
878,-2.0,7.0,11.0,10.0,0.0,1.0,2.0,0.0,1651071543659407.0,2
879,-1.0,-3.0,6.0,2.0,-7.0,-16.0,-3.0,-4.0,1651071543659407.0,2
880,0.0,0.0,-2.0,-11.0,2.0,7.0,1.0,-3.0,1651071543660343.0,2
881,1.0,-3.0,-1.0,7.0,3.0,7.0,1.0,0.0,1651071543660343.0,2
882,0.0,6.0,5.0,-1.0,2.0,-7.0,1.0,1.0,1651071543666326.0,2
883,-3.0,-6.0,-6.0,-6.0,3.0,15.0,1.0,-1.0,1651071543666326.0,2
884,3.0,7.0,8.0,-3.0,-13.0,-9.0,0.0,0.0,1651071543667324.0,2
885,0.0,-7.0,-7.0,-3.0,0.0,-5.0,-2.0,0.0,1651071543667324.0,2
886,-2.0,0.0,21.0,18.0,19.0,6.0,-1.0,0.0,1651071543689325.0,2
887,-2.0,1.0,-12.0,8.0,-5.0,-15.0,-5.0,-1.0,1651071543689325.0,2
888,-2.0,-6.0,-2.0,-4.0,-2.0,3.0,0.0,-1.0,1651071543689325.0,2
889,1.0,5.0,8.0,-11.0,-10.0,-2.0,-2.0,-2.0,1651071543689325.0,2
890,1.0,3.0,2.0,2.0,-5.0,1.0,2.0,1.0,1651071543712853.0,2
891,-1.0,2.0,-5.0,-17.0,-2.0,3.0,1.0,0.0,1651071543712853.0,2
892,0.0,1.0,7.0,11.0,2.0,-1.0,-1.0,0.0,1651071543712853.0,2
893,-2.0,-8.0,-13.0,4.0,-5.0,-7.0,-3.0,-2.0,1651071543712853.0,2
894,-1.0,-5.0,-8.0,-9.0,0.0,3.0,0.0,-2.0,1651071543725888.0,2
895,1.0,1.0,7.0,-1.0,3.0,1.0,0.0,1.0,1651071543725888.0,2
896,0.0,-12.0,-19.0,-18.0,0.0,0.0,0.0,0.0,1651071543726832.0,2
897,-2.0,-5.0,-7.0,8.0,-4.0,-8.0,-3.0,-1.0,1651071543726832.0,2
898,2.0,3.0,3.0,3.0,-8.0,-4.0,0.0,2.0,1651071543749206.0,2
899,-2.0,-5.0,-17.0,-25.0,2.0,10.0,4.0,-1.0,1651071543749206.0,2
900,0.0,4.0,1.0,7.0,9.0,-3.0,-4.0,-2.0,1651071543749206.0,2
901,1.0,-2.0,-6.0,-6.0,-4.0,7.0,3.0,2.0,1651071543749206.0,2
902,-2.0,0.0,13.0,0.0,-1.0,-6.0,-4.0,0.0,1651071543772406.0,2
903,0.0,1.0,-1.0,21.0,2.0,0.0,-1.0,-1.0,1651071543772406.0,2
904,-2.0,2.0,-1.0,-3.0,1.0,0.0,0.0,1.0,1651071543772406.0,2
905,0.0,5.0,16.0,7.0,-8.0,-5.0,-3.0,0.0,1651071543772406.0,2
906,-2.0,-6.0,-40.0,-26.0,-10.0,-2.0,-2.0,0.0,1651071543786368.0,2
907,0.0,-5.0,1.0,5.0,-7.0,-7.0,1.0,-1.0,1651071543786368.0,2
908,1.0,4.0,3.0,-3.0,14.0,10.0,2.0,-2.0,1651071543787304.0,2
909,2.0,1.0,3.0,-3.0,4.0,5.0,3.0,2.0,1651071543787304.0,2
910,0.0,-4.0,-1.0,28.0,0.0,2.0,0.0,0.0,1651071543808419.0,2
911,1.0,3.0,3.0,-4.0,-2.0,-2.0,0.0,-1.0,1651071543808419.0,2
912,-2.0,1.0,-6.0,-10.0,-8.0,-8.0,-3.0,-3.0,1651071543809358.0,2
913,-3.0,-6.0,-4.0,-1.0,1.0,-5.0,-3.0,-2.0,1651071543809358.0,2
914,2.0,4.0,-19.0,-22.0,0.0,5.0,3.0,0.0,1651071543831595.0,2
915,0.0,4.0,10.0,11.0,-6.0,-3.0,-2.0,-2.0,1651071543831595.0,2
916,0.0,3.0,6.0,-3.0,9.0,7.0,1.0,2.0,1651071543832625.0,2
917,-3.0,-1.0,-1.0,7.0,-2.0,-18.0,-3.0,-2.0,1651071543832625.0,2
918,0.0,-8.0,11.0,16.0,6.0,15.0,-1.0,-5.0,1651071543846515.0,2
919,4.0,5.0,2.0,2.0,8.0,10.0,6.0,12.0,1651071543846515.0,2
920,-1.0,-3.0,-2.0,-13.0,-9.0,-8.0,0.0,-1.0,1651071543847504.0,2
921,0.0,-5.0,-12.0,-5.0,-4.0,8.0,-1.0,-1.0,1651071543847504.0,2
922,1.0,7.0,6.0,-8.0,-4.0,-11.0,-3.0,-2.0,1651071543868457.0,2
923,-3.0,-2.0,5.0,24.0,0.0,-5.0,-6.0,-7.0,1651071543868457.0,2
924,-1.0,1.0,-8.0,-1.0,14.0,5.0,1.0,2.0,1651071543869435.0,2
925,-4.0,-6.0,7.0,9.0,-1.0,-5.0,-1.0,-2.0,1651071543869435.0,2
926,-2.0,0.0,3.0,-21.0,-9.0,-4.0,-1.0,-1.0,1651071543892425.0,2
927,-1.0,1.0,-15.0,-17.0,-1.0,3.0,3.0,-1.0,1651071543892425.0,2
928,0.0,2.0,-6.0,11.0,-1.0,-1.0,-2.0,1.0,1651071543892425.0,2
929,0.0,10.0,20.0,4.0,4.0,4.0,2.0,1.0,1651071543892425.0,2
930,-1.0,-6.0,7.0,0.0,-3.0,1.0,-1.0,1.0,1651071543914373.0,2
931,1.0,-2.0,10.0,-6.0,-4.0,-4.0,-2.0,0.0,1651071543914373.0,2
932,1.0,2.0,10.0,24.0,5.0,1.0,0.0,-2.0,1651071543915304.0,2
933,-1.0,-3.0,-19.0,-24.0,-4.0,4.0,-2.0,0.0,1651071543915304.0,2
934,0.0,7.0,5.0,3.0,-1.0,-4.0,-2.0,0.0,1651071543937426.0,2
935,0.0,0.0,4.0,-1.0,9.0,0.0,-2.0,0.0,1651071543937426.0,2
936,-1.0,-5.0,-2.0,-2.0,-6.0,4.0,1.0,1.0,1651071543937426.0,2
937,2.0,3.0,-5.0,5.0,-4.0,-2.0,-1.0,1.0,1651071543937426.0,2
938,0.0,-1.0,-8.0,-10.0,4.0,5.0,2.0,1.0,1651071543952432.0,2
939,-5.0,0.0,1.0,-12.0,-6.0,-7.0,-3.0,-5.0,1651071543952432.0,2
940,-1.0,-4.0,-17.0,15.0,-3.0,-2.0,-3.0,-1.0,1651071543952432.0,2
941,1.0,-2.0,-7.0,-5.0,-5.0,-18.0,-2.0,2.0,1651071543952432.0,2
942,0.0,-6.0,1.0,16.0,-1.0,13.0,2.0,-3.0,1651071543966757.0,2
943,1.0,7.0,3.0,4.0,13.0,6.0,0.0,0.0,1651071543966757.0,2
944,-2.0,-14.0,-3.0,-17.0,-9.0,1.0,0.0,-2.0,1651071543966757.0,2
945,-2.0,-3.0,-6.0,-6.0,4.0,0.0,-2.0,-1.0,1651071543966757.0,2
946,0.0,1.0,0.0,-1.0,-7.0,-11.0,-7.0,0.0,1651071543989284.0,2
947,-1.0,6.0,-4.0,-9.0,0.0,-1.0,0.0,0.0,1651071543989284.0,2
948,0.0,6.0,8.0,8.0,2.0,1.0,1.0,0.0,1651071543989284.0,2
949,0.0,-5.0,-6.0,-1.0,5.0,1.0,1.0,0.0,1651071543989284.0,2
950,-1.0,-1.0,-3.0,0.0,1.0,-8.0,0.0,1.0,1651071544012299.0,2
951,-1.0,-2.0,-4.0,-1.0,-4.0,5.0,-1.0,-1.0,1651071544012299.0,2
952,-2.0,0.0,7.0,2.0,-1.0,-1.0,-1.0,-8.0,1651071544012299.0,2
953,2.0,-1.0,-4.0,-1.0,-1.0,6.0,1.0,6.0,1651071544012299.0,2
954,4.0,5.0,19.0,2.0,-2.0,1.0,2.0,6.0,1651071544025639.0,2
955,0.0,2.0,-31.0,-3.0,2.0,-2.0,-1.0,-1.0,1651071544025639.0,2
956,-3.0,-9.0,-3.0,-16.0,-10.0,-10.0,-3.0,-1.0,1651071544033708.0,2
957,-1.0,1.0,5.0,17.0,12.0,5.0,-2.0,-6.0,1651071544033708.0,2
958,-4.0,-10.0,-13.0,-3.0,-7.0,-11.0,-3.0,-1.0,1651071544048845.0,2
959,0.0,-5.0,-8.0,-17.0,-9.0,0.0,0.0,1.0,1651071544048845.0,2
960,1.0,3.0,11.0,3.0,-2.0,0.0,4.0,2.0,1651071544049808.0,2
961,1.0,9.0,0.0,-8.0,8.0,7.0,-1.0,-2.0,1651071544049808.0,2
962,-2.0,-8.0,5.0,10.0,3.0,-3.0,-3.0,-2.0,1651071544072533.0,2
963,-3.0,-5.0,4.0,12.0,-8.0,-8.0,-3.0,-2.0,1651071544072533.0,2
964,-1.0,-5.0,-16.0,-11.0,11.0,4.0,-2.0,-2.0,1651071544072533.0,2
965,1.0,-2.0,0.0,-3.0,-11.0,1.0,1.0,0.0,1651071544072533.0,2
966,2.0,4.0,-9.0,-10.0,-1.0,3.0,0.0,0.0,1651071544085487.0,2
967,0.0,-2.0,25.0,15.0,4.0,3.0,0.0,-1.0,1651071544085487.0,2
968,-1.0,-2.0,-14.0,-6.0,-13.0,-10.0,-2.0,1.0,1651071544093977.0,2
969,-1.0,2.0,7.0,-2.0,-5.0,-5.0,-1.0,-1.0,1651071544093977.0,2
970,-1.0,-4.0,-5.0,0.0,5.0,7.0,1.0,-2.0,1651071544108766.0,2
971,2.0,4.0,18.0,3.0,0.0,-4.0,0.0,1.0,1651071544108766.0,2
972,-1.0,1.0,-6.0,-1.0,-2.0,-1.0,-3.0,1.0,1651071544109697.0,2
973,-5.0,2.0,3.0,13.0,-1.0,0.0,0.0,-11.0,1651071544109697.0,2
974,2.0,9.0,-8.0,-18.0,-5.0,-4.0,1.0,6.0,1651071544132558.0,2
975,2.0,-3.0,3.0,-2.0,9.0,6.0,3.0,8.0,1651071544132558.0,2
976,-1.0,-4.0,-8.0,5.0,-5.0,-6.0,-3.0,-5.0,1651071544132558.0,2
977,1.0,-1.0,-7.0,1.0,-4.0,3.0,2.0,2.0,1651071544132558.0,2
978,-1.0,3.0,8.0,8.0,7.0,4.0,-1.0,-6.0,1651071544146028.0,2
979,-1.0,0.0,-10.0,0.0,4.0,7.0,3.0,0.0,1651071544146028.0,2
980,0.0,4.0,15.0,0.0,-2.0,0.0,0.0,2.0,1651071544154226.0,2
981,-1.0,-6.0,-4.0,-15.0,-3.0,-4.0,-3.0,-2.0,1651071544154226.0,2
982,0.0,1.0,2.0,8.0,0.0,-5.0,0.0,0.0,1651071544169271.0,2
983,0.0,5.0,-2.0,-9.0,2.0,-10.0,-2.0,-1.0,1651071544169271.0,2
984,0.0,0.0,8.0,7.0,3.0,14.0,2.0,1.0,1651071544169271.0,2
985,-1.0,-1.0,4.0,0.0,-8.0,-6.0,0.0,2.0,1651071544169271.0,2
986,0.0,6.0,1.0,14.0,18.0,4.0,2.0,2.0,1651071544192247.0,2
987,-3.0,1.0,-13.0,2.0,-3.0,-1.0,-1.0,-1.0,1651071544192247.0,2
988,-2.0,4.0,19.0,3.0,-6.0,-8.0,-2.0,-2.0,1651071544193183.0,2
989,-2.0,-12.0,-18.0,-22.0,4.0,-2.0,-2.0,0.0,1651071544193183.0,2
990,1.0,3.0,1.0,-3.0,-8.0,4.0,0.0,0.0,1651071544206152.0,2
991,2.0,-2.0,-2.0,0.0,-11.0,-5.0,0.0,-2.0,1651071544206152.0,2
992,0.0,1.0,-3.0,-9.0,1.0,-2.0,-1.0,0.0,1651071544214188.0,2
993,-2.0,4.0,12.0,-1.0,-6.0,2.0,-2.0,1.0,1651071544214188.0,2
994,-1.0,-1.0,0.0,-2.0,9.0,2.0,0.0,-2.0,1651071544229108.0,2
995,1.0,-4.0,4.0,13.0,-2.0,0.0,-3.0,-1.0,1651071544229108.0,2
996,0.0,-3.0,-10.0,-5.0,-4.0,-3.0,-2.0,0.0,1651071544229108.0,2
997,-1.0,0.0,-1.0,-1.0,-3.0,-1.0,-1.0,-1.0,1651071544229108.0,2
998,1.0,-3.0,-8.0,-16.0,-12.0,-3.0,-1.0,-2.0,1651071544252194.0,2
999,-1.0,2.0,10.0,9.0,4.0,1.0,-3.0,0.0,1651071544252194.0,2
1000,0.0,-4.0,-11.0,0.0,0.0,-2.0,1.0,0.0,1651071544253124.0,0
1001,2.0,2.0,5.0,12.0,3.0,-1.0,1.0,1.0,1651071544253124.0,0
1002,-1.0,1.0,24.0,4.0,-8.0,1.0,-1.0,-2.0,1651071544266117.0,0
1003,0.0,3.0,23.0,-3.0,13.0,-5.0,-5.0,-1.0,1651071544266117.0,0
1004,0.0,-5.0,-29.0,-24.0,-8.0,2.0,3.0,1.0,1651071544274179.0,0
1005,0.0,3.0,3.0,2.0,0.0,-6.0,-1.0,0.0,1651071544274179.0,0
1006,-1.0,0.0,-9.0,-8.0,-1.0,19.0,2.0,1.0,1651071544289287.0,0
1007,-1.0,-1.0,0.0,-8.0,-7.0,-7.0,-1.0,-1.0,1651071544289287.0,0
1008,-1.0,5.0,21.0,21.0,2.0,-2.0,1.0,0.0,1651071544289287.0,0
1009,-2.0,2.0,7.0,0.0,1.0,-5.0,-1.0,-1.0,1651071544289287.0,0
1010,-1.0,-3.0,-17.0,-7.0,-3.0,-7.0,-2.0,-1.0,1651071544312343.0,0
1011,-2.0,1.0,-4.0,6.0,-2.0,0.0,-1.0,-2.0,1651071544312343.0,0
1012,-3.0,-9.0,-15.0,-4.0,-3.0,-4.0,-3.0,-11.0,1651071544312343.0,0
1013,-2.0,-1.0,-6.0,-4.0,4.0,7.0,0.0,2.0,1651071544312343.0,0
1014,1.0,3.0,6.0,16.0,6.0,-8.0,0.0,10.0,1651071544325468.0,0
1015,0.0,-10.0,-15.0,-7.0,-4.0,7.0,0.0,3.0,1651071544325468.0,0
1016,5.0,5.0,-6.0,-18.0,1.0,2.0,1.0,4.0,1651071544333503.0,0
1017,-3.0,-3.0,10.0,8.0,-1.0,-3.0,-5.0,-4.0,1651071544333503.0,0
1018,-2.0,2.0,-9.0,-6.0,-4.0,-4.0,-2.0,-6.0,1651071544348522.0,0
1019,-3.0,-6.0,-4.0,4.0,-9.0,-4.0,1.0,2.0,1651071544348522.0,0
1020,1.0,2.0,-4.0,4.0,8.0,4.0,-1.0,-2.0,1651071544349459.0,0
1021,0.0,-3.0,3.0,-14.0,-4.0,-1.0,0.0,0.0,1651071544349459.0,0
1022,0.0,0.0,-10.0,7.0,9.0,-5.0,0.0,0.0,1651071544379937.0,0
1023,-3.0,4.0,10.0,5.0,5.0,11.0,1.0,-3.0,1651071544379937.0,0
1024,-2.0,-7.0,-7.0,7.0,0.0,-4.0,-3.0,0.0,1651071544380006.0,0
1025,0.0,3.0,1.0,7.0,-2.0,1.0,1.0,1.0,1651071544380006.0,0
1026,0.0,-3.0,0.0,-3.0,-3.0,-7.0,-1.0,2.0,1651071544394665.0,0
1027,0.0,1.0,-15.0,-18.0,-8.0,-3.0,0.0,-2.0,1651071544394665.0,0
1028,0.0,1.0,12.0,1.0,6.0,2.0,-1.0,2.0,1651071544395664.0,0
1029,1.0,3.0,1.0,1.0,-1.0,5.0,5.0,3.0,1651071544395664.0,0
1030,-4.0,-5.0,1.0,-2.0,-5.0,2.0,0.0,-2.0,1651071544408741.0,0
1031,-1.0,-1.0,-2.0,3.0,1.0,-9.0,0.0,-1.0,1651071544408741.0,0
1032,0.0,4.0,9.0,1.0,-1.0,7.0,-1.0,2.0,1651071544409711.0,0
1033,1.0,4.0,-5.0,2.0,9.0,3.0,2.0,-5.0,1651071544409711.0,0
1034,-1.0,-7.0,8.0,-3.0,-7.0,-1.0,-1.0,8.0,1651071544431766.0,0
1035,1.0,6.0,2.0,12.0,1.0,-1.0,-2.0,-2.0,1651071544431766.0,0
1036,-2.0,-2.0,6.0,2.0,0.0,-7.0,-1.0,-2.0,1651071544432732.0,0
1037,-2.0,-1.0,-1.0,-3.0,-5.0,-2.0,-5.0,-10.0,1651071544432732.0,0
1038,1.0,-4.0,-27.0,-3.0,2.0,1.0,0.0,5.0,1651071544454567.0,0
1039,2.0,-4.0,-9.0,-12.0,-3.0,4.0,3.0,2.0,1651071544454567.0,0
1040,4.0,9.0,15.0,15.0,-1.0,1.0,2.0,3.0,1651071544455301.0,0
1041,-2.0,-9.0,-25.0,-8.0,6.0,4.0,1.0,-3.0,1651071544455301.0,0
1042,-2.0,2.0,4.0,-9.0,-6.0,-14.0,-5.0,-8.0,1651071544468269.0,0
1043,1.0,0.0,1.0,-5.0,6.0,11.0,0.0,3.0,1651071544468269.0,0
1044,-2.0,1.0,-19.0,-13.0,-7.0,-1.0,-1.0,0.0,1651071544469285.0,0
1045,0.0,3.0,6.0,15.0,2.0,-3.0,0.0,3.0,1651071544469285.0,0
1046,-2.0,4.0,12.0,8.0,0.0,-1.0,-2.0,-4.0,1651071544491721.0,0
1047,0.0,-4.0,0.0,10.0,-1.0,2.0,3.0,-1.0,1651071544491721.0,0
1048,-3.0,0.0,15.0,2.0,4.0,1.0,-1.0,-3.0,1651071544492652.0,0
1049,1.0,1.0,-15.0,-16.0,-3.0,2.0,-2.0,4.0,1651071544492652.0,0
1050,-1.0,0.0,-1.0,-11.0,1.0,-3.0,-1.0,-5.0,1651071544514372.0,0
1051,0.0,0.0,0.0,7.0,-8.0,-9.0,-3.0,-3.0,1651071544514372.0,0
1052,0.0,-1.0,8.0,4.0,4.0,4.0,0.0,2.0,1651071544515302.0,0
1053,1.0,0.0,-1.0,4.0,-4.0,-2.0,0.0,3.0,1651071544515302.0,0
1054,-1.0,1.0,9.0,7.0,3.0,5.0,1.0,-3.0,1651071544528460.0,0
1055,-1.0,3.0,-2.0,-19.0,2.0,-1.0,-4.0,-1.0,1651071544528460.0,0
1056,1.0,-3.0,-2.0,5.0,-4.0,-2.0,3.0,0.0,1651071544529392.0,0
1057,0.0,0.0,6.0,2.0,-10.0,-12.0,-3.0,0.0,1651071544529392.0,0
1058,0.0,-1.0,-1.0,2.0,6.0,6.0,-1.0,-3.0,1651071544551553.0,0
1059,-2.0,0.0,2.0,2.0,3.0,5.0,1.0,-1.0,1651071544551553.0,0
1060,-3.0,0.0,4.0,1.0,-1.0,-2.0,-2.0,2.0,1651071544552483.0,0
1061,1.0,-2.0,-5.0,-1.0,-2.0,-1.0,0.0,0.0,1651071544552483.0,0
1062,0.0,-1.0,5.0,1.0,-1.0,3.0,-1.0,-1.0,1651071544574603.0,0
1063,1.0,-2.0,-4.0,-9.0,-1.0,-2.0,3.0,1.0,1651071544574603.0,0
1064,0.0,1.0,-1.0,6.0,4.0,-1.0,0.0,0.0,1651071544575602.0,0
1065,-2.0,-2.0,4.0,5.0,-5.0,-3.0,0.0,-1.0,1651071544575602.0,0
1066,-2.0,-3.0,-10.0,-10.0,-1.0,-2.0,-3.0,-2.0,1651071544588634.0,0
1067,-1.0,-1.0,-3.0,9.0,-2.0,-4.0,-3.0,-2.0,1651071544588634.0,0
1068,0.0,2.0,3.0,0.0,-2.0,4.0,0.0,-1.0,1651071544589564.0,0
1069,0.0,1.0,3.0,-5.0,4.0,1.0,1.0,0.0,1651071544589564.0,0
1070,7.0,-2.0,2.0,2.0,0.0,-2.0,-6.0,-2.0,1651071544612503.0,0
1071,-19.0,-9.0,-6.0,-2.0,-1.0,-9.0,4.0,1.0,1651071544612503.0,0
1072,1.0,0.0,4.0,1.0,5.0,13.0,10.0,4.0,1651071544612503.0,0
1073,0.0,1.0,1.0,2.0,-2.0,-4.0,-2.0,-1.0,1651071544612503.0,0
1074,-2.0,-2.0,-7.0,23.0,9.0,-1.0,0.0,-1.0,1651071544634563.0,0
1075,1.0,0.0,0.0,7.0,6.0,12.0,0.0,-2.0,1651071544634563.0,0
1076,-3.0,-2.0,-4.0,-38.0,-30.0,-32.0,-18.0,-5.0,1651071544635293.0,0
1077,-3.0,-2.0,3.0,3.0,-8.0,12.0,3.0,0.0,1651071544635293.0,0
1078,1.0,-1.0,4.0,2.0,7.0,7.0,11.0,3.0,1651071544648669.0,0
1079,5.0,0.0,-6.0,-9.0,-2.0,-6.0,-4.0,-2.0,1651071544648669.0,0
1080,-3.0,-1.0,-5.0,20.0,18.0,3.0,3.0,-1.0,1651071544649600.0,0
1081,1.0,-5.0,-6.0,4.0,5.0,-1.0,-4.0,-4.0,1651071544649600.0,0
1082,-2.0,8.0,26.0,-14.0,-18.0,-9.0,-4.0,-1.0,1651071544672513.0,0
1083,-1.0,-6.0,-9.0,11.0,1.0,-2.0,-2.0,-1.0,1651071544672513.0,0
1084,-1.0,-4.0,-15.0,-9.0,-2.0,3.0,-1.0,-1.0,1651071544672513.0,0
1085,0.0,0.0,0.0,-7.0,4.0,-3.0,-3.0,1.0,1651071544672513.0,0
1086,0.0,2.0,-4.0,7.0,0.0,3.0,1.0,1.0,1651071544694315.0,0
1087,2.0,5.0,7.0,-12.0,-5.0,0.0,-1.0,-1.0,1651071544694315.0,0
1088,-1.0,-2.0,-1.0,0.0,0.0,-1.0,-2.0,-1.0,1651071544695246.0,0
1089,-2.0,-1.0,-2.0,4.0,-1.0,-11.0,-1.0,0.0,1651071544695246.0,0
1090,-4.0,-2.0,3.0,-3.0,-1.0,6.0,2.0,2.0,1651071544709255.0,0
1091,3.0,4.0,1.0,-8.0,-2.0,2.0,1.0,1.0,1651071544709255.0,0
1092,0.0,1.0,-1.0,0.0,-1.0,-6.0,-1.0,0.0,1651071544709255.0,0
1093,-1.0,2.0,10.0,26.0,11.0,10.0,0.0,0.0,1651071544709255.0,0
1094,0.0,-3.0,-11.0,-10.0,-2.0,-3.0,-2.0,-1.0,1651071544732378.0,0
1095,0.0,1.0,-4.0,-11.0,-7.0,-2.0,-1.0,-1.0,1651071544732378.0,0
1096,1.0,-3.0,3.0,-2.0,1.0,-3.0,-1.0,-2.0,1651071544732378.0,0
1097,-3.0,1.0,7.0,2.0,4.0,3.0,2.0,-1.0,1651071544732378.0,0
1098,1.0,-4.0,-6.0,-2.0,-3.0,-2.0,-1.0,-2.0,1651071544754575.0,0
1099,1.0,-2.0,4.0,1.0,-6.0,-4.0,-1.0,-2.0,1651071544754575.0,0
1100,0.0,-1.0,-12.0,-5.0,2.0,4.0,1.0,0.0,1651071544755072.0,0
1101,2.0,6.0,1.0,-6.0,-3.0,-3.0,-3.0,-1.0,1651071544755072.0,0
1102,-2.0,-6.0,-9.0,5.0,3.0,-4.0,0.0,-1.0,1651071544769036.0,0
1103,-1.0,-3.0,-15.0,-3.0,0.0,-1.0,0.0,0.0,1651071544769036.0,0
1104,-1.0,5.0,23.0,5.0,-3.0,-2.0,-1.0,-1.0,1651071544770034.0,0
1105,-1.0,-2.0,7.0,2.0,7.0,5.0,-1.0,-2.0,1651071544770034.0,0
1106,0.0,-3.0,-31.0,1.0,-2.0,3.0,0.0,0.0,1651071544792399.0,0
1107,1.0,1.0,10.0,-15.0,-2.0,-5.0,-3.0,0.0,1651071544792399.0,0
1108,1.0,0.0,-16.0,1.0,1.0,1.0,0.0,-1.0,1651071544792399.0,0
1109,-1.0,-7.0,0.0,-4.0,-5.0,-3.0,-2.0,0.0,1651071544792399.0,0
1110,0.0,4.0,19.0,-13.0,-7.0,-5.0,2.0,-1.0,1651071544814566.0,0
1111,-1.0,1.0,2.0,17.0,5.0,1.0,-2.0,-2.0,1651071544814566.0,0
1112,0.0,0.0,3.0,-3.0,-3.0,0.0,0.0,0.0,1651071544815295.0,0
1113,-2.0,-2.0,-11.0,-3.0,-3.0,-11.0,0.0,0.0,1651071544815295.0,0
1114,-2.0,-1.0,0.0,-4.0,1.0,6.0,-1.0,-1.0,1651071544829236.0,0
1115,-2.0,-3.0,3.0,-3.0,1.0,2.0,1.0,0.0,1651071544829236.0,0
1116,0.0,2.0,9.0,5.0,2.0,3.0,1.0,-1.0,1651071544829236.0,0
1117,1.0,-2.0,-8.0,6.0,-3.0,-2.0,0.0,0.0,1651071544829236.0,0
1118,-3.0,0.0,9.0,-5.0,-2.0,-4.0,-4.0,-2.0,1651071544851794.0,0
1119,1.0,1.0,-10.0,-4.0,-3.0,0.0,1.0,0.0,1651071544851794.0,0
1120,0.0,-3.0,6.0,7.0,-2.0,-1.0,-2.0,-1.0,1651071544852742.0,0
1121,1.0,-1.0,3.0,-5.0,1.0,0.0,-2.0,-1.0,1651071544852742.0,0
1122,0.0,-1.0,-9.0,4.0,-1.0,-4.0,-1.0,1.0,1651071544874570.0,0
1123,-3.0,-3.0,-3.0,-8.0,-3.0,-1.0,-3.0,0.0,1651071544874570.0,0
1124,3.0,9.0,19.0,-3.0,-1.0,-1.0,0.0,0.0,1651071544875291.0,0
1125,-1.0,-14.0,-30.0,-8.0,-3.0,2.0,-1.0,0.0,1651071544875291.0,0
1126,-1.0,-4.0,16.0,4.0,2.0,2.0,0.0,-1.0,1651071544889263.0,0
1127,0.0,5.0,6.0,11.0,2.0,-2.0,-1.0,1.0,1651071544889263.0,0
1128,-1.0,0.0,7.0,3.0,0.0,-2.0,0.0,-2.0,1651071544889263.0,0
1129,1.0,2.0,4.0,-4.0,-3.0,1.0,1.0,2.0,1651071544889263.0,0
1130,0.0,-5.0,-18.0,-7.0,-6.0,-3.0,0.0,0.0,1651071544912432.0,0
1131,-1.0,-3.0,0.0,0.0,2.0,1.0,1.0,-1.0,1651071544912432.0,0
1132,-1.0,-2.0,4.0,6.0,0.0,0.0,-1.0,1.0,1651071544912432.0,0
1133,-3.0,1.0,-1.0,-20.0,-8.0,-1.0,1.0,-2.0,1651071544912432.0,0
1134,2.0,7.0,16.0,19.0,5.0,-1.0,1.0,2.0,1651071544942763.0,0
1135,0.0,-8.0,-6.0,1.0,0.0,1.0,1.0,2.0,1651071544942763.0,0
1136,-2.0,-5.0,-29.0,-22.0,-4.0,0.0,-1.0,-1.0,1651071544943693.0,0
1137,0.0,5.0,10.0,6.0,2.0,1.0,0.0,-2.0,1651071544943693.0,0
1138,1.0,7.0,2.0,-9.0,-2.0,-1.0,-1.0,0.0,1651071544947710.0,0
1139,2.0,10.0,28.0,20.0,1.0,-1.0,-2.0,-1.0,1651071544947710.0,0
1140,-3.0,-10.0,-12.0,1.0,0.0,0.0,0.0,0.0,1651071544956661.0,0
1141,0.0,2.0,8.0,1.0,3.0,3.0,-1.0,1.0,1651071544956661.0,0
1142,-2.0,-4.0,-11.0,-8.0,-10.0,-6.0,-2.0,-1.0,1651071544971729.0,0
1143,0.0,-4.0,1.0,-4.0,7.0,3.0,-1.0,-1.0,1651071544971729.0,0
1144,0.0,2.0,-2.0,1.0,3.0,-2.0,-3.0,-1.0,1651071544972707.0,0
1145,3.0,11.0,11.0,3.0,-1.0,0.0,-1.0,0.0,1651071544972707.0,0
1146,-5.0,-17.0,-2.0,0.0,0.0,-1.0,-3.0,-2.0,1651071544994662.0,0
1147,-1.0,5.0,0.0,-14.0,-7.0,-4.0,0.0,0.0,1651071544994662.0,0
1148,-2.0,-13.0,-3.0,8.0,0.0,1.0,1.0,0.0,1651071544995648.0,0
1149,-2.0,-1.0,-8.0,-6.0,1.0,-1.0,-1.0,-1.0,1651071544995648.0,0
1150,1.0,4.0,0.0,-6.0,2.0,1.0,1.0,1.0,1651071545008614.0,0
1151,1.0,-3.0,-1.0,5.0,-2.0,-1.0,1.0,-1.0,1651071545008614.0,0
1152,-1.0,3.0,1.0,2.0,0.0,1.0,2.0,2.0,1651071545016245.0,0
1153,-1.0,-1.0,0.0,11.0,-2.0,-2.0,1.0,1.0,1651071545016245.0,0
1154,-1.0,-2.0,-5.0,-5.0,-5.0,1.0,-2.0,-1.0,1651071545032500.0,0
1155,-1.0,-2.0,-5.0,-5.0,0.0,-1.0,-2.0,-1.0,1651071545032500.0,0
1156,2.0,3.0,-10.0,-10.0,0.0,2.0,-2.0,-1.0,1651071545032500.0,0
1157,-1.0,0.0,7.0,-1.0,-7.0,-2.0,-2.0,-2.0,1651071545032500.0,0
1158,0.0,6.0,1.0,3.0,5.0,0.0,1.0,0.0,1651071545054391.0,0
1159,-2.0,-3.0,6.0,7.0,2.0,2.0,1.0,0.0,1651071545054391.0,0
1160,-2.0,0.0,-4.0,-1.0,-6.0,-2.0,-1.0,-2.0,1651071545055387.0,0
1161,-1.0,-3.0,-4.0,-15.0,-6.0,-2.0,-3.0,0.0,1651071545055387.0,0
1162,-2.0,-3.0,5.0,7.0,1.0,-8.0,-1.0,-3.0,1651071545068419.0,0
1163,-2.0,-2.0,-6.0,-4.0,0.0,7.0,-1.0,-1.0,1651071545068419.0,0
1164,1.0,3.0,2.0,-1.0,5.0,0.0,1.0,2.0,1651071545076344.0,0
1165,-2.0,-11.0,-24.0,-4.0,0.0,2.0,0.0,2.0,1651071545076344.0,0
1166,1.0,6.0,2.0,1.0,0.0,0.0,0.0,-1.0,1651071545091800.0,0
1167,0.0,0.0,2.0,0.0,-3.0,-4.0,-3.0,0.0,1651071545091800.0,0
1168,-3.0,-8.0,-11.0,-5.0,-7.0,-4.0,0.0,-1.0,1651071545092752.0,0
1169,-2.0,1.0,7.0,-2.0,0.0,-3.0,-1.0,-2.0,1651071545092752.0,0
1170,1.0,1.0,-6.0,18.0,9.0,8.0,1.0,1.0,1651071545114325.0,0
1171,-2.0,-6.0,-10.0,-2.0,-3.0,-4.0,-2.0,-3.0,1651071545114325.0,0
1172,0.0,4.0,14.0,3.0,0.0,0.0,-2.0,1.0,1651071545115296.0,0
1173,-1.0,1.0,-1.0,3.0,0.0,-2.0,0.0,0.0,1651071545115296.0,0
1174,-1.0,-4.0,17.0,-10.0,-3.0,1.0,-1.0,0.0,1651071545128452.0,0
1175,-1.0,1.0,-48.0,-10.0,3.0,2.0,0.0,-1.0,1651071545128452.0,0
1176,0.0,1.0,1.0,7.0,-6.0,-5.0,-3.0,0.0,1651071545136363.0,0
1177,-1.0,-5.0,-2.0,-2.0,-15.0,-17.0,-8.0,-2.0,1651071545136363.0,0
1178,1.0,2.0,4.0,4.0,5.0,13.0,5.0,1.0,1651071545152388.0,0
1179,0.0,1.0,14.0,1.0,0.0,2.0,1.0,0.0,1651071545152388.0,0
1180,0.0,1.0,0.0,-4.0,2.0,-1.0,0.0,0.0,1651071545152388.0,0
1181,0.0,-3.0,-3.0,-1.0,-2.0,-3.0,-1.0,-1.0,1651071545152388.0,0
1182,-2.0,1.0,-7.0,-1.0,4.0,5.0,-2.0,-1.0,1651071545174560.0,0
1183,0.0,1.0,2.0,0.0,-7.0,-6.0,-2.0,1.0,1651071545174560.0,0
1184,1.0,8.0,1.0,1.0,3.0,8.0,3.0,0.0,1651071545175559.0,0
1185,-2.0,-15.0,-7.0,-2.0,0.0,-3.0,1.0,-1.0,1651071545175559.0,0
1186,0.0,-2.0,7.0,16.0,-1.0,-8.0,-4.0,1.0,1651071545188565.0,0
1187,0.0,0.0,4.0,4.0,-1.0,0.0,-1.0,0.0,1651071545188565.0,0
1188,0.0,3.0,2.0,-11.0,-4.0,-6.0,-1.0,-1.0,1651071545196429.0,0
1189,3.0,4.0,-2.0,1.0,7.0,6.0,1.0,2.0,1651071545196429.0,0
1190,0.0,-1.0,-2.0,4.0,-3.0,-4.0,-1.0,-1.0,1651071545212551.0,0
1191,0.0,-3.0,5.0,1.0,1.0,0.0,0.0,-1.0,1651071545212551.0,0
1192,0.0,-1.0,4.0,6.0,1.0,0.0,-1.0,0.0,1651071545212551.0,0
1193,0.0,1.0,0.0,-7.0,-1.0,3.0,1.0,-1.0,1651071545212551.0,0
1194,0.0,-3.0,-6.0,-6.0,-1.0,0.0,-3.0,-1.0,1651071545234561.0,0
1195,2.0,2.0,2.0,6.0,-1.0,-6.0,-3.0,-1.0,1651071545234561.0,0
1196,-1.0,-5.0,-4.0,-4.0,2.0,1.0,1.0,0.0,1651071545235304.0,0
1197,-3.0,-5.0,5.0,3.0,4.0,6.0,1.0,-1.0,1651071545235304.0,0
1198,-1.0,3.0,23.0,21.0,10.0,0.0,0.0,0.0,1651071545248659.0,0
1199,-3.0,-9.0,-35.0,-7.0,-6.0,-1.0,0.0,-1.0,1651071545248659.0,0
1200,0.0,-1.0,2.0,-3.0,-4.0,-2.0,-1.0,-1.0,1651071545256698.0,0
1201,1.0,4.0,0.0,-8.0,0.0,-1.0,0.0,1.0,1651071545256698.0,0
1202,-1.0,-3.0,-8.0,-9.0,-10.0,-16.0,-4.0,-4.0,1651071545271576.0,0
1203,-3.0,0.0,1.0,-4.0,-8.0,4.0,-2.0,0.0,1651071545271576.0,0
1204,1.0,3.0,7.0,10.0,14.0,9.0,1.0,1.0,1651071545278545.0,0
1205,1.0,6.0,1.0,6.0,4.0,3.0,3.0,2.0,1651071545278545.0,0
1206,1.0,1.0,-4.0,-9.0,1.0,1.0,2.0,0.0,1651071545294720.0,0
1207,0.0,3.0,2.0,-9.0,-2.0,-4.0,-3.0,-1.0,1651071545294720.0,0
1208,-2.0,2.0,2.0,2.0,-9.0,-9.0,-2.0,-1.0,1651071545295749.0,0
1209,-1.0,-5.0,1.0,2.0,-2.0,-1.0,-3.0,-2.0,1651071545295749.0,0
1210,-1.0,-2.0,-8.0,-6.0,-4.0,-3.0,0.0,1.0,1651071545315834.0,0
1211,1.0,-3.0,14.0,1.0,0.0,-2.0,2.0,0.0,1651071545315834.0,0
1212,1.0,1.0,-1.0,-2.0,-2.0,1.0,0.0,1.0,1651071545324753.0,0
1213,-2.0,0.0,-1.0,1.0,6.0,1.0,0.0,0.0,1651071545324753.0,0
1214,-2.0,-1.0,-12.0,-16.0,-4.0,-1.0,-1.0,0.0,1651071545330852.0,0
1215,0.0,-1.0,12.0,7.0,4.0,-1.0,0.0,0.0,1651071545330852.0,0
1216,-1.0,-1.0,-1.0,4.0,0.0,-2.0,0.0,-1.0,1651071545339823.0,0
1217,-2.0,0.0,-2.0,1.0,-1.0,1.0,-1.0,-1.0,1651071545339823.0,0
1218,0.0,-3.0,-9.0,-10.0,-3.0,-1.0,-1.0,0.0,1651071545354798.0,0
1219,1.0,3.0,4.0,-1.0,-2.0,-26.0,-6.0,0.0,1651071545354798.0,0
1220,-1.0,-2.0,-1.0,2.0,10.0,28.0,5.0,2.0,1651071545355784.0,0
1221,3.0,1.0,-3.0,0.0,9.0,11.0,2.0,0.0,1651071545355784.0,0
1222,-1.0,1.0,1.0,-1.0,1.0,3.0,1.0,2.0,1651071545377005.0,0
1223,-2.0,-2.0,-3.0,-13.0,-3.0,2.0,-1.0,-1.0,1651071545377005.0,0
1224,0.0,-2.0,-5.0,10.0,-10.0,-18.0,-4.0,-4.0,1651071545378960.0,0
1225,-2.0,-1.0,12.0,1.0,-5.0,-5.0,-2.0,-1.0,1651071545378960.0,0
1226,-3.0,-3.0,-13.0,0.0,2.0,2.0,1.0,-2.0,1651071545390969.0,0
1227,-1.0,-1.0,20.0,5.0,-8.0,-3.0,-3.0,-3.0,1651071545390969.0,0
1228,-1.0,-3.0,-5.0,-2.0,-2.0,-6.0,-1.0,0.0,1651071545399877.0,0
1229,0.0,4.0,-3.0,-4.0,2.0,5.0,2.0,1.0,1651071545399877.0,0
1230,1.0,0.0,0.0,-1.0,1.0,-3.0,0.0,-1.0,1651071545414008.0,0
1231,0.0,1.0,0.0,14.0,4.0,5.0,3.0,0.0,1651071545414008.0,0
1232,0.0,1.0,0.0,-16.0,-5.0,0.0,-2.0,-1.0,1651071545415998.0,0
1233,-1.0,-4.0,-24.0,16.0,3.0,-4.0,-1.0,-1.0,1651071545415998.0,0
1234,-2.0,-6.0,-3.0,-3.0,-10.0,-6.0,-4.0,1.0,1651071545437363.0,0
1235,-1.0,-9.0,-11.0,1.0,11.0,10.0,1.0,-1.0,1651071545437363.0,0
1236,-1.0,-1.0,-2.0,-6.0,-1.0,-3.0,-3.0,0.0,1651071545439386.0,0
1237,-1.0,2.0,1.0,-10.0,-8.0,-7.0,-1.0,-1.0,1651071545439386.0,0
1238,0.0,0.0,-2.0,-5.0,-3.0,-3.0,1.0,0.0,1651071545451024.0,0
1239,-1.0,2.0,0.0,1.0,3.0,7.0,0.0,0.0,1651071545451024.0,0
1240,-3.0,-4.0,-1.0,-9.0,0.0,-2.0,-1.0,-1.0,1651071545460096.0,0
1241,1.0,-3.0,-5.0,4.0,-7.0,-12.0,-1.0,-1.0,1651071545460096.0,0
1242,1.0,6.0,9.0,4.0,3.0,6.0,0.0,0.0,1651071545474199.0,0
1243,0.0,-1.0,-1.0,-4.0,2.0,4.0,-1.0,2.0,1651071545474199.0,0
1244,-2.0,-9.0,-11.0,-1.0,2.0,2.0,-1.0,0.0,1651071545476196.0,0
1245,-1.0,2.0,9.0,-5.0,-3.0,0.0,-2.0,-2.0,1651071545476196.0,0
1246,-3.0,-8.0,-9.0,-6.0,-4.0,-3.0,-3.0,-2.0,1651071545497361.0,0
1247,0.0,1.0,3.0,11.0,-3.0,-12.0,-4.0,-1.0,1651071545497361.0,0
1248,0.0,1.0,1.0,1.0,-1.0,4.0,3.0,-1.0,1651071545498291.0,0
1249,-3.0,-2.0,-5.0,1.0,2.0,6.0,2.0,1.0,1651071545498291.0,0
1250,0.0,-1.0,-4.0,-8.0,0.0,1.0,-2.0,-1.0,1651071545510326.0,0
1251,0.0,0.0,-2.0,-6.0,-5.0,-1.0,0.0,0.0,1651071545510326.0,0
1252,-1.0,1.0,-1.0,6.0,-10.0,-20.0,-5.0,-3.0,1651071545519267.0,0
1253,1.0,4.0,6.0,3.0,10.0,15.0,1.0,-2.0,1651071545519267.0,0
1254,2.0,3.0,13.0,11.0,8.0,1.0,5.0,0.0,1651071545534559.0,0
1255,1.0,2.0,0.0,-7.0,-4.0,-1.0,0.0,1.0,1651071545534559.0,0
1256,0.0,0.0,-6.0,-6.0,-4.0,-1.0,1.0,-1.0,1651071545536336.0,0
1257,-2.0,-3.0,2.0,-7.0,-1.0,-6.0,-3.0,-2.0,1651071545536336.0,0
1258,1.0,4.0,1.0,0.0,-6.0,-13.0,-2.0,0.0,1651071545556739.0,0
1259,-2.0,-9.0,-6.0,8.0,4.0,17.0,3.0,0.0,1651071545556739.0,0
1260,0.0,0.0,-2.0,-13.0,7.0,3.0,2.0,3.0,1651071545558667.0,0
1261,0.0,2.0,4.0,8.0,3.0,1.0,-1.0,-1.0,1651071545558667.0,0
1262,0.0,0.0,-1.0,2.0,2.0,3.0,-2.0,-2.0,1651071545571700.0,0
1263,-1.0,1.0,6.0,5.0,-7.0,-10.0,-2.0,0.0,1651071545571700.0,0
1264,1.0,2.0,1.0,0.0,1.0,1.0,0.0,-1.0,1651071545578625.0,0
1265,2.0,2.0,5.0,-5.0,-1.0,1.0,0.0,-1.0,1651071545578625.0,0
1266,-2.0,-6.0,0.0,-4.0,-3.0,-1.0,2.0,-1.0,1651071545594734.0,0
1267,0.0,-3.0,-9.0,8.0,1.0,-1.0,-1.0,0.0,1651071545594734.0,0
1268,0.0,0.0,10.0,10.0,1.0,-2.0,-5.0,-3.0,1651071545600788.0,0
1269,-1.0,0.0,-9.0,-10.0,-7.0,-2.0,2.0,-1.0,1651071545600788.0,0
1270,0.0,2.0,5.0,0.0,1.0,6.0,1.0,1.0,1651071545617036.0,0
1271,0.0,2.0,-4.0,-11.0,7.0,6.0,2.0,0.0,1651071545617036.0,0
1272,0.0,-1.0,4.0,10.0,0.0,-3.0,-1.0,-1.0,1651071545618983.0,0
1273,1.0,-1.0,6.0,3.0,-4.0,-9.0,-4.0,0.0,1651071545618983.0,0
1274,0.0,-1.0,-2.0,-2.0,-1.0,-3.0,-1.0,-1.0,1651071545631244.0,0
1275,1.0,3.0,-2.0,-15.0,-6.0,2.0,2.0,1.0,1651071545631244.0,0
1276,-1.0,2.0,7.0,20.0,3.0,0.0,-2.0,-1.0,1651071545638226.0,0
1277,-1.0,-4.0,0.0,-2.0,2.0,2.0,0.0,1.0,1651071545638226.0,0
1278,-2.0,-1.0,-7.0,-3.0,2.0,5.0,-1.0,0.0,1651071545654171.0,0
1279,-1.0,1.0,2.0,-4.0,-5.0,-13.0,-2.0,-1.0,1651071545654171.0,0
1280,-1.0,-2.0,-6.0,-10.0,-11.0,5.0,-2.0,0.0,1651071545656165.0,0
1281,0.0,3.0,19.0,30.0,13.0,1.0,3.0,2.0,1651071545656165.0,0
1282,-1.0,-4.0,-16.0,-12.0,2.0,6.0,2.0,3.0,1651071545677377.0,0
1283,-2.0,0.0,0.0,-4.0,-2.0,-3.0,-1.0,-3.0,1651071545677377.0,0
1284,0.0,-1.0,5.0,-7.0,0.0,-3.0,-2.0,0.0,1651071545678313.0,0
1285,-2.0,-2.0,-5.0,-4.0,-3.0,-1.0,-2.0,-2.0,1651071545678313.0,0
1286,0.0,0.0,7.0,8.0,1.0,1.0,-2.0,-2.0,1651071545691431.0,0
1287,-2.0,-1.0,-9.0,-8.0,-3.0,-3.0,-2.0,-1.0,1651071545691431.0,0
1288,-1.0,1.0,-5.0,-5.0,-5.0,-12.0,1.0,1.0,1651071545698445.0,0
1289,-1.0,-1.0,0.0,2.0,5.0,11.0,0.0,-1.0,1651071545698445.0,0
1290,0.0,0.0,8.0,2.0,0.0,0.0,0.0,-2.0,1651071545714561.0,0
1291,1.0,-5.0,-3.0,2.0,-1.0,3.0,0.0,-1.0,1651071545714561.0,0
1292,-2.0,-1.0,8.0,18.0,4.0,2.0,1.0,-2.0,1651071545716307.0,0
1293,-2.0,-3.0,-5.0,-11.0,-13.0,-12.0,-4.0,-1.0,1651071545716307.0,0
1294,-2.0,-1.0,-1.0,3.0,0.0,9.0,5.0,2.0,1651071545737385.0,0
1295,-2.0,2.0,2.0,-8.0,-3.0,-7.0,-1.0,-1.0,1651071545737385.0,0
1296,-1.0,-7.0,-6.0,-12.0,-4.0,3.0,1.0,-1.0,1651071545738386.0,0
1297,1.0,1.0,-6.0,-12.0,12.0,5.0,3.0,1.0,1651071545738386.0,0
1298,0.0,3.0,4.0,10.0,3.0,-2.0,-3.0,-1.0,1651071545750421.0,0
1299,0.0,2.0,4.0,9.0,-6.0,4.0,1.0,-1.0,1651071545750421.0,0
1300,-2.0,-1.0,-6.0,0.0,6.0,-4.0,-1.0,-1.0,1651071545759332.0,0
1301,-2.0,-9.0,-8.0,-14.0,-9.0,-3.0,-2.0,-2.0,1651071545759332.0,0
1302,1.0,3.0,5.0,-5.0,-7.0,-6.0,-3.0,-2.0,1651071545774696.0,0
1303,1.0,-3.0,4.0,4.0,8.0,-1.0,1.0,-1.0,1651071545774696.0,0
1304,-1.0,3.0,-6.0,-4.0,-6.0,3.0,-2.0,-2.0,1651071545775816.0,0
1305,0.0,2.0,2.0,-4.0,-4.0,-2.0,-2.0,-1.0,1651071545775816.0,0
1306,1.0,1.0,5.0,6.0,0.0,-4.0,-3.0,0.0,1651071545796782.0,0
1307,-1.0,0.0,0.0,13.0,3.0,1.0,0.0,-1.0,1651071545796782.0,0
1308,0.0,-1.0,-6.0,-4.0,1.0,4.0,1.0,0.0,1651071545798726.0,0
1309,0.0,-5.0,-16.0,-1.0,-4.0,-9.0,-4.0,0.0,1651071545798726.0,0
1310,-1.0,-1.0,1.0,-6.0,-4.0,1.0,1.0,-2.0,1651071545810748.0,0
1311,-1.0,1.0,2.0,-4.0,-2.0,-3.0,-2.0,-1.0,1651071545810748.0,0
1312,0.0,0.0,-6.0,-10.0,10.0,3.0,0.0,0.0,1651071545819682.0,0
1313,-1.0,1.0,8.0,20.0,1.0,8.0,0.0,-1.0,1651071545819682.0,0
1314,-1.0,2.0,-2.0,-4.0,0.0,-6.0,-3.0,-2.0,1651071545834707.0,0
1315,0.0,-5.0,1.0,3.0,0.0,-4.0,-2.0,-1.0,1651071545834707.0,0
1316,0.0,2.0,5.0,-2.0,0.0,8.0,1.0,0.0,1651071545835802.0,0
1317,2.0,6.0,3.0,1.0,3.0,1.0,0.0,1.0,1651071545835802.0,0
1318,-4.0,-4.0,-22.0,-12.0,-4.0,-2.0,-1.0,-2.0,1651071545856867.0,0
1319,1.0,3.0,18.0,0.0,-4.0,0.0,-2.0,-1.0,1651071545856867.0,0
1320,0.0,-3.0,6.0,19.0,3.0,-6.0,1.0,0.0,1651071545858830.0,0
1321,0.0,1.0,7.0,1.0,-2.0,1.0,0.0,0.0,1651071545858830.0,0
1322,-1.0,-1.0,-1.0,3.0,1.0,0.0,0.0,-1.0,1651071545870767.0,0
1323,0.0,-1.0,-12.0,-9.0,-2.0,-2.0,0.0,0.0,1651071545870767.0,0
1324,-3.0,-1.0,-1.0,0.0,1.0,-3.0,-3.0,-2.0,1651071545879744.0,0
1325,0.0,0.0,1.0,2.0,-5.0,-3.0,1.0,-1.0,1651071545879744.0,0
1326,1.0,0.0,5.0,-4.0,0.0,1.0,2.0,0.0,1651071545894821.0,0
1327,-2.0,0.0,-9.0,-4.0,-3.0,-8.0,-6.0,-3.0,1651071545894821.0,0
1328,0.0,-2.0,-2.0,-22.0,3.0,0.0,4.0,1.0,1651071545895878.0,0
1329,-1.0,1.0,6.0,25.0,-6.0,4.0,1.0,1.0,1651071545895878.0,0
1330,0.0,-3.0,1.0,4.0,10.0,4.0,1.0,1.0,1651071545917362.0,0
1331,1.0,3.0,2.0,-8.0,3.0,6.0,1.0,0.0,1651071545917362.0,0
1332,0.0,1.0,-3.0,5.0,-7.0,-3.0,-4.0,-1.0,1651071545918296.0,0
1333,-2.0,-6.0,-16.0,-30.0,-5.0,-9.0,0.0,-2.0,1651071545918296.0,0
1334,0.0,3.0,6.0,4.0,-2.0,-4.0,-1.0,-1.0,1651071545930371.0,0
1335,-1.0,-1.0,1.0,9.0,4.0,7.0,3.0,-2.0,1651071545930371.0,0
1336,-2.0,-2.0,0.0,1.0,-8.0,-3.0,-3.0,-1.0,1651071545939336.0,0
1337,0.0,0.0,5.0,-3.0,0.0,-2.0,-1.0,0.0,1651071545939336.0,0
1338,-1.0,1.0,2.0,8.0,-5.0,-2.0,-1.0,1.0,1651071545954492.0,0
1339,0.0,-2.0,-8.0,-9.0,4.0,2.0,0.0,1.0,1651071545954492.0,0
1340,-3.0,-1.0,0.0,6.0,-3.0,-2.0,1.0,-1.0,1651071545956420.0,0
1341,1.0,1.0,1.0,-3.0,5.0,1.0,-1.0,-2.0,1651071545956420.0,0
1342,0.0,-2.0,-4.0,-3.0,-2.0,7.0,1.0,-1.0,1651071545976592.0,0
1343,-2.0,-4.0,-4.0,9.0,2.0,-4.0,1.0,0.0,1651071545976592.0,0
1344,0.0,4.0,9.0,1.0,-2.0,-2.0,-4.0,-1.0,1651071545978526.0,0
1345,0.0,0.0,-9.0,-8.0,-6.0,-2.0,-1.0,-1.0,1651071545978526.0,0
1346,0.0,0.0,-3.0,-4.0,-10.0,-7.0,-3.0,-2.0,1651071545990553.0,0
1347,-1.0,0.0,2.0,-10.0,5.0,7.0,-3.0,0.0,1651071545990553.0,0
1348,0.0,-4.0,-5.0,-4.0,-2.0,-2.0,0.0,0.0,1651071545999462.0,0
1349,1.0,2.0,-5.0,-9.0,4.0,1.0,-1.0,-1.0,1651071545999462.0,0
1350,0.0,-2.0,3.0,6.0,2.0,-2.0,-2.0,-2.0,1651071546014489.0,0
1351,-1.0,3.0,-2.0,8.0,-8.0,-4.0,1.0,1.0,1651071546014489.0,0
1352,2.0,-2.0,-6.0,0.0,18.0,5.0,1.0,1.0,1651071546016443.0,0
1353,0.0,1.0,3.0,-2.0,-2.0,1.0,1.0,0.0,1651071546016443.0,0
1354,1.0,-3.0,-1.0,-3.0,-5.0,-4.0,-1.0,0.0,1651071546036487.0,0
1355,-2.0,-1.0,0.0,5.0,6.0,3.0,-2.0,0.0,1651071546036487.0,0
1356,-1.0,5.0,3.0,-5.0,-8.0,5.0,3.0,2.0,1651071546044399.0,0
1357,-1.0,-2.0,11.0,11.0,9.0,2.0,0.0,0.0,1651071546044399.0,0
1358,-2.0,-2.0,-12.0,-14.0,-2.0,0.0,0.0,0.0,1651071546050451.0,0
1359,1.0,-1.0,10.0,5.0,-7.0,-1.0,1.0,-2.0,1651071546050451.0,0
1360,-1.0,-1.0,-1.0,2.0,10.0,2.0,0.0,-1.0,1651071546059381.0,0
1361,1.0,-4.0,-6.0,1.0,-8.0,-7.0,-1.0,-1.0,1651071546059381.0,0
1362,-1.0,0.0,6.0,-4.0,2.0,-7.0,-2.0,-3.0,1651071546074838.0,0
1363,0.0,2.0,-2.0,1.0,-2.0,13.0,3.0,0.0,1651071546074838.0,0
1364,-2.0,-4.0,6.0,-6.0,-10.0,-7.0,-4.0,0.0,1651071546075834.0,0
1365,0.0,5.0,-6.0,0.0,19.0,10.0,3.0,0.0,1651071546075834.0,0
1366,0.0,2.0,0.0,6.0,3.0,1.0,-2.0,0.0,1651071546096576.0,0
1367,0.0,0.0,1.0,-5.0,-10.0,-11.0,0.0,0.0,1651071546096576.0,0
1368,-2.0,-5.0,-11.0,2.0,1.0,5.0,1.0,-3.0,1651071546098503.0,0
1369,-2.0,0.0,1.0,-2.0,-8.0,-10.0,-2.0,0.0,1651071546098503.0,0
1370,1.0,2.0,2.0,17.0,0.0,3.0,1.0,2.0,1651071546110539.0,0
1371,0.0,-2.0,0.0,-2.0,0.0,1.0,-1.0,2.0,1651071546110539.0,0
1372,0.0,4.0,6.0,-4.0,-9.0,-5.0,-3.0,-1.0,1651071546119448.0,0
1373,0.0,-4.0,-10.0,-22.0,-13.0,-5.0,-2.0,-3.0,1651071546119448.0,0
1374,-3.0,1.0,7.0,3.0,2.0,-2.0,-1.0,-2.0,1651071546134562.0,0
1375,-1.0,-6.0,-11.0,2.0,5.0,2.0,2.0,1.0,1651071546134562.0,0
1376,2.0,4.0,6.0,5.0,3.0,-2.0,0.0,1.0,1651071546136294.0,0
1377,-2.0,-5.0,-1.0,7.0,3.0,1.0,0.0,-1.0,1651071546136294.0,0
1378,1.0,-1.0,-3.0,-10.0,-13.0,-2.0,0.0,0.0,1651071546157313.0,0
1379,-2.0,2.0,6.0,9.0,5.0,-2.0,-2.0,-2.0,1651071546157313.0,0
1380,-1.0,-3.0,-7.0,-16.0,1.0,7.0,3.0,2.0,1651071546158245.0,0
1381,-1.0,1.0,3.0,10.0,3.0,5.0,4.0,0.0,1651071546158245.0,0
1382,-1.0,-2.0,-11.0,10.0,5.0,0.0,-1.0,-1.0,1651071546170279.0,0
1383,-2.0,-4.0,4.0,-19.0,-9.0,-7.0,-3.0,-5.0,1651071546170279.0,0
1384,0.0,-5.0,-3.0,24.0,6.0,0.0,-1.0,-3.0,1651071546179255.0,0
1385,0.0,1.0,15.0,4.0,-4.0,-1.0,2.0,2.0,1651071546179255.0,0
1386,-4.0,-5.0,-4.0,-6.0,2.0,-1.0,-3.0,-1.0,1651071546194215.0,0
1387,1.0,1.0,-3.0,-6.0,-7.0,0.0,0.0,1.0,1651071546194215.0,0
1388,0.0,1.0,3.0,-6.0,-7.0,-7.0,0.0,-1.0,1651071546196143.0,0
1389,1.0,3.0,10.0,9.0,-4.0,3.0,-2.0,2.0,1651071546196143.0,0
1390,0.0,-1.0,-20.0,-11.0,16.0,9.0,3.0,1.0,1651071546217324.0,0
1391,-1.0,-3.0,-13.0,-11.0,1.0,-6.0,-2.0,-2.0,1651071546217324.0,0
1392,-1.0,1.0,5.0,-8.0,-7.0,-2.0,-1.0,-1.0,1651071546218265.0,0
1393,-2.0,-2.0,3.0,14.0,-10.0,-10.0,-4.0,-3.0,1651071546218265.0,0
1394,0.0,1.0,10.0,1.0,-11.0,-2.0,0.0,1.0,1651071546239438.0,0
1395,-2.0,-4.0,-2.0,8.0,6.0,3.0,-1.0,-1.0,1651071546239438.0,0
1396,-1.0,1.0,-2.0,-18.0,-5.0,-5.0,-2.0,-3.0,1651071546241430.0,0
1397,1.0,-1.0,-1.0,-2.0,-3.0,-3.0,-4.0,1.0,1651071546241430.0,0
1398,-2.0,-6.0,-8.0,-18.0,5.0,1.0,-1.0,-3.0,1651071546254368.0,0
1399,2.0,3.0,13.0,27.0,6.0,9.0,2.0,1.0,1651071546254368.0,0
1400,1.0,-3.0,-11.0,2.0,-2.0,-6.0,-2.0,-1.0,1651071546261048.0,0
1401,-2.0,-4.0,-1.0,3.0,1.0,3.0,-2.0,-2.0,1651071546261048.0,0
1402,1.0,5.0,12.0,-12.0,-13.0,-3.0,-2.0,-1.0,1651071546276750.0,0
1403,1.0,0.0,-13.0,-14.0,-2.0,-3.0,1.0,1.0,1651071546276750.0,0
1404,-2.0,-4.0,-1.0,20.0,11.0,2.0,-1.0,-2.0,1651071546278679.0,0
1405,0.0,0.0,2.0,-4.0,2.0,2.0,0.0,-1.0,1651071546278679.0,0
1406,0.0,0.0,-5.0,-11.0,-2.0,-3.0,-1.0,0.0,1651071546299138.0,0
1407,0.0,3.0,-5.0,-19.0,0.0,1.0,-1.0,2.0,1651071546299138.0,0
1408,0.0,2.0,-3.0,-3.0,-2.0,1.0,-2.0,2.0,1651071546301133.0,0
1409,0.0,-1.0,1.0,11.0,1.0,1.0,1.0,0.0,1651071546301133.0,0
1410,1.0,2.0,13.0,11.0,0.0,-5.0,-1.0,-1.0,1651071546322326.0,0
1411,-1.0,0.0,9.0,6.0,3.0,-2.0,0.0,1.0,1651071546322326.0,0
1412,0.0,-2.0,-2.0,1.0,2.0,0.0,3.0,-1.0,1651071546323335.0,0
1413,-4.0,-4.0,-22.0,-25.0,-9.0,-1.0,-3.0,-2.0,1651071546323335.0,0
1414,0.0,-4.0,-7.0,6.0,5.0,6.0,3.0,1.0,1651071546337334.0,0
1415,1.0,1.0,-3.0,-2.0,7.0,-2.0,2.0,0.0,1651071546337334.0,0
1416,1.0,4.0,2.0,12.0,-13.0,-2.0,1.0,2.0,1651071546338263.0,0
1417,-3.0,-2.0,-17.0,-32.0,7.0,-1.0,0.0,-2.0,1651071546338263.0,0
1418,-3.0,-3.0,11.0,27.0,-3.0,-13.0,-4.0,-2.0,1651071546359429.0,0
1419,-1.0,-2.0,-21.0,-24.0,-10.0,8.0,0.0,0.0,1651071546359429.0,0
1420,-3.0,-4.0,2.0,11.0,-3.0,-2.0,-2.0,0.0,1651071546361400.0,0
1421,0.0,1.0,1.0,-3.0,7.0,2.0,2.0,1.0,1651071546361400.0,0
1422,0.0,2.0,-7.0,-15.0,-13.0,-3.0,1.0,1.0,1651071546374568.0,0
1423,0.0,0.0,16.0,33.0,7.0,-2.0,0.0,-1.0,1651071546374568.0,0
1424,-2.0,2.0,-9.0,-41.0,-6.0,0.0,-1.0,-2.0,1651071546376257.0,0
1425,-1.0,0.0,10.0,8.0,-2.0,-11.0,-5.0,-2.0,1651071546376257.0,0
1426,3.0,-2.0,0.0,-3.0,3.0,12.0,6.0,1.0,1651071546396358.0,0
1427,-4.0,-2.0,18.0,42.0,3.0,-4.0,-5.0,-4.0,1651071546396358.0,0
1428,1.0,1.0,-7.0,-21.0,-6.0,1.0,-1.0,0.0,1651071546403337.0,0
1429,1.0,4.0,-3.0,0.0,4.0,-8.0,-2.0,0.0,1651071546403337.0,0
1430,1.0,2.0,5.0,5.0,3.0,5.0,6.0,2.0,1651071546419478.0,0
1431,-2.0,-5.0,-8.0,-21.0,-16.0,-1.0,-2.0,0.0,1651071546419478.0,0
1432,1.0,-2.0,-5.0,2.0,9.0,6.0,2.0,0.0,1651071546421450.0,0
1433,2.0,1.0,1.0,1.0,0.0,3.0,2.0,-1.0,1651071546421450.0,0
1434,-2.0,-4.0,-1.0,17.0,4.0,-4.0,-4.0,-1.0,1651071546433511.0,0
1435,-2.0,4.0,13.0,-5.0,-5.0,-4.0,-1.0,-1.0,1651071546433511.0,0
1436,-1.0,-3.0,-7.0,-16.0,-5.0,-11.0,-4.0,-3.0,1651071546440528.0,0
1437,0.0,1.0,18.0,13.0,-3.0,10.0,2.0,0.0,1651071546440528.0,0
1438,-1.0,-3.0,-21.0,-7.0,6.0,3.0,1.0,1.0,1651071546457477.0,0
1439,0.0,0.0,0.0,-14.0,10.0,-1.0,1.0,-4.0,1651071546457477.0,0
1440,0.0,4.0,7.0,13.0,-2.0,2.0,0.0,-3.0,1651071546458413.0,0
1441,1.0,-3.0,8.0,6.0,3.0,-3.0,1.0,1.0,1651071546458413.0,0
1442,-2.0,-4.0,0.0,-15.0,-9.0,-4.0,-5.0,-4.0,1651071546478945.0,0
1443,1.0,3.0,20.0,22.0,8.0,-6.0,-3.0,-1.0,1651071546478945.0,0
1444,2.0,4.0,-1.0,0.0,6.0,10.0,4.0,12.0,1651071546486973.0,0
1445,1.0,-3.0,-21.0,-28.0,-10.0,1.0,-1.0,-2.0,1651071546486973.0,0
1446,-2.0,-2.0,-2.0,25.0,0.0,-2.0,-3.0,-2.0,1651071546494247.0,0
1447,-2.0,-3.0,-14.0,-22.0,-8.0,-5.0,-4.0,-4.0,1651071546494247.0,0
1448,-2.0,1.0,10.0,19.0,2.0,-4.0,-4.0,-5.0,1651071546501090.0,0
1449,0.0,-1.0,-3.0,-7.0,1.0,-2.0,1.0,2.0,1651071546501090.0,0
1450,-1.0,-1.0,8.0,-2.0,-9.0,0.0,0.0,0.0,1651071546517161.0,0
1451,2.0,4.0,-2.0,1.0,8.0,8.0,5.0,3.0,1651071546517161.0,0
1452,-2.0,-4.0,7.0,20.0,5.0,5.0,0.0,0.0,1651071546518185.0,0
1453,0.0,-1.0,1.0,0.0,3.0,1.0,-4.0,-1.0,1651071546518185.0,0
1454,1.0,3.0,-1.0,14.0,1.0,-12.0,-3.0,-3.0,1651071546539932.0,0
1455,1.0,2.0,2.0,-32.0,-11.0,8.0,0.0,0.0,1651071546539932.0,0
1456,0.0,3.0,10.0,11.0,-2.0,-2.0,0.0,1.0,1651071546540932.0,0
1457,-3.0,-14.0,-16.0,4.0,-6.0,-4.0,-2.0,-2.0,1651071546540932.0,0
1458,-2.0,4.0,2.0,-7.0,4.0,-4.0,-4.0,-4.0,1651071546554006.0,0
1459,4.0,0.0,-2.0,-2.0,-12.0,-2.0,1.0,4.0,1651071546554006.0,0
1460,2.0,3.0,3.0,2.0,2.0,2.0,-1.0,1.0,1651071546561049.0,0
1461,-1.0,6.0,0.0,1.0,7.0,2.0,1.0,-1.0,1651071546561049.0,0
1462,0.0,-1.0,7.0,-8.0,-1.0,0.0,0.0,1.0,1651071546577229.0,0
1463,-1.0,-6.0,-26.0,1.0,2.0,-1.0,0.0,-2.0,1651071546577229.0,0
1464,-2.0,-6.0,-8.0,-13.0,-8.0,-1.0,-1.0,-2.0,1651071546579157.0,0
1465,-2.0,1.0,7.0,21.0,-3.0,-6.0,-2.0,0.0,1651071546579157.0,0
1466,-2.0,0.0,3.0,-1.0,2.0,7.0,1.0,1.0,1651071546600211.0,0
1467,-2.0,0.0,-1.0,-4.0,4.0,0.0,0.0,1.0,1651071546600211.0,0
1468,-2.0,-3.0,3.0,-12.0,-2.0,-4.0,-1.0,-2.0,1651071546601182.0,0
1469,-4.0,1.0,5.0,10.0,-6.0,-4.0,-2.0,0.0,1651071546601182.0,0
1470,-4.0,-7.0,-4.0,0.0,-2.0,0.0,-3.0,-1.0,1651071546614229.0,0
1471,-2.0,-1.0,6.0,5.0,-6.0,-7.0,-4.0,-2.0,1651071546614229.0,0
1472,1.0,2.0,-9.0,14.0,18.0,4.0,3.0,-1.0,1651071546621175.0,0
1473,1.0,-2.0,2.0,-6.0,7.0,6.0,2.0,0.0,1651071546621175.0,0
1474,1.0,4.0,3.0,-17.0,-4.0,-1.0,0.0,1.0,1651071546637236.0,0
1475,1.0,-3.0,2.0,15.0,-6.0,-1.0,1.0,0.0,1651071546637236.0,0
1476,0.0,2.0,1.0,-5.0,-6.0,1.0,2.0,-1.0,1651071546638166.0,0
1477,1.0,-3.0,-9.0,-19.0,-4.0,1.0,0.0,-1.0,1651071546638166.0,0
1478,1.0,2.0,-13.0,-11.0,-8.0,0.0,0.0,2.0,1651071546659958.0,0
1479,-3.0,-14.0,-9.0,19.0,0.0,-6.0,-4.0,-3.0,1651071546659958.0,0
1480,-2.0,-7.0,0.0,-2.0,20.0,2.0,-2.0,0.0,1651071546660968.0,0
1481,3.0,7.0,-2.0,-9.0,-7.0,0.0,2.0,1.0,1651071546660968.0,0
1482,1.0,1.0,8.0,13.0,4.0,3.0,-3.0,-1.0,1651071546673924.0,0
1483,1.0,0.0,1.0,-11.0,0.0,1.0,-1.0,0.0,1651071546673924.0,0
1484,0.0,-1.0,0.0,-3.0,-4.0,0.0,0.0,-1.0,1651071546681023.0,0
1485,-1.0,2.0,3.0,4.0,-2.0,-3.0,-2.0,-1.0,1651071546681023.0,0
1486,-2.0,5.0,-6.0,-3.0,-3.0,-2.0,-1.0,-1.0,1651071546696667.0,0
1487,-2.0,0.0,2.0,13.0,3.0,4.0,3.0,-12.0,1651071546696667.0,0
1488,0.0,-11.0,-11.0,-10.0,-6.0,-3.0,-2.0,10.0,1651071546698594.0,0
1489,3.0,-2.0,3.0,1.0,-5.0,-7.0,0.0,7.0,1651071546698594.0,0
1490,0.0,0.0,-9.0,1.0,-1.0,-8.0,-1.0,-1.0,1651071546719818.0,0
1491,-1.0,4.0,17.0,2.0,0.0,17.0,0.0,0.0,1651071546719818.0,0
1492,-3.0,-4.0,-11.0,-8.0,12.0,-2.0,-1.0,-6.0,1651071546720818.0,0
1493,-2.0,2.0,1.0,1.0,-2.0,-1.0,0.0,-1.0,1651071546720818.0,0
1494,-1.0,-6.0,5.0,2.0,1.0,-2.0,-1.0,1.0,1651071546733164.0,0
1495,1.0,2.0,-6.0,-8.0,-2.0,-1.0,0.0,2.0,1651071546733164.0,0
1496,-2.0,3.0,7.0,3.0,-6.0,-3.0,-2.0,-3.0,1651071546742014.0,0
1497,-2.0,2.0,20.0,8.0,0.0,-1.0,0.0,-1.0,1651071546742014.0,0
1498,-1.0,-5.0,-36.0,-17.0,-6.0,1.0,0.0,-2.0,1651071546757035.0,0
1499,1.0,4.0,-6.0,-11.0,3.0,-5.0,0.0,1.0,1651071546757035.0,0
1500,0.0,-3.0,9.0,8.0,-7.0,-3.0,-2.0,-1.0,1651071546759075.0,0
1501,-2.0,0.0,0.0,11.0,9.0,2.0,1.0,-3.0,1651071546759075.0,0
1502,2.0,0.0,13.0,-8.0,-4.0,-12.0,-4.0,-2.0,1651071546779447.0,0
1503,1.0,-2.0,-20.0,-10.0,-2.0,13.0,3.0,3.0,1651071546779447.0,0
1504,1.0,3.0,-15.0,6.0,-4.0,3.0,5.0,4.0,1651071546781445.0,0
1505,0.0,5.0,7.0,0.0,6.0,4.0,-2.0,-4.0,1651071546781445.0,0
1506,-3.0,-12.0,-6.0,-7.0,0.0,0.0,0.0,-3.0,1651071546793585.0,0
1507,0.0,-2.0,-4.0,2.0,-6.0,-9.0,-3.0,0.0,1651071546793585.0,0
1508,-3.0,2.0,0.0,-10.0,-7.0,-6.0,-3.0,-4.0,1651071546802627.0,0
1509,-2.0,-2.0,-3.0,-4.0,-10.0,0.0,1.0,-1.0,1651071546802627.0,0
1510,1.0,5.0,8.0,7.0,10.0,4.0,0.0,3.0,1651071546816720.0,0
1511,-1.0,1.0,18.0,30.0,6.0,-2.0,1.0,1.0,1651071546816720.0,0
1512,-1.0,-5.0,-8.0,-17.0,-15.0,-6.0,-1.0,-2.0,1651071546818688.0,0
1513,-1.0,1.0,-3.0,-1.0,4.0,0.0,-1.0,1.0,1651071546818688.0,0
1514,1.0,5.0,9.0,2.0,5.0,9.0,1.0,0.0,1651071546839256.0,0
1515,-1.0,-5.0,0.0,-5.0,5.0,-3.0,0.0,-1.0,1651071546839256.0,0
1516,1.0,5.0,11.0,-4.0,5.0,4.0,0.0,1.0,1651071546841269.0,0
1517,-2.0,-12.0,-20.0,-12.0,-9.0,-9.0,0.0,-1.0,1651071546841269.0,0
1518,0.0,1.0,4.0,27.0,7.0,7.0,4.0,1.0,1651071546853608.0,0
1519,-1.0,1.0,-19.0,-29.0,-6.0,-4.0,-3.0,-2.0,1651071546853608.0,0
1520,-3.0,1.0,14.0,18.0,5.0,-8.0,-3.0,-3.0,1651071546861739.0,0
1521,-1.0,-2.0,-6.0,-23.0,1.0,7.0,1.0,-2.0,1651071546861739.0,0
1522,-2.0,0.0,-3.0,7.0,-2.0,8.0,0.0,1.0,1651071546877826.0,0
1523,-1.0,0.0,13.0,-1.0,-1.0,-4.0,-1.0,-1.0,1651071546877826.0,0
1524,3.0,1.0,-9.0,-14.0,-4.0,2.0,-2.0,-1.0,1651071546878756.0,0
1525,-1.0,-1.0,2.0,13.0,-4.0,-6.0,-2.0,-1.0,1651071546878756.0,0
1526,0.0,0.0,1.0,5.0,5.0,-2.0,-1.0,-2.0,1651071546899871.0,0
1527,-1.0,0.0,-3.0,-14.0,-2.0,-1.0,0.0,0.0,1651071546899871.0,0
1528,-2.0,-2.0,-2.0,-2.0,-7.0,-4.0,-1.0,-4.0,1651071546900871.0,0
1529,0.0,1.0,4.0,6.0,8.0,11.0,4.0,2.0,1651071546900871.0,0
1530,1.0,-3.0,4.0,-11.0,-2.0,0.0,0.0,3.0,1651071546913548.0,0
1531,-1.0,2.0,-3.0,-14.0,-3.0,-4.0,-1.0,1.0,1651071546913548.0,0
1532,-2.0,-9.0,-6.0,2.0,-6.0,-1.0,-1.0,-1.0,1651071546921897.0,0
1533,2.0,0.0,-16.0,5.0,7.0,7.0,1.0,0.0,1651071546921897.0,0
1534,0.0,7.0,43.0,8.0,-2.0,-4.0,-1.0,-1.0,1651071546936535.0,0
1535,-2.0,-2.0,-34.0,-5.0,-1.0,-5.0,-2.0,-1.0,1651071546936535.0,0
1536,0.0,1.0,1.0,-7.0,-5.0,-5.0,-2.0,-3.0,1651071546938531.0,0
1537,0.0,5.0,19.0,17.0,-13.0,-2.0,0.0,0.0,1651071546938531.0,0
1538,0.0,-6.0,-14.0,-15.0,17.0,-1.0,-1.0,0.0,1651071546959957.0,0
1539,1.0,3.0,16.0,12.0,0.0,1.0,2.0,-2.0,1651071546959957.0,0
1540,-1.0,4.0,-6.0,-4.0,-2.0,0.0,1.0,1.0,1651071546960971.0,0
1541,-1.0,-6.0,3.0,-9.0,-2.0,2.0,1.0,-1.0,1651071546960971.0,0
1542,-1.0,1.0,6.0,9.0,-3.0,-1.0,1.0,0.0,1651071546973056.0,0
1543,-3.0,-1.0,-8.0,-2.0,-5.0,-3.0,-3.0,-2.0,1651071546973056.0,0
1544,0.0,-5.0,-6.0,0.0,4.0,2.0,0.0,0.0,1651071546982017.0,0
1545,3.0,4.0,-7.0,2.0,4.0,-1.0,0.0,1.0,1651071546982017.0,0
1546,-4.0,-5.0,1.0,-5.0,-11.0,-4.0,-2.0,-4.0,1651071546997182.0,0
1547,-2.0,-11.0,-12.0,1.0,2.0,-8.0,-2.0,-1.0,1651071546997182.0,0
1548,1.0,6.0,9.0,9.0,9.0,13.0,0.0,1.0,1651071546998113.0,0
1549,1.0,2.0,-9.0,-12.0,2.0,-2.0,0.0,-1.0,1651071546998113.0,0
1550,-1.0,-1.0,-13.0,-9.0,-9.0,-7.0,-4.0,-2.0,1651071547019364.0,0
1551,0.0,3.0,13.0,13.0,9.0,11.0,6.0,4.0,1651071547019364.0,0
1552,-1.0,-5.0,0.0,-1.0,-5.0,-5.0,-2.0,-1.0,1651071547021319.0,0
1553,1.0,1.0,-2.0,-15.0,-8.0,-8.0,-2.0,-1.0,1651071547021319.0,0
1554,-1.0,1.0,-1.0,38.0,10.0,3.0,-1.0,-1.0,1651071547041780.0,0
1555,-2.0,1.0,16.0,-10.0,-5.0,-7.0,-1.0,-1.0,1651071547041780.0,0
1556,-1.0,-3.0,-16.0,-9.0,-5.0,4.0,1.0,0.0,1651071547043730.0,0
1557,-1.0,0.0,1.0,-5.0,8.0,3.0,-3.0,-1.0,1651071547043730.0,0
1558,1.0,3.0,-4.0,-3.0,-6.0,-7.0,-1.0,1.0,1651071547056689.0,0
1559,-1.0,-5.0,1.0,11.0,-11.0,-1.0,-1.0,-2.0,1651071547056689.0,0
1560,0.0,2.0,7.0,-11.0,3.0,-2.0,2.0,1.0,1651071547058685.0,0
1561,-2.0,-6.0,-10.0,-1.0,-3.0,-2.0,0.0,-1.0,1651071547058685.0,0
1562,1.0,10.0,8.0,8.0,8.0,4.0,2.0,1.0,1651071547079689.0,0
1563,-3.0,-17.0,-20.0,7.0,8.0,4.0,-2.0,1.0,1651071547079689.0,0
1564,0.0,0.0,4.0,-5.0,-4.0,-2.0,-2.0,-1.0,1651071547080648.0,0
1565,-1.0,0.0,-4.0,2.0,-10.0,-8.0,-2.0,-1.0,1651071547080648.0,0
1566,1.0,-1.0,-4.0,-11.0,-7.0,4.0,1.0,0.0,1651071547093638.0,0
1567,0.0,2.0,18.0,0.0,-5.0,-6.0,-3.0,-2.0,1651071547093638.0,0
1568,-1.0,-2.0,2.0,25.0,3.0,-6.0,-2.0,-1.0,1651071547102642.0,0
1569,-3.0,0.0,12.0,-4.0,8.0,1.0,0.0,-1.0,1651071547102642.0,0
1570,-2.0,-5.0,-13.0,-15.0,-12.0,2.0,1.0,0.0,1651071547117319.0,0
1571,2.0,11.0,11.0,3.0,11.0,3.0,1.0,2.0,1651071547117319.0,0
1572,1.0,0.0,10.0,7.0,2.0,3.0,1.0,-2.0,1651071547118287.0,0
1573,-4.0,1.0,3.0,21.0,-3.0,-3.0,0.0,0.0,1651071547118287.0,0
1574,-2.0,-3.0,-7.0,-11.0,-7.0,-2.0,-2.0,-2.0,1651071547139375.0,0
1575,0.0,4.0,2.0,-5.0,2.0,-1.0,-3.0,-1.0,1651071547139375.0,0
1576,-2.0,3.0,4.0,9.0,-1.0,0.0,-2.0,0.0,1651071547141375.0,0
1577,0.0,-4.0,-10.0,2.0,-2.0,-5.0,-3.0,-3.0,1651071547141375.0,0
1578,2.0,1.0,-4.0,-4.0,-2.0,15.0,5.0,4.0,1651071547153434.0,0
1579,0.0,0.0,-17.0,-1.0,2.0,0.0,1.0,1.0,1651071547153434.0,0
1580,0.0,0.0,13.0,8.0,6.0,4.0,0.0,-1.0,1651071547162411.0,0
1581,0.0,-1.0,-4.0,-14.0,-10.0,-11.0,-5.0,-2.0,1651071547162411.0,0
1582,-1.0,-1.0,-3.0,-5.0,7.0,1.0,1.0,0.0,1651071547176761.0,0
1583,-1.0,4.0,31.0,18.0,-2.0,0.0,-1.0,-1.0,1651071547176761.0,0
1584,2.0,-2.0,0.0,1.0,-12.0,-4.0,1.0,1.0,1651071547178686.0,0
1585,-2.0,-8.0,-17.0,-4.0,6.0,0.0,-1.0,-1.0,1651071547178686.0,0
1586,-2.0,-4.0,0.0,-9.0,-8.0,-6.0,-5.0,-3.0,1651071547199978.0,0
1587,1.0,2.0,-4.0,-12.0,2.0,2.0,1.0,0.0,1651071547199978.0,0
1588,1.0,7.0,-9.0,-12.0,-1.0,-3.0,1.0,1.0,1651071547200978.0,0
1589,-2.0,-5.0,10.0,27.0,1.0,1.0,-1.0,-1.0,1651071547200978.0,0
1590,1.0,9.0,0.0,3.0,-1.0,-4.0,0.0,0.0,1651071547221697.0,0
1591,0.0,-7.0,-7.0,-3.0,2.0,3.0,-1.0,-1.0,1651071547221697.0,0
1592,-2.0,-2.0,-17.0,-21.0,-8.0,-6.0,-5.0,-2.0,1651071547223706.0,0
1593,0.0,3.0,-2.0,-13.0,1.0,4.0,1.0,0.0,1651071547223706.0,0
1594,-1.0,3.0,8.0,3.0,3.0,1.0,5.0,1.0,1651071547236726.0,0
1595,-1.0,-1.0,-7.0,10.0,-7.0,-6.0,0.0,-1.0,1651071547236726.0,0
1596,-1.0,-4.0,-9.0,0.0,11.0,11.0,2.0,1.0,1651071547238654.0,0
1597,1.0,9.0,23.0,2.0,-5.0,-2.0,-2.0,-2.0,1651071547238654.0,0
1598,0.0,-9.0,-17.0,3.0,8.0,-4.0,-3.0,-1.0,1651071547259818.0,0
1599,0.0,2.0,1.0,-23.0,-11.0,-4.0,-1.0,-1.0,1651071547259818.0,0
1600,-2.0,-6.0,-19.0,19.0,2.0,-5.0,-3.0,-2.0,1651071547260749.0,0
1601,1.0,2.0,5.0,13.0,5.0,3.0,0.0,-1.0,1651071547260749.0,0
1602,0.0,1.0,3.0,-10.0,-8.0,0.0,0.0,1.0,1651071547282431.0,0
1603,1.0,2.0,5.0,15.0,11.0,0.0,1.0,1.0,1651071547282431.0,0
1604,-1.0,-4.0,0.0,-22.0,-6.0,-4.0,-3.0,-2.0,1651071547283431.0,0
1605,-1.0,-8.0,-19.0,-16.0,-3.0,3.0,1.0,0.0,1651071547283431.0,0
1606,-1.0,-3.0,0.0,2.0,0.0,-3.0,-1.0,-1.0,1651071547296668.0,0
1607,-2.0,-1.0,-13.0,-7.0,-3.0,-2.0,-3.0,-1.0,1651071547296668.0,0
1608,-2.0,1.0,14.0,8.0,-1.0,0.0,0.0,-1.0,1651071547298666.0,0
1609,2.0,5.0,6.0,5.0,-3.0,-3.0,4.0,1.0,1651071547298666.0,0
1610,-2.0,-5.0,2.0,-5.0,5.0,3.0,-2.0,0.0,1651071547319764.0,0
1611,1.0,1.0,1.0,3.0,4.0,4.0,1.0,-1.0,1651071547319764.0,0
1612,0.0,1.0,6.0,10.0,1.0,-1.0,-1.0,-1.0,1651071547321718.0,0
1613,-1.0,0.0,-7.0,-14.0,-7.0,-6.0,-4.0,-2.0,1651071547321718.0,0
1614,-3.0,0.0,-1.0,-4.0,-9.0,-5.0,-3.0,-2.0,1651071547341882.0,0
1615,1.0,1.0,4.0,15.0,-4.0,-9.0,0.0,0.0,1651071547341882.0,0
1616,1.0,3.0,9.0,10.0,14.0,23.0,5.0,0.0,1651071547343899.0,0
1617,-3.0,-1.0,-3.0,-9.0,3.0,2.0,2.0,0.0,1651071547343899.0,0
1618,-2.0,-4.0,0.0,-9.0,-13.0,-10.0,-4.0,-2.0,1651071547355960.0,0
1619,-2.0,-2.0,-5.0,7.0,10.0,1.0,-2.0,-2.0,1651071547355960.0,0
1620,0.0,1.0,-8.0,-16.0,-12.0,-14.0,-4.0,0.0,1651071547362940.0,0
1621,-1.0,-6.0,-5.0,3.0,-1.0,0.0,-1.0,1.0,1651071547362940.0,0
1622,1.0,0.0,6.0,8.0,6.0,7.0,2.0,1.0,1651071547379910.0,0
1623,-2.0,0.0,2.0,-2.0,-3.0,0.0,-1.0,-1.0,1651071547379910.0,0
1624,-1.0,-1.0,3.0,5.0,2.0,-2.0,-2.0,-1.0,1651071547380910.0,0
1625,0.0,4.0,-2.0,-2.0,7.0,9.0,-1.0,0.0,1651071547380910.0,0
1626,-1.0,3.0,2.0,19.0,4.0,-5.0,-1.0,-2.0,1651071547401642.0,0
1627,-2.0,-6.0,-6.0,-36.0,-20.0,-4.0,0.0,1.0,1651071547401642.0,0
1628,0.0,1.0,7.0,16.0,-1.0,-4.0,-3.0,0.0,1651071547403673.0,0
1629,0.0,2.0,-2.0,-13.0,-2.0,-8.0,-3.0,0.0,1651071547403673.0,0
1630,1.0,1.0,9.0,0.0,3.0,9.0,4.0,1.0,1651071547416675.0,0
1631,-2.0,-3.0,-13.0,-1.0,-9.0,-8.0,-2.0,-2.0,1651071547416675.0,0
1632,-2.0,-2.0,-7.0,-6.0,6.0,8.0,1.0,0.0,1651071547431046.0,0
1633,-1.0,-2.0,3.0,8.0,4.0,-4.0,1.0,-1.0,1651071547431046.0,0
1634,0.0,0.0,1.0,5.0,1.0,5.0,-2.0,-2.0,1651071547439421.0,0
1635,0.0,2.0,-4.0,-19.0,-4.0,-1.0,0.0,0.0,1651071547439421.0,0
1636,-2.0,-4.0,3.0,9.0,-3.0,-6.0,-2.0,-2.0,1651071547441356.0,0
1637,0.0,0.0,4.0,7.0,-4.0,-6.0,-5.0,-1.0,1651071547441356.0,0
1638,-2.0,-1.0,-1.0,0.0,-1.0,-4.0,0.0,-3.0,1651071547462546.0,0
1639,1.0,1.0,-1.0,2.0,2.0,7.0,4.0,0.0,1651071547462546.0,0
1640,2.0,2.0,-4.0,-3.0,7.0,5.0,2.0,1.0,1651071547463489.0,0
1641,-1.0,0.0,3.0,-1.0,0.0,3.0,0.0,2.0,1651071547463489.0,0
1642,0.0,0.0,-2.0,-8.0,-6.0,-5.0,-3.0,0.0,1651071547476427.0,0
1643,-1.0,-4.0,-1.0,6.0,4.0,-1.0,0.0,0.0,1651071547476427.0,0
1644,-1.0,-2.0,-3.0,-5.0,-2.0,-4.0,0.0,-2.0,1651071547483578.0,0
1645,-1.0,1.0,2.0,8.0,0.0,-8.0,-4.0,-1.0,1651071547483578.0,0
1646,-1.0,-6.0,-9.0,-13.0,-3.0,2.0,0.0,-1.0,1651071547499418.0,0
1647,-1.0,2.0,-3.0,2.0,5.0,4.0,0.0,0.0,1651071547499418.0,0
1648,0.0,-1.0,8.0,5.0,-3.0,-1.0,2.0,0.0,1651071547501345.0,0
1649,1.0,-2.0,3.0,-3.0,-7.0,0.0,1.0,-1.0,1651071547501345.0,0
1650,2.0,2.0,-1.0,10.0,7.0,-2.0,-2.0,0.0,1651071547521591.0,0
1651,-2.0,-4.0,-9.0,-16.0,1.0,-10.0,-3.0,-1.0,1651071547521591.0,0
1652,-1.0,1.0,2.0,-2.0,-6.0,4.0,0.0,-3.0,1651071547523588.0,0
1653,0.0,0.0,-1.0,-3.0,6.0,11.0,1.0,0.0,1651071547523588.0,0
1654,-2.0,-1.0,2.0,9.0,-1.0,-6.0,-2.0,-1.0,1651071547536787.0,0
1655,2.0,1.0,6.0,2.0,-1.0,0.0,-1.0,1.0,1651071547536787.0,0
1656,1.0,0.0,-4.0,0.0,4.0,-7.0,-1.0,0.0,1651071547542733.0,0
1657,-1.0,1.0,-4.0,-8.0,5.0,0.0,-1.0,-2.0,1651071547542733.0,0
1658,0.0,-4.0,-6.0,-14.0,-16.0,2.0,2.0,0.0,1651071547559152.0,0
1659,-1.0,3.0,12.0,14.0,3.0,4.0,1.0,0.0,1651071547559152.0,0
1660,0.0,-1.0,10.0,6.0,-3.0,-6.0,-2.0,0.0,1651071547561080.0,0
1661,0.0,-1.0,-3.0,-2.0,-1.0,-1.0,2.0,-1.0,1651071547561080.0,0
1662,0.0,1.0,2.0,-2.0,8.0,-5.0,-3.0,-1.0,1651071547582177.0,0
1663,-1.0,-1.0,-4.0,1.0,1.0,8.0,0.0,0.0,1651071547582177.0,0
1664,0.0,3.0,9.0,-7.0,-1.0,0.0,1.0,1.0,1651071547583133.0,0
1665,-1.0,-7.0,-11.0,3.0,2.0,2.0,-1.0,-1.0,1651071547583133.0,0
1666,-2.0,-6.0,-12.0,-10.0,-7.0,-10.0,-3.0,0.0,1651071547596379.0,0
1667,-1.0,0.0,-1.0,4.0,-9.0,-8.0,-4.0,-3.0,1651071547596379.0,0
1668,2.0,8.0,2.0,-4.0,9.0,7.0,4.0,2.0,1651071547603235.0,0
1669,-1.0,-7.0,5.0,7.0,1.0,3.0,1.0,0.0,1651071547603235.0,0
1670,-1.0,-2.0,-7.0,-1.0,3.0,1.0,0.0,-1.0,1651071547619692.0,0
1671,-1.0,-2.0,2.0,6.0,2.0,0.0,-3.0,0.0,1651071547619692.0,0
1672,-2.0,-6.0,-10.0,-20.0,-10.0,-15.0,-4.0,0.0,1651071547620718.0,0
1673,-2.0,1.0,1.0,4.0,3.0,12.0,1.0,1.0,1651071547620718.0,0
1674,1.0,1.0,6.0,6.0,4.0,4.0,3.0,0.0,1651071547641989.0,0
1675,-1.0,0.0,-4.0,4.0,8.0,6.0,0.0,-1.0,1651071547641989.0,0
1676,0.0,-1.0,-8.0,-13.0,-7.0,-10.0,-4.0,-4.0,1651071547643937.0,0
1677,0.0,-6.0,-18.0,-10.0,-4.0,7.0,5.0,2.0,1651071547643937.0,0
1678,0.0,2.0,18.0,13.0,7.0,2.0,-1.0,0.0,1651071547655952.0,0
1679,1.0,2.0,8.0,-4.0,-1.0,-2.0,1.0,-1.0,1651071547655952.0,0
1680,-3.0,-6.0,-11.0,-8.0,-15.0,-4.0,-4.0,0.0,1651071547663046.0,0
1681,2.0,4.0,15.0,8.0,2.0,-7.0,-4.0,-1.0,1651071547663046.0,0
1682,-2.0,-8.0,-13.0,-15.0,-5.0,1.0,-2.0,-1.0,1651071547679187.0,0
1683,1.0,0.0,-10.0,-6.0,-7.0,-3.0,1.0,0.0,1651071547679187.0,0
1684,-1.0,0.0,6.0,18.0,7.0,6.0,2.0,0.0,1651071547681116.0,0
1685,0.0,2.0,-2.0,-7.0,0.0,-2.0,-3.0,0.0,1651071547681116.0,0
1686,0.0,5.0,5.0,7.0,3.0,-7.0,-3.0,1.0,1651071547701129.0,0
1687,1.0,0.0,4.0,4.0,7.0,5.0,2.0,0.0,1651071547701129.0,0
1688,-2.0,-3.0,-10.0,-9.0,-5.0,3.0,0.0,-1.0,1651071547710038.0,0
1689,-1.0,-2.0,8.0,4.0,-4.0,-2.0,1.0,-2.0,1651071547710038.0,0
1690,-2.0,2.0,-7.0,1.0,2.0,0.0,-1.0,-1.0,1651071547716064.0,0
1691,-1.0,-2.0,-9.0,4.0,0.0,-2.0,-1.0,-1.0,1651071547716064.0,0
1692,-1.0,4.0,18.0,2.0,-3.0,1.0,0.0,0.0,1651071547724998.0,0
1693,-2.0,-8.0,-20.0,0.0,-4.0,-9.0,-2.0,-2.0,1651071547724998.0,0
1694,-2.0,2.0,-12.0,-15.0,1.0,3.0,0.0,-1.0,1651071547739956.0,0
1695,1.0,4.0,11.0,5.0,3.0,6.0,-1.0,0.0,1651071547739956.0,0
1696,-1.0,-1.0,5.0,16.0,5.0,0.0,0.0,-2.0,1651071547740956.0,0
1697,2.0,1.0,7.0,-6.0,-3.0,-3.0,0.0,1.0,1651071547740956.0,0
1698,-1.0,0.0,2.0,-7.0,-9.0,-17.0,-5.0,-1.0,1651071547761683.0,0
1699,-1.0,-1.0,-17.0,-13.0,-3.0,12.0,7.0,2.0,1651071547761683.0,0
1700,1.0,3.0,7.0,18.0,9.0,13.0,3.0,-1.0,1651071547763707.0,0
1701,-2.0,1.0,7.0,-2.0,-5.0,-3.0,-1.0,0.0,1651071547763707.0,0
1702,0.0,1.0,1.0,5.0,2.0,1.0,1.0,0.0,1651071547775710.0,0
1703,-1.0,1.0,2.0,-1.0,-1.0,-7.0,-4.0,-1.0,1651071547775710.0,0
1704,-1.0,-8.0,-5.0,-13.0,-1.0,-3.0,-2.0,0.0,1651071547784449.0,0
1705,-1.0,-2.0,1.0,7.0,3.0,1.0,-1.0,-2.0,1651071547784449.0,0
1706,0.0,1.0,-1.0,-5.0,-2.0,2.0,3.0,0.0,1651071547799731.0,0
1707,1.0,1.0,22.0,-4.0,-3.0,-5.0,-2.0,-2.0,1651071547799731.0,0
1708,-1.0,0.0,-22.0,2.0,2.0,-1.0,-1.0,-1.0,1651071547800684.0,0
1709,0.0,5.0,-4.0,5.0,2.0,3.0,0.0,0.0,1651071547800684.0,0
1710,-3.0,-13.0,-1.0,-4.0,-4.0,0.0,-2.0,-2.0,1651071547829579.0,0
1711,1.0,0.0,3.0,4.0,3.0,0.0,-1.0,0.0,1651071547829579.0,0
1712,1.0,11.0,22.0,-4.0,-2.0,3.0,3.0,0.0,1651071547831508.0,0
1713,-2.0,-6.0,-23.0,-16.0,-5.0,-6.0,-4.0,-2.0,1651071547831508.0,0
1714,2.0,3.0,14.0,11.0,-1.0,2.0,1.0,1.0,1651071547835497.0,0
1715,-2.0,-11.0,-7.0,-3.0,-4.0,-4.0,-3.0,-3.0,1651071547835497.0,0
1716,1.0,-1.0,0.0,1.0,-1.0,-4.0,1.0,2.0,1651071547844473.0,0
1717,0.0,7.0,12.0,18.0,1.0,1.0,1.0,-1.0,1651071547844473.0,0
1718,2.0,10.0,4.0,-23.0,-3.0,-1.0,0.0,0.0,1651071547859602.0,0
1719,-3.0,-4.0,5.0,9.0,8.0,4.0,-3.0,-2.0,1651071547859602.0,0
1720,0.0,-1.0,-3.0,-14.0,-11.0,-2.0,-1.0,1.0,1651071547861532.0,0
1721,0.0,1.0,2.0,9.0,3.0,-1.0,2.0,1.0,1651071547861532.0,0
1722,-1.0,-9.0,-24.0,-4.0,2.0,7.0,1.0,-1.0,1651071547882427.0,0
1723,-2.0,-3.0,-5.0,-11.0,-2.0,-6.0,-2.0,1.0,1651071547882427.0,0
1724,-1.0,3.0,0.0,8.0,4.0,3.0,-1.0,-1.0,1651071547883427.0,0
1725,0.0,-3.0,0.0,-6.0,-5.0,-6.0,-2.0,0.0,1651071547883427.0,0
1726,-3.0,-4.0,-3.0,5.0,1.0,-8.0,-4.0,-4.0,1651071547895396.0,0
1727,1.0,3.0,-3.0,1.0,0.0,4.0,2.0,0.0,1651071547895396.0,0
1728,-2.0,3.0,-7.0,-16.0,1.0,0.0,0.0,-1.0,1651071547904286.0,0
1729,0.0,-12.0,1.0,5.0,-5.0,-3.0,-3.0,1.0,1651071547904286.0,0
1730,0.0,1.0,-5.0,7.0,2.0,2.0,0.0,0.0,1651071547919401.0,0
1731,-1.0,0.0,1.0,0.0,-6.0,-4.0,0.0,-3.0,1651071547919401.0,0
1732,0.0,-2.0,5.0,10.0,5.0,0.0,-2.0,-1.0,1651071547921396.0,0
1733,1.0,2.0,-5.0,-15.0,-5.0,1.0,1.0,1.0,1651071547921396.0,0
1734,-1.0,0.0,12.0,15.0,4.0,3.0,0.0,1.0,1651071547941645.0,0
1735,2.0,4.0,-6.0,-8.0,-9.0,-3.0,1.0,2.0,1651071547941645.0,0
1736,0.0,-9.0,-11.0,11.0,7.0,1.0,-1.0,0.0,1651071547943606.0,0
1737,-1.0,4.0,9.0,-2.0,1.0,0.0,-1.0,-1.0,1651071547943606.0,0
1738,1.0,-2.0,-1.0,-4.0,-3.0,-5.0,0.0,1.0,1651071547955640.0,0
1739,-1.0,3.0,3.0,3.0,7.0,8.0,1.0,-1.0,1651071547955640.0,0
1740,-3.0,-12.0,-14.0,6.0,-11.0,-13.0,-3.0,-1.0,1651071547964656.0,0
1741,-1.0,1.0,-7.0,-3.0,2.0,9.0,-2.0,-1.0,1651071547964656.0,0
1742,-2.0,5.0,5.0,-4.0,2.0,1.0,2.0,-1.0,1651071547979805.0,0
1743,0.0,-3.0,-3.0,-9.0,-4.0,-6.0,-1.0,-1.0,1651071547979805.0,0
1744,2.0,8.0,9.0,-1.0,0.0,2.0,-1.0,0.0,1651071547985792.0,0
1745,-2.0,0.0,5.0,6.0,-1.0,-13.0,0.0,-2.0,1651071547985792.0,0
1746,1.0,-3.0,-11.0,-5.0,-2.0,11.0,0.0,0.0,1651071548002405.0,0
1747,-1.0,2.0,3.0,9.0,1.0,0.0,-2.0,-1.0,1651071548002405.0,0
1748,0.0,-5.0,-5.0,-10.0,0.0,0.0,2.0,-1.0,1651071548004396.0,0
1749,-2.0,-2.0,-17.0,-4.0,-7.0,-7.0,-6.0,-2.0,1651071548004396.0,0
1750,-2.0,-2.0,17.0,23.0,2.0,-3.0,-1.0,-2.0,1651071548015377.0,0
1751,0.0,0.0,-4.0,-7.0,3.0,5.0,2.0,0.0,1651071548015377.0,0
1752,0.0,2.0,-1.0,-1.0,-1.0,3.0,1.0,1.0,1651071548024365.0,0
1753,-1.0,2.0,4.0,-17.0,-2.0,2.0,0.0,0.0,1651071548024365.0,0
1754,1.0,-1.0,-5.0,1.0,1.0,-4.0,-3.0,-1.0,1651071548039394.0,0
1755,-1.0,-1.0,-2.0,0.0,-3.0,-4.0,0.0,0.0,1651071548039394.0,0
1756,-1.0,-2.0,-5.0,-9.0,-1.0,-1.0,-1.0,0.0,1651071548041350.0,0
1757,1.0,8.0,13.0,9.0,5.0,4.0,1.0,1.0,1651071548041350.0,0
1758,-1.0,-6.0,-25.0,-10.0,-9.0,-5.0,-1.0,1.0,1651071548061552.0,0
1759,-1.0,1.0,18.0,6.0,6.0,1.0,-1.0,-1.0,1651071548061552.0,0
1760,1.0,0.0,-3.0,-11.0,-5.0,1.0,0.0,-2.0,1651071548063481.0,0
1761,2.0,11.0,23.0,39.0,0.0,-2.0,1.0,0.0,1651071548063481.0,0
1762,-3.0,-15.0,-30.0,-31.0,0.0,6.0,0.0,-1.0,1651071548075515.0,0
1763,0.0,-2.0,-2.0,-2.0,-4.0,-4.0,-1.0,1.0,1651071548075515.0,0
1764,-2.0,-4.0,2.0,-2.0,-1.0,-8.0,-3.0,-1.0,1651071548084282.0,0
1765,-1.0,-1.0,-2.0,-1.0,4.0,11.0,1.0,0.0,1651071548084282.0,0
1766,3.0,7.0,18.0,12.0,0.0,-2.0,4.0,1.0,1651071548099928.0,0
1767,-1.0,-2.0,-5.0,-2.0,-2.0,3.0,-1.0,0.0,1651071548099928.0,0
1768,-1.0,0.0,-4.0,0.0,-1.0,-4.0,-1.0,-3.0,1651071548100932.0,0
1769,0.0,-3.0,-6.0,-7.0,-2.0,-6.0,-2.0,-1.0,1651071548100932.0,0
1770,-1.0,5.0,9.0,-2.0,0.0,-2.0,-1.0,1.0,1651071548122409.0,0
1771,-2.0,-2.0,-13.0,-6.0,-3.0,2.0,-3.0,-3.0,1651071548122409.0,0
1772,0.0,3.0,8.0,12.0,1.0,1.0,0.0,0.0,1651071548123340.0,0
1773,-2.0,-5.0,-7.0,-8.0,1.0,-1.0,1.0,-1.0,1651071548123340.0,0
1774,-1.0,2.0,4.0,1.0,-2.0,1.0,0.0,0.0,1651071548143424.0,0
1775,0.0,1.0,-1.0,6.0,-5.0,-14.0,-3.0,-1.0,1651071548143424.0,0
1776,-1.0,-2.0,0.0,5.0,4.0,10.0,-1.0,-1.0,1651071548152427.0,0
1777,1.0,-3.0,-8.0,-15.0,1.0,2.0,1.0,-3.0,1651071548152427.0,0
1778,0.0,1.0,8.0,9.0,-4.0,-5.0,0.0,-2.0,1651071548159382.0,0
1779,-2.0,-2.0,-13.0,-8.0,-2.0,4.0,2.0,1.0,1651071548159382.0,0
1780,-1.0,0.0,7.0,2.0,-3.0,-9.0,-2.0,-2.0,1651071548161403.0,0
1781,-3.0,-11.0,-18.0,-10.0,-3.0,2.0,-2.0,-3.0,1651071548161403.0,0
1782,-1.0,1.0,24.0,25.0,3.0,-1.0,-1.0,0.0,1651071548182483.0,0
1783,0.0,0.0,-2.0,-8.0,2.0,1.0,-1.0,1.0,1651071548182483.0,0
1784,-1.0,-2.0,-7.0,2.0,3.0,4.0,0.0,0.0,1651071548183492.0,0
1785,1.0,7.0,13.0,7.0,0.0,-1.0,1.0,1.0,1651071548183492.0,0
1786,0.0,0.0,2.0,-29.0,-4.0,-1.0,0.0,-1.0,1651071548204825.0,0
1787,-2.0,-1.0,-12.0,6.0,-6.0,-4.0,-2.0,-4.0,1651071548204825.0,0
1788,-1.0,-6.0,-2.0,-4.0,-1.0,-4.0,1.0,0.0,1651071548205825.0,0
1789,1.0,-1.0,0.0,-10.0,2.0,-5.0,-2.0,1.0,1651071548205825.0,0
1790,0.0,2.0,4.0,7.0,1.0,7.0,2.0,-1.0,1651071548219301.0,0
1791,0.0,3.0,5.0,0.0,3.0,3.0,0.0,1.0,1651071548219301.0,0
1792,2.0,1.0,-7.0,-8.0,-8.0,0.0,-1.0,-1.0,1651071548221298.0,0
1793,-2.0,0.0,2.0,9.0,3.0,-2.0,-1.0,-1.0,1651071548221298.0,0
1794,-1.0,-2.0,-7.0,-4.0,-2.0,-4.0,-3.0,-1.0,1651071548242422.0,0
1795,0.0,2.0,6.0,11.0,3.0,-6.0,-1.0,-2.0,1651071548242422.0,0
1796,-1.0,-6.0,-9.0,-7.0,-2.0,1.0,0.0,-2.0,1651071548243448.0,0
1797,0.0,-5.0,0.0,10.0,1.0,-4.0,0.0,2.0,1651071548243448.0,0
1798,-2.0,1.0,1.0,2.0,0.0,-1.0,0.0,-1.0,1651071548264527.0,0
1799,2.0,-5.0,4.0,4.0,0.0,12.0,1.0,-1.0,1651071548264527.0,0
1800,0.0,0.0,-10.0,-23.0,-2.0,-1.0,1.0,1.0,1651071548266524.0,0
1801,1.0,2.0,5.0,5.0,0.0,0.0,0.0,1.0,1651071548266524.0,0
1802,0.0,1.0,-8.0,5.0,1.0,-3.0,-2.0,0.0,1651071548279932.0,0
1803,-1.0,-2.0,13.0,2.0,-4.0,-7.0,-2.0,0.0,1651071548279932.0,0
1804,1.0,1.0,-10.0,1.0,-2.0,-1.0,-2.0,-1.0,1651071548280942.0,0
1805,-2.0,2.0,2.0,2.0,-1.0,1.0,1.0,-2.0,1651071548280942.0,0
1806,1.0,0.0,-4.0,4.0,2.0,4.0,1.0,3.0,1651071548302504.0,0
1807,-2.0,0.0,5.0,-4.0,2.0,0.0,-1.0,-2.0,1651071548302504.0,0
1808,1.0,2.0,-1.0,3.0,-3.0,-2.0,-1.0,0.0,1651071548303503.0,0
1809,0.0,-2.0,-1.0,-7.0,0.0,1.0,-1.0,0.0,1651071548303503.0,0
1810,-1.0,-2.0,5.0,7.0,-1.0,-7.0,-7.0,-2.0,1651071548324597.0,0
1811,0.0,-2.0,2.0,0.0,-2.0,4.0,5.0,0.0,1651071548324597.0,0
1812,-2.0,0.0,2.0,7.0,-5.0,-3.0,-1.0,0.0,1651071548325624.0,0
1813,-2.0,-3.0,-5.0,-7.0,4.0,7.0,0.0,-1.0,1651071548325624.0,0
1814,1.0,1.0,-4.0,-8.0,1.0,5.0,2.0,0.0,1651071548338677.0,0
1815,-1.0,-6.0,-16.0,-8.0,-2.0,-7.0,-3.0,0.0,1651071548338677.0,0
1816,-1.0,2.0,6.0,3.0,-1.0,-5.0,-3.0,-1.0,1651071548345697.0,0
1817,0.0,4.0,10.0,-1.0,-7.0,-1.0,-1.0,0.0,1651071548345697.0,0
1818,-2.0,-8.0,-21.0,-15.0,-1.0,-5.0,-2.0,-2.0,1651071548362504.0,0
1819,2.0,10.0,36.0,19.0,11.0,12.0,2.0,2.0,1651071548362504.0,0
1820,-2.0,-9.0,-24.0,-7.0,0.0,1.0,-1.0,1.0,1651071548363508.0,0
1821,0.0,-1.0,1.0,1.0,-1.0,1.0,0.0,-1.0,1651071548363508.0,0
1822,0.0,-1.0,-3.0,-15.0,-6.0,-9.0,-1.0,1.0,1651071548384717.0,0
1823,-1.0,3.0,1.0,13.0,-4.0,2.0,-1.0,1.0,1651071548384717.0,0
1824,1.0,1.0,9.0,7.0,5.0,7.0,1.0,0.0,1651071548385718.0,0
1825,0.0,-1.0,-1.0,-4.0,1.0,0.0,0.0,-1.0,1651071548385718.0,0
1826,1.0,1.0,-8.0,-10.0,-4.0,0.0,-3.0,-3.0,1651071548399171.0,0
1827,-1.0,-5.0,-12.0,-13.0,-7.0,-10.0,2.0,-1.0,1651071548399171.0,0
1828,-1.0,3.0,5.0,-2.0,-5.0,-1.0,-1.0,-1.0,1651071548406168.0,0
1829,-1.0,0.0,-2.0,0.0,9.0,3.0,1.0,-1.0,1651071548406168.0,0
1830,-1.0,-3.0,0.0,12.0,4.0,3.0,0.0,-2.0,1651071548422283.0,0
1831,-1.0,-2.0,-9.0,7.0,4.0,0.0,-1.0,-1.0,1651071548422283.0,0
1832,0.0,1.0,7.0,-2.0,-6.0,-6.0,-4.0,-2.0,1651071548423227.0,0
1833,0.0,-6.0,-8.0,-10.0,-4.0,2.0,3.0,0.0,1651071548423227.0,0
1834,0.0,0.0,6.0,4.0,-3.0,-2.0,1.0,-1.0,1651071548444219.0,0
1835,0.0,2.0,-4.0,-4.0,2.0,-4.0,-2.0,0.0,1651071548444219.0,0
1836,-1.0,1.0,8.0,-2.0,2.0,10.0,0.0,-1.0,1651071548446148.0,0
1837,0.0,1.0,-3.0,7.0,0.0,-3.0,0.0,1.0,1651071548446148.0,0
1838,-2.0,-6.0,-3.0,-4.0,-4.0,2.0,1.0,0.0,1651071548459189.0,0
1839,-2.0,-4.0,-5.0,-3.0,-6.0,-7.0,-3.0,-3.0,1651071548459189.0,0
1840,1.0,2.0,5.0,8.0,3.0,-4.0,1.0,-1.0,1651071548465241.0,0
1841,0.0,-1.0,-2.0,-10.0,-3.0,0.0,0.0,0.0,1651071548465241.0,0
1842,1.0,4.0,5.0,9.0,0.0,-1.0,1.0,0.0,1651071548482342.0,0
1843,0.0,-1.0,-8.0,-2.0,-3.0,-4.0,-1.0,0.0,1651071548482342.0,0
1844,-2.0,-2.0,2.0,-10.0,4.0,11.0,0.0,0.0,1651071548483279.0,0
1845,1.0,2.0,1.0,1.0,2.0,1.0,0.0,-1.0,1651071548483279.0,0
1846,-2.0,0.0,1.0,6.0,1.0,-1.0,-1.0,0.0,1651071548504094.0,0
1847,-1.0,1.0,-1.0,-9.0,-7.0,-5.0,-3.0,0.0,1651071548504094.0,0
1848,0.0,0.0,5.0,30.0,11.0,-3.0,0.0,0.0,1651071548506089.0,0
1849,-2.0,-2.0,-2.0,-2.0,-3.0,0.0,-2.0,-2.0,1651071548506089.0,0
1850,0.0,3.0,5.0,-1.0,4.0,8.0,4.0,1.0,1651071548519121.0,0
1851,-1.0,-3.0,-4.0,-3.0,-2.0,1.0,-2.0,0.0,1651071548519121.0,0
1852,-2.0,-3.0,-6.0,-8.0,-6.0,-2.0,1.0,0.0,1651071548526045.0,0
1853,-4.0,0.0,1.0,7.0,-4.0,-15.0,-7.0,-2.0,1651071548526045.0,0
1854,0.0,1.0,-1.0,-8.0,-5.0,1.0,5.0,1.0,1651071548542498.0,0
1855,-2.0,-2.0,-5.0,-11.0,-3.0,7.0,1.0,0.0,1651071548542498.0,0
1856,-2.0,-4.0,4.0,13.0,7.0,2.0,0.0,-1.0,1651071548543488.0,0
1857,1.0,2.0,3.0,4.0,3.0,2.0,-3.0,-3.0,1651071548543488.0,0
1858,-1.0,3.0,5.0,-2.0,-1.0,-4.0,-5.0,0.0,1651071548564579.0,0
1859,1.0,0.0,-3.0,-18.0,-4.0,-5.0,0.0,1.0,1651071548564579.0,0
1860,1.0,1.0,5.0,25.0,-4.0,-4.0,-1.0,1.0,1651071548565605.0,0
1861,-2.0,1.0,5.0,-7.0,-3.0,-1.0,-1.0,0.0,1651071548565605.0,0
1862,-2.0,-5.0,-22.0,-1.0,2.0,3.0,-2.0,0.0,1651071548579307.0,0
1863,-2.0,-4.0,13.0,6.0,0.0,-2.0,-1.0,-1.0,1651071548579307.0,0
1864,0.0,3.0,-2.0,-12.0,-4.0,-15.0,-3.0,-3.0,1651071548585360.0,0
1865,0.0,-4.0,9.0,8.0,5.0,19.0,3.0,0.0,1651071548585360.0,0
1866,1.0,-6.0,-27.0,-19.0,0.0,3.0,2.0,-1.0,1651071548601913.0,0
1867,1.0,2.0,1.0,5.0,1.0,-2.0,-2.0,0.0,1651071548601913.0,0
1868,-1.0,1.0,-1.0,-3.0,-7.0,-6.0,-2.0,-2.0,1651071548603841.0,0
1869,-2.0,-1.0,-9.0,0.0,-8.0,-8.0,0.0,-1.0,1651071548603841.0,0
1870,-1.0,-2.0,6.0,-12.0,-1.0,1.0,-1.0,-1.0,1651071548624023.0,0
1871,0.0,-1.0,-3.0,3.0,-3.0,-7.0,-3.0,-2.0,1651071548624023.0,0
1872,-1.0,1.0,7.0,9.0,7.0,2.0,3.0,3.0,1651071548626021.0,0
1873,0.0,0.0,-1.0,-3.0,2.0,11.0,1.0,0.0,1651071548626021.0,0
1874,-1.0,2.0,6.0,7.0,3.0,0.0,0.0,0.0,1651071548637990.0,0
1875,-1.0,1.0,-3.0,-1.0,3.0,0.0,0.0,-1.0,1651071548637990.0,0
1876,-3.0,-2.0,-4.0,-12.0,-4.0,-4.0,-2.0,0.0,1651071548646965.0,0
1877,-1.0,-2.0,-12.0,-13.0,-7.0,-4.0,0.0,1.0,1651071548646965.0,0
1878,1.0,3.0,19.0,26.0,-1.0,-2.0,-2.0,0.0,1651071548662443.0,0
1879,-2.0,-2.0,-3.0,-5.0,1.0,0.0,-2.0,-3.0,1651071548662443.0,0
1880,1.0,-4.0,1.0,15.0,-5.0,-1.0,-1.0,0.0,1651071548663457.0,0
1881,1.0,-1.0,-17.0,-17.0,5.0,0.0,0.0,0.0,1651071548663457.0,0
1882,1.0,-1.0,2.0,-2.0,-2.0,0.0,-1.0,-1.0,1651071548684590.0,0
1883,1.0,1.0,-3.0,-5.0,-1.0,2.0,2.0,0.0,1651071548684590.0,0
1884,-1.0,2.0,-2.0,-7.0,2.0,7.0,1.0,0.0,1651071548685590.0,0
1885,-2.0,-2.0,0.0,3.0,-4.0,-8.0,-1.0,-1.0,1651071548685590.0,0
1886,-1.0,3.0,11.0,2.0,0.0,-13.0,-4.0,-2.0,1651071548698585.0,0
1887,-1.0,-4.0,-5.0,1.0,1.0,0.0,-2.0,-2.0,1651071548698585.0,0
1888,-1.0,-3.0,12.0,-16.0,1.0,15.0,4.0,1.0,1651071548707533.0,0
1889,3.0,2.0,11.0,44.0,4.0,-2.0,0.0,0.0,1651071548707533.0,0
1890,-2.0,-3.0,2.0,-12.0,2.0,5.0,0.0,-1.0,1651071548721607.0,0
1891,0.0,-5.0,-14.0,4.0,-3.0,-2.0,0.0,-1.0,1651071548721607.0,0
1892,-1.0,1.0,-6.0,-16.0,-5.0,-7.0,-4.0,-3.0,1651071548723535.0,0
1893,-1.0,2.0,10.0,-9.0,-4.0,-5.0,-1.0,0.0,1651071548723535.0,0
1894,-3.0,-7.0,-11.0,14.0,-1.0,0.0,-1.0,0.0,1651071548744558.0,0
1895,-2.0,5.0,-4.0,-12.0,-1.0,-5.0,-2.0,-1.0,1651071548744558.0,0
1896,0.0,-2.0,-6.0,-4.0,5.0,6.0,1.0,1.0,1651071548745539.0,0
1897,0.0,-2.0,1.0,5.0,-6.0,-4.0,-1.0,-2.0,1651071548745539.0,0
1898,1.0,0.0,-3.0,-1.0,1.0,2.0,-3.0,-1.0,1651071548758568.0,0
1899,0.0,0.0,2.0,10.0,1.0,5.0,2.0,1.0,1651071548758568.0,0
1900,-1.0,-3.0,-15.0,-19.0,-3.0,-2.0,1.0,0.0,1651071548767480.0,0
1901,-2.0,-3.0,3.0,1.0,-6.0,-5.0,-3.0,-2.0,1651071548767480.0,0
1902,-4.0,-6.0,-7.0,-21.0,-8.0,-4.0,-3.0,-1.0,1651071548782429.0,0
1903,0.0,-1.0,-2.0,4.0,-3.0,-7.0,3.0,-1.0,1651071548782429.0,0
1904,0.0,4.0,7.0,11.0,9.0,12.0,1.0,-2.0,1651071548783429.0,0
1905,1.0,2.0,0.0,-1.0,7.0,4.0,0.0,1.0,1651071548783429.0,0
1906,0.0,1.0,1.0,1.0,-1.0,0.0,1.0,-2.0,1651071548804540.0,0
1907,1.0,-3.0,7.0,-1.0,-5.0,-8.0,-4.0,1.0,1651071548804540.0,0
1908,-3.0,-3.0,-5.0,1.0,-7.0,-6.0,-5.0,-2.0,1651071548806558.0,0
1909,0.0,-5.0,-12.0,-7.0,3.0,13.0,5.0,2.0,1651071548806558.0,0
1910,-2.0,0.0,0.0,0.0,2.0,-1.0,-2.0,-3.0,1651071548818572.0,0
1911,-1.0,0.0,16.0,17.0,0.0,5.0,1.0,1.0,1651071548818572.0,0
1912,0.0,0.0,-17.0,-14.0,-5.0,-18.0,-2.0,0.0,1651071548827483.0,0
1913,-4.0,-3.0,-5.0,4.0,7.0,1.0,-1.0,0.0,1651071548827483.0,0
1914,-2.0,1.0,-11.0,-6.0,2.0,8.0,2.0,0.0,1651071548841632.0,0
1915,-1.0,0.0,-2.0,-12.0,-3.0,-2.0,-1.0,-2.0,1651071548841632.0,0
1916,1.0,1.0,12.0,27.0,2.0,-1.0,-1.0,-1.0,1651071548843561.0,0
1917,0.0,1.0,-4.0,-8.0,-4.0,-6.0,-2.0,-2.0,1651071548843561.0,0
1918,1.0,3.0,8.0,2.0,1.0,-4.0,-1.0,0.0,1651071548864583.0,0
1919,-5.0,-9.0,-6.0,-7.0,-4.0,-8.0,-2.0,-1.0,1651071548864583.0,0
1920,-1.0,0.0,-4.0,-5.0,-5.0,8.0,2.0,-2.0,1651071548865610.0,0
1921,2.0,1.0,-1.0,0.0,7.0,4.0,1.0,-1.0,1651071548865610.0,0
1922,-2.0,0.0,3.0,-1.0,0.0,-1.0,-1.0,0.0,1651071548878548.0,0
1923,1.0,2.0,1.0,-7.0,8.0,6.0,0.0,-2.0,1651071548878548.0,0
1924,-1.0,0.0,2.0,13.0,-5.0,-7.0,-1.0,-2.0,1651071548887524.0,0
