,EMG_s0,EMG_s1,EMG_s2,EMG_s3,EMG_s4,EMG_s5,EMG_s6,EMG_s7,timestamp,signal
0,-2.0,-1.0,-1.0,-2.0,-2.0,-5.0,-2.0,-1.0,1650849543771407.0,0
1,0.0,0.0,0.0,0.0,-2.0,5.0,0.0,0.0,1650849543771407.0,0
2,-2.0,-1.0,0.0,-1.0,1.0,-21.0,-6.0,-2.0,1650849543779411.0,0
3,1.0,1.0,-1.0,1.0,2.0,33.0,9.0,1.0,1650849543779411.0,0
4,0.0,0.0,0.0,0.0,1.0,-16.0,-1.0,0.0,1650849543795342.0,0
5,1.0,0.0,-2.0,3.0,9.0,16.0,3.0,0.0,1650849543795342.0,0
6,1.0,-1.0,1.0,-2.0,-3.0,-6.0,0.0,-1.0,1650849543795342.0,0
7,-1.0,-1.0,0.0,-2.0,-12.0,-9.0,-2.0,0.0,1650849543795342.0,0
8,2.0,1.0,0.0,0.0,7.0,0.0,0.0,1.0,1650849543817309.0,0
9,-2.0,-1.0,-2.0,-2.0,-7.0,-11.0,-2.0,-2.0,1650849543817309.0,0
10,0.0,-1.0,-2.0,-2.0,6.0,2.0,-3.0,0.0,1650849543818280.0,0
11,0.0,0.0,0.0,0.0,-8.0,2.0,1.0,0.0,1650849543818280.0,0
12,1.0,1.0,-1.0,1.0,-6.0,-1.0,1.0,0.0,1650849543831272.0,0
13,-1.0,-1.0,1.0,5.0,8.0,1.0,1.0,0.0,1650849543831272.0,0
14,1.0,-1.0,-1.0,0.0,11.0,15.0,2.0,1.0,1650849543840286.0,0
15,-3.0,0.0,-1.0,-3.0,1.0,-13.0,-3.0,-1.0,1650849543840286.0,0
16,-1.0,-1.0,-2.0,0.0,-5.0,-8.0,-2.0,0.0,1650849543854584.0,0
17,-1.0,-2.0,-2.0,-3.0,-11.0,-3.0,-3.0,-2.0,1650849543854584.0,0
18,-1.0,0.0,2.0,0.0,2.0,-1.0,-2.0,-1.0,1650849543855696.0,0
19,-1.0,-1.0,1.0,1.0,-7.0,20.0,8.0,3.0,1650849543855696.0,0
20,-1.0,0.0,-1.0,1.0,17.0,9.0,2.0,0.0,1650849543877667.0,0
21,-1.0,-1.0,-2.0,-2.0,-5.0,-5.0,-1.0,0.0,1650849543877667.0,0
22,-3.0,0.0,-1.0,1.0,4.0,-9.0,-2.0,-1.0,1650849543877667.0,0
23,-1.0,-1.0,-2.0,-2.0,0.0,-9.0,-6.0,-1.0,1650849543877667.0,0
24,-1.0,-2.0,-2.0,-4.0,-11.0,-1.0,-3.0,1.0,1650849543891263.0,0
25,1.0,0.0,-1.0,-1.0,-8.0,-5.0,0.0,-1.0,1650849543891263.0,0
26,0.0,1.0,0.0,1.0,-5.0,11.0,5.0,-1.0,1650849543900241.0,0
27,0.0,0.0,1.0,1.0,4.0,-11.0,0.0,2.0,1650849543900241.0,0
28,0.0,0.0,1.0,2.0,10.0,14.0,1.0,1.0,1650849543915216.0,0
29,-2.0,-2.0,0.0,-1.0,-1.0,-9.0,-4.0,-1.0,1650849543915216.0,0
30,-1.0,-3.0,-3.0,-3.0,-9.0,-3.0,-1.0,-1.0,1650849543915216.0,0
31,0.0,-1.0,-2.0,-2.0,-8.0,-14.0,-5.0,-2.0,1650849543915216.0,0
32,-2.0,-1.0,-2.0,-1.0,0.0,5.0,0.0,-1.0,1650849543937198.0,0
33,0.0,-1.0,1.0,-1.0,3.0,11.0,1.0,0.0,1650849543937198.0,0
34,0.0,0.0,-2.0,-1.0,-1.0,-8.0,-3.0,-1.0,1650849543938161.0,0
35,0.0,0.0,-2.0,-1.0,0.0,7.0,6.0,2.0,1650849543938161.0,0
36,-1.0,-1.0,2.0,1.0,-6.0,-7.0,-2.0,-2.0,1650849543960097.0,0
37,1.0,-1.0,0.0,0.0,6.0,1.0,-1.0,0.0,1650849543960097.0,0
38,1.0,-2.0,0.0,-1.0,1.0,3.0,1.0,0.0,1650849543961067.0,0
39,-2.0,0.0,0.0,-1.0,-3.0,-8.0,-4.0,-1.0,1650849543961067.0,0
40,0.0,-1.0,0.0,-1.0,-4.0,0.0,1.0,1.0,1650849543975056.0,0
41,-2.0,0.0,-1.0,-3.0,-7.0,-4.0,0.0,-2.0,1650849543975056.0,0
42,-1.0,-1.0,-1.0,-3.0,-2.0,-3.0,-1.0,-1.0,1650849543976026.0,0
43,-1.0,-2.0,-1.0,-2.0,-11.0,-15.0,-4.0,-1.0,1650849543976026.0,0
44,1.0,1.0,1.0,3.0,10.0,28.0,6.0,2.0,1650849543997995.0,0
45,2.0,-1.0,0.0,4.0,4.0,1.0,2.0,1.0,1650849543997995.0,0
46,0.0,2.0,-1.0,0.0,3.0,1.0,-2.0,2.0,1650849543998965.0,0
47,-1.0,-2.0,1.0,-3.0,0.0,-2.0,-3.0,-3.0,1650849543998965.0,0
48,-1.0,-2.0,-3.0,-3.0,-12.0,-19.0,-3.0,-2.0,1650849544020906.0,0
49,-2.0,0.0,-3.0,0.0,0.0,-4.0,-2.0,-3.0,1650849544020906.0,0
50,-1.0,0.0,1.0,-2.0,-6.0,10.0,3.0,-2.0,1650849544020906.0,0
51,1.0,0.0,1.0,3.0,14.0,-8.0,-3.0,-1.0,1650849544020906.0,0
52,0.0,0.0,1.0,0.0,-1.0,14.0,5.0,0.0,1650849544034868.0,0
53,-1.0,2.0,-1.0,-2.0,-11.0,-10.0,-4.0,0.0,1650849544034868.0,0
54,1.0,-3.0,1.0,1.0,6.0,9.0,0.0,1.0,1650849544035876.0,0
55,1.0,0.0,0.0,2.0,4.0,7.0,1.0,0.0,1650849544035876.0,0
56,-1.0,-3.0,0.0,-1.0,0.0,-8.0,-4.0,-1.0,1650849544056912.0,0
57,-1.0,-2.0,-1.0,-3.0,-6.0,-13.0,-3.0,-2.0,1650849544056912.0,0
58,-1.0,0.0,0.0,0.0,0.0,14.0,2.0,-1.0,1650849544057912.0,0
59,-1.0,-1.0,-2.0,-2.0,1.0,-2.0,-3.0,-3.0,1650849544057912.0,0
60,0.0,-2.0,-1.0,-1.0,3.0,8.0,-3.0,-1.0,1650849544080879.0,0
61,-1.0,0.0,-1.0,-4.0,-11.0,-8.0,0.0,0.0,1650849544080879.0,0
62,-2.0,-1.0,-1.0,2.0,-5.0,-17.0,-6.0,-2.0,1650849544080879.0,0
63,1.0,1.0,1.0,4.0,24.0,35.0,7.0,2.0,1650849544080879.0,0
64,-1.0,0.0,-2.0,-3.0,-14.0,-16.0,-1.0,-1.0,1650849544094840.0,0
65,0.0,-1.0,-1.0,2.0,5.0,2.0,-2.0,-2.0,1650849544094840.0,0
66,0.0,-1.0,-2.0,-3.0,-9.0,-12.0,0.0,-1.0,1650849544095837.0,0
67,-1.0,0.0,1.0,-1.0,8.0,10.0,1.0,1.0,1650849544095837.0,0
68,0.0,-1.0,-2.0,-1.0,-4.0,-9.0,-3.0,-1.0,1650849544117779.0,0
69,0.0,0.0,0.0,-1.0,4.0,7.0,2.0,3.0,1650849544117779.0,0
70,-1.0,-2.0,-1.0,-2.0,-3.0,-4.0,-1.0,0.0,1650849544117779.0,0
71,-1.0,-1.0,0.0,-3.0,-16.0,-32.0,-7.0,-3.0,1650849544117779.0,0
72,0.0,1.0,-1.0,2.0,7.0,26.0,1.0,-1.0,1650849544140690.0,0
73,2.0,0.0,1.0,2.0,7.0,3.0,4.0,0.0,1650849544140690.0,0
74,-1.0,-1.0,-1.0,0.0,-9.0,-4.0,-2.0,0.0,1650849544141714.0,0
75,1.0,-1.0,-1.0,-1.0,9.0,3.0,-1.0,-1.0,1650849544141714.0,0
76,-1.0,-3.0,-1.0,-2.0,-8.0,-19.0,-4.0,0.0,1650849544154672.0,0
77,-1.0,-1.0,0.0,-1.0,6.0,5.0,0.0,-2.0,1650849544154672.0,0
78,-3.0,0.0,-1.0,0.0,3.0,1.0,2.0,1.0,1650849544155650.0,0
79,-2.0,-1.0,-2.0,-1.0,-4.0,-3.0,0.0,-1.0,1650849544155650.0,0
80,-1.0,1.0,0.0,-3.0,0.0,-5.0,1.0,-2.0,1650849544177612.0,0
81,-1.0,-1.0,1.0,0.0,-6.0,-9.0,-4.0,-2.0,1650849544177612.0,0
82,0.0,2.0,1.0,3.0,15.0,26.0,3.0,0.0,1650849544177612.0,0
83,-4.0,-1.0,-3.0,-6.0,-18.0,-21.0,-6.0,-1.0,1650849544177612.0,0
84,0.0,1.0,0.0,-1.0,3.0,28.0,5.0,2.0,1650849544200058.0,0
85,1.0,1.0,1.0,2.0,2.0,-2.0,3.0,1.0,1650849544200058.0,0
86,0.0,-1.0,-1.0,0.0,3.0,-11.0,-3.0,-1.0,1650849544201045.0,0
87,0.0,0.0,-2.0,-1.0,-4.0,0.0,-1.0,-2.0,1650849544201045.0,0
88,-1.0,-3.0,-1.0,-1.0,1.0,-10.0,-4.0,-3.0,1650849544214998.0,0
89,-2.0,-2.0,-5.0,-4.0,-6.0,-5.0,-4.0,-1.0,1650849544214998.0,0
90,0.0,-1.0,-3.0,-2.0,-9.0,-7.0,-1.0,-2.0,1650849544215995.0,0
91,1.0,0.0,0.0,2.0,5.0,12.0,4.0,1.0,1650849544215995.0,0
92,0.0,1.0,2.0,2.0,8.0,-8.0,1.0,0.0,1650849544237110.0,0
93,1.0,0.0,-2.0,-1.0,0.0,-1.0,0.0,-1.0,1650849544237110.0,0
94,-1.0,-2.0,0.0,-3.0,-11.0,-15.0,-5.0,-2.0,1650849544238040.0,0
95,1.0,1.0,-1.0,3.0,20.0,31.0,9.0,1.0,1650849544238040.0,0
96,-1.0,-1.0,-2.0,-6.0,-12.0,-22.0,-4.0,-2.0,1650849544261035.0,0
97,-1.0,-2.0,1.0,4.0,6.0,17.0,2.0,0.0,1650849544261035.0,0
98,0.0,-1.0,-2.0,1.0,1.0,-9.0,-2.0,1.0,1650849544261035.0,0
99,0.0,-2.0,-1.0,-2.0,-13.0,0.0,-5.0,-1.0,1650849544261035.0,0
100,-2.0,-1.0,-1.0,1.0,-2.0,-7.0,2.0,0.0,1650849544274996.0,0
101,-1.0,0.0,2.0,0.0,4.0,-1.0,-1.0,0.0,1650849544274996.0,0
102,1.0,-1.0,0.0,-1.0,-1.0,2.0,2.0,-1.0,1650849544275993.0,0
103,-1.0,0.0,1.0,-3.0,0.0,-8.0,-4.0,-1.0,1650849544275993.0,0
104,0.0,0.0,-2.0,-1.0,-2.0,2.0,-2.0,-1.0,1650849544297248.0,0
105,0.0,0.0,-2.0,-3.0,-17.0,-2.0,0.0,1.0,1650849544297248.0,0
106,0.0,1.0,0.0,2.0,12.0,12.0,3.0,2.0,1650849544298178.0,0
107,0.0,-2.0,1.0,1.0,-6.0,-9.0,-1.0,0.0,1650849544298178.0,0
108,-1.0,1.0,0.0,0.0,1.0,2.0,-2.0,-1.0,1650849544320601.0,0
109,0.0,0.0,-1.0,-3.0,-8.0,-31.0,-6.0,-2.0,1650849544320601.0,0
110,0.0,0.0,-1.0,1.0,11.0,55.0,8.0,0.0,1650849544321594.0,0
111,-1.0,-2.0,-1.0,-2.0,1.0,-4.0,0.0,0.0,1650849544321594.0,0
112,-2.0,-1.0,-1.0,-3.0,-8.0,-11.0,-4.0,-1.0,1650849544334586.0,0
113,0.0,-1.0,-1.0,-1.0,-17.0,-4.0,-1.0,-2.0,1650849544334586.0,0
114,-1.0,1.0,0.0,3.0,20.0,-11.0,-2.0,-3.0,1650849544335556.0,0
115,1.0,-1.0,0.0,-1.0,-2.0,0.0,-1.0,-1.0,1650849544335556.0,0
116,-1.0,1.0,-1.0,0.0,2.0,5.0,2.0,2.0,1650849544357564.0,0
117,-2.0,0.0,0.0,-2.0,2.0,0.0,-1.0,1.0,1650849544357564.0,0
118,-1.0,0.0,0.0,-4.0,-10.0,-12.0,0.0,-1.0,1650849544358515.0,0
119,-2.0,-1.0,0.0,-1.0,-8.0,1.0,0.0,-1.0,1650849544358515.0,0
120,2.0,0.0,-1.0,-1.0,11.0,-2.0,-2.0,-2.0,1650849544380659.0,0
121,-1.0,-1.0,0.0,-2.0,3.0,8.0,1.0,1.0,1650849544380659.0,0
122,0.0,-2.0,0.0,0.0,-7.0,-4.0,-1.0,1.0,1650849544381672.0,0
123,0.0,0.0,-1.0,2.0,1.0,-1.0,0.0,0.0,1650849544381672.0,0
124,2.0,-1.0,0.0,0.0,-11.0,-4.0,-2.0,-2.0,1650849544394790.0,0
125,0.0,-3.0,-2.0,3.0,7.0,5.0,1.0,1.0,1650849544394790.0,0
126,-1.0,1.0,-1.0,0.0,2.0,-1.0,-1.0,-1.0,1650849544395720.0,0
127,-1.0,0.0,0.0,-6.0,-9.0,-30.0,-6.0,-1.0,1650849544395720.0,0
128,-1.0,-2.0,-1.0,0.0,1.0,12.0,0.0,-1.0,1650849544416993.0,0
129,0.0,2.0,1.0,4.0,16.0,41.0,9.0,1.0,1650849544416993.0,0
130,-2.0,0.0,-1.0,-4.0,-6.0,-15.0,-4.0,0.0,1650849544417930.0,0
131,2.0,0.0,1.0,0.0,-7.0,0.0,-1.0,-1.0,1650849544417930.0,0
132,-1.0,-2.0,-1.0,-1.0,0.0,-13.0,-3.0,-1.0,1650849544439932.0,0
133,-1.0,-2.0,-1.0,0.0,1.0,-11.0,-3.0,-1.0,1650849544439932.0,0
134,-1.0,-1.0,-1.0,-1.0,-7.0,5.0,0.0,1.0,1650849544446874.0,0
135,-1.0,0.0,0.0,-1.0,1.0,4.0,0.0,-1.0,1650849544446874.0,0
136,0.0,-1.0,3.0,0.0,2.0,-1.0,-1.0,0.0,1650849544455278.0,0
137,0.0,0.0,-1.0,-1.0,2.0,6.0,1.0,-2.0,1650849544455278.0,0
138,2.0,-2.0,-1.0,-1.0,-1.0,-4.0,-2.0,-1.0,1650849544455866.0,0
139,-2.0,-1.0,-3.0,-2.0,-5.0,-25.0,-8.0,-3.0,1650849544455866.0,0
140,1.0,1.0,-1.0,3.0,7.0,46.0,5.0,0.0,1650849544476817.0,0
141,1.0,0.0,0.0,-3.0,-6.0,-14.0,0.0,-1.0,1650849544476817.0,0
142,0.0,1.0,0.0,-2.0,-8.0,-6.0,-1.0,-1.0,1650849544477810.0,0
143,-1.0,-1.0,1.0,-1.0,4.0,1.0,0.0,1.0,1650849544477810.0,0
144,-1.0,-1.0,-2.0,0.0,0.0,-16.0,-4.0,0.0,1650849544500875.0,0
145,-1.0,0.0,-1.0,-3.0,-4.0,-5.0,-4.0,0.0,1650849544500875.0,0
146,0.0,-1.0,0.0,-2.0,-5.0,0.0,0.0,-1.0,1650849544500875.0,0
147,-1.0,-1.0,0.0,1.0,13.0,9.0,2.0,0.0,1650849544500875.0,0
148,-2.0,-2.0,0.0,-1.0,-5.0,-6.0,1.0,-1.0,1650849544513840.0,0
149,0.0,-1.0,-3.0,-2.0,-14.0,-4.0,0.0,-1.0,1650849544513840.0,0
150,-1.0,1.0,0.0,3.0,7.0,3.0,1.0,0.0,1650849544522856.0,0
151,1.0,0.0,-1.0,1.0,3.0,6.0,0.0,0.0,1650849544522856.0,0
152,0.0,-1.0,-2.0,-2.0,0.0,-11.0,0.0,0.0,1650849544537749.0,0
153,-1.0,-3.0,0.0,1.0,6.0,22.0,1.0,0.0,1650849544537749.0,0
154,1.0,-1.0,0.0,-3.0,-5.0,-3.0,0.0,0.0,1650849544537749.0,0
155,-1.0,-1.0,-1.0,1.0,-6.0,-4.0,-3.0,1.0,1650849544537749.0,0
156,0.0,-1.0,-1.0,1.0,2.0,2.0,-2.0,-1.0,1650849544560805.0,0
157,-2.0,-1.0,0.0,-5.0,-4.0,-14.0,-4.0,-2.0,1650849544560805.0,0
158,-1.0,0.0,-3.0,2.0,-4.0,-3.0,-3.0,0.0,1650849544560805.0,0
159,0.0,-1.0,1.0,-2.0,3.0,11.0,3.0,-2.0,1650849544560805.0,0
160,0.0,-1.0,-2.0,-3.0,-7.0,-17.0,-2.0,-1.0,1650849544573869.0,0
161,-1.0,-1.0,-2.0,-1.0,-4.0,1.0,-2.0,-2.0,1650849544573869.0,0
162,0.0,1.0,-1.0,1.0,10.0,8.0,3.0,2.0,1650849544581849.0,0
163,1.0,0.0,-1.0,-1.0,1.0,0.0,0.0,-3.0,1650849544581849.0,0
164,0.0,0.0,0.0,1.0,8.0,7.0,1.0,1.0,1650849544597806.0,0
165,-1.0,-2.0,0.0,-1.0,-9.0,-17.0,-1.0,-2.0,1650849544597806.0,0
166,-1.0,-2.0,-1.0,0.0,6.0,12.0,1.0,-1.0,1650849544597806.0,0
167,0.0,-1.0,2.0,1.0,-2.0,2.0,3.0,2.0,1650849544597806.0,0
168,-1.0,1.0,3.0,0.0,-2.0,4.0,0.0,1.0,1650849544620745.0,0
169,1.0,1.0,0.0,0.0,8.0,9.0,2.0,1.0,1650849544620745.0,0
170,-2.0,0.0,-2.0,-4.0,-11.0,-22.0,-6.0,-3.0,1650849544621778.0,0
171,-2.0,-2.0,-4.0,-1.0,1.0,3.0,-1.0,-1.0,1650849544621778.0,0
172,0.0,-1.0,-2.0,-2.0,-5.0,-1.0,2.0,0.0,1650849544633738.0,0
173,0.0,0.0,0.0,1.0,-4.0,-7.0,-1.0,0.0,1650849544633738.0,0
174,-1.0,-2.0,-1.0,0.0,2.0,-7.0,-2.0,-2.0,1650849544642687.0,0
175,-2.0,1.0,-1.0,1.0,4.0,29.0,6.0,2.0,1650849544642687.0,0
176,-2.0,0.0,2.0,-4.0,-4.0,-7.0,-1.0,-2.0,1650849544657504.0,0
177,0.0,1.0,0.0,0.0,-9.0,-3.0,-6.0,-6.0,1650849544657504.0,0
178,1.0,-5.0,-1.0,3.0,11.0,7.0,9.0,8.0,1650849544658433.0,0
179,0.0,4.0,-4.0,-3.0,4.0,-6.0,-4.0,2.0,1650849544658433.0,0
180,-1.0,-1.0,-2.0,-3.0,-8.0,-6.0,3.0,5.0,1650849544680462.0,0
181,0.0,-1.0,0.0,3.0,6.0,7.0,2.0,-2.0,1650849544680462.0,0
182,0.0,3.0,3.0,5.0,0.0,6.0,-3.0,-4.0,1650849544681481.0,0
183,-5.0,0.0,-2.0,-12.0,-16.0,-23.0,-1.0,-3.0,1650849544681481.0,0
184,3.0,-9.0,-7.0,0.0,10.0,25.0,4.0,3.0,1650849544694452.0,0
185,-3.0,-4.0,-1.0,-1.0,-7.0,-15.0,-5.0,-2.0,1650849544694452.0,0
186,-3.0,4.0,3.0,1.0,4.0,2.0,-4.0,-5.0,1650849544702404.0,0
187,-1.0,-7.0,1.0,4.0,1.0,13.0,7.0,-2.0,1650849544702404.0,0
188,3.0,16.0,4.0,2.0,2.0,-5.0,-8.0,2.0,1650849544717392.0,0
189,3.0,4.0,-2.0,-3.0,4.0,7.0,2.0,0.0,1650849544717392.0,0
190,-3.0,-5.0,-1.0,-2.0,-10.0,-14.0,-2.0,-1.0,1650849544725388.0,0
191,-6.0,-9.0,-8.0,1.0,-2.0,-5.0,-14.0,-16.0,1650849544725388.0,0
192,-3.0,54.0,37.0,3.0,-3.0,1.0,-2.0,-14.0,1650849544740418.0,0
193,6.0,-42.0,-41.0,2.0,9.0,8.0,32.0,32.0,1650849544740418.0,0
194,13.0,31.0,4.0,-2.0,-3.0,-2.0,-3.0,7.0,1650849544741347.0,0
195,9.0,1.0,5.0,-4.0,-7.0,-11.0,14.0,14.0,1650849544741347.0,0
196,2.0,-13.0,-19.0,0.0,1.0,-11.0,-19.0,-7.0,1650849544754313.0,0
197,-10.0,5.0,11.0,-4.0,-8.0,-3.0,-10.0,-16.0,1650849544754313.0,0
198,-6.0,2.0,0.0,2.0,15.0,30.0,3.0,-6.0,1650849544762319.0,0
199,-6.0,-15.0,3.0,5.0,0.0,1.0,-1.0,-1.0,1650849544762319.0,0
200,1.0,-5.0,-18.0,-5.0,1.0,-11.0,-1.0,-3.0,1650849544777400.0,0
201,-3.0,11.0,20.0,3.0,4.0,-2.0,-1.0,-3.0,1650849544777400.0,0
202,-7.0,-23.0,-12.0,-8.0,-10.0,-9.0,-4.0,-4.0,1650849544778391.0,0
203,3.0,2.0,1.0,3.0,-1.0,-2.0,7.0,4.0,1650849544778391.0,0
204,6.0,16.0,22.0,6.0,-1.0,4.0,15.0,16.0,1650849544808357.0,0
205,-9.0,-45.0,-9.0,-9.0,-3.0,0.0,-17.0,-13.0,1650849544808357.0,0
206,-4.0,8.0,-22.0,-9.0,-6.0,2.0,-1.0,-6.0,1650849544808357.0,0
207,-7.0,-14.0,-7.0,2.0,0.0,-6.0,-19.0,-9.0,1650849544808357.0,0
208,17.0,26.0,12.0,17.0,6.0,-4.0,18.0,21.0,1650849544814295.0,0
209,11.0,10.0,10.0,5.0,5.0,3.0,24.0,27.0,1650849544814295.0,0
210,-11.0,-2.0,14.0,-3.0,-12.0,-5.0,-25.0,-21.0,1650849544822257.0,0
211,2.0,33.0,3.0,-6.0,4.0,-4.0,6.0,-10.0,1650849544822257.0,0
212,-8.0,-54.0,-26.0,-22.0,-8.0,18.0,10.0,11.0,1650849544837213.0,0
213,-14.0,26.0,11.0,8.0,1.0,-1.0,-17.0,-21.0,1650849544837213.0,0
214,11.0,-5.0,13.0,12.0,4.0,-21.0,-7.0,7.0,1650849544838212.0,0
215,-1.0,15.0,-23.0,-1.0,4.0,25.0,-13.0,-23.0,1650849544838212.0,0
216,-3.0,1.0,-1.0,-6.0,-10.0,-21.0,-1.0,-10.0,1650849544860151.0,0
217,-1.0,9.0,-23.0,-22.0,-19.0,-1.0,-2.0,7.0,1650849544860151.0,0
218,-16.0,-72.0,-10.0,3.0,8.0,5.0,-13.0,-2.0,1650849544861155.0,0
219,11.0,14.0,4.0,1.0,1.0,-5.0,9.0,6.0,1650849544861155.0,1
220,-10.0,-42.0,-5.0,-3.0,-1.0,-4.0,3.0,31.0,1650849544883201.0,1
221,14.0,35.0,15.0,8.0,6.0,9.0,4.0,-13.0,1650849544883201.0,1
222,-7.0,-18.0,-7.0,-3.0,-1.0,-5.0,2.0,-4.0,1650849544884171.0,1
223,4.0,48.0,27.0,6.0,1.0,2.0,4.0,-1.0,1650849544884171.0,1
224,-6.0,-26.0,-9.0,7.0,10.0,18.0,17.0,16.0,1650849544897135.0,1
225,-12.0,-10.0,0.0,3.0,7.0,0.0,-11.0,-35.0,1650849544897135.0,1
226,8.0,28.0,4.0,-8.0,-15.0,-25.0,-33.0,-11.0,1650849544898133.0,1
227,25.0,-21.0,-15.0,-4.0,-1.0,4.0,11.0,30.0,1650849544898133.0,1
228,-17.0,14.0,-1.0,-3.0,-9.0,-18.0,3.0,-8.0,1650849544919252.0,1
229,-2.0,-24.0,-1.0,-2.0,2.0,5.0,-11.0,6.0,1650849544919252.0,1
230,-28.0,23.0,14.0,-1.0,-3.0,0.0,11.0,-16.0,1650849544927270.0,1
231,20.0,44.0,-5.0,2.0,-2.0,1.0,1.0,15.0,1650849544927270.0,1
232,-11.0,-49.0,-19.0,-7.0,-10.0,-14.0,-31.0,-40.0,1650849544943228.0,1
233,15.0,12.0,7.0,8.0,9.0,-6.0,-1.0,31.0,1650849544943228.0,1
234,-14.0,-7.0,-5.0,-1.0,5.0,7.0,-27.0,-37.0,1650849544944186.0,1
235,-16.0,-10.0,4.0,3.0,-5.0,5.0,20.0,11.0,1650849544944186.0,1
236,-2.0,21.0,19.0,-1.0,-4.0,1.0,-13.0,-24.0,1650849544957190.0,1
237,0.0,-13.0,-10.0,-6.0,-1.0,-5.0,18.0,10.0,1650849544957190.0,1
238,28.0,17.0,6.0,4.0,-2.0,-7.0,30.0,49.0,1650849544958121.0,1
239,-23.0,-27.0,-9.0,-9.0,-2.0,-8.0,-24.0,-30.0,1650849544958121.0,1
240,-7.0,-53.0,-34.0,-3.0,-2.0,6.0,1.0,-6.0,1650849544980886.0,1
241,-5.0,6.0,0.0,-5.0,-3.0,-9.0,0.0,6.0,1650849544980886.0,1
242,15.0,-3.0,1.0,5.0,1.0,6.0,9.0,7.0,1650849544981883.0,1
243,0.0,2.0,12.0,10.0,9.0,2.0,-8.0,-6.0,1650849544981883.0,1
244,14.0,38.0,2.0,3.0,-1.0,7.0,25.0,25.0,1650849545002855.0,1
245,-9.0,18.0,6.0,-9.0,-12.0,-18.0,-20.0,-12.0,1650849545002855.0,1
246,3.0,2.0,1.0,0.0,7.0,29.0,16.0,3.0,1650849545003826.0,1
247,-11.0,-16.0,-6.0,-18.0,-16.0,-14.0,-7.0,-6.0,1650849545003826.0,1
248,-4.0,8.0,7.0,12.0,16.0,7.0,-31.0,-14.0,1650849545017787.0,1
249,8.0,7.0,21.0,18.0,17.0,5.0,22.0,-13.0,1650849545017787.0,1
250,9.0,-14.0,-15.0,-6.0,-5.0,2.0,-7.0,19.0,1650849545017787.0,1
251,-3.0,-31.0,-7.0,6.0,14.0,2.0,8.0,-11.0,1650849545017787.0,1
252,-5.0,32.0,14.0,2.0,-5.0,-12.0,-21.0,-17.0,1650849545047707.0,1
253,-14.0,-38.0,-15.0,-16.0,-10.0,3.0,-21.0,-28.0,1650849545047707.0,1
254,-12.0,8.0,-13.0,-1.0,0.0,3.0,18.0,16.0,1650849545048707.0,1
255,27.0,-1.0,24.0,8.0,4.0,-1.0,-2.0,25.0,1650849545048707.0,1
256,9.0,6.0,-4.0,-9.0,-4.0,-11.0,-13.0,-13.0,1650849545062695.0,1
257,-12.0,16.0,1.0,5.0,0.0,3.0,-2.0,-9.0,1650849545062695.0,1
258,-1.0,-5.0,-8.0,-2.0,-6.0,-20.0,15.0,-9.0,1650849545063666.0,1
259,-8.0,5.0,16.0,-2.0,-1.0,18.0,12.0,3.0,1650849545063666.0,1
260,5.0,-9.0,-2.0,-9.0,-6.0,-8.0,3.0,13.0,1650849545085634.0,1
261,-7.0,-4.0,1.0,0.0,-10.0,-2.0,0.0,4.0,1650849545085634.0,1
262,0.0,11.0,1.0,-4.0,1.0,-9.0,0.0,6.0,1650849545086624.0,1
263,-1.0,12.0,1.0,-4.0,-3.0,-9.0,-2.0,0.0,1650849545086624.0,1
264,-3.0,12.0,13.0,9.0,2.0,5.0,-5.0,-10.0,1650849545100574.0,1
265,-1.0,-49.0,-19.0,8.0,19.0,5.0,9.0,4.0,1650849545100574.0,1
266,9.0,1.0,-17.0,-8.0,0.0,2.0,-23.0,-3.0,1650849545101563.0,1
267,-9.0,-9.0,12.0,9.0,-11.0,-8.0,19.0,-2.0,1650849545101563.0,1
268,1.0,-10.0,-19.0,-11.0,-8.0,-7.0,-6.0,10.0,1650849545123516.0,1
269,-1.0,29.0,3.0,1.0,-6.0,0.0,7.0,16.0,1650849545123516.0,1
270,3.0,26.0,22.0,6.0,3.0,2.0,1.0,-10.0,1650849545123516.0,1
271,-9.0,-11.0,-19.0,-4.0,3.0,8.0,-13.0,2.0,1650849545123516.0,1
272,13.0,42.0,-1.0,-4.0,2.0,2.0,33.0,13.0,1650849545137468.0,1
273,-8.0,8.0,14.0,-5.0,-7.0,1.0,1.0,16.0,1650849545137468.0,1
274,5.0,-10.0,-18.0,7.0,-1.0,-3.0,-11.0,-39.0,1650849545138486.0,1
275,-16.0,-12.0,1.0,5.0,8.0,-25.0,-32.0,-29.0,1650849545138486.0,1
276,-3.0,17.0,8.0,-5.0,-6.0,44.0,21.0,-4.0,1650849545160406.0,1
277,39.0,-7.0,-3.0,11.0,18.0,10.0,8.0,35.0,1650849545160406.0,1
278,-3.0,30.0,19.0,3.0,9.0,-1.0,-1.0,6.0,1650849545161403.0,1
279,-4.0,-2.0,-13.0,-3.0,-8.0,-7.0,-4.0,-10.0,1650849545161403.0,1
280,-19.0,-27.0,12.0,8.0,4.0,-19.0,-15.0,-11.0,1650849545183445.0,1
281,-13.0,-10.0,-29.0,-19.0,-22.0,-6.0,-52.0,-60.0,1650849545183445.0,1
282,18.0,-13.0,4.0,4.0,10.0,12.0,83.0,75.0,1650849545183445.0,1
283,3.0,7.0,4.0,2.0,6.0,4.0,-28.0,5.0,1650849545183445.0,1
284,14.0,-10.0,-7.0,1.0,4.0,0.0,40.0,16.0,1650849545205373.0,1
285,-7.0,14.0,11.0,-4.0,-10.0,-3.0,-34.0,-24.0,1650849545205373.0,1
286,2.0,28.0,-5.0,13.0,10.0,2.0,10.0,-12.0,1650849545206380.0,1
287,-5.0,-45.0,-5.0,-3.0,7.0,12.0,13.0,23.0,1650849545206380.0,1
288,-14.0,-12.0,-6.0,-4.0,-8.0,-1.0,-21.0,-11.0,1650849545220361.0,1
289,1.0,7.0,-9.0,6.0,2.0,-5.0,25.0,18.0,1650849545220361.0,1
290,-8.0,6.0,12.0,-15.0,-16.0,-13.0,-50.0,-46.0,1650849545221342.0,1
291,7.0,-1.0,-12.0,-10.0,-5.0,13.0,9.0,-7.0,1650849545221342.0,1
292,1.0,12.0,14.0,12.0,5.0,3.0,11.0,34.0,1650849545243272.0,1
293,8.0,19.0,6.0,-2.0,-3.0,-8.0,8.0,-1.0,1650849545243272.0,1
294,-19.0,-31.0,-51.0,-18.0,-8.0,-6.0,-27.0,-26.0,1650849545243272.0,1
295,13.0,11.0,12.0,-10.0,-13.0,0.0,19.0,22.0,1650849545243272.0,1
296,-4.0,1.0,6.0,3.0,2.0,-7.0,-31.0,-24.0,1650849545256905.0,1
297,13.0,18.0,10.0,26.0,24.0,12.0,37.0,38.0,1650849545256905.0,1
298,-8.0,-8.0,19.0,-2.0,-6.0,7.0,-1.0,1.0,1650849545257905.0,1
299,-9.0,-2.0,-16.0,-9.0,-15.0,-17.0,-7.0,-11.0,1650849545257905.0,1
300,-3.0,-23.0,-9.0,-13.0,-12.0,-12.0,-12.0,-20.0,1650849545280569.0,1
301,-1.0,26.0,14.0,-3.0,5.0,2.0,-18.0,-15.0,1650849545280569.0,1
302,-10.0,-57.0,-14.0,2.0,2.0,3.0,-10.0,-10.0,1650849545281587.0,1
303,3.0,-9.0,-7.0,4.0,10.0,19.0,17.0,4.0,1650849545281587.0,1
304,11.0,29.0,12.0,2.0,-12.0,-20.0,13.0,21.0,1650849545302695.0,1
305,-8.0,-30.0,9.0,-3.0,12.0,8.0,-4.0,-6.0,1650849545302695.0,1
306,3.0,11.0,14.0,-1.0,-5.0,6.0,34.0,45.0,1650849545303665.0,1
307,14.0,34.0,1.0,3.0,-14.0,-12.0,-19.0,-9.0,1650849545303665.0,1
308,2.0,12.0,9.0,4.0,25.0,24.0,7.0,1.0,1650849545316775.0,1
309,-16.0,-75.0,-33.0,-10.0,-13.0,-20.0,7.0,6.0,1650849545316775.0,1
310,6.0,36.0,19.0,2.0,-14.0,-8.0,-13.0,1.0,1650849545317758.0,1
311,-13.0,-12.0,0.0,3.0,8.0,6.0,2.0,4.0,1650849545317758.0,1
312,-4.0,-1.0,-7.0,0.0,1.0,-5.0,-25.0,-32.0,1650849545340691.0,1
313,28.0,27.0,-7.0,-2.0,7.0,13.0,40.0,44.0,1650849545340691.0,1
314,0.0,-15.0,4.0,-8.0,0.0,2.0,-2.0,11.0,1650849545341708.0,1
315,-13.0,-7.0,0.0,3.0,-6.0,-8.0,6.0,-3.0,1650849545341708.0,1
316,-5.0,-3.0,1.0,-3.0,2.0,-2.0,-27.0,-19.0,1650849545362652.0,1
317,8.0,26.0,4.0,0.0,-2.0,-1.0,-7.0,-3.0,1650849545362652.0,1
318,-10.0,-30.0,-9.0,-2.0,-13.0,-4.0,2.0,-15.0,1650849545363627.0,1
319,10.0,42.0,19.0,21.0,19.0,-4.0,-2.0,3.0,1650849545363627.0,1
320,1.0,-39.0,-14.0,-6.0,9.0,2.0,-32.0,-9.0,1650849545377585.0,1
321,4.0,26.0,6.0,-2.0,-7.0,22.0,41.0,9.0,1650849545377585.0,1
322,4.0,-17.0,5.0,3.0,-1.0,-9.0,-7.0,-1.0,1650849545384596.0,1
323,-10.0,15.0,-11.0,-6.0,5.0,3.0,-10.0,-9.0,1650849545384596.0,1
324,5.0,-16.0,8.0,9.0,5.0,0.0,17.0,25.0,1650849545400523.0,1
325,-15.0,-16.0,-20.0,-31.0,-24.0,-16.0,-42.0,-43.0,1650849545400523.0,1
326,5.0,3.0,5.0,16.0,16.0,-2.0,30.0,36.0,1650849545401521.0,1
327,2.0,-4.0,2.0,1.0,3.0,24.0,4.0,-4.0,1650849545401521.0,1
328,-4.0,10.0,-1.0,-9.0,-12.0,-7.0,-2.0,-8.0,1650849545423463.0,1
329,-8.0,-17.0,-3.0,3.0,13.0,13.0,-1.0,-10.0,1650849545423463.0,1
330,9.0,22.0,5.0,1.0,-3.0,-4.0,-6.0,1.0,1650849545423463.0,1
331,-6.0,-14.0,-4.0,-5.0,0.0,-5.0,-9.0,-9.0,1650849545423463.0,1
332,14.0,15.0,-11.0,0.0,-5.0,-7.0,12.0,13.0,1650849545437424.0,1
333,-12.0,-26.0,6.0,-4.0,-17.0,-11.0,-1.0,-4.0,1650849545437424.0,1
334,0.0,20.0,-4.0,3.0,15.0,7.0,-41.0,-49.0,1650849545438424.0,1
335,7.0,-41.0,-4.0,-7.0,-8.0,-7.0,32.0,34.0,1650849545438424.0,1
336,-10.0,-10.0,-3.0,7.0,10.0,1.0,-10.0,-31.0,1650849545460364.0,1
337,5.0,13.0,3.0,11.0,11.0,15.0,12.0,13.0,1650849545460364.0,1
338,7.0,-10.0,-4.0,-5.0,-2.0,2.0,11.0,18.0,1650849545461366.0,1
339,-3.0,9.0,6.0,-20.0,-22.0,-15.0,-11.0,-6.0,1650849545461366.0,1
340,2.0,15.0,-2.0,14.0,12.0,5.0,1.0,1.0,1650849545483398.0,1
341,3.0,-34.0,-7.0,-5.0,-10.0,-10.0,-1.0,12.0,1650849545483398.0,1
342,-9.0,23.0,17.0,7.0,0.0,4.0,-2.0,-15.0,1650849545483398.0,1
343,2.0,15.0,8.0,-4.0,0.0,-4.0,-12.0,-8.0,1650849545483398.0,1
344,-10.0,-9.0,-4.0,-7.0,-15.0,-5.0,12.0,6.0,1650849545496363.0,1
345,9.0,37.0,9.0,9.0,10.0,-3.0,-13.0,-6.0,1650849545496363.0,1
346,-15.0,-27.0,-20.0,-22.0,-15.0,-7.0,-6.0,-10.0,1650849545504356.0,1
347,-9.0,-10.0,-11.0,-2.0,-9.0,-10.0,11.0,1.0,1650849545504356.0,1
348,13.0,19.0,7.0,5.0,10.0,21.0,9.0,15.0,1650849545520328.0,1
349,-9.0,-24.0,-8.0,-5.0,1.0,-10.0,-15.0,-11.0,1650849545520328.0,1
350,-9.0,5.0,-12.0,1.0,3.0,0.0,-11.0,-13.0,1650849545521297.0,1
351,12.0,26.0,16.0,1.0,-5.0,-6.0,21.0,11.0,1650849545521297.0,1
352,11.0,-24.0,-2.0,1.0,-3.0,-4.0,12.0,24.0,1650849545543354.0,1
353,5.0,9.0,-2.0,-4.0,1.0,1.0,-5.0,-2.0,1650849545543354.0,1
354,-6.0,11.0,8.0,0.0,0.0,-5.0,11.0,4.0,1650849545543354.0,1
355,12.0,17.0,1.0,5.0,4.0,-9.0,-25.0,-12.0,1650849545543354.0,1
356,-9.0,3.0,9.0,-9.0,-16.0,25.0,-6.0,-10.0,1650849545556323.0,1
357,5.0,-20.0,0.0,11.0,17.0,-2.0,30.0,25.0,1650849545556323.0,1
358,-10.0,4.0,-2.0,0.0,3.0,-2.0,-4.0,-15.0,1650849545565299.0,1
359,-2.0,-6.0,-7.0,4.0,0.0,-4.0,-4.0,2.0,1650849545565299.0,1
360,-5.0,-16.0,-6.0,-6.0,5.0,-11.0,-4.0,-4.0,1650849545580374.0,1
361,10.0,16.0,8.0,-12.0,-22.0,-6.0,-16.0,-10.0,1650849545580374.0,1
362,1.0,5.0,-11.0,23.0,33.0,14.0,4.0,1.0,1650849545581369.0,1
363,-11.0,-16.0,-4.0,-14.0,-8.0,2.0,-6.0,-1.0,1650849545581369.0,1
364,0.0,5.0,-1.0,-1.0,-9.0,-11.0,-5.0,-14.0,1650849545603408.0,1
365,-10.0,1.0,-4.0,-16.0,-10.0,-5.0,-9.0,-5.0,1650849545603408.0,1
366,9.0,12.0,3.0,3.0,-8.0,0.0,11.0,9.0,1650849545603408.0,1
367,9.0,5.0,1.0,-1.0,8.0,6.0,0.0,7.0,1650849545603408.0,1
368,-4.0,-49.0,-2.0,13.0,6.0,4.0,21.0,11.0,1650849545616394.0,1
369,-4.0,19.0,10.0,2.0,3.0,-3.0,-10.0,-11.0,1650849545616394.0,1
370,7.0,-15.0,-1.0,-12.0,-16.0,-4.0,-2.0,9.0,1650849545625349.0,1
371,-5.0,4.0,-22.0,-4.0,1.0,1.0,-21.0,-33.0,1650849545625349.0,1
372,-1.0,5.0,12.0,-3.0,-4.0,-6.0,9.0,5.0,1650849545640330.0,1
373,-4.0,6.0,0.0,4.0,4.0,0.0,13.0,34.0,1650849545640330.0,1
374,9.0,18.0,13.0,1.0,2.0,5.0,-12.0,-17.0,1650849545641306.0,1
375,-2.0,-24.0,-8.0,-5.0,-8.0,1.0,7.0,8.0,1650849545641306.0,1
376,-1.0,-7.0,3.0,10.0,16.0,0.0,-19.0,-6.0,1650849545663247.0,1
377,-11.0,10.0,-2.0,-5.0,-9.0,-7.0,-3.0,-16.0,1650849545663247.0,1
378,9.0,-13.0,-10.0,8.0,-2.0,-4.0,27.0,28.0,1650849545664254.0,1
379,-5.0,-13.0,19.0,29.0,48.0,17.0,0.0,-1.0,1650849545664254.0,1
380,5.0,39.0,1.0,-12.0,-21.0,24.0,4.0,-4.0,1650849545676234.0,1
381,4.0,8.0,-1.0,9.0,12.0,-3.0,-13.0,-11.0,1650849545676234.0,1
382,-18.0,-28.0,-13.0,-34.0,-25.0,-15.0,-14.0,-8.0,1650849545685195.0,1
383,-1.0,-1.0,2.0,9.0,-13.0,-18.0,-3.0,-7.0,1650849545685195.0,1
384,10.0,31.0,27.0,18.0,23.0,-3.0,19.0,33.0,1650849545700901.0,1
385,0.0,-15.0,-12.0,-4.0,-1.0,16.0,-11.0,-9.0,1650849545700901.0,1
386,5.0,23.0,-1.0,3.0,6.0,3.0,20.0,5.0,1650849545700901.0,1
387,8.0,-24.0,7.0,-1.0,-8.0,-1.0,-21.0,5.0,1650849545700901.0,1
388,-1.0,17.0,0.0,2.0,3.0,-4.0,9.0,-1.0,1650849545722997.0,1
389,-5.0,-4.0,-1.0,-9.0,-14.0,-9.0,-20.0,-14.0,1650849545722997.0,1
390,-18.0,-17.0,-8.0,-6.0,-17.0,-10.0,11.0,4.0,1650849545723974.0,1
391,20.0,6.0,-12.0,10.0,8.0,13.0,4.0,11.0,1650849545723974.0,1
392,-8.0,-1.0,-12.0,-12.0,-2.0,-5.0,2.0,-4.0,1650849545736965.0,1
393,8.0,-20.0,-1.0,-1.0,-5.0,-2.0,22.0,21.0,1650849545736965.0,1
394,3.0,44.0,8.0,17.0,30.0,17.0,-27.0,-18.0,1650849545744916.0,1
395,-19.0,-33.0,-8.0,-17.0,-16.0,-5.0,2.0,-15.0,1650849545744916.0,1
396,-11.0,-3.0,-11.0,-10.0,-11.0,-8.0,-13.0,-17.0,1650849545760908.0,1
397,-7.0,28.0,30.0,25.0,12.0,3.0,-16.0,-14.0,1650849545760908.0,1
398,16.0,-51.0,-6.0,-16.0,-9.0,-4.0,34.0,30.0,1650849545760908.0,1
399,-3.0,2.0,3.0,8.0,-5.0,4.0,11.0,3.0,1650849545760908.0,1
400,3.0,12.0,-2.0,-1.0,10.0,-4.0,-18.0,-14.0,1650849545782908.0,1
401,-11.0,9.0,-19.0,-11.0,-14.0,-4.0,-12.0,-15.0,1650849545782908.0,1
402,1.0,-14.0,-10.0,-4.0,-8.0,-10.0,-17.0,-4.0,1650849545783881.0,1
403,-10.0,-3.0,22.0,-4.0,0.0,-2.0,-6.0,-17.0,1650849545783881.0,1
404,-2.0,-23.0,-10.0,-10.0,-13.0,-21.0,-9.0,-3.0,1650849545796884.0,1
405,0.0,15.0,1.0,7.0,11.0,23.0,14.0,12.0,1650849545796884.0,1
406,6.0,-8.0,-13.0,7.0,6.0,1.0,-15.0,-18.0,1650849545804863.0,1
407,-7.0,19.0,-2.0,-15.0,-2.0,3.0,-4.0,-8.0,1650849545804863.0,1
408,11.0,-1.0,-4.0,-2.0,-17.0,-17.0,-5.0,22.0,1650849545820782.0,1
409,0.0,-25.0,10.0,23.0,40.0,9.0,5.0,-1.0,1650849545820782.0,1
410,13.0,20.0,-17.0,-10.0,-1.0,9.0,25.0,15.0,1650849545820782.0,1
411,-8.0,15.0,12.0,-3.0,-6.0,-6.0,-3.0,-3.0,1650849545820782.0,1
412,-6.0,-29.0,-19.0,-16.0,-14.0,-14.0,-5.0,-9.0,1650849545842743.0,1
413,2.0,23.0,18.0,-2.0,-21.0,9.0,-5.0,-9.0,1650849545842743.0,1
414,-7.0,-32.0,2.0,11.0,17.0,-2.0,-6.0,4.0,1650849545843732.0,1
415,1.0,19.0,-17.0,-10.0,-13.0,-24.0,-13.0,-1.0,1650849545843732.0,1
416,2.0,12.0,9.0,2.0,7.0,26.0,1.0,-13.0,1650849545865960.0,1
417,13.0,-10.0,-20.0,-11.0,-14.0,-14.0,49.0,60.0,1650849545865960.0,1
418,-22.0,9.0,22.0,6.0,9.0,3.0,-44.0,-46.0,1650849545865960.0,1
419,21.0,19.0,-13.0,11.0,7.0,20.0,55.0,55.0,1650849545865960.0,1
420,-3.0,-46.0,-10.0,-1.0,-5.0,-11.0,-11.0,-10.0,1650849545879964.0,1
421,-7.0,7.0,13.0,-2.0,0.0,-7.0,-8.0,-12.0,1650849545879964.0,1
422,-1.0,4.0,-14.0,-20.0,-23.0,-8.0,-15.0,4.0,1650849545880949.0,1
423,-7.0,-8.0,1.0,5.0,0.0,-15.0,-8.0,-14.0,1650849545880949.0,1
424,1.0,13.0,0.0,19.0,16.0,29.0,16.0,15.0,1650849545902891.0,1
425,6.0,12.0,13.0,7.0,12.0,0.0,16.0,16.0,1650849545902891.0,1
426,3.0,5.0,4.0,-14.0,-9.0,-1.0,1.0,2.0,1650849545903860.0,1
427,-6.0,-31.0,-7.0,-3.0,1.0,-4.0,-23.0,-13.0,1650849545903860.0,1
428,-1.0,19.0,-12.0,5.0,0.0,4.0,14.0,4.0,1650849545925930.0,1
429,-7.0,-26.0,3.0,-6.0,-8.0,-6.0,-37.0,-37.0,1650849545925930.0,1
430,-7.0,-10.0,-6.0,4.0,-1.0,-6.0,19.0,14.0,1650849545925930.0,1
431,6.0,-6.0,-22.0,-4.0,2.0,7.0,18.0,14.0,1650849545925930.0,1
432,15.0,26.0,13.0,4.0,5.0,-2.0,6.0,2.0,1650849545939897.0,1
433,-4.0,-27.0,-20.0,-7.0,-8.0,-14.0,-10.0,-4.0,1650849545939897.0,1
434,-2.0,13.0,28.0,4.0,-1.0,11.0,3.0,-3.0,1650849545940894.0,1
435,-2.0,-14.0,-7.0,-2.0,-2.0,-15.0,-5.0,-1.0,1650849545940894.0,1
436,-2.0,14.0,-5.0,-1.0,2.0,35.0,2.0,-2.0,1650849545963009.0,1
437,-4.0,8.0,-4.0,2.0,4.0,-10.0,-23.0,-7.0,1650849545963009.0,1
438,6.0,0.0,2.0,2.0,-5.0,5.0,21.0,3.0,1650849545963943.0,1
439,4.0,7.0,15.0,22.0,26.0,10.0,-1.0,6.0,1650849545963943.0,1
440,-6.0,-3.0,-9.0,-18.0,-22.0,-25.0,-9.0,-6.0,1650849545985029.0,1
441,0.0,-2.0,-8.0,6.0,15.0,6.0,-11.0,-11.0,1650849545985029.0,1
442,8.0,7.0,8.0,6.0,2.0,7.0,23.0,37.0,1650849545986028.0,1
443,-6.0,-8.0,1.0,1.0,4.0,6.0,-7.0,-10.0,1650849545986028.0,1
444,-8.0,8.0,16.0,6.0,8.0,-10.0,24.0,12.0,1650849546000058.0,1
445,17.0,-8.0,-25.0,-15.0,-20.0,-6.0,0.0,9.0,1650849546000058.0,1
446,-5.0,10.0,-4.0,1.0,10.0,2.0,-8.0,-4.0,1650849546000998.0,1
447,3.0,1.0,14.0,-6.0,-7.0,-7.0,-3.0,-7.0,1650849546000998.0,1
448,-6.0,9.0,3.0,-2.0,-12.0,-3.0,-18.0,-8.0,1650849546023085.0,1
449,-6.0,-12.0,-1.0,1.0,-1.0,-6.0,10.0,-2.0,1650849546023085.0,1
450,4.0,5.0,4.0,3.0,15.0,19.0,3.0,3.0,1650849546024098.0,1
451,-1.0,2.0,-8.0,-2.0,-7.0,2.0,-1.0,1.0,1650849546024098.0,1
452,0.0,-18.0,-5.0,-7.0,-3.0,-5.0,-2.0,-5.0,1650849546045980.0,1
453,0.0,12.0,3.0,1.0,-3.0,-16.0,23.0,22.0,1650849546045980.0,1
454,0.0,-18.0,-7.0,2.0,-10.0,-6.0,-8.0,-4.0,1650849546045980.0,1
455,-7.0,9.0,4.0,-4.0,4.0,13.0,-8.0,-5.0,1650849546045980.0,1
456,1.0,-6.0,2.0,2.0,2.0,-11.0,-3.0,-2.0,1650849546058867.0,1
457,-2.0,12.0,13.0,1.0,0.0,2.0,-3.0,-8.0,1650849546058867.0,1
458,-4.0,-5.0,-11.0,-6.0,-3.0,-4.0,-2.0,-2.0,1650849546067897.0,1
459,3.0,4.0,1.0,-5.0,-1.0,-6.0,2.0,-1.0,1650849546067897.0,1
460,0.0,-12.0,12.0,3.0,-4.0,15.0,2.0,3.0,1650849546082934.0,1
461,0.0,-6.0,-19.0,0.0,11.0,10.0,-5.0,-6.0,1650849546082934.0,1
462,0.0,6.0,12.0,2.0,-9.0,-9.0,-2.0,-2.0,1650849546084930.0,1
463,-5.0,-6.0,-5.0,-5.0,-2.0,-8.0,-17.0,-12.0,1650849546084930.0,1
464,8.0,4.0,1.0,-1.0,-3.0,-2.0,21.0,15.0,1650849546105874.0,1
465,-9.0,-7.0,2.0,-5.0,-7.0,-14.0,-11.0,-9.0,1650849546105874.0,1
466,0.0,0.0,4.0,2.0,2.0,30.0,-1.0,-5.0,1650849546106872.0,1
467,1.0,13.0,-8.0,-3.0,-4.0,-9.0,-5.0,3.0,1650849546106872.0,1
468,-6.0,-4.0,0.0,-1.0,7.0,4.0,-1.0,-3.0,1650849546118868.0,1
469,1.0,-3.0,-5.0,1.0,-7.0,4.0,1.0,-3.0,1650849546118868.0,1
470,4.0,3.0,6.0,4.0,3.0,-14.0,-4.0,1.0,1650849546127860.0,1
471,-4.0,-6.0,-5.0,-6.0,-8.0,-6.0,-9.0,-3.0,1650849546127860.0,1
472,-4.0,-8.0,-11.0,-5.0,5.0,5.0,1.0,-4.0,1650849546143477.0,1
473,0.0,6.0,4.0,0.0,-4.0,-6.0,11.0,2.0,1650849546143477.0,1
474,0.0,-9.0,5.0,3.0,0.0,13.0,2.0,4.0,1650849546144816.0,1
475,2.0,13.0,2.0,1.0,2.0,9.0,3.0,0.0,1650849546144816.0,1
476,-1.0,-5.0,-1.0,-1.0,-1.0,-11.0,-8.0,1.0,1650849546165760.0,1
477,-4.0,-5.0,4.0,1.0,-7.0,-11.0,-11.0,-7.0,1650849546165760.0,1
478,-1.0,-2.0,-12.0,-6.0,10.0,-5.0,-9.0,-5.0,1650849546166757.0,1
479,1.0,-3.0,4.0,1.0,-9.0,11.0,23.0,6.0,1650849546166757.0,1
480,1.0,3.0,-8.0,-1.0,13.0,18.0,9.0,-2.0,1650849546178698.0,1
481,1.0,3.0,14.0,3.0,-6.0,4.0,-7.0,-3.0,1650849546178698.0,1
482,-3.0,-4.0,1.0,6.0,7.0,-16.0,-8.0,-4.0,1650849546187673.0,1
483,-1.0,0.0,-3.0,-6.0,-7.0,-8.0,-8.0,-2.0,1650849546187673.0,1
484,-1.0,-6.0,4.0,-2.0,-10.0,-6.0,1.0,-3.0,1650849546210627.0,1
485,-2.0,-5.0,-3.0,2.0,1.0,6.0,-2.0,-1.0,1650849546210627.0,1
486,-2.0,4.0,2.0,4.0,-4.0,-19.0,0.0,3.0,1650849546212616.0,1
487,1.0,-3.0,-3.0,1.0,12.0,19.0,3.0,0.0,1650849546212616.0,1
488,0.0,-3.0,-3.0,-2.0,-6.0,-8.0,-7.0,-4.0,1650849546225640.0,1
489,1.0,1.0,-9.0,-9.0,-6.0,4.0,0.0,-2.0,1650849546225640.0,1
490,-2.0,6.0,10.0,2.0,-8.0,-25.0,-7.0,-3.0,1650849546227573.0,1
491,1.0,4.0,3.0,8.0,11.0,40.0,11.0,4.0,1650849546227573.0,1
492,-1.0,-4.0,7.0,0.0,13.0,-3.0,-7.0,-1.0,1650849546239535.0,1
493,0.0,-3.0,-25.0,-10.0,-3.0,-1.0,3.0,-1.0,1650849546239535.0,1
494,0.0,-2.0,-2.0,-4.0,-9.0,-6.0,-5.0,-2.0,1650849546248511.0,1
495,-4.0,-5.0,9.0,0.0,-6.0,-15.0,4.0,1.0,1650849546248511.0,1
496,-1.0,-3.0,-8.0,1.0,0.0,-1.0,-8.0,-3.0,1650849546264469.0,1
497,-1.0,15.0,20.0,2.0,-1.0,-3.0,0.0,-2.0,1650849546264469.0,1
498,0.0,-1.0,-18.0,-8.0,2.0,15.0,6.0,0.0,1650849546266463.0,1
499,-3.0,-5.0,4.0,1.0,-4.0,-18.0,-12.0,-3.0,1650849546266463.0,1
500,0.0,-2.0,24.0,10.0,-1.0,7.0,0.0,0.0,1650849546285881.0,1
501,0.0,2.0,-24.0,-7.0,-12.0,-4.0,-3.0,3.0,1650849546285881.0,1
502,-1.0,-6.0,6.0,-1.0,9.0,16.0,31.0,3.0,1650849546286879.0,1
503,-2.0,4.0,-8.0,-2.0,-8.0,-15.0,-10.0,-4.0,1650849546286879.0,1
504,-1.0,-1.0,-9.0,-4.0,-1.0,-5.0,-4.0,-2.0,1650849546298846.0,1
505,2.0,-1.0,24.0,10.0,12.0,7.0,-1.0,1.0,1650849546298846.0,1
506,1.0,1.0,7.0,-6.0,-7.0,0.0,-5.0,1.0,1650849546315802.0,1
507,1.0,-13.0,-33.0,-2.0,-9.0,-4.0,0.0,-1.0,1650849546315802.0,1
508,1.0,6.0,1.0,-9.0,4.0,-3.0,0.0,0.0,1650849546322784.0,1
509,-4.0,0.0,-12.0,-1.0,-2.0,-9.0,-5.0,-2.0,1650849546322784.0,1
510,7.0,1.0,14.0,5.0,-3.0,1.0,-6.0,-2.0,1650849546324779.0,1
511,12.0,4.0,20.0,6.0,13.0,7.0,12.0,2.0,1650849546324779.0,1
512,-41.0,-6.0,-9.0,-6.0,-8.0,1.0,-6.0,1.0,1650849546352702.0,1
513,11.0,0.0,11.0,6.0,8.0,10.0,6.0,2.0,1650849546352702.0,1
514,4.0,-6.0,6.0,-11.0,-14.0,-32.0,-12.0,-4.0,1650849546354698.0,1
515,-25.0,-4.0,-29.0,4.0,0.0,13.0,-1.0,-1.0,1650849546354698.0,1
516,9.0,0.0,1.0,7.0,-2.0,0.0,2.0,-1.0,1650849546358687.0,1
517,-1.0,-6.0,-4.0,-5.0,-6.0,-4.0,-2.0,0.0,1650849546358687.0,1
518,-6.0,1.0,15.0,9.0,3.0,-2.0,-2.0,0.0,1650849546367663.0,1
519,7.0,7.0,21.0,1.0,5.0,4.0,4.0,3.0,1650849546367663.0,1
520,12.0,4.0,-14.0,-5.0,10.0,1.0,-1.0,-2.0,1650849546382623.0,1
521,-18.0,-9.0,-23.0,-2.0,2.0,4.0,3.0,2.0,1650849546382623.0,1
522,4.0,-4.0,0.0,-9.0,-17.0,-6.0,-5.0,-4.0,1650849546384617.0,1
523,7.0,0.0,1.0,-4.0,7.0,1.0,1.0,0.0,1650849546384617.0,1
524,-1.0,3.0,-16.0,7.0,0.0,-5.0,-2.0,-1.0,1650849546405561.0,1
525,4.0,-10.0,30.0,4.0,-22.0,-28.0,-4.0,-1.0,1650849546405561.0,1
526,-7.0,7.0,-14.0,1.0,35.0,57.0,6.0,3.0,1650849546407570.0,1
527,-3.0,-1.0,6.0,-1.0,-5.0,-14.0,-1.0,0.0,1650849546407570.0,1
528,5.0,15.0,0.0,-12.0,-12.0,-7.0,-5.0,-4.0,1650849546419528.0,1
529,0.0,-7.0,-8.0,9.0,10.0,6.0,3.0,0.0,1650849546419528.0,1
530,-4.0,-7.0,-4.0,-6.0,-11.0,-18.0,-6.0,-2.0,1650849546435812.0,1
531,2.0,-3.0,-4.0,-3.0,-1.0,0.0,0.0,1.0,1650849546435812.0,1
532,3.0,-1.0,-13.0,-3.0,-2.0,1.0,-1.0,2.0,1650849546442795.0,1
533,-1.0,3.0,42.0,12.0,8.0,2.0,2.0,0.0,1650849546442795.0,1
534,-8.0,-7.0,-41.0,-5.0,-4.0,-8.0,-5.0,-4.0,1650849546444788.0,1
535,5.0,3.0,-1.0,-9.0,7.0,11.0,3.0,2.0,1650849546444788.0,1
536,-1.0,-11.0,-1.0,-7.0,-17.0,-12.0,-3.0,-1.0,1650849546472788.0,1
537,2.0,8.0,-1.0,-2.0,2.0,10.0,2.0,-1.0,1650849546472788.0,1
538,-2.0,-2.0,7.0,11.0,3.0,-1.0,1.0,-2.0,1650849546474781.0,1
539,-3.0,-4.0,4.0,7.0,-5.0,-10.0,-3.0,1.0,1650849546474781.0,1
540,0.0,-3.0,6.0,6.0,2.0,-1.0,2.0,0.0,1650849546478770.0,1
541,4.0,2.0,-1.0,-9.0,0.0,1.0,2.0,2.0,1650849546478770.0,1
542,-2.0,9.0,0.0,-7.0,-10.0,-10.0,-5.0,-3.0,1650849546487923.0,1
543,2.0,5.0,-1.0,3.0,5.0,16.0,2.0,0.0,1650849546487923.0,1
544,0.0,-8.0,10.0,0.0,5.0,0.0,0.0,2.0,1650849546502772.0,1
545,-5.0,-10.0,-24.0,-13.0,-9.0,-17.0,-5.0,-3.0,1650849546502772.0,1
546,4.0,-1.0,-4.0,6.0,5.0,26.0,11.0,3.0,1650849546504728.0,1
547,-1.0,-3.0,18.0,9.0,-13.0,-13.0,-2.0,-3.0,1650849546504728.0,1
548,3.0,7.0,2.0,3.0,10.0,5.0,-1.0,0.0,1650849546525811.0,1
549,-2.0,-1.0,9.0,-8.0,-3.0,3.0,1.0,-2.0,1650849546525811.0,1
550,1.0,-2.0,-26.0,-10.0,-3.0,-14.0,-4.0,0.0,1650849546526822.0,1
551,-1.0,1.0,0.0,-3.0,-4.0,2.0,-1.0,0.0,1650849546526822.0,1
552,0.0,-2.0,19.0,12.0,-3.0,0.0,-1.0,-1.0,1650849546539775.0,1
553,0.0,3.0,-3.0,-4.0,7.0,7.0,-2.0,-1.0,1650849546539775.0,1
554,-1.0,-4.0,-1.0,-3.0,-11.0,-5.0,-1.0,1.0,1650849546547836.0,1
555,-3.0,-4.0,-12.0,-12.0,-23.0,-11.0,1.0,-2.0,1650849546547836.0,1
556,3.0,4.0,2.0,10.0,32.0,22.0,5.0,3.0,1650849546562714.0,1
557,1.0,-10.0,-10.0,2.0,-3.0,3.0,2.0,0.0,1650849546562714.0,1
558,22.0,2.0,11.0,-4.0,2.0,1.0,-4.0,0.0,1650849546564709.0,1
559,-13.0,-1.0,-15.0,-17.0,-7.0,-7.0,-4.0,-3.0,1650849546564709.0,1
560,0.0,-3.0,-5.0,0.0,-22.0,-21.0,-6.0,-2.0,1650849546592944.0,1
561,-4.0,7.0,13.0,24.0,27.0,31.0,7.0,-2.0,1650849546592944.0,1
562,11.0,-6.0,1.0,-1.0,-7.0,-7.0,0.0,3.0,1650849546594878.0,1
563,4.0,13.0,-1.0,-4.0,0.0,-19.0,-5.0,-2.0,1650849546594878.0,1
564,-5.0,-14.0,-4.0,-7.0,2.0,29.0,8.0,2.0,1650849546598890.0,1
565,0.0,-5.0,-12.0,2.0,-2.0,-4.0,-2.0,1.0,1650849546598890.0,1
566,-10.0,3.0,8.0,5.0,-1.0,-8.0,-3.0,0.0,1650849546607865.0,1
567,3.0,1.0,6.0,3.0,0.0,3.0,0.0,-1.0,1650849546607865.0,1
568,-3.0,0.0,-3.0,-3.0,-3.0,-8.0,-3.0,-1.0,1650849546622585.0,1
569,4.0,4.0,-7.0,-6.0,-2.0,-12.0,-2.0,0.0,1650849546622585.0,1
570,-7.0,-7.0,-3.0,3.0,-1.0,21.0,3.0,0.0,1650849546630573.0,1
571,2.0,11.0,13.0,9.0,9.0,1.0,2.0,2.0,1650849546630573.0,1
572,1.0,-3.0,-2.0,-5.0,-3.0,-6.0,-3.0,-2.0,1650849546645677.0,1
573,1.0,2.0,2.0,-1.0,-2.0,-1.0,-2.0,-2.0,1650849546645677.0,1
574,-5.0,-5.0,-1.0,3.0,-2.0,-10.0,-2.0,-3.0,1650849546646677.0,1
575,-2.0,5.0,6.0,-4.0,4.0,-2.0,-2.0,-4.0,1650849546646677.0,1
576,0.0,-5.0,-9.0,-3.0,-9.0,-7.0,-2.0,-3.0,1650849546659642.0,1
577,-1.0,3.0,3.0,-1.0,7.0,13.0,1.0,0.0,1650849546659642.0,1
578,-4.0,5.0,6.0,-4.0,2.0,8.0,2.0,1.0,1650849546667883.0,1
579,-1.0,-13.0,-4.0,3.0,10.0,-2.0,-3.0,-2.0,1650849546667883.0,1
580,1.0,10.0,-5.0,-10.0,-6.0,-9.0,-4.0,0.0,1650849546682913.0,1
581,-2.0,-10.0,-1.0,-5.0,-14.0,-12.0,-7.0,-2.0,1650849546682913.0,1
582,0.0,2.0,-2.0,1.0,-2.0,-6.0,-1.0,-1.0,1650849546684874.0,1
583,1.0,-2.0,0.0,-3.0,-6.0,-2.0,0.0,0.0,1650849546684874.0,1
584,-2.0,3.0,6.0,3.0,7.0,7.0,0.0,1.0,1650849546705123.0,1
585,-1.0,-6.0,-11.0,-6.0,-2.0,4.0,2.0,1.0,1650849546705123.0,1
586,-3.0,2.0,4.0,-2.0,4.0,1.0,0.0,0.0,1650849546707121.0,1
587,3.0,2.0,-1.0,3.0,-6.0,-2.0,0.0,1.0,1650849546707121.0,1
588,0.0,-21.0,-8.0,1.0,0.0,-5.0,-3.0,-2.0,1650849546719154.0,1
589,1.0,11.0,8.0,3.0,7.0,4.0,1.0,1.0,1650849546719154.0,1
590,-3.0,9.0,1.0,1.0,0.0,-9.0,-3.0,-1.0,1650849546728063.0,1
591,-1.0,-2.0,-1.0,-4.0,-7.0,3.0,-1.0,-1.0,1650849546728063.0,1
592,1.0,-1.0,-1.0,5.0,9.0,6.0,2.0,1.0,1650849546743091.0,1
593,-1.0,-5.0,-7.0,-6.0,2.0,4.0,-1.0,-1.0,1650849546743091.0,1
594,-1.0,0.0,2.0,3.0,-11.0,-21.0,-4.0,0.0,1650849546751006.0,1
595,-1.0,-5.0,-1.0,-9.0,0.0,6.0,4.0,-1.0,1650849546751006.0,1
596,0.0,7.0,3.0,7.0,7.0,14.0,2.0,0.0,1650849546765112.0,1
597,-1.0,-2.0,-2.0,-1.0,-5.0,-6.0,2.0,0.0,1650849546765112.0,1
598,-1.0,5.0,5.0,2.0,-5.0,-5.0,-3.0,-1.0,1650849546767109.0,1
599,-2.0,-6.0,-5.0,0.0,1.0,-8.0,-2.0,-2.0,1650849546767109.0,1
600,-2.0,1.0,-1.0,-4.0,-14.0,-4.0,-2.0,-2.0,1650849546788389.0,1
601,1.0,1.0,-5.0,-5.0,12.0,-1.0,0.0,0.0,1650849546788389.0,1
602,0.0,-8.0,-3.0,-4.0,-8.0,1.0,-4.0,-3.0,1650849546789375.0,1
603,0.0,0.0,9.0,13.0,4.0,-2.0,4.0,6.0,1650849546789375.0,1
604,-2.0,2.0,4.0,1.0,7.0,10.0,2.0,1.0,1650849546803351.0,1
605,-1.0,-1.0,-5.0,-3.0,-6.0,-4.0,-2.0,-3.0,1650849546803351.0,0
606,-1.0,-5.0,-4.0,-7.0,-1.0,1.0,-1.0,-1.0,1650849546804327.0,0
607,-3.0,-10.0,-6.0,-1.0,-5.0,-9.0,-4.0,-4.0,1650849546804327.0,0
608,-2.0,8.0,0.0,-6.0,-1.0,-19.0,-5.0,-2.0,1650849546825939.0,0
609,3.0,1.0,2.0,8.0,-4.0,31.0,8.0,3.0,1650849546825939.0,0
610,-1.0,-1.0,-5.0,-3.0,4.0,-10.0,-2.0,0.0,1650849546826870.0,0
611,4.0,1.0,2.0,-3.0,10.0,21.0,0.0,1.0,1650849546826870.0,0
612,-1.0,-6.0,-8.0,-6.0,-14.0,-20.0,-4.0,-2.0,1650849546847882.0,0
613,-1.0,-22.0,-3.0,-1.0,5.0,-1.0,-3.0,-2.0,1650849546847882.0,0
614,1.0,31.0,11.0,6.0,1.0,0.0,2.0,1.0,1650849546849837.0,0
615,0.0,-9.0,-6.0,2.0,-2.0,-4.0,0.0,-2.0,1650849546849837.0,0
616,0.0,-1.0,-5.0,-9.0,1.0,2.0,0.0,-2.0,1650849546870938.0,0
617,0.0,-3.0,-7.0,-5.0,-13.0,-16.0,-3.0,-2.0,1650849546870938.0,0
618,-1.0,-10.0,1.0,4.0,12.0,20.0,2.0,0.0,1650849546871913.0,0
619,-1.0,2.0,4.0,-3.0,-9.0,-6.0,-1.0,-1.0,1650849546871913.0,0
620,-1.0,1.0,0.0,4.0,11.0,1.0,1.0,0.0,1650849546885904.0,0
621,-2.0,6.0,3.0,-1.0,-6.0,-9.0,-1.0,-2.0,1650849546885904.0,0
622,-2.0,-5.0,-5.0,-3.0,-4.0,-13.0,-3.0,0.0,1650849546886875.0,0
623,2.0,5.0,0.0,1.0,12.0,40.0,12.0,2.0,1650849546886875.0,0
624,-2.0,-8.0,-1.0,1.0,-5.0,-7.0,-2.0,-1.0,1650849546907817.0,0
625,-1.0,13.0,8.0,-5.0,-17.0,-9.0,-2.0,1.0,1650849546907817.0,0
626,-2.0,-4.0,-5.0,0.0,17.0,-3.0,0.0,0.0,1650849546909813.0,0
627,-1.0,-3.0,3.0,1.0,-3.0,-8.0,-5.0,0.0,1650849546909813.0,0
628,1.0,2.0,-3.0,-3.0,-14.0,-10.0,-1.0,-2.0,1650849546922777.0,0
629,0.0,2.0,4.0,4.0,9.0,12.0,2.0,1.0,1650849546922777.0,0
630,1.0,-4.0,-6.0,1.0,3.0,7.0,3.0,0.0,1650849546928829.0,0
631,-1.0,-7.0,-5.0,-5.0,-3.0,2.0,-3.0,-1.0,1650849546928829.0,0
632,0.0,-13.0,-7.0,-1.0,0.0,-1.0,0.0,0.0,1650849546945832.0,0
633,-1.0,13.0,6.0,-2.0,-9.0,-8.0,-3.0,0.0,1650849546945832.0,0
634,1.0,-3.0,8.0,0.0,-3.0,-3.0,0.0,-1.0,1650849546946808.0,0
635,-2.0,-1.0,-10.0,-5.0,4.0,-17.0,-6.0,-2.0,1650849546946808.0,0
636,2.0,3.0,2.0,3.0,0.0,13.0,2.0,1.0,1650849546967781.0,0
637,-2.0,-4.0,-2.0,0.0,0.0,18.0,3.0,0.0,1650849546967781.0,0
638,0.0,-7.0,-3.0,-1.0,-2.0,2.0,1.0,-1.0,1650849546969769.0,0
639,-1.0,3.0,3.0,6.0,2.0,-11.0,-2.0,0.0,1650849546969769.0,0
640,-1.0,3.0,0.0,-5.0,1.0,-3.0,-2.0,0.0,1650849546982737.0,0
641,-2.0,-6.0,-7.0,-1.0,8.0,-7.0,-5.0,-1.0,1650849546982737.0,0
642,-1.0,1.0,6.0,-1.0,-12.0,0.0,1.0,-2.0,1650849546988726.0,0
643,-1.0,-2.0,-4.0,-4.0,-7.0,-6.0,-3.0,-1.0,1650849546988726.0,0
644,1.0,5.0,6.0,4.0,6.0,4.0,0.0,0.0,1650849547005052.0,0
645,1.0,0.0,0.0,5.0,14.0,17.0,7.0,2.0,1650849547005052.0,0
646,-1.0,-2.0,1.0,1.0,4.0,-1.0,-1.0,-2.0,1650849547007021.0,0
647,0.0,-3.0,-8.0,-3.0,-6.0,-1.0,1.0,0.0,1650849547007021.0,0
648,-1.0,1.0,4.0,3.0,-7.0,-8.0,-2.0,-1.0,1650849547028031.0,0
649,0.0,-3.0,-1.0,-5.0,-4.0,-19.0,-5.0,-2.0,1650849547028031.0,0
650,-2.0,0.0,0.0,4.0,-5.0,13.0,4.0,1.0,1650849547029985.0,0
651,-1.0,1.0,6.0,3.0,19.0,-2.0,-1.0,-1.0,1650849547029985.0,0
652,1.0,11.0,-4.0,-11.0,-3.0,19.0,10.0,2.0,1650849547041932.0,0
653,-4.0,-7.0,-4.0,-2.0,-6.0,-14.0,-4.0,-2.0,1650849547041932.0,0
654,0.0,-7.0,-5.0,5.0,5.0,0.0,0.0,1.0,1650849547048907.0,0
655,0.0,14.0,5.0,1.0,-5.0,-4.0,-2.0,-2.0,1650849547048907.0,0
656,-2.0,-9.0,-6.0,2.0,3.0,-7.0,-2.0,-3.0,1650849547065890.0,0
657,0.0,2.0,4.0,0.0,-4.0,-10.0,-4.0,0.0,1650849547065890.0,0
658,-1.0,-3.0,0.0,-5.0,-10.0,4.0,-1.0,-2.0,1650849547066861.0,0
659,-1.0,-2.0,-2.0,1.0,-3.0,7.0,4.0,2.0,1650849547066861.0,0
660,0.0,3.0,4.0,5.0,8.0,6.0,0.0,1.0,1650849547087831.0,0
661,1.0,-4.0,-6.0,0.0,1.0,3.0,2.0,0.0,1650849547087831.0,0
662,-1.0,7.0,3.0,-1.0,4.0,-13.0,-6.0,-1.0,1650849547089799.0,0
663,1.0,0.0,-1.0,1.0,-12.0,-3.0,-2.0,-2.0,1650849547089799.0,0
664,-1.0,-2.0,-2.0,-2.0,1.0,5.0,-2.0,0.0,1650849547102763.0,0
665,-1.0,-6.0,6.0,2.0,4.0,0.0,1.0,-1.0,1650849547102763.0,0
666,-2.0,-4.0,-9.0,-5.0,-4.0,1.0,1.0,2.0,1650849547108748.0,0
667,-2.0,-4.0,-4.0,-1.0,3.0,3.0,-2.0,-1.0,1650849547108748.0,0
668,-2.0,6.0,3.0,-3.0,-8.0,-11.0,-4.0,-1.0,1650849547125710.0,0
669,0.0,1.0,1.0,2.0,4.0,3.0,1.0,-1.0,1650849547125710.0,0
670,-2.0,3.0,1.0,-3.0,-5.0,-1.0,-1.0,-2.0,1650849547126730.0,0
671,-2.0,-2.0,-1.0,-3.0,-22.0,-9.0,-1.0,0.0,1650849547126730.0,0
672,1.0,-4.0,1.0,4.0,19.0,15.0,3.0,1.0,1650849547147759.0,0
673,0.0,1.0,0.0,-4.0,-7.0,2.0,0.0,1.0,1650849547147759.0,0
674,-1.0,-3.0,-1.0,-2.0,3.0,2.0,0.0,-1.0,1650849547149727.0,0
675,0.0,-3.0,-8.0,-3.0,-6.0,-13.0,-3.0,-2.0,1650849547149727.0,0
676,1.0,-1.0,-2.0,0.0,-5.0,2.0,1.0,-2.0,1650849547162759.0,0
677,1.0,3.0,2.0,5.0,14.0,16.0,1.0,0.0,1650849547162759.0,0
678,0.0,-2.0,4.0,2.0,0.0,-5.0,-1.0,-1.0,1650849547168706.0,0
679,0.0,2.0,-1.0,0.0,14.0,-5.0,-3.0,-1.0,1650849547168706.0,0
680,0.0,-2.0,-2.0,0.0,-10.0,7.0,4.0,0.0,1650849547185658.0,0
681,-1.0,-1.0,-3.0,-5.0,-4.0,1.0,1.0,1.0,1650849547185658.0,0
682,0.0,-2.0,-3.0,4.0,7.0,0.0,0.0,-1.0,1650849547186648.0,0
683,1.0,-2.0,0.0,-4.0,-3.0,-1.0,2.0,1.0,1650849547186648.0,0
684,-1.0,-1.0,4.0,7.0,-6.0,-17.0,-4.0,-1.0,1650849547208128.0,0
685,-1.0,0.0,-1.0,-1.0,5.0,5.0,0.0,-1.0,1650849547208128.0,0
686,0.0,0.0,0.0,-5.0,-3.0,9.0,3.0,0.0,1650849547209118.0,0
687,-2.0,0.0,0.0,3.0,9.0,9.0,0.0,-2.0,1650849547209118.0,0
688,-2.0,-2.0,-2.0,-9.0,-13.0,-7.0,-2.0,-4.0,1650849547222109.0,0
689,1.0,2.0,1.0,-2.0,0.0,-19.0,0.0,3.0,1650849547222109.0,0
690,0.0,0.0,-4.0,9.0,2.0,7.0,-3.0,1.0,1650849547229128.0,0
691,0.0,-3.0,4.0,1.0,7.0,12.0,4.0,1.0,1650849547229128.0,0
692,-1.0,0.0,1.0,-3.0,-5.0,-9.0,-3.0,-1.0,1650849547245975.0,0
693,0.0,-1.0,-5.0,-2.0,4.0,1.0,-1.0,-1.0,1650849547245975.0,0
694,-3.0,-2.0,0.0,-4.0,-6.0,-9.0,-4.0,-2.0,1650849547247314.0,0
695,0.0,0.0,-1.0,-2.0,-6.0,-4.0,-2.0,0.0,1650849547247314.0,0
696,-1.0,0.0,4.0,6.0,7.0,5.0,1.0,0.0,1650849547268374.0,0
697,-2.0,-2.0,-8.0,-6.0,-9.0,-5.0,-1.0,-1.0,1650849547268374.0,0
698,0.0,-2.0,-2.0,-7.0,-1.0,-5.0,1.0,1.0,1650849547270368.0,0
699,-1.0,-3.0,3.0,5.0,-2.0,5.0,0.0,-1.0,1650849547270368.0,0
700,1.0,2.0,3.0,3.0,4.0,-1.0,1.0,2.0,1650849547281402.0,0
701,-1.0,-2.0,1.0,4.0,-7.0,-5.0,-2.0,-2.0,1650849547281402.0,0
702,1.0,0.0,-2.0,-5.0,2.0,-4.0,-1.0,0.0,1650849547290315.0,0
703,-1.0,-1.0,7.0,2.0,0.0,2.0,2.0,-2.0,1650849547290315.0,0
704,-1.0,0.0,-3.0,1.0,11.0,4.0,-1.0,0.0,1650849547305302.0,0
705,0.0,-2.0,-5.0,-8.0,-8.0,4.0,-1.0,0.0,1650849547305302.0,0
706,0.0,0.0,-2.0,0.0,-8.0,-14.0,-3.0,0.0,1650849547307271.0,0
707,0.0,1.0,-1.0,9.0,6.0,1.0,0.0,1.0,1650849547307271.0,0
708,2.0,-3.0,-1.0,-5.0,-2.0,7.0,-1.0,1.0,1650849547328283.0,0
709,1.0,3.0,2.0,2.0,4.0,-1.0,-1.0,0.0,1650849547328283.0,0
710,-2.0,-4.0,-1.0,-2.0,-7.0,2.0,0.0,-1.0,1650849547329239.0,0
711,-1.0,2.0,-2.0,-3.0,-11.0,-1.0,-1.0,-2.0,1650849547329239.0,0
712,-2.0,-2.0,-4.0,2.0,15.0,-3.0,-2.0,-1.0,1650849547341181.0,0
713,-2.0,-2.0,-4.0,-5.0,-16.0,-19.0,-4.0,-2.0,1650849547341181.0,0
714,2.0,1.0,4.0,5.0,7.0,25.0,11.0,3.0,1650849547350155.0,0
715,0.0,1.0,-1.0,-5.0,15.0,21.0,6.0,2.0,1650849547350155.0,0
716,-1.0,-3.0,-2.0,1.0,-12.0,-14.0,-6.0,-2.0,1650849547365115.0,0
717,1.0,4.0,4.0,2.0,18.0,11.0,3.0,2.0,1650849547365115.0,0
718,-1.0,-3.0,-3.0,-1.0,-7.0,-9.0,-5.0,-1.0,1650849547367110.0,0
719,-1.0,-2.0,3.0,11.0,-3.0,-4.0,-2.0,-3.0,1650849547367110.0,0
720,0.0,0.0,-1.0,-1.0,-10.0,-9.0,-2.0,-2.0,1650849547388082.0,0
721,-1.0,-1.0,-6.0,-8.0,-5.0,2.0,-2.0,0.0,1650849547388082.0,0
722,0.0,0.0,1.0,-9.0,3.0,1.0,2.0,0.0,1650849547390061.0,0
723,2.0,0.0,0.0,-6.0,-7.0,-3.0,1.0,2.0,1650849547390061.0,0
724,1.0,-1.0,1.0,9.0,6.0,0.0,-2.0,1.0,1650849547402016.0,0
725,0.0,-1.0,2.0,2.0,-4.0,0.0,-3.0,-1.0,1650849547402016.0,0
726,-2.0,1.0,-3.0,0.0,4.0,-4.0,-2.0,0.0,1650849547410993.0,0
727,-1.0,-2.0,-4.0,-6.0,-6.0,3.0,3.0,0.0,1650849547410993.0,0
728,-1.0,0.0,1.0,-4.0,-5.0,-2.0,0.0,1.0,1650849547424955.0,0
729,-1.0,0.0,-3.0,3.0,8.0,6.0,2.0,-1.0,1650849547424955.0,0
730,-1.0,-1.0,-4.0,-1.0,-10.0,-24.0,-6.0,-3.0,1650849547426950.0,0
731,-1.0,0.0,3.0,0.0,2.0,11.0,-1.0,-1.0,1650849547426950.0,0
732,0.0,0.0,7.0,4.0,2.0,3.0,2.0,1.0,1650849547447963.0,0
733,-1.0,-3.0,-3.0,0.0,-3.0,-1.0,1.0,-1.0,1650849547447963.0,0
734,1.0,1.0,-2.0,3.0,12.0,11.0,1.0,1.0,1650849547449892.0,0
735,0.0,-2.0,-5.0,-4.0,-1.0,-16.0,-6.0,-2.0,1650849547449892.0,0
736,-1.0,-1.0,-6.0,-3.0,-5.0,-2.0,-1.0,-1.0,1650849547461977.0,0
737,0.0,0.0,2.0,-5.0,-8.0,-2.0,-1.0,-1.0,1650849547461977.0,0
738,-3.0,-3.0,-2.0,3.0,1.0,-1.0,0.0,-1.0,1650849547470957.0,0
739,0.0,2.0,-1.0,-12.0,4.0,1.0,-2.0,0.0,1650849547470957.0,0
740,0.0,-2.0,-5.0,6.0,0.0,-3.0,1.0,1.0,1650849547485936.0,0
741,0.0,-2.0,8.0,17.0,-14.0,-5.0,0.0,-1.0,1650849547485936.0,0
742,0.0,-2.0,4.0,-17.0,6.0,10.0,2.0,-1.0,1650849547486914.0,0
743,-2.0,-1.0,-2.0,7.0,5.0,2.0,0.0,-1.0,1650849547486914.0,0
744,-1.0,1.0,-2.0,-1.0,-3.0,-5.0,-9.0,-8.0,1650849547507885.0,0
745,3.0,1.0,-3.0,-4.0,0.0,-4.0,-5.0,-4.0,1650849547507885.0,0
746,-1.0,-2.0,-3.0,-5.0,-13.0,1.0,13.0,9.0,1650849547509862.0,0
747,0.0,0.0,-5.0,-18.0,-8.0,-16.0,-6.0,-1.0,1650849547509862.0,0
748,-1.0,0.0,-2.0,2.0,8.0,21.0,13.0,10.0,1650849547521848.0,0
749,2.0,2.0,6.0,11.0,-4.0,-5.0,0.0,0.0,1650849547521848.0,0
750,-2.0,-1.0,1.0,8.0,11.0,-2.0,-9.0,-9.0,1650849547530796.0,0
751,-6.0,-5.0,-3.0,0.0,4.0,9.0,-3.0,-6.0,1650849547530796.0,0
752,-5.0,1.0,-2.0,-9.0,-6.0,4.0,-13.0,-14.0,1650849547545974.0,0
753,-1.0,-10.0,-6.0,-1.0,7.0,5.0,9.0,1.0,1650849547545974.0,0
754,3.0,3.0,0.0,-1.0,-7.0,1.0,11.0,9.0,1650849547546785.0,0
755,-2.0,-4.0,-1.0,3.0,-7.0,-26.0,-11.0,1.0,1650849547546785.0,0
756,2.0,0.0,0.0,-6.0,-2.0,-3.0,-15.0,-1.0,1650849547567873.0,0
757,-4.0,0.0,-2.0,-9.0,-3.0,5.0,-5.0,-14.0,1650849547567873.0,0
758,9.0,12.0,7.0,10.0,9.0,4.0,21.0,24.0,1650849547569839.0,0
759,-10.0,-11.0,-7.0,5.0,3.0,9.0,-18.0,-28.0,1650849547569839.0,0
760,0.0,-1.0,0.0,-6.0,-9.0,-7.0,9.0,10.0,1650849547581872.0,0
761,12.0,7.0,4.0,-4.0,2.0,3.0,20.0,25.0,1650849547581872.0,0
762,-3.0,-1.0,-6.0,2.0,-1.0,-6.0,-23.0,-19.0,1650849547590783.0,0
763,0.0,7.0,7.0,1.0,0.0,-2.0,5.0,9.0,1650849547590783.0,0
764,-2.0,-7.0,-11.0,-4.0,-1.0,-3.0,-1.0,-9.0,1650849547605907.0,0
765,5.0,11.0,4.0,0.0,4.0,8.0,4.0,-2.0,1650849547605907.0,0
766,-9.0,-4.0,9.0,8.0,-2.0,8.0,-8.0,-4.0,1650849547606903.0,0
767,-17.0,-4.0,-6.0,-1.0,1.0,-1.0,3.0,-3.0,1650849547606903.0,0
768,5.0,0.0,1.0,-2.0,-1.0,-8.0,4.0,4.0,1650849547627916.0,0
769,1.0,0.0,-7.0,-2.0,-2.0,-2.0,6.0,5.0,1650849547627916.0,0
770,-15.0,-2.0,-1.0,4.0,-1.0,-4.0,-6.0,-4.0,1650849547629842.0,0
771,1.0,-3.0,1.0,-5.0,4.0,1.0,-7.0,-5.0,1650849547629842.0,0
772,9.0,-5.0,-5.0,-5.0,-15.0,-2.0,6.0,-2.0,1650849547641810.0,0
773,-8.0,-2.0,-2.0,1.0,13.0,10.0,14.0,15.0,1650849547641810.0,0
774,22.0,3.0,0.0,0.0,-1.0,2.0,-6.0,-10.0,1650849547650786.0,0
775,4.0,3.0,-2.0,-3.0,-8.0,-26.0,0.0,6.0,1650849547650786.0,0
776,-11.0,2.0,1.0,1.0,4.0,42.0,10.0,-6.0,1650849547665774.0,0
777,5.0,0.0,-2.0,-2.0,2.0,-12.0,-18.0,-4.0,1650849547665774.0,0
778,3.0,-5.0,-3.0,-3.0,-3.0,-8.0,-4.0,-7.0,1650849547666752.0,0
779,-18.0,-6.0,1.0,3.0,-3.0,4.0,11.0,9.0,1650849547666752.0,0
780,19.0,4.0,0.0,2.0,2.0,-24.0,-7.0,1.0,1650849547687714.0,0
781,11.0,-3.0,2.0,-2.0,-3.0,11.0,-7.0,-4.0,1650849547687714.0,0
782,-39.0,-7.0,-6.0,-4.0,2.0,9.0,6.0,-4.0,1650849547689685.0,0
783,32.0,4.0,0.0,-3.0,-6.0,-2.0,5.0,5.0,1650849547689685.0,0
784,-27.0,6.0,7.0,3.0,8.0,-5.0,-1.0,3.0,1650849547710638.0,0
785,9.0,-2.0,0.0,0.0,-5.0,-6.0,-5.0,-3.0,1650849547710638.0,0
786,-6.0,-3.0,-6.0,-6.0,-1.0,-7.0,0.0,7.0,1650849547712621.0,0
787,10.0,9.0,12.0,9.0,2.0,14.0,0.0,-4.0,1650849547712621.0,0
788,-16.0,-10.0,-6.0,-4.0,-3.0,-5.0,2.0,-4.0,1650849547725587.0,0
789,-38.0,2.0,-5.0,-1.0,0.0,-3.0,-6.0,-6.0,1650849547725587.0,0
790,35.0,3.0,3.0,-2.0,-2.0,3.0,2.0,11.0,1650849547726584.0,0
791,-18.0,-4.0,-3.0,-8.0,-1.0,1.0,1.0,-1.0,1650849547726584.0,0
792,3.0,0.0,1.0,5.0,5.0,0.0,-1.0,0.0,1650849547747685.0,0
793,-17.0,-4.0,5.0,3.0,-6.0,-10.0,-10.0,-10.0,1650849547747685.0,0
794,34.0,5.0,-2.0,-1.0,-11.0,-4.0,-1.0,0.0,1650849547749613.0,0
795,-45.0,-4.0,0.0,7.0,11.0,7.0,3.0,4.0,1650849547749613.0,0
796,-2.0,-5.0,-10.0,-9.0,1.0,-5.0,-3.0,-13.0,1650849547770577.0,0
797,16.0,0.0,0.0,0.0,-1.0,0.0,0.0,7.0,1650849547770577.0,0
798,16.0,1.0,-7.0,-1.0,-13.0,-20.0,-5.0,5.0,1650849547772557.0,0
799,-41.0,-1.0,5.0,2.0,11.0,18.0,6.0,-2.0,1650849547772557.0,0
800,1.0,5.0,0.0,2.0,4.0,16.0,9.0,8.0,1650849547785545.0,0
801,-1.0,-3.0,5.0,3.0,-4.0,-7.0,-2.0,-9.0,1650849547785545.0,0
802,-3.0,-5.0,-3.0,-5.0,0.0,-2.0,-2.0,-8.0,1650849547787511.0,0
803,13.0,-4.0,-8.0,-5.0,-9.0,-16.0,-4.0,6.0,1650849547787511.0,0
804,-6.0,-1.0,4.0,3.0,4.0,-4.0,-8.0,-6.0,1650849547808455.0,0
805,-22.0,1.0,5.0,-4.0,1.0,8.0,1.0,4.0,1650849547808455.0,0
806,-8.0,2.0,9.0,5.0,2.0,0.0,9.0,-4.0,1650849547809453.0,0
807,39.0,-9.0,-9.0,2.0,-2.0,-1.0,5.0,0.0,1650849547809453.0,0
808,2.0,7.0,-1.0,-4.0,-5.0,3.0,-6.0,-2.0,1650849547830466.0,0
809,25.0,-8.0,-5.0,-3.0,-5.0,-12.0,3.0,9.0,1650849547830466.0,0
810,-32.0,3.0,3.0,0.0,-5.0,5.0,2.0,-1.0,1650849547832408.0,0
811,20.0,-6.0,8.0,14.0,10.0,11.0,-1.0,-23.0,1650849547832408.0,0
812,-9.0,3.0,1.0,-1.0,-4.0,-7.0,-2.0,26.0,1650849547845925.0,0
813,2.0,-1.0,-4.0,-5.0,-5.0,-11.0,-1.0,-7.0,1650849547845925.0,0
814,-57.0,-9.0,-7.0,-7.0,6.0,7.0,-10.0,-14.0,1650849547847401.0,0
815,36.0,12.0,-9.0,-1.0,-1.0,6.0,6.0,5.0,1650849547847401.0,0
816,28.0,-1.0,9.0,-5.0,-14.0,-10.0,0.0,4.0,1650849547868488.0,0
817,-10.0,-9.0,-22.0,-2.0,8.0,2.0,-4.0,-6.0,1650849547868488.0,0
818,-10.0,1.0,10.0,-2.0,-2.0,-8.0,0.0,5.0,1650849547869496.0,0
819,-16.0,0.0,0.0,-3.0,-7.0,-4.0,-2.0,-4.0,1650849547869496.0,0
820,-14.0,-6.0,2.0,9.0,13.0,3.0,2.0,-3.0,1650849547890429.0,0
821,17.0,10.0,6.0,-3.0,-1.0,-4.0,-2.0,7.0,1650849547890429.0,0
822,11.0,3.0,-6.0,1.0,3.0,23.0,0.0,-1.0,1650849547892425.0,0
823,6.0,-12.0,-4.0,-16.0,-2.0,-7.0,2.0,-1.0,1650849547892425.0,0
824,5.0,-1.0,-13.0,-12.0,-10.0,-5.0,-4.0,0.0,1650849547905390.0,0
825,22.0,-5.0,16.0,-2.0,5.0,6.0,-1.0,-4.0,1650849547905390.0,2
826,-21.0,4.0,24.0,39.0,14.0,0.0,6.0,-1.0,1650849547911440.0,2
827,-26.0,8.0,9.0,-9.0,-8.0,-3.0,-6.0,-3.0,1650849547911440.0,2
828,-2.0,-2.0,13.0,-2.0,-6.0,-18.0,-1.0,-1.0,1650849547928334.0,2
829,-2.0,-1.0,-36.0,-6.0,6.0,20.0,0.0,4.0,1650849547928334.0,2
830,40.0,-2.0,-1.0,-6.0,3.0,5.0,-6.0,1.0,1650849547929331.0,2
831,-17.0,-7.0,5.0,-1.0,1.0,-1.0,1.0,-17.0,1650849547929331.0,2
832,-3.0,-6.0,5.0,3.0,-2.0,-5.0,1.0,-1.0,1650849547950368.0,2
833,29.0,10.0,0.0,-1.0,-7.0,-3.0,-4.0,4.0,1650849547950368.0,2
834,13.0,2.0,-10.0,-6.0,-2.0,-10.0,2.0,0.0,1650849547952364.0,2
835,-19.0,7.0,6.0,7.0,3.0,2.0,2.0,11.0,1650849547952364.0,2
836,22.0,-18.0,-15.0,-5.0,0.0,7.0,-2.0,-11.0,1650849547964501.0,2
837,-24.0,-3.0,-7.0,9.0,-4.0,-11.0,-7.0,-2.0,1650849547964501.0,2
838,5.0,0.0,1.0,-15.0,-4.0,-2.0,9.0,1.0,1650849547979530.0,2
839,12.0,6.0,6.0,1.0,1.0,7.0,-2.0,11.0,1650849547979530.0,2
840,-4.0,2.0,2.0,16.0,10.0,3.0,1.0,-5.0,1650849547988478.0,2
841,-19.0,-2.0,17.0,12.0,-9.0,-9.0,-8.0,-4.0,1650849547988478.0,2
842,2.0,0.0,4.0,8.0,20.0,1.0,-4.0,-2.0,1650849547989437.0,2
843,-8.0,-9.0,-22.0,-20.0,-18.0,-7.0,4.0,12.0,1650849547989437.0,2
844,-7.0,-3.0,-8.0,-9.0,4.0,9.0,1.0,-3.0,1650849548010480.0,2
845,25.0,1.0,3.0,-10.0,-3.0,-2.0,4.0,-12.0,1650849548010480.0,2
846,-46.0,2.0,16.0,10.0,-5.0,-10.0,-6.0,-4.0,1650849548012483.0,2
847,51.0,9.0,-2.0,6.0,8.0,-2.0,-1.0,9.0,1650849548012483.0,2
848,-6.0,-9.0,-7.0,-10.0,-3.0,3.0,-2.0,6.0,1650849548024422.0,2
849,-26.0,0.0,10.0,-3.0,-3.0,0.0,4.0,-9.0,1650849548024422.0,2
850,22.0,-8.0,-25.0,-19.0,-6.0,-1.0,-1.0,14.0,1650849548031466.0,2
851,-11.0,-7.0,6.0,9.0,2.0,3.0,-11.0,-1.0,1650849548031466.0,2
852,-7.0,2.0,-12.0,-7.0,-6.0,-9.0,19.0,-12.0,1650849548047958.0,2
853,14.0,1.0,16.0,13.0,6.0,5.0,-1.0,4.0,1650849548047958.0,2
854,-22.0,5.0,6.0,1.0,0.0,7.0,3.0,-1.0,1650849548049914.0,2
855,-80.0,-12.0,-22.0,-13.0,-8.0,-15.0,3.0,-8.0,1650849548049914.0,2
856,10.0,4.0,-1.0,-4.0,-2.0,5.0,-7.0,4.0,1650849548070974.0,2
857,31.0,5.0,-7.0,-7.0,6.0,3.0,6.0,-4.0,1650849548070974.0,2
858,29.0,8.0,14.0,22.0,8.0,9.0,-8.0,6.0,1650849548071949.0,2
859,10.0,-2.0,13.0,-9.0,-2.0,-5.0,-9.0,-12.0,1650849548071949.0,2
860,33.0,9.0,-48.0,-14.0,-13.0,-13.0,-1.0,10.0,1650849548084942.0,2
861,-10.0,-3.0,5.0,9.0,-1.0,-3.0,3.0,1.0,1650849548084942.0,2
862,11.0,-14.0,-11.0,-20.0,-8.0,2.0,0.0,-3.0,1650849548098965.0,2
863,18.0,9.0,13.0,6.0,9.0,3.0,0.0,2.0,1650849548098965.0,2
864,-7.0,5.0,36.0,32.0,5.0,10.0,14.0,2.0,1650849548107905.0,2
865,-2.0,-2.0,-21.0,-12.0,1.0,-6.0,-13.0,6.0,1650849548107905.0,2
866,-28.0,-3.0,-2.0,-10.0,-10.0,-8.0,0.0,-8.0,1650849548109875.0,2
867,36.0,9.0,-13.0,-6.0,2.0,3.0,-5.0,9.0,1650849548109875.0,2
868,-7.0,-1.0,7.0,1.0,0.0,2.0,11.0,2.0,1650849548145843.0,2
869,-26.0,-13.0,-5.0,-1.0,-2.0,0.0,-1.0,-8.0,1650849548145843.0,2
870,-5.0,1.0,2.0,3.0,-1.0,2.0,1.0,7.0,1650849548147798.0,2
871,14.0,3.0,-4.0,-6.0,-12.0,-12.0,0.0,-3.0,1650849548147798.0,2
872,28.0,4.0,0.0,1.0,13.0,13.0,-13.0,9.0,1650849548152758.0,2
873,13.0,-4.0,-7.0,2.0,-4.0,-6.0,9.0,-1.0,1650849548152758.0,2
874,60.0,4.0,-7.0,-9.0,4.0,8.0,1.0,-1.0,1650849548154753.0,2
875,72.0,16.0,4.0,7.0,3.0,0.0,-1.0,1.0,1650849548154753.0,2
876,-17.0,-5.0,17.0,16.0,-4.0,-13.0,-12.0,-3.0,1650849548167745.0,2
877,5.0,-5.0,-2.0,-6.0,-3.0,10.0,3.0,0.0,1650849548167745.0,2
878,-39.0,2.0,-2.0,3.0,-7.0,-8.0,8.0,-4.0,1650849548169733.0,2
879,-9.0,-6.0,-20.0,-10.0,1.0,4.0,2.0,-1.0,1650849548169733.0,2
880,-12.0,-1.0,10.0,-5.0,2.0,-1.0,-9.0,-7.0,1650849548190660.0,2
881,-24.0,8.0,5.0,6.0,-7.0,-5.0,-10.0,0.0,1650849548190660.0,2
882,-1.0,-9.0,-9.0,-1.0,-3.0,-7.0,-12.0,-14.0,1650849548191654.0,2
883,12.0,1.0,8.0,5.0,5.0,15.0,12.0,18.0,1650849548191654.0,2
884,-23.0,-10.0,-6.0,-7.0,-3.0,-5.0,-8.0,-10.0,1650849548204618.0,2
885,-17.0,-5.0,6.0,-16.0,-11.0,-10.0,-7.0,-1.0,1650849548204618.0,2
886,6.0,2.0,-13.0,-6.0,4.0,-4.0,-8.0,0.0,1650849548211622.0,2
887,-13.0,9.0,16.0,23.0,5.0,18.0,9.0,-1.0,1650849548211622.0,2
888,23.0,-9.0,0.0,-2.0,5.0,-8.0,-4.0,8.0,1650849548227558.0,2
889,19.0,3.0,5.0,-1.0,-5.0,-6.0,1.0,9.0,1650849548227558.0,2
890,30.0,1.0,-5.0,-2.0,3.0,4.0,4.0,-2.0,1650849548229553.0,2
891,-9.0,-9.0,-1.0,2.0,1.0,-2.0,-2.0,-3.0,1650849548229553.0,2
892,1.0,6.0,2.0,3.0,-5.0,3.0,1.0,-2.0,1650849548250507.0,2
893,-5.0,1.0,4.0,11.0,4.0,-1.0,4.0,1.0,1650849548250507.0,2
894,-2.0,-3.0,-3.0,-7.0,-4.0,-7.0,0.0,0.0,1650849548252490.0,2
895,-6.0,-3.0,-6.0,-15.0,1.0,3.0,-4.0,1.0,1650849548252490.0,2
896,-2.0,6.0,5.0,12.0,0.0,2.0,-2.0,-5.0,1650849548264546.0,2
897,-38.0,-9.0,1.0,6.0,9.0,7.0,-4.0,-19.0,1650849548264546.0,2
898,21.0,7.0,1.0,0.0,-6.0,-4.0,4.0,6.0,1650849548273552.0,2
899,1.0,-6.0,-1.0,1.0,-4.0,-6.0,-1.0,0.0,1650849548273552.0,2
900,-15.0,8.0,-2.0,-11.0,-2.0,-2.0,-1.0,7.0,1650849548288485.0,2
901,-61.0,-11.0,-8.0,-6.0,0.0,-5.0,7.0,-9.0,1650849548288485.0,2
902,-51.0,-7.0,-5.0,-9.0,3.0,20.0,-5.0,-16.0,1650849548289492.0,2
903,70.0,12.0,22.0,36.0,-2.0,-7.0,5.0,17.0,1650849548289492.0,2
904,-25.0,-7.0,7.0,8.0,4.0,0.0,-8.0,-7.0,1650849548310427.0,2
905,15.0,3.0,-13.0,-33.0,-7.0,1.0,-2.0,1.0,1650849548310427.0,2
906,0.0,-1.0,-16.0,-9.0,-5.0,-7.0,-1.0,0.0,1650849548312433.0,2
907,-43.0,-3.0,11.0,16.0,6.0,-11.0,-7.0,-7.0,1650849548312433.0,2
908,16.0,8.0,-1.0,-2.0,0.0,12.0,8.0,0.0,1650849548324415.0,2
909,21.0,1.0,2.0,5.0,-7.0,5.0,2.0,10.0,1650849548324415.0,2
910,45.0,-11.0,-5.0,-2.0,6.0,-4.0,3.0,8.0,1650849548333364.0,2
911,-19.0,10.0,-5.0,-16.0,-11.0,-11.0,-12.0,-14.0,1650849548333364.0,2
912,16.0,-10.0,1.0,1.0,-2.0,5.0,9.0,3.0,1650849548348473.0,2
913,-41.0,-4.0,-1.0,8.0,1.0,-5.0,0.0,-5.0,1650849548348473.0,2
914,14.0,-3.0,12.0,6.0,-3.0,3.0,-5.0,1.0,1650849548349436.0,2
915,12.0,0.0,-11.0,-2.0,-4.0,-17.0,1.0,-1.0,1650849548349436.0,2
916,-2.0,5.0,0.0,-2.0,7.0,23.0,3.0,-4.0,1650849548370406.0,2
917,19.0,-5.0,-6.0,-14.0,-8.0,-1.0,2.0,4.0,1650849548370406.0,2
918,32.0,11.0,17.0,22.0,7.0,-12.0,-1.0,6.0,1650849548372372.0,2
919,-18.0,-5.0,-10.0,-4.0,-1.0,9.0,3.0,-2.0,1650849548372372.0,2
920,-10.0,-14.0,-7.0,-14.0,2.0,-3.0,-2.0,0.0,1650849548384421.0,2
921,67.0,12.0,-1.0,1.0,3.0,4.0,-4.0,1.0,1650849548384421.0,2
922,10.0,4.0,0.0,1.0,-17.0,-8.0,2.0,6.0,1650849548393400.0,2
923,-41.0,-7.0,7.0,4.0,18.0,11.0,-3.0,-11.0,1650849548393400.0,2
924,-13.0,3.0,-9.0,-13.0,-18.0,-7.0,1.0,5.0,1650849548408387.0,2
925,-4.0,-3.0,0.0,18.0,21.0,3.0,0.0,8.0,1650849548408387.0,2
926,16.0,-3.0,0.0,8.0,-1.0,-3.0,-2.0,-17.0,1650849548414371.0,2
927,-14.0,8.0,4.0,-9.0,-8.0,4.0,0.0,12.0,1650849548414371.0,2
928,9.0,5.0,-1.0,-1.0,-6.0,-19.0,-10.0,-8.0,1650849548430368.0,2
929,-29.0,-6.0,3.0,6.0,8.0,12.0,8.0,-6.0,1650849548430368.0,2
930,-49.0,-4.0,-5.0,-11.0,-3.0,8.0,-6.0,1.0,1650849548432320.0,2
931,2.0,-5.0,-2.0,-5.0,1.0,4.0,15.0,0.0,1650849548432320.0,2
932,3.0,-2.0,3.0,8.0,0.0,-9.0,-8.0,-3.0,1650849548444265.0,2
933,-32.0,1.0,-7.0,-12.0,-18.0,-14.0,-2.0,6.0,1650849548444265.0,2
934,-16.0,1.0,7.0,11.0,11.0,-2.0,0.0,1.0,1650849548453239.0,2
935,2.0,-5.0,5.0,9.0,-6.0,-1.0,-6.0,-4.0,1650849548453239.0,2
936,-46.0,-5.0,-9.0,-10.0,0.0,-7.0,2.0,-6.0,1650849548468429.0,2
937,21.0,-3.0,2.0,2.0,6.0,17.0,3.0,2.0,1650849548468429.0,2
938,-4.0,5.0,-1.0,-6.0,-5.0,-3.0,0.0,-2.0,1650849548469426.0,2
939,-23.0,-4.0,-6.0,12.0,3.0,3.0,-1.0,-4.0,1650849548469426.0,2
940,-8.0,2.0,-3.0,-11.0,-4.0,-2.0,2.0,-3.0,1650849548490399.0,2
941,13.0,2.0,8.0,10.0,3.0,-2.0,-6.0,4.0,1650849548490399.0,2
942,-3.0,1.0,4.0,-7.0,1.0,-1.0,0.0,1.0,1650849548492385.0,2
943,9.0,2.0,-5.0,-5.0,-6.0,-11.0,-5.0,-3.0,1650849548492385.0,2
944,22.0,-13.0,-1.0,2.0,8.0,18.0,7.0,7.0,1650849548504360.0,2
945,1.0,6.0,-9.0,-11.0,6.0,5.0,-1.0,-7.0,1650849548504360.0,2
946,-14.0,-7.0,11.0,8.0,-1.0,-9.0,-2.0,0.0,1650849548513310.0,2
947,9.0,-4.0,-9.0,-3.0,-4.0,-3.0,-7.0,-9.0,1650849548513310.0,2
948,-7.0,5.0,8.0,3.0,-9.0,-5.0,3.0,0.0,1650849548528270.0,2
949,19.0,1.0,6.0,-4.0,-6.0,-8.0,1.0,3.0,1650849548528270.0,2
950,6.0,-2.0,-12.0,-4.0,4.0,15.0,2.0,2.0,1650849548529273.0,2
951,0.0,-6.0,-10.0,-10.0,-5.0,-12.0,-7.0,-3.0,1650849548529273.0,2
952,-26.0,4.0,2.0,5.0,-10.0,-5.0,-4.0,-6.0,1650849548550210.0,2
953,5.0,-1.0,5.0,5.0,13.0,12.0,2.0,-1.0,1650849548550210.0,2
954,-14.0,1.0,-13.0,-9.0,-11.0,-15.0,-1.0,0.0,1650849548552205.0,2
955,3.0,0.0,1.0,-6.0,7.0,16.0,6.0,0.0,1650849548552205.0,2
956,12.0,3.0,3.0,-1.0,1.0,-2.0,0.0,0.0,1650849548564254.0,2
957,-27.0,-2.0,-1.0,6.0,-3.0,-10.0,-3.0,-1.0,1650849548564254.0,2
958,2.0,-5.0,-2.0,-4.0,2.0,3.0,0.0,0.0,1650849548573234.0,2
959,17.0,3.0,0.0,0.0,-4.0,-10.0,-1.0,2.0,1650849548573234.0,2
960,18.0,1.0,-2.0,-2.0,6.0,16.0,-2.0,0.0,1650849548588343.0,2
961,2.0,-4.0,0.0,-4.0,-8.0,-9.0,6.0,3.0,1650849548588343.0,2
962,9.0,3.0,-1.0,4.0,-9.0,-3.0,-1.0,-4.0,1650849548589341.0,2
963,13.0,-1.0,6.0,2.0,11.0,3.0,-1.0,3.0,1650849548589341.0,2
964,3.0,3.0,2.0,0.0,4.0,-9.0,-3.0,-4.0,1650849548610258.0,2
965,0.0,0.0,-4.0,-2.0,-1.0,22.0,13.0,14.0,1650849548610258.0,2
966,-10.0,-4.0,0.0,-5.0,-10.0,-9.0,-2.0,-7.0,1650849548612253.0,2
967,-5.0,0.0,0.0,-2.0,-2.0,-9.0,-11.0,2.0,1650849548612253.0,2
968,6.0,-1.0,-1.0,0.0,4.0,-4.0,-6.0,-7.0,1650849548624220.0,2
969,40.0,7.0,6.0,5.0,7.0,2.0,-6.0,-4.0,1650849548624220.0,2
970,1.0,0.0,10.0,9.0,-1.0,0.0,17.0,11.0,1650849548633203.0,2
971,-1.0,-8.0,-21.0,-10.0,-8.0,-3.0,-4.0,-2.0,1650849548633203.0,2
972,26.0,-2.0,3.0,1.0,0.0,-1.0,-3.0,1.0,1650849548648224.0,2
973,-3.0,0.0,-1.0,-2.0,-13.0,-17.0,-6.0,-2.0,1650849548648224.0,2
974,-6.0,0.0,5.0,1.0,16.0,22.0,-11.0,-8.0,1650849548650151.0,2
975,0.0,-1.0,-2.0,-6.0,2.0,2.0,18.0,6.0,1650849548650151.0,2
976,12.0,-2.0,-1.0,-1.0,-5.0,2.0,6.0,17.0,1650849548670125.0,2
977,-10.0,-1.0,1.0,-1.0,-6.0,-5.0,-5.0,-13.0,1650849548670125.0,2
978,-35.0,-10.0,-3.0,0.0,6.0,-6.0,-3.0,-3.0,1650849548672104.0,2
979,-9.0,-1.0,-1.0,-4.0,-7.0,-4.0,-10.0,-5.0,1650849548672104.0,2
980,-9.0,2.0,-2.0,1.0,-5.0,-9.0,0.0,0.0,1650849548693063.0,2
981,-2.0,-3.0,-5.0,-6.0,-2.0,20.0,-3.0,-1.0,1650849548693063.0,2
982,-5.0,3.0,8.0,19.0,15.0,-2.0,3.0,6.0,1650849548695031.0,2
983,2.0,1.0,5.0,-1.0,-7.0,4.0,-3.0,-3.0,1650849548695031.0,2
984,-9.0,-4.0,-8.0,-1.0,-4.0,-9.0,1.0,-4.0,1650849548708024.0,2
985,-7.0,-6.0,-5.0,-9.0,-3.0,-11.0,-2.0,3.0,1650849548708024.0,2
986,13.0,0.0,-11.0,-5.0,-8.0,1.0,-1.0,-3.0,1650849548710008.0,2
987,-2.0,0.0,8.0,8.0,9.0,1.0,1.0,2.0,1650849548710008.0,2
988,2.0,2.0,2.0,-5.0,-10.0,-16.0,-6.0,-7.0,1650849548730950.0,2
989,-5.0,-1.0,-15.0,3.0,9.0,21.0,2.0,-4.0,1650849548730950.0,2
990,4.0,0.0,1.0,2.0,2.0,3.0,2.0,4.0,1650849548731932.0,2
991,-3.0,-4.0,-2.0,-7.0,-9.0,-4.0,0.0,0.0,1650849548731932.0,2
992,-9.0,0.0,1.0,-6.0,-7.0,0.0,-2.0,-3.0,1650849548752935.0,2
993,0.0,2.0,8.0,14.0,6.0,0.0,-1.0,-3.0,1650849548752935.0,2
994,3.0,-3.0,-10.0,-7.0,4.0,-3.0,-4.0,-2.0,1650849548754888.0,2
995,-3.0,-2.0,-2.0,-4.0,-3.0,0.0,3.0,1.0,1650849548754888.0,2
996,2.0,0.0,-12.0,1.0,3.0,7.0,1.0,4.0,1650849548768007.0,2
997,-2.0,1.0,3.0,-5.0,-14.0,-33.0,-7.0,-4.0,1650849548768007.0,2
998,7.0,1.0,5.0,-3.0,-4.0,29.0,8.0,2.0,1650849548769935.0,2
999,-2.0,0.0,-2.0,2.0,11.0,8.0,-1.0,-6.0,1650849548769935.0,2
1000,0.0,1.0,2.0,4.0,4.0,2.0,4.0,3.0,1650849548790035.0,2
1001,-1.0,-1.0,7.0,-3.0,1.0,-6.0,-3.0,1.0,1650849548790035.0,2
1002,-4.0,0.0,-11.0,-4.0,-10.0,-17.0,-5.0,-2.0,1650849548792031.0,2
1003,-1.0,1.0,4.0,4.0,3.0,4.0,2.0,0.0,1650849548792031.0,2
1004,-4.0,-5.0,1.0,-2.0,-10.0,-10.0,0.0,-2.0,1650849548813043.0,2
1005,0.0,-1.0,-1.0,3.0,13.0,18.0,1.0,0.0,1650849548813043.0,2
1006,1.0,1.0,3.0,-7.0,-11.0,-6.0,-2.0,0.0,1650849548814999.0,2
1007,1.0,-1.0,-5.0,-3.0,6.0,7.0,3.0,3.0,1650849548814999.0,2
1008,1.0,1.0,3.0,3.0,2.0,-2.0,-1.0,-1.0,1650849548826936.0,2
1009,0.0,-3.0,-3.0,2.0,-1.0,-5.0,-1.0,-2.0,1650849548826936.0,2
1010,0.0,-1.0,-2.0,-5.0,4.0,-1.0,0.0,1.0,1650849548833988.0,2
1011,-4.0,1.0,11.0,6.0,-4.0,-2.0,-3.0,0.0,1650849548833988.0,2
1012,1.0,6.0,13.0,10.0,14.0,12.0,6.0,1.0,1650849548850900.0,2
1013,-5.0,-10.0,-32.0,-20.0,-16.0,-8.0,-4.0,-3.0,1650849548850900.0,2
1014,1.0,0.0,-1.0,3.0,3.0,-5.0,2.0,-1.0,1650849548851871.0,2
1015,-2.0,0.0,0.0,-1.0,-2.0,-4.0,-3.0,-2.0,1650849548851871.0,2
1016,-1.0,-1.0,4.0,2.0,5.0,0.0,-2.0,-2.0,1650849548873231.0,2
1017,0.0,5.0,9.0,2.0,3.0,16.0,1.0,1.0,1650849548873231.0,2
1018,0.0,-2.0,-2.0,-4.0,-5.0,-13.0,-3.0,2.0,1650849548874228.0,2
1019,1.0,0.0,-4.0,-6.0,-5.0,-1.0,2.0,1.0,1650849548874228.0,2
1020,0.0,0.0,-1.0,-4.0,-2.0,3.0,-1.0,1.0,1650849548887221.0,2
1021,0.0,-1.0,-6.0,0.0,-1.0,-13.0,-1.0,-1.0,1650849548887221.0,2
1022,-2.0,0.0,3.0,1.0,9.0,22.0,1.0,0.0,1650849548894174.0,2
1023,0.0,0.0,4.0,7.0,4.0,-1.0,0.0,-2.0,1650849548894174.0,2
1024,-2.0,-4.0,0.0,2.0,-3.0,-1.0,0.0,-3.0,1650849548910160.0,2
1025,-1.0,0.0,-7.0,-4.0,-1.0,-7.0,-2.0,-2.0,1650849548910160.0,2
1026,1.0,-3.0,-4.0,-3.0,-11.0,-4.0,-1.0,1.0,1650849548912139.0,2
1027,-2.0,1.0,3.0,1.0,7.0,3.0,0.0,-3.0,1650849548912139.0,2
1028,1.0,-2.0,-8.0,0.0,3.0,3.0,2.0,2.0,1650849548933190.0,2
1029,0.0,-1.0,7.0,6.0,0.0,-6.0,-2.0,-2.0,1650849548933190.0,2
1030,1.0,-2.0,-1.0,-2.0,-1.0,5.0,0.0,0.0,1650849548934210.0,2
1031,2.0,-2.0,-11.0,-9.0,-8.0,-8.0,-1.0,-1.0,1650849548934210.0,2
1032,-3.0,-2.0,-1.0,-1.0,-3.0,-3.0,-4.0,-3.0,1650849548947226.0,2
1033,0.0,0.0,11.0,7.0,10.0,14.0,4.0,2.0,1650849548947226.0,2
1034,0.0,1.0,4.0,2.0,-2.0,-9.0,-4.0,-2.0,1650849548954163.0,2
1035,-1.0,-2.0,-2.0,-3.0,-10.0,-5.0,-3.0,-2.0,1650849548954163.0,2
1036,-3.0,-4.0,-6.0,-3.0,0.0,-2.0,-1.0,-2.0,1650849548970180.0,2
1037,0.0,-1.0,-1.0,0.0,-1.0,-7.0,-1.0,1.0,1650849548970180.0,2
1038,-1.0,-2.0,-4.0,-3.0,4.0,6.0,1.0,0.0,1650849548972175.0,2
1039,0.0,3.0,11.0,11.0,-1.0,8.0,1.0,-2.0,1650849548972175.0,2
1040,1.0,4.0,5.0,-7.0,7.0,6.0,2.0,4.0,1650849548993103.0,2
1041,-1.0,2.0,10.0,8.0,-2.0,-4.0,-1.0,-2.0,1650849548993103.0,2
1042,-3.0,-4.0,-9.0,-6.0,-2.0,-14.0,-3.0,-2.0,1650849548995072.0,2
1043,3.0,-4.0,-19.0,-5.0,10.0,15.0,3.0,1.0,1650849548995072.0,2
1044,-2.0,2.0,8.0,3.0,-1.0,1.0,-2.0,-3.0,1650849549007065.0,2
1045,-1.0,1.0,3.0,-3.0,-8.0,-1.0,1.0,1.0,1650849549007065.0,2
1046,-3.0,-2.0,-2.0,-3.0,2.0,-4.0,-3.0,-3.0,1650849549014572.0,2
1047,7.0,2.0,-3.0,-6.0,-7.0,-11.0,3.0,6.0,1650849549014572.0,2
1048,0.0,-2.0,-1.0,6.0,0.0,6.0,1.0,1.0,1650849549031007.0,2
1049,0.0,-4.0,-5.0,-4.0,3.0,1.0,0.0,0.0,1650849549031007.0,2
1050,-2.0,0.0,3.0,1.0,-7.0,-7.0,-2.0,-2.0,1650849549031991.0,2
1051,-8.0,-2.0,0.0,-10.0,-8.0,-13.0,-2.0,-6.0,1650849549031991.0,2
1052,3.0,2.0,1.0,15.0,15.0,31.0,5.0,-2.0,1650849549052961.0,2
1053,0.0,2.0,2.0,3.0,0.0,-1.0,0.0,-1.0,1650849549052961.0,2
1054,1.0,-1.0,-2.0,-6.0,-5.0,-5.0,-2.0,2.0,1650849549054949.0,2
1055,-2.0,-1.0,-1.0,-6.0,-8.0,-8.0,-3.0,1.0,1650849549054949.0,2
1056,-8.0,-3.0,1.0,-5.0,-9.0,-13.0,-4.0,-2.0,1650849549066985.0,2
1057,-2.0,-1.0,-2.0,-2.0,1.0,-6.0,-1.0,-3.0,1650849549066985.0,2
1058,1.0,2.0,-1.0,1.0,1.0,14.0,4.0,2.0,1650849549073996.0,2
1059,-1.0,1.0,-5.0,-4.0,0.0,-2.0,-3.0,-1.0,1650849549073996.0,2
1060,-6.0,-6.0,-1.0,3.0,6.0,-1.0,-1.0,-3.0,1650849549090562.0,2
1061,1.0,0.0,4.0,2.0,-4.0,6.0,3.0,2.0,1650849549090562.0,2
1062,8.0,7.0,-2.0,-2.0,-2.0,-9.0,-2.0,1.0,1650849549092510.0,2
1063,2.0,-6.0,1.0,-2.0,-1.0,4.0,2.0,3.0,1650849549092510.0,2
1064,-2.0,0.0,-6.0,-4.0,8.0,2.0,-1.0,-1.0,1650849549112735.0,2
1065,-7.0,-5.0,-1.0,-4.0,-7.0,-17.0,-5.0,-5.0,1650849549112735.0,2
1066,-8.0,-2.0,6.0,9.0,4.0,17.0,1.0,-5.0,1650849549114715.0,2
1067,-1.0,4.0,7.0,6.0,-4.0,-3.0,-3.0,-5.0,1650849549114715.0,2
1068,-2.0,-9.0,-6.0,-3.0,-5.0,-11.0,-2.0,0.0,1650849549127695.0,2
1069,13.0,8.0,-3.0,-1.0,2.0,6.0,4.0,12.0,1650849549127695.0,2
1070,1.0,2.0,-1.0,0.0,1.0,-2.0,2.0,0.0,1650849549134703.0,2
1071,-4.0,2.0,7.0,3.0,3.0,5.0,-3.0,-2.0,1650849549134703.0,2
1072,-4.0,-1.0,-3.0,-7.0,-8.0,-16.0,-4.0,-4.0,1650849549150616.0,2
1073,-5.0,-7.0,-3.0,-1.0,-5.0,-1.0,-5.0,-6.0,1650849549150616.0,2
1074,2.0,3.0,1.0,2.0,1.0,14.0,7.0,2.0,1650849549152601.0,2
1075,-5.0,-4.0,2.0,6.0,11.0,5.0,2.0,0.0,1650849549152601.0,2
1076,10.0,9.0,5.0,-5.0,-7.0,-6.0,1.0,2.0,1650849549180647.0,2
1077,3.0,0.0,-2.0,0.0,6.0,-4.0,-2.0,1.0,1650849549180647.0,2
1078,-3.0,-8.0,-4.0,-4.0,-3.0,-8.0,-5.0,-2.0,1650849549181645.0,2
1079,-4.0,-2.0,1.0,0.0,-3.0,1.0,-3.0,0.0,1650849549181645.0,2
1080,-2.0,-1.0,-3.0,-3.0,-7.0,-21.0,-3.0,-2.0,1650849549186632.0,2
1081,0.0,1.0,0.0,2.0,17.0,44.0,8.0,2.0,1650849549186632.0,2
1082,-4.0,-4.0,-1.0,-1.0,-8.0,-11.0,-4.0,-2.0,1650849549195608.0,2
1083,-2.0,-1.0,-4.0,-3.0,1.0,2.0,2.0,1.0,1650849549195608.0,2
1084,5.0,2.0,-1.0,-3.0,-3.0,-8.0,-1.0,0.0,1650849549210686.0,2
1085,0.0,2.0,5.0,6.0,-1.0,-8.0,-1.0,-3.0,1650849549210686.0,2
1086,3.0,-2.0,6.0,1.0,10.0,13.0,3.0,3.0,1650849549212704.0,2
1087,-1.0,-1.0,-3.0,-7.0,-10.0,-7.0,-2.0,0.0,1650849549212704.0,2
1088,-1.0,-2.0,-4.0,3.0,4.0,7.0,-2.0,0.0,1650849549232695.0,2
1089,-5.0,-2.0,2.0,1.0,-3.0,-4.0,-2.0,-3.0,1650849549232695.0,2
1090,-3.0,-4.0,2.0,5.0,6.0,-1.0,-2.0,-3.0,1650849549234622.0,2
1091,9.0,5.0,-11.0,-14.0,-6.0,-4.0,1.0,3.0,1650849549234622.0,2
1092,-3.0,-8.0,4.0,7.0,-5.0,0.0,-1.0,-1.0,1650849549247587.0,2
1093,-2.0,-1.0,3.0,-2.0,2.0,5.0,-2.0,-3.0,1650849549247587.0,2
1094,-1.0,-1.0,-9.0,1.0,0.0,-2.0,0.0,1.0,1650849549255566.0,2
1095,-1.0,-1.0,0.0,3.0,8.0,2.0,1.0,-1.0,1650849549255566.0,2
1096,-3.0,0.0,-9.0,-9.0,-8.0,-15.0,-3.0,-2.0,1650849549270631.0,2
1097,0.0,1.0,-2.0,1.0,0.0,21.0,8.0,2.0,1650849549270631.0,2
1098,4.0,2.0,4.0,1.0,6.0,-2.0,-2.0,1.0,1650849549272623.0,2
1099,-3.0,-3.0,-4.0,-2.0,-14.0,-3.0,-3.0,-2.0,1650849549272623.0,2
1100,1.0,3.0,-4.0,3.0,11.0,5.0,2.0,2.0,1650849549292979.0,2
1101,-1.0,-2.0,3.0,0.0,-6.0,-22.0,-6.0,-1.0,1650849549292979.0,2
1102,0.0,2.0,-2.0,-5.0,-4.0,6.0,3.0,0.0,1650849549294975.0,2
1103,0.0,-1.0,-1.0,3.0,2.0,2.0,1.0,-1.0,1650849549294975.0,2
1104,-1.0,2.0,8.0,8.0,4.0,6.0,-1.0,-1.0,1650849549306941.0,2
1105,-1.0,1.0,-6.0,-3.0,-4.0,-6.0,-2.0,-1.0,1650849549306941.0,2
1106,-3.0,-3.0,-3.0,-6.0,-8.0,-3.0,0.0,2.0,1650849549315364.0,2
1107,2.0,-3.0,-2.0,-1.0,5.0,-3.0,-2.0,-2.0,1650849549315364.0,2
1108,0.0,1.0,-3.0,-3.0,1.0,8.0,4.0,1.0,1650849549330394.0,2
1109,-2.0,-3.0,9.0,4.0,1.0,0.0,-1.0,-1.0,1650849549330394.0,2
1110,1.0,3.0,2.0,1.0,-1.0,-8.0,-1.0,-1.0,1650849549332348.0,2
1111,-1.0,-7.0,-6.0,3.0,-11.0,-2.0,-3.0,0.0,1650849549332348.0,2
1112,0.0,2.0,-5.0,-2.0,8.0,1.0,-1.0,-1.0,1650849549353291.0,2
1113,0.0,2.0,-2.0,-2.0,-3.0,15.0,4.0,0.0,1650849549353291.0,2
1114,-2.0,-2.0,4.0,2.0,17.0,-3.0,-2.0,-1.0,1650849549354262.0,2
1115,0.0,1.0,3.0,1.0,-2.0,2.0,0.0,0.0,1650849549354262.0,2
1116,0.0,-2.0,-6.0,-2.0,-7.0,-7.0,-2.0,0.0,1650849549366333.0,2
1117,2.0,1.0,12.0,3.0,-7.0,-16.0,-5.0,0.0,1650849549366333.0,2
1118,-2.0,0.0,-4.0,0.0,-1.0,25.0,3.0,-2.0,1650849549375312.0,2
1119,1.0,0.0,2.0,2.0,3.0,-4.0,0.0,-1.0,1650849549375312.0,2
1120,-1.0,-1.0,-5.0,-8.0,-2.0,3.0,0.0,-1.0,1650849549390299.0,2
1121,0.0,0.0,-3.0,-3.0,-1.0,-15.0,-2.0,-1.0,1650849549390299.0,2
1122,-2.0,-2.0,5.0,3.0,-3.0,-5.0,-3.0,-2.0,1650849549392267.0,2
1123,5.0,3.0,3.0,3.0,5.0,8.0,2.0,3.0,1650849549392267.0,2
1124,-2.0,-1.0,2.0,-2.0,-5.0,5.0,0.0,1.0,1650849549413211.0,2
1125,0.0,0.0,-5.0,-2.0,4.0,0.0,-1.0,0.0,1650849549413211.0,2
1126,-2.0,-1.0,-3.0,-2.0,-1.0,-12.0,-2.0,-1.0,1650849549414214.0,0
1127,-3.0,-3.0,-1.0,1.0,-1.0,-8.0,-2.0,-2.0,1650849549414214.0,0
1128,0.0,1.0,13.0,7.0,5.0,18.0,5.0,1.0,1650849549426203.0,0
1129,-3.0,-2.0,-15.0,-2.0,1.0,0.0,0.0,-1.0,1650849549426203.0,0
1130,-1.0,-1.0,2.0,-2.0,-5.0,-6.0,-1.0,0.0,1650849549436158.0,0
1131,-3.0,-1.0,2.0,1.0,6.0,6.0,1.0,0.0,1650849549436158.0,0
1132,3.0,1.0,-2.0,-5.0,-8.0,-6.0,-3.0,1.0,1650849549450179.0,0
1133,-4.0,-5.0,-3.0,-3.0,2.0,-3.0,-3.0,-2.0,1650849549450179.0,0
1134,1.0,-2.0,4.0,-2.0,-11.0,-16.0,-3.0,-3.0,1650849549452107.0,0
1135,1.0,1.0,-7.0,-2.0,3.0,5.0,-2.0,-3.0,1650849549452107.0,0
1136,0.0,-2.0,0.0,0.0,3.0,20.0,10.0,1.0,1650849549473203.0,0
1137,1.0,0.0,-3.0,-2.0,1.0,-1.0,0.0,-1.0,1650849549473203.0,0
1138,-1.0,0.0,-3.0,0.0,-13.0,-15.0,-4.0,-1.0,1650849549474173.0,0
1139,0.0,1.0,4.0,2.0,8.0,4.0,-1.0,-1.0,1650849549474173.0,0
1140,-1.0,2.0,-3.0,-2.0,2.0,-3.0,-3.0,-1.0,1650849549486168.0,0
1141,-1.0,-5.0,5.0,1.0,1.0,-2.0,0.0,1.0,1650849549486168.0,0
1142,-2.0,-2.0,-2.0,8.0,-2.0,-3.0,0.0,0.0,1650849549496116.0,0
1143,-1.0,-1.0,6.0,0.0,-2.0,-2.0,-4.0,0.0,1650849549496116.0,0
1144,1.0,-2.0,-3.0,3.0,5.0,5.0,1.0,1.0,1650849549510105.0,0
1145,0.0,2.0,-1.0,-5.0,-4.0,2.0,1.0,-1.0,1650849549510105.0,0
1146,0.0,-1.0,-3.0,-4.0,-6.0,1.0,0.0,-1.0,1650849549512072.0,0
1147,-1.0,-2.0,-1.0,0.0,11.0,-3.0,0.0,0.0,1650849549512072.0,0
1148,-3.0,0.0,-6.0,-6.0,-19.0,-13.0,-3.0,-3.0,1650849549533084.0,0
1149,1.0,-1.0,8.0,3.0,10.0,2.0,-2.0,0.0,1650849549533084.0,0
1150,1.0,-1.0,-6.0,-7.0,8.0,18.0,4.0,3.0,1650849549535011.0,0
1151,-2.0,-2.0,-1.0,3.0,-7.0,-2.0,-1.0,0.0,1650849549535011.0,0
1152,-1.0,-1.0,4.0,1.0,0.0,-6.0,-3.0,-2.0,1650849549546989.0,0
1153,0.0,1.0,-4.0,-3.0,-9.0,-12.0,-2.0,-3.0,1650849549546989.0,0
1154,1.0,2.0,3.0,0.0,0.0,7.0,2.0,1.0,1650849549555132.0,0
1155,2.0,1.0,-3.0,-3.0,3.0,-4.0,-1.0,0.0,1650849549555132.0,0
1156,0.0,0.0,-3.0,-1.0,2.0,0.0,2.0,0.0,1650849549570919.0,0
1157,0.0,-2.0,-1.0,0.0,-9.0,6.0,-1.0,-1.0,1650849549570919.0,0
1158,0.0,1.0,3.0,3.0,7.0,0.0,1.0,1.0,1650849549571900.0,0
1159,0.0,1.0,2.0,4.0,2.0,-1.0,0.0,1.0,1650849549571900.0,0
1160,-2.0,-3.0,-5.0,-1.0,2.0,-4.0,-3.0,-2.0,1650849549593431.0,0
1161,2.0,2.0,0.0,-4.0,-2.0,-6.0,-1.0,-1.0,1650849549593431.0,0
1162,1.0,-2.0,-1.0,-2.0,-9.0,-6.0,-3.0,-2.0,1650849549594402.0,0
1163,-1.0,-1.0,-2.0,0.0,-2.0,2.0,0.0,-1.0,1650849549594402.0,0
1164,-1.0,1.0,1.0,0.0,3.0,-5.0,0.0,-3.0,1650849549615922.0,0
1165,0.0,-1.0,-4.0,-5.0,-8.0,9.0,2.0,2.0,1650849549615922.0,0
1166,0.0,-1.0,-7.0,2.0,10.0,1.0,-2.0,-1.0,1650849549616829.0,0
1167,0.0,-1.0,3.0,0.0,4.0,4.0,2.0,-1.0,1650849549616829.0,0
1168,-1.0,-1.0,1.0,-2.0,-3.0,-2.0,-2.0,-2.0,1650849549630794.0,0
1169,-1.0,1.0,-1.0,3.0,3.0,-5.0,-1.0,-2.0,1650849549630794.0,0
1170,0.0,-1.0,0.0,-2.0,-2.0,0.0,0.0,-1.0,1650849549631801.0,0
1171,-1.0,-1.0,0.0,-3.0,-4.0,-4.0,-2.0,-1.0,1650849549631801.0,0
1172,-2.0,1.0,0.0,-5.0,-6.0,-18.0,-7.0,-2.0,1650849549652763.0,0
1173,0.0,1.0,0.0,11.0,4.0,38.0,11.0,1.0,1650849549652763.0,0
1174,-2.0,-1.0,0.0,2.0,22.0,4.0,-1.0,1.0,1650849549654758.0,0
1175,2.0,0.0,1.0,-2.0,-3.0,2.0,1.0,0.0,1650849549654758.0,0
1176,1.0,-1.0,0.0,-2.0,-4.0,-10.0,-3.0,1.0,1650849549674815.0,0
1177,-3.0,-3.0,-2.0,-5.0,-4.0,-17.0,-5.0,-2.0,1650849549674815.0,0
1178,-1.0,0.0,-3.0,1.0,-6.0,10.0,2.0,0.0,1650849549683820.0,0
1179,0.0,0.0,-1.0,-2.0,-5.0,-4.0,0.0,-2.0,1650849549683820.0,0
1180,-1.0,-2.0,1.0,0.0,1.0,4.0,-1.0,1.0,1650849549690804.0,0
1181,-1.0,0.0,-7.0,-3.0,1.0,-6.0,0.0,0.0,1650849549690804.0,0
1182,-1.0,0.0,4.0,-1.0,-9.0,-4.0,-2.0,-1.0,1650849549691802.0,0
1183,-1.0,-1.0,-1.0,-3.0,-7.0,-4.0,0.0,-1.0,1650849549691802.0,0
1184,-1.0,0.0,4.0,8.0,6.0,2.0,1.0,-1.0,1650849549713453.0,0
1185,-1.0,0.0,-3.0,0.0,8.0,-4.0,-1.0,-1.0,1650849549713453.0,0
1186,-2.0,-4.0,-4.0,-5.0,1.0,1.0,-2.0,-1.0,1650849549714463.0,0
1187,3.0,3.0,-1.0,-1.0,-8.0,-10.0,-4.0,-1.0,1650849549714463.0,0
1188,0.0,1.0,0.0,0.0,5.0,27.0,8.0,2.0,1650849549735423.0,0
1189,0.0,-1.0,0.0,-5.0,-2.0,-9.0,-5.0,1.0,1650849549735423.0,0
1190,-3.0,-6.0,-6.0,-5.0,-9.0,-19.0,-4.0,-3.0,1650849549737419.0,0
1191,-3.0,-1.0,1.0,-1.0,-16.0,3.0,-1.0,-1.0,1650849549737419.0,0
1192,0.0,1.0,3.0,9.0,20.0,-3.0,-2.0,0.0,1650849549750425.0,0
1193,-1.0,-1.0,-2.0,-5.0,-2.0,3.0,-2.0,-1.0,1650849549750425.0,0
1194,0.0,0.0,-1.0,-1.0,-2.0,-3.0,2.0,0.0,1650849549752351.0,0
1195,-1.0,-3.0,-2.0,2.0,6.0,5.0,0.0,-1.0,1650849549752351.0,0
1196,0.0,-2.0,-2.0,-3.0,-3.0,-1.0,-1.0,-1.0,1650849549773432.0,0
1197,-1.0,0.0,3.0,-1.0,-6.0,-5.0,-2.0,-2.0,1650849549773432.0,0
1198,1.0,0.0,-3.0,-1.0,-3.0,-11.0,-2.0,-1.0,1650849549774409.0,0
1199,1.0,2.0,4.0,6.0,17.0,34.0,10.0,4.0,1650849549774409.0,0
1200,0.0,-1.0,0.0,-2.0,-4.0,1.0,0.0,0.0,1650849549795502.0,0
1201,-1.0,-2.0,-4.0,-5.0,-12.0,-21.0,-4.0,0.0,1650849549795502.0,0
1202,1.0,0.0,-3.0,3.0,11.0,12.0,0.0,0.0,1650849549797479.0,0
1203,-2.0,0.0,5.0,0.0,-15.0,-19.0,-3.0,-2.0,1650849549797479.0,0
1204,-1.0,-5.0,-13.0,-9.0,1.0,13.0,1.0,2.0,1650849549809467.0,0
1205,0.0,0.0,-6.0,4.0,6.0,2.0,1.0,1.0,1650849549809467.0,0
1206,0.0,-1.0,3.0,2.0,-6.0,-6.0,-2.0,-3.0,1650849549816486.0,0
1207,-1.0,-3.0,-5.0,-6.0,0.0,-6.0,-2.0,-1.0,1650849549816486.0,0
1208,0.0,-1.0,4.0,2.0,-9.0,-4.0,-3.0,-1.0,1650849549833471.0,0
1209,0.0,2.0,-2.0,0.0,-6.0,-4.0,-1.0,-1.0,1650849549833471.0,0
1210,0.0,2.0,7.0,5.0,5.0,6.0,2.0,2.0,1650849549834390.0,0
1211,-1.0,-1.0,-2.0,-3.0,6.0,-8.0,-3.0,-1.0,1650849549834390.0,0
1212,-1.0,-1.0,-1.0,-5.0,-24.0,-4.0,-2.0,-1.0,1650849549855336.0,0
1213,0.0,-2.0,-7.0,1.0,16.0,10.0,3.0,1.0,1650849549855336.0,0
1214,1.0,-1.0,-1.0,1.0,-3.0,1.0,0.0,-1.0,1650849549857331.0,0
1215,-1.0,-2.0,1.0,1.0,9.0,-4.0,-3.0,-2.0,1650849549857331.0,0
1216,-2.0,-2.0,0.0,-2.0,-5.0,-6.0,-2.0,-1.0,1650849549870323.0,0
1217,-1.0,-2.0,-6.0,-4.0,-5.0,6.0,5.0,1.0,1650849549870323.0,0
1218,-2.0,-2.0,9.0,-5.0,-9.0,-2.0,-3.0,-2.0,1650849549876307.0,0
1219,-1.0,0.0,-7.0,1.0,1.0,-5.0,-2.0,0.0,1650849549876307.0,0
1220,2.0,0.0,6.0,11.0,7.0,-9.0,1.0,0.0,1650849549892818.0,0
1221,-1.0,1.0,9.0,1.0,-1.0,4.0,-1.0,-1.0,1650849549892818.0,0
1222,0.0,-2.0,-19.0,-7.0,-2.0,-1.0,2.0,-2.0,1650849549894813.0,0
1223,-1.0,-3.0,0.0,-7.0,-7.0,1.0,0.0,0.0,1650849549894813.0,0
1224,0.0,0.0,-6.0,-1.0,2.0,0.0,0.0,0.0,1650849549915824.0,0
1225,0.0,0.0,7.0,6.0,-1.0,-15.0,-5.0,-2.0,1650849549915824.0,0
1226,0.0,4.0,8.0,4.0,6.0,26.0,5.0,3.0,1650849549916790.0,0
1227,0.0,0.0,3.0,-2.0,-3.0,-2.0,0.0,1.0,1650849549916790.0,0
1228,0.0,-2.0,-4.0,-3.0,-1.0,6.0,1.0,0.0,1650849549929720.0,0
1229,-1.0,-1.0,1.0,-1.0,-2.0,-11.0,-4.0,-3.0,1650849549929720.0,0
1230,1.0,0.0,0.0,0.0,-3.0,-17.0,-5.0,-2.0,1650849549936768.0,0
1231,-1.0,2.0,5.0,9.0,5.0,18.0,4.0,0.0,1650849549936768.0,0
1232,0.0,1.0,3.0,-4.0,4.0,-1.0,0.0,1.0,1650849549952770.0,0
1233,1.0,-2.0,-8.0,-11.0,-8.0,-9.0,-3.0,-1.0,1650849549952770.0,0
1234,0.0,-1.0,-3.0,5.0,2.0,21.0,5.0,1.0,1650849549954749.0,0
1235,0.0,-2.0,2.0,4.0,4.0,0.0,-1.0,-1.0,1650849549954749.0,0
1236,0.0,-1.0,11.0,-4.0,-12.0,-7.0,-3.0,-1.0,1650849549975910.0,0
1237,0.0,-3.0,-27.0,-6.0,13.0,7.0,3.0,0.0,1650849549975910.0,0
1238,-2.0,-1.0,-4.0,-5.0,-9.0,-11.0,-3.0,-2.0,1650849549976880.0,0
1239,-3.0,1.0,-4.0,-3.0,-9.0,-19.0,-4.0,0.0,1650849549976880.0,0
1240,1.0,-1.0,3.0,3.0,9.0,17.0,3.0,-2.0,1650849549989873.0,0
1241,1.0,1.0,11.0,5.0,-7.0,0.0,0.0,1.0,1650849549989873.0,0
1242,2.0,0.0,0.0,-1.0,9.0,5.0,2.0,1.0,1650849549996828.0,0
1243,1.0,-2.0,-4.0,-2.0,-5.0,-6.0,-1.0,-1.0,1650849549996828.0,0
1244,-1.0,-1.0,-10.0,-4.0,3.0,-5.0,-2.0,-3.0,1650849550012812.0,0
1245,-2.0,1.0,9.0,2.0,-8.0,-1.0,0.0,-1.0,1650849550012812.0,0
1246,1.0,4.0,10.0,4.0,1.0,-7.0,-2.0,0.0,1650849550014780.0,0
1247,-1.0,-7.0,-2.0,3.0,3.0,9.0,0.0,-2.0,1650849550014780.0,0
1248,-1.0,1.0,-12.0,-4.0,1.0,-4.0,0.0,1.0,1650849550035750.0,0
1249,-1.0,-1.0,13.0,7.0,7.0,9.0,0.0,-4.0,1650849550035750.0,0
1250,-2.0,0.0,-15.0,-9.0,-7.0,-9.0,-3.0,0.0,1650849550036741.0,0
1251,-1.0,1.0,2.0,-5.0,-1.0,-4.0,-1.0,0.0,1650849550036741.0,0
1252,-2.0,-1.0,0.0,2.0,-11.0,-9.0,-2.0,0.0,1650849550049749.0,0
1253,-1.0,-1.0,1.0,3.0,3.0,0.0,-2.0,0.0,1650849550049749.0,0
1254,-2.0,-1.0,6.0,2.0,12.0,10.0,7.0,0.0,1650849550056694.0,0
1255,0.0,1.0,-2.0,-2.0,-11.0,8.0,3.0,1.0,1650849550056694.0,0
1256,0.0,-1.0,-2.0,6.0,22.0,10.0,1.0,0.0,1650849550072651.0,0
1257,2.0,1.0,3.0,-7.0,-8.0,-8.0,-2.0,0.0,1650849550072651.0,0
1258,-2.0,-2.0,-1.0,1.0,-14.0,-13.0,-5.0,-3.0,1650849550074619.0,0
1259,-1.0,0.0,-6.0,-2.0,9.0,8.0,1.0,1.0,1650849550074619.0,0
1260,-1.0,0.0,-2.0,-1.0,-17.0,-12.0,-1.0,-3.0,1650849550095680.0,0
1261,0.0,-1.0,6.0,7.0,5.0,-8.0,-2.0,0.0,1650849550095680.0,0
1262,-2.0,-1.0,5.0,0.0,0.0,23.0,2.0,0.0,1650849550096649.0,0
1263,0.0,1.0,1.0,-1.0,2.0,-6.0,0.0,0.0,1650849550096649.0,0
1264,0.0,-3.0,-12.0,-7.0,-2.0,-4.0,-2.0,0.0,1650849550108646.0,0
1265,0.0,-1.0,-3.0,-4.0,-5.0,-2.0,1.0,-1.0,1650849550108646.0,0
1266,0.0,-2.0,-1.0,-2.0,-4.0,-13.0,-1.0,1.0,1650849550117913.0,0
1267,0.0,2.0,10.0,4.0,-1.0,-1.0,0.0,-1.0,1650849550117913.0,0
1268,-2.0,0.0,2.0,3.0,2.0,2.0,1.0,-2.0,1650849550133533.0,0
1269,-3.0,-1.0,1.0,-3.0,4.0,4.0,0.0,-1.0,1650849550133533.0,0
1270,-2.0,-1.0,-7.0,-2.0,3.0,1.0,-1.0,-1.0,1650849550134532.0,0
1271,-1.0,-1.0,-2.0,-5.0,-8.0,-20.0,-6.0,-3.0,1650849550134532.0,0
1272,0.0,0.0,3.0,3.0,7.0,25.0,3.0,1.0,1650849550155475.0,0
1273,0.0,-2.0,-7.0,-3.0,-8.0,4.0,1.0,0.0,1650849550155475.0,0
1274,0.0,1.0,5.0,1.0,-3.0,-8.0,-2.0,0.0,1650849550157490.0,0
1275,0.0,-3.0,-13.0,1.0,1.0,-3.0,0.0,-1.0,1650849550157490.0,0
1276,0.0,-2.0,-1.0,-1.0,1.0,-7.0,-2.0,-1.0,1650849550169438.0,0
1277,0.0,1.0,5.0,6.0,5.0,6.0,1.0,0.0,1650849550169438.0,0
1278,1.0,1.0,3.0,1.0,5.0,2.0,-1.0,-1.0,1650849550178415.0,0
1279,-2.0,0.0,3.0,0.0,-9.0,-22.0,-6.0,-2.0,1650849550178415.0,0
1280,-3.0,-2.0,0.0,-8.0,-8.0,11.0,1.0,-1.0,1650849550192497.0,0
1281,-2.0,-9.0,-18.0,-8.0,3.0,6.0,2.0,0.0,1650849550192497.0,0
1282,1.0,-2.0,3.0,-1.0,-6.0,-7.0,0.0,1.0,1650849550194465.0,0
1283,1.0,2.0,-4.0,0.0,10.0,9.0,1.0,0.0,1650849550194465.0,0
1284,0.0,3.0,12.0,4.0,-4.0,-22.0,-5.0,-1.0,1650849550215946.0,0
1285,0.0,4.0,5.0,6.0,6.0,18.0,3.0,2.0,1650849550215946.0,0
1286,0.0,-2.0,2.0,-7.0,-4.0,-4.0,-1.0,0.0,1650849550216828.0,0
1287,-2.0,0.0,-9.0,-5.0,-3.0,-1.0,-1.0,-3.0,1650849550216828.0,0
1288,0.0,-2.0,10.0,1.0,-1.0,-12.0,-2.0,-1.0,1650849550228798.0,0
1289,1.0,2.0,-4.0,-1.0,-8.0,2.0,0.0,-1.0,1650849550228798.0,0
1290,-1.0,0.0,-3.0,6.0,12.0,1.0,3.0,-1.0,1650849550237803.0,0
1291,1.0,0.0,1.0,0.0,12.0,19.0,3.0,1.0,1650849550237803.0,0
1292,-2.0,0.0,-2.0,-5.0,-11.0,-9.0,-5.0,-2.0,1650849550252802.0,0
1293,-2.0,0.0,6.0,2.0,-3.0,-12.0,-6.0,-2.0,1650849550252802.0,0
1294,0.0,7.0,-3.0,-3.0,-5.0,-3.0,-3.0,-1.0,1650849550254730.0,0
1295,2.0,-1.0,-5.0,-5.0,-7.0,2.0,2.0,0.0,1650849550254730.0,0
1296,1.0,-9.0,-11.0,-1.0,3.0,2.0,0.0,0.0,1650849550275814.0,0
1297,-2.0,0.0,6.0,-2.0,-3.0,-4.0,-1.0,0.0,1650849550275814.0,0
1298,0.0,2.0,8.0,3.0,-2.0,1.0,-2.0,1.0,1650849550276784.0,0
1299,-1.0,0.0,-6.0,4.0,7.0,-3.0,-2.0,-1.0,1650849550276784.0,0
1300,0.0,1.0,-6.0,-5.0,2.0,18.0,3.0,0.0,1650849550288817.0,0
1301,1.0,-1.0,5.0,-2.0,-5.0,-12.0,0.0,-1.0,1650849550288817.0,0
1302,-2.0,-3.0,-6.0,0.0,2.0,5.0,-2.0,-1.0,1650849550297728.0,0
1303,-1.0,4.0,9.0,2.0,2.0,7.0,1.0,0.0,1650849550297728.0,0
1304,-2.0,-1.0,0.0,-3.0,-4.0,-14.0,-3.0,-2.0,1650849550312715.0,0
1305,0.0,0.0,-8.0,4.0,14.0,17.0,4.0,1.0,1650849550312715.0,0
1306,0.0,-2.0,3.0,6.0,-1.0,-13.0,-2.0,-1.0,1650849550314683.0,0
1307,0.0,-1.0,13.0,8.0,3.0,2.0,1.0,3.0,1650849550314683.0,0
1308,-3.0,1.0,1.0,8.0,3.0,2.0,1.0,1.0,1650849550335694.0,0
1309,-2.0,-3.0,-8.0,-15.0,-12.0,-8.0,-3.0,-2.0,1650849550335694.0,0
1310,-2.0,-3.0,-8.0,-6.0,-8.0,-9.0,-1.0,-1.0,1650849550336624.0,0
1311,-1.0,-4.0,-5.0,-3.0,-2.0,4.0,-2.0,0.0,1650849550336624.0,0
1312,3.0,3.0,5.0,-2.0,-1.0,2.0,4.0,1.0,1650849550349633.0,0
1313,-1.0,1.0,7.0,4.0,7.0,0.0,-1.0,-2.0,1650849550349633.0,0
1314,-2.0,-2.0,-8.0,-7.0,-2.0,5.0,0.0,-1.0,1650849550358592.0,0
1315,-4.0,-2.0,1.0,1.0,-4.0,-10.0,-5.0,-1.0,1650849550358592.0,0
1316,2.0,1.0,0.0,9.0,-1.0,-7.0,-2.0,2.0,1650849550372555.0,0
1317,-2.0,-2.0,-3.0,-20.0,-8.0,-22.0,-6.0,-2.0,1650849550372555.0,0
1318,1.0,-5.0,-7.0,-4.0,13.0,38.0,5.0,1.0,1650849550374523.0,0
1319,-1.0,1.0,-5.0,5.0,-22.0,-2.0,3.0,-1.0,1650849550374523.0,0
1320,-1.0,1.0,10.0,10.0,31.0,11.0,1.0,2.0,1650849550395677.0,0
1321,-1.0,-1.0,-3.0,0.0,-19.0,-10.0,-1.0,-1.0,1650849550395677.0,0
1322,-2.0,-1.0,3.0,1.0,17.0,-7.0,-5.0,-2.0,1650849550396674.0,0
1323,-1.0,-2.0,-8.0,-13.0,-12.0,-4.0,-1.0,1.0,1650849550396674.0,0
1324,0.0,-2.0,-9.0,-2.0,-7.0,0.0,0.0,-2.0,1650849550408670.0,0
1325,0.0,1.0,9.0,11.0,9.0,7.0,2.0,2.0,1650849550408670.0,0
1326,1.0,2.0,-3.0,-7.0,-9.0,-11.0,-2.0,0.0,1650849550418628.0,0
1327,1.0,-1.0,-3.0,-4.0,1.0,6.0,0.0,0.0,1650849550418628.0,0
1328,-2.0,-1.0,-3.0,-1.0,-9.0,-9.0,-2.0,-1.0,1650849550433577.0,0
1329,-2.0,-3.0,-10.0,-8.0,6.0,5.0,1.0,-2.0,1650849550433577.0,0
1330,1.0,-1.0,6.0,5.0,-4.0,-2.0,0.0,0.0,1650849550434573.0,0
1331,1.0,0.0,0.0,-1.0,1.0,-6.0,-1.0,0.0,1650849550434573.0,0
1332,-1.0,0.0,1.0,1.0,3.0,-3.0,-4.0,-1.0,1650849550455629.0,0
1333,2.0,2.0,0.0,-11.0,1.0,11.0,5.0,2.0,1650849550455629.0,0
1334,-2.0,-1.0,-3.0,4.0,-8.0,-9.0,-2.0,0.0,1650849550457624.0,0
1335,0.0,0.0,4.0,7.0,8.0,8.0,1.0,-1.0,1650849550457624.0,0
1336,0.0,0.0,0.0,-8.0,-5.0,-9.0,-2.0,-1.0,1650849550469620.0,0
1337,-3.0,-3.0,-3.0,6.0,2.0,5.0,-2.0,-1.0,1650849550469620.0,0
1338,-3.0,-2.0,-4.0,-3.0,-16.0,-24.0,-3.0,-2.0,1650849550478566.0,0
1339,-1.0,0.0,1.0,2.0,10.0,7.0,0.0,0.0,1650849550478566.0,0
1340,1.0,2.0,-3.0,-1.0,10.0,22.0,6.0,1.0,1650849550492550.0,0
1341,0.0,-2.0,-3.0,-12.0,-5.0,-4.0,-3.0,-1.0,1650849550492550.0,0
1342,-1.0,-2.0,1.0,9.0,-8.0,-2.0,-2.0,-2.0,1650849550494525.0,0
1343,-3.0,-1.0,5.0,-4.0,-7.0,-10.0,-2.0,-2.0,1650849550494525.0,0
1344,1.0,1.0,1.0,8.0,-7.0,-6.0,-2.0,-1.0,1650849550515470.0,0
1345,-1.0,2.0,4.0,7.0,10.0,9.0,1.0,-1.0,1650849550515470.0,0
1346,0.0,0.0,-1.0,-8.0,-3.0,-5.0,-1.0,1.0,1650849550517490.0,0
1347,0.0,-5.0,-2.0,1.0,2.0,4.0,0.0,-1.0,1650849550517490.0,0
1348,-2.0,-2.0,-6.0,-5.0,-3.0,-2.0,0.0,-2.0,1650849550529458.0,0
1349,0.0,-1.0,-5.0,-1.0,-8.0,-14.0,-4.0,-1.0,1650849550529458.0,0
1350,1.0,0.0,6.0,0.0,3.0,17.0,1.0,-1.0,1650849550538523.0,0
1351,-1.0,-1.0,3.0,3.0,6.0,-2.0,0.0,0.0,1650849550538523.0,0
1352,-2.0,0.0,-1.0,-5.0,-9.0,-2.0,-1.0,0.0,1650849550552574.0,0
1353,0.0,-2.0,0.0,5.0,-10.0,-5.0,0.0,0.0,1650849550552574.0,0
1354,0.0,-2.0,-1.0,-2.0,8.0,-9.0,-3.0,-3.0,1650849550554580.0,0
1355,0.0,1.0,3.0,-2.0,4.0,22.0,7.0,1.0,1650849550554580.0,0
1356,0.0,0.0,1.0,-3.0,-2.0,-7.0,-1.0,0.0,1650849550575657.0,0
1357,0.0,-1.0,-1.0,7.0,9.0,5.0,-1.0,1.0,1650849550575657.0,0
1358,-2.0,1.0,-3.0,-6.0,-3.0,-6.0,1.0,2.0,1650849550577628.0,0
1359,-1.0,-1.0,-6.0,-7.0,-5.0,-8.0,-5.0,-2.0,1650849550577628.0,0
1360,2.0,0.0,15.0,8.0,-2.0,-7.0,-1.0,-1.0,1650849550597571.0,0
1361,1.0,3.0,0.0,-1.0,-13.0,2.0,-1.0,-3.0,1650849550597571.0,0
1362,3.0,-1.0,-1.0,-2.0,8.0,1.0,1.0,2.0,1650849550599577.0,0
1363,1.0,-1.0,-5.0,-3.0,2.0,4.0,1.0,1.0,1650849550599577.0,0
1364,-3.0,-3.0,-13.0,-4.0,7.0,9.0,1.0,-1.0,1650849550612559.0,0
1365,-4.0,-1.0,6.0,5.0,0.0,-8.0,-3.0,-3.0,1650849550612559.0,0
1366,-3.0,-2.0,-2.0,-1.0,-5.0,1.0,-1.0,-3.0,1650849550614526.0,0
1367,-1.0,0.0,-4.0,-4.0,-7.0,-10.0,-4.0,-3.0,1650849550614526.0,0
1368,-2.0,-1.0,2.0,-3.0,-6.0,-4.0,-1.0,-2.0,1650849550635833.0,0
1369,-1.0,0.0,1.0,3.0,5.0,-6.0,-1.0,0.0,1650849550635833.0,0
1370,-2.0,-3.0,0.0,1.0,2.0,21.0,3.0,-1.0,1650849550636827.0,0
1371,0.0,1.0,8.0,13.0,-3.0,-10.0,-1.0,0.0,1650849550636827.0,0
1372,1.0,-1.0,4.0,-12.0,0.0,8.0,0.0,1.0,1650849550657896.0,0
1373,1.0,-1.0,-5.0,-5.0,0.0,0.0,-3.0,-2.0,1650849550657896.0,0
1374,-1.0,0.0,-4.0,4.0,-3.0,-11.0,-2.0,0.0,1650849550659909.0,0
1375,-2.0,0.0,2.0,10.0,3.0,4.0,-1.0,1.0,1650849550659909.0,0
1376,1.0,0.0,-1.0,-12.0,-5.0,5.0,2.0,2.0,1650849550672850.0,0
1377,6.0,-4.0,4.0,16.0,11.0,3.0,5.0,-2.0,1650849550672850.0,0
1378,8.0,9.0,-7.0,-31.0,-7.0,-5.0,-2.0,14.0,1650849550678843.0,0
1379,-40.0,7.0,11.0,27.0,1.0,-1.0,-6.0,-35.0,1650849550678843.0,0
1380,-23.0,-6.0,-3.0,1.0,-1.0,-6.0,-2.0,-1.0,1650849550695767.0,0
1381,5.0,6.0,-5.0,-12.0,-2.0,1.0,1.0,6.0,1650849550695767.0,0
1382,3.0,-16.0,-10.0,-6.0,-3.0,1.0,-1.0,-3.0,1650849550696764.0,0
1383,-5.0,7.0,10.0,-5.0,-3.0,-1.0,0.0,7.0,1650849550696764.0,0
1384,-6.0,-5.0,-9.0,1.0,-1.0,0.0,-2.0,-2.0,1650849550718774.0,0
1385,-3.0,23.0,9.0,7.0,0.0,-1.0,-4.0,-6.0,1650849550718774.0,0
1386,1.0,-41.0,-2.0,5.0,6.0,1.0,0.0,-3.0,1650849550719709.0,0
1387,-15.0,13.0,-7.0,-15.0,-3.0,-1.0,3.0,8.0,1650849550719709.0,0
1388,-31.0,-36.0,-10.0,7.0,-1.0,-4.0,-2.0,-7.0,1650849550732668.0,0
1389,6.0,25.0,9.0,1.0,-4.0,-1.0,0.0,1.0,1650849550732668.0,0
1390,10.0,-24.0,-10.0,2.0,2.0,2.0,4.0,1.0,1650849550738652.0,0
1391,11.0,-6.0,-11.0,-14.0,-4.0,-4.0,0.0,5.0,1650849550738652.0,0
1392,17.0,1.0,8.0,3.0,-3.0,-14.0,-4.0,2.0,1650849550755635.0,0
1393,-9.0,-7.0,-5.0,6.0,0.0,17.0,4.0,-1.0,1650849550755635.0,0
1394,-9.0,15.0,4.0,11.0,7.0,-1.0,-3.0,-5.0,1650849550757602.0,0
1395,23.0,-3.0,21.0,-4.0,7.0,7.0,4.0,2.0,1650849550757602.0,0
1396,-2.0,2.0,11.0,2.0,-9.0,-14.0,-8.0,-2.0,1650849550777576.0,0
1397,1.0,-4.0,-21.0,12.0,-3.0,-5.0,-1.0,1.0,1650849550777576.0,0
1398,0.0,12.0,-38.0,-18.0,-5.0,3.0,1.0,-2.0,1650849550779548.0,0
1399,3.0,-10.0,-13.0,-1.0,0.0,-7.0,-4.0,1.0,1650849550779548.0,0
1400,13.0,5.0,24.0,-9.0,4.0,7.0,4.0,0.0,1650849550792508.0,0
1401,-4.0,-2.0,7.0,2.0,1.0,1.0,1.0,1.0,1650849550792508.0,0
1402,-1.0,30.0,44.0,42.0,4.0,2.0,0.0,-2.0,1650849550799491.0,0
1403,1.0,-15.0,-61.0,-55.0,-5.0,0.0,4.0,6.0,1650849550799491.0,0
1404,-7.0,-21.0,-43.0,-11.0,-13.0,-6.0,-3.0,-6.0,1650849550815468.0,0
1405,5.0,-7.0,15.0,20.0,4.0,2.0,0.0,0.0,1650849550815468.0,3
1406,-3.0,-15.0,-18.0,-11.0,2.0,5.0,6.0,6.0,1650849550817470.0,3
1407,11.0,17.0,20.0,12.0,7.0,12.0,9.0,8.0,1650849550817470.0,3
1408,4.0,16.0,13.0,-8.0,0.0,3.0,-3.0,-2.0,1650849550837999.0,3
1409,0.0,-12.0,-10.0,-8.0,7.0,-10.0,1.0,3.0,1650849550837999.0,3
1410,0.0,12.0,24.0,13.0,2.0,22.0,2.0,-4.0,1650849550839926.0,3
1411,0.0,19.0,47.0,39.0,5.0,-2.0,-1.0,-2.0,1650849550839926.0,3
1412,7.0,-18.0,-32.0,-10.0,-1.0,9.0,11.0,7.0,1650849550851962.0,3
1413,-3.0,-10.0,-17.0,-10.0,-2.0,-2.0,-1.0,1.0,1650849550851962.0,3
1414,0.0,7.0,-16.0,-10.0,-10.0,-24.0,-6.0,-2.0,1650849550860875.0,3
1415,0.0,8.0,-39.0,-15.0,-8.0,15.0,-2.0,-4.0,1650849550860875.0,3
1416,-2.0,-11.0,-3.0,13.0,0.0,-4.0,-4.0,-3.0,1650849550875858.0,3
1417,1.0,15.0,28.0,-6.0,-4.0,-2.0,-2.0,-1.0,1650849550875858.0,3
1418,-1.0,7.0,16.0,-13.0,3.0,10.0,0.0,-3.0,1650849550876828.0,3
1419,-4.0,-15.0,-40.0,16.0,7.0,-3.0,-2.0,-1.0,1650849550876828.0,3
1420,14.0,9.0,22.0,-2.0,0.0,-5.0,0.0,2.0,1650849550897800.0,3
1421,-5.0,-14.0,-9.0,-18.0,-9.0,-2.0,1.0,-1.0,1650849550897800.0,3
1422,-1.0,-1.0,8.0,-9.0,-3.0,-9.0,-5.0,-3.0,1650849550899768.0,3
1423,0.0,-5.0,-17.0,15.0,-8.0,-8.0,-5.0,-2.0,1650849550899768.0,3
1424,7.0,19.0,41.0,23.0,14.0,10.0,3.0,2.0,1650849550920711.0,3
1425,3.0,-19.0,-33.0,-16.0,-10.0,-11.0,-3.0,-3.0,1650849550920711.0,3
1426,-14.0,21.0,10.0,-10.0,4.0,2.0,0.0,-3.0,1650849550922715.0,3
1427,9.0,-19.0,20.0,3.0,6.0,13.0,5.0,2.0,1650849550922715.0,3
1428,13.0,12.0,4.0,-5.0,-8.0,-2.0,2.0,8.0,1650849550935735.0,3
1429,-6.0,9.0,-10.0,-6.0,1.0,-11.0,-10.0,-5.0,1650849550935735.0,3
1430,6.0,-14.0,6.0,1.0,-5.0,-6.0,-1.0,-1.0,1650849550936668.0,3
1431,-2.0,20.0,30.0,21.0,6.0,-2.0,0.0,-1.0,1650849550936668.0,3
1432,-8.0,-4.0,21.0,0.0,2.0,4.0,-2.0,-6.0,1650849550957786.0,3
1433,-3.0,-6.0,-26.0,-17.0,-10.0,-4.0,-3.0,-4.0,1650849550957786.0,3
1434,0.0,4.0,12.0,20.0,-1.0,-2.0,-1.0,1.0,1650849550959782.0,3
1435,-6.0,-9.0,-13.0,-24.0,-8.0,-8.0,-5.0,-3.0,1650849550959782.0,3
1436,-5.0,2.0,-6.0,-3.0,10.0,6.0,4.0,-1.0,1650849550972787.0,3
1437,3.0,0.0,28.0,19.0,5.0,8.0,2.0,1.0,1650849550972787.0,3
1438,0.0,-8.0,-5.0,11.0,3.0,-3.0,0.0,-1.0,1650849550978759.0,3
1439,3.0,0.0,17.0,-9.0,-4.0,-2.0,-2.0,1.0,1650849550978759.0,3
1440,21.0,-1.0,-28.0,-19.0,-20.0,-19.0,-7.0,-3.0,1650849550997706.0,3
1441,-50.0,-9.0,13.0,-10.0,1.0,-3.0,2.0,-2.0,1650849550997706.0,3
1442,0.0,-1.0,-33.0,9.0,-2.0,6.0,0.0,0.0,1650849550998677.0,3
1443,5.0,1.0,19.0,2.0,6.0,-5.0,1.0,0.0,1650849550998677.0,3
1444,-5.0,-1.0,-10.0,12.0,9.0,17.0,-3.0,-5.0,1650849551017692.0,3
1445,12.0,4.0,17.0,-9.0,-4.0,-3.0,3.0,3.0,1650849551017692.0,3
1446,-1.0,16.0,-2.0,1.0,-3.0,-6.0,-4.0,2.0,1650849551019621.0,3
1447,4.0,-4.0,-6.0,-10.0,-8.0,-16.0,-1.0,-1.0,1650849551019621.0,3
1448,-18.0,-5.0,-27.0,-8.0,-5.0,3.0,-3.0,-3.0,1650849551032587.0,3
1449,6.0,9.0,23.0,29.0,4.0,4.0,-2.0,-1.0,1650849551032587.0,3
1450,-4.0,3.0,7.0,-8.0,4.0,2.0,2.0,1.0,1650849551039566.0,3
1451,11.0,-11.0,-19.0,-24.0,-13.0,-9.0,-3.0,-2.0,1650849551039566.0,3
1452,-4.0,6.0,7.0,7.0,9.0,-2.0,1.0,-1.0,1650849551055580.0,3
1453,5.0,5.0,0.0,1.0,-6.0,4.0,0.0,-1.0,1650849551055580.0,3
1454,-1.0,-4.0,15.0,10.0,5.0,-1.0,1.0,0.0,1650849551057603.0,3
1455,-6.0,-11.0,-24.0,-14.0,-1.0,-4.0,-5.0,-1.0,1650849551057603.0,3
1456,0.0,3.0,10.0,6.0,-10.0,-7.0,-1.0,0.0,1650849551077524.0,3
1457,4.0,0.0,-8.0,10.0,10.0,7.0,2.0,3.0,1650849551077524.0,3
1458,-1.0,-2.0,3.0,0.0,-2.0,-1.0,-3.0,-1.0,1650849551079518.0,3
1459,-8.0,-6.0,-2.0,-3.0,1.0,2.0,-3.0,-5.0,1650849551079518.0,3
1460,6.0,5.0,-10.0,1.0,-2.0,0.0,-1.0,2.0,1650849551091517.0,3
1461,1.0,-7.0,1.0,-9.0,-4.0,-3.0,-4.0,-5.0,1650849551091517.0,3
1462,9.0,9.0,13.0,-1.0,-1.0,-2.0,1.0,3.0,1650849551100471.0,3
1463,-24.0,-7.0,5.0,16.0,-10.0,-15.0,-6.0,-7.0,1650849551100471.0,3
1464,2.0,5.0,-53.0,-25.0,1.0,21.0,5.0,4.0,1650849551115422.0,3
1465,6.0,-7.0,19.0,-9.0,-3.0,0.0,4.0,6.0,1650849551115422.0,3
1466,-7.0,-15.0,-33.0,1.0,-5.0,-9.0,-6.0,-5.0,1650849551117445.0,3
1467,5.0,2.0,3.0,4.0,3.0,6.0,1.0,-1.0,1650849551117445.0,3
1468,8.0,2.0,28.0,23.0,7.0,-5.0,1.0,2.0,1650849551138389.0,3
1469,-1.0,3.0,13.0,8.0,8.0,9.0,1.0,2.0,1650849551138389.0,3
1470,6.0,-2.0,-37.0,-31.0,-14.0,-5.0,1.0,1.0,1650849551139373.0,3
1471,5.0,-1.0,3.0,4.0,0.0,-9.0,-4.0,-3.0,1650849551139373.0,3
1472,-1.0,4.0,15.0,8.0,14.0,7.0,1.0,1.0,1650849551151393.0,3
1473,11.0,3.0,0.0,-7.0,-14.0,12.0,1.0,0.0,1650849551151393.0,3
1474,-5.0,-7.0,-14.0,-10.0,-1.0,-16.0,-4.0,0.0,1650849551160340.0,3
1475,1.0,3.0,-15.0,6.0,6.0,19.0,9.0,3.0,1650849551160340.0,3
1476,-2.0,5.0,33.0,1.0,-7.0,-10.0,0.0,1.0,1650849551175262.0,3
1477,-3.0,-12.0,-21.0,2.0,-5.0,-16.0,-6.0,-7.0,1650849551175262.0,3
1478,-6.0,-8.0,1.0,26.0,14.0,21.0,1.0,1.0,1650849551177257.0,3
1479,-3.0,17.0,22.0,-5.0,-6.0,-4.0,0.0,1.0,1650849551177257.0,3
1480,1.0,-6.0,-19.0,2.0,5.0,-4.0,-2.0,0.0,1650849551198222.0,3
1481,4.0,17.0,10.0,-11.0,1.0,-4.0,0.0,1.0,1650849551198222.0,3
1482,3.0,-12.0,16.0,2.0,-9.0,-4.0,-4.0,-2.0,1650849551199198.0,3
1483,-1.0,11.0,9.0,-9.0,0.0,5.0,-1.0,-3.0,1650849551199198.0,3
1484,-5.0,-27.0,-32.0,14.0,7.0,5.0,4.0,1.0,1650849551211165.0,3
1485,0.0,-2.0,-1.0,-8.0,0.0,-5.0,-6.0,-3.0,1650849551211165.0,3
1486,-1.0,2.0,9.0,-8.0,-3.0,-1.0,3.0,0.0,1650849551221139.0,3
1487,2.0,-1.0,17.0,18.0,7.0,7.0,0.0,2.0,1650849551221139.0,3
1488,-8.0,5.0,9.0,-6.0,-10.0,-7.0,-6.0,-5.0,1650849551235124.0,3
1489,-1.0,2.0,-15.0,-4.0,6.0,4.0,4.0,2.0,1650849551235124.0,3
1490,2.0,6.0,24.0,15.0,0.0,4.0,0.0,0.0,1650849551237098.0,3
1491,3.0,-2.0,-9.0,-21.0,1.0,-2.0,1.0,4.0,1650849551237098.0,3
1492,-2.0,-4.0,12.0,8.0,1.0,-3.0,-3.0,-1.0,1650849551258095.0,3
1493,5.0,-4.0,-8.0,-5.0,-10.0,-6.0,0.0,2.0,1650849551258095.0,3
1494,-6.0,1.0,-7.0,8.0,10.0,3.0,1.0,0.0,1650849551260096.0,3
1495,-20.0,-19.0,16.0,10.0,0.0,1.0,-6.0,-3.0,1650849551260096.0,3
1496,11.0,21.0,13.0,-17.0,0.0,10.0,4.0,2.0,1650849551272096.0,3
1497,-2.0,7.0,-16.0,6.0,-1.0,9.0,-4.0,-3.0,1650849551272096.0,3
1498,-3.0,-23.0,-8.0,-17.0,-12.0,-8.0,-1.0,-4.0,1650849551281034.0,3
1499,16.0,8.0,9.0,-9.0,-9.0,-15.0,0.0,5.0,1650849551281034.0,3
1500,-5.0,0.0,-20.0,9.0,5.0,3.0,-1.0,-3.0,1650849551295942.0,3
1501,0.0,3.0,-6.0,-6.0,-9.0,-10.0,-4.0,0.0,1650849551295942.0,3
1502,7.0,9.0,6.0,2.0,-4.0,0.0,-2.0,-1.0,1650849551296863.0,3
1503,-5.0,-8.0,-11.0,2.0,5.0,5.0,-1.0,-4.0,1650849551296863.0,3
1504,1.0,-5.0,9.0,-13.0,-12.0,-13.0,-5.0,-3.0,1650849551317849.0,3
1505,3.0,-6.0,-23.0,-4.0,2.0,3.0,3.0,1.0,1650849551317849.0,3
1506,-2.0,10.0,8.0,8.0,7.0,6.0,2.0,1.0,1650849551319840.0,3
1507,-3.0,-11.0,-5.0,-5.0,-3.0,3.0,1.0,0.0,1650849551319840.0,3
1508,-5.0,8.0,21.0,4.0,-5.0,-6.0,-6.0,-3.0,1650849551331792.0,3
1509,3.0,-6.0,-15.0,-1.0,5.0,-3.0,4.0,5.0,1650849551331792.0,3
1510,-4.0,-2.0,-10.0,10.0,-1.0,9.0,-1.0,0.0,1650849551340785.0,3
1511,3.0,11.0,13.0,7.0,2.0,-8.0,2.0,2.0,1650849551340785.0,3
1512,0.0,2.0,-28.0,-47.0,-25.0,-15.0,-3.0,-1.0,1650849551355555.0,3
1513,-2.0,-16.0,22.0,56.0,43.0,38.0,7.0,2.0,1650849551355555.0,3
1514,-6.0,0.0,-22.0,-24.0,-20.0,-28.0,-7.0,-4.0,1650849551357588.0,3
1515,1.0,-2.0,-2.0,5.0,6.0,20.0,0.0,-2.0,1650849551357588.0,3
1516,1.0,1.0,6.0,11.0,13.0,8.0,4.0,4.0,1650849551377637.0,3
1517,-3.0,-1.0,-6.0,-28.0,-19.0,-20.0,-6.0,-2.0,1650849551377637.0,3
1518,4.0,5.0,14.0,8.0,10.0,4.0,1.0,2.0,1650849551379605.0,3
1519,-3.0,5.0,8.0,13.0,-13.0,-10.0,-2.0,-5.0,1650849551379605.0,3
1520,5.0,-8.0,-1.0,-4.0,0.0,-3.0,-1.0,2.0,1650849551391636.0,3
1521,1.0,1.0,2.0,-3.0,8.0,11.0,5.0,1.0,1650849551391636.0,3
1522,1.0,-3.0,-28.0,-3.0,3.0,3.0,0.0,0.0,1650849551400550.0,3
1523,1.0,-5.0,-4.0,-17.0,-18.0,-14.0,-6.0,-1.0,1650849551400550.0,3
1524,-6.0,-4.0,1.0,16.0,5.0,5.0,4.0,0.0,1650849551415517.0,3
1525,-4.0,6.0,19.0,-2.0,-7.0,-3.0,-2.0,-1.0,1650849551415517.0,3
1526,1.0,-8.0,9.0,-15.0,-14.0,-19.0,-2.0,0.0,1650849551417525.0,3
1527,2.0,14.0,-5.0,10.0,14.0,13.0,0.0,1.0,1650849551417525.0,3
1528,-7.0,-11.0,-7.0,3.0,-5.0,10.0,9.0,0.0,1650849551438578.0,3
1529,-8.0,-9.0,-3.0,-3.0,6.0,-7.0,-7.0,-8.0,1650849551438578.0,3
1530,-1.0,8.0,-1.0,-19.0,-9.0,2.0,2.0,0.0,1650849551439567.0,3
1531,-3.0,-19.0,-22.0,10.0,1.0,-14.0,-3.0,0.0,1650849551439567.0,3
1532,-5.0,4.0,15.0,11.0,-5.0,-8.0,-6.0,-5.0,1650849551467668.0,3
1533,-1.0,1.0,-25.0,-34.0,-17.0,-13.0,-4.0,-4.0,1650849551467668.0,3
1534,2.0,8.0,38.0,18.0,12.0,3.0,1.0,1.0,1650849551469637.0,3
1535,0.0,-3.0,-16.0,-9.0,-3.0,11.0,7.0,1.0,1650849551469637.0,3
1536,0.0,-2.0,-7.0,1.0,5.0,-3.0,0.0,2.0,1650849551475619.0,3
1537,-4.0,-1.0,9.0,0.0,3.0,4.0,2.0,2.0,1650849551475619.0,3
1538,1.0,5.0,18.0,7.0,-3.0,-6.0,-7.0,-5.0,1650849551476617.0,3
1539,6.0,11.0,4.0,-5.0,2.0,2.0,1.0,4.0,1650849551476617.0,3
1540,-5.0,-11.0,-16.0,-6.0,1.0,2.0,-1.0,-3.0,1650849551497560.0,3
1541,0.0,-8.0,-8.0,7.0,-14.0,-8.0,1.0,1.0,1650849551497560.0,3
1542,4.0,18.0,17.0,3.0,15.0,13.0,3.0,3.0,1650849551500092.0,3
1543,-1.0,-7.0,7.0,18.0,5.0,-3.0,-4.0,0.0,1650849551500092.0,3
1544,-1.0,3.0,-22.0,-22.0,-3.0,-6.0,-6.0,-3.0,1650849551521016.0,3
1545,-1.0,-1.0,-7.0,6.0,-2.0,5.0,2.0,1.0,1650849551521016.0,3
1546,-1.0,0.0,-9.0,1.0,6.0,10.0,5.0,1.0,1650849551522010.0,3
1547,-1.0,-12.0,3.0,9.0,9.0,-2.0,1.0,0.0,1650849551522010.0,3
1548,0.0,3.0,-3.0,-1.0,1.0,6.0,-2.0,0.0,1650849551535968.0,3
1549,2.0,5.0,6.0,1.0,-14.0,-15.0,-3.0,-2.0,1650849551535968.0,3
1550,-2.0,-3.0,5.0,7.0,24.0,16.0,0.0,-2.0,1650849551536823.0,3
1551,-5.0,5.0,-19.0,-30.0,-20.0,-18.0,-5.0,-2.0,1650849551536823.0,3
1552,2.0,-2.0,15.0,8.0,6.0,3.0,-1.0,0.0,1650849551557887.0,3
1553,0.0,-4.0,2.0,15.0,-4.0,0.0,-1.0,0.0,1650849551557887.0,3
1554,-1.0,1.0,-8.0,0.0,5.0,-1.0,1.0,4.0,1650849551559882.0,3
1555,-2.0,-2.0,6.0,-13.0,-12.0,-4.0,-2.0,-4.0,1650849551559882.0,3
1556,-4.0,3.0,-5.0,-6.0,0.0,19.0,2.0,-1.0,1650849551587963.0,3
1557,1.0,6.0,14.0,20.0,10.0,3.0,1.0,0.0,1650849551587963.0,3
1558,-6.0,-21.0,-28.0,-21.0,-18.0,-19.0,-7.0,-4.0,1650849551589890.0,3
1559,-1.0,5.0,24.0,-4.0,2.0,6.0,-1.0,-1.0,1650849551589890.0,3
1560,-1.0,6.0,-24.0,-6.0,-7.0,-6.0,1.0,0.0,1650849551595874.0,3
1561,-2.0,1.0,11.0,6.0,3.0,-4.0,-3.0,-2.0,1650849551595874.0,3
1562,0.0,5.0,16.0,12.0,-1.0,8.0,3.0,-1.0,1650849551596872.0,3
1563,3.0,9.0,-9.0,0.0,6.0,2.0,4.0,1.0,1650849551596872.0,3
1564,0.0,-6.0,14.0,17.0,-9.0,-12.0,-3.0,-1.0,1650849551617328.0,3
1565,1.0,2.0,8.0,-2.0,4.0,11.0,3.0,2.0,1650849551617328.0,3
1566,-2.0,-15.0,-30.0,-22.0,-8.0,-7.0,-1.0,-2.0,1650849551625314.0,3
1567,0.0,11.0,-5.0,2.0,-11.0,-7.0,-1.0,-2.0,1650849551625314.0,3
1568,5.0,2.0,12.0,0.0,14.0,14.0,6.0,6.0,1650849551640914.0,3
1569,2.0,0.0,-15.0,-4.0,8.0,1.0,2.0,3.0,1650849551640914.0,3
1570,0.0,-3.0,25.0,9.0,-4.0,1.0,-1.0,1.0,1650849551641903.0,3
1571,-1.0,4.0,-9.0,-1.0,-3.0,-1.0,-3.0,-1.0,1650849551641903.0,3
1572,-2.0,-6.0,-3.0,-5.0,-2.0,-7.0,-3.0,-3.0,1650849551654945.0,3
1573,-6.0,-2.0,5.0,-7.0,-12.0,-5.0,-7.0,-8.0,1650849551654945.0,3
1574,6.0,1.0,-22.0,-8.0,-5.0,-6.0,3.0,3.0,1650849551661928.0,3
1575,-2.0,-10.0,18.0,13.0,22.0,20.0,4.0,0.0,1650849551661928.0,3
1576,-4.0,3.0,-5.0,5.0,-1.0,-29.0,-4.0,-5.0,1650849551677913.0,3
1577,1.0,3.0,-3.0,-12.0,2.0,33.0,0.0,-1.0,1650849551677913.0,3
1578,-5.0,-1.0,7.0,-5.0,-9.0,-13.0,-4.0,-4.0,1650849551679881.0,3
1579,1.0,-2.0,-17.0,-16.0,-13.0,-5.0,-1.0,-1.0,1650849551679881.0,3
1580,2.0,-6.0,7.0,26.0,17.0,4.0,0.0,3.0,1650849551700368.0,3
1581,-3.0,-1.0,-15.0,-4.0,-4.0,-19.0,-7.0,-4.0,1650849551700368.0,3
1582,-5.0,-2.0,-6.0,-11.0,-7.0,2.0,-4.0,-2.0,1650849551702357.0,3
1583,9.0,-10.0,-2.0,-10.0,-9.0,0.0,0.0,0.0,1650849551702357.0,3
1584,-31.0,7.0,9.0,-6.0,-7.0,-7.0,-2.0,-3.0,1650849551715293.0,3
1585,2.0,-6.0,-5.0,-5.0,0.0,3.0,-1.0,-2.0,1650849551715293.0,3
1586,4.0,-1.0,-3.0,5.0,-1.0,2.0,3.0,3.0,1650849551721281.0,3
1587,-7.0,3.0,8.0,20.0,9.0,1.0,-2.0,-4.0,1650849551721281.0,3
1588,6.0,3.0,3.0,-8.0,-5.0,0.0,-3.0,-4.0,1650849551738076.0,3
1589,13.0,-4.0,7.0,8.0,-2.0,-15.0,-3.0,2.0,1650849551738076.0,3
1590,-17.0,-3.0,-5.0,-4.0,-7.0,4.0,4.0,-1.0,1650849551743992.0,3
1591,-6.0,-2.0,-2.0,0.0,5.0,9.0,3.0,3.0,1650849551743992.0,3
1592,9.0,1.0,-5.0,-7.0,10.0,24.0,9.0,4.0,1650849551760079.0,3
1593,-4.0,1.0,0.0,0.0,0.0,-2.0,1.0,0.0,1650849551760079.0,3
1594,6.0,0.0,4.0,7.0,0.0,-11.0,-6.0,-3.0,1650849551762048.0,3
1595,0.0,-4.0,-2.0,0.0,0.0,-7.0,0.0,1.0,1650849551762048.0,3
1596,9.0,0.0,8.0,-10.0,-9.0,-3.0,-4.0,-2.0,1650849551775038.0,3
1597,-30.0,8.0,-7.0,-5.0,-10.0,-11.0,1.0,-2.0,1650849551775038.0,3
1598,10.0,1.0,-3.0,2.0,7.0,18.0,6.0,3.0,1650849551782018.0,3
1599,2.0,-13.0,-21.0,-1.0,-1.0,-3.0,-3.0,-2.0,1650849551782018.0,3
1600,-3.0,4.0,4.0,0.0,0.0,-1.0,-1.0,0.0,1650849551797975.0,3
1601,24.0,-7.0,-13.0,-14.0,2.0,-12.0,-16.0,-10.0,1650849551797975.0,3
1602,-5.0,1.0,17.0,11.0,1.0,0.0,6.0,-4.0,1650849551799943.0,3
1603,9.0,7.0,7.0,-9.0,-4.0,4.0,19.0,22.0,1650849551799943.0,3
1604,42.0,-1.0,-7.0,1.0,-13.0,18.0,-1.0,0.0,1650849551820466.0,3
1605,-18.0,-4.0,4.0,4.0,25.0,6.0,-1.0,1.0,1650849551820466.0,3
1606,-9.0,6.0,-9.0,-3.0,4.0,-11.0,-22.0,-14.0,1650849551822416.0,3
1607,9.0,-2.0,3.0,-5.0,-9.0,-20.0,-27.0,-9.0,1650849551822416.0,3
1608,-9.0,-4.0,3.0,4.0,-12.0,-11.0,0.0,3.0,1650849551834368.0,3
1609,19.0,9.0,6.0,19.0,2.0,10.0,12.0,-4.0,1650849551834368.0,3
1610,-23.0,-7.0,0.0,-14.0,-3.0,-1.0,-4.0,-4.0,1650849551841407.0,3
1611,-10.0,-7.0,-13.0,-15.0,-4.0,-10.0,1.0,-3.0,1650849551841407.0,3
1612,12.0,24.0,18.0,14.0,1.0,0.0,-2.0,9.0,1650849551857962.0,3
1613,21.0,-4.0,1.0,11.0,9.0,14.0,-5.0,-4.0,1650849551857962.0,3
1614,-51.0,-9.0,3.0,2.0,2.0,-4.0,-1.0,4.0,1650849551863909.0,3
1615,21.0,8.0,-3.0,-7.0,-9.0,-15.0,-8.0,-11.0,1650849551863909.0,3
1616,-1.0,-12.0,-9.0,6.0,11.0,23.0,31.0,10.0,1650849551880007.0,3
1617,-9.0,-1.0,6.0,-14.0,-11.0,-15.0,0.0,3.0,1650849551880007.0,3
1618,38.0,4.0,-9.0,8.0,0.0,35.0,20.0,10.0,1650849551882003.0,3
1619,-14.0,4.0,13.0,18.0,20.0,-3.0,-16.0,-9.0,1650849551882003.0,3
1620,-15.0,-8.0,-5.0,-1.0,6.0,0.0,-9.0,-5.0,1650849551894995.0,3
1621,5.0,5.0,0.0,-9.0,-7.0,-4.0,7.0,6.0,1650849551894995.0,3
1622,3.0,-6.0,-1.0,-1.0,-13.0,-18.0,-15.0,-5.0,1650849551901466.0,3
1623,-8.0,3.0,1.0,0.0,-2.0,5.0,2.0,-1.0,1650849551901466.0,3
1624,0.0,-2.0,-1.0,5.0,0.0,-14.0,-2.0,-5.0,1650849551918434.0,3
1625,-10.0,-3.0,-7.0,-20.0,-10.0,-2.0,0.0,3.0,1650849551918434.0,3
1626,12.0,0.0,-13.0,-15.0,1.0,3.0,1.0,1.0,1650849551919420.0,3
1627,-6.0,2.0,16.0,22.0,7.0,13.0,12.0,5.0,1650849551919420.0,3
1628,0.0,0.0,-3.0,-7.0,2.0,-11.0,-7.0,-3.0,1650849551940361.0,3
1629,-8.0,-7.0,-12.0,-2.0,-2.0,10.0,-5.0,-2.0,1650849551940361.0,3
1630,-2.0,1.0,10.0,6.0,2.0,-4.0,3.0,-1.0,1650849551942356.0,3
1631,4.0,-11.0,-15.0,-24.0,-8.0,2.0,4.0,-1.0,1650849551942356.0,3
1632,-9.0,12.0,8.0,8.0,7.0,1.0,-3.0,-5.0,1650849551955390.0,3
1633,-4.0,-1.0,0.0,0.0,-10.0,-4.0,0.0,-1.0,1650849551955390.0,3
1634,10.0,-1.0,0.0,3.0,2.0,-3.0,2.0,0.0,1650849551961376.0,3
1635,-4.0,-5.0,0.0,3.0,-5.0,-8.0,-4.0,-1.0,1650849551961376.0,3
1636,-3.0,5.0,2.0,-11.0,1.0,5.0,1.0,-5.0,1650849551977355.0,3
1637,-2.0,-6.0,-14.0,-1.0,3.0,1.0,3.0,1.0,1650849551977355.0,3
1638,5.0,-3.0,5.0,7.0,-2.0,-5.0,-1.0,1.0,1650849551985401.0,3
1639,-6.0,-4.0,-1.0,5.0,0.0,-5.0,-3.0,-4.0,1650849551985401.0,3
1640,-7.0,-4.0,-6.0,-11.0,-12.0,-7.0,-1.0,0.0,1650849552000493.0,3
1641,2.0,0.0,7.0,7.0,10.0,10.0,4.0,4.0,1650849552000493.0,3
1642,2.0,-1.0,-1.0,-4.0,-14.0,-10.0,-4.0,-2.0,1650849552002435.0,3
1643,-1.0,2.0,1.0,4.0,9.0,8.0,4.0,0.0,1650849552002435.0,3
1644,0.0,-4.0,-3.0,3.0,3.0,1.0,-1.0,-1.0,1650849552014430.0,3
1645,-1.0,13.0,12.0,0.0,0.0,-2.0,1.0,1.0,1650849552014430.0,3
1646,1.0,-4.0,-2.0,-7.0,-4.0,-5.0,-4.0,-2.0,1650849552023378.0,3
1647,-3.0,-3.0,-6.0,1.0,-4.0,3.0,3.0,2.0,1650849552023378.0,3
1648,-2.0,2.0,6.0,1.0,0.0,-8.0,-5.0,-3.0,1650849552037994.0,3
1649,0.0,-5.0,-1.0,1.0,7.0,15.0,3.0,0.0,1650849552037994.0,3
1650,0.0,4.0,-4.0,-8.0,-6.0,1.0,0.0,0.0,1650849552039942.0,3
1651,2.0,3.0,2.0,7.0,11.0,10.0,2.0,2.0,1650849552039942.0,3
1652,-5.0,-10.0,-8.0,-5.0,-6.0,-15.0,-6.0,-2.0,1650849552060182.0,3
1653,-1.0,-2.0,3.0,3.0,-1.0,-8.0,-2.0,-2.0,1650849552060182.0,3
1654,2.0,1.0,2.0,2.0,4.0,7.0,2.0,0.0,1650849552062178.0,3
1655,-2.0,3.0,0.0,-3.0,7.0,12.0,5.0,0.0,1650849552062178.0,3
1656,-2.0,-6.0,-6.0,-7.0,-9.0,-5.0,-4.0,-2.0,1650849552074145.0,3
1657,-1.0,4.0,5.0,5.0,5.0,0.0,1.0,1.0,1650849552074145.0,3
1658,5.0,5.0,0.0,-2.0,-3.0,-11.0,-4.0,-1.0,1650849552083122.0,3
1659,0.0,1.0,-2.0,-4.0,-5.0,7.0,4.0,2.0,1650849552083122.0,3
1660,-2.0,2.0,-1.0,2.0,2.0,3.0,-2.0,-1.0,1650849552098110.0,3
1661,0.0,-1.0,1.0,-1.0,-2.0,0.0,0.0,-1.0,1650849552098110.0,3
1662,-1.0,-2.0,-2.0,-3.0,-1.0,-13.0,-2.0,-2.0,1650849552100097.0,3
1663,-2.0,0.0,-1.0,-4.0,-2.0,-2.0,-2.0,-2.0,1650849552100097.0,3
1664,2.0,-2.0,3.0,10.0,5.0,20.0,5.0,3.0,1650849552121029.0,3
1665,-1.0,-2.0,2.0,2.0,0.0,-15.0,-4.0,-2.0,1650849552121029.0,3
1666,-1.0,-1.0,3.0,-3.0,-3.0,5.0,1.0,0.0,1650849552122019.0,3
1667,1.0,-2.0,-11.0,-9.0,-9.0,0.0,-1.0,-2.0,1650849552122019.0,3
1668,-1.0,0.0,3.0,9.0,2.0,-5.0,-2.0,1.0,1650849552150943.0,3
1669,-1.0,-2.0,-9.0,-8.0,5.0,4.0,-1.0,-2.0,1650849552150943.0,3
1670,0.0,3.0,0.0,-3.0,0.0,-1.0,0.0,0.0,1650849552151938.0,3
1671,0.0,-1.0,14.0,14.0,-5.0,-6.0,-3.0,-1.0,1650849552151938.0,3
1672,-3.0,-2.0,-7.0,-8.0,-4.0,-6.0,-2.0,-1.0,1650849552158918.0,3
1673,1.0,1.0,4.0,3.0,-4.0,-1.0,0.0,0.0,1650849552158918.0,3
1674,0.0,1.0,-3.0,-1.0,10.0,15.0,3.0,1.0,1650849552160916.0,3
1675,-1.0,-2.0,-4.0,-6.0,-3.0,0.0,-2.0,-1.0,1650849552160916.0,3
1676,1.0,-2.0,-3.0,-3.0,-1.0,-3.0,-1.0,0.0,1650849552180010.0,3
1677,-1.0,1.0,6.0,4.0,-5.0,-20.0,-5.0,-3.0,1650849552180010.0,3
1678,-2.0,-4.0,-1.0,-1.0,0.0,13.0,4.0,0.0,1650849552181978.0,3
1679,1.0,1.0,3.0,-3.0,9.0,19.0,3.0,1.0,1650849552181978.0,3
1680,1.0,-1.0,-7.0,-7.0,-1.0,-5.0,1.0,0.0,1650849552193945.0,3
1681,-4.0,-2.0,-1.0,-2.0,-4.0,-1.0,-2.0,-3.0,1650849552193945.0,3
1682,0.0,-2.0,0.0,6.0,0.0,-8.0,-4.0,-2.0,1650849552202921.0,3
1683,0.0,1.0,1.0,5.0,-6.0,-12.0,-2.0,0.0,1650849552202921.0,3
1684,0.0,1.0,5.0,2.0,13.0,7.0,2.0,-1.0,1650849552217881.0,3
1685,-1.0,-3.0,-9.0,-10.0,-12.0,2.0,0.0,-1.0,1650849552217881.0,3
1686,0.0,3.0,10.0,7.0,-1.0,-9.0,-1.0,0.0,1650849552219876.0,3
1687,0.0,5.0,5.0,3.0,9.0,14.0,1.0,-1.0,1650849552219876.0,3
1688,-1.0,-3.0,-9.0,-7.0,-10.0,-8.0,-2.0,-1.0,1650849552240822.0,3
1689,-2.0,0.0,6.0,4.0,6.0,2.0,-2.0,0.0,1650849552240822.0,3
1690,-1.0,-1.0,-4.0,-5.0,-3.0,3.0,-2.0,0.0,1650849552241817.0,3
1691,-1.0,-3.0,-8.0,-5.0,-6.0,-11.0,-2.0,0.0,1650849552241817.0,3
1692,-1.0,1.0,7.0,8.0,0.0,-1.0,0.0,-1.0,1650849552253785.0,3
1693,0.0,-1.0,-11.0,-13.0,-3.0,0.0,1.0,0.0,1650849552253785.0,3
1694,-1.0,-3.0,0.0,-2.0,-10.0,-2.0,0.0,1.0,1650849552262766.0,3
1695,1.0,1.0,12.0,8.0,7.0,-2.0,0.0,-1.0,1650849552262766.0,3
1696,-2.0,-3.0,-7.0,-2.0,-5.0,-12.0,-5.0,-3.0,1650849552277850.0,3
1697,2.0,1.0,1.0,2.0,3.0,16.0,2.0,0.0,1650849552277850.0,3
1698,-1.0,1.0,-6.0,-1.0,4.0,6.0,3.0,-1.0,1650849552279803.0,3
1699,-1.0,-4.0,-7.0,-4.0,-10.0,-7.0,-2.0,-3.0,1650849552279803.0,3
1700,2.0,2.0,6.0,1.0,8.0,-4.0,-4.0,0.0,1650849552300549.0,3
1701,-3.0,-3.0,-3.0,-2.0,-3.0,-3.0,2.0,0.0,1650849552300549.0,3
1702,1.0,-1.0,1.0,0.0,1.0,-1.0,-1.0,2.0,1650849552302497.0,3
1703,-4.0,-2.0,-4.0,-3.0,-4.0,-4.0,-1.0,-1.0,1650849552302497.0,3
1704,-1.0,-3.0,-5.0,-5.0,-7.0,-12.0,-4.0,-2.0,1650849552314564.0,3
1705,1.0,2.0,2.0,-1.0,-9.0,-3.0,-1.0,-2.0,1650849552314564.0,3
1706,0.0,-2.0,-3.0,5.0,19.0,16.0,5.0,1.0,1650849552323497.0,0
1707,-1.0,0.0,-2.0,-1.0,1.0,-4.0,-1.0,0.0,1650849552323497.0,0
1708,0.0,-1.0,-5.0,-6.0,-9.0,2.0,0.0,-1.0,1650849552337566.0,0
1709,0.0,-1.0,2.0,10.0,2.0,0.0,-1.0,0.0,1650849552337566.0,0
1710,0.0,3.0,4.0,-1.0,-4.0,-8.0,-2.0,-3.0,1650849552339521.0,0
1711,-1.0,0.0,6.0,3.0,-2.0,-9.0,-4.0,-2.0,1650849552339521.0,0
1712,-2.0,1.0,3.0,-2.0,2.0,4.0,1.0,-1.0,1650849552360585.0,0
1713,0.0,-3.0,-6.0,-7.0,-4.0,7.0,3.0,1.0,1650849552360585.0,0
1714,0.0,-1.0,-3.0,1.0,3.0,6.0,1.0,1.0,1650849552361606.0,0
1715,-2.0,0.0,-2.0,2.0,6.0,2.0,1.0,0.0,1650849552361606.0,0
1716,0.0,-2.0,-1.0,-1.0,0.0,-1.0,-1.0,-1.0,1650849552374577.0,0
1717,-1.0,-2.0,2.0,2.0,-5.0,-10.0,-4.0,-1.0,1650849552374577.0,0
1718,-1.0,-1.0,-3.0,-4.0,-1.0,1.0,-2.0,-1.0,1650849552383547.0,0
1719,-1.0,-2.0,-2.0,-7.0,-2.0,-4.0,0.0,0.0,1650849552383547.0,0
1720,-1.0,0.0,1.0,4.0,-2.0,5.0,3.0,0.0,1650849552397908.0,0
1721,-1.0,-1.0,-5.0,-1.0,3.0,-1.0,0.0,0.0,1650849552397908.0,0
1722,-1.0,2.0,6.0,1.0,-7.0,-13.0,-5.0,-2.0,1650849552399884.0,0
1723,-1.0,-2.0,-5.0,-3.0,0.0,0.0,-2.0,-1.0,1650849552399884.0,0
1724,2.0,0.0,0.0,-1.0,7.0,21.0,7.0,2.0,1650849552420893.0,0
1725,0.0,-1.0,0.0,-2.0,-1.0,-3.0,-1.0,0.0,1650849552420893.0,0
1726,-1.0,-2.0,-4.0,-2.0,5.0,0.0,-1.0,0.0,1650849552422854.0,0
1727,-1.0,1.0,-2.0,-3.0,-13.0,-18.0,-3.0,-1.0,1650849552422854.0,0
1728,0.0,2.0,2.0,1.0,1.0,-3.0,-4.0,-1.0,1650849552442980.0,0
1729,0.0,0.0,-5.0,-4.0,1.0,1.0,-3.0,-1.0,1650849552442980.0,0
1730,0.0,1.0,13.0,23.0,13.0,18.0,6.0,1.0,1650849552444906.0,0
1731,-1.0,-2.0,0.0,-14.0,-11.0,0.0,-2.0,0.0,1650849552444906.0,0
1732,0.0,-1.0,-9.0,-4.0,5.0,-2.0,-1.0,0.0,1650849552457963.0,0
1733,1.0,2.0,-6.0,-2.0,-1.0,-5.0,-3.0,-1.0,1650849552457963.0,0
1734,-1.0,-4.0,-2.0,-1.0,3.0,-6.0,-3.0,-1.0,1650849552459920.0,0
1735,0.0,-6.0,-5.0,1.0,-4.0,4.0,1.0,-1.0,1650849552459920.0,0
1736,0.0,9.0,6.0,2.0,-7.0,-3.0,-1.0,-1.0,1650849552480834.0,0
1737,-1.0,-4.0,6.0,2.0,-1.0,-4.0,-2.0,-1.0,1650849552480834.0,0
1738,-1.0,-7.0,-13.0,-8.0,-8.0,-5.0,-1.0,-2.0,1650849552481839.0,0
1739,2.0,3.0,-4.0,2.0,9.0,7.0,2.0,1.0,1650849552481839.0,0
1740,-2.0,-4.0,0.0,-5.0,1.0,1.0,-1.0,1.0,1650849552503468.0,0
1741,0.0,2.0,2.0,3.0,1.0,16.0,10.0,3.0,1650849552503468.0,0
1742,0.0,-1.0,5.0,-1.0,-6.0,-14.0,-3.0,-3.0,1650849552504989.0,0
1743,-2.0,-1.0,-5.0,-1.0,4.0,15.0,3.0,-1.0,1650849552504989.0,0
1744,-1.0,-1.0,-5.0,-1.0,-3.0,-16.0,-4.0,-1.0,1650849552517954.0,0
1745,1.0,3.0,9.0,6.0,10.0,14.0,2.0,0.0,1650849552517954.0,0
1746,0.0,0.0,2.0,-4.0,-8.0,-9.0,-3.0,0.0,1650849552519976.0,0
1747,1.0,0.0,-1.0,10.0,8.0,-5.0,0.0,-1.0,1650849552519976.0,0
1748,-2.0,1.0,2.0,-2.0,-2.0,12.0,3.0,2.0,1650849552540895.0,0
1749,-1.0,-1.0,-5.0,-5.0,-3.0,-7.0,-3.0,-1.0,1650849552540895.0,0
1750,-1.0,-2.0,-8.0,-8.0,-9.0,-12.0,-4.0,-1.0,1650849552541890.0,0
1751,0.0,3.0,3.0,-1.0,4.0,2.0,-1.0,-2.0,1650849552541890.0,0
1752,-1.0,0.0,2.0,2.0,8.0,12.0,2.0,0.0,1650849552562939.0,0
1753,-1.0,1.0,-1.0,1.0,2.0,-6.0,-1.0,0.0,1650849552562939.0,0
1754,-1.0,0.0,-7.0,-3.0,-3.0,1.0,0.0,-3.0,1650849552564944.0,0
1755,-1.0,-1.0,2.0,2.0,-5.0,-4.0,-2.0,-2.0,1650849552564944.0,0
1756,-1.0,-3.0,-1.0,-2.0,-6.0,-6.0,-1.0,-1.0,1650849552577172.0,0
1757,-1.0,-1.0,-3.0,-2.0,-2.0,-9.0,-4.0,-1.0,1650849552577172.0,0
1758,-2.0,3.0,-1.0,2.0,8.0,-1.0,-4.0,-1.0,1650849552584089.0,0
1759,2.0,0.0,1.0,-3.0,-5.0,18.0,11.0,4.0,1650849552584089.0,0
1760,1.0,-2.0,-1.0,1.0,9.0,-1.0,-1.0,0.0,1650849552600212.0,0
1761,-1.0,-2.0,-2.0,-4.0,0.0,2.0,-1.0,-4.0,1650849552600212.0,0
1762,-3.0,-4.0,2.0,3.0,-7.0,-15.0,-4.0,-2.0,1650849552602208.0,0
1763,0.0,0.0,1.0,4.0,12.0,11.0,0.0,1.0,1650849552602208.0,0
1764,-1.0,-1.0,-4.0,-5.0,-8.0,-6.0,-2.0,1.0,1650849552623218.0,0
1765,0.0,0.0,-1.0,1.0,-3.0,-5.0,-1.0,0.0,1650849552623218.0,0
1766,-1.0,-2.0,-4.0,-3.0,3.0,8.0,0.0,0.0,1650849552629134.0,0
1767,-1.0,-3.0,2.0,-1.0,-12.0,-19.0,-6.0,-4.0,1650849552629134.0,0
1768,-1.0,-1.0,-4.0,-3.0,2.0,8.0,0.0,-4.0,1650849552637181.0,0
1769,0.0,-1.0,10.0,10.0,5.0,7.0,2.0,2.0,1650849552637181.0,0
1770,1.0,5.0,-5.0,-9.0,-4.0,-11.0,-2.0,1.0,1650849552644122.0,0
1771,1.0,1.0,1.0,6.0,14.0,37.0,5.0,1.0,1650849552644122.0,0
1772,-2.0,-6.0,-3.0,-6.0,-8.0,-20.0,-5.0,-2.0,1650849552660052.0,0
1773,-1.0,1.0,-1.0,-2.0,-2.0,-7.0,-2.0,-2.0,1650849552660052.0,0
1774,-1.0,2.0,0.0,1.0,-1.0,6.0,1.0,0.0,1650849552662048.0,0
1775,-2.0,-1.0,-4.0,-10.0,-7.0,-21.0,-6.0,-1.0,1650849552662048.0,0
1776,-1.0,-1.0,0.0,5.0,-8.0,5.0,1.0,0.0,1650849552683019.0,0
1777,0.0,-2.0,-4.0,4.0,7.0,1.0,0.0,-1.0,1650849552683019.0,0
1778,-2.0,5.0,3.0,-1.0,1.0,6.0,-1.0,-2.0,1650849552684987.0,0
1779,0.0,2.0,-7.0,-4.0,-5.0,-10.0,-1.0,0.0,1650849552684987.0,0
1780,-1.0,0.0,12.0,14.0,3.0,7.0,3.0,3.0,1650849552696953.0,0
1781,-1.0,3.0,6.0,-5.0,-1.0,-1.0,1.0,1.0,1650849552696953.0,0
1782,-1.0,-4.0,-9.0,-6.0,-2.0,0.0,1.0,-2.0,1650849552703957.0,0
1783,-1.0,0.0,-8.0,-1.0,-2.0,-5.0,-3.0,-1.0,1650849552703957.0,0
1784,-2.0,-3.0,-2.0,-4.0,-5.0,-11.0,-3.0,-3.0,1650849552720892.0,0
1785,-1.0,-4.0,-1.0,0.0,-4.0,-6.0,-4.0,-1.0,1650849552720892.0,0
1786,1.0,2.0,7.0,7.0,12.0,22.0,4.0,3.0,1650849552721897.0,0
1787,-2.0,-2.0,3.0,-2.0,2.0,6.0,0.0,0.0,1650849552721897.0,0
1788,2.0,4.0,-1.0,3.0,10.0,4.0,2.0,1.0,1650849552742831.0,0
1789,-4.0,-4.0,-5.0,-9.0,-10.0,-14.0,-3.0,-4.0,1650849552742831.0,0
1790,-2.0,-3.0,-5.0,2.0,-6.0,0.0,-1.0,0.0,1650849552744846.0,0
1791,1.0,-2.0,0.0,-5.0,-10.0,-10.0,-2.0,-1.0,1650849552744846.0,0
1792,-1.0,1.0,1.0,0.0,3.0,-3.0,-3.0,-1.0,1650849552756948.0,0
1793,2.0,-3.0,4.0,8.0,6.0,7.0,1.0,-1.0,1650849552756948.0,0
1794,-1.0,5.0,-5.0,-3.0,-8.0,-9.0,-2.0,-4.0,1650849552763863.0,0
1795,-1.0,-17.0,-10.0,-3.0,-1.0,1.0,1.0,-1.0,1650849552763863.0,0
1796,1.0,24.0,9.0,-2.0,2.0,0.0,1.0,1.0,1650849552780938.0,0
1797,0.0,-8.0,-1.0,2.0,1.0,9.0,3.0,1.0,1650849552780938.0,0
1798,1.0,2.0,9.0,0.0,1.0,-1.0,-1.0,1.0,1650849552781942.0,0
1799,-3.0,-5.0,-5.0,1.0,-1.0,-8.0,-3.0,-2.0,1650849552781942.0,0
1800,-2.0,-9.0,-15.0,-12.0,-12.0,-20.0,-4.0,-3.0,1650849552802877.0,0
1801,0.0,5.0,-3.0,-3.0,0.0,22.0,1.0,0.0,1650849552802877.0,0
1802,2.0,-3.0,6.0,5.0,2.0,-3.0,4.0,1.0,1650849552804891.0,0
1803,3.0,4.0,6.0,1.0,4.0,-2.0,-2.0,0.0,1650849552804891.0,0
1804,-2.0,-5.0,-14.0,-10.0,-9.0,-10.0,-3.0,0.0,1650849552817835.0,0
1805,0.0,9.0,5.0,8.0,11.0,17.0,7.0,2.0,1650849552817835.0,0
1806,-1.0,-7.0,-7.0,-9.0,-13.0,-2.0,-2.0,0.0,1650849552823820.0,0
1807,-1.0,6.0,6.0,2.0,5.0,0.0,0.0,-2.0,1650849552823820.0,0
1808,0.0,-3.0,6.0,5.0,3.0,-4.0,-2.0,-1.0,1650849552840775.0,0
1809,-4.0,-20.0,-14.0,-7.0,-8.0,-10.0,-4.0,-2.0,1650849552840775.0,0
1810,-3.0,22.0,8.0,3.0,6.0,7.0,-1.0,-2.0,1650849552841772.0,0
1811,0.0,1.0,1.0,-2.0,-10.0,-9.0,0.0,0.0,1650849552841772.0,0
1812,1.0,6.0,7.0,0.0,1.0,4.0,-2.0,-2.0,1650849552862797.0,0
1813,-2.0,4.0,-6.0,1.0,5.0,7.0,0.0,0.0,1650849552862797.0,0
1814,1.0,-10.0,-5.0,3.0,5.0,3.0,3.0,1.0,1650849552864792.0,0
1815,0.0,2.0,4.0,-5.0,-8.0,-15.0,-2.0,1.0,1650849552864792.0,0
1816,-2.0,2.0,0.0,4.0,6.0,19.0,3.0,0.0,1650849552876897.0,0
1817,0.0,-1.0,-3.0,-3.0,-5.0,-2.0,-2.0,-1.0,1650849552876897.0,0
1818,1.0,1.0,7.0,4.0,7.0,1.0,0.0,0.0,1650849552883864.0,0
1819,0.0,1.0,-4.0,2.0,0.0,-5.0,-2.0,-2.0,1650849552883864.0,0
1820,0.0,-11.0,-5.0,-3.0,-5.0,6.0,2.0,1.0,1650849552900798.0,0
1821,3.0,6.0,9.0,8.0,-1.0,-16.0,-3.0,0.0,1650849552900798.0,0
1822,-1.0,-6.0,-9.0,-6.0,3.0,4.0,-4.0,-2.0,1650849552901797.0,0
1823,0.0,-1.0,-1.0,-3.0,-1.0,1.0,3.0,2.0,1650849552901797.0,0
1824,-1.0,-4.0,-4.0,4.0,3.0,4.0,-1.0,-1.0,1650849552922808.0,0
1825,0.0,3.0,2.0,-1.0,-5.0,-7.0,-2.0,0.0,1650849552922808.0,0
1826,1.0,-9.0,-7.0,-2.0,1.0,-3.0,-1.0,0.0,1650849552924735.0,0
1827,-2.0,14.0,5.0,5.0,8.0,0.0,-1.0,-1.0,1650849552924735.0,0
1828,-3.0,-4.0,-10.0,-11.0,-11.0,-3.0,-3.0,-3.0,1650849552936704.0,0
1829,4.0,-1.0,1.0,2.0,8.0,3.0,2.0,0.0,1650849552936704.0,0
1830,0.0,-3.0,1.0,-3.0,-9.0,-4.0,-1.0,0.0,1650849552945799.0,0
1831,-2.0,-10.0,-10.0,-8.0,-7.0,-4.0,-3.0,-1.0,1650849552945799.0,0
1832,0.0,4.0,7.0,5.0,6.0,8.0,0.0,0.0,1650849552960576.0,0
1833,-2.0,-16.0,-6.0,1.0,5.0,-4.0,1.0,-3.0,1650849552960576.0,0
1834,-2.0,0.0,-2.0,0.0,-5.0,-9.0,-4.0,-1.0,1650849552962520.0,0
1835,4.0,16.0,6.0,6.0,6.0,22.0,5.0,0.0,1650849552962520.0,0
1836,-3.0,-31.0,-7.0,0.0,-1.0,-9.0,-2.0,-1.0,1650849552983482.0,0
1837,0.0,-4.0,-5.0,-11.0,-7.0,-3.0,-4.0,-1.0,1650849552983482.0,0
1838,-1.0,11.0,9.0,11.0,-3.0,-2.0,0.0,1.0,1650849552984452.0,0
1839,-1.0,-5.0,-4.0,-3.0,4.0,-2.0,-2.0,2.0,1650849552984452.0,0
1840,0.0,-1.0,-3.0,-2.0,-2.0,2.0,0.0,0.0,1650849552996419.0,0
1841,0.0,13.0,3.0,0.0,-2.0,1.0,-1.0,0.0,1650849552996419.0,0
1842,-5.0,-22.0,-15.0,-10.0,-8.0,-13.0,-5.0,-4.0,1650849553013378.0,0
1843,0.0,10.0,10.0,8.0,-1.0,4.0,-1.0,-1.0,1650849553013378.0,0
1844,2.0,3.0,1.0,-2.0,13.0,25.0,6.0,4.0,1650849553020359.0,0
1845,-1.0,-2.0,1.0,0.0,-1.0,-12.0,0.0,-1.0,1650849553020359.0,0
1846,0.0,5.0,1.0,-6.0,-9.0,-1.0,0.0,0.0,1650849553022380.0,0
1847,-2.0,-7.0,-4.0,4.0,0.0,-9.0,-2.0,-1.0,1650849553022380.0,0
1848,0.0,-6.0,1.0,1.0,-6.0,-3.0,0.0,-2.0,1650849553043325.0,0
1849,-3.0,7.0,-1.0,-3.0,3.0,-2.0,0.0,0.0,1650849553043325.0,0
1850,2.0,1.0,8.0,7.0,5.0,-4.0,0.0,2.0,1650849553044304.0,0
1851,-2.0,0.0,-1.0,-4.0,-6.0,6.0,-3.0,-3.0,1650849553044304.0,0
1852,-2.0,-2.0,-2.0,5.0,2.0,-14.0,0.0,0.0,1650849553056935.0,0
1853,-1.0,-3.0,-6.0,-4.0,3.0,5.0,-2.0,0.0,1650849553056935.0,0
1854,1.0,3.0,1.0,-1.0,-1.0,8.0,2.0,1.0,1650849553065913.0,0
1855,-2.0,-5.0,2.0,-1.0,1.0,-8.0,-5.0,-2.0,1650849553065913.0,0
1856,0.0,-4.0,-1.0,-2.0,-8.0,-6.0,-2.0,-1.0,1650849553080900.0,0
1857,1.0,22.0,16.0,4.0,0.0,0.0,0.0,-1.0,1650849553080900.0,0
1858,-1.0,-2.0,0.0,-6.0,1.0,-2.0,2.0,-1.0,1650849553081876.0,0
1859,-2.0,-8.0,-7.0,-2.0,12.0,18.0,4.0,-2.0,1650849553081876.0,0
1860,0.0,7.0,9.0,4.0,-6.0,-7.0,-2.0,-1.0,1650849553103484.0,0
1861,0.0,-4.0,-3.0,4.0,2.0,-2.0,-2.0,0.0,1650849553103484.0,0
1862,-3.0,-10.0,-12.0,-10.0,-4.0,-5.0,-2.0,-2.0,1650849553104483.0,0
1863,2.0,9.0,6.0,-1.0,-3.0,-8.0,0.0,0.0,1650849553104483.0,0
1864,-2.0,-8.0,-9.0,-6.0,-3.0,20.0,5.0,1.0,1650849553116476.0,0
1865,0.0,-4.0,6.0,4.0,0.0,-2.0,-1.0,2.0,1650849553116476.0,0
1866,0.0,7.0,1.0,4.0,10.0,8.0,2.0,0.0,1650849553125425.0,0
1867,-1.0,-5.0,-6.0,-1.0,-1.0,-10.0,-3.0,-3.0,1650849553125425.0,0
1868,1.0,5.0,1.0,-2.0,-5.0,-9.0,-3.0,-2.0,1650849553140453.0,0
1869,0.0,-2.0,-3.0,-6.0,-5.0,-1.0,-2.0,-2.0,1650849553140453.0,0
1870,-2.0,-7.0,-4.0,1.0,-2.0,0.0,0.0,-1.0,1650849553142407.0,0
1871,1.0,-10.0,3.0,5.0,1.0,-10.0,-3.0,-1.0,1650849553142407.0,0
1872,2.0,29.0,18.0,8.0,5.0,13.0,7.0,1.0,1650849553163420.0,0
1873,-3.0,-15.0,-25.0,-13.0,-8.0,8.0,3.0,-2.0,1650849553163420.0,0
1874,0.0,-4.0,5.0,2.0,8.0,7.0,0.0,0.0,1650849553164408.0,0
1875,-3.0,-4.0,-10.0,-3.0,-4.0,-7.0,-3.0,-2.0,1650849553164408.0,0
1876,-2.0,1.0,3.0,-1.0,1.0,-13.0,-5.0,-2.0,1650849553177566.0,0
1877,-1.0,-4.0,-7.0,3.0,-5.0,-9.0,-1.0,0.0,1650849553177566.0,0
1878,0.0,5.0,0.0,-4.0,-6.0,-8.0,0.0,-2.0,1650849553185543.0,0
1879,-1.0,-3.0,-1.0,-1.0,2.0,13.0,2.0,1.0,1650849553185543.0,0
1880,2.0,4.0,3.0,-1.0,2.0,8.0,2.0,1.0,1650849553200510.0,0
1881,-1.0,2.0,4.0,2.0,-3.0,-1.0,-2.0,-1.0,1650849553200510.0,0
1882,0.0,-3.0,-4.0,-2.0,3.0,2.0,-2.0,0.0,1650849553202499.0,0
1883,2.0,7.0,4.0,2.0,-3.0,-10.0,-3.0,0.0,1650849553202499.0,0
1884,-1.0,-4.0,-5.0,2.0,7.0,1.0,-1.0,0.0,1650849553222613.0,0
1885,0.0,-4.0,-2.0,-9.0,-9.0,-3.0,-1.0,-1.0,1650849553222613.0,0
1886,-2.0,4.0,3.0,8.0,0.0,-2.0,-2.0,-1.0,1650849553224610.0,0
1887,-2.0,-2.0,5.0,0.0,-4.0,0.0,0.0,0.0,1650849553224610.0,0
1888,1.0,-5.0,-8.0,-7.0,1.0,3.0,-3.0,0.0,1650849553236578.0,0
1889,-1.0,-1.0,-3.0,8.0,7.0,0.0,-1.0,-2.0,1650849553236578.0,0
1890,3.0,-1.0,12.0,4.0,2.0,3.0,1.0,3.0,1650849553245553.0,0
1891,-2.0,8.0,-8.0,-22.0,-15.0,-1.0,2.0,-2.0,1650849553245553.0,0
1892,1.0,-2.0,-17.0,2.0,1.0,-7.0,-5.0,0.0,1650849553260521.0,0
1893,0.0,8.0,26.0,5.0,-2.0,-12.0,-5.0,-2.0,1650849553260521.0,0
1894,-2.0,-7.0,-12.0,-1.0,0.0,15.0,2.0,-1.0,1650849553262519.0,0
1895,-5.0,-9.0,-6.0,-7.0,-1.0,-6.0,-2.0,-1.0,1650849553262519.0,0
1896,-1.0,5.0,21.0,4.0,-4.0,0.0,5.0,0.0,1650849553282578.0,0
1897,-1.0,-2.0,-13.0,0.0,4.0,2.0,0.0,-1.0,1650849553282578.0,0
1898,0.0,-2.0,6.0,-1.0,-4.0,-12.0,-2.0,-1.0,1650849553284559.0,0
1899,1.0,-7.0,-5.0,2.0,0.0,1.0,-3.0,0.0,1650849553284559.0,0
1900,-1.0,2.0,1.0,0.0,-1.0,-1.0,-2.0,-1.0,1650849553296541.0,0
1901,-1.0,-5.0,-4.0,-2.0,0.0,0.0,0.0,-1.0,1650849553296541.0,0
1902,-2.0,-2.0,-3.0,0.0,4.0,2.0,2.0,-1.0,1650849553305490.0,0
1903,0.0,0.0,-4.0,-3.0,2.0,2.0,-1.0,1.0,1650849553305490.0,0
