,EMG_s0,EMG_s1,EMG_s2,EMG_s3,EMG_s4,EMG_s5,EMG_s6,EMG_s7,timestamp,signal
0,1.0,0.0,0.0,-1.0,1.0,-1.0,0.0,-2.0,1651086540902761.0,0
1,-2.0,1.0,1.0,0.0,2.0,3.0,1.0,0.0,1651086540902761.0,0
2,-1.0,-1.0,-4.0,-6.0,-6.0,-1.0,1.0,-2.0,1651086540903060.0,0
3,-1.0,-2.0,-1.0,-3.0,-3.0,0.0,-2.0,-1.0,1651086540903060.0,0
4,-1.0,0.0,0.0,1.0,-4.0,-2.0,-1.0,1.0,1651086540915392.0,0
5,-1.0,-1.0,0.0,1.0,1.0,-1.0,0.0,-3.0,1651086540915392.0,0
6,-2.0,-1.0,0.0,3.0,3.0,1.0,-1.0,0.0,1651086540924565.0,0
7,0.0,0.0,-1.0,-6.0,-4.0,-2.0,-1.0,0.0,1651086540924565.0,0
8,0.0,0.0,1.0,-4.0,-6.0,-1.0,0.0,-1.0,1651086540939048.0,0
9,1.0,1.0,-1.0,4.0,4.0,2.0,0.0,0.0,1651086540939048.0,0
10,0.0,-1.0,-1.0,-1.0,-6.0,-2.0,0.0,0.0,1651086540941044.0,0
11,-1.0,-1.0,-2.0,-3.0,1.0,-2.0,-1.0,0.0,1651086540941044.0,0
12,0.0,0.0,0.0,-1.0,0.0,-2.0,0.0,-2.0,1651086540962516.0,0
13,-1.0,0.0,0.0,-1.0,3.0,1.0,0.0,-1.0,1651086540962516.0,0
14,-1.0,0.0,1.0,0.0,-2.0,-1.0,-1.0,0.0,1651086540963093.0,0
15,-1.0,0.0,0.0,0.0,2.0,1.0,0.0,0.0,1651086540963093.0,0
16,-1.0,-1.0,-2.0,-2.0,-2.0,0.0,0.0,-1.0,1651086540976220.0,0
17,1.0,-1.0,-1.0,-1.0,-3.0,-4.0,-2.0,0.0,1651086540976220.0,0
18,-1.0,0.0,-1.0,3.0,2.0,1.0,1.0,-1.0,1651086540985220.0,0
19,0.0,-1.0,1.0,-5.0,-6.0,-2.0,0.0,-2.0,1651086540985220.0,0
20,-2.0,-1.0,-2.0,3.0,1.0,-1.0,-1.0,-1.0,1651086540999418.0,0
21,1.0,0.0,-1.0,5.0,6.0,1.0,1.0,0.0,1651086540999418.0,0
22,-1.0,0.0,0.0,1.0,5.0,0.0,-1.0,0.0,1651086541001292.0,0
23,1.0,-1.0,-1.0,-3.0,-8.0,-3.0,0.0,0.0,1651086541001292.0,0
24,0.0,-1.0,1.0,4.0,7.0,3.0,1.0,1.0,1651086541022448.0,0
25,-1.0,-2.0,-3.0,-3.0,-1.0,0.0,0.0,-1.0,1651086541022448.0,0
26,-1.0,-1.0,0.0,-2.0,-2.0,0.0,-1.0,0.0,1651086541023407.0,0
27,0.0,-1.0,-1.0,-4.0,-6.0,-1.0,-2.0,-3.0,1651086541023407.0,0
28,0.0,-1.0,-2.0,-13.0,-10.0,-6.0,-1.0,0.0,1651086541035735.0,0
29,-1.0,0.0,2.0,7.0,2.0,3.0,2.0,-1.0,1651086541035735.0,0
30,-1.0,-1.0,-2.0,-15.0,-19.0,-9.0,-3.0,-1.0,1651086541052213.0,0
31,1.0,2.0,0.0,3.0,6.0,5.0,2.0,2.0,1651086541052213.0,0
32,-3.0,-9.0,1.0,5.0,5.0,3.0,0.0,1.0,1651086541060259.0,0
33,-2.0,0.0,0.0,-3.0,-1.0,-3.0,-2.0,-1.0,1651086541060259.0,0
34,-1.0,-3.0,-3.0,4.0,-9.0,-4.0,-1.0,-2.0,1651086541061226.0,0
35,-2.0,-1.0,-2.0,-6.0,-2.0,-2.0,-1.0,-1.0,1651086541061226.0,0
36,0.0,4.0,0.0,-5.0,-7.0,-6.0,-3.0,-1.0,1651086541082348.0,0
37,0.0,-2.0,-1.0,2.0,2.0,-1.0,0.0,-2.0,1651086541082348.0,0
38,0.0,1.0,2.0,-4.0,-9.0,-3.0,-2.0,1.0,1651086541083210.0,0
39,0.0,-1.0,-1.0,1.0,3.0,0.0,-1.0,-1.0,1651086541083210.0,0
40,2.0,1.0,0.0,-1.0,-2.0,-1.0,0.0,0.0,1651086541105334.0,0
41,-2.0,-2.0,-2.0,-5.0,-6.0,-1.0,-2.0,-1.0,1651086541105334.0,0
42,1.0,1.0,5.0,19.0,21.0,5.0,1.0,1.0,1651086541106235.0,0
43,-1.0,-2.0,0.0,0.0,2.0,1.0,-1.0,0.0,1651086541106235.0,0
44,1.0,0.0,0.0,2.0,4.0,-1.0,0.0,0.0,1651086541120339.0,0
45,-1.0,0.0,-3.0,-9.0,-11.0,-4.0,-2.0,-1.0,1651086541120339.0,0
46,1.0,-2.0,-1.0,-1.0,3.0,1.0,1.0,-2.0,1651086541121180.0,0
47,-2.0,0.0,0.0,2.0,1.0,-1.0,0.0,0.0,1651086541121180.0,0
48,-1.0,1.0,-2.0,-2.0,-5.0,0.0,0.0,-1.0,1651086541142752.0,0
49,-1.0,-2.0,0.0,1.0,4.0,2.0,-2.0,2.0,1651086541142752.0,0
50,-1.0,-1.0,0.0,1.0,4.0,2.0,0.0,1.0,1651086541143690.0,0
51,0.0,-1.0,-1.0,-2.0,-3.0,-4.0,-1.0,-2.0,1651086541143690.0,0
52,-2.0,0.0,-2.0,3.0,-2.0,0.0,-1.0,-2.0,1651086541163637.0,0
53,1.0,0.0,0.0,1.0,2.0,0.0,-1.0,2.0,1651086541163637.0,0
54,1.0,-1.0,-2.0,-2.0,1.0,1.0,0.0,0.0,1651086541170621.0,0
55,-1.0,1.0,0.0,-1.0,-2.0,-2.0,-1.0,0.0,1651086541170621.0,0
56,-1.0,2.0,0.0,3.0,5.0,3.0,3.0,1.0,1651086541179217.0,0
57,0.0,0.0,0.0,-2.0,-4.0,-1.0,1.0,0.0,1651086541179217.0,0
58,-1.0,-1.0,-1.0,0.0,5.0,0.0,1.0,-1.0,1651086541181247.0,0
59,0.0,0.0,-1.0,-1.0,-6.0,-3.0,-1.0,-2.0,1651086541181247.0,0
60,0.0,-1.0,-2.0,3.0,4.0,1.0,1.0,0.0,1651086541202390.0,0
61,0.0,0.0,0.0,1.0,2.0,-1.0,-2.0,1.0,1651086541202390.0,0
62,2.0,-1.0,-1.0,-7.0,-6.0,-2.0,-2.0,0.0,1651086541203094.0,0
63,0.0,-2.0,-1.0,1.0,-1.0,-4.0,-1.0,-3.0,1651086541203094.0,0
64,-3.0,-3.0,-1.0,-4.0,0.0,2.0,-1.0,1.0,1651086541224333.0,0
65,0.0,1.0,0.0,-1.0,-5.0,-3.0,1.0,-1.0,1651086541224333.0,0
66,-1.0,1.0,-3.0,-5.0,-6.0,-4.0,-1.0,-1.0,1651086541226229.0,0
67,-1.0,-2.0,-2.0,-2.0,5.0,3.0,0.0,0.0,1651086541226229.0,0
68,0.0,-1.0,0.0,1.0,-5.0,-4.0,-2.0,-2.0,1651086541239257.0,0
69,-1.0,-1.0,0.0,2.0,3.0,1.0,1.0,0.0,1651086541239257.0,0
70,0.0,-1.0,0.0,1.0,5.0,4.0,1.0,-1.0,1651086541245277.0,0
71,-1.0,-1.0,-3.0,-5.0,-7.0,-3.0,-2.0,1.0,1651086541245277.0,0
72,-1.0,2.0,1.0,-3.0,-10.0,-2.0,-2.0,-1.0,1651086541261088.0,0
73,0.0,-2.0,2.0,12.0,16.0,3.0,0.0,-1.0,1651086541261088.0,0
74,-2.0,0.0,0.0,0.0,-2.0,-3.0,-1.0,-3.0,1651086541269278.0,0
75,-1.0,0.0,0.0,-1.0,2.0,1.0,1.0,1.0,1651086541269278.0,0
76,2.0,-1.0,-1.0,-3.0,1.0,0.0,0.0,1.0,1651086541284192.0,0
77,-1.0,-1.0,0.0,-2.0,-3.0,-3.0,-1.0,-1.0,1651086541284192.0,0
78,1.0,-1.0,1.0,-2.0,-1.0,2.0,1.0,0.0,1651086541286058.0,0
79,1.0,-1.0,1.0,1.0,1.0,0.0,1.0,0.0,1651086541286058.0,0
80,0.0,-2.0,-1.0,2.0,8.0,1.0,0.0,0.0,1651086541307334.0,0
81,-1.0,-1.0,-3.0,-9.0,-13.0,-4.0,-4.0,0.0,1651086541307334.0,0
82,-1.0,0.0,0.0,-2.0,5.0,0.0,0.0,0.0,1651086541308334.0,0
83,-1.0,2.0,-1.0,7.0,7.0,5.0,1.0,-2.0,1651086541308334.0,0
84,-1.0,1.0,-1.0,1.0,-1.0,0.0,1.0,0.0,1651086541320339.0,0
85,-1.0,-1.0,-1.0,-3.0,-3.0,-1.0,0.0,-1.0,1651086541320339.0,0
86,-1.0,-1.0,0.0,-4.0,-6.0,-3.0,-2.0,0.0,1651086541329207.0,0
87,0.0,-1.0,0.0,1.0,-1.0,-2.0,-2.0,0.0,1651086541329207.0,0
88,-1.0,-1.0,-2.0,-2.0,-3.0,-3.0,-2.0,-3.0,1651086541344188.0,0
89,-1.0,-3.0,0.0,0.0,1.0,2.0,1.0,-1.0,1651086541344188.0,0
90,0.0,0.0,0.0,-2.0,-5.0,-1.0,0.0,-2.0,1651086541346215.0,0
91,-1.0,-1.0,0.0,-1.0,-3.0,-2.0,-1.0,-1.0,1651086541346215.0,0
92,2.0,-2.0,-1.0,6.0,5.0,1.0,1.0,0.0,1651086541367186.0,0
93,0.0,0.0,-1.0,-5.0,-5.0,-1.0,-3.0,1.0,1651086541367186.0,0
94,0.0,-2.0,-1.0,2.0,3.0,2.0,1.0,2.0,1651086541368143.0,0
95,-1.0,0.0,-1.0,-3.0,0.0,0.0,-2.0,-2.0,1651086541368143.0,0
96,-1.0,0.0,0.0,-3.0,-3.0,-1.0,0.0,-1.0,1651086541389051.0,0
97,2.0,1.0,-2.0,0.0,-2.0,0.0,-1.0,0.0,1651086541389051.0,0
98,1.0,-2.0,-3.0,-1.0,-3.0,-2.0,0.0,-2.0,1651086541391047.0,0
99,-2.0,-1.0,-1.0,-1.0,0.0,-1.0,-1.0,0.0,1651086541391047.0,0
100,-2.0,-1.0,-1.0,-6.0,-8.0,0.0,-1.0,-1.0,1651086541404009.0,0
101,-1.0,0.0,1.0,4.0,3.0,0.0,0.0,-1.0,1651086541404009.0,0
102,-2.0,-1.0,-2.0,2.0,1.0,-2.0,-1.0,0.0,1651086541406004.0,0
103,1.0,-1.0,-1.0,-4.0,-5.0,-3.0,0.0,2.0,1651086541406004.0,0
104,2.0,1.0,0.0,4.0,2.0,0.0,0.0,0.0,1651086541427354.0,0
105,-1.0,-2.0,1.0,-3.0,-2.0,-1.0,0.0,-2.0,1651086541427354.0,0
106,-2.0,0.0,0.0,0.0,1.0,-1.0,0.0,0.0,1651086541428354.0,0
107,-1.0,-1.0,0.0,-5.0,-7.0,-3.0,0.0,-2.0,1651086541428354.0,0
108,1.0,2.0,1.0,0.0,-2.0,-1.0,-1.0,0.0,1651086541441048.0,0
109,-1.0,-1.0,-1.0,3.0,1.0,1.0,-3.0,0.0,1651086541441048.0,0
110,-1.0,-1.0,0.0,-1.0,4.0,-1.0,1.0,1.0,1651086541449219.0,0
111,0.0,-2.0,1.0,-1.0,1.0,1.0,1.0,-1.0,1651086541449219.0,0
112,-2.0,0.0,-1.0,-7.0,-6.0,-4.0,0.0,1.0,1651086541464360.0,0
113,-1.0,0.0,-2.0,3.0,0.0,0.0,1.0,-1.0,1651086541464360.0,0
114,1.0,0.0,-2.0,-1.0,-2.0,-2.0,-3.0,-1.0,1651086541466211.0,0
115,0.0,-1.0,0.0,4.0,6.0,1.0,2.0,-1.0,1651086541466211.0,0
116,-2.0,-2.0,0.0,0.0,1.0,-1.0,1.0,-1.0,1651086541487458.0,0
117,-2.0,0.0,0.0,-8.0,-6.0,-4.0,-1.0,0.0,1651086541487458.0,0
118,0.0,-1.0,0.0,7.0,15.0,6.0,0.0,0.0,1651086541488404.0,0
119,0.0,1.0,-2.0,1.0,-3.0,-2.0,-2.0,0.0,1651086541488404.0,0
120,-2.0,-1.0,-3.0,0.0,4.0,0.0,-1.0,-2.0,1651086541510393.0,0
121,0.0,0.0,0.0,-5.0,-4.0,-1.0,-1.0,-3.0,1651086541510393.0,0
122,-1.0,0.0,0.0,-1.0,-5.0,-3.0,-1.0,-1.0,1651086541511269.0,0
123,-2.0,0.0,-2.0,-1.0,0.0,0.0,0.0,-1.0,1651086541511269.0,0
124,-2.0,-1.0,-1.0,-1.0,0.0,-1.0,-1.0,1.0,1651086541524623.0,0
125,0.0,0.0,-1.0,2.0,3.0,1.0,1.0,1.0,1651086541524623.0,0
126,0.0,0.0,-1.0,3.0,2.0,0.0,0.0,-1.0,1651086541526457.0,0
127,-1.0,-1.0,1.0,1.0,0.0,0.0,-1.0,1.0,1651086541526457.0,0
128,1.0,0.0,0.0,-2.0,0.0,1.0,-2.0,0.0,1651086541547384.0,0
129,0.0,0.0,-1.0,-1.0,-2.0,-1.0,0.0,0.0,1651086541547384.0,0
130,0.0,0.0,-1.0,-6.0,-10.0,-3.0,-2.0,0.0,1651086541548256.0,0
131,-2.0,-2.0,0.0,-1.0,-1.0,-1.0,-1.0,0.0,1651086541548256.0,0
132,0.0,-1.0,0.0,1.0,2.0,1.0,0.0,-1.0,1651086541569216.0,0
133,0.0,0.0,1.0,-2.0,0.0,-1.0,0.0,1.0,1651086541569216.0,0
134,-1.0,0.0,-2.0,-2.0,-3.0,0.0,0.0,0.0,1651086541571245.0,0
135,1.0,1.0,-1.0,-1.0,-2.0,0.0,2.0,0.0,1651086541571245.0,0
136,-1.0,-1.0,2.0,4.0,3.0,3.0,-1.0,-2.0,1651086541584783.0,0
137,-1.0,-2.0,-3.0,-5.0,-3.0,-2.0,-1.0,0.0,1651086541584783.0,0
138,0.0,-2.0,-1.0,-3.0,-13.0,-4.0,-2.0,0.0,1651086541585649.0,0
139,1.0,2.0,2.0,16.0,19.0,4.0,1.0,0.0,1651086541585649.0,0
140,0.0,-1.0,-2.0,-2.0,-2.0,-2.0,-1.0,-1.0,1651086541607350.0,0
141,-1.0,0.0,0.0,0.0,-1.0,-2.0,0.0,-1.0,1651086541607350.0,0
142,-1.0,0.0,-2.0,-6.0,-7.0,-4.0,1.0,0.0,1651086541608239.0,0
143,-1.0,-2.0,0.0,0.0,5.0,0.0,-1.0,-2.0,1651086541608239.0,0
144,1.0,-1.0,-1.0,-1.0,0.0,-1.0,1.0,1.0,1651086541637312.0,0
145,-1.0,0.0,-1.0,-2.0,-3.0,-3.0,-1.0,-1.0,1651086541637312.0,0
146,0.0,-1.0,0.0,-2.0,-1.0,3.0,-1.0,-2.0,1651086541638312.0,0
147,0.0,-1.0,-2.0,-4.0,-7.0,-2.0,-1.0,-1.0,1651086541638312.0,0
148,0.0,-2.0,1.0,1.0,-1.0,-1.0,0.0,-1.0,1651086541644343.0,0
149,-3.0,0.0,-2.0,-2.0,6.0,3.0,0.0,-3.0,1651086541644343.0,0
150,-1.0,-1.0,-1.0,1.0,0.0,0.0,0.0,0.0,1651086541646322.0,0
151,-1.0,1.0,-1.0,0.0,-1.0,-2.0,-2.0,-1.0,1651086541646322.0,0
152,0.0,-1.0,0.0,2.0,-3.0,-1.0,1.0,1.0,1651086541667337.0,0
153,1.0,-2.0,-2.0,-6.0,-6.0,-2.0,-1.0,1.0,1651086541667337.0,0
154,-1.0,-1.0,0.0,-3.0,2.0,0.0,-1.0,-1.0,1651086541668202.0,0
155,-1.0,-2.0,-4.0,0.0,2.0,-3.0,-1.0,0.0,1651086541668202.0,0
156,-2.0,-1.0,-2.0,-2.0,-9.0,-4.0,-2.0,0.0,1651086541697349.0,0
157,0.0,0.0,1.0,3.0,12.0,6.0,2.0,-1.0,1651086541697349.0,0
158,0.0,0.0,2.0,8.0,9.0,1.0,0.0,-1.0,1651086541698350.0,0
159,1.0,0.0,-1.0,-6.0,-9.0,-1.0,-1.0,1.0,1651086541698350.0,0
160,1.0,0.0,0.0,-4.0,-5.0,-3.0,-2.0,-2.0,1651086541704470.0,0
161,-1.0,-2.0,-2.0,1.0,-4.0,-3.0,1.0,-2.0,1651086541704470.0,0
162,-2.0,-1.0,-1.0,-4.0,-4.0,-2.0,0.0,0.0,1651086541706328.0,0
163,-1.0,-1.0,-1.0,-7.0,-3.0,0.0,-1.0,-2.0,1651086541706328.0,0
164,-3.0,0.0,-4.0,1.0,-3.0,-4.0,-2.0,-1.0,1651086541727429.0,0
165,-1.0,0.0,0.0,6.0,10.0,3.0,0.0,-2.0,1651086541727429.0,0
166,0.0,0.0,-3.0,-11.0,-10.0,-3.0,-1.0,-1.0,1651086541728430.0,0
167,0.0,-1.0,-1.0,8.0,5.0,2.0,0.0,0.0,1651086541728430.0,0
168,-2.0,-1.0,0.0,-1.0,0.0,0.0,0.0,0.0,1651086541749373.0,0
169,-1.0,0.0,1.0,-7.0,-11.0,-3.0,-2.0,-2.0,1651086541749373.0,0
170,0.0,-1.0,-1.0,11.0,12.0,4.0,0.0,-1.0,1651086541751402.0,0
171,0.0,-1.0,1.0,7.0,11.0,2.0,0.0,0.0,1651086541751402.0,0
172,1.0,1.0,-2.0,-7.0,-7.0,-3.0,-2.0,-1.0,1651086541763367.0,0
173,-2.0,-1.0,-1.0,4.0,-3.0,-1.0,-2.0,0.0,1651086541763367.0,0
174,-2.0,-2.0,-3.0,-7.0,-8.0,-1.0,-1.0,0.0,1651086541770353.0,0
175,-1.0,-1.0,0.0,-7.0,-7.0,-4.0,-1.0,-1.0,1651086541770353.0,0
176,1.0,-1.0,1.0,7.0,6.0,2.0,1.0,0.0,1651086541787295.0,0
177,0.0,-1.0,-2.0,5.0,10.0,4.0,0.0,2.0,1651086541787295.0,0
178,-1.0,0.0,0.0,-2.0,3.0,0.0,-1.0,1.0,1651086541788269.0,0
179,-1.0,-1.0,-2.0,-7.0,-11.0,-2.0,0.0,-2.0,1651086541788269.0,0
180,-1.0,2.0,1.0,5.0,8.0,3.0,1.0,0.0,1651086541809244.0,0
181,0.0,0.0,-1.0,-9.0,-18.0,-6.0,-3.0,-4.0,1651086541809244.0,0
182,1.0,2.0,-1.0,3.0,-8.0,-5.0,-1.0,0.0,1651086541811233.0,0
183,-2.0,-4.0,1.0,4.0,14.0,2.0,0.0,-1.0,1651086541811233.0,0
184,0.0,-2.0,-2.0,-6.0,11.0,6.0,0.0,-2.0,1651086541824174.0,0
185,0.0,-1.0,-2.0,0.0,-4.0,1.0,3.0,1.0,1651086541824174.0,0
186,0.0,0.0,3.0,-3.0,-5.0,-3.0,-2.0,-2.0,1651086541830158.0,0
187,-1.0,2.0,-10.0,-7.0,-15.0,-4.0,-1.0,0.0,1651086541830158.0,0
188,0.0,-1.0,-2.0,6.0,2.0,-2.0,-1.0,-1.0,1651086541847112.0,0
189,-2.0,-2.0,-3.0,-3.0,-1.0,-2.0,-3.0,1.0,1651086541847112.0,0
190,-1.0,-1.0,-1.0,-9.0,-8.0,-2.0,-2.0,-2.0,1651086541848109.0,0
191,-1.0,0.0,2.0,3.0,3.0,-1.0,-1.0,-1.0,1651086541848109.0,0
192,0.0,-1.0,1.0,-12.0,0.0,0.0,0.0,-2.0,1651086541869094.0,0
193,1.0,2.0,-1.0,7.0,-16.0,-5.0,0.0,0.0,1651086541869094.0,0
194,0.0,-2.0,5.0,21.0,39.0,7.0,2.0,1.0,1651086541871048.0,0
195,-1.0,0.0,-4.0,-28.0,-11.0,-2.0,-1.0,0.0,1651086541871048.0,0
196,-2.0,1.0,5.0,23.0,27.0,13.0,4.0,3.0,1651086541884047.0,0
197,-2.0,-8.0,-2.0,-2.0,-1.0,-1.0,-3.0,-2.0,1651086541884047.0,0
198,-1.0,1.0,4.0,-2.0,-14.0,-4.0,0.0,1.0,1651086541889997.0,0
199,-1.0,-11.0,-6.0,-1.0,-7.0,-6.0,-2.0,-1.0,1651086541889997.0,0
200,-2.0,7.0,-5.0,-8.0,-24.0,-10.0,-5.0,-1.0,1651086541906984.0,0
201,0.0,3.0,0.0,-4.0,14.0,4.0,-1.0,0.0,1651086541906984.0,0
202,-2.0,-5.0,3.0,32.0,27.0,7.0,2.0,0.0,1651086541912966.0,1
203,2.0,2.0,-1.0,-17.0,-12.0,-2.0,0.0,1.0,1651086541912966.0,1
204,-4.0,-5.0,7.0,2.0,3.0,-1.0,-1.0,1.0,1651086541928925.0,1
205,2.0,3.0,0.0,-3.0,9.0,7.0,4.0,4.0,1651086541928925.0,1
206,-1.0,-2.0,-10.0,-11.0,-15.0,-7.0,-3.0,-2.0,1651086541930888.0,1
207,2.0,5.0,5.0,-1.0,-14.0,-3.0,0.0,-1.0,1651086541930888.0,1
208,1.0,-3.0,-1.0,-3.0,-4.0,-2.0,-1.0,-1.0,1651086541943884.0,1
209,-1.0,0.0,2.0,14.0,21.0,6.0,2.0,0.0,1651086541943884.0,1
210,0.0,1.0,0.0,-21.0,-17.0,-6.0,-1.0,-2.0,1651086541950834.0,1
211,-1.0,2.0,3.0,5.0,-9.0,-3.0,-1.0,-1.0,1651086541950834.0,1
212,2.0,-5.0,-10.0,-10.0,-3.0,4.0,2.0,0.0,1651086541974769.0,1
213,-1.0,5.0,11.0,6.0,7.0,0.0,-2.0,-1.0,1651086541974769.0,1
214,1.0,1.0,-7.0,-8.0,-6.0,-2.0,0.0,-2.0,1651086541975768.0,1
215,0.0,-15.0,7.0,0.0,-4.0,1.0,-1.0,-1.0,1651086541975768.0,1
216,0.0,30.0,-2.0,26.0,24.0,7.0,2.0,2.0,1651086541989763.0,1
217,-4.0,-13.0,-9.0,-12.0,3.0,1.0,2.0,1.0,1651086541989763.0,1
218,0.0,6.0,7.0,-4.0,-10.0,-4.0,-2.0,-1.0,1651086541990727.0,1
219,0.0,0.0,6.0,10.0,2.0,2.0,0.0,0.0,1651086541990727.0,1
220,-2.0,-12.0,5.0,-9.0,-11.0,-4.0,-2.0,-3.0,1651086542004723.0,1
221,2.0,0.0,-16.0,-11.0,-5.0,-2.0,0.0,-1.0,1651086542004723.0,1
222,-2.0,-2.0,0.0,-6.0,-7.0,-4.0,-3.0,-1.0,1651086542010716.0,1
223,-1.0,4.0,1.0,15.0,19.0,4.0,-1.0,1.0,1651086542010716.0,1
224,0.0,-13.0,10.0,2.0,-7.0,-2.0,0.0,2.0,1651086542027021.0,1
225,1.0,6.0,5.0,9.0,-5.0,-5.0,0.0,-2.0,1651086542027021.0,1
226,-1.0,-4.0,-29.0,-10.0,4.0,2.0,1.0,1.0,1651086542029042.0,1
227,-1.0,2.0,3.0,4.0,3.0,-1.0,0.0,0.0,1651086542029042.0,1
228,-4.0,-2.0,-3.0,-12.0,-14.0,-8.0,-4.0,-4.0,1651086542049114.0,1
229,1.0,6.0,5.0,1.0,-1.0,-1.0,0.0,-1.0,1651086542049114.0,1
230,-3.0,-6.0,-19.0,-1.0,4.0,2.0,-3.0,-1.0,1651086542051114.0,1
231,1.0,6.0,23.0,18.0,2.0,-1.0,3.0,1.0,1651086542051114.0,1
232,-1.0,1.0,-37.0,-34.0,-11.0,-3.0,-3.0,-1.0,1651086542063181.0,1
233,-4.0,-15.0,-15.0,-17.0,-10.0,-4.0,-2.0,-2.0,1651086542063181.0,1
234,0.0,7.0,20.0,10.0,15.0,7.0,3.0,-3.0,1651086542071734.0,1
235,1.0,1.0,-21.0,-12.0,1.0,1.0,1.0,8.0,1651086542071734.0,1
236,0.0,-5.0,38.0,-1.0,-4.0,-3.0,-2.0,-5.0,1651086542087279.0,1
237,6.0,6.0,20.0,18.0,1.0,-1.0,2.0,11.0,1651086542087279.0,1
238,3.0,7.0,24.0,17.0,8.0,4.0,1.0,-13.0,1651086542088280.0,1
239,-15.0,-18.0,-71.0,-30.0,-9.0,-7.0,-7.0,-2.0,1651086542088280.0,1
240,10.0,8.0,14.0,31.0,13.0,6.0,3.0,4.0,1651086542109214.0,1
241,0.0,-11.0,-17.0,-10.0,-10.0,-4.0,-2.0,0.0,1651086542109214.0,1
242,11.0,-4.0,17.0,-11.0,-9.0,-4.0,0.0,6.0,1651086542111242.0,1
243,0.0,16.0,-37.0,-11.0,-4.0,2.0,2.0,10.0,1651086542111242.0,1
244,-3.0,1.0,23.0,11.0,-3.0,-4.0,-6.0,-12.0,1651086542124214.0,1
245,-4.0,6.0,8.0,12.0,5.0,1.0,-1.0,-2.0,1651086542124214.0,1
246,6.0,-16.0,-33.0,-9.0,-1.0,0.0,3.0,3.0,1651086542132274.0,1
247,-9.0,-1.0,50.0,17.0,7.0,3.0,-2.0,-11.0,1651086542132274.0,1
248,9.0,-3.0,-31.0,-9.0,-2.0,-2.0,5.0,10.0,1651086542147379.0,1
249,-16.0,1.0,-3.0,14.0,4.0,1.0,-7.0,-24.0,1651086542147379.0,1
250,-7.0,7.0,21.0,-20.0,-5.0,-2.0,1.0,4.0,1651086542148247.0,1
251,-3.0,-9.0,-22.0,9.0,-5.0,-3.0,-1.0,-4.0,1651086542148247.0,1
252,16.0,4.0,6.0,7.0,0.0,0.0,3.0,7.0,1651086542169333.0,1
253,-3.0,-2.0,-4.0,-7.0,-8.0,-9.0,-2.0,10.0,1651086542169333.0,1
254,-3.0,-10.0,-57.0,-17.0,-6.0,-1.0,0.0,-13.0,1651086542171179.0,1
255,-3.0,7.0,2.0,18.0,11.0,1.0,-5.0,0.0,1651086542171179.0,1
256,-35.0,-2.0,-2.0,-16.0,-6.0,-3.0,-4.0,-6.0,1651086542183060.0,1
257,13.0,-6.0,-4.0,-7.0,-7.0,-2.0,-1.0,0.0,1651086542183060.0,1
258,7.0,2.0,14.0,3.0,2.0,2.0,4.0,24.0,1651086542191770.0,1
259,-6.0,-8.0,51.0,17.0,2.0,-1.0,-4.0,-17.0,1651086542191770.0,1
260,-9.0,-6.0,-30.0,-12.0,2.0,0.0,-2.0,-4.0,1651086542207429.0,1
261,6.0,7.0,-9.0,18.0,7.0,1.0,-1.0,-6.0,1651086542207429.0,1
262,-3.0,0.0,-17.0,-30.0,-8.0,-1.0,1.0,-2.0,1651086542208430.0,1
263,19.0,5.0,27.0,12.0,7.0,3.0,14.0,26.0,1651086542208430.0,1
264,2.0,-8.0,-41.0,0.0,-6.0,-2.0,-8.0,-7.0,1651086542230296.0,1
265,-30.0,-7.0,-13.0,-17.0,-2.0,1.0,3.0,0.0,1651086542230296.0,1
266,5.0,-6.0,51.0,14.0,4.0,0.0,-3.0,-13.0,1651086542231239.0,1
267,13.0,19.0,-37.0,-24.0,-8.0,-2.0,-1.0,4.0,1651086542231239.0,1
268,-6.0,-17.0,9.0,-11.0,-1.0,1.0,5.0,18.0,1651086542243238.0,1
269,17.0,16.0,34.0,28.0,9.0,2.0,-2.0,-23.0,1651086542243238.0,1
270,-5.0,11.0,-17.0,33.0,4.0,1.0,0.0,9.0,1651086542251840.0,1
271,-10.0,-6.0,23.0,5.0,8.0,0.0,-7.0,-30.0,1651086542251840.0,1
272,-4.0,2.0,-49.0,-31.0,-13.0,-1.0,4.0,4.0,1651086542265895.0,1
273,-4.0,-5.0,19.0,-16.0,-8.0,1.0,2.0,2.0,1651086542265895.0,1
274,4.0,2.0,-13.0,-1.0,6.0,4.0,3.0,5.0,1651086542273094.0,1
275,-8.0,-14.0,-20.0,22.0,0.0,-5.0,-6.0,-1.0,1651086542273094.0,1
276,5.0,7.0,51.0,17.0,5.0,0.0,-1.0,-32.0,1651086542289235.0,1
277,18.0,-1.0,-34.0,-18.0,-7.0,-1.0,0.0,20.0,1651086542289235.0,1
278,-66.0,-3.0,-20.0,-1.0,-5.0,-3.0,-1.0,7.0,1651086542291122.0,1
279,9.0,8.0,18.0,0.0,3.0,0.0,-3.0,5.0,1651086542291122.0,1
280,5.0,7.0,45.0,21.0,4.0,2.0,2.0,3.0,1651086542303242.0,1
281,-11.0,-23.0,-36.0,-32.0,-10.0,-6.0,-6.0,15.0,1651086542303242.0,1
282,14.0,5.0,27.0,13.0,-2.0,-5.0,-10.0,-45.0,1651086542311842.0,1
283,-7.0,-1.0,-11.0,-23.0,-1.0,3.0,7.0,11.0,1651086542311842.0,1
284,-15.0,2.0,5.0,1.0,-3.0,-2.0,-1.0,3.0,1651086542327829.0,1
285,21.0,0.0,36.0,22.0,8.0,0.0,2.0,2.0,1651086542327829.0,1
286,6.0,3.0,10.0,16.0,5.0,5.0,5.0,14.0,1651086542332838.0,1
287,-1.0,-15.0,2.0,-23.0,-13.0,-6.0,-2.0,5.0,1651086542332838.0,1
288,13.0,10.0,-13.0,-11.0,3.0,0.0,-1.0,5.0,1651086542349250.0,1
289,-22.0,-9.0,-14.0,-9.0,-14.0,-8.0,-3.0,-19.0,1651086542349250.0,1
290,-13.0,-7.0,-14.0,-8.0,-2.0,-5.0,-2.0,23.0,1651086542351249.0,1
291,3.0,4.0,-2.0,4.0,0.0,2.0,-4.0,-37.0,1651086542351249.0,1
292,7.0,3.0,8.0,15.0,3.0,0.0,0.0,-7.0,1651086542363232.0,1
293,-19.0,10.0,8.0,4.0,2.0,1.0,-1.0,20.0,1651086542363232.0,1
294,13.0,-2.0,8.0,-26.0,-8.0,-2.0,-1.0,10.0,1651086542372060.0,1
295,-10.0,-10.0,-65.0,-29.0,1.0,0.0,-1.0,-14.0,1651086542372060.0,1
296,-2.0,-3.0,18.0,13.0,1.0,0.0,0.0,22.0,1651086542387555.0,1
297,-8.0,9.0,5.0,-12.0,-2.0,-2.0,-1.0,-15.0,1651086542387555.0,1
298,6.0,-3.0,26.0,28.0,3.0,-1.0,0.0,-4.0,1651086542388389.0,1
299,13.0,4.0,19.0,21.0,-4.0,0.0,4.0,4.0,1651086542388389.0,1
300,2.0,-7.0,-41.0,-22.0,-2.0,-3.0,2.0,3.0,1651086542409838.0,1
301,-1.0,2.0,46.0,4.0,10.0,5.0,3.0,5.0,1651086542409838.0,1
302,7.0,0.0,3.0,10.0,-5.0,-1.0,-2.0,-5.0,1651086542410857.0,1
303,4.0,-11.0,-41.0,-24.0,-1.0,0.0,1.0,-17.0,1651086542410857.0,1
304,-25.0,9.0,18.0,17.0,1.0,-5.0,-7.0,-12.0,1651086542423644.0,1
305,9.0,11.0,63.0,36.0,6.0,2.0,1.0,1.0,1651086542423644.0,1
306,-1.0,-9.0,-47.0,-40.0,-9.0,-6.0,1.0,33.0,1651086542431787.0,1
307,-16.0,4.0,45.0,32.0,4.0,2.0,-2.0,-19.0,1651086542431787.0,1
308,26.0,-2.0,-4.0,-5.0,-7.0,-2.0,1.0,1.0,1651086542447933.0,1
309,-7.0,-10.0,-42.0,-8.0,-2.0,0.0,-3.0,-4.0,1651086542447933.0,1
310,29.0,7.0,14.0,5.0,5.0,1.0,0.0,0.0,1651086542454078.0,1
311,0.0,0.0,26.0,11.0,-1.0,-2.0,1.0,21.0,1651086542454078.0,1
312,-3.0,2.0,13.0,8.0,4.0,6.0,6.0,-2.0,1651086542470383.0,1
313,22.0,-8.0,-45.0,-28.0,-3.0,-2.0,0.0,22.0,1651086542470383.0,1
314,-1.0,-5.0,-14.0,1.0,1.0,0.0,-3.0,-22.0,1651086542471268.0,1
315,-1.0,1.0,-22.0,-13.0,-5.0,-2.0,-1.0,10.0,1651086542471268.0,1
316,1.0,16.0,46.0,22.0,10.0,1.0,-6.0,-37.0,1651086542483227.0,1
317,3.0,-11.0,-21.0,-19.0,-9.0,-1.0,5.0,-7.0,1651086542483227.0,1
318,8.0,1.0,-9.0,-26.0,-2.0,2.0,2.0,-1.0,1651086542491799.0,1
319,-4.0,14.0,45.0,60.0,11.0,1.0,-2.0,-3.0,1651086542491799.0,1
320,13.0,-6.0,-32.0,-11.0,-5.0,0.0,2.0,11.0,1651086542507523.0,1
321,-7.0,3.0,-16.0,-16.0,-4.0,-4.0,-5.0,-8.0,1651086542507523.0,1
322,-2.0,0.0,17.0,17.0,4.0,2.0,1.0,11.0,1651086542508522.0,1
323,0.0,4.0,0.0,-31.0,-2.0,2.0,1.0,-3.0,1651086542508522.0,1
324,-6.0,-8.0,-20.0,11.0,-1.0,-2.0,-1.0,3.0,1651086542530402.0,1
325,11.0,3.0,8.0,17.0,4.0,3.0,3.0,-20.0,1651086542530402.0,1
326,-4.0,7.0,31.0,51.0,4.0,-2.0,-1.0,5.0,1651086542531236.0,1
327,10.0,4.0,-27.0,-43.0,-6.0,-3.0,-3.0,18.0,1651086542531236.0,1
328,8.0,-21.0,34.0,-15.0,-7.0,-3.0,-3.0,4.0,1651086542552447.0,1
329,-26.0,11.0,23.0,21.0,3.0,0.0,0.0,8.0,1651086542552447.0,1
330,17.0,-6.0,-33.0,-16.0,1.0,-1.0,-4.0,-21.0,1651086542553093.0,1
331,-13.0,2.0,-15.0,13.0,8.0,3.0,2.0,-4.0,1651086542553093.0,1
332,31.0,-13.0,-36.0,-37.0,-13.0,-5.0,-3.0,-15.0,1651086542567424.0,1
333,0.0,5.0,-3.0,-13.0,-1.0,-2.0,-2.0,5.0,1651086542567424.0,1
334,-25.0,-12.0,-17.0,5.0,-2.0,-2.0,-5.0,-20.0,1651086542568424.0,1
335,-8.0,-1.0,11.0,-13.0,-4.0,-2.0,-2.0,22.0,1651086542568424.0,1
336,-11.0,12.0,16.0,14.0,5.0,0.0,-4.0,-34.0,1651086542589368.0,1
337,4.0,-11.0,14.0,7.0,-2.0,-3.0,-3.0,-2.0,1651086542589368.0,1
338,-10.0,7.0,-21.0,-24.0,-5.0,-3.0,-4.0,-6.0,1651086542591363.0,1
339,2.0,-10.0,2.0,7.0,0.0,-1.0,-2.0,-8.0,1651086542591363.0,1
340,-8.0,1.0,16.0,17.0,-3.0,-4.0,-1.0,10.0,1651086542612309.0,1
341,7.0,-2.0,-31.0,-10.0,5.0,4.0,3.0,1.0,1651086542612309.0,1
342,12.0,10.0,2.0,-20.0,4.0,5.0,8.0,-7.0,1651086542613303.0,1
343,-5.0,-9.0,35.0,28.0,0.0,0.0,0.0,-9.0,1651086542613303.0,1
344,-10.0,-2.0,-12.0,-9.0,2.0,0.0,0.0,20.0,1651086542627265.0,1
345,5.0,6.0,-1.0,-5.0,-7.0,-3.0,-2.0,-11.0,1651086542627265.0,1
346,6.0,-2.0,7.0,-5.0,-6.0,-1.0,-1.0,-1.0,1651086542628264.0,1
347,8.0,-3.0,-32.0,9.0,0.0,0.0,2.0,1.0,1651086542628264.0,1
348,6.0,7.0,-4.0,-36.0,-3.0,1.0,1.0,9.0,1651086542649163.0,1
349,2.0,-10.0,-27.0,-21.0,-5.0,-2.0,0.0,-9.0,1651086542649163.0,1
350,-22.0,-4.0,46.0,35.0,6.0,0.0,0.0,8.0,1651086542651164.0,1
351,10.0,1.0,-12.0,-23.0,-6.0,-4.0,-3.0,-9.0,1651086542651164.0,1
352,-12.0,-5.0,-11.0,30.0,8.0,1.0,0.0,12.0,1651086542671306.0,1
353,-2.0,1.0,-14.0,-8.0,-1.0,0.0,3.0,11.0,1651086542671306.0,1
354,-2.0,4.0,-2.0,-3.0,-7.0,-6.0,-4.0,-5.0,1651086542672341.0,1
355,-9.0,3.0,-18.0,-3.0,2.0,2.0,5.0,8.0,1651086542672341.0,1
356,10.0,4.0,13.0,12.0,2.0,2.0,3.0,10.0,1651086542685355.0,1
357,2.0,-5.0,5.0,9.0,4.0,4.0,6.0,-27.0,1651086542685355.0,1
358,3.0,20.0,14.0,22.0,10.0,2.0,-1.0,13.0,1651086542694182.0,1
359,6.0,6.0,4.0,-37.0,-13.0,-3.0,-1.0,6.0,1651086542694182.0,1
360,-12.0,-4.0,-23.0,-19.0,-5.0,-2.0,-3.0,2.0,1651086542709160.0,1
361,-4.0,-2.0,3.0,33.0,3.0,-2.0,1.0,0.0,1651086542709160.0,1
362,5.0,-2.0,28.0,22.0,7.0,3.0,2.0,0.0,1651086542709160.0,1
363,-7.0,-16.0,-27.0,-43.0,-6.0,-3.0,1.0,6.0,1651086542709160.0,1
364,-8.0,-1.0,-3.0,30.0,-5.0,-3.0,-7.0,-1.0,1651086542731722.0,1
365,-1.0,-6.0,15.0,-15.0,-1.0,-1.0,-4.0,7.0,1651086542731722.0,1
366,-11.0,4.0,-4.0,22.0,2.0,0.0,1.0,-15.0,1651086542731722.0,1
367,15.0,7.0,53.0,16.0,4.0,2.0,6.0,17.0,1651086542731722.0,1
368,-5.0,-10.0,-15.0,-7.0,-4.0,-1.0,-3.0,-49.0,1651086542746090.0,1
369,9.0,1.0,-30.0,-6.0,5.0,1.0,-1.0,15.0,1651086542746090.0,1
370,-10.0,-4.0,-18.0,-13.0,-11.0,-3.0,-3.0,6.0,1651086542754188.0,1
371,-2.0,-11.0,-14.0,-15.0,-2.0,-2.0,0.0,2.0,1651086542754188.0,1
372,18.0,6.0,23.0,0.0,2.0,1.0,3.0,8.0,1651086542769201.0,1
373,0.0,4.0,-14.0,31.0,2.0,-1.0,-2.0,12.0,1651086542769201.0,1
374,8.0,2.0,8.0,0.0,-2.0,-2.0,-1.0,-23.0,1651086542769201.0,1
375,-9.0,-1.0,-3.0,-3.0,3.0,4.0,-1.0,-9.0,1651086542769201.0,1
376,-20.0,-4.0,-4.0,-8.0,1.0,-1.0,0.0,3.0,1651086542791615.0,1
377,-6.0,2.0,-6.0,-15.0,-1.0,-3.0,-5.0,13.0,1651086542791615.0,1
378,9.0,0.0,9.0,13.0,8.0,0.0,-1.0,-1.0,1651086542791615.0,1
379,2.0,0.0,5.0,5.0,-4.0,1.0,1.0,1.0,1651086542791615.0,1
380,-19.0,-3.0,-19.0,-1.0,-2.0,-4.0,-1.0,7.0,1651086542807182.0,1
381,-2.0,2.0,18.0,-36.0,-8.0,-2.0,1.0,-1.0,1651086542807182.0,1
382,-4.0,-10.0,-2.0,1.0,-3.0,0.0,0.0,-3.0,1651086542814249.0,1
383,11.0,2.0,10.0,36.0,9.0,0.0,-5.0,0.0,1651086542814249.0,1
384,-2.0,-3.0,-56.0,-35.0,-5.0,3.0,3.0,2.0,1651086542829186.0,1
385,0.0,7.0,41.0,14.0,-5.0,-1.0,1.0,-1.0,1651086542829186.0,1
386,4.0,-5.0,10.0,-5.0,-1.0,-3.0,-6.0,-24.0,1651086542829186.0,1
387,0.0,5.0,22.0,-8.0,-4.0,3.0,6.0,16.0,1651086542829186.0,1
388,6.0,2.0,-27.0,-12.0,3.0,-1.0,-2.0,9.0,1651086542851397.0,1
389,-5.0,-3.0,30.0,1.0,3.0,0.0,-3.0,-12.0,1651086542851397.0,1
390,0.0,-6.0,1.0,-5.0,-1.0,0.0,2.0,14.0,1651086542852430.0,1
391,7.0,-4.0,-2.0,5.0,-5.0,-6.0,-4.0,-11.0,1651086542852430.0,1
392,7.0,1.0,29.0,27.0,9.0,5.0,4.0,-8.0,1651086542865333.0,1
393,11.0,7.0,-17.0,5.0,0.0,0.0,0.0,2.0,1651086542865333.0,1
394,5.0,-1.0,-29.0,-18.0,-1.0,0.0,2.0,13.0,1651086542874251.0,1
395,-28.0,-5.0,-27.0,1.0,-5.0,-5.0,-9.0,-45.0,1651086542874251.0,1
396,18.0,-5.0,-10.0,-23.0,-9.0,-1.0,1.0,-8.0,1651086542888357.0,1
397,9.0,6.0,20.0,19.0,8.0,5.0,-1.0,-5.0,1651086542888357.0,1
398,-9.0,-12.0,-17.0,-13.0,-8.0,-4.0,1.0,7.0,1651086542889357.0,1
399,2.0,12.0,1.0,14.0,7.0,1.0,-1.0,2.0,1651086542889357.0,1
400,9.0,-9.0,-31.0,-29.0,-2.0,0.0,11.0,17.0,1651086542911756.0,1
401,-5.0,7.0,37.0,31.0,0.0,-1.0,-7.0,-1.0,1651086542911756.0,1
402,4.0,-5.0,-6.0,-43.0,-10.0,-2.0,-1.0,7.0,1651086542911756.0,1
403,4.0,15.0,-21.0,1.0,-1.0,0.0,-3.0,-3.0,1651086542911756.0,1
404,-20.0,-9.0,19.0,1.0,-3.0,-2.0,-1.0,5.0,1651086542925862.0,1
405,-2.0,1.0,-20.0,-14.0,4.0,1.0,2.0,2.0,1651086542925862.0,1
406,-20.0,3.0,40.0,26.0,-3.0,-2.0,-3.0,4.0,1651086542933702.0,1
407,-5.0,-15.0,-32.0,-11.0,-3.0,-1.0,0.0,9.0,1651086542933702.0,1
408,6.0,15.0,0.0,29.0,12.0,5.0,-2.0,-3.0,1651086542948814.0,1
409,-19.0,-21.0,-23.0,-25.0,-10.0,-3.0,2.0,7.0,1651086542948814.0,1
410,-23.0,-1.0,-25.0,-19.0,-12.0,-5.0,-6.0,-11.0,1651086542949658.0,1
411,0.0,-5.0,46.0,13.0,17.0,4.0,0.0,-6.0,1651086542949658.0,1
412,-12.0,18.0,17.0,5.0,-1.0,2.0,2.0,-8.0,1651086542971398.0,1
413,-1.0,-17.0,-40.0,-43.0,-16.0,-6.0,-6.0,8.0,1651086542971398.0,1
414,-5.0,15.0,27.0,52.0,20.0,7.0,2.0,5.0,1651086542972398.0,1
415,5.0,7.0,19.0,-2.0,-1.0,-1.0,-1.0,-2.0,1651086542972398.0,1
416,-9.0,-4.0,10.0,-4.0,-2.0,0.0,-1.0,10.0,1651086542995378.0,1
417,12.0,-7.0,18.0,6.0,-1.0,-2.0,0.0,-6.0,1651086542995378.0,1
418,26.0,2.0,-31.0,-28.0,0.0,3.0,1.0,6.0,1651086542995378.0,1
419,-3.0,-31.0,-4.0,4.0,1.0,1.0,2.0,10.0,1651086542995378.0,1
420,-2.0,22.0,32.0,27.0,2.0,0.0,-7.0,-15.0,1651086543009228.0,1
421,-3.0,-1.0,-25.0,-13.0,-6.0,0.0,3.0,-4.0,1651086543009228.0,1
422,1.0,0.0,15.0,18.0,2.0,-2.0,-3.0,-6.0,1651086543009228.0,1
423,16.0,8.0,-17.0,-24.0,-7.0,-2.0,-2.0,-2.0,1651086543009228.0,1
424,14.0,-10.0,15.0,30.0,12.0,3.0,5.0,8.0,1651086543031574.0,1
425,3.0,7.0,8.0,-11.0,-4.0,3.0,8.0,-5.0,1651086543031574.0,1
426,12.0,11.0,15.0,-2.0,4.0,0.0,-6.0,14.0,1651086543032404.0,1
427,-12.0,-7.0,1.0,8.0,-3.0,-4.0,-1.0,-12.0,1651086543032404.0,1
428,-5.0,-11.0,-32.0,-6.0,-2.0,-2.0,-5.0,2.0,1651086543045413.0,1
429,-4.0,3.0,30.0,3.0,-3.0,-3.0,-1.0,-9.0,1651086543045413.0,1
430,8.0,-2.0,-38.0,-15.0,1.0,3.0,11.0,30.0,1651086543053392.0,1
431,-7.0,10.0,31.0,1.0,-4.0,-3.0,-11.0,-27.0,1651086543053392.0,1
432,6.0,-6.0,-26.0,-7.0,-1.0,-4.0,-6.0,6.0,1651086543068308.0,1
433,-6.0,5.0,-2.0,-1.0,0.0,-2.0,-4.0,-19.0,1651086543068308.0,1
434,-8.0,0.0,36.0,23.0,0.0,1.0,6.0,17.0,1651086543069306.0,1
435,20.0,9.0,18.0,13.0,-2.0,0.0,4.0,15.0,1651086543069306.0,1
436,-18.0,-5.0,13.0,-17.0,-9.0,-5.0,-4.0,-24.0,1651086543091247.0,1
437,7.0,0.0,-56.0,-7.0,7.0,4.0,0.0,2.0,1651086543091247.0,1
438,-14.0,-12.0,11.0,-21.0,-6.0,-3.0,-2.0,-14.0,1651086543092272.0,1
439,12.0,8.0,25.0,40.0,1.0,2.0,5.0,-21.0,1651086543092272.0,1
440,-5.0,-4.0,-1.0,-12.0,7.0,3.0,3.0,3.0,1651086543105244.0,1
441,7.0,3.0,15.0,28.0,1.0,-1.0,-2.0,12.0,1651086543105244.0,1
442,7.0,-8.0,-50.0,-47.0,-7.0,-2.0,1.0,-8.0,1651086543113188.0,1
443,-8.0,6.0,21.0,18.0,8.0,1.0,0.0,5.0,1651086543113188.0,1
444,-11.0,-3.0,-13.0,-33.0,-8.0,-1.0,-2.0,-23.0,1651086543128545.0,1
445,0.0,-4.0,-7.0,24.0,10.0,5.0,2.0,6.0,1651086543128545.0,1
446,-12.0,6.0,-19.0,-14.0,-3.0,-7.0,-14.0,-73.0,1651086543129542.0,1
447,-11.0,-10.0,5.0,-9.0,-2.0,-1.0,0.0,7.0,1651086543129542.0,1
448,10.0,5.0,16.0,9.0,-3.0,-1.0,4.0,26.0,1651086543152241.0,1
449,-6.0,3.0,20.0,3.0,-3.0,-2.0,-3.0,-7.0,1651086543152241.0,1
450,1.0,-8.0,0.0,8.0,14.0,3.0,0.0,0.0,1651086543152241.0,1
451,7.0,9.0,3.0,6.0,2.0,-1.0,1.0,7.0,1651086543152241.0,1
452,-7.0,-2.0,-9.0,-2.0,-1.0,-2.0,-4.0,-2.0,1651086543165394.0,1
453,1.0,-1.0,11.0,-17.0,-1.0,-2.0,0.0,-6.0,1651086543165394.0,1
454,5.0,-9.0,-20.0,8.0,-10.0,-3.0,0.0,11.0,1651086543174383.0,1
455,-1.0,1.0,-13.0,-10.0,1.0,0.0,-2.0,7.0,1651086543174383.0,1
456,0.0,-7.0,-20.0,9.0,0.0,1.0,5.0,0.0,1651086543189234.0,1
457,-7.0,-2.0,9.0,-5.0,-8.0,-7.0,-7.0,4.0,1651086543189234.0,1
458,5.0,-2.0,-20.0,-10.0,5.0,2.0,-1.0,3.0,1651086543189234.0,1
459,-20.0,13.0,1.0,8.0,3.0,-1.0,-2.0,-6.0,1651086543189234.0,1
460,1.0,-9.0,-13.0,1.0,-4.0,-1.0,3.0,21.0,1651086543211376.0,1
461,5.0,11.0,14.0,-4.0,2.0,-2.0,-2.0,-6.0,1651086543211376.0,1
462,-2.0,-9.0,21.0,52.0,0.0,-1.0,1.0,12.0,1651086543212245.0,1
463,17.0,-11.0,-66.0,-49.0,-6.0,-1.0,3.0,15.0,1651086543212245.0,1
464,14.0,8.0,11.0,4.0,-2.0,-4.0,-6.0,0.0,1651086543235385.0,1
465,-9.0,0.0,-3.0,7.0,1.0,0.0,5.0,17.0,1651086543235385.0,1
466,-3.0,-4.0,-29.0,-11.0,-1.0,-2.0,-3.0,-13.0,1651086543235385.0,1
467,10.0,-8.0,-11.0,-12.0,-3.0,-1.0,-1.0,5.0,1651086543235385.0,1
468,-16.0,1.0,50.0,43.0,12.0,1.0,-3.0,-2.0,1651086543249232.0,1
469,3.0,2.0,-10.0,-16.0,-3.0,1.0,0.0,6.0,1651086543249232.0,1
470,0.0,0.0,15.0,12.0,0.0,1.0,1.0,0.0,1651086543249232.0,1
471,-5.0,-4.0,5.0,-6.0,-8.0,-5.0,-4.0,9.0,1651086543249232.0,1
472,1.0,2.0,-9.0,-48.0,6.0,4.0,-2.0,-8.0,1651086543271400.0,1
473,-9.0,-4.0,14.0,42.0,1.0,0.0,1.0,-7.0,1651086543271400.0,1
474,-3.0,3.0,15.0,3.0,6.0,1.0,2.0,11.0,1651086543272235.0,1
475,-7.0,-3.0,20.0,27.0,-2.0,-2.0,-6.0,-20.0,1651086543272235.0,1
476,1.0,0.0,-49.0,-65.0,-12.0,-4.0,-4.0,5.0,1651086543286582.0,1
477,-1.0,-9.0,17.0,21.0,-6.0,-2.0,-2.0,-7.0,1651086543286582.0,1
478,1.0,3.0,21.0,22.0,3.0,1.0,1.0,8.0,1651086543310381.0,1
479,12.0,0.0,-36.0,-33.0,-2.0,0.0,0.0,-2.0,1651086543310381.0,1
480,-17.0,-1.0,18.0,27.0,2.0,1.0,-4.0,-31.0,1651086543311284.0,1
481,-6.0,-3.0,-26.0,1.0,1.0,0.0,1.0,-8.0,1651086543311284.0,1
482,-1.0,7.0,15.0,-14.0,-4.0,0.0,-3.0,-20.0,1651086543312240.0,1
483,-15.0,-8.0,-10.0,-16.0,-1.0,-4.0,1.0,-1.0,1651086543312240.0,1
484,9.0,3.0,20.0,11.0,-1.0,-1.0,1.0,10.0,1651086543331369.0,1
485,-7.0,4.0,-12.0,-1.0,1.0,0.0,-1.0,-2.0,1651086543331369.0,1
486,0.0,1.0,-14.0,-33.0,-6.0,-3.0,1.0,2.0,1651086543332216.0,1
487,3.0,3.0,20.0,27.0,10.0,3.0,3.0,2.0,1651086543332216.0,1
488,4.0,-3.0,-3.0,2.0,-2.0,-1.0,0.0,-9.0,1651086543346320.0,1
489,6.0,-1.0,4.0,-35.0,-7.0,0.0,1.0,2.0,1651086543346320.0,1
490,3.0,-4.0,0.0,12.0,1.0,0.0,-1.0,-1.0,1651086543354297.0,1
491,-9.0,-2.0,-8.0,16.0,5.0,2.0,-1.0,-4.0,1651086543354297.0,1
492,1.0,-3.0,-9.0,-8.0,-7.0,-4.0,0.0,5.0,1651086543369341.0,1
493,3.0,4.0,29.0,2.0,1.0,-1.0,1.0,3.0,1651086543369341.0,1
494,-9.0,-10.0,-13.0,8.0,-2.0,-2.0,-1.0,-1.0,1651086543369341.0,1
495,4.0,-2.0,-20.0,-17.0,-5.0,-1.0,3.0,-2.0,1651086543369341.0,1
496,3.0,3.0,8.0,-1.0,-2.0,-2.0,-2.0,-3.0,1651086543392032.0,1
497,3.0,1.0,-6.0,-2.0,-5.0,-4.0,-4.0,-5.0,1651086543392032.0,1
498,3.0,4.0,-12.0,-19.0,-9.0,-3.0,0.0,-1.0,1651086543392032.0,1
499,-1.0,-2.0,9.0,4.0,1.0,2.0,0.0,4.0,1651086543392032.0,1
500,5.0,0.0,23.0,12.0,8.0,3.0,2.0,2.0,1651086543405358.0,1
501,-1.0,0.0,-12.0,1.0,1.0,-1.0,-2.0,-8.0,1651086543405358.0,1
502,5.0,-2.0,5.0,-10.0,-7.0,-2.0,4.0,24.0,1651086543414306.0,1
503,-7.0,2.0,-2.0,1.0,-4.0,-1.0,0.0,10.0,1651086543414306.0,1
504,1.0,3.0,-7.0,-6.0,-4.0,0.0,-3.0,-38.0,1651086543429495.0,1
505,7.0,-4.0,-20.0,10.0,-1.0,-2.0,-4.0,2.0,1651086543429495.0,1
506,-6.0,0.0,6.0,-10.0,1.0,1.0,-1.0,1.0,1651086543429495.0,1
507,-12.0,1.0,2.0,-9.0,-5.0,0.0,0.0,-3.0,1651086543429495.0,1
508,-4.0,-3.0,-24.0,-5.0,-5.0,-1.0,3.0,14.0,1651086543451787.0,1
509,0.0,0.0,-1.0,1.0,7.0,1.0,2.0,4.0,1651086543451787.0,1
510,-4.0,-2.0,2.0,5.0,-3.0,-3.0,-4.0,-11.0,1651086543451787.0,1
511,5.0,5.0,14.0,9.0,11.0,5.0,1.0,5.0,1651086543451787.0,1
512,-1.0,-1.0,7.0,19.0,6.0,-1.0,-1.0,5.0,1651086543475059.0,1
513,-3.0,-2.0,-3.0,-3.0,-5.0,-2.0,-1.0,-2.0,1651086543475059.0,1
514,2.0,6.0,0.0,-19.0,-11.0,-3.0,-1.0,3.0,1651086543475059.0,1
515,2.0,-1.0,-2.0,14.0,0.0,-1.0,-2.0,-1.0,1651086543475059.0,1
516,2.0,0.0,8.0,-14.0,-19.0,-10.0,-1.0,8.0,1651086543488875.0,1
517,-1.0,-2.0,-10.0,1.0,15.0,11.0,3.0,2.0,1651086543488875.0,1
518,-4.0,-1.0,-1.0,-2.0,-3.0,-3.0,1.0,-3.0,1651086543489872.0,1
519,0.0,-3.0,-6.0,-1.0,-4.0,-4.0,-4.0,-2.0,1651086543489872.0,1
520,1.0,-1.0,2.0,-9.0,-22.0,-7.0,-1.0,0.0,1651086543512468.0,1
521,-3.0,-1.0,8.0,8.0,16.0,5.0,2.0,0.0,1651086543512468.0,1
522,2.0,-4.0,-2.0,10.0,16.0,8.0,1.0,-2.0,1651086543512468.0,1
523,2.0,3.0,0.0,-17.0,-19.0,-6.0,-2.0,-3.0,1651086543512468.0,1
524,1.0,2.0,5.0,23.0,16.0,1.0,0.0,6.0,1651086543535204.0,1
525,-3.0,0.0,-2.0,-12.0,-11.0,-6.0,-2.0,-1.0,1651086543535204.0,1
526,1.0,2.0,0.0,4.0,1.0,-1.0,0.0,-1.0,1651086543535204.0,1
527,-1.0,-6.0,-6.0,-13.0,-10.0,-4.0,-2.0,-3.0,1651086543535204.0,1
528,-2.0,3.0,4.0,6.0,11.0,4.0,1.0,4.0,1651086543549219.0,1
529,-1.0,-3.0,-5.0,-6.0,-13.0,-6.0,-3.0,0.0,1651086543549219.0,1
530,-1.0,4.0,0.0,1.0,-11.0,-5.0,-4.0,-6.0,1651086543550221.0,1
531,2.0,-3.0,6.0,-9.0,6.0,5.0,2.0,2.0,1651086543550221.0,1
532,1.0,4.0,-2.0,11.0,6.0,2.0,2.0,2.0,1651086543571359.0,1
533,-3.0,-1.0,1.0,5.0,13.0,1.0,2.0,0.0,1651086543571359.0,1
534,-2.0,-2.0,-9.0,-2.0,-14.0,-5.0,0.0,1.0,1651086543572359.0,1
535,2.0,-8.0,0.0,6.0,12.0,3.0,-1.0,-1.0,1651086543572359.0,1
536,-2.0,12.0,4.0,1.0,3.0,1.0,-1.0,-1.0,1651086543594068.0,1
537,1.0,-1.0,-2.0,-4.0,-6.0,-4.0,0.0,-1.0,1651086543594068.0,1
538,-1.0,-6.0,-3.0,-6.0,-1.0,-2.0,-2.0,-2.0,1651086543594961.0,1
539,2.0,7.0,4.0,-3.0,-8.0,-2.0,0.0,0.0,1651086543594961.0,1
540,-2.0,-15.0,-3.0,3.0,7.0,2.0,0.0,0.0,1651086543617289.0,1
541,0.0,9.0,3.0,-2.0,-5.0,-1.0,0.0,-1.0,1651086543617289.0,1
542,0.0,16.0,5.0,-3.0,4.0,0.0,0.0,-2.0,1651086543617289.0,1
543,0.0,1.0,-4.0,-2.0,-4.0,-1.0,0.0,-1.0,1651086543617289.0,1
544,0.0,-7.0,-2.0,5.0,-3.0,-2.0,-2.0,-1.0,1651086543631386.0,1
545,-1.0,-3.0,0.0,0.0,-1.0,0.0,1.0,-1.0,1651086543631386.0,1
546,1.0,-3.0,0.0,1.0,6.0,4.0,1.0,1.0,1651086543632418.0,1
547,-2.0,-1.0,-1.0,2.0,3.0,0.0,-2.0,-1.0,1651086543632418.0,1
548,0.0,3.0,1.0,-7.0,-13.0,-3.0,-1.0,0.0,1651086543654192.0,1
549,1.0,-5.0,-7.0,-4.0,4.0,4.0,2.0,1.0,1651086543654192.0,1
550,0.0,-3.0,-5.0,6.0,12.0,3.0,-2.0,0.0,1651086543654192.0,1
551,-1.0,6.0,5.0,4.0,-4.0,-2.0,1.0,-1.0,1651086543654192.0,1
552,2.0,-5.0,3.0,-1.0,1.0,-1.0,-1.0,0.0,1651086543669070.0,1
553,-1.0,3.0,0.0,-1.0,-4.0,-3.0,-1.0,-1.0,1651086543669070.0,1
554,-1.0,-7.0,0.0,0.0,3.0,2.0,0.0,-1.0,1651086543669070.0,1
555,-2.0,-1.0,-3.0,-1.0,-1.0,-1.0,-1.0,-1.0,1651086543669070.0,1
556,-1.0,-2.0,-3.0,-2.0,4.0,2.0,0.0,2.0,1651086543691665.0,1
557,-2.0,-3.0,-2.0,4.0,0.0,-1.0,-2.0,1.0,1651086543691665.0,1
558,1.0,5.0,4.0,-4.0,-3.0,-1.0,0.0,-2.0,1651086543691665.0,1
559,0.0,-8.0,-7.0,0.0,0.0,-1.0,-1.0,1.0,1651086543691665.0,1
560,0.0,-4.0,-1.0,-3.0,-4.0,-3.0,-1.0,-1.0,1651086543714315.0,1
561,1.0,12.0,3.0,-1.0,-3.0,-1.0,-1.0,-2.0,1651086543714315.0,1
562,0.0,2.0,-3.0,1.0,-1.0,-1.0,-2.0,0.0,1651086543714315.0,1
563,1.0,0.0,4.0,2.0,2.0,-1.0,0.0,0.0,1651086543714315.0,1
564,1.0,4.0,-10.0,-3.0,-1.0,-2.0,1.0,1.0,1651086543729236.0,1
565,-4.0,-9.0,-2.0,-2.0,-2.0,-1.0,0.0,-1.0,1651086543729236.0,1
566,-1.0,1.0,0.0,-3.0,-1.0,2.0,0.0,-1.0,1651086543729236.0,1
567,0.0,4.0,3.0,0.0,1.0,1.0,-2.0,-1.0,1651086543729236.0,1
568,-1.0,0.0,1.0,1.0,-5.0,-2.0,-1.0,1.0,1651086543751828.0,1
569,1.0,-3.0,-1.0,-1.0,-2.0,-2.0,0.0,0.0,1651086543751828.0,1
570,1.0,-3.0,-1.0,1.0,1.0,1.0,1.0,1.0,1651086543751828.0,1
571,-2.0,1.0,-3.0,-1.0,0.0,1.0,-1.0,-2.0,1651086543751828.0,1
572,-1.0,-2.0,1.0,-7.0,-9.0,0.0,-2.0,-2.0,1651086543774447.0,1
573,0.0,0.0,-2.0,14.0,20.0,4.0,1.0,0.0,1651086543774447.0,1
574,-1.0,-5.0,-1.0,-2.0,0.0,-1.0,-1.0,0.0,1651086543774447.0,1
575,-2.0,1.0,-1.0,1.0,1.0,-2.0,1.0,0.0,1651086543774447.0,1
576,-1.0,1.0,3.0,-3.0,-2.0,0.0,0.0,1.0,1651086543788408.0,1
577,-1.0,0.0,0.0,-5.0,-7.0,-4.0,-5.0,-2.0,1651086543788408.0,1
578,0.0,0.0,0.0,0.0,2.0,0.0,0.0,0.0,1651086543789241.0,1
579,2.0,-3.0,-3.0,1.0,3.0,0.0,1.0,2.0,1651086543789241.0,1
580,2.0,-1.0,3.0,3.0,3.0,2.0,1.0,-2.0,1651086543811394.0,1
581,-3.0,-3.0,-4.0,-5.0,-6.0,0.0,-1.0,0.0,1651086543811394.0,1
582,1.0,0.0,6.0,4.0,1.0,-1.0,0.0,-1.0,1651086543812233.0,1
583,0.0,-2.0,-2.0,-6.0,-6.0,-4.0,-2.0,-1.0,1651086543812233.0,1
584,-1.0,0.0,-8.0,4.0,2.0,1.0,-1.0,0.0,1651086543833230.0,1
585,4.0,-1.0,-2.0,-4.0,2.0,1.0,1.0,0.0,1651086543833230.0,1
586,-1.0,2.0,2.0,-2.0,-2.0,-2.0,-2.0,-1.0,1651086543834263.0,1
587,-1.0,0.0,4.0,-6.0,-4.0,0.0,1.0,-1.0,1651086543834263.0,1
588,1.0,0.0,0.0,6.0,3.0,1.0,0.0,1.0,1651086543849229.0,1
589,0.0,6.0,0.0,-4.0,-10.0,-3.0,-1.0,-3.0,1651086543849229.0,1
590,-3.0,-22.0,-4.0,0.0,3.0,1.0,-2.0,0.0,1651086543849229.0,1
591,1.0,15.0,2.0,-5.0,-4.0,-1.0,0.0,0.0,1651086543849229.0,1
592,-3.0,-4.0,-2.0,-4.0,-14.0,-5.0,-2.0,-3.0,1651086543871368.0,1
593,-2.0,-1.0,3.0,20.0,23.0,9.0,2.0,1.0,1651086543871368.0,1
594,0.0,7.0,4.0,-1.0,-2.0,-3.0,-1.0,-1.0,1651086543872209.0,1
595,-1.0,-5.0,-7.0,1.0,0.0,1.0,0.0,0.0,1651086543872209.0,1
596,0.0,1.0,3.0,-8.0,-5.0,-3.0,-1.0,2.0,1651086543894367.0,1
597,0.0,-4.0,-2.0,-7.0,-9.0,-3.0,-1.0,-1.0,1651086543894367.0,1
598,0.0,4.0,8.0,2.0,1.0,2.0,1.0,-1.0,1651086543894367.0,1
599,-3.0,-11.0,-10.0,2.0,2.0,-1.0,-2.0,0.0,1651086543894367.0,1
600,0.0,1.0,-1.0,0.0,2.0,0.0,-1.0,-2.0,1651086543925327.0,1
601,1.0,0.0,6.0,0.0,-2.0,-4.0,-1.0,-1.0,1651086543925327.0,1
602,0.0,3.0,-2.0,-1.0,1.0,2.0,1.0,0.0,1651086543925327.0,1
603,1.0,0.0,-2.0,-1.0,-2.0,-3.0,-1.0,-1.0,1651086543925327.0,1
604,0.0,-6.0,-4.0,2.0,2.0,1.0,-1.0,-1.0,1651086543931221.0,1
605,-2.0,3.0,5.0,-3.0,-4.0,-1.0,-2.0,-1.0,1651086543931221.0,1
606,-1.0,-2.0,-4.0,-2.0,-1.0,0.0,2.0,0.0,1651086543932221.0,1
607,0.0,3.0,2.0,2.0,-5.0,1.0,1.0,1.0,1651086543932221.0,1
608,2.0,-1.0,1.0,5.0,13.0,4.0,0.0,1.0,1651086543954303.0,1
609,-1.0,-7.0,-4.0,-11.0,-11.0,-5.0,0.0,-1.0,1651086543954303.0,1
610,-2.0,2.0,-5.0,2.0,-5.0,-5.0,-4.0,-2.0,1651086543954303.0,1
611,-1.0,-1.0,3.0,0.0,-6.0,-1.0,-2.0,-1.0,1651086543954303.0,1
612,-1.0,0.0,2.0,1.0,3.0,3.0,0.0,0.0,1651086543969242.0,1
613,-3.0,1.0,-4.0,-9.0,-12.0,-3.0,-3.0,-2.0,1651086543969242.0,1
614,1.0,-6.0,1.0,10.0,11.0,6.0,1.0,2.0,1651086543969242.0,1
615,-1.0,-5.0,-5.0,-3.0,-6.0,-4.0,-2.0,0.0,1651086543969242.0,1
616,-1.0,5.0,1.0,-4.0,-3.0,-2.0,-2.0,-1.0,1651086543992372.0,1
617,1.0,-5.0,-3.0,-3.0,-3.0,-4.0,-1.0,-1.0,1651086543992372.0,1
618,-1.0,2.0,-1.0,-6.0,-7.0,-2.0,0.0,-1.0,1651086543992372.0,1
619,0.0,1.0,2.0,6.0,9.0,2.0,2.0,-2.0,1651086543992372.0,1
620,0.0,-1.0,1.0,-1.0,1.0,-2.0,0.0,-1.0,1651086544014242.0,1
621,-1.0,-1.0,0.0,4.0,1.0,2.0,-1.0,-2.0,1651086544014242.0,1
622,0.0,0.0,-3.0,-3.0,0.0,-2.0,-2.0,-1.0,1651086544014242.0,1
623,-1.0,0.0,2.0,-1.0,3.0,1.0,-1.0,0.0,1651086544014242.0,1
624,-1.0,-3.0,1.0,0.0,0.0,-1.0,-1.0,-1.0,1651086544029221.0,1
625,-1.0,-1.0,-1.0,1.0,0.0,0.0,0.0,0.0,1651086544029221.0,1
626,1.0,1.0,1.0,-4.0,-1.0,-1.0,-1.0,-1.0,1651086544029221.0,1
627,0.0,-4.0,-1.0,0.0,2.0,0.0,-1.0,-1.0,1651086544029221.0,1
628,-2.0,1.0,0.0,-1.0,-5.0,-3.0,0.0,-1.0,1651086544051349.0,1
629,1.0,2.0,-1.0,2.0,2.0,1.0,0.0,0.0,1651086544051349.0,1
630,-1.0,0.0,-3.0,-1.0,-1.0,-1.0,0.0,-1.0,1651086544052204.0,0
631,-1.0,-2.0,-2.0,-1.0,1.0,0.0,-1.0,-2.0,1651086544052204.0,0
632,1.0,0.0,-1.0,-3.0,-2.0,-3.0,-1.0,0.0,1651086544075202.0,0
633,1.0,2.0,0.0,1.0,4.0,2.0,1.0,1.0,1651086544075202.0,0
634,0.0,-2.0,-3.0,-3.0,-5.0,1.0,-1.0,0.0,1651086544076201.0,0
635,-1.0,-2.0,-2.0,0.0,-5.0,-2.0,-1.0,-1.0,1651086544076201.0,0
636,-1.0,-1.0,2.0,5.0,12.0,5.0,0.0,-1.0,1651086544088310.0,0
637,-1.0,-1.0,-1.0,-1.0,-1.0,1.0,0.0,1.0,1651086544088310.0,0
638,1.0,0.0,-1.0,-2.0,-4.0,-4.0,0.0,-1.0,1651086544096288.0,0
639,0.0,-2.0,-1.0,-2.0,0.0,1.0,-1.0,1.0,1651086544096288.0,0
640,-2.0,-1.0,-3.0,-6.0,-8.0,-2.0,-1.0,0.0,1651086544112172.0,0
641,1.0,0.0,0.0,5.0,4.0,-3.0,-1.0,1.0,1651086544112172.0,0
642,-3.0,-2.0,-1.0,3.0,12.0,6.0,0.0,0.0,1651086544112172.0,0
643,0.0,0.0,0.0,3.0,3.0,1.0,1.0,0.0,1651086544112172.0,0
644,-1.0,-2.0,-2.0,-3.0,-3.0,0.0,1.0,1.0,1651086544134209.0,0
645,-1.0,1.0,0.0,-4.0,-4.0,-1.0,-1.0,-1.0,1651086544134209.0,0
646,-1.0,-1.0,-2.0,-19.0,-17.0,-7.0,-3.0,-2.0,1651086544135059.0,0
647,0.0,0.0,1.0,17.0,16.0,3.0,-1.0,-1.0,1651086544135059.0,0
648,-1.0,-3.0,-1.0,-3.0,-1.0,2.0,1.0,0.0,1651086544148166.0,0
649,-1.0,-2.0,-3.0,-2.0,-4.0,-1.0,0.0,-2.0,1651086544148166.0,0
650,0.0,-1.0,0.0,0.0,0.0,0.0,0.0,0.0,1651086544164243.0,0
651,0.0,-1.0,-1.0,-6.0,-5.0,-2.0,-1.0,-3.0,1651086544164243.0,0
652,0.0,0.0,0.0,1.0,1.0,-1.0,2.0,0.0,1651086544171390.0,0
653,-1.0,0.0,2.0,1.0,4.0,1.0,1.0,1.0,1651086544171390.0,0
654,0.0,-1.0,-1.0,0.0,-3.0,-3.0,0.0,0.0,1651086544172391.0,0
655,2.0,-1.0,-2.0,-3.0,-2.0,0.0,0.0,1.0,1651086544172391.0,0
656,-1.0,0.0,-1.0,1.0,-1.0,-2.0,1.0,-1.0,1651086544194365.0,0
657,0.0,1.0,1.0,0.0,1.0,2.0,0.0,0.0,1651086544194365.0,0
658,0.0,-1.0,0.0,1.0,-1.0,-1.0,-2.0,0.0,1651086544195330.0,0
659,-4.0,0.0,0.0,-4.0,-1.0,0.0,-1.0,0.0,1651086544195330.0,0
660,0.0,-1.0,0.0,6.0,3.0,2.0,0.0,2.0,1651086544208522.0,0
661,-2.0,0.0,0.0,-4.0,-1.0,-1.0,-1.0,-2.0,1651086544208522.0,0
662,1.0,0.0,3.0,5.0,5.0,1.0,1.0,0.0,1651086544216074.0,0
663,-1.0,-2.0,-1.0,-1.0,-4.0,-1.0,-3.0,-2.0,1651086544216074.0,0
664,0.0,1.0,-2.0,-12.0,-10.0,-4.0,-3.0,-1.0,1651086544233062.0,0
665,0.0,1.0,3.0,9.0,8.0,4.0,1.0,0.0,1651086544233062.0,0
666,-2.0,-2.0,-1.0,3.0,-4.0,-3.0,0.0,0.0,1651086544233062.0,0
667,0.0,-1.0,-3.0,-18.0,-15.0,-5.0,-2.0,-1.0,1651086544233062.0,0
668,-1.0,-1.0,2.0,16.0,23.0,7.0,2.0,1.0,1651086544254386.0,0
669,0.0,0.0,-3.0,0.0,-5.0,-3.0,-1.0,-1.0,1651086544254386.0,0
670,-2.0,1.0,-1.0,0.0,0.0,0.0,0.0,0.0,1651086544254386.0,0
671,0.0,0.0,1.0,-1.0,0.0,-2.0,0.0,0.0,1651086544254386.0,0
672,-3.0,-1.0,-1.0,-8.0,-9.0,-5.0,-2.0,-2.0,1651086544268586.0,0
673,0.0,-1.0,-1.0,-5.0,-2.0,-1.0,-1.0,0.0,1651086544268586.0,0
674,0.0,1.0,-2.0,-2.0,2.0,1.0,-1.0,0.0,1651086544277208.0,0
675,0.0,-1.0,1.0,1.0,0.0,0.0,2.0,0.0,1651086544277208.0,0
676,0.0,1.0,0.0,-2.0,-3.0,0.0,0.0,1.0,1651086544292158.0,0
677,-1.0,-1.0,-2.0,0.0,0.0,0.0,1.0,1.0,1651086544292158.0,0
678,-2.0,-1.0,0.0,1.0,1.0,1.0,-1.0,-1.0,1651086544292158.0,0
679,0.0,2.0,1.0,0.0,3.0,0.0,1.0,1.0,1651086544292158.0,0
680,0.0,0.0,5.0,11.0,12.0,6.0,-1.0,1.0,1651086544314301.0,0
681,-1.0,-1.0,-9.0,1.0,0.0,-1.0,-1.0,1.0,1651086544314301.0,0
682,0.0,1.0,-1.0,-3.0,-5.0,-3.0,-1.0,-1.0,1651086544314301.0,0
683,-1.0,0.0,-2.0,0.0,-2.0,-1.0,-2.0,0.0,1651086544314301.0,0
684,-1.0,1.0,0.0,-8.0,-9.0,-6.0,-3.0,-3.0,1651086544328228.0,0
685,-1.0,1.0,1.0,-4.0,-3.0,-2.0,-2.0,0.0,1651086544328228.0,0
686,-1.0,0.0,-1.0,1.0,2.0,0.0,0.0,-1.0,1651086544337243.0,0
687,-1.0,-2.0,-1.0,2.0,3.0,3.0,0.0,-1.0,1651086544337243.0,0
688,-1.0,-2.0,-1.0,1.0,-1.0,-2.0,0.0,0.0,1651086544351523.0,0
689,-2.0,-2.0,1.0,0.0,2.0,0.0,0.0,1.0,1651086544351523.0,0
690,1.0,0.0,-2.0,-2.0,0.0,0.0,0.0,1.0,1651086544352389.0,0
691,0.0,1.0,0.0,1.0,0.0,0.0,0.0,-1.0,1651086544352389.0,0
692,0.0,-1.0,-1.0,-1.0,-1.0,-1.0,-1.0,-1.0,1651086544374370.0,0
693,-1.0,-1.0,0.0,1.0,0.0,-1.0,-1.0,0.0,1651086544374370.0,0
694,1.0,-1.0,1.0,0.0,-1.0,1.0,2.0,0.0,1651086544374370.0,0
695,0.0,0.0,-2.0,0.0,1.0,-2.0,-2.0,-1.0,1651086544374370.0,0
696,0.0,0.0,-3.0,0.0,1.0,-1.0,-1.0,1.0,1651086544397987.0,0
697,0.0,-2.0,1.0,0.0,-2.0,-1.0,0.0,0.0,1651086544397987.0,0
698,-1.0,2.0,0.0,-3.0,4.0,3.0,1.0,-2.0,1651086544397987.0,0
699,-2.0,-1.0,-1.0,2.0,-2.0,-2.0,-4.0,0.0,1651086544397987.0,0
700,1.0,0.0,-1.0,-9.0,-5.0,-2.0,-2.0,-1.0,1651086544420201.0,0
701,1.0,-3.0,4.0,10.0,12.0,3.0,1.0,-1.0,1651086544420201.0,0
702,1.0,-2.0,1.0,6.0,6.0,1.0,-1.0,-1.0,1651086544420201.0,0
703,-1.0,-1.0,0.0,1.0,-1.0,-1.0,0.0,0.0,1651086544420201.0,0
704,-1.0,1.0,0.0,-2.0,-3.0,-2.0,-1.0,0.0,1651086544433501.0,0
705,-1.0,-1.0,1.0,2.0,-1.0,-1.0,-1.0,-2.0,1651086544433501.0,0
706,-1.0,-1.0,0.0,-2.0,-3.0,0.0,0.0,0.0,1651086544434499.0,0
707,-1.0,0.0,0.0,-4.0,-8.0,-2.0,0.0,0.0,1651086544434499.0,0
708,-2.0,-3.0,-2.0,8.0,8.0,2.0,2.0,-1.0,1651086544457381.0,0
709,-1.0,1.0,-1.0,-3.0,-3.0,0.0,-1.0,-1.0,1651086544457381.0,0
710,-1.0,1.0,1.0,-3.0,-2.0,-3.0,0.0,-1.0,1651086544457381.0,0
711,-1.0,0.0,0.0,-2.0,1.0,1.0,0.0,-2.0,1651086544457381.0,0
712,0.0,0.0,-2.0,-4.0,-11.0,-3.0,-2.0,0.0,1651086544471220.0,0
713,-1.0,0.0,0.0,0.0,0.0,-2.0,-2.0,-1.0,1651086544471220.0,0
714,-1.0,-2.0,-1.0,-1.0,-2.0,0.0,-1.0,-1.0,1651086544472176.0,0
715,-1.0,-1.0,-1.0,1.0,0.0,0.0,0.0,-1.0,1651086544472176.0,0
716,0.0,0.0,-2.0,-1.0,0.0,-2.0,-1.0,1.0,1651086544494467.0,0
717,1.0,-3.0,-3.0,-4.0,-7.0,-2.0,-1.0,-1.0,1651086544494467.0,0
718,-1.0,0.0,-1.0,-2.0,2.0,2.0,1.0,0.0,1651086544494467.0,0
719,0.0,-3.0,0.0,3.0,3.0,1.0,1.0,0.0,1651086544494467.0,0
720,0.0,1.0,5.0,5.0,9.0,3.0,1.0,0.0,1651086544517368.0,0
721,-1.0,0.0,-1.0,-7.0,-5.0,-3.0,-2.0,-2.0,1651086544517368.0,0
722,-1.0,0.0,-3.0,-4.0,-12.0,-6.0,-2.0,1.0,1651086544517368.0,0
723,0.0,-1.0,-3.0,2.0,6.0,1.0,-1.0,0.0,1651086544517368.0,0
724,-1.0,2.0,-3.0,-3.0,-6.0,-1.0,-1.0,0.0,1651086544539787.0,0
725,0.0,2.0,4.0,-5.0,-5.0,-1.0,-2.0,1.0,1651086544539787.0,0
726,-1.0,-3.0,-11.0,14.0,9.0,2.0,-1.0,-1.0,1651086544539787.0,0
727,0.0,-2.0,1.0,-3.0,3.0,3.0,1.0,0.0,1651086544539787.0,0
728,0.0,-3.0,-1.0,3.0,1.0,2.0,-1.0,-1.0,1651086544554369.0,0
729,-3.0,1.0,0.0,-5.0,-5.0,0.0,1.0,-2.0,1651086544554369.0,0
730,1.0,0.0,4.0,11.0,5.0,-1.0,-1.0,1.0,1651086544554369.0,0
731,-1.0,-2.0,-2.0,-6.0,-3.0,-2.0,-1.0,0.0,1651086544554369.0,0
732,0.0,-3.0,-2.0,-3.0,1.0,1.0,2.0,1.0,1651086544577736.0,0
733,0.0,0.0,-1.0,-2.0,-2.0,-2.0,0.0,-1.0,1651086544577736.0,0
734,-1.0,0.0,2.0,-4.0,-6.0,-3.0,-2.0,-1.0,1651086544577736.0,0
735,0.0,0.0,0.0,-3.0,-3.0,-1.0,1.0,-1.0,1651086544577736.0,0
736,-1.0,-1.0,0.0,-2.0,-3.0,-3.0,-1.0,-1.0,1651086544592041.0,0
737,0.0,-4.0,-4.0,6.0,6.0,1.0,0.0,-1.0,1651086544592041.0,0
738,-1.0,-1.0,-1.0,-1.0,1.0,2.0,0.0,0.0,1651086544592041.0,0
739,0.0,1.0,2.0,-1.0,4.0,2.0,0.0,1.0,1651086544592041.0,0
740,-1.0,-1.0,-10.0,-11.0,-16.0,-5.0,-2.0,-2.0,1651086544614264.0,0
741,0.0,0.0,0.0,-6.0,-2.0,1.0,0.0,1.0,1651086544614264.0,0
742,0.0,-2.0,0.0,11.0,7.0,2.0,0.0,-1.0,1651086544614264.0,0
743,0.0,-1.0,1.0,-6.0,-10.0,-4.0,-2.0,0.0,1651086544614264.0,0
744,-1.0,0.0,1.0,0.0,0.0,3.0,0.0,0.0,1651086544637550.0,0
745,-1.0,-2.0,-4.0,-5.0,-5.0,-4.0,-2.0,-1.0,1651086544637550.0,0
746,-1.0,0.0,0.0,-9.0,-4.0,-2.0,0.0,-1.0,1651086544637550.0,0
747,0.0,-2.0,-1.0,11.0,12.0,2.0,-2.0,0.0,1651086544637550.0,0
748,-2.0,-1.0,1.0,-5.0,-3.0,-3.0,-1.0,-2.0,1651086544651514.0,0
749,-1.0,0.0,3.0,10.0,7.0,2.0,1.0,1.0,1651086544651514.0,0
750,0.0,-1.0,2.0,-8.0,-6.0,-1.0,-1.0,0.0,1651086544651514.0,0
751,0.0,3.0,0.0,-7.0,-18.0,-6.0,-2.0,-1.0,1651086544651514.0,0
752,-2.0,-1.0,4.0,19.0,36.0,11.0,3.0,0.0,1651086544674348.0,0
753,-1.0,-1.0,0.0,-1.0,3.0,2.0,1.0,0.0,1651086544674348.0,0
754,0.0,1.0,2.0,-3.0,-3.0,-2.0,-2.0,-1.0,1651086544674348.0,0
755,-1.0,-6.0,-10.0,-6.0,-4.0,0.0,0.0,0.0,1651086544674348.0,0
756,0.0,4.0,1.0,0.0,-7.0,-5.0,-3.0,-1.0,1651086544697433.0,0
757,-1.0,0.0,-4.0,-6.0,-8.0,-2.0,-1.0,1.0,1651086544697433.0,0
758,0.0,-1.0,2.0,-2.0,0.0,0.0,-1.0,0.0,1651086544697433.0,0
759,0.0,-2.0,3.0,9.0,7.0,3.0,0.0,-3.0,1651086544697433.0,0
760,-2.0,-1.0,2.0,5.0,5.0,2.0,0.0,1.0,1651086544711813.0,0
761,-1.0,0.0,0.0,1.0,-2.0,-1.0,-1.0,0.0,1651086544711813.0,0
762,-1.0,-1.0,-2.0,-1.0,0.0,1.0,1.0,0.0,1651086544711813.0,0
763,1.0,-1.0,0.0,-3.0,0.0,-2.0,0.0,-2.0,1651086544711813.0,0
764,-1.0,0.0,-3.0,-3.0,-5.0,0.0,-1.0,-1.0,1651086544733944.0,0
765,1.0,-1.0,-1.0,-6.0,-3.0,-1.0,1.0,-1.0,1651086544733944.0,0
766,-1.0,-1.0,-2.0,-6.0,-11.0,-4.0,-1.0,-1.0,1651086544734839.0,0
767,0.0,0.0,0.0,11.0,17.0,5.0,0.0,-1.0,1651086544734839.0,0
768,0.0,-1.0,0.0,-1.0,-4.0,-2.0,-1.0,0.0,1651086544757364.0,0
769,-1.0,0.0,-2.0,-2.0,1.0,0.0,0.0,-2.0,1651086544757364.0,0
770,1.0,2.0,5.0,-1.0,-3.0,1.0,0.0,-1.0,1651086544757364.0,0
771,-1.0,-4.0,-13.0,-3.0,-11.0,-4.0,-2.0,-2.0,1651086544757364.0,0
772,0.0,-3.0,0.0,-4.0,-6.0,-6.0,-2.0,-2.0,1651086544771808.0,0
773,2.0,-1.0,-2.0,1.0,2.0,-3.0,-1.0,-1.0,1651086544771808.0,0
774,-1.0,0.0,0.0,2.0,0.0,1.0,-2.0,1.0,1651086544771808.0,0
775,1.0,1.0,6.0,10.0,10.0,2.0,3.0,1.0,1651086544771808.0,0
776,0.0,3.0,0.0,-6.0,-8.0,-4.0,-1.0,-1.0,1651086544793875.0,0
777,-2.0,-3.0,0.0,9.0,4.0,3.0,1.0,0.0,1651086544793875.0,0
778,-1.0,1.0,-2.0,-3.0,-4.0,-2.0,0.0,-1.0,1651086544794707.0,0
779,0.0,-1.0,-1.0,-6.0,-9.0,-3.0,-1.0,0.0,1651086544794707.0,0
780,1.0,-5.0,-4.0,0.0,9.0,2.0,0.0,2.0,1651086544817217.0,0
781,0.0,2.0,3.0,0.0,-5.0,-4.0,-2.0,-1.0,1651086544817217.0,0
782,-2.0,-2.0,-5.0,4.0,7.0,0.0,-1.0,0.0,1651086544817217.0,0
783,-2.0,2.0,3.0,-4.0,-3.0,2.0,0.0,0.0,1651086544817217.0,0
784,0.0,0.0,1.0,-2.0,-5.0,-4.0,0.0,-3.0,1651086544831170.0,0
785,-1.0,-2.0,-6.0,-5.0,5.0,7.0,2.0,1.0,1651086544831170.0,0
786,0.0,-4.0,-1.0,3.0,5.0,-4.0,-1.0,-2.0,1651086544846384.0,0
787,0.0,-1.0,-1.0,0.0,0.0,3.0,0.0,0.0,1651086544846384.0,0
788,1.0,1.0,4.0,-1.0,-3.0,-1.0,0.0,0.0,1651086544854354.0,0
789,-2.0,-2.0,2.0,7.0,-7.0,-6.0,-4.0,-1.0,1651086544854354.0,0
790,0.0,0.0,-3.0,-7.0,12.0,5.0,2.0,2.0,1651086544854354.0,0
791,-1.0,-2.0,-1.0,2.0,0.0,-3.0,-1.0,1.0,1651086544854354.0,0
792,-3.0,0.0,0.0,-8.0,-7.0,0.0,-1.0,-2.0,1651086544877796.0,0
793,-1.0,4.0,0.0,-7.0,-10.0,-2.0,-2.0,0.0,1651086544877796.0,0
794,-1.0,-2.0,-2.0,3.0,-7.0,-2.0,-2.0,-1.0,1651086544877796.0,0
795,-1.0,0.0,1.0,-4.0,3.0,-2.0,1.0,-3.0,1651086544877796.0,0
796,1.0,-3.0,-3.0,-6.0,-8.0,-2.0,0.0,0.0,1651086544892290.0,0
797,1.0,4.0,7.0,9.0,11.0,4.0,1.0,-1.0,1651086544892290.0,0
798,0.0,-2.0,-7.0,6.0,14.0,6.0,2.0,0.0,1651086544892290.0,0
799,-1.0,-6.0,-1.0,4.0,0.0,-2.0,0.0,-1.0,1651086544892290.0,0
800,0.0,5.0,0.0,-9.0,-9.0,-5.0,-3.0,-1.0,1651086544914241.0,0
801,-2.0,-4.0,-1.0,3.0,-1.0,-1.0,0.0,-1.0,1651086544914241.0,0
802,-1.0,4.0,2.0,-10.0,-15.0,-3.0,0.0,-1.0,1651086544914241.0,0
803,1.0,0.0,4.0,7.0,5.0,3.0,0.0,1.0,1651086544914241.0,0
804,-1.0,-4.0,-1.0,-5.0,-3.0,2.0,1.0,1.0,1651086544938302.0,0
805,0.0,2.0,-1.0,3.0,6.0,-1.0,-1.0,1.0,1651086544938302.0,0
806,1.0,-17.0,-5.0,1.0,-4.0,-2.0,-2.0,-1.0,1651086544944286.0,0
807,-2.0,23.0,-1.0,-3.0,-12.0,-5.0,-3.0,0.0,1651086544944286.0,0
808,0.0,2.0,8.0,4.0,5.0,3.0,0.0,-1.0,1651086544951663.0,0
809,-1.0,-2.0,-8.0,-16.0,-17.0,-6.0,-2.0,-1.0,1651086544951663.0,0
810,-2.0,-5.0,-1.0,2.0,2.0,-2.0,-1.0,-1.0,1651086544951663.0,0
811,-2.0,-5.0,-1.0,-5.0,-2.0,-1.0,0.0,0.0,1651086544951663.0,0
812,1.0,-1.0,-3.0,5.0,9.0,6.0,2.0,1.0,1651086544974092.0,0
813,-1.0,1.0,4.0,-3.0,0.0,1.0,1.0,0.0,1651086544974092.0,0
814,0.0,1.0,-1.0,1.0,-3.0,-4.0,0.0,-2.0,1651086544974092.0,0
815,-1.0,0.0,-4.0,-6.0,-10.0,-4.0,-1.0,-1.0,1651086544974092.0,0
816,-1.0,-7.0,2.0,8.0,15.0,5.0,1.0,1.0,1651086544997448.0,0
817,1.0,-6.0,-5.0,-2.0,-6.0,-3.0,-3.0,-2.0,1651086544997448.0,0
818,0.0,2.0,2.0,-17.0,-18.0,-5.0,-2.0,-2.0,1651086544997448.0,0
819,1.0,9.0,7.0,21.0,33.0,9.0,5.0,1.0,1651086544997448.0,0
820,-1.0,-12.0,-3.0,4.0,1.0,0.0,0.0,0.0,1651086545010762.0,0
821,0.0,-5.0,-2.0,2.0,-9.0,-6.0,-1.0,1.0,1651086545010762.0,0
822,-1.0,2.0,1.0,-9.0,7.0,-1.0,-3.0,0.0,1651086545018612.0,0
823,0.0,-16.0,-4.0,2.0,2.0,1.0,2.0,0.0,1651086545018612.0,0
824,-2.0,17.0,4.0,-1.0,10.0,6.0,2.0,0.0,1651086545033791.0,0
825,0.0,-2.0,1.0,3.0,6.0,1.0,1.0,1.0,1651086545033791.0,0
826,0.0,2.0,1.0,-6.0,-7.0,-4.0,-1.0,-1.0,1651086545034776.0,0
827,-1.0,-8.0,-3.0,-5.0,-10.0,0.0,-1.0,-2.0,1651086545034776.0,0
828,2.0,3.0,6.0,25.0,16.0,3.0,0.0,2.0,1651086545057578.0,0
829,-4.0,-5.0,-3.0,-21.0,-14.0,-4.0,-3.0,-2.0,1651086545057578.0,2
830,2.0,3.0,0.0,21.0,12.0,4.0,1.0,1.0,1651086545057578.0,2
831,-1.0,-6.0,-8.0,-20.0,-17.0,-7.0,-3.0,-3.0,1651086545057578.0,2
832,-1.0,-2.0,-6.0,-9.0,-19.0,-8.0,-2.0,-2.0,1651086545071402.0,2
833,1.0,8.0,-3.0,0.0,20.0,6.0,3.0,2.0,1651086545071402.0,2
834,-2.0,-2.0,13.0,-2.0,-8.0,2.0,1.0,-1.0,1651086545079246.0,2
835,-1.0,-2.0,2.0,-1.0,-1.0,-3.0,-2.0,-3.0,1651086545079246.0,2
836,0.0,-5.0,-2.0,0.0,-11.0,-7.0,-1.0,0.0,1651086545094313.0,2
837,2.0,-4.0,-5.0,3.0,8.0,3.0,2.0,-2.0,1651086545094313.0,2
838,-4.0,-6.0,-7.0,-1.0,0.0,0.0,-3.0,-2.0,1651086545094313.0,2
839,0.0,3.0,-3.0,-6.0,0.0,2.0,0.0,0.0,1651086545094313.0,2
840,-2.0,0.0,2.0,4.0,-2.0,-3.0,-1.0,-1.0,1651086545117369.0,2
841,-1.0,-4.0,2.0,7.0,-1.0,-2.0,-3.0,-1.0,1651086545117369.0,2
842,0.0,-3.0,-17.0,-13.0,1.0,0.0,0.0,0.0,1651086545117369.0,2
843,1.0,10.0,-2.0,2.0,2.0,2.0,0.0,2.0,1651086545117369.0,2
844,-1.0,-5.0,5.0,-1.0,-6.0,-5.0,-2.0,-2.0,1651086545130435.0,2
845,0.0,3.0,-2.0,-1.0,-1.0,-1.0,1.0,-2.0,1651086545130435.0,2
846,0.0,0.0,7.0,6.0,-2.0,0.0,0.0,-1.0,1651086545138580.0,2
847,-1.0,1.0,19.0,25.0,2.0,-1.0,-2.0,-1.0,1651086545138580.0,2
848,2.0,1.0,-25.0,-20.0,0.0,2.0,1.0,1.0,1651086545154399.0,2
849,-3.0,-4.0,14.0,0.0,-5.0,-1.0,-2.0,-1.0,1651086545154399.0,2
850,0.0,2.0,-4.0,-15.0,-3.0,2.0,2.0,-3.0,1651086545154399.0,2
851,0.0,-3.0,29.0,7.0,0.0,-2.0,-2.0,1.0,1651086545154399.0,2
852,-1.0,-4.0,-16.0,2.0,-3.0,-1.0,-3.0,7.0,1651086545177746.0,2
853,-2.0,4.0,-4.0,6.0,-4.0,-1.0,-2.0,-5.0,1651086545177746.0,2
854,1.0,-1.0,-11.0,-1.0,7.0,5.0,5.0,13.0,1651086545177746.0,2
855,-6.0,2.0,-1.0,10.0,4.0,2.0,-6.0,-23.0,1651086545177746.0,2
856,-6.0,-7.0,-1.0,-14.0,-7.0,-4.0,-1.0,-1.0,1651086545190936.0,2
857,-4.0,1.0,-3.0,-20.0,-4.0,2.0,1.0,-3.0,1651086545190936.0,2
858,1.0,5.0,17.0,8.0,6.0,3.0,5.0,6.0,1651086545198963.0,2
859,-3.0,3.0,1.0,20.0,1.0,-2.0,-4.0,1.0,1651086545198963.0,2
860,15.0,-10.0,-45.0,-31.0,-10.0,-5.0,-1.0,8.0,1651086545214260.0,2
861,-15.0,-3.0,14.0,19.0,7.0,0.0,-2.0,-9.0,1651086545214260.0,2
862,2.0,-1.0,2.0,-1.0,-7.0,-2.0,2.0,8.0,1651086545214260.0,2
863,7.0,-2.0,-27.0,-27.0,4.0,3.0,2.0,-5.0,1651086545214260.0,2
864,-8.0,5.0,43.0,23.0,-1.0,-3.0,-1.0,-7.0,1651086545237378.0,2
865,13.0,3.0,8.0,13.0,6.0,2.0,8.0,31.0,1651086545237378.0,2
866,0.0,6.0,18.0,18.0,4.0,0.0,-13.0,-13.0,1651086545237378.0,2
867,-14.0,-15.0,-38.0,-38.0,-15.0,-5.0,-4.0,-23.0,1651086545237378.0,2
868,0.0,-1.0,7.0,-4.0,2.0,3.0,-2.0,-7.0,1651086545250187.0,2
869,-4.0,0.0,7.0,12.0,2.0,-1.0,-1.0,18.0,1651086545250187.0,2
870,0.0,6.0,27.0,22.0,3.0,-1.0,0.0,-6.0,1651086545259229.0,2
871,1.0,-1.0,-11.0,-17.0,3.0,1.0,2.0,12.0,1651086545259229.0,2
872,6.0,0.0,2.0,-8.0,-4.0,-4.0,-1.0,-8.0,1651086545273418.0,2
873,2.0,-6.0,12.0,6.0,-5.0,-3.0,-7.0,-11.0,1651086545273418.0,2
874,-27.0,-3.0,10.0,35.0,1.0,-1.0,0.0,3.0,1651086545274415.0,2
875,3.0,6.0,-14.0,-53.0,-10.0,0.0,5.0,7.0,1651086545274415.0,2
876,-7.0,2.0,9.0,20.0,10.0,2.0,2.0,6.0,1651086545305583.0,2
877,-5.0,8.0,2.0,4.0,-3.0,-3.0,-1.0,3.0,1651086545305583.0,2
878,3.0,-14.0,-51.0,-35.0,-8.0,-4.0,-3.0,-2.0,1651086545306580.0,2
879,9.0,1.0,-9.0,1.0,1.0,1.0,2.0,18.0,1651086545306580.0,2
880,-14.0,11.0,29.0,34.0,9.0,2.0,-6.0,-41.0,1651086545310592.0,2
881,9.0,-8.0,-41.0,-29.0,-12.0,-5.0,-2.0,3.0,1651086545310592.0,2
882,7.0,6.0,13.0,1.0,9.0,4.0,0.0,2.0,1651086545318570.0,2
883,-2.0,-5.0,45.0,47.0,1.0,-3.0,-1.0,0.0,1651086545318570.0,2
884,20.0,1.0,-84.0,-62.0,-7.0,0.0,1.0,13.0,1651086545342460.0,2
885,-13.0,7.0,27.0,37.0,8.0,5.0,1.0,-16.0,1651086545342460.0,2
886,-10.0,-2.0,-3.0,-5.0,-4.0,-4.0,-2.0,8.0,1651086545342914.0,2
887,16.0,-5.0,-3.0,1.0,-2.0,-3.0,1.0,-6.0,1651086545342914.0,2
888,3.0,2.0,19.0,0.0,-2.0,-1.0,0.0,25.0,1651086545356669.0,2
889,9.0,-3.0,-10.0,-27.0,-5.0,0.0,-4.0,-15.0,1651086545356669.0,2
890,-13.0,1.0,-6.0,-5.0,-2.0,2.0,1.0,-14.0,1651086545356669.0,2
891,20.0,8.0,37.0,1.0,1.0,0.0,4.0,22.0,1651086545356669.0,2
892,-31.0,-11.0,8.0,21.0,0.0,-2.0,-9.0,-38.0,1651086545378989.0,2
893,3.0,5.0,-18.0,-29.0,2.0,1.0,3.0,-9.0,1651086545378989.0,2
894,-16.0,0.0,-12.0,30.0,-3.0,-3.0,-2.0,9.0,1651086545379989.0,2
895,-3.0,-17.0,0.0,-7.0,2.0,1.0,-2.0,-36.0,1651086545379989.0,2
896,10.0,-15.0,46.0,25.0,2.0,2.0,8.0,7.0,1651086545394087.0,2
897,-4.0,16.0,-19.0,-25.0,-2.0,2.0,-8.0,11.0,1651086545394087.0,2
898,11.0,-5.0,-22.0,-11.0,-4.0,-3.0,-1.0,-2.0,1651086545394087.0,2
899,-1.0,11.0,4.0,10.0,5.0,5.0,2.0,-19.0,1651086545394087.0,2
900,-28.0,-15.0,-10.0,16.0,-1.0,-3.0,4.0,20.0,1651086545417320.0,2
901,-9.0,5.0,22.0,-19.0,-3.0,0.0,3.0,14.0,1651086545417320.0,2
902,15.0,-1.0,17.0,22.0,9.0,3.0,3.0,1.0,1651086545417320.0,2
903,-27.0,-9.0,-43.0,-10.0,-7.0,-6.0,-12.0,-30.0,1651086545417320.0,2
904,10.0,10.0,11.0,28.0,1.0,-1.0,-4.0,0.0,1651086545439574.0,2
905,-9.0,-4.0,-32.0,-31.0,-12.0,0.0,12.0,40.0,1651086545439574.0,2
906,29.0,8.0,-17.0,-22.0,8.0,1.0,-6.0,-21.0,1651086545440438.0,2
907,-4.0,-1.0,62.0,35.0,2.0,-2.0,2.0,34.0,1651086545440438.0,2
908,-23.0,4.0,-16.0,-38.0,-8.0,-3.0,-7.0,-21.0,1651086545454234.0,2
909,-1.0,2.0,-14.0,23.0,8.0,1.0,0.0,-20.0,1651086545454234.0,2
910,5.0,2.0,23.0,-24.0,-9.0,-5.0,-5.0,-15.0,1651086545454234.0,2
911,-4.0,4.0,46.0,47.0,7.0,1.0,0.0,7.0,1651086545454234.0,2
912,20.0,-1.0,-36.0,-43.0,-6.0,-3.0,-4.0,28.0,1651086545477368.0,2
913,-14.0,4.0,57.0,60.0,11.0,3.0,2.0,-21.0,1651086545477368.0,2
914,10.0,-4.0,-4.0,-33.0,-17.0,-7.0,2.0,35.0,1651086545477368.0,2
915,-16.0,4.0,5.0,37.0,8.0,-1.0,-1.0,20.0,1651086545477368.0,2
916,4.0,7.0,-26.0,-16.0,-3.0,0.0,-1.0,-5.0,1651086545499801.0,2
917,18.0,-9.0,-10.0,-23.0,-6.0,-2.0,0.0,-11.0,1651086545499801.0,2
918,-20.0,3.0,22.0,28.0,8.0,1.0,-1.0,-29.0,1651086545499801.0,2
919,-2.0,8.0,-18.0,-19.0,-5.0,0.0,3.0,20.0,1651086545499801.0,2
920,0.0,-7.0,-11.0,-4.0,-2.0,-3.0,-1.0,-7.0,1651086545513202.0,2
921,9.0,-3.0,24.0,-25.0,-7.0,-2.0,-2.0,5.0,1651086545513202.0,2
922,-2.0,0.0,-8.0,9.0,6.0,0.0,-2.0,-5.0,1651086545514233.0,2
923,24.0,0.0,-1.0,27.0,1.0,-1.0,0.0,1.0,1651086545514233.0,2
924,6.0,3.0,4.0,-3.0,5.0,6.0,2.0,-9.0,1651086545537323.0,2
925,-1.0,0.0,-32.0,3.0,-1.0,-4.0,-9.0,-30.0,1651086545537323.0,2
926,4.0,4.0,-14.0,-20.0,-7.0,1.0,1.0,1.0,1651086545537323.0,2
927,6.0,-4.0,3.0,5.0,4.0,2.0,9.0,0.0,1651086545537323.0,2
928,0.0,2.0,-3.0,-2.0,-5.0,-1.0,-1.0,17.0,1651086545559843.0,2
929,17.0,-5.0,6.0,-1.0,1.0,1.0,3.0,19.0,1651086545559843.0,2
930,4.0,2.0,-3.0,2.0,-2.0,-4.0,-1.0,12.0,1651086545559843.0,2
931,8.0,0.0,-23.0,-48.0,-9.0,-2.0,1.0,6.0,1651086545559843.0,2
932,13.0,5.0,55.0,46.0,2.0,-2.0,-2.0,3.0,1651086545582418.0,2
933,-5.0,-4.0,-30.0,-11.0,2.0,1.0,-1.0,-13.0,1651086545582418.0,2
934,-3.0,-10.0,-6.0,5.0,4.0,1.0,0.0,20.0,1651086545582834.0,2
935,0.0,-2.0,-15.0,-23.0,-9.0,-4.0,-4.0,-1.0,1651086545582834.0,2
936,2.0,-20.0,13.0,-2.0,-6.0,-3.0,3.0,5.0,1651086545597395.0,2
937,14.0,2.0,-18.0,1.0,2.0,-2.0,-8.0,-6.0,1651086545597395.0,2
938,1.0,3.0,30.0,33.0,7.0,8.0,5.0,-3.0,1651086545597395.0,2
939,15.0,-7.0,-26.0,-27.0,-6.0,-3.0,0.0,16.0,1651086545597395.0,2
940,-4.0,7.0,-1.0,9.0,6.0,2.0,-3.0,-2.0,1651086545620418.0,2
941,1.0,-18.0,-1.0,28.0,1.0,-2.0,1.0,14.0,1651086545620418.0,2
942,-2.0,-2.0,-4.0,-21.0,-5.0,0.0,4.0,-3.0,1651086545620418.0,2
943,3.0,8.0,-5.0,1.0,0.0,2.0,-3.0,-13.0,1651086545620418.0,2
944,5.0,6.0,27.0,5.0,4.0,-1.0,3.0,3.0,1651086545633270.0,2
945,6.0,9.0,29.0,37.0,8.0,2.0,2.0,-1.0,1651086545633270.0,2
946,1.0,-8.0,-33.0,-47.0,-4.0,2.0,5.0,19.0,1651086545634235.0,2
947,-29.0,3.0,19.0,32.0,-2.0,-3.0,-9.0,-22.0,1651086545634235.0,2
948,6.0,-6.0,-52.0,-45.0,-2.0,1.0,2.0,0.0,1651086545657274.0,2
949,-14.0,15.0,32.0,23.0,0.0,-2.0,-2.0,-14.0,1651086545657274.0,2
950,3.0,-2.0,24.0,14.0,9.0,3.0,1.0,3.0,1651086545657274.0,2
951,-1.0,-5.0,8.0,0.0,-12.0,-5.0,1.0,-17.0,1651086545657274.0,2
952,-9.0,-5.0,-44.0,-25.0,-1.0,0.0,-4.0,-28.0,1651086545680344.0,2
953,-2.0,11.0,3.0,12.0,6.0,3.0,0.0,17.0,1651086545680344.0,2
954,5.0,2.0,15.0,17.0,1.0,-2.0,-2.0,0.0,1651086545680344.0,2
955,-21.0,-15.0,-47.0,-34.0,-7.0,0.0,0.0,2.0,1651086545680344.0,2
956,-3.0,4.0,40.0,8.0,1.0,-3.0,-4.0,-17.0,1651086545694331.0,2
957,-9.0,-2.0,-14.0,20.0,2.0,3.0,5.0,-3.0,1651086545694331.0,2
958,-10.0,-9.0,-22.0,-41.0,-10.0,-7.0,-8.0,-32.0,1651086545694331.0,2
959,3.0,1.0,-3.0,1.0,4.0,4.0,1.0,4.0,1651086545694331.0,2
960,18.0,2.0,8.0,16.0,2.0,0.0,3.0,12.0,1651086545717361.0,2
961,-27.0,-14.0,-12.0,-22.0,-4.0,-2.0,0.0,11.0,1651086545717361.0,2
962,-8.0,14.0,-6.0,22.0,-2.0,-2.0,-4.0,0.0,1651086545717361.0,2
963,11.0,-1.0,-9.0,-21.0,4.0,3.0,2.0,1.0,1651086545717361.0,2
964,3.0,15.0,25.0,22.0,-1.0,1.0,1.0,-1.0,1651086545739842.0,2
965,10.0,-8.0,12.0,1.0,0.0,-3.0,-3.0,-6.0,1651086545739842.0,2
966,-7.0,-4.0,-25.0,-11.0,-7.0,-4.0,2.0,15.0,1651086545739842.0,2
967,-5.0,-8.0,-36.0,-43.0,0.0,-3.0,-10.0,0.0,1651086545739842.0,2
968,-2.0,11.0,53.0,50.0,6.0,0.0,3.0,28.0,1651086545753222.0,2
969,-17.0,7.0,15.0,-12.0,1.0,1.0,-4.0,-36.0,1651086545753222.0,2
970,3.0,-9.0,-4.0,22.0,-3.0,-1.0,4.0,-5.0,1651086545762288.0,2
971,7.0,10.0,2.0,6.0,1.0,-1.0,-1.0,3.0,1651086545762288.0,2
972,-4.0,-5.0,4.0,-10.0,5.0,4.0,5.0,10.0,1651086545777523.0,2
973,23.0,-3.0,-42.0,-15.0,-1.0,-1.0,-9.0,27.0,1651086545777523.0,2
974,-2.0,-14.0,18.0,2.0,-2.0,0.0,-1.0,-17.0,1651086545777523.0,2
975,0.0,28.0,4.0,-7.0,-5.0,-4.0,-4.0,-6.0,1651086545777523.0,2
976,3.0,7.0,-6.0,8.0,4.0,1.0,1.0,14.0,1651086545800123.0,2
977,5.0,-5.0,29.0,-15.0,0.0,2.0,3.0,0.0,1651086545800123.0,2
978,-13.0,-8.0,-31.0,3.0,-7.0,-5.0,-3.0,6.0,1651086545800123.0,2
979,5.0,5.0,61.0,26.0,7.0,1.0,-1.0,14.0,1651086545800123.0,2
980,-11.0,-12.0,-82.0,-41.0,-5.0,-2.0,-2.0,-19.0,1651086545814394.0,2
981,-12.0,5.0,22.0,-6.0,-8.0,-1.0,2.0,3.0,1651086545814394.0,2
982,1.0,-3.0,8.0,-20.0,-8.0,-3.0,-2.0,8.0,1651086545814394.0,2
983,-12.0,-15.0,10.0,8.0,-1.0,-1.0,1.0,0.0,1651086545814394.0,2
984,-28.0,-1.0,-10.0,-7.0,-2.0,-2.0,-4.0,-31.0,1651086545837523.0,2
985,2.0,-8.0,-2.0,14.0,1.0,-1.0,0.0,-1.0,1651086545837523.0,2
986,9.0,12.0,20.0,12.0,4.0,2.0,0.0,-6.0,1651086545837523.0,2
987,2.0,-4.0,-33.0,-20.0,-1.0,-1.0,5.0,10.0,1651086545837523.0,2
988,-3.0,-10.0,55.0,24.0,0.0,-7.0,-7.0,-17.0,1651086545860499.0,2
989,-6.0,-1.0,2.0,7.0,-3.0,-2.0,0.0,-4.0,1651086545860499.0,2
990,-5.0,4.0,-27.0,-24.0,-7.0,-1.0,-3.0,-7.0,1651086545860602.0,2
991,1.0,-1.0,10.0,15.0,-3.0,0.0,3.0,18.0,1651086545860602.0,2
992,4.0,3.0,-16.0,-30.0,-5.0,2.0,0.0,11.0,1651086545873245.0,2
993,14.0,-4.0,-9.0,27.0,1.0,-2.0,1.0,-11.0,1651086545873245.0,2
994,8.0,-10.0,-66.0,-35.0,-1.0,1.0,2.0,13.0,1651086545874280.0,2
995,-1.0,16.0,29.0,24.0,5.0,2.0,0.0,-1.0,1651086545874280.0,2
996,-4.0,-6.0,-11.0,-12.0,-8.0,-4.0,-5.0,-5.0,1651086545897388.0,2
997,-2.0,-11.0,1.0,-13.0,-5.0,2.0,6.0,-11.0,1651086545897388.0,2
998,2.0,11.0,34.0,40.0,14.0,2.0,-2.0,3.0,1651086545897388.0,2
999,-4.0,-15.0,12.0,3.0,2.0,0.0,-2.0,-10.0,1651086545897388.0,2
1000,9.0,19.0,-10.0,0.0,7.0,6.0,5.0,21.0,1651086545920385.0,2
1001,1.0,-17.0,-26.0,-30.0,-27.0,-12.0,-6.0,1.0,1651086545920385.0,2
1002,-2.0,1.0,13.0,3.0,7.0,-1.0,-4.0,-9.0,1651086545920385.0,2
1003,2.0,1.0,-10.0,8.0,1.0,0.0,0.0,0.0,1651086545920385.0,2
1004,2.0,5.0,6.0,-3.0,2.0,0.0,-5.0,-39.0,1651086545933231.0,2
1005,3.0,-1.0,-8.0,0.0,5.0,4.0,6.0,34.0,1651086545933231.0,2
1006,2.0,1.0,16.0,14.0,-5.0,-2.0,-2.0,-4.0,1651086545934269.0,2
1007,-21.0,-14.0,-14.0,-19.0,-4.0,-3.0,1.0,2.0,1651086545934269.0,2
1008,3.0,-2.0,-7.0,15.0,0.0,-1.0,0.0,1.0,1651086545957328.0,2
1009,-1.0,13.0,5.0,9.0,2.0,-2.0,-6.0,-21.0,1651086545957328.0,2
1010,-8.0,-3.0,10.0,-8.0,-2.0,0.0,1.0,-3.0,1651086545957328.0,2
1011,2.0,0.0,0.0,-4.0,0.0,0.0,-1.0,-3.0,1651086545957328.0,2
1012,-12.0,-9.0,-8.0,13.0,2.0,3.0,1.0,8.0,1651086545979187.0,2
1013,-4.0,1.0,0.0,-5.0,0.0,-1.0,0.0,18.0,1651086545979187.0,2
1014,17.0,16.0,8.0,-29.0,-6.0,1.0,0.0,-8.0,1651086545980221.0,2
1015,1.0,-17.0,-25.0,1.0,-4.0,-2.0,-3.0,-12.0,1651086545980221.0,2
1016,-10.0,2.0,-1.0,0.0,-4.0,-1.0,-1.0,13.0,1651086545993153.0,2
1017,3.0,5.0,24.0,10.0,5.0,-1.0,-4.0,-12.0,1651086545993153.0,2
1018,7.0,-5.0,3.0,-13.0,-5.0,-4.0,-2.0,2.0,1651086546001131.0,2
1019,15.0,4.0,-24.0,-1.0,2.0,4.0,0.0,8.0,1651086546001131.0,2
1020,8.0,-8.0,-4.0,-15.0,-1.0,-2.0,3.0,13.0,1651086546017383.0,2
1021,6.0,4.0,8.0,3.0,-2.0,-3.0,-8.0,-12.0,1651086546017383.0,2
1022,-7.0,-8.0,-6.0,24.0,-1.0,0.0,0.0,4.0,1651086546017383.0,2
1023,8.0,4.0,1.0,-9.0,-2.0,-1.0,-1.0,-15.0,1651086546017383.0,2
1024,9.0,0.0,-7.0,-22.0,3.0,1.0,-1.0,-6.0,1651086546040119.0,2
1025,-24.0,-3.0,33.0,37.0,12.0,5.0,7.0,21.0,1651086546040119.0,2
1026,20.0,-11.0,-55.0,-32.0,-16.0,-6.0,-8.0,2.0,1651086546040119.0,2
1027,-3.0,10.0,38.0,11.0,0.0,-1.0,-2.0,-2.0,1651086546040119.0,2
1028,-6.0,-19.0,-54.0,-20.0,-7.0,-4.0,0.0,-6.0,1651086546053246.0,2
1029,13.0,9.0,-7.0,-21.0,-6.0,-2.0,2.0,27.0,1651086546053246.0,2
1030,-16.0,1.0,7.0,20.0,8.0,0.0,1.0,-2.0,1651086546062388.0,2
1031,5.0,1.0,13.0,7.0,-3.0,0.0,2.0,-14.0,1651086546062388.0,2
1032,-1.0,5.0,21.0,16.0,5.0,2.0,0.0,12.0,1651086546077863.0,2
1033,0.0,-19.0,-4.0,-10.0,-5.0,-3.0,0.0,-11.0,1651086546077863.0,2
1034,-15.0,14.0,-15.0,-8.0,4.0,2.0,-1.0,-1.0,1651086546077863.0,2
1035,18.0,5.0,13.0,18.0,6.0,2.0,2.0,22.0,1651086546077863.0,2
1036,1.0,-10.0,5.0,-15.0,-7.0,-4.0,-2.0,-10.0,1651086546099068.0,2
1037,-10.0,-1.0,-7.0,7.0,2.0,1.0,-3.0,-7.0,1651086546099068.0,2
1038,5.0,10.0,38.0,10.0,-5.0,-2.0,1.0,-30.0,1651086546100068.0,2
1039,-26.0,-10.0,-45.0,-10.0,-3.0,-3.0,-1.0,4.0,1651086546100068.0,2
1040,0.0,-1.0,-39.0,-14.0,-4.0,0.0,-2.0,-16.0,1651086546122397.0,2
1041,-4.0,-5.0,-18.0,-19.0,-2.0,-2.0,-2.0,-3.0,1651086546122397.0,2
1042,-9.0,2.0,43.0,22.0,7.0,1.0,1.0,0.0,1651086546122397.0,2
1043,-1.0,6.0,-30.0,6.0,1.0,1.0,-2.0,0.0,1651086546122397.0,2
1044,2.0,0.0,25.0,12.0,-5.0,-4.0,-3.0,13.0,1651086546137198.0,2
1045,4.0,8.0,-25.0,-37.0,-3.0,1.0,1.0,-6.0,1651086546137198.0,2
1046,-4.0,-9.0,16.0,21.0,3.0,4.0,4.0,8.0,1651086546137198.0,2
1047,1.0,3.0,-4.0,-9.0,1.0,-1.0,-1.0,-11.0,1651086546137198.0,2
1048,-2.0,-1.0,45.0,8.0,-4.0,-3.0,-1.0,17.0,1651086546160359.0,2
1049,3.0,7.0,-28.0,-6.0,0.0,2.0,0.0,6.0,1651086546160359.0,2
1050,0.0,6.0,24.0,11.0,4.0,0.0,-2.0,-15.0,1651086546160359.0,2
1051,-3.0,-9.0,-33.0,-19.0,-7.0,-2.0,-2.0,-7.0,1651086546160359.0,2
1052,8.0,12.0,34.0,15.0,-1.0,2.0,0.0,6.0,1651086546173402.0,2
1053,-4.0,-18.0,-46.0,-21.0,1.0,-1.0,-2.0,-3.0,1651086546173402.0,2
1054,5.0,19.0,22.0,34.0,3.0,1.0,-4.0,-39.0,1651086546181408.0,2
1055,-8.0,-9.0,17.0,-9.0,-3.0,-2.0,1.0,3.0,1651086546181408.0,2
1056,-2.0,3.0,-24.0,15.0,6.0,3.0,-2.0,-29.0,1651086546196389.0,2
1057,-8.0,-14.0,-49.0,-32.0,-5.0,-3.0,0.0,-7.0,1651086546196389.0,2
1058,5.0,1.0,24.0,13.0,-1.0,-1.0,-1.0,16.0,1651086546197222.0,2
1059,-2.0,3.0,11.0,5.0,3.0,2.0,-1.0,0.0,1651086546197222.0,2
1060,-1.0,-15.0,8.0,7.0,3.0,2.0,1.0,-2.0,1651086546220412.0,2
1061,1.0,37.0,56.0,31.0,8.0,4.0,2.0,0.0,1651086546220412.0,2
1062,-9.0,-21.0,-46.0,-33.0,-12.0,-4.0,-2.0,6.0,1651086546220412.0,2
1063,1.0,6.0,26.0,-16.0,-2.0,1.0,0.0,-2.0,1651086546220412.0,2
1064,-5.0,1.0,13.0,28.0,2.0,-3.0,-3.0,13.0,1651086546233313.0,2
1065,8.0,-3.0,-4.0,-1.0,1.0,3.0,1.0,9.0,1651086546233313.0,2
1066,-12.0,-12.0,-29.0,-28.0,-5.0,-4.0,0.0,21.0,1651086546241775.0,2
1067,10.0,6.0,21.0,2.0,3.0,1.0,1.0,3.0,1651086546241775.0,2
1068,3.0,3.0,-6.0,1.0,5.0,6.0,3.0,-5.0,1651086546256578.0,2
1069,-6.0,-11.0,9.0,0.0,-12.0,-9.0,-8.0,-16.0,1651086546256578.0,2
1070,1.0,5.0,2.0,-1.0,-4.0,-1.0,1.0,10.0,1651086546256578.0,2
1071,-1.0,-18.0,-27.0,-5.0,1.0,-2.0,-5.0,-2.0,1651086546256578.0,2
1072,-5.0,2.0,12.0,-7.0,-8.0,-3.0,0.0,-27.0,1651086546280302.0,2
1073,4.0,11.0,-1.0,-9.0,7.0,4.0,2.0,-9.0,1651086546280302.0,2
1074,12.0,-4.0,39.0,42.0,-2.0,-3.0,-2.0,17.0,1651086546280302.0,2
1075,-5.0,1.0,-21.0,21.0,7.0,3.0,1.0,-1.0,1651086546280302.0,2
1076,-20.0,0.0,6.0,-2.0,-4.0,-5.0,-4.0,1.0,1651086546293364.0,2
1077,2.0,-7.0,11.0,0.0,-1.0,1.0,0.0,-3.0,1651086546293364.0,2
1078,-3.0,-10.0,-29.0,-19.0,3.0,1.0,-1.0,-5.0,1651086546301229.0,2
1079,11.0,5.0,35.0,21.0,3.0,0.0,-1.0,5.0,1651086546301229.0,2
1080,6.0,6.0,-16.0,-23.0,-12.0,-5.0,0.0,14.0,1651086546316205.0,2
1081,-1.0,-22.0,-34.0,7.0,-1.0,-3.0,-1.0,4.0,1651086546316205.0,2
1082,1.0,8.0,-10.0,5.0,4.0,3.0,4.0,11.0,1651086546317204.0,2
1083,-10.0,-3.0,-9.0,-29.0,-11.0,-6.0,-6.0,-1.0,1651086546317204.0,2
1084,5.0,2.0,-3.0,1.0,2.0,1.0,-1.0,2.0,1651086546339499.0,2
1085,2.0,7.0,22.0,20.0,7.0,0.0,-1.0,-6.0,1651086546339499.0,2
1086,-1.0,-8.0,-18.0,-20.0,-8.0,-3.0,-3.0,-5.0,1651086546340369.0,2
1087,-1.0,-2.0,-8.0,-12.0,-2.0,0.0,0.0,-5.0,1651086546340369.0,2
1088,10.0,4.0,31.0,9.0,0.0,0.0,-1.0,1.0,1651086546362653.0,2
1089,-9.0,8.0,-15.0,15.0,3.0,0.0,-1.0,8.0,1651086546362653.0,2
1090,-6.0,-14.0,-32.0,-47.0,-2.0,0.0,-1.0,-2.0,1651086546363093.0,2
1091,-8.0,-7.0,-11.0,-2.0,-12.0,-4.0,-1.0,10.0,1651086546363093.0,2
1092,0.0,12.0,20.0,7.0,8.0,2.0,1.0,10.0,1651086546377263.0,2
1093,6.0,-1.0,-2.0,12.0,-3.0,-1.0,-4.0,-24.0,1651086546377263.0,2
1094,1.0,1.0,4.0,-4.0,3.0,0.0,1.0,7.0,1651086546377263.0,2
1095,0.0,-1.0,-1.0,0.0,-1.0,0.0,0.0,-3.0,1651086546377263.0,2
1096,-2.0,-5.0,-20.0,-13.0,-5.0,-1.0,-4.0,-32.0,1651086546399098.0,2
1097,-3.0,-3.0,17.0,-4.0,4.0,3.0,3.0,6.0,1651086546399098.0,2
1098,-2.0,5.0,5.0,16.0,5.0,0.0,-3.0,-5.0,1651086546400100.0,2
1099,3.0,4.0,1.0,-2.0,-2.0,-1.0,3.0,-4.0,1651086546400100.0,2
1100,-1.0,1.0,-3.0,17.0,1.0,-2.0,0.0,11.0,1651086546422712.0,2
1101,0.0,-7.0,-3.0,-16.0,-8.0,-4.0,-2.0,2.0,1651086546422712.0,2
1102,-2.0,1.0,6.0,9.0,3.0,1.0,2.0,-7.0,1651086546422712.0,2
1103,2.0,0.0,8.0,6.0,6.0,2.0,1.0,5.0,1651086546422712.0,2
1104,1.0,-3.0,-6.0,-11.0,-2.0,2.0,0.0,3.0,1651086546436548.0,2
1105,0.0,3.0,-5.0,-4.0,-8.0,-5.0,-1.0,1.0,1651086546436548.0,2
1106,1.0,4.0,12.0,19.0,3.0,0.0,1.0,3.0,1651086546436548.0,2
1107,-1.0,-3.0,3.0,3.0,2.0,0.0,-2.0,-6.0,1651086546436548.0,2
1108,1.0,-3.0,-14.0,-2.0,8.0,2.0,2.0,4.0,1651086546460374.0,2
1109,0.0,2.0,9.0,-1.0,-3.0,-1.0,-2.0,-1.0,1651086546460374.0,2
1110,2.0,1.0,1.0,1.0,9.0,2.0,1.0,2.0,1651086546460374.0,2
1111,-2.0,1.0,2.0,2.0,-13.0,-6.0,-3.0,-5.0,1651086546460374.0,2
1112,-1.0,-5.0,-16.0,-12.0,-6.0,-1.0,1.0,2.0,1651086546482357.0,2
1113,1.0,2.0,12.0,5.0,4.0,3.0,2.0,5.0,1651086546482357.0,2
1114,1.0,1.0,2.0,-5.0,-17.0,-6.0,-3.0,-3.0,1651086546482357.0,2
1115,-1.0,-2.0,-6.0,1.0,8.0,1.0,-1.0,-3.0,1651086546482357.0,2
1116,2.0,-2.0,-3.0,-4.0,1.0,1.0,1.0,3.0,1651086546496655.0,2
1117,-2.0,0.0,2.0,-4.0,-7.0,-3.0,-2.0,0.0,1651086546496655.0,2
1118,-2.0,-1.0,-4.0,-10.0,-9.0,-4.0,-2.0,-2.0,1651086546496655.0,2
1119,0.0,0.0,-4.0,-1.0,-1.0,0.0,-1.0,-4.0,1651086546496655.0,2
1120,-1.0,-3.0,-2.0,5.0,-8.0,-3.0,-1.0,1.0,1651086546518985.0,2
1121,2.0,2.0,7.0,6.0,19.0,8.0,4.0,2.0,1651086546518985.0,2
1122,-1.0,0.0,-6.0,-7.0,6.0,3.0,2.0,0.0,1651086546519998.0,2
1123,0.0,0.0,6.0,1.0,-6.0,-5.0,0.0,-1.0,1651086546519998.0,2
1124,0.0,-1.0,1.0,2.0,6.0,3.0,1.0,2.0,1651086546542368.0,2
1125,-1.0,-1.0,-3.0,-9.0,-13.0,-6.0,-2.0,-1.0,1651086546542368.0,2
1126,0.0,1.0,-7.0,-6.0,-3.0,-2.0,-2.0,0.0,1651086546542368.0,2
1127,1.0,2.0,3.0,-1.0,-5.0,-2.0,-1.0,-2.0,1651086546542368.0,2
1128,-1.0,-1.0,4.0,30.0,45.0,14.0,4.0,2.0,1651086546556528.0,2
1129,0.0,-1.0,-4.0,-6.0,-12.0,-6.0,-1.0,-1.0,1651086546556528.0,2
1130,0.0,-1.0,6.0,9.0,13.0,4.0,1.0,0.0,1651086546564344.0,2
1131,-1.0,0.0,-1.0,-2.0,3.0,1.0,1.0,0.0,1651086546564344.0,2
1132,0.0,-1.0,-6.0,-10.0,-20.0,-8.0,-3.0,-2.0,1651086546579223.0,2
1133,1.0,-2.0,4.0,16.0,7.0,3.0,1.0,2.0,1651086546579223.0,2
1134,0.0,0.0,-2.0,-9.0,-8.0,-2.0,-1.0,-2.0,1651086546580223.0,2
1135,-4.0,0.0,0.0,0.0,3.0,2.0,1.0,-1.0,1651086546580223.0,2
1136,0.0,1.0,-3.0,-17.0,-10.0,-2.0,0.0,1.0,1651086546602374.0,2
1137,0.0,0.0,1.0,11.0,12.0,2.0,2.0,-1.0,1651086546602374.0,2
1138,-1.0,-2.0,-4.0,-7.0,-18.0,-7.0,-2.0,-1.0,1651086546603059.0,2
1139,0.0,-3.0,-5.0,-7.0,-9.0,-2.0,-1.0,0.0,1651086546603059.0,2
1140,-1.0,-2.0,1.0,4.0,1.0,0.0,1.0,-1.0,1651086546616028.0,2
1141,-1.0,-1.0,0.0,-10.0,-7.0,-3.0,-2.0,-2.0,1651086546616028.0,2
1142,-2.0,0.0,0.0,4.0,7.0,1.0,-1.0,-2.0,1651086546617026.0,2
1143,-1.0,1.0,1.0,6.0,5.0,1.0,0.0,0.0,1651086546617026.0,2
1144,-3.0,-1.0,-2.0,-5.0,-12.0,-4.0,-4.0,-1.0,1651086546639772.0,2
1145,-1.0,0.0,0.0,1.0,2.0,-1.0,0.0,-2.0,1651086546639772.0,2
1146,0.0,-3.0,-1.0,-3.0,0.0,0.0,-1.0,0.0,1651086546639772.0,2
1147,0.0,-1.0,-2.0,-3.0,-12.0,-6.0,-3.0,0.0,1651086546639772.0,2
1148,3.0,1.0,2.0,6.0,14.0,5.0,0.0,1.0,1651086546662392.0,2
1149,0.0,0.0,1.0,-2.0,5.0,4.0,2.0,2.0,1651086546662392.0,2
1150,0.0,0.0,-2.0,-9.0,-3.0,-1.0,-1.0,-2.0,1651086546663096.0,2
1151,-1.0,-1.0,0.0,8.0,1.0,-2.0,-2.0,0.0,1651086546663096.0,2
1152,-2.0,0.0,-2.0,0.0,-5.0,-2.0,0.0,0.0,1651086546676568.0,2
1153,-2.0,-1.0,-1.0,-5.0,-8.0,-4.0,-1.0,-1.0,1651086546676568.0,2
1154,0.0,-1.0,1.0,4.0,1.0,1.0,0.0,-1.0,1651086546676568.0,2
1155,0.0,0.0,-3.0,-2.0,5.0,2.0,0.0,-1.0,1651086546676568.0,2
1156,0.0,-2.0,0.0,-4.0,-8.0,-4.0,-2.0,-1.0,1651086546699786.0,2
1157,-1.0,0.0,-1.0,-3.0,-4.0,-3.0,-2.0,-1.0,1651086546699786.0,2
1158,-1.0,-1.0,0.0,-1.0,-9.0,-2.0,1.0,1.0,1651086546700735.0,2
1159,0.0,-1.0,-5.0,17.0,25.0,7.0,2.0,1.0,1651086546700735.0,2
1160,-1.0,-2.0,0.0,-1.0,0.0,-1.0,0.0,-1.0,1651086546722410.0,2
1161,1.0,1.0,1.0,-4.0,-4.0,-1.0,-1.0,0.0,1651086546722410.0,2
1162,0.0,1.0,0.0,0.0,2.0,-2.0,0.0,-2.0,1651086546723369.0,2
1163,0.0,-1.0,2.0,-6.0,-4.0,-2.0,-3.0,-1.0,1651086546723369.0,2
1164,-1.0,-2.0,-2.0,-1.0,-2.0,-1.0,1.0,-2.0,1651086546735641.0,2
1165,0.0,-2.0,-1.0,2.0,0.0,1.0,-1.0,-1.0,1651086546735641.0,2
1166,-2.0,0.0,0.0,4.0,4.0,2.0,-1.0,-2.0,1651086546744482.0,2
1167,0.0,-1.0,-1.0,-6.0,-3.0,2.0,1.0,0.0,1651086546744482.0,2
1168,-1.0,-1.0,-1.0,-5.0,-9.0,-4.0,-1.0,0.0,1651086546759326.0,2
1169,3.0,-3.0,-2.0,1.0,-5.0,-2.0,-3.0,-2.0,1651086546759326.0,2
1170,0.0,0.0,0.0,10.0,8.0,1.0,1.0,0.0,1651086546761216.0,2
1171,1.0,1.0,2.0,-1.0,-1.0,3.0,2.0,-1.0,1651086546761216.0,2
1172,0.0,0.0,-1.0,-4.0,2.0,2.0,1.0,1.0,1651086546781525.0,2
1173,0.0,2.0,-1.0,-2.0,-1.0,-2.0,-2.0,0.0,1651086546781525.0,2
1174,0.0,-2.0,1.0,-1.0,2.0,-1.0,-1.0,1.0,1651086546787644.0,2
1175,0.0,0.0,0.0,-4.0,-6.0,-5.0,-2.0,-2.0,1651086546787644.0,2
1176,-2.0,-1.0,0.0,-1.0,-2.0,-1.0,0.0,0.0,1651086546804395.0,2
1177,0.0,-1.0,-2.0,0.0,-1.0,0.0,-2.0,0.0,1651086546804395.0,2
1178,-1.0,0.0,0.0,-1.0,1.0,1.0,-2.0,-1.0,1651086546806289.0,2
1179,-2.0,-1.0,-1.0,-2.0,-2.0,-1.0,-1.0,2.0,1651086546806289.0,2
1180,1.0,1.0,0.0,1.0,0.0,-1.0,-2.0,1.0,1651086546819212.0,2
1181,-2.0,0.0,0.0,0.0,-2.0,-1.0,0.0,0.0,1651086546819212.0,2
1182,1.0,-1.0,-3.0,0.0,6.0,0.0,-2.0,-1.0,1651086546821241.0,2
1183,-1.0,0.0,2.0,0.0,-2.0,0.0,-2.0,-1.0,1651086546821241.0,2
1184,-2.0,1.0,-1.0,1.0,-2.0,0.0,-1.0,0.0,1651086546842332.0,2
1185,-1.0,-1.0,-1.0,-5.0,-1.0,-1.0,0.0,0.0,1651086546842332.0,2
1186,0.0,-3.0,0.0,6.0,3.0,2.0,0.0,0.0,1651086546843198.0,2
1187,0.0,0.0,2.0,-1.0,-4.0,-1.0,-2.0,-3.0,1651086546843198.0,2
1188,0.0,0.0,1.0,4.0,5.0,-1.0,-1.0,0.0,1651086546855301.0,2
1189,-1.0,0.0,0.0,-2.0,-2.0,0.0,0.0,-2.0,1651086546855301.0,2
1190,0.0,-2.0,-3.0,-4.0,-3.0,-1.0,2.0,-1.0,1651086546864234.0,2
1191,-1.0,0.0,-1.0,0.0,-2.0,-1.0,-2.0,1.0,1651086546864234.0,2
1192,-1.0,-1.0,-2.0,-3.0,-10.0,-5.0,-2.0,-3.0,1651086546879204.0,2
1193,0.0,1.0,7.0,12.0,10.0,4.0,1.0,-1.0,1651086546879204.0,2
1194,0.0,-1.0,-3.0,-6.0,-4.0,-2.0,0.0,-1.0,1651086546881233.0,2
1195,-1.0,0.0,0.0,0.0,0.0,-2.0,-1.0,-1.0,1651086546881233.0,2
1196,1.0,2.0,1.0,-9.0,1.0,3.0,0.0,1.0,1651086546901498.0,2
1197,-1.0,-2.0,-2.0,14.0,0.0,-5.0,-2.0,0.0,1651086546901498.0,2
1198,-2.0,-2.0,0.0,-1.0,-4.0,0.0,-2.0,-1.0,1651086546909214.0,2
1199,-1.0,1.0,3.0,-7.0,-8.0,-3.0,0.0,-1.0,1651086546909214.0,2
1200,0.0,-2.0,-1.0,10.0,17.0,6.0,1.0,-2.0,1651086546915336.0,2
1201,0.0,-1.0,-2.0,-10.0,-9.0,-2.0,-2.0,-2.0,1651086546915336.0,2
1202,0.0,-1.0,-2.0,1.0,-1.0,-2.0,-2.0,-1.0,1651086546924196.0,2
1203,-1.0,1.0,0.0,0.0,2.0,0.0,0.0,0.0,1651086546924196.0,2
1204,-1.0,-1.0,-1.0,-4.0,-9.0,-6.0,0.0,0.0,1651086546939458.0,2
1205,0.0,1.0,-1.0,-3.0,-2.0,0.0,-1.0,2.0,1651086546939458.0,2
1206,-1.0,-1.0,-1.0,2.0,2.0,-1.0,0.0,0.0,1651086546941324.0,0
1207,-1.0,-2.0,-4.0,-3.0,0.0,1.0,0.0,0.0,1651086546941324.0,0
1208,0.0,-1.0,1.0,-3.0,-6.0,-2.0,-1.0,0.0,1651086546970364.0,0
1209,-1.0,0.0,2.0,4.0,4.0,1.0,0.0,-2.0,1651086546970364.0,0
1210,-2.0,-1.0,-3.0,-3.0,0.0,0.0,0.0,-1.0,1651086546971230.0,0
1211,-1.0,-1.0,1.0,5.0,0.0,-1.0,-2.0,-1.0,1651086546971230.0,0
1212,-1.0,-1.0,-2.0,0.0,-4.0,0.0,0.0,0.0,1651086546975219.0,0
1213,1.0,-2.0,-1.0,-5.0,1.0,1.0,-1.0,1.0,1651086546975219.0,0
1214,0.0,1.0,-1.0,0.0,-2.0,-2.0,0.0,1.0,1651086546985550.0,0
1215,0.0,-1.0,-2.0,0.0,-3.0,-2.0,-1.0,-1.0,1651086546985550.0,0
1216,0.0,-2.0,-2.0,-3.0,0.0,0.0,-2.0,1.0,1651086546999074.0,0
1217,-2.0,-2.0,-1.0,-4.0,-4.0,0.0,1.0,-2.0,1651086546999074.0,0
1218,1.0,2.0,3.0,4.0,7.0,2.0,1.0,1.0,1651086547006092.0,0
1219,0.0,-1.0,-1.0,-4.0,0.0,-1.0,0.0,-2.0,1651086547006092.0,0
1220,-1.0,-2.0,-2.0,5.0,-3.0,-4.0,-1.0,-1.0,1651086547021402.0,0
1221,0.0,-1.0,-2.0,-9.0,-6.0,1.0,-1.0,-1.0,1651086547021402.0,0
1222,-1.0,0.0,1.0,-1.0,0.0,1.0,0.0,0.0,1651086547023418.0,0
1223,1.0,-1.0,-3.0,-2.0,1.0,1.0,-3.0,-1.0,1651086547023418.0,0
1224,-2.0,0.0,-2.0,-6.0,-10.0,-3.0,-1.0,0.0,1651086547035586.0,0
1225,-2.0,0.0,1.0,13.0,15.0,2.0,2.0,0.0,1651086547035586.0,0
1226,0.0,-1.0,-2.0,-2.0,-5.0,-3.0,-2.0,-2.0,1651086547044566.0,0
1227,-1.0,1.0,-1.0,2.0,4.0,3.0,0.0,0.0,1651086547044566.0,0
1228,0.0,-1.0,0.0,-3.0,-3.0,-2.0,-1.0,0.0,1651086547059231.0,0
1229,0.0,0.0,-2.0,-4.0,-4.0,-4.0,-2.0,0.0,1651086547059231.0,0
1230,0.0,1.0,-1.0,-1.0,1.0,1.0,1.0,0.0,1651086547065384.0,0
1231,-1.0,1.0,1.0,-3.0,-4.0,-1.0,1.0,-1.0,1651086547065384.0,0
1232,-1.0,-2.0,1.0,8.0,10.0,1.0,1.0,0.0,1651086547082316.0,0
1233,0.0,1.0,-2.0,-4.0,-5.0,-1.0,0.0,0.0,1651086547082316.0,0
1234,-2.0,0.0,2.0,7.0,9.0,2.0,-1.0,0.0,1651086547083424.0,0
1235,-3.0,-1.0,-1.0,0.0,-3.0,-3.0,0.0,1.0,1651086547083424.0,0
1236,-1.0,1.0,-2.0,-3.0,-4.0,-2.0,-2.0,-2.0,1651086547096361.0,0
1237,-2.0,-2.0,-3.0,-7.0,-5.0,-3.0,0.0,-1.0,1651086547096361.0,0
1238,1.0,-1.0,-1.0,-6.0,-9.0,-3.0,-2.0,-1.0,1651086547104351.0,0
1239,-1.0,0.0,2.0,16.0,15.0,6.0,1.0,0.0,1651086547104351.0,0
1240,0.0,2.0,0.0,-2.0,-15.0,-8.0,-4.0,-1.0,1651086547120362.0,0
1241,0.0,-4.0,-2.0,3.0,18.0,6.0,1.0,1.0,1651086547120362.0,0
1242,-2.0,0.0,2.0,-6.0,-10.0,-1.0,-1.0,-2.0,1651086547121241.0,0
1243,0.0,-3.0,-3.0,-6.0,-3.0,-3.0,0.0,-1.0,1651086547121241.0,0
1244,0.0,-1.0,-2.0,-1.0,1.0,-1.0,-1.0,-1.0,1651086547142489.0,0
1245,-2.0,-1.0,-1.0,-6.0,-11.0,-5.0,0.0,-1.0,1651086547142489.0,0
1246,0.0,1.0,-1.0,-1.0,-3.0,-3.0,-1.0,0.0,1651086547143118.0,0
1247,0.0,2.0,0.0,-2.0,0.0,-1.0,-1.0,-1.0,1651086547143118.0,0
1248,-2.0,-1.0,2.0,6.0,4.0,4.0,0.0,1.0,1651086547156430.0,0
1249,1.0,-1.0,-1.0,-2.0,-5.0,-1.0,-2.0,-1.0,1651086547156430.0,0
1250,-1.0,-3.0,-1.0,-4.0,1.0,-1.0,0.0,0.0,1651086547164353.0,0
1251,-1.0,0.0,1.0,-4.0,-4.0,-2.0,0.0,0.0,1651086547164353.0,0
1252,0.0,-1.0,-1.0,-2.0,5.0,0.0,-1.0,-1.0,1651086547187324.0,0
1253,0.0,-1.0,1.0,0.0,0.0,-1.0,-1.0,-1.0,1651086547187324.0,0
1254,0.0,1.0,-1.0,4.0,5.0,4.0,-1.0,-1.0,1651086547188197.0,0
1255,1.0,-1.0,-2.0,-3.0,-5.0,-1.0,-2.0,-1.0,1651086547188197.0,0
1256,0.0,-1.0,0.0,-1.0,2.0,3.0,0.0,-2.0,1651086547202194.0,0
1257,0.0,1.0,-3.0,1.0,-1.0,-2.0,0.0,-1.0,1651086547202194.0,0
1258,0.0,-2.0,-1.0,-2.0,-5.0,-4.0,-3.0,0.0,1651086547203158.0,0
1259,-1.0,-1.0,0.0,-4.0,-1.0,3.0,2.0,-1.0,1651086547203158.0,0
1260,0.0,-1.0,3.0,0.0,10.0,2.0,-1.0,0.0,1651086547215155.0,0
1261,0.0,0.0,1.0,5.0,-1.0,-1.0,1.0,1.0,1651086547215155.0,0
1262,0.0,1.0,-1.0,5.0,4.0,1.0,-2.0,0.0,1651086547224391.0,0
1263,0.0,-1.0,-1.0,-3.0,-6.0,-3.0,0.0,-1.0,1651086547224391.0,0
1264,0.0,0.0,-5.0,-9.0,-8.0,-1.0,-1.0,-2.0,1651086547239236.0,0
1265,-1.0,-2.0,-1.0,-7.0,-11.0,-4.0,-2.0,0.0,1651086547239236.0,0
1266,-1.0,0.0,1.0,10.0,15.0,5.0,2.0,-1.0,1651086547247363.0,0
1267,-1.0,1.0,-1.0,0.0,1.0,1.0,0.0,0.0,1651086547247363.0,0
1268,0.0,-1.0,0.0,-3.0,-5.0,-3.0,0.0,-1.0,1651086547262482.0,0
1269,0.0,1.0,-1.0,-8.0,-3.0,-2.0,-1.0,1.0,1651086547262482.0,0
1270,0.0,-2.0,-1.0,-2.0,-2.0,-2.0,-1.0,-3.0,1651086547263092.0,0
1271,-2.0,-1.0,-1.0,1.0,1.0,-1.0,-1.0,-1.0,1651086547263092.0,0
1272,-1.0,-2.0,-1.0,-2.0,-3.0,1.0,0.0,1.0,1651086547284560.0,0
1273,0.0,-1.0,1.0,4.0,8.0,3.0,-1.0,0.0,1651086547284560.0,0
1274,-1.0,0.0,-1.0,-2.0,-4.0,-1.0,0.0,0.0,1651086547286417.0,0
1275,0.0,0.0,-2.0,-1.0,-3.0,-2.0,0.0,0.0,1651086547286417.0,0
1276,-1.0,-1.0,0.0,5.0,0.0,-3.0,0.0,-2.0,1651086547299073.0,0
1277,-1.0,-1.0,0.0,0.0,3.0,3.0,1.0,-2.0,1651086547299073.0,0
1278,0.0,0.0,1.0,-4.0,-6.0,-3.0,-1.0,-1.0,1651086547301072.0,0
1279,-1.0,-1.0,0.0,-5.0,-3.0,-2.0,-1.0,0.0,1651086547301072.0,0
1280,0.0,-1.0,2.0,10.0,7.0,4.0,1.0,3.0,1651086547322358.0,0
1281,-1.0,-1.0,0.0,0.0,-1.0,-1.0,-2.0,-1.0,1651086547322358.0,0
1282,0.0,-2.0,-1.0,-10.0,-6.0,-4.0,1.0,0.0,1651086547323258.0,0
1283,0.0,-1.0,-2.0,7.0,8.0,0.0,-1.0,0.0,1651086547323258.0,0
1284,-1.0,0.0,-1.0,3.0,7.0,4.0,1.0,0.0,1651086547345388.0,0
1285,-3.0,-1.0,1.0,0.0,-2.0,-1.0,-2.0,-3.0,1651086547345388.0,0
1286,0.0,0.0,-3.0,-5.0,-5.0,-1.0,-2.0,-1.0,1651086547346260.0,0
1287,0.0,-2.0,-1.0,-9.0,-12.0,-6.0,-2.0,-2.0,1651086547346260.0,0
1288,-2.0,-1.0,-1.0,4.0,1.0,-1.0,0.0,-2.0,1651086547360229.0,0
1289,-1.0,2.0,0.0,1.0,8.0,3.0,2.0,0.0,1651086547360229.0,0
1290,-1.0,0.0,-1.0,-4.0,-10.0,-2.0,0.0,0.0,1651086547361111.0,0
1291,-1.0,-2.0,1.0,7.0,9.0,3.0,0.0,-1.0,1651086547361111.0,0
1292,-1.0,0.0,-1.0,-4.0,-5.0,-3.0,0.0,0.0,1651086547382314.0,0
1293,0.0,-1.0,-2.0,-2.0,-5.0,-4.0,-2.0,0.0,1651086547382314.0,0
1294,0.0,0.0,-1.0,1.0,3.0,1.0,-1.0,0.0,1651086547383226.0,0
1295,0.0,-1.0,-1.0,-2.0,-3.0,-1.0,0.0,-2.0,1651086547383226.0,0
1296,-1.0,-2.0,-1.0,-5.0,-3.0,-3.0,-1.0,0.0,1651086547404392.0,0
1297,0.0,-2.0,-2.0,-6.0,-4.0,-2.0,0.0,-1.0,1651086547404392.0,0
1298,-2.0,0.0,0.0,5.0,5.0,3.0,2.0,-1.0,1651086547406251.0,0
1299,-2.0,-1.0,1.0,-1.0,-5.0,-1.0,-1.0,1.0,1651086547406251.0,0
1300,1.0,1.0,4.0,13.0,17.0,4.0,1.0,1.0,1651086547419242.0,0
1301,-1.0,-1.0,-2.0,-3.0,-5.0,-2.0,-2.0,-1.0,1651086547419242.0,0
1302,-1.0,-1.0,-2.0,-1.0,6.0,0.0,-1.0,0.0,1651086547426381.0,0
1303,-2.0,1.0,1.0,12.0,13.0,3.0,2.0,-2.0,1651086547426381.0,0
1304,1.0,0.0,-3.0,-7.0,-8.0,-5.0,-2.0,-2.0,1651086547442887.0,0
1305,0.0,-1.0,0.0,0.0,-3.0,0.0,0.0,-2.0,1651086547442887.0,0
1306,-1.0,-1.0,-1.0,-7.0,-5.0,-1.0,-1.0,-1.0,1651086547443071.0,0
1307,-1.0,-1.0,-3.0,-4.0,-2.0,-1.0,-1.0,0.0,1651086547443071.0,0
1308,-1.0,-1.0,-1.0,-4.0,-6.0,-2.0,-2.0,0.0,1651086547465392.0,0
1309,0.0,-1.0,2.0,5.0,7.0,2.0,1.0,-2.0,1651086547465392.0,0
1310,0.0,-1.0,1.0,0.0,1.0,1.0,-1.0,0.0,1651086547466231.0,0
1311,1.0,-2.0,-3.0,-3.0,-4.0,-3.0,-2.0,-1.0,1651086547466231.0,0
1312,-1.0,-1.0,-3.0,-12.0,-13.0,-1.0,0.0,-1.0,1651086547479237.0,0
1313,1.0,0.0,3.0,11.0,11.0,2.0,2.0,1.0,1651086547479237.0,0
1314,0.0,0.0,1.0,2.0,0.0,-2.0,0.0,1.0,1651086547486379.0,0
1315,0.0,-1.0,0.0,-2.0,-1.0,1.0,0.0,0.0,1651086547486379.0,0
1316,1.0,-1.0,-2.0,-9.0,-12.0,-5.0,-2.0,0.0,1651086547502407.0,0
1317,-1.0,-2.0,-3.0,0.0,-5.0,-1.0,0.0,0.0,1651086547502407.0,0
1318,-2.0,0.0,0.0,2.0,3.0,2.0,1.0,-1.0,1651086547503090.0,0
1319,0.0,0.0,0.0,0.0,0.0,2.0,-1.0,0.0,1651086547503090.0,0
1320,0.0,0.0,-3.0,-4.0,-3.0,-2.0,-1.0,-1.0,1651086547525386.0,0
1321,-1.0,-2.0,-2.0,-5.0,-8.0,-3.0,-3.0,-1.0,1651086547525386.0,0
1322,0.0,-2.0,2.0,12.0,11.0,0.0,1.0,1.0,1651086547526229.0,0
1323,-1.0,-1.0,-1.0,-4.0,-4.0,1.0,-1.0,0.0,1651086547526229.0,0
1324,-2.0,-1.0,1.0,4.0,6.0,3.0,0.0,-1.0,1651086547538544.0,0
1325,1.0,0.0,-1.0,0.0,-5.0,-2.0,0.0,-2.0,1651086547538544.0,0
1326,0.0,-2.0,-2.0,-10.0,-10.0,-1.0,-1.0,0.0,1651086547545548.0,0
1327,1.0,-1.0,-2.0,-1.0,3.0,3.0,0.0,0.0,1651086547545548.0,0
1328,1.0,0.0,0.0,3.0,2.0,-1.0,-1.0,-1.0,1651086547562515.0,0
1329,-2.0,-1.0,-3.0,-3.0,-6.0,-3.0,0.0,-1.0,1651086547562515.0,0
1330,-1.0,-1.0,-1.0,-1.0,-1.0,0.0,-1.0,1.0,1651086547563058.0,0
1331,0.0,-2.0,0.0,1.0,-1.0,1.0,1.0,-1.0,1651086547563058.0,0
1332,-2.0,-3.0,0.0,-1.0,0.0,0.0,0.0,-1.0,1651086547584405.0,0
1333,1.0,3.0,0.0,-4.0,1.0,1.0,0.0,-1.0,1651086547584405.0,0
1334,-1.0,-2.0,0.0,0.0,1.0,-1.0,-1.0,-1.0,1651086547585419.0,0
1335,-2.0,-1.0,-1.0,3.0,-2.0,-4.0,-1.0,0.0,1651086547585419.0,0
1336,-1.0,-1.0,0.0,2.0,5.0,2.0,-1.0,1.0,1651086547598389.0,0
1337,-1.0,0.0,-3.0,1.0,6.0,2.0,-1.0,1.0,1651086547598389.0,0
1338,0.0,0.0,-1.0,-1.0,-2.0,-1.0,-1.0,-2.0,1651086547613590.0,0
1339,0.0,0.0,-2.0,-5.0,-5.0,-4.0,-1.0,-2.0,1651086547613590.0,0
1340,1.0,-2.0,-1.0,-3.0,-6.0,-3.0,-1.0,-1.0,1651086547622439.0,0
1341,-3.0,-2.0,-1.0,2.0,1.0,1.0,0.0,-1.0,1651086547622439.0,0
1342,0.0,0.0,0.0,-2.0,5.0,7.0,0.0,1.0,1651086547623092.0,0
1343,-1.0,-1.0,2.0,15.0,11.0,0.0,0.0,-2.0,1651086547623092.0,0
1344,0.0,1.0,-2.0,3.0,2.0,0.0,0.0,-1.0,1651086547644607.0,0
1345,-1.0,0.0,-1.0,-7.0,-9.0,-3.0,0.0,0.0,1651086547644607.0,0
1346,-1.0,-1.0,-3.0,-6.0,-12.0,-5.0,-1.0,-1.0,1651086547645477.0,0
1347,0.0,1.0,-2.0,-4.0,-2.0,-1.0,2.0,1.0,1651086547645477.0,0
1348,-1.0,-1.0,0.0,3.0,-1.0,1.0,0.0,0.0,1651086547658563.0,0
1349,0.0,1.0,0.0,-4.0,7.0,4.0,1.0,2.0,1651086547658563.0,0
1350,-1.0,-1.0,-1.0,5.0,0.0,-2.0,1.0,-1.0,1651086547665567.0,0
1351,-1.0,0.0,2.0,0.0,0.0,-2.0,-3.0,-1.0,1651086547665567.0,0
1352,-2.0,1.0,-1.0,2.0,7.0,2.0,0.0,-1.0,1651086547682290.0,0
1353,-4.0,-2.0,1.0,0.0,-3.0,-1.0,-1.0,0.0,1651086547682290.0,0
1354,-1.0,-3.0,0.0,-3.0,-3.0,-2.0,-1.0,0.0,1651086547683235.0,0
1355,2.0,0.0,2.0,-5.0,-5.0,-1.0,0.0,1.0,1651086547683235.0,0
1356,-1.0,-2.0,-4.0,-8.0,-6.0,-2.0,-2.0,1.0,1651086547705357.0,0
1357,-1.0,-1.0,-1.0,5.0,3.0,0.0,-1.0,0.0,1651086547705357.0,0
1358,-1.0,3.0,-1.0,2.0,0.0,-2.0,-1.0,-1.0,1651086547706207.0,0
1359,-1.0,0.0,1.0,2.0,7.0,6.0,-1.0,2.0,1651086547706207.0,0
1360,1.0,-1.0,0.0,4.0,1.0,1.0,0.0,-1.0,1651086547719239.0,0
1361,0.0,-1.0,-2.0,-9.0,-8.0,-4.0,-1.0,0.0,1651086547719239.0,0
1362,-2.0,-1.0,-1.0,4.0,1.0,-1.0,-2.0,-1.0,1651086547726371.0,0
1363,-3.0,-1.0,-3.0,-6.0,-5.0,0.0,0.0,-1.0,1651086547726371.0,0
1364,-1.0,0.0,1.0,6.0,0.0,0.0,-1.0,0.0,1651086547742465.0,0
1365,-1.0,0.0,-1.0,1.0,0.0,-2.0,-1.0,-2.0,1651086547742465.0,0
1366,-1.0,-1.0,1.0,-2.0,-1.0,2.0,-1.0,2.0,1651086547743108.0,0
1367,-1.0,-2.0,-3.0,-9.0,-7.0,-2.0,-1.0,-2.0,1651086547743108.0,0
1368,0.0,-1.0,-2.0,-4.0,4.0,1.0,1.0,0.0,1651086547765360.0,0
1369,0.0,-1.0,1.0,5.0,-1.0,-2.0,1.0,-1.0,1651086547765360.0,0
1370,-1.0,0.0,-1.0,-3.0,0.0,-1.0,0.0,-1.0,1651086547766212.0,0
1371,0.0,0.0,-4.0,-4.0,-7.0,-4.0,-2.0,-1.0,1651086547766212.0,0
1372,-2.0,-1.0,1.0,2.0,-2.0,-2.0,-2.0,-1.0,1651086547778982.0,0
1373,0.0,-1.0,1.0,3.0,5.0,2.0,0.0,-1.0,1651086547778982.0,0
1374,-1.0,0.0,-1.0,-3.0,-2.0,-1.0,0.0,1.0,1651086547787206.0,0
1375,-2.0,-1.0,-1.0,2.0,3.0,-1.0,-3.0,-1.0,1651086547787206.0,0
1376,0.0,0.0,-3.0,-3.0,-7.0,-6.0,-2.0,-2.0,1651086547802491.0,0
1377,0.0,-1.0,-2.0,-10.0,-2.0,0.0,-1.0,0.0,1651086547802491.0,0
1378,0.0,-2.0,1.0,15.0,5.0,3.0,1.0,-1.0,1651086547803356.0,0
1379,0.0,2.0,0.0,-13.0,-3.0,0.0,0.0,0.0,1651086547803356.0,0
1380,-1.0,1.0,0.0,9.0,0.0,-2.0,-2.0,0.0,1651086547823062.0,0
1381,-1.0,0.0,1.0,-3.0,-4.0,-1.0,-1.0,1.0,1651086547823062.0,0
1382,1.0,0.0,-1.0,-5.0,-8.0,-1.0,0.0,-1.0,1651086547832201.0,0
1383,-1.0,0.0,-1.0,10.0,2.0,-2.0,-1.0,0.0,1651086547832201.0,0
1384,1.0,-3.0,-2.0,-11.0,-10.0,-1.0,-1.0,-2.0,1651086547838184.0,0
1385,0.0,-2.0,-1.0,12.0,16.0,1.0,1.0,1.0,1651086547838184.0,0
1386,-2.0,-3.0,-5.0,-14.0,-10.0,-4.0,-3.0,0.0,1651086547847570.0,0
1387,-1.0,-1.0,-1.0,3.0,4.0,3.0,-1.0,0.0,1651086547847570.0,0
1388,1.0,3.0,9.0,11.0,9.0,3.0,0.0,0.0,1651086547862385.0,0
1389,-1.0,1.0,-1.0,3.0,-4.0,0.0,0.0,-1.0,1651086547862385.0,0
1390,0.0,-1.0,-3.0,-3.0,4.0,0.0,0.0,-1.0,1651086547863224.0,0
1391,1.0,-1.0,-3.0,-1.0,-3.0,0.0,2.0,0.0,1651086547863224.0,0
1392,-3.0,-2.0,-3.0,-14.0,-13.0,-7.0,-2.0,0.0,1651086547884589.0,0
1393,-1.0,1.0,2.0,12.0,5.0,4.0,0.0,-1.0,1651086547884589.0,0
1394,-1.0,-1.0,2.0,-1.0,4.0,1.0,-2.0,-1.0,1651086547885448.0,0
1395,1.0,-1.0,2.0,4.0,-8.0,-4.0,-2.0,-1.0,1651086547885448.0,0
1396,3.0,1.0,2.0,9.0,23.0,9.0,0.0,2.0,1651086547898915.0,0
1397,-2.0,-2.0,-2.0,-15.0,-18.0,-7.0,-2.0,-2.0,1651086547898915.0,0
1398,-1.0,-1.0,-3.0,-6.0,-11.0,-4.0,0.0,0.0,1651086547907213.0,0
1399,-1.0,-1.0,2.0,10.0,13.0,0.0,0.0,-1.0,1651086547907213.0,0
1400,-2.0,1.0,1.0,-6.0,-7.0,0.0,0.0,-1.0,1651086547921396.0,0
1401,-1.0,-11.0,-13.0,-5.0,-2.0,0.0,1.0,-2.0,1651086547921396.0,0
1402,-1.0,-1.0,-1.0,0.0,-4.0,-1.0,-2.0,-1.0,1651086547923394.0,0
1403,1.0,0.0,-2.0,-7.0,0.0,2.0,1.0,0.0,1651086547923394.0,0
1404,2.0,0.0,1.0,11.0,19.0,2.0,1.0,-1.0,1651086547945489.0,0
1405,0.0,3.0,2.0,7.0,-8.0,-2.0,-2.0,-1.0,1651086547945489.0,0
1406,2.0,-1.0,-1.0,6.0,10.0,2.0,1.0,-2.0,1651086547946388.0,0
1407,-1.0,0.0,1.0,-6.0,-10.0,-3.0,0.0,0.0,1651086547946388.0,0
1408,-2.0,-1.0,-4.0,-12.0,-14.0,-3.0,-2.0,-1.0,1651086547959158.0,0
1409,-2.0,1.0,4.0,5.0,15.0,3.0,0.0,1.0,1651086547959158.0,0
1410,0.0,1.0,1.0,-9.0,-5.0,-2.0,-2.0,0.0,1651086547967450.0,0
1411,-2.0,-4.0,-1.0,12.0,18.0,6.0,0.0,0.0,1651086547967450.0,0
1412,-3.0,-4.0,-5.0,-10.0,-9.0,-2.0,-1.0,-1.0,1651086547990312.0,0
1413,0.0,1.0,1.0,-2.0,-8.0,-4.0,0.0,0.0,1651086547990312.0,0
1414,0.0,1.0,1.0,0.0,-4.0,-1.0,-1.0,1.0,1651086547991196.0,0
1415,1.0,2.0,3.0,1.0,11.0,5.0,1.0,1.0,1651086547991196.0,0
1416,-1.0,-3.0,0.0,6.0,7.0,4.0,2.0,-2.0,1651086548005400.0,0
1417,2.0,0.0,-3.0,-7.0,-2.0,-1.0,0.0,0.0,1651086548005400.0,0
1418,-1.0,-1.0,-1.0,-3.0,-12.0,-5.0,-1.0,0.0,1651086548006264.0,0
1419,0.0,0.0,2.0,11.0,-5.0,-3.0,-3.0,0.0,1651086548006264.0,0
1420,-1.0,-2.0,-4.0,-4.0,9.0,2.0,2.0,0.0,1651086548019112.0,0
1421,-1.0,1.0,-1.0,2.0,0.0,0.0,1.0,-2.0,1651086548019112.0,0
1422,1.0,1.0,0.0,-10.0,-7.0,-2.0,-1.0,-2.0,1651086548027467.0,0
1423,1.0,5.0,3.0,5.0,5.0,0.0,0.0,0.0,1651086548027467.0,0
1424,0.0,-2.0,-7.0,-2.0,-1.0,0.0,-1.0,-1.0,1651086548041451.0,0
1425,0.0,0.0,2.0,-2.0,4.0,0.0,-1.0,-1.0,1651086548041451.0,0
1426,-2.0,-1.0,-2.0,-10.0,-5.0,0.0,-1.0,-1.0,1651086548043448.0,0
1427,-1.0,-1.0,-2.0,-4.0,-2.0,0.0,0.0,-2.0,1651086548043448.0,0
1428,-2.0,2.0,5.0,7.0,-8.0,-6.0,-3.0,-2.0,1651086548065367.0,0
1429,-1.0,-2.0,-7.0,-4.0,-9.0,1.0,0.0,-2.0,1651086548065367.0,0
1430,-1.0,-4.0,-4.0,1.0,14.0,4.0,2.0,1.0,1651086548066200.0,0
1431,1.0,1.0,-2.0,-10.0,-14.0,-3.0,1.0,1.0,1651086548066200.0,0
1432,0.0,0.0,-1.0,0.0,-1.0,-1.0,0.0,0.0,1651086548078167.0,0
1433,-1.0,-4.0,3.0,-1.0,-4.0,-2.0,-1.0,1.0,1651086548078167.0,0
1434,0.0,9.0,22.0,26.0,8.0,1.0,2.0,0.0,1651086548087144.0,0
1435,-3.0,-6.0,-11.0,-12.0,-8.0,-4.0,-2.0,-2.0,1651086548087144.0,0
1436,0.0,-3.0,-4.0,-6.0,-2.0,1.0,-1.0,0.0,1651086548102105.0,0
1437,2.0,2.0,2.0,1.0,-2.0,-1.0,0.0,-1.0,1651086548102105.0,0
1438,-1.0,-2.0,-14.0,-4.0,1.0,1.0,0.0,-1.0,1651086548103102.0,0
1439,1.0,-3.0,-1.0,7.0,6.0,2.0,3.0,1.0,1651086548103102.0,0
1440,-2.0,-2.0,-6.0,-14.0,-12.0,-7.0,-5.0,-3.0,1651086548124504.0,0
1441,1.0,1.0,4.0,14.0,10.0,3.0,1.0,1.0,1651086548124504.0,0
1442,-2.0,4.0,2.0,-2.0,0.0,-1.0,-1.0,-2.0,1651086548126399.0,0
1443,0.0,2.0,-3.0,5.0,6.0,2.0,1.0,-1.0,1651086548126399.0,0
1444,-1.0,-5.0,-2.0,2.0,-3.0,-1.0,1.0,0.0,1651086548138459.0,0
1445,-6.0,-9.0,-10.0,-8.0,-2.0,-3.0,-2.0,-9.0,1651086548138459.0,0
1446,2.0,2.0,-3.0,-14.0,1.0,1.0,1.0,7.0,1651086548147418.0,0
1447,-1.0,6.0,24.0,20.0,-2.0,-1.0,-2.0,0.0,1651086548147418.0,0
1448,5.0,4.0,-2.0,5.0,6.0,4.0,7.0,42.0,1651086548161667.0,0
1449,-8.0,-1.0,14.0,-1.0,-4.0,-5.0,-12.0,-54.0,1651086548161667.0,0
1450,8.0,-1.0,-4.0,3.0,5.0,3.0,1.0,3.0,1651086548168550.0,3
1451,-2.0,-5.0,-21.0,-7.0,0.0,0.0,-2.0,-8.0,1651086548168550.0,3
1452,16.0,6.0,3.0,-14.0,-4.0,1.0,2.0,-11.0,1651086548184483.0,3
1453,-7.0,-3.0,2.0,-3.0,3.0,2.0,0.0,22.0,1651086548184483.0,3
1454,-13.0,-9.0,1.0,9.0,-1.0,0.0,-1.0,-14.0,1651086548186357.0,3
1455,4.0,0.0,-10.0,-10.0,-8.0,-3.0,-3.0,2.0,1651086548186357.0,3
1456,5.0,-4.0,-33.0,2.0,8.0,2.0,1.0,4.0,1651086548207302.0,3
1457,10.0,8.0,25.0,4.0,-10.0,-3.0,0.0,-18.0,1651086548207302.0,3
1458,-1.0,-4.0,14.0,14.0,11.0,0.0,-3.0,-8.0,1651086548208301.0,3
1459,8.0,2.0,21.0,0.0,-12.0,-2.0,7.0,42.0,1651086548208301.0,3
1460,-33.0,-9.0,-42.0,-17.0,7.0,2.0,-11.0,-44.0,1651086548221267.0,3
1461,0.0,2.0,-36.0,-34.0,-10.0,-3.0,1.0,11.0,1651086548221267.0,3
1462,5.0,-2.0,15.0,35.0,2.0,-4.0,-2.0,2.0,1651086548235390.0,3
1463,3.0,1.0,15.0,2.0,3.0,0.0,1.0,-7.0,1651086548235390.0,3
1464,-12.0,-9.0,-2.0,9.0,-8.0,-3.0,0.0,28.0,1651086548244349.0,3
1465,17.0,8.0,11.0,1.0,5.0,1.0,0.0,6.0,1651086548244349.0,3
1466,12.0,-4.0,-14.0,1.0,4.0,4.0,4.0,4.0,1651086548246230.0,3
1467,-13.0,8.0,4.0,-8.0,-4.0,1.0,1.0,1.0,1651086548246230.0,3
1468,-6.0,1.0,5.0,-1.0,0.0,0.0,-7.0,-59.0,1651086548267325.0,3
1469,-3.0,-7.0,1.0,16.0,9.0,1.0,-4.0,2.0,1651086548267325.0,3
1470,-12.0,6.0,-21.0,-43.0,-7.0,2.0,9.0,44.0,1651086548268325.0,3
1471,-9.0,-5.0,12.0,6.0,16.0,2.0,-3.0,-16.0,1651086548268325.0,3
1472,0.0,2.0,-14.0,-3.0,-16.0,-5.0,-4.0,0.0,1651086548281335.0,3
1473,12.0,5.0,-27.0,40.0,24.0,7.0,3.0,20.0,1651086548281335.0,3
1474,-34.0,-6.0,20.0,-23.0,-17.0,-6.0,-2.0,0.0,1651086548295214.0,3
1475,5.0,-3.0,-42.0,7.0,-7.0,-4.0,-4.0,-34.0,1651086548295214.0,3
1476,-2.0,7.0,55.0,22.0,1.0,-2.0,0.0,35.0,1651086548304613.0,3
1477,21.0,-9.0,-73.0,-50.0,-12.0,-7.0,-4.0,-21.0,1651086548304613.0,3
1478,-18.0,-2.0,4.0,34.0,6.0,2.0,-5.0,-12.0,1651086548305460.0,3
1479,-12.0,-13.0,-4.0,-40.0,-10.0,-6.0,-7.0,-28.0,1651086548305460.0,3
1480,9.0,-2.0,9.0,8.0,-5.0,-3.0,-1.0,2.0,1651086548328462.0,3
1481,-35.0,4.0,43.0,9.0,1.0,0.0,4.0,14.0,1651086548328462.0,3
1482,42.0,4.0,-49.0,-22.0,-6.0,-4.0,-7.0,-36.0,1651086548330103.0,3
1483,5.0,-7.0,-2.0,-4.0,-3.0,-4.0,-4.0,19.0,1651086548330103.0,3
1484,-3.0,0.0,12.0,17.0,16.0,2.0,0.0,5.0,1651086548342387.0,3
1485,-2.0,-4.0,7.0,-26.0,-7.0,2.0,1.0,9.0,1651086548342387.0,3
1486,1.0,4.0,34.0,19.0,-2.0,-4.0,-2.0,-4.0,1651086548355106.0,3
1487,-5.0,1.0,-23.0,-10.0,-6.0,1.0,4.0,36.0,1651086548355106.0,3
1488,-3.0,1.0,-1.0,1.0,2.0,-1.0,-4.0,-13.0,1651086548364363.0,3
1489,9.0,1.0,7.0,0.0,6.0,7.0,11.0,9.0,1651086548364363.0,3
1490,-7.0,7.0,-30.0,-2.0,-6.0,-4.0,-4.0,6.0,1651086548366211.0,3
1491,-9.0,-8.0,25.0,25.0,5.0,-1.0,-7.0,-30.0,1651086548366211.0,3
1492,-6.0,1.0,9.0,-11.0,-1.0,0.0,2.0,-15.0,1651086548387345.0,3
1493,0.0,-1.0,12.0,5.0,-4.0,-5.0,-3.0,0.0,1651086548387345.0,3
1494,1.0,-3.0,-13.0,-22.0,1.0,0.0,5.0,15.0,1651086548388199.0,3
1495,-3.0,1.0,16.0,17.0,-1.0,-1.0,2.0,-1.0,1651086548388199.0,3
1496,12.0,7.0,-11.0,5.0,3.0,0.0,1.0,-7.0,1651086548402327.0,3
1497,-32.0,-7.0,12.0,-6.0,-5.0,-1.0,1.0,-37.0,1651086548402327.0,3
1498,-4.0,-1.0,24.0,19.0,-2.0,0.0,-3.0,-11.0,1651086548409134.0,3
1499,26.0,2.0,-34.0,-41.0,-5.0,-3.0,-1.0,10.0,1651086548409134.0,3
1500,-9.0,-10.0,3.0,32.0,4.0,-1.0,0.0,-5.0,1651086548424365.0,3
1501,-4.0,-12.0,-17.0,10.0,-6.0,-4.0,-2.0,31.0,1651086548424365.0,3
1502,16.0,-6.0,-6.0,-9.0,9.0,2.0,0.0,-35.0,1651086548426244.0,3
1503,-7.0,20.0,7.0,-2.0,1.0,0.0,-4.0,-19.0,1651086548426244.0,3
1504,-8.0,-1.0,-10.0,-21.0,-3.0,0.0,2.0,22.0,1651086548447345.0,3
1505,12.0,-2.0,-10.0,-12.0,-2.0,2.0,0.0,19.0,1651086548447345.0,3
1506,0.0,-1.0,12.0,-11.0,-4.0,-2.0,-6.0,-31.0,1651086548448201.0,3
1507,-1.0,0.0,46.0,60.0,2.0,-1.0,-1.0,13.0,1651086548448201.0,3
1508,3.0,-7.0,-58.0,-53.0,-12.0,-7.0,-4.0,-29.0,1651086548461755.0,3
1509,-15.0,5.0,-21.0,3.0,3.0,0.0,1.0,8.0,1651086548461755.0,3
1510,22.0,-20.0,-13.0,-3.0,1.0,-4.0,-4.0,8.0,1651086548468071.0,3
1511,-23.0,4.0,25.0,2.0,4.0,-1.0,-3.0,-37.0,1651086548468071.0,3
1512,2.0,-6.0,7.0,-16.0,-9.0,-1.0,5.0,23.0,1651086548484440.0,3
1513,2.0,18.0,39.0,47.0,16.0,2.0,-7.0,-3.0,1651086548484440.0,3
1514,-29.0,-6.0,-14.0,-38.0,-15.0,-5.0,-7.0,-14.0,1651086548486315.0,3
1515,13.0,-26.0,-7.0,18.0,6.0,2.0,2.0,6.0,1651086548486315.0,3
1516,13.0,3.0,12.0,-38.0,-15.0,-1.0,4.0,7.0,1651086548507354.0,3
1517,-3.0,0.0,-9.0,19.0,6.0,-1.0,-2.0,-4.0,1651086548507354.0,3
1518,16.0,16.0,27.0,8.0,6.0,2.0,2.0,20.0,1651086548508369.0,3
1519,-5.0,4.0,5.0,2.0,3.0,0.0,3.0,14.0,1651086548508369.0,3
1520,10.0,-7.0,-12.0,-6.0,-4.0,-2.0,-2.0,-8.0,1651086548521252.0,3
1521,-13.0,-2.0,10.0,-13.0,-2.0,-2.0,-1.0,-19.0,1651086548521252.0,3
1522,-4.0,2.0,16.0,33.0,2.0,2.0,4.0,7.0,1651086548528568.0,3
1523,-1.0,3.0,4.0,-7.0,3.0,1.0,0.0,6.0,1651086548528568.0,3
1524,-9.0,1.0,7.0,-7.0,2.0,0.0,0.0,-6.0,1651086548545353.0,3
1525,-23.0,-12.0,3.0,6.0,-7.0,-5.0,0.0,-24.0,1651086548545353.0,3
1526,5.0,12.0,14.0,13.0,1.0,0.0,6.0,25.0,1651086548546238.0,3
1527,3.0,-6.0,-25.0,-19.0,-3.0,0.0,0.0,-10.0,1651086548546238.0,3
1528,-4.0,1.0,-15.0,-5.0,-2.0,-1.0,-1.0,-10.0,1651086548567317.0,3
1529,22.0,0.0,4.0,-31.0,-13.0,-3.0,3.0,9.0,1651086548567317.0,3
1530,2.0,-9.0,-26.0,17.0,11.0,4.0,2.0,15.0,1651086548568317.0,3
1531,7.0,11.0,-3.0,9.0,-6.0,-4.0,1.0,4.0,1651086548568317.0,3
1532,-4.0,7.0,22.0,-12.0,4.0,4.0,3.0,12.0,1651086548581371.0,3
1533,10.0,-5.0,2.0,-5.0,5.0,2.0,0.0,-2.0,1651086548581371.0,3
1534,4.0,-2.0,3.0,-3.0,-1.0,2.0,5.0,0.0,1651086548587558.0,3
1535,-9.0,-5.0,-2.0,14.0,-8.0,-6.0,-4.0,6.0,1651086548587558.0,3
1536,17.0,6.0,5.0,18.0,7.0,3.0,0.0,5.0,1651086548604361.0,3
1537,-15.0,-2.0,-14.0,-20.0,-5.0,0.0,0.0,-2.0,1651086548604361.0,3
1538,1.0,4.0,27.0,30.0,3.0,0.0,-2.0,-24.0,1651086548606205.0,3
1539,8.0,-5.0,-20.0,-11.0,4.0,1.0,-3.0,-6.0,1651086548606205.0,3
1540,-2.0,-4.0,12.0,19.0,-1.0,0.0,-2.0,4.0,1651086548634568.0,3
1541,6.0,7.0,-1.0,-30.0,-6.0,0.0,1.0,11.0,1651086548634568.0,3
1542,-14.0,-9.0,-46.0,-2.0,-3.0,-5.0,-5.0,2.0,1651086548635448.0,3
1543,-8.0,3.0,21.0,7.0,5.0,4.0,4.0,-1.0,1651086548635448.0,3
1544,-11.0,6.0,12.0,-3.0,2.0,0.0,1.0,34.0,1651086548641424.0,3
1545,31.0,0.0,2.0,5.0,-3.0,-4.0,-3.0,-9.0,1651086548641424.0,3
1546,-2.0,-2.0,20.0,-32.0,-11.0,-5.0,-3.0,22.0,1651086548648847.0,3
1547,10.0,7.0,-16.0,-6.0,3.0,2.0,3.0,6.0,1651086548648847.0,3
1548,-6.0,5.0,4.0,12.0,1.0,-3.0,-5.0,-14.0,1651086548665304.0,3
1549,-3.0,0.0,12.0,17.0,0.0,-1.0,1.0,12.0,1651086548665304.0,3
1550,7.0,9.0,-11.0,-53.0,-2.0,0.0,-1.0,-10.0,1651086548666157.0,3
1551,3.0,-5.0,49.0,50.0,1.0,-3.0,6.0,30.0,1651086548666157.0,3
1552,26.0,-10.0,-39.0,-15.0,0.0,2.0,-1.0,-7.0,1651086548687424.0,3
1553,-5.0,1.0,-25.0,6.0,-7.0,-4.0,-1.0,3.0,1651086548687424.0,3
1554,0.0,1.0,-8.0,1.0,3.0,3.0,3.0,8.0,1651086548688277.0,3
1555,-2.0,3.0,0.0,-16.0,2.0,2.0,-3.0,9.0,1651086548688277.0,3
1556,-4.0,3.0,16.0,1.0,-4.0,0.0,1.0,-8.0,1651086548701401.0,3
1557,24.0,5.0,-12.0,9.0,-2.0,1.0,0.0,4.0,1651086548701401.0,3
1558,-29.0,-35.0,-13.0,28.0,6.0,3.0,1.0,7.0,1651086548709232.0,3
1559,4.0,33.0,-5.0,-24.0,0.0,-2.0,-1.0,-9.0,1651086548709232.0,3
1560,0.0,-6.0,-6.0,8.0,-2.0,-2.0,3.0,30.0,1651086548724604.0,3
1561,-7.0,-7.0,4.0,-18.0,-5.0,-2.0,-7.0,-15.0,1651086548724604.0,3
1562,3.0,2.0,46.0,37.0,6.0,-1.0,-1.0,7.0,1651086548726435.0,3
1563,-38.0,-10.0,-48.0,-33.0,-9.0,-4.0,-2.0,-8.0,1651086548726435.0,3
1564,13.0,3.0,27.0,30.0,-1.0,-2.0,0.0,-19.0,1651086548747366.0,3
1565,0.0,15.0,6.0,1.0,16.0,8.0,6.0,12.0,1651086548747366.0,3
1566,-14.0,-19.0,-31.0,-1.0,-5.0,-4.0,-4.0,1.0,1651086548748208.0,3
1567,2.0,-2.0,-11.0,-17.0,-8.0,-4.0,-5.0,-10.0,1651086548748208.0,3
1568,4.0,10.0,24.0,34.0,5.0,1.0,-2.0,-29.0,1651086548761122.0,3
1569,-10.0,-5.0,-18.0,-17.0,-1.0,-2.0,1.0,-4.0,1651086548761122.0,3
1570,1.0,9.0,18.0,3.0,5.0,1.0,0.0,-17.0,1651086548769228.0,3
1571,13.0,-10.0,0.0,-7.0,-3.0,-1.0,-1.0,-1.0,1651086548769228.0,3
1572,1.0,4.0,20.0,14.0,1.0,-1.0,1.0,6.0,1651086548784509.0,3
1573,11.0,-5.0,-6.0,22.0,-6.0,-5.0,-3.0,-4.0,1651086548784509.0,3
1574,2.0,3.0,-5.0,-17.0,5.0,2.0,1.0,4.0,1651086548786454.0,3
1575,9.0,-1.0,18.0,-12.0,-3.0,2.0,2.0,0.0,1651086548786454.0,3
1576,-16.0,-2.0,-5.0,37.0,3.0,-1.0,-3.0,19.0,1651086548807812.0,3
1577,3.0,14.0,55.0,11.0,-2.0,-1.0,2.0,10.0,1651086548807812.0,3
1578,7.0,8.0,16.0,-2.0,-5.0,0.0,-1.0,-46.0,1651086548808685.0,3
1579,1.0,-16.0,-49.0,-23.0,1.0,2.0,1.0,21.0,1651086548808685.0,3
1580,-14.0,-3.0,24.0,23.0,5.0,-2.0,-3.0,1.0,1651086548820812.0,3
1581,-9.0,6.0,19.0,3.0,0.0,-2.0,-4.0,-20.0,1651086548820812.0,3
1582,-2.0,-3.0,-16.0,-4.0,-5.0,-6.0,-3.0,4.0,1651086548829828.0,3
1583,-3.0,0.0,11.0,3.0,0.0,1.0,0.0,6.0,1651086548829828.0,3
1584,-2.0,-1.0,-16.0,-23.0,5.0,2.0,-1.0,-27.0,1651086548845371.0,3
1585,-9.0,-13.0,-44.0,-7.0,-2.0,0.0,0.0,-4.0,1651086548845371.0,3
1586,5.0,5.0,28.0,18.0,-3.0,1.0,2.0,5.0,1651086548846243.0,3
1587,18.0,0.0,-22.0,-1.0,6.0,4.0,6.0,2.0,1651086548846243.0,3
1588,12.0,-1.0,-2.0,-21.0,-9.0,-2.0,-7.0,13.0,1651086548867297.0,3
1589,-25.0,2.0,-25.0,-10.0,-7.0,-6.0,-5.0,-18.0,1651086548867297.0,3
1590,4.0,9.0,5.0,16.0,3.0,1.0,0.0,7.0,1651086548868236.0,3
1591,0.0,4.0,-5.0,-4.0,-2.0,2.0,0.0,-7.0,1651086548868236.0,3
1592,-3.0,-5.0,-10.0,-1.0,6.0,-1.0,-3.0,2.0,1651086548881393.0,3
1593,-1.0,-6.0,1.0,0.0,4.0,-1.0,1.0,10.0,1651086548881393.0,3
1594,-9.0,8.0,-5.0,-16.0,-4.0,-2.0,-4.0,-10.0,1651086548889208.0,3
1595,-3.0,-20.0,-27.0,-6.0,-8.0,-6.0,-2.0,4.0,1651086548889208.0,3
1596,0.0,-12.0,-3.0,0.0,5.0,5.0,5.0,2.0,1651086548904619.0,3
1597,-7.0,14.0,65.0,34.0,-1.0,-1.0,0.0,8.0,1651086548904619.0,3
1598,4.0,3.0,-2.0,-8.0,-3.0,-5.0,1.0,29.0,1651086548910996.0,3
1599,-4.0,7.0,16.0,21.0,11.0,1.0,-2.0,-9.0,1651086548910996.0,3
1600,-12.0,-6.0,-7.0,-40.0,-9.0,2.0,7.0,0.0,1651086548927434.0,3
1601,10.0,-6.0,-13.0,4.0,1.0,-5.0,-7.0,0.0,1651086548927434.0,3
1602,9.0,4.0,-11.0,2.0,1.0,3.0,1.0,9.0,1651086548928133.0,3
1603,-6.0,-14.0,2.0,-16.0,-9.0,-7.0,-6.0,-7.0,1651086548928133.0,3
1604,3.0,14.0,6.0,-1.0,0.0,1.0,5.0,4.0,1651086548949075.0,3
1605,11.0,-11.0,-20.0,-5.0,2.0,1.0,2.0,-1.0,1651086548949075.0,3
1606,-16.0,-8.0,12.0,-10.0,-7.0,-2.0,-3.0,14.0,1651086548951072.0,3
1607,-1.0,2.0,-33.0,-4.0,-5.0,-4.0,-14.0,-52.0,1651086548951072.0,3
1608,7.0,8.0,24.0,5.0,-4.0,-1.0,1.0,-13.0,1651086548965282.0,3
1609,12.0,9.0,0.0,4.0,7.0,5.0,4.0,11.0,1651086548965282.0,3
1610,7.0,-2.0,-21.0,-7.0,3.0,1.0,1.0,-2.0,1651086548971268.0,3
1611,-9.0,-11.0,-5.0,-10.0,-4.0,1.0,4.0,0.0,1651086548971268.0,3
1612,2.0,7.0,35.0,32.0,1.0,-1.0,-2.0,0.0,1651086548987366.0,3
1613,-7.0,-23.0,-31.0,-29.0,-3.0,-2.0,-4.0,-2.0,1651086548987366.0,3
1614,-2.0,4.0,-70.0,-25.0,1.0,1.0,1.0,-10.0,1651086548988216.0,3
1615,2.0,8.0,43.0,2.0,2.0,2.0,3.0,-8.0,1651086548988216.0,3
1616,2.0,-15.0,-49.0,8.0,-11.0,-6.0,-4.0,-6.0,1651086549001218.0,3
1617,4.0,-6.0,33.0,-10.0,-3.0,0.0,3.0,21.0,1651086549001218.0,3
1618,6.0,-4.0,-4.0,8.0,6.0,0.0,-1.0,12.0,1651086549009220.0,3
1619,9.0,18.0,27.0,7.0,5.0,2.0,2.0,8.0,1651086549009220.0,3
1620,-17.0,-14.0,-43.0,-33.0,-8.0,-3.0,-1.0,1.0,1651086549025207.0,3
1621,14.0,3.0,13.0,18.0,-2.0,0.0,0.0,-5.0,1651086549025207.0,3
1622,-8.0,-4.0,-18.0,-17.0,-5.0,0.0,0.0,15.0,1651086549026089.0,3
1623,-4.0,5.0,17.0,31.0,1.0,-4.0,-5.0,-19.0,1651086549026089.0,3
1624,1.0,-3.0,38.0,5.0,6.0,2.0,-2.0,6.0,1651086549047645.0,3
1625,-3.0,-9.0,-59.0,-5.0,0.0,-1.0,1.0,1.0,1651086549047645.0,3
1626,-2.0,3.0,21.0,-20.0,-3.0,-2.0,0.0,-13.0,1651086549048687.0,3
1627,-16.0,-2.0,24.0,8.0,0.0,0.0,-1.0,-9.0,1651086549048687.0,3
1628,-3.0,-1.0,-46.0,-11.0,-9.0,-4.0,0.0,16.0,1651086549060861.0,3
1629,1.0,4.0,29.0,-2.0,-4.0,2.0,-3.0,-6.0,1651086549060861.0,3
1630,-2.0,-10.0,-7.0,19.0,4.0,0.0,-2.0,-19.0,1651086549070102.0,3
1631,4.0,0.0,-3.0,-1.0,2.0,-2.0,2.0,23.0,1651086549070102.0,3
1632,0.0,6.0,12.0,15.0,1.0,0.0,-1.0,-3.0,1651086549085296.0,3
1633,-7.0,-5.0,4.0,-22.0,-6.0,0.0,1.0,7.0,1651086549085296.0,3
1634,0.0,-5.0,-26.0,0.0,-2.0,-2.0,-6.0,-17.0,1651086549086159.0,3
1635,8.0,-1.0,1.0,8.0,0.0,-1.0,1.0,18.0,1651086549086159.0,3
1636,-3.0,7.0,-4.0,-11.0,3.0,1.0,0.0,-9.0,1651086549107375.0,3
1637,-2.0,-1.0,18.0,30.0,0.0,-3.0,-1.0,0.0,1651086549107375.0,3
1638,0.0,8.0,19.0,7.0,4.0,4.0,9.0,-15.0,1651086549108232.0,3
1639,22.0,-8.0,1.0,-20.0,-8.0,0.0,1.0,2.0,1651086549108232.0,3
1640,-30.0,-1.0,-6.0,-17.0,4.0,1.0,-1.0,-7.0,1651086549121082.0,3
1641,-6.0,0.0,10.0,6.0,-1.0,2.0,2.0,1.0,1651086549121082.0,3
1642,12.0,1.0,33.0,54.0,9.0,4.0,2.0,14.0,1651086549129231.0,3
1643,-1.0,-1.0,-23.0,-31.0,-11.0,-4.0,1.0,6.0,1651086549129231.0,3
1644,13.0,6.0,13.0,7.0,-1.0,0.0,1.0,3.0,1651086549145346.0,3
1645,-3.0,3.0,-21.0,-26.0,4.0,2.0,1.0,-6.0,1651086549145346.0,3
1646,6.0,-3.0,51.0,25.0,-2.0,-2.0,-1.0,28.0,1651086549146236.0,3
1647,-5.0,1.0,-49.0,20.0,11.0,1.0,-3.0,-8.0,1651086549146236.0,3
1648,5.0,-6.0,15.0,12.0,3.0,0.0,0.0,1.0,1651086549167349.0,3
1649,-5.0,0.0,-27.0,-8.0,-5.0,-1.0,0.0,0.0,1651086549167349.0,3
1650,1.0,-5.0,11.0,-24.0,-5.0,-3.0,-4.0,-15.0,1651086549168205.0,3
1651,-3.0,-1.0,0.0,-7.0,-10.0,-3.0,-1.0,15.0,1651086549168205.0,3
1652,3.0,-12.0,-33.0,6.0,8.0,1.0,-1.0,3.0,1651086549190359.0,3
1653,-8.0,9.0,-38.0,-9.0,5.0,0.0,-3.0,-13.0,1651086549190359.0,3
1654,-6.0,-4.0,18.0,7.0,-4.0,-2.0,0.0,6.0,1651086549191257.0,3
1655,-4.0,-7.0,-11.0,-3.0,-1.0,1.0,1.0,-16.0,1651086549191257.0,3
1656,5.0,-5.0,-24.0,-13.0,-4.0,-4.0,-3.0,11.0,1651086549205216.0,3
1657,4.0,9.0,39.0,-1.0,-4.0,-2.0,-2.0,-6.0,1651086549205216.0,3
1658,-4.0,-1.0,-31.0,-12.0,1.0,1.0,0.0,1.0,1651086549206056.0,3
1659,4.0,-4.0,35.0,6.0,-2.0,-2.0,-2.0,2.0,1651086549206056.0,3
1660,14.0,4.0,4.0,16.0,5.0,8.0,6.0,0.0,1651086549227577.0,3
1661,7.0,-2.0,-15.0,-8.0,6.0,4.0,5.0,8.0,1651086549227577.0,3
1662,-9.0,-1.0,45.0,5.0,-2.0,-5.0,-8.0,-37.0,1651086549228610.0,3
1663,6.0,-14.0,-24.0,-6.0,-1.0,0.0,1.0,18.0,1651086549228610.0,3
1664,2.0,12.0,29.0,4.0,1.0,0.0,0.0,-4.0,1651086549249878.0,3
1665,-5.0,-10.0,8.0,-14.0,-4.0,-3.0,-3.0,-8.0,1651086549249878.0,3
1666,-2.0,8.0,2.0,13.0,0.0,3.0,2.0,6.0,1651086549250769.0,3
1667,-3.0,5.0,10.0,28.0,2.0,-1.0,-2.0,-2.0,1651086549250769.0,3
1668,-2.0,-5.0,26.0,-24.0,2.0,1.0,0.0,-6.0,1651086549264388.0,3
1669,13.0,13.0,-18.0,4.0,5.0,2.0,1.0,6.0,1651086549264388.0,3
1670,-2.0,-12.0,-28.0,-18.0,-9.0,-6.0,-2.0,10.0,1651086549270373.0,3
1671,-28.0,1.0,-3.0,0.0,-2.0,-2.0,-5.0,-2.0,1651086549270373.0,3
1672,-4.0,-7.0,3.0,-5.0,-6.0,-1.0,-1.0,6.0,1651086549287378.0,3
1673,-5.0,-6.0,-8.0,-34.0,0.0,-4.0,-2.0,7.0,1651086549287378.0,3
1674,6.0,10.0,11.0,38.0,-2.0,0.0,1.0,6.0,1651086549288223.0,3
1675,1.0,2.0,-8.0,-14.0,0.0,0.0,1.0,-5.0,1651086549288223.0,3
1676,3.0,12.0,25.0,14.0,-2.0,0.0,1.0,3.0,1651086549310429.0,3
1677,-6.0,-17.0,-51.0,-11.0,-10.0,-6.0,-10.0,-16.0,1651086549310429.0,3
1678,-10.0,-7.0,-16.0,-25.0,-1.0,1.0,-1.0,-5.0,1651086549311270.0,3
1679,6.0,2.0,-16.0,-14.0,-4.0,-1.0,0.0,10.0,1651086549311270.0,3
1680,13.0,10.0,9.0,-5.0,-1.0,3.0,5.0,20.0,1651086549324397.0,3
1681,0.0,1.0,5.0,5.0,6.0,0.0,-3.0,-12.0,1651086549324397.0,3
1682,10.0,7.0,35.0,-1.0,2.0,3.0,3.0,8.0,1651086549331375.0,3
1683,2.0,-6.0,-67.0,-20.0,-8.0,-2.0,-3.0,-11.0,1651086549331375.0,3
1684,-15.0,-10.0,-14.0,-8.0,-1.0,-1.0,-3.0,-8.0,1651086549347279.0,3
1685,-4.0,0.0,4.0,-6.0,-6.0,-3.0,-1.0,-2.0,1651086549347279.0,3
1686,4.0,8.0,-10.0,2.0,5.0,1.0,1.0,-1.0,1651086549348279.0,3
1687,-4.0,-2.0,34.0,-4.0,0.0,-2.0,0.0,2.0,1651086549348279.0,3
1688,0.0,-6.0,-24.0,-20.0,-6.0,-2.0,-2.0,0.0,1651086549370383.0,3
1689,-2.0,-1.0,15.0,46.0,3.0,0.0,-2.0,3.0,1651086549370383.0,3
1690,-13.0,5.0,-2.0,-7.0,-6.0,-3.0,-1.0,-8.0,1651086549371275.0,3
1691,-1.0,-3.0,7.0,0.0,-1.0,0.0,-3.0,-14.0,1651086549371275.0,3
1692,2.0,-2.0,-18.0,10.0,6.0,0.0,-3.0,-6.0,1651086549392549.0,3
1693,-4.0,2.0,32.0,6.0,-2.0,-1.0,0.0,0.0,1651086549392549.0,3
1694,1.0,-6.0,-21.0,-14.0,4.0,-2.0,-2.0,-1.0,1651086549393406.0,3
1695,0.0,3.0,6.0,5.0,0.0,0.0,1.0,3.0,1651086549393406.0,3
1696,0.0,1.0,-1.0,-10.0,-2.0,-4.0,-3.0,-4.0,1651086549407829.0,3
1697,-2.0,0.0,18.0,16.0,3.0,3.0,2.0,5.0,1651086549407829.0,3
1698,2.0,-2.0,-24.0,-2.0,-10.0,-2.0,0.0,5.0,1651086549408694.0,3
1699,1.0,2.0,10.0,15.0,10.0,2.0,1.0,3.0,1651086549408694.0,3
1700,-1.0,-2.0,3.0,-6.0,-5.0,2.0,0.0,-8.0,1651086549429884.0,3
1701,2.0,1.0,-2.0,-1.0,-3.0,-2.0,1.0,6.0,1651086549429884.0,3
1702,0.0,0.0,14.0,18.0,2.0,-1.0,-1.0,-3.0,1651086549430424.0,3
1703,2.0,2.0,10.0,-7.0,-6.0,-2.0,0.0,1.0,1651086549430424.0,3
1704,-7.0,-3.0,-8.0,3.0,1.0,-2.0,-2.0,-4.0,1651086549444236.0,3
1705,-1.0,0.0,8.0,7.0,-4.0,-1.0,-1.0,0.0,1651086549444236.0,3
1706,0.0,0.0,-9.0,-17.0,-2.0,1.0,-1.0,-1.0,1651086549450317.0,3
1707,2.0,1.0,7.0,6.0,1.0,-1.0,-1.0,2.0,1651086549450317.0,3
1708,-3.0,0.0,8.0,6.0,-4.0,-1.0,-2.0,0.0,1651086549467324.0,3
1709,-1.0,0.0,-4.0,-2.0,5.0,2.0,1.0,2.0,1651086549467324.0,3
1710,0.0,1.0,-5.0,-9.0,-4.0,0.0,0.0,-1.0,1651086549469353.0,3
1711,2.0,1.0,10.0,16.0,15.0,5.0,1.0,1.0,1651086549469353.0,3
1712,-2.0,-2.0,-10.0,-3.0,-9.0,-4.0,0.0,0.0,1651086549488485.0,3
1713,-2.0,-2.0,7.0,-3.0,-9.0,-5.0,-1.0,0.0,1651086549488485.0,3
1714,-1.0,0.0,-10.0,3.0,7.0,-1.0,-1.0,0.0,1651086549496667.0,3
1715,0.0,2.0,4.0,0.0,0.0,1.0,2.0,2.0,1651086549496667.0,3
1716,-1.0,0.0,-4.0,-7.0,-10.0,-4.0,-2.0,-4.0,1651086549504196.0,3
1717,-2.0,-3.0,0.0,-2.0,-6.0,-4.0,-2.0,-1.0,1651086549504196.0,3
1718,-1.0,-4.0,-5.0,-8.0,-5.0,-3.0,-1.0,-1.0,1651086549511811.0,3
1719,0.0,0.0,-2.0,0.0,-5.0,-1.0,0.0,-1.0,1651086549511811.0,3
1720,-2.0,-1.0,2.0,-2.0,5.0,2.0,1.0,-2.0,1651086549527382.0,3
1721,1.0,1.0,1.0,10.0,-2.0,-2.0,-2.0,3.0,1651086549527382.0,3
1722,0.0,-1.0,-9.0,-9.0,0.0,-1.0,-3.0,-1.0,1651086549528348.0,3
1723,0.0,1.0,5.0,5.0,5.0,1.0,0.0,0.0,1651086549528348.0,3
1724,-2.0,-1.0,-4.0,-7.0,-11.0,-6.0,-1.0,-1.0,1651086549549184.0,3
1725,-1.0,-3.0,0.0,6.0,14.0,8.0,1.0,1.0,1651086549549184.0,3
1726,-2.0,-2.0,-3.0,-8.0,-4.0,-1.0,-1.0,-2.0,1651086549551176.0,3
1727,-1.0,0.0,0.0,1.0,-6.0,-1.0,-1.0,-1.0,1651086549551176.0,3
1728,1.0,1.0,-1.0,2.0,6.0,-1.0,-1.0,0.0,1651086549563206.0,3
1729,0.0,-1.0,-1.0,1.0,3.0,0.0,1.0,-2.0,1651086549563206.0,3
1730,0.0,-2.0,6.0,8.0,8.0,1.0,1.0,0.0,1651086549571751.0,3
1731,0.0,1.0,-4.0,-16.0,-7.0,-2.0,-1.0,1.0,1651086549571751.0,3
1732,0.0,0.0,1.0,7.0,-2.0,-3.0,-2.0,-1.0,1651086549586672.0,3
1733,1.0,1.0,6.0,7.0,7.0,4.0,-1.0,0.0,1651086549586672.0,3
1734,-1.0,-1.0,-6.0,-9.0,-5.0,-1.0,2.0,-2.0,1651086549588558.0,3
1735,-2.0,-1.0,3.0,1.0,-1.0,-2.0,1.0,1.0,1651086549588558.0,3
1736,-1.0,-1.0,-3.0,-4.0,-3.0,1.0,-1.0,0.0,1651086549609196.0,3
1737,1.0,-2.0,-3.0,1.0,-2.0,-3.0,0.0,-1.0,1651086549609196.0,3
1738,-1.0,0.0,2.0,3.0,2.0,0.0,-1.0,-1.0,1651086549611215.0,3
1739,-2.0,-2.0,0.0,3.0,1.0,2.0,1.0,-1.0,1651086549611215.0,3
1740,1.0,0.0,-1.0,2.0,2.0,2.0,0.0,-2.0,1651086549623212.0,3
1741,0.0,0.0,-3.0,-8.0,-5.0,-4.0,-1.0,0.0,1651086549623212.0,3
1742,0.0,5.0,-2.0,-4.0,-3.0,-2.0,-3.0,-2.0,1651086549632200.0,3
1743,-1.0,-6.0,-3.0,4.0,2.0,0.0,0.0,-1.0,1651086549632200.0,3
1744,-1.0,1.0,2.0,-2.0,-1.0,0.0,-1.0,1.0,1651086549647336.0,3
1745,0.0,-3.0,-6.0,0.0,-8.0,-4.0,-1.0,-1.0,1651086549647336.0,3
1746,0.0,-2.0,4.0,0.0,4.0,-1.0,-2.0,-1.0,1651086549648194.0,3
1747,1.0,1.0,-5.0,-2.0,-5.0,-1.0,0.0,0.0,1651086549648194.0,3
1748,-1.0,0.0,2.0,0.0,-1.0,0.0,1.0,1.0,1651086549669381.0,3
1749,-2.0,-2.0,1.0,1.0,1.0,2.0,-1.0,-2.0,1651086549669381.0,3
1750,0.0,-4.0,-7.0,-9.0,-9.0,-4.0,-3.0,-1.0,1651086549671246.0,3
1751,0.0,-1.0,0.0,0.0,-1.0,1.0,-1.0,-1.0,1651086549671246.0,3
1752,0.0,9.0,0.0,4.0,1.0,-2.0,1.0,-1.0,1651086549683531.0,3
1753,0.0,-10.0,1.0,-4.0,-3.0,2.0,2.0,1.0,1651086549683531.0,3
1754,-1.0,10.0,-1.0,12.0,3.0,-2.0,0.0,-2.0,1651086549691772.0,3
1755,-2.0,-2.0,4.0,-2.0,5.0,1.0,-2.0,-1.0,1651086549691772.0,3
1756,-1.0,-17.0,-15.0,0.0,-3.0,-2.0,1.0,-1.0,1651086549707371.0,3
1757,2.0,22.0,12.0,2.0,5.0,-1.0,-1.0,-2.0,1651086549707371.0,3
1758,-1.0,-6.0,-2.0,-9.0,-6.0,1.0,0.0,1.0,1651086549708374.0,3
1759,1.0,0.0,0.0,2.0,-3.0,-3.0,0.0,0.0,1651086549708374.0,3
1760,0.0,0.0,1.0,-3.0,0.0,-1.0,-1.0,-1.0,1651086549730350.0,3
1761,0.0,-5.0,-4.0,0.0,1.0,0.0,2.0,0.0,1651086549730350.0,3
1762,0.0,-3.0,-3.0,-2.0,-2.0,-1.0,0.0,1.0,1651086549731242.0,3
1763,-2.0,1.0,4.0,3.0,-1.0,-2.0,-1.0,-2.0,1651086549731242.0,3
1764,0.0,2.0,5.0,1.0,1.0,-1.0,0.0,-2.0,1651086549743230.0,3
1765,-2.0,-3.0,-4.0,-1.0,3.0,-1.0,-1.0,-1.0,1651086549743230.0,3
1766,1.0,1.0,-1.0,-8.0,-4.0,0.0,1.0,0.0,1651086549751771.0,3
1767,1.0,-5.0,-4.0,11.0,9.0,4.0,0.0,0.0,1651086549751771.0,3
1768,0.0,2.0,2.0,-4.0,-4.0,-1.0,0.0,-2.0,1651086549767252.0,3
1769,0.0,1.0,3.0,10.0,18.0,2.0,-1.0,1.0,1651086549767252.0,3
1770,0.0,-6.0,-6.0,-3.0,-3.0,-1.0,-2.0,-1.0,1651086549768252.0,3
1771,0.0,3.0,1.0,-10.0,-4.0,1.0,1.0,1.0,1651086549768252.0,3
1772,0.0,-2.0,-1.0,5.0,-1.0,-1.0,-2.0,-2.0,1651086549789677.0,3
1773,1.0,-1.0,-2.0,-4.0,-5.0,-2.0,-1.0,0.0,1651086549789677.0,3
1774,-1.0,-3.0,-1.0,-4.0,-2.0,0.0,1.0,1.0,1651086549790705.0,3
1775,-2.0,-1.0,0.0,7.0,-3.0,-5.0,-3.0,-2.0,1651086549790705.0,3
1776,1.0,2.0,2.0,1.0,15.0,12.0,5.0,2.0,1651086549802811.0,3
1777,2.0,6.0,-1.0,1.0,1.0,3.0,1.0,0.0,1651086549802811.0,3
1778,0.0,-9.0,1.0,1.0,4.0,5.0,7.0,2.0,1651086549811977.0,3
1779,-3.0,7.0,3.0,-5.0,-11.0,-13.0,-12.0,-3.0,1651086549811977.0,3
1780,1.0,-1.0,-7.0,-3.0,-4.0,-3.0,-2.0,0.0,1651086549827135.0,3
1781,-1.0,-1.0,0.0,-2.0,-4.0,-1.0,0.0,0.0,1651086549827135.0,3
1782,1.0,1.0,-1.0,-2.0,-2.0,0.0,3.0,1.0,1651086549827995.0,3
1783,-1.0,-1.0,1.0,0.0,2.0,0.0,0.0,0.0,1651086549827995.0,3
1784,-2.0,-2.0,0.0,2.0,2.0,-3.0,-3.0,-1.0,1651086549848990.0,3
1785,-1.0,-2.0,0.0,-4.0,-4.0,0.0,0.0,-2.0,1651086549848990.0,3
1786,0.0,2.0,-2.0,2.0,-2.0,-3.0,0.0,-3.0,1651086549850988.0,3
1787,0.0,-4.0,-3.0,-3.0,1.0,2.0,2.0,0.0,1651086549850988.0,3
1788,-2.0,0.0,0.0,-1.0,0.0,-1.0,-1.0,0.0,1651086549872571.0,3
1789,-2.0,-5.0,-2.0,1.0,-3.0,3.0,2.0,0.0,1651086549872571.0,3
1790,-2.0,-1.0,0.0,1.0,0.0,-1.0,-4.0,-2.0,1651086549879161.0,0
1791,2.0,0.0,-1.0,-1.0,0.0,1.0,3.0,0.0,1651086549879161.0,0
1792,-1.0,-2.0,-2.0,0.0,-2.0,-3.0,-1.0,-1.0,1651086549887365.0,0
1793,1.0,-2.0,-1.0,-3.0,-7.0,-3.0,-3.0,-2.0,1651086549887365.0,0
1794,-1.0,0.0,1.0,-1.0,3.0,0.0,-3.0,0.0,1651086549901456.0,0
1795,1.0,-2.0,-2.0,-1.0,-1.0,0.0,1.0,-1.0,1651086549901456.0,0
1796,-1.0,1.0,-2.0,-5.0,-7.0,-2.0,-1.0,0.0,1651086549910283.0,0
1797,-1.0,-4.0,-4.0,-2.0,-6.0,-5.0,-1.0,-1.0,1651086549910283.0,0
1798,0.0,0.0,-2.0,2.0,-2.0,1.0,-1.0,0.0,1651086549911271.0,0
1799,1.0,-2.0,0.0,-2.0,2.0,3.0,1.0,1.0,1651086549911271.0,0
1800,-2.0,-1.0,1.0,3.0,-5.0,-2.0,-3.0,-1.0,1651086549923373.0,0
1801,-1.0,0.0,1.0,-3.0,2.0,1.0,-1.0,2.0,1651086549923373.0,0
1802,-1.0,-1.0,-3.0,-11.0,-9.0,-2.0,-2.0,-1.0,1651086549932389.0,0
1803,0.0,0.0,0.0,16.0,12.0,3.0,1.0,0.0,1651086549932389.0,0
1804,0.0,-3.0,-1.0,-4.0,-5.0,-2.0,1.0,-1.0,1651086549947371.0,0
1805,-1.0,-1.0,-2.0,-3.0,-4.0,-5.0,-2.0,-1.0,1651086549947371.0,0
1806,0.0,1.0,0.0,3.0,2.0,-1.0,0.0,1.0,1651086549948209.0,0
1807,-1.0,-1.0,-3.0,-7.0,-3.0,0.0,-1.0,0.0,1651086549948209.0,0
1808,-2.0,-1.0,0.0,1.0,5.0,1.0,1.0,1.0,1651086549970382.0,0
1809,-1.0,-1.0,0.0,5.0,2.0,0.0,1.0,0.0,1651086549970382.0,0
1810,0.0,0.0,-1.0,-1.0,0.0,-2.0,-1.0,0.0,1651086549971242.0,0
1811,0.0,1.0,-2.0,-3.0,-5.0,-2.0,-1.0,-2.0,1651086549971242.0,0
1812,0.0,-1.0,-1.0,0.0,3.0,0.0,0.0,2.0,1651086549992462.0,0
1813,-1.0,-1.0,-3.0,-1.0,-2.0,0.0,1.0,-1.0,1651086549992462.0,0
1814,-1.0,0.0,0.0,-1.0,-7.0,-3.0,-1.0,-1.0,1651086549993094.0,0
1815,0.0,0.0,1.0,6.0,17.0,4.0,1.0,0.0,1651086549993094.0,0
1816,1.0,-1.0,-1.0,-13.0,-6.0,-2.0,-1.0,-2.0,1651086550007524.0,0
1817,-2.0,-3.0,3.0,21.0,6.0,-1.0,-1.0,-2.0,1651086550007524.0,0
1818,1.0,-1.0,1.0,5.0,13.0,4.0,-1.0,0.0,1651086550008229.0,0
1819,-1.0,-3.0,-1.0,-2.0,-6.0,-1.0,0.0,-1.0,1651086550008229.0,0
1820,0.0,0.0,-3.0,-7.0,-2.0,0.0,-1.0,-3.0,1651086550030322.0,0
1821,0.0,0.0,-3.0,1.0,3.0,1.0,-1.0,0.0,1651086550030322.0,0
1822,-3.0,-2.0,-2.0,0.0,-4.0,-3.0,-1.0,-1.0,1651086550031252.0,0
1823,-2.0,1.0,-2.0,-3.0,-8.0,-3.0,0.0,0.0,1651086550031252.0,0
1824,0.0,0.0,-2.0,-3.0,-3.0,-1.0,-1.0,1.0,1651086550043377.0,0
1825,1.0,-3.0,-2.0,-4.0,-2.0,-2.0,0.0,-1.0,1651086550043377.0,0
1826,-1.0,-1.0,-1.0,4.0,0.0,0.0,-3.0,-1.0,1651086550052388.0,0
1827,-1.0,-1.0,-1.0,-8.0,-5.0,0.0,-1.0,0.0,1651086550052388.0,0
1828,-2.0,1.0,1.0,7.0,1.0,0.0,1.0,1.0,1651086550067237.0,0
1829,-1.0,-1.0,-1.0,-4.0,-1.0,0.0,-1.0,0.0,1651086550067237.0,0
1830,0.0,0.0,-1.0,0.0,2.0,0.0,0.0,-2.0,1651086550068238.0,0
1831,0.0,-2.0,0.0,0.0,-3.0,-3.0,-1.0,0.0,1651086550068238.0,0
1832,-2.0,-2.0,0.0,5.0,4.0,1.0,-1.0,-1.0,1651086550089199.0,0
1833,-2.0,0.0,1.0,-4.0,2.0,2.0,0.0,1.0,1651086550089199.0,0
1834,-1.0,-2.0,0.0,-2.0,-3.0,-1.0,1.0,0.0,1651086550091225.0,0
1835,1.0,-1.0,-1.0,-4.0,-4.0,0.0,-1.0,-2.0,1651086550091225.0,0
1836,-1.0,-1.0,-1.0,1.0,-1.0,-3.0,0.0,-2.0,1651086550112505.0,0
1837,-1.0,-1.0,-2.0,-1.0,-4.0,0.0,1.0,2.0,1651086550112505.0,0
1838,-1.0,0.0,0.0,0.0,10.0,2.0,1.0,0.0,1651086550113092.0,0
1839,0.0,-1.0,-3.0,-4.0,-7.0,-3.0,-3.0,-1.0,1651086550113092.0,0
1840,1.0,-2.0,0.0,4.0,5.0,3.0,1.0,1.0,1651086550126577.0,0
1841,1.0,0.0,-1.0,4.0,-3.0,-5.0,-2.0,-2.0,1651086550126577.0,0
1842,-2.0,0.0,1.0,-4.0,-7.0,-4.0,-2.0,-1.0,1651086550133561.0,0
1843,-1.0,-1.0,-1.0,-1.0,-3.0,-1.0,0.0,1.0,1651086550133561.0,0
1844,-1.0,-1.0,-1.0,-8.0,-10.0,-2.0,-1.0,-1.0,1651086550149396.0,0
1845,0.0,0.0,0.0,0.0,14.0,5.0,0.0,0.0,1651086550149396.0,0
1846,1.0,-1.0,-1.0,-4.0,-4.0,1.0,-1.0,-1.0,1651086550151426.0,0
1847,-2.0,0.0,0.0,4.0,4.0,0.0,2.0,0.0,1651086550151426.0,0
1848,-2.0,0.0,-2.0,2.0,-1.0,1.0,1.0,-1.0,1651086550171419.0,0
1849,-1.0,0.0,0.0,-4.0,-5.0,-2.0,-2.0,-1.0,1651086550171419.0,0
1850,-2.0,1.0,0.0,1.0,1.0,-1.0,1.0,0.0,1651086550173419.0,0
1851,-2.0,-1.0,0.0,-3.0,0.0,1.0,-1.0,-1.0,1651086550173419.0,0
1852,0.0,0.0,-1.0,4.0,4.0,1.0,-1.0,0.0,1651086550186536.0,0
1853,1.0,-1.0,1.0,-2.0,-2.0,2.0,1.0,1.0,1651086550186536.0,0
1854,-1.0,-1.0,-2.0,-2.0,-3.0,-3.0,-1.0,0.0,1651086550193226.0,0
1855,-2.0,-1.0,0.0,0.0,-1.0,-1.0,-2.0,0.0,1651086550193226.0,0
1856,0.0,-1.0,-1.0,2.0,1.0,-3.0,-2.0,0.0,1651086550210012.0,0
1857,-3.0,-2.0,-2.0,-9.0,-7.0,-3.0,-2.0,-2.0,1651086550210012.0,0
1858,-1.0,-3.0,-1.0,-9.0,-14.0,-4.0,-2.0,-2.0,1651086550210875.0,0
1859,1.0,-1.0,4.0,18.0,18.0,7.0,4.0,2.0,1651086550210875.0,0
1860,0.0,1.0,0.0,-1.0,3.0,0.0,-1.0,0.0,1651086550232008.0,0
1861,-1.0,-1.0,-1.0,1.0,-7.0,-3.0,-3.0,-1.0,1651086550232008.0,0
1862,0.0,0.0,-2.0,-2.0,3.0,-1.0,-1.0,0.0,1651086550233016.0,0
1863,-2.0,-1.0,-3.0,-11.0,-4.0,-2.0,0.0,-3.0,1651086550233016.0,0
1864,0.0,-2.0,-1.0,4.0,0.0,-1.0,0.0,0.0,1651086550246126.0,0
1865,0.0,1.0,2.0,-2.0,0.0,3.0,4.0,0.0,1651086550246126.0,0
1866,-2.0,-1.0,1.0,1.0,-4.0,-1.0,-1.0,1.0,1651086550254367.0,0
1867,1.0,-3.0,0.0,2.0,1.0,1.0,-1.0,-2.0,1651086550254367.0,0
1868,0.0,1.0,-1.0,-7.0,-8.0,-4.0,-3.0,0.0,1651086550270378.0,0
1869,0.0,-2.0,-2.0,1.0,3.0,-2.0,-2.0,-3.0,1651086550270378.0,0
1870,-1.0,-1.0,-1.0,3.0,0.0,1.0,1.0,1.0,1651086550271269.0,0
1871,0.0,0.0,-1.0,-7.0,-4.0,-3.0,-1.0,-1.0,1651086550271269.0,0
1872,-2.0,0.0,0.0,3.0,4.0,0.0,-1.0,-2.0,1651086550291382.0,0
1873,0.0,-1.0,0.0,0.0,-1.0,1.0,0.0,0.0,1651086550291382.0,0
1874,0.0,0.0,-1.0,3.0,5.0,3.0,1.0,0.0,1651086550299073.0,0
1875,0.0,0.0,-2.0,-4.0,-8.0,-4.0,-1.0,-2.0,1651086550299073.0,0
1876,0.0,-1.0,1.0,-1.0,-2.0,-2.0,0.0,-1.0,1651086550305059.0,0
1877,-2.0,0.0,-3.0,-7.0,-8.0,-2.0,0.0,-1.0,1651086550305059.0,0
1878,0.0,-1.0,1.0,9.0,12.0,0.0,0.0,0.0,1651086550314388.0,0
1879,-1.0,0.0,-1.0,-4.0,-1.0,-1.0,0.0,-1.0,1651086550314388.0,0
1880,-2.0,0.0,0.0,1.0,-1.0,1.0,-1.0,-2.0,1651086550330301.0,0
1881,1.0,-1.0,0.0,-1.0,2.0,2.0,1.0,0.0,1651086550330301.0,0
1882,2.0,1.0,-2.0,-2.0,-6.0,-2.0,-2.0,-2.0,1651086550331239.0,0
1883,0.0,0.0,0.0,1.0,-1.0,0.0,-1.0,-1.0,1651086550331239.0,0
1884,1.0,-2.0,-2.0,-2.0,2.0,-1.0,0.0,0.0,1651086550352426.0,0
1885,0.0,-1.0,-2.0,-4.0,-6.0,-4.0,-1.0,-1.0,1651086550352426.0,0
1886,0.0,1.0,1.0,2.0,0.0,2.0,1.0,1.0,1651086550353106.0,0
1887,0.0,0.0,0.0,1.0,3.0,2.0,1.0,2.0,1651086550353106.0,0
1888,0.0,0.0,0.0,-2.0,1.0,3.0,0.0,0.0,1651086550366103.0,0
1889,-1.0,0.0,0.0,9.0,7.0,-2.0,0.0,-2.0,1651086550366103.0,0
1890,2.0,-2.0,-2.0,-2.0,5.0,0.0,-1.0,-1.0,1651086550373276.0,0
1891,0.0,-1.0,3.0,5.0,-3.0,-3.0,-1.0,2.0,1651086550373276.0,0
1892,-2.0,1.0,-2.0,-11.0,-10.0,-3.0,-2.0,0.0,1651086550390366.0,0
1893,-1.0,1.0,1.0,9.0,15.0,3.0,-1.0,0.0,1651086550390366.0,0
1894,-2.0,-2.0,-1.0,-2.0,-6.0,-3.0,-1.0,-2.0,1651086550391232.0,0
1895,-1.0,-1.0,-3.0,-8.0,-8.0,-3.0,-2.0,-1.0,1651086550391232.0,0
1896,1.0,-2.0,-1.0,3.0,4.0,0.0,1.0,-2.0,1651086550412969.0,0
1897,-2.0,0.0,-1.0,-4.0,-5.0,0.0,1.0,0.0,1651086550412969.0,0
1898,0.0,-1.0,0.0,3.0,0.0,1.0,0.0,-1.0,1651086550413059.0,0
1899,-2.0,-1.0,0.0,2.0,8.0,2.0,-1.0,-1.0,1651086550413059.0,0
1900,0.0,-2.0,1.0,0.0,-1.0,-2.0,-2.0,-1.0,1651086550426222.0,0
1901,-2.0,-2.0,-2.0,-5.0,-4.0,-3.0,-3.0,-1.0,1651086550426222.0,0
1902,-3.0,-1.0,0.0,-1.0,0.0,1.0,2.0,1.0,1651086550432508.0,0
1903,0.0,0.0,-1.0,-5.0,-8.0,-5.0,1.0,-3.0,1651086550432508.0,0
1904,-1.0,0.0,0.0,-5.0,0.0,1.0,1.0,0.0,1651086550449209.0,0
1905,-1.0,0.0,-1.0,-1.0,-2.0,-4.0,-1.0,-1.0,1651086550449209.0,0
1906,0.0,0.0,0.0,4.0,6.0,2.0,0.0,-1.0,1651086550451204.0,0
1907,-1.0,0.0,-3.0,-5.0,-2.0,1.0,-1.0,0.0,1651086550451204.0,0
1908,0.0,-1.0,0.0,7.0,-7.0,-4.0,-2.0,-1.0,1651086550472393.0,0
1909,0.0,-1.0,-1.0,-5.0,-4.0,2.0,1.0,0.0,1651086550472393.0,0
1910,2.0,0.0,-1.0,-1.0,0.0,0.0,-1.0,-2.0,1651086550473234.0,0
1911,-1.0,-1.0,1.0,3.0,5.0,2.0,3.0,0.0,1651086550473234.0,0
1912,1.0,0.0,-3.0,-6.0,-7.0,-6.0,-1.0,0.0,1651086550486543.0,0
1913,-1.0,-1.0,-3.0,-3.0,-3.0,0.0,-2.0,-1.0,1651086550486543.0,0
