,EMG_s0,EMG_s1,EMG_s2,EMG_s3,EMG_s4,EMG_s5,EMG_s6,EMG_s7,timestamp,signal
0,-1.0,-2.0,6.0,-1.0,-2.0,-3.0,0.0,0.0,1651086837481419.0,0
1,-1.0,0.0,1.0,2.0,1.0,1.0,0.0,-1.0,1651086837481419.0,0
2,-1.0,2.0,-10.0,-2.0,-3.0,-2.0,-2.0,0.0,1651086837495217.0,0
3,1.0,1.0,6.0,5.0,6.0,0.0,0.0,-1.0,1651086837495217.0,0
4,0.0,-1.0,6.0,-1.0,-3.0,0.0,0.0,1.0,1651086837496246.0,0
5,-3.0,-1.0,2.0,2.0,-3.0,-1.0,-2.0,-2.0,1651086837496246.0,0
6,-1.0,-7.0,-7.0,-2.0,-1.0,0.0,-1.0,0.0,1651086837511390.0,0
7,0.0,0.0,1.0,-3.0,-6.0,-2.0,-1.0,0.0,1651086837511390.0,0
8,-2.0,-1.0,1.0,-2.0,3.0,0.0,-2.0,0.0,1651086837512227.0,0
9,0.0,0.0,-9.0,2.0,-3.0,-2.0,-1.0,0.0,1651086837512227.0,0
10,0.0,-2.0,16.0,12.0,2.0,1.0,0.0,0.0,1651086837533147.0,0
11,-1.0,1.0,-24.0,-13.0,-8.0,-5.0,-1.0,0.0,1651086837533147.0,0
12,-1.0,-9.0,-4.0,2.0,-1.0,-4.0,-1.0,0.0,1651086837539279.0,0
13,-1.0,-4.0,-9.0,-11.0,-1.0,-1.0,1.0,-1.0,1651086837539279.0,0
14,-1.0,5.0,15.0,9.0,4.0,1.0,-1.0,-1.0,1651086837555257.0,0
15,-1.0,1.0,12.0,2.0,0.0,-1.0,-3.0,0.0,1651086837555257.0,0
16,0.0,3.0,-4.0,-3.0,-6.0,-3.0,1.0,0.0,1651086837556248.0,0
17,-1.0,-2.0,-11.0,1.0,7.0,5.0,1.0,0.0,1651086837556248.0,0
18,-1.0,-3.0,7.0,-4.0,-5.0,-5.0,-1.0,0.0,1651086837570342.0,0
19,0.0,1.0,-3.0,-4.0,1.0,3.0,0.0,-2.0,1651086837570342.0,0
20,-1.0,-1.0,-13.0,-12.0,-12.0,-5.0,-2.0,0.0,1651086837571204.0,0
21,1.0,-2.0,5.0,7.0,8.0,1.0,0.0,0.0,1651086837571204.0,0
22,0.0,-2.0,-3.0,9.0,3.0,2.0,0.0,0.0,1651086837593225.0,0
23,-1.0,1.0,18.0,2.0,6.0,1.0,-1.0,0.0,1651086837593225.0,0
24,1.0,3.0,-12.0,-7.0,-6.0,-2.0,-2.0,-1.0,1651086837594268.0,0
25,-3.0,-4.0,9.0,-4.0,-3.0,0.0,0.0,-1.0,1651086837594268.0,0
26,-2.0,-2.0,-13.0,-9.0,-6.0,-2.0,-1.0,-2.0,1651086837615083.0,0
27,1.0,-4.0,9.0,7.0,0.0,0.0,0.0,-2.0,1651086837615083.0,0
28,2.0,4.0,13.0,3.0,4.0,2.0,0.0,-2.0,1651086837616919.0,0
29,-3.0,-4.0,-18.0,-3.0,-2.0,-1.0,0.0,-1.0,1651086837616919.0,0
30,1.0,-10.0,4.0,-3.0,-2.0,-1.0,-2.0,-1.0,1651086837629818.0,0
31,-2.0,11.0,0.0,-1.0,-7.0,-1.0,0.0,0.0,1651086837629818.0,0
32,-1.0,-5.0,-4.0,3.0,8.0,3.0,1.0,-1.0,1651086837636962.0,0
33,1.0,2.0,3.0,-6.0,-5.0,-2.0,-1.0,-1.0,1651086837636962.0,0
34,-3.0,-9.0,-15.0,-2.0,-4.0,0.0,-1.0,-3.0,1651086837653226.0,0
35,0.0,6.0,-3.0,-4.0,0.0,0.0,-1.0,0.0,1651086837653226.0,0
36,-1.0,-7.0,-1.0,7.0,7.0,2.0,0.0,-1.0,1651086837654258.0,0
37,-1.0,3.0,-7.0,-10.0,8.0,2.0,1.0,-1.0,1651086837654258.0,0
38,1.0,1.0,7.0,4.0,-1.0,-2.0,-1.0,-1.0,1651086837675526.0,0
39,-1.0,-4.0,-8.0,-5.0,-9.0,-6.0,-2.0,0.0,1651086837675526.0,0
40,0.0,4.0,-2.0,-1.0,-1.0,4.0,0.0,0.0,1651086837676397.0,0
41,0.0,0.0,6.0,5.0,7.0,2.0,0.0,1.0,1651086837676397.0,0
42,-1.0,2.0,3.0,-7.0,-2.0,-2.0,-1.0,-1.0,1651086837689937.0,0
43,0.0,0.0,6.0,4.0,-2.0,0.0,0.0,1.0,1651086837689937.0,0
44,0.0,0.0,3.0,0.0,2.0,-3.0,-1.0,1.0,1651086837696056.0,0
45,1.0,0.0,4.0,5.0,-5.0,-2.0,0.0,-1.0,1651086837696056.0,0
46,0.0,1.0,-6.0,0.0,5.0,4.0,2.0,0.0,1651086837712144.0,0
47,-1.0,-3.0,-2.0,-3.0,-5.0,-3.0,-1.0,-1.0,1651086837712144.0,0
48,1.0,2.0,0.0,0.0,2.0,1.0,-1.0,0.0,1651086837714106.0,0
49,-3.0,-4.0,4.0,-1.0,-2.0,-1.0,-1.0,0.0,1651086837714106.0,0
50,2.0,7.0,-7.0,-3.0,-3.0,-3.0,-1.0,0.0,1651086837735300.0,0
51,0.0,-6.0,-1.0,4.0,6.0,2.0,-1.0,-2.0,1651086837735300.0,0
52,-1.0,1.0,12.0,-1.0,-6.0,0.0,-1.0,-1.0,1651086837735300.0,0
53,2.0,2.0,3.0,6.0,2.0,-1.0,-2.0,-1.0,1651086837735300.0,0
54,-2.0,1.0,-3.0,-2.0,0.0,-2.0,-2.0,1.0,1651086837749215.0,0
55,0.0,-2.0,11.0,6.0,11.0,3.0,1.0,2.0,1651086837749215.0,0
56,-2.0,-2.0,2.0,-5.0,-2.0,-2.0,0.0,-2.0,1651086837756771.0,0
57,-1.0,2.0,3.0,-4.0,-7.0,-4.0,0.0,-1.0,1651086837756771.0,0
58,0.0,6.0,4.0,5.0,-2.0,1.0,0.0,0.0,1651086837772166.0,0
59,0.0,-1.0,-2.0,-12.0,-12.0,-2.0,-1.0,0.0,1651086837772166.0,0
60,-2.0,-4.0,-3.0,11.0,13.0,3.0,3.0,0.0,1651086837773020.0,0
61,-1.0,-6.0,-10.0,1.0,5.0,5.0,0.0,2.0,1651086837773020.0,0
62,-1.0,-2.0,3.0,-5.0,2.0,-2.0,-1.0,-3.0,1651086837794361.0,0
63,-2.0,-3.0,-10.0,-6.0,-9.0,-3.0,-2.0,-1.0,1651086837794361.0,0
64,0.0,4.0,10.0,4.0,0.0,-3.0,-1.0,1.0,1651086837795210.0,0
65,-2.0,-6.0,-6.0,-3.0,-2.0,1.0,-1.0,0.0,1651086837795210.0,0
66,0.0,5.0,-3.0,0.0,4.0,0.0,-1.0,0.0,1651086837809219.0,0
67,1.0,-3.0,4.0,5.0,-2.0,0.0,1.0,-1.0,1651086837809219.0,0
68,-2.0,-3.0,-4.0,-14.0,-6.0,-2.0,-2.0,-2.0,1651086837816358.0,0
69,-1.0,-3.0,-3.0,1.0,-4.0,-3.0,-2.0,-1.0,1651086837816358.0,0
70,1.0,-3.0,-2.0,2.0,-2.0,-2.0,-1.0,2.0,1651086837832429.0,0
71,-1.0,0.0,0.0,-1.0,0.0,0.0,-2.0,0.0,1651086837832429.0,0
72,0.0,1.0,12.0,5.0,-4.0,-3.0,-1.0,-1.0,1651086837833098.0,0
73,1.0,2.0,-24.0,-10.0,2.0,-2.0,-1.0,-2.0,1651086837833098.0,0
74,-2.0,0.0,-7.0,-7.0,0.0,1.0,1.0,-1.0,1651086837855201.0,0
75,-1.0,-5.0,2.0,9.0,2.0,0.0,-1.0,0.0,1651086837855201.0,0
76,0.0,-1.0,-5.0,0.0,-6.0,0.0,-1.0,0.0,1651086837855201.0,0
77,0.0,0.0,20.0,7.0,5.0,2.0,0.0,-1.0,1651086837855201.0,0
78,-2.0,-1.0,-19.0,-4.0,-4.0,1.0,0.0,-1.0,1651086837868210.0,0
79,-1.0,0.0,-13.0,-14.0,-2.0,-5.0,-1.0,0.0,1651086837868210.0,0
80,0.0,-1.0,1.0,1.0,-3.0,-1.0,-1.0,0.0,1651086837876758.0,0
81,-1.0,0.0,10.0,6.0,0.0,-1.0,1.0,0.0,1651086837876758.0,0
82,-1.0,-5.0,-4.0,-7.0,-2.0,-3.0,-2.0,-1.0,1651086837892085.0,0
83,-1.0,-3.0,7.0,7.0,2.0,5.0,2.0,-1.0,1651086837892085.0,0
84,-2.0,3.0,-13.0,1.0,0.0,-2.0,-1.0,-1.0,1651086837892919.0,0
85,1.0,4.0,6.0,4.0,1.0,3.0,-2.0,-2.0,1651086837892919.0,0
86,0.0,-2.0,8.0,7.0,2.0,-2.0,0.0,1.0,1651086837915611.0,0
87,-2.0,0.0,0.0,-3.0,-1.0,-2.0,0.0,-1.0,1651086837915611.0,0
88,0.0,-2.0,-8.0,-15.0,-8.0,-2.0,0.0,-1.0,1651086837916445.0,0
89,-1.0,-1.0,2.0,6.0,0.0,-1.0,-1.0,-1.0,1651086837916445.0,0
90,0.0,2.0,3.0,2.0,1.0,1.0,-1.0,0.0,1651086837928643.0,0
91,0.0,2.0,5.0,-1.0,-4.0,-1.0,0.0,0.0,1651086837928643.0,0
92,0.0,-2.0,0.0,8.0,11.0,3.0,1.0,0.0,1651086837936722.0,0
93,-1.0,5.0,-1.0,-5.0,-7.0,-8.0,-3.0,-1.0,1651086837936722.0,0
94,-2.0,-16.0,-12.0,-8.0,1.0,3.0,0.0,-2.0,1651086837952378.0,0
95,1.0,10.0,19.0,0.0,-1.0,0.0,0.0,0.0,1651086837952378.0,0
96,0.0,1.0,-2.0,11.0,0.0,2.0,0.0,-2.0,1651086837953095.0,0
97,-3.0,-5.0,2.0,-10.0,-8.0,-3.0,0.0,-3.0,1651086837953095.0,0
98,0.0,-2.0,-14.0,-3.0,-4.0,-4.0,2.0,0.0,1651086837975385.0,0
99,0.0,-1.0,-7.0,0.0,-3.0,-3.0,-4.0,-1.0,1651086837975385.0,0
100,0.0,-2.0,5.0,2.0,2.0,0.0,0.0,1.0,1651086837975385.0,0
101,0.0,4.0,4.0,0.0,-6.0,-3.0,1.0,-2.0,1651086837975385.0,0
102,0.0,2.0,8.0,9.0,15.0,9.0,1.0,0.0,1651086837989339.0,0
103,-1.0,-4.0,-3.0,-4.0,-1.0,-1.0,-2.0,0.0,1651086837989339.0,0
104,-1.0,-2.0,-10.0,-16.0,-5.0,0.0,0.0,0.0,1651086837996295.0,0
105,-1.0,-1.0,-1.0,10.0,-1.0,-2.0,-4.0,0.0,1651086837996295.0,0
106,-1.0,2.0,7.0,-3.0,-8.0,-5.0,-1.0,-2.0,1651086838011937.0,0
107,0.0,-1.0,-10.0,0.0,2.0,0.0,0.0,0.0,1651086838011937.0,0
108,0.0,-2.0,1.0,-1.0,-2.0,-3.0,-1.0,-2.0,1651086838012936.0,0
109,1.0,-9.0,-8.0,-8.0,-5.0,-2.0,0.0,1.0,1651086838012936.0,0
110,1.0,15.0,7.0,4.0,8.0,2.0,1.0,0.0,1651086838036229.0,0
111,-3.0,-4.0,-7.0,1.0,6.0,4.0,1.0,1.0,1651086838036229.0,0
112,-1.0,3.0,8.0,1.0,-8.0,-5.0,-2.0,0.0,1651086838036229.0,0
113,-1.0,-6.0,-17.0,-8.0,9.0,2.0,-1.0,0.0,1651086838036229.0,0
114,2.0,0.0,0.0,0.0,-2.0,-4.0,-4.0,0.0,1651086838049241.0,0
115,-2.0,0.0,-2.0,1.0,1.0,-2.0,0.0,-3.0,1651086838049241.0,0
116,0.0,-2.0,-2.0,-2.0,-2.0,2.0,-1.0,-1.0,1651086838065379.0,0
117,-1.0,-3.0,-6.0,-18.0,-19.0,-6.0,-1.0,0.0,1651086838065379.0,0
118,-1.0,1.0,11.0,9.0,-4.0,-1.0,-3.0,-2.0,1651086838072368.0,0
119,1.0,3.0,0.0,3.0,11.0,2.0,0.0,-1.0,1651086838072368.0,0
120,-1.0,-4.0,-7.0,-8.0,-7.0,-1.0,-1.0,-1.0,1651086838072368.0,0
121,-1.0,2.0,7.0,6.0,13.0,2.0,1.0,2.0,1651086838072368.0,0
122,-2.0,-5.0,-6.0,-13.0,-20.0,-9.0,-3.0,-1.0,1651086838094389.0,0
123,0.0,-1.0,3.0,4.0,8.0,1.0,0.0,-1.0,1651086838094389.0,0
124,-4.0,-3.0,-7.0,8.0,8.0,4.0,0.0,-1.0,1651086838095223.0,0
125,0.0,-3.0,8.0,-14.0,-12.0,-3.0,-1.0,-1.0,1651086838095223.0,0
126,3.0,7.0,-16.0,17.0,38.0,16.0,4.0,1.0,1651086838109229.0,0
127,1.0,4.0,9.0,10.0,-4.0,-1.0,-1.0,-1.0,1651086838109229.0,0
128,-1.0,-5.0,-1.0,10.0,18.0,2.0,2.0,0.0,1651086838116220.0,0
129,-1.0,2.0,2.0,7.0,-8.0,-2.0,-2.0,-1.0,1651086838116220.0,0
130,-3.0,-9.0,6.0,-13.0,-10.0,-5.0,-4.0,-2.0,1651086838132383.0,0
131,-1.0,-3.0,-12.0,-5.0,-1.0,-1.0,0.0,-2.0,1651086838132383.0,0
132,0.0,7.0,7.0,8.0,0.0,-4.0,-2.0,1.0,1651086838133101.0,0
133,-1.0,-2.0,-18.0,-14.0,-11.0,-2.0,-2.0,-2.0,1651086838133101.0,0
134,-2.0,-18.0,9.0,2.0,-4.0,-3.0,-1.0,0.0,1651086838154342.0,0
135,0.0,20.0,-2.0,-5.0,-3.0,-2.0,-1.0,1.0,1651086838154342.0,0
136,0.0,0.0,-7.0,-19.0,-17.0,-6.0,-5.0,-2.0,1651086838155201.0,0
137,0.0,3.0,6.0,14.0,8.0,0.0,-2.0,1.0,1651086838155201.0,0
138,0.0,-3.0,-8.0,-11.0,-20.0,-5.0,0.0,1.0,1651086838177348.0,0
139,-1.0,-8.0,-4.0,19.0,39.0,14.0,3.0,1.0,1651086838177348.0,0
140,-1.0,-5.0,-2.0,-4.0,-5.0,-3.0,-2.0,-1.0,1651086838177348.0,0
141,1.0,7.0,11.0,-1.0,5.0,1.0,0.0,-1.0,1651086838177348.0,0
142,0.0,3.0,2.0,2.0,4.0,3.0,2.0,-2.0,1651086838191486.0,0
143,0.0,-5.0,-9.0,1.0,-4.0,-2.0,-1.0,0.0,1651086838191486.0,0
144,-2.0,3.0,0.0,3.0,0.0,-1.0,0.0,1.0,1651086838192486.0,0
145,-1.0,-7.0,-1.0,-4.0,-8.0,0.0,-1.0,-2.0,1651086838192486.0,0
146,-2.0,10.0,-2.0,-5.0,-9.0,-5.0,-2.0,-2.0,1651086838222474.0,0
147,-1.0,-1.0,4.0,-9.0,-16.0,-6.0,-2.0,-1.0,1651086838222474.0,0
148,0.0,-5.0,3.0,-1.0,8.0,5.0,2.0,0.0,1651086838223325.0,0
149,-2.0,1.0,-1.0,14.0,-8.0,-4.0,-1.0,-1.0,1651086838223325.0,0
150,0.0,1.0,-1.0,7.0,24.0,6.0,2.0,0.0,1651086838237357.0,0
151,-1.0,2.0,-3.0,-14.0,-10.0,-2.0,-1.0,0.0,1651086838237357.0,0
152,0.0,-1.0,-1.0,4.0,-14.0,-6.0,-1.0,-1.0,1651086838237357.0,0
153,0.0,-4.0,1.0,-1.0,2.0,6.0,1.0,2.0,1651086838237357.0,0
154,0.0,3.0,12.0,14.0,6.0,0.0,0.0,0.0,1651086838252426.0,0
155,-2.0,-6.0,-30.0,-5.0,13.0,0.0,0.0,-4.0,1651086838252426.0,0
156,0.0,-2.0,-3.0,-23.0,-19.0,-6.0,-3.0,-3.0,1651086838252426.0,0
157,0.0,10.0,2.0,11.0,22.0,8.0,2.0,1.0,1651086838252426.0,0
158,0.0,-9.0,-5.0,-1.0,-9.0,-2.0,-2.0,-1.0,1651086838274073.0,0
159,1.0,2.0,14.0,-4.0,-10.0,-3.0,-1.0,0.0,1651086838274073.0,0
160,-1.0,-3.0,1.0,-1.0,3.0,0.0,0.0,0.0,1651086838274959.0,0
161,1.0,-1.0,-13.0,3.0,2.0,-1.0,-2.0,-2.0,1651086838274959.0,0
162,-1.0,1.0,2.0,-9.0,-5.0,-2.0,-2.0,0.0,1651086838296904.0,0
163,0.0,-4.0,6.0,0.0,-6.0,-6.0,-1.0,-2.0,1651086838296904.0,0
164,0.0,2.0,10.0,13.0,16.0,7.0,2.0,2.0,1651086838297866.0,0
165,1.0,4.0,-9.0,-13.0,2.0,3.0,2.0,1.0,1651086838297866.0,0
166,-4.0,-5.0,15.0,13.0,8.0,-1.0,-1.0,-1.0,1651086838311829.0,0
167,0.0,-16.0,0.0,-8.0,-13.0,-5.0,-2.0,-2.0,1651086838311829.0,0
168,0.0,20.0,-5.0,-1.0,3.0,0.0,0.0,-1.0,1651086838312827.0,0
169,1.0,0.0,2.0,-5.0,-2.0,-2.0,0.0,-2.0,1651086838312827.0,0
170,0.0,1.0,-7.0,-11.0,-11.0,-1.0,-1.0,-1.0,1651086838334379.0,0
171,0.0,1.0,-2.0,3.0,-9.0,-2.0,0.0,0.0,1651086838334379.0,0
172,-2.0,-12.0,4.0,8.0,30.0,8.0,1.0,0.0,1651086838342411.0,0
173,-1.0,-4.0,0.0,6.0,3.0,1.0,1.0,1.0,1651086838342411.0,0
174,0.0,9.0,-5.0,-12.0,-8.0,-2.0,-1.0,-1.0,1651086838357653.0,0
175,0.0,2.0,15.0,2.0,-7.0,-1.0,-2.0,0.0,1651086838357653.0,0
176,-1.0,-3.0,12.0,7.0,-8.0,-5.0,-3.0,-2.0,1651086838357653.0,0
177,-1.0,-3.0,-46.0,-13.0,2.0,0.0,1.0,0.0,1651086838357653.0,0
178,0.0,0.0,24.0,17.0,2.0,1.0,2.0,-1.0,1651086838379229.0,0
179,-3.0,-2.0,-20.0,-25.0,-8.0,-1.0,-2.0,-2.0,1651086838379229.0,0
180,-2.0,3.0,20.0,12.0,-3.0,-2.0,-3.0,-2.0,1651086838380227.0,0
181,1.0,-1.0,7.0,3.0,3.0,-1.0,0.0,-1.0,1651086838380227.0,0
182,1.0,-3.0,-2.0,-4.0,-8.0,-3.0,-2.0,-1.0,1651086838394285.0,0
183,0.0,-1.0,-11.0,-1.0,2.0,0.0,0.0,2.0,1651086838394285.0,0
184,0.0,-2.0,-18.0,-10.0,-6.0,-3.0,-1.0,-1.0,1651086838402427.0,0
185,-3.0,-2.0,29.0,12.0,-7.0,-6.0,-2.0,-2.0,1651086838402427.0,0
186,1.0,-1.0,-32.0,-7.0,-2.0,1.0,-1.0,0.0,1651086838417141.0,0
187,0.0,10.0,26.0,16.0,16.0,1.0,-2.0,-2.0,1651086838417141.0,0
188,1.0,-7.0,-11.0,-2.0,8.0,3.0,3.0,1.0,1651086838417141.0,0
189,-1.0,3.0,-8.0,-14.0,-11.0,-6.0,-3.0,-1.0,1651086838417141.0,0
190,0.0,0.0,5.0,2.0,-5.0,-3.0,-1.0,-1.0,1651086838439218.0,0
191,0.0,1.0,0.0,2.0,-2.0,3.0,4.0,1.0,1651086838439218.0,0
192,-3.0,-2.0,-5.0,11.0,27.0,5.0,1.0,-2.0,1651086838440219.0,0
193,0.0,-9.0,10.0,-5.0,-6.0,-1.0,-2.0,0.0,1651086838440219.0,0
194,-2.0,-2.0,-14.0,-6.0,-6.0,-4.0,-1.0,-2.0,1651086838453185.0,0
195,0.0,1.0,-6.0,-1.0,-1.0,-1.0,-3.0,0.0,1651086838453185.0,0
196,0.0,0.0,-6.0,-11.0,-7.0,2.0,0.0,2.0,1651086838462182.0,0
197,-1.0,2.0,13.0,6.0,2.0,1.0,1.0,-1.0,1651086838462182.0,0
198,-1.0,1.0,-5.0,-2.0,4.0,0.0,-1.0,-1.0,1651086838477307.0,0
199,-2.0,-2.0,0.0,-15.0,-9.0,-2.0,0.0,-1.0,1651086838477307.0,0
200,1.0,5.0,2.0,11.0,-7.0,-2.0,-1.0,1.0,1651086838477307.0,0
201,0.0,-1.0,-23.0,-2.0,8.0,1.0,-1.0,0.0,1651086838477307.0,0
202,0.0,-2.0,-5.0,-4.0,-3.0,-3.0,-1.0,-1.0,1651086838499201.0,0
203,-2.0,1.0,7.0,1.0,-1.0,-1.0,1.0,1.0,1651086838499201.0,0
204,0.0,-1.0,0.0,-15.0,-16.0,-4.0,-1.0,0.0,1651086838500201.0,0
205,0.0,1.0,14.0,11.0,13.0,7.0,2.0,0.0,1651086838500201.0,0
206,-1.0,-1.0,6.0,1.0,8.0,1.0,1.0,-1.0,1651086838514362.0,0
207,-1.0,-3.0,-7.0,-2.0,-12.0,-7.0,-1.0,-2.0,1651086838514362.0,0
208,0.0,-2.0,1.0,0.0,11.0,6.0,1.0,0.0,1651086838515310.0,0
209,-2.0,4.0,7.0,0.0,-19.0,-9.0,-1.0,-3.0,1651086838515310.0,0
210,0.0,0.0,6.0,8.0,22.0,8.0,1.0,0.0,1651086838537266.0,0
211,-1.0,-12.0,-4.0,5.0,3.0,0.0,-1.0,-2.0,1651086838537266.0,0
212,-1.0,8.0,1.0,-10.0,-10.0,-4.0,-1.0,-3.0,1651086838537266.0,0
213,-1.0,-2.0,-15.0,4.0,2.0,-1.0,-1.0,-2.0,1651086838537266.0,0
214,-3.0,-8.0,7.0,-9.0,-13.0,-4.0,0.0,-2.0,1651086838560294.0,0
215,0.0,2.0,-6.0,2.0,-2.0,-3.0,-2.0,-1.0,1651086838560294.0,0
216,0.0,2.0,12.0,6.0,-3.0,0.0,-2.0,-2.0,1651086838560294.0,0
217,-3.0,-12.0,-13.0,-12.0,2.0,-1.0,-2.0,-2.0,1651086838560294.0,0
218,0.0,5.0,1.0,-2.0,0.0,2.0,3.0,3.0,1651086838574226.0,0
219,-1.0,-4.0,0.0,12.0,7.0,2.0,0.0,0.0,1651086838574226.0,0
220,0.0,-6.0,-8.0,-12.0,-8.0,-6.0,-2.0,-1.0,1651086838582394.0,0
221,0.0,6.0,17.0,6.0,0.0,0.0,1.0,2.0,1651086838582394.0,0
222,0.0,-5.0,-7.0,1.0,-2.0,-2.0,-2.0,0.0,1651086838597315.0,0
223,0.0,2.0,9.0,4.0,9.0,3.0,-1.0,-2.0,1651086838597315.0,0
224,1.0,1.0,-3.0,-2.0,-6.0,-4.0,0.0,1.0,1651086838597315.0,0
225,2.0,1.0,7.0,-1.0,2.0,2.0,-1.0,1.0,1651086838597315.0,0
226,-1.0,-5.0,-23.0,-8.0,-2.0,-1.0,-1.0,-1.0,1651086838619898.0,0
227,-1.0,1.0,4.0,3.0,-2.0,-2.0,1.0,1.0,1651086838619898.0,0
228,-2.0,-1.0,2.0,-2.0,-4.0,-3.0,-1.0,-1.0,1651086838619898.0,0
229,2.0,2.0,10.0,3.0,2.0,3.0,1.0,2.0,1651086838619898.0,0
230,2.0,-1.0,-14.0,-1.0,2.0,0.0,0.0,0.0,1651086838650358.0,0
231,0.0,-4.0,1.0,-5.0,-3.0,-1.0,-2.0,-1.0,1651086838650358.0,0
232,1.0,6.0,-1.0,-10.0,-21.0,-9.0,-3.0,-1.0,1651086838651215.0,0
233,-2.0,-1.0,-8.0,5.0,30.0,8.0,1.0,0.0,1651086838651215.0,0
234,-2.0,8.0,8.0,11.0,-3.0,-1.0,0.0,0.0,1651086838665328.0,0
235,-2.0,-9.0,29.0,12.0,11.0,5.0,1.0,0.0,1651086838665328.0,0
236,-1.0,-5.0,-20.0,-14.0,-4.0,1.0,0.0,0.0,1651086838666208.0,0
237,0.0,0.0,4.0,-9.0,-16.0,-6.0,-1.0,-2.0,1651086838666208.0,0
238,1.0,5.0,1.0,3.0,2.0,-1.0,1.0,-2.0,1651086838679876.0,0
239,-1.0,2.0,3.0,1.0,2.0,0.0,1.0,-1.0,1651086838679876.0,0
240,1.0,-2.0,6.0,5.0,6.0,1.0,-1.0,0.0,1651086838679876.0,0
241,-2.0,-4.0,-6.0,4.0,-9.0,-5.0,-3.0,-1.0,1651086838679876.0,0
242,-2.0,-3.0,-12.0,-11.0,0.0,2.0,-2.0,-1.0,1651086838694187.0,0
243,-1.0,2.0,-5.0,-5.0,-8.0,-3.0,-1.0,-2.0,1651086838694187.0,0
244,-1.0,-8.0,4.0,6.0,17.0,2.0,1.0,0.0,1651086838709218.0,0
245,-4.0,5.0,-5.0,-13.0,-7.0,-2.0,-1.0,-2.0,1651086838709218.0,0
246,-1.0,-3.0,16.0,11.0,-3.0,-4.0,-2.0,-3.0,1651086838717396.0,0
247,1.0,2.0,-13.0,-10.0,-6.0,-1.0,-2.0,0.0,1651086838717396.0,0
248,1.0,-1.0,-5.0,1.0,0.0,0.0,0.0,-1.0,1651086838717396.0,0
249,0.0,-3.0,-5.0,-1.0,-5.0,-3.0,0.0,0.0,1651086838717396.0,0
250,1.0,0.0,16.0,9.0,5.0,2.0,-1.0,-1.0,1651086838740315.0,0
251,0.0,8.0,6.0,-1.0,5.0,3.0,1.0,1.0,1651086838740315.0,0
252,-2.0,-11.0,-17.0,-11.0,-5.0,-3.0,-3.0,-2.0,1651086838740315.0,0
253,1.0,-3.0,-8.0,-3.0,-1.0,-4.0,-2.0,-3.0,1651086838740315.0,0
254,-1.0,3.0,8.0,-4.0,-7.0,-2.0,-2.0,-2.0,1651086838754362.0,0
255,-2.0,-3.0,-20.0,3.0,1.0,0.0,0.0,0.0,1651086838754362.0,0
256,-1.0,3.0,10.0,3.0,0.0,2.0,2.0,-2.0,1651086838762227.0,0
257,1.0,-7.0,-2.0,-2.0,-3.0,1.0,0.0,1.0,1651086838762227.0,0
258,-1.0,6.0,8.0,-4.0,-7.0,-4.0,0.0,-1.0,1651086838785520.0,0
259,0.0,1.0,-2.0,-4.0,-3.0,-3.0,-2.0,-3.0,1651086838785520.0,0
260,-3.0,-1.0,2.0,2.0,3.0,2.0,1.0,-1.0,1651086838785520.0,0
261,1.0,-2.0,1.0,3.0,-2.0,0.0,2.0,0.0,1651086838785520.0,0
262,1.0,-2.0,4.0,4.0,8.0,3.0,2.0,3.0,1651086838799386.0,0
263,-1.0,-1.0,-9.0,1.0,2.0,-2.0,-1.0,-1.0,1651086838799386.0,0
264,0.0,1.0,-11.0,-5.0,-5.0,0.0,0.0,0.0,1651086838800342.0,0
265,-1.0,0.0,7.0,7.0,1.0,0.0,0.0,0.0,1651086838800342.0,0
266,-2.0,-3.0,-2.0,-11.0,-4.0,-1.0,0.0,-1.0,1651086838813308.0,0
267,1.0,-3.0,-2.0,-10.0,-4.0,1.0,4.0,1.0,1651086838813308.0,0
268,0.0,2.0,16.0,26.0,8.0,1.0,-2.0,0.0,1651086838822619.0,0
269,-2.0,1.0,-17.0,-9.0,-2.0,-1.0,-1.0,-2.0,1651086838822619.0,0
270,1.0,-2.0,1.0,-3.0,-9.0,-4.0,-3.0,0.0,1651086838845228.0,0
271,0.0,-1.0,-4.0,-2.0,5.0,1.0,-2.0,-1.0,1651086838845228.0,0
272,2.0,6.0,4.0,-1.0,-4.0,-2.0,1.0,1.0,1651086838846258.0,0
273,-3.0,-6.0,-2.0,1.0,5.0,1.0,-1.0,-2.0,1651086838846258.0,0
274,-1.0,0.0,3.0,0.0,-1.0,-2.0,1.0,-2.0,1651086838859242.0,0
275,0.0,-1.0,-4.0,-2.0,-4.0,0.0,-1.0,0.0,1651086838859242.0,0
276,-3.0,-3.0,0.0,7.0,3.0,0.0,0.0,-2.0,1651086838860242.0,0
277,1.0,1.0,6.0,1.0,0.0,2.0,-1.0,2.0,1651086838860242.0,0
278,0.0,3.0,-1.0,1.0,-6.0,-4.0,-1.0,-1.0,1651086838874595.0,0
279,-1.0,1.0,-1.0,-4.0,3.0,3.0,1.0,1.0,1651086838874595.0,0
280,2.0,0.0,4.0,1.0,2.0,0.0,1.0,-1.0,1651086838882499.0,0
281,-2.0,-8.0,-2.0,-9.0,-8.0,-4.0,-3.0,1.0,1651086838882499.0,0
282,0.0,9.0,-2.0,0.0,5.0,2.0,1.0,-1.0,1651086838898568.0,0
283,-2.0,-4.0,12.0,11.0,10.0,1.0,-1.0,-1.0,1651086838898568.0,0
284,-2.0,2.0,0.0,-4.0,-2.0,1.0,0.0,-1.0,1651086838898568.0,0
285,0.0,-1.0,6.0,-3.0,-4.0,-2.0,1.0,-2.0,1651086838898568.0,0
286,1.0,-2.0,3.0,0.0,4.0,0.0,0.0,0.0,1651086838920345.0,0
287,-1.0,0.0,-9.0,9.0,4.0,-2.0,1.0,-1.0,1651086838920345.0,0
288,-1.0,-6.0,-5.0,-12.0,-7.0,-2.0,-1.0,0.0,1651086838920345.0,0
289,0.0,6.0,-4.0,3.0,14.0,2.0,0.0,0.0,1651086838920345.0,0
290,-1.0,-5.0,-5.0,-4.0,-8.0,-4.0,-4.0,-3.0,1651086838943152.0,0
291,-1.0,0.0,-7.0,-11.0,-15.0,-4.0,-1.0,-2.0,1651086838943152.0,0
292,-1.0,-4.0,1.0,10.0,12.0,1.0,1.0,1.0,1651086838943152.0,0
293,1.0,2.0,11.0,2.0,-1.0,2.0,0.0,1.0,1651086838943152.0,0
294,1.0,-1.0,0.0,-6.0,-10.0,-5.0,-1.0,-2.0,1651086838957394.0,0
295,1.0,-3.0,-6.0,0.0,8.0,3.0,-2.0,-1.0,1651086838957394.0,0
296,1.0,3.0,-1.0,-6.0,-7.0,-3.0,0.0,0.0,1651086838957394.0,0
297,-2.0,2.0,3.0,1.0,-3.0,0.0,0.0,-2.0,1651086838957394.0,0
298,-2.0,-7.0,-18.0,-2.0,7.0,4.0,1.0,2.0,1651086838979662.0,0
299,0.0,-1.0,15.0,-4.0,-14.0,-7.0,-1.0,1.0,1651086838979662.0,0
300,1.0,0.0,-9.0,-8.0,-4.0,-2.0,-2.0,0.0,1651086838979662.0,0
301,0.0,6.0,0.0,2.0,3.0,-2.0,-2.0,0.0,1651086838979662.0,0
302,-2.0,-6.0,1.0,-1.0,-2.0,1.0,0.0,-1.0,1651086839003162.0,0
303,2.0,1.0,-10.0,10.0,1.0,2.0,-1.0,1.0,1651086839003162.0,0
304,-1.0,-3.0,-17.0,-1.0,1.0,0.0,0.0,0.0,1651086839003162.0,0
305,0.0,-3.0,2.0,-14.0,-1.0,-2.0,1.0,0.0,1651086839003162.0,0
306,-2.0,-4.0,13.0,24.0,1.0,0.0,-1.0,-3.0,1651086839017397.0,0
307,-3.0,4.0,24.0,-23.0,-3.0,-1.0,-1.0,0.0,1651086839017397.0,0
308,-2.0,-2.0,-12.0,7.0,0.0,2.0,0.0,0.0,1651086839017397.0,0
309,0.0,4.0,-4.0,26.0,4.0,3.0,0.0,0.0,1651086839017397.0,0
310,0.0,0.0,19.0,4.0,5.0,3.0,2.0,1.0,1651086839040280.0,0
311,-3.0,-3.0,-26.0,-34.0,-8.0,-2.0,-2.0,-1.0,1651086839040280.0,0
312,-4.0,2.0,19.0,11.0,3.0,1.0,1.0,-4.0,1651086839040280.0,0
313,4.0,-4.0,13.0,19.0,5.0,2.0,2.0,25.0,1651086839040280.0,0
314,-6.0,1.0,-2.0,4.0,-13.0,-9.0,-5.0,-27.0,1651086839062219.0,0
315,5.0,-5.0,-6.0,-7.0,-4.0,-2.0,-2.0,-1.0,1651086839062219.0,0
316,-10.0,3.0,4.0,-14.0,-2.0,-5.0,-3.0,10.0,1651086839063217.0,0
317,-6.0,0.0,-2.0,-6.0,0.0,7.0,3.0,-7.0,1651086839063217.0,0
318,-4.0,-2.0,-47.0,-44.0,3.0,4.0,2.0,9.0,1651086839077249.0,0
319,-1.0,-3.0,36.0,55.0,7.0,-1.0,0.0,15.0,1651086839077249.0,0
320,-18.0,-4.0,-43.0,-27.0,-16.0,-14.0,-10.0,-28.0,1651086839077249.0,0
321,-8.0,3.0,9.0,22.0,13.0,5.0,-5.0,-3.0,1651086839077249.0,0
322,-1.0,-7.0,-30.0,-48.0,-23.0,-9.0,5.0,21.0,1651086839100403.0,0
323,1.0,-2.0,-3.0,17.0,-3.0,1.0,-5.0,-16.0,1651086839100403.0,0
324,-1.0,-8.0,-28.0,-13.0,10.0,7.0,0.0,-6.0,1651086839100403.0,0
325,-8.0,-4.0,-50.0,-50.0,-20.0,-10.0,-6.0,-19.0,1651086839100403.0,0
326,-3.0,7.0,30.0,43.0,10.0,2.0,-3.0,-7.0,1651086839123226.0,0
327,15.0,2.0,14.0,4.0,4.0,-1.0,4.0,33.0,1651086839123226.0,0
328,-12.0,2.0,48.0,26.0,-2.0,-1.0,0.0,13.0,1651086839123226.0,0
329,-7.0,-1.0,-4.0,-15.0,-8.0,-7.0,-6.0,-12.0,1651086839123226.0,0
330,51.0,-1.0,-1.0,-23.0,8.0,4.0,1.0,11.0,1651086839138309.0,0
331,-15.0,6.0,6.0,22.0,-7.0,-2.0,-4.0,-1.0,1651086839138309.0,1
332,10.0,6.0,6.0,43.0,8.0,5.0,2.0,2.0,1651086839144378.0,1
333,8.0,-9.0,-4.0,-70.0,-14.0,-1.0,4.0,11.0,1651086839144378.0,1
334,-31.0,5.0,27.0,26.0,1.0,-3.0,-3.0,0.0,1651086839159236.0,1
335,19.0,-5.0,-20.0,-17.0,0.0,3.0,2.0,-18.0,1651086839159236.0,1
336,-5.0,4.0,-5.0,16.0,0.0,-1.0,-3.0,1.0,1651086839160236.0,1
337,-3.0,-6.0,26.0,-14.0,-6.0,-2.0,0.0,-22.0,1651086839160236.0,1
338,-4.0,-11.0,-66.0,-9.0,10.0,6.0,1.0,-13.0,1651086839183375.0,1
339,-3.0,10.0,-2.0,-23.0,1.0,3.0,7.0,1.0,1651086839183375.0,1
340,-8.0,-8.0,39.0,14.0,-5.0,-7.0,-7.0,-23.0,1651086839183375.0,1
341,27.0,7.0,-9.0,54.0,17.0,8.0,8.0,23.0,1651086839183375.0,1
342,-34.0,-10.0,42.0,4.0,-4.0,-2.0,-2.0,13.0,1651086839198131.0,1
343,-7.0,1.0,-22.0,-38.0,-3.0,-3.0,-1.0,-11.0,1651086839198131.0,1
344,32.0,3.0,-3.0,7.0,3.0,-2.0,1.0,31.0,1651086839205247.0,1
345,-2.0,6.0,8.0,9.0,-2.0,-1.0,3.0,8.0,1651086839205247.0,1
346,9.0,-10.0,-16.0,15.0,1.0,2.0,-6.0,-11.0,1651086839221427.0,1
347,5.0,4.0,3.0,13.0,4.0,-8.0,-9.0,-30.0,1651086839221427.0,1
348,-6.0,4.0,38.0,7.0,-2.0,-2.0,-1.0,-34.0,1651086839221427.0,1
349,1.0,-7.0,-23.0,-64.0,-15.0,-2.0,1.0,14.0,1651086839221427.0,1
350,-11.0,9.0,17.0,18.0,6.0,7.0,3.0,9.0,1651086839243227.0,1
351,-12.0,-4.0,35.0,10.0,3.0,-3.0,-3.0,-2.0,1651086839243227.0,1
352,-12.0,-3.0,-28.0,13.0,5.0,1.0,2.0,-10.0,1651086839244226.0,1
353,13.0,7.0,-5.0,31.0,6.0,0.0,5.0,-2.0,1651086839244226.0,1
354,-24.0,9.0,11.0,-29.0,-3.0,-2.0,-8.0,-35.0,1651086839257471.0,1
355,-2.0,2.0,31.0,51.0,9.0,3.0,1.0,-2.0,1651086839257471.0,1
356,2.0,-3.0,8.0,-32.0,-13.0,-2.0,2.0,35.0,1651086839257471.0,1
357,-2.0,-2.0,-23.0,14.0,4.0,-1.0,-5.0,-15.0,1651086839257471.0,1
358,-4.0,-12.0,-38.0,-19.0,-9.0,-4.0,4.0,26.0,1651086839279594.0,1
359,14.0,-3.0,-59.0,-60.0,-8.0,2.0,-2.0,-3.0,1651086839279594.0,1
360,-8.0,5.0,15.0,-5.0,6.0,5.0,2.0,15.0,1651086839280491.0,1
361,-30.0,1.0,50.0,85.0,10.0,-9.0,-3.0,-4.0,1651086839280491.0,1
362,44.0,9.0,23.0,-25.0,-4.0,5.0,-12.0,-37.0,1651086839302644.0,1
363,-23.0,-11.0,-46.0,5.0,-6.0,2.0,-12.0,-10.0,1651086839302644.0,1
364,25.0,10.0,25.0,-20.0,2.0,0.0,25.0,22.0,1651086839303062.0,1
365,10.0,1.0,-7.0,-11.0,-4.0,39.0,9.0,39.0,1651086839303062.0,1
366,-19.0,4.0,29.0,17.0,18.0,2.0,1.0,19.0,1651086839317699.0,1
367,-35.0,-3.0,31.0,34.0,8.0,2.0,0.0,-49.0,1651086839317699.0,1
368,8.0,-10.0,-58.0,-72.0,-11.0,-6.0,-11.0,4.0,1651086839317699.0,1
369,-2.0,7.0,73.0,43.0,1.0,-2.0,4.0,-36.0,1651086839317699.0,1
370,-1.0,3.0,18.0,26.0,-4.0,-1.0,5.0,4.0,1651086839339927.0,1
371,-5.0,-16.0,-76.0,-44.0,-3.0,2.0,6.0,34.0,1651086839339927.0,1
372,-36.0,-5.0,-26.0,-36.0,-5.0,-5.0,-6.0,-8.0,1651086839339927.0,1
373,34.0,0.0,-31.0,14.0,11.0,-9.0,-4.0,-5.0,1651086839339927.0,1
374,-22.0,6.0,80.0,43.0,3.0,-1.0,6.0,14.0,1651086839362315.0,1
375,17.0,-6.0,-14.0,-25.0,-13.0,-4.0,-7.0,-5.0,1651086839362315.0,1
376,7.0,-14.0,-51.0,-49.0,-6.0,5.0,0.0,-16.0,1651086839362315.0,1
377,39.0,1.0,-18.0,-15.0,-13.0,-15.0,-10.0,4.0,1651086839362315.0,1
378,-30.0,1.0,8.0,12.0,-4.0,0.0,0.0,-17.0,1651086839377542.0,1
379,7.0,6.0,43.0,19.0,11.0,-7.0,-3.0,20.0,1651086839377542.0,1
380,-1.0,4.0,56.0,74.0,-5.0,1.0,-1.0,-25.0,1651086839377542.0,1
381,-28.0,0.0,-47.0,-62.0,-6.0,6.0,4.0,-8.0,1651086839377542.0,1
382,34.0,-9.0,-39.0,-3.0,5.0,-6.0,-14.0,16.0,1651086839400296.0,1
383,2.0,0.0,-12.0,-13.0,-15.0,-13.0,3.0,8.0,1651086839400296.0,1
384,-4.0,6.0,67.0,59.0,13.0,28.0,19.0,6.0,1651086839400296.0,1
385,-16.0,1.0,10.0,-9.0,-3.0,-8.0,-6.0,-28.0,1651086839400296.0,1
386,6.0,-2.0,26.0,7.0,-7.0,-5.0,-1.0,-20.0,1651086839422538.0,1
387,32.0,4.0,-31.0,-14.0,14.0,9.0,3.0,25.0,1651086839422538.0,1
388,17.0,-6.0,-14.0,-4.0,-7.0,-12.0,-8.0,8.0,1651086839422538.0,1
389,-22.0,17.0,102.0,49.0,21.0,7.0,3.0,-16.0,1651086839422538.0,1
390,6.0,-11.0,-38.0,-32.0,-8.0,-7.0,7.0,27.0,1651086839437314.0,1
391,-11.0,3.0,46.0,38.0,5.0,3.0,-3.0,-5.0,1651086839437314.0,1
392,2.0,3.0,20.0,-31.0,-3.0,-4.0,-4.0,5.0,1651086839437314.0,1
393,6.0,-13.0,-71.0,-25.0,-14.0,-13.0,-7.0,6.0,1651086839437314.0,1
394,16.0,9.0,-57.0,-43.0,-4.0,2.0,-1.0,-13.0,1651086839460117.0,1
395,-28.0,-2.0,88.0,30.0,11.0,5.0,0.0,-3.0,1651086839460117.0,1
396,-1.0,11.0,5.0,14.0,2.0,-6.0,-10.0,-3.0,1651086839460117.0,1
397,-38.0,-10.0,-44.0,-39.0,-6.0,-4.0,-3.0,27.0,1651086839460117.0,1
398,32.0,5.0,17.0,26.0,5.0,1.0,-1.0,-18.0,1651086839482676.0,1
399,-4.0,-6.0,-33.0,-56.0,-29.0,-10.0,4.0,11.0,1651086839482676.0,1
400,18.0,-4.0,-10.0,-5.0,6.0,-2.0,-4.0,-28.0,1651086839483061.0,1
401,3.0,3.0,72.0,49.0,8.0,7.0,-8.0,-28.0,1651086839483061.0,1
402,-15.0,-4.0,-66.0,-56.0,-14.0,-15.0,-11.0,0.0,1651086839496759.0,1
403,18.0,12.0,-2.0,-16.0,6.0,10.0,9.0,4.0,1651086839496759.0,1
404,-25.0,-3.0,3.0,-5.0,7.0,17.0,13.0,-13.0,1651086839505181.0,1
405,14.0,-2.0,-28.0,5.0,-12.0,-9.0,-3.0,10.0,1651086839505181.0,1
406,-2.0,0.0,48.0,41.0,12.0,5.0,-1.0,-1.0,1651086839520264.0,1
407,22.0,3.0,-43.0,-6.0,-7.0,1.0,3.0,6.0,1651086839520264.0,1
408,26.0,-10.0,-32.0,-4.0,1.0,-6.0,-5.0,18.0,1651086839520264.0,1
409,-10.0,-1.0,23.0,-4.0,5.0,3.0,7.0,-4.0,1651086839520264.0,1
410,11.0,8.0,28.0,3.0,3.0,2.0,2.0,8.0,1651086839550374.0,1
411,-2.0,-3.0,-6.0,23.0,-6.0,-4.0,-5.0,-33.0,1651086839550374.0,1
412,-7.0,-3.0,-38.0,-28.0,-2.0,-1.0,-5.0,-5.0,1651086839551226.0,1
413,-5.0,-5.0,-6.0,-44.0,-3.0,0.0,1.0,10.0,1651086839551226.0,1
414,-4.0,0.0,29.0,-13.0,-10.0,-7.0,-5.0,-16.0,1651086839556247.0,1
415,-25.0,-7.0,70.0,42.0,11.0,-8.0,-5.0,-17.0,1651086839556247.0,1
416,12.0,20.0,7.0,-9.0,-1.0,0.0,4.0,24.0,1651086839565318.0,1
417,14.0,5.0,-47.0,-10.0,0.0,7.0,2.0,-3.0,1651086839565318.0,1
418,-23.0,-10.0,-36.0,-20.0,0.0,2.0,1.0,-26.0,1651086839579879.0,1
419,-2.0,3.0,20.0,-3.0,2.0,-3.0,2.0,11.0,1651086839579879.0,1
420,-8.0,-22.0,-61.0,-6.0,-8.0,-5.0,-6.0,-7.0,1651086839579879.0,1
421,-13.0,2.0,75.0,41.0,8.0,-4.0,-3.0,3.0,1651086839579879.0,1
422,-3.0,5.0,-38.0,15.0,-5.0,6.0,11.0,20.0,1651086839603192.0,1
423,20.0,2.0,21.0,28.0,1.0,-2.0,-4.0,-2.0,1651086839603192.0,1
424,7.0,3.0,18.0,1.0,-2.0,-4.0,0.0,7.0,1651086839603192.0,1
425,6.0,1.0,-10.0,-4.0,-2.0,-6.0,-3.0,-15.0,1651086839603192.0,1
426,13.0,-13.0,-18.0,8.0,6.0,8.0,0.0,8.0,1651086839616303.0,1
427,-1.0,12.0,-6.0,4.0,-2.0,4.0,4.0,17.0,1651086839616303.0,1
428,10.0,3.0,40.0,-22.0,2.0,4.0,2.0,-4.0,1651086839625317.0,1
429,-3.0,-14.0,-13.0,7.0,5.0,1.0,2.0,1.0,1651086839625317.0,1
430,2.0,6.0,-6.0,10.0,-1.0,-14.0,-11.0,-14.0,1651086839639313.0,1
431,3.0,-4.0,18.0,4.0,-7.0,0.0,1.0,34.0,1651086839639313.0,1
432,-17.0,3.0,2.0,45.0,2.0,-4.0,-19.0,-52.0,1651086839640181.0,1
433,19.0,0.0,23.0,0.0,-6.0,-2.0,8.0,24.0,1651086839640181.0,1
434,-11.0,13.0,46.0,9.0,10.0,8.0,0.0,8.0,1651086839662207.0,1
435,-30.0,-4.0,-7.0,16.0,4.0,-9.0,-7.0,-14.0,1651086839662207.0,1
436,8.0,-8.0,-35.0,-35.0,-8.0,8.0,13.0,22.0,1651086839663204.0,1
437,-5.0,-9.0,-6.0,-16.0,-9.0,-2.0,-7.0,-17.0,1651086839663204.0,1
438,4.0,-3.0,1.0,-6.0,1.0,0.0,5.0,9.0,1651086839677295.0,1
439,23.0,5.0,-16.0,-7.0,5.0,1.0,-3.0,-9.0,1651086839677295.0,1
440,-4.0,12.0,46.0,17.0,8.0,1.0,-2.0,11.0,1651086839685274.0,1
441,-12.0,2.0,19.0,30.0,5.0,5.0,6.0,22.0,1651086839685274.0,1
442,15.0,-1.0,-22.0,-20.0,-4.0,1.0,3.0,3.0,1651086839700325.0,1
443,4.0,-14.0,-32.0,-9.0,-7.0,2.0,1.0,-11.0,1651086839700325.0,1
444,-14.0,2.0,18.0,-15.0,-11.0,-9.0,-4.0,-4.0,1651086839700325.0,1
445,17.0,14.0,-30.0,10.0,-1.0,-1.0,1.0,1.0,1651086839700325.0,1
446,10.0,-9.0,3.0,-14.0,-2.0,-2.0,0.0,14.0,1651086839722320.0,1
447,-4.0,-2.0,36.0,-50.0,-8.0,1.0,3.0,0.0,1651086839722320.0,1
448,5.0,4.0,-19.0,47.0,8.0,5.0,5.0,4.0,1651086839723202.0,1
449,-18.0,-14.0,-15.0,-12.0,-9.0,-10.0,-10.0,-21.0,1651086839723202.0,1
450,-29.0,-9.0,5.0,-5.0,-9.0,-2.0,2.0,3.0,1651086839737286.0,1
451,9.0,0.0,-23.0,-23.0,-7.0,-2.0,2.0,3.0,1651086839737286.0,1
452,-13.0,-5.0,-11.0,9.0,-6.0,-7.0,-3.0,-25.0,1651086839744277.0,1
453,-3.0,3.0,14.0,-29.0,6.0,3.0,-4.0,9.0,1651086839744277.0,1
454,-3.0,9.0,18.0,51.0,6.0,9.0,6.0,-8.0,1651086839760340.0,1
455,1.0,3.0,-71.0,-26.0,-1.0,14.0,4.0,13.0,1651086839760340.0,1
456,-17.0,-11.0,8.0,-5.0,1.0,-6.0,-13.0,-9.0,1651086839760340.0,1
457,6.0,-2.0,30.0,30.0,1.0,-4.0,1.0,7.0,1651086839760340.0,1
458,-7.0,-6.0,49.0,2.0,4.0,-4.0,-3.0,-1.0,1651086839782792.0,1
459,7.0,5.0,-42.0,-8.0,-7.0,-5.0,1.0,-6.0,1651086839782792.0,1
460,3.0,-5.0,10.0,-50.0,-7.0,1.0,-1.0,-1.0,1651086839783063.0,1
461,-11.0,-6.0,-19.0,9.0,1.0,-2.0,-7.0,-8.0,1651086839783063.0,1
462,15.0,2.0,-17.0,-24.0,-2.0,-1.0,0.0,8.0,1651086839796732.0,1
463,-1.0,7.0,23.0,20.0,-1.0,0.0,2.0,-1.0,1651086839796732.0,1
464,-1.0,-1.0,5.0,-8.0,8.0,8.0,8.0,30.0,1651086839804204.0,1
465,6.0,-6.0,-46.0,-15.0,-11.0,-2.0,-1.0,-7.0,1651086839804204.0,1
466,4.0,-1.0,-17.0,1.0,-4.0,-7.0,-5.0,6.0,1651086839819849.0,1
467,6.0,9.0,49.0,46.0,13.0,2.0,-3.0,-21.0,1651086839819849.0,1
468,6.0,1.0,29.0,51.0,8.0,6.0,4.0,7.0,1651086839819849.0,1
469,-6.0,-8.0,-23.0,-18.0,0.0,-6.0,-4.0,9.0,1651086839819849.0,1
470,8.0,2.0,-9.0,-8.0,-2.0,-4.0,6.0,10.0,1651086839842107.0,1
471,-45.0,-6.0,8.0,4.0,9.0,2.0,-18.0,-33.0,1651086839842107.0,1
472,13.0,-1.0,-28.0,-22.0,-4.0,3.0,11.0,32.0,1651086839842990.0,1
473,11.0,0.0,39.0,17.0,11.0,-2.0,-9.0,-14.0,1651086839842990.0,1
474,-16.0,-12.0,-22.0,-19.0,-12.0,-13.0,-9.0,-6.0,1651086839865041.0,1
475,2.0,-6.0,-4.0,-8.0,-1.0,-9.0,-10.0,7.0,1651086839865041.0,1
476,-10.0,-4.0,-32.0,-40.0,-2.0,8.0,9.0,-15.0,1651086839865966.0,1
477,48.0,25.0,42.0,49.0,-6.0,-3.0,1.0,21.0,1651086839865966.0,1
478,-2.0,2.0,-56.0,2.0,9.0,1.0,-1.0,10.0,1651086839878931.0,1
479,29.0,7.0,12.0,15.0,2.0,0.0,6.0,14.0,1651086839878931.0,1
480,-17.0,-15.0,-8.0,-9.0,-8.0,-10.0,-15.0,-28.0,1651086839879951.0,1
481,-11.0,-9.0,-18.0,-22.0,-4.0,2.0,4.0,2.0,1651086839879951.0,1
482,15.0,20.0,65.0,41.0,1.0,4.0,0.0,1.0,1651086839902122.0,1
483,-9.0,-20.0,-29.0,-33.0,-12.0,-5.0,5.0,9.0,1651086839902122.0,1
484,0.0,6.0,-62.0,-21.0,-6.0,-7.0,-6.0,-11.0,1651086839903042.0,1
485,-4.0,-14.0,-32.0,5.0,3.0,1.0,3.0,-11.0,1651086839903042.0,1
486,-8.0,-1.0,-5.0,-9.0,-3.0,4.0,7.0,31.0,1651086839925200.0,1
487,-5.0,-5.0,4.0,-5.0,-6.0,-1.0,-3.0,-9.0,1651086839925200.0,1
488,7.0,11.0,53.0,41.0,11.0,3.0,10.0,27.0,1651086839926101.0,1
489,22.0,-7.0,-17.0,-44.0,-6.0,-3.0,-8.0,-27.0,1651086839926101.0,1
490,-16.0,1.0,4.0,24.0,5.0,3.0,2.0,-1.0,1651086839939871.0,1
491,-5.0,12.0,-7.0,10.0,1.0,1.0,8.0,19.0,1651086839939871.0,1
492,-2.0,-4.0,51.0,36.0,1.0,1.0,-4.0,-18.0,1651086839939871.0,1
493,-4.0,12.0,-32.0,-8.0,9.0,5.0,9.0,20.0,1651086839939871.0,1
494,-5.0,-17.0,-28.0,-24.0,-9.0,-3.0,-7.0,-16.0,1651086839961817.0,1
495,5.0,-7.0,35.0,-24.0,-13.0,-4.0,1.0,10.0,1651086839961817.0,1
496,8.0,7.0,-32.0,-12.0,-2.0,-4.0,-1.0,6.0,1651086839962816.0,1
497,-31.0,-11.0,-43.0,-39.0,-14.0,-5.0,-1.0,4.0,1651086839962816.0,1
498,2.0,-9.0,-19.0,-8.0,-1.0,0.0,-8.0,-50.0,1651086839985189.0,1
499,5.0,8.0,-12.0,18.0,8.0,7.0,12.0,52.0,1651086839985189.0,1
500,16.0,-1.0,-25.0,3.0,1.0,0.0,-8.0,-3.0,1651086839986187.0,1
501,-28.0,4.0,10.0,-5.0,-3.0,1.0,3.0,20.0,1651086839986187.0,1
502,1.0,-1.0,16.0,26.0,5.0,0.0,-3.0,-38.0,1651086839999531.0,1
503,-4.0,-5.0,-29.0,-6.0,0.0,3.0,6.0,24.0,1651086839999531.0,1
504,12.0,-1.0,28.0,17.0,9.0,2.0,-3.0,-21.0,1651086840000434.0,1
505,-12.0,3.0,36.0,9.0,2.0,0.0,-1.0,-8.0,1651086840000434.0,1
506,7.0,2.0,-8.0,-7.0,-7.0,-3.0,-2.0,13.0,1651086840022211.0,1
507,-14.0,-6.0,-5.0,-2.0,1.0,-2.0,-3.0,-16.0,1651086840022211.0,1
508,3.0,-6.0,-57.0,-6.0,-7.0,-4.0,-2.0,8.0,1651086840022211.0,1
509,4.0,-4.0,11.0,-12.0,7.0,4.0,0.0,-15.0,1651086840022211.0,1
510,26.0,12.0,-2.0,20.0,2.0,4.0,9.0,19.0,1651086840045105.0,1
511,-9.0,-1.0,29.0,29.0,2.0,-2.0,-5.0,-8.0,1651086840045105.0,1
512,-5.0,3.0,-38.0,-67.0,-14.0,-3.0,4.0,8.0,1651086840046104.0,1
513,4.0,8.0,27.0,60.0,4.0,-1.0,-2.0,3.0,1651086840046104.0,1
514,-11.0,-6.0,12.0,-24.0,1.0,0.0,-4.0,17.0,1651086840059391.0,1
515,-12.0,-7.0,-44.0,3.0,13.0,6.0,1.0,-23.0,1651086840059391.0,1
516,-20.0,-5.0,-25.0,-8.0,-11.0,-4.0,0.0,-1.0,1651086840060233.0,1
517,-17.0,-7.0,1.0,-44.0,-17.0,-6.0,-5.0,7.0,1651086840060233.0,1
518,16.0,-1.0,-10.0,3.0,6.0,1.0,-3.0,-26.0,1651086840082550.0,1
519,3.0,3.0,50.0,15.0,-4.0,-2.0,2.0,-2.0,1651086840082550.0,1
520,1.0,3.0,16.0,9.0,1.0,-2.0,-7.0,3.0,1651086840083108.0,1
521,4.0,1.0,15.0,25.0,5.0,1.0,-2.0,-1.0,1651086840083108.0,1
522,-11.0,-9.0,-25.0,-20.0,-6.0,-1.0,4.0,3.0,1651086840105302.0,1
523,26.0,7.0,-24.0,-25.0,1.0,0.0,-2.0,5.0,1651086840105302.0,1
524,-1.0,0.0,37.0,39.0,3.0,0.0,2.0,-5.0,1651086840106135.0,1
525,15.0,6.0,16.0,-13.0,-1.0,4.0,9.0,14.0,1651086840106135.0,1
526,5.0,-14.0,-20.0,4.0,-4.0,-5.0,-5.0,2.0,1651086840120236.0,1
527,1.0,6.0,32.0,15.0,4.0,-3.0,-4.0,-8.0,1651086840120236.0,1
528,3.0,-17.0,18.0,17.0,-3.0,1.0,16.0,1.0,1651086840120236.0,1
529,-7.0,33.0,-14.0,16.0,12.0,3.0,-9.0,1.0,1651086840120236.0,1
530,-17.0,-15.0,8.0,-11.0,-9.0,-4.0,-2.0,-14.0,1651086840142179.0,1
531,-26.0,4.0,17.0,-9.0,-5.0,-4.0,-5.0,-12.0,1651086840142179.0,1
532,30.0,10.0,5.0,7.0,7.0,6.0,0.0,17.0,1651086840142179.0,1
533,-17.0,-3.0,18.0,2.0,2.0,0.0,4.0,4.0,1651086840142179.0,1
534,8.0,9.0,15.0,15.0,6.0,2.0,1.0,2.0,1651086840165358.0,1
535,-14.0,1.0,-23.0,-29.0,-7.0,-5.0,-7.0,-30.0,1651086840165358.0,1
536,-1.0,-10.0,-1.0,22.0,-4.0,-6.0,-8.0,-3.0,1651086840166232.0,1
537,19.0,-5.0,5.0,9.0,5.0,5.0,4.0,-10.0,1651086840166232.0,1
538,-3.0,5.0,-45.0,-40.0,-15.0,-7.0,-6.0,2.0,1651086840179887.0,1
539,-14.0,-8.0,-12.0,-7.0,-1.0,2.0,5.0,0.0,1651086840179887.0,1
540,8.0,0.0,3.0,3.0,7.0,1.0,-2.0,14.0,1651086840179887.0,1
541,13.0,-7.0,19.0,-8.0,-10.0,-6.0,1.0,8.0,1651086840179887.0,1
542,-7.0,11.0,21.0,-4.0,-1.0,2.0,-4.0,-1.0,1651086840202281.0,1
543,-1.0,-12.0,7.0,12.0,4.0,4.0,4.0,1.0,1651086840202281.0,1
544,-16.0,-3.0,-22.0,-2.0,-1.0,-4.0,-1.0,-3.0,1651086840203093.0,1
545,0.0,-2.0,60.0,31.0,11.0,2.0,-6.0,2.0,1651086840203093.0,1
546,4.0,10.0,42.0,25.0,4.0,2.0,1.0,-6.0,1651086840225197.0,1
547,6.0,0.0,-11.0,-43.0,-7.0,-1.0,-5.0,-44.0,1651086840225197.0,1
548,10.0,12.0,20.0,6.0,3.0,5.0,5.0,23.0,1651086840226225.0,1
549,-13.0,-16.0,-22.0,-17.0,-2.0,-2.0,-1.0,-10.0,1651086840226225.0,1
550,-23.0,-14.0,10.0,0.0,7.0,1.0,-1.0,-23.0,1651086840239855.0,1
551,25.0,11.0,4.0,2.0,-4.0,-3.0,-3.0,14.0,1651086840239855.0,1
552,-12.0,6.0,43.0,15.0,0.0,-1.0,1.0,-4.0,1651086840239855.0,1
553,-41.0,-2.0,-38.0,-18.0,-1.0,3.0,6.0,-4.0,1651086840239855.0,1
554,30.0,-5.0,-25.0,-1.0,4.0,4.0,6.0,10.0,1651086840262218.0,1
555,0.0,0.0,16.0,14.0,7.0,2.0,0.0,2.0,1651086840262218.0,1
556,-13.0,-10.0,-7.0,-16.0,-10.0,-3.0,-7.0,-20.0,1651086840262218.0,1
557,-22.0,-8.0,-6.0,21.0,-2.0,-6.0,-4.0,-7.0,1651086840262218.0,1
558,8.0,2.0,4.0,-28.0,-4.0,0.0,-4.0,11.0,1651086840285238.0,1
559,-3.0,3.0,-19.0,-23.0,-6.0,-3.0,1.0,0.0,1651086840285238.0,1
560,-9.0,5.0,20.0,16.0,6.0,1.0,3.0,9.0,1651086840286235.0,1
561,25.0,-4.0,-13.0,-2.0,5.0,5.0,-1.0,-1.0,1651086840286235.0,1
562,-37.0,-2.0,36.0,10.0,-12.0,-4.0,-1.0,-40.0,1651086840299204.0,1
563,13.0,-4.0,2.0,2.0,-7.0,-7.0,-6.0,-2.0,1651086840299204.0,1
564,15.0,13.0,23.0,-18.0,-4.0,-1.0,2.0,1.0,1651086840300166.0,1
565,-4.0,-15.0,-39.0,-60.0,-16.0,-8.0,-2.0,-3.0,1651086840300166.0,1
566,4.0,14.0,36.0,70.0,6.0,-3.0,2.0,21.0,1651086840322386.0,1
567,-32.0,-8.0,15.0,-22.0,-5.0,0.0,2.0,-4.0,1651086840322386.0,1
568,32.0,-6.0,-9.0,1.0,4.0,0.0,-1.0,14.0,1651086840323063.0,1
569,-9.0,14.0,7.0,32.0,2.0,2.0,0.0,1.0,1651086840323063.0,1
570,-9.0,-14.0,-64.0,-56.0,-8.0,-3.0,0.0,1.0,1651086840345092.0,1
571,8.0,2.0,3.0,22.0,3.0,-1.0,-2.0,29.0,1651086840345092.0,1
572,-2.0,-10.0,-50.0,-26.0,-9.0,-3.0,-2.0,5.0,1651086840346057.0,1
573,34.0,6.0,-18.0,-12.0,-2.0,0.0,-3.0,-19.0,1651086840346057.0,1
574,12.0,-1.0,12.0,-6.0,1.0,0.0,-2.0,5.0,1651086840360088.0,1
575,-4.0,2.0,11.0,11.0,0.0,-10.0,-8.0,-20.0,1651086840360088.0,1
576,-25.0,-3.0,-2.0,4.0,7.0,19.0,8.0,-7.0,1651086840360088.0,1
577,-16.0,-9.0,-33.0,-10.0,-11.0,-18.0,-7.0,6.0,1651086840360088.0,1
578,0.0,3.0,50.0,46.0,16.0,32.0,16.0,4.0,1651086840382390.0,1
579,12.0,-1.0,23.0,44.0,11.0,6.0,3.0,4.0,1651086840382390.0,1
580,16.0,-1.0,-28.0,-25.0,-8.0,-9.0,-5.0,-4.0,1651086840382390.0,1
581,-10.0,-3.0,-14.0,5.0,1.0,-7.0,-7.0,-23.0,1651086840382390.0,1
582,3.0,6.0,-18.0,-6.0,4.0,-1.0,10.0,10.0,1651086840405373.0,1
583,10.0,14.0,27.0,16.0,7.0,3.0,-2.0,11.0,1651086840405373.0,1
584,-19.0,-15.0,3.0,-19.0,-11.0,-5.0,-7.0,-1.0,1651086840406244.0,1
585,18.0,-5.0,-15.0,-38.0,-7.0,0.0,1.0,-3.0,1651086840406244.0,1
586,-4.0,-7.0,3.0,14.0,8.0,-8.0,-6.0,-6.0,1651086840420483.0,1
587,3.0,9.0,8.0,7.0,-2.0,9.0,7.0,-1.0,1651086840420483.0,1
588,1.0,1.0,-14.0,6.0,3.0,-7.0,-4.0,-7.0,1651086840420483.0,1
589,6.0,4.0,21.0,12.0,-4.0,1.0,3.0,13.0,1651086840420483.0,1
590,1.0,-5.0,-4.0,-44.0,-13.0,-11.0,-8.0,-3.0,1651086840442569.0,1
591,-1.0,-4.0,11.0,22.0,1.0,4.0,2.0,8.0,1651086840442569.0,1
592,-13.0,-9.0,-45.0,-6.0,-4.0,-7.0,-5.0,-11.0,1651086840442637.0,1
593,7.0,10.0,-5.0,12.0,8.0,2.0,-1.0,3.0,1651086840442637.0,1
594,0.0,2.0,-10.0,1.0,-4.0,0.0,3.0,12.0,1651086840466098.0,1
595,5.0,-5.0,-13.0,-2.0,-8.0,-5.0,-2.0,-2.0,1651086840466098.0,1
596,-8.0,4.0,-9.0,-10.0,1.0,3.0,4.0,-6.0,1651086840466098.0,1
597,2.0,4.0,27.0,16.0,4.0,0.0,-2.0,-4.0,1651086840466098.0,1
598,0.0,4.0,-26.0,-17.0,-4.0,-4.0,-5.0,-2.0,1651086840479222.0,1
599,-2.0,-7.0,-23.0,-19.0,-11.0,-3.0,-1.0,2.0,1651086840479222.0,1
600,-2.0,2.0,45.0,39.0,17.0,0.0,-2.0,-7.0,1651086840487487.0,1
601,-1.0,-4.0,-1.0,-6.0,-2.0,3.0,1.0,2.0,1651086840487487.0,1
602,-4.0,0.0,13.0,7.0,-11.0,-7.0,-4.0,1.0,1651086840502499.0,1
603,0.0,-4.0,-21.0,-4.0,7.0,2.0,2.0,1.0,1651086840502499.0,1
604,2.0,7.0,22.0,10.0,1.0,5.0,1.0,0.0,1651086840503093.0,1
605,1.0,0.0,0.0,-1.0,11.0,6.0,1.0,1.0,1651086840503093.0,1
606,-5.0,-23.0,-12.0,6.0,0.0,-4.0,-2.0,0.0,1651086840525386.0,1
607,-2.0,15.0,-7.0,-16.0,-14.0,-4.0,-2.0,1.0,1651086840525386.0,1
608,1.0,7.0,9.0,13.0,12.0,0.0,2.0,-1.0,1651086840526247.0,1
609,-4.0,-8.0,-3.0,-13.0,-16.0,-4.0,-2.0,1.0,1651086840526247.0,1
610,0.0,15.0,12.0,3.0,2.0,1.0,-2.0,-1.0,1651086840539231.0,1
611,-2.0,-11.0,-2.0,13.0,41.0,17.0,3.0,2.0,1651086840539231.0,1
612,0.0,3.0,5.0,-3.0,-12.0,-8.0,-2.0,-3.0,1651086840547392.0,1
613,4.0,0.0,3.0,-3.0,6.0,5.0,4.0,3.0,1651086840547392.0,1
614,1.0,6.0,7.0,0.0,-3.0,-3.0,-1.0,1.0,1651086840563224.0,1
615,-1.0,0.0,-1.0,-3.0,-14.0,-5.0,-1.0,-3.0,1651086840563224.0,1
616,-2.0,-12.0,-12.0,-5.0,2.0,1.0,-1.0,-3.0,1651086840564221.0,1
617,-1.0,-6.0,-3.0,5.0,7.0,3.0,-1.0,2.0,1651086840564221.0,1
618,-1.0,-7.0,0.0,0.0,-3.0,0.0,-2.0,-1.0,1651086840585253.0,1
619,0.0,6.0,-4.0,-14.0,-6.0,-4.0,-2.0,-1.0,1651086840585253.0,1
620,-1.0,4.0,12.0,-2.0,-4.0,0.0,1.0,0.0,1651086840586275.0,1
621,0.0,1.0,2.0,1.0,-4.0,-3.0,-1.0,-2.0,1651086840586275.0,1
622,0.0,-8.0,-4.0,8.0,7.0,3.0,0.0,1.0,1651086840599086.0,1
623,-2.0,-1.0,-16.0,-2.0,1.0,-2.0,-1.0,-1.0,1651086840599086.0,1
624,1.0,4.0,22.0,9.0,4.0,0.0,-1.0,0.0,1651086840607110.0,1
625,1.0,-1.0,-6.0,-7.0,-8.0,-2.0,0.0,1.0,1651086840607110.0,1
626,-1.0,8.0,-3.0,4.0,13.0,3.0,0.0,0.0,1651086840622191.0,1
627,2.0,-13.0,-3.0,-2.0,0.0,1.0,2.0,1.0,1651086840622191.0,1
628,-1.0,11.0,-3.0,-3.0,-5.0,-3.0,-1.0,1.0,1651086840623067.0,1
629,0.0,-1.0,1.0,1.0,0.0,0.0,-1.0,1.0,1651086840623067.0,1
630,-1.0,10.0,-4.0,-9.0,-8.0,-3.0,0.0,0.0,1651086840645222.0,1
631,-4.0,-7.0,2.0,-3.0,-11.0,-7.0,-2.0,-3.0,1651086840645222.0,1
632,0.0,-4.0,-3.0,-1.0,1.0,1.0,0.0,-1.0,1651086840646219.0,1
633,-1.0,-2.0,4.0,3.0,-6.0,-2.0,-2.0,-1.0,1651086840646219.0,1
634,-2.0,-1.0,-6.0,-4.0,-4.0,-2.0,0.0,1.0,1651086840659244.0,1
635,0.0,-15.0,-5.0,-5.0,1.0,-1.0,1.0,1.0,1651086840659244.0,1
636,0.0,9.0,2.0,0.0,0.0,0.0,0.0,0.0,1651086840667393.0,1
637,0.0,6.0,7.0,1.0,0.0,-3.0,-3.0,-5.0,1651086840667393.0,1
638,1.0,-1.0,-9.0,-10.0,-5.0,0.0,0.0,1.0,1651086840682338.0,1
639,0.0,-6.0,-1.0,9.0,7.0,-1.0,-1.0,0.0,1651086840682338.0,1
640,0.0,-4.0,8.0,-2.0,-8.0,-2.0,-1.0,-1.0,1651086840682338.0,1
641,-2.0,2.0,-4.0,9.0,7.0,3.0,1.0,0.0,1651086840682338.0,1
642,-2.0,-1.0,-3.0,-4.0,-1.0,0.0,0.0,0.0,1651086840705373.0,1
643,-2.0,3.0,-1.0,-5.0,-9.0,-5.0,-3.0,0.0,1651086840705373.0,1
644,-1.0,-5.0,-9.0,-4.0,-6.0,-2.0,-3.0,-1.0,1651086840706250.0,1
645,1.0,-2.0,6.0,5.0,9.0,3.0,3.0,0.0,1651086840706250.0,1
646,0.0,2.0,-1.0,2.0,5.0,3.0,2.0,0.0,1651086840719237.0,1
647,-1.0,2.0,-6.0,-9.0,-14.0,-5.0,0.0,-2.0,1651086840719237.0,1
648,-1.0,-7.0,-1.0,5.0,6.0,-1.0,-1.0,0.0,1651086840727604.0,1
649,1.0,4.0,-5.0,-3.0,-2.0,1.0,-1.0,-1.0,1651086840727604.0,1
650,-2.0,2.0,3.0,2.0,-3.0,-4.0,-3.0,-2.0,1651086840742542.0,1
651,0.0,2.0,-2.0,-2.0,-2.0,-1.0,-1.0,-1.0,1651086840742542.0,1
652,-1.0,-3.0,-3.0,-6.0,-9.0,-8.0,-4.0,-2.0,1651086840743063.0,1
653,0.0,5.0,-2.0,-1.0,-4.0,-2.0,-1.0,1.0,1651086840743063.0,1
654,-2.0,-28.0,-5.0,-3.0,-1.0,-1.0,2.0,0.0,1651086840765386.0,1
655,-1.0,27.0,-3.0,5.0,5.0,3.0,0.0,1.0,1651086840765386.0,1
656,-1.0,-2.0,0.0,-1.0,1.0,2.0,1.0,0.0,1651086840766249.0,1
657,-2.0,1.0,-3.0,-2.0,0.0,1.0,2.0,0.0,1651086840766249.0,1
658,1.0,-2.0,0.0,-1.0,1.0,-1.0,1.0,1.0,1651086840788359.0,1
659,1.0,-7.0,-3.0,-3.0,-3.0,-1.0,0.0,0.0,1651086840788359.0,1
660,0.0,0.0,-4.0,-1.0,2.0,-1.0,0.0,-1.0,1651086840788359.0,1
661,0.0,6.0,5.0,-1.0,0.0,1.0,1.0,0.0,1651086840788359.0,1
662,0.0,0.0,-4.0,-2.0,-2.0,-1.0,-1.0,0.0,1651086840802230.0,1
663,1.0,-5.0,1.0,-2.0,-2.0,-1.0,-1.0,1.0,1651086840802230.0,1
664,0.0,3.0,-1.0,1.0,4.0,2.0,0.0,-1.0,1651086840803126.0,1
665,0.0,-6.0,1.0,-2.0,-6.0,-1.0,0.0,-1.0,1651086840803126.0,1
666,1.0,8.0,0.0,0.0,0.0,0.0,-1.0,-1.0,1651086840825430.0,1
667,-1.0,-3.0,-1.0,1.0,3.0,2.0,0.0,-1.0,1651086840825430.0,1
668,-2.0,-6.0,-3.0,0.0,1.0,0.0,1.0,1.0,1651086840825430.0,1
669,-1.0,-1.0,0.0,-1.0,-1.0,-1.0,0.0,-1.0,1651086840825430.0,1
670,0.0,2.0,-7.0,0.0,-3.0,-2.0,-2.0,0.0,1651086840848248.0,1
671,0.0,-5.0,-3.0,-3.0,-4.0,0.0,-2.0,-2.0,1651086840848248.0,1
672,-2.0,0.0,-1.0,-4.0,-11.0,-5.0,0.0,-1.0,1651086840848248.0,1
673,0.0,-3.0,2.0,2.0,11.0,2.0,-1.0,0.0,1651086840848248.0,1
674,-1.0,-8.0,1.0,-13.0,-8.0,-1.0,-1.0,-1.0,1651086840862252.0,1
675,-1.0,17.0,-3.0,6.0,1.0,-4.0,-1.0,-1.0,1651086840862252.0,1
676,1.0,-20.0,-1.0,7.0,7.0,3.0,0.0,-2.0,1651086840862252.0,1
677,-1.0,15.0,0.0,6.0,3.0,0.0,2.0,0.0,1651086840862252.0,1
678,2.0,5.0,9.0,4.0,2.0,0.0,0.0,1.0,1651086840885199.0,1
679,1.0,-3.0,-4.0,-9.0,-7.0,-1.0,2.0,1.0,1651086840885199.0,0
680,-2.0,-6.0,2.0,-6.0,-6.0,-4.0,-2.0,0.0,1651086840886230.0,0
681,-3.0,-7.0,-9.0,0.0,3.0,0.0,-2.0,-1.0,1651086840886230.0,0
682,-3.0,-2.0,1.0,1.0,2.0,5.0,0.0,-1.0,1651086840908539.0,0
683,-1.0,-1.0,-1.0,-1.0,-3.0,-1.0,1.0,2.0,1651086840908539.0,0
684,0.0,10.0,1.0,-2.0,-3.0,0.0,0.0,-1.0,1651086840908539.0,0
685,-1.0,-12.0,-1.0,-5.0,-5.0,-2.0,-1.0,0.0,1651086840908539.0,0
686,0.0,9.0,3.0,3.0,1.0,-1.0,1.0,1.0,1651086840922350.0,0
687,1.0,-5.0,-7.0,0.0,5.0,4.0,-1.0,-1.0,1651086840922350.0,0
688,1.0,-4.0,-1.0,1.0,0.0,-2.0,-1.0,1.0,1651086840923058.0,0
689,2.0,3.0,7.0,-4.0,-8.0,-3.0,0.0,0.0,1651086840923058.0,0
690,0.0,3.0,-14.0,0.0,0.0,-2.0,0.0,0.0,1651086840945217.0,0
691,-2.0,-10.0,1.0,-3.0,-7.0,-2.0,-1.0,-1.0,1651086840945217.0,0
692,-3.0,9.0,-2.0,-18.0,-22.0,-4.0,-2.0,-1.0,1651086840946245.0,0
693,-1.0,-2.0,-4.0,-2.0,-8.0,-6.0,-2.0,-3.0,1651086840946245.0,0
694,-1.0,-7.0,-3.0,15.0,28.0,10.0,3.0,0.0,1651086840968362.0,0
695,-1.0,-13.0,3.0,3.0,4.0,1.0,0.0,-1.0,1651086840968362.0,0
696,1.0,-1.0,-4.0,-3.0,-4.0,-2.0,-1.0,0.0,1651086840968362.0,0
697,-2.0,9.0,-2.0,-13.0,-20.0,-8.0,-3.0,0.0,1651086840968362.0,0
698,0.0,5.0,2.0,-3.0,-8.0,-3.0,-1.0,-1.0,1651086840982509.0,0
699,0.0,-7.0,0.0,1.0,2.0,0.0,-1.0,0.0,1651086840982509.0,0
700,-1.0,-6.0,-1.0,-3.0,0.0,0.0,2.0,2.0,1651086840983057.0,0
701,1.0,-2.0,1.0,3.0,4.0,2.0,-1.0,-1.0,1651086840983057.0,0
702,-1.0,-1.0,2.0,2.0,3.0,0.0,-3.0,-1.0,1651086841006194.0,0
703,0.0,4.0,4.0,0.0,3.0,0.0,1.0,0.0,1651086841006194.0,0
704,0.0,4.0,1.0,2.0,3.0,0.0,-1.0,-2.0,1651086841006194.0,0
705,0.0,-12.0,-5.0,2.0,3.0,1.0,0.0,1.0,1651086841006194.0,0
706,-1.0,14.0,17.0,0.0,-5.0,-4.0,-1.0,-1.0,1651086841027386.0,0
707,-2.0,0.0,-11.0,-5.0,-7.0,-1.0,-1.0,-1.0,1651086841027386.0,0
708,0.0,3.0,-2.0,1.0,4.0,1.0,-1.0,1.0,1651086841028221.0,0
709,0.0,-4.0,0.0,2.0,4.0,0.0,-1.0,-1.0,1651086841028221.0,0
710,0.0,-5.0,-3.0,-5.0,-9.0,-5.0,0.0,1.0,1651086841042575.0,0
711,-1.0,6.0,5.0,5.0,11.0,3.0,2.0,-1.0,1651086841042575.0,0
712,-1.0,-1.0,2.0,9.0,11.0,2.0,1.0,-2.0,1651086841043062.0,0
713,0.0,-2.0,-7.0,-16.0,-8.0,-3.0,-2.0,0.0,1651086841043062.0,0
714,-2.0,-5.0,0.0,2.0,-7.0,-2.0,-3.0,-2.0,1651086841065345.0,0
715,1.0,8.0,2.0,2.0,4.0,2.0,0.0,0.0,1651086841065345.0,0
716,-1.0,0.0,1.0,1.0,7.0,2.0,0.0,0.0,1651086841066232.0,0
717,0.0,-3.0,2.0,4.0,0.0,0.0,-2.0,0.0,1651086841066232.0,0
718,0.0,-8.0,-10.0,-26.0,-22.0,-8.0,-1.0,-2.0,1651086841088441.0,0
719,-2.0,6.0,4.0,12.0,9.0,1.0,-1.0,1.0,1651086841088441.0,0
720,1.0,4.0,4.0,2.0,-3.0,-2.0,0.0,-1.0,1651086841088441.0,0
721,-2.0,-2.0,6.0,2.0,2.0,4.0,3.0,-1.0,1651086841088441.0,0
722,1.0,3.0,-8.0,2.0,11.0,3.0,-1.0,-1.0,1651086841102322.0,0
723,1.0,-1.0,-4.0,-7.0,-11.0,-2.0,0.0,-1.0,1651086841102322.0,0
724,-1.0,-6.0,1.0,-1.0,-1.0,-1.0,-1.0,1.0,1651086841102322.0,0
725,-1.0,1.0,3.0,2.0,0.0,-1.0,-1.0,-1.0,1651086841102322.0,0
726,0.0,-1.0,-3.0,2.0,-2.0,-1.0,-2.0,-1.0,1651086841125337.0,0
727,1.0,-9.0,-5.0,-5.0,-7.0,-2.0,-2.0,-1.0,1651086841125337.0,0
728,1.0,23.0,8.0,4.0,6.0,5.0,0.0,0.0,1651086841126226.0,0
729,-1.0,-7.0,-10.0,1.0,3.0,1.0,1.0,1.0,1651086841126226.0,0
730,-3.0,-3.0,1.0,-6.0,-2.0,1.0,-1.0,-1.0,1651086841148318.0,0
731,-2.0,-1.0,2.0,9.0,12.0,5.0,1.0,-1.0,1651086841148318.0,0
732,-2.0,-7.0,-3.0,-4.0,-7.0,-4.0,-2.0,-2.0,1651086841148318.0,0
733,0.0,2.0,0.0,0.0,0.0,0.0,-1.0,-1.0,1651086841148318.0,0
734,2.0,4.0,2.0,2.0,3.0,-1.0,1.0,0.0,1651086841162321.0,0
735,-2.0,-3.0,-1.0,-8.0,-11.0,-5.0,-1.0,-1.0,1651086841162321.0,0
736,2.0,-9.0,-10.0,-7.0,-8.0,-3.0,0.0,0.0,1651086841162321.0,0
737,-3.0,-7.0,4.0,7.0,10.0,3.0,-2.0,-2.0,1651086841162321.0,0
738,-4.0,16.0,1.0,2.0,-5.0,-1.0,-1.0,-1.0,1651086841185353.0,0
739,-1.0,-4.0,1.0,-4.0,0.0,2.0,1.0,0.0,1651086841185353.0,0
740,0.0,-3.0,-7.0,6.0,9.0,2.0,-1.0,-1.0,1651086841186250.0,0
741,0.0,-1.0,2.0,5.0,-1.0,-3.0,0.0,0.0,1651086841186250.0,0
742,2.0,-4.0,1.0,-1.0,-1.0,-2.0,-1.0,-1.0,1651086841208086.0,0
743,-1.0,5.0,-1.0,-2.0,-3.0,-2.0,0.0,-1.0,1651086841208086.0,0
744,-1.0,2.0,4.0,-5.0,-6.0,-1.0,1.0,-1.0,1651086841208086.0,0
745,0.0,-2.0,-11.0,-7.0,-8.0,-2.0,0.0,-1.0,1651086841208086.0,0
746,-2.0,-1.0,-1.0,2.0,-1.0,-1.0,-2.0,-1.0,1651086841222361.0,0
747,-1.0,-7.0,-7.0,-1.0,2.0,1.0,2.0,1.0,1651086841222361.0,0
748,0.0,13.0,17.0,2.0,-1.0,1.0,-1.0,-3.0,1651086841222361.0,0
749,-1.0,1.0,-7.0,2.0,4.0,5.0,0.0,0.0,1651086841222361.0,0
750,0.0,-1.0,2.0,3.0,0.0,0.0,0.0,1.0,1651086841245229.0,0
751,1.0,-3.0,-5.0,-8.0,-12.0,-6.0,-2.0,-1.0,1651086841245229.0,0
752,0.0,-5.0,-4.0,-2.0,-4.0,-2.0,-1.0,0.0,1651086841246206.0,0
753,1.0,4.0,-1.0,-3.0,0.0,-2.0,1.0,-2.0,1651086841246206.0,0
754,2.0,-3.0,1.0,-2.0,-2.0,-1.0,-1.0,1.0,1651086841268026.0,0
755,-1.0,-5.0,1.0,3.0,1.0,1.0,0.0,0.0,1651086841268026.0,0
756,0.0,3.0,6.0,0.0,1.0,3.0,0.0,0.0,1651086841268026.0,0
757,-1.0,4.0,-5.0,4.0,2.0,-1.0,-1.0,0.0,1651086841268026.0,0
758,0.0,-2.0,-4.0,1.0,5.0,3.0,2.0,1.0,1651086841282359.0,0
759,-2.0,-5.0,3.0,-3.0,1.0,-2.0,-1.0,-2.0,1651086841282359.0,0
760,1.0,-2.0,-4.0,-2.0,-2.0,-2.0,0.0,0.0,1651086841283035.0,0
761,1.0,2.0,0.0,-7.0,-8.0,-2.0,-1.0,1.0,1651086841283035.0,0
762,-2.0,-4.0,3.0,-2.0,-2.0,-1.0,-1.0,-3.0,1651086841305347.0,0
763,0.0,-1.0,-4.0,5.0,7.0,3.0,2.0,1.0,1651086841305347.0,0
764,-3.0,12.0,-6.0,-10.0,-6.0,-2.0,-1.0,-1.0,1651086841306230.0,0
765,-2.0,1.0,4.0,-5.0,-13.0,-3.0,-2.0,-1.0,1651086841306230.0,0
766,2.0,-3.0,-2.0,14.0,26.0,10.0,2.0,3.0,1651086841327339.0,0
767,1.0,3.0,6.0,-3.0,-6.0,-5.0,-3.0,-3.0,1651086841327339.0,0
768,-2.0,-10.0,-6.0,-1.0,0.0,-1.0,-2.0,0.0,1651086841328191.0,0
769,0.0,1.0,-1.0,-15.0,-13.0,-4.0,-3.0,-1.0,1651086841328191.0,0
770,-3.0,0.0,8.0,9.0,1.0,-1.0,-2.0,-1.0,1651086841342386.0,0
771,0.0,4.0,-15.0,-4.0,0.0,0.0,0.0,-1.0,1651086841342386.0,0
772,-2.0,-16.0,-2.0,-3.0,-4.0,-1.0,-1.0,-1.0,1651086841343107.0,0
773,-1.0,1.0,4.0,8.0,8.0,0.0,2.0,0.0,1651086841343107.0,0
774,0.0,3.0,-1.0,-5.0,-11.0,-5.0,-1.0,-2.0,1651086841365337.0,0
775,-1.0,-1.0,5.0,-5.0,-3.0,1.0,-3.0,-1.0,1651086841365337.0,0
776,-1.0,-6.0,-4.0,14.0,11.0,1.0,1.0,0.0,1651086841366218.0,0
777,-1.0,-1.0,2.0,-4.0,0.0,1.0,-1.0,-1.0,1651086841366218.0,0
778,-1.0,-8.0,2.0,-4.0,-3.0,-1.0,0.0,1.0,1651086841388077.0,0
779,-1.0,2.0,-6.0,2.0,-2.0,-2.0,1.0,-1.0,1651086841388077.0,0
780,0.0,2.0,-2.0,-6.0,-7.0,-6.0,-4.0,-1.0,1651086841388077.0,0
781,-2.0,-3.0,4.0,6.0,5.0,5.0,1.0,-1.0,1651086841388077.0,0
782,-1.0,-1.0,-5.0,-5.0,-5.0,-3.0,0.0,-1.0,1651086841401263.0,0
783,0.0,6.0,3.0,1.0,4.0,1.0,0.0,2.0,1651086841401263.0,0
784,0.0,0.0,-1.0,-5.0,-2.0,-2.0,1.0,-1.0,1651086841409238.0,0
785,0.0,-2.0,-5.0,1.0,-3.0,-2.0,0.0,0.0,1651086841409238.0,0
786,0.0,-13.0,1.0,1.0,-1.0,-1.0,-2.0,-1.0,1651086841425390.0,0
787,0.0,15.0,2.0,0.0,-1.0,0.0,1.0,0.0,1651086841425390.0,0
788,0.0,-5.0,-3.0,4.0,6.0,2.0,-1.0,-1.0,1651086841426265.0,0
789,-1.0,1.0,-1.0,-7.0,-9.0,-3.0,-2.0,1.0,1651086841426265.0,0
790,-1.0,-6.0,-1.0,5.0,10.0,4.0,0.0,0.0,1651086841448555.0,0
791,0.0,-6.0,0.0,2.0,2.0,-2.0,-1.0,0.0,1651086841448555.0,0
792,1.0,1.0,-1.0,-3.0,-2.0,2.0,0.0,1.0,1651086841448555.0,0
793,0.0,-3.0,4.0,-4.0,0.0,-2.0,-1.0,-2.0,1651086841448555.0,0
794,0.0,7.0,0.0,-13.0,-16.0,-4.0,-1.0,-2.0,1651086841461072.0,0
795,-1.0,-3.0,5.0,27.0,23.0,5.0,1.0,1.0,1651086841461072.0,0
796,-2.0,-6.0,-5.0,-4.0,-4.0,0.0,-1.0,0.0,1651086841469051.0,0
797,1.0,11.0,-3.0,3.0,4.0,2.0,1.0,1.0,1651086841469051.0,0
798,-4.0,-9.0,-2.0,3.0,5.0,0.0,-1.0,-3.0,1651086841485196.0,0
799,-1.0,2.0,4.0,-12.0,-10.0,-3.0,-3.0,-2.0,1651086841485196.0,0
800,0.0,-6.0,-8.0,-2.0,-6.0,-1.0,1.0,-1.0,1651086841486220.0,0
801,0.0,8.0,8.0,6.0,8.0,-1.0,-2.0,0.0,1651086841486220.0,0
802,1.0,7.0,-5.0,-2.0,2.0,4.0,1.0,0.0,1651086841508553.0,0
803,1.0,-5.0,7.0,3.0,1.0,0.0,0.0,-1.0,1651086841508553.0,0
804,0.0,-6.0,-10.0,1.0,6.0,-1.0,-1.0,0.0,1651086841508553.0,0
805,1.0,-5.0,-1.0,-9.0,-5.0,-2.0,-1.0,0.0,1651086841508553.0,0
806,0.0,15.0,0.0,1.0,-8.0,-5.0,-1.0,0.0,1651086841521492.0,0
807,-2.0,-6.0,4.0,-5.0,-4.0,2.0,-2.0,-1.0,1651086841521492.0,0
808,-1.0,1.0,1.0,2.0,0.0,0.0,-1.0,-2.0,1651086841529249.0,0
809,-1.0,-3.0,0.0,1.0,2.0,4.0,0.0,0.0,1651086841529249.0,0
810,-1.0,-2.0,-2.0,-3.0,-2.0,-1.0,-1.0,3.0,1651086841545235.0,0
811,1.0,-1.0,-1.0,-5.0,-7.0,-4.0,-2.0,0.0,1651086841545235.0,0
812,0.0,-2.0,-2.0,-6.0,-10.0,-6.0,-2.0,-1.0,1651086841546232.0,0
813,-1.0,-7.0,-7.0,13.0,16.0,6.0,0.0,1.0,1651086841546232.0,0
814,0.0,2.0,3.0,0.0,2.0,-3.0,-3.0,-2.0,1651086841567981.0,0
815,0.0,-2.0,-3.0,-5.0,-10.0,-2.0,-1.0,1.0,1651086841567981.0,0
816,0.0,5.0,5.0,2.0,12.0,2.0,0.0,-2.0,1651086841567981.0,0
817,0.0,-5.0,-1.0,-10.0,-11.0,-6.0,-2.0,-1.0,1651086841567981.0,0
818,-1.0,-9.0,-6.0,6.0,4.0,2.0,-1.0,0.0,1651086841582319.0,0
819,-2.0,-1.0,1.0,-3.0,0.0,-3.0,-2.0,0.0,1651086841582319.0,0
820,0.0,-3.0,5.0,-3.0,-8.0,-2.0,0.0,0.0,1651086841590298.0,0
821,0.0,0.0,4.0,5.0,2.0,0.0,1.0,-1.0,1651086841590298.0,0
822,0.0,2.0,-6.0,-8.0,-4.0,-1.0,-1.0,0.0,1651086841605358.0,0
823,1.0,-2.0,0.0,5.0,-1.0,-1.0,2.0,0.0,1651086841605358.0,0
824,-1.0,5.0,4.0,5.0,0.0,-1.0,0.0,2.0,1651086841606195.0,0
825,-2.0,-4.0,-6.0,0.0,5.0,1.0,1.0,-1.0,1651086841606195.0,0
826,-1.0,7.0,6.0,-1.0,-3.0,-1.0,1.0,0.0,1651086841627841.0,0
827,-3.0,-3.0,-6.0,-7.0,-4.0,-4.0,-2.0,-1.0,1651086841627841.0,0
828,-1.0,2.0,4.0,-1.0,-2.0,-2.0,0.0,0.0,1651086841628188.0,0
829,-2.0,1.0,0.0,0.0,-1.0,0.0,0.0,-1.0,1651086841628188.0,0
830,-2.0,-7.0,-3.0,10.0,6.0,1.0,1.0,-1.0,1651086841641758.0,0
831,0.0,-5.0,1.0,-2.0,-1.0,-1.0,0.0,1.0,1651086841641758.0,0
832,-1.0,-2.0,-5.0,-6.0,-7.0,-1.0,0.0,-1.0,1651086841650348.0,0
833,0.0,0.0,1.0,-2.0,-4.0,-2.0,-3.0,0.0,1651086841650348.0,0
834,2.0,3.0,5.0,-1.0,1.0,2.0,2.0,0.0,1651086841665375.0,0
835,1.0,-9.0,-5.0,0.0,0.0,1.0,0.0,-1.0,1651086841665375.0,0
836,-2.0,8.0,2.0,-2.0,-5.0,-2.0,-1.0,0.0,1651086841665375.0,0
837,1.0,-2.0,1.0,3.0,3.0,-1.0,1.0,1.0,1651086841665375.0,0
838,1.0,-1.0,0.0,-1.0,1.0,3.0,-1.0,0.0,1651086841688544.0,0
839,0.0,4.0,0.0,-8.0,0.0,1.0,0.0,-1.0,1651086841688544.0,0
840,0.0,-5.0,1.0,3.0,-2.0,0.0,-1.0,1.0,1651086841688544.0,0
841,-1.0,1.0,0.0,4.0,5.0,0.0,-1.0,-1.0,1651086841688544.0,0
842,1.0,0.0,-3.0,-2.0,-1.0,-3.0,-1.0,-2.0,1651086841701706.0,0
843,-1.0,-9.0,-3.0,-8.0,-6.0,-1.0,1.0,-1.0,1651086841701706.0,0
844,1.0,3.0,5.0,3.0,7.0,3.0,1.0,0.0,1651086841710391.0,0
845,1.0,10.0,2.0,0.0,3.0,2.0,1.0,1.0,1651086841710391.0,0
846,-2.0,-5.0,-7.0,-1.0,-8.0,-5.0,-1.0,-2.0,1651086841725391.0,0
847,0.0,5.0,7.0,6.0,16.0,7.0,2.0,1.0,1651086841725391.0,0
848,0.0,-7.0,-3.0,-2.0,-5.0,-1.0,-1.0,-1.0,1651086841726224.0,0
849,1.0,1.0,1.0,-2.0,-1.0,2.0,-2.0,-1.0,1651086841726224.0,0
850,-1.0,2.0,9.0,10.0,11.0,2.0,-1.0,0.0,1651086841748541.0,0
851,-2.0,-5.0,-17.0,2.0,-4.0,-1.0,0.0,0.0,1651086841748541.0,0
852,1.0,5.0,-6.0,-10.0,-7.0,-7.0,-2.0,-1.0,1651086841748541.0,0
853,-1.0,-13.0,0.0,5.0,-1.0,-2.0,0.0,-2.0,1651086841748541.0,0
854,-2.0,0.0,-2.0,-6.0,-8.0,-1.0,-2.0,-3.0,1651086841770301.0,0
855,-2.0,5.0,4.0,-1.0,-1.0,-3.0,1.0,-2.0,1651086841770301.0,0
856,-1.0,1.0,1.0,2.0,4.0,3.0,-1.0,-1.0,1651086841771196.0,0
857,-1.0,-11.0,-7.0,-12.0,-13.0,-4.0,0.0,0.0,1651086841771196.0,0
858,-1.0,14.0,6.0,2.0,-3.0,1.0,-2.0,0.0,1651086841784366.0,0
859,-1.0,-4.0,-5.0,14.0,23.0,7.0,2.0,0.0,1651086841784366.0,0
860,0.0,6.0,6.0,-8.0,-16.0,-7.0,-3.0,-2.0,1651086841793086.0,0
861,0.0,-11.0,-9.0,-1.0,-2.0,-3.0,-3.0,-1.0,1651086841793086.0,0
862,2.0,-4.0,-9.0,-6.0,6.0,0.0,0.0,0.0,1651086841808477.0,0
863,1.0,14.0,14.0,-1.0,-12.0,-2.0,-2.0,-1.0,1651086841808477.0,0
864,0.0,0.0,1.0,-4.0,2.0,2.0,1.0,0.0,1651086841809071.0,0
865,-2.0,-7.0,-15.0,10.0,7.0,3.0,0.0,-2.0,1651086841809071.0,0
866,0.0,-7.0,-2.0,-7.0,-24.0,-9.0,-1.0,-2.0,1651086841831147.0,0
867,1.0,6.0,-3.0,9.0,22.0,3.0,0.0,-1.0,1651086841831147.0,0
868,-1.0,-13.0,3.0,2.0,4.0,0.0,-2.0,-2.0,1651086841831267.0,0
869,-3.0,5.0,2.0,-13.0,-21.0,-5.0,-2.0,-1.0,1651086841831267.0,0
870,1.0,1.0,-1.0,10.0,11.0,6.0,4.0,2.0,1651086841844321.0,0
871,0.0,0.0,2.0,-9.0,-25.0,-6.0,-4.0,0.0,1651086841844321.0,0
872,1.0,5.0,-1.0,5.0,26.0,8.0,4.0,2.0,1651086841853177.0,0
873,-1.0,0.0,9.0,1.0,-2.0,-4.0,0.0,0.0,1651086841853177.0,0
874,-3.0,-5.0,-6.0,-20.0,-16.0,-9.0,-3.0,-3.0,1651086841868005.0,0
875,0.0,-6.0,-4.0,6.0,2.0,1.0,2.0,1.0,1651086841868005.0,0
876,-1.0,2.0,-2.0,0.0,-6.0,-3.0,-2.0,0.0,1651086841869041.0,0
877,2.0,5.0,0.0,-6.0,-4.0,-1.0,-1.0,-1.0,1651086841869041.0,0
878,-2.0,-13.0,0.0,7.0,18.0,4.0,4.0,2.0,1651086841890256.0,0
879,0.0,12.0,3.0,2.0,-2.0,-3.0,-2.0,-2.0,1651086841890256.0,0
880,-2.0,-4.0,-4.0,0.0,0.0,1.0,1.0,-2.0,1651086841891133.0,0
881,1.0,5.0,6.0,-9.0,-4.0,-2.0,-1.0,-2.0,1651086841891133.0,0
882,1.0,1.0,-3.0,16.0,12.0,4.0,0.0,-1.0,1651086841904365.0,0
883,-1.0,-11.0,-3.0,-12.0,-8.0,-2.0,0.0,-2.0,1651086841904365.0,0
884,0.0,3.0,0.0,10.0,6.0,2.0,2.0,0.0,1651086841913312.0,0
885,-2.0,7.0,5.0,-6.0,-18.0,-10.0,-4.0,-3.0,1651086841913312.0,0
886,2.0,-4.0,-3.0,-5.0,14.0,7.0,0.0,0.0,1651086841927823.0,0
887,1.0,-1.0,9.0,8.0,6.0,5.0,-1.0,0.0,1651086841927823.0,0
888,0.0,3.0,-6.0,2.0,10.0,6.0,1.0,1.0,1651086841929223.0,0
889,-2.0,-11.0,-11.0,5.0,15.0,1.0,-1.0,0.0,1651086841929223.0,0
890,1.0,11.0,6.0,-12.0,-28.0,-10.0,-4.0,-2.0,1651086841950402.0,0
891,0.0,-1.0,4.0,7.0,16.0,7.0,2.0,0.0,1651086841950402.0,0
892,1.0,-5.0,2.0,1.0,8.0,5.0,1.0,1.0,1651086841952271.0,0
893,-2.0,8.0,-2.0,12.0,-1.0,-4.0,0.0,0.0,1651086841952271.0,0
894,-1.0,-16.0,-1.0,-1.0,15.0,3.0,-2.0,0.0,1651086841964382.0,0
895,-1.0,16.0,-6.0,-13.0,-26.0,-13.0,-2.0,-1.0,1651086841964382.0,0
896,0.0,1.0,0.0,-5.0,-2.0,1.0,-1.0,-2.0,1651086841973096.0,0
897,2.0,5.0,0.0,0.0,5.0,3.0,0.0,1.0,1651086841973096.0,0
898,-1.0,-18.0,3.0,6.0,1.0,-1.0,1.0,-1.0,1651086841988404.0,0
899,-2.0,1.0,-8.0,-20.0,-22.0,-11.0,-5.0,-4.0,1651086841988404.0,0
900,2.0,7.0,-2.0,11.0,5.0,3.0,3.0,1.0,1651086841989074.0,0
901,-2.0,-2.0,9.0,3.0,2.0,0.0,0.0,0.0,1651086841989074.0,0
902,-1.0,4.0,-14.0,-9.0,-9.0,-4.0,-2.0,-2.0,1651086842010397.0,0
903,1.0,-1.0,10.0,0.0,-7.0,-3.0,1.0,2.0,1651086842010397.0,0
904,-4.0,-11.0,-13.0,6.0,3.0,-2.0,-2.0,-2.0,1651086842011231.0,0
905,0.0,-2.0,-24.0,-29.0,-3.0,0.0,0.0,0.0,1651086842011231.0,0
906,-3.0,4.0,2.0,12.0,-6.0,-3.0,-1.0,-1.0,1651086842024309.0,0
907,-1.0,-3.0,8.0,-2.0,0.0,2.0,-1.0,-1.0,1651086842024309.0,0
908,-1.0,3.0,-19.0,-14.0,-3.0,-3.0,0.0,1.0,1651086842033291.0,0
909,-1.0,-2.0,28.0,32.0,8.0,5.0,2.0,0.0,1651086842033291.0,0
910,0.0,3.0,2.0,-21.0,-1.0,2.0,1.0,1.0,1651086842048390.0,0
911,0.0,0.0,7.0,16.0,0.0,-3.0,-2.0,-1.0,1651086842048390.0,0
912,1.0,-7.0,-16.0,-20.0,-13.0,-5.0,-4.0,0.0,1651086842049261.0,0
913,0.0,-1.0,28.0,25.0,10.0,5.0,1.0,-1.0,1651086842049261.0,0
914,0.0,12.0,23.0,16.0,8.0,0.0,-3.0,-1.0,1651086842071374.0,0
915,-3.0,-16.0,-35.0,-9.0,1.0,3.0,1.0,-3.0,1651086842071374.0,0
916,0.0,-7.0,-4.0,-19.0,-8.0,-1.0,1.0,1.0,1651086842073257.0,0
917,0.0,-3.0,-37.0,-26.0,-9.0,-4.0,0.0,0.0,1651086842073257.0,0
918,3.0,12.0,19.0,22.0,-3.0,-1.0,2.0,0.0,1651086842084197.0,0
919,-1.0,-9.0,-22.0,5.0,9.0,0.0,-2.0,0.0,1651086842084197.0,0
920,-4.0,3.0,30.0,19.0,-1.0,-9.0,-8.0,-11.0,1651086842093169.0,0
921,1.0,0.0,-1.0,-36.0,-6.0,2.0,0.0,2.0,1651086842093169.0,0
922,5.0,0.0,-43.0,-12.0,6.0,5.0,2.0,11.0,1651086842108130.0,0
923,-6.0,-13.0,15.0,0.0,-7.0,-7.0,-4.0,7.0,1651086842108130.0,0
924,2.0,3.0,-3.0,-9.0,-11.0,-5.0,-1.0,5.0,1651086842109076.0,0
925,5.0,4.0,65.0,22.0,10.0,2.0,-2.0,-4.0,1651086842109076.0,0
926,-5.0,-5.0,-28.0,-21.0,-8.0,-4.0,-2.0,0.0,1651086842130320.0,2
927,15.0,0.0,-30.0,1.0,16.0,6.0,1.0,-7.0,1651086842130320.0,2
928,-2.0,-1.0,9.0,32.0,-3.0,-3.0,-4.0,7.0,1651086842132315.0,2
929,1.0,6.0,-18.0,-18.0,-4.0,-3.0,-2.0,4.0,1651086842132315.0,2
930,1.0,-11.0,-4.0,-1.0,-3.0,2.0,3.0,-4.0,1651086842143285.0,2
931,0.0,-1.0,31.0,8.0,-3.0,-2.0,-1.0,12.0,1651086842143285.0,2
932,-6.0,3.0,34.0,1.0,-7.0,-4.0,0.0,-8.0,1651086842152366.0,2
933,2.0,-14.0,-23.0,-12.0,1.0,2.0,-2.0,-22.0,1651086842152366.0,2
934,-8.0,2.0,-21.0,-17.0,-8.0,-5.0,-4.0,-2.0,1651086842168463.0,2
935,-1.0,9.0,11.0,-16.0,-12.0,-5.0,1.0,0.0,1651086842168463.0,2
936,7.0,-5.0,-5.0,9.0,2.0,2.0,4.0,11.0,1651086842169463.0,2
937,-22.0,-5.0,14.0,5.0,0.0,1.0,-5.0,-22.0,1651086842169463.0,2
938,11.0,-1.0,-1.0,11.0,-1.0,-4.0,0.0,6.0,1651086842190350.0,2
939,-7.0,4.0,47.0,-15.0,3.0,3.0,2.0,20.0,1651086842190350.0,2
940,-12.0,0.0,-31.0,0.0,-5.0,2.0,-4.0,-33.0,1651086842191352.0,2
941,0.0,0.0,-14.0,33.0,6.0,0.0,3.0,2.0,1651086842191352.0,2
942,5.0,-5.0,31.0,-1.0,1.0,-1.0,1.0,8.0,1651086842204359.0,2
943,2.0,5.0,-26.0,-7.0,-3.0,-3.0,3.0,14.0,1651086842204359.0,2
944,7.0,2.0,11.0,1.0,3.0,1.0,1.0,8.0,1651086842213300.0,2
945,3.0,6.0,-6.0,-4.0,5.0,1.0,2.0,0.0,1651086842213300.0,2
946,-8.0,-4.0,9.0,2.0,4.0,0.0,-4.0,-18.0,1651086842227367.0,2
947,-4.0,7.0,-2.0,6.0,1.0,-1.0,6.0,3.0,1651086842227367.0,2
948,-10.0,-6.0,-4.0,2.0,4.0,-4.0,-8.0,-8.0,1651086842229242.0,2
949,4.0,7.0,5.0,87.0,11.0,10.0,3.0,-12.0,1651086842229242.0,2
950,7.0,-2.0,-20.0,-42.0,-19.0,4.0,6.0,23.0,1651086842250380.0,2
951,-7.0,-5.0,-4.0,-24.0,6.0,1.0,-4.0,-38.0,1651086842250380.0,2
952,4.0,11.0,13.0,41.0,11.0,11.0,4.0,-2.0,1651086842251229.0,2
953,-6.0,-6.0,38.0,-19.0,-20.0,-13.0,-8.0,10.0,1651086842251229.0,2
954,3.0,6.0,-5.0,27.0,3.0,-4.0,0.0,-7.0,1651086842264270.0,2
955,0.0,-5.0,-24.0,3.0,7.0,0.0,0.0,11.0,1651086842264270.0,2
956,-15.0,-14.0,-76.0,-86.0,-16.0,-9.0,-6.0,-6.0,1651086842273224.0,2
957,14.0,-1.0,1.0,3.0,14.0,5.0,5.0,-1.0,1651086842273224.0,2
958,-19.0,4.0,8.0,21.0,-11.0,-5.0,-7.0,-4.0,1651086842288265.0,2
959,0.0,-13.0,-55.0,-56.0,-7.0,-2.0,-2.0,5.0,1651086842288265.0,2
960,9.0,16.0,51.0,13.0,13.0,5.0,2.0,1.0,1651086842289073.0,2
961,7.0,0.0,-12.0,12.0,-6.0,-5.0,2.0,7.0,1651086842289073.0,2
962,-21.0,-5.0,9.0,-45.0,5.0,-5.0,-5.0,-7.0,1651086842310238.0,2
963,-22.0,12.0,63.0,76.0,-2.0,-9.0,-5.0,-10.0,1651086842310238.0,2
964,-18.0,-1.0,-74.0,-31.0,2.0,12.0,6.0,-15.0,1651086842311237.0,2
965,9.0,-3.0,-12.0,-5.0,9.0,2.0,-1.0,-9.0,1651086842311237.0,2
966,26.0,4.0,0.0,-66.0,-12.0,-4.0,17.0,13.0,1651086842324289.0,2
967,-5.0,-6.0,19.0,34.0,-2.0,8.0,-1.0,-14.0,1651086842324289.0,2
968,-25.0,-9.0,15.0,28.0,1.0,-10.0,-14.0,23.0,1651086842333294.0,2
969,9.0,11.0,54.0,-20.0,-10.0,-6.0,1.0,-7.0,1651086842333294.0,2
970,-6.0,-18.0,-64.0,-2.0,0.0,-8.0,-17.0,0.0,1651086842348375.0,2
971,11.0,5.0,-25.0,-7.0,8.0,3.0,12.0,-4.0,1651086842348375.0,2
972,17.0,10.0,72.0,49.0,-1.0,4.0,8.0,12.0,1651086842349248.0,2
973,-20.0,-13.0,-19.0,-78.0,-30.0,-23.0,-16.0,3.0,1651086842349248.0,2
974,-22.0,4.0,47.0,58.0,15.0,2.0,1.0,-8.0,1651086842370412.0,2
975,30.0,-5.0,-12.0,-36.0,-9.0,-2.0,-7.0,11.0,1651086842370412.0,2
976,3.0,9.0,48.0,-28.0,-2.0,5.0,6.0,7.0,1651086842371283.0,2
977,-13.0,-8.0,-50.0,-8.0,-2.0,-4.0,0.0,1.0,1651086842371283.0,2
978,-2.0,4.0,-27.0,-15.0,0.0,1.0,1.0,-3.0,1651086842384367.0,2
979,-16.0,5.0,61.0,48.0,-1.0,-12.0,1.0,20.0,1651086842384367.0,2
980,7.0,-7.0,-33.0,-23.0,-1.0,2.0,11.0,-5.0,1651086842393094.0,2
981,-24.0,3.0,1.0,60.0,14.0,-6.0,-11.0,-16.0,1651086842393094.0,2
982,36.0,8.0,16.0,-4.0,1.0,29.0,22.0,12.0,1651086842408060.0,2
983,21.0,5.0,-1.0,-67.0,-21.0,-7.0,-6.0,1.0,1651086842408060.0,2
984,13.0,-8.0,-22.0,43.0,6.0,-15.0,-10.0,9.0,1651086842409080.0,2
985,-7.0,5.0,20.0,-12.0,-3.0,13.0,9.0,7.0,1651086842409080.0,2
986,-6.0,4.0,23.0,39.0,13.0,-7.0,-8.0,-10.0,1651086842430378.0,2
987,-2.0,-5.0,50.0,32.0,7.0,3.0,-1.0,9.0,1651086842430378.0,2
988,-22.0,1.0,0.0,-24.0,-14.0,-3.0,-3.0,-4.0,1651086842431255.0,2
989,24.0,11.0,35.0,-16.0,-1.0,0.0,-4.0,-14.0,1651086842431255.0,2
990,-9.0,-8.0,-50.0,0.0,-9.0,-10.0,-4.0,-13.0,1651086842444383.0,2
991,3.0,0.0,-24.0,21.0,11.0,15.0,8.0,10.0,1651086842444383.0,2
992,-21.0,6.0,54.0,44.0,11.0,0.0,1.0,-7.0,1651086842453282.0,2
993,19.0,-24.0,-70.0,-29.0,2.0,3.0,4.0,24.0,1651086842453282.0,2
994,18.0,7.0,32.0,2.0,-14.0,-6.0,-8.0,-6.0,1651086842467881.0,2
995,-28.0,-9.0,-93.0,-25.0,1.0,-6.0,-9.0,-36.0,1651086842467881.0,2
996,15.0,-17.0,-42.0,-31.0,-11.0,-3.0,-4.0,-12.0,1651086842468881.0,2
997,-3.0,14.0,31.0,51.0,13.0,6.0,6.0,8.0,1651086842468881.0,2
998,-22.0,-1.0,18.0,-5.0,13.0,6.0,2.0,12.0,1651086842490631.0,2
999,8.0,-14.0,-9.0,-29.0,-15.0,-6.0,-5.0,2.0,1651086842490631.0,2
1000,27.0,4.0,-7.0,4.0,5.0,0.0,-8.0,2.0,1651086842491142.0,2
1001,-17.0,10.0,47.0,-36.0,1.0,10.0,14.0,3.0,1651086842491142.0,2
1002,1.0,-15.0,-53.0,29.0,5.0,-6.0,-8.0,-8.0,1651086842504381.0,2
1003,-5.0,4.0,-16.0,-26.0,-13.0,-8.0,-8.0,-2.0,1651086842504381.0,2
1004,0.0,-8.0,34.0,-21.0,-4.0,8.0,9.0,3.0,1651086842513109.0,2
1005,15.0,11.0,38.0,12.0,2.0,-3.0,-5.0,-8.0,1651086842513109.0,2
1006,-8.0,-14.0,1.0,14.0,8.0,3.0,0.0,-2.0,1651086842527224.0,2
1007,-4.0,3.0,26.0,18.0,5.0,0.0,-4.0,-14.0,1651086842527224.0,2
1008,20.0,4.0,-17.0,-40.0,1.0,0.0,7.0,10.0,1651086842529219.0,2
1009,11.0,-2.0,-50.0,3.0,-5.0,0.0,-3.0,27.0,1651086842529219.0,2
1010,-26.0,2.0,6.0,-15.0,-7.0,-3.0,-1.0,-11.0,1651086842550476.0,2
1011,-10.0,-5.0,2.0,0.0,1.0,2.0,3.0,9.0,1651086842550476.0,2
1012,4.0,8.0,70.0,27.0,10.0,1.0,-1.0,-5.0,1651086842551488.0,2
1013,0.0,-9.0,-111.0,-14.0,-6.0,0.0,1.0,8.0,1651086842551488.0,2
1014,11.0,7.0,34.0,23.0,8.0,-3.0,-8.0,-9.0,1651086842563348.0,2
1015,23.0,4.0,2.0,-5.0,-4.0,0.0,2.0,-21.0,1651086842563348.0,2
1016,-18.0,-3.0,-41.0,-38.0,-14.0,2.0,8.0,9.0,1651086842572373.0,2
1017,1.0,-4.0,-10.0,29.0,1.0,0.0,-4.0,-6.0,1651086842572373.0,2
1018,11.0,9.0,46.0,6.0,4.0,8.0,11.0,25.0,1651086842588056.0,2
1019,-5.0,0.0,-56.0,-9.0,0.0,1.0,-4.0,-16.0,1651086842588056.0,2
1020,-1.0,0.0,43.0,27.0,7.0,-6.0,-6.0,-9.0,1651086842589059.0,2
1021,10.0,-16.0,-52.0,-14.0,-19.0,-6.0,-3.0,-1.0,1651086842589059.0,2
1022,-14.0,12.0,50.0,29.0,11.0,5.0,10.0,5.0,1651086842610584.0,2
1023,6.0,3.0,6.0,27.0,-3.0,-2.0,-1.0,25.0,1651086842610584.0,2
1024,2.0,5.0,30.0,-6.0,-1.0,-7.0,-11.0,-5.0,1651086842612049.0,2
1025,-11.0,-10.0,-10.0,-47.0,-10.0,0.0,1.0,-16.0,1651086842612049.0,2
1026,11.0,-4.0,-16.0,-33.0,-7.0,-4.0,-2.0,0.0,1651086842623209.0,2
1027,-8.0,-7.0,-3.0,-21.0,-5.0,-4.0,-6.0,-30.0,1651086842623209.0,2
1028,-19.0,-11.0,-43.0,7.0,-4.0,-1.0,-2.0,8.0,1651086842633058.0,2
1029,4.0,16.0,4.0,1.0,11.0,3.0,0.0,19.0,1651086842633058.0,2
1030,15.0,-2.0,-40.0,-41.0,-12.0,-8.0,-8.0,-22.0,1651086842648055.0,2
1031,-23.0,-17.0,-18.0,-11.0,3.0,6.0,6.0,-15.0,1651086842648055.0,2
1032,0.0,7.0,-2.0,21.0,4.0,-3.0,3.0,3.0,1651086842649055.0,2
1033,-10.0,-11.0,5.0,-5.0,0.0,-10.0,-2.0,18.0,1651086842649055.0,2
1034,0.0,3.0,6.0,-13.0,-14.0,12.0,11.0,14.0,1651086842670579.0,2
1035,6.0,6.0,36.0,8.0,14.0,1.0,0.0,2.0,1651086842670579.0,2
1036,7.0,-1.0,19.0,-12.0,-14.0,1.0,4.0,-10.0,1651086842671212.0,2
1037,-9.0,-8.0,-40.0,4.0,4.0,-3.0,-5.0,8.0,1651086842671212.0,2
1038,-4.0,8.0,19.0,12.0,6.0,-5.0,-5.0,-5.0,1651086842692359.0,2
1039,12.0,2.0,47.0,61.0,5.0,-3.0,1.0,13.0,1651086842692359.0,2
1040,-31.0,-8.0,-68.0,-42.0,-8.0,2.0,1.0,3.0,1651086842694246.0,2
1041,28.0,6.0,39.0,-13.0,-2.0,2.0,4.0,-5.0,1651086842694246.0,2
1042,-3.0,1.0,-24.0,-20.0,1.0,-3.0,-3.0,-2.0,1651086842708057.0,2
1043,15.0,4.0,39.0,50.0,7.0,8.0,4.0,14.0,1651086842708057.0,2
1044,-18.0,3.0,18.0,2.0,13.0,-7.0,-9.0,-6.0,1651086842709059.0,2
1045,7.0,2.0,13.0,24.0,-2.0,2.0,2.0,-19.0,1651086842709059.0,2
1046,4.0,-7.0,-22.0,13.0,3.0,3.0,-1.0,-1.0,1651086842730250.0,2
1047,14.0,13.0,60.0,-27.0,-12.0,-2.0,6.0,21.0,1651086842730250.0,2
1048,5.0,-6.0,-56.0,-6.0,-5.0,-5.0,-3.0,15.0,1651086842731235.0,2
1049,-22.0,-1.0,-11.0,6.0,13.0,13.0,2.0,-13.0,1651086842731235.0,2
1050,-2.0,-5.0,16.0,-5.0,-17.0,-9.0,-3.0,-4.0,1651086842753412.0,2
1051,-7.0,2.0,-4.0,-1.0,4.0,-4.0,-5.0,-16.0,1651086842753412.0,2
1052,7.0,-6.0,-23.0,0.0,1.0,1.0,-3.0,6.0,1651086842754268.0,2
1053,4.0,2.0,-7.0,16.0,14.0,1.0,1.0,-12.0,1651086842754268.0,2
1054,-2.0,4.0,24.0,5.0,-8.0,4.0,8.0,27.0,1651086842767202.0,2
1055,-16.0,-4.0,-52.0,-20.0,-7.0,3.0,-3.0,-5.0,1651086842767202.0,2
1056,0.0,-2.0,29.0,18.0,2.0,-6.0,-8.0,-5.0,1651086842769198.0,2
1057,-1.0,-1.0,-10.0,-9.0,0.0,-5.0,-3.0,4.0,1651086842769198.0,2
1058,1.0,-4.0,0.0,-1.0,-5.0,-2.0,-2.0,-14.0,1651086842790475.0,2
1059,4.0,2.0,-43.0,-38.0,0.0,5.0,6.0,8.0,1651086842790475.0,2
1060,11.0,-8.0,45.0,68.0,10.0,-2.0,-1.0,-18.0,1651086842791463.0,2
1061,-12.0,5.0,32.0,-31.0,-13.0,-4.0,-8.0,-20.0,1651086842791463.0,2
1062,17.0,2.0,15.0,68.0,14.0,2.0,0.0,6.0,1651086842812380.0,2
1063,-16.0,-10.0,-30.0,-40.0,-3.0,2.0,1.0,2.0,1651086842812380.0,2
1064,27.0,24.0,23.0,28.0,12.0,10.0,13.0,35.0,1651086842814239.0,2
1065,-6.0,-13.0,-2.0,-18.0,-9.0,-7.0,-10.0,8.0,1651086842814239.0,2
1066,-1.0,-5.0,-44.0,-26.0,3.0,1.0,-1.0,-19.0,1651086842827757.0,2
1067,-4.0,0.0,3.0,44.0,1.0,-6.0,0.0,-3.0,1651086842827757.0,2
1068,4.0,1.0,-32.0,-6.0,-12.0,2.0,9.0,10.0,1651086842829310.0,2
1069,10.0,1.0,37.0,-26.0,0.0,-4.0,-2.0,-1.0,1651086842829310.0,2
1070,-9.0,13.0,-24.0,-13.0,-12.0,-11.0,-4.0,20.0,1651086842850416.0,2
1071,19.0,-11.0,-26.0,-13.0,-4.0,11.0,0.0,-8.0,1651086842850416.0,2
1072,-11.0,-2.0,-10.0,-15.0,0.0,1.0,-5.0,-12.0,1651086842851250.0,2
1073,4.0,10.0,38.0,36.0,1.0,9.0,16.0,32.0,1651086842851250.0,2
1074,-6.0,-13.0,6.0,-12.0,5.0,-10.0,-16.0,-32.0,1651086842873216.0,2
1075,-3.0,5.0,-5.0,21.0,12.0,-1.0,-1.0,-1.0,1651086842873216.0,2
1076,16.0,-3.0,-22.0,-52.0,-17.0,-4.0,-1.0,-17.0,1651086842874248.0,2
1077,9.0,-1.0,38.0,40.0,4.0,-1.0,-1.0,8.0,1651086842874248.0,2
1078,-16.0,-1.0,15.0,17.0,2.0,5.0,3.0,12.0,1651086842887544.0,2
1079,2.0,10.0,78.0,26.0,6.0,2.0,3.0,2.0,1651086842887544.0,2
1080,-13.0,-17.0,1.0,-34.0,-8.0,-3.0,-7.0,-7.0,1651086842893677.0,2
1081,-13.0,6.0,-26.0,31.0,4.0,-2.0,-1.0,-5.0,1651086842893677.0,2
1082,1.0,-2.0,23.0,-23.0,-12.0,-4.0,0.0,-2.0,1651086842910366.0,2
1083,-1.0,-4.0,-25.0,-18.0,-13.0,-4.0,2.0,1.0,1651086842910366.0,2
1084,-5.0,4.0,10.0,-6.0,4.0,0.0,0.0,1.0,1651086842912215.0,2
1085,7.0,1.0,-17.0,10.0,-6.0,-3.0,0.0,9.0,1651086842912215.0,2
1086,-8.0,-1.0,11.0,12.0,7.0,4.0,2.0,-4.0,1651086842933224.0,2
1087,4.0,-4.0,1.0,5.0,5.0,-2.0,-1.0,6.0,1651086842933224.0,2
1088,9.0,11.0,20.0,53.0,2.0,1.0,-3.0,-11.0,1651086842934260.0,2
1089,-6.0,-11.0,-15.0,-42.0,-13.0,-4.0,-1.0,-9.0,1651086842934260.0,2
1090,-3.0,-5.0,-32.0,-21.0,-1.0,2.0,1.0,-4.0,1651086842947319.0,2
1091,-3.0,6.0,20.0,22.0,1.0,-5.0,-5.0,-2.0,1651086842947319.0,2
1092,4.0,2.0,37.0,18.0,1.0,1.0,3.0,-10.0,1651086842953305.0,2
1093,-16.0,-4.0,-21.0,-5.0,2.0,-3.0,-7.0,11.0,1651086842953305.0,2
1094,10.0,5.0,11.0,17.0,5.0,9.0,9.0,14.0,1651086842970610.0,2
1095,-15.0,-8.0,-7.0,-51.0,-16.0,-6.0,-3.0,-30.0,1651086842970610.0,2
1096,2.0,-5.0,29.0,50.0,0.0,-1.0,-3.0,-1.0,1651086842971537.0,2
1097,-11.0,-14.0,-48.0,-56.0,-14.0,-9.0,-4.0,2.0,1651086842971537.0,2
1098,-3.0,8.0,33.0,-4.0,3.0,0.0,-1.0,1.0,1651086843000342.0,2
1099,-12.0,2.0,-26.0,4.0,-7.0,-7.0,-7.0,-2.0,1651086843000342.0,2
1100,1.0,-1.0,-9.0,-39.0,2.0,2.0,1.0,7.0,1651086843001191.0,2
1101,-10.0,1.0,40.0,52.0,7.0,2.0,1.0,-9.0,1651086843001191.0,2
1102,7.0,4.0,-13.0,-20.0,-9.0,-2.0,2.0,14.0,1651086843007174.0,2
1103,11.0,-4.0,-3.0,0.0,1.0,3.0,1.0,-9.0,1651086843007174.0,2
1104,-1.0,-6.0,-37.0,-36.0,-10.0,-8.0,-4.0,6.0,1651086843014302.0,2
1105,-2.0,9.0,28.0,15.0,15.0,10.0,6.0,-1.0,1651086843014302.0,2
1106,10.0,-2.0,3.0,-2.0,-3.0,-4.0,-13.0,-29.0,1651086843038525.0,2
1107,0.0,-6.0,-31.0,-17.0,1.0,3.0,11.0,36.0,1651086843038525.0,2
1108,8.0,7.0,-1.0,17.0,11.0,2.0,0.0,-6.0,1651086843039376.0,2
1109,2.0,4.0,5.0,-24.0,-13.0,5.0,5.0,-43.0,1651086843039376.0,2
1110,-12.0,4.0,2.0,19.0,12.0,4.0,-3.0,2.0,1651086843053207.0,2
1111,7.0,-4.0,23.0,-18.0,-2.0,-2.0,-2.0,17.0,1651086843053207.0,2
1112,-6.0,4.0,-4.0,37.0,4.0,-1.0,-2.0,6.0,1651086843054207.0,2
1113,-17.0,0.0,9.0,16.0,6.0,-2.0,3.0,1.0,1651086843054207.0,2
1114,24.0,-9.0,-53.0,-12.0,-2.0,-2.0,-2.0,-1.0,1651086843067173.0,2
1115,-7.0,0.0,-18.0,-31.0,-7.0,-6.0,-3.0,-4.0,1651086843067173.0,2
1116,-8.0,0.0,-9.0,-11.0,5.0,8.0,2.0,-13.0,1651086843074302.0,2
1117,-1.0,-5.0,19.0,-9.0,-6.0,-3.0,-3.0,16.0,1651086843074302.0,2
1118,2.0,-8.0,-14.0,-3.0,5.0,3.0,5.0,5.0,1651086843090397.0,2
1119,-2.0,8.0,9.0,45.0,13.0,-1.0,-2.0,-4.0,1651086843090397.0,2
1120,-5.0,-6.0,-43.0,-22.0,-11.0,-4.0,2.0,1.0,1651086843091240.0,2
1121,5.0,7.0,-1.0,-31.0,-6.0,-4.0,-3.0,-1.0,1651086843091240.0,2
1122,-15.0,-10.0,38.0,19.0,5.0,1.0,1.0,8.0,1651086843112316.0,2
1123,6.0,3.0,-32.0,-20.0,-6.0,-1.0,-3.0,-14.0,1651086843112316.0,2
1124,-6.0,-16.0,-1.0,-5.0,-1.0,0.0,4.0,11.0,1651086843114215.0,2
1125,-7.0,4.0,-24.0,6.0,7.0,4.0,-3.0,-19.0,1651086843114215.0,2
1126,-8.0,-9.0,-34.0,-19.0,-8.0,-6.0,-1.0,-5.0,1651086843127501.0,2
1127,-18.0,3.0,50.0,16.0,2.0,5.0,1.0,-1.0,1651086843127501.0,2
1128,14.0,0.0,21.0,18.0,2.0,-1.0,-6.0,4.0,1651086843133347.0,2
1129,7.0,-14.0,-56.0,-35.0,-2.0,-6.0,-2.0,1.0,1651086843133347.0,2
1130,-7.0,7.0,10.0,31.0,-8.0,2.0,6.0,6.0,1651086843150389.0,2
1131,2.0,2.0,28.0,41.0,10.0,2.0,1.0,8.0,1651086843150389.0,2
1132,-3.0,3.0,-31.0,-14.0,-2.0,-4.0,-1.0,-4.0,1651086843151232.0,2
1133,1.0,-6.0,-14.0,1.0,-3.0,2.0,3.0,18.0,1651086843151232.0,2
1134,4.0,5.0,22.0,9.0,3.0,-5.0,-8.0,-2.0,1651086843173207.0,2
1135,4.0,-5.0,-36.0,3.0,4.0,2.0,2.0,7.0,1651086843173207.0,2
1136,-10.0,-4.0,6.0,-2.0,-7.0,-2.0,-2.0,-5.0,1651086843174207.0,2
1137,2.0,7.0,21.0,27.0,5.0,-1.0,-4.0,-12.0,1651086843174207.0,2
1138,-6.0,-7.0,0.0,-34.0,-5.0,2.0,2.0,-1.0,1651086843186827.0,2
1139,21.0,8.0,-16.0,-6.0,-5.0,-2.0,-1.0,3.0,1651086843186827.0,2
1140,-12.0,-3.0,48.0,45.0,10.0,3.0,-2.0,-11.0,1651086843195211.0,2
1141,5.0,3.0,-9.0,-3.0,-9.0,-2.0,6.0,2.0,1651086843195211.0,2
1142,13.0,-6.0,-9.0,-8.0,-2.0,-2.0,2.0,28.0,1651086843210382.0,2
1143,-20.0,-2.0,6.0,-3.0,-4.0,-2.0,-8.0,-26.0,1651086843210382.0,2
1144,16.0,9.0,-13.0,-33.0,1.0,6.0,3.0,16.0,1651086843211224.0,2
1145,-2.0,-13.0,42.0,22.0,4.0,2.0,5.0,21.0,1651086843211224.0,2
1146,11.0,18.0,41.0,-21.0,-5.0,-3.0,-1.0,-3.0,1651086843232744.0,2
1147,-6.0,-3.0,-15.0,5.0,-2.0,-6.0,-3.0,0.0,1651086843232744.0,2
1148,9.0,2.0,-27.0,-13.0,6.0,6.0,4.0,5.0,1651086843233780.0,2
1149,0.0,5.0,-2.0,38.0,3.0,-1.0,0.0,-3.0,1651086843233780.0,2
1150,0.0,-4.0,-1.0,-6.0,-1.0,1.0,3.0,9.0,1651086843246178.0,2
1151,-17.0,-13.0,-22.0,-6.0,-2.0,-3.0,-7.0,-16.0,1651086843246178.0,2
1152,-8.0,9.0,26.0,-12.0,-2.0,-1.0,0.0,-8.0,1651086843255195.0,2
1153,19.0,1.0,-12.0,-4.0,-4.0,2.0,3.0,6.0,1651086843255195.0,2
1154,-6.0,6.0,6.0,25.0,10.0,3.0,0.0,-11.0,1651086843271238.0,2
1155,2.0,-12.0,-12.0,-50.0,-25.0,-8.0,-2.0,-1.0,1651086843271238.0,2
1156,-1.0,-1.0,23.0,42.0,8.0,-1.0,-3.0,-6.0,1651086843272198.0,2
1157,-3.0,-3.0,2.0,-41.0,-12.0,-1.0,-3.0,-4.0,1651086843272198.0,2
1158,-5.0,-3.0,-29.0,2.0,-2.0,-2.0,-1.0,4.0,1651086843293091.0,2
1159,-2.0,5.0,27.0,8.0,12.0,5.0,0.0,-12.0,1651086843293091.0,2
1160,17.0,-7.0,-27.0,-4.0,-11.0,-5.0,-2.0,-2.0,1651086843294092.0,2
1161,-13.0,1.0,37.0,9.0,3.0,-2.0,-2.0,-5.0,1651086843294092.0,2
1162,1.0,2.0,-23.0,5.0,-6.0,-3.0,-5.0,-2.0,1651086843306094.0,2
1163,12.0,-4.0,-25.0,10.0,4.0,1.0,6.0,-3.0,1651086843306094.0,2
1164,-10.0,-7.0,-9.0,-15.0,1.0,-1.0,-2.0,-14.0,1651086843315035.0,2
1165,14.0,7.0,7.0,23.0,9.0,4.0,4.0,-4.0,1651086843315035.0,2
1166,4.0,-4.0,-34.0,-25.0,-4.0,2.0,2.0,6.0,1651086843329557.0,2
1167,-6.0,5.0,7.0,-3.0,-3.0,-6.0,-3.0,-1.0,1651086843329557.0,2
1168,-8.0,5.0,20.0,0.0,-9.0,-6.0,-2.0,3.0,1651086843337544.0,2
1169,5.0,-5.0,-23.0,16.0,7.0,8.0,3.0,1.0,1651086843337544.0,2
1170,-8.0,2.0,25.0,-8.0,0.0,2.0,3.0,-14.0,1651086843352846.0,2
1171,11.0,0.0,0.0,16.0,-3.0,-3.0,0.0,11.0,1651086843352846.0,2
1172,-1.0,-4.0,-24.0,-39.0,-10.0,-6.0,0.0,6.0,1651086843353846.0,2
1173,0.0,7.0,41.0,-2.0,1.0,-2.0,-2.0,8.0,1651086843353846.0,2
1174,-17.0,-10.0,-16.0,4.0,6.0,0.0,-1.0,-17.0,1651086843366349.0,2
1175,1.0,5.0,4.0,36.0,8.0,6.0,3.0,11.0,1651086843366349.0,2
1176,-4.0,-4.0,6.0,-29.0,-9.0,-5.0,-7.0,-28.0,1651086843375201.0,2
1177,-4.0,-6.0,-2.0,2.0,-1.0,-3.0,-5.0,-4.0,1651086843375201.0,2
1178,4.0,5.0,2.0,0.0,0.0,5.0,5.0,2.0,1651086843390269.0,2
1179,-10.0,-14.0,26.0,-1.0,2.0,-2.0,-7.0,-30.0,1651086843390269.0,2
1180,3.0,1.0,-28.0,-6.0,4.0,2.0,1.0,13.0,1651086843391213.0,2
1181,-5.0,4.0,-5.0,-3.0,-8.0,-4.0,-3.0,-1.0,1651086843391213.0,2
1182,0.0,-7.0,-4.0,-5.0,-8.0,-7.0,-4.0,-7.0,1651086843413091.0,2
1183,12.0,9.0,34.0,12.0,5.0,5.0,3.0,17.0,1651086843413091.0,2
1184,2.0,7.0,-47.0,-3.0,1.0,3.0,2.0,5.0,1651086843414091.0,2
1185,-7.0,-17.0,-6.0,-27.0,-5.0,-2.0,-3.0,-4.0,1651086843414091.0,2
1186,-1.0,-2.0,-5.0,23.0,1.0,-5.0,-5.0,-1.0,1651086843426206.0,2
1187,-1.0,4.0,-5.0,-20.0,-2.0,1.0,1.0,5.0,1651086843426206.0,2
1188,-3.0,2.0,23.0,4.0,1.0,-1.0,-2.0,-13.0,1651086843435199.0,2
1189,0.0,1.0,2.0,15.0,1.0,-2.0,-1.0,6.0,1651086843435199.0,2
1190,-3.0,-4.0,-20.0,-5.0,2.0,0.0,-2.0,-4.0,1651086843450367.0,2
1191,-2.0,1.0,5.0,-10.0,1.0,4.0,1.0,0.0,1651086843450367.0,2
1192,0.0,-3.0,10.0,7.0,-1.0,-1.0,1.0,7.0,1651086843451220.0,2
1193,-3.0,0.0,-9.0,2.0,-8.0,-4.0,-4.0,-2.0,1651086843451220.0,2
1194,1.0,2.0,1.0,-13.0,10.0,1.0,0.0,-5.0,1651086843473058.0,2
1195,-5.0,-1.0,1.0,-3.0,-6.0,-3.0,-3.0,-1.0,1651086843473058.0,2
1196,-1.0,-5.0,11.0,4.0,-2.0,2.0,0.0,5.0,1651086843474100.0,2
1197,3.0,3.0,-7.0,5.0,11.0,4.0,1.0,0.0,1651086843474100.0,2
1198,-2.0,-1.0,6.0,1.0,-11.0,-4.0,-1.0,-4.0,1651086843486663.0,2
1199,0.0,10.0,10.0,5.0,4.0,0.0,1.0,2.0,1651086843486663.0,2
1200,0.0,-5.0,-9.0,13.0,15.0,5.0,3.0,6.0,1651086843495202.0,2
1201,-2.0,5.0,7.0,-14.0,-9.0,-3.0,-3.0,-1.0,1651086843495202.0,2
1202,2.0,3.0,-3.0,6.0,6.0,2.0,0.0,0.0,1651086843510583.0,2
1203,-3.0,-2.0,-6.0,-4.0,0.0,-1.0,0.0,1.0,1651086843510583.0,2
1204,-2.0,1.0,15.0,7.0,-15.0,-7.0,-3.0,-1.0,1651086843511336.0,2
1205,0.0,-3.0,-12.0,-11.0,11.0,5.0,2.0,1.0,1651086843511336.0,2
1206,0.0,2.0,3.0,3.0,-1.0,-3.0,-3.0,0.0,1651086843533095.0,2
1207,2.0,6.0,2.0,-11.0,-5.0,5.0,1.0,0.0,1651086843533095.0,2
1208,1.0,-6.0,6.0,19.0,17.0,4.0,1.0,1.0,1651086843534099.0,2
1209,0.0,2.0,-9.0,-8.0,-10.0,-6.0,-3.0,-2.0,1651086843534099.0,2
1210,-1.0,0.0,10.0,2.0,-2.0,0.0,-1.0,-2.0,1651086843546685.0,2
1211,-2.0,-7.0,-9.0,-3.0,-4.0,-7.0,-1.0,-1.0,1651086843546685.0,2
1212,1.0,11.0,13.0,-2.0,5.0,8.0,4.0,3.0,1651086843563063.0,2
1213,0.0,-8.0,-17.0,-7.0,-4.0,-1.0,-2.0,-2.0,1651086843563063.0,2
1214,-1.0,-8.0,0.0,8.0,0.0,-3.0,-2.0,-4.0,1651086843569029.0,2
1215,0.0,0.0,-5.0,-7.0,-3.0,-2.0,-1.0,0.0,1651086843569029.0,2
1216,-5.0,1.0,5.0,-4.0,-9.0,-4.0,-3.0,-2.0,1651086843576154.0,2
1217,0.0,3.0,7.0,0.0,-1.0,0.0,2.0,-2.0,1651086843576154.0,2
1218,-1.0,-4.0,-4.0,-4.0,10.0,3.0,0.0,1.0,1651086843592327.0,2
1219,0.0,0.0,4.0,8.0,4.0,1.0,1.0,2.0,1651086843592327.0,2
1220,1.0,-6.0,-5.0,-4.0,-9.0,-4.0,-3.0,-1.0,1651086843594182.0,2
1221,-1.0,-10.0,3.0,-5.0,-2.0,0.0,-2.0,-1.0,1651086843594182.0,2
1222,-1.0,17.0,-8.0,-8.0,-10.0,-4.0,-2.0,-2.0,1651086843606302.0,2
1223,-3.0,-9.0,0.0,6.0,1.0,0.0,-1.0,-2.0,1651086843606302.0,2
1224,-2.0,2.0,-6.0,-5.0,-1.0,-2.0,-1.0,-1.0,1651086843615289.0,2
1225,-1.0,2.0,2.0,5.0,5.0,6.0,0.0,0.0,1651086843615289.0,2
1226,1.0,-15.0,2.0,-2.0,-2.0,1.0,0.0,0.0,1651086843630366.0,2
1227,0.0,4.0,-3.0,-2.0,2.0,-1.0,0.0,2.0,1651086843630366.0,2
1228,1.0,5.0,8.0,-4.0,-6.0,-3.0,-1.0,-1.0,1651086843644366.0,2
1229,-3.0,-7.0,-9.0,5.0,3.0,-1.0,0.0,-1.0,1651086843644366.0,2
1230,-2.0,-4.0,-3.0,0.0,-6.0,1.0,0.0,-2.0,1651086843652365.0,2
1231,-2.0,6.0,7.0,0.0,1.0,1.0,-2.0,-2.0,1651086843652365.0,2
1232,-1.0,-4.0,-6.0,-1.0,0.0,-2.0,-2.0,1.0,1651086843654222.0,2
1233,1.0,6.0,-2.0,-2.0,-1.0,-3.0,0.0,0.0,1651086843654222.0,2
1234,1.0,0.0,7.0,-4.0,-2.0,-3.0,-1.0,0.0,1651086843675391.0,2
1235,0.0,-3.0,-2.0,2.0,1.0,0.0,0.0,0.0,1651086843675391.0,2
1236,0.0,-4.0,-10.0,-2.0,1.0,-1.0,0.0,-1.0,1651086843676255.0,2
1237,1.0,12.0,6.0,0.0,2.0,1.0,1.0,-2.0,1651086843676255.0,2
1238,-1.0,-12.0,1.0,-2.0,-3.0,-1.0,-3.0,-1.0,1651086843690326.0,2
1239,0.0,1.0,3.0,-2.0,-4.0,-1.0,-1.0,0.0,1651086843690326.0,2
1240,-1.0,-7.0,-20.0,-3.0,-3.0,-1.0,-1.0,-1.0,1651086843697345.0,2
1241,0.0,5.0,9.0,0.0,-1.0,0.0,-1.0,1.0,1651086843697345.0,2
1242,-1.0,5.0,4.0,3.0,3.0,1.0,-1.0,0.0,1651086843720084.0,2
1243,-1.0,-3.0,-3.0,-3.0,1.0,0.0,0.0,-1.0,1651086843720084.0,2
1244,1.0,5.0,3.0,1.0,-2.0,0.0,-1.0,-1.0,1651086843721979.0,2
1245,-2.0,-10.0,-6.0,-3.0,-4.0,-3.0,-3.0,-2.0,1651086843721979.0,2
1246,0.0,2.0,0.0,-5.0,-4.0,1.0,-1.0,0.0,1651086843736051.0,2
1247,-3.0,-4.0,-4.0,2.0,-1.0,-1.0,0.0,1.0,1651086843736051.0,2
1248,0.0,-11.0,3.0,-2.0,-3.0,-3.0,0.0,-3.0,1651086843737907.0,2
1249,-2.0,4.0,-4.0,2.0,8.0,6.0,1.0,0.0,1651086843737907.0,2
1250,0.0,1.0,3.0,2.0,0.0,-1.0,0.0,1.0,1651086843750017.0,2
1251,0.0,-1.0,-9.0,-10.0,-2.0,-2.0,-1.0,-1.0,1651086843750017.0,2
1252,0.0,8.0,4.0,-1.0,-8.0,-4.0,-1.0,0.0,1651086843756998.0,2
1253,0.0,-8.0,6.0,6.0,10.0,0.0,-1.0,-2.0,1651086843756998.0,2
1254,0.0,-4.0,-20.0,-1.0,4.0,4.0,2.0,-1.0,1651086843773120.0,2
1255,1.0,-4.0,-5.0,5.0,6.0,3.0,1.0,0.0,1651086843773120.0,2
1256,0.0,5.0,6.0,0.0,-3.0,-2.0,-2.0,-1.0,1651086843774120.0,2
1257,1.0,-1.0,-2.0,-2.0,-6.0,-3.0,-1.0,-1.0,1651086843774120.0,2
1258,1.0,-18.0,2.0,-1.0,-1.0,-1.0,1.0,0.0,1651086843802406.0,2
1259,-2.0,22.0,3.0,-2.0,-2.0,0.0,-1.0,0.0,1651086843802406.0,2
1260,0.0,-5.0,-3.0,-2.0,2.0,0.0,1.0,1.0,1651086843804401.0,2
1261,-1.0,3.0,-2.0,-5.0,-7.0,-3.0,0.0,-1.0,1651086843804401.0,2
1262,-1.0,-3.0,-2.0,-7.0,-3.0,0.0,-1.0,1.0,1651086843808390.0,2
1263,0.0,-3.0,-1.0,13.0,5.0,2.0,1.0,-1.0,1651086843808390.0,2
1264,0.0,-2.0,2.0,3.0,4.0,3.0,1.0,1.0,1651086843818000.0,2
1265,0.0,-3.0,-4.0,-5.0,-6.0,-2.0,-1.0,1.0,1651086843818000.0,0
1266,-1.0,4.0,6.0,4.0,4.0,0.0,0.0,-2.0,1651086843833141.0,0
1267,-1.0,-1.0,-2.0,-6.0,-2.0,0.0,1.0,2.0,1651086843833141.0,0
1268,-2.0,1.0,3.0,2.0,4.0,2.0,1.0,-1.0,1651086843834143.0,0
1269,0.0,1.0,-7.0,-2.0,-3.0,-2.0,-1.0,-1.0,1651086843834143.0,0
1270,-1.0,2.0,11.0,-1.0,-4.0,-2.0,-1.0,-3.0,1651086843856385.0,0
1271,-1.0,-9.0,-16.0,-3.0,-2.0,0.0,0.0,-3.0,1651086843856385.0,0
1272,-1.0,4.0,4.0,1.0,3.0,1.0,-1.0,0.0,1651086843857224.0,0
1273,-1.0,-6.0,-4.0,-3.0,-4.0,0.0,-1.0,-1.0,1651086843857224.0,0
1274,-1.0,9.0,11.0,0.0,1.0,0.0,1.0,0.0,1651086843869732.0,0
1275,1.0,-7.0,-3.0,1.0,-2.0,-3.0,-1.0,1.0,1651086843869732.0,0
1276,-1.0,-1.0,-6.0,-2.0,0.0,-1.0,-3.0,-2.0,1651086843877691.0,0
1277,0.0,1.0,0.0,2.0,7.0,4.0,1.0,1.0,1651086843877691.0,0
1278,-1.0,-3.0,-3.0,-4.0,-8.0,-4.0,-3.0,-1.0,1651086843893033.0,0
1279,-1.0,7.0,1.0,4.0,1.0,0.0,-1.0,-1.0,1651086843893033.0,0
1280,1.0,-4.0,4.0,5.0,13.0,6.0,3.0,4.0,1651086843894096.0,0
1281,-1.0,1.0,3.0,4.0,0.0,-4.0,-1.0,-1.0,1651086843894096.0,0
1282,-1.0,4.0,-5.0,1.0,2.0,-2.0,-1.0,-1.0,1651086843915212.0,0
1283,-1.0,-11.0,-5.0,-4.0,-10.0,-3.0,0.0,-1.0,1651086843915212.0,0
1284,-2.0,0.0,-2.0,-2.0,-1.0,-1.0,0.0,0.0,1651086843917055.0,0
1285,-3.0,-1.0,6.0,-5.0,-4.0,-1.0,0.0,-2.0,1651086843917055.0,0
1286,0.0,-3.0,-6.0,-1.0,-1.0,-1.0,0.0,1.0,1651086843929037.0,0
1287,0.0,-3.0,-2.0,-6.0,-7.0,-4.0,-3.0,-1.0,1651086843929037.0,0
1288,-1.0,-2.0,10.0,14.0,14.0,4.0,0.0,0.0,1651086843936150.0,0
1289,0.0,3.0,-3.0,-7.0,-3.0,-1.0,1.0,0.0,1651086843936150.0,0
1290,0.0,0.0,3.0,13.0,11.0,3.0,1.0,1.0,1651086843952003.0,0
1291,-1.0,-2.0,4.0,0.0,0.0,-1.0,-1.0,0.0,1651086843952003.0,0
1292,-1.0,-3.0,-9.0,-9.0,-7.0,0.0,-3.0,-1.0,1651086843953999.0,0
1293,-1.0,1.0,1.0,-4.0,-8.0,-4.0,-2.0,-1.0,1651086843953999.0,0
1294,-1.0,0.0,-3.0,-7.0,-2.0,0.0,0.0,0.0,1651086843975353.0,0
1295,0.0,4.0,3.0,2.0,3.0,0.0,1.0,-1.0,1651086843975353.0,0
1296,-1.0,-5.0,-2.0,-6.0,-8.0,-4.0,-1.0,-2.0,1651086843976237.0,0
1297,-1.0,9.0,-5.0,4.0,5.0,2.0,2.0,-1.0,1651086843976237.0,0
1298,0.0,-5.0,3.0,1.0,-3.0,1.0,1.0,0.0,1651086843989217.0,0
1299,0.0,8.0,-2.0,-2.0,3.0,1.0,-1.0,-1.0,1651086843989217.0,0
1300,-2.0,-3.0,-2.0,-9.0,-15.0,-4.0,-3.0,-1.0,1651086843996645.0,0
1301,3.0,-8.0,-1.0,8.0,8.0,-1.0,-2.0,0.0,1651086843996645.0,0
1302,-4.0,8.0,0.0,4.0,6.0,5.0,0.0,-1.0,1651086844013091.0,0
1303,1.0,-1.0,-1.0,-5.0,-5.0,-2.0,1.0,1.0,1651086844013091.0,0
1304,0.0,2.0,7.0,-2.0,-2.0,-2.0,-1.0,-2.0,1651086844014093.0,0
1305,0.0,-2.0,-4.0,1.0,-3.0,-2.0,0.0,0.0,1651086844014093.0,0
1306,0.0,-2.0,-5.0,-7.0,-7.0,-4.0,-2.0,-1.0,1651086844035210.0,0
1307,-3.0,-5.0,7.0,-1.0,2.0,2.0,1.0,1.0,1651086844035210.0,0
1308,0.0,8.0,-3.0,-2.0,1.0,-1.0,0.0,0.0,1651086844036245.0,0
1309,-2.0,-3.0,-2.0,3.0,-5.0,-2.0,-2.0,-3.0,1651086844036245.0,0
1310,1.0,6.0,-1.0,6.0,3.0,-1.0,1.0,-2.0,1651086844049217.0,0
1311,-2.0,-8.0,-4.0,-3.0,-6.0,-3.0,-1.0,-3.0,1651086844049217.0,0
1312,0.0,-7.0,-2.0,-5.0,-6.0,0.0,1.0,0.0,1651086844056195.0,0
1313,1.0,10.0,9.0,3.0,9.0,3.0,1.0,1.0,1651086844056195.0,0
1314,-2.0,-12.0,-8.0,-10.0,-7.0,-2.0,-2.0,-1.0,1651086844072152.0,0
1315,0.0,2.0,-3.0,2.0,-3.0,1.0,-1.0,-2.0,1651086844072152.0,0
1316,0.0,1.0,2.0,3.0,5.0,-1.0,0.0,-1.0,1651086844074106.0,0
1317,-2.0,-5.0,1.0,-1.0,-3.0,0.0,-1.0,-1.0,1651086844074106.0,0
1318,1.0,7.0,0.0,-5.0,-1.0,-1.0,0.0,1.0,1651086844095050.0,0
1319,0.0,-7.0,1.0,-3.0,-5.0,-3.0,-1.0,1.0,1651086844095050.0,0
1320,-1.0,-2.0,-13.0,-2.0,-1.0,-2.0,-1.0,-2.0,1651086844097089.0,0
1321,-3.0,7.0,7.0,-3.0,0.0,1.0,1.0,-1.0,1651086844097089.0,0
1322,0.0,-4.0,1.0,2.0,-9.0,-1.0,-2.0,0.0,1651086844110009.0,0
1323,0.0,-4.0,1.0,8.0,14.0,4.0,0.0,2.0,1651086844110009.0,0
1324,0.0,6.0,-1.0,3.0,2.0,3.0,0.0,1.0,1651086844116035.0,0
1325,0.0,-6.0,-5.0,-2.0,-2.0,-2.0,-1.0,-2.0,1651086844116035.0,0
1326,-2.0,0.0,-5.0,-1.0,-1.0,-1.0,1.0,-1.0,1651086844133104.0,0
1327,1.0,4.0,2.0,-3.0,0.0,-5.0,-1.0,0.0,1651086844133104.0,0
1328,0.0,-6.0,-5.0,0.0,0.0,-3.0,-2.0,-1.0,1651086844133945.0,0
1329,-1.0,-1.0,1.0,-5.0,-6.0,0.0,0.0,0.0,1651086844133945.0,0
1330,0.0,1.0,6.0,1.0,-1.0,-2.0,-2.0,-2.0,1651086844155748.0,0
1331,-1.0,5.0,4.0,3.0,-1.0,1.0,0.0,-1.0,1651086844155748.0,0
1332,0.0,-16.0,-14.0,3.0,0.0,0.0,-1.0,1.0,1651086844156589.0,0
1333,0.0,1.0,-3.0,1.0,1.0,-1.0,-4.0,0.0,1651086844156589.0,0
1334,0.0,-13.0,-4.0,-6.0,1.0,1.0,-1.0,-1.0,1651086844169712.0,0
1335,-2.0,11.0,1.0,6.0,17.0,4.0,-1.0,-1.0,1651086844169712.0,0
1336,1.0,3.0,12.0,2.0,-9.0,-2.0,0.0,0.0,1651086844177670.0,0
1337,-2.0,6.0,-1.0,-4.0,-2.0,-1.0,-1.0,-2.0,1651086844177670.0,0
1338,0.0,-9.0,-11.0,-4.0,-4.0,-2.0,-2.0,-2.0,1651086844193229.0,0
1339,2.0,-2.0,-1.0,-6.0,-3.0,2.0,0.0,0.0,1651086844193229.0,0
1340,-1.0,1.0,1.0,-3.0,-3.0,-2.0,-2.0,1.0,1651086844194260.0,0
1341,0.0,-5.0,-5.0,-6.0,-5.0,-3.0,0.0,0.0,1651086844194260.0,0
1342,0.0,1.0,-3.0,3.0,1.0,-3.0,0.0,-2.0,1651086844215380.0,0
1343,1.0,1.0,8.0,1.0,-2.0,2.0,-1.0,-1.0,1651086844215380.0,0
1344,-2.0,3.0,-6.0,-1.0,1.0,0.0,0.0,-2.0,1651086844216260.0,0
1345,2.0,-3.0,1.0,0.0,0.0,3.0,0.0,1.0,1651086844216260.0,0
1346,-1.0,2.0,1.0,0.0,1.0,-1.0,-2.0,0.0,1651086844228227.0,0
1347,-1.0,-3.0,0.0,-3.0,-5.0,-3.0,-2.0,-1.0,1651086844228227.0,0
1348,-2.0,0.0,4.0,-5.0,-5.0,-3.0,0.0,0.0,1651086844237317.0,0
1349,0.0,3.0,-7.0,-3.0,-6.0,-5.0,-1.0,-1.0,1651086844237317.0,0
1350,-2.0,2.0,2.0,5.0,5.0,2.0,3.0,-1.0,1651086844253189.0,0
1351,-2.0,-4.0,-1.0,2.0,7.0,2.0,0.0,-1.0,1651086844253189.0,0
1352,-1.0,2.0,-1.0,-8.0,-10.0,-3.0,0.0,-2.0,1651086844254190.0,0
1353,1.0,1.0,2.0,-1.0,-2.0,-5.0,-3.0,-2.0,1651086844254190.0,0
1354,-1.0,12.0,3.0,11.0,14.0,4.0,0.0,-1.0,1651086844275329.0,0
1355,-1.0,-8.0,-6.0,-6.0,-6.0,-3.0,-1.0,-2.0,1651086844275329.0,0
1356,1.0,-3.0,-1.0,-2.0,-1.0,-1.0,0.0,0.0,1651086844276220.0,0
1357,-1.0,-9.0,-2.0,-1.0,-3.0,-1.0,0.0,0.0,1651086844276220.0,0
1358,-2.0,3.0,2.0,-1.0,-2.0,-1.0,1.0,0.0,1651086844289204.0,0
1359,-1.0,1.0,6.0,1.0,4.0,1.0,1.0,-1.0,1651086844289204.0,0
1360,0.0,4.0,-11.0,-5.0,-2.0,3.0,0.0,1.0,1651086844298251.0,0
1361,-1.0,-5.0,2.0,12.0,4.0,0.0,0.0,-1.0,1651086844298251.0,0
1362,-1.0,-3.0,-3.0,-8.0,-1.0,-2.0,-2.0,-1.0,1651086844313336.0,0
1363,1.0,-1.0,-4.0,-3.0,-9.0,-5.0,-2.0,2.0,1651086844313336.0,0
1364,-3.0,1.0,10.0,6.0,0.0,-1.0,0.0,-1.0,1651086844314203.0,0
1365,-1.0,-6.0,-5.0,6.0,24.0,13.0,4.0,0.0,1651086844314203.0,0
1366,1.0,3.0,4.0,-5.0,-6.0,-2.0,0.0,0.0,1651086844335243.0,0
1367,1.0,2.0,4.0,-8.0,-8.0,-4.0,-1.0,2.0,1651086844335243.0,0
1368,0.0,-4.0,1.0,9.0,4.0,0.0,-1.0,-2.0,1651086844336197.0,0
1369,0.0,2.0,-1.0,9.0,8.0,-1.0,-1.0,1.0,1651086844336197.0,0
1370,-2.0,-2.0,-5.0,-3.0,-1.0,-1.0,-2.0,0.0,1651086844349211.0,0
1371,-1.0,-5.0,-4.0,-3.0,-3.0,-3.0,-1.0,-1.0,1651086844349211.0,0
1372,-1.0,-19.0,5.0,-4.0,-6.0,-2.0,-1.0,1.0,1651086844358259.0,0
1373,-3.0,29.0,-3.0,3.0,7.0,2.0,1.0,-3.0,1651086844358259.0,0
1374,1.0,2.0,4.0,-2.0,1.0,0.0,0.0,-2.0,1651086844373160.0,0
1375,-1.0,0.0,-3.0,2.0,0.0,0.0,0.0,-1.0,1651086844373160.0,0
1376,-2.0,-2.0,1.0,-1.0,0.0,-2.0,-1.0,-1.0,1651086844374196.0,0
1377,-1.0,-8.0,-4.0,-1.0,3.0,0.0,0.0,0.0,1651086844374196.0,0
1378,1.0,-3.0,7.0,-8.0,-10.0,-3.0,-1.0,0.0,1651086844395191.0,0
1379,-1.0,4.0,-1.0,7.0,3.0,3.0,2.0,-2.0,1651086844395191.0,0
1380,1.0,6.0,1.0,2.0,3.0,-1.0,1.0,0.0,1651086844396223.0,0
1381,3.0,-6.0,-5.0,-10.0,-13.0,-5.0,-5.0,1.0,1651086844396223.0,0
1382,0.0,8.0,9.0,6.0,7.0,4.0,0.0,0.0,1651086844409207.0,0
1383,-1.0,-7.0,-2.0,0.0,3.0,3.0,3.0,0.0,1651086844409207.0,0
1384,-2.0,4.0,-3.0,3.0,6.0,3.0,1.0,-1.0,1651086844418219.0,0
1385,0.0,-1.0,2.0,-5.0,-12.0,-3.0,-1.0,-1.0,1651086844418219.0,0
1386,1.0,-9.0,-4.0,-2.0,-8.0,-6.0,-2.0,1.0,1651086844433158.0,0
1387,-2.0,-4.0,-1.0,-13.0,-11.0,-5.0,-1.0,-2.0,1651086844433158.0,0
1388,0.0,8.0,-6.0,10.0,25.0,9.0,0.0,2.0,1651086844434194.0,0
1389,-2.0,-1.0,7.0,12.0,8.0,-2.0,0.0,0.0,1651086844434194.0,0
1390,2.0,12.0,5.0,0.0,-4.0,-2.0,0.0,0.0,1651086844455341.0,0
1391,-4.0,-19.0,-16.0,-5.0,-4.0,-4.0,-1.0,0.0,1651086844455341.0,0
1392,0.0,-12.0,2.0,0.0,4.0,2.0,-1.0,-2.0,1651086844456231.0,0
1393,-1.0,22.0,6.0,-12.0,-12.0,-1.0,1.0,0.0,1651086844456231.0,0
1394,-1.0,-1.0,-3.0,7.0,5.0,2.0,0.0,1.0,1651086844469207.0,0
1395,1.0,3.0,-8.0,6.0,10.0,4.0,-1.0,0.0,1651086844469207.0,0
1396,-1.0,-5.0,-4.0,-7.0,-6.0,-2.0,0.0,-1.0,1651086844477338.0,0
1397,0.0,-4.0,2.0,-2.0,-7.0,-2.0,-3.0,-1.0,1651086844477338.0,0
1398,-2.0,0.0,1.0,2.0,4.0,1.0,0.0,-2.0,1651086844492334.0,0
1399,1.0,5.0,4.0,-2.0,-6.0,-2.0,1.0,-3.0,1651086844492334.0,0
1400,-1.0,3.0,-2.0,1.0,-4.0,-5.0,-2.0,-2.0,1651086844494195.0,0
1401,-2.0,-7.0,-3.0,-4.0,-3.0,-1.0,0.0,0.0,1651086844494195.0,0
1402,-2.0,-2.0,0.0,1.0,3.0,1.0,0.0,1.0,1651086844515329.0,0
1403,-1.0,-10.0,-6.0,0.0,-4.0,-2.0,-2.0,-1.0,1651086844515329.0,0
1404,-2.0,5.0,2.0,1.0,4.0,2.0,1.0,-1.0,1651086844516193.0,0
1405,1.0,-7.0,-2.0,-6.0,-10.0,-5.0,-2.0,0.0,1651086844516193.0,0
1406,-1.0,-2.0,1.0,-7.0,-15.0,-6.0,-2.0,-3.0,1651086844529191.0,0
1407,1.0,7.0,-1.0,7.0,13.0,7.0,0.0,1.0,1651086844529191.0,0
1408,0.0,0.0,2.0,-1.0,-8.0,-3.0,-1.0,0.0,1651086844537302.0,0
1409,-2.0,-6.0,-5.0,1.0,3.0,-1.0,0.0,0.0,1651086844537302.0,0
1410,-1.0,-20.0,-4.0,-5.0,-5.0,0.0,-2.0,-2.0,1651086844552526.0,0
1411,-1.0,17.0,3.0,-1.0,-5.0,-6.0,-1.0,-1.0,1651086844552526.0,0
1412,0.0,-4.0,1.0,-1.0,-1.0,1.0,-1.0,1.0,1651086844554378.0,0
1413,-1.0,8.0,-8.0,0.0,4.0,1.0,0.0,0.0,1651086844554378.0,0
1414,0.0,-1.0,-4.0,-3.0,-2.0,-2.0,0.0,0.0,1651086844575386.0,0
1415,0.0,-2.0,4.0,-7.0,-11.0,-4.0,-2.0,-3.0,1651086844575386.0,0
1416,-2.0,-3.0,-5.0,-2.0,-3.0,-1.0,0.0,-2.0,1651086844576256.0,0
1417,0.0,-6.0,7.0,-1.0,6.0,1.0,1.0,0.0,1651086844576256.0,0
1418,0.0,3.0,-4.0,3.0,-6.0,-1.0,-2.0,-2.0,1651086844598509.0,0
1419,0.0,1.0,2.0,4.0,8.0,2.0,-2.0,0.0,1651086844598509.0,0
1420,-2.0,1.0,1.0,-9.0,-9.0,-5.0,-2.0,0.0,1651086844599072.0,0
1421,-1.0,-2.0,1.0,-1.0,-6.0,-2.0,1.0,0.0,1651086844599072.0,0
1422,-2.0,1.0,2.0,-1.0,5.0,5.0,0.0,-1.0,1651086844612077.0,0
1423,0.0,-6.0,-9.0,-1.0,-8.0,-4.0,-1.0,0.0,1651086844612077.0,0
1424,2.0,14.0,6.0,-6.0,4.0,3.0,0.0,0.0,1651086844614085.0,0
1425,-3.0,-11.0,-1.0,4.0,-4.0,-1.0,-2.0,-1.0,1651086844614085.0,0
1426,1.0,3.0,0.0,6.0,5.0,-1.0,0.0,1.0,1651086844635227.0,0
1427,0.0,-4.0,3.0,4.0,0.0,2.0,0.0,0.0,1651086844635227.0,0
1428,-2.0,-11.0,-10.0,-9.0,-6.0,-4.0,-2.0,-1.0,1651086844636257.0,0
1429,0.0,21.0,12.0,0.0,1.0,0.0,-1.0,-1.0,1651086844636257.0,0
1430,0.0,-6.0,-20.0,-7.0,-7.0,-2.0,-1.0,0.0,1651086844658510.0,0
1431,-2.0,0.0,2.0,2.0,13.0,3.0,0.0,0.0,1651086844658510.0,0
1432,2.0,4.0,2.0,9.0,3.0,3.0,1.0,0.0,1651086844659071.0,0
1433,1.0,-9.0,2.0,0.0,-1.0,2.0,-1.0,-1.0,1651086844659071.0,0
1434,-3.0,2.0,6.0,7.0,11.0,1.0,-1.0,-1.0,1651086844673229.0,0
1435,-2.0,4.0,1.0,-9.0,-19.0,-7.0,-2.0,-2.0,1651086844673229.0,0
1436,-1.0,-6.0,-9.0,-5.0,-5.0,-4.0,0.0,0.0,1651086844674260.0,0
1437,1.0,-3.0,-1.0,9.0,11.0,7.0,-1.0,3.0,1651086844674260.0,0
1438,0.0,4.0,7.0,-2.0,-1.0,0.0,0.0,-1.0,1651086844703382.0,0
1439,-2.0,-10.0,-1.0,4.0,0.0,2.0,1.0,0.0,1651086844703382.0,0
1440,-2.0,5.0,1.0,5.0,-5.0,-3.0,-2.0,-3.0,1651086844704255.0,0
1441,1.0,3.0,1.0,0.0,2.0,0.0,-1.0,-1.0,1651086844704255.0,0
1442,0.0,-3.0,-3.0,-8.0,-11.0,-6.0,-2.0,1.0,1651086844725398.0,0
1443,-2.0,2.0,7.0,5.0,9.0,2.0,0.0,-1.0,1651086844725398.0,0
1444,-2.0,-14.0,-1.0,6.0,9.0,4.0,1.0,-2.0,1651086844726262.0,0
1445,-1.0,14.0,-12.0,-10.0,-11.0,-6.0,-3.0,-2.0,1651086844726262.0,0
1446,0.0,3.0,-1.0,-6.0,-1.0,4.0,3.0,1.0,1651086844732373.0,0
1447,0.0,3.0,4.0,-1.0,-10.0,-6.0,0.0,0.0,1651086844732373.0,0
1448,-1.0,1.0,-2.0,2.0,12.0,5.0,0.0,0.0,1651086844739072.0,0
1449,-1.0,-10.0,-1.0,-1.0,-5.0,-2.0,0.0,-3.0,1651086844739072.0,0
1450,0.0,0.0,-2.0,-9.0,-8.0,-6.0,-3.0,-1.0,1651086844755198.0,0
1451,-1.0,6.0,-6.0,-3.0,-6.0,-3.0,-2.0,-1.0,1651086844755198.0,0
1452,1.0,0.0,2.0,5.0,-4.0,4.0,2.0,1.0,1651086844757066.0,0
1453,-2.0,-5.0,-3.0,2.0,5.0,1.0,1.0,2.0,1651086844757066.0,0
1454,-1.0,3.0,8.0,4.0,12.0,4.0,1.0,-3.0,1651086844777612.0,0
1455,0.0,2.0,-6.0,-7.0,-4.0,-3.0,-2.0,0.0,1651086844777612.0,0
1456,0.0,-3.0,6.0,-2.0,-6.0,-3.0,-3.0,-1.0,1651086844779029.0,0
1457,-2.0,-3.0,-14.0,-5.0,3.0,2.0,1.0,-1.0,1651086844779029.0,0
1458,-1.0,-4.0,-9.0,0.0,-3.0,-1.0,0.0,-1.0,1651086844792411.0,0
1459,1.0,1.0,-1.0,7.0,15.0,5.0,0.0,0.0,1651086844792411.0,0
1460,-2.0,0.0,4.0,-3.0,-5.0,-3.0,-1.0,-1.0,1651086844799219.0,0
1461,-1.0,-4.0,2.0,-1.0,-6.0,-2.0,0.0,-2.0,1651086844799219.0,0
1462,-1.0,-17.0,-6.0,-10.0,-12.0,-5.0,-2.0,-1.0,1651086844815175.0,0
1463,1.0,20.0,1.0,7.0,19.0,6.0,0.0,-1.0,1651086844815175.0,0
1464,1.0,3.0,-1.0,-8.0,-5.0,0.0,-1.0,-1.0,1651086844817160.0,0
1465,-1.0,-2.0,2.0,5.0,0.0,-1.0,2.0,-1.0,1651086844817160.0,0
1466,-1.0,-1.0,1.0,-2.0,-5.0,-3.0,-1.0,1.0,1651086844838352.0,0
1467,0.0,-19.0,0.0,-8.0,-3.0,5.0,0.0,0.0,1651086844838352.0,0
1468,-1.0,7.0,8.0,21.0,16.0,5.0,3.0,1.0,1651086844839209.0,0
1469,2.0,3.0,-1.0,-6.0,-7.0,-5.0,0.0,0.0,1651086844839209.0,0
1470,-2.0,-1.0,-5.0,4.0,13.0,9.0,1.0,0.0,1651086844852404.0,0
1471,-1.0,-4.0,0.0,0.0,-1.0,-3.0,-1.0,0.0,1651086844852404.0,0
1472,1.0,7.0,2.0,-7.0,-5.0,-2.0,-2.0,-1.0,1651086844859211.0,0
1473,-1.0,-7.0,-9.0,-5.0,-8.0,-3.0,-2.0,0.0,1651086844859211.0,0
1474,-1.0,4.0,4.0,-5.0,-8.0,-2.0,0.0,-1.0,1651086844875341.0,0
1475,2.0,6.0,-7.0,17.0,14.0,2.0,-1.0,0.0,1651086844875341.0,0
1476,-4.0,-12.0,-2.0,-7.0,-15.0,-7.0,-3.0,-2.0,1651086844876232.0,0
1477,0.0,-1.0,7.0,3.0,12.0,6.0,0.0,0.0,1651086844876232.0,0
1478,0.0,4.0,-11.0,3.0,4.0,-3.0,-2.0,0.0,1651086844898411.0,0
1479,-2.0,-4.0,13.0,2.0,0.0,2.0,1.0,0.0,1651086844898411.0,0
1480,3.0,2.0,-4.0,3.0,1.0,1.0,2.0,2.0,1651086844899075.0,0
1481,-3.0,-6.0,-8.0,-14.0,-23.0,-11.0,-3.0,-4.0,1651086844899075.0,0
1482,0.0,0.0,3.0,4.0,5.0,3.0,0.0,0.0,1651086844912198.0,0
1483,2.0,3.0,4.0,2.0,-1.0,-3.0,-1.0,-1.0,1651086844912198.0,0
1484,0.0,-11.0,-11.0,-4.0,-5.0,-2.0,0.0,0.0,1651086844919209.0,0
1485,-2.0,13.0,14.0,7.0,8.0,3.0,0.0,-1.0,1651086844919209.0,0
1486,-1.0,-3.0,-3.0,6.0,7.0,2.0,2.0,0.0,1651086844943193.0,0
1487,1.0,-1.0,0.0,-3.0,-6.0,-2.0,0.0,0.0,1651086844943193.0,0
1488,-1.0,0.0,-4.0,-9.0,-4.0,-2.0,-1.0,-1.0,1651086844944230.0,0
1489,0.0,-11.0,-14.0,-18.0,-2.0,2.0,-1.0,-1.0,1651086844944230.0,0
1490,1.0,5.0,1.0,6.0,-2.0,-3.0,0.0,0.0,1651086844958227.0,0
1491,-1.0,-2.0,14.0,12.0,-4.0,-1.0,-1.0,0.0,1651086844958227.0,0
1492,0.0,4.0,-23.0,-16.0,5.0,3.0,-1.0,1.0,1651086844959075.0,0
1493,0.0,-3.0,10.0,9.0,3.0,2.0,0.0,1.0,1651086844959075.0,0
1494,-2.0,-16.0,-11.0,-6.0,-12.0,-8.0,-5.0,-1.0,1651086844973343.0,0
1495,-3.0,16.0,-8.0,-11.0,-3.0,-4.0,-3.0,-2.0,1651086844973343.0,0
1496,1.0,5.0,7.0,15.0,4.0,1.0,2.0,1.0,1651086844980428.0,0
1497,-2.0,-7.0,7.0,-21.0,-9.0,-4.0,-2.0,-3.0,1651086844980428.0,0
1498,0.0,-4.0,-5.0,-1.0,-3.0,1.0,1.0,1.0,1651086844994255.0,0
1499,-4.0,-1.0,-3.0,2.0,6.0,0.0,-3.0,-1.0,1651086844994255.0,0
1500,-1.0,-5.0,-4.0,4.0,10.0,4.0,1.0,0.0,1651086845003197.0,0
1501,2.0,4.0,3.0,2.0,0.0,-1.0,0.0,1.0,1651086845003197.0,0
1502,-2.0,-3.0,-33.0,-24.0,-8.0,-7.0,-3.0,-3.0,1651086845018034.0,0
1503,1.0,-1.0,23.0,13.0,-1.0,2.0,2.0,2.0,1651086845018034.0,0
1504,-2.0,0.0,8.0,-1.0,-4.0,-3.0,-1.0,-2.0,1651086845019068.0,0
1505,0.0,-4.0,-3.0,10.0,0.0,0.0,0.0,2.0,1651086845019068.0,0
1506,2.0,10.0,21.0,28.0,15.0,4.0,1.0,2.0,1651086845032343.0,0
1507,-2.0,-7.0,-5.0,-18.0,-13.0,-6.0,-2.0,-2.0,1651086845032343.0,0
1508,2.0,-1.0,10.0,-7.0,-2.0,1.0,-1.0,0.0,1651086845039239.0,0
1509,0.0,0.0,-11.0,6.0,-3.0,3.0,0.0,1.0,1651086845039239.0,0
1510,2.0,-1.0,-6.0,-7.0,5.0,1.0,1.0,2.0,1651086845055349.0,0
1511,-3.0,2.0,-6.0,-18.0,-1.0,-1.0,-2.0,-4.0,1651086845055349.0,0
1512,-2.0,-2.0,23.0,16.0,-9.0,-5.0,-4.0,-2.0,1651086845056219.0,0
1513,1.0,-2.0,-9.0,-11.0,5.0,1.0,0.0,1.0,1651086845056219.0,0
1514,-1.0,4.0,25.0,19.0,4.0,1.0,0.0,1.0,1651086845077399.0,0
1515,3.0,-5.0,-19.0,1.0,-4.0,0.0,0.0,0.0,1651086845077399.0,0
1516,-4.0,-7.0,-32.0,-42.0,-11.0,-6.0,-3.0,-5.0,1651086845079397.0,0
1517,5.0,3.0,11.0,12.0,6.0,1.0,4.0,24.0,1651086845079397.0,0
1518,-6.0,9.0,1.0,11.0,1.0,1.0,-2.0,-12.0,1651086845091445.0,0
1519,4.0,-15.0,-21.0,-10.0,-5.0,-3.0,-1.0,4.0,1651086845091445.0,0
1520,-8.0,-1.0,-37.0,-20.0,-5.0,-5.0,-7.0,-3.0,1651086845100383.0,0
1521,6.0,0.0,14.0,-7.0,-4.0,-1.0,3.0,18.0,1651086845100383.0,0
1522,1.0,0.0,12.0,-2.0,-3.0,0.0,-5.0,-13.0,1651086845115393.0,0
1523,-35.0,-8.0,3.0,1.0,-8.0,-4.0,0.0,-6.0,1651086845115393.0,0
1524,1.0,0.0,-13.0,8.0,11.0,6.0,4.0,-5.0,1651086845116268.0,0
1525,-12.0,-4.0,-1.0,-9.0,-9.0,-5.0,-7.0,-8.0,1651086845116268.0,0
1526,10.0,7.0,2.0,5.0,6.0,1.0,7.0,28.0,1651086845139116.0,0
1527,10.0,-1.0,-49.0,16.0,2.0,-2.0,-12.0,-53.0,1651086845139116.0,3
1528,-8.0,-4.0,-11.0,6.0,-1.0,-2.0,-1.0,-4.0,1651086845140148.0,3
1529,-19.0,-10.0,-17.0,-28.0,8.0,-1.0,-7.0,-42.0,1651086845140148.0,3
1530,6.0,1.0,-3.0,-9.0,-28.0,-3.0,7.0,14.0,1651086845151392.0,3
1531,29.0,15.0,90.0,47.0,15.0,4.0,5.0,7.0,1651086845151392.0,3
1532,-33.0,-6.0,-26.0,-16.0,-2.0,1.0,-3.0,12.0,1651086845160371.0,3
1533,34.0,-1.0,33.0,19.0,10.0,1.0,2.0,4.0,1651086845160371.0,3
1534,4.0,-2.0,-34.0,-31.0,-4.0,-3.0,-8.0,-17.0,1651086845175221.0,3
1535,-15.0,-3.0,-19.0,7.0,-2.0,-2.0,0.0,9.0,1651086845175221.0,3
1536,19.0,17.0,59.0,34.0,1.0,1.0,6.0,0.0,1651086845176218.0,3
1537,-2.0,6.0,32.0,18.0,6.0,2.0,-3.0,7.0,1651086845176218.0,3
1538,-8.0,-11.0,-4.0,-30.0,1.0,2.0,9.0,16.0,1651086845198292.0,3
1539,-22.0,11.0,29.0,11.0,6.0,7.0,0.0,9.0,1651086845198292.0,3
1540,38.0,7.0,30.0,30.0,8.0,0.0,-1.0,-2.0,1651086845199072.0,3
1541,-13.0,-6.0,-43.0,-7.0,2.0,0.0,-1.0,-1.0,1651086845199072.0,3
1542,-9.0,3.0,29.0,2.0,4.0,5.0,0.0,-4.0,1651086845211507.0,3
1543,10.0,-12.0,-14.0,-11.0,-7.0,-10.0,-7.0,8.0,1651086845211507.0,3
1544,12.0,10.0,67.0,12.0,4.0,14.0,14.0,-1.0,1651086845220379.0,3
1545,-6.0,3.0,-33.0,8.0,-10.0,-3.0,-2.0,-4.0,1651086845220379.0,3
1546,2.0,-9.0,-59.0,-41.0,-10.0,-1.0,-1.0,-10.0,1651086845235219.0,3
1547,-27.0,1.0,0.0,-39.0,-7.0,-4.0,-2.0,9.0,1651086845235219.0,3
1548,30.0,-5.0,-26.0,4.0,3.0,-6.0,-10.0,4.0,1651086845236248.0,3
1549,-33.0,-2.0,18.0,17.0,-1.0,5.0,12.0,27.0,1651086845236248.0,3
1550,17.0,3.0,52.0,43.0,10.0,-2.0,2.0,14.0,1651086845258032.0,3
1551,-34.0,-28.0,-6.0,-18.0,-7.0,-8.0,-11.0,-23.0,1651086845258032.0,3
1552,1.0,6.0,-98.0,-61.0,-10.0,-2.0,-8.0,-34.0,1651086845259042.0,3
1553,15.0,-1.0,-34.0,-7.0,-7.0,1.0,5.0,10.0,1651086845259042.0,3
1554,2.0,-7.0,-7.0,23.0,5.0,-4.0,-11.0,23.0,1651086845271712.0,3
1555,-10.0,1.0,17.0,16.0,0.0,-1.0,7.0,6.0,1651086845271712.0,3
1556,-4.0,16.0,85.0,-2.0,10.0,2.0,2.0,20.0,1651086845286146.0,3
1557,-3.0,-21.0,-15.0,-8.0,-7.0,-19.0,-15.0,-17.0,1651086845286146.0,3
1558,-11.0,14.0,107.0,6.0,-1.0,14.0,15.0,-5.0,1651086845295212.0,3
1559,46.0,-8.0,-44.0,-22.0,-7.0,0.0,9.0,3.0,1651086845295212.0,3
1560,-10.0,4.0,43.0,23.0,9.0,7.0,4.0,7.0,1651086845296242.0,3
1561,23.0,14.0,17.0,-7.0,1.0,1.0,-6.0,9.0,1651086845296242.0,3
1562,0.0,3.0,8.0,14.0,3.0,-5.0,-6.0,-36.0,1651086845318000.0,3
1563,-11.0,4.0,49.0,21.0,14.0,5.0,3.0,11.0,1651086845318000.0,3
1564,-19.0,-6.0,-39.0,13.0,-15.0,1.0,3.0,-30.0,1651086845319008.0,3
1565,23.0,5.0,-44.0,-19.0,11.0,-1.0,0.0,32.0,1651086845319008.0,3
1566,5.0,-3.0,-20.0,-18.0,-9.0,-4.0,-1.0,10.0,1651086845331683.0,3
1567,-23.0,15.0,-24.0,8.0,-2.0,1.0,-3.0,-4.0,1651086845331683.0,3
1568,-21.0,-8.0,46.0,4.0,2.0,-4.0,3.0,9.0,1651086845340072.0,3
1569,-4.0,-19.0,-85.0,-50.0,-15.0,-4.0,-2.0,-8.0,1651086845340072.0,3
1570,-16.0,-7.0,18.0,8.0,0.0,-3.0,-14.0,-58.0,1651086845355300.0,3
1571,15.0,9.0,-29.0,-8.0,4.0,-2.0,0.0,-12.0,1651086845355300.0,3
1572,-13.0,-4.0,6.0,-27.0,-1.0,11.0,7.0,6.0,1651086845356153.0,3
1573,-1.0,18.0,42.0,54.0,-3.0,3.0,0.0,-25.0,1651086845356153.0,3
1574,-31.0,-6.0,-45.0,-61.0,-5.0,-10.0,-12.0,5.0,1651086845377373.0,3
1575,4.0,-9.0,48.0,55.0,-7.0,-1.0,2.0,17.0,1651086845377373.0,3
1576,17.0,-8.0,-63.0,-39.0,-3.0,-4.0,-1.0,13.0,1651086845379371.0,3
1577,-12.0,1.0,39.0,9.0,1.0,-5.0,-5.0,-23.0,1651086845379371.0,3
1578,-8.0,5.0,-8.0,55.0,16.0,7.0,7.0,11.0,1651086845391590.0,3
1579,35.0,9.0,23.0,-12.0,-2.0,12.0,12.0,17.0,1651086845391590.0,3
1580,-24.0,-22.0,-52.0,-21.0,-6.0,-12.0,-15.0,-34.0,1651086845400216.0,3
1581,0.0,-1.0,29.0,-7.0,-3.0,3.0,4.0,13.0,1651086845400216.0,3
1582,12.0,8.0,22.0,42.0,7.0,-1.0,1.0,-10.0,1651086845415348.0,3
1583,4.0,0.0,2.0,-20.0,3.0,4.0,9.0,-12.0,1651086845415348.0,3
1584,16.0,3.0,-35.0,25.0,-2.0,-5.0,-4.0,29.0,1651086845416200.0,3
1585,-8.0,6.0,70.0,4.0,4.0,5.0,4.0,-16.0,1651086845416200.0,3
1586,14.0,3.0,26.0,31.0,7.0,-1.0,-4.0,-17.0,1651086845438032.0,3
1587,18.0,9.0,12.0,-16.0,0.0,0.0,-1.0,6.0,1651086845438032.0,3
1588,6.0,5.0,70.0,17.0,5.0,-2.0,-4.0,2.0,1651086845439033.0,3
1589,-11.0,-4.0,61.0,15.0,2.0,0.0,0.0,-14.0,1651086845439033.0,3
1590,6.0,-12.0,-41.0,-80.0,-19.0,-8.0,4.0,25.0,1651086845451172.0,3
1591,2.0,0.0,21.0,12.0,-11.0,-6.0,-6.0,-16.0,1651086845451172.0,3
1592,-9.0,6.0,-9.0,7.0,6.0,0.0,8.0,10.0,1651086845459889.0,3
1593,3.0,-6.0,-41.0,14.0,-9.0,-1.0,-7.0,8.0,1651086845459889.0,3
1594,-22.0,3.0,15.0,20.0,7.0,2.0,-1.0,-12.0,1651086845475220.0,3
1595,-3.0,-16.0,-58.0,-57.0,-17.0,-7.0,-9.0,2.0,1651086845475220.0,3
1596,-2.0,-4.0,18.0,5.0,-1.0,0.0,1.0,-13.0,1651086845477052.0,3
1597,-6.0,3.0,-56.0,-25.0,1.0,-2.0,3.0,0.0,1651086845477052.0,3
1598,-3.0,-2.0,20.0,-14.0,-7.0,-9.0,-4.0,12.0,1651086845498332.0,3
1599,3.0,6.0,-41.0,10.0,4.0,2.0,1.0,-3.0,1651086845498332.0,3
1600,-10.0,-5.0,83.0,-2.0,-1.0,-2.0,7.0,29.0,1651086845499590.0,3
1601,24.0,0.0,-18.0,-8.0,-4.0,2.0,-2.0,16.0,1651086845499590.0,3
1602,-3.0,-7.0,33.0,26.0,2.0,-1.0,-9.0,-20.0,1651086845511450.0,3
1603,-5.0,5.0,-22.0,-20.0,-3.0,2.0,1.0,-9.0,1651086845511450.0,3
1604,-6.0,3.0,50.0,6.0,5.0,-4.0,-4.0,25.0,1651086845526391.0,3
1605,5.0,1.0,17.0,22.0,7.0,0.0,2.0,-3.0,1651086845526391.0,3
1606,12.0,2.0,8.0,16.0,1.0,1.0,2.0,9.0,1651086845535231.0,3
1607,0.0,-7.0,-13.0,-35.0,-5.0,-1.0,1.0,8.0,1651086845535231.0,3
1608,7.0,6.0,-12.0,47.0,9.0,5.0,1.0,-8.0,1651086845536259.0,3
1609,-23.0,-10.0,8.0,-22.0,-4.0,-5.0,-1.0,-21.0,1651086845536259.0,3
1610,2.0,-5.0,-43.0,-10.0,2.0,6.0,7.0,11.0,1651086845558974.0,3
1611,-2.0,10.0,32.0,4.0,-1.0,-4.0,0.0,-23.0,1651086845558974.0,3
1612,16.0,1.0,21.0,18.0,-4.0,0.0,-4.0,3.0,1651086845559113.0,3
1613,-5.0,3.0,7.0,-12.0,-3.0,3.0,3.0,3.0,1651086845559113.0,3
1614,3.0,-2.0,-34.0,-3.0,0.0,-3.0,1.0,5.0,1651086845581361.0,3
1615,13.0,-3.0,-7.0,-35.0,11.0,3.0,-3.0,16.0,1651086845581361.0,3
1616,-5.0,6.0,8.0,32.0,-13.0,-7.0,-4.0,-9.0,1651086845582488.0,3
1617,-14.0,-14.0,31.0,5.0,0.0,0.0,-4.0,-12.0,1651086845582488.0,3
1618,3.0,-8.0,-60.0,-64.0,-14.0,-1.0,1.0,3.0,1651086845594824.0,3
1619,-9.0,-7.0,30.0,55.0,8.0,-2.0,-6.0,30.0,1651086845594824.0,3
1620,-6.0,-5.0,-114.0,-51.0,2.0,1.0,1.0,-23.0,1651086845596851.0,3
1621,-9.0,2.0,66.0,28.0,-7.0,-5.0,0.0,0.0,1651086845596851.0,3
1622,-10.0,-4.0,-38.0,-9.0,3.0,1.0,3.0,27.0,1651086845617917.0,3
1623,-18.0,-16.0,-31.0,6.0,-7.0,-1.0,0.0,6.0,1651086845617917.0,3
1624,9.0,6.0,15.0,-6.0,0.0,3.0,-1.0,-15.0,1651086845618917.0,3
1625,17.0,10.0,2.0,-5.0,6.0,5.0,-4.0,-22.0,1651086845618917.0,3
1626,-8.0,-4.0,6.0,23.0,-4.0,-6.0,-5.0,-19.0,1651086845641057.0,3
1627,8.0,5.0,29.0,6.0,7.0,3.0,6.0,20.0,1651086845641057.0,3
1628,0.0,1.0,-20.0,-6.0,-3.0,1.0,6.0,0.0,1651086845641193.0,3
1629,-5.0,-3.0,-11.0,4.0,4.0,-1.0,-3.0,0.0,1651086845641193.0,3
1630,17.0,0.0,-9.0,-26.0,-5.0,-4.0,-1.0,13.0,1651086845655390.0,3
1631,-16.0,1.0,4.0,59.0,17.0,4.0,-2.0,-32.0,1651086845655390.0,3
1632,-2.0,-14.0,-13.0,-67.0,-18.0,-4.0,-5.0,24.0,1651086845656266.0,3
1633,-4.0,4.0,5.0,36.0,7.0,4.0,0.0,-10.0,1651086845656266.0,3
1634,5.0,10.0,61.0,20.0,14.0,7.0,0.0,-1.0,1651086845677425.0,3
1635,9.0,-12.0,-56.0,-18.0,-14.0,-2.0,11.0,11.0,1651086845677425.0,3
1636,-8.0,1.0,3.0,1.0,-1.0,-5.0,-6.0,-1.0,1651086845679453.0,3
1637,1.0,5.0,0.0,-8.0,1.0,-1.0,1.0,-4.0,1651086845679453.0,3
1638,-7.0,-2.0,66.0,15.0,8.0,5.0,-1.0,1.0,1651086845700400.0,3
1639,-2.0,-9.0,-19.0,-20.0,-3.0,0.0,2.0,-4.0,1651086845700400.0,3
1640,0.0,2.0,0.0,8.0,0.0,-3.0,1.0,-1.0,1651086845701265.0,3
1641,26.0,-2.0,-32.0,-2.0,-6.0,-1.0,-1.0,16.0,1651086845701265.0,3
1642,-16.0,11.0,16.0,11.0,1.0,0.0,-3.0,-6.0,1651086845715392.0,3
1643,7.0,-2.0,1.0,-6.0,9.0,4.0,-1.0,-2.0,1651086845715392.0,3
1644,-15.0,-10.0,5.0,27.0,0.0,-1.0,-1.0,-2.0,1651086845721216.0,3
1645,4.0,2.0,7.0,42.0,7.0,1.0,5.0,11.0,1651086845721216.0,3
1646,-4.0,9.0,-17.0,-23.0,-7.0,-4.0,-3.0,4.0,1651086845737878.0,3
1647,-38.0,-6.0,23.0,-35.0,-6.0,2.0,-1.0,11.0,1651086845737878.0,3
1648,13.0,-2.0,-25.0,4.0,-3.0,-6.0,-10.0,-24.0,1651086845738890.0,3
1649,6.0,0.0,-61.0,-38.0,-10.0,-2.0,-3.0,-6.0,1651086845738890.0,3
1650,0.0,-5.0,-2.0,12.0,-2.0,0.0,3.0,-9.0,1651086845760866.0,3
1651,-3.0,18.0,49.0,7.0,-2.0,-4.0,-12.0,-29.0,1651086845760866.0,3
1652,6.0,-15.0,34.0,-10.0,7.0,1.0,5.0,14.0,1651086845761936.0,3
1653,4.0,5.0,-39.0,-3.0,1.0,-1.0,1.0,11.0,1651086845761936.0,3
1654,4.0,4.0,29.0,20.0,-1.0,1.0,-2.0,-9.0,1651086845775392.0,3
1655,18.0,10.0,35.0,13.0,-4.0,-6.0,-4.0,-12.0,1651086845775392.0,3
1656,0.0,8.0,35.0,21.0,9.0,4.0,2.0,1.0,1651086845781576.0,3
1657,-10.0,-16.0,-105.0,-68.0,-18.0,-5.0,-2.0,-1.0,1651086845781576.0,3
1658,7.0,4.0,9.0,36.0,6.0,2.0,3.0,10.0,1651086845798549.0,3
1659,6.0,1.0,-11.0,-13.0,-4.0,-3.0,-2.0,-10.0,1651086845798549.0,3
1660,27.0,11.0,-9.0,-15.0,-2.0,0.0,2.0,20.0,1651086845799072.0,3
1661,-4.0,-1.0,35.0,12.0,9.0,2.0,1.0,-2.0,1651086845799072.0,3
1662,7.0,11.0,-11.0,-15.0,3.0,3.0,3.0,0.0,1651086845820371.0,3
1663,-19.0,-11.0,-22.0,34.0,-3.0,-4.0,-7.0,0.0,1651086845820371.0,3
1664,1.0,-1.0,-39.0,-33.0,-9.0,-3.0,-1.0,-10.0,1651086845821237.0,3
1665,3.0,10.0,65.0,21.0,10.0,5.0,2.0,-10.0,1651086845821237.0,3
1666,9.0,-12.0,-57.0,-30.0,-13.0,-2.0,7.0,-8.0,1651086845834217.0,3
1667,25.0,9.0,-24.0,-6.0,11.0,1.0,-8.0,8.0,1651086845834217.0,3
1668,-1.0,-6.0,35.0,13.0,-1.0,-2.0,-1.0,1.0,1651086845841509.0,3
1669,-15.0,3.0,1.0,8.0,-7.0,-4.0,4.0,1.0,1651086845841509.0,3
1670,-4.0,-6.0,-5.0,-2.0,0.0,3.0,0.0,14.0,1651086845857356.0,3
1671,-4.0,1.0,11.0,9.0,5.0,2.0,3.0,-2.0,1651086845857356.0,3
1672,-3.0,9.0,2.0,-23.0,-4.0,-2.0,0.0,0.0,1651086845859195.0,3
1673,-8.0,7.0,53.0,16.0,3.0,1.0,7.0,8.0,1651086845859195.0,3
1674,-8.0,-37.0,-86.0,-40.0,-13.0,-8.0,-7.0,-10.0,1651086845880336.0,3
1675,-3.0,-3.0,31.0,-20.0,-5.0,-1.0,2.0,13.0,1651086845880336.0,3
1676,-17.0,15.0,49.0,45.0,13.0,4.0,3.0,12.0,1651086845881216.0,3
1677,17.0,4.0,46.0,51.0,3.0,-1.0,-5.0,-6.0,1651086845881216.0,3
1678,-11.0,1.0,-20.0,-43.0,1.0,2.0,-1.0,-8.0,1651086845903360.0,3
1679,10.0,7.0,-11.0,24.0,9.0,3.0,4.0,25.0,1651086845903360.0,3
1680,7.0,-13.0,-50.0,-8.0,-6.0,-3.0,-2.0,-17.0,1651086845904215.0,3
1681,-30.0,-3.0,-35.0,-29.0,-3.0,2.0,2.0,15.0,1651086845904215.0,3
1682,16.0,12.0,32.0,15.0,5.0,-3.0,-4.0,6.0,1651086845917437.0,3
1683,0.0,-2.0,-8.0,11.0,-10.0,-5.0,1.0,-4.0,1651086845917437.0,3
1684,-11.0,-3.0,12.0,-24.0,-10.0,-2.0,-1.0,-4.0,1651086845919435.0,3
1685,-4.0,-3.0,13.0,17.0,5.0,-3.0,-5.0,5.0,1651086845919435.0,3
1686,-4.0,-1.0,-22.0,0.0,-3.0,-1.0,-1.0,0.0,1651086845940386.0,3
1687,0.0,-1.0,-1.0,-20.0,0.0,-2.0,-1.0,-24.0,1651086845940386.0,3
1688,-11.0,-1.0,7.0,1.0,-2.0,0.0,-5.0,3.0,1651086845941260.0,3
1689,-6.0,0.0,58.0,33.0,2.0,-3.0,1.0,7.0,1651086845941260.0,3
1690,-8.0,-1.0,-9.0,2.0,-7.0,-3.0,-5.0,-8.0,1651086845963206.0,3
1691,8.0,-1.0,5.0,5.0,6.0,1.0,3.0,0.0,1651086845963206.0,3
1692,-13.0,1.0,-23.0,1.0,0.0,0.0,3.0,8.0,1651086845964206.0,3
1693,9.0,-8.0,2.0,-13.0,7.0,4.0,-1.0,-10.0,1651086845964206.0,3
1694,-3.0,12.0,16.0,15.0,7.0,4.0,1.0,2.0,1651086845977322.0,3
1695,8.0,4.0,26.0,7.0,-4.0,-2.0,0.0,8.0,1651086845977322.0,3
1696,-2.0,-14.0,-23.0,-15.0,-7.0,-5.0,-6.0,-20.0,1651086845979166.0,3
1697,0.0,-10.0,-67.0,-45.0,-15.0,-5.0,-4.0,-23.0,1651086845979166.0,3
1698,-3.0,4.0,110.0,65.0,13.0,0.0,0.0,1.0,1651086846000413.0,3
1699,-5.0,-9.0,-77.0,-36.0,-7.0,-3.0,-5.0,-13.0,1651086846000413.0,3
1700,-16.0,4.0,15.0,26.0,11.0,3.0,1.0,-4.0,1651086846001413.0,3
1701,15.0,17.0,65.0,-8.0,6.0,7.0,3.0,9.0,1651086846001413.0,3
1702,4.0,-5.0,12.0,-2.0,-4.0,-3.0,-3.0,-17.0,1651086846015367.0,3
1703,-6.0,0.0,10.0,9.0,5.0,1.0,0.0,19.0,1651086846015367.0,3
1704,0.0,0.0,18.0,-3.0,-3.0,-3.0,0.0,-6.0,1651086846021589.0,3
1705,-1.0,-3.0,-16.0,-2.0,-4.0,-5.0,-3.0,-3.0,1651086846021589.0,3
1706,-3.0,2.0,-9.0,-4.0,1.0,2.0,4.0,17.0,1651086846038694.0,3
1707,-2.0,0.0,36.0,29.0,6.0,2.0,-3.0,-7.0,1651086846038694.0,3
1708,-4.0,4.0,-8.0,0.0,10.0,3.0,3.0,9.0,1651086846038795.0,3
1709,16.0,-1.0,-24.0,-38.0,-15.0,-4.0,2.0,3.0,1651086846038795.0,3
1710,-26.0,6.0,-28.0,-2.0,1.0,-1.0,-1.0,11.0,1651086846059798.0,3
1711,15.0,3.0,26.0,9.0,1.0,1.0,-2.0,-1.0,1651086846059798.0,3
1712,-1.0,-13.0,-75.0,-20.0,1.0,1.0,0.0,-5.0,1651086846061796.0,3
1713,-4.0,-2.0,31.0,21.0,2.0,-1.0,-2.0,-18.0,1651086846061796.0,3
1714,-10.0,-3.0,-16.0,12.0,2.0,0.0,1.0,-1.0,1651086846083112.0,3
1715,-1.0,11.0,18.0,-45.0,-12.0,-3.0,1.0,-6.0,1651086846083112.0,3
1716,19.0,-6.0,19.0,33.0,-2.0,-3.0,-4.0,-5.0,1651086846084112.0,3
1717,-1.0,-1.0,-90.0,-16.0,4.0,1.0,2.0,8.0,1651086846084112.0,3
1718,-10.0,-13.0,-26.0,-17.0,0.0,-3.0,-4.0,-9.0,1651086846098336.0,3
1719,-6.0,-4.0,9.0,-10.0,5.0,2.0,1.0,-8.0,1651086846098336.0,3
1720,13.0,1.0,-10.0,-38.0,-16.0,-3.0,1.0,9.0,1651086846099074.0,3
1721,2.0,9.0,26.0,38.0,2.0,-2.0,-3.0,9.0,1651086846099074.0,3
1722,17.0,-3.0,12.0,-10.0,-12.0,-4.0,-1.0,-19.0,1651086846120376.0,3
1723,-14.0,-4.0,-42.0,-7.0,0.0,4.0,5.0,10.0,1651086846120376.0,3
1724,3.0,3.0,33.0,15.0,13.0,6.0,-2.0,3.0,1651086846121222.0,3
1725,-4.0,-3.0,-7.0,-18.0,-2.0,0.0,-1.0,2.0,1651086846121222.0,3
1726,-5.0,-1.0,-38.0,-10.0,2.0,-1.0,-2.0,-1.0,1651086846143222.0,3
1727,10.0,-5.0,53.0,15.0,5.0,-1.0,4.0,13.0,1651086846143222.0,3
1728,0.0,21.0,-4.0,36.0,1.0,-2.0,-5.0,-40.0,1651086846144224.0,3
1729,-14.0,-20.0,-39.0,-69.0,-18.0,-6.0,-2.0,9.0,1651086846144224.0,3
1730,24.0,2.0,-13.0,-3.0,1.0,3.0,3.0,-11.0,1651086846158284.0,3
1731,-10.0,-8.0,19.0,-1.0,-6.0,-3.0,-2.0,3.0,1651086846158284.0,3
1732,-2.0,3.0,13.0,13.0,1.0,-3.0,-1.0,11.0,1651086846159073.0,3
1733,6.0,-3.0,-42.0,-9.0,0.0,-2.0,-4.0,-5.0,1651086846159073.0,3
1734,1.0,2.0,-2.0,-20.0,-8.0,-1.0,1.0,5.0,1651086846180365.0,3
1735,1.0,-5.0,-29.0,28.0,4.0,4.0,3.0,-1.0,1651086846180365.0,3
1736,-2.0,-10.0,-24.0,-24.0,-1.0,2.0,2.0,19.0,1651086846181231.0,3
1737,3.0,-1.0,-2.0,6.0,-9.0,-4.0,-3.0,-20.0,1651086846181231.0,3
1738,6.0,8.0,28.0,16.0,7.0,6.0,3.0,15.0,1651086846193224.0,3
1739,5.0,6.0,-13.0,-8.0,-5.0,-6.0,0.0,-2.0,1651086846193224.0,3
1740,1.0,3.0,48.0,20.0,6.0,4.0,1.0,10.0,1651086846210378.0,3
1741,-7.0,-7.0,-8.0,4.0,6.0,-1.0,-1.0,6.0,1651086846210378.0,3
1742,1.0,-9.0,16.0,1.0,-7.0,-5.0,-4.0,-23.0,1651086846217949.0,3
1743,-12.0,8.0,7.0,-2.0,-2.0,0.0,-2.0,12.0,1651086846217949.0,3
1744,9.0,-8.0,-11.0,-3.0,-5.0,-2.0,2.0,-3.0,1651086846218949.0,3
1745,1.0,3.0,11.0,26.0,12.0,3.0,0.0,6.0,1651086846218949.0,3
1746,3.0,-4.0,-62.0,-29.0,-5.0,-2.0,-2.0,-17.0,1651086846240255.0,3
1747,-3.0,-3.0,57.0,32.0,0.0,-2.0,-4.0,0.0,1651086846240255.0,3
1748,-31.0,-2.0,-36.0,-46.0,-16.0,-5.0,-2.0,-4.0,1651086846241088.0,3
1749,2.0,-12.0,36.0,26.0,13.0,5.0,3.0,0.0,1651086846241088.0,3
1750,-4.0,4.0,41.0,33.0,3.0,-2.0,-2.0,11.0,1651086846254362.0,3
1751,5.0,-4.0,-57.0,-37.0,-1.0,-1.0,-3.0,-5.0,1651086846254362.0,3
1752,-5.0,-3.0,-9.0,-17.0,-5.0,-2.0,-3.0,-21.0,1651086846263063.0,3
1753,-2.0,13.0,42.0,49.0,11.0,5.0,4.0,11.0,1651086846263063.0,3
1754,4.0,-1.0,7.0,18.0,2.0,-2.0,-1.0,10.0,1651086846277387.0,3
1755,-3.0,-5.0,-1.0,-30.0,-14.0,-8.0,-5.0,-20.0,1651086846277387.0,3
1756,9.0,2.0,11.0,7.0,-3.0,1.0,4.0,2.0,1651086846279218.0,3
1757,-2.0,1.0,-26.0,-33.0,3.0,4.0,0.0,1.0,1651086846279218.0,3
1758,-3.0,-2.0,14.0,14.0,5.0,1.0,-1.0,8.0,1651086846300413.0,3
1759,2.0,1.0,-4.0,0.0,-4.0,0.0,2.0,0.0,1651086846300413.0,3
1760,4.0,-3.0,12.0,13.0,4.0,-4.0,-4.0,10.0,1651086846302246.0,3
1761,1.0,15.0,30.0,8.0,-4.0,0.0,0.0,-5.0,1651086846302246.0,3
1762,-10.0,-23.0,-77.0,-16.0,-11.0,-5.0,-3.0,7.0,1651086846314370.0,3
1763,0.0,1.0,-13.0,-14.0,0.0,-1.0,-1.0,-3.0,1651086846314370.0,3
1764,1.0,-1.0,-5.0,5.0,1.0,0.0,0.0,0.0,1651086846330206.0,3
1765,-2.0,-4.0,2.0,-5.0,-5.0,-3.0,-2.0,0.0,1651086846330206.0,3
1766,3.0,15.0,47.0,9.0,6.0,4.0,0.0,-8.0,1651086846337187.0,3
1767,0.0,-4.0,-9.0,1.0,-4.0,0.0,1.0,6.0,1651086846337187.0,3
1768,1.0,-2.0,-9.0,20.0,17.0,5.0,1.0,0.0,1651086846339182.0,3
1769,0.0,4.0,18.0,0.0,5.0,-1.0,-3.0,-4.0,1651086846339182.0,3
1770,2.0,4.0,-18.0,-21.0,-7.0,-3.0,1.0,12.0,1651086846360391.0,3
1771,1.0,0.0,-8.0,5.0,-3.0,0.0,-1.0,-2.0,1651086846360391.0,3
1772,3.0,2.0,11.0,2.0,-1.0,0.0,-1.0,0.0,1651086846361231.0,3
1773,-1.0,-2.0,-28.0,-32.0,-2.0,1.0,-1.0,1.0,1651086846361231.0,3
1774,0.0,-1.0,14.0,44.0,15.0,2.0,3.0,3.0,1651086846374295.0,3
1775,-6.0,-7.0,-27.0,-47.0,-15.0,-5.0,-1.0,-2.0,1651086846374295.0,3
1776,6.0,5.0,12.0,2.0,-7.0,-4.0,-3.0,-4.0,1651086846390264.0,3
1777,0.0,0.0,20.0,2.0,-3.0,-1.0,0.0,5.0,1651086846390264.0,3
1778,-8.0,1.0,-3.0,-12.0,-6.0,-4.0,-4.0,-16.0,1651086846398327.0,3
1779,0.0,1.0,2.0,17.0,8.0,3.0,0.0,5.0,1651086846398327.0,3
1780,1.0,0.0,-3.0,-2.0,1.0,2.0,3.0,9.0,1651086846399072.0,3
1781,-2.0,-21.0,-13.0,-5.0,-4.0,-1.0,1.0,-2.0,1651086846399072.0,3
1782,0.0,15.0,23.0,5.0,-6.0,-3.0,0.0,-1.0,1651086846420370.0,3
1783,2.0,-3.0,-3.0,4.0,0.0,-1.0,1.0,1.0,1651086846420370.0,3
1784,-2.0,5.0,11.0,2.0,-3.0,-3.0,-3.0,-4.0,1651086846421234.0,3
1785,0.0,3.0,-11.0,-2.0,3.0,2.0,1.0,-2.0,1651086846421234.0,3
1786,4.0,-1.0,5.0,3.0,27.0,14.0,4.0,4.0,1651086846433231.0,3
1787,0.0,-6.0,2.0,10.0,3.0,0.0,-1.0,-2.0,1651086846433231.0,3
1788,0.0,-2.0,-3.0,-8.0,-14.0,-5.0,-1.0,-1.0,1651086846449789.0,3
1789,-1.0,10.0,3.0,-1.0,-4.0,-3.0,-1.0,-3.0,1651086846449789.0,3
1790,4.0,-2.0,5.0,-6.0,-3.0,0.0,1.0,5.0,1651086846458619.0,3
1791,0.0,4.0,2.0,16.0,6.0,0.0,-1.0,-1.0,1651086846458619.0,3
1792,1.0,-2.0,2.0,-3.0,9.0,7.0,1.0,0.0,1651086846458792.0,3
1793,-1.0,-2.0,-1.0,1.0,-19.0,-8.0,-2.0,-2.0,1651086846458792.0,3
1794,1.0,-3.0,4.0,-9.0,3.0,-2.0,-2.0,-1.0,1651086846481104.0,3
1795,0.0,1.0,9.0,1.0,-4.0,-3.0,-2.0,-3.0,1651086846481104.0,3
1796,-4.0,-7.0,-19.0,9.0,6.0,0.0,1.0,1.0,1651086846482104.0,3
1797,-1.0,0.0,1.0,2.0,-11.0,-7.0,-3.0,-3.0,1651086846482104.0,3
1798,1.0,-4.0,-8.0,-2.0,16.0,8.0,2.0,5.0,1651086846503226.0,3
1799,-1.0,9.0,9.0,3.0,-3.0,-3.0,-2.0,-3.0,1651086846503226.0,3
1800,-1.0,-25.0,-7.0,-17.0,-2.0,2.0,1.0,-1.0,1651086846504225.0,3
1801,0.0,29.0,9.0,12.0,5.0,0.0,-2.0,-1.0,1651086846504225.0,3
1802,-2.0,-10.0,-2.0,-6.0,-9.0,-5.0,-1.0,-3.0,1651086846518199.0,3
1803,-1.0,-13.0,-4.0,4.0,-3.0,1.0,2.0,1.0,1651086846518199.0,3
1804,-1.0,8.0,0.0,-4.0,2.0,1.0,-1.0,-3.0,1651086846519071.0,3
1805,-1.0,-11.0,-9.0,-4.0,-6.0,-1.0,-2.0,1.0,1651086846519071.0,3
1806,-2.0,-1.0,4.0,-12.0,-13.0,-7.0,-4.0,2.0,1651086846541231.0,3
1807,-1.0,8.0,-1.0,5.0,6.0,3.0,1.0,-1.0,1651086846541231.0,3
1808,-2.0,-2.0,-2.0,-2.0,-5.0,-2.0,0.0,-1.0,1651086846543097.0,3
1809,-1.0,-7.0,-7.0,-13.0,-7.0,-2.0,-1.0,-1.0,1651086846543097.0,3
1810,2.0,6.0,4.0,11.0,9.0,3.0,3.0,4.0,1651086846563241.0,3
1811,0.0,-7.0,-4.0,-1.0,3.0,5.0,1.0,1.0,1651086846563241.0,3
1812,0.0,6.0,5.0,3.0,3.0,-5.0,-1.0,-1.0,1651086846564110.0,3
1813,-3.0,0.0,1.0,-7.0,-4.0,0.0,-1.0,-1.0,1651086846564110.0,3
1814,0.0,-4.0,-7.0,-17.0,-18.0,-5.0,-1.0,-2.0,1651086846577809.0,3
1815,0.0,8.0,10.0,27.0,27.0,6.0,1.0,1.0,1651086846577809.0,3
1816,-1.0,-1.0,0.0,-1.0,5.0,3.0,1.0,3.0,1651086846578814.0,3
1817,0.0,-2.0,-1.0,1.0,6.0,1.0,-1.0,-2.0,1651086846578814.0,3
1818,-1.0,-6.0,7.0,-6.0,-11.0,-3.0,2.0,0.0,1651086846600402.0,3
1819,0.0,9.0,-16.0,-10.0,-9.0,-4.0,-1.0,-3.0,1651086846600402.0,3
1820,2.0,1.0,2.0,0.0,-6.0,-4.0,-3.0,-4.0,1651086846601275.0,3
1821,-1.0,-17.0,-5.0,1.0,8.0,3.0,2.0,-3.0,1651086846601275.0,3
1822,1.0,4.0,1.0,-2.0,-3.0,-1.0,-3.0,-2.0,1651086846622251.0,3
1823,0.0,-4.0,4.0,-3.0,-4.0,-3.0,-1.0,-1.0,1651086846622251.0,3
1824,-2.0,5.0,-2.0,2.0,0.0,-1.0,0.0,-2.0,1651086846624202.0,3
1825,0.0,0.0,-5.0,-3.0,1.0,-1.0,-1.0,0.0,1651086846624202.0,3
1826,-1.0,-7.0,-3.0,-3.0,-6.0,-1.0,0.0,-2.0,1651086846637400.0,3
1827,0.0,-1.0,1.0,-3.0,0.0,1.0,1.0,1.0,1651086846637400.0,3
1828,-1.0,10.0,3.0,-1.0,-6.0,-3.0,-1.0,0.0,1651086846643198.0,3
1829,-1.0,-3.0,0.0,4.0,11.0,3.0,-1.0,-1.0,1651086846643198.0,3
1830,-1.0,4.0,0.0,1.0,-6.0,-3.0,-1.0,0.0,1651086846668025.0,3
1831,-1.0,-9.0,0.0,-4.0,-1.0,0.0,-1.0,-1.0,1651086846668025.0,3
1832,0.0,0.0,4.0,-8.0,-2.0,-1.0,-1.0,-2.0,1651086846669037.0,3
1833,0.0,1.0,-3.0,10.0,4.0,2.0,1.0,0.0,1651086846669037.0,3
1834,1.0,1.0,1.0,-2.0,-1.0,-2.0,-2.0,-1.0,1651086846683009.0,3
1835,1.0,-2.0,-10.0,-8.0,-12.0,-6.0,-2.0,-1.0,1651086846683009.0,3
1836,-2.0,1.0,10.0,7.0,5.0,3.0,-1.0,1.0,1651086846683984.0,3
1837,1.0,0.0,-1.0,-2.0,-2.0,-3.0,0.0,0.0,1651086846683984.0,3
1838,-1.0,-1.0,-3.0,-3.0,2.0,0.0,-1.0,0.0,1651086846697236.0,3
1839,0.0,-1.0,5.0,1.0,0.0,0.0,1.0,3.0,1651086846697236.0,3
1840,0.0,-2.0,-10.0,-6.0,-4.0,-2.0,0.0,-1.0,1651086846703222.0,3
1841,-1.0,-1.0,-1.0,-4.0,-2.0,-2.0,-1.0,0.0,1651086846703222.0,3
1842,0.0,1.0,2.0,3.0,2.0,-1.0,0.0,-1.0,1651086846720569.0,3
1843,-1.0,-2.0,-2.0,-1.0,-3.0,0.0,0.0,-1.0,1651086846720569.0,3
1844,-2.0,-5.0,-1.0,2.0,3.0,0.0,-1.0,-2.0,1651086846721247.0,3
1845,0.0,-2.0,-5.0,-4.0,-12.0,-3.0,0.0,1.0,1651086846721247.0,3
1846,1.0,4.0,3.0,14.0,14.0,2.0,0.0,0.0,1651086846742723.0,3
1847,-1.0,-2.0,-4.0,-7.0,-6.0,-2.0,1.0,-1.0,1651086846742723.0,3
1848,0.0,-6.0,-2.0,6.0,4.0,1.0,1.0,0.0,1651086846743624.0,3
1849,0.0,0.0,-2.0,-6.0,-4.0,-1.0,1.0,0.0,1651086846743624.0,3
1850,-1.0,-1.0,-1.0,-7.0,-8.0,-3.0,-2.0,1.0,1651086846757349.0,3
1851,0.0,-6.0,9.0,7.0,6.0,3.0,1.0,0.0,1651086846757349.0,3
1852,-2.0,6.0,-8.0,0.0,2.0,4.0,0.0,0.0,1651086846763207.0,3
1853,0.0,3.0,5.0,-4.0,1.0,-4.0,0.0,-2.0,1651086846763207.0,3
1854,-1.0,-1.0,-2.0,0.0,-5.0,1.0,-1.0,-1.0,1651086846780502.0,3
1855,1.0,4.0,2.0,-2.0,-1.0,-1.0,2.0,-1.0,1651086846780502.0,3
1856,-2.0,-4.0,4.0,-3.0,-8.0,-4.0,-1.0,0.0,1651086846781355.0,3
1857,-1.0,-2.0,-7.0,6.0,9.0,5.0,1.0,2.0,1651086846781355.0,3
1858,2.0,0.0,-1.0,-6.0,-5.0,-1.0,-1.0,-1.0,1651086846803033.0,3
1859,-1.0,0.0,-2.0,-3.0,-1.0,-3.0,-2.0,-3.0,1651086846803033.0,3
1860,0.0,-4.0,-7.0,-1.0,-2.0,0.0,1.0,0.0,1651086846804159.0,3
1861,-1.0,1.0,7.0,0.0,-6.0,-3.0,-4.0,-2.0,1651086846804159.0,3
1862,-1.0,-4.0,-1.0,1.0,4.0,2.0,1.0,1.0,1651086846826375.0,3
1863,-1.0,1.0,-6.0,-1.0,-1.0,1.0,-1.0,0.0,1651086846826375.0,0
1864,2.0,-4.0,-1.0,-5.0,0.0,-1.0,0.0,-2.0,1651086846827211.0,0
1865,-2.0,3.0,3.0,7.0,10.0,1.0,0.0,0.0,1651086846827211.0,0
1866,-1.0,-2.0,2.0,-2.0,-3.0,-1.0,-1.0,-1.0,1651086846841172.0,0
1867,1.0,3.0,-10.0,0.0,-2.0,-3.0,-1.0,-1.0,1651086846841172.0,0
1868,2.0,4.0,1.0,0.0,2.0,0.0,-1.0,0.0,1651086846841268.0,0
1869,-1.0,-5.0,-4.0,-12.0,-11.0,-3.0,-2.0,-1.0,1651086846841268.0,0
1870,-1.0,-4.0,2.0,11.0,5.0,1.0,1.0,-1.0,1651086846863385.0,0
1871,-3.0,2.0,5.0,0.0,4.0,5.0,1.0,1.0,1651086846863385.0,0
1872,-2.0,-4.0,0.0,0.0,-4.0,-3.0,-2.0,-2.0,1651086846864252.0,0
1873,0.0,-5.0,-8.0,-9.0,-7.0,-4.0,0.0,-1.0,1651086846864252.0,0
1874,-1.0,5.0,2.0,-4.0,-6.0,-2.0,0.0,0.0,1651086846877478.0,0
1875,-1.0,-7.0,-1.0,0.0,-2.0,-3.0,-2.0,1.0,1651086846877478.0,0
1876,-1.0,6.0,1.0,0.0,-1.0,-1.0,0.0,-2.0,1651086846885368.0,0
1877,-2.0,-1.0,0.0,1.0,5.0,3.0,0.0,0.0,1651086846885368.0,0
1878,1.0,-1.0,-3.0,-1.0,-5.0,-1.0,-1.0,-1.0,1651086846900218.0,0
1879,1.0,-1.0,0.0,2.0,6.0,2.0,-1.0,-1.0,1651086846900218.0,0
1880,1.0,-3.0,-3.0,-6.0,-7.0,-5.0,0.0,1.0,1651086846901241.0,0
1881,-1.0,2.0,-2.0,1.0,-9.0,-3.0,-1.0,0.0,1651086846901241.0,0
1882,-1.0,-10.0,-1.0,6.0,16.0,8.0,3.0,0.0,1651086846923226.0,0
1883,-1.0,14.0,5.0,-2.0,-2.0,-2.0,-1.0,-1.0,1651086846923226.0,0
1884,-1.0,-5.0,3.0,-3.0,-5.0,-1.0,-2.0,-1.0,1651086846924257.0,0
1885,0.0,3.0,-15.0,-3.0,-3.0,-2.0,0.0,-1.0,1651086846924257.0,0
1886,1.0,-1.0,2.0,-4.0,-6.0,-4.0,-1.0,-2.0,1651086846945366.0,0
1887,-3.0,-11.0,-3.0,-2.0,-2.0,1.0,1.0,-1.0,1651086846945366.0,0
1888,-1.0,-8.0,-1.0,3.0,2.0,0.0,1.0,-1.0,1651086846946259.0,0
1889,0.0,14.0,10.0,2.0,-1.0,0.0,0.0,-3.0,1651086846946259.0,0
1890,-2.0,-1.0,-6.0,-3.0,-4.0,-1.0,0.0,0.0,1651086846960397.0,0
1891,0.0,-1.0,4.0,9.0,12.0,3.0,1.0,0.0,1651086846960397.0,0
1892,1.0,-2.0,-3.0,3.0,5.0,1.0,0.0,0.0,1651086846961266.0,0
1893,0.0,-5.0,-4.0,-3.0,-5.0,-3.0,0.0,0.0,1651086846961266.0,0
1894,2.0,7.0,8.0,12.0,19.0,9.0,0.0,1.0,1651086846983124.0,0
1895,-2.0,4.0,-4.0,-9.0,-11.0,-4.0,-2.0,0.0,1651086846983124.0,0
1896,-3.0,-5.0,0.0,4.0,7.0,4.0,0.0,-1.0,1651086846984156.0,0
1897,1.0,-4.0,-2.0,0.0,-3.0,-1.0,-2.0,-1.0,1651086846984156.0,0
1898,1.0,1.0,-3.0,-10.0,-9.0,-4.0,-3.0,-1.0,1651086846996741.0,0
1899,-1.0,-5.0,-1.0,-4.0,-4.0,-3.0,0.0,-1.0,1651086846996741.0,0
