EMG_s0,EMG_s1,EMG_s2,EMG_s3,EMG_s4,EMG_s5,EMG_s6,EMG_s7,timestamp
-1.0,2.0,2.0,6.0,5.0,0.0,-1.0,1.0,1651086171979226.0
0.0,-6.0,-3.0,-11.0,-17.0,-8.0,-3.0,-1.0,1651086171979226.0
-1.0,6.0,-4.0,-5.0,-6.0,-4.0,-2.0,0.0,1651086171981223.0
-1.0,-3.0,6.0,10.0,11.0,6.0,1.0,2.0,1651086171981223.0
-2.0,-2.0,0.0,2.0,2.0,1.0,-1.0,-1.0,1651086171992517.0
-2.0,-1.0,-4.0,-11.0,-14.0,-4.0,-4.0,-2.0,1651086171992517.0
2.0,3.0,1.0,1.0,1.0,0.0,-1.0,0.0,1651086172009106.0
-1.0,-4.0,-2.0,2.0,2.0,-1.0,-1.0,1.0,1651086172009106.0
-2.0,-4.0,-1.0,-1.0,0.0,0.0,0.0,-1.0,1651086172017221.0
1.0,0.0,0.0,-3.0,-3.0,-2.0,0.0,0.0,1651086172017221.0
-1.0,0.0,0.0,4.0,4.0,1.0,1.0,0.0,1651086172018085.0
-1.0,-5.0,-2.0,-3.0,-3.0,-1.0,0.0,-2.0,1651086172018085.0
-1.0,2.0,-1.0,-5.0,-6.0,-4.0,-1.0,-1.0,1651086172047181.0
-1.0,0.0,0.0,-2.0,-2.0,-2.0,-1.0,-1.0,1651086172047181.0
-1.0,-3.0,1.0,1.0,3.0,0.0,0.0,0.0,1651086172048048.0
-2.0,-2.0,-1.0,-1.0,-1.0,2.0,2.0,0.0,1651086172048048.0
1.0,-1.0,1.0,0.0,-1.0,-1.0,-3.0,1.0,1651086172053068.0
0.0,0.0,1.0,-3.0,-2.0,-2.0,-1.0,-1.0,1651086172053068.0
-1.0,-2.0,-9.0,-3.0,-2.0,0.0,0.0,-1.0,1651086172069118.0
-2.0,1.0,0.0,-2.0,-1.0,-2.0,-3.0,0.0,1651086172069118.0
0.0,-1.0,1.0,1.0,-1.0,0.0,0.0,-2.0,1651086172077223.0
0.0,0.0,-3.0,-1.0,-4.0,-2.0,-2.0,-1.0,1651086172077223.0
0.0,-1.0,1.0,1.0,2.0,0.0,0.0,1.0,1651086172078097.0
2.0,4.0,-1.0,-1.0,0.0,-1.0,-2.0,-1.0,1651086172078097.0
-3.0,-13.0,-1.0,0.0,-2.0,-1.0,-1.0,-2.0,1651086172098181.0
-1.0,-2.0,2.0,1.0,-3.0,-1.0,1.0,-1.0,1651086172098181.0
-3.0,2.0,1.0,0.0,0.0,1.0,-1.0,0.0,1651086172107182.0
-2.0,2.0,4.0,2.0,2.0,0.0,-1.0,0.0,1651086172107182.0
0.0,3.0,4.0,3.0,-1.0,2.0,0.0,1.0,1651086172121244.0
-1.0,-1.0,-4.0,-6.0,-9.0,-5.0,-2.0,-1.0,1651086172121244.0
0.0,0.0,2.0,0.0,-3.0,-2.0,-2.0,-1.0,1651086172129104.0
0.0,-7.0,10.0,23.0,23.0,9.0,4.0,0.0,1651086172129104.0
-2.0,1.0,-4.0,-4.0,-6.0,-4.0,-1.0,-2.0,1651086172144686.0
-1.0,-3.0,2.0,-1.0,-1.0,-2.0,-1.0,0.0,1651086172144686.0
1.0,2.0,-4.0,-7.0,-11.0,-3.0,-2.0,0.0,1651086172145566.0
-2.0,1.0,-2.0,-12.0,-12.0,-7.0,-1.0,-2.0,1651086172145566.0
0.0,1.0,1.0,7.0,13.0,7.0,2.0,1.0,1651086172167224.0
-1.0,0.0,-1.0,2.0,-1.0,0.0,1.0,0.0,1651086172167224.0
0.0,-1.0,0.0,1.0,-1.0,-2.0,1.0,-2.0,1651086172168186.0
-1.0,-2.0,-3.0,3.0,0.0,0.0,-1.0,-1.0,1651086172168186.0
-1.0,2.0,-1.0,-1.0,-3.0,0.0,0.0,-1.0,1651086172181193.0
-1.0,0.0,-3.0,-2.0,1.0,0.0,0.0,0.0,1651086172181193.0
0.0,-2.0,2.0,-4.0,-1.0,-1.0,0.0,0.0,1651086172183157.0
0.0,0.0,-2.0,-6.0,-9.0,-3.0,-1.0,-2.0,1651086172183157.0
-3.0,1.0,-1.0,1.0,3.0,3.0,0.0,-1.0,1651086172204133.0
0.0,1.0,1.0,1.0,1.0,1.0,-2.0,-1.0,1651086172204133.0
-1.0,-1.0,1.0,3.0,6.0,2.0,1.0,1.0,1651086172206116.0
0.0,-2.0,-5.0,-5.0,-5.0,-6.0,-3.0,0.0,1651086172206116.0
0.0,-4.0,-4.0,-3.0,-2.0,-1.0,-1.0,0.0,1651086172218330.0
-1.0,4.0,4.0,0.0,-1.0,0.0,-1.0,-2.0,1651086172218330.0
-1.0,-2.0,-1.0,2.0,-1.0,-1.0,0.0,-2.0,1651086172227306.0
-1.0,3.0,3.0,1.0,6.0,2.0,0.0,0.0,1651086172227306.0
0.0,-7.0,-8.0,-1.0,-5.0,-3.0,1.0,0.0,1651086172241358.0
-2.0,1.0,-2.0,-2.0,-3.0,0.0,1.0,-1.0,1651086172241358.0
0.0,-2.0,0.0,-2.0,3.0,1.0,0.0,0.0,1651086172243211.0
-1.0,-2.0,-1.0,0.0,0.0,0.0,-1.0,-1.0,1651086172243211.0
0.0,3.0,3.0,-2.0,-1.0,-1.0,-1.0,1.0,1651086172264393.0
-1.0,-5.0,0.0,3.0,5.0,3.0,1.0,0.0,1651086172264393.0
-1.0,-1.0,-2.0,-2.0,-4.0,0.0,-1.0,0.0,1651086172266268.0
0.0,0.0,-4.0,-1.0,-1.0,-2.0,-2.0,-3.0,1651086172266268.0
0.0,-2.0,0.0,1.0,2.0,1.0,0.0,-2.0,1651086172278505.0
1.0,-1.0,-1.0,-5.0,-3.0,0.0,-2.0,0.0,1651086172278505.0
0.0,0.0,0.0,-2.0,0.0,0.0,0.0,0.0,1651086172287084.0
0.0,-3.0,-2.0,-3.0,-4.0,-2.0,-2.0,0.0,1651086172287084.0
1.0,0.0,-1.0,-1.0,-2.0,-3.0,-1.0,0.0,1651086172302606.0
0.0,0.0,-3.0,-1.0,-3.0,-2.0,-1.0,-1.0,1651086172302606.0
0.0,2.0,4.0,2.0,1.0,1.0,0.0,0.0,1651086172303062.0
0.0,-1.0,-6.0,-1.0,-2.0,1.0,1.0,-2.0,1651086172303062.0
-1.0,1.0,0.0,-5.0,-4.0,-2.0,0.0,-1.0,1651086172324394.0
-2.0,-2.0,-2.0,0.0,1.0,-1.0,-2.0,-1.0,1651086172324394.0
-1.0,-1.0,0.0,1.0,1.0,-2.0,-1.0,-1.0,1651086172326226.0
-1.0,-2.0,-2.0,-3.0,-4.0,1.0,-2.0,0.0,1651086172326226.0
0.0,2.0,3.0,8.0,6.0,4.0,2.0,0.0,1651086172338921.0
0.0,0.0,-2.0,-5.0,-3.0,-4.0,-1.0,-1.0,1651086172338921.0
1.0,-1.0,0.0,-5.0,-8.0,-5.0,-2.0,0.0,1651086172347052.0
1.0,0.0,1.0,-1.0,6.0,1.0,0.0,0.0,1651086172347052.0
-2.0,0.0,0.0,-3.0,-4.0,-2.0,0.0,-1.0,1651086172362545.0
0.0,-2.0,0.0,-4.0,-2.0,-1.0,-1.0,1.0,1651086172362545.0
1.0,-1.0,-3.0,1.0,1.0,0.0,-2.0,0.0,1651086172363063.0
-1.0,0.0,0.0,-1.0,4.0,0.0,0.0,1.0,1651086172363063.0
0.0,-2.0,-3.0,-2.0,3.0,3.0,-2.0,0.0,1651086172384354.0
-1.0,1.0,4.0,0.0,-2.0,-3.0,-1.0,1.0,1651086172384354.0
-1.0,1.0,-11.0,-1.0,-8.0,-1.0,0.0,0.0,1651086172386226.0
0.0,0.0,4.0,13.0,15.0,3.0,1.0,2.0,1651086172386226.0
0.0,-1.0,0.0,-3.0,-2.0,-4.0,0.0,0.0,1651086172397696.0
1.0,0.0,1.0,4.0,-1.0,1.0,2.0,0.0,1651086172397696.0
-1.0,-2.0,0.0,-5.0,-2.0,-1.0,0.0,-2.0,1651086172413233.0
-1.0,-1.0,-1.0,-5.0,-9.0,-3.0,0.0,-2.0,1651086172413233.0
1.0,3.0,0.0,-6.0,-6.0,-4.0,-3.0,0.0,1651086172422601.0
-2.0,-5.0,-4.0,5.0,6.0,2.0,0.0,-1.0,1651086172422601.0
0.0,-2.0,1.0,2.0,8.0,2.0,0.0,0.0,1651086172423061.0
1.0,-1.0,-2.0,-1.0,-1.0,0.0,0.0,0.0,1651086172423061.0
-2.0,4.0,0.0,1.0,4.0,2.0,-1.0,-1.0,1651086172444455.0
0.0,0.0,-4.0,-6.0,-4.0,-2.0,0.0,0.0,1651086172444455.0
-1.0,2.0,2.0,1.0,1.0,-1.0,0.0,-1.0,1651086172445440.0
0.0,-2.0,-1.0,-5.0,-10.0,-5.0,-1.0,-2.0,1651086172445440.0
2.0,-2.0,0.0,1.0,2.0,2.0,0.0,0.0,1651086172459218.0
-1.0,0.0,0.0,0.0,3.0,2.0,0.0,-1.0,1651086172459218.0
0.0,-1.0,0.0,0.0,4.0,0.0,1.0,0.0,1651086172473224.0
0.0,0.0,-5.0,-6.0,-9.0,-2.0,0.0,2.0,1651086172473224.0
-1.0,-1.0,0.0,0.0,1.0,-2.0,0.0,0.0,1651086172481393.0
2.0,-1.0,0.0,1.0,4.0,4.0,0.0,0.0,1651086172481393.0
0.0,0.0,4.0,-2.0,-2.0,0.0,0.0,0.0,1651086172483393.0
-2.0,-2.0,-3.0,2.0,-5.0,-4.0,-2.0,-1.0,1651086172483393.0
0.0,0.0,-4.0,-2.0,4.0,0.0,0.0,0.0,1651086172511349.0
0.0,-1.0,1.0,-3.0,-1.0,1.0,-2.0,-1.0,1651086172511349.0
0.0,1.0,-2.0,-1.0,-6.0,-3.0,-2.0,-2.0,1651086172513311.0
0.0,0.0,0.0,-6.0,-9.0,-2.0,0.0,-2.0,1651086172513311.0
-1.0,-1.0,5.0,10.0,17.0,5.0,3.0,1.0,1651086172517324.0
0.0,0.0,-1.0,0.0,1.0,-1.0,-2.0,-1.0,1651086172517324.0
-1.0,-3.0,2.0,-1.0,0.0,2.0,0.0,-2.0,1651086172534205.0
-1.0,0.0,-5.0,-6.0,-6.0,-4.0,-1.0,-1.0,1651086172534205.0
-3.0,-1.0,2.0,3.0,-5.0,-4.0,-3.0,-2.0,1651086172542553.0
-1.0,0.0,0.0,1.0,0.0,2.0,2.0,0.0,1651086172542553.0
0.0,0.0,-3.0,-2.0,0.0,-2.0,-1.0,0.0,1651086172543555.0
1.0,4.0,3.0,9.0,13.0,5.0,0.0,0.0,1651086172543555.0
1.0,-7.0,-5.0,-7.0,-8.0,-3.0,1.0,0.0,1651086172565369.0
-1.0,0.0,-1.0,2.0,-2.0,-4.0,-2.0,-1.0,1651086172565369.0
-1.0,1.0,-3.0,-2.0,-3.0,-1.0,-2.0,0.0,1651086172566225.0
1.0,-1.0,-2.0,-7.0,-4.0,-2.0,-1.0,-1.0,1651086172566225.0
0.0,0.0,1.0,1.0,-2.0,-2.0,-2.0,1.0,1651086172578529.0
-1.0,-1.0,1.0,8.0,7.0,2.0,1.0,-1.0,1651086172578529.0
-1.0,-1.0,-1.0,2.0,2.0,0.0,1.0,-1.0,1651086172601364.0
-1.0,0.0,1.0,-3.0,-1.0,-2.0,-1.0,0.0,1651086172601364.0
0.0,-1.0,-3.0,-3.0,-6.0,-1.0,0.0,-1.0,1651086172610199.0
-1.0,-5.0,-2.0,-4.0,0.0,0.0,0.0,-1.0,1651086172610199.0
-1.0,2.0,4.0,3.0,1.0,-1.0,1.0,-3.0,1651086172611197.0
1.0,0.0,-2.0,1.0,2.0,2.0,0.0,1.0,1651086172611197.0
-2.0,3.0,-1.0,0.0,-4.0,-4.0,0.0,-1.0,1651086172625349.0
-1.0,-1.0,-2.0,-4.0,-7.0,-3.0,0.0,0.0,1651086172625349.0
0.0,-2.0,3.0,1.0,2.0,1.0,0.0,1.0,1651086172626206.0
-2.0,-1.0,0.0,1.0,3.0,2.0,-2.0,-1.0,1651086172626206.0
0.0,-2.0,3.0,-3.0,-6.0,-2.0,-1.0,-2.0,1651086172639001.0
-1.0,3.0,-5.0,-9.0,-9.0,-4.0,-1.0,0.0,1651086172639001.0
-1.0,-3.0,1.0,12.0,5.0,0.0,0.0,0.0,1651086172647289.0
-2.0,-1.0,1.0,1.0,5.0,0.0,1.0,-2.0,1651086172647289.0
1.0,0.0,-2.0,-5.0,1.0,3.0,1.0,1.0,1651086172662338.0
-1.0,-1.0,1.0,-2.0,-6.0,-3.0,1.0,-1.0,1651086172662338.0
0.0,-5.0,-6.0,-9.0,-11.0,-6.0,-1.0,1.0,1651086172663194.0
0.0,0.0,0.0,-1.0,1.0,3.0,-2.0,-1.0,1651086172663194.0
-1.0,3.0,3.0,5.0,9.0,5.0,2.0,1.0,1651086172684335.0
1.0,0.0,-4.0,-3.0,-3.0,-4.0,-2.0,-1.0,1651086172684335.0
0.0,-1.0,-4.0,-2.0,0.0,-1.0,-1.0,0.0,1651086172686214.0
0.0,0.0,0.0,0.0,0.0,-2.0,0.0,-1.0,1651086172686214.0
-1.0,0.0,-1.0,-3.0,-6.0,-4.0,0.0,-1.0,1651086172706348.0
-2.0,-2.0,-4.0,11.0,8.0,0.0,-3.0,-2.0,1651086172706348.0
-2.0,-3.0,0.0,0.0,4.0,1.0,1.0,-2.0,1651086172723200.0
0.0,-2.0,3.0,-2.0,-4.0,2.0,1.0,0.0,1651086172723200.0
-1.0,-2.0,0.0,0.0,0.0,-2.0,-2.0,0.0,1651086172724234.0
1.0,-3.0,-3.0,2.0,5.0,2.0,0.0,1.0,1651086172724234.0
0.0,3.0,-3.0,-8.0,-5.0,-3.0,-2.0,-1.0,1651086172728212.0
1.0,5.0,3.0,-1.0,-6.0,-2.0,0.0,0.0,1651086172728212.0
1.0,-9.0,3.0,8.0,5.0,2.0,-2.0,0.0,1651086172745357.0
1.0,5.0,8.0,-5.0,-3.0,-5.0,-1.0,0.0,1651086172745357.0
0.0,-6.0,-3.0,11.0,8.0,2.0,1.0,1.0,1651086172745357.0
-1.0,-3.0,4.0,-6.0,-3.0,-2.0,0.0,-1.0,1651086172745357.0
0.0,5.0,2.0,-1.0,-5.0,-2.0,-1.0,0.0,1651086172767336.0
-2.0,-3.0,-12.0,-1.0,0.0,-3.0,1.0,-1.0,1651086172767336.0
-2.0,7.0,1.0,-6.0,-1.0,1.0,0.0,-1.0,1651086172768193.0
0.0,-1.0,-1.0,-7.0,-14.0,-5.0,-2.0,-1.0,1651086172768193.0
-1.0,-13.0,-6.0,8.0,15.0,5.0,0.0,0.0,1651086172781331.0
0.0,17.0,11.0,5.0,9.0,3.0,-2.0,-1.0,1651086172781331.0
0.0,-12.0,-3.0,-8.0,-5.0,-1.0,0.0,0.0,1651086172783328.0
-1.0,5.0,2.0,17.0,15.0,4.0,0.0,1.0,1651086172783328.0
0.0,-3.0,-10.0,-13.0,-11.0,-8.0,-4.0,-1.0,1651086172805155.0
0.0,1.0,0.0,-5.0,-12.0,-4.0,0.0,-2.0,1651086172805155.0
0.0,-4.0,0.0,8.0,8.0,4.0,-2.0,-1.0,1651086172806036.0
0.0,0.0,3.0,-1.0,-1.0,-3.0,-1.0,0.0,1651086172806036.0
-2.0,-7.0,-15.0,-18.0,-12.0,-4.0,-1.0,-2.0,1651086172827238.0
-1.0,2.0,4.0,9.0,25.0,11.0,3.0,0.0,1651086172827238.0
-1.0,-2.0,0.0,1.0,-13.0,-6.0,-2.0,1.0,1651086172828195.0
1.0,-1.0,3.0,-11.0,-17.0,-12.0,-4.0,-2.0,1651086172828195.0
-2.0,-9.0,-4.0,20.0,27.0,7.0,1.0,-2.0,1651086172841371.0
1.0,1.0,1.0,6.0,7.0,4.0,0.0,2.0,1651086172841371.0
0.0,4.0,-4.0,-12.0,-13.0,-6.0,-1.0,-2.0,1651086172849352.0
-2.0,-5.0,-1.0,-13.0,-10.0,-1.0,2.0,0.0,1651086172849352.0
2.0,6.0,4.0,12.0,10.0,1.0,0.0,2.0,1651086172864354.0
-2.0,-17.0,-4.0,-10.0,-15.0,-5.0,-3.0,-2.0,1651086172864354.0
2.0,12.0,3.0,9.0,16.0,7.0,0.0,0.0,1651086172866240.0
-2.0,-2.0,-10.0,-6.0,-5.0,-3.0,1.0,-1.0,1651086172866240.0
-3.0,5.0,0.0,-14.0,-17.0,-4.0,-1.0,-3.0,1651086172887673.0
-1.0,-5.0,1.0,1.0,-2.0,-1.0,1.0,1.0,1651086172887673.0
0.0,1.0,4.0,-3.0,-6.0,-3.0,0.0,2.0,1651086172888526.0
-1.0,-7.0,-10.0,-16.0,-8.0,-2.0,-3.0,-2.0,1651086172888526.0
1.0,14.0,14.0,16.0,5.0,4.0,1.0,0.0,1651086172902014.0
1.0,3.0,9.0,9.0,-1.0,-1.0,0.0,0.0,1651086172902014.0
-4.0,-6.0,-6.0,-6.0,-9.0,-10.0,-2.0,-3.0,1651086172908682.0
-1.0,-2.0,0.0,12.0,18.0,7.0,1.0,0.0,1651086172908682.0
0.0,-2.0,-13.0,-8.0,0.0,1.0,0.0,2.0,1651086172939219.0
-1.0,2.0,-9.0,-22.0,-38.0,-15.0,-4.0,-1.0,1651086172939219.0
-1.0,-5.0,10.0,7.0,17.0,12.0,2.0,1.0,1651086172940254.0
2.0,9.0,8.0,7.0,9.0,0.0,2.0,0.0,1651086172940254.0
-2.0,-3.0,-15.0,-27.0,-23.0,-8.0,-5.0,-3.0,1651086172947233.0
-2.0,-2.0,-8.0,6.0,7.0,0.0,1.0,0.0,1651086172947233.0
-1.0,-13.0,-11.0,-4.0,5.0,3.0,-1.0,0.0,1651086172948199.0
0.0,16.0,-1.0,12.0,9.0,3.0,1.0,0.0,1651086172948199.0
-2.0,0.0,1.0,-17.0,-17.0,-7.0,-2.0,-3.0,1651086172961410.0
-2.0,-3.0,1.0,4.0,-7.0,-7.0,-2.0,-3.0,1651086172961410.0
-2.0,-1.0,0.0,-7.0,-9.0,-2.0,-3.0,-2.0,1651086172968475.0
-1.0,-3.0,-1.0,10.0,16.0,6.0,0.0,2.0,1651086172968475.0
2.0,0.0,0.0,4.0,-13.0,-6.0,1.0,1.0,1651086172999977.0
0.0,-1.0,4.0,-5.0,7.0,3.0,3.0,2.0,1651086172999977.0
2.0,6.0,-12.0,-2.0,8.0,5.0,1.0,-1.0,1651086173001867.0
0.0,1.0,6.0,-15.0,-19.0,-3.0,1.0,0.0,1651086173001867.0
-4.0,-11.0,-9.0,39.0,42.0,9.0,0.0,-1.0,1651086173014340.0
1.0,0.0,5.0,-6.0,-2.0,-2.0,-2.0,-2.0,1651086173014340.0
-1.0,3.0,-5.0,-16.0,-18.0,-8.0,-3.0,-3.0,1651086173016198.0
0.0,-6.0,-16.0,-2.0,-13.0,-4.0,-1.0,-2.0,1651086173016198.0
1.0,3.0,14.0,8.0,7.0,3.0,2.0,0.0,1651086173030334.0
1.0,3.0,21.0,11.0,-3.0,-3.0,-2.0,-1.0,1651086173030334.0
0.0,5.0,13.0,13.0,8.0,4.0,-2.0,-1.0,1651086173032190.0
-3.0,-8.0,-14.0,2.0,-5.0,-4.0,-2.0,-2.0,1651086173032190.0
1.0,4.0,-4.0,-22.0,10.0,2.0,4.0,2.0,1651086173045289.0
-2.0,2.0,17.0,24.0,4.0,-1.0,-5.0,-2.0,1651086173045289.0
0.0,-2.0,-20.0,-22.0,-12.0,0.0,-1.0,-3.0,1651086173046184.0
-3.0,-7.0,3.0,-4.0,-2.0,-3.0,-1.0,-1.0,1651086173046184.0
0.0,8.0,19.0,16.0,31.0,14.0,5.0,4.0,1651086173067517.0
-2.0,-5.0,-42.0,-11.0,1.0,-1.0,-2.0,0.0,1651086173067517.0
1.0,4.0,26.0,21.0,6.0,-2.0,2.0,0.0,1651086173068518.0
-1.0,-7.0,-23.0,-33.0,-19.0,-6.0,-4.0,-3.0,1651086173068518.0
1.0,4.0,11.0,-7.0,-7.0,-1.0,1.0,1.0,1651086173081638.0
0.0,-7.0,-43.0,-20.0,-11.0,-3.0,-3.0,-1.0,1651086173081638.0
-2.0,0.0,15.0,20.0,5.0,-3.0,-1.0,-1.0,1651086173088356.0
3.0,3.0,26.0,25.0,20.0,7.0,1.0,0.0,1651086173088356.0
-3.0,0.0,22.0,6.0,-20.0,-6.0,-2.0,-1.0,1651086173104385.0
3.0,1.0,-8.0,-23.0,8.0,9.0,4.0,1.0,1651086173104385.0
2.0,6.0,14.0,11.0,-2.0,-3.0,-1.0,2.0,1651086173106219.0
0.0,-3.0,12.0,0.0,1.0,3.0,1.0,0.0,1651086173106219.0
-4.0,-3.0,-6.0,4.0,-5.0,-2.0,-1.0,-4.0,1651086173127239.0
1.0,0.0,-10.0,-22.0,-6.0,-4.0,-3.0,-3.0,1651086173127239.0
2.0,4.0,21.0,25.0,9.0,3.0,1.0,2.0,1651086173128226.0
-2.0,-2.0,-3.0,-10.0,3.0,3.0,2.0,1.0,1651086173128226.0
4.0,4.0,-4.0,5.0,-2.0,0.0,-1.0,-1.0,1651086173141354.0
-1.0,-2.0,38.0,18.0,1.0,-2.0,-4.0,0.0,1651086173141354.0
-2.0,-5.0,-61.0,-37.0,-1.0,-1.0,0.0,0.0,1651086173147587.0
0.0,-1.0,10.0,24.0,6.0,9.0,2.0,3.0,1651086173147587.0
-2.0,-3.0,15.0,-11.0,-10.0,-11.0,-9.0,9.0,1651086173164373.0
-11.0,5.0,25.0,17.0,4.0,10.0,6.0,-19.0,1651086173164373.0
-1.0,-6.0,-37.0,-23.0,-7.0,3.0,0.0,-5.0,1651086173165242.0
0.0,0.0,7.0,8.0,-4.0,-6.0,-4.0,0.0,1651086173165242.0
-1.0,0.0,-13.0,-7.0,-3.0,-9.0,-4.0,0.0,1651086173187376.0
-1.0,0.0,1.0,-3.0,1.0,0.0,-1.0,7.0,1651086173187376.0
0.0,0.0,38.0,7.0,1.0,7.0,9.0,2.0,1651086173188220.0
-2.0,0.0,-26.0,-4.0,2.0,-7.0,-5.0,-4.0,1651086173188220.0
2.0,-3.0,1.0,-9.0,-10.0,-5.0,-8.0,-4.0,1651086173201176.0
4.0,2.0,3.0,8.0,5.0,2.0,2.0,2.0,1651086173201176.0
-2.0,-3.0,-18.0,-23.0,-6.0,-4.0,-2.0,-1.0,1651086173209071.0
7.0,6.0,37.0,32.0,4.0,2.0,5.0,7.0,1651086173209071.0
-3.0,-1.0,-17.0,15.0,0.0,3.0,2.0,-4.0,1651086173224355.0
2.0,-6.0,-37.0,-18.0,0.0,3.0,4.0,5.0,1651086173224355.0
2.0,2.0,14.0,3.0,-6.0,-13.0,-11.0,1.0,1651086173226209.0
0.0,-2.0,-12.0,-20.0,-6.0,-3.0,-2.0,-3.0,1651086173226209.0
-1.0,0.0,-6.0,-8.0,-3.0,0.0,3.0,-2.0,1651086173246596.0
-1.0,-4.0,-19.0,-5.0,-1.0,1.0,0.0,-1.0,1651086173246596.0
-8.0,0.0,-27.0,-7.0,-2.0,-1.0,-3.0,-2.0,1651086173248493.0
-4.0,1.0,10.0,6.0,-2.0,-5.0,-6.0,-4.0,1651086173248493.0
-1.0,-5.0,-10.0,-21.0,-9.0,0.0,2.0,-3.0,1651086173260291.0
-1.0,-3.0,4.0,1.0,-2.0,2.0,-1.0,-1.0,1651086173260291.0
4.0,4.0,21.0,7.0,-1.0,-2.0,1.0,9.0,1651086173269159.0
-7.0,-4.0,-20.0,-8.0,3.0,-1.0,-4.0,-18.0,1651086173269159.0
7.0,3.0,-3.0,-2.0,1.0,2.0,0.0,-1.0,1651086173284337.0
0.0,-1.0,2.0,7.0,1.0,-4.0,-2.0,3.0,1651086173284337.0
-2.0,-3.0,-32.0,-16.0,-3.0,5.0,6.0,-3.0,1651086173286223.0
-3.0,0.0,11.0,9.0,6.0,0.0,-1.0,-2.0,1651086173286223.0
-1.0,1.0,19.0,10.0,-6.0,-4.0,-5.0,-4.0,1651086173306337.0
-8.0,-8.0,-43.0,-27.0,-14.0,-12.0,-12.0,-5.0,1651086173306337.0
5.0,1.0,18.0,5.0,1.0,1.0,2.0,0.0,1651086173308569.0
-1.0,-3.0,-2.0,5.0,14.0,5.0,1.0,1.0,1651086173308569.0
-2.0,1.0,1.0,-4.0,-3.0,-1.0,5.0,9.0,1651086173321306.0
3.0,4.0,15.0,11.0,8.0,3.0,0.0,4.0,1651086173321306.0
-5.0,-5.0,-9.0,0.0,-7.0,-7.0,-8.0,-6.0,1651086173346204.0
1.0,0.0,-12.0,-4.0,0.0,3.0,-1.0,1.0,1651086173346204.0
0.0,2.0,19.0,-7.0,2.0,2.0,3.0,3.0,1651086173347202.0
-4.0,0.0,18.0,9.0,-1.0,-5.0,0.0,-2.0,1651086173347202.0
-2.0,-4.0,4.0,6.0,1.0,-1.0,-3.0,-7.0,1651086173350218.0
-2.0,-4.0,-5.0,-3.0,-3.0,-2.0,0.0,5.0,1651086173350218.0
6.0,-1.0,-14.0,-2.0,0.0,1.0,-1.0,-4.0,1651086173367186.0
4.0,2.0,-5.0,-2.0,0.0,2.0,-2.0,-4.0,1651086173367186.0
-3.0,-1.0,11.0,-3.0,0.0,0.0,1.0,-2.0,1651086173368122.0
8.0,3.0,-3.0,-5.0,-3.0,-4.0,-1.0,-2.0,1651086173368122.0
-7.0,0.0,-9.0,13.0,1.0,1.0,0.0,6.0,1651086173380833.0
-11.0,-3.0,-10.0,-9.0,-7.0,-1.0,2.0,-9.0,1651086173380833.0
2.0,-4.0,2.0,-3.0,18.0,4.0,-3.0,0.0,1651086173389123.0
1.0,7.0,14.0,4.0,1.0,-3.0,2.0,0.0,1651086173389123.0
-1.0,-3.0,-18.0,-19.0,-2.0,5.0,3.0,-2.0,1651086173404376.0
4.0,3.0,25.0,18.0,2.0,3.0,4.0,9.0,1651086173404376.0
-1.0,-1.0,-14.0,9.0,-5.0,-4.0,-4.0,-8.0,1651086173405263.0
-4.0,-4.0,10.0,-9.0,-8.0,-1.0,4.0,3.0,1651086173405263.0
-1.0,-2.0,-9.0,4.0,11.0,0.0,-4.0,-7.0,1651086173427226.0
6.0,3.0,18.0,11.0,4.0,1.0,2.0,3.0,1651086173427226.0
1.0,5.0,10.0,13.0,3.0,0.0,0.0,1.0,1651086173428190.0
2.0,0.0,-11.0,2.0,1.0,2.0,3.0,-4.0,1651086173428190.0
-4.0,-2.0,-3.0,-16.0,-9.0,-2.0,-3.0,2.0,1651086173440391.0
8.0,2.0,25.0,31.0,5.0,-3.0,0.0,1.0,1651086173440391.0
11.0,-3.0,-11.0,-15.0,0.0,7.0,9.0,24.0,1651086173457248.0
-5.0,2.0,7.0,14.0,0.0,-1.0,-6.0,-16.0,1651086173457248.0
-4.0,-3.0,-7.0,-12.0,-5.0,-4.0,-2.0,-5.0,1651086173464222.0
-7.0,-1.0,-10.0,-12.0,-4.0,-6.0,-7.0,-5.0,1651086173464222.0
-1.0,-1.0,-8.0,6.0,-2.0,-1.0,0.0,0.0,1651086173466091.0
5.0,-4.0,-9.0,-9.0,-2.0,-1.0,0.0,15.0,1651086173466091.0
-4.0,1.0,10.0,14.0,-5.0,-10.0,-9.0,-16.0,1651086173487351.0
-1.0,-2.0,-11.0,-13.0,2.0,2.0,-2.0,4.0,1651086173487351.0
-2.0,1.0,-6.0,-10.0,-5.0,2.0,2.0,-7.0,1651086173488195.0
-1.0,-1.0,8.0,12.0,-5.0,0.0,1.0,4.0,1651086173488195.0
0.0,-2.0,-31.0,-15.0,2.0,-3.0,0.0,-1.0,1651086173500625.0
0.0,3.0,26.0,12.0,1.0,0.0,4.0,-1.0,1651086173500625.0
-1.0,-1.0,-2.0,3.0,0.0,0.0,-1.0,-4.0,1651086173509137.0
-5.0,-5.0,-21.0,-39.0,-10.0,-8.0,-5.0,1.0,1651086173509137.0
2.0,2.0,24.0,27.0,0.0,2.0,3.0,9.0,1651086173524379.0
-2.0,-6.0,-23.0,-14.0,3.0,7.0,0.0,-21.0,1651086173524379.0
6.0,1.0,-3.0,8.0,3.0,2.0,0.0,6.0,1651086173526208.0
3.0,2.0,25.0,2.0,3.0,3.0,1.0,-5.0,1651086173526208.0
-5.0,-5.0,0.0,27.0,4.0,2.0,-1.0,-5.0,1651086173554387.0
4.0,1.0,-20.0,-19.0,-2.0,0.0,5.0,18.0,1651086173554387.0
-10.0,11.0,51.0,17.0,1.0,-4.0,-9.0,-15.0,1651086173555257.0
9.0,-2.0,-3.0,7.0,9.0,6.0,5.0,13.0,1651086173555257.0
5.0,1.0,-4.0,-8.0,-5.0,-2.0,0.0,16.0,1651086173560249.0
-1.0,2.0,0.0,-4.0,3.0,-1.0,-1.0,-2.0,1651086173560249.0
-2.0,-7.0,-13.0,-21.0,-12.0,1.0,5.0,-2.0,1651086173569234.0
-6.0,5.0,5.0,20.0,6.0,-1.0,-3.0,0.0,1651086173569234.0
-5.0,-8.0,-10.0,-27.0,-4.0,-1.0,0.0,-1.0,1651086173584581.0
5.0,1.0,9.0,22.0,1.0,-6.0,-1.0,5.0,1651086173584581.0
6.0,10.0,-10.0,-25.0,-4.0,-2.0,-3.0,-2.0,1651086173585420.0
-8.0,2.0,29.0,22.0,2.0,2.0,-1.0,12.0,1651086173585420.0
6.0,-3.0,-13.0,-12.0,-3.0,4.0,2.0,-8.0,1651086173614378.0
5.0,-15.0,15.0,11.0,2.0,-2.0,-3.0,5.0,1651086173614378.0
-9.0,-3.0,-12.0,-5.0,4.0,-1.0,-2.0,-11.0,1651086173621625.0
7.0,14.0,-2.0,-4.0,-3.0,-3.0,-6.0,11.0,1651086173621625.0
-3.0,7.0,43.0,16.0,-1.0,-3.0,1.0,-10.0,1651086173630381.0
7.0,-6.0,-13.0,-14.0,-5.0,-4.0,-5.0,8.0,1651086173630381.0
-19.0,-7.0,28.0,22.0,6.0,2.0,3.0,4.0,1651086173631239.0
-1.0,-6.0,-18.0,-2.0,-1.0,-2.0,-2.0,0.0,1651086173631239.0
-6.0,1.0,-4.0,-9.0,-12.0,-5.0,-7.0,-6.0,1651086173643232.0
8.0,-2.0,-20.0,-16.0,1.0,5.0,3.0,3.0,1651086173643232.0
-5.0,-8.0,-26.0,-11.0,-5.0,-4.0,-3.0,-4.0,1651086173650213.0
-7.0,3.0,14.0,5.0,4.0,4.0,0.0,-11.0,1651086173650213.0
-4.0,-10.0,3.0,1.0,-2.0,-3.0,-3.0,-7.0,1651086173674701.0
-3.0,20.0,26.0,10.0,-2.0,1.0,0.0,-2.0,1651086173674701.0
0.0,-7.0,14.0,21.0,-1.0,-5.0,1.0,10.0,1651086173675543.0
6.0,7.0,-32.0,-39.0,-4.0,-2.0,-2.0,-2.0,1651086173675543.0
11.0,-9.0,-23.0,-9.0,1.0,-2.0,-4.0,-14.0,1651086173689661.0
-4.0,-8.0,-17.0,-3.0,-1.0,2.0,8.0,12.0,1651086173689661.0
-4.0,7.0,-34.0,-18.0,-9.0,-3.0,-5.0,-14.0,1651086173690503.0
-2.0,-10.0,3.0,-2.0,-9.0,-4.0,1.0,-3.0,1651086173690503.0
2.0,1.0,9.0,14.0,4.0,8.0,9.0,8.0,1651086173705183.0
-3.0,5.0,21.0,-4.0,3.0,1.0,1.0,2.0,1651086173705183.0
10.0,1.0,16.0,14.0,5.0,3.0,5.0,6.0,1651086173706059.0
-9.0,-6.0,8.0,31.0,0.0,-9.0,-16.0,2.0,1651086173706059.0
13.0,9.0,-12.0,-11.0,3.0,1.0,-2.0,-7.0,1651086173726513.0
-12.0,1.0,-25.0,-15.0,-4.0,-2.0,-3.0,-10.0,1651086173726513.0
11.0,-10.0,-12.0,1.0,-7.0,-6.0,-3.0,17.0,1651086173732497.0
-5.0,10.0,21.0,4.0,0.0,1.0,2.0,-9.0,1651086173732497.0
3.0,4.0,-3.0,9.0,11.0,2.0,4.0,12.0,1651086173749233.0
-21.0,-4.0,12.0,14.0,-1.0,-3.0,-9.0,-11.0,1651086173749233.0
0.0,-3.0,-8.0,-23.0,-2.0,2.0,1.0,-7.0,1651086173751231.0
4.0,-3.0,-19.0,-15.0,-4.0,5.0,9.0,2.0,1651086173751231.0
-6.0,8.0,24.0,15.0,2.0,-2.0,-2.0,-5.0,1651086173764283.0
3.0,-11.0,-55.0,-21.0,-8.0,-1.0,3.0,11.0,1651086173764283.0
-6.0,-3.0,-1.0,-18.0,-5.0,-5.0,-3.0,-13.0,1651086173766144.0
-2.0,-6.0,-23.0,7.0,2.0,5.0,5.0,-14.0,1651086173766144.0
-8.0,-2.0,32.0,-8.0,-5.0,-8.0,-5.0,12.0,1651086173788276.0
1.0,10.0,10.0,3.0,-3.0,-3.0,-3.0,-7.0,1651086173788276.0
3.0,-3.0,12.0,28.0,7.0,1.0,-2.0,4.0,1651086173789077.0
5.0,-1.0,-3.0,-38.0,-11.0,-3.0,-4.0,0.0,1651086173789077.0
-4.0,-2.0,-9.0,12.0,4.0,2.0,0.0,12.0,1651086173809125.0
-7.0,-2.0,14.0,0.0,3.0,10.0,12.0,-19.0,1651086173809125.0
-6.0,2.0,1.0,-11.0,-5.0,-9.0,-9.0,0.0,1651086173811154.0
5.0,-1.0,-7.0,11.0,5.0,2.0,6.0,5.0,1651086173811154.0
-2.0,0.0,5.0,-3.0,-4.0,-6.0,-3.0,6.0,1651086173824300.0
6.0,-10.0,-9.0,-7.0,-5.0,0.0,3.0,-3.0,1651086173824300.0
-4.0,13.0,5.0,2.0,3.0,4.0,2.0,9.0,1651086173831252.0
2.0,-1.0,13.0,18.0,17.0,4.0,2.0,-9.0,1651086173831252.0
-2.0,-10.0,5.0,-3.0,-5.0,-1.0,-1.0,-14.0,1651086173847377.0
3.0,11.0,-28.0,15.0,-2.0,-2.0,-4.0,-3.0,1651086173847377.0
-5.0,-6.0,-5.0,-29.0,1.0,4.0,3.0,-8.0,1651086173848216.0
2.0,-3.0,22.0,24.0,-4.0,-3.0,-2.0,18.0,1651086173848216.0
-6.0,5.0,19.0,20.0,3.0,1.0,-6.0,-21.0,1651086173869240.0
8.0,-5.0,13.0,-10.0,-4.0,-2.0,-2.0,2.0,1651086173869240.0
1.0,2.0,-17.0,20.0,6.0,0.0,2.0,7.0,1651086173871236.0
-6.0,-3.0,-9.0,-30.0,-2.0,4.0,3.0,-3.0,1651086173871236.0
-4.0,-1.0,-13.0,-4.0,-1.0,1.0,0.0,-4.0,1651086173883200.0
-2.0,-6.0,-4.0,0.0,-3.0,-3.0,-3.0,7.0,1651086173883200.0
4.0,3.0,-3.0,-11.0,-1.0,0.0,-2.0,-3.0,1651086173890403.0
-18.0,-5.0,4.0,15.0,-1.0,-1.0,4.0,-2.0,1651086173890403.0
16.0,1.0,-14.0,-8.0,9.0,5.0,4.0,-9.0,1651086173907383.0
-5.0,13.0,42.0,13.0,1.0,-10.0,-10.0,-1.0,1651086173907383.0
3.0,-21.0,-36.0,-12.0,1.0,2.0,4.0,7.0,1651086173908225.0
9.0,9.0,2.0,3.0,-1.0,-1.0,-5.0,-6.0,1651086173908225.0
-20.0,-11.0,-31.0,-14.0,-6.0,-1.0,-1.0,8.0,1651086173929228.0
-1.0,1.0,-4.0,-6.0,2.0,1.0,0.0,-6.0,1651086173929228.0
3.0,-4.0,50.0,35.0,2.0,-3.0,-3.0,-2.0,1651086173929228.0
-1.0,-1.0,4.0,1.0,-11.0,-6.0,0.0,3.0,1651086173929228.0
-1.0,5.0,-16.0,-14.0,3.0,0.0,5.0,16.0,1651086173942463.0
6.0,1.0,7.0,7.0,7.0,2.0,-6.0,-21.0,1651086173942463.0
-3.0,2.0,-7.0,7.0,1.0,1.0,0.0,8.0,1651086173951957.0
7.0,-7.0,19.0,1.0,5.0,0.0,3.0,8.0,1651086173951957.0
-1.0,4.0,-21.0,-14.0,-4.0,2.0,2.0,-9.0,1651086173966359.0
-8.0,-5.0,6.0,-17.0,-9.0,-9.0,-9.0,0.0,1651086173966359.0
8.0,13.0,33.0,18.0,-4.0,2.0,-2.0,-3.0,1651086173966359.0
-4.0,-4.0,3.0,18.0,21.0,5.0,0.0,-4.0,1651086173966359.0
2.0,1.0,17.0,-5.0,-4.0,-2.0,0.0,9.0,1651086173989239.0
-5.0,-9.0,9.0,19.0,4.0,5.0,3.0,7.0,1651086173989239.0
1.0,3.0,-21.0,-25.0,-8.0,-1.0,0.0,1.0,1651086173989239.0
5.0,17.0,25.0,-6.0,0.0,0.0,2.0,8.0,1651086173989239.0
-11.0,-16.0,-7.0,0.0,-8.0,-3.0,-6.0,-21.0,1651086174020401.0
0.0,4.0,-9.0,3.0,8.0,4.0,5.0,2.0,1651086174020401.0
3.0,5.0,14.0,10.0,5.0,3.0,2.0,4.0,1651086174020401.0
-11.0,-17.0,-44.0,-24.0,-10.0,-4.0,-1.0,-1.0,1651086174020401.0
-4.0,0.0,17.0,4.0,5.0,2.0,3.0,-2.0,1651086174026387.0
2.0,-4.0,6.0,-6.0,-9.0,-5.0,0.0,12.0,1651086174026387.0
-1.0,5.0,41.0,49.0,7.0,0.0,-2.0,-8.0,1651086174026387.0
3.0,-6.0,-87.0,-66.0,-17.0,-7.0,-2.0,10.0,1651086174026387.0
8.0,-1.0,26.0,13.0,6.0,1.0,2.0,4.0,1651086174048712.0
-5.0,-2.0,-34.0,-1.0,0.0,0.0,1.0,1.0,1651086174048712.0
9.0,0.0,19.0,-6.0,-4.0,2.0,7.0,15.0,1651086174049578.0
-11.0,2.0,-14.0,-3.0,8.0,-2.0,-9.0,-8.0,1651086174049578.0
1.0,9.0,0.0,7.0,-2.0,1.0,1.0,8.0,1651086174063284.0
6.0,8.0,20.0,-20.0,-4.0,-2.0,-3.0,-4.0,1651086174063284.0
-8.0,-14.0,-10.0,29.0,2.0,-3.0,-1.0,2.0,1651086174079223.0
6.0,8.0,9.0,-2.0,-9.0,1.0,-1.0,-6.0,1651086174079223.0
6.0,-10.0,1.0,-15.0,-4.0,-5.0,-1.0,1.0,1651086174086359.0
-10.0,4.0,5.0,-9.0,2.0,5.0,2.0,8.0,1651086174086359.0
-7.0,-2.0,2.0,2.0,-5.0,-5.0,-5.0,-12.0,1651086174086359.0
-7.0,-10.0,-11.0,2.0,-1.0,-1.0,-4.0,-40.0,1651086174086359.0
6.0,4.0,7.0,19.0,5.0,1.0,-4.0,5.0,1651086174109203.0
8.0,-15.0,-2.0,4.0,-17.0,-2.0,3.0,1.0,1651086174109203.0
2.0,31.0,6.0,3.0,27.0,4.0,1.0,-1.0,1651086174109203.0
0.0,-5.0,-11.0,-9.0,-2.0,0.0,-5.0,-13.0,1651086174109203.0
-1.0,14.0,-8.0,-10.0,1.0,0.0,4.0,4.0,1651086174122612.0
7.0,0.0,10.0,14.0,6.0,-1.0,-2.0,5.0,1651086174122612.0
-6.0,-7.0,-5.0,-18.0,-13.0,-4.0,-1.0,-1.0,1651086174131367.0
7.0,-9.0,29.0,23.0,-5.0,-5.0,0.0,11.0,1651086174131367.0
0.0,-20.0,-46.0,-14.0,-7.0,-6.0,-5.0,-3.0,1651086174146629.0
-4.0,13.0,7.0,-18.0,7.0,3.0,-2.0,-2.0,1651086174146629.0
0.0,4.0,-22.0,-10.0,-6.0,-4.0,-4.0,-17.0,1651086174153464.0
4.0,4.0,40.0,-4.0,-5.0,1.0,5.0,6.0,1651086174153464.0
4.0,-7.0,-30.0,-21.0,-15.0,-7.0,-3.0,2.0,1651086174168361.0
-11.0,-12.0,-14.0,23.0,7.0,0.0,0.0,-5.0,1651086174168361.0
3.0,14.0,-2.0,-9.0,2.0,2.0,1.0,2.0,1651086174169208.0
-5.0,11.0,-6.0,7.0,2.0,-1.0,0.0,-7.0,1651086174169208.0
4.0,7.0,8.0,1.0,0.0,5.0,0.0,6.0,1651086174183637.0
-1.0,-18.0,-44.0,-30.0,-9.0,-6.0,1.0,5.0,1651086174183637.0
10.0,1.0,11.0,-12.0,-4.0,2.0,2.0,3.0,1651086174191403.0
0.0,0.0,-7.0,12.0,3.0,2.0,0.0,4.0,1651086174191403.0
-2.0,5.0,-4.0,2.0,1.0,-2.0,0.0,0.0,1651086174206385.0
-4.0,0.0,6.0,-7.0,-2.0,-2.0,-3.0,-13.0,1651086174206385.0
-2.0,-16.0,-24.0,-5.0,-10.0,-4.0,-6.0,-3.0,1651086174207251.0
-3.0,-2.0,-7.0,-3.0,1.0,-2.0,-1.0,4.0,1651086174207251.0
-1.0,12.0,0.0,-12.0,2.0,-2.0,0.0,-3.0,1651086174229231.0
0.0,1.0,53.0,26.0,6.0,7.0,0.0,-2.0,1651086174229231.0
-2.0,-2.0,-24.0,-7.0,-3.0,-3.0,3.0,4.0,1651086174229231.0
0.0,0.0,-2.0,-15.0,-6.0,-5.0,-6.0,0.0,1651086174229231.0
-6.0,-7.0,13.0,19.0,0.0,2.0,3.0,-1.0,1651086174252528.0
2.0,2.0,-15.0,0.0,2.0,-1.0,-2.0,1.0,1651086174252528.0
5.0,-8.0,19.0,3.0,-4.0,2.0,0.0,17.0,1651086174252528.0
-6.0,-1.0,33.0,-3.0,4.0,3.0,-1.0,-11.0,1651086174252528.0
2.0,3.0,-6.0,23.0,4.0,-2.0,1.0,4.0,1651086174266030.0
2.0,-8.0,-6.0,-1.0,-8.0,-7.0,1.0,0.0,1651086174266030.0
-7.0,-3.0,2.0,-1.0,5.0,1.0,1.0,4.0,1651086174267054.0
7.0,5.0,-5.0,-5.0,-2.0,-1.0,0.0,4.0,1651086174267054.0
-3.0,-12.0,24.0,1.0,3.0,2.0,1.0,0.0,1651086174297404.0
2.0,33.0,-8.0,-4.0,-6.0,-3.0,-7.0,-1.0,1651086174297404.0
-8.0,-14.0,-12.0,-5.0,8.0,4.0,1.0,-7.0,1651086174297404.0
6.0,-9.0,-14.0,8.0,-2.0,-4.0,0.0,3.0,1651086174297404.0
-4.0,0.0,-8.0,-8.0,-5.0,-2.0,-2.0,-8.0,1651086174302287.0
5.0,-4.0,-30.0,-18.0,-2.0,2.0,4.0,14.0,1651086174302287.0
-4.0,-5.0,0.0,23.0,6.0,-2.0,-3.0,-21.0,1651086174311423.0
-6.0,-4.0,8.0,-3.0,1.0,1.0,-1.0,4.0,1651086174311423.0
-1.0,-11.0,-9.0,-2.0,0.0,1.0,-2.0,0.0,1651086174326188.0
-1.0,-16.0,-9.0,11.0,-5.0,-4.0,0.0,-2.0,1651086174326188.0
0.0,20.0,8.0,-7.0,3.0,1.0,-5.0,0.0,1651086174327185.0
5.0,1.0,-20.0,-25.0,-13.0,-1.0,2.0,-1.0,1651086174327185.0
-6.0,-13.0,12.0,24.0,17.0,1.0,-3.0,-3.0,1651086174348646.0
3.0,15.0,22.0,-7.0,-3.0,-1.0,1.0,0.0,1651086174348646.0
-3.0,-18.0,6.0,17.0,-3.0,-4.0,-2.0,-5.0,1651086174349525.0
-4.0,8.0,-21.0,10.0,20.0,5.0,-1.0,-2.0,1651086174349525.0
1.0,12.0,-1.0,-17.0,-13.0,-1.0,1.0,3.0,1651086174363201.0
-1.0,-16.0,0.0,15.0,7.0,1.0,0.0,-3.0,1651086174363201.0
3.0,-4.0,4.0,-23.0,-8.0,-2.0,2.0,0.0,1651086174371100.0
-9.0,9.0,14.0,20.0,-10.0,-5.0,0.0,2.0,1651086174371100.0
4.0,8.0,0.0,-12.0,2.0,6.0,-1.0,0.0,1651086174386225.0
-1.0,-2.0,-13.0,7.0,12.0,7.0,1.0,-2.0,1651086174386225.0
2.0,1.0,3.0,-9.0,-6.0,-2.0,-1.0,1.0,1651086174387118.0
-1.0,-9.0,-25.0,-3.0,-2.0,-3.0,-1.0,1.0,1651086174387118.0
-2.0,-2.0,11.0,6.0,1.0,-2.0,-2.0,-4.0,1651086174409031.0
-3.0,-4.0,-21.0,-6.0,-1.0,-2.0,0.0,-1.0,1651086174409031.0
8.0,24.0,18.0,-4.0,-2.0,1.0,-1.0,1.0,1651086174409123.0
3.0,-9.0,8.0,2.0,-3.0,-1.0,0.0,1.0,1651086174409123.0
2.0,0.0,0.0,12.0,6.0,1.0,0.0,2.0,1651086174431564.0
0.0,0.0,5.0,-5.0,-7.0,-3.0,0.0,-4.0,1651086174431564.0
0.0,-2.0,-14.0,1.0,1.0,0.0,0.0,2.0,1651086174432564.0
-7.0,-4.0,4.0,-3.0,8.0,3.0,1.0,-1.0,1651086174432564.0
5.0,6.0,2.0,2.0,-2.0,-1.0,1.0,-2.0,1651086174446663.0
3.0,5.0,16.0,3.0,-2.0,-2.0,-3.0,-1.0,1651086174446663.0
-6.0,-10.0,-5.0,-4.0,-5.0,-1.0,0.0,0.0,1651086174454240.0
3.0,4.0,3.0,3.0,1.0,2.0,1.0,0.0,1651086174454240.0
-5.0,1.0,-1.0,0.0,0.0,3.0,-1.0,1.0,1651086174469035.0
-1.0,-3.0,4.0,-7.0,-3.0,-1.0,1.0,0.0,1651086174469035.0
0.0,2.0,-2.0,-1.0,-1.0,-3.0,-1.0,-1.0,1651086174469145.0
1.0,-3.0,2.0,4.0,-1.0,0.0,-1.0,2.0,1651086174469145.0
-2.0,-10.0,-5.0,-4.0,-1.0,0.0,-2.0,-1.0,1651086174492332.0
3.0,11.0,2.0,4.0,6.0,3.0,0.0,-1.0,1651086174492332.0
-2.0,-18.0,-4.0,-3.0,-3.0,-1.0,0.0,-1.0,1651086174492332.0
1.0,21.0,14.0,5.0,1.0,-2.0,-1.0,-2.0,1651086174492332.0
1.0,2.0,-5.0,-5.0,-8.0,-5.0,1.0,1.0,1651086174506448.0
0.0,-4.0,6.0,2.0,1.0,1.0,-1.0,-1.0,1651086174506448.0
-4.0,-2.0,-1.0,3.0,4.0,1.0,0.0,-1.0,1651086174506448.0
1.0,-12.0,-8.0,3.0,2.0,2.0,-1.0,0.0,1651086174506448.0
-1.0,6.0,5.0,-1.0,0.0,0.0,-1.0,0.0,1651086174528355.0
-1.0,4.0,13.0,1.0,-1.0,-3.0,-2.0,0.0,1651086174528355.0
0.0,-5.0,-14.0,-1.0,1.0,-2.0,-1.0,0.0,1651086174529207.0
0.0,7.0,5.0,-6.0,-2.0,2.0,1.0,0.0,1651086174529207.0
-1.0,3.0,-4.0,5.0,3.0,0.0,-3.0,-2.0,1651086174553247.0
-1.0,-1.0,-3.0,-2.0,-2.0,-2.0,1.0,-2.0,1651086174553247.0
-2.0,-4.0,-4.0,-9.0,-9.0,-3.0,-1.0,-1.0,1651086174554213.0
-4.0,-3.0,-1.0,2.0,-1.0,1.0,-1.0,-1.0,1651086174554213.0
6.0,-7.0,3.0,7.0,9.0,0.0,0.0,0.0,1651086174566375.0
-6.0,2.0,-2.0,2.0,5.0,0.0,-1.0,-5.0,1651086174566375.0
0.0,6.0,4.0,-7.0,-2.0,0.0,1.0,10.0,1651086174566375.0
-6.0,-21.0,-11.0,-2.0,-4.0,-2.0,-3.0,4.0,1651086174566375.0
1.0,12.0,3.0,-9.0,-9.0,-3.0,-2.0,0.0,1651086174588352.0
1.0,-9.0,1.0,6.0,1.0,1.0,0.0,-1.0,1651086174588352.0
0.0,7.0,-2.0,-4.0,3.0,2.0,0.0,5.0,1651086174589207.0
-3.0,-2.0,2.0,2.0,1.0,2.0,1.0,-4.0,1651086174589207.0
-4.0,-4.0,2.0,0.0,-6.0,-2.0,0.0,-1.0,1651086174612183.0
7.0,-12.0,-1.0,2.0,1.0,-2.0,-2.0,5.0,1651086174612183.0
-4.0,10.0,-5.0,2.0,2.0,1.0,-1.0,-7.0,1651086174612183.0
5.0,3.0,3.0,-5.0,-4.0,-2.0,-1.0,1.0,1651086174612183.0
-2.0,-6.0,-1.0,-2.0,-2.0,-2.0,0.0,-3.0,1651086174625589.0
-4.0,-7.0,-9.0,0.0,5.0,3.0,1.0,1.0,1651086174625589.0
-2.0,-1.0,4.0,0.0,0.0,0.0,-1.0,-4.0,1651086174626440.0
2.0,5.0,8.0,1.0,-2.0,-4.0,-2.0,-3.0,1651086174626440.0
0.0,0.0,-10.0,-2.0,0.0,0.0,1.0,4.0,1651086174648778.0
-1.0,-5.0,2.0,-7.0,-3.0,1.0,0.0,-2.0,1651086174648778.0
-1.0,5.0,-6.0,1.0,-2.0,-2.0,-1.0,-3.0,1651086174648778.0
1.0,-3.0,0.0,0.0,-3.0,-2.0,-1.0,3.0,1651086174648778.0
-2.0,-5.0,-1.0,2.0,1.0,-1.0,-2.0,-4.0,1651086174671398.0
1.0,5.0,3.0,-3.0,-2.0,0.0,1.0,0.0,1651086174671398.0
1.0,0.0,5.0,0.0,-7.0,-2.0,-2.0,-3.0,1651086174671398.0
0.0,-1.0,1.0,6.0,9.0,2.0,1.0,0.0,1651086174671398.0
-3.0,-4.0,-7.0,-10.0,-10.0,-3.0,-1.0,-3.0,1651086174686338.0
-2.0,3.0,2.0,3.0,0.0,2.0,1.0,-2.0,1651086174686338.0
2.0,-11.0,-10.0,1.0,4.0,2.0,-1.0,2.0,1651086174687222.0
0.0,15.0,5.0,-3.0,-6.0,-3.0,-2.0,-3.0,1651086174687222.0
-2.0,-10.0,-2.0,-4.0,-1.0,0.0,1.0,-1.0,1651086174709004.0
-2.0,5.0,3.0,1.0,0.0,0.0,0.0,2.0,1651086174709004.0
0.0,-1.0,4.0,2.0,-1.0,-1.0,-2.0,-1.0,1651086174709107.0
-3.0,-6.0,-5.0,-4.0,-3.0,-4.0,-1.0,-2.0,1651086174709107.0
2.0,11.0,-1.0,1.0,3.0,2.0,1.0,3.0,1651086174731216.0
-1.0,-4.0,-1.0,-3.0,-2.0,-2.0,0.0,-1.0,1651086174731216.0
-2.0,-3.0,-7.0,-1.0,1.0,0.0,1.0,-1.0,1651086174732130.0
2.0,-5.0,-1.0,-3.0,2.0,0.0,-1.0,0.0,1651086174732130.0
-2.0,4.0,3.0,1.0,1.0,-2.0,-1.0,-1.0,1651086174746218.0
0.0,1.0,1.0,0.0,-8.0,-4.0,-3.0,1.0,1651086174746218.0
-2.0,-1.0,0.0,5.0,7.0,4.0,1.0,-1.0,1651086174746218.0
-1.0,-2.0,-4.0,0.0,2.0,0.0,0.0,0.0,1651086174746218.0
-1.0,-9.0,-3.0,-2.0,-4.0,-3.0,-1.0,-2.0,1651086174768162.0
2.0,14.0,7.0,1.0,-1.0,-1.0,-2.0,0.0,1651086174768162.0
-1.0,-4.0,0.0,1.0,-1.0,-2.0,-2.0,-2.0,1651086174769102.0
0.0,-3.0,-7.0,-4.0,-3.0,1.0,2.0,0.0,1651086174769102.0
0.0,-3.0,3.0,3.0,2.0,0.0,1.0,1.0,1651086174791333.0
-3.0,-1.0,-6.0,1.0,-2.0,-1.0,-3.0,-2.0,1651086174791333.0
-1.0,3.0,0.0,-1.0,-2.0,-1.0,0.0,1.0,1651086174792191.0
0.0,0.0,2.0,0.0,-3.0,-1.0,0.0,-1.0,1651086174792191.0
-1.0,-1.0,0.0,-1.0,-1.0,-1.0,-1.0,1.0,1651086174806353.0
0.0,-2.0,-4.0,-3.0,0.0,-2.0,0.0,-1.0,1651086174806353.0
-1.0,0.0,1.0,-1.0,-2.0,-2.0,-2.0,-2.0,1651086174807205.0
-1.0,-1.0,-1.0,1.0,1.0,0.0,0.0,0.0,1651086174807205.0
1.0,1.0,0.0,1.0,-1.0,-2.0,-2.0,1.0,1651086174829242.0
0.0,0.0,0.0,-2.0,0.0,-1.0,0.0,-1.0,1651086174829242.0
0.0,-3.0,0.0,2.0,3.0,-1.0,0.0,-1.0,1651086174829242.0
-1.0,-1.0,-1.0,3.0,3.0,2.0,2.0,-1.0,1651086174829242.0
1.0,3.0,0.0,0.0,-1.0,-1.0,1.0,1.0,1651086174851945.0
-1.0,-2.0,-2.0,-1.0,-2.0,-1.0,0.0,-1.0,1651086174851945.0
1.0,1.0,1.0,-3.0,-5.0,-2.0,-2.0,-1.0,1651086174851945.0
0.0,-1.0,-1.0,1.0,3.0,1.0,-2.0,0.0,1651086174851945.0
-1.0,3.0,0.0,-2.0,-6.0,-3.0,-3.0,-1.0,1651086174866228.0
-2.0,-2.0,0.0,1.0,4.0,3.0,1.0,0.0,1651086174866228.0
-1.0,0.0,-1.0,1.0,8.0,6.0,1.0,-1.0,1651086174866228.0
1.0,-1.0,0.0,-1.0,-5.0,-3.0,-1.0,0.0,1651086174866228.0
0.0,0.0,0.0,1.0,1.0,1.0,0.0,-1.0,1651086174889168.0
1.0,1.0,-1.0,0.0,-2.0,-3.0,-2.0,-2.0,1651086174889168.0
0.0,-1.0,-1.0,-2.0,-4.0,-4.0,-1.0,0.0,1651086174889168.0
1.0,1.0,-1.0,-1.0,-1.0,1.0,0.0,-2.0,1651086174889168.0
0.0,1.0,-2.0,-3.0,-1.0,1.0,-1.0,-1.0,1651086174911625.0
0.0,0.0,0.0,0.0,-1.0,-1.0,1.0,1.0,1651086174911625.0
-1.0,0.0,0.0,2.0,1.0,-1.0,1.0,-3.0,1651086174911625.0
-1.0,-1.0,-1.0,1.0,1.0,0.0,0.0,1.0,1651086174911625.0
-1.0,0.0,0.0,1.0,-1.0,0.0,0.0,-2.0,1651086174926223.0
0.0,0.0,0.0,-3.0,-4.0,-1.0,0.0,0.0,1651086174926223.0
0.0,-1.0,-3.0,-3.0,-4.0,-4.0,-2.0,1.0,1651086174926223.0
-1.0,-2.0,0.0,-3.0,1.0,-1.0,0.0,-1.0,1651086174926223.0
-2.0,1.0,1.0,6.0,6.0,3.0,0.0,-2.0,1651086174949246.0
0.0,1.0,-2.0,1.0,0.0,0.0,0.0,-2.0,1651086174949246.0
0.0,-1.0,-3.0,-1.0,-3.0,-1.0,0.0,1.0,1651086174949246.0
-2.0,0.0,-1.0,-1.0,-2.0,1.0,-1.0,0.0,1651086174949246.0
0.0,-1.0,0.0,-3.0,-1.0,-1.0,0.0,1.0,1651086174971387.0
1.0,0.0,-2.0,-3.0,-1.0,-3.0,0.0,0.0,1651086174971387.0
-1.0,-1.0,-1.0,1.0,-2.0,-1.0,1.0,-1.0,1651086174971387.0
-1.0,0.0,-1.0,2.0,3.0,2.0,-1.0,-1.0,1651086174971387.0
0.0,-2.0,2.0,0.0,0.0,1.0,-1.0,-3.0,1651086174986208.0
0.0,-1.0,0.0,1.0,2.0,-1.0,0.0,0.0,1651086174986208.0
0.0,-1.0,-2.0,0.0,2.0,-1.0,-2.0,-2.0,1651086174986208.0
1.0,-1.0,0.0,-2.0,-1.0,-4.0,0.0,1.0,1651086174986208.0
-1.0,0.0,-1.0,0.0,0.0,3.0,0.0,0.0,1651086175008360.0
-1.0,0.0,-3.0,-2.0,-2.0,-1.0,-2.0,0.0,1651086175008360.0
0.0,-1.0,-1.0,0.0,0.0,0.0,0.0,0.0,1651086175009201.0
2.0,0.0,0.0,1.0,1.0,2.0,0.0,0.0,1651086175009201.0
0.0,1.0,-2.0,-1.0,-2.0,-3.0,-1.0,-1.0,1651086175032375.0
-2.0,2.0,0.0,1.0,2.0,2.0,-1.0,0.0,1651086175032375.0
-1.0,1.0,0.0,0.0,1.0,0.0,-1.0,-1.0,1651086175032375.0
1.0,-1.0,0.0,-2.0,-5.0,-2.0,-1.0,-1.0,1651086175032375.0
-1.0,0.0,-1.0,0.0,-2.0,-3.0,-1.0,1.0,1651086175046356.0
0.0,-1.0,1.0,0.0,-3.0,-2.0,-2.0,-2.0,1651086175046356.0
-2.0,-1.0,-1.0,-3.0,-1.0,-2.0,0.0,0.0,1651086175046356.0
-1.0,-2.0,-1.0,0.0,1.0,0.0,-2.0,-2.0,1651086175046356.0
0.0,-1.0,2.0,2.0,2.0,0.0,0.0,0.0,1651086175069225.0
-2.0,-2.0,-3.0,-1.0,-1.0,1.0,0.0,0.0,1651086175069225.0
1.0,-1.0,0.0,-2.0,-1.0,0.0,-1.0,0.0,1651086175069225.0
0.0,-1.0,-2.0,-3.0,-5.0,-1.0,-1.0,0.0,1651086175069225.0
0.0,0.0,-1.0,-1.0,-6.0,-3.0,-1.0,1.0,1651086175091380.0
-1.0,0.0,-1.0,3.0,11.0,4.0,-1.0,-1.0,1651086175091380.0
0.0,-2.0,0.0,0.0,1.0,0.0,1.0,0.0,1651086175091380.0
1.0,-1.0,-3.0,-5.0,-6.0,-4.0,-1.0,1.0,1651086175091380.0
-2.0,-1.0,0.0,-1.0,2.0,-2.0,0.0,-2.0,1651086175106354.0
-1.0,1.0,3.0,1.0,3.0,2.0,1.0,0.0,1651086175106354.0
-1.0,-1.0,0.0,0.0,-2.0,4.0,-1.0,0.0,1651086175121426.0
-1.0,1.0,-2.0,0.0,-1.0,-2.0,-1.0,1.0,1651086175121426.0
0.0,-2.0,-1.0,-3.0,-5.0,-3.0,-1.0,1.0,1651086175129231.0
-1.0,-2.0,0.0,0.0,-1.0,-1.0,1.0,-1.0,1651086175129231.0
1.0,0.0,2.0,0.0,1.0,-1.0,0.0,-2.0,1651086175129231.0
-2.0,0.0,0.0,1.0,0.0,0.0,0.0,-1.0,1651086175129231.0
0.0,0.0,-2.0,-2.0,-2.0,0.0,-2.0,1.0,1651086175151926.0
1.0,-1.0,-2.0,-1.0,-3.0,-3.0,0.0,-1.0,1651086175151926.0
0.0,1.0,0.0,2.0,0.0,0.0,0.0,-1.0,1651086175151926.0
0.0,-2.0,0.0,1.0,2.0,1.0,1.0,-2.0,1651086175151926.0
-1.0,-2.0,0.0,0.0,2.0,-1.0,-1.0,-2.0,1651086175165010.0
1.0,-1.0,-2.0,-2.0,-4.0,-2.0,-3.0,1.0,1651086175165010.0
-1.0,0.0,-2.0,0.0,1.0,-2.0,0.0,0.0,1651086175174106.0
-1.0,0.0,0.0,1.0,1.0,3.0,3.0,0.0,1651086175174106.0
0.0,1.0,0.0,0.0,1.0,-1.0,0.0,-1.0,1651086175189103.0
1.0,-1.0,-1.0,-5.0,-7.0,-3.0,0.0,0.0,1651086175189103.0
0.0,0.0,-3.0,-3.0,-4.0,-4.0,-2.0,-1.0,1651086175189103.0
-2.0,0.0,1.0,1.0,1.0,-1.0,1.0,-1.0,1651086175189103.0
0.0,0.0,1.0,0.0,4.0,6.0,2.0,1.0,1651086175211222.0
-2.0,-3.0,0.0,-1.0,-1.0,1.0,0.0,2.0,1651086175211222.0
0.0,-1.0,0.0,-1.0,-1.0,-3.0,-1.0,-1.0,1651086175212071.0
1.0,-1.0,0.0,0.0,0.0,-1.0,-2.0,-1.0,1651086175212071.0
0.0,-1.0,1.0,0.0,-3.0,-1.0,-1.0,-2.0,1651086175225357.0
1.0,1.0,-3.0,-2.0,-3.0,-5.0,-1.0,-2.0,1651086175225357.0
-2.0,0.0,0.0,-1.0,0.0,0.0,-1.0,-1.0,1651086175234481.0
0.0,0.0,0.0,0.0,0.0,1.0,1.0,0.0,1651086175234481.0
0.0,0.0,0.0,2.0,2.0,2.0,0.0,0.0,1651086175256329.0
0.0,-2.0,-2.0,1.0,-2.0,0.0,0.0,1.0,1651086175256329.0
-1.0,-1.0,0.0,-1.0,-3.0,-2.0,-2.0,-1.0,1651086175257327.0
0.0,-1.0,0.0,0.0,0.0,0.0,-4.0,-1.0,1651086175257327.0
-2.0,1.0,-1.0,-1.0,-1.0,-2.0,0.0,2.0,1651086175271397.0
-2.0,-2.0,-1.0,-1.0,-2.0,1.0,-1.0,-1.0,1651086175271397.0
-1.0,-1.0,-2.0,-1.0,-3.0,2.0,1.0,0.0,1651086175272235.0
0.0,0.0,-2.0,-2.0,0.0,-2.0,-2.0,0.0,1651086175272235.0
0.0,-2.0,-2.0,1.0,2.0,2.0,1.0,-2.0,1651086175286210.0
0.0,0.0,-1.0,-1.0,-2.0,-3.0,-1.0,-1.0,1651086175286210.0
-1.0,0.0,4.0,1.0,-3.0,0.0,-1.0,0.0,1651086175293324.0
0.0,0.0,-1.0,1.0,-1.0,-2.0,-1.0,0.0,1651086175293324.0
2.0,1.0,-1.0,0.0,1.0,-3.0,-1.0,0.0,1651086175308407.0
0.0,0.0,-1.0,1.0,5.0,3.0,-2.0,0.0,1651086175308407.0
0.0,-2.0,-2.0,0.0,1.0,0.0,-1.0,-1.0,1651086175309111.0
-1.0,-1.0,-1.0,-1.0,-2.0,-2.0,0.0,1.0,1651086175309111.0
1.0,1.0,-1.0,-3.0,-2.0,-2.0,-2.0,0.0,1651086175331883.0
1.0,-2.0,-1.0,-3.0,-2.0,-1.0,-1.0,-1.0,1651086175331883.0
-3.0,1.0,-3.0,1.0,4.0,2.0,0.0,0.0,1651086175331883.0
-2.0,-1.0,0.0,0.0,-1.0,-1.0,0.0,-1.0,1651086175331883.0
0.0,-2.0,-1.0,0.0,1.0,-1.0,1.0,0.0,1651086175347433.0
-1.0,-1.0,1.0,0.0,-2.0,-2.0,-1.0,1.0,1651086175347433.0
1.0,-1.0,-2.0,-5.0,-7.0,-3.0,0.0,0.0,1651086175353392.0
-1.0,-1.0,-1.0,-3.0,-2.0,-2.0,-2.0,-3.0,1651086175353392.0
-5.0,-2.0,0.0,7.0,7.0,5.0,2.0,0.0,1651086175368381.0
0.0,1.0,0.0,-2.0,3.0,5.0,1.0,0.0,1651086175368381.0
0.0,0.0,0.0,0.0,-1.0,-2.0,1.0,0.0,1651086175369220.0
1.0,-1.0,-1.0,-4.0,-6.0,-2.0,-1.0,0.0,1651086175369220.0
-1.0,-1.0,-2.0,-3.0,-5.0,-3.0,-4.0,0.0,1651086175391603.0
-1.0,1.0,1.0,2.0,1.0,0.0,1.0,-1.0,1651086175391603.0
0.0,-1.0,-1.0,-2.0,0.0,2.0,1.0,0.0,1651086175391603.0
1.0,0.0,-1.0,2.0,5.0,3.0,0.0,-2.0,1651086175391603.0
0.0,-1.0,-1.0,-3.0,-2.0,-2.0,-1.0,0.0,1651086175406374.0
1.0,-1.0,-1.0,-1.0,-3.0,-1.0,-1.0,-1.0,1651086175406374.0
1.0,0.0,0.0,-2.0,-2.0,0.0,-1.0,0.0,1651086175414364.0
-1.0,-2.0,-2.0,2.0,1.0,0.0,-1.0,0.0,1651086175414364.0
-1.0,2.0,-2.0,-3.0,-3.0,-2.0,-1.0,-1.0,1651086175429169.0
-1.0,0.0,1.0,-1.0,-4.0,-1.0,-1.0,0.0,1651086175429169.0
0.0,-1.0,2.0,4.0,8.0,3.0,-1.0,0.0,1651086175429169.0
-1.0,-1.0,1.0,0.0,4.0,2.0,-1.0,1.0,1651086175429169.0
1.0,-1.0,-1.0,-2.0,-4.0,-1.0,0.0,0.0,1651086175451670.0
-1.0,-1.0,-2.0,-3.0,0.0,-2.0,-1.0,1.0,1651086175451670.0
-1.0,-2.0,-2.0,2.0,1.0,0.0,0.0,-1.0,1651086175451670.0
-1.0,0.0,0.0,-3.0,-1.0,0.0,1.0,-1.0,1651086175451670.0
-1.0,-2.0,-2.0,-1.0,-1.0,1.0,-2.0,-1.0,1651086175465224.0
0.0,1.0,3.0,1.0,1.0,-3.0,0.0,-1.0,1651086175465224.0
0.0,-2.0,-1.0,-2.0,-3.0,-2.0,-2.0,-1.0,1651086175481782.0
0.0,-1.0,0.0,-1.0,-2.0,-2.0,-1.0,-1.0,1651086175481782.0
-1.0,-1.0,2.0,0.0,-1.0,-2.0,0.0,-2.0,1651086175489232.0
0.0,-1.0,-2.0,1.0,1.0,1.0,-1.0,-2.0,1651086175489232.0
0.0,0.0,-2.0,-2.0,1.0,-1.0,0.0,-1.0,1651086175489232.0
0.0,-2.0,2.0,-1.0,-4.0,-1.0,-1.0,-3.0,1651086175489232.0
-1.0,0.0,-1.0,-2.0,-2.0,-2.0,1.0,0.0,1651086175511354.0
-2.0,-1.0,-2.0,0.0,1.0,4.0,1.0,0.0,1651086175511354.0
0.0,-1.0,0.0,0.0,0.0,0.0,0.0,0.0,1651086175511354.0
1.0,-1.0,-2.0,-1.0,-1.0,-1.0,-2.0,1.0,1651086175511354.0
1.0,-2.0,0.0,-1.0,1.0,0.0,-1.0,-1.0,1651086175534327.0
0.0,-1.0,-1.0,0.0,0.0,-2.0,1.0,0.0,1651086175534327.0
0.0,-1.0,-1.0,1.0,-3.0,-1.0,0.0,-1.0,1651086175535326.0
-1.0,0.0,0.0,-2.0,1.0,-1.0,-1.0,0.0,1651086175535326.0
-1.0,0.0,-5.0,2.0,3.0,2.0,0.0,-3.0,1651086175548626.0
1.0,-2.0,-3.0,0.0,0.0,0.0,-1.0,0.0,1651086175548626.0
1.0,0.0,-1.0,-3.0,2.0,2.0,0.0,-2.0,1651086175549481.0
-2.0,1.0,2.0,2.0,-2.0,-2.0,-1.0,0.0,1651086175549481.0
0.0,-1.0,0.0,-2.0,-5.0,-2.0,-1.0,1.0,1651086175571527.0
0.0,-1.0,-2.0,-1.0,-3.0,-4.0,-2.0,-2.0,1651086175571527.0
-2.0,0.0,2.0,2.0,3.0,4.0,2.0,-1.0,1651086175571527.0
-1.0,-1.0,-1.0,1.0,-1.0,1.0,2.0,-1.0,1651086175571527.0
0.0,0.0,1.0,0.0,0.0,1.0,0.0,-1.0,1651086175594685.0
-2.0,-2.0,0.0,-1.0,0.0,-1.0,0.0,-1.0,1651086175594685.0
0.0,0.0,-1.0,-5.0,-5.0,-4.0,-1.0,0.0,1651086175594685.0
-2.0,0.0,-3.0,0.0,1.0,-2.0,1.0,-1.0,1651086175594685.0
0.0,1.0,3.0,2.0,6.0,5.0,1.0,1.0,1651086175609074.0
1.0,-2.0,-2.0,1.0,-2.0,0.0,0.0,0.0,1651086175609074.0
-1.0,3.0,-1.0,1.0,5.0,0.0,0.0,0.0,1651086175617212.0
-2.0,-10.0,0.0,-3.0,-1.0,-1.0,-3.0,1.0,1651086175617212.0
0.0,-1.0,-5.0,-1.0,-7.0,-3.0,0.0,-1.0,1651086175631392.0
1.0,2.0,0.0,8.0,21.0,9.0,2.0,0.0,1651086175631392.0
0.0,0.0,0.0,-1.0,-10.0,-6.0,-1.0,-1.0,1651086175631392.0
0.0,3.0,-3.0,-3.0,-2.0,-1.0,0.0,-2.0,1651086175631392.0
-2.0,3.0,0.0,1.0,0.0,5.0,1.0,0.0,1651086175654434.0
0.0,1.0,9.0,-2.0,-6.0,-3.0,-1.0,-3.0,1651086175654434.0
0.0,-2.0,-10.0,-2.0,2.0,-1.0,-1.0,0.0,1651086175655272.0
-1.0,2.0,1.0,2.0,3.0,3.0,1.0,0.0,1651086175655272.0
-2.0,-3.0,0.0,2.0,1.0,-1.0,1.0,-1.0,1651086175677344.0
-1.0,3.0,-3.0,-9.0,-11.0,-4.0,-1.0,-1.0,1651086175677344.0
-3.0,-14.0,0.0,3.0,-4.0,-2.0,-1.0,-1.0,1651086175677344.0
1.0,-3.0,-1.0,-1.0,-1.0,1.0,-1.0,0.0,1651086175677344.0
0.0,12.0,7.0,4.0,6.0,1.0,0.0,0.0,1651086175691352.0
2.0,5.0,-2.0,1.0,5.0,2.0,-1.0,0.0,1651086175691352.0
-2.0,-5.0,3.0,-1.0,-3.0,-1.0,-2.0,0.0,1651086175692226.0
0.0,-4.0,-3.0,-5.0,-6.0,-4.0,-1.0,0.0,1651086175692226.0
-1.0,-16.0,-12.0,-6.0,-7.0,-4.0,-1.0,-1.0,1651086175714259.0
-1.0,2.0,0.0,0.0,-4.0,-3.0,-1.0,0.0,1651086175714259.0
1.0,3.0,3.0,0.0,5.0,2.0,2.0,1.0,1651086175715242.0
-1.0,-2.0,0.0,2.0,3.0,9.0,1.0,1.0,1651086175715242.0
-1.0,4.0,0.0,6.0,17.0,3.0,0.0,0.0,1651086175729119.0
-2.0,-3.0,-5.0,-5.0,-7.0,-2.0,-2.0,-1.0,1651086175729119.0
-1.0,2.0,-3.0,-2.0,-10.0,-3.0,-1.0,-2.0,1651086175729119.0
0.0,6.0,2.0,2.0,-7.0,-6.0,-2.0,-1.0,1651086175729119.0
0.0,-2.0,-4.0,-22.0,-15.0,-5.0,-3.0,-2.0,1651086175751391.0
-2.0,-13.0,5.0,7.0,-8.0,-3.0,0.0,0.0,1651086175751391.0
-1.0,0.0,-16.0,6.0,15.0,1.0,0.0,1.0,1651086175751391.0
-1.0,-5.0,2.0,-1.0,-5.0,1.0,-1.0,0.0,1651086175751391.0
0.0,-3.0,7.0,1.0,-4.0,-2.0,0.0,0.0,1651086175774512.0
-1.0,15.0,-6.0,-5.0,0.0,-3.0,0.0,-1.0,1651086175774512.0
-1.0,-1.0,4.0,-6.0,-5.0,0.0,-1.0,-1.0,1651086175775394.0
1.0,4.0,0.0,2.0,4.0,0.0,0.0,-1.0,1651086175775394.0
-1.0,-6.0,0.0,3.0,5.0,4.0,2.0,0.0,1651086175789327.0
-1.0,-4.0,1.0,-2.0,-10.0,-5.0,-1.0,-1.0,1651086175789327.0
-2.0,1.0,8.0,5.0,11.0,8.0,1.0,0.0,1651086175789327.0
1.0,5.0,-8.0,2.0,9.0,-1.0,1.0,1.0,1651086175789327.0
1.0,-7.0,3.0,-1.0,-6.0,-5.0,-1.0,-1.0,1651086175811283.0
0.0,9.0,6.0,-6.0,-6.0,-2.0,-1.0,-1.0,1651086175811283.0
0.0,-3.0,-12.0,1.0,3.0,2.0,0.0,0.0,1651086175811283.0
-2.0,-2.0,-3.0,4.0,1.0,-3.0,0.0,-1.0,1651086175811283.0
-2.0,4.0,-1.0,-2.0,-3.0,0.0,-1.0,1.0,1651086175834490.0
-1.0,0.0,3.0,2.0,3.0,3.0,0.0,0.0,1651086175834490.0
1.0,-5.0,-4.0,-7.0,-9.0,-1.0,0.0,-1.0,1651086175834490.0
-1.0,7.0,15.0,8.0,7.0,1.0,0.0,-1.0,1651086175834490.0
1.0,4.0,-2.0,9.0,10.0,1.0,0.0,1.0,1651086175848779.0
1.0,-5.0,-1.0,0.0,7.0,2.0,0.0,-1.0,1651086175848779.0
-2.0,-15.0,-3.0,-4.0,-7.0,-5.0,-3.0,0.0,1651086175848779.0
-1.0,13.0,-5.0,-6.0,-18.0,-8.0,-4.0,-2.0,1651086175848779.0
-3.0,-8.0,-11.0,-17.0,-13.0,-6.0,-1.0,-2.0,1651086175871339.0
1.0,4.0,8.0,15.0,28.0,18.0,4.0,1.0,1651086175871339.0
0.0,2.0,-1.0,-13.0,-1.0,-5.0,1.0,-1.0,1651086175871339.0
-2.0,-11.0,-8.0,-1.0,-5.0,-1.0,0.0,-2.0,1651086175871339.0
1.0,3.0,12.0,23.0,18.0,3.0,1.0,1.0,1651086175895739.0
-1.0,-9.0,-5.0,-2.0,-19.0,-9.0,-6.0,-3.0,1651086175895739.0
0.0,-1.0,-1.0,-3.0,0.0,-4.0,-3.0,-1.0,1651086175896590.0
-1.0,3.0,6.0,-11.0,2.0,8.0,1.0,1.0,1651086175896590.0
2.0,3.0,-8.0,0.0,-2.0,0.0,0.0,0.0,1651086175908909.0
-1.0,-7.0,-5.0,1.0,2.0,-2.0,-1.0,-1.0,1651086175908909.0
-4.0,4.0,13.0,5.0,-6.0,-2.0,-4.0,-2.0,1651086175908909.0
-1.0,-5.0,-15.0,-15.0,-9.0,-4.0,-1.0,0.0,1651086175908909.0
1.0,2.0,1.0,-7.0,-3.0,-1.0,-2.0,2.0,1651086175931242.0
-2.0,-1.0,-4.0,-9.0,-11.0,-5.0,-1.0,-2.0,1651086175931242.0
0.0,0.0,-3.0,15.0,16.0,5.0,2.0,2.0,1651086175931242.0
1.0,-1.0,0.0,1.0,5.0,1.0,0.0,0.0,1651086175931242.0
-1.0,-3.0,2.0,-11.0,-5.0,1.0,0.0,-2.0,1651086175954292.0
-1.0,-1.0,-7.0,-5.0,-13.0,-5.0,0.0,-1.0,1651086175954292.0
3.0,-5.0,2.0,11.0,24.0,8.0,4.0,-2.0,1651086175955191.0
0.0,13.0,4.0,0.0,-3.0,-8.0,-1.0,0.0,1651086175955191.0
-1.0,12.0,6.0,9.0,19.0,10.0,1.0,1.0,1651086175968961.0
-2.0,-2.0,5.0,-4.0,-6.0,-3.0,-2.0,-1.0,1651086175968961.0
-2.0,4.0,-2.0,6.0,9.0,4.0,1.0,-1.0,1651086175969122.0
1.0,-15.0,-1.0,3.0,-7.0,-3.0,-1.0,0.0,1651086175969122.0
-2.0,0.0,7.0,-12.0,-16.0,-11.0,-4.0,-3.0,1651086175991409.0
0.0,-3.0,-13.0,-16.0,-16.0,-8.0,0.0,1.0,1651086175991409.0
-1.0,7.0,-8.0,-13.0,-9.0,7.0,2.0,1.0,1651086175991409.0
0.0,-3.0,1.0,-3.0,2.0,-5.0,-3.0,0.0,1651086175991409.0
1.0,-2.0,1.0,16.0,20.0,12.0,4.0,2.0,1651086176014306.0
1.0,-5.0,-5.0,-16.0,-9.0,-5.0,-3.0,-1.0,1651086176014306.0
-1.0,2.0,14.0,10.0,-9.0,1.0,-1.0,1.0,1651086176015218.0
0.0,3.0,-10.0,-27.0,-8.0,-5.0,-2.0,-2.0,1651086176015218.0
-1.0,-7.0,-8.0,8.0,-3.0,-3.0,-3.0,-2.0,1651086176028982.0
1.0,3.0,4.0,16.0,12.0,2.0,2.0,1.0,1651086176028982.0
1.0,2.0,2.0,-19.0,-23.0,-12.0,-3.0,-1.0,1651086176029130.0
-3.0,1.0,-20.0,-9.0,-6.0,-3.0,-3.0,-1.0,1651086176029130.0
0.0,-1.0,5.0,6.0,9.0,2.0,-1.0,0.0,1651086176052943.0
0.0,-1.0,-17.0,-10.0,2.0,6.0,0.0,2.0,1651086176052943.0
1.0,2.0,14.0,16.0,1.0,-1.0,0.0,1.0,1651086176052943.0
-2.0,-5.0,2.0,10.0,11.0,7.0,0.0,2.0,1651086176052943.0
-4.0,-7.0,-27.0,-20.0,-15.0,-8.0,-4.0,-2.0,1651086176074302.0
1.0,-1.0,11.0,15.0,4.0,0.0,0.0,-1.0,1651086176074302.0
-1.0,3.0,-7.0,-13.0,1.0,-1.0,0.0,-1.0,1651086176075177.0
1.0,0.0,14.0,17.0,-2.0,-8.0,-2.0,-2.0,1651086176075177.0
0.0,0.0,19.0,23.0,2.0,9.0,3.0,1.0,1651086176088665.0
-2.0,0.0,-23.0,-31.0,-11.0,-6.0,-3.0,-1.0,1651086176088665.0
-1.0,-4.0,-13.0,-9.0,-5.0,-6.0,-2.0,-2.0,1651086176089102.0
-1.0,-4.0,2.0,19.0,4.0,4.0,1.0,0.0,1651086176089102.0
-1.0,4.0,-14.0,-10.0,-17.0,-7.0,-5.0,-2.0,1651086176111193.0
1.0,2.0,21.0,9.0,5.0,3.0,1.0,0.0,1651086176111193.0
-3.0,-3.0,-2.0,-11.0,5.0,0.0,1.0,-1.0,1651086176112104.0
0.0,-1.0,-16.0,-17.0,-12.0,-2.0,-2.0,0.0,1651086176112104.0
0.0,1.0,29.0,26.0,27.0,6.0,2.0,1.0,1651086176134357.0
-1.0,1.0,3.0,8.0,5.0,5.0,2.0,2.0,1651086176134357.0
-2.0,-1.0,-8.0,-16.0,-27.0,-11.0,-4.0,-2.0,1651086176135234.0
-1.0,0.0,11.0,20.0,24.0,8.0,2.0,0.0,1651086176135234.0
3.0,0.0,3.0,-5.0,-6.0,-5.0,-3.0,1.0,1651086176148308.0
-1.0,-2.0,4.0,-1.0,5.0,-3.0,-2.0,-2.0,1651086176148308.0
1.0,1.0,-8.0,1.0,4.0,6.0,1.0,0.0,1651086176156179.0
1.0,0.0,13.0,4.0,-5.0,-1.0,0.0,-1.0,1651086176156179.0
-3.0,0.0,6.0,-4.0,-2.0,2.0,1.0,-1.0,1651086176171477.0
-2.0,-4.0,-3.0,0.0,8.0,-3.0,-2.0,-1.0,1651086176171477.0
0.0,2.0,12.0,3.0,-4.0,-4.0,-1.0,0.0,1651086176171477.0
0.0,0.0,-14.0,0.0,10.0,7.0,3.0,2.0,1651086176171477.0
1.0,0.0,22.0,8.0,-15.0,-9.0,-2.0,0.0,1651086176194548.0
2.0,2.0,2.0,4.0,2.0,1.0,1.0,-1.0,1651086176194548.0
-3.0,-1.0,-5.0,-6.0,1.0,2.0,0.0,-4.0,1651086176194548.0
-1.0,-1.0,5.0,-1.0,6.0,-3.0,-3.0,-1.0,1651086176194548.0
0.0,-2.0,-17.0,-7.0,-3.0,-1.0,0.0,-2.0,1651086176208515.0
-5.0,-8.0,-37.0,-15.0,-4.0,0.0,-1.0,-2.0,1651086176208515.0
2.0,-2.0,-10.0,-16.0,-10.0,-4.0,2.0,1.0,1651086176216202.0
-2.0,3.0,12.0,19.0,-1.0,1.0,-4.0,-4.0,1651086176216202.0
-1.0,-2.0,-39.0,-30.0,-4.0,-1.0,2.0,-1.0,1651086176232603.0
0.0,-2.0,22.0,21.0,-1.0,-4.0,-7.0,-1.0,1651086176232603.0
2.0,1.0,-3.0,-3.0,-6.0,-6.0,-4.0,0.0,1651086176232603.0
0.0,-4.0,-6.0,-22.0,-14.0,-1.0,0.0,-1.0,1651086176232603.0
0.0,2.0,4.0,11.0,4.0,-1.0,1.0,1.0,1651086176255323.0
0.0,1.0,2.0,14.0,6.0,5.0,4.0,0.0,1651086176255323.0
0.0,3.0,22.0,1.0,3.0,5.0,3.0,2.0,1651086176255323.0
-3.0,-4.0,-13.0,-5.0,-2.0,-15.0,-17.0,-4.0,1651086176255323.0
4.0,1.0,11.0,-1.0,1.0,-4.0,-1.0,2.0,1651086176268462.0
-1.0,1.0,-13.0,-11.0,3.0,10.0,7.0,15.0,1651086176268462.0
-2.0,-4.0,26.0,7.0,-3.0,-6.0,-4.0,-15.0,1651086176276124.0
5.0,3.0,5.0,17.0,4.0,11.0,8.0,8.0,1651086176276124.0
-10.0,-5.0,-3.0,-15.0,-9.0,-13.0,-8.0,-2.0,1651086176291261.0
16.0,4.0,2.0,5.0,3.0,17.0,11.0,9.0,1651086176291261.0
-2.0,1.0,-14.0,-1.0,8.0,4.0,-3.0,3.0,1651086176291261.0
-2.0,-4.0,-11.0,-7.0,-2.0,5.0,3.0,-1.0,1651086176291261.0
-3.0,-1.0,-4.0,4.0,-1.0,3.0,-2.0,-5.0,1651086176330461.0
15.0,-2.0,6.0,0.0,-1.0,-9.0,-3.0,1.0,1651086176330461.0
-29.0,-1.0,5.0,8.0,4.0,6.0,5.0,-5.0,1651086176330461.0
12.0,-2.0,-12.0,-8.0,-2.0,-19.0,-9.0,-1.0,1651086176330461.0
-7.0,-1.0,13.0,-1.0,-10.0,-20.0,-5.0,2.0,1651086176332324.0
-2.0,0.0,2.0,9.0,9.0,14.0,2.0,-2.0,1651086176332324.0
3.0,0.0,-6.0,2.0,3.0,9.0,-2.0,-4.0,1651086176336333.0
4.0,0.0,13.0,-2.0,-2.0,3.0,5.0,8.0,1651086176336333.0
-5.0,-3.0,5.0,15.0,-5.0,-13.0,-6.0,-25.0,1651086176351505.0
-2.0,-5.0,-16.0,-18.0,-6.0,-15.0,-2.0,-1.0,1651086176351505.0
6.0,-3.0,-9.0,4.0,2.0,3.0,6.0,2.0,1651086176351505.0
1.0,2.0,12.0,0.0,-4.0,-8.0,-7.0,-10.0,1651086176351505.0
0.0,2.0,-7.0,6.0,6.0,17.0,7.0,19.0,1651086176373221.0
-26.0,-11.0,-4.0,-11.0,-5.0,1.0,-8.0,-35.0,1651086176373221.0
9.0,4.0,-2.0,11.0,2.0,-2.0,2.0,10.0,1651086176381253.0
1.0,-5.0,2.0,-12.0,5.0,13.0,16.0,6.0,1651086176381253.0
11.0,5.0,7.0,6.0,1.0,0.0,-6.0,-1.0,1651086176388449.0
-2.0,0.0,-20.0,-2.0,-2.0,-9.0,-7.0,-8.0,1651086176388449.0
-9.0,0.0,-13.0,-20.0,-1.0,-1.0,3.0,-3.0,1651086176396216.0
-1.0,2.0,22.0,21.0,0.0,1.0,-1.0,12.0,1651086176396216.0
0.0,-2.0,-3.0,-2.0,-3.0,1.0,6.0,4.0,1651086176411600.0
2.0,4.0,3.0,1.0,0.0,-3.0,-7.0,-3.0,1651086176411600.0
4.0,-4.0,-4.0,-5.0,-6.0,-19.0,-21.0,-7.0,1651086176411600.0
-1.0,0.0,-22.0,-6.0,6.0,15.0,22.0,2.0,1651086176411600.0
2.0,-1.0,-5.0,0.0,6.0,2.0,-2.0,-4.0,1651086176434397.0
-6.0,2.0,15.0,6.0,-1.0,1.0,3.0,18.0,1651086176434397.0
5.0,-3.0,-32.0,-24.0,-17.0,-3.0,4.0,4.0,1651086176434397.0
-6.0,0.0,25.0,14.0,4.0,-5.0,-12.0,-9.0,1651086176434397.0
-1.0,-3.0,-21.0,-15.0,-6.0,2.0,2.0,-1.0,1651086176457447.0
-5.0,-1.0,-25.0,-10.0,5.0,13.0,17.0,-5.0,1651086176457447.0
7.0,2.0,46.0,39.0,5.0,0.0,-3.0,-4.0,1651086176457864.0
4.0,-4.0,-27.0,-19.0,-7.0,0.0,4.0,21.0,1651086176457864.0
-4.0,1.0,-3.0,1.0,3.0,-1.0,-6.0,-27.0,1651086176472131.0
0.0,2.0,1.0,-13.0,-5.0,-3.0,-1.0,3.0,1651086176472131.0
2.0,-2.0,-14.0,1.0,5.0,6.0,4.0,7.0,1651086176472131.0
-11.0,0.0,6.0,-7.0,-7.0,-9.0,-8.0,-10.0,1651086176472131.0
9.0,0.0,21.0,5.0,1.0,2.0,2.0,13.0,1651086176493236.0
-3.0,-4.0,-6.0,-3.0,0.0,-2.0,-2.0,-3.0,1651086176493236.0
-6.0,1.0,-6.0,0.0,-6.0,-7.0,-10.0,-2.0,1651086176494234.0
-10.0,-2.0,2.0,-4.0,-2.0,-1.0,0.0,-9.0,1651086176494234.0
4.0,0.0,-6.0,4.0,-1.0,0.0,-4.0,4.0,1651086176517392.0
-1.0,6.0,24.0,12.0,0.0,-8.0,0.0,4.0,1651086176517392.0
0.0,-2.0,-44.0,-13.0,0.0,-6.0,-4.0,-2.0,1651086176517392.0
6.0,-2.0,-2.0,-4.0,-6.0,1.0,-1.0,-2.0,1651086176517392.0
0.0,1.0,2.0,-5.0,1.0,3.0,2.0,-1.0,1651086176531400.0
-2.0,-3.0,-5.0,-2.0,-5.0,-3.0,-1.0,2.0,1651086176531400.0
3.0,4.0,23.0,13.0,-1.0,-4.0,1.0,7.0,1651086176531400.0
3.0,-1.0,-23.0,-17.0,5.0,-1.0,-10.0,-10.0,1651086176531400.0
-6.0,-3.0,6.0,12.0,7.0,10.0,8.0,14.0,1651086176553226.0
2.0,2.0,34.0,30.0,5.0,-3.0,-5.0,3.0,1651086176553226.0
-1.0,-2.0,-6.0,-18.0,-5.0,-1.0,2.0,-4.0,1651086176554224.0
-3.0,1.0,8.0,6.0,5.0,6.0,4.0,-8.0,1651086176554224.0
4.0,1.0,-27.0,-9.0,-6.0,-9.0,-9.0,7.0,1651086176576218.0
-1.0,-1.0,24.0,7.0,-5.0,-5.0,-7.0,13.0,1651086176576218.0
4.0,-5.0,-27.0,-8.0,-1.0,3.0,-1.0,-15.0,1651086176577215.0
3.0,1.0,11.0,10.0,6.0,-1.0,1.0,-2.0,1651086176577215.0
5.0,1.0,-19.0,-14.0,-4.0,3.0,2.0,3.0,1651086176591413.0
-2.0,2.0,-2.0,-4.0,3.0,3.0,4.0,2.0,1651086176591413.0
4.0,2.0,32.0,28.0,4.0,-2.0,-1.0,-1.0,1651086176591413.0
-8.0,-6.0,-35.0,-24.0,-4.0,-3.0,-2.0,-1.0,1651086176591413.0
-4.0,1.0,24.0,17.0,5.0,4.0,5.0,-2.0,1651086176614395.0
0.0,-1.0,-34.0,-22.0,-2.0,-2.0,-4.0,-9.0,1651086176614395.0
-2.0,2.0,34.0,30.0,2.0,0.0,-1.0,8.0,1651086176615231.0
0.0,1.0,-3.0,-12.0,-9.0,-4.0,-5.0,-4.0,1651086176615231.0
-3.0,-1.0,-9.0,1.0,15.0,7.0,6.0,-1.0,1651086176637654.0
1.0,-1.0,-7.0,-25.0,-7.0,-4.0,0.0,-3.0,1651086176637654.0
8.0,0.0,7.0,6.0,-1.0,-1.0,3.0,3.0,1651086176637654.0
-3.0,2.0,14.0,8.0,-2.0,4.0,1.0,-8.0,1651086176637654.0
-14.0,-6.0,-21.0,-22.0,-7.0,-8.0,-6.0,-3.0,1651086176651942.0
1.0,-2.0,29.0,23.0,-1.0,-2.0,-3.0,-1.0,1651086176651942.0
2.0,1.0,-39.0,-24.0,1.0,5.0,8.0,1.0,1651086176651942.0
-4.0,2.0,24.0,25.0,7.0,-2.0,2.0,1.0,1651086176651942.0
6.0,0.0,2.0,-21.0,-2.0,0.0,3.0,1.0,1651086176674391.0
4.0,2.0,2.0,18.0,2.0,1.0,-1.0,-17.0,1651086176674391.0
-7.0,-4.0,18.0,2.0,-10.0,-10.0,-10.0,6.0,1651086176675255.0
5.0,3.0,11.0,10.0,9.0,1.0,-2.0,1.0,1651086176675255.0
-13.0,-8.0,-30.0,-16.0,-8.0,-1.0,2.0,0.0,1651086176697427.0
1.0,3.0,11.0,10.0,-1.0,1.0,2.0,6.0,1651086176697427.0
-2.0,-5.0,-23.0,-24.0,-2.0,2.0,2.0,-2.0,1651086176697427.0
-3.0,-2.0,5.0,6.0,-1.0,1.0,-1.0,-5.0,1651086176697427.0
3.0,2.0,22.0,8.0,-7.0,-2.0,-3.0,-6.0,1651086176711383.0
-5.0,-3.0,-20.0,-17.0,-1.0,0.0,-3.0,2.0,1651086176711383.0
-3.0,1.0,-3.0,-1.0,9.0,6.0,4.0,0.0,1651086176711383.0
2.0,1.0,4.0,8.0,-4.0,-1.0,1.0,9.0,1651086176711383.0
4.0,2.0,9.0,12.0,3.0,-2.0,-2.0,-9.0,1651086176735358.0
5.0,-1.0,-6.0,-2.0,1.0,1.0,0.0,5.0,1651086176735358.0
-3.0,3.0,4.0,-11.0,4.0,2.0,-3.0,-6.0,1651086176735358.0
1.0,0.0,-9.0,2.0,-2.0,2.0,6.0,4.0,1651086176735358.0
-6.0,1.0,8.0,3.0,-6.0,-4.0,-5.0,13.0,1651086176757413.0
-8.0,1.0,18.0,10.0,-5.0,-6.0,-9.0,-34.0,1651086176757413.0
1.0,-2.0,6.0,5.0,-1.0,-1.0,2.0,4.0,1651086176757413.0
-2.0,-3.0,-21.0,-13.0,5.0,1.0,-1.0,-9.0,1651086176757413.0
-3.0,0.0,10.0,-4.0,1.0,1.0,-4.0,-3.0,1651086176771377.0
-3.0,-3.0,-21.0,11.0,5.0,4.0,2.0,-1.0,1651086176771377.0
0.0,-2.0,-11.0,-20.0,-10.0,-4.0,-2.0,4.0,1651086176771377.0
-1.0,1.0,14.0,9.0,-3.0,-1.0,1.0,3.0,1651086176771377.0
1.0,0.0,8.0,9.0,4.0,4.0,3.0,-3.0,1651086176794391.0
3.0,-3.0,-15.0,-11.0,-5.0,-6.0,-6.0,4.0,1651086176794391.0
1.0,-1.0,19.0,19.0,2.0,0.0,2.0,-2.0,1651086176795223.0
-4.0,-2.0,-18.0,-12.0,-3.0,-4.0,-5.0,2.0,1651086176795223.0
13.0,4.0,-6.0,3.0,6.0,2.0,1.0,-6.0,1651086176816273.0
4.0,4.0,22.0,6.0,3.0,2.0,1.0,12.0,1651086176816273.0
0.0,-3.0,-35.0,-17.0,-3.0,-4.0,-3.0,15.0,1651086176817284.0
-6.0,1.0,4.0,23.0,6.0,1.0,-1.0,-11.0,1651086176817284.0
-1.0,-4.0,2.0,-23.0,-16.0,-8.0,-6.0,-8.0,1651086176831412.0
7.0,0.0,9.0,-9.0,-2.0,-2.0,2.0,4.0,1651086176831412.0
-4.0,-2.0,-1.0,15.0,6.0,3.0,-1.0,4.0,1651086176831412.0
-8.0,-3.0,-4.0,-31.0,-9.0,-6.0,-5.0,-3.0,1651086176831412.0
-1.0,-1.0,-20.0,4.0,0.0,3.0,3.0,9.0,1651086176854448.0
-3.0,1.0,19.0,5.0,-2.0,-3.0,-5.0,-24.0,1651086176854448.0
-3.0,1.0,15.0,18.0,6.0,1.0,-1.0,-3.0,1651086176855314.0
1.0,-4.0,-29.0,-14.0,-5.0,0.0,2.0,-4.0,1651086176855314.0
-3.0,-2.0,0.0,-1.0,-6.0,-3.0,-2.0,5.0,1651086176876222.0
3.0,5.0,-6.0,-2.0,3.0,2.0,2.0,10.0,1651086176876222.0
6.0,-1.0,15.0,3.0,-3.0,-6.0,-9.0,-3.0,1651086176877225.0
-7.0,5.0,14.0,-8.0,-4.0,-2.0,2.0,0.0,1651086176877225.0
-3.0,-3.0,-2.0,-6.0,-1.0,-1.0,0.0,-5.0,1651086176891403.0
2.0,0.0,-26.0,-6.0,1.0,3.0,3.0,7.0,1651086176891403.0
5.0,-1.0,1.0,12.0,9.0,4.0,5.0,-6.0,1651086176891403.0
4.0,0.0,1.0,-6.0,-3.0,-2.0,-4.0,2.0,1651086176891403.0
-2.0,0.0,6.0,16.0,-2.0,-4.0,0.0,-5.0,1651086176914400.0
1.0,-6.0,-4.0,-21.0,-4.0,0.0,3.0,8.0,1651086176914400.0
4.0,6.0,-4.0,9.0,3.0,1.0,3.0,2.0,1651086176915265.0
-3.0,-10.0,-37.0,-18.0,-6.0,-1.0,-2.0,1.0,1651086176915265.0
-4.0,1.0,38.0,26.0,20.0,6.0,3.0,1.0,1651086176937813.0
-10.0,-6.0,-23.0,-6.0,3.0,-1.0,-4.0,-5.0,1651086176937813.0
-1.0,1.0,16.0,-5.0,-6.0,-4.0,-5.0,-2.0,1651086176937813.0
11.0,4.0,17.0,17.0,5.0,3.0,7.0,9.0,1651086176937813.0
-1.0,5.0,-26.0,-28.0,-7.0,-6.0,-5.0,-2.0,1651086176952124.0
-3.0,-8.0,19.0,6.0,-8.0,-5.0,-2.0,3.0,1651086176952124.0
-5.0,1.0,3.0,-2.0,1.0,3.0,3.0,-3.0,1651086176952124.0
4.0,-2.0,-2.0,4.0,3.0,-1.0,-3.0,-4.0,1651086176952124.0
-7.0,-3.0,3.0,2.0,4.0,4.0,1.0,1.0,1651086176974390.0
-1.0,-1.0,-7.0,-4.0,0.0,1.0,-1.0,0.0,1651086176974390.0
0.0,3.0,-3.0,-3.0,-3.0,-2.0,-2.0,3.0,1651086176975256.0
-16.0,-9.0,27.0,12.0,5.0,1.0,2.0,-1.0,1651086176975256.0
14.0,1.0,-20.0,-8.0,-9.0,-4.0,-3.0,-4.0,1651086176997339.0
-9.0,-7.0,-16.0,-7.0,-2.0,-5.0,-7.0,4.0,1651086176997339.0
-13.0,0.0,23.0,-4.0,-2.0,1.0,0.0,-7.0,1651086176997339.0
14.0,4.0,-19.0,-9.0,-2.0,1.0,4.0,8.0,1651086176997339.0
1.0,-4.0,28.0,18.0,12.0,3.0,0.0,0.0,1651086177011215.0
-3.0,6.0,3.0,8.0,-5.0,-1.0,2.0,2.0,1651086177011215.0
0.0,-2.0,-9.0,-16.0,1.0,4.0,2.0,-7.0,1651086177012096.0
-2.0,3.0,6.0,5.0,-7.0,-8.0,-9.0,-2.0,1651086177012096.0
0.0,2.0,-10.0,2.0,3.0,11.0,13.0,8.0,1651086177033550.0
8.0,3.0,-8.0,-3.0,-1.0,-4.0,-4.0,-1.0,1651086177033550.0
-2.0,-3.0,11.0,-5.0,-1.0,-2.0,-1.0,7.0,1651086177034512.0
-2.0,-7.0,-9.0,-5.0,-5.0,0.0,1.0,1.0,1651086177034512.0
0.0,5.0,1.0,-7.0,-4.0,-6.0,-3.0,3.0,1651086177064372.0
1.0,-4.0,-14.0,-1.0,5.0,3.0,4.0,2.0,1651086177064372.0
5.0,-5.0,3.0,-1.0,-2.0,0.0,-3.0,-6.0,1651086177065252.0
-2.0,-1.0,-12.0,8.0,0.0,-3.0,-4.0,0.0,1651086177065252.0
-1.0,-3.0,-31.0,-24.0,-10.0,-5.0,-4.0,-4.0,1651086177070238.0
-4.0,3.0,35.0,25.0,9.0,1.0,0.0,3.0,1651086177070238.0
-5.0,2.0,0.0,-1.0,-8.0,-2.0,1.0,5.0,1651086177079036.0
7.0,-1.0,-31.0,-7.0,14.0,9.0,1.0,0.0,1651086177079036.0
-1.0,-4.0,3.0,-5.0,-9.0,-8.0,-6.0,6.0,1651086177093447.0
-2.0,-5.0,2.0,-4.0,0.0,4.0,6.0,-4.0,1651086177093447.0
-3.0,-3.0,-22.0,1.0,-3.0,0.0,1.0,-2.0,1651086177094314.0
4.0,-2.0,25.0,2.0,-3.0,-3.0,-1.0,-2.0,1651086177094314.0
0.0,-9.0,-21.0,-13.0,0.0,0.0,-1.0,-1.0,1651086177117352.0
-1.0,6.0,14.0,16.0,2.0,1.0,-1.0,3.0,1651086177117352.0
-1.0,-12.0,-13.0,-6.0,-1.0,-2.0,-1.0,1.0,1651086177117352.0
-5.0,14.0,31.0,15.0,4.0,0.0,0.0,0.0,1651086177117352.0
0.0,-5.0,3.0,8.0,0.0,-4.0,-7.0,-9.0,1651086177130373.0
8.0,-2.0,-28.0,-9.0,-1.0,1.0,3.0,6.0,1651086177130373.0
-3.0,-10.0,2.0,-10.0,-3.0,-2.0,-4.0,-5.0,1651086177139217.0
5.0,7.0,-6.0,-5.0,2.0,1.0,-1.0,-2.0,1651086177139217.0
-12.0,-10.0,-13.0,4.0,1.0,0.0,-1.0,-9.0,1651086177153502.0
-5.0,1.0,3.0,-12.0,-6.0,-6.0,-5.0,-1.0,1651086177153502.0
1.0,6.0,1.0,7.0,3.0,2.0,2.0,-4.0,1651086177154368.0
-12.0,-6.0,19.0,-4.0,-8.0,-5.0,-7.0,-26.0,1651086177154368.0
-4.0,8.0,10.0,13.0,4.0,4.0,2.0,1.0,1651086177176192.0
-1.0,-2.0,-15.0,-4.0,0.0,-2.0,-3.0,-5.0,1651086177176192.0
-1.0,2.0,-29.0,-7.0,0.0,5.0,7.0,3.0,1651086177177189.0
1.0,-1.0,5.0,5.0,-6.0,-9.0,-9.0,9.0,1651086177177189.0
-7.0,8.0,7.0,-3.0,1.0,5.0,6.0,3.0,1651086177190187.0
1.0,-4.0,-6.0,-1.0,-1.0,0.0,-1.0,5.0,1651086177190187.0
6.0,1.0,18.0,10.0,7.0,4.0,1.0,-7.0,1651086177198176.0
-13.0,2.0,-44.0,-24.0,-6.0,-7.0,-6.0,-12.0,1651086177198176.0
5.0,8.0,17.0,1.0,1.0,1.0,3.0,12.0,1651086177213213.0
6.0,8.0,-14.0,0.0,-2.0,-1.0,-2.0,21.0,1651086177213213.0
-10.0,-4.0,0.0,-13.0,-12.0,-8.0,-4.0,-14.0,1651086177214212.0
1.0,-4.0,-5.0,2.0,13.0,6.0,4.0,4.0,1651086177214212.0
1.0,-12.0,3.0,-8.0,-5.0,-5.0,-5.0,-5.0,1651086177235536.0
-2.0,-1.0,12.0,16.0,5.0,0.0,2.0,-13.0,1651086177235536.0
6.0,6.0,0.0,4.0,5.0,2.0,0.0,7.0,1651086177243483.0
5.0,-4.0,9.0,2.0,-10.0,-7.0,1.0,17.0,1651086177243483.0
0.0,1.0,-12.0,-2.0,-2.0,0.0,-2.0,-8.0,1651086177250790.0
5.0,2.0,43.0,5.0,-1.0,-1.0,1.0,-2.0,1651086177250790.0
-5.0,-3.0,-13.0,4.0,2.0,-2.0,-4.0,-2.0,1651086177258841.0
3.0,1.0,1.0,5.0,0.0,3.0,4.0,8.0,1651086177258841.0
-1.0,0.0,21.0,7.0,4.0,0.0,-1.0,3.0,1651086177273190.0
1.0,-4.0,-19.0,-25.0,-8.0,-2.0,0.0,-6.0,1651086177273190.0
3.0,9.0,18.0,9.0,-1.0,-4.0,0.0,8.0,1651086177274190.0
3.0,-3.0,0.0,0.0,6.0,-1.0,-3.0,0.0,1651086177274190.0
4.0,2.0,-6.0,16.0,3.0,0.0,-3.0,-4.0,1651086177297213.0
-11.0,2.0,-25.0,-25.0,-10.0,-3.0,-7.0,-13.0,1651086177297213.0
1.0,-5.0,-4.0,-3.0,-2.0,0.0,1.0,0.0,1651086177297213.0
3.0,-1.0,-2.0,6.0,-2.0,1.0,3.0,1.0,1651086177297213.0
1.0,-1.0,9.0,-2.0,-4.0,-1.0,1.0,-2.0,1651086177310506.0
3.0,-4.0,2.0,11.0,7.0,2.0,-3.0,-2.0,1651086177310506.0
-3.0,3.0,-13.0,-4.0,-2.0,-2.0,-2.0,1.0,1651086177318991.0
-2.0,1.0,14.0,4.0,3.0,1.0,2.0,-1.0,1651086177318991.0
2.0,-7.0,-10.0,4.0,-4.0,-3.0,-4.0,-1.0,1651086177341343.0
-3.0,2.0,3.0,-3.0,-2.0,2.0,6.0,0.0,1651086177341343.0
1.0,-3.0,-8.0,-9.0,-10.0,-8.0,-8.0,-1.0,1651086177342242.0
0.0,-1.0,9.0,3.0,12.0,7.0,1.0,-4.0,1651086177342242.0
-3.0,6.0,12.0,-3.0,-9.0,-4.0,-1.0,-3.0,1651086177357168.0
1.0,8.0,1.0,-12.0,-4.0,-2.0,-1.0,-1.0,1651086177357168.0
-2.0,-12.0,-3.0,26.0,23.0,11.0,2.0,-2.0,1651086177357168.0
-1.0,-12.0,4.0,-2.0,-5.0,-1.0,1.0,-1.0,1651086177357168.0
2.0,20.0,-13.0,-5.0,3.0,-2.0,2.0,1.0,1651086177371126.0
-1.0,-9.0,15.0,0.0,-2.0,2.0,2.0,-2.0,1651086177371126.0
2.0,9.0,24.0,21.0,-1.0,-7.0,-3.0,4.0,1651086177378991.0
-2.0,0.0,-7.0,0.0,-1.0,-2.0,-2.0,-3.0,1651086177378991.0
-5.0,1.0,14.0,-8.0,-1.0,2.0,0.0,-2.0,1651086177393365.0
4.0,-1.0,-35.0,-8.0,-3.0,-2.0,1.0,1.0,1651086177393365.0
1.0,4.0,13.0,5.0,-1.0,-3.0,0.0,0.0,1651086177394239.0
-2.0,-3.0,2.0,3.0,0.0,1.0,2.0,-1.0,1651086177394239.0
-7.0,-5.0,-11.0,-6.0,-6.0,-4.0,-3.0,-2.0,1651086177416255.0
-3.0,2.0,14.0,12.0,5.0,-1.0,-1.0,-1.0,1651086177416255.0
2.0,-7.0,-5.0,-8.0,-3.0,1.0,0.0,2.0,1651086177423198.0
-2.0,3.0,-7.0,-5.0,-7.0,-1.0,0.0,-2.0,1651086177423198.0
6.0,-9.0,-7.0,-4.0,2.0,3.0,0.0,1.0,1651086177439211.0
2.0,11.0,27.0,18.0,6.0,0.0,0.0,0.0,1651086177439211.0
-4.0,-3.0,-11.0,-19.0,-6.0,1.0,3.0,0.0,1651086177440243.0
2.0,5.0,-5.0,4.0,-6.0,-4.0,-2.0,-2.0,1651086177440243.0
-1.0,-20.0,-7.0,-7.0,-15.0,-4.0,0.0,-2.0,1651086177453203.0
1.0,-4.0,-16.0,12.0,22.0,10.0,1.0,3.0,1651086177453203.0
-2.0,-1.0,9.0,-10.0,-7.0,-5.0,-1.0,-5.0,1651086177454203.0
-1.0,1.0,-5.0,-7.0,-2.0,2.0,1.0,0.0,1651086177454203.0
0.0,-3.0,3.0,-6.0,0.0,-2.0,-1.0,0.0,1651086177484304.0
-2.0,-14.0,-4.0,3.0,-10.0,-5.0,-4.0,0.0,1651086177484304.0
-3.0,8.0,-9.0,0.0,2.0,1.0,-4.0,2.0,1651086177485194.0
0.0,-1.0,7.0,6.0,12.0,3.0,2.0,-2.0,1651086177485194.0
1.0,2.0,-3.0,-1.0,-6.0,-4.0,-1.0,-2.0,1651086177499446.0
-2.0,-7.0,-6.0,-11.0,-11.0,-2.0,0.0,-2.0,1651086177499446.0
0.0,0.0,0.0,2.0,11.0,5.0,2.0,0.0,1651086177499446.0
0.0,-10.0,-5.0,0.0,-3.0,-1.0,0.0,0.0,1651086177499446.0
-2.0,6.0,7.0,4.0,5.0,-2.0,-2.0,-1.0,1651086177513195.0
-1.0,4.0,-8.0,-5.0,-9.0,-1.0,0.0,-2.0,1651086177513195.0
1.0,-4.0,-1.0,2.0,3.0,1.0,1.0,-2.0,1651086177514194.0
0.0,2.0,7.0,-3.0,-5.0,-3.0,-1.0,1.0,1651086177514194.0
-1.0,-5.0,-20.0,-12.0,2.0,2.0,-1.0,-2.0,1651086177538217.0
-1.0,1.0,13.0,15.0,2.0,0.0,-2.0,-1.0,1651086177538217.0
-3.0,-5.0,-6.0,5.0,1.0,-1.0,1.0,2.0,1651086177538217.0
-1.0,-4.0,0.0,-13.0,-3.0,0.0,-1.0,1.0,1651086177538217.0
0.0,8.0,7.0,5.0,0.0,-2.0,0.0,1.0,1651086177559511.0
-1.0,-2.0,-3.0,-18.0,-6.0,-4.0,-1.0,-2.0,1651086177559511.0
1.0,4.0,0.0,0.0,2.0,2.0,0.0,-2.0,1651086177559511.0
-1.0,-1.0,-7.0,-6.0,2.0,-1.0,2.0,0.0,1651086177559511.0
-2.0,-19.0,1.0,19.0,4.0,3.0,1.0,-1.0,1651086177573195.0
0.0,10.0,1.0,-8.0,-1.0,-2.0,-1.0,0.0,1651086177573195.0
-1.0,-8.0,6.0,-1.0,-6.0,-2.0,-2.0,-1.0,1651086177574195.0
-1.0,10.0,-4.0,0.0,-4.0,-1.0,-2.0,-1.0,1651086177574195.0
0.0,2.0,0.0,6.0,7.0,3.0,0.0,-1.0,1651086177597432.0
-3.0,-7.0,-6.0,-2.0,3.0,1.0,-1.0,0.0,1651086177597432.0
1.0,-3.0,-3.0,2.0,-3.0,0.0,-1.0,0.0,1651086177597432.0
1.0,4.0,0.0,3.0,-1.0,1.0,-1.0,1.0,1651086177597432.0
2.0,-1.0,-2.0,-1.0,-3.0,-3.0,0.0,3.0,1651086177620249.0
-1.0,-2.0,-5.0,3.0,3.0,-2.0,0.0,-2.0,1651086177620249.0
-2.0,5.0,5.0,-3.0,3.0,4.0,0.0,-1.0,1651086177620249.0
-2.0,-2.0,2.0,0.0,-4.0,-3.0,-1.0,0.0,1651086177620249.0
5.0,4.0,2.0,-4.0,-2.0,-3.0,0.0,-1.0,1651086177635467.0
-1.0,-5.0,-1.0,3.0,3.0,3.0,1.0,-2.0,1651086177635467.0
-1.0,2.0,6.0,0.0,2.0,1.0,1.0,0.0,1651086177635467.0
1.0,2.0,-13.0,4.0,0.0,0.0,-3.0,-3.0,1651086177635467.0
-2.0,-6.0,-3.0,-12.0,-6.0,-1.0,-1.0,-1.0,1651086177657309.0
1.0,13.0,5.0,0.0,0.0,-1.0,-2.0,1.0,1651086177657309.0
-2.0,-6.0,0.0,0.0,-4.0,-3.0,-1.0,-1.0,1651086177657309.0
0.0,-7.0,3.0,-2.0,-2.0,0.0,0.0,1.0,1651086177657309.0
-2.0,-1.0,-1.0,0.0,3.0,2.0,2.0,-1.0,1651086177679212.0
1.0,0.0,3.0,3.0,1.0,-1.0,0.0,-1.0,1651086177679212.0
0.0,1.0,-11.0,-10.0,-7.0,-4.0,0.0,-1.0,1651086177680245.0
0.0,-5.0,0.0,-2.0,0.0,1.0,1.0,0.0,1651086177680245.0
-2.0,15.0,9.0,8.0,5.0,1.0,1.0,1.0,1651086177693200.0
0.0,-1.0,3.0,1.0,1.0,0.0,0.0,0.0,1651086177693200.0
1.0,2.0,-2.0,-4.0,-4.0,-1.0,0.0,0.0,1651086177694197.0
-2.0,-2.0,0.0,-2.0,-2.0,-2.0,-1.0,-2.0,1651086177694197.0
2.0,1.0,-2.0,-2.0,2.0,3.0,0.0,1.0,1651086177717180.0
-1.0,-8.0,4.0,-1.0,-2.0,0.0,0.0,0.0,1651086177717180.0
0.0,3.0,-13.0,-3.0,0.0,0.0,-2.0,0.0,1651086177717180.0
-1.0,-2.0,0.0,0.0,-5.0,-2.0,1.0,0.0,1651086177717180.0
-1.0,-1.0,2.0,7.0,8.0,2.0,0.0,0.0,1651086177739649.0
-1.0,3.0,5.0,-1.0,0.0,-1.0,-1.0,1.0,1651086177739649.0
1.0,-10.0,-7.0,-3.0,-1.0,-3.0,-1.0,0.0,1651086177739649.0
-2.0,10.0,10.0,2.0,3.0,-1.0,0.0,0.0,1651086177739649.0
-2.0,3.0,-3.0,-5.0,-11.0,-2.0,-2.0,-2.0,1651086177754234.0
1.0,-1.0,-3.0,1.0,11.0,2.0,0.0,0.0,1651086177754234.0
0.0,-3.0,4.0,4.0,0.0,0.0,0.0,0.0,1651086177754234.0
-1.0,-4.0,-2.0,1.0,1.0,0.0,-1.0,0.0,1651086177754234.0
-1.0,-1.0,3.0,-3.0,1.0,1.0,0.0,0.0,1651086177776193.0
-2.0,-4.0,-8.0,-5.0,-6.0,-4.0,-2.0,-2.0,1651086177776193.0
-1.0,5.0,2.0,-3.0,-4.0,-2.0,-2.0,-1.0,1651086177777190.0
-1.0,-2.0,0.0,-1.0,0.0,-1.0,0.0,-2.0,1651086177777190.0
0.0,-2.0,-1.0,-2.0,-5.0,-1.0,-2.0,0.0,1651086177800296.0
-4.0,-4.0,-1.0,1.0,-2.0,2.0,-1.0,-2.0,1651086177800296.0
0.0,2.0,1.0,0.0,1.0,2.0,-1.0,0.0,1651086177800296.0
1.0,1.0,-1.0,-2.0,-7.0,-3.0,-2.0,-1.0,1651086177800296.0
-1.0,-2.0,-5.0,-2.0,-2.0,-2.0,-2.0,-2.0,1651086177814192.0
0.0,-2.0,-2.0,2.0,-1.0,2.0,0.0,1.0,1651086177814192.0
0.0,1.0,2.0,-1.0,-1.0,-1.0,0.0,0.0,1651086177814192.0
-1.0,0.0,1.0,2.0,1.0,2.0,2.0,-1.0,1651086177814192.0
0.0,-2.0,0.0,-2.0,0.0,-1.0,-1.0,0.0,1651086177837542.0
1.0,1.0,4.0,-2.0,-4.0,-2.0,0.0,-1.0,1651086177837542.0
-1.0,-1.0,-8.0,-4.0,1.0,1.0,0.0,1.0,1651086177837542.0
0.0,1.0,1.0,0.0,-1.0,2.0,-1.0,0.0,1651086177837542.0
0.0,-1.0,-3.0,1.0,1.0,-1.0,1.0,0.0,1651086177859353.0
-1.0,-2.0,-4.0,1.0,-1.0,0.0,1.0,-1.0,1651086177859353.0
1.0,4.0,4.0,0.0,-2.0,-2.0,1.0,1.0,1651086177860354.0
0.0,-5.0,-3.0,0.0,1.0,1.0,0.0,0.0,1651086177860354.0
0.0,-1.0,-2.0,-1.0,-3.0,-1.0,-2.0,0.0,1651086177873631.0
-1.0,0.0,2.0,0.0,-2.0,-2.0,-2.0,-1.0,1651086177873631.0
-1.0,-1.0,-1.0,1.0,0.0,1.0,0.0,-1.0,1651086177874523.0
-1.0,-2.0,-1.0,1.0,0.0,-1.0,-1.0,0.0,1651086177874523.0
-2.0,-1.0,0.0,0.0,-2.0,-4.0,1.0,-2.0,1651086177897616.0
0.0,-1.0,-1.0,-2.0,0.0,4.0,0.0,0.0,1651086177897616.0
-1.0,0.0,-1.0,0.0,0.0,-1.0,-3.0,-3.0,1651086177897616.0
-1.0,0.0,0.0,-1.0,-5.0,-4.0,-2.0,-1.0,1651086177897616.0
-1.0,-1.0,2.0,1.0,6.0,6.0,2.0,0.0,1651086177919680.0
0.0,0.0,-4.0,-1.0,1.0,-2.0,2.0,0.0,1651086177919680.0
-1.0,0.0,0.0,-1.0,-1.0,-2.0,0.0,0.0,1651086177919680.0
0.0,1.0,1.0,-4.0,-1.0,-1.0,0.0,0.0,1651086177919680.0
0.0,0.0,-3.0,-2.0,-4.0,-3.0,0.0,-1.0,1651086177933379.0
-1.0,0.0,-1.0,2.0,3.0,0.0,0.0,0.0,1651086177933379.0
-2.0,-1.0,2.0,1.0,-1.0,1.0,1.0,-1.0,1651086177934400.0
-1.0,2.0,0.0,-1.0,-2.0,-4.0,-2.0,-1.0,1651086177934400.0
0.0,0.0,-1.0,0.0,1.0,1.0,0.0,2.0,1651086177957308.0
1.0,1.0,1.0,-3.0,-4.0,-2.0,-2.0,-1.0,1651086177957308.0
-1.0,-1.0,1.0,-1.0,1.0,0.0,0.0,-1.0,1651086177958187.0
1.0,-2.0,0.0,0.0,2.0,2.0,0.0,-1.0,1651086177958187.0
-1.0,-1.0,-1.0,1.0,-1.0,-1.0,0.0,-1.0,1651086177978902.0
-1.0,-1.0,-1.0,2.0,-1.0,-3.0,-1.0,0.0,1651086177978902.0
1.0,2.0,0.0,1.0,0.0,0.0,0.0,0.0,1651086177987056.0
0.0,-1.0,0.0,0.0,3.0,1.0,0.0,0.0,1651086177987056.0
-1.0,-1.0,-1.0,0.0,-1.0,0.0,0.0,-1.0,1651086177993235.0
1.0,1.0,-2.0,-2.0,-4.0,-4.0,-1.0,1.0,1651086177993235.0
0.0,-3.0,-1.0,-1.0,1.0,0.0,-1.0,-1.0,1651086178001417.0
0.0,1.0,0.0,-2.0,0.0,0.0,-1.0,-1.0,1651086178001417.0
-1.0,-1.0,-1.0,2.0,5.0,0.0,-1.0,-1.0,1651086178017217.0
-1.0,-2.0,0.0,-1.0,1.0,1.0,1.0,1.0,1651086178017217.0
-1.0,-1.0,0.0,-1.0,0.0,0.0,-1.0,-2.0,1651086178018051.0
0.0,-1.0,0.0,-2.0,-5.0,-2.0,-2.0,-1.0,1651086178018051.0
0.0,-2.0,1.0,-3.0,-4.0,-2.0,-1.0,0.0,1651086178039756.0
1.0,-2.0,-2.0,1.0,2.0,2.0,0.0,-2.0,1651086178039756.0
-1.0,0.0,0.0,1.0,-1.0,-3.0,0.0,-1.0,1651086178040757.0
-1.0,0.0,-1.0,1.0,3.0,2.0,-1.0,-1.0,1651086178040757.0
-1.0,1.0,-1.0,-3.0,-4.0,-3.0,-2.0,1.0,1651086178062252.0
0.0,0.0,-3.0,0.0,-4.0,-4.0,-2.0,-1.0,1651086178062252.0
1.0,-1.0,0.0,0.0,-2.0,-2.0,2.0,-1.0,1651086178063066.0
0.0,1.0,1.0,-2.0,-3.0,-1.0,1.0,-2.0,1651086178063066.0
0.0,-2.0,-1.0,-1.0,0.0,0.0,0.0,0.0,1651086178076950.0
0.0,-1.0,1.0,-2.0,-1.0,-1.0,-2.0,-2.0,1651086178076950.0
0.0,-1.0,0.0,-2.0,0.0,1.0,-1.0,-1.0,1651086178083197.0
0.0,0.0,0.0,-1.0,0.0,-2.0,-2.0,1.0,1651086178083197.0
-1.0,1.0,1.0,4.0,3.0,2.0,0.0,-3.0,1651086178099690.0
1.0,0.0,0.0,0.0,0.0,0.0,1.0,-1.0,1651086178099690.0
0.0,-3.0,-1.0,0.0,-2.0,-2.0,0.0,0.0,1651086178100523.0
0.0,4.0,3.0,0.0,1.0,0.0,-2.0,1.0,1651086178100523.0
-1.0,-1.0,0.0,-3.0,-1.0,-2.0,-1.0,-1.0,1651086178122310.0
-2.0,0.0,-1.0,0.0,-1.0,-1.0,0.0,-1.0,1651086178122310.0
-2.0,-2.0,-3.0,-1.0,-1.0,0.0,1.0,0.0,1651086178123062.0
-1.0,-2.0,-2.0,-1.0,-2.0,-1.0,0.0,0.0,1651086178123062.0
1.0,2.0,-2.0,-2.0,-3.0,-3.0,-2.0,-1.0,1651086178137551.0
1.0,-1.0,2.0,0.0,1.0,-1.0,-3.0,-1.0,1651086178137551.0
-1.0,2.0,2.0,3.0,6.0,4.0,1.0,1.0,1651086178138586.0
-2.0,-3.0,-2.0,1.0,-1.0,-1.0,0.0,-2.0,1651086178138586.0
-2.0,1.0,0.0,-2.0,0.0,-1.0,-1.0,0.0,1651086178158757.0
-2.0,-1.0,1.0,-4.0,-6.0,-2.0,0.0,0.0,1651086178158757.0
1.0,0.0,-1.0,-3.0,-4.0,-4.0,-2.0,-2.0,1651086178160757.0
1.0,0.0,0.0,1.0,2.0,5.0,-1.0,0.0,1651086178160757.0
0.0,0.0,0.0,1.0,0.0,-1.0,0.0,-1.0,1651086178173207.0
-1.0,-2.0,-2.0,-1.0,-1.0,-2.0,-2.0,0.0,1651086178173207.0
0.0,-1.0,1.0,-2.0,-1.0,-2.0,-1.0,2.0,1651086178182354.0
-2.0,-1.0,-2.0,0.0,-2.0,-2.0,2.0,-1.0,1651086178182354.0
-1.0,-3.0,-2.0,-2.0,-2.0,-1.0,1.0,-1.0,1651086178197709.0
0.0,1.0,-1.0,-1.0,-1.0,1.0,-1.0,0.0,1651086178197709.0
0.0,1.0,-2.0,-1.0,-3.0,-1.0,-1.0,-2.0,1651086178198710.0
-1.0,-3.0,-1.0,0.0,1.0,-3.0,0.0,0.0,1651086178198710.0
0.0,-1.0,1.0,1.0,0.0,2.0,1.0,0.0,1651086178219543.0
-1.0,0.0,-2.0,1.0,1.0,1.0,0.0,-1.0,1651086178219543.0
0.0,-1.0,-2.0,-3.0,-2.0,-3.0,1.0,1.0,1651086178220417.0
-1.0,-2.0,-2.0,0.0,-1.0,-1.0,0.0,-1.0,1651086178220417.0
-1.0,-1.0,0.0,2.0,-1.0,-1.0,-2.0,-1.0,1651086178232723.0
-2.0,-4.0,0.0,0.0,1.0,0.0,2.0,-1.0,1651086178232723.0
0.0,2.0,1.0,2.0,-1.0,1.0,-2.0,-2.0,1651086178242222.0
0.0,0.0,-1.0,1.0,0.0,-1.0,2.0,0.0,1651086178242222.0
0.0,-3.0,-2.0,-1.0,-1.0,-2.0,0.0,1.0,1651086178256331.0
0.0,0.0,-2.0,-2.0,-4.0,-3.0,-1.0,0.0,1651086178256331.0
0.0,-2.0,-2.0,0.0,0.0,0.0,-1.0,0.0,1651086178264358.0
0.0,0.0,1.0,-2.0,-2.0,-2.0,-1.0,0.0,1651086178264358.0
-1.0,1.0,-1.0,-1.0,-2.0,1.0,-2.0,0.0,1651086178279232.0
-2.0,-1.0,-1.0,0.0,1.0,-1.0,-1.0,1.0,1651086178279232.0
-1.0,-1.0,0.0,0.0,-1.0,-2.0,0.0,-1.0,1651086178280232.0
-1.0,-1.0,1.0,2.0,1.0,1.0,0.0,-1.0,1651086178280232.0
-1.0,-1.0,-1.0,-2.0,-1.0,-1.0,-1.0,0.0,1651086178293197.0
0.0,1.0,0.0,1.0,2.0,-2.0,-1.0,-2.0,1651086178293197.0
-2.0,-1.0,0.0,-1.0,1.0,1.0,0.0,0.0,1651086178302172.0
1.0,-1.0,-2.0,-4.0,-4.0,-4.0,-2.0,1.0,1651086178302172.0
-2.0,-4.0,-4.0,0.0,-5.0,-4.0,0.0,0.0,1651086178317534.0
-1.0,3.0,7.0,6.0,6.0,3.0,2.0,0.0,1651086178317534.0
-1.0,-2.0,-2.0,-1.0,5.0,3.0,-2.0,-1.0,1651086178318389.0
-1.0,-1.0,-2.0,0.0,0.0,-1.0,0.0,0.0,1651086178318389.0
-1.0,0.0,-1.0,0.0,0.0,-2.0,0.0,-1.0,1651086178340301.0
1.0,-1.0,-3.0,-3.0,-8.0,-4.0,-2.0,-1.0,1651086178340301.0
-1.0,-1.0,0.0,0.0,-3.0,-1.0,-2.0,-1.0,1651086178340301.0
0.0,0.0,3.0,2.0,1.0,0.0,-2.0,0.0,1651086178340301.0
0.0,-1.0,-2.0,-2.0,-4.0,-2.0,1.0,0.0,1651086178362334.0
-2.0,-1.0,-3.0,-2.0,-2.0,0.0,0.0,0.0,1651086178362334.0
-1.0,-1.0,1.0,2.0,1.0,0.0,1.0,0.0,1651086178363063.0
-1.0,-1.0,0.0,0.0,-1.0,-1.0,-2.0,-2.0,1651086178363063.0
1.0,-1.0,1.0,-1.0,2.0,3.0,1.0,-1.0,1651086178375185.0
0.0,-2.0,-2.0,-3.0,1.0,-2.0,-1.0,0.0,1651086178375185.0
0.0,-1.0,-1.0,-3.0,-1.0,-1.0,-1.0,0.0,1651086178384153.0
-1.0,0.0,-3.0,-3.0,-2.0,-2.0,0.0,0.0,1651086178384153.0
0.0,0.0,1.0,-2.0,0.0,-2.0,-2.0,-2.0,1651086178399573.0
1.0,-2.0,-2.0,0.0,2.0,2.0,0.0,0.0,1651086178399573.0
0.0,0.0,0.0,1.0,1.0,1.0,1.0,0.0,1651086178400573.0
-1.0,-1.0,-1.0,1.0,1.0,1.0,0.0,0.0,1651086178400573.0
1.0,-1.0,1.0,1.0,0.0,0.0,-2.0,-1.0,1651086178422336.0
0.0,0.0,-2.0,-1.0,-3.0,-3.0,-1.0,-1.0,1651086178422336.0
-1.0,1.0,0.0,-2.0,-3.0,-3.0,-1.0,0.0,1651086178428233.0
0.0,1.0,0.0,0.0,-1.0,-1.0,-2.0,-1.0,1651086178428233.0
0.0,0.0,0.0,-1.0,1.0,-2.0,-2.0,0.0,1651086178437331.0
-2.0,-1.0,-1.0,-3.0,-7.0,-1.0,-2.0,-1.0,1651086178437331.0
0.0,-2.0,-1.0,0.0,-1.0,-4.0,-1.0,-1.0,1651086178438331.0
1.0,4.0,1.0,0.0,4.0,6.0,0.0,-2.0,1651086178438331.0
-2.0,0.0,2.0,2.0,5.0,-1.0,0.0,1.0,1651086178459198.0
0.0,0.0,-1.0,0.0,2.0,0.0,-1.0,-1.0,1651086178459198.0
-1.0,-1.0,-2.0,-3.0,1.0,0.0,-1.0,-2.0,1651086178461194.0
1.0,-2.0,-1.0,-3.0,-8.0,-6.0,-3.0,-1.0,1651086178461194.0
-2.0,2.0,0.0,0.0,-2.0,0.0,-1.0,-1.0,1651086178481371.0
-1.0,0.0,2.0,2.0,5.0,4.0,3.0,-1.0,1651086178481371.0
-2.0,-2.0,0.0,-2.0,-2.0,0.0,-1.0,0.0,1651086178483217.0
0.0,-3.0,-2.0,-5.0,-3.0,-1.0,0.0,-1.0,1651086178483217.0
0.0,-1.0,-2.0,-1.0,-1.0,-2.0,-1.0,-1.0,1651086178496334.0
-1.0,0.0,0.0,1.0,3.0,0.0,0.0,-1.0,1651086178496334.0
1.0,1.0,0.0,-1.0,-6.0,-1.0,-1.0,0.0,1651086178503206.0
-1.0,-1.0,1.0,6.0,9.0,7.0,1.0,1.0,1651086178503206.0
1.0,-3.0,-2.0,3.0,9.0,3.0,0.0,-1.0,1651086178526203.0
-1.0,1.0,-1.0,0.0,-5.0,-1.0,0.0,-2.0,1651086178526203.0
-1.0,0.0,-1.0,-2.0,-1.0,-2.0,-1.0,0.0,1651086178528202.0
-1.0,2.0,0.0,-1.0,-18.0,-10.0,-2.0,-1.0,1651086178528202.0
-2.0,-3.0,-1.0,-1.0,8.0,4.0,0.0,1.0,1651086178541196.0
1.0,0.0,1.0,7.0,12.0,6.0,1.0,1.0,1651086178541196.0
0.0,-4.0,2.0,4.0,9.0,2.0,1.0,-1.0,1651086178543160.0
-2.0,-1.0,-1.0,-3.0,-2.0,-2.0,1.0,-2.0,1651086178543160.0
0.0,4.0,1.0,-5.0,-15.0,-7.0,-1.0,-3.0,1651086178556560.0
-1.0,-2.0,-3.0,-7.0,-11.0,-6.0,-3.0,-2.0,1651086178556560.0
1.0,5.0,-1.0,-16.0,-23.0,-5.0,-2.0,-1.0,1651086178563229.0
-5.0,-17.0,2.0,27.0,33.0,6.0,0.0,-1.0,1651086178563229.0
-2.0,-1.0,1.0,0.0,1.0,1.0,1.0,2.0,1651086178579237.0
-1.0,0.0,1.0,6.0,14.0,2.0,0.0,-1.0,1651086178579237.0
0.0,4.0,5.0,1.0,-3.0,-3.0,0.0,1.0,1651086178580270.0
2.0,2.0,-5.0,-11.0,-14.0,-3.0,0.0,-3.0,1651086178580270.0
1.0,-9.0,-4.0,-15.0,-11.0,-4.0,0.0,0.0,1651086178602114.0
-1.0,19.0,10.0,6.0,0.0,2.0,2.0,-1.0,1651086178602114.0
-1.0,6.0,-6.0,8.0,6.0,-1.0,0.0,1.0,1651086178603061.0
0.0,2.0,-3.0,-9.0,-7.0,2.0,0.0,0.0,1651086178603061.0
-1.0,2.0,2.0,8.0,10.0,1.0,-1.0,-1.0,1651086178616391.0
2.0,-4.0,-3.0,-23.0,-16.0,-4.0,1.0,1.0,1651086178616391.0
-2.0,-7.0,4.0,12.0,8.0,2.0,1.0,-1.0,1651086178623234.0
-1.0,-1.0,-6.0,-3.0,-2.0,0.0,-1.0,-2.0,1651086178623234.0
-2.0,2.0,0.0,0.0,-14.0,-8.0,-1.0,0.0,1651086178639393.0
-1.0,-3.0,-5.0,-5.0,2.0,2.0,0.0,1.0,1651086178639393.0
0.0,-1.0,-2.0,-2.0,7.0,2.0,1.0,0.0,1651086178640425.0
-1.0,-1.0,-2.0,-23.0,-28.0,-11.0,-4.0,-1.0,1651086178640425.0
2.0,-5.0,0.0,20.0,31.0,15.0,4.0,1.0,1651086178662123.0
0.0,-1.0,0.0,8.0,4.0,-2.0,0.0,1.0,1651086178662123.0
-1.0,-7.0,-6.0,-17.0,-14.0,-5.0,-2.0,1.0,1651086178663061.0
0.0,2.0,10.0,6.0,-4.0,2.0,1.0,0.0,1651086178663061.0
-2.0,-8.0,-19.0,6.0,4.0,-3.0,-2.0,0.0,1651086178676292.0
0.0,-17.0,-11.0,-13.0,-3.0,-4.0,-3.0,-1.0,1651086178676292.0
-1.0,21.0,4.0,1.0,-4.0,2.0,-1.0,-2.0,1651086178683326.0
0.0,4.0,0.0,3.0,-5.0,-3.0,0.0,0.0,1651086178683326.0
-2.0,-7.0,3.0,-3.0,10.0,4.0,1.0,-1.0,1651086178698514.0
-1.0,-10.0,-6.0,1.0,-1.0,-6.0,-1.0,-2.0,1651086178698514.0
-1.0,-7.0,-7.0,-1.0,-7.0,0.0,-3.0,0.0,1651086178706505.0
1.0,-2.0,-5.0,1.0,11.0,5.0,2.0,3.0,1651086178706505.0
-1.0,7.0,16.0,6.0,-15.0,-7.0,-4.0,-2.0,1651086178729215.0
-3.0,-1.0,-1.0,-3.0,5.0,2.0,-1.0,-2.0,1651086178729215.0
0.0,-2.0,-13.0,-9.0,-9.0,-1.0,2.0,0.0,1651086178730249.0
0.0,3.0,8.0,6.0,-2.0,-4.0,1.0,-1.0,1651086178730249.0
2.0,1.0,-2.0,20.0,30.0,8.0,3.0,1.0,1651086178736335.0
-1.0,3.0,-8.0,0.0,-19.0,-6.0,-4.0,-1.0,1651086178736335.0
-2.0,-5.0,0.0,-7.0,4.0,-2.0,-1.0,-3.0,1651086178742357.0
0.0,-3.0,-9.0,-12.0,-3.0,3.0,0.0,0.0,1651086178742357.0
-1.0,4.0,3.0,-10.0,-26.0,-7.0,-1.0,-2.0,1651086178759503.0
-1.0,1.0,2.0,6.0,5.0,1.0,0.0,1.0,1651086178759503.0
0.0,3.0,-8.0,-1.0,3.0,-1.0,-1.0,-1.0,1651086178760501.0
-2.0,1.0,8.0,1.0,2.0,1.0,-2.0,-1.0,1651086178760501.0
0.0,0.0,11.0,5.0,-4.0,-1.0,0.0,0.0,1651086178782171.0
-1.0,13.0,6.0,11.0,17.0,7.0,1.0,0.0,1651086178782171.0
1.0,-7.0,-4.0,5.0,19.0,7.0,2.0,0.0,1651086178783060.0
-1.0,0.0,-14.0,-28.0,-25.0,-11.0,-2.0,-2.0,1651086178783060.0
1.0,2.0,-4.0,-5.0,2.0,2.0,0.0,0.0,1651086178796541.0
0.0,-8.0,6.0,9.0,-9.0,-2.0,-1.0,-2.0,1651086178796541.0
0.0,-3.0,-1.0,0.0,-3.0,-3.0,-1.0,-2.0,1651086178803207.0
0.0,-4.0,-7.0,-2.0,13.0,6.0,2.0,1.0,1651086178803207.0
-1.0,0.0,10.0,-14.0,-25.0,-9.0,-4.0,0.0,1651086178820332.0
0.0,-6.0,-11.0,-8.0,2.0,2.0,3.0,0.0,1651086178820332.0
1.0,4.0,9.0,12.0,2.0,1.0,0.0,0.0,1651086178822329.0
0.0,0.0,6.0,2.0,7.0,2.0,2.0,-2.0,1651086178822329.0
0.0,-4.0,-24.0,-11.0,0.0,3.0,3.0,0.0,1651086178841367.0
0.0,5.0,8.0,0.0,-6.0,-3.0,-2.0,1.0,1651086178841367.0
0.0,0.0,11.0,-1.0,-7.0,0.0,0.0,1.0,1651086178843218.0
-2.0,-4.0,-8.0,13.0,20.0,3.0,0.0,0.0,1651086178843218.0
2.0,3.0,-5.0,3.0,12.0,3.0,0.0,1.0,1651086178855347.0
0.0,3.0,45.0,21.0,-9.0,-3.0,-1.0,-2.0,1651086178855347.0
-2.0,-7.0,-42.0,-21.0,-11.0,-7.0,-1.0,-2.0,1651086178864177.0
-1.0,-1.0,5.0,12.0,16.0,7.0,-3.0,-1.0,1651086178864177.0
0.0,1.0,6.0,-9.0,-4.0,-4.0,-3.0,-2.0,1651086178879870.0
1.0,1.0,-16.0,-13.0,-13.0,-5.0,-2.0,-1.0,1651086178879870.0
-1.0,0.0,23.0,6.0,0.0,0.0,-3.0,-1.0,1651086178880707.0
0.0,2.0,9.0,13.0,4.0,-1.0,0.0,-2.0,1651086178880707.0
-1.0,-5.0,-46.0,-32.0,-6.0,3.0,3.0,1.0,1651086178902610.0
2.0,-1.0,3.0,0.0,4.0,5.0,1.0,2.0,1651086178902610.0
-1.0,-4.0,6.0,8.0,2.0,-1.0,-3.0,-1.0,1651086178903059.0
-1.0,-2.0,-16.0,-9.0,-9.0,-5.0,-2.0,0.0,1651086178903059.0
-2.0,1.0,9.0,6.0,-10.0,-5.0,-4.0,-3.0,1651086178915220.0
-1.0,-3.0,-14.0,-8.0,11.0,2.0,2.0,2.0,1651086178915220.0
-3.0,0.0,13.0,1.0,-6.0,0.0,-1.0,1.0,1651086178924369.0
0.0,0.0,1.0,-3.0,4.0,2.0,0.0,0.0,1651086178924369.0
-2.0,-2.0,7.0,7.0,-5.0,-4.0,0.0,-2.0,1651086178940347.0
-3.0,0.0,-16.0,-20.0,-12.0,-5.0,-3.0,0.0,1651086178940347.0
-1.0,-3.0,-8.0,7.0,2.0,0.0,0.0,-1.0,1651086178941244.0
0.0,3.0,-11.0,-4.0,-11.0,-4.0,-2.0,1.0,1651086178941244.0
0.0,2.0,17.0,7.0,17.0,1.0,-3.0,-2.0,1651086178962726.0
-1.0,-2.0,-22.0,-6.0,7.0,7.0,3.0,0.0,1651086178962726.0
-2.0,2.0,23.0,33.0,5.0,-2.0,0.0,-2.0,1651086178963063.0
-1.0,-5.0,-41.0,-42.0,-15.0,-4.0,-1.0,-1.0,1651086178963063.0
0.0,2.0,6.0,10.0,14.0,7.0,2.0,1.0,1651086178975200.0
-1.0,1.0,11.0,2.0,-5.0,-4.0,-3.0,1.0,1651086178975200.0
1.0,-1.0,-10.0,-19.0,-10.0,-3.0,-2.0,0.0,1651086178984385.0
0.0,1.0,0.0,16.0,6.0,3.0,1.0,0.0,1651086178984385.0
-1.0,-1.0,19.0,-13.0,3.0,-1.0,-2.0,1.0,1651086178999228.0
0.0,-1.0,-6.0,-1.0,-7.0,-4.0,-4.0,-3.0,1651086178999228.0
0.0,2.0,17.0,19.0,12.0,8.0,1.0,2.0,1651086179007364.0
1.0,-3.0,7.0,2.0,2.0,-6.0,-4.0,-2.0,1651086179007364.0
2.0,0.0,-4.0,14.0,5.0,4.0,3.0,1.0,1651086179022721.0
1.0,1.0,4.0,-1.0,-4.0,-1.0,1.0,0.0,1651086179022721.0
-2.0,-2.0,7.0,1.0,4.0,3.0,0.0,-1.0,1651086179023058.0
0.0,3.0,16.0,4.0,-2.0,-1.0,-2.0,2.0,1651086179023058.0
-2.0,-2.0,-26.0,-8.0,6.0,3.0,1.0,-2.0,1651086179034895.0
-4.0,-5.0,-2.0,7.0,-2.0,-3.0,-3.0,-2.0,1651086179034895.0
0.0,1.0,-3.0,-34.0,-14.0,-5.0,0.0,-1.0,1651086179044488.0
-1.0,0.0,18.0,38.0,28.0,11.0,8.0,2.0,1651086179044488.0
2.0,2.0,-2.0,-4.0,-3.0,-3.0,0.0,-1.0,1651086179058666.0
-3.0,-1.0,-5.0,1.0,4.0,4.0,2.0,-3.0,1651086179058666.0
-2.0,-2.0,-4.0,8.0,12.0,-2.0,-7.0,-3.0,1651086179065649.0
1.0,5.0,8.0,-1.0,-2.0,-1.0,1.0,2.0,1651086179065649.0
-1.0,0.0,13.0,7.0,-14.0,-3.0,2.0,-1.0,1651086179082300.0
-2.0,1.0,-4.0,5.0,0.0,-3.0,-2.0,0.0,1651086179082300.0
2.0,-1.0,-3.0,-13.0,-3.0,3.0,4.0,-2.0,1651086179082746.0
-1.0,-4.0,-9.0,-19.0,-9.0,-5.0,-3.0,0.0,1651086179082746.0
1.0,2.0,24.0,3.0,1.0,-2.0,-1.0,2.0,1651086179095457.0
-1.0,0.0,18.0,32.0,1.0,-4.0,-6.0,-2.0,1651086179095457.0
-5.0,-8.0,-51.0,-34.0,-9.0,-3.0,-1.0,-6.0,1651086179112065.0
1.0,1.0,1.0,1.0,0.0,-7.0,-10.0,-1.0,1651086179112065.0
0.0,2.0,-5.0,-13.0,-7.0,10.0,8.0,1.0,1651086179119698.0
2.0,-2.0,8.0,-1.0,-1.0,0.0,2.0,2.0,1651086179119698.0
2.0,-3.0,9.0,14.0,8.0,2.0,4.0,10.0,1651086179120698.0
-7.0,-2.0,-13.0,-15.0,-4.0,-4.0,-7.0,-29.0,1651086179120698.0
-12.0,-3.0,-21.0,-10.0,-16.0,-21.0,-21.0,-5.0,1651086179142098.0
9.0,-1.0,-3.0,-16.0,-1.0,3.0,4.0,-2.0,1651086179142098.0
5.0,8.0,4.0,22.0,10.0,4.0,6.0,20.0,1651086179143065.0
0.0,2.0,22.0,4.0,-8.0,0.0,3.0,13.0,1651086179143065.0
6.0,0.0,-22.0,4.0,-4.0,-5.0,1.0,-4.0,1651086179155567.0
-9.0,-5.0,-12.0,-12.0,10.0,5.0,-1.0,1.0,1651086179155567.0
-2.0,3.0,3.0,-1.0,-1.0,-10.0,-4.0,3.0,1651086179164387.0
-7.0,-7.0,-11.0,-8.0,-4.0,11.0,5.0,-6.0,1651086179164387.0
-2.0,-1.0,2.0,-9.0,-7.0,-4.0,-3.0,1.0,1651086179179245.0
2.0,1.0,-7.0,-5.0,2.0,2.0,7.0,-1.0,1651086179179245.0
0.0,0.0,4.0,-10.0,-12.0,-11.0,-10.0,-6.0,1651086179180245.0
0.0,-3.0,19.0,35.0,18.0,8.0,11.0,6.0,1651086179180245.0
1.0,-1.0,22.0,8.0,0.0,-5.0,-8.0,-4.0,1651086179202708.0
-4.0,2.0,-10.0,5.0,0.0,-1.0,-7.0,-9.0,1651086179202708.0
8.0,0.0,17.0,-2.0,2.0,9.0,7.0,2.0,1651086179203060.0
8.0,3.0,-20.0,-2.0,-2.0,4.0,4.0,-1.0,1651086179203060.0
7.0,-5.0,-7.0,-3.0,-1.0,2.0,8.0,8.0,1651086179215227.0
-20.0,2.0,11.0,-8.0,-7.0,-7.0,-10.0,-13.0,1651086179215227.0
4.0,0.0,5.0,0.0,-4.0,6.0,8.0,2.0,1651086179224367.0
-13.0,-3.0,-4.0,2.0,2.0,-1.0,1.0,8.0,1651086179224367.0
-3.0,-3.0,-11.0,-18.0,-1.0,-10.0,-9.0,12.0,1651086179239229.0
2.0,2.0,22.0,15.0,8.0,23.0,24.0,1.0,1651086179239229.0
-5.0,-3.0,20.0,10.0,1.0,1.0,5.0,-19.0,1651086179245376.0
-1.0,0.0,4.0,6.0,-7.0,-9.0,-7.0,9.0,1651086179245376.0
4.0,1.0,-2.0,5.0,1.0,5.0,4.0,-4.0,1651086179262698.0
2.0,4.0,7.0,4.0,2.0,-6.0,-5.0,6.0,1651086179262698.0
-17.0,-9.0,-8.0,-11.0,-5.0,-4.0,-7.0,-1.0,1651086179263062.0
5.0,-2.0,-34.0,-26.0,-6.0,0.0,0.0,-17.0,1651086179263062.0
2.0,2.0,18.0,2.0,-4.0,-4.0,-2.0,-7.0,1651086179275011.0
-3.0,-7.0,-32.0,-7.0,-4.0,-4.0,-2.0,-5.0,1651086179275011.0
-4.0,1.0,-18.0,4.0,5.0,6.0,3.0,-5.0,1651086179292032.0
0.0,-1.0,-12.0,-4.0,-3.0,-4.0,-3.0,1.0,1651086179292032.0
2.0,-2.0,4.0,-16.0,-8.0,1.0,3.0,14.0,1651086179298098.0
-3.0,-5.0,5.0,11.0,-8.0,-15.0,-20.0,-33.0,1651086179298098.0
-5.0,0.0,-7.0,-8.0,8.0,6.0,-1.0,7.0,1651086179306092.0
-1.0,2.0,22.0,15.0,-2.0,-7.0,-5.0,-1.0,1651086179306092.0
1.0,-1.0,-14.0,-13.0,1.0,2.0,-4.0,-4.0,1651086179322323.0
6.0,2.0,1.0,-1.0,-4.0,0.0,4.0,16.0,1651086179322323.0
-1.0,-3.0,-1.0,8.0,-2.0,-2.0,-4.0,-17.0,1651086179323063.0
5.0,5.0,10.0,-17.0,0.0,-5.0,-4.0,7.0,1651086179323063.0
-14.0,-5.0,12.0,7.0,2.0,5.0,2.0,-6.0,1651086179352434.0
2.0,5.0,8.0,22.0,7.0,-1.0,-4.0,1.0,1651086179352434.0
7.0,-1.0,-14.0,-5.0,2.0,-1.0,-1.0,3.0,1651086179353060.0
-5.0,2.0,37.0,18.0,3.0,9.0,10.0,5.0,1651086179353060.0
3.0,1.0,-5.0,14.0,3.0,2.0,1.0,2.0,1651086179358084.0
5.0,0.0,-2.0,-2.0,-4.0,-6.0,3.0,13.0,1651086179358084.0
-2.0,-3.0,1.0,-8.0,1.0,-1.0,0.0,-2.0,1651086179365031.0
1.0,0.0,-2.0,2.0,3.0,2.0,1.0,3.0,1651086179365031.0
5.0,-2.0,-12.0,5.0,1.0,-4.0,-3.0,-11.0,1651086179382615.0
1.0,-1.0,10.0,-14.0,-3.0,0.0,0.0,1.0,1651086179382615.0
3.0,1.0,-5.0,22.0,-4.0,-2.0,-3.0,3.0,1651086179384095.0
-5.0,-4.0,-10.0,-19.0,-10.0,-7.0,-5.0,-6.0,1651086179384095.0
-2.0,1.0,13.0,3.0,-1.0,1.0,-4.0,-6.0,1651086179404341.0
-1.0,1.0,15.0,23.0,6.0,-1.0,0.0,5.0,1651086179404341.0
2.0,-3.0,-44.0,-19.0,-1.0,-2.0,0.0,-2.0,1651086179406196.0
-1.0,-2.0,19.0,7.0,1.0,0.0,2.0,-3.0,1651086179406196.0
-11.0,-2.0,-34.0,-11.0,-1.0,-4.0,-6.0,-2.0,1651086179419214.0
4.0,-6.0,5.0,-24.0,-9.0,-1.0,2.0,15.0,1651086179419214.0
-9.0,4.0,16.0,0.0,-2.0,-3.0,-5.0,-2.0,1651086179425341.0
4.0,-3.0,-17.0,9.0,3.0,-3.0,-3.0,-11.0,1651086179425341.0
0.0,-1.0,10.0,7.0,4.0,18.0,15.0,6.0,1651086179441350.0
-8.0,-5.0,-6.0,-8.0,0.0,-5.0,-9.0,-17.0,1651086179441350.0
9.0,3.0,37.0,20.0,-3.0,-3.0,2.0,12.0,1651086179443205.0
4.0,1.0,-17.0,-2.0,3.0,-1.0,-2.0,6.0,1651086179443205.0
-4.0,-5.0,-13.0,-10.0,-9.0,-5.0,0.0,1.0,1651086179464345.0
7.0,0.0,10.0,-13.0,3.0,9.0,6.0,-9.0,1651086179464345.0
13.0,1.0,7.0,3.0,-1.0,-2.0,-3.0,11.0,1651086179466203.0
-2.0,-1.0,-12.0,-16.0,-7.0,-3.0,-2.0,-4.0,1651086179466203.0
4.0,4.0,15.0,22.0,5.0,7.0,9.0,7.0,1651086179479103.0
-4.0,-3.0,-15.0,-27.0,-4.0,-2.0,-1.0,-2.0,1651086179479103.0
-5.0,-3.0,-10.0,11.0,-4.0,-3.0,1.0,1.0,1651086179485090.0
1.0,0.0,7.0,9.0,-4.0,-3.0,0.0,0.0,1651086179485090.0
-1.0,-2.0,-8.0,5.0,5.0,-2.0,-2.0,-3.0,1651086179502783.0
-2.0,-1.0,6.0,-4.0,1.0,0.0,-2.0,3.0,1651086179502783.0
1.0,-3.0,-17.0,-16.0,-2.0,3.0,5.0,2.0,1651086179503059.0
-8.0,-5.0,-2.0,-11.0,-2.0,-3.0,-3.0,-2.0,1651086179503059.0
9.0,2.0,4.0,-3.0,-5.0,-4.0,1.0,1.0,1651086179524347.0
-8.0,2.0,0.0,14.0,1.0,0.0,2.0,3.0,1651086179524347.0
-1.0,-3.0,-19.0,-21.0,-9.0,-7.0,-7.0,-10.0,1651086179526204.0
3.0,0.0,7.0,10.0,5.0,4.0,6.0,13.0,1651086179526204.0
-5.0,1.0,11.0,11.0,-3.0,-12.0,-22.0,-39.0,1651086179539211.0
5.0,-3.0,-24.0,-13.0,6.0,2.0,-2.0,-14.0,1651086179539211.0
0.0,0.0,33.0,24.0,4.0,2.0,0.0,2.0,1651086179546327.0
5.0,2.0,-5.0,-9.0,-10.0,-8.0,-3.0,-1.0,1651086179546327.0
2.0,2.0,-3.0,-5.0,5.0,-1.0,3.0,11.0,1651086179562641.0
-7.0,4.0,-14.0,4.0,5.0,1.0,0.0,1.0,1651086179562641.0
1.0,3.0,8.0,9.0,7.0,4.0,-2.0,-11.0,1651086179563505.0
-4.0,1.0,-3.0,-15.0,0.0,8.0,8.0,-1.0,1651086179563505.0
-2.0,-4.0,11.0,15.0,-1.0,-2.0,1.0,7.0,1651086179584495.0
4.0,0.0,-13.0,-2.0,-8.0,-6.0,-5.0,-2.0,1651086179584495.0
-3.0,0.0,3.0,-22.0,0.0,1.0,2.0,0.0,1651086179590933.0
0.0,3.0,13.0,28.0,3.0,4.0,4.0,8.0,1651086179590933.0
-4.0,1.0,-8.0,1.0,-1.0,-1.0,-1.0,-1.0,1651086179598736.0
-2.0,-8.0,-12.0,-11.0,-7.0,-2.0,0.0,3.0,1651086179598736.0
-9.0,-6.0,-20.0,-13.0,-8.0,-9.0,-8.0,-8.0,1651086179605742.0
4.0,2.0,30.0,11.0,4.0,1.0,-1.0,3.0,1651086179605742.0
1.0,0.0,-14.0,-9.0,0.0,3.0,4.0,4.0,1651086179622343.0
10.0,1.0,22.0,12.0,-2.0,-5.0,-3.0,5.0,1651086179622343.0
-17.0,-1.0,0.0,-9.0,-9.0,-2.0,1.0,0.0,1651086179623212.0
-1.0,-6.0,-16.0,2.0,9.0,-3.0,-5.0,-1.0,1651086179623212.0
0.0,0.0,11.0,9.0,3.0,8.0,7.0,12.0,1651086179644633.0
5.0,1.0,7.0,-6.0,-4.0,-1.0,-5.0,-17.0,1651086179644633.0
-1.0,1.0,8.0,19.0,2.0,0.0,4.0,-3.0,1651086179645514.0
4.0,-4.0,-6.0,-21.0,-11.0,-2.0,-1.0,-4.0,1651086179645514.0
-4.0,-2.0,13.0,11.0,2.0,2.0,5.0,3.0,1651086179658638.0
-13.0,-10.0,-44.0,-30.0,-4.0,-9.0,-11.0,-2.0,1651086179658638.0
7.0,0.0,18.0,14.0,1.0,-1.0,-3.0,5.0,1651086179666753.0
-4.0,1.0,-7.0,1.0,-6.0,-6.0,-7.0,-10.0,1651086179666753.0
-9.0,0.0,21.0,1.0,0.0,0.0,2.0,1.0,1651086179690286.0
3.0,1.0,-7.0,6.0,1.0,8.0,7.0,10.0,1651086179690286.0
0.0,-1.0,-3.0,1.0,7.0,-1.0,-4.0,-4.0,1651086179690286.0
-3.0,0.0,9.0,1.0,4.0,2.0,-1.0,1.0,1651086179690286.0
-1.0,-3.0,8.0,8.0,-3.0,-4.0,-8.0,-11.0,1651086179704340.0
1.0,5.0,-6.0,-2.0,-5.0,-3.0,1.0,6.0,1651086179704340.0
5.0,-7.0,9.0,-5.0,-3.0,0.0,-2.0,4.0,1651086179705174.0
-14.0,-7.0,-41.0,-18.0,-11.0,-4.0,-4.0,-28.0,1651086179705174.0
22.0,2.0,-1.0,-6.0,18.0,5.0,7.0,2.0,1651086179719037.0
-6.0,-1.0,12.0,1.0,-2.0,-5.0,-7.0,8.0,1651086179719037.0
12.0,1.0,-10.0,7.0,3.0,2.0,5.0,4.0,1651086179725251.0
-6.0,1.0,27.0,6.0,-10.0,-9.0,-9.0,-25.0,1651086179725251.0
-2.0,1.0,-22.0,-4.0,-3.0,-2.0,-3.0,4.0,1651086179741410.0
-1.0,0.0,8.0,24.0,6.0,2.0,5.0,5.0,1651086179741410.0
-4.0,0.0,-5.0,-16.0,-1.0,0.0,-2.0,-13.0,1651086179743259.0
7.0,-1.0,-17.0,3.0,4.0,1.0,2.0,14.0,1651086179743259.0
-9.0,-5.0,-7.0,-15.0,-5.0,-4.0,-3.0,-6.0,1651086179764225.0
8.0,1.0,5.0,5.0,6.0,2.0,4.0,7.0,1651086179764225.0
-7.0,-1.0,16.0,6.0,-6.0,-1.0,2.0,4.0,1651086179766091.0
7.0,3.0,0.0,5.0,7.0,4.0,1.0,15.0,1651086179766091.0
-9.0,1.0,-16.0,-1.0,-6.0,-3.0,-3.0,-9.0,1651086179779201.0
0.0,-6.0,-3.0,-10.0,-8.0,-4.0,-2.0,1.0,1651086179779201.0
-1.0,2.0,-18.0,-12.0,-3.0,0.0,-1.0,-6.0,1651086179787513.0
4.0,4.0,19.0,-6.0,5.0,4.0,5.0,4.0,1651086179787513.0
0.0,-3.0,-8.0,7.0,2.0,0.0,-3.0,-9.0,1651086179801431.0
2.0,-1.0,-30.0,-29.0,-10.0,-3.0,-1.0,14.0,1651086179801431.0
1.0,2.0,17.0,20.0,6.0,3.0,3.0,4.0,1651086179803460.0
-12.0,-6.0,3.0,6.0,-1.0,1.0,6.0,4.0,1651086179803460.0
4.0,2.0,1.0,-12.0,-11.0,-6.0,-1.0,17.0,1651086179824415.0
-6.0,4.0,-8.0,12.0,14.0,4.0,1.0,-9.0,1651086179824415.0
-6.0,-4.0,-17.0,-5.0,5.0,3.0,4.0,13.0,1651086179825388.0
-3.0,3.0,8.0,16.0,-2.0,2.0,-5.0,-4.0,1651086179825388.0
0.0,-9.0,-1.0,-32.0,-3.0,-1.0,-3.0,-1.0,1651086179838373.0
-1.0,2.0,25.0,20.0,-1.0,1.0,1.0,-7.0,1651086179838373.0
4.0,3.0,-13.0,-6.0,2.0,-3.0,-3.0,1.0,1651086179847210.0
4.0,-4.0,-1.0,-8.0,-8.0,-5.0,-3.0,-1.0,1651086179847210.0
-4.0,-2.0,-13.0,-12.0,-7.0,-1.0,1.0,-4.0,1651086179862362.0
1.0,4.0,34.0,53.0,11.0,4.0,1.0,-1.0,1651086179862362.0
0.0,-9.0,-10.0,-25.0,-7.0,-3.0,5.0,4.0,1651086179863063.0
5.0,5.0,17.0,16.0,7.0,2.0,-2.0,-7.0,1651086179863063.0
-4.0,-2.0,-8.0,-18.0,-8.0,-4.0,-4.0,1.0,1651086179884356.0
8.0,5.0,24.0,-1.0,4.0,4.0,3.0,-5.0,1651086179884356.0
-5.0,-4.0,-30.0,4.0,-2.0,-1.0,-3.0,-1.0,1651086179885193.0
4.0,0.0,-12.0,-11.0,-6.0,-4.0,-2.0,-2.0,1651086179885193.0
11.0,4.0,15.0,9.0,1.0,0.0,0.0,7.0,1651086179897396.0
-6.0,-2.0,-3.0,-17.0,-8.0,1.0,-4.0,-8.0,1651086179897396.0
5.0,7.0,20.0,27.0,20.0,1.0,-3.0,-9.0,1651086179907405.0
-7.0,-4.0,-23.0,-19.0,-2.0,-2.0,-2.0,12.0,1651086179907405.0
-2.0,2.0,3.0,11.0,5.0,6.0,9.0,6.0,1651086179922152.0
-1.0,-1.0,-4.0,-13.0,-12.0,-4.0,-1.0,-3.0,1651086179922152.0
3.0,1.0,3.0,1.0,-4.0,-1.0,-1.0,6.0,1651086179923059.0
-1.0,2.0,10.0,6.0,4.0,2.0,0.0,2.0,1651086179923059.0
4.0,-1.0,0.0,5.0,2.0,0.0,2.0,-1.0,1651086179944534.0
-3.0,1.0,-13.0,-28.0,-3.0,2.0,5.0,1.0,1651086179944534.0
7.0,-2.0,12.0,27.0,2.0,3.0,7.0,15.0,1651086179945417.0
-5.0,7.0,-14.0,-12.0,0.0,-5.0,-10.0,-5.0,1651086179945417.0
-7.0,-1.0,42.0,40.0,2.0,-2.0,-1.0,3.0,1651086179957379.0
6.0,-10.0,-1.0,-16.0,-11.0,-9.0,-7.0,2.0,1651086179957379.0
-1.0,-2.0,-32.0,-28.0,-3.0,5.0,3.0,-1.0,1651086179967198.0
1.0,1.0,22.0,14.0,-3.0,0.0,1.0,-1.0,1651086179967198.0
-4.0,2.0,-5.0,-7.0,8.0,3.0,-3.0,-12.0,1651086179982157.0
4.0,-4.0,-17.0,-5.0,5.0,0.0,5.0,12.0,1651086179982157.0
-1.0,3.0,16.0,18.0,1.0,-1.0,0.0,-8.0,1651086179983599.0
-2.0,-13.0,11.0,7.0,-1.0,-2.0,-1.0,-5.0,1651086179983599.0
-2.0,-2.0,-35.0,-39.0,-8.0,-3.0,0.0,0.0,1651086180004357.0
-3.0,-3.0,-5.0,5.0,-3.0,-2.0,-2.0,-4.0,1651086180004357.0
-5.0,-1.0,25.0,26.0,0.0,-6.0,-10.0,-7.0,1651086180005242.0
5.0,6.0,-25.0,-33.0,-1.0,2.0,7.0,5.0,1651086180005242.0
2.0,4.0,28.0,20.0,-4.0,2.0,-1.0,1.0,1651086180018222.0
1.0,0.0,-6.0,1.0,9.0,7.0,5.0,1.0,1651086180018222.0
-1.0,-2.0,19.0,-3.0,-6.0,-4.0,-2.0,3.0,1651086180027151.0
-2.0,4.0,-13.0,-10.0,2.0,0.0,0.0,-10.0,1651086180027151.0
-2.0,-3.0,14.0,22.0,1.0,-1.0,0.0,0.0,1651086180042114.0
-3.0,13.0,-23.0,-32.0,-16.0,-7.0,-3.0,-7.0,1651086180042114.0
0.0,1.0,5.0,14.0,13.0,6.0,3.0,16.0,1651086180043109.0
-5.0,-1.0,19.0,8.0,-3.0,-4.0,-3.0,-11.0,1651086180043109.0
0.0,-6.0,-10.0,-13.0,2.0,-2.0,-2.0,-2.0,1651086180064350.0
-8.0,-6.0,-10.0,14.0,2.0,4.0,3.0,-4.0,1651086180064350.0
4.0,-2.0,-13.0,-27.0,-11.0,-7.0,-4.0,3.0,1651086180065202.0
-8.0,-2.0,6.0,-4.0,1.0,2.0,1.0,-7.0,1651086180065202.0
-5.0,1.0,1.0,-3.0,-12.0,-9.0,-9.0,-10.0,1651086180078301.0
0.0,-1.0,0.0,29.0,15.0,5.0,0.0,1.0,1651086180078301.0
-5.0,-6.0,7.0,0.0,4.0,3.0,-2.0,-14.0,1651086180093271.0
4.0,-4.0,-15.0,-6.0,-7.0,-7.0,-3.0,7.0,1651086180093271.0
3.0,2.0,5.0,-5.0,2.0,0.0,4.0,0.0,1651086180102145.0
1.0,6.0,23.0,27.0,0.0,1.0,1.0,1.0,1651086180102145.0
-6.0,-2.0,-27.0,-9.0,19.0,-1.0,-4.0,-6.0,1651086180103062.0
-1.0,12.0,-10.0,-5.0,-7.0,-5.0,-10.0,0.0,1651086180103062.0
-1.0,-3.0,-12.0,-10.0,-3.0,0.0,-1.0,1.0,1651086180124351.0
6.0,0.0,20.0,2.0,3.0,2.0,1.0,2.0,1651086180124351.0
-5.0,-3.0,-22.0,-13.0,-19.0,-5.0,2.0,-11.0,1651086180126201.0
-1.0,-12.0,-2.0,11.0,4.0,-3.0,1.0,5.0,1651086180126201.0
0.0,5.0,0.0,-2.0,0.0,2.0,-2.0,2.0,1651086180138267.0
-4.0,-11.0,-26.0,1.0,6.0,7.0,8.0,-2.0,1651086180138267.0
8.0,4.0,22.0,-10.0,-6.0,-1.0,-2.0,0.0,1651086180147314.0
1.0,1.0,1.0,-1.0,-5.0,-2.0,-3.0,2.0,1651086180147314.0
2.0,-3.0,-23.0,-2.0,-8.0,-1.0,1.0,0.0,1651086180162156.0
1.0,4.0,29.0,9.0,20.0,6.0,2.0,0.0,1651086180162156.0
-6.0,-6.0,-11.0,-15.0,-13.0,-6.0,-4.0,-7.0,1651086180163062.0
5.0,2.0,6.0,11.0,5.0,7.0,4.0,4.0,1651086180163062.0
0.0,-3.0,-3.0,15.0,11.0,13.0,6.0,0.0,1651086180184601.0
-4.0,-3.0,37.0,0.0,-11.0,-14.0,-10.0,-6.0,1651086180184601.0
-4.0,-2.0,-28.0,-26.0,-10.0,-4.0,-1.0,-5.0,1651086180185454.0
2.0,-3.0,15.0,17.0,10.0,7.0,1.0,3.0,1651086180185454.0
-5.0,0.0,4.0,-3.0,-1.0,-2.0,2.0,2.0,1651086180198306.0
10.0,3.0,-5.0,-4.0,-5.0,-4.0,-6.0,-3.0,1651086180198306.0
-4.0,-5.0,-15.0,8.0,0.0,4.0,0.0,0.0,1651086180207326.0
1.0,3.0,-2.0,-13.0,-13.0,-7.0,-3.0,-1.0,1651086180207326.0
-3.0,-7.0,-4.0,2.0,12.0,0.0,-3.0,-3.0,1651086180222149.0
-2.0,9.0,-2.0,-1.0,0.0,2.0,-1.0,1.0,1651086180222149.0
3.0,2.0,9.0,1.0,-1.0,-2.0,2.0,-1.0,1651086180223060.0
1.0,-6.0,-13.0,-11.0,-5.0,4.0,3.0,2.0,1651086180223060.0
2.0,7.0,10.0,16.0,13.0,0.0,0.0,-1.0,1651086180244463.0
-2.0,-5.0,-2.0,-7.0,-3.0,-1.0,-2.0,-2.0,1651086180244463.0
0.0,0.0,-23.0,-7.0,-6.0,-2.0,0.0,-2.0,1651086180245364.0
0.0,-1.0,-3.0,5.0,4.0,-1.0,1.0,1.0,1651086180245364.0
0.0,3.0,11.0,-8.0,-5.0,-1.0,1.0,1.0,1651086180267450.0
-2.0,0.0,-7.0,1.0,-3.0,-2.0,-1.0,0.0,1651086180267450.0
-2.0,-1.0,1.0,-1.0,0.0,-1.0,-3.0,-4.0,1651086180268482.0
0.0,-4.0,3.0,-2.0,-3.0,-1.0,2.0,2.0,1651086180268482.0
-1.0,0.0,-1.0,4.0,-2.0,0.0,-2.0,0.0,1651086180281919.0
-2.0,-3.0,-5.0,-5.0,-8.0,-5.0,0.0,-2.0,1651086180281919.0
1.0,2.0,14.0,9.0,5.0,3.0,-2.0,-3.0,1651086180289105.0
1.0,-3.0,-26.0,-15.0,0.0,-1.0,-2.0,-2.0,1651086180289105.0
-1.0,14.0,18.0,4.0,-11.0,-5.0,-2.0,-2.0,1651086180304404.0
-1.0,-3.0,-14.0,-9.0,8.0,3.0,2.0,2.0,1651086180304404.0
2.0,1.0,10.0,4.0,1.0,-1.0,0.0,-1.0,1651086180305274.0
1.0,-8.0,1.0,9.0,14.0,2.0,2.0,3.0,1651086180305274.0
0.0,-7.0,-15.0,-8.0,-5.0,-3.0,-2.0,-1.0,1651086180326220.0
-2.0,4.0,13.0,0.0,-9.0,-6.0,-2.0,0.0,1651086180326220.0
-2.0,1.0,-3.0,-4.0,-3.0,1.0,3.0,-1.0,1651086180328215.0
-1.0,3.0,3.0,3.0,0.0,2.0,0.0,0.0,1651086180328215.0
0.0,-3.0,-11.0,-7.0,-4.0,-6.0,-7.0,-2.0,1651086180341410.0
-1.0,-10.0,-6.0,2.0,2.0,2.0,-1.0,0.0,1651086180341410.0
0.0,8.0,10.0,-1.0,7.0,2.0,0.0,-1.0,1651086180347636.0
1.0,4.0,7.0,9.0,-4.0,0.0,2.0,1.0,1651086180347636.0
-1.0,-8.0,-8.0,-7.0,-5.0,-5.0,-1.0,-2.0,1651086180364384.0
-1.0,1.0,3.0,1.0,-1.0,-3.0,1.0,-2.0,1651086180364384.0
-1.0,-9.0,0.0,-2.0,-3.0,2.0,1.0,-1.0,1651086180366219.0
-1.0,0.0,-11.0,-1.0,-4.0,-2.0,-1.0,0.0,1651086180366219.0
2.0,1.0,4.0,8.0,8.0,4.0,1.0,-1.0,1651086180387556.0
-2.0,-2.0,1.0,8.0,4.0,0.0,-4.0,-1.0,1651086180387556.0
1.0,-1.0,-8.0,-2.0,-4.0,0.0,0.0,2.0,1651086180388419.0
-2.0,4.0,11.0,-3.0,-3.0,0.0,-2.0,-3.0,1651086180388419.0
-1.0,-9.0,-13.0,-7.0,-1.0,-1.0,0.0,1.0,1651086180401720.0
-1.0,1.0,-1.0,7.0,4.0,-1.0,1.0,-1.0,1651086180401720.0
1.0,0.0,8.0,5.0,-3.0,-4.0,-4.0,0.0,1651086180409631.0
0.0,-7.0,-9.0,-6.0,0.0,2.0,1.0,0.0,1651086180409631.0
-1.0,3.0,2.0,4.0,-1.0,0.0,-1.0,0.0,1651086180425310.0
-1.0,-6.0,-7.0,-6.0,-3.0,2.0,-3.0,0.0,1651086180425310.0
1.0,-2.0,2.0,-5.0,1.0,-1.0,0.0,0.0,1651086180425310.0
-2.0,7.0,-4.0,-5.0,-2.0,-2.0,1.0,-2.0,1651086180425310.0
-2.0,-5.0,2.0,-6.0,-8.0,-2.0,-1.0,-2.0,1651086180447395.0
1.0,0.0,-21.0,1.0,2.0,-2.0,-1.0,-2.0,1651086180447395.0
1.0,2.0,4.0,-3.0,-4.0,1.0,-2.0,0.0,1651086180448230.0
-1.0,-1.0,5.0,7.0,4.0,1.0,2.0,2.0,1651086180448230.0
-1.0,-2.0,-2.0,-2.0,-1.0,0.0,0.0,-1.0,1651086180461411.0
-3.0,-10.0,-3.0,-10.0,-9.0,-3.0,-2.0,-1.0,1651086180461411.0
1.0,6.0,4.0,2.0,-3.0,-2.0,-1.0,1.0,1651086180468570.0
1.0,-5.0,-3.0,0.0,-3.0,-2.0,-1.0,-1.0,1651086180468570.0
0.0,2.0,2.0,10.0,7.0,2.0,2.0,0.0,1651086180484388.0
1.0,-1.0,1.0,5.0,-1.0,-2.0,-1.0,0.0,1651086180484388.0
-1.0,3.0,3.0,3.0,2.0,0.0,1.0,-1.0,1651086180485264.0
0.0,-1.0,3.0,2.0,-4.0,-3.0,-1.0,0.0,1651086180485264.0
-1.0,5.0,2.0,-3.0,-1.0,2.0,-1.0,1.0,1651086180507198.0
0.0,-16.0,-7.0,-1.0,3.0,1.0,1.0,-2.0,1651086180507198.0
-2.0,14.0,4.0,4.0,-5.0,-2.0,-2.0,-3.0,1651086180508198.0
1.0,4.0,-2.0,-8.0,-2.0,-3.0,0.0,-2.0,1651086180508198.0
0.0,2.0,1.0,4.0,3.0,4.0,3.0,0.0,1651086180521388.0
0.0,3.0,2.0,-12.0,-2.0,-1.0,0.0,1.0,1651086180521388.0
-2.0,-5.0,5.0,-4.0,0.0,-2.0,-1.0,-1.0,1651086180528504.0
-1.0,-6.0,0.0,4.0,0.0,-1.0,0.0,-2.0,1651086180528504.0
0.0,2.0,0.0,-6.0,-5.0,-3.0,-2.0,-1.0,1651086180544314.0
-1.0,3.0,0.0,0.0,-5.0,-1.0,1.0,-1.0,1651086180544314.0
-3.0,-9.0,-6.0,-5.0,1.0,2.0,-2.0,-1.0,1651086180545295.0
-3.0,5.0,4.0,3.0,3.0,1.0,-1.0,0.0,1651086180545295.0
0.0,-3.0,1.0,2.0,-2.0,-3.0,0.0,0.0,1651086180568637.0
-1.0,0.0,3.0,-4.0,1.0,0.0,-1.0,-1.0,1651086180568637.0
1.0,6.0,2.0,5.0,2.0,-1.0,0.0,0.0,1651086180569496.0
-1.0,-17.0,-8.0,-4.0,-1.0,0.0,-1.0,0.0,1651086180569496.0
-1.0,10.0,7.0,-4.0,-1.0,-1.0,-1.0,0.0,1651086180581776.0
-3.0,-2.0,0.0,-4.0,-7.0,-5.0,-3.0,0.0,1651086180581776.0
2.0,14.0,13.0,1.0,3.0,-1.0,0.0,-1.0,1651086180588883.0
-3.0,1.0,-5.0,0.0,-1.0,-1.0,-1.0,-1.0,1651086180588883.0
-1.0,-4.0,-11.0,0.0,-3.0,-3.0,-1.0,-1.0,1651086180604264.0
-2.0,-2.0,3.0,0.0,-2.0,3.0,1.0,2.0,1651086180604264.0
-1.0,-8.0,-3.0,0.0,1.0,1.0,2.0,2.0,1651086180606157.0
0.0,2.0,2.0,1.0,0.0,0.0,0.0,-1.0,1651086180606157.0
0.0,-7.0,-17.0,-8.0,-4.0,-2.0,-2.0,-2.0,1651086180626072.0
0.0,4.0,6.0,2.0,8.0,1.0,0.0,-1.0,1651086180626072.0
0.0,-1.0,-17.0,-3.0,-1.0,0.0,0.0,-1.0,1651086180628067.0
2.0,-5.0,4.0,7.0,1.0,-1.0,0.0,0.0,1651086180628067.0
-3.0,-3.0,0.0,-12.0,-2.0,-2.0,0.0,-2.0,1651086180641259.0
-1.0,2.0,-3.0,0.0,-5.0,-4.0,-1.0,-1.0,1651086180641259.0
-4.0,-6.0,8.0,7.0,2.0,2.0,-3.0,-2.0,1651086180648324.0
0.0,2.0,-4.0,1.0,5.0,2.0,1.0,0.0,1651086180648324.0
-1.0,3.0,3.0,1.0,-2.0,-2.0,-3.0,-2.0,1651086180679202.0
1.0,1.0,-5.0,-2.0,-1.0,1.0,-1.0,-1.0,1651086180679202.0
0.0,3.0,-2.0,-5.0,-2.0,-3.0,1.0,-1.0,1651086180681156.0
0.0,5.0,2.0,-3.0,-4.0,-2.0,2.0,-2.0,1651086180681156.0
0.0,0.0,2.0,1.0,3.0,2.0,0.0,0.0,1651086180686143.0
0.0,6.0,4.0,-1.0,-5.0,-1.0,0.0,0.0,1651086180686143.0
-1.0,-11.0,-11.0,3.0,4.0,2.0,0.0,-1.0,1651086180688147.0
-1.0,-1.0,0.0,-2.0,3.0,2.0,0.0,1.0,1651086180688147.0
-1.0,-2.0,-4.0,1.0,-4.0,-1.0,1.0,0.0,1651086180709168.0
-1.0,5.0,5.0,0.0,3.0,0.0,-1.0,-2.0,1651086180709168.0
-1.0,-4.0,-1.0,-5.0,-3.0,-4.0,-1.0,0.0,1651086180711166.0
-1.0,0.0,1.0,-1.0,0.0,1.0,-1.0,0.0,1651086180711166.0
-2.0,-1.0,-2.0,-1.0,1.0,2.0,0.0,0.0,1651086180724163.0
0.0,-5.0,-3.0,-1.0,-2.0,-2.0,-1.0,-1.0,1651086180724163.0
2.0,-1.0,3.0,1.0,2.0,-1.0,0.0,-1.0,1651086180726131.0
0.0,2.0,-13.0,-3.0,-6.0,-3.0,-1.0,0.0,1651086180726131.0
-1.0,-4.0,3.0,2.0,2.0,1.0,2.0,0.0,1651086180746073.0
-2.0,0.0,1.0,2.0,7.0,5.0,1.0,-1.0,1651086180746073.0
0.0,-1.0,-1.0,-2.0,-4.0,-3.0,0.0,-2.0,1651086180748068.0
-2.0,-2.0,0.0,-2.0,-5.0,-3.0,-2.0,1.0,1651086180748068.0
-2.0,-2.0,-2.0,1.0,4.0,0.0,-2.0,-2.0,1651086180760035.0
0.0,-2.0,-2.0,-2.0,-4.0,0.0,-1.0,0.0,1651086180760035.0
-2.0,-2.0,-1.0,0.0,3.0,0.0,0.0,0.0,1651086180769012.0
-2.0,-2.0,0.0,1.0,0.0,1.0,-1.0,-2.0,1651086180769012.0
1.0,-1.0,-1.0,-2.0,1.0,2.0,0.0,0.0,1651086180783972.0
-2.0,0.0,-6.0,-1.0,-2.0,-5.0,0.0,-1.0,1651086180783972.0
-3.0,0.0,7.0,-3.0,-4.0,1.0,-2.0,-3.0,1651086180785967.0
-1.0,-2.0,0.0,-3.0,-5.0,-1.0,-2.0,0.0,1651086180785967.0
2.0,-1.0,1.0,-1.0,-2.0,-6.0,-1.0,-1.0,1651086180806943.0
-1.0,1.0,0.0,2.0,5.0,4.0,0.0,1.0,1651086180806943.0
0.0,-3.0,-6.0,-1.0,-1.0,-1.0,0.0,1.0,1651086180807907.0
-2.0,-1.0,1.0,1.0,1.0,-2.0,1.0,1.0,1651086180807907.0
-1.0,2.0,1.0,1.0,-2.0,-1.0,-3.0,0.0,1651086180819918.0
-1.0,-4.0,-2.0,-3.0,-4.0,-3.0,0.0,0.0,1651086180819918.0
0.0,0.0,-1.0,-1.0,-1.0,0.0,0.0,-1.0,1651086180828850.0
-1.0,1.0,2.0,-2.0,0.0,1.0,-1.0,-1.0,1651086180828850.0
0.0,-1.0,-1.0,-1.0,-5.0,-3.0,-1.0,1.0,1651086180843838.0
0.0,0.0,0.0,-5.0,-4.0,-3.0,-1.0,-1.0,1651086180843838.0
0.0,-2.0,-1.0,0.0,2.0,-1.0,-2.0,-1.0,1651086180845833.0
1.0,0.0,0.0,3.0,7.0,2.0,2.0,-1.0,1651086180845833.0
1.0,1.0,1.0,-2.0,-2.0,0.0,1.0,1.0,1651086180866128.0
1.0,0.0,1.0,-2.0,-3.0,1.0,-1.0,0.0,1651086180866128.0
1.0,1.0,-2.0,-3.0,-6.0,-3.0,-2.0,0.0,1651086180868079.0
1.0,-2.0,-2.0,-2.0,-3.0,-2.0,-3.0,0.0,1651086180868079.0
-2.0,0.0,0.0,3.0,5.0,2.0,1.0,0.0,1651086180880089.0
-2.0,-2.0,2.0,0.0,1.0,-1.0,1.0,-1.0,1651086180880089.0
-1.0,-1.0,-3.0,-2.0,-4.0,-4.0,-1.0,1.0,1651086180889054.0
1.0,0.0,0.0,1.0,-1.0,-5.0,-3.0,-2.0,1651086180889054.0
-2.0,-2.0,0.0,3.0,6.0,7.0,0.0,0.0,1651086180904025.0
0.0,0.0,-1.0,0.0,-3.0,-2.0,-1.0,-2.0,1651086180904025.0
1.0,0.0,-1.0,1.0,-3.0,-4.0,0.0,0.0,1651086180906013.0
0.0,1.0,-2.0,-3.0,0.0,2.0,-1.0,0.0,1651086180906013.0
-1.0,-1.0,-3.0,-1.0,-2.0,-4.0,-1.0,-2.0,1651086180926964.0
1.0,-2.0,0.0,1.0,3.0,1.0,0.0,0.0,1651086180926964.0
-2.0,0.0,0.0,-3.0,-2.0,0.0,-2.0,-1.0,1651086180927936.0
0.0,1.0,0.0,-2.0,-2.0,-2.0,0.0,0.0,1651086180927936.0
0.0,-3.0,-2.0,-3.0,-3.0,-1.0,-1.0,0.0,1651086180948906.0
-1.0,3.0,2.0,-1.0,-3.0,0.0,-1.0,0.0,1651086180948906.0
-1.0,-1.0,0.0,1.0,5.0,1.0,2.0,1.0,1651086180950890.0
0.0,1.0,0.0,0.0,2.0,0.0,0.0,0.0,1651086180950890.0
0.0,0.0,-2.0,-2.0,-2.0,-1.0,-3.0,-2.0,1651086180963856.0
0.0,0.0,-2.0,-3.0,-3.0,-3.0,-1.0,0.0,1651086180963856.0
1.0,1.0,-1.0,-1.0,1.0,0.0,0.0,0.0,1651086180965855.0
-3.0,-1.0,5.0,1.0,2.0,0.0,0.0,0.0,1651086180965855.0
0.0,-3.0,-2.0,1.0,-1.0,-1.0,0.0,0.0,1651086180986798.0
-1.0,-1.0,-2.0,-1.0,-1.0,0.0,0.0,1.0,1651086180986798.0
0.0,0.0,2.0,1.0,1.0,-1.0,0.0,-1.0,1651086180987792.0
-1.0,-2.0,-4.0,0.0,0.0,0.0,-1.0,-2.0,1651086180987792.0
-1.0,3.0,5.0,-1.0,-3.0,-2.0,0.0,0.0,1651086180999823.0
0.0,-2.0,-1.0,-1.0,-3.0,-1.0,-2.0,0.0,1651086180999823.0
-2.0,-1.0,-4.0,-1.0,-1.0,1.0,0.0,0.0,1651086181016891.0
-1.0,0.0,4.0,3.0,1.0,1.0,-1.0,-1.0,1651086181016891.0
0.0,-5.0,-2.0,-1.0,-1.0,-3.0,0.0,-1.0,1651086181023892.0
-2.0,-4.0,-2.0,-1.0,1.0,0.0,-1.0,-2.0,1651086181023892.0
0.0,-1.0,-1.0,-2.0,-5.0,-3.0,0.0,1.0,1651086181025848.0
-1.0,0.0,-1.0,1.0,2.0,2.0,-2.0,-2.0,1651086181025848.0
1.0,2.0,-1.0,-1.0,4.0,0.0,2.0,0.0,1651086181047002.0
-3.0,-3.0,-2.0,-2.0,-1.0,0.0,1.0,-1.0,1651086181047002.0
0.0,-3.0,-1.0,-3.0,-3.0,-2.0,-2.0,-2.0,1651086181047916.0
2.0,0.0,-2.0,-3.0,-4.0,-2.0,1.0,-1.0,1651086181047916.0
-1.0,0.0,-5.0,-2.0,-3.0,-4.0,-1.0,0.0,1651086181059963.0
-1.0,2.0,4.0,3.0,5.0,3.0,0.0,-2.0,1651086181059963.0
-2.0,-3.0,-7.0,2.0,5.0,4.0,2.0,0.0,1651086181075212.0
0.0,4.0,-1.0,-3.0,-3.0,-1.0,-2.0,0.0,1651086181075212.0
0.0,-1.0,2.0,0.0,0.0,0.0,0.0,-1.0,1651086181084366.0
1.0,1.0,1.0,0.0,0.0,-1.0,0.0,1.0,1651086181084366.0
-2.0,0.0,1.0,-1.0,-2.0,1.0,0.0,0.0,1651086181085271.0
0.0,-3.0,0.0,1.0,-1.0,0.0,-2.0,0.0,1651086181085271.0
0.0,-3.0,-2.0,-3.0,-2.0,-1.0,-2.0,-1.0,1651086181106252.0
1.0,0.0,0.0,-1.0,-4.0,-3.0,-3.0,0.0,1651086181106252.0
0.0,-2.0,-1.0,0.0,2.0,0.0,0.0,1.0,1651086181108153.0
-1.0,-2.0,0.0,0.0,2.0,-1.0,1.0,-2.0,1651086181108153.0
-1.0,-1.0,0.0,-1.0,-4.0,0.0,-1.0,1.0,1651086181120767.0
-1.0,-6.0,-1.0,0.0,0.0,2.0,-1.0,0.0,1651086181120767.0
1.0,9.0,2.0,0.0,-4.0,-4.0,-3.0,-3.0,1651086181129098.0
0.0,-5.0,-2.0,-1.0,0.0,2.0,1.0,0.0,1651086181129098.0
0.0,0.0,-2.0,1.0,6.0,3.0,0.0,-2.0,1651086181144383.0
0.0,0.0,-1.0,0.0,-1.0,-3.0,-1.0,1.0,1651086181144383.0
-3.0,-4.0,1.0,2.0,2.0,1.0,-1.0,0.0,1651086181145283.0
-1.0,1.0,-2.0,-2.0,-6.0,-5.0,-1.0,0.0,1651086181145283.0
-2.0,1.0,1.0,1.0,3.0,0.0,0.0,-1.0,1651086181167134.0
-1.0,-1.0,-2.0,0.0,1.0,0.0,0.0,-1.0,1651086181167134.0
1.0,-2.0,0.0,-4.0,-3.0,-3.0,0.0,-3.0,1651086181168159.0
-1.0,0.0,1.0,1.0,-1.0,1.0,-1.0,0.0,1651086181168159.0
-1.0,-1.0,-1.0,0.0,-1.0,0.0,0.0,-1.0,1651086181189194.0
-1.0,-1.0,-1.0,-1.0,-1.0,0.0,0.0,0.0,1651086181189194.0
0.0,0.0,-3.0,-1.0,-5.0,-3.0,0.0,-2.0,1651086181190194.0
-1.0,3.0,2.0,-1.0,-2.0,-1.0,0.0,0.0,1651086181190194.0
-3.0,-3.0,-8.0,-1.0,2.0,1.0,-2.0,-1.0,1651086181204250.0
-1.0,0.0,1.0,2.0,1.0,-1.0,1.0,1.0,1651086181204250.0
0.0,-3.0,-4.0,-2.0,-2.0,-1.0,-1.0,-1.0,1651086181210204.0
1.0,-1.0,-1.0,0.0,-5.0,0.0,2.0,-1.0,1651086181210204.0
0.0,2.0,1.0,3.0,5.0,1.0,-1.0,1.0,1651086181226203.0
0.0,2.0,-1.0,-6.0,-2.0,-2.0,-1.0,-1.0,1651086181226203.0
0.0,-3.0,-2.0,-2.0,-2.0,-3.0,-1.0,1.0,1651086181228198.0
0.0,3.0,-1.0,1.0,0.0,1.0,0.0,1.0,1651086181228198.0
0.0,-2.0,2.0,-3.0,-4.0,-3.0,-1.0,-1.0,1651086181249384.0
-1.0,1.0,2.0,2.0,-3.0,-3.0,0.0,-2.0,1651086181249384.0
1.0,1.0,4.0,2.0,2.0,4.0,0.0,1.0,1651086181250383.0
-2.0,-5.0,-1.0,0.0,1.0,-1.0,-1.0,-1.0,1651086181250383.0
0.0,-1.0,-2.0,0.0,0.0,0.0,0.0,1.0,1651086181264357.0
-1.0,-5.0,-3.0,-3.0,-2.0,-2.0,-1.0,-1.0,1651086181264357.0
-3.0,3.0,-1.0,-2.0,-3.0,-4.0,-2.0,-1.0,1651086181265246.0
-2.0,-1.0,2.0,3.0,5.0,4.0,2.0,0.0,1651086181265246.0
-1.0,-2.0,-4.0,-3.0,-4.0,-1.0,-1.0,0.0,1651086181287677.0
1.0,-1.0,2.0,0.0,-3.0,-2.0,-1.0,1.0,1651086181287677.0
1.0,-5.0,-15.0,-1.0,-1.0,-1.0,0.0,0.0,1651086181288681.0
-1.0,-1.0,1.0,-1.0,-1.0,-1.0,-1.0,-2.0,1651086181288681.0
1.0,-2.0,1.0,-1.0,-3.0,-3.0,-1.0,-1.0,1651086181308704.0
0.0,4.0,2.0,-1.0,-2.0,1.0,0.0,1.0,1651086181308704.0
-1.0,-4.0,4.0,1.0,5.0,3.0,1.0,-1.0,1651086181310704.0
0.0,1.0,-3.0,0.0,-4.0,-2.0,-1.0,-1.0,1651086181310704.0
-1.0,1.0,3.0,5.0,10.0,1.0,0.0,-1.0,1651086181323239.0
-1.0,-3.0,-3.0,0.0,-4.0,3.0,0.0,-1.0,1651086181323239.0
-1.0,2.0,3.0,2.0,5.0,1.0,0.0,-1.0,1651086181331162.0
-1.0,-2.0,-1.0,-3.0,-2.0,-4.0,-1.0,-1.0,1651086181331162.0
0.0,1.0,-3.0,-4.0,-9.0,-5.0,-3.0,0.0,1651086181346998.0
1.0,0.0,0.0,3.0,8.0,1.0,0.0,0.0,1651086181346998.0
-1.0,-5.0,-1.0,1.0,-1.0,3.0,0.0,-1.0,1651086181347952.0
-3.0,-5.0,-1.0,0.0,0.0,-1.0,-2.0,-1.0,1651086181347952.0
0.0,-1.0,-4.0,-1.0,-4.0,-3.0,-2.0,0.0,1651086181369674.0
0.0,5.0,8.0,1.0,0.0,1.0,-1.0,-1.0,1651086181369674.0
0.0,1.0,-2.0,-4.0,-6.0,-1.0,1.0,0.0,1651086181370675.0
-2.0,1.0,-3.0,-2.0,4.0,-1.0,-1.0,-2.0,1651086181370675.0
1.0,3.0,11.0,3.0,4.0,5.0,3.0,1.0,1651086181384397.0
-1.0,-2.0,-7.0,-2.0,-4.0,-6.0,-3.0,-2.0,1651086181384397.0
-1.0,1.0,2.0,-2.0,-2.0,-2.0,0.0,0.0,1651086181390392.0
0.0,-3.0,-2.0,-3.0,-5.0,-2.0,0.0,-1.0,1651086181390392.0
-1.0,3.0,3.0,1.0,2.0,0.0,-1.0,-1.0,1651086181406244.0
-1.0,-5.0,-5.0,-5.0,1.0,-1.0,0.0,0.0,1651086181406244.0
0.0,-1.0,1.0,3.0,0.0,0.0,0.0,2.0,1651086181414200.0
0.0,-3.0,-5.0,-2.0,0.0,-1.0,-2.0,-1.0,1651086181414200.0
-2.0,-1.0,3.0,0.0,-4.0,-1.0,-1.0,-1.0,1651086181429229.0
0.0,3.0,0.0,2.0,3.0,3.0,0.0,-1.0,1651086181429229.0
-1.0,0.0,-3.0,-1.0,1.0,-2.0,-1.0,0.0,1651086181430230.0
1.0,2.0,5.0,0.0,1.0,0.0,-1.0,1.0,1651086181430230.0
1.0,1.0,-2.0,-2.0,-2.0,-1.0,-1.0,1.0,1651086181443359.0
0.0,-2.0,-4.0,-3.0,-5.0,-2.0,-1.0,-1.0,1651086181443359.0
0.0,1.0,-1.0,-4.0,-5.0,-6.0,-3.0,-1.0,1651086181450678.0
0.0,2.0,-1.0,0.0,1.0,4.0,-1.0,0.0,1651086181450678.0
-2.0,6.0,-1.0,-5.0,-3.0,-1.0,0.0,-1.0,1651086181466204.0
-1.0,-5.0,6.0,5.0,6.0,5.0,0.0,1.0,1651086181466204.0
-3.0,-6.0,-7.0,5.0,6.0,4.0,1.0,-2.0,1651086181468566.0
1.0,1.0,0.0,-3.0,-3.0,-4.0,0.0,1.0,1651086181468566.0
0.0,-3.0,-2.0,-2.0,-4.0,-1.0,-2.0,-2.0,1651086181489216.0
-1.0,3.0,-2.0,-4.0,-8.0,-5.0,-3.0,-2.0,1651086181489216.0
-1.0,-5.0,0.0,-2.0,-2.0,1.0,0.0,0.0,1651086181490215.0
0.0,6.0,6.0,7.0,12.0,5.0,0.0,-1.0,1651086181490215.0
1.0,-4.0,-6.0,-4.0,-6.0,-2.0,0.0,-1.0,1651086181503545.0
-1.0,-6.0,-1.0,-1.0,-2.0,-1.0,1.0,0.0,1651086181503545.0
0.0,8.0,2.0,-4.0,-2.0,-1.0,-1.0,-3.0,1651086181510384.0
-1.0,-4.0,-6.0,-2.0,-7.0,-4.0,-2.0,0.0,1651086181510384.0
-2.0,2.0,2.0,7.0,10.0,3.0,1.0,-1.0,1651086181526213.0
0.0,-2.0,-4.0,-5.0,-4.0,-2.0,-1.0,-1.0,1651086181526213.0
0.0,-1.0,2.0,1.0,1.0,0.0,0.0,-1.0,1651086181528208.0
1.0,-1.0,-1.0,-4.0,-4.0,0.0,1.0,1.0,1651086181528208.0
0.0,-2.0,-2.0,-2.0,-5.0,-2.0,0.0,1.0,1651086181549468.0
-2.0,0.0,-1.0,1.0,2.0,0.0,0.0,-2.0,1651086181549468.0
-2.0,0.0,-4.0,1.0,-1.0,1.0,2.0,0.0,1651086181550413.0
-2.0,-3.0,-2.0,-1.0,2.0,2.0,-3.0,0.0,1651086181550413.0
1.0,4.0,-2.0,-3.0,-4.0,-4.0,0.0,1.0,1651086181563557.0
0.0,-2.0,6.0,1.0,4.0,-2.0,0.0,0.0,1651086181563557.0
-1.0,-8.0,2.0,0.0,0.0,1.0,-1.0,-2.0,1651086181570571.0
-1.0,6.0,-4.0,-4.0,-13.0,-4.0,0.0,-2.0,1651086181570571.0
-2.0,-12.0,-3.0,20.0,27.0,7.0,1.0,0.0,1651086181586346.0
-1.0,1.0,-7.0,-2.0,1.0,1.0,0.0,0.0,1651086181586346.0
0.0,3.0,6.0,2.0,-2.0,-2.0,0.0,0.0,1651086181588200.0
0.0,-3.0,-1.0,-4.0,0.0,-1.0,2.0,0.0,1651086181588200.0
0.0,0.0,0.0,-5.0,-4.0,1.0,-1.0,0.0,1651086181609144.0
-1.0,-2.0,-2.0,1.0,1.0,0.0,-2.0,1.0,1651086181609144.0
0.0,1.0,3.0,-5.0,-9.0,-3.0,-2.0,-1.0,1651086181611179.0
0.0,-7.0,-15.0,-1.0,6.0,-2.0,-2.0,-3.0,1651086181611179.0
1.0,-2.0,0.0,2.0,-8.0,-1.0,0.0,-1.0,1651086181631393.0
-3.0,-8.0,-1.0,-6.0,3.0,-3.0,0.0,-1.0,1651086181631393.0
2.0,-8.0,0.0,1.0,5.0,4.0,0.0,2.0,1651086181633391.0
-1.0,19.0,4.0,-9.0,-23.0,-9.0,-2.0,-1.0,1651086181633391.0
-1.0,-6.0,1.0,19.0,29.0,7.0,2.0,0.0,1651086181647413.0
1.0,2.0,-6.0,-3.0,-4.0,7.0,3.0,1.0,1651086181647413.0
0.0,-1.0,0.0,-3.0,-5.0,-5.0,0.0,-3.0,1651086181648266.0
-2.0,-3.0,9.0,4.0,6.0,0.0,2.0,0.0,1651086181648266.0
0.0,-1.0,2.0,-9.0,-18.0,-5.0,-2.0,-2.0,1651086181669651.0
-1.0,4.0,-9.0,-1.0,-3.0,-2.0,-4.0,-2.0,1651086181669651.0
0.0,2.0,-2.0,-4.0,4.0,4.0,1.0,2.0,1651086181670653.0
-1.0,-6.0,-2.0,1.0,-1.0,-2.0,1.0,-1.0,1651086181670653.0
-2.0,3.0,-2.0,-9.0,-10.0,-3.0,-1.0,0.0,1651086181682553.0
-1.0,0.0,3.0,2.0,2.0,-4.0,-1.0,-1.0,1651086181682553.0
-1.0,0.0,-4.0,0.0,-4.0,-3.0,-2.0,-2.0,1651086181697400.0
-1.0,-12.0,-1.0,2.0,2.0,2.0,1.0,0.0,1651086181697400.0
0.0,6.0,-4.0,-9.0,-8.0,0.0,-2.0,0.0,1651086181706538.0
0.0,5.0,12.0,11.0,2.0,-4.0,-2.0,-2.0,1651086181706538.0
-1.0,0.0,-6.0,12.0,28.0,10.0,1.0,1.0,1651086181714375.0
0.0,-5.0,3.0,-9.0,-8.0,-1.0,-2.0,-1.0,1651086181714375.0
-1.0,-4.0,-1.0,3.0,-7.0,-4.0,-1.0,-1.0,1651086181729245.0
0.0,1.0,11.0,-4.0,3.0,-1.0,1.0,0.0,1651086181729245.0
-1.0,5.0,-12.0,-5.0,-5.0,1.0,-2.0,0.0,1651086181730245.0
1.0,7.0,-3.0,0.0,0.0,-1.0,1.0,-1.0,1651086181730245.0
-1.0,-8.0,-3.0,-4.0,2.0,-2.0,-3.0,-3.0,1651086181752644.0
0.0,-1.0,-9.0,-14.0,-26.0,-10.0,-6.0,-3.0,1651086181752644.0
-2.0,2.0,10.0,4.0,-17.0,-9.0,0.0,-1.0,1651086181752920.0
1.0,-14.0,0.0,11.0,33.0,12.0,2.0,2.0,1651086181752920.0
0.0,7.0,-2.0,-12.0,-5.0,-4.0,0.0,-2.0,1651086181766927.0
0.0,-2.0,-1.0,9.0,7.0,7.0,2.0,3.0,1651086181766927.0
-2.0,4.0,9.0,1.0,3.0,-2.0,-2.0,-4.0,1651086181767917.0
-1.0,-5.0,-4.0,-9.0,-16.0,-6.0,-5.0,-2.0,1651086181767917.0
-1.0,4.0,4.0,-6.0,-9.0,-3.0,0.0,-1.0,1651086181788869.0
1.0,4.0,-3.0,3.0,5.0,2.0,-2.0,-1.0,1651086181788869.0
-2.0,-10.0,3.0,-4.0,-8.0,-2.0,0.0,-2.0,1651086181790821.0
-1.0,1.0,-10.0,-4.0,-3.0,-1.0,-1.0,0.0,1651086181790821.0
-2.0,-3.0,-17.0,-15.0,-8.0,-3.0,-2.0,-1.0,1651086181802789.0
-1.0,-5.0,3.0,20.0,21.0,4.0,3.0,0.0,1651086181802789.0
1.0,3.0,10.0,17.0,18.0,12.0,3.0,3.0,1651086181811765.0
-1.0,2.0,12.0,8.0,4.0,0.0,0.0,-2.0,1651086181811765.0
1.0,-4.0,-2.0,-11.0,2.0,3.0,-1.0,1.0,1651086181826768.0
0.0,3.0,-14.0,-26.0,-16.0,-4.0,0.0,-1.0,1651086181826768.0
0.0,2.0,12.0,9.0,13.0,5.0,2.0,1.0,1651086181827766.0
-1.0,0.0,-8.0,-6.0,-1.0,0.0,-2.0,-2.0,1651086181827766.0
0.0,1.0,4.0,-2.0,-8.0,-1.0,0.0,-1.0,1651086181848829.0
-2.0,-1.0,1.0,-9.0,-16.0,-13.0,-3.0,-1.0,1651086181848829.0
1.0,-1.0,-4.0,15.0,14.0,3.0,0.0,0.0,1651086181850661.0
-1.0,1.0,-1.0,0.0,5.0,6.0,3.0,1.0,1651086181850661.0
-2.0,-8.0,-9.0,-1.0,-9.0,-6.0,-3.0,-1.0,1651086181863062.0
-1.0,-6.0,1.0,1.0,-10.0,-6.0,-1.0,-2.0,1651086181863062.0
1.0,2.0,-2.0,-22.0,-14.0,0.0,-2.0,-1.0,1651086181871513.0
-1.0,11.0,10.0,9.0,9.0,5.0,2.0,0.0,1651086181871513.0
0.0,-3.0,-4.0,9.0,9.0,0.0,0.0,0.0,1651086181888861.0
0.0,-4.0,-12.0,-11.0,6.0,7.0,1.0,1.0,1651086181888861.0
0.0,2.0,1.0,1.0,-14.0,-8.0,-2.0,-1.0,1651086181889699.0
-2.0,-4.0,-2.0,-2.0,-11.0,-6.0,-3.0,0.0,1651086181889699.0
0.0,3.0,19.0,11.0,10.0,6.0,3.0,-1.0,1651086181908718.0
1.0,5.0,-2.0,1.0,-7.0,-2.0,1.0,0.0,1651086181908718.0
-2.0,-14.0,-11.0,-10.0,-2.0,-2.0,-2.0,-2.0,1651086181910712.0
2.0,14.0,8.0,-1.0,6.0,3.0,1.0,0.0,1651086181910712.0
-3.0,0.0,-4.0,23.0,17.0,1.0,0.0,-1.0,1651086181923234.0
-1.0,1.0,7.0,-10.0,-4.0,1.0,-1.0,-1.0,1651086181923234.0
-1.0,1.0,-16.0,-12.0,-12.0,-6.0,-1.0,-1.0,1651086181931258.0
-3.0,-6.0,11.0,17.0,3.0,-1.0,-1.0,-2.0,1651086181931258.0
1.0,4.0,-5.0,-17.0,-22.0,-7.0,-3.0,-1.0,1651086181947485.0
-1.0,-6.0,0.0,6.0,12.0,3.0,1.0,1.0,1651086181947485.0
0.0,9.0,13.0,15.0,21.0,8.0,2.0,1.0,1651086181948323.0
-2.0,-4.0,-44.0,-31.0,-17.0,-6.0,-1.0,-2.0,1651086181948323.0
-1.0,-9.0,-3.0,4.0,9.0,5.0,0.0,0.0,1651086181970307.0
0.0,0.0,6.0,4.0,-4.0,-1.0,-1.0,-1.0,1651086181970307.0
-1.0,0.0,4.0,-4.0,-15.0,-6.0,0.0,-1.0,1651086181970307.0
-1.0,-1.0,-9.0,5.0,-5.0,-5.0,-3.0,-3.0,1651086181970307.0
1.0,5.0,1.0,-15.0,-20.0,-6.0,-1.0,-2.0,1651086181983331.0
-2.0,-7.0,-11.0,-9.0,0.0,-2.0,-1.0,-1.0,1651086181983331.0
-2.0,0.0,31.0,24.0,5.0,3.0,3.0,0.0,1651086182008542.0
2.0,0.0,-8.0,-4.0,-9.0,-4.0,-1.0,-1.0,1651086182008542.0
0.0,1.0,25.0,12.0,4.0,-1.0,-1.0,1.0,1651086182009547.0
0.0,-1.0,-11.0,-13.0,-2.0,-2.0,-3.0,-2.0,1651086182009547.0
0.0,-1.0,-8.0,-6.0,-4.0,-3.0,2.0,0.0,1651086182012569.0
-3.0,-2.0,-1.0,1.0,7.0,3.0,2.0,0.0,1651086182012569.0
-4.0,-1.0,-6.0,-15.0,-22.0,-7.0,-5.0,-4.0,1651086182029180.0
2.0,3.0,4.0,18.0,34.0,15.0,4.0,3.0,1651086182029180.0
-2.0,0.0,4.0,6.0,-9.0,-4.0,-2.0,-1.0,1651086182030218.0
-1.0,-2.0,16.0,6.0,6.0,-3.0,-1.0,0.0,1651086182030218.0
1.0,6.0,16.0,9.0,11.0,4.0,1.0,2.0,1651086182043244.0
0.0,-2.0,-9.0,3.0,2.0,0.0,3.0,-2.0,1651086182043244.0
-2.0,-6.0,-6.0,-12.0,-6.0,-6.0,-5.0,-3.0,1651086182052170.0
1.0,-1.0,-27.0,-14.0,-12.0,2.0,3.0,2.0,1651086182052170.0
-2.0,0.0,7.0,2.0,-2.0,-2.0,0.0,-1.0,1651086182067383.0
0.0,2.0,18.0,0.0,5.0,-3.0,-5.0,-1.0,1651086182067383.0
-1.0,-1.0,-39.0,-18.0,-4.0,0.0,2.0,0.0,1651086182068216.0
-1.0,3.0,46.0,37.0,10.0,8.0,5.0,-1.0,1651086182068216.0
0.0,-1.0,-11.0,3.0,-1.0,0.0,6.0,3.0,1651086182090301.0
-1.0,-2.0,-3.0,-7.0,-8.0,-3.0,-5.0,-2.0,1651086182090301.0
1.0,3.0,2.0,-27.0,-4.0,-2.0,0.0,2.0,1651086182090301.0
-9.0,-6.0,-15.0,-4.0,0.0,0.0,-3.0,-3.0,1651086182090301.0
4.0,-4.0,-4.0,0.0,4.0,-4.0,-6.0,-1.0,1651086182103239.0
1.0,0.0,20.0,18.0,-6.0,-1.0,3.0,0.0,1651086182103239.0
-3.0,-1.0,1.0,2.0,1.0,1.0,-1.0,-1.0,1651086182111589.0
-9.0,-1.0,19.0,5.0,0.0,-7.0,-3.0,-4.0,1651086182111589.0
9.0,3.0,-21.0,-9.0,4.0,-4.0,-3.0,1.0,1651086182126233.0
8.0,-2.0,-12.0,-2.0,-8.0,-4.0,-11.0,8.0,1651086182126233.0
0.0,-2.0,-45.0,-25.0,-2.0,-1.0,-7.0,-22.0,1651086182128228.0
-3.0,-7.0,24.0,16.0,0.0,0.0,12.0,16.0,1651086182128228.0
-7.0,-6.0,-18.0,-25.0,-3.0,3.0,-3.0,-11.0,1651086182149438.0
-1.0,3.0,25.0,15.0,0.0,3.0,5.0,4.0,1651086182149438.0
14.0,-4.0,-40.0,-14.0,-3.0,1.0,5.0,6.0,1651086182150457.0
-8.0,0.0,2.0,-10.0,-3.0,1.0,0.0,7.0,1651086182150457.0
-7.0,-1.0,6.0,17.0,8.0,12.0,14.0,-4.0,1651086182172514.0
-7.0,-2.0,-22.0,-19.0,-4.0,-6.0,-5.0,-3.0,1651086182172514.0
11.0,6.0,57.0,49.0,5.0,-2.0,-5.0,2.0,1651086182173060.0
5.0,-2.0,-55.0,-53.0,-6.0,-1.0,-1.0,-10.0,1651086182173060.0
2.0,5.0,20.0,23.0,4.0,-3.0,-1.0,15.0,1651086182187090.0
-9.0,3.0,1.0,6.0,-1.0,5.0,4.0,-7.0,1651086182187090.0
-12.0,-7.0,-4.0,-4.0,-2.0,-10.0,-5.0,3.0,1651086182188127.0
6.0,-1.0,-7.0,0.0,2.0,-4.0,-8.0,-13.0,1651086182188127.0
-4.0,-1.0,-5.0,-7.0,0.0,9.0,3.0,6.0,1651086182209217.0
1.0,0.0,3.0,8.0,-4.0,-1.0,0.0,-2.0,1651086182209217.0
-5.0,-5.0,3.0,-6.0,7.0,0.0,-5.0,-5.0,1651086182210247.0
7.0,2.0,12.0,8.0,1.0,3.0,8.0,3.0,1651086182210247.0
7.0,-3.0,-5.0,-36.0,-1.0,-3.0,-2.0,0.0,1651086182232674.0
-5.0,-9.0,-27.0,7.0,-9.0,-17.0,-20.0,1.0,1651086182232674.0
1.0,-3.0,14.0,3.0,-1.0,12.0,9.0,-19.0,1651086182233519.0
-9.0,3.0,11.0,24.0,1.0,-4.0,-8.0,10.0,1651086182233519.0
5.0,0.0,9.0,7.0,-1.0,-2.0,-3.0,-5.0,1651086182254382.0
5.0,3.0,10.0,-3.0,0.0,6.0,9.0,5.0,1651086182254382.0
-11.0,-2.0,-15.0,-6.0,-1.0,1.0,2.0,14.0,1651086182255248.0
13.0,-2.0,1.0,-7.0,-2.0,-6.0,-8.0,-2.0,1651086182255248.0
-4.0,0.0,8.0,6.0,-3.0,0.0,0.0,-5.0,1651086182276217.0
-2.0,-4.0,3.0,15.0,10.0,4.0,7.0,0.0,1651086182276217.0
0.0,4.0,4.0,-6.0,-6.0,-6.0,1.0,14.0,1651086182278603.0
1.0,-6.0,-27.0,-25.0,-2.0,2.0,1.0,-7.0,1651086182278603.0
-9.0,2.0,-13.0,6.0,0.0,1.0,0.0,1.0,1651086182291393.0
2.0,-2.0,4.0,7.0,2.0,6.0,6.0,-8.0,1651086182291393.0
2.0,9.0,22.0,10.0,5.0,-4.0,-2.0,4.0,1651086182293226.0
-3.0,-5.0,-14.0,-9.0,1.0,-1.0,-5.0,-2.0,1651086182293226.0
1.0,3.0,0.0,-9.0,0.0,-2.0,-1.0,-18.0,1651086182305397.0
-13.0,-7.0,6.0,-13.0,-8.0,-1.0,-2.0,-4.0,1651086182305397.0
0.0,9.0,-6.0,20.0,5.0,2.0,-2.0,3.0,1651086182314375.0
-1.0,0.0,1.0,-13.0,-6.0,-1.0,0.0,-2.0,1651086182314375.0
-2.0,0.0,9.0,9.0,-1.0,-3.0,-3.0,2.0,1651086182329367.0
3.0,-1.0,-9.0,-1.0,-7.0,-6.0,-1.0,0.0,1651086182329367.0
-4.0,-7.0,-2.0,-18.0,5.0,2.0,-1.0,-5.0,1651086182336355.0
-1.0,1.0,1.0,11.0,7.0,7.0,5.0,5.0,1651086182336355.0
-12.0,-5.0,19.0,3.0,-7.0,-7.0,-4.0,-4.0,1651086182352657.0
12.0,8.0,-11.0,13.0,12.0,8.0,10.0,2.0,1651086182352657.0
-9.0,-1.0,-7.0,-10.0,-7.0,-7.0,-7.0,2.0,1651086182353065.0
2.0,-1.0,-7.0,-11.0,-7.0,-8.0,-8.0,-6.0,1651086182353065.0
4.0,0.0,0.0,12.0,10.0,7.0,0.0,0.0,1651086182365231.0
-4.0,1.0,-3.0,-17.0,0.0,0.0,0.0,-1.0,1651086182365231.0
5.0,0.0,-4.0,3.0,-4.0,2.0,4.0,-5.0,1651086182374457.0
-6.0,1.0,14.0,10.0,2.0,-1.0,-5.0,-6.0,1651086182374457.0
7.0,-5.0,-25.0,-32.0,-9.0,-1.0,0.0,6.0,1651086182389254.0
-10.0,1.0,14.0,30.0,0.0,-1.0,-2.0,-7.0,1651086182389254.0
3.0,-4.0,0.0,-6.0,1.0,0.0,5.0,7.0,1651086182390286.0
3.0,2.0,-13.0,-4.0,-5.0,-4.0,-2.0,-2.0,1651086182390286.0
2.0,-1.0,-3.0,5.0,1.0,-2.0,1.0,4.0,1651086182412475.0
2.0,-2.0,-3.0,-16.0,-1.0,3.0,5.0,-1.0,1651086182412475.0
-1.0,-3.0,24.0,12.0,1.0,4.0,6.0,3.0,1651086182413060.0
1.0,-9.0,-33.0,0.0,-3.0,-8.0,-9.0,1.0,1651086182413060.0
-10.0,6.0,14.0,11.0,3.0,0.0,4.0,8.0,1651086182425174.0
-3.0,-3.0,-33.0,-14.0,-1.0,-5.0,-5.0,5.0,1651086182425174.0
-9.0,6.0,24.0,13.0,-5.0,-1.0,3.0,1.0,1651086182434334.0
3.0,0.0,14.0,0.0,4.0,2.0,1.0,-4.0,1651086182434334.0
6.0,-6.0,-11.0,1.0,5.0,2.0,2.0,-3.0,1651086182449507.0
1.0,8.0,4.0,-13.0,-7.0,-4.0,-3.0,17.0,1651086182449507.0
-6.0,-11.0,0.0,15.0,6.0,1.0,-3.0,-10.0,1651086182450507.0
3.0,6.0,10.0,3.0,1.0,5.0,6.0,5.0,1651086182450507.0
-4.0,-4.0,-29.0,-13.0,-9.0,-12.0,-11.0,-6.0,1651086182472708.0
-1.0,0.0,20.0,6.0,3.0,2.0,2.0,-6.0,1651086182472708.0
7.0,2.0,-12.0,-2.0,-5.0,-1.0,-2.0,-2.0,1651086182473062.0
1.0,7.0,40.0,31.0,15.0,5.0,6.0,11.0,1651086182473062.0
3.0,4.0,-1.0,8.0,-3.0,-3.0,-2.0,-7.0,1651086182486040.0
-6.0,-4.0,5.0,-20.0,-12.0,-5.0,-5.0,-8.0,1651086182486040.0
0.0,-1.0,-10.0,-2.0,3.0,-4.0,-6.0,3.0,1651086182494337.0
-4.0,2.0,-2.0,-2.0,-9.0,-2.0,2.0,-13.0,1651086182494337.0
-3.0,-2.0,-9.0,7.0,5.0,1.0,-1.0,-2.0,1651086182509538.0
0.0,-1.0,-9.0,-17.0,-2.0,-3.0,-2.0,-2.0,1651086182509538.0
3.0,6.0,-4.0,3.0,-5.0,-1.0,-2.0,2.0,1651086182510507.0
3.0,-5.0,10.0,-5.0,1.0,1.0,-3.0,3.0,1651086182510507.0
7.0,1.0,-6.0,-6.0,2.0,-2.0,-1.0,0.0,1651086182532390.0
3.0,-2.0,-13.0,-8.0,0.0,4.0,7.0,6.0,1651086182532390.0
-6.0,-7.0,9.0,8.0,-9.0,-14.0,-20.0,-32.0,1651086182533232.0
3.0,9.0,22.0,7.0,-1.0,-1.0,-1.0,9.0,1651086182533232.0
0.0,3.0,14.0,12.0,6.0,5.0,5.0,3.0,1651086182546357.0
-6.0,-7.0,-11.0,-23.0,-5.0,-3.0,-6.0,-5.0,1651086182546357.0
1.0,0.0,1.0,17.0,4.0,4.0,6.0,-1.0,1651086182553216.0
-1.0,0.0,-6.0,2.0,-3.0,-1.0,2.0,3.0,1651086182553216.0
-6.0,-7.0,7.0,-2.0,4.0,-2.0,-5.0,-6.0,1651086182569218.0
-3.0,3.0,15.0,23.0,2.0,0.0,0.0,-1.0,1651086182569218.0
7.0,7.0,1.0,-27.0,-1.0,9.0,11.0,10.0,1651086182570242.0
-8.0,-7.0,-17.0,6.0,-1.0,-5.0,-4.0,-4.0,1651086182570242.0
0.0,-6.0,8.0,-7.0,0.0,4.0,4.0,5.0,1651086182591807.0
3.0,8.0,22.0,4.0,-1.0,-1.0,-1.0,-1.0,1651086182591807.0
-6.0,-9.0,-10.0,-13.0,-3.0,-5.0,-3.0,-1.0,1651086182593213.0
5.0,-1.0,-12.0,-12.0,0.0,1.0,-3.0,-5.0,1651086182593213.0
0.0,5.0,-19.0,-20.0,-2.0,1.0,2.0,11.0,1651086182606323.0
13.0,-5.0,23.0,42.0,7.0,-2.0,-1.0,3.0,1651086182606323.0
1.0,0.0,-4.0,-17.0,-6.0,-1.0,-2.0,13.0,1651086182614303.0
-5.0,8.0,-10.0,0.0,-3.0,-1.0,-1.0,-5.0,1651086182614303.0
-7.0,-2.0,-12.0,-3.0,-3.0,-5.0,-7.0,-12.0,1651086182629552.0
1.0,-1.0,16.0,6.0,-3.0,-1.0,-1.0,0.0,1651086182629552.0
5.0,1.0,-6.0,6.0,12.0,4.0,6.0,2.0,1651086182630552.0
-7.0,-16.0,0.0,-6.0,-3.0,1.0,4.0,1.0,1651086182630552.0
3.0,11.0,-6.0,5.0,-1.0,1.0,-3.0,0.0,1651086182652508.0
-1.0,-8.0,-11.0,-11.0,-6.0,-4.0,1.0,-10.0,1651086182652508.0
-2.0,7.0,7.0,-7.0,1.0,0.0,-1.0,0.0,1651086182653062.0
4.0,-6.0,2.0,-4.0,-3.0,1.0,4.0,8.0,1651086182653062.0
-1.0,0.0,27.0,28.0,2.0,-1.0,-3.0,-20.0,1651086182665391.0
-11.0,-6.0,-24.0,-5.0,-3.0,-2.0,-2.0,-4.0,1651086182665391.0
-2.0,-3.0,-8.0,0.0,1.0,-1.0,-1.0,-2.0,1651086182674229.0
10.0,5.0,16.0,7.0,-1.0,1.0,4.0,3.0,1651086182674229.0
2.0,1.0,0.0,-10.0,-5.0,-5.0,-3.0,9.0,1651086182689238.0
7.0,-2.0,12.0,-6.0,-1.0,4.0,4.0,-7.0,1651086182689238.0
-11.0,-7.0,-42.0,-10.0,-2.0,-2.0,-5.0,-8.0,1651086182690271.0
3.0,0.0,-22.0,-45.0,-12.0,-4.0,1.0,22.0,1651086182690271.0
-6.0,-11.0,21.0,44.0,2.0,-4.0,-11.0,-13.0,1651086182712513.0
-3.0,8.0,7.0,-8.0,-3.0,-4.0,-6.0,-3.0,1651086182712513.0
