EMG_s0,EMG_s1,EMG_s2,EMG_s3,EMG_s4,EMG_s5,EMG_s6,EMG_s7,timestamp
1.0,-1.0,0.0,-1.0,-2.0,-2.0,0.0,1.0,1651085913107416.0
-1.0,0.0,1.0,-2.0,0.0,-1.0,-1.0,0.0,1651085913107416.0
0.0,-1.0,-1.0,0.0,1.0,0.0,-1.0,-4.0,1651085913109416.0
0.0,-1.0,-1.0,-1.0,-4.0,-2.0,-3.0,-1.0,1651085913109416.0
1.0,0.0,-1.0,-2.0,-1.0,-3.0,-2.0,-2.0,1651085913111412.0
1.0,-2.0,-4.0,-2.0,-1.0,-1.0,-2.0,-3.0,1651085913111412.0
-3.0,-3.0,-1.0,0.0,-1.0,0.0,1.0,-2.0,1651085913112409.0
-1.0,-2.0,-3.0,-1.0,-2.0,0.0,0.0,-1.0,1651085913112409.0
-3.0,-3.0,-2.0,0.0,-3.0,-2.0,-1.0,-3.0,1651085913119390.0
-3.0,-2.0,-3.0,0.0,-2.0,-1.0,0.0,-1.0,1651085913119390.0
-1.0,-1.0,-2.0,1.0,-1.0,-1.0,-2.0,-2.0,1651085913126371.0
-1.0,-1.0,0.0,0.0,-2.0,-3.0,0.0,-1.0,1651085913126371.0
0.0,-1.0,1.0,-1.0,-2.0,2.0,-2.0,-1.0,1651085913133351.0
0.0,-1.0,-1.0,3.0,3.0,1.0,1.0,-2.0,1651085913133351.0
-2.0,0.0,-2.0,-2.0,-4.0,-4.0,-2.0,0.0,1651085913151375.0
-1.0,-1.0,-2.0,0.0,-1.0,-1.0,-1.0,-2.0,1651085913151375.0
-2.0,-2.0,-3.0,-1.0,-3.0,-3.0,1.0,1.0,1651085913163347.0
-1.0,0.0,2.0,-1.0,0.0,-1.0,-2.0,-3.0,1651085913163347.0
-1.0,-2.0,-2.0,-1.0,-1.0,1.0,-2.0,1.0,1651085913169207.0
-1.0,0.0,-2.0,-1.0,0.0,-5.0,-1.0,1.0,1651085913169207.0
-1.0,1.0,0.0,1.0,1.0,1.0,-1.0,0.0,1651085913180098.0
0.0,-1.0,1.0,0.0,-1.0,1.0,-2.0,1.0,1651085913180098.0
1.0,-1.0,0.0,-2.0,-4.0,-5.0,0.0,0.0,1651085913194241.0
-1.0,-1.0,1.0,2.0,5.0,4.0,2.0,-2.0,1651085913194241.0
0.0,-1.0,0.0,0.0,0.0,-1.0,-1.0,-1.0,1651085913233219.0
-2.0,-1.0,1.0,1.0,0.0,0.0,0.0,-1.0,1651085913233219.0
-1.0,-2.0,-1.0,-2.0,-1.0,0.0,0.0,0.0,1651085913234066.0
-1.0,-1.0,-2.0,1.0,-1.0,1.0,-2.0,-2.0,1651085913234066.0
-1.0,-1.0,-1.0,0.0,0.0,0.0,0.0,1.0,1651085913234066.0
0.0,0.0,-2.0,-2.0,-1.0,-1.0,0.0,-2.0,1651085913234066.0
1.0,-1.0,0.0,0.0,-2.0,-3.0,0.0,-1.0,1651085913237057.0
0.0,-2.0,0.0,0.0,-3.0,-2.0,-1.0,-2.0,1651085913237057.0
0.0,1.0,-1.0,0.0,-2.0,-1.0,1.0,-2.0,1651085913245037.0
-1.0,-1.0,-1.0,2.0,1.0,1.0,0.0,-1.0,1651085913245037.0
-1.0,-1.0,1.0,0.0,1.0,2.0,0.0,-1.0,1651085913252149.0
0.0,0.0,-1.0,-2.0,1.0,0.0,-1.0,0.0,1651085913252149.0
0.0,-2.0,0.0,-2.0,-1.0,0.0,-1.0,0.0,1651085913260019.0
1.0,-3.0,-1.0,-1.0,-1.0,0.0,-1.0,1.0,1651085913260019.0
1.0,-1.0,-2.0,0.0,-1.0,0.0,-2.0,-2.0,1651085913275341.0
-1.0,0.0,-1.0,-1.0,-1.0,0.0,0.0,-1.0,1651085913275341.0
-1.0,-3.0,-2.0,-1.0,-2.0,-1.0,-2.0,-2.0,1651085913283221.0
-2.0,-1.0,0.0,1.0,3.0,2.0,0.0,-1.0,1651085913283221.0
-1.0,-1.0,-1.0,1.0,-2.0,-2.0,-1.0,-1.0,1651085913306379.0
0.0,1.0,0.0,-1.0,0.0,-2.0,-1.0,-1.0,1651085913306379.0
0.0,-1.0,-2.0,-2.0,1.0,1.0,-1.0,0.0,1651085913307214.0
0.0,0.0,-2.0,-2.0,-4.0,-3.0,1.0,1.0,1651085913307214.0
0.0,0.0,-2.0,1.0,1.0,-1.0,1.0,-1.0,1651085913320371.0
-1.0,0.0,0.0,-2.0,-2.0,-1.0,-1.0,-1.0,1651085913320371.0
0.0,-1.0,1.0,-2.0,-2.0,-3.0,0.0,-1.0,1651085913328205.0
1.0,-1.0,1.0,-2.0,-1.0,-4.0,-1.0,-1.0,1651085913328205.0
1.0,-2.0,-1.0,-1.0,-1.0,4.0,1.0,1.0,1651085913344276.0
-1.0,0.0,0.0,1.0,-1.0,0.0,0.0,1.0,1651085913344276.0
-1.0,0.0,0.0,0.0,2.0,-1.0,-2.0,-1.0,1651085913345211.0
-2.0,0.0,-1.0,0.0,0.0,1.0,0.0,1.0,1651085913345211.0
0.0,-1.0,-1.0,-1.0,-3.0,-3.0,-2.0,1.0,1651085913366387.0
1.0,-2.0,-2.0,1.0,0.0,0.0,0.0,-2.0,1651085913366387.0
-1.0,0.0,0.0,1.0,1.0,1.0,-1.0,0.0,1651085913367243.0
1.0,0.0,1.0,0.0,0.0,-1.0,1.0,-2.0,1651085913367243.0
-1.0,0.0,-1.0,-1.0,1.0,0.0,-2.0,-1.0,1651085913380303.0
-1.0,-2.0,0.0,-1.0,-1.0,1.0,2.0,0.0,1651085913380303.0
-1.0,0.0,-1.0,0.0,0.0,0.0,0.0,-2.0,1651085913388277.0
0.0,0.0,-1.0,1.0,-2.0,0.0,0.0,-1.0,1651085913388277.0
-1.0,-2.0,-2.0,0.0,0.0,0.0,-1.0,-1.0,1651085913404395.0
0.0,-1.0,0.0,-2.0,1.0,-1.0,-2.0,1.0,1651085913404395.0
1.0,-1.0,-1.0,-1.0,-1.0,-1.0,0.0,0.0,1651085913405343.0
0.0,0.0,-1.0,1.0,0.0,2.0,0.0,1.0,1651085913405343.0
-3.0,0.0,0.0,1.0,0.0,0.0,0.0,-1.0,1651085913426306.0
-1.0,1.0,0.0,-1.0,2.0,1.0,1.0,0.0,1651085913426306.0
-1.0,-1.0,-1.0,-2.0,-2.0,-2.0,-1.0,0.0,1651085913427185.0
-1.0,-1.0,0.0,-1.0,-2.0,-3.0,-2.0,-1.0,1651085913427185.0
0.0,0.0,0.0,2.0,0.0,1.0,0.0,-1.0,1651085913440323.0
-2.0,0.0,-1.0,0.0,-1.0,-1.0,0.0,-1.0,1651085913440323.0
-2.0,0.0,1.0,0.0,-2.0,0.0,1.0,0.0,1651085913448364.0
1.0,-1.0,-2.0,-2.0,-2.0,-1.0,-1.0,-1.0,1651085913448364.0
-1.0,0.0,0.0,-1.0,-1.0,-4.0,0.0,-2.0,1651085913463355.0
1.0,-2.0,1.0,1.0,1.0,3.0,-1.0,0.0,1651085913463355.0
1.0,-1.0,-2.0,-1.0,0.0,-2.0,0.0,1.0,1651085913465235.0
-1.0,-1.0,-2.0,-3.0,-2.0,-2.0,0.0,0.0,1651085913465235.0
-1.0,0.0,1.0,0.0,1.0,2.0,0.0,0.0,1651085913486303.0
-1.0,-2.0,-1.0,-1.0,-3.0,-1.0,0.0,0.0,1651085913486303.0
-1.0,-2.0,-1.0,0.0,0.0,1.0,0.0,0.0,1651085913487193.0
-1.0,-1.0,0.0,0.0,0.0,-1.0,-1.0,1.0,1651085913487193.0
2.0,-1.0,-1.0,-2.0,-1.0,-1.0,-2.0,0.0,1651085913500378.0
-1.0,-2.0,-1.0,-2.0,-6.0,-3.0,-3.0,0.0,1651085913500378.0
-2.0,3.0,1.0,0.0,-6.0,-3.0,-1.0,-1.0,1651085913508415.0
0.0,0.0,0.0,-3.0,2.0,6.0,-2.0,0.0,1651085913508415.0
0.0,0.0,1.0,-1.0,7.0,1.0,1.0,-1.0,1651085913524260.0
1.0,2.0,-2.0,-2.0,7.0,-3.0,-2.0,-4.0,1651085913524260.0
0.0,-5.0,-2.0,14.0,12.0,8.0,1.0,-1.0,1651085913525235.0
-2.0,-3.0,-4.0,-4.0,-7.0,-3.0,0.0,-1.0,1651085913525235.0
-2.0,5.0,8.0,4.0,9.0,3.0,1.0,-1.0,1651085913545551.0
0.0,0.0,-1.0,-10.0,-11.0,-3.0,-2.0,0.0,1651085913545551.0
0.0,1.0,-13.0,-9.0,0.0,0.0,1.0,0.0,1651085913547438.0
0.0,-10.0,0.0,9.0,4.0,-1.0,2.0,1.0,1651085913547438.0
-1.0,-3.0,-7.0,-16.0,-12.0,1.0,0.0,0.0,1651085913560349.0
-3.0,-1.0,13.0,25.0,28.0,3.0,0.0,-1.0,1651085913560349.0
1.0,0.0,-5.0,2.0,6.0,4.0,2.0,0.0,1651085913568146.0
0.0,3.0,12.0,6.0,-3.0,-2.0,-2.0,-3.0,1651085913568146.0
-1.0,-4.0,1.0,-13.0,-22.0,-11.0,-3.0,0.0,1651085913583220.0
0.0,0.0,-5.0,-15.0,-17.0,-2.0,0.0,-1.0,1651085913583220.0
1.0,-2.0,2.0,2.0,6.0,1.0,1.0,1.0,1651085913585217.0
-1.0,1.0,-4.0,-2.0,4.0,4.0,2.0,0.0,1651085913585217.0
0.0,-2.0,-6.0,-8.0,-4.0,-1.0,-3.0,-1.0,1651085913606388.0
1.0,-3.0,1.0,21.0,24.0,10.0,3.0,1.0,1651085913606388.0
0.0,3.0,3.0,-4.0,-18.0,-6.0,-3.0,-1.0,1651085913607226.0
-1.0,3.0,-5.0,6.0,0.0,-4.0,-1.0,-2.0,1651085913607226.0
-1.0,2.0,-3.0,-6.0,-9.0,-7.0,-3.0,-2.0,1651085913620531.0
1.0,-7.0,6.0,4.0,-9.0,-1.0,2.0,1.0,1651085913620531.0
-4.0,-17.0,-22.0,2.0,6.0,-4.0,-3.0,-3.0,1651085913628224.0
1.0,5.0,11.0,-15.0,-21.0,-7.0,-3.0,0.0,1651085913628224.0
-1.0,-2.0,-1.0,2.0,20.0,8.0,3.0,-1.0,1651085913644389.0
2.0,-4.0,-17.0,-15.0,-15.0,-5.0,-4.0,-2.0,1651085913644389.0
0.0,8.0,17.0,19.0,-11.0,-5.0,-3.0,0.0,1651085913645231.0
-2.0,-11.0,6.0,-9.0,6.0,-5.0,-2.0,-1.0,1651085913645231.0
1.0,7.0,-1.0,11.0,20.0,9.0,0.0,-1.0,1651085913666381.0
-2.0,-8.0,-4.0,-14.0,-7.0,-2.0,1.0,-2.0,1651085913666381.0
2.0,-1.0,4.0,-1.0,11.0,9.0,3.0,3.0,1651085913667217.0
-2.0,-4.0,-24.0,0.0,-13.0,-9.0,-6.0,-4.0,1651085913667217.0
-1.0,6.0,7.0,-10.0,-14.0,-14.0,-4.0,-2.0,1651085913680339.0
5.0,10.0,28.0,11.0,19.0,19.0,9.0,7.0,1651085913680339.0
-2.0,-7.0,-30.0,-18.0,-13.0,-5.0,-3.0,-2.0,1651085913688068.0
0.0,2.0,-8.0,3.0,20.0,8.0,2.0,1.0,1651085913688068.0
1.0,-13.0,5.0,8.0,-22.0,-6.0,-1.0,-1.0,1651085913704378.0
-2.0,4.0,-6.0,9.0,3.0,-7.0,-4.0,-4.0,1651085913704378.0
0.0,-1.0,4.0,-31.0,-19.0,-10.0,-2.0,-3.0,1651085913705218.0
-3.0,12.0,0.0,1.0,7.0,4.0,1.0,-1.0,1651085913705218.0
-1.0,-5.0,4.0,15.0,13.0,4.0,1.0,1.0,1651085913726195.0
-1.0,1.0,-19.0,-17.0,-14.0,-9.0,-4.0,-1.0,1651085913726195.0
0.0,-5.0,14.0,0.0,-7.0,0.0,0.0,-2.0,1651085913727172.0
2.0,-1.0,7.0,-3.0,-19.0,-9.0,-2.0,-2.0,1651085913727172.0
-3.0,-6.0,-34.0,-27.0,-13.0,-5.0,-3.0,-3.0,1651085913740378.0
-2.0,-17.0,-26.0,4.0,2.0,2.0,1.0,1.0,1651085913740378.0
-2.0,15.0,14.0,-15.0,-12.0,-9.0,-6.0,-1.0,1651085913748533.0
1.0,-10.0,-3.0,-6.0,-12.0,-7.0,-1.0,0.0,1651085913748533.0
2.0,14.0,28.0,23.0,32.0,21.0,6.0,5.0,1651085913764368.0
-3.0,-2.0,-4.0,-2.0,-9.0,-7.0,-4.0,-4.0,1651085913764368.0
-2.0,-2.0,6.0,28.0,22.0,5.0,2.0,-1.0,1651085913766217.0
-2.0,1.0,7.0,-11.0,-24.0,-7.0,-2.0,-2.0,1651085913766217.0
0.0,-3.0,-17.0,-2.0,2.0,-3.0,-1.0,1.0,1651085913785224.0
-3.0,1.0,9.0,-13.0,-6.0,-3.0,-3.0,-2.0,1651085913785224.0
4.0,5.0,-3.0,5.0,-6.0,2.0,4.0,2.0,1651085913792370.0
-1.0,-4.0,-9.0,-9.0,8.0,4.0,-1.0,-1.0,1651085913792370.0
-2.0,4.0,17.0,18.0,5.0,-5.0,-3.0,-2.0,1651085913800392.0
0.0,3.0,-7.0,-8.0,6.0,0.0,-2.0,-2.0,1651085913800392.0
0.0,0.0,23.0,12.0,5.0,3.0,1.0,0.0,1651085913808381.0
-1.0,-1.0,-20.0,-2.0,7.0,7.0,-1.0,0.0,1651085913808381.0
-2.0,-4.0,1.0,21.0,4.0,-2.0,0.0,-2.0,1651085913824318.0
1.0,1.0,-10.0,-23.0,-17.0,-7.0,-1.0,0.0,1651085913824318.0
1.0,2.0,27.0,35.0,21.0,4.0,1.0,-1.0,1651085913825255.0
0.0,3.0,-5.0,3.0,11.0,5.0,3.0,1.0,1651085913825255.0
-1.0,-1.0,-11.0,-28.0,-19.0,-5.0,-3.0,-1.0,1651085913845229.0
0.0,2.0,3.0,22.0,1.0,0.0,1.0,1.0,1651085913845229.0
-2.0,-4.0,-19.0,-32.0,-2.0,-2.0,-3.0,-2.0,1651085913847225.0
1.0,3.0,-15.0,3.0,2.0,7.0,1.0,0.0,1651085913847225.0
-1.0,3.0,48.0,36.0,24.0,11.0,3.0,-1.0,1651085913860372.0
0.0,0.0,10.0,-1.0,-3.0,-4.0,1.0,0.0,1651085913860372.0
4.0,0.0,-27.0,-8.0,-2.0,-4.0,-1.0,3.0,1651085913868170.0
-4.0,-2.0,32.0,8.0,-7.0,-6.0,-6.0,-3.0,1651085913868170.0
-2.0,-6.0,-34.0,-20.0,-2.0,2.0,4.0,-1.0,1651085913883209.0
1.0,2.0,-5.0,6.0,1.0,1.0,-2.0,2.0,1651085913883209.0
-4.0,0.0,14.0,-6.0,-5.0,-1.0,-2.0,-3.0,1651085913885238.0
2.0,4.0,11.0,5.0,10.0,3.0,3.0,0.0,1651085913885238.0
2.0,2.0,12.0,11.0,-12.0,-5.0,-3.0,1.0,1651085913906388.0
-4.0,-6.0,-28.0,-14.0,0.0,-1.0,-2.0,-4.0,1651085913906388.0
-2.0,1.0,7.0,8.0,6.0,3.0,-1.0,1.0,1651085913907227.0
0.0,-3.0,-3.0,-6.0,1.0,-5.0,-1.0,2.0,1651085913907227.0
1.0,-2.0,-26.0,-28.0,-11.0,-5.0,-7.0,1.0,1651085913920321.0
-1.0,1.0,19.0,7.0,-1.0,-6.0,-6.0,-3.0,1651085913920321.0
0.0,-2.0,-19.0,-14.0,-6.0,-1.0,0.0,0.0,1651085913928224.0
-3.0,-10.0,29.0,22.0,4.0,2.0,0.0,-2.0,1651085913928224.0
-1.0,4.0,3.0,6.0,2.0,0.0,0.0,0.0,1651085913944404.0
0.0,-1.0,4.0,3.0,0.0,2.0,1.0,0.0,1651085913944404.0
-1.0,-3.0,-20.0,-12.0,-2.0,-3.0,-1.0,-1.0,1651085913945245.0
4.0,10.0,9.0,8.0,8.0,2.0,1.0,2.0,1651085913945245.0
-2.0,-4.0,17.0,10.0,-6.0,-3.0,-1.0,0.0,1651085913966397.0
-1.0,-5.0,-2.0,-8.0,-2.0,-1.0,-2.0,-2.0,1651085913966397.0
0.0,1.0,12.0,-17.0,-3.0,2.0,0.0,-2.0,1651085913967245.0
2.0,3.0,9.0,43.0,3.0,-1.0,-2.0,0.0,1651085913967245.0
-9.0,-3.0,-32.0,-32.0,-5.0,-4.0,-2.0,-3.0,1651085913995582.0
9.0,20.0,61.0,38.0,10.0,6.0,6.0,2.0,1651085913995582.0
-9.0,-13.0,-30.0,-22.0,-10.0,-8.0,-11.0,-8.0,1651085913997464.0
0.0,-2.0,-9.0,-16.0,0.0,2.0,1.0,1.0,1651085913997464.0
0.0,1.0,11.0,20.0,6.0,3.0,1.0,0.0,1651085914002473.0
-2.0,2.0,14.0,-7.0,-5.0,-4.0,-3.0,-7.0,1651085914002473.0
5.0,-1.0,-24.0,-2.0,-1.0,4.0,6.0,10.0,1651085914009570.0
4.0,1.0,-7.0,8.0,1.0,0.0,3.0,13.0,1651085914009570.0
-13.0,-4.0,-13.0,-25.0,-5.0,1.0,-2.0,-16.0,1651085914026313.0
9.0,-1.0,18.0,25.0,7.0,6.0,10.0,1.0,1651085914026313.0
-2.0,-1.0,1.0,-3.0,0.0,-2.0,1.0,-5.0,1651085914027192.0
2.0,0.0,6.0,-1.0,-5.0,-3.0,-3.0,3.0,1651085914027192.0
-3.0,5.0,20.0,11.0,0.0,-4.0,0.0,11.0,1651085914048751.0
10.0,-4.0,-41.0,-23.0,-3.0,1.0,1.0,0.0,1651085914048751.0
1.0,2.0,14.0,11.0,-2.0,4.0,3.0,3.0,1651085914050107.0
-6.0,-3.0,-2.0,-10.0,3.0,-1.0,-7.0,-17.0,1651085914050107.0
3.0,2.0,-5.0,10.0,-3.0,-3.0,-1.0,0.0,1651085914063142.0
-9.0,-7.0,-26.0,-24.0,-6.0,-2.0,-3.0,-3.0,1651085914063142.0
4.0,1.0,23.0,18.0,0.0,-2.0,-2.0,-2.0,1651085914069213.0
-3.0,1.0,8.0,-15.0,-2.0,0.0,0.0,-3.0,1651085914069213.0
5.0,-1.0,8.0,14.0,2.0,4.0,2.0,1.0,1651085914086253.0
-4.0,0.0,-29.0,-17.0,0.0,-2.0,-3.0,3.0,1651085914086253.0
-4.0,-3.0,1.0,24.0,1.0,-6.0,-6.0,-3.0,1651085914087182.0
-2.0,-1.0,-4.0,-10.0,-6.0,-2.0,-2.0,-3.0,1651085914087182.0
3.0,-5.0,-16.0,-17.0,-2.0,2.0,1.0,0.0,1651085914108778.0
0.0,1.0,-3.0,-8.0,-4.0,-2.0,0.0,2.0,1651085914108778.0
-2.0,-3.0,17.0,14.0,1.0,3.0,2.0,-4.0,1651085914110107.0
-3.0,1.0,-2.0,-1.0,3.0,4.0,2.0,0.0,1651085914110107.0
1.0,-6.0,-30.0,-27.0,-8.0,-4.0,-4.0,-1.0,1651085914122512.0
-2.0,2.0,25.0,21.0,2.0,4.0,1.0,-4.0,1651085914122512.0
1.0,4.0,15.0,16.0,5.0,4.0,1.0,2.0,1651085914129905.0
-4.0,-7.0,-7.0,-14.0,-9.0,-3.0,-1.0,-1.0,1651085914129905.0
2.0,0.0,-8.0,-11.0,3.0,0.0,0.0,1.0,1651085914146184.0
-2.0,2.0,20.0,14.0,3.0,-3.0,-1.0,0.0,1651085914146184.0
-1.0,-3.0,-38.0,-24.0,-1.0,5.0,6.0,2.0,1651085914147181.0
-1.0,-1.0,10.0,5.0,-11.0,-7.0,-5.0,-4.0,1651085914147181.0
2.0,-2.0,4.0,-12.0,-4.0,-4.0,-1.0,-2.0,1651085914168290.0
-2.0,1.0,5.0,14.0,5.0,2.0,-2.0,-2.0,1651085914168290.0
1.0,1.0,8.0,-6.0,-5.0,-3.0,-1.0,-2.0,1651085914170197.0
-3.0,-5.0,-1.0,6.0,3.0,0.0,2.0,-1.0,1651085914170197.0
0.0,-3.0,-16.0,-9.0,-3.0,-1.0,0.0,-2.0,1651085914182288.0
1.0,4.0,4.0,1.0,5.0,4.0,7.0,5.0,1651085914182288.0
-3.0,-3.0,20.0,5.0,3.0,-1.0,-2.0,-2.0,1651085914189907.0
-2.0,-1.0,-36.0,-13.0,-3.0,-1.0,-2.0,0.0,1651085914189907.0
2.0,2.0,9.0,8.0,2.0,0.0,3.0,1.0,1651085914204262.0
-1.0,-2.0,7.0,-2.0,-6.0,-3.0,-1.0,1.0,1651085914204262.0
-2.0,-1.0,-4.0,-3.0,2.0,1.0,2.0,-3.0,1651085914213146.0
3.0,5.0,-6.0,-2.0,4.0,3.0,2.0,2.0,1651085914213146.0
-3.0,-7.0,12.0,-6.0,-10.0,-4.0,-3.0,-5.0,1651085914229266.0
-2.0,-3.0,-32.0,-15.0,4.0,1.0,-1.0,4.0,1651085914229266.0
0.0,2.0,6.0,-3.0,-3.0,-1.0,-1.0,-1.0,1651085914230166.0
-3.0,1.0,27.0,18.0,2.0,1.0,2.0,-1.0,1651085914230166.0
3.0,1.0,3.0,5.0,5.0,1.0,4.0,6.0,1651085914251239.0
-2.0,-2.0,-17.0,-8.0,-9.0,-10.0,-13.0,-6.0,1651085914251239.0
1.0,-3.0,6.0,-7.0,-4.0,-8.0,-5.0,-2.0,1651085914252235.0
1.0,2.0,-23.0,-9.0,4.0,9.0,9.0,3.0,1651085914252235.0
-2.0,4.0,22.0,19.0,1.0,-1.0,-3.0,-4.0,1651085914265372.0
-2.0,-3.0,-3.0,-5.0,1.0,2.0,2.0,0.0,1651085914265372.0
-5.0,-1.0,-26.0,-1.0,-3.0,-1.0,2.0,2.0,1651085914273200.0
5.0,1.0,12.0,15.0,4.0,1.0,-1.0,-1.0,1651085914273200.0
0.0,-3.0,17.0,3.0,-2.0,0.0,-2.0,-3.0,1651085914289379.0
-8.0,-2.0,-29.0,-10.0,-2.0,-2.0,-1.0,-4.0,1651085914289379.0
2.0,2.0,10.0,-1.0,-6.0,-2.0,-2.0,-1.0,1651085914290346.0
-2.0,-3.0,-19.0,-12.0,3.0,3.0,2.0,0.0,1651085914290346.0
3.0,3.0,-7.0,16.0,0.0,-2.0,-1.0,1.0,1651085914310383.0
-2.0,-4.0,9.0,-5.0,-9.0,0.0,2.0,-2.0,1651085914310383.0
3.0,4.0,-20.0,-11.0,2.0,0.0,-1.0,5.0,1651085914312222.0
-4.0,-4.0,19.0,0.0,-5.0,-1.0,-2.0,-3.0,1651085914312222.0
-1.0,0.0,-15.0,0.0,-2.0,0.0,-1.0,-1.0,1651085914325363.0
3.0,1.0,10.0,-1.0,-2.0,0.0,3.0,1.0,1651085914325363.0
-4.0,-3.0,6.0,9.0,0.0,-1.0,-2.0,-2.0,1651085914333198.0
-2.0,-3.0,-27.0,-30.0,-6.0,-6.0,-5.0,-3.0,1651085914333198.0
3.0,1.0,-8.0,7.0,3.0,2.0,3.0,13.0,1651085914349228.0
2.0,-2.0,19.0,0.0,-3.0,-2.0,-4.0,-6.0,1651085914349228.0
1.0,3.0,-29.0,2.0,3.0,6.0,6.0,13.0,1651085914351227.0
3.0,-2.0,4.0,-10.0,-2.0,-4.0,-5.0,-11.0,1651085914351227.0
-4.0,-5.0,-6.0,4.0,2.0,1.0,2.0,-3.0,1651085914371363.0
0.0,4.0,15.0,14.0,2.0,-1.0,-2.0,1.0,1651085914371363.0
0.0,-1.0,0.0,0.0,1.0,2.0,1.0,2.0,1651085914372203.0
-4.0,-4.0,13.0,13.0,0.0,-2.0,0.0,2.0,1651085914372203.0
4.0,4.0,-9.0,-11.0,-2.0,-3.0,-1.0,2.0,1651085914384104.0
1.0,0.0,10.0,13.0,5.0,5.0,4.0,2.0,1651085914384104.0
-1.0,-2.0,-6.0,-5.0,-1.0,0.0,-2.0,-6.0,1651085914393070.0
0.0,5.0,2.0,5.0,-2.0,-1.0,-1.0,0.0,1651085914393070.0
-3.0,0.0,23.0,2.0,3.0,0.0,-4.0,-5.0,1651085914409104.0
-3.0,-8.0,-6.0,-9.0,-5.0,-1.0,-1.0,1.0,1651085914409104.0
-1.0,1.0,14.0,13.0,1.0,0.0,-1.0,-5.0,1651085914410147.0
2.0,0.0,-2.0,-4.0,2.0,1.0,1.0,2.0,1651085914410147.0
4.0,2.0,8.0,10.0,-1.0,3.0,3.0,4.0,1651085914431435.0
-3.0,-1.0,-9.0,-1.0,8.0,-2.0,0.0,-1.0,1651085914431435.0
1.0,0.0,5.0,-6.0,0.0,1.0,4.0,-2.0,1651085914432435.0
-3.0,-1.0,-13.0,-12.0,-7.0,-8.0,-9.0,0.0,1651085914432435.0
0.0,2.0,-3.0,8.0,-4.0,-5.0,1.0,-5.0,1651085914454335.0
-3.0,-1.0,5.0,2.0,2.0,-1.0,-8.0,-6.0,1651085914454335.0
1.0,2.0,25.0,12.0,2.0,1.0,1.0,-2.0,1651085914455227.0
-2.0,-4.0,-15.0,-20.0,-3.0,-1.0,1.0,1.0,1651085914455227.0
2.0,2.0,13.0,3.0,-2.0,3.0,0.0,3.0,1651085914469240.0
-3.0,1.0,1.0,3.0,-3.0,-2.0,1.0,1.0,1651085914469240.0
-2.0,-3.0,13.0,14.0,0.0,-1.0,0.0,-1.0,1651085914470240.0
-1.0,-1.0,-3.0,1.0,1.0,0.0,-1.0,-3.0,1651085914470240.0
-2.0,-3.0,-18.0,-2.0,4.0,3.0,0.0,-1.0,1651085914491391.0
0.0,-3.0,-18.0,-15.0,-6.0,-1.0,0.0,0.0,1651085914491391.0
4.0,0.0,0.0,1.0,-4.0,-3.0,-4.0,-1.0,1651085914492232.0
1.0,4.0,13.0,15.0,10.0,2.0,1.0,-1.0,1651085914492232.0
-6.0,-5.0,1.0,8.0,-3.0,-2.0,-3.0,-9.0,1651085914514373.0
4.0,4.0,-10.0,1.0,3.0,7.0,1.0,7.0,1651085914514373.0
-1.0,-4.0,-16.0,-26.0,-6.0,-3.0,-3.0,-4.0,1651085914515238.0
-3.0,-5.0,-3.0,13.0,0.0,3.0,0.0,0.0,1651085914515238.0
0.0,4.0,8.0,-5.0,1.0,-1.0,-2.0,-2.0,1651085914528253.0
0.0,1.0,-1.0,-6.0,-5.0,-5.0,3.0,1.0,1651085914528253.0
0.0,1.0,7.0,9.0,6.0,1.0,-4.0,3.0,1651085914530251.0
-5.0,-1.0,-3.0,-18.0,-6.0,-3.0,-2.0,-13.0,1651085914530251.0
-3.0,-4.0,-5.0,-2.0,3.0,3.0,2.0,3.0,1651085914551392.0
-1.0,2.0,6.0,-2.0,-3.0,-2.0,-3.0,-2.0,1651085914551392.0
5.0,2.0,6.0,5.0,1.0,1.0,2.0,22.0,1651085914552247.0
-6.0,-6.0,-26.0,-20.0,-11.0,-3.0,-2.0,-24.0,1651085914552247.0
2.0,-2.0,-2.0,-8.0,4.0,-2.0,-6.0,0.0,1651085914574357.0
2.0,0.0,16.0,17.0,-1.0,2.0,5.0,0.0,1651085914574357.0
-2.0,-1.0,10.0,-7.0,-3.0,-1.0,0.0,0.0,1651085914575263.0
-1.0,3.0,6.0,22.0,4.0,0.0,-2.0,10.0,1651085914575263.0
0.0,-6.0,-37.0,-36.0,-11.0,-4.0,3.0,1.0,1651085914588088.0
0.0,0.0,-3.0,-7.0,4.0,3.0,2.0,-3.0,1651085914588088.0
-3.0,2.0,0.0,12.0,-1.0,-7.0,-9.0,-9.0,1651085914594355.0
3.0,0.0,12.0,4.0,-6.0,-3.0,1.0,7.0,1651085914594355.0
-1.0,5.0,-8.0,-1.0,3.0,3.0,0.0,-3.0,1651085914610393.0
1.0,-2.0,24.0,9.0,-4.0,-4.0,-1.0,1.0,1651085914610393.0
-3.0,-6.0,-37.0,-21.0,-5.0,0.0,1.0,-3.0,1651085914612234.0
4.0,2.0,7.0,-5.0,3.0,1.0,0.0,1.0,1651085914612234.0
-2.0,-2.0,14.0,17.0,1.0,-1.0,-2.0,1.0,1651085914634342.0
-2.0,-2.0,-11.0,-14.0,-1.0,1.0,-1.0,-1.0,1651085914634342.0
-1.0,2.0,11.0,15.0,3.0,0.0,1.0,-6.0,1651085914636210.0
-1.0,-9.0,5.0,-4.0,-1.0,-3.0,1.0,5.0,1651085914636210.0
-2.0,1.0,22.0,20.0,-1.0,-1.0,-2.0,-1.0,1651085914648312.0
-1.0,-6.0,-17.0,-6.0,-4.0,0.0,-1.0,-1.0,1651085914648312.0
-2.0,0.0,5.0,-10.0,-1.0,0.0,1.0,-5.0,1651085914655285.0
-1.0,3.0,-11.0,1.0,-1.0,1.0,1.0,5.0,1651085914655285.0
3.0,2.0,1.0,-6.0,-7.0,-2.0,0.0,0.0,1651085914671355.0
-2.0,1.0,3.0,7.0,4.0,-3.0,-5.0,-4.0,1651085914671355.0
-1.0,1.0,18.0,-1.0,-4.0,-1.0,1.0,0.0,1651085914672215.0
4.0,3.0,0.0,5.0,3.0,2.0,3.0,4.0,1651085914672215.0
-5.0,-5.0,-19.0,-9.0,-4.0,-4.0,-4.0,-5.0,1651085914694331.0
1.0,-2.0,1.0,3.0,-1.0,-1.0,-1.0,2.0,1651085914694331.0
0.0,0.0,0.0,4.0,2.0,0.0,1.0,1.0,1651085914695195.0
0.0,4.0,1.0,-12.0,-3.0,-1.0,2.0,2.0,1651085914695195.0
0.0,2.0,8.0,12.0,7.0,5.0,5.0,0.0,1651085914708296.0
-5.0,0.0,1.0,2.0,1.0,-7.0,-7.0,0.0,1651085914708296.0
0.0,0.0,-9.0,-5.0,2.0,3.0,-2.0,-2.0,1651085914715274.0
2.0,-1.0,1.0,-4.0,-7.0,-3.0,-1.0,1.0,1651085914715274.0
2.0,4.0,-4.0,-4.0,-9.0,-1.0,2.0,2.0,1651085914731566.0
-4.0,-18.0,-19.0,-2.0,13.0,3.0,3.0,-3.0,1651085914731566.0
-2.0,9.0,0.0,-6.0,-8.0,-5.0,-4.0,-4.0,1651085914732599.0
-2.0,0.0,-26.0,-11.0,-3.0,-2.0,-2.0,-1.0,1651085914732599.0
-2.0,-2.0,8.0,-11.0,1.0,1.0,4.0,2.0,1651085914754287.0
-1.0,7.0,28.0,28.0,-2.0,-1.0,-2.0,-15.0,1651085914754287.0
-5.0,-8.0,-9.0,-16.0,-2.0,-4.0,-2.0,3.0,1651085914755230.0
5.0,0.0,-13.0,-3.0,3.0,1.0,0.0,-2.0,1651085914755230.0
0.0,0.0,14.0,14.0,2.0,-2.0,-3.0,1.0,1651085914776241.0
-1.0,1.0,-27.0,-21.0,-5.0,-1.0,0.0,1.0,1651085914776241.0
0.0,-5.0,-8.0,-7.0,-1.0,-1.0,0.0,-2.0,1651085914777187.0
-3.0,2.0,16.0,14.0,1.0,3.0,4.0,2.0,1651085914777187.0
0.0,-3.0,2.0,-16.0,-3.0,-6.0,-5.0,-2.0,1651085914798830.0
-1.0,1.0,16.0,8.0,-2.0,-1.0,0.0,3.0,1651085914798830.0
1.0,-3.0,-28.0,-13.0,-4.0,0.0,3.0,-1.0,1651085914799694.0
0.0,1.0,16.0,22.0,-2.0,1.0,-3.0,1.0,1651085914799694.0
0.0,1.0,0.0,-2.0,8.0,5.0,1.0,1.0,1651085914814328.0
-4.0,-10.0,-11.0,-4.0,-7.0,-1.0,2.0,-12.0,1651085914814328.0
0.0,2.0,-10.0,-3.0,5.0,-3.0,-4.0,0.0,1651085914815205.0
1.0,-1.0,13.0,6.0,5.0,-2.0,2.0,3.0,1651085914815205.0
-2.0,0.0,-4.0,0.0,4.0,3.0,-2.0,-5.0,1651085914827986.0
5.0,8.0,-8.0,-11.0,-4.0,-2.0,0.0,6.0,1651085914827986.0
-2.0,-6.0,-10.0,-9.0,-7.0,-3.0,0.0,-2.0,1651085914835003.0
0.0,0.0,32.0,5.0,-2.0,-2.0,-2.0,-3.0,1651085914835003.0
-1.0,-3.0,3.0,23.0,-1.0,1.0,1.0,0.0,1651085914851203.0
3.0,-2.0,-29.0,-22.0,-2.0,-1.0,0.0,6.0,1651085914851203.0
-1.0,3.0,13.0,7.0,-1.0,-2.0,-5.0,-5.0,1651085914852200.0
-2.0,2.0,3.0,4.0,5.0,3.0,2.0,2.0,1651085914852200.0
-2.0,-2.0,4.0,-3.0,-9.0,-8.0,-2.0,-1.0,1651085914874318.0
-1.0,3.0,10.0,0.0,-1.0,2.0,3.0,2.0,1651085914874318.0
-1.0,-3.0,-20.0,0.0,0.0,2.0,-1.0,0.0,1651085914875240.0
1.0,-2.0,12.0,8.0,-2.0,-2.0,0.0,0.0,1651085914875240.0
-2.0,-3.0,-11.0,-5.0,-3.0,1.0,2.0,-1.0,1651085914888336.0
1.0,1.0,-3.0,9.0,0.0,1.0,0.0,-1.0,1651085914888336.0
0.0,-4.0,25.0,5.0,-2.0,-2.0,0.0,2.0,1651085914894362.0
-3.0,1.0,-18.0,-14.0,-5.0,-5.0,-1.0,-1.0,1651085914894362.0
1.0,-2.0,-15.0,-1.0,-3.0,0.0,-6.0,-3.0,1651085914910405.0
0.0,5.0,2.0,-4.0,2.0,0.0,0.0,0.0,1651085914910405.0
-2.0,0.0,9.0,9.0,2.0,2.0,4.0,-2.0,1651085914912238.0
-1.0,-1.0,-15.0,-6.0,-3.0,-6.0,-8.0,-3.0,1651085914912238.0
0.0,-2.0,18.0,7.0,-1.0,-1.0,-1.0,-1.0,1651085914934372.0
2.0,2.0,-8.0,-18.0,-5.0,-1.0,0.0,2.0,1651085914934372.0
0.0,-4.0,-27.0,1.0,10.0,3.0,1.0,-1.0,1651085914935255.0
-3.0,1.0,19.0,12.0,3.0,1.0,0.0,-3.0,1651085914935255.0
0.0,1.0,2.0,1.0,4.0,0.0,-2.0,0.0,1651085914947358.0
0.0,-1.0,7.0,2.0,-3.0,1.0,0.0,2.0,1651085914947358.0
0.0,-1.0,25.0,11.0,-2.0,-1.0,-1.0,0.0,1651085914956181.0
0.0,-2.0,-15.0,-5.0,3.0,6.0,3.0,1.0,1651085914956181.0
2.0,-1.0,-14.0,-11.0,-2.0,-2.0,-1.0,0.0,1651085914971601.0
-3.0,-6.0,-18.0,-10.0,-6.0,-6.0,-3.0,-2.0,1651085914971601.0
2.0,3.0,-1.0,3.0,-1.0,1.0,-1.0,1.0,1651085914972454.0
-2.0,0.0,13.0,9.0,4.0,3.0,-2.0,-4.0,1651085914972454.0
-2.0,-4.0,-9.0,-7.0,-5.0,-6.0,-2.0,0.0,1651085914994334.0
1.0,1.0,14.0,8.0,2.0,4.0,1.0,1.0,1651085914994334.0
0.0,2.0,-18.0,-15.0,-4.0,0.0,1.0,-1.0,1651085914995214.0
3.0,-4.0,-4.0,2.0,-1.0,-2.0,2.0,3.0,1651085914995214.0
-2.0,-1.0,5.0,-4.0,2.0,3.0,1.0,1.0,1651085915007473.0
-4.0,-9.0,-15.0,-5.0,-4.0,-4.0,1.0,1.0,1651085915007473.0
-1.0,-2.0,4.0,-1.0,-2.0,-1.0,0.0,-1.0,1651085915016204.0
-3.0,0.0,9.0,3.0,-5.0,-4.0,-4.0,-3.0,1651085915016204.0
-1.0,2.0,-20.0,-12.0,-4.0,3.0,3.0,-3.0,1651085915031343.0
0.0,1.0,13.0,9.0,3.0,0.0,-3.0,0.0,1651085915031343.0
-1.0,0.0,5.0,1.0,-8.0,-4.0,-1.0,-1.0,1651085915032197.0
-2.0,-3.0,-15.0,-9.0,1.0,1.0,2.0,0.0,1651085915032197.0
-1.0,2.0,2.0,2.0,6.0,0.0,1.0,1.0,1651085915054272.0
-1.0,3.0,7.0,3.0,1.0,3.0,0.0,0.0,1651085915054272.0
-1.0,-2.0,-3.0,4.0,0.0,1.0,0.0,-1.0,1651085915055235.0
1.0,-1.0,-9.0,-5.0,-3.0,-5.0,-4.0,-2.0,1651085915055235.0
0.0,-4.0,4.0,-4.0,-6.0,-1.0,-2.0,-1.0,1651085915067412.0
1.0,1.0,1.0,8.0,9.0,3.0,2.0,-1.0,1651085915067412.0
-1.0,2.0,6.0,3.0,0.0,-2.0,0.0,0.0,1651085915083186.0
-1.0,-2.0,-6.0,-6.0,2.0,2.0,0.0,1.0,1651085915083186.0
-1.0,1.0,3.0,3.0,7.0,1.0,1.0,0.0,1651085915091278.0
-1.0,0.0,1.0,-1.0,-8.0,-6.0,-3.0,-1.0,1651085915091278.0
-1.0,-1.0,0.0,0.0,7.0,6.0,1.0,0.0,1651085915092278.0
-1.0,1.0,-2.0,-1.0,-2.0,-2.0,0.0,-1.0,1651085915092278.0
-2.0,-2.0,-4.0,0.0,-2.0,0.0,-1.0,1.0,1651085915113358.0
-1.0,2.0,1.0,1.0,1.0,-2.0,0.0,1.0,1651085915113358.0
1.0,0.0,0.0,-2.0,-3.0,-4.0,-2.0,-1.0,1651085915115207.0
1.0,-1.0,-5.0,-1.0,2.0,2.0,2.0,1.0,1651085915115207.0
1.0,-1.0,2.0,-1.0,1.0,-1.0,1.0,-1.0,1651085915127324.0
-3.0,-1.0,2.0,0.0,0.0,-1.0,0.0,-2.0,1651085915127324.0
-1.0,0.0,3.0,2.0,0.0,0.0,0.0,-1.0,1651085915136149.0
1.0,1.0,-4.0,-2.0,0.0,1.0,-2.0,-2.0,1651085915136149.0
-1.0,-1.0,1.0,1.0,0.0,-1.0,0.0,0.0,1651085915152226.0
-1.0,1.0,8.0,7.0,1.0,2.0,0.0,-1.0,1651085915152226.0
-1.0,-2.0,-8.0,-3.0,-3.0,-2.0,0.0,-3.0,1651085915154255.0
0.0,-2.0,-1.0,-2.0,0.0,-2.0,-2.0,0.0,1651085915154255.0
0.0,2.0,1.0,-2.0,-3.0,-3.0,-2.0,-1.0,1651085915174356.0
0.0,-1.0,-2.0,0.0,1.0,-1.0,-2.0,-1.0,1651085915174356.0
0.0,0.0,5.0,-1.0,-4.0,-2.0,0.0,-1.0,1651085915175242.0
-2.0,0.0,1.0,1.0,2.0,5.0,1.0,1.0,1651085915175242.0
0.0,-2.0,0.0,3.0,1.0,-1.0,1.0,-2.0,1651085915187319.0
-1.0,1.0,0.0,-2.0,-1.0,-1.0,-3.0,0.0,1651085915187319.0
0.0,-1.0,-5.0,-1.0,1.0,-1.0,-2.0,-1.0,1651085915196151.0
-1.0,0.0,-4.0,-2.0,-6.0,-4.0,-3.0,-2.0,1651085915196151.0
-1.0,0.0,0.0,0.0,0.0,0.0,-1.0,1.0,1651085915210369.0
0.0,0.0,-2.0,-1.0,-1.0,-1.0,1.0,0.0,1651085915210369.0
-2.0,-1.0,1.0,2.0,1.0,0.0,1.0,-2.0,1651085915212219.0
-1.0,-3.0,-3.0,0.0,1.0,4.0,0.0,-2.0,1651085915212219.0
-1.0,1.0,2.0,1.0,-2.0,-2.0,-1.0,-1.0,1651085915234406.0
-1.0,-3.0,-1.0,-2.0,0.0,-1.0,1.0,-1.0,1651085915234406.0
-2.0,-1.0,-1.0,0.0,0.0,1.0,0.0,1.0,1651085915235238.0
-2.0,-1.0,1.0,0.0,-1.0,-3.0,-1.0,0.0,1651085915235238.0
0.0,1.0,-2.0,-2.0,-4.0,-1.0,0.0,0.0,1651085915247358.0
-2.0,-1.0,-2.0,-1.0,0.0,2.0,-1.0,0.0,1651085915247358.0
0.0,-2.0,1.0,-1.0,0.0,-1.0,-1.0,-1.0,1651085915256181.0
-1.0,1.0,0.0,0.0,3.0,3.0,1.0,2.0,1651085915256181.0
-1.0,-1.0,0.0,0.0,-3.0,-1.0,-2.0,0.0,1651085915270291.0
1.0,1.0,-3.0,0.0,0.0,-3.0,-1.0,0.0,1651085915270291.0
0.0,1.0,-1.0,1.0,3.0,4.0,0.0,1.0,1651085915277275.0
-1.0,-1.0,0.0,0.0,0.0,-2.0,-1.0,-2.0,1651085915277275.0
1.0,0.0,1.0,-2.0,0.0,-1.0,1.0,-1.0,1651085915294309.0
0.0,-3.0,-1.0,-3.0,-2.0,0.0,1.0,-1.0,1651085915294309.0
0.0,-2.0,1.0,-3.0,-5.0,-5.0,-1.0,0.0,1651085915295208.0
0.0,-2.0,-3.0,-3.0,-2.0,-1.0,-2.0,-1.0,1651085915295208.0
0.0,0.0,-1.0,2.0,0.0,0.0,0.0,-1.0,1651085915307521.0
0.0,0.0,-2.0,1.0,-2.0,-1.0,-1.0,-1.0,1651085915307521.0
1.0,0.0,0.0,-2.0,-5.0,0.0,-1.0,0.0,1651085915316214.0
0.0,-1.0,0.0,-1.0,2.0,-1.0,1.0,-1.0,1651085915316214.0
1.0,0.0,0.0,-1.0,0.0,-3.0,-1.0,-2.0,1651085915330802.0
0.0,-1.0,1.0,2.0,4.0,4.0,1.0,-1.0,1651085915330802.0
0.0,0.0,-3.0,-2.0,-3.0,-3.0,0.0,-1.0,1651085915336827.0
-1.0,0.0,-1.0,-1.0,-3.0,-2.0,1.0,-2.0,1651085915336827.0
-1.0,-1.0,-2.0,-2.0,-1.0,1.0,-1.0,-2.0,1651085915353698.0
0.0,0.0,-2.0,-2.0,1.0,0.0,0.0,-1.0,1651085915353698.0
0.0,0.0,1.0,0.0,0.0,0.0,-1.0,-1.0,1651085915354612.0
0.0,0.0,-1.0,0.0,-1.0,-1.0,1.0,-1.0,1651085915354612.0
-1.0,0.0,-1.0,-1.0,0.0,0.0,-1.0,-1.0,1651085915392846.0
-1.0,1.0,0.0,0.0,-3.0,-2.0,-2.0,1.0,1651085915392846.0
0.0,0.0,0.0,0.0,-2.0,-1.0,0.0,0.0,1651085915394127.0
-2.0,1.0,-1.0,1.0,3.0,2.0,-1.0,0.0,1651085915394127.0
0.0,-1.0,-1.0,-1.0,-2.0,-2.0,-1.0,-1.0,1651085915394127.0
0.0,-1.0,0.0,1.0,1.0,3.0,1.0,0.0,1651085915394127.0
2.0,1.0,0.0,-1.0,-2.0,-1.0,0.0,0.0,1651085915398115.0
0.0,0.0,-2.0,-1.0,-4.0,-1.0,-2.0,0.0,1651085915398115.0
-2.0,-1.0,0.0,-1.0,2.0,0.0,-1.0,0.0,1651085915414244.0
-1.0,0.0,-1.0,-1.0,-2.0,-2.0,0.0,-3.0,1651085915414244.0
-3.0,0.0,0.0,-1.0,2.0,0.0,1.0,-1.0,1651085915415137.0
0.0,0.0,0.0,-1.0,-2.0,0.0,2.0,-1.0,1651085915415137.0
-1.0,0.0,0.0,-1.0,-2.0,-2.0,-1.0,0.0,1651085915436376.0
1.0,-2.0,-1.0,-2.0,0.0,-1.0,0.0,-1.0,1651085915436376.0
-1.0,-3.0,0.0,2.0,1.0,3.0,0.0,-2.0,1651085915437217.0
1.0,0.0,-1.0,1.0,-2.0,-4.0,-1.0,-1.0,1651085915437217.0
-1.0,0.0,1.0,-2.0,0.0,-1.0,1.0,-2.0,1651085915450378.0
-1.0,-1.0,0.0,0.0,-1.0,0.0,0.0,-1.0,1651085915450378.0
-4.0,0.0,0.0,-1.0,0.0,-1.0,-1.0,0.0,1651085915458532.0
-1.0,-1.0,0.0,0.0,2.0,3.0,1.0,1.0,1651085915458532.0
-1.0,-2.0,-1.0,2.0,0.0,0.0,1.0,-1.0,1651085915474316.0
0.0,-1.0,-1.0,-2.0,-3.0,-2.0,0.0,-1.0,1651085915474316.0
-1.0,-2.0,-1.0,1.0,1.0,0.0,-2.0,-1.0,1651085915475258.0
1.0,0.0,1.0,0.0,-1.0,0.0,0.0,-1.0,1651085915475258.0
-1.0,0.0,-1.0,-2.0,-1.0,-1.0,-2.0,-1.0,1651085915495226.0
0.0,0.0,-1.0,0.0,1.0,-1.0,-1.0,0.0,1651085915495226.0
-1.0,-3.0,-2.0,0.0,-1.0,0.0,0.0,-2.0,1651085915497221.0
-1.0,-1.0,-2.0,-2.0,-2.0,-2.0,-1.0,-1.0,1651085915497221.0
0.0,1.0,-1.0,-1.0,-1.0,0.0,-1.0,-1.0,1651085915510272.0
0.0,0.0,-1.0,0.0,1.0,-1.0,-1.0,0.0,1651085915510272.0
0.0,-1.0,0.0,0.0,6.0,4.0,0.0,1.0,1651085915518252.0
-1.0,-3.0,1.0,-1.0,-1.0,-3.0,0.0,0.0,1651085915518252.0
0.0,1.0,-1.0,-1.0,-2.0,-1.0,-2.0,-1.0,1651085915533230.0
-2.0,0.0,-1.0,0.0,-2.0,-1.0,-1.0,1.0,1651085915533230.0
-1.0,0.0,-1.0,-1.0,-2.0,-1.0,1.0,-1.0,1651085915535262.0
0.0,1.0,-1.0,-1.0,1.0,-1.0,0.0,0.0,1651085915535262.0
-2.0,-1.0,1.0,-1.0,-1.0,-1.0,0.0,-1.0,1651085915556373.0
0.0,-2.0,1.0,-1.0,-1.0,-1.0,0.0,0.0,1651085915556373.0
0.0,-2.0,-1.0,0.0,1.0,0.0,2.0,1.0,1651085915557215.0
-1.0,-1.0,1.0,2.0,-1.0,-3.0,0.0,0.0,1651085915557215.0
-1.0,0.0,-1.0,-2.0,-2.0,1.0,-2.0,-1.0,1651085915570367.0
-1.0,0.0,0.0,-1.0,0.0,1.0,-1.0,-2.0,1651085915570367.0
0.0,-2.0,-1.0,0.0,-1.0,0.0,-1.0,0.0,1651085915578110.0
0.0,-1.0,-1.0,-1.0,-2.0,-1.0,-1.0,0.0,1651085915578110.0
0.0,0.0,-1.0,-1.0,-2.0,-2.0,-1.0,1.0,1651085915594311.0
-1.0,-1.0,1.0,0.0,0.0,-2.0,0.0,0.0,1651085915594311.0
0.0,1.0,0.0,-1.0,-3.0,-2.0,0.0,-2.0,1651085915595224.0
-1.0,-1.0,-1.0,0.0,1.0,-1.0,-2.0,-2.0,1651085915595224.0
-1.0,-1.0,0.0,0.0,-1.0,1.0,0.0,1.0,1651085915616437.0
-1.0,0.0,-2.0,-1.0,-1.0,0.0,0.0,-1.0,1651085915616437.0
-1.0,0.0,0.0,0.0,-1.0,0.0,-1.0,0.0,1651085915617306.0
0.0,0.0,-2.0,-2.0,-4.0,-2.0,-2.0,0.0,1651085915617306.0
-1.0,0.0,-2.0,1.0,0.0,0.0,0.0,1.0,1651085915630406.0
0.0,-1.0,0.0,2.0,3.0,2.0,-1.0,0.0,1651085915630406.0
-1.0,-1.0,-2.0,-3.0,-3.0,-3.0,-1.0,0.0,1651085915637365.0
-1.0,-1.0,0.0,1.0,1.0,0.0,0.0,-2.0,1651085915637365.0
-2.0,-1.0,-2.0,-2.0,1.0,4.0,-2.0,0.0,1651085915654240.0
1.0,0.0,-1.0,-3.0,-5.0,-5.0,0.0,0.0,1651085915654240.0
1.0,0.0,1.0,0.0,1.0,-1.0,-2.0,0.0,1651085915655238.0
-1.0,-1.0,2.0,0.0,0.0,0.0,2.0,-1.0,1651085915655238.0
-1.0,-1.0,-2.0,-2.0,-3.0,-2.0,-2.0,-2.0,1651085915676322.0
0.0,-1.0,-2.0,-3.0,2.0,-1.0,-1.0,-2.0,1651085915676322.0
-1.0,-1.0,0.0,-2.0,0.0,3.0,0.0,0.0,1651085915677195.0
-1.0,0.0,-3.0,-2.0,-2.0,-1.0,-1.0,0.0,1651085915677195.0
-1.0,-2.0,1.0,-1.0,-1.0,-3.0,0.0,-1.0,1651085915699105.0
0.0,-1.0,1.0,1.0,1.0,1.0,-1.0,-1.0,1651085915699105.0
-2.0,0.0,1.0,1.0,2.0,0.0,2.0,-1.0,1651085915700139.0
-1.0,0.0,-2.0,-1.0,-2.0,1.0,-1.0,-1.0,1651085915700139.0
0.0,-2.0,-1.0,-3.0,-3.0,-1.0,-1.0,0.0,1651085915713701.0
0.0,-3.0,-2.0,-1.0,-1.0,-2.0,-1.0,0.0,1651085915713701.0
-1.0,1.0,-2.0,-1.0,-2.0,-3.0,-2.0,0.0,1651085915714572.0
1.0,-1.0,0.0,0.0,-3.0,0.0,-2.0,-1.0,1651085915714572.0
-1.0,0.0,-2.0,1.0,0.0,-1.0,1.0,-2.0,1651085915736308.0
-3.0,-1.0,1.0,2.0,3.0,2.0,3.0,0.0,1651085915736308.0
-1.0,-1.0,-1.0,-2.0,0.0,-1.0,-1.0,1.0,1651085915737181.0
0.0,0.0,1.0,-4.0,-3.0,-5.0,-4.0,-2.0,1651085915737181.0
0.0,-1.0,2.0,0.0,0.0,0.0,0.0,2.0,1651085915750970.0
-1.0,0.0,1.0,2.0,8.0,9.0,0.0,0.0,1651085915750970.0
1.0,-1.0,-2.0,-3.0,-1.0,-1.0,0.0,0.0,1651085915757456.0
-1.0,-1.0,-2.0,-3.0,-2.0,-4.0,-1.0,-2.0,1651085915757456.0
-1.0,0.0,-1.0,3.0,0.0,1.0,0.0,-1.0,1651085915774225.0
0.0,-1.0,0.0,1.0,-2.0,0.0,-1.0,-1.0,1651085915774225.0
-1.0,0.0,0.0,-1.0,-2.0,-2.0,-3.0,0.0,1651085915775217.0
-1.0,-1.0,-3.0,-2.0,0.0,0.0,-1.0,0.0,1651085915775217.0
1.0,-2.0,-2.0,0.0,-1.0,-1.0,2.0,0.0,1651085915796185.0
-1.0,0.0,0.0,-1.0,-2.0,-1.0,-2.0,-1.0,1651085915796185.0
1.0,-1.0,-2.0,-1.0,-1.0,-1.0,1.0,-1.0,1651085915797182.0
0.0,-1.0,1.0,-1.0,-1.0,-1.0,0.0,0.0,1651085915797182.0
-1.0,-2.0,-1.0,0.0,0.0,0.0,-2.0,0.0,1651085915810311.0
1.0,0.0,-2.0,0.0,-2.0,-1.0,1.0,-1.0,1651085915810311.0
-1.0,0.0,1.0,-1.0,-2.0,-2.0,0.0,-2.0,1651085915817170.0
0.0,0.0,-1.0,0.0,0.0,1.0,1.0,-1.0,1651085915817170.0
-1.0,0.0,0.0,0.0,2.0,3.0,-1.0,0.0,1651085915834306.0
0.0,0.0,-2.0,-2.0,-5.0,-4.0,0.0,0.0,1651085915834306.0
0.0,-1.0,0.0,2.0,1.0,2.0,0.0,0.0,1651085915835193.0
0.0,-1.0,-2.0,-2.0,-2.0,-2.0,1.0,-1.0,1651085915835193.0
0.0,0.0,-1.0,-4.0,-6.0,-5.0,-2.0,-3.0,1651085915863435.0
-2.0,-1.0,1.0,-1.0,3.0,4.0,1.0,1.0,1651085915863435.0
1.0,-1.0,0.0,3.0,5.0,1.0,2.0,-1.0,1651085915864456.0
-1.0,0.0,-1.0,0.0,4.0,2.0,-1.0,0.0,1651085915864456.0
1.0,0.0,0.0,-1.0,-2.0,-2.0,-1.0,1.0,1651085915869444.0
2.0,0.0,-3.0,-4.0,-8.0,-4.0,-2.0,-1.0,1651085915869444.0
-1.0,-2.0,-2.0,-1.0,-3.0,0.0,-1.0,0.0,1651085915878566.0
-1.0,-3.0,-1.0,0.0,-3.0,-1.0,-2.0,0.0,1651085915878566.0
0.0,-2.0,-1.0,-1.0,-1.0,-3.0,0.0,-1.0,1651085915894246.0
-1.0,0.0,-2.0,2.0,4.0,3.0,0.0,2.0,1651085915894246.0
-1.0,0.0,-1.0,-1.0,-2.0,-2.0,-2.0,0.0,1651085915895187.0
0.0,-1.0,0.0,1.0,1.0,-1.0,1.0,0.0,1651085915895187.0
-1.0,-1.0,2.0,1.0,3.0,2.0,1.0,-1.0,1651085915916172.0
-1.0,-1.0,0.0,-1.0,-2.0,-3.0,0.0,0.0,1651085915916172.0
0.0,0.0,0.0,-1.0,-1.0,-2.0,-1.0,1.0,1651085915917127.0
0.0,-1.0,0.0,-1.0,-1.0,1.0,-1.0,0.0,1651085915917127.0
0.0,-1.0,-2.0,-2.0,-4.0,-2.0,-1.0,1.0,1651085915930398.0
-1.0,-1.0,0.0,1.0,2.0,-2.0,-1.0,-2.0,1651085915930398.0
-1.0,0.0,1.0,0.0,2.0,0.0,0.0,-1.0,1651085915938215.0
0.0,-1.0,0.0,2.0,3.0,3.0,1.0,-1.0,1651085915938215.0
0.0,1.0,-1.0,2.0,0.0,3.0,2.0,0.0,1651085915954343.0
0.0,0.0,0.0,-2.0,-4.0,-2.0,0.0,0.0,1651085915954343.0
0.0,0.0,-1.0,-3.0,-5.0,-3.0,-2.0,-2.0,1651085915955260.0
0.0,0.0,0.0,1.0,0.0,-2.0,0.0,1.0,1651085915955260.0
-2.0,-1.0,0.0,-2.0,-1.0,-2.0,1.0,-2.0,1651085915976290.0
-2.0,-2.0,-1.0,0.0,1.0,3.0,-2.0,-2.0,1651085915976290.0
0.0,-1.0,-1.0,1.0,1.0,-2.0,-2.0,0.0,1651085915977125.0
-1.0,2.0,0.0,0.0,1.0,1.0,-1.0,0.0,1651085915977125.0
-1.0,-1.0,0.0,3.0,3.0,4.0,0.0,0.0,1651085915990397.0
-1.0,0.0,-1.0,-2.0,-1.0,-2.0,-2.0,-1.0,1651085915990397.0
0.0,0.0,-2.0,-1.0,-1.0,1.0,1.0,-1.0,1651085916006226.0
-2.0,-1.0,-1.0,0.0,-3.0,-3.0,-3.0,-1.0,1651085916006226.0
0.0,-2.0,0.0,0.0,-1.0,-2.0,-1.0,-1.0,1651085916013360.0
-1.0,-2.0,1.0,1.0,2.0,1.0,0.0,-2.0,1651085916013360.0
0.0,-1.0,-2.0,-3.0,-4.0,-1.0,-2.0,-1.0,1651085916015233.0
1.0,1.0,-1.0,-3.0,-2.0,-3.0,1.0,-2.0,1651085916015233.0
0.0,-1.0,0.0,4.0,4.0,6.0,2.0,0.0,1651085916036358.0
1.0,0.0,-1.0,-3.0,-3.0,-6.0,-1.0,-1.0,1651085916036358.0
-2.0,-2.0,0.0,0.0,-1.0,-2.0,0.0,-1.0,1651085916037197.0
0.0,-2.0,-2.0,-1.0,0.0,0.0,-1.0,0.0,1651085916037197.0
-1.0,0.0,-2.0,-2.0,0.0,-2.0,-1.0,0.0,1651085916049165.0
0.0,-2.0,0.0,1.0,-2.0,-1.0,0.0,0.0,1651085916049165.0
-1.0,0.0,1.0,0.0,-4.0,-3.0,-2.0,0.0,1651085916066224.0
-1.0,-1.0,0.0,0.0,2.0,4.0,-1.0,-1.0,1651085916066224.0
0.0,0.0,0.0,-2.0,1.0,-1.0,0.0,-1.0,1651085916074353.0
0.0,0.0,-2.0,-1.0,-2.0,-1.0,0.0,0.0,1651085916074353.0
1.0,-1.0,-1.0,-2.0,-3.0,-1.0,-1.0,1.0,1651085916075223.0
-1.0,-2.0,-1.0,-1.0,-1.0,-2.0,0.0,0.0,1651085916075223.0
1.0,2.0,1.0,-3.0,-2.0,-2.0,-2.0,-1.0,1651085916096381.0
-1.0,0.0,-2.0,0.0,-1.0,0.0,0.0,1.0,1651085916096381.0
-2.0,-1.0,0.0,1.0,4.0,1.0,0.0,-2.0,1651085916097221.0
0.0,-1.0,1.0,-1.0,1.0,2.0,1.0,0.0,1651085916097221.0
-1.0,0.0,-2.0,-2.0,-4.0,-3.0,-3.0,-1.0,1651085916110333.0
-1.0,0.0,0.0,-1.0,-1.0,-1.0,-1.0,-1.0,1651085916110333.0
0.0,-1.0,0.0,1.0,2.0,0.0,0.0,-1.0,1651085916118244.0
-1.0,-1.0,0.0,1.0,-2.0,0.0,-1.0,2.0,1651085916118244.0
1.0,-2.0,-1.0,-2.0,-3.0,0.0,-1.0,-1.0,1651085916134377.0
0.0,-1.0,1.0,0.0,1.0,0.0,-1.0,1.0,1651085916134377.0
0.0,-1.0,-2.0,-1.0,-1.0,0.0,-1.0,0.0,1651085916135251.0
0.0,-1.0,1.0,0.0,-1.0,0.0,-1.0,-1.0,1651085916135251.0
-2.0,1.0,1.0,0.0,-2.0,1.0,-1.0,0.0,1651085916156717.0
0.0,2.0,0.0,-2.0,-1.0,1.0,0.0,-2.0,1651085916156717.0
-1.0,-2.0,1.0,0.0,0.0,-4.0,0.0,0.0,1651085916157558.0
0.0,-1.0,-4.0,-3.0,-4.0,0.0,-1.0,0.0,1651085916157558.0
0.0,-1.0,-1.0,0.0,0.0,-1.0,-1.0,-2.0,1651085916169526.0
-1.0,0.0,1.0,2.0,-1.0,-1.0,2.0,-2.0,1651085916169526.0
0.0,1.0,-2.0,-1.0,3.0,5.0,0.0,-1.0,1651085916178501.0
-2.0,-1.0,-2.0,1.0,0.0,-3.0,1.0,-2.0,1651085916178501.0
0.0,-4.0,-2.0,0.0,2.0,1.0,-3.0,1.0,1651085916194273.0
-1.0,0.0,-1.0,1.0,0.0,-1.0,-1.0,0.0,1651085916194273.0
0.0,-2.0,0.0,-3.0,-6.0,-4.0,-1.0,-1.0,1651085916195220.0
0.0,-1.0,-2.0,-2.0,0.0,-1.0,1.0,0.0,1651085916195220.0
-2.0,1.0,0.0,0.0,0.0,-2.0,1.0,-1.0,1651085916216382.0
0.0,-1.0,-1.0,-1.0,1.0,-1.0,0.0,0.0,1651085916216382.0
0.0,1.0,0.0,1.0,2.0,1.0,0.0,-1.0,1651085916218246.0
-1.0,0.0,0.0,0.0,-1.0,0.0,0.0,-1.0,1651085916218246.0
1.0,0.0,-1.0,-2.0,-1.0,-2.0,-1.0,-3.0,1651085916230320.0
0.0,-1.0,-1.0,-3.0,-4.0,-2.0,-2.0,0.0,1651085916230320.0
0.0,0.0,0.0,-2.0,-2.0,-1.0,-2.0,-1.0,1651085916244273.0
-1.0,-1.0,2.0,2.0,2.0,-1.0,0.0,-2.0,1651085916244273.0
-1.0,0.0,-2.0,1.0,-1.0,0.0,0.0,1.0,1651085916253603.0
-1.0,0.0,0.0,-2.0,-1.0,-1.0,-1.0,-1.0,1651085916253603.0
-1.0,-2.0,-2.0,0.0,1.0,0.0,1.0,-2.0,1651085916254440.0
-2.0,-1.0,0.0,0.0,1.0,-1.0,-1.0,0.0,1651085916254440.0
0.0,-2.0,-2.0,-2.0,-3.0,-4.0,-2.0,-1.0,1651085916276380.0
-2.0,-2.0,-3.0,0.0,0.0,2.0,-1.0,0.0,1651085916276380.0
1.0,0.0,1.0,1.0,1.0,1.0,0.0,0.0,1651085916277218.0
1.0,-1.0,-2.0,1.0,-2.0,-1.0,-2.0,0.0,1651085916277218.0
-3.0,-2.0,-1.0,-1.0,-1.0,1.0,1.0,-1.0,1651085916290275.0
0.0,-2.0,0.0,-2.0,0.0,-2.0,-1.0,0.0,1651085916290275.0
-1.0,-1.0,-1.0,-1.0,-3.0,-2.0,-1.0,1.0,1651085916314383.0
0.0,0.0,0.0,0.0,1.0,-1.0,-2.0,1.0,1651085916314383.0
-2.0,3.0,-2.0,-4.0,-1.0,-2.0,1.0,2.0,1651085916314383.0
-2.0,-1.0,-2.0,0.0,1.0,0.0,-3.0,-3.0,1651085916314383.0
-3.0,0.0,-1.0,1.0,-1.0,1.0,0.0,-1.0,1651085916316215.0
0.0,0.0,1.0,-1.0,-1.0,-1.0,-1.0,-2.0,1651085916316215.0
1.0,-1.0,0.0,0.0,4.0,6.0,0.0,1.0,1651085916336864.0
1.0,-1.0,-1.0,-1.0,-1.0,-2.0,-1.0,0.0,1651085916336864.0
1.0,0.0,-1.0,-3.0,-2.0,-2.0,0.0,0.0,1651085916337704.0
-1.0,1.0,-1.0,-1.0,-5.0,-1.0,0.0,0.0,1651085916337704.0
0.0,-1.0,-1.0,3.0,0.0,-2.0,1.0,-2.0,1651085916359012.0
-1.0,0.0,0.0,1.0,2.0,1.0,0.0,-1.0,1651085916359012.0
0.0,0.0,-2.0,-1.0,0.0,-1.0,0.0,-1.0,1651085916360047.0
0.0,-2.0,0.0,-2.0,1.0,0.0,0.0,0.0,1651085916360047.0
-1.0,-2.0,0.0,-1.0,-4.0,-1.0,-1.0,1.0,1651085916374301.0
1.0,-1.0,-1.0,-2.0,-4.0,-1.0,-1.0,0.0,1651085916374301.0
0.0,0.0,0.0,1.0,1.0,0.0,-1.0,-2.0,1651085916375255.0
0.0,0.0,2.0,2.0,8.0,6.0,2.0,0.0,1651085916375255.0
0.0,-1.0,1.0,0.0,0.0,0.0,-2.0,-1.0,1651085916396355.0
0.0,-1.0,-1.0,-2.0,-4.0,-4.0,-1.0,0.0,1651085916396355.0
1.0,0.0,1.0,-1.0,-8.0,-6.0,-1.0,-1.0,1651085916397207.0
-1.0,-3.0,-1.0,0.0,3.0,6.0,0.0,1.0,1651085916397207.0
-1.0,0.0,-2.0,1.0,4.0,0.0,2.0,1.0,1651085916418515.0
-1.0,-1.0,-3.0,0.0,1.0,-3.0,-1.0,1.0,1651085916418515.0
-1.0,-1.0,-1.0,0.0,1.0,0.0,-1.0,0.0,1651085916419386.0
0.0,-1.0,-3.0,-3.0,-5.0,-2.0,-1.0,0.0,1651085916419386.0
0.0,-1.0,1.0,-1.0,-1.0,-4.0,-2.0,0.0,1651085916433064.0
-1.0,-1.0,0.0,0.0,2.0,4.0,0.0,0.0,1651085916433064.0
0.0,-1.0,1.0,0.0,-4.0,-2.0,0.0,1.0,1651085916435098.0
0.0,0.0,0.0,-2.0,3.0,0.0,0.0,0.0,1651085916435098.0
0.0,-1.0,-1.0,-5.0,-7.0,-3.0,-2.0,-1.0,1651085916456388.0
-1.0,0.0,1.0,4.0,-2.0,0.0,1.0,-1.0,1651085916456388.0
-1.0,0.0,1.0,4.0,6.0,4.0,0.0,0.0,1651085916457246.0
0.0,0.0,0.0,1.0,-1.0,-6.0,-1.0,0.0,1651085916457246.0
1.0,0.0,0.0,0.0,1.0,0.0,-3.0,-1.0,1651085916478422.0
0.0,-1.0,-1.0,-5.0,0.0,2.0,-2.0,0.0,1651085916478422.0
-1.0,-3.0,-2.0,-1.0,2.0,1.0,0.0,1.0,1651085916479451.0
-1.0,0.0,-1.0,1.0,1.0,0.0,0.0,-1.0,1651085916479451.0
0.0,0.0,-1.0,0.0,-1.0,-3.0,1.0,0.0,1651085916493232.0
0.0,0.0,1.0,-2.0,-3.0,-2.0,0.0,0.0,1651085916493232.0
-1.0,-2.0,-2.0,-1.0,-3.0,1.0,-1.0,-3.0,1651085916500417.0
1.0,-1.0,0.0,-4.0,-3.0,-4.0,-3.0,-2.0,1651085916500417.0
-1.0,-1.0,1.0,1.0,-2.0,-1.0,-3.0,-1.0,1651085916516393.0
-1.0,0.0,-1.0,-3.0,-4.0,-2.0,0.0,-1.0,1651085916516393.0
0.0,1.0,-1.0,-6.0,-13.0,0.0,0.0,0.0,1651085916517233.0
-1.0,-2.0,-3.0,0.0,9.0,0.0,-2.0,-1.0,1651085916517233.0
1.0,-2.0,6.0,5.0,1.0,5.0,1.0,1.0,1651085916538600.0
-1.0,-1.0,-10.0,5.0,2.0,0.0,0.0,-1.0,1651085916538600.0
-1.0,0.0,-1.0,-9.0,-3.0,-2.0,1.0,0.0,1651085916539492.0
-3.0,-2.0,-11.0,-12.0,-34.0,-10.0,-3.0,-4.0,1651085916539492.0
-2.0,2.0,4.0,-10.0,1.0,-6.0,1.0,-1.0,1651085916552869.0
0.0,-2.0,-3.0,6.0,-7.0,0.0,-4.0,-1.0,1651085916552869.0
0.0,-1.0,-2.0,-10.0,-14.0,-9.0,-2.0,0.0,1651085916560371.0
0.0,-5.0,1.0,21.0,19.0,10.0,3.0,2.0,1651085916560371.0
-2.0,10.0,-15.0,-18.0,-15.0,-7.0,-3.0,-1.0,1651085916576380.0
-1.0,-9.0,-10.0,-4.0,-7.0,-3.0,-1.0,0.0,1651085916576380.0
-1.0,-3.0,-4.0,20.0,26.0,14.0,0.0,0.0,1651085916577221.0
1.0,-2.0,2.0,-5.0,-7.0,-3.0,0.0,-1.0,1651085916577221.0
-1.0,-2.0,9.0,6.0,-11.0,-6.0,-2.0,-2.0,1651085916599122.0
0.0,5.0,-3.0,-3.0,36.0,10.0,5.0,3.0,1651085916599122.0
0.0,-1.0,9.0,8.0,-4.0,0.0,0.0,0.0,1651085916600154.0
1.0,0.0,-2.0,26.0,30.0,8.0,-3.0,-1.0,1651085916600154.0
2.0,0.0,0.0,8.0,-1.0,2.0,1.0,3.0,1651085916613281.0
-3.0,-2.0,-3.0,-22.0,-20.0,-10.0,-7.0,-4.0,1651085916613281.0
0.0,-3.0,-3.0,-5.0,3.0,5.0,-1.0,-1.0,1651085916620308.0
-2.0,6.0,19.0,-2.0,4.0,3.0,4.0,2.0,1651085916620308.0
-4.0,-4.0,-15.0,1.0,-1.0,-1.0,-2.0,-5.0,1651085916636318.0
0.0,-2.0,2.0,6.0,19.0,9.0,2.0,2.0,1651085916636318.0
-1.0,8.0,13.0,8.0,2.0,-9.0,-5.0,-2.0,1651085916637211.0
1.0,1.0,-3.0,-9.0,-7.0,-1.0,0.0,-1.0,1651085916637211.0
1.0,-3.0,1.0,-4.0,-8.0,-2.0,-2.0,1.0,1651085916658981.0
4.0,4.0,9.0,11.0,-15.0,-2.0,6.0,4.0,1651085916658981.0
-2.0,-7.0,-11.0,7.0,23.0,10.0,2.0,-2.0,1651085916660159.0
-2.0,-1.0,17.0,-1.0,0.0,-2.0,-2.0,-3.0,1651085916660159.0
-1.0,-1.0,-6.0,-14.0,-21.0,-4.0,2.0,0.0,1651085916672963.0
-2.0,-2.0,-12.0,-1.0,13.0,8.0,-1.0,-2.0,1651085916672963.0
3.0,5.0,17.0,5.0,-21.0,-13.0,-3.0,1.0,1651085916681435.0
0.0,-2.0,-13.0,-18.0,-9.0,-11.0,-2.0,0.0,1651085916681435.0
0.0,-3.0,6.0,0.0,10.0,7.0,-2.0,0.0,1651085916696163.0
-1.0,6.0,7.0,-1.0,-10.0,-1.0,4.0,0.0,1651085916696163.0
-1.0,-3.0,-3.0,-5.0,-5.0,2.0,0.0,0.0,1651085916697163.0
0.0,0.0,-5.0,4.0,6.0,0.0,1.0,0.0,1651085916697163.0
1.0,-1.0,-1.0,-6.0,-8.0,-8.0,-3.0,-1.0,1651085916718384.0
0.0,1.0,1.0,4.0,-7.0,-8.0,-7.0,-2.0,1651085916718384.0
-2.0,-2.0,1.0,-10.0,17.0,4.0,1.0,-1.0,1651085916719399.0
-2.0,1.0,1.0,4.0,-1.0,8.0,5.0,2.0,1651085916719399.0
2.0,-1.0,11.0,0.0,18.0,5.0,2.0,1.0,1651085916732369.0
-3.0,-5.0,-11.0,-5.0,-16.0,-3.0,1.0,-2.0,1651085916732369.0
-2.0,-5.0,-11.0,-4.0,5.0,-3.0,-3.0,-1.0,1651085916741345.0
0.0,-3.0,-34.0,-10.0,-8.0,-1.0,1.0,0.0,1651085916741345.0
0.0,-1.0,-3.0,0.0,12.0,2.0,-5.0,0.0,1651085916757976.0
1.0,-4.0,28.0,-2.0,6.0,1.0,0.0,1.0,1651085916757976.0
-2.0,6.0,17.0,15.0,-12.0,-8.0,-1.0,-4.0,1651085916758815.0
-1.0,3.0,43.0,22.0,-1.0,-2.0,-1.0,-2.0,1651085916758815.0
-5.0,-10.0,-30.0,-29.0,-13.0,-15.0,-23.0,-12.0,1651085916778214.0
2.0,1.0,-37.0,2.0,-4.0,0.0,-1.0,1.0,1651085916778214.0
-3.0,-2.0,23.0,3.0,-3.0,1.0,-2.0,0.0,1651085916780209.0
1.0,1.0,-14.0,-10.0,-5.0,-3.0,-3.0,0.0,1651085916780209.0
-3.0,0.0,30.0,9.0,5.0,7.0,7.0,0.0,1651085916793218.0
1.0,4.0,6.0,6.0,-6.0,-9.0,-2.0,-1.0,1651085916793218.0
3.0,-1.0,-12.0,-11.0,-3.0,-5.0,-9.0,1.0,1651085916799243.0
-1.0,-1.0,-22.0,-9.0,1.0,6.0,3.0,-1.0,1651085916799243.0
-1.0,-2.0,10.0,9.0,-2.0,2.0,12.0,3.0,1651085916816381.0
1.0,1.0,2.0,5.0,-1.0,-4.0,-7.0,1.0,1651085916816381.0
-1.0,-2.0,-41.0,-12.0,5.0,6.0,6.0,1.0,1651085916817218.0
0.0,0.0,35.0,-8.0,-16.0,-6.0,-1.0,-1.0,1651085916817218.0
-3.0,-1.0,-14.0,0.0,17.0,11.0,2.0,-1.0,1651085916838140.0
-2.0,-1.0,21.0,5.0,1.0,-3.0,1.0,0.0,1651085916838140.0
0.0,1.0,1.0,9.0,-5.0,-1.0,0.0,-1.0,1651085916840171.0
-1.0,-1.0,14.0,-18.0,-5.0,-5.0,-3.0,-1.0,1651085916840171.0
3.0,2.0,-38.0,23.0,8.0,4.0,2.0,1.0,1651085916853094.0
-4.0,-3.0,-1.0,-13.0,0.0,0.0,-9.0,-8.0,1651085916853094.0
2.0,0.0,5.0,1.0,1.0,5.0,8.0,1.0,1651085916861274.0
1.0,1.0,1.0,0.0,2.0,1.0,-1.0,1.0,1651085916861274.0
2.0,0.0,41.0,28.0,1.0,-2.0,1.0,2.0,1651085916876384.0
2.0,5.0,2.0,8.0,7.0,-3.0,-7.0,-1.0,1651085916876384.0
0.0,-4.0,7.0,-9.0,-6.0,0.0,-1.0,-1.0,1651085916877220.0
0.0,1.0,-9.0,13.0,6.0,-1.0,-2.0,-1.0,1651085916877220.0
0.0,2.0,-10.0,-6.0,3.0,1.0,4.0,2.0,1651085916899237.0
-3.0,-6.0,-28.0,-15.0,-4.0,-5.0,-2.0,-1.0,1651085916899237.0
0.0,0.0,-4.0,0.0,2.0,1.0,5.0,-1.0,1651085916900269.0
-1.0,1.0,33.0,19.0,-2.0,-1.0,-6.0,-3.0,1651085916900269.0
0.0,-4.0,-28.0,-10.0,6.0,-3.0,-1.0,1.0,1651085916912365.0
-1.0,0.0,4.0,-3.0,-1.0,9.0,11.0,-3.0,1651085916912365.0
1.0,0.0,-12.0,-8.0,-9.0,-13.0,-13.0,-1.0,1651085916920419.0
-5.0,-5.0,-16.0,-7.0,-3.0,0.0,0.0,-1.0,1651085916920419.0
2.0,5.0,20.0,3.0,-1.0,2.0,0.0,0.0,1651085916936376.0
2.0,0.0,10.0,15.0,5.0,2.0,1.0,2.0,1651085916936376.0
-2.0,-4.0,-27.0,-31.0,-1.0,5.0,4.0,-2.0,1651085916937215.0
0.0,-2.0,11.0,33.0,8.0,0.0,0.0,2.0,1651085916937215.0
0.0,2.0,34.0,13.0,0.0,3.0,2.0,0.0,1651085916959154.0
-2.0,-4.0,-19.0,-9.0,-3.0,-1.0,-5.0,-1.0,1651085916959154.0
-2.0,6.0,22.0,14.0,8.0,13.0,13.0,2.0,1651085916960185.0
4.0,3.0,0.0,-10.0,3.0,4.0,3.0,3.0,1651085916960185.0
-2.0,-4.0,-35.0,-20.0,-8.0,-9.0,-7.0,-2.0,1651085916972482.0
-3.0,-3.0,2.0,13.0,1.0,4.0,8.0,1.0,1651085916972482.0
1.0,-3.0,-15.0,-10.0,-10.0,-12.0,-10.0,-4.0,1651085916981451.0
-3.0,6.0,11.0,6.0,4.0,10.0,8.0,1.0,1651085916981451.0
-3.0,-4.0,-5.0,-3.0,2.0,-1.0,-1.0,-1.0,1651085916995371.0
-1.0,-3.0,9.0,-4.0,2.0,3.0,4.0,0.0,1651085916995371.0
-1.0,2.0,16.0,12.0,0.0,-5.0,-5.0,0.0,1651085917002445.0
4.0,0.0,1.0,1.0,0.0,-2.0,0.0,1.0,1651085917002445.0
0.0,-2.0,-41.0,-23.0,-10.0,-4.0,-3.0,-3.0,1651085917018234.0
-2.0,-1.0,-13.0,-11.0,-1.0,0.0,2.0,1.0,1651085917018234.0
-1.0,-1.0,-11.0,0.0,3.0,1.0,2.0,2.0,1651085917020230.0
1.0,4.0,8.0,6.0,-4.0,-3.0,1.0,0.0,1651085917020230.0
-2.0,3.0,7.0,-1.0,-1.0,-2.0,-2.0,-4.0,1651085917032607.0
3.0,4.0,-4.0,-4.0,0.0,0.0,0.0,2.0,1651085917032607.0
-6.0,-17.0,-12.0,-1.0,0.0,1.0,-1.0,-3.0,1651085917048117.0
-5.0,-7.0,-31.0,-14.0,-3.0,-3.0,-6.0,-5.0,1651085917048117.0
3.0,3.0,21.0,2.0,-1.0,1.0,1.0,2.0,1651085917055400.0
0.0,0.0,-12.0,-17.0,-6.0,-3.0,2.0,2.0,1651085917055400.0
1.0,5.0,13.0,10.0,2.0,-3.0,-6.0,0.0,1651085917062103.0
3.0,-3.0,-14.0,-13.0,3.0,4.0,6.0,0.0,1651085917062103.0
-5.0,-5.0,19.0,20.0,-5.0,-8.0,-10.0,-7.0,1651085917078214.0
2.0,3.0,14.0,6.0,2.0,0.0,-2.0,0.0,1651085917078214.0
0.0,2.0,0.0,-1.0,-2.0,4.0,8.0,2.0,1651085917080240.0
3.0,-3.0,-7.0,-5.0,-3.0,-6.0,-4.0,-3.0,1651085917080240.0
1.0,3.0,11.0,26.0,7.0,9.0,5.0,3.0,1651085917092404.0
-7.0,-5.0,-39.0,-24.0,-11.0,-8.0,-6.0,-3.0,1651085917092404.0
4.0,1.0,17.0,3.0,3.0,-1.0,-2.0,-3.0,1651085917101386.0
-1.0,1.0,-18.0,-3.0,-2.0,1.0,0.0,2.0,1651085917101386.0
-1.0,-1.0,11.0,1.0,5.0,0.0,0.0,0.0,1651085917116347.0
-3.0,-1.0,-19.0,-13.0,-4.0,-1.0,-1.0,-1.0,1651085917116347.0
2.0,4.0,1.0,4.0,2.0,1.0,-1.0,1.0,1651085917118198.0
-5.0,-3.0,0.0,-4.0,-3.0,-4.0,-8.0,-1.0,1651085917118198.0
0.0,-4.0,-6.0,-7.0,0.0,6.0,5.0,-1.0,1651085917138756.0
2.0,3.0,26.0,21.0,2.0,-2.0,-3.0,-5.0,1651085917138756.0
-2.0,-4.0,-15.0,-25.0,-10.0,-8.0,-3.0,-1.0,1651085917140102.0
-1.0,0.0,-5.0,-2.0,1.0,2.0,5.0,2.0,1651085917140102.0
1.0,4.0,12.0,2.0,-5.0,-7.0,-3.0,1.0,1651085917151898.0
-3.0,-5.0,-10.0,-3.0,0.0,-2.0,-8.0,-4.0,1651085917151898.0
-1.0,2.0,-6.0,1.0,0.0,2.0,1.0,0.0,1651085917161373.0
1.0,-8.0,-4.0,1.0,1.0,4.0,7.0,2.0,1651085917161373.0
-4.0,1.0,-4.0,-7.0,-9.0,-9.0,-8.0,-1.0,1651085917176173.0
-2.0,2.0,18.0,14.0,6.0,0.0,1.0,3.0,1651085917176173.0
-2.0,0.0,5.0,0.0,-1.0,4.0,3.0,1.0,1651085917177075.0
-1.0,-1.0,-5.0,-11.0,-7.0,-7.0,-6.0,-4.0,1651085917177075.0
1.0,-1.0,-16.0,0.0,8.0,5.0,2.0,0.0,1651085917198743.0
1.0,-1.0,9.0,1.0,-2.0,-2.0,-3.0,-1.0,1651085917198743.0
-3.0,-3.0,-5.0,-12.0,-4.0,-4.0,-1.0,0.0,1651085917200105.0
1.0,4.0,-9.0,-9.0,-2.0,-3.0,-3.0,-3.0,1651085917200105.0
1.0,-2.0,1.0,2.0,0.0,4.0,7.0,2.0,1651085917212432.0
1.0,3.0,21.0,3.0,-1.0,-1.0,1.0,3.0,1651085917212432.0
0.0,-6.0,-23.0,2.0,1.0,1.0,1.0,-2.0,1651085917221284.0
-1.0,-1.0,-18.0,-8.0,0.0,3.0,1.0,2.0,1651085917221284.0
-3.0,-1.0,22.0,17.0,-2.0,-2.0,-3.0,-3.0,1651085917236321.0
-2.0,-2.0,-33.0,-19.0,2.0,3.0,5.0,1.0,1651085917236321.0
3.0,2.0,6.0,4.0,-4.0,-7.0,-11.0,-3.0,1651085917237201.0
-1.0,0.0,27.0,22.0,-1.0,-3.0,-1.0,0.0,1651085917237201.0
-1.0,-1.0,-15.0,-19.0,5.0,5.0,3.0,0.0,1651085917258771.0
0.0,2.0,44.0,12.0,3.0,4.0,2.0,-1.0,1651085917258771.0
-1.0,4.0,19.0,6.0,1.0,3.0,4.0,0.0,1651085917260147.0
-1.0,-3.0,-40.0,-10.0,-2.0,-5.0,-4.0,-3.0,1651085917260147.0
1.0,1.0,18.0,6.0,-3.0,-1.0,-1.0,-3.0,1651085917282371.0
3.0,0.0,6.0,0.0,9.0,3.0,2.0,3.0,1651085917282371.0
-1.0,-1.0,5.0,13.0,5.0,4.0,5.0,2.0,1651085917283411.0
0.0,0.0,-11.0,-3.0,-8.0,-6.0,-3.0,-2.0,1651085917283411.0
0.0,2.0,8.0,6.0,10.0,3.0,4.0,5.0,1651085917295665.0
2.0,-3.0,-11.0,-8.0,-8.0,-5.0,-6.0,-2.0,1651085917295665.0
-7.0,-3.0,4.0,-7.0,-1.0,0.0,-3.0,-2.0,1651085917297646.0
1.0,0.0,-5.0,-9.0,0.0,0.0,0.0,-1.0,1651085917297646.0
-2.0,2.0,-9.0,6.0,-2.0,-3.0,-3.0,-3.0,1651085917326358.0
1.0,0.0,6.0,-1.0,1.0,4.0,2.0,1.0,1651085917326358.0
0.0,-3.0,-14.0,2.0,-2.0,-3.0,-2.0,1.0,1651085917327223.0
-4.0,-3.0,5.0,-1.0,-5.0,-5.0,-4.0,-4.0,1651085917327223.0
-2.0,-1.0,-8.0,-12.0,-1.0,0.0,-1.0,-4.0,1651085917341318.0
-3.0,0.0,16.0,18.0,7.0,4.0,3.0,-1.0,1651085917341318.0
4.0,4.0,-4.0,2.0,1.0,2.0,3.0,-1.0,1651085917342197.0
-6.0,3.0,22.0,10.0,3.0,-3.0,-3.0,2.0,1651085917342197.0
0.0,-10.0,-69.0,-50.0,-15.0,-6.0,-4.0,1.0,1651085917356289.0
0.0,3.0,11.0,14.0,-3.0,-2.0,-1.0,0.0,1651085917356289.0
-3.0,0.0,-16.0,-15.0,-5.0,-2.0,-2.0,-3.0,1651085917357158.0
1.0,2.0,7.0,6.0,0.0,1.0,0.0,1.0,1651085917357158.0
-1.0,-1.0,15.0,7.0,1.0,-1.0,0.0,0.0,1651085917378286.0
-3.0,-3.0,-17.0,-12.0,-3.0,0.0,-1.0,-3.0,1651085917378286.0
1.0,2.0,9.0,6.0,0.0,1.0,3.0,0.0,1651085917380280.0
-2.0,-5.0,2.0,-12.0,-8.0,-3.0,-4.0,-4.0,1651085917380280.0
-2.0,1.0,28.0,19.0,-1.0,-1.0,-2.0,-1.0,1651085917401218.0
1.0,-6.0,-11.0,-2.0,-4.0,-2.0,1.0,-1.0,1651085917401218.0
-1.0,0.0,-4.0,8.0,0.0,-5.0,-6.0,-2.0,1651085917402215.0
-1.0,-2.0,-15.0,-14.0,-1.0,0.0,-3.0,0.0,1651085917402215.0
1.0,5.0,8.0,4.0,3.0,3.0,4.0,0.0,1651085917415324.0
-1.0,-9.0,-7.0,-4.0,-5.0,-2.0,0.0,0.0,1651085917415324.0
2.0,0.0,12.0,4.0,0.0,0.0,-2.0,-1.0,1651085917422599.0
0.0,-1.0,-8.0,-3.0,-3.0,0.0,-1.0,-2.0,1651085917422599.0
-4.0,-1.0,3.0,-4.0,3.0,2.0,2.0,-4.0,1651085917438103.0
-2.0,1.0,2.0,-7.0,-5.0,-5.0,-3.0,3.0,1651085917438103.0
0.0,-4.0,-7.0,6.0,4.0,3.0,3.0,1.0,1651085917440088.0
-1.0,2.0,11.0,3.0,3.0,4.0,4.0,-1.0,1651085917440088.0
4.0,1.0,10.0,14.0,4.0,0.0,0.0,1.0,1651085917461082.0
-2.0,-2.0,8.0,-15.0,-7.0,-4.0,-2.0,-2.0,1651085917461082.0
2.0,3.0,-12.0,-7.0,3.0,-3.0,-2.0,1.0,1651085917462112.0
-3.0,1.0,14.0,14.0,2.0,-1.0,1.0,-2.0,1651085917462112.0
4.0,-4.0,3.0,0.0,-10.0,-6.0,-3.0,-1.0,1651085917475379.0
-1.0,1.0,-10.0,-2.0,9.0,1.0,-2.0,-2.0,1651085917475379.0
-2.0,-1.0,0.0,2.0,0.0,0.0,1.0,-1.0,1651085917482490.0
-1.0,0.0,23.0,7.0,6.0,3.0,1.0,1.0,1651085917482490.0
0.0,1.0,-7.0,-6.0,-1.0,-1.0,0.0,0.0,1651085917499161.0
0.0,1.0,8.0,20.0,1.0,2.0,3.0,0.0,1651085917499161.0
0.0,-2.0,6.0,-19.0,-6.0,-3.0,-5.0,-1.0,1651085917500160.0
1.0,0.0,-10.0,11.0,-4.0,-3.0,-1.0,-2.0,1651085917500160.0
-8.0,0.0,-13.0,-11.0,-4.0,-5.0,-5.0,0.0,1651085917521363.0
0.0,4.0,13.0,12.0,-1.0,-2.0,1.0,-2.0,1651085917521363.0
-2.0,0.0,0.0,2.0,3.0,1.0,3.0,0.0,1651085917522395.0
1.0,-1.0,17.0,-1.0,-2.0,1.0,0.0,2.0,1651085917522395.0
2.0,-2.0,-25.0,-8.0,-1.0,3.0,4.0,2.0,1651085917535686.0
-4.0,-1.0,-10.0,-13.0,-1.0,-1.0,-2.0,-1.0,1651085917535686.0
3.0,6.0,32.0,20.0,-1.0,-2.0,-1.0,0.0,1651085917542614.0
-1.0,-9.0,-14.0,-9.0,-2.0,-3.0,-3.0,-4.0,1651085917542614.0
3.0,3.0,-6.0,-11.0,-4.0,0.0,-1.0,2.0,1651085917559279.0
-2.0,1.0,14.0,5.0,-3.0,-1.0,-3.0,-3.0,1651085917559279.0
4.0,0.0,14.0,22.0,10.0,5.0,5.0,3.0,1651085917560247.0
-1.0,-1.0,-28.0,-21.0,-10.0,-10.0,-12.0,-4.0,1651085917560247.0
-1.0,-4.0,-1.0,1.0,0.0,3.0,4.0,1.0,1651085917581335.0
1.0,1.0,14.0,13.0,0.0,-4.0,-1.0,-2.0,1651085917581335.0
-1.0,-3.0,-52.0,-28.0,-10.0,-6.0,-4.0,-2.0,1651085917582475.0
0.0,0.0,23.0,3.0,3.0,1.0,3.0,3.0,1651085917582475.0
0.0,-3.0,-11.0,-8.0,0.0,-2.0,-4.0,-2.0,1651085917604264.0
0.0,2.0,15.0,18.0,1.0,0.0,0.0,1.0,1651085917604264.0
-1.0,-1.0,-22.0,-20.0,-1.0,1.0,-2.0,-2.0,1651085917605250.0
-2.0,-1.0,8.0,10.0,6.0,2.0,3.0,0.0,1651085917605250.0
1.0,1.0,4.0,1.0,0.0,-3.0,-3.0,-2.0,1651085917620805.0
1.0,-1.0,11.0,0.0,-3.0,2.0,1.0,-1.0,1651085917620805.0
-5.0,-10.0,-11.0,-9.0,-6.0,-2.0,-2.0,-3.0,1651085917621206.0
2.0,3.0,-17.0,-7.0,-8.0,-3.0,-1.0,0.0,1651085917621206.0
-1.0,0.0,8.0,9.0,-1.0,-1.0,-3.0,-2.0,1651085917641754.0
1.0,-1.0,-17.0,-10.0,9.0,3.0,-2.0,-2.0,1651085917641754.0
-1.0,1.0,28.0,14.0,-2.0,-3.0,-1.0,0.0,1651085917642787.0
-2.0,-1.0,-37.0,-11.0,3.0,1.0,1.0,1.0,1651085917642787.0
0.0,0.0,29.0,15.0,-7.0,-6.0,-6.0,-1.0,1651085917656049.0
-2.0,-3.0,-40.0,-26.0,-6.0,-4.0,-2.0,-1.0,1651085917656049.0
0.0,1.0,-10.0,-1.0,0.0,-1.0,0.0,-2.0,1651085917662061.0
0.0,4.0,9.0,5.0,9.0,8.0,10.0,5.0,1651085917662061.0
-2.0,0.0,11.0,4.0,0.0,-4.0,-6.0,-3.0,1651085917678066.0
4.0,4.0,-7.0,8.0,-1.0,1.0,0.0,3.0,1651085917678066.0
-9.0,-7.0,-27.0,-20.0,-7.0,-3.0,0.0,0.0,1651085917680063.0
3.0,-1.0,15.0,16.0,2.0,-1.0,-1.0,-2.0,1651085917680063.0
-1.0,1.0,-5.0,-1.0,6.0,7.0,7.0,3.0,1651085917701428.0
-3.0,-3.0,1.0,-6.0,-6.0,-6.0,-4.0,-2.0,1651085917701428.0
2.0,3.0,18.0,4.0,1.0,1.0,0.0,1.0,1651085917702452.0
-4.0,-5.0,-3.0,2.0,-2.0,-2.0,-4.0,-3.0,1651085917702452.0
-1.0,0.0,11.0,7.0,2.0,3.0,5.0,1.0,1651085917715363.0
1.0,-3.0,-29.0,-15.0,-3.0,-3.0,-2.0,0.0,1651085917715363.0
-3.0,0.0,25.0,22.0,-2.0,-2.0,-4.0,-4.0,1651085917722412.0
-1.0,-2.0,-10.0,-14.0,-7.0,-6.0,-2.0,1.0,1651085917722412.0
1.0,3.0,20.0,10.0,5.0,5.0,2.0,-2.0,1651085917738594.0
-1.0,-3.0,-21.0,-6.0,-4.0,0.0,0.0,-1.0,1651085917738594.0
1.0,-2.0,1.0,2.0,1.0,3.0,2.0,3.0,1651085917739487.0
0.0,4.0,1.0,-5.0,0.0,2.0,0.0,-2.0,1651085917739487.0
-2.0,-2.0,-19.0,-12.0,-2.0,-3.0,-1.0,-2.0,1651085917760411.0
-1.0,1.0,43.0,30.0,4.0,-2.0,1.0,0.0,1651085917760411.0
1.0,2.0,11.0,-2.0,0.0,0.0,1.0,-2.0,1651085917762270.0
-3.0,-5.0,-20.0,-3.0,0.0,-2.0,-1.0,2.0,1651085917762270.0
1.0,-1.0,-12.0,-18.0,-5.0,-2.0,1.0,1.0,1651085917775394.0
4.0,3.0,-15.0,4.0,5.0,4.0,2.0,-1.0,1651085917775394.0
-1.0,0.0,29.0,10.0,-1.0,-4.0,-2.0,-3.0,1651085917783198.0
1.0,1.0,13.0,-2.0,-3.0,-3.0,-3.0,-3.0,1651085917783198.0
2.0,-3.0,5.0,-1.0,2.0,1.0,0.0,1.0,1651085917799074.0
-3.0,-6.0,-28.0,-7.0,-4.0,-3.0,-4.0,-1.0,1651085917799074.0
3.0,3.0,1.0,-13.0,-1.0,3.0,2.0,2.0,1651085917800122.0
1.0,-1.0,-13.0,4.0,1.0,-1.0,0.0,0.0,1651085917800122.0
-4.0,-4.0,-5.0,0.0,-4.0,-3.0,-5.0,-4.0,1651085917821307.0
1.0,1.0,14.0,14.0,22.0,8.0,4.0,3.0,1651085917821307.0
-3.0,3.0,-14.0,-18.0,-1.0,1.0,0.0,1.0,1651085917822309.0
2.0,-4.0,-1.0,5.0,0.0,1.0,1.0,1.0,1651085917822309.0
-1.0,0.0,-7.0,2.0,0.0,-3.0,-3.0,1.0,1651085917834377.0
-3.0,1.0,23.0,-7.0,-7.0,-1.0,1.0,-1.0,1651085917834377.0
-3.0,-1.0,-21.0,-5.0,0.0,-2.0,-2.0,-2.0,1651085917843225.0
-2.0,-1.0,2.0,-8.0,-1.0,3.0,0.0,-1.0,1651085917843225.0
-1.0,-2.0,6.0,5.0,1.0,0.0,1.0,-1.0,1651085917859014.0
-1.0,0.0,6.0,5.0,-5.0,-2.0,0.0,-2.0,1651085917859014.0
0.0,2.0,-3.0,13.0,6.0,3.0,4.0,2.0,1651085917860152.0
-3.0,0.0,5.0,-7.0,-4.0,-2.0,-3.0,-1.0,1651085917860152.0
3.0,-1.0,-4.0,-3.0,-1.0,-1.0,-1.0,-1.0,1651085917881250.0
2.0,2.0,-10.0,-10.0,-2.0,0.0,2.0,3.0,1651085917881250.0
-2.0,-8.0,-25.0,-5.0,-5.0,-5.0,-5.0,-4.0,1651085917882103.0
-1.0,2.0,1.0,6.0,6.0,1.0,-1.0,1.0,1651085917882103.0
0.0,1.0,2.0,2.0,-6.0,-3.0,-1.0,0.0,1651085917894237.0
0.0,-3.0,-3.0,-19.0,-2.0,0.0,1.0,1.0,1651085917894237.0
1.0,-1.0,-1.0,10.0,0.0,-3.0,-2.0,0.0,1651085917903355.0
-2.0,2.0,13.0,7.0,2.0,1.0,-1.0,-1.0,1651085917903355.0
2.0,-4.0,-29.0,-24.0,-6.0,1.0,1.0,0.0,1651085917918218.0
-2.0,2.0,-2.0,8.0,-3.0,-2.0,-2.0,-4.0,1651085917918218.0
-1.0,2.0,19.0,13.0,1.0,2.0,1.0,6.0,1651085917920248.0
-1.0,-4.0,7.0,-5.0,-1.0,-3.0,-3.0,-3.0,1651085917920248.0
0.0,3.0,-3.0,1.0,0.0,0.0,2.0,-1.0,1651085917941569.0
1.0,-1.0,1.0,-3.0,0.0,0.0,1.0,1.0,1651085917941569.0
3.0,3.0,5.0,1.0,2.0,2.0,2.0,0.0,1651085917948572.0
-2.0,-1.0,6.0,-7.0,-2.0,-3.0,-2.0,0.0,1651085917948572.0
-2.0,-2.0,22.0,19.0,3.0,1.0,0.0,0.0,1651085917954565.0
-2.0,-3.0,-19.0,-11.0,-2.0,-2.0,-2.0,-1.0,1651085917954565.0
-1.0,0.0,5.0,-4.0,-2.0,1.0,-1.0,0.0,1651085917963217.0
6.0,5.0,10.0,10.0,1.0,1.0,0.0,-1.0,1651085917963217.0
-4.0,-4.0,4.0,10.0,-1.0,-1.0,0.0,-4.0,1651085917978718.0
0.0,1.0,19.0,3.0,-4.0,-3.0,-4.0,-1.0,1651085917978718.0
-6.0,-3.0,-24.0,-7.0,-1.0,-3.0,-3.0,-4.0,1651085917979585.0
1.0,0.0,-21.0,-12.0,-4.0,-2.0,0.0,0.0,1651085917979585.0
-1.0,2.0,7.0,13.0,0.0,1.0,0.0,0.0,1651085918001261.0
1.0,-1.0,-5.0,-3.0,8.0,0.0,1.0,0.0,1651085918001261.0
-2.0,-5.0,-11.0,2.0,1.0,4.0,0.0,-2.0,1651085918002247.0
-1.0,2.0,8.0,-1.0,-2.0,-2.0,1.0,-1.0,1651085918002247.0
-1.0,0.0,-9.0,-7.0,-1.0,1.0,0.0,1.0,1651085918015356.0
-5.0,-6.0,11.0,4.0,-8.0,-3.0,-6.0,-3.0,1651085918015356.0
-2.0,2.0,7.0,-3.0,-7.0,-4.0,-3.0,-2.0,1651085918023207.0
-2.0,-2.0,-6.0,2.0,5.0,0.0,1.0,-2.0,1651085918023207.0
-2.0,4.0,2.0,-2.0,-2.0,1.0,2.0,0.0,1651085918038367.0
-1.0,0.0,-4.0,-3.0,-2.0,-1.0,0.0,-1.0,1651085918038367.0
2.0,-1.0,2.0,-4.0,-3.0,0.0,0.0,1.0,1651085918040244.0
-2.0,-6.0,-13.0,-7.0,-4.0,-2.0,-2.0,-3.0,1651085918040244.0
0.0,2.0,-1.0,2.0,8.0,4.0,2.0,1.0,1651085918061253.0
0.0,0.0,-4.0,-5.0,-2.0,-1.0,3.0,1.0,1651085918061253.0
1.0,0.0,7.0,-2.0,-3.0,-3.0,-2.0,-3.0,1651085918067365.0
-1.0,0.0,2.0,-2.0,-10.0,-4.0,-1.0,1.0,1651085918067365.0
1.0,-2.0,-7.0,-2.0,6.0,0.0,-2.0,-1.0,1651085918074687.0
-1.0,0.0,0.0,0.0,-5.0,-3.0,-2.0,-3.0,1651085918074687.0
1.0,2.0,1.0,4.0,7.0,-1.0,-1.0,-2.0,1651085918083687.0
-1.0,0.0,1.0,-1.0,-2.0,1.0,2.0,2.0,1651085918083687.0
-1.0,-2.0,-5.0,-7.0,1.0,-5.0,0.0,-2.0,1651085918098983.0
-2.0,2.0,6.0,6.0,4.0,8.0,4.0,1.0,1651085918098983.0
0.0,-2.0,-3.0,-4.0,-3.0,-2.0,0.0,0.0,1651085918099983.0
1.0,1.0,-2.0,0.0,7.0,1.0,0.0,0.0,1651085918099983.0
-3.0,0.0,1.0,0.0,-7.0,-3.0,-4.0,0.0,1651085918121340.0
1.0,-1.0,0.0,-1.0,0.0,0.0,-2.0,-1.0,1651085918121340.0
4.0,-1.0,5.0,-5.0,-1.0,0.0,0.0,1.0,1651085918122199.0
0.0,3.0,-6.0,2.0,0.0,2.0,-1.0,-1.0,1651085918122199.0
0.0,-3.0,-1.0,-4.0,-5.0,-5.0,-1.0,-2.0,1651085918135301.0
-1.0,0.0,0.0,1.0,1.0,-1.0,-2.0,-1.0,1651085918135301.0
1.0,1.0,2.0,3.0,3.0,3.0,1.0,3.0,1651085918143214.0
-3.0,-1.0,5.0,3.0,2.0,0.0,-1.0,-1.0,1651085918143214.0
0.0,-5.0,-5.0,-3.0,-1.0,1.0,-2.0,-2.0,1651085918158510.0
-1.0,0.0,-4.0,-4.0,-5.0,-3.0,-2.0,0.0,1651085918158510.0
0.0,0.0,1.0,1.0,1.0,-3.0,-1.0,-1.0,1651085918160566.0
0.0,3.0,2.0,3.0,2.0,-2.0,0.0,0.0,1651085918160566.0
2.0,2.0,-3.0,-1.0,2.0,2.0,-1.0,-2.0,1651085918182493.0
4.0,5.0,-1.0,-1.0,1.0,-4.0,0.0,1.0,1651085918182493.0
-2.0,-9.0,-3.0,-2.0,-2.0,1.0,-2.0,0.0,1651085918183493.0
-8.0,-11.0,0.0,-3.0,-4.0,-1.0,0.0,-1.0,1651085918183493.0
-1.0,-4.0,-2.0,-2.0,0.0,0.0,1.0,1.0,1651085918203236.0
3.0,3.0,3.0,2.0,0.0,0.0,2.0,-1.0,1651085918203236.0
0.0,5.0,-1.0,0.0,0.0,-2.0,1.0,0.0,1651085918205124.0
2.0,1.0,0.0,-1.0,-1.0,2.0,-2.0,1.0,1651085918205124.0
0.0,0.0,-1.0,-1.0,-1.0,-1.0,0.0,0.0,1651085918217292.0
-4.0,-5.0,-2.0,-2.0,0.0,0.0,-4.0,-1.0,1651085918217292.0
-1.0,-3.0,0.0,-1.0,0.0,-1.0,0.0,-1.0,1651085918225397.0
0.0,0.0,4.0,1.0,0.0,1.0,0.0,0.0,1651085918225397.0
0.0,2.0,-1.0,-1.0,0.0,2.0,-2.0,3.0,1651085918249156.0
-1.0,-1.0,-3.0,2.0,-2.0,-1.0,0.0,0.0,1651085918249156.0
-2.0,-2.0,-4.0,-3.0,-3.0,-3.0,-1.0,-1.0,1651085918256265.0
1.0,2.0,0.0,2.0,4.0,-1.0,1.0,-1.0,1651085918256265.0
-1.0,0.0,0.0,-2.0,-2.0,0.0,-1.0,-2.0,1651085918264240.0
-1.0,-3.0,0.0,0.0,-2.0,-1.0,0.0,-2.0,1651085918264240.0
-1.0,-1.0,0.0,-1.0,-3.0,-1.0,0.0,0.0,1651085918265118.0
2.0,0.0,1.0,1.0,-2.0,-1.0,0.0,0.0,1651085918265118.0
-1.0,-2.0,-2.0,-2.0,-2.0,-3.0,-2.0,-1.0,1651085918277253.0
-2.0,-3.0,-2.0,0.0,2.0,3.0,0.0,1.0,1651085918277253.0
-1.0,1.0,-1.0,0.0,-1.0,-2.0,0.0,0.0,1651085918286186.0
0.0,-1.0,0.0,-3.0,-3.0,-1.0,1.0,-1.0,1651085918286186.0
-4.0,-1.0,0.0,-1.0,2.0,3.0,1.0,-2.0,1651085918300594.0
-3.0,-1.0,0.0,1.0,-1.0,-4.0,0.0,0.0,1651085918300594.0
-1.0,1.0,2.0,1.0,0.0,1.0,-1.0,-1.0,1651085918302464.0
0.0,-1.0,-3.0,-3.0,-3.0,-2.0,-3.0,0.0,1651085918302464.0
0.0,0.0,-3.0,-2.0,-1.0,-2.0,0.0,-1.0,1651085918324224.0
0.0,0.0,3.0,3.0,2.0,2.0,0.0,0.0,1651085918324224.0
-2.0,0.0,-1.0,1.0,0.0,0.0,0.0,1.0,1651085918325221.0
0.0,0.0,-1.0,1.0,-2.0,-2.0,0.0,1.0,1651085918325221.0
0.0,3.0,-1.0,-3.0,-2.0,-1.0,-2.0,0.0,1651085918337334.0
-2.0,0.0,-2.0,0.0,3.0,1.0,0.0,-1.0,1651085918337334.0
-1.0,-1.0,1.0,-2.0,-1.0,-3.0,-1.0,0.0,1651085918346180.0
-1.0,1.0,0.0,0.0,0.0,3.0,-2.0,0.0,1651085918346180.0
-1.0,0.0,-2.0,0.0,-2.0,-3.0,1.0,0.0,1651085918361196.0
-1.0,-1.0,0.0,-3.0,-2.0,-2.0,-1.0,-1.0,1651085918361196.0
-1.0,0.0,0.0,-1.0,-3.0,-1.0,-2.0,0.0,1651085918362196.0
0.0,-1.0,-1.0,0.0,0.0,-1.0,0.0,-1.0,1651085918362196.0
0.0,-2.0,1.0,2.0,3.0,2.0,1.0,0.0,1651085918383229.0
-3.0,-1.0,1.0,-2.0,-4.0,-1.0,-1.0,-2.0,1651085918383229.0
-1.0,1.0,-1.0,0.0,3.0,-2.0,0.0,0.0,1651085918385261.0
1.0,-1.0,0.0,-1.0,0.0,4.0,-1.0,0.0,1651085918385261.0
-2.0,0.0,-1.0,-4.0,-3.0,-2.0,-1.0,0.0,1651085918406402.0
-2.0,-1.0,0.0,-2.0,-1.0,-1.0,-1.0,0.0,1651085918406402.0
1.0,-1.0,-2.0,-2.0,-1.0,1.0,0.0,-1.0,1651085918407232.0
-1.0,0.0,-1.0,0.0,0.0,-1.0,-2.0,-3.0,1651085918407232.0
1.0,-1.0,0.0,2.0,0.0,-2.0,-1.0,-1.0,1651085918421397.0
2.0,-3.0,-2.0,-3.0,-3.0,-2.0,-1.0,-1.0,1651085918421397.0
0.0,0.0,0.0,-1.0,-2.0,-2.0,0.0,0.0,1651085918422229.0
-1.0,-1.0,-1.0,-2.0,0.0,-1.0,-1.0,-1.0,1651085918422229.0
-2.0,-2.0,0.0,0.0,-2.0,1.0,0.0,-2.0,1651085918443233.0
-1.0,1.0,0.0,1.0,1.0,2.0,-1.0,-2.0,1651085918443233.0
-3.0,0.0,-1.0,1.0,2.0,1.0,-1.0,-1.0,1651085918445231.0
0.0,0.0,-1.0,1.0,0.0,-3.0,0.0,1.0,1651085918445231.0
-2.0,-1.0,-1.0,-2.0,-3.0,-3.0,-1.0,-1.0,1651085918457535.0
-1.0,-1.0,-4.0,-1.0,-1.0,-2.0,-1.0,1.0,1651085918457535.0
-1.0,-3.0,-1.0,-2.0,-1.0,0.0,-1.0,-1.0,1651085918465666.0
0.0,-1.0,-1.0,0.0,2.0,-2.0,1.0,0.0,1651085918465666.0
-1.0,-1.0,0.0,1.0,0.0,0.0,0.0,0.0,1651085918481884.0
-1.0,1.0,-1.0,-1.0,-2.0,-3.0,0.0,-2.0,1651085918481884.0
-1.0,-1.0,-1.0,-1.0,3.0,5.0,-1.0,-3.0,1651085918482706.0
0.0,-1.0,-2.0,-1.0,-5.0,-5.0,0.0,2.0,1651085918482706.0
0.0,1.0,-2.0,-2.0,-1.0,-1.0,-1.0,1.0,1651085918503191.0
2.0,-1.0,-2.0,-1.0,-3.0,-4.0,-2.0,-1.0,1651085918503191.0
-1.0,-1.0,0.0,1.0,1.0,0.0,0.0,-3.0,1651085918510417.0
-2.0,-1.0,1.0,2.0,3.0,5.0,0.0,-1.0,1651085918510417.0
0.0,-1.0,-1.0,1.0,-1.0,-1.0,-1.0,-1.0,1651085918519122.0
-1.0,-1.0,-2.0,-2.0,-4.0,1.0,0.0,1.0,1651085918519122.0
1.0,1.0,-1.0,-2.0,-6.0,-3.0,-1.0,0.0,1651085918525228.0
-1.0,0.0,1.0,2.0,4.0,1.0,0.0,-2.0,1651085918525228.0
0.0,0.0,0.0,1.0,1.0,3.0,2.0,-1.0,1651085918541200.0
1.0,0.0,-2.0,-2.0,0.0,-1.0,0.0,-1.0,1651085918541200.0
0.0,-1.0,-2.0,-1.0,-2.0,-1.0,-2.0,1.0,1651085918542197.0
-2.0,-1.0,-1.0,-2.0,2.0,0.0,2.0,-1.0,1651085918542197.0
-1.0,-1.0,0.0,-1.0,-3.0,-3.0,-1.0,-3.0,1651085918563320.0
-2.0,1.0,0.0,1.0,1.0,1.0,0.0,0.0,1651085918563320.0
0.0,-1.0,-1.0,1.0,-1.0,-1.0,-1.0,0.0,1651085918565218.0
-2.0,-3.0,-2.0,-3.0,-5.0,-5.0,-3.0,-1.0,1651085918565218.0
-2.0,1.0,-1.0,-4.0,0.0,-1.0,-1.0,-1.0,1651085918577397.0
-1.0,-3.0,2.0,4.0,5.0,4.0,3.0,1.0,1651085918577397.0
0.0,0.0,0.0,1.0,-1.0,-2.0,0.0,-1.0,1651085918584305.0
1.0,0.0,-1.0,-1.0,-1.0,-1.0,-1.0,0.0,1651085918584305.0
-1.0,0.0,-2.0,-1.0,0.0,0.0,0.0,0.0,1651085918601202.0
-2.0,-1.0,0.0,-2.0,-3.0,-3.0,-2.0,-1.0,1651085918601202.0
-1.0,0.0,1.0,-1.0,1.0,1.0,-1.0,0.0,1651085918602199.0
0.0,-1.0,-1.0,-2.0,-3.0,0.0,-2.0,0.0,1651085918602199.0
-1.0,-1.0,-1.0,-1.0,0.0,-1.0,0.0,-2.0,1651085918624234.0
0.0,1.0,-1.0,-2.0,-2.0,-1.0,1.0,-1.0,1651085918624234.0
-1.0,1.0,-1.0,-1.0,-1.0,-2.0,2.0,1.0,1651085918625220.0
-1.0,-1.0,-2.0,0.0,3.0,5.0,0.0,-1.0,1651085918625220.0
-1.0,1.0,0.0,4.0,2.0,-2.0,0.0,-1.0,1651085918638134.0
0.0,-1.0,-2.0,-1.0,1.0,-1.0,-1.0,1.0,1651085918638134.0
0.0,0.0,-1.0,-2.0,0.0,-2.0,0.0,-2.0,1651085918644096.0
-2.0,1.0,0.0,-4.0,-3.0,-2.0,0.0,-2.0,1651085918644096.0
2.0,-1.0,-3.0,-4.0,-4.0,-3.0,-1.0,0.0,1651085918661100.0
-1.0,-1.0,0.0,-1.0,-1.0,-1.0,-1.0,-2.0,1651085918661100.0
-2.0,-1.0,1.0,4.0,5.0,4.0,1.0,0.0,1651085918662102.0
-2.0,-2.0,0.0,0.0,3.0,3.0,1.0,-1.0,1651085918662102.0
0.0,-1.0,0.0,-1.0,1.0,2.0,-1.0,0.0,1651085918683690.0
-2.0,2.0,0.0,0.0,-2.0,-4.0,-3.0,0.0,1651085918683690.0
1.0,0.0,-3.0,-3.0,-3.0,0.0,-1.0,0.0,1651085918684522.0
0.0,1.0,0.0,0.0,-2.0,-2.0,-1.0,-1.0,1651085918684522.0
0.0,-1.0,0.0,-2.0,-1.0,1.0,-1.0,-2.0,1651085918697398.0
1.0,-2.0,-2.0,0.0,-2.0,0.0,-1.0,-3.0,1651085918697398.0
0.0,-1.0,-1.0,0.0,0.0,-2.0,0.0,0.0,1651085918713223.0
0.0,0.0,0.0,0.0,0.0,0.0,0.0,-1.0,1651085918713223.0
0.0,-1.0,0.0,-3.0,-2.0,-2.0,-1.0,0.0,1651085918721380.0
1.0,-2.0,-1.0,-1.0,0.0,-1.0,0.0,-1.0,1651085918721380.0
0.0,-1.0,0.0,0.0,1.0,-1.0,-1.0,-1.0,1651085918722254.0
0.0,-1.0,0.0,1.0,4.0,1.0,1.0,-1.0,1651085918722254.0
0.0,-2.0,3.0,2.0,2.0,0.0,0.0,0.0,1651085918743402.0
0.0,1.0,0.0,-3.0,1.0,1.0,0.0,0.0,1651085918743402.0
-2.0,-3.0,-1.0,0.0,1.0,0.0,0.0,-1.0,1651085918745246.0
0.0,-2.0,-2.0,-2.0,-3.0,-1.0,0.0,2.0,1651085918745246.0
-1.0,0.0,-2.0,-2.0,-2.0,-2.0,0.0,-1.0,1651085918757390.0
0.0,1.0,0.0,-1.0,-2.0,-1.0,-1.0,0.0,1651085918757390.0
-1.0,-2.0,-2.0,-2.0,-1.0,-1.0,-2.0,-2.0,1651085918766205.0
-2.0,0.0,2.0,2.0,0.0,-2.0,-1.0,0.0,1651085918766205.0
-2.0,0.0,-1.0,1.0,2.0,2.0,1.0,0.0,1651085918781285.0
-1.0,0.0,-1.0,1.0,-1.0,1.0,-1.0,0.0,1651085918781285.0
0.0,1.0,-2.0,-1.0,-3.0,0.0,0.0,-1.0,1651085918782410.0
-1.0,-2.0,1.0,-1.0,-1.0,-1.0,1.0,-1.0,1651085918782410.0
-1.0,-1.0,-1.0,0.0,-1.0,-2.0,0.0,1.0,1651085918804375.0
-1.0,0.0,-2.0,-2.0,-3.0,-4.0,-1.0,-1.0,1651085918804375.0
0.0,-1.0,-2.0,-1.0,0.0,1.0,0.0,-3.0,1651085918805270.0
1.0,0.0,-2.0,-1.0,2.0,0.0,-1.0,-1.0,1651085918805270.0
0.0,-1.0,-1.0,-2.0,-1.0,-1.0,0.0,-1.0,1651085918816426.0
0.0,-1.0,0.0,0.0,1.0,1.0,2.0,-1.0,1651085918816426.0
0.0,0.0,0.0,-2.0,-1.0,-1.0,-2.0,-1.0,1651085918825436.0
-1.0,1.0,-1.0,-1.0,-2.0,-2.0,-1.0,-1.0,1651085918825436.0
0.0,0.0,-1.0,1.0,0.0,1.0,0.0,0.0,1651085918840396.0
-2.0,-2.0,-2.0,0.0,0.0,-1.0,1.0,-2.0,1651085918840396.0
-1.0,0.0,-1.0,-1.0,-2.0,-1.0,2.0,-1.0,1651085918842361.0
1.0,-1.0,-2.0,-1.0,-3.0,-1.0,-1.0,-1.0,1651085918842361.0
0.0,-1.0,0.0,1.0,-1.0,-3.0,1.0,2.0,1651085918864332.0
0.0,0.0,0.0,0.0,-2.0,-1.0,-2.0,0.0,1651085918864332.0
0.0,-1.0,-1.0,1.0,5.0,6.0,0.0,1.0,1651085918866329.0
0.0,0.0,-1.0,0.0,0.0,-2.0,0.0,1.0,1651085918866329.0
-1.0,-1.0,-2.0,-1.0,-1.0,-1.0,0.0,-2.0,1651085918877298.0
1.0,-2.0,-2.0,-2.0,0.0,1.0,0.0,-1.0,1651085918877298.0
-1.0,-2.0,1.0,-1.0,-4.0,0.0,1.0,-1.0,1651085918886242.0
-1.0,0.0,1.0,-1.0,-1.0,0.0,0.0,0.0,1651085918886242.0
1.0,-1.0,-1.0,-1.0,-1.0,-1.0,-3.0,-1.0,1651085918900633.0
0.0,-1.0,0.0,1.0,1.0,-1.0,-1.0,-1.0,1651085918900633.0
-1.0,-1.0,1.0,2.0,-1.0,-3.0,0.0,-1.0,1651085918902598.0
-1.0,0.0,-2.0,-2.0,-1.0,2.0,-1.0,-2.0,1651085918902598.0
-2.0,0.0,-1.0,-2.0,-3.0,-3.0,-1.0,-1.0,1651085918923541.0
0.0,-3.0,0.0,-2.0,-2.0,-3.0,-2.0,-1.0,1651085918923541.0
-2.0,0.0,3.0,1.0,2.0,2.0,1.0,2.0,1651085918924540.0
-1.0,-1.0,-1.0,-1.0,1.0,3.0,-1.0,0.0,1651085918924540.0
-1.0,-2.0,-3.0,-2.0,0.0,-1.0,0.0,-1.0,1651085918936508.0
-1.0,-1.0,-1.0,-2.0,1.0,-1.0,-1.0,1.0,1651085918936508.0
0.0,-1.0,-2.0,0.0,-3.0,-6.0,-2.0,2.0,1651085918945485.0
0.0,-1.0,-1.0,0.0,-2.0,0.0,1.0,-1.0,1651085918945485.0
-1.0,-1.0,-1.0,-3.0,0.0,1.0,-1.0,-1.0,1651085918960444.0
0.0,0.0,-2.0,-3.0,-3.0,0.0,1.0,-1.0,1651085918960444.0
0.0,0.0,-1.0,-1.0,-2.0,-3.0,-2.0,0.0,1651085918962439.0
0.0,-1.0,0.0,1.0,4.0,0.0,0.0,0.0,1651085918962439.0
0.0,-1.0,0.0,0.0,-1.0,1.0,-2.0,0.0,1651085918983383.0
-2.0,-1.0,-2.0,1.0,3.0,3.0,1.0,1.0,1651085918983383.0
-1.0,-1.0,-2.0,-3.0,-2.0,-2.0,-3.0,-2.0,1651085918991361.0
0.0,1.0,-2.0,0.0,0.0,-1.0,0.0,0.0,1651085918991361.0
1.0,-2.0,1.0,0.0,0.0,2.0,0.0,0.0,1651085918996376.0
0.0,-1.0,0.0,-1.0,-1.0,-3.0,0.0,1.0,1651085918996376.0
1.0,2.0,-1.0,-2.0,-2.0,0.0,-1.0,-1.0,1651085919005355.0
0.0,0.0,-3.0,-3.0,-2.0,-1.0,-1.0,0.0,1651085919005355.0
-2.0,-2.0,0.0,-1.0,-1.0,0.0,-1.0,0.0,1651085919020284.0
0.0,1.0,-1.0,1.0,-1.0,0.0,-1.0,-1.0,1651085919020284.0
0.0,2.0,0.0,0.0,2.0,0.0,0.0,-1.0,1651085919027265.0
0.0,0.0,0.0,-1.0,-4.0,-2.0,-1.0,-1.0,1651085919027265.0
-2.0,0.0,0.0,0.0,1.0,-2.0,-1.0,0.0,1651085919043221.0
0.0,-2.0,0.0,1.0,3.0,3.0,2.0,-1.0,1651085919043221.0
-1.0,-1.0,0.0,-2.0,0.0,0.0,0.0,0.0,1651085919049205.0
1.0,-3.0,0.0,0.0,3.0,2.0,-1.0,0.0,1651085919049205.0
1.0,0.0,-2.0,-2.0,-3.0,-3.0,0.0,0.0,1651085919057184.0
-2.0,-1.0,0.0,-1.0,-4.0,-1.0,-2.0,-2.0,1651085919057184.0
-2.0,-3.0,0.0,0.0,-2.0,-2.0,-1.0,-1.0,1651085919066161.0
0.0,-2.0,2.0,-3.0,-3.0,-3.0,0.0,-1.0,1651085919066161.0
1.0,1.0,0.0,-2.0,-5.0,-2.0,-2.0,-3.0,1651085919081162.0
-1.0,-1.0,0.0,4.0,8.0,4.0,1.0,1.0,1651085919081162.0
-1.0,0.0,0.0,1.0,5.0,6.0,2.0,0.0,1651085919082120.0
0.0,0.0,-1.0,-3.0,-4.0,-3.0,-1.0,0.0,1651085919082120.0
0.0,1.0,0.0,-1.0,-4.0,-3.0,-1.0,-1.0,1651085919103105.0
1.0,0.0,-2.0,-5.0,-4.0,-1.0,-1.0,1.0,1651085919103105.0
-1.0,-1.0,-3.0,0.0,-1.0,-1.0,-1.0,-1.0,1651085919105093.0
-2.0,0.0,-1.0,0.0,-1.0,-1.0,0.0,-2.0,1651085919105093.0
-1.0,-2.0,-2.0,0.0,3.0,-2.0,0.0,-1.0,1651085919126000.0
0.0,0.0,0.0,-3.0,-3.0,-3.0,-2.0,0.0,1651085919126000.0
-1.0,-2.0,0.0,-1.0,-1.0,1.0,-1.0,-2.0,1651085919126997.0
0.0,1.0,0.0,2.0,2.0,2.0,1.0,0.0,1651085919126997.0
-2.0,1.0,-1.0,-1.0,1.0,0.0,0.0,-1.0,1651085919140960.0
-1.0,-1.0,1.0,0.0,0.0,1.0,0.0,0.0,1651085919140960.0
-2.0,1.0,-1.0,-3.0,-3.0,-1.0,-1.0,0.0,1651085919141957.0
-1.0,-1.0,-1.0,-1.0,-3.0,-3.0,-1.0,-1.0,1651085919141957.0
-1.0,0.0,-1.0,2.0,0.0,2.0,-1.0,1.0,1651085919162901.0
-1.0,0.0,-1.0,-1.0,1.0,1.0,0.0,-1.0,1651085919162901.0
0.0,-1.0,-1.0,0.0,1.0,-2.0,1.0,0.0,1651085919164896.0
0.0,-3.0,1.0,-1.0,0.0,-2.0,-3.0,0.0,1651085919164896.0
2.0,-1.0,0.0,1.0,-2.0,1.0,0.0,0.0,1651085919185840.0
0.0,-1.0,-3.0,-1.0,-6.0,-4.0,-1.0,-1.0,1651085919185840.0
0.0,0.0,0.0,1.0,-1.0,-2.0,0.0,0.0,1651085919186837.0
-1.0,0.0,0.0,0.0,4.0,5.0,1.0,0.0,1651085919186837.0
0.0,0.0,0.0,-1.0,3.0,-1.0,-2.0,0.0,1651085919200800.0
0.0,0.0,-2.0,-1.0,-4.0,-5.0,-3.0,-1.0,1651085919200800.0
0.0,-2.0,0.0,0.0,4.0,1.0,-1.0,-1.0,1651085919202795.0
-1.0,-1.0,-1.0,-1.0,1.0,2.0,2.0,1.0,1651085919202795.0
-1.0,-1.0,-1.0,-2.0,-3.0,-2.0,-1.0,0.0,1651085919222741.0
0.0,0.0,-1.0,-2.0,-2.0,0.0,-1.0,0.0,1651085919222741.0
0.0,1.0,-1.0,1.0,-1.0,-2.0,-1.0,-1.0,1651085919224736.0
0.0,0.0,-1.0,0.0,-1.0,-1.0,-2.0,-2.0,1651085919224736.0
-2.0,0.0,2.0,1.0,-1.0,2.0,-1.0,0.0,1651085919245681.0
-1.0,-2.0,0.0,-1.0,-1.0,-1.0,-1.0,-2.0,1651085919245681.0
1.0,-1.0,-1.0,-2.0,-1.0,-1.0,1.0,1.0,1651085919247707.0
0.0,0.0,0.0,-1.0,-1.0,-1.0,-2.0,-1.0,1651085919247707.0
0.0,0.0,-2.0,-1.0,1.0,0.0,0.0,-1.0,1651085919259672.0
0.0,-1.0,-2.0,1.0,1.0,-1.0,0.0,-1.0,1651085919259672.0
0.0,-1.0,-1.0,0.0,0.0,1.0,-2.0,-1.0,1651085919268619.0
0.0,0.0,-3.0,-1.0,-3.0,-1.0,0.0,0.0,1651085919268619.0
0.0,-1.0,-2.0,-1.0,-1.0,-2.0,0.0,-3.0,1651085919283578.0
0.0,1.0,-1.0,-4.0,-3.0,-1.0,-1.0,0.0,1651085919283578.0
-2.0,0.0,-2.0,-1.0,-5.0,-3.0,-1.0,-1.0,1651085919284576.0
-1.0,2.0,4.0,4.0,3.0,-2.0,-1.0,0.0,1651085919284576.0
-2.0,-9.0,-14.0,-2.0,5.0,6.0,0.0,-1.0,1651085919305520.0
0.0,0.0,2.0,-1.0,-1.0,-5.0,2.0,1.0,1651085919305520.0
0.0,-2.0,-1.0,-4.0,-2.0,1.0,-1.0,0.0,1651085919307549.0
-1.0,-1.0,-1.0,-3.0,-3.0,-3.0,-1.0,0.0,1651085919307549.0
1.0,2.0,4.0,1.0,-4.0,-2.0,-1.0,-1.0,1651085919320342.0
1.0,-1.0,-1.0,-1.0,2.0,2.0,0.0,-1.0,1651085919320342.0
-1.0,0.0,-2.0,1.0,1.0,-3.0,-1.0,0.0,1651085919327322.0
0.0,-2.0,-1.0,0.0,0.0,-1.0,0.0,0.0,1651085919327322.0
-1.0,0.0,1.0,0.0,1.0,-2.0,-1.0,0.0,1651085919343203.0
-1.0,0.0,-2.0,-2.0,-5.0,-3.0,-3.0,-1.0,1651085919343203.0
0.0,-3.0,0.0,-3.0,-1.0,0.0,-1.0,-1.0,1651085919345249.0
0.0,-1.0,3.0,-4.0,-9.0,-1.0,-2.0,-1.0,1651085919345249.0
-1.0,-3.0,-11.0,-9.0,-5.0,-1.0,-1.0,-2.0,1651085919366288.0
-2.0,5.0,11.0,11.0,12.0,8.0,3.0,0.0,1651085919366288.0
0.0,2.0,0.0,0.0,6.0,-1.0,0.0,-2.0,1651085919367204.0
-2.0,-9.0,-5.0,9.0,17.0,6.0,2.0,-2.0,1651085919367204.0
0.0,-6.0,3.0,5.0,-3.0,-2.0,-1.0,0.0,1651085919380111.0
1.0,20.0,9.0,-5.0,-6.0,-1.0,-4.0,-1.0,1651085919380111.0
0.0,1.0,-3.0,-4.0,-2.0,2.0,0.0,2.0,1651085919387095.0
-2.0,3.0,0.0,-6.0,-7.0,-1.0,-1.0,0.0,1651085919387095.0
-1.0,2.0,9.0,-2.0,-3.0,-5.0,-1.0,-1.0,1651085919403351.0
-4.0,-16.0,-19.0,5.0,2.0,-2.0,0.0,0.0,1651085919403351.0
-1.0,-4.0,4.0,8.0,12.0,6.0,2.0,0.0,1651085919405232.0
0.0,-4.0,-4.0,-6.0,-4.0,-5.0,0.0,-3.0,1651085919405232.0
-1.0,4.0,0.0,-4.0,-2.0,-1.0,1.0,-1.0,1651085919426288.0
1.0,-7.0,-1.0,-4.0,-8.0,-3.0,-1.0,0.0,1651085919426288.0
-1.0,11.0,-3.0,-1.0,-3.0,-8.0,-3.0,-1.0,1651085919427199.0
-2.0,-2.0,-1.0,-3.0,-7.0,-2.0,-1.0,1.0,1651085919427199.0
1.0,4.0,-5.0,-10.0,-4.0,0.0,1.0,2.0,1651085919440366.0
-1.0,-4.0,11.0,5.0,10.0,-1.0,-1.0,-1.0,1651085919440366.0
0.0,-14.0,0.0,13.0,4.0,3.0,1.0,-1.0,1651085919447362.0
0.0,21.0,4.0,-12.0,5.0,4.0,0.0,-2.0,1651085919447362.0
-3.0,0.0,4.0,7.0,-1.0,-3.0,-1.0,-2.0,1651085919463211.0
0.0,-6.0,-3.0,-15.0,-21.0,-8.0,-3.0,-1.0,1651085919463211.0
-4.0,-11.0,-14.0,-7.0,5.0,6.0,1.0,0.0,1651085919465242.0
4.0,22.0,5.0,25.0,28.0,11.0,4.0,3.0,1651085919465242.0
-7.0,-8.0,1.0,3.0,13.0,4.0,-2.0,-4.0,1651085919486021.0
1.0,-2.0,-2.0,1.0,12.0,2.0,-1.0,-1.0,1651085919486021.0
0.0,1.0,5.0,-5.0,-18.0,-9.0,-4.0,-1.0,1651085919486875.0
-1.0,-14.0,-18.0,-14.0,-27.0,-15.0,-5.0,-1.0,1651085919486875.0
1.0,-1.0,2.0,-8.0,10.0,5.0,3.0,3.0,1651085919499987.0
-2.0,2.0,4.0,13.0,13.0,8.0,2.0,0.0,1651085919499987.0
2.0,9.0,1.0,-27.0,-26.0,-7.0,-3.0,-1.0,1651085919506822.0
-1.0,-10.0,2.0,21.0,32.0,9.0,1.0,0.0,1651085919506822.0
1.0,-1.0,-1.0,17.0,-2.0,-2.0,0.0,2.0,1651085919524326.0
-3.0,-6.0,-8.0,-7.0,-5.0,-3.0,0.0,-2.0,1651085919524326.0
-1.0,0.0,1.0,-3.0,12.0,4.0,1.0,1.0,1651085919525274.0
-1.0,-2.0,-3.0,-12.0,-26.0,-7.0,-3.0,-2.0,1651085919525274.0
-2.0,4.0,0.0,3.0,0.0,-6.0,-3.0,-3.0,1651085919545363.0
1.0,-9.0,0.0,-8.0,-1.0,5.0,4.0,2.0,1651085919545363.0
-1.0,6.0,-3.0,10.0,8.0,5.0,1.0,1.0,1651085919546261.0
1.0,0.0,4.0,-5.0,-9.0,-7.0,-1.0,0.0,1651085919546261.0
0.0,-1.0,-3.0,-14.0,-15.0,-8.0,-3.0,-2.0,1651085919568481.0
0.0,0.0,-10.0,0.0,15.0,6.0,0.0,0.0,1651085919568481.0
0.0,-3.0,12.0,1.0,-3.0,0.0,-2.0,-1.0,1651085919569115.0
-4.0,-5.0,-2.0,5.0,3.0,-1.0,-1.0,-3.0,1651085919569115.0
2.0,0.0,-1.0,-10.0,-19.0,-7.0,-1.0,0.0,1651085919583234.0
-1.0,2.0,-3.0,-5.0,-16.0,-3.0,-1.0,0.0,1651085919583234.0
-2.0,0.0,-2.0,-2.0,5.0,0.0,2.0,1.0,1651085919583234.0
-1.0,0.0,2.0,-4.0,-12.0,-1.0,1.0,0.0,1651085919583234.0
0.0,-3.0,-9.0,-5.0,4.0,-3.0,-2.0,-3.0,1651085919605388.0
-1.0,6.0,4.0,14.0,-2.0,-1.0,-4.0,-4.0,1651085919605388.0
-1.0,-5.0,18.0,4.0,-12.0,-4.0,1.0,-1.0,1651085919606255.0
1.0,0.0,9.0,-6.0,4.0,0.0,0.0,-1.0,1651085919606255.0
-5.0,-10.0,-46.0,-14.0,-7.0,-3.0,-1.0,-2.0,1651085919620399.0
-3.0,1.0,6.0,-6.0,-7.0,0.0,-1.0,0.0,1651085919620399.0
0.0,1.0,-3.0,19.0,15.0,-2.0,-2.0,0.0,1651085919627916.0
0.0,-3.0,28.0,-10.0,-7.0,-5.0,-4.0,-2.0,1651085919627916.0
1.0,8.0,8.0,10.0,5.0,3.0,-3.0,-1.0,1651085919643217.0
1.0,2.0,2.0,-3.0,10.0,5.0,1.0,1.0,1651085919643217.0
-1.0,-4.0,-19.0,-5.0,-11.0,-4.0,-1.0,0.0,1651085919643217.0
-3.0,-3.0,-17.0,-19.0,-20.0,-3.0,0.0,-2.0,1651085919643217.0
2.0,0.0,35.0,16.0,21.0,14.0,6.0,4.0,1651085919666384.0
-3.0,-1.0,-7.0,-3.0,-16.0,-14.0,-8.0,-4.0,1651085919666384.0
2.0,3.0,-9.0,-10.0,13.0,9.0,4.0,1.0,1651085919667225.0
-2.0,-4.0,-5.0,20.0,9.0,-2.0,0.0,0.0,1651085919667225.0
-1.0,-1.0,4.0,-21.0,-14.0,1.0,1.0,-1.0,1651085919680046.0
-2.0,1.0,-10.0,35.0,13.0,1.0,2.0,-1.0,1651085919680046.0
1.0,-3.0,-12.0,-28.0,-22.0,-12.0,-6.0,-1.0,1651085919688232.0
0.0,1.0,15.0,16.0,9.0,8.0,5.0,1.0,1651085919688232.0
1.0,3.0,-7.0,-2.0,2.0,-1.0,1.0,0.0,1651085919703422.0
-3.0,-4.0,-5.0,-17.0,-17.0,-10.0,-6.0,-4.0,1651085919703422.0
-4.0,-2.0,-5.0,-3.0,4.0,-4.0,-4.0,-1.0,1651085919703422.0
1.0,0.0,-12.0,-6.0,2.0,4.0,1.0,1.0,1651085919703422.0
2.0,6.0,17.0,20.0,7.0,2.0,-2.0,2.0,1651085919725336.0
-3.0,-1.0,11.0,-1.0,-15.0,-1.0,5.0,-1.0,1651085919725336.0
-3.0,-7.0,-3.0,2.0,24.0,7.0,1.0,1.0,1651085919726169.0
1.0,-1.0,-1.0,8.0,1.0,1.0,-2.0,-2.0,1651085919726169.0
1.0,-2.0,-12.0,-9.0,1.0,2.0,4.0,1.0,1651085919739958.0
2.0,6.0,37.0,12.0,4.0,-1.0,-4.0,-1.0,1651085919739958.0
-4.0,-9.0,-31.0,9.0,-10.0,-2.0,-3.0,-4.0,1651085919748103.0
0.0,-4.0,-1.0,-25.0,-6.0,-7.0,-2.0,-1.0,1651085919748103.0
3.0,2.0,12.0,25.0,6.0,2.0,-1.0,1.0,1651085919762900.0
-5.0,-14.0,-74.0,-45.0,-7.0,0.0,3.0,-2.0,1651085919762900.0
0.0,5.0,25.0,8.0,-1.0,-3.0,-3.0,-3.0,1651085919762900.0
0.0,-4.0,5.0,6.0,5.0,0.0,-1.0,1.0,1651085919762900.0
-2.0,-4.0,-37.0,-24.0,-6.0,-5.0,-5.0,1.0,1651085919785402.0
3.0,2.0,38.0,17.0,9.0,5.0,1.0,3.0,1651085919785402.0
-2.0,3.0,-9.0,-1.0,4.0,9.0,8.0,-2.0,1651085919786234.0
0.0,3.0,32.0,32.0,2.0,-4.0,0.0,-2.0,1651085919786234.0
1.0,-3.0,-26.0,-13.0,-2.0,1.0,-3.0,-3.0,1651085919800394.0
-4.0,5.0,30.0,3.0,6.0,2.0,0.0,-1.0,1651085919800394.0
1.0,0.0,-7.0,-4.0,0.0,2.0,5.0,3.0,1651085919807333.0
0.0,9.0,26.0,31.0,-5.0,-1.0,-2.0,-1.0,1651085919807333.0
-1.0,-2.0,-43.0,-18.0,8.0,1.0,0.0,1.0,1651085919823364.0
1.0,4.0,70.0,24.0,6.0,7.0,8.0,0.0,1651085919823364.0
-2.0,-7.0,-44.0,-19.0,-14.0,-9.0,-6.0,-3.0,1651085919823364.0
-2.0,2.0,-35.0,-23.0,2.0,2.0,-3.0,4.0,1651085919823364.0
-1.0,4.0,59.0,36.0,-3.0,-6.0,-3.0,-3.0,1651085919845368.0
0.0,-4.0,-39.0,-28.0,2.0,6.0,7.0,0.0,1651085919845368.0
-4.0,3.0,11.0,10.0,-3.0,-7.0,-7.0,-3.0,1651085919846263.0
11.0,-3.0,7.0,-9.0,0.0,1.0,1.0,5.0,1651085919846263.0
-10.0,-13.0,-52.0,-19.0,-7.0,-6.0,-5.0,-17.0,1651085919867223.0
1.0,4.0,10.0,9.0,2.0,0.0,-1.0,1.0,1651085919867223.0
0.0,3.0,36.0,14.0,7.0,9.0,4.0,-7.0,1651085919868250.0
-3.0,-6.0,-18.0,-7.0,6.0,6.0,7.0,7.0,1651085919868250.0
4.0,3.0,35.0,1.0,-10.0,-12.0,-8.0,-16.0,1651085919883041.0
1.0,-1.0,-27.0,-7.0,-1.0,0.0,-1.0,3.0,1651085919883041.0
6.0,4.0,28.0,15.0,-6.0,-7.0,-3.0,-4.0,1651085919883041.0
-2.0,0.0,-32.0,-9.0,-1.0,2.0,7.0,-1.0,1651085919883041.0
-8.0,-7.0,-7.0,-22.0,-3.0,-2.0,-5.0,5.0,1651085919905398.0
1.0,0.0,-8.0,4.0,-2.0,-13.0,-16.0,-7.0,1651085919905398.0
3.0,-1.0,-6.0,-6.0,-3.0,4.0,3.0,5.0,1651085919906262.0
-5.0,-2.0,3.0,3.0,6.0,2.0,-2.0,3.0,1651085919906262.0
8.0,1.0,1.0,-2.0,-3.0,3.0,6.0,11.0,1651085919927847.0
-7.0,-12.0,-20.0,5.0,0.0,-1.0,3.0,-5.0,1651085919927847.0
-3.0,1.0,12.0,-3.0,-7.0,-9.0,-9.0,2.0,1651085919927847.0
-6.0,-6.0,-12.0,-13.0,-3.0,-3.0,-4.0,-7.0,1651085919927847.0
2.0,5.0,17.0,21.0,9.0,8.0,8.0,3.0,1651085919943230.0
6.0,2.0,4.0,0.0,-4.0,-1.0,-1.0,8.0,1651085919943230.0
2.0,0.0,-1.0,6.0,11.0,1.0,1.0,-1.0,1651085919943230.0
-5.0,-3.0,-7.0,-7.0,-4.0,-3.0,-2.0,-4.0,1651085919943230.0
2.0,5.0,52.0,24.0,5.0,3.0,3.0,2.0,1651085919965400.0
-6.0,-9.0,-68.0,-44.0,-10.0,-5.0,-6.0,-1.0,1651085919965400.0
-3.0,-3.0,5.0,7.0,-7.0,-7.0,-6.0,-17.0,1651085919966261.0
3.0,2.0,-13.0,-14.0,-3.0,0.0,0.0,2.0,1651085919966261.0
-2.0,-1.0,-13.0,-6.0,-3.0,0.0,-2.0,0.0,1651085919988621.0
5.0,4.0,18.0,14.0,5.0,3.0,1.0,1.0,1651085919988621.0
-16.0,-6.0,-5.0,-15.0,-2.0,-4.0,-6.0,5.0,1651085919988621.0
2.0,3.0,-7.0,3.0,0.0,-2.0,-6.0,-11.0,1651085919988621.0
5.0,-1.0,1.0,-2.0,-4.0,2.0,5.0,10.0,1651085920003216.0
1.0,1.0,10.0,12.0,0.0,-3.0,-1.0,4.0,1651085920003216.0
1.0,2.0,20.0,4.0,-1.0,0.0,1.0,1.0,1651085920003216.0
1.0,-2.0,-44.0,-17.0,-4.0,-3.0,0.0,1.0,1651085920003216.0
-5.0,2.0,24.0,12.0,-1.0,0.0,-2.0,-1.0,1651085920025392.0
-2.0,-4.0,-27.0,-16.0,-1.0,-1.0,0.0,0.0,1651085920025392.0
3.0,0.0,7.0,4.0,3.0,7.0,7.0,5.0,1651085920026256.0
-2.0,0.0,35.0,14.0,-1.0,-1.0,-2.0,-2.0,1651085920026256.0
-2.0,2.0,1.0,6.0,-6.0,-2.0,-3.0,0.0,1651085920048557.0
-4.0,-12.0,-47.0,-16.0,0.0,-5.0,-6.0,-5.0,1651085920048557.0
1.0,5.0,10.0,-1.0,-2.0,1.0,0.0,1.0,1651085920048557.0
0.0,-2.0,-27.0,-3.0,3.0,1.0,-1.0,1.0,1651085920048557.0
-3.0,-1.0,1.0,-1.0,-5.0,-4.0,-2.0,-3.0,1651085920062334.0
0.0,6.0,33.0,22.0,3.0,3.0,4.0,-2.0,1651085920062334.0
2.0,-4.0,-29.0,-17.0,-2.0,-1.0,2.0,6.0,1651085920071138.0
0.0,-1.0,22.0,0.0,-2.0,-3.0,-1.0,1.0,1651085920071138.0
-2.0,-3.0,-3.0,-10.0,2.0,1.0,0.0,-1.0,1651085920085083.0
-2.0,4.0,32.0,27.0,3.0,3.0,7.0,2.0,1651085920085083.0
2.0,-1.0,-9.0,-4.0,5.0,4.0,-1.0,4.0,1651085920085942.0
0.0,2.0,-27.0,-7.0,-5.0,-4.0,-1.0,-2.0,1651085920085942.0
2.0,-3.0,-1.0,7.0,5.0,6.0,7.0,-3.0,1651085920108256.0
2.0,2.0,12.0,-8.0,-8.0,-6.0,-10.0,-2.0,1651085920108256.0
2.0,2.0,-22.0,4.0,8.0,3.0,2.0,2.0,1651085920108256.0
-3.0,-3.0,24.0,8.0,-2.0,-2.0,-5.0,-3.0,1651085920108256.0
-5.0,-2.0,2.0,1.0,3.0,3.0,2.0,-1.0,1651085920123147.0
1.0,9.0,10.0,11.0,1.0,-2.0,-1.0,3.0,1651085920123147.0
-2.0,-7.0,-18.0,-17.0,-10.0,-5.0,-1.0,-5.0,1651085920123147.0
-1.0,4.0,5.0,-2.0,3.0,0.0,1.0,-1.0,1651085920123147.0
-3.0,-12.0,-5.0,5.0,3.0,0.0,-1.0,-1.0,1651085920145372.0
-2.0,1.0,3.0,1.0,3.0,3.0,2.0,-1.0,1651085920145372.0
2.0,1.0,13.0,5.0,-1.0,-2.0,0.0,1.0,1651085920146260.0
-2.0,0.0,33.0,1.0,6.0,0.0,0.0,0.0,1651085920146260.0
-2.0,-8.0,-88.0,-24.0,-8.0,-3.0,-4.0,-1.0,1651085920168566.0
2.0,3.0,21.0,8.0,6.0,3.0,1.0,0.0,1651085920168566.0
-1.0,-2.0,-11.0,1.0,-3.0,-2.0,-2.0,-2.0,1651085920168566.0
-1.0,3.0,13.0,-2.0,-4.0,-2.0,0.0,0.0,1651085920168566.0
2.0,4.0,32.0,16.0,3.0,-3.0,-2.0,3.0,1651085920182725.0
0.0,0.0,-1.0,-1.0,1.0,2.0,1.0,-2.0,1651085920182725.0
0.0,-2.0,-12.0,-15.0,-6.0,-2.0,-1.0,-2.0,1651085920183756.0
0.0,-3.0,-13.0,-9.0,1.0,1.0,-2.0,3.0,1651085920183756.0
-2.0,1.0,34.0,24.0,-1.0,-7.0,-4.0,-5.0,1651085920206191.0
-9.0,4.0,-28.0,-17.0,9.0,6.0,6.0,5.0,1651085920206191.0
0.0,4.0,23.0,11.0,2.0,-1.0,2.0,11.0,1651085920206191.0
-4.0,0.0,24.0,9.0,-6.0,-3.0,-7.0,-5.0,1651085920206191.0
2.0,-5.0,-31.0,-29.0,0.0,1.0,-1.0,-3.0,1651085920227823.0
-1.0,-4.0,2.0,3.0,-2.0,-1.0,-2.0,0.0,1651085920227823.0
4.0,7.0,18.0,11.0,3.0,3.0,4.0,3.0,1651085920228823.0
-13.0,-10.0,-32.0,-4.0,-8.0,-4.0,-3.0,-5.0,1651085920228823.0
0.0,6.0,8.0,-10.0,-2.0,0.0,0.0,0.0,1651085920243225.0
3.0,0.0,0.0,-3.0,2.0,-1.0,0.0,-1.0,1651085920243225.0
-1.0,0.0,-1.0,14.0,1.0,1.0,0.0,-4.0,1651085920243225.0
7.0,2.0,19.0,10.0,2.0,-2.0,-1.0,-2.0,1651085920243225.0
-4.0,0.0,-6.0,-4.0,-4.0,0.0,0.0,-2.0,1651085920265396.0
0.0,-2.0,-5.0,-9.0,-10.0,-3.0,-3.0,-2.0,1651085920265396.0
-2.0,1.0,-19.0,-19.0,3.0,0.0,-3.0,-4.0,1651085920266247.0
4.0,0.0,-4.0,8.0,2.0,4.0,3.0,2.0,1651085920266247.0
-3.0,4.0,5.0,14.0,7.0,3.0,-1.0,5.0,1651085920288537.0
3.0,0.0,6.0,6.0,4.0,4.0,4.0,1.0,1651085920288537.0
-1.0,-1.0,18.0,-1.0,-9.0,-5.0,-4.0,1.0,1651085920288537.0
0.0,1.0,15.0,13.0,3.0,0.0,2.0,2.0,1651085920288537.0
2.0,0.0,-24.0,-14.0,-1.0,2.0,1.0,2.0,1651085920303140.0
-2.0,-1.0,11.0,-10.0,-5.0,1.0,1.0,-3.0,1651085920303140.0
-1.0,-4.0,9.0,21.0,3.0,0.0,0.0,-5.0,1651085920303140.0
0.0,0.0,27.0,-6.0,0.0,-2.0,-1.0,-2.0,1651085920303140.0
-2.0,-1.0,-7.0,-2.0,-3.0,0.0,0.0,-2.0,1651085920325386.0
-2.0,1.0,13.0,-1.0,-1.0,-1.0,-2.0,-6.0,1651085920325386.0
3.0,-3.0,-5.0,-15.0,-3.0,-3.0,0.0,2.0,1651085920326252.0
-3.0,-2.0,-6.0,14.0,2.0,1.0,-1.0,-4.0,1651085920326252.0
3.0,1.0,4.0,-4.0,2.0,-1.0,3.0,4.0,1651085920348538.0
3.0,-1.0,-7.0,-8.0,-3.0,-1.0,-3.0,-2.0,1651085920348538.0
1.0,-2.0,-5.0,19.0,1.0,3.0,1.0,10.0,1651085920348538.0
-1.0,-4.0,-20.0,-15.0,-13.0,-5.0,-3.0,-1.0,1651085920348538.0
-2.0,0.0,-2.0,4.0,9.0,2.0,-3.0,0.0,1651085920363399.0
0.0,2.0,-19.0,-4.0,-2.0,-4.0,-1.0,-1.0,1651085920363399.0
-2.0,0.0,4.0,3.0,5.0,5.0,2.0,-4.0,1651085920363399.0
-1.0,2.0,-7.0,-7.0,1.0,0.0,-1.0,6.0,1651085920363399.0
3.0,-4.0,13.0,-5.0,-11.0,-6.0,-3.0,-1.0,1651085920385227.0
0.0,-2.0,-5.0,1.0,-2.0,-3.0,-3.0,1.0,1651085920385227.0
3.0,4.0,16.0,21.0,1.0,-1.0,-1.0,-1.0,1651085920386257.0
-1.0,-2.0,-37.0,-28.0,-4.0,0.0,2.0,-3.0,1651085920386257.0
-1.0,2.0,19.0,31.0,3.0,2.0,-1.0,-4.0,1651085920408233.0
-7.0,-8.0,-33.0,-25.0,1.0,-1.0,-3.0,-4.0,1651085920408233.0
1.0,0.0,1.0,-20.0,-6.0,-2.0,-2.0,-1.0,1651085920408437.0
0.0,1.0,10.0,10.0,5.0,0.0,-4.0,-3.0,1651085920408437.0
4.0,2.0,-5.0,-4.0,0.0,3.0,4.0,2.0,1651085920423235.0
-3.0,-2.0,15.0,15.0,-1.0,-1.0,-1.0,1.0,1651085920423235.0
-2.0,2.0,11.0,2.0,0.0,0.0,0.0,-2.0,1651085920423235.0
0.0,-7.0,-42.0,-27.0,-5.0,-1.0,0.0,-1.0,1651085920423235.0
-3.0,-2.0,9.0,1.0,-3.0,-2.0,-1.0,1.0,1651085920445372.0
-2.0,-3.0,1.0,-3.0,-5.0,-3.0,-3.0,-2.0,1651085920445372.0
-5.0,2.0,25.0,6.0,-2.0,-2.0,-2.0,-5.0,1651085920446263.0
3.0,1.0,-7.0,10.0,5.0,5.0,4.0,2.0,1651085920446263.0
-1.0,-3.0,2.0,-2.0,4.0,4.0,1.0,4.0,1651085920468084.0
1.0,0.0,-21.0,-8.0,-4.0,0.0,2.0,1.0,1651085920468084.0
-2.0,-3.0,11.0,1.0,-4.0,-7.0,-5.0,-3.0,1651085920468084.0
2.0,-2.0,-9.0,-6.0,-2.0,-1.0,-1.0,-2.0,1651085920468084.0
-1.0,6.0,20.0,11.0,0.0,0.0,-1.0,3.0,1651085920483086.0
0.0,-2.0,7.0,10.0,-2.0,-4.0,-4.0,-3.0,1651085920483086.0
1.0,-2.0,-47.0,-30.0,2.0,2.0,0.0,1.0,1651085920490113.0
-1.0,5.0,33.0,16.0,10.0,3.0,3.0,0.0,1651085920490113.0
-1.0,-4.0,-26.0,-11.0,-6.0,-4.0,-3.0,-3.0,1651085920505191.0
3.0,1.0,24.0,15.0,2.0,1.0,0.0,4.0,1651085920505191.0
1.0,-2.0,-1.0,-3.0,-7.0,-2.0,-1.0,-8.0,1651085920506027.0
1.0,-1.0,10.0,-6.0,-6.0,-6.0,-5.0,-2.0,1651085920506027.0
-2.0,9.0,-17.0,2.0,0.0,0.0,-1.0,0.0,1651085920527285.0
-2.0,-16.0,-18.0,-11.0,-5.0,-2.0,-3.0,-1.0,1651085920527285.0
-4.0,0.0,-2.0,-1.0,2.0,1.0,1.0,-2.0,1651085920528227.0
-3.0,-1.0,18.0,19.0,5.0,2.0,4.0,2.0,1651085920528227.0
-2.0,1.0,-5.0,-22.0,-1.0,0.0,-1.0,-4.0,1651085920543227.0
1.0,2.0,-3.0,1.0,-1.0,-3.0,0.0,0.0,1651085920543227.0
-2.0,-3.0,4.0,4.0,4.0,4.0,3.0,0.0,1651085920543227.0
3.0,4.0,11.0,18.0,-1.0,-4.0,-3.0,-2.0,1651085920543227.0
2.0,-9.0,-18.0,-28.0,-10.0,-3.0,-2.0,0.0,1651085920565399.0
-2.0,2.0,-3.0,-2.0,10.0,3.0,-1.0,-4.0,1651085920565399.0
3.0,-1.0,12.0,-1.0,-10.0,-4.0,-2.0,4.0,1651085920566279.0
1.0,4.0,-7.0,12.0,16.0,6.0,3.0,1.0,1651085920566279.0
-1.0,-4.0,11.0,11.0,2.0,-2.0,-2.0,-1.0,1651085920588636.0
6.0,1.0,-9.0,-19.0,-3.0,0.0,-1.0,-2.0,1651085920588636.0
-4.0,-1.0,-7.0,2.0,-1.0,-4.0,-1.0,2.0,1651085920588636.0
-2.0,0.0,0.0,-15.0,-8.0,-3.0,-1.0,-2.0,1651085920588636.0
-1.0,1.0,32.0,27.0,5.0,2.0,0.0,-4.0,1651085920603097.0
2.0,-2.0,-17.0,-5.0,-2.0,-2.0,2.0,8.0,1651085920603097.0
-2.0,1.0,0.0,4.0,0.0,-3.0,-3.0,-3.0,1651085920603097.0
2.0,0.0,-10.0,-12.0,-2.0,4.0,5.0,1.0,1651085920603097.0
2.0,4.0,9.0,13.0,0.0,-2.0,-2.0,-1.0,1651085920625388.0
-4.0,0.0,15.0,-8.0,-7.0,-1.0,1.0,2.0,1651085920625388.0
2.0,-3.0,-17.0,-1.0,2.0,-1.0,-3.0,0.0,1651085920626257.0
-2.0,-9.0,-19.0,-13.0,-1.0,-1.0,2.0,-1.0,1651085920626257.0
1.0,7.0,18.0,7.0,1.0,0.0,1.0,3.0,1651085920648517.0
0.0,2.0,7.0,8.0,1.0,4.0,1.0,-2.0,1651085920648517.0
0.0,-3.0,-4.0,10.0,0.0,-2.0,-1.0,0.0,1651085920655218.0
-2.0,-3.0,-23.0,-19.0,-10.0,-2.0,-2.0,-1.0,1651085920655218.0
0.0,-2.0,3.0,-6.0,9.0,3.0,-1.0,-1.0,1651085920663234.0
-2.0,2.0,-5.0,6.0,-3.0,-4.0,-2.0,-3.0,1651085920663234.0
-9.0,0.0,-4.0,-8.0,-1.0,-2.0,-3.0,-3.0,1651085920663234.0
1.0,1.0,6.0,8.0,0.0,0.0,-1.0,1.0,1651085920663234.0
-2.0,-4.0,-3.0,-18.0,-4.0,-3.0,-1.0,-4.0,1651085920685706.0
2.0,2.0,19.0,12.0,3.0,0.0,3.0,4.0,1651085920685706.0
1.0,1.0,-18.0,-8.0,1.0,1.0,1.0,-2.0,1651085920686564.0
-4.0,-4.0,12.0,8.0,-5.0,-3.0,-5.0,-4.0,1651085920686564.0
-2.0,-2.0,-8.0,-8.0,-13.0,-6.0,-6.0,-2.0,1651085920708448.0
1.0,0.0,10.0,10.0,12.0,7.0,1.0,0.0,1651085920708448.0
-3.0,1.0,-3.0,-8.0,-1.0,1.0,0.0,-3.0,1651085920708448.0
-1.0,-3.0,2.0,-9.0,0.0,-2.0,-1.0,1.0,1651085920708448.0
0.0,2.0,2.0,11.0,3.0,2.0,3.0,-1.0,1651085920723035.0
-4.0,-6.0,2.0,-25.0,-8.0,-4.0,-1.0,0.0,1651085920723035.0
2.0,-2.0,3.0,3.0,1.0,-1.0,1.0,-10.0,1651085920730176.0
2.0,6.0,6.0,13.0,4.0,3.0,0.0,4.0,1651085920730176.0
0.0,-3.0,17.0,3.0,-3.0,-3.0,2.0,7.0,1651085920745376.0
-2.0,-2.0,-22.0,-7.0,-5.0,-4.0,-6.0,-20.0,1651085920745376.0
-4.0,1.0,1.0,7.0,13.0,4.0,1.0,2.0,1651085920746261.0
-3.0,-3.0,22.0,2.0,-2.0,-1.0,-1.0,-4.0,1651085920746261.0
1.0,3.0,20.0,11.0,9.0,7.0,8.0,3.0,1651085920768094.0
-2.0,-4.0,-47.0,-2.0,-9.0,-4.0,-1.0,2.0,1651085920768094.0
2.0,2.0,14.0,-3.0,1.0,1.0,3.0,2.0,1651085920768094.0
-1.0,-5.0,-15.0,-6.0,-6.0,-7.0,-5.0,-5.0,1651085920768094.0
-2.0,0.0,6.0,12.0,4.0,-1.0,-2.0,-2.0,1651085920782040.0
-1.0,3.0,10.0,-8.0,5.0,5.0,5.0,4.0,1651085920782040.0
2.0,6.0,8.0,15.0,1.0,1.0,-1.0,-5.0,1651085920791120.0
-2.0,-14.0,-10.0,-12.0,-9.0,-8.0,-4.0,8.0,1651085920791120.0
0.0,1.0,-19.0,-37.0,-12.0,-6.0,-3.0,-4.0,1651085920805386.0
-2.0,-3.0,0.0,22.0,10.0,4.0,-1.0,-1.0,1651085920805386.0
3.0,3.0,26.0,17.0,0.0,-3.0,0.0,3.0,1651085920806257.0
-2.0,4.0,0.0,-11.0,0.0,1.0,2.0,0.0,1651085920806257.0
-1.0,-4.0,-24.0,-4.0,0.0,1.0,-2.0,-3.0,1651085920829373.0
-1.0,1.0,13.0,7.0,-2.0,-4.0,-1.0,0.0,1651085920829373.0
-3.0,-6.0,-10.0,-10.0,-9.0,0.0,-3.0,1.0,1651085920829373.0
-1.0,5.0,-7.0,12.0,15.0,5.0,1.0,0.0,1651085920829373.0
1.0,-1.0,-2.0,1.0,-3.0,-1.0,2.0,-1.0,1651085920851226.0
-6.0,5.0,28.0,1.0,-2.0,-1.0,-5.0,0.0,1651085920851226.0
4.0,-6.0,-22.0,-17.0,-3.0,0.0,-1.0,1.0,1651085920851226.0
-3.0,-9.0,-13.0,-10.0,-5.0,2.0,6.0,0.0,1651085920851226.0
-1.0,1.0,2.0,9.0,-1.0,-5.0,-5.0,-1.0,1651085920865331.0
0.0,-1.0,17.0,6.0,1.0,-3.0,-4.0,0.0,1651085920865331.0
1.0,2.0,3.0,2.0,1.0,-1.0,0.0,-1.0,1651085920866219.0
1.0,0.0,-11.0,-18.0,-2.0,5.0,4.0,1.0,1651085920866219.0
-2.0,1.0,14.0,15.0,3.0,0.0,0.0,2.0,1651085920888261.0
-3.0,-4.0,5.0,7.0,-3.0,-1.0,2.0,-4.0,1651085920888261.0
4.0,3.0,5.0,-4.0,-6.0,-6.0,-6.0,0.0,1651085920888261.0
1.0,5.0,9.0,10.0,7.0,2.0,-4.0,-2.0,1651085920888261.0
3.0,1.0,-2.0,-4.0,1.0,0.0,-1.0,0.0,1651085920903097.0
-1.0,7.0,-10.0,0.0,-1.0,2.0,1.0,3.0,1651085920903097.0
0.0,-12.0,3.0,-3.0,6.0,4.0,3.0,-7.0,1651085920910360.0
2.0,0.0,18.0,9.0,-9.0,-9.0,-4.0,-4.0,1651085920910360.0
-3.0,0.0,-9.0,-14.0,-4.0,-3.0,-2.0,0.0,1651085920934387.0
5.0,-8.0,-19.0,-16.0,-1.0,-1.0,2.0,14.0,1651085920934387.0
-3.0,2.0,-1.0,6.0,-2.0,-1.0,0.0,0.0,1651085920934387.0
-3.0,2.0,2.0,7.0,0.0,-1.0,-1.0,-4.0,1651085920934387.0
-5.0,-2.0,-10.0,-8.0,-4.0,-3.0,-3.0,-3.0,1651085920947203.0
2.0,5.0,14.0,1.0,-1.0,-1.0,3.0,2.0,1651085920947203.0
-1.0,-1.0,-7.0,-12.0,-3.0,-1.0,0.0,6.0,1651085920948215.0
1.0,0.0,-1.0,13.0,2.0,-3.0,1.0,1.0,1651085920948215.0
1.0,2.0,-4.0,3.0,14.0,3.0,0.0,0.0,1651085920962217.0
-3.0,-1.0,-1.0,-4.0,-2.0,-2.0,-1.0,-7.0,1651085920962217.0
-3.0,-3.0,8.0,12.0,-5.0,-2.0,0.0,4.0,1651085920970589.0
0.0,8.0,16.0,9.0,2.0,1.0,-2.0,-2.0,1651085920970589.0
3.0,1.0,0.0,1.0,-5.0,2.0,1.0,-1.0,1651085920985397.0
1.0,-3.0,-27.0,-13.0,-2.0,0.0,-2.0,-4.0,1651085920985397.0
-2.0,-2.0,6.0,-2.0,3.0,1.0,2.0,2.0,1651085920986264.0
0.0,-2.0,2.0,-1.0,-2.0,1.0,1.0,5.0,1651085920986264.0
0.0,-4.0,-16.0,-1.0,3.0,-3.0,0.0,2.0,1651085921008251.0
5.0,3.0,14.0,9.0,9.0,0.0,-3.0,-3.0,1651085921008251.0
-3.0,2.0,-13.0,-5.0,1.0,6.0,7.0,2.0,1651085921008251.0
5.0,3.0,-1.0,-3.0,-3.0,-5.0,-2.0,2.0,1651085921008251.0
-6.0,-6.0,-1.0,-8.0,-5.0,0.0,-1.0,-4.0,1651085921023095.0
0.0,-1.0,-6.0,1.0,-9.0,-5.0,-3.0,-3.0,1651085921023095.0
3.0,5.0,-5.0,-10.0,-2.0,0.0,-1.0,-1.0,1651085921030348.0
-2.0,-7.0,-1.0,-1.0,0.0,3.0,1.0,-3.0,1651085921030348.0
1.0,1.0,8.0,5.0,0.0,1.0,2.0,-2.0,1651085921045359.0
0.0,10.0,-3.0,0.0,1.0,-5.0,-1.0,0.0,1651085921045359.0
1.0,-1.0,1.0,2.0,-4.0,-3.0,-1.0,-1.0,1651085921045359.0
3.0,-5.0,-5.0,-6.0,-6.0,0.0,0.0,0.0,1651085921045359.0
-13.0,-14.0,-7.0,-1.0,-3.0,-2.0,0.0,-1.0,1651085921068088.0
-1.0,1.0,0.0,1.0,-1.0,2.0,1.0,-2.0,1651085921068088.0
-7.0,7.0,1.0,-5.0,-5.0,-5.0,-3.0,-1.0,1651085921068088.0
5.0,11.0,2.0,1.0,-3.0,-1.0,0.0,-1.0,1651085921068088.0
6.0,-6.0,-5.0,-4.0,2.0,5.0,1.0,0.0,1651085921091339.0
-3.0,-5.0,6.0,3.0,1.0,1.0,-1.0,1.0,1651085921091339.0
-5.0,-6.0,-5.0,-3.0,-3.0,-4.0,-4.0,-1.0,1651085921091339.0
1.0,2.0,-9.0,-5.0,-1.0,-2.0,-1.0,-1.0,1651085921091339.0
-5.0,4.0,10.0,3.0,-1.0,-1.0,-2.0,1.0,1651085921105398.0
1.0,-11.0,-3.0,-1.0,0.0,0.0,0.0,-2.0,1651085921105398.0
-1.0,4.0,6.0,0.0,3.0,0.0,-2.0,-1.0,1651085921106261.0
-1.0,12.0,3.0,5.0,1.0,0.0,0.0,-1.0,1651085921106261.0
8.0,3.0,-3.0,-1.0,0.0,-2.0,-2.0,0.0,1651085921127988.0
0.0,-2.0,9.0,1.0,0.0,-1.0,0.0,1.0,1651085921127988.0
3.0,-8.0,-10.0,0.0,3.0,1.0,-1.0,-3.0,1651085921127988.0
-5.0,-3.0,3.0,0.0,3.0,2.0,0.0,0.0,1651085921127988.0
5.0,1.0,-2.0,0.0,-4.0,1.0,0.0,0.0,1651085921151284.0
-8.0,-4.0,-7.0,-7.0,-7.0,-2.0,-1.0,0.0,1651085921151284.0
4.0,0.0,-1.0,4.0,-4.0,-3.0,-2.0,0.0,1651085921151284.0
-2.0,-2.0,-2.0,0.0,-1.0,-1.0,-4.0,-2.0,1651085921151284.0
0.0,1.0,-2.0,-1.0,-1.0,-2.0,1.0,-1.0,1651085921165387.0
2.0,-2.0,3.0,1.0,5.0,2.0,1.0,0.0,1651085921165387.0
0.0,0.0,-3.0,-1.0,3.0,1.0,0.0,-1.0,1651085921166249.0
-1.0,-2.0,2.0,-1.0,-2.0,-5.0,-2.0,-1.0,1651085921166249.0
2.0,2.0,0.0,-1.0,-3.0,2.0,-3.0,-2.0,1651085921190158.0
-2.0,0.0,1.0,2.0,1.0,0.0,-2.0,-1.0,1651085921190158.0
6.0,-1.0,-4.0,-3.0,-1.0,-2.0,0.0,2.0,1651085921190158.0
-11.0,-5.0,-2.0,0.0,0.0,0.0,0.0,0.0,1651085921190158.0
2.0,2.0,-1.0,1.0,5.0,0.0,2.0,-4.0,1651085921211696.0
3.0,3.0,-1.0,1.0,1.0,1.0,0.0,2.0,1651085921211696.0
0.0,-4.0,-4.0,-5.0,-4.0,-3.0,-2.0,-1.0,1651085921211696.0
1.0,1.0,0.0,-3.0,-1.0,-2.0,-2.0,-1.0,1651085921211696.0
-1.0,0.0,0.0,1.0,1.0,4.0,0.0,1.0,1651085921225679.0
-2.0,1.0,1.0,0.0,-3.0,-1.0,-2.0,0.0,1651085921225679.0
1.0,1.0,-1.0,0.0,1.0,0.0,0.0,-2.0,1651085921225679.0
2.0,-4.0,1.0,1.0,2.0,0.0,2.0,9.0,1651085921225679.0
-8.0,-4.0,-3.0,-3.0,-2.0,-3.0,-6.0,-28.0,1651085921248001.0
4.0,0.0,0.0,1.0,0.0,1.0,0.0,-2.0,1651085921248001.0
-2.0,-1.0,-2.0,-1.0,-2.0,-2.0,1.0,1.0,1651085921248001.0
1.0,0.0,-2.0,0.0,4.0,4.0,0.0,-4.0,1651085921248001.0
0.0,-1.0,0.0,1.0,0.0,-2.0,1.0,11.0,1651085921271316.0
-1.0,1.0,0.0,1.0,1.0,-4.0,-2.0,-1.0,1651085921271316.0
-2.0,-2.0,-1.0,-1.0,0.0,1.0,0.0,-3.0,1651085921271316.0
2.0,-2.0,-1.0,-2.0,-4.0,0.0,2.0,2.0,1651085921271316.0
2.0,-1.0,-2.0,-3.0,-4.0,-2.0,1.0,8.0,1651085921285253.0
-1.0,2.0,1.0,1.0,1.0,3.0,0.0,-11.0,1651085921285253.0
0.0,0.0,-1.0,1.0,-1.0,-1.0,0.0,4.0,1651085921286257.0
-3.0,-2.0,-1.0,0.0,0.0,-2.0,-3.0,-4.0,1651085921286257.0
0.0,0.0,-2.0,-2.0,-1.0,0.0,-1.0,5.0,1651085921308356.0
8.0,-2.0,0.0,1.0,0.0,-2.0,1.0,2.0,1651085921308356.0
-2.0,-2.0,-2.0,0.0,-1.0,2.0,-2.0,-5.0,1651085921308356.0
-6.0,-1.0,1.0,3.0,1.0,-1.0,1.0,-2.0,1651085921308356.0
-3.0,2.0,-1.0,1.0,1.0,1.0,2.0,-1.0,1651085921331376.0
-3.0,-1.0,-2.0,-1.0,1.0,0.0,1.0,7.0,1651085921331376.0
16.0,3.0,-1.0,-1.0,2.0,1.0,-1.0,1.0,1651085921331376.0
-12.0,-3.0,-2.0,-1.0,0.0,1.0,0.0,-2.0,1651085921331376.0
0.0,-2.0,-1.0,-1.0,-3.0,-4.0,-3.0,3.0,1651085921345327.0
0.0,-1.0,1.0,1.0,0.0,1.0,1.0,-1.0,1651085921345327.0
-2.0,-2.0,0.0,-2.0,2.0,0.0,-1.0,1.0,1651085921346189.0
1.0,-1.0,-1.0,-2.0,-1.0,-3.0,0.0,0.0,1651085921346189.0
2.0,-2.0,-1.0,-2.0,-1.0,0.0,-1.0,2.0,1651085921368365.0
-2.0,0.0,-3.0,-1.0,-2.0,0.0,-1.0,-3.0,1651085921368365.0
-5.0,-3.0,-1.0,-1.0,-2.0,-3.0,-2.0,-1.0,1651085921368365.0
2.0,-1.0,0.0,0.0,-2.0,1.0,0.0,-2.0,1651085921368365.0
-3.0,1.0,0.0,0.0,-2.0,-1.0,0.0,0.0,1651085921391505.0
1.0,-1.0,-2.0,-1.0,-2.0,-1.0,-2.0,1.0,1651085921391505.0
-3.0,-2.0,0.0,0.0,-2.0,1.0,0.0,1.0,1651085921391505.0
2.0,0.0,-1.0,-4.0,-1.0,-1.0,0.0,0.0,1651085921391505.0
2.0,0.0,0.0,-1.0,0.0,-1.0,-1.0,0.0,1651085921405712.0
-4.0,0.0,1.0,1.0,1.0,0.0,-1.0,0.0,1651085921405712.0
-3.0,-1.0,-1.0,-2.0,-1.0,0.0,-1.0,-2.0,1651085921405712.0
2.0,0.0,-1.0,0.0,0.0,2.0,1.0,-1.0,1651085921405712.0
1.0,1.0,-1.0,0.0,2.0,-1.0,0.0,-1.0,1651085921436333.0
-3.0,0.0,-1.0,-2.0,0.0,0.0,0.0,0.0,1651085921436333.0
-3.0,-1.0,1.0,-1.0,-1.0,0.0,-1.0,-2.0,1651085921436333.0
2.0,0.0,-1.0,-1.0,-2.0,-3.0,0.0,0.0,1651085921436333.0
-2.0,-1.0,0.0,-2.0,-5.0,-4.0,-1.0,1.0,1651085921451243.0
1.0,0.0,-1.0,-1.0,0.0,-1.0,-2.0,-1.0,1651085921451243.0
0.0,1.0,0.0,0.0,4.0,4.0,0.0,-1.0,1651085921451243.0
1.0,0.0,0.0,2.0,3.0,1.0,0.0,0.0,1651085921451243.0
-1.0,-1.0,0.0,0.0,1.0,2.0,1.0,-1.0,1651085921465370.0
-2.0,-1.0,-1.0,-2.0,-4.0,-2.0,-2.0,-2.0,1651085921465370.0
-1.0,0.0,-2.0,-2.0,-6.0,-6.0,-1.0,0.0,1651085921466241.0
0.0,0.0,1.0,0.0,-2.0,3.0,-1.0,-1.0,1651085921466241.0
1.0,-1.0,-1.0,-2.0,-1.0,-2.0,0.0,0.0,1651085921488506.0
-1.0,0.0,1.0,0.0,-2.0,-2.0,-1.0,-2.0,1651085921488506.0
-3.0,0.0,0.0,2.0,5.0,2.0,1.0,0.0,1651085921488506.0
-1.0,-1.0,1.0,1.0,0.0,-1.0,1.0,1.0,1651085921488506.0
0.0,-1.0,1.0,-1.0,-1.0,-1.0,-1.0,1.0,1651085921510379.0
0.0,0.0,-1.0,-1.0,-2.0,0.0,0.0,0.0,1651085921510379.0
0.0,0.0,-1.0,-1.0,-1.0,-2.0,0.0,0.0,1651085921511226.0
0.0,0.0,-1.0,0.0,0.0,-1.0,0.0,0.0,1651085921511226.0
0.0,-1.0,-1.0,1.0,-2.0,-1.0,-1.0,-2.0,1651085921525376.0
-2.0,-1.0,-1.0,-1.0,0.0,0.0,-1.0,1.0,1651085921525376.0
-1.0,-1.0,-2.0,-2.0,-3.0,-3.0,-1.0,-2.0,1651085921526258.0
1.0,0.0,0.0,-2.0,-3.0,-2.0,-2.0,-2.0,1651085921526258.0
-1.0,0.0,-2.0,3.0,4.0,2.0,1.0,-1.0,1651085921548501.0
0.0,0.0,0.0,0.0,2.0,0.0,0.0,1.0,1651085921548501.0
-1.0,0.0,-1.0,2.0,-2.0,0.0,-1.0,-1.0,1651085921548501.0
-1.0,0.0,-3.0,-2.0,-3.0,-2.0,-2.0,-1.0,1651085921548501.0
-2.0,-2.0,-1.0,-1.0,1.0,-1.0,-2.0,-2.0,1651085921571123.0
0.0,-2.0,-2.0,-1.0,-3.0,-1.0,1.0,-1.0,1651085921571123.0
-2.0,0.0,-3.0,-2.0,-1.0,1.0,-1.0,0.0,1651085921571123.0
-1.0,0.0,0.0,-1.0,0.0,-2.0,0.0,1.0,1651085921571123.0
0.0,0.0,0.0,-1.0,-1.0,-1.0,1.0,0.0,1651085921585432.0
-2.0,-1.0,2.0,-1.0,0.0,0.0,0.0,0.0,1651085921585432.0
2.0,-1.0,1.0,1.0,-3.0,-1.0,-2.0,0.0,1651085921586309.0
0.0,-1.0,0.0,0.0,3.0,3.0,1.0,-2.0,1651085921586309.0
-1.0,-1.0,0.0,0.0,-2.0,-2.0,0.0,0.0,1651085921608437.0
-1.0,1.0,1.0,-2.0,0.0,-2.0,-2.0,0.0,1651085921608437.0
-2.0,0.0,-1.0,-1.0,0.0,2.0,2.0,0.0,1651085921608437.0
-1.0,-1.0,-1.0,0.0,-2.0,-1.0,-1.0,0.0,1651085921608437.0
-2.0,0.0,0.0,-2.0,0.0,0.0,0.0,-2.0,1651085921631514.0
0.0,1.0,0.0,0.0,0.0,1.0,2.0,-1.0,1651085921631514.0
-2.0,-1.0,1.0,-1.0,0.0,0.0,1.0,-2.0,1651085921631514.0
-2.0,0.0,-2.0,0.0,0.0,-1.0,0.0,0.0,1651085921631514.0
0.0,-2.0,0.0,-1.0,-1.0,0.0,-1.0,0.0,1651085921644213.0
1.0,-1.0,-2.0,-3.0,-4.0,-2.0,-3.0,-1.0,1651085921644213.0
-1.0,-2.0,0.0,-1.0,1.0,0.0,0.0,-1.0,1651085921653197.0
-1.0,0.0,0.0,0.0,3.0,0.0,0.0,1.0,1651085921653197.0
-1.0,-1.0,0.0,-2.0,0.0,0.0,1.0,-1.0,1651085921668094.0
0.0,-1.0,0.0,1.0,1.0,1.0,1.0,-1.0,1651085921668094.0
1.0,0.0,-2.0,0.0,-1.0,-1.0,-2.0,1.0,1651085921668094.0
0.0,0.0,-1.0,-3.0,-4.0,-3.0,-2.0,-2.0,1651085921668094.0
-1.0,-1.0,-3.0,0.0,-2.0,-1.0,1.0,1.0,1651085921691124.0
-1.0,0.0,-1.0,0.0,0.0,2.0,1.0,0.0,1651085921691124.0
1.0,0.0,0.0,-2.0,-1.0,-3.0,-1.0,0.0,1651085921691124.0
-1.0,-1.0,-1.0,1.0,-1.0,1.0,-1.0,1.0,1651085921691124.0
0.0,0.0,-1.0,0.0,1.0,1.0,-1.0,0.0,1651085921704725.0
-2.0,0.0,0.0,2.0,3.0,1.0,-1.0,0.0,1651085921704725.0
1.0,0.0,0.0,-2.0,-1.0,-1.0,0.0,0.0,1651085921713210.0
1.0,0.0,-1.0,-2.0,-1.0,0.0,0.0,-1.0,1651085921713210.0
0.0,-1.0,-1.0,0.0,-3.0,0.0,0.0,1.0,1651085921727222.0
1.0,0.0,-1.0,-1.0,0.0,-2.0,0.0,0.0,1651085921727222.0
-1.0,-1.0,-1.0,0.0,-1.0,0.0,-1.0,-2.0,1651085921728185.0
-1.0,-1.0,0.0,0.0,-3.0,-2.0,-2.0,1.0,1651085921728185.0
1.0,0.0,-2.0,-1.0,-2.0,-1.0,0.0,-1.0,1651085921750446.0
-1.0,-1.0,-2.0,1.0,-1.0,-1.0,0.0,-2.0,1651085921750446.0
-3.0,-2.0,1.0,3.0,1.0,0.0,-1.0,-1.0,1651085921751447.0
1.0,-2.0,-2.0,-1.0,1.0,1.0,0.0,-1.0,1651085921751447.0
0.0,1.0,1.0,1.0,4.0,4.0,0.0,0.0,1651085921765184.0
0.0,0.0,-1.0,-3.0,-3.0,-2.0,-1.0,-1.0,1651085921765184.0
2.0,-1.0,1.0,-1.0,-2.0,-1.0,-1.0,0.0,1651085921773134.0
1.0,0.0,1.0,-1.0,-2.0,-1.0,0.0,-2.0,1651085921773134.0
0.0,-3.0,-1.0,-3.0,-3.0,-2.0,-2.0,0.0,1651085921788096.0
-1.0,-2.0,0.0,0.0,1.0,1.0,-2.0,0.0,1651085921788096.0
-1.0,2.0,0.0,4.0,6.0,2.0,0.0,2.0,1651085921788096.0
-1.0,-1.0,-1.0,-1.0,-1.0,-1.0,0.0,-1.0,1651085921788096.0
1.0,2.0,0.0,-1.0,1.0,0.0,0.0,1.0,1651085921811218.0
-2.0,-1.0,0.0,-2.0,-1.0,1.0,-1.0,-1.0,1651085921811218.0
-1.0,-2.0,-3.0,-1.0,-3.0,-2.0,1.0,0.0,1651085921811218.0
0.0,-1.0,-2.0,1.0,0.0,0.0,-1.0,1.0,1651085921811218.0
-1.0,0.0,-2.0,-1.0,-2.0,-3.0,1.0,0.0,1651085921824356.0
-1.0,-1.0,-2.0,-1.0,-2.0,-3.0,0.0,0.0,1651085921824356.0
-1.0,1.0,-1.0,1.0,2.0,0.0,-1.0,0.0,1651085921832775.0
-2.0,-1.0,-1.0,0.0,-3.0,-2.0,0.0,0.0,1651085921832775.0
-1.0,-2.0,-3.0,-9.0,-6.0,-2.0,-1.0,-2.0,1651085921848094.0
-1.0,-1.0,2.0,2.0,4.0,2.0,3.0,0.0,1651085921848094.0
1.0,-2.0,-1.0,0.0,0.0,0.0,1.0,-1.0,1651085921848094.0
-1.0,-1.0,0.0,1.0,-1.0,-3.0,0.0,0.0,1651085921848094.0
-2.0,0.0,2.0,3.0,3.0,1.0,0.0,0.0,1651085921871255.0
-1.0,0.0,-1.0,-1.0,-2.0,0.0,0.0,0.0,1651085921871255.0
1.0,0.0,-2.0,-4.0,-3.0,0.0,-3.0,0.0,1651085921871255.0
-1.0,0.0,1.0,0.0,-1.0,-1.0,-2.0,-3.0,1651085921871255.0
-1.0,-1.0,0.0,0.0,0.0,0.0,-1.0,-1.0,1651085921884256.0
0.0,-2.0,0.0,-1.0,1.0,-2.0,-2.0,1.0,1651085921884256.0
0.0,-2.0,-1.0,0.0,-2.0,0.0,0.0,-2.0,1651085921892347.0
0.0,-1.0,-2.0,-2.0,1.0,1.0,0.0,1.0,1651085921892347.0
0.0,-1.0,-1.0,0.0,-3.0,-3.0,-2.0,-1.0,1651085921908099.0
-1.0,-1.0,-1.0,1.0,0.0,-2.0,-3.0,-1.0,1651085921908099.0
-2.0,0.0,1.0,-1.0,-3.0,-5.0,1.0,-1.0,1651085921908099.0
0.0,0.0,-1.0,-2.0,3.0,8.0,0.0,0.0,1651085921908099.0
2.0,1.0,0.0,0.0,3.0,-3.0,-1.0,1.0,1651085921931684.0
-1.0,0.0,-1.0,0.0,-3.0,0.0,-1.0,0.0,1651085921931684.0
1.0,-2.0,-1.0,-3.0,-3.0,-4.0,0.0,-1.0,1651085921931684.0
0.0,-2.0,-1.0,-1.0,-3.0,-3.0,1.0,0.0,1651085921931684.0
0.0,-1.0,-1.0,-1.0,-1.0,0.0,-1.0,0.0,1651085921944209.0
0.0,-1.0,-1.0,-2.0,-4.0,-2.0,0.0,0.0,1651085921944209.0
0.0,0.0,0.0,1.0,2.0,1.0,1.0,-2.0,1651085921953118.0
0.0,0.0,-1.0,0.0,0.0,-2.0,-1.0,0.0,1651085921953118.0
1.0,1.0,1.0,1.0,-2.0,0.0,-2.0,-3.0,1651085921968094.0
-2.0,-1.0,2.0,1.0,2.0,1.0,1.0,2.0,1651085921968094.0
0.0,0.0,0.0,-2.0,1.0,1.0,-2.0,-1.0,1651085921968094.0
0.0,-1.0,-1.0,-1.0,1.0,-2.0,0.0,-1.0,1651085921968094.0
-1.0,0.0,0.0,-1.0,-4.0,-1.0,0.0,0.0,1651085921991171.0
0.0,-1.0,-3.0,-5.0,-4.0,-4.0,-1.0,0.0,1651085921991171.0
-2.0,-1.0,0.0,0.0,0.0,1.0,-1.0,0.0,1651085921991171.0
-4.0,0.0,3.0,3.0,6.0,2.0,1.0,0.0,1651085921991171.0
-2.0,-1.0,-1.0,-1.0,-1.0,0.0,1.0,1.0,1651085922013135.0
-2.0,-1.0,0.0,0.0,2.0,1.0,1.0,-2.0,1651085922013135.0
-1.0,-2.0,-1.0,-1.0,-2.0,-1.0,-2.0,0.0,1651085922014132.0
1.0,-1.0,-2.0,-2.0,-4.0,-3.0,-2.0,-1.0,1651085922014132.0
0.0,1.0,-1.0,2.0,0.0,-1.0,0.0,1.0,1651085922027741.0
1.0,-2.0,-3.0,-2.0,-2.0,-1.0,-1.0,-1.0,1651085922027741.0
0.0,-1.0,-1.0,0.0,0.0,-2.0,0.0,1.0,1651085922028741.0
-2.0,-2.0,1.0,2.0,1.0,1.0,-1.0,-1.0,1651085922028741.0
-2.0,-1.0,-1.0,-1.0,3.0,1.0,0.0,-2.0,1651085922051058.0
1.0,1.0,-2.0,-2.0,-1.0,0.0,1.0,-1.0,1651085922051058.0
0.0,-1.0,-1.0,-1.0,-2.0,-3.0,-1.0,-2.0,1651085922051058.0
0.0,0.0,-2.0,-2.0,3.0,3.0,0.0,0.0,1651085922051058.0
0.0,-3.0,1.0,-2.0,-3.0,-4.0,-1.0,0.0,1651085922074349.0
1.0,0.0,-2.0,-1.0,-4.0,-2.0,-3.0,-2.0,1651085922074349.0
-3.0,0.0,1.0,4.0,7.0,5.0,3.0,0.0,1651085922074349.0
-1.0,-2.0,0.0,-2.0,-5.0,-2.0,-2.0,-1.0,1651085922074349.0
-2.0,-2.0,-2.0,0.0,0.0,3.0,-2.0,-1.0,1651085922088320.0
-1.0,-1.0,-1.0,1.0,-2.0,-2.0,0.0,1.0,1651085922088320.0
0.0,-2.0,-1.0,-3.0,-4.0,-3.0,-2.0,-2.0,1651085922088320.0
0.0,-1.0,-1.0,-1.0,-1.0,-3.0,0.0,-2.0,1651085922088320.0
1.0,-2.0,-2.0,-1.0,-1.0,1.0,0.0,0.0,1651085922110363.0
0.0,0.0,-1.0,1.0,0.0,1.0,0.0,0.0,1651085922110363.0
-1.0,1.0,-1.0,0.0,1.0,1.0,-1.0,-1.0,1651085922111279.0
-1.0,-1.0,-1.0,-1.0,-3.0,-5.0,-1.0,0.0,1651085922111279.0
0.0,-2.0,-1.0,1.0,2.0,2.0,1.0,-2.0,1651085922133350.0
-1.0,0.0,0.0,2.0,3.0,1.0,-2.0,-1.0,1651085922133350.0
-1.0,1.0,-2.0,0.0,-1.0,0.0,1.0,0.0,1651085922134206.0
0.0,0.0,-2.0,-3.0,-4.0,-2.0,-1.0,0.0,1651085922134206.0
1.0,0.0,-1.0,-5.0,-6.0,-4.0,-4.0,0.0,1651085922147356.0
0.0,-1.0,1.0,2.0,5.0,1.0,0.0,0.0,1651085922147356.0
-1.0,0.0,0.0,0.0,0.0,2.0,-1.0,1.0,1651085922148212.0
-1.0,0.0,-1.0,-1.0,0.0,0.0,0.0,0.0,1651085922148212.0
-1.0,-1.0,0.0,0.0,1.0,0.0,0.0,-1.0,1651085922170387.0
0.0,-1.0,-1.0,-3.0,-4.0,-2.0,0.0,-2.0,1651085922170387.0
0.0,-1.0,-2.0,-3.0,-3.0,-3.0,-3.0,-1.0,1651085922171386.0
-1.0,-1.0,-1.0,2.0,-2.0,-1.0,-1.0,-1.0,1651085922171386.0
-3.0,-1.0,-1.0,3.0,2.0,4.0,0.0,1.0,1651085922193203.0
0.0,-1.0,0.0,-1.0,1.0,1.0,-1.0,-1.0,1651085922193203.0
1.0,-1.0,-1.0,0.0,0.0,-1.0,1.0,0.0,1651085922194204.0
0.0,0.0,0.0,1.0,1.0,-2.0,0.0,0.0,1651085922194204.0
-1.0,-3.0,0.0,2.0,-1.0,-2.0,0.0,-2.0,1651085922208074.0
0.0,-1.0,0.0,-1.0,-3.0,0.0,-1.0,0.0,1651085922208074.0
-1.0,0.0,-1.0,-2.0,-5.0,-4.0,-2.0,0.0,1651085922208074.0
0.0,-1.0,-1.0,-1.0,2.0,-2.0,1.0,-2.0,1651085922208074.0
-1.0,0.0,-1.0,0.0,-2.0,-1.0,1.0,0.0,1651085922231220.0
0.0,-2.0,0.0,-1.0,-2.0,-1.0,-1.0,-2.0,1651085922231220.0
0.0,-2.0,0.0,1.0,1.0,1.0,1.0,1.0,1651085922231220.0
0.0,0.0,-2.0,1.0,0.0,0.0,-1.0,-1.0,1651085922231220.0
2.0,1.0,-2.0,-2.0,-2.0,-1.0,0.0,0.0,1651085922253180.0
-1.0,1.0,1.0,0.0,4.0,3.0,1.0,1.0,1651085922253180.0
-1.0,-2.0,0.0,-2.0,-4.0,-2.0,-2.0,0.0,1651085922254180.0
1.0,-1.0,0.0,-1.0,2.0,2.0,-1.0,0.0,1651085922254180.0
-4.0,0.0,0.0,0.0,-1.0,-1.0,-1.0,-1.0,1651085922268074.0
-1.0,0.0,-2.0,-6.0,-9.0,-7.0,-3.0,-1.0,1651085922268074.0
1.0,0.0,-1.0,5.0,7.0,6.0,0.0,-2.0,1651085922268074.0
-1.0,-1.0,-2.0,1.0,2.0,2.0,1.0,-1.0,1651085922268074.0
-1.0,0.0,-2.0,0.0,-1.0,-3.0,-2.0,-2.0,1651085922291244.0
-2.0,-3.0,-1.0,1.0,0.0,-1.0,0.0,0.0,1651085922291244.0
-1.0,-1.0,-1.0,-4.0,-6.0,-3.0,-1.0,0.0,1651085922291244.0
0.0,-1.0,-1.0,-2.0,-3.0,-4.0,-1.0,-3.0,1651085922291244.0
0.0,0.0,1.0,-1.0,3.0,3.0,2.0,-2.0,1651085922313353.0
1.0,0.0,-2.0,-6.0,-9.0,-5.0,-2.0,-1.0,1651085922313353.0
0.0,2.0,3.0,14.0,26.0,9.0,4.0,2.0,1651085922313353.0
-2.0,-2.0,0.0,-4.0,-7.0,-2.0,-3.0,1.0,1651085922313353.0
0.0,2.0,-3.0,-1.0,1.0,-2.0,-1.0,-1.0,1651085922327364.0
-1.0,-4.0,0.0,0.0,-4.0,-3.0,-1.0,0.0,1651085922327364.0
-1.0,-1.0,-1.0,-3.0,-7.0,-1.0,-1.0,-3.0,1651085922328364.0
-1.0,1.0,7.0,2.0,4.0,-1.0,0.0,0.0,1651085922328364.0
-1.0,-4.0,-8.0,-4.0,-7.0,-2.0,0.0,-1.0,1651085922350378.0
0.0,4.0,4.0,-5.0,-6.0,-1.0,1.0,0.0,1651085922350378.0
0.0,-1.0,-4.0,-7.0,-6.0,-2.0,-2.0,0.0,1651085922351243.0
0.0,-1.0,0.0,3.0,-1.0,-1.0,-1.0,0.0,1651085922351243.0
0.0,0.0,0.0,-1.0,2.0,-2.0,-1.0,0.0,1651085922374163.0
0.0,-1.0,7.0,-6.0,-3.0,-1.0,0.0,-1.0,1651085922374163.0
0.0,-2.0,-3.0,-2.0,-5.0,3.0,1.0,1.0,1651085922374163.0
-1.0,1.0,5.0,17.0,11.0,3.0,1.0,-3.0,1651085922374163.0
1.0,-2.0,-1.0,-6.0,-5.0,-4.0,-3.0,-1.0,1651085922388178.0
-1.0,8.0,-1.0,5.0,14.0,8.0,1.0,-1.0,1651085922388178.0
-2.0,-3.0,0.0,-9.0,-20.0,-9.0,-2.0,-3.0,1651085922388178.0
-2.0,1.0,1.0,-5.0,-5.0,0.0,0.0,0.0,1651085922388178.0
1.0,-2.0,-3.0,4.0,-2.0,-2.0,0.0,1.0,1651085922418350.0
0.0,-5.0,-2.0,-1.0,-1.0,-2.0,-2.0,-1.0,1651085922418350.0
-2.0,0.0,-3.0,-2.0,-2.0,-1.0,-1.0,-1.0,1651085922419210.0
1.0,-1.0,-8.0,-14.0,-10.0,-2.0,-2.0,0.0,1651085922419210.0
-2.0,1.0,5.0,11.0,6.0,-1.0,0.0,0.0,1651085922434386.0
-2.0,-1.0,-1.0,-5.0,-8.0,-3.0,0.0,0.0,1651085922434386.0
-1.0,2.0,-1.0,-3.0,1.0,0.0,-1.0,-2.0,1651085922434386.0
0.0,-4.0,2.0,12.0,21.0,8.0,2.0,1.0,1651085922434386.0
0.0,0.0,-1.0,-14.0,-11.0,-4.0,-1.0,0.0,1651085922448264.0
2.0,4.0,5.0,8.0,10.0,9.0,0.0,-1.0,1651085922448264.0
-1.0,-2.0,3.0,-1.0,-6.0,-10.0,-3.0,-1.0,1651085922448264.0
-2.0,-2.0,-12.0,-13.0,-12.0,-4.0,-3.0,0.0,1651085922448264.0
0.0,0.0,3.0,-1.0,-2.0,-3.0,1.0,-1.0,1651085922471061.0
1.0,-3.0,-4.0,1.0,-3.0,0.0,0.0,1.0,1651085922471061.0
-1.0,1.0,0.0,-5.0,1.0,-3.0,-1.0,0.0,1651085922471307.0
-1.0,1.0,5.0,17.0,17.0,6.0,0.0,-2.0,1651085922471307.0
-1.0,-9.0,-9.0,-3.0,-9.0,0.0,-2.0,-1.0,1651085922493402.0
-2.0,8.0,1.0,4.0,12.0,-2.0,1.0,-2.0,1651085922493402.0
0.0,-6.0,-1.0,-21.0,-17.0,-4.0,-2.0,1.0,1651085922494233.0
0.0,-1.0,-2.0,13.0,4.0,-2.0,-1.0,-1.0,1651085922494233.0
0.0,2.0,9.0,11.0,1.0,-3.0,-2.0,-3.0,1651085922516377.0
-2.0,-17.0,-22.0,7.0,36.0,15.0,1.0,-1.0,1651085922516377.0
0.0,-1.0,0.0,0.0,-8.0,-6.0,-1.0,-2.0,1651085922516377.0
0.0,6.0,3.0,-22.0,-15.0,-7.0,-2.0,-2.0,1651085922516377.0
-1.0,-1.0,2.0,13.0,10.0,6.0,1.0,1.0,1651085922530691.0
-1.0,-2.0,-12.0,-12.0,-17.0,-3.0,0.0,1.0,1651085922530691.0
-2.0,5.0,14.0,18.0,21.0,5.0,1.0,0.0,1651085922531125.0
0.0,-13.0,-10.0,-2.0,17.0,5.0,-1.0,-1.0,1651085922531125.0
-2.0,25.0,16.0,-12.0,-5.0,-1.0,-2.0,-1.0,1651085922553554.0
1.0,-1.0,4.0,23.0,-3.0,-3.0,-1.0,0.0,1651085922553554.0
0.0,0.0,-9.0,-14.0,2.0,3.0,-2.0,-1.0,1651085922553554.0
0.0,-6.0,7.0,-21.0,-40.0,-14.0,-3.0,-1.0,1651085922553554.0
-1.0,-3.0,-13.0,10.0,20.0,5.0,2.0,0.0,1651085922568345.0
-1.0,5.0,4.0,-21.0,-20.0,-3.0,-2.0,0.0,1651085922568345.0
-1.0,-1.0,5.0,19.0,9.0,3.0,0.0,-2.0,1651085922568345.0
-1.0,-6.0,-5.0,3.0,5.0,2.0,-1.0,1.0,1651085922568345.0
1.0,-4.0,-12.0,-10.0,-14.0,-7.0,-1.0,0.0,1651085922590344.0
-2.0,1.0,22.0,3.0,-2.0,-1.0,-1.0,-1.0,1651085922590344.0
2.0,2.0,-12.0,-4.0,-13.0,-8.0,-2.0,0.0,1651085922598423.0
-2.0,1.0,4.0,-14.0,-7.0,0.0,2.0,-2.0,1651085922598423.0
0.0,3.0,29.0,38.0,46.0,22.0,7.0,5.0,1651085922614360.0
-1.0,-3.0,-25.0,-15.0,-15.0,-11.0,-3.0,-1.0,1651085922614360.0
0.0,2.0,24.0,-1.0,0.0,4.0,0.0,1.0,1651085922614360.0
0.0,3.0,0.0,-3.0,-20.0,-13.0,-3.0,0.0,1651085922614360.0
-1.0,-2.0,-28.0,-38.0,-34.0,-11.0,-2.0,-5.0,1651085922627205.0
1.0,-13.0,6.0,33.0,46.0,13.0,0.0,1.0,1651085922627205.0
1.0,7.0,32.0,13.0,2.0,-1.0,-2.0,-1.0,1651085922635344.0
-2.0,-1.0,-37.0,-6.0,-4.0,0.0,1.0,1.0,1651085922635344.0
1.0,-1.0,5.0,-3.0,2.0,2.0,2.0,0.0,1651085922651293.0
-1.0,1.0,-2.0,-4.0,-16.0,-4.0,-1.0,0.0,1651085922651293.0
-4.0,-10.0,-32.0,-19.0,6.0,-3.0,-4.0,-1.0,1651085922652291.0
1.0,5.0,42.0,14.0,3.0,5.0,3.0,2.0,1651085922652291.0
-3.0,-5.0,-8.0,-4.0,-12.0,-10.0,-6.0,-4.0,1651085922674269.0
2.0,3.0,10.0,20.0,7.0,0.0,2.0,1.0,1651085922674269.0
-1.0,1.0,0.0,11.0,-4.0,-2.0,0.0,0.0,1651085922674269.0
-3.0,-1.0,-8.0,-21.0,11.0,7.0,1.0,-4.0,1651085922674269.0
-2.0,-5.0,-5.0,-17.0,-6.0,-2.0,1.0,0.0,1651085922696272.0
-1.0,2.0,0.0,-8.0,-10.0,-4.0,0.0,0.0,1651085922696272.0
1.0,-1.0,9.0,15.0,6.0,6.0,6.0,1.0,1651085922696272.0
-1.0,-2.0,-22.0,-13.0,0.0,-7.0,-9.0,-1.0,1651085922696272.0
-1.0,-1.0,13.0,12.0,1.0,-2.0,-4.0,-1.0,1651085922710381.0
-1.0,0.0,-3.0,-11.0,-5.0,-1.0,0.0,-3.0,1651085922710381.0
1.0,0.0,-9.0,3.0,5.0,3.0,1.0,1.0,1651085922711220.0
0.0,1.0,20.0,24.0,-1.0,3.0,3.0,-1.0,1651085922711220.0
1.0,-3.0,-10.0,-16.0,3.0,0.0,0.0,0.0,1651085922733186.0
-1.0,-1.0,-17.0,-21.0,-9.0,1.0,4.0,0.0,1651085922733186.0
-1.0,0.0,-5.0,13.0,7.0,-5.0,-9.0,-5.0,1651085922734183.0
-2.0,0.0,21.0,14.0,6.0,-1.0,-3.0,-2.0,1651085922734183.0
-3.0,-4.0,-37.0,-17.0,-6.0,-1.0,-2.0,-5.0,1651085922747148.0
2.0,-1.0,-10.0,-13.0,-6.0,-5.0,-2.0,3.0,1651085922747148.0
0.0,-2.0,-15.0,-18.0,-10.0,-5.0,-2.0,-1.0,1651085922755161.0
4.0,6.0,21.0,22.0,0.0,-10.0,-10.0,2.0,1651085922755161.0
0.0,-3.0,6.0,10.0,2.0,0.0,-3.0,-1.0,1651085922770122.0
1.0,4.0,-2.0,-5.0,-1.0,3.0,2.0,0.0,1651085922770122.0
-1.0,-2.0,19.0,13.0,3.0,4.0,4.0,1.0,1651085922771117.0
-2.0,4.0,21.0,-1.0,-4.0,1.0,1.0,-2.0,1651085922771117.0
2.0,7.0,2.0,13.0,16.0,8.0,2.0,5.0,1651085922793026.0
-3.0,-1.0,-4.0,-9.0,-5.0,-1.0,-4.0,-2.0,1651085922793026.0
2.0,0.0,-30.0,-16.0,-4.0,-4.0,-3.0,1.0,1651085922794024.0
-2.0,0.0,2.0,11.0,5.0,1.0,4.0,-1.0,1651085922794024.0
0.0,-2.0,-9.0,-12.0,-5.0,-1.0,0.0,-2.0,1651085922807389.0
-1.0,-2.0,42.0,34.0,2.0,-2.0,-1.0,1.0,1651085922807389.0
2.0,-1.0,-17.0,-17.0,-2.0,2.0,-2.0,-1.0,1651085922815330.0
-2.0,-11.0,-55.0,-26.0,0.0,4.0,2.0,-2.0,1651085922815330.0
0.0,1.0,22.0,10.0,-2.0,-2.0,-1.0,1.0,1651085922830547.0
-1.0,3.0,-1.0,-7.0,1.0,-3.0,-1.0,1.0,1651085922830547.0
-3.0,-5.0,11.0,12.0,-3.0,0.0,1.0,-1.0,1651085922830547.0
-1.0,3.0,-27.0,-21.0,0.0,-3.0,-6.0,0.0,1651085922830547.0
4.0,6.0,41.0,31.0,5.0,3.0,0.0,6.0,1651085922853208.0
-1.0,-2.0,-25.0,-18.0,-7.0,-7.0,-6.0,-3.0,1651085922853208.0
1.0,0.0,-33.0,-25.0,-4.0,3.0,5.0,4.0,1651085922854208.0
-3.0,-3.0,40.0,36.0,18.0,13.0,13.0,10.0,1651085922854208.0
4.0,-2.0,-17.0,-17.0,-4.0,-2.0,1.0,-13.0,1651085922866962.0
-13.0,-8.0,9.0,9.0,-6.0,-1.0,-3.0,-24.0,1651085922866962.0
-2.0,1.0,-7.0,-10.0,3.0,-6.0,-2.0,3.0,1651085922875079.0
0.0,2.0,24.0,16.0,7.0,6.0,5.0,-4.0,1651085922875079.0
1.0,-4.0,-22.0,-17.0,-6.0,-3.0,-1.0,5.0,1651085922890566.0
0.0,0.0,29.0,21.0,11.0,11.0,14.0,8.0,1651085922890566.0
7.0,0.0,-8.0,-19.0,-8.0,-7.0,-3.0,-3.0,1651085922891012.0
1.0,-3.0,-1.0,6.0,-6.0,-4.0,-1.0,-2.0,1651085922891012.0
0.0,-1.0,6.0,1.0,-1.0,-1.0,-3.0,2.0,1651085922913189.0
0.0,-1.0,-24.0,-6.0,-5.0,-1.0,-2.0,1.0,1651085922913189.0
-1.0,0.0,27.0,-2.0,-1.0,3.0,-2.0,0.0,1651085922914054.0
-2.0,-4.0,-15.0,-8.0,-13.0,-8.0,-6.0,-3.0,1651085922914054.0
-4.0,-3.0,18.0,18.0,25.0,10.0,5.0,3.0,1651085922926380.0
5.0,0.0,-13.0,3.0,-1.0,-4.0,-7.0,-7.0,1651085922926380.0
-4.0,-1.0,13.0,5.0,2.0,2.0,2.0,-4.0,1651085922935491.0
5.0,2.0,-31.0,-21.0,-5.0,-2.0,-2.0,2.0,1651085922935491.0
0.0,-1.0,5.0,-3.0,-10.0,-6.0,-3.0,-5.0,1651085922950361.0
-9.0,-1.0,-6.0,4.0,-1.0,-4.0,-2.0,0.0,1651085922950361.0
2.0,3.0,6.0,19.0,14.0,10.0,7.0,5.0,1651085922951237.0
-1.0,2.0,20.0,1.0,-3.0,-3.0,-3.0,-1.0,1651085922951237.0
-1.0,-8.0,-27.0,-16.0,-10.0,-3.0,-1.0,1.0,1651085922973201.0
2.0,2.0,-14.0,-26.0,-1.0,-2.0,-5.0,4.0,1651085922973201.0
-5.0,-1.0,15.0,16.0,-2.0,2.0,2.0,-2.0,1651085922974200.0
1.0,-1.0,-2.0,-2.0,0.0,-3.0,-2.0,-3.0,1651085922974200.0
-4.0,2.0,9.0,13.0,6.0,11.0,9.0,-1.0,1651085922996387.0
2.0,1.0,12.0,-4.0,-3.0,-7.0,-2.0,2.0,1651085922996387.0
-3.0,-4.0,-26.0,-10.0,-1.0,0.0,0.0,-1.0,1651085922996387.0
5.0,2.0,18.0,14.0,5.0,3.0,2.0,-3.0,1651085922996387.0
-5.0,-3.0,-4.0,-1.0,-7.0,-2.0,-1.0,-2.0,1651085923010407.0
0.0,1.0,-16.0,-4.0,-2.0,1.0,3.0,2.0,1651085923010407.0
2.0,0.0,4.0,13.0,4.0,-1.0,-1.0,9.0,1651085923011240.0
-5.0,-1.0,-4.0,-10.0,-1.0,-1.0,1.0,-4.0,1651085923011240.0
3.0,-3.0,-11.0,-13.0,-12.0,-7.0,-5.0,-3.0,1651085923033203.0
-1.0,-1.0,20.0,3.0,5.0,1.0,-2.0,1.0,1651085923033203.0
-2.0,0.0,6.0,12.0,4.0,1.0,0.0,0.0,1651085923034200.0
-2.0,1.0,16.0,5.0,-4.0,3.0,-2.0,-2.0,1651085923034200.0
-1.0,-3.0,-46.0,-2.0,3.0,-2.0,-2.0,0.0,1651085923056380.0
2.0,1.0,6.0,-10.0,-8.0,-2.0,-4.0,-2.0,1651085923056380.0
-2.0,-2.0,-4.0,1.0,-2.0,-2.0,1.0,-5.0,1651085923056380.0
1.0,-2.0,-15.0,-18.0,-4.0,-2.0,-1.0,1.0,1651085923056380.0
-4.0,1.0,33.0,17.0,7.0,4.0,-1.0,-3.0,1651085923070410.0
3.0,1.0,-1.0,8.0,4.0,0.0,1.0,4.0,1651085923070410.0
-3.0,-1.0,-12.0,-11.0,-7.0,-4.0,-4.0,-6.0,1651085923071278.0
2.0,1.0,-12.0,-13.0,1.0,1.0,4.0,2.0,1651085923071278.0
2.0,0.0,5.0,4.0,-8.0,-6.0,-7.0,3.0,1651085923093401.0
-1.0,-3.0,19.0,15.0,7.0,5.0,1.0,-2.0,1651085923093401.0
0.0,0.0,0.0,-7.0,0.0,3.0,2.0,-2.0,1651085923094236.0
-3.0,-2.0,4.0,6.0,2.0,1.0,0.0,2.0,1651085923094236.0
-1.0,1.0,15.0,8.0,-1.0,-1.0,-4.0,-2.0,1651085923115599.0
1.0,3.0,-8.0,-3.0,-3.0,-3.0,2.0,5.0,1651085923115599.0
0.0,-1.0,-1.0,2.0,-4.0,-2.0,0.0,-5.0,1651085923116432.0
1.0,-2.0,0.0,-2.0,-1.0,0.0,-1.0,2.0,1651085923116432.0
-1.0,2.0,-5.0,-2.0,3.0,1.0,3.0,-1.0,1651085923130365.0
-2.0,0.0,10.0,10.0,4.0,1.0,0.0,2.0,1651085923130365.0
-5.0,-1.0,-19.0,-15.0,-2.0,0.0,-5.0,-2.0,1651085923131255.0
6.0,0.0,-6.0,1.0,-1.0,0.0,0.0,2.0,1651085923131255.0
-3.0,1.0,-8.0,-4.0,0.0,-1.0,-1.0,-1.0,1651085923154237.0
2.0,-1.0,1.0,-8.0,-3.0,0.0,0.0,-2.0,1651085923154237.0
3.0,5.0,8.0,23.0,-3.0,-2.0,0.0,2.0,1651085923154237.0
-6.0,-6.0,-2.0,-6.0,4.0,1.0,1.0,6.0,1651085923154237.0
-2.0,1.0,19.0,15.0,-1.0,-4.0,-5.0,-17.0,1651085923177213.0
0.0,0.0,-7.0,-8.0,3.0,3.0,3.0,-1.0,1651085923177213.0
-5.0,-5.0,-13.0,-17.0,-6.0,-5.0,-3.0,-2.0,1651085923182333.0
2.0,6.0,3.0,10.0,-1.0,0.0,3.0,0.0,1651085923182333.0
1.0,0.0,3.0,-6.0,2.0,1.0,1.0,4.0,1651085923190234.0
-1.0,-3.0,12.0,7.0,-5.0,-1.0,-1.0,1.0,1651085923190234.0
1.0,-2.0,0.0,-17.0,-8.0,-3.0,-5.0,-3.0,1651085923191268.0
-6.0,-3.0,-17.0,-12.0,2.0,-3.0,-4.0,-5.0,1651085923191268.0
2.0,0.0,17.0,-1.0,-1.0,-1.0,3.0,5.0,1651085923213213.0
-2.0,0.0,12.0,2.0,1.0,-2.0,-2.0,-2.0,1651085923213213.0
1.0,0.0,14.0,7.0,3.0,2.0,4.0,5.0,1651085923214212.0
-5.0,0.0,-17.0,8.0,0.0,-2.0,-3.0,-4.0,1651085923214212.0
3.0,-3.0,-26.0,-17.0,-2.0,-2.0,-2.0,1.0,1651085923235809.0
0.0,0.0,-3.0,1.0,-4.0,-2.0,-4.0,-1.0,1651085923235809.0
-1.0,1.0,10.0,3.0,4.0,-2.0,0.0,1.0,1651085923236666.0
1.0,-1.0,0.0,2.0,-2.0,-1.0,0.0,0.0,1651085923236666.0
1.0,-2.0,0.0,-3.0,-2.0,-2.0,1.0,8.0,1651085923250058.0
0.0,-1.0,2.0,-4.0,-3.0,-3.0,-6.0,-3.0,1651085923250058.0
0.0,2.0,0.0,17.0,2.0,-1.0,-2.0,-1.0,1651085923250933.0
-2.0,-3.0,19.0,-5.0,-5.0,-2.0,-2.0,-4.0,1651085923250933.0
-2.0,-3.0,-3.0,-4.0,3.0,1.0,2.0,8.0,1651085923273221.0
-2.0,-1.0,2.0,10.0,2.0,-2.0,0.0,-2.0,1651085923273221.0
2.0,1.0,2.0,-14.0,-5.0,3.0,2.0,2.0,1651085923274221.0
-1.0,-2.0,-25.0,5.0,2.0,-1.0,-1.0,-1.0,1651085923274221.0
-1.0,1.0,-11.0,-6.0,0.0,-4.0,-4.0,2.0,1651085923296251.0
-1.0,-3.0,-3.0,-3.0,-2.0,-2.0,-1.0,-2.0,1651085923296251.0
2.0,1.0,27.0,8.0,1.0,0.0,0.0,-4.0,1651085923296251.0
-1.0,0.0,-11.0,6.0,-2.0,1.0,0.0,3.0,1651085923296251.0
-1.0,-2.0,-6.0,3.0,-3.0,-1.0,1.0,-4.0,1651085923310408.0
-3.0,-6.0,-19.0,-22.0,-1.0,0.0,0.0,-2.0,1651085923310408.0
1.0,-2.0,-2.0,2.0,1.0,-1.0,2.0,10.0,1651085923310408.0
-1.0,1.0,8.0,-2.0,-3.0,-5.0,-7.0,-19.0,1651085923310408.0
-4.0,-5.0,24.0,-4.0,-5.0,-2.0,-2.0,-1.0,1651085923334354.0
3.0,3.0,-21.0,-4.0,-1.0,-2.0,2.0,2.0,1651085923334354.0
-4.0,-4.0,-31.0,-21.0,-2.0,2.0,2.0,-2.0,1651085923334354.0
-1.0,3.0,13.0,6.0,-1.0,-2.0,-4.0,2.0,1651085923334354.0
2.0,2.0,-1.0,-1.0,2.0,5.0,5.0,3.0,1651085923356560.0
-1.0,-1.0,24.0,21.0,0.0,0.0,1.0,-1.0,1651085923356560.0
-7.0,-1.0,-11.0,-11.0,-2.0,1.0,-1.0,-4.0,1651085923356560.0
9.0,5.0,19.0,9.0,5.0,4.0,4.0,6.0,1651085923356560.0
-3.0,-2.0,-26.0,-17.0,-8.0,-3.0,1.0,2.0,1651085923378208.0
1.0,1.0,0.0,6.0,8.0,1.0,2.0,-1.0,1651085923378208.0
-3.0,-1.0,-13.0,5.0,3.0,-1.0,-5.0,-6.0,1651085923379205.0
-4.0,-2.0,14.0,-9.0,-6.0,-1.0,0.0,3.0,1651085923379205.0
2.0,3.0,20.0,9.0,1.0,1.0,0.0,-3.0,1651085923393225.0
-2.0,0.0,-35.0,-2.0,2.0,1.0,2.0,1.0,1651085923393225.0
-1.0,-1.0,17.0,11.0,-5.0,-4.0,-4.0,0.0,1651085923394226.0
-2.0,-3.0,-25.0,-18.0,-3.0,-1.0,1.0,-1.0,1651085923394226.0
0.0,-2.0,-2.0,-15.0,-6.0,-3.0,-3.0,-1.0,1651085923416379.0
-3.0,1.0,11.0,9.0,0.0,0.0,-1.0,1.0,1651085923416379.0
0.0,-3.0,9.0,10.0,10.0,3.0,-1.0,-2.0,1651085923417232.0
0.0,2.0,-3.0,-5.0,-3.0,1.0,2.0,3.0,1651085923417232.0
-2.0,2.0,15.0,12.0,2.0,1.0,0.0,-4.0,1651085923431235.0
0.0,-13.0,-17.0,-21.0,-16.0,-6.0,-7.0,-2.0,1651085923431235.0
2.0,4.0,12.0,-7.0,0.0,1.0,3.0,2.0,1651085923431235.0
-2.0,-4.0,13.0,17.0,0.0,1.0,0.0,0.0,1651085923431235.0
-3.0,1.0,-27.0,-7.0,6.0,0.0,-1.0,-6.0,1651085923454388.0
1.0,2.0,26.0,3.0,-3.0,2.0,1.0,4.0,1651085923454388.0
1.0,-5.0,-28.0,-11.0,-1.0,-1.0,-2.0,-1.0,1651085923461234.0
-3.0,-5.0,-15.0,-1.0,-2.0,-4.0,-4.0,-3.0,1651085923461234.0
-1.0,4.0,8.0,10.0,-1.0,-1.0,-1.0,-3.0,1651085923476387.0
-5.0,1.0,8.0,-20.0,-1.0,1.0,1.0,4.0,1651085923476387.0
4.0,-6.0,-29.0,7.0,-4.0,-5.0,-1.0,-3.0,1651085923476387.0
-1.0,3.0,5.0,-4.0,5.0,4.0,2.0,1.0,1651085923476387.0
-4.0,-6.0,-4.0,6.0,4.0,1.0,2.0,1.0,1651085923490410.0
5.0,5.0,2.0,3.0,3.0,-1.0,-3.0,-6.0,1651085923490410.0
-1.0,-3.0,1.0,-6.0,-4.0,-4.0,-5.0,2.0,1651085923491281.0
2.0,3.0,-1.0,-4.0,1.0,-2.0,1.0,2.0,1651085923491281.0
0.0,-9.0,2.0,-5.0,-3.0,-2.0,-1.0,-3.0,1651085923513395.0
-2.0,1.0,-46.0,-20.0,1.0,-1.0,2.0,7.0,1651085923513395.0
2.0,2.0,36.0,21.0,2.0,2.0,2.0,1.0,1651085923514230.0
0.0,0.0,1.0,-11.0,-4.0,-2.0,-1.0,-6.0,1651085923514230.0
1.0,5.0,8.0,13.0,4.0,6.0,2.0,8.0,1651085923535614.0
3.0,-1.0,5.0,-2.0,-4.0,-1.0,-2.0,8.0,1651085923535614.0
-3.0,-3.0,-10.0,15.0,9.0,1.0,-2.0,-29.0,1651085923536611.0
-6.0,-4.0,-18.0,-9.0,-2.0,-5.0,-4.0,-4.0,1651085923536611.0
-1.0,-1.0,-7.0,-9.0,1.0,1.0,3.0,1.0,1651085923550346.0
-4.0,2.0,19.0,15.0,1.0,0.0,2.0,-5.0,1651085923550346.0
7.0,3.0,-14.0,-10.0,-3.0,1.0,0.0,6.0,1651085923558545.0
-4.0,-4.0,-15.0,-4.0,0.0,0.0,0.0,2.0,1651085923558545.0
1.0,3.0,-3.0,-5.0,0.0,-1.0,-3.0,-4.0,1651085923574332.0
-2.0,-3.0,-12.0,0.0,-2.0,0.0,-3.0,-2.0,1651085923574332.0
-1.0,0.0,56.0,18.0,-7.0,-4.0,-1.0,4.0,1651085923574332.0
0.0,1.0,-7.0,-8.0,0.0,2.0,0.0,1.0,1651085923574332.0
6.0,0.0,16.0,11.0,-2.0,-2.0,-3.0,0.0,1651085923596383.0
0.0,-4.0,4.0,1.0,2.0,-1.0,0.0,-3.0,1651085923596383.0
0.0,4.0,-15.0,-19.0,-4.0,0.0,6.0,14.0,1651085923597223.0
-1.0,-5.0,4.0,8.0,1.0,1.0,-2.0,1.0,1651085923597223.0
-2.0,2.0,-6.0,-7.0,0.0,0.0,0.0,-11.0,1651085923619241.0
4.0,10.0,21.0,14.0,3.0,2.0,3.0,-2.0,1651085923619241.0
-4.0,-5.0,-24.0,-2.0,0.0,-4.0,-4.0,-1.0,1651085923619241.0
4.0,6.0,22.0,-4.0,1.0,2.0,5.0,5.0,1651085923619241.0
1.0,-4.0,-36.0,-9.0,-6.0,-4.0,-3.0,0.0,1651085923633230.0
-1.0,-5.0,3.0,13.0,2.0,1.0,-3.0,-6.0,1651085923633230.0
1.0,-1.0,9.0,-7.0,-4.0,-1.0,-1.0,7.0,1651085923635225.0
-1.0,4.0,-10.0,-2.0,2.0,5.0,4.0,2.0,1651085923635225.0
-5.0,-6.0,15.0,-3.0,-4.0,-3.0,-3.0,-3.0,1651085923656375.0
0.0,-4.0,-25.0,-15.0,-8.0,0.0,1.0,1.0,1651085923656375.0
0.0,4.0,-14.0,-11.0,-1.0,-2.0,-4.0,-6.0,1651085923657216.0
1.0,-4.0,9.0,12.0,3.0,-1.0,-1.0,-2.0,1651085923657216.0
2.0,0.0,0.0,-11.0,-5.0,-1.0,2.0,3.0,1651085923670381.0
-1.0,3.0,21.0,16.0,4.0,-2.0,-3.0,-2.0,1651085923670381.0
-3.0,-10.0,-14.0,-12.0,-3.0,0.0,2.0,2.0,1651085923686279.0
-2.0,-7.0,-2.0,-4.0,-2.0,-4.0,-2.0,-3.0,1651085923686279.0
-3.0,2.0,-7.0,0.0,12.0,6.0,3.0,2.0,1651085923693226.0
-5.0,2.0,-1.0,3.0,2.0,3.0,4.0,0.0,1651085923693226.0
9.0,8.0,17.0,2.0,4.0,-1.0,0.0,1.0,1651085923695264.0
0.0,-8.0,-37.0,-15.0,-11.0,-8.0,-6.0,-4.0,1651085923695264.0
-4.0,-1.0,18.0,11.0,0.0,-3.0,-1.0,-1.0,1651085923724239.0
6.0,0.0,-14.0,-2.0,3.0,4.0,3.0,2.0,1651085923724239.0
-6.0,-1.0,30.0,13.0,8.0,5.0,0.0,-1.0,1651085923725233.0
2.0,-6.0,-22.0,-6.0,-3.0,-2.0,-1.0,9.0,1651085923725233.0
-4.0,12.0,5.0,-2.0,-2.0,-2.0,-1.0,-16.0,1651085923729222.0
-7.0,-2.0,-8.0,-8.0,-2.0,-4.0,-5.0,-13.0,1651085923729222.0
-1.0,3.0,0.0,3.0,-4.0,-2.0,-3.0,1.0,1651085923738062.0
1.0,-5.0,21.0,7.0,3.0,3.0,-1.0,-6.0,1651085923738062.0
2.0,-4.0,-41.0,-15.0,3.0,1.0,2.0,7.0,1651085923753190.0
1.0,-4.0,18.0,2.0,0.0,3.0,5.0,3.0,1651085923753190.0
-3.0,-4.0,-20.0,-10.0,-7.0,-4.0,-4.0,-7.0,1651085923755217.0
1.0,15.0,7.0,8.0,7.0,1.0,0.0,2.0,1651085923755217.0
0.0,-2.0,22.0,10.0,-6.0,0.0,1.0,-1.0,1651085923776286.0
1.0,2.0,-8.0,-6.0,3.0,-2.0,0.0,-2.0,1651085923776286.0
-2.0,-4.0,-8.0,-16.0,-2.0,-1.0,0.0,2.0,1651085923777183.0
1.0,1.0,21.0,26.0,2.0,-1.0,2.0,1.0,1651085923777183.0
2.0,6.0,21.0,21.0,0.0,0.0,-3.0,2.0,1651085923790256.0
-4.0,-11.0,-61.0,-34.0,-14.0,-5.0,-4.0,-5.0,1651085923790256.0
-4.0,-3.0,-11.0,-12.0,-5.0,-2.0,-2.0,-1.0,1651085923798371.0
0.0,0.0,9.0,-3.0,-4.0,2.0,1.0,-4.0,1651085923798371.0
-4.0,-3.0,-2.0,0.0,-1.0,-5.0,-3.0,-4.0,1651085923813471.0
3.0,-5.0,18.0,-3.0,4.0,3.0,0.0,6.0,1651085923813471.0
-2.0,7.0,-8.0,11.0,10.0,4.0,5.0,-1.0,1651085923814369.0
-2.0,8.0,-9.0,-13.0,-6.0,-3.0,-5.0,-3.0,1651085923814369.0
-2.0,-10.0,2.0,11.0,3.0,-1.0,-2.0,0.0,1651085923836421.0
2.0,4.0,5.0,-4.0,-4.0,-2.0,-2.0,2.0,1651085923836421.0
-1.0,-8.0,-4.0,8.0,-2.0,-1.0,-1.0,-2.0,1651085923837298.0
-1.0,2.0,4.0,2.0,3.0,4.0,4.0,2.0,1651085923837298.0
0.0,-4.0,-13.0,-15.0,-2.0,-4.0,-3.0,1.0,1651085923850301.0
