,EMG_s0,EMG_s1,EMG_s2,EMG_s3,EMG_s4,EMG_s5,EMG_s6,EMG_s7,timestamp,signal
0,-2.0,2.0,3.0,-5.0,0.0,-1.0,-1.0,1.0,1651023480097840.0,0
1,0.0,-2.0,-7.0,12.0,4.0,0.0,-1.0,1.0,1651023480097840.0,0
2,-4.0,-9.0,-6.0,-5.0,-3.0,-1.0,0.0,-1.0,1651023480098833.0,0
3,2.0,13.0,0.0,3.0,-1.0,0.0,1.0,0.0,1651023480098833.0,0
4,-4.0,-4.0,-4.0,-5.0,2.0,0.0,0.0,-1.0,1651023480098833.0,0
5,-3.0,-4.0,4.0,3.0,6.0,2.0,-2.0,-2.0,1651023480098833.0,0
6,3.0,4.0,-1.0,12.0,-2.0,-2.0,-1.0,-1.0,1651023480099823.0,0
7,0.0,-3.0,-12.0,-5.0,2.0,0.0,1.0,0.0,1651023480099823.0,0
8,-2.0,-2.0,3.0,0.0,-10.0,-2.0,-1.0,-2.0,1651023480110806.0,0
9,1.0,2.0,-2.0,-8.0,-3.0,1.0,0.0,0.0,1651023480110806.0,0
10,2.0,1.0,8.0,4.0,10.0,3.0,0.0,-1.0,1651023480119783.0,0
11,-1.0,2.0,4.0,2.0,-6.0,-1.0,-1.0,0.0,1651023480119783.0,0
12,0.0,1.0,-8.0,2.0,2.0,1.0,-1.0,0.0,1651023480126763.0,0
13,-1.0,-3.0,-1.0,-7.0,-5.0,-3.0,0.0,-2.0,1651023480126763.0,0
14,0.0,0.0,0.0,0.0,-3.0,0.0,-1.0,0.0,1651023480141717.0,0
15,-2.0,10.0,3.0,-5.0,-6.0,-2.0,-1.0,-1.0,1651023480141717.0,0
16,-1.0,-13.0,-2.0,4.0,12.0,0.0,-2.0,-1.0,1651023480149674.0,0
17,1.0,10.0,4.0,3.0,8.0,0.0,-2.0,1.0,1651023480149674.0,0
18,-1.0,1.0,-4.0,-7.0,-6.0,0.0,0.0,0.0,1651023480164182.0,0
19,-1.0,5.0,4.0,-1.0,-2.0,-1.0,-1.0,-2.0,1651023480164182.0,0
20,-1.0,-13.0,-4.0,0.0,-19.0,-5.0,-2.0,0.0,1651023480172163.0,0
21,1.0,-2.0,-11.0,-6.0,2.0,-3.0,0.0,-1.0,1651023480172163.0,0
22,-5.0,-8.0,0.0,-7.0,9.0,5.0,1.0,-2.0,1651023480185755.0,0
23,5.0,3.0,4.0,6.0,-5.0,-2.0,-1.0,-1.0,1651023480185755.0,0
24,1.0,-1.0,-3.0,-4.0,-2.0,-2.0,-2.0,0.0,1651023480226774.0,0
25,-2.0,4.0,19.0,-2.0,-3.0,-4.0,0.0,-1.0,1651023480226774.0,0
26,0.0,-13.0,-23.0,-3.0,-3.0,-1.0,-3.0,0.0,1651023480227783.0,0
27,0.0,13.0,10.0,2.0,1.0,1.0,-1.0,0.0,1651023480227783.0,0
28,1.0,-4.0,-6.0,6.0,5.0,2.0,0.0,1.0,1651023480230751.0,0
29,0.0,0.0,2.0,-2.0,-2.0,-3.0,1.0,-1.0,1651023480230751.0,0
30,0.0,5.0,7.0,-2.0,0.0,1.0,0.0,0.0,1651023480231748.0,0
31,1.0,-1.0,-1.0,2.0,2.0,0.0,1.0,1.0,1651023480231748.0,0
32,-1.0,-4.0,0.0,2.0,-3.0,1.0,0.0,-1.0,1651023480237759.0,0
33,-3.0,-4.0,-6.0,-3.0,1.0,0.0,-1.0,0.0,1651023480237759.0,0
34,-5.0,-14.0,-6.0,-7.0,-4.0,-3.0,-1.0,0.0,1651023480246707.0,0
35,0.0,-5.0,-5.0,2.0,0.0,-1.0,-1.0,-1.0,1651023480246707.0,0
36,-1.0,16.0,3.0,-5.0,-4.0,-2.0,-2.0,1.0,1651023480252692.0,0
37,-4.0,-35.0,-15.0,-1.0,1.0,1.0,-2.0,-2.0,1651023480252692.0,0
38,1.0,2.0,3.0,-1.0,-2.0,1.0,-2.0,-2.0,1651023480268248.0,0
39,-1.0,-2.0,-3.0,-3.0,-2.0,-1.0,-1.0,1.0,1651023480268248.0,0
40,1.0,3.0,6.0,1.0,-1.0,0.0,0.0,-1.0,1651023480284214.0,0
41,0.0,3.0,-7.0,-3.0,-14.0,-2.0,-2.0,-1.0,1651023480284214.0,0
42,0.0,4.0,3.0,-5.0,8.0,1.0,-1.0,-1.0,1651023480299166.0,0
43,-1.0,-5.0,-2.0,1.0,9.0,0.0,-2.0,-2.0,1651023480299166.0,0
44,0.0,0.0,3.0,1.0,0.0,-2.0,1.0,-1.0,1651023480299166.0,0
45,1.0,3.0,-8.0,-1.0,-1.0,3.0,0.0,1.0,1651023480299166.0,0
46,-1.0,-7.0,4.0,6.0,-7.0,-3.0,-1.0,1.0,1651023480314145.0,0
47,1.0,3.0,0.0,-2.0,-6.0,-3.0,-2.0,-1.0,1651023480314145.0,0
48,4.0,5.0,2.0,-1.0,3.0,2.0,1.0,-1.0,1651023480314145.0,0
49,-1.0,0.0,4.0,2.0,-2.0,-1.0,-1.0,-1.0,1651023480314145.0,0
50,3.0,20.0,4.0,1.0,-6.0,0.0,1.0,1.0,1651023480336626.0,0
51,-3.0,3.0,2.0,0.0,8.0,-1.0,-2.0,0.0,1651023480336626.0,0
52,-4.0,-13.0,-14.0,6.0,0.0,-2.0,-3.0,-3.0,1651023480336626.0,0
53,6.0,14.0,3.0,1.0,1.0,1.0,-1.0,2.0,1651023480336626.0,0
54,-1.0,-1.0,2.0,5.0,-14.0,-2.0,0.0,-1.0,1651023480358746.0,0
55,1.0,7.0,-1.0,-5.0,4.0,3.0,1.0,0.0,1651023480358746.0,0
56,-3.0,-13.0,-4.0,-7.0,-3.0,-3.0,-1.0,1.0,1651023480359709.0,0
57,3.0,16.0,5.0,8.0,13.0,4.0,0.0,0.0,1651023480359709.0,0
58,-7.0,-16.0,-2.0,-3.0,-5.0,-2.0,-1.0,-1.0,1651023480373750.0,0
59,1.0,-3.0,-1.0,0.0,-1.0,0.0,0.0,1.0,1651023480373750.0,0
60,-1.0,0.0,0.0,-4.0,-8.0,-3.0,0.0,0.0,1651023480374754.0,0
61,-1.0,-1.0,-2.0,-1.0,-1.0,-1.0,-2.0,-1.0,1651023480374754.0,0
62,-1.0,-1.0,-5.0,-5.0,-6.0,0.0,-1.0,-1.0,1651023480395813.0,0
63,-1.0,-2.0,3.0,9.0,10.0,1.0,1.0,-1.0,1651023480395813.0,0
64,3.0,2.0,-2.0,-4.0,-1.0,3.0,1.0,2.0,1651023480396811.0,0
65,-2.0,-1.0,9.0,2.0,-3.0,-1.0,0.0,0.0,1651023480396811.0,0
66,3.0,9.0,-3.0,6.0,8.0,1.0,1.0,-1.0,1651023480418794.0,0
67,-3.0,-11.0,-14.0,-6.0,-12.0,-4.0,-1.0,-1.0,1651023480418794.0,0
68,0.0,4.0,3.0,-4.0,6.0,2.0,0.0,-2.0,1651023480419804.0,0
69,0.0,0.0,-2.0,-3.0,1.0,-2.0,1.0,-1.0,1651023480419804.0,0
70,3.0,0.0,5.0,1.0,3.0,1.0,0.0,1.0,1651023480433133.0,0
71,-3.0,4.0,2.0,-4.0,-11.0,-4.0,-1.0,-3.0,1651023480433133.0,0
72,1.0,6.0,-3.0,0.0,3.0,-1.0,-1.0,0.0,1651023480441146.0,0
73,0.0,-3.0,-5.0,-5.0,-3.0,-1.0,-2.0,0.0,1651023480441146.0,0
74,0.0,3.0,2.0,2.0,-1.0,1.0,1.0,-1.0,1651023480456599.0,0
75,0.0,3.0,-1.0,-1.0,3.0,1.0,-1.0,-2.0,1651023480456599.0,0
76,-3.0,-17.0,-2.0,3.0,2.0,0.0,-2.0,-2.0,1651023480456599.0,0
77,0.0,1.0,4.0,3.0,-3.0,0.0,-2.0,-1.0,1651023480456599.0,0
78,3.0,1.0,-9.0,-1.0,3.0,-1.0,-1.0,0.0,1651023480479004.0,0
79,2.0,5.0,2.0,-2.0,-7.0,0.0,-2.0,2.0,1651023480479004.0,0
80,-4.0,-1.0,4.0,0.0,-5.0,-8.0,0.0,-1.0,1651023480479004.0,0
81,1.0,-4.0,-2.0,1.0,12.0,8.0,0.0,0.0,1651023480479004.0,0
82,-3.0,-5.0,1.0,-3.0,-2.0,-1.0,1.0,0.0,1651023480494092.0,0
83,3.0,-2.0,-3.0,-7.0,-4.0,-4.0,2.0,-2.0,1651023480494092.0,0
84,-1.0,-7.0,5.0,6.0,3.0,0.0,1.0,1.0,1651023480494092.0,0
85,2.0,6.0,-10.0,-11.0,-14.0,-6.0,1.0,0.0,1651023480494092.0,0
86,-3.0,0.0,6.0,8.0,12.0,2.0,-1.0,-2.0,1651023480516028.0,0
87,-2.0,-5.0,15.0,3.0,-7.0,1.0,0.0,1.0,1651023480516028.0,0
88,-2.0,5.0,-13.0,3.0,-1.0,1.0,-1.0,1.0,1651023480524007.0,0
89,-2.0,-4.0,1.0,-1.0,4.0,1.0,1.0,-1.0,1651023480524007.0,0
90,0.0,2.0,2.0,-6.0,-11.0,-3.0,-1.0,-2.0,1651023480538984.0,0
91,-1.0,5.0,0.0,-1.0,17.0,3.0,-1.0,-3.0,1651023480538984.0,0
92,1.0,-10.0,4.0,0.0,2.0,4.0,0.0,-2.0,1651023480538984.0,0
93,-1.0,-5.0,1.0,-1.0,-6.0,-4.0,0.0,0.0,1651023480538984.0,0
94,3.0,9.0,-5.0,-3.0,0.0,-3.0,-2.0,0.0,1651023480562059.0,0
95,-3.0,4.0,0.0,0.0,-6.0,-1.0,-1.0,0.0,1651023480562059.0,0
96,0.0,4.0,1.0,-3.0,0.0,-2.0,0.0,-2.0,1651023480563013.0,0
97,-3.0,-7.0,-10.0,1.0,9.0,3.0,1.0,-2.0,1651023480563013.0,0
98,3.0,14.0,4.0,0.0,-2.0,-1.0,-1.0,-1.0,1651023480576021.0,0
99,-3.0,-22.0,-16.0,-4.0,-3.0,-1.0,0.0,-3.0,1651023480576021.0,0
100,1.0,10.0,1.0,1.0,-4.0,0.0,0.0,1.0,1651023480576948.0,0
101,1.0,-3.0,2.0,1.0,-2.0,0.0,2.0,0.0,1651023480576948.0,0
102,0.0,-7.0,0.0,0.0,6.0,1.0,0.0,0.0,1651023480598957.0,0
103,-2.0,1.0,-3.0,-2.0,-5.0,0.0,-4.0,-1.0,1651023480598957.0,0
104,-1.0,-1.0,7.0,1.0,-4.0,-2.0,-3.0,-1.0,1651023480599901.0,0
105,0.0,3.0,-2.0,-1.0,0.0,-2.0,0.0,-1.0,1651023480599901.0,0
106,-2.0,-3.0,-1.0,0.0,4.0,0.0,0.0,0.0,1651023480614063.0,0
107,1.0,-9.0,2.0,10.0,0.0,-1.0,1.0,0.0,1651023480614063.0,0
108,1.0,23.0,2.0,-8.0,-15.0,-5.0,-1.0,-1.0,1651023480614846.0,0
109,-3.0,-26.0,1.0,0.0,6.0,3.0,-1.0,-1.0,1651023480614846.0,0
110,-2.0,-6.0,-13.0,0.0,19.0,1.0,-1.0,-1.0,1651023480636181.0,0
111,1.0,-6.0,-3.0,0.0,-9.0,0.0,0.0,1.0,1651023480636181.0,0
112,1.0,4.0,2.0,2.0,7.0,0.0,-1.0,0.0,1651023480637178.0,0
113,-2.0,4.0,-2.0,-4.0,-13.0,-3.0,-1.0,0.0,1651023480637178.0,0
114,0.0,1.0,0.0,-6.0,-17.0,-4.0,0.0,0.0,1651023480659169.0,0
115,1.0,1.0,2.0,7.0,19.0,3.0,0.0,-1.0,1651023480659169.0,0
116,-1.0,-10.0,-4.0,-2.0,-2.0,0.0,1.0,-1.0,1651023480659169.0,0
117,-2.0,8.0,0.0,0.0,-2.0,0.0,-1.0,-1.0,1651023480659169.0,0
118,-1.0,-6.0,-1.0,0.0,1.0,-1.0,-1.0,1.0,1651023480673154.0,0
119,0.0,3.0,-3.0,-6.0,-5.0,-1.0,-1.0,0.0,1651023480673154.0,0
120,-2.0,-9.0,-3.0,1.0,-1.0,-1.0,-1.0,1.0,1651023480681128.0,0
121,1.0,7.0,3.0,2.0,5.0,1.0,-1.0,-1.0,1651023480681128.0,0
122,-4.0,-10.0,9.0,10.0,4.0,1.0,0.0,-1.0,1651023480696531.0,0
123,-2.0,8.0,-7.0,-2.0,-22.0,-6.0,-2.0,-4.0,1651023480696531.0,0
124,-3.0,-3.0,-3.0,-5.0,30.0,3.0,-1.0,-3.0,1651023480696531.0,0
125,0.0,4.0,-6.0,-1.0,5.0,0.0,-1.0,-2.0,1651023480696531.0,0
126,-1.0,-4.0,-7.0,-16.0,-12.0,-4.0,0.0,-1.0,1651023480718475.0,0
127,2.0,-1.0,8.0,11.0,2.0,1.0,0.0,2.0,1651023480718475.0,0
128,1.0,6.0,3.0,2.0,-10.0,-1.0,-1.0,0.0,1651023480719473.0,0
129,0.0,-3.0,0.0,-1.0,-4.0,-3.0,-2.0,-2.0,1651023480719473.0,0
130,-2.0,1.0,-3.0,-3.0,5.0,0.0,-2.0,-2.0,1651023480732504.0,0
131,-1.0,4.0,-2.0,-7.0,8.0,0.0,1.0,2.0,1651023480732504.0,0
132,0.0,3.0,-1.0,-5.0,-11.0,0.0,-1.0,0.0,1651023480741413.0,0
133,-1.0,-2.0,1.0,5.0,1.0,-1.0,0.0,-1.0,1651023480741413.0,0
134,-1.0,-2.0,1.0,3.0,4.0,1.0,0.0,-1.0,1651023480756524.0,0
135,1.0,-1.0,-4.0,-4.0,-1.0,1.0,0.0,0.0,1651023480756524.0,0
136,-2.0,-12.0,-6.0,1.0,2.0,0.0,1.0,-1.0,1651023480756524.0,0
137,0.0,6.0,0.0,-2.0,-3.0,-4.0,0.0,0.0,1651023480756524.0,0
138,0.0,5.0,2.0,-2.0,-6.0,0.0,-1.0,-1.0,1651023480778962.0,0
139,-3.0,-5.0,4.0,1.0,2.0,0.0,0.0,1.0,1651023480778962.0,0
140,0.0,-4.0,-3.0,-3.0,0.0,0.0,0.0,-2.0,1651023480779933.0,0
141,2.0,8.0,0.0,-1.0,-12.0,-3.0,-1.0,3.0,1651023480779933.0,0
142,-2.0,-5.0,1.0,1.0,15.0,0.0,0.0,0.0,1651023480792965.0,0
143,-6.0,-6.0,-2.0,1.0,6.0,1.0,-1.0,-3.0,1651023480792965.0,0
144,1.0,4.0,-4.0,-2.0,-10.0,-3.0,1.0,1.0,1651023480800943.0,0
145,-8.0,-38.0,-9.0,-7.0,2.0,0.0,1.0,-3.0,1651023480800943.0,0
146,2.0,4.0,2.0,-1.0,-8.0,-2.0,0.0,-1.0,1651023480815903.0,0
147,2.0,0.0,-4.0,-6.0,-6.0,-3.0,0.0,1.0,1651023480815903.0,0
148,0.0,-1.0,0.0,6.0,21.0,4.0,-1.0,-1.0,1651023480816834.0,0
149,2.0,6.0,7.0,8.0,10.0,5.0,0.0,0.0,1651023480816834.0,0
150,1.0,7.0,-1.0,-4.0,-2.0,1.0,1.0,1.0,1651023480847290.0,0
151,0.0,-7.0,-2.0,-3.0,-11.0,-2.0,-1.0,-1.0,1651023480847290.0,0
152,1.0,6.0,0.0,-5.0,-10.0,-3.0,0.0,0.0,1651023480847895.0,0
153,-2.0,3.0,0.0,-1.0,1.0,-2.0,-1.0,0.0,1651023480847895.0,0
154,-2.0,-10.0,0.0,5.0,-1.0,1.0,1.0,-1.0,1651023480852883.0,0
155,2.0,5.0,-3.0,-7.0,-4.0,-2.0,-2.0,0.0,1651023480852883.0,0
156,-1.0,0.0,1.0,1.0,2.0,2.0,1.0,1.0,1651023480860877.0,0
157,2.0,4.0,0.0,-4.0,-1.0,0.0,-1.0,-2.0,1651023480860877.0,0
158,-6.0,-5.0,-1.0,-3.0,-5.0,-2.0,-1.0,0.0,1651023480875965.0,0
159,-3.0,-8.0,-6.0,1.0,6.0,-2.0,0.0,-3.0,1651023480875965.0,0
160,0.0,-6.0,-1.0,-2.0,-15.0,-2.0,1.0,-2.0,1651023480876960.0,0
161,0.0,3.0,0.0,2.0,9.0,1.0,-2.0,0.0,1651023480876960.0,0
162,-1.0,8.0,2.0,3.0,3.0,1.0,-1.0,1.0,1651023480899028.0,0
163,-2.0,-26.0,1.0,0.0,-3.0,0.0,0.0,-1.0,1651023480899028.0,0
164,-2.0,-7.0,-10.0,-4.0,-3.0,-2.0,-1.0,-3.0,1651023480899028.0,0
165,-2.0,2.0,-4.0,-4.0,-13.0,-3.0,0.0,-2.0,1651023480899028.0,0
166,-2.0,2.0,0.0,-2.0,-1.0,-2.0,-2.0,-2.0,1651023480913009.0,0
167,1.0,10.0,4.0,-1.0,-10.0,-2.0,0.0,1.0,1651023480913009.0,0
168,0.0,-5.0,-1.0,-1.0,12.0,1.0,0.0,0.0,1651023480920973.0,0
169,2.0,3.0,2.0,1.0,6.0,3.0,0.0,1.0,1651023480920973.0,0
170,0.0,-2.0,-4.0,-3.0,0.0,0.0,0.0,1.0,1651023480936429.0,0
171,0.0,4.0,0.0,-5.0,-5.0,-1.0,-1.0,-1.0,1651023480936429.0,0
172,1.0,6.0,9.0,15.0,-3.0,-3.0,-1.0,0.0,1651023480936429.0,0
173,-1.0,-6.0,-4.0,0.0,2.0,-1.0,0.0,-1.0,1651023480936429.0,0
174,0.0,-4.0,-2.0,-1.0,0.0,0.0,0.0,-1.0,1651023480958435.0,0
175,1.0,6.0,-3.0,-12.0,-5.0,-4.0,-1.0,-1.0,1651023480958435.0,0
176,-2.0,-1.0,8.0,9.0,4.0,1.0,0.0,0.0,1651023480959378.0,0
177,-2.0,0.0,1.0,6.0,12.0,2.0,2.0,1.0,1651023480959378.0,0
178,0.0,-2.0,-2.0,1.0,2.0,3.0,1.0,-2.0,1651023480973328.0,0
179,3.0,1.0,1.0,-2.0,-1.0,-3.0,1.0,0.0,1651023480973328.0,0
180,-1.0,0.0,-6.0,-9.0,-1.0,1.0,-2.0,0.0,1651023480981365.0,0
181,-1.0,-4.0,2.0,1.0,-4.0,-5.0,-2.0,0.0,1651023480981365.0,0
182,3.0,10.0,2.0,0.0,-4.0,0.0,0.0,-2.0,1651023480996334.0,0
183,-1.0,-3.0,-4.0,3.0,4.0,2.0,0.0,-2.0,1651023480996334.0,0
184,-2.0,1.0,1.0,-1.0,-7.0,-4.0,0.0,0.0,1651023480997265.0,0
185,1.0,2.0,-5.0,1.0,7.0,0.0,0.0,-1.0,1651023480997265.0,0
186,-1.0,3.0,-1.0,0.0,2.0,1.0,0.0,1.0,1651023481019004.0,0
187,-2.0,-15.0,2.0,0.0,4.0,-1.0,-1.0,1.0,1651023481019004.0,0
188,3.0,1.0,-1.0,-4.0,-11.0,-3.0,-2.0,-1.0,1651023481019004.0,0
189,1.0,-3.0,-2.0,-6.0,-15.0,-2.0,-1.0,-1.0,1651023481019004.0,0
190,2.0,7.0,3.0,-1.0,20.0,2.0,-1.0,0.0,1651023481032963.0,0
191,-1.0,7.0,10.0,27.0,5.0,3.0,0.0,-1.0,1651023481032963.0,0
192,-2.0,-5.0,-2.0,-4.0,-4.0,-1.0,1.0,1.0,1651023481049020.0,0
193,-1.0,6.0,0.0,-3.0,-1.0,-2.0,1.0,-1.0,1651023481049020.0,0
194,0.0,-7.0,-2.0,-4.0,-6.0,0.0,-1.0,-2.0,1651023481056607.0,0
195,-1.0,5.0,-4.0,-8.0,2.0,-1.0,0.0,0.0,1651023481056607.0,0
196,-2.0,-1.0,-2.0,-1.0,7.0,1.0,-1.0,-1.0,1651023481056607.0,0
197,-2.0,-2.0,0.0,0.0,-4.0,-2.0,-2.0,0.0,1651023481056607.0,0
198,-1.0,-5.0,-5.0,-1.0,-8.0,-3.0,1.0,0.0,1651023481078931.0,0
199,1.0,5.0,-2.0,-6.0,-5.0,0.0,0.0,0.0,1651023481078931.0,0
200,0.0,1.0,1.0,3.0,9.0,-3.0,0.0,-1.0,1651023481078931.0,0
201,-3.0,-2.0,-1.0,-4.0,1.0,5.0,2.0,-1.0,1651023481078931.0,0
202,-3.0,-6.0,0.0,4.0,9.0,-2.0,-2.0,-2.0,1651023481102025.0,0
203,6.0,8.0,-4.0,1.0,17.0,3.0,-1.0,3.0,1651023481102025.0,0
204,3.0,13.0,5.0,-3.0,-6.0,6.0,-1.0,0.0,1651023481103048.0,0
205,-6.0,-6.0,-3.0,-6.0,-12.0,-3.0,-4.0,-3.0,1651023481103048.0,0
206,-2.0,-14.0,-4.0,2.0,-3.0,-1.0,0.0,-2.0,1651023481116058.0,0
207,0.0,-2.0,-1.0,-3.0,-10.0,-3.0,-1.0,0.0,1651023481116058.0,0
208,-3.0,-19.0,-12.0,-8.0,-7.0,-1.0,0.0,0.0,1651023481116995.0,0
209,-2.0,17.0,13.0,7.0,18.0,0.0,0.0,0.0,1651023481116995.0,0
210,0.0,-1.0,-6.0,-6.0,-12.0,0.0,1.0,1.0,1651023481139047.0,0
211,-2.0,2.0,-2.0,-1.0,-6.0,-2.0,-1.0,-1.0,1651023481139047.0,0
212,0.0,-4.0,2.0,5.0,13.0,1.0,0.0,1.0,1651023481139047.0,0
213,1.0,5.0,3.0,5.0,-12.0,-2.0,-1.0,-1.0,1651023481139047.0,0
214,0.0,-1.0,2.0,-1.0,9.0,0.0,-2.0,-1.0,1651023481161981.0,0
215,-4.0,-3.0,-2.0,0.0,1.0,3.0,1.0,-2.0,1651023481161981.0,0
216,0.0,-1.0,-1.0,-6.0,-9.0,-2.0,1.0,-1.0,1651023481162916.0,0
217,1.0,0.0,-1.0,2.0,2.0,1.0,-1.0,1.0,1651023481162916.0,0
218,1.0,5.0,0.0,-5.0,2.0,-2.0,1.0,-1.0,1651023481175881.0,0
219,-2.0,0.0,-2.0,4.0,7.0,3.0,1.0,-1.0,1651023481175881.0,0
220,0.0,7.0,2.0,1.0,-14.0,-3.0,-1.0,-2.0,1651023481176879.0,0
221,-2.0,-9.0,-5.0,2.0,17.0,2.0,-2.0,0.0,1651023481176879.0,0
222,2.0,5.0,2.0,-5.0,-14.0,-2.0,0.0,0.0,1651023481199041.0,0
223,-3.0,-12.0,-1.0,-4.0,-7.0,-3.0,-2.0,0.0,1651023481199041.0,0
224,-2.0,-1.0,-3.0,-4.0,10.0,1.0,0.0,0.0,1651023481199041.0,0
225,3.0,6.0,5.0,-1.0,-11.0,-2.0,1.0,-2.0,1651023481199041.0,0
226,1.0,5.0,5.0,9.0,-2.0,1.0,0.0,0.0,1651023481221979.0,0
227,1.0,-1.0,-1.0,-1.0,-3.0,-2.0,-1.0,-1.0,1651023481221979.0,0
228,-1.0,-3.0,-10.0,0.0,7.0,-1.0,-2.0,-1.0,1651023481222936.0,0
229,-1.0,-5.0,1.0,-3.0,-7.0,-1.0,-1.0,-1.0,1651023481222936.0,0
230,-1.0,3.0,-5.0,-3.0,4.0,-3.0,0.0,0.0,1651023481244021.0,0
231,4.0,20.0,3.0,-1.0,6.0,5.0,1.0,1.0,1651023481244021.0,0
232,-1.0,-15.0,-2.0,-2.0,-5.0,-1.0,0.0,0.0,1651023481244969.0,0
233,0.0,-6.0,-8.0,-7.0,-32.0,-7.0,-2.0,-1.0,1651023481244969.0,0
234,-1.0,-7.0,1.0,0.0,27.0,7.0,-1.0,1.0,1651023481257949.0,0
235,-1.0,8.0,1.0,-1.0,-9.0,-4.0,-2.0,0.0,1651023481257949.0,0
236,2.0,10.0,8.0,-3.0,5.0,1.0,2.0,1.0,1651023481273999.0,0
237,0.0,-1.0,-14.0,6.0,-1.0,0.0,2.0,2.0,1651023481273999.0,0
238,0.0,-7.0,-8.0,5.0,-13.0,-4.0,0.0,0.0,1651023481281976.0,0
239,0.0,-2.0,11.0,7.0,8.0,0.0,-1.0,-1.0,1651023481281976.0,0
240,-1.0,1.0,5.0,3.0,6.0,3.0,-2.0,-1.0,1651023481282935.0,0
241,0.0,-4.0,-22.0,-22.0,-7.0,-3.0,0.0,-2.0,1651023481282935.0,0
242,5.0,14.0,14.0,0.0,-13.0,-4.0,-2.0,-1.0,1651023481303915.0,0
243,-11.0,-10.0,-9.0,3.0,19.0,4.0,0.0,-3.0,1651023481303915.0,0
244,-1.0,4.0,8.0,8.0,-9.0,-1.0,0.0,0.0,1651023481304925.0,0
245,2.0,3.0,7.0,2.0,-7.0,-1.0,-3.0,0.0,1651023481304925.0,0
246,2.0,3.0,0.0,-1.0,13.0,4.0,-2.0,1.0,1651023481317946.0,0
247,1.0,-1.0,10.0,-1.0,-9.0,-4.0,-2.0,0.0,1651023481317946.0,0
248,0.0,-4.0,-13.0,-6.0,-8.0,-6.0,-3.0,1.0,1651023481325859.0,0
249,-6.0,-4.0,-12.0,-19.0,-2.0,3.0,1.0,-5.0,1651023481325859.0,0
250,2.0,-4.0,2.0,7.0,-1.0,-2.0,0.0,1.0,1651023481341883.0,0
251,-3.0,9.0,25.0,2.0,1.0,2.0,2.0,-3.0,1651023481341883.0,0
252,-9.0,-5.0,-11.0,0.0,-1.0,-3.0,-3.0,-7.0,1651023481342814.0,0
253,2.0,-1.0,2.0,17.0,12.0,2.0,5.0,3.0,1651023481342814.0,0
254,-5.0,-12.0,-27.0,-20.0,-4.0,2.0,-2.0,-6.0,1651023481363990.0,0
255,12.0,19.0,38.0,-5.0,-35.0,-13.0,-1.0,6.0,1651023481363990.0,0
256,-6.0,-16.0,-41.0,2.0,30.0,4.0,-1.0,-6.0,1651023481364933.0,0
257,-4.0,9.0,20.0,-26.0,-17.0,-5.0,-1.0,-2.0,1651023481364933.0,0
258,19.0,-9.0,-48.0,10.0,-14.0,-2.0,6.0,12.0,1651023481378129.0,0
259,-9.0,15.0,67.0,80.0,60.0,19.0,6.0,-1.0,1651023481378129.0,0
260,29.0,5.0,-14.0,-30.0,-33.0,-7.0,-2.0,8.0,1651023481385960.0,1
261,0.0,7.0,-14.0,-26.0,-21.0,-6.0,2.0,-3.0,1651023481385960.0,1
262,-52.0,-48.0,-34.0,-113.0,-61.0,-28.0,-19.0,-26.0,1651023481400880.0,1
263,25.0,5.0,-6.0,64.0,69.0,21.0,5.0,4.0,1651023481400880.0,1
264,-39.0,-2.0,7.0,48.0,18.0,10.0,32.0,15.0,1651023481401856.0,1
265,14.0,-4.0,25.0,17.0,11.0,16.0,12.0,15.0,1651023481401856.0,1
266,-45.0,-26.0,-16.0,-5.0,-39.0,-20.0,-32.0,-38.0,1651023481423859.0,1
267,27.0,-6.0,-57.0,-89.0,-31.0,-24.0,-13.0,-4.0,1651023481423859.0,1
268,30.0,23.0,18.0,-7.0,-3.0,-10.0,-47.0,-7.0,1651023481424795.0,1
269,-3.0,-16.0,-6.0,27.0,23.0,-23.0,44.0,22.0,1651023481424795.0,1
270,15.0,19.0,34.0,11.0,2.0,27.0,25.0,12.0,1651023481437761.0,1
271,12.0,5.0,-36.0,-100.0,-8.0,69.0,42.0,12.0,1651023481437761.0,1
272,-91.0,-17.0,57.0,98.0,38.0,-5.0,-36.0,-23.0,1651023481445805.0,1
273,34.0,-3.0,4.0,-35.0,-10.0,15.0,49.0,17.0,1651023481445805.0,1
274,-28.0,-22.0,-10.0,51.0,14.0,-69.0,-70.0,-28.0,1651023481460917.0,1
275,-4.0,0.0,-7.0,-32.0,-43.0,-18.0,-72.0,-24.0,1651023481460917.0,1
276,2.0,32.0,-16.0,-75.0,-44.0,-34.0,-29.0,-31.0,1651023481461845.0,1
277,20.0,16.0,-32.0,-36.0,11.0,31.0,20.0,13.0,1651023481461845.0,1
278,33.0,24.0,43.0,12.0,37.0,63.0,23.0,21.0,1651023481484830.0,1
279,27.0,-16.0,1.0,50.0,26.0,12.0,122.0,63.0,1651023481484830.0,1
280,-11.0,-4.0,9.0,-24.0,-6.0,-22.0,-68.0,1.0,1651023481484830.0,1
281,14.0,4.0,43.0,19.0,7.0,-30.0,1.0,-18.0,1651023481484830.0,1
282,25.0,34.0,-41.0,-80.0,-59.0,-20.0,18.0,20.0,1651023481497933.0,1
283,-75.0,-14.0,9.0,-4.0,11.0,-42.0,-48.0,-35.0,1651023481497933.0,1
284,91.0,-11.0,-2.0,30.0,9.0,3.0,127.0,55.0,1651023481505912.0,1
285,-16.0,-13.0,-34.0,-57.0,24.0,82.0,-88.0,-26.0,1651023481505912.0,1
286,-5.0,29.0,66.0,107.0,36.0,33.0,32.0,10.0,1651023481520948.0,1
287,-43.0,-27.0,2.0,3.0,-12.0,-17.0,-45.0,-27.0,1651023481520948.0,1
288,-1.0,-11.0,-3.0,-4.0,-4.0,-24.0,38.0,8.0,1651023481521945.0,1
289,8.0,19.0,-14.0,-30.0,-10.0,3.0,58.0,30.0,1651023481521945.0,1
290,-4.0,7.0,25.0,-6.0,19.0,11.0,4.0,-9.0,1651023481543137.0,1
291,-1.0,13.0,-11.0,11.0,-1.0,-26.0,-71.0,-31.0,1651023481543137.0,1
292,31.0,-1.0,21.0,58.0,25.0,7.0,-8.0,16.0,1651023481551086.0,1
293,-40.0,-47.0,-69.0,-46.0,-54.0,-57.0,-18.0,-27.0,1651023481551086.0,1
294,2.0,12.0,9.0,-13.0,15.0,30.0,17.0,14.0,1651023481567292.0,1
295,14.0,49.0,27.0,34.0,4.0,5.0,28.0,10.0,1651023481567292.0,1
296,19.0,-5.0,-6.0,-63.0,11.0,43.0,-7.0,2.0,1651023481567871.0,1
297,-11.0,2.0,33.0,58.0,-8.0,-22.0,-32.0,-7.0,1651023481567871.0,1
298,1.0,2.0,3.0,47.0,9.0,-50.0,-1.0,0.0,1651023481580906.0,1
299,-4.0,-11.0,-28.0,-39.0,-16.0,6.0,10.0,-6.0,1651023481580906.0,1
300,-10.0,-9.0,-1.0,-23.0,-46.0,37.0,9.0,-12.0,1651023481581836.0,1
301,-32.0,-2.0,27.0,56.0,65.0,-17.0,-36.0,-7.0,1651023481581836.0,1
302,46.0,-5.0,-6.0,-10.0,12.0,-20.0,4.0,4.0,1651023481603900.0,1
303,-4.0,27.0,0.0,-34.0,-25.0,34.0,52.0,22.0,1651023481603900.0,1
304,0.0,-10.0,-26.0,-12.0,5.0,3.0,-57.0,-25.0,1651023481604831.0,1
305,-25.0,-33.0,-15.0,19.0,-14.0,20.0,32.0,1.0,1651023481604831.0,1
306,-1.0,19.0,35.0,49.0,20.0,-17.0,-16.0,6.0,1651023481626883.0,1
307,3.0,16.0,-17.0,-3.0,-7.0,-27.0,14.0,0.0,1651023481626883.0,1
308,-8.0,32.0,37.0,-18.0,-1.0,6.0,24.0,7.0,1651023481627869.0,1
309,8.0,-40.0,-39.0,-9.0,4.0,4.0,-14.0,-13.0,1651023481627869.0,1
310,-8.0,-20.0,-20.0,-30.0,-24.0,-41.0,-48.0,-8.0,1651023481640905.0,1
311,14.0,2.0,26.0,13.0,7.0,-67.0,-53.0,-5.0,1651023481640905.0,1
312,-36.0,8.0,-5.0,6.0,14.0,97.0,100.0,17.0,1651023481641834.0,1
313,51.0,39.0,14.0,-26.0,-25.0,-51.0,-113.0,-12.0,1651023481641834.0,1
314,-25.0,-18.0,19.0,14.0,-3.0,-53.0,28.0,6.0,1651023481663910.0,1
315,-14.0,-67.0,-57.0,-15.0,-13.0,-15.0,-35.0,-24.0,1651023481663910.0,1
316,22.0,-15.0,-7.0,-28.0,-14.0,25.0,8.0,-5.0,1651023481670893.0,1
317,-26.0,24.0,25.0,23.0,37.0,75.0,54.0,26.0,1651023481670893.0,1
318,15.0,-11.0,-19.0,-24.0,-6.0,3.0,4.0,2.0,1651023481687088.0,1
319,-5.0,14.0,7.0,-3.0,-2.0,-27.0,4.0,12.0,1651023481687088.0,1
320,-2.0,7.0,26.0,-24.0,-40.0,-104.0,-49.0,-21.0,1651023481688019.0,1
321,1.0,13.0,25.0,80.0,35.0,15.0,34.0,24.0,1651023481688019.0,1
322,-3.0,-32.0,-17.0,24.0,31.0,23.0,-16.0,-12.0,1651023481701051.0,1
323,-34.0,-4.0,-9.0,-37.0,-28.0,-2.0,0.0,-14.0,1651023481701051.0,1
324,15.0,-35.0,-25.0,-3.0,0.0,19.0,34.0,29.0,1651023481701980.0,1
325,-18.0,33.0,25.0,-21.0,-12.0,-34.0,-61.0,-28.0,1651023481701980.0,1
326,32.0,-6.0,-13.0,-29.0,2.0,32.0,23.0,17.0,1651023481723821.0,1
327,4.0,-1.0,-2.0,13.0,2.0,8.0,18.0,6.0,1651023481723821.0,1
328,-23.0,5.0,-13.0,-6.0,0.0,-42.0,-48.0,-22.0,1651023481724820.0,1
329,11.0,33.0,22.0,10.0,16.0,72.0,62.0,1.0,1651023481724820.0,1
330,8.0,-10.0,-10.0,-9.0,-6.0,-12.0,-21.0,3.0,1651023481746913.0,1
331,18.0,6.0,16.0,21.0,10.0,62.0,18.0,12.0,1651023481746913.0,1
332,20.0,2.0,-12.0,-16.0,-5.0,-15.0,-46.0,-6.0,1651023481748868.0,1
333,2.0,-4.0,-2.0,13.0,-23.0,-80.0,6.0,-10.0,1651023481748868.0,1
334,-9.0,4.0,-10.0,-27.0,-4.0,21.0,-4.0,-9.0,1651023481760875.0,1
335,21.0,-22.0,21.0,32.0,4.0,2.0,10.0,14.0,1651023481760875.0,1
336,-17.0,9.0,24.0,22.0,37.0,-3.0,12.0,-2.0,1651023481761806.0,1
337,-2.0,-19.0,-26.0,24.0,5.0,-2.0,23.0,4.0,1651023481761806.0,1
338,-31.0,48.0,15.0,-6.0,-16.0,7.0,3.0,-20.0,1651023481784847.0,1
339,35.0,-15.0,-14.0,-12.0,-11.0,-36.0,-49.0,6.0,1651023481784847.0,1
340,-18.0,-4.0,4.0,10.0,1.0,5.0,7.0,-6.0,1651023481784946.0,1
341,34.0,-23.0,-18.0,-27.0,-22.0,-3.0,13.0,23.0,1651023481784946.0,1
342,-21.0,27.0,8.0,1.0,11.0,-19.0,3.0,-18.0,1651023481806860.0,1
343,-38.0,-18.0,-13.0,-14.0,3.0,44.0,33.0,3.0,1651023481806860.0,1
344,30.0,-5.0,-21.0,-4.0,0.0,9.0,14.0,-2.0,1651023481807788.0,1
345,-30.0,23.0,27.0,-2.0,-2.0,-6.0,-45.0,-9.0,1651023481807788.0,1
346,49.0,-6.0,19.0,11.0,2.0,0.0,-37.0,7.0,1651023481820818.0,1
347,-35.0,-14.0,-46.0,-38.0,-7.0,21.0,6.0,-22.0,1651023481820818.0,1
348,-1.0,8.0,9.0,30.0,25.0,27.0,29.0,7.0,1651023481821751.0,1
349,-11.0,-5.0,-10.0,-56.0,-30.0,-27.0,-10.0,-10.0,1651023481821751.0,1
350,-28.0,-13.0,38.0,72.0,35.0,4.0,10.0,6.0,1651023481844252.0,1
351,53.0,30.0,23.0,18.0,-10.0,-31.0,-19.0,-7.0,1651023481844252.0,1
352,0.0,-30.0,-35.0,-54.0,-18.0,-20.0,-9.0,0.0,1651023481845455.0,1
353,19.0,11.0,2.0,4.0,9.0,-11.0,17.0,-1.0,1651023481845455.0,1
354,-21.0,-9.0,-21.0,-18.0,-16.0,22.0,9.0,4.0,1651023481866965.0,1
355,17.0,10.0,24.0,11.0,12.0,-16.0,-21.0,7.0,1651023481866965.0,1
356,-3.0,-5.0,-18.0,0.0,-1.0,-7.0,12.0,5.0,1651023481867896.0,1
357,-7.0,7.0,1.0,1.0,-5.0,-26.0,-66.0,-29.0,1651023481867896.0,1
358,-3.0,-41.0,-63.0,-51.0,-33.0,3.0,10.0,4.0,1651023481881858.0,1
359,-13.0,-17.0,16.0,19.0,24.0,21.0,66.0,21.0,1651023481881858.0,1
360,-19.0,8.0,-6.0,-20.0,-21.0,-47.0,-72.0,-30.0,1651023481889862.0,1
361,4.0,28.0,30.0,9.0,18.0,71.0,109.0,33.0,1651023481889862.0,1
362,-10.0,-35.0,9.0,3.0,-4.0,24.0,-77.0,-16.0,1651023481903918.0,1
363,2.0,-6.0,-45.0,-21.0,-18.0,-55.0,-22.0,3.0,1651023481903918.0,1
364,-64.0,0.0,3.0,-12.0,-20.0,-24.0,12.0,-19.0,1651023481905035.0,1
365,37.0,-17.0,-32.0,-55.0,-11.0,34.0,4.0,2.0,1651023481905035.0,1
366,-29.0,19.0,68.0,65.0,50.0,13.0,40.0,9.0,1651023481926857.0,1
367,55.0,25.0,-7.0,-26.0,-8.0,35.0,33.0,18.0,1651023481926857.0,1
368,-31.0,-24.0,-30.0,-7.0,0.0,-42.0,-48.0,-23.0,1651023481927854.0,1
369,-1.0,1.0,13.0,25.0,1.0,-10.0,7.0,8.0,1651023481927854.0,1
370,-15.0,-20.0,-40.0,-32.0,10.0,12.0,19.0,1.0,1651023481949455.0,1
371,-31.0,-7.0,23.0,17.0,8.0,0.0,-21.0,-9.0,1651023481949455.0,1
372,41.0,51.0,13.0,3.0,-23.0,15.0,55.0,31.0,1651023481950393.0,1
373,10.0,-7.0,2.0,-2.0,6.0,-19.0,-48.0,-14.0,1651023481950393.0,1
374,-6.0,-2.0,-21.0,-33.0,-6.0,-24.0,-4.0,-5.0,1651023481963887.0,1
375,-72.0,3.0,-1.0,8.0,-6.0,-53.0,52.0,-2.0,1651023481963887.0,1
376,69.0,-25.0,0.0,5.0,1.0,91.0,-63.0,-8.0,1651023481965000.0,1
377,15.0,6.0,-1.0,-6.0,8.0,22.0,49.0,20.0,1651023481965000.0,1
378,24.0,48.0,16.0,5.0,-12.0,-24.0,-64.0,-18.0,1651023481987294.0,1
379,1.0,6.0,23.0,17.0,5.0,-11.0,9.0,5.0,1651023481987294.0,1
380,19.0,11.0,-1.0,-6.0,7.0,14.0,43.0,24.0,1651023481987897.0,1
381,-37.0,-73.0,-5.0,29.0,1.0,-25.0,-36.0,-11.0,1651023481987897.0,1
382,32.0,27.0,-19.0,-38.0,-25.0,-17.0,24.0,0.0,1651023482000933.0,1
383,-9.0,-3.0,31.0,47.0,12.0,5.0,-26.0,-16.0,1651023482000933.0,1
384,-28.0,22.0,12.0,-1.0,16.0,1.0,0.0,3.0,1651023482001863.0,1
385,19.0,13.0,-5.0,7.0,13.0,9.0,-7.0,5.0,1651023482001863.0,1
386,16.0,-42.0,-33.0,-15.0,-1.0,5.0,47.0,21.0,1651023482023995.0,1
387,-21.0,-5.0,3.0,2.0,-3.0,10.0,-42.0,-16.0,1651023482023995.0,1
388,30.0,-35.0,5.0,16.0,-21.0,-30.0,-6.0,7.0,1651023482025924.0,1
389,-32.0,-8.0,-12.0,-25.0,12.0,-29.0,-9.0,-23.0,1651023482025924.0,1
390,-27.0,16.0,1.0,-25.0,-16.0,37.0,24.0,5.0,1651023482046928.0,1
391,51.0,15.0,-3.0,2.0,0.0,17.0,51.0,13.0,1651023482046928.0,1
392,11.0,0.0,11.0,17.0,-2.0,-41.0,-60.0,-13.0,1651023482048892.0,1
393,-47.0,-26.0,-23.0,-13.0,-21.0,-18.0,-31.0,-16.0,1651023482048892.0,1
394,12.0,7.0,11.0,4.0,-2.0,16.0,27.0,17.0,1651023482069892.0,1
395,13.0,-1.0,-6.0,-21.0,8.0,67.0,-2.0,-12.0,1651023482069892.0,1
396,-52.0,-1.0,-22.0,14.0,5.0,-17.0,73.0,14.0,1651023482070885.0,1
397,37.0,-9.0,-2.0,-14.0,-37.0,-55.0,-60.0,-16.0,1651023482070885.0,1
398,-41.0,6.0,19.0,24.0,16.0,-25.0,-24.0,-18.0,1651023482084860.0,1
399,-34.0,-25.0,-26.0,-13.0,-11.0,-19.0,4.0,-12.0,1651023482084860.0,1
400,26.0,28.0,31.0,30.0,22.0,25.0,34.0,21.0,1651023482085871.0,1
401,-14.0,4.0,6.0,6.0,5.0,16.0,12.0,0.0,1651023482085871.0,1
402,25.0,-12.0,-10.0,-15.0,-16.0,-3.0,27.0,10.0,1651023482106918.0,1
403,-7.0,-56.0,-47.0,-40.0,-8.0,3.0,-21.0,-5.0,1651023482106918.0,1
404,-12.0,12.0,0.0,-21.0,5.0,9.0,-16.0,-7.0,1651023482108932.0,1
405,-20.0,3.0,6.0,13.0,4.0,-6.0,23.0,3.0,1651023482108932.0,1
406,41.0,-6.0,7.0,3.0,-4.0,-5.0,-35.0,12.0,1651023482120888.0,1
407,16.0,63.0,0.0,-14.0,-13.0,-17.0,-21.0,-5.0,1651023482120888.0,1
408,18.0,-5.0,-1.0,-5.0,14.0,41.0,44.0,15.0,1651023482129861.0,1
409,14.0,11.0,15.0,0.0,-2.0,-9.0,-27.0,-9.0,1651023482129861.0,1
410,-65.0,-7.0,-8.0,7.0,-10.0,-17.0,-4.0,-21.0,1651023482144817.0,1
411,55.0,8.0,9.0,-3.0,-16.0,10.0,27.0,30.0,1651023482144817.0,1
412,-25.0,-3.0,12.0,2.0,17.0,2.0,26.0,-6.0,1651023482145917.0,1
413,-48.0,-3.0,-29.0,-50.0,-32.0,-30.0,-56.0,-20.0,1651023482145917.0,1
414,1.0,-3.0,17.0,70.0,49.0,40.0,68.0,9.0,1651023482167233.0,1
415,-19.0,-18.0,-9.0,0.0,3.0,-26.0,-71.0,-12.0,1651023482167233.0,1
416,37.0,11.0,0.0,-64.0,-38.0,-7.0,-12.0,0.0,1651023482167896.0,1
417,33.0,37.0,39.0,51.0,43.0,25.0,52.0,5.0,1651023482167896.0,1
418,1.0,-14.0,-32.0,-46.0,-17.0,1.0,-23.0,-3.0,1651023482188936.0,1
419,-23.0,-3.0,20.0,36.0,-8.0,-35.0,-25.0,-12.0,1651023482188936.0,1
420,15.0,-12.0,-30.0,-30.0,-18.0,-8.0,-2.0,-8.0,1651023482190932.0,1
421,18.0,5.0,-7.0,-1.0,-3.0,2.0,-12.0,2.0,1651023482190932.0,1
422,52.0,38.0,30.0,-3.0,-4.0,-22.0,43.0,37.0,1651023482203997.0,1
423,-2.0,-13.0,-23.0,-2.0,3.0,53.0,-16.0,-23.0,1651023482203997.0,1
424,-22.0,-31.0,-16.0,-2.0,9.0,-23.0,-30.0,-12.0,1651023482205995.0,1
425,19.0,7.0,11.0,15.0,4.0,29.0,23.0,18.0,1651023482205995.0,1
426,-17.0,-15.0,-11.0,-12.0,-12.0,13.0,-27.0,-16.0,1651023482226943.0,1
427,8.0,4.0,13.0,-1.0,8.0,-16.0,3.0,0.0,1651023482226943.0,1
428,17.0,11.0,0.0,-2.0,3.0,7.0,-1.0,5.0,1651023482228933.0,1
429,12.0,-11.0,29.0,67.0,23.0,12.0,19.0,15.0,1651023482228933.0,1
430,-9.0,8.0,-7.0,-6.0,-30.0,-6.0,6.0,3.0,1651023482240906.0,1
431,-27.0,-28.0,-22.0,-39.0,7.0,-30.0,-39.0,-25.0,1651023482240906.0,1
432,-5.0,-20.0,0.0,31.0,-3.0,-8.0,0.0,-12.0,1651023482249878.0,1
433,16.0,36.0,5.0,-3.0,-2.0,-10.0,12.0,13.0,1651023482249878.0,1
434,19.0,1.0,2.0,-13.0,-5.0,4.0,15.0,-10.0,1651023482264877.0,1
435,18.0,16.0,12.0,-9.0,-6.0,24.0,56.0,24.0,1651023482264877.0,1
436,-61.0,0.0,-6.0,26.0,23.0,-27.0,-23.0,-6.0,1651023482266872.0,1
437,20.0,-27.0,-5.0,-5.0,9.0,31.0,-57.0,-18.0,1651023482266872.0,1
438,6.0,8.0,-12.0,-6.0,9.0,4.0,54.0,13.0,1651023482287236.0,1
439,-14.0,25.0,-6.0,-14.0,-19.0,-12.0,-52.0,-18.0,1651023482287236.0,1
440,-18.0,0.0,19.0,6.0,-3.0,-24.0,11.0,-3.0,1651023482287869.0,1
441,-11.0,3.0,-24.0,-23.0,-3.0,-5.0,12.0,6.0,1651023482287869.0,1
442,-16.0,-5.0,13.0,2.0,10.0,1.0,-16.0,-6.0,1651023482300903.0,1
443,4.0,29.0,32.0,45.0,16.0,20.0,53.0,31.0,1651023482300903.0,1
444,45.0,-25.0,-14.0,-18.0,-16.0,15.0,2.0,15.0,1651023482309812.0,1
445,-26.0,-4.0,3.0,1.0,-6.0,-16.0,-2.0,-10.0,1651023482309812.0,1
446,21.0,9.0,8.0,11.0,25.0,10.0,-16.0,-3.0,1651023482323925.0,1
447,-28.0,-16.0,-3.0,-18.0,-4.0,3.0,9.0,13.0,1651023482323925.0,1
448,60.0,45.0,9.0,22.0,-11.0,-14.0,-6.0,7.0,1651023482325920.0,1
449,11.0,-7.0,28.0,23.0,15.0,-5.0,36.0,3.0,1651023482325920.0,1
450,-69.0,-6.0,-27.0,-9.0,2.0,15.0,14.0,-9.0,1651023482347125.0,1
451,47.0,-33.0,1.0,-5.0,-9.0,-9.0,-69.0,-9.0,1651023482347125.0,1
452,-62.0,-5.0,-5.0,-6.0,1.0,15.0,61.0,-1.0,1651023482348071.0,1
453,12.0,22.0,-11.0,-33.0,-13.0,57.0,-52.0,0.0,1651023482348071.0,1
454,-8.0,-30.0,-2.0,-3.0,-20.0,-43.0,-3.0,-18.0,1651023482361021.0,1
455,-17.0,-4.0,2.0,-11.0,11.0,-7.0,13.0,-4.0,1651023482361021.0,1
456,-26.0,9.0,10.0,42.0,28.0,33.0,-8.0,-5.0,1651023482369062.0,1
457,-24.0,-5.0,-24.0,-61.0,-24.0,-23.0,41.0,17.0,1651023482369062.0,1
458,31.0,23.0,83.0,95.0,29.0,3.0,-39.0,-6.0,1651023482384606.0,1
459,-5.0,-42.0,-91.0,-88.0,-35.0,-7.0,12.0,-15.0,1651023482384606.0,1
460,-44.0,0.0,25.0,16.0,15.0,-4.0,-27.0,-14.0,1651023482385605.0,1
461,-31.0,17.0,3.0,6.0,2.0,8.0,30.0,13.0,1651023482385605.0,1
462,71.0,-5.0,-25.0,-39.0,-25.0,-18.0,-23.0,-5.0,1651023482406551.0,1
463,21.0,2.0,3.0,7.0,2.0,10.0,22.0,14.0,1651023482406551.0,1
464,-1.0,10.0,3.0,3.0,15.0,-1.0,-26.0,-4.0,1651023482408544.0,1
465,-19.0,-18.0,-25.0,-5.0,1.0,-20.0,-9.0,-10.0,1651023482408544.0,1
466,-41.0,-26.0,-8.0,-25.0,-19.0,-31.0,15.0,-10.0,1651023482420576.0,1
467,24.0,49.0,24.0,28.0,27.0,87.0,53.0,55.0,1651023482420576.0,1
468,12.0,-16.0,-24.0,-32.0,-41.0,-72.0,22.0,-26.0,1651023482429488.0,1
469,-42.0,-14.0,3.0,-12.0,4.0,24.0,-58.0,-5.0,1651023482429488.0,1
470,71.0,9.0,-2.0,18.0,15.0,-3.0,24.0,27.0,1651023482444533.0,1
471,-51.0,-31.0,13.0,24.0,5.0,1.0,-46.0,-39.0,1651023482444533.0,1
472,60.0,23.0,-19.0,-47.0,0.0,20.0,19.0,22.0,1651023482445542.0,1
473,-4.0,12.0,41.0,97.0,-4.0,-46.0,-29.0,-14.0,1651023482445542.0,1
474,4.0,-28.0,-30.0,-32.0,11.0,-3.0,8.0,4.0,1651023482467286.0,1
475,-4.0,3.0,12.0,17.0,-9.0,-10.0,-3.0,-11.0,1651023482467286.0,1
476,-9.0,14.0,11.0,7.0,17.0,14.0,1.0,10.0,1651023482468914.0,1
477,1.0,5.0,-4.0,-17.0,-4.0,-10.0,9.0,-1.0,1651023482468914.0,1
478,-66.0,14.0,-11.0,-25.0,3.0,49.0,-4.0,-6.0,1651023482480917.0,1
479,40.0,-21.0,-7.0,4.0,-12.0,-43.0,-16.0,-9.0,1651023482480917.0,1
480,-9.0,2.0,2.0,-16.0,-21.0,-22.0,-48.0,-11.0,1651023482489855.0,1
481,2.0,-4.0,0.0,0.0,7.0,6.0,99.0,29.0,1651023482489855.0,1
482,49.0,-5.0,2.0,5.0,0.0,44.0,-27.0,2.0,1651023482503974.0,1
483,-20.0,10.0,-2.0,-14.0,-15.0,-34.0,-27.0,-8.0,1651023482503974.0,1
484,-15.0,-9.0,14.0,19.0,35.0,88.0,-12.0,-13.0,1651023482510927.0,1
485,16.0,-7.0,-20.0,-26.0,-4.0,-21.0,-3.0,-23.0,1651023482510927.0,1
486,-31.0,5.0,2.0,-6.0,-16.0,-15.0,21.0,17.0,1651023482526875.0,1
487,8.0,-1.0,3.0,-9.0,4.0,-29.0,23.0,7.0,1651023482526875.0,1
488,8.0,-7.0,25.0,68.0,11.0,0.0,4.0,10.0,1651023482528875.0,1
489,10.0,-6.0,-18.0,-1.0,1.0,4.0,9.0,-2.0,1651023482528875.0,1
490,-15.0,-31.0,-35.0,-37.0,-17.0,-20.0,-43.0,-21.0,1651023482549836.0,1
491,26.0,38.0,9.0,21.0,15.0,15.0,13.0,6.0,1651023482549836.0,1
492,5.0,-27.0,9.0,1.0,-5.0,-7.0,-5.0,10.0,1651023482550807.0,1
493,15.0,27.0,-6.0,-29.0,-7.0,2.0,-8.0,3.0,1651023482550807.0,1
494,-5.0,14.0,30.0,17.0,-2.0,-17.0,-18.0,6.0,1651023482564842.0,1
495,0.0,-26.0,1.0,17.0,8.0,5.0,14.0,-6.0,1651023482564842.0,1
496,-9.0,18.0,-14.0,-25.0,-12.0,-31.0,28.0,10.0,1651023482565843.0,1
497,-27.0,-64.0,-28.0,-14.0,-7.0,26.0,-27.0,-16.0,1651023482565843.0,1
498,-35.0,-2.0,-8.0,-6.0,5.0,-14.0,30.0,-8.0,1651023482586940.0,1
499,-2.0,24.0,29.0,20.0,7.0,95.0,12.0,13.0,1651023482586940.0,1
500,52.0,36.0,-3.0,-24.0,13.0,-24.0,-45.0,1.0,1651023482588890.0,1
501,-11.0,-67.0,13.0,37.0,9.0,5.0,36.0,7.0,1651023482588890.0,1
502,-7.0,46.0,8.0,35.0,-11.0,-40.0,-33.0,-2.0,1651023482609027.0,1
503,19.0,1.0,-14.0,-18.0,22.0,-24.0,34.0,14.0,1651023482609027.0,1
504,-42.0,-18.0,7.0,4.0,-9.0,16.0,21.0,-5.0,1651023482610958.0,1
505,7.0,8.0,-17.0,-30.0,-11.0,-11.0,-19.0,1.0,1651023482610958.0,1
506,10.0,15.0,26.0,26.0,0.0,24.0,13.0,5.0,1651023482623927.0,1
507,-28.0,2.0,12.0,8.0,-9.0,-22.0,-4.0,-4.0,1651023482623927.0,1
508,44.0,28.0,8.0,-5.0,12.0,21.0,-2.0,13.0,1651023482625918.0,1
509,-9.0,-12.0,12.0,23.0,16.0,2.0,14.0,3.0,1651023482625918.0,1
510,17.0,-56.0,-44.0,-3.0,-8.0,-15.0,-38.0,-3.0,1651023482647293.0,1
511,-48.0,12.0,-17.0,-25.0,-12.0,-12.0,-13.0,-16.0,1651023482647293.0,1
512,-23.0,22.0,-1.0,-19.0,-2.0,4.0,26.0,6.0,1651023482648868.0,1
513,50.0,8.0,19.0,18.0,-15.0,-32.0,-12.0,1.0,1651023482648868.0,1
514,-31.0,-24.0,-7.0,-17.0,5.0,52.0,24.0,-15.0,1651023482668842.0,1
515,18.0,-5.0,-1.0,2.0,1.0,-86.0,-48.0,5.0,1651023482668842.0,1
516,-25.0,-9.0,-2.0,2.0,-1.0,88.0,12.0,-9.0,1651023482670810.0,1
517,12.0,14.0,-10.0,-13.0,5.0,-14.0,5.0,-5.0,1651023482670810.0,1
518,-8.0,-9.0,1.0,-17.0,-13.0,9.0,26.0,4.0,1651023482683775.0,1
519,24.0,-19.0,-21.0,-27.0,-1.0,3.0,-35.0,-9.0,1651023482683775.0,1
520,-16.0,-25.0,10.0,32.0,-23.0,-34.0,5.0,-5.0,1651023482690758.0,1
521,12.0,53.0,10.0,-13.0,13.0,-4.0,-3.0,5.0,1651023482690758.0,1
522,4.0,-10.0,-5.0,15.0,2.0,-15.0,-14.0,-3.0,1651023482706842.0,1
523,-29.0,27.0,4.0,-32.0,-3.0,19.0,17.0,5.0,1651023482706842.0,1
524,15.0,-16.0,-7.0,28.0,4.0,-11.0,-12.0,-14.0,1651023482708867.0,1
525,-39.0,-13.0,9.0,-5.0,-22.0,8.0,-3.0,-1.0,1651023482708867.0,1
526,23.0,7.0,-5.0,0.0,13.0,-21.0,1.0,3.0,1651023482728957.0,1
527,46.0,33.0,3.0,4.0,6.0,36.0,12.0,27.0,1651023482728957.0,1
528,-25.0,-41.0,-29.0,-19.0,-28.0,-54.0,-43.0,-24.0,1651023482730951.0,1
529,-3.0,22.0,13.0,10.0,18.0,30.0,27.0,5.0,1651023482730951.0,1
530,23.0,35.0,6.0,-26.0,1.0,15.0,-51.0,0.0,1651023482743980.0,1
531,-5.0,-51.0,-5.0,26.0,9.0,18.0,20.0,-12.0,1651023482743980.0,1
532,35.0,-7.0,11.0,24.0,4.0,-11.0,13.0,14.0,1651023482750942.0,1
533,-16.0,8.0,-20.0,-44.0,-28.0,-28.0,-14.0,-3.0,1651023482750942.0,1
534,14.0,-3.0,20.0,33.0,1.0,0.0,21.0,4.0,1651023482766950.0,1
535,37.0,11.0,-11.0,-17.0,-3.0,24.0,26.0,3.0,1651023482766950.0,1
536,14.0,14.0,-14.0,2.0,13.0,-5.0,1.0,16.0,1651023482768887.0,1
537,-4.0,-3.0,-3.0,-1.0,15.0,9.0,-9.0,-3.0,1651023482768887.0,1
538,-7.0,30.0,-3.0,-48.0,-15.0,-6.0,36.0,13.0,1651023482789830.0,1
539,-8.0,0.0,30.0,57.0,6.0,6.0,-30.0,-7.0,1651023482789830.0,1
540,-18.0,-15.0,-13.0,-36.0,-18.0,-7.0,19.0,-6.0,1651023482790828.0,1
541,-13.0,2.0,10.0,67.0,18.0,15.0,-34.0,-13.0,1651023482790828.0,1
542,7.0,55.0,24.0,-4.0,6.0,8.0,13.0,16.0,1651023482803960.0,1
543,-1.0,-107.0,-62.0,-23.0,-18.0,-42.0,-14.0,-32.0,1651023482803960.0,1
544,-25.0,12.0,-8.0,-18.0,-8.0,-10.0,-4.0,-3.0,1651023482810954.0,1
545,-4.0,0.0,2.0,-4.0,-5.0,11.0,0.0,10.0,1651023482810954.0,1
546,-21.0,-11.0,-4.0,-8.0,15.0,6.0,-9.0,-11.0,1651023482826984.0,1
547,-35.0,14.0,17.0,13.0,-19.0,-20.0,13.0,3.0,1651023482826984.0,1
548,-9.0,19.0,6.0,2.0,6.0,22.0,-26.0,-12.0,1651023482828911.0,1
549,-2.0,-18.0,-14.0,-33.0,-8.0,6.0,54.0,11.0,1651023482828911.0,1
550,35.0,26.0,23.0,51.0,15.0,7.0,-45.0,10.0,1651023482849855.0,1
551,-20.0,-4.0,-10.0,-6.0,-20.0,-59.0,-25.0,0.0,1651023482849855.0,1
552,30.0,7.0,4.0,-4.0,23.0,21.0,-9.0,-2.0,1651023482850852.0,1
553,30.0,-9.0,-12.0,-11.0,-4.0,0.0,16.0,5.0,1651023482850852.0,1
554,31.0,-15.0,2.0,24.0,6.0,14.0,39.0,4.0,1651023482863885.0,1
555,15.0,22.0,20.0,7.0,10.0,17.0,15.0,15.0,1651023482863885.0,1
556,-76.0,-6.0,4.0,-24.0,-5.0,-21.0,-19.0,-13.0,1651023482870861.0,1
557,36.0,-11.0,-15.0,27.0,7.0,5.0,-11.0,2.0,1651023482870861.0,1
558,-39.0,-41.0,-36.0,-43.0,-28.0,-26.0,-23.0,-38.0,1651023482886865.0,1
559,39.0,22.0,4.0,-15.0,1.0,13.0,34.0,25.0,1651023482886865.0,1
560,-19.0,3.0,10.0,19.0,15.0,7.0,-5.0,-21.0,1651023482888858.0,1
561,-45.0,10.0,0.0,-13.0,-6.0,-18.0,27.0,8.0,1651023482888858.0,1
562,14.0,34.0,24.0,4.0,-7.0,-26.0,-77.0,-5.0,1651023482909777.0,1
563,-11.0,-58.0,-22.0,3.0,5.0,-16.0,-47.0,-25.0,1651023482909777.0,1
564,5.0,-13.0,-13.0,-18.0,-6.0,50.0,16.0,8.0,1651023482910772.0,1
565,0.0,5.0,9.0,2.0,9.0,20.0,13.0,-7.0,1651023482910772.0,1
566,-31.0,14.0,2.0,-2.0,1.0,-4.0,46.0,8.0,1651023482923789.0,1
567,-15.0,32.0,20.0,15.0,4.0,1.0,11.0,4.0,1651023482923789.0,1
568,25.0,-29.0,-9.0,-5.0,-11.0,-33.0,0.0,12.0,1651023482930773.0,1
569,-7.0,0.0,-13.0,-20.0,-24.0,-17.0,-19.0,-10.0,1651023482930773.0,1
570,-8.0,-16.0,3.0,29.0,9.0,23.0,10.0,1.0,1651023482946914.0,1
571,4.0,24.0,5.0,-42.0,22.0,17.0,13.0,3.0,1651023482946914.0,1
572,2.0,38.0,24.0,81.0,10.0,-8.0,13.0,3.0,1651023482948922.0,1
573,25.0,-13.0,4.0,-7.0,-12.0,-13.0,-40.0,-3.0,1651023482948922.0,1
574,-23.0,-36.0,-41.0,-47.0,-26.0,-53.0,-57.0,-27.0,1651023482969002.0,1
575,0.0,11.0,-7.0,-3.0,-5.0,37.0,10.0,-6.0,1651023482969002.0,1
576,2.0,-2.0,4.0,-11.0,-7.0,-51.0,2.0,7.0,1651023482975953.0,1
577,-7.0,11.0,12.0,-11.0,4.0,50.0,1.0,-1.0,1651023482975953.0,1
578,5.0,-6.0,4.0,15.0,-5.0,40.0,25.0,1.0,1651023482984116.0,1
579,-14.0,1.0,2.0,0.0,14.0,-36.0,-15.0,-10.0,1651023482984116.0,1
580,2.0,2.0,-2.0,-6.0,4.0,40.0,31.0,23.0,1651023482990819.0,1
581,6.0,-3.0,-4.0,2.0,-9.0,31.0,-14.0,-8.0,1651023482990819.0,1
582,6.0,0.0,-4.0,-14.0,1.0,-33.0,-7.0,8.0,1651023483006913.0,1
583,-16.0,4.0,8.0,23.0,-5.0,-18.0,5.0,9.0,1651023483006913.0,1
584,6.0,-2.0,-2.0,-9.0,6.0,-9.0,-7.0,-4.0,1651023483008914.0,1
585,6.0,6.0,1.0,2.0,-10.0,-42.0,-12.0,-4.0,1651023483008914.0,1
586,-8.0,-12.0,-10.0,0.0,0.0,13.0,6.0,-2.0,1651023483029029.0,1
587,-8.0,-1.0,1.0,5.0,-4.0,3.0,5.0,5.0,1651023483029029.0,1
588,7.0,5.0,6.0,8.0,18.0,-9.0,-11.0,-3.0,1651023483030957.0,1
589,-6.0,-6.0,5.0,-6.0,-7.0,-23.0,-10.0,-1.0,1651023483030957.0,1
590,-3.0,3.0,-8.0,-2.0,8.0,38.0,26.0,3.0,1651023483043197.0,1
591,2.0,-5.0,-2.0,4.0,-8.0,9.0,-4.0,1.0,1651023483043197.0,1
592,0.0,-16.0,-42.0,-16.0,-16.0,21.0,-6.0,-15.0,1651023483058164.0,1
593,-5.0,15.0,22.0,9.0,26.0,38.0,17.0,12.0,1651023483058164.0,1
594,8.0,8.0,27.0,2.0,-3.0,0.0,8.0,6.0,1651023483066300.0,1
595,-1.0,21.0,43.0,14.0,11.0,7.0,16.0,10.0,1651023483066300.0,1
596,4.0,-13.0,-77.0,-20.0,-10.0,-14.0,-17.0,-6.0,1651023483068305.0,1
597,-5.0,1.0,41.0,0.0,-8.0,-40.0,-11.0,-8.0,1651023483068305.0,1
598,-11.0,-18.0,-13.0,-3.0,-15.0,-16.0,-5.0,-2.0,1651023483089307.0,1
599,4.0,12.0,15.0,4.0,-7.0,14.0,-1.0,13.0,1651023483089307.0,1
600,-3.0,2.0,5.0,6.0,6.0,-5.0,4.0,-7.0,1651023483091249.0,1
601,-1.0,-5.0,-36.0,-8.0,4.0,6.0,6.0,-2.0,1651023483091249.0,1
602,1.0,2.0,-1.0,-5.0,1.0,-7.0,-2.0,-2.0,1651023483103497.0,1
603,-5.0,-8.0,-15.0,-2.0,2.0,3.0,-4.0,-6.0,1651023483103497.0,1
604,3.0,7.0,37.0,-2.0,-22.0,-3.0,-2.0,9.0,1651023483112534.0,1
605,2.0,-10.0,-20.0,12.0,33.0,14.0,-4.0,-4.0,1651023483112534.0,1
606,0.0,2.0,-14.0,-4.0,7.0,5.0,3.0,-3.0,1651023483126513.0,1
607,0.0,7.0,3.0,-7.0,-6.0,-4.0,3.0,1.0,1651023483126513.0,1
608,4.0,2.0,-4.0,-2.0,5.0,7.0,0.0,1.0,1651023483128480.0,1
609,-6.0,-8.0,5.0,-3.0,-18.0,-14.0,2.0,4.0,1651023483128480.0,1
610,-6.0,-12.0,-7.0,3.0,8.0,-4.0,-3.0,0.0,1651023483149616.0,1
611,1.0,-2.0,-46.0,-8.0,2.0,9.0,4.0,-7.0,1651023483149616.0,1
612,6.0,27.0,75.0,19.0,-3.0,-3.0,-3.0,2.0,1651023483150577.0,1
613,-17.0,-48.0,-12.0,-11.0,-19.0,-16.0,-10.0,-10.0,1651023483150577.0,1
614,2.0,1.0,-24.0,-16.0,9.0,4.0,2.0,1.0,1651023483162520.0,1
615,-2.0,7.0,16.0,4.0,-1.0,0.0,0.0,-3.0,1651023483162520.0,1
616,1.0,-2.0,4.0,-2.0,-29.0,-6.0,5.0,9.0,1651023483172512.0,1
617,11.0,18.0,9.0,-5.0,28.0,9.0,-2.0,-6.0,1651023483172512.0,1
618,-16.0,-32.0,10.0,15.0,4.0,-1.0,-3.0,1.0,1651023483187258.0,1
619,4.0,29.0,-12.0,2.0,-2.0,1.0,4.0,-3.0,1651023483187258.0,1
620,-5.0,-38.0,-16.0,-15.0,-7.0,-4.0,-2.0,1.0,1651023483188554.0,1
621,5.0,13.0,11.0,0.0,-2.0,-7.0,1.0,3.0,1651023483188554.0,1
622,6.0,7.0,7.0,0.0,-12.0,-3.0,1.0,-1.0,1651023483209588.0,1
623,0.0,-6.0,29.0,21.0,9.0,5.0,0.0,-1.0,1651023483209588.0,1
624,-5.0,-6.0,-16.0,-3.0,-3.0,-1.0,0.0,2.0,1651023483210519.0,1
625,-3.0,1.0,-21.0,-15.0,-8.0,-6.0,-3.0,-5.0,1651023483210519.0,1
626,6.0,27.0,13.0,3.0,8.0,2.0,1.0,-1.0,1651023483231581.0,1
627,-2.0,-54.0,16.0,15.0,3.0,2.0,3.0,0.0,1651023483231581.0,1
628,3.0,36.0,-10.0,-8.0,-4.0,0.0,-1.0,-2.0,1651023483233541.0,1
629,-6.0,-17.0,-23.0,-6.0,0.0,-5.0,-3.0,-1.0,1651023483233541.0,1
630,-1.0,8.0,23.0,0.0,-3.0,-4.0,-2.0,0.0,1651023483246899.0,1
631,1.0,9.0,-9.0,-12.0,-16.0,0.0,-3.0,-2.0,1651023483246899.0,1
632,-3.0,-18.0,-3.0,2.0,18.0,2.0,-1.0,-2.0,1651023483248895.0,1
633,4.0,11.0,8.0,9.0,3.0,2.0,2.0,4.0,1651023483248895.0,1
634,3.0,-4.0,1.0,1.0,-9.0,2.0,1.0,2.0,1651023483269012.0,1
635,-16.0,-10.0,-21.0,-6.0,8.0,-4.0,-5.0,-7.0,1651023483269012.0,1
636,9.0,6.0,11.0,-3.0,2.0,4.0,1.0,3.0,1651023483270943.0,1
637,-10.0,27.0,-26.0,-1.0,-3.0,-8.0,-4.0,-3.0,1651023483270943.0,1
638,1.0,7.0,18.0,1.0,4.0,0.0,1.0,0.0,1651023483282979.0,1
639,1.0,4.0,-4.0,-3.0,-7.0,-1.0,4.0,2.0,1651023483282979.0,1
640,2.0,7.0,4.0,4.0,9.0,2.0,0.0,3.0,1651023483291893.0,1
641,-1.0,-19.0,-1.0,-5.0,-6.0,-5.0,-1.0,-1.0,1651023483291893.0,1
642,12.0,35.0,1.0,4.0,6.0,3.0,1.0,2.0,1651023483306967.0,1
643,-2.0,-20.0,-8.0,-4.0,1.0,1.0,0.0,-1.0,1651023483306967.0,1
644,-3.0,0.0,13.0,0.0,-1.0,-1.0,-2.0,-4.0,1651023483308896.0,1
645,4.0,-5.0,-7.0,4.0,-9.0,-1.0,2.0,3.0,1651023483308896.0,1
646,-6.0,-5.0,-4.0,-1.0,9.0,-1.0,-3.0,-5.0,1651023483336960.0,1
647,3.0,6.0,-2.0,-3.0,3.0,2.0,2.0,2.0,1651023483336960.0,1
648,-4.0,-33.0,0.0,0.0,-3.0,-3.0,0.0,-1.0,1651023483337891.0,1
649,-1.0,-4.0,7.0,-1.0,-9.0,-2.0,-1.0,-1.0,1651023483337891.0,1
650,8.0,14.0,-4.0,-2.0,-8.0,-3.0,-1.0,2.0,1651023483342906.0,1
651,-1.0,-3.0,-1.0,1.0,14.0,5.0,-1.0,1.0,1651023483342906.0,1
652,-13.0,-30.0,-6.0,-4.0,-6.0,-1.0,-3.0,-5.0,1651023483351853.0,1
653,3.0,4.0,9.0,5.0,7.0,4.0,2.0,1.0,1651023483351853.0,1
654,-1.0,-10.0,-10.0,-4.0,-11.0,-3.0,1.0,0.0,1651023483373989.0,1
655,-4.0,-10.0,1.0,0.0,2.0,-1.0,2.0,-1.0,1651023483373989.0,1
656,23.0,93.0,10.0,3.0,-12.0,-4.0,-1.0,4.0,1651023483375918.0,1
657,-20.0,-17.0,-14.0,-1.0,13.0,4.0,-4.0,-7.0,1651023483375918.0,1
658,1.0,4.0,12.0,1.0,-4.0,0.0,1.0,1.0,1651023483389357.0,1
659,-7.0,-7.0,-1.0,-3.0,-7.0,-4.0,-3.0,-2.0,1651023483389357.0,1
660,11.0,26.0,3.0,-2.0,3.0,2.0,-2.0,2.0,1651023483391289.0,1
661,1.0,-9.0,-6.0,-3.0,-11.0,-5.0,-2.0,-1.0,1651023483391289.0,1
662,-18.0,12.0,-10.0,-7.0,-10.0,-1.0,-3.0,-6.0,1651023483403122.0,1
663,2.0,-7.0,0.0,4.0,18.0,5.0,2.0,1.0,1651023483403122.0,1
664,3.0,7.0,0.0,1.0,1.0,1.0,-1.0,-2.0,1651023483411594.0,1
665,2.0,15.0,7.0,0.0,-5.0,-3.0,0.0,0.0,1651023483411594.0,1
666,-1.0,-30.0,-8.0,1.0,13.0,5.0,1.0,1.0,1651023483426659.0,1
667,0.0,15.0,2.0,-5.0,-16.0,-2.0,2.0,3.0,1651023483426659.0,1
668,-5.0,-21.0,-1.0,-7.0,15.0,0.0,-3.0,-4.0,1651023483433192.0,1
669,5.0,-13.0,-11.0,11.0,0.0,3.0,2.0,3.0,1651023483433192.0,1
670,-4.0,-12.0,-1.0,-6.0,-8.0,-5.0,-2.0,-1.0,1651023483456592.0,1
671,3.0,38.0,10.0,4.0,3.0,0.0,0.0,-1.0,1651023483456592.0,1
672,-24.0,-80.0,-25.0,-8.0,-4.0,-4.0,-3.0,-5.0,1651023483458521.0,1
673,5.0,8.0,11.0,-1.0,-1.0,-2.0,-1.0,2.0,1651023483458521.0,1
674,15.0,13.0,0.0,1.0,3.0,0.0,-1.0,1.0,1651023483471552.0,1
675,-9.0,-29.0,-11.0,-3.0,-8.0,-2.0,1.0,-1.0,1651023483471552.0,1
676,0.0,46.0,4.0,-4.0,-1.0,-2.0,-2.0,-3.0,1651023483473481.0,1
677,11.0,23.0,9.0,0.0,1.0,-4.0,0.0,0.0,1651023483473481.0,1
678,-3.0,2.0,-4.0,1.0,17.0,2.0,-1.0,0.0,1651023483487268.0,1
679,11.0,26.0,3.0,-4.0,-16.0,-4.0,-2.0,-1.0,1651023483487268.0,1
680,-6.0,-22.0,-3.0,3.0,9.0,5.0,0.0,-1.0,1651023483488868.0,1
681,-7.0,-16.0,-1.0,4.0,-1.0,0.0,2.0,1.0,1651023483488868.0,1
682,5.0,22.0,1.0,0.0,-4.0,-3.0,-1.0,0.0,1651023483509893.0,1
683,-2.0,-30.0,-7.0,-6.0,-8.0,-3.0,-1.0,-1.0,1651023483509893.0,1
684,0.0,-14.0,-5.0,0.0,-4.0,-1.0,2.0,-1.0,1651023483510889.0,1
685,-3.0,4.0,3.0,4.0,11.0,0.0,0.0,-1.0,1651023483510889.0,1
686,-4.0,-25.0,-2.0,2.0,-3.0,0.0,-2.0,-1.0,1651023483531899.0,1
687,0.0,8.0,1.0,-2.0,-1.0,1.0,-2.0,-1.0,1651023483531899.0,1
688,5.0,-1.0,0.0,6.0,1.0,3.0,3.0,3.0,1651023483533827.0,1
689,3.0,32.0,12.0,-4.0,-7.0,0.0,0.0,0.0,1651023483533827.0,1
690,-4.0,-34.0,-12.0,2.0,-9.0,-4.0,1.0,-1.0,1651023483546977.0,1
691,-1.0,-2.0,7.0,3.0,20.0,5.0,-2.0,-1.0,1651023483546977.0,1
692,3.0,15.0,2.0,-1.0,-1.0,1.0,1.0,4.0,1651023483548905.0,1
693,3.0,3.0,4.0,-1.0,-6.0,-1.0,0.0,1.0,1651023483548905.0,1
694,1.0,2.0,1.0,-4.0,-1.0,0.0,1.0,0.0,1651023483568998.0,1
695,-1.0,13.0,-4.0,-2.0,-4.0,-2.0,-2.0,-3.0,1651023483568998.0,1
696,6.0,5.0,12.0,8.0,10.0,5.0,2.0,1.0,1651023483570929.0,1
697,-13.0,-25.0,-5.0,-1.0,0.0,1.0,-3.0,-5.0,1651023483570929.0,1
698,0.0,2.0,-1.0,-2.0,-1.0,-2.0,-1.0,0.0,1651023483591513.0,1
699,0.0,2.0,-2.0,-2.0,-3.0,-1.0,0.0,1.0,1651023483591513.0,1
700,-1.0,5.0,-4.0,-4.0,-12.0,-5.0,-1.0,1.0,1651023483593521.0,1
701,-4.0,-3.0,-1.0,-2.0,13.0,-3.0,-2.0,-2.0,1651023483593521.0,1
702,2.0,8.0,4.0,4.0,14.0,7.0,2.0,0.0,1651023483606971.0,1
703,-3.0,-21.0,-8.0,-3.0,-9.0,-1.0,0.0,0.0,1651023483606971.0,1
704,-2.0,-8.0,-2.0,-2.0,4.0,-2.0,-2.0,-3.0,1651023483608896.0,1
705,10.0,9.0,4.0,-1.0,-16.0,-4.0,1.0,3.0,1651023483608896.0,1
706,-11.0,-15.0,-5.0,2.0,-3.0,-5.0,-4.0,-5.0,1651023483629858.0,1
707,0.0,-4.0,-2.0,3.0,12.0,3.0,1.0,-1.0,1651023483629858.0,1
708,-4.0,-7.0,-4.0,-5.0,-11.0,-2.0,-1.0,-1.0,1651023483630821.0,1
709,8.0,-8.0,-1.0,0.0,-7.0,-1.0,0.0,3.0,1651023483630821.0,1
710,-1.0,-10.0,-2.0,-1.0,12.0,0.0,0.0,-1.0,1651023483652219.0,1
711,1.0,-3.0,-8.0,0.0,-2.0,2.0,1.0,-2.0,1651023483652219.0,1
712,-8.0,-18.0,-6.0,0.0,-3.0,-4.0,-1.0,-3.0,1651023483654170.0,1
713,-5.0,-7.0,-6.0,-9.0,-3.0,-1.0,-3.0,-1.0,1651023483654170.0,1
714,2.0,5.0,2.0,3.0,3.0,0.0,1.0,3.0,1651023483666178.0,1
715,7.0,21.0,5.0,0.0,-6.0,-4.0,0.0,0.0,1651023483666178.0,1
716,-13.0,-16.0,-4.0,1.0,1.0,0.0,0.0,-2.0,1651023483673179.0,1
717,-5.0,18.0,2.0,0.0,5.0,2.0,1.0,-3.0,1651023483673179.0,1
718,1.0,-6.0,-4.0,-2.0,-9.0,-2.0,-2.0,-1.0,1651023483689020.0,1
719,3.0,22.0,-4.0,-1.0,0.0,-2.0,-2.0,0.0,1651023483689020.0,1
720,-7.0,-62.0,-10.0,0.0,1.0,-1.0,0.0,0.0,1651023483690947.0,1
721,2.0,12.0,4.0,-1.0,-6.0,0.0,-1.0,0.0,1651023483690947.0,1
722,4.0,16.0,-1.0,0.0,1.0,1.0,1.0,-1.0,1651023483711954.0,1
723,-6.0,-9.0,0.0,2.0,1.0,0.0,-1.0,-1.0,1651023483711954.0,1
724,2.0,15.0,-1.0,1.0,3.0,0.0,1.0,0.0,1651023483713881.0,1
725,1.0,-8.0,-2.0,-4.0,-12.0,-2.0,0.0,0.0,1651023483713881.0,1
726,-1.0,0.0,1.0,-2.0,-3.0,-5.0,-3.0,0.0,1651023483725851.0,1
727,3.0,-2.0,2.0,1.0,16.0,5.0,0.0,2.0,1651023483725851.0,1
728,3.0,-6.0,-4.0,1.0,-2.0,1.0,1.0,0.0,1651023483732895.0,1
729,-7.0,-6.0,-1.0,0.0,0.0,-4.0,-2.0,-3.0,1651023483732895.0,1
730,1.0,14.0,1.0,-5.0,-29.0,-5.0,0.0,-1.0,1651023483749785.0,1
731,-3.0,-11.0,-1.0,0.0,17.0,5.0,-1.0,0.0,1651023483749785.0,1
732,5.0,26.0,4.0,1.0,-4.0,1.0,0.0,1.0,1651023483750783.0,1
733,-3.0,2.0,-3.0,-2.0,2.0,0.0,0.0,-2.0,1651023483750783.0,1
734,-3.0,-30.0,-4.0,-2.0,-3.0,-1.0,-1.0,-1.0,1651023483772849.0,1
735,1.0,18.0,3.0,-2.0,-10.0,-5.0,-3.0,-2.0,1651023483772849.0,1
736,-4.0,-12.0,-3.0,-1.0,4.0,0.0,0.0,2.0,1651023483773851.0,1
737,10.0,17.0,0.0,2.0,2.0,2.0,0.0,3.0,1651023483773851.0,1
738,1.0,1.0,4.0,1.0,3.0,1.0,-1.0,-1.0,1651023483786651.0,1
739,-1.0,0.0,0.0,-3.0,-7.0,-2.0,0.0,-1.0,1651023483786651.0,1
740,-3.0,15.0,-3.0,-9.0,-17.0,-6.0,-5.0,-3.0,1651023483792638.0,1
741,-11.0,-24.0,2.0,10.0,27.0,6.0,-2.0,-3.0,1651023483792638.0,1
742,2.0,26.0,2.0,5.0,9.0,3.0,3.0,1.0,1651023483809742.0,1
743,-1.0,6.0,-2.0,-2.0,-5.0,-1.0,0.0,0.0,1651023483809742.0,1
744,-3.0,16.0,3.0,-2.0,-7.0,-4.0,-2.0,-3.0,1651023483810688.0,1
745,3.0,-1.0,-4.0,-4.0,-11.0,-5.0,-1.0,0.0,1651023483810688.0,1
746,-2.0,2.0,0.0,1.0,8.0,2.0,2.0,0.0,1651023483831815.0,1
747,-5.0,-18.0,-3.0,1.0,-4.0,-1.0,0.0,-2.0,1651023483831815.0,1
748,3.0,6.0,1.0,-3.0,-2.0,-2.0,-2.0,1.0,1651023483833742.0,1
749,3.0,23.0,2.0,-1.0,-13.0,-5.0,-2.0,0.0,1651023483833742.0,1
750,3.0,35.0,6.0,5.0,22.0,5.0,0.0,-1.0,1651023483845946.0,1
751,-7.0,-35.0,-11.0,-3.0,-11.0,-1.0,0.0,0.0,1651023483845946.0,1
752,7.0,-9.0,-3.0,2.0,6.0,2.0,2.0,1.0,1651023483853447.0,1
753,4.0,26.0,-1.0,-1.0,-4.0,-1.0,0.0,1.0,1651023483853447.0,1
754,-24.0,-59.0,-6.0,-6.0,-9.0,-6.0,-5.0,-6.0,1651023483869474.0,1
755,1.0,8.0,1.0,0.0,5.0,1.0,0.0,0.0,1651023483869474.0,1
756,0.0,5.0,1.0,-1.0,1.0,0.0,0.0,0.0,1651023483871402.0,1
757,0.0,-16.0,-4.0,-1.0,1.0,1.0,1.0,0.0,1651023483871402.0,1
758,-1.0,-1.0,-4.0,0.0,-8.0,0.0,1.0,1.0,1651023483891936.0,1
759,4.0,23.0,5.0,1.0,2.0,-1.0,-1.0,0.0,1651023483891936.0,1
760,-5.0,-16.0,0.0,1.0,5.0,2.0,-1.0,-1.0,1651023483892963.0,1
761,9.0,-20.0,6.0,3.0,-1.0,2.0,4.0,4.0,1651023483892963.0,1
762,6.0,22.0,2.0,-3.0,-3.0,-3.0,0.0,0.0,1651023483905963.0,1
763,-1.0,-8.0,-1.0,-1.0,1.0,-1.0,0.0,1.0,1651023483905963.0,1
764,2.0,14.0,1.0,0.0,0.0,0.0,0.0,1.0,1651023483912880.0,1
765,2.0,-11.0,2.0,-1.0,-8.0,-3.0,1.0,1.0,1651023483912880.0,1
766,7.0,29.0,4.0,2.0,18.0,5.0,-1.0,-1.0,1651023483928964.0,1
767,-6.0,0.0,2.0,2.0,-7.0,-2.0,0.0,-2.0,1651023483928964.0,1
768,1.0,9.0,1.0,2.0,3.0,-2.0,1.0,-2.0,1651023483930890.0,1
769,-4.0,1.0,-5.0,-5.0,-7.0,-4.0,-3.0,-5.0,1651023483930890.0,1
770,-2.0,-17.0,-5.0,-5.0,-6.0,1.0,1.0,-1.0,1651023483952326.0,1
771,-3.0,2.0,-2.0,-3.0,0.0,-2.0,0.0,-2.0,1651023483952326.0,1
772,-1.0,3.0,-1.0,1.0,-1.0,1.0,0.0,-1.0,1651023483953347.0,1
773,-7.0,8.0,3.0,2.0,4.0,1.0,-1.0,-1.0,1651023483953347.0,1
774,-2.0,-29.0,-6.0,-2.0,-2.0,-2.0,0.0,2.0,1651023483965296.0,1
775,12.0,-4.0,0.0,0.0,2.0,0.0,0.0,2.0,1651023483965296.0,1
776,3.0,29.0,6.0,2.0,-1.0,1.0,-1.0,-2.0,1651023483974270.0,1
777,5.0,-4.0,-1.0,-3.0,5.0,0.0,0.0,1.0,1651023483974270.0,1
778,4.0,4.0,2.0,0.0,-3.0,-1.0,1.0,1.0,1651023483989296.0,1
779,-7.0,-23.0,-4.0,-2.0,-6.0,0.0,1.0,-1.0,1651023483989296.0,1
780,3.0,-8.0,1.0,0.0,4.0,2.0,0.0,3.0,1651023483991225.0,1
781,-2.0,-10.0,-4.0,-1.0,2.0,0.0,-1.0,-2.0,1651023483991225.0,1
782,1.0,6.0,3.0,-1.0,-14.0,-3.0,1.0,1.0,1651023484019218.0,1
783,3.0,5.0,-2.0,-1.0,17.0,2.0,-1.0,1.0,1651023484019218.0,1
784,-4.0,-7.0,-2.0,0.0,-5.0,-2.0,1.0,1.0,1651023484021144.0,1
785,-4.0,-10.0,1.0,3.0,8.0,3.0,2.0,1.0,1651023484021144.0,1
786,3.0,1.0,1.0,-1.0,-6.0,0.0,-1.0,1.0,1651023484025161.0,1
787,-3.0,-2.0,-3.0,-1.0,-7.0,-2.0,-2.0,-1.0,1651023484025161.0,1
788,-4.0,-5.0,-2.0,0.0,7.0,-1.0,-2.0,-4.0,1651023484034111.0,1
789,-1.0,-8.0,-4.0,0.0,-2.0,1.0,-1.0,2.0,1651023484034111.0,1
790,7.0,8.0,1.0,3.0,5.0,0.0,-2.0,-1.0,1651023484049136.0,1
791,-4.0,-4.0,4.0,2.0,-7.0,-2.0,-1.0,0.0,1651023484049136.0,1
792,2.0,18.0,2.0,0.0,0.0,-1.0,-1.0,-1.0,1651023484051064.0,1
793,-5.0,11.0,-3.0,-4.0,-19.0,-7.0,-2.0,-3.0,1651023484051064.0,1
794,1.0,1.0,0.0,-2.0,17.0,6.0,0.0,-1.0,1651023484072145.0,1
795,-10.0,-17.0,-5.0,-2.0,-1.0,-1.0,0.0,0.0,1651023484072145.0,1
796,-3.0,-8.0,-2.0,-3.0,-5.0,-3.0,0.0,0.0,1651023484073145.0,1
797,0.0,-3.0,4.0,6.0,6.0,2.0,2.0,1.0,1651023484073145.0,1
798,-2.0,9.0,0.0,-3.0,-8.0,-6.0,-1.0,-1.0,1651023484085941.0,1
799,4.0,-2.0,-1.0,-1.0,-1.0,-1.0,0.0,-1.0,1651023484085941.0,1
800,-9.0,-20.0,-5.0,-2.0,-1.0,-1.0,1.0,-1.0,1651023484094838.0,1
801,6.0,5.0,0.0,-4.0,-1.0,0.0,-2.0,-1.0,1651023484094838.0,1
802,-6.0,1.0,-3.0,-1.0,-1.0,-1.0,-2.0,-2.0,1651023484109800.0,1
803,3.0,11.0,2.0,0.0,2.0,-1.0,0.0,1.0,1651023484109800.0,1
804,1.0,-4.0,0.0,-2.0,-4.0,-1.0,-2.0,-1.0,1651023484110799.0,1
805,6.0,28.0,4.0,-1.0,4.0,1.0,-2.0,0.0,1651023484110799.0,1
806,-4.0,-2.0,-2.0,-2.0,-2.0,0.0,-1.0,-2.0,1651023484131850.0,1
807,-2.0,6.0,-3.0,-4.0,-3.0,-1.0,-1.0,-2.0,1651023484131850.0,1
808,0.0,-6.0,-4.0,-7.0,-13.0,-4.0,-1.0,-1.0,1651023484133834.0,1
809,-4.0,-12.0,0.0,4.0,27.0,4.0,0.0,1.0,1651023484133834.0,1
810,-4.0,3.0,5.0,6.0,10.0,5.0,1.0,-1.0,1651023484145943.0,1
811,0.0,-2.0,1.0,0.0,-17.0,-8.0,-1.0,-1.0,1651023484145943.0,1
812,5.0,-1.0,-2.0,0.0,8.0,7.0,1.0,1.0,1651023484154841.0,1
813,-1.0,-13.0,-6.0,-5.0,-17.0,-5.0,-1.0,-1.0,1651023484154841.0,1
814,-1.0,11.0,-3.0,-6.0,-8.0,-1.0,-1.0,-2.0,1651023484168890.0,1
815,-7.0,-38.0,-11.0,-1.0,14.0,0.0,-1.0,-2.0,1651023484168890.0,1
816,-5.0,3.0,3.0,4.0,-4.0,-2.0,-2.0,-2.0,1651023484170888.0,1
817,1.0,2.0,2.0,0.0,-5.0,-2.0,0.0,0.0,1651023484170888.0,1
818,-7.0,-11.0,-3.0,0.0,0.0,-1.0,-2.0,2.0,1651023484191898.0,1
819,12.0,34.0,8.0,-2.0,-3.0,1.0,1.0,3.0,1651023484191898.0,1
820,-1.0,5.0,-3.0,-2.0,-2.0,-1.0,-1.0,1.0,1651023484193855.0,1
821,-4.0,-17.0,-2.0,0.0,4.0,1.0,-1.0,-2.0,1651023484193855.0,1
822,6.0,-3.0,2.0,2.0,-3.0,-1.0,0.0,1.0,1651023484205950.0,1
823,-15.0,-21.0,-2.0,-2.0,-3.0,-1.0,-2.0,-4.0,1651023484205950.0,1
824,2.0,-2.0,0.0,0.0,3.0,-3.0,2.0,0.0,1651023484215042.0,1
825,0.0,6.0,1.0,2.0,4.0,1.0,-1.0,0.0,1651023484215042.0,1
826,0.0,4.0,-1.0,0.0,-3.0,0.0,-1.0,1.0,1651023484229015.0,1
827,0.0,5.0,-1.0,-2.0,-2.0,0.0,0.0,0.0,1651023484229015.0,1
828,1.0,5.0,1.0,-1.0,3.0,0.0,1.0,-1.0,1651023484230945.0,1
829,-4.0,-8.0,-3.0,-3.0,-4.0,0.0,0.0,1.0,1651023484230945.0,1
830,2.0,-4.0,-4.0,-6.0,-20.0,-5.0,0.0,1.0,1651023484252007.0,1
831,2.0,-3.0,2.0,4.0,22.0,2.0,-2.0,-1.0,1651023484252007.0,1
832,-2.0,-6.0,1.0,5.0,4.0,4.0,-2.0,-3.0,1651023484253033.0,1
833,3.0,11.0,0.0,1.0,-3.0,2.0,-1.0,0.0,1651023484253033.0,1
834,1.0,-12.0,2.0,0.0,-1.0,-1.0,1.0,2.0,1651023484265955.0,1
835,-2.0,7.0,-5.0,-4.0,-11.0,-3.0,0.0,-2.0,1651023484265955.0,1
836,-1.0,-3.0,-3.0,-4.0,1.0,-1.0,0.0,0.0,1651023484274891.0,1
837,-1.0,-1.0,-1.0,0.0,-15.0,-5.0,0.0,0.0,1651023484274891.0,1
838,-1.0,-14.0,-3.0,1.0,17.0,5.0,0.0,-1.0,1651023484289005.0,1
839,-1.0,10.0,3.0,-3.0,-10.0,-2.0,-2.0,-3.0,1651023484289005.0,1
840,-1.0,6.0,-1.0,1.0,3.0,-2.0,-1.0,-2.0,1651023484290932.0,1
841,-1.0,-4.0,-4.0,0.0,0.0,1.0,2.0,0.0,1651023484290932.0,0
842,-5.0,-9.0,-1.0,-3.0,-5.0,-4.0,0.0,-2.0,1651023484311953.0,0
843,6.0,7.0,0.0,-3.0,-13.0,-1.0,1.0,1.0,1651023484311953.0,0
844,-2.0,-2.0,2.0,2.0,12.0,2.0,-1.0,0.0,1651023484313880.0,0
845,-1.0,-4.0,-4.0,-1.0,0.0,0.0,-1.0,-2.0,1651023484313880.0,0
846,3.0,14.0,2.0,4.0,16.0,6.0,0.0,0.0,1651023484325919.0,0
847,0.0,-15.0,-2.0,2.0,4.0,2.0,1.0,0.0,1651023484325919.0,0
848,2.0,2.0,-1.0,-5.0,-19.0,-6.0,1.0,1.0,1651023484334824.0,0
849,2.0,13.0,-1.0,-3.0,-1.0,-2.0,-1.0,0.0,1651023484334824.0,0
850,-3.0,-18.0,-5.0,-2.0,0.0,-3.0,-3.0,-5.0,1651023484348787.0,0
851,-3.0,11.0,-1.0,-1.0,-4.0,-1.0,-1.0,1.0,1651023484348787.0,0
852,0.0,-3.0,-1.0,-1.0,-3.0,1.0,-1.0,1.0,1651023484350788.0,0
853,-3.0,-11.0,-2.0,3.0,8.0,0.0,1.0,-2.0,1651023484350788.0,0
854,-3.0,-25.0,-4.0,1.0,-3.0,0.0,-2.0,0.0,1651023484371997.0,0
855,8.0,13.0,9.0,4.0,3.0,1.0,1.0,4.0,1651023484371997.0,0
856,-6.0,-7.0,-13.0,-5.0,-8.0,-1.0,-3.0,-2.0,1651023484373924.0,0
857,-1.0,5.0,-2.0,-4.0,12.0,0.0,-2.0,-2.0,1651023484373924.0,0
858,-2.0,-5.0,-1.0,-5.0,-8.0,2.0,0.0,-1.0,1651023484385892.0,0
859,-2.0,1.0,-4.0,1.0,14.0,1.0,2.0,1.0,1651023484385892.0,0
860,8.0,21.0,13.0,-3.0,-2.0,3.0,0.0,0.0,1651023484394999.0,0
861,-5.0,-7.0,13.0,28.0,0.0,-1.0,-1.0,-3.0,1651023484394999.0,0
862,-3.0,10.0,-4.0,-3.0,-17.0,-6.0,-3.0,-1.0,1651023484409827.0,0
863,-3.0,-13.0,-10.0,-5.0,12.0,4.0,0.0,-1.0,1651023484409827.0,0
864,2.0,7.0,1.0,-4.0,-14.0,-7.0,-1.0,2.0,1651023484411822.0,0
865,1.0,-2.0,-1.0,-7.0,10.0,6.0,1.0,-1.0,1651023484411822.0,0
866,1.0,10.0,7.0,5.0,2.0,0.0,0.0,-1.0,1651023484431942.0,0
867,-2.0,2.0,-1.0,-2.0,-3.0,-2.0,0.0,-1.0,1651023484431942.0,0
868,-4.0,-24.0,-5.0,-2.0,0.0,-2.0,-2.0,-1.0,1651023484433894.0,0
869,2.0,3.0,-3.0,-6.0,-9.0,-2.0,-1.0,0.0,1651023484433894.0,0
870,1.0,3.0,-7.0,7.0,5.0,1.0,1.0,1.0,1651023484454035.0,0
871,-1.0,-8.0,0.0,-7.0,-17.0,-4.0,-1.0,0.0,1651023484454035.0,0
872,-1.0,1.0,0.0,1.0,6.0,-6.0,-2.0,-2.0,1651023484455972.0,0
873,1.0,4.0,5.0,-5.0,10.0,7.0,-1.0,-2.0,1651023484455972.0,0
874,2.0,4.0,-1.0,5.0,13.0,1.0,1.0,1.0,1651023484469010.0,0
875,0.0,9.0,1.0,-8.0,-12.0,-4.0,-3.0,-2.0,1651023484469010.0,0
876,-4.0,-7.0,0.0,-3.0,-4.0,0.0,1.0,0.0,1651023484470932.0,0
877,0.0,-5.0,-2.0,22.0,9.0,0.0,0.0,0.0,1651023484470932.0,0
878,0.0,8.0,1.0,-15.0,-16.0,-5.0,-3.0,-3.0,1651023484491935.0,0
879,1.0,3.0,0.0,-1.0,-16.0,-8.0,-1.0,0.0,1651023484491935.0,0
880,2.0,5.0,30.0,29.0,41.0,14.0,1.0,0.0,1651023484493873.0,0
881,2.0,2.0,-25.0,-15.0,-20.0,-7.0,1.0,0.0,1651023484493873.0,0
882,-5.0,-7.0,-1.0,-12.0,10.0,1.0,-2.0,-4.0,1651023484513994.0,0
883,4.0,6.0,6.0,-7.0,-18.0,-3.0,2.0,2.0,1651023484513994.0,0
884,-1.0,0.0,-12.0,-9.0,3.0,2.0,1.0,0.0,1651023484515922.0,0
885,0.0,13.0,14.0,27.0,8.0,-1.0,-3.0,0.0,1651023484515922.0,0
886,-1.0,-7.0,-3.0,27.0,-7.0,-4.0,1.0,0.0,1651023484528954.0,0
887,-3.0,-8.0,-2.0,-7.0,14.0,-1.0,-2.0,-3.0,1651023484528954.0,0
888,1.0,4.0,-4.0,-13.0,-20.0,-5.0,-3.0,-2.0,1651023484530881.0,0
889,-3.0,-2.0,-2.0,-14.0,7.0,0.0,-2.0,-1.0,1651023484530881.0,0
890,-1.0,-1.0,-17.0,-1.0,9.0,2.0,2.0,0.0,1651023484551893.0,0
891,-1.0,-1.0,8.0,11.0,-7.0,1.0,-1.0,-2.0,1651023484551893.0,0
892,11.0,-6.0,-13.0,6.0,0.0,0.0,1.0,7.0,1651023484553820.0,0
893,-7.0,-9.0,5.0,-9.0,10.0,-1.0,-1.0,-5.0,1651023484553820.0,0
894,-1.0,4.0,-1.0,-6.0,-19.0,-6.0,-2.0,1.0,1651023484574063.0,0
895,-2.0,-4.0,-29.0,-10.0,26.0,13.0,3.0,-1.0,1651023484574063.0,0
896,0.0,-3.0,1.0,6.0,-4.0,-2.0,1.0,-2.0,1651023484576087.0,0
897,8.0,7.0,8.0,5.0,-12.0,-4.0,1.0,-1.0,1651023484576087.0,0
898,2.0,-20.0,-27.0,-20.0,-15.0,-13.0,-3.0,6.0,1651023484589093.0,0
899,-7.0,5.0,28.0,19.0,10.0,1.0,-3.0,-2.0,1651023484589093.0,0
900,-1.0,3.0,-17.0,-15.0,10.0,7.0,-1.0,1.0,1651023484596051.0,0
901,-21.0,5.0,26.0,37.0,11.0,16.0,6.0,-8.0,1651023484596051.0,0
902,12.0,-2.0,-25.0,-5.0,-14.0,-27.0,-1.0,4.0,1651023484612158.0,0
903,0.0,-4.0,16.0,-13.0,-34.0,10.0,-1.0,-4.0,1651023484612158.0,0
904,-5.0,12.0,25.0,3.0,24.0,3.0,-5.0,-7.0,1651023484613103.0,0
905,2.0,-13.0,-38.0,-5.0,0.0,3.0,4.0,10.0,1651023484613103.0,0
906,25.0,10.0,22.0,5.0,5.0,-1.0,-3.0,0.0,1651023484634100.0,0
907,-29.0,-1.0,1.0,-16.0,-19.0,-22.0,-2.0,-1.0,1651023484634100.0,2
908,3.0,-9.0,-8.0,-8.0,-10.0,15.0,15.0,-5.0,1651023484636028.0,2
909,13.0,12.0,16.0,-21.0,-1.0,2.0,-4.0,0.0,1651023484636028.0,2
910,34.0,19.0,3.0,54.0,27.0,7.0,21.0,12.0,1651023484649021.0,2
911,-17.0,42.0,6.0,0.0,4.0,-8.0,-31.0,10.0,1651023484649021.0,2
912,34.0,0.0,4.0,-18.0,-19.0,-7.0,-9.0,-4.0,1651023484656017.0,2
913,-81.0,-41.0,-27.0,43.0,13.0,-13.0,-1.0,-30.0,1651023484656017.0,2
914,68.0,76.0,67.0,26.0,11.0,43.0,64.0,32.0,1651023484672042.0,2
915,18.0,-39.0,-29.0,2.0,7.0,-31.0,-90.0,-7.0,1651023484672042.0,2
916,-22.0,-9.0,-24.0,-40.0,-13.0,-15.0,72.0,-17.0,1651023484673001.0,2
917,-26.0,13.0,5.0,-25.0,-13.0,-10.0,-4.0,34.0,1651023484673001.0,2
918,13.0,-36.0,12.0,26.0,7.0,-12.0,-82.0,-38.0,1651023484693941.0,2
919,-17.0,40.0,40.0,34.0,31.0,51.0,0.0,51.0,1651023484693941.0,2
920,99.0,40.0,1.0,35.0,-18.0,-74.0,-128.0,-35.0,1651023484695913.0,2
921,-37.0,1.0,-23.0,-60.0,-10.0,52.0,111.0,-7.0,1651023484695913.0,2
922,-32.0,13.0,20.0,-19.0,-13.0,10.0,35.0,7.0,1651023484707931.0,2
923,16.0,-3.0,2.0,40.0,29.0,-43.0,15.0,-9.0,1651023484707931.0,2
924,30.0,21.0,33.0,5.0,19.0,103.0,103.0,64.0,1651023484723131.0,2
925,13.0,-14.0,-6.0,47.0,25.0,-77.0,-124.0,-34.0,1651023484723131.0,2
926,-71.0,-16.0,-44.0,-74.0,-35.0,-46.0,22.0,-18.0,1651023484732022.0,2
927,81.0,-20.0,-27.0,-64.0,-23.0,69.0,95.0,26.0,1651023484732022.0,2
928,-64.0,12.0,33.0,47.0,35.0,15.0,11.0,1.0,1651023484732954.0,2
929,51.0,19.0,4.0,11.0,-16.0,-1.0,-5.0,6.0,1651023484732954.0,2
930,-36.0,-26.0,13.0,-19.0,2.0,-12.0,-46.0,-14.0,1651023484761885.0,2
931,2.0,0.0,-4.0,66.0,-4.0,-49.0,51.0,-9.0,1651023484761885.0,2
932,-56.0,-50.0,-24.0,-30.0,-8.0,-32.0,-89.0,-24.0,1651023484763879.0,2
933,38.0,39.0,13.0,-45.0,-4.0,60.0,39.0,23.0,1651023484763879.0,2
934,6.0,-40.0,-16.0,95.0,26.0,-61.0,-49.0,-13.0,1651023484767895.0,2
935,-57.0,-61.0,-29.0,-35.0,-24.0,-10.0,-19.0,-31.0,1651023484767895.0,2
936,15.0,6.0,-12.0,-29.0,-13.0,17.0,8.0,8.0,1651023484776844.0,2
937,20.0,-6.0,16.0,-4.0,-14.0,-32.0,-43.0,-11.0,1651023484776844.0,2
938,-26.0,-22.0,-60.0,-83.0,-19.0,36.0,46.0,12.0,1651023484792003.0,2
939,4.0,-5.0,36.0,29.0,18.0,26.0,3.0,-2.0,1651023484792003.0,2
940,-53.0,-41.0,-41.0,42.0,18.0,-25.0,12.0,3.0,1651023484793930.0,2
941,38.0,-13.0,-11.0,-43.0,-38.0,-89.0,-53.0,-11.0,1651023484793930.0,2
942,-8.0,9.0,30.0,23.0,6.0,62.0,19.0,1.0,1651023484814844.0,2
943,7.0,-2.0,-29.0,-28.0,-7.0,43.0,6.0,-8.0,1651023484814844.0,2
944,-16.0,11.0,-7.0,-34.0,-19.0,-42.0,-26.0,-6.0,1651023484815844.0,2
945,-33.0,13.0,31.0,24.0,9.0,3.0,56.0,18.0,1651023484815844.0,2
946,52.0,-8.0,-21.0,-19.0,12.0,11.0,-15.0,17.0,1651023484827812.0,2
947,-19.0,4.0,15.0,33.0,16.0,-28.0,-27.0,-18.0,1651023484827812.0,2
948,10.0,16.0,30.0,48.0,9.0,17.0,62.0,18.0,1651023484836925.0,2
949,-4.0,-18.0,-47.0,-53.0,-29.0,-2.0,6.0,0.0,1651023484836925.0,2
950,-71.0,-2.0,8.0,20.0,3.0,-28.0,-66.0,-30.0,1651023484851930.0,2
951,-27.0,-9.0,-25.0,-52.0,-27.0,-13.0,-18.0,-10.0,1651023484851930.0,2
952,5.0,-19.0,-3.0,27.0,14.0,3.0,-1.0,-6.0,1651023484853884.0,2
953,47.0,11.0,34.0,18.0,26.0,7.0,8.0,27.0,1651023484853884.0,2
954,-9.0,34.0,21.0,-3.0,0.0,36.0,20.0,-2.0,1651023484873992.0,2
955,18.0,-1.0,-16.0,-13.0,-2.0,-20.0,7.0,0.0,1651023484873992.0,2
956,3.0,-7.0,-4.0,-25.0,-30.0,-23.0,-19.0,-4.0,1651023484875920.0,2
957,12.0,12.0,7.0,1.0,10.0,-26.0,39.0,7.0,1651023484875920.0,2
958,-23.0,-41.0,-49.0,-32.0,6.0,93.0,-9.0,-18.0,1651023484887934.0,2
959,-4.0,25.0,20.0,14.0,0.0,0.0,-13.0,0.0,1651023484887934.0,2
960,35.0,5.0,5.0,1.0,11.0,48.0,22.0,4.0,1651023484896678.0,2
961,-15.0,22.0,9.0,5.0,2.0,17.0,46.0,5.0,1651023484896678.0,2
962,49.0,6.0,22.0,13.0,-30.0,-106.0,-68.0,-26.0,1651023484911855.0,2
963,-17.0,0.0,-2.0,1.0,-5.0,-11.0,13.0,1.0,1651023484911855.0,2
964,-3.0,-8.0,-22.0,-41.0,-4.0,-36.0,-21.0,-6.0,1651023484913813.0,2
965,-14.0,-21.0,8.0,59.0,32.0,36.0,33.0,4.0,1651023484913813.0,2
966,11.0,58.0,28.0,14.0,23.0,19.0,29.0,25.0,1651023484934082.0,2
967,-56.0,-59.0,-61.0,-71.0,-31.0,-17.0,-7.0,-18.0,1651023484934082.0,2
968,65.0,54.0,75.0,97.0,17.0,-12.0,7.0,11.0,1651023484936099.0,2
969,-8.0,-21.0,-21.0,-15.0,-19.0,2.0,-35.0,-9.0,1651023484936099.0,2
970,-6.0,-16.0,-14.0,-15.0,1.0,14.0,31.0,12.0,1651023484948109.0,2
971,13.0,5.0,16.0,6.0,-7.0,-26.0,-21.0,-12.0,1651023484948109.0,2
972,-6.0,-21.0,-53.0,-63.0,-20.0,-2.0,58.0,25.0,1651023484957081.0,2
973,-31.0,-15.0,-12.0,-13.0,-18.0,-29.0,-99.0,-41.0,1651023484957081.0,2
974,13.0,-6.0,0.0,11.0,5.0,21.0,37.0,24.0,1651023484972292.0,2
975,28.0,22.0,18.0,11.0,22.0,64.0,35.0,23.0,1651023484972292.0,2
976,-21.0,-10.0,0.0,-4.0,-9.0,-4.0,-20.0,-20.0,1651023484973206.0,2
977,13.0,1.0,4.0,16.0,2.0,16.0,11.0,5.0,1651023484973206.0,2
978,-28.0,-19.0,-24.0,-36.0,-18.0,-47.0,-20.0,-7.0,1651023485001926.0,2
979,0.0,14.0,-19.0,-55.0,-25.0,-24.0,-16.0,-6.0,1651023485001926.0,2
980,-13.0,-14.0,38.0,65.0,38.0,5.0,-3.0,0.0,1651023485003855.0,2
981,8.0,-2.0,15.0,25.0,20.0,6.0,-6.0,7.0,1651023485003855.0,2
982,-1.0,-3.0,20.0,-8.0,0.0,1.0,6.0,-6.0,1651023485007871.0,2
983,14.0,-10.0,-14.0,-6.0,24.0,10.0,11.0,11.0,1651023485007871.0,2
984,-17.0,12.0,-3.0,-30.0,-21.0,-13.0,22.0,-9.0,1651023485016819.0,2
985,-8.0,-6.0,-4.0,-5.0,-16.0,-15.0,-36.0,-19.0,1651023485016819.0,2
986,26.0,24.0,15.0,17.0,8.0,-10.0,6.0,10.0,1651023485031606.0,2
987,5.0,3.0,-11.0,6.0,9.0,-5.0,-6.0,-1.0,1651023485031606.0,2
988,-19.0,0.0,-1.0,-20.0,-30.0,-83.0,-30.0,0.0,1651023485033557.0,2
989,-33.0,-27.0,-10.0,-3.0,18.0,118.0,58.0,-2.0,1651023485033557.0,2
990,32.0,14.0,3.0,-9.0,-14.0,-22.0,-15.0,-3.0,1651023485056238.0,2
991,-9.0,42.0,50.0,41.0,18.0,42.0,69.0,30.0,1651023485056238.0,2
992,-3.0,-30.0,-35.0,-22.0,-13.0,-28.0,-60.0,-27.0,1651023485057238.0,2
993,10.0,10.0,-17.0,-25.0,-11.0,-40.0,-23.0,-3.0,1651023485057238.0,2
994,-3.0,-2.0,-11.0,-20.0,-1.0,45.0,43.0,5.0,1651023485068208.0,2
995,27.0,6.0,21.0,9.0,-7.0,-39.0,-23.0,1.0,1651023485068208.0,2
996,43.0,9.0,6.0,23.0,22.0,42.0,33.0,26.0,1651023485077184.0,2
997,-22.0,-31.0,-13.0,-49.0,-26.0,-25.0,-19.0,-9.0,1651023485077184.0,2
998,-10.0,10.0,48.0,97.0,53.0,11.0,39.0,6.0,1651023485091995.0,2
999,-22.0,-49.0,-31.0,-24.0,-25.0,-8.0,-1.0,11.0,1651023485091995.0,2
1000,-11.0,72.0,10.0,8.0,18.0,33.0,-23.0,-5.0,1651023485093931.0,2
1001,20.0,17.0,4.0,8.0,-1.0,-3.0,32.0,23.0,1651023485093931.0,2
1002,7.0,-11.0,3.0,-16.0,-13.0,-20.0,24.0,4.0,1651023485113937.0,2
1003,10.0,-10.0,13.0,23.0,11.0,-1.0,-33.0,-5.0,1651023485113937.0,2
1004,14.0,-35.0,-18.0,-24.0,-25.0,-59.0,-50.0,-12.0,1651023485120917.0,2
1005,32.0,1.0,3.0,7.0,18.0,91.0,27.0,10.0,1651023485120917.0,2
1006,-79.0,12.0,2.0,-1.0,-3.0,-40.0,1.0,-3.0,1651023485127862.0,2
1007,29.0,4.0,-4.0,11.0,-4.0,38.0,22.0,-4.0,1651023485127862.0,2
1008,13.0,-9.0,-19.0,-19.0,6.0,-2.0,-2.0,0.0,1651023485136682.0,2
1009,5.0,6.0,8.0,7.0,1.0,-21.0,5.0,13.0,1651023485136682.0,2
1010,-7.0,1.0,4.0,-2.0,-2.0,-11.0,-40.0,-19.0,1651023485159235.0,2
1011,2.0,-14.0,-45.0,-36.0,-33.0,-37.0,-1.0,-5.0,1651023485159235.0,2
1012,-31.0,9.0,13.0,-20.0,-7.0,13.0,50.0,2.0,1651023485161163.0,2
1013,21.0,-3.0,45.0,53.0,33.0,5.0,-13.0,-3.0,1651023485161163.0,2
1014,-39.0,-21.0,-8.0,31.0,9.0,13.0,-28.0,2.0,1651023485174197.0,2
1015,63.0,48.0,9.0,-3.0,1.0,-25.0,-26.0,0.0,1651023485174197.0,2
1016,-26.0,-13.0,21.0,18.0,10.0,28.0,28.0,-3.0,1651023485176123.0,2
1017,-9.0,11.0,-33.0,-33.0,-3.0,8.0,29.0,22.0,1651023485176123.0,2
1018,73.0,8.0,22.0,-3.0,-28.0,-21.0,9.0,10.0,1651023485187669.0,2
1019,-59.0,-19.0,-22.0,-8.0,14.0,11.0,41.0,-20.0,1651023485187669.0,2
1020,-4.0,15.0,18.0,10.0,-2.0,-49.0,-46.0,9.0,1651023485196708.0,2
1021,-41.0,-34.0,-5.0,1.0,9.0,84.0,-31.0,-30.0,1651023485196708.0,2
1022,5.0,34.0,25.0,9.0,4.0,-42.0,-35.0,8.0,1651023485211780.0,2
1023,-1.0,-39.0,-37.0,-16.0,-3.0,18.0,9.0,-18.0,1651023485211780.0,2
1024,-3.0,10.0,-4.0,-11.0,-21.0,5.0,36.0,7.0,1651023485213801.0,2
1025,-2.0,31.0,21.0,17.0,-3.0,-60.0,-6.0,-3.0,1651023485213801.0,2
1026,18.0,-32.0,-61.0,-109.0,-29.0,6.0,-6.0,-2.0,1651023485241640.0,2
1027,46.0,66.0,91.0,116.0,48.0,4.0,6.0,29.0,1651023485241640.0,2
1028,-28.0,-98.0,-54.0,-35.0,20.0,20.0,-10.0,-27.0,1651023485243567.0,2
1029,-10.0,27.0,-8.0,12.0,-9.0,-40.0,-9.0,-8.0,1651023485243567.0,2
1030,-7.0,29.0,-10.0,-18.0,-13.0,1.0,12.0,-8.0,1651023485247583.0,2
1031,-35.0,2.0,-14.0,-44.0,2.0,-12.0,-11.0,0.0,1651023485247583.0,2
1032,41.0,-39.0,-5.0,22.0,-26.0,17.0,-2.0,7.0,1651023485257555.0,2
1033,-1.0,-3.0,-36.0,-30.0,1.0,-25.0,-7.0,-2.0,1651023485257555.0,2
1034,10.0,14.0,8.0,18.0,20.0,0.0,24.0,13.0,1651023485279539.0,2
1035,-61.0,-20.0,6.0,-8.0,-13.0,-25.0,-14.0,-12.0,1651023485279539.0,2
1036,26.0,1.0,3.0,-5.0,1.0,60.0,-19.0,-6.0,1651023485280502.0,2
1037,6.0,-11.0,-10.0,-17.0,-20.0,-54.0,14.0,0.0,1651023485280502.0,2
1038,-25.0,3.0,5.0,22.0,16.0,51.0,-20.0,-10.0,1651023485294514.0,2
1039,6.0,33.0,31.0,14.0,0.0,11.0,-8.0,0.0,1651023485294514.0,2
1040,2.0,-9.0,-4.0,0.0,1.0,-39.0,16.0,-2.0,1651023485295653.0,2
1041,-12.0,-8.0,3.0,12.0,5.0,21.0,23.0,7.0,1651023485295653.0,2
1042,28.0,-14.0,-32.0,-68.0,-27.0,-19.0,-7.0,5.0,1651023485308498.0,2
1043,4.0,13.0,71.0,77.0,35.0,12.0,44.0,9.0,1651023485308498.0,2
1044,-43.0,11.0,-12.0,-5.0,2.0,-3.0,-53.0,-11.0,1651023485316459.0,2
1045,16.0,-11.0,0.0,-51.0,-39.0,-31.0,0.0,3.0,1651023485316459.0,2
1046,-31.0,-2.0,-17.0,28.0,41.0,27.0,7.0,-9.0,1651023485331537.0,2
1047,88.0,-63.0,-33.0,-24.0,-11.0,19.0,-10.0,12.0,1651023485331537.0,2
1048,-25.0,53.0,26.0,0.0,-10.0,-25.0,24.0,-3.0,1651023485333522.0,2
1049,-8.0,-35.0,22.0,34.0,26.0,9.0,-23.0,-5.0,1651023485333522.0,2
1050,-18.0,-11.0,8.0,8.0,-25.0,-21.0,16.0,2.0,1651023485354529.0,2
1051,21.0,14.0,-30.0,-26.0,-10.0,18.0,71.0,16.0,1651023485354529.0,2
1052,-18.0,-32.0,-32.0,-28.0,-6.0,9.0,-84.0,-33.0,1651023485355630.0,2
1053,20.0,27.0,10.0,2.0,-2.0,15.0,-10.0,2.0,1651023485355630.0,2
1054,11.0,-6.0,15.0,17.0,10.0,0.0,9.0,9.0,1651023485376469.0,2
1055,-21.0,18.0,10.0,-4.0,3.0,-3.0,-14.0,-7.0,1651023485376469.0,2
1056,9.0,2.0,-1.0,-5.0,-3.0,7.0,75.0,19.0,1651023485378403.0,2
1057,-10.0,36.0,11.0,-6.0,-5.0,7.0,-36.0,10.0,1651023485378403.0,2
1058,53.0,-34.0,18.0,62.0,27.0,-12.0,16.0,16.0,1651023485392371.0,2
1059,-72.0,0.0,-34.0,-28.0,0.0,-40.0,-76.0,-57.0,1651023485392371.0,2
1060,-18.0,-13.0,-34.0,-59.0,-10.0,36.0,55.0,25.0,1651023485393362.0,2
1061,-13.0,24.0,21.0,49.0,7.0,-11.0,31.0,5.0,1651023485393362.0,2
1062,16.0,-31.0,-41.0,-51.0,-14.0,21.0,-29.0,-13.0,1651023485414332.0,2
1063,-3.0,23.0,28.0,-4.0,-51.0,-33.0,-30.0,-6.0,1651023485414332.0,2
1064,-4.0,-1.0,-9.0,26.0,40.0,-4.0,5.0,5.0,1651023485416321.0,2
1065,-15.0,10.0,15.0,-17.0,7.0,-6.0,-2.0,-23.0,1651023485416321.0,2
1066,20.0,2.0,6.0,14.0,7.0,19.0,3.0,11.0,1651023485437248.0,2
1067,-21.0,-9.0,-18.0,-35.0,-10.0,-26.0,1.0,-11.0,1651023485437248.0,2
1068,24.0,19.0,20.0,2.0,-12.0,28.0,-25.0,3.0,1651023485439204.0,2
1069,11.0,-7.0,0.0,0.0,0.0,45.0,18.0,12.0,1651023485439204.0,2
1070,-8.0,2.0,0.0,-3.0,-4.0,-17.0,-6.0,-4.0,1651023485452803.0,2
1071,-31.0,-1.0,-10.0,-2.0,1.0,14.0,54.0,-5.0,1651023485452803.0,2
1072,17.0,21.0,17.0,20.0,-2.0,-30.0,-42.0,-12.0,1651023485453803.0,2
1073,-4.0,4.0,3.0,-17.0,-10.0,-35.0,-3.0,4.0,1651023485453803.0,2
1074,25.0,32.0,18.0,-8.0,18.0,40.0,54.0,16.0,1651023485474852.0,2
1075,-18.0,-52.0,-42.0,-7.0,-17.0,-29.0,-64.0,-14.0,1651023485474852.0,2
1076,-56.0,-9.0,-8.0,-36.0,8.0,-9.0,35.0,-4.0,1651023485475849.0,2
1077,15.0,33.0,-9.0,-18.0,0.0,-5.0,-28.0,-16.0,1651023485475849.0,2
1078,7.0,1.0,22.0,38.0,9.0,9.0,1.0,31.0,1651023485497300.0,2
1079,82.0,-20.0,-28.0,-17.0,14.0,3.0,3.0,25.0,1651023485497300.0,2
1080,-13.0,24.0,5.0,-32.0,-27.0,-16.0,1.0,-9.0,1651023485498300.0,2
1081,-22.0,-16.0,-32.0,-43.0,-14.0,6.0,11.0,1.0,1651023485498300.0,2
1082,-15.0,5.0,-16.0,-55.0,-21.0,-18.0,-19.0,-17.0,1651023485511618.0,2
1083,43.0,23.0,21.0,37.0,21.0,6.0,-1.0,17.0,1651023485511618.0,2
1084,-13.0,-19.0,6.0,42.0,23.0,79.0,18.0,13.0,1651023485517601.0,2
1085,21.0,-11.0,-9.0,-10.0,-17.0,-23.0,29.0,-3.0,1651023485517601.0,2
1086,-6.0,16.0,15.0,17.0,-8.0,-18.0,-49.0,-15.0,1651023485534555.0,2
1087,-4.0,-2.0,-18.0,-102.0,-20.0,-13.0,-4.0,2.0,1651023485534555.0,2
1088,27.0,48.0,77.0,123.0,52.0,0.0,17.0,8.0,1651023485535696.0,2
1089,23.0,-21.0,-15.0,-43.0,-10.0,-21.0,18.0,11.0,1651023485535696.0,2
1090,-9.0,-37.0,-31.0,-16.0,-23.0,-1.0,-57.0,-35.0,1651023485557183.0,2
1091,-57.0,21.0,-21.0,-9.0,4.0,-8.0,-55.0,-24.0,1651023485557183.0,2
1092,44.0,-54.0,-54.0,-128.0,-25.0,-23.0,-36.0,4.0,1651023485559164.0,2
1093,12.0,28.0,82.0,127.0,48.0,5.0,-14.0,-6.0,1651023485559164.0,2
1094,-57.0,-41.0,-49.0,-73.0,-24.0,-37.0,25.0,-5.0,1651023485571199.0,2
1095,-3.0,17.0,27.0,-10.0,2.0,28.0,-1.0,-13.0,1651023485571199.0,2
1096,-2.0,42.0,-3.0,2.0,-10.0,-24.0,10.0,16.0,1651023485578176.0,2
1097,-35.0,3.0,-5.0,-15.0,20.0,77.0,35.0,3.0,1651023485578176.0,2
1098,-26.0,6.0,0.0,-1.0,-5.0,-1.0,11.0,-22.0,1651023485594199.0,2
1099,51.0,-21.0,22.0,38.0,-4.0,-19.0,-16.0,15.0,1651023485594199.0,2
1100,-39.0,-16.0,-10.0,7.0,4.0,10.0,12.0,-18.0,1651023485596127.0,2
1101,3.0,-5.0,-11.0,-10.0,-8.0,-11.0,-2.0,8.0,1651023485596127.0,2
1102,48.0,41.0,27.0,-2.0,-5.0,-18.0,-16.0,19.0,1651023485616982.0,2
1103,-55.0,-51.0,-36.0,-22.0,3.0,5.0,2.0,-10.0,1651023485616982.0,2
1104,34.0,31.0,28.0,66.0,-26.0,-11.0,-14.0,-8.0,1651023485617912.0,2
1105,26.0,-7.0,-3.0,40.0,38.0,-10.0,-13.0,-1.0,1651023485617912.0,2
1106,-27.0,8.0,25.0,16.0,9.0,34.0,39.0,10.0,1651023485630877.0,2
1107,42.0,10.0,-1.0,20.0,18.0,3.0,-7.0,4.0,1651023485630877.0,2
1108,-43.0,-51.0,-18.0,-41.0,-18.0,-7.0,-10.0,-15.0,1651023485638199.0,2
1109,-69.0,-24.0,-14.0,-49.0,-39.0,-22.0,11.0,-3.0,1651023485638199.0,2
1110,-22.0,16.0,-20.0,-15.0,2.0,14.0,-7.0,6.0,1651023485654892.0,2
1111,90.0,14.0,18.0,12.0,19.0,38.0,14.0,29.0,1651023485654892.0,2
1112,-18.0,18.0,38.0,54.0,13.0,-13.0,18.0,-8.0,1651023485655878.0,2
1113,-7.0,-10.0,-26.0,-32.0,-7.0,37.0,22.0,-3.0,1651023485655878.0,2
1114,-11.0,2.0,14.0,23.0,17.0,-13.0,-32.0,-10.0,1651023485677243.0,2
1115,-39.0,5.0,-6.0,-14.0,-12.0,31.0,56.0,24.0,1651023485677243.0,2
1116,49.0,20.0,6.0,-7.0,-15.0,-4.0,21.0,15.0,1651023485678870.0,2
1117,3.0,13.0,14.0,14.0,20.0,-50.0,-72.0,-39.0,1651023485678870.0,2
1118,-24.0,-32.0,-10.0,-11.0,2.0,1.0,2.0,-23.0,1651023485690838.0,2
1119,-24.0,12.0,10.0,8.0,-1.0,-3.0,-17.0,-11.0,1651023485690838.0,2
1120,-1.0,8.0,-22.0,-57.0,-8.0,2.0,14.0,25.0,1651023485697846.0,2
1121,11.0,22.0,28.0,85.0,0.0,-5.0,5.0,10.0,1651023485697846.0,2
1122,26.0,5.0,3.0,10.0,24.0,3.0,-3.0,-8.0,1651023485714818.0,2
1123,-15.0,-6.0,16.0,-12.0,-17.0,-6.0,23.0,3.0,1651023485714818.0,2
1124,0.0,-40.0,-11.0,14.0,8.0,6.0,5.0,0.0,1651023485715834.0,2
1125,19.0,19.0,-33.0,-82.0,-18.0,17.0,-17.0,1.0,1651023485715834.0,2
1126,59.0,9.0,9.0,37.0,4.0,-20.0,-7.0,14.0,1651023485736821.0,2
1127,-40.0,-2.0,9.0,6.0,-1.0,6.0,26.0,-7.0,1651023485736821.0,2
1128,-27.0,-25.0,-20.0,-35.0,-36.0,-54.0,-67.0,-36.0,1651023485738845.0,2
1129,-17.0,-43.0,-15.0,13.0,17.0,79.0,22.0,-7.0,1651023485738845.0,2
1130,54.0,21.0,17.0,6.0,-9.0,-41.0,29.0,30.0,1651023485750851.0,2
1131,-67.0,-58.0,-34.0,-7.0,-3.0,18.0,-34.0,-38.0,1651023485750851.0,2
1132,21.0,19.0,10.0,-29.0,-9.0,-14.0,23.0,33.0,1651023485757841.0,2
1133,3.0,-10.0,-42.0,-39.0,-16.0,-39.0,2.0,13.0,1651023485757841.0,2
1134,-9.0,12.0,28.0,33.0,26.0,33.0,81.0,12.0,1651023485773752.0,2
1135,14.0,10.0,51.0,67.0,15.0,-16.0,-34.0,12.0,1651023485773752.0,2
1136,39.0,1.0,-6.0,38.0,29.0,25.0,-23.0,-19.0,1651023485775753.0,2
1137,-21.0,39.0,-3.0,-64.0,-29.0,-26.0,-28.0,-13.0,1651023485775753.0,2
1138,-28.0,-51.0,-53.0,-56.0,-19.0,25.0,59.0,15.0,1651023485796790.0,2
1139,31.0,14.0,5.0,32.0,13.0,-22.0,-60.0,-23.0,1651023485796790.0,2
1140,46.0,-11.0,17.0,35.0,35.0,54.0,80.0,34.0,1651023485798784.0,2
1141,87.0,37.0,-4.0,-37.0,-47.0,-61.0,-48.0,13.0,1651023485798784.0,2
1142,36.0,24.0,15.0,3.0,3.0,-74.0,-48.0,-10.0,1651023485810816.0,2
1143,-45.0,15.0,27.0,20.0,11.0,79.0,69.0,-11.0,1651023485810816.0,2
1144,-23.0,-25.0,-45.0,-42.0,-14.0,65.0,-3.0,13.0,1651023485817761.0,2
1145,-22.0,7.0,31.0,38.0,43.0,53.0,64.0,30.0,1651023485817761.0,2
1146,55.0,-9.0,-33.0,-45.0,-53.0,-24.0,-2.0,3.0,1651023485834816.0,2
1147,3.0,-11.0,-21.0,-88.0,-34.0,-87.0,-86.0,-28.0,1651023485834816.0,2
1148,-56.0,17.0,52.0,84.0,60.0,-9.0,27.0,-26.0,1651023485835816.0,2
1149,-33.0,-37.0,13.0,2.0,-13.0,-22.0,-20.0,-9.0,1651023485835816.0,2
1150,-36.0,-5.0,7.0,5.0,14.0,34.0,-11.0,-12.0,1651023485856827.0,2
1151,38.0,15.0,-31.0,-96.0,-11.0,-6.0,42.0,29.0,1651023485856827.0,2
1152,-57.0,4.0,-16.0,37.0,1.0,13.0,24.0,-11.0,1651023485858754.0,2
1153,80.0,-3.0,0.0,14.0,-11.0,-26.0,-33.0,6.0,1651023485858754.0,2
1154,-80.0,-76.0,-40.0,-8.0,17.0,-10.0,-36.0,-45.0,1651023485870721.0,2
1155,17.0,6.0,-18.0,-20.0,-30.0,-22.0,-4.0,2.0,1651023485870721.0,2
1156,67.0,40.0,18.0,-21.0,-10.0,22.0,-31.0,25.0,1651023485879700.0,2
1157,-35.0,-21.0,-14.0,13.0,6.0,-16.0,-19.0,-27.0,1651023485879700.0,2
1158,27.0,31.0,30.0,7.0,-5.0,46.0,14.0,13.0,1651023485894659.0,2
1159,-11.0,-5.0,5.0,30.0,18.0,73.0,20.0,-5.0,1651023485894659.0,2
1160,8.0,-15.0,-26.0,-19.0,-6.0,-36.0,30.0,16.0,1651023485895656.0,2
1161,6.0,-1.0,10.0,3.0,-9.0,-26.0,-30.0,-4.0,1651023485895656.0,2
1162,-25.0,6.0,-16.0,-18.0,-11.0,-42.0,-53.0,-23.0,1651023485916913.0,2
1163,25.0,-6.0,1.0,10.0,5.0,11.0,1.0,7.0,1651023485916913.0,2
1164,-9.0,-45.0,15.0,-1.0,-21.0,-13.0,-15.0,-7.0,1651023485917911.0,2
1165,-13.0,-9.0,-6.0,16.0,20.0,4.0,24.0,-2.0,1651023485917911.0,2
1166,-30.0,-15.0,-4.0,14.0,1.0,0.0,3.0,-4.0,1651023485930877.0,2
1167,-1.0,19.0,-2.0,-19.0,5.0,0.0,24.0,11.0,1651023485930877.0,2
1168,-7.0,-27.0,-20.0,4.0,19.0,-31.0,-29.0,-16.0,1651023485939853.0,2
1169,9.0,8.0,12.0,53.0,14.0,48.0,21.0,7.0,1651023485939853.0,2
1170,0.0,11.0,1.0,-20.0,-31.0,-62.0,-17.0,1.0,1651023485954833.0,2
1171,-4.0,14.0,8.0,14.0,16.0,58.0,27.0,3.0,1651023485954833.0,2
1172,3.0,7.0,-14.0,-50.0,-25.0,-52.0,-22.0,-5.0,1651023485955814.0,2
1173,5.0,-8.0,-1.0,-18.0,1.0,-9.0,-11.0,-3.0,1651023485955814.0,2
1174,-9.0,7.0,-4.0,9.0,11.0,54.0,31.0,-2.0,1651023485977264.0,2
1175,-7.0,-3.0,8.0,22.0,1.0,-28.0,26.0,16.0,1651023485977264.0,2
1176,3.0,26.0,30.0,1.0,7.0,1.0,-22.0,-13.0,1651023485978870.0,2
1177,-8.0,-4.0,-6.0,0.0,1.0,4.0,26.0,34.0,1651023485978870.0,2
1178,3.0,-8.0,-18.0,-17.0,-30.0,-43.0,-21.0,-19.0,1651023485990907.0,2
1179,-2.0,-13.0,12.0,20.0,2.0,-52.0,-12.0,-1.0,1651023485990907.0,2
1180,-1.0,13.0,22.0,-13.0,-10.0,25.0,5.0,-10.0,1651023485999829.0,2
1181,0.0,4.0,-3.0,12.0,13.0,-12.0,4.0,-1.0,1651023485999829.0,2
1182,1.0,23.0,50.0,-7.0,2.0,33.0,-1.0,3.0,1651023486014775.0,2
1183,-3.0,-23.0,-18.0,1.0,-9.0,-25.0,-1.0,-4.0,1651023486014775.0,2
1184,0.0,18.0,-25.0,6.0,10.0,28.0,5.0,4.0,1651023486015773.0,2
1185,0.0,-6.0,12.0,-32.0,-26.0,-30.0,-9.0,-9.0,1651023486015773.0,2
1186,5.0,9.0,1.0,16.0,19.0,23.0,16.0,13.0,1651023486037163.0,2
1187,3.0,12.0,20.0,41.0,33.0,75.0,13.0,-3.0,1651023486037163.0,2
1188,2.0,8.0,8.0,-3.0,-8.0,-20.0,-6.0,5.0,1651023486038097.0,2
1189,-8.0,-17.0,-51.0,-23.0,-12.0,-20.0,-1.0,-9.0,1651023486038097.0,2
1190,-7.0,-14.0,9.0,-8.0,-4.0,13.0,-6.0,0.0,1651023486050093.0,2
1191,-2.0,4.0,4.0,7.0,3.0,-31.0,-8.0,-1.0,1651023486050093.0,2
1192,3.0,-3.0,-11.0,-3.0,2.0,-8.0,-2.0,-1.0,1651023486059930.0,2
1193,4.0,7.0,8.0,7.0,18.0,31.0,12.0,2.0,1651023486059930.0,2
1194,-2.0,-18.0,-24.0,-4.0,-5.0,0.0,-2.0,-2.0,1651023486075086.0,2
1195,5.0,11.0,8.0,5.0,1.0,-7.0,-5.0,1.0,1651023486075086.0,2
1196,-1.0,7.0,10.0,4.0,-2.0,-7.0,0.0,0.0,1651023486075888.0,2
1197,-3.0,3.0,1.0,-9.0,-7.0,-4.0,-4.0,-14.0,1651023486075888.0,2
1198,7.0,18.0,16.0,13.0,2.0,6.0,4.0,12.0,1651023486096938.0,2
1199,-8.0,-30.0,-12.0,12.0,4.0,0.0,1.0,2.0,1651023486096938.0,2
1200,6.0,35.0,-19.0,-17.0,-13.0,-12.0,-19.0,-19.0,1651023486097930.0,2
1201,0.0,1.0,5.0,-8.0,-4.0,6.0,5.0,5.0,1651023486097930.0,2
1202,7.0,10.0,9.0,7.0,18.0,19.0,10.0,23.0,1651023486110900.0,2
1203,6.0,3.0,-11.0,3.0,3.0,-11.0,-1.0,2.0,1651023486110900.0,2
1204,-8.0,-12.0,4.0,-2.0,2.0,7.0,18.0,6.0,1651023486119871.0,2
1205,2.0,-5.0,20.0,14.0,8.0,10.0,-3.0,-3.0,1651023486119871.0,2
1206,5.0,13.0,13.0,12.0,2.0,-3.0,-5.0,-5.0,1651023486134832.0,2
1207,0.0,8.0,7.0,2.0,-10.0,-16.0,-3.0,1.0,1651023486134832.0,2
1208,-2.0,-16.0,-23.0,-19.0,-23.0,4.0,1.0,-2.0,1651023486135830.0,2
1209,-2.0,11.0,44.0,0.0,19.0,6.0,8.0,6.0,1651023486135830.0,2
1210,-7.0,-38.0,-71.0,1.0,0.0,3.0,1.0,-12.0,1651023486156938.0,2
1211,-5.0,22.0,25.0,-7.0,4.0,-7.0,-5.0,-5.0,1651023486156938.0,2
1212,4.0,15.0,17.0,7.0,9.0,3.0,-6.0,-4.0,1651023486158899.0,2
1213,5.0,0.0,-4.0,3.0,-21.0,-7.0,5.0,2.0,1651023486158899.0,2
1214,-11.0,-2.0,31.0,7.0,8.0,4.0,5.0,7.0,1651023486170837.0,2
1215,2.0,14.0,-11.0,-9.0,-27.0,-9.0,-6.0,-4.0,1651023486170837.0,2
1216,-4.0,-10.0,-15.0,-5.0,13.0,4.0,-4.0,-3.0,1651023486179813.0,2
1217,3.0,12.0,1.0,6.0,-4.0,1.0,4.0,5.0,1651023486179813.0,2
1218,3.0,-2.0,-6.0,-10.0,-1.0,-2.0,0.0,3.0,1651023486194821.0,2
1219,2.0,-7.0,-6.0,-5.0,-11.0,-2.0,3.0,5.0,1651023486194821.0,2
1220,1.0,-3.0,10.0,7.0,9.0,-6.0,-2.0,3.0,1651023486195771.0,2
1221,-4.0,-10.0,-18.0,6.0,9.0,3.0,-1.0,-11.0,1651023486195771.0,2
1222,-1.0,2.0,-15.0,-14.0,-6.0,-2.0,0.0,2.0,1651023486216724.0,2
1223,-3.0,-22.0,-45.0,-21.0,2.0,1.0,-1.0,-1.0,1651023486216724.0,2
1224,-1.0,3.0,16.0,1.0,-11.0,-3.0,-2.0,1.0,1651023486218736.0,2
1225,-7.0,-14.0,7.0,4.0,-1.0,1.0,-1.0,-5.0,1651023486218736.0,2
1226,1.0,1.0,4.0,7.0,5.0,-3.0,-3.0,-4.0,1651023486230695.0,2
1227,4.0,20.0,16.0,13.0,12.0,0.0,0.0,2.0,1651023486230695.0,2
1228,-3.0,-9.0,-7.0,-6.0,-3.0,1.0,0.0,2.0,1651023486239664.0,2
1229,-1.0,-8.0,-16.0,-8.0,-3.0,-5.0,-1.0,-1.0,1651023486239664.0,2
1230,2.0,8.0,7.0,8.0,-4.0,2.0,1.0,0.0,1651023486255611.0,2
1231,4.0,2.0,0.0,-36.0,-15.0,-6.0,0.0,2.0,1651023486255611.0,2
1232,1.0,1.0,18.0,82.0,34.0,13.0,4.0,1.0,1651023486260660.0,2
1233,-3.0,-5.0,-6.0,-6.0,2.0,-2.0,0.0,0.0,1651023486260660.0,2
1234,4.0,2.0,-2.0,-6.0,-13.0,-2.0,-1.0,-3.0,1651023486276620.0,2
1235,-4.0,-2.0,0.0,3.0,0.0,-2.0,0.0,-1.0,1651023486276620.0,2
1236,-2.0,10.0,-6.0,-25.0,-9.0,-2.0,-3.0,-1.0,1651023486278578.0,2
1237,3.0,-8.0,-11.0,-5.0,13.0,5.0,1.0,0.0,1651023486278578.0,2
1238,-23.0,-43.0,-2.0,4.0,2.0,3.0,-1.0,-5.0,1651023486290517.0,2
1239,8.0,14.0,7.0,5.0,-6.0,-5.0,-3.0,-2.0,1651023486290517.0,2
1240,2.0,7.0,-7.0,-13.0,-7.0,-1.0,0.0,1.0,1651023486305478.0,2
1241,4.0,10.0,-1.0,3.0,-6.0,-2.0,1.0,3.0,1651023486305478.0,2
1242,8.0,-19.0,-5.0,-13.0,-11.0,-1.0,-1.0,-1.0,1651023486313456.0,2
1243,-8.0,-2.0,24.0,12.0,17.0,1.0,0.0,-1.0,1651023486313456.0,2
1244,-3.0,-20.0,-18.0,-9.0,-9.0,0.0,1.0,0.0,1651023486320438.0,2
1245,3.0,17.0,-1.0,-1.0,11.0,1.0,1.0,0.0,1651023486320438.0,2
1246,1.0,17.0,3.0,1.0,3.0,-1.0,-2.0,-1.0,1651023486336395.0,2
1247,-1.0,-9.0,4.0,4.0,-12.0,-1.0,-2.0,0.0,1651023486336395.0,2
1248,0.0,0.0,-1.0,-2.0,6.0,1.0,-1.0,0.0,1651023486338390.0,2
1249,-2.0,0.0,-11.0,-15.0,-19.0,0.0,1.0,-1.0,1651023486338390.0,2
1250,2.0,12.0,3.0,2.0,8.0,-1.0,-2.0,-2.0,1651023486358963.0,2
1251,5.0,13.0,0.0,10.0,8.0,1.0,0.0,0.0,1651023486358963.0,2
1252,-13.0,-45.0,-12.0,-16.0,-8.0,-4.0,-1.0,-2.0,1651023486360889.0,2
1253,-4.0,0.0,-2.0,-4.0,-11.0,-2.0,0.0,-1.0,1651023486360889.0,2
1254,-8.0,16.0,0.0,1.0,14.0,-1.0,-5.0,-5.0,1651023486374138.0,2
1255,0.0,-8.0,-6.0,1.0,-1.0,4.0,3.0,0.0,1651023486374138.0,2
1256,4.0,5.0,3.0,-2.0,1.0,0.0,-1.0,1.0,1651023486387832.0,2
1257,2.0,2.0,-1.0,1.0,-7.0,0.0,0.0,0.0,1651023486387832.0,2
1258,-3.0,-27.0,-4.0,-4.0,-2.0,0.0,-1.0,0.0,1651023486397195.0,2
1259,-10.0,-7.0,-8.0,-2.0,-2.0,-1.0,-4.0,-5.0,1651023486397195.0,2
1260,4.0,32.0,2.0,-2.0,-6.0,-4.0,0.0,0.0,1651023486398188.0,2
1261,-8.0,-18.0,-5.0,1.0,8.0,3.0,-2.0,-3.0,1651023486398188.0,2
1262,15.0,-7.0,2.0,-2.0,-11.0,-4.0,0.0,3.0,1651023486419154.0,2
1263,-19.0,-5.0,-2.0,0.0,-2.0,-1.0,-4.0,-5.0,1651023486419154.0,2
1264,3.0,1.0,0.0,2.0,19.0,6.0,1.0,0.0,1651023486421123.0,2
1265,-1.0,-1.0,0.0,-1.0,-3.0,-3.0,-2.0,2.0,1651023486421123.0,2
1266,0.0,-5.0,1.0,2.0,6.0,3.0,2.0,2.0,1651023486434087.0,2
1267,20.0,43.0,4.0,-1.0,-13.0,-4.0,1.0,1.0,1651023486434087.0,2
1268,-5.0,-11.0,-1.0,-3.0,-1.0,-1.0,0.0,-1.0,1651023486441070.0,2
1269,1.0,-6.0,-5.0,0.0,2.0,-2.0,-1.0,-2.0,1651023486441070.0,2
1270,2.0,19.0,5.0,0.0,-5.0,-2.0,0.0,2.0,1651023486456961.0,2
1271,2.0,15.0,3.0,2.0,4.0,-1.0,1.0,2.0,1651023486456961.0,2
1272,-6.0,-14.0,1.0,-1.0,-2.0,2.0,1.0,-2.0,1651023486458919.0,2
1273,-6.0,-6.0,3.0,5.0,10.0,5.0,1.0,1.0,1651023486458919.0,2
1274,-4.0,14.0,-2.0,-1.0,-6.0,-2.0,0.0,-2.0,1651023486479055.0,2
1275,-3.0,-15.0,-10.0,-5.0,-6.0,-2.0,-4.0,-3.0,1651023486479055.0,2
1276,4.0,17.0,3.0,-1.0,6.0,-3.0,1.0,0.0,1651023486480988.0,2
1277,-6.0,-68.0,-4.0,1.0,-7.0,-1.0,2.0,0.0,1651023486480988.0,2
1278,10.0,51.0,11.0,2.0,3.0,1.0,0.0,1.0,1651023486493951.0,2
1279,5.0,-2.0,0.0,1.0,4.0,1.0,2.0,1.0,1651023486493951.0,2
1280,-4.0,-6.0,-2.0,-3.0,-8.0,-1.0,0.0,-3.0,1651023486500934.0,2
1281,0.0,-11.0,-3.0,-1.0,-1.0,-4.0,-2.0,0.0,1651023486500934.0,2
1282,-2.0,-4.0,2.0,2.0,6.0,2.0,0.0,-4.0,1651023486516953.0,2
1283,-6.0,-23.0,-9.0,-4.0,-18.0,-6.0,3.0,-2.0,1651023486516953.0,2
1284,7.0,-3.0,-1.0,1.0,24.0,5.0,2.0,4.0,1651023486517951.0,2
1285,-3.0,49.0,4.0,0.0,9.0,0.0,-3.0,-4.0,1651023486517951.0,2
1286,-1.0,-20.0,0.0,6.0,1.0,3.0,-1.0,-1.0,1651023486539047.0,2
1287,-3.0,1.0,-5.0,1.0,1.0,1.0,0.0,1.0,1651023486539047.0,2
1288,2.0,-14.0,-7.0,-4.0,-13.0,-3.0,-1.0,1.0,1651023486546035.0,2
1289,-4.0,6.0,-4.0,-6.0,-12.0,-3.0,-2.0,-1.0,1651023486546035.0,2
1290,-8.0,-50.0,-10.0,-5.0,3.0,0.0,-1.0,0.0,1651023486554071.0,2
1291,-1.0,4.0,5.0,1.0,2.0,-1.0,0.0,1.0,1651023486554071.0,2
1292,-1.0,5.0,3.0,-2.0,-15.0,-4.0,-4.0,-1.0,1651023486560989.0,2
1293,-2.0,-28.0,-5.0,2.0,17.0,7.0,1.0,2.0,1651023486560989.0,2
1294,3.0,38.0,5.0,2.0,-3.0,-2.0,1.0,-1.0,1651023486577009.0,2
1295,3.0,-15.0,0.0,0.0,0.0,0.0,4.0,2.0,1651023486577009.0,2
1296,-2.0,4.0,0.0,-1.0,-1.0,-3.0,-4.0,-5.0,1651023486577943.0,2
1297,-8.0,-29.0,-8.0,-4.0,-8.0,-4.0,-1.0,-2.0,1651023486577943.0,2
1298,-2.0,-15.0,-3.0,-4.0,-2.0,0.0,2.0,0.0,1651023486599052.0,2
1299,-5.0,-11.0,-2.0,-1.0,6.0,1.0,-2.0,-3.0,1651023486599052.0,2
1300,-4.0,-24.0,-4.0,0.0,-2.0,-1.0,1.0,0.0,1651023486600980.0,2
1301,11.0,23.0,2.0,-3.0,-8.0,-3.0,-1.0,1.0,1651023486600980.0,2
1302,-5.0,-11.0,-3.0,-2.0,-1.0,-1.0,-2.0,-2.0,1651023486613946.0,2
1303,6.0,7.0,-1.0,-2.0,1.0,1.0,-3.0,1.0,1651023486613946.0,2
1304,1.0,4.0,2.0,-2.0,-8.0,0.0,0.0,-1.0,1651023486627932.0,2
1305,13.0,27.0,4.0,4.0,11.0,3.0,2.0,1.0,1651023486627932.0,2
1306,5.0,14.0,2.0,0.0,-7.0,-2.0,2.0,2.0,1651023486637028.0,2
1307,3.0,-31.0,-11.0,1.0,3.0,1.0,-2.0,1.0,1651023486637028.0,2
1308,-1.0,28.0,1.0,-5.0,-13.0,-2.0,-1.0,-1.0,1651023486638053.0,2
1309,3.0,9.0,-1.0,-3.0,0.0,-1.0,-1.0,0.0,1651023486638053.0,2
1310,0.0,10.0,-1.0,1.0,8.0,0.0,-1.0,0.0,1651023486666949.0,2
1311,0.0,-7.0,3.0,0.0,-30.0,-6.0,-1.0,0.0,1651023486666949.0,2
1312,1.0,-19.0,-5.0,0.0,35.0,7.0,-2.0,2.0,1651023486668943.0,2
1313,0.0,15.0,2.0,2.0,2.0,7.0,2.0,0.0,1651023486668943.0,2
1314,-2.0,-13.0,-5.0,-1.0,-6.0,-6.0,-3.0,-3.0,1651023486673931.0,2
1315,-3.0,9.0,4.0,2.0,6.0,2.0,-1.0,-1.0,1651023486673931.0,2
1316,2.0,8.0,2.0,0.0,-13.0,-4.0,1.0,-1.0,1651023486680911.0,2
1317,-3.0,-2.0,0.0,-5.0,-5.0,-4.0,-2.0,-1.0,1651023486680911.0,2
1318,-2.0,-8.0,-4.0,-3.0,4.0,3.0,-1.0,0.0,1651023486696937.0,2
1319,2.0,16.0,0.0,0.0,3.0,-3.0,0.0,-1.0,1651023486696937.0,2
1320,-10.0,-12.0,-5.0,-4.0,-7.0,-3.0,-3.0,-4.0,1651023486698864.0,2
1321,1.0,-27.0,-2.0,1.0,2.0,2.0,-2.0,-2.0,1651023486698864.0,2
1322,10.0,34.0,5.0,1.0,-5.0,0.0,0.0,2.0,1651023486719808.0,2
1323,-2.0,3.0,-1.0,-3.0,5.0,0.0,0.0,-2.0,1651023486719808.0,2
1324,3.0,28.0,4.0,2.0,-2.0,1.0,0.0,1.0,1651023486720805.0,2
1325,-4.0,-12.0,0.0,-2.0,-28.0,-7.0,0.0,-1.0,1651023486720805.0,2
1326,-7.0,-3.0,1.0,1.0,25.0,3.0,0.0,-1.0,1651023486733770.0,2
1327,-1.0,11.0,0.0,0.0,3.0,1.0,1.0,1.0,1651023486733770.0,2
1328,4.0,4.0,-1.0,2.0,-1.0,1.0,0.0,2.0,1651023486740819.0,2
1329,5.0,11.0,-1.0,-4.0,-13.0,-5.0,-1.0,2.0,1651023486740819.0,2
1330,-15.0,-8.0,-3.0,-4.0,-10.0,-4.0,-4.0,-7.0,1651023486756899.0,2
1331,-2.0,-4.0,1.0,3.0,13.0,3.0,0.0,0.0,1651023486756899.0,2
1332,0.0,-11.0,1.0,4.0,1.0,2.0,-2.0,1.0,1651023486758858.0,2
1333,4.0,34.0,2.0,-4.0,-7.0,-3.0,-2.0,-2.0,1651023486758858.0,2
1334,6.0,14.0,5.0,0.0,-2.0,-1.0,-2.0,2.0,1651023486779823.0,2
1335,-3.0,-24.0,-2.0,4.0,8.0,2.0,1.0,1.0,1651023486779823.0,2
1336,2.0,-5.0,-4.0,-3.0,-8.0,-3.0,1.0,1.0,1651023486780768.0,2
1337,-11.0,-20.0,-2.0,-5.0,10.0,-1.0,-3.0,-5.0,1651023486780768.0,2
1338,-6.0,14.0,-1.0,0.0,0.0,1.0,0.0,-5.0,1651023486792808.0,2
1339,0.0,-10.0,-1.0,-1.0,-13.0,-4.0,-3.0,0.0,1651023486792808.0,2
1340,3.0,12.0,6.0,6.0,16.0,2.0,1.0,2.0,1651023486801722.0,2
1341,5.0,8.0,0.0,1.0,-3.0,-1.0,1.0,1.0,1651023486801722.0,2
1342,-1.0,-28.0,-6.0,-3.0,-6.0,-1.0,2.0,1.0,1651023486815742.0,2
1343,-1.0,5.0,0.0,-2.0,4.0,-3.0,0.0,-1.0,1651023486815742.0,2
1344,-2.0,1.0,-1.0,-5.0,-25.0,-6.0,-1.0,-3.0,1651023486824752.0,2
1345,0.0,19.0,2.0,1.0,25.0,6.0,1.0,-1.0,1651023486824752.0,2
1346,-2.0,-12.0,0.0,-2.0,-14.0,2.0,1.0,2.0,1651023486839795.0,2
1347,1.0,7.0,-3.0,1.0,10.0,1.0,0.0,-1.0,1651023486839795.0,2
1348,11.0,-7.0,1.0,1.0,-2.0,-2.0,0.0,2.0,1651023486840725.0,2
1349,-4.0,14.0,2.0,-1.0,-9.0,-3.0,-2.0,-1.0,1651023486840725.0,2
1350,-1.0,6.0,-2.0,-1.0,0.0,-1.0,-2.0,1.0,1651023486852705.0,2
1351,0.0,-10.0,-1.0,-2.0,0.0,1.0,-1.0,-1.0,1651023486852705.0,2
1352,3.0,7.0,1.0,-1.0,0.0,0.0,0.0,1.0,1651023486861657.0,2
1353,-1.0,-25.0,-5.0,2.0,2.0,1.0,-2.0,0.0,1651023486861657.0,2
1354,5.0,9.0,0.0,0.0,-2.0,0.0,-1.0,-3.0,1651023486877242.0,2
1355,-8.0,11.0,-1.0,-4.0,-3.0,-4.0,-2.0,-5.0,1651023486877242.0,2
1356,-4.0,-5.0,-2.0,-3.0,3.0,-1.0,-1.0,-2.0,1651023486878701.0,2
1357,1.0,5.0,3.0,3.0,0.0,3.0,2.0,1.0,1651023486878701.0,2
1358,-4.0,-53.0,-7.0,-2.0,-1.0,-3.0,1.0,-1.0,1651023486899642.0,2
1359,0.0,2.0,-1.0,0.0,0.0,0.0,-1.0,-1.0,1651023486899642.0,2
1360,-10.0,-30.0,-4.0,0.0,-2.0,1.0,0.0,0.0,1651023486900632.0,2
1361,1.0,35.0,4.0,-1.0,-5.0,-4.0,-3.0,-1.0,1651023486900632.0,2
1362,-8.0,10.0,-1.0,0.0,0.0,-1.0,-2.0,-4.0,1651023486912669.0,2
1363,1.0,-6.0,-2.0,-1.0,1.0,1.0,-1.0,2.0,1651023486912669.0,2
1364,0.0,4.0,-1.0,-2.0,-13.0,-5.0,-1.0,-4.0,1651023486921606.0,2
1365,1.0,-14.0,-1.0,-1.0,3.0,4.0,0.0,1.0,1651023486921606.0,2
1366,-3.0,-3.0,1.0,3.0,9.0,0.0,-1.0,-1.0,1651023486936535.0,2
1367,8.0,14.0,3.0,2.0,1.0,1.0,0.0,1.0,1651023486936535.0,2
1368,-3.0,3.0,-1.0,-2.0,-6.0,-4.0,0.0,-2.0,1651023486938531.0,2
1369,-4.0,-24.0,-7.0,0.0,4.0,-2.0,-1.0,-1.0,1651023486938531.0,2
1370,1.0,10.0,0.0,-3.0,-4.0,1.0,0.0,0.0,1651023486959786.0,2
1371,-1.0,-4.0,-2.0,-1.0,-4.0,-2.0,-1.0,-1.0,1651023486959786.0,2
1372,7.0,19.0,0.0,2.0,17.0,2.0,1.0,2.0,1651023486960721.0,2
1373,-5.0,-9.0,0.0,1.0,-5.0,1.0,-1.0,-1.0,1651023486960721.0,2
1374,2.0,-6.0,-2.0,0.0,-7.0,-5.0,-2.0,-1.0,1651023486981780.0,2
1375,-2.0,10.0,2.0,2.0,7.0,3.0,0.0,1.0,1651023486981780.0,2
1376,-1.0,-4.0,1.0,0.0,-4.0,1.0,-1.0,-1.0,1651023486983800.0,2
1377,-3.0,3.0,-1.0,2.0,9.0,-1.0,-1.0,-1.0,1651023486983800.0,2
1378,10.0,23.0,2.0,1.0,1.0,1.0,4.0,5.0,1651023486996855.0,2
1379,-1.0,3.0,-1.0,-4.0,-9.0,-3.0,-2.0,-3.0,1651023486996855.0,2
1380,-4.0,-3.0,-2.0,-2.0,-7.0,-5.0,-3.0,-3.0,1651023486998789.0,2
1381,-3.0,-7.0,-2.0,-1.0,1.0,4.0,-1.0,1.0,1651023486998789.0,2
1382,4.0,5.0,2.0,1.0,1.0,1.0,0.0,1.0,1651023487018912.0,2
1383,-9.0,-45.0,-11.0,-4.0,-7.0,-3.0,-2.0,-2.0,1651023487018912.0,2
1384,5.0,29.0,3.0,-3.0,-5.0,-2.0,1.0,-2.0,1651023487020849.0,2
1385,-7.0,-17.0,-2.0,3.0,11.0,0.0,0.0,-3.0,1651023487020849.0,2
1386,-5.0,-8.0,0.0,1.0,0.0,1.0,-1.0,0.0,1651023487032833.0,2
1387,2.0,0.0,2.0,0.0,-1.0,1.0,0.0,-1.0,1651023487032833.0,2
1388,-5.0,-9.0,-6.0,-1.0,3.0,1.0,-1.0,-1.0,1651023487041822.0,2
1389,3.0,-2.0,0.0,-3.0,-29.0,-9.0,0.0,1.0,1651023487041822.0,2
1390,-1.0,7.0,-4.0,-1.0,13.0,4.0,0.0,0.0,1651023487056770.0,2
1391,-2.0,0.0,0.0,1.0,1.0,0.0,-1.0,0.0,1651023487056770.0,0
1392,3.0,5.0,1.0,4.0,6.0,1.0,0.0,1.0,1651023487058765.0,0
1393,-4.0,28.0,-1.0,-3.0,-8.0,-2.0,-1.0,-2.0,1651023487058765.0,0
1394,-5.0,-3.0,-2.0,-1.0,-2.0,-3.0,-4.0,-1.0,1651023487079680.0,0
1395,2.0,16.0,2.0,-3.0,-1.0,2.0,-1.0,0.0,1651023487079680.0,0
1396,2.0,-4.0,-1.0,-2.0,1.0,0.0,0.0,1.0,1651023487080677.0,0
1397,2.0,-5.0,-3.0,1.0,2.0,0.0,1.0,1.0,1651023487080677.0,0
1398,-1.0,1.0,-1.0,0.0,0.0,0.0,-2.0,-2.0,1651023487092645.0,0
1399,7.0,10.0,-1.0,2.0,0.0,-1.0,2.0,3.0,1651023487092645.0,0
1400,-2.0,46.0,2.0,-4.0,-3.0,-2.0,-3.0,-3.0,1651023487101621.0,0
1401,2.0,-12.0,2.0,-1.0,-4.0,1.0,1.0,1.0,1651023487101621.0,0
1402,0.0,14.0,1.0,2.0,7.0,-4.0,-1.0,-1.0,1651023487116610.0,0
1403,1.0,7.0,3.0,1.0,-4.0,3.0,-1.0,0.0,1651023487116610.0,0
1404,-1.0,-13.0,-4.0,2.0,6.0,3.0,1.0,1.0,1651023487118577.0,0
1405,4.0,-1.0,0.0,-1.0,-4.0,-2.0,0.0,0.0,1651023487118577.0,0
1406,-1.0,-3.0,-2.0,-3.0,-22.0,-5.0,0.0,1.0,1651023487139532.0,0
1407,1.0,6.0,4.0,1.0,6.0,1.0,2.0,2.0,1651023487139532.0,0
1408,-4.0,8.0,0.0,-1.0,12.0,2.0,-2.0,-2.0,1651023487140549.0,0
1409,-3.0,-4.0,0.0,3.0,3.0,1.0,0.0,0.0,1651023487140549.0,0
1410,-2.0,-14.0,-2.0,0.0,-2.0,1.0,1.0,-1.0,1651023487152554.0,0
1411,-1.0,5.0,-1.0,0.0,0.0,-2.0,-1.0,-1.0,1651023487152554.0,0
1412,-5.0,-25.0,-4.0,-7.0,-31.0,-5.0,-2.0,-1.0,1651023487162459.0,0
1413,2.0,1.0,-3.0,-1.0,24.0,4.0,0.0,-1.0,1651023487162459.0,0
1414,-2.0,21.0,3.0,5.0,6.0,3.0,0.0,-1.0,1651023487176488.0,0
1415,-5.0,-35.0,-8.0,-6.0,-16.0,-6.0,0.0,-1.0,1651023487176488.0,0
1416,-4.0,-11.0,1.0,0.0,15.0,0.0,-1.0,-2.0,1651023487178444.0,0
1417,2.0,15.0,-1.0,-1.0,-6.0,-2.0,1.0,-1.0,1651023487178444.0,0
1418,0.0,-9.0,-3.0,-6.0,-7.0,-1.0,-1.0,0.0,1651023487199360.0,0
1419,0.0,-8.0,-2.0,1.0,5.0,1.0,0.0,-2.0,1651023487199360.0,0
1420,1.0,-10.0,1.0,2.0,-6.0,-1.0,1.0,1.0,1651023487201373.0,0
1421,-8.0,-37.0,-3.0,-3.0,-1.0,-3.0,-2.0,-4.0,1651023487201373.0,0
1422,-4.0,-12.0,-1.0,1.0,7.0,1.0,0.0,0.0,1651023487213193.0,0
1423,-1.0,17.0,1.0,0.0,-3.0,-2.0,-3.0,-1.0,1651023487213193.0,0
1424,-1.0,1.0,0.0,0.0,2.0,1.0,0.0,-1.0,1651023487222181.0,0
1425,1.0,6.0,1.0,0.0,-2.0,1.0,0.0,1.0,1651023487222181.0,0
1426,2.0,5.0,-1.0,-3.0,-4.0,0.0,1.0,0.0,1651023487237194.0,0
1427,-3.0,-6.0,-3.0,-3.0,1.0,0.0,-2.0,-2.0,1651023487237194.0,0
1428,-1.0,-13.0,-4.0,2.0,3.0,0.0,0.0,1.0,1651023487238129.0,0
1429,6.0,16.0,3.0,0.0,-2.0,0.0,0.0,1.0,1651023487238129.0,0
1430,1.0,-6.0,-1.0,-3.0,-4.0,-1.0,-1.0,0.0,1651023487259015.0,0
1431,0.0,1.0,-1.0,-1.0,4.0,1.0,0.0,0.0,1651023487259015.0,0
1432,1.0,-8.0,0.0,-3.0,3.0,1.0,0.0,0.0,1651023487260942.0,0
1433,-1.0,-3.0,-2.0,-1.0,-5.0,-3.0,-1.0,-1.0,1651023487260942.0,0
1434,2.0,-4.0,-1.0,-2.0,0.0,-2.0,-1.0,0.0,1651023487282173.0,0
1435,-1.0,-7.0,2.0,4.0,4.0,0.0,2.0,0.0,1651023487282173.0,0
1436,-5.0,-10.0,1.0,0.0,0.0,0.0,-1.0,-1.0,1651023487283160.0,0
1437,-3.0,-6.0,-3.0,0.0,-3.0,0.0,0.0,-1.0,1651023487283160.0,0
1438,1.0,0.0,0.0,-2.0,0.0,0.0,-2.0,0.0,1651023487296967.0,0
1439,1.0,10.0,3.0,1.0,1.0,0.0,0.0,0.0,1651023487296967.0,0
1440,4.0,-1.0,-7.0,-1.0,-3.0,-2.0,0.0,-1.0,1651023487298897.0,0
1441,-2.0,-1.0,-4.0,-1.0,0.0,0.0,0.0,0.0,1651023487298897.0,0
1442,0.0,-13.0,-2.0,0.0,-1.0,1.0,0.0,-1.0,1651023487319873.0,0
1443,-3.0,18.0,-6.0,-6.0,-5.0,-4.0,-4.0,-3.0,1651023487319873.0,0
1444,1.0,0.0,1.0,0.0,2.0,0.0,0.0,1.0,1651023487320836.0,0
1445,-1.0,3.0,0.0,-3.0,1.0,0.0,-1.0,1.0,1651023487320836.0,0
1446,0.0,7.0,-1.0,1.0,0.0,-1.0,-1.0,1.0,1651023487342052.0,0
1447,-2.0,-8.0,0.0,-2.0,3.0,1.0,2.0,-1.0,1651023487342052.0,0
1448,-3.0,2.0,-1.0,1.0,-1.0,1.0,-2.0,0.0,1651023487343016.0,0
1449,2.0,-3.0,-1.0,-2.0,-3.0,1.0,0.0,1.0,1651023487343016.0,0
1450,-4.0,-8.0,-2.0,-9.0,-8.0,-3.0,-1.0,-1.0,1651023487357049.0,0
1451,-2.0,-4.0,-4.0,-3.0,-15.0,-5.0,-1.0,-1.0,1651023487357049.0,0
1452,-4.0,-2.0,0.0,6.0,24.0,4.0,1.0,-1.0,1651023487357979.0,0
1453,0.0,1.0,3.0,-6.0,-9.0,-3.0,2.0,3.0,1651023487357979.0,0
1454,-1.0,-7.0,-10.0,-2.0,-1.0,-1.0,-2.0,-1.0,1651023487378990.0,0
1455,1.0,7.0,26.0,17.0,1.0,3.0,1.0,1.0,1651023487378990.0,0
1456,1.0,2.0,-7.0,-4.0,-23.0,-9.0,1.0,-1.0,1651023487380917.0,0
1457,-3.0,-5.0,-5.0,-1.0,22.0,9.0,-2.0,-2.0,1651023487380917.0,0
1458,1.0,8.0,-6.0,-10.0,-5.0,-3.0,1.0,0.0,1651023487401727.0,0
1459,-3.0,-12.0,-14.0,-7.0,15.0,-2.0,-1.0,-1.0,1651023487401727.0,0
1460,-1.0,2.0,12.0,3.0,-9.0,1.0,0.0,1.0,1651023487403718.0,0
1461,1.0,2.0,16.0,19.0,-3.0,-5.0,-2.0,-4.0,1651023487403718.0,0
1462,1.0,2.0,-7.0,-2.0,-4.0,-2.0,1.0,-2.0,1651023487415686.0,0
1463,2.0,-3.0,-10.0,-10.0,1.0,-1.0,-3.0,0.0,1651023487415686.0,0
1464,0.0,0.0,-1.0,-6.0,7.0,2.0,-2.0,-1.0,1651023487422667.0,0
1465,-2.0,2.0,-5.0,-10.0,-13.0,-7.0,-1.0,0.0,1651023487422667.0,0
1466,-2.0,0.0,5.0,4.0,-33.0,-5.0,-3.0,-3.0,1651023487439596.0,0
1467,1.0,6.0,8.0,36.0,47.0,10.0,2.0,1.0,1651023487439596.0,0
1468,-7.0,-19.0,-16.0,-8.0,6.0,3.0,1.0,-2.0,1651023487440530.0,0
1469,5.0,7.0,16.0,4.0,0.0,-1.0,3.0,2.0,1651023487440530.0,0
1470,-1.0,-4.0,-21.0,-25.0,-11.0,-3.0,-1.0,1.0,1651023487462059.0,0
1471,-6.0,-14.0,-19.0,-12.0,-21.0,-6.0,-3.0,-3.0,1651023487462059.0,0
1472,1.0,-4.0,-6.0,18.0,12.0,5.0,1.0,2.0,1651023487463059.0,0
1473,-5.0,-13.0,-15.0,3.0,-1.0,-2.0,-1.0,-4.0,1651023487463059.0,0
1474,0.0,7.0,25.0,-5.0,-9.0,-8.0,-4.0,-1.0,1651023487476092.0,0
1475,3.0,12.0,1.0,-14.0,-3.0,5.0,-2.0,-1.0,1651023487476092.0,0
1476,0.0,6.0,4.0,20.0,23.0,10.0,3.0,1.0,1651023487483008.0,0
1477,5.0,7.0,29.0,18.0,10.0,1.0,3.0,4.0,1651023487483008.0,0
1478,2.0,-2.0,-29.0,-8.0,13.0,3.0,0.0,2.0,1651023487498943.0,0
1479,-3.0,-17.0,-25.0,2.0,-3.0,-5.0,-1.0,-3.0,1651023487498943.0,0
1480,-2.0,5.0,10.0,-37.0,-25.0,-3.0,-4.0,-6.0,1651023487500933.0,0
1481,-2.0,5.0,-12.0,-10.0,-14.0,-1.0,-3.0,3.0,1651023487500933.0,0
1482,13.0,9.0,35.0,45.0,16.0,2.0,-1.0,7.0,1651023487521955.0,0
1483,14.0,8.0,10.0,4.0,-4.0,0.0,2.0,3.0,1651023487521955.0,0
1484,-12.0,-8.0,-23.0,-24.0,-17.0,-8.0,-3.0,-6.0,1651023487522930.0,0
1485,-1.0,-6.0,-19.0,-66.0,-23.0,-4.0,-3.0,-4.0,1651023487522930.0,3
1486,-12.0,-1.0,7.0,30.0,29.0,4.0,-3.0,-7.0,1651023487536007.0,3
1487,-3.0,2.0,23.0,13.0,-5.0,-4.0,-6.0,-5.0,1651023487536007.0,3
1488,15.0,5.0,-2.0,22.0,4.0,-13.0,1.0,10.0,1651023487543500.0,3
1489,24.0,5.0,13.0,-50.0,-11.0,12.0,5.0,11.0,1651023487543500.0,3
1490,-22.0,-6.0,-68.0,-31.0,3.0,4.0,6.0,-1.0,1651023487559674.0,3
1491,-28.0,-16.0,19.0,-12.0,-22.0,-25.0,-11.0,-17.0,1651023487559674.0,3
1492,-4.0,28.0,50.0,21.0,2.0,-5.0,7.0,-6.0,1651023487560625.0,3
1493,9.0,17.0,18.0,25.0,-1.0,-66.0,0.0,8.0,1651023487560625.0,3
1494,-8.0,-10.0,-57.0,-46.0,-9.0,73.0,-24.0,-32.0,1651023487582006.0,3
1495,14.0,-7.0,-14.0,-28.0,5.0,40.0,11.0,12.0,1651023487582006.0,3
1496,-10.0,-1.0,4.0,4.0,13.0,27.0,22.0,4.0,1651023487582951.0,3
1497,6.0,2.0,28.0,28.0,6.0,17.0,42.0,27.0,1651023487582951.0,3
1498,8.0,14.0,41.0,-20.0,10.0,5.0,12.0,14.0,1651023487595902.0,3
1499,-17.0,-8.0,-10.0,92.0,8.0,-72.0,-48.0,-36.0,1651023487595902.0,3
1500,39.0,17.0,0.0,-26.0,-3.0,9.0,2.0,25.0,1651023487604877.0,3
1501,-34.0,-19.0,-26.0,16.0,14.0,-4.0,54.0,-31.0,1651023487604877.0,3
1502,53.0,15.0,30.0,2.0,-15.0,-9.0,-10.0,29.0,1651023487619002.0,3
1503,-67.0,-6.0,15.0,28.0,38.0,26.0,0.0,-22.0,1651023487619002.0,3
1504,22.0,11.0,5.0,11.0,-3.0,-27.0,30.0,15.0,1651023487620934.0,3
1505,-33.0,-7.0,6.0,26.0,-1.0,-36.0,57.0,-9.0,1651023487620934.0,3
1506,-21.0,-2.0,-24.0,-34.0,-39.0,49.0,-78.0,-20.0,1651023487641936.0,3
1507,74.0,10.0,-6.0,-16.0,10.0,-19.0,106.0,44.0,1651023487641936.0,3
1508,-67.0,-84.0,-60.0,-77.0,-22.0,85.0,30.0,-31.0,1651023487643903.0,3
1509,24.0,36.0,28.0,23.0,14.0,15.0,-31.0,11.0,1651023487643903.0,3
1510,14.0,-15.0,10.0,23.0,0.0,-56.0,-21.0,-26.0,1651023487655908.0,3
1511,-3.0,5.0,-20.0,-62.0,-30.0,-29.0,-6.0,-5.0,1651023487655908.0,3
1512,-21.0,-19.0,21.0,37.0,31.0,-18.0,15.0,-10.0,1651023487664425.0,3
1513,30.0,-33.0,-34.0,4.0,5.0,39.0,103.0,48.0,1651023487664425.0,3
1514,-27.0,28.0,38.0,1.0,13.0,-34.0,-67.0,-27.0,1651023487679392.0,3
1515,-5.0,-20.0,-16.0,-28.0,-13.0,-5.0,-5.0,7.0,1651023487679392.0,3
1516,-3.0,-4.0,-31.0,-54.0,-34.0,-34.0,-4.0,-5.0,1651023487681393.0,3
1517,-16.0,-32.0,-20.0,-27.0,1.0,49.0,38.0,4.0,1651023487681393.0,3
1518,24.0,70.0,25.0,46.0,17.0,-28.0,-51.0,3.0,1651023487701987.0,3
1519,-17.0,-48.0,-20.0,-26.0,-18.0,-26.0,-7.0,-11.0,1651023487701987.0,3
1520,0.0,42.0,4.0,3.0,-17.0,-30.0,-22.0,-1.0,1651023487703914.0,3
1521,-27.0,-29.0,-18.0,-23.0,3.0,32.0,-27.0,-27.0,1651023487703914.0,3
1522,33.0,-8.0,7.0,18.0,12.0,15.0,7.0,24.0,1651023487715124.0,3
1523,8.0,13.0,11.0,-17.0,-16.0,0.0,-12.0,-13.0,1651023487715124.0,3
1524,-1.0,-15.0,29.0,92.0,27.0,-2.0,48.0,26.0,1651023487725030.0,3
1525,-14.0,1.0,-49.0,-24.0,18.0,46.0,-69.0,-19.0,1651023487725030.0,3
1526,-48.0,-62.0,-45.0,-87.0,-42.0,-11.0,83.0,-5.0,1651023487739019.0,3
1527,46.0,85.0,73.0,53.0,60.0,43.0,99.0,52.0,1651023487739019.0,3
1528,0.0,-36.0,-54.0,-48.0,-1.0,-26.0,-123.0,-43.0,1651023487741015.0,3
1529,-12.0,0.0,21.0,29.0,-38.0,-80.0,-1.0,-8.0,1651023487741015.0,3
1530,-4.0,0.0,3.0,13.0,8.0,-7.0,31.0,-3.0,1651023487762100.0,3
1531,1.0,11.0,-19.0,-50.0,-20.0,19.0,44.0,18.0,1651023487762100.0,3
1532,1.0,20.0,-5.0,-19.0,-14.0,-5.0,-46.0,-6.0,1651023487763099.0,3
1533,22.0,-1.0,11.0,18.0,22.0,7.0,-22.0,-1.0,1651023487763099.0,3
1534,-5.0,-11.0,9.0,3.0,2.0,-48.0,40.0,11.0,1651023487775130.0,3
1535,-11.0,-19.0,-19.0,10.0,-12.0,37.0,-14.0,4.0,1651023487775130.0,3
1536,10.0,5.0,-1.0,6.0,8.0,43.0,28.0,7.0,1651023487784242.0,3
1537,-47.0,10.0,-7.0,-24.0,-7.0,25.0,-57.0,-36.0,1651023487784242.0,3
1538,34.0,1.0,44.0,59.0,21.0,5.0,49.0,27.0,1651023487799208.0,3
1539,-18.0,8.0,-18.0,-24.0,-39.0,-45.0,-40.0,-19.0,1651023487799208.0,3
1540,-4.0,-32.0,-18.0,-35.0,14.0,0.0,7.0,7.0,1651023487801203.0,3
1541,42.0,47.0,49.0,42.0,-2.0,-12.0,-22.0,13.0,1651023487801203.0,3
1542,-32.0,-27.0,-16.0,31.0,35.0,23.0,56.0,2.0,1651023487821802.0,3
1543,-6.0,-19.0,2.0,5.0,-20.0,-27.0,-32.0,-11.0,1651023487821802.0,3
1544,13.0,4.0,-34.0,-15.0,2.0,0.0,-23.0,-2.0,1651023487823824.0,3
1545,-13.0,33.0,60.0,25.0,13.0,-2.0,33.0,13.0,1651023487823824.0,3
1546,-16.0,-16.0,-48.0,-35.0,-22.0,-52.0,-63.0,-18.0,1651023487835628.0,3
1547,56.0,-23.0,22.0,21.0,-2.0,9.0,-35.0,1.0,1651023487835628.0,3
1548,-11.0,11.0,9.0,-2.0,-16.0,-16.0,52.0,8.0,1651023487844636.0,3
1549,-15.0,0.0,-16.0,-46.0,-11.0,-15.0,24.0,-8.0,1651023487844636.0,3
1550,-13.0,26.0,13.0,-18.0,-1.0,-23.0,-23.0,8.0,1651023487859238.0,3
1551,26.0,10.0,3.0,20.0,43.0,113.0,74.0,23.0,1651023487859238.0,3
1552,-26.0,8.0,14.0,-14.0,-51.0,-67.0,-53.0,-22.0,1651023487861164.0,3
1553,23.0,-6.0,4.0,15.0,33.0,20.0,-13.0,5.0,1651023487861164.0,3
1554,24.0,11.0,3.0,4.0,-1.0,21.0,21.0,18.0,1651023487882176.0,3
1555,-41.0,-13.0,-24.0,-55.0,-19.0,-32.0,10.0,9.0,1651023487882176.0,3
1556,63.0,40.0,60.0,64.0,24.0,22.0,9.0,7.0,1651023487883106.0,3
1557,-21.0,-21.0,-25.0,2.0,-7.0,-28.0,-31.0,-22.0,1651023487883106.0,3
1558,10.0,-8.0,16.0,36.0,34.0,20.0,24.0,0.0,1651023487896070.0,3
1559,-42.0,37.0,3.0,21.0,21.0,8.0,-22.0,-5.0,1651023487896070.0,3
1560,14.0,-49.0,-49.0,-61.0,-15.0,17.0,29.0,17.0,1651023487904117.0,3
1561,19.0,4.0,-4.0,6.0,0.0,-23.0,-19.0,-1.0,1651023487904117.0,3
1562,-29.0,4.0,4.0,-24.0,-23.0,4.0,4.0,-17.0,1651023487919108.0,3
1563,23.0,7.0,0.0,-24.0,-42.0,-90.0,-5.0,14.0,1651023487919108.0,3
1564,-14.0,15.0,29.0,31.0,40.0,81.0,58.0,14.0,1651023487921089.0,3
1565,31.0,12.0,-30.0,-24.0,-10.0,-14.0,-12.0,1.0,1651023487921089.0,3
1566,-51.0,-41.0,-3.0,-5.0,-21.0,-43.0,-59.0,-39.0,1651023487941849.0,3
1567,14.0,4.0,13.0,10.0,13.0,21.0,12.0,6.0,1651023487941849.0,3
1568,-10.0,11.0,16.0,10.0,-9.0,-28.0,-74.0,-22.0,1651023487943766.0,3
1569,-13.0,4.0,-17.0,-58.0,-26.0,0.0,11.0,-9.0,1651023487943766.0,3
1570,5.0,16.0,-2.0,-20.0,11.0,60.0,86.0,35.0,1651023487955734.0,3
1571,-4.0,-5.0,28.0,96.0,30.0,-30.0,-67.0,-35.0,1651023487955734.0,3
1572,1.0,20.0,39.0,48.0,32.0,12.0,35.0,17.0,1651023487964242.0,3
1573,9.0,6.0,7.0,-25.0,1.0,21.0,53.0,16.0,1651023487964242.0,3
1574,-10.0,-17.0,-32.0,-27.0,-16.0,-26.0,-71.0,-22.0,1651023487979873.0,3
1575,-12.0,-15.0,-25.0,-26.0,1.0,28.0,33.0,-3.0,1651023487979873.0,3
1576,25.0,12.0,-14.0,-24.0,-11.0,-8.0,-11.0,14.0,1651023487980832.0,3
1577,-8.0,14.0,30.0,56.0,20.0,2.0,27.0,-3.0,1651023487980832.0,3
1578,36.0,-14.0,7.0,-9.0,-18.0,-53.0,-45.0,-15.0,1651023488002010.0,3
1579,-9.0,-21.0,-4.0,-8.0,3.0,47.0,41.0,0.0,1651023488002010.0,3
1580,1.0,4.0,-11.0,-16.0,-10.0,9.0,-31.0,-12.0,1651023488003948.0,3
1581,-43.0,-1.0,-3.0,-11.0,-12.0,-36.0,-9.0,5.0,1651023488003948.0,3
1582,54.0,10.0,11.0,7.0,12.0,79.0,62.0,18.0,1651023488015423.0,3
1583,21.0,15.0,-4.0,-15.0,-8.0,-47.0,-47.0,-9.0,1651023488015423.0,3
1584,-4.0,6.0,-3.0,-16.0,1.0,33.0,42.0,23.0,1651023488024336.0,3
1585,-38.0,-16.0,-5.0,16.0,-12.0,-10.0,-6.0,-7.0,1651023488024336.0,3
1586,12.0,18.0,38.0,45.0,-4.0,-17.0,-73.0,7.0,1651023488039296.0,3
1587,-3.0,-38.0,-80.0,-103.0,6.0,1.0,-19.0,-29.0,1651023488039296.0,3
1588,2.0,3.0,26.0,49.0,6.0,-28.0,4.0,1.0,1651023488041313.0,3
1589,7.0,-4.0,6.0,16.0,14.0,12.0,-22.0,-7.0,1651023488041313.0,3
1590,-36.0,-5.0,3.0,-15.0,-20.0,0.0,30.0,3.0,1651023488061904.0,3
1591,26.0,18.0,-48.0,-40.0,-39.0,-12.0,-12.0,6.0,1651023488061904.0,3
1592,-15.0,-15.0,7.0,-66.0,-1.0,-28.0,-32.0,-16.0,1651023488063868.0,3
1593,-1.0,-33.0,-10.0,68.0,36.0,34.0,25.0,18.0,1651023488063868.0,3
1594,3.0,-22.0,-1.0,-5.0,-5.0,-9.0,53.0,12.0,1651023488075136.0,3
1595,-45.0,22.0,40.0,7.0,-7.0,-8.0,-74.0,-32.0,1651023488075136.0,3
1596,15.0,3.0,-16.0,-10.0,-5.0,-59.0,-25.0,-17.0,1651023488084836.0,3
1597,45.0,13.0,6.0,-12.0,11.0,93.0,72.0,32.0,1651023488084836.0,3
1598,16.0,16.0,6.0,-16.0,-7.0,-29.0,-48.0,-10.0,1651023488098948.0,3
1599,22.0,-21.0,23.0,48.0,20.0,-7.0,10.0,21.0,1651023488098948.0,3
1600,-14.0,11.0,-3.0,2.0,-2.0,28.0,-5.0,-7.0,1651023488100945.0,3
1601,32.0,7.0,0.0,-23.0,-14.0,-48.0,33.0,5.0,1651023488100945.0,3
1602,-70.0,-13.0,-41.0,-15.0,20.0,19.0,24.0,-19.0,1651023488122109.0,3
1603,-21.0,-20.0,11.0,3.0,-29.0,-24.0,-72.0,-26.0,1651023488122109.0,3
1604,-19.0,-7.0,-16.0,-6.0,-15.0,-34.0,-44.0,-36.0,1651023488123043.0,3
1605,1.0,-40.0,-28.0,-40.0,-16.0,-36.0,-54.0,5.0,1651023488123043.0,3
1606,26.0,13.0,-1.0,-10.0,-2.0,31.0,14.0,2.0,1651023488144060.0,3
1607,-41.0,19.0,28.0,7.0,16.0,2.0,73.0,11.0,1651023488144060.0,3
1608,-16.0,-3.0,-7.0,50.0,3.0,11.0,4.0,4.0,1651023488146018.0,3
1609,25.0,-28.0,-34.0,-32.0,-25.0,-21.0,-59.0,-29.0,1651023488146018.0,3
1610,-1.0,0.0,-7.0,-29.0,-2.0,-8.0,15.0,9.0,1651023488159015.0,3
1611,-18.0,32.0,29.0,34.0,20.0,-12.0,21.0,1.0,1651023488159015.0,3
1612,45.0,-22.0,-10.0,-16.0,-13.0,10.0,-12.0,13.0,1651023488165957.0,3
1613,-28.0,9.0,9.0,-11.0,3.0,51.0,21.0,-12.0,1651023488165957.0,3
1614,-24.0,29.0,28.0,42.0,20.0,25.0,-15.0,-21.0,1651023488181945.0,3
1615,-18.0,-28.0,-34.0,-45.0,-40.0,-51.0,-5.0,8.0,1651023488181945.0,3
1616,33.0,14.0,29.0,48.0,16.0,2.0,11.0,24.0,1651023488183882.0,3
1617,-25.0,7.0,-8.0,-26.0,3.0,-47.0,-82.0,-30.0,1651023488183882.0,3
1618,31.0,-11.0,0.0,-25.0,0.0,-1.0,58.0,20.0,1651023488204250.0,3
1619,-2.0,23.0,48.0,74.0,29.0,49.0,-9.0,-13.0,1651023488204250.0,3
1620,-28.0,-11.0,-28.0,-34.0,4.0,-10.0,22.0,6.0,1651023488206210.0,3
1621,-1.0,-40.0,0.0,8.0,-10.0,1.0,19.0,12.0,1651023488206210.0,3
1622,7.0,29.0,-16.0,7.0,9.0,-4.0,-27.0,-18.0,1651023488219210.0,3
1623,22.0,-6.0,-29.0,-122.0,-50.0,-2.0,-4.0,14.0,1651023488219210.0,3
1624,0.0,5.0,66.0,107.0,65.0,14.0,21.0,13.0,1651023488221136.0,3
1625,10.0,6.0,-27.0,-40.0,-20.0,-40.0,-31.0,-18.0,1651023488221136.0,3
1626,5.0,-18.0,-6.0,-15.0,-2.0,13.0,43.0,10.0,1651023488242177.0,3
1627,19.0,2.0,-3.0,9.0,6.0,-38.0,-30.0,-8.0,1651023488242177.0,3
1628,-31.0,-13.0,-23.0,-46.0,-17.0,103.0,68.0,4.0,1651023488243105.0,3
1629,32.0,10.0,17.0,17.0,2.0,-25.0,-108.0,-15.0,1651023488243105.0,3
1630,-16.0,-17.0,-12.0,11.0,1.0,-33.0,19.0,3.0,1651023488264077.0,3
1631,4.0,-8.0,-2.0,10.0,-1.0,-65.0,20.0,1.0,1651023488264077.0,3
1632,15.0,13.0,-1.0,-19.0,-12.0,2.0,1.0,-1.0,1651023488266074.0,3
1633,-22.0,18.0,6.0,-29.0,-17.0,33.0,54.0,4.0,1651023488266074.0,3
1634,16.0,-1.0,25.0,77.0,16.0,-8.0,-45.0,4.0,1651023488280036.0,3
1635,-7.0,-1.0,-31.0,-37.0,10.0,32.0,29.0,8.0,1651023488280036.0,3
1636,35.0,8.0,29.0,62.0,9.0,-28.0,-18.0,-16.0,1651023488286032.0,3
1637,-22.0,1.0,-15.0,-16.0,-1.0,-2.0,17.0,18.0,1651023488286032.0,3
1638,-37.0,-25.0,-28.0,-7.0,-3.0,-8.0,-24.0,-7.0,1651023488302046.0,3
1639,-1.0,5.0,-15.0,-17.0,-1.0,41.0,-12.0,-17.0,1651023488302046.0,3
1640,-13.0,-34.0,-24.0,-29.0,-13.0,-16.0,-11.0,9.0,1651023488303002.0,3
1641,13.0,29.0,14.0,5.0,-14.0,-28.0,-46.0,-6.0,1651023488303002.0,3
1642,-25.0,-31.0,-8.0,-29.0,-59.0,-6.0,49.0,-5.0,1651023488324114.0,3
1643,6.0,9.0,15.0,40.0,62.0,47.0,3.0,14.0,1651023488324114.0,3
1644,-5.0,-8.0,-14.0,-30.0,-18.0,-37.0,-10.0,-4.0,1651023488326109.0,3
1645,0.0,-19.0,-3.0,25.0,33.0,101.0,46.0,16.0,1651023488326109.0,3
1646,12.0,40.0,2.0,-23.0,-5.0,-34.0,-30.0,-6.0,1651023488339073.0,3
1647,20.0,-32.0,-18.0,-47.0,-50.0,-18.0,23.0,15.0,1651023488339073.0,3
1648,-20.0,-2.0,25.0,20.0,-13.0,-31.0,-35.0,-27.0,1651023488346056.0,3
1649,-10.0,7.0,-18.0,-62.0,-2.0,-32.0,62.0,28.0,1651023488346056.0,3
1650,8.0,-19.0,26.0,69.0,37.0,-1.0,-45.0,-12.0,1651023488362081.0,3
1651,-21.0,-12.0,-24.0,-12.0,-3.0,24.0,1.0,-3.0,1651023488362081.0,3
1652,-36.0,2.0,-25.0,-47.0,-9.0,-19.0,54.0,8.0,1651023488363037.0,3
1653,66.0,12.0,33.0,42.0,-15.0,4.0,-13.0,11.0,1651023488363037.0,3
1654,-31.0,-14.0,-29.0,-82.0,-23.0,-35.0,-31.0,-13.0,1651023488383954.0,3
1655,23.0,-10.0,21.0,68.0,36.0,13.0,-16.0,-1.0,1651023488383954.0,3
1656,-16.0,16.0,10.0,7.0,-5.0,-37.0,13.0,-4.0,1651023488385949.0,3
1657,-45.0,5.0,5.0,7.0,13.0,90.0,49.0,-9.0,1651023488385949.0,3
1658,67.0,0.0,-6.0,-26.0,-1.0,25.0,54.0,43.0,1651023488398941.0,3
1659,-20.0,-6.0,32.0,78.0,12.0,-8.0,-94.0,-41.0,1651023488398941.0,3
1660,4.0,-5.0,-22.0,-28.0,-1.0,-41.0,17.0,10.0,1651023488405895.0,3
1661,-26.0,10.0,10.0,7.0,4.0,25.0,-59.0,-21.0,1651023488405895.0,3
1662,23.0,2.0,8.0,39.0,12.0,-14.0,27.0,8.0,1651023488421967.0,3
1663,-22.0,8.0,15.0,-26.0,-17.0,5.0,16.0,-9.0,1651023488421967.0,3
1664,7.0,-28.0,-46.0,3.0,2.0,3.0,-24.0,-4.0,1651023488422964.0,3
1665,4.0,-24.0,0.0,1.0,-2.0,-41.0,5.0,-5.0,1651023488422964.0,3
1666,-10.0,24.0,17.0,11.0,4.0,27.0,7.0,4.0,1651023488451950.0,3
1667,-7.0,20.0,-5.0,-9.0,-7.0,-11.0,-4.0,6.0,1651023488451950.0,3
1668,44.0,38.0,11.0,-35.0,-17.0,11.0,-2.0,9.0,1651023488452885.0,3
1669,-5.0,-47.0,-13.0,13.0,25.0,-38.0,-12.0,-13.0,1651023488452885.0,3
1670,-2.0,26.0,20.0,38.0,26.0,40.0,26.0,20.0,1651023488458869.0,3
1671,40.0,-11.0,14.0,8.0,22.0,22.0,-2.0,10.0,1651023488458869.0,3
1672,-22.0,0.0,-6.0,-11.0,-26.0,-18.0,-46.0,-27.0,1651023488465850.0,3
1673,-39.0,5.0,-18.0,-29.0,-41.0,-38.0,15.0,-2.0,1651023488465850.0,3
1674,8.0,-10.0,-3.0,-20.0,7.0,-46.0,-69.0,-8.0,1651023488481877.0,3
1675,0.0,25.0,11.0,15.0,1.0,15.0,36.0,-1.0,1651023488481877.0,3
1676,36.0,-9.0,-24.0,-39.0,2.0,52.0,73.0,25.0,1651023488483803.0,3
1677,-6.0,-5.0,23.0,54.0,20.0,-54.0,-71.0,-32.0,1651023488483803.0,3
1678,-8.0,-5.0,-14.0,-38.0,-14.0,23.0,6.0,-7.0,1651023488504819.0,3
1679,-44.0,-4.0,-35.0,-47.0,-29.0,-38.0,49.0,19.0,1651023488504819.0,3
1680,65.0,-9.0,-4.0,-24.0,-16.0,-10.0,-20.0,2.0,1651023488505743.0,3
1681,5.0,44.0,48.0,64.0,33.0,1.0,11.0,9.0,1651023488505743.0,3
1682,7.0,-20.0,-30.0,25.0,18.0,12.0,2.0,0.0,1651023488518729.0,3
1683,-7.0,-20.0,-20.0,-36.0,0.0,9.0,5.0,-1.0,1651023488518729.0,3
1684,-48.0,26.0,37.0,21.0,6.0,-14.0,9.0,2.0,1651023488525758.0,3
1685,-43.0,-25.0,-49.0,-44.0,-27.0,-38.0,-19.0,-23.0,1651023488525758.0,3
1686,75.0,27.0,36.0,1.0,7.0,76.0,23.0,22.0,1651023488541714.0,3
1687,-11.0,-8.0,-13.0,-10.0,-6.0,53.0,7.0,-11.0,1651023488541714.0,3
1688,-30.0,2.0,6.0,27.0,12.0,-65.0,1.0,4.0,1651023488543669.0,3
1689,-3.0,9.0,9.0,-8.0,0.0,26.0,5.0,15.0,1651023488543669.0,3
1690,-15.0,-5.0,-3.0,6.0,8.0,41.0,16.0,7.0,1651023488563775.0,3
1691,-41.0,-23.0,-9.0,-6.0,-6.0,-10.0,42.0,-17.0,1651023488563775.0,3
1692,40.0,-2.0,-6.0,0.0,0.0,3.0,-36.0,-2.0,1651023488570719.0,3
1693,25.0,20.0,-17.0,-42.0,-16.0,-83.0,-64.0,-3.0,1651023488570719.0,3
1694,-36.0,-16.0,18.0,-14.0,-28.0,-36.0,23.0,-2.0,1651023488578860.0,3
1695,9.0,39.0,48.0,101.0,55.0,31.0,16.0,4.0,1651023488578860.0,3
1696,-20.0,-32.0,-20.0,-41.0,-8.0,-17.0,-18.0,-10.0,1651023488585845.0,3
1697,-4.0,-21.0,-47.0,20.0,6.0,31.0,56.0,12.0,1651023488585845.0,3
1698,-49.0,-6.0,-23.0,-59.0,-16.0,-5.0,-55.0,-43.0,1651023488601870.0,3
1699,39.0,23.0,29.0,15.0,-6.0,-27.0,-13.0,16.0,1651023488601870.0,3
1700,8.0,8.0,19.0,17.0,14.0,10.0,0.0,-5.0,1651023488603856.0,3
1701,-4.0,13.0,-2.0,-65.0,-9.0,30.0,7.0,-7.0,1651023488603856.0,3
1702,29.0,-27.0,13.0,76.0,22.0,-7.0,3.0,11.0,1651023488624002.0,3
1703,10.0,-5.0,-15.0,-23.0,-27.0,-89.0,-55.0,-6.0,1651023488624002.0,3
1704,-9.0,22.0,22.0,7.0,7.0,108.0,88.0,20.0,1651023488625994.0,3
1705,18.0,18.0,28.0,16.0,9.0,-22.0,-33.0,-3.0,1651023488625994.0,3
1706,-50.0,5.0,-25.0,-33.0,-4.0,30.0,12.0,-26.0,1651023488639022.0,3
1707,67.0,-5.0,17.0,-4.0,10.0,20.0,7.0,34.0,1651023488639022.0,3
1708,-9.0,-19.0,-5.0,9.0,0.0,-4.0,-9.0,-18.0,1651023488645986.0,3
1709,-1.0,-5.0,-12.0,-11.0,-12.0,-41.0,0.0,-1.0,1651023488645986.0,3
1710,24.0,18.0,8.0,-10.0,-6.0,-19.0,44.0,16.0,1651023488661959.0,3
1711,-14.0,2.0,29.0,71.0,2.0,-6.0,-24.0,-10.0,1651023488661959.0,3
1712,3.0,-6.0,3.0,4.0,11.0,6.0,-29.0,-2.0,1651023488663904.0,3
1713,-50.0,-23.0,-35.0,-10.0,-1.0,27.0,20.0,7.0,1651023488663904.0,3
1714,77.0,34.0,36.0,38.0,10.0,-19.0,3.0,14.0,1651023488684837.0,3
1715,40.0,12.0,-8.0,-51.0,-17.0,21.0,23.0,18.0,1651023488684837.0,3
1716,-53.0,-16.0,-16.0,14.0,2.0,-58.0,-14.0,-13.0,1651023488685834.0,3
1717,80.0,40.0,11.0,-9.0,-1.0,16.0,51.0,32.0,1651023488685834.0,3
1718,-79.0,-63.0,-23.0,-5.0,-12.0,-18.0,-84.0,-59.0,1651023488698858.0,3
1719,-5.0,-37.0,-38.0,-38.0,-9.0,-4.0,6.0,-9.0,1651023488698858.0,3
1720,-24.0,2.0,12.0,8.0,-4.0,-4.0,36.0,1.0,1651023488705804.0,3
1721,-9.0,-9.0,3.0,5.0,-8.0,48.0,-17.0,-11.0,1651023488705804.0,3
1722,38.0,30.0,4.0,-7.0,13.0,-48.0,-29.0,12.0,1651023488721737.0,3
1723,-44.0,-14.0,-20.0,-23.0,-13.0,-23.0,-1.0,-21.0,1651023488721737.0,3
1724,-6.0,4.0,-21.0,-39.0,-20.0,17.0,2.0,-2.0,1651023488723732.0,3
1725,10.0,-16.0,19.0,2.0,14.0,7.0,38.0,16.0,1651023488723732.0,3
1726,-4.0,0.0,-16.0,-25.0,-16.0,-20.0,-22.0,-7.0,1651023488744836.0,3
1727,-7.0,0.0,32.0,30.0,13.0,4.0,-14.0,0.0,1651023488744836.0,3
1728,-9.0,14.0,-18.0,-5.0,4.0,-13.0,-4.0,-3.0,1651023488745836.0,3
1729,73.0,-4.0,13.0,22.0,0.0,-13.0,9.0,22.0,1651023488745836.0,3
1730,-43.0,-7.0,-45.0,-15.0,-17.0,-41.0,18.0,3.0,1651023488757872.0,3
1731,20.0,-9.0,-20.0,-42.0,2.0,70.0,1.0,5.0,1651023488757872.0,3
1732,13.0,-1.0,11.0,-1.0,-14.0,-69.0,-25.0,-1.0,1651023488766897.0,3
1733,-17.0,-9.0,25.0,33.0,24.0,45.0,9.0,-16.0,1651023488766897.0,3
1734,14.0,19.0,19.0,15.0,25.0,66.0,25.0,29.0,1651023488782012.0,3
1735,-2.0,20.0,11.0,3.0,-6.0,-23.0,40.0,1.0,1651023488782012.0,3
1736,-14.0,-7.0,-10.0,13.0,9.0,64.0,-47.0,-3.0,1651023488782939.0,3
1737,15.0,-15.0,-22.0,-6.0,8.0,16.0,-38.0,-4.0,1651023488782939.0,3
1738,-9.0,9.0,14.0,3.0,-5.0,-12.0,31.0,6.0,1651023488803993.0,3
1739,-10.0,-1.0,-16.0,-3.0,2.0,-5.0,8.0,7.0,1651023488803993.0,3
1740,26.0,6.0,18.0,7.0,5.0,1.0,-3.0,4.0,1651023488805920.0,3
1741,-13.0,11.0,32.0,-3.0,-20.0,-71.0,-12.0,-6.0,1651023488805920.0,3
1742,-9.0,3.0,-15.0,-1.0,-8.0,-4.0,-7.0,-9.0,1651023488817870.0,3
1743,9.0,15.0,18.0,-1.0,17.0,21.0,5.0,5.0,1651023488817870.0,3
1744,6.0,0.0,10.0,19.0,14.0,-15.0,-6.0,0.0,1651023488827028.0,3
1745,-22.0,-11.0,-29.0,-5.0,-8.0,-7.0,-10.0,-9.0,1651023488827028.0,3
1746,1.0,0.0,28.0,4.0,-1.0,13.0,18.0,2.0,1651023488849850.0,3
1747,7.0,3.0,5.0,-3.0,-7.0,-37.0,-38.0,0.0,1651023488849850.0,3
1748,4.0,1.0,-13.0,-10.0,6.0,40.0,28.0,2.0,1651023488850847.0,3
1749,-10.0,-9.0,-12.0,2.0,0.0,-33.0,-5.0,-2.0,1651023488850847.0,3
1750,1.0,-3.0,8.0,-9.0,-8.0,17.0,-1.0,-7.0,1651023488864198.0,3
1751,-9.0,-7.0,-24.0,-3.0,-5.0,-33.0,-9.0,0.0,1651023488864198.0,3
1752,-8.0,10.0,12.0,-1.0,0.0,42.0,0.0,-1.0,1651023488866154.0,3
1753,-9.0,1.0,14.0,-7.0,-3.0,5.0,-4.0,-10.0,1651023488866154.0,3
1754,9.0,-8.0,-16.0,15.0,7.0,-40.0,-16.0,3.0,1651023488878160.0,3
1755,-11.0,-2.0,6.0,14.0,-5.0,-19.0,-7.0,-7.0,1651023488878160.0,3
1756,13.0,22.0,19.0,13.0,8.0,-27.0,-4.0,2.0,1651023488887068.0,3
1757,-28.0,-4.0,-25.0,-26.0,-19.0,-8.0,-12.0,-15.0,1651023488887068.0,3
1758,-4.0,-7.0,3.0,-18.0,-9.0,20.0,3.0,-9.0,1651023488901649.0,3
1759,14.0,-1.0,-13.0,1.0,7.0,7.0,10.0,12.0,1651023488901649.0,3
1760,4.0,-20.0,-10.0,2.0,5.0,14.0,-2.0,-2.0,1651023488903633.0,3
1761,0.0,15.0,29.0,11.0,3.0,-54.0,-23.0,0.0,1651023488903633.0,3
1762,-12.0,-9.0,-14.0,-19.0,-8.0,22.0,23.0,-2.0,1651023488924720.0,3
1763,3.0,-8.0,-7.0,8.0,10.0,5.0,0.0,10.0,1651023488924720.0,3
1764,-9.0,-7.0,-5.0,-13.0,-8.0,15.0,-15.0,-14.0,1651023488925707.0,3
1765,5.0,6.0,9.0,2.0,-7.0,-23.0,-3.0,-6.0,1651023488925707.0,3
1766,-2.0,-3.0,-9.0,3.0,6.0,17.0,9.0,6.0,1651023488937666.0,3
1767,2.0,3.0,10.0,-5.0,-4.0,36.0,4.0,-1.0,1651023488937666.0,3
1768,-3.0,4.0,3.0,11.0,-2.0,-24.0,8.0,9.0,1651023488946899.0,3
1769,-1.0,-10.0,-18.0,1.0,3.0,9.0,2.0,1.0,1651023488946899.0,3
1770,1.0,-5.0,0.0,-8.0,-7.0,-40.0,-18.0,-4.0,1651023488962075.0,3
1771,-8.0,8.0,2.0,-5.0,-13.0,-6.0,0.0,-6.0,1651023488962075.0,3
1772,0.0,-4.0,-4.0,-8.0,6.0,7.0,0.0,-2.0,1651023488963031.0,3
1773,10.0,8.0,20.0,8.0,0.0,15.0,11.0,8.0,1651023488963031.0,3
1774,5.0,9.0,-7.0,13.0,14.0,-8.0,-3.0,3.0,1651023488984811.0,3
1775,-1.0,-2.0,3.0,2.0,10.0,27.0,11.0,4.0,1651023488984811.0,3
1776,-9.0,-15.0,35.0,10.0,-15.0,-15.0,-2.0,-4.0,1651023488985812.0,3
1777,4.0,3.0,-43.0,-6.0,10.0,7.0,-1.0,4.0,1651023488985812.0,3
1778,-1.0,-2.0,-23.0,-25.0,-4.0,3.0,-1.0,-2.0,1651023488997842.0,3
1779,-8.0,17.0,62.0,2.0,-6.0,-9.0,-7.0,-12.0,1651023488997842.0,3
1780,10.0,5.0,2.0,3.0,8.0,-7.0,-3.0,9.0,1651023489006872.0,3
1781,-1.0,-17.0,3.0,6.0,-10.0,8.0,12.0,4.0,1651023489006872.0,3
1782,3.0,2.0,37.0,22.0,10.0,17.0,-5.0,0.0,1651023489022012.0,3
1783,-1.0,-8.0,-45.0,2.0,7.0,5.0,3.0,2.0,1651023489022012.0,3
1784,-3.0,-3.0,-47.0,-50.0,-35.0,-18.0,0.0,-8.0,1651023489022966.0,3
1785,-1.0,2.0,-4.0,0.0,7.0,-21.0,-4.0,2.0,1651023489022966.0,3
1786,0.0,3.0,-9.0,-1.0,16.0,38.0,7.0,-4.0,1651023489044261.0,3
1787,7.0,10.0,29.0,7.0,-12.0,-9.0,-4.0,2.0,1651023489044261.0,3
1788,-13.0,-21.0,8.0,27.0,14.0,4.0,1.0,-8.0,1651023489046188.0,3
1789,2.0,7.0,-12.0,-16.0,-7.0,7.0,-1.0,-1.0,1651023489046188.0,3
1790,-3.0,-2.0,18.0,-9.0,-20.0,-29.0,-5.0,-3.0,1651023489057678.0,3
1791,1.0,5.0,-4.0,5.0,16.0,5.0,0.0,1.0,1651023489057678.0,3
1792,7.0,9.0,6.0,9.0,-3.0,4.0,3.0,4.0,1651023489066908.0,3
1793,2.0,-7.0,0.0,9.0,3.0,6.0,3.0,0.0,1651023489066908.0,3
1794,-4.0,-9.0,-6.0,-10.0,-11.0,-12.0,-3.0,1.0,1651023489082344.0,3
1795,-4.0,-17.0,-15.0,-3.0,3.0,1.0,-4.0,-1.0,1651023489082344.0,3
1796,5.0,39.0,21.0,4.0,-7.0,-5.0,-2.0,0.0,1651023489083344.0,3
1797,-1.0,-8.0,-22.0,-15.0,-29.0,3.0,-1.0,9.0,1651023489083344.0,3
1798,-8.0,15.0,-8.0,2.0,31.0,6.0,8.0,-19.0,1651023489104745.0,3
1799,1.0,-46.0,-38.0,-8.0,-6.0,-5.0,-17.0,-4.0,1651023489104745.0,3
1800,2.0,7.0,1.0,-4.0,1.0,-4.0,0.0,0.0,1651023489105868.0,3
1801,-1.0,2.0,23.0,11.0,7.0,14.0,4.0,-4.0,1651023489105868.0,3
1802,3.0,15.0,14.0,5.0,-14.0,-10.0,-3.0,8.0,1651023489126878.0,3
1803,-8.0,-3.0,-22.0,-13.0,-19.0,-17.0,-3.0,-21.0,1651023489126878.0,3
1804,-6.0,-30.0,-17.0,-3.0,12.0,8.0,4.0,7.0,1651023489128832.0,3
1805,-2.0,9.0,8.0,-4.0,12.0,7.0,1.0,0.0,1651023489128832.0,3
1806,1.0,-2.0,2.0,6.0,4.0,-5.0,2.0,4.0,1651023489142334.0,3
1807,5.0,7.0,14.0,15.0,21.0,7.0,-2.0,-1.0,1651023489142334.0,3
1808,4.0,-2.0,0.0,-3.0,-22.0,-1.0,1.0,9.0,1651023489143335.0,3
1809,-3.0,-1.0,0.0,4.0,8.0,4.0,-2.0,-3.0,1651023489143335.0,3
1810,0.0,-8.0,-2.0,-12.0,-14.0,-8.0,-3.0,3.0,1651023489164231.0,3
1811,1.0,11.0,4.0,-9.0,-10.0,-1.0,2.0,7.0,1651023489164231.0,3
1812,1.0,1.0,1.0,18.0,19.0,5.0,0.0,-8.0,1651023489166187.0,3
1813,1.0,-1.0,-1.0,1.0,11.0,2.0,-1.0,4.0,1651023489166187.0,3
1814,-2.0,-1.0,-1.0,1.0,-8.0,-4.0,-2.0,2.0,1651023489187260.0,3
1815,-2.0,3.0,-2.0,-4.0,-7.0,-4.0,5.0,23.0,1651023489187260.0,3
1816,-6.0,-4.0,-8.0,-15.0,-9.0,-4.0,-3.0,-25.0,1651023489188898.0,3
1817,-3.0,-4.0,4.0,3.0,5.0,3.0,0.0,-6.0,1651023489188898.0,3
1818,3.0,-6.0,-4.0,0.0,0.0,-1.0,-2.0,2.0,1651023489202860.0,3
1819,-4.0,2.0,2.0,-3.0,-4.0,-1.0,2.0,-3.0,1651023489202860.0,3
1820,1.0,4.0,5.0,10.0,16.0,4.0,2.0,5.0,1651023489207847.0,3
1821,1.0,0.0,5.0,-2.0,-4.0,3.0,2.0,-2.0,1651023489207847.0,3
1822,-3.0,3.0,2.0,-2.0,-8.0,-3.0,-1.0,-5.0,1651023489224742.0,3
1823,-4.0,-19.0,-34.0,-13.0,-2.0,-3.0,0.0,-4.0,1651023489224742.0,3
1824,5.0,14.0,7.0,3.0,4.0,2.0,-1.0,3.0,1651023489225864.0,3
1825,3.0,2.0,8.0,4.0,-3.0,2.0,-1.0,-3.0,1651023489225864.0,3
1826,-6.0,-18.0,-2.0,2.0,-3.0,-2.0,-2.0,6.0,1651023489247292.0,3
1827,5.0,19.0,12.0,-3.0,1.0,1.0,2.0,-3.0,1651023489247292.0,3
1828,-9.0,-30.0,-25.0,-13.0,-10.0,-7.0,-2.0,2.0,1651023489248869.0,3
1829,-1.0,3.0,5.0,12.0,14.0,6.0,1.0,-6.0,1651023489248869.0,3
1830,5.0,2.0,2.0,-1.0,0.0,0.0,-1.0,0.0,1651023489261902.0,3
1831,-3.0,2.0,2.0,6.0,8.0,0.0,-2.0,-4.0,1651023489261902.0,3
1832,2.0,-19.0,-3.0,-2.0,-3.0,1.0,1.0,3.0,1651023489263856.0,3
1833,-10.0,12.0,-5.0,-13.0,-33.0,-5.0,-2.0,-2.0,1651023489263856.0,3
1834,5.0,6.0,-8.0,6.0,33.0,3.0,-1.0,-2.0,1651023489284744.0,3
1835,-7.0,-47.0,-5.0,-1.0,1.0,3.0,-1.0,5.0,1651023489284744.0,3
1836,0.0,27.0,6.0,-7.0,-4.0,-2.0,-3.0,-2.0,1651023489285862.0,3
1837,3.0,-6.0,-2.0,6.0,0.0,1.0,1.0,2.0,1651023489285862.0,3
1838,3.0,0.0,2.0,-2.0,-14.0,-3.0,0.0,0.0,1651023489306806.0,3
1839,-12.0,-6.0,-6.0,3.0,7.0,-1.0,-1.0,-3.0,1651023489306806.0,3
1840,11.0,21.0,4.0,-2.0,1.0,-1.0,0.0,1.0,1651023489308799.0,3
1841,0.0,-17.0,-3.0,-4.0,-4.0,-1.0,-1.0,0.0,1651023489308799.0,3
1842,-3.0,9.0,-7.0,-5.0,-7.0,-3.0,-1.0,2.0,1651023489320832.0,3
1843,-2.0,-1.0,2.0,-3.0,0.0,-1.0,-2.0,-4.0,1651023489320832.0,3
1844,-7.0,-19.0,-2.0,-1.0,-5.0,-2.0,-1.0,-3.0,1651023489327817.0,3
1845,2.0,11.0,0.0,2.0,10.0,4.0,1.0,-1.0,1651023489327817.0,3
1846,7.0,7.0,2.0,5.0,5.0,1.0,1.0,4.0,1651023489344791.0,3
1847,3.0,-4.0,9.0,-2.0,-11.0,-3.0,1.0,-2.0,1651023489344791.0,3
1848,-2.0,-4.0,-12.0,-3.0,6.0,-2.0,-2.0,0.0,1651023489345829.0,3
1849,1.0,0.0,-6.0,-18.0,-56.0,-13.0,-3.0,1.0,1651023489345829.0,3
1850,-6.0,-12.0,-2.0,-4.0,38.0,7.0,1.0,-1.0,1651023489367276.0,3
1851,4.0,14.0,9.0,21.0,45.0,13.0,2.0,2.0,1651023489367276.0,3
1852,1.0,22.0,9.0,11.0,-6.0,-3.0,1.0,2.0,1651023489368807.0,3
1853,-4.0,-27.0,-5.0,0.0,8.0,0.0,-1.0,-1.0,1651023489368807.0,3
1854,10.0,19.0,2.0,-9.0,-40.0,-10.0,-2.0,1.0,1651023489381422.0,3
1855,-12.0,-22.0,-8.0,-17.0,-21.0,-9.0,-5.0,-7.0,1651023489381422.0,3
1856,5.0,12.0,3.0,3.0,17.0,4.0,1.0,3.0,1651023489388370.0,3
1857,1.0,10.0,2.0,0.0,1.0,1.0,0.0,0.0,1651023489388370.0,3
