EMG_s0,EMG_s1,EMG_s2,EMG_s3,EMG_s4,EMG_s5,EMG_s6,EMG_s7,timestamp
0.0,-5.0,-3.0,-2.0,-3.0,-3.0,-1.0,-2.0,1651025641113348.0
1.0,-3.0,-4.0,-4.0,-4.0,-2.0,0.0,-1.0,1651025641113348.0
-1.0,0.0,-1.0,-1.0,0.0,-1.0,-1.0,-2.0,1651025641117340.0
3.0,13.0,6.0,5.0,1.0,2.0,1.0,-1.0,1651025641117340.0
-4.0,-13.0,-5.0,-2.0,-4.0,0.0,-1.0,0.0,1651025641118337.0
1.0,4.0,-1.0,-3.0,-5.0,-1.0,1.0,2.0,1651025641118337.0
-1.0,0.0,-1.0,2.0,15.0,3.0,1.0,2.0,1651025641120332.0
-2.0,-5.0,-1.0,-2.0,-16.0,-6.0,0.0,0.0,1651025641120332.0
0.0,3.0,0.0,-2.0,8.0,6.0,-1.0,1.0,1651025641125319.0
0.0,0.0,1.0,0.0,0.0,-2.0,0.0,-2.0,1651025641125319.0
1.0,2.0,2.0,-2.0,-3.0,-2.0,-2.0,-1.0,1651025641139281.0
3.0,7.0,1.0,1.0,5.0,2.0,-2.0,1.0,1651025641139281.0
-4.0,-8.0,-5.0,-6.0,-9.0,-4.0,-1.0,-1.0,1651025641147260.0
-2.0,-3.0,-2.0,-5.0,-9.0,-3.0,-2.0,-2.0,1651025641147260.0
-2.0,4.0,1.0,6.0,9.0,5.0,0.0,-2.0,1651025641154242.0
0.0,-3.0,-2.0,2.0,20.0,7.0,1.0,0.0,1651025641154242.0
4.0,7.0,2.0,-1.0,-10.0,-6.0,0.0,2.0,1651025641162219.0
-1.0,-2.0,1.0,3.0,6.0,3.0,-1.0,0.0,1651025641162219.0
0.0,-5.0,-3.0,-3.0,-11.0,-6.0,-2.0,0.0,1651025641192858.0
-2.0,-9.0,-6.0,-10.0,-23.0,-8.0,-4.0,1.0,1651025641192858.0
-1.0,2.0,0.0,-1.0,19.0,5.0,0.0,-2.0,1651025641192858.0
1.0,0.0,5.0,9.0,12.0,0.0,0.0,-1.0,1651025641192858.0
1.0,3.0,3.0,4.0,-4.0,2.0,0.0,0.0,1651025641198843.0
-2.0,-9.0,-4.0,-2.0,-8.0,-7.0,0.0,-1.0,1651025641198843.0
2.0,3.0,0.0,-2.0,-2.0,1.0,-2.0,0.0,1651025641214819.0
-2.0,2.0,-2.0,-3.0,-2.0,-3.0,-1.0,0.0,1651025641214819.0
-1.0,1.0,0.0,-2.0,-4.0,-2.0,-2.0,0.0,1651025641247952.0
-2.0,-4.0,0.0,-1.0,-5.0,-2.0,0.0,0.0,1651025641247952.0
-1.0,3.0,2.0,3.0,7.0,4.0,1.0,-1.0,1651025641247952.0
0.0,2.0,1.0,3.0,3.0,2.0,2.0,-1.0,1651025641247952.0
1.0,6.0,0.0,-1.0,1.0,0.0,0.0,1.0,1651025641250949.0
-3.0,-10.0,-4.0,0.0,-2.0,-2.0,-2.0,-2.0,1651025641250949.0
-1.0,-6.0,-4.0,-4.0,0.0,-1.0,0.0,0.0,1651025641251929.0
0.0,2.0,0.0,-4.0,5.0,4.0,0.0,-1.0,1651025641251929.0
-1.0,1.0,2.0,2.0,-5.0,-3.0,0.0,1.0,1651025641257914.0
0.0,1.0,1.0,-1.0,18.0,2.0,1.0,-1.0,1651025641257914.0
3.0,5.0,0.0,-1.0,-10.0,-3.0,-1.0,-1.0,1651025641266889.0
-1.0,-5.0,-3.0,-3.0,-4.0,-1.0,-3.0,-2.0,1651025641266889.0
-2.0,2.0,2.0,6.0,0.0,2.0,0.0,-1.0,1651025641272900.0
0.0,4.0,1.0,-2.0,-5.0,1.0,-1.0,-1.0,1651025641272900.0
-1.0,-7.0,-1.0,0.0,-5.0,-4.0,0.0,-1.0,1651025641287901.0
-1.0,-1.0,-2.0,-2.0,-4.0,4.0,0.0,-1.0,1651025641287901.0
-1.0,-4.0,-1.0,0.0,9.0,-1.0,-2.0,0.0,1651025641295879.0
0.0,2.0,1.0,2.0,-12.0,-7.0,-1.0,-1.0,1651025641295879.0
-2.0,-2.0,0.0,0.0,11.0,8.0,0.0,-1.0,1651025641319816.0
1.0,3.0,1.0,2.0,4.0,3.0,1.0,1.0,1651025641319816.0
-4.0,-9.0,-3.0,-3.0,-2.0,-2.0,0.0,0.0,1651025641320768.0
0.0,0.0,-1.0,0.0,0.0,-1.0,0.0,-1.0,1651025641320768.0
-1.0,-1.0,-2.0,-3.0,-6.0,-5.0,-3.0,-1.0,1651025641334834.0
-3.0,-4.0,-1.0,-3.0,-16.0,-9.0,-2.0,-1.0,1651025641334834.0
1.0,4.0,0.0,1.0,31.0,6.0,-1.0,-3.0,1651025641334834.0
1.0,0.0,1.0,1.0,-8.0,0.0,-1.0,2.0,1651025641334834.0
0.0,4.0,1.0,0.0,3.0,1.0,0.0,1.0,1651025641356006.0
-4.0,-5.0,1.0,3.0,4.0,0.0,-1.0,-2.0,1651025641356006.0
1.0,-1.0,-3.0,-2.0,-13.0,-5.0,2.0,0.0,1651025641357006.0
-3.0,-6.0,-4.0,-7.0,-6.0,-3.0,-2.0,-2.0,1651025641357006.0
0.0,-1.0,-4.0,0.0,11.0,3.0,0.0,0.0,1651025641380004.0
-2.0,0.0,3.0,4.0,2.0,0.0,0.0,-2.0,1651025641380004.0
2.0,8.0,0.0,-4.0,-9.0,-3.0,-2.0,-2.0,1651025641380004.0
-3.0,-17.0,-6.0,-1.0,1.0,2.0,1.0,0.0,1651025641380004.0
-1.0,-1.0,0.0,4.0,5.0,0.0,-1.0,1.0,1651025641393583.0
1.0,-1.0,0.0,-2.0,-4.0,-2.0,0.0,0.0,1651025641393583.0
-2.0,-4.0,-3.0,-2.0,-5.0,0.0,-1.0,0.0,1651025641394588.0
-1.0,5.0,0.0,0.0,-1.0,2.0,1.0,0.0,1651025641394588.0
-1.0,-7.0,-1.0,-3.0,-10.0,-4.0,0.0,0.0,1651025641416587.0
-1.0,0.0,-2.0,2.0,21.0,0.0,-2.0,2.0,1651025641416587.0
3.0,12.0,6.0,2.0,-12.0,-2.0,0.0,0.0,1651025641417521.0
1.0,5.0,1.0,-1.0,12.0,4.0,-2.0,0.0,1651025641417521.0
-1.0,-8.0,-2.0,1.0,-5.0,0.0,0.0,-1.0,1651025641439618.0
0.0,3.0,-1.0,-4.0,-9.0,-6.0,0.0,0.0,1651025641439618.0
-2.0,-6.0,-3.0,-5.0,-6.0,-1.0,0.0,1.0,1651025641440603.0
0.0,4.0,0.0,-1.0,0.0,-1.0,1.0,-2.0,1651025641440603.0
-1.0,3.0,2.0,3.0,2.0,-3.0,-1.0,-2.0,1651025641453542.0
1.0,-2.0,0.0,0.0,1.0,4.0,0.0,0.0,1651025641453542.0
-1.0,-5.0,-1.0,2.0,6.0,2.0,0.0,0.0,1651025641454538.0
0.0,-1.0,0.0,1.0,-3.0,2.0,0.0,1.0,1651025641454538.0
2.0,1.0,-1.0,-5.0,-8.0,-3.0,0.0,0.0,1651025641476542.0
-2.0,4.0,-3.0,-3.0,8.0,-3.0,-1.0,-3.0,1651025641476542.0
1.0,-1.0,-1.0,-1.0,-4.0,1.0,0.0,-1.0,1651025641477501.0
-2.0,0.0,0.0,0.0,-1.0,-2.0,-1.0,0.0,1651025641477501.0
-2.0,3.0,2.0,2.0,-5.0,1.0,-1.0,-2.0,1651025641499487.0
-1.0,1.0,1.0,1.0,-7.0,-4.0,0.0,0.0,1651025641499487.0
-1.0,-6.0,-3.0,3.0,14.0,3.0,0.0,0.0,1651025641500456.0
2.0,4.0,1.0,2.0,-2.0,1.0,1.0,1.0,1651025641500456.0
1.0,2.0,0.0,-2.0,2.0,1.0,-1.0,-2.0,1651025641514379.0
2.0,5.0,3.0,-4.0,-9.0,1.0,0.0,0.0,1651025641514379.0
-5.0,-8.0,-4.0,-2.0,-10.0,-7.0,0.0,-2.0,1651025641514379.0
-1.0,-2.0,1.0,4.0,12.0,5.0,-1.0,-2.0,1651025641514379.0
-2.0,0.0,0.0,3.0,0.0,-1.0,-1.0,0.0,1651025641536334.0
3.0,-1.0,-3.0,-3.0,-7.0,-3.0,0.0,0.0,1651025641536334.0
1.0,2.0,0.0,-4.0,3.0,-1.0,-3.0,0.0,1651025641537326.0
-2.0,-2.0,0.0,-1.0,-4.0,-3.0,-1.0,-1.0,1651025641537326.0
-1.0,5.0,0.0,-1.0,1.0,-1.0,1.0,0.0,1651025641559292.0
-2.0,-3.0,-1.0,-1.0,-9.0,-5.0,-1.0,-1.0,1651025641559292.0
-1.0,-6.0,-3.0,-4.0,8.0,5.0,-1.0,0.0,1651025641560257.0
-1.0,2.0,0.0,0.0,-15.0,-7.0,-2.0,-1.0,1651025641560257.0
-1.0,-2.0,-2.0,-1.0,7.0,5.0,0.0,-1.0,1651025641582266.0
-1.0,0.0,-4.0,1.0,-10.0,-9.0,-2.0,0.0,1651025641582266.0
-4.0,-10.0,0.0,2.0,15.0,8.0,-1.0,-1.0,1651025641583195.0
1.0,2.0,1.0,3.0,6.0,3.0,1.0,2.0,1651025641583195.0
2.0,7.0,1.0,-3.0,-8.0,-4.0,0.0,0.0,1651025641596225.0
-2.0,-6.0,-1.0,-2.0,-1.0,3.0,-1.0,-1.0,1651025641596225.0
-2.0,-3.0,-1.0,-1.0,-9.0,-3.0,-1.0,-2.0,1651025641597158.0
0.0,1.0,-3.0,-5.0,0.0,-1.0,0.0,-1.0,1651025641597158.0
-1.0,-4.0,-3.0,-2.0,-11.0,-9.0,-2.0,0.0,1651025641619099.0
-2.0,-4.0,-2.0,0.0,9.0,6.0,0.0,-2.0,1651025641619099.0
0.0,7.0,2.0,5.0,2.0,-2.0,0.0,-2.0,1651025641620096.0
-1.0,-4.0,0.0,-4.0,-1.0,1.0,-1.0,-1.0,1651025641620096.0
0.0,-1.0,-1.0,-1.0,-2.0,-3.0,-1.0,2.0,1651025641633126.0
2.0,1.0,1.0,2.0,1.0,0.0,-3.0,0.0,1651025641633126.0
0.0,1.0,0.0,2.0,-14.0,-6.0,-1.0,-1.0,1651025641641104.0
0.0,-2.0,-2.0,-4.0,3.0,2.0,0.0,-1.0,1651025641641104.0
-3.0,-1.0,-1.0,-3.0,4.0,2.0,0.0,-2.0,1651025641655999.0
-1.0,-1.0,2.0,2.0,16.0,1.0,0.0,0.0,1651025641655999.0
1.0,-5.0,2.0,4.0,-7.0,0.0,0.0,0.0,1651025641657001.0
3.0,1.0,-2.0,-1.0,-7.0,-5.0,0.0,-2.0,1651025641657001.0
1.0,7.0,1.0,-5.0,-5.0,-2.0,-2.0,-1.0,1651025641679179.0
-2.0,-9.0,-5.0,-8.0,-6.0,0.0,-1.0,-2.0,1651025641679179.0
1.0,7.0,2.0,3.0,9.0,4.0,-1.0,0.0,1651025641679179.0
-1.0,-2.0,5.0,5.0,-1.0,-4.0,0.0,-1.0,1651025641679179.0
0.0,-7.0,-4.0,-1.0,1.0,2.0,-1.0,-1.0,1651025641693585.0
-3.0,1.0,2.0,2.0,-1.0,-1.0,-2.0,0.0,1651025641693585.0
-1.0,-6.0,-5.0,-9.0,-5.0,-2.0,-1.0,0.0,1651025641701567.0
0.0,1.0,-2.0,-3.0,0.0,0.0,-2.0,-1.0,1651025641701567.0
-1.0,0.0,-1.0,-2.0,-7.0,-4.0,-3.0,-1.0,1651025641716593.0
0.0,-1.0,-2.0,-2.0,5.0,3.0,-2.0,0.0,1651025641716593.0
-2.0,2.0,1.0,3.0,5.0,-1.0,-1.0,-2.0,1651025641717531.0
-1.0,1.0,1.0,-2.0,1.0,0.0,2.0,0.0,1651025641717531.0
-2.0,-3.0,0.0,6.0,1.0,-3.0,0.0,-1.0,1651025641739465.0
1.0,2.0,0.0,3.0,-21.0,-8.0,-1.0,0.0,1651025641739465.0
0.0,2.0,-4.0,-1.0,26.0,12.0,-3.0,0.0,1651025641739465.0
-1.0,-1.0,2.0,3.0,-2.0,-2.0,0.0,-1.0,1651025641739465.0
0.0,-2.0,-2.0,-1.0,4.0,-1.0,0.0,0.0,1651025641753440.0
-1.0,1.0,-1.0,0.0,-6.0,-1.0,-1.0,-1.0,1651025641753440.0
1.0,2.0,1.0,-2.0,-12.0,-7.0,0.0,0.0,1651025641761472.0
-2.0,-4.0,-6.0,-7.0,-6.0,-3.0,-2.0,0.0,1651025641761472.0
-2.0,2.0,4.0,3.0,10.0,4.0,-1.0,0.0,1651025641776487.0
-1.0,1.0,2.0,5.0,10.0,3.0,1.0,0.0,1651025641776487.0
1.0,-2.0,1.0,2.0,-8.0,-3.0,1.0,0.0,1651025641777485.0
-2.0,-3.0,-4.0,0.0,5.0,1.0,-1.0,-1.0,1651025641777485.0
-2.0,-12.0,-4.0,-2.0,-7.0,-2.0,0.0,-1.0,1651025641799432.0
1.0,4.0,-1.0,-1.0,3.0,0.0,0.0,-2.0,1651025641799432.0
0.0,0.0,0.0,-4.0,-3.0,-3.0,-2.0,-2.0,1651025641799432.0
0.0,-4.0,0.0,0.0,-12.0,-6.0,-2.0,-1.0,1651025641799432.0
4.0,16.0,1.0,2.0,12.0,6.0,0.0,-1.0,1651025641813712.0
-6.0,-9.0,-1.0,-2.0,2.0,0.0,1.0,-2.0,1651025641813712.0
0.0,-5.0,-2.0,0.0,-4.0,-4.0,1.0,0.0,1651025641821695.0
1.0,3.0,0.0,-3.0,3.0,4.0,0.0,1.0,1651025641821695.0
0.0,1.0,2.0,-1.0,-3.0,-3.0,-1.0,-1.0,1651025641836664.0
-1.0,-2.0,-1.0,2.0,1.0,1.0,0.0,0.0,1651025641836664.0
0.0,5.0,2.0,2.0,-8.0,-3.0,0.0,-1.0,1651025641837658.0
-1.0,-1.0,-2.0,3.0,8.0,-3.0,-2.0,0.0,1651025641837658.0
1.0,2.0,-2.0,-5.0,4.0,5.0,1.0,-1.0,1651025641858787.0
1.0,-1.0,0.0,-2.0,-1.0,-1.0,0.0,-1.0,1651025641858787.0
-2.0,1.0,3.0,1.0,-4.0,0.0,0.0,1.0,1651025641859716.0
0.0,1.0,0.0,2.0,-1.0,-2.0,-1.0,0.0,1651025641859716.0
-1.0,-2.0,2.0,3.0,-1.0,-2.0,-3.0,0.0,1651025641872803.0
-1.0,-2.0,-2.0,-5.0,-4.0,-2.0,-1.0,0.0,1651025641872803.0
-1.0,1.0,-2.0,-4.0,2.0,-2.0,0.0,0.0,1651025641881972.0
2.0,2.0,-1.0,-2.0,1.0,2.0,0.0,-1.0,1651025641881972.0
0.0,-1.0,-1.0,0.0,-4.0,-2.0,-1.0,0.0,1651025641895988.0
0.0,-1.0,0.0,1.0,1.0,0.0,1.0,0.0,1651025641895988.0
1.0,-1.0,-2.0,-4.0,-8.0,0.0,-2.0,0.0,1651025641896966.0
0.0,2.0,1.0,3.0,17.0,1.0,0.0,-1.0,1651025641896966.0
-1.0,-4.0,-3.0,0.0,-5.0,-2.0,0.0,0.0,1651025641919227.0
-1.0,2.0,-1.0,-4.0,-3.0,-2.0,-1.0,-1.0,1651025641919227.0
-2.0,1.0,1.0,-1.0,1.0,0.0,0.0,-1.0,1651025641919227.0
-2.0,-2.0,-1.0,-2.0,-8.0,-1.0,0.0,-2.0,1651025641919227.0
0.0,-3.0,-3.0,-1.0,0.0,1.0,-1.0,0.0,1651025641933377.0
1.0,4.0,2.0,4.0,3.0,2.0,0.0,0.0,1651025641933377.0
1.0,4.0,0.0,-4.0,-7.0,-2.0,0.0,-1.0,1651025641941285.0
-2.0,-11.0,-2.0,2.0,-7.0,-1.0,-1.0,-1.0,1651025641941285.0
1.0,10.0,2.0,0.0,20.0,-1.0,-1.0,1.0,1651025641956272.0
1.0,-2.0,-1.0,-1.0,-24.0,-10.0,0.0,0.0,1651025641956272.0
-1.0,-3.0,-4.0,-2.0,16.0,10.0,0.0,0.0,1651025641957242.0
-1.0,2.0,0.0,1.0,-2.0,1.0,0.0,2.0,1651025641957242.0
-1.0,-5.0,2.0,3.0,-3.0,-1.0,-1.0,-2.0,1651025641978754.0
1.0,2.0,-1.0,-2.0,3.0,-1.0,0.0,1.0,1651025641978754.0
2.0,6.0,1.0,0.0,-5.0,-5.0,-1.0,1.0,1651025641979688.0
-5.0,-15.0,-6.0,-5.0,-1.0,-1.0,-2.0,-1.0,1651025641979688.0
-2.0,-8.0,-3.0,-3.0,-5.0,-2.0,-1.0,-2.0,1651025642000695.0
0.0,6.0,1.0,-1.0,4.0,2.0,-1.0,0.0,1651025642000695.0
-1.0,-1.0,-1.0,-1.0,-1.0,0.0,-2.0,0.0,1651025642008675.0
1.0,0.0,-1.0,-1.0,2.0,2.0,-1.0,-1.0,1651025642008675.0
1.0,5.0,1.0,-2.0,-4.0,-4.0,0.0,-1.0,1651025642016647.0
0.0,7.0,-3.0,-3.0,3.0,1.0,-1.0,0.0,1651025642016647.0
-3.0,-9.0,-3.0,-3.0,-2.0,-1.0,0.0,1.0,1651025642017602.0
1.0,9.0,3.0,-2.0,-8.0,-4.0,-1.0,-2.0,1651025642017602.0
0.0,-4.0,-2.0,-1.0,1.0,0.0,1.0,-1.0,1651025642038605.0
-2.0,0.0,1.0,3.0,20.0,3.0,2.0,0.0,1651025642038605.0
0.0,0.0,3.0,4.0,-1.0,5.0,1.0,-2.0,1651025642039566.0
0.0,1.0,-1.0,-2.0,2.0,-1.0,-1.0,1.0,1651025642039566.0
1.0,3.0,-1.0,-2.0,-8.0,0.0,0.0,1.0,1651025642062529.0
-5.0,-13.0,-2.0,-2.0,-4.0,-3.0,-3.0,-2.0,1651025642062529.0
0.0,-3.0,-3.0,0.0,-4.0,-5.0,-1.0,-3.0,1651025642062529.0
1.0,5.0,1.0,-2.0,7.0,3.0,1.0,0.0,1651025642062529.0
-2.0,-12.0,-4.0,-1.0,4.0,3.0,1.0,-1.0,1651025642076481.0
2.0,1.0,2.0,4.0,-2.0,-2.0,1.0,1.0,1651025642076481.0
-1.0,4.0,1.0,-1.0,0.0,-1.0,-1.0,-1.0,1651025642077493.0
-3.0,-7.0,-1.0,0.0,-5.0,-3.0,0.0,-1.0,1651025642077493.0
0.0,1.0,1.0,-1.0,-3.0,-2.0,-1.0,1.0,1651025642099408.0
0.0,-6.0,-3.0,-1.0,1.0,2.0,-1.0,-2.0,1651025642099408.0
-2.0,-5.0,-4.0,-2.0,-2.0,0.0,0.0,1.0,1651025642099408.0
2.0,8.0,2.0,-1.0,-1.0,1.0,1.0,1.0,1651025642099408.0
-5.0,-6.0,-3.0,-2.0,0.0,0.0,-2.0,-2.0,1651025642121552.0
1.0,-1.0,-2.0,1.0,-3.0,0.0,-1.0,-1.0,1651025642121552.0
0.0,-5.0,-1.0,-8.0,-1.0,-3.0,0.0,0.0,1651025642128591.0
-2.0,5.0,-1.0,-2.0,-2.0,-3.0,-1.0,-3.0,1651025642128591.0
-1.0,-9.0,2.0,6.0,-1.0,1.0,0.0,1.0,1651025642136536.0
0.0,0.0,-1.0,-2.0,-11.0,-3.0,-2.0,0.0,1651025642136536.0
2.0,9.0,1.0,2.0,10.0,-2.0,0.0,-1.0,1651025642137523.0
-2.0,-7.0,1.0,3.0,5.0,2.0,0.0,1.0,1651025642137523.0
0.0,14.0,7.0,-1.0,5.0,0.0,0.0,0.0,1651025642166878.0
-2.0,-9.0,-4.0,-2.0,-6.0,1.0,0.0,0.0,1651025642166878.0
1.0,3.0,-1.0,-5.0,-9.0,-5.0,1.0,-2.0,1651025642167870.0
0.0,-4.0,-2.0,-1.0,2.0,1.0,1.0,-2.0,1651025642167870.0
2.0,7.0,-1.0,0.0,-6.0,-4.0,-1.0,0.0,1651025642181899.0
-3.0,-5.0,-2.0,-1.0,6.0,0.0,-1.0,-3.0,1651025642181899.0
0.0,-4.0,0.0,1.0,-4.0,-1.0,0.0,0.0,1651025642182833.0
0.0,7.0,2.0,3.0,-2.0,-3.0,-1.0,-1.0,1651025642182833.0
-1.0,-6.0,-2.0,1.0,8.0,6.0,1.0,-2.0,1651025642196823.0
2.0,4.0,0.0,-3.0,3.0,3.0,1.0,2.0,1651025642196823.0
-3.0,-12.0,-4.0,2.0,-2.0,-1.0,1.0,0.0,1651025642196823.0
0.0,5.0,1.0,0.0,0.0,-4.0,-1.0,1.0,1651025642196823.0
-2.0,-2.0,-2.0,-4.0,-12.0,-3.0,-1.0,-2.0,1651025642217803.0
0.0,2.0,2.0,2.0,6.0,1.0,-2.0,-1.0,1651025642217803.0
2.0,1.0,0.0,4.0,11.0,2.0,0.0,0.0,1651025642227713.0
0.0,0.0,-2.0,-4.0,-6.0,0.0,0.0,1.0,1651025642227713.0
-2.0,-2.0,-3.0,-4.0,-6.0,-3.0,-2.0,-2.0,1651025642240736.0
-1.0,2.0,3.0,1.0,0.0,1.0,-1.0,-3.0,1651025642240736.0
-3.0,-10.0,-7.0,-2.0,-6.0,-2.0,-1.0,-1.0,1651025642249665.0
-1.0,-1.0,0.0,1.0,0.0,1.0,1.0,-1.0,1651025642249665.0
2.0,-4.0,-4.0,-3.0,10.0,0.0,1.0,0.0,1651025642264613.0
-2.0,4.0,4.0,2.0,-3.0,-2.0,0.0,0.0,1651025642264613.0
-6.0,9.0,-1.0,1.0,1.0,-1.0,-2.0,-3.0,1651025642266608.0
1.0,-1.0,0.0,-1.0,-8.0,-4.0,-1.0,0.0,1651025642266608.0
-2.0,-1.0,-3.0,-5.0,0.0,4.0,-1.0,1.0,1651025642286576.0
1.0,5.0,1.0,2.0,0.0,-3.0,0.0,-1.0,1651025642286576.0
2.0,-2.0,1.0,-2.0,1.0,1.0,0.0,0.0,1651025642288570.0
-3.0,-1.0,-2.0,-1.0,-2.0,-1.0,-1.0,2.0,1651025642288570.0
-1.0,1.0,-1.0,-1.0,-10.0,-7.0,-1.0,0.0,1651025642302533.0
-1.0,-2.0,-3.0,-2.0,11.0,5.0,0.0,0.0,1651025642302533.0
-1.0,-1.0,0.0,0.0,-7.0,1.0,0.0,0.0,1651025642303531.0
-1.0,-1.0,-1.0,-1.0,16.0,0.0,-2.0,0.0,1651025642303531.0
0.0,3.0,7.0,9.0,1.0,1.0,0.0,2.0,1651025642324992.0
0.0,-6.0,-7.0,-3.0,-5.0,-3.0,0.0,-2.0,1651025642324992.0
2.0,5.0,1.0,-3.0,-14.0,-7.0,-1.0,0.0,1651025642325926.0
1.0,3.0,-1.0,-3.0,13.0,10.0,0.0,-2.0,1651025642325926.0
0.0,0.0,-2.0,4.0,2.0,1.0,2.0,1.0,1651025642337894.0
-2.0,-3.0,-1.0,-3.0,-13.0,-2.0,-2.0,-3.0,1651025642337894.0
0.0,6.0,3.0,2.0,14.0,0.0,0.0,-1.0,1651025642346896.0
-3.0,-8.0,-2.0,-1.0,-11.0,-4.0,-4.0,-1.0,1651025642346896.0
3.0,5.0,-3.0,-3.0,-2.0,1.0,-1.0,-2.0,1651025642361897.0
0.0,0.0,0.0,0.0,-2.0,-1.0,-1.0,2.0,1651025642361897.0
-2.0,-2.0,-1.0,-3.0,-2.0,-1.0,-1.0,-1.0,1651025642363824.0
1.0,2.0,2.0,-1.0,-15.0,-6.0,0.0,0.0,1651025642363824.0
-3.0,-5.0,-1.0,0.0,12.0,6.0,-1.0,-1.0,1651025642384875.0
-2.0,2.0,3.0,4.0,1.0,2.0,1.0,-2.0,1651025642384875.0
-1.0,-2.0,-3.0,0.0,-2.0,-2.0,-1.0,0.0,1651025642385876.0
2.0,1.0,-1.0,-1.0,1.0,-1.0,-1.0,1.0,1651025642385876.0
2.0,-2.0,-4.0,-5.0,-16.0,-6.0,-1.0,1.0,1651025642397911.0
-2.0,8.0,-1.0,1.0,9.0,-2.0,-2.0,-2.0,1651025642397911.0
-3.0,-15.0,-2.0,4.0,11.0,2.0,-1.0,-1.0,1651025642406873.0
-2.0,-3.0,-1.0,-2.0,-6.0,0.0,0.0,-1.0,1651025642406873.0
-3.0,-6.0,0.0,2.0,-5.0,-4.0,0.0,-1.0,1651025642421958.0
1.0,7.0,-3.0,-9.0,3.0,4.0,0.0,1.0,1651025642421958.0
2.0,0.0,-2.0,-6.0,-1.0,0.0,-1.0,-1.0,1651025642423920.0
0.0,2.0,2.0,6.0,3.0,-2.0,-1.0,0.0,1651025642423920.0
-2.0,-5.0,0.0,6.0,2.0,1.0,-1.0,-2.0,1651025642445039.0
-2.0,-13.0,-5.0,0.0,-4.0,-2.0,1.0,1.0,1651025642445039.0
-1.0,2.0,0.0,-3.0,-6.0,-1.0,-1.0,-1.0,1651025642446030.0
3.0,2.0,-2.0,-3.0,2.0,1.0,-1.0,0.0,1651025642446030.0
-6.0,-1.0,2.0,-1.0,3.0,0.0,-1.0,-1.0,1651025642457998.0
-1.0,-5.0,-2.0,2.0,-2.0,-2.0,0.0,-1.0,1651025642457998.0
0.0,4.0,0.0,-3.0,-8.0,-1.0,-2.0,-1.0,1651025642467109.0
-2.0,-1.0,-3.0,1.0,3.0,-1.0,-1.0,-1.0,1651025642467109.0
0.0,2.0,0.0,-2.0,4.0,-1.0,1.0,0.0,1651025642482115.0
3.0,-1.0,0.0,0.0,-1.0,1.0,-2.0,0.0,1651025642482115.0
-1.0,0.0,1.0,1.0,-4.0,-1.0,-1.0,0.0,1651025642484073.0
-2.0,-1.0,0.0,2.0,4.0,4.0,-1.0,0.0,1651025642484073.0
1.0,-3.0,-1.0,1.0,17.0,2.0,1.0,2.0,1651025642505071.0
1.0,5.0,-1.0,-5.0,-15.0,-7.0,0.0,0.0,1651025642505071.0
0.0,-5.0,-3.0,2.0,9.0,6.0,1.0,0.0,1651025642506068.0
0.0,5.0,-2.0,-5.0,-12.0,-4.0,-1.0,0.0,1651025642506068.0
-1.0,-5.0,-9.0,-7.0,0.0,-1.0,-2.0,-1.0,1651025642527119.0
0.0,2.0,3.0,3.0,5.0,3.0,2.0,1.0,1651025642527119.0
0.0,1.0,1.0,-2.0,-8.0,-6.0,-2.0,-2.0,1651025642529072.0
-2.0,1.0,0.0,0.0,6.0,4.0,0.0,-2.0,1651025642529072.0
2.0,-13.0,-1.0,-1.0,-8.0,-2.0,-1.0,-1.0,1651025642542078.0
-2.0,-4.0,3.0,0.0,2.0,1.0,0.0,0.0,1651025642542078.0
0.0,6.0,-6.0,-9.0,-5.0,-2.0,-2.0,-2.0,1651025642544004.0
1.0,-13.0,3.0,2.0,3.0,-1.0,1.0,2.0,1651025642544004.0
-2.0,11.0,2.0,8.0,-2.0,-2.0,-4.0,-1.0,1651025642564889.0
3.0,6.0,-3.0,-8.0,-4.0,-4.0,-1.0,-1.0,1651025642564889.0
-2.0,-5.0,-2.0,6.0,0.0,2.0,1.0,0.0,1651025642566902.0
0.0,-8.0,-6.0,-4.0,0.0,-2.0,-1.0,-1.0,1651025642566902.0
-4.0,-15.0,0.0,-6.0,9.0,0.0,-1.0,-2.0,1651025642586822.0
0.0,-10.0,-2.0,8.0,-3.0,-1.0,-1.0,1.0,1651025642586822.0
0.0,19.0,4.0,-4.0,2.0,-1.0,0.0,1.0,1651025642588817.0
-2.0,-8.0,-13.0,-6.0,0.0,-1.0,0.0,-2.0,1651025642588817.0
1.0,4.0,-1.0,-4.0,-11.0,-3.0,1.0,0.0,1651025642601782.0
-1.0,4.0,0.0,-3.0,2.0,-1.0,-2.0,-2.0,1651025642601782.0
3.0,-23.0,1.0,4.0,11.0,4.0,1.0,2.0,1651025642603786.0
-9.0,-8.0,4.0,4.0,-3.0,-3.0,-4.0,-4.0,1651025642603786.0
2.0,5.0,9.0,-2.0,-7.0,1.0,0.0,2.0,1651025642624973.0
-1.0,8.0,-9.0,-2.0,3.0,-1.0,-3.0,-1.0,1651025642624973.0
1.0,-1.0,0.0,6.0,-9.0,-2.0,2.0,2.0,1651025642625914.0
-2.0,13.0,3.0,1.0,-6.0,-6.0,-3.0,-4.0,1651025642625914.0
3.0,3.0,-2.0,5.0,17.0,11.0,1.0,0.0,1651025642647496.0
-4.0,-3.0,6.0,-4.0,-17.0,-2.0,0.0,-3.0,1651025642647496.0
1.0,-5.0,-7.0,-3.0,14.0,-3.0,-2.0,-1.0,1651025642648868.0
0.0,4.0,-1.0,-11.0,-5.0,0.0,0.0,1.0,1651025642648868.0
-3.0,5.0,4.0,18.0,-7.0,-3.0,-1.0,-1.0,1651025642661861.0
3.0,19.0,11.0,4.0,4.0,4.0,1.0,1.0,1651025642661861.0
-6.0,-2.0,-10.0,-5.0,-18.0,-5.0,-1.0,-5.0,1651025642667934.0
-1.0,-11.0,-21.0,-10.0,14.0,7.0,0.0,-1.0,1651025642667934.0
0.0,8.0,17.0,-1.0,9.0,-2.0,0.0,-1.0,1651025642684361.0
-1.0,-7.0,-4.0,4.0,-2.0,0.0,-2.0,1.0,1651025642684361.0
1.0,1.0,8.0,0.0,-1.0,-2.0,-1.0,-1.0,1651025642686359.0
1.0,4.0,5.0,0.0,-10.0,-3.0,0.0,1.0,1651025642686359.0
-1.0,-4.0,-17.0,-13.0,-13.0,-1.0,-1.0,-1.0,1651025642707330.0
1.0,3.0,20.0,2.0,-1.0,-3.0,0.0,0.0,1651025642707330.0
-1.0,8.0,-11.0,1.0,30.0,9.0,0.0,0.0,1651025642708301.0
8.0,10.0,-6.0,-1.0,-3.0,2.0,6.0,4.0,1651025642708301.0
-4.0,-20.0,-16.0,26.0,10.0,2.0,-1.0,0.0,1651025642722339.0
-8.0,-18.0,-15.0,-4.0,-15.0,-15.0,-8.0,-7.0,1651025642722339.0
7.0,17.0,18.0,-25.0,-14.0,2.0,1.0,2.0,1651025642728403.0
-4.0,0.0,0.0,46.0,22.0,7.0,3.0,-1.0,1651025642728403.0
4.0,2.0,16.0,-32.0,-55.0,-28.0,-3.0,2.0,1651025642744358.0
-14.0,1.0,33.0,23.0,54.0,26.0,-3.0,-8.0,1651025642744358.0
4.0,-11.0,-12.0,7.0,-4.0,5.0,7.0,7.0,1651025642746291.0
1.0,18.0,50.0,-11.0,6.0,-8.0,-14.0,-5.0,1651025642746291.0
3.0,3.0,-61.0,-8.0,-11.0,0.0,-1.0,-3.0,1651025642767464.0
9.0,-5.0,6.0,-32.0,-24.0,-28.0,-7.0,5.0,1651025642767464.0
-28.0,-40.0,-81.0,-20.0,-11.0,8.0,43.0,7.0,1651025642768894.0
29.0,15.0,28.0,-11.0,-15.0,-12.0,7.0,-4.0,1651025642768894.0
-44.0,0.0,29.0,-19.0,3.0,8.0,-71.0,-23.0,1651025642780897.0
-3.0,-2.0,14.0,52.0,-3.0,-16.0,-62.0,-48.0,1651025642780897.0
-9.0,54.0,65.0,77.0,48.0,5.0,15.0,19.0,1651025642789818.0
-1.0,-63.0,-108.0,-76.0,-43.0,17.0,59.0,13.0,1651025642789818.0
-81.0,-10.0,45.0,27.0,29.0,22.0,-58.0,-2.0,1651025642811813.0
84.0,25.0,11.0,36.0,37.0,13.0,61.0,23.0,1651025642811813.0
45.0,4.0,50.0,20.0,-15.0,5.0,24.0,22.0,1651025642813808.0
-62.0,-7.0,-13.0,116.0,55.0,-10.0,-58.0,-43.0,1651025642813808.0
80.0,21.0,-23.0,-77.0,-27.0,-31.0,-61.0,-12.0,1651025642826957.0
-18.0,-6.0,-49.0,-43.0,-42.0,-96.0,-105.0,-51.0,1651025642826957.0
7.0,61.0,38.0,6.0,16.0,59.0,84.0,43.0,1651025642828889.0
-99.0,-75.0,-1.0,-53.0,-8.0,33.0,22.0,11.0,1651025642828889.0
19.0,-1.0,19.0,96.0,35.0,23.0,63.0,2.0,1651025642840924.0
6.0,10.0,10.0,46.0,25.0,72.0,-46.0,14.0,1651025642840924.0
34.0,18.0,-44.0,-109.0,-60.0,-93.0,-72.0,-58.0,1651025642849939.0
107.0,72.0,39.0,40.0,11.0,6.0,51.0,49.0,1651025642849939.0
-83.0,-10.0,-20.0,-95.0,-23.0,-27.0,-6.0,-20.0,1651025642865116.0
-10.0,-25.0,-21.0,13.0,-8.0,-6.0,70.0,6.0,1651025642865116.0
-9.0,-7.0,25.0,26.0,29.0,38.0,54.0,26.0,1651025642866074.0
8.0,-6.0,-1.0,-28.0,-11.0,2.0,-86.0,-24.0,1651025642866074.0
34.0,1.0,19.0,46.0,16.0,9.0,66.0,17.0,1651025642887018.0
-30.0,8.0,-21.0,-71.0,-21.0,3.0,38.0,24.0,1651025642887018.0
-18.0,-32.0,-30.0,-20.0,-13.0,-7.0,-56.0,-20.0,1651025642889040.0
5.0,11.0,18.0,20.0,-4.0,-45.0,-15.0,-9.0,1651025642889040.0
43.0,2.0,-34.0,-11.0,-1.0,17.0,30.0,15.0,1651025642901048.0
-51.0,7.0,13.0,-11.0,14.0,38.0,6.0,4.0,1651025642901048.0
-12.0,-11.0,-22.0,-50.0,-32.0,-19.0,3.0,-13.0,1651025642909957.0
31.0,-16.0,16.0,54.0,15.0,-11.0,8.0,1.0,1651025642909957.0
2.0,22.0,6.0,18.0,2.0,-12.0,-15.0,19.0,1651025642924999.0
-41.0,-40.0,5.0,-31.0,-22.0,-4.0,7.0,-19.0,1651025642924999.0
-18.0,-12.0,-4.0,54.0,22.0,-52.0,-94.0,-40.0,1651025642925915.0
-23.0,31.0,0.0,-35.0,2.0,51.0,24.0,13.0,1651025642925915.0
8.0,-1.0,-1.0,2.0,0.0,-1.0,-11.0,-4.0,1651025642946885.0
-3.0,-6.0,-5.0,9.0,4.0,-2.0,52.0,14.0,1651025642946885.0
13.0,-12.0,-1.0,-21.0,-2.0,41.0,63.0,28.0,1651025642948873.0
-33.0,-6.0,-7.0,-17.0,-14.0,-63.0,-117.0,-41.0,1651025642948873.0
18.0,-10.0,-6.0,20.0,9.0,40.0,30.0,0.0,1651025642960820.0
0.0,-9.0,-20.0,-37.0,1.0,-9.0,-5.0,10.0,1651025642960820.0
-13.0,-3.0,35.0,94.0,42.0,-5.0,-29.0,-14.0,1651025642969796.0
54.0,16.0,-22.0,-27.0,-25.0,4.0,46.0,36.0,1651025642969796.0
-44.0,3.0,33.0,15.0,8.0,-9.0,18.0,-23.0,1651025642984783.0
27.0,-11.0,-23.0,-11.0,5.0,3.0,-33.0,9.0,1651025642984783.0
9.0,2.0,-9.0,12.0,4.0,3.0,-7.0,-5.0,1651025642985775.0
34.0,-8.0,-8.0,-32.0,-7.0,21.0,25.0,13.0,1651025642985775.0
-17.0,8.0,15.0,45.0,5.0,-16.0,38.0,14.0,1651025643006724.0
24.0,38.0,2.0,-34.0,-19.0,6.0,-40.0,4.0,1651025643006724.0
-40.0,-50.0,-2.0,8.0,-3.0,-41.0,14.0,-17.0,1651025643013679.0
-44.0,-12.0,-5.0,-1.0,11.0,33.0,-32.0,-17.0,1651025643013679.0
-10.0,-16.0,-15.0,-43.0,-17.0,-18.0,-1.0,-16.0,1651025643020661.0
29.0,13.0,-1.0,-8.0,1.0,69.0,26.0,24.0,1651025643020661.0
-27.0,31.0,4.0,-10.0,-20.0,-28.0,-23.0,-21.0,1651025643029637.0
73.0,17.0,22.0,40.0,27.0,0.0,19.0,13.0,1651025643029637.0
6.0,-11.0,-9.0,-36.0,-22.0,-32.0,-15.0,0.0,1651025643044776.0
-20.0,18.0,28.0,39.0,28.0,-11.0,40.0,12.0,1651025643044776.0
-2.0,-24.0,-38.0,-27.0,-14.0,11.0,-35.0,-8.0,1651025643045735.0
-32.0,7.0,-13.0,-14.0,-15.0,-9.0,20.0,-9.0,1651025643045735.0
41.0,11.0,26.0,65.0,29.0,10.0,1.0,19.0,1651025643066880.0
-26.0,-10.0,6.0,2.0,-10.0,-28.0,-20.0,-21.0,1651025643066880.0
43.0,4.0,10.0,-8.0,-9.0,11.0,20.0,18.0,1651025643068867.0
-6.0,17.0,-8.0,-32.0,-2.0,-3.0,-18.0,-8.0,1651025643068867.0
-1.0,-39.0,-13.0,1.0,-13.0,3.0,27.0,7.0,1651025643080902.0
-17.0,2.0,13.0,46.0,26.0,3.0,2.0,-9.0,1651025643080902.0
36.0,-10.0,3.0,8.0,-4.0,5.0,-39.0,9.0,1651025643089811.0
-48.0,0.0,-8.0,-20.0,-9.0,5.0,15.0,-12.0,1651025643089811.0
28.0,28.0,5.0,-7.0,9.0,15.0,-7.0,9.0,1651025643104771.0
18.0,2.0,-4.0,7.0,-21.0,-32.0,9.0,-4.0,1651025643104771.0
3.0,-2.0,-17.0,-48.0,-7.0,20.0,28.0,10.0,1651025643105768.0
-25.0,-11.0,15.0,43.0,6.0,-4.0,-2.0,3.0,1651025643105768.0
23.0,3.0,4.0,-34.0,18.0,8.0,-26.0,-7.0,1651025643127286.0
14.0,5.0,20.0,52.0,19.0,-6.0,-9.0,16.0,1651025643127286.0
-34.0,-16.0,-9.0,-24.0,-5.0,6.0,-8.0,-15.0,1651025643128241.0
5.0,1.0,-12.0,-40.0,-25.0,-1.0,2.0,0.0,1651025643128241.0
-36.0,-6.0,4.0,37.0,7.0,-3.0,-29.0,-10.0,1651025643141180.0
-20.0,5.0,-15.0,-30.0,-8.0,1.0,-7.0,-21.0,1651025643141180.0
51.0,6.0,3.0,10.0,-7.0,-7.0,-16.0,5.0,1651025643150166.0
4.0,-11.0,0.0,10.0,9.0,0.0,26.0,9.0,1651025643150166.0
-16.0,8.0,-6.0,-19.0,-8.0,-6.0,-1.0,-1.0,1651025643164209.0
12.0,-7.0,-10.0,-14.0,0.0,7.0,41.0,17.0,1651025643164209.0
-9.0,8.0,8.0,-6.0,-2.0,-4.0,-71.0,-22.0,1651025643166234.0
-7.0,-2.0,-3.0,-30.0,-12.0,-11.0,16.0,1.0,1651025643166234.0
27.0,1.0,10.0,57.0,13.0,1.0,4.0,9.0,1651025643187225.0
19.0,9.0,-5.0,-15.0,-9.0,7.0,29.0,5.0,1651025643187225.0
-47.0,-17.0,1.0,-3.0,-1.0,8.0,10.0,6.0,1651025643188219.0
35.0,0.0,-16.0,-39.0,-10.0,-9.0,-3.0,2.0,1651025643188219.0
-25.0,-3.0,9.0,28.0,8.0,1.0,-12.0,-10.0,1651025643200187.0
-12.0,-11.0,-6.0,-8.0,-4.0,3.0,36.0,-3.0,1651025643200187.0
18.0,19.0,-1.0,3.0,7.0,-3.0,-44.0,13.0,1651025643209162.0
-16.0,-5.0,17.0,40.0,5.0,-9.0,-30.0,-26.0,1651025643209162.0
-13.0,-5.0,-22.0,-54.0,-22.0,5.0,23.0,4.0,1651025643224124.0
-17.0,-7.0,-7.0,-19.0,-15.0,16.0,57.0,19.0,1651025643224124.0
33.0,7.0,11.0,21.0,29.0,-12.0,-28.0,-3.0,1651025643226118.0
2.0,24.0,12.0,17.0,6.0,-1.0,-1.0,-3.0,1651025643226118.0
-5.0,-11.0,-20.0,-68.0,-22.0,2.0,-11.0,0.0,1651025643247465.0
-6.0,0.0,34.0,103.0,28.0,-12.0,-28.0,-9.0,1651025643247465.0
-43.0,2.0,-10.0,-23.0,-10.0,17.0,49.0,-3.0,1651025643248897.0
1.0,-12.0,0.0,-6.0,5.0,-1.0,13.0,14.0,1651025643248897.0
25.0,9.0,6.0,20.0,9.0,3.0,-18.0,-3.0,1651025643260849.0
-2.0,-8.0,-26.0,-56.0,-21.0,-10.0,-41.0,-9.0,1651025643260849.0
-9.0,1.0,-2.0,7.0,-5.0,1.0,40.0,5.0,1651025643269814.0
16.0,-12.0,-9.0,-7.0,11.0,9.0,13.0,8.0,1651025643269814.0
3.0,23.0,23.0,35.0,3.0,-4.0,-16.0,6.0,1651025643284892.0
-39.0,-37.0,-10.0,-9.0,0.0,-9.0,-22.0,-8.0,1651025643284892.0
33.0,-2.0,8.0,12.0,5.0,4.0,17.0,-8.0,1651025643285819.0
-27.0,0.0,3.0,6.0,-4.0,13.0,14.0,6.0,1651025643285819.0
22.0,-6.0,-17.0,-26.0,-9.0,-28.0,-22.0,2.0,1651025643306832.0
17.0,10.0,6.0,0.0,5.0,10.0,17.0,-1.0,1651025643306832.0
-37.0,-5.0,-9.0,-1.0,-15.0,-14.0,-26.0,-15.0,1651025643308758.0
18.0,0.0,-11.0,-43.0,-13.0,5.0,13.0,5.0,1651025643308758.0
-7.0,8.0,20.0,60.0,39.0,4.0,5.0,-3.0,1651025643320726.0
21.0,1.0,5.0,8.0,-20.0,-13.0,-5.0,-10.0,1651025643320726.0
-2.0,0.0,-12.0,-36.0,5.0,17.0,27.0,19.0,1651025643329701.0
31.0,23.0,29.0,69.0,20.0,-15.0,-46.0,-7.0,1651025643329701.0
-28.0,-29.0,-24.0,-35.0,-19.0,-6.0,-4.0,-6.0,1651025643344986.0
26.0,7.0,6.0,-11.0,-3.0,1.0,11.0,5.0,1651025643344986.0
-23.0,4.0,14.0,36.0,17.0,14.0,5.0,-1.0,1651025643345995.0
5.0,-2.0,-1.0,-3.0,-5.0,-8.0,-10.0,-6.0,1651025643345995.0
6.0,24.0,-4.0,-27.0,-12.0,3.0,21.0,-1.0,1651025643367493.0
10.0,-8.0,4.0,43.0,30.0,11.0,20.0,19.0,1651025643367493.0
-9.0,-9.0,-6.0,-20.0,-22.0,-16.0,-28.0,-15.0,1651025643368725.0
-10.0,3.0,4.0,13.0,3.0,-1.0,-9.0,-1.0,1651025643368725.0
9.0,3.0,12.0,1.0,-1.0,4.0,20.0,6.0,1651025643380517.0
-15.0,-24.0,-28.0,-51.0,-15.0,2.0,-5.0,-5.0,1651025643380517.0
15.0,23.0,6.0,11.0,3.0,4.0,-3.0,5.0,1651025643389496.0
10.0,-15.0,-9.0,-3.0,1.0,-12.0,11.0,-5.0,1651025643389496.0
-37.0,-13.0,-8.0,-21.0,-11.0,-4.0,-14.0,-10.0,1651025643404456.0
68.0,17.0,2.0,4.0,7.0,13.0,-18.0,10.0,1651025643404456.0
-20.0,-10.0,-9.0,-20.0,-8.0,-15.0,4.0,-2.0,1651025643406475.0
-6.0,0.0,15.0,29.0,1.0,2.0,3.0,-3.0,1651025643406475.0
-30.0,-4.0,-25.0,-48.0,-20.0,-1.0,17.0,-5.0,1651025643427555.0
-4.0,-5.0,13.0,19.0,-3.0,-7.0,-39.0,-17.0,1651025643427555.0
7.0,-4.0,-2.0,-7.0,17.0,-4.0,9.0,3.0,1651025643428519.0
-8.0,8.0,-9.0,-31.0,-7.0,4.0,22.0,12.0,1651025643428519.0
9.0,-14.0,2.0,24.0,-2.0,-6.0,-35.0,-13.0,1651025643449998.0
-14.0,1.0,-9.0,-26.0,-8.0,-5.0,-7.0,5.0,1651025643449998.0
-6.0,9.0,-4.0,-26.0,-29.0,5.0,9.0,4.0,1651025643450936.0
-3.0,-6.0,11.0,45.0,31.0,-4.0,-17.0,-1.0,1651025643450936.0
4.0,2.0,-9.0,-22.0,-4.0,2.0,31.0,5.0,1651025643463902.0
-26.0,-1.0,5.0,2.0,-6.0,-1.0,-18.0,-8.0,1651025643463902.0
21.0,-4.0,21.0,55.0,21.0,11.0,16.0,1.0,1651025643470896.0
8.0,7.0,-7.0,-13.0,-5.0,-1.0,-3.0,-1.0,1651025643470896.0
7.0,0.0,-1.0,16.0,5.0,2.0,-11.0,-4.0,1651025643487061.0
-29.0,-1.0,-7.0,-21.0,0.0,-1.0,8.0,-2.0,1651025643487061.0
58.0,14.0,-4.0,-8.0,4.0,9.0,49.0,29.0,1651025643489015.0
-36.0,-19.0,2.0,15.0,-4.0,-1.0,-51.0,-19.0,1651025643489015.0
25.0,5.0,-3.0,-6.0,-3.0,-2.0,1.0,-2.0,1651025643509592.0
-12.0,-9.0,-25.0,-54.0,-18.0,-12.0,0.0,-3.0,1651025643509592.0
3.0,10.0,48.0,102.0,33.0,18.0,1.0,10.0,1651025643511551.0
4.0,4.0,-4.0,-20.0,4.0,2.0,2.0,-5.0,1651025643511551.0
22.0,-10.0,-5.0,-6.0,4.0,11.0,24.0,13.0,1651025643523546.0
-4.0,5.0,-12.0,-13.0,-6.0,-1.0,-24.0,-11.0,1651025643523546.0
-3.0,-4.0,-11.0,-25.0,-12.0,-17.0,-8.0,-13.0,1651025643532524.0
-4.0,-14.0,-16.0,-24.0,-1.0,3.0,12.0,4.0,1651025643532524.0
-5.0,5.0,27.0,60.0,-10.0,-6.0,-7.0,6.0,1651025643546557.0
8.0,20.0,3.0,-2.0,29.0,15.0,25.0,12.0,1651025643546557.0
-2.0,-4.0,-11.0,-17.0,-11.0,-10.0,-28.0,-11.0,1651025643554509.0
-7.0,-12.0,-6.0,-26.0,-15.0,-7.0,-13.0,-9.0,1651025643554509.0
-3.0,11.0,3.0,9.0,12.0,8.0,30.0,8.0,1651025643569533.0
4.0,-22.0,-2.0,1.0,-13.0,-7.0,-7.0,-6.0,1651025643569533.0
27.0,-5.0,5.0,25.0,8.0,-9.0,27.0,9.0,1651025643571465.0
-6.0,11.0,0.0,-13.0,-10.0,10.0,-11.0,-2.0,1651025643571465.0
6.0,-2.0,-9.0,-21.0,-5.0,1.0,-27.0,-5.0,1651025643583881.0
-1.0,7.0,-5.0,-11.0,-9.0,-7.0,-2.0,-1.0,1651025643583881.0
-4.0,2.0,25.0,62.0,25.0,11.0,34.0,5.0,1651025643590862.0
-3.0,0.0,-12.0,-35.0,-17.0,-19.0,-46.0,-15.0,1651025643590862.0
18.0,3.0,10.0,40.0,14.0,-5.0,4.0,2.0,1651025643606855.0
-45.0,-9.0,7.0,14.0,-4.0,-12.0,-19.0,-3.0,1651025643606855.0
-3.0,-7.0,-26.0,-67.0,-22.0,-12.0,7.0,-7.0,1651025643608834.0
29.0,12.0,13.0,50.0,15.0,22.0,31.0,17.0,1651025643608834.0
-14.0,2.0,-5.0,-16.0,-4.0,0.0,-1.0,-14.0,1651025643629962.0
23.0,4.0,-3.0,-15.0,-3.0,-11.0,-16.0,9.0,1651025643629962.0
3.0,4.0,1.0,-4.0,-3.0,7.0,-8.0,-3.0,1651025643630893.0
-24.0,-14.0,-22.0,-38.0,-8.0,-3.0,10.0,-1.0,1651025643630893.0
0.0,2.0,17.0,45.0,13.0,6.0,5.0,-7.0,1651025643644002.0
8.0,-1.0,1.0,6.0,-5.0,-4.0,-10.0,0.0,1651025643644002.0
-25.0,-9.0,-14.0,-29.0,-19.0,-9.0,-13.0,-4.0,1651025643651012.0
-4.0,11.0,-3.0,-12.0,-1.0,-4.0,-2.0,4.0,1651025643651012.0
16.0,16.0,-7.0,-41.0,-4.0,13.0,28.0,17.0,1651025643674523.0
11.0,-26.0,13.0,47.0,9.0,-7.0,-11.0,-13.0,1651025643674523.0
-25.0,2.0,-11.0,-43.0,-5.0,7.0,-20.0,0.0,1651025643676473.0
-5.0,-3.0,12.0,49.0,5.0,-7.0,-3.0,-14.0,1651025643676473.0
-21.0,-6.0,-10.0,-4.0,6.0,2.0,3.0,-1.0,1651025643689479.0
21.0,6.0,5.0,-2.0,-11.0,-7.0,-24.0,-3.0,1651025643689479.0
16.0,10.0,-1.0,1.0,16.0,1.0,13.0,18.0,1651025643691433.0
-29.0,-17.0,-2.0,-8.0,-10.0,-9.0,-9.0,-14.0,1651025643691433.0
-17.0,11.0,-12.0,-34.0,-17.0,-11.0,2.0,-5.0,1651025643704372.0
17.0,-11.0,15.0,44.0,17.0,8.0,9.0,7.0,1651025643704372.0
-8.0,-3.0,-2.0,-15.0,-10.0,2.0,22.0,9.0,1651025643710382.0
15.0,-3.0,-5.0,-7.0,-3.0,-3.0,-17.0,-2.0,1651025643710382.0
0.0,-2.0,-4.0,5.0,-2.0,-6.0,-14.0,-3.0,1651025643726653.0
-18.0,7.0,-10.0,-37.0,-9.0,8.0,9.0,-2.0,1651025643726653.0
39.0,5.0,2.0,12.0,-10.0,4.0,1.0,11.0,1651025643728649.0
-27.0,-9.0,20.0,36.0,28.0,-4.0,11.0,-2.0,1651025643728649.0
-6.0,2.0,-6.0,-22.0,-7.0,-7.0,-48.0,-21.0,1651025643749593.0
13.0,3.0,4.0,11.0,7.0,5.0,30.0,13.0,1651025643749593.0
-48.0,-20.0,-7.0,5.0,0.0,5.0,10.0,-11.0,1651025643751588.0
44.0,11.0,0.0,1.0,-13.0,1.0,31.0,18.0,1651025643751588.0
31.0,-9.0,-4.0,-20.0,2.0,9.0,-25.0,6.0,1651025643764360.0
-18.0,6.0,2.0,5.0,26.0,2.0,-7.0,-9.0,1651025643764360.0
-23.0,15.0,-8.0,-16.0,-18.0,-17.0,-39.0,-28.0,1651025643770447.0
4.0,-5.0,4.0,22.0,0.0,-1.0,-6.0,6.0,1651025643770447.0
-8.0,-16.0,-4.0,-1.0,-13.0,-5.0,46.0,12.0,1651025643787528.0
2.0,-6.0,-4.0,-3.0,4.0,3.0,-1.0,-10.0,1651025643787528.0
-3.0,-4.0,-7.0,-6.0,-8.0,-2.0,-9.0,-6.0,1651025643788499.0
-3.0,11.0,3.0,-18.0,6.0,5.0,31.0,9.0,1651025643788499.0
6.0,4.0,5.0,11.0,2.0,7.0,-18.0,6.0,1651025643810019.0
17.0,6.0,-7.0,9.0,4.0,-5.0,-3.0,-4.0,1651025643810019.0
-9.0,-11.0,-2.0,-9.0,-3.0,-15.0,-13.0,-8.0,1651025643810931.0
-1.0,6.0,2.0,4.0,-9.0,-8.0,10.0,9.0,1651025643810931.0
-9.0,-2.0,-3.0,-3.0,-5.0,29.0,19.0,-2.0,1651025643823900.0
-3.0,0.0,-1.0,-3.0,9.0,-4.0,-9.0,3.0,1651025643823900.0
5.0,-1.0,2.0,7.0,23.0,22.0,11.0,6.0,1651025643830946.0
5.0,0.0,3.0,2.0,4.0,10.0,10.0,3.0,1651025643830946.0
-10.0,-6.0,-3.0,-7.0,-34.0,-38.0,-23.0,-10.0,1651025643847062.0
-7.0,3.0,-9.0,-30.0,17.0,0.0,6.0,-3.0,1651025643847062.0
-3.0,-2.0,9.0,40.0,3.0,9.0,-3.0,-1.0,1651025643849014.0
14.0,0.0,6.0,13.0,6.0,-3.0,-2.0,3.0,1651025643849014.0
-2.0,0.0,5.0,-3.0,8.0,6.0,2.0,-2.0,1651025643869992.0
-5.0,3.0,-1.0,-5.0,-25.0,-11.0,7.0,1.0,1651025643869992.0
-1.0,-6.0,-7.0,-9.0,1.0,-16.0,-15.0,-5.0,1651025643870925.0
-3.0,4.0,-3.0,-9.0,4.0,6.0,-6.0,-3.0,1651025643870925.0
0.0,-5.0,0.0,4.0,-2.0,9.0,9.0,3.0,1651025643883899.0
-2.0,2.0,3.0,10.0,12.0,5.0,5.0,0.0,1651025643883899.0
1.0,0.0,1.0,-5.0,-9.0,0.0,-6.0,-1.0,1651025643890939.0
-1.0,-4.0,-3.0,-4.0,-12.0,-8.0,-2.0,-1.0,1651025643890939.0
4.0,1.0,0.0,-1.0,15.0,-8.0,6.0,4.0,1651025643906897.0
-6.0,0.0,-1.0,3.0,10.0,2.0,0.0,-2.0,1651025643906897.0
2.0,-2.0,-1.0,-3.0,0.0,33.0,1.0,0.0,1651025643908824.0
1.0,11.0,8.0,-1.0,-7.0,-5.0,1.0,2.0,1651025643908824.0
0.0,-10.0,-5.0,9.0,11.0,-1.0,-1.0,0.0,1651025643929898.0
-8.0,-3.0,1.0,-2.0,-13.0,-6.0,-7.0,-6.0,1651025643929898.0
2.0,-4.0,-6.0,-5.0,-7.0,-18.0,-1.0,-2.0,1651025643930842.0
1.0,-2.0,-3.0,-4.0,-2.0,6.0,1.0,-4.0,1651025643930842.0
-2.0,14.0,13.0,1.0,3.0,0.0,-2.0,7.0,1651025643943476.0
-6.0,-9.0,-15.0,-1.0,-21.0,-6.0,4.0,3.0,1651025643943476.0
0.0,1.0,0.0,-1.0,16.0,-7.0,-4.0,-2.0,1651025643951822.0
-4.0,-11.0,-8.0,-4.0,2.0,8.0,0.0,0.0,1651025643951822.0
2.0,-8.0,-11.0,-4.0,-14.0,-11.0,0.0,-1.0,1651025643966815.0
-1.0,8.0,7.0,2.0,12.0,10.0,2.0,-3.0,1651025643966815.0
-3.0,-12.0,-11.0,-2.0,-3.0,0.0,-2.0,-1.0,1651025643968805.0
0.0,2.0,-2.0,-1.0,-14.0,-4.0,-3.0,0.0,1651025643968805.0
-1.0,15.0,5.0,5.0,21.0,3.0,-1.0,-2.0,1651025643989893.0
-1.0,-34.0,-1.0,0.0,-17.0,2.0,2.0,2.0,1651025643989893.0
5.0,25.0,9.0,-3.0,-5.0,-5.0,-3.0,-3.0,1651025643990889.0
-4.0,-12.0,2.0,-3.0,3.0,-2.0,0.0,-1.0,1651025643990889.0
-2.0,-5.0,-22.0,-3.0,-4.0,0.0,-1.0,-3.0,1651025644003539.0
10.0,18.0,12.0,4.0,9.0,4.0,4.0,4.0,1651025644003539.0
-15.0,-10.0,13.0,-3.0,-4.0,-7.0,-5.0,-10.0,1651025644012518.0
3.0,-7.0,-16.0,5.0,-5.0,1.0,7.0,9.0,1651025644012518.0
-9.0,-17.0,3.0,-5.0,18.0,-5.0,-3.0,-7.0,1651025644027505.0
13.0,32.0,-10.0,5.0,12.0,14.0,-1.0,-1.0,1651025644027505.0
-6.0,-32.0,-11.0,2.0,-1.0,-6.0,-1.0,4.0,1651025644028474.0
0.0,24.0,17.0,-8.0,-22.0,-3.0,-2.0,-3.0,1651025644028474.0
-3.0,-89.0,-6.0,4.0,10.0,2.0,-2.0,-1.0,1651025644049632.0
-22.0,47.0,6.0,-12.0,-17.0,-12.0,-9.0,-13.0,1651025644049632.0
-5.0,-20.0,-14.0,-7.0,-16.0,-9.0,-2.0,-5.0,1651025644051583.0
6.0,-28.0,-18.0,10.0,24.0,11.0,1.0,1.0,1651025644051583.0
16.0,74.0,46.0,12.0,6.0,8.0,4.0,6.0,1651025644062813.0
1.0,-52.0,-34.0,8.0,-2.0,1.0,6.0,-4.0,1651025644062813.0
-2.0,33.0,9.0,-10.0,-6.0,-5.0,-4.0,1.0,1651025644071878.0
-9.0,-20.0,-6.0,-10.0,-3.0,-2.0,-3.0,-4.0,1651025644071878.0
1.0,-14.0,-10.0,-2.0,-4.0,-4.0,-1.0,2.0,1651025644086870.0
6.0,45.0,12.0,0.0,-1.0,-24.0,-23.0,-22.0,1651025644086870.0
15.0,-2.0,-2.0,7.0,0.0,10.0,17.0,31.0,1651025644088877.0
-4.0,25.0,10.0,1.0,11.0,26.0,3.0,-9.0,1651025644088877.0
-4.0,-9.0,-41.0,-9.0,-7.0,0.0,-2.0,7.0,1651025644109918.0
5.0,3.0,13.0,-3.0,-16.0,-14.0,1.0,11.0,1651025644109918.0
-19.0,-50.0,-23.0,-5.0,-5.0,-10.0,-19.0,-24.0,1651025644110922.0
16.0,25.0,12.0,-6.0,5.0,-9.0,2.0,10.0,1651025644110922.0
-4.0,-35.0,-11.0,-2.0,6.0,12.0,11.0,6.0,1651025644122985.0
-4.0,32.0,-2.0,-3.0,-6.0,-3.0,-6.0,-8.0,1651025644122985.0
10.0,1.0,2.0,0.0,5.0,-4.0,6.0,4.0,1651025644131951.0
-2.0,-10.0,9.0,1.0,-4.0,-6.0,4.0,7.0,1651025644131951.0
1.0,49.0,24.0,-1.0,-30.0,-13.0,-13.0,-11.0,1651025644146959.0
-4.0,-85.0,-6.0,7.0,34.0,20.0,4.0,6.0,1651025644146959.0
10.0,56.0,24.0,3.0,3.0,8.0,6.0,3.0,1651025644148915.0
-5.0,-15.0,-17.0,-4.0,-9.0,-6.0,-8.0,-3.0,1651025644148915.0
-13.0,11.0,-15.0,-4.0,4.0,-10.0,-3.0,-3.0,1651025644169960.0
5.0,-42.0,6.0,3.0,-9.0,3.0,12.0,0.0,1651025644169960.0
1.0,16.0,21.0,10.0,12.0,4.0,0.0,-5.0,1651025644170889.0
-7.0,-17.0,-45.0,-27.0,-13.0,-7.0,-6.0,-2.0,1651025644170889.0
5.0,-7.0,7.0,-2.0,-16.0,-6.0,-1.0,6.0,1651025644183535.0
-12.0,55.0,-2.0,3.0,13.0,6.0,3.0,5.0,1651025644183535.0
-3.0,-16.0,-12.0,0.0,8.0,5.0,-1.0,-6.0,1651025644192515.0
4.0,13.0,16.0,7.0,-6.0,-3.0,0.0,-5.0,1651025644192515.0
-6.0,-5.0,0.0,2.0,12.0,3.0,6.0,5.0,1651025644207520.0
-7.0,-27.0,0.0,1.0,-6.0,3.0,3.0,-6.0,1651025644207520.0
14.0,15.0,-3.0,0.0,0.0,-4.0,3.0,23.0,1651025644208471.0
-19.0,-18.0,-17.0,-18.0,-12.0,-8.0,-15.0,-17.0,1651025644208471.0
10.0,7.0,30.0,1.0,2.0,4.0,-3.0,1.0,1651025644230458.0
-6.0,-13.0,-32.0,8.0,19.0,6.0,3.0,-2.0,1651025644230458.0
6.0,4.0,-4.0,-6.0,-8.0,-2.0,1.0,-5.0,1651025644231412.0
8.0,4.0,27.0,19.0,6.0,3.0,9.0,12.0,1651025644231412.0
-12.0,6.0,-12.0,-8.0,-5.0,-3.0,-3.0,-16.0,1651025644243445.0
13.0,-6.0,23.0,4.0,-17.0,-3.0,-1.0,13.0,1651025644243445.0
-1.0,2.0,-28.0,-18.0,-3.0,0.0,-5.0,-2.0,1651025644252360.0
-8.0,-32.0,-10.0,2.0,8.0,-3.0,-2.0,1.0,1651025644252360.0
4.0,6.0,6.0,5.0,-2.0,-2.0,-5.0,-13.0,1651025644266961.0
-11.0,-21.0,14.0,3.0,2.0,4.0,2.0,-3.0,1651025644266961.0
-14.0,-23.0,-23.0,-10.0,-7.0,-4.0,-4.0,-8.0,1651025644268917.0
1.0,-2.0,2.0,-3.0,-6.0,-1.0,-1.0,-1.0,1651025644268917.0
6.0,24.0,1.0,1.0,5.0,2.0,4.0,2.0,1651025644289861.0
8.0,19.0,38.0,5.0,-1.0,1.0,1.0,6.0,1651025644289861.0
-1.0,-15.0,17.0,18.0,-4.0,-4.0,-2.0,-3.0,1651025644290831.0
-6.0,-1.0,-62.0,-29.0,0.0,2.0,-3.0,-5.0,1651025644290831.0
-17.0,-23.0,1.0,5.0,10.0,3.0,-2.0,-3.0,1651025644303395.0
6.0,14.0,-3.0,-8.0,-16.0,-6.0,0.0,2.0,1651025644303395.0
7.0,22.0,1.0,-6.0,3.0,-1.0,-1.0,0.0,1651025644312374.0
-8.0,7.0,26.0,20.0,8.0,-1.0,1.0,-2.0,1651025644312374.0
8.0,19.0,-14.0,-9.0,-19.0,-5.0,-1.0,5.0,1651025644327465.0
-5.0,-21.0,0.0,-4.0,8.0,2.0,-2.0,-2.0,1651025644327465.0
0.0,3.0,18.0,12.0,14.0,1.0,1.0,2.0,1651025644328895.0
6.0,3.0,16.0,14.0,-3.0,3.0,2.0,2.0,1651025644328895.0
4.0,-15.0,-22.0,-9.0,4.0,1.0,2.0,1.0,1651025644349880.0
0.0,23.0,-6.0,-9.0,-17.0,-4.0,0.0,0.0,1651025644349880.0
8.0,19.0,34.0,8.0,-8.0,0.0,1.0,2.0,1651025644350809.0
3.0,-6.0,-7.0,7.0,16.0,7.0,2.0,2.0,1651025644350809.0
-34.0,-38.0,-11.0,-2.0,9.0,-7.0,-6.0,-9.0,1651025644362845.0
-1.0,-15.0,-28.0,-9.0,-9.0,-4.0,0.0,1.0,1651025644362845.0
-4.0,-11.0,-14.0,-18.0,-2.0,1.0,-2.0,-2.0,1651025644371819.0
0.0,-10.0,27.0,11.0,-4.0,-3.0,1.0,-2.0,1651025644371819.0
7.0,16.0,13.0,9.0,5.0,2.0,3.0,0.0,1651025644386781.0
-3.0,-14.0,-4.0,1.0,3.0,2.0,2.0,1.0,1651025644386781.0
-4.0,3.0,-8.0,-5.0,-1.0,-2.0,-3.0,-5.0,1651025644388708.0
4.0,-2.0,-2.0,-1.0,-4.0,-2.0,2.0,2.0,1651025644388708.0
2.0,6.0,0.0,-5.0,-2.0,-2.0,-4.0,-3.0,1651025644409950.0
0.0,33.0,4.0,-4.0,-1.0,-2.0,-3.0,-1.0,1651025644409950.0
0.0,-6.0,2.0,3.0,-4.0,-2.0,-2.0,-1.0,1651025644410885.0
12.0,42.0,27.0,-1.0,3.0,1.0,1.0,2.0,1651025644410885.0
-5.0,-27.0,-38.0,-1.0,-1.0,1.0,0.0,-2.0,1651025644431899.0
4.0,7.0,13.0,3.0,-6.0,-2.0,-2.0,0.0,1651025644431899.0
-1.0,6.0,-1.0,0.0,-6.0,2.0,0.0,-1.0,1651025644433851.0
0.0,13.0,4.0,-2.0,10.0,2.0,0.0,-2.0,1651025644433851.0
9.0,6.0,9.0,6.0,2.0,0.0,0.0,4.0,1651025644446857.0
-11.0,-23.0,-5.0,-8.0,-17.0,-10.0,-4.0,-4.0,1651025644446857.0
3.0,-27.0,-9.0,4.0,6.0,9.0,2.0,3.0,1651025644448783.0
-1.0,89.0,19.0,-4.0,9.0,0.0,-2.0,-3.0,1651025644448783.0
7.0,4.0,11.0,9.0,13.0,4.0,4.0,3.0,1651025644469903.0
6.0,19.0,15.0,2.0,-4.0,-2.0,2.0,3.0,1651025644469903.0
0.0,-19.0,-15.0,1.0,-3.0,-5.0,0.0,-1.0,1651025644471833.0
-3.0,-5.0,-5.0,-8.0,-11.0,-3.0,-2.0,-1.0,1651025644471833.0
4.0,5.0,-6.0,-4.0,-9.0,-2.0,-3.0,1.0,1651025644491987.0
-7.0,-19.0,-7.0,-6.0,4.0,3.0,-1.0,-3.0,1651025644491987.0
-5.0,2.0,17.0,9.0,4.0,0.0,-2.0,-3.0,1651025644493961.0
0.0,-16.0,-13.0,-1.0,-2.0,0.0,-2.0,-1.0,1651025644493961.0
-4.0,-7.0,3.0,-9.0,-6.0,-1.0,-2.0,-2.0,1651025644506916.0
5.0,-6.0,-7.0,-2.0,-15.0,0.0,1.0,1.0,1651025644506916.0
-2.0,4.0,1.0,0.0,18.0,2.0,0.0,-1.0,1651025644512900.0
-1.0,-28.0,-12.0,5.0,1.0,-1.0,1.0,1.0,1651025644512900.0
1.0,3.0,9.0,4.0,-2.0,1.0,2.0,1.0,1651025644529876.0
0.0,-8.0,-1.0,0.0,6.0,4.0,0.0,2.0,1651025644529876.0
-5.0,-39.0,-9.0,-9.0,-6.0,-4.0,0.0,0.0,1651025644530852.0
8.0,38.0,5.0,-1.0,8.0,-3.0,-2.0,-1.0,1651025644530852.0
-1.0,-11.0,12.0,6.0,-2.0,7.0,0.0,-2.0,1651025644551680.0
-5.0,-16.0,-23.0,-2.0,17.0,0.0,-1.0,-2.0,1651025644551680.0
1.0,11.0,5.0,3.0,0.0,-1.0,-1.0,1.0,1651025644559600.0
-2.0,-16.0,2.0,1.0,-10.0,-3.0,0.0,1.0,1651025644559600.0
5.0,8.0,-8.0,-5.0,-10.0,-5.0,0.0,-1.0,1651025644566844.0
-2.0,9.0,-2.0,-2.0,1.0,1.0,-1.0,-2.0,1651025644566844.0
-5.0,4.0,5.0,-4.0,-8.0,-3.0,-2.0,-5.0,1651025644573615.0
0.0,-4.0,4.0,2.0,3.0,3.0,1.0,2.0,1651025644573615.0
6.0,6.0,7.0,2.0,-5.0,-1.0,0.0,3.0,1651025644589603.0
0.0,14.0,2.0,2.0,3.0,0.0,-1.0,-1.0,1651025644589603.0
-5.0,9.0,-16.0,-4.0,2.0,-2.0,-2.0,-2.0,1651025644591604.0
-7.0,-6.0,-6.0,-6.0,-18.0,-1.0,-1.0,-2.0,1651025644591604.0
0.0,-9.0,-3.0,-1.0,15.0,-3.0,-1.0,2.0,1651025644611886.0
4.0,0.0,7.0,5.0,2.0,0.0,0.0,-1.0,1651025644611886.0
0.0,29.0,9.0,5.0,-4.0,0.0,0.0,-1.0,1651025644613902.0
-1.0,-16.0,-4.0,-1.0,3.0,0.0,0.0,0.0,1651025644613902.0
0.0,15.0,-1.0,-2.0,-6.0,-1.0,-1.0,0.0,1651025644625916.0
-11.0,-26.0,-5.0,-4.0,-18.0,-8.0,-3.0,-4.0,1651025644625916.0
1.0,0.0,-2.0,-3.0,11.0,3.0,0.0,-3.0,1651025644634540.0
-1.0,-16.0,1.0,6.0,0.0,2.0,3.0,1.0,1651025644634540.0
-2.0,9.0,3.0,1.0,3.0,-2.0,-1.0,1.0,1651025644650026.0
2.0,7.0,2.0,0.0,3.0,2.0,0.0,3.0,1651025644650026.0
4.0,36.0,5.0,-7.0,-17.0,-9.0,-3.0,0.0,1651025644650958.0
-6.0,-20.0,0.0,-3.0,4.0,5.0,-2.0,-4.0,1651025644650958.0
-9.0,5.0,-20.0,-4.0,2.0,-4.0,-2.0,-3.0,1651025644672247.0
1.0,-6.0,3.0,3.0,11.0,2.0,0.0,-1.0,1651025644672247.0
0.0,-25.0,-10.0,0.0,-15.0,-2.0,2.0,2.0,1651025644673178.0
-1.0,14.0,0.0,-2.0,2.0,-6.0,-3.0,-2.0,1651025644673178.0
2.0,8.0,12.0,1.0,4.0,4.0,-1.0,0.0,1651025644686191.0
5.0,12.0,4.0,2.0,-4.0,1.0,1.0,1.0,1651025644686191.0
-6.0,-12.0,-9.0,-1.0,8.0,1.0,0.0,-2.0,1651025644694843.0
-3.0,-11.0,-8.0,-2.0,-10.0,-4.0,0.0,0.0,1651025644694843.0
-3.0,-33.0,-3.0,-1.0,-5.0,-2.0,0.0,-1.0,1651025644709805.0
7.0,49.0,4.0,-2.0,-6.0,-7.0,0.0,3.0,1651025644709805.0
-9.0,-24.0,8.0,7.0,15.0,9.0,-1.0,-1.0,1651025644710803.0
-5.0,-12.0,-7.0,-2.0,-4.0,-3.0,-2.0,-2.0,1651025644710803.0
12.0,30.0,11.0,3.0,2.0,-2.0,1.0,3.0,1651025644732536.0
-16.0,-55.0,-19.0,-5.0,-3.0,-2.0,-2.0,-4.0,1651025644732536.0
3.0,17.0,1.0,-4.0,-4.0,-3.0,0.0,-2.0,1651025644733548.0
0.0,-18.0,-4.0,-2.0,0.0,-1.0,1.0,1.0,1651025644733548.0
-8.0,-2.0,-6.0,-4.0,-9.0,-2.0,-1.0,-4.0,1651025644746605.0
6.0,9.0,7.0,2.0,7.0,2.0,-2.0,1.0,1651025644746605.0
1.0,-6.0,-4.0,-1.0,-10.0,-4.0,0.0,-1.0,1651025644753539.0
-1.0,17.0,0.0,0.0,13.0,4.0,0.0,-3.0,1651025644753539.0
2.0,-20.0,1.0,0.0,-2.0,1.0,1.0,1.0,1651025644769565.0
1.0,-3.0,0.0,-6.0,-12.0,-5.0,0.0,-2.0,1651025644769565.0
0.0,10.0,14.0,7.0,23.0,6.0,-1.0,1.0,1651025644771492.0
0.0,-5.0,-23.0,-3.0,-11.0,-4.0,-1.0,0.0,1651025644771492.0
3.0,19.0,9.0,3.0,10.0,2.0,1.0,0.0,1651025644792519.0
-4.0,2.0,-6.0,-3.0,-3.0,2.0,0.0,0.0,1651025644792519.0
1.0,-17.0,2.0,0.0,-11.0,-4.0,-2.0,-2.0,1651025644793434.0
3.0,2.0,12.0,1.0,-1.0,-2.0,0.0,1.0,1651025644793434.0
-2.0,12.0,-9.0,-2.0,-3.0,-3.0,-2.0,-1.0,1651025644805469.0
3.0,8.0,5.0,0.0,-3.0,-2.0,0.0,-1.0,1651025644805469.0
1.0,-20.0,1.0,0.0,9.0,-2.0,1.0,2.0,1651025644821054.0
-6.0,8.0,-9.0,0.0,3.0,5.0,0.0,-1.0,1651025644821054.0
0.0,-1.0,-3.0,-5.0,-11.0,-5.0,0.0,-1.0,1651025644830058.0
6.0,21.0,10.0,3.0,8.0,2.0,-1.0,2.0,1651025644830058.0
-5.0,-4.0,-7.0,-3.0,-6.0,-2.0,-1.0,-3.0,1651025644831033.0
3.0,11.0,10.0,1.0,0.0,0.0,-2.0,-1.0,1651025644831033.0
0.0,-43.0,0.0,0.0,3.0,2.0,-2.0,2.0,1651025644852040.0
-2.0,-5.0,-6.0,0.0,-1.0,0.0,0.0,-3.0,1651025644852040.0
1.0,6.0,-5.0,-2.0,-3.0,0.0,0.0,1.0,1651025644853997.0
2.0,-10.0,1.0,-1.0,-4.0,0.0,0.0,3.0,1651025644853997.0
-10.0,35.0,6.0,-3.0,-3.0,-3.0,-3.0,-7.0,1651025644866843.0
3.0,2.0,-2.0,0.0,0.0,1.0,1.0,1.0,1651025644866843.0
-2.0,0.0,-3.0,-4.0,-6.0,-5.0,-1.0,0.0,1651025644872897.0
5.0,30.0,10.0,9.0,31.0,9.0,4.0,3.0,1651025644872897.0
-6.0,-31.0,-8.0,-4.0,-14.0,-2.0,1.0,2.0,1651025644889851.0
-4.0,3.0,3.0,1.0,11.0,2.0,0.0,-2.0,1651025644889851.0
1.0,21.0,6.0,1.0,-8.0,-2.0,0.0,1.0,1651025644890790.0
1.0,-7.0,-9.0,-2.0,-11.0,-5.0,-1.0,-1.0,1651025644890790.0
4.0,4.0,5.0,2.0,6.0,-1.0,1.0,2.0,1651025644911857.0
-4.0,-27.0,-7.0,-2.0,-3.0,3.0,-1.0,-1.0,1651025644911857.0
4.0,16.0,1.0,-3.0,-11.0,-4.0,-1.0,-1.0,1651025644913815.0
-1.0,-5.0,2.0,-2.0,1.0,1.0,-3.0,-2.0,1651025644913815.0
4.0,4.0,-7.0,1.0,8.0,5.0,1.0,2.0,1651025644925820.0
-6.0,-9.0,1.0,1.0,-8.0,-4.0,0.0,-1.0,1651025644925820.0
3.0,2.0,4.0,2.0,16.0,1.0,1.0,1.0,1651025644934772.0
1.0,-24.0,1.0,1.0,-7.0,-2.0,1.0,1.0,1651025644934772.0
-5.0,-4.0,-9.0,-3.0,-8.0,-3.0,-3.0,-4.0,1651025644949944.0
2.0,13.0,1.0,-2.0,-1.0,2.0,-1.0,-1.0,1651025644949944.0
-2.0,-7.0,-5.0,-2.0,0.0,0.0,0.0,-1.0,1651025644950875.0
-1.0,-4.0,9.0,1.0,-4.0,-3.0,-1.0,-1.0,1651025644950875.0
-5.0,-44.0,-10.0,-5.0,-12.0,-1.0,-1.0,-3.0,1651025644971878.0
1.0,7.0,-6.0,0.0,11.0,-2.0,-1.0,0.0,1651025644971878.0
-5.0,-4.0,-2.0,1.0,6.0,2.0,-2.0,-3.0,1651025644973813.0
3.0,18.0,4.0,-1.0,-3.0,-1.0,0.0,3.0,1651025644973813.0
-7.0,-2.0,1.0,0.0,0.0,0.0,-1.0,0.0,1651025644985845.0
1.0,3.0,-3.0,-3.0,-6.0,-2.0,-1.0,0.0,1651025644985845.0
3.0,4.0,-2.0,-4.0,-5.0,-2.0,0.0,1.0,1651025644994758.0
-3.0,7.0,2.0,2.0,6.0,-3.0,-2.0,-2.0,1651025644994758.0
-2.0,25.0,9.0,6.0,2.0,2.0,-2.0,-3.0,1651025645009841.0
1.0,-3.0,-1.0,4.0,11.0,1.0,-1.0,0.0,1651025645009841.0
-1.0,-1.0,-3.0,-1.0,5.0,3.0,0.0,1.0,1651025645010769.0
-1.0,-3.0,-4.0,-4.0,-10.0,-4.0,-3.0,-2.0,1651025645010769.0
1.0,-14.0,-2.0,-1.0,0.0,0.0,3.0,4.0,1651025645031715.0
1.0,0.0,4.0,-1.0,-2.0,1.0,1.0,1.0,1651025645031715.0
-2.0,4.0,0.0,0.0,-5.0,-1.0,0.0,-1.0,1651025645033710.0
-1.0,-4.0,-2.0,-1.0,3.0,2.0,0.0,-1.0,1651025645033710.0
2.0,-4.0,2.0,-1.0,0.0,-1.0,-1.0,-1.0,1651025645045680.0
-2.0,-1.0,-9.0,-2.0,-3.0,-2.0,-1.0,1.0,1651025645045680.0
1.0,-2.0,-3.0,-6.0,-13.0,0.0,0.0,-1.0,1651025645054652.0
-1.0,-11.0,-4.0,0.0,4.0,-4.0,1.0,-1.0,1651025645054652.0
4.0,13.0,8.0,10.0,33.0,7.0,1.0,1.0,1651025645076594.0
2.0,-12.0,-4.0,-2.0,-13.0,-2.0,2.0,2.0,1651025645076594.0
-16.0,-48.0,-14.0,-5.0,-2.0,-3.0,-4.0,-5.0,1651025645078597.0
1.0,9.0,-2.0,-4.0,-10.0,-2.0,-2.0,-1.0,1651025645078597.0
8.0,23.0,4.0,-5.0,-11.0,-3.0,0.0,1.0,1651025645092552.0
-7.0,-16.0,-5.0,-3.0,5.0,-1.0,-1.0,-4.0,1651025645092552.0
5.0,19.0,4.0,-2.0,-30.0,-12.0,0.0,1.0,1651025645093549.0
-7.0,-4.0,0.0,3.0,24.0,11.0,-1.0,-3.0,1651025645093549.0
1.0,-15.0,0.0,2.0,-4.0,-2.0,0.0,1.0,1651025645105519.0
4.0,18.0,5.0,2.0,-2.0,-3.0,-1.0,1.0,1651025645105519.0
0.0,1.0,0.0,0.0,1.0,1.0,0.0,0.0,1651025645114495.0
-5.0,-7.0,-4.0,-3.0,-9.0,-6.0,-2.0,-2.0,1651025645114495.0
2.0,12.0,2.0,-1.0,1.0,-1.0,0.0,-1.0,1651025645129480.0
-1.0,-4.0,-2.0,-2.0,-5.0,2.0,0.0,0.0,1651025645129480.0
1.0,18.0,1.0,-2.0,2.0,-3.0,-2.0,-2.0,1651025645131476.0
5.0,6.0,-2.0,-3.0,-3.0,-4.0,0.0,1.0,1651025645131476.0
0.0,-3.0,1.0,2.0,14.0,1.0,0.0,-1.0,1651025645151957.0
0.0,7.0,5.0,3.0,-6.0,-1.0,3.0,2.0,1651025645151957.0
-5.0,-23.0,-4.0,-1.0,10.0,4.0,0.0,0.0,1651025645153883.0
2.0,-11.0,0.0,-1.0,-7.0,0.0,0.0,-1.0,1651025645153883.0
-7.0,3.0,-2.0,-2.0,-14.0,-6.0,-2.0,-1.0,1651025645165964.0
-2.0,-9.0,0.0,2.0,12.0,5.0,0.0,-1.0,1651025645165964.0
5.0,18.0,5.0,5.0,4.0,1.0,2.0,2.0,1651025645181927.0
-8.0,-24.0,-12.0,-6.0,-11.0,-4.0,-1.0,-2.0,1651025645181927.0
1.0,17.0,4.0,-2.0,-4.0,-1.0,-1.0,-1.0,1651025645190020.0
1.0,10.0,4.0,4.0,10.0,2.0,-1.0,-3.0,1651025645190020.0
-4.0,-32.0,-4.0,0.0,0.0,1.0,1.0,-1.0,1651025645190929.0
7.0,55.0,10.0,0.0,6.0,2.0,1.0,0.0,1651025645190929.0
3.0,1.0,-2.0,-2.0,-14.0,-4.0,0.0,3.0,1651025645210902.0
-3.0,0.0,1.0,-3.0,3.0,1.0,0.0,-2.0,1651025645210902.0
3.0,-2.0,1.0,2.0,1.0,2.0,0.0,-1.0,1651025645219852.0
1.0,4.0,0.0,-4.0,-7.0,-6.0,0.0,0.0,1651025645219852.0
-1.0,-11.0,-5.0,-4.0,10.0,4.0,-2.0,-1.0,1651025645225902.0
1.0,10.0,7.0,6.0,25.0,8.0,-1.0,-1.0,1651025645225902.0
1.0,2.0,-1.0,1.0,-6.0,-2.0,1.0,0.0,1651025645234980.0
-4.0,-9.0,-5.0,6.0,6.0,1.0,1.0,0.0,1651025645234980.0
2.0,19.0,4.0,-2.0,-12.0,-5.0,-1.0,0.0,1651025645250119.0
-5.0,-7.0,-4.0,-7.0,-15.0,-8.0,-2.0,-1.0,1651025645250119.0
2.0,9.0,2.0,0.0,9.0,2.0,-1.0,-1.0,1651025645251116.0
-4.0,4.0,1.0,0.0,-6.0,-1.0,-2.0,-1.0,1651025645251116.0
2.0,0.0,-2.0,-1.0,-28.0,-7.0,-1.0,-3.0,1651025645272129.0
-3.0,-7.0,3.0,2.0,27.0,9.0,-1.0,0.0,1651025645272129.0
-1.0,-4.0,0.0,0.0,3.0,1.0,1.0,1.0,1651025645274081.0
2.0,6.0,3.0,2.0,-9.0,-4.0,2.0,2.0,1651025645274081.0
-4.0,-24.0,-5.0,-2.0,5.0,2.0,1.0,0.0,1651025645286090.0
12.0,19.0,-5.0,-3.0,-15.0,-6.0,0.0,0.0,1651025645286090.0
-5.0,5.0,6.0,-2.0,-3.0,-2.0,-4.0,-1.0,1651025645302568.0
-4.0,-24.0,-9.0,-2.0,6.0,3.0,-2.0,-3.0,1651025645302568.0
1.0,5.0,-2.0,1.0,7.0,2.0,1.0,1.0,1651025645308562.0
0.0,-14.0,0.0,-2.0,-13.0,-2.0,2.0,0.0,1651025645308562.0
7.0,38.0,3.0,-3.0,3.0,0.0,-1.0,0.0,1651025645323512.0
0.0,9.0,4.0,7.0,-2.0,-1.0,1.0,0.0,1651025645323512.0
-6.0,-10.0,-4.0,1.0,14.0,2.0,-1.0,-1.0,1651025645331559.0
1.0,0.0,3.0,-5.0,-12.0,-2.0,-1.0,0.0,1651025645331559.0
-6.0,-21.0,-12.0,3.0,6.0,1.0,-1.0,-1.0,1651025645338540.0
-2.0,-16.0,-2.0,-1.0,0.0,1.0,-1.0,-1.0,1651025645338540.0
3.0,5.0,-1.0,-1.0,-2.0,2.0,-3.0,0.0,1651025645354490.0
-2.0,5.0,3.0,0.0,-5.0,-2.0,-1.0,-1.0,1651025645354490.0
2.0,0.0,-1.0,-5.0,-22.0,-6.0,0.0,0.0,1651025645356447.0
6.0,6.0,0.0,-3.0,7.0,5.0,1.0,1.0,1651025645356447.0
-9.0,-34.0,-3.0,5.0,28.0,4.0,-2.0,-3.0,1651025645369389.0
-3.0,-3.0,0.0,2.0,-5.0,1.0,0.0,-2.0,1651025645369389.0
0.0,9.0,3.0,2.0,-3.0,-3.0,-1.0,0.0,1651025645371412.0
3.0,-2.0,0.0,-3.0,-4.0,-4.0,0.0,2.0,1651025645371412.0
-5.0,-17.0,-13.0,-6.0,-7.0,-2.0,0.0,-1.0,1651025645392328.0
0.0,6.0,0.0,-2.0,-3.0,-4.0,-2.0,0.0,1651025645392328.0
0.0,-11.0,-1.0,1.0,7.0,-1.0,-1.0,0.0,1651025645393325.0
-2.0,31.0,6.0,-2.0,-10.0,-1.0,-3.0,-3.0,1651025645393325.0
2.0,9.0,6.0,2.0,16.0,3.0,1.0,1.0,1651025645414269.0
-1.0,-1.0,0.0,1.0,-1.0,0.0,-2.0,-1.0,1651025645414269.0
1.0,10.0,1.0,2.0,1.0,1.0,0.0,1.0,1651025645416264.0
-3.0,-2.0,3.0,-3.0,-4.0,-3.0,0.0,-1.0,1651025645416264.0
-3.0,-6.0,-6.0,-6.0,-14.0,-1.0,-1.0,0.0,1651025645429230.0
0.0,-2.0,-3.0,-5.0,-4.0,-2.0,0.0,-1.0,1651025645429230.0
0.0,-2.0,1.0,0.0,2.0,0.0,0.0,-1.0,1651025645431224.0
-3.0,-13.0,3.0,5.0,9.0,2.0,-1.0,1.0,1651025645431224.0
-2.0,6.0,1.0,-1.0,-2.0,0.0,0.0,-2.0,1651025645451832.0
-2.0,0.0,-4.0,-3.0,-3.0,-4.0,-1.0,0.0,1651025645451832.0
0.0,-4.0,2.0,0.0,0.0,1.0,-1.0,-2.0,1651025645453827.0
0.0,0.0,-3.0,-1.0,1.0,-2.0,0.0,0.0,1651025645453827.0
2.0,8.0,-3.0,-3.0,-27.0,-10.0,-1.0,0.0,1651025645482549.0
-1.0,-5.0,-4.0,-1.0,23.0,9.0,0.0,-2.0,1651025645482549.0
2.0,3.0,0.0,4.0,2.0,2.0,2.0,1.0,1651025645483520.0
-6.0,-16.0,-1.0,-3.0,-8.0,0.0,-1.0,-2.0,1651025645483520.0
4.0,-1.0,-4.0,-3.0,2.0,-1.0,0.0,0.0,1651025645488536.0
0.0,-6.0,-3.0,-3.0,-16.0,-8.0,-2.0,0.0,1651025645488536.0
0.0,15.0,-4.0,-3.0,18.0,5.0,-2.0,-2.0,1651025645495515.0
-1.0,-6.0,-1.0,1.0,-6.0,-1.0,-1.0,0.0,1651025645495515.0
-2.0,0.0,3.0,1.0,-3.0,1.0,0.0,0.0,1651025645512490.0
2.0,-5.0,-1.0,-1.0,-5.0,-3.0,-1.0,0.0,1651025645512490.0
-2.0,-4.0,-1.0,-2.0,2.0,-1.0,0.0,-2.0,1651025645513491.0
2.0,-4.0,-4.0,0.0,-2.0,-2.0,-2.0,1.0,1651025645513491.0
0.0,5.0,6.0,2.0,0.0,1.0,-1.0,-2.0,1651025645534936.0
-3.0,-3.0,-1.0,0.0,1.0,-1.0,-1.0,1.0,1651025645534936.0
1.0,-1.0,-3.0,-6.0,-6.0,-1.0,-1.0,1.0,1651025645535935.0
1.0,-2.0,2.0,0.0,4.0,2.0,-1.0,-1.0,1651025645535935.0
1.0,-3.0,-2.0,7.0,6.0,0.0,0.0,-2.0,1651025645549083.0
1.0,8.0,3.0,0.0,-8.0,-1.0,-1.0,-2.0,1651025645549083.0
-3.0,-10.0,0.0,0.0,3.0,-1.0,1.0,0.0,1651025645556063.0
1.0,0.0,-4.0,0.0,16.0,1.0,-1.0,0.0,1651025645556063.0
-1.0,7.0,8.0,3.0,6.0,2.0,1.0,-1.0,1651025645571953.0
1.0,3.0,0.0,0.0,-12.0,-1.0,-1.0,0.0,1651025645571953.0
4.0,6.0,0.0,-3.0,-4.0,-1.0,-1.0,2.0,1651025645577966.0
-3.0,-4.0,-3.0,-1.0,4.0,0.0,0.0,-3.0,1651025645577966.0
-1.0,13.0,0.0,0.0,-2.0,-4.0,-1.0,0.0,1651025645594652.0
0.0,1.0,2.0,-5.0,-4.0,-3.0,-1.0,1.0,1651025645594652.0
4.0,-1.0,12.0,6.0,6.0,2.0,0.0,1.0,1651025645596576.0
3.0,9.0,-3.0,1.0,-6.0,-1.0,0.0,-1.0,1651025645596576.0
-4.0,-13.0,-9.0,-6.0,-7.0,-3.0,-3.0,-1.0,1651025645608543.0
-4.0,-8.0,-2.0,0.0,3.0,0.0,-1.0,-1.0,1651025645608543.0
-1.0,3.0,-2.0,-1.0,-4.0,0.0,-2.0,-1.0,1651025645615529.0
-2.0,-3.0,8.0,-1.0,1.0,0.0,0.0,0.0,1651025645615529.0
1.0,4.0,1.0,3.0,-10.0,-2.0,0.0,0.0,1651025645631601.0
-3.0,-10.0,-13.0,-4.0,-12.0,-3.0,0.0,-2.0,1651025645631601.0
-3.0,-6.0,1.0,1.0,34.0,4.0,0.0,-1.0,1651025645633594.0
2.0,1.0,2.0,0.0,-11.0,-2.0,1.0,0.0,1651025645633594.0
0.0,-2.0,-2.0,-2.0,-2.0,-2.0,0.0,-1.0,1651025645654726.0
0.0,-4.0,1.0,0.0,-20.0,-4.0,-2.0,-1.0,1651025645654726.0
-4.0,-5.0,-8.0,-2.0,-10.0,-4.0,-1.0,-1.0,1651025645655656.0
-4.0,1.0,-1.0,-1.0,14.0,9.0,1.0,-1.0,1651025645655656.0
3.0,7.0,3.0,1.0,3.0,1.0,3.0,1.0,1651025645668655.0
-3.0,-2.0,-1.0,2.0,4.0,1.0,-1.0,1.0,1651025645668655.0
-2.0,-3.0,-12.0,-7.0,-15.0,-5.0,-1.0,-1.0,1651025645675609.0
1.0,-6.0,2.0,3.0,3.0,-2.0,-1.0,1.0,1651025645675609.0
-3.0,-10.0,5.0,3.0,0.0,3.0,1.0,-2.0,1651025645691559.0
-1.0,7.0,-3.0,-3.0,2.0,-4.0,1.0,-1.0,1651025645691559.0
4.0,14.0,4.0,-3.0,-4.0,-1.0,-1.0,0.0,1651025645693554.0
-2.0,-11.0,-8.0,-6.0,-10.0,-1.0,-2.0,0.0,1651025645693554.0
0.0,4.0,1.0,1.0,4.0,0.0,-1.0,-1.0,1651025645714508.0
-2.0,-9.0,-2.0,6.0,19.0,4.0,1.0,-1.0,1651025645714508.0
3.0,3.0,-1.0,-1.0,-8.0,0.0,1.0,2.0,1651025645716492.0
1.0,22.0,2.0,-2.0,-3.0,-5.0,-1.0,-2.0,1651025645716492.0
0.0,-9.0,-3.0,-4.0,-7.0,-1.0,-2.0,1.0,1651025645728525.0
-7.0,-10.0,-3.0,-2.0,2.0,1.0,1.0,-3.0,1651025645728525.0
0.0,8.0,4.0,1.0,1.0,0.0,-2.0,-2.0,1651025645737562.0
3.0,27.0,4.0,-2.0,-17.0,-6.0,-2.0,-1.0,1651025645737562.0
4.0,-5.0,-6.0,-3.0,10.0,5.0,0.0,1.0,1651025645751769.0
-2.0,16.0,0.0,-3.0,0.0,-3.0,-2.0,-5.0,1651025645751769.0
-3.0,-14.0,-2.0,0.0,-4.0,-2.0,-1.0,-2.0,1651025645753696.0
3.0,22.0,2.0,-2.0,6.0,-2.0,1.0,0.0,1651025645753696.0
-2.0,-14.0,-4.0,-6.0,-6.0,0.0,-1.0,-1.0,1651025645774933.0
8.0,13.0,5.0,5.0,13.0,1.0,1.0,3.0,1651025645774933.0
-6.0,3.0,8.0,4.0,-10.0,1.0,0.0,1.0,1651025645775920.0
2.0,-5.0,-16.0,-10.0,-5.0,-2.0,-1.0,-1.0,1651025645775920.0
-2.0,0.0,17.0,3.0,15.0,3.0,-3.0,1.0,1651025645788953.0
4.0,4.0,-13.0,4.0,2.0,4.0,1.0,0.0,1651025645788953.0
1.0,2.0,1.0,-3.0,-4.0,-2.0,0.0,-1.0,1651025645795934.0
-2.0,-26.0,-15.0,-3.0,-4.0,-2.0,-1.0,1.0,1651025645795934.0
-1.0,9.0,0.0,-10.0,-9.0,-1.0,1.0,-2.0,1651025645811956.0
-3.0,-9.0,14.0,6.0,2.0,0.0,2.0,0.0,1651025645811956.0
1.0,3.0,-2.0,2.0,4.0,-4.0,-1.0,-1.0,1651025645813911.0
-3.0,-13.0,2.0,-2.0,0.0,0.0,0.0,1.0,1651025645813911.0
3.0,6.0,0.0,3.0,-18.0,-7.0,0.0,0.0,1651025645834950.0
0.0,2.0,1.0,-11.0,6.0,2.0,-1.0,0.0,1651025645834950.0
-6.0,-33.0,-23.0,0.0,-1.0,-1.0,-2.0,-6.0,1651025645835878.0
-1.0,-17.0,-5.0,0.0,-1.0,-1.0,-1.0,0.0,1651025645835878.0
-2.0,6.0,-21.0,-14.0,-17.0,-5.0,-7.0,-3.0,1651025645847909.0
9.0,14.0,36.0,15.0,15.0,2.0,-4.0,-1.0,1651025645847909.0
10.0,27.0,15.0,13.0,9.0,8.0,9.0,13.0,1651025645856839.0
-23.0,-45.0,10.0,7.0,5.0,-1.0,1.0,-10.0,1651025645856839.0
51.0,20.0,-12.0,-27.0,-1.0,4.0,21.0,9.0,1651025645871961.0
-46.0,-25.0,-44.0,-33.0,-19.0,0.0,33.0,7.0,1651025645871961.0
2.0,0.0,-4.0,43.0,2.0,-6.0,-62.0,-22.0,1651025645873963.0
9.0,23.0,47.0,41.0,20.0,-11.0,-45.0,-12.0,1651025645873963.0
92.0,15.0,-39.0,-42.0,2.0,18.0,15.0,31.0,1651025645894898.0
-68.0,15.0,5.0,-1.0,-4.0,-30.0,-8.0,-15.0,1651025645894898.0
-53.0,-89.0,-56.0,-68.0,-30.0,1.0,28.0,-25.0,1651025645896918.0
15.0,-4.0,-3.0,-7.0,-22.0,-18.0,-20.0,-8.0,1651025645896918.0
-13.0,24.0,72.0,70.0,18.0,-91.0,-38.0,-12.0,1651025645907936.0
58.0,20.0,-1.0,5.0,-13.0,66.0,-7.0,18.0,1651025645907936.0
47.0,10.0,-28.0,-26.0,6.0,0.0,56.0,21.0,1651025645916851.0
62.0,43.0,-9.0,-5.0,6.0,-3.0,13.0,34.0,1651025645916851.0
-55.0,-28.0,-26.0,-76.0,-27.0,-44.0,-89.0,-31.0,1651025645931997.0
-69.0,-70.0,1.0,75.0,11.0,-25.0,60.0,-58.0,1651025645931997.0
-2.0,-4.0,38.0,41.0,5.0,9.0,30.0,24.0,1651025645933952.0
-42.0,-9.0,-20.0,-41.0,-22.0,-25.0,-26.0,-60.0,1651025645933952.0
-15.0,29.0,69.0,115.0,73.0,57.0,119.0,49.0,1651025645955072.0
73.0,25.0,6.0,-11.0,-13.0,-66.0,-128.0,-24.0,1651025645955072.0
-14.0,-44.0,-6.0,-33.0,-10.0,-30.0,127.0,3.0,1651025645956070.0
0.0,-14.0,-39.0,-24.0,15.0,-10.0,-18.0,15.0,1651025645956070.0
-46.0,-12.0,-11.0,-4.0,-30.0,55.0,18.0,-32.0,1651025645968067.0
2.0,19.0,-7.0,-83.0,-4.0,73.0,40.0,8.0,1651025645968067.0
82.0,48.0,47.0,88.0,60.0,-23.0,-45.0,20.0,1651025645983582.0
-26.0,-25.0,-17.0,-55.0,-49.0,-90.0,-14.0,-1.0,1651025645983582.0
-10.0,-16.0,-22.0,-24.0,0.0,83.0,-3.0,16.0,1651025645991630.0
10.0,11.0,15.0,8.0,12.0,13.0,22.0,-7.0,1651025645991630.0
13.0,43.0,-8.0,-74.0,-25.0,8.0,9.0,14.0,1651025645993558.0
-10.0,-14.0,8.0,63.0,15.0,-27.0,-64.0,-16.0,1651025645993558.0
-4.0,-16.0,-3.0,19.0,-4.0,-71.0,-35.0,-29.0,1651025646014721.0
34.0,9.0,-12.0,-16.0,-30.0,-114.0,-7.0,43.0,1651025646014721.0
-37.0,8.0,-4.0,-16.0,5.0,87.0,14.0,-12.0,1651025646016715.0
-4.0,-8.0,-4.0,-7.0,-6.0,21.0,62.0,14.0,1651025646016715.0
6.0,18.0,30.0,49.0,12.0,-5.0,-26.0,1.0,1651025646027918.0
2.0,-6.0,-15.0,-7.0,27.0,9.0,-20.0,6.0,1651025646027918.0
-12.0,-5.0,11.0,28.0,-7.0,-52.0,-38.0,-19.0,1651025646036876.0
2.0,-3.0,-15.0,-21.0,0.0,31.0,12.0,2.0,1651025646036876.0
-35.0,2.0,2.0,4.0,-11.0,-8.0,23.0,6.0,1651025646052891.0
35.0,9.0,7.0,-12.0,-37.0,6.0,11.0,9.0,1651025646052891.0
-20.0,-4.0,-6.0,-14.0,15.0,1.0,-48.0,-15.0,1651025646053831.0
18.0,4.0,-3.0,0.0,17.0,37.0,44.0,17.0,1651025646053831.0
-8.0,-3.0,-12.0,-46.0,-2.0,-17.0,7.0,-4.0,1651025646074951.0
-4.0,-4.0,0.0,35.0,3.0,4.0,-4.0,2.0,1651025646074951.0
-8.0,8.0,1.0,-8.0,-15.0,-9.0,-27.0,-2.0,1651025646075771.0
25.0,14.0,30.0,32.0,22.0,30.0,53.0,25.0,1651025646075771.0
13.0,-6.0,-14.0,3.0,-3.0,-10.0,-8.0,-11.0,1651025646087808.0
-26.0,-3.0,3.0,1.0,-3.0,-15.0,-6.0,-8.0,1651025646087808.0
34.0,10.0,5.0,10.0,-3.0,11.0,0.0,15.0,1651025646097715.0
-18.0,2.0,-5.0,-19.0,-3.0,-18.0,0.0,1.0,1651025646097715.0
4.0,-1.0,-1.0,0.0,-1.0,-13.0,8.0,0.0,1651025646112575.0
14.0,-1.0,15.0,37.0,24.0,66.0,37.0,4.0,1651025646112575.0
-8.0,9.0,-7.0,-18.0,-10.0,-23.0,-35.0,-3.0,1651025646113523.0
-40.0,-29.0,-16.0,-11.0,-11.0,-10.0,-23.0,-32.0,1651025646113523.0
23.0,7.0,8.0,2.0,5.0,-12.0,-7.0,11.0,1651025646134529.0
-28.0,-24.0,-21.0,-14.0,-6.0,-23.0,-10.0,-26.0,1651025646134529.0
22.0,-8.0,-4.0,-6.0,-4.0,18.0,27.0,23.0,1651025646136485.0
-14.0,13.0,6.0,-4.0,-5.0,35.0,29.0,8.0,1651025646136485.0
17.0,-2.0,-4.0,4.0,9.0,2.0,-1.0,1.0,1651025646157490.0
2.0,2.0,7.0,4.0,0.0,-22.0,1.0,3.0,1651025646157490.0
-17.0,-3.0,-12.0,-14.0,-5.0,-9.0,-8.0,-7.0,1651025646158814.0
22.0,19.0,8.0,5.0,0.0,19.0,30.0,13.0,1651025646158814.0
-15.0,-36.0,-26.0,-32.0,-24.0,-18.0,-55.0,-28.0,1651025646170984.0
10.0,14.0,15.0,13.0,19.0,10.0,25.0,20.0,1651025646170984.0
-30.0,-20.0,-2.0,16.0,1.0,-6.0,3.0,-22.0,1651025646178033.0
7.0,19.0,10.0,13.0,2.0,-27.0,-40.0,-10.0,1651025646178033.0
10.0,-3.0,-1.0,-7.0,-6.0,2.0,10.0,0.0,1651025646194742.0
4.0,-11.0,-15.0,-16.0,-3.0,15.0,-3.0,4.0,1651025646194742.0
24.0,7.0,-3.0,-12.0,-7.0,-16.0,3.0,1.0,1651025646195792.0
-23.0,-1.0,15.0,32.0,11.0,-4.0,1.0,-1.0,1651025646195792.0
-8.0,-5.0,-16.0,-29.0,-3.0,39.0,21.0,-2.0,1651025646207647.0
1.0,-5.0,3.0,-3.0,-7.0,3.0,50.0,10.0,1651025646207647.0
-13.0,12.0,0.0,3.0,11.0,-14.0,-17.0,-2.0,1651025646217640.0
-21.0,3.0,14.0,30.0,22.0,51.0,-2.0,6.0,1651025646217640.0
51.0,-3.0,-16.0,-40.0,-17.0,-27.0,-15.0,9.0,1651025646231575.0
-12.0,6.0,20.0,36.0,6.0,4.0,41.0,4.0,1651025646231575.0
8.0,-5.0,2.0,14.0,-1.0,-8.0,-70.0,-15.0,1651025646238595.0
6.0,-1.0,-9.0,-28.0,-2.0,0.0,11.0,5.0,1651025646238595.0
-8.0,7.0,8.0,6.0,-10.0,-1.0,11.0,0.0,1651025646254581.0
-20.0,-3.0,-2.0,3.0,6.0,-2.0,-22.0,-12.0,1651025646254581.0
-9.0,8.0,5.0,1.0,-9.0,-10.0,11.0,1.0,1651025646256538.0
26.0,-7.0,1.0,17.0,17.0,4.0,4.0,5.0,1651025646256538.0
-15.0,1.0,5.0,8.0,3.0,-6.0,9.0,-3.0,1651025646277534.0
13.0,-4.0,-7.0,-9.0,-9.0,-12.0,-9.0,5.0,1651025646277534.0
-25.0,7.0,-4.0,-17.0,-4.0,11.0,10.0,-4.0,1651025646278542.0
21.0,1.0,12.0,13.0,-8.0,-1.0,0.0,11.0,1651025646278542.0
2.0,0.0,-5.0,11.0,17.0,20.0,20.0,10.0,1651025646292572.0
-20.0,8.0,7.0,-9.0,4.0,30.0,29.0,0.0,1651025646292572.0
-19.0,-16.0,-5.0,-7.0,-4.0,-26.0,-32.0,-6.0,1651025646293572.0
-32.0,3.0,-8.0,-11.0,-7.0,-12.0,-6.0,-17.0,1651025646293572.0
-4.0,-2.0,3.0,12.0,1.0,-8.0,7.0,-4.0,1651025646314705.0
12.0,-8.0,-19.0,-32.0,-6.0,-7.0,-32.0,1.0,1651025646314705.0
-11.0,7.0,-8.0,-9.0,-10.0,-2.0,13.0,-2.0,1651025646315636.0
18.0,-25.0,-2.0,-15.0,-12.0,-15.0,5.0,-7.0,1651025646315636.0
-11.0,5.0,7.0,12.0,11.0,6.0,-3.0,3.0,1651025646336836.0
25.0,5.0,-20.0,-35.0,-8.0,-6.0,-8.0,10.0,1651025646336836.0
-5.0,-5.0,21.0,41.0,15.0,10.0,12.0,-7.0,1651025646338862.0
15.0,-1.0,-17.0,-24.0,-12.0,2.0,-7.0,6.0,1651025646338862.0
5.0,-6.0,-5.0,-2.0,5.0,-3.0,12.0,5.0,1651025646351867.0
-2.0,0.0,3.0,13.0,18.0,15.0,42.0,8.0,1651025646351867.0
11.0,-3.0,-11.0,-26.0,-20.0,-24.0,-60.0,-8.0,1651025646353794.0
16.0,1.0,20.0,35.0,7.0,3.0,9.0,1.0,1651025646353794.0
-21.0,-1.0,2.0,3.0,-16.0,-26.0,1.0,-13.0,1651025646374904.0
6.0,5.0,3.0,2.0,9.0,19.0,-25.0,-1.0,1651025646374904.0
-15.0,-13.0,-7.0,-14.0,-6.0,21.0,30.0,-3.0,1651025646375905.0
-10.0,4.0,-1.0,5.0,-5.0,-14.0,7.0,4.0,1651025646375905.0
34.0,6.0,-2.0,-13.0,0.0,5.0,-1.0,8.0,1651025646396916.0
-29.0,-5.0,-2.0,1.0,-8.0,-43.0,-62.0,-17.0,1651025646396916.0
-17.0,-8.0,1.0,-2.0,4.0,30.0,22.0,-7.0,1651025646398873.0
2.0,-9.0,-1.0,6.0,11.0,7.0,-32.0,-10.0,1651025646398873.0
-14.0,7.0,1.0,2.0,-1.0,-3.0,8.0,3.0,1651025646411872.0
19.0,-5.0,-3.0,-30.0,-17.0,-18.0,12.0,6.0,1651025646411872.0
16.0,5.0,1.0,33.0,22.0,12.0,-3.0,7.0,1651025646413803.0
-4.0,9.0,-5.0,-21.0,-10.0,-6.0,16.0,-8.0,1651025646413803.0
-8.0,-5.0,-3.0,-1.0,-4.0,-3.0,-7.0,0.0,1651025646434938.0
-36.0,3.0,8.0,19.0,7.0,14.0,-6.0,-5.0,1651025646434938.0
22.0,-7.0,1.0,-7.0,-5.0,-10.0,14.0,10.0,1651025646435869.0
7.0,-5.0,-6.0,-6.0,2.0,-4.0,8.0,2.0,1651025646435869.0
-26.0,6.0,-7.0,-7.0,-2.0,4.0,-24.0,-16.0,1651025646456913.0
-2.0,-10.0,-4.0,-1.0,-5.0,4.0,11.0,3.0,1651025646456913.0
4.0,3.0,7.0,7.0,2.0,-4.0,-13.0,-2.0,1651025646458881.0
3.0,4.0,-7.0,-12.0,-10.0,-36.0,-18.0,-1.0,1651025646458881.0
-3.0,-11.0,3.0,9.0,4.0,24.0,10.0,4.0,1651025646471864.0
-1.0,-1.0,5.0,16.0,-3.0,-3.0,4.0,-5.0,1651025646471864.0
20.0,14.0,10.0,-1.0,4.0,14.0,21.0,19.0,1651025646485876.0
-7.0,0.0,-15.0,-25.0,-3.0,8.0,5.0,-1.0,1651025646485876.0
-12.0,-1.0,11.0,43.0,16.0,-14.0,-27.0,-8.0,1651025646494787.0
-3.0,-1.0,13.0,19.0,4.0,-1.0,5.0,-8.0,1651025646494787.0
8.0,8.0,-5.0,-10.0,-14.0,-9.0,12.0,7.0,1651025646495783.0
6.0,4.0,-1.0,-7.0,-7.0,-3.0,-14.0,-11.0,1651025646495783.0
6.0,-11.0,-2.0,7.0,23.0,4.0,20.0,11.0,1651025646516794.0
7.0,4.0,-8.0,-7.0,-2.0,7.0,7.0,-1.0,1651025646516794.0
-16.0,1.0,4.0,-6.0,-21.0,-13.0,-33.0,-5.0,1651025646518721.0
-12.0,6.0,5.0,20.0,18.0,10.0,7.0,2.0,1651025646518721.0
28.0,-8.0,-4.0,-16.0,-7.0,-1.0,1.0,2.0,1651025646531754.0
-16.0,-4.0,-12.0,-24.0,-6.0,-5.0,0.0,2.0,1651025646531754.0
3.0,-3.0,16.0,26.0,9.0,-5.0,17.0,0.0,1651025646538696.0
-9.0,-2.0,-3.0,1.0,-6.0,5.0,1.0,-5.0,1651025646538696.0
4.0,4.0,2.0,-1.0,-4.0,6.0,-9.0,0.0,1651025646554813.0
4.0,1.0,-2.0,-12.0,-7.0,-18.0,-7.0,-3.0,1651025646554813.0
16.0,-7.0,-11.0,-6.0,6.0,31.0,33.0,2.0,1651025646555769.0
-20.0,-2.0,1.0,-4.0,1.0,1.0,-18.0,-7.0,1651025646555769.0
29.0,7.0,5.0,24.0,6.0,7.0,22.0,13.0,1651025646576827.0
-11.0,-10.0,-9.0,-19.0,-25.0,-22.0,-32.0,-15.0,1651025646576827.0
-6.0,3.0,1.0,5.0,-4.0,-37.0,-39.0,-13.0,1651025646578823.0
-21.0,-2.0,-2.0,18.0,39.0,32.0,0.0,-8.0,1651025646578823.0
-21.0,-2.0,-1.0,-20.0,-11.0,-10.0,13.0,2.0,1651025646591829.0
11.0,6.0,13.0,25.0,3.0,-2.0,16.0,11.0,1651025646591829.0
11.0,-7.0,-1.0,15.0,7.0,11.0,42.0,5.0,1651025646597840.0
4.0,-7.0,-7.0,-17.0,-19.0,-4.0,-18.0,2.0,1651025646597840.0
-5.0,7.0,-2.0,-14.0,-7.0,1.0,11.0,-1.0,1651025646614795.0
-2.0,5.0,-2.0,5.0,-1.0,3.0,-29.0,-5.0,1651025646614795.0
-15.0,0.0,-2.0,-10.0,2.0,-18.0,1.0,-9.0,1651025646615753.0
11.0,-7.0,-5.0,-7.0,-3.0,10.0,27.0,9.0,1651025646615753.0
1.0,-2.0,0.0,-2.0,-8.0,-13.0,-4.0,-2.0,1651025646636668.0
0.0,-4.0,6.0,18.0,10.0,-3.0,-22.0,-12.0,1651025646636668.0
12.0,11.0,-11.0,-23.0,2.0,53.0,17.0,11.0,1651025646638669.0
9.0,-4.0,6.0,16.0,-2.0,-41.0,-59.0,-32.0,1651025646638669.0
-8.0,-3.0,-18.0,-23.0,-13.0,-5.0,-35.0,-18.0,1651025646651657.0
-5.0,-5.0,-4.0,-7.0,-8.0,-3.0,9.0,2.0,1651025646651657.0
-1.0,-7.0,-5.0,0.0,1.0,-16.0,6.0,5.0,1651025646657638.0
2.0,5.0,-6.0,-31.0,-13.0,19.0,53.0,16.0,1651025646657638.0
-9.0,7.0,15.0,42.0,7.0,-1.0,4.0,-3.0,1651025646674576.0
50.0,6.0,3.0,10.0,13.0,-6.0,-61.0,-16.0,1651025646674576.0
-6.0,-2.0,10.0,15.0,6.0,-4.0,8.0,-3.0,1651025646676584.0
7.0,-2.0,-3.0,-8.0,-35.0,-6.0,-19.0,2.0,1651025646676584.0
-10.0,-3.0,-8.0,-13.0,30.0,10.0,17.0,5.0,1651025646697527.0
11.0,5.0,-1.0,-13.0,2.0,12.0,31.0,17.0,1651025646697527.0
17.0,1.0,0.0,12.0,6.0,3.0,-16.0,-4.0,1651025646698485.0
-2.0,5.0,2.0,-11.0,-3.0,0.0,8.0,6.0,1651025646698485.0
-13.0,-4.0,-2.0,-19.0,-27.0,-4.0,-6.0,-4.0,1651025646711451.0
-3.0,0.0,12.0,18.0,5.0,8.0,11.0,2.0,1651025646711451.0
-8.0,-4.0,-19.0,-51.0,-10.0,-1.0,-7.0,4.0,1651025646718459.0
9.0,10.0,18.0,61.0,27.0,-10.0,-5.0,-3.0,1651025646718459.0
30.0,15.0,3.0,-14.0,-3.0,9.0,12.0,14.0,1651025646734612.0
-41.0,-22.0,-2.0,4.0,-3.0,-22.0,6.0,-8.0,1651025646734612.0
-32.0,-8.0,2.0,10.0,1.0,11.0,-33.0,-17.0,1651025646736537.0
35.0,18.0,7.0,-8.0,13.0,10.0,10.0,19.0,1651025646736537.0
-13.0,-14.0,-5.0,8.0,-2.0,3.0,-6.0,-5.0,1651025646757525.0
24.0,2.0,-7.0,-14.0,-3.0,11.0,0.0,5.0,1651025646757525.0
-3.0,3.0,-4.0,-6.0,-7.0,-16.0,-2.0,5.0,1651025646758479.0
-21.0,-9.0,11.0,26.0,6.0,0.0,13.0,-2.0,1651025646758479.0
8.0,-3.0,-8.0,-11.0,-6.0,-2.0,-26.0,-7.0,1651025646770474.0
-14.0,5.0,3.0,-3.0,-1.0,-2.0,24.0,7.0,1651025646770474.0
-3.0,-7.0,-7.0,-14.0,-11.0,-1.0,-32.0,-12.0,1651025646779422.0
0.0,-1.0,-25.0,-59.0,-15.0,-10.0,6.0,6.0,1651025646779422.0
-7.0,-5.0,45.0,90.0,30.0,1.0,7.0,-2.0,1651025646794940.0
10.0,4.0,-3.0,-1.0,5.0,13.0,43.0,21.0,1651025646794940.0
-8.0,0.0,5.0,4.0,1.0,-8.0,-10.0,-11.0,1651025646795935.0
-5.0,-2.0,5.0,21.0,5.0,15.0,9.0,-11.0,1651025646795935.0
-2.0,-3.0,-13.0,-32.0,-22.0,-19.0,-3.0,10.0,1651025646817019.0
15.0,4.0,2.0,8.0,19.0,6.0,-27.0,0.0,1651025646817019.0
-5.0,-4.0,-2.0,-16.0,-3.0,2.0,31.0,11.0,1651025646819040.0
-8.0,-7.0,8.0,10.0,5.0,10.0,9.0,-3.0,1651025646819040.0
-11.0,3.0,-12.0,-10.0,-5.0,-4.0,-38.0,-19.0,1651025646830987.0
-20.0,3.0,-4.0,0.0,-5.0,-12.0,40.0,4.0,1651025646830987.0
36.0,-4.0,-28.0,-42.0,-17.0,-5.0,-27.0,-8.0,1651025646839966.0
12.0,0.0,36.0,72.0,-7.0,2.0,-19.0,4.0,1651025646839966.0
-1.0,6.0,-2.0,-8.0,-2.0,4.0,12.0,-1.0,1651025646855093.0
4.0,-6.0,-9.0,-10.0,23.0,-1.0,5.0,-3.0,1651025646855093.0
0.0,-2.0,7.0,12.0,5.0,-10.0,16.0,6.0,1651025646856048.0
2.0,7.0,-7.0,-16.0,-3.0,4.0,10.0,1.0,1651025646856048.0
-1.0,1.0,2.0,-4.0,0.0,33.0,-24.0,-4.0,1651025646876628.0
4.0,0.0,-10.0,-13.0,-26.0,-28.0,-10.0,-6.0,1651025646876628.0
-4.0,6.0,4.0,13.0,15.0,27.0,16.0,4.0,1651025646884617.0
0.0,-8.0,-4.0,-4.0,7.0,-4.0,-28.0,-3.0,1651025646884617.0
13.0,3.0,1.0,-6.0,-1.0,-9.0,26.0,20.0,1651025646890661.0
-8.0,-3.0,-14.0,-39.0,-27.0,13.0,-10.0,-5.0,1651025646890661.0
-5.0,6.0,29.0,68.0,26.0,-11.0,-9.0,-4.0,1651025646899942.0
-14.0,-1.0,-8.0,-13.0,-1.0,-8.0,3.0,-3.0,1651025646899942.0
-5.0,-2.0,-3.0,-7.0,3.0,5.0,25.0,3.0,1651025646914601.0
10.0,-6.0,-6.0,5.0,-10.0,7.0,-26.0,-6.0,1651025646914601.0
-1.0,1.0,-3.0,-8.0,-5.0,-16.0,7.0,4.0,1651025646916555.0
-2.0,-3.0,-11.0,-22.0,-20.0,-28.0,-11.0,-3.0,1651025646916555.0
-7.0,-4.0,-2.0,5.0,17.0,-39.0,3.0,-4.0,1651025646937545.0
-8.0,0.0,7.0,10.0,10.0,96.0,23.0,2.0,1651025646937545.0
-1.0,-3.0,0.0,-1.0,-2.0,-2.0,4.0,2.0,1651025646938470.0
-3.0,-4.0,-5.0,-11.0,6.0,12.0,6.0,0.0,1651025646938470.0
0.0,-4.0,-6.0,-11.0,-18.0,-23.0,-13.0,-11.0,1651025646950506.0
-3.0,-4.0,-3.0,6.0,-1.0,-40.0,-6.0,4.0,1651025646950506.0
-4.0,3.0,2.0,-1.0,0.0,15.0,-9.0,0.0,1651025646959415.0
1.0,2.0,0.0,-9.0,-9.0,-10.0,2.0,-1.0,1651025646959415.0
0.0,3.0,4.0,2.0,-3.0,-5.0,2.0,-2.0,1651025646974898.0
4.0,6.0,10.0,15.0,29.0,-1.0,-6.0,2.0,1651025646974898.0
-2.0,1.0,-7.0,0.0,-8.0,1.0,5.0,-1.0,1651025646975897.0
-7.0,-14.0,-31.0,-21.0,-7.0,-6.0,-2.0,-2.0,1651025646975897.0
-3.0,0.0,1.0,-4.0,-15.0,12.0,3.0,-2.0,1651025646997129.0
-2.0,2.0,3.0,4.0,2.0,-9.0,-5.0,-4.0,1651025646997129.0
-3.0,5.0,13.0,0.0,-1.0,-5.0,-2.0,1.0,1651025646999075.0
2.0,5.0,3.0,1.0,4.0,4.0,4.0,2.0,1651025646999075.0
0.0,-5.0,-2.0,-10.0,-4.0,14.0,1.0,-1.0,1651025647011026.0
0.0,-3.0,0.0,5.0,0.0,-10.0,-3.0,-1.0,1651025647011026.0
-2.0,0.0,-1.0,1.0,1.0,-9.0,5.0,0.0,1651025647020113.0
3.0,1.0,1.0,-4.0,-34.0,-3.0,-2.0,1.0,1651025647020113.0
-2.0,9.0,3.0,1.0,33.0,18.0,1.0,-2.0,1651025647034104.0
0.0,3.0,16.0,6.0,-24.0,-13.0,-3.0,-1.0,1651025647034104.0
-7.0,2.0,15.0,6.0,6.0,-8.0,-4.0,0.0,1651025647036069.0
0.0,-18.0,-38.0,-5.0,16.0,10.0,1.0,-6.0,1651025647036069.0
-2.0,-9.0,-26.0,-10.0,-11.0,14.0,14.0,14.0,1651025647057040.0
-12.0,2.0,-1.0,-8.0,-8.0,-12.0,-4.0,-5.0,1651025647057040.0
24.0,1.0,9.0,8.0,-4.0,7.0,4.0,6.0,1651025647059007.0
-15.0,13.0,28.0,7.0,14.0,12.0,5.0,-1.0,1651025647059007.0
-4.0,-18.0,-3.0,3.0,7.0,-9.0,-9.0,-6.0,1651025647071001.0
-11.0,6.0,-3.0,-4.0,-5.0,5.0,-8.0,-7.0,1651025647071001.0
-2.0,-30.0,-23.0,-16.0,-10.0,0.0,2.0,-2.0,1651025647079950.0
-2.0,23.0,3.0,1.0,10.0,-6.0,-1.0,4.0,1651025647079950.0
-4.0,6.0,14.0,10.0,-1.0,-5.0,-3.0,-8.0,1651025647094917.0
4.0,3.0,2.0,-4.0,-8.0,-6.0,-3.0,-3.0,1651025647094917.0
-2.0,-4.0,5.0,0.0,11.0,-2.0,-8.0,-17.0,1651025647095920.0
-1.0,-21.0,-15.0,3.0,3.0,3.0,19.0,32.0,1651025647095920.0
-3.0,4.0,-4.0,-4.0,-49.0,-11.0,0.0,2.0,1651025647116878.0
8.0,2.0,-3.0,0.0,43.0,8.0,4.0,4.0,1651025647116878.0
-1.0,10.0,-4.0,3.0,2.0,4.0,-2.0,-7.0,1651025647118846.0
3.0,-14.0,-2.0,-4.0,-6.0,-7.0,-6.0,-8.0,1651025647118846.0
1.0,30.0,16.0,4.0,0.0,-2.0,-8.0,-15.0,1651025647130814.0
3.0,-16.0,-26.0,-15.0,-28.0,-10.0,-4.0,12.0,1651025647130814.0
-6.0,2.0,-1.0,-2.0,10.0,3.0,3.0,8.0,1651025647139793.0
5.0,5.0,15.0,9.0,19.0,6.0,9.0,9.0,1651025647139793.0
8.0,-2.0,-4.0,1.0,2.0,-2.0,-12.0,-9.0,1651025647161733.0
-5.0,-3.0,10.0,5.0,1.0,-3.0,-6.0,-10.0,1651025647161733.0
-13.0,1.0,-6.0,-5.0,-6.0,-4.0,-1.0,0.0,1651025647163727.0
7.0,20.0,24.0,9.0,-9.0,-4.0,-2.0,1.0,1651025647163727.0
-5.0,-17.0,-16.0,-8.0,4.0,4.0,0.0,-6.0,1651025647176809.0
3.0,3.0,6.0,1.0,-1.0,-4.0,1.0,4.0,1651025647176809.0
-1.0,-10.0,-7.0,1.0,-2.0,1.0,3.0,5.0,1651025647178847.0
-5.0,-11.0,1.0,-3.0,11.0,3.0,2.0,-3.0,1651025647178847.0
13.0,25.0,14.0,7.0,3.0,2.0,1.0,5.0,1651025647190882.0
-5.0,-12.0,-19.0,-6.0,-2.0,-1.0,-2.0,-5.0,1651025647190882.0
1.0,14.0,4.0,-3.0,-13.0,-8.0,-4.0,1.0,1651025647199814.0
2.0,8.0,8.0,4.0,-7.0,-5.0,-4.0,-1.0,1651025647199814.0
-5.0,-16.0,-3.0,-7.0,22.0,6.0,-1.0,-1.0,1651025647214777.0
-4.0,-9.0,15.0,6.0,4.0,4.0,5.0,3.0,1651025647214777.0
3.0,6.0,-24.0,-5.0,-6.0,-4.0,0.0,-4.0,1651025647215748.0
-2.0,-19.0,-15.0,-9.0,-9.0,-3.0,-3.0,-2.0,1651025647215748.0
3.0,7.0,9.0,3.0,-6.0,-1.0,1.0,7.0,1651025647236822.0
0.0,-2.0,-7.0,5.0,6.0,-1.0,-1.0,-5.0,1651025647236822.0
-2.0,7.0,20.0,5.0,-4.0,1.0,0.0,3.0,1651025647238749.0
5.0,4.0,-2.0,-1.0,-2.0,-1.0,-6.0,-6.0,1651025647238749.0
1.0,-4.0,-11.0,-10.0,-2.0,-1.0,3.0,3.0,1651025647259877.0
0.0,-3.0,0.0,-2.0,-4.0,0.0,0.0,-1.0,1651025647259877.0
-2.0,-3.0,-11.0,-8.0,-3.0,0.0,-3.0,0.0,1651025647260832.0
-2.0,-10.0,3.0,3.0,-10.0,-2.0,-1.0,1.0,1651025647260832.0
3.0,26.0,20.0,7.0,26.0,2.0,-14.0,-15.0,1651025647282047.0
5.0,11.0,0.0,3.0,-6.0,1.0,2.0,0.0,1651025647282047.0
-5.0,-18.0,-9.0,-6.0,-2.0,-3.0,-4.0,-3.0,1651025647283975.0
-1.0,-6.0,-4.0,-5.0,-10.0,-4.0,-3.0,-3.0,1651025647283975.0
-6.0,-18.0,-7.0,-3.0,-8.0,1.0,6.0,5.0,1651025647297498.0
3.0,8.0,13.0,11.0,13.0,2.0,0.0,-2.0,1651025647297498.0
-2.0,-1.0,21.0,5.0,-10.0,-3.0,-1.0,-6.0,1651025647298895.0
-5.0,-10.0,-24.0,-10.0,9.0,0.0,8.0,22.0,1651025647298895.0
-4.0,-6.0,1.0,0.0,5.0,4.0,4.0,5.0,1651025647319591.0
7.0,16.0,0.0,-6.0,-14.0,-5.0,-1.0,1.0,1651025647319591.0
2.0,-2.0,4.0,-1.0,-15.0,-4.0,1.0,4.0,1651025647321547.0
4.0,9.0,9.0,5.0,23.0,2.0,-6.0,-14.0,1651025647321547.0
-6.0,-10.0,5.0,10.0,-4.0,-1.0,3.0,-2.0,1651025647334552.0
-5.0,-16.0,-27.0,-12.0,1.0,2.0,1.0,5.0,1651025647334552.0
3.0,10.0,0.0,-1.0,-2.0,0.0,-1.0,-1.0,1651025647336507.0
-1.0,6.0,11.0,0.0,-7.0,0.0,-4.0,-6.0,1651025647336507.0
3.0,-5.0,-18.0,-12.0,-2.0,-3.0,0.0,4.0,1651025647357591.0
1.0,2.0,18.0,9.0,4.0,1.0,4.0,-2.0,1651025647357591.0
0.0,-9.0,4.0,3.0,3.0,-2.0,-2.0,-1.0,1651025647358524.0
-4.0,-6.0,-52.0,-25.0,-14.0,-1.0,-3.0,-4.0,1651025647358524.0
9.0,9.0,30.0,18.0,14.0,1.0,2.0,3.0,1651025647379989.0
-7.0,3.0,-22.0,-15.0,-8.0,-4.0,-1.0,-2.0,1651025647379989.0
1.0,-10.0,-5.0,0.0,-1.0,0.0,2.0,1.0,1651025647380957.0
-1.0,-13.0,40.0,18.0,9.0,3.0,0.0,-1.0,1651025647380957.0
14.0,34.0,4.0,6.0,-7.0,1.0,1.0,3.0,1651025647394031.0
-17.0,-45.0,-24.0,-12.0,-3.0,-1.0,-3.0,-4.0,1651025647394031.0
-4.0,-13.0,1.0,1.0,7.0,-1.0,-3.0,-4.0,1651025647401082.0
4.0,18.0,2.0,-3.0,-11.0,-3.0,-1.0,0.0,1651025647401082.0
-8.0,-17.0,-2.0,-1.0,-2.0,-1.0,-1.0,-1.0,1651025647417491.0
9.0,19.0,38.0,25.0,15.0,5.0,0.0,-1.0,1651025647417491.0
-10.0,-24.0,-34.0,-8.0,0.0,1.0,1.0,2.0,1651025647418900.0
-3.0,1.0,-12.0,-7.0,-5.0,0.0,-2.0,-3.0,1651025647418900.0
-1.0,-3.0,-6.0,-8.0,-9.0,-5.0,-1.0,1.0,1651025647440016.0
2.0,4.0,-10.0,-3.0,1.0,0.0,0.0,1.0,1651025647440016.0
3.0,9.0,18.0,8.0,-10.0,-2.0,-1.0,1.0,1651025647440986.0
-4.0,-2.0,-1.0,3.0,17.0,5.0,0.0,-3.0,1651025647440986.0
-6.0,-9.0,-10.0,-4.0,-5.0,-2.0,-1.0,-1.0,1651025647454361.0
3.0,-2.0,-5.0,-4.0,-19.0,-6.0,-2.0,-1.0,1651025647454361.0
0.0,-11.0,0.0,-2.0,4.0,3.0,0.0,1.0,1651025647460823.0
-3.0,40.0,17.0,10.0,-1.0,-5.0,-4.0,-5.0,1651025647460823.0
-1.0,-7.0,-28.0,-15.0,7.0,4.0,3.0,1.0,1651025647476847.0
-2.0,-9.0,4.0,3.0,-5.0,0.0,2.0,0.0,1651025647476847.0
3.0,25.0,-4.0,-3.0,2.0,-4.0,-3.0,-3.0,1651025647478774.0
4.0,-7.0,5.0,-3.0,-9.0,-2.0,0.0,-1.0,1651025647478774.0
-5.0,-15.0,3.0,2.0,-2.0,-2.0,0.0,0.0,1651025647499841.0
-2.0,-17.0,-13.0,-3.0,2.0,-1.0,0.0,0.0,1651025647499841.0
0.0,16.0,6.0,-1.0,2.0,2.0,1.0,1.0,1651025647500768.0
-9.0,-38.0,-10.0,2.0,4.0,0.0,-1.0,-2.0,1651025647500768.0
3.0,20.0,1.0,-2.0,-8.0,-4.0,-3.0,-4.0,1651025647514759.0
0.0,-27.0,-6.0,1.0,4.0,1.0,-1.0,1.0,1651025647514759.0
-20.0,-26.0,-8.0,-1.0,2.0,0.0,-5.0,-6.0,1651025647522737.0
7.0,13.0,10.0,2.0,-1.0,2.0,3.0,3.0,1651025647522737.0
1.0,-10.0,-6.0,-1.0,0.0,3.0,4.0,5.0,1651025647537465.0
-6.0,-12.0,-7.0,-9.0,-7.0,-5.0,-5.0,-4.0,1651025647537465.0
11.0,27.0,17.0,8.0,9.0,5.0,2.0,3.0,1651025647538897.0
0.0,14.0,-2.0,0.0,0.0,0.0,-1.0,-1.0,1651025647538897.0
-9.0,-55.0,-9.0,-2.0,-2.0,-2.0,1.0,-3.0,1651025647559881.0
8.0,28.0,2.0,1.0,0.0,-1.0,0.0,-1.0,1651025647559881.0
-2.0,-11.0,-2.0,1.0,2.0,0.0,0.0,2.0,1651025647560835.0
-5.0,1.0,4.0,-2.0,-4.0,-3.0,-2.0,-3.0,1651025647560835.0
0.0,7.0,-10.0,-5.0,1.0,-1.0,-2.0,-1.0,1651025647573485.0
10.0,14.0,8.0,2.0,3.0,2.0,0.0,2.0,1651025647573485.0
-8.0,-11.0,-8.0,-4.0,-1.0,-2.0,-1.0,-2.0,1651025647580537.0
8.0,18.0,2.0,-1.0,-6.0,-1.0,-1.0,-1.0,1651025647580537.0
-1.0,11.0,9.0,1.0,10.0,1.0,-2.0,-1.0,1651025647597017.0
-4.0,3.0,-7.0,-2.0,3.0,2.0,-2.0,-3.0,1651025647597017.0
2.0,-5.0,2.0,2.0,-2.0,-1.0,0.0,2.0,1651025647599005.0
-6.0,-9.0,-5.0,-3.0,3.0,0.0,-2.0,-3.0,1651025647599005.0
0.0,0.0,1.0,-1.0,-14.0,-6.0,-3.0,1.0,1651025647619998.0
-5.0,-25.0,7.0,1.0,2.0,5.0,0.0,1.0,1651025647619998.0
16.0,58.0,5.0,3.0,8.0,1.0,5.0,3.0,1651025647620932.0
-4.0,-2.0,-5.0,1.0,9.0,0.0,-1.0,-3.0,1651025647620932.0
-8.0,-25.0,-3.0,-2.0,-9.0,-1.0,1.0,-2.0,1651025647633918.0
-4.0,-2.0,-1.0,-1.0,0.0,-2.0,-2.0,-1.0,1651025647633918.0
4.0,2.0,-8.0,-7.0,-14.0,-2.0,-1.0,-1.0,1651025647640941.0
1.0,-12.0,-3.0,0.0,7.0,0.0,0.0,0.0,1651025647640941.0
4.0,20.0,8.0,4.0,-1.0,-1.0,1.0,0.0,1651025647656899.0
2.0,6.0,1.0,0.0,4.0,0.0,0.0,1.0,1651025647656899.0
0.0,-5.0,-5.0,-4.0,8.0,3.0,2.0,0.0,1651025647658825.0
1.0,4.0,-1.0,-2.0,-11.0,-5.0,-1.0,-1.0,1651025647658825.0
0.0,-3.0,-5.0,-1.0,3.0,2.0,1.0,2.0,1651025647679769.0
-6.0,23.0,12.0,1.0,-5.0,-2.0,-3.0,-4.0,1651025647679769.0
0.0,-20.0,-15.0,-5.0,-3.0,-4.0,-2.0,-2.0,1651025647680766.0
1.0,0.0,1.0,-1.0,1.0,2.0,0.0,-1.0,1651025647680766.0
-1.0,1.0,0.0,-2.0,-3.0,-1.0,-1.0,-1.0,1651025647693747.0
-1.0,-5.0,0.0,3.0,-4.0,-2.0,-1.0,0.0,1651025647693747.0
3.0,8.0,3.0,0.0,5.0,0.0,-1.0,1.0,1651025647700795.0
4.0,8.0,3.0,-2.0,-2.0,0.0,0.0,1.0,1651025647700795.0
-5.0,6.0,4.0,4.0,-6.0,-4.0,-2.0,-3.0,1651025647716808.0
2.0,0.0,-1.0,2.0,10.0,6.0,0.0,1.0,1651025647716808.0
-1.0,-5.0,5.0,2.0,1.0,0.0,2.0,-1.0,1651025647718803.0
1.0,-14.0,-5.0,-3.0,-3.0,-1.0,0.0,0.0,1651025647718803.0
6.0,9.0,-2.0,-6.0,-18.0,-4.0,-1.0,1.0,1651025647739958.0
2.0,6.0,4.0,2.0,20.0,0.0,0.0,0.0,1651025647739958.0
-2.0,28.0,7.0,0.0,-4.0,-2.0,-4.0,-4.0,1651025647740937.0
-4.0,-12.0,-3.0,0.0,-6.0,-1.0,1.0,1.0,1651025647740937.0
0.0,4.0,-2.0,-1.0,2.0,-1.0,-1.0,0.0,1651025647753073.0
4.0,15.0,5.0,-2.0,-10.0,-2.0,-2.0,-2.0,1651025647753073.0
-3.0,-20.0,-3.0,0.0,2.0,0.0,1.0,-1.0,1651025647761987.0
0.0,7.0,1.0,0.0,-3.0,-2.0,0.0,-2.0,1651025647761987.0
-7.0,-26.0,-2.0,0.0,8.0,2.0,-1.0,-2.0,1651025647777471.0
2.0,19.0,2.0,0.0,-2.0,-1.0,1.0,2.0,1651025647777471.0
-3.0,-14.0,-3.0,-3.0,-4.0,-3.0,-2.0,-1.0,1651025647778498.0
0.0,4.0,1.0,0.0,-1.0,0.0,-1.0,1.0,1651025647778498.0
1.0,-1.0,-2.0,1.0,0.0,1.0,0.0,1.0,1651025647799471.0
-2.0,-6.0,-9.0,-5.0,-4.0,-3.0,0.0,-3.0,1651025647799471.0
-19.0,-43.0,-2.0,1.0,-1.0,-1.0,-1.0,-4.0,1651025647801424.0
-5.0,-19.0,-7.0,-1.0,5.0,0.0,-1.0,-3.0,1651025647801424.0
7.0,23.0,5.0,1.0,7.0,3.0,1.0,2.0,1651025647813378.0
-1.0,-13.0,-1.0,2.0,-5.0,-3.0,-1.0,-1.0,1651025647813378.0
5.0,13.0,3.0,0.0,-1.0,1.0,0.0,2.0,1651025647822341.0
-1.0,-2.0,-4.0,0.0,-1.0,0.0,-2.0,1.0,1651025647822341.0
-4.0,-7.0,1.0,-2.0,1.0,-1.0,0.0,0.0,1651025647837471.0
2.0,23.0,1.0,-2.0,-7.0,0.0,1.0,-1.0,1651025647837471.0
9.0,-1.0,4.0,4.0,3.0,0.0,1.0,3.0,1651025647838924.0
-2.0,13.0,3.0,3.0,9.0,4.0,0.0,-1.0,1651025647838924.0
2.0,0.0,0.0,-1.0,-2.0,1.0,-2.0,-1.0,1651025647859993.0
-2.0,-3.0,-9.0,-5.0,-17.0,-7.0,0.0,1.0,1651025647859993.0
0.0,12.0,1.0,-4.0,4.0,4.0,-1.0,1.0,1651025647860957.0
-1.0,-20.0,-3.0,7.0,11.0,0.0,2.0,0.0,1651025647860957.0
0.0,9.0,8.0,4.0,0.0,1.0,1.0,2.0,1651025647873018.0
2.0,10.0,6.0,2.0,0.0,0.0,-2.0,-4.0,1651025647873018.0
-1.0,0.0,-2.0,-1.0,-4.0,-3.0,-1.0,-1.0,1651025647881997.0
0.0,16.0,-1.0,-6.0,-5.0,-1.0,-2.0,-1.0,1651025647881997.0
-3.0,-21.0,-2.0,2.0,0.0,-4.0,0.0,0.0,1651025647896959.0
2.0,23.0,3.0,-1.0,5.0,4.0,-1.0,0.0,1651025647896959.0
-4.0,-7.0,-1.0,-2.0,5.0,2.0,-1.0,-1.0,1651025647898952.0
3.0,4.0,3.0,-1.0,-1.0,0.0,1.0,3.0,1651025647898952.0
1.0,-3.0,-3.0,-2.0,-2.0,-1.0,-1.0,0.0,1651025647919950.0
1.0,2.0,0.0,0.0,-8.0,-5.0,0.0,0.0,1651025647919950.0
1.0,7.0,-1.0,3.0,4.0,-1.0,-1.0,-1.0,1651025647920951.0
3.0,22.0,4.0,0.0,-2.0,1.0,0.0,-1.0,1651025647920951.0
-8.0,-19.0,-6.0,-4.0,-1.0,-1.0,-1.0,-3.0,1651025647933345.0
-9.0,-40.0,-4.0,-3.0,4.0,0.0,-1.0,0.0,1651025647933345.0
2.0,36.0,2.0,-2.0,-3.0,-1.0,-1.0,-1.0,1651025647942259.0
-3.0,-38.0,-6.0,-3.0,-13.0,-5.0,0.0,-1.0,1651025647942259.0
2.0,12.0,-4.0,-3.0,6.0,4.0,-1.0,-3.0,1651025647957286.0
0.0,-6.0,-3.0,2.0,3.0,0.0,0.0,0.0,1651025647957286.0
-6.0,-12.0,-5.0,0.0,-2.0,-2.0,-2.0,-2.0,1651025647958243.0
0.0,5.0,0.0,-1.0,-5.0,-1.0,-2.0,0.0,1651025647958243.0
0.0,3.0,-1.0,-2.0,-2.0,0.0,0.0,-1.0,1651025647979186.0
-1.0,4.0,0.0,-1.0,2.0,2.0,-1.0,0.0,1651025647979186.0
0.0,-4.0,-2.0,-1.0,-10.0,-5.0,0.0,-1.0,1651025647981155.0
2.0,4.0,-1.0,1.0,1.0,0.0,-1.0,-2.0,1651025647981155.0
-4.0,-12.0,-3.0,2.0,13.0,1.0,-1.0,0.0,1651025647993187.0
-4.0,26.0,2.0,0.0,-5.0,-2.0,0.0,-1.0,1651025647993187.0
2.0,-24.0,-4.0,-3.0,-11.0,-5.0,-1.0,0.0,1651025648002193.0
-1.0,-1.0,1.0,1.0,5.0,7.0,1.0,0.0,1651025648002193.0
1.0,4.0,3.0,2.0,10.0,-3.0,1.0,-1.0,1651025648017223.0
6.0,13.0,1.0,1.0,-2.0,-1.0,0.0,1.0,1651025648017223.0
-1.0,-29.0,-8.0,-3.0,-6.0,-2.0,0.0,0.0,1651025648019150.0
-2.0,27.0,-1.0,-5.0,-3.0,-3.0,-2.0,-2.0,1651025648019150.0
3.0,18.0,1.0,-2.0,-4.0,-1.0,-3.0,0.0,1651025648040094.0
-6.0,-25.0,-5.0,-2.0,-1.0,-2.0,-1.0,-1.0,1651025648040094.0
1.0,6.0,3.0,1.0,5.0,2.0,2.0,-1.0,1651025648041091.0
2.0,4.0,3.0,0.0,4.0,0.0,0.0,0.0,1651025648041091.0
-1.0,0.0,-2.0,-2.0,-3.0,-3.0,-2.0,-4.0,1651025648053127.0
-1.0,3.0,3.0,-2.0,-2.0,-2.0,-1.0,-2.0,1651025648053127.0
-2.0,4.0,1.0,0.0,4.0,1.0,1.0,1.0,1651025648062140.0
2.0,4.0,3.0,-1.0,1.0,-1.0,1.0,0.0,1651025648062140.0
-3.0,2.0,2.0,-1.0,-3.0,1.0,0.0,0.0,1651025648076747.0
-5.0,-19.0,-2.0,-6.0,-23.0,-6.0,-1.0,-2.0,1651025648076747.0
3.0,19.0,2.0,0.0,13.0,0.0,-1.0,-1.0,1651025648078675.0
-4.0,-11.0,-1.0,6.0,24.0,8.0,0.0,-2.0,1651025648078675.0
2.0,5.0,1.0,0.0,-9.0,-1.0,1.0,3.0,1651025648099532.0
3.0,5.0,0.0,1.0,2.0,0.0,-1.0,0.0,1651025648099532.0
0.0,3.0,1.0,-1.0,-9.0,-4.0,-1.0,0.0,1651025648101482.0
0.0,-17.0,-7.0,-3.0,-10.0,-5.0,-1.0,0.0,1651025648101482.0
-8.0,13.0,-11.0,-4.0,1.0,1.0,-2.0,-4.0,1651025648113435.0
-2.0,-14.0,-7.0,-2.0,5.0,0.0,0.0,-1.0,1651025648113435.0
2.0,5.0,2.0,-1.0,0.0,-1.0,-1.0,-1.0,1651025648122403.0
-3.0,-9.0,-1.0,-3.0,-4.0,-4.0,-3.0,0.0,1651025648122403.0
2.0,-12.0,-1.0,-2.0,-2.0,-1.0,1.0,3.0,1651025648136817.0
-2.0,3.0,0.0,2.0,4.0,1.0,0.0,-1.0,1651025648136817.0
1.0,4.0,-1.0,-6.0,-14.0,-4.0,0.0,1.0,1651025648143532.0
-2.0,-7.0,-1.0,5.0,12.0,4.0,1.0,-1.0,1651025648143532.0
2.0,-1.0,1.0,2.0,-5.0,-1.0,-3.0,0.0,1651025648159560.0
4.0,0.0,0.0,-3.0,-2.0,-1.0,0.0,0.0,1651025648159560.0
5.0,12.0,3.0,3.0,6.0,4.0,0.0,1.0,1651025648161516.0
-6.0,-15.0,-6.0,-8.0,-12.0,-5.0,-2.0,-1.0,1651025648161516.0
-3.0,-19.0,-5.0,-1.0,-2.0,0.0,0.0,1.0,1651025648182525.0
2.0,6.0,-1.0,-3.0,-3.0,0.0,-2.0,-1.0,1651025648182525.0
0.0,-7.0,-3.0,3.0,15.0,1.0,0.0,-1.0,1651025648183524.0
4.0,9.0,1.0,0.0,-8.0,-3.0,0.0,0.0,1651025648183524.0
0.0,7.0,2.0,1.0,2.0,0.0,-1.0,-2.0,1651025648196900.0
0.0,-13.0,0.0,0.0,0.0,0.0,0.0,-1.0,1651025648196900.0
-3.0,-8.0,-1.0,-4.0,-9.0,-1.0,-1.0,-2.0,1651025648198895.0
13.0,22.0,3.0,3.0,2.0,4.0,4.0,7.0,1651025648198895.0
-11.0,-10.0,2.0,-1.0,14.0,-2.0,-5.0,-6.0,1651025648219838.0
-7.0,3.0,2.0,3.0,1.0,2.0,-1.0,0.0,1651025648219838.0
-3.0,4.0,1.0,2.0,-1.0,0.0,-1.0,-2.0,1651025648220837.0
1.0,0.0,-1.0,-3.0,-7.0,-2.0,-1.0,-1.0,1651025648220837.0
5.0,8.0,-2.0,-6.0,-9.0,-3.0,0.0,0.0,1651025648241862.0
-1.0,-6.0,-1.0,-1.0,6.0,2.0,-1.0,-1.0,1651025648241862.0
-1.0,3.0,0.0,-1.0,1.0,1.0,0.0,0.0,1651025648243793.0
-6.0,-9.0,-2.0,-2.0,-5.0,-2.0,-2.0,-2.0,1651025648243793.0
-1.0,-23.0,-1.0,2.0,-4.0,-5.0,1.0,2.0,1651025648256870.0
2.0,-5.0,5.0,-1.0,5.0,1.0,-2.0,-2.0,1651025648256870.0
4.0,4.0,1.0,1.0,0.0,1.0,1.0,0.0,1651025648258868.0
-5.0,-21.0,-7.0,-2.0,-1.0,-2.0,-2.0,-3.0,1651025648258868.0
1.0,4.0,1.0,0.0,2.0,3.0,0.0,1.0,1651025648279874.0
5.0,2.0,-2.0,-1.0,2.0,1.0,1.0,3.0,1651025648279874.0
-5.0,-14.0,-2.0,-3.0,-2.0,0.0,-2.0,-1.0,1651025648280836.0
-1.0,7.0,2.0,1.0,1.0,0.0,0.0,-2.0,1651025648280836.0
-1.0,10.0,1.0,-2.0,-17.0,-7.0,-1.0,-3.0,1651025648301935.0
-1.0,-2.0,-4.0,0.0,16.0,9.0,1.0,-1.0,1651025648301935.0
4.0,11.0,-2.0,-4.0,-5.0,-3.0,1.0,1.0,1651025648303958.0
-5.0,-6.0,0.0,-2.0,-6.0,-3.0,0.0,-3.0,1651025648303958.0
2.0,9.0,1.0,1.0,8.0,0.0,1.0,-1.0,1651025648316084.0
2.0,1.0,0.0,-2.0,-14.0,-5.0,1.0,0.0,1651025648316084.0
-6.0,-10.0,-2.0,-1.0,11.0,2.0,-1.0,-1.0,1651025648323359.0
1.0,-6.0,1.0,3.0,-7.0,-1.0,-1.0,0.0,1651025648323359.0
0.0,6.0,-2.0,-4.0,-2.0,1.0,0.0,1.0,1651025648339268.0
0.0,4.0,-1.0,-2.0,3.0,-2.0,-1.0,0.0,1651025648339268.0
4.0,13.0,3.0,0.0,0.0,1.0,0.0,1.0,1651025648341195.0
-1.0,-6.0,2.0,-4.0,-3.0,-3.0,-1.0,-1.0,1651025648341195.0
0.0,-23.0,-2.0,-2.0,2.0,3.0,0.0,-2.0,1651025648362283.0
1.0,7.0,3.0,1.0,3.0,-2.0,1.0,-1.0,1651025648362283.0
-2.0,-5.0,0.0,0.0,-6.0,-2.0,0.0,0.0,1651025648363283.0
0.0,6.0,-1.0,-2.0,3.0,1.0,-1.0,-2.0,1651025648363283.0
0.0,7.0,1.0,2.0,3.0,0.0,1.0,1.0,1651025648376654.0
-1.0,-5.0,1.0,0.0,-5.0,-3.0,-1.0,-1.0,1651025648376654.0
0.0,-8.0,-2.0,-1.0,0.0,0.0,-1.0,-1.0,1651025648383581.0
1.0,6.0,-4.0,1.0,1.0,-2.0,-1.0,-1.0,1651025648383581.0
-5.0,7.0,-4.0,-5.0,-4.0,-2.0,-3.0,-4.0,1651025648399601.0
-6.0,-12.0,-3.0,-1.0,-2.0,-1.0,-1.0,-1.0,1651025648399601.0
-3.0,-6.0,-4.0,1.0,0.0,-1.0,-1.0,0.0,1651025648401551.0
-5.0,0.0,0.0,-1.0,1.0,1.0,0.0,0.0,1651025648401551.0
3.0,5.0,0.0,-1.0,-2.0,1.0,-1.0,0.0,1651025648422009.0
-2.0,0.0,-2.0,-1.0,-1.0,-1.0,1.0,0.0,1651025648422009.0
-1.0,-5.0,-3.0,-2.0,-2.0,0.0,-1.0,-1.0,1651025648423937.0
2.0,-1.0,-3.0,-1.0,0.0,-1.0,0.0,0.0,1651025648423937.0
0.0,-5.0,0.0,0.0,-1.0,1.0,0.0,1.0,1651025648436943.0
1.0,5.0,0.0,2.0,1.0,0.0,-1.0,0.0,1651025648436943.0
0.0,4.0,2.0,1.0,0.0,0.0,1.0,0.0,1651025648443537.0
0.0,4.0,-4.0,0.0,0.0,-1.0,1.0,-2.0,1651025648443537.0
1.0,8.0,5.0,0.0,0.0,0.0,0.0,0.0,1651025648459563.0
-1.0,6.0,-1.0,-1.0,-3.0,-3.0,-1.0,2.0,1651025648459563.0
1.0,0.0,1.0,2.0,-2.0,0.0,0.0,0.0,1651025648461491.0
0.0,-12.0,-8.0,-3.0,-8.0,1.0,-2.0,0.0,1651025648461491.0
-2.0,-4.0,3.0,3.0,15.0,2.0,-1.0,-2.0,1651025648482496.0
-1.0,-31.0,-8.0,-2.0,-2.0,0.0,-2.0,-1.0,1651025648482496.0
6.0,22.0,4.0,1.0,2.0,-1.0,0.0,2.0,1651025648483432.0
-1.0,-8.0,2.0,-1.0,-3.0,-1.0,-1.0,0.0,1651025648483432.0
1.0,6.0,-2.0,-5.0,-2.0,0.0,-1.0,1.0,1651025648496462.0
0.0,-1.0,2.0,2.0,8.0,2.0,-1.0,0.0,1651025648496462.0
1.0,9.0,1.0,3.0,1.0,-3.0,-1.0,0.0,1651025648503442.0
-5.0,-9.0,-3.0,-3.0,-2.0,0.0,-1.0,-2.0,1651025648503442.0
2.0,4.0,3.0,1.0,-2.0,3.0,-1.0,0.0,1651025648519559.0
-1.0,8.0,1.0,-1.0,-3.0,-2.0,1.0,-1.0,1651025648519559.0
-3.0,-10.0,-6.0,-3.0,2.0,0.0,0.0,-4.0,1651025648521514.0
-1.0,3.0,2.0,0.0,2.0,-5.0,-2.0,-1.0,1651025648521514.0
1.0,-7.0,-4.0,-1.0,0.0,2.0,1.0,0.0,1651025648542495.0
3.0,11.0,-1.0,-1.0,-3.0,0.0,-1.0,0.0,1651025648542495.0
-9.0,-19.0,-1.0,-1.0,-5.0,-1.0,-1.0,-1.0,1651025648543440.0
0.0,3.0,1.0,0.0,12.0,0.0,0.0,0.0,1651025648543440.0
-4.0,1.0,-2.0,-2.0,-11.0,-3.0,-2.0,-2.0,1651025648556459.0
2.0,11.0,5.0,5.0,4.0,1.0,0.0,-1.0,1651025648556459.0
-5.0,-44.0,-7.0,1.0,-3.0,0.0,1.0,0.0,1651025648563441.0
4.0,16.0,4.0,1.0,0.0,-1.0,-2.0,0.0,1651025648563441.0
-1.0,-1.0,-2.0,0.0,1.0,-1.0,1.0,0.0,1651025648579945.0
0.0,1.0,-3.0,-4.0,-6.0,-3.0,0.0,-2.0,1651025648579945.0
-1.0,2.0,-1.0,-1.0,1.0,1.0,1.0,-2.0,1651025648580928.0
-3.0,-5.0,-1.0,-2.0,-3.0,-2.0,-2.0,0.0,1651025648580928.0
1.0,-3.0,2.0,4.0,-3.0,-2.0,1.0,-1.0,1651025648602454.0
-1.0,-5.0,-1.0,1.0,7.0,-1.0,-2.0,-2.0,1651025648602454.0
1.0,6.0,2.0,-4.0,3.0,0.0,-2.0,-1.0,1651025648603446.0
-2.0,-8.0,-2.0,-1.0,-18.0,-5.0,-1.0,1.0,1651025648603446.0
0.0,8.0,2.0,-1.0,8.0,2.0,-1.0,-1.0,1651025648616414.0
0.0,-1.0,-1.0,0.0,-2.0,2.0,1.0,-1.0,1651025648616414.0
1.0,1.0,-1.0,-4.0,0.0,0.0,-1.0,-1.0,1651025648623464.0
1.0,12.0,0.0,0.0,-2.0,1.0,0.0,1.0,1651025648623464.0
-1.0,-10.0,-1.0,-2.0,-7.0,-4.0,0.0,0.0,1651025648639566.0
-2.0,0.0,-1.0,-5.0,-11.0,-2.0,0.0,1.0,1651025648639566.0
2.0,14.0,6.0,8.0,20.0,1.0,0.0,-1.0,1651025648641513.0
-2.0,-5.0,-4.0,0.0,-14.0,-2.0,-1.0,-1.0,1651025648641513.0
-1.0,-2.0,0.0,2.0,16.0,2.0,0.0,-2.0,1651025648662520.0
1.0,3.0,3.0,0.0,3.0,4.0,1.0,0.0,1651025648662520.0
-4.0,1.0,-9.0,-8.0,-13.0,-3.0,-2.0,0.0,1651025648663437.0
0.0,-7.0,0.0,0.0,5.0,0.0,0.0,-1.0,1651025648663437.0
-4.0,-12.0,-6.0,-1.0,-1.0,-1.0,0.0,-1.0,1651025648675401.0
1.0,8.0,-2.0,-4.0,-6.0,-5.0,-2.0,0.0,1651025648675401.0
-1.0,1.0,0.0,-6.0,0.0,2.0,-1.0,-1.0,1651025648684413.0
1.0,-5.0,4.0,0.0,12.0,5.0,0.0,0.0,1651025648684413.0
3.0,1.0,-5.0,-7.0,-10.0,-3.0,0.0,0.0,1651025648699380.0
3.0,2.0,3.0,1.0,2.0,-2.0,-1.0,0.0,1651025648699380.0
-1.0,-8.0,0.0,18.0,0.0,-2.0,-1.0,0.0,1651025648701339.0
3.0,18.0,1.0,-5.0,0.0,-2.0,0.0,1.0,1651025648701339.0
-1.0,2.0,-3.0,-4.0,-4.0,2.0,-2.0,0.0,1651025648722284.0
-2.0,3.0,4.0,4.0,9.0,-2.0,-4.0,-1.0,1651025648722284.0
-1.0,-20.0,-10.0,-4.0,4.0,1.0,-1.0,-3.0,1651025648723253.0
2.0,24.0,14.0,4.0,1.0,5.0,1.0,0.0,1651025648723253.0
-1.0,1.0,0.0,5.0,8.0,-1.0,2.0,0.0,1651025648735284.0
-5.0,-17.0,-33.0,-17.0,-14.0,-1.0,1.0,-1.0,1651025648735284.0
0.0,-2.0,10.0,-2.0,-3.0,-2.0,-1.0,-1.0,1651025648744352.0
-3.0,-8.0,-1.0,-2.0,-3.0,-2.0,-1.0,-1.0,1651025648744352.0
0.0,0.0,19.0,-1.0,-8.0,-1.0,-2.0,1.0,1651025648760370.0
-6.0,-3.0,-14.0,7.0,19.0,8.0,-1.0,-2.0,1651025648760370.0
3.0,21.0,24.0,0.0,-7.0,-1.0,1.0,1.0,1651025648761309.0
-2.0,-17.0,-18.0,3.0,3.0,0.0,2.0,1.0,1651025648761309.0
-1.0,2.0,8.0,-8.0,-11.0,-5.0,-3.0,-2.0,1651025648782466.0
0.0,-12.0,-17.0,2.0,-3.0,-3.0,2.0,0.0,1651025648782466.0
-3.0,6.0,-8.0,-11.0,-10.0,-3.0,-2.0,-2.0,1651025648783396.0
-3.0,-5.0,13.0,-1.0,5.0,-2.0,-2.0,-3.0,1651025648783396.0
1.0,4.0,6.0,11.0,9.0,3.0,3.0,1.0,1651025648795962.0
5.0,7.0,30.0,8.0,5.0,4.0,2.0,-4.0,1651025648795962.0
-3.0,0.0,-23.0,-9.0,1.0,0.0,5.0,3.0,1651025648804835.0
-3.0,-10.0,-11.0,3.0,-4.0,-1.0,-1.0,1.0,1651025648804835.0
-2.0,-9.0,-6.0,-10.0,-11.0,-1.0,-2.0,1.0,1651025648826889.0
-1.0,9.0,10.0,9.0,18.0,0.0,-2.0,-2.0,1651025648826889.0
4.0,8.0,4.0,1.0,2.0,4.0,0.0,2.0,1651025648828846.0
3.0,18.0,-20.0,14.0,7.0,4.0,5.0,1.0,1651025648828846.0
-13.0,-21.0,-3.0,-12.0,-11.0,-7.0,-6.0,-9.0,1651025648842144.0
-1.0,-6.0,-4.0,-17.0,-17.0,-5.0,1.0,2.0,1651025648842144.0
-1.0,-6.0,-20.0,-6.0,-1.0,-3.0,-1.0,-2.0,1651025648843144.0
2.0,7.0,81.0,-2.0,4.0,2.0,0.0,1.0,1651025648843144.0
6.0,10.0,-63.0,22.0,11.0,5.0,1.0,4.0,1651025648855353.0
0.0,18.0,60.0,25.0,3.0,2.0,5.0,-1.0,1651025648855353.0
7.0,8.0,-17.0,-3.0,-5.0,2.0,6.0,7.0,1651025648864312.0
2.0,-17.0,-30.0,-26.0,-11.0,-4.0,-16.0,-3.0,1651025648864312.0
-3.0,-15.0,-10.0,-29.0,-1.0,-4.0,-8.0,-3.0,1651025648879283.0
-10.0,0.0,1.0,-8.0,-4.0,0.0,10.0,-9.0,1651025648879283.0
10.0,6.0,7.0,47.0,8.0,1.0,-7.0,0.0,1651025648881216.0
-2.0,15.0,45.0,17.0,-2.0,-11.0,14.0,8.0,1651025648881216.0
14.0,10.0,35.0,37.0,18.0,19.0,12.0,8.0,1651025648902223.0
2.0,-11.0,-94.0,-52.0,-16.0,-3.0,5.0,7.0,1651025648902223.0
-12.0,0.0,-5.0,-56.0,-25.0,-6.0,5.0,5.0,1651025648908144.0
-26.0,-19.0,-37.0,7.0,5.0,-22.0,-96.0,-36.0,1651025648908144.0
9.0,4.0,12.0,-61.0,-23.0,-11.0,17.0,1.0,1651025648916124.0
-9.0,7.0,22.0,50.0,10.0,-9.0,-36.0,-24.0,1651025648916124.0
9.0,7.0,-8.0,-3.0,-5.0,11.0,0.0,9.0,1651025648925110.0
-45.0,-4.0,-11.0,-31.0,-9.0,-3.0,56.0,14.0,1651025648925110.0
-49.0,-5.0,0.0,1.0,16.0,30.0,94.0,17.0,1651025648939929.0
70.0,-11.0,9.0,-25.0,-29.0,-6.0,-26.0,33.0,1651025648939929.0
4.0,2.0,10.0,31.0,-22.0,-109.0,-103.0,-76.0,1651025648940928.0
22.0,18.0,1.0,-3.0,12.0,85.0,95.0,30.0,1651025648940928.0
-1.0,-3.0,-27.0,-39.0,6.0,-2.0,-68.0,-11.0,1651025648962528.0
9.0,26.0,12.0,27.0,9.0,-5.0,109.0,37.0,1651025648962528.0
-28.0,-34.0,-12.0,-25.0,4.0,32.0,-32.0,31.0,1651025648963528.0
-28.0,-51.0,-6.0,74.0,-8.0,-122.0,-122.0,-68.0,1651025648963528.0
10.0,17.0,7.0,8.0,4.0,32.0,48.0,-19.0,1651025648975495.0
-8.0,-8.0,-21.0,-81.0,-39.0,-48.0,-13.0,-6.0,1651025648975495.0
11.0,18.0,38.0,64.0,48.0,38.0,93.0,33.0,1651025648984835.0
16.0,30.0,-3.0,-22.0,2.0,27.0,5.0,6.0,1651025648984835.0
-22.0,-16.0,19.0,33.0,9.0,19.0,-101.0,-25.0,1651025649000099.0
20.0,0.0,-8.0,-16.0,-22.0,-25.0,-83.0,-20.0,1651025649000099.0
-10.0,3.0,13.0,12.0,34.0,47.0,73.0,17.0,1651025649001097.0
5.0,-6.0,-15.0,-27.0,-16.0,-15.0,-6.0,0.0,1651025649001097.0
34.0,12.0,-11.0,-37.0,-34.0,-50.0,-2.0,7.0,1651025649022520.0
-53.0,-1.0,20.0,20.0,10.0,8.0,5.0,-26.0,1651025649022520.0
10.0,-17.0,-21.0,29.0,8.0,-5.0,3.0,6.0,1651025649023520.0
18.0,0.0,-4.0,-2.0,14.0,29.0,-12.0,-4.0,1651025649023520.0
0.0,18.0,31.0,-35.0,-29.0,-28.0,22.0,10.0,1651025649035501.0
15.0,-13.0,-17.0,80.0,16.0,-29.0,-1.0,9.0,1651025649035501.0
-63.0,-7.0,6.0,-33.0,-5.0,23.0,4.0,-32.0,1651025649044463.0
25.0,1.0,-12.0,-35.0,2.0,-3.0,-14.0,7.0,1651025649044463.0
1.0,11.0,15.0,93.0,9.0,15.0,56.0,10.0,1651025649058428.0
19.0,10.0,15.0,-1.0,12.0,2.0,-43.0,5.0,1651025649058428.0
-39.0,18.0,15.0,14.0,3.0,-19.0,-8.0,-10.0,1651025649067401.0
33.0,-20.0,-4.0,1.0,-1.0,7.0,1.0,6.0,1651025649067401.0
-22.0,1.0,-13.0,-36.0,-8.0,-30.0,2.0,0.0,1651025649082363.0
16.0,23.0,2.0,-15.0,1.0,13.0,9.0,6.0,1651025649082363.0
55.0,4.0,3.0,12.0,-5.0,5.0,-5.0,1.0,1651025649083362.0
-40.0,0.0,16.0,-4.0,-18.0,-20.0,13.0,-3.0,1651025649083362.0
15.0,-7.0,-10.0,27.0,10.0,-12.0,-18.0,5.0,1651025649104335.0
-8.0,-19.0,-22.0,-34.0,6.0,51.0,38.0,0.0,1651025649104335.0
17.0,9.0,-1.0,-23.0,8.0,-5.0,-10.0,3.0,1651025649106298.0
7.0,7.0,16.0,46.0,14.0,17.0,42.0,7.0,1651025649106298.0
29.0,-8.0,2.0,28.0,13.0,-15.0,-41.0,8.0,1651025649119290.0
-42.0,-2.0,3.0,-8.0,-9.0,-9.0,11.0,-11.0,1651025649119290.0
4.0,-7.0,-5.0,-20.0,-16.0,2.0,2.0,2.0,1651025649126246.0
13.0,8.0,-13.0,-15.0,-7.0,6.0,25.0,19.0,1651025649126246.0
-13.0,3.0,-6.0,0.0,9.0,21.0,28.0,5.0,1651025649142202.0
-21.0,-20.0,0.0,12.0,-4.0,-29.0,-30.0,-16.0,1651025649142202.0
0.0,-10.0,-14.0,-31.0,-6.0,59.0,51.0,3.0,1651025649143227.0
-4.0,14.0,-13.0,-10.0,4.0,-9.0,-32.0,-1.0,1651025649143227.0
-13.0,3.0,18.0,28.0,-5.0,0.0,-34.0,-3.0,1651025649164883.0
-4.0,-14.0,-2.0,-9.0,14.0,13.0,8.0,0.0,1651025649164883.0
-8.0,-11.0,-13.0,-19.0,-20.0,-44.0,-16.0,-9.0,1651025649165883.0
-8.0,-4.0,16.0,27.0,7.0,11.0,40.0,9.0,1651025649165883.0
6.0,9.0,-26.0,-43.0,-9.0,10.0,8.0,1.0,1651025649178887.0
3.0,-1.0,5.0,16.0,8.0,3.0,0.0,-1.0,1651025649178887.0
1.0,-4.0,9.0,1.0,-2.0,-10.0,-11.0,4.0,1651025649185870.0
12.0,15.0,-5.0,-17.0,6.0,18.0,6.0,4.0,1651025649185870.0
-18.0,-12.0,-4.0,-7.0,-1.0,-8.0,-12.0,-14.0,1651025649201939.0
-17.0,-4.0,5.0,0.0,-5.0,-9.0,3.0,-4.0,1651025649201939.0
2.0,3.0,-13.0,-30.0,-16.0,0.0,35.0,1.0,1651025649203915.0
1.0,-6.0,-2.0,4.0,-2.0,-13.0,-87.0,-20.0,1651025649203915.0
24.0,-5.0,15.0,37.0,16.0,-15.0,16.0,9.0,1651025649224855.0
0.0,4.0,1.0,-11.0,1.0,31.0,1.0,4.0,1651025649224855.0
-9.0,1.0,-19.0,-32.0,-4.0,-4.0,43.0,9.0,1651025649225854.0
-16.0,17.0,36.0,60.0,4.0,4.0,-13.0,-6.0,1651025649225854.0
32.0,-14.0,-23.0,-20.0,-13.0,-11.0,-11.0,-2.0,1651025649239814.0
-21.0,3.0,16.0,-1.0,3.0,12.0,-8.0,-7.0,1651025649239814.0
13.0,-2.0,2.0,20.0,11.0,-5.0,11.0,13.0,1651025649240812.0
14.0,-7.0,-17.0,-31.0,-4.0,4.0,7.0,6.0,1651025649240812.0
9.0,11.0,12.0,-13.0,-8.0,-18.0,-34.0,-13.0,1651025649262056.0
-23.0,-13.0,-13.0,10.0,2.0,1.0,12.0,-8.0,1651025649262056.0
21.0,8.0,14.0,14.0,-1.0,-7.0,-48.0,-4.0,1651025649264022.0
-43.0,-2.0,-13.0,-21.0,5.0,12.0,69.0,9.0,1651025649264022.0
-16.0,-3.0,16.0,21.0,5.0,-1.0,-3.0,3.0,1651025649284988.0
31.0,7.0,-8.0,-20.0,-3.0,10.0,5.0,6.0,1651025649284988.0
-19.0,3.0,2.0,7.0,0.0,10.0,60.0,3.0,1651025649285917.0
16.0,-6.0,-13.0,-5.0,-10.0,-23.0,-86.0,-8.0,1651025649285917.0
-22.0,-16.0,-9.0,-13.0,-18.0,1.0,6.0,-9.0,1651025649298883.0
2.0,11.0,11.0,9.0,6.0,-3.0,15.0,8.0,1651025649298883.0
-26.0,-6.0,-20.0,-9.0,11.0,9.0,1.0,-8.0,1651025649306033.0
44.0,-3.0,29.0,27.0,3.0,-3.0,20.0,8.0,1651025649306033.0
-22.0,-3.0,-25.0,-14.0,6.0,6.0,4.0,-5.0,1651025649322576.0
-1.0,-3.0,2.0,2.0,-9.0,-3.0,-18.0,-3.0,1651025649322576.0
22.0,8.0,3.0,10.0,4.0,7.0,-1.0,4.0,1651025649323512.0
-55.0,-20.0,-25.0,-49.0,-22.0,-27.0,0.0,-23.0,1651025649323512.0
25.0,4.0,32.0,37.0,19.0,9.0,4.0,15.0,1651025649343915.0
3.0,-6.0,-11.0,19.0,9.0,7.0,9.0,-2.0,1651025649343915.0
-1.0,3.0,2.0,-19.0,-4.0,-1.0,-18.0,4.0,1651025649350931.0
-8.0,5.0,2.0,-6.0,-10.0,-7.0,45.0,-5.0,1651025649350931.0
-3.0,-13.0,-10.0,-16.0,9.0,14.0,-65.0,4.0,1651025649358910.0
-2.0,-3.0,-15.0,-40.0,-27.0,-31.0,-42.0,-21.0,1651025649358910.0
11.0,-10.0,33.0,77.0,13.0,-9.0,-29.0,-5.0,1651025649365824.0
-6.0,7.0,-7.0,-4.0,-1.0,4.0,21.0,-3.0,1651025649365824.0
-3.0,8.0,5.0,6.0,-1.0,11.0,57.0,6.0,1651025649381965.0
4.0,-8.0,-12.0,-3.0,0.0,-21.0,4.0,4.0,1651025649381965.0
-14.0,-10.0,-2.0,-8.0,-11.0,-4.0,-51.0,-16.0,1651025649383919.0
-12.0,5.0,8.0,28.0,14.0,14.0,17.0,-3.0,1651025649383919.0
35.0,11.0,-3.0,-3.0,5.0,18.0,23.0,17.0,1651025649404930.0
-13.0,4.0,2.0,-3.0,6.0,7.0,45.0,8.0,1651025649404930.0
19.0,8.0,-1.0,-9.0,-17.0,-25.0,-56.0,-11.0,1651025649405874.0
9.0,0.0,0.0,7.0,12.0,11.0,4.0,6.0,1651025649405874.0
-7.0,13.0,0.0,-10.0,-5.0,-1.0,21.0,0.0,1651025649418852.0
30.0,2.0,-3.0,-23.0,1.0,11.0,59.0,23.0,1651025649418852.0
-9.0,-8.0,20.0,72.0,24.0,-1.0,-61.0,-6.0,1651025649425870.0
8.0,-9.0,1.0,-1.0,4.0,15.0,27.0,7.0,1651025649425870.0
4.0,-1.0,-32.0,-43.0,-29.0,-18.0,-40.0,-21.0,1651025649441831.0
-13.0,8.0,24.0,19.0,9.0,-5.0,-10.0,-1.0,1651025649441831.0
-7.0,-9.0,-2.0,-16.0,-2.0,2.0,13.0,-3.0,1651025649443759.0
20.0,8.0,-6.0,-3.0,6.0,8.0,24.0,10.0,1651025649443759.0
-7.0,1.0,0.0,17.0,10.0,1.0,-20.0,4.0,1651025649464906.0
5.0,4.0,6.0,-3.0,-10.0,5.0,-8.0,-7.0,1651025649464906.0
4.0,1.0,-6.0,-23.0,-4.0,-16.0,-4.0,-1.0,1651025649466930.0
-3.0,-2.0,9.0,16.0,4.0,14.0,-8.0,-9.0,1651025649466930.0
-17.0,13.0,-8.0,-8.0,7.0,2.0,36.0,0.0,1651025649478870.0
54.0,-26.0,-6.0,-9.0,-9.0,8.0,-24.0,6.0,1651025649478870.0
3.0,8.0,18.0,38.0,11.0,-2.0,9.0,5.0,1651025649485920.0
11.0,2.0,-15.0,-35.0,-15.0,-2.0,11.0,8.0,1651025649485920.0
-9.0,-4.0,-5.0,-4.0,0.0,4.0,3.0,2.0,1651025649502537.0
-29.0,7.0,12.0,28.0,3.0,-25.0,-50.0,-19.0,1651025649502537.0
14.0,-4.0,-16.0,-38.0,-24.0,-4.0,23.0,1.0,1651025649503536.0
-10.0,-11.0,-13.0,-15.0,-2.0,5.0,32.0,2.0,1651025649503536.0
8.0,-8.0,-1.0,3.0,2.0,-28.0,-70.0,-3.0,1651025649524571.0
-49.0,-6.0,-1.0,21.0,0.0,8.0,21.0,-9.0,1651025649524571.0
-5.0,-7.0,-13.0,-29.0,-10.0,-7.0,0.0,-11.0,1651025649526538.0
-7.0,8.0,8.0,14.0,1.0,-16.0,-48.0,-14.0,1651025649526538.0
20.0,-2.0,-3.0,-8.0,1.0,10.0,24.0,9.0,1651025649538758.0
-44.0,0.0,1.0,11.0,-1.0,7.0,9.0,-4.0,1651025649538758.0
3.0,-3.0,-11.0,-6.0,-9.0,-6.0,-10.0,-8.0,1651025649545736.0
2.0,1.0,-14.0,-66.0,-8.0,-5.0,24.0,18.0,1651025649545736.0
-9.0,0.0,32.0,88.0,30.0,15.0,-30.0,-15.0,1651025649561693.0
19.0,0.0,-7.0,-13.0,6.0,11.0,7.0,13.0,1651025649561693.0
8.0,2.0,-9.0,-14.0,-7.0,0.0,25.0,2.0,1651025649563625.0
-2.0,-3.0,-4.0,0.0,-4.0,-12.0,-35.0,-4.0,1651025649563625.0
-1.0,3.0,-15.0,-39.0,-22.0,-8.0,15.0,-1.0,1651025649584996.0
18.0,18.0,22.0,12.0,5.0,6.0,44.0,19.0,1651025649584996.0
-13.0,-9.0,7.0,22.0,10.0,0.0,-27.0,-4.0,1651025649585922.0
5.0,4.0,2.0,8.0,0.0,-3.0,-9.0,0.0,1651025649585922.0
-3.0,-7.0,-3.0,-9.0,-8.0,7.0,40.0,0.0,1651025649597933.0
-14.0,20.0,-7.0,-7.0,21.0,13.0,-28.0,-7.0,1651025649597933.0
37.0,-13.0,-10.0,-33.0,-14.0,-37.0,-1.0,11.0,1651025649606911.0
6.0,-4.0,2.0,17.0,-4.0,1.0,-1.0,-1.0,1651025649606911.0
13.0,-3.0,17.0,24.0,2.0,18.0,3.0,-8.0,1651025649622064.0
-38.0,-5.0,-3.0,-12.0,1.0,4.0,-16.0,-8.0,1651025649622064.0
-13.0,11.0,3.0,-5.0,12.0,11.0,12.0,3.0,1651025649624058.0
15.0,-2.0,-4.0,-2.0,-7.0,-26.0,-1.0,2.0,1651025649624058.0
-4.0,2.0,9.0,13.0,-4.0,10.0,0.0,3.0,1651025649645067.0
17.0,-8.0,-14.0,-28.0,-4.0,0.0,6.0,6.0,1651025649645067.0
-5.0,3.0,6.0,23.0,9.0,6.0,6.0,0.0,1651025649646056.0
-16.0,1.0,10.0,18.0,3.0,3.0,1.0,-7.0,1651025649646056.0
-9.0,-5.0,-13.0,-22.0,-9.0,-9.0,-6.0,-2.0,1651025649659006.0
19.0,-9.0,2.0,6.0,-7.0,-5.0,-12.0,-4.0,1651025649659006.0
-23.0,1.0,-11.0,-27.0,-8.0,3.0,-3.0,-11.0,1651025649666946.0
20.0,8.0,5.0,4.0,5.0,14.0,49.0,18.0,1651025649666946.0
-34.0,-16.0,1.0,5.0,9.0,-10.0,-2.0,-8.0,1651025649681928.0
23.0,-8.0,-11.0,-8.0,-12.0,-20.0,-57.0,-12.0,1651025649681928.0
7.0,5.0,2.0,-6.0,-1.0,-13.0,22.0,14.0,1651025649683923.0
-24.0,4.0,3.0,8.0,-3.0,37.0,-15.0,-12.0,1651025649683923.0
28.0,2.0,0.0,-12.0,5.0,2.0,14.0,16.0,1651025649704607.0
-7.0,-9.0,-9.0,3.0,-11.0,-16.0,15.0,3.0,1651025649704607.0
8.0,9.0,5.0,-8.0,-3.0,19.0,-2.0,3.0,1651025649706562.0
-9.0,-2.0,1.0,16.0,3.0,-13.0,-21.0,-2.0,1651025649706562.0
-10.0,-3.0,-14.0,-26.0,-8.0,-14.0,-25.0,-20.0,1651025649718501.0
3.0,5.0,13.0,18.0,6.0,13.0,18.0,4.0,1651025649718501.0
4.0,3.0,-10.0,-18.0,-11.0,3.0,-5.0,1.0,1651025649727507.0
-19.0,-13.0,-9.0,0.0,9.0,-8.0,-3.0,-8.0,1651025649727507.0
6.0,3.0,-4.0,-16.0,-14.0,-7.0,-26.0,-1.0,1651025649742550.0
31.0,6.0,14.0,26.0,6.0,2.0,8.0,7.0,1651025649742550.0
-31.0,-1.0,-5.0,-18.0,-9.0,-12.0,-12.0,-12.0,1651025649744589.0
7.0,-1.0,-12.0,-6.0,2.0,-2.0,-13.0,-4.0,1651025649744589.0
-5.0,4.0,2.0,14.0,-2.0,-11.0,7.0,7.0,1651025649764991.0
-22.0,-10.0,-6.0,-16.0,-4.0,23.0,39.0,1.0,1651025649764991.0
22.0,17.0,-3.0,-24.0,-10.0,6.0,-10.0,-7.0,1651025649765921.0
-1.0,-11.0,9.0,22.0,8.0,-17.0,-42.0,-6.0,1651025649765921.0
21.0,-7.0,-7.0,-7.0,0.0,-16.0,-22.0,-6.0,1651025649787899.0
-43.0,-6.0,6.0,15.0,2.0,-5.0,-1.0,-16.0,1651025649787899.0
-1.0,-6.0,0.0,2.0,3.0,21.0,16.0,1.0,1651025649788859.0
-30.0,3.0,-16.0,-48.0,-17.0,-6.0,7.0,-3.0,1651025649788859.0
28.0,10.0,30.0,56.0,17.0,17.0,22.0,13.0,1651025649801852.0
17.0,5.0,-6.0,-14.0,2.0,-4.0,-7.0,5.0,1651025649801852.0
-25.0,-5.0,15.0,29.0,8.0,0.0,1.0,-3.0,1651025649803829.0
17.0,4.0,-11.0,-16.0,9.0,0.0,4.0,7.0,1651025649803829.0
-22.0,4.0,10.0,31.0,5.0,2.0,7.0,1.0,1651025649824833.0
-11.0,-6.0,-11.0,-21.0,-2.0,-2.0,1.0,-4.0,1651025649824833.0
19.0,-1.0,2.0,8.0,-6.0,-8.0,-5.0,2.0,1651025649825761.0
2.0,2.0,5.0,-7.0,-8.0,6.0,10.0,4.0,1651025649825761.0
-13.0,-4.0,-10.0,-21.0,-7.0,-3.0,-12.0,-12.0,1651025649837796.0
20.0,-1.0,4.0,17.0,3.0,-10.0,5.0,7.0,1651025649837796.0
9.0,2.0,6.0,11.0,10.0,8.0,-20.0,0.0,1651025649846788.0
-15.0,0.0,5.0,11.0,-1.0,-25.0,9.0,-1.0,1651025649846788.0
-16.0,-5.0,-12.0,-25.0,3.0,65.0,46.0,7.0,1651025649862526.0
15.0,0.0,6.0,20.0,1.0,-10.0,-58.0,-10.0,1651025649862526.0
-1.0,-6.0,-11.0,-14.0,-6.0,-9.0,14.0,6.0,1651025649863533.0
5.0,2.0,0.0,-4.0,-1.0,-16.0,-15.0,-3.0,1651025649863533.0
-7.0,4.0,14.0,17.0,5.0,-9.0,6.0,-2.0,1651025649884484.0
2.0,3.0,-8.0,-19.0,-7.0,3.0,5.0,3.0,1651025649884484.0
-6.0,-3.0,-1.0,0.0,-3.0,4.0,1.0,0.0,1651025649886464.0
9.0,-1.0,14.0,47.0,27.0,3.0,-11.0,-2.0,1651025649886464.0
0.0,2.0,-3.0,-14.0,-7.0,-10.0,-3.0,-3.0,1651025649897942.0
4.0,6.0,7.0,13.0,10.0,3.0,15.0,10.0,1651025649897942.0
-5.0,-6.0,-11.0,-6.0,-7.0,-12.0,-11.0,-6.0,1651025649906849.0
7.0,-1.0,-2.0,-11.0,-13.0,8.0,11.0,4.0,1651025649906849.0
-1.0,-2.0,-5.0,-17.0,-11.0,-36.0,-3.0,-4.0,1651025649922002.0
-5.0,-3.0,-2.0,7.0,9.0,44.0,-2.0,0.0,1651025649922002.0
-9.0,-2.0,0.0,-5.0,-3.0,20.0,14.0,-1.0,1651025649923941.0
10.0,0.0,2.0,5.0,7.0,4.0,-3.0,4.0,1651025649923941.0
-7.0,-5.0,-4.0,-2.0,12.0,6.0,9.0,-6.0,1651025649945090.0
-3.0,0.0,-4.0,-11.0,-14.0,-29.0,-6.0,-3.0,1651025649945090.0
0.0,1.0,2.0,11.0,5.0,-7.0,-1.0,2.0,1651025649946028.0
9.0,-2.0,-1.0,-14.0,-29.0,2.0,5.0,5.0,1651025649946028.0
1.0,-1.0,-6.0,4.0,19.0,-15.0,-11.0,-4.0,1651025649958061.0
-5.0,2.0,2.0,4.0,10.0,-4.0,3.0,-1.0,1651025649958061.0
1.0,2.0,11.0,13.0,3.0,9.0,2.0,-6.0,1651025649966970.0
1.0,-3.0,-7.0,-6.0,-2.0,1.0,-1.0,3.0,1651025649966970.0
-5.0,-4.0,-7.0,-12.0,-21.0,-11.0,-3.0,1.0,1651025649981956.0
1.0,0.0,-4.0,-8.0,-6.0,0.0,1.0,-1.0,1651025649981956.0
0.0,-1.0,0.0,2.0,16.0,2.0,2.0,3.0,1651025649983925.0
0.0,0.0,3.0,-1.0,-6.0,4.0,-4.0,-8.0,1651025649983925.0
2.0,1.0,-1.0,-2.0,-17.0,-3.0,-1.0,3.0,1651025650004688.0
1.0,1.0,2.0,1.0,12.0,5.0,3.0,-1.0,1651025650004688.0
-3.0,-3.0,-2.0,-1.0,-5.0,-6.0,-2.0,-1.0,1651025650005713.0
1.0,-2.0,-1.0,3.0,7.0,0.0,0.0,-1.0,1651025650005713.0
-1.0,0.0,4.0,1.0,-2.0,6.0,1.0,-2.0,1651025650018719.0
-1.0,1.0,-3.0,-6.0,-13.0,-10.0,2.0,0.0,1651025650018719.0
-2.0,-5.0,3.0,3.0,-3.0,-6.0,-5.0,-3.0,1651025650027628.0
0.0,-2.0,-12.0,-3.0,8.0,9.0,-1.0,-1.0,1651025650027628.0
-1.0,-5.0,-9.0,-4.0,-6.0,-4.0,0.0,2.0,1651025650042604.0
-1.0,1.0,2.0,-3.0,5.0,-1.0,-1.0,0.0,1651025650042604.0
-2.0,-1.0,-1.0,-1.0,1.0,-2.0,-1.0,1.0,1651025650043584.0
6.0,8.0,16.0,6.0,-1.0,4.0,0.0,2.0,1651025650043584.0
1.0,3.0,7.0,3.0,7.0,3.0,0.0,2.0,1651025650064115.0
-4.0,-10.0,-18.0,-9.0,-10.0,-7.0,-3.0,-5.0,1651025650064115.0
1.0,2.0,-1.0,2.0,-2.0,-1.0,1.0,1.0,1651025650066112.0
-1.0,-4.0,-11.0,-7.0,-4.0,-3.0,-2.0,-3.0,1651025650066112.0
0.0,6.0,16.0,3.0,-4.0,-2.0,-2.0,0.0,1651025650087123.0
4.0,5.0,3.0,8.0,13.0,4.0,2.0,4.0,1651025650087123.0
-8.0,-17.0,-5.0,-1.0,-3.0,-4.0,-2.0,-3.0,1651025650089078.0
-2.0,0.0,-17.0,-7.0,-7.0,-2.0,-4.0,-3.0,1651025650089078.0
-1.0,-2.0,-2.0,-1.0,2.0,1.0,2.0,2.0,1651025650101774.0
1.0,7.0,8.0,1.0,-14.0,-4.0,-1.0,-1.0,1651025650101774.0
4.0,3.0,8.0,9.0,11.0,3.0,4.0,11.0,1651025650101774.0
0.0,-20.0,-4.0,0.0,-15.0,-4.0,6.0,4.0,1651025650101774.0
0.0,20.0,0.0,-5.0,16.0,1.0,-8.0,-3.0,1651025650124299.0
0.0,3.0,2.0,-3.0,-2.0,4.0,-3.0,-9.0,1651025650124299.0
-8.0,-21.0,1.0,6.0,4.0,-3.0,-3.0,-6.0,1651025650124299.0
10.0,40.0,13.0,3.0,8.0,0.0,-2.0,5.0,1651025650124299.0
-6.0,-8.0,-18.0,-11.0,-19.0,-5.0,3.0,-1.0,1651025650146856.0
3.0,8.0,4.0,-5.0,-6.0,-3.0,2.0,5.0,1651025650146856.0
6.0,13.0,14.0,9.0,7.0,1.0,0.0,2.0,1651025650146856.0
-2.0,-19.0,-5.0,2.0,-6.0,-1.0,1.0,2.0,1651025650146856.0
-8.0,-14.0,-19.0,-1.0,13.0,1.0,0.0,-14.0,1651025650161845.0
5.0,17.0,-5.0,-5.0,6.0,2.0,-1.0,10.0,1651025650161845.0
5.0,-8.0,2.0,-1.0,-7.0,-1.0,6.0,7.0,1651025650161845.0
-5.0,2.0,8.0,-5.0,-7.0,-2.0,-7.0,-10.0,1651025650161845.0
5.0,1.0,11.0,8.0,7.0,-4.0,-3.0,6.0,1651025650183760.0
-11.0,-22.0,-25.0,-4.0,1.0,4.0,-1.0,-10.0,1651025650183760.0
5.0,13.0,4.0,0.0,-4.0,-2.0,1.0,6.0,1651025650184756.0
-1.0,1.0,5.0,-3.0,-3.0,0.0,1.0,-9.0,1651025650184756.0
-5.0,-11.0,-1.0,-1.0,9.0,2.0,2.0,4.0,1651025650206716.0
-2.0,-16.0,1.0,0.0,-1.0,-1.0,2.0,-8.0,1651025650206716.0
-4.0,9.0,-6.0,-6.0,-8.0,-3.0,1.0,-11.0,1651025650206716.0
0.0,11.0,11.0,-2.0,-9.0,0.0,-5.0,-6.0,1651025650206716.0
6.0,-18.0,-10.0,0.0,-1.0,-2.0,0.0,13.0,1651025650220688.0
-1.0,-8.0,-2.0,7.0,27.0,7.0,1.0,3.0,1651025650220688.0
2.0,30.0,-3.0,-8.0,-7.0,-1.0,0.0,2.0,1651025650228639.0
-1.0,-12.0,-4.0,4.0,6.0,4.0,3.0,-1.0,1651025650228639.0
1.0,17.0,14.0,-2.0,-14.0,-1.0,-2.0,-1.0,1651025650244168.0
4.0,2.0,13.0,1.0,-6.0,-3.0,1.0,7.0,1651025650244168.0
-5.0,-8.0,-14.0,-4.0,0.0,0.0,-6.0,-4.0,1651025650244168.0
-13.0,-9.0,2.0,-2.0,5.0,0.0,0.0,-5.0,1651025650244168.0
12.0,11.0,-16.0,-1.0,-13.0,-6.0,-8.0,-8.0,1651025650266135.0
-3.0,-4.0,-11.0,0.0,8.0,-3.0,-2.0,-1.0,1651025650266135.0
-8.0,-9.0,-11.0,-23.0,-10.0,0.0,-5.0,-13.0,1651025650267064.0
-1.0,2.0,4.0,21.0,9.0,4.0,3.0,13.0,1651025650267064.0
2.0,4.0,17.0,6.0,-15.0,-2.0,4.0,5.0,1651025650281093.0
9.0,19.0,22.0,7.0,8.0,3.0,0.0,19.0,1651025650281093.0
-20.0,-26.0,-21.0,0.0,4.0,0.0,-1.0,-36.0,1651025650282024.0
-10.0,-56.0,-35.0,-21.0,-7.0,-5.0,-8.0,-1.0,1651025650282024.0
0.0,27.0,16.0,1.0,3.0,1.0,2.0,-12.0,1651025650303922.0
14.0,8.0,-11.0,-1.0,-12.0,-4.0,-2.0,18.0,1651025650303922.0
10.0,38.0,38.0,-7.0,4.0,1.0,0.0,6.0,1651025650304943.0
10.0,-13.0,-4.0,14.0,-1.0,2.0,2.0,1.0,1651025650304943.0
-7.0,-4.0,-12.0,-2.0,9.0,-2.0,-3.0,-6.0,1651025650326830.0
-18.0,-5.0,9.0,-2.0,-10.0,-4.0,-5.0,-30.0,1651025650326830.0
11.0,-2.0,-7.0,3.0,3.0,-1.0,-1.0,22.0,1651025650326830.0
3.0,17.0,10.0,-7.0,-2.0,1.0,2.0,-7.0,1651025650326830.0
5.0,4.0,10.0,5.0,1.0,2.0,2.0,11.0,1651025650341819.0
0.0,-7.0,-3.0,0.0,-4.0,-1.0,1.0,-3.0,1651025650341819.0
-9.0,-18.0,-10.0,-6.0,-5.0,-1.0,0.0,1.0,1651025650341819.0
12.0,39.0,9.0,2.0,4.0,1.0,1.0,0.0,1651025650341819.0
-12.0,-13.0,1.0,3.0,9.0,4.0,-1.0,-13.0,1651025650363860.0
1.0,8.0,13.0,9.0,-1.0,0.0,2.0,4.0,1651025650363860.0
-9.0,-44.0,-25.0,-4.0,-7.0,-6.0,-2.0,-3.0,1651025650364972.0
-1.0,-4.0,-3.0,-5.0,3.0,-1.0,1.0,2.0,1651025650364972.0
-5.0,3.0,-29.0,-14.0,-5.0,-2.0,-2.0,-15.0,1651025650386925.0
0.0,7.0,18.0,-2.0,2.0,-3.0,-3.0,-3.0,1651025650386925.0
15.0,49.0,13.0,13.0,6.0,2.0,-1.0,3.0,1651025650386925.0
-9.0,-41.0,-15.0,-4.0,3.0,-1.0,0.0,1.0,1651025650386925.0
1.0,25.0,8.0,1.0,-5.0,1.0,3.0,2.0,1651025650400920.0
-2.0,-19.0,-3.0,1.0,6.0,-1.0,0.0,-2.0,1651025650400920.0
6.0,22.0,13.0,1.0,-11.0,-6.0,-2.0,5.0,1651025650408950.0
-8.0,-12.0,-4.0,-5.0,6.0,-1.0,-1.0,0.0,1651025650408950.0
5.0,-12.0,2.0,4.0,-2.0,5.0,1.0,2.0,1651025650423856.0
-2.0,-3.0,-14.0,-3.0,-5.0,-4.0,0.0,-1.0,1651025650423856.0
1.0,-3.0,2.0,2.0,-2.0,-2.0,-1.0,3.0,1651025650424970.0
-2.0,6.0,4.0,-1.0,-1.0,-1.0,-1.0,-4.0,1651025650424970.0
-2.0,-5.0,-11.0,-6.0,-3.0,-1.0,-5.0,-7.0,1651025650445969.0
-6.0,-5.0,-2.0,-2.0,-5.0,0.0,1.0,-3.0,1651025650445969.0
2.0,-7.0,-1.0,3.0,8.0,2.0,1.0,4.0,1651025650454364.0
-2.0,10.0,4.0,2.0,-2.0,0.0,-2.0,-6.0,1651025650454364.0
-3.0,-10.0,6.0,-1.0,1.0,-1.0,-1.0,4.0,1651025650460900.0
7.0,32.0,2.0,-2.0,-2.0,-1.0,0.0,2.0,1651025650460900.0
-12.0,-56.0,0.0,1.0,5.0,1.0,-1.0,-7.0,1651025650469018.0
8.0,15.0,-23.0,-5.0,-1.0,3.0,-1.0,6.0,1651025650469018.0
-4.0,-24.0,-8.0,-1.0,2.0,1.0,0.0,5.0,1651025650483936.0
1.0,-4.0,2.0,-1.0,-8.0,1.0,2.0,-1.0,1651025650483936.0
-6.0,-1.0,6.0,3.0,-2.0,-3.0,0.0,4.0,1651025650485031.0
6.0,47.0,16.0,-1.0,0.0,-4.0,-2.0,-2.0,1651025650485031.0
-1.0,-10.0,-8.0,-9.0,-1.0,-2.0,1.0,3.0,1651025650506860.0
-2.0,1.0,-3.0,-3.0,-6.0,-1.0,1.0,-4.0,1651025650506860.0
3.0,10.0,-2.0,-6.0,0.0,1.0,0.0,0.0,1651025650506860.0
-5.0,-5.0,7.0,1.0,0.0,0.0,0.0,0.0,1651025650506860.0
3.0,1.0,3.0,7.0,-1.0,-1.0,1.0,0.0,1651025650529844.0
2.0,6.0,-3.0,-2.0,-1.0,0.0,-1.0,1.0,1651025650529844.0
-1.0,-9.0,-4.0,2.0,1.0,0.0,-1.0,0.0,1651025650530808.0
4.0,10.0,2.0,2.0,-2.0,-1.0,1.0,1.0,1651025650530808.0
-1.0,-1.0,6.0,-3.0,1.0,-2.0,0.0,2.0,1651025650543813.0
-2.0,-20.0,-8.0,-3.0,0.0,2.0,-1.0,-2.0,1651025650543813.0
-4.0,-14.0,-9.0,-4.0,-1.0,1.0,-1.0,-2.0,1651025650544896.0
2.0,18.0,6.0,-2.0,0.0,-2.0,-1.0,0.0,1651025650544896.0
6.0,-22.0,2.0,3.0,2.0,0.0,1.0,3.0,1651025650575001.0
-5.0,1.0,-3.0,-1.0,-4.0,-4.0,-3.0,-3.0,1651025650575001.0
3.0,0.0,-3.0,2.0,0.0,1.0,0.0,0.0,1651025650575113.0
5.0,34.0,6.0,-2.0,-1.0,0.0,0.0,-1.0,1651025650575113.0
-8.0,-17.0,0.0,2.0,2.0,0.0,0.0,-1.0,1651025650580937.0
2.0,-3.0,-6.0,-4.0,-2.0,-2.0,0.0,-2.0,1651025650580937.0
14.0,35.0,8.0,1.0,-2.0,-2.0,-1.0,-1.0,1651025650588958.0
-15.0,-35.0,0.0,1.0,0.0,0.0,-2.0,0.0,1651025650588958.0
-3.0,2.0,0.0,-1.0,0.0,0.0,0.0,0.0,1651025650604365.0
-2.0,-24.0,-4.0,2.0,0.0,1.0,0.0,1.0,1651025650604365.0
-2.0,10.0,-1.0,-1.0,-2.0,-1.0,-1.0,-2.0,1651025650604940.0
11.0,28.0,7.0,1.0,1.0,0.0,1.0,2.0,1651025650604940.0
-2.0,1.0,-2.0,-1.0,-2.0,-2.0,-3.0,-1.0,1651025650626852.0
-4.0,-26.0,-4.0,2.0,1.0,1.0,3.0,0.0,1651025650626852.0
-2.0,-20.0,-6.0,-1.0,1.0,1.0,0.0,-1.0,1651025650626852.0
4.0,10.0,-1.0,-3.0,-1.0,0.0,-3.0,-2.0,1651025650626852.0
-8.0,-23.0,-4.0,-2.0,-1.0,0.0,-2.0,-2.0,1651025650640885.0
0.0,21.0,5.0,0.0,-2.0,-1.0,-2.0,-1.0,1651025650640885.0
1.0,-1.0,-1.0,1.0,0.0,0.0,1.0,0.0,1651025650648860.0
-17.0,-45.0,-12.0,-3.0,-6.0,-1.0,-3.0,-6.0,1651025650648860.0
2.0,23.0,3.0,3.0,4.0,1.0,0.0,0.0,1651025650663758.0
0.0,9.0,0.0,-1.0,-2.0,-1.0,-1.0,0.0,1651025650663758.0
-6.0,-42.0,-5.0,3.0,0.0,1.0,0.0,-1.0,1651025650664753.0
6.0,10.0,7.0,1.0,0.0,-1.0,1.0,2.0,1651025650664753.0
12.0,28.0,2.0,0.0,-1.0,-1.0,1.0,3.0,1651025650686864.0
-12.0,-4.0,-3.0,-5.0,-3.0,-4.0,-2.0,-6.0,1651025650686864.0
-2.0,16.0,3.0,0.0,2.0,0.0,0.0,-1.0,1651025650686864.0
5.0,-23.0,-6.0,1.0,1.0,-1.0,3.0,1.0,1651025650686864.0
0.0,11.0,0.0,-3.0,-3.0,-1.0,-2.0,-2.0,1651025650700749.0
3.0,-2.0,-2.0,1.0,1.0,0.0,0.0,-1.0,1651025650700749.0
3.0,11.0,0.0,-1.0,-2.0,-2.0,-1.0,1.0,1651025650708730.0
-3.0,-3.0,-1.0,-1.0,0.0,0.0,0.0,-1.0,1651025650708730.0
-2.0,-1.0,-4.0,-4.0,-1.0,0.0,1.0,0.0,1651025650723625.0
-8.0,8.0,-2.0,-9.0,-1.0,0.0,-3.0,-3.0,1651025650723625.0
1.0,5.0,2.0,4.0,-1.0,-1.0,-2.0,0.0,1651025650731604.0
-7.0,-22.0,2.0,16.0,4.0,1.0,0.0,1.0,1651025650731604.0
0.0,8.0,3.0,2.0,1.0,1.0,2.0,1.0,1651025650746837.0
2.0,-25.0,-4.0,0.0,-2.0,-1.0,1.0,1.0,1651025650746837.0
-8.0,-17.0,-5.0,-7.0,-3.0,-1.0,-3.0,-3.0,1651025650746837.0
5.0,13.0,1.0,-5.0,-4.0,-2.0,0.0,1.0,1651025650746837.0
-10.0,-30.0,-8.0,-2.0,-7.0,0.0,-3.0,-3.0,1651025650760829.0
-1.0,0.0,1.0,3.0,17.0,0.0,-1.0,-2.0,1651025650760829.0
5.0,-1.0,2.0,-1.0,-2.0,2.0,3.0,1.0,1651025650768742.0
5.0,5.0,1.0,0.0,-1.0,0.0,0.0,1.0,1651025650768742.0
0.0,16.0,1.0,-2.0,-3.0,-2.0,-3.0,-2.0,1651025650783787.0
-2.0,-9.0,-1.0,-3.0,-7.0,1.0,0.0,-1.0,1651025650783787.0
3.0,-2.0,-1.0,1.0,2.0,0.0,-2.0,-1.0,1651025650784787.0
-4.0,-8.0,-1.0,0.0,-1.0,1.0,-1.0,-3.0,1651025650784787.0
4.0,-7.0,2.0,-2.0,-1.0,0.0,1.0,0.0,1651025650806787.0
7.0,45.0,6.0,3.0,0.0,2.0,-1.0,1.0,1651025650806787.0
-1.0,11.0,1.0,2.0,0.0,-1.0,0.0,0.0,1651025650806787.0
0.0,5.0,-2.0,-6.0,-3.0,0.0,-2.0,0.0,1651025650806787.0
-1.0,1.0,0.0,-1.0,-2.0,-2.0,0.0,-1.0,1651025650829771.0
3.0,-8.0,-3.0,2.0,3.0,-1.0,-1.0,1.0,1651025650829771.0
-4.0,6.0,-2.0,-4.0,-3.0,-1.0,-2.0,-4.0,1651025650830727.0
-6.0,2.0,-3.0,-3.0,-3.0,-2.0,-2.0,-3.0,1651025650830727.0
5.0,10.0,3.0,3.0,1.0,0.0,0.0,0.0,1651025650843676.0
1.0,-16.0,1.0,2.0,-4.0,0.0,1.0,-1.0,1651025650843676.0
-4.0,4.0,-7.0,-5.0,-4.0,-2.0,0.0,-3.0,1651025650844664.0
1.0,5.0,0.0,-1.0,2.0,1.0,1.0,2.0,1651025650844664.0
-4.0,-24.0,-2.0,1.0,1.0,-2.0,-1.0,-2.0,1651025650866731.0
-2.0,4.0,0.0,0.0,-3.0,-1.0,-2.0,0.0,1651025650866731.0
2.0,13.0,-1.0,0.0,1.0,-1.0,0.0,0.0,1651025650866731.0
2.0,4.0,0.0,0.0,2.0,0.0,-1.0,1.0,1651025650866731.0
-7.0,11.0,-1.0,-3.0,-1.0,-1.0,-1.0,-2.0,1651025650880694.0
7.0,-4.0,3.0,3.0,3.0,1.0,2.0,3.0,1651025650880694.0
0.0,18.0,6.0,-5.0,-3.0,-3.0,-3.0,-4.0,1651025650888672.0
-4.0,-4.0,-1.0,-1.0,1.0,1.0,0.0,-3.0,1651025650888672.0
3.0,2.0,-1.0,-2.0,-4.0,0.0,1.0,2.0,1651025650904366.0
-2.0,2.0,2.0,2.0,-1.0,-1.0,-1.0,0.0,1651025650904366.0
-1.0,-4.0,-2.0,2.0,2.0,1.0,0.0,1.0,1651025650904952.0
0.0,-5.0,-3.0,-3.0,-2.0,-3.0,0.0,0.0,1651025650904952.0
10.0,26.0,5.0,1.0,4.0,2.0,1.0,1.0,1651025650926826.0
-20.0,-13.0,-11.0,-11.0,-5.0,-4.0,-4.0,-7.0,1651025650926826.0
1.0,-2.0,0.0,-2.0,0.0,-1.0,-2.0,1.0,1651025650926826.0
0.0,-8.0,4.0,10.0,2.0,0.0,-1.0,-1.0,1651025650926826.0
1.0,-5.0,0.0,-1.0,0.0,1.0,0.0,1.0,1651025650940787.0
4.0,18.0,-3.0,3.0,-4.0,-2.0,0.0,0.0,1651025650940787.0
-3.0,-13.0,-4.0,-1.0,3.0,1.0,1.0,1.0,1651025650948834.0
-3.0,-11.0,-1.0,-3.0,1.0,1.0,-1.0,-1.0,1651025650948834.0
0.0,11.0,2.0,2.0,2.0,-1.0,0.0,0.0,1651025650964365.0
1.0,-5.0,1.0,-5.0,-2.0,0.0,1.0,-2.0,1651025650964365.0
-3.0,9.0,1.0,-3.0,-2.0,0.0,-1.0,-1.0,1651025650964950.0
7.0,-8.0,-1.0,-2.0,-4.0,-2.0,-2.0,-1.0,1651025650964950.0
2.0,-1.0,1.0,-3.0,-1.0,0.0,-2.0,0.0,1651025650986796.0
-2.0,-25.0,-3.0,1.0,1.0,1.0,1.0,-1.0,1651025650986796.0
3.0,4.0,3.0,5.0,1.0,1.0,1.0,1.0,1651025650986796.0
-1.0,8.0,-1.0,-3.0,-1.0,-2.0,0.0,-1.0,1651025650986796.0
1.0,3.0,-4.0,-3.0,-5.0,-4.0,-2.0,-2.0,1651025651009969.0
1.0,-10.0,-1.0,0.0,-2.0,-2.0,-1.0,1.0,1651025651009969.0
6.0,34.0,7.0,0.0,-1.0,-1.0,-1.0,1.0,1651025651010899.0
-11.0,5.0,2.0,-1.0,0.0,0.0,-1.0,-3.0,1651025651010899.0
1.0,-4.0,-2.0,0.0,-3.0,-2.0,0.0,0.0,1651025651024018.0
2.0,-1.0,0.0,2.0,6.0,1.0,0.0,1.0,1651025651024018.0
3.0,-18.0,-4.0,-1.0,-1.0,-3.0,0.0,0.0,1651025651025135.0
0.0,-3.0,-3.0,-1.0,-1.0,-2.0,0.0,1.0,1651025651025135.0
-1.0,2.0,2.0,1.0,2.0,0.0,0.0,-1.0,1651025651046057.0
-2.0,13.0,-1.0,-4.0,-1.0,-1.0,-2.0,0.0,1651025651046057.0
-1.0,-3.0,0.0,-2.0,-1.0,0.0,1.0,-1.0,1651025651046988.0
-1.0,7.0,-3.0,-1.0,-2.0,-1.0,0.0,1.0,1651025651046988.0
-2.0,1.0,-2.0,-1.0,-2.0,-3.0,-2.0,-5.0,1651025651070003.0
2.0,6.0,3.0,3.0,2.0,0.0,-1.0,-2.0,1651025651070003.0
-2.0,-6.0,-4.0,-2.0,-2.0,0.0,-1.0,-2.0,1651025651070003.0
-5.0,-9.0,-2.0,-2.0,-1.0,1.0,0.0,-1.0,1651025651070003.0
-3.0,-27.0,-3.0,1.0,1.0,-1.0,-1.0,1.0,1651025651083998.0
3.0,16.0,1.0,-2.0,-2.0,-1.0,-1.0,0.0,1651025651083998.0
-3.0,3.0,-2.0,-2.0,-1.0,-2.0,-1.0,-2.0,1651025651085122.0
6.0,-13.0,0.0,0.0,2.0,0.0,2.0,2.0,1651025651085122.0
0.0,24.0,4.0,-3.0,-1.0,-3.0,-3.0,-1.0,1651025651106065.0
-4.0,-38.0,-7.0,-3.0,-3.0,0.0,-2.0,-4.0,1651025651106065.0
-2.0,-5.0,0.0,0.0,-1.0,0.0,0.0,-1.0,1651025651107000.0
4.0,-3.0,0.0,0.0,2.0,0.0,-1.0,1.0,1651025651107000.0
2.0,-2.0,1.0,1.0,-1.0,0.0,0.0,2.0,1651025651129983.0
-1.0,0.0,-1.0,-2.0,-4.0,0.0,-1.0,1.0,1651025651129983.0
1.0,-1.0,0.0,1.0,-1.0,-1.0,-1.0,0.0,1651025651129983.0
-1.0,-6.0,-4.0,-2.0,-1.0,1.0,0.0,-1.0,1651025651129983.0
-1.0,1.0,-2.0,0.0,0.0,1.0,-2.0,-1.0,1651025651144050.0
14.0,-5.0,7.0,6.0,4.0,1.0,3.0,5.0,1651025651144050.0
-5.0,20.0,-4.0,-3.0,0.0,0.0,-1.0,-2.0,1651025651145050.0
-6.0,-9.0,-4.0,-4.0,-2.0,0.0,-4.0,-3.0,1651025651145050.0
0.0,5.0,3.0,10.0,2.0,-1.0,1.0,-3.0,1651025651166065.0
2.0,-3.0,1.0,-2.0,-2.0,-1.0,-1.0,0.0,1651025651166065.0
0.0,-18.0,-2.0,0.0,0.0,0.0,-1.0,2.0,1651025651166992.0
2.0,9.0,-1.0,-1.0,-1.0,0.0,0.0,-1.0,1651025651166992.0
-2.0,-8.0,-3.0,-6.0,-1.0,-1.0,0.0,0.0,1651025651189998.0
-5.0,6.0,-3.0,-1.0,-1.0,-2.0,0.0,-1.0,1651025651189998.0
2.0,2.0,1.0,0.0,-3.0,-1.0,-1.0,0.0,1651025651189998.0
-5.0,7.0,-1.0,-1.0,-2.0,-2.0,-2.0,-1.0,1651025651189998.0
-7.0,-25.0,-9.0,-3.0,-2.0,1.0,0.0,-3.0,1651025651203960.0
1.0,15.0,4.0,0.0,2.0,-1.0,-1.0,1.0,1651025651203960.0
-6.0,3.0,4.0,-9.0,-8.0,-5.0,-3.0,-7.0,1651025651205014.0
5.0,31.0,3.0,2.0,0.0,-3.0,-2.0,0.0,1651025651205014.0
0.0,-26.0,1.0,13.0,8.0,2.0,0.0,0.0,1651025651225963.0
0.0,18.0,0.0,-1.0,-1.0,1.0,1.0,1.0,1651025651225963.0
4.0,-6.0,-1.0,1.0,1.0,2.0,1.0,0.0,1651025651226934.0
0.0,-10.0,-2.0,-6.0,-3.0,-1.0,1.0,0.0,1651025651226934.0
-4.0,17.0,2.0,-4.0,-2.0,0.0,0.0,-1.0,1651025651249935.0
-7.0,-20.0,-6.0,-2.0,-3.0,-2.0,-2.0,-3.0,1651025651249935.0
3.0,14.0,3.0,3.0,2.0,1.0,1.0,1.0,1651025651249935.0
-5.0,-43.0,-6.0,-3.0,-1.0,-1.0,0.0,-1.0,1651025651249935.0
3.0,0.0,1.0,4.0,2.0,-1.0,1.0,1.0,1651025651263902.0
-4.0,12.0,4.0,0.0,-1.0,-1.0,-1.0,-1.0,1651025651263902.0
-1.0,-9.0,-1.0,0.0,0.0,-1.0,-1.0,0.0,1651025651264829.0
8.0,28.0,3.0,1.0,1.0,1.0,0.0,3.0,1651025651264829.0
-2.0,-6.0,-4.0,-5.0,-3.0,0.0,-1.0,0.0,1651025651286861.0
-2.0,-2.0,-3.0,-3.0,-2.0,1.0,-1.0,-1.0,1651025651286861.0
-5.0,-33.0,-8.0,0.0,-1.0,0.0,0.0,0.0,1651025651286861.0
2.0,18.0,4.0,1.0,2.0,0.0,1.0,-1.0,1651025651286861.0
0.0,-5.0,-2.0,-4.0,-2.0,-2.0,0.0,1.0,1651025651309108.0
-2.0,7.0,-2.0,1.0,-2.0,-1.0,-1.0,-2.0,1651025651309108.0
-1.0,-3.0,-2.0,3.0,2.0,2.0,0.0,0.0,1651025651310039.0
0.0,-13.0,-1.0,2.0,0.0,1.0,0.0,2.0,1651025651310039.0
-11.0,-50.0,-19.0,-8.0,-6.0,-2.0,-2.0,-2.0,1651025651324083.0
-1.0,-10.0,-2.0,0.0,1.0,0.0,0.0,1.0,1651025651324083.0
3.0,22.0,4.0,1.0,-2.0,-3.0,-1.0,-1.0,1651025651325189.0
-10.0,-40.0,-9.0,-6.0,-1.0,0.0,-2.0,-2.0,1651025651325189.0
3.0,15.0,6.0,3.0,0.0,1.0,-1.0,-1.0,1651025651346822.0
0.0,18.0,1.0,-2.0,-2.0,-2.0,-3.0,-1.0,1651025651346822.0
-1.0,-23.0,-4.0,1.0,-1.0,0.0,0.0,0.0,1651025651346822.0
4.0,19.0,0.0,-3.0,-3.0,-2.0,-1.0,0.0,1651025651346822.0
-6.0,-3.0,-1.0,-3.0,0.0,-2.0,-2.0,-1.0,1651025651369894.0
2.0,-22.0,-3.0,-2.0,1.0,1.0,2.0,2.0,1651025651369894.0
-8.0,38.0,0.0,-7.0,-3.0,-2.0,-3.0,-4.0,1651025651369894.0
-5.0,-14.0,-7.0,-1.0,-4.0,-4.0,-1.0,-5.0,1651025651369894.0
2.0,13.0,2.0,0.0,3.0,1.0,0.0,0.0,1651025651384365.0
3.0,9.0,0.0,2.0,0.0,1.0,0.0,0.0,1651025651384365.0
0.0,-17.0,0.0,0.0,2.0,0.0,1.0,0.0,1651025651384933.0
-2.0,5.0,1.0,-1.0,-2.0,0.0,0.0,0.0,1651025651384933.0
2.0,7.0,1.0,-1.0,-3.0,-3.0,0.0,1.0,1651025651414202.0
-3.0,-7.0,-4.0,0.0,0.0,-1.0,-1.0,-3.0,1651025651414202.0
1.0,-1.0,-1.0,-3.0,-1.0,-1.0,1.0,1.0,1651025651415261.0
0.0,-1.0,-2.0,1.0,2.0,1.0,-1.0,0.0,1651025651415261.0
4.0,15.0,2.0,0.0,-2.0,1.0,0.0,0.0,1651025651429296.0
-1.0,2.0,4.0,0.0,-1.0,-2.0,-2.0,0.0,1651025651429296.0
-8.0,-22.0,-5.0,1.0,-1.0,-1.0,-2.0,-2.0,1651025651430293.0
3.0,24.0,10.0,3.0,0.0,0.0,2.0,0.0,1651025651430293.0
0.0,-8.0,0.0,-2.0,1.0,-1.0,0.0,1.0,1651025651444324.0
1.0,24.0,0.0,-4.0,-3.0,-1.0,-2.0,-1.0,1651025651444324.0
2.0,-3.0,-1.0,3.0,0.0,1.0,1.0,-1.0,1651025651444324.0
1.0,-7.0,-1.0,0.0,-1.0,-1.0,-1.0,0.0,1651025651444324.0
-1.0,2.0,-1.0,-5.0,-2.0,-2.0,0.0,0.0,1651025651466856.0
1.0,-7.0,2.0,-1.0,0.0,0.0,0.0,0.0,1651025651466856.0
-3.0,3.0,-5.0,-4.0,-2.0,-1.0,-4.0,-5.0,1651025651466856.0
0.0,9.0,5.0,6.0,3.0,1.0,1.0,1.0,1651025651466856.0
1.0,9.0,-1.0,-2.0,-3.0,-1.0,0.0,-2.0,1651025651488864.0
4.0,6.0,3.0,-1.0,0.0,0.0,2.0,1.0,1651025651488864.0
-1.0,-27.0,-5.0,-3.0,-2.0,-3.0,0.0,1.0,1651025651489797.0
-4.0,-31.0,-2.0,2.0,-1.0,1.0,0.0,-2.0,1651025651489797.0
-1.0,6.0,0.0,-2.0,0.0,0.0,0.0,-1.0,1651025651503805.0
-3.0,-9.0,-5.0,0.0,1.0,-2.0,1.0,-2.0,1651025651503805.0
1.0,2.0,-1.0,-1.0,0.0,2.0,1.0,-1.0,1651025651504805.0
2.0,-4.0,0.0,-1.0,-2.0,-1.0,2.0,1.0,1651025651504805.0
-5.0,-6.0,1.0,-1.0,2.0,-1.0,-2.0,-1.0,1651025651525962.0
-7.0,-16.0,-1.0,2.0,-3.0,1.0,-1.0,-1.0,1651025651525962.0
3.0,4.0,1.0,2.0,2.0,0.0,2.0,2.0,1651025651526891.0
1.0,-1.0,-7.0,-5.0,-1.0,-1.0,0.0,-1.0,1651025651526891.0
-1.0,-1.0,-4.0,-4.0,-4.0,0.0,0.0,-1.0,1651025651548899.0
-1.0,3.0,0.0,2.0,-1.0,-1.0,-2.0,-1.0,1651025651548899.0
1.0,4.0,4.0,0.0,-4.0,-1.0,0.0,3.0,1651025651549830.0
-4.0,-9.0,0.0,0.0,2.0,-1.0,-1.0,0.0,1651025651549830.0
7.0,10.0,3.0,3.0,0.0,-1.0,1.0,1.0,1651025651563797.0
-7.0,20.0,-3.0,-5.0,-2.0,-2.0,-1.0,-2.0,1651025651563797.0
-3.0,-47.0,-10.0,2.0,0.0,-1.0,-1.0,-2.0,1651025651564791.0
3.0,6.0,2.0,-2.0,-1.0,1.0,-1.0,1.0,1651025651564791.0
4.0,11.0,5.0,-1.0,-1.0,-1.0,-1.0,2.0,1651025651586757.0
0.0,22.0,-4.0,-2.0,-1.0,0.0,0.0,-2.0,1651025651586757.0
-2.0,-7.0,-6.0,0.0,0.0,0.0,-2.0,-1.0,1651025651586757.0
-3.0,-3.0,-2.0,1.0,3.0,-2.0,0.0,-2.0,1651025651586757.0
-1.0,-16.0,-1.0,1.0,1.0,0.0,-1.0,1.0,1651025651608762.0
0.0,-28.0,-7.0,0.0,0.0,0.0,1.0,1.0,1651025651608762.0
1.0,-3.0,0.0,-3.0,-3.0,-1.0,-2.0,-1.0,1651025651616790.0
-3.0,13.0,0.0,0.0,2.0,0.0,0.0,-2.0,1651025651616790.0
6.0,20.0,6.0,1.0,-4.0,0.0,-1.0,0.0,1651025651622806.0
-3.0,-29.0,-7.0,-3.0,0.0,-1.0,0.0,-2.0,1651025651622806.0
0.0,11.0,0.0,-2.0,-2.0,-1.0,0.0,-1.0,1651025651631818.0
2.0,-5.0,4.0,4.0,3.0,1.0,0.0,1.0,1651025651631818.0
-1.0,-13.0,-1.0,2.0,1.0,2.0,1.0,2.0,1651025651646768.0
5.0,-3.0,3.0,-1.0,1.0,0.0,0.0,1.0,1651025651646768.0
-5.0,5.0,-3.0,0.0,0.0,-1.0,-2.0,-2.0,1651025651646768.0
