EMG_s0,EMG_s1,EMG_s2,EMG_s3,EMG_s4,EMG_s5,EMG_s6,EMG_s7,timestamp
0.0,2.0,-2.0,-2.0,-5.0,-3.0,0.0,-2.0,1651025600761000.0
-2.0,-1.0,-2.0,-4.0,-6.0,-2.0,-1.0,-2.0,1651025600761000.0
-2.0,0.0,1.0,2.0,3.0,-1.0,-2.0,-1.0,1651025600761934.0
-1.0,-1.0,0.0,2.0,-2.0,-2.0,-2.0,-3.0,1651025600761934.0
0.0,-2.0,-2.0,-3.0,-7.0,-4.0,-3.0,1.0,1651025600762956.0
-1.0,-2.0,-2.0,-2.0,5.0,3.0,-1.0,2.0,1651025600762956.0
-1.0,1.0,0.0,2.0,7.0,4.0,1.0,-1.0,1651025600765924.0
-2.0,0.0,0.0,-1.0,1.0,-1.0,0.0,-1.0,1651025600765924.0
0.0,-1.0,0.0,2.0,0.0,0.0,0.0,0.0,1651025600772905.0
2.0,2.0,-1.0,-1.0,-9.0,-6.0,1.0,1.0,1651025600772905.0
-2.0,-6.0,-3.0,-3.0,-1.0,0.0,-1.0,1.0,1651025600784900.0
0.0,0.0,1.0,0.0,-4.0,2.0,0.0,1.0,1651025600784900.0
0.0,4.0,3.0,2.0,15.0,2.0,1.0,0.0,1651025600787892.0
2.0,0.0,1.0,0.0,-6.0,2.0,0.0,0.0,1651025600787892.0
3.0,1.0,1.0,0.0,1.0,-2.0,2.0,1.0,1651025600804820.0
0.0,1.0,-2.0,-1.0,8.0,0.0,-1.0,0.0,1651025600804820.0
4.0,6.0,6.0,0.0,-9.0,0.0,0.0,1.0,1651025600811809.0
-2.0,-7.0,-3.0,-1.0,4.0,1.0,-1.0,1.0,1651025600811809.0
2.0,4.0,-1.0,-2.0,1.0,0.0,-1.0,-2.0,1651025600833776.0
-2.0,-2.0,-1.0,-3.0,-3.0,1.0,0.0,0.0,1651025600833776.0
2.0,0.0,-1.0,2.0,2.0,-1.0,0.0,0.0,1651025600834774.0
0.0,3.0,3.0,0.0,2.0,0.0,0.0,-1.0,1651025600834774.0
-1.0,-4.0,0.0,0.0,-7.0,-1.0,-1.0,-1.0,1651025600847741.0
3.0,11.0,1.0,-1.0,2.0,0.0,1.0,-1.0,1651025600847741.0
-1.0,1.0,2.0,4.0,-1.0,1.0,2.0,0.0,1651025600889651.0
0.0,1.0,0.0,1.0,-3.0,-1.0,0.0,0.0,1651025600889651.0
-1.0,-1.0,-3.0,-1.0,-3.0,-1.0,0.0,1.0,1651025600890626.0
0.0,-1.0,-2.0,-6.0,-12.0,-3.0,0.0,0.0,1651025600890626.0
-2.0,-1.0,1.0,2.0,18.0,0.0,-1.0,-2.0,1651025600893618.0
0.0,-1.0,0.0,-2.0,-11.0,-2.0,0.0,1.0,1651025600893618.0
0.0,-1.0,0.0,0.0,4.0,0.0,-1.0,0.0,1651025600894615.0
-2.0,-1.0,-1.0,1.0,5.0,2.0,-1.0,-1.0,1651025600894615.0
1.0,3.0,-1.0,-2.0,-12.0,-1.0,-1.0,1.0,1651025600901596.0
-1.0,0.0,-1.0,1.0,6.0,1.0,1.0,0.0,1651025600901596.0
0.0,1.0,0.0,-1.0,-2.0,-1.0,-1.0,1.0,1651025600908601.0
-1.0,-1.0,-2.0,-2.0,-1.0,-1.0,0.0,-2.0,1651025600908601.0
0.0,1.0,-1.0,-1.0,3.0,0.0,-2.0,-1.0,1651025600923537.0
-2.0,-1.0,-1.0,-2.0,-15.0,-6.0,-1.0,-2.0,1651025600923537.0
2.0,9.0,2.0,-1.0,7.0,3.0,0.0,1.0,1651025600930558.0
-2.0,-8.0,-2.0,1.0,4.0,0.0,1.0,-1.0,1651025600930558.0
0.0,-2.0,1.0,-1.0,-4.0,-2.0,0.0,0.0,1651025600938497.0
-1.0,-1.0,-3.0,-4.0,-4.0,-1.0,-1.0,1.0,1651025600938497.0
3.0,6.0,1.0,0.0,-9.0,-2.0,0.0,0.0,1651025600962462.0
-5.0,-6.0,-1.0,0.0,9.0,5.0,-3.0,-1.0,1651025600962462.0
0.0,0.0,-3.0,0.0,8.0,1.0,-1.0,1.0,1651025600962462.0
2.0,0.0,-1.0,1.0,0.0,-2.0,1.0,-1.0,1651025600962462.0
-1.0,-6.0,-3.0,-1.0,-5.0,0.0,1.0,-1.0,1651025600975455.0
0.0,-2.0,1.0,-1.0,-3.0,-1.0,1.0,-1.0,1651025600975455.0
-1.0,-4.0,-2.0,-2.0,-7.0,-2.0,-1.0,-2.0,1651025600984404.0
-2.0,1.0,-1.0,-4.0,0.0,2.0,-3.0,-2.0,1651025600984404.0
-3.0,-4.0,-3.0,1.0,11.0,0.0,-1.0,-1.0,1651025600999431.0
0.0,2.0,1.0,1.0,-9.0,-4.0,0.0,0.0,1651025600999431.0
1.0,1.0,-2.0,-3.0,0.0,3.0,0.0,-1.0,1651025601000361.0
2.0,-2.0,-1.0,0.0,7.0,3.0,1.0,0.0,1651025601000361.0
-1.0,0.0,0.0,-3.0,-7.0,-2.0,-1.0,-1.0,1651025601022369.0
3.0,7.0,-1.0,-2.0,-1.0,-2.0,0.0,0.0,1651025601022369.0
-5.0,-9.0,-2.0,-2.0,-3.0,-4.0,-1.0,-2.0,1651025601023300.0
-2.0,0.0,1.0,-1.0,-6.0,-5.0,-1.0,0.0,1651025601023300.0
-1.0,0.0,1.0,0.0,3.0,4.0,1.0,-1.0,1651025601036279.0
-1.0,0.0,2.0,2.0,0.0,3.0,0.0,-1.0,1651025601036279.0
1.0,1.0,-1.0,2.0,16.0,1.0,0.0,-1.0,1651025601044409.0
1.0,-1.0,0.0,0.0,-6.0,2.0,1.0,0.0,1651025601044409.0
-2.0,-1.0,-3.0,-3.0,-12.0,-6.0,-2.0,-1.0,1651025601059869.0
1.0,1.0,-2.0,-2.0,5.0,4.0,-1.0,0.0,1651025601059869.0
-1.0,0.0,1.0,0.0,-8.0,0.0,1.0,-1.0,1651025601060879.0
1.0,5.0,4.0,4.0,5.0,-1.0,-1.0,-1.0,1651025601060879.0
-1.0,-8.0,-3.0,-1.0,1.0,0.0,0.0,-3.0,1651025601082036.0
-1.0,-4.0,0.0,-2.0,-2.0,-2.0,0.0,-1.0,1651025601082036.0
0.0,0.0,-2.0,-5.0,-12.0,-4.0,1.0,1.0,1651025601084035.0
-1.0,-3.0,-1.0,1.0,15.0,2.0,-3.0,-2.0,1651025601084035.0
1.0,4.0,1.0,3.0,2.0,0.0,0.0,1.0,1651025601096206.0
-3.0,-8.0,0.0,0.0,-4.0,-1.0,0.0,-2.0,1651025601096206.0
1.0,11.0,-1.0,-1.0,3.0,-1.0,-2.0,-1.0,1651025601104342.0
0.0,-1.0,-2.0,-8.0,-18.0,0.0,-1.0,1.0,1651025601104342.0
0.0,-1.0,0.0,1.0,5.0,-3.0,-1.0,-2.0,1651025601119330.0
-1.0,2.0,0.0,3.0,10.0,2.0,-1.0,-1.0,1651025601119330.0
0.0,2.0,1.0,1.0,-7.0,1.0,1.0,0.0,1651025601121352.0
0.0,-3.0,-2.0,0.0,1.0,-3.0,-1.0,1.0,1651025601121352.0
-2.0,-3.0,-3.0,-5.0,-22.0,-6.0,-3.0,-1.0,1651025601141928.0
1.0,4.0,1.0,0.0,14.0,4.0,-2.0,0.0,1651025601141928.0
-1.0,-8.0,-1.0,0.0,-5.0,-3.0,-1.0,0.0,1651025601143922.0
-3.0,-2.0,0.0,1.0,4.0,1.0,0.0,0.0,1651025601143922.0
0.0,-2.0,2.0,0.0,1.0,-1.0,0.0,0.0,1651025601155953.0
0.0,2.0,1.0,1.0,-8.0,-3.0,-1.0,-1.0,1651025601155953.0
1.0,2.0,-1.0,-1.0,-1.0,1.0,0.0,0.0,1651025601164869.0
0.0,2.0,-1.0,0.0,2.0,0.0,1.0,-1.0,1651025601164869.0
-3.0,-2.0,1.0,0.0,5.0,2.0,0.0,1.0,1651025601179997.0
1.0,0.0,-4.0,-1.0,-4.0,-3.0,0.0,0.0,1651025601179997.0
1.0,1.0,-1.0,-3.0,-7.0,-3.0,-1.0,-1.0,1651025601180973.0
-1.0,-3.0,3.0,9.0,30.0,10.0,1.0,-1.0,1651025601180973.0
0.0,2.0,4.0,2.0,-7.0,0.0,2.0,0.0,1651025601202102.0
2.0,2.0,-2.0,-3.0,5.0,1.0,-1.0,2.0,1651025601202102.0
-1.0,-5.0,0.0,0.0,0.0,1.0,-1.0,-1.0,1651025601204057.0
1.0,-1.0,-1.0,-5.0,-15.0,-6.0,0.0,1.0,1651025601204057.0
0.0,1.0,-2.0,-1.0,1.0,-1.0,-1.0,-1.0,1651025601216001.0
-1.0,-2.0,0.0,-1.0,7.0,1.0,-1.0,0.0,1651025601216001.0
-2.0,0.0,2.0,1.0,-1.0,0.0,1.0,1.0,1651025601224491.0
0.0,1.0,1.0,0.0,-2.0,-2.0,-2.0,1.0,1651025601224491.0
0.0,-2.0,-2.0,3.0,1.0,1.0,0.0,-1.0,1651025601239452.0
-1.0,0.0,-1.0,-2.0,-12.0,-6.0,0.0,0.0,1651025601239452.0
-1.0,0.0,-2.0,-4.0,-10.0,-1.0,-1.0,0.0,1651025601245430.0
0.0,0.0,-1.0,-1.0,10.0,2.0,1.0,-2.0,1651025601245430.0
2.0,0.0,0.0,2.0,10.0,-2.0,-1.0,-1.0,1651025601262446.0
0.0,2.0,-1.0,1.0,-7.0,-2.0,0.0,-1.0,1651025601262446.0
1.0,0.0,-1.0,-1.0,4.0,3.0,-1.0,0.0,1651025601263389.0
-1.0,-2.0,-3.0,-5.0,-17.0,-6.0,0.0,-2.0,1651025601263389.0
1.0,8.0,0.0,-1.0,2.0,2.0,-1.0,0.0,1651025601284393.0
-4.0,-6.0,2.0,5.0,7.0,0.0,0.0,-1.0,1651025601284393.0
-1.0,-2.0,-1.0,-2.0,-10.0,-5.0,-2.0,0.0,1651025601286347.0
-1.0,1.0,-2.0,-2.0,3.0,2.0,-2.0,-1.0,1651025601286347.0
0.0,0.0,0.0,-4.0,1.0,1.0,0.0,0.0,1651025601298666.0
0.0,0.0,1.0,-2.0,-15.0,-4.0,-1.0,2.0,1651025601298666.0
-1.0,-1.0,0.0,3.0,14.0,1.0,-2.0,-3.0,1651025601305648.0
1.0,1.0,2.0,2.0,14.0,2.0,-2.0,0.0,1651025601305648.0
-1.0,0.0,0.0,-1.0,-5.0,1.0,0.0,-1.0,1651025601322545.0
-1.0,1.0,-1.0,-2.0,-7.0,-1.0,0.0,-3.0,1651025601322545.0
-3.0,-4.0,-1.0,-1.0,-8.0,-3.0,0.0,-2.0,1651025601323532.0
0.0,-2.0,-2.0,-1.0,-7.0,-4.0,-1.0,1.0,1651025601323532.0
-1.0,-3.0,-2.0,-3.0,9.0,6.0,-2.0,-3.0,1651025601344302.0
0.0,-2.0,-2.0,-1.0,2.0,-3.0,0.0,0.0,1651025601344302.0
1.0,2.0,-1.0,3.0,4.0,0.0,0.0,1.0,1651025601346327.0
-3.0,0.0,-1.0,0.0,-3.0,-3.0,0.0,-2.0,1651025601346327.0
0.0,-4.0,0.0,-3.0,-6.0,0.0,0.0,0.0,1651025601358929.0
1.0,2.0,3.0,-1.0,1.0,0.0,0.0,-1.0,1651025601358929.0
-1.0,-7.0,-4.0,-4.0,1.0,-1.0,0.0,0.0,1651025601366164.0
0.0,0.0,0.0,2.0,-7.0,-3.0,-2.0,-3.0,1651025601366164.0
-1.0,0.0,0.0,-5.0,-13.0,-1.0,-1.0,1.0,1651025601382123.0
0.0,-5.0,-2.0,5.0,31.0,2.0,-2.0,-1.0,1651025601382123.0
2.0,2.0,0.0,4.0,5.0,4.0,1.0,0.0,1651025601384139.0
0.0,0.0,-1.0,-1.0,-12.0,-6.0,0.0,1.0,1651025601384139.0
-1.0,-1.0,0.0,-2.0,-5.0,-2.0,-1.0,1.0,1651025601404166.0
-1.0,-2.0,-4.0,-4.0,-9.0,-1.0,-1.0,1.0,1651025601404166.0
-1.0,0.0,2.0,-2.0,-4.0,-4.0,-2.0,-1.0,1651025601406190.0
-2.0,-2.0,0.0,0.0,-1.0,1.0,-1.0,-1.0,1651025601406190.0
0.0,-1.0,-2.0,2.0,14.0,0.0,-1.0,0.0,1651025601419014.0
0.0,1.0,1.0,1.0,-2.0,-1.0,1.0,0.0,1651025601419014.0
-1.0,0.0,0.0,0.0,-1.0,0.0,2.0,0.0,1651025601425335.0
4.0,12.0,2.0,-4.0,0.0,0.0,-1.0,0.0,1651025601425335.0
-6.0,-12.0,-1.0,0.0,1.0,-2.0,-2.0,-3.0,1651025601442295.0
0.0,2.0,-1.0,-3.0,-9.0,-4.0,1.0,0.0,1651025601442295.0
-1.0,-8.0,-3.0,-2.0,-2.0,-4.0,-1.0,0.0,1651025601443305.0
2.0,4.0,2.0,0.0,-6.0,4.0,-1.0,1.0,1651025601443305.0
-1.0,-1.0,-2.0,1.0,4.0,-7.0,-2.0,-1.0,1651025601464472.0
-2.0,0.0,2.0,1.0,10.0,8.0,0.0,-1.0,1651025601464472.0
-2.0,0.0,-1.0,-3.0,-15.0,-5.0,0.0,1.0,1651025601466400.0
-3.0,-5.0,-3.0,-2.0,10.0,4.0,-1.0,2.0,1651025601466400.0
0.0,1.0,0.0,0.0,-6.0,-1.0,0.0,-1.0,1651025601479400.0
-1.0,-1.0,-1.0,-2.0,-9.0,-4.0,-2.0,0.0,1651025601479400.0
1.0,1.0,1.0,0.0,2.0,0.0,-1.0,0.0,1651025601485416.0
-3.0,-4.0,-1.0,0.0,0.0,-1.0,1.0,0.0,1651025601485416.0
0.0,-1.0,-1.0,0.0,2.0,-1.0,-1.0,1.0,1651025601502387.0
3.0,8.0,1.0,-3.0,-19.0,-8.0,-2.0,0.0,1651025601502387.0
-4.0,-11.0,-7.0,2.0,19.0,7.0,0.0,-2.0,1651025601503408.0
-2.0,-3.0,-1.0,3.0,8.0,1.0,1.0,-1.0,1651025601503408.0
0.0,2.0,1.0,0.0,-5.0,0.0,2.0,0.0,1651025601524774.0
0.0,-1.0,-2.0,-4.0,-4.0,-1.0,-2.0,1.0,1651025601524774.0
1.0,5.0,3.0,-4.0,-17.0,-3.0,0.0,-2.0,1651025601525705.0
-1.0,-2.0,-1.0,1.0,21.0,4.0,-1.0,-1.0,1651025601525705.0
-2.0,0.0,-1.0,-1.0,0.0,-1.0,0.0,-2.0,1651025601538737.0
-3.0,-8.0,-2.0,-1.0,-4.0,-1.0,-1.0,-3.0,1651025601538737.0
-1.0,0.0,-3.0,0.0,7.0,5.0,-2.0,0.0,1651025601545719.0
-2.0,-5.0,-1.0,-1.0,-21.0,-7.0,2.0,-1.0,1651025601545719.0
-1.0,7.0,2.0,-1.0,13.0,8.0,0.0,0.0,1651025601562302.0
-1.0,-1.0,-2.0,-1.0,-3.0,-2.0,2.0,0.0,1651025601562302.0
-1.0,3.0,0.0,0.0,1.0,-1.0,-2.0,-1.0,1651025601563233.0
0.0,-3.0,-1.0,0.0,-1.0,0.0,-1.0,0.0,1651025601563233.0
-1.0,-5.0,-2.0,0.0,-6.0,-3.0,-1.0,-1.0,1651025601584244.0
-1.0,-1.0,-2.0,-2.0,-5.0,0.0,0.0,-2.0,1651025601584244.0
-1.0,-2.0,-1.0,-2.0,0.0,0.0,0.0,0.0,1651025601586172.0
2.0,2.0,2.0,3.0,12.0,-2.0,-1.0,0.0,1651025601586172.0
1.0,1.0,0.0,0.0,-4.0,0.0,0.0,0.0,1651025601599157.0
0.0,-1.0,0.0,2.0,4.0,2.0,-2.0,0.0,1651025601599157.0
0.0,6.0,0.0,-1.0,-5.0,0.0,1.0,-2.0,1651025601606125.0
-1.0,-1.0,-2.0,-3.0,-7.0,-2.0,-2.0,0.0,1651025601606125.0
1.0,-1.0,0.0,0.0,4.0,1.0,-1.0,-1.0,1651025601622259.0
1.0,4.0,0.0,1.0,3.0,1.0,1.0,0.0,1651025601622259.0
-3.0,-6.0,-3.0,-2.0,-2.0,-1.0,-1.0,-2.0,1651025601623217.0
-1.0,-6.0,-4.0,-3.0,-6.0,-2.0,-2.0,-1.0,1651025601623217.0
-1.0,-2.0,0.0,-1.0,3.0,0.0,-1.0,-2.0,1651025601644201.0
-2.0,-3.0,-2.0,-1.0,11.0,5.0,0.0,0.0,1651025601644201.0
2.0,-2.0,3.0,3.0,4.0,-2.0,0.0,0.0,1651025601646129.0
0.0,1.0,0.0,-2.0,-1.0,0.0,0.0,0.0,1651025601646129.0
-2.0,3.0,0.0,-2.0,-15.0,-8.0,-1.0,1.0,1651025601658161.0
-1.0,-2.0,0.0,-1.0,2.0,1.0,-1.0,0.0,1651025601658161.0
0.0,5.0,2.0,2.0,9.0,2.0,2.0,0.0,1651025601666869.0
0.0,-4.0,1.0,3.0,-1.0,2.0,1.0,0.0,1651025601666869.0
3.0,-3.0,0.0,-5.0,-15.0,-5.0,-1.0,-1.0,1651025601682118.0
-3.0,-1.0,0.0,3.0,11.0,-1.0,-1.0,-1.0,1651025601682118.0
-1.0,2.0,1.0,-1.0,-1.0,1.0,-1.0,1.0,1651025601684113.0
-1.0,3.0,1.0,-1.0,-6.0,0.0,1.0,0.0,1651025601684113.0
0.0,-3.0,-3.0,-2.0,-7.0,1.0,1.0,-1.0,1651025601705071.0
2.0,2.0,1.0,2.0,6.0,1.0,1.0,0.0,1651025601705071.0
-2.0,-5.0,-1.0,2.0,1.0,-1.0,0.0,-1.0,1651025601706038.0
0.0,0.0,-1.0,-1.0,-1.0,0.0,-1.0,-1.0,1651025601706038.0
0.0,2.0,-2.0,-1.0,0.0,1.0,-1.0,0.0,1651025601718995.0
-1.0,-8.0,-2.0,-1.0,-6.0,-3.0,0.0,0.0,1651025601718995.0
2.0,3.0,-1.0,-1.0,1.0,-1.0,-1.0,0.0,1651025601732955.0
-2.0,0.0,-1.0,-2.0,-8.0,-5.0,-1.0,-1.0,1651025601732955.0
0.0,-1.0,-2.0,3.0,16.0,5.0,0.0,0.0,1651025601741975.0
1.0,1.0,-1.0,2.0,1.0,3.0,2.0,-1.0,1651025601741975.0
0.0,3.0,3.0,0.0,-3.0,-2.0,0.0,-1.0,1651025601743953.0
-1.0,-6.0,-3.0,-3.0,1.0,0.0,0.0,-2.0,1651025601743953.0
-2.0,2.0,0.0,0.0,-3.0,-2.0,-2.0,-1.0,1651025601765019.0
-2.0,4.0,1.0,-4.0,-8.0,-4.0,-3.0,-2.0,1651025601765019.0
-2.0,-7.0,-2.0,0.0,4.0,1.0,-1.0,-1.0,1651025601766005.0
1.0,0.0,-1.0,-3.0,1.0,0.0,0.0,2.0,1651025601766005.0
-1.0,-3.0,-1.0,-1.0,-1.0,0.0,-1.0,0.0,1651025601778041.0
2.0,2.0,1.0,3.0,-11.0,-3.0,1.0,-1.0,1651025601778041.0
-1.0,6.0,-3.0,-3.0,-6.0,-7.0,-2.0,-2.0,1651025601787068.0
-2.0,1.0,0.0,3.0,16.0,5.0,0.0,-1.0,1651025601787068.0
0.0,-1.0,0.0,-1.0,-3.0,1.0,1.0,-1.0,1651025601802523.0
-2.0,0.0,-1.0,-6.0,-7.0,-6.0,-1.0,0.0,1651025601802523.0
1.0,2.0,0.0,-3.0,-13.0,1.0,-1.0,2.0,1651025601803523.0
-1.0,-2.0,-3.0,0.0,12.0,-2.0,-1.0,-3.0,1651025601803523.0
0.0,3.0,3.0,4.0,4.0,3.0,0.0,-1.0,1651025601824508.0
0.0,-2.0,-2.0,-1.0,-4.0,-3.0,-1.0,0.0,1651025601824508.0
1.0,-1.0,-1.0,0.0,-1.0,-2.0,1.0,0.0,1651025601826012.0
-1.0,0.0,1.0,-1.0,-4.0,1.0,-1.0,-1.0,1651025601826012.0
-1.0,0.0,-2.0,0.0,0.0,1.0,1.0,0.0,1651025601837923.0
0.0,-3.0,-2.0,0.0,-9.0,-5.0,0.0,-1.0,1651025601837923.0
0.0,5.0,-1.0,0.0,18.0,7.0,-1.0,1.0,1651025601846844.0
-3.0,-13.0,-2.0,-1.0,-6.0,-2.0,-1.0,0.0,1651025601846844.0
4.0,11.0,3.0,-1.0,-6.0,-5.0,-2.0,0.0,1651025601869172.0
-3.0,-2.0,-2.0,-3.0,-2.0,-1.0,-2.0,-2.0,1651025601869172.0
-1.0,-1.0,-2.0,4.0,4.0,1.0,-1.0,1.0,1651025601871100.0
1.0,3.0,0.0,-2.0,-14.0,-1.0,-1.0,1.0,1651025601871100.0
-2.0,-4.0,-2.0,1.0,6.0,-2.0,-3.0,0.0,1651025601884256.0
-4.0,-1.0,-4.0,-5.0,7.0,3.0,-2.0,0.0,1651025601884256.0
2.0,6.0,3.0,2.0,5.0,2.0,1.0,0.0,1651025601886182.0
1.0,4.0,2.0,2.0,-2.0,0.0,1.0,0.0,1651025601886182.0
0.0,-3.0,-4.0,-3.0,-6.0,-2.0,-1.0,-2.0,1651025601907211.0
0.0,-4.0,-1.0,-1.0,-1.0,1.0,-1.0,0.0,1651025601907211.0
-2.0,-9.0,-5.0,-3.0,-5.0,-1.0,-1.0,-4.0,1651025601908167.0
1.0,3.0,1.0,1.0,0.0,4.0,0.0,0.0,1651025601908167.0
-1.0,-4.0,-2.0,0.0,3.0,-2.0,0.0,2.0,1651025601929085.0
2.0,4.0,1.0,0.0,0.0,-1.0,0.0,0.0,1651025601929085.0
-2.0,-9.0,0.0,-2.0,-5.0,-4.0,-1.0,0.0,1651025601931079.0
-3.0,-3.0,-4.0,0.0,0.0,-1.0,1.0,-1.0,1651025601931079.0
-1.0,-2.0,1.0,1.0,8.0,1.0,-1.0,-1.0,1651025601944055.0
1.0,3.0,1.0,2.0,-1.0,1.0,-1.0,0.0,1651025601944055.0
-1.0,-8.0,-4.0,-2.0,-2.0,-1.0,-2.0,0.0,1651025601951093.0
2.0,7.0,0.0,-4.0,-16.0,-4.0,-1.0,0.0,1651025601951093.0
-4.0,-4.0,-1.0,-1.0,13.0,1.0,-1.0,-2.0,1651025601967167.0
0.0,-3.0,1.0,5.0,14.0,4.0,3.0,-2.0,1651025601967167.0
-1.0,3.0,1.0,0.0,-9.0,-4.0,1.0,-1.0,1651025601969126.0
-3.0,-5.0,0.0,-2.0,5.0,1.0,-1.0,-1.0,1651025601969126.0
1.0,-2.0,-1.0,-2.0,-10.0,-2.0,0.0,-1.0,1651025601989175.0
2.0,6.0,-1.0,-2.0,-4.0,-2.0,-1.0,-2.0,1651025601989175.0
-3.0,-4.0,0.0,-2.0,5.0,0.0,-2.0,-2.0,1651025601991102.0
0.0,3.0,0.0,-1.0,-2.0,-3.0,-2.0,0.0,1651025601991102.0
0.0,0.0,-3.0,-3.0,-8.0,-1.0,1.0,0.0,1651025602004136.0
-1.0,-4.0,0.0,-1.0,4.0,1.0,-2.0,2.0,1651025602004136.0
1.0,1.0,0.0,2.0,-11.0,-4.0,0.0,-1.0,1651025602011116.0
-1.0,-1.0,0.0,1.0,8.0,2.0,0.0,0.0,1651025602011116.0
-3.0,-3.0,2.0,2.0,-2.0,-1.0,0.0,0.0,1651025602027007.0
-1.0,-13.0,-2.0,-1.0,-2.0,1.0,-1.0,0.0,1651025602027007.0
0.0,7.0,0.0,-7.0,-9.0,-4.0,0.0,0.0,1651025602029028.0
-1.0,1.0,1.0,1.0,3.0,-1.0,0.0,0.0,1651025602029028.0
0.0,0.0,0.0,3.0,5.0,1.0,1.0,0.0,1651025602050011.0
1.0,3.0,3.0,3.0,-4.0,-3.0,0.0,0.0,1651025602050011.0
-2.0,-2.0,-1.0,-2.0,5.0,3.0,0.0,-1.0,1651025602051963.0
-1.0,-2.0,-3.0,-7.0,-10.0,-1.0,0.0,-3.0,1651025602051963.0
1.0,2.0,-1.0,-1.0,5.0,-2.0,0.0,-1.0,1651025602063907.0
-4.0,-2.0,0.0,4.0,12.0,0.0,-1.0,-1.0,1651025602063907.0
1.0,1.0,1.0,0.0,-10.0,0.0,0.0,1.0,1651025602071008.0
1.0,6.0,2.0,3.0,6.0,-1.0,-2.0,-2.0,1651025602071008.0
-3.0,-6.0,-7.0,-7.0,-12.0,1.0,-1.0,1.0,1651025602087032.0
0.0,9.0,-5.0,-5.0,-6.0,-2.0,0.0,-1.0,1651025602087032.0
0.0,-6.0,-2.0,1.0,7.0,0.0,0.0,0.0,1651025602088987.0
-1.0,-6.0,-3.0,-10.0,-12.0,-5.0,0.0,0.0,1651025602088987.0
-1.0,-2.0,2.0,2.0,1.0,2.0,0.0,0.0,1651025602109121.0
0.0,1.0,3.0,6.0,2.0,0.0,-1.0,-1.0,1651025602109121.0
-1.0,0.0,-1.0,2.0,2.0,2.0,0.0,0.0,1651025602111052.0
1.0,12.0,6.0,2.0,0.0,-3.0,1.0,0.0,1651025602111052.0
-1.0,-4.0,-3.0,-6.0,-3.0,-2.0,-1.0,-1.0,1651025602124054.0
0.0,-2.0,-3.0,-9.0,-2.0,0.0,0.0,1.0,1651025602124054.0
-1.0,-7.0,-3.0,3.0,0.0,3.0,-1.0,-1.0,1651025602131118.0
0.0,-3.0,3.0,-1.0,-1.0,-3.0,-1.0,1.0,1651025602131118.0
-1.0,0.0,0.0,3.0,-5.0,1.0,-1.0,0.0,1651025602147482.0
-3.0,-6.0,-15.0,-4.0,6.0,-2.0,-1.0,-2.0,1651025602147482.0
0.0,-4.0,0.0,1.0,-8.0,-1.0,0.0,0.0,1651025602148870.0
0.0,5.0,2.0,5.0,19.0,6.0,0.0,-1.0,1651025602148870.0
0.0,8.0,7.0,0.0,-8.0,-3.0,2.0,-1.0,1651025602170016.0
1.0,1.0,6.0,4.0,-5.0,-1.0,0.0,0.0,1651025602170016.0
1.0,0.0,-3.0,-8.0,-4.0,-4.0,-3.0,-1.0,1651025602170953.0
-3.0,-12.0,-3.0,-1.0,0.0,1.0,0.0,0.0,1651025602170953.0
1.0,7.0,1.0,3.0,-3.0,-1.0,0.0,-1.0,1651025602183977.0
1.0,3.0,1.0,-2.0,0.0,0.0,0.0,-1.0,1651025602183977.0
3.0,14.0,-1.0,0.0,4.0,2.0,0.0,0.0,1651025602190957.0
-6.0,-34.0,-10.0,-7.0,-16.0,-7.0,-2.0,-2.0,1651025602190957.0
-1.0,3.0,-1.0,-4.0,16.0,1.0,-1.0,-2.0,1651025602206924.0
0.0,-5.0,-3.0,-2.0,-5.0,2.0,-1.0,-1.0,1651025602206924.0
-1.0,3.0,3.0,-1.0,-3.0,-3.0,-1.0,0.0,1651025602208852.0
1.0,6.0,-3.0,1.0,4.0,1.0,-1.0,1.0,1651025602208852.0
-1.0,-3.0,-4.0,0.0,3.0,-2.0,-1.0,1.0,1651025602229480.0
-1.0,-9.0,0.0,-3.0,-8.0,-3.0,-3.0,-2.0,1651025602229480.0
-4.0,-4.0,-2.0,-1.0,-18.0,-11.0,-3.0,-3.0,1651025602231448.0
-4.0,-10.0,-2.0,2.0,21.0,11.0,0.0,-1.0,1651025602231448.0
5.0,8.0,5.0,4.0,0.0,2.0,1.0,2.0,1651025602243546.0
-9.0,-12.0,-3.0,2.0,4.0,0.0,1.0,-3.0,1651025602243546.0
0.0,11.0,0.0,-1.0,-3.0,-2.0,1.0,1.0,1651025602252514.0
2.0,-14.0,-3.0,-6.0,-11.0,-8.0,-3.0,0.0,1651025602252514.0
0.0,5.0,3.0,0.0,-2.0,-1.0,-1.0,-2.0,1651025602267082.0
0.0,-4.0,3.0,1.0,-6.0,2.0,-1.0,-2.0,1651025602267082.0
1.0,-10.0,1.0,3.0,15.0,3.0,0.0,-1.0,1651025602269009.0
-2.0,22.0,2.0,1.0,-7.0,-3.0,0.0,-2.0,1651025602269009.0
-2.0,-6.0,-5.0,-4.0,6.0,5.0,-1.0,0.0,1651025602289995.0
0.0,-5.0,-4.0,-4.0,-3.0,-7.0,-1.0,0.0,1651025602289995.0
-2.0,-6.0,4.0,4.0,4.0,4.0,1.0,1.0,1651025602290950.0
4.0,8.0,-1.0,2.0,0.0,-1.0,1.0,1.0,1651025602290950.0
-4.0,-17.0,-2.0,-1.0,-13.0,-6.0,-1.0,-2.0,1651025602302984.0
-1.0,7.0,-5.0,-6.0,-6.0,-4.0,0.0,0.0,1651025602302984.0
1.0,6.0,6.0,-9.0,6.0,5.0,-1.0,-1.0,1651025602311921.0
3.0,7.0,18.0,27.0,13.0,4.0,2.0,-1.0,1651025602311921.0
-2.0,1.0,-7.0,5.0,-2.0,-4.0,-2.0,-2.0,1651025602326725.0
-3.0,-10.0,-21.0,-5.0,-3.0,0.0,-1.0,0.0,1651025602326725.0
-2.0,-7.0,-13.0,-9.0,2.0,-3.0,-2.0,-1.0,1651025602328708.0
0.0,5.0,-11.0,-14.0,-16.0,-3.0,-1.0,0.0,1651025602328708.0
0.0,-3.0,10.0,1.0,8.0,0.0,0.0,-1.0,1651025602349845.0
2.0,15.0,20.0,2.0,3.0,4.0,0.0,2.0,1651025602349845.0
-4.0,-2.0,-11.0,-1.0,-16.0,-6.0,0.0,-1.0,1651025602350862.0
-2.0,-4.0,-3.0,-3.0,16.0,4.0,-1.0,-2.0,1651025602350862.0
0.0,2.0,-2.0,3.0,0.0,-2.0,0.0,1.0,1651025602362871.0
-2.0,-2.0,-2.0,0.0,12.0,12.0,0.0,0.0,1651025602362871.0
1.0,6.0,9.0,2.0,-11.0,-4.0,1.0,1.0,1651025602371846.0
0.0,6.0,15.0,2.0,-6.0,-3.0,-1.0,-1.0,1651025602371846.0
-3.0,-8.0,-16.0,-4.0,0.0,-2.0,1.0,1.0,1651025602386863.0
5.0,13.0,-5.0,-5.0,-16.0,-3.0,0.0,1.0,1651025602386863.0
-2.0,-17.0,-1.0,8.0,21.0,8.0,-1.0,-1.0,1651025602388861.0
1.0,5.0,10.0,-1.0,-5.0,-1.0,0.0,3.0,1651025602388861.0
0.0,1.0,3.0,-9.0,-17.0,-3.0,-2.0,0.0,1651025602409877.0
3.0,2.0,-12.0,-1.0,4.0,-2.0,1.0,-1.0,1651025602409877.0
-4.0,-10.0,-14.0,0.0,3.0,-1.0,-1.0,-3.0,1651025602410801.0
1.0,-4.0,22.0,13.0,9.0,5.0,1.0,-1.0,1651025602410801.0
-1.0,-5.0,-12.0,-3.0,-5.0,0.0,3.0,1.0,1651025602422837.0
-11.0,1.0,-7.0,11.0,0.0,-1.0,1.0,-1.0,1651025602422837.0
4.0,-1.0,-6.0,-36.0,-10.0,-7.0,-4.0,0.0,1651025602431844.0
-14.0,-6.0,-21.0,-6.0,-14.0,-6.0,-10.0,-16.0,1651025602431844.0
22.0,10.0,-1.0,-16.0,-8.0,3.0,16.0,16.0,1651025602446848.0
-10.0,-4.0,35.0,54.0,35.0,11.0,10.0,8.0,1651025602446848.0
19.0,-18.0,-50.0,-13.0,17.0,12.0,-1.0,3.0,1651025602448825.0
-1.0,24.0,14.0,13.0,-6.0,-11.0,-23.0,-3.0,1651025602448825.0
3.0,5.0,-11.0,-24.0,6.0,10.0,48.0,14.0,1651025602469959.0
-47.0,-48.0,-37.0,-37.0,-50.0,-60.0,-98.0,-59.0,1651025602469959.0
11.0,11.0,3.0,-90.0,-22.0,51.0,47.0,17.0,1651025602470946.0
26.0,-8.0,-23.0,19.0,-6.0,22.0,8.0,4.0,1651025602470946.0
27.0,7.0,41.0,108.0,71.0,49.0,-14.0,3.0,1651025602483030.0
39.0,32.0,29.0,-84.0,-38.0,-10.0,25.0,33.0,1651025602483030.0
-88.0,-13.0,-6.0,-33.0,-42.0,-25.0,86.0,-19.0,1651025602492007.0
-65.0,-33.0,-18.0,23.0,7.0,-23.0,-102.0,-35.0,1651025602492007.0
71.0,40.0,55.0,-44.0,-50.0,-41.0,92.0,29.0,1651025602507482.0
-37.0,-7.0,-5.0,127.0,73.0,29.0,-48.0,-26.0,1651025602507482.0
50.0,32.0,33.0,16.0,0.0,-64.0,-52.0,-9.0,1651025602508897.0
-7.0,4.0,-23.0,-81.0,-39.0,31.0,33.0,13.0,1651025602508897.0
-44.0,-38.0,10.0,112.0,59.0,-17.0,-9.0,-7.0,1651025602529880.0
46.0,42.0,-19.0,-128.0,-21.0,50.0,83.0,25.0,1651025602529880.0
-20.0,-6.0,58.0,127.0,55.0,15.0,-59.0,8.0,1651025602530811.0
17.0,-8.0,9.0,-7.0,12.0,-94.0,-28.0,-17.0,1651025602530811.0
-8.0,2.0,-44.0,-106.0,-32.0,84.0,4.0,-28.0,1651025602543776.0
2.0,-25.0,29.0,30.0,-2.0,28.0,127.0,62.0,1651025602543776.0
18.0,27.0,-25.0,-44.0,-12.0,8.0,-53.0,5.0,1651025602551848.0
13.0,-8.0,-13.0,23.0,-5.0,-13.0,-68.0,-5.0,1651025602551848.0
-35.0,-7.0,-13.0,-85.0,-31.0,-57.0,-58.0,-26.0,1651025602567154.0
-4.0,34.0,18.0,47.0,22.0,-12.0,-11.0,-22.0,1651025602567154.0
42.0,-17.0,4.0,43.0,7.0,20.0,77.0,34.0,1651025602569082.0
-13.0,-5.0,-2.0,-29.0,-4.0,1.0,28.0,14.0,1651025602569082.0
11.0,-3.0,-22.0,4.0,3.0,13.0,6.0,5.0,1651025602590037.0
-12.0,-10.0,-5.0,-12.0,0.0,9.0,-25.0,-7.0,1651025602590037.0
-18.0,-26.0,-18.0,-33.0,-19.0,-24.0,-7.0,-12.0,1651025602591023.0
20.0,34.0,10.0,12.0,11.0,34.0,47.0,0.0,1651025602591023.0
-5.0,-3.0,14.0,22.0,16.0,-19.0,-53.0,-9.0,1651025602604078.0
-4.0,-37.0,-26.0,-36.0,-26.0,-25.0,-42.0,-11.0,1651025602604078.0
41.0,24.0,9.0,42.0,28.0,18.0,79.0,34.0,1651025602612062.0
25.0,-1.0,-5.0,-39.0,-18.0,19.0,-33.0,3.0,1651025602612062.0
-10.0,11.0,12.0,20.0,-10.0,2.0,69.0,15.0,1651025602626144.0
16.0,23.0,11.0,33.0,21.0,-20.0,-101.0,-11.0,1651025602626144.0
-28.0,-42.0,-31.0,-32.0,-2.0,-12.0,-66.0,-56.0,1651025602633126.0
-6.0,6.0,33.0,41.0,-1.0,-30.0,58.0,16.0,1651025602633126.0
-4.0,12.0,-6.0,-25.0,-20.0,-8.0,13.0,12.0,1651025602649965.0
2.0,-4.0,-14.0,-27.0,-10.0,49.0,57.0,5.0,1651025602649965.0
2.0,38.0,4.0,-15.0,15.0,42.0,99.0,61.0,1651025602650934.0
4.0,-15.0,-5.0,16.0,8.0,-20.0,-95.0,-60.0,1651025602650934.0
-47.0,-15.0,-10.0,-18.0,-8.0,-2.0,24.0,1.0,1651025602662961.0
48.0,-14.0,0.0,36.0,-7.0,-66.0,-77.0,-5.0,1651025602662961.0
-46.0,-16.0,-9.0,-41.0,-31.0,-11.0,-8.0,-24.0,1651025602671877.0
9.0,5.0,-1.0,-10.0,8.0,-1.0,43.0,25.0,1651025602671877.0
-43.0,-32.0,-11.0,2.0,11.0,41.0,48.0,-9.0,1651025602685898.0
1.0,26.0,-10.0,-52.0,-3.0,5.0,-39.0,-21.0,1651025602685898.0
32.0,19.0,52.0,96.0,26.0,2.0,25.0,10.0,1651025602694817.0
5.0,13.0,-2.0,2.0,14.0,14.0,-1.0,13.0,1651025602694817.0
22.0,-7.0,-17.0,-27.0,-24.0,-17.0,-30.0,-3.0,1651025602709834.0
-35.0,-11.0,5.0,-8.0,-4.0,2.0,50.0,3.0,1651025602709834.0
0.0,8.0,-6.0,-13.0,-8.0,-16.0,-55.0,-24.0,1651025602710773.0
-21.0,-26.0,-11.0,-2.0,4.0,17.0,53.0,20.0,1651025602710773.0
49.0,23.0,-2.0,-8.0,0.0,37.0,81.0,49.0,1651025602731718.0
-42.0,-51.0,-17.0,-42.0,-15.0,-43.0,-87.0,-65.0,1651025602731718.0
-5.0,2.0,5.0,34.0,19.0,-28.0,-1.0,-14.0,1651025602733713.0
19.0,24.0,2.0,-30.0,-12.0,-12.0,89.0,36.0,1651025602733713.0
-24.0,-26.0,-15.0,0.0,0.0,49.0,-108.0,-58.0,1651025602746677.0
8.0,18.0,23.0,41.0,0.0,26.0,69.0,27.0,1651025602746677.0
14.0,9.0,-30.0,-86.0,-8.0,1.0,-57.0,-6.0,1651025602748672.0
-34.0,-19.0,40.0,92.0,34.0,-14.0,2.0,-1.0,1651025602748672.0
5.0,6.0,7.0,3.0,8.0,-24.0,-13.0,13.0,1651025602769641.0
20.0,3.0,-1.0,3.0,-2.0,17.0,14.0,5.0,1651025602769641.0
-36.0,8.0,14.0,-24.0,-7.0,11.0,1.0,-6.0,1651025602770632.0
43.0,26.0,-3.0,23.0,6.0,2.0,-3.0,10.0,1651025602770632.0
11.0,-6.0,11.0,27.0,7.0,-33.0,-54.0,-23.0,1651025602791559.0
0.0,-3.0,-11.0,-11.0,-5.0,1.0,19.0,9.0,1651025602791559.0
-68.0,-20.0,-7.0,17.0,-1.0,-26.0,-26.0,-28.0,1651025602793553.0
-5.0,-10.0,-13.0,-35.0,-19.0,28.0,41.0,2.0,1651025602793553.0
5.0,-5.0,-3.0,-11.0,-12.0,-34.0,-33.0,-2.0,1651025602806545.0
10.0,18.0,0.0,16.0,6.0,-1.0,96.0,28.0,1651025602806545.0
18.0,-12.0,3.0,20.0,-1.0,-16.0,-80.0,-14.0,1651025602808512.0
10.0,23.0,5.0,-7.0,0.0,30.0,15.0,-7.0,1651025602808512.0
-43.0,-2.0,-12.0,-21.0,-7.0,-10.0,43.0,-5.0,1651025602829956.0
42.0,5.0,-1.0,-14.0,7.0,6.0,51.0,26.0,1651025602829956.0
-16.0,-29.0,-23.0,-36.0,-27.0,-27.0,-27.0,-11.0,1651025602830897.0
-77.0,-24.0,-33.0,-58.0,-24.0,11.0,-29.0,-42.0,1651025602830897.0
78.0,23.0,26.0,34.0,27.0,-13.0,-40.0,18.0,1651025602851953.0
-25.0,-30.0,-17.0,-55.0,-33.0,-43.0,-13.0,-7.0,1651025602851953.0
7.0,0.0,21.0,57.0,30.0,78.0,88.0,31.0,1651025602853880.0
-10.0,-5.0,-21.0,-24.0,-11.0,-22.0,-49.0,-24.0,1651025602853880.0
-59.0,18.0,-8.0,-20.0,-20.0,-32.0,-32.0,-26.0,1651025602866846.0
-1.0,7.0,8.0,27.0,14.0,35.0,43.0,21.0,1651025602866846.0
21.0,-24.0,11.0,13.0,-13.0,-21.0,-49.0,-27.0,1651025602880877.0
-7.0,-7.0,-8.0,-24.0,6.0,0.0,32.0,17.0,1651025602880877.0
-8.0,19.0,9.0,6.0,5.0,19.0,1.0,1.0,1651025602889851.0
9.0,10.0,16.0,55.0,25.0,-11.0,-61.0,-14.0,1651025602889851.0
-17.0,8.0,-38.0,-95.0,-27.0,6.0,38.0,10.0,1651025602890801.0
39.0,-23.0,23.0,82.0,29.0,15.0,-18.0,13.0,1651025602890801.0
-19.0,-12.0,1.0,5.0,-4.0,1.0,43.0,-3.0,1651025602911825.0
-6.0,16.0,-22.0,-70.0,-21.0,0.0,-25.0,2.0,1651025602911825.0
35.0,12.0,30.0,64.0,38.0,2.0,34.0,6.0,1651025602913819.0
-9.0,-7.0,-13.0,-35.0,-1.0,6.0,-38.0,-14.0,1651025602913819.0
47.0,3.0,-6.0,-7.0,-7.0,-3.0,1.0,14.0,1651025602926910.0
-43.0,-57.0,-10.0,-33.0,-13.0,4.0,42.0,3.0,1651025602926910.0
-38.0,2.0,-10.0,4.0,-8.0,-18.0,-49.0,-36.0,1651025602933503.0
-19.0,5.0,1.0,-1.0,-7.0,-15.0,-5.0,-14.0,1651025602933503.0
-38.0,-4.0,-2.0,-24.0,-12.0,-16.0,-22.0,-3.0,1651025602949719.0
59.0,12.0,9.0,44.0,26.0,43.0,44.0,24.0,1651025602949719.0
-5.0,-8.0,-3.0,-7.0,-9.0,-20.0,-44.0,0.0,1651025602950680.0
41.0,7.0,12.0,15.0,-4.0,8.0,46.0,27.0,1651025602950680.0
-24.0,28.0,-14.0,-36.0,-16.0,-18.0,-51.0,-37.0,1651025602971596.0
5.0,-43.0,-4.0,0.0,1.0,-21.0,-44.0,-7.0,1651025602971596.0
14.0,37.0,14.0,6.0,10.0,32.0,87.0,23.0,1651025602973588.0
-21.0,-30.0,-16.0,-27.0,-8.0,-28.0,-94.0,-33.0,1651025602973588.0
27.0,-15.0,-15.0,-29.0,-11.0,7.0,33.0,12.0,1651025602986561.0
-54.0,56.0,47.0,93.0,26.0,17.0,73.0,11.0,1651025602986561.0
69.0,-41.0,-25.0,-36.0,-3.0,-13.0,-102.0,-15.0,1651025602993543.0
-25.0,10.0,-2.0,-48.0,-15.0,5.0,67.0,-4.0,1651025602993543.0
11.0,-3.0,27.0,87.0,44.0,28.0,-16.0,20.0,1651025603009551.0
-17.0,19.0,-22.0,-53.0,-31.0,-49.0,-87.0,-45.0,1651025603009551.0
-15.0,-19.0,-1.0,11.0,-10.0,7.0,29.0,6.0,1651025603011487.0
33.0,15.0,11.0,-8.0,14.0,23.0,51.0,27.0,1651025603011487.0
-38.0,-30.0,-21.0,-42.0,-17.0,-33.0,-85.0,-33.0,1651025603039993.0
10.0,25.0,7.0,-19.0,-2.0,2.0,21.0,13.0,1651025603039993.0
17.0,36.0,28.0,46.0,21.0,12.0,-6.0,4.0,1651025603040928.0
-15.0,-35.0,-17.0,-21.0,-11.0,-2.0,-13.0,-2.0,1651025603040928.0
-7.0,3.0,0.0,11.0,5.0,4.0,38.0,13.0,1651025603045914.0
63.0,19.0,15.0,31.0,5.0,12.0,41.0,11.0,1651025603045914.0
-7.0,-34.0,-21.0,-39.0,-14.0,-5.0,-45.0,-6.0,1651025603052923.0
1.0,-13.0,1.0,25.0,10.0,-10.0,22.0,3.0,1651025603052923.0
2.0,2.0,-12.0,-36.0,15.0,14.0,20.0,-3.0,1651025603069238.0
-11.0,10.0,2.0,-5.0,-20.0,-6.0,4.0,-12.0,1651025603069238.0
-19.0,0.0,1.0,-5.0,-9.0,17.0,121.0,27.0,1651025603071171.0
36.0,28.0,21.0,46.0,16.0,-11.0,-96.0,3.0,1651025603071171.0
18.0,24.0,6.0,18.0,-6.0,-28.0,-59.0,-23.0,1651025603092281.0
-20.0,-76.0,-20.0,-4.0,9.0,5.0,-8.0,-17.0,1651025603092281.0
1.0,14.0,-9.0,-41.0,-24.0,-25.0,22.0,3.0,1651025603093309.0
-12.0,6.0,-7.0,-21.0,-6.0,12.0,16.0,7.0,1651025603093309.0
18.0,-14.0,23.0,71.0,12.0,10.0,42.0,16.0,1651025603106354.0
-16.0,44.0,-8.0,-24.0,3.0,0.0,-37.0,-10.0,1651025603106354.0
13.0,-38.0,-7.0,2.0,4.0,5.0,-1.0,8.0,1651025603113408.0
18.0,22.0,15.0,8.0,-9.0,-5.0,13.0,1.0,1651025603113408.0
-4.0,-9.0,-8.0,-2.0,3.0,10.0,30.0,0.0,1651025603129467.0
-16.0,-8.0,6.0,36.0,17.0,12.0,-49.0,3.0,1651025603129467.0
19.0,30.0,-13.0,-57.0,-30.0,-15.0,-10.0,-10.0,1651025603131421.0
-10.0,11.0,7.0,38.0,12.0,1.0,13.0,4.0,1651025603131421.0
-22.0,-1.0,17.0,16.0,11.0,20.0,72.0,20.0,1651025603152020.0
65.0,-12.0,-10.0,-26.0,-1.0,-18.0,-51.0,6.0,1651025603152020.0
-31.0,14.0,3.0,14.0,6.0,-17.0,-61.0,-30.0,1651025603153979.0
25.0,18.0,11.0,19.0,0.0,-6.0,8.0,15.0,1651025603153979.0
-22.0,-1.0,-12.0,-48.0,-32.0,40.0,52.0,12.0,1651025603166923.0
-37.0,0.0,-12.0,-21.0,4.0,-15.0,22.0,-18.0,1651025603166923.0
8.0,-4.0,38.0,95.0,62.0,39.0,95.0,37.0,1651025603174491.0
-4.0,-8.0,-11.0,-26.0,-13.0,-10.0,-85.0,-38.0,1651025603174491.0
10.0,5.0,-3.0,8.0,3.0,-11.0,-46.0,2.0,1651025603197148.0
6.0,-13.0,-13.0,-63.0,-27.0,-4.0,-3.0,-1.0,1651025603197148.0
-29.0,16.0,15.0,57.0,10.0,0.0,-8.0,-11.0,1651025603198078.0
-21.0,-38.0,-22.0,-48.0,-13.0,10.0,55.0,-2.0,1651025603198078.0
20.0,0.0,6.0,19.0,7.0,-1.0,-15.0,2.0,1651025603212048.0
7.0,5.0,14.0,37.0,8.0,4.0,-1.0,4.0,1651025603212048.0
-36.0,-2.0,-6.0,-35.0,-7.0,1.0,-14.0,-8.0,1651025603214063.0
12.0,17.0,0.0,-14.0,-2.0,0.0,10.0,4.0,1651025603214063.0
-2.0,-40.0,-12.0,22.0,-1.0,-19.0,-13.0,-15.0,1651025603226003.0
-38.0,1.0,-2.0,5.0,5.0,-6.0,-18.0,-11.0,1651025603226003.0
17.0,9.0,-6.0,-11.0,-4.0,16.0,50.0,20.0,1651025603234980.0
-12.0,-21.0,-18.0,-19.0,-19.0,-5.0,-23.0,-4.0,1651025603234980.0
12.0,0.0,-7.0,-51.0,-22.0,-28.0,9.0,-4.0,1651025603249888.0
-43.0,9.0,27.0,79.0,36.0,25.0,4.0,4.0,1651025603249888.0
54.0,-2.0,2.0,5.0,1.0,1.0,-29.0,9.0,1651025603250823.0
3.0,12.0,-1.0,-1.0,-3.0,-14.0,-27.0,-6.0,1651025603250823.0
5.0,9.0,-14.0,-44.0,-8.0,6.0,5.0,-1.0,1651025603271957.0
-9.0,-6.0,12.0,24.0,1.0,5.0,34.0,20.0,1651025603271957.0
5.0,21.0,-1.0,9.0,9.0,-1.0,18.0,7.0,1651025603273911.0
23.0,-14.0,8.0,5.0,5.0,15.0,70.0,16.0,1651025603273911.0
-8.0,34.0,8.0,19.0,13.0,-8.0,-66.0,-3.0,1651025603286031.0
-20.0,-45.0,-13.0,-47.0,-24.0,-3.0,38.0,-15.0,1651025603286031.0
5.0,-9.0,-11.0,-2.0,11.0,0.0,-74.0,-26.0,1651025603294947.0
36.0,18.0,10.0,19.0,5.0,-1.0,81.0,46.0,1651025603294947.0
-68.0,-1.0,-17.0,-47.0,-26.0,-4.0,-28.0,-69.0,1651025603309975.0
37.0,23.0,16.0,54.0,24.0,21.0,79.0,65.0,1651025603309975.0
-44.0,-17.0,-1.0,-23.0,-17.0,-30.0,-116.0,-64.0,1651025603310905.0
47.0,23.0,-8.0,-27.0,-30.0,-24.0,34.0,19.0,1651025603310905.0
50.0,-15.0,15.0,51.0,25.0,12.0,-22.0,18.0,1651025603331951.0
60.0,11.0,-17.0,-65.0,-5.0,-4.0,45.0,27.0,1651025603331951.0
-46.0,-11.0,-16.0,-19.0,-7.0,13.0,54.0,14.0,1651025603333906.0
-75.0,25.0,36.0,74.0,36.0,21.0,32.0,-13.0,1651025603333906.0
35.0,-17.0,-10.0,-19.0,-20.0,-9.0,-19.0,10.0,1651025603345847.0
-19.0,-23.0,4.0,17.0,11.0,9.0,-35.0,-33.0,1651025603345847.0
4.0,2.0,-22.0,-34.0,-15.0,-15.0,8.0,15.0,1651025603354823.0
21.0,6.0,-1.0,4.0,2.0,5.0,-47.0,-12.0,1651025603354823.0
23.0,8.0,0.0,-16.0,-6.0,-2.0,36.0,13.0,1651025603369425.0
-21.0,-16.0,4.0,31.0,1.0,-8.0,-47.0,-20.0,1651025603369425.0
6.0,38.0,-9.0,-32.0,-20.0,-9.0,26.0,6.0,1651025603371374.0
-32.0,-99.0,-17.0,19.0,13.0,5.0,23.0,-5.0,1651025603371374.0
-31.0,10.0,8.0,31.0,23.0,4.0,-51.0,-22.0,1651025603392483.0
-14.0,-17.0,-16.0,-39.0,-21.0,-11.0,-34.0,-17.0,1651025603392483.0
42.0,34.0,17.0,14.0,3.0,38.0,126.0,73.0,1651025603393484.0
-25.0,-46.0,-31.0,-68.0,-40.0,-42.0,-128.0,-60.0,1651025603393484.0
11.0,3.0,37.0,83.0,40.0,4.0,58.0,20.0,1651025603405638.0
4.0,16.0,-16.0,-33.0,-16.0,-16.0,13.0,-18.0,1651025603405638.0
22.0,27.0,20.0,40.0,8.0,7.0,11.0,6.0,1651025603414440.0
-29.0,26.0,-16.0,-67.0,-14.0,23.0,44.0,24.0,1651025603414440.0
-9.0,-59.0,-24.0,-7.0,-23.0,-5.0,20.0,2.0,1651025603429393.0
4.0,35.0,8.0,-12.0,-1.0,-6.0,-60.0,-6.0,1651025603429393.0
39.0,-20.0,11.0,-1.0,5.0,-12.0,3.0,1.0,1651025603431391.0
-40.0,-7.0,4.0,24.0,17.0,3.0,-42.0,-27.0,1651025603431391.0
-44.0,9.0,-30.0,-87.0,-29.0,-2.0,30.0,10.0,1651025603451964.0
12.0,8.0,22.0,71.0,17.0,15.0,4.0,7.0,1651025603451964.0
-10.0,-13.0,2.0,15.0,3.0,-16.0,-43.0,-30.0,1651025603453924.0
26.0,19.0,10.0,8.0,3.0,2.0,-21.0,14.0,1651025603453924.0
-33.0,-21.0,-1.0,8.0,3.0,1.0,24.0,-7.0,1651025603465962.0
10.0,-10.0,-16.0,-50.0,-20.0,-10.0,-49.0,-5.0,1651025603465962.0
-61.0,-5.0,-5.0,-22.0,-17.0,-16.0,-46.0,-22.0,1651025603474972.0
43.0,42.0,10.0,20.0,17.0,22.0,118.0,48.0,1651025603474972.0
-59.0,-23.0,5.0,4.0,22.0,16.0,-74.0,-32.0,1651025603489896.0
82.0,10.0,3.0,5.0,-12.0,-26.0,-21.0,-11.0,1651025603489896.0
-60.0,-53.0,-24.0,-26.0,-13.0,-3.0,-1.0,-20.0,1651025603490852.0
59.0,17.0,-5.0,-42.0,6.0,-1.0,-21.0,-3.0,1651025603490852.0
-19.0,14.0,21.0,81.0,20.0,17.0,127.0,49.0,1651025603511981.0
-51.0,24.0,13.0,22.0,8.0,6.0,-70.0,-40.0,1651025603511981.0
32.0,-23.0,-25.0,-45.0,-18.0,-13.0,-8.0,13.0,1651025603513920.0
-81.0,7.0,25.0,60.0,17.0,14.0,46.0,-10.0,1651025603513920.0
97.0,13.0,-3.0,-22.0,-9.0,-16.0,-61.0,17.0,1651025603525956.0
-15.0,-2.0,-5.0,6.0,10.0,25.0,127.0,52.0,1651025603525956.0
-56.0,-4.0,-2.0,-8.0,-2.0,-23.0,-110.0,-85.0,1651025603534441.0
34.0,8.0,-8.0,-25.0,-17.0,-28.0,5.0,-14.0,1651025603534441.0
-13.0,2.0,7.0,7.0,0.0,-6.0,-1.0,19.0,1651025603549957.0
29.0,-21.0,-21.0,-25.0,-9.0,1.0,89.0,15.0,1651025603549957.0
-48.0,34.0,13.0,15.0,-5.0,39.0,63.0,38.0,1651025603550888.0
-21.0,-44.0,-15.0,-1.0,25.0,3.0,-27.0,5.0,1651025603550888.0
13.0,22.0,18.0,1.0,-1.0,-13.0,-70.0,-14.0,1651025603571903.0
74.0,20.0,-12.0,-44.0,-37.0,-10.0,-47.0,0.0,1651025603571903.0
30.0,-4.0,30.0,23.0,25.0,20.0,30.0,38.0,1651025603573851.0
-22.0,15.0,11.0,67.0,43.0,-1.0,-44.0,-14.0,1651025603573851.0
27.0,23.0,15.0,15.0,-1.0,5.0,40.0,9.0,1651025603595043.0
-64.0,-9.0,-4.0,-65.0,-25.0,-9.0,-12.0,-14.0,1651025603595043.0
32.0,-2.0,-6.0,18.0,-14.0,-16.0,-7.0,-6.0,1651025603596030.0
1.0,-2.0,-13.0,-13.0,-8.0,11.0,2.0,17.0,1651025603596030.0
-7.0,-13.0,-14.0,-10.0,5.0,-2.0,10.0,-17.0,1651025603609902.0
-19.0,10.0,3.0,19.0,5.0,0.0,-8.0,-12.0,1651025603609902.0
16.0,1.0,1.0,5.0,2.0,-18.0,10.0,7.0,1651025603610851.0
-1.0,-9.0,-5.0,-22.0,-7.0,21.0,-1.0,0.0,1651025603610851.0
-16.0,-2.0,-10.0,-14.0,-13.0,-99.0,-7.0,-15.0,1651025603632077.0
-50.0,-3.0,5.0,13.0,18.0,82.0,66.0,8.0,1651025603632077.0
4.0,2.0,-3.0,-3.0,6.0,0.0,-48.0,7.0,1651025603634098.0
44.0,-10.0,-3.0,-13.0,-17.0,-37.0,-32.0,-31.0,1651025603634098.0
10.0,3.0,-3.0,-12.0,-3.0,8.0,56.0,12.0,1651025603654196.0
-26.0,6.0,0.0,9.0,4.0,-39.0,-4.0,-3.0,1651025603654196.0
-35.0,10.0,-5.0,-23.0,-3.0,-8.0,39.0,-17.0,1651025603656132.0
-28.0,-11.0,25.0,38.0,-12.0,21.0,79.0,16.0,1651025603656132.0
73.0,-11.0,-27.0,-68.0,4.0,3.0,-93.0,-14.0,1651025603670091.0
-61.0,-12.0,17.0,66.0,29.0,9.0,-19.0,-14.0,1651025603670091.0
26.0,22.0,12.0,18.0,7.0,7.0,-13.0,6.0,1651025603671088.0
-2.0,-3.0,-13.0,-38.0,-31.0,-24.0,-30.0,-12.0,1651025603671088.0
-30.0,17.0,1.0,3.0,-10.0,18.0,44.0,1.0,1651025603691995.0
30.0,-3.0,-10.0,-34.0,-7.0,-2.0,2.0,20.0,1651025603691995.0
34.0,-14.0,-1.0,0.0,5.0,-3.0,-2.0,8.0,1651025603693923.0
-9.0,2.0,12.0,29.0,14.0,7.0,5.0,5.0,1651025603693923.0
-6.0,-7.0,-3.0,-12.0,1.0,4.0,20.0,10.0,1651025603715012.0
-8.0,-1.0,-3.0,3.0,1.0,-8.0,-27.0,-15.0,1651025603715012.0
11.0,5.0,4.0,12.0,-24.0,-35.0,55.0,4.0,1651025603715923.0
-8.0,8.0,-2.0,-20.0,12.0,51.0,-66.0,10.0,1651025603715923.0
-12.0,-9.0,-6.0,1.0,7.0,-11.0,-43.0,-53.0,1651025603728916.0
66.0,-9.0,2.0,-2.0,-3.0,13.0,5.0,21.0,1651025603728916.0
-13.0,-10.0,2.0,25.0,16.0,-11.0,3.0,-5.0,1651025603731329.0
19.0,9.0,5.0,7.0,6.0,-7.0,51.0,23.0,1651025603731329.0
9.0,1.0,4.0,5.0,-31.0,4.0,7.0,10.0,1651025603751860.0
-9.0,-6.0,-6.0,4.0,22.0,-43.0,-31.0,-15.0,1651025603751860.0
0.0,-6.0,-8.0,-21.0,-1.0,36.0,25.0,9.0,1651025603753793.0
0.0,8.0,-5.0,-8.0,-12.0,0.0,-9.0,-9.0,1651025603753793.0
-7.0,-1.0,13.0,21.0,7.0,16.0,3.0,6.0,1651025603774921.0
-2.0,-2.0,-6.0,-10.0,-17.0,-18.0,9.0,2.0,1651025603774921.0
6.0,-8.0,-11.0,-5.0,-20.0,-3.0,-17.0,0.0,1651025603775922.0
-8.0,5.0,-9.0,-6.0,14.0,-29.0,-12.0,-11.0,1651025603775922.0
-3.0,-3.0,2.0,8.0,13.0,32.0,14.0,5.0,1651025603789951.0
-7.0,-1.0,10.0,11.0,17.0,25.0,25.0,9.0,1651025603789951.0
15.0,4.0,21.0,14.0,3.0,-1.0,-11.0,-6.0,1651025603790882.0
2.0,4.0,14.0,11.0,-11.0,-6.0,-11.0,-3.0,1651025603790882.0
-3.0,-12.0,-5.0,-10.0,-22.0,-22.0,0.0,5.0,1651025603811825.0
5.0,35.0,-4.0,-9.0,9.0,12.0,5.0,-3.0,1651025603811825.0
-2.0,-43.0,22.0,19.0,18.0,24.0,3.0,5.0,1651025603813833.0
-21.0,-81.0,-103.0,-39.0,-20.0,-4.0,13.0,-6.0,1651025603813833.0
-37.0,3.0,-2.0,-18.0,-1.0,-22.0,-12.0,-8.0,1651025603835500.0
9.0,53.0,27.0,14.0,-8.0,-1.0,-7.0,-1.0,1651025603835500.0
1.0,6.0,6.0,-16.0,-9.0,-82.0,-28.0,-7.0,1651025603836510.0
18.0,25.0,36.0,23.0,1.0,86.0,24.0,5.0,1651025603836510.0
7.0,1.0,-22.0,-10.0,9.0,38.0,21.0,5.0,1651025603849469.0
-3.0,-9.0,3.0,5.0,-14.0,-14.0,-11.0,-6.0,1651025603849469.0
2.0,17.0,14.0,11.0,22.0,11.0,14.0,1.0,1651025603855509.0
-2.0,16.0,23.0,-3.0,-33.0,-54.0,-22.0,-5.0,1651025603855509.0
11.0,8.0,4.0,17.0,54.0,38.0,7.0,-1.0,1651025603872529.0
-7.0,-26.0,-29.0,-9.0,-3.0,-5.0,-4.0,-1.0,1651025603872529.0
1.0,-15.0,16.0,5.0,-7.0,0.0,-4.0,6.0,1651025603873486.0
2.0,13.0,-64.0,-28.0,-8.0,-23.0,-3.0,-16.0,1651025603873486.0
-7.0,-17.0,12.0,11.0,-8.0,2.0,9.0,18.0,1651025603894597.0
14.0,54.0,26.0,-1.0,-3.0,-6.0,2.0,15.0,1651025603894597.0
-4.0,-22.0,-11.0,-1.0,9.0,12.0,-11.0,-14.0,1651025603896525.0
-5.0,15.0,43.0,6.0,-11.0,-6.0,-1.0,1.0,1651025603896525.0
9.0,3.0,-3.0,1.0,-3.0,-7.0,0.0,-12.0,1651025603908995.0
-9.0,-46.0,2.0,5.0,8.0,-2.0,-5.0,-1.0,1651025603908995.0
-10.0,4.0,-33.0,-7.0,-22.0,15.0,6.0,4.0,1651025603915981.0
5.0,30.0,6.0,-6.0,23.0,-5.0,3.0,5.0,1651025603915981.0
11.0,5.0,8.0,7.0,-3.0,-3.0,1.0,23.0,1651025603931991.0
3.0,-17.0,20.0,10.0,4.0,-5.0,-9.0,-11.0,1651025603931991.0
-6.0,-14.0,-8.0,-2.0,0.0,13.0,5.0,3.0,1651025603933961.0
-4.0,16.0,18.0,10.0,-1.0,-6.0,2.0,0.0,1651025603933961.0
9.0,34.0,17.0,9.0,2.0,-5.0,3.0,5.0,1651025603954973.0
-7.0,-34.0,-28.0,-17.0,-14.0,-8.0,-2.0,2.0,1651025603954973.0
6.0,15.0,26.0,1.0,13.0,11.0,3.0,-1.0,1651025603955908.0
-8.0,-13.0,-25.0,-7.0,-4.0,-5.0,0.0,2.0,1651025603955908.0
-2.0,-8.0,-1.0,1.0,4.0,-2.0,0.0,-3.0,1651025603967937.0
18.0,30.0,31.0,17.0,-2.0,4.0,2.0,1.0,1651025603967937.0
-30.0,-56.0,-28.0,-18.0,-10.0,-5.0,-8.0,-16.0,1651025603976870.0
-5.0,-10.0,-43.0,-18.0,-1.0,-9.0,-2.0,-2.0,1651025603976870.0
4.0,17.0,34.0,8.0,-18.0,-1.0,-4.0,-8.0,1651025603992526.0
7.0,-1.0,-19.0,7.0,12.0,-1.0,-3.0,4.0,1651025603992526.0
3.0,12.0,22.0,-3.0,-5.0,5.0,7.0,-3.0,1651025603993525.0
-7.0,42.0,16.0,15.0,30.0,4.0,7.0,7.0,1651025603993525.0
0.0,-40.0,-53.0,-28.0,-19.0,-2.0,0.0,11.0,1651025604014985.0
3.0,-7.0,1.0,-3.0,-3.0,-4.0,-10.0,-12.0,1651025604014985.0
14.0,34.0,-3.0,7.0,4.0,6.0,3.0,7.0,1651025604015925.0
-5.0,-29.0,29.0,7.0,-2.0,-3.0,0.0,-6.0,1651025604015925.0
2.0,11.0,31.0,20.0,4.0,-1.0,7.0,2.0,1651025604028954.0
-9.0,20.0,-16.0,-15.0,-15.0,-10.0,-3.0,-3.0,1651025604028954.0
2.0,-5.0,-15.0,-1.0,4.0,4.0,-1.0,0.0,1651025604035872.0
-7.0,-27.0,15.0,3.0,7.0,-1.0,-2.0,-5.0,1651025604035872.0
-3.0,4.0,-37.0,-13.0,-5.0,-3.0,-2.0,1.0,1651025604051830.0
5.0,4.0,17.0,8.0,-9.0,-2.0,2.0,0.0,1651025604051830.0
-4.0,12.0,0.0,6.0,23.0,7.0,-2.0,-1.0,1651025604053823.0
-2.0,8.0,-10.0,-7.0,7.0,6.0,1.0,2.0,1651025604053823.0
1.0,-20.0,-45.0,-31.0,-26.0,-13.0,-6.0,-7.0,1651025604074954.0
-5.0,10.0,-7.0,3.0,5.0,2.0,0.0,-3.0,1651025604074954.0
-1.0,2.0,-25.0,-15.0,-9.0,-6.0,-1.0,1.0,1651025604075918.0
5.0,-8.0,40.0,12.0,-13.0,0.0,0.0,3.0,1651025604075918.0
-2.0,-1.0,15.0,9.0,24.0,3.0,-4.0,-8.0,1651025604089003.0
-3.0,-13.0,-1.0,-4.0,-9.0,-1.0,2.0,1.0,1651025604089003.0
0.0,0.0,-3.0,-2.0,-6.0,-1.0,-2.0,0.0,1651025604095985.0
-1.0,-13.0,-8.0,2.0,6.0,2.0,-1.0,-2.0,1651025604095985.0
5.0,35.0,26.0,12.0,-5.0,1.0,0.0,-1.0,1651025604113901.0
-4.0,-23.0,-22.0,-4.0,2.0,-1.0,2.0,3.0,1651025604113901.0
-1.0,6.0,-5.0,0.0,3.0,2.0,1.0,2.0,1651025604114898.0
-1.0,-2.0,-4.0,-7.0,-6.0,-5.0,-3.0,-4.0,1651025604114898.0
0.0,48.0,13.0,8.0,-5.0,-2.0,-1.0,-3.0,1651025604134906.0
3.0,-4.0,52.0,17.0,12.0,4.0,2.0,1.0,1651025604134906.0
-3.0,-31.0,-51.0,-4.0,-2.0,2.0,-2.0,2.0,1651025604135841.0
-5.0,-2.0,-15.0,-21.0,-23.0,-10.0,-1.0,-4.0,1651025604135841.0
0.0,-15.0,-5.0,11.0,16.0,6.0,2.0,3.0,1651025604148870.0
1.0,15.0,8.0,-4.0,-1.0,2.0,-1.0,-3.0,1651025604148870.0
-5.0,12.0,5.0,-3.0,-1.0,-2.0,-2.0,-3.0,1651025604155888.0
7.0,-8.0,9.0,11.0,4.0,2.0,2.0,3.0,1651025604155888.0
-1.0,-13.0,-1.0,2.0,-15.0,-4.0,-1.0,-1.0,1651025604171994.0
-14.0,-2.0,-29.0,-14.0,21.0,6.0,-3.0,-4.0,1651025604171994.0
14.0,13.0,20.0,8.0,-3.0,0.0,2.0,4.0,1651025604173923.0
1.0,5.0,9.0,6.0,3.0,3.0,2.0,2.0,1651025604173923.0
6.0,6.0,5.0,-2.0,-3.0,-2.0,-1.0,-4.0,1651025604194591.0
7.0,-23.0,-12.0,-1.0,-9.0,-2.0,1.0,4.0,1651025604194591.0
0.0,31.0,24.0,11.0,4.0,-2.0,0.0,-1.0,1651025604196519.0
10.0,8.0,2.0,-4.0,1.0,1.0,0.0,2.0,1651025604196519.0
-8.0,-11.0,-16.0,-11.0,-5.0,-8.0,-6.0,-7.0,1651025604207952.0
-3.0,-12.0,1.0,4.0,-2.0,1.0,0.0,3.0,1651025604207952.0
3.0,0.0,3.0,-2.0,1.0,2.0,1.0,2.0,1651025604216931.0
0.0,-5.0,11.0,11.0,4.0,2.0,1.0,1.0,1651025604216931.0
-1.0,-9.0,15.0,9.0,4.0,2.0,-1.0,1.0,1651025604232163.0
-4.0,-9.0,-26.0,-15.0,-6.0,-4.0,-3.0,-4.0,1651025604232163.0
11.0,31.0,8.0,-3.0,-1.0,0.0,1.0,2.0,1651025604233153.0
-10.0,-19.0,-13.0,1.0,0.0,-1.0,-3.0,-5.0,1651025604233153.0
3.0,0.0,23.0,8.0,3.0,1.0,1.0,1.0,1651025604255086.0
-9.0,-43.0,-3.0,-4.0,-7.0,-5.0,-6.0,-6.0,1651025604255086.0
4.0,3.0,-13.0,-7.0,0.0,2.0,1.0,1.0,1651025604256083.0
4.0,12.0,-4.0,2.0,4.0,1.0,1.0,2.0,1651025604256083.0
2.0,10.0,-6.0,-2.0,5.0,2.0,0.0,1.0,1651025604268103.0
3.0,6.0,-5.0,1.0,-3.0,0.0,2.0,2.0,1651025604268103.0
-10.0,1.0,-4.0,-8.0,-4.0,-4.0,-4.0,-6.0,1651025604276902.0
4.0,-10.0,-5.0,-4.0,-1.0,-2.0,-2.0,2.0,1651025604276902.0
-8.0,-15.0,6.0,3.0,5.0,5.0,1.0,0.0,1651025604292026.0
1.0,1.0,-1.0,3.0,1.0,1.0,1.0,2.0,1651025604292026.0
8.0,30.0,5.0,1.0,-1.0,-3.0,-2.0,1.0,1651025604294036.0
-10.0,-5.0,-8.0,-3.0,0.0,-3.0,-5.0,-6.0,1651025604294036.0
0.0,0.0,10.0,-2.0,-2.0,-1.0,1.0,1.0,1651025604315123.0
-4.0,-11.0,-5.0,-5.0,-6.0,-4.0,-2.0,-4.0,1651025604315123.0
-4.0,-20.0,-7.0,-3.0,3.0,3.0,2.0,0.0,1651025604316120.0
10.0,53.0,10.0,0.0,0.0,1.0,-2.0,-2.0,1651025604316120.0
-1.0,-24.0,-21.0,-5.0,1.0,-2.0,-2.0,-1.0,1651025604328152.0
-7.0,2.0,-10.0,-8.0,-4.0,-1.0,0.0,1.0,1651025604328152.0
5.0,-5.0,9.0,2.0,9.0,-4.0,-1.0,0.0,1651025604337068.0
-6.0,-18.0,-9.0,-3.0,-6.0,0.0,0.0,0.0,1651025604337068.0
14.0,35.0,16.0,5.0,3.0,1.0,3.0,4.0,1651025604352140.0
-5.0,-15.0,-4.0,1.0,-13.0,-5.0,-1.0,-1.0,1651025604352140.0
-10.0,-24.0,-7.0,-4.0,5.0,2.0,-2.0,-1.0,1651025604354099.0
3.0,-16.0,3.0,4.0,2.0,1.0,2.0,0.0,1651025604354099.0
1.0,37.0,2.0,-7.0,3.0,0.0,-3.0,-2.0,1651025604375038.0
-3.0,-6.0,-4.0,4.0,4.0,4.0,0.0,-2.0,1651025604375038.0
-2.0,-16.0,5.0,2.0,2.0,-2.0,0.0,-1.0,1651025604376013.0
5.0,5.0,6.0,3.0,-7.0,-4.0,1.0,2.0,1651025604376013.0
-18.0,-60.0,-16.0,-2.0,5.0,4.0,-1.0,-4.0,1651025604388048.0
9.0,24.0,-12.0,-1.0,-3.0,-3.0,2.0,2.0,1651025604388048.0
-7.0,-16.0,-5.0,-10.0,-7.0,2.0,-3.0,-4.0,1651025604396920.0
0.0,21.0,29.0,7.0,4.0,-1.0,-3.0,0.0,1651025604396920.0
3.0,-13.0,-21.0,-9.0,-5.0,-1.0,1.0,2.0,1651025604411887.0
-3.0,10.0,21.0,4.0,6.0,0.0,-2.0,-2.0,1651025604411887.0
5.0,32.0,2.0,2.0,-7.0,-2.0,2.0,2.0,1651025604413854.0
1.0,-11.0,-15.0,-3.0,-5.0,0.0,0.0,1.0,1651025604413854.0
-20.0,-25.0,-9.0,-7.0,-1.0,-3.0,-3.0,-6.0,1651025604434956.0
0.0,3.0,2.0,2.0,7.0,2.0,0.0,-1.0,1651025604434956.0
3.0,11.0,12.0,2.0,-5.0,-2.0,0.0,0.0,1651025604435885.0
-3.0,5.0,-12.0,-3.0,-2.0,-1.0,-1.0,0.0,1651025604435885.0
1.0,16.0,-12.0,-10.0,-11.0,-2.0,-2.0,-1.0,1651025604447855.0
6.0,47.0,9.0,-1.0,7.0,0.0,0.0,1.0,1651025604447855.0
-5.0,-20.0,1.0,5.0,5.0,1.0,1.0,-1.0,1651025604456836.0
-3.0,-8.0,2.0,1.0,1.0,3.0,1.0,1.0,1651025604456836.0
11.0,-3.0,7.0,7.0,-3.0,-2.0,2.0,3.0,1651025604471986.0
-1.0,2.0,-1.0,1.0,-3.0,0.0,0.0,0.0,1651025604471986.0
3.0,-6.0,2.0,-2.0,-4.0,0.0,1.0,-2.0,1651025604473913.0
-3.0,-1.0,-3.0,-2.0,3.0,-3.0,-2.0,-2.0,1651025604473913.0
0.0,-6.0,-1.0,0.0,-1.0,0.0,1.0,0.0,1651025604494858.0
5.0,11.0,22.0,4.0,1.0,0.0,-1.0,1.0,1651025604494858.0
-3.0,-17.0,-37.0,-2.0,4.0,2.0,0.0,1.0,1651025604495855.0
-5.0,-14.0,-5.0,-4.0,4.0,3.0,-2.0,-2.0,1651025604495855.0
1.0,-20.0,17.0,4.0,-2.0,-3.0,-1.0,-1.0,1651025604507823.0
5.0,19.0,1.0,-4.0,0.0,-1.0,-1.0,-1.0,1651025604507823.0
2.0,7.0,7.0,2.0,-14.0,-9.0,-1.0,0.0,1651025604516819.0
2.0,-7.0,-3.0,-3.0,10.0,5.0,1.0,0.0,1651025604516819.0
-3.0,-24.0,-2.0,2.0,5.0,2.0,2.0,-1.0,1651025604531994.0
-8.0,-45.0,-23.0,-6.0,-7.0,-6.0,-2.0,-2.0,1651025604531994.0
4.0,18.0,16.0,6.0,2.0,2.0,1.0,3.0,1651025604533922.0
2.0,0.0,-4.0,-4.0,-3.0,-3.0,-1.0,-2.0,1651025604533922.0
1.0,11.0,5.0,0.0,0.0,1.0,0.0,-1.0,1651025604554073.0
0.0,-3.0,-8.0,-3.0,-2.0,-1.0,-1.0,-2.0,1651025604554073.0
-8.0,-16.0,-2.0,-3.0,-6.0,-1.0,-3.0,-1.0,1651025604556068.0
-3.0,-6.0,-6.0,-2.0,5.0,1.0,0.0,-2.0,1651025604556068.0
1.0,-1.0,1.0,5.0,4.0,1.0,2.0,2.0,1651025604568100.0
4.0,18.0,7.0,1.0,-3.0,0.0,-1.0,0.0,1651025604568100.0
-3.0,-5.0,-5.0,-9.0,-19.0,-2.0,-3.0,-4.0,1651025604577109.0
-3.0,30.0,5.0,-2.0,6.0,-4.0,-3.0,-3.0,1651025604577109.0
1.0,13.0,22.0,4.0,7.0,1.0,-1.0,1.0,1651025604591978.0
-1.0,-33.0,-25.0,4.0,2.0,4.0,3.0,3.0,1651025604591978.0
-4.0,0.0,-1.0,-3.0,4.0,-2.0,-3.0,-4.0,1651025604593902.0
-2.0,1.0,2.0,-2.0,-15.0,-5.0,-1.0,-2.0,1651025604593902.0
-4.0,5.0,-12.0,-6.0,-8.0,-4.0,-6.0,-3.0,1651025604615001.0
1.0,2.0,2.0,-1.0,4.0,-2.0,-1.0,-1.0,1651025604615001.0
4.0,0.0,6.0,4.0,2.0,2.0,1.0,2.0,1651025604615998.0
1.0,9.0,-5.0,-4.0,-6.0,-3.0,-2.0,0.0,1651025604615998.0
7.0,48.0,11.0,2.0,3.0,1.0,-2.0,-1.0,1651025604637021.0
-2.0,-9.0,5.0,1.0,1.0,1.0,0.0,2.0,1651025604637021.0
-1.0,-18.0,-14.0,-4.0,1.0,0.0,-1.0,0.0,1651025604639018.0
3.0,25.0,14.0,1.0,-1.0,-2.0,-1.0,0.0,1651025604639018.0
-3.0,-13.0,-16.0,-2.0,-2.0,-1.0,-1.0,-1.0,1651025604652052.0
-1.0,-7.0,0.0,-3.0,-4.0,-1.0,-2.0,-1.0,1651025604652052.0
11.0,23.0,18.0,5.0,4.0,0.0,1.0,3.0,1651025604653977.0
-5.0,-12.0,-5.0,2.0,-1.0,-1.0,-2.0,-3.0,1651025604653977.0
-3.0,-2.0,-12.0,-3.0,-7.0,-1.0,2.0,1.0,1651025604674877.0
-5.0,-2.0,7.0,-1.0,7.0,2.0,-1.0,-3.0,1651025604674877.0
3.0,5.0,3.0,4.0,14.0,8.0,3.0,2.0,1651025604675808.0
6.0,-8.0,2.0,2.0,-10.0,-1.0,4.0,3.0,1651025604675808.0
-7.0,-4.0,-19.0,-9.0,-9.0,-3.0,-4.0,-5.0,1651025604705041.0
-4.0,-12.0,7.0,0.0,12.0,-2.0,0.0,-1.0,1651025604705041.0
-9.0,-20.0,-12.0,-4.0,-9.0,-3.0,-5.0,-5.0,1651025604706072.0
-3.0,-8.0,9.0,8.0,6.0,3.0,1.0,0.0,1651025604706072.0
2.0,3.0,-13.0,-7.0,-12.0,-5.0,-1.0,0.0,1651025604720003.0
3.0,4.0,-5.0,-2.0,-3.0,0.0,1.0,0.0,1651025604720003.0
-2.0,9.0,7.0,-2.0,-2.0,-2.0,-3.0,-1.0,1651025604721009.0
-1.0,-8.0,-4.0,-2.0,3.0,1.0,-1.0,-1.0,1651025604721009.0
4.0,-3.0,3.0,3.0,0.0,0.0,1.0,2.0,1651025604734486.0
-11.0,14.0,-3.0,-3.0,-2.0,0.0,-3.0,-3.0,1651025604734486.0
1.0,-4.0,0.0,0.0,1.0,-1.0,1.0,-2.0,1651025604736501.0
-1.0,-7.0,-10.0,-3.0,-5.0,0.0,2.0,1.0,1651025604736501.0
1.0,-5.0,7.0,0.0,-1.0,1.0,1.0,1.0,1651025604757460.0
8.0,-8.0,8.0,6.0,1.0,1.0,1.0,0.0,1651025604757460.0
-6.0,-6.0,-8.0,-3.0,3.0,-4.0,-2.0,-4.0,1651025604758415.0
2.0,2.0,6.0,3.0,0.0,1.0,1.0,2.0,1651025604758415.0
-6.0,-14.0,-14.0,-2.0,4.0,1.0,0.0,-2.0,1651025604771408.0
5.0,3.0,-1.0,0.0,-8.0,0.0,2.0,3.0,1651025604771408.0
-2.0,4.0,2.0,1.0,-3.0,-3.0,-3.0,-2.0,1651025604778430.0
2.0,7.0,-11.0,-2.0,4.0,0.0,1.0,2.0,1651025604778430.0
5.0,8.0,10.0,-2.0,0.0,1.0,0.0,2.0,1651025604794602.0
-6.0,38.0,-6.0,-4.0,-7.0,-4.0,-5.0,-6.0,1651025604794602.0
5.0,34.0,21.0,4.0,3.0,1.0,2.0,1.0,1651025604796550.0
4.0,7.0,6.0,2.0,3.0,1.0,-1.0,1.0,1651025604796550.0
-3.0,-3.0,-5.0,-2.0,-2.0,-2.0,-3.0,-3.0,1651025604817513.0
-1.0,-14.0,-8.0,-4.0,-2.0,-2.0,0.0,-1.0,1651025604817513.0
-1.0,1.0,-4.0,0.0,0.0,0.0,0.0,1.0,1651025604818465.0
-2.0,4.0,1.0,-2.0,-3.0,-2.0,0.0,1.0,1651025604818465.0
-3.0,-3.0,6.0,-1.0,-11.0,-5.0,0.0,-1.0,1651025604831432.0
-2.0,-15.0,-8.0,1.0,21.0,1.0,0.0,0.0,1651025604831432.0
6.0,26.0,30.0,7.0,-2.0,2.0,3.0,4.0,1651025604838439.0
-8.0,-57.0,-42.0,-10.0,-5.0,-4.0,-4.0,-6.0,1651025604838439.0
0.0,4.0,3.0,1.0,1.0,1.0,0.0,1.0,1651025604853429.0
-5.0,-39.0,-10.0,-3.0,-8.0,-2.0,-1.0,-2.0,1651025604853429.0
5.0,-6.0,-7.0,-4.0,-2.0,-1.0,0.0,0.0,1651025604862349.0
0.0,43.0,24.0,1.0,-2.0,-3.0,-2.0,-2.0,1651025604862349.0
2.0,-13.0,-1.0,0.0,9.0,4.0,0.0,0.0,1651025604877308.0
-1.0,18.0,1.0,4.0,-3.0,-1.0,-1.0,0.0,1651025604877308.0
2.0,-25.0,-18.0,-2.0,3.0,0.0,0.0,2.0,1651025604878305.0
1.0,4.0,2.0,-3.0,-4.0,0.0,0.0,1.0,1651025604878305.0
0.0,-7.0,5.0,5.0,1.0,-2.0,-1.0,-2.0,1651025604891301.0
4.0,7.0,-2.0,-4.0,-5.0,-2.0,-1.0,3.0,1651025604891301.0
-2.0,-6.0,-12.0,-6.0,-1.0,0.0,0.0,-1.0,1651025604898252.0
2.0,7.0,5.0,2.0,0.0,-2.0,1.0,1.0,1651025604898252.0
-5.0,-22.0,-8.0,-1.0,-1.0,-1.0,-2.0,-2.0,1651025604914215.0
0.0,-1.0,12.0,6.0,10.0,2.0,1.0,1.0,1651025604914215.0
-3.0,1.0,-5.0,-3.0,-9.0,-2.0,-1.0,-2.0,1651025604916204.0
0.0,-4.0,-2.0,-3.0,2.0,-2.0,-1.0,-1.0,1651025604916204.0
1.0,-3.0,0.0,1.0,1.0,1.0,2.0,2.0,1651025604936757.0
-4.0,-3.0,12.0,-2.0,-9.0,-1.0,-5.0,-5.0,1651025604936757.0
-7.0,-27.0,-29.0,-2.0,-9.0,-8.0,-3.0,-3.0,1651025604938727.0
-5.0,-8.0,5.0,-2.0,4.0,7.0,-1.0,-2.0,1651025604938727.0
4.0,20.0,1.0,3.0,17.0,0.0,1.0,3.0,1651025604951692.0
2.0,5.0,0.0,-2.0,-8.0,-2.0,0.0,0.0,1651025604951692.0
-4.0,1.0,5.0,2.0,-4.0,-2.0,-2.0,-2.0,1651025604958690.0
-3.0,-28.0,-7.0,-2.0,-4.0,-2.0,-1.0,0.0,1651025604958690.0
-3.0,0.0,-1.0,-1.0,-1.0,0.0,-1.0,-2.0,1651025604974816.0
3.0,5.0,-2.0,-1.0,1.0,0.0,1.0,1.0,1651025604974816.0
0.0,4.0,2.0,-4.0,0.0,-2.0,-1.0,0.0,1651025604975851.0
-1.0,-5.0,-1.0,1.0,-3.0,0.0,1.0,1.0,1651025604975851.0
-2.0,-13.0,-1.0,2.0,3.0,1.0,0.0,0.0,1651025604996758.0
4.0,8.0,-9.0,1.0,-1.0,-1.0,1.0,0.0,1651025604996758.0
-2.0,17.0,16.0,-1.0,-3.0,0.0,-1.0,-2.0,1651025604998689.0
-3.0,-5.0,-13.0,-6.0,1.0,-2.0,-3.0,-4.0,1651025604998689.0
0.0,4.0,2.0,0.0,-3.0,-1.0,-1.0,-2.0,1651025605011653.0
-1.0,7.0,10.0,3.0,-4.0,1.0,0.0,2.0,1651025605011653.0
-1.0,-14.0,-20.0,-3.0,4.0,2.0,0.0,-1.0,1651025605018675.0
0.0,31.0,32.0,0.0,0.0,-2.0,-3.0,-3.0,1651025605018675.0
0.0,-3.0,-15.0,2.0,0.0,2.0,1.0,0.0,1651025605035039.0
3.0,-13.0,-9.0,-3.0,-4.0,0.0,1.0,1.0,1651025605035039.0
-2.0,-1.0,6.0,-1.0,4.0,2.0,0.0,1.0,1651025605036042.0
4.0,6.0,2.0,2.0,0.0,-1.0,1.0,1.0,1651025605036042.0
0.0,10.0,7.0,0.0,-5.0,-3.0,-1.0,1.0,1651025605057046.0
6.0,7.0,5.0,2.0,1.0,0.0,-1.0,1.0,1651025605057046.0
-6.0,-11.0,-9.0,-1.0,3.0,0.0,0.0,0.0,1651025605063532.0
0.0,-24.0,-7.0,0.0,-5.0,-1.0,0.0,1.0,1651025605063532.0
4.0,50.0,13.0,-4.0,-5.0,-3.0,-2.0,-3.0,1651025605071580.0
-12.0,-22.0,-9.0,-4.0,11.0,0.0,0.0,-2.0,1651025605071580.0
4.0,11.0,7.0,-1.0,-15.0,0.0,-1.0,1.0,1651025605078562.0
1.0,-7.0,-7.0,9.0,16.0,2.0,2.0,3.0,1651025605078562.0
7.0,8.0,7.0,1.0,-3.0,0.0,0.0,1.0,1651025605094903.0
-2.0,9.0,6.0,-3.0,-2.0,-1.0,0.0,-2.0,1651025605094903.0
-1.0,-3.0,-3.0,-1.0,3.0,0.0,-1.0,-2.0,1651025605095909.0
1.0,5.0,1.0,-2.0,-8.0,-1.0,0.0,-1.0,1651025605095909.0
-3.0,-29.0,-3.0,-2.0,-5.0,-4.0,-1.0,-1.0,1651025605116956.0
-1.0,4.0,3.0,1.0,8.0,4.0,-2.0,-1.0,1651025605116956.0
2.0,-6.0,-4.0,3.0,4.0,3.0,1.0,1.0,1651025605118889.0
3.0,13.0,-1.0,-1.0,-4.0,-2.0,1.0,1.0,1651025605118889.0
-9.0,-25.0,-11.0,-4.0,-7.0,-6.0,-2.0,0.0,1651025605130923.0
-5.0,15.0,0.0,-2.0,-2.0,-5.0,-2.0,-3.0,1651025605130923.0
-4.0,-5.0,-4.0,0.0,4.0,4.0,0.0,-2.0,1651025605139834.0
0.0,-6.0,3.0,2.0,2.0,-1.0,1.0,0.0,1651025605139834.0
5.0,14.0,3.0,3.0,3.0,3.0,3.0,3.0,1651025605154231.0
-4.0,-24.0,-10.0,-7.0,-9.0,-4.0,-2.0,-3.0,1651025605154231.0
2.0,1.0,-4.0,0.0,1.0,-3.0,-2.0,-1.0,1651025605156254.0
-1.0,-1.0,-4.0,-2.0,-1.0,2.0,0.0,0.0,1651025605156254.0
4.0,-4.0,4.0,1.0,0.0,0.0,2.0,3.0,1651025605176964.0
-1.0,4.0,1.0,-2.0,-5.0,-2.0,-3.0,0.0,1651025605176964.0
1.0,2.0,7.0,1.0,-3.0,2.0,1.0,0.0,1651025605178921.0
-2.0,-7.0,-15.0,-1.0,7.0,-2.0,-2.0,-1.0,1651025605178921.0
0.0,2.0,3.0,2.0,2.0,1.0,0.0,1.0,1651025605190928.0
-3.0,-19.0,-16.0,-2.0,-2.0,1.0,0.0,-1.0,1651025605190928.0
0.0,3.0,10.0,3.0,8.0,0.0,-1.0,-1.0,1651025605199842.0
-2.0,3.0,-11.0,-4.0,-13.0,-1.0,0.0,-2.0,1651025605199842.0
2.0,7.0,-3.0,-1.0,1.0,0.0,-1.0,-1.0,1651025605214865.0
0.0,0.0,0.0,0.0,-2.0,-1.0,0.0,-2.0,1651025605214865.0
-1.0,2.0,-2.0,0.0,-2.0,-3.0,0.0,1.0,1651025605215795.0
3.0,8.0,10.0,2.0,-2.0,-2.0,0.0,-2.0,1651025605215795.0
-5.0,0.0,-6.0,-3.0,7.0,3.0,-3.0,-3.0,1651025605236739.0
3.0,12.0,4.0,1.0,2.0,3.0,1.0,1.0,1651025605236739.0
-5.0,-24.0,-6.0,-3.0,-2.0,-3.0,-1.0,-1.0,1651025605238734.0
1.0,-21.0,-2.0,-1.0,-8.0,0.0,-1.0,1.0,1651025605238734.0
2.0,6.0,0.0,3.0,14.0,1.0,0.0,-1.0,1651025605250703.0
-3.0,19.0,14.0,3.0,6.0,1.0,-1.0,-3.0,1651025605250703.0
2.0,6.0,-2.0,-2.0,-9.0,-5.0,0.0,0.0,1651025605259678.0
5.0,17.0,2.0,-3.0,3.0,1.0,1.0,1.0,1651025605259678.0
-5.0,-22.0,-3.0,-6.0,-24.0,-6.0,-1.0,-1.0,1651025605274705.0
9.0,36.0,11.0,6.0,15.0,1.0,0.0,3.0,1651025605274705.0
-4.0,-22.0,3.0,9.0,8.0,3.0,0.0,-1.0,1651025605275665.0
-7.0,-17.0,-8.0,-7.0,-8.0,-2.0,-1.0,-4.0,1651025605275665.0
-7.0,11.0,-15.0,-7.0,-6.0,-2.0,-3.0,-3.0,1651025605297490.0
0.0,-27.0,-7.0,-6.0,-6.0,-1.0,3.0,0.0,1651025605297490.0
3.0,11.0,14.0,5.0,-1.0,-4.0,0.0,1.0,1651025605298623.0
-2.0,-6.0,-1.0,-4.0,-1.0,4.0,-2.0,-2.0,1651025605298623.0
-3.0,1.0,-2.0,3.0,13.0,3.0,1.0,0.0,1651025605310659.0
-4.0,-45.0,4.0,7.0,2.0,0.0,0.0,2.0,1651025605310659.0
-1.0,68.0,-5.0,-5.0,1.0,0.0,-3.0,-4.0,1651025605319567.0
-5.0,1.0,-5.0,-6.0,-12.0,-6.0,-1.0,-3.0,1651025605319567.0
2.0,3.0,0.0,-10.0,2.0,-4.0,-2.0,-1.0,1651025605334600.0
5.0,18.0,22.0,0.0,-16.0,3.0,1.0,2.0,1651025605334600.0
1.0,-29.0,-9.0,0.0,11.0,2.0,1.0,2.0,1651025605340584.0
-1.0,2.0,4.0,18.0,18.0,2.0,-4.0,0.0,1651025605340584.0
-9.0,1.0,-18.0,1.0,-16.0,-9.0,-3.0,-5.0,1651025605357084.0
-5.0,-8.0,-41.0,-30.0,0.0,-2.0,-5.0,-6.0,1651025605357084.0
2.0,-13.0,-12.0,-4.0,0.0,3.0,0.0,3.0,1651025605359031.0
9.0,11.0,24.0,-6.0,-15.0,-69.0,-23.0,-1.0,1651025605359031.0
10.0,-1.0,23.0,13.0,3.0,41.0,7.0,-4.0,1651025605380017.0
17.0,5.0,-16.0,3.0,-5.0,-58.0,-2.0,20.0,1651025605380017.0
7.0,-4.0,4.0,2.0,10.0,109.0,62.0,5.0,1651025605380932.0
-56.0,-31.0,16.0,-7.0,-3.0,2.0,-25.0,-26.0,1651025605380932.0
-13.0,-14.0,-4.0,-24.0,-11.0,-21.0,27.0,6.0,1651025605395010.0
7.0,21.0,34.0,10.0,-2.0,-53.0,-22.0,-11.0,1651025605395010.0
5.0,-10.0,-42.0,27.0,9.0,-4.0,-49.0,5.0,1651025605396010.0
57.0,22.0,8.0,-25.0,2.0,-2.0,25.0,20.0,1651025605396010.0
10.0,13.0,33.0,63.0,13.0,-6.0,-35.0,-14.0,1651025605416917.0
-27.0,-21.0,-78.0,-82.0,-45.0,7.0,2.0,-21.0,1651025605416917.0
-64.0,-12.0,47.0,23.0,-2.0,-37.0,35.0,22.0,1651025605418930.0
0.0,-47.0,32.0,88.0,53.0,41.0,-15.0,-11.0,1651025605418930.0
71.0,38.0,20.0,-46.0,3.0,4.0,7.0,25.0,1651025605430937.0
-74.0,-4.0,-10.0,66.0,15.0,-7.0,-68.0,-31.0,1651025605430937.0
71.0,29.0,-7.0,-76.0,-28.0,-22.0,-21.0,-9.0,1651025605439848.0
-68.0,-19.0,-39.0,-49.0,-30.0,-1.0,0.0,1.0,1651025605439848.0
1.0,-11.0,21.0,51.0,25.0,15.0,61.0,-17.0,1651025605454062.0
-25.0,81.0,5.0,-39.0,14.0,-8.0,35.0,27.0,1651025605454062.0
-66.0,-80.0,-24.0,-12.0,-22.0,18.0,100.0,7.0,1651025605456060.0
-51.0,-9.0,-5.0,17.0,19.0,37.0,-89.0,-9.0,1651025605456060.0
-56.0,-88.0,-49.0,-111.0,-71.0,-77.0,-37.0,-60.0,1651025605476972.0
3.0,0.0,36.0,88.0,43.0,33.0,-58.0,-20.0,1651025605476972.0
43.0,42.0,0.0,-80.0,-19.0,-50.0,19.0,-1.0,1651025605478928.0
41.0,62.0,15.0,-9.0,-3.0,32.0,127.0,37.0,1651025605478928.0
-14.0,27.0,19.0,75.0,56.0,45.0,-63.0,19.0,1651025605490894.0
41.0,-22.0,-7.0,-115.0,-34.0,-10.0,65.0,19.0,1651025605490894.0
-1.0,7.0,41.0,114.0,56.0,15.0,-119.0,-18.0,1651025605499844.0
-27.0,5.0,18.0,20.0,-2.0,-13.0,6.0,-7.0,1651025605499844.0
14.0,12.0,-35.0,-31.0,-23.0,-3.0,65.0,19.0,1651025605513804.0
20.0,-37.0,3.0,-2.0,-5.0,16.0,8.0,10.0,1651025605513804.0
-12.0,44.0,4.0,-34.0,-27.0,-17.0,-51.0,-12.0,1651025605520852.0
60.0,-15.0,-55.0,-41.0,-14.0,-2.0,74.0,35.0,1651025605520852.0
-12.0,-27.0,-32.0,-47.0,-23.0,-14.0,-20.0,5.0,1651025605536904.0
8.0,-6.0,32.0,70.0,19.0,17.0,-18.0,-9.0,1651025605536904.0
-16.0,-13.0,-16.0,-20.0,-6.0,-12.0,-9.0,-24.0,1651025605538845.0
14.0,47.0,11.0,14.0,9.0,-28.0,-37.0,-11.0,1651025605538845.0
18.0,-21.0,-11.0,-31.0,2.0,46.0,14.0,18.0,1651025605559809.0
8.0,15.0,-4.0,12.0,-13.0,-36.0,-2.0,5.0,1651025605559809.0
-74.0,-35.0,-7.0,24.0,0.0,31.0,69.0,6.0,1651025605560773.0
0.0,0.0,15.0,13.0,10.0,12.0,-92.0,-31.0,1651025605560773.0
5.0,5.0,3.0,-9.0,-1.0,-9.0,-13.0,-16.0,1651025605573752.0
-13.0,7.0,-10.0,-32.0,-5.0,41.0,15.0,-12.0,1651025605573752.0
50.0,12.0,10.0,23.0,2.0,-43.0,45.0,18.0,1651025605580751.0
-37.0,0.0,-13.0,-24.0,0.0,-3.0,17.0,13.0,1651025605580751.0
36.0,-15.0,-16.0,21.0,16.0,23.0,-60.0,7.0,1651025605597460.0
2.0,4.0,4.0,24.0,1.0,0.0,-4.0,-9.0,1651025605597460.0
11.0,38.0,-1.0,-74.0,-25.0,-10.0,-4.0,15.0,1651025605598897.0
6.0,-13.0,14.0,44.0,0.0,-13.0,4.0,-1.0,1651025605598897.0
-26.0,-5.0,15.0,24.0,14.0,-10.0,8.0,3.0,1651025605619818.0
6.0,16.0,12.0,7.0,-1.0,17.0,17.0,-6.0,1651025605619818.0
-18.0,-53.0,-24.0,-7.0,-7.0,-13.0,-9.0,-5.0,1651025605620813.0
52.0,26.0,-28.0,-89.0,-33.0,22.0,4.0,7.0,1651025605620813.0
-44.0,30.0,48.0,100.0,38.0,0.0,5.0,-18.0,1651025605633777.0
35.0,-29.0,-14.0,-4.0,6.0,29.0,84.0,36.0,1651025605633777.0
-33.0,-8.0,-8.0,-33.0,-27.0,-10.0,-28.0,-6.0,1651025605640828.0
20.0,8.0,8.0,41.0,8.0,-37.0,-79.0,-48.0,1651025605640828.0
6.0,42.0,-1.0,-15.0,-4.0,15.0,109.0,55.0,1651025605656777.0
12.0,-31.0,-11.0,-55.0,-27.0,-22.0,-109.0,-25.0,1651025605656777.0
4.0,21.0,6.0,36.0,24.0,0.0,-3.0,-10.0,1651025605658711.0
-11.0,-34.0,-12.0,7.0,12.0,0.0,23.0,8.0,1651025605658711.0
0.0,40.0,3.0,-14.0,-11.0,-9.0,3.0,-6.0,1651025605679718.0
-28.0,-30.0,-9.0,-50.0,-12.0,3.0,32.0,9.0,1651025605679718.0
28.0,-7.0,6.0,45.0,13.0,-9.0,-23.0,6.0,1651025605680675.0
22.0,9.0,-11.0,-23.0,-11.0,20.0,74.0,18.0,1651025605680675.0
-66.0,-35.0,-7.0,-8.0,-8.0,-3.0,-68.0,-17.0,1651025605693627.0
10.0,6.0,4.0,18.0,3.0,-18.0,-32.0,-2.0,1651025605693627.0
-16.0,3.0,-9.0,-22.0,0.0,7.0,-24.0,-21.0,1651025605700600.0
19.0,-3.0,-3.0,-1.0,4.0,-12.0,103.0,41.0,1651025605700600.0
0.0,-28.0,-13.0,-3.0,-1.0,-3.0,-44.0,-17.0,1651025605716894.0
-9.0,14.0,12.0,27.0,3.0,-39.0,-92.0,-22.0,1651025605716894.0
4.0,-21.0,-4.0,6.0,8.0,73.0,54.0,11.0,1651025605718909.0
57.0,36.0,8.0,4.0,1.0,-8.0,5.0,16.0,1651025605718909.0
-35.0,5.0,-19.0,-63.0,-19.0,-22.0,39.0,12.0,1651025605739830.0
-23.0,-6.0,15.0,4.0,-12.0,-16.0,47.0,-2.0,1651025605739830.0
44.0,10.0,4.0,57.0,34.0,19.0,-31.0,2.0,1651025605740827.0
-44.0,-4.0,-6.0,-8.0,9.0,-6.0,-59.0,-21.0,1651025605740827.0
3.0,-46.0,-29.0,-67.0,-22.0,-16.0,0.0,-8.0,1651025605753928.0
-32.0,-3.0,12.0,57.0,13.0,16.0,7.0,-6.0,1651025605753928.0
21.0,6.0,3.0,-21.0,-8.0,-14.0,26.0,18.0,1651025605760883.0
-12.0,-7.0,-8.0,17.0,2.0,18.0,61.0,1.0,1651025605760883.0
3.0,10.0,-5.0,-11.0,-24.0,-33.0,-115.0,-16.0,1651025605776839.0
-20.0,-11.0,-12.0,-20.0,2.0,28.0,71.0,19.0,1651025605776839.0
6.0,20.0,11.0,-2.0,-5.0,-2.0,2.0,1.0,1651025605778834.0
-15.0,-10.0,-2.0,7.0,-10.0,-19.0,-34.0,-5.0,1651025605778834.0
36.0,7.0,5.0,9.0,10.0,19.0,53.0,12.0,1651025605799826.0
2.0,5.0,3.0,15.0,12.0,6.0,15.0,-5.0,1651025605799826.0
24.0,27.0,8.0,2.0,-10.0,-51.0,-52.0,-12.0,1651025605800824.0
-21.0,-19.0,-1.0,-18.0,0.0,39.0,0.0,4.0,1651025605800824.0
-5.0,25.0,14.0,17.0,15.0,29.0,50.0,15.0,1651025605813789.0
7.0,-8.0,4.0,31.0,13.0,8.0,4.0,15.0,1651025605813789.0
7.0,2.0,0.0,0.0,13.0,8.0,46.0,11.0,1651025605820785.0
-14.0,15.0,8.0,-18.0,-18.0,-41.0,-107.0,-38.0,1651025605820785.0
18.0,22.0,4.0,12.0,10.0,-1.0,16.0,6.0,1651025605837053.0
14.0,-39.0,-24.0,-33.0,-12.0,8.0,4.0,3.0,1651025605837053.0
-39.0,9.0,0.0,2.0,-1.0,-11.0,-10.0,-14.0,1651025605839010.0
4.0,22.0,20.0,38.0,13.0,8.0,12.0,6.0,1651025605839010.0
-15.0,-10.0,5.0,24.0,-11.0,-5.0,-31.0,-14.0,1651025605860012.0
31.0,38.0,-4.0,-22.0,4.0,0.0,6.0,11.0,1651025605860012.0
10.0,-41.0,-7.0,-25.0,-12.0,-16.0,1.0,7.0,1651025605860957.0
14.0,-5.0,-4.0,4.0,-11.0,21.0,28.0,1.0,1651025605860957.0
-17.0,-16.0,-6.0,-21.0,-14.0,10.0,13.0,-17.0,1651025605873946.0
3.0,-16.0,-14.0,-22.0,-8.0,-20.0,-17.0,6.0,1651025605873946.0
-32.0,-5.0,9.0,35.0,13.0,22.0,-31.0,-25.0,1651025605881014.0
0.0,12.0,-8.0,-22.0,-3.0,-41.0,-93.0,-11.0,1651025605881014.0
-25.0,-21.0,13.0,28.0,15.0,0.0,22.0,-11.0,1651025605896798.0
1.0,7.0,-14.0,-21.0,-19.0,-10.0,6.0,2.0,1651025605896798.0
-3.0,3.0,-11.0,-67.0,-16.0,5.0,23.0,0.0,1651025605898786.0
-44.0,2.0,15.0,76.0,27.0,15.0,19.0,6.0,1651025605898786.0
79.0,3.0,5.0,-22.0,-5.0,-1.0,21.0,28.0,1651025605919798.0
-2.0,6.0,18.0,34.0,9.0,-6.0,-24.0,-10.0,1651025605919798.0
-5.0,13.0,-3.0,3.0,5.0,7.0,-5.0,-2.0,1651025605920728.0
-3.0,-27.0,-11.0,-12.0,-4.0,0.0,12.0,-3.0,1651025605920728.0
2.0,15.0,2.0,2.0,3.0,-35.0,-13.0,-3.0,1651025605933754.0
18.0,18.0,0.0,-6.0,4.0,48.0,13.0,3.0,1651025605933754.0
8.0,-56.0,-8.0,17.0,2.0,1.0,-1.0,-5.0,1651025605940739.0
5.0,20.0,5.0,-23.0,-3.0,-1.0,29.0,17.0,1651025605940739.0
6.0,4.0,-5.0,2.0,-4.0,8.0,14.0,-1.0,1651025605956993.0
-16.0,38.0,2.0,-9.0,-15.0,-34.0,-37.0,7.0,1651025605956993.0
30.0,-28.0,7.0,24.0,4.0,14.0,-19.0,-3.0,1651025605958949.0
-37.0,-24.0,-14.0,-37.0,-14.0,8.0,22.0,-19.0,1651025605958949.0
-23.0,16.0,13.0,41.0,20.0,4.0,27.0,12.0,1651025605979991.0
53.0,-6.0,-4.0,-7.0,-2.0,-12.0,-29.0,-8.0,1651025605979991.0
2.0,10.0,-8.0,-17.0,-16.0,-9.0,-10.0,9.0,1651025605980961.0
15.0,-9.0,-3.0,21.0,5.0,-4.0,-9.0,6.0,1651025605980961.0
-8.0,7.0,-12.0,-31.0,-15.0,5.0,28.0,-3.0,1651025605993934.0
-37.0,-35.0,7.0,11.0,5.0,13.0,-5.0,-18.0,1651025605993934.0
-14.0,9.0,-4.0,-25.0,7.0,-9.0,5.0,7.0,1651025606000919.0
41.0,10.0,20.0,29.0,15.0,9.0,0.0,10.0,1651025606000919.0
-22.0,23.0,-2.0,-16.0,-11.0,3.0,59.0,19.0,1651025606016896.0
3.0,5.0,14.0,45.0,23.0,-9.0,-50.0,-14.0,1651025606016896.0
-6.0,-22.0,-12.0,-15.0,-9.0,17.0,27.0,8.0,1651025606018885.0
-4.0,-2.0,-4.0,-13.0,-20.0,-23.0,-62.0,-24.0,1651025606018885.0
21.0,-1.0,6.0,-1.0,3.0,-12.0,-23.0,13.0,1651025606039896.0
-16.0,-5.0,-7.0,-8.0,0.0,-9.0,32.0,-7.0,1651025606039896.0
8.0,27.0,5.0,3.0,0.0,24.0,7.0,7.0,1651025606040826.0
-12.0,5.0,-3.0,-21.0,1.0,22.0,66.0,18.0,1651025606040826.0
14.0,-18.0,-15.0,4.0,7.0,-20.0,-128.0,-44.0,1651025606052861.0
-8.0,-18.0,7.0,-13.0,-12.0,14.0,26.0,26.0,1651025606052861.0
-2.0,34.0,12.0,41.0,9.0,-23.0,10.0,-9.0,1651025606061831.0
-2.0,-12.0,-7.0,-38.0,-9.0,34.0,26.0,6.0,1651025606061831.0
61.0,-23.0,-12.0,1.0,1.0,-26.0,-22.0,6.0,1651025606076945.0
-16.0,23.0,-1.0,-12.0,-8.0,0.0,0.0,-10.0,1651025606076945.0
-21.0,4.0,-3.0,-42.0,-7.0,-15.0,-39.0,-11.0,1651025606078900.0
-22.0,-18.0,-9.0,23.0,8.0,-1.0,24.0,3.0,1651025606078900.0
49.0,43.0,29.0,28.0,13.0,29.0,54.0,11.0,1651025606100952.0
38.0,-1.0,-6.0,-16.0,-4.0,0.0,-27.0,25.0,1651025606100952.0
6.0,-22.0,-5.0,21.0,5.0,-11.0,-13.0,-18.0,1651025606102974.0
4.0,13.0,-6.0,-29.0,-20.0,-36.0,-21.0,-5.0,1651025606102974.0
-1.0,-6.0,7.0,19.0,1.0,23.0,-3.0,5.0,1651025606113464.0
-45.0,7.0,-9.0,-37.0,-6.0,12.0,45.0,-3.0,1651025606113464.0
-4.0,-2.0,1.0,27.0,7.0,4.0,24.0,7.0,1651025606121875.0
7.0,7.0,4.0,-4.0,7.0,7.0,1.0,2.0,1651025606121875.0
-28.0,3.0,0.0,12.0,-12.0,10.0,3.0,-4.0,1651025606136872.0
-17.0,-20.0,-16.0,-26.0,-4.0,-40.0,-58.0,-23.0,1651025606136872.0
-19.0,-13.0,9.0,22.0,6.0,0.0,-7.0,-8.0,1651025606138823.0
30.0,-36.0,-1.0,10.0,0.0,22.0,59.0,5.0,1651025606138823.0
-42.0,-16.0,4.0,-1.0,9.0,4.0,0.0,27.0,1651025606159902.0
-5.0,11.0,-4.0,-6.0,-3.0,4.0,-21.0,-26.0,1651025606159902.0
-4.0,16.0,-21.0,-60.0,-11.0,-23.0,8.0,3.0,1651025606160836.0
-17.0,21.0,40.0,56.0,15.0,13.0,28.0,16.0,1651025606160836.0
-30.0,-5.0,-14.0,11.0,-4.0,-4.0,-25.0,-35.0,1651025606172804.0
-1.0,-4.0,-19.0,-52.0,-27.0,-20.0,9.0,0.0,1651025606172804.0
6.0,-8.0,12.0,12.0,1.0,-3.0,-35.0,-1.0,1651025606181845.0
-6.0,5.0,11.0,52.0,27.0,16.0,6.0,3.0,1651025606181845.0
-1.0,-6.0,0.0,-21.0,-4.0,4.0,25.0,10.0,1651025606196890.0
-17.0,18.0,2.0,18.0,10.0,-15.0,10.0,2.0,1651025606196890.0
41.0,28.0,21.0,32.0,6.0,31.0,27.0,10.0,1651025606198819.0
-22.0,-64.0,-29.0,-43.0,-17.0,-23.0,5.0,7.0,1651025606198819.0
15.0,22.0,-4.0,-8.0,-3.0,-31.0,-76.0,-35.0,1651025606218832.0
11.0,-25.0,18.0,48.0,14.0,2.0,45.0,21.0,1651025606218832.0
-13.0,-11.0,-19.0,-41.0,-22.0,46.0,-48.0,-18.0,1651025606227437.0
23.0,33.0,-6.0,-19.0,11.0,-3.0,28.0,9.0,1651025606227437.0
-13.0,-21.0,1.0,-36.0,-11.0,-22.0,-70.0,-48.0,1651025606233457.0
15.0,8.0,21.0,71.0,27.0,-2.0,18.0,26.0,1651025606233457.0
-8.0,-7.0,-15.0,-18.0,-4.0,-19.0,33.0,8.0,1651025606247885.0
-10.0,10.0,17.0,46.0,-17.0,-19.0,-57.0,-8.0,1651025606247885.0
22.0,34.0,-4.0,0.0,13.0,19.0,75.0,31.0,1651025606256926.0
-18.0,-55.0,-37.0,-102.0,-25.0,0.0,-60.0,-39.0,1651025606256926.0
-8.0,21.0,44.0,127.0,37.0,-10.0,-8.0,-3.0,1651025606258857.0
-27.0,-44.0,-35.0,-63.0,-28.0,-3.0,-42.0,-31.0,1651025606258857.0
-12.0,20.0,0.0,-35.0,0.0,4.0,23.0,9.0,1651025606279986.0
43.0,8.0,16.0,43.0,12.0,28.0,49.0,33.0,1651025606279986.0
-19.0,-7.0,-23.0,-59.0,-26.0,-23.0,-51.0,-31.0,1651025606280917.0
30.0,17.0,11.0,3.0,12.0,-13.0,-8.0,1.0,1651025606280917.0
39.0,-4.0,-11.0,-50.0,-13.0,40.0,57.0,24.0,1651025606293005.0
-17.0,-3.0,8.0,70.0,20.0,-7.0,-67.0,-40.0,1651025606293005.0
-10.0,9.0,-1.0,-20.0,-10.0,-8.0,26.0,15.0,1651025606301981.0
3.0,-10.0,-5.0,3.0,1.0,-36.0,3.0,8.0,1651025606301981.0
-19.0,-3.0,-10.0,-26.0,3.0,82.0,-10.0,-11.0,1651025606316997.0
-5.0,11.0,5.0,5.0,2.0,29.0,65.0,7.0,1651025606316997.0
-6.0,-21.0,-4.0,-21.0,-13.0,-6.0,-19.0,-3.0,1651025606318936.0
-6.0,24.0,-17.0,-29.0,-9.0,-30.0,-58.0,-24.0,1651025606318936.0
-25.0,-30.0,26.0,77.0,22.0,-26.0,-18.0,7.0,1651025606339940.0
10.0,5.0,-18.0,-52.0,-15.0,6.0,14.0,3.0,1651025606339940.0
17.0,20.0,16.0,26.0,15.0,9.0,41.0,3.0,1651025606340938.0
34.0,-21.0,-17.0,-33.0,-21.0,7.0,12.0,31.0,1651025606340938.0
-18.0,-2.0,-1.0,-6.0,-11.0,-16.0,8.0,-11.0,1651025606353532.0
35.0,18.0,32.0,67.0,28.0,7.0,-31.0,-4.0,1651025606353532.0
-24.0,16.0,-22.0,-61.0,-27.0,-31.0,22.0,15.0,1651025606367892.0
-53.0,-65.0,-19.0,-17.0,0.0,28.0,-35.0,-36.0,1651025606367892.0
-5.0,18.0,7.0,11.0,1.0,-18.0,40.0,2.0,1651025606376936.0
4.0,-11.0,0.0,-13.0,-16.0,-33.0,-1.0,24.0,1651025606376936.0
-17.0,-5.0,-6.0,3.0,9.0,60.0,45.0,7.0,1651025606378862.0
24.0,32.0,-1.0,-28.0,-10.0,26.0,5.0,-10.0,1651025606378862.0
-38.0,-14.0,24.0,37.0,10.0,-28.0,-56.0,-8.0,1651025606399062.0
39.0,-1.0,-18.0,8.0,-7.0,-1.0,58.0,23.0,1651025606399062.0
5.0,-18.0,-20.0,-53.0,-6.0,-35.0,-60.0,-21.0,1651025606407095.0
-21.0,48.0,59.0,86.0,34.0,15.0,28.0,5.0,1651025606407095.0
66.0,-7.0,-23.0,-8.0,-15.0,-16.0,14.0,18.0,1651025606413478.0
-67.0,-35.0,0.0,-19.0,14.0,34.0,54.0,-15.0,1651025606413478.0
58.0,-11.0,-7.0,1.0,-1.0,-17.0,-63.0,1.0,1651025606422456.0
10.0,1.0,-3.0,2.0,1.0,1.0,13.0,2.0,1651025606422456.0
-25.0,2.0,-11.0,-16.0,-14.0,-29.0,-41.0,-19.0,1651025606437484.0
-20.0,14.0,-8.0,-56.0,-16.0,24.0,36.0,10.0,1651025606437484.0
-18.0,39.0,31.0,94.0,41.0,27.0,61.0,12.0,1651025606438414.0
33.0,-69.0,-15.0,-32.0,-12.0,-46.0,-74.0,-18.0,1651025606438414.0
1.0,8.0,0.0,7.0,-1.0,5.0,-4.0,5.0,1651025606459357.0
9.0,9.0,-1.0,-8.0,-8.0,8.0,9.0,12.0,1651025606459357.0
-20.0,29.0,-3.0,-47.0,-16.0,-5.0,39.0,-1.0,1651025606461353.0
-5.0,-18.0,-3.0,39.0,8.0,8.0,-43.0,-1.0,1651025606461353.0
19.0,-19.0,2.0,21.0,10.0,-8.0,8.0,8.0,1651025606473476.0
-8.0,6.0,9.0,-3.0,-7.0,-3.0,17.0,-6.0,1651025606473476.0
-2.0,-17.0,-7.0,26.0,-2.0,-23.0,-48.0,-8.0,1651025606489819.0
-8.0,27.0,2.0,-9.0,-2.0,-10.0,30.0,8.0,1651025606489819.0
8.0,-13.0,-6.0,-6.0,3.0,12.0,-4.0,1.0,1651025606496830.0
2.0,13.0,3.0,12.0,6.0,-2.0,-25.0,-11.0,1651025606496830.0
-3.0,4.0,17.0,31.0,0.0,1.0,50.0,22.0,1651025606498794.0
-7.0,1.0,-14.0,-36.0,3.0,8.0,-29.0,-10.0,1651025606498794.0
-27.0,-17.0,-7.0,14.0,-10.0,-51.0,-29.0,-17.0,1651025606519582.0
16.0,11.0,-7.0,-27.0,-11.0,33.0,-8.0,5.0,1651025606519582.0
8.0,-17.0,-5.0,-14.0,-7.0,-19.0,4.0,-5.0,1651025606521539.0
8.0,20.0,10.0,22.0,8.0,41.0,30.0,17.0,1651025606521539.0
-47.0,-6.0,-5.0,-29.0,-7.0,9.0,-43.0,-28.0,1651025606541945.0
24.0,12.0,6.0,23.0,11.0,1.0,-11.0,9.0,1651025606541945.0
-3.0,-35.0,-7.0,-7.0,2.0,-22.0,-19.0,-22.0,1651025606543965.0
-15.0,14.0,1.0,0.0,-3.0,-7.0,-2.0,6.0,1651025606543965.0
8.0,12.0,3.0,-17.0,-10.0,-8.0,12.0,12.0,1651025606556931.0
-1.0,3.0,4.0,22.0,18.0,4.0,11.0,6.0,1651025606556931.0
-9.0,-13.0,-1.0,7.0,-2.0,12.0,3.0,-10.0,1651025606558926.0
1.0,0.0,-1.0,3.0,15.0,-4.0,0.0,4.0,1651025606558926.0
-3.0,6.0,7.0,12.0,2.0,8.0,26.0,15.0,1651025606579868.0
-6.0,-18.0,19.0,70.0,8.0,-10.0,-28.0,-9.0,1651025606579868.0
13.0,8.0,-9.0,-44.0,-14.0,1.0,1.0,1.0,1651025606580865.0
-13.0,-2.0,7.0,19.0,-8.0,-5.0,1.0,-25.0,1651025606580865.0
3.0,-19.0,-14.0,-15.0,-4.0,7.0,26.0,23.0,1651025606610020.0
10.0,27.0,4.0,-4.0,22.0,-7.0,-19.0,-11.0,1651025606610020.0
1.0,-3.0,-4.0,4.0,7.0,3.0,0.0,9.0,1651025606611022.0
-15.0,-1.0,-12.0,-27.0,-19.0,-21.0,-3.0,1.0,1651025606611022.0
4.0,7.0,4.0,8.0,-4.0,15.0,19.0,-6.0,1651025606617028.0
10.0,1.0,-3.0,-20.0,-11.0,10.0,-11.0,-15.0,1651025606617028.0
4.0,-5.0,-3.0,4.0,7.0,49.0,3.0,7.0,1651025606618996.0
1.0,-11.0,-13.0,-28.0,-18.0,1.0,-16.0,-32.0,1651025606618996.0
7.0,-3.0,0.0,-13.0,2.0,-12.0,17.0,24.0,1651025606639728.0
-4.0,4.0,6.0,40.0,30.0,-21.0,-6.0,2.0,1651025606639728.0
2.0,-6.0,10.0,16.0,2.0,-12.0,-9.0,0.0,1651025606640683.0
-2.0,4.0,0.0,-2.0,-4.0,0.0,20.0,17.0,1651025606640683.0
2.0,0.0,-6.0,-7.0,-6.0,2.0,-24.0,-13.0,1651025606661665.0
-6.0,10.0,-11.0,-42.0,-24.0,-8.0,0.0,0.0,1651025606661665.0
-4.0,-23.0,-7.0,2.0,-2.0,-3.0,-13.0,-4.0,1651025606663596.0
-1.0,10.0,1.0,-3.0,8.0,-1.0,8.0,-3.0,1651025606663596.0
-5.0,-1.0,11.0,13.0,8.0,11.0,9.0,-1.0,1651025606676629.0
-10.0,-27.0,-20.0,-18.0,-11.0,-4.0,-12.0,-6.0,1651025606676629.0
16.0,-3.0,1.0,9.0,9.0,21.0,22.0,20.0,1651025606683605.0
-7.0,57.0,5.0,-12.0,-11.0,-12.0,2.0,1.0,1651025606683605.0
2.0,-12.0,1.0,11.0,24.0,6.0,-6.0,-14.0,1651025606699686.0
-1.0,-1.0,18.0,-1.0,-16.0,-10.0,10.0,21.0,1651025606699686.0
-6.0,-14.0,-4.0,-2.0,6.0,-8.0,-26.0,-16.0,1651025606701614.0
3.0,-13.0,-2.0,1.0,0.0,4.0,16.0,0.0,1651025606701614.0
5.0,-4.0,13.0,18.0,-4.0,-8.0,-10.0,-5.0,1651025606721999.0
-24.0,-18.0,-74.0,-43.0,-15.0,0.0,-8.0,-19.0,1651025606721999.0
0.0,16.0,3.0,-8.0,-23.0,-14.0,1.0,12.0,1651025606723948.0
5.0,14.0,5.0,3.0,30.0,13.0,3.0,3.0,1651025606723948.0
-1.0,0.0,19.0,17.0,0.0,4.0,13.0,4.0,1651025606736892.0
5.0,-10.0,17.0,5.0,-5.0,-8.0,-5.0,5.0,1651025606736892.0
2.0,4.0,15.0,7.0,-7.0,-2.0,0.0,3.0,1651025606742875.0
-8.0,0.0,-23.0,-11.0,7.0,-4.0,-17.0,-8.0,1651025606742875.0
4.0,5.0,7.0,3.0,1.0,3.0,0.0,2.0,1651025606758833.0
1.0,-8.0,-19.0,1.0,2.0,8.0,2.0,-6.0,1651025606758833.0
-4.0,16.0,-2.0,-14.0,-8.0,-10.0,-1.0,0.0,1651025606766824.0
2.0,-4.0,24.0,7.0,-13.0,-2.0,10.0,15.0,1651025606766824.0
-7.0,-20.0,-27.0,-7.0,2.0,-6.0,-13.0,-23.0,1651025606782568.0
4.0,0.0,16.0,6.0,8.0,12.0,9.0,9.0,1651025606782568.0
5.0,12.0,19.0,11.0,5.0,-1.0,2.0,9.0,1651025606783567.0
-4.0,-27.0,-17.0,1.0,4.0,0.0,-1.0,-4.0,1651025606783567.0
-1.0,7.0,-7.0,-10.0,-19.0,-6.0,-2.0,-3.0,1651025606796839.0
-2.0,-5.0,2.0,0.0,-4.0,-6.0,-1.0,-7.0,1651025606796839.0
9.0,45.0,9.0,4.0,15.0,2.0,1.0,13.0,1651025606802853.0
-1.0,-20.0,-2.0,-4.0,-12.0,0.0,5.0,1.0,1651025606802853.0
-7.0,-3.0,-4.0,-1.0,-1.0,-3.0,-3.0,-9.0,1651025606819823.0
3.0,-13.0,9.0,9.0,15.0,9.0,-2.0,4.0,1651025606819823.0
-4.0,8.0,2.0,0.0,0.0,0.0,0.0,-4.0,1651025606820794.0
1.0,10.0,-1.0,-15.0,-12.0,-2.0,11.0,9.0,1651025606820794.0
1.0,6.0,6.0,12.0,3.0,1.0,-8.0,-10.0,1651025606841701.0
-2.0,16.0,2.0,1.0,-6.0,-6.0,-4.0,-6.0,1651025606841701.0
5.0,-30.0,-7.0,7.0,5.0,-1.0,3.0,-4.0,1651025606843693.0
-13.0,-22.0,-24.0,0.0,-4.0,0.0,3.0,1.0,1651025606843693.0
8.0,10.0,-8.0,-8.0,-1.0,0.0,5.0,9.0,1651025606856720.0
4.0,24.0,8.0,-8.0,-21.0,-9.0,0.0,5.0,1651025606856720.0
-8.0,-17.0,-5.0,3.0,27.0,8.0,-4.0,3.0,1651025606863638.0
-3.0,-9.0,13.0,1.0,4.0,0.0,-7.0,-24.0,1651025606863638.0
0.0,12.0,-6.0,-3.0,-5.0,-9.0,2.0,-1.0,1651025606879662.0
5.0,-19.0,5.0,6.0,3.0,6.0,5.0,21.0,1651025606879662.0
-7.0,-4.0,-13.0,-15.0,-33.0,-9.0,-9.0,-12.0,1651025606881616.0
7.0,33.0,5.0,5.0,20.0,9.0,1.0,3.0,1651025606881616.0
2.0,3.0,14.0,6.0,8.0,4.0,-1.0,6.0,1651025606902511.0
5.0,-5.0,1.0,4.0,0.0,-6.0,3.0,-3.0,1651025606902511.0
-9.0,2.0,-11.0,-12.0,-10.0,-7.0,-3.0,-8.0,1651025606903509.0
15.0,-10.0,12.0,9.0,-2.0,1.0,-6.0,8.0,1651025606903509.0
-20.0,4.0,2.0,-1.0,-3.0,-2.0,2.0,-8.0,1651025606924635.0
-4.0,15.0,8.0,-4.0,-1.0,-1.0,-2.0,-7.0,1651025606924635.0
5.0,-9.0,-25.0,-5.0,8.0,4.0,4.0,1.0,1651025606926563.0
-5.0,12.0,16.0,6.0,-3.0,-6.0,-10.0,-4.0,1651025606926563.0
7.0,-1.0,-7.0,-10.0,1.0,3.0,4.0,11.0,1651025606939595.0
-7.0,-4.0,-6.0,-7.0,3.0,4.0,-1.0,-9.0,1651025606939595.0
-1.0,-17.0,0.0,0.0,-1.0,-7.0,-11.0,-23.0,1651025606941547.0
4.0,37.0,19.0,11.0,11.0,3.0,13.0,21.0,1651025606941547.0
-1.0,-20.0,0.0,3.0,-11.0,0.0,6.0,8.0,1651025606961592.0
1.0,15.0,21.0,4.0,14.0,-2.0,-9.0,-8.0,1651025606961592.0
4.0,10.0,-1.0,-3.0,-12.0,2.0,26.0,10.0,1651025606963589.0
4.0,-29.0,-37.0,-15.0,0.0,-9.0,-40.0,-10.0,1651025606963589.0
1.0,19.0,12.0,4.0,3.0,13.0,5.0,-2.0,1651025606976854.0
3.0,3.0,-18.0,-10.0,-4.0,-4.0,-4.0,2.0,1651025606976854.0
-7.0,-6.0,11.0,0.0,-2.0,-1.0,-2.0,-15.0,1651025606982909.0
8.0,19.0,22.0,7.0,-7.0,2.0,19.0,16.0,1651025606982909.0
-13.0,-35.0,-12.0,0.0,-13.0,-8.0,-22.0,-18.0,1651025606999823.0
-4.0,-13.0,-5.0,1.0,15.0,4.0,-4.0,-8.0,1651025606999823.0
0.0,32.0,8.0,0.0,7.0,2.0,-11.0,4.0,1651025607000793.0
2.0,-19.0,-9.0,1.0,-6.0,-2.0,9.0,5.0,1651025607000793.0
5.0,13.0,1.0,3.0,13.0,3.0,7.0,8.0,1651025607021854.0
-2.0,-14.0,3.0,2.0,-14.0,-5.0,4.0,-3.0,1651025607021854.0
1.0,15.0,16.0,9.0,4.0,3.0,-1.0,12.0,1651025607023783.0
-19.0,-43.0,-42.0,-22.0,-13.0,-8.0,-6.0,-24.0,1651025607023783.0
3.0,3.0,-2.0,-7.0,-8.0,-5.0,-1.0,-4.0,1651025607035920.0
1.0,-4.0,-1.0,5.0,19.0,7.0,-1.0,-3.0,1651025607035920.0
-3.0,-19.0,-2.0,0.0,-2.0,1.0,6.0,7.0,1651025607045054.0
1.0,12.0,20.0,10.0,-9.0,-2.0,8.0,5.0,1651025607045054.0
6.0,6.0,-15.0,-3.0,6.0,4.0,-2.0,-5.0,1651025607059921.0
-8.0,-12.0,-25.0,-22.0,-20.0,-7.0,-1.0,0.0,1651025607059921.0
7.0,-5.0,-7.0,-1.0,17.0,2.0,2.0,11.0,1651025607060850.0
-6.0,-8.0,-3.0,-1.0,-7.0,-3.0,1.0,-5.0,1651025607060850.0
-1.0,-3.0,7.0,1.0,-4.0,-1.0,-2.0,0.0,1651025607082537.0
6.0,24.0,24.0,15.0,6.0,2.0,3.0,-3.0,1651025607082537.0
-8.0,-30.0,-13.0,3.0,-6.0,-2.0,-10.0,-10.0,1651025607083515.0
4.0,58.0,5.0,-3.0,-4.0,-2.0,-3.0,-2.0,1651025607083515.0
-8.0,-48.0,-38.0,-20.0,2.0,2.0,5.0,8.0,1651025607095680.0
7.0,9.0,10.0,2.0,-4.0,-1.0,4.0,11.0,1651025607095680.0
-2.0,22.0,7.0,-5.0,-15.0,-7.0,-2.0,-7.0,1651025607104483.0
4.0,13.0,9.0,11.0,22.0,9.0,1.0,2.0,1651025607104483.0
1.0,-1.0,5.0,3.0,-5.0,5.0,3.0,3.0,1651025607119443.0
-4.0,-1.0,-9.0,-7.0,-5.0,-8.0,-2.0,2.0,1651025607119443.0
0.0,-2.0,7.0,10.0,15.0,4.0,-3.0,1.0,1651025607121468.0
1.0,-19.0,3.0,-3.0,-6.0,-2.0,0.0,-3.0,1651025607121468.0
8.0,34.0,10.0,6.0,2.0,0.0,4.0,8.0,1651025607141884.0
-7.0,-15.0,-6.0,-10.0,-12.0,-3.0,-2.0,-4.0,1651025607141884.0
3.0,11.0,-6.0,-9.0,-8.0,-4.0,-3.0,-1.0,1651025607143906.0
-6.0,-19.0,-1.0,-2.0,2.0,1.0,3.0,-2.0,1651025607143906.0
6.0,4.0,0.0,-2.0,-3.0,-1.0,0.0,1.0,1651025607155914.0
0.0,23.0,15.0,2.0,-5.0,-2.0,-2.0,-1.0,1651025607155914.0
-5.0,-33.0,-5.0,23.0,12.0,3.0,3.0,-1.0,1651025607164962.0
3.0,-4.0,-6.0,-7.0,-3.0,2.0,0.0,1.0,1651025607164962.0
1.0,-1.0,13.0,7.0,4.0,-1.0,-1.0,1.0,1651025607178870.0
-6.0,-4.0,-15.0,-7.0,-2.0,1.0,1.0,-2.0,1651025607178870.0
6.0,30.0,2.0,-18.0,-9.0,-3.0,-2.0,0.0,1651025607179800.0
0.0,-3.0,0.0,2.0,-1.0,-1.0,0.0,-2.0,1651025607179800.0
1.0,24.0,9.0,0.0,2.0,0.0,0.0,2.0,1651025607202512.0
-7.0,-39.0,-10.0,6.0,2.0,-1.0,-1.0,-3.0,1651025607202512.0
1.0,15.0,-4.0,-8.0,-5.0,-3.0,-2.0,-1.0,1651025607203509.0
0.0,4.0,2.0,0.0,0.0,-1.0,1.0,0.0,1651025607203509.0
-2.0,-5.0,3.0,0.0,2.0,1.0,0.0,-2.0,1651025607223923.0
2.0,14.0,3.0,5.0,1.0,1.0,1.0,1.0,1651025607223923.0
1.0,-5.0,-8.0,-4.0,-3.0,-2.0,0.0,0.0,1651025607225023.0
-10.0,-38.0,-7.0,-3.0,-5.0,-3.0,-3.0,-5.0,1651025607225023.0
3.0,7.0,2.0,5.0,8.0,1.0,2.0,1.0,1651025607238946.0
-4.0,-10.0,0.0,-2.0,-5.0,-3.0,-4.0,-3.0,1651025607238946.0
2.0,18.0,12.0,-2.0,-4.0,1.0,-2.0,-3.0,1651025607239880.0
8.0,-1.0,-11.0,1.0,4.0,3.0,1.0,4.0,1651025607239880.0
-6.0,-3.0,-20.0,-8.0,-3.0,-3.0,-1.0,-2.0,1651025607261902.0
-5.0,7.0,2.0,1.0,1.0,0.0,0.0,-2.0,1651025607261902.0
-1.0,-26.0,1.0,-1.0,0.0,-3.0,-2.0,-1.0,1651025607261902.0
1.0,-2.0,-1.0,-3.0,-4.0,-3.0,-2.0,0.0,1651025607261902.0
0.0,-4.0,4.0,3.0,1.0,1.0,0.0,-1.0,1651025607284357.0
-3.0,-5.0,-5.0,0.0,1.0,1.0,1.0,-1.0,1651025607284357.0
-4.0,-17.0,-2.0,-1.0,-1.0,0.0,0.0,-1.0,1651025607284943.0
0.0,12.0,4.0,3.0,1.0,1.0,0.0,-2.0,1651025607284943.0
-7.0,-25.0,-7.0,-3.0,-2.0,-2.0,-3.0,-1.0,1651025607298880.0
5.0,14.0,2.0,1.0,-2.0,-2.0,-3.0,-2.0,1651025607298880.0
1.0,-2.0,-12.0,-6.0,-1.0,2.0,0.0,1.0,1651025607299811.0
-3.0,6.0,1.0,-2.0,-1.0,-2.0,1.0,-1.0,1651025607299811.0
2.0,0.0,-1.0,-2.0,-2.0,0.0,0.0,1.0,1651025607321887.0
6.0,21.0,5.0,1.0,1.0,3.0,0.0,1.0,1651025607321887.0
-3.0,-12.0,0.0,2.0,1.0,-2.0,-1.0,-2.0,1651025607321887.0
3.0,-2.0,-1.0,0.0,2.0,0.0,1.0,1.0,1651025607321887.0
0.0,9.0,5.0,-1.0,-3.0,-1.0,1.0,2.0,1651025607344066.0
-3.0,1.0,-4.0,0.0,-9.0,-4.0,-1.0,-1.0,1651025607344066.0
0.0,-27.0,8.0,9.0,19.0,3.0,3.0,1.0,1651025607345124.0
2.0,-2.0,-12.0,1.0,-1.0,1.0,1.0,-1.0,1651025607345124.0
-3.0,-2.0,3.0,-1.0,1.0,-1.0,-1.0,-1.0,1651025607359026.0
3.0,0.0,0.0,-1.0,-3.0,0.0,1.0,1.0,1651025607359026.0
1.0,36.0,-1.0,-7.0,-8.0,-5.0,-4.0,-2.0,1651025607359957.0
0.0,5.0,9.0,5.0,2.0,-1.0,-1.0,0.0,1651025607359957.0
3.0,-18.0,0.0,5.0,1.0,3.0,0.0,2.0,1651025607380998.0
3.0,69.0,4.0,-3.0,-1.0,0.0,0.0,-4.0,1651025607380998.0
-3.0,-9.0,5.0,-1.0,-3.0,0.0,0.0,-2.0,1651025607381931.0
0.0,-13.0,-4.0,-4.0,0.0,-1.0,0.0,1.0,1651025607381931.0
3.0,15.0,1.0,-1.0,-1.0,-1.0,0.0,-1.0,1651025607403900.0
2.0,-12.0,2.0,1.0,3.0,0.0,1.0,1.0,1651025607403900.0
-2.0,-11.0,-5.0,1.0,-1.0,-2.0,-1.0,-2.0,1651025607404868.0
-2.0,0.0,-3.0,-5.0,-3.0,0.0,-1.0,0.0,1651025607404868.0
-1.0,12.0,5.0,1.0,1.0,0.0,0.0,-1.0,1651025607419004.0
-3.0,-20.0,-1.0,1.0,1.0,-1.0,-1.0,-2.0,1651025607419004.0
5.0,10.0,1.0,-1.0,-4.0,0.0,-1.0,0.0,1651025607419951.0
-2.0,0.0,4.0,2.0,-1.0,-2.0,1.0,-1.0,1651025607419951.0
0.0,3.0,-17.0,-8.0,1.0,-2.0,-3.0,-2.0,1651025607440910.0
1.0,-10.0,-4.0,0.0,0.0,-1.0,-1.0,2.0,1651025607440910.0
3.0,-8.0,-2.0,-1.0,-2.0,1.0,0.0,2.0,1651025607441877.0
0.0,26.0,11.0,1.0,-1.0,0.0,-2.0,-1.0,1651025607441877.0
0.0,-9.0,5.0,4.0,-1.0,-2.0,-2.0,-1.0,1651025607464358.0
-3.0,-12.0,-7.0,-3.0,-1.0,-2.0,0.0,-1.0,1651025607464358.0
0.0,-1.0,-1.0,-3.0,-1.0,0.0,0.0,1.0,1651025607464836.0
-2.0,-1.0,-1.0,-10.0,-5.0,-1.0,0.0,1.0,1651025607464836.0
-2.0,-3.0,1.0,22.0,6.0,-1.0,-1.0,-2.0,1651025607478870.0
1.0,-9.0,0.0,-3.0,2.0,0.0,0.0,0.0,1651025607478870.0
-3.0,5.0,-1.0,2.0,-2.0,-1.0,1.0,-1.0,1651025607479799.0
-1.0,-2.0,-1.0,-2.0,0.0,0.0,0.0,-1.0,1651025607479799.0
-3.0,-2.0,-5.0,-9.0,-5.0,-2.0,-2.0,-2.0,1651025607501767.0
-2.0,-9.0,-1.0,1.0,-1.0,-2.0,0.0,-1.0,1651025607501767.0
-4.0,-8.0,-3.0,1.0,2.0,-1.0,0.0,-1.0,1651025607501767.0
4.0,11.0,-2.0,-2.0,-1.0,0.0,0.0,-2.0,1651025607501767.0
-1.0,-27.0,-4.0,-2.0,-1.0,0.0,2.0,0.0,1651025607524262.0
1.0,-2.0,-8.0,-3.0,-1.0,0.0,-1.0,-2.0,1651025607524262.0
-9.0,-10.0,0.0,-5.0,-4.0,-1.0,-1.0,-2.0,1651025607524262.0
-1.0,2.0,-1.0,3.0,-3.0,0.0,-1.0,-1.0,1651025607524262.0
-6.0,27.0,2.0,-2.0,1.0,-3.0,-3.0,-4.0,1651025607538929.0
0.0,-3.0,-3.0,1.0,0.0,0.0,-1.0,0.0,1651025607538929.0
4.0,15.0,-1.0,-3.0,-3.0,-2.0,-1.0,-1.0,1651025607539859.0
-5.0,-19.0,-4.0,2.0,0.0,0.0,0.0,-1.0,1651025607539859.0
1.0,7.0,5.0,-3.0,-2.0,0.0,-1.0,1.0,1651025607561915.0
-2.0,-6.0,-1.0,-3.0,-1.0,0.0,-1.0,-2.0,1651025607561915.0
2.0,9.0,-1.0,-2.0,-1.0,0.0,-1.0,1.0,1651025607561915.0
-1.0,-5.0,-3.0,3.0,-1.0,-1.0,0.0,-1.0,1651025607561915.0
0.0,-5.0,2.0,-1.0,-2.0,-1.0,0.0,0.0,1651025607583850.0
1.0,-8.0,-6.0,-2.0,1.0,-2.0,-1.0,1.0,1651025607583850.0
2.0,12.0,-2.0,1.0,0.0,1.0,0.0,0.0,1651025607584863.0
2.0,-9.0,1.0,2.0,1.0,-1.0,0.0,-1.0,1651025607584863.0
-6.0,5.0,4.0,-3.0,-2.0,-2.0,-2.0,-4.0,1651025607599854.0
-3.0,-30.0,-4.0,2.0,0.0,-2.0,0.0,-2.0,1651025607599854.0
2.0,4.0,3.0,1.0,2.0,-1.0,0.0,0.0,1651025607600824.0
-6.0,3.0,-3.0,-2.0,-1.0,-3.0,-3.0,-3.0,1651025607600824.0
2.0,-6.0,-2.0,-1.0,0.0,2.0,1.0,3.0,1651025607620932.0
-7.0,6.0,3.0,-1.0,-1.0,-1.0,-1.0,-2.0,1651025607620932.0
0.0,-8.0,-6.0,-2.0,-2.0,-1.0,-1.0,-1.0,1651025607621938.0
1.0,1.0,1.0,4.0,2.0,2.0,-1.0,2.0,1651025607621938.0
2.0,-4.0,3.0,2.0,0.0,0.0,0.0,0.0,1651025607644266.0
2.0,15.0,6.0,-1.0,-1.0,-2.0,0.0,-1.0,1651025607644266.0
1.0,8.0,2.0,1.0,-1.0,0.0,1.0,-2.0,1651025607644834.0
-2.0,1.0,0.0,0.0,-1.0,-1.0,0.0,1.0,1651025607644834.0
2.0,6.0,-3.0,-2.0,-2.0,-2.0,0.0,-1.0,1651025607658866.0
-4.0,11.0,3.0,-2.0,-1.0,1.0,-1.0,-2.0,1651025607658866.0
-2.0,-8.0,0.0,1.0,0.0,-1.0,-1.0,-1.0,1651025607659797.0
0.0,1.0,-1.0,0.0,-2.0,-1.0,-1.0,-2.0,1651025607659797.0
6.0,-14.0,-10.0,-5.0,1.0,-1.0,1.0,1.0,1651025607689902.0
2.0,10.0,7.0,5.0,2.0,2.0,1.0,0.0,1651025607689902.0
4.0,21.0,7.0,0.0,-2.0,-3.0,-1.0,2.0,1651025607689902.0
-8.0,-7.0,-9.0,-5.0,-3.0,-2.0,-4.0,-7.0,1651025607689902.0
1.0,-4.0,0.0,0.0,-1.0,1.0,1.0,1.0,1651025607703845.0
7.0,22.0,4.0,1.0,-2.0,0.0,2.0,3.0,1651025607703845.0
-12.0,-27.0,-5.0,-2.0,0.0,-1.0,-3.0,-5.0,1651025607704847.0
7.0,20.0,7.0,1.0,3.0,0.0,1.0,1.0,1651025607704847.0
-2.0,16.0,2.0,-1.0,-1.0,-1.0,-2.0,-2.0,1651025607718874.0
2.0,2.0,-1.0,-2.0,-1.0,-1.0,0.0,2.0,1651025607718874.0
3.0,5.0,-2.0,1.0,-2.0,1.0,0.0,0.0,1651025607719805.0
-1.0,-2.0,2.0,0.0,0.0,-1.0,1.0,0.0,1651025607719805.0
-1.0,-5.0,0.0,1.0,1.0,1.0,-1.0,0.0,1651025607741914.0
-2.0,-2.0,-3.0,-1.0,0.0,-2.0,-2.0,-3.0,1651025607741914.0
3.0,-5.0,-5.0,-1.0,0.0,2.0,1.0,1.0,1651025607741914.0
-4.0,12.0,1.0,0.0,0.0,1.0,-2.0,-2.0,1651025607741914.0
1.0,-3.0,2.0,0.0,-2.0,-1.0,0.0,1.0,1651025607763857.0
1.0,-11.0,0.0,2.0,-2.0,-1.0,0.0,1.0,1651025607763857.0
2.0,24.0,3.0,0.0,0.0,2.0,2.0,2.0,1651025607764853.0
-5.0,-41.0,-7.0,4.0,2.0,-1.0,-2.0,1.0,1651025607764853.0
0.0,9.0,1.0,1.0,-1.0,1.0,0.0,1.0,1651025607778883.0
2.0,2.0,-1.0,-1.0,-1.0,1.0,1.0,0.0,1651025607778883.0
0.0,-11.0,4.0,3.0,0.0,-2.0,0.0,0.0,1651025607779812.0
3.0,0.0,1.0,1.0,1.0,0.0,2.0,1.0,1651025607779812.0
0.0,5.0,1.0,-1.0,-2.0,-1.0,0.0,-2.0,1651025607801891.0
-5.0,-17.0,-5.0,-3.0,-2.0,0.0,-3.0,-1.0,1651025607801891.0
-1.0,-4.0,-2.0,-2.0,-1.0,0.0,-2.0,-1.0,1651025607801891.0
-10.0,-6.0,-5.0,-5.0,-3.0,-2.0,-1.0,-2.0,1651025607801891.0
-6.0,-23.0,-2.0,-1.0,-1.0,-2.0,-1.0,-2.0,1651025607823963.0
2.0,-5.0,-3.0,-1.0,-1.0,-1.0,0.0,-1.0,1651025607823963.0
-5.0,0.0,0.0,0.0,-2.0,-2.0,-2.0,-4.0,1651025607824963.0
2.0,5.0,4.0,1.0,-1.0,-1.0,0.0,-1.0,1651025607824963.0
-3.0,-8.0,-6.0,-1.0,-1.0,0.0,-1.0,-1.0,1651025607838999.0
-6.0,4.0,-5.0,-4.0,-5.0,-3.0,-5.0,-3.0,1651025607838999.0
4.0,7.0,3.0,2.0,2.0,1.0,1.0,0.0,1651025607839924.0
0.0,-12.0,-3.0,-2.0,-1.0,0.0,0.0,-1.0,1651025607839924.0
3.0,-6.0,1.0,0.0,0.0,-1.0,-1.0,1.0,1651025607860999.0
-4.0,-1.0,-1.0,0.0,2.0,0.0,0.0,-3.0,1651025607860999.0
-3.0,-2.0,-11.0,-4.0,-4.0,-4.0,-3.0,-2.0,1651025607862000.0
3.0,6.0,0.0,-1.0,0.0,-1.0,-1.0,1.0,1651025607862000.0
-5.0,10.0,2.0,-1.0,-1.0,0.0,-2.0,-3.0,1651025607884917.0
7.0,10.0,1.0,0.0,-2.0,1.0,1.0,2.0,1651025607884917.0
-10.0,6.0,1.0,-1.0,3.0,0.0,-3.0,-3.0,1651025607885938.0
-4.0,-14.0,-6.0,-3.0,-3.0,0.0,0.0,-1.0,1651025607885938.0
-2.0,-18.0,-2.0,-2.0,-1.0,0.0,1.0,1.0,1651025607898999.0
3.0,4.0,1.0,3.0,0.0,0.0,1.0,-1.0,1651025607898999.0
1.0,19.0,5.0,10.0,2.0,-1.0,-1.0,-1.0,1651025607899934.0
4.0,8.0,2.0,1.0,0.0,1.0,2.0,1.0,1651025607899934.0
-3.0,-9.0,-1.0,0.0,1.0,0.0,0.0,-1.0,1651025607920885.0
-3.0,0.0,-1.0,-2.0,1.0,2.0,0.0,2.0,1651025607920885.0
8.0,10.0,3.0,-4.0,-2.0,2.0,2.0,2.0,1651025607921872.0
-8.0,4.0,-3.0,-5.0,-5.0,-3.0,-3.0,-5.0,1651025607921872.0
5.0,11.0,-1.0,0.0,1.0,0.0,0.0,1.0,1651025607944088.0
-3.0,7.0,4.0,-2.0,1.0,-1.0,-1.0,-2.0,1651025607944088.0
-3.0,-6.0,-2.0,-2.0,-2.0,-2.0,-1.0,-1.0,1651025607945077.0
7.0,8.0,5.0,1.0,-1.0,-1.0,-1.0,1.0,1651025607945077.0
1.0,5.0,-5.0,-4.0,-2.0,0.0,0.0,-2.0,1651025607959099.0
0.0,-13.0,-2.0,1.0,0.0,1.0,0.0,1.0,1651025607959099.0
-1.0,-25.0,-6.0,-1.0,-2.0,-1.0,0.0,-2.0,1651025607960032.0
2.0,5.0,5.0,2.0,2.0,2.0,1.0,1.0,1651025607960032.0
0.0,24.0,-2.0,-2.0,-3.0,-3.0,-1.0,-3.0,1651025607981056.0
-2.0,-17.0,-2.0,0.0,3.0,0.0,0.0,-1.0,1651025607981056.0
2.0,3.0,-1.0,-1.0,0.0,-1.0,0.0,0.0,1651025607982057.0
-1.0,1.0,-1.0,-2.0,-2.0,-2.0,-2.0,-1.0,1651025607982057.0
0.0,0.0,2.0,-1.0,-2.0,-1.0,1.0,1.0,1651025608003997.0
-3.0,-6.0,-3.0,-2.0,-3.0,-1.0,0.0,-1.0,1651025608003997.0
0.0,-9.0,3.0,-1.0,0.0,0.0,1.0,1.0,1651025608004996.0
-2.0,-7.0,-5.0,-2.0,1.0,-2.0,-3.0,-2.0,1651025608004996.0
3.0,14.0,3.0,0.0,-1.0,-1.0,-2.0,0.0,1651025608018955.0
2.0,5.0,2.0,6.0,-2.0,-2.0,-1.0,1.0,1651025608018955.0
-6.0,-20.0,-13.0,-6.0,1.0,-1.0,-1.0,-2.0,1651025608019888.0
4.0,2.0,7.0,5.0,3.0,1.0,1.0,1.0,1651025608019888.0
1.0,-3.0,1.0,0.0,2.0,-1.0,-1.0,0.0,1651025608041829.0
-1.0,2.0,-2.0,-2.0,-3.0,-2.0,0.0,-1.0,1651025608041829.0
3.0,-5.0,3.0,1.0,-3.0,1.0,2.0,3.0,1651025608041829.0
4.0,35.0,4.0,-1.0,-3.0,-3.0,-3.0,-2.0,1651025608041829.0
-6.0,1.0,7.0,2.0,1.0,0.0,-1.0,-5.0,1651025608063771.0
-2.0,-7.0,3.0,4.0,3.0,2.0,0.0,0.0,1651025608063771.0
-1.0,-7.0,10.0,6.0,0.0,1.0,0.0,1.0,1651025608064768.0
1.0,-8.0,-38.0,-15.0,-4.0,-1.0,0.0,0.0,1651025608064768.0
-6.0,-17.0,-8.0,-10.0,-5.0,-2.0,-3.0,-1.0,1651025608078736.0
3.0,11.0,3.0,-1.0,-2.0,0.0,-2.0,0.0,1651025608078736.0
-2.0,5.0,3.0,0.0,-2.0,-1.0,-1.0,-2.0,1651025608086776.0
2.0,21.0,19.0,9.0,3.0,2.0,0.0,1.0,1651025608086776.0
5.0,-8.0,-1.0,3.0,0.0,0.0,-1.0,1.0,1651025608100940.0
-8.0,5.0,-8.0,-2.0,-1.0,-2.0,-2.0,-4.0,1651025608100940.0
-8.0,-59.0,-9.0,-2.0,1.0,0.0,-2.0,-1.0,1651025608101928.0
1.0,10.0,6.0,-1.0,-1.0,-1.0,-1.0,0.0,1651025608101928.0
3.0,-3.0,-5.0,-1.0,0.0,0.0,2.0,1.0,1651025608123880.0
3.0,3.0,3.0,0.0,1.0,1.0,1.0,1.0,1651025608123880.0
1.0,2.0,-5.0,-1.0,-1.0,1.0,0.0,-2.0,1651025608124868.0
-5.0,-4.0,0.0,-3.0,-3.0,-3.0,-1.0,-3.0,1651025608124868.0
-4.0,-4.0,2.0,0.0,0.0,0.0,-2.0,0.0,1651025608138315.0
2.0,23.0,4.0,-1.0,1.0,2.0,0.0,1.0,1651025608138315.0
-2.0,10.0,-4.0,-5.0,-2.0,-3.0,-1.0,-4.0,1651025608154247.0
3.0,-27.0,-5.0,1.0,1.0,0.0,1.0,1.0,1651025608154247.0
3.0,38.0,15.0,6.0,0.0,0.0,1.0,1.0,1651025608161248.0
-2.0,-12.0,-9.0,-10.0,-3.0,-2.0,-1.0,-2.0,1651025608161248.0
-2.0,-5.0,-5.0,2.0,0.0,-1.0,1.0,-1.0,1651025608162229.0
-3.0,9.0,16.0,9.0,-2.0,0.0,0.0,-1.0,1651025608162229.0
-9.0,-27.0,-5.0,2.0,0.0,-2.0,-1.0,-2.0,1651025608184058.0
2.0,2.0,-12.0,-9.0,-2.0,-3.0,0.0,0.0,1651025608184058.0
-2.0,-1.0,-7.0,-6.0,-3.0,-2.0,-2.0,-2.0,1651025608185064.0
-1.0,-6.0,8.0,-4.0,-1.0,0.0,1.0,-1.0,1651025608185064.0
1.0,-1.0,-2.0,3.0,0.0,2.0,0.0,1.0,1651025608198091.0
2.0,-24.0,5.0,8.0,2.0,0.0,1.0,2.0,1651025608198091.0
4.0,22.0,4.0,-3.0,-1.0,0.0,-2.0,1.0,1651025608206069.0
1.0,29.0,1.0,2.0,0.0,1.0,0.0,-1.0,1651025608206069.0
1.0,5.0,7.0,-1.0,-1.0,2.0,-1.0,0.0,1651025608221118.0
-3.0,-19.0,5.0,-2.0,-3.0,-1.0,-3.0,-1.0,1651025608221118.0
4.0,14.0,-10.0,1.0,2.0,0.0,1.0,1.0,1651025608222104.0
-2.0,-23.0,-24.0,-6.0,-2.0,0.0,-2.0,-2.0,1651025608222104.0
3.0,9.0,21.0,-2.0,-4.0,-2.0,1.0,0.0,1651025608244148.0
-5.0,-18.0,-33.0,-4.0,-3.0,-1.0,-1.0,-2.0,1651025608244148.0
-2.0,9.0,15.0,4.0,2.0,0.0,-2.0,1.0,1651025608244148.0
-4.0,-26.0,-47.0,-16.0,-3.0,1.0,1.0,-1.0,1651025608244148.0
2.0,1.0,20.0,7.0,5.0,-1.0,-1.0,6.0,1651025608258111.0
3.0,11.0,29.0,1.0,-2.0,-3.0,-1.0,1.0,1651025608258111.0
-18.0,0.0,17.0,-6.0,-11.0,-7.0,-6.0,-11.0,1651025608266154.0
6.0,-7.0,-1.0,13.0,14.0,5.0,4.0,3.0,1651025608266154.0
5.0,6.0,-17.0,10.0,7.0,4.0,5.0,5.0,1651025608281166.0
-26.0,-7.0,-4.0,8.0,4.0,2.0,-5.0,-9.0,1651025608281166.0
27.0,2.0,1.0,6.0,1.0,-1.0,3.0,8.0,1651025608282145.0
-14.0,-14.0,-44.0,-28.0,-11.0,-8.0,-10.0,-12.0,1651025608282145.0
-11.0,-2.0,-6.0,-23.0,-10.0,-11.0,-13.0,-3.0,1651025608304158.0
-1.0,-7.0,14.0,-18.0,-12.0,16.0,12.0,3.0,1651025608304158.0
14.0,7.0,22.0,16.0,13.0,0.0,11.0,1.0,1651025608305102.0
-4.0,15.0,45.0,-8.0,5.0,25.0,1.0,-5.0,1651025608305102.0
44.0,-11.0,-27.0,12.0,-6.0,-8.0,-7.0,1.0,1651025608318120.0
-16.0,5.0,-36.0,-55.0,-18.0,-8.0,61.0,13.0,1651025608318120.0
-23.0,-34.0,-14.0,32.0,9.0,9.0,6.0,7.0,1651025608326099.0
13.0,2.0,6.0,-5.0,12.0,-33.0,-90.0,-16.0,1651025608326099.0
-19.0,-7.0,-6.0,8.0,-9.0,-7.0,0.0,-26.0,1651025608341107.0
-28.0,31.0,32.0,70.0,41.0,32.0,8.0,-11.0,1651025608341107.0
20.0,5.0,4.0,-92.0,-33.0,-6.0,-9.0,37.0,1651025608342086.0
72.0,19.0,30.0,108.0,30.0,-4.0,56.0,27.0,1651025608342086.0
-23.0,1.0,-17.0,-63.0,-7.0,-1.0,-4.0,2.0,1651025608364225.0
-32.0,-57.0,-3.0,45.0,5.0,4.0,-7.0,-27.0,1651025608364225.0
-2.0,34.0,11.0,34.0,20.0,-14.0,-36.0,-20.0,1651025608364225.0
-11.0,-2.0,2.0,-49.0,-9.0,19.0,34.0,17.0,1651025608364225.0
20.0,14.0,-41.0,-88.0,-49.0,-39.0,-12.0,-6.0,1651025608394271.0
23.0,-37.0,-16.0,62.0,14.0,52.0,9.0,7.0,1651025608394271.0
-18.0,2.0,23.0,-15.0,-33.0,-48.0,-82.0,-31.0,1651025608395259.0
-40.0,-10.0,-13.0,-34.0,2.0,-21.0,-20.0,-29.0,1651025608395259.0
-10.0,-2.0,0.0,-9.0,14.0,28.0,103.0,39.0,1651025608401271.0
11.0,5.0,-20.0,-128.0,-50.0,-37.0,-54.0,-12.0,1651025608401271.0
-11.0,13.0,-14.0,101.0,35.0,10.0,-30.0,-7.0,1651025608402268.0
-22.0,-2.0,-5.0,21.0,-12.0,-25.0,-58.0,-33.0,1651025608402268.0
6.0,-8.0,8.0,-13.0,-3.0,16.0,31.0,20.0,1651025608424187.0
17.0,-26.0,4.0,14.0,7.0,-6.0,54.0,6.0,1651025608424187.0
-27.0,7.0,-25.0,-34.0,-2.0,18.0,36.0,4.0,1651025608424187.0
7.0,22.0,-5.0,-69.0,-27.0,1.0,7.0,2.0,1651025608424187.0
-2.0,-31.0,-12.0,59.0,31.0,1.0,-64.0,-21.0,1651025608447183.0
3.0,29.0,46.0,38.0,6.0,-13.0,-35.0,-7.0,1651025608447183.0
-27.0,17.0,4.0,-33.0,3.0,11.0,51.0,0.0,1651025608448118.0
22.0,-7.0,10.0,18.0,6.0,-3.0,39.0,18.0,1651025608448118.0
33.0,-3.0,-28.0,-5.0,-8.0,1.0,-29.0,-7.0,1651025608461111.0
-18.0,53.0,27.0,63.0,17.0,-6.0,25.0,5.0,1651025608461111.0
5.0,-95.0,-30.0,-35.0,-13.0,-11.0,-77.0,-23.0,1651025608462080.0
-42.0,-5.0,2.0,-14.0,-4.0,24.0,19.0,9.0,1651025608462080.0
-42.0,14.0,43.0,49.0,19.0,25.0,-4.0,-18.0,1651025608484063.0
25.0,3.0,-15.0,-23.0,-7.0,-37.0,-16.0,6.0,1651025608484063.0
24.0,12.0,-14.0,6.0,9.0,49.0,114.0,15.0,1651025608485020.0
16.0,23.0,18.0,-13.0,-13.0,-14.0,-96.0,-15.0,1651025608485020.0
-7.0,-39.0,-5.0,-27.0,-9.0,-10.0,6.0,-10.0,1651025608506988.0
-4.0,4.0,-2.0,0.0,11.0,2.0,-9.0,-2.0,1651025608506988.0
12.0,4.0,-3.0,-20.0,-1.0,-18.0,48.0,19.0,1651025608507959.0
19.0,-2.0,22.0,20.0,-8.0,1.0,-16.0,18.0,1651025608507959.0
-18.0,18.0,6.0,73.0,34.0,17.0,19.0,0.0,1651025608520987.0
23.0,10.0,-17.0,-70.0,-21.0,-13.0,-52.0,-1.0,1651025608520987.0
-28.0,-26.0,-8.0,25.0,-2.0,-32.0,-7.0,-10.0,1651025608521921.0
-1.0,-7.0,1.0,24.0,6.0,22.0,25.0,4.0,1651025608521921.0
-24.0,-12.0,11.0,5.0,-1.0,8.0,-16.0,-7.0,1651025608543864.0
12.0,-4.0,-11.0,-5.0,-7.0,-5.0,11.0,8.0,1651025608543864.0
-2.0,21.0,3.0,-10.0,0.0,-23.0,-18.0,-7.0,1651025608544860.0
17.0,-7.0,-30.0,-35.0,-2.0,52.0,90.0,27.0,1651025608544860.0
-15.0,-5.0,19.0,-4.0,-9.0,-15.0,-64.0,-16.0,1651025608567261.0
6.0,12.0,13.0,18.0,15.0,1.0,8.0,8.0,1651025608567261.0
-9.0,1.0,-3.0,-17.0,-8.0,-8.0,-12.0,-11.0,1651025608567867.0
-15.0,2.0,-12.0,-38.0,-13.0,-27.0,-10.0,-14.0,1651025608567867.0
31.0,5.0,22.0,41.0,23.0,12.0,22.0,25.0,1651025608581837.0
0.0,-7.0,-13.0,-24.0,-11.0,-14.0,-7.0,-9.0,1651025608581837.0
14.0,-5.0,4.0,3.0,-1.0,7.0,-17.0,3.0,1651025608581837.0
-6.0,-2.0,-5.0,-8.0,-6.0,-7.0,42.0,11.0,1651025608581837.0
-11.0,21.0,12.0,13.0,6.0,14.0,11.0,7.0,1651025608603787.0
-14.0,-1.0,-3.0,-2.0,-2.0,-6.0,-27.0,4.0,1651025608603787.0
-8.0,2.0,-15.0,-9.0,-2.0,-13.0,-22.0,-17.0,1651025608604789.0
-3.0,-47.0,-9.0,-4.0,-20.0,-9.0,13.0,0.0,1651025608604789.0
1.0,17.0,1.0,-10.0,-1.0,-14.0,-29.0,-5.0,1651025608626887.0
-3.0,-23.0,-8.0,2.0,0.0,-1.0,18.0,-3.0,1651025608626887.0
15.0,21.0,16.0,-5.0,-5.0,19.0,31.0,13.0,1651025608627818.0
1.0,13.0,-13.0,-18.0,6.0,5.0,-18.0,-3.0,1651025608627818.0
7.0,3.0,24.0,59.0,9.0,-26.0,2.0,1.0,1651025608641464.0
38.0,-8.0,-12.0,-30.0,-7.0,12.0,13.0,16.0,1651025608641464.0
17.0,-12.0,-23.0,-9.0,0.0,12.0,-22.0,0.0,1651025608642461.0
-56.0,-25.0,4.0,38.0,7.0,-10.0,0.0,-19.0,1651025608642461.0
19.0,6.0,-20.0,-72.0,-22.0,-27.0,3.0,3.0,1651025608664354.0
8.0,27.0,21.0,45.0,23.0,11.0,-13.0,-7.0,1651025608664354.0
22.0,-9.0,11.0,-9.0,-4.0,9.0,40.0,17.0,1651025608664909.0
-13.0,9.0,-3.0,6.0,4.0,2.0,-55.0,-24.0,1651025608664909.0
-8.0,1.0,-9.0,-29.0,-16.0,3.0,17.0,-2.0,1651025608686977.0
10.0,1.0,-5.0,-10.0,2.0,3.0,5.0,12.0,1651025608686977.0
-11.0,10.0,4.0,-8.0,-18.0,-35.0,-45.0,-19.0,1651025608687912.0
7.0,0.0,20.0,39.0,18.0,9.0,18.0,8.0,1651025608687912.0
20.0,-2.0,-23.0,-53.0,-14.0,-2.0,16.0,16.0,1651025608700944.0
2.0,4.0,13.0,25.0,-1.0,11.0,12.0,-13.0,1651025608700944.0
-3.0,-8.0,5.0,37.0,14.0,8.0,-20.0,-5.0,1651025608708900.0
-12.0,-1.0,-10.0,-46.0,-15.0,-6.0,26.0,4.0,1651025608708900.0
20.0,5.0,16.0,39.0,17.0,15.0,-14.0,13.0,1651025608723816.0
-41.0,3.0,-7.0,-26.0,-17.0,-13.0,-5.0,-18.0,1651025608723816.0
14.0,-17.0,-1.0,-3.0,-1.0,10.0,3.0,0.0,1651025608724814.0
24.0,8.0,1.0,3.0,5.0,-1.0,1.0,-3.0,1651025608724814.0
-47.0,-9.0,-18.0,-19.0,-12.0,0.0,47.0,-1.0,1651025608747070.0
1.0,-17.0,-7.0,0.0,0.0,-1.0,-42.0,-10.0,1651025608747070.0
17.0,30.0,8.0,-14.0,-3.0,7.0,-9.0,4.0,1651025608748071.0
-45.0,-48.0,1.0,55.0,17.0,-2.0,32.0,-7.0,1651025608748071.0
20.0,5.0,-1.0,-10.0,-4.0,-6.0,-37.0,-2.0,1651025608761062.0
5.0,5.0,-15.0,-42.0,-12.0,-2.0,-1.0,0.0,1651025608761062.0
-16.0,-11.0,12.0,54.0,25.0,14.0,16.0,1.0,1651025608762041.0
30.0,14.0,-3.0,-18.0,-2.0,-1.0,15.0,13.0,1651025608762041.0
-24.0,-2.0,4.0,7.0,-5.0,-3.0,-41.0,-20.0,1651025608783919.0
13.0,7.0,2.0,13.0,2.0,-4.0,20.0,8.0,1651025608783919.0
6.0,13.0,15.0,-15.0,4.0,11.0,22.0,17.0,1651025608784916.0
11.0,3.0,-13.0,-26.0,-10.0,-3.0,0.0,0.0,1651025608784916.0
17.0,0.0,6.0,20.0,15.0,5.0,16.0,-5.0,1651025608807073.0
-17.0,-12.0,4.0,32.0,0.0,-2.0,-16.0,-12.0,1651025608807073.0
3.0,17.0,-3.0,-25.0,-15.0,7.0,33.0,9.0,1651025608808070.0
-11.0,14.0,11.0,16.0,7.0,3.0,-31.0,13.0,1651025608808070.0
32.0,10.0,-3.0,-4.0,-6.0,-19.0,4.0,1.0,1651025608822044.0
-8.0,-8.0,-4.0,-20.0,-5.0,4.0,5.0,-2.0,1651025608822044.0
-5.0,-17.0,-6.0,9.0,4.0,17.0,40.0,-4.0,1651025608822044.0
1.0,2.0,-4.0,-15.0,-7.0,-20.0,-47.0,-7.0,1651025608822044.0
-1.0,-9.0,-1.0,-2.0,-8.0,-16.0,-18.0,-5.0,1651025608843980.0
11.0,11.0,2.0,2.0,10.0,39.0,19.0,22.0,1651025608843980.0
-12.0,-2.0,-4.0,3.0,5.0,-8.0,-13.0,-6.0,1651025608844971.0
13.0,14.0,-8.0,-65.0,-19.0,4.0,13.0,5.0,1651025608844971.0
-7.0,-2.0,7.0,38.0,12.0,3.0,30.0,7.0,1651025608866912.0
-13.0,-14.0,11.0,29.0,10.0,-21.0,-14.0,-4.0,1651025608866912.0
7.0,-4.0,-12.0,-22.0,-13.0,-3.0,-1.0,2.0,1651025608867910.0
-23.0,12.0,-1.0,5.0,0.0,-4.0,-4.0,-11.0,1651025608867910.0
-1.0,7.0,-12.0,-38.0,-15.0,5.0,-5.0,9.0,1651025608880885.0
-14.0,-18.0,1.0,-8.0,2.0,-1.0,4.0,-15.0,1651025608880885.0
8.0,-6.0,-1.0,12.0,12.0,9.0,-13.0,10.0,1651025608881915.0
5.0,11.0,8.0,14.0,1.0,-4.0,36.0,-2.0,1651025608881915.0
2.0,0.0,-2.0,6.0,9.0,17.0,3.0,7.0,1651025608903819.0
32.0,12.0,6.0,-9.0,-9.0,-11.0,-11.0,6.0,1651025608903819.0
-6.0,-4.0,-4.0,1.0,-1.0,-21.0,1.0,2.0,1651025608904810.0
9.0,-4.0,4.0,18.0,3.0,6.0,-8.0,-8.0,1651025608904810.0
23.0,10.0,-8.0,-45.0,-7.0,19.0,11.0,6.0,1651025608926782.0
-25.0,-17.0,2.0,41.0,12.0,4.0,-27.0,-10.0,1651025608926782.0
3.0,8.0,-9.0,-42.0,-22.0,-14.0,-13.0,-1.0,1651025608927750.0
-8.0,4.0,18.0,48.0,19.0,4.0,17.0,-3.0,1651025608927750.0
12.0,-17.0,-5.0,-5.0,4.0,-1.0,-3.0,-1.0,1651025608940715.0
10.0,20.0,-2.0,-6.0,-1.0,-5.0,13.0,16.0,1651025608940715.0
-3.0,-4.0,1.0,-12.0,-3.0,9.0,-4.0,-7.0,1651025608948693.0
-2.0,0.0,-5.0,5.0,8.0,-6.0,-19.0,-7.0,1651025608948693.0
-24.0,0.0,1.0,-16.0,-5.0,4.0,6.0,-1.0,1651025608963654.0
22.0,15.0,5.0,0.0,1.0,4.0,10.0,-1.0,1651025608963654.0
-33.0,-22.0,-12.0,-35.0,-22.0,-14.0,-17.0,-14.0,1651025608964685.0
45.0,8.0,19.0,23.0,9.0,6.0,-7.0,17.0,1651025608964685.0
-20.0,-4.0,9.0,57.0,22.0,1.0,-12.0,-10.0,1651025608987628.0
-12.0,-9.0,-9.0,-15.0,-6.0,2.0,36.0,8.0,1651025608987628.0
26.0,14.0,1.0,3.0,10.0,21.0,43.0,13.0,1651025608988622.0
-21.0,-2.0,-4.0,-36.0,-24.0,-28.0,-84.0,-14.0,1651025608988622.0
11.0,-7.0,0.0,23.0,6.0,-11.0,3.0,-11.0,1651025609000556.0
-11.0,-6.0,-5.0,-9.0,3.0,-5.0,-17.0,1.0,1651025609000556.0
-7.0,-3.0,5.0,9.0,3.0,5.0,13.0,0.0,1651025609008534.0
10.0,-1.0,-11.0,-5.0,-2.0,17.0,32.0,17.0,1651025609008534.0
-17.0,-26.0,3.0,15.0,-5.0,-8.0,8.0,-4.0,1651025609023527.0
6.0,10.0,-8.0,-28.0,0.0,6.0,16.0,2.0,1651025609023527.0
10.0,8.0,-9.0,-19.0,-4.0,-11.0,-32.0,-4.0,1651025609024492.0
4.0,-12.0,12.0,63.0,15.0,4.0,13.0,8.0,1651025609024492.0
-13.0,4.0,-10.0,-38.0,-17.0,-5.0,-6.0,-7.0,1651025609047468.0
4.0,0.0,2.0,11.0,9.0,3.0,27.0,13.0,1651025609047468.0
8.0,6.0,-5.0,-4.0,-1.0,-7.0,-39.0,-18.0,1651025609047468.0
-2.0,-4.0,-2.0,-27.0,-10.0,3.0,14.0,6.0,1651025609047468.0
-24.0,4.0,-8.0,0.0,-1.0,5.0,28.0,-3.0,1651025609060434.0
-12.0,-12.0,-2.0,1.0,0.0,1.0,-47.0,-6.0,1651025609060434.0
15.0,3.0,2.0,16.0,-4.0,-18.0,-10.0,-2.0,1651025609068373.0
5.0,-2.0,-3.0,-7.0,-1.0,-2.0,5.0,-1.0,1651025609068373.0
-7.0,-2.0,9.0,5.0,-4.0,-3.0,7.0,-4.0,1651025609083408.0
-28.0,3.0,-10.0,-25.0,-11.0,-1.0,-1.0,-13.0,1651025609083408.0
-4.0,7.0,-1.0,9.0,8.0,8.0,4.0,12.0,1651025609084420.0
21.0,-8.0,5.0,1.0,-3.0,-11.0,-4.0,-19.0,1651025609084420.0
3.0,8.0,3.0,-2.0,7.0,14.0,21.0,8.0,1651025609106895.0
0.0,-5.0,-19.0,-34.0,-18.0,-10.0,-7.0,1.0,1651025609106895.0
-11.0,13.0,34.0,70.0,20.0,1.0,-36.0,-2.0,1651025609107873.0
31.0,-16.0,-23.0,-30.0,-4.0,3.0,50.0,10.0,1651025609107873.0
2.0,4.0,13.0,-14.0,-4.0,0.0,-54.0,-8.0,1651025609120876.0
3.0,-3.0,-2.0,66.0,23.0,-8.0,-15.0,-8.0,1651025609120876.0
9.0,-1.0,-6.0,-21.0,-13.0,-2.0,21.0,4.0,1651025609128854.0
-22.0,-4.0,-6.0,-8.0,-4.0,-1.0,-5.0,2.0,1651025609128854.0
9.0,-5.0,-15.0,-4.0,2.0,1.0,10.0,-1.0,1651025609144778.0
11.0,6.0,2.0,-23.0,-14.0,9.0,20.0,12.0,1651025609144778.0
-7.0,-6.0,10.0,28.0,17.0,3.0,7.0,2.0,1651025609144778.0
-24.0,7.0,6.0,23.0,17.0,-5.0,-38.0,-19.0,1651025609144778.0
3.0,-1.0,-3.0,-8.0,-5.0,1.0,17.0,17.0,1651025609166743.0
3.0,13.0,11.0,-13.0,-2.0,7.0,-1.0,7.0,1651025609166743.0
10.0,-3.0,-13.0,-18.0,-10.0,-1.0,8.0,-3.0,1651025609167712.0
-31.0,1.0,-4.0,-34.0,-11.0,-7.0,32.0,6.0,1651025609167712.0
-14.0,-4.0,1.0,13.0,-4.0,-14.0,-68.0,-16.0,1651025609180702.0
2.0,-9.0,6.0,12.0,7.0,2.0,-21.0,-5.0,1651025609180702.0
-5.0,-4.0,-4.0,-9.0,4.0,6.0,9.0,5.0,1651025609188694.0
-19.0,4.0,2.0,10.0,0.0,-4.0,-13.0,-10.0,1651025609188694.0
20.0,3.0,-10.0,-23.0,-8.0,-14.0,16.0,-3.0,1651025609203615.0
2.0,-7.0,4.0,-2.0,-5.0,11.0,41.0,10.0,1651025609203615.0
-8.0,-3.0,-10.0,-6.0,1.0,-6.0,-50.0,-24.0,1651025609204613.0
-20.0,6.0,-3.0,-20.0,-9.0,2.0,-10.0,4.0,1651025609204613.0
34.0,2.0,0.0,15.0,14.0,5.0,9.0,6.0,1651025609226894.0
-9.0,-4.0,9.0,24.0,4.0,-1.0,-4.0,-9.0,1651025609226894.0
13.0,8.0,-3.0,-14.0,-11.0,-5.0,24.0,7.0,1651025609227903.0
-4.0,-10.0,-5.0,-29.0,-9.0,1.0,-15.0,0.0,1651025609227903.0
-14.0,-5.0,11.0,40.0,2.0,1.0,6.0,-1.0,1651025609240857.0
13.0,3.0,-10.0,-14.0,1.0,-4.0,-13.0,2.0,1651025609240857.0
-18.0,-13.0,-7.0,-12.0,4.0,-1.0,13.0,-3.0,1651025609248835.0
21.0,8.0,7.0,22.0,6.0,3.0,-2.0,7.0,1651025609248835.0
-6.0,-1.0,-4.0,-28.0,-1.0,26.0,84.0,14.0,1651025609263795.0
-9.0,-1.0,4.0,4.0,-14.0,-21.0,-87.0,-28.0,1651025609263795.0
7.0,5.0,0.0,6.0,-4.0,-1.0,12.0,3.0,1651025609264793.0
3.0,-2.0,1.0,8.0,7.0,4.0,13.0,-5.0,1651025609264793.0
-17.0,-9.0,-8.0,-20.0,-3.0,-9.0,2.0,1.0,1651025609286772.0
-3.0,-9.0,-13.0,-27.0,-13.0,-7.0,7.0,0.0,1651025609286772.0
5.0,0.0,18.0,30.0,5.0,1.0,8.0,2.0,1651025609287731.0
-15.0,1.0,-7.0,-37.0,-10.0,17.0,-6.0,-5.0,1651025609287731.0
-8.0,9.0,15.0,47.0,19.0,-4.0,-13.0,-2.0,1651025609300696.0
2.0,-4.0,-6.0,-6.0,-3.0,-11.0,9.0,-1.0,1651025609300696.0
-3.0,1.0,-11.0,-31.0,-7.0,-5.0,-11.0,2.0,1651025609308676.0
3.0,2.0,14.0,30.0,-3.0,-6.0,-2.0,-5.0,1651025609308676.0
-8.0,-9.0,-6.0,-2.0,1.0,10.0,-9.0,-4.0,1651025609323648.0
-54.0,20.0,10.0,5.0,6.0,7.0,83.0,7.0,1651025609323648.0
49.0,-26.0,-7.0,-6.0,7.0,1.0,-89.0,-8.0,1651025609324633.0
14.0,10.0,4.0,9.0,1.0,3.0,15.0,15.0,1651025609324633.0
-18.0,3.0,-1.0,-12.0,-9.0,-10.0,-25.0,-14.0,1651025609346574.0
7.0,1.0,-3.0,-1.0,-2.0,-1.0,36.0,9.0,1651025609346574.0
-35.0,7.0,-7.0,-16.0,-5.0,7.0,0.0,-11.0,1651025609347572.0
20.0,5.0,6.0,8.0,10.0,0.0,-5.0,9.0,1651025609347572.0
47.0,-6.0,6.0,20.0,1.0,11.0,-16.0,10.0,1651025609369551.0
-13.0,-6.0,4.0,-3.0,-7.0,-15.0,1.0,-6.0,1651025609369551.0
-31.0,-5.0,-1.0,24.0,17.0,10.0,31.0,6.0,1651025609370533.0
2.0,-9.0,-12.0,-17.0,-1.0,-11.0,-31.0,-15.0,1651025609370533.0
-7.0,12.0,-26.0,-87.0,-29.0,-10.0,9.0,-4.0,1651025609383484.0
25.0,8.0,53.0,94.0,30.0,19.0,4.0,12.0,1651025609383484.0
-4.0,2.0,0.0,-13.0,-7.0,-6.0,-5.0,-5.0,1651025609384472.0
-7.0,-6.0,4.0,23.0,17.0,1.0,9.0,0.0,1651025609384472.0
21.0,7.0,0.0,-10.0,5.0,2.0,2.0,7.0,1651025609406415.0
-5.0,-10.0,-23.0,-23.0,-7.0,-4.0,-23.0,-11.0,1651025609406415.0
-14.0,1.0,1.0,-6.0,-18.0,-16.0,4.0,-5.0,1651025609407411.0
6.0,-6.0,1.0,7.0,3.0,25.0,19.0,8.0,1651025609407411.0
0.0,-29.0,-5.0,8.0,0.0,-10.0,-18.0,-13.0,1651025609429372.0
17.0,12.0,-4.0,-19.0,-7.0,2.0,-14.0,4.0,1651025609429372.0
-14.0,-17.0,5.0,20.0,7.0,2.0,23.0,-8.0,1651025609430350.0
7.0,10.0,-12.0,-13.0,-10.0,-6.0,0.0,3.0,1651025609430350.0
-12.0,8.0,5.0,-7.0,-3.0,-2.0,-7.0,-1.0,1651025609443340.0
13.0,-3.0,-3.0,16.0,11.0,2.0,-3.0,-2.0,1651025609443340.0
-7.0,5.0,9.0,10.0,5.0,2.0,13.0,4.0,1651025609444312.0
-3.0,-3.0,1.0,10.0,3.0,-2.0,-8.0,-5.0,1651025609444312.0
-3.0,-1.0,-4.0,-2.0,-6.0,-6.0,-8.0,-5.0,1651025609466447.0
0.0,-1.0,-10.0,-29.0,-11.0,-9.0,-1.0,4.0,1651025609466447.0
9.0,8.0,3.0,1.0,1.0,-4.0,5.0,5.0,1651025609467383.0
-3.0,-6.0,0.0,12.0,11.0,25.0,2.0,-3.0,1651025609467383.0
-4.0,6.0,6.0,10.0,-5.0,-26.0,-1.0,3.0,1651025609489940.0
3.0,-1.0,-8.0,-13.0,-8.0,-29.0,-23.0,-6.0,1651025609489940.0
1.0,-1.0,-3.0,-6.0,5.0,46.0,15.0,6.0,1651025609489940.0
1.0,-2.0,1.0,0.0,-6.0,-6.0,6.0,4.0,1651025609489940.0
-7.0,0.0,0.0,6.0,6.0,7.0,0.0,-4.0,1651025609503892.0
1.0,-2.0,1.0,-6.0,-6.0,7.0,2.0,0.0,1651025609503892.0
3.0,2.0,-1.0,-5.0,-6.0,-22.0,-10.0,-2.0,1651025609504890.0
-3.0,1.0,1.0,3.0,2.0,-7.0,-3.0,-4.0,1651025609504890.0
-1.0,3.0,2.0,8.0,2.0,-6.0,-3.0,3.0,1651025609526512.0
3.0,-1.0,-2.0,-10.0,-18.0,-8.0,-6.0,1.0,1651025609526512.0
-2.0,-3.0,-1.0,1.0,14.0,5.0,5.0,2.0,1651025609527512.0
0.0,-1.0,3.0,1.0,5.0,2.0,0.0,0.0,1651025609527512.0
0.0,-5.0,-11.0,8.0,3.0,2.0,0.0,1.0,1651025609550004.0
-1.0,-5.0,0.0,-14.0,-20.0,-3.0,2.0,-3.0,1651025609550004.0
0.0,2.0,-4.0,-3.0,8.0,16.0,7.0,1.0,1651025609550004.0
-4.0,2.0,8.0,7.0,3.0,-8.0,-5.0,-4.0,1651025609550004.0
1.0,11.0,13.0,6.0,9.0,2.0,0.0,-1.0,1651025609564398.0
1.0,-3.0,-1.0,-1.0,2.0,12.0,5.0,1.0,1651025609564398.0
4.0,1.0,16.0,-3.0,-29.0,-25.0,-1.0,5.0,1651025609564398.0
0.0,8.0,1.0,5.0,15.0,2.0,-6.0,-2.0,1651025609564398.0
-6.0,-21.0,-53.0,-13.0,-4.0,7.0,0.0,-11.0,1651025609586418.0
-1.0,2.0,-3.0,-5.0,6.0,6.0,3.0,10.0,1651025609586418.0
0.0,2.0,7.0,5.0,-4.0,-4.0,-1.0,0.0,1651025609587388.0
1.0,2.0,14.0,2.0,4.0,-8.0,-1.0,1.0,1651025609587388.0
3.0,10.0,9.0,-1.0,-8.0,3.0,-2.0,-7.0,1651025609609394.0
-5.0,-7.0,-9.0,-2.0,4.0,-1.0,0.0,6.0,1651025609609394.0
-2.0,1.0,1.0,9.0,2.0,-3.0,-1.0,-2.0,1651025609610333.0
-2.0,-22.0,-5.0,-3.0,-6.0,-2.0,1.0,2.0,1651025609610333.0
-1.0,18.0,8.0,-2.0,1.0,-2.0,-3.0,1.0,1651025609624293.0
1.0,-6.0,-13.0,-4.0,3.0,1.0,-3.0,-4.0,1651025609624293.0
2.0,-1.0,3.0,1.0,-5.0,2.0,3.0,2.0,1651025609624293.0
-5.0,-7.0,-11.0,-2.0,-2.0,2.0,-2.0,-3.0,1651025609624293.0
1.0,8.0,29.0,11.0,10.0,3.0,2.0,5.0,1651025609646416.0
2.0,-19.0,-13.0,1.0,6.0,1.0,6.0,5.0,1651025609646416.0
3.0,38.0,5.0,-6.0,-7.0,4.0,-4.0,-7.0,1651025609647385.0
-5.0,-17.0,-23.0,-10.0,-12.0,-7.0,-1.0,-4.0,1651025609647385.0
0.0,-11.0,-9.0,-4.0,-1.0,1.0,-8.0,-13.0,1651025609669394.0
1.0,14.0,14.0,11.0,8.0,0.0,2.0,12.0,1651025609669394.0
-7.0,-31.0,-11.0,-3.0,-2.0,2.0,-3.0,-5.0,1651025609670323.0
3.0,1.0,-14.0,-11.0,-17.0,-10.0,1.0,5.0,1651025609670323.0
-6.0,-9.0,9.0,3.0,23.0,10.0,7.0,11.0,1651025609684347.0
1.0,5.0,6.0,3.0,-3.0,3.0,-7.0,-21.0,1651025609684347.0
3.0,-4.0,-15.0,-5.0,-11.0,-12.0,0.0,7.0,1651025609684856.0
0.0,14.0,23.0,6.0,-4.0,0.0,-6.0,0.0,1651025609684856.0
-6.0,-21.0,-6.0,-1.0,-6.0,-1.0,-1.0,-6.0,1651025609706819.0
1.0,13.0,4.0,2.0,15.0,1.0,0.0,-6.0,1651025609706819.0
2.0,-2.0,17.0,5.0,5.0,4.0,1.0,2.0,1651025609706819.0
2.0,13.0,-17.0,1.0,-6.0,-5.0,-8.0,-7.0,1651025609706819.0
2.0,-4.0,-19.0,-17.0,-10.0,2.0,2.0,9.0,1651025609729976.0
-2.0,-4.0,-4.0,-3.0,1.0,4.0,18.0,7.0,1651025609729976.0
-2.0,-2.0,-3.0,-7.0,-2.0,-3.0,-24.0,-3.0,1651025609729976.0
2.0,7.0,19.0,3.0,-2.0,-2.0,-18.0,-21.0,1651025609729976.0
-4.0,-13.0,-3.0,10.0,7.0,0.0,1.0,-2.0,1651025609743593.0
-2.0,12.0,7.0,-3.0,-5.0,0.0,-4.0,2.0,1651025609743593.0
2.0,4.0,4.0,3.0,12.0,1.0,6.0,-1.0,1651025609744593.0
2.0,1.0,5.0,10.0,5.0,2.0,7.0,-4.0,1651025609744593.0
-1.0,-6.0,-26.0,-14.0,-13.0,-3.0,2.0,16.0,1651025609766599.0
0.0,7.0,6.0,-3.0,-1.0,0.0,-6.0,-10.0,1651025609766599.0
-4.0,-14.0,-15.0,-5.0,-4.0,0.0,6.0,5.0,1651025609767555.0
1.0,19.0,10.0,-2.0,1.0,0.0,2.0,5.0,1651025609767555.0
-2.0,-4.0,18.0,10.0,-3.0,2.0,8.0,0.0,1651025609789969.0
1.0,-6.0,-11.0,-2.0,-2.0,-3.0,-4.0,0.0,1651025609789969.0
4.0,6.0,19.0,6.0,9.0,2.0,5.0,0.0,1651025609789969.0
-1.0,-12.0,9.0,-2.0,-10.0,0.0,-2.0,1.0,1651025609789969.0
0.0,16.0,-33.0,-8.0,17.0,2.0,-4.0,-3.0,1651025609803881.0
6.0,-2.0,6.0,2.0,0.0,4.0,8.0,12.0,1651025609803881.0
-4.0,-12.0,-21.0,-8.0,-6.0,-3.0,-12.0,-20.0,1651025609804993.0
0.0,-2.0,3.0,-5.0,-20.0,-5.0,6.0,10.0,1651025609804993.0
3.0,17.0,24.0,3.0,6.0,-3.0,-1.0,-6.0,1651025609826846.0
-5.0,-25.0,-18.0,1.0,12.0,3.0,-4.0,-2.0,1651025609826846.0
5.0,30.0,28.0,11.0,4.0,5.0,4.0,1.0,1651025609826846.0
-2.0,4.0,-7.0,7.0,-1.0,-4.0,3.0,4.0,1651025609826846.0
5.0,-2.0,-9.0,-18.0,-7.0,-1.0,-4.0,3.0,1651025609849666.0
-2.0,11.0,5.0,-5.0,-2.0,1.0,-1.0,-8.0,1651025609849666.0
-13.0,-48.0,-38.0,-9.0,-2.0,-2.0,4.0,2.0,1651025609850597.0
1.0,5.0,34.0,7.0,6.0,-1.0,-4.0,0.0,1651025609850597.0
2.0,19.0,17.0,12.0,-8.0,-2.0,1.0,-8.0,1651025609863528.0
8.0,10.0,2.0,3.0,-5.0,-3.0,-10.0,2.0,1651025609863528.0
-4.0,-17.0,-27.0,-13.0,0.0,-1.0,1.0,-3.0,1651025609871574.0
-6.0,-32.0,-34.0,-14.0,4.0,-2.0,11.0,10.0,1651025609871574.0
8.0,49.0,32.0,9.0,1.0,0.0,-8.0,-2.0,1651025609886469.0
0.0,8.0,16.0,-1.0,-17.0,-5.0,1.0,0.0,1651025609886469.0
2.0,10.0,2.0,5.0,16.0,-1.0,-4.0,-4.0,1651025609887494.0
2.0,-12.0,2.0,5.0,9.0,8.0,7.0,-1.0,1651025609887494.0
-5.0,-16.0,-9.0,3.0,-3.0,1.0,9.0,8.0,1651025609909334.0
-8.0,-13.0,-14.0,-9.0,-8.0,-5.0,-9.0,-12.0,1651025609909334.0
3.0,11.0,10.0,-2.0,-13.0,-4.0,7.0,15.0,1651025609910269.0
2.0,27.0,-5.0,-6.0,7.0,0.0,-4.0,-6.0,1651025609910269.0
-4.0,-43.0,11.0,7.0,-5.0,-2.0,0.0,1.0,1651025609924363.0
-2.0,41.0,-1.0,8.0,8.0,-1.0,0.0,2.0,1651025609924363.0
-8.0,-43.0,-12.0,-4.0,-4.0,-1.0,-2.0,-14.0,1651025609924363.0
-3.0,11.0,-21.0,-27.0,-13.0,-5.0,-4.0,5.0,1651025609924363.0
1.0,-11.0,-7.0,1.0,-9.0,-2.0,-1.0,0.0,1651025609945989.0
1.0,-4.0,13.0,0.0,12.0,1.0,-5.0,-4.0,1651025609945989.0
4.0,27.0,7.0,7.0,0.0,2.0,0.0,0.0,1651025609946920.0
2.0,-5.0,-14.0,4.0,-6.0,-2.0,-2.0,-3.0,1651025609946920.0
-9.0,-12.0,14.0,3.0,1.0,0.0,-3.0,-2.0,1651025609970016.0
2.0,-21.0,-14.0,-5.0,2.0,3.0,6.0,4.0,1651025609970016.0
-6.0,16.0,6.0,-2.0,0.0,-2.0,0.0,4.0,1651025609970016.0
-5.0,-1.0,12.0,0.0,0.0,1.0,-5.0,-3.0,1651025609970016.0
0.0,-2.0,-3.0,-1.0,-7.0,-5.0,-1.0,-1.0,1651025609983011.0
0.0,-5.0,8.0,-1.0,-19.0,-1.0,0.0,-2.0,1651025609983011.0
2.0,12.0,3.0,2.0,25.0,7.0,-2.0,-1.0,1651025609990995.0
-4.0,-6.0,-10.0,1.0,4.0,0.0,0.0,-1.0,1651025609990995.0
3.0,6.0,10.0,5.0,-6.0,-1.0,1.0,-2.0,1651025610005920.0
-2.0,-22.0,-25.0,-1.0,8.0,3.0,1.0,1.0,1651025610005920.0
0.0,9.0,0.0,-7.0,-16.0,-4.0,1.0,4.0,1651025610006918.0
-1.0,-5.0,7.0,0.0,2.0,-1.0,-2.0,-1.0,1651025610006918.0
-1.0,3.0,-15.0,-5.0,3.0,-1.0,-1.0,1.0,1651025610029927.0
-4.0,-11.0,8.0,-2.0,-7.0,-2.0,0.0,2.0,1651025610029927.0
1.0,-22.0,1.0,-4.0,-3.0,-3.0,1.0,2.0,1651025610029927.0
-5.0,-10.0,-29.0,-4.0,6.0,0.0,-1.0,-2.0,1651025610029927.0
1.0,-17.0,7.0,1.0,-3.0,0.0,0.0,-1.0,1651025610043539.0
10.0,49.0,0.0,-1.0,4.0,1.0,1.0,2.0,1651025610043539.0
-7.0,-11.0,3.0,-2.0,-5.0,-2.0,-1.0,-3.0,1651025610051587.0
-4.0,0.0,1.0,1.0,-7.0,-3.0,-2.0,-6.0,1651025610051587.0
4.0,4.0,-10.0,-3.0,4.0,2.0,0.0,3.0,1651025610066547.0
-9.0,-21.0,-9.0,-3.0,-2.0,0.0,-2.0,-3.0,1651025610066547.0
9.0,-1.0,10.0,9.0,13.0,2.0,0.0,3.0,1651025610067477.0
12.0,45.0,23.0,4.0,-9.0,-3.0,-2.0,2.0,1651025610067477.0
-19.0,-15.0,-24.0,-11.0,-19.0,-6.0,-7.0,-9.0,1651025610089488.0
17.0,13.0,16.0,6.0,14.0,11.0,4.0,7.0,1651025610089488.0
-12.0,8.0,-15.0,-2.0,10.0,0.0,-3.0,-4.0,1651025610090420.0
4.0,9.0,25.0,3.0,-8.0,0.0,6.0,3.0,1651025610090420.0
0.0,-12.0,-13.0,3.0,8.0,-1.0,-6.0,-5.0,1651025610103557.0
4.0,38.0,6.0,-4.0,-9.0,-4.0,-2.0,-3.0,1651025610103557.0
-1.0,-27.0,-5.0,-2.0,-14.0,-5.0,3.0,3.0,1651025610111603.0
-3.0,-44.0,-26.0,-7.0,9.0,2.0,0.0,-1.0,1651025610111603.0
7.0,53.0,35.0,6.0,-1.0,1.0,2.0,3.0,1651025610126565.0
-7.0,-26.0,-2.0,1.0,0.0,-1.0,-2.0,-1.0,1651025610126565.0
9.0,24.0,-3.0,-2.0,0.0,1.0,-3.0,-3.0,1651025610127493.0
-8.0,-13.0,5.0,-4.0,-2.0,-1.0,0.0,-1.0,1651025610127493.0
-3.0,-7.0,-3.0,-4.0,-15.0,-11.0,-1.0,-2.0,1651025610149958.0
-7.0,-12.0,16.0,7.0,16.0,7.0,-1.0,1.0,1651025610149958.0
5.0,9.0,-9.0,0.0,-1.0,1.0,3.0,2.0,1651025610149958.0
-4.0,-6.0,-3.0,-2.0,-4.0,-3.0,0.0,-2.0,1651025610149958.0
4.0,7.0,2.0,0.0,5.0,2.0,0.0,1.0,1651025610162924.0
-7.0,-22.0,-19.0,-4.0,-7.0,-7.0,-2.0,-5.0,1651025610162924.0
6.0,44.0,45.0,6.0,-6.0,0.0,-1.0,0.0,1651025610171852.0
-3.0,-40.0,-36.0,0.0,4.0,1.0,-1.0,-1.0,1651025610171852.0
6.0,24.0,6.0,2.0,9.0,2.0,3.0,3.0,1651025610186845.0
-5.0,-13.0,9.0,2.0,-3.0,-4.0,-3.0,-2.0,1651025610186845.0
4.0,5.0,-1.0,4.0,0.0,2.0,2.0,4.0,1651025610186845.0
-2.0,-4.0,-2.0,-7.0,-15.0,-7.0,-2.0,-2.0,1651025610186845.0
-4.0,-20.0,2.0,0.0,14.0,4.0,-1.0,0.0,1651025610210004.0
3.0,23.0,1.0,2.0,8.0,1.0,2.0,1.0,1651025610210004.0
-6.0,-21.0,-4.0,1.0,-10.0,0.0,-1.0,-1.0,1651025610210004.0
10.0,38.0,13.0,3.0,6.0,1.0,0.0,2.0,1651025610210004.0
-9.0,7.0,5.0,-1.0,-10.0,-2.0,1.0,-3.0,1651025610223545.0
0.0,-15.0,-7.0,-3.0,-6.0,-3.0,0.0,-3.0,1651025610223545.0
6.0,1.0,-13.0,-3.0,-1.0,-1.0,1.0,4.0,1651025610231593.0
-2.0,-37.0,-2.0,3.0,1.0,1.0,0.0,-1.0,1651025610231593.0
2.0,15.0,0.0,-2.0,1.0,2.0,-2.0,1.0,1651025610245971.0
-3.0,-6.0,19.0,2.0,2.0,-2.0,-1.0,-1.0,1651025610245971.0
2.0,0.0,-32.0,-5.0,-2.0,-1.0,1.0,2.0,1651025610246901.0
-4.0,-11.0,-11.0,-4.0,-1.0,0.0,-2.0,-1.0,1651025610246901.0
1.0,-1.0,4.0,0.0,5.0,1.0,0.0,-2.0,1651025610269249.0
0.0,6.0,0.0,-1.0,0.0,-1.0,2.0,2.0,1651025610269249.0
-2.0,7.0,10.0,-1.0,-3.0,1.0,-1.0,-1.0,1651025610270176.0
0.0,10.0,6.0,9.0,1.0,0.0,-2.0,-1.0,1651025610270176.0
-1.0,-12.0,-5.0,-1.0,2.0,-2.0,-1.0,-1.0,1651025610283268.0
-5.0,5.0,-9.0,-2.0,0.0,-1.0,-3.0,-2.0,1651025610283268.0
6.0,24.0,21.0,4.0,-3.0,-1.0,0.0,2.0,1651025610291311.0
-11.0,-15.0,-5.0,-2.0,1.0,2.0,0.0,-4.0,1651025610291311.0
0.0,4.0,-9.0,-6.0,-6.0,-1.0,-1.0,-1.0,1651025610306310.0
4.0,8.0,0.0,-5.0,-4.0,-2.0,-1.0,1.0,1651025610306310.0
-3.0,-23.0,-9.0,-2.0,3.0,-1.0,-2.0,-2.0,1651025610307239.0
3.0,4.0,17.0,7.0,6.0,2.0,2.0,3.0,1651025610307239.0
-2.0,-9.0,-1.0,-4.0,-5.0,-4.0,-2.0,-4.0,1651025610329402.0
-2.0,-18.0,-12.0,-5.0,-1.0,1.0,0.0,-2.0,1651025610329402.0
-8.0,-17.0,6.0,6.0,-2.0,-1.0,-1.0,1.0,1651025610330357.0
4.0,31.0,2.0,5.0,1.0,0.0,0.0,0.0,1651025610330357.0
1.0,-4.0,-8.0,-3.0,-1.0,0.0,2.0,0.0,1651025610352492.0
1.0,-12.0,-1.0,-3.0,-2.0,-1.0,0.0,1.0,1651025610352492.0
-1.0,18.0,-6.0,-8.0,-5.0,-4.0,-3.0,-4.0,1651025610352492.0
4.0,-10.0,9.0,-1.0,2.0,2.0,0.0,-1.0,1651025610352492.0
1.0,14.0,-2.0,-2.0,-3.0,-1.0,0.0,0.0,1651025610366528.0
5.0,-24.0,-9.0,1.0,-6.0,-2.0,0.0,1.0,1651025610366528.0
0.0,23.0,8.0,4.0,18.0,2.0,-1.0,-3.0,1651025610374437.0
0.0,9.0,-2.0,-4.0,-6.0,-3.0,-1.0,2.0,1651025610374437.0
-1.0,-10.0,0.0,3.0,6.0,2.0,1.0,1.0,1651025610389570.0
-3.0,-11.0,-4.0,-4.0,-7.0,0.0,-1.0,0.0,1651025610389570.0
1.0,-5.0,-11.0,-3.0,-5.0,-1.0,2.0,1.0,1651025610390497.0
-3.0,7.0,3.0,-7.0,-3.0,-3.0,-4.0,-7.0,1651025610390497.0
3.0,5.0,13.0,5.0,-1.0,0.0,0.0,2.0,1651025610412007.0
-3.0,-3.0,-16.0,-3.0,1.0,-4.0,-2.0,-1.0,1651025610412007.0
-14.0,-10.0,-6.0,-6.0,-5.0,-3.0,-4.0,-6.0,1651025610412938.0
2.0,10.0,12.0,-4.0,-7.0,-1.0,-2.0,0.0,1651025610412938.0
0.0,-14.0,-21.0,-13.0,10.0,-1.0,-1.0,0.0,1651025610426853.0
-1.0,10.0,5.0,12.0,2.0,1.0,0.0,-1.0,1651025610426853.0
2.0,-6.0,3.0,6.0,0.0,2.0,0.0,1.0,1651025610426853.0
4.0,28.0,10.0,3.0,0.0,2.0,0.0,1.0,1651025610426853.0
-7.0,-53.0,-10.0,-5.0,-7.0,-1.0,0.0,-1.0,1651025610449873.0
-1.0,20.0,-5.0,-8.0,-2.0,-9.0,-2.0,0.0,1651025610449873.0
0.0,-15.0,3.0,-3.0,0.0,4.0,0.0,-4.0,1651025610449873.0
0.0,-5.0,3.0,7.0,3.0,1.0,2.0,1.0,1651025610449873.0
8.0,36.0,7.0,4.0,3.0,0.0,1.0,1.0,1651025610471854.0
-5.0,-12.0,-1.0,-1.0,-1.0,0.0,-1.0,-2.0,1651025610471854.0
3.0,-14.0,-5.0,2.0,-6.0,-2.0,-1.0,2.0,1651025610472783.0
-1.0,-3.0,-2.0,-3.0,5.0,3.0,0.0,-3.0,1651025610472783.0
-1.0,15.0,-3.0,-1.0,-4.0,-1.0,-3.0,-1.0,1651025610486808.0
4.0,1.0,1.0,-1.0,-4.0,1.0,-1.0,0.0,1651025610486808.0
-6.0,10.0,1.0,-3.0,-3.0,-3.0,-4.0,-4.0,1651025610486808.0
-3.0,-10.0,-1.0,1.0,1.0,1.0,0.0,1.0,1651025610486808.0
-6.0,-5.0,-11.0,-2.0,-9.0,-1.0,-3.0,-4.0,1651025610509745.0
-3.0,1.0,2.0,1.0,16.0,2.0,0.0,-2.0,1651025610509745.0
-1.0,-19.0,-6.0,-4.0,-5.0,-1.0,-2.0,0.0,1651025610510742.0
3.0,30.0,1.0,-1.0,-1.0,-2.0,-3.0,-3.0,1651025610510742.0
-3.0,-7.0,-6.0,4.0,-3.0,-2.0,-2.0,0.0,1651025610531863.0
-8.0,-8.0,-12.0,-5.0,-6.0,-2.0,0.0,-3.0,1651025610531863.0
3.0,-4.0,1.0,-9.0,0.0,0.0,0.0,-1.0,1651025610532808.0
-4.0,-33.0,-30.0,-11.0,-5.0,-4.0,1.0,-1.0,1651025610532808.0
1.0,8.0,31.0,28.0,7.0,2.0,-1.0,0.0,1651025610546812.0
2.0,3.0,-6.0,3.0,7.0,4.0,3.0,0.0,1651025610546812.0
-1.0,-5.0,-10.0,4.0,1.0,0.0,1.0,2.0,1651025610546812.0
-3.0,-6.0,3.0,-4.0,-2.0,1.0,-1.0,0.0,1651025610546812.0
-4.0,-24.0,-17.0,-12.0,-2.0,-1.0,1.0,-2.0,1651025610569760.0
-3.0,6.0,5.0,-1.0,-6.0,-4.0,-2.0,-2.0,1651025610569760.0
0.0,-11.0,-1.0,2.0,-3.0,-1.0,-1.0,1.0,1651025610570719.0
1.0,6.0,1.0,-1.0,1.0,1.0,0.0,1.0,1651025610570719.0
2.0,3.0,2.0,-2.0,1.0,1.0,0.0,0.0,1651025610591956.0
3.0,-4.0,5.0,2.0,-6.0,-4.0,-2.0,-1.0,1651025610591956.0
1.0,1.0,2.0,-5.0,-1.0,3.0,0.0,0.0,1651025610592885.0
-4.0,4.0,0.0,2.0,4.0,0.0,0.0,-3.0,1651025610592885.0
0.0,-2.0,-8.0,-2.0,0.0,-1.0,0.0,1.0,1651025610606759.0
4.0,36.0,9.0,0.0,-2.0,-1.0,0.0,0.0,1651025610606759.0
-8.0,-22.0,14.0,2.0,-1.0,-1.0,-2.0,-2.0,1651025610606759.0
5.0,0.0,-12.0,1.0,0.0,-2.0,-2.0,0.0,1651025610606759.0
3.0,11.0,2.0,-6.0,-2.0,1.0,-1.0,0.0,1651025610629919.0
-4.0,4.0,5.0,-7.0,-11.0,-2.0,-1.0,0.0,1651025610629919.0
-2.0,-2.0,-8.0,3.0,-6.0,-3.0,-1.0,-1.0,1651025610629919.0
4.0,17.0,17.0,7.0,18.0,3.0,1.0,2.0,1651025610629919.0
-7.0,-10.0,-3.0,-2.0,-1.0,-1.0,-1.0,-3.0,1651025610652802.0
1.0,11.0,-3.0,-2.0,-3.0,0.0,-1.0,1.0,1651025610652802.0
5.0,3.0,1.0,-2.0,-2.0,-1.0,1.0,2.0,1651025610653792.0
-1.0,20.0,1.0,-1.0,-9.0,-4.0,-1.0,-1.0,1651025610653792.0
0.0,-12.0,-5.0,-5.0,0.0,-1.0,-1.0,0.0,1651025610665953.0
-9.0,-29.0,-8.0,-1.0,-3.0,0.0,0.0,-2.0,1651025610665953.0
-4.0,30.0,8.0,-1.0,0.0,-1.0,-1.0,-5.0,1651025610666953.0
0.0,7.0,2.0,5.0,2.0,1.0,-1.0,-1.0,1651025610666953.0
1.0,1.0,7.0,3.0,1.0,0.0,0.0,0.0,1651025610689249.0
0.0,-9.0,1.0,2.0,2.0,0.0,0.0,-1.0,1651025610689249.0
4.0,6.0,6.0,1.0,0.0,-1.0,0.0,2.0,1651025610690184.0
-4.0,-17.0,-9.0,-6.0,-2.0,-1.0,-1.0,0.0,1651025610690184.0
-2.0,2.0,12.0,3.0,-2.0,0.0,-2.0,-1.0,1651025610711968.0
4.0,18.0,-10.0,-9.0,-4.0,-1.0,-4.0,-1.0,1651025610711968.0
0.0,-4.0,-2.0,2.0,4.0,-1.0,-1.0,1.0,1651025610712939.0
-1.0,-5.0,8.0,5.0,-2.0,0.0,1.0,1.0,1651025610712939.0
0.0,7.0,0.0,-2.0,-4.0,-2.0,-1.0,-2.0,1651025610726846.0
3.0,1.0,3.0,7.0,9.0,3.0,1.0,2.0,1651025610726846.0
1.0,0.0,-3.0,-4.0,-2.0,-1.0,0.0,-1.0,1651025610726846.0
-4.0,-10.0,-3.0,-3.0,-1.0,2.0,-1.0,0.0,1651025610726846.0
2.0,6.0,12.0,2.0,-1.0,-1.0,0.0,1.0,1651025610749958.0
9.0,13.0,2.0,2.0,2.0,3.0,3.0,4.0,1651025610749958.0
-11.0,6.0,-6.0,-9.0,-6.0,-6.0,-7.0,-8.0,1651025610750907.0
3.0,4.0,-1.0,-4.0,-5.0,-2.0,0.0,-1.0,1651025610750907.0
4.0,14.0,-2.0,2.0,1.0,0.0,1.0,0.0,1651025610771897.0
-5.0,-6.0,13.0,5.0,1.0,0.0,-2.0,-3.0,1651025610771897.0
5.0,-5.0,-1.0,1.0,0.0,1.0,1.0,3.0,1651025610772830.0
-1.0,-5.0,-8.0,-9.0,-21.0,-3.0,-1.0,1.0,1651025610772830.0
1.0,12.0,3.0,-2.0,31.0,1.0,1.0,0.0,1651025610786825.0
-3.0,-15.0,-1.0,3.0,0.0,1.0,0.0,0.0,1651025610786825.0
5.0,-1.0,-5.0,0.0,-2.0,1.0,2.0,1.0,1651025610786825.0
-2.0,23.0,-7.0,-4.0,-4.0,-2.0,-3.0,-4.0,1651025610786825.0
-7.0,-21.0,-10.0,-11.0,-17.0,-3.0,-2.0,-3.0,1651025610809907.0
-2.0,-3.0,1.0,7.0,2.0,0.0,0.0,-3.0,1651025610809907.0
-2.0,8.0,1.0,5.0,2.0,0.0,0.0,1.0,1651025610809907.0
7.0,10.0,6.0,3.0,10.0,2.0,2.0,3.0,1651025610809907.0
2.0,6.0,0.0,1.0,-7.0,-1.0,-1.0,-1.0,1651025610832519.0
0.0,-5.0,-7.0,-7.0,-1.0,-2.0,-1.0,0.0,1651025610832519.0
3.0,5.0,3.0,-3.0,-4.0,-1.0,-1.0,2.0,1651025610832519.0
-5.0,-20.0,-10.0,-1.0,0.0,0.0,-1.0,-1.0,1651025610832519.0
-2.0,-21.0,-10.0,-3.0,-2.0,-6.0,1.0,1.0,1651025610846550.0
0.0,8.0,11.0,-4.0,-2.0,2.0,-2.0,-4.0,1651025610846550.0
-3.0,-7.0,-19.0,2.0,2.0,0.0,1.0,-1.0,1651025610847480.0
-1.0,-11.0,1.0,-1.0,1.0,0.0,-1.0,1.0,1651025610847480.0
-2.0,-8.0,-5.0,0.0,-4.0,1.0,0.0,0.0,1651025610869588.0
1.0,-12.0,2.0,2.0,1.0,0.0,0.0,2.0,1651025610869588.0
4.0,11.0,-1.0,0.0,1.0,1.0,2.0,1.0,1651025610870525.0
-3.0,-7.0,4.0,-1.0,3.0,-2.0,0.0,-3.0,1651025610870525.0
1.0,8.0,-2.0,0.0,-5.0,0.0,1.0,0.0,1651025610892899.0
-1.0,-2.0,-1.0,-1.0,-2.0,-3.0,0.0,-1.0,1651025610892899.0
1.0,3.0,-1.0,-2.0,0.0,-1.0,-2.0,1.0,1651025610892899.0
-1.0,-13.0,-2.0,-4.0,-19.0,-2.0,0.0,-1.0,1651025610892899.0
12.0,28.0,18.0,8.0,16.0,4.0,4.0,5.0,1651025610905910.0
-12.0,9.0,-11.0,-5.0,13.0,3.0,-3.0,-4.0,1651025610905910.0
-5.0,-29.0,-7.0,-1.0,-7.0,0.0,1.0,-2.0,1651025610913864.0
0.0,-2.0,-5.0,9.0,3.0,0.0,-1.0,-2.0,1651025610913864.0
2.0,7.0,6.0,0.0,-14.0,0.0,-2.0,-1.0,1651025610929962.0
2.0,-5.0,-5.0,-3.0,-4.0,-2.0,0.0,1.0,1651025610929962.0
-1.0,-2.0,1.0,-3.0,5.0,1.0,0.0,-1.0,1651025610929962.0
-1.0,5.0,4.0,-5.0,0.0,-1.0,1.0,1.0,1651025610929962.0
-2.0,-14.0,-22.0,-14.0,-4.0,-2.0,0.0,-2.0,1651025610952053.0
-2.0,-2.0,9.0,2.0,-5.0,1.0,-2.0,-5.0,1651025610952053.0
4.0,29.0,8.0,13.0,6.0,3.0,2.0,0.0,1651025610952983.0
-2.0,-24.0,-8.0,3.0,4.0,0.0,0.0,0.0,1651025610952983.0
-8.0,-2.0,0.0,1.0,3.0,1.0,-1.0,-2.0,1651025610966064.0
0.0,-6.0,-4.0,-10.0,-8.0,-3.0,0.0,1.0,1651025610966064.0
5.0,6.0,1.0,-5.0,-6.0,-1.0,-1.0,-1.0,1651025610974156.0
-1.0,-4.0,0.0,1.0,4.0,0.0,0.0,1.0,1651025610974156.0
-8.0,-34.0,-7.0,-5.0,-5.0,0.0,-1.0,-1.0,1651025610989961.0
-3.0,16.0,-3.0,-3.0,-18.0,-4.0,-2.0,-2.0,1651025610989961.0
0.0,-12.0,0.0,7.0,25.0,3.0,-2.0,-1.0,1651025610989961.0
-11.0,-30.0,-7.0,-3.0,-3.0,-1.0,-2.0,-6.0,1651025610989961.0
3.0,18.0,26.0,9.0,2.0,3.0,1.0,2.0,1651025611011861.0
-9.0,-58.0,-10.0,5.0,-1.0,2.0,2.0,-2.0,1651025611011861.0
-6.0,-14.0,-23.0,-11.0,-9.0,-2.0,-3.0,-3.0,1651025611012831.0
6.0,26.0,10.0,-2.0,3.0,-2.0,1.0,1.0,1651025611012831.0
1.0,-10.0,-11.0,-7.0,-12.0,0.0,-1.0,-1.0,1651025611025979.0
-1.0,-27.0,9.0,3.0,14.0,2.0,1.0,2.0,1651025611025979.0
2.0,57.0,11.0,0.0,-7.0,-4.0,-2.0,-2.0,1651025611033989.0
0.0,-9.0,-7.0,-4.0,-4.0,0.0,-2.0,-1.0,1651025611033989.0
-2.0,3.0,3.0,3.0,2.0,2.0,0.0,-2.0,1651025611050142.0
13.0,27.0,5.0,-5.0,-1.0,0.0,2.0,4.0,1651025611050142.0
0.0,-10.0,27.0,4.0,-4.0,1.0,0.0,2.0,1651025611050142.0
0.0,13.0,-36.0,-3.0,6.0,0.0,0.0,-2.0,1651025611050142.0
-5.0,8.0,24.0,10.0,-6.0,-1.0,-3.0,-3.0,1651025611072408.0
-3.0,-10.0,-28.0,-11.0,16.0,-3.0,-2.0,-4.0,1651025611072408.0
5.0,14.0,12.0,7.0,-2.0,-1.0,2.0,2.0,1651025611072408.0
-7.0,-46.0,7.0,4.0,-5.0,0.0,0.0,0.0,1651025611072408.0
4.0,7.0,0.0,4.0,6.0,1.0,0.0,1.0,1651025611085445.0
5.0,3.0,-8.0,-10.0,-7.0,0.0,-1.0,1.0,1651025611085445.0
-8.0,-22.0,-12.0,-7.0,-10.0,-8.0,-4.0,-1.0,1651025611094361.0
1.0,7.0,5.0,-7.0,-3.0,5.0,0.0,-1.0,1651025611094361.0
-8.0,-11.0,-27.0,-4.0,9.0,-3.0,-2.0,-4.0,1651025611109464.0
0.0,-4.0,37.0,19.0,0.0,1.0,0.0,0.0,1651025611109464.0
-2.0,-28.0,-45.0,-11.0,-6.0,-3.0,2.0,1.0,1651025611110399.0
5.0,25.0,27.0,2.0,3.0,1.0,0.0,2.0,1651025611110399.0
-3.0,-15.0,-29.0,-13.0,-8.0,-2.0,-1.0,-2.0,1651025611131957.0
-2.0,-7.0,-3.0,5.0,3.0,4.0,1.0,1.0,1651025611131957.0
-5.0,13.0,19.0,-4.0,-1.0,-1.0,-1.0,-4.0,1651025611132886.0
-3.0,-12.0,-4.0,6.0,-8.0,-2.0,-4.0,-6.0,1651025611132886.0
4.0,14.0,21.0,5.0,21.0,4.0,3.0,7.0,1651025611145921.0
1.0,-1.0,-21.0,-6.0,-9.0,-3.0,-1.0,0.0,1651025611145921.0
3.0,2.0,22.0,9.0,2.0,4.0,3.0,3.0,1651025611153857.0
1.0,-5.0,-15.0,3.0,-1.0,-2.0,-1.0,-2.0,1651025611153857.0
-4.0,-10.0,-24.0,-11.0,-10.0,-4.0,-3.0,-3.0,1651025611168678.0
3.0,23.0,4.0,-7.0,-2.0,-2.0,2.0,2.0,1651025611168678.0
-4.0,-15.0,-16.0,2.0,-1.0,-1.0,0.0,-3.0,1651025611175661.0
1.0,15.0,36.0,-4.0,2.0,3.0,2.0,0.0,1651025611175661.0
-5.0,-11.0,-17.0,0.0,-3.0,-3.0,-4.0,-2.0,1651025611191853.0
1.0,7.0,-3.0,2.0,1.0,1.0,2.0,2.0,1651025611191853.0
3.0,11.0,35.0,15.0,1.0,3.0,0.0,3.0,1651025611193781.0
-1.0,-6.0,-5.0,-8.0,-1.0,-5.0,-5.0,-4.0,1651025611193781.0
-4.0,-1.0,-5.0,-9.0,-6.0,-5.0,-5.0,-1.0,1651025611205812.0
1.0,-1.0,-24.0,-12.0,-5.0,1.0,-1.0,-2.0,1651025611205812.0
1.0,-9.0,1.0,5.0,13.0,1.0,4.0,1.0,1651025611214730.0
