,EMG_s0,EMG_s1,EMG_s2,EMG_s3,EMG_s4,EMG_s5,EMG_s6,EMG_s7,timestamp,signal
0,1.0,2.0,0.0,-1.0,-1.0,-1.0,-1.0,1.0,1650847580110759.0,0
1,0.0,1.0,-2.0,-4.0,-1.0,-1.0,-1.0,-1.0,1650847580110759.0,0
2,0.0,0.0,0.0,0.0,1.0,1.0,0.0,1.0,1650847580125340.0,0
3,1.0,0.0,1.0,1.0,1.0,2.0,-1.0,0.0,1650847580125340.0,0
4,0.0,1.0,0.0,-1.0,-1.0,-2.0,-3.0,0.0,1650847580126365.0,0
5,-1.0,0.0,0.0,-1.0,-2.0,-2.0,0.0,-1.0,1650847580126365.0,0
6,-1.0,-6.0,-6.0,-1.0,0.0,0.0,-1.0,-1.0,1650847580147308.0,0
7,0.0,4.0,2.0,0.0,-1.0,0.0,1.0,1.0,1650847580147308.0,0
8,0.0,-1.0,-2.0,2.0,3.0,3.0,1.0,1.0,1650847580149276.0,0
9,2.0,0.0,-3.0,-3.0,-2.0,-1.0,-2.0,-3.0,1650847580149276.0,0
10,-1.0,-1.0,1.0,0.0,-4.0,0.0,-3.0,-1.0,1650847580161271.0,0
11,-1.0,0.0,-2.0,-1.0,-1.0,-1.0,-1.0,0.0,1650847580161271.0,0
12,-1.0,1.0,0.0,0.0,-1.0,-1.0,-1.0,0.0,1650847580170220.0,0
13,0.0,0.0,-3.0,-3.0,-1.0,0.0,0.0,0.0,1650847580170220.0,0
14,-1.0,-4.0,-4.0,-1.0,0.0,-1.0,-1.0,-1.0,1650847580185180.0,0
15,0.0,1.0,2.0,0.0,0.0,-2.0,0.0,1.0,1650847580185180.0,0
16,-1.0,-1.0,0.0,0.0,0.0,0.0,-1.0,-1.0,1650847580187272.0,0
17,0.0,1.0,1.0,1.0,-1.0,-2.0,0.0,1.0,1650847580187272.0,0
18,2.0,-1.0,-1.0,-2.0,-1.0,-1.0,-2.0,0.0,1650847580208246.0,0
19,-2.0,-3.0,-3.0,1.0,0.0,0.0,-2.0,-1.0,1650847580208246.0,0
20,1.0,0.0,1.0,-2.0,0.0,1.0,0.0,-1.0,1650847580209231.0,0
21,-2.0,-4.0,-3.0,-2.0,-2.0,-1.0,-2.0,0.0,1650847580209231.0,0
22,-2.0,2.0,1.0,2.0,-2.0,1.0,0.0,1.0,1650847580221264.0,0
23,-2.0,-1.0,1.0,-1.0,-2.0,-2.0,-1.0,0.0,1650847580221264.0,0
24,-1.0,-2.0,-1.0,0.0,-2.0,-1.0,-1.0,0.0,1650847580230314.0,0
25,1.0,-1.0,2.0,2.0,1.0,0.0,-2.0,-1.0,1650847580230314.0,0
26,0.0,-1.0,-1.0,0.0,-2.0,-2.0,1.0,-2.0,1650847580245522.0,0
27,-2.0,-2.0,-2.0,-2.0,0.0,-2.0,-1.0,-2.0,1650847580245522.0,0
28,0.0,3.0,0.0,0.0,-1.0,-2.0,1.0,-1.0,1650847580246456.0,0
29,2.0,1.0,-1.0,-1.0,0.0,1.0,0.0,1.0,1650847580246456.0,0
30,0.0,0.0,0.0,-1.0,0.0,-1.0,-2.0,-1.0,1650847580267468.0,0
31,0.0,-4.0,-4.0,-1.0,-1.0,0.0,1.0,1.0,1650847580267468.0,0
32,0.0,-1.0,-2.0,-3.0,-3.0,-3.0,-1.0,-1.0,1650847580269408.0,0
33,-2.0,-1.0,-1.0,0.0,0.0,0.0,0.0,-1.0,1650847580269408.0,0
34,0.0,4.0,0.0,0.0,0.0,2.0,0.0,-1.0,1650847580281823.0,0
35,-1.0,-4.0,0.0,4.0,2.0,1.0,-1.0,-2.0,1650847580281823.0,0
36,-2.0,-1.0,-4.0,-7.0,-4.0,0.0,0.0,0.0,1650847580290445.0,0
37,-1.0,-4.0,0.0,3.0,1.0,0.0,0.0,-2.0,1650847580290445.0,0
38,-1.0,1.0,1.0,-2.0,-1.0,-1.0,0.0,0.0,1650847580304409.0,0
39,1.0,4.0,0.0,0.0,0.0,1.0,-1.0,-2.0,1650847580304409.0,0
40,0.0,-2.0,0.0,2.0,0.0,-3.0,0.0,-1.0,1650847580312455.0,0
41,-2.0,-3.0,-3.0,-3.0,0.0,0.0,2.0,-2.0,1650847580312455.0,0
42,-1.0,1.0,2.0,2.0,2.0,1.0,1.0,1.0,1650847580327586.0,0
43,0.0,-1.0,-1.0,-2.0,-1.0,1.0,1.0,2.0,1650847580327586.0,0
44,-1.0,-2.0,1.0,-1.0,-1.0,1.0,0.0,0.0,1650847580329609.0,0
45,-3.0,3.0,-1.0,-1.0,1.0,-2.0,-2.0,-1.0,1650847580329609.0,0
46,0.0,0.0,0.0,0.0,-1.0,1.0,-1.0,0.0,1650847580341820.0,0
47,0.0,1.0,-2.0,-2.0,-2.0,-2.0,-1.0,-1.0,1650847580341820.0,0
48,0.0,-1.0,-1.0,-1.0,0.0,-1.0,-1.0,-1.0,1650847580350799.0,0
49,1.0,1.0,1.0,1.0,-1.0,-2.0,0.0,0.0,1650847580350799.0,0
50,-1.0,-3.0,-2.0,0.0,0.0,0.0,-2.0,0.0,1650847580365929.0,0
51,0.0,1.0,0.0,-1.0,-1.0,-2.0,-2.0,1.0,1650847580365929.0,0
52,1.0,-2.0,-2.0,-1.0,0.0,-1.0,-1.0,-3.0,1650847580371900.0,0
53,0.0,2.0,-1.0,-3.0,-1.0,-2.0,0.0,0.0,1650847580371900.0,0
54,0.0,-3.0,-3.0,-4.0,0.0,-3.0,1.0,-2.0,1650847580387942.0,0
55,1.0,2.0,2.0,0.0,-1.0,-1.0,0.0,1.0,1650847580387942.0,0
56,-2.0,-4.0,0.0,0.0,0.0,-2.0,0.0,0.0,1650847580388910.0,0
57,1.0,2.0,-1.0,-4.0,-1.0,1.0,-1.0,0.0,1650847580388910.0,0
58,-2.0,-2.0,-1.0,-2.0,-2.0,1.0,-1.0,-2.0,1650847580410635.0,0
59,1.0,0.0,-2.0,-2.0,-2.0,-1.0,-1.0,0.0,1650847580410635.0,0
60,0.0,-1.0,0.0,3.0,0.0,-1.0,0.0,-2.0,1650847580411575.0,0
61,0.0,-1.0,0.0,1.0,-1.0,-1.0,0.0,-1.0,1650847580411575.0,0
62,0.0,4.0,2.0,1.0,1.0,-1.0,0.0,2.0,1650847580424901.0,0
63,0.0,-3.0,-3.0,-5.0,-1.0,-1.0,0.0,-3.0,1650847580424901.0,0
64,-2.0,-3.0,-1.0,-1.0,-3.0,-1.0,-1.0,-3.0,1650847580426833.0,0
65,-2.0,-3.0,-2.0,2.0,0.0,2.0,-2.0,-1.0,1650847580426833.0,0
66,0.0,-2.0,-4.0,-6.0,-2.0,-2.0,-1.0,0.0,1650847580447875.0,0
67,-2.0,3.0,1.0,1.0,2.0,1.0,0.0,0.0,1650847580447875.0,0
68,-3.0,-2.0,-1.0,0.0,0.0,-1.0,0.0,-1.0,1650847580448903.0,0
69,1.0,-2.0,2.0,-1.0,-2.0,-2.0,-1.0,-2.0,1650847580448903.0,0
70,0.0,1.0,2.0,0.0,0.0,-1.0,0.0,0.0,1650847580470046.0,0
71,0.0,0.0,0.0,0.0,3.0,-1.0,0.0,-3.0,1650847580470046.0,0
72,1.0,-2.0,-2.0,-2.0,1.0,2.0,-1.0,0.0,1650847580471986.0,0
73,-1.0,-1.0,-3.0,1.0,1.0,0.0,0.0,-1.0,1650847580471986.0,0
74,-2.0,1.0,1.0,2.0,0.0,1.0,0.0,0.0,1650847580484875.0,0
75,1.0,-3.0,-2.0,-3.0,-3.0,-1.0,0.0,0.0,1650847580484875.0,0
76,1.0,2.0,0.0,2.0,0.0,0.0,0.0,2.0,1650847580486800.0,0
77,-1.0,-1.0,-2.0,-1.0,-1.0,0.0,0.0,-2.0,1650847580486800.0,0
78,-1.0,-3.0,1.0,2.0,1.0,1.0,-2.0,-3.0,1650847580507865.0,0
79,-1.0,0.0,-2.0,0.0,-3.0,0.0,0.0,-1.0,1650847580507865.0,0
80,0.0,0.0,2.0,-1.0,0.0,1.0,0.0,-1.0,1650847580508865.0,0
81,0.0,1.0,1.0,0.0,0.0,-1.0,0.0,1.0,1650847580508865.0,0
82,1.0,-2.0,-5.0,-7.0,-2.0,-1.0,0.0,1.0,1650847580529958.0,0
83,-1.0,-1.0,0.0,1.0,0.0,-2.0,0.0,0.0,1650847580529958.0,0
84,1.0,3.0,2.0,1.0,-3.0,0.0,-3.0,0.0,1650847580531887.0,0
85,-1.0,-4.0,-1.0,3.0,1.0,2.0,-2.0,-2.0,1650847580531887.0,0
86,2.0,-2.0,-3.0,-4.0,-2.0,-2.0,-1.0,-1.0,1650847580544917.0,0
87,1.0,0.0,4.0,-2.0,1.0,2.0,-2.0,0.0,1650847580544917.0,0
88,0.0,4.0,-1.0,1.0,-1.0,-3.0,1.0,0.0,1650847580546847.0,0
89,-2.0,-6.0,-4.0,-12.0,-11.0,-5.0,-2.0,-2.0,1650847580546847.0,0
90,0.0,12.0,10.0,34.0,20.0,4.0,0.0,-1.0,1650847580567985.0,0
91,2.0,-11.0,-10.0,-8.0,9.0,1.0,-1.0,1.0,1650847580567985.0,0
92,1.0,-3.0,3.0,-12.0,-11.0,-1.0,4.0,2.0,1650847580568917.0,0
93,-8.0,-25.0,-21.0,-21.0,-15.0,-8.0,-7.0,-6.0,1650847580568917.0,0
94,5.0,28.0,27.0,16.0,22.0,7.0,-16.0,-7.0,1650847580589827.0,0
95,17.0,-4.0,-13.0,17.0,-6.0,0.0,18.0,13.0,1650847580589827.0,0
96,-17.0,8.0,3.0,-15.0,-3.0,2.0,8.0,2.0,1650847580591824.0,0
97,8.0,-10.0,1.0,8.0,10.0,7.0,13.0,8.0,1650847580591824.0,0
98,-14.0,-30.0,-20.0,-21.0,-20.0,-14.0,4.0,1.0,1650847580604857.0,0
99,-5.0,2.0,2.0,-8.0,-1.0,0.0,-27.0,-24.0,1650847580604857.0,0
100,4.0,9.0,7.0,8.0,5.0,4.0,12.0,3.0,1650847580611799.0,0
101,3.0,4.0,-1.0,-2.0,-3.0,-2.0,6.0,7.0,1650847580611799.0,0
102,6.0,7.0,4.0,-1.0,-7.0,-1.0,-13.0,1.0,1650847580628197.0,0
103,-2.0,-1.0,-1.0,1.0,3.0,3.0,1.0,0.0,1650847580628197.0,0
104,14.0,17.0,10.0,7.0,-2.0,-8.0,-6.0,1.0,1650847580629198.0,0
105,-12.0,-11.0,-16.0,-15.0,-8.0,-3.0,0.0,-8.0,1650847580629198.0,0
106,5.0,23.0,20.0,23.0,9.0,1.0,3.0,-1.0,1650847580649865.0,0
107,-5.0,-35.0,-22.0,-8.0,-7.0,3.0,-1.0,3.0,1650847580649865.0,0
108,1.0,10.0,2.0,6.0,11.0,3.0,0.0,2.0,1650847580651890.0,0
109,7.0,23.0,15.0,6.0,1.0,-3.0,-10.0,-2.0,1650847580651890.0,0
110,-1.0,-1.0,-2.0,-13.0,-11.0,-1.0,0.0,-4.0,1650847580663774.0,0
111,-2.0,23.0,10.0,-6.0,3.0,5.0,-4.0,-5.0,1650847580663774.0,0
112,2.0,-10.0,0.0,11.0,-10.0,-6.0,11.0,7.0,1650847580672753.0,0
113,9.0,7.0,19.0,47.0,47.0,22.0,35.0,25.0,1650847580672753.0,0
114,-8.0,-16.0,-17.0,5.0,6.0,-5.0,-38.0,-20.0,1650847580687781.0,0
115,-12.0,14.0,16.0,-1.0,-8.0,-11.0,8.0,5.0,1650847580687781.0,0
116,5.0,-3.0,-15.0,-28.0,-15.0,-1.0,-17.0,-7.0,1650847580689713.0,0
117,6.0,23.0,-4.0,-21.0,-17.0,-3.0,15.0,6.0,1650847580689713.0,0
118,-10.0,-24.0,-15.0,9.0,6.0,12.0,1.0,-4.0,1650847580709824.0,0
119,-1.0,-11.0,12.0,13.0,3.0,-4.0,0.0,6.0,1650847580709824.0,0
120,-23.0,16.0,11.0,2.0,3.0,-2.0,-14.0,-12.0,1650847580711834.0,0
121,3.0,-16.0,-7.0,3.0,-5.0,-5.0,-19.0,-17.0,1650847580711834.0,0
122,13.0,18.0,13.0,3.0,3.0,4.0,22.0,13.0,1650847580723816.0,0
123,-2.0,-5.0,-26.0,-29.0,-19.0,-10.0,-6.0,-4.0,1650847580723816.0,0
124,-1.0,3.0,1.0,11.0,7.0,3.0,-7.0,-7.0,1650847580732821.0,0
125,13.0,20.0,18.0,7.0,4.0,0.0,-11.0,-1.0,1650847580732821.0,0
126,-7.0,-18.0,-12.0,-20.0,-14.0,1.0,13.0,2.0,1650847580747782.0,0
127,13.0,35.0,22.0,22.0,11.0,6.0,3.0,5.0,1650847580747782.0,0
128,10.0,-28.0,-16.0,-13.0,-6.0,-12.0,-3.0,-1.0,1650847580749776.0,0
129,-2.0,-5.0,-6.0,-3.0,5.0,4.0,-13.0,2.0,1650847580749776.0,0
130,-17.0,-46.0,-21.0,-9.0,-15.0,-6.0,18.0,15.0,1650847580769875.0,0
131,-1.0,12.0,10.0,10.0,-2.0,2.0,-17.0,-20.0,1650847580769875.0,0
132,-7.0,-20.0,-10.0,2.0,15.0,10.0,22.0,8.0,1650847580771870.0,0
133,-12.0,24.0,13.0,-8.0,-11.0,-7.0,-26.0,-21.0,1650847580771870.0,0
134,-13.0,-33.0,-22.0,-1.0,4.0,0.0,7.0,0.0,1650847580783906.0,0
135,-6.0,-18.0,-9.0,-24.0,-9.0,-1.0,10.0,3.0,1650847580783906.0,0
136,6.0,14.0,18.0,8.0,-1.0,5.0,1.0,4.0,1650847580792814.0,0
137,-5.0,-6.0,-2.0,5.0,-1.0,-6.0,-4.0,-2.0,1650847580792814.0,0
138,7.0,34.0,-15.0,-32.0,-13.0,-4.0,3.0,0.0,1650847580807841.0,0
139,-3.0,-8.0,2.0,2.0,-2.0,-11.0,-3.0,3.0,1650847580807841.0,0
140,-2.0,-20.0,14.0,-9.0,-10.0,-10.0,-28.0,-14.0,1650847580809775.0,0
141,-7.0,10.0,-40.0,0.0,-9.0,6.0,16.0,4.0,1650847580809775.0,0
142,-1.0,-4.0,32.0,36.0,19.0,6.0,-6.0,-6.0,1650847580829829.0,0
143,16.0,-15.0,-13.0,-7.0,20.0,15.0,10.0,7.0,1650847580829829.0,0
144,-15.0,-19.0,7.0,3.0,-11.0,-15.0,-4.0,-5.0,1650847580831841.0,0
145,4.0,-7.0,-26.0,-32.0,-24.0,-9.0,3.0,0.0,1650847580831841.0,0
146,-24.0,-16.0,-1.0,-15.0,-6.0,-2.0,-9.0,-14.0,1650847580843802.0,0
147,-8.0,-25.0,-35.0,19.0,18.0,9.0,9.0,9.0,1650847580843802.0,0
148,17.0,5.0,6.0,-3.0,4.0,10.0,6.0,14.0,1650847580852780.0,0
149,3.0,12.0,34.0,7.0,-3.0,-6.0,5.0,-5.0,1650847580852780.0,0
150,15.0,17.0,3.0,1.0,3.0,3.0,5.0,3.0,1650847580867893.0,0
151,5.0,25.0,11.0,-22.0,-15.0,-5.0,-12.0,-4.0,1650847580867893.0,0
152,-10.0,-34.0,-38.0,-9.0,-2.0,-1.0,-7.0,-9.0,1650847580868893.0,0
153,-5.0,-17.0,-11.0,-3.0,1.0,1.0,-3.0,1.0,1650847580868893.0,0
154,6.0,1.0,8.0,-8.0,-4.0,-2.0,8.0,12.0,1650847580890071.0,0
155,-4.0,-23.0,3.0,20.0,5.0,2.0,-4.0,-11.0,1650847580890071.0,0
156,-1.0,39.0,-6.0,2.0,-3.0,-11.0,-29.0,-18.0,1650847580892027.0,0
157,17.0,6.0,1.0,-18.0,3.0,6.0,6.0,13.0,1650847580892027.0,0
158,-1.0,5.0,-9.0,9.0,5.0,5.0,-12.0,-1.0,1650847580904034.0,0
159,-13.0,-29.0,0.0,-21.0,-17.0,-7.0,27.0,2.0,1650847580904034.0,0
160,-3.0,16.0,10.0,14.0,6.0,13.0,15.0,3.0,1650847580912943.0,0
161,-8.0,-8.0,10.0,5.0,6.0,0.0,-4.0,-8.0,1650847580912943.0,0
162,7.0,7.0,-11.0,-21.0,-13.0,-6.0,-21.0,-17.0,1650847580928119.0,0
163,2.0,9.0,-4.0,34.0,25.0,-1.0,9.0,5.0,1650847580928119.0,0
164,40.0,53.0,49.0,9.0,3.0,9.0,14.0,23.0,1650847580929051.0,1
165,-17.0,12.0,-52.0,-17.0,-5.0,-9.0,-19.0,-8.0,1650847580929051.0,1
166,-1.0,-7.0,28.0,-10.0,-15.0,-2.0,-2.0,-9.0,1650847580950147.0,1
167,-5.0,53.0,10.0,29.0,25.0,7.0,5.0,15.0,1650847580950147.0,1
168,-10.0,-45.0,-12.0,-26.0,-12.0,-13.0,-5.0,-19.0,1650847580952103.0,1
169,31.0,11.0,27.0,36.0,17.0,8.0,1.0,4.0,1650847580952103.0,1
170,-44.0,-36.0,-18.0,-13.0,-13.0,-6.0,4.0,-2.0,1650847580964045.0,1
171,10.0,12.0,23.0,-10.0,-14.0,-9.0,-11.0,-6.0,1650847580964045.0,1
172,3.0,-9.0,-16.0,11.0,6.0,0.0,1.0,10.0,1650847580973020.0,1
173,-1.0,12.0,-2.0,-3.0,-6.0,-4.0,-2.0,-7.0,1650847580973020.0,1
174,14.0,27.0,2.0,-16.0,-1.0,-1.0,-9.0,-1.0,1650847580988083.0,1
175,-1.0,-33.0,20.0,30.0,-1.0,4.0,41.0,21.0,1650847580988083.0,1
176,-7.0,-19.0,-48.0,-41.0,-16.0,-14.0,-20.0,-3.0,1650847580989083.0,1
177,11.0,29.0,37.0,63.0,38.0,13.0,3.0,-1.0,1650847580989083.0,1
178,-20.0,-11.0,-3.0,-7.0,6.0,-2.0,-7.0,-9.0,1650847581010086.0,1
179,-3.0,14.0,-2.0,-13.0,-10.0,-1.0,-14.0,-14.0,1650847581010086.0,1
180,0.0,-6.0,15.0,2.0,-6.0,-3.0,-16.0,-5.0,1650847581012081.0,1
181,-8.0,-42.0,-4.0,-1.0,-2.0,6.0,17.0,11.0,1650847581012081.0,1
182,20.0,44.0,3.0,23.0,29.0,8.0,10.0,9.0,1650847581024089.0,1
183,21.0,4.0,1.0,-15.0,-12.0,-9.0,-17.0,-8.0,1650847581024089.0,1
184,-59.0,0.0,-11.0,5.0,5.0,5.0,11.0,-4.0,1650847581032823.0,1
185,10.0,-8.0,23.0,-23.0,-17.0,-9.0,-2.0,6.0,1650847581032823.0,1
186,3.0,-23.0,8.0,24.0,-1.0,-3.0,13.0,10.0,1650847581047789.0,1
187,4.0,7.0,-2.0,-25.0,-6.0,-4.0,-15.0,-9.0,1650847581047789.0,1
188,15.0,18.0,-8.0,-7.0,-6.0,-2.0,12.0,8.0,1650847581053835.0,1
189,-20.0,-29.0,-1.0,5.0,5.0,1.0,-15.0,-10.0,1650847581053835.0,1
190,7.0,10.0,-15.0,0.0,-4.0,-5.0,0.0,4.0,1650847581070733.0,1
191,-10.0,9.0,-14.0,-10.0,-12.0,-4.0,0.0,-4.0,1650847581070733.0,1
192,3.0,-16.0,1.0,10.0,21.0,6.0,3.0,5.0,1650847581071718.0,1
193,-11.0,-1.0,-1.0,7.0,-2.0,-1.0,0.0,-6.0,1650847581071718.0,1
194,11.0,-9.0,-22.0,-13.0,-13.0,-12.0,-7.0,-1.0,1650847581083712.0,1
195,-6.0,-2.0,-6.0,-3.0,-2.0,-4.0,-25.0,-8.0,1650847581083712.0,1
196,9.0,15.0,20.0,15.0,13.0,15.0,17.0,3.0,1650847581092669.0,1
197,-7.0,-9.0,-4.0,-13.0,-16.0,-7.0,0.0,-12.0,1650847581092669.0,1
198,16.0,10.0,3.0,1.0,9.0,3.0,5.0,14.0,1650847581108207.0,1
199,-16.0,-11.0,-12.0,2.0,-1.0,2.0,0.0,2.0,1650847581108207.0,1
200,9.0,-3.0,-1.0,-21.0,-12.0,0.0,11.0,9.0,1650847581109207.0,1
201,-6.0,2.0,8.0,39.0,27.0,5.0,-3.0,-1.0,1650847581109207.0,1
202,0.0,-4.0,11.0,-11.0,-11.0,1.0,13.0,6.0,1650847581129844.0,1
203,13.0,-1.0,-13.0,-7.0,-1.0,1.0,12.0,16.0,1650847581129844.0,1
204,-11.0,-10.0,-9.0,1.0,-3.0,-5.0,-9.0,-15.0,1650847581131841.0,1
205,6.0,20.0,11.0,-16.0,-11.0,-3.0,-10.0,2.0,1650847581131841.0,1
206,-2.0,-6.0,-1.0,-1.0,-2.0,-1.0,-5.0,-11.0,1650847581143836.0,1
207,5.0,-8.0,7.0,6.0,4.0,6.0,13.0,14.0,1650847581143836.0,1
208,10.0,1.0,-7.0,3.0,11.0,2.0,-1.0,-1.0,1650847581152932.0,1
209,-21.0,-1.0,-4.0,-12.0,-6.0,-1.0,4.0,1.0,1650847581152932.0,1
210,1.0,-7.0,2.0,8.0,0.0,-2.0,-5.0,-2.0,1650847581168073.0,1
211,-10.0,0.0,7.0,-8.0,-9.0,-4.0,-11.0,-13.0,1650847581168073.0,1
212,15.0,34.0,9.0,5.0,3.0,4.0,15.0,8.0,1650847581169073.0,1
213,7.0,-8.0,-5.0,8.0,-1.0,1.0,6.0,8.0,1650847581169073.0,1
214,4.0,-16.0,-11.0,5.0,6.0,-2.0,1.0,9.0,1650847581189863.0,1
215,-3.0,-4.0,1.0,-4.0,-6.0,-4.0,-9.0,-7.0,1650847581189863.0,1
216,-10.0,-4.0,3.0,-1.0,-2.0,-3.0,-6.0,-15.0,1650847581191860.0,1
217,6.0,14.0,-7.0,-28.0,-13.0,-7.0,9.0,10.0,1650847581191860.0,1
218,-1.0,11.0,5.0,9.0,-9.0,2.0,-2.0,-8.0,1650847581203827.0,1
219,7.0,-8.0,-3.0,-16.0,7.0,3.0,-3.0,-8.0,1650847581203827.0,1
220,-1.0,-17.0,-1.0,26.0,20.0,5.0,2.0,11.0,1650847581212804.0,1
221,-10.0,-8.0,-3.0,-10.0,-10.0,-9.0,-7.0,-12.0,1650847581212804.0,1
222,1.0,0.0,2.0,-3.0,-11.0,-6.0,-6.0,-4.0,1650847581227831.0,1
223,-8.0,-3.0,-4.0,-3.0,1.0,1.0,-11.0,-11.0,1650847581227831.0,1
224,-1.0,-1.0,-6.0,-9.0,-8.0,1.0,6.0,0.0,1650847581229759.0,1
225,1.0,-13.0,-3.0,-1.0,2.0,2.0,0.0,5.0,1650847581229759.0,1
226,3.0,13.0,10.0,18.0,12.0,5.0,2.0,0.0,1650847581250070.0,1
227,-3.0,-11.0,-1.0,3.0,-4.0,-7.0,-5.0,-7.0,1650847581250070.0,1
228,4.0,8.0,7.0,-9.0,-10.0,-6.0,-3.0,-3.0,1650847581251999.0,1
229,-13.0,-37.0,-22.0,11.0,14.0,1.0,4.0,-5.0,1650847581251999.0,1
230,5.0,8.0,6.0,-13.0,-6.0,-3.0,0.0,11.0,1650847581263841.0,1
231,2.0,0.0,2.0,5.0,-1.0,1.0,0.0,-2.0,1650847581263841.0,1
232,-22.0,-2.0,-8.0,-3.0,-9.0,-2.0,-6.0,-8.0,1650847581272833.0,1
233,4.0,12.0,1.0,-18.0,-14.0,-2.0,-1.0,0.0,1650847581272833.0,1
234,-1.0,2.0,-3.0,-10.0,-7.0,0.0,7.0,1.0,1650847581287898.0,1
235,0.0,0.0,-7.0,2.0,11.0,0.0,1.0,2.0,1650847581287898.0,1
236,23.0,-2.0,12.0,10.0,8.0,2.0,-7.0,-5.0,1650847581288924.0,1
237,-29.0,-28.0,-42.0,-27.0,-18.0,-5.0,-6.0,-8.0,1650847581288924.0,1
238,0.0,-4.0,13.0,9.0,9.0,0.0,-5.0,-10.0,1650847581309903.0,1
239,0.0,28.0,9.0,-12.0,-14.0,-8.0,-6.0,2.0,1650847581309903.0,1
240,2.0,-7.0,-5.0,4.0,-4.0,2.0,-2.0,-3.0,1650847581311836.0,1
241,7.0,-6.0,10.0,1.0,11.0,5.0,2.0,5.0,1650847581311836.0,1
242,4.0,14.0,1.0,2.0,-3.0,-3.0,0.0,-9.0,1650847581323832.0,1
243,-5.0,2.0,-12.0,-8.0,-3.0,-1.0,2.0,-4.0,1650847581323832.0,1
244,-8.0,-38.0,-10.0,-8.0,-7.0,-4.0,-10.0,-10.0,1650847581332786.0,1
245,13.0,58.0,23.0,16.0,4.0,-1.0,4.0,17.0,1650847581332786.0,1
246,-9.0,-17.0,-7.0,5.0,13.0,6.0,2.0,-9.0,1650847581347804.0,1
247,-1.0,-4.0,1.0,8.0,2.0,2.0,0.0,0.0,1650847581347804.0,1
248,5.0,5.0,-6.0,-16.0,-11.0,-2.0,8.0,8.0,1650847581353791.0,1
249,9.0,16.0,9.0,16.0,11.0,2.0,-9.0,2.0,1650847581353791.0,1
250,5.0,14.0,20.0,33.0,11.0,3.0,0.0,3.0,1650847581369903.0,1
251,0.0,-3.0,3.0,-1.0,6.0,1.0,4.0,5.0,1650847581369903.0,1
252,-3.0,-21.0,-33.0,-10.0,-7.0,-5.0,0.0,7.0,1650847581371844.0,1
253,-5.0,-15.0,2.0,-5.0,-2.0,1.0,-6.0,-13.0,1650847581371844.0,1
254,0.0,20.0,-3.0,-10.0,-9.0,-8.0,4.0,11.0,1650847581393101.0,1
255,0.0,12.0,8.0,6.0,2.0,-1.0,1.0,-5.0,1650847581393101.0,1
256,-13.0,1.0,3.0,15.0,8.0,-3.0,-14.0,-14.0,1650847581394101.0,1
257,6.0,-10.0,7.0,-15.0,-4.0,1.0,3.0,0.0,1650847581394101.0,1
258,0.0,-21.0,-8.0,3.0,3.0,2.0,1.0,0.0,1650847581408132.0,1
259,0.0,-4.0,-3.0,-8.0,-7.0,-1.0,8.0,8.0,1650847581408132.0,1
260,2.0,20.0,16.0,6.0,1.0,0.0,0.0,4.0,1650847581409065.0,1
261,-6.0,-18.0,-7.0,0.0,-6.0,-3.0,-16.0,-22.0,1650847581409065.0,1
262,15.0,11.0,3.0,-5.0,-1.0,4.0,13.0,17.0,1650847581429878.0,1
263,-10.0,1.0,0.0,11.0,4.0,1.0,4.0,9.0,1650847581429878.0,1
264,-3.0,-14.0,0.0,0.0,-3.0,-1.0,-2.0,4.0,1650847581431807.0,1
265,0.0,-2.0,-5.0,-1.0,9.0,4.0,9.0,4.0,1650847581431807.0,1
266,-3.0,-2.0,-1.0,-7.0,-7.0,-1.0,-11.0,-17.0,1650847581453814.0,1
267,4.0,8.0,8.0,-3.0,-6.0,-3.0,-3.0,1.0,1650847581453814.0,1
268,-7.0,-3.0,-25.0,-4.0,-1.0,-2.0,-7.0,-8.0,1650847581454747.0,1
269,10.0,8.0,1.0,-14.0,-15.0,-4.0,7.0,7.0,1650847581454747.0,1
270,-6.0,17.0,1.0,-5.0,5.0,-3.0,1.0,1.0,1650847581468853.0,1
271,-2.0,-7.0,22.0,-11.0,-13.0,-6.0,-16.0,-15.0,1650847581468853.0,1
272,-2.0,13.0,-39.0,9.0,3.0,3.0,7.0,4.0,1650847581468853.0,1
273,0.0,-23.0,-5.0,-8.0,-4.0,-4.0,-1.0,0.0,1650847581468853.0,1
274,-4.0,-5.0,-6.0,-7.0,0.0,1.0,9.0,8.0,1650847581489860.0,1
275,3.0,-9.0,6.0,9.0,1.0,-1.0,-2.0,-8.0,1650847581489860.0,1
276,5.0,3.0,13.0,-3.0,-1.0,-4.0,-1.0,4.0,1650847581489860.0,1
277,-4.0,4.0,-4.0,-1.0,-2.0,2.0,-1.0,-5.0,1650847581489860.0,1
278,-4.0,6.0,0.0,-8.0,-10.0,-5.0,-11.0,-6.0,1650847581511891.0,1
279,-2.0,-11.0,-7.0,12.0,16.0,10.0,8.0,5.0,1650847581511891.0,1
280,-1.0,-4.0,18.0,-1.0,-2.0,-2.0,7.0,6.0,1650847581512821.0,1
281,5.0,9.0,1.0,9.0,6.0,0.0,1.0,0.0,1650847581512821.0,1
282,1.0,-16.0,1.0,5.0,1.0,1.0,3.0,3.0,1650847581526851.0,1
283,0.0,7.0,-24.0,-8.0,2.0,-1.0,-3.0,-1.0,1650847581526851.0,1
284,-5.0,-23.0,-10.0,-5.0,-1.0,-1.0,-4.0,-3.0,1650847581527781.0,1
285,5.0,-3.0,12.0,-1.0,-7.0,-4.0,-4.0,-5.0,1650847581527781.0,1
286,-10.0,15.0,-3.0,3.0,-1.0,-1.0,14.0,14.0,1650847581549984.0,1
287,3.0,1.0,0.0,6.0,-4.0,-3.0,-15.0,-10.0,1650847581549984.0,1
288,4.0,-1.0,6.0,0.0,-1.0,3.0,16.0,8.0,1650847581550982.0,1
289,-14.0,17.0,9.0,13.0,7.0,-3.0,-12.0,-7.0,1650847581550982.0,1
290,0.0,-23.0,-11.0,-7.0,4.0,2.0,2.0,-5.0,1650847581572334.0,1
291,-2.0,-5.0,1.0,4.0,-2.0,-3.0,8.0,12.0,1650847581572334.0,1
292,3.0,26.0,19.0,-8.0,-3.0,4.0,1.0,-7.0,1650847581572334.0,1
293,0.0,-4.0,-8.0,-13.0,-7.0,-2.0,4.0,6.0,1650847581572334.0,1
294,-3.0,-4.0,-3.0,-5.0,-13.0,-7.0,-28.0,-27.0,1650847581586325.0,1
295,0.0,1.0,8.0,29.0,35.0,13.0,20.0,21.0,1650847581586325.0,1
296,5.0,17.0,8.0,1.0,-4.0,-2.0,-4.0,0.0,1650847581594304.0,1
297,-5.0,-32.0,-15.0,-6.0,1.0,1.0,2.0,4.0,1650847581594304.0,1
298,2.0,12.0,4.0,-4.0,-4.0,0.0,-4.0,2.0,1650847581609268.0,1
299,0.0,-20.0,-9.0,-13.0,-12.0,-4.0,-5.0,-8.0,1650847581609268.0,1
300,-5.0,15.0,7.0,-6.0,9.0,-2.0,-8.0,2.0,1650847581610195.0,1
301,-1.0,13.0,0.0,17.0,8.0,1.0,1.0,-10.0,1650847581610195.0,1
302,3.0,0.0,-1.0,-7.0,-6.0,-2.0,-2.0,5.0,1650847581632264.0,1
303,3.0,3.0,4.0,-4.0,-5.0,0.0,3.0,-2.0,1650847581632264.0,1
304,-10.0,-11.0,2.0,5.0,9.0,-1.0,-2.0,-3.0,1650847581633264.0,1
305,11.0,13.0,8.0,0.0,-1.0,2.0,-2.0,4.0,1650847581633264.0,1
306,-20.0,-12.0,-13.0,-11.0,-1.0,-1.0,0.0,0.0,1650847581646845.0,1
307,-8.0,-4.0,-5.0,1.0,-5.0,-3.0,-5.0,-5.0,1650847581646845.0,1
308,5.0,5.0,3.0,2.0,-5.0,0.0,-3.0,2.0,1650847581654883.0,1
309,1.0,0.0,12.0,8.0,7.0,1.0,-1.0,4.0,1650847581654883.0,1
310,4.0,-8.0,-1.0,10.0,3.0,5.0,2.0,-1.0,1650847581669842.0,1
311,-6.0,-1.0,-8.0,-7.0,2.0,-3.0,-6.0,-1.0,1650847581669842.0,1
312,2.0,-1.0,1.0,8.0,0.0,2.0,8.0,-2.0,1650847581670773.0,1
313,-2.0,-2.0,-6.0,-12.0,-10.0,-4.0,-11.0,-11.0,1650847581670773.0,1
314,5.0,7.0,14.0,10.0,20.0,9.0,6.0,4.0,1650847581691904.0,1
315,-3.0,-7.0,-1.0,1.0,-10.0,-8.0,0.0,-4.0,1650847581691904.0,1
316,6.0,9.0,5.0,9.0,5.0,3.0,-2.0,0.0,1650847581692835.0,1
317,1.0,-8.0,-12.0,-20.0,-10.0,-1.0,9.0,10.0,1650847581692835.0,1
318,2.0,15.0,5.0,-3.0,-10.0,-4.0,-3.0,-1.0,1650847581706840.0,1
319,2.0,7.0,5.0,-1.0,0.0,3.0,-4.0,-2.0,1650847581706840.0,1
320,0.0,-20.0,-7.0,5.0,5.0,2.0,2.0,1.0,1650847581714843.0,1
321,-2.0,4.0,-3.0,-3.0,-5.0,-5.0,-1.0,3.0,1650847581714843.0,1
322,0.0,-5.0,-5.0,-12.0,-6.0,-6.0,1.0,2.0,1650847581729902.0,1
323,2.0,-8.0,-9.0,3.0,-5.0,-1.0,0.0,-1.0,1650847581729902.0,1
324,-10.0,3.0,7.0,3.0,6.0,-2.0,-2.0,-5.0,1650847581729902.0,1
325,2.0,13.0,8.0,2.0,-3.0,2.0,3.0,6.0,1650847581729902.0,1
326,-1.0,-11.0,-10.0,16.0,1.0,-4.0,-3.0,-4.0,1650847581751989.0,1
327,6.0,0.0,2.0,-7.0,-4.0,1.0,10.0,12.0,1650847581751989.0,1
328,-2.0,-1.0,-4.0,-22.0,-13.0,-6.0,-10.0,-10.0,1650847581752921.0,1
329,-4.0,-15.0,-2.0,13.0,9.0,1.0,3.0,6.0,1650847581752921.0,1
330,0.0,8.0,4.0,8.0,8.0,4.0,-2.0,-4.0,1650847581766882.0,1
331,4.0,15.0,4.0,-8.0,-7.0,1.0,3.0,5.0,1650847581766882.0,1
332,-2.0,1.0,-6.0,-2.0,-5.0,-5.0,-2.0,-7.0,1650847581774927.0,1
333,-2.0,10.0,3.0,-11.0,-10.0,-2.0,-5.0,-3.0,1650847581774927.0,1
334,1.0,-18.0,-9.0,6.0,4.0,0.0,-1.0,3.0,1650847581789422.0,1
335,-6.0,-2.0,-11.0,-11.0,-2.0,-5.0,-17.0,-17.0,1650847581789422.0,1
336,-1.0,-14.0,-4.0,-6.0,-3.0,0.0,13.0,11.0,1650847581790420.0,1
337,3.0,31.0,10.0,18.0,6.0,-2.0,3.0,7.0,1650847581790420.0,1
338,-1.0,-1.0,3.0,-12.0,-8.0,-5.0,-3.0,-12.0,1650847581812549.0,1
339,-1.0,-9.0,-10.0,-7.0,-1.0,-2.0,4.0,10.0,1650847581812549.0,1
340,-4.0,-9.0,-1.0,7.0,1.0,0.0,-10.0,-14.0,1650847581812549.0,1
341,-1.0,2.0,-4.0,-1.0,-3.0,-3.0,0.0,-1.0,1650847581812549.0,1
342,-4.0,5.0,8.0,-1.0,-2.0,1.0,6.0,9.0,1650847581826839.0,1
343,2.0,-12.0,-9.0,-6.0,-2.0,-1.0,-4.0,-6.0,1650847581826839.0,1
344,4.0,13.0,8.0,-4.0,-5.0,0.0,-3.0,2.0,1650847581834981.0,1
345,2.0,-11.0,-4.0,4.0,4.0,-1.0,1.0,-1.0,1650847581834981.0,1
346,0.0,1.0,-1.0,-15.0,-14.0,-6.0,-3.0,-3.0,1650847581849264.0,1
347,1.0,6.0,10.0,-2.0,7.0,5.0,6.0,4.0,1650847581849264.0,1
348,-2.0,-12.0,-9.0,-4.0,5.0,-3.0,-5.0,-6.0,1650847581850194.0,1
349,-3.0,-4.0,0.0,1.0,-3.0,0.0,-2.0,-4.0,1650847581850194.0,1
350,5.0,0.0,-5.0,-9.0,-10.0,-3.0,6.0,8.0,1650847581872135.0,1
351,-2.0,0.0,8.0,20.0,5.0,-3.0,-3.0,-3.0,1650847581872135.0,1
352,4.0,4.0,4.0,10.0,14.0,9.0,3.0,5.0,1650847581873132.0,1
353,-2.0,-2.0,-1.0,-6.0,-2.0,-1.0,-1.0,-2.0,1650847581873132.0,1
354,-4.0,-20.0,-13.0,-9.0,-3.0,-2.0,0.0,-1.0,1650847581886166.0,1
355,1.0,7.0,5.0,6.0,-1.0,-1.0,-1.0,-2.0,1650847581886166.0,1
356,2.0,-10.0,0.0,18.0,3.0,1.0,10.0,11.0,1650847581895073.0,1
357,1.0,7.0,9.0,6.0,3.0,1.0,-2.0,-7.0,1650847581895073.0,1
358,-4.0,-15.0,-4.0,-7.0,1.0,1.0,-3.0,1.0,1650847581909760.0,1
359,3.0,24.0,10.0,10.0,6.0,7.0,11.0,2.0,1650847581909760.0,1
360,-5.0,-7.0,-9.0,-10.0,-11.0,-12.0,-16.0,-4.0,1650847581910789.0,1
361,4.0,-12.0,-10.0,-10.0,-3.0,1.0,3.0,6.0,1650847581910789.0,1
362,1.0,17.0,8.0,6.0,3.0,0.0,-1.0,-5.0,1650847581931976.0,1
363,-5.0,-23.0,-17.0,-13.0,-7.0,-2.0,-3.0,-5.0,1650847581931976.0,1
364,7.0,8.0,4.0,-8.0,-13.0,1.0,12.0,12.0,1650847581932906.0,1
365,3.0,19.0,9.0,27.0,15.0,5.0,-2.0,0.0,1650847581932906.0,1
366,-11.0,-4.0,0.0,-1.0,0.0,-2.0,-6.0,-11.0,1650847581946869.0,1
367,-1.0,10.0,1.0,-8.0,-4.0,-3.0,-6.0,-3.0,1650847581946869.0,1
368,-2.0,-10.0,0.0,3.0,2.0,0.0,-1.0,-2.0,1650847581954915.0,1
369,-3.0,1.0,-3.0,7.0,4.0,-1.0,0.0,-2.0,1650847581954915.0,1
370,7.0,11.0,3.0,-1.0,-2.0,3.0,4.0,9.0,1650847581969876.0,1
371,-5.0,-7.0,-6.0,-4.0,0.0,-1.0,-2.0,-4.0,1650847581969876.0,1
372,-1.0,-4.0,-4.0,-3.0,-2.0,-1.0,-1.0,0.0,1650847581969876.0,1
373,-2.0,4.0,3.0,-8.0,-4.0,-1.0,-2.0,3.0,1650847581969876.0,1
374,-4.0,-14.0,-8.0,-7.0,-3.0,-3.0,-6.0,-8.0,1650847581991763.0,1
375,2.0,2.0,2.0,4.0,3.0,1.0,4.0,7.0,1650847581991763.0,1
376,5.0,19.0,8.0,5.0,0.0,1.0,-6.0,-1.0,1650847581992746.0,1
377,-6.0,-19.0,-5.0,1.0,4.0,0.0,2.0,-9.0,1650847581992746.0,1
378,3.0,2.0,-7.0,-15.0,-5.0,-2.0,-3.0,3.0,1650847582006708.0,1
379,-5.0,-24.0,-2.0,8.0,-4.0,-5.0,-6.0,-8.0,1650847582006708.0,1
380,-2.0,16.0,-2.0,-3.0,-6.0,-2.0,2.0,1.0,1650847582014755.0,1
381,-3.0,-18.0,-1.0,-5.0,4.0,4.0,-4.0,-3.0,1650847582014755.0,1
382,0.0,-1.0,0.0,1.0,8.0,1.0,0.0,0.0,1650847582029824.0,1
383,0.0,8.0,1.0,-8.0,-5.0,-1.0,-2.0,-1.0,1650847582029824.0,1
384,-1.0,-2.0,3.0,7.0,2.0,-2.0,-1.0,2.0,1650847582029824.0,1
385,-4.0,-14.0,-9.0,2.0,-4.0,-4.0,-1.0,-1.0,1650847582029824.0,1
386,-1.0,1.0,3.0,5.0,3.0,1.0,-3.0,-2.0,1650847582051849.0,1
387,1.0,8.0,-1.0,1.0,5.0,2.0,4.0,4.0,1650847582051849.0,1
388,-1.0,4.0,4.0,-2.0,0.0,1.0,-6.0,-4.0,1650847582052778.0,1
389,2.0,5.0,-3.0,-12.0,-4.0,0.0,2.0,2.0,1650847582052778.0,1
390,2.0,-11.0,-6.0,7.0,4.0,0.0,0.0,0.0,1650847582066751.0,1
391,1.0,-4.0,-1.0,1.0,-2.0,2.0,1.0,-1.0,1650847582066751.0,1
392,-1.0,-5.0,-9.0,-11.0,-4.0,-2.0,0.0,-4.0,1650847582074785.0,1
393,-1.0,0.0,1.0,0.0,0.0,-2.0,0.0,1.0,1650847582074785.0,1
394,-1.0,1.0,1.0,4.0,2.0,0.0,0.0,1.0,1650847582089681.0,1
395,0.0,3.0,-3.0,-6.0,-4.0,-9.0,-10.0,-3.0,1650847582089681.0,1
396,1.0,0.0,16.0,8.0,5.0,5.0,3.0,0.0,1650847582090678.0,1
397,-1.0,6.0,-3.0,0.0,-2.0,6.0,2.0,1.0,1650847582090678.0,1
398,7.0,0.0,-1.0,3.0,0.0,4.0,17.0,13.0,1650847582111690.0,1
399,-13.0,-10.0,-16.0,-9.0,-4.0,-4.0,-4.0,-15.0,1650847582111690.0,1
400,-9.0,5.0,-3.0,1.0,3.0,-6.0,-6.0,-1.0,1650847582112619.0,1
401,9.0,-2.0,5.0,0.0,-4.0,-5.0,-4.0,-1.0,1650847582112619.0,1
402,10.0,11.0,15.0,-1.0,4.0,5.0,-3.0,5.0,1650847582126650.0,1
403,-15.0,-13.0,-37.0,-5.0,-4.0,-4.0,-2.0,0.0,1650847582126650.0,1
404,3.0,-6.0,-12.0,-4.0,-5.0,-9.0,-3.0,-10.0,1650847582134628.0,1
405,-7.0,3.0,-1.0,-18.0,-7.0,-1.0,-3.0,-9.0,1650847582134628.0,1
406,14.0,-8.0,-21.0,-3.0,-4.0,-6.0,-5.0,-2.0,1650847582149826.0,1
407,-1.0,0.0,-15.0,-20.0,0.0,1.0,7.0,3.0,1650847582149826.0,1
408,6.0,-4.0,-3.0,11.0,10.0,9.0,5.0,9.0,1650847582150720.0,1
409,6.0,21.0,108.0,78.0,10.0,-3.0,-4.0,-6.0,1650847582150720.0,1
410,-12.0,23.0,-9.0,-13.0,-2.0,1.0,-1.0,-7.0,1650847582171749.0,1
411,-22.0,-14.0,-32.0,-24.0,-11.0,-3.0,-2.0,-2.0,1650847582171749.0,1
412,13.0,-10.0,-43.0,-22.0,-3.0,-2.0,0.0,0.0,1650847582172695.0,1
413,4.0,-9.0,-19.0,-7.0,4.0,2.0,3.0,4.0,1650847582172695.0,1
414,6.0,13.0,36.0,35.0,12.0,5.0,4.0,5.0,1650847582186709.0,1
415,-5.0,-5.0,21.0,17.0,-2.0,-4.0,-1.0,-3.0,1650847582186709.0,1
416,-4.0,0.0,17.0,4.0,2.0,3.0,1.0,3.0,1650847582194183.0,1
417,2.0,13.0,-7.0,-1.0,-1.0,0.0,1.0,5.0,1650847582194183.0,1
418,-12.0,-19.0,-8.0,0.0,-3.0,-2.0,-2.0,-2.0,1650847582209892.0,1
419,11.0,11.0,4.0,-6.0,1.0,3.0,-1.0,-4.0,1650847582209892.0,1
420,-3.0,8.0,24.0,2.0,-2.0,1.0,-2.0,0.0,1650847582209892.0,1
421,7.0,-8.0,-39.0,-22.0,-5.0,-2.0,-1.0,1.0,1650847582209892.0,1
422,-23.0,-30.0,-72.0,-28.0,-8.0,-5.0,-3.0,-3.0,1650847582231833.0,1
423,11.0,5.0,25.0,6.0,-4.0,-2.0,-4.0,0.0,1650847582231833.0,1
424,2.0,1.0,-18.0,9.0,1.0,0.0,1.0,-2.0,1650847582232776.0,1
425,-10.0,-4.0,21.0,-14.0,-2.0,0.0,-1.0,-3.0,1650847582232776.0,1
426,11.0,5.0,9.0,-5.0,1.0,0.0,-2.0,-1.0,1650847582246793.0,1
427,13.0,6.0,-5.0,14.0,4.0,2.0,1.0,7.0,1650847582246793.0,1
428,-11.0,-16.0,7.0,-6.0,-7.0,-2.0,-3.0,-5.0,1650847582254770.0,1
429,-3.0,-5.0,-8.0,0.0,-1.0,-3.0,0.0,-2.0,1650847582254770.0,1
430,-5.0,-4.0,-18.0,-6.0,-2.0,-1.0,0.0,-3.0,1650847582269975.0,1
431,9.0,-6.0,0.0,-11.0,-4.0,0.0,-1.0,0.0,1650847582269975.0,1
432,-2.0,4.0,6.0,3.0,-1.0,0.0,-1.0,2.0,1650847582269975.0,1
433,-1.0,-1.0,-13.0,-4.0,0.0,-1.0,-1.0,-1.0,1650847582269975.0,1
434,2.0,4.0,18.0,10.0,1.0,0.0,-4.0,-2.0,1650847582291930.0,1
435,7.0,6.0,16.0,9.0,6.0,5.0,2.0,3.0,1650847582291930.0,1
436,-1.0,-4.0,-17.0,-7.0,-3.0,-2.0,-1.0,-2.0,1650847582292858.0,1
437,-5.0,-7.0,-1.0,0.0,-2.0,-2.0,0.0,-2.0,1650847582292858.0,1
438,1.0,4.0,18.0,6.0,1.0,0.0,0.0,-4.0,1650847582314855.0,1
439,-2.0,5.0,-13.0,-5.0,-2.0,0.0,1.0,3.0,1650847582314855.0,1
440,-3.0,-6.0,4.0,-4.0,-1.0,-1.0,-1.0,-4.0,1650847582315785.0,1
441,-1.0,3.0,-6.0,-10.0,-3.0,-1.0,1.0,3.0,1650847582315785.0,1
442,3.0,4.0,5.0,6.0,4.0,0.0,-2.0,-1.0,1650847582329814.0,1
443,2.0,5.0,14.0,7.0,3.0,1.0,2.0,0.0,1650847582329814.0,1
444,4.0,6.0,14.0,-1.0,-1.0,0.0,0.0,2.0,1650847582330746.0,1
445,1.0,-2.0,-32.0,-3.0,0.0,0.0,-3.0,-1.0,1650847582330746.0,1
446,0.0,-7.0,-1.0,-4.0,-3.0,0.0,-1.0,-2.0,1650847582351927.0,1
447,1.0,8.0,13.0,4.0,1.0,1.0,-1.0,2.0,1650847582351927.0,1
448,0.0,5.0,7.0,4.0,0.0,2.0,0.0,0.0,1650847582352879.0,1
449,-3.0,-5.0,-5.0,0.0,-1.0,1.0,0.0,0.0,1650847582352879.0,1
450,-1.0,0.0,3.0,-1.0,-4.0,-4.0,-2.0,-2.0,1650847582374906.0,1
451,2.0,2.0,-3.0,2.0,3.0,1.0,0.0,3.0,1650847582374906.0,1
452,-3.0,5.0,17.0,9.0,3.0,-1.0,-1.0,-1.0,1650847582375837.0,1
453,-4.0,-9.0,-13.0,-6.0,1.0,0.0,0.0,-1.0,1650847582375837.0,1
454,-2.0,0.0,5.0,-3.0,-5.0,-3.0,-3.0,-1.0,1650847582389742.0,1
455,2.0,2.0,6.0,0.0,-2.0,1.0,1.0,-2.0,1650847582389742.0,1
456,-3.0,-2.0,-7.0,5.0,1.0,0.0,1.0,-1.0,1650847582390747.0,1
457,-3.0,-5.0,2.0,-1.0,-1.0,-1.0,-3.0,-1.0,1650847582390747.0,1
458,-2.0,5.0,5.0,2.0,1.0,0.0,-1.0,0.0,1650847582411822.0,1
459,-1.0,1.0,-2.0,0.0,-2.0,-1.0,-1.0,0.0,1650847582411822.0,1
460,0.0,-1.0,-9.0,-6.0,-1.0,1.0,-1.0,0.0,1650847582412754.0,1
461,1.0,3.0,5.0,3.0,1.0,-1.0,1.0,-1.0,1650847582412754.0,1
462,-2.0,-5.0,-5.0,-1.0,-4.0,-3.0,-1.0,-4.0,1650847582435708.0,1
463,-1.0,-2.0,8.0,5.0,1.0,1.0,-1.0,0.0,1650847582435708.0,1
464,0.0,-2.0,-4.0,-6.0,-3.0,-2.0,0.0,-1.0,1650847582435708.0,1
465,-1.0,-2.0,0.0,0.0,-1.0,1.0,1.0,0.0,1650847582435708.0,0
466,2.0,1.0,6.0,4.0,3.0,2.0,-2.0,0.0,1650847582449720.0,0
467,-1.0,2.0,0.0,0.0,0.0,-1.0,1.0,-1.0,1650847582449720.0,0
468,2.0,2.0,5.0,-1.0,-3.0,-2.0,-1.0,-1.0,1650847582450651.0,0
469,-3.0,-9.0,-32.0,-12.0,-4.0,-4.0,0.0,0.0,1650847582450651.0,0
470,1.0,4.0,3.0,-4.0,-3.0,0.0,0.0,0.0,1650847582472593.0,0
471,-1.0,-1.0,9.0,7.0,3.0,1.0,-1.0,-1.0,1650847582472593.0,0
472,-1.0,0.0,-4.0,-1.0,3.0,2.0,0.0,-1.0,1650847582472593.0,0
473,1.0,8.0,13.0,1.0,-2.0,-1.0,0.0,0.0,1650847582472593.0,0
474,-2.0,-6.0,-10.0,3.0,-1.0,-3.0,-2.0,-3.0,1650847582495599.0,0
475,-2.0,-2.0,-5.0,-5.0,-1.0,-1.0,0.0,0.0,1650847582495599.0,0
476,-2.0,-3.0,-3.0,2.0,2.0,0.0,1.0,-2.0,1650847582495599.0,0
477,0.0,5.0,2.0,-2.0,1.0,0.0,-1.0,1.0,1650847582495599.0,0
478,-1.0,2.0,10.0,3.0,-2.0,-1.0,1.0,-1.0,1650847582509792.0,0
479,1.0,0.0,1.0,-1.0,1.0,-1.0,-1.0,0.0,1650847582509792.0,0
480,1.0,1.0,-3.0,-2.0,-2.0,-1.0,0.0,1.0,1650847582509792.0,0
481,1.0,-6.0,-3.0,-1.0,1.0,0.0,-2.0,0.0,1650847582509792.0,0
482,-1.0,2.0,1.0,-5.0,-2.0,-3.0,-2.0,-1.0,1650847582532384.0,0
483,0.0,-2.0,5.0,6.0,-2.0,0.0,-1.0,-1.0,1650847582532384.0,0
484,1.0,0.0,-5.0,-6.0,-2.0,-1.0,0.0,-1.0,1650847582532384.0,0
485,0.0,0.0,1.0,0.0,-1.0,-2.0,0.0,-1.0,1650847582532384.0,0
486,2.0,-1.0,0.0,-1.0,2.0,-1.0,1.0,0.0,1650847582555391.0,0
487,2.0,0.0,-1.0,-6.0,-2.0,1.0,-1.0,0.0,1650847582555391.0,0
488,0.0,0.0,-2.0,-1.0,-2.0,-1.0,-2.0,-1.0,1650847582556349.0,0
489,-3.0,-3.0,12.0,0.0,-3.0,0.0,0.0,0.0,1650847582556349.0,0
490,-2.0,2.0,1.0,4.0,3.0,-1.0,0.0,-1.0,1650847582569355.0,0
491,2.0,2.0,-1.0,-1.0,1.0,-1.0,-1.0,-1.0,1650847582569355.0,0
492,1.0,-1.0,-3.0,-1.0,-3.0,0.0,0.0,0.0,1650847582570284.0,0
493,0.0,0.0,-1.0,0.0,1.0,-1.0,-1.0,-3.0,1650847582570284.0,0
494,0.0,0.0,1.0,-1.0,-1.0,-1.0,2.0,0.0,1650847582592417.0,0
495,-1.0,-3.0,-10.0,2.0,2.0,-2.0,-2.0,-2.0,1650847582592417.0,0
496,-1.0,0.0,2.0,-3.0,-4.0,-1.0,-1.0,0.0,1650847582592417.0,0
497,-1.0,-2.0,-3.0,-5.0,-1.0,1.0,0.0,0.0,1650847582592417.0,0
498,1.0,3.0,2.0,2.0,0.0,-1.0,0.0,0.0,1650847582615452.0,0
499,-2.0,1.0,1.0,-3.0,1.0,-1.0,-1.0,-1.0,1650847582615452.0,0
500,-3.0,-5.0,1.0,1.0,1.0,-1.0,1.0,-1.0,1650847582616428.0,0
501,1.0,-1.0,-1.0,0.0,1.0,0.0,-1.0,1.0,1650847582616428.0,0
502,-1.0,-3.0,-5.0,-4.0,-3.0,2.0,1.0,-1.0,1650847582629375.0,0
503,-4.0,-3.0,2.0,2.0,0.0,0.0,0.0,-1.0,1650847582629375.0,0
504,0.0,1.0,-2.0,-1.0,-1.0,2.0,-1.0,2.0,1650847582630345.0,0
505,0.0,-3.0,2.0,4.0,1.0,-1.0,-2.0,-1.0,1650847582630345.0,0
506,-1.0,-2.0,-4.0,-4.0,0.0,-1.0,0.0,0.0,1650847582651958.0,0
507,-1.0,-4.0,-8.0,0.0,0.0,-2.0,-1.0,-3.0,1650847582651958.0,0
508,-2.0,0.0,6.0,3.0,0.0,0.0,-1.0,0.0,1650847582652944.0,0
509,-2.0,2.0,-4.0,0.0,-2.0,0.0,0.0,-1.0,1650847582652944.0,0
510,0.0,-3.0,-3.0,-2.0,-3.0,0.0,-2.0,0.0,1650847582674912.0,0
511,0.0,-5.0,2.0,-1.0,1.0,0.0,1.0,1.0,1650847582674912.0,0
512,-2.0,0.0,-2.0,-2.0,0.0,0.0,-1.0,0.0,1650847582675882.0,0
513,0.0,-1.0,-4.0,-3.0,-5.0,-2.0,-1.0,-2.0,1650847582675882.0,0
514,1.0,4.0,2.0,1.0,1.0,-1.0,-1.0,0.0,1650847582689382.0,0
515,0.0,1.0,5.0,-2.0,0.0,0.0,0.0,0.0,1650847582689382.0,0
516,1.0,-6.0,-8.0,-4.0,0.0,0.0,-1.0,-2.0,1650847582690314.0,0
517,0.0,2.0,2.0,2.0,0.0,0.0,0.0,-1.0,1650847582690314.0,0
518,-2.0,-1.0,-1.0,0.0,-2.0,-3.0,-1.0,2.0,1650847582712321.0,0
519,1.0,4.0,1.0,-1.0,-3.0,-2.0,1.0,0.0,1650847582712321.0,0
520,-2.0,-4.0,-4.0,1.0,1.0,-2.0,0.0,-2.0,1650847582713272.0,0
521,-3.0,-3.0,-5.0,-1.0,0.0,0.0,-1.0,-1.0,1650847582713272.0,0
522,0.0,3.0,-1.0,0.0,1.0,2.0,0.0,-1.0,1650847582734262.0,0
523,-1.0,2.0,9.0,5.0,1.0,1.0,-1.0,-1.0,1650847582734262.0,0
524,0.0,0.0,-2.0,0.0,1.0,-2.0,0.0,0.0,1650847582735193.0,0
525,-1.0,0.0,1.0,0.0,0.0,-1.0,0.0,0.0,1650847582735193.0,0
526,0.0,-1.0,-1.0,-1.0,-2.0,-1.0,1.0,-1.0,1650847582749244.0,0
527,-1.0,2.0,-6.0,-2.0,-6.0,-5.0,-2.0,-2.0,1650847582749244.0,0
528,-2.0,-5.0,3.0,1.0,2.0,3.0,1.0,0.0,1650847582757294.0,0
529,-2.0,-1.0,1.0,-1.0,0.0,1.0,0.0,1.0,1650847582757294.0,0
530,-2.0,-2.0,3.0,-3.0,1.0,-1.0,-1.0,0.0,1650847582772317.0,0
531,0.0,1.0,3.0,-2.0,-2.0,-1.0,0.0,2.0,1650847582772317.0,0
532,-2.0,1.0,-4.0,-4.0,-2.0,0.0,0.0,0.0,1650847582773245.0,0
533,-1.0,-4.0,-2.0,1.0,0.0,0.0,-1.0,-2.0,1650847582773245.0,0
534,0.0,-1.0,-1.0,-3.0,-2.0,-2.0,-2.0,1.0,1650847582794255.0,0
535,-1.0,-3.0,3.0,2.0,2.0,2.0,0.0,0.0,1650847582794255.0,0
536,-1.0,-1.0,-2.0,-2.0,-2.0,-1.0,-1.0,-2.0,1650847582795187.0,0
537,0.0,1.0,-1.0,-1.0,0.0,-1.0,-1.0,0.0,1650847582795187.0,0
538,0.0,-3.0,-7.0,-2.0,-3.0,0.0,-1.0,-1.0,1650847582809215.0,0
539,-1.0,0.0,-4.0,-1.0,4.0,3.0,0.0,0.0,1650847582809215.0,0
540,0.0,1.0,6.0,2.0,1.0,-2.0,-1.0,0.0,1650847582810147.0,0
541,1.0,-2.0,-3.0,0.0,-2.0,-1.0,2.0,0.0,1650847582810147.0,0
542,0.0,1.0,0.0,-1.0,-3.0,0.0,-1.0,-2.0,1650847582831886.0,0
543,-1.0,2.0,5.0,1.0,-1.0,-1.0,-1.0,-1.0,1650847582831886.0,0
544,0.0,2.0,0.0,-1.0,0.0,2.0,0.0,0.0,1650847582832817.0,0
545,1.0,-1.0,-2.0,-3.0,-1.0,0.0,-2.0,0.0,1650847582832817.0,0
546,-1.0,-1.0,0.0,1.0,-2.0,0.0,0.0,-1.0,1650847582854825.0,0
547,-1.0,-1.0,-7.0,-3.0,-4.0,-2.0,0.0,0.0,1650847582854825.0,0
548,0.0,-1.0,-1.0,0.0,-1.0,-1.0,-1.0,-1.0,1650847582855762.0,0
549,1.0,0.0,2.0,1.0,0.0,-1.0,-1.0,0.0,1650847582855762.0,0
550,0.0,0.0,4.0,1.0,2.0,2.0,0.0,1.0,1650847582869785.0,0
551,1.0,-1.0,-6.0,-3.0,0.0,0.0,0.0,-1.0,1650847582869785.0,0
552,-1.0,3.0,1.0,3.0,-1.0,0.0,0.0,1.0,1650847582870716.0,0
553,-1.0,-2.0,-1.0,-1.0,-1.0,-1.0,-2.0,0.0,1650847582870716.0,0
554,-1.0,2.0,1.0,1.0,-2.0,0.0,1.0,-2.0,1650847582891788.0,0
555,0.0,0.0,1.0,0.0,-2.0,-2.0,1.0,2.0,1650847582891788.0,0
556,-1.0,-5.0,-7.0,-5.0,-3.0,-1.0,0.0,0.0,1650847582892806.0,0
557,1.0,2.0,-1.0,-2.0,1.0,0.0,0.0,-1.0,1650847582892806.0,0
558,-2.0,-4.0,-1.0,3.0,1.0,-1.0,0.0,1.0,1650847582914781.0,0
559,-2.0,-1.0,-2.0,-2.0,-1.0,-1.0,-2.0,-1.0,1650847582914781.0,0
560,0.0,1.0,4.0,2.0,0.0,2.0,0.0,-1.0,1650847582915730.0,0
561,-1.0,2.0,2.0,-2.0,-1.0,-2.0,-2.0,1.0,1650847582915730.0,0
562,1.0,-2.0,-2.0,1.0,1.0,-1.0,-1.0,-1.0,1650847582928752.0,0
563,-2.0,-3.0,-3.0,-4.0,-2.0,0.0,-1.0,-2.0,1650847582928752.0,0
564,1.0,0.0,-3.0,-2.0,-1.0,-2.0,0.0,0.0,1650847582936731.0,0
565,1.0,3.0,-2.0,0.0,1.0,-1.0,-2.0,-1.0,1650847582936731.0,0
566,-2.0,0.0,3.0,2.0,-1.0,1.0,-1.0,0.0,1650847582951758.0,0
567,1.0,-3.0,3.0,4.0,2.0,-1.0,0.0,0.0,1650847582951758.0,0
568,2.0,3.0,-1.0,0.0,-2.0,-2.0,0.0,0.0,1650847582952751.0,0
569,-1.0,-2.0,-2.0,-1.0,-2.0,-1.0,1.0,-2.0,1650847582952751.0,0
570,0.0,1.0,-4.0,-3.0,-2.0,-1.0,2.0,1.0,1650847582982888.0,0
571,0.0,1.0,-1.0,-1.0,-3.0,-1.0,-2.0,0.0,1650847582982888.0,0
572,0.0,-4.0,-2.0,-3.0,-1.0,1.0,-1.0,1.0,1650847582983845.0,0
573,-2.0,0.0,-1.0,0.0,2.0,1.0,1.0,-1.0,1650847582983845.0,0
574,0.0,-1.0,-2.0,-2.0,-2.0,-1.0,-2.0,0.0,1650847582988805.0,0
575,0.0,4.0,1.0,0.0,-1.0,-1.0,1.0,0.0,1650847582988805.0,0
576,-1.0,-1.0,2.0,-3.0,0.0,-2.0,2.0,0.0,1650847582997407.0,0
577,-1.0,0.0,-1.0,-1.0,-3.0,-1.0,-2.0,-2.0,1650847582997407.0,0
578,-2.0,0.0,2.0,-1.0,3.0,1.0,-2.0,-3.0,1650847583012023.0,0
579,1.0,-3.0,-6.0,-2.0,1.0,1.0,1.0,-2.0,1650847583012023.0,0
580,1.0,5.0,8.0,7.0,1.0,0.0,-3.0,0.0,1650847583012960.0,0
581,-3.0,-6.0,-6.0,-1.0,-2.0,-2.0,1.0,-1.0,1650847583012960.0,0
582,0.0,-2.0,4.0,5.0,-1.0,-3.0,-1.0,-2.0,1650847583034902.0,0
583,0.0,0.0,-3.0,-1.0,-2.0,0.0,2.0,0.0,1650847583034902.0,0
584,-2.0,1.0,-2.0,0.0,-1.0,-1.0,0.0,-2.0,1650847583035841.0,0
585,1.0,-1.0,0.0,-2.0,0.0,-1.0,1.0,0.0,1650847583035841.0,0
586,-2.0,-2.0,-3.0,-3.0,-1.0,-1.0,0.0,-4.0,1650847583048929.0,0
587,0.0,-2.0,1.0,1.0,-3.0,-3.0,-1.0,-1.0,1650847583048929.0,0
588,-1.0,2.0,-1.0,-2.0,-2.0,0.0,0.0,0.0,1650847583056910.0,0
589,-3.0,-1.0,3.0,3.0,0.0,1.0,0.0,0.0,1650847583056910.0,0
590,-1.0,-4.0,-5.0,-4.0,-2.0,-1.0,-1.0,1.0,1650847583071891.0,0
591,0.0,0.0,1.0,-1.0,0.0,1.0,-1.0,0.0,1650847583071891.0,0
592,3.0,0.0,-3.0,-3.0,0.0,-1.0,-1.0,-1.0,1650847583072821.0,0
593,0.0,0.0,-2.0,0.0,-2.0,-3.0,0.0,0.0,1650847583072821.0,0
594,0.0,1.0,2.0,0.0,1.0,-1.0,-2.0,0.0,1650847583094800.0,0
595,-3.0,-3.0,-2.0,0.0,1.0,0.0,0.0,-1.0,1650847583094800.0,0
596,-2.0,-5.0,2.0,0.0,0.0,-1.0,-1.0,0.0,1650847583095732.0,0
597,0.0,0.0,0.0,1.0,-1.0,0.0,-3.0,0.0,1650847583095732.0,0
598,-1.0,-2.0,-4.0,-1.0,-1.0,-2.0,-1.0,-1.0,1650847583108763.0,0
599,0.0,0.0,0.0,-1.0,-2.0,-2.0,-2.0,0.0,1650847583108763.0,0
600,-2.0,-1.0,-2.0,-4.0,-2.0,-2.0,-1.0,-1.0,1650847583116742.0,0
601,0.0,2.0,5.0,4.0,1.0,2.0,-2.0,-2.0,1650847583116742.0,0
602,0.0,1.0,-3.0,0.0,1.0,1.0,-1.0,2.0,1650847583131702.0,0
603,0.0,-1.0,-1.0,2.0,0.0,0.0,0.0,-1.0,1650847583131702.0,0
604,-1.0,-4.0,-1.0,2.0,-1.0,3.0,0.0,-2.0,1650847583132633.0,0
605,0.0,-1.0,-2.0,-3.0,-1.0,-2.0,1.0,-1.0,1650847583132633.0,0
606,-1.0,1.0,2.0,-2.0,-2.0,-1.0,0.0,-1.0,1650847583154640.0,0
607,-1.0,-4.0,-5.0,-2.0,2.0,0.0,-1.0,-1.0,1650847583154640.0,0
608,0.0,-1.0,0.0,0.0,-1.0,0.0,1.0,0.0,1650847583155572.0,0
609,-1.0,-1.0,-6.0,-5.0,-5.0,-2.0,1.0,0.0,1650847583155572.0,0
610,-2.0,-3.0,-1.0,1.0,1.0,0.0,-2.0,1.0,1650847583169233.0,0
611,1.0,2.0,4.0,1.0,0.0,-1.0,0.0,0.0,1650847583169233.0,0
612,-2.0,-1.0,-3.0,1.0,3.0,1.0,-2.0,0.0,1650847583177520.0,0
613,-2.0,-5.0,-2.0,0.0,1.0,0.0,0.0,-2.0,1650847583177520.0,0
614,1.0,4.0,0.0,-1.0,-4.0,-1.0,0.0,-1.0,1650847583192481.0,0
615,-2.0,-5.0,0.0,-1.0,-2.0,-1.0,-3.0,-2.0,1650847583192481.0,0
616,-1.0,1.0,0.0,0.0,-1.0,-1.0,-1.0,1.0,1650847583192481.0,0
617,1.0,3.0,2.0,1.0,1.0,0.0,-1.0,-1.0,1650847583192481.0,0
618,1.0,0.0,0.0,1.0,1.0,1.0,0.0,-1.0,1650847583214531.0,0
619,-1.0,2.0,0.0,-1.0,-1.0,0.0,0.0,-1.0,1650847583214531.0,0
620,0.0,3.0,3.0,1.0,-1.0,-1.0,-1.0,-2.0,1650847583215502.0,0
621,-1.0,-5.0,0.0,-1.0,-1.0,0.0,-1.0,1.0,1650847583215502.0,0
622,0.0,1.0,0.0,-1.0,-1.0,-1.0,0.0,-1.0,1650847583228533.0,0
623,1.0,-1.0,-4.0,-2.0,1.0,0.0,0.0,-2.0,1650847583228533.0,0
624,-3.0,-4.0,-3.0,0.0,-2.0,-3.0,-1.0,-2.0,1650847583237498.0,0
625,2.0,0.0,1.0,-3.0,0.0,-1.0,-2.0,0.0,1650847583237498.0,0
626,-1.0,-2.0,-3.0,0.0,-1.0,-1.0,-1.0,-1.0,1650847583251948.0,0
627,0.0,3.0,1.0,0.0,-2.0,-2.0,0.0,-2.0,1650847583251948.0,0
628,2.0,2.0,-3.0,0.0,2.0,0.0,1.0,-1.0,1650847583252971.0,0
629,-1.0,1.0,2.0,2.0,2.0,1.0,1.0,0.0,1650847583252971.0,0
630,0.0,-1.0,-1.0,0.0,-4.0,-2.0,0.0,1.0,1650847583274907.0,0
631,0.0,0.0,1.0,2.0,0.0,1.0,-2.0,1.0,1650847583274907.0,0
632,0.0,0.0,-1.0,1.0,0.0,1.0,1.0,-1.0,1650847583274907.0,0
633,0.0,-1.0,-2.0,-5.0,-2.0,-2.0,-1.0,1.0,1650847583274907.0,0
634,0.0,-5.0,2.0,2.0,-1.0,-1.0,0.0,-1.0,1650847583297474.0,0
635,-2.0,0.0,-1.0,-2.0,-1.0,-2.0,-1.0,-1.0,1650847583297474.0,0
636,2.0,1.0,4.0,0.0,-3.0,0.0,-2.0,1.0,1650847583298406.0,0
637,2.0,0.0,-2.0,-1.0,-2.0,-2.0,-1.0,-3.0,1650847583298406.0,0
638,0.0,-4.0,-4.0,-2.0,3.0,1.0,0.0,0.0,1650847583312435.0,0
639,1.0,0.0,0.0,0.0,1.0,1.0,0.0,-1.0,1650847583312435.0,0
640,-3.0,-3.0,-3.0,-1.0,1.0,0.0,-1.0,-1.0,1650847583312435.0,0
641,1.0,4.0,2.0,0.0,-1.0,-1.0,-1.0,0.0,1650847583312435.0,0
642,-2.0,0.0,0.0,0.0,-1.0,-2.0,-2.0,0.0,1650847583334375.0,0
643,1.0,0.0,1.0,0.0,-1.0,0.0,0.0,-1.0,1650847583334375.0,0
644,0.0,-3.0,0.0,-1.0,-3.0,-2.0,-2.0,-1.0,1650847583335306.0,0
645,1.0,2.0,1.0,-1.0,-1.0,0.0,1.0,-1.0,1650847583335306.0,0
646,2.0,1.0,-1.0,-1.0,0.0,-1.0,0.0,-1.0,1650847583357446.0,0
647,-1.0,-2.0,-1.0,0.0,1.0,-1.0,0.0,0.0,1650847583357446.0,0
648,-2.0,2.0,0.0,-1.0,0.0,-2.0,0.0,0.0,1650847583358409.0,0
649,-3.0,1.0,3.0,5.0,3.0,0.0,0.0,-1.0,1650847583358409.0,0
650,1.0,-1.0,-2.0,-2.0,-2.0,0.0,-1.0,-2.0,1650847583372501.0,0
651,-2.0,0.0,1.0,-1.0,0.0,-2.0,0.0,0.0,1650847583372501.0,0
652,1.0,-2.0,-1.0,-3.0,-3.0,-1.0,-1.0,-1.0,1650847583372501.0,0
653,-3.0,-5.0,-6.0,-3.0,-2.0,-2.0,-4.0,-1.0,1650847583372501.0,0
654,0.0,2.0,4.0,3.0,2.0,-1.0,-1.0,2.0,1650847583394462.0,0
655,0.0,-1.0,-1.0,-2.0,0.0,1.0,0.0,1.0,1650847583394462.0,0
656,1.0,0.0,-3.0,-3.0,-1.0,-1.0,1.0,1.0,1650847583395394.0,0
657,-1.0,0.0,-3.0,-1.0,-1.0,-2.0,1.0,1.0,1650847583395394.0,0
658,-1.0,2.0,2.0,5.0,5.0,1.0,1.0,1.0,1650847583417450.0,0
659,-2.0,0.0,3.0,3.0,-1.0,-3.0,-2.0,-2.0,1650847583417450.0,0
660,1.0,2.0,-2.0,-1.0,0.0,1.0,-2.0,-2.0,1650847583418425.0,0
661,1.0,1.0,-1.0,-2.0,-2.0,0.0,-2.0,0.0,1650847583418425.0,0
662,-4.0,-1.0,-4.0,-4.0,-4.0,-1.0,-1.0,0.0,1650847583432443.0,0
663,-1.0,-1.0,0.0,0.0,-1.0,-1.0,0.0,-1.0,1650847583432443.0,0
664,-2.0,0.0,-1.0,0.0,0.0,-2.0,0.0,1.0,1650847583432443.0,0
665,-2.0,-1.0,1.0,1.0,2.0,1.0,-2.0,1.0,1650847583432443.0,0
666,-1.0,0.0,-3.0,-3.0,-2.0,-1.0,1.0,-1.0,1650847583454388.0,0
667,-1.0,-5.0,-3.0,-1.0,-1.0,-4.0,0.0,-1.0,1650847583454388.0,0
668,-1.0,-1.0,-1.0,-1.0,-2.0,0.0,-1.0,0.0,1650847583455396.0,0
669,2.0,0.0,1.0,1.0,0.0,0.0,-1.0,0.0,1650847583455396.0,0
670,-2.0,-4.0,-2.0,-3.0,-2.0,-2.0,1.0,-1.0,1650847583478205.0,0
671,0.0,3.0,0.0,-2.0,-2.0,-1.0,-1.0,0.0,1650847583478205.0,0
672,-1.0,3.0,2.0,1.0,2.0,2.0,3.0,-2.0,1650847583478205.0,0
673,-3.0,-3.0,3.0,2.0,2.0,0.0,-1.0,-2.0,1650847583478205.0,0
674,3.0,2.0,0.0,-1.0,-1.0,-1.0,-2.0,-2.0,1650847583492237.0,0
675,0.0,-2.0,-2.0,-3.0,-2.0,0.0,-2.0,0.0,1650847583492237.0,0
676,-1.0,0.0,-3.0,-2.0,-1.0,-1.0,0.0,1.0,1650847583493175.0,0
677,0.0,-1.0,-1.0,-2.0,-1.0,-1.0,1.0,-1.0,1650847583493175.0,0
678,0.0,-1.0,0.0,-3.0,-2.0,-1.0,-1.0,0.0,1650847583514177.0,0
679,0.0,-1.0,-1.0,-1.0,-1.0,0.0,0.0,0.0,1650847583514177.0,0
680,-1.0,-7.0,0.0,0.0,0.0,-2.0,0.0,-1.0,1650847583515111.0,0
681,-1.0,-1.0,0.0,1.0,2.0,-1.0,-1.0,-1.0,1650847583515111.0,0
682,0.0,1.0,1.0,1.0,-1.0,2.0,-1.0,0.0,1650847583538229.0,0
683,2.0,3.0,-2.0,-1.0,0.0,0.0,0.0,1.0,1650847583538229.0,0
684,0.0,-4.0,-1.0,1.0,-2.0,-3.0,-3.0,-1.0,1650847583538229.0,0
685,-1.0,-2.0,-4.0,-5.0,-2.0,1.0,2.0,1.0,1650847583538229.0,0
686,-1.0,0.0,2.0,-1.0,-3.0,1.0,1.0,1.0,1650847583552374.0,0
687,-2.0,-1.0,-2.0,-1.0,2.0,1.0,-3.0,0.0,1650847583552374.0,0
688,-1.0,0.0,-1.0,-4.0,-2.0,-2.0,-2.0,0.0,1650847583552374.0,0
689,-2.0,0.0,-2.0,0.0,-1.0,-2.0,-1.0,-2.0,1650847583552374.0,0
690,-2.0,-2.0,0.0,2.0,2.0,1.0,-1.0,-1.0,1650847583574320.0,0
691,1.0,1.0,2.0,0.0,1.0,1.0,0.0,0.0,1650847583574320.0,0
692,0.0,2.0,-1.0,0.0,-4.0,-2.0,-1.0,0.0,1650847583575255.0,0
693,-2.0,-3.0,-4.0,-3.0,-4.0,0.0,-1.0,-1.0,1650847583575255.0,0
694,1.0,2.0,0.0,-1.0,0.0,-1.0,2.0,-3.0,1650847583597329.0,0
695,0.0,-2.0,2.0,4.0,2.0,-3.0,1.0,-1.0,1650847583597329.0,0
696,0.0,-3.0,0.0,-1.0,0.0,-1.0,1.0,0.0,1650847583598265.0,0
697,2.0,2.0,2.0,-1.0,-2.0,0.0,-2.0,-1.0,1650847583598265.0,0
698,-4.0,-4.0,-2.0,-1.0,0.0,-1.0,-2.0,-1.0,1650847583620758.0,0
699,-1.0,-2.0,0.0,0.0,-3.0,1.0,0.0,-1.0,1650847583620758.0,0
700,-1.0,-7.0,-2.0,-1.0,1.0,0.0,-2.0,-2.0,1650847583620758.0,0
701,3.0,11.0,3.0,-1.0,1.0,1.0,2.0,2.0,1650847583620758.0,0
702,7.0,-3.0,-3.0,-1.0,0.0,1.0,3.0,2.0,1650847583634327.0,0
703,-3.0,1.0,1.0,-1.0,0.0,-1.0,-1.0,-1.0,1650847583634327.0,0
704,1.0,3.0,1.0,2.0,0.0,1.0,0.0,-2.0,1650847583635261.0,0
705,-2.0,-5.0,-3.0,-1.0,-2.0,-1.0,-1.0,-2.0,1650847583635261.0,0
706,0.0,3.0,0.0,-2.0,-1.0,-2.0,-3.0,0.0,1650847583657719.0,0
707,0.0,-1.0,-4.0,-4.0,-4.0,-3.0,1.0,-1.0,1650847583657719.0,0
708,-2.0,1.0,-1.0,-1.0,1.0,2.0,-1.0,-1.0,1650847583658650.0,0
709,0.0,-1.0,1.0,3.0,2.0,1.0,-1.0,-1.0,1650847583658650.0,0
710,-2.0,1.0,1.0,-1.0,-1.0,0.0,-1.0,1.0,1650847583671802.0,0
711,0.0,-4.0,0.0,1.0,-1.0,1.0,0.0,0.0,1650847583671802.0,0
712,3.0,5.0,1.0,-3.0,-3.0,-3.0,0.0,-1.0,1650847583672744.0,0
713,1.0,-1.0,-1.0,0.0,1.0,0.0,3.0,3.0,1650847583672744.0,0
714,-4.0,0.0,-2.0,-3.0,-1.0,-2.0,-3.0,-2.0,1650847583694498.0,0
715,-5.0,-4.0,-1.0,-1.0,0.0,1.0,-2.0,-2.0,1650847583694498.0,0
716,1.0,-1.0,-1.0,1.0,1.0,1.0,1.0,1.0,1650847583695429.0,0
717,0.0,3.0,1.0,-1.0,0.0,-1.0,0.0,-2.0,1650847583695429.0,0
718,0.0,-3.0,-1.0,2.0,1.0,1.0,-2.0,-2.0,1650847583718177.0,0
719,-1.0,4.0,0.0,-2.0,-3.0,-1.0,0.0,-1.0,1650847583718177.0,0
720,0.0,2.0,3.0,1.0,0.0,-1.0,-2.0,-1.0,1650847583718177.0,0
721,-1.0,-4.0,-7.0,-4.0,-4.0,-4.0,0.0,-1.0,1650847583718177.0,0
722,-2.0,-1.0,-1.0,0.0,1.0,-1.0,0.0,-2.0,1650847583732209.0,0
723,2.0,-1.0,-2.0,1.0,2.0,0.0,-1.0,0.0,1650847583732209.0,0
724,0.0,-1.0,0.0,-2.0,-3.0,-3.0,-1.0,0.0,1650847583733173.0,0
725,-3.0,-2.0,1.0,2.0,-2.0,0.0,-2.0,-2.0,1650847583733173.0,0
726,1.0,2.0,2.0,3.0,2.0,1.0,1.0,0.0,1650847583754092.0,0
727,2.0,1.0,-4.0,-3.0,-3.0,-6.0,0.0,0.0,1650847583754092.0,0
728,-1.0,0.0,1.0,-2.0,-1.0,-1.0,-3.0,0.0,1650847583755088.0,0
729,1.0,0.0,-1.0,-1.0,0.0,1.0,0.0,0.0,1650847583755088.0,0
730,-2.0,-2.0,-1.0,-1.0,0.0,1.0,1.0,3.0,1650847583778195.0,0
731,2.0,-2.0,0.0,1.0,-2.0,-2.0,4.0,3.0,1650847583778195.0,0
732,-3.0,0.0,-1.0,0.0,-1.0,1.0,2.0,-3.0,1650847583778195.0,0
733,0.0,3.0,0.0,-1.0,-1.0,-2.0,-2.0,-2.0,1650847583778195.0,0
734,2.0,0.0,0.0,-4.0,-1.0,-1.0,1.0,-1.0,1650847583792258.0,0
735,-2.0,-3.0,0.0,3.0,0.0,-1.0,-1.0,-1.0,1650847583792258.0,0
736,1.0,5.0,-1.0,-5.0,-3.0,-2.0,1.0,-2.0,1650847583793259.0,0
737,0.0,-5.0,0.0,1.0,2.0,2.0,2.0,-1.0,1650847583793259.0,0
738,0.0,-2.0,-1.0,-3.0,-5.0,-3.0,-1.0,1.0,1650847583823158.0,0
739,0.0,1.0,1.0,0.0,1.0,1.0,-2.0,-1.0,1650847583823158.0,0
740,0.0,0.0,0.0,1.0,0.0,0.0,1.0,0.0,1650847583823773.0,0
741,-3.0,0.0,-1.0,0.0,1.0,-1.0,1.0,-1.0,1650847583823773.0,0
742,-1.0,1.0,-1.0,0.0,0.0,-2.0,-2.0,-1.0,1650847583838232.0,0
743,-1.0,-2.0,-2.0,-1.0,-2.0,0.0,-7.0,-3.0,1650847583838232.0,0
744,-6.0,-5.0,-2.0,4.0,2.0,2.0,3.0,1.0,1650847583838232.0,0
745,5.0,6.0,0.0,-5.0,-2.0,-2.0,0.0,2.0,1650847583838232.0,0
746,-7.0,-7.0,-4.0,-1.0,0.0,-5.0,0.0,-4.0,1650847583851265.0,0
747,2.0,2.0,0.0,0.0,1.0,2.0,1.0,0.0,1650847583851265.0,0
748,0.0,0.0,0.0,1.0,1.0,0.0,-6.0,0.0,1650847583859244.0,0
749,0.0,-6.0,-2.0,0.0,0.0,0.0,0.0,-1.0,1650847583859244.0,0
750,0.0,-2.0,2.0,4.0,3.0,4.0,2.0,-2.0,1650847583874255.0,0
751,5.0,18.0,2.0,-6.0,-4.0,-7.0,-1.0,-1.0,1650847583874255.0,0
752,-3.0,-10.0,-6.0,1.0,-1.0,1.0,-3.0,-1.0,1650847583875185.0,0
753,-4.0,-3.0,-6.0,-5.0,-1.0,-4.0,0.0,0.0,1650847583875185.0,0
754,0.0,-3.0,0.0,0.0,-1.0,0.0,-2.0,2.0,1650847583897351.0,0
755,-1.0,-2.0,1.0,1.0,1.0,1.0,1.0,1.0,1650847583897351.0,0
756,0.0,0.0,3.0,1.0,0.0,0.0,-1.0,1.0,1650847583898305.0,0
757,-2.0,1.0,2.0,0.0,-2.0,-6.0,-7.0,-1.0,1650847583898305.0,0
758,-5.0,-5.0,-6.0,0.0,2.0,1.0,1.0,-2.0,1650847583911359.0,0
759,2.0,0.0,2.0,0.0,3.0,10.0,8.0,0.0,1650847583911359.0,0
760,7.0,3.0,-1.0,-7.0,-5.0,-12.0,-3.0,5.0,1650847583919404.0,0
761,-3.0,-3.0,-2.0,0.0,-5.0,-5.0,-11.0,-4.0,1650847583919404.0,0
762,-2.0,2.0,2.0,1.0,-1.0,-4.0,-3.0,-4.0,1650847583934364.0,0
763,-2.0,1.0,-1.0,-3.0,0.0,4.0,-4.0,-12.0,1650847583934364.0,0
764,-4.0,-5.0,1.0,5.0,5.0,3.0,7.0,-2.0,1650847583935295.0,0
765,10.0,5.0,-2.0,-5.0,-6.0,-2.0,15.0,22.0,1650847583935295.0,0
766,0.0,3.0,2.0,1.0,2.0,1.0,0.0,-6.0,1650847583965281.0,0
767,-8.0,-7.0,-1.0,-1.0,-1.0,-5.0,-5.0,-15.0,1650847583965281.0,0
768,1.0,3.0,0.0,-1.0,0.0,-2.0,-9.0,-4.0,1650847583966213.0,0
769,-6.0,-12.0,-5.0,-3.0,-2.0,-2.0,-10.0,-9.0,1650847583966213.0,0
770,2.0,3.0,-2.0,-4.0,-2.0,0.0,4.0,8.0,1650847583971200.0,0
771,2.0,-1.0,0.0,3.0,2.0,2.0,1.0,7.0,1650847583971200.0,0
772,-1.0,2.0,1.0,-2.0,-1.0,0.0,-4.0,-3.0,1650847583979245.0,0
773,-3.0,-4.0,-1.0,3.0,3.0,2.0,5.0,0.0,1650847583979245.0,0
774,3.0,-9.0,-4.0,-3.0,-1.0,-1.0,-2.0,0.0,1650847583994204.0,0
775,1.0,21.0,4.0,0.0,-2.0,-5.0,-2.0,1.0,1650847583994204.0,0
776,-2.0,-7.0,0.0,-1.0,-2.0,-11.0,1.0,-1.0,1650847583995136.0,0
777,0.0,6.0,6.0,5.0,5.0,16.0,5.0,0.0,1650847583995136.0,0
778,3.0,1.0,0.0,-3.0,-4.0,-8.0,1.0,3.0,1650847584018140.0,0
779,-1.0,-7.0,-2.0,0.0,-3.0,-7.0,-5.0,1.0,1650847584018140.0,0
780,2.0,2.0,-4.0,-7.0,-2.0,1.0,0.0,1.0,1650847584018140.0,0
781,-4.0,-1.0,2.0,4.0,3.0,-1.0,-4.0,-16.0,1650847584018140.0,0
782,-7.0,6.0,4.0,1.0,2.0,4.0,11.0,2.0,1650847584031177.0,0
783,-1.0,-10.0,-4.0,-2.0,-1.0,0.0,2.0,4.0,1650847584031177.0,0
784,-3.0,-4.0,1.0,4.0,2.0,1.0,-2.0,0.0,1650847584040086.0,0
785,3.0,0.0,1.0,-1.0,1.0,1.0,-5.0,-2.0,1650847584040086.0,0
786,2.0,2.0,-2.0,-2.0,-1.0,-1.0,-3.0,-2.0,1650847584054157.0,0
787,0.0,-4.0,-3.0,-2.0,-3.0,-5.0,-1.0,2.0,1650847584054157.0,0
788,1.0,0.0,-1.0,0.0,1.0,6.0,2.0,1.0,1650847584055154.0,0
789,-3.0,-4.0,-3.0,1.0,-1.0,-3.0,-2.0,-1.0,1650847584055154.0,0
790,-1.0,-1.0,0.0,2.0,-1.0,-1.0,-1.0,0.0,1650847584077836.0,0
791,-1.0,4.0,0.0,-4.0,-3.0,-2.0,0.0,1.0,1650847584077836.0,0
792,0.0,0.0,0.0,-2.0,-1.0,-4.0,-5.0,-4.0,1650847584078833.0,0
793,-1.0,4.0,1.0,0.0,0.0,3.0,7.0,3.0,1650847584078833.0,0
794,1.0,0.0,1.0,-3.0,-2.0,-4.0,-5.0,-2.0,1650847584091832.0,0
795,-1.0,-4.0,-1.0,1.0,2.0,9.0,2.0,0.0,1650847584091832.0,0
796,1.0,8.0,0.0,1.0,-1.0,-3.0,0.0,0.0,1650847584099776.0,0
797,-1.0,-2.0,-1.0,0.0,0.0,-1.0,2.0,1.0,1650847584099776.0,0
798,0.0,-3.0,1.0,1.0,-2.0,-5.0,-6.0,-1.0,1650847584114803.0,0
799,-1.0,2.0,-3.0,-6.0,-4.0,-3.0,-2.0,-1.0,1650847584114803.0,0
800,1.0,1.0,0.0,0.0,2.0,0.0,-3.0,2.0,1650847584115734.0,0
801,-2.0,-5.0,0.0,-2.0,-2.0,0.0,5.0,1.0,1650847584115734.0,0
802,-3.0,-1.0,-1.0,3.0,2.0,0.0,-6.0,-5.0,1650847584137869.0,0
803,-2.0,-3.0,-1.0,2.0,3.0,0.0,3.0,2.0,1650847584137869.0,0
804,3.0,2.0,-1.0,-3.0,-4.0,-3.0,1.0,0.0,1650847584138896.0,0
805,-3.0,1.0,2.0,0.0,1.0,1.0,1.0,-6.0,1650847584138896.0,0
806,4.0,1.0,1.0,0.0,-1.0,1.0,-5.0,3.0,1650847584151857.0,0
807,-1.0,-2.0,1.0,1.0,-2.0,-9.0,-7.0,1.0,1650847584151857.0,0
808,-2.0,0.0,-2.0,-1.0,0.0,6.0,2.0,-3.0,1650847584159804.0,0
809,4.0,4.0,4.0,-1.0,1.0,6.0,12.0,5.0,1650847584159804.0,0
810,-4.0,-12.0,-21.0,-5.0,3.0,-2.0,2.0,-4.0,1650847584174902.0,0
811,0.0,3.0,2.0,-2.0,-1.0,-4.0,3.0,2.0,1650847584174902.0,0
812,1.0,-6.0,1.0,0.0,-1.0,1.0,-8.0,-1.0,1650847584174902.0,0
813,1.0,3.0,6.0,1.0,-3.0,-4.0,-3.0,3.0,1650847584174902.0,0
814,1.0,4.0,-1.0,-4.0,2.0,3.0,2.0,2.0,1650847584197837.0,0
815,-2.0,-6.0,1.0,3.0,-1.0,2.0,0.0,-3.0,1650847584197837.0,0
816,0.0,-1.0,6.0,-1.0,-4.0,-3.0,5.0,1.0,1650847584198772.0,0
817,-5.0,-10.0,-26.0,-1.0,4.0,-5.0,-9.0,-5.0,1650847584198772.0,0
818,1.0,4.0,6.0,-3.0,-4.0,1.0,0.0,7.0,1650847584220091.0,0
819,-3.0,2.0,10.0,-5.0,-5.0,3.0,-2.0,-15.0,1650847584220091.0,0
820,-7.0,-13.0,-22.0,0.0,-3.0,-4.0,3.0,2.0,1650847584221024.0,0
821,5.0,3.0,6.0,-5.0,-9.0,-1.0,-6.0,-1.0,1650847584221024.0,0
822,0.0,-1.0,1.0,4.0,6.0,4.0,3.0,-2.0,1650847584235070.0,0
823,-1.0,-6.0,-5.0,-1.0,-1.0,-2.0,1.0,5.0,1650847584235070.0,0
824,6.0,3.0,15.0,11.0,5.0,8.0,1.0,1.0,1650847584235070.0,0
825,-9.0,-3.0,-10.0,-7.0,-5.0,-13.0,2.0,-8.0,1650847584235070.0,0
826,6.0,-9.0,4.0,-7.0,-5.0,-1.0,-3.0,1.0,1650847584257925.0,0
827,-1.0,10.0,25.0,8.0,0.0,-1.0,-7.0,-17.0,1650847584257925.0,0
828,12.0,-1.0,-30.0,-7.0,0.0,-4.0,0.0,26.0,1650847584258857.0,0
829,-9.0,2.0,-4.0,1.0,1.0,-2.0,1.0,28.0,1650847584258857.0,0
830,-5.0,0.0,-1.0,-6.0,-6.0,-6.0,-13.0,-50.0,1650847584279955.0,0
831,0.0,-9.0,4.0,1.0,3.0,-2.0,-5.0,-6.0,1650847584279955.0,2
832,6.0,9.0,3.0,-2.0,-6.0,2.0,5.0,-3.0,1650847584280952.0,2
833,8.0,-2.0,12.0,3.0,10.0,5.0,3.0,8.0,1650847584280952.0,2
834,-3.0,7.0,-3.0,7.0,2.0,-3.0,1.0,5.0,1650847584294917.0,2
835,2.0,-4.0,-7.0,-3.0,5.0,16.0,12.0,17.0,1650847584294917.0,2
836,-5.0,4.0,0.0,-12.0,-7.0,-5.0,-2.0,-11.0,1650847584294917.0,2
837,5.0,3.0,16.0,5.0,3.0,1.0,0.0,-12.0,1650847584294917.0,2
838,-9.0,-5.0,-12.0,2.0,1.0,1.0,3.0,6.0,1650847584318004.0,2
839,2.0,0.0,-16.0,1.0,1.0,-1.0,2.0,2.0,1650847584318004.0,2
840,-3.0,2.0,10.0,5.0,4.0,2.0,2.0,7.0,1650847584318940.0,2
841,3.0,7.0,-15.0,-14.0,-6.0,-3.0,-4.0,-7.0,1650847584318940.0,2
842,0.0,-6.0,5.0,0.0,-3.0,-1.0,-5.0,1.0,1650847584348091.0,2
843,-6.0,-14.0,-3.0,1.0,0.0,-1.0,6.0,6.0,1650847584348091.0,2
844,-3.0,4.0,23.0,6.0,0.0,2.0,1.0,-8.0,1650847584348091.0,2
845,5.0,7.0,-9.0,-16.0,-8.0,-5.0,-6.0,1.0,1650847584348091.0,2
846,1.0,2.0,-36.0,-2.0,-1.0,0.0,4.0,5.0,1650847584354077.0,2
847,4.0,2.0,19.0,2.0,-2.0,-4.0,-2.0,1.0,1650847584354077.0,2
848,-4.0,-10.0,-9.0,-1.0,-1.0,-1.0,0.0,-8.0,1650847584355079.0,2
849,7.0,10.0,11.0,12.0,6.0,9.0,7.0,7.0,1650847584355079.0,2
850,-4.0,9.0,14.0,-2.0,-4.0,-2.0,2.0,-4.0,1650847584378136.0,2
851,-15.0,-7.0,11.0,0.0,-5.0,-3.0,-1.0,3.0,1650847584378136.0,2
852,1.0,-8.0,-3.0,0.0,2.0,-1.0,-9.0,-9.0,1650847584378911.0,2
853,-3.0,2.0,4.0,9.0,-2.0,-7.0,-6.0,-1.0,1650847584378911.0,2
854,4.0,1.0,0.0,-3.0,-2.0,-5.0,-3.0,5.0,1650847584399822.0,2
855,-1.0,-8.0,1.0,5.0,1.0,1.0,-2.0,-4.0,1650847584399822.0,2
856,-4.0,-1.0,12.0,3.0,4.0,4.0,11.0,3.0,1650847584400829.0,2
857,1.0,1.0,-5.0,-6.0,-6.0,-3.0,-5.0,-2.0,1650847584400829.0,2
858,12.0,4.0,-12.0,-4.0,-3.0,-3.0,0.0,1.0,1650847584414853.0,2
859,8.0,1.0,-3.0,-2.0,0.0,-4.0,-6.0,-4.0,1650847584414853.0,2
860,-5.0,-7.0,-12.0,-6.0,-5.0,-4.0,-2.0,-2.0,1650847584415784.0,2
861,-5.0,-13.0,1.0,6.0,2.0,4.0,-1.0,-7.0,1650847584415784.0,2
862,5.0,11.0,19.0,0.0,4.0,5.0,0.0,3.0,1650847584437513.0,2
863,0.0,8.0,-14.0,-5.0,-2.0,-5.0,1.0,10.0,1650847584437513.0,2
864,11.0,3.0,-2.0,-2.0,1.0,6.0,7.0,-1.0,1650847584438513.0,2
865,-4.0,-7.0,11.0,8.0,2.0,-1.0,0.0,3.0,1650847584438513.0,2
866,-15.0,-13.0,3.0,2.0,-4.0,-2.0,-3.0,-2.0,1650847584460643.0,2
867,4.0,8.0,21.0,7.0,2.0,0.0,1.0,-6.0,1650847584460643.0,2
868,-1.0,-3.0,-26.0,-9.0,-1.0,-3.0,-3.0,4.0,1650847584460643.0,2
869,-3.0,-6.0,0.0,0.0,-1.0,-3.0,-3.0,-9.0,1650847584460643.0,2
870,4.0,-5.0,-7.0,-1.0,3.0,5.0,1.0,5.0,1650847584474668.0,2
871,1.0,1.0,-3.0,-1.0,0.0,-3.0,-4.0,-1.0,1650847584474668.0,2
872,-6.0,2.0,16.0,0.0,-4.0,-2.0,-2.0,-2.0,1650847584475623.0,2
873,-3.0,-11.0,4.0,1.0,0.0,2.0,2.0,-5.0,1650847584475623.0,2
874,-1.0,-1.0,13.0,6.0,-1.0,1.0,0.0,2.0,1650847584497428.0,2
875,1.0,2.0,-5.0,-6.0,-4.0,8.0,8.0,6.0,1650847584497428.0,2
876,-3.0,-6.0,-21.0,2.0,5.0,3.0,5.0,-3.0,1650847584498426.0,2
877,-1.0,-8.0,-14.0,-3.0,0.0,-4.0,-2.0,1.0,1650847584498426.0,2
878,1.0,13.0,24.0,-1.0,-6.0,-10.0,-6.0,-2.0,1650847584520433.0,2
879,-5.0,-6.0,-43.0,-12.0,-3.0,-2.0,-6.0,-5.0,1650847584520433.0,2
880,-8.0,0.0,28.0,8.0,1.0,-1.0,-6.0,-3.0,1650847584521365.0,2
881,17.0,3.0,-34.0,-12.0,-5.0,-1.0,1.0,5.0,1650847584521365.0,2
882,-4.0,-1.0,16.0,11.0,6.0,6.0,11.0,-1.0,1650847584534396.0,2
883,10.0,3.0,-6.0,-5.0,-5.0,-10.0,-6.0,12.0,1650847584534396.0,2
884,4.0,2.0,1.0,-4.0,-2.0,3.0,0.0,-2.0,1650847584535327.0,2
885,-8.0,-2.0,11.0,2.0,0.0,-3.0,-4.0,-2.0,1650847584535327.0,2
886,-2.0,-7.0,13.0,6.0,1.0,-1.0,-1.0,-2.0,1650847584557536.0,2
887,8.0,10.0,-2.0,0.0,0.0,-1.0,-1.0,-3.0,1650847584557536.0,2
888,-7.0,-16.0,-18.0,1.0,-2.0,-10.0,-12.0,-4.0,1650847584558477.0,2
889,5.0,14.0,18.0,-2.0,-3.0,-4.0,-1.0,-2.0,1650847584558477.0,2
890,-6.0,-13.0,-7.0,-5.0,-2.0,7.0,7.0,5.0,1650847584579894.0,2
891,-4.0,-6.0,-11.0,2.0,3.0,3.0,3.0,-1.0,1650847584579894.0,2
892,5.0,7.0,6.0,-6.0,-4.0,-7.0,-2.0,3.0,1650847584580841.0,2
893,-11.0,-10.0,-6.0,3.0,4.0,3.0,1.0,-4.0,1650847584580841.0,2
894,5.0,4.0,-18.0,-5.0,-3.0,-3.0,0.0,-2.0,1650847584594594.0,2
895,2.0,3.0,29.0,9.0,2.0,1.0,0.0,0.0,1650847584594594.0,2
896,-1.0,4.0,-5.0,0.0,0.0,3.0,3.0,-2.0,1650847584595585.0,2
897,-3.0,-4.0,-11.0,-1.0,-3.0,-3.0,-1.0,0.0,1650847584595585.0,2
898,0.0,4.0,12.0,-9.0,-5.0,-5.0,-1.0,5.0,1650847584618200.0,2
899,-2.0,-3.0,-17.0,0.0,0.0,1.0,0.0,-3.0,1650847584618200.0,2
900,1.0,3.0,0.0,-5.0,-6.0,-2.0,1.0,2.0,1650847584618200.0,2
901,2.0,4.0,12.0,5.0,2.0,8.0,10.0,1.0,1650847584618200.0,2
902,-2.0,8.0,5.0,4.0,4.0,4.0,4.0,0.0,1650847584640410.0,2
903,2.0,-1.0,-16.0,-3.0,0.0,-8.0,-5.0,2.0,1650847584640410.0,2
904,-16.0,-6.0,-6.0,0.0,-1.0,-5.0,-5.0,-19.0,1650847584641367.0,2
905,11.0,5.0,-2.0,-3.0,0.0,1.0,-3.0,1.0,1650847584641367.0,2
906,-4.0,0.0,9.0,4.0,0.0,6.0,-1.0,-7.0,1650847584654332.0,2
907,-6.0,0.0,7.0,0.0,0.0,-2.0,0.0,-2.0,1650847584654332.0,2
908,5.0,-1.0,10.0,11.0,8.0,3.0,3.0,1.0,1650847584655311.0,2
909,-12.0,-1.0,-29.0,-11.0,-3.0,-2.0,-2.0,0.0,1650847584655311.0,2
910,0.0,1.0,5.0,-2.0,-2.0,-2.0,1.0,4.0,1650847584678166.0,2
911,-1.0,-6.0,-11.0,-2.0,2.0,4.0,1.0,-3.0,1650847584678166.0,2
912,-3.0,-7.0,-27.0,-6.0,-5.0,-2.0,0.0,5.0,1650847584678881.0,2
913,14.0,16.0,28.0,5.0,0.0,1.0,0.0,-4.0,1650847584678881.0,2
914,-1.0,-11.0,-15.0,-4.0,-3.0,-5.0,-3.0,3.0,1650847584700678.0,2
915,-3.0,-6.0,1.0,-1.0,-2.0,2.0,1.0,0.0,1650847584700678.0,2
916,1.0,10.0,26.0,3.0,1.0,0.0,2.0,1.0,1650847584700678.0,2
917,0.0,-7.0,-6.0,0.0,-3.0,-2.0,-3.0,1.0,1650847584700678.0,2
918,7.0,6.0,9.0,3.0,-2.0,-4.0,-1.0,0.0,1650847584714829.0,2
919,4.0,1.0,-19.0,-6.0,-3.0,3.0,3.0,-1.0,1650847584714829.0,2
920,-4.0,-15.0,-2.0,0.0,4.0,1.0,-1.0,2.0,1650847584715761.0,2
921,0.0,6.0,-7.0,-2.0,-4.0,-6.0,-5.0,-4.0,1650847584715761.0,2
922,-5.0,-5.0,24.0,5.0,3.0,8.0,7.0,-1.0,1650847584737768.0,2
923,-4.0,-4.0,-11.0,-3.0,-2.0,0.0,1.0,0.0,1650847584737768.0,2
924,3.0,2.0,-25.0,-6.0,-2.0,-2.0,-2.0,-2.0,1650847584738700.0,2
925,-3.0,-5.0,-9.0,-1.0,-1.0,0.0,-5.0,1.0,1650847584738700.0,2
926,6.0,10.0,-2.0,-1.0,-2.0,-2.0,0.0,-1.0,1650847584759858.0,2
927,-5.0,-4.0,8.0,2.0,6.0,6.0,2.0,1.0,1650847584759858.0,2
928,-6.0,-11.0,6.0,-3.0,-4.0,-4.0,-3.0,1.0,1650847584760787.0,2
929,4.0,-3.0,4.0,2.0,1.0,1.0,-3.0,-4.0,1650847584760787.0,2
930,-1.0,-1.0,-20.0,-1.0,-2.0,-5.0,-7.0,-7.0,1650847584773837.0,2
931,10.0,1.0,9.0,2.0,0.0,1.0,6.0,7.0,1650847584773837.0,2
932,-27.0,-9.0,6.0,2.0,1.0,-2.0,-3.0,-4.0,1650847584781884.0,2
933,-1.0,3.0,13.0,1.0,1.0,2.0,3.0,1.0,1650847584781884.0,2
934,5.0,-3.0,-27.0,-4.0,0.0,0.0,-1.0,-2.0,1650847584798160.0,2
935,-1.0,3.0,6.0,-4.0,-5.0,-5.0,-6.0,-3.0,1650847584798160.0,2
936,11.0,9.0,4.0,-3.0,-1.0,3.0,3.0,1.0,1650847584798160.0,2
937,-4.0,-9.0,8.0,5.0,3.0,1.0,5.0,4.0,1650847584798160.0,2
938,-6.0,6.0,-14.0,-10.0,-4.0,-1.0,1.0,1.0,1650847584819839.0,2
939,14.0,1.0,2.0,-4.0,-1.0,-3.0,-3.0,1.0,1650847584819839.0,2
940,6.0,12.0,20.0,5.0,0.0,0.0,-2.0,-2.0,1650847584820839.0,2
941,-5.0,-7.0,-26.0,-6.0,-2.0,-1.0,-4.0,-5.0,1650847584820839.0,2
942,7.0,8.0,15.0,10.0,1.0,-6.0,-7.0,2.0,1650847584833870.0,2
943,-13.0,-20.0,-42.0,-17.0,-5.0,-3.0,-1.0,-3.0,1650847584833870.0,2
944,12.0,15.0,21.0,-1.0,-3.0,1.0,4.0,7.0,1650847584841848.0,2
945,-4.0,-9.0,-46.0,-12.0,-3.0,-5.0,2.0,0.0,1650847584841848.0,2
946,-3.0,-12.0,0.0,1.0,2.0,2.0,-1.0,4.0,1650847584857806.0,2
947,-4.0,5.0,13.0,4.0,0.0,-4.0,-2.0,-4.0,1650847584857806.0,2
948,3.0,2.0,2.0,-3.0,-2.0,-1.0,-2.0,1.0,1650847584858737.0,2
949,9.0,7.0,7.0,-2.0,-3.0,-4.0,-2.0,-1.0,1650847584858737.0,2
950,-7.0,-8.0,-7.0,-1.0,2.0,3.0,-2.0,-4.0,1650847584880706.0,2
951,0.0,11.0,15.0,5.0,5.0,0.0,-3.0,-6.0,1650847584880706.0,2
952,3.0,-14.0,29.0,4.0,-6.0,-5.0,-5.0,7.0,1650847584880706.0,2
953,-5.0,3.0,5.0,4.0,7.0,6.0,3.0,0.0,1650847584880706.0,2
954,-2.0,-9.0,-43.0,-11.0,0.0,-1.0,-5.0,-2.0,1650847584893643.0,2
955,-2.0,11.0,37.0,14.0,3.0,-4.0,0.0,-5.0,1650847584893643.0,2
956,-5.0,-10.0,-55.0,-19.0,-6.0,-5.0,-5.0,0.0,1650847584901688.0,2
957,2.0,4.0,36.0,4.0,0.0,0.0,2.0,-2.0,1650847584901688.0,2
958,-4.0,0.0,11.0,3.0,0.0,-4.0,-3.0,0.0,1650847584916648.0,2
959,1.0,-1.0,-4.0,3.0,1.0,0.0,-3.0,-3.0,1650847584916648.0,2
960,5.0,12.0,4.0,3.0,3.0,3.0,8.0,5.0,1650847584924627.0,2
961,-14.0,-18.0,-4.0,-1.0,-4.0,2.0,1.0,4.0,1650847584924627.0,2
962,14.0,5.0,7.0,-7.0,-3.0,-2.0,0.0,4.0,1650847584940529.0,2
963,0.0,0.0,-11.0,3.0,-2.0,-4.0,-2.0,-2.0,1650847584940529.0,2
964,4.0,12.0,18.0,0.0,-2.0,0.0,-1.0,0.0,1650847584940529.0,2
965,-4.0,-5.0,-27.0,-3.0,2.0,0.0,-1.0,5.0,1650847584940529.0,2
966,-10.0,2.0,38.0,10.0,1.0,2.0,-1.0,-7.0,1650847584953841.0,2
967,-3.0,-9.0,-36.0,-12.0,-5.0,-3.0,-2.0,0.0,1650847584953841.0,2
968,-3.0,-1.0,2.0,3.0,1.0,0.0,1.0,-2.0,1650847584962529.0,2
969,7.0,4.0,10.0,0.0,1.0,-3.0,-4.0,-1.0,1650847584962529.0,2
970,-7.0,-5.0,-10.0,-1.0,0.0,0.0,-1.0,-4.0,1650847584977629.0,2
971,1.0,3.0,16.0,3.0,0.0,4.0,2.0,4.0,1650847584977629.0,2
972,-2.0,3.0,-9.0,-1.0,3.0,3.0,1.0,-5.0,1650847584978561.0,2
973,1.0,2.0,6.0,4.0,2.0,-3.0,-3.0,-2.0,1650847584978561.0,2
974,6.0,-5.0,-1.0,-2.0,-2.0,-4.0,1.0,2.0,1650847584999828.0,2
975,-3.0,6.0,28.0,0.0,-4.0,0.0,0.0,1.0,1650847584999828.0,2
976,-4.0,-12.0,-51.0,-10.0,2.0,4.0,3.0,0.0,1650847585000840.0,2
977,0.0,10.0,27.0,4.0,-4.0,-3.0,0.0,-1.0,1650847585000840.0,2
978,0.0,-1.0,-10.0,-4.0,0.0,-2.0,-2.0,2.0,1650847585013860.0,2
979,-13.0,-10.0,-3.0,-3.0,0.0,-3.0,-4.0,-7.0,1650847585013860.0,2
980,17.0,4.0,-5.0,2.0,0.0,-5.0,-4.0,-2.0,1650847585021839.0,2
981,-1.0,-2.0,11.0,1.0,-1.0,7.0,8.0,3.0,1650847585021839.0,2
982,6.0,-3.0,-14.0,-1.0,-1.0,-3.0,-2.0,-4.0,1650847585038197.0,2
983,-4.0,1.0,-10.0,-6.0,-3.0,3.0,4.0,6.0,1650847585038197.0,2
984,-10.0,-2.0,44.0,17.0,2.0,-4.0,-6.0,-12.0,1650847585038197.0,2
985,8.0,-5.0,-46.0,-13.0,-3.0,-4.0,-8.0,-6.0,1650847585038197.0,2
986,-3.0,-7.0,4.0,5.0,4.0,5.0,5.0,6.0,1650847585059896.0,2
987,13.0,14.0,11.0,2.0,1.0,-1.0,-4.0,0.0,1650847585059896.0,2
988,-10.0,-10.0,-8.0,-3.0,-5.0,3.0,2.0,2.0,1650847585060839.0,2
989,-9.0,-2.0,14.0,2.0,-1.0,-3.0,1.0,-2.0,1650847585060839.0,2
990,2.0,5.0,-1.0,-1.0,1.0,-2.0,-1.0,1.0,1650847585073977.0,2
991,4.0,-2.0,-8.0,-4.0,-1.0,0.0,0.0,1.0,1650847585073977.0,2
992,3.0,10.0,10.0,-1.0,0.0,1.0,0.0,0.0,1650847585081953.0,2
993,-4.0,1.0,2.0,1.0,3.0,0.0,0.0,0.0,1650847585081953.0,2
994,0.0,-5.0,-9.0,-5.0,-3.0,-4.0,-5.0,-6.0,1650847585098033.0,2
995,-4.0,0.0,27.0,8.0,0.0,-6.0,-4.0,0.0,1650847585098033.0,2
996,-1.0,-6.0,-19.0,-4.0,-1.0,3.0,3.0,1.0,1650847585098977.0,2
997,5.0,9.0,-11.0,-6.0,-5.0,-5.0,-6.0,-4.0,1650847585098977.0,2
998,-8.0,-2.0,1.0,0.0,0.0,1.0,4.0,7.0,1650847585120146.0,2
999,-5.0,-7.0,3.0,3.0,3.0,3.0,2.0,-1.0,1650847585120146.0,2
1000,4.0,0.0,5.0,2.0,-2.0,-1.0,-3.0,4.0,1650847585121076.0,2
1001,-7.0,-3.0,-3.0,-3.0,-6.0,-6.0,-6.0,-14.0,1650847585121076.0,2
1002,4.0,8.0,6.0,3.0,0.0,7.0,7.0,4.0,1650847585133843.0,2
1003,-3.0,-5.0,-5.0,-2.0,-4.0,-4.0,-2.0,-3.0,1650847585133843.0,2
1004,-1.0,-7.0,-3.0,1.0,3.0,0.0,0.0,1.0,1650847585142293.0,2
1005,-3.0,8.0,7.0,-5.0,-4.0,-2.0,1.0,1.0,1650847585142293.0,2
1006,-1.0,-4.0,-6.0,0.0,0.0,-1.0,-2.0,-1.0,1650847585157473.0,2
1007,-1.0,-3.0,-6.0,-1.0,-1.0,3.0,4.0,0.0,1650847585157473.0,2
1008,1.0,1.0,-1.0,1.0,2.0,0.0,1.0,-1.0,1650847585158440.0,2
1009,0.0,3.0,8.0,2.0,0.0,1.0,-1.0,1.0,1650847585158440.0,2
1010,0.0,-5.0,-4.0,-4.0,-3.0,-3.0,-2.0,-1.0,1650847585180602.0,2
1011,-3.0,-1.0,-6.0,-2.0,0.0,3.0,0.0,0.0,1650847585180602.0,2
1012,-1.0,-5.0,-3.0,-1.0,0.0,-2.0,-2.0,-3.0,1650847585180602.0,2
1013,0.0,8.0,7.0,5.0,2.0,3.0,1.0,0.0,1650847585180602.0,2
1014,1.0,-2.0,3.0,2.0,1.0,-2.0,-2.0,0.0,1650847585202789.0,2
1015,0.0,-12.0,-14.0,-4.0,-2.0,1.0,1.0,0.0,1650847585202789.0,2
1016,-1.0,10.0,2.0,-3.0,-2.0,-2.0,-1.0,-2.0,1650847585203720.0,2
1017,1.0,4.0,3.0,-1.0,-2.0,0.0,0.0,5.0,1650847585203720.0,2
1018,0.0,3.0,3.0,3.0,2.0,3.0,1.0,-2.0,1650847585218200.0,2
1019,-1.0,-16.0,-7.0,2.0,0.0,0.0,-2.0,0.0,1650847585218200.0,2
1020,0.0,16.0,3.0,-6.0,-4.0,-3.0,-3.0,0.0,1650847585218200.0,2
1021,0.0,-11.0,1.0,6.0,2.0,-1.0,0.0,-1.0,1650847585218200.0,2
1022,0.0,-4.0,-4.0,-6.0,-3.0,-2.0,0.0,0.0,1650847585240145.0,2
1023,2.0,20.0,9.0,3.0,3.0,-1.0,1.0,-1.0,1650847585240145.0,2
1024,-3.0,-22.0,-9.0,-2.0,-3.0,-3.0,0.0,-3.0,1650847585241169.0,2
1025,-6.0,-17.0,-5.0,-11.0,-9.0,-5.0,-1.0,0.0,1650847585241169.0,2
1026,-2.0,3.0,-1.0,5.0,-8.0,-2.0,-1.0,-2.0,1650847585263286.0,2
1027,-1.0,-1.0,-5.0,-4.0,0.0,0.0,0.0,1.0,1650847585263286.0,2
1028,0.0,-3.0,-2.0,-4.0,5.0,-1.0,-1.0,-2.0,1650847585263286.0,2
1029,1.0,-2.0,3.0,4.0,0.0,1.0,1.0,3.0,1650847585263286.0,2
1030,1.0,4.0,-1.0,-3.0,-4.0,-2.0,0.0,-1.0,1650847585277350.0,2
1031,0.0,-13.0,-6.0,-9.0,-7.0,-4.0,-1.0,-1.0,1650847585277350.0,2
1032,-3.0,17.0,-3.0,-2.0,-2.0,0.0,-1.0,-1.0,1650847585277350.0,2
1033,3.0,0.0,10.0,4.0,2.0,1.0,0.0,-1.0,1650847585277350.0,2
1034,1.0,5.0,0.0,-4.0,1.0,-1.0,0.0,-1.0,1650847585299834.0,2
1035,0.0,5.0,-2.0,0.0,-2.0,0.0,-1.0,0.0,1650847585299834.0,2
1036,0.0,-8.0,2.0,2.0,1.0,-2.0,-1.0,-1.0,1650847585301832.0,2
1037,-2.0,-17.0,-7.0,-1.0,3.0,0.0,-2.0,0.0,1650847585301832.0,2
1038,0.0,21.0,1.0,-5.0,-2.0,0.0,-1.0,0.0,1650847585322861.0,2
1039,-3.0,-6.0,5.0,13.0,6.0,2.0,1.0,-2.0,1650847585322861.0,2
1040,-1.0,-1.0,0.0,1.0,-1.0,1.0,-1.0,0.0,1650847585323862.0,2
1041,-2.0,-11.0,-4.0,-1.0,-1.0,-1.0,-3.0,-1.0,1650847585323862.0,2
1042,-2.0,-7.0,-4.0,-6.0,1.0,-1.0,0.0,-1.0,1650847585336943.0,2
1043,-2.0,0.0,-1.0,6.0,1.0,-1.0,0.0,-1.0,1650847585336943.0,2
1044,1.0,-2.0,4.0,1.0,1.0,2.0,1.0,1.0,1650847585337920.0,2
1045,2.0,9.0,0.0,3.0,1.0,1.0,1.0,1.0,1650847585337920.0,2
1046,-1.0,-7.0,-3.0,-6.0,2.0,0.0,-1.0,0.0,1650847585359824.0,2
1047,-1.0,6.0,0.0,-3.0,-4.0,-3.0,-2.0,0.0,1650847585359824.0,2
1048,-3.0,-11.0,-6.0,1.0,-1.0,0.0,0.0,-1.0,1650847585361822.0,2
1049,0.0,5.0,2.0,-5.0,-1.0,-1.0,1.0,-1.0,1650847585361822.0,2
1050,-1.0,-4.0,-1.0,4.0,-4.0,-2.0,-1.0,0.0,1650847585382832.0,2
1051,-1.0,0.0,-2.0,-8.0,-2.0,1.0,2.0,-2.0,1650847585382832.0,2
1052,2.0,2.0,4.0,11.0,2.0,2.0,1.0,0.0,1650847585383763.0,2
1053,1.0,10.0,0.0,-7.0,-3.0,0.0,1.0,0.0,1650847585383763.0,2
1054,0.0,5.0,8.0,13.0,8.0,3.0,-1.0,-1.0,1650847585396818.0,2
1055,-4.0,-17.0,-19.0,-5.0,-4.0,-2.0,-3.0,-1.0,1650847585396818.0,2
1056,4.0,4.0,2.0,-5.0,-6.0,-2.0,-2.0,1.0,1650847585405704.0,2
1057,-2.0,2.0,2.0,3.0,4.0,1.0,0.0,0.0,1650847585405704.0,2
1058,-1.0,2.0,-1.0,-8.0,-4.0,-3.0,-1.0,-1.0,1650847585419941.0,2
1059,2.0,9.0,0.0,4.0,1.0,2.0,0.0,1.0,1650847585419941.0,2
1060,-3.0,-6.0,-3.0,-4.0,-4.0,-1.0,-1.0,0.0,1650847585421870.0,2
1061,-1.0,-1.0,1.0,10.0,11.0,3.0,0.0,1.0,1650847585421870.0,2
1062,0.0,-4.0,-2.0,-4.0,-4.0,-2.0,-2.0,-1.0,1650847585442827.0,2
1063,2.0,4.0,3.0,1.0,-2.0,-1.0,0.0,1.0,1650847585442827.0,2
1064,-2.0,-5.0,-4.0,5.0,5.0,1.0,2.0,0.0,1650847585444799.0,2
1065,0.0,-2.0,0.0,-1.0,-4.0,-3.0,-1.0,-2.0,1650847585444799.0,2
1066,2.0,12.0,0.0,-6.0,-3.0,-2.0,-1.0,-2.0,1650847585456736.0,2
1067,2.0,-2.0,1.0,-3.0,-5.0,-3.0,-1.0,-1.0,1650847585456736.0,2
1068,-2.0,-5.0,0.0,7.0,2.0,0.0,0.0,-1.0,1650847585465700.0,2
1069,-1.0,-4.0,-3.0,-5.0,-6.0,-3.0,-3.0,0.0,1650847585465700.0,2
1070,-1.0,-5.0,-3.0,-3.0,-1.0,-1.0,0.0,0.0,1650847585480747.0,2
1071,0.0,-3.0,4.0,-2.0,-2.0,0.0,0.0,-1.0,1650847585480747.0,2
1072,0.0,3.0,0.0,-1.0,0.0,-1.0,-1.0,1.0,1650847585481743.0,2
1073,0.0,6.0,-2.0,2.0,0.0,-2.0,0.0,1.0,1650847585481743.0,2
1074,2.0,-20.0,-5.0,1.0,1.0,1.0,2.0,0.0,1650847585502753.0,2
1075,-2.0,30.0,9.0,-2.0,3.0,2.0,5.0,-2.0,1650847585502753.0,2
1076,-3.0,-23.0,-15.0,-5.0,-4.0,-3.0,-5.0,-1.0,1650847585504682.0,2
1077,-2.0,0.0,-3.0,-4.0,-3.0,-1.0,-2.0,-2.0,1650847585504682.0,2
1078,1.0,2.0,4.0,4.0,9.0,2.0,2.0,3.0,1650847585516716.0,2
1079,2.0,-3.0,0.0,-7.0,-2.0,-2.0,0.0,-1.0,1650847585516716.0,2
1080,0.0,10.0,5.0,6.0,2.0,1.0,3.0,2.0,1650847585525626.0,2
1081,1.0,-5.0,-3.0,-1.0,-6.0,-3.0,0.0,1.0,1650847585525626.0,2
1082,-2.0,-1.0,-4.0,3.0,-2.0,-1.0,-1.0,-2.0,1650847585540587.0,2
1083,0.0,0.0,-1.0,1.0,3.0,1.0,0.0,0.0,1650847585540587.0,2
1084,0.0,2.0,0.0,-3.0,-2.0,-2.0,-1.0,0.0,1650847585541584.0,2
1085,-1.0,-1.0,0.0,2.0,0.0,2.0,1.0,1.0,1650847585541584.0,2
1086,-3.0,-6.0,-1.0,4.0,0.0,1.0,-2.0,-3.0,1650847585562577.0,2
1087,0.0,-4.0,-5.0,-9.0,-8.0,-2.0,-2.0,0.0,1650847585562577.0,2
1088,1.0,2.0,1.0,-5.0,-1.0,0.0,-2.0,-3.0,1650847585564571.0,2
1089,2.0,3.0,2.0,5.0,5.0,1.0,2.0,1.0,1650847585564571.0,2
1090,0.0,1.0,0.0,-7.0,-4.0,-2.0,-1.0,0.0,1650847585576607.0,2
1091,-1.0,-3.0,-4.0,0.0,0.0,0.0,-2.0,0.0,1650847585576607.0,2
1092,-1.0,5.0,1.0,-2.0,-7.0,-5.0,-2.0,-2.0,1650847585585515.0,2
1093,-2.0,-2.0,0.0,0.0,4.0,2.0,2.0,-1.0,1650847585585515.0,2
1094,0.0,-4.0,-1.0,1.0,-3.0,-1.0,-1.0,0.0,1650847585600645.0,2
1095,-2.0,-6.0,-2.0,-1.0,-1.0,-1.0,-2.0,-1.0,1650847585600645.0,2
1096,1.0,5.0,1.0,-3.0,-3.0,2.0,0.0,2.0,1650847585601631.0,2
1097,0.0,-2.0,-1.0,1.0,-1.0,-2.0,0.0,-1.0,1650847585601631.0,2
1098,-1.0,-2.0,-1.0,1.0,-1.0,-3.0,-2.0,-1.0,1650847585622757.0,2
1099,-3.0,-3.0,1.0,1.0,4.0,1.0,-1.0,-1.0,1650847585622757.0,2
1100,0.0,1.0,0.0,-1.0,-2.0,-1.0,1.0,1.0,1650847585624716.0,2
1101,-1.0,-1.0,-1.0,-3.0,-5.0,1.0,-3.0,-1.0,1650847585624716.0,2
1102,-1.0,4.0,2.0,-1.0,1.0,2.0,-1.0,-2.0,1650847585636653.0,2
1103,-2.0,-4.0,0.0,2.0,4.0,0.0,1.0,-1.0,1650847585636653.0,2
1104,0.0,-1.0,1.0,-5.0,0.0,-1.0,-1.0,0.0,1650847585645630.0,2
1105,0.0,0.0,1.0,4.0,1.0,-1.0,-1.0,1.0,1650847585645630.0,2
1106,0.0,-1.0,-1.0,2.0,0.0,-2.0,1.0,0.0,1650847585660725.0,2
1107,0.0,1.0,-1.0,0.0,0.0,1.0,-2.0,1.0,1650847585660725.0,2
1108,2.0,2.0,2.0,2.0,6.0,2.0,0.0,1.0,1650847585661587.0,2
1109,-1.0,0.0,1.0,-4.0,-2.0,-2.0,-1.0,-1.0,1650847585661587.0,2
1110,-1.0,-1.0,-1.0,3.0,4.0,3.0,0.0,-2.0,1650847585681599.0,2
1111,0.0,2.0,1.0,1.0,0.0,-1.0,1.0,1.0,1650847585681599.0,2
1112,-2.0,1.0,-1.0,-1.0,-2.0,0.0,0.0,-1.0,1650847585690658.0,2
1113,-1.0,-1.0,-2.0,-5.0,-2.0,-1.0,-2.0,-1.0,1650847585690658.0,2
1114,1.0,1.0,-1.0,0.0,0.0,-1.0,-1.0,1.0,1650847585696620.0,2
1115,0.0,0.0,0.0,2.0,-1.0,0.0,-1.0,-1.0,1650847585696620.0,2
1116,-1.0,-3.0,-2.0,-4.0,-2.0,2.0,-1.0,0.0,1650847585705714.0,2
1117,1.0,0.0,1.0,3.0,3.0,0.0,1.0,-1.0,1650847585705714.0,2
1118,0.0,-2.0,0.0,1.0,0.0,-1.0,-2.0,2.0,1650847585719898.0,2
1119,0.0,0.0,-1.0,-3.0,-3.0,-3.0,-3.0,2.0,1650847585719898.0,2
1120,0.0,0.0,-1.0,0.0,-4.0,-2.0,-2.0,-1.0,1650847585721826.0,2
1121,-2.0,-2.0,-1.0,0.0,-2.0,1.0,-1.0,-3.0,1650847585721826.0,2
1122,1.0,-1.0,0.0,-3.0,-2.0,-1.0,-1.0,0.0,1650847585742886.0,2
1123,1.0,0.0,0.0,1.0,-1.0,-1.0,0.0,-1.0,1650847585742886.0,2
1124,-1.0,4.0,1.0,1.0,0.0,0.0,0.0,0.0,1650847585743817.0,2
1125,0.0,0.0,-4.0,-3.0,-2.0,-1.0,-1.0,1.0,1650847585743817.0,2
1126,-2.0,-5.0,-1.0,-1.0,2.0,0.0,1.0,1.0,1650847585756796.0,2
1127,0.0,0.0,0.0,1.0,0.0,-2.0,-1.0,-1.0,1650847585756796.0,2
1128,0.0,-3.0,0.0,-1.0,2.0,3.0,1.0,-1.0,1650847585765762.0,2
1129,-1.0,-1.0,-1.0,-1.0,-1.0,0.0,-2.0,-1.0,1650847585765762.0,2
1130,1.0,2.0,1.0,1.0,-1.0,0.0,1.0,-1.0,1650847585779864.0,2
1131,-3.0,-4.0,-4.0,-8.0,-3.0,-3.0,-1.0,-2.0,1650847585779864.0,2
1132,-2.0,-3.0,1.0,12.0,5.0,0.0,0.0,-3.0,1650847585781714.0,0
1133,0.0,3.0,-2.0,-5.0,-1.0,-1.0,1.0,2.0,1650847585781714.0,0
1134,0.0,2.0,0.0,0.0,-2.0,0.0,0.0,2.0,1650847585810299.0,0
1135,0.0,2.0,0.0,2.0,0.0,1.0,0.0,1.0,1650847585810299.0,0
1136,0.0,0.0,-1.0,-3.0,-1.0,-2.0,-2.0,-1.0,1650847585812228.0,0
1137,-4.0,-5.0,-1.0,-1.0,-2.0,1.0,0.0,-1.0,1650847585812228.0,0
1138,-1.0,4.0,-1.0,-2.0,-3.0,-3.0,-2.0,-1.0,1650847585816217.0,0
1139,0.0,-2.0,-2.0,-3.0,-2.0,-1.0,-2.0,-1.0,1650847585816217.0,0
1140,1.0,2.0,-2.0,3.0,-4.0,0.0,1.0,1.0,1650847585825193.0,0
1141,0.0,1.0,0.0,-2.0,1.0,1.0,2.0,-1.0,1650847585825193.0,0
1142,-4.0,-3.0,1.0,1.0,0.0,0.0,-1.0,0.0,1650847585840305.0,0
1143,-1.0,0.0,-1.0,0.0,-3.0,-1.0,-1.0,-2.0,1650847585840305.0,0
1144,-2.0,0.0,0.0,-3.0,1.0,-1.0,-1.0,-1.0,1650847585841309.0,0
1145,0.0,0.0,0.0,3.0,-1.0,-1.0,-1.0,-1.0,1650847585841309.0,0
1146,-2.0,-6.0,-2.0,-1.0,-2.0,0.0,-1.0,-1.0,1650847585863250.0,0
1147,-1.0,0.0,1.0,2.0,0.0,0.0,0.0,-1.0,1650847585863250.0,0
1148,2.0,0.0,0.0,-1.0,-1.0,-1.0,0.0,1.0,1650847585864241.0,0
1149,-1.0,-2.0,-3.0,0.0,1.0,1.0,-2.0,-1.0,1650847585864241.0,0
1150,-1.0,-2.0,-2.0,-2.0,-2.0,-1.0,-1.0,-1.0,1650847585876276.0,0
1151,-1.0,1.0,0.0,1.0,0.0,-1.0,0.0,1.0,1650847585876276.0,0
1152,-1.0,1.0,0.0,-3.0,-3.0,-3.0,-1.0,0.0,1650847585885199.0,0
1153,1.0,0.0,0.0,1.0,0.0,-1.0,-1.0,0.0,1650847585885199.0,0
1154,-1.0,-2.0,-2.0,-4.0,-3.0,-2.0,-1.0,-1.0,1650847585900211.0,0
1155,-2.0,-5.0,-3.0,-8.0,-3.0,-2.0,-1.0,-2.0,1650847585900211.0,0
1156,-3.0,-1.0,1.0,10.0,1.0,-1.0,1.0,-1.0,1650847585902140.0,0
1157,1.0,3.0,1.0,-2.0,0.0,2.0,2.0,0.0,1650847585902140.0,0
1158,-1.0,-1.0,-1.0,-1.0,-1.0,0.0,0.0,-2.0,1650847585922838.0,0
1159,-1.0,-1.0,-2.0,-3.0,-1.0,-1.0,-2.0,-1.0,1650847585922838.0,0
1160,-1.0,-2.0,-2.0,-5.0,0.0,0.0,-2.0,-2.0,1650847585924767.0,0
1161,1.0,-1.0,0.0,2.0,1.0,0.0,0.0,0.0,1650847585924767.0,0
1162,-1.0,0.0,-1.0,0.0,-2.0,0.0,0.0,1.0,1650847585936818.0,0
1163,-1.0,1.0,0.0,1.0,0.0,1.0,-1.0,1.0,1650847585936818.0,0
1164,-2.0,-1.0,-1.0,0.0,0.0,-2.0,0.0,0.0,1650847585945845.0,0
1165,-2.0,1.0,-2.0,-2.0,-2.0,-2.0,-2.0,-1.0,1650847585945845.0,0
1166,0.0,0.0,0.0,-1.0,-2.0,1.0,-1.0,-1.0,1650847585959318.0,0
1167,1.0,-1.0,0.0,3.0,2.0,2.0,0.0,0.0,1650847585959318.0,0
1168,-1.0,0.0,-1.0,-1.0,0.0,0.0,0.0,-1.0,1650847585968230.0,0
1169,-1.0,0.0,-1.0,-2.0,0.0,-2.0,-2.0,0.0,1650847585968230.0,0
1170,-1.0,0.0,0.0,-1.0,0.0,0.0,0.0,1.0,1650847585983162.0,0
1171,-2.0,-1.0,3.0,3.0,1.0,-1.0,1.0,-1.0,1650847585983162.0,0
1172,-1.0,-6.0,-2.0,-4.0,-1.0,-2.0,0.0,-1.0,1650847585984772.0,0
1173,0.0,2.0,1.0,1.0,1.0,1.0,0.0,-1.0,1650847585984772.0,0
1174,0.0,0.0,0.0,4.0,1.0,0.0,-2.0,-1.0,1650847585996767.0,0
1175,0.0,0.0,-7.0,-11.0,-8.0,-3.0,-1.0,0.0,1650847585996767.0,0
1176,-1.0,0.0,1.0,1.0,-1.0,1.0,1.0,0.0,1650847586005785.0,0
1177,-1.0,-4.0,-2.0,-1.0,1.0,0.0,1.0,1.0,1650847586005785.0,0
1178,-1.0,0.0,-1.0,0.0,0.0,1.0,1.0,0.0,1650847586019836.0,0
1179,1.0,1.0,1.0,1.0,0.0,-1.0,1.0,-2.0,1650847586019836.0,0
1180,-1.0,-2.0,1.0,-5.0,-1.0,-2.0,-2.0,-2.0,1650847586021833.0,0
1181,-1.0,0.0,-1.0,-2.0,-1.0,-3.0,-1.0,-2.0,1650847586021833.0,0
1182,-1.0,0.0,0.0,1.0,-1.0,-1.0,-1.0,0.0,1650847586042843.0,0
1183,0.0,-3.0,1.0,1.0,2.0,-1.0,-1.0,0.0,1650847586042843.0,0
1184,1.0,3.0,0.0,-1.0,-3.0,1.0,0.0,1.0,1650847586043775.0,0
1185,0.0,-2.0,1.0,5.0,1.0,3.0,0.0,-2.0,1650847586043775.0,0
1186,0.0,0.0,-1.0,-4.0,-2.0,-2.0,-3.0,-1.0,1650847586064719.0,0
1187,-2.0,-1.0,-1.0,1.0,2.0,1.0,-1.0,-1.0,1650847586064719.0,0
1188,1.0,1.0,2.0,2.0,0.0,0.0,-2.0,1.0,1650847586071764.0,0
1189,-1.0,-3.0,-4.0,-4.0,-3.0,-2.0,-2.0,-1.0,1650847586071764.0,0
1190,1.0,2.0,2.0,-1.0,-1.0,-3.0,0.0,-1.0,1650847586080704.0,0
1191,-1.0,-4.0,1.0,3.0,1.0,1.0,-2.0,-2.0,1650847586080704.0,0
1192,0.0,2.0,-1.0,-2.0,-1.0,-1.0,-1.0,-1.0,1650847586081673.0,0
1193,1.0,0.0,-1.0,1.0,-3.0,-2.0,-1.0,1.0,1650847586081673.0,0
1194,0.0,3.0,2.0,3.0,1.0,1.0,0.0,-1.0,1650847586102478.0,0
1195,0.0,1.0,-4.0,-4.0,-1.0,0.0,3.0,1.0,1650847586102478.0,0
1196,0.0,-1.0,0.0,-1.0,0.0,0.0,1.0,0.0,1650847586104503.0,0
1197,-3.0,-3.0,-1.0,-2.0,0.0,-2.0,-1.0,0.0,1650847586104503.0,0
1198,-1.0,-2.0,-1.0,-1.0,-1.0,-3.0,0.0,0.0,1650847586125433.0,0
1199,-1.0,-3.0,0.0,2.0,0.0,1.0,0.0,-3.0,1650847586125433.0,0
1200,-2.0,-2.0,-3.0,-1.0,0.0,1.0,-2.0,-2.0,1650847586126417.0,0
1201,0.0,4.0,3.0,-3.0,1.0,-1.0,-1.0,-1.0,1650847586126417.0,0
1202,-2.0,-3.0,-2.0,2.0,0.0,-2.0,-1.0,0.0,1650847586140601.0,0
1203,0.0,0.0,0.0,-1.0,-1.0,-2.0,0.0,1.0,1650847586140601.0,0
1204,0.0,0.0,-1.0,0.0,0.0,2.0,0.0,0.0,1650847586142558.0,0
1205,-1.0,-4.0,-1.0,-1.0,-1.0,0.0,0.0,1.0,1650847586142558.0,0
1206,-2.0,-2.0,-4.0,-4.0,-2.0,0.0,-1.0,0.0,1650847586162487.0,0
1207,0.0,1.0,0.0,2.0,-2.0,-3.0,-1.0,-1.0,1650847586162487.0,0
1208,0.0,2.0,-1.0,-3.0,-1.0,-2.0,0.0,0.0,1650847586164435.0,0
1209,0.0,0.0,-1.0,1.0,-1.0,0.0,-1.0,-1.0,1650847586164435.0,0
1210,3.0,-1.0,1.0,-1.0,-1.0,1.0,0.0,1.0,1650847586185631.0,0
1211,0.0,2.0,1.0,-2.0,-1.0,2.0,0.0,3.0,1650847586185631.0,0
1212,0.0,-1.0,1.0,0.0,-1.0,-1.0,-1.0,-1.0,1650847586186562.0,0
1213,-1.0,-1.0,0.0,0.0,0.0,-2.0,-1.0,-1.0,1650847586186562.0,0
1214,-1.0,-1.0,-1.0,0.0,0.0,-1.0,-1.0,-1.0,1650847586200590.0,0
1215,-1.0,2.0,-2.0,0.0,-2.0,-2.0,-1.0,-1.0,1650847586200590.0,0
1216,0.0,-2.0,-2.0,-2.0,-3.0,-3.0,-1.0,1.0,1650847586202519.0,0
1217,0.0,1.0,0.0,0.0,-1.0,-3.0,-1.0,-2.0,1650847586202519.0,0
1218,-1.0,-3.0,-3.0,-4.0,0.0,1.0,2.0,0.0,1650847586222865.0,0
1219,1.0,2.0,3.0,2.0,5.0,2.0,0.0,1.0,1650847586222865.0,0
1220,-1.0,-2.0,1.0,2.0,-2.0,1.0,1.0,-1.0,1650847586223876.0,0
1221,-1.0,0.0,-2.0,0.0,-1.0,0.0,1.0,-1.0,1650847586223876.0,0
1222,1.0,0.0,0.0,1.0,-2.0,-1.0,0.0,-2.0,1650847586245864.0,0
1223,2.0,2.0,0.0,2.0,1.0,0.0,-1.0,-1.0,1650847586245864.0,0
1224,-1.0,0.0,-2.0,-2.0,1.0,-2.0,0.0,-3.0,1650847586247793.0,0
1225,0.0,-2.0,-1.0,-2.0,-2.0,0.0,-1.0,0.0,1650847586247793.0,0
1226,-2.0,0.0,-1.0,0.0,1.0,-1.0,-1.0,0.0,1650847586259826.0,0
1227,-1.0,-1.0,2.0,3.0,1.0,1.0,0.0,-1.0,1650847586259826.0,0
1228,0.0,1.0,-1.0,-1.0,1.0,-1.0,-1.0,2.0,1650847586266793.0,0
1229,-1.0,-4.0,-1.0,1.0,0.0,-1.0,-1.0,-2.0,1650847586266793.0,0
1230,1.0,-2.0,0.0,-1.0,-2.0,0.0,1.0,0.0,1650847586283227.0,0
1231,-1.0,-1.0,-4.0,-8.0,-2.0,0.0,-1.0,-1.0,1650847586283227.0,0
1232,-2.0,-4.0,-3.0,3.0,-2.0,-1.0,0.0,-2.0,1650847586284209.0,0
1233,0.0,1.0,2.0,0.0,1.0,1.0,0.0,2.0,1650847586284209.0,0
1234,0.0,0.0,2.0,0.0,2.0,-2.0,-1.0,-1.0,1650847586305220.0,0
1235,-2.0,-3.0,-3.0,-4.0,-3.0,-2.0,-2.0,-1.0,1650847586305220.0,0
1236,-1.0,1.0,0.0,-1.0,-2.0,-2.0,-2.0,2.0,1650847586307175.0,0
1237,0.0,2.0,1.0,-2.0,-3.0,1.0,1.0,-2.0,1650847586307175.0,0
1238,-4.0,-1.0,1.0,4.0,0.0,-1.0,-2.0,-3.0,1650847586320118.0,0
1239,0.0,-4.0,-3.0,-1.0,0.0,-2.0,0.0,-2.0,1650847586320118.0,0
1240,0.0,-2.0,-3.0,-5.0,1.0,0.0,-2.0,0.0,1650847586326164.0,0
1241,1.0,2.0,0.0,2.0,1.0,1.0,0.0,0.0,1650847586326164.0,0
1242,-2.0,-5.0,-4.0,-2.0,-2.0,2.0,-1.0,1.0,1650847586342886.0,0
1243,-2.0,1.0,1.0,1.0,1.0,1.0,0.0,-1.0,1650847586342886.0,0
1244,0.0,-2.0,1.0,2.0,0.0,-1.0,-2.0,0.0,1650847586348869.0,0
1245,0.0,2.0,-1.0,0.0,0.0,1.0,-1.0,-1.0,1650847586348869.0,0
1246,2.0,1.0,1.0,2.0,0.0,1.0,2.0,1.0,1650847586364788.0,0
1247,-1.0,-6.0,-6.0,-3.0,-5.0,-3.0,-2.0,1.0,1650847586364788.0,0
1248,-1.0,1.0,2.0,0.0,0.0,0.0,0.0,-3.0,1650847586366785.0,0
1249,-1.0,-1.0,0.0,0.0,1.0,-1.0,0.0,-1.0,1650847586366785.0,0
1250,-2.0,-3.0,-3.0,-1.0,2.0,-1.0,0.0,0.0,1650847586379839.0,0
1251,-1.0,-2.0,4.0,4.0,3.0,0.0,1.0,-1.0,1650847586379839.0,0
1252,-1.0,1.0,-6.0,-7.0,-3.0,-1.0,-1.0,0.0,1650847586386859.0,0
1253,-1.0,-6.0,-4.0,-2.0,-3.0,-2.0,-3.0,-2.0,1650847586386859.0,0
1254,0.0,4.0,4.0,-2.0,-1.0,-1.0,-1.0,-1.0,1650847586402781.0,0
1255,0.0,1.0,-2.0,0.0,-1.0,1.0,1.0,0.0,1650847586402781.0,0
1256,-1.0,-9.0,-8.0,-3.0,0.0,-1.0,0.0,0.0,1650847586404775.0,0
1257,-1.0,2.0,1.0,-3.0,-1.0,-2.0,1.0,-1.0,1650847586404775.0,0
1258,1.0,5.0,1.0,0.0,1.0,0.0,0.0,0.0,1650847586425731.0,0
1259,1.0,2.0,3.0,1.0,0.0,-2.0,-1.0,0.0,1650847586425731.0,0
1260,0.0,1.0,4.0,5.0,-2.0,-2.0,0.0,0.0,1650847586426717.0,0
1261,-2.0,-5.0,-6.0,-3.0,-1.0,1.0,0.0,0.0,1650847586426717.0,0
1262,0.0,5.0,3.0,2.0,2.0,-1.0,-1.0,1.0,1650847586439748.0,0
1263,1.0,2.0,5.0,3.0,-3.0,-1.0,0.0,0.0,1650847586439748.0,0
1264,0.0,-3.0,-2.0,3.0,3.0,0.0,0.0,0.0,1650847586446731.0,0
1265,0.0,2.0,-12.0,-9.0,-5.0,-3.0,-1.0,1.0,1650847586446731.0,0
1266,-1.0,-6.0,-2.0,0.0,-1.0,0.0,1.0,-1.0,1650847586463052.0,0
1267,-3.0,7.0,-2.0,-1.0,-1.0,-2.0,-2.0,-1.0,1650847586463052.0,0
1268,1.0,3.0,8.0,1.0,0.0,-1.0,-1.0,0.0,1650847586463980.0,0
1269,-1.0,0.0,5.0,4.0,2.0,0.0,0.0,-2.0,1650847586463980.0,0
1270,1.0,-1.0,-2.0,1.0,0.0,1.0,0.0,-4.0,1650847586484898.0,0
1271,0.0,1.0,0.0,-4.0,-3.0,-1.0,-1.0,-1.0,1650847586484898.0,0
1272,-2.0,-9.0,-4.0,-5.0,-3.0,-1.0,-2.0,0.0,1650847586486826.0,0
1273,1.0,3.0,1.0,0.0,-1.0,1.0,-2.0,3.0,1650847586486826.0,0
1274,0.0,-1.0,-3.0,-4.0,-4.0,-1.0,-1.0,2.0,1650847586499857.0,0
1275,-2.0,-6.0,-1.0,1.0,2.0,1.0,-2.0,-1.0,1650847586499857.0,0
1276,1.0,9.0,2.0,1.0,0.0,0.0,0.0,-1.0,1650847586506820.0,0
1277,1.0,-1.0,2.0,2.0,-1.0,0.0,0.0,-1.0,1650847586506820.0,0
1278,0.0,-1.0,1.0,1.0,0.0,-2.0,0.0,-1.0,1650847586522948.0,0
1279,0.0,-5.0,-3.0,0.0,2.0,0.0,1.0,0.0,1650847586522948.0,0
1280,0.0,0.0,-3.0,-2.0,-1.0,1.0,1.0,-1.0,1650847586524877.0,0
1281,0.0,-3.0,1.0,2.0,0.0,-2.0,-2.0,-2.0,1650847586524877.0,0
1282,0.0,1.0,-3.0,-4.0,-4.0,-1.0,1.0,0.0,1650847586544889.0,0
1283,-1.0,-1.0,-2.0,0.0,0.0,-2.0,-1.0,-1.0,1650847586544889.0,0
1284,0.0,-3.0,0.0,-2.0,0.0,0.0,0.0,-2.0,1650847586546822.0,0
1285,-2.0,1.0,4.0,0.0,0.0,-1.0,0.0,2.0,1650847586546822.0,0
1286,-1.0,-2.0,-1.0,-1.0,1.0,-1.0,-1.0,1.0,1650847586559187.0,0
1287,0.0,-3.0,-1.0,1.0,0.0,1.0,-1.0,0.0,1650847586559187.0,0
1288,-1.0,-1.0,-1.0,2.0,-1.0,-1.0,0.0,-2.0,1650847586566233.0,0
1289,0.0,3.0,-2.0,-4.0,-1.0,1.0,0.0,-2.0,1650847586566233.0,0
1290,0.0,-3.0,-2.0,-1.0,-2.0,-1.0,2.0,2.0,1650847586583157.0,0
1291,-2.0,-1.0,-1.0,-1.0,-1.0,-3.0,0.0,1.0,1650847586583157.0,0
1292,2.0,1.0,2.0,4.0,2.0,2.0,-1.0,1.0,1650847586584130.0,0
1293,0.0,-2.0,-1.0,0.0,0.0,-1.0,1.0,-2.0,1650847586584130.0,0
1294,-3.0,-5.0,-4.0,-6.0,-3.0,-2.0,-1.0,0.0,1650847586605071.0,0
1295,1.0,1.0,2.0,8.0,4.0,1.0,0.0,0.0,1650847586605071.0,0
1296,-3.0,-4.0,-4.0,-5.0,-4.0,-3.0,-2.0,1.0,1650847586607060.0,0
1297,-2.0,-2.0,-3.0,-2.0,-1.0,-2.0,0.0,0.0,1650847586607060.0,0
1298,0.0,5.0,-1.0,-4.0,0.0,-2.0,0.0,-1.0,1650847586619111.0,0
1299,-2.0,-3.0,-1.0,-2.0,-1.0,-1.0,0.0,-2.0,1650847586619111.0,0
1300,0.0,2.0,-3.0,-2.0,-2.0,-1.0,-3.0,-2.0,1650847586627606.0,0
1301,0.0,0.0,2.0,2.0,0.0,1.0,1.0,-2.0,1650847586627606.0,0
1302,-2.0,2.0,-2.0,0.0,0.0,-2.0,-2.0,-2.0,1650847586642832.0,0
1303,1.0,1.0,0.0,0.0,0.0,2.0,-1.0,1.0,1650847586642832.0,0
1304,0.0,-1.0,0.0,0.0,1.0,0.0,-1.0,-1.0,1650847586644819.0,0
1305,1.0,1.0,2.0,0.0,-2.0,-1.0,0.0,0.0,1650847586644819.0,0
1306,2.0,4.0,-1.0,-2.0,-2.0,-1.0,-3.0,-2.0,1650847586664762.0,0
1307,-2.0,-2.0,-3.0,-2.0,-2.0,-1.0,1.0,-1.0,1650847586664762.0,0
1308,-2.0,5.0,5.0,1.0,1.0,0.0,0.0,0.0,1650847586666757.0,0
1309,-4.0,-9.0,-8.0,-1.0,-1.0,0.0,-2.0,0.0,1650847586666757.0,0
1310,-2.0,1.0,2.0,1.0,-1.0,-1.0,0.0,-1.0,1650847586678791.0,0
1311,-1.0,-3.0,-3.0,-3.0,1.0,0.0,0.0,0.0,1650847586678791.0,0
1312,0.0,2.0,2.0,3.0,-2.0,-2.0,0.0,0.0,1650847586687701.0,0
1313,-1.0,-4.0,-4.0,-1.0,-1.0,-1.0,-1.0,0.0,1650847586687701.0,0
1314,0.0,0.0,-1.0,1.0,1.0,1.0,0.0,-2.0,1650847586702965.0,0
1315,-1.0,2.0,-2.0,-4.0,-2.0,-1.0,-1.0,1.0,1650847586702965.0,0
1316,1.0,-1.0,0.0,3.0,0.0,0.0,0.0,1.0,1650847586703967.0,0
1317,-3.0,-6.0,2.0,3.0,2.0,-1.0,-1.0,-1.0,1650847586703967.0,0
1318,-1.0,-5.0,-3.0,2.0,1.0,0.0,1.0,-2.0,1650847586725907.0,0
1319,1.0,1.0,1.0,-2.0,0.0,1.0,-2.0,1.0,1650847586725907.0,0
1320,0.0,1.0,-1.0,-2.0,1.0,1.0,1.0,0.0,1650847586730955.0,0
1321,0.0,1.0,2.0,1.0,-1.0,-1.0,0.0,0.0,1650847586730955.0,0
1322,0.0,-2.0,-1.0,-1.0,-2.0,-1.0,-1.0,1.0,1650847586738934.0,0
1323,-2.0,-4.0,-4.0,-4.0,-1.0,-1.0,-1.0,-2.0,1650847586738934.0,0
1324,-1.0,-1.0,0.0,0.0,-3.0,-2.0,-2.0,0.0,1650847586747980.0,0
1325,1.0,4.0,6.0,3.0,2.0,1.0,1.0,-1.0,1650847586747980.0,0
1326,0.0,-4.0,0.0,3.0,2.0,1.0,0.0,-2.0,1650847586762993.0,0
1327,1.0,2.0,-1.0,0.0,-1.0,0.0,0.0,-2.0,1650847586762993.0,0
1328,1.0,3.0,-1.0,0.0,3.0,3.0,2.0,1.0,1650847586763951.0,0
1329,0.0,1.0,-5.0,-5.0,-2.0,-4.0,-1.0,-1.0,1650847586763951.0,0
1330,0.0,1.0,-3.0,-6.0,-1.0,-1.0,-1.0,1.0,1650847586784935.0,0
1331,1.0,-2.0,2.0,5.0,2.0,1.0,-1.0,-1.0,1650847586784935.0,0
1332,-2.0,-3.0,-3.0,-8.0,-5.0,-1.0,-1.0,-3.0,1650847586786889.0,0
1333,0.0,1.0,2.0,5.0,2.0,2.0,-1.0,-1.0,1650847586786889.0,0
1334,-2.0,-1.0,-2.0,-4.0,0.0,0.0,0.0,1.0,1650847586798899.0,0
1335,-2.0,0.0,-2.0,-3.0,-1.0,-3.0,-1.0,0.0,1650847586798899.0,0
1336,-1.0,-3.0,0.0,-1.0,-1.0,0.0,-3.0,-1.0,1650847586807820.0,0
1337,2.0,-2.0,-1.0,0.0,-2.0,1.0,0.0,0.0,1650847586807820.0,0
1338,-1.0,-2.0,-2.0,1.0,-3.0,0.0,0.0,-1.0,1650847586822916.0,0
1339,-3.0,-1.0,-1.0,0.0,-2.0,-2.0,0.0,-2.0,1650847586822916.0,0
1340,-1.0,-1.0,-1.0,1.0,0.0,-1.0,0.0,-1.0,1650847586823943.0,0
1341,-3.0,0.0,1.0,-4.0,-2.0,-1.0,-1.0,-1.0,1650847586823943.0,0
1342,1.0,3.0,-1.0,2.0,-1.0,1.0,-1.0,0.0,1650847586844880.0,0
1343,1.0,-2.0,-3.0,-3.0,-3.0,-2.0,-1.0,1.0,1650847586844880.0,0
1344,-2.0,0.0,1.0,-1.0,0.0,-1.0,1.0,1.0,1650847586846809.0,0
1345,1.0,1.0,1.0,1.0,1.0,-2.0,-2.0,1.0,1650847586846809.0,0
1346,-1.0,-3.0,-3.0,-1.0,1.0,-3.0,0.0,0.0,1650847586858946.0,0
1347,-1.0,0.0,1.0,1.0,0.0,1.0,-2.0,-2.0,1650847586858946.0,0
1348,0.0,1.0,-1.0,-1.0,-1.0,-1.0,-1.0,0.0,1650847586867551.0,0
1349,-4.0,-5.0,-1.0,1.0,-1.0,1.0,1.0,0.0,1650847586867551.0,0
1350,0.0,4.0,2.0,0.0,-1.0,0.0,-1.0,-1.0,1650847586883115.0,0
1351,-1.0,-1.0,1.0,0.0,-1.0,-2.0,1.0,-2.0,1650847586883115.0,0
1352,-1.0,-2.0,-4.0,-3.0,-3.0,-2.0,-1.0,-1.0,1650847586884680.0,0
1353,-1.0,1.0,2.0,2.0,3.0,-1.0,-1.0,-1.0,1650847586884680.0,0
1354,-2.0,-2.0,0.0,1.0,-2.0,-1.0,0.0,0.0,1650847586905887.0,0
1355,1.0,1.0,-3.0,0.0,-3.0,0.0,0.0,1.0,1650847586905887.0,0
1356,1.0,1.0,1.0,2.0,1.0,1.0,-1.0,-2.0,1650847586907841.0,0
1357,0.0,0.0,-3.0,-3.0,-1.0,2.0,-1.0,0.0,1650847586907841.0,0
1358,-2.0,-3.0,0.0,-1.0,-3.0,-1.0,-3.0,-2.0,1650847586918975.0,0
1359,1.0,0.0,1.0,-1.0,1.0,-2.0,-1.0,1.0,1650847586918975.0,0
1360,-1.0,-1.0,-2.0,0.0,0.0,-2.0,0.0,0.0,1650847586927885.0,0
1361,0.0,-2.0,-1.0,-3.0,-2.0,-2.0,-2.0,-2.0,1650847586927885.0,0
1362,-2.0,-4.0,-1.0,0.0,0.0,0.0,-1.0,-1.0,1650847586942980.0,0
1363,-1.0,-2.0,0.0,0.0,-2.0,0.0,-1.0,0.0,1650847586942980.0,0
1364,-1.0,0.0,-1.0,0.0,-3.0,0.0,-1.0,1.0,1650847586943958.0,0
1365,1.0,0.0,2.0,2.0,-1.0,0.0,0.0,-1.0,1650847586943958.0,0
1366,0.0,-1.0,-2.0,-2.0,1.0,2.0,-1.0,0.0,1650847586964871.0,0
1367,0.0,0.0,-1.0,-2.0,-2.0,-1.0,1.0,-1.0,1650847586964871.0,0
1368,1.0,3.0,0.0,-5.0,-3.0,0.0,1.0,1.0,1650847586971790.0,0
1369,-4.0,-6.0,-2.0,-1.0,0.0,-2.0,-2.0,-1.0,1650847586971790.0,0
1370,0.0,0.0,0.0,-1.0,-3.0,-3.0,-1.0,-1.0,1650847586978835.0,0
1371,0.0,1.0,-2.0,2.0,1.0,2.0,0.0,0.0,1650847586978835.0,0
1372,0.0,-1.0,0.0,0.0,-1.0,0.0,-1.0,-1.0,1650847586987743.0,0
1373,1.0,1.0,-1.0,-2.0,-1.0,2.0,0.0,1.0,1650847586987743.0,0
1374,-1.0,0.0,0.0,3.0,4.0,1.0,1.0,-1.0,1650847587002925.0,0
1375,1.0,3.0,1.0,-1.0,-3.0,0.0,-3.0,0.0,1650847587002925.0,0
1376,-2.0,-12.0,-3.0,0.0,0.0,-4.0,-2.0,-2.0,1650847587003876.0,0
1377,-1.0,1.0,-2.0,-1.0,-1.0,-1.0,-1.0,0.0,1650847587003876.0,0
1378,-1.0,1.0,1.0,4.0,-1.0,1.0,0.0,0.0,1650847587024883.0,0
1379,1.0,6.0,3.0,-1.0,-3.0,-3.0,2.0,0.0,1650847587024883.0,0
1380,-2.0,-6.0,0.0,4.0,3.0,1.0,-2.0,-3.0,1650847587026824.0,0
1381,0.0,-1.0,-3.0,-4.0,-3.0,-1.0,-2.0,0.0,1650847587026824.0,0
1382,0.0,-1.0,-2.0,-2.0,1.0,0.0,0.0,0.0,1650847587048018.0,0
1383,0.0,-1.0,3.0,-4.0,-1.0,0.0,1.0,0.0,1650847587048018.0,0
1384,0.0,-6.0,-33.0,-4.0,3.0,0.0,-3.0,0.0,1650847587048948.0,0
1385,-2.0,-3.0,1.0,-4.0,-2.0,0.0,1.0,-1.0,1650847587048948.0,0
1386,0.0,4.0,16.0,2.0,-3.0,-2.0,0.0,1.0,1650847587063055.0,0
1387,-2.0,-3.0,-1.0,5.0,-2.0,-2.0,-2.0,-1.0,1650847587063055.0,0
1388,0.0,3.0,8.0,0.0,1.0,-2.0,-1.0,-2.0,1650847587064065.0,0
1389,1.0,-2.0,-14.0,-5.0,2.0,-1.0,-2.0,0.0,1650847587064065.0,0
1390,-1.0,-4.0,-7.0,-5.0,-3.0,1.0,0.0,-1.0,1650847587085065.0,0
1391,0.0,1.0,2.0,2.0,1.0,2.0,-1.0,0.0,1650847587085065.0,0
1392,-3.0,-3.0,1.0,-2.0,-4.0,1.0,-1.0,0.0,1650847587086994.0,0
1393,-1.0,4.0,4.0,0.0,-2.0,-1.0,0.0,0.0,1650847587086994.0,0
1394,-2.0,-2.0,10.0,-1.0,0.0,-2.0,1.0,-3.0,1650847587108073.0,0
1395,0.0,-3.0,-14.0,-3.0,2.0,-2.0,-2.0,-3.0,1650847587108073.0,0
1396,2.0,8.0,16.0,8.0,-1.0,-2.0,0.0,1.0,1650847587109005.0,0
1397,3.0,6.0,5.0,1.0,-3.0,-1.0,1.0,-1.0,1650847587109005.0,0
1398,-3.0,-9.0,-8.0,-2.0,-2.0,0.0,-1.0,0.0,1650847587122888.0,0
1399,-2.0,-4.0,1.0,-1.0,-2.0,0.0,0.0,-1.0,1650847587122888.0,0
1400,2.0,1.0,-2.0,-5.0,2.0,2.0,0.0,0.0,1650847587124816.0,0
1401,0.0,3.0,7.0,6.0,-2.0,-1.0,-1.0,1.0,1650847587124816.0,0
1402,-1.0,3.0,-1.0,0.0,1.0,-1.0,-3.0,-1.0,1650847587145693.0,0
1403,-2.0,-3.0,-7.0,-4.0,1.0,1.0,0.0,-1.0,1650847587145693.0,0
1404,-3.0,-2.0,-1.0,-4.0,1.0,2.0,1.0,1.0,1650847587146680.0,0
1405,1.0,-1.0,6.0,-1.0,-1.0,-1.0,-2.0,2.0,1650847587146680.0,0
1406,1.0,3.0,1.0,6.0,-2.0,-1.0,-3.0,-1.0,1650847587167680.0,0
1407,-3.0,-4.0,-15.0,-9.0,0.0,0.0,-1.0,1.0,1650847587167680.0,0
1408,0.0,1.0,2.0,0.0,-1.0,0.0,0.0,0.0,1650847587169637.0,0
1409,0.0,-1.0,20.0,7.0,0.0,1.0,-1.0,0.0,1650847587169637.0,0
1410,-2.0,-6.0,-34.0,-2.0,4.0,-1.0,-2.0,-3.0,1650847587182647.0,0
1411,0.0,2.0,12.0,-1.0,-1.0,-1.0,2.0,1.0,1650847587182647.0,0
1412,-1.0,-1.0,-7.0,-5.0,-4.0,-4.0,-2.0,-3.0,1650847587184598.0,0
1413,0.0,-4.0,-12.0,-8.0,0.0,0.0,0.0,-1.0,1650847587184598.0,0
1414,1.0,5.0,8.0,-5.0,-5.0,0.0,1.0,-1.0,1650847587205428.0,0
1415,0.0,0.0,4.0,6.0,1.0,0.0,-2.0,0.0,1650847587205428.0,0
1416,1.0,1.0,-11.0,-3.0,1.0,1.0,8.0,3.0,1650847587206359.0,0
1417,-4.0,-4.0,0.0,1.0,-2.0,-4.0,-6.0,-8.0,1650847587206359.0,0
1418,0.0,-5.0,-2.0,-6.0,-4.0,-3.0,-5.0,8.0,1650847587227305.0,0
1419,1.0,2.0,3.0,4.0,3.0,0.0,1.0,-1.0,1650847587227305.0,0
1420,1.0,6.0,42.0,7.0,-1.0,3.0,4.0,-1.0,1650847587229298.0,0
1421,2.0,-5.0,-35.0,-12.0,-4.0,-2.0,1.0,4.0,1650847587229298.0,0
1422,-3.0,4.0,-10.0,-1.0,0.0,2.0,-3.0,-7.0,1650847587242329.0,3
1423,-6.0,-15.0,10.0,-1.0,-6.0,-4.0,-3.0,-2.0,1650847587242329.0,3
1424,2.0,5.0,2.0,2.0,0.0,-4.0,-3.0,3.0,1650847587249245.0,3
1425,-1.0,6.0,18.0,2.0,0.0,0.0,0.0,-6.0,1650847587249245.0,3
1426,1.0,-6.0,10.0,-7.0,3.0,5.0,5.0,1.0,1650847587264865.0,3
1427,2.0,9.0,-14.0,7.0,5.0,2.0,1.0,4.0,1650847587264865.0,3
1428,-5.0,-7.0,3.0,-6.0,-3.0,-1.0,-3.0,-4.0,1650847587266833.0,3
1429,3.0,9.0,8.0,-10.0,-4.0,-4.0,-3.0,1.0,1650847587266833.0,3
1430,-4.0,-5.0,24.0,16.0,-2.0,-6.0,-5.0,-4.0,1650847587287988.0,3
1431,4.0,5.0,0.0,-6.0,2.0,4.0,3.0,1.0,1650847587287988.0,3
1432,0.0,-3.0,14.0,10.0,3.0,3.0,2.0,2.0,1650847587288918.0,3
1433,-1.0,-4.0,-29.0,-11.0,-3.0,0.0,3.0,4.0,1650847587288918.0,3
1434,-4.0,-24.0,-88.0,-19.0,-2.0,1.0,8.0,2.0,1650847587301949.0,3
1435,-3.0,6.0,29.0,-7.0,-15.0,-15.0,-17.0,-7.0,1650847587301949.0,3
1436,-6.0,-21.0,-20.0,-14.0,0.0,0.0,-5.0,-6.0,1650847587308930.0,3
1437,1.0,14.0,55.0,18.0,3.0,-3.0,-5.0,-3.0,1650847587308930.0,3
1438,2.0,5.0,12.0,-4.0,-5.0,-1.0,3.0,3.0,1650847587324975.0,3
1439,-4.0,-12.0,-36.0,-7.0,-1.0,3.0,7.0,0.0,1650847587324975.0,3
1440,3.0,5.0,-3.0,-4.0,-3.0,-1.0,4.0,4.0,1650847587326905.0,3
1441,-4.0,-2.0,22.0,7.0,0.0,0.0,-11.0,-8.0,1650847587326905.0,3
1442,5.0,15.0,5.0,-2.0,1.0,1.0,11.0,9.0,1650847587346876.0,3
1443,-8.0,-16.0,-26.0,3.0,-5.0,-8.0,-21.0,-14.0,1650847587346876.0,3
1444,0.0,-8.0,-49.0,-2.0,-1.0,2.0,6.0,2.0,1650847587355785.0,3
1445,-1.0,-1.0,19.0,-2.0,-2.0,5.0,7.0,2.0,1650847587355785.0,3
1446,-1.0,1.0,-25.0,-2.0,11.0,1.0,-4.0,-5.0,1650847587361838.0,3
1447,8.0,20.0,68.0,15.0,3.0,2.0,10.0,9.0,1650847587361838.0,3
1448,-7.0,-7.0,-52.0,-21.0,-16.0,-12.0,-15.0,-10.0,1650847587368751.0,3
1449,-7.0,-46.0,-61.0,-37.0,-17.0,-7.0,5.0,-1.0,1650847587368751.0,3
1450,0.0,31.0,72.0,39.0,18.0,4.0,-10.0,-7.0,1650847587385763.0,3
1451,0.0,-2.0,-9.0,7.0,4.0,1.0,9.0,7.0,1650847587385763.0,3
1452,3.0,19.0,27.0,-15.0,-13.0,-5.0,-4.0,-3.0,1650847587386754.0,3
1453,1.0,-9.0,47.0,46.0,45.0,15.0,10.0,6.0,1650847587386754.0,3
1454,-9.0,-33.0,-7.0,-3.0,-20.0,-12.0,-2.0,-3.0,1650847587408137.0,3
1455,5.0,23.0,34.0,10.0,22.0,11.0,-1.0,-2.0,1650847587408137.0,3
1456,-6.0,-31.0,-36.0,-2.0,-10.0,-8.0,-11.0,-8.0,1650847587408796.0,3
1457,14.0,51.0,35.0,1.0,-7.0,3.0,13.0,19.0,1650847587408796.0,3
1458,-7.0,-16.0,20.0,-6.0,-3.0,-4.0,-3.0,-7.0,1650847587421882.0,3
1459,4.0,11.0,-28.0,9.0,14.0,9.0,18.0,8.0,1650847587421882.0,3
1460,-7.0,-5.0,39.0,-3.0,-16.0,-12.0,-19.0,-9.0,1650847587428802.0,3
1461,-1.0,3.0,-8.0,15.0,-2.0,3.0,9.0,-2.0,1650847587428802.0,3
1462,0.0,5.0,-41.0,-18.0,-8.0,2.0,1.0,4.0,1650847587444823.0,3
1463,1.0,-8.0,59.0,-4.0,-18.0,-8.0,1.0,4.0,1650847587444823.0,3
1464,-2.0,16.0,-39.0,-3.0,9.0,2.0,-23.0,-13.0,1650847587446753.0,3
1465,-1.0,-27.0,-66.0,-5.0,-4.0,-3.0,9.0,9.0,1650847587446753.0,3
1466,2.0,12.0,56.0,2.0,-9.0,-9.0,-12.0,-5.0,1650847587468161.0,3
1467,-5.0,-20.0,-35.0,-33.0,-9.0,0.0,3.0,-2.0,1650847587468161.0,3
1468,10.0,34.0,115.0,63.0,33.0,16.0,27.0,19.0,1650847587468950.0,3
1469,-10.0,-16.0,-34.0,-15.0,4.0,-3.0,-6.0,-8.0,1650847587468950.0,3
1470,2.0,3.0,26.0,5.0,-2.0,-4.0,-24.0,-13.0,1650847587481106.0,3
1471,-2.0,-1.0,-8.0,-27.0,-28.0,-10.0,-3.0,1.0,1650847587481106.0,3
1472,7.0,2.0,1.0,-30.0,9.0,2.0,-3.0,3.0,1650847587490130.0,3
1473,2.0,10.0,33.0,48.0,-1.0,5.0,6.0,6.0,1650847587490130.0,3
1474,5.0,17.0,7.0,11.0,18.0,10.0,16.0,14.0,1650847587504867.0,3
1475,-3.0,4.0,-34.0,-9.0,-4.0,-6.0,-15.0,-13.0,1650847587504867.0,3
1476,-8.0,-15.0,8.0,9.0,-1.0,2.0,26.0,7.0,1650847587506794.0,3
1477,-5.0,3.0,-44.0,-41.0,-31.0,-20.0,-34.0,-20.0,1650847587506794.0,3
1478,0.0,12.0,21.0,-1.0,20.0,4.0,-3.0,-4.0,1650847587527748.0,3
1479,10.0,-2.0,-6.0,12.0,16.0,20.0,15.0,11.0,1650847587527748.0,3
1480,-9.0,-19.0,-50.0,-10.0,-12.0,-10.0,4.0,-2.0,1650847587529759.0,3
1481,13.0,33.0,87.0,8.0,11.0,12.0,4.0,7.0,1650847587529759.0,3
1482,-7.0,-2.0,-30.0,-16.0,-22.0,-12.0,-19.0,-15.0,1650847587541770.0,3
1483,-8.0,-38.0,-77.0,-3.0,3.0,-2.0,6.0,-1.0,1650847587541770.0,3
1484,5.0,0.0,34.0,-6.0,5.0,5.0,2.0,7.0,1650847587550821.0,3
1485,1.0,28.0,41.0,18.0,4.0,-2.0,-11.0,-6.0,1650847587550821.0,3
1486,1.0,-16.0,-52.0,-21.0,-7.0,0.0,26.0,14.0,1650847587564869.0,3
1487,-4.0,3.0,18.0,-1.0,-7.0,-8.0,-6.0,-4.0,1650847587564869.0,3
1488,-6.0,-10.0,-26.0,-13.0,-15.0,-12.0,-25.0,-14.0,1650847587566810.0,3
1489,-9.0,-9.0,-3.0,11.0,2.0,-5.0,-12.0,-14.0,1650847587566810.0,3
1490,17.0,-41.0,-94.0,-26.0,11.0,31.0,60.0,39.0,1650847587587839.0,3
1491,-3.0,61.0,73.0,26.0,9.0,-6.0,-35.0,-25.0,1650847587587839.0,3
1492,4.0,-8.0,11.0,8.0,7.0,6.0,18.0,11.0,1650847587588839.0,3
1493,-4.0,-9.0,-1.0,-28.0,-20.0,-14.0,-20.0,-11.0,1650847587588839.0,3
1494,0.0,13.0,63.0,30.0,18.0,7.0,15.0,4.0,1650847587609823.0,3
1495,-3.0,-55.0,-42.0,-10.0,-6.0,2.0,1.0,0.0,1650847587609823.0,3
1496,-9.0,13.0,-4.0,-24.0,-16.0,-14.0,-26.0,-20.0,1650847587611750.0,3
1497,9.0,4.0,-25.0,18.0,13.0,6.0,16.0,15.0,1650847587611750.0,3
1498,-8.0,-19.0,15.0,-26.0,-30.0,-19.0,-24.0,-13.0,1650847587626710.0,3
1499,2.0,34.0,29.0,15.0,21.0,13.0,22.0,12.0,1650847587626710.0,3
1500,5.0,25.0,71.0,25.0,9.0,2.0,-5.0,1.0,1650847587628746.0,3
1501,-15.0,-28.0,-66.0,-45.0,-14.0,-8.0,-13.0,-19.0,1650847587628746.0,3
1502,17.0,22.0,60.0,46.0,27.0,21.0,29.0,26.0,1650847587648218.0,3
1503,-8.0,-27.0,-91.0,-30.0,-18.0,-21.0,-31.0,-15.0,1650847587648218.0,3
1504,-1.0,-8.0,27.0,9.0,-1.0,6.0,13.0,1.0,1650847587649218.0,3
1505,9.0,22.0,9.0,1.0,13.0,14.0,24.0,21.0,1650847587649218.0,3
1506,-14.0,-45.0,-26.0,-9.0,-23.0,-17.0,-33.0,-25.0,1650847587661833.0,3
1507,6.0,22.0,41.0,14.0,5.0,10.0,16.0,10.0,1650847587661833.0,3
1508,7.0,26.0,-17.0,-2.0,16.0,10.0,-3.0,-1.0,1650847587670809.0,3
1509,-7.0,-41.0,-55.0,-40.0,-18.0,-12.0,6.0,-4.0,1650847587670809.0,3
1510,12.0,28.0,-1.0,30.0,3.0,4.0,-3.0,8.0,1650847587684881.0,3
1511,-3.0,-13.0,-4.0,-5.0,10.0,8.0,9.0,2.0,1650847587684881.0,3
1512,-6.0,-16.0,7.0,-3.0,-19.0,-16.0,-17.0,-9.0,1650847587686810.0,3
1513,-1.0,-12.0,-22.0,-34.0,-2.0,4.0,-1.0,1.0,1650847587686810.0,3
1514,-1.0,16.0,40.0,56.0,11.0,3.0,20.0,11.0,1650847587707889.0,3
1515,-4.0,-3.0,60.0,1.0,-13.0,-15.0,-35.0,-20.0,1650847587707889.0,3
1516,9.0,13.0,4.0,9.0,9.0,10.0,26.0,20.0,1650847587708821.0,3
1517,-3.0,5.0,15.0,12.0,4.0,-2.0,-9.0,-3.0,1650847587708821.0,3
1518,-7.0,-1.0,-82.0,-53.0,-15.0,-12.0,-17.0,-14.0,1650847587721828.0,3
1519,8.0,25.0,49.0,16.0,-3.0,5.0,23.0,16.0,1650847587721828.0,3
1520,6.0,-50.0,-15.0,15.0,19.0,9.0,11.0,11.0,1650847587736746.0,3
1521,-5.0,32.0,-51.0,-16.0,-20.0,-10.0,-11.0,-7.0,1650847587736746.0,3
1522,0.0,-1.0,7.0,2.0,4.0,-1.0,1.0,1.0,1650847587745741.0,3
1523,-3.0,-5.0,-29.0,-11.0,1.0,-2.0,-10.0,-11.0,1650847587745741.0,3
1524,-1.0,20.0,4.0,1.0,-22.0,-6.0,0.0,-1.0,1650847587746726.0,3
1525,9.0,-2.0,63.0,38.0,27.0,10.0,13.0,10.0,1650847587746726.0,3
1526,2.0,-18.0,-73.0,-25.0,4.0,9.0,3.0,5.0,1650847587767915.0,3
1527,-7.0,-9.0,-27.0,-31.0,-22.0,-16.0,-11.0,-5.0,1650847587767915.0,3
1528,0.0,-7.0,-37.0,26.0,15.0,13.0,-3.0,-4.0,1650847587768913.0,3
1529,-7.0,-14.0,46.0,39.0,17.0,1.0,-2.0,-7.0,1650847587768913.0,3
1530,5.0,30.0,38.0,14.0,22.0,8.0,5.0,4.0,1650847587781878.0,3
1531,-6.0,-27.0,-24.0,-24.0,-15.0,-10.0,-22.0,-16.0,1650847587781878.0,3
1532,7.0,7.0,20.0,12.0,6.0,14.0,47.0,30.0,1650847587790916.0,3
1533,-7.0,4.0,-15.0,-14.0,-17.0,-15.0,-42.0,-25.0,1650847587790916.0,3
1534,-4.0,-9.0,37.0,-8.0,-2.0,-4.0,-7.0,-10.0,1650847587804852.0,3
1535,13.0,21.0,26.0,27.0,19.0,14.0,24.0,18.0,1650847587804852.0,3
1536,-4.0,31.0,27.0,13.0,3.0,-6.0,-18.0,-8.0,1650847587806780.0,3
1537,3.0,-8.0,-29.0,-3.0,12.0,17.0,24.0,9.0,1650847587806780.0,3
1538,-4.0,-1.0,22.0,1.0,-13.0,-9.0,-21.0,-12.0,1650847587827724.0,3
1539,-5.0,-7.0,-23.0,-21.0,-10.0,-7.0,-15.0,-7.0,1650847587827724.0,3
1540,-8.0,-22.0,-9.0,0.0,-2.0,1.0,8.0,-3.0,1650847587829746.0,3
1541,13.0,16.0,27.0,19.0,7.0,5.0,21.0,20.0,1650847587829746.0,3
1542,-6.0,8.0,28.0,-8.0,-6.0,-12.0,-29.0,-14.0,1650847587841767.0,3
1543,6.0,12.0,-41.0,-1.0,1.0,8.0,10.0,3.0,1650847587841767.0,3
1544,2.0,-25.0,-11.0,-13.0,-3.0,-1.0,8.0,5.0,1650847587850758.0,3
1545,-2.0,39.0,39.0,19.0,-5.0,-2.0,-7.0,-3.0,1650847587850758.0,3
1546,-8.0,-10.0,-16.0,9.0,9.0,1.0,-2.0,-13.0,1650847587865714.0,3
1547,6.0,-3.0,21.0,21.0,12.0,10.0,21.0,15.0,1650847587865714.0,3
1548,3.0,18.0,15.0,-27.0,-10.0,-5.0,-12.0,-2.0,1650847587866715.0,3
1549,-1.0,-19.0,-8.0,10.0,-1.0,0.0,3.0,1.0,1650847587866715.0,3
1550,-6.0,24.0,-14.0,-44.0,-28.0,-10.0,0.0,-5.0,1650847587887330.0,3
1551,-13.0,-61.0,28.0,58.0,17.0,1.0,-9.0,-9.0,1650847587887330.0,3
1552,7.0,15.0,7.0,3.0,7.0,4.0,-10.0,-3.0,1650847587889327.0,3
1553,-6.0,-25.0,-38.0,-7.0,-2.0,-2.0,1.0,-1.0,1650847587889327.0,3
1554,2.0,-4.0,-20.0,-10.0,-6.0,0.0,4.0,2.0,1650847587901416.0,3
1555,-3.0,-9.0,-18.0,-19.0,-14.0,-7.0,4.0,-2.0,1650847587901416.0,3
1556,0.0,16.0,13.0,-6.0,-3.0,-2.0,-2.0,-2.0,1650847587917813.0,3
1557,-2.0,-8.0,-23.0,-3.0,-2.0,-1.0,-12.0,-8.0,1650847587917813.0,3
1558,-1.0,14.0,50.0,14.0,1.0,2.0,3.0,0.0,1650847587924860.0,3
1559,5.0,-11.0,-23.0,-10.0,0.0,5.0,20.0,15.0,1650847587924860.0,3
1560,-15.0,-23.0,-29.0,-14.0,-11.0,-15.0,-23.0,-19.0,1650847587926788.0,3
1561,9.0,33.0,29.0,11.0,24.0,16.0,17.0,12.0,1650847587926788.0,3
1562,5.0,-3.0,-4.0,21.0,11.0,2.0,0.0,6.0,1650847587947798.0,3
1563,1.0,43.0,99.0,-1.0,-10.0,0.0,1.0,-5.0,1650847587947798.0,3
1564,9.0,11.0,-34.0,29.0,33.0,17.0,8.0,13.0,1650847587949729.0,3
1565,-5.0,-11.0,-10.0,-27.0,-26.0,-9.0,-10.0,-8.0,1650847587949729.0,3
1566,6.0,7.0,12.0,-3.0,-2.0,0.0,2.0,0.0,1650847587961693.0,3
1567,-5.0,-9.0,2.0,-29.0,0.0,-3.0,-13.0,-9.0,1650847587961693.0,3
1568,4.0,-17.0,-13.0,10.0,-12.0,1.0,23.0,11.0,1650847587976721.0,3
1569,-1.0,11.0,-15.0,-10.0,-4.0,-9.0,-14.0,-8.0,1650847587976721.0,3
1570,1.0,12.0,12.0,-2.0,10.0,3.0,-2.0,-4.0,1650847587985638.0,3
1571,1.0,16.0,0.0,37.0,5.0,8.0,16.0,12.0,1650847587985638.0,3
1572,-12.0,-17.0,-15.0,-42.0,-17.0,-14.0,-23.0,-18.0,1650847587986639.0,3
1573,2.0,-17.0,23.0,12.0,10.0,5.0,21.0,13.0,1650847587986639.0,3
1574,-10.0,-15.0,-8.0,-3.0,-15.0,-13.0,-29.0,-19.0,1650847588007245.0,3
1575,4.0,-2.0,-12.0,-9.0,-1.0,-4.0,11.0,9.0,1650847588007245.0,3
1576,6.0,9.0,18.0,21.0,8.0,9.0,26.0,19.0,1650847588015228.0,3
1577,-9.0,-17.0,-19.0,-4.0,-5.0,-13.0,-30.0,-18.0,1650847588015228.0,3
1578,-7.0,-19.0,-37.0,-9.0,-1.0,3.0,17.0,9.0,1650847588030251.0,3
1579,10.0,12.0,33.0,8.0,0.0,-3.0,-4.0,9.0,1650847588030251.0,3
1580,-5.0,15.0,-14.0,-13.0,-11.0,-9.0,-12.0,-11.0,1650847588032180.0,3
1581,0.0,-27.0,-27.0,-22.0,-13.0,2.0,21.0,10.0,1650847588032180.0,3
1582,-6.0,-10.0,10.0,18.0,12.0,-4.0,-15.0,-7.0,1650847588045176.0,3
1583,0.0,3.0,-18.0,10.0,7.0,7.0,8.0,6.0,1650847588045176.0,3
1584,-3.0,5.0,2.0,-27.0,-10.0,-9.0,-16.0,-11.0,1650847588047141.0,3
1585,0.0,4.0,16.0,13.0,6.0,0.0,2.0,0.0,1650847588047141.0,3
1586,0.0,-18.0,-30.0,30.0,6.0,5.0,7.0,2.0,1650847588068118.0,3
1587,-6.0,-5.0,-8.0,-12.0,2.0,-2.0,-3.0,-6.0,1650847588068118.0,3
1588,2.0,-15.0,1.0,6.0,8.0,3.0,7.0,4.0,1650847588069116.0,3
1589,0.0,6.0,3.0,-16.0,-8.0,-5.0,-15.0,-9.0,1650847588069116.0,3
1590,6.0,13.0,34.0,-2.0,-4.0,5.0,15.0,13.0,1650847588089828.0,3
1591,-3.0,-7.0,5.0,7.0,-4.0,-9.0,-19.0,-9.0,1650847588089828.0,3
1592,-6.0,-12.0,-28.0,-10.0,-5.0,-6.0,-12.0,-11.0,1650847588091825.0,3
1593,4.0,6.0,51.0,18.0,5.0,1.0,7.0,8.0,1650847588091825.0,3
1594,-3.0,-1.0,-10.0,-13.0,-7.0,-7.0,-15.0,-4.0,1650847588104790.0,3
1595,-2.0,-8.0,-5.0,1.0,3.0,9.0,16.0,0.0,1650847588104790.0,3
1596,3.0,24.0,22.0,4.0,5.0,11.0,10.0,3.0,1650847588106786.0,3
1597,-1.0,2.0,-8.0,3.0,3.0,12.0,11.0,2.0,1650847588106786.0,3
1598,0.0,-6.0,23.0,0.0,-6.0,-25.0,-23.0,-4.0,1650847588127815.0,3
1599,-1.0,2.0,-22.0,-6.0,3.0,6.0,2.0,2.0,1650847588127815.0,3
1600,-6.0,-4.0,-7.0,4.0,-6.0,-20.0,-6.0,-9.0,1650847588129813.0,3
1601,1.0,-1.0,2.0,1.0,5.0,22.0,17.0,6.0,1650847588129813.0,3
1602,2.0,-6.0,-34.0,-13.0,-1.0,25.0,19.0,2.0,1650847588149937.0,3
1603,-3.0,-2.0,-3.0,0.0,-5.0,-19.0,-21.0,-8.0,1650847588149937.0,3
1604,-7.0,1.0,-2.0,-7.0,-4.0,-5.0,-5.0,-5.0,1650847588151887.0,3
1605,-1.0,-1.0,6.0,3.0,-2.0,-17.0,-13.0,-4.0,1650847588151887.0,3
1606,0.0,1.0,15.0,2.0,-1.0,-6.0,-5.0,5.0,1650847588164898.0,3
1607,-5.0,-15.0,-8.0,-5.0,-2.0,3.0,2.0,-14.0,1650847588164898.0,3
1608,-1.0,13.0,3.0,1.0,-4.0,-4.0,-5.0,2.0,1650847588171863.0,3
1609,-3.0,-16.0,-11.0,1.0,0.0,-6.0,-6.0,-9.0,1650847588171863.0,3
1610,5.0,28.0,0.0,-13.0,-3.0,9.0,10.0,6.0,1650847588188174.0,3
1611,-2.0,-28.0,-19.0,-11.0,-5.0,-4.0,-2.0,-2.0,1650847588188174.0,3
1612,1.0,1.0,-23.0,3.0,0.0,2.0,0.0,-1.0,1650847588189174.0,3
1613,0.0,3.0,-2.0,-4.0,-2.0,1.0,2.0,1.0,1650847588189174.0,3
1614,-4.0,-12.0,-2.0,5.0,0.0,2.0,6.0,-4.0,1650847588210270.0,3
1615,-2.0,17.0,11.0,7.0,2.0,-8.0,-8.0,2.0,1650847588210270.0,3
1616,7.0,-7.0,7.0,-2.0,3.0,16.0,6.0,-2.0,1650847588212206.0,3
1617,1.0,6.0,-2.0,-7.0,-5.0,2.0,14.0,6.0,1650847588212206.0,3
1618,-2.0,-11.0,-9.0,0.0,3.0,0.0,-2.0,-2.0,1650847588224165.0,3
1619,-2.0,12.0,-6.0,-2.0,0.0,-4.0,-6.0,-7.0,1650847588224165.0,3
1620,1.0,1.0,15.0,13.0,7.0,3.0,0.0,2.0,1650847588231214.0,3
1621,-3.0,-7.0,-10.0,-10.0,-6.0,-9.0,-5.0,-1.0,1650847588231214.0,3
1622,2.0,3.0,9.0,-3.0,-1.0,0.0,4.0,2.0,1650847588248199.0,3
1623,-1.0,3.0,-1.0,0.0,-5.0,3.0,-1.0,0.0,1650847588248199.0,3
1624,2.0,4.0,-8.0,2.0,3.0,1.0,1.0,0.0,1650847588249198.0,3
1625,0.0,0.0,-1.0,1.0,1.0,-1.0,-3.0,-1.0,1650847588249198.0,3
1626,-3.0,1.0,19.0,-1.0,-2.0,-4.0,-2.0,-3.0,1650847588269807.0,3
1627,2.0,-4.0,-21.0,-5.0,-5.0,0.0,2.0,4.0,1650847588269807.0,3
1628,-3.0,-11.0,-8.0,-3.0,-1.0,-1.0,-2.0,0.0,1650847588271805.0,3
1629,-3.0,3.0,13.0,7.0,0.0,-3.0,-6.0,-4.0,1650847588271805.0,3
1630,0.0,2.0,4.0,2.0,-1.0,1.0,1.0,1.0,1650847588283772.0,3
1631,1.0,5.0,-20.0,-13.0,-2.0,1.0,2.0,1.0,1650847588283772.0,3
1632,-1.0,-5.0,2.0,-7.0,-4.0,-2.0,-3.0,0.0,1650847588292579.0,3
1633,-3.0,-3.0,16.0,11.0,1.0,3.0,-1.0,-1.0,1650847588292579.0,3
1634,2.0,2.0,-14.0,-3.0,0.0,3.0,4.0,2.0,1650847588308221.0,3
1635,3.0,8.0,29.0,6.0,0.0,-1.0,1.0,1.0,1650847588308221.0,3
1636,-1.0,-6.0,-4.0,-2.0,-1.0,-3.0,1.0,-3.0,1650847588309221.0,3
1637,1.0,6.0,-3.0,-1.0,1.0,-3.0,-4.0,0.0,1650847588309221.0,3
1638,-2.0,-8.0,-10.0,-1.0,-1.0,3.0,3.0,-2.0,1650847588330258.0,3
1639,0.0,4.0,11.0,3.0,1.0,-7.0,-7.0,-2.0,1650847588330258.0,3
1640,1.0,3.0,4.0,0.0,0.0,10.0,6.0,3.0,1650847588332212.0,3
1641,1.0,3.0,2.0,3.0,0.0,1.0,6.0,4.0,1650847588332212.0,3
1642,1.0,-1.0,-8.0,-7.0,-4.0,5.0,3.0,-4.0,1650847588344219.0,3
1643,-1.0,1.0,10.0,3.0,0.0,1.0,2.0,-2.0,1650847588344219.0,3
1644,1.0,-3.0,2.0,2.0,0.0,-5.0,-9.0,-2.0,1650847588353128.0,3
1645,-2.0,-3.0,-8.0,-3.0,0.0,0.0,-2.0,-1.0,1650847588353128.0,3
1646,-1.0,4.0,-2.0,0.0,-1.0,-6.0,0.0,1.0,1650847588367321.0,3
1647,1.0,3.0,-4.0,-2.0,0.0,2.0,-1.0,1.0,1650847588367321.0,3
1648,-2.0,-2.0,0.0,-1.0,-1.0,-3.0,-1.0,-1.0,1650847588369296.0,3
1649,-2.0,-2.0,2.0,-3.0,0.0,0.0,0.0,-2.0,1650847588369296.0,3
1650,-3.0,-2.0,5.0,6.0,2.0,-4.0,-2.0,1.0,1650847588390393.0,3
1651,-2.0,6.0,-5.0,-3.0,-3.0,-2.0,0.0,0.0,1650847588390393.0,3
1652,0.0,0.0,13.0,2.0,1.0,-2.0,-3.0,0.0,1650847588391350.0,3
1653,-1.0,-4.0,-9.0,0.0,2.0,3.0,-1.0,-2.0,1650847588391350.0,3
1654,2.0,-3.0,0.0,0.0,-2.0,-3.0,-3.0,0.0,1650847588404356.0,3
1655,0.0,-1.0,-7.0,-2.0,-1.0,-1.0,1.0,1.0,1650847588404356.0,3
1656,-1.0,1.0,1.0,2.0,-3.0,1.0,2.0,-2.0,1650847588411338.0,3
1657,1.0,-1.0,-2.0,-4.0,-2.0,-3.0,-3.0,-1.0,1650847588411338.0,3
1658,-1.0,-1.0,-3.0,-1.0,-1.0,-4.0,-2.0,0.0,1650847588429499.0,3
1659,1.0,2.0,4.0,-2.0,-2.0,1.0,3.0,0.0,1650847588429499.0,3
1660,0.0,1.0,-1.0,0.0,1.0,1.0,-1.0,2.0,1650847588430495.0,3
1661,-1.0,-7.0,-3.0,-1.0,-2.0,-1.0,-1.0,-1.0,1650847588430495.0,3
1662,0.0,1.0,3.0,3.0,1.0,0.0,-2.0,1.0,1650847588450664.0,3
1663,1.0,0.0,0.0,0.0,2.0,1.0,2.0,-1.0,1650847588450664.0,3
1664,-3.0,-2.0,1.0,-6.0,-1.0,-2.0,-1.0,0.0,1650847588451582.0,3
1665,-1.0,0.0,-3.0,-2.0,-5.0,-2.0,-3.0,1.0,1650847588451582.0,3
1666,-3.0,1.0,-6.0,2.0,3.0,1.0,1.0,-1.0,1650847588463559.0,3
1667,0.0,1.0,5.0,4.0,2.0,2.0,0.0,0.0,1650847588463559.0,3
1668,-3.0,-5.0,-2.0,-2.0,-1.0,-2.0,1.0,1.0,1650847588472594.0,3
1669,2.0,3.0,-2.0,-3.0,0.0,-1.0,0.0,0.0,1650847588472594.0,3
1670,1.0,1.0,7.0,0.0,-2.0,-1.0,0.0,-1.0,1650847588487601.0,3
1671,-2.0,-12.0,-30.0,-8.0,-4.0,-3.0,-2.0,-1.0,1650847588487601.0,3
1672,0.0,-4.0,-6.0,2.0,2.0,0.0,0.0,0.0,1650847588489623.0,3
1673,-1.0,1.0,6.0,-2.0,-1.0,0.0,-1.0,-1.0,1650847588489623.0,3
1674,2.0,3.0,-2.0,-4.0,-3.0,-1.0,-2.0,0.0,1650847588510708.0,3
1675,-5.0,-5.0,2.0,1.0,1.0,-1.0,-1.0,0.0,1650847588510708.0,3
1676,0.0,-1.0,-2.0,-1.0,0.0,-2.0,-2.0,-3.0,1650847588511716.0,3
1677,0.0,-1.0,-3.0,1.0,0.0,1.0,1.0,-2.0,1650847588511716.0,3
1678,-1.0,-4.0,-2.0,1.0,-2.0,-3.0,-2.0,-2.0,1650847588523802.0,3
1679,1.0,4.0,5.0,0.0,-1.0,0.0,-1.0,-2.0,1650847588523802.0,3
1680,2.0,0.0,1.0,-2.0,-3.0,-3.0,0.0,-1.0,1650847588532575.0,3
1681,-1.0,2.0,-1.0,0.0,1.0,-1.0,0.0,1.0,1650847588532575.0,3
1682,-1.0,-5.0,-5.0,-2.0,1.0,1.0,0.0,-2.0,1650847588547604.0,3
1683,0.0,0.0,8.0,2.0,-1.0,3.0,2.0,2.0,1650847588547604.0,3
1684,-1.0,-1.0,-2.0,0.0,-2.0,0.0,-1.0,0.0,1650847588549532.0,3
1685,-1.0,0.0,-5.0,-1.0,-1.0,-1.0,-1.0,-1.0,1650847588549532.0,3
1686,0.0,-2.0,0.0,-2.0,0.0,1.0,0.0,0.0,1650847588569801.0,3
1687,-2.0,-5.0,-2.0,-2.0,-4.0,-6.0,-3.0,-1.0,1650847588569801.0,3
1688,0.0,-3.0,-1.0,-1.0,0.0,0.0,0.0,-1.0,1650847588571797.0,3
1689,0.0,-2.0,-9.0,-4.0,-1.0,0.0,-1.0,0.0,1650847588571797.0,3
1690,-2.0,1.0,10.0,5.0,0.0,-3.0,-2.0,-1.0,1650847588583830.0,3
1691,0.0,3.0,3.0,-2.0,-2.0,1.0,0.0,0.0,1650847588583830.0,3
1692,-1.0,1.0,13.0,6.0,0.0,0.0,0.0,-1.0,1650847588592740.0,3
1693,-2.0,-10.0,-11.0,-8.0,-2.0,-1.0,-1.0,-2.0,1650847588592740.0,3
1694,-1.0,0.0,-8.0,-4.0,0.0,2.0,-2.0,0.0,1650847588608810.0,3
1695,1.0,3.0,5.0,4.0,2.0,0.0,0.0,-1.0,1650847588608810.0,3
1696,1.0,1.0,3.0,-1.0,-4.0,-1.0,0.0,-1.0,1650847588610291.0,3
1697,-1.0,0.0,-2.0,0.0,-2.0,1.0,1.0,0.0,1650847588610291.0,3
1698,-1.0,-1.0,-16.0,-7.0,-1.0,0.0,1.0,-1.0,1650847588629759.0,3
1699,-3.0,1.0,32.0,12.0,1.0,0.0,-1.0,-3.0,1650847588629759.0,3
1700,-1.0,3.0,-4.0,0.0,-2.0,-2.0,-2.0,1.0,1650847588636808.0,3
1701,2.0,4.0,4.0,3.0,0.0,-1.0,0.0,0.0,1650847588636808.0,3
1702,-1.0,0.0,-9.0,-7.0,-2.0,-2.0,-1.0,-1.0,1650847588643754.0,3
1703,1.0,1.0,0.0,-1.0,-1.0,0.0,-2.0,1.0,1650847588643754.0,3
1704,-3.0,-4.0,-8.0,-3.0,-1.0,-1.0,-1.0,-2.0,1650847588652699.0,3
1705,1.0,4.0,3.0,0.0,2.0,0.0,-1.0,0.0,1650847588652699.0,3
1706,1.0,0.0,9.0,4.0,0.0,-3.0,-1.0,0.0,1650847588667726.0,3
1707,-1.0,-2.0,-2.0,-3.0,0.0,1.0,1.0,-2.0,1650847588667726.0,3
1708,1.0,3.0,-15.0,-3.0,0.0,-2.0,-1.0,1.0,1650847588669655.0,3
1709,0.0,-3.0,-1.0,-1.0,-3.0,-2.0,-2.0,1.0,1650847588669655.0,3
1710,-2.0,-7.0,-12.0,-3.0,1.0,3.0,1.0,-1.0,1650847588690764.0,3
1711,-1.0,-1.0,3.0,-1.0,-2.0,-2.0,-2.0,0.0,1650847588690764.0,3
1712,1.0,3.0,1.0,-3.0,0.0,3.0,-1.0,0.0,1650847588691756.0,3
1713,0.0,0.0,4.0,3.0,-2.0,-5.0,-2.0,-1.0,1650847588691756.0,3
1714,0.0,-2.0,-1.0,-2.0,-2.0,0.0,-2.0,0.0,1650847588703774.0,3
1715,-1.0,-1.0,-7.0,-1.0,-1.0,-1.0,0.0,0.0,1650847588703774.0,3
1716,-1.0,-3.0,0.0,-2.0,-2.0,-1.0,1.0,-1.0,1650847588712683.0,3
1717,0.0,1.0,1.0,1.0,0.0,0.0,0.0,-1.0,1650847588712683.0,3
1718,-1.0,1.0,7.0,0.0,-1.0,-1.0,3.0,0.0,1650847588728136.0,3
1719,-1.0,-7.0,-18.0,-7.0,-1.0,-1.0,-1.0,0.0,1650847588728136.0,3
1720,-1.0,-2.0,12.0,2.0,-2.0,-3.0,-3.0,-3.0,1650847588728914.0,3
1721,-1.0,0.0,0.0,1.0,0.0,0.0,1.0,1.0,1650847588728914.0,3
1722,1.0,2.0,-4.0,1.0,0.0,1.0,-2.0,0.0,1650847588750083.0,3
1723,1.0,-1.0,-6.0,-2.0,-2.0,-1.0,1.0,1.0,1650847588750083.0,3
1724,-2.0,-2.0,4.0,-4.0,2.0,1.0,2.0,0.0,1650847588752010.0,3
1725,0.0,-1.0,-15.0,2.0,0.0,1.0,-1.0,-1.0,1650847588752010.0,3
1726,1.0,-1.0,7.0,2.0,0.0,-1.0,-1.0,-1.0,1650847588764318.0,3
1727,0.0,1.0,-8.0,-5.0,-2.0,0.0,-1.0,-1.0,1650847588764318.0,3
1728,0.0,-1.0,0.0,1.0,0.0,0.0,-2.0,0.0,1650847588773294.0,3
1729,2.0,1.0,4.0,-1.0,-1.0,1.0,1.0,0.0,1650847588773294.0,3
1730,-3.0,0.0,1.0,0.0,-1.0,-1.0,1.0,-1.0,1650847588787442.0,3
1731,-2.0,-4.0,-11.0,-1.0,0.0,-4.0,-1.0,-1.0,1650847588787442.0,3
1732,-1.0,-1.0,11.0,5.0,3.0,5.0,3.0,-1.0,1650847588789371.0,3
1733,0.0,3.0,6.0,0.0,-4.0,-5.0,0.0,0.0,1650847588789371.0,0
1734,1.0,0.0,-6.0,-2.0,0.0,1.0,2.0,-1.0,1650847588810381.0,0
1735,0.0,0.0,3.0,-3.0,-1.0,-1.0,-1.0,-1.0,1650847588810381.0,0
1736,-2.0,1.0,-10.0,-5.0,-3.0,-2.0,0.0,0.0,1650847588811312.0,0
1737,-3.0,-3.0,-3.0,-1.0,2.0,3.0,0.0,-2.0,1650847588811312.0,0
1738,0.0,-1.0,6.0,1.0,0.0,-3.0,-2.0,-1.0,1650847588824322.0,0
1739,-1.0,-1.0,-1.0,-1.0,-2.0,0.0,1.0,0.0,1650847588824322.0,0
1740,-2.0,-5.0,-4.0,0.0,1.0,1.0,-2.0,0.0,1650847588833254.0,0
1741,0.0,6.0,10.0,4.0,3.0,2.0,1.0,0.0,1650847588833254.0,0
1742,-3.0,-11.0,-18.0,-12.0,-9.0,-5.0,-1.0,-1.0,1650847588848163.0,0
1743,0.0,2.0,10.0,7.0,-1.0,0.0,0.0,-1.0,1650847588848163.0,0
1744,0.0,0.0,-4.0,-2.0,-5.0,-4.0,-3.0,2.0,1650847588849164.0,0
1745,-1.0,-2.0,0.0,-2.0,1.0,0.0,-1.0,0.0,1650847588849164.0,0
1746,0.0,3.0,3.0,1.0,0.0,1.0,-2.0,-1.0,1650847588870442.0,0
1747,0.0,-1.0,-3.0,-3.0,1.0,1.0,0.0,-1.0,1650847588870442.0,0
1748,-1.0,-2.0,0.0,0.0,-1.0,-1.0,0.0,-1.0,1650847588871370.0,0
1749,-1.0,-3.0,-4.0,-1.0,-2.0,-1.0,-1.0,0.0,1650847588871370.0,0
1750,0.0,3.0,2.0,-1.0,-2.0,0.0,-1.0,-2.0,1650847588883800.0,0
1751,-3.0,-6.0,-2.0,4.0,5.0,3.0,1.0,-1.0,1650847588883800.0,0
1752,0.0,-1.0,-1.0,-1.0,-1.0,-1.0,-1.0,0.0,1650847588892547.0,0
1753,-1.0,-2.0,-1.0,-2.0,-2.0,-2.0,0.0,-1.0,1650847588892547.0,0
1754,1.0,1.0,1.0,3.0,3.0,-1.0,1.0,-1.0,1650847588907676.0,0
1755,3.0,5.0,15.0,-5.0,-3.0,1.0,2.0,1.0,1650847588907676.0,0
1756,0.0,5.0,13.0,13.0,3.0,0.0,0.0,-1.0,1650847588909629.0,0
1757,-2.0,-12.0,-41.0,-13.0,-5.0,-1.0,0.0,-1.0,1650847588909629.0,0
1758,1.0,6.0,19.0,12.0,0.0,0.0,-2.0,1.0,1650847588930550.0,0
1759,1.0,1.0,-3.0,0.0,0.0,-1.0,0.0,-2.0,1650847588930550.0,0
1760,0.0,1.0,-6.0,-6.0,-2.0,3.0,4.0,0.0,1650847588931564.0,0
1761,0.0,1.0,15.0,3.0,0.0,-1.0,-2.0,2.0,1650847588931564.0,0
1762,-1.0,4.0,-2.0,1.0,2.0,0.0,1.0,-2.0,1650847588952761.0,0
1763,-1.0,-3.0,-8.0,-3.0,-2.0,-4.0,-2.0,1.0,1650847588952761.0,0
1764,-2.0,1.0,6.0,2.0,0.0,0.0,-1.0,-2.0,1650847588954758.0,0
1765,0.0,4.0,1.0,1.0,0.0,-3.0,-1.0,0.0,1650847588954758.0,0
1766,-2.0,-2.0,-4.0,-5.0,-4.0,0.0,0.0,-2.0,1650847588967791.0,0
1767,-2.0,1.0,1.0,1.0,-1.0,-1.0,0.0,1.0,1650847588967791.0,0
1768,2.0,-3.0,-6.0,-4.0,0.0,0.0,1.0,-1.0,1650847588969725.0,0
1769,0.0,-1.0,5.0,1.0,1.0,1.0,0.0,-1.0,1650847588969725.0,0
1770,-2.0,-3.0,2.0,2.0,4.0,1.0,0.0,-1.0,1650847588989848.0,0
1771,-1.0,-1.0,-7.0,-7.0,-5.0,-3.0,-1.0,-1.0,1650847588989848.0,0
1772,-1.0,-5.0,-6.0,-1.0,-2.0,-4.0,-2.0,0.0,1650847588991777.0,0
1773,-1.0,0.0,-3.0,2.0,1.0,6.0,0.0,0.0,1650847588991777.0,0
1774,1.0,1.0,13.0,5.0,1.0,-1.0,-2.0,0.0,1650847589012787.0,0
1775,-2.0,-3.0,-5.0,-1.0,-2.0,0.0,-1.0,0.0,1650847589012787.0,0
1776,0.0,0.0,-2.0,0.0,-2.0,-2.0,-1.0,0.0,1650847589014724.0,0
1777,0.0,5.0,9.0,2.0,1.0,-1.0,-3.0,-2.0,1650847589014724.0,0
1778,-2.0,-5.0,-4.0,-3.0,-2.0,-3.0,-2.0,-2.0,1650847589028220.0,0
1779,1.0,2.0,-1.0,4.0,4.0,3.0,3.0,0.0,1650847589028220.0,0
1780,-2.0,0.0,-3.0,-6.0,-2.0,-2.0,-2.0,-1.0,1650847589029220.0,0
1781,-1.0,-2.0,-3.0,-1.0,-2.0,-2.0,-2.0,0.0,1650847589029220.0,0
1782,0.0,1.0,12.0,-4.0,-3.0,0.0,-3.0,1.0,1650847589049823.0,0
1783,0.0,-3.0,-25.0,7.0,2.0,1.0,-1.0,-3.0,1650847589049823.0,0
1784,1.0,-2.0,1.0,-2.0,0.0,0.0,1.0,1.0,1650847589051820.0,0
1785,-1.0,1.0,4.0,-2.0,-2.0,1.0,-1.0,-3.0,1650847589051820.0,0
1786,-1.0,-2.0,-12.0,-8.0,-2.0,2.0,0.0,-1.0,1650847589072830.0,0
1787,-1.0,1.0,9.0,2.0,-1.0,-3.0,0.0,0.0,1650847589072830.0,0
1788,-1.0,-2.0,-2.0,1.0,-2.0,0.0,-1.0,0.0,1650847589074787.0,4
1789,0.0,-3.0,-3.0,1.0,1.0,-3.0,-2.0,-2.0,1650847589074787.0,4
1790,-1.0,-2.0,4.0,-2.0,-2.0,-3.0,0.0,-1.0,1650847589086726.0,4
1791,0.0,-1.0,5.0,3.0,3.0,3.0,-1.0,0.0,1650847589086726.0,4
1792,0.0,3.0,-7.0,-7.0,-5.0,-1.0,-1.0,0.0,1650847589093775.0,4
1793,-2.0,1.0,-1.0,-2.0,-1.0,-1.0,1.0,-1.0,1650847589093775.0,4
1794,-1.0,-3.0,4.0,2.0,-1.0,-1.0,-1.0,-1.0,1650847589110761.0,4
1795,0.0,4.0,1.0,-1.0,0.0,-2.0,-1.0,0.0,1650847589110761.0,4
1796,-3.0,-6.0,1.0,5.0,4.0,-2.0,-1.0,-3.0,1650847589111755.0,4
1797,1.0,-1.0,4.0,0.0,-4.0,-2.0,0.0,0.0,1650847589111755.0,4
1798,2.0,2.0,-10.0,-1.0,-1.0,1.0,0.0,1.0,1650847589132763.0,4
1799,-2.0,-2.0,-3.0,-4.0,-2.0,1.0,0.0,1.0,1650847589132763.0,4
1800,-1.0,4.0,7.0,1.0,0.0,0.0,0.0,0.0,1650847589134722.0,4
1801,-1.0,0.0,0.0,1.0,0.0,-3.0,0.0,-3.0,1650847589134722.0,4
1802,-3.0,-5.0,-12.0,0.0,0.0,-2.0,2.0,-1.0,1650847589146660.0,4
1803,-1.0,2.0,4.0,-2.0,-3.0,-2.0,-2.0,1.0,1650847589146660.0,4
1804,1.0,0.0,1.0,2.0,2.0,1.0,0.0,-2.0,1650847589153641.0,4
1805,-2.0,-4.0,2.0,2.0,3.0,0.0,0.0,-2.0,1650847589153641.0,4
1806,1.0,1.0,10.0,1.0,-4.0,-4.0,0.0,1.0,1650847589170689.0,4
1807,-3.0,-2.0,-4.0,-2.0,-1.0,2.0,-1.0,0.0,1650847589170689.0,4
1808,1.0,-2.0,6.0,2.0,2.0,1.0,0.0,-1.0,1650847589171593.0,4
1809,-1.0,-1.0,-1.0,-8.0,-6.0,-1.0,2.0,2.0,1650847589171593.0,4
1810,-1.0,-3.0,-10.0,5.0,1.0,2.0,-3.0,-1.0,1650847589192620.0,4
1811,0.0,-5.0,-3.0,-6.0,-2.0,-2.0,-1.0,-2.0,1650847589192620.0,4
1812,-2.0,-2.0,7.0,1.0,-2.0,-5.0,-2.0,0.0,1650847589194575.0,4
1813,-2.0,-3.0,-20.0,0.0,3.0,2.0,-1.0,1.0,1650847589194575.0,4
1814,1.0,3.0,13.0,0.0,-1.0,-2.0,1.0,-1.0,1650847589207514.0,4
1815,-1.0,-2.0,-1.0,-3.0,-2.0,-2.0,-1.0,-1.0,1650847589207514.0,4
1816,1.0,-1.0,-16.0,-6.0,1.0,2.0,2.0,1.0,1650847589213509.0,4
1817,-2.0,-3.0,18.0,6.0,-2.0,-1.0,0.0,-1.0,1650847589213509.0,4
1818,-3.0,-5.0,-6.0,-2.0,-1.0,1.0,-2.0,0.0,1650847589229863.0,4
1819,-1.0,3.0,-1.0,3.0,1.0,0.0,-1.0,-3.0,1650847589229863.0,4
1820,0.0,2.0,1.0,0.0,-2.0,-2.0,-1.0,0.0,1650847589231887.0,4
1821,2.0,4.0,4.0,1.0,-3.0,1.0,-2.0,1.0,1650847589231887.0,4
1822,-2.0,-6.0,-5.0,2.0,1.0,-1.0,-1.0,-3.0,1650847589252565.0,4
1823,0.0,0.0,-1.0,-1.0,0.0,1.0,0.0,0.0,1650847589252565.0,4
1824,0.0,-1.0,-5.0,-3.0,-2.0,-1.0,1.0,-1.0,1650847589254489.0,4
1825,1.0,-2.0,-7.0,-3.0,-1.0,-2.0,1.0,-1.0,1650847589254489.0,4
1826,0.0,2.0,-5.0,1.0,2.0,0.0,0.0,2.0,1650847589267587.0,4
1827,0.0,2.0,16.0,5.0,4.0,4.0,-1.0,0.0,1650847589267587.0,4
1828,-3.0,-6.0,-16.0,-8.0,-8.0,-6.0,-2.0,-1.0,1650847589273562.0,4
1829,0.0,-4.0,-13.0,-8.0,-2.0,-1.0,-2.0,-1.0,1650847589273562.0,4
1830,-2.0,1.0,13.0,3.0,0.0,0.0,-3.0,-1.0,1650847589289742.0,4
1831,1.0,1.0,7.0,-1.0,-3.0,-4.0,1.0,0.0,1650847589289742.0,4
1832,0.0,1.0,4.0,2.0,3.0,3.0,0.0,0.0,1650847589297650.0,4
1833,-3.0,-2.0,-5.0,0.0,2.0,0.0,0.0,-1.0,1650847589297650.0,4
1834,-1.0,1.0,-3.0,-4.0,-2.0,0.0,-1.0,1.0,1650847589313243.0,4
1835,-1.0,-1.0,-3.0,0.0,-2.0,-1.0,0.0,0.0,1650847589313243.0,4
1836,-1.0,-3.0,-8.0,-1.0,-1.0,-1.0,-2.0,-2.0,1650847589314243.0,4
1837,1.0,2.0,6.0,2.0,0.0,0.0,1.0,-1.0,1650847589314243.0,4
1838,0.0,1.0,-5.0,-5.0,0.0,2.0,0.0,-1.0,1650847589327274.0,4
1839,-1.0,0.0,-3.0,-1.0,0.0,-3.0,-2.0,-1.0,1650847589327274.0,4
1840,-1.0,-3.0,-2.0,-1.0,1.0,1.0,1.0,-1.0,1650847589334258.0,4
1841,-1.0,0.0,6.0,4.0,2.0,-1.0,-3.0,-2.0,1650847589334258.0,4
1842,0.0,1.0,-3.0,3.0,1.0,0.0,2.0,2.0,1650847589350215.0,4
1843,1.0,3.0,-2.0,-7.0,-4.0,-3.0,-3.0,0.0,1650847589350215.0,4
1844,-4.0,-11.0,-12.0,-3.0,-3.0,0.0,-1.0,-3.0,1650847589352169.0,4
1845,1.0,4.0,3.0,0.0,0.0,-4.0,-2.0,0.0,1650847589352169.0,4
1846,1.0,-2.0,2.0,0.0,1.0,-1.0,-1.0,-1.0,1650847589373224.0,4
1847,-1.0,0.0,0.0,5.0,3.0,0.0,1.0,-3.0,1650847589373224.0,4
1848,1.0,0.0,-4.0,-8.0,0.0,0.0,-2.0,1.0,1650847589374208.0,4
1849,-3.0,-7.0,-10.0,-9.0,-8.0,-1.0,0.0,0.0,1650847589374208.0,4
1850,0.0,2.0,2.0,-2.0,-2.0,-1.0,0.0,-2.0,1650847589387522.0,4
1851,1.0,-2.0,-3.0,1.0,0.0,0.0,-1.0,0.0,1650847589387522.0,4
1852,-2.0,4.0,10.0,9.0,4.0,2.0,-1.0,0.0,1650847589393517.0,4
1853,-1.0,1.0,0.0,2.0,0.0,2.0,0.0,-2.0,1650847589393517.0,4
1854,-2.0,-6.0,-4.0,-3.0,-3.0,-4.0,-2.0,0.0,1650847589410370.0,4
1855,0.0,-2.0,-5.0,-3.0,-3.0,-3.0,-1.0,-1.0,1650847589410370.0,4
1856,0.0,1.0,-3.0,-1.0,3.0,3.0,0.0,-1.0,1650847589411300.0,4
1857,-1.0,1.0,3.0,4.0,1.0,-1.0,-1.0,0.0,1650847589411300.0,4
1858,0.0,2.0,-8.0,-6.0,-3.0,2.0,1.0,1.0,1650847589432885.0,4
1859,-1.0,-2.0,16.0,10.0,2.0,0.0,0.0,-1.0,1650847589432885.0,4
1860,1.0,7.0,17.0,1.0,-2.0,-2.0,-1.0,1.0,1650847589433816.0,4
1861,0.0,-5.0,-17.0,-5.0,-4.0,-1.0,-3.0,2.0,1650847589433816.0,4
1862,-2.0,-8.0,-12.0,-1.0,0.0,1.0,-1.0,-4.0,1650847589454815.0,4
1863,2.0,12.0,23.0,11.0,4.0,2.0,-2.0,-1.0,1650847589454815.0,4
1864,-3.0,-10.0,-18.0,-10.0,-8.0,-8.0,-2.0,-1.0,1650847589456809.0,4
1865,-3.0,-8.0,-7.0,-9.0,-1.0,0.0,-3.0,-2.0,1650847589456809.0,4
1866,2.0,5.0,12.0,4.0,0.0,0.0,1.0,1.0,1650847589469873.0,4
1867,-1.0,-2.0,-17.0,-3.0,0.0,-1.0,1.0,1.0,1650847589469873.0,4
1868,4.0,2.0,5.0,9.0,3.0,10.0,6.0,-2.0,1650847589471867.0,4
1869,2.0,1.0,1.0,0.0,0.0,-3.0,-1.0,0.0,1650847589471867.0,4
1870,0.0,2.0,-1.0,-5.0,-1.0,-1.0,-1.0,-1.0,1650847589492780.0,4
1871,-2.0,-7.0,-7.0,-5.0,-1.0,-2.0,-2.0,0.0,1650847589492780.0,4
1872,2.0,4.0,3.0,1.0,-2.0,-3.0,-2.0,3.0,1650847589493778.0,4
1873,-1.0,-3.0,0.0,1.0,2.0,3.0,3.0,0.0,1650847589493778.0,4
1874,1.0,4.0,9.0,2.0,0.0,0.0,0.0,-2.0,1650847589506814.0,4
1875,0.0,-3.0,-5.0,-1.0,-1.0,2.0,2.0,0.0,1650847589506814.0,4
1876,-1.0,-3.0,-6.0,0.0,-1.0,-2.0,-3.0,0.0,1650847589515771.0,4
1877,2.0,5.0,13.0,4.0,0.0,-1.0,1.0,-3.0,1650847589515771.0,4
1878,-2.0,-3.0,-9.0,2.0,0.0,0.0,1.0,1.0,1650847589529798.0,4
1879,-3.0,-9.0,-9.0,0.0,2.0,1.0,-1.0,0.0,1650847589529798.0,4
1880,-2.0,-3.0,-10.0,-5.0,-4.0,-4.0,-4.0,-6.0,1650847589531743.0,4
1881,4.0,-2.0,22.0,3.0,-1.0,2.0,2.0,2.0,1650847589531743.0,4
1882,-6.0,0.0,-8.0,0.0,0.0,-6.0,-5.0,-3.0,1650847589552738.0,4
1883,0.0,-2.0,-1.0,-4.0,-2.0,2.0,3.0,0.0,1650847589552738.0,4
1884,0.0,3.0,9.0,7.0,3.0,-1.0,0.0,0.0,1650847589554666.0,4
1885,0.0,3.0,5.0,4.0,2.0,0.0,-1.0,0.0,1650847589554666.0,4
1886,-1.0,-4.0,-4.0,-3.0,-2.0,-1.0,-1.0,1.0,1650847589566697.0,4
1887,-1.0,0.0,-4.0,-6.0,-4.0,-4.0,-2.0,-3.0,1650847589566697.0,4
1888,-1.0,1.0,-6.0,0.0,1.0,0.0,-1.0,1.0,1650847589575610.0,4
1889,-1.0,-2.0,-4.0,-2.0,-3.0,-2.0,-1.0,1.0,1650847589575610.0,4
1890,0.0,-3.0,8.0,6.0,5.0,7.0,-1.0,-2.0,1650847589589824.0,4
1891,-1.0,-2.0,-12.0,-8.0,-5.0,-7.0,-1.0,0.0,1650847589589824.0,4
1892,0.0,0.0,-1.0,-4.0,-1.0,3.0,1.0,-1.0,1650847589591822.0,4
1893,-2.0,-4.0,-1.0,2.0,1.0,2.0,0.0,-1.0,1650847589591822.0,4
1894,1.0,2.0,4.0,-2.0,-3.0,0.0,-1.0,-1.0,1650847589613150.0,4
1895,0.0,-3.0,8.0,2.0,-2.0,1.0,0.0,-2.0,1650847589613150.0,4
1896,1.0,0.0,-4.0,1.0,0.0,-1.0,0.0,-1.0,1650847589614825.0,4
1897,-1.0,5.0,-2.0,-5.0,-2.0,-1.0,-2.0,-1.0,1650847589614825.0,4
1898,-1.0,-10.0,-18.0,-9.0,-3.0,-5.0,-1.0,0.0,1650847589626817.0,4
1899,-2.0,0.0,3.0,-1.0,1.0,0.0,1.0,0.0,1650847589626817.0,4
1900,2.0,5.0,14.0,-5.0,0.0,-2.0,2.0,1.0,1650847589635761.0,4
1901,2.0,3.0,-10.0,3.0,2.0,0.0,-1.0,0.0,1650847589635761.0,4
1902,-1.0,-10.0,-26.0,-4.0,-1.0,1.0,2.0,-2.0,1650847589649863.0,4
1903,-2.0,-6.0,-4.0,-3.0,-5.0,-2.0,-1.0,-2.0,1650847589649863.0,4
1904,0.0,1.0,9.0,3.0,-1.0,2.0,-1.0,0.0,1650847589651802.0,4
1905,-1.0,1.0,-10.0,-8.0,-2.0,-2.0,-1.0,-2.0,1650847589651802.0,4
1906,4.0,10.0,11.0,1.0,0.0,1.0,0.0,3.0,1650847589672845.0,4
1907,-1.0,-1.0,-1.0,-1.0,-1.0,0.0,0.0,2.0,1650847589672845.0,4
1908,-1.0,2.0,1.0,3.0,-2.0,0.0,-1.0,-1.0,1650847589673865.0,4
1909,-3.0,-7.0,-1.0,-1.0,0.0,0.0,1.0,-3.0,1650847589673865.0,4
1910,0.0,-2.0,0.0,-1.0,-2.0,-2.0,0.0,-1.0,1650847589686830.0,4
1911,0.0,3.0,4.0,1.0,1.0,0.0,-2.0,0.0,1650847589686830.0,4
1912,0.0,1.0,-3.0,-1.0,0.0,-3.0,-1.0,1.0,1650847589695779.0,4
1913,0.0,-6.0,-2.0,1.0,-1.0,0.0,-2.0,0.0,1650847589695779.0,4
1914,1.0,14.0,12.0,4.0,2.0,2.0,1.0,-2.0,1650847589709867.0,4
1915,-1.0,-4.0,-7.0,-1.0,-1.0,-1.0,0.0,-3.0,1650847589709867.0,4
1916,-1.0,-3.0,-3.0,-1.0,-2.0,-2.0,1.0,-1.0,1650847589711869.0,4
1917,-2.0,-4.0,2.0,2.0,2.0,-2.0,1.0,0.0,1650847589711869.0,4
1918,2.0,5.0,6.0,0.0,0.0,1.0,1.0,0.0,1650847589733134.0,4
1919,-3.0,-7.0,-7.0,-5.0,-1.0,-2.0,-2.0,0.0,1650847589733134.0,4
