,EMG_s0,EMG_s1,EMG_s2,EMG_s3,EMG_s4,EMG_s5,EMG_s6,EMG_s7,timestamp,signal
0,-1.0,0.0,-1.0,0.0,-1.0,-2.0,-1.0,-1.0,1651071087915372.0,0
1,1.0,0.0,-2.0,-3.0,-3.0,-3.0,-2.0,-1.0,1651071087915372.0,0
2,-1.0,0.0,-1.0,-1.0,-10.0,-9.0,0.0,-1.0,1651071087930332.0,0
3,0.0,-1.0,0.0,0.0,1.0,3.0,0.0,1.0,1651071087930332.0,0
4,-1.0,-1.0,-1.0,-2.0,-7.0,1.0,1.0,1.0,1651071087936318.0,0
5,0.0,-1.0,1.0,-1.0,5.0,0.0,-1.0,1.0,1651071087936318.0,0
6,-1.0,0.0,-2.0,0.0,-5.0,4.0,-3.0,-3.0,1651071087953191.0,0
7,-1.0,1.0,-1.0,2.0,-2.0,-8.0,-2.0,-1.0,1651071087953191.0,0
8,1.0,0.0,-1.0,-1.0,0.0,2.0,-2.0,-1.0,1651071087960259.0,0
9,-1.0,0.0,-3.0,-1.0,0.0,-1.0,1.0,-1.0,1651071087960259.0,0
10,0.0,-2.0,1.0,1.0,2.0,1.0,1.0,1.0,1651071087974745.0,0
11,-1.0,-1.0,0.0,-2.0,0.0,0.0,-2.0,2.0,1651071087974745.0,0
12,-1.0,1.0,1.0,1.0,7.0,3.0,2.0,0.0,1651071087975716.0,0
13,-1.0,-1.0,-3.0,-2.0,-7.0,-7.0,-2.0,0.0,1651071087975716.0,0
14,-1.0,0.0,0.0,-2.0,3.0,0.0,-2.0,-1.0,1651071087988794.0,0
15,1.0,-1.0,0.0,-1.0,-8.0,4.0,1.0,-1.0,1651071087988794.0,0
16,0.0,0.0,1.0,2.0,5.0,0.0,0.0,2.0,1651071087996844.0,0
17,0.0,-1.0,1.0,1.0,2.0,8.0,2.0,0.0,1651071087996844.0,0
18,-1.0,-1.0,-2.0,0.0,-3.0,-6.0,-3.0,0.0,1651071088012726.0,0
19,-1.0,-2.0,-1.0,-1.0,-2.0,-7.0,-4.0,-1.0,1651071088012726.0,0
20,-2.0,-2.0,-2.0,-2.0,-2.0,-1.0,-2.0,-2.0,1651071088012726.0,0
21,0.0,0.0,-2.0,0.0,-5.0,-3.0,-2.0,-2.0,1651071088012726.0,0
22,-1.0,0.0,1.0,-2.0,2.0,3.0,0.0,-1.0,1651071088034778.0,0
23,0.0,-1.0,-1.0,0.0,-4.0,-11.0,-1.0,-1.0,1651071088034778.0,0
24,0.0,0.0,-2.0,1.0,7.0,9.0,3.0,0.0,1651071088035781.0,0
25,0.0,-1.0,1.0,1.0,3.0,2.0,-1.0,1.0,1651071088035781.0,0
26,-2.0,-2.0,-2.0,-3.0,-3.0,-2.0,1.0,-1.0,1651071088049465.0,0
27,0.0,0.0,-1.0,1.0,-1.0,-2.0,-1.0,1.0,1651071088049465.0,0
28,2.0,-1.0,2.0,-2.0,-2.0,-1.0,-1.0,0.0,1651071088056518.0,0
29,0.0,0.0,0.0,1.0,0.0,-2.0,1.0,0.0,1651071088056518.0,0
30,-2.0,-1.0,-2.0,-2.0,1.0,4.0,-1.0,-1.0,1651071088072560.0,0
31,-1.0,-2.0,-1.0,0.0,0.0,-2.0,0.0,0.0,1651071088072560.0,0
32,1.0,-1.0,-1.0,0.0,-4.0,-5.0,-1.0,-2.0,1651071088073485.0,0
33,-1.0,-1.0,1.0,-1.0,3.0,2.0,1.0,-1.0,1651071088073485.0,0
34,0.0,0.0,0.0,0.0,-3.0,-6.0,-2.0,-2.0,1651071088094515.0,0
35,0.0,-1.0,1.0,1.0,0.0,1.0,0.0,-2.0,1651071088094515.0,0
36,-1.0,-2.0,0.0,0.0,3.0,3.0,1.0,0.0,1651071088095513.0,0
37,-1.0,1.0,-1.0,0.0,0.0,2.0,0.0,-1.0,1651071088095513.0,0
38,-1.0,1.0,-1.0,-2.0,0.0,0.0,-1.0,0.0,1651071088109475.0,0
39,-1.0,0.0,-3.0,-5.0,-4.0,-3.0,-2.0,-1.0,1651071088109475.0,0
40,-1.0,-1.0,-1.0,-1.0,-5.0,-8.0,-5.0,-3.0,1651071088116524.0,0
41,0.0,-1.0,1.0,1.0,1.0,1.0,2.0,1.0,1651071088116524.0,0
42,1.0,1.0,0.0,0.0,1.0,15.0,3.0,-1.0,1651071088132481.0,0
43,1.0,-1.0,-2.0,-2.0,2.0,0.0,1.0,-2.0,1651071088132481.0,0
44,-2.0,0.0,-2.0,0.0,4.0,2.0,1.0,0.0,1651071088133412.0,0
45,-3.0,-3.0,-1.0,-2.0,-8.0,-10.0,-1.0,0.0,1651071088133412.0,0
46,-1.0,0.0,-2.0,0.0,4.0,-1.0,-1.0,0.0,1651071088154475.0,0
47,-2.0,0.0,2.0,-1.0,-4.0,-1.0,-2.0,0.0,1651071088154475.0,0
48,0.0,0.0,0.0,1.0,-1.0,-3.0,-3.0,0.0,1651071088155418.0,0
49,-2.0,-1.0,-1.0,2.0,3.0,4.0,-2.0,-1.0,1651071088155418.0,0
50,0.0,-1.0,0.0,0.0,-4.0,0.0,-1.0,3.0,1651071088169479.0,0
51,-1.0,0.0,0.0,-2.0,0.0,0.0,0.0,0.0,1651071088169479.0,0
52,-2.0,-2.0,-1.0,-3.0,-5.0,-5.0,0.0,-1.0,1651071088176367.0,0
53,0.0,1.0,-2.0,-1.0,-6.0,2.0,-1.0,0.0,1651071088176367.0,0
54,0.0,0.0,-2.0,-2.0,1.0,-1.0,0.0,-3.0,1651071088192720.0,0
55,-2.0,0.0,-2.0,-1.0,0.0,-3.0,0.0,-1.0,1651071088192720.0,0
56,-1.0,0.0,-1.0,1.0,-2.0,1.0,2.0,1.0,1651071088192720.0,0
57,-1.0,-2.0,-1.0,-1.0,6.0,5.0,1.0,-1.0,1651071088192720.0,0
58,-1.0,-1.0,1.0,-1.0,-3.0,-5.0,-2.0,-1.0,1651071088215341.0,0
59,0.0,1.0,0.0,-3.0,-5.0,1.0,-1.0,-1.0,1651071088215341.0,0
60,0.0,0.0,-2.0,-2.0,-5.0,1.0,1.0,-1.0,1651071088215341.0,0
61,-1.0,-1.0,0.0,-1.0,-3.0,-3.0,-3.0,-1.0,1651071088215341.0,0
62,0.0,-1.0,0.0,1.0,3.0,-1.0,-2.0,1.0,1651071088229419.0,0
63,-2.0,-2.0,1.0,1.0,2.0,1.0,0.0,-1.0,1651071088229419.0,0
64,-1.0,-3.0,0.0,-1.0,1.0,2.0,-1.0,0.0,1651071088236459.0,0
65,1.0,1.0,-3.0,-2.0,-5.0,-14.0,0.0,-1.0,1651071088236459.0,0
66,2.0,-1.0,-1.0,0.0,2.0,7.0,0.0,0.0,1651071088252456.0,0
67,0.0,0.0,0.0,1.0,7.0,12.0,1.0,1.0,1651071088252456.0,0
68,0.0,-1.0,-1.0,-3.0,-2.0,-5.0,-3.0,-3.0,1651071088253453.0,0
69,-1.0,-1.0,-1.0,-1.0,0.0,1.0,-2.0,0.0,1651071088253453.0,0
70,-1.0,-1.0,-1.0,-2.0,-8.0,-12.0,-3.0,-2.0,1651071088283556.0,0
71,-1.0,-2.0,-1.0,-1.0,0.0,-1.0,0.0,-2.0,1651071088283556.0,0
72,0.0,0.0,-1.0,1.0,4.0,6.0,3.0,0.0,1651071088284487.0,0
73,0.0,-1.0,0.0,-1.0,3.0,3.0,0.0,-1.0,1651071088284487.0,0
74,0.0,1.0,-2.0,-1.0,-1.0,-2.0,0.0,-1.0,1651071088297427.0,0
75,-1.0,-1.0,0.0,-1.0,-1.0,-3.0,-2.0,1.0,1651071088297427.0,0
76,0.0,0.0,-1.0,-4.0,-11.0,-5.0,-2.0,-2.0,1651071088298358.0,0
77,-2.0,-2.0,-1.0,0.0,11.0,6.0,0.0,0.0,1651071088298358.0,0
78,0.0,0.0,1.0,1.0,-3.0,-2.0,0.0,0.0,1651071088320491.0,0
79,1.0,-1.0,1.0,2.0,0.0,1.0,1.0,1.0,1651071088320491.0,0
80,-1.0,0.0,1.0,1.0,2.0,-5.0,-1.0,0.0,1651071088321421.0,0
81,-1.0,0.0,0.0,-4.0,-6.0,-1.0,-1.0,0.0,1651071088321421.0,0
82,-1.0,-2.0,0.0,-1.0,-1.0,2.0,1.0,0.0,1651071088335021.0,0
83,0.0,1.0,-1.0,-3.0,-1.0,-4.0,-1.0,0.0,1651071088335021.0,0
84,0.0,0.0,-1.0,0.0,-6.0,-1.0,-1.0,0.0,1651071088335294.0,0
85,2.0,1.0,-1.0,0.0,2.0,6.0,-1.0,-2.0,1651071088335294.0,0
86,0.0,0.0,-1.0,0.0,-3.0,-1.0,-1.0,0.0,1651071088357394.0,0
87,1.0,-1.0,1.0,1.0,-2.0,-3.0,-2.0,-3.0,1651071088357394.0,0
88,0.0,0.0,0.0,1.0,3.0,-1.0,-1.0,-1.0,1651071088358417.0,0
89,0.0,-1.0,0.0,-1.0,2.0,3.0,0.0,-1.0,1651071088358417.0,0
90,-2.0,-1.0,-2.0,0.0,-4.0,-1.0,0.0,1.0,1651071088380511.0,0
91,0.0,-2.0,-1.0,-2.0,-5.0,-5.0,-2.0,-2.0,1651071088380511.0,0
92,-2.0,0.0,0.0,0.0,3.0,3.0,0.0,0.0,1651071088381509.0,0
93,0.0,-1.0,-1.0,-1.0,1.0,-2.0,-1.0,-1.0,1651071088381509.0,0
94,-2.0,-1.0,2.0,-3.0,-2.0,-1.0,-1.0,-1.0,1651071088394598.0,0
95,-2.0,0.0,-2.0,-1.0,-2.0,-2.0,0.0,0.0,1651071088394598.0,0
96,0.0,0.0,-1.0,-1.0,-5.0,-4.0,-2.0,0.0,1651071088395609.0,0
97,0.0,-1.0,-1.0,-1.0,6.0,-1.0,0.0,2.0,1651071088395609.0,0
98,1.0,0.0,0.0,0.0,-2.0,1.0,-1.0,0.0,1651071088417711.0,0
99,-1.0,-1.0,-1.0,-2.0,2.0,0.0,0.0,1.0,1651071088417711.0,0
100,0.0,-2.0,0.0,-1.0,-4.0,-2.0,1.0,-1.0,1651071088417711.0,0
101,0.0,0.0,1.0,-1.0,-5.0,-5.0,0.0,1.0,1651071088417711.0,0
102,-1.0,-1.0,0.0,-1.0,4.0,3.0,-1.0,-1.0,1651071088447712.0,0
103,0.0,1.0,-1.0,-1.0,-1.0,1.0,-1.0,0.0,1651071088447712.0,0
104,0.0,-1.0,-2.0,-2.0,0.0,0.0,-3.0,-2.0,1651071088448644.0,0
105,-1.0,-2.0,-2.0,0.0,-5.0,-6.0,-2.0,-1.0,1651071088448644.0,0
106,0.0,-1.0,-1.0,0.0,-1.0,-3.0,-1.0,1.0,1651071088453656.0,0
107,-1.0,0.0,-1.0,-1.0,3.0,6.0,1.0,1.0,1651071088453656.0,0
108,-2.0,-1.0,-1.0,1.0,0.0,-1.0,1.0,0.0,1651071088462704.0,0
109,0.0,0.0,0.0,0.0,0.0,1.0,-1.0,-2.0,1651071088462704.0,0
110,-1.0,0.0,-2.0,0.0,-3.0,-2.0,-1.0,-3.0,1651071088477437.0,0
111,-1.0,-1.0,2.0,1.0,-1.0,-1.0,2.0,-2.0,1651071088477437.0,0
112,0.0,-2.0,-1.0,-3.0,-2.0,1.0,-1.0,1.0,1651071088478458.0,0
113,-1.0,-1.0,1.0,0.0,-6.0,1.0,-1.0,1.0,1651071088478458.0,0
114,0.0,2.0,-1.0,0.0,7.0,0.0,0.0,0.0,1651071088500707.0,0
115,-1.0,1.0,-1.0,1.0,6.0,3.0,-1.0,-1.0,1651071088500707.0,0
116,-1.0,-1.0,0.0,-2.0,-4.0,-5.0,-2.0,0.0,1651071088501693.0,0
117,-1.0,-2.0,-1.0,1.0,-8.0,-3.0,0.0,-1.0,1651071088501693.0,0
118,0.0,0.0,0.0,-1.0,4.0,-9.0,0.0,-1.0,1651071088513732.0,0
119,1.0,-1.0,-1.0,-1.0,-3.0,9.0,2.0,0.0,1651071088513732.0,0
120,-1.0,-1.0,-1.0,-1.0,1.0,-1.0,0.0,-2.0,1651071088522716.0,0
121,0.0,0.0,0.0,-1.0,-4.0,2.0,0.0,-2.0,1651071088522716.0,0
122,0.0,0.0,-2.0,-2.0,-6.0,-6.0,-2.0,-1.0,1651071088537738.0,0
123,1.0,-2.0,0.0,1.0,1.0,-8.0,0.0,1.0,1651071088537738.0,0
124,0.0,-1.0,1.0,0.0,7.0,9.0,2.0,2.0,1651071088537738.0,0
125,-2.0,-3.0,-1.0,-1.0,0.0,-1.0,-1.0,0.0,1651071088537738.0,0
126,0.0,-1.0,-1.0,-1.0,-2.0,2.0,0.0,-2.0,1651071088560879.0,0
127,-1.0,-1.0,-2.0,0.0,-6.0,-5.0,-1.0,-2.0,1651071088560879.0,0
128,-1.0,0.0,-2.0,2.0,-4.0,-1.0,-2.0,-1.0,1651071088561614.0,0
129,0.0,0.0,0.0,1.0,1.0,-2.0,-2.0,-1.0,1651071088561614.0,0
130,0.0,-1.0,0.0,1.0,-1.0,3.0,0.0,0.0,1651071088574581.0,0
131,0.0,0.0,-2.0,0.0,-3.0,-3.0,-2.0,-1.0,1651071088574581.0,0
132,1.0,0.0,1.0,-1.0,4.0,1.0,-1.0,-1.0,1651071088582627.0,0
133,0.0,0.0,-2.0,0.0,1.0,-1.0,0.0,1.0,1651071088582627.0,0
134,0.0,-1.0,1.0,-1.0,0.0,-1.0,0.0,-2.0,1651071088597425.0,0
135,2.0,-1.0,-1.0,-2.0,1.0,1.0,0.0,0.0,1651071088597425.0,0
136,-1.0,1.0,0.0,-2.0,-4.0,-3.0,-1.0,0.0,1651071088598386.0,0
137,-1.0,0.0,-2.0,-1.0,4.0,1.0,-1.0,0.0,1651071088598386.0,0
138,0.0,1.0,0.0,1.0,3.0,2.0,1.0,1.0,1651071088620505.0,0
139,-1.0,-2.0,1.0,-1.0,-6.0,-2.0,-1.0,0.0,1651071088620505.0,0
140,0.0,-2.0,-1.0,0.0,3.0,0.0,0.0,-1.0,1651071088621436.0,0
141,0.0,0.0,1.0,-1.0,-4.0,-2.0,0.0,-1.0,1651071088621436.0,0
142,-1.0,-1.0,-1.0,-3.0,-3.0,-1.0,-1.0,1.0,1651071088634529.0,0
143,-1.0,-1.0,-1.0,-1.0,-4.0,-1.0,0.0,-1.0,1651071088634529.0,0
144,1.0,-2.0,-1.0,2.0,3.0,-3.0,-2.0,1.0,1651071088642227.0,0
145,1.0,-1.0,1.0,1.0,3.0,1.0,-1.0,-1.0,1651071088642227.0,0
146,-1.0,-3.0,0.0,2.0,-1.0,0.0,-1.0,-2.0,1651071088657355.0,0
147,-1.0,0.0,-1.0,-2.0,-2.0,-1.0,-1.0,-2.0,1651071088657355.0,0
148,-1.0,-1.0,-2.0,-2.0,-6.0,-2.0,0.0,0.0,1651071088658285.0,0
149,1.0,1.0,-1.0,-2.0,0.0,-2.0,-2.0,1.0,1651071088658285.0,0
150,1.0,0.0,-1.0,-1.0,2.0,3.0,0.0,-1.0,1651071088680287.0,0
151,-1.0,-3.0,0.0,1.0,2.0,0.0,-1.0,-1.0,1651071088680287.0,0
152,-1.0,0.0,0.0,0.0,-1.0,1.0,1.0,-2.0,1651071088681223.0,0
153,-2.0,-3.0,0.0,-3.0,-4.0,-4.0,0.0,-2.0,1651071088681223.0,0
154,-1.0,-2.0,-2.0,-1.0,4.0,2.0,-1.0,0.0,1651071088694548.0,0
155,-1.0,1.0,-2.0,0.0,-1.0,-1.0,-2.0,0.0,1651071088694548.0,0
156,1.0,-2.0,0.0,-3.0,-1.0,0.0,-3.0,-1.0,1651071088702344.0,0
157,-1.0,1.0,0.0,0.0,-2.0,-5.0,-3.0,-2.0,1651071088702344.0,0
158,0.0,0.0,-2.0,-2.0,-1.0,1.0,0.0,2.0,1651071088717304.0,0
159,0.0,1.0,1.0,2.0,10.0,5.0,1.0,-1.0,1651071088717304.0,0
160,-3.0,-2.0,-1.0,1.0,0.0,-1.0,1.0,-2.0,1651071088724300.0,0
161,-1.0,-1.0,-2.0,0.0,-3.0,0.0,0.0,-2.0,1651071088724300.0,0
162,-1.0,-1.0,0.0,-4.0,-8.0,-5.0,0.0,-1.0,1651071088740267.0,0
163,0.0,0.0,-2.0,-2.0,-7.0,-3.0,0.0,0.0,1651071088740267.0,0
164,-1.0,0.0,-1.0,1.0,-3.0,-2.0,-1.0,-1.0,1651071088741258.0,0
165,-3.0,-4.0,-1.0,-2.0,5.0,-1.0,0.0,-14.0,1651071088741258.0,0
166,-3.0,0.0,-4.0,3.0,15.0,5.0,1.0,0.0,1651071088754528.0,0
167,0.0,1.0,2.0,1.0,-9.0,-4.0,-4.0,15.0,1651071088754528.0,0
168,1.0,4.0,6.0,2.0,14.0,4.0,2.0,-1.0,1651071088762345.0,0
169,-4.0,-3.0,-5.0,-2.0,-6.0,-5.0,-4.0,-23.0,1651071088762345.0,0
170,-4.0,2.0,-5.0,-7.0,-10.0,0.0,-3.0,-5.0,1651071088777396.0,0
171,-3.0,1.0,11.0,-12.0,-17.0,-4.0,9.0,4.0,1651071088777396.0,0
172,-16.0,-4.0,8.0,13.0,6.0,1.0,-22.0,-18.0,1651071088778325.0,0
173,-4.0,8.0,-14.0,1.0,38.0,18.0,3.0,10.0,1651071088778325.0,0
174,29.0,-15.0,-8.0,-5.0,-7.0,6.0,27.0,16.0,1651071088800878.0,1
175,19.0,9.0,-5.0,0.0,-7.0,-17.0,-20.0,33.0,1651071088800878.0,1
176,11.0,-2.0,8.0,-4.0,-12.0,7.0,31.0,38.0,1651071088801667.0,1
177,-33.0,8.0,-1.0,-5.0,-12.0,-13.0,-23.0,-84.0,1651071088801667.0,1
178,-18.0,-32.0,15.0,6.0,2.0,-6.0,-25.0,8.0,1651071088823407.0,1
179,8.0,9.0,0.0,10.0,18.0,22.0,41.0,53.0,1651071088823407.0,1
180,10.0,29.0,11.0,-7.0,-5.0,-17.0,-51.0,-51.0,1651071088823407.0,1
181,5.0,-3.0,-14.0,3.0,3.0,9.0,5.0,-39.0,1651071088823407.0,1
182,-5.0,-21.0,-10.0,0.0,-4.0,-6.0,-6.0,43.0,1651071088837522.0,1
183,9.0,-19.0,17.0,10.0,-2.0,-3.0,4.0,-8.0,1651071088837522.0,1
184,33.0,16.0,-19.0,-5.0,0.0,2.0,18.0,16.0,1651071088838466.0,1
185,-57.0,-38.0,4.0,-5.0,-6.0,4.0,-1.0,-46.0,1651071088838466.0,1
186,34.0,44.0,0.0,3.0,-3.0,-5.0,-12.0,-30.0,1651071088860735.0,1
187,-58.0,-17.0,-10.0,-5.0,5.0,0.0,-9.0,-9.0,1651071088860735.0,1
188,-31.0,20.0,6.0,-2.0,-3.0,2.0,16.0,17.0,1651071088861664.0,1
189,4.0,14.0,9.0,-1.0,-7.0,-2.0,-2.0,17.0,1651071088861664.0,1
190,-36.0,-22.0,8.0,4.0,3.0,2.0,-1.0,-28.0,1651071088883377.0,1
191,17.0,5.0,-11.0,-4.0,-1.0,-9.0,-13.0,-14.0,1651071088883377.0,1
192,5.0,-1.0,1.0,7.0,4.0,4.0,2.0,-1.0,1651071088883733.0,1
193,23.0,-33.0,2.0,-14.0,-14.0,-5.0,15.0,82.0,1651071088883733.0,1
194,-35.0,46.0,0.0,7.0,3.0,-1.0,0.0,-22.0,1651071088897744.0,1
195,24.0,-17.0,-13.0,-8.0,2.0,3.0,-1.0,-24.0,1651071088897744.0,1
196,-31.0,-1.0,-4.0,2.0,-4.0,-5.0,1.0,10.0,1651071088897744.0,1
197,29.0,29.0,18.0,19.0,3.0,-1.0,-4.0,19.0,1651071088897744.0,1
198,9.0,-44.0,-14.0,-20.0,-1.0,-2.0,-2.0,-4.0,1651071088920853.0,1
199,-19.0,14.0,9.0,12.0,1.0,1.0,-8.0,-20.0,1651071088920853.0,1
200,19.0,5.0,-30.0,-42.0,-13.0,-3.0,5.0,6.0,1651071088921662.0,1
201,1.0,-9.0,-1.0,10.0,4.0,-3.0,-2.0,28.0,1651071088921662.0,1
202,-1.0,14.0,15.0,12.0,2.0,2.0,5.0,6.0,1651071088942886.0,1
203,-6.0,-2.0,-4.0,4.0,2.0,0.0,0.0,-13.0,1651071088942886.0,1
204,-2.0,-14.0,5.0,10.0,4.0,-2.0,-4.0,-8.0,1651071088943823.0,1
205,19.0,10.0,1.0,4.0,1.0,2.0,3.0,8.0,1651071088943823.0,1
206,-9.0,-1.0,-8.0,-6.0,-4.0,-4.0,-1.0,-10.0,1651071088956916.0,1
207,17.0,4.0,3.0,-5.0,0.0,1.0,-1.0,14.0,1651071088956916.0,1
208,-10.0,-25.0,-5.0,4.0,-1.0,0.0,-2.0,1.0,1651071088957846.0,1
209,-46.0,-4.0,2.0,-9.0,-7.0,-1.0,-2.0,-10.0,1651071088957846.0,1
210,10.0,-2.0,-5.0,3.0,-1.0,-3.0,3.0,1.0,1651071088980959.0,1
211,-9.0,-6.0,-9.0,-4.0,1.0,-12.0,-5.0,-7.0,1651071088980959.0,1
212,8.0,-9.0,-1.0,-4.0,0.0,13.0,6.0,9.0,1651071088980959.0,1
213,10.0,5.0,-4.0,5.0,4.0,2.0,2.0,8.0,1651071088980959.0,1
214,5.0,2.0,8.0,-3.0,-4.0,2.0,4.0,-9.0,1651071089002860.0,1
215,-12.0,-5.0,-2.0,-3.0,-5.0,-5.0,-7.0,-8.0,1651071089002860.0,1
216,-13.0,-4.0,5.0,2.0,-3.0,-6.0,-4.0,-14.0,1651071089003861.0,1
217,30.0,2.0,-4.0,-3.0,-5.0,0.0,5.0,20.0,1651071089003861.0,1
218,17.0,10.0,-1.0,-2.0,1.0,2.0,2.0,9.0,1651071089017431.0,1
219,2.0,0.0,-1.0,-4.0,-2.0,-2.0,-1.0,3.0,1651071089017431.0,1
220,-1.0,-8.0,3.0,6.0,-8.0,-5.0,-3.0,-2.0,1651071089017935.0,1
221,-4.0,-1.0,-10.0,-1.0,2.0,0.0,-2.0,-5.0,1651071089017935.0,1
222,-7.0,0.0,4.0,9.0,7.0,1.0,-2.0,-11.0,1651071089040292.0,1
223,4.0,3.0,-4.0,-11.0,-4.0,1.0,0.0,-10.0,1651071089040292.0,1
224,-22.0,-8.0,-1.0,-3.0,2.0,-1.0,1.0,-1.0,1651071089041287.0,1
225,6.0,2.0,0.0,-5.0,-8.0,-6.0,-11.0,-33.0,1651071089041287.0,1
226,31.0,-2.0,-2.0,-3.0,-6.0,0.0,2.0,32.0,1651071089062751.0,1
227,-28.0,-2.0,2.0,6.0,6.0,4.0,2.0,-8.0,1651071089062751.0,1
228,15.0,9.0,5.0,2.0,-8.0,0.0,4.0,13.0,1651071089063681.0,1
229,2.0,-15.0,-4.0,-1.0,6.0,-1.0,1.0,12.0,1651071089063681.0,1
230,-8.0,6.0,-5.0,-4.0,2.0,0.0,-4.0,-8.0,1651071089077780.0,1
231,-1.0,-6.0,2.0,-1.0,-4.0,-2.0,-1.0,-8.0,1651071089077780.0,1
232,8.0,-4.0,-6.0,-3.0,-2.0,-2.0,0.0,-1.0,1651071089077780.0,1
233,-7.0,-2.0,0.0,-1.0,-4.0,-2.0,1.0,8.0,1651071089077780.0,1
234,-41.0,-8.0,0.0,-1.0,-2.0,0.0,0.0,-1.0,1651071089100932.0,1
235,7.0,4.0,-2.0,1.0,3.0,-2.0,-2.0,-8.0,1651071089100932.0,1
236,-6.0,9.0,0.0,5.0,7.0,4.0,-4.0,-5.0,1651071089100932.0,1
237,15.0,2.0,4.0,-5.0,-1.0,-2.0,7.0,14.0,1651071089100932.0,1
238,15.0,-3.0,1.0,-3.0,-7.0,1.0,8.0,30.0,1651071089123155.0,1
239,6.0,-2.0,-3.0,2.0,9.0,5.0,-1.0,-5.0,1651071089123155.0,1
240,2.0,-3.0,-2.0,0.0,1.0,-6.0,-4.0,-7.0,1651071089124167.0,1
241,-5.0,3.0,3.0,1.0,-10.0,-7.0,-5.0,-8.0,1651071089124167.0,1
242,-6.0,0.0,-3.0,-5.0,10.0,4.0,-1.0,-8.0,1651071089137233.0,1
243,3.0,5.0,-2.0,0.0,-2.0,0.0,1.0,-9.0,1651071089137233.0,1
244,6.0,-4.0,0.0,-2.0,1.0,-9.0,0.0,7.0,1651071089138232.0,1
245,-1.0,2.0,0.0,6.0,0.0,5.0,0.0,5.0,1651071089138232.0,1
246,4.0,2.0,-2.0,-8.0,-5.0,-4.0,-3.0,-9.0,1651071089160421.0,1
247,-1.0,-4.0,-2.0,1.0,0.0,4.0,-1.0,5.0,1651071089160421.0,1
248,3.0,-2.0,-3.0,-3.0,-3.0,1.0,0.0,-10.0,1651071089161363.0,1
249,-10.0,-3.0,-2.0,-2.0,-6.0,-3.0,0.0,17.0,1651071089161363.0,1
250,-5.0,1.0,-4.0,5.0,-3.0,-6.0,-1.0,-8.0,1651071089183442.0,1
251,0.0,6.0,4.0,-1.0,1.0,1.0,-2.0,-1.0,1651071089183442.0,1
252,6.0,-14.0,-1.0,0.0,-3.0,2.0,3.0,-1.0,1651071089183442.0,1
253,5.0,11.0,-4.0,-4.0,5.0,1.0,1.0,2.0,1651071089183442.0,1
254,15.0,-1.0,1.0,4.0,3.0,4.0,-1.0,0.0,1651071089197433.0,1
255,-1.0,0.0,1.0,-1.0,-2.0,-3.0,1.0,9.0,1651071089197433.0,1
256,-12.0,0.0,0.0,0.0,-3.0,-2.0,-1.0,-5.0,1651071089198430.0,1
257,-10.0,-2.0,0.0,-4.0,-1.0,1.0,-3.0,-24.0,1651071089198430.0,1
258,-6.0,2.0,1.0,3.0,1.0,-1.0,-4.0,-8.0,1651071089220145.0,1
259,4.0,5.0,0.0,-2.0,-4.0,1.0,0.0,21.0,1651071089220145.0,1
260,-7.0,-3.0,-3.0,2.0,11.0,5.0,1.0,-14.0,1651071089221129.0,1
261,16.0,1.0,4.0,5.0,3.0,1.0,3.0,25.0,1651071089221129.0,1
262,-8.0,3.0,-5.0,-7.0,-9.0,-4.0,-3.0,-14.0,1651071089243247.0,1
263,-3.0,-4.0,2.0,0.0,-7.0,-2.0,-1.0,-7.0,1651071089243247.0,1
264,8.0,1.0,1.0,1.0,1.0,-1.0,-3.0,4.0,1651071089244180.0,1
265,-17.0,-5.0,-7.0,-10.0,6.0,2.0,1.0,-3.0,1651071089244180.0,1
266,5.0,-1.0,-1.0,-2.0,3.0,4.0,2.0,7.0,1651071089257210.0,1
267,-1.0,-3.0,0.0,1.0,-2.0,-3.0,1.0,1.0,1651071089257210.0,1
268,-1.0,-6.0,-1.0,3.0,-1.0,0.0,-3.0,-2.0,1651071089258141.0,1
269,4.0,10.0,5.0,4.0,9.0,1.0,-1.0,-6.0,1651071089258141.0,1
270,-5.0,-1.0,3.0,7.0,4.0,3.0,0.0,-1.0,1651071089280538.0,1
271,7.0,-9.0,-4.0,-2.0,0.0,-2.0,2.0,9.0,1651071089280538.0,1
272,4.0,5.0,-1.0,1.0,-5.0,-2.0,1.0,5.0,1651071089281469.0,1
273,2.0,-4.0,-3.0,-7.0,-6.0,-1.0,1.0,5.0,1651071089281469.0,1
274,-4.0,3.0,1.0,-1.0,-1.0,-1.0,-4.0,-3.0,1651071089303381.0,1
275,5.0,-2.0,1.0,3.0,-4.0,2.0,0.0,-6.0,1651071089303381.0,1
276,4.0,4.0,-6.0,-3.0,-10.0,-5.0,-1.0,-2.0,1651071089303381.0,1
277,2.0,-6.0,0.0,1.0,8.0,2.0,0.0,2.0,1651071089303381.0,1
278,-2.0,5.0,0.0,1.0,3.0,2.0,2.0,4.0,1651071089317705.0,1
279,-24.0,-7.0,-2.0,-3.0,-2.0,-6.0,-3.0,-11.0,1651071089317705.0,1
280,2.0,7.0,0.0,-4.0,1.0,2.0,0.0,-2.0,1651071089317705.0,1
281,2.0,1.0,-4.0,-1.0,-5.0,-3.0,-4.0,8.0,1651071089317705.0,1
282,7.0,1.0,4.0,2.0,-5.0,-12.0,-1.0,-3.0,1651071089340902.0,1
283,8.0,4.0,-2.0,-2.0,2.0,14.0,3.0,4.0,1651071089340902.0,1
284,-2.0,-1.0,3.0,3.0,12.0,5.0,1.0,-11.0,1651071089341617.0,1
285,27.0,-4.0,2.0,3.0,-6.0,-3.0,1.0,6.0,1651071089341617.0,1
286,-16.0,6.0,-2.0,-7.0,-3.0,-3.0,-3.0,-3.0,1651071089362737.0,1
287,0.0,0.0,-1.0,-3.0,-3.0,-3.0,-2.0,2.0,1651071089362737.0,1
288,-7.0,-8.0,-2.0,-3.0,-4.0,-3.0,0.0,-6.0,1651071089363668.0,1
289,12.0,5.0,0.0,1.0,1.0,5.0,0.0,6.0,1651071089363668.0,1
290,-1.0,-5.0,-2.0,4.0,7.0,3.0,0.0,-2.0,1651071089376700.0,1
291,11.0,7.0,-1.0,0.0,5.0,1.0,4.0,5.0,1651071089376700.0,1
292,-6.0,-3.0,1.0,-3.0,-3.0,-5.0,-3.0,-2.0,1651071089392758.0,1
293,-10.0,-6.0,2.0,2.0,-8.0,-3.0,-1.0,-8.0,1651071089392758.0,1
294,8.0,2.0,0.0,-7.0,-12.0,-2.0,0.0,7.0,1651071089400803.0,1
295,-11.0,0.0,-2.0,4.0,14.0,2.0,-3.0,-7.0,1651071089400803.0,1
296,-2.0,-3.0,0.0,2.0,-4.0,1.0,-2.0,-10.0,1651071089400803.0,1
297,5.0,7.0,0.0,-4.0,-3.0,-2.0,3.0,21.0,1651071089400803.0,1
298,-7.0,-6.0,-3.0,0.0,-1.0,0.0,-2.0,-9.0,1651071089423406.0,1
299,6.0,-2.0,-1.0,-5.0,-7.0,-7.0,-3.0,6.0,1651071089423406.0,1
300,-1.0,-5.0,-3.0,-4.0,-5.0,0.0,-3.0,3.0,1651071089423406.0,1
301,-8.0,3.0,-2.0,3.0,4.0,-2.0,0.0,-7.0,1651071089423406.0,1
302,10.0,5.0,2.0,5.0,2.0,3.0,1.0,-5.0,1651071089436430.0,1
303,1.0,4.0,0.0,-4.0,-4.0,-2.0,0.0,2.0,1651071089436430.0,1
304,-3.0,2.0,2.0,0.0,1.0,0.0,-2.0,-1.0,1651071089445338.0,1
305,-12.0,-5.0,3.0,1.0,-2.0,0.0,-1.0,5.0,1651071089445338.0,1
306,1.0,-11.0,-2.0,-3.0,-3.0,-4.0,-3.0,0.0,1651071089460349.0,1
307,23.0,2.0,-4.0,-1.0,-2.0,-1.0,-2.0,-2.0,1651071089460349.0,1
308,-20.0,5.0,1.0,1.0,1.0,1.0,3.0,-2.0,1651071089461341.0,1
309,-8.0,-6.0,-2.0,0.0,3.0,3.0,0.0,-12.0,1651071089461341.0,1
310,9.0,5.0,0.0,1.0,2.0,1.0,0.0,10.0,1651071089483462.0,1
311,-1.0,-3.0,-1.0,-3.0,-7.0,-2.0,-1.0,-3.0,1651071089483462.0,1
312,5.0,1.0,-3.0,-4.0,4.0,1.0,-1.0,3.0,1651071089483462.0,1
313,-3.0,5.0,-2.0,-2.0,-3.0,-1.0,0.0,-7.0,1651071089483462.0,1
314,-2.0,-4.0,0.0,4.0,0.0,0.0,1.0,3.0,1651071089496500.0,1
315,-18.0,-11.0,-1.0,2.0,-1.0,-2.0,-1.0,-5.0,1651071089496500.0,1
316,6.0,-1.0,-7.0,-6.0,-2.0,-1.0,1.0,12.0,1651071089504409.0,1
317,-15.0,-13.0,1.0,1.0,0.0,0.0,-3.0,-8.0,1651071089504409.0,1
318,12.0,15.0,-3.0,-7.0,-2.0,1.0,2.0,0.0,1651071089520421.0,1
319,-12.0,-2.0,-1.0,4.0,-3.0,-2.0,-2.0,-9.0,1651071089520421.0,1
320,-7.0,-7.0,-1.0,-4.0,-6.0,-1.0,0.0,-8.0,1651071089521350.0,1
321,19.0,3.0,1.0,1.0,-1.0,-2.0,0.0,5.0,1651071089521350.0,1
322,-9.0,-6.0,3.0,-2.0,2.0,0.0,-4.0,-17.0,1651071089543398.0,1
323,11.0,5.0,0.0,1.0,6.0,2.0,9.0,33.0,1651071089543398.0,1
324,-5.0,-2.0,-3.0,1.0,1.0,-2.0,-1.0,0.0,1651071089543398.0,1
325,-9.0,-1.0,-3.0,-5.0,-4.0,1.0,-4.0,-13.0,1651071089543398.0,1
326,6.0,-6.0,3.0,4.0,-1.0,1.0,0.0,1.0,1651071089556511.0,1
327,-12.0,2.0,-5.0,-9.0,-5.0,-2.0,1.0,-4.0,1651071089556511.0,1
328,41.0,-1.0,2.0,4.0,3.0,0.0,0.0,8.0,1651071089565069.0,1
329,-13.0,1.0,0.0,3.0,-3.0,-1.0,-3.0,-21.0,1651071089565069.0,1
330,-3.0,-3.0,-1.0,3.0,-2.0,-1.0,0.0,17.0,1651071089580075.0,1
331,-2.0,3.0,4.0,4.0,-11.0,-1.0,-1.0,-10.0,1651071089580075.0,1
332,-3.0,-10.0,0.0,1.0,19.0,3.0,0.0,6.0,1651071089581046.0,1
333,-2.0,1.0,-4.0,-3.0,5.0,6.0,0.0,-14.0,1651071089581046.0,1
334,-4.0,0.0,-2.0,-6.0,-3.0,-2.0,2.0,12.0,1651071089602554.0,1
335,3.0,1.0,1.0,-1.0,-2.0,-3.0,-3.0,-6.0,1651071089602554.0,1
336,-5.0,4.0,0.0,-1.0,-8.0,-2.0,-1.0,-5.0,1651071089603563.0,1
337,16.0,6.0,-1.0,-3.0,-4.0,-1.0,2.0,22.0,1651071089603563.0,1
338,-5.0,-2.0,-4.0,-2.0,1.0,0.0,1.0,0.0,1651071089616597.0,1
339,6.0,-4.0,0.0,-3.0,-2.0,0.0,-1.0,-5.0,1651071089616597.0,1
340,-11.0,-3.0,0.0,3.0,0.0,0.0,0.0,2.0,1651071089624575.0,1
341,2.0,8.0,1.0,1.0,7.0,0.0,0.0,1.0,1651071089624575.0,1
342,12.0,2.0,2.0,13.0,-2.0,-2.0,-1.0,-1.0,1651071089640854.0,1
343,-50.0,-10.0,0.0,-2.0,-1.0,-2.0,-4.0,-8.0,1651071089640854.0,1
344,-7.0,-1.0,-5.0,-11.0,-3.0,-1.0,-1.0,-2.0,1651071089641616.0,1
345,11.0,12.0,1.0,1.0,1.0,1.0,-1.0,4.0,1651071089641616.0,1
346,-11.0,-9.0,-4.0,-6.0,1.0,-2.0,-3.0,-11.0,1651071089670641.0,1
347,26.0,12.0,4.0,9.0,4.0,1.0,-1.0,6.0,1651071089670641.0,1
348,-10.0,-8.0,0.0,-2.0,0.0,2.0,0.0,7.0,1651071089671650.0,1
349,-4.0,0.0,-1.0,0.0,-2.0,-3.0,0.0,-6.0,1651071089671650.0,1
350,-9.0,-15.0,-2.0,-3.0,-1.0,0.0,-1.0,4.0,1651071089676656.0,1
351,15.0,9.0,-2.0,0.0,9.0,6.0,3.0,2.0,1651071089676656.0,1
352,2.0,2.0,-1.0,-1.0,-3.0,-2.0,-1.0,0.0,1651071089684607.0,1
353,4.0,-9.0,1.0,-5.0,0.0,-2.0,-1.0,-4.0,1651071089684607.0,1
354,1.0,6.0,2.0,3.0,-6.0,-4.0,0.0,-3.0,1651071089700262.0,1
355,0.0,-2.0,-2.0,-1.0,-1.0,4.0,1.0,-9.0,1651071089700262.0,1
356,3.0,-2.0,0.0,5.0,2.0,1.0,1.0,14.0,1651071089700262.0,1
357,-11.0,3.0,2.0,3.0,-2.0,-3.0,-4.0,-21.0,1651071089700262.0,1
358,1.0,-12.0,-3.0,-15.0,-2.0,3.0,3.0,9.0,1651071089722567.0,1
359,10.0,6.0,-2.0,3.0,1.0,-3.0,1.0,0.0,1651071089722567.0,1
360,-2.0,-2.0,-4.0,-3.0,2.0,0.0,-2.0,-5.0,1651071089724495.0,1
361,-28.0,2.0,2.0,14.0,5.0,-3.0,-3.0,-3.0,1651071089724495.0,1
362,9.0,8.0,3.0,1.0,-4.0,-1.0,-2.0,5.0,1651071089745343.0,1
363,1.0,-3.0,-1.0,-8.0,-6.0,-4.0,-2.0,-1.0,1651071089745343.0,1
364,2.0,4.0,2.0,3.0,3.0,-3.0,-1.0,-6.0,1651071089747271.0,1
365,13.0,-11.0,-4.0,-5.0,-8.0,-1.0,1.0,5.0,1651071089747271.0,1
366,-21.0,9.0,-4.0,6.0,4.0,4.0,1.0,-3.0,1651071089759305.0,1
367,-4.0,-6.0,0.0,-6.0,-5.0,-2.0,-2.0,-3.0,1651071089759305.0,1
368,8.0,5.0,-1.0,-4.0,-5.0,-2.0,-1.0,-7.0,1651071089768329.0,1
369,-2.0,2.0,-1.0,-6.0,-4.0,-3.0,3.0,13.0,1651071089768329.0,1
370,9.0,-1.0,0.0,4.0,4.0,2.0,1.0,1.0,1651071089783406.0,1
371,-2.0,-11.0,-2.0,1.0,8.0,3.0,-1.0,-3.0,1651071089783406.0,1
372,1.0,14.0,-4.0,-3.0,-7.0,1.0,0.0,-6.0,1651071089784341.0,1
373,4.0,-3.0,-1.0,-13.0,-2.0,-1.0,1.0,6.0,1651071089784341.0,1
374,-4.0,-1.0,5.0,25.0,2.0,-1.0,-2.0,-6.0,1651071089805285.0,1
375,-6.0,-2.0,-3.0,-7.0,-2.0,-2.0,-2.0,-1.0,1651071089805285.0,1
376,-1.0,0.0,2.0,3.0,-5.0,-3.0,-4.0,-18.0,1651071089807307.0,1
377,9.0,-7.0,-5.0,-5.0,2.0,-2.0,3.0,25.0,1651071089807307.0,1
378,3.0,7.0,-2.0,-9.0,3.0,2.0,-1.0,2.0,1651071089819315.0,1
379,-1.0,-2.0,1.0,1.0,-2.0,2.0,1.0,0.0,1651071089819315.0,1
380,-5.0,-4.0,2.0,0.0,-8.0,-3.0,-3.0,-1.0,1651071089828224.0,1
381,-2.0,0.0,-2.0,0.0,8.0,3.0,-2.0,-12.0,1651071089828224.0,1
382,2.0,-2.0,-2.0,-7.0,-8.0,-5.0,-1.0,-3.0,1651071089843252.0,1
383,2.0,-2.0,0.0,7.0,10.0,2.0,-2.0,3.0,1651071089843252.0,1
384,-1.0,-4.0,1.0,0.0,-2.0,-1.0,3.0,6.0,1651071089844190.0,1
385,-11.0,-3.0,-1.0,0.0,-6.0,-2.0,-2.0,-4.0,1651071089844190.0,1
386,0.0,-7.0,-3.0,-6.0,-5.0,-1.0,-1.0,-2.0,1651071089865191.0,1
387,-3.0,3.0,-4.0,-1.0,-3.0,-4.0,0.0,-6.0,1651071089865191.0,1
388,-1.0,0.0,1.0,-2.0,-1.0,1.0,-1.0,1.0,1651071089867120.0,1
389,3.0,-3.0,1.0,4.0,2.0,1.0,-2.0,-1.0,1651071089867120.0,1
390,-2.0,-1.0,-2.0,-4.0,-1.0,-1.0,-1.0,-5.0,1651071089879154.0,1
391,0.0,1.0,-1.0,-1.0,2.0,-2.0,0.0,-2.0,1651071089879154.0,1
392,2.0,0.0,3.0,5.0,4.0,-2.0,1.0,6.0,1651071089888150.0,1
393,3.0,-2.0,0.0,2.0,-1.0,2.0,-2.0,-1.0,1651071089888150.0,1
394,-1.0,5.0,-1.0,-6.0,-4.0,-4.0,-1.0,-6.0,1651071089903365.0,1
395,0.0,-1.0,-3.0,-5.0,-10.0,-2.0,-2.0,2.0,1651071089903365.0,1
396,1.0,2.0,2.0,4.0,15.0,8.0,2.0,3.0,1651071089904365.0,1
397,-2.0,-5.0,0.0,1.0,-1.0,3.0,0.0,0.0,1651071089904365.0,1
398,0.0,-3.0,-2.0,-2.0,1.0,-3.0,-1.0,-1.0,1651071089925493.0,1
399,1.0,1.0,-1.0,0.0,-7.0,-5.0,-1.0,0.0,1651071089925493.0,1
400,-2.0,-2.0,1.0,0.0,-1.0,1.0,0.0,0.0,1651071089927357.0,1
401,-1.0,-1.0,-2.0,-2.0,-2.0,-1.0,0.0,-1.0,1651071089927357.0,1
402,1.0,0.0,1.0,-1.0,0.0,0.0,-2.0,-1.0,1651071089939325.0,1
403,-2.0,0.0,1.0,-3.0,-3.0,-11.0,-4.0,-5.0,1651071089939325.0,1
404,-3.0,-3.0,-3.0,-2.0,-6.0,9.0,-1.0,-1.0,1651071089948422.0,1
405,3.0,0.0,-2.0,-1.0,11.0,3.0,1.0,-2.0,1651071089948422.0,1
406,1.0,-1.0,-3.0,-3.0,-5.0,2.0,3.0,2.0,1651071089963430.0,1
407,-3.0,-2.0,3.0,10.0,9.0,0.0,0.0,-1.0,1651071089963430.0,1
408,0.0,-1.0,1.0,-2.0,-1.0,-2.0,-1.0,-1.0,1651071089964379.0,1
409,2.0,2.0,-4.0,-4.0,-3.0,-4.0,-1.0,3.0,1651071089964379.0,1
410,-2.0,0.0,0.0,-3.0,-2.0,-3.0,-2.0,-2.0,1651071089985957.0,1
411,-1.0,-2.0,-1.0,-2.0,-1.0,0.0,-1.0,-1.0,1651071089985957.0,1
412,-1.0,-1.0,-2.0,2.0,-4.0,-6.0,-1.0,0.0,1651071089986921.0,1
413,0.0,-2.0,-1.0,3.0,-3.0,2.0,-1.0,-2.0,1651071089986921.0,1
414,-1.0,2.0,2.0,1.0,2.0,2.0,-3.0,-8.0,1651071089999955.0,1
415,2.0,-1.0,0.0,1.0,2.0,-4.0,1.0,2.0,1651071089999955.0,1
416,0.0,-1.0,-3.0,-6.0,-7.0,4.0,3.0,7.0,1651071090006937.0,1
417,-1.0,0.0,-3.0,2.0,25.0,15.0,4.0,-2.0,1651071090006937.0,1
418,0.0,-1.0,-5.0,-5.0,-8.0,0.0,-2.0,-1.0,1651071090023016.0,1
419,-2.0,-1.0,-1.0,-7.0,8.0,2.0,-3.0,-2.0,1651071090023016.0,1
420,1.0,0.0,2.0,4.0,-5.0,-8.0,-2.0,-3.0,1651071090024958.0,1
421,0.0,2.0,5.0,7.0,-16.0,-9.0,1.0,1.0,1651071090024958.0,1
422,3.0,5.0,16.0,11.0,16.0,7.0,5.0,2.0,1651071090045887.0,1
423,-1.0,-2.0,2.0,1.0,-8.0,2.0,0.0,-1.0,1651071090045887.0,1
424,-4.0,-4.0,-19.0,-29.0,-4.0,-6.0,-3.0,-4.0,1651071090046885.0,1
425,-2.0,-7.0,-8.0,5.0,-8.0,-5.0,-4.0,-1.0,1651071090046885.0,1
426,1.0,3.0,2.0,-8.0,0.0,-5.0,-3.0,-1.0,1651071090060040.0,1
427,0.0,-2.0,-3.0,1.0,-4.0,2.0,-1.0,0.0,1651071090060040.0,1
428,1.0,1.0,7.0,13.0,1.0,-1.0,0.0,-1.0,1651071090067030.0,1
429,-2.0,1.0,-6.0,-20.0,0.0,-1.0,0.0,-2.0,1651071090067030.0,1
430,-3.0,-3.0,-6.0,5.0,2.0,-4.0,0.0,2.0,1651071090083395.0,1
431,0.0,3.0,12.0,7.0,8.0,15.0,3.0,2.0,1651071090083395.0,1
432,0.0,-5.0,-7.0,15.0,8.0,4.0,2.0,0.0,1651071090084403.0,1
433,1.0,5.0,13.0,-1.0,-6.0,-5.0,-4.0,-2.0,1651071090084403.0,1
434,0.0,-6.0,-12.0,-17.0,-7.0,-4.0,2.0,1.0,1651071090104407.0,1
435,-4.0,-3.0,-21.0,-21.0,-17.0,-9.0,-2.0,-4.0,1651071090104407.0,1
436,0.0,3.0,16.0,3.0,11.0,-2.0,-2.0,-1.0,1651071090113317.0,1
437,-1.0,1.0,6.0,27.0,5.0,1.0,-1.0,-1.0,1651071090113317.0,1
438,-1.0,-4.0,-19.0,-30.0,-7.0,-9.0,-3.0,0.0,1651071090120298.0,1
439,-4.0,0.0,-2.0,6.0,-11.0,-1.0,0.0,-1.0,1651071090120298.0,1
440,3.0,3.0,-7.0,-24.0,-2.0,6.0,2.0,2.0,1651071090126349.0,1
441,-1.0,-1.0,-10.0,-36.0,-4.0,-3.0,-1.0,-2.0,1651071090126349.0,1
442,0.0,5.0,15.0,38.0,8.0,3.0,1.0,1.0,1651071090143443.0,1
443,1.0,1.0,12.0,31.0,11.0,7.0,1.0,1.0,1651071090143443.0,1
444,-1.0,0.0,5.0,1.0,-9.0,-8.0,-2.0,1.0,1651071090144409.0,1
445,-1.0,1.0,-6.0,-14.0,-8.0,2.0,0.0,0.0,1651071090144409.0,1
446,-2.0,-3.0,-15.0,-35.0,-6.0,-2.0,-3.0,-3.0,1651071090165159.0,1
447,2.0,3.0,16.0,11.0,5.0,-1.0,3.0,2.0,1651071090165159.0,1
448,-1.0,-3.0,-11.0,-3.0,-1.0,1.0,-1.0,-2.0,1651071090167183.0,1
449,-3.0,-3.0,-7.0,-3.0,-1.0,-6.0,-2.0,-2.0,1651071090167183.0,1
450,-3.0,0.0,16.0,51.0,4.0,-3.0,-2.0,-1.0,1651071090180189.0,1
451,13.0,2.0,-3.0,-12.0,-1.0,3.0,-1.0,0.0,1651071090180189.0,1
452,-3.0,0.0,6.0,-1.0,6.0,9.0,1.0,0.0,1651071090187103.0,1
453,0.0,-1.0,-3.0,5.0,0.0,1.0,-1.0,0.0,1651071090187103.0,1
454,1.0,0.0,0.0,-13.0,-1.0,-2.0,0.0,2.0,1651071090202612.0,1
455,0.0,2.0,-2.0,7.0,-3.0,-6.0,-1.0,-1.0,1651071090202612.0,1
456,1.0,0.0,-7.0,-12.0,2.0,-1.0,3.0,3.0,1651071090204540.0,1
457,1.0,-1.0,5.0,20.0,1.0,3.0,0.0,-3.0,1651071090204540.0,1
458,0.0,0.0,0.0,-15.0,-1.0,1.0,-1.0,-2.0,1651071090225599.0,1
459,-3.0,-5.0,-19.0,-27.0,-6.0,-6.0,-2.0,0.0,1651071090225599.0,1
460,-5.0,-6.0,-9.0,-5.0,-12.0,-7.0,-6.0,-4.0,1651071090226625.0,1
461,-2.0,0.0,7.0,11.0,-4.0,-2.0,0.0,1.0,1651071090226625.0,1
462,0.0,-1.0,-4.0,-6.0,6.0,4.0,1.0,-1.0,1651071090239495.0,1
463,-2.0,1.0,-7.0,-26.0,5.0,4.0,2.0,1.0,1651071090239495.0,1
464,-1.0,-1.0,8.0,42.0,5.0,1.0,0.0,1.0,1651071090248499.0,1
465,3.0,1.0,5.0,4.0,3.0,3.0,1.0,-1.0,1651071090248499.0,1
466,-2.0,0.0,16.0,27.0,-6.0,-4.0,-2.0,-2.0,1651071090263481.0,1
467,-4.0,-6.0,-8.0,-8.0,-8.0,-7.0,-3.0,-3.0,1651071090263481.0,1
468,0.0,0.0,4.0,-2.0,4.0,-2.0,0.0,-3.0,1651071090264449.0,1
469,-1.0,-2.0,-3.0,0.0,-6.0,-2.0,2.0,0.0,1651071090264449.0,1
470,0.0,0.0,-4.0,-13.0,0.0,5.0,0.0,0.0,1651071090285403.0,1
471,-2.0,-1.0,0.0,2.0,8.0,6.0,2.0,0.0,1651071090285403.0,1
472,0.0,0.0,-4.0,-11.0,-11.0,-6.0,-1.0,-2.0,1651071090287429.0,1
473,1.0,-1.0,0.0,-5.0,-2.0,-3.0,-1.0,1.0,1651071090287429.0,1
474,0.0,-2.0,1.0,1.0,1.0,2.0,-1.0,0.0,1651071090299436.0,1
475,0.0,-2.0,7.0,26.0,5.0,-7.0,0.0,-1.0,1651071090299436.0,1
476,0.0,1.0,-2.0,-3.0,-1.0,10.0,-2.0,1.0,1651071090308353.0,1
477,1.0,-2.0,0.0,-7.0,-3.0,-1.0,0.0,-1.0,1651071090308353.0,1
478,0.0,0.0,-7.0,-10.0,0.0,0.0,1.0,0.0,1651071090323437.0,1
479,0.0,-2.0,5.0,19.0,-2.0,0.0,-1.0,0.0,1651071090323437.0,1
480,-1.0,0.0,4.0,-8.0,3.0,-14.0,-2.0,-1.0,1651071090324443.0,1
481,-2.0,-4.0,-9.0,-11.0,1.0,10.0,-3.0,0.0,1651071090324443.0,1
482,1.0,-2.0,1.0,6.0,-8.0,-5.0,-1.0,0.0,1651071090345053.0,1
483,-1.0,1.0,0.0,-10.0,2.0,3.0,-1.0,1.0,1651071090345053.0,1
484,1.0,-1.0,3.0,2.0,0.0,1.0,2.0,0.0,1651071090347051.0,1
485,-3.0,1.0,2.0,-2.0,2.0,-3.0,-1.0,-1.0,1651071090347051.0,1
486,0.0,1.0,0.0,4.0,-1.0,-1.0,1.0,0.0,1651071090359086.0,1
487,-1.0,1.0,2.0,-2.0,-5.0,-1.0,-2.0,-1.0,1651071090359086.0,1
488,0.0,0.0,-2.0,4.0,-8.0,-4.0,-1.0,-2.0,1651071090368002.0,1
489,0.0,1.0,-2.0,4.0,5.0,-4.0,-1.0,1.0,1651071090368002.0,1
490,-2.0,-4.0,-2.0,-1.0,1.0,0.0,-2.0,-1.0,1651071090390071.0,1
491,-2.0,-3.0,-3.0,-9.0,-5.0,-4.0,-3.0,-3.0,1651071090390071.0,1
492,-1.0,-1.0,-3.0,-15.0,0.0,1.0,0.0,0.0,1651071090392055.0,1
493,0.0,0.0,1.0,-4.0,-1.0,0.0,0.0,-2.0,1651071090392055.0,1
494,1.0,-1.0,1.0,14.0,0.0,0.0,-3.0,0.0,1651071090405164.0,1
495,1.0,-2.0,0.0,6.0,5.0,2.0,1.0,0.0,1651071090405164.0,1
496,-2.0,1.0,1.0,9.0,1.0,-1.0,0.0,-1.0,1651071090407162.0,1
497,-1.0,-2.0,-10.0,-24.0,-5.0,-3.0,0.0,-1.0,1651071090407162.0,1
498,-2.0,3.0,1.0,9.0,1.0,2.0,2.0,-1.0,1651071090419197.0,1
499,0.0,0.0,1.0,-8.0,-5.0,0.0,0.0,0.0,1651071090419197.0,1
500,-1.0,0.0,-2.0,1.0,-8.0,-7.0,-2.0,-1.0,1651071090428105.0,1
501,0.0,0.0,8.0,15.0,22.0,6.0,0.0,0.0,1651071090428105.0,1
502,0.0,-3.0,-6.0,-13.0,0.0,2.0,0.0,-1.0,1651071090443459.0,1
503,0.0,-2.0,-4.0,-8.0,0.0,-3.0,0.0,1.0,1651071090443459.0,1
504,0.0,0.0,2.0,3.0,-2.0,2.0,-3.0,-3.0,1651071090444460.0,1
505,-2.0,-2.0,2.0,4.0,-3.0,-3.0,-2.0,0.0,1651071090444460.0,1
506,0.0,1.0,0.0,-10.0,-2.0,0.0,1.0,1.0,1651071090465360.0,1
507,-2.0,-1.0,1.0,4.0,-10.0,1.0,-1.0,-2.0,1651071090465360.0,1
508,0.0,-2.0,-4.0,-1.0,4.0,-4.0,0.0,2.0,1651071090467385.0,1
509,-1.0,-2.0,0.0,2.0,2.0,-2.0,-1.0,0.0,1651071090467385.0,1
510,1.0,-1.0,-3.0,-6.0,3.0,4.0,0.0,1.0,1651071090479393.0,1
511,0.0,0.0,2.0,1.0,1.0,4.0,0.0,0.0,1651071090479393.0,1
512,0.0,0.0,3.0,9.0,2.0,1.0,-1.0,-1.0,1651071090488301.0,1
513,0.0,-1.0,-3.0,-3.0,-4.0,-6.0,-1.0,-1.0,1651071090488301.0,1
514,0.0,0.0,1.0,7.0,-4.0,-3.0,1.0,0.0,1651071090503395.0,1
515,-2.0,-2.0,-4.0,-13.0,-5.0,-5.0,-2.0,-2.0,1651071090503395.0,1
516,0.0,-3.0,-1.0,-15.0,-13.0,-5.0,0.0,-1.0,1651071090504395.0,1
517,0.0,0.0,7.0,11.0,5.0,4.0,0.0,-1.0,1651071090504395.0,1
518,-1.0,0.0,-5.0,-6.0,9.0,5.0,0.0,-1.0,1651071090525544.0,1
519,0.0,1.0,-1.0,-1.0,2.0,-1.0,0.0,-1.0,1651071090525544.0,1
520,-1.0,-1.0,-1.0,4.0,6.0,1.0,1.0,1.0,1651071090527478.0,1
521,0.0,-1.0,-2.0,-2.0,-12.0,-6.0,-2.0,-2.0,1651071090527478.0,1
522,-1.0,-1.0,1.0,1.0,-3.0,0.0,0.0,0.0,1651071090539419.0,1
523,-2.0,0.0,0.0,5.0,5.0,1.0,1.0,1.0,1651071090539419.0,1
524,-1.0,-1.0,-2.0,0.0,-1.0,1.0,-1.0,0.0,1651071090554495.0,1
525,0.0,2.0,-4.0,-9.0,-6.0,-2.0,0.0,0.0,1651071090554495.0,1
526,-1.0,-1.0,0.0,8.0,-2.0,-3.0,0.0,-1.0,1651071090562771.0,1
527,0.0,1.0,-2.0,-1.0,0.0,0.0,0.0,2.0,1651071090562771.0,1
528,0.0,-1.0,1.0,-1.0,6.0,1.0,-2.0,-2.0,1651071090564800.0,1
529,0.0,-1.0,2.0,8.0,-2.0,-2.0,0.0,0.0,1651071090564800.0,1
530,-1.0,-1.0,-7.0,-19.0,1.0,-2.0,-2.0,-1.0,1651071090593400.0,1
531,-2.0,0.0,0.0,-2.0,-2.0,-2.0,-1.0,-1.0,1651071090593400.0,1
532,2.0,0.0,-5.0,-10.0,-1.0,0.0,0.0,-1.0,1651071090594276.0,1
533,-1.0,0.0,0.0,2.0,-8.0,-3.0,-3.0,0.0,1651071090594276.0,1
534,1.0,-1.0,1.0,0.0,-1.0,-1.0,-1.0,-2.0,1651071090599294.0,1
535,-1.0,0.0,2.0,1.0,1.0,2.0,1.0,-2.0,1651071090599294.0,1
536,0.0,-1.0,1.0,4.0,4.0,4.0,1.0,0.0,1651071090608250.0,1
537,-1.0,-2.0,0.0,-2.0,-2.0,-1.0,-1.0,-1.0,1651071090608250.0,1
538,-2.0,1.0,0.0,2.0,-9.0,-6.0,1.0,0.0,1651071090623411.0,1
539,-1.0,-1.0,-1.0,-2.0,2.0,-4.0,-3.0,-1.0,1651071090623411.0,1
540,1.0,0.0,1.0,-2.0,-5.0,0.0,-1.0,1.0,1651071090624411.0,1
541,-1.0,0.0,0.0,1.0,3.0,3.0,3.0,1.0,1651071090624411.0,1
542,0.0,2.0,6.0,12.0,5.0,1.0,-2.0,2.0,1651071090645458.0,1
543,0.0,-1.0,0.0,2.0,-2.0,-6.0,-2.0,-2.0,1651071090645458.0,1
544,-2.0,-2.0,-2.0,3.0,0.0,-4.0,-2.0,-2.0,1651071090647358.0,1
545,-2.0,-1.0,-1.0,-12.0,-3.0,7.0,-1.0,0.0,1651071090647358.0,1
546,-1.0,1.0,0.0,4.0,0.0,1.0,1.0,0.0,1651071090668429.0,1
547,0.0,1.0,-5.0,-9.0,2.0,-4.0,-1.0,0.0,1651071090668429.0,1
548,0.0,-2.0,0.0,1.0,0.0,-1.0,-1.0,-1.0,1651071090669351.0,1
549,-4.0,1.0,-2.0,1.0,3.0,-1.0,1.0,0.0,1651071090669351.0,1
550,0.0,-3.0,1.0,-2.0,-4.0,-3.0,0.0,-2.0,1651071090683403.0,1
551,1.0,0.0,1.0,0.0,-12.0,-2.0,0.0,-2.0,1651071090683403.0,1
552,-2.0,2.0,-2.0,1.0,16.0,7.0,2.0,1.0,1651071090684445.0,1
553,1.0,-2.0,5.0,19.0,8.0,-2.0,-1.0,-2.0,1651071090684445.0,1
554,-1.0,0.0,-4.0,-16.0,4.0,4.0,-2.0,-1.0,1651071090705591.0,1
555,-4.0,-4.0,-4.0,-3.0,-5.0,-2.0,-2.0,-1.0,1651071090705591.0,1
556,-2.0,-2.0,-3.0,-10.0,-12.0,-4.0,-1.0,-3.0,1651071090707462.0,1
557,1.0,1.0,-1.0,-1.0,-5.0,-4.0,-2.0,-2.0,1651071090707462.0,1
558,1.0,-1.0,0.0,-1.0,-1.0,-1.0,0.0,0.0,1651071090728402.0,1
559,0.0,1.0,2.0,2.0,1.0,3.0,0.0,0.0,1651071090728402.0,1
560,0.0,0.0,-1.0,-2.0,5.0,1.0,2.0,1.0,1651071090729411.0,1
561,0.0,0.0,1.0,0.0,0.0,0.0,-1.0,0.0,1651071090729411.0,1
562,0.0,-1.0,1.0,6.0,-2.0,1.0,0.0,0.0,1651071090743488.0,1
563,0.0,0.0,-2.0,-14.0,-1.0,-5.0,-2.0,0.0,1651071090743488.0,1
564,0.0,-2.0,2.0,8.0,1.0,2.0,-1.0,-1.0,1651071090744486.0,1
565,1.0,0.0,1.0,-3.0,1.0,-3.0,1.0,-1.0,1651071090744486.0,1
566,-1.0,-1.0,2.0,1.0,1.0,5.0,0.0,-1.0,1651071090765615.0,1
567,0.0,1.0,1.0,5.0,4.0,2.0,1.0,-2.0,1651071090765615.0,1
568,-2.0,0.0,-2.0,-4.0,-5.0,-3.0,-2.0,0.0,1651071090767514.0,1
569,0.0,-2.0,-2.0,-8.0,-7.0,-4.0,-3.0,0.0,1651071090767514.0,1
570,0.0,-3.0,-4.0,-5.0,0.0,-3.0,-1.0,-1.0,1651071090788471.0,1
571,0.0,-1.0,4.0,15.0,7.0,3.0,1.0,1.0,1651071090788471.0,1
572,0.0,0.0,3.0,0.0,-4.0,2.0,1.0,1.0,1651071090789455.0,1
573,-2.0,-2.0,-7.0,-7.0,2.0,-9.0,-3.0,0.0,1651071090789455.0,1
574,0.0,0.0,1.0,8.0,5.0,10.0,2.0,0.0,1651071090802487.0,1
575,0.0,-1.0,0.0,-7.0,-4.0,0.0,2.0,-1.0,1651071090802487.0,1
576,0.0,0.0,1.0,-1.0,-3.0,-3.0,1.0,1.0,1651071090804418.0,1
577,-1.0,0.0,-1.0,-1.0,-10.0,-3.0,0.0,-1.0,1651071090804418.0,1
578,-1.0,-2.0,-1.0,-5.0,-2.0,-9.0,-3.0,0.0,1651071090825549.0,1
579,0.0,0.0,-2.0,-4.0,0.0,2.0,0.0,1.0,1651071090825549.0,1
580,-1.0,1.0,3.0,9.0,2.0,0.0,-1.0,-1.0,1651071090827354.0,1
581,-1.0,1.0,-3.0,-10.0,-2.0,-6.0,-1.0,-2.0,1651071090827354.0,1
582,-1.0,-2.0,-7.0,-12.0,1.0,7.0,0.0,-1.0,1651071090848475.0,1
583,0.0,-1.0,5.0,22.0,10.0,2.0,1.0,2.0,1651071090848475.0,1
584,-3.0,0.0,1.0,3.0,-1.0,-2.0,-2.0,0.0,1651071090849449.0,1
585,0.0,-1.0,-5.0,-3.0,-1.0,2.0,0.0,1.0,1651071090849449.0,1
586,1.0,1.0,1.0,3.0,-1.0,-5.0,-1.0,-2.0,1651071090862414.0,1
587,-1.0,-2.0,-3.0,-3.0,0.0,0.0,0.0,-2.0,1651071090862414.0,1
588,0.0,-1.0,-10.0,-18.0,-3.0,-2.0,-1.0,-3.0,1651071090869475.0,1
589,-1.0,-1.0,4.0,4.0,-2.0,-1.0,1.0,-1.0,1651071090869475.0,1
590,0.0,-1.0,0.0,-3.0,-7.0,-7.0,-1.0,1.0,1651071090885462.0,1
591,0.0,-2.0,-1.0,-4.0,2.0,6.0,1.0,0.0,1651071090885462.0,1
592,0.0,-1.0,3.0,8.0,3.0,-2.0,0.0,0.0,1651071090887456.0,1
593,0.0,-1.0,-1.0,-5.0,-10.0,2.0,1.0,-2.0,1651071090887456.0,1
594,-2.0,0.0,-3.0,-5.0,5.0,-2.0,1.0,-1.0,1651071090907590.0,1
595,0.0,1.0,1.0,13.0,-1.0,-4.0,-2.0,0.0,1651071090907590.0,1
596,0.0,-1.0,1.0,-1.0,3.0,0.0,-2.0,1.0,1651071090909575.0,1
597,0.0,-3.0,-1.0,2.0,3.0,3.0,-2.0,1.0,1651071090909575.0,1
598,1.0,-1.0,0.0,-3.0,-7.0,-3.0,-2.0,-2.0,1651071090922608.0,1
599,-1.0,0.0,-4.0,-6.0,-1.0,-2.0,-2.0,0.0,1651071090922608.0,1
600,-1.0,-1.0,-3.0,-4.0,-3.0,1.0,1.0,-2.0,1651071090929522.0,1
601,0.0,0.0,0.0,2.0,-2.0,-2.0,0.0,-2.0,1651071090929522.0,1
602,-2.0,-2.0,-2.0,-3.0,0.0,-3.0,-1.0,-1.0,1651071090946339.0,1
603,-1.0,1.0,0.0,-5.0,3.0,2.0,0.0,-2.0,1651071090946339.0,1
604,1.0,-1.0,0.0,3.0,-7.0,-3.0,-1.0,0.0,1651071090947345.0,1
605,-2.0,-2.0,0.0,4.0,8.0,6.0,0.0,0.0,1651071090947345.0,1
606,-2.0,-1.0,0.0,3.0,-1.0,2.0,-2.0,1.0,1651071090968378.0,1
607,0.0,-2.0,-2.0,-5.0,-6.0,-2.0,-1.0,0.0,1651071090968378.0,1
608,-1.0,1.0,1.0,1.0,-5.0,-1.0,-1.0,-2.0,1651071090969308.0,1
609,0.0,1.0,2.0,9.0,7.0,-1.0,0.0,1.0,1651071090969308.0,1
610,-2.0,-2.0,1.0,5.0,3.0,-1.0,-2.0,-1.0,1651071090982385.0,1
611,-1.0,-1.0,0.0,-6.0,-7.0,-4.0,-1.0,-1.0,1651071090982385.0,1
612,-1.0,0.0,0.0,0.0,9.0,2.0,1.0,0.0,1651071090989431.0,1
613,1.0,-1.0,-2.0,-5.0,-2.0,3.0,0.0,-1.0,1651071090989431.0,1
614,-1.0,-1.0,-2.0,3.0,-5.0,-2.0,-2.0,-2.0,1651071091005572.0,1
615,-1.0,0.0,-1.0,-4.0,-8.0,-8.0,-2.0,-2.0,1651071091005572.0,1
616,-2.0,-1.0,2.0,2.0,8.0,13.0,0.0,0.0,1651071091007505.0,1
617,-1.0,-1.0,-1.0,-2.0,-4.0,-3.0,-1.0,0.0,1651071091007505.0,1
618,1.0,1.0,-1.0,-6.0,0.0,3.0,2.0,1.0,1651071091028761.0,1
619,-2.0,-2.0,3.0,14.0,-1.0,-2.0,-2.0,0.0,1651071091028761.0,1
620,-2.0,-3.0,1.0,5.0,1.0,-8.0,-4.0,-2.0,1651071091029760.0,1
621,-1.0,0.0,1.0,2.0,-3.0,-4.0,0.0,-1.0,1651071091029760.0,1
622,1.0,-1.0,-3.0,-6.0,-4.0,1.0,-3.0,0.0,1651071091042850.0,1
623,-1.0,2.0,-2.0,-8.0,-4.0,4.0,3.0,-1.0,1651071091042850.0,1
624,0.0,0.0,0.0,3.0,6.0,3.0,1.0,-2.0,1651071091048848.0,1
625,-1.0,-2.0,-2.0,-2.0,-3.0,2.0,-1.0,-2.0,1651071091048848.0,1
626,-1.0,3.0,1.0,1.0,-1.0,-8.0,-2.0,-2.0,1651071091065705.0,1
627,0.0,0.0,0.0,0.0,5.0,4.0,-1.0,0.0,1651071091065705.0,1
628,0.0,-2.0,0.0,2.0,0.0,0.0,1.0,-1.0,1651071091066692.0,1
629,-1.0,0.0,2.0,1.0,0.0,-3.0,0.0,-2.0,1651071091066692.0,1
630,-1.0,-2.0,-6.0,-6.0,-3.0,-4.0,0.0,-1.0,1651071091087704.0,1
631,-3.0,-1.0,-4.0,-9.0,-7.0,-6.0,-4.0,0.0,1651071091087704.0,1
632,-1.0,1.0,0.0,2.0,-7.0,3.0,-1.0,1.0,1651071091089631.0,1
633,0.0,1.0,1.0,-3.0,6.0,5.0,2.0,1.0,1651071091089631.0,1
634,1.0,0.0,4.0,11.0,10.0,7.0,1.0,0.0,1651071091102705.0,1
635,0.0,-1.0,3.0,2.0,3.0,1.0,-1.0,1.0,1651071091102705.0,1
636,-2.0,-2.0,-8.0,-14.0,-8.0,-10.0,-3.0,-1.0,1651071091109612.0,1
637,-3.0,-2.0,-4.0,-4.0,-6.0,-2.0,-3.0,-2.0,1651071091109612.0,1
638,-1.0,0.0,0.0,2.0,-9.0,-1.0,0.0,-1.0,1651071091125613.0,1
639,0.0,-1.0,1.0,4.0,17.0,-1.0,-1.0,-1.0,1651071091125613.0,1
640,1.0,1.0,-5.0,-7.0,1.0,1.0,-1.0,-1.0,1651071091126644.0,1
641,0.0,-1.0,1.0,4.0,-1.0,-4.0,0.0,-1.0,1651071091126644.0,1
642,-1.0,-1.0,-3.0,-11.0,-6.0,9.0,1.0,1.0,1651071091147626.0,1
643,0.0,-1.0,6.0,15.0,-4.0,-2.0,2.0,1.0,1651071091147626.0,1
644,0.0,-2.0,2.0,0.0,1.0,2.0,0.0,-1.0,1651071091149550.0,1
645,-2.0,-2.0,-2.0,3.0,2.0,-4.0,-1.0,0.0,1651071091149550.0,1
646,1.0,1.0,-1.0,-3.0,3.0,-8.0,-2.0,-1.0,1651071091162728.0,1
647,0.0,-1.0,-4.0,-7.0,2.0,3.0,0.0,-1.0,1651071091162728.0,1
648,1.0,1.0,1.0,3.0,5.0,9.0,2.0,2.0,1651071091169618.0,1
649,-1.0,-1.0,0.0,-1.0,0.0,0.0,-2.0,-1.0,1651071091169618.0,1
650,-1.0,0.0,2.0,4.0,-7.0,-4.0,-2.0,1.0,1651071091185375.0,1
651,-2.0,-2.0,-4.0,1.0,-4.0,-8.0,0.0,-1.0,1651071091185375.0,1
652,-2.0,1.0,-4.0,-4.0,7.0,7.0,2.0,1.0,1651071091187393.0,1
653,-1.0,0.0,0.0,-8.0,-6.0,1.0,-1.0,-1.0,1651071091187393.0,1
654,0.0,-1.0,2.0,8.0,6.0,1.0,2.0,-3.0,1651071091208514.0,1
655,1.0,0.0,-7.0,-18.0,-5.0,-5.0,-3.0,0.0,1651071091208514.0,1
656,0.0,-1.0,5.0,11.0,-2.0,-2.0,-1.0,2.0,1651071091209512.0,1
657,2.0,0.0,2.0,6.0,9.0,6.0,2.0,2.0,1651071091209512.0,1
658,-2.0,-2.0,0.0,4.0,5.0,-5.0,-2.0,-2.0,1651071091222592.0,1
659,1.0,1.0,-3.0,-5.0,-5.0,4.0,0.0,1.0,1651071091222592.0,1
660,0.0,-1.0,-1.0,-4.0,-7.0,-5.0,-2.0,-1.0,1651071091230681.0,1
661,1.0,-1.0,-2.0,0.0,8.0,7.0,1.0,-1.0,1651071091230681.0,1
662,0.0,-1.0,0.0,-1.0,-6.0,-2.0,-2.0,0.0,1651071091245695.0,1
663,-1.0,-2.0,2.0,5.0,-1.0,-1.0,-2.0,-3.0,1651071091245695.0,1
664,0.0,1.0,0.0,-2.0,-9.0,-5.0,-3.0,-2.0,1651071091246697.0,1
665,-1.0,0.0,2.0,3.0,-5.0,-4.0,-2.0,-2.0,1651071091246697.0,1
666,0.0,0.0,-2.0,-3.0,-3.0,-9.0,0.0,0.0,1651071091267852.0,1
667,-1.0,1.0,-3.0,-13.0,-2.0,15.0,0.0,-1.0,1651071091267852.0,1
668,-1.0,-2.0,0.0,15.0,0.0,-18.0,-1.0,-1.0,1651071091269787.0,1
669,0.0,-1.0,0.0,-2.0,-1.0,14.0,1.0,0.0,1651071091269787.0,1
670,0.0,-1.0,-4.0,-4.0,4.0,0.0,-1.0,0.0,1651071091281813.0,1
671,0.0,1.0,0.0,1.0,-5.0,-4.0,-3.0,-2.0,1651071091281813.0,1
672,-1.0,-3.0,3.0,1.0,4.0,2.0,1.0,-1.0,1651071091290253.0,1
673,0.0,0.0,-3.0,0.0,6.0,-2.0,-2.0,0.0,1651071091290253.0,1
674,-1.0,-1.0,2.0,2.0,-12.0,-4.0,1.0,-1.0,1651071091305439.0,1
675,0.0,-2.0,-2.0,-3.0,10.0,2.0,3.0,1.0,1651071091305439.0,1
676,0.0,-1.0,-1.0,-9.0,-11.0,1.0,-4.0,-2.0,1651071091307366.0,1
677,-1.0,0.0,2.0,-2.0,-2.0,-8.0,-2.0,-2.0,1651071091307366.0,1
678,0.0,-1.0,-6.0,-9.0,-1.0,6.0,-3.0,-2.0,1651071091327875.0,1
679,-1.0,1.0,1.0,1.0,-6.0,-5.0,-3.0,-1.0,1651071091327875.0,1
680,0.0,-1.0,1.0,12.0,5.0,2.0,-1.0,-1.0,1651071091335305.0,1
681,-2.0,-2.0,-5.0,-6.0,-4.0,-5.0,-3.0,-1.0,1651071091335305.0,1
682,1.0,0.0,1.0,3.0,5.0,2.0,1.0,-1.0,1651071091341318.0,1
683,1.0,0.0,-1.0,-5.0,1.0,-1.0,1.0,-1.0,1651071091341318.0,1
684,1.0,-2.0,-2.0,-4.0,-3.0,-4.0,0.0,-1.0,1651071091350266.0,1
685,0.0,0.0,1.0,0.0,-6.0,-16.0,0.0,0.0,1651071091350266.0,1
686,-2.0,0.0,-1.0,0.0,16.0,23.0,4.0,-1.0,1651071091365704.0,1
687,-1.0,0.0,0.0,4.0,-7.0,-2.0,-1.0,1.0,1651071091365704.0,1
688,-2.0,1.0,-3.0,-6.0,2.0,2.0,-1.0,2.0,1651071091366696.0,1
689,0.0,1.0,1.0,0.0,-4.0,-8.0,-3.0,0.0,1651071091366696.0,1
690,-2.0,-4.0,-4.0,-6.0,-14.0,-9.0,-1.0,0.0,1651071091388475.0,1
691,0.0,-2.0,1.0,0.0,5.0,-2.0,1.0,0.0,1651071091388475.0,1
692,-2.0,2.0,0.0,-2.0,-1.0,9.0,1.0,-1.0,1651071091389426.0,1
693,2.0,0.0,-1.0,4.0,-3.0,0.0,1.0,3.0,1651071091389426.0,1
694,-1.0,0.0,0.0,-4.0,-2.0,-1.0,-2.0,0.0,1651071091401463.0,1
695,-1.0,-1.0,0.0,2.0,-2.0,-3.0,0.0,-1.0,1651071091401463.0,1
696,-2.0,-1.0,-3.0,-5.0,0.0,-4.0,-2.0,-1.0,1651071091410371.0,1
697,-1.0,-2.0,-5.0,-13.0,-4.0,3.0,0.0,0.0,1651071091410371.0,1
698,3.0,3.0,4.0,17.0,6.0,3.0,1.0,1.0,1651071091425208.0,1
699,-1.0,-1.0,3.0,7.0,-1.0,-4.0,0.0,0.0,1651071091425208.0,1
700,0.0,1.0,1.0,-3.0,-4.0,-3.0,-1.0,-2.0,1651071091427177.0,1
701,0.0,0.0,-2.0,-2.0,4.0,8.0,0.0,-1.0,1651071091427177.0,1
702,0.0,-1.0,-6.0,-6.0,-1.0,-16.0,-3.0,1.0,1651071091448372.0,1
703,-1.0,0.0,-3.0,-12.0,-11.0,11.0,0.0,-1.0,1651071091448372.0,1
704,2.0,2.0,4.0,10.0,9.0,6.0,2.0,1.0,1651071091449372.0,1
705,1.0,-1.0,0.0,2.0,5.0,3.0,-1.0,-3.0,1651071091449372.0,1
706,3.0,2.0,-3.0,-7.0,-3.0,-3.0,2.0,2.0,1651071091461477.0,1
707,-3.0,-4.0,-3.0,0.0,-9.0,-8.0,-4.0,-2.0,1651071091461477.0,1
708,-1.0,1.0,1.0,-6.0,-4.0,-3.0,-1.0,-2.0,1651071091470456.0,1
709,1.0,-1.0,1.0,18.0,9.0,5.0,2.0,3.0,1651071091470456.0,1
710,1.0,1.0,4.0,5.0,5.0,-2.0,-2.0,-2.0,1651071091485353.0,1
711,-1.0,0.0,-2.0,-3.0,2.0,2.0,0.0,-1.0,1651071091485353.0,1
712,-2.0,-4.0,-5.0,-14.0,-18.0,-7.0,-2.0,-3.0,1651071091487350.0,1
713,-2.0,1.0,1.0,13.0,4.0,-1.0,-1.0,-4.0,1651071091487350.0,1
714,0.0,1.0,0.0,-11.0,1.0,7.0,2.0,2.0,1651071091508006.0,1
715,1.0,-1.0,0.0,8.0,-3.0,-2.0,0.0,-1.0,1651071091508006.0,1
716,2.0,1.0,3.0,-6.0,-2.0,-1.0,0.0,-1.0,1651071091510001.0,1
717,-3.0,1.0,1.0,1.0,-2.0,-2.0,-2.0,-2.0,1651071091510001.0,1
718,-7.0,-6.0,-3.0,-1.0,-6.0,-3.0,-5.0,-5.0,1651071091522053.0,1
719,2.0,1.0,-2.0,-13.0,5.0,0.0,3.0,2.0,1651071091522053.0,1
720,2.0,1.0,-3.0,5.0,0.0,2.0,3.0,4.0,1651071091530961.0,1
721,-4.0,-6.0,-2.0,0.0,0.0,-1.0,-3.0,-2.0,1651071091530961.0,1
722,1.0,4.0,2.0,-3.0,-5.0,0.0,1.0,1.0,1651071091545159.0,1
723,-1.0,-1.0,-8.0,-15.0,-4.0,-3.0,0.0,-1.0,1651071091545159.0,1
724,1.0,-6.0,-4.0,-7.0,10.0,4.0,-2.0,-3.0,1651071091547087.0,1
725,0.0,12.0,3.0,0.0,-8.0,0.0,3.0,-22.0,1651071091547087.0,1
726,-8.0,-16.0,9.0,21.0,4.0,1.0,-4.0,-10.0,1651071091568229.0,1
727,5.0,7.0,7.0,14.0,-3.0,-3.0,-6.0,27.0,1651071091568229.0,1
728,7.0,-2.0,-7.0,-1.0,4.0,1.0,3.0,11.0,1651071091569168.0,1
729,-5.0,-4.0,-8.0,-15.0,-3.0,-2.0,4.0,11.0,1651071091569168.0,1
730,-17.0,4.0,0.0,1.0,-3.0,0.0,-5.0,-41.0,1651071091582147.0,1
731,-2.0,-25.0,-7.0,0.0,2.0,7.0,18.0,-28.0,1651071091582147.0,1
732,20.0,7.0,-6.0,-10.0,-6.0,-6.0,1.0,82.0,1651071091591118.0,1
733,8.0,17.0,8.0,12.0,2.0,-2.0,-20.0,-59.0,1651071091591118.0,1
734,-3.0,10.0,7.0,-3.0,0.0,-1.0,6.0,6.0,1651071091612732.0,1
735,-16.0,-23.0,-3.0,1.0,0.0,-5.0,-3.0,44.0,1651071091612732.0,1
736,6.0,15.0,6.0,6.0,1.0,0.0,-3.0,4.0,1651071091614668.0,1
737,7.0,-13.0,-5.0,-4.0,2.0,0.0,0.0,-5.0,1651071091614668.0,1
738,12.0,20.0,-6.0,-1.0,-6.0,-3.0,-6.0,-8.0,1651071091627694.0,1
739,-7.0,-10.0,5.0,4.0,5.0,5.0,4.0,-28.0,1651071091627694.0,1
740,-19.0,-30.0,-1.0,0.0,0.0,7.0,12.0,3.0,1651071091629628.0,1
741,-6.0,3.0,-6.0,-7.0,-5.0,-4.0,-13.0,-68.0,1651071091629628.0,1
742,10.0,8.0,-6.0,-3.0,1.0,0.0,-7.0,39.0,1651071091650783.0,1
743,7.0,6.0,-3.0,5.0,2.0,3.0,10.0,3.0,1651071091650783.0,1
744,0.0,10.0,5.0,0.0,-4.0,-7.0,-6.0,-6.0,1651071091651724.0,1
745,-7.0,-2.0,1.0,-6.0,-5.0,1.0,7.0,8.0,1651071091651724.0,1
746,-7.0,-21.0,-2.0,4.0,4.0,1.0,-1.0,-12.0,1651071091664862.0,1
747,-3.0,18.0,0.0,-2.0,3.0,0.0,-5.0,11.0,1651071091664862.0,1
748,2.0,-3.0,8.0,2.0,-2.0,1.0,-2.0,-22.0,1651071091671844.0,1
749,-1.0,1.0,-3.0,-4.0,-4.0,1.0,1.0,14.0,1651071091671844.0,1
750,16.0,-11.0,-3.0,-1.0,4.0,-1.0,2.0,12.0,1651071091688427.0,1
751,-22.0,4.0,4.0,1.0,0.0,-6.0,-12.0,-4.0,1651071091688427.0,1
752,-1.0,12.0,1.0,-1.0,0.0,1.0,0.0,-37.0,1651071091689353.0,1
753,43.0,-7.0,-3.0,-5.0,-4.0,-2.0,6.0,54.0,1651071091689353.0,1
754,-21.0,7.0,4.0,1.0,-2.0,0.0,5.0,10.0,1651071091710560.0,1
755,15.0,9.0,2.0,1.0,3.0,1.0,-4.0,-6.0,1651071091710560.0,1
756,-12.0,-6.0,-2.0,1.0,1.0,-2.0,-4.0,-19.0,1651071091711560.0,1
757,-9.0,-18.0,1.0,3.0,-3.0,-1.0,-1.0,10.0,1651071091711560.0,1
758,35.0,-2.0,-4.0,-2.0,-8.0,-3.0,8.0,13.0,1651071091725676.0,1
759,10.0,16.0,0.0,2.0,4.0,1.0,1.0,-4.0,1651071091725676.0,1
760,-53.0,-1.0,-1.0,1.0,2.0,-3.0,-2.0,-23.0,1651071091726673.0,1
761,-17.0,2.0,3.0,0.0,2.0,3.0,1.0,41.0,1651071091726673.0,1
762,-1.0,-20.0,-4.0,-4.0,3.0,1.0,-3.0,-26.0,1651071091747853.0,1
763,-5.0,10.0,0.0,3.0,-3.0,-2.0,3.0,20.0,1651071091747853.0,1
764,35.0,-1.0,-4.0,-10.0,-6.0,-8.0,-4.0,-6.0,1651071091749848.0,1
765,-29.0,10.0,7.0,21.0,5.0,7.0,2.0,14.0,1651071091749848.0,1
766,-23.0,-5.0,2.0,1.0,1.0,0.0,-3.0,-12.0,1651071091769924.0,1
767,18.0,6.0,-2.0,-7.0,-1.0,-1.0,-2.0,-8.0,1651071091769924.0,1
768,-12.0,-12.0,-10.0,-3.0,2.0,0.0,-4.0,-8.0,1651071091777903.0,1
769,24.0,5.0,0.0,-10.0,-3.0,-6.0,0.0,-12.0,1651071091777903.0,1
770,-2.0,2.0,4.0,0.0,-3.0,-2.0,-1.0,13.0,1651071091785294.0,1
771,-36.0,-21.0,7.0,7.0,-2.0,-2.0,-6.0,-4.0,1651071091785294.0,1
772,21.0,-5.0,-11.0,-1.0,1.0,4.0,1.0,-8.0,1651071091791348.0,1
773,4.0,6.0,-7.0,-8.0,0.0,-2.0,2.0,11.0,1651071091791348.0,1
774,8.0,3.0,-1.0,-3.0,-2.0,0.0,4.0,22.0,1651071091808382.0,1
775,9.0,4.0,2.0,-4.0,-5.0,-3.0,-5.0,-19.0,1651071091808382.0,0
776,-18.0,-8.0,5.0,12.0,0.0,-2.0,-3.0,3.0,1651071091809377.0,2
777,-2.0,-8.0,-1.0,-3.0,4.0,4.0,-1.0,-8.0,1651071091809377.0,2
778,7.0,10.0,-1.0,-2.0,-2.0,-2.0,0.0,-4.0,1651071091830493.0,2
779,0.0,-5.0,-3.0,-4.0,-4.0,0.0,-3.0,-3.0,1651071091830493.0,2
780,12.0,-5.0,3.0,3.0,-2.0,2.0,2.0,5.0,1651071091832419.0,2
781,-14.0,-1.0,-2.0,1.0,0.0,-2.0,1.0,0.0,1651071091832419.0,2
782,-12.0,-1.0,-3.0,-4.0,-2.0,-2.0,-5.0,-7.0,1651071091844728.0,2
783,-5.0,-1.0,1.0,-2.0,-1.0,-1.0,-1.0,-4.0,1651071091844728.0,2
784,18.0,11.0,1.0,0.0,-1.0,0.0,2.0,10.0,1651071091851709.0,2
785,-4.0,-1.0,2.0,3.0,-2.0,-1.0,-1.0,-2.0,1651071091851709.0,2
786,7.0,-3.0,0.0,2.0,7.0,5.0,5.0,4.0,1651071091868452.0,2
787,3.0,-1.0,-2.0,18.0,2.0,-2.0,-4.0,-7.0,1651071091868452.0,2
788,-10.0,-22.0,-3.0,-13.0,-6.0,-3.0,-4.0,-1.0,1651071091869448.0,2
789,-1.0,4.0,1.0,-16.0,-19.0,-8.0,-3.0,-5.0,1651071091869448.0,2
790,8.0,9.0,1.0,-4.0,5.0,4.0,0.0,-2.0,1651071091890478.0,2
791,17.0,3.0,-4.0,-5.0,3.0,3.0,5.0,12.0,1651071091890478.0,2
792,-2.0,0.0,0.0,7.0,8.0,-1.0,2.0,7.0,1651071091892476.0,2
793,-8.0,-12.0,0.0,-3.0,-1.0,0.0,-2.0,-18.0,1651071091892476.0,2
794,-17.0,-13.0,-3.0,0.0,-1.0,-3.0,-4.0,3.0,1651071091904594.0,2
795,12.0,13.0,-1.0,-3.0,4.0,0.0,2.0,3.0,1651071091904594.0,2
796,22.0,18.0,3.0,3.0,-2.0,2.0,-3.0,3.0,1651071091911645.0,2
797,-15.0,0.0,0.0,-4.0,-5.0,-4.0,1.0,2.0,1651071091911645.0,2
798,4.0,1.0,-3.0,-1.0,-3.0,-1.0,-4.0,-12.0,1651071091928354.0,2
799,-6.0,-17.0,0.0,1.0,1.0,1.0,-2.0,-4.0,1651071091928354.0,2
800,2.0,7.0,4.0,6.0,-1.0,0.0,0.0,-4.0,1651071091929285.0,2
801,9.0,0.0,-2.0,-5.0,3.0,0.0,0.0,7.0,1651071091929285.0,2
802,9.0,0.0,1.0,3.0,-3.0,-1.0,2.0,2.0,1651071091950462.0,2
803,-5.0,-12.0,-4.0,1.0,-2.0,-1.0,1.0,6.0,1651071091950462.0,2
804,-7.0,13.0,2.0,5.0,0.0,-1.0,-2.0,-10.0,1651071091952459.0,2
805,0.0,1.0,-3.0,2.0,3.0,0.0,-1.0,5.0,1651071091952459.0,2
806,-7.0,0.0,-2.0,-5.0,-5.0,-5.0,-4.0,-12.0,1651071091965566.0,2
807,1.0,-4.0,-3.0,-13.0,-3.0,-1.0,2.0,10.0,1651071091965566.0,2
808,-4.0,-2.0,0.0,4.0,-3.0,-3.0,0.0,1.0,1651071091971605.0,2
809,0.0,-4.0,2.0,-2.0,4.0,1.0,3.0,6.0,1651071091971605.0,2
810,-10.0,1.0,-1.0,-6.0,-2.0,0.0,-2.0,-1.0,1651071091988495.0,2
811,-2.0,-1.0,0.0,4.0,10.0,2.0,-1.0,-13.0,1651071091988495.0,2
812,-6.0,-14.0,-2.0,-5.0,-5.0,-4.0,-2.0,-3.0,1651071091989491.0,2
813,35.0,16.0,-6.0,-3.0,2.0,0.0,1.0,17.0,1651071091989491.0,2
814,-5.0,-1.0,-2.0,3.0,0.0,-1.0,4.0,10.0,1651071092010872.0,2
815,-12.0,-5.0,-3.0,3.0,-11.0,-6.0,-4.0,-4.0,1651071092010872.0,2
816,-10.0,1.0,0.0,-1.0,7.0,4.0,0.0,3.0,1651071092011641.0,2
817,0.0,-7.0,-2.0,2.0,0.0,0.0,-3.0,-13.0,1651071092011641.0,2
818,0.0,0.0,0.0,-7.0,-3.0,1.0,1.0,2.0,1651071092024680.0,2
819,4.0,-1.0,-4.0,-4.0,-1.0,1.0,-2.0,-3.0,1651071092024680.0,2
820,-3.0,5.0,1.0,0.0,-3.0,-1.0,-1.0,-5.0,1651071092031591.0,2
821,-7.0,-10.0,0.0,3.0,1.0,2.0,3.0,8.0,1651071092031591.0,2
822,4.0,-3.0,-1.0,-2.0,0.0,-1.0,2.0,-1.0,1651071092046713.0,2
823,2.0,5.0,-2.0,-2.0,-5.0,-2.0,0.0,-3.0,1651071092046713.0,2
824,-1.0,-1.0,1.0,4.0,-3.0,-2.0,-1.0,2.0,1651071092055625.0,2
825,-8.0,-2.0,-1.0,-10.0,0.0,-1.0,-2.0,-3.0,1651071092055625.0,2
826,-8.0,3.0,-1.0,5.0,2.0,1.0,0.0,-2.0,1651071092070479.0,2
827,-5.0,-9.0,2.0,-1.0,1.0,-1.0,2.0,5.0,1651071092070479.0,2
828,3.0,-2.0,-3.0,-16.0,-9.0,-3.0,3.0,3.0,1651071092072484.0,2
829,-7.0,3.0,-3.0,0.0,3.0,-3.0,-4.0,-2.0,1651071092072484.0,2
830,15.0,0.0,2.0,4.0,4.0,1.0,-2.0,-17.0,1651071092085299.0,2
831,-25.0,6.0,2.0,13.0,0.0,-1.0,0.0,15.0,1651071092085299.0,2
832,-3.0,-4.0,-3.0,-1.0,-3.0,2.0,1.0,5.0,1651071092091345.0,2
833,0.0,-7.0,1.0,9.0,2.0,-1.0,-1.0,-4.0,1651071092091345.0,2
834,-9.0,5.0,3.0,-7.0,2.0,-1.0,-3.0,-10.0,1651071092108405.0,2
835,10.0,-5.0,2.0,-2.0,-1.0,3.0,-1.0,-6.0,1651071092108405.0,2
836,-1.0,-1.0,-6.0,-4.0,1.0,-2.0,-2.0,0.0,1651071092109353.0,2
837,-5.0,-3.0,-1.0,-2.0,2.0,3.0,4.0,3.0,1651071092109353.0,2
838,4.0,2.0,3.0,13.0,2.0,-2.0,0.0,7.0,1651071092130477.0,2
839,-3.0,7.0,0.0,-8.0,-4.0,-2.0,0.0,-2.0,1651071092130477.0,2
840,7.0,7.0,0.0,-1.0,-5.0,-2.0,0.0,1.0,1651071092136503.0,2
841,1.0,3.0,-2.0,-2.0,0.0,0.0,2.0,0.0,1651071092136503.0,2
842,5.0,-1.0,-1.0,-1.0,-2.0,0.0,-3.0,2.0,1651071092144539.0,2
843,5.0,0.0,-4.0,4.0,2.0,0.0,-1.0,-3.0,1651071092144539.0,2
844,-11.0,-10.0,-5.0,-5.0,2.0,-1.0,-3.0,-4.0,1651071092153443.0,2
845,-1.0,5.0,5.0,-2.0,-6.0,-4.0,-2.0,-4.0,1651071092153443.0,2
846,-6.0,-1.0,1.0,-1.0,-3.0,0.0,2.0,9.0,1651071092167762.0,2
847,26.0,1.0,2.0,-1.0,-2.0,1.0,-2.0,-6.0,1651071092167762.0,2
848,-30.0,-1.0,-1.0,-3.0,6.0,2.0,2.0,-1.0,1651071092169717.0,2
849,-11.0,-5.0,-5.0,-9.0,-2.0,0.0,0.0,4.0,1651071092169717.0,2
850,2.0,-1.0,1.0,16.0,-3.0,-1.0,-1.0,1.0,1651071092190871.0,2
851,4.0,0.0,5.0,5.0,3.0,0.0,-2.0,-4.0,1651071092190871.0,2
852,9.0,-1.0,-1.0,-3.0,-3.0,-4.0,-3.0,-4.0,1651071092191641.0,2
853,-2.0,-6.0,-2.0,1.0,-1.0,2.0,0.0,2.0,1651071092191641.0,2
854,-5.0,-4.0,-6.0,-17.0,2.0,2.0,2.0,10.0,1651071092204646.0,2
855,5.0,7.0,-1.0,1.0,1.0,-2.0,1.0,2.0,1651071092204646.0,2
856,10.0,9.0,7.0,15.0,0.0,-3.0,3.0,8.0,1651071092212724.0,2
857,-6.0,-3.0,0.0,-3.0,-8.0,-2.0,-2.0,-8.0,1651071092212724.0,2
858,1.0,-3.0,-4.0,-7.0,-8.0,-4.0,-4.0,-6.0,1651071092227646.0,2
859,-7.0,-3.0,-6.0,-9.0,-2.0,0.0,-1.0,0.0,1651071092227646.0,2
860,3.0,-7.0,2.0,13.0,2.0,-1.0,-2.0,-12.0,1651071092229571.0,2
861,4.0,15.0,-4.0,3.0,5.0,2.0,3.0,8.0,1651071092229571.0,2
862,8.0,1.0,6.0,7.0,5.0,-1.0,3.0,4.0,1651071092250896.0,2
863,-4.0,-4.0,-3.0,-10.0,-4.0,0.0,-2.0,-2.0,1651071092250896.0,2
864,-5.0,2.0,-6.0,-9.0,-3.0,1.0,-1.0,-4.0,1651071092251642.0,2
865,4.0,-3.0,5.0,8.0,0.0,0.0,-1.0,-4.0,1651071092251642.0,2
866,-4.0,-5.0,-2.0,1.0,-3.0,-2.0,-2.0,1.0,1651071092263680.0,2
867,1.0,-5.0,1.0,7.0,-2.0,-1.0,-1.0,-7.0,1651071092263680.0,2
868,-25.0,1.0,-1.0,-6.0,0.0,1.0,0.0,0.0,1651071092272761.0,2
869,5.0,-4.0,-2.0,2.0,2.0,-1.0,0.0,5.0,1651071092272761.0,2
870,-1.0,2.0,-5.0,-4.0,-1.0,0.0,4.0,5.0,1651071092287939.0,2
871,0.0,-2.0,2.0,-6.0,-6.0,-3.0,-3.0,-12.0,1651071092287939.0,2
872,15.0,-6.0,-1.0,3.0,12.0,5.0,0.0,8.0,1651071092289867.0,2
873,-2.0,-7.0,-1.0,0.0,-3.0,0.0,-2.0,-1.0,1651071092289867.0,2
874,-26.0,-9.0,-4.0,-4.0,-1.0,0.0,-2.0,-5.0,1651071092310962.0,2
875,4.0,2.0,-3.0,-1.0,1.0,0.0,2.0,6.0,1651071092310962.0,2
876,2.0,-1.0,2.0,-1.0,-3.0,-1.0,-1.0,-8.0,1651071092311959.0,2
877,-2.0,1.0,1.0,1.0,-1.0,-2.0,-3.0,-3.0,1651071092311959.0,2
878,14.0,-7.0,-2.0,-1.0,0.0,0.0,0.0,8.0,1651071092332607.0,2
879,-12.0,6.0,1.0,2.0,2.0,3.0,1.0,0.0,1651071092332607.0,2
880,0.0,-1.0,-3.0,-6.0,-8.0,-3.0,-3.0,-3.0,1651071092334576.0,2
881,15.0,8.0,0.0,7.0,5.0,1.0,2.0,0.0,1651071092334576.0,2
882,-5.0,-2.0,6.0,20.0,0.0,-1.0,1.0,-1.0,1651071092348412.0,2
883,0.0,-2.0,6.0,-2.0,1.0,-1.0,-1.0,2.0,1651071092348412.0,2
884,6.0,0.0,0.0,0.0,-2.0,1.0,2.0,1.0,1651071092349381.0,2
885,-5.0,5.0,-4.0,-10.0,-4.0,-2.0,1.0,-4.0,1651071092349381.0,2
886,-4.0,-3.0,-4.0,-13.0,-2.0,-2.0,2.0,-2.0,1651071092370896.0,2
887,5.0,-4.0,-2.0,2.0,3.0,0.0,0.0,-1.0,1651071092370896.0,2
888,-18.0,8.0,1.0,-2.0,-2.0,0.0,-3.0,-1.0,1651071092371643.0,2
889,3.0,-2.0,0.0,-1.0,-6.0,-2.0,-2.0,3.0,1651071092371643.0,2
890,-7.0,-2.0,-1.0,-2.0,1.0,-5.0,-4.0,-18.0,1651071092383624.0,2
891,0.0,-7.0,-5.0,-2.0,1.0,1.0,2.0,12.0,1651071092383624.0,2
892,5.0,3.0,1.0,-9.0,-1.0,2.0,2.0,3.0,1651071092393445.0,2
893,2.0,-2.0,-1.0,10.0,0.0,-3.0,0.0,-1.0,1651071092393445.0,2
894,-8.0,-5.0,-1.0,1.0,5.0,7.0,-1.0,-2.0,1651071092407503.0,2
895,0.0,6.0,2.0,1.0,1.0,-4.0,-1.0,-9.0,1651071092407503.0,2
896,11.0,-3.0,2.0,4.0,-2.0,-3.0,-1.0,6.0,1651071092415386.0,2
897,-5.0,-5.0,0.0,-3.0,-5.0,0.0,-1.0,-3.0,1651071092415386.0,2
898,-1.0,2.0,-2.0,-17.0,-6.0,-2.0,-2.0,1.0,1651071092430871.0,2
899,6.0,5.0,-1.0,9.0,2.0,-1.0,1.0,0.0,1651071092430871.0,2
900,2.0,-6.0,-4.0,-3.0,-2.0,3.0,0.0,3.0,1651071092432361.0,2
901,7.0,4.0,-1.0,-1.0,-1.0,-1.0,2.0,-5.0,1651071092432361.0,2
902,2.0,-2.0,-1.0,0.0,3.0,0.0,-1.0,1.0,1651071092444395.0,2
903,-4.0,-5.0,-2.0,-7.0,0.0,1.0,0.0,3.0,1651071092444395.0,2
904,-1.0,9.0,-2.0,-1.0,-1.0,-4.0,-1.0,0.0,1651071092453304.0,2
905,-4.0,-8.0,0.0,-5.0,0.0,-3.0,-3.0,-5.0,1651071092453304.0,2
906,2.0,9.0,2.0,0.0,1.0,4.0,0.0,3.0,1651071092468450.0,2
907,0.0,-8.0,4.0,5.0,-1.0,-1.0,-3.0,-9.0,1651071092468450.0,2
908,16.0,5.0,0.0,10.0,9.0,3.0,4.0,16.0,1651071092469385.0,2
909,-18.0,-7.0,1.0,-1.0,1.0,0.0,-2.0,-7.0,1651071092469385.0,2
910,-1.0,9.0,-2.0,-1.0,-8.0,-4.0,-3.0,-3.0,1651071092497850.0,2
911,8.0,-5.0,-3.0,-7.0,-6.0,-1.0,2.0,12.0,1651071092497850.0,2
912,-9.0,5.0,-7.0,-6.0,-2.0,-3.0,-3.0,-9.0,1651071092499776.0,2
913,2.0,2.0,-1.0,0.0,1.0,0.0,0.0,6.0,1651071092499776.0,2
914,5.0,3.0,3.0,4.0,-2.0,-1.0,0.0,-9.0,1651071092503793.0,2
915,-11.0,2.0,-4.0,-3.0,-1.0,-2.0,-3.0,-6.0,1651071092503793.0,2
916,4.0,0.0,6.0,0.0,2.0,1.0,2.0,3.0,1651071092512788.0,2
917,0.0,-8.0,-1.0,1.0,1.0,0.0,0.0,0.0,1651071092512788.0,2
918,-1.0,-1.0,-1.0,0.0,-5.0,-4.0,-1.0,0.0,1651071092527374.0,2
919,2.0,10.0,2.0,0.0,-1.0,1.0,-1.0,-1.0,1651071092527374.0,2
920,-3.0,-10.0,-1.0,-5.0,-2.0,-1.0,-2.0,0.0,1651071092534497.0,2
921,-5.0,8.0,1.0,0.0,-1.0,1.0,-1.0,-6.0,1651071092534497.0,2
922,11.0,1.0,-1.0,3.0,-7.0,-1.0,-3.0,-6.0,1651071092550846.0,2
923,-1.0,-3.0,-5.0,-1.0,7.0,0.0,2.0,4.0,1651071092550846.0,2
924,1.0,4.0,0.0,0.0,1.0,0.0,1.0,0.0,1651071092552436.0,2
925,4.0,-10.0,1.0,1.0,4.0,3.0,-1.0,0.0,1651071092552436.0,2
926,5.0,-1.0,1.0,-1.0,-2.0,-2.0,0.0,4.0,1651071092573430.0,2
927,-11.0,1.0,0.0,1.0,-6.0,-1.0,-4.0,-18.0,1651071092573430.0,2
928,-3.0,-9.0,-3.0,-11.0,-4.0,1.0,-3.0,-2.0,1651071092574441.0,2
929,0.0,3.0,0.0,5.0,2.0,0.0,4.0,4.0,1651071092574441.0,2
930,8.0,5.0,1.0,1.0,1.0,2.0,1.0,21.0,1651071092588404.0,2
931,-4.0,0.0,1.0,1.0,0.0,-2.0,0.0,-2.0,1651071092588404.0,2
932,-1.0,-10.0,0.0,1.0,-1.0,-4.0,-5.0,-11.0,1651071092589350.0,2
933,-16.0,-6.0,-4.0,-6.0,-1.0,4.0,2.0,0.0,1651071092589350.0,2
934,-4.0,0.0,3.0,-1.0,0.0,-1.0,-5.0,-8.0,1651071092611447.0,2
935,1.0,-3.0,-1.0,-2.0,-3.0,-2.0,1.0,4.0,1651071092611447.0,2
936,-2.0,3.0,1.0,1.0,-5.0,-2.0,-1.0,-2.0,1651071092612395.0,2
937,4.0,-4.0,-3.0,-5.0,-5.0,-3.0,-1.0,0.0,1651071092612395.0,2
938,-6.0,-2.0,-1.0,4.0,8.0,5.0,0.0,-3.0,1651071092633371.0,2
939,6.0,-3.0,-2.0,-2.0,-6.0,-2.0,-3.0,-4.0,1651071092633371.0,2
940,-6.0,0.0,2.0,2.0,-1.0,-2.0,0.0,-3.0,1651071092634617.0,2
941,7.0,-1.0,2.0,2.0,4.0,2.0,2.0,7.0,1651071092634617.0,2
942,1.0,3.0,0.0,-5.0,-3.0,-1.0,0.0,-2.0,1651071092647650.0,2
943,-1.0,-6.0,0.0,-1.0,-1.0,0.0,0.0,2.0,1651071092647650.0,2
944,4.0,10.0,-3.0,-2.0,-10.0,-5.0,-2.0,-3.0,1651071092649577.0,2
945,0.0,-2.0,3.0,9.0,10.0,2.0,-4.0,-3.0,1651071092649577.0,2
946,-1.0,-1.0,-3.0,-4.0,-4.0,-6.0,-2.0,1.0,1651071092670497.0,2
947,-5.0,5.0,-1.0,-2.0,2.0,2.0,2.0,0.0,1651071092670497.0,2
948,5.0,4.0,3.0,2.0,2.0,3.0,2.0,-4.0,1651071092672425.0,2
949,3.0,4.0,-3.0,-2.0,-4.0,-2.0,-4.0,-5.0,1651071092672425.0,2
950,-2.0,-4.0,-2.0,-1.0,4.0,1.0,4.0,22.0,1651071092692727.0,2
951,-1.0,-5.0,-2.0,0.0,-11.0,-3.0,0.0,-1.0,1651071092692727.0,2
952,-3.0,-3.0,0.0,1.0,7.0,0.0,-2.0,1.0,1651071092694655.0,2
953,1.0,2.0,0.0,-1.0,2.0,3.0,1.0,-7.0,1651071092694655.0,2
954,0.0,-6.0,-2.0,3.0,-1.0,-4.0,-1.0,-7.0,1651071092707687.0,2
955,4.0,5.0,-2.0,-2.0,-2.0,-2.0,-2.0,1.0,1651071092707687.0,2
956,-3.0,-5.0,-2.0,-1.0,-4.0,2.0,3.0,-1.0,1651071092709614.0,2
957,0.0,1.0,-2.0,-3.0,0.0,-2.0,-4.0,-7.0,1651071092709614.0,2
958,-2.0,-2.0,-4.0,-3.0,-5.0,-1.0,0.0,3.0,1651071092730896.0,2
959,-1.0,2.0,1.0,1.0,5.0,-2.0,0.0,1.0,1651071092730896.0,2
960,-4.0,-3.0,-1.0,0.0,-3.0,-4.0,-2.0,0.0,1651071092731614.0,2
961,1.0,1.0,0.0,-1.0,-5.0,1.0,-2.0,-3.0,1651071092731614.0,2
962,-6.0,-3.0,-2.0,-2.0,3.0,1.0,1.0,-5.0,1651071092753373.0,2
963,1.0,0.0,-1.0,2.0,7.0,5.0,0.0,11.0,1651071092753373.0,2
964,3.0,-2.0,0.0,1.0,2.0,0.0,2.0,7.0,1651071092754374.0,2
965,-1.0,0.0,-4.0,-2.0,-7.0,-6.0,-2.0,5.0,1651071092754374.0,2
966,1.0,0.0,-1.0,-2.0,-6.0,-2.0,-3.0,-12.0,1651071092767453.0,2
967,-3.0,-1.0,3.0,-3.0,-3.0,-2.0,-3.0,-3.0,1651071092767453.0,2
968,-3.0,-5.0,-2.0,-3.0,-4.0,-5.0,-3.0,1.0,1651071092774545.0,2
969,1.0,-1.0,0.0,1.0,-2.0,-6.0,3.0,9.0,1651071092774545.0,2
970,-2.0,-2.0,1.0,2.0,3.0,10.0,1.0,-1.0,1651071092790472.0,2
971,-2.0,-1.0,-1.0,0.0,-5.0,-2.0,0.0,-1.0,1651071092790472.0,2
972,-1.0,1.0,0.0,4.0,11.0,6.0,-1.0,-1.0,1651071092792399.0,2
973,-1.0,1.0,3.0,1.0,-2.0,1.0,0.0,-9.0,1651071092792399.0,2
974,-1.0,-3.0,0.0,-2.0,-8.0,-7.0,-4.0,2.0,1651071092813370.0,2
975,0.0,-1.0,-8.0,-10.0,1.0,1.0,1.0,-1.0,1651071092813370.0,2
976,-2.0,-1.0,-4.0,-3.0,-4.0,1.0,0.0,-4.0,1651071092814594.0,2
977,-1.0,-1.0,-2.0,-1.0,-5.0,-4.0,-2.0,1.0,1651071092814594.0,2
978,-1.0,-1.0,2.0,3.0,-7.0,-4.0,1.0,3.0,1651071092827573.0,2
979,-2.0,1.0,2.0,1.0,1.0,0.0,1.0,-5.0,1651071092827573.0,2
980,0.0,-1.0,2.0,6.0,19.0,8.0,0.0,0.0,1651071092833556.0,2
981,1.0,2.0,4.0,11.0,6.0,2.0,2.0,4.0,1651071092833556.0,2
982,0.0,-1.0,-8.0,-13.0,-3.0,-1.0,-1.0,1.0,1651071092850662.0,2
983,-2.0,-2.0,-4.0,-5.0,-10.0,-5.0,-2.0,-3.0,1651071092850662.0,2
984,-2.0,-2.0,-6.0,-10.0,-9.0,-2.0,-3.0,-3.0,1651071092851615.0,2
985,0.0,-1.0,1.0,-3.0,-8.0,-3.0,-1.0,3.0,1651071092851615.0,2
986,-1.0,1.0,4.0,7.0,9.0,0.0,0.0,-4.0,1651071092873499.0,2
987,1.0,2.0,2.0,11.0,9.0,9.0,3.0,2.0,1651071092873499.0,2
988,-1.0,0.0,-6.0,-5.0,-4.0,-4.0,0.0,-2.0,1651071092874458.0,2
989,2.0,1.0,-1.0,-1.0,-4.0,-4.0,-1.0,3.0,1651071092874458.0,2
990,-1.0,0.0,1.0,1.0,-3.0,-1.0,0.0,-4.0,1651071092887476.0,2
991,-1.0,1.0,7.0,16.0,13.0,1.0,0.0,1.0,1651071092887476.0,2
992,-2.0,-1.0,-2.0,-7.0,-7.0,1.0,2.0,2.0,1651071092894392.0,2
993,-1.0,-1.0,-11.0,-14.0,-3.0,-6.0,0.0,-1.0,1651071092894392.0,2
994,-2.0,0.0,-2.0,-3.0,-3.0,3.0,0.0,-2.0,1651071092910447.0,2
995,-1.0,-1.0,0.0,-2.0,-2.0,-1.0,-1.0,0.0,1651071092910447.0,2
996,1.0,0.0,5.0,9.0,0.0,-2.0,-1.0,0.0,1651071092912471.0,2
997,0.0,-1.0,1.0,3.0,-1.0,-1.0,-2.0,-2.0,1651071092912471.0,2
998,0.0,0.0,0.0,2.0,3.0,-2.0,0.0,-1.0,1651071092932754.0,2
999,1.0,2.0,3.0,3.0,-2.0,1.0,2.0,0.0,1651071092932754.0,2
1000,-1.0,-1.0,-2.0,2.0,2.0,2.0,1.0,0.0,1651071092934740.0,2
1001,0.0,-2.0,-4.0,-8.0,1.0,2.0,-1.0,2.0,1651071092934740.0,2
1002,0.0,1.0,-1.0,-7.0,-3.0,-4.0,0.0,0.0,1651071092947771.0,2
1003,-1.0,-2.0,-10.0,-17.0,-4.0,-3.0,-2.0,0.0,1651071092947771.0,2
1004,-1.0,-3.0,4.0,6.0,-1.0,-5.0,-5.0,-4.0,1651071092953792.0,2
1005,-1.0,1.0,5.0,11.0,4.0,4.0,0.0,0.0,1651071092953792.0,2
1006,-1.0,0.0,5.0,2.0,-1.0,-1.0,0.0,-1.0,1651071092970866.0,2
1007,-1.0,1.0,2.0,4.0,-2.0,0.0,-1.0,-2.0,1651071092970866.0,2
1008,1.0,2.0,6.0,10.0,0.0,-3.0,-1.0,1.0,1651071092971806.0,2
1009,-1.0,-2.0,-11.0,-7.0,5.0,7.0,1.0,0.0,1651071092971806.0,2
1010,-1.0,0.0,-6.0,-5.0,1.0,-1.0,0.0,-1.0,1651071093000861.0,2
1011,0.0,-1.0,4.0,0.0,1.0,0.0,-1.0,1.0,1651071093000861.0,2
1012,0.0,-2.0,-3.0,-11.0,-7.0,-1.0,-3.0,0.0,1651071093001803.0,2
1013,0.0,-1.0,3.0,0.0,-1.0,2.0,-1.0,-2.0,1651071093001803.0,2
1014,1.0,0.0,-4.0,3.0,-3.0,-8.0,-1.0,-2.0,1651071093006805.0,2
1015,0.0,0.0,5.0,11.0,-1.0,4.0,3.0,1.0,1651071093006805.0,2
1016,1.0,2.0,8.0,21.0,16.0,11.0,3.0,0.0,1651071093014544.0,2
1017,0.0,2.0,7.0,15.0,3.0,2.0,2.0,1.0,1651071093014544.0,2
1018,-5.0,-9.0,-29.0,-51.0,-16.0,-10.0,-3.0,-4.0,1651071093030594.0,2
1019,-1.0,-3.0,-1.0,2.0,-4.0,-8.0,-5.0,-2.0,1651071093030594.0,2
1020,0.0,2.0,1.0,-5.0,-2.0,5.0,0.0,1.0,1651071093031594.0,2
1021,1.0,0.0,-3.0,-18.0,-3.0,-2.0,1.0,0.0,1651071093031594.0,2
1022,1.0,3.0,10.0,35.0,14.0,9.0,2.0,1.0,1651071093053003.0,2
1023,-1.0,1.0,0.0,-5.0,-2.0,-5.0,-2.0,-3.0,1651071093053003.0,2
1024,-1.0,0.0,7.0,23.0,2.0,1.0,0.0,0.0,1651071093055022.0,2
1025,0.0,1.0,7.0,14.0,-4.0,-3.0,-1.0,-2.0,1651071093055022.0,2
1026,1.0,-1.0,-6.0,-11.0,-7.0,-1.0,0.0,1.0,1651071093066968.0,2
1027,-2.0,-1.0,-5.0,-29.0,-4.0,2.0,1.0,0.0,1651071093066968.0,2
1028,0.0,2.0,-2.0,14.0,1.0,-2.0,0.0,-1.0,1651071093075945.0,2
1029,-4.0,-5.0,-13.0,-16.0,-8.0,-5.0,-3.0,-3.0,1651071093075945.0,2
1030,1.0,0.0,6.0,10.0,3.0,4.0,0.0,1.0,1651071093090844.0,2
1031,1.0,1.0,-12.0,-24.0,3.0,4.0,2.0,1.0,1651071093090844.0,2
1032,-1.0,-1.0,13.0,20.0,-2.0,-6.0,0.0,-1.0,1651071093091989.0,2
1033,1.0,0.0,3.0,-6.0,-2.0,1.0,2.0,1.0,1651071093091989.0,2
1034,-4.0,-6.0,-17.0,-15.0,-6.0,-9.0,-5.0,-3.0,1651071093113369.0,2
1035,4.0,2.0,7.0,-1.0,4.0,6.0,1.0,1.0,1651071093113369.0,2
1036,-3.0,-4.0,-3.0,0.0,-8.0,-3.0,-1.0,-2.0,1651071093114204.0,2
1037,-1.0,2.0,2.0,-3.0,2.0,4.0,0.0,1.0,1651071093114204.0,2
1038,2.0,4.0,12.0,11.0,13.0,15.0,3.0,1.0,1651071093126283.0,2
1039,-3.0,-4.0,-7.0,-3.0,-12.0,-5.0,-1.0,-1.0,1651071093126283.0,2
1040,-1.0,0.0,-6.0,-10.0,-2.0,-8.0,-1.0,-2.0,1651071093135285.0,2
1041,0.0,0.0,-1.0,-3.0,2.0,2.0,0.0,-1.0,1651071093135285.0,2
1042,-1.0,0.0,3.0,3.0,-2.0,-1.0,1.0,-1.0,1651071093150355.0,2
1043,0.0,0.0,-1.0,15.0,1.0,-2.0,-3.0,-2.0,1651071093150355.0,2
1044,0.0,-2.0,-12.0,-37.0,-9.0,4.0,1.0,-2.0,1651071093152356.0,2
1045,-1.0,-1.0,2.0,24.0,7.0,-6.0,-1.0,-2.0,1651071093152356.0,2
1046,0.0,1.0,10.0,16.0,6.0,2.0,2.0,0.0,1651071093173363.0,2
1047,-2.0,-1.0,3.0,16.0,-2.0,-6.0,-3.0,-1.0,1651071093173363.0,2
1048,-1.0,0.0,-9.0,-23.0,-5.0,-2.0,-1.0,0.0,1651071093174294.0,2
1049,-2.0,0.0,-4.0,-11.0,0.0,2.0,1.0,-1.0,1651071093174294.0,2
1050,0.0,1.0,10.0,16.0,1.0,-2.0,-1.0,0.0,1651071093186265.0,2
1051,0.0,-3.0,-3.0,-5.0,-1.0,-3.0,-1.0,-2.0,1651071093186265.0,2
1052,-3.0,-2.0,-7.0,-11.0,-5.0,3.0,-2.0,-2.0,1651071093195206.0,2
1053,1.0,0.0,-3.0,-9.0,1.0,-1.0,1.0,0.0,1651071093195206.0,2
1054,-1.0,-1.0,-10.0,-24.0,-9.0,-5.0,-1.0,-2.0,1651071093210873.0,2
1055,-2.0,-1.0,4.0,15.0,8.0,5.0,1.0,0.0,1651071093210873.0,2
1056,2.0,1.0,1.0,5.0,0.0,-1.0,0.0,1.0,1651071093211873.0,2
1057,1.0,-1.0,0.0,4.0,-2.0,0.0,-2.0,-1.0,1651071093211873.0,2
1058,2.0,0.0,3.0,16.0,3.0,1.0,0.0,-2.0,1651071093233359.0,2
1059,0.0,-4.0,-3.0,-19.0,-7.0,-5.0,-2.0,0.0,1651071093233359.0,2
1060,-1.0,-1.0,1.0,1.0,2.0,-1.0,-1.0,-1.0,1651071093234363.0,2
1061,-3.0,-1.0,0.0,-1.0,-7.0,-3.0,-2.0,-1.0,1651071093234363.0,2
1062,-1.0,-1.0,-2.0,-8.0,0.0,-1.0,0.0,-1.0,1651071093255360.0,2
1063,1.0,0.0,2.0,-1.0,-2.0,2.0,2.0,1.0,1651071093255360.0,2
1064,1.0,0.0,4.0,9.0,6.0,4.0,1.0,-1.0,1651071093257384.0,2
1065,0.0,1.0,1.0,1.0,-10.0,-7.0,-2.0,-1.0,1651071093257384.0,2
1066,0.0,-3.0,-7.0,-2.0,1.0,0.0,-2.0,0.0,1651071093270864.0,2
1067,-1.0,-1.0,2.0,7.0,5.0,3.0,1.0,0.0,1651071093270864.0,2
1068,-1.0,-1.0,0.0,2.0,-4.0,-5.0,-2.0,1.0,1651071093272353.0,2
1069,1.0,-2.0,2.0,1.0,-2.0,-3.0,-1.0,-1.0,1651071093272353.0,2
1070,1.0,0.0,-1.0,-7.0,-7.0,-3.0,-1.0,0.0,1651071093293492.0,2
1071,0.0,0.0,-6.0,-5.0,4.0,1.0,-1.0,0.0,1651071093293492.0,2
1072,0.0,-2.0,-12.0,-17.0,-7.0,-5.0,0.0,0.0,1651071093294490.0,2
1073,0.0,-3.0,0.0,0.0,2.0,1.0,-1.0,1.0,1651071093294490.0,2
1074,-2.0,0.0,10.0,13.0,-2.0,0.0,-1.0,-1.0,1651071093306489.0,2
1075,1.0,1.0,2.0,1.0,10.0,0.0,-1.0,0.0,1651071093306489.0,2
1076,-2.0,0.0,6.0,19.0,20.0,8.0,2.0,0.0,1651071093315486.0,2
1077,0.0,0.0,-5.0,-5.0,-6.0,-3.0,-1.0,-1.0,1651071093315486.0,2
1078,-1.0,1.0,5.0,5.0,3.0,1.0,1.0,1.0,1651071093330425.0,2
1079,-1.0,0.0,-4.0,-2.0,-6.0,0.0,1.0,-3.0,1651071093330425.0,2
1080,1.0,1.0,2.0,2.0,-7.0,-6.0,-2.0,-1.0,1651071093332378.0,2
1081,-1.0,0.0,-4.0,-12.0,6.0,2.0,0.0,1.0,1651071093332378.0,2
1082,1.0,0.0,-4.0,-17.0,-1.0,1.0,-2.0,2.0,1651071093352464.0,2
1083,-1.0,0.0,1.0,5.0,-2.0,-6.0,0.0,-1.0,1651071093352464.0,2
1084,1.0,-1.0,-1.0,2.0,-2.0,-2.0,0.0,1.0,1651071093354390.0,2
1085,-1.0,1.0,1.0,5.0,2.0,3.0,1.0,1.0,1651071093354390.0,2
1086,-1.0,-1.0,-2.0,-4.0,-8.0,-5.0,0.0,0.0,1651071093366458.0,2
1087,0.0,-1.0,-3.0,3.0,6.0,0.0,-2.0,0.0,1651071093366458.0,2
1088,0.0,-2.0,-3.0,-13.0,-3.0,-1.0,0.0,-1.0,1651071093375533.0,2
1089,-2.0,-2.0,2.0,7.0,8.0,2.0,1.0,-1.0,1651071093375533.0,2
1090,-1.0,0.0,-4.0,6.0,1.0,2.0,-1.0,-3.0,1651071093390390.0,2
1091,-3.0,-1.0,-3.0,-5.0,-8.0,-2.0,0.0,-2.0,1651071093390390.0,2
1092,1.0,0.0,3.0,0.0,0.0,1.0,0.0,-2.0,1651071093392319.0,2
1093,0.0,-1.0,-4.0,-9.0,-9.0,-5.0,-2.0,-3.0,1651071093392319.0,2
1094,-1.0,-2.0,2.0,9.0,13.0,5.0,0.0,1.0,1651071093413431.0,2
1095,2.0,0.0,-6.0,-6.0,-2.0,1.0,-1.0,1.0,1651071093413431.0,2
1096,-1.0,0.0,-1.0,-14.0,0.0,0.0,-2.0,0.0,1651071093414432.0,2
1097,-2.0,0.0,3.0,18.0,0.0,3.0,-1.0,-1.0,1651071093414432.0,2
1098,0.0,-2.0,-4.0,-8.0,-5.0,-5.0,-1.0,-1.0,1651071093426541.0,2
1099,-1.0,-2.0,6.0,12.0,-3.0,-1.0,-1.0,-1.0,1651071093426541.0,2
1100,1.0,-2.0,-2.0,-14.0,-1.0,-1.0,-1.0,-2.0,1651071093443602.0,2
1101,1.0,2.0,-1.0,4.0,1.0,-2.0,-1.0,0.0,1651071093443602.0,2
1102,0.0,1.0,3.0,7.0,1.0,0.0,-1.0,0.0,1651071093450844.0,2
1103,1.0,1.0,-2.0,-2.0,-3.0,-1.0,-1.0,-2.0,1651071093450844.0,2
1104,-3.0,-2.0,-4.0,-4.0,-6.0,-4.0,-2.0,0.0,1651071093451614.0,2
1105,-2.0,-2.0,3.0,6.0,12.0,2.0,2.0,0.0,1651071093451614.0,2
1106,0.0,0.0,3.0,13.0,4.0,5.0,2.0,1.0,1651071093473429.0,2
1107,-1.0,-2.0,-17.0,-32.0,7.0,8.0,2.0,0.0,1651071093473429.0,2
1108,-1.0,-1.0,8.0,26.0,-3.0,-3.0,-1.0,-2.0,1651071093474429.0,2
1109,0.0,-3.0,-10.0,-20.0,-12.0,-5.0,-4.0,-1.0,1651071093474429.0,2
1110,-1.0,-4.0,0.0,-3.0,-1.0,-3.0,-1.0,-1.0,1651071093486423.0,2
1111,0.0,-1.0,7.0,6.0,-4.0,-2.0,-1.0,0.0,1651071093486423.0,2
1112,0.0,0.0,-6.0,-11.0,-1.0,0.0,-1.0,-1.0,1651071093495432.0,2
1113,0.0,0.0,-1.0,4.0,-2.0,0.0,-1.0,-2.0,1651071093495432.0,2
1114,-1.0,0.0,0.0,-5.0,-13.0,-4.0,-2.0,-2.0,1651071093510325.0,2
1115,-1.0,1.0,4.0,7.0,2.0,-4.0,-3.0,-2.0,1651071093510325.0,2
1116,-3.0,-1.0,-2.0,8.0,17.0,7.0,2.0,0.0,1651071093512272.0,2
1117,0.0,1.0,3.0,0.0,-3.0,-2.0,2.0,2.0,1651071093512272.0,2
1118,-1.0,-2.0,0.0,-6.0,-5.0,-8.0,0.0,0.0,1651071093532751.0,2
1119,2.0,1.0,1.0,1.0,-6.0,8.0,-1.0,-1.0,1651071093532751.0,2
1120,-1.0,0.0,-3.0,-10.0,0.0,-2.0,-2.0,-1.0,1651071093534680.0,2
1121,-1.0,0.0,2.0,9.0,2.0,1.0,-2.0,-1.0,1651071093534680.0,2
1122,-1.0,-1.0,-2.0,-6.0,-3.0,1.0,0.0,-2.0,1651071093562605.0,2
1123,-3.0,-3.0,-4.0,0.0,-4.0,-7.0,-1.0,-2.0,1651071093562605.0,2
1124,0.0,0.0,2.0,8.0,0.0,-2.0,-2.0,-1.0,1651071093564600.0,2
1125,-1.0,-1.0,-3.0,-10.0,-1.0,4.0,0.0,-2.0,1651071093564600.0,2
1126,-1.0,0.0,-4.0,-2.0,1.0,-1.0,-1.0,1.0,1651071093570611.0,2
1127,0.0,1.0,5.0,12.0,-3.0,-7.0,0.0,0.0,1651071093570611.0,2
1128,0.0,1.0,-7.0,-11.0,-5.0,-5.0,-1.0,3.0,1651071093571607.0,2
1129,-2.0,-1.0,1.0,4.0,6.0,7.0,-2.0,0.0,1651071093571607.0,2
1130,1.0,1.0,1.0,2.0,10.0,5.0,0.0,0.0,1651071093593427.0,2
1131,1.0,0.0,3.0,-5.0,3.0,0.0,1.0,1.0,1651071093593427.0,2
1132,0.0,-2.0,1.0,6.0,-14.0,-7.0,0.0,-3.0,1651071093594428.0,2
1133,2.0,0.0,0.0,-1.0,6.0,-3.0,-1.0,0.0,1651071093594428.0,2
1134,-3.0,-2.0,0.0,1.0,-2.0,0.0,-1.0,-3.0,1651071093615515.0,2
1135,-2.0,-1.0,-8.0,-6.0,-5.0,-1.0,-3.0,0.0,1651071093615515.0,2
1136,-1.0,0.0,2.0,-1.0,-7.0,-4.0,-2.0,-1.0,1651071093617534.0,2
1137,-2.0,1.0,-1.0,-2.0,1.0,-1.0,0.0,1.0,1651071093617534.0,2
1138,0.0,-3.0,-3.0,-2.0,6.0,4.0,-1.0,0.0,1651071093631512.0,2
1139,-1.0,2.0,4.0,13.0,1.0,-2.0,2.0,0.0,1651071093631512.0,2
1140,0.0,-2.0,-1.0,-19.0,-4.0,1.0,1.0,-1.0,1651071093632450.0,2
1141,0.0,0.0,-4.0,4.0,-3.0,-1.0,1.0,-1.0,1651071093632450.0,2
1142,1.0,2.0,0.0,0.0,-3.0,-2.0,-2.0,-1.0,1651071093652603.0,2
1143,-1.0,0.0,2.0,2.0,-2.0,-2.0,-1.0,-2.0,1651071093652603.0,2
1144,0.0,0.0,-1.0,-2.0,6.0,6.0,1.0,-1.0,1651071093654514.0,2
1145,0.0,0.0,-3.0,-10.0,-6.0,-4.0,-2.0,-1.0,1651071093654514.0,2
1146,0.0,1.0,-1.0,-2.0,-3.0,-6.0,-2.0,0.0,1651071093675366.0,2
1147,-2.0,-2.0,-2.0,-3.0,-7.0,1.0,-2.0,0.0,1651071093675366.0,2
1148,0.0,-2.0,-3.0,-7.0,2.0,3.0,0.0,0.0,1651071093677390.0,2
1149,-1.0,-1.0,2.0,8.0,4.0,1.0,0.0,1.0,1651071093677390.0,2
1150,-3.0,-1.0,1.0,8.0,-2.0,-1.0,0.0,-1.0,1651071093689444.0,2
1151,-2.0,-2.0,-2.0,-4.0,3.0,-1.0,-2.0,-2.0,1651071093689444.0,2
1152,0.0,0.0,-3.0,0.0,-6.0,-1.0,-1.0,-1.0,1651071093696408.0,2
1153,0.0,0.0,-1.0,-15.0,-8.0,-10.0,-1.0,-2.0,1651071093696408.0,2
1154,0.0,2.0,1.0,6.0,-1.0,8.0,0.0,0.0,1651071093720780.0,2
1155,-1.0,-1.0,-2.0,1.0,1.0,-3.0,0.0,0.0,1651071093720780.0,2
1156,-3.0,-1.0,-2.0,-1.0,3.0,2.0,0.0,1.0,1651071093721781.0,2
1157,0.0,-2.0,-2.0,-4.0,-3.0,2.0,0.0,0.0,1651071093721781.0,2
1158,-1.0,-1.0,6.0,11.0,-6.0,-6.0,-3.0,-1.0,1651071093735745.0,2
1159,0.0,-1.0,-2.0,-7.0,3.0,0.0,0.0,0.0,1651071093735745.0,2
1160,1.0,0.0,-2.0,8.0,3.0,2.0,0.0,0.0,1651071093736740.0,2
1161,0.0,-2.0,1.0,-5.0,-3.0,-2.0,0.0,-1.0,1651071093736740.0,2
1162,1.0,0.0,-3.0,-6.0,-6.0,-3.0,0.0,-2.0,1651071093749777.0,2
1163,-3.0,-1.0,-1.0,3.0,-1.0,1.0,-1.0,-1.0,1651071093749777.0,2
1164,1.0,0.0,0.0,-4.0,1.0,0.0,1.0,1.0,1651071093756754.0,2
1165,-1.0,0.0,-5.0,1.0,1.0,1.0,1.0,-1.0,1651071093756754.0,2
1166,-1.0,0.0,-2.0,-2.0,0.0,0.0,1.0,0.0,1651071093772834.0,2
1167,0.0,0.0,-2.0,-5.0,-1.0,1.0,-1.0,-1.0,1651071093772834.0,2
1168,1.0,-1.0,-4.0,-3.0,-2.0,-2.0,-1.0,-2.0,1651071093774791.0,2
1169,-1.0,1.0,1.0,0.0,-1.0,1.0,-2.0,-1.0,1651071093774791.0,2
1170,1.0,0.0,-1.0,-4.0,2.0,1.0,0.0,1.0,1651071093795355.0,2
1171,-1.0,0.0,2.0,3.0,-2.0,-3.0,-2.0,0.0,1651071093795355.0,2
1172,-2.0,1.0,1.0,1.0,-4.0,-3.0,-3.0,0.0,1651071093797382.0,2
1173,0.0,0.0,0.0,0.0,1.0,0.0,-2.0,0.0,1651071093797382.0,2
1174,0.0,-2.0,-2.0,-5.0,2.0,4.0,1.0,1.0,1651071093810255.0,2
1175,-1.0,-1.0,0.0,1.0,2.0,1.0,-1.0,0.0,1651071093810255.0,2
1176,-2.0,0.0,3.0,4.0,1.0,0.0,0.0,-1.0,1651071093816249.0,2
1177,-1.0,-1.0,0.0,7.0,-3.0,-3.0,-1.0,-1.0,1651071093816249.0,2
1178,0.0,0.0,-5.0,-8.0,2.0,-1.0,-2.0,1.0,1651071093833447.0,2
1179,1.0,-1.0,-1.0,-2.0,-4.0,-1.0,-1.0,0.0,1651071093833447.0,2
1180,-2.0,-1.0,3.0,3.0,-4.0,-2.0,-2.0,0.0,1651071093834456.0,2
1181,-2.0,-1.0,-1.0,-1.0,0.0,0.0,-1.0,-1.0,1651071093834456.0,2
1182,1.0,1.0,-1.0,-3.0,-10.0,-12.0,0.0,0.0,1651071093855454.0,2
1183,2.0,1.0,4.0,8.0,16.0,12.0,4.0,0.0,1651071093855454.0,2
1184,0.0,-2.0,-4.0,0.0,17.0,8.0,2.0,1.0,1651071093857415.0,2
1185,-2.0,-1.0,1.0,1.0,-4.0,1.0,1.0,1.0,1651071093857415.0,2
1186,-2.0,-2.0,-1.0,-2.0,0.0,0.0,1.0,-2.0,1651071093869351.0,2
1187,0.0,1.0,-2.0,-3.0,-11.0,-9.0,-3.0,-1.0,1651071093869351.0,2
1188,1.0,0.0,-1.0,-2.0,-5.0,-14.0,-1.0,-2.0,1651071093876399.0,2
1189,-1.0,2.0,-1.0,-1.0,1.0,13.0,0.0,1.0,1651071093876399.0,2
1190,-3.0,0.0,0.0,3.0,3.0,-2.0,0.0,-1.0,1651071093893453.0,2
1191,1.0,0.0,0.0,3.0,-2.0,-4.0,-1.0,-2.0,1651071093893453.0,2
1192,-2.0,-1.0,2.0,7.0,0.0,2.0,1.0,-2.0,1651071093894426.0,2
1193,-1.0,0.0,-6.0,-11.0,1.0,-3.0,0.0,-1.0,1651071093894426.0,2
1194,-1.0,-1.0,1.0,-4.0,1.0,-1.0,-1.0,-1.0,1651071093915143.0,2
1195,-1.0,0.0,1.0,5.0,-2.0,-1.0,0.0,1.0,1651071093915143.0,2
1196,-1.0,0.0,1.0,1.0,1.0,0.0,1.0,-1.0,1651071093917141.0,2
1197,-1.0,-2.0,-3.0,0.0,3.0,-1.0,2.0,-1.0,1651071093917141.0,2
1198,0.0,0.0,-2.0,-3.0,0.0,2.0,0.0,1.0,1651071093930186.0,2
1199,-2.0,-1.0,-2.0,1.0,0.0,-1.0,0.0,0.0,1651071093930186.0,2
1200,1.0,1.0,1.0,-2.0,-6.0,0.0,-3.0,0.0,1651071093936186.0,2
1201,1.0,1.0,0.0,-4.0,0.0,0.0,-1.0,0.0,1651071093936186.0,2
1202,-1.0,1.0,3.0,12.0,8.0,3.0,-1.0,0.0,1651071093953296.0,2
1203,-2.0,0.0,-1.0,-10.0,-8.0,-3.0,-2.0,-1.0,1651071093953296.0,2
1204,-1.0,0.0,1.0,5.0,-3.0,-2.0,-1.0,-1.0,1651071093954264.0,2
1205,-1.0,-1.0,0.0,-3.0,4.0,0.0,-1.0,-1.0,1651071093954264.0,2
1206,0.0,0.0,-3.0,-4.0,-5.0,-1.0,-1.0,1.0,1651071093975557.0,2
1207,0.0,0.0,-3.0,-6.0,-1.0,0.0,-1.0,-1.0,1651071093975557.0,2
1208,-3.0,0.0,5.0,16.0,6.0,4.0,0.0,2.0,1651071093977558.0,2
1209,1.0,-1.0,1.0,2.0,-3.0,-7.0,-1.0,1.0,1651071093977558.0,2
1210,1.0,-2.0,0.0,0.0,3.0,7.0,1.0,-2.0,1651071093997757.0,2
1211,-2.0,0.0,0.0,0.0,7.0,3.0,-1.0,0.0,1651071093997757.0,2
1212,-1.0,-3.0,-5.0,-9.0,-5.0,-3.0,-1.0,0.0,1651071093999711.0,2
1213,-1.0,0.0,2.0,1.0,-5.0,-4.0,-2.0,-2.0,1651071093999711.0,2
1214,-1.0,-1.0,-2.0,-2.0,-5.0,-4.0,-1.0,-2.0,1651071094012683.0,2
1215,-1.0,-2.0,-2.0,-10.0,5.0,-9.0,-2.0,-2.0,1651071094012683.0,2
1216,0.0,0.0,-1.0,8.0,6.0,16.0,0.0,0.0,1651071094014705.0,2
1217,1.0,1.0,4.0,2.0,-7.0,-5.0,0.0,1.0,1651071094014705.0,2
1218,0.0,-1.0,-2.0,-3.0,-2.0,-3.0,0.0,0.0,1651071094035903.0,2
1219,2.0,1.0,3.0,4.0,0.0,6.0,3.0,0.0,1651071094035903.0,2
1220,-1.0,0.0,-2.0,-9.0,-3.0,-5.0,-2.0,-1.0,1651071094036972.0,2
1221,-2.0,-1.0,-4.0,1.0,-1.0,-3.0,-1.0,-3.0,1651071094036972.0,2
1222,0.0,-2.0,-1.0,-2.0,-1.0,1.0,-2.0,0.0,1651071094049554.0,2
1223,-2.0,-2.0,0.0,2.0,7.0,3.0,1.0,1.0,1651071094049554.0,2
1224,0.0,-1.0,0.0,1.0,0.0,-4.0,-1.0,0.0,1651071094058534.0,2
1225,-1.0,1.0,3.0,6.0,1.0,3.0,1.0,1.0,1651071094058534.0,2
1226,-3.0,1.0,-2.0,-2.0,5.0,-1.0,-1.0,-1.0,1651071094072522.0,2
1227,-1.0,0.0,2.0,3.0,-5.0,1.0,1.0,-1.0,1651071094072522.0,2
1228,-1.0,-2.0,-2.0,-8.0,-6.0,0.0,-1.0,-1.0,1651071094080473.0,2
1229,1.0,0.0,4.0,10.0,0.0,-2.0,-1.0,-2.0,1651071094080473.0,2
1230,-1.0,-1.0,-1.0,1.0,2.0,-1.0,-1.0,0.0,1651071094095363.0,2
1231,0.0,-1.0,-3.0,-5.0,1.0,1.0,1.0,0.0,1651071094095363.0,2
1232,1.0,-1.0,-1.0,5.0,2.0,-1.0,-2.0,-2.0,1651071094097388.0,2
1233,-1.0,-1.0,-3.0,-6.0,-3.0,-7.0,-3.0,-2.0,1651071094097388.0,2
1234,0.0,-2.0,0.0,2.0,2.0,1.0,0.0,0.0,1651071094109447.0,2
1235,0.0,0.0,0.0,1.0,0.0,8.0,3.0,1.0,1651071094109447.0,2
1236,0.0,-1.0,-1.0,-5.0,-3.0,-5.0,0.0,0.0,1651071094118427.0,2
1237,0.0,-2.0,-2.0,-5.0,0.0,1.0,0.0,-2.0,1651071094118427.0,2
1238,-1.0,0.0,-1.0,-1.0,-5.0,-6.0,0.0,0.0,1651071094132751.0,2
1239,-1.0,-2.0,2.0,-1.0,-5.0,1.0,-2.0,-1.0,1651071094132751.0,2
1240,0.0,0.0,4.0,12.0,7.0,0.0,-2.0,0.0,1651071094134676.0,2
1241,0.0,-1.0,-1.0,-2.0,-2.0,2.0,-1.0,0.0,1651071094134676.0,2
1242,0.0,-1.0,-2.0,-5.0,-5.0,-11.0,-2.0,0.0,1651071094155637.0,2
1243,-1.0,-1.0,-1.0,-6.0,-8.0,9.0,1.0,-1.0,1651071094155637.0,2
1244,0.0,0.0,-1.0,-3.0,-2.0,1.0,1.0,0.0,1651071094156617.0,2
1245,0.0,-1.0,-1.0,1.0,9.0,3.0,0.0,0.0,1651071094156617.0,2
1246,0.0,-2.0,1.0,-3.0,-4.0,-2.0,1.0,-1.0,1651071094169604.0,2
1247,-2.0,-2.0,0.0,5.0,-2.0,-9.0,-2.0,0.0,1651071094169604.0,2
1248,-1.0,0.0,-1.0,-6.0,-3.0,3.0,-1.0,-1.0,1651071094178355.0,2
1249,0.0,1.0,-1.0,-1.0,-3.0,2.0,0.0,0.0,1651071094178355.0,2
1250,2.0,1.0,-2.0,-1.0,3.0,5.0,0.0,-1.0,1651071094193474.0,2
1251,-1.0,1.0,0.0,0.0,-5.0,-9.0,-3.0,0.0,1651071094193474.0,2
1252,0.0,-2.0,-2.0,-2.0,2.0,1.0,0.0,1.0,1651071094194472.0,2
1253,-2.0,-1.0,1.0,9.0,0.0,-4.0,0.0,1.0,1651071094194472.0,2
1254,0.0,0.0,3.0,2.0,6.0,10.0,-1.0,0.0,1651071094215357.0,2
1255,0.0,-1.0,-3.0,-3.0,0.0,-4.0,-1.0,-2.0,1651071094215357.0,2
1256,-2.0,1.0,-4.0,-5.0,-4.0,-4.0,-1.0,0.0,1651071094217354.0,2
1257,0.0,-1.0,1.0,-1.0,-5.0,1.0,-2.0,-1.0,1651071094217354.0,2
1258,0.0,-1.0,-7.0,-6.0,-1.0,2.0,2.0,-1.0,1651071094229440.0,2
1259,0.0,0.0,1.0,1.0,2.0,-2.0,0.0,0.0,1651071094229440.0,2
1260,-3.0,-2.0,-1.0,-6.0,-1.0,-3.0,-3.0,-1.0,1651071094238359.0,2
1261,-1.0,0.0,1.0,1.0,-3.0,-8.0,0.0,-1.0,1651071094238359.0,2
1262,0.0,1.0,1.0,8.0,2.0,8.0,-2.0,0.0,1651071094252467.0,2
1263,1.0,1.0,-3.0,-17.0,-5.0,-1.0,1.0,0.0,1651071094252467.0,2
1264,0.0,0.0,7.0,27.0,5.0,0.0,0.0,-3.0,1651071094254467.0,2
1265,0.0,-1.0,-1.0,-3.0,10.0,5.0,-1.0,-1.0,1651071094254467.0,2
1266,2.0,-1.0,-1.0,0.0,-3.0,-2.0,0.0,-1.0,1651071094276454.0,2
1267,-1.0,-1.0,-3.0,0.0,-6.0,-4.0,-1.0,-1.0,1651071094276454.0,2
1268,0.0,0.0,-4.0,-8.0,2.0,2.0,0.0,0.0,1651071094277390.0,2
1269,0.0,-1.0,0.0,-3.0,-2.0,6.0,2.0,1.0,1651071094277390.0,2
1270,-2.0,0.0,1.0,2.0,-1.0,-3.0,1.0,1.0,1651071094289517.0,2
1271,0.0,-1.0,-2.0,-1.0,1.0,-2.0,0.0,-1.0,1651071094289517.0,2
1272,-2.0,-2.0,-2.0,-10.0,-8.0,-11.0,-3.0,-2.0,1651071094304548.0,2
1273,-1.0,-1.0,-2.0,-6.0,-6.0,9.0,-1.0,-1.0,1651071094304548.0,2
1274,-2.0,-2.0,5.0,9.0,5.0,0.0,-1.0,-1.0,1651071094312607.0,2
1275,0.0,-1.0,3.0,7.0,2.0,3.0,0.0,0.0,1651071094312607.0,2
1276,-1.0,-1.0,-2.0,-3.0,-5.0,-1.0,-2.0,0.0,1651071094314603.0,2
1277,0.0,-1.0,-4.0,-6.0,7.0,1.0,-1.0,-1.0,1651071094314603.0,2
1278,0.0,2.0,0.0,-3.0,-7.0,-6.0,0.0,-2.0,1651071094335693.0,2
1279,0.0,0.0,-2.0,1.0,-2.0,-2.0,-2.0,-2.0,1651071094335693.0,2
1280,1.0,-1.0,0.0,2.0,4.0,4.0,1.0,0.0,1651071094336694.0,2
1281,0.0,-2.0,-2.0,-3.0,-3.0,-1.0,-2.0,-1.0,1651071094336694.0,2
1282,-1.0,0.0,0.0,-1.0,-10.0,-8.0,0.0,1.0,1651071094349656.0,2
1283,0.0,0.0,3.0,3.0,6.0,2.0,-1.0,1.0,1651071094349656.0,2
1284,0.0,-1.0,-2.0,-2.0,7.0,5.0,4.0,1.0,1651071094357702.0,2
1285,0.0,0.0,2.0,7.0,6.0,1.0,1.0,0.0,1651071094357702.0,2
1286,-1.0,-1.0,-2.0,-4.0,3.0,-1.0,-1.0,-2.0,1651071094373367.0,2
1287,-1.0,-1.0,-1.0,-2.0,-10.0,-4.0,-1.0,-1.0,1651071094373367.0,2
1288,1.0,0.0,2.0,-5.0,-9.0,-4.0,-2.0,-1.0,1651071094374051.0,2
1289,-1.0,-1.0,2.0,0.0,4.0,0.0,0.0,0.0,1651071094374051.0,2
1290,0.0,-2.0,-4.0,-14.0,-1.0,-1.0,-2.0,-2.0,1651071094395159.0,2
1291,0.0,1.0,2.0,14.0,3.0,-3.0,0.0,-2.0,1651071094395159.0,2
1292,-2.0,-1.0,-1.0,-4.0,-3.0,1.0,1.0,-2.0,1651071094397177.0,2
1293,-2.0,1.0,-1.0,0.0,-4.0,-2.0,0.0,-2.0,1651071094397177.0,2
1294,0.0,0.0,0.0,-3.0,-3.0,0.0,-1.0,1.0,1651071094409235.0,2
1295,0.0,0.0,-3.0,-5.0,1.0,2.0,0.0,1.0,1651071094409235.0,2
1296,0.0,1.0,2.0,4.0,6.0,0.0,-1.0,-1.0,1651071094418214.0,2
1297,0.0,-1.0,0.0,-1.0,-7.0,-5.0,-1.0,-2.0,1651071094418214.0,2
1298,1.0,-1.0,1.0,2.0,1.0,6.0,0.0,0.0,1651071094433397.0,2
1299,1.0,-2.0,-6.0,-1.0,4.0,-4.0,-1.0,0.0,1651071094433397.0,2
1300,-1.0,-1.0,0.0,0.0,-3.0,2.0,-2.0,0.0,1651071094434348.0,2
1301,-1.0,1.0,-1.0,-4.0,-7.0,-4.0,-2.0,1.0,1651071094434348.0,2
1302,-2.0,-1.0,-3.0,-6.0,3.0,0.0,1.0,0.0,1651071094455361.0,2
1303,-2.0,1.0,8.0,16.0,-2.0,0.0,-1.0,-1.0,1651071094455361.0,2
1304,1.0,0.0,-1.0,-6.0,-4.0,-3.0,-2.0,-1.0,1651071094457358.0,2
1305,-1.0,-3.0,-2.0,-3.0,-1.0,-1.0,0.0,1.0,1651071094457358.0,2
1306,-1.0,-2.0,-3.0,-7.0,0.0,0.0,-1.0,-2.0,1651071094477612.0,2
1307,-1.0,-2.0,-3.0,4.0,-3.0,0.0,0.0,-1.0,1651071094477612.0,2
1308,-2.0,0.0,-2.0,-4.0,1.0,-2.0,-1.0,-1.0,1651071094479539.0,2
1309,-1.0,4.0,4.0,7.0,2.0,-2.0,-4.0,-3.0,1651071094479539.0,2
1310,-3.0,-3.0,-1.0,-6.0,2.0,2.0,3.0,1.0,1651071094492799.0,2
1311,0.0,-2.0,2.0,2.0,6.0,2.0,1.0,0.0,1651071094492799.0,2
1312,2.0,0.0,-10.0,-9.0,-5.0,0.0,4.0,3.0,1651071094494727.0,2
1313,2.0,-6.0,-7.0,-14.0,-13.0,-5.0,1.0,3.0,1651071094494727.0,2
1314,1.0,9.0,4.0,28.0,11.0,4.0,-2.0,-3.0,1651071094515811.0,2
1315,1.0,3.0,2.0,-4.0,3.0,2.0,3.0,-1.0,1651071094515811.0,2
1316,-14.0,-15.0,1.0,-12.0,-10.0,-3.0,-4.0,-12.0,1651071094516808.0,2
1317,-13.0,-8.0,-3.0,-8.0,-3.0,-1.0,-3.0,-8.0,1651071094516808.0,2
1318,8.0,-5.0,-9.0,-10.0,-8.0,-2.0,2.0,20.0,1651071094538176.0,2
1319,12.0,11.0,3.0,-3.0,4.0,1.0,4.0,10.0,1651071094538176.0,2
1320,8.0,16.0,6.0,15.0,6.0,5.0,5.0,-3.0,1651071094539133.0,2
1321,-10.0,-14.0,2.0,2.0,0.0,3.0,7.0,9.0,1651071094539133.0,2
1322,-21.0,-8.0,-5.0,0.0,-4.0,-5.0,-17.0,-47.0,1651071094553817.0,2
1323,-5.0,-9.0,-4.0,-1.0,2.0,4.0,8.0,36.0,1651071094553817.0,2
1324,7.0,-1.0,-4.0,-8.0,-4.0,-14.0,-17.0,19.0,1651071094555148.0,2
1325,13.0,17.0,0.0,4.0,10.0,6.0,-5.0,-46.0,1651071094555148.0,2
1326,15.0,-9.0,2.0,9.0,0.0,-4.0,1.0,57.0,1651071094575361.0,2
1327,-44.0,4.0,1.0,-7.0,-7.0,-5.0,-5.0,-48.0,1651071094575361.0,2
1328,-18.0,-11.0,6.0,3.0,-4.0,-2.0,4.0,61.0,1651071094577378.0,2
1329,59.0,14.0,-9.0,6.0,4.0,4.0,17.0,23.0,1651071094577378.0,2
1330,-33.0,1.0,-4.0,-4.0,-3.0,-11.0,-40.0,-77.0,1651071094598395.0,2
1331,-41.0,-3.0,2.0,0.0,-4.0,-4.0,-19.0,-27.0,1651071094598395.0,2
1332,57.0,-4.0,5.0,6.0,2.0,2.0,10.0,32.0,1651071094599365.0,2
1333,-45.0,1.0,-11.0,-9.0,-6.0,-2.0,8.0,19.0,1651071094599365.0,2
1334,11.0,-4.0,8.0,1.0,2.0,7.0,20.0,-2.0,1651071094612691.0,2
1335,-24.0,-11.0,-8.0,-10.0,-7.0,-1.0,-2.0,-15.0,1651071094612691.0,2
1336,-9.0,7.0,1.0,2.0,1.0,1.0,-7.0,-35.0,1651071094619412.0,2
1337,-8.0,-11.0,6.0,3.0,3.0,1.0,-2.0,9.0,1651071094619412.0,2
1338,10.0,-2.0,0.0,-5.0,-5.0,-1.0,7.0,7.0,1651071094635486.0,2
1339,71.0,-3.0,3.0,0.0,1.0,2.0,-1.0,12.0,1651071094635486.0,2
1340,-16.0,28.0,3.0,2.0,0.0,0.0,0.0,-12.0,1651071094637420.0,2
1341,-9.0,-8.0,-8.0,-1.0,0.0,-5.0,-7.0,-17.0,1651071094637420.0,2
1342,0.0,10.0,9.0,5.0,4.0,3.0,7.0,17.0,1651071094658396.0,2
1343,5.0,-8.0,-6.0,-3.0,1.0,-3.0,4.0,16.0,1651071094658396.0,2
1344,-2.0,1.0,-1.0,-4.0,0.0,-2.0,-4.0,-21.0,1651071094659342.0,2
1345,1.0,-10.0,-1.0,6.0,1.0,1.0,-3.0,1.0,1651071094659342.0,2
1346,-2.0,11.0,-4.0,-2.0,-1.0,0.0,3.0,-4.0,1651071094672721.0,2
1347,18.0,1.0,-2.0,-1.0,0.0,-1.0,4.0,18.0,1651071094672721.0,2
1348,9.0,-14.0,-2.0,5.0,-1.0,-1.0,-2.0,-4.0,1651071094678772.0,2
1349,-26.0,-5.0,4.0,3.0,2.0,-2.0,-7.0,-10.0,1651071094678772.0,2
1350,34.0,6.0,10.0,6.0,-1.0,0.0,7.0,20.0,1651071094695901.0,2
1351,-11.0,26.0,-3.0,-12.0,-1.0,-1.0,-3.0,-13.0,1651071094695901.0,2
1352,-23.0,-14.0,-11.0,-7.0,-4.0,-3.0,2.0,3.0,1651071094696883.0,2
1353,24.0,0.0,0.0,-3.0,-1.0,-4.0,-1.0,8.0,1651071094696883.0,2
1354,-11.0,-11.0,-7.0,6.0,6.0,10.0,0.0,-7.0,1651071094717741.0,2
1355,-12.0,-3.0,2.0,8.0,1.0,0.0,2.0,1.0,1651071094717741.0,2
1356,13.0,5.0,2.0,2.0,1.0,2.0,-1.0,-26.0,1651071094719669.0,2
1357,12.0,6.0,4.0,-5.0,-3.0,6.0,3.0,10.0,1651071094719669.0,2
1358,13.0,7.0,-3.0,-3.0,-5.0,-11.0,4.0,20.0,1651071094731423.0,2
1359,-5.0,-1.0,2.0,-1.0,-3.0,3.0,-3.0,-1.0,1651071094731423.0,2
1360,17.0,-14.0,-10.0,-2.0,-1.0,-2.0,-3.0,-16.0,1651071094740282.0,2
1361,46.0,12.0,7.0,6.0,3.0,-3.0,-1.0,-3.0,1651071094740282.0,2
1362,-28.0,12.0,4.0,5.0,-3.0,1.0,1.0,6.0,1651071094755322.0,2
1363,39.0,-10.0,0.0,10.0,-3.0,-3.0,0.0,9.0,1651071094755322.0,2
1364,-19.0,17.0,-2.0,-11.0,3.0,3.0,1.0,-10.0,1651071094757346.0,2
1365,-6.0,-6.0,-1.0,-11.0,-11.0,-2.0,-6.0,-14.0,1651071094757346.0,2
1366,17.0,18.0,2.0,7.0,5.0,1.0,-2.0,3.0,1651071094778469.0,2
1367,-10.0,-7.0,-1.0,8.0,0.0,-3.0,1.0,-19.0,1651071094778469.0,2
1368,11.0,3.0,0.0,6.0,1.0,1.0,2.0,28.0,1651071094779465.0,2
1369,-19.0,2.0,3.0,6.0,6.0,0.0,-3.0,-4.0,1651071094779465.0,2
1370,-7.0,-6.0,-3.0,-15.0,-5.0,-5.0,2.0,4.0,1651071094792499.0,2
1371,-10.0,-6.0,-3.0,2.0,1.0,1.0,-2.0,-12.0,1651071094792499.0,2
1372,-6.0,-14.0,-8.0,-6.0,-2.0,-3.0,-1.0,-4.0,1651071094799494.0,2
1373,-26.0,8.0,3.0,-2.0,-1.0,-1.0,0.0,7.0,1651071094799494.0,2
1374,32.0,-6.0,-5.0,2.0,1.0,-1.0,-5.0,-10.0,1651071094815586.0,2
1375,-20.0,-14.0,-3.0,-6.0,0.0,-1.0,1.0,4.0,1651071094815586.0,2
1376,-12.0,-6.0,-2.0,0.0,-4.0,-2.0,0.0,-4.0,1651071094816591.0,2
1377,-36.0,3.0,-4.0,-5.0,1.0,-2.0,-2.0,-1.0,1651071094816591.0,0
1378,1.0,-12.0,0.0,4.0,2.0,3.0,2.0,0.0,1651071094838365.0,3
1379,-7.0,2.0,-3.0,-6.0,-4.0,-4.0,-5.0,-10.0,1651071094838365.0,3
1380,-5.0,6.0,2.0,3.0,-2.0,-3.0,-2.0,9.0,1651071094839357.0,3
1381,10.0,1.0,2.0,6.0,1.0,0.0,3.0,6.0,1651071094839357.0,3
1382,2.0,-8.0,-3.0,-6.0,4.0,3.0,-1.0,-22.0,1651071094852436.0,3
1383,3.0,-7.0,-1.0,-4.0,-2.0,0.0,2.0,25.0,1651071094852436.0,3
1384,4.0,3.0,1.0,-4.0,-6.0,-2.0,-1.0,-10.0,1651071094859424.0,3
1385,4.0,1.0,-3.0,-6.0,-2.0,-4.0,-5.0,-3.0,1651071094859424.0,3
1386,-3.0,2.0,5.0,8.0,2.0,0.0,0.0,-1.0,1651071094875374.0,3
1387,14.0,4.0,7.0,14.0,2.0,0.0,-1.0,-4.0,1651071094875374.0,3
1388,3.0,-4.0,-2.0,7.0,3.0,3.0,2.0,-1.0,1651071094877398.0,3
1389,4.0,0.0,0.0,-9.0,-3.0,-4.0,-2.0,4.0,1651071094877398.0,3
1390,-12.0,2.0,-3.0,-15.0,-15.0,-5.0,-1.0,2.0,1651071094898395.0,3
1391,10.0,2.0,-1.0,3.0,5.0,0.0,-1.0,-1.0,1651071094898395.0,3
1392,-15.0,4.0,11.0,4.0,-2.0,-2.0,-2.0,-3.0,1651071094899371.0,3
1393,-29.0,-11.0,-4.0,2.0,-1.0,1.0,1.0,-11.0,1651071094899371.0,3
1394,-2.0,0.0,-2.0,-3.0,1.0,-1.0,-2.0,7.0,1651071094912633.0,3
1395,-5.0,8.0,0.0,-6.0,-3.0,-1.0,0.0,6.0,1651071094912633.0,3
1396,-8.0,6.0,-6.0,-2.0,-1.0,4.0,3.0,1.0,1651071094919581.0,3
1397,31.0,4.0,-1.0,-1.0,-3.0,-2.0,-3.0,3.0,1651071094919581.0,3
1398,-21.0,-6.0,2.0,-2.0,-7.0,-6.0,-5.0,-9.0,1651071094935616.0,3
1399,-1.0,8.0,-1.0,-1.0,0.0,2.0,1.0,2.0,1651071094935616.0,3
1400,19.0,-6.0,-1.0,1.0,7.0,1.0,1.0,1.0,1651071094936652.0,3
1401,-36.0,4.0,0.0,-3.0,2.0,3.0,1.0,-3.0,1651071094936652.0,3
1402,3.0,-4.0,-5.0,7.0,1.0,1.0,-2.0,-3.0,1651071094958357.0,3
1403,3.0,-1.0,-1.0,-2.0,-2.0,-3.0,-4.0,-17.0,1651071094958357.0,3
1404,14.0,4.0,1.0,1.0,-3.0,-2.0,1.0,24.0,1651071094959355.0,3
1405,6.0,-10.0,-1.0,-1.0,-1.0,-2.0,0.0,2.0,1651071094959355.0,3
1406,36.0,0.0,-5.0,-7.0,1.0,2.0,-1.0,2.0,1651071094971447.0,3
1407,-19.0,-6.0,-1.0,12.0,5.0,-1.0,-3.0,-1.0,1651071094971447.0,3
1408,-16.0,7.0,4.0,3.0,-5.0,-2.0,-2.0,-9.0,1651071094980281.0,3
1409,6.0,-1.0,1.0,-3.0,-11.0,-2.0,0.0,1.0,1651071094980281.0,3
1410,-11.0,-4.0,-3.0,-16.0,-4.0,0.0,-1.0,-1.0,1651071094995360.0,3
1411,22.0,3.0,1.0,2.0,8.0,2.0,-1.0,-1.0,1651071094995360.0,3
1412,2.0,0.0,1.0,5.0,5.0,0.0,-1.0,1.0,1651071094997386.0,3
1413,18.0,2.0,2.0,7.0,5.0,5.0,1.0,6.0,1651071094997386.0,3
1414,-8.0,1.0,-3.0,-6.0,1.0,-2.0,-2.0,-15.0,1651071095018348.0,3
1415,6.0,2.0,-1.0,-2.0,-8.0,-3.0,1.0,16.0,1651071095018348.0,3
1416,-14.0,-11.0,1.0,3.0,2.0,0.0,2.0,-4.0,1651071095019278.0,3
1417,0.0,-1.0,-1.0,-2.0,0.0,-1.0,-1.0,0.0,1651071095019278.0,3
1418,-11.0,-1.0,-2.0,3.0,4.0,1.0,2.0,-2.0,1651071095031283.0,3
1419,5.0,0.0,-2.0,-8.0,-3.0,1.0,0.0,6.0,1651071095031283.0,3
1420,-32.0,-5.0,-1.0,-2.0,-6.0,1.0,-2.0,-9.0,1651071095040290.0,3
1421,-6.0,-3.0,-1.0,-1.0,-2.0,-4.0,-2.0,1.0,1651071095040290.0,3
1422,8.0,-9.0,0.0,5.0,3.0,2.0,-2.0,-3.0,1651071095055288.0,3
1423,1.0,4.0,0.0,-1.0,2.0,0.0,-3.0,-26.0,1651071095055288.0,3
1424,15.0,-9.0,-3.0,-9.0,-6.0,-1.0,3.0,24.0,1651071095057217.0,3
1425,10.0,17.0,0.0,0.0,3.0,3.0,2.0,1.0,1651071095057217.0,3
1426,-11.0,-4.0,1.0,6.0,4.0,0.0,1.0,8.0,1651071095077917.0,3
1427,-7.0,1.0,1.0,-6.0,-2.0,0.0,-1.0,-2.0,1651071095077917.0,3
1428,-3.0,2.0,2.0,-2.0,-2.0,0.0,-5.0,-27.0,1651071095079914.0,3
1429,4.0,-5.0,2.0,0.0,-1.0,-3.0,-3.0,7.0,1651071095079914.0,3
1430,9.0,9.0,-6.0,-8.0,-7.0,-2.0,1.0,13.0,1651071095091995.0,3
1431,-1.0,-3.0,3.0,16.0,10.0,4.0,0.0,2.0,1651071095091995.0,3
1432,5.0,0.0,-6.0,-15.0,-1.0,-3.0,-3.0,-7.0,1651071095100279.0,3
1433,3.0,-3.0,-2.0,4.0,-2.0,0.0,-1.0,-3.0,1651071095100279.0,3
1434,7.0,0.0,2.0,3.0,0.0,-1.0,0.0,-11.0,1651071095115558.0,3
1435,6.0,5.0,2.0,-5.0,-6.0,-1.0,3.0,20.0,1651071095115558.0,3
1436,-4.0,-6.0,-7.0,0.0,8.0,0.0,-3.0,-3.0,1651071095117473.0,3
1437,0.0,0.0,-3.0,-3.0,-1.0,0.0,0.0,-4.0,1651071095117473.0,3
1438,-8.0,-2.0,5.0,7.0,-4.0,-3.0,0.0,1.0,1651071095137539.0,3
1439,-9.0,-2.0,-3.0,-10.0,-2.0,-1.0,4.0,4.0,1651071095137539.0,3
1440,29.0,-3.0,-3.0,4.0,0.0,-1.0,-2.0,-9.0,1651071095139540.0,3
1441,16.0,1.0,-2.0,0.0,-3.0,-2.0,-2.0,4.0,1651071095139540.0,3
1442,-25.0,-1.0,0.0,-3.0,-3.0,-2.0,3.0,7.0,1651071095151566.0,3
1443,-5.0,-4.0,-2.0,-3.0,-3.0,-3.0,-1.0,0.0,1651071095151566.0,3
1444,-10.0,2.0,5.0,1.0,1.0,1.0,0.0,0.0,1651071095160475.0,3
1445,6.0,0.0,-2.0,3.0,3.0,1.0,-1.0,-15.0,1651071095160475.0,3
1446,8.0,4.0,3.0,-8.0,-3.0,0.0,1.0,15.0,1651071095175444.0,3
1447,4.0,2.0,-1.0,-3.0,-4.0,-4.0,-2.0,-5.0,1651071095175444.0,3
1448,9.0,-4.0,2.0,5.0,-1.0,2.0,2.0,4.0,1651071095177362.0,3
1449,-40.0,-6.0,-4.0,5.0,4.0,1.0,-1.0,-5.0,1651071095177362.0,3
1450,-8.0,-2.0,3.0,15.0,3.0,-2.0,-3.0,-5.0,1651071095198351.0,3
1451,15.0,2.0,2.0,1.0,0.0,1.0,1.0,0.0,1651071095198351.0,3
1452,3.0,1.0,-1.0,2.0,-1.0,1.0,-2.0,-5.0,1651071095199351.0,3
1453,-9.0,-9.0,-3.0,-10.0,-6.0,0.0,2.0,8.0,1651071095199351.0,3
1454,-1.0,3.0,-2.0,-10.0,3.0,-2.0,0.0,-3.0,1651071095211381.0,3
1455,6.0,-1.0,-6.0,-4.0,0.0,-2.0,0.0,2.0,1651071095211381.0,3
1456,-4.0,-2.0,4.0,8.0,4.0,0.0,2.0,1.0,1651071095220305.0,3
1457,6.0,6.0,3.0,3.0,-3.0,-1.0,0.0,-3.0,1651071095220305.0,3
1458,-10.0,-9.0,-3.0,-10.0,-7.0,-3.0,-3.0,-4.0,1651071095235541.0,3
1459,-5.0,-6.0,-2.0,-2.0,-1.0,0.0,-1.0,0.0,1651071095235541.0,3
1460,-5.0,9.0,1.0,-1.0,-2.0,-4.0,-4.0,-5.0,1651071095237379.0,3
1461,1.0,-8.0,-4.0,-1.0,1.0,-1.0,0.0,0.0,1651071095237379.0,3
1462,13.0,5.0,0.0,5.0,2.0,1.0,0.0,-5.0,1651071095258395.0,3
1463,-22.0,-1.0,-3.0,-2.0,-3.0,-1.0,1.0,-1.0,1651071095258395.0,3
1464,-9.0,-2.0,-4.0,-4.0,-2.0,0.0,-1.0,-1.0,1651071095259317.0,3
1465,-2.0,3.0,2.0,0.0,0.0,-1.0,0.0,6.0,1651071095259317.0,3
1466,3.0,-1.0,-1.0,-2.0,0.0,1.0,0.0,-5.0,1651071095271346.0,3
1467,21.0,3.0,-2.0,-4.0,-2.0,-1.0,0.0,18.0,1651071095271346.0,3
1468,-54.0,-3.0,2.0,-1.0,1.0,-3.0,-1.0,-5.0,1651071095280334.0,3
1469,1.0,-3.0,-1.0,2.0,2.0,-1.0,-4.0,-4.0,1651071095280334.0,3
1470,-1.0,-3.0,-5.0,-5.0,-2.0,6.0,3.0,-1.0,1651071095295622.0,3
1471,-1.0,-1.0,-1.0,4.0,-1.0,-3.0,-3.0,-4.0,1651071095295622.0,3
1472,26.0,4.0,-2.0,-3.0,0.0,1.0,1.0,6.0,1651071095297445.0,3
1473,2.0,-4.0,0.0,-1.0,-2.0,0.0,-1.0,-6.0,1651071095297445.0,3
1474,-12.0,3.0,2.0,1.0,-1.0,-3.0,-2.0,-1.0,1651071095317780.0,3
1475,34.0,-7.0,-1.0,-2.0,0.0,2.0,-1.0,-3.0,1651071095317780.0,3
1476,-1.0,1.0,-3.0,-4.0,1.0,1.0,2.0,0.0,1651071095319734.0,3
1477,2.0,-2.0,1.0,-3.0,-4.0,-3.0,0.0,-2.0,1651071095319734.0,3
1478,4.0,-3.0,-1.0,3.0,3.0,-1.0,1.0,5.0,1651071095331690.0,3
1479,-2.0,2.0,1.0,4.0,7.0,4.0,3.0,-1.0,1651071095331690.0,3
1480,1.0,-6.0,-7.0,-5.0,-5.0,-3.0,-3.0,0.0,1651071095340664.0,3
1481,10.0,2.0,-1.0,-2.0,-3.0,-5.0,-3.0,-7.0,1651071095340664.0,3
1482,-14.0,-2.0,0.0,1.0,-4.0,0.0,-2.0,7.0,1651071095355292.0,3
1483,-12.0,-1.0,-4.0,-15.0,-1.0,2.0,-2.0,-3.0,1651071095355292.0,3
1484,1.0,2.0,0.0,3.0,-4.0,1.0,1.0,-2.0,1651071095357289.0,3
1485,-1.0,3.0,4.0,1.0,-2.0,0.0,0.0,-4.0,1651071095357289.0,3
1486,3.0,-2.0,2.0,10.0,-1.0,-2.0,2.0,7.0,1651071095385540.0,3
1487,-18.0,-4.0,0.0,0.0,1.0,-1.0,-1.0,-6.0,1651071095385540.0,3
1488,9.0,-7.0,-4.0,-8.0,1.0,1.0,-1.0,-8.0,1651071095387357.0,3
1489,7.0,-3.0,-3.0,0.0,2.0,0.0,2.0,18.0,1651071095387357.0,3
1490,24.0,1.0,2.0,-1.0,-1.0,-1.0,-3.0,-10.0,1651071095400432.0,3
1491,-24.0,6.0,-4.0,-3.0,-3.0,-4.0,-1.0,-3.0,1651071095400432.0,3
1492,-34.0,-4.0,0.0,-2.0,-4.0,-1.0,2.0,6.0,1651071095402436.0,3
1493,-2.0,-5.0,1.0,4.0,3.0,2.0,-1.0,-7.0,1651071095402436.0,3
1494,-6.0,-2.0,-2.0,-1.0,0.0,0.0,-2.0,-18.0,1651071095415409.0,3
1495,14.0,-1.0,-2.0,2.0,-4.0,0.0,2.0,19.0,1651071095415409.0,3
1496,17.0,8.0,-1.0,-4.0,-1.0,-2.0,-1.0,5.0,1651071095417321.0,3
1497,-11.0,5.0,1.0,10.0,7.0,2.0,1.0,0.0,1651071095417321.0,3
1498,-10.0,-2.0,3.0,0.0,-1.0,-2.0,0.0,2.0,1651071095438237.0,3
1499,-3.0,0.0,-1.0,-7.0,-1.0,0.0,-3.0,-18.0,1651071095438237.0,3
1500,6.0,0.0,1.0,11.0,1.0,0.0,0.0,3.0,1651071095439240.0,3
1501,7.0,-1.0,-2.0,-6.0,-5.0,1.0,1.0,0.0,1651071095439240.0,3
1502,0.0,0.0,-1.0,-3.0,-5.0,-3.0,-4.0,-1.0,1651071095468397.0,3
1503,6.0,-1.0,0.0,1.0,-5.0,-4.0,1.0,7.0,1651071095468397.0,3
1504,9.0,-5.0,-2.0,-5.0,6.0,0.0,1.0,7.0,1651071095469407.0,3
1505,15.0,12.0,1.0,-9.0,0.0,1.0,-2.0,-3.0,1651071095469407.0,3
1506,-49.0,-13.0,-2.0,15.0,3.0,-1.0,-1.0,0.0,1651071095475562.0,3
1507,-5.0,3.0,3.0,3.0,-1.0,-2.0,-1.0,-4.0,1651071095475562.0,3
1508,6.0,0.0,-3.0,-3.0,-3.0,-2.0,-1.0,-2.0,1651071095477372.0,3
1509,-2.0,1.0,1.0,5.0,-2.0,-2.0,-1.0,-3.0,1651071095477372.0,3
1510,-11.0,-4.0,-4.0,-9.0,0.0,2.0,-2.0,-7.0,1651071095497751.0,3
1511,15.0,6.0,-2.0,-7.0,-5.0,0.0,0.0,7.0,1651071095497751.0,3
1512,0.0,-1.0,1.0,0.0,-1.0,-3.0,0.0,5.0,1651071095499678.0,3
1513,-6.0,-7.0,-2.0,0.0,-2.0,-2.0,-1.0,-2.0,1651071095499678.0,3
1514,4.0,4.0,-2.0,-4.0,0.0,-1.0,1.0,0.0,1651071095520725.0,3
1515,-9.0,-10.0,-2.0,5.0,2.0,-2.0,-2.0,-4.0,1651071095520725.0,3
1516,7.0,5.0,4.0,-1.0,0.0,3.0,1.0,12.0,1651071095521723.0,3
1517,-5.0,0.0,0.0,4.0,-1.0,-1.0,0.0,0.0,1651071095521723.0,3
1518,16.0,-5.0,-5.0,-3.0,-5.0,-2.0,1.0,8.0,1651071095535955.0,3
1519,-5.0,0.0,-2.0,-3.0,-4.0,-3.0,-3.0,-14.0,1651071095535955.0,3
1520,33.0,1.0,1.0,-3.0,-1.0,-1.0,-2.0,-5.0,1651071095536809.0,3
1521,-16.0,1.0,0.0,-3.0,0.0,1.0,2.0,4.0,1651071095536809.0,3
1522,5.0,2.0,0.0,3.0,0.0,-2.0,0.0,-4.0,1651071095557937.0,3
1523,-3.0,-3.0,-2.0,2.0,3.0,0.0,-2.0,0.0,1651071095557937.0,3
1524,-7.0,-3.0,-1.0,0.0,-1.0,0.0,0.0,-3.0,1651071095559891.0,3
1525,3.0,-5.0,-3.0,-2.0,0.0,0.0,1.0,1.0,1651071095559891.0,3
1526,4.0,-1.0,-1.0,-3.0,-3.0,-1.0,-3.0,-2.0,1651071095580840.0,3
1527,-1.0,0.0,1.0,-1.0,-2.0,-2.0,1.0,-1.0,1651071095580840.0,3
1528,-9.0,1.0,1.0,2.0,2.0,3.0,-1.0,-3.0,1651071095581617.0,3
1529,0.0,-5.0,-2.0,0.0,-2.0,0.0,-2.0,1.0,1651071095581617.0,3
1530,-5.0,0.0,-2.0,-3.0,2.0,0.0,1.0,0.0,1651071095594651.0,3
1531,2.0,0.0,0.0,0.0,-3.0,0.0,-1.0,3.0,1651071095594651.0,3
1532,-5.0,-2.0,-3.0,0.0,-1.0,-3.0,-2.0,-6.0,1651071095602102.0,3
1533,-2.0,-2.0,-2.0,-3.0,0.0,-1.0,0.0,-9.0,1651071095602102.0,3
1534,4.0,-4.0,0.0,-1.0,1.0,1.0,2.0,15.0,1651071095618292.0,3
1535,-1.0,-3.0,0.0,3.0,3.0,1.0,0.0,-1.0,1651071095618292.0,3
1536,2.0,14.0,-2.0,-1.0,-2.0,1.0,3.0,4.0,1651071095619222.0,3
1537,-4.0,0.0,0.0,2.0,1.0,-3.0,-1.0,1.0,1651071095619222.0,3
1538,-2.0,1.0,-1.0,1.0,-2.0,0.0,-4.0,-15.0,1651071095640865.0,3
1539,1.0,-1.0,4.0,-3.0,1.0,1.0,-1.0,5.0,1651071095640865.0,3
1540,-6.0,-4.0,0.0,1.0,0.0,0.0,2.0,1.0,1651071095641646.0,3
1541,-3.0,-2.0,1.0,-2.0,-1.0,0.0,1.0,0.0,1651071095641646.0,3
1542,5.0,7.0,1.0,-4.0,-2.0,-1.0,0.0,1.0,1651071095654711.0,3
1543,-6.0,-3.0,-1.0,0.0,-6.0,-2.0,-2.0,-7.0,1651071095654711.0,3
1544,-2.0,-5.0,0.0,1.0,2.0,1.0,-4.0,-3.0,1651071095662945.0,3
1545,-3.0,-1.0,0.0,4.0,0.0,-1.0,2.0,4.0,1651071095662945.0,3
1546,5.0,-1.0,-2.0,-3.0,0.0,-3.0,1.0,0.0,1651071095678397.0,3
1547,10.0,3.0,-3.0,0.0,5.0,2.0,1.0,6.0,1651071095678397.0,3
1548,-9.0,0.0,-1.0,0.0,0.0,-3.0,-4.0,-9.0,1651071095679368.0,3
1549,5.0,0.0,0.0,-1.0,-3.0,2.0,-2.0,-1.0,1651071095679368.0,3
1550,1.0,3.0,1.0,-4.0,-5.0,-2.0,-2.0,5.0,1651071095700403.0,3
1551,0.0,-2.0,-1.0,0.0,1.0,0.0,-1.0,0.0,1651071095700403.0,3
1552,-4.0,-2.0,-1.0,2.0,-2.0,-5.0,-1.0,-8.0,1651071095702425.0,3
1553,2.0,1.0,-2.0,-2.0,1.0,0.0,-2.0,-1.0,1651071095702425.0,3
1554,6.0,1.0,-1.0,-4.0,0.0,0.0,3.0,6.0,1651071095714636.0,3
1555,-7.0,-1.0,1.0,4.0,-5.0,-3.0,0.0,0.0,1651071095714636.0,3
1556,0.0,-6.0,-4.0,-3.0,-1.0,1.0,1.0,7.0,1651071095721616.0,3
1557,-3.0,-2.0,1.0,-1.0,-3.0,-5.0,-2.0,-5.0,1651071095721616.0,3
1558,-4.0,1.0,-1.0,0.0,1.0,-1.0,0.0,1.0,1651071095738429.0,3
1559,0.0,-3.0,-2.0,-4.0,-3.0,-2.0,-3.0,-10.0,1651071095738429.0,3
1560,-2.0,-1.0,0.0,1.0,1.0,-1.0,-2.0,-2.0,1651071095739432.0,3
1561,4.0,4.0,1.0,2.0,0.0,3.0,0.0,3.0,1651071095739432.0,3
1562,0.0,1.0,0.0,2.0,1.0,2.0,-3.0,-7.0,1651071095760609.0,3
1563,-6.0,-1.0,-1.0,-3.0,-6.0,-4.0,-2.0,-17.0,1651071095760609.0,3
1564,0.0,-5.0,0.0,2.0,7.0,4.0,1.0,18.0,1651071095762532.0,3
1565,1.0,0.0,-2.0,0.0,1.0,-1.0,0.0,7.0,1651071095762532.0,3
1566,3.0,2.0,3.0,2.0,1.0,0.0,-1.0,0.0,1651071095775692.0,3
1567,-2.0,-4.0,-2.0,-1.0,-2.0,-3.0,1.0,-2.0,1651071095775692.0,3
1568,-16.0,-6.0,2.0,-2.0,-7.0,1.0,-1.0,-11.0,1651071095781682.0,3
1569,1.0,0.0,0.0,-1.0,2.0,0.0,-1.0,1.0,1651071095781682.0,3
1570,0.0,1.0,1.0,1.0,1.0,-1.0,-1.0,1.0,1651071095797708.0,3
1571,-4.0,-1.0,-2.0,-3.0,-2.0,0.0,0.0,-1.0,1651071095797708.0,3
1572,5.0,0.0,-2.0,-2.0,-2.0,-3.0,-1.0,-1.0,1651071095799637.0,3
1573,2.0,-3.0,-2.0,0.0,0.0,0.0,1.0,2.0,1651071095799637.0,3
1574,-3.0,-2.0,1.0,0.0,-4.0,-2.0,-4.0,-9.0,1651071095820417.0,3
1575,1.0,-1.0,1.0,1.0,6.0,7.0,2.0,5.0,1651071095820417.0,3
1576,0.0,0.0,-2.0,0.0,-5.0,-2.0,2.0,-2.0,1651071095822345.0,3
1577,-4.0,0.0,-1.0,0.0,-1.0,-1.0,-4.0,-5.0,1651071095822345.0,3
1578,1.0,0.0,-2.0,-2.0,-6.0,-2.0,-1.0,2.0,1651071095835297.0,3
1579,-1.0,-2.0,-2.0,-4.0,-10.0,-1.0,0.0,2.0,1651071095835297.0,3
1580,1.0,0.0,-1.0,1.0,10.0,2.0,0.0,-1.0,1651071095841350.0,3
1581,-1.0,-2.0,0.0,4.0,-2.0,1.0,-1.0,-2.0,1651071095841350.0,3
1582,-2.0,-1.0,0.0,1.0,1.0,-1.0,0.0,0.0,1651071095858322.0,3
1583,-2.0,-3.0,-2.0,1.0,1.0,-1.0,0.0,3.0,1651071095858322.0,3
1584,1.0,-1.0,-5.0,-12.0,-11.0,-5.0,0.0,-2.0,1651071095859271.0,3
1585,-1.0,-1.0,-1.0,-5.0,-11.0,-7.0,-2.0,-2.0,1651071095859271.0,3
1586,0.0,-3.0,0.0,3.0,4.0,1.0,0.0,1.0,1651071095881616.0,3
1587,0.0,1.0,5.0,6.0,10.0,6.0,1.0,2.0,1651071095881616.0,3
1588,2.0,2.0,9.0,16.0,6.0,1.0,0.0,-2.0,1651071095882616.0,3
1589,0.0,1.0,-3.0,-7.0,4.0,2.0,1.0,-1.0,1651071095882616.0,3
1590,-1.0,-2.0,-2.0,-7.0,-5.0,-2.0,0.0,1.0,1651071095894600.0,3
1591,-1.0,-3.0,-6.0,-5.0,-5.0,-5.0,0.0,-2.0,1651071095894600.0,3
1592,1.0,0.0,-2.0,-2.0,-4.0,-4.0,0.0,-1.0,1651071095902630.0,3
1593,0.0,1.0,5.0,4.0,3.0,0.0,-2.0,-2.0,1651071095902630.0,3
1594,4.0,0.0,-1.0,0.0,0.0,5.0,1.0,2.0,1651071095917589.0,3
1595,-2.0,0.0,-5.0,-6.0,-2.0,-1.0,-1.0,0.0,1651071095917589.0,3
1596,1.0,1.0,5.0,4.0,0.0,2.0,0.0,-1.0,1651071095919516.0,3
1597,-1.0,-3.0,2.0,0.0,-5.0,-3.0,-1.0,-2.0,1651071095919516.0,3
1598,2.0,2.0,-5.0,-14.0,0.0,-1.0,0.0,0.0,1651071095941346.0,3
1599,-15.0,-5.0,7.0,16.0,4.0,1.0,-3.0,0.0,1651071095941346.0,3
1600,1.0,0.0,3.0,8.0,-4.0,-4.0,-2.0,-1.0,1651071095942548.0,3
1601,1.0,0.0,4.0,12.0,7.0,1.0,0.0,1.0,1651071095942548.0,3
1602,-1.0,1.0,3.0,12.0,0.0,1.0,-1.0,0.0,1651071095954541.0,3
1603,4.0,3.0,-8.0,-29.0,-4.0,0.0,1.0,1.0,1651071095954541.0,3
1604,4.0,-1.0,2.0,3.0,0.0,2.0,0.0,1.0,1651071095963503.0,3
1605,-5.0,-4.0,-5.0,-1.0,-3.0,-4.0,-3.0,-3.0,1651071095963503.0,3
1606,-1.0,1.0,-6.0,-10.0,0.0,2.0,1.0,-2.0,1651071095978129.0,3
1607,3.0,1.0,1.0,-1.0,2.0,0.0,-1.0,-1.0,1651071095978129.0,3
1608,1.0,1.0,3.0,12.0,2.0,2.0,1.0,-2.0,1651071095979092.0,3
1609,4.0,0.0,4.0,1.0,-4.0,2.0,0.0,0.0,1651071095979092.0,3
1610,-2.0,-6.0,-12.0,-18.0,-5.0,-5.0,-4.0,0.0,1651071096000208.0,3
1611,2.0,2.0,6.0,25.0,2.0,-4.0,1.0,1.0,1651071096000208.0,3
1612,-2.0,-3.0,-5.0,-7.0,-2.0,0.0,-1.0,-1.0,1651071096002176.0,3
1613,-1.0,1.0,3.0,13.0,0.0,-1.0,0.0,0.0,1651071096002176.0,3
1614,-2.0,1.0,5.0,6.0,1.0,2.0,1.0,-1.0,1651071096014210.0,3
1615,-1.0,0.0,-6.0,-13.0,4.0,2.0,2.0,0.0,1651071096014210.0,3
1616,-1.0,3.0,-1.0,6.0,-2.0,-3.0,-2.0,3.0,1651071096023207.0,3
1617,-2.0,-1.0,7.0,16.0,-2.0,-4.0,-2.0,0.0,1651071096023207.0,3
1618,0.0,2.0,-9.0,-39.0,3.0,5.0,1.0,2.0,1651071096038333.0,3
1619,1.0,-1.0,11.0,43.0,1.0,0.0,-1.0,0.0,1651071096038333.0,3
1620,-4.0,-4.0,2.0,8.0,-5.0,-6.0,-3.0,-2.0,1651071096039264.0,3
1621,0.0,3.0,-3.0,-6.0,-1.0,0.0,2.0,0.0,1651071096039264.0,3
1622,1.0,-2.0,-11.0,-10.0,1.0,3.0,0.0,-2.0,1651071096060698.0,3
1623,-11.0,-7.0,-8.0,-47.0,-5.0,0.0,-2.0,1.0,1651071096060698.0,3
1624,-4.0,-3.0,1.0,16.0,-2.0,0.0,-3.0,-1.0,1651071096061629.0,3
1625,1.0,0.0,9.0,35.0,5.0,-4.0,-1.0,-2.0,1651071096061629.0,3
1626,-1.0,-1.0,8.0,5.0,-1.0,-1.0,1.0,2.0,1651071096074594.0,3
1627,1.0,1.0,-5.0,-16.0,-2.0,0.0,-1.0,-1.0,1651071096074594.0,3
1628,0.0,-1.0,-12.0,-27.0,-2.0,-3.0,1.0,0.0,1651071096082640.0,3
1629,-2.0,-3.0,-7.0,-22.0,-2.0,1.0,0.0,-1.0,1651071096082640.0,3
1630,0.0,-1.0,6.0,19.0,1.0,-2.0,-1.0,-2.0,1651071096097755.0,3
1631,3.0,2.0,5.0,3.0,-3.0,1.0,-1.0,0.0,1651071096097755.0,3
1632,0.0,1.0,-2.0,-16.0,1.0,-2.0,-2.0,-1.0,1651071096099683.0,3
1633,1.0,1.0,-4.0,-8.0,7.0,7.0,2.0,0.0,1651071096099683.0,3
1634,0.0,-1.0,7.0,10.0,-2.0,-1.0,-3.0,0.0,1651071096120853.0,3
1635,1.0,0.0,3.0,13.0,-3.0,-7.0,-1.0,-3.0,1651071096120853.0,3
1636,-3.0,-2.0,-12.0,-21.0,-1.0,8.0,0.0,-2.0,1651071096121779.0,3
1637,0.0,-2.0,-4.0,-2.0,2.0,0.0,-1.0,-1.0,1651071096121779.0,3
1638,-3.0,-1.0,2.0,6.0,-4.0,-2.0,-2.0,0.0,1651071096134513.0,3
1639,1.0,3.0,4.0,6.0,1.0,-3.0,1.0,-1.0,1651071096134513.0,3
1640,0.0,1.0,0.0,-4.0,1.0,-2.0,0.0,1.0,1651071096143274.0,3
1641,0.0,1.0,-4.0,-13.0,-4.0,-1.0,-1.0,-1.0,1651071096143274.0,3
1642,-3.0,-3.0,2.0,11.0,-3.0,-3.0,-1.0,-3.0,1651071096158363.0,3
1643,3.0,1.0,0.0,4.0,-3.0,0.0,1.0,2.0,1651071096158363.0,3
1644,-1.0,-1.0,-5.0,-13.0,1.0,-2.0,0.0,0.0,1651071096159352.0,3
1645,-1.0,-2.0,-5.0,-4.0,1.0,6.0,0.0,0.0,1651071096159352.0,3
1646,1.0,0.0,2.0,9.0,0.0,-5.0,0.0,1.0,1651071096180838.0,3
1647,0.0,-1.0,1.0,2.0,-5.0,-4.0,-1.0,-3.0,1651071096180838.0,3
1648,0.0,0.0,-4.0,-7.0,2.0,9.0,0.0,0.0,1651071096181615.0,3
1649,-2.0,0.0,-7.0,-8.0,1.0,-3.0,0.0,0.0,1651071096181615.0,3
1650,-1.0,0.0,1.0,-1.0,4.0,3.0,1.0,0.0,1651071096194618.0,3
1651,-1.0,-3.0,1.0,12.0,-6.0,-5.0,-3.0,-1.0,1651071096194618.0,3
1652,-1.0,-1.0,0.0,-3.0,-9.0,-7.0,-2.0,-2.0,1651071096202629.0,3
1653,-2.0,-2.0,-10.0,-30.0,-2.0,-2.0,-2.0,-1.0,1651071096202629.0,3
1654,0.0,0.0,-5.0,5.0,3.0,1.0,0.0,0.0,1651071096225552.0,3
1655,-3.0,-4.0,2.0,-1.0,-3.0,0.0,-3.0,1.0,1651071096225552.0,3
1656,0.0,2.0,5.0,11.0,4.0,2.0,2.0,0.0,1651071096227542.0,3
1657,1.0,-1.0,-1.0,-2.0,-7.0,-2.0,-2.0,0.0,1651071096227542.0,3
1658,-2.0,1.0,-1.0,0.0,-4.0,-2.0,-1.0,0.0,1651071096240591.0,3
1659,-1.0,0.0,-2.0,-4.0,5.0,4.0,3.0,1.0,1651071096240591.0,3
1660,0.0,1.0,0.0,-4.0,2.0,1.0,-2.0,0.0,1651071096241591.0,3
1661,0.0,0.0,2.0,14.0,1.0,-4.0,0.0,0.0,1651071096241591.0,3
1662,0.0,2.0,2.0,-3.0,4.0,9.0,0.0,0.0,1651071096253667.0,3
1663,-2.0,-3.0,0.0,-3.0,-1.0,1.0,0.0,-1.0,1651071096253667.0,3
1664,-2.0,-2.0,2.0,3.0,-1.0,-1.0,-1.0,-1.0,1651071096262669.0,3
1665,-1.0,0.0,-1.0,-3.0,-6.0,-2.0,0.0,-2.0,1651071096262669.0,3
1666,-1.0,0.0,2.0,3.0,-1.0,-3.0,1.0,2.0,1651071096277688.0,3
1667,-1.0,0.0,-4.0,-5.0,0.0,3.0,0.0,0.0,1651071096277688.0,3
1668,1.0,-1.0,-2.0,6.0,6.0,-1.0,-2.0,2.0,1651071096279643.0,3
1669,-1.0,3.0,4.0,-8.0,1.0,-3.0,0.0,0.0,1651071096279643.0,3
1670,-2.0,-5.0,-1.0,8.0,-2.0,-1.0,-1.0,-1.0,1651071096300887.0,3
1671,1.0,-1.0,-4.0,-6.0,0.0,-1.0,-1.0,-1.0,1651071096300887.0,3
1672,-1.0,0.0,1.0,-10.0,-9.0,-4.0,2.0,-1.0,1651071096301887.0,3
1673,-2.0,-2.0,2.0,11.0,2.0,3.0,-2.0,0.0,1651071096301887.0,3
1674,0.0,-1.0,0.0,-2.0,0.0,-2.0,0.0,0.0,1651071096313919.0,3
1675,1.0,-2.0,-2.0,0.0,1.0,1.0,0.0,-2.0,1651071096313919.0,3
1676,-1.0,-1.0,1.0,3.0,-5.0,-3.0,0.0,0.0,1651071096322726.0,3
1677,2.0,-2.0,-3.0,-6.0,0.0,0.0,0.0,-1.0,1651071096322726.0,3
1678,-2.0,0.0,-2.0,-1.0,2.0,4.0,1.0,0.0,1651071096338226.0,3
1679,0.0,1.0,0.0,1.0,2.0,-2.0,-1.0,1.0,1651071096338226.0,3
1680,-1.0,1.0,2.0,4.0,-2.0,-1.0,0.0,0.0,1651071096339170.0,3
1681,-1.0,-2.0,-2.0,-12.0,4.0,2.0,1.0,0.0,1651071096339170.0,3
1682,-2.0,-2.0,-2.0,18.0,-1.0,-7.0,-3.0,-2.0,1651071096360932.0,3
1683,-1.0,0.0,-9.0,-21.0,0.0,0.0,-1.0,0.0,1651071096360932.0,3
1684,0.0,-1.0,2.0,4.0,-4.0,-3.0,-2.0,-1.0,1651071096361899.0,3
1685,0.0,-1.0,1.0,3.0,-3.0,2.0,0.0,1.0,1651071096361899.0,3
1686,0.0,-1.0,2.0,0.0,3.0,1.0,0.0,-1.0,1651071096383364.0,3
1687,-2.0,0.0,1.0,4.0,1.0,0.0,-2.0,1.0,1651071096383364.0,3
1688,1.0,0.0,0.0,1.0,1.0,1.0,0.0,-2.0,1651071096384372.0,3
1689,-2.0,-1.0,-1.0,0.0,-4.0,-3.0,-2.0,-1.0,1651071096384372.0,3
1690,0.0,-1.0,0.0,-7.0,0.0,2.0,1.0,-1.0,1651071096398440.0,3
1691,1.0,-1.0,-1.0,2.0,-5.0,0.0,-2.0,-2.0,1651071096398440.0,3
1692,0.0,-1.0,0.0,-2.0,-2.0,-16.0,-3.0,-1.0,1651071096399437.0,3
1693,1.0,0.0,2.0,10.0,6.0,15.0,1.0,1.0,1651071096399437.0,3
1694,0.0,-2.0,-1.0,-8.0,0.0,0.0,1.0,2.0,1651071096420887.0,3
1695,-2.0,0.0,1.0,4.0,0.0,4.0,1.0,-1.0,1651071096420887.0,3
1696,-2.0,-1.0,0.0,-1.0,-1.0,5.0,0.0,-3.0,1651071096421644.0,3
1697,0.0,1.0,-1.0,-2.0,-7.0,-7.0,-3.0,0.0,1651071096421644.0,3
1698,-3.0,-1.0,4.0,24.0,0.0,-3.0,-2.0,-2.0,1651071096442781.0,3
1699,1.0,-2.0,-6.0,-14.0,0.0,-4.0,-1.0,-2.0,1651071096442781.0,3
1700,-1.0,-2.0,0.0,0.0,-1.0,3.0,-1.0,0.0,1651071096444709.0,3
1701,-1.0,1.0,0.0,-1.0,-4.0,-3.0,0.0,-1.0,1651071096444709.0,3
1702,0.0,0.0,-2.0,-8.0,-2.0,1.0,1.0,0.0,1651071096457690.0,3
1703,-1.0,0.0,1.0,8.0,3.0,-1.0,-1.0,0.0,1651071096457690.0,3
1704,-3.0,-2.0,-1.0,-1.0,1.0,2.0,0.0,-1.0,1651071096459696.0,3
1705,-2.0,-2.0,-1.0,-4.0,0.0,-3.0,-1.0,1.0,1651071096459696.0,3
1706,-1.0,-1.0,-1.0,-3.0,-1.0,-2.0,-2.0,-1.0,1651071096480863.0,3
1707,1.0,-1.0,0.0,2.0,-6.0,-5.0,-2.0,-2.0,1651071096480863.0,3
1708,1.0,-1.0,0.0,-6.0,-7.0,4.0,0.0,0.0,1651071096481534.0,3
1709,-1.0,-2.0,0.0,4.0,14.0,4.0,3.0,-1.0,1651071096481534.0,3
1710,-1.0,-1.0,1.0,-5.0,1.0,-2.0,1.0,1.0,1651071096503379.0,3
1711,0.0,-2.0,-5.0,-5.0,1.0,1.0,-1.0,-1.0,1651071096503379.0,3
1712,-1.0,1.0,1.0,8.0,2.0,-2.0,-1.0,0.0,1651071096504337.0,3
1713,0.0,-2.0,0.0,0.0,-6.0,-2.0,-2.0,-2.0,1651071096504337.0,3
1714,-1.0,-1.0,-2.0,-2.0,-3.0,0.0,-1.0,-1.0,1651071096517357.0,3
1715,-2.0,1.0,0.0,-5.0,-2.0,-4.0,0.0,1.0,1651071096517357.0,3
1716,-1.0,-2.0,-3.0,-7.0,0.0,-4.0,1.0,0.0,1651071096524460.0,3
1717,0.0,1.0,0.0,4.0,5.0,10.0,2.0,1.0,1651071096524460.0,3
1718,0.0,0.0,-2.0,-5.0,1.0,-1.0,-2.0,-2.0,1651071096540590.0,3
1719,1.0,-2.0,2.0,-6.0,-2.0,3.0,1.0,2.0,1651071096540590.0,3
1720,-2.0,-1.0,1.0,20.0,-1.0,-1.0,-2.0,-2.0,1651071096542532.0,3
1721,-1.0,-1.0,1.0,-9.0,-4.0,-4.0,-1.0,0.0,1651071096542532.0,3
1722,1.0,-1.0,0.0,1.0,-1.0,0.0,-1.0,-1.0,1651071096563366.0,3
1723,-1.0,-1.0,0.0,4.0,0.0,-2.0,0.0,-1.0,1651071096563366.0,3
1724,0.0,2.0,-6.0,-17.0,-6.0,-2.0,0.0,-1.0,1651071096564342.0,3
1725,0.0,0.0,1.0,3.0,-4.0,-6.0,-1.0,0.0,1651071096564342.0,3
1726,-2.0,0.0,1.0,7.0,4.0,3.0,0.0,0.0,1651071096577484.0,3
1727,-1.0,-1.0,2.0,6.0,9.0,2.0,-1.0,0.0,1651071096577484.0,3
1728,-1.0,0.0,1.0,-5.0,1.0,3.0,1.0,1.0,1651071096584407.0,3
1729,0.0,0.0,-5.0,-5.0,-9.0,-4.0,-2.0,-3.0,1651071096584407.0,3
1730,1.0,-1.0,-1.0,1.0,-9.0,-8.0,-1.0,0.0,1651071096599428.0,3
1731,0.0,0.0,1.0,8.0,3.0,1.0,1.0,0.0,1651071096599428.0,3
1732,-1.0,-2.0,-1.0,4.0,4.0,-1.0,-1.0,-1.0,1651071096608337.0,3
1733,0.0,-2.0,-1.0,-8.0,-8.0,-8.0,-1.0,-1.0,1651071096608337.0,3
1734,1.0,0.0,-3.0,-5.0,3.0,5.0,2.0,-2.0,1651071096622609.0,3
1735,1.0,1.0,-4.0,-4.0,1.0,2.0,1.0,0.0,1651071096622609.0,3
1736,-1.0,0.0,-1.0,-2.0,1.0,1.0,-1.0,0.0,1651071096624537.0,3
1737,2.0,-2.0,-2.0,-1.0,-3.0,-6.0,-1.0,0.0,1651071096624537.0,3
1738,-2.0,1.0,-1.0,-4.0,1.0,0.0,-2.0,0.0,1651071096637012.0,3
1739,-2.0,-1.0,6.0,9.0,-3.0,3.0,0.0,-1.0,1651071096637012.0,3
1740,-1.0,-2.0,-4.0,-8.0,-3.0,-3.0,-1.0,-1.0,1651071096645992.0,3
1741,-2.0,-3.0,0.0,3.0,0.0,-3.0,1.0,1.0,1651071096645992.0,3
1742,0.0,-1.0,1.0,-3.0,-1.0,1.0,-2.0,-1.0,1651071096660122.0,3
1743,-1.0,1.0,-2.0,-2.0,-2.0,-4.0,0.0,-2.0,1651071096660122.0,3
1744,0.0,-1.0,-4.0,-12.0,-2.0,0.0,-1.0,0.0,1651071096662051.0,3
1745,-1.0,0.0,2.0,12.0,0.0,1.0,-1.0,-1.0,1651071096662051.0,3
1746,1.0,2.0,6.0,12.0,1.0,1.0,0.0,1.0,1651071096683396.0,3
1747,-2.0,-2.0,-3.0,-6.0,-4.0,-2.0,1.0,1.0,1651071096683396.0,3
1748,0.0,-1.0,2.0,6.0,5.0,-4.0,2.0,-1.0,1651071096684396.0,3
1749,-1.0,-2.0,-2.0,-8.0,0.0,6.0,-1.0,0.0,1651071096684396.0,3
1750,0.0,-1.0,-2.0,-7.0,0.0,5.0,2.0,-1.0,1651071096697542.0,3
1751,0.0,-1.0,-1.0,2.0,-1.0,-3.0,-1.0,0.0,1651071096697542.0,3
1752,0.0,-2.0,0.0,0.0,-2.0,0.0,1.0,-1.0,1651071096704544.0,3
1753,-2.0,1.0,-2.0,-2.0,-7.0,-6.0,-2.0,-2.0,1651071096704544.0,3
1754,-1.0,-1.0,-1.0,-1.0,4.0,-2.0,-1.0,1.0,1651071096720493.0,3
1755,2.0,0.0,1.0,-1.0,0.0,1.0,0.0,-3.0,1651071096720493.0,3
1756,0.0,-2.0,-1.0,-2.0,1.0,5.0,2.0,-1.0,1651071096722421.0,3
1757,-2.0,0.0,0.0,-2.0,9.0,2.0,1.0,-1.0,1651071096722421.0,3
1758,-1.0,0.0,8.0,21.0,-5.0,-8.0,-4.0,-1.0,1651071096743389.0,3
1759,-2.0,-2.0,-7.0,-7.0,-2.0,-2.0,0.0,-1.0,1651071096743389.0,3
1760,-1.0,-1.0,-2.0,-1.0,-3.0,-2.0,-2.0,0.0,1651071096744358.0,3
1761,1.0,0.0,-2.0,-5.0,-2.0,1.0,-2.0,0.0,1651071096744358.0,3
1762,1.0,-1.0,-3.0,-10.0,-6.0,-3.0,0.0,-1.0,1651071096757391.0,3
1763,-1.0,1.0,6.0,7.0,1.0,-2.0,0.0,-2.0,1651071096757391.0,3
1764,-1.0,1.0,0.0,4.0,-1.0,-5.0,-1.0,-2.0,1651071096764327.0,3
1765,-2.0,-2.0,-2.0,-1.0,1.0,9.0,0.0,-2.0,1651071096764327.0,3
1766,0.0,-1.0,-4.0,-5.0,3.0,0.0,3.0,1.0,1651071096780519.0,3
1767,0.0,-2.0,-1.0,1.0,-8.0,0.0,-2.0,-1.0,1651071096780519.0,3
1768,0.0,-1.0,-2.0,-10.0,5.0,0.0,0.0,-1.0,1651071096781547.0,3
1769,0.0,-2.0,5.0,23.0,4.0,-4.0,-2.0,-2.0,1651071096781547.0,3
1770,-1.0,-3.0,-2.0,-1.0,-4.0,-7.0,-1.0,0.0,1651071096802656.0,3
1771,-2.0,-1.0,0.0,-1.0,1.0,5.0,0.0,1.0,1651071096802656.0,3
1772,0.0,-1.0,-1.0,-7.0,-5.0,0.0,-1.0,0.0,1651071096804581.0,3
1773,0.0,0.0,0.0,-6.0,-3.0,-4.0,-1.0,1.0,1651071096804581.0,3
1774,-1.0,-1.0,-9.0,-11.0,-1.0,1.0,-1.0,0.0,1651071096817613.0,3
1775,-1.0,0.0,-1.0,0.0,-2.0,-2.0,-1.0,-2.0,1651071096817613.0,3
1776,0.0,-1.0,2.0,5.0,1.0,2.0,0.0,0.0,1651071096823599.0,3
1777,0.0,1.0,-1.0,-2.0,-2.0,1.0,2.0,-1.0,1651071096823599.0,3
1778,-1.0,0.0,-3.0,-1.0,-2.0,1.0,-1.0,-3.0,1651071096840617.0,3
1779,-3.0,-1.0,-1.0,-2.0,8.0,0.0,0.0,2.0,1651071096840617.0,3
1780,2.0,-1.0,2.0,-3.0,4.0,1.0,1.0,0.0,1651071096841547.0,3
1781,-2.0,-1.0,3.0,11.0,1.0,0.0,0.0,-1.0,1651071096841547.0,3
1782,-3.0,-1.0,-3.0,-2.0,-5.0,-4.0,-1.0,-2.0,1651071096862669.0,3
1783,-1.0,-3.0,-5.0,-8.0,-3.0,-1.0,-2.0,-1.0,1651071096862669.0,3
1784,-1.0,0.0,0.0,5.0,0.0,-2.0,0.0,0.0,1651071096864597.0,3
1785,-1.0,-1.0,-4.0,-9.0,-2.0,0.0,1.0,0.0,1651071096864597.0,3
1786,1.0,0.0,2.0,-1.0,5.0,9.0,1.0,1.0,1651071096876729.0,3
1787,0.0,-1.0,2.0,3.0,0.0,-2.0,0.0,-1.0,1651071096876729.0,3
1788,0.0,-1.0,-2.0,3.0,6.0,3.0,-1.0,1.0,1651071096885698.0,3
1789,0.0,-1.0,-2.0,-4.0,-5.0,-2.0,-2.0,-1.0,1651071096885698.0,3
1790,0.0,0.0,1.0,3.0,-3.0,-5.0,-1.0,-2.0,1651071096900771.0,3
1791,-1.0,0.0,-6.0,-14.0,-1.0,0.0,0.0,-1.0,1651071096900771.0,3
1792,-1.0,-2.0,1.0,4.0,-5.0,-3.0,-3.0,-1.0,1651071096901767.0,3
1793,-1.0,-1.0,-1.0,-5.0,4.0,3.0,2.0,1.0,1651071096901767.0,3
1794,0.0,-2.0,1.0,4.0,3.0,0.0,-2.0,-1.0,1651071096923037.0,3
1795,1.0,-1.0,1.0,4.0,-5.0,-1.0,0.0,0.0,1651071096923037.0,3
1796,-3.0,0.0,2.0,0.0,-4.0,-3.0,-2.0,-2.0,1651071096924992.0,3
1797,0.0,-1.0,-4.0,-5.0,-3.0,-3.0,-3.0,-1.0,1651071096924992.0,3
1798,-2.0,0.0,-1.0,-8.0,-7.0,0.0,2.0,0.0,1651071096945960.0,3
1799,0.0,1.0,1.0,5.0,2.0,-3.0,0.0,0.0,1651071096945960.0,3
1800,-2.0,-1.0,-1.0,4.0,2.0,1.0,0.0,0.0,1651071096946907.0,3
1801,0.0,0.0,-2.0,-4.0,-5.0,-3.0,-2.0,0.0,1651071096946907.0,3
1802,0.0,-2.0,-2.0,-6.0,-2.0,-1.0,1.0,0.0,1651071096960862.0,3
1803,0.0,-1.0,0.0,7.0,6.0,1.0,0.0,0.0,1651071096960862.0,3
1804,-1.0,-2.0,-3.0,-2.0,0.0,2.0,0.0,1.0,1651071096961641.0,3
1805,-2.0,-1.0,3.0,14.0,4.0,0.0,0.0,0.0,1651071096961641.0,3
1806,-1.0,-1.0,1.0,1.0,3.0,-2.0,-1.0,1.0,1651071096983424.0,3
1807,-2.0,0.0,-1.0,-2.0,-1.0,0.0,-3.0,0.0,1651071096983424.0,3
1808,1.0,0.0,-1.0,-6.0,-2.0,-1.0,-2.0,0.0,1651071096984424.0,3
1809,2.0,0.0,-2.0,-3.0,2.0,1.0,2.0,-1.0,1651071096984424.0,3
1810,-1.0,1.0,-2.0,-3.0,-5.0,-4.0,-2.0,0.0,1651071096996816.0,3
1811,-2.0,-1.0,-3.0,-3.0,-3.0,-2.0,0.0,-1.0,1651071096996816.0,3
1812,0.0,-2.0,1.0,3.0,-3.0,2.0,2.0,-1.0,1651071097005777.0,3
1813,-1.0,0.0,-2.0,0.0,-2.0,-3.0,-1.0,-2.0,1651071097005777.0,3
1814,0.0,-1.0,2.0,2.0,0.0,-9.0,-2.0,0.0,1651071097020864.0,3
1815,-1.0,0.0,2.0,0.0,0.0,8.0,0.0,-1.0,1651071097020864.0,3
1816,0.0,1.0,-1.0,-1.0,4.0,3.0,1.0,1.0,1651071097021797.0,3
1817,2.0,-2.0,-3.0,-2.0,-1.0,-1.0,0.0,0.0,1651071097021797.0,3
1818,-1.0,-2.0,-3.0,-6.0,-3.0,-2.0,0.0,-1.0,1651071097050893.0,3
1819,-1.0,-1.0,3.0,8.0,-2.0,-5.0,0.0,1.0,1651071097050893.0,3
1820,-1.0,-1.0,-1.0,-5.0,-8.0,-1.0,-2.0,-2.0,1651071097051823.0,3
1821,-1.0,-1.0,3.0,0.0,9.0,3.0,2.0,-1.0,1651071097051823.0,3
1822,-1.0,-1.0,-3.0,-1.0,-1.0,-2.0,-2.0,2.0,1651071097056836.0,3
1823,0.0,0.0,0.0,-1.0,3.0,3.0,0.0,2.0,1651071097056836.0,3
1824,0.0,1.0,3.0,3.0,2.0,3.0,1.0,-1.0,1651071097065785.0,3
1825,-1.0,-1.0,-3.0,-3.0,-5.0,-3.0,-1.0,-2.0,1651071097065785.0,3
1826,-1.0,1.0,-2.0,-1.0,-2.0,0.0,-3.0,-1.0,1651071097080864.0,3
1827,0.0,-1.0,0.0,0.0,2.0,-2.0,-1.0,-2.0,1651071097080864.0,3
1828,-1.0,-1.0,-2.0,1.0,1.0,-2.0,-1.0,-1.0,1651071097081643.0,3
1829,-3.0,-1.0,-1.0,-5.0,-5.0,0.0,-1.0,0.0,1651071097081643.0,3
1830,0.0,-1.0,0.0,-4.0,-2.0,2.0,1.0,-1.0,1651071097102643.0,3
1831,-2.0,0.0,-2.0,3.0,3.0,-3.0,-2.0,-2.0,1651071097102643.0,3
1832,0.0,-1.0,3.0,11.0,-5.0,-3.0,-1.0,-2.0,1651071097104638.0,3
1833,0.0,-2.0,3.0,5.0,2.0,-2.0,0.0,1.0,1651071097104638.0,3
1834,0.0,0.0,-1.0,0.0,5.0,6.0,-1.0,-2.0,1651071097116675.0,3
1835,0.0,0.0,0.0,-10.0,-3.0,-2.0,1.0,-1.0,1651071097116675.0,3
1836,-1.0,-1.0,-5.0,-7.0,-3.0,-2.0,-1.0,1.0,1651071097125756.0,3
1837,0.0,-1.0,0.0,-1.0,-4.0,0.0,-1.0,-1.0,1651071097125756.0,3
1838,0.0,-3.0,0.0,-1.0,-4.0,-3.0,-2.0,-2.0,1651071097140889.0,3
1839,-1.0,-1.0,5.0,8.0,-3.0,-2.0,-1.0,0.0,1651071097140889.0,3
1840,0.0,0.0,1.0,2.0,5.0,7.0,3.0,0.0,1651071097141899.0,3
1841,-2.0,0.0,-2.0,-3.0,-2.0,-3.0,-1.0,0.0,1651071097141899.0,3
1842,-1.0,-3.0,-2.0,-2.0,1.0,1.0,0.0,-1.0,1651071097163423.0,3
1843,0.0,-1.0,-3.0,-5.0,-2.0,-1.0,-2.0,0.0,1651071097163423.0,3
1844,-1.0,-2.0,1.0,11.0,-8.0,-4.0,-2.0,1.0,1651071097164423.0,3
1845,-1.0,0.0,1.0,0.0,6.0,-1.0,-3.0,-1.0,1651071097164423.0,3
1846,2.0,-1.0,0.0,0.0,1.0,1.0,1.0,0.0,1651071097176628.0,3
1847,0.0,-1.0,-3.0,-7.0,-8.0,-1.0,-1.0,0.0,1651071097176628.0,0
1848,-3.0,0.0,1.0,1.0,-1.0,-2.0,-1.0,-1.0,1651071097185639.0,0
1849,1.0,-1.0,-1.0,1.0,-4.0,-8.0,-2.0,1.0,1651071097185639.0,0
1850,0.0,0.0,-1.0,0.0,4.0,6.0,1.0,0.0,1651071097200746.0,0
1851,-1.0,-1.0,1.0,-1.0,0.0,-1.0,0.0,1.0,1651071097200746.0,0
1852,1.0,-1.0,-2.0,-4.0,7.0,12.0,1.0,0.0,1651071097201746.0,0
1853,-2.0,0.0,2.0,4.0,-1.0,-2.0,1.0,0.0,1651071097201746.0,0
1854,-1.0,2.0,-2.0,-1.0,-6.0,-5.0,-3.0,-1.0,1651071097222763.0,0
1855,0.0,-1.0,-3.0,-3.0,0.0,-1.0,-1.0,0.0,1651071097222763.0,0
1856,0.0,0.0,-4.0,-1.0,-2.0,-5.0,-2.0,0.0,1651071097224727.0,0
1857,1.0,0.0,-1.0,-3.0,-3.0,-1.0,-2.0,1.0,1651071097224727.0,0
1858,1.0,0.0,2.0,4.0,6.0,-1.0,2.0,0.0,1651071097236798.0,0
1859,1.0,-1.0,0.0,4.0,-2.0,0.0,0.0,-1.0,1651071097236798.0,0
1860,-2.0,-1.0,-4.0,-14.0,3.0,-1.0,-1.0,0.0,1651071097245707.0,0
1861,-1.0,-1.0,1.0,11.0,2.0,5.0,-2.0,0.0,1651071097245707.0,0
1862,-2.0,1.0,0.0,0.0,-13.0,-7.0,-2.0,0.0,1651071097260776.0,0
1863,0.0,0.0,0.0,3.0,10.0,-1.0,0.0,0.0,1651071097260776.0,0
1864,-1.0,0.0,1.0,-6.0,-5.0,-1.0,0.0,-1.0,1651071097261707.0,0
1865,0.0,0.0,-5.0,-9.0,4.0,6.0,1.0,-1.0,1651071097261707.0,0
1866,-1.0,-2.0,0.0,3.0,-2.0,-1.0,-1.0,-1.0,1651071097282884.0,0
1867,0.0,0.0,-2.0,-4.0,-18.0,-5.0,-3.0,-2.0,1651071097282884.0,0
1868,-1.0,-1.0,2.0,8.0,10.0,-9.0,2.0,-2.0,1651071097284813.0,0
1869,1.0,0.0,-8.0,-14.0,-1.0,16.0,1.0,-1.0,1651071097284813.0,0
1870,1.0,0.0,1.0,2.0,3.0,0.0,1.0,-1.0,1651071097304902.0,0
1871,-2.0,0.0,-2.0,-3.0,-2.0,2.0,0.0,0.0,1651071097304902.0,0
1872,-1.0,0.0,-2.0,-7.0,-2.0,-8.0,-1.0,-1.0,1651071097306884.0,0
1873,-3.0,-3.0,0.0,8.0,-5.0,-8.0,-3.0,-2.0,1651071097306884.0,0
1874,1.0,1.0,0.0,-6.0,7.0,6.0,1.0,1.0,1651071097327894.0,0
1875,-1.0,-1.0,-2.0,1.0,-3.0,-4.0,0.0,-2.0,1651071097327894.0,0
1876,1.0,-1.0,-3.0,-1.0,-2.0,1.0,-3.0,-2.0,1651071097329823.0,0
1877,-1.0,-3.0,1.0,-6.0,8.0,-2.0,1.0,-1.0,1651071097329823.0,0
1878,-3.0,0.0,-3.0,-4.0,-1.0,3.0,-2.0,-3.0,1651071097343451.0,0
1879,-1.0,-1.0,-4.0,-14.0,-4.0,-6.0,-2.0,0.0,1651071097343451.0,0
1880,-1.0,2.0,7.0,25.0,10.0,11.0,4.0,3.0,1651071097344454.0,0
1881,2.0,0.0,4.0,-7.0,-9.0,0.0,2.0,3.0,1651071097344454.0,0
1882,-2.0,-7.0,-5.0,5.0,-3.0,-10.0,-5.0,-2.0,1651071097365580.0,0
1883,0.0,2.0,-8.0,-13.0,-3.0,0.0,-1.0,-2.0,1651071097365580.0,0
1884,-5.0,-1.0,-7.0,-5.0,-5.0,-4.0,-3.0,-4.0,1651071097366606.0,0
1885,0.0,0.0,1.0,-4.0,3.0,-1.0,0.0,-1.0,1651071097366606.0,0
1886,0.0,2.0,5.0,8.0,-4.0,1.0,0.0,0.0,1651071097380836.0,0
1887,2.0,1.0,4.0,13.0,8.0,4.0,1.0,2.0,1651071097380836.0,0
1888,2.0,-2.0,-1.0,-9.0,-1.0,2.0,1.0,4.0,1651071097381617.0,0
1889,0.0,4.0,-2.0,4.0,-2.0,-2.0,-3.0,-4.0,1651071097381617.0,0
1890,-1.0,-1.0,-1.0,-7.0,-6.0,-7.0,-4.0,-13.0,1651071097402564.0,0
1891,-5.0,-4.0,2.0,-1.0,-3.0,0.0,1.0,2.0,1651071097402564.0,4
1892,0.0,-8.0,-4.0,0.0,5.0,5.0,2.0,5.0,1651071097408547.0,4
1893,-2.0,-5.0,-6.0,-5.0,-13.0,-7.0,-2.0,-7.0,1651071097408547.0,4
1894,-6.0,-2.0,-3.0,-8.0,-5.0,-1.0,-1.0,-1.0,1651071097425506.0,4
1895,7.0,8.0,5.0,6.0,3.0,2.0,-2.0,29.0,1651071097425506.0,4
1896,10.0,12.0,12.0,9.0,18.0,10.0,2.0,-12.0,1651071097426499.0,4
1897,-1.0,-5.0,0.0,3.0,1.0,0.0,4.0,8.0,1651071097426499.0,4
1898,1.0,1.0,-7.0,-7.0,-9.0,1.0,10.0,2.0,1651071097439533.0,4
1899,6.0,-10.0,-4.0,2.0,-3.0,-4.0,-4.0,41.0,1651071097439533.0,4
1900,-7.0,-6.0,-6.0,-10.0,-10.0,-13.0,-23.0,-26.0,1651071097446512.0,4
1901,-24.0,-6.0,-3.0,3.0,4.0,6.0,-7.0,-98.0,1651071097446512.0,4
1902,-14.0,2.0,7.0,3.0,0.0,-5.0,-9.0,60.0,1651071097462566.0,4
1903,31.0,9.0,6.0,0.0,1.0,-9.0,-2.0,91.0,1651071097462566.0,4
1904,6.0,2.0,3.0,-2.0,-5.0,0.0,13.0,44.0,1651071097464494.0,4
1905,3.0,6.0,0.0,2.0,2.0,-5.0,-10.0,-29.0,1651071097464494.0,4
1906,-14.0,-7.0,-2.0,-3.0,2.0,3.0,-2.0,-66.0,1651071097485590.0,4
1907,-18.0,-6.0,-4.0,-2.0,2.0,4.0,-5.0,-72.0,1651071097485590.0,4
1908,13.0,-7.0,-1.0,5.0,-4.0,-4.0,-1.0,7.0,1651071097486619.0,4
1909,2.0,5.0,-1.0,-3.0,-3.0,1.0,10.0,13.0,1651071097486619.0,4
1910,14.0,2.0,-1.0,-3.0,3.0,2.0,3.0,6.0,1651071097500211.0,4
1911,-17.0,-2.0,-6.0,-1.0,0.0,0.0,0.0,-6.0,1651071097500211.0,4
1912,-7.0,10.0,12.0,1.0,0.0,2.0,1.0,-18.0,1651071097506688.0,4
1913,-39.0,-24.0,-14.0,-6.0,-1.0,1.0,4.0,33.0,1651071097506688.0,4
1914,2.0,5.0,2.0,5.0,4.0,0.0,-3.0,3.0,1651071097523361.0,4
1915,1.0,2.0,3.0,3.0,-3.0,-4.0,-2.0,-18.0,1651071097523361.0,4
1916,-69.0,-6.0,-1.0,-6.0,-7.0,0.0,3.0,-15.0,1651071097524695.0,4
1917,98.0,-1.0,-5.0,2.0,-1.0,-1.0,1.0,34.0,1651071097524695.0,4
1918,-6.0,-3.0,0.0,4.0,1.0,-2.0,-2.0,7.0,1651071097545550.0,4
1919,4.0,3.0,1.0,1.0,3.0,5.0,6.0,-17.0,1651071097545550.0,4
1920,-5.0,-7.0,-8.0,-2.0,-2.0,-3.0,-5.0,-19.0,1651071097546573.0,4
1921,2.0,6.0,3.0,-4.0,-6.0,-3.0,-1.0,22.0,1651071097546573.0,4
1922,9.0,9.0,-2.0,4.0,3.0,4.0,11.0,28.0,1651071097559546.0,4
1923,-25.0,6.0,-2.0,-6.0,2.0,1.0,5.0,-8.0,1651071097559546.0,4
1924,35.0,-4.0,-4.0,2.0,-4.0,-5.0,-3.0,7.0,1651071097568526.0,4
1925,-10.0,4.0,12.0,7.0,6.0,3.0,1.0,4.0,1651071097568526.0,4
1926,10.0,-7.0,-3.0,3.0,1.0,-1.0,-3.0,-13.0,1651071097582515.0,4
1927,-4.0,-7.0,-2.0,-13.0,-4.0,-1.0,-4.0,-25.0,1651071097582515.0,4
1928,-15.0,11.0,-3.0,1.0,-6.0,-4.0,-3.0,18.0,1651071097584482.0,4
