,EMG_s0,EMG_s1,EMG_s2,EMG_s3,EMG_s4,EMG_s5,EMG_s6,EMG_s7,timestamp,signal
0,1.0,0.0,-6.0,-7.0,0.0,1.0,-1.0,0.0,1651071303825388.0,0
1,1.0,-1.0,-1.0,1.0,0.0,1.0,1.0,0.0,1651071303825388.0,0
2,0.0,0.0,0.0,-4.0,-4.0,-2.0,0.0,0.0,1651071303847290.0,0
3,0.0,0.0,0.0,2.0,-5.0,-1.0,-2.0,0.0,1651071303847290.0,0
4,0.0,-1.0,0.0,1.0,-1.0,-2.0,1.0,0.0,1651071303847290.0,0
5,-1.0,0.0,-1.0,-3.0,-1.0,-1.0,-1.0,-1.0,1651071303847290.0,0
6,-1.0,-1.0,-4.0,0.0,-1.0,1.0,0.0,0.0,1651071303869452.0,0
7,-1.0,0.0,0.0,-2.0,-1.0,0.0,1.0,-1.0,1651071303869452.0,0
8,-1.0,1.0,0.0,-1.0,2.0,-1.0,1.0,0.0,1651071303870382.0,0
9,0.0,-1.0,-1.0,1.0,3.0,1.0,1.0,-1.0,1651071303870382.0,0
10,-2.0,0.0,0.0,0.0,-2.0,-2.0,-1.0,-1.0,1651071303884512.0,0
11,0.0,-1.0,-1.0,-3.0,-3.0,0.0,-3.0,1.0,1651071303884512.0,0
12,2.0,-1.0,1.0,2.0,0.0,0.0,-1.0,1.0,1651071303885512.0,0
13,0.0,-2.0,0.0,1.0,1.0,-1.0,0.0,0.0,1651071303885512.0,0
14,0.0,0.0,-3.0,-3.0,-2.0,-3.0,0.0,0.0,1651071303907339.0,0
15,-2.0,-3.0,0.0,2.0,2.0,0.0,-1.0,-1.0,1651071303907339.0,0
16,-1.0,0.0,2.0,3.0,-1.0,0.0,-1.0,0.0,1651071303907339.0,0
17,-1.0,-3.0,-8.0,-10.0,-2.0,-2.0,-1.0,-3.0,1651071303907339.0,0
18,0.0,1.0,-2.0,-1.0,-1.0,-3.0,-1.0,-2.0,1651071303922318.0,0
19,-2.0,0.0,0.0,-3.0,-4.0,0.0,0.0,2.0,1651071303922318.0,0
20,-2.0,0.0,1.0,3.0,-2.0,0.0,-2.0,-1.0,1651071303922318.0,0
21,0.0,0.0,3.0,3.0,-2.0,0.0,1.0,-3.0,1651071303922318.0,0
22,1.0,-2.0,-2.0,-2.0,-3.0,-2.0,-2.0,-1.0,1651071303944728.0,0
23,-2.0,-3.0,0.0,0.0,-5.0,-3.0,0.0,-2.0,1651071303944728.0,0
24,-1.0,0.0,-2.0,0.0,11.0,5.0,0.0,-1.0,1651071303945300.0,0
25,-1.0,0.0,0.0,0.0,2.0,1.0,-2.0,1.0,1651071303945300.0,0
26,-1.0,0.0,0.0,-3.0,4.0,3.0,0.0,-1.0,1651071303967294.0,0
27,2.0,0.0,2.0,2.0,-3.0,-3.0,-1.0,-1.0,1651071303967294.0,0
28,-1.0,-2.0,-1.0,-4.0,-8.0,-2.0,0.0,-2.0,1651071303967294.0,0
29,-1.0,0.0,0.0,0.0,-4.0,0.0,-1.0,0.0,1651071303967294.0,0
30,-2.0,0.0,0.0,2.0,-1.0,-1.0,1.0,0.0,1651071303981693.0,0
31,0.0,-1.0,-1.0,0.0,-3.0,-2.0,-1.0,2.0,1651071303981693.0,0
32,-2.0,-2.0,0.0,-1.0,-2.0,-3.0,1.0,-2.0,1651071303982690.0,0
33,0.0,-2.0,-5.0,-9.0,0.0,-1.0,0.0,2.0,1651071303982690.0,0
34,0.0,0.0,0.0,1.0,-3.0,-1.0,-1.0,0.0,1651071304004757.0,0
35,0.0,1.0,-3.0,-3.0,1.0,3.0,1.0,-2.0,1651071304004757.0,0
36,1.0,-1.0,-1.0,2.0,-1.0,-3.0,-1.0,0.0,1651071304004757.0,0
37,-2.0,-1.0,1.0,3.0,-3.0,-2.0,-2.0,-1.0,1651071304004757.0,0
38,-1.0,0.0,1.0,-1.0,-1.0,-2.0,-1.0,0.0,1651071304026738.0,0
39,2.0,-1.0,-3.0,-3.0,-1.0,-2.0,0.0,0.0,1651071304026738.0,0
40,1.0,0.0,1.0,-1.0,-3.0,-1.0,-1.0,0.0,1651071304027682.0,0
41,-2.0,-1.0,2.0,5.0,4.0,1.0,0.0,0.0,1651071304027682.0,0
42,1.0,-1.0,-2.0,-3.0,-2.0,2.0,-4.0,1.0,1651071304041699.0,0
43,2.0,1.0,-1.0,2.0,3.0,1.0,0.0,-3.0,1651071304041699.0,0
44,-1.0,-1.0,-1.0,-4.0,-2.0,-2.0,-3.0,0.0,1651071304042637.0,0
45,-1.0,0.0,-1.0,0.0,1.0,-2.0,0.0,-1.0,1651071304042637.0,0
46,0.0,-1.0,-1.0,3.0,0.0,0.0,1.0,0.0,1651071304064339.0,0
47,-4.0,-2.0,-1.0,-1.0,-2.0,-1.0,-1.0,-1.0,1651071304064339.0,0
48,1.0,0.0,0.0,-1.0,-1.0,1.0,-2.0,-2.0,1651071304065269.0,0
49,1.0,-2.0,0.0,1.0,0.0,-1.0,-1.0,-2.0,1651071304065269.0,0
50,0.0,0.0,-3.0,-1.0,-2.0,-1.0,0.0,0.0,1651071304086482.0,0
51,1.0,0.0,2.0,2.0,-2.0,-5.0,-2.0,0.0,1651071304086482.0,0
52,-1.0,-1.0,0.0,-2.0,-2.0,0.0,0.0,-1.0,1651071304087418.0,0
53,-2.0,-2.0,-1.0,-3.0,4.0,4.0,0.0,-1.0,1651071304087418.0,0
54,0.0,-2.0,-2.0,0.0,5.0,0.0,0.0,0.0,1651071304101382.0,0
55,1.0,0.0,-1.0,-1.0,0.0,2.0,-1.0,2.0,1651071304101382.0,0
56,1.0,0.0,1.0,4.0,-2.0,-3.0,-1.0,-1.0,1651071304102378.0,0
57,-1.0,2.0,2.0,0.0,-8.0,-4.0,-1.0,0.0,1651071304102378.0,0
58,-1.0,-1.0,1.0,-3.0,-3.0,-1.0,-2.0,-1.0,1651071304124727.0,0
59,-2.0,-3.0,1.0,-1.0,-6.0,-4.0,0.0,-1.0,1651071304124727.0,0
60,-2.0,0.0,-1.0,-1.0,2.0,3.0,1.0,-2.0,1651071304125294.0,0
61,0.0,-1.0,2.0,1.0,3.0,2.0,2.0,1.0,1651071304125294.0,0
62,0.0,0.0,2.0,4.0,3.0,0.0,0.0,-1.0,1651071304146739.0,0
63,0.0,0.0,0.0,-4.0,-2.0,1.0,-3.0,-1.0,1651071304146739.0,0
64,0.0,0.0,-4.0,-6.0,-3.0,-1.0,-1.0,-1.0,1651071304147668.0,0
65,0.0,-1.0,-1.0,-1.0,-4.0,-3.0,-1.0,0.0,1651071304147668.0,0
66,1.0,-1.0,0.0,0.0,-2.0,0.0,0.0,-1.0,1651071304161742.0,0
67,1.0,0.0,-1.0,2.0,-1.0,-3.0,0.0,-1.0,1651071304161742.0,0
68,0.0,-1.0,2.0,2.0,8.0,1.0,1.0,0.0,1651071304162707.0,0
69,0.0,2.0,0.0,-1.0,-1.0,4.0,1.0,0.0,1651071304162707.0,0
70,-1.0,1.0,1.0,1.0,-2.0,-2.0,1.0,0.0,1651071304184154.0,0
71,-1.0,-1.0,0.0,-1.0,-2.0,0.0,1.0,-1.0,1651071304184154.0,0
72,-1.0,-2.0,-2.0,-5.0,-4.0,-3.0,-1.0,-1.0,1651071304192169.0,0
73,0.0,-1.0,-2.0,1.0,0.0,-4.0,-1.0,0.0,1651071304192169.0,0
74,0.0,0.0,-1.0,0.0,3.0,-2.0,-2.0,-1.0,1651071304207232.0,0
75,0.0,-1.0,-2.0,-3.0,-4.0,-1.0,-1.0,-2.0,1651071304207232.0,0
76,0.0,0.0,2.0,9.0,3.0,3.0,0.0,0.0,1651071304207232.0,0
77,0.0,3.0,6.0,-2.0,3.0,-5.0,1.0,0.0,1651071304207232.0,0
78,-1.0,-3.0,-12.0,-5.0,0.0,6.0,0.0,1.0,1651071304229308.0,0
79,-2.0,6.0,5.0,0.0,4.0,-4.0,0.0,0.0,1651071304229308.0,0
80,-1.0,-4.0,0.0,2.0,9.0,11.0,3.0,1.0,1651071304230238.0,0
81,-1.0,0.0,2.0,2.0,-9.0,-5.0,-3.0,-3.0,1651071304230238.0,0
82,2.0,-4.0,2.0,2.0,-3.0,-3.0,-1.0,1.0,1651071304252991.0,0
83,-1.0,-3.0,-8.0,-1.0,-2.0,-3.0,0.0,1.0,1651071304252991.0,0
84,-1.0,2.0,0.0,-2.0,-7.0,-6.0,-1.0,-1.0,1651071304252991.0,0
85,-1.0,2.0,0.0,-1.0,2.0,2.0,-3.0,0.0,1651071304252991.0,0
86,-2.0,2.0,-2.0,-3.0,0.0,-2.0,0.0,-1.0,1651071304266446.0,0
87,1.0,1.0,0.0,0.0,2.0,3.0,0.0,0.0,1651071304266446.0,0
88,1.0,0.0,0.0,-2.0,-2.0,-2.0,0.0,0.0,1651071304267443.0,0
89,-1.0,-4.0,-5.0,-3.0,-8.0,-1.0,-2.0,-1.0,1651071304267443.0,0
90,-1.0,1.0,-7.0,0.0,0.0,-6.0,-2.0,-3.0,1651071304289624.0,0
91,0.0,-5.0,5.0,4.0,14.0,9.0,3.0,1.0,1651071304289624.0,0
92,-1.0,2.0,-6.0,-10.0,-5.0,-3.0,-2.0,-1.0,1651071304289624.0,0
93,-1.0,0.0,1.0,2.0,0.0,3.0,-1.0,-1.0,1651071304289624.0,0
94,-2.0,2.0,2.0,-1.0,-7.0,-2.0,0.0,0.0,1651071304312899.0,0
95,-2.0,-1.0,-2.0,0.0,1.0,-3.0,1.0,0.0,1651071304312899.0,0
96,2.0,-1.0,1.0,1.0,0.0,-3.0,-1.0,0.0,1651071304312899.0,0
97,1.0,-1.0,-1.0,0.0,0.0,-1.0,-2.0,0.0,1651071304312899.0,0
98,0.0,0.0,0.0,-2.0,-1.0,0.0,-1.0,-1.0,1651071304327301.0,0
99,0.0,-1.0,-2.0,-1.0,1.0,3.0,0.0,-2.0,1651071304327301.0,0
100,-3.0,-1.0,2.0,-1.0,-4.0,-2.0,-2.0,0.0,1651071304327301.0,0
101,0.0,0.0,-3.0,-3.0,0.0,0.0,-1.0,-2.0,1651071304327301.0,0
102,-1.0,0.0,2.0,-3.0,-8.0,0.0,0.0,1.0,1651071304349318.0,0
103,0.0,2.0,0.0,-1.0,1.0,-2.0,-2.0,-3.0,1651071304349318.0,0
104,1.0,0.0,-2.0,0.0,-4.0,-1.0,1.0,-1.0,1651071304350249.0,0
105,1.0,-2.0,-1.0,0.0,3.0,-1.0,2.0,1.0,1651071304350249.0,0
106,-1.0,-1.0,3.0,0.0,3.0,1.0,0.0,-1.0,1651071304372967.0,0
107,-2.0,-1.0,1.0,-1.0,-7.0,-4.0,-1.0,-1.0,1651071304372967.0,0
108,-2.0,-1.0,-8.0,-7.0,0.0,-3.0,-3.0,-2.0,1651071304373609.0,0
109,0.0,-2.0,-1.0,2.0,-1.0,-1.0,1.0,0.0,1651071304373609.0,0
110,-2.0,0.0,1.0,0.0,1.0,-1.0,2.0,-1.0,1651071304386623.0,0
111,-2.0,1.0,2.0,1.0,1.0,3.0,0.0,-1.0,1651071304386623.0,0
112,1.0,1.0,1.0,3.0,2.0,-2.0,1.0,1.0,1651071304387599.0,0
113,1.0,0.0,-2.0,-1.0,3.0,-1.0,-2.0,-1.0,1651071304387599.0,0
114,1.0,-1.0,1.0,0.0,-5.0,-2.0,-4.0,-1.0,1651071304409213.0,0
115,-1.0,2.0,-2.0,-3.0,-2.0,-3.0,-2.0,0.0,1651071304409213.0,0
116,-4.0,-3.0,-1.0,1.0,-1.0,-1.0,-2.0,0.0,1651071304410143.0,0
117,-2.0,0.0,-1.0,-5.0,-6.0,-3.0,0.0,-1.0,1651071304410143.0,0
118,-1.0,0.0,2.0,2.0,3.0,-1.0,2.0,0.0,1651071304432313.0,0
119,0.0,2.0,-2.0,-3.0,3.0,0.0,0.0,0.0,1651071304432313.0,0
120,1.0,1.0,0.0,0.0,-1.0,1.0,0.0,-1.0,1651071304433245.0,0
121,1.0,-2.0,0.0,6.0,7.0,3.0,2.0,1.0,1651071304433245.0,0
122,1.0,-2.0,-6.0,-13.0,-4.0,-2.0,-3.0,-2.0,1651071304446356.0,0
123,1.0,-3.0,0.0,0.0,-4.0,-1.0,-3.0,0.0,1651071304446356.0,0
124,-2.0,0.0,1.0,0.0,-2.0,-2.0,-2.0,-2.0,1651071304454751.0,0
125,-1.0,1.0,-1.0,2.0,-3.0,0.0,-1.0,-2.0,1651071304454751.0,0
126,0.0,0.0,1.0,5.0,3.0,0.0,0.0,-1.0,1651071304469476.0,0
127,-2.0,-2.0,-2.0,-2.0,-2.0,1.0,0.0,1.0,1651071304469476.0,0
128,1.0,-2.0,0.0,0.0,-4.0,-1.0,-1.0,0.0,1651071304470437.0,0
129,-2.0,-3.0,-1.0,-3.0,-5.0,0.0,-2.0,-2.0,1651071304470437.0,0
130,1.0,0.0,1.0,-2.0,3.0,2.0,1.0,-2.0,1651071304492790.0,0
131,0.0,1.0,-4.0,-3.0,-1.0,-1.0,0.0,-1.0,1651071304492790.0,0
132,0.0,0.0,3.0,1.0,0.0,0.0,0.0,-1.0,1651071304492790.0,0
133,-1.0,-1.0,0.0,0.0,-5.0,-4.0,-3.0,-1.0,1651071304492790.0,0
134,-2.0,-2.0,1.0,4.0,8.0,0.0,-1.0,0.0,1651071304506510.0,0
135,0.0,-1.0,0.0,1.0,3.0,0.0,0.0,0.0,1651071304506510.0,0
136,0.0,0.0,2.0,2.0,7.0,6.0,1.0,-2.0,1651071304507440.0,0
137,0.0,1.0,-1.0,1.0,-3.0,-2.0,1.0,0.0,1651071304507440.0,0
138,-1.0,-4.0,-10.0,-12.0,-4.0,-1.0,0.0,0.0,1651071304529600.0,0
139,0.0,0.0,-1.0,2.0,-1.0,-1.0,-2.0,-1.0,1651071304529600.0,0
140,0.0,0.0,1.0,-4.0,-4.0,-1.0,0.0,1.0,1651071304530572.0,0
141,-1.0,-1.0,1.0,0.0,4.0,-1.0,-1.0,0.0,1651071304530572.0,0
142,0.0,1.0,3.0,2.0,-2.0,1.0,1.0,1.0,1651071304552582.0,0
143,-1.0,-2.0,0.0,0.0,-1.0,0.0,0.0,-1.0,1651071304552582.0,0
144,-1.0,0.0,-4.0,0.0,-1.0,-2.0,0.0,-1.0,1651071304553513.0,0
145,-1.0,0.0,-1.0,-2.0,0.0,-1.0,2.0,0.0,1651071304553513.0,0
146,-1.0,-1.0,-1.0,2.0,-3.0,-2.0,0.0,0.0,1651071304566478.0,0
147,0.0,-1.0,-2.0,-2.0,-4.0,-2.0,0.0,-2.0,1651071304566478.0,0
148,-1.0,0.0,0.0,2.0,0.0,0.0,1.0,-1.0,1651071304567476.0,0
149,0.0,1.0,-1.0,-1.0,1.0,-1.0,0.0,-2.0,1651071304567476.0,0
150,-2.0,2.0,-1.0,-3.0,-5.0,-1.0,-2.0,2.0,1651071304589582.0,0
151,-2.0,-1.0,0.0,1.0,6.0,1.0,-1.0,-1.0,1651071304589582.0,0
152,0.0,-3.0,-1.0,0.0,5.0,-2.0,-1.0,0.0,1651071304590512.0,0
153,-1.0,1.0,0.0,3.0,-2.0,1.0,1.0,0.0,1651071304590512.0,0
154,0.0,-1.0,-3.0,-10.0,-5.0,1.0,-3.0,-1.0,1651071304620401.0,0
155,0.0,-1.0,-2.0,0.0,0.0,-1.0,-1.0,-1.0,1651071304620401.0,0
156,-1.0,-1.0,0.0,0.0,-3.0,-2.0,-2.0,0.0,1651071304620805.0,0
157,1.0,-1.0,-1.0,0.0,1.0,-1.0,-1.0,1.0,1651071304620805.0,0
158,-1.0,1.0,1.0,6.0,-2.0,-2.0,0.0,-2.0,1651071304626802.0,0
159,1.0,-1.0,0.0,-2.0,-4.0,-1.0,0.0,0.0,1651071304626802.0,0
160,-1.0,-1.0,-2.0,-1.0,0.0,0.0,-2.0,-2.0,1651071304627819.0,0
161,0.0,-1.0,0.0,-3.0,-2.0,-3.0,1.0,-1.0,1651071304627819.0,0
162,0.0,-1.0,3.0,5.0,-1.0,-1.0,0.0,-2.0,1651071304649786.0,0
163,-2.0,-2.0,-1.0,-3.0,-1.0,1.0,-3.0,-1.0,1651071304649786.0,0
164,1.0,0.0,0.0,2.0,-4.0,-2.0,-3.0,0.0,1651071304649786.0,0
165,-3.0,0.0,-2.0,-2.0,5.0,5.0,-1.0,-1.0,1651071304649786.0,0
166,-2.0,1.0,1.0,2.0,4.0,-1.0,1.0,1.0,1651071304672925.0,0
167,0.0,0.0,-1.0,4.0,4.0,-2.0,0.0,-1.0,1651071304672925.0,0
168,-1.0,-1.0,2.0,-2.0,-2.0,1.0,0.0,0.0,1651071304673288.0,0
169,0.0,0.0,-5.0,-8.0,-3.0,-2.0,-2.0,0.0,1651071304673288.0,0
170,0.0,-2.0,-2.0,0.0,-6.0,-1.0,0.0,1.0,1651071304686362.0,0
171,-1.0,-1.0,-1.0,-2.0,-1.0,-1.0,-1.0,0.0,1651071304686362.0,0
172,-2.0,1.0,-2.0,1.0,-1.0,1.0,1.0,-1.0,1651071304687289.0,0
173,-1.0,-1.0,-1.0,-1.0,-1.0,-1.0,0.0,0.0,1651071304687289.0,0
174,-1.0,-3.0,0.0,-2.0,1.0,2.0,-1.0,-1.0,1651071304709474.0,0
175,0.0,1.0,0.0,0.0,-5.0,-1.0,-1.0,0.0,1651071304709474.0,0
176,-1.0,-1.0,-4.0,-2.0,0.0,-2.0,-3.0,-1.0,1651071304710405.0,0
177,-1.0,-2.0,1.0,-1.0,0.0,1.0,1.0,-1.0,1651071304710405.0,0
178,0.0,1.0,0.0,-1.0,-2.0,0.0,-2.0,-1.0,1651071304731634.0,0
179,-1.0,-1.0,0.0,-1.0,-2.0,0.0,0.0,0.0,1651071304731634.0,0
180,-1.0,0.0,0.0,4.0,4.0,-1.0,-2.0,0.0,1651071304739660.0,0
181,0.0,-1.0,1.0,-6.0,-5.0,-4.0,-2.0,-1.0,1651071304739660.0,0
182,0.0,-2.0,-2.0,2.0,-2.0,-3.0,1.0,0.0,1651071304746663.0,0
183,0.0,0.0,2.0,-1.0,3.0,0.0,2.0,0.0,1651071304746663.0,0
184,-1.0,-1.0,3.0,1.0,-2.0,1.0,1.0,1.0,1651071304747593.0,0
185,1.0,-2.0,-2.0,8.0,-4.0,-2.0,-2.0,-1.0,1651071304747593.0,0
186,-2.0,0.0,-3.0,-4.0,1.0,0.0,0.0,-1.0,1651071304769742.0,0
187,-1.0,0.0,-3.0,-2.0,-5.0,-2.0,0.0,-1.0,1651071304769742.0,0
188,1.0,0.0,-1.0,0.0,-2.0,0.0,0.0,-2.0,1651071304769742.0,0
189,-2.0,0.0,-1.0,1.0,1.0,0.0,1.0,1.0,1651071304769742.0,0
190,-1.0,0.0,0.0,-1.0,0.0,0.0,-2.0,0.0,1651071304792536.0,0
191,-4.0,-3.0,-3.0,0.0,-3.0,-3.0,-1.0,-2.0,1651071304792536.0,0
192,-1.0,-1.0,-2.0,-1.0,2.0,-2.0,-2.0,1.0,1651071304793467.0,0
193,0.0,1.0,-4.0,-1.0,-2.0,-1.0,1.0,0.0,1651071304793467.0,0
194,2.0,0.0,-1.0,0.0,2.0,1.0,0.0,1.0,1651071304806499.0,0
195,0.0,-1.0,2.0,0.0,-4.0,-3.0,0.0,0.0,1651071304806499.0,0
196,-1.0,-1.0,1.0,1.0,-3.0,-2.0,-1.0,-2.0,1651071304807430.0,0
197,-1.0,-1.0,1.0,-5.0,0.0,-1.0,-2.0,-2.0,1651071304807430.0,0
198,0.0,0.0,-1.0,1.0,-2.0,0.0,0.0,-1.0,1651071304829672.0,0
199,-1.0,0.0,-2.0,-1.0,1.0,1.0,0.0,0.0,1651071304829672.0,0
200,0.0,-1.0,-2.0,-4.0,-1.0,1.0,-1.0,1.0,1651071304829672.0,0
201,0.0,2.0,1.0,3.0,-2.0,0.0,-1.0,0.0,1651071304829672.0,0
202,0.0,-1.0,2.0,1.0,-3.0,-2.0,-1.0,-1.0,1651071304852989.0,0
203,2.0,0.0,1.0,2.0,14.0,5.0,1.0,1.0,1651071304852989.0,0
204,-1.0,-1.0,-2.0,1.0,-1.0,1.0,0.0,1.0,1651071304852989.0,0
205,1.0,1.0,0.0,0.0,2.0,1.0,0.0,0.0,1651071304852989.0,0
206,-2.0,1.0,-2.0,-1.0,-2.0,-2.0,1.0,-1.0,1651071304866073.0,0
207,0.0,1.0,-2.0,-2.0,-7.0,-4.0,-1.0,-2.0,1651071304866073.0,0
208,0.0,-1.0,-1.0,-4.0,-1.0,0.0,1.0,0.0,1651071304874713.0,0
209,-2.0,-1.0,-1.0,-1.0,1.0,2.0,-1.0,-1.0,1651071304874713.0,0
210,-1.0,-1.0,0.0,-1.0,1.0,-3.0,1.0,0.0,1651071304889731.0,0
211,1.0,0.0,-1.0,0.0,-1.0,0.0,2.0,-1.0,1651071304889731.0,0
212,2.0,1.0,0.0,1.0,-5.0,-2.0,-2.0,0.0,1651071304889731.0,0
213,0.0,-1.0,2.0,3.0,0.0,0.0,0.0,0.0,1651071304889731.0,0
214,1.0,-1.0,-6.0,-10.0,4.0,1.0,1.0,0.0,1651071304912906.0,0
215,0.0,-2.0,1.0,3.0,-2.0,0.0,0.0,-1.0,1651071304912906.0,0
216,-1.0,0.0,-4.0,-3.0,0.0,-2.0,0.0,-3.0,1651071304912906.0,0
217,0.0,0.0,1.0,3.0,-3.0,-2.0,-1.0,1.0,1651071304912906.0,0
218,-1.0,-2.0,1.0,2.0,-2.0,0.0,-1.0,0.0,1651071304926039.0,0
219,0.0,-2.0,-1.0,-4.0,-1.0,-1.0,-1.0,-1.0,1651071304926039.0,0
220,0.0,-1.0,1.0,0.0,-1.0,-1.0,0.0,-1.0,1651071304934018.0,0
221,0.0,0.0,-1.0,0.0,-1.0,-3.0,-2.0,-1.0,1651071304934018.0,0
222,-2.0,-1.0,0.0,2.0,-1.0,-2.0,-2.0,-1.0,1651071304949059.0,0
223,-1.0,-1.0,-2.0,0.0,0.0,2.0,0.0,1.0,1651071304949059.0,0
224,0.0,-1.0,0.0,1.0,1.0,0.0,0.0,1.0,1651071304949986.0,0
225,-1.0,-2.0,-3.0,-3.0,2.0,1.0,-1.0,-1.0,1651071304949986.0,0
226,1.0,1.0,-1.0,-1.0,-2.0,-2.0,-1.0,-2.0,1651071304972926.0,0
227,-2.0,-2.0,-2.0,-1.0,-4.0,-2.0,-2.0,-1.0,1651071304972926.0,0
228,-2.0,-1.0,0.0,0.0,2.0,0.0,1.0,0.0,1651071304973454.0,0
229,-1.0,-2.0,-1.0,-2.0,0.0,0.0,-1.0,0.0,1651071304973454.0,0
230,1.0,-2.0,1.0,1.0,-2.0,-2.0,-1.0,-2.0,1651071304986489.0,0
231,1.0,-1.0,-2.0,0.0,-3.0,0.0,-3.0,0.0,1651071304986489.0,0
232,0.0,-1.0,-1.0,3.0,0.0,0.0,0.0,0.0,1651071304994447.0,0
233,1.0,0.0,0.0,-6.0,1.0,1.0,0.0,1.0,1651071304994447.0,0
234,-2.0,0.0,2.0,4.0,10.0,2.0,0.0,0.0,1651071305017581.0,0
235,1.0,-1.0,-2.0,-2.0,-1.0,-2.0,1.0,0.0,1651071305017581.0,0
236,-1.0,-1.0,-2.0,-1.0,-2.0,-3.0,0.0,0.0,1651071305018510.0,0
237,-1.0,-1.0,1.0,1.0,-5.0,-2.0,-1.0,0.0,1651071305018510.0,0
238,-2.0,1.0,-1.0,-1.0,-4.0,-2.0,-1.0,0.0,1651071305032989.0,0
239,-1.0,0.0,-1.0,-2.0,-3.0,-4.0,-3.0,-2.0,1651071305032989.0,0
240,0.0,0.0,-3.0,-2.0,3.0,6.0,1.0,0.0,1651071305032989.0,0
241,2.0,0.0,0.0,2.0,7.0,2.0,2.0,1.0,1651071305032989.0,0
242,1.0,-1.0,2.0,0.0,-4.0,-3.0,-2.0,0.0,1651071305045877.0,0
243,0.0,-1.0,-2.0,-1.0,-8.0,-3.0,-1.0,0.0,1651071305045877.0,0
244,-1.0,-1.0,0.0,-5.0,-2.0,-6.0,-2.0,-3.0,1651071305054003.0,0
245,-2.0,0.0,-1.0,-1.0,1.0,0.0,2.0,0.0,1651071305054003.0,0
246,-2.0,0.0,3.0,1.0,2.0,4.0,1.0,1.0,1651071305069597.0,0
247,0.0,-1.0,-2.0,1.0,-2.0,-3.0,-2.0,-1.0,1651071305069597.0,0
248,-1.0,-1.0,-1.0,4.0,10.0,3.0,-1.0,-1.0,1651071305070528.0,0
249,-1.0,-1.0,-3.0,-11.0,-13.0,0.0,-1.0,-1.0,1651071305070528.0,0
250,1.0,1.0,1.0,2.0,9.0,1.0,-1.0,0.0,1651071305092971.0,0
251,0.0,3.0,4.0,-3.0,-7.0,-6.0,-1.0,0.0,1651071305092971.0,0
252,-1.0,-4.0,-11.0,-5.0,-11.0,-4.0,-2.0,-1.0,1651071305092971.0,0
253,1.0,-1.0,9.0,11.0,21.0,12.0,4.0,0.0,1651071305092971.0,0
254,3.0,8.0,10.0,2.0,-4.0,2.0,0.0,-2.0,1651071305106361.0,0
255,-4.0,-10.0,-4.0,-6.0,-6.0,-2.0,-3.0,-2.0,1651071305106361.0,0
256,-1.0,-1.0,-1.0,-5.0,-11.0,-12.0,-5.0,-3.0,1651071305114340.0,0
257,-2.0,4.0,-13.0,-4.0,-9.0,-6.0,-3.0,-2.0,1651071305114340.0,0
258,-1.0,12.0,8.0,-3.0,-13.0,-15.0,-6.0,-4.0,1651071305130283.0,0
259,-4.0,1.0,-12.0,11.0,39.0,31.0,9.0,1.0,1651071305130283.0,1
260,4.0,-3.0,0.0,4.0,6.0,-1.0,-2.0,-1.0,1651071305130283.0,1
261,16.0,12.0,-9.0,5.0,1.0,5.0,14.0,20.0,1651071305130283.0,1
262,-2.0,-14.0,4.0,5.0,-3.0,-2.0,1.0,4.0,1651071305151498.0,1
263,1.0,-5.0,-6.0,-12.0,-20.0,-13.0,-3.0,-1.0,1651071305151498.0,1
264,1.0,2.0,1.0,-2.0,-5.0,-1.0,-3.0,-5.0,1651071305152439.0,1
265,-2.0,10.0,4.0,-3.0,4.0,-2.0,-3.0,-6.0,1651071305152439.0,1
266,-2.0,-4.0,-8.0,-6.0,-2.0,0.0,2.0,2.0,1651071305182506.0,1
267,0.0,2.0,4.0,3.0,-1.0,0.0,1.0,2.0,1651071305182506.0,1
268,-4.0,1.0,1.0,-2.0,6.0,6.0,2.0,-1.0,1651071305183436.0,1
269,-3.0,-7.0,2.0,0.0,-5.0,-9.0,-6.0,-7.0,1651071305183436.0,1
270,-1.0,3.0,-2.0,1.0,4.0,6.0,1.0,0.0,1651071305189447.0,1
271,-4.0,-6.0,0.0,-2.0,0.0,-1.0,-4.0,-4.0,1651071305189447.0,1
272,3.0,5.0,3.0,2.0,-1.0,-1.0,2.0,3.0,1651071305190445.0,1
273,-4.0,-5.0,0.0,2.0,-4.0,-2.0,-2.0,-3.0,1651071305190445.0,1
274,-4.0,-6.0,-9.0,-4.0,1.0,2.0,-1.0,0.0,1651071305212925.0,1
275,4.0,3.0,-3.0,-8.0,2.0,-1.0,2.0,1.0,1651071305212925.0,1
276,-1.0,-1.0,4.0,-9.0,0.0,-2.0,1.0,1.0,1651071305213356.0,1
277,-5.0,-5.0,4.0,21.0,-2.0,-3.0,-2.0,-2.0,1651071305213356.0,1
278,0.0,-5.0,-1.0,6.0,6.0,3.0,0.0,-3.0,1651071305234524.0,1
279,6.0,6.0,10.0,12.0,-2.0,-5.0,1.0,3.0,1651071305234524.0,1
280,-2.0,-1.0,-2.0,-12.0,-5.0,2.0,0.0,1.0,1651071305235476.0,1
281,-2.0,-6.0,-5.0,-13.0,0.0,0.0,-1.0,-3.0,1651071305235476.0,1
282,1.0,0.0,-5.0,-3.0,-2.0,-2.0,0.0,0.0,1651071305249528.0,1
283,0.0,2.0,1.0,-2.0,-3.0,-3.0,-3.0,-2.0,1651071305249528.0,1
284,-1.0,1.0,2.0,5.0,-2.0,1.0,1.0,2.0,1651071305250501.0,1
285,-1.0,-3.0,-7.0,-14.0,-1.0,-2.0,-2.0,-1.0,1651071305250501.0,1
286,-1.0,-2.0,-3.0,1.0,-3.0,-1.0,-3.0,-3.0,1651071305272436.0,1
287,0.0,2.0,3.0,-1.0,5.0,2.0,1.0,1.0,1651071305272436.0,1
288,0.0,-3.0,-2.0,6.0,3.0,2.0,1.0,0.0,1651071305273395.0,1
289,-1.0,-2.0,2.0,-1.0,-16.0,-6.0,-3.0,-3.0,1651071305273395.0,1
290,2.0,2.0,0.0,-3.0,5.0,1.0,-1.0,1.0,1651071305294567.0,1
291,-3.0,-2.0,2.0,0.0,-1.0,-2.0,0.0,-1.0,1651071305294567.0,1
292,0.0,1.0,1.0,4.0,5.0,3.0,-1.0,2.0,1651071305295567.0,1
293,-1.0,-1.0,1.0,-4.0,-2.0,-1.0,0.0,-1.0,1651071305295567.0,1
294,0.0,-2.0,-2.0,-3.0,-6.0,0.0,0.0,0.0,1651071305309646.0,1
295,-1.0,1.0,-6.0,0.0,-2.0,-1.0,-2.0,-3.0,1651071305309646.0,1
296,2.0,2.0,2.0,5.0,2.0,1.0,1.0,2.0,1651071305309646.0,1
297,-1.0,-3.0,0.0,-3.0,-6.0,-2.0,-2.0,-1.0,1651071305309646.0,1
298,-2.0,0.0,2.0,2.0,6.0,3.0,0.0,1.0,1651071305332503.0,1
299,-2.0,-2.0,-4.0,-9.0,-4.0,-4.0,2.0,-1.0,1651071305332503.0,1
300,-1.0,-1.0,-1.0,-4.0,-5.0,-4.0,-2.0,-2.0,1651071305333432.0,1
301,0.0,-4.0,-9.0,-3.0,14.0,5.0,1.0,1.0,1651071305333432.0,1
302,0.0,-1.0,2.0,8.0,4.0,-1.0,0.0,-1.0,1651071305355184.0,1
303,1.0,1.0,0.0,-1.0,-8.0,-3.0,-3.0,-2.0,1651071305355184.0,1
304,-2.0,0.0,0.0,-2.0,-6.0,0.0,-1.0,-2.0,1651071305356196.0,1
305,0.0,-1.0,7.0,9.0,1.0,-3.0,-1.0,-1.0,1651071305356196.0,1
306,-2.0,5.0,2.0,-11.0,-4.0,-3.0,-2.0,-3.0,1651071305369202.0,1
307,-1.0,-8.0,-20.0,-3.0,1.0,-1.0,0.0,1.0,1651071305369202.0,1
308,1.0,-1.0,6.0,-3.0,-6.0,-1.0,1.0,-1.0,1651071305370131.0,1
309,-2.0,-2.0,1.0,7.0,6.0,2.0,-1.0,-3.0,1651071305370131.0,1
310,1.0,-2.0,-5.0,-10.0,-3.0,0.0,1.0,1.0,1651071305392924.0,1
311,0.0,4.0,7.0,3.0,-1.0,-1.0,-1.0,1.0,1651071305392924.0,1
312,-1.0,-1.0,-8.0,1.0,-1.0,-1.0,1.0,0.0,1651071305393628.0,1
313,-1.0,1.0,-1.0,-6.0,1.0,0.0,-1.0,-2.0,1651071305393628.0,1
314,-2.0,-6.0,-4.0,-1.0,2.0,2.0,-1.0,-1.0,1651071305413693.0,1
315,3.0,3.0,2.0,2.0,-2.0,1.0,-1.0,0.0,1651071305413693.0,1
316,1.0,0.0,-3.0,-2.0,0.0,-1.0,2.0,2.0,1651071305421721.0,1
317,-5.0,-5.0,-3.0,-7.0,1.0,2.0,0.0,-2.0,1651071305421721.0,1
318,0.0,1.0,-4.0,6.0,-1.0,-4.0,-1.0,0.0,1651071305429727.0,1
319,-2.0,1.0,10.0,14.0,4.0,0.0,-3.0,-3.0,1651071305429727.0,1
320,-1.0,-1.0,6.0,5.0,-1.0,-1.0,-3.0,-2.0,1651071305429727.0,1
321,2.0,0.0,-3.0,-5.0,1.0,-3.0,1.0,0.0,1651071305429727.0,1
322,-1.0,-2.0,-1.0,-5.0,1.0,5.0,2.0,-1.0,1651071305452728.0,1
323,-7.0,6.0,3.0,3.0,3.0,-1.0,-4.0,-5.0,1651071305452728.0,1
324,-1.0,4.0,-1.0,-16.0,-23.0,-9.0,-4.0,-9.0,1651071305453663.0,1
325,-10.0,-15.0,-17.0,-9.0,-13.0,-4.0,-6.0,-3.0,1651071305453663.0,1
326,-4.0,-8.0,4.0,11.0,25.0,13.0,0.0,-28.0,1651071305474840.0,1
327,7.0,8.0,-1.0,10.0,40.0,26.0,21.0,33.0,1651071305474840.0,1
328,-9.0,-26.0,-26.0,-6.0,-14.0,0.0,7.0,4.0,1651071305475769.0,1
329,15.0,14.0,12.0,-10.0,-13.0,-3.0,-5.0,21.0,1651071305475769.0,1
330,8.0,8.0,10.0,6.0,-8.0,-16.0,-13.0,-8.0,1651071305489698.0,1
331,2.0,7.0,-33.0,-8.0,27.0,19.0,12.0,12.0,1651071305489698.0,1
332,2.0,2.0,27.0,8.0,-9.0,-8.0,-2.0,38.0,1651071305489698.0,1
333,-1.0,8.0,2.0,2.0,10.0,-9.0,-10.0,38.0,1651071305489698.0,1
334,5.0,-8.0,-5.0,-2.0,-19.0,-6.0,-14.0,23.0,1651071305511534.0,1
335,-3.0,-1.0,28.0,-2.0,-21.0,-19.0,-6.0,-17.0,1651071305511534.0,1
336,-12.0,-2.0,-19.0,-4.0,7.0,-1.0,1.0,-27.0,1651071305512531.0,1
337,-13.0,5.0,11.0,5.0,1.0,5.0,11.0,-13.0,1651071305512531.0,1
338,-3.0,2.0,8.0,-4.0,-12.0,-5.0,2.0,-10.0,1651071305534768.0,1
339,44.0,-9.0,2.0,-7.0,-9.0,-2.0,-4.0,-2.0,1651071305534768.0,1
340,-40.0,0.0,3.0,6.0,5.0,0.0,-3.0,-24.0,1651071305535706.0,1
341,-10.0,7.0,-6.0,1.0,-3.0,0.0,-4.0,-23.0,1651071305535706.0,1
342,-11.0,-1.0,-10.0,-7.0,8.0,6.0,6.0,14.0,1651071305549753.0,1
343,32.0,-5.0,-8.0,-11.0,-17.0,-7.0,-6.0,-22.0,1651071305549753.0,1
344,0.0,-12.0,12.0,14.0,11.0,3.0,1.0,8.0,1651071305549753.0,1
345,8.0,-2.0,-13.0,2.0,3.0,1.0,-1.0,3.0,1651071305549753.0,1
346,-14.0,4.0,0.0,-2.0,-7.0,-1.0,8.0,16.0,1651071305571873.0,1
347,-58.0,-9.0,3.0,-3.0,-7.0,-5.0,-8.0,-20.0,1651071305571873.0,1
348,-16.0,2.0,-4.0,-4.0,8.0,-1.0,-5.0,1.0,1651071305572836.0,1
349,-4.0,-9.0,4.0,4.0,2.0,4.0,5.0,4.0,1651071305572836.0,1
350,11.0,-2.0,-7.0,-4.0,-4.0,-2.0,-1.0,-8.0,1651071305594975.0,1
351,-8.0,-7.0,3.0,1.0,-5.0,-4.0,-5.0,-3.0,1651071305594975.0,1
352,21.0,11.0,-1.0,1.0,8.0,4.0,1.0,7.0,1651071305595979.0,1
353,53.0,1.0,0.0,8.0,3.0,6.0,8.0,-3.0,1651071305595979.0,1
354,-22.0,3.0,-6.0,-9.0,-6.0,-6.0,-4.0,-7.0,1651071305609005.0,1
355,-8.0,-3.0,0.0,2.0,-5.0,-5.0,-4.0,4.0,1651071305609005.0,1
356,-6.0,-8.0,-7.0,-12.0,1.0,0.0,-3.0,-1.0,1651071305609944.0,1
357,3.0,9.0,10.0,3.0,-2.0,-1.0,-1.0,-10.0,1651071305609944.0,1
358,5.0,-13.0,-5.0,1.0,0.0,2.0,2.0,-1.0,1651071305631698.0,1
359,-2.0,8.0,-2.0,3.0,0.0,-1.0,2.0,-1.0,1651071305631698.0,1
360,36.0,11.0,2.0,1.0,3.0,2.0,0.0,2.0,1651071305632698.0,1
361,12.0,1.0,-6.0,4.0,2.0,-1.0,-2.0,1.0,1651071305632698.0,1
362,1.0,4.0,11.0,3.0,4.0,3.0,2.0,5.0,1651071305654705.0,1
363,-31.0,-5.0,-11.0,-7.0,-5.0,0.0,-2.0,-1.0,1651071305654705.0,1
364,18.0,8.0,0.0,-4.0,-1.0,0.0,-1.0,-23.0,1651071305655636.0,1
365,-3.0,-1.0,0.0,4.0,0.0,1.0,0.0,19.0,1651071305655636.0,1
366,10.0,0.0,0.0,-6.0,3.0,1.0,1.0,-5.0,1651071305668668.0,1
367,7.0,0.0,9.0,14.0,-3.0,-3.0,-3.0,-3.0,1651071305668668.0,1
368,1.0,-1.0,-6.0,-12.0,-2.0,-3.0,3.0,19.0,1651071305676647.0,1
369,-12.0,-3.0,-5.0,3.0,2.0,-3.0,1.0,1.0,1651071305676647.0,1
370,3.0,3.0,6.0,9.0,-2.0,0.0,2.0,2.0,1651071305691756.0,1
371,0.0,-6.0,-9.0,-15.0,-3.0,1.0,-1.0,-4.0,1651071305691756.0,1
372,-21.0,-3.0,7.0,17.0,19.0,3.0,-4.0,-12.0,1651071305692685.0,1
373,-6.0,-7.0,-1.0,-15.0,-8.0,-5.0,0.0,-4.0,1651071305692685.0,1
374,-3.0,-5.0,-2.0,7.0,1.0,-1.0,-3.0,-3.0,1651071305714749.0,1
375,13.0,-2.0,-4.0,-3.0,-14.0,-3.0,0.0,8.0,1651071305714749.0,1
376,4.0,5.0,-2.0,-5.0,1.0,3.0,1.0,6.0,1651071305715686.0,1
377,-24.0,-9.0,3.0,2.0,-6.0,-9.0,-10.0,-23.0,1651071305715686.0,1
378,12.0,2.0,-5.0,-12.0,4.0,9.0,4.0,-17.0,1651071305729651.0,1
379,1.0,1.0,0.0,1.0,11.0,0.0,3.0,30.0,1651071305729651.0,1
380,-1.0,-1.0,1.0,2.0,-7.0,-1.0,1.0,-7.0,1651071305730684.0,1
381,2.0,3.0,1.0,3.0,4.0,1.0,3.0,7.0,1651071305730684.0,1
382,0.0,-4.0,-1.0,-2.0,-12.0,-8.0,-4.0,-10.0,1651071305751991.0,1
383,-4.0,-3.0,3.0,0.0,-9.0,0.0,2.0,2.0,1651071305751991.0,1
384,8.0,1.0,-4.0,-4.0,6.0,0.0,0.0,5.0,1651071305752996.0,1
385,-9.0,-2.0,-3.0,-1.0,2.0,0.0,-4.0,-11.0,1651071305752996.0,1
386,-19.0,-11.0,-6.0,-3.0,-2.0,-2.0,1.0,6.0,1651071305775178.0,1
387,12.0,15.0,4.0,1.0,5.0,1.0,3.0,-6.0,1651071305775178.0,1
388,1.0,6.0,2.0,3.0,-5.0,-1.0,-2.0,1.0,1651071305776160.0,1
389,-3.0,-7.0,-2.0,-1.0,-8.0,0.0,-1.0,-6.0,1651071305776160.0,1
390,8.0,5.0,-1.0,-7.0,0.0,-1.0,0.0,6.0,1651071305789110.0,1
391,-6.0,2.0,4.0,9.0,2.0,-1.0,-6.0,-8.0,1651071305789110.0,1
392,10.0,-2.0,1.0,6.0,-4.0,0.0,2.0,9.0,1651071305797095.0,1
393,-28.0,6.0,0.0,-10.0,-6.0,-3.0,-2.0,-4.0,1651071305797095.0,1
394,11.0,3.0,0.0,-4.0,0.0,0.0,1.0,9.0,1651071305811869.0,1
395,-5.0,-13.0,-3.0,-6.0,0.0,-3.0,-1.0,-8.0,1651071305811869.0,1
396,7.0,-4.0,-5.0,1.0,1.0,1.0,-2.0,-1.0,1651071305812872.0,1
397,-2.0,-2.0,3.0,3.0,5.0,2.0,1.0,0.0,1651071305812872.0,1
398,-1.0,1.0,3.0,1.0,-13.0,-6.0,-3.0,-2.0,1651071305834820.0,1
399,-9.0,-1.0,-2.0,-1.0,14.0,4.0,-1.0,-1.0,1651071305834820.0,1
400,-2.0,2.0,2.0,13.0,-2.0,-1.0,-2.0,-7.0,1651071305835807.0,1
401,10.0,-5.0,0.0,0.0,2.0,-1.0,0.0,1.0,1651071305835807.0,1
402,7.0,5.0,-3.0,1.0,3.0,2.0,2.0,9.0,1651071305848839.0,1
403,-6.0,-3.0,-3.0,-6.0,-7.0,-4.0,-2.0,-1.0,1651071305848839.0,1
404,-4.0,0.0,-1.0,-7.0,-6.0,-3.0,-1.0,-2.0,1651071305856818.0,1
405,0.0,-3.0,1.0,-1.0,-2.0,3.0,-2.0,-12.0,1651071305856818.0,1
406,-1.0,3.0,1.0,1.0,-6.0,-3.0,-1.0,1.0,1651071305871778.0,1
407,8.0,-1.0,0.0,3.0,1.0,-1.0,3.0,12.0,1651071305871778.0,1
408,-5.0,-1.0,-1.0,-5.0,-1.0,-2.0,-4.0,-6.0,1651071305872709.0,1
409,0.0,0.0,-8.0,-5.0,-9.0,-4.0,-2.0,-3.0,1651071305872709.0,1
410,-4.0,-4.0,-3.0,1.0,7.0,1.0,-1.0,-6.0,1651071305894710.0,1
411,0.0,-2.0,1.0,-3.0,5.0,2.0,0.0,2.0,1651071305894710.0,1
412,-3.0,0.0,2.0,3.0,2.0,-1.0,1.0,-5.0,1651071305895640.0,1
413,3.0,3.0,0.0,6.0,8.0,3.0,-1.0,0.0,1651071305895640.0,1
414,-4.0,-2.0,1.0,9.0,0.0,1.0,-1.0,-3.0,1651071305908673.0,1
415,4.0,-2.0,-5.0,-4.0,-8.0,-2.0,0.0,-1.0,1651071305908673.0,1
416,4.0,1.0,-3.0,-6.0,-9.0,-6.0,-2.0,5.0,1651071305916651.0,1
417,-3.0,3.0,1.0,-4.0,-1.0,5.0,-1.0,-2.0,1651071305916651.0,1
418,-3.0,2.0,-1.0,0.0,5.0,3.0,2.0,2.0,1651071305932310.0,1
419,0.0,-4.0,-2.0,0.0,-7.0,0.0,-1.0,-3.0,1651071305932310.0,1
420,3.0,4.0,4.0,-1.0,-2.0,-1.0,0.0,0.0,1651071305932310.0,1
421,0.0,-7.0,-5.0,-4.0,-3.0,-4.0,-3.0,0.0,1651071305932310.0,1
422,-7.0,-7.0,-3.0,-4.0,-1.0,-2.0,-1.0,-3.0,1651071305955416.0,1
423,0.0,13.0,-1.0,3.0,-3.0,-1.0,0.0,-8.0,1651071305955416.0,1
424,7.0,-5.0,-6.0,-4.0,-1.0,3.0,1.0,13.0,1651071305955416.0,1
425,9.0,3.0,3.0,6.0,15.0,10.0,3.0,-4.0,1651071305955416.0,1
426,-7.0,-5.0,-6.0,-10.0,1.0,-1.0,-4.0,5.0,1651071305968389.0,1
427,2.0,-2.0,4.0,0.0,-7.0,-4.0,0.0,8.0,1651071305968389.0,1
428,-5.0,1.0,-2.0,-1.0,6.0,3.0,2.0,-5.0,1651071305976428.0,1
429,2.0,4.0,1.0,7.0,-7.0,-6.0,-1.0,2.0,1651071305976428.0,1
430,0.0,-10.0,1.0,0.0,3.0,0.0,0.0,-5.0,1651071305992136.0,1
431,0.0,5.0,0.0,-4.0,-10.0,-2.0,-3.0,-5.0,1651071305992136.0,1
432,-4.0,-3.0,0.0,-2.0,-5.0,-4.0,-1.0,-3.0,1651071305992136.0,1
433,1.0,-3.0,-2.0,1.0,12.0,0.0,2.0,3.0,1651071305992136.0,1
434,3.0,4.0,3.0,5.0,-4.0,-5.0,3.0,-4.0,1651071306014742.0,1
435,0.0,-4.0,-1.0,-1.0,11.0,11.0,1.0,6.0,1651071306014742.0,1
436,-4.0,-2.0,-3.0,-5.0,-3.0,-1.0,-1.0,-3.0,1651071306015672.0,1
437,-3.0,3.0,-1.0,-8.0,-5.0,-1.0,-1.0,0.0,1651071306015672.0,1
438,-6.0,-1.0,3.0,1.0,-4.0,-4.0,-2.0,-8.0,1651071306028704.0,1
439,10.0,5.0,-1.0,-1.0,-4.0,-4.0,0.0,12.0,1651071306028704.0,1
440,0.0,0.0,-3.0,3.0,6.0,5.0,-1.0,-1.0,1651071306036643.0,1
441,-4.0,-1.0,0.0,-7.0,-5.0,-2.0,-2.0,1.0,1651071306036643.0,1
442,3.0,5.0,-2.0,-1.0,0.0,2.0,-1.0,2.0,1651071306051744.0,1
443,-5.0,-6.0,-1.0,-5.0,-2.0,-3.0,0.0,-9.0,1651071306051744.0,1
444,-6.0,-1.0,1.0,11.0,1.0,0.0,-1.0,0.0,1651071306052735.0,1
445,3.0,-1.0,0.0,-5.0,-6.0,-3.0,2.0,4.0,1651071306052735.0,1
446,5.0,3.0,1.0,2.0,-3.0,0.0,-2.0,0.0,1651071306074632.0,1
447,-3.0,-3.0,-1.0,2.0,4.0,-1.0,1.0,-2.0,1651071306074632.0,1
448,1.0,-2.0,-2.0,-2.0,-2.0,-3.0,-2.0,-3.0,1651071306075631.0,1
449,2.0,-1.0,-2.0,2.0,4.0,1.0,0.0,-1.0,1651071306075631.0,1
450,0.0,4.0,-2.0,-9.0,-4.0,2.0,-1.0,3.0,1651071306089650.0,1
451,-4.0,-3.0,-3.0,-7.0,-16.0,-10.0,-5.0,-12.0,1651071306089650.0,1
452,-6.0,-6.0,-4.0,-1.0,9.0,11.0,2.0,-8.0,1651071306096577.0,1
453,8.0,-1.0,-4.0,4.0,14.0,14.0,7.0,29.0,1651071306096577.0,1
454,2.0,4.0,4.0,3.0,3.0,0.0,0.0,0.0,1651071306111602.0,1
455,-4.0,-4.0,5.0,9.0,8.0,-2.0,-2.0,1.0,1651071306111602.0,1
456,-4.0,-2.0,4.0,-3.0,-12.0,-7.0,-2.0,-10.0,1651071306112532.0,1
457,-4.0,-1.0,0.0,-6.0,-10.0,-4.0,-2.0,-10.0,1651071306112532.0,1
458,2.0,-5.0,-5.0,-1.0,-3.0,0.0,0.0,5.0,1651071306134767.0,1
459,4.0,1.0,-1.0,-3.0,-1.0,-1.0,-2.0,-3.0,1651071306134767.0,1
460,9.0,4.0,-4.0,-6.0,1.0,0.0,0.0,2.0,1651071306135701.0,1
461,-15.0,-3.0,0.0,1.0,-4.0,-2.0,-1.0,-1.0,1651071306135701.0,1
462,-11.0,-6.0,-2.0,2.0,-9.0,-4.0,-4.0,-14.0,1651071306157877.0,1
463,-3.0,-3.0,-4.0,4.0,7.0,4.0,-1.0,-14.0,1651071306157877.0,1
464,19.0,0.0,0.0,-4.0,14.0,5.0,9.0,40.0,1651071306157877.0,1
465,5.0,7.0,7.0,6.0,-6.0,-6.0,0.0,1.0,1651071306157877.0,1
466,0.0,0.0,-5.0,-16.0,-5.0,-6.0,-2.0,-2.0,1651071306171682.0,1
467,-10.0,-6.0,0.0,6.0,6.0,7.0,-2.0,-8.0,1651071306171682.0,1
468,-4.0,-1.0,-1.0,3.0,-3.0,-4.0,-3.0,-11.0,1651071306172682.0,1
469,-2.0,4.0,2.0,-1.0,-4.0,-3.0,-1.0,-8.0,1651071306172682.0,1
470,-2.0,0.0,2.0,0.0,-2.0,-2.0,0.0,0.0,1651071306194585.0,1
471,6.0,3.0,2.0,-2.0,9.0,5.0,3.0,-4.0,1651071306194585.0,1
472,-1.0,-3.0,-5.0,0.0,1.0,1.0,0.0,10.0,1651071306195585.0,1
473,1.0,-3.0,-2.0,1.0,2.0,-4.0,-3.0,-6.0,1651071306195585.0,1
474,-1.0,0.0,-1.0,-7.0,-11.0,-3.0,-4.0,0.0,1651071306217683.0,1
475,-3.0,0.0,1.0,0.0,1.0,-3.0,0.0,-1.0,1651071306217683.0,1
476,-3.0,-1.0,7.0,18.0,13.0,10.0,1.0,2.0,1651071306218614.0,1
477,2.0,3.0,1.0,-1.0,-2.0,2.0,1.0,-2.0,1651071306218614.0,1
478,3.0,-5.0,1.0,1.0,6.0,1.0,-2.0,1.0,1651071306231693.0,1
479,2.0,2.0,-2.0,-8.0,-10.0,-5.0,-1.0,5.0,1651071306231693.0,1
480,-2.0,3.0,-2.0,-14.0,-19.0,-12.0,-4.0,-11.0,1651071306232658.0,1
481,-1.0,-2.0,-2.0,4.0,-2.0,3.0,0.0,-1.0,1651071306232658.0,1
482,0.0,1.0,2.0,15.0,31.0,6.0,3.0,4.0,1651071306254762.0,1
483,1.0,-2.0,-7.0,-6.0,-2.0,2.0,-1.0,1.0,1651071306254762.0,1
484,-5.0,-2.0,0.0,-10.0,-8.0,-5.0,-1.0,-6.0,1651071306255753.0,1
485,1.0,-3.0,-5.0,-5.0,-7.0,-3.0,-2.0,0.0,1651071306255753.0,1
486,3.0,3.0,1.0,6.0,-4.0,-1.0,0.0,-1.0,1651071306285027.0,1
487,0.0,-1.0,0.0,-2.0,2.0,0.0,2.0,3.0,1651071306285027.0,1
488,-7.0,0.0,0.0,1.0,-5.0,-3.0,-3.0,-4.0,1651071306285884.0,1
489,0.0,-3.0,-3.0,-6.0,-3.0,-4.0,-2.0,-2.0,1651071306285884.0,1
490,-1.0,-1.0,-2.0,7.0,-1.0,-5.0,-1.0,1.0,1651071306291869.0,1
491,-2.0,-2.0,-7.0,-5.0,4.0,10.0,3.0,-1.0,1651071306291869.0,1
492,2.0,1.0,-1.0,-6.0,1.0,1.0,-1.0,-5.0,1651071306292866.0,1
493,0.0,-1.0,2.0,1.0,-2.0,-2.0,-2.0,-5.0,1651071306292866.0,1
494,0.0,2.0,2.0,0.0,6.0,5.0,2.0,4.0,1651071306314978.0,1
495,3.0,1.0,-3.0,0.0,-11.0,-9.0,-1.0,3.0,1651071306314978.0,1
496,-2.0,0.0,-1.0,0.0,2.0,2.0,0.0,-2.0,1651071306315909.0,1
497,0.0,-2.0,-2.0,-10.0,-2.0,3.0,0.0,-2.0,1651071306315909.0,1
498,-1.0,-1.0,0.0,-3.0,-2.0,-3.0,-1.0,-1.0,1651071306337077.0,1
499,1.0,1.0,18.0,37.0,11.0,3.0,1.0,2.0,1651071306337077.0,1
500,-1.0,-2.0,-4.0,-10.0,-16.0,-6.0,-1.0,-1.0,1651071306338074.0,1
501,-2.0,2.0,-12.0,-27.0,2.0,2.0,1.0,1.0,1651071306338074.0,1
502,1.0,-8.0,-12.0,-16.0,-6.0,0.0,0.0,0.0,1651071306352149.0,1
503,-3.0,4.0,5.0,9.0,5.0,0.0,-1.0,-1.0,1651071306352149.0,1
504,-2.0,-3.0,10.0,21.0,-10.0,-5.0,-1.0,-3.0,1651071306352149.0,1
505,2.0,0.0,14.0,21.0,16.0,5.0,0.0,1.0,1651071306352149.0,1
506,-1.0,8.0,-23.0,-15.0,6.0,6.0,2.0,1.0,1651071306375291.0,1
507,2.0,-4.0,-7.0,-10.0,-2.0,0.0,3.0,1.0,1651071306375291.0,1
508,-5.0,-8.0,5.0,0.0,-20.0,-16.0,-9.0,-7.0,1651071306375980.0,1
509,-1.0,-14.0,-21.0,-3.0,-5.0,-5.0,-4.0,-2.0,1651071306375980.0,1
510,5.0,19.0,41.0,15.0,9.0,8.0,4.0,3.0,1651071306397436.0,1
511,-2.0,-3.0,-10.0,-6.0,-7.0,-3.0,-3.0,-1.0,1651071306397436.0,1
512,-11.0,-8.0,-26.0,-57.0,1.0,6.0,5.0,3.0,1651071306398433.0,1
513,-1.0,4.0,19.0,44.0,7.0,-3.0,-1.0,0.0,1651071306398433.0,1
514,-2.0,-4.0,1.0,17.0,1.0,0.0,-3.0,-2.0,1651071306411682.0,1
515,8.0,10.0,4.0,-15.0,-1.0,0.0,1.0,2.0,1651071306411682.0,1
516,-6.0,-6.0,2.0,42.0,6.0,4.0,0.0,1.0,1651071306412682.0,1
517,-2.0,-5.0,2.0,-44.0,-5.0,-1.0,1.0,-1.0,1651071306412682.0,1
518,-7.0,3.0,-3.0,5.0,2.0,-2.0,0.0,3.0,1651071306434651.0,1
519,-6.0,-10.0,-1.0,8.0,2.0,-1.0,-4.0,-12.0,1651071306434651.0,1
520,7.0,-3.0,-35.0,-47.0,-1.0,0.0,2.0,3.0,1651071306435650.0,1
521,5.0,2.0,-21.0,-11.0,9.0,5.0,-2.0,-7.0,1651071306435650.0,1
522,-56.0,-32.0,-1.0,38.0,-9.0,-5.0,-4.0,-3.0,1651071306457737.0,1
523,-13.0,-2.0,-21.0,-60.0,-28.0,-18.0,-8.0,-4.0,1651071306457737.0,1
524,1.0,3.0,21.0,36.0,13.0,3.0,-1.0,0.0,1651071306458666.0,1
525,-9.0,5.0,1.0,-61.0,-6.0,2.0,3.0,2.0,1651071306458666.0,1
526,21.0,12.0,-11.0,-41.0,-6.0,4.0,4.0,-1.0,1651071306471702.0,1
527,3.0,-6.0,14.0,80.0,17.0,4.0,-2.0,2.0,1651071306471702.0,1
528,2.0,11.0,8.0,-30.0,7.0,7.0,1.0,-1.0,1651071306472629.0,1
529,10.0,1.0,-9.0,41.0,-16.0,-10.0,-5.0,-3.0,1651071306472629.0,1
530,3.0,-9.0,-5.0,-2.0,-15.0,-12.0,-12.0,-8.0,1651071306494725.0,1
531,0.0,1.0,28.0,-37.0,-11.0,-2.0,4.0,6.0,1651071306494725.0,1
532,14.0,3.0,-14.0,8.0,2.0,0.0,-2.0,-3.0,1651071306495654.0,1
533,0.0,4.0,33.0,79.0,11.0,4.0,2.0,2.0,1651071306495654.0,1
534,8.0,3.0,-2.0,-46.0,-4.0,2.0,0.0,1.0,1651071306517749.0,1
535,-5.0,-4.0,-21.0,13.0,4.0,0.0,1.0,0.0,1651071306517749.0,1
536,-3.0,4.0,15.0,8.0,6.0,0.0,0.0,-3.0,1651071306518711.0,1
537,-1.0,-2.0,-7.0,-4.0,-1.0,-1.0,1.0,-1.0,1651071306518711.0,1
538,-1.0,-1.0,6.0,22.0,3.0,3.0,3.0,0.0,1651071306532134.0,1
539,6.0,5.0,-12.0,-36.0,-6.0,-1.0,-3.0,0.0,1651071306532134.0,1
540,-2.0,3.0,17.0,41.0,0.0,1.0,1.0,0.0,1651071306532134.0,1
541,-4.0,-7.0,-2.0,-10.0,3.0,0.0,0.0,-1.0,1651071306532134.0,1
542,14.0,-2.0,-14.0,-38.0,-8.0,-5.0,-1.0,1.0,1651071306554426.0,1
543,-13.0,-2.0,4.0,16.0,9.0,7.0,1.0,-1.0,1651071306554426.0,1
544,0.0,0.0,2.0,19.0,2.0,-4.0,-4.0,-3.0,1651071306562337.0,1
545,-4.0,-2.0,5.0,5.0,-8.0,-5.0,-3.0,0.0,1651071306562337.0,1
546,5.0,3.0,0.0,-13.0,0.0,2.0,2.0,1.0,1651071306577735.0,1
547,3.0,-2.0,-7.0,-6.0,-4.0,-3.0,1.0,1.0,1651071306577735.0,1
548,-6.0,-1.0,-10.0,-6.0,-8.0,-1.0,-1.0,-1.0,1651071306578669.0,1
549,1.0,1.0,4.0,1.0,11.0,-2.0,1.0,-2.0,1651071306578669.0,1
550,4.0,2.0,1.0,12.0,14.0,7.0,1.0,-1.0,1651071306591692.0,1
551,-1.0,-1.0,0.0,2.0,-7.0,-7.0,-5.0,-2.0,1651071306591692.0,1
552,3.0,-2.0,1.0,-15.0,-4.0,0.0,0.0,1.0,1651071306592692.0,1
553,-1.0,-2.0,-20.0,-30.0,-19.0,-9.0,-7.0,-3.0,1651071306592692.0,1
554,-1.0,2.0,0.0,7.0,-3.0,-4.0,0.0,0.0,1651071306614856.0,1
555,1.0,-2.0,7.0,12.0,6.0,4.0,1.0,-1.0,1651071306614856.0,1
556,-1.0,1.0,-8.0,-9.0,-2.0,-2.0,0.0,-1.0,1651071306615813.0,1
557,-2.0,1.0,6.0,14.0,6.0,4.0,1.0,0.0,1651071306615813.0,1
558,1.0,1.0,1.0,9.0,9.0,0.0,-1.0,0.0,1651071306637908.0,1
559,2.0,-1.0,-1.0,-21.0,-19.0,-2.0,0.0,-1.0,1651071306637908.0,1
560,-1.0,1.0,4.0,0.0,6.0,-1.0,0.0,0.0,1651071306637908.0,1
561,0.0,2.0,-3.0,-7.0,3.0,3.0,2.0,3.0,1651071306637908.0,1
562,0.0,1.0,16.0,8.0,-4.0,-1.0,-1.0,0.0,1651071306652047.0,1
563,0.0,1.0,-5.0,11.0,-1.0,-3.0,-2.0,-1.0,1651071306652047.0,1
564,1.0,1.0,1.0,6.0,-1.0,-3.0,-1.0,-2.0,1651071306652976.0,1
565,-1.0,-2.0,7.0,13.0,-1.0,2.0,0.0,0.0,1651071306652976.0,1
566,0.0,-1.0,-11.0,-24.0,-3.0,-3.0,0.0,-2.0,1651071306674660.0,1
567,0.0,-3.0,0.0,-6.0,4.0,4.0,3.0,1.0,1651071306674660.0,1
568,0.0,1.0,4.0,-6.0,-1.0,-1.0,-1.0,-1.0,1651071306675660.0,1
569,-1.0,-4.0,-7.0,-3.0,2.0,-1.0,-3.0,-2.0,1651071306675660.0,1
570,-1.0,1.0,2.0,21.0,4.0,3.0,2.0,-1.0,1651071306697800.0,1
571,0.0,4.0,11.0,4.0,6.0,-1.0,0.0,0.0,1651071306697800.0,1
572,-1.0,-5.0,-19.0,-24.0,0.0,-3.0,-1.0,-1.0,1651071306697800.0,1
573,1.0,2.0,2.0,1.0,-1.0,-1.0,0.0,-1.0,1651071306697800.0,1
574,0.0,-2.0,0.0,-4.0,-10.0,-4.0,-2.0,-2.0,1651071306711874.0,1
575,1.0,1.0,-1.0,-14.0,5.0,0.0,0.0,0.0,1651071306711874.0,1
576,-2.0,-2.0,10.0,30.0,0.0,0.0,-1.0,-2.0,1651071306712867.0,1
577,0.0,3.0,2.0,-2.0,-3.0,-3.0,-1.0,1.0,1651071306712867.0,1
578,-3.0,-5.0,-16.0,-23.0,-2.0,0.0,-1.0,0.0,1651071306734690.0,1
579,2.0,4.0,9.0,26.0,2.0,0.0,-1.0,0.0,1651071306734690.0,1
580,1.0,1.0,1.0,3.0,7.0,4.0,1.0,0.0,1651071306735689.0,1
581,0.0,-1.0,-3.0,-22.0,-3.0,-1.0,-1.0,0.0,1651071306735689.0,1
582,0.0,0.0,3.0,18.0,0.0,0.0,1.0,1.0,1651071306757725.0,1
583,-1.0,0.0,-3.0,7.0,2.0,0.0,1.0,0.0,1651071306757725.0,1
584,-1.0,-4.0,-11.0,-23.0,-26.0,-6.0,-2.0,-1.0,1651071306758681.0,1
585,-1.0,1.0,4.0,16.0,14.0,-1.0,-2.0,-1.0,1651071306758681.0,1
586,2.0,5.0,13.0,23.0,15.0,10.0,1.0,0.0,1651071306771629.0,1
587,0.0,-1.0,-5.0,-11.0,-3.0,0.0,-1.0,1.0,1651071306771629.0,1
588,-1.0,-7.0,-12.0,-6.0,3.0,1.0,0.0,-2.0,1651071306779751.0,1
589,-1.0,0.0,-3.0,-12.0,-13.0,-3.0,-1.0,0.0,1651071306779751.0,1
590,-2.0,4.0,5.0,6.0,-2.0,-3.0,-1.0,-1.0,1651071306794622.0,1
591,0.0,-4.0,-14.0,-14.0,-3.0,-2.0,-2.0,-2.0,1651071306794622.0,1
592,-4.0,-3.0,1.0,-6.0,-6.0,-5.0,-2.0,-1.0,1651071306795553.0,1
593,-1.0,-4.0,-1.0,2.0,-1.0,1.0,-2.0,-3.0,1651071306795553.0,1
594,0.0,-4.0,0.0,-2.0,-2.0,-2.0,-1.0,-2.0,1651071306817552.0,1
595,2.0,2.0,3.0,6.0,1.0,1.0,2.0,0.0,1651071306817552.0,1
596,0.0,1.0,1.0,-5.0,3.0,0.0,0.0,2.0,1651071306818490.0,1
597,-1.0,-2.0,-4.0,-3.0,-3.0,1.0,-1.0,0.0,1651071306818490.0,1
598,0.0,0.0,-2.0,4.0,-3.0,-2.0,-1.0,-1.0,1651071306831454.0,1
599,-1.0,1.0,2.0,-1.0,-3.0,-1.0,-1.0,0.0,1651071306831454.0,1
600,1.0,1.0,8.0,8.0,7.0,4.0,1.0,0.0,1651071306839830.0,1
601,-3.0,-3.0,-6.0,-20.0,-13.0,-6.0,-1.0,-2.0,1651071306839830.0,1
602,0.0,-4.0,-4.0,-4.0,-9.0,-6.0,-1.0,-2.0,1651071306855135.0,1
603,-3.0,-5.0,5.0,31.0,24.0,8.0,-1.0,-2.0,1651071306855135.0,1
604,2.0,0.0,-3.0,-14.0,-1.0,0.0,1.0,2.0,1651071306856131.0,1
605,0.0,2.0,6.0,10.0,4.0,3.0,0.0,1.0,1651071306856131.0,1
606,-1.0,-2.0,-6.0,-11.0,-8.0,-3.0,-3.0,1.0,1651071306877728.0,1
607,-2.0,1.0,-7.0,-13.0,-11.0,-5.0,0.0,-2.0,1651071306877728.0,1
608,0.0,1.0,6.0,15.0,5.0,2.0,1.0,0.0,1651071306878688.0,1
609,0.0,-1.0,0.0,-1.0,0.0,-1.0,1.0,0.0,1651071306878688.0,1
610,-1.0,-3.0,-5.0,-1.0,-5.0,-3.0,-2.0,0.0,1651071306890809.0,1
611,1.0,2.0,-1.0,-3.0,-2.0,0.0,-2.0,1.0,1651071306890809.0,1
612,-2.0,1.0,0.0,5.0,2.0,2.0,-1.0,0.0,1651071306899779.0,1
613,0.0,-1.0,-3.0,-4.0,-1.0,-3.0,0.0,-1.0,1651071306899779.0,1
614,0.0,1.0,7.0,6.0,-3.0,-3.0,0.0,-3.0,1651071306914847.0,1
615,-3.0,-7.0,-4.0,17.0,7.0,4.0,0.0,-1.0,1651071306914847.0,1
616,-1.0,-4.0,-9.0,-19.0,0.0,0.0,0.0,-1.0,1651071306915823.0,1
617,-2.0,-1.0,-4.0,-5.0,3.0,-2.0,0.0,-2.0,1651071306915823.0,1
618,0.0,0.0,6.0,11.0,8.0,2.0,0.0,2.0,1651071306937716.0,1
619,-1.0,3.0,1.0,-9.0,-11.0,-4.0,-2.0,0.0,1651071306937716.0,1
620,-2.0,-1.0,1.0,6.0,-5.0,-2.0,1.0,-1.0,1651071306938648.0,1
621,-1.0,0.0,0.0,2.0,0.0,0.0,0.0,0.0,1651071306938648.0,1
622,1.0,0.0,-3.0,-4.0,4.0,2.0,0.0,0.0,1651071306951635.0,1
623,1.0,3.0,-2.0,-24.0,-9.0,-2.0,0.0,2.0,1651071306951635.0,1
624,-1.0,0.0,9.0,69.0,4.0,0.0,-5.0,-2.0,1651071306960621.0,1
625,1.0,-1.0,-4.0,-40.0,1.0,2.0,2.0,-1.0,1651071306960621.0,1
626,-1.0,-5.0,-10.0,-2.0,2.0,-2.0,0.0,0.0,1651071306974551.0,1
627,1.0,0.0,5.0,-3.0,2.0,4.0,3.0,1.0,1651071306974551.0,1
628,0.0,1.0,0.0,-5.0,5.0,1.0,3.0,1.0,1651071306976546.0,1
629,1.0,1.0,3.0,7.0,-6.0,-2.0,-3.0,1.0,1651071306976546.0,1
630,-1.0,1.0,1.0,2.0,-1.0,-1.0,1.0,-1.0,1651071306997568.0,1
631,-1.0,-1.0,-5.0,-8.0,-1.0,-1.0,-1.0,0.0,1651071306997568.0,1
632,1.0,0.0,0.0,-8.0,-3.0,0.0,-2.0,-1.0,1651071306999485.0,1
633,-3.0,-1.0,2.0,17.0,1.0,1.0,2.0,-2.0,1651071306999485.0,1
634,-3.0,-2.0,0.0,-11.0,0.0,1.0,-1.0,0.0,1651071307011564.0,1
635,1.0,-3.0,-1.0,16.0,-1.0,-3.0,-2.0,-2.0,1651071307011564.0,1
636,0.0,-3.0,-4.0,0.0,5.0,-1.0,0.0,1.0,1651071307020555.0,1
637,1.0,2.0,-3.0,-10.0,0.0,1.0,0.0,-1.0,1651071307020555.0,1
638,-3.0,-1.0,3.0,8.0,-8.0,-1.0,-1.0,-1.0,1651071307035370.0,1
639,-2.0,0.0,-4.0,-20.0,-12.0,-2.0,-1.0,1.0,1651071307035370.0,1
640,0.0,-1.0,-2.0,-10.0,5.0,0.0,-1.0,-2.0,1651071307036366.0,1
641,0.0,1.0,-2.0,10.0,0.0,3.0,0.0,1.0,1651071307036366.0,1
642,1.0,2.0,2.0,1.0,0.0,-2.0,0.0,-1.0,1651071307057730.0,1
643,-1.0,-1.0,-7.0,1.0,-4.0,-4.0,-1.0,-1.0,1651071307057730.0,1
644,1.0,-2.0,-4.0,-27.0,-7.0,0.0,0.0,-1.0,1651071307058661.0,1
645,-2.0,0.0,4.0,29.0,9.0,4.0,-1.0,1.0,1651071307058661.0,1
646,0.0,-1.0,-5.0,-1.0,1.0,1.0,-1.0,0.0,1651071307079669.0,1
647,-1.0,0.0,3.0,0.0,1.0,0.0,0.0,0.0,1651071307079669.0,1
648,-1.0,1.0,3.0,-6.0,-4.0,-3.0,-2.0,-2.0,1651071307081597.0,1
649,-1.0,-3.0,-8.0,-19.0,-5.0,-3.0,-1.0,-1.0,1651071307081597.0,1
650,0.0,-4.0,0.0,15.0,-4.0,1.0,0.0,-2.0,1651071307094634.0,1
651,-1.0,-2.0,-6.0,-11.0,5.0,2.0,-1.0,1.0,1651071307094634.0,1
652,-2.0,0.0,0.0,-9.0,5.0,0.0,0.0,-1.0,1651071307101631.0,1
653,0.0,0.0,1.0,-2.0,-10.0,-4.0,-1.0,1.0,1651071307101631.0,1
654,0.0,0.0,-1.0,7.0,-1.0,-1.0,-1.0,0.0,1651071307117647.0,1
655,1.0,-1.0,2.0,-1.0,-5.0,-1.0,-1.0,0.0,1651071307117647.0,1
656,-1.0,-1.0,0.0,3.0,2.0,0.0,1.0,0.0,1651071307118603.0,1
657,-2.0,1.0,2.0,1.0,6.0,1.0,0.0,1.0,1651071307118603.0,1
658,-1.0,-2.0,-3.0,-12.0,0.0,-4.0,-2.0,-1.0,1651071307139722.0,1
659,-1.0,0.0,4.0,17.0,-3.0,-2.0,0.0,-2.0,1651071307139722.0,1
660,-1.0,0.0,2.0,-8.0,-5.0,-3.0,-1.0,-2.0,1651071307141649.0,1
661,0.0,-3.0,-8.0,-4.0,0.0,2.0,-1.0,-1.0,1651071307141649.0,1
662,0.0,0.0,-3.0,-9.0,-2.0,0.0,0.0,-1.0,1651071307154613.0,1
663,-2.0,-3.0,0.0,4.0,-3.0,-2.0,-1.0,-1.0,1651071307154613.0,1
664,-1.0,0.0,-2.0,7.0,-1.0,0.0,-1.0,0.0,1651071307161649.0,1
665,-1.0,0.0,3.0,9.0,1.0,-2.0,0.0,0.0,1651071307161649.0,1
666,-2.0,1.0,0.0,-9.0,1.0,2.0,0.0,-1.0,1651071307177612.0,1
667,-1.0,0.0,0.0,0.0,2.0,0.0,-1.0,-2.0,1651071307177612.0,1
668,1.0,1.0,0.0,4.0,-10.0,-3.0,-2.0,1.0,1651071307178606.0,1
669,1.0,2.0,8.0,3.0,0.0,2.0,0.0,-1.0,1651071307178606.0,1
670,-1.0,-4.0,-5.0,-2.0,2.0,1.0,-1.0,-1.0,1651071307200483.0,1
671,-1.0,0.0,-1.0,-4.0,-2.0,1.0,-1.0,1.0,1651071307200483.0,1
672,-2.0,-1.0,0.0,-1.0,13.0,1.0,0.0,2.0,1651071307201493.0,1
673,-4.0,-2.0,0.0,-7.0,-7.0,-5.0,-3.0,-2.0,1651071307201493.0,1
674,2.0,2.0,0.0,9.0,0.0,-3.0,0.0,0.0,1651071307213638.0,1
675,1.0,1.0,3.0,-15.0,-3.0,0.0,0.0,1.0,1651071307213638.0,1
676,0.0,-1.0,-2.0,12.0,-5.0,0.0,-1.0,0.0,1651071307222548.0,1
677,2.0,3.0,3.0,-12.0,-5.0,-2.0,0.0,0.0,1651071307222548.0,1
678,-3.0,-6.0,-7.0,-5.0,2.0,0.0,0.0,0.0,1651071307237611.0,1
679,-1.0,0.0,1.0,8.0,3.0,0.0,-1.0,0.0,1651071307237611.0,1
680,0.0,-2.0,-7.0,-3.0,-10.0,-4.0,-2.0,-1.0,1651071307238631.0,1
681,-1.0,1.0,-2.0,-4.0,8.0,6.0,0.0,0.0,1651071307238631.0,1
682,-1.0,2.0,6.0,0.0,0.0,1.0,2.0,0.0,1651071307259612.0,1
683,2.0,1.0,-1.0,8.0,-7.0,1.0,0.0,1.0,1651071307259612.0,1
684,-2.0,-2.0,-7.0,-18.0,6.0,-3.0,0.0,-1.0,1651071307261539.0,1
685,1.0,-1.0,0.0,17.0,0.0,2.0,-2.0,-1.0,1651071307261539.0,1
686,1.0,-2.0,1.0,-16.0,0.0,-1.0,-3.0,-1.0,1651071307274571.0,1
687,-1.0,0.0,-1.0,7.0,5.0,1.0,-1.0,1.0,1651071307274571.0,1
688,0.0,1.0,-2.0,-2.0,-9.0,-2.0,0.0,-1.0,1651071307281516.0,1
689,-3.0,-3.0,-5.0,0.0,-4.0,-4.0,0.0,-1.0,1651071307281516.0,1
690,0.0,2.0,-2.0,-4.0,3.0,1.0,-1.0,1.0,1651071307297561.0,1
691,-2.0,-2.0,0.0,-6.0,-2.0,-4.0,0.0,-2.0,1651071307297561.0,1
692,1.0,0.0,2.0,3.0,-3.0,4.0,0.0,2.0,1651071307299515.0,1
693,0.0,-3.0,-5.0,-6.0,1.0,2.0,0.0,0.0,1651071307299515.0,1
694,-2.0,1.0,3.0,13.0,-1.0,0.0,-1.0,-1.0,1651071307319615.0,1
695,0.0,0.0,1.0,-4.0,-7.0,-4.0,-1.0,-4.0,1651071307319615.0,1
696,2.0,2.0,4.0,0.0,1.0,-5.0,0.0,0.0,1651071307321543.0,1
697,1.0,0.0,2.0,16.0,19.0,10.0,3.0,2.0,1651071307321543.0,1
698,-2.0,-2.0,0.0,1.0,-5.0,-1.0,0.0,0.0,1651071307334539.0,1
699,-2.0,1.0,1.0,11.0,4.0,0.0,-1.0,-1.0,1651071307334539.0,1
700,-2.0,-3.0,-10.0,-15.0,-11.0,-7.0,-3.0,-1.0,1651071307341634.0,1
701,0.0,0.0,8.0,-2.0,-8.0,-5.0,-4.0,0.0,1651071307341634.0,1
702,0.0,0.0,-3.0,-8.0,6.0,1.0,2.0,0.0,1651071307357660.0,1
703,1.0,-2.0,4.0,-6.0,-2.0,1.0,2.0,-1.0,1651071307357660.0,1
704,-1.0,-2.0,-4.0,17.0,-2.0,3.0,-1.0,-3.0,1651071307358591.0,1
705,-3.0,1.0,1.0,-11.0,2.0,-3.0,-1.0,-2.0,1651071307358591.0,1
706,1.0,-3.0,1.0,0.0,-7.0,-4.0,0.0,3.0,1651071307380395.0,1
707,-2.0,-1.0,1.0,3.0,4.0,-1.0,-2.0,1.0,1651071307380395.0,1
708,-1.0,2.0,2.0,3.0,-3.0,-2.0,0.0,-2.0,1651071307381652.0,1
709,1.0,2.0,-6.0,-17.0,-2.0,1.0,1.0,-2.0,1651071307381652.0,1
710,-5.0,1.0,4.0,23.0,2.0,1.0,0.0,-4.0,1651071307394691.0,1
711,-1.0,0.0,-9.0,-18.0,5.0,4.0,0.0,1.0,1651071307394691.0,1
712,-1.0,-3.0,1.0,11.0,7.0,1.0,0.0,1.0,1651071307400737.0,1
713,1.0,1.0,4.0,9.0,-10.0,-5.0,-2.0,1.0,1651071307400737.0,1
714,3.0,1.0,2.0,0.0,5.0,0.0,-1.0,2.0,1651071307417595.0,1
715,0.0,-4.0,-6.0,-2.0,-4.0,-1.0,2.0,0.0,1651071307417595.0,1
716,0.0,-5.0,-2.0,-10.0,4.0,2.0,1.0,-2.0,1651071307419523.0,1
717,-8.0,-1.0,7.0,10.0,-6.0,-8.0,-7.0,-8.0,1651071307419523.0,1
718,5.0,2.0,3.0,-4.0,-1.0,2.0,-1.0,-3.0,1651071307440527.0,1
719,8.0,6.0,-2.0,3.0,1.0,2.0,3.0,7.0,1651071307440527.0,1
720,1.0,0.0,0.0,-22.0,-12.0,-4.0,-2.0,2.0,1651071307441526.0,1
721,7.0,-5.0,-15.0,5.0,-1.0,3.0,10.0,8.0,1651071307441526.0,1
722,-10.0,-13.0,-8.0,-14.0,-5.0,1.0,-2.0,-4.0,1651071307454654.0,1
723,-6.0,-2.0,0.0,19.0,11.0,-4.0,-4.0,-7.0,1651071307454654.0,1
724,-9.0,18.0,19.0,9.0,-11.0,-6.0,-6.0,-16.0,1651071307460711.0,1
725,4.0,4.0,3.0,-5.0,4.0,3.0,1.0,-7.0,1651071307460711.0,1
726,5.0,-44.0,-27.0,-15.0,-16.0,-8.0,-2.0,10.0,1651071307477846.0,1
727,13.0,20.0,-2.0,0.0,12.0,6.0,8.0,23.0,1651071307477846.0,1
728,-4.0,-15.0,-6.0,-8.0,1.0,1.0,4.0,-12.0,1651071307478780.0,1
729,-8.0,7.0,1.0,10.0,2.0,-2.0,1.0,4.0,1651071307478780.0,1
730,6.0,21.0,-1.0,0.0,1.0,4.0,-3.0,13.0,1651071307498931.0,1
731,-5.0,-1.0,5.0,-4.0,-8.0,-2.0,-4.0,-30.0,1651071307498931.0,1
732,1.0,-11.0,-7.0,6.0,1.0,1.0,-4.0,16.0,1651071307507907.0,1
733,9.0,1.0,0.0,-11.0,-9.0,-7.0,-5.0,7.0,1651071307507907.0,1
734,-17.0,-9.0,7.0,9.0,5.0,-1.0,-2.0,5.0,1651071307514543.0,1
735,-4.0,-10.0,-9.0,-8.0,2.0,5.0,4.0,-55.0,1651071307514543.0,1
736,5.0,7.0,4.0,18.0,-2.0,4.0,1.0,27.0,1651071307521616.0,1
737,-1.0,-5.0,-9.0,-12.0,-8.0,-8.0,0.0,27.0,1651071307521616.0,1
738,3.0,13.0,5.0,-4.0,3.0,-8.0,-9.0,-15.0,1651071307537598.0,1
739,-17.0,-4.0,-11.0,-11.0,3.0,2.0,-6.0,-58.0,1651071307537598.0,1
740,1.0,-12.0,32.0,7.0,2.0,9.0,7.0,30.0,1651071307539527.0,1
741,-4.0,-8.0,-44.0,-21.0,-27.0,-12.0,-4.0,-9.0,1651071307539527.0,1
742,-13.0,-7.0,-10.0,18.0,21.0,11.0,-5.0,-4.0,1651071307560452.0,1
743,27.0,2.0,27.0,3.0,-4.0,-1.0,12.0,9.0,1651071307560452.0,1
744,25.0,9.0,1.0,-3.0,3.0,-2.0,2.0,16.0,1651071307561452.0,1
745,7.0,8.0,15.0,5.0,5.0,-6.0,-11.0,17.0,1651071307561452.0,1
746,-7.0,-1.0,-14.0,-3.0,-10.0,-5.0,-2.0,-32.0,1651071307573486.0,1
747,-18.0,-5.0,-5.0,2.0,-1.0,2.0,-2.0,-10.0,1651071307573486.0,1
748,-4.0,1.0,-5.0,-3.0,6.0,4.0,2.0,4.0,1651071307583682.0,1
749,-16.0,-5.0,5.0,2.0,-4.0,0.0,2.0,-16.0,1651071307583682.0,1
750,-12.0,-2.0,9.0,-5.0,-2.0,3.0,12.0,-30.0,1651071307597548.0,1
751,16.0,9.0,-6.0,0.0,-8.0,-4.0,-16.0,16.0,1651071307597548.0,1
752,10.0,-2.0,-12.0,-10.0,2.0,-4.0,4.0,23.0,1651071307599476.0,1
753,-2.0,-1.0,10.0,19.0,20.0,9.0,0.0,-12.0,1651071307599476.0,1
754,-2.0,4.0,-4.0,-9.0,-1.0,4.0,6.0,12.0,1651071307620522.0,1
755,-7.0,-18.0,0.0,-2.0,-7.0,-4.0,0.0,26.0,1651071307620522.0,1
756,3.0,19.0,-7.0,0.0,2.0,-1.0,-4.0,-15.0,1651071307621514.0,1
757,4.0,-5.0,4.0,3.0,1.0,1.0,2.0,-11.0,1651071307621514.0,1
758,-4.0,2.0,12.0,-7.0,-4.0,-7.0,-4.0,-11.0,1651071307633613.0,1
759,-4.0,2.0,-5.0,-9.0,-4.0,-4.0,-6.0,17.0,1651071307633613.0,1
760,8.0,-11.0,-19.0,-7.0,3.0,2.0,8.0,11.0,1651071307642529.0,1
761,-8.0,-5.0,3.0,9.0,5.0,2.0,0.0,-8.0,1651071307642529.0,1
762,14.0,6.0,-2.0,4.0,-2.0,-2.0,0.0,17.0,1651071307657548.0,1
763,-10.0,6.0,4.0,-1.0,-1.0,-2.0,-1.0,-4.0,1651071307657548.0,1
764,-24.0,-15.0,-16.0,-1.0,0.0,-1.0,-6.0,-23.0,1651071307659497.0,1
765,12.0,2.0,0.0,-7.0,-4.0,3.0,6.0,33.0,1651071307659497.0,1
766,-6.0,8.0,16.0,7.0,0.0,0.0,-6.0,-16.0,1651071307680567.0,1
767,13.0,-4.0,-22.0,0.0,3.0,2.0,9.0,12.0,1651071307680567.0,1
768,0.0,3.0,0.0,-2.0,0.0,-1.0,1.0,0.0,1651071307681566.0,1
769,-7.0,-2.0,-12.0,0.0,-2.0,-1.0,-6.0,-16.0,1651071307681566.0,1
770,8.0,1.0,19.0,-3.0,-1.0,-1.0,2.0,2.0,1651071307693671.0,1
771,-32.0,-16.0,17.0,10.0,0.0,-1.0,-1.0,-2.0,1651071307693671.0,1
772,-7.0,5.0,-6.0,-10.0,-5.0,1.0,-2.0,-21.0,1651071307702661.0,1
773,-1.0,9.0,-7.0,7.0,3.0,1.0,-1.0,0.0,1651071307702661.0,1
774,-6.0,-13.0,-2.0,7.0,-1.0,2.0,-1.0,-7.0,1651071307717748.0,1
775,15.0,-1.0,0.0,-14.0,1.0,0.0,4.0,23.0,1651071307717748.0,1
776,-18.0,-14.0,5.0,3.0,0.0,-2.0,-6.0,-1.0,1651071307718679.0,1
777,10.0,2.0,-9.0,-8.0,-1.0,1.0,4.0,0.0,1651071307718679.0,1
778,35.0,22.0,9.0,3.0,-1.0,-2.0,1.0,24.0,1651071307739582.0,1
779,1.0,-4.0,-3.0,5.0,1.0,0.0,1.0,12.0,1651071307739582.0,1
780,8.0,14.0,-2.0,-1.0,0.0,0.0,-5.0,-25.0,1651071307741521.0,1
781,-42.0,-15.0,17.0,0.0,0.0,2.0,0.0,-9.0,1651071307741521.0,1
782,20.0,-28.0,-18.0,-9.0,-5.0,0.0,0.0,18.0,1651071307753544.0,1
783,-24.0,-1.0,-24.0,-2.0,2.0,-1.0,-2.0,-9.0,1651071307753544.0,1
784,3.0,8.0,25.0,8.0,3.0,-2.0,0.0,-6.0,1651071307762569.0,1
785,4.0,-14.0,-7.0,-5.0,-4.0,-2.0,-1.0,-5.0,1651071307762569.0,1
786,34.0,19.0,-1.0,-8.0,-5.0,-4.0,1.0,5.0,1651071307777980.0,1
787,-33.0,-10.0,11.0,-1.0,-1.0,-1.0,-5.0,-4.0,1651071307777980.0,1
788,24.0,-5.0,-26.0,2.0,2.0,0.0,-2.0,0.0,1651071307778961.0,1
789,13.0,-6.0,8.0,-4.0,-5.0,0.0,3.0,6.0,1651071307778961.0,1
790,-5.0,14.0,-3.0,3.0,1.0,2.0,2.0,4.0,1651071307800019.0,1
791,-1.0,4.0,-1.0,4.0,-1.0,-2.0,-6.0,-7.0,1651071307800019.0,1
792,-1.0,-7.0,11.0,-7.0,-6.0,-4.0,0.0,11.0,1651071307802014.0,1
793,-9.0,-4.0,-10.0,-7.0,0.0,-1.0,-3.0,-5.0,1651071307802014.0,1
794,3.0,13.0,5.0,11.0,-5.0,-2.0,1.0,5.0,1651071307814099.0,1
795,36.0,12.0,2.0,-1.0,0.0,-1.0,-3.0,3.0,1651071307814099.0,1
796,-38.0,3.0,8.0,7.0,2.0,4.0,-2.0,-15.0,1651071307822194.0,1
797,35.0,11.0,8.0,0.0,4.0,0.0,-3.0,-7.0,1651071307822194.0,1
798,-31.0,-20.0,-17.0,-9.0,-4.0,-2.0,-2.0,-6.0,1651071307837277.0,1
799,1.0,1.0,-4.0,7.0,-1.0,-1.0,4.0,17.0,1651071307837277.0,1
800,18.0,-16.0,4.0,-3.0,-3.0,-2.0,-1.0,-4.0,1651071307839205.0,1
801,16.0,7.0,0.0,1.0,0.0,-1.0,-1.0,2.0,1651071307839205.0,1
802,-35.0,3.0,0.0,3.0,2.0,0.0,-4.0,-21.0,1651071307860313.0,1
803,20.0,-13.0,2.0,-4.0,0.0,1.0,1.0,14.0,1651071307860313.0,1
804,-8.0,2.0,-7.0,-3.0,0.0,-2.0,0.0,-5.0,1651071307861252.0,1
805,-16.0,12.0,12.0,7.0,-1.0,-2.0,-1.0,-1.0,1651071307861252.0,1
806,1.0,-14.0,-2.0,-5.0,-2.0,0.0,-1.0,2.0,1651071307874131.0,1
807,-2.0,7.0,3.0,4.0,0.0,0.0,-3.0,-7.0,1651071307874131.0,1
808,9.0,12.0,-2.0,-2.0,2.0,1.0,4.0,14.0,1651071307882250.0,1
809,-5.0,-2.0,-2.0,-6.0,-9.0,-5.0,-5.0,-6.0,1651071307882250.0,1
810,3.0,6.0,0.0,5.0,1.0,-3.0,-2.0,-1.0,1651071307897356.0,1
811,2.0,5.0,2.0,-6.0,-1.0,-1.0,0.0,5.0,1651071307897356.0,1
812,-7.0,-2.0,1.0,5.0,1.0,1.0,1.0,-16.0,1651071307899289.0,1
813,-3.0,4.0,1.0,3.0,-1.0,-2.0,-3.0,4.0,1651071307899289.0,1
814,-5.0,-2.0,-1.0,-4.0,2.0,3.0,3.0,5.0,1651071307919663.0,1
815,-7.0,-16.0,-8.0,-7.0,-4.0,-3.0,-2.0,0.0,1651071307919663.0,1
816,-5.0,20.0,17.0,9.0,1.0,0.0,-2.0,-11.0,1651071307921623.0,1
817,16.0,-9.0,-18.0,0.0,5.0,3.0,2.0,2.0,1651071307921623.0,1
818,1.0,3.0,3.0,-2.0,-5.0,-4.0,-3.0,1.0,1651071307933564.0,1
819,-2.0,6.0,-1.0,-4.0,-1.0,-1.0,0.0,-6.0,1651071307933564.0,1
820,28.0,-6.0,-2.0,-6.0,-2.0,-1.0,1.0,10.0,1651071307948354.0,1
821,-12.0,-6.0,5.0,6.0,4.0,2.0,0.0,-6.0,1651071307948354.0,1
822,0.0,6.0,6.0,3.0,1.0,1.0,1.0,2.0,1651071307957330.0,1
823,-3.0,-2.0,1.0,-3.0,-3.0,-1.0,1.0,-2.0,1651071307957330.0,1
824,2.0,0.0,-4.0,1.0,-4.0,-2.0,-2.0,-6.0,1651071307959284.0,1
825,-8.0,-2.0,1.0,-3.0,-2.0,-2.0,0.0,9.0,1651071307959284.0,1
826,0.0,1.0,7.0,2.0,1.0,1.0,0.0,2.0,1651071307987406.0,1
827,-11.0,6.0,-9.0,0.0,1.0,0.0,-2.0,-10.0,1651071307987406.0,1
828,17.0,-4.0,6.0,-3.0,-2.0,-1.0,4.0,18.0,1651071307989354.0,1
829,-2.0,-8.0,-11.0,0.0,3.0,2.0,1.0,-4.0,1651071307989354.0,1
830,-12.0,-4.0,-3.0,4.0,3.0,2.0,-1.0,-2.0,1651071308002367.0,1
831,4.0,-1.0,17.0,9.0,-3.0,-3.0,-2.0,-1.0,1651071308002367.0,1
832,-13.0,-4.0,-8.0,-3.0,-2.0,-2.0,-4.0,-9.0,1651071308004320.0,1
833,10.0,6.0,6.0,5.0,3.0,3.0,4.0,4.0,1651071308004320.0,1
834,7.0,-6.0,-6.0,-19.0,-6.0,0.0,0.0,4.0,1651071308017260.0,1
835,3.0,8.0,1.0,-2.0,-4.0,-2.0,-5.0,-2.0,1651071308017260.0,1
836,-18.0,-16.0,-7.0,4.0,2.0,0.0,-2.0,-8.0,1651071308019254.0,1
837,11.0,8.0,8.0,-4.0,0.0,1.0,2.0,10.0,1651071308019254.0,1
838,-8.0,-8.0,-2.0,4.0,4.0,-2.0,-1.0,-5.0,1651071308040399.0,1
839,7.0,-3.0,-2.0,-2.0,2.0,0.0,1.0,4.0,1651071308040399.0,1
840,-15.0,4.0,-6.0,-4.0,-2.0,1.0,-1.0,-3.0,1651071308041334.0,1
841,-1.0,-7.0,-5.0,-4.0,-3.0,-2.0,-5.0,-5.0,1651071308041334.0,1
842,5.0,1.0,-6.0,1.0,0.0,0.0,2.0,3.0,1651071308062980.0,1
843,4.0,1.0,4.0,-3.0,-1.0,1.0,2.0,7.0,1651071308062980.0,1
844,-2.0,-6.0,3.0,-1.0,-2.0,-1.0,-1.0,-4.0,1651071308063983.0,1
845,-25.0,10.0,-1.0,-11.0,-1.0,1.0,-2.0,-9.0,1651071308063983.0,1
846,-12.0,2.0,3.0,6.0,1.0,1.0,-1.0,-14.0,1651071308077364.0,1
847,11.0,-2.0,-5.0,4.0,-1.0,-2.0,4.0,17.0,1651071308077364.0,1
848,-2.0,-1.0,-2.0,1.0,0.0,0.0,0.0,-2.0,1651071308079319.0,1
849,8.0,7.0,8.0,0.0,-2.0,-2.0,-1.0,-3.0,1651071308079319.0,1
850,-1.0,2.0,-3.0,-11.0,-4.0,-2.0,-2.0,-5.0,1651071308100454.0,1
851,-3.0,2.0,1.0,1.0,-2.0,0.0,-1.0,-9.0,1651071308100454.0,1
852,-3.0,-4.0,-13.0,0.0,1.0,-1.0,0.0,3.0,1651071308101453.0,1
853,4.0,3.0,5.0,-4.0,-4.0,0.0,0.0,-3.0,1651071308101453.0,1
854,7.0,-2.0,2.0,5.0,3.0,2.0,0.0,1.0,1651071308122663.0,1
855,0.0,-3.0,-5.0,6.0,-2.0,-1.0,0.0,-1.0,1651071308122663.0,1
856,-5.0,1.0,1.0,-4.0,-2.0,-3.0,-6.0,-10.0,1651071308123620.0,1
857,-1.0,-4.0,4.0,1.0,-2.0,-3.0,-2.0,-2.0,1651071308123620.0,1
858,-12.0,-5.0,-3.0,-4.0,0.0,-1.0,2.0,15.0,1651071308138017.0,1
859,-3.0,-3.0,-2.0,-3.0,1.0,-2.0,-2.0,-1.0,1651071308138017.0,1
860,16.0,-1.0,5.0,-3.0,-2.0,-1.0,2.0,1.0,1651071308139001.0,0
861,-25.0,3.0,-1.0,0.0,0.0,2.0,0.0,-5.0,1651071308139001.0,2
862,2.0,6.0,-6.0,-2.0,-1.0,-2.0,-1.0,1.0,1651071308160448.0,2
863,-3.0,2.0,0.0,-12.0,1.0,1.0,-3.0,-2.0,1651071308160448.0,2
864,-6.0,-10.0,-9.0,5.0,1.0,0.0,-2.0,-16.0,1651071308161392.0,2
865,13.0,-9.0,-4.0,8.0,5.0,1.0,4.0,7.0,1651071308161392.0,2
866,7.0,-1.0,4.0,-1.0,-1.0,-1.0,1.0,10.0,1651071308182578.0,2
867,-3.0,13.0,14.0,5.0,0.0,1.0,-1.0,-2.0,1651071308182578.0,2
868,-5.0,-9.0,-1.0,-5.0,-2.0,-1.0,0.0,-2.0,1651071308184541.0,2
869,-8.0,-8.0,-10.0,-5.0,-5.0,-2.0,-2.0,-6.0,1651071308184541.0,2
870,7.0,6.0,2.0,2.0,2.0,0.0,0.0,-1.0,1651071308196540.0,2
871,-6.0,-11.0,-8.0,-1.0,-1.0,-2.0,-2.0,-5.0,1651071308196540.0,2
872,-3.0,10.0,8.0,-1.0,3.0,3.0,1.0,5.0,1651071308204069.0,2
873,-1.0,-9.0,2.0,3.0,0.0,-1.0,-1.0,2.0,1651071308204069.0,2
874,17.0,3.0,-3.0,9.0,0.0,-1.0,-1.0,0.0,1651071308220294.0,2
875,-16.0,3.0,-7.0,-11.0,-2.0,-1.0,-1.0,-5.0,1651071308220294.0,2
876,6.0,-8.0,2.0,-2.0,0.0,1.0,1.0,10.0,1651071308226487.0,2
877,36.0,18.0,1.0,1.0,0.0,-1.0,0.0,2.0,1651071308226487.0,2
878,-5.0,-1.0,0.0,-9.0,-3.0,-2.0,-2.0,-3.0,1651071308242760.0,2
879,5.0,-4.0,-5.0,-3.0,-2.0,-2.0,2.0,1.0,1651071308242760.0,2
880,-19.0,0.0,-3.0,0.0,-4.0,-1.0,-2.0,1.0,1651071308243691.0,2
881,16.0,-1.0,-1.0,8.0,0.0,-3.0,-3.0,-5.0,1651071308243691.0,2
882,-5.0,-6.0,11.0,5.0,-4.0,0.0,-1.0,-3.0,1651071308256665.0,2
883,8.0,7.0,2.0,-4.0,3.0,-1.0,1.0,1.0,1651071308256665.0,2
884,-9.0,-10.0,-10.0,-5.0,-1.0,-3.0,-1.0,3.0,1651071308263705.0,2
885,-8.0,-10.0,-1.0,-1.0,-4.0,0.0,0.0,-1.0,1651071308263705.0,2
886,-6.0,-3.0,-1.0,5.0,2.0,-1.0,0.0,-3.0,1651071308280001.0,2
887,0.0,-8.0,-8.0,-2.0,-2.0,1.0,0.0,-1.0,1651071308280001.0,2
888,9.0,13.0,8.0,0.0,2.0,3.0,2.0,4.0,1651071308281958.0,2
889,-8.0,1.0,3.0,0.0,-4.0,-3.0,-4.0,-3.0,1651071308281958.0,2
890,-4.0,-3.0,-7.0,-3.0,2.0,1.0,0.0,-1.0,1651071308302112.0,2
891,6.0,-5.0,4.0,5.0,-1.0,-3.0,-3.0,-2.0,1651071308302112.0,2
892,-2.0,3.0,-4.0,0.0,2.0,0.0,-2.0,-3.0,1651071308304109.0,2
893,0.0,4.0,0.0,-2.0,1.0,0.0,2.0,7.0,1651071308304109.0,2
894,7.0,-10.0,-9.0,-2.0,3.0,-1.0,-1.0,1.0,1651071308316361.0,2
895,-5.0,1.0,11.0,6.0,-1.0,-1.0,-3.0,-6.0,1651071308316361.0,2
896,6.0,5.0,-3.0,-4.0,-4.0,-1.0,-2.0,2.0,1651071308323766.0,2
897,-7.0,-5.0,-1.0,-3.0,-1.0,-2.0,0.0,-4.0,1651071308323766.0,2
898,-6.0,4.0,-5.0,-6.0,-1.0,-1.0,-2.0,-4.0,1651071308339957.0,2
899,3.0,-1.0,-4.0,-1.0,3.0,1.0,1.0,-5.0,1651071308339957.0,2
900,8.0,-11.0,0.0,7.0,0.0,-2.0,0.0,12.0,1651071308341979.0,2
901,-14.0,16.0,3.0,4.0,4.0,1.0,-2.0,-2.0,1651071308341979.0,2
902,8.0,-1.0,7.0,5.0,-3.0,-4.0,-1.0,0.0,1651071308362760.0,2
903,-10.0,-5.0,-5.0,-5.0,0.0,3.0,-4.0,-9.0,1651071308362760.0,2
904,17.0,8.0,-3.0,-5.0,1.0,0.0,5.0,18.0,1651071308363721.0,2
905,-4.0,-11.0,-8.0,-2.0,0.0,-1.0,2.0,9.0,1651071308363721.0,2
906,-3.0,2.0,1.0,-3.0,-2.0,-1.0,1.0,-2.0,1651071308376724.0,2
907,-1.0,-1.0,4.0,4.0,5.0,-1.0,0.0,3.0,1651071308376724.0,2
908,-12.0,0.0,-1.0,1.0,0.0,0.0,-2.0,-15.0,1651071308383487.0,2
909,4.0,0.0,-3.0,-1.0,3.0,2.0,0.0,-2.0,1651071308383487.0,2
910,-2.0,1.0,9.0,6.0,-6.0,-2.0,-1.0,0.0,1651071308400354.0,2
911,2.0,4.0,-9.0,-11.0,-4.0,-3.0,1.0,0.0,1651071308400354.0,2
912,-3.0,0.0,2.0,6.0,1.0,-1.0,0.0,-6.0,1651071308401365.0,2
913,1.0,5.0,0.0,0.0,-3.0,-2.0,-2.0,-1.0,1651071308401365.0,2
914,-6.0,-2.0,1.0,-2.0,2.0,0.0,-2.0,-3.0,1651071308422670.0,2
915,5.0,-5.0,2.0,-1.0,0.0,0.0,1.0,6.0,1651071308422670.0,2
916,-3.0,8.0,1.0,4.0,0.0,0.0,0.0,-2.0,1651071308423695.0,2
917,-8.0,-8.0,-4.0,-3.0,-1.0,0.0,0.0,-5.0,1651071308423695.0,2
918,2.0,2.0,-1.0,0.0,1.0,1.0,0.0,0.0,1651071308436644.0,2
919,9.0,10.0,1.0,2.0,0.0,0.0,-1.0,4.0,1651071308436644.0,2
920,-16.0,-11.0,-5.0,-6.0,-3.0,-1.0,1.0,-2.0,1651071308444047.0,2
921,5.0,3.0,2.0,-4.0,-9.0,-3.0,-3.0,-5.0,1651071308444047.0,2
922,-1.0,2.0,1.0,0.0,5.0,1.0,0.0,2.0,1651071308460454.0,2
923,-5.0,-12.0,-8.0,4.0,0.0,0.0,0.0,0.0,1651071308460454.0,2
924,6.0,8.0,1.0,-11.0,-4.0,0.0,-2.0,-6.0,1651071308461459.0,2
925,-3.0,-16.0,0.0,1.0,-1.0,-2.0,-3.0,-3.0,1651071308461459.0,2
926,0.0,7.0,-2.0,-4.0,2.0,2.0,0.0,0.0,1651071308482492.0,2
927,7.0,1.0,-3.0,4.0,-7.0,-1.0,3.0,3.0,1651071308482492.0,2
928,-14.0,-5.0,3.0,1.0,1.0,-2.0,-2.0,-2.0,1651071308484417.0,2
929,24.0,4.0,1.0,-4.0,1.0,2.0,2.0,5.0,1651071308484417.0,2
930,12.0,-13.0,-2.0,0.0,-2.0,-3.0,-5.0,-3.0,1651071308496449.0,2
931,-42.0,0.0,-4.0,-3.0,4.0,1.0,-1.0,-4.0,1651071308496449.0,2
932,17.0,4.0,2.0,4.0,-3.0,-3.0,-2.0,-4.0,1651071308505526.0,2
933,-27.0,0.0,7.0,4.0,-1.0,1.0,1.0,3.0,1651071308505526.0,2
934,3.0,-3.0,-8.0,-9.0,-1.0,1.0,2.0,1.0,1651071308520456.0,2
935,14.0,1.0,0.0,-1.0,-5.0,-4.0,-1.0,2.0,1651071308520456.0,2
936,1.0,-2.0,-1.0,0.0,-2.0,0.0,-2.0,-1.0,1651071308521457.0,2
937,2.0,6.0,0.0,1.0,0.0,0.0,0.0,-2.0,1651071308521457.0,2
938,-3.0,3.0,-3.0,6.0,4.0,2.0,0.0,-3.0,1651071308542049.0,2
939,0.0,3.0,10.0,5.0,-3.0,-2.0,0.0,4.0,1651071308542049.0,2
940,-8.0,-6.0,-1.0,-10.0,-3.0,-1.0,-2.0,-2.0,1651071308544045.0,2
941,8.0,-9.0,-10.0,-1.0,0.0,1.0,0.0,-1.0,1651071308544045.0,2
942,-5.0,8.0,-3.0,-2.0,-4.0,-4.0,-3.0,-4.0,1651071308556372.0,2
943,-6.0,-14.0,-2.0,-2.0,3.0,1.0,-1.0,0.0,1651071308556372.0,2
944,5.0,8.0,9.0,3.0,4.0,0.0,0.0,-1.0,1651071308565467.0,2
945,-2.0,-7.0,-11.0,-8.0,-1.0,-2.0,1.0,1.0,1651071308565467.0,2
946,0.0,-5.0,4.0,7.0,-1.0,-2.0,0.0,-1.0,1651071308580417.0,2
947,3.0,5.0,1.0,2.0,0.0,-2.0,1.0,1.0,1651071308580417.0,2
948,1.0,-2.0,3.0,3.0,0.0,2.0,-2.0,-2.0,1651071308581345.0,2
949,-7.0,-6.0,-4.0,-2.0,6.0,2.0,0.0,2.0,1651071308581345.0,2
950,-3.0,4.0,-1.0,0.0,-3.0,-2.0,-2.0,2.0,1651071308602964.0,2
951,7.0,3.0,7.0,0.0,-3.0,-1.0,-3.0,-1.0,1651071308602964.0,2
952,1.0,-3.0,-6.0,0.0,-4.0,1.0,0.0,0.0,1651071308603963.0,2
953,-1.0,3.0,2.0,13.0,1.0,-1.0,-1.0,-1.0,1651071308603963.0,2
954,-1.0,-3.0,0.0,-5.0,-2.0,0.0,0.0,-3.0,1651071308616274.0,2
955,8.0,-3.0,-1.0,0.0,-2.0,-1.0,0.0,-2.0,1651071308616274.0,2
956,-5.0,-2.0,1.0,3.0,-2.0,-3.0,0.0,-2.0,1651071308625055.0,2
957,-5.0,3.0,1.0,-4.0,3.0,-2.0,-3.0,-4.0,1651071308625055.0,2
958,3.0,-5.0,2.0,1.0,1.0,1.0,0.0,1.0,1651071308640013.0,2
959,-3.0,-6.0,-5.0,-5.0,-1.0,-1.0,-1.0,0.0,1651071308640013.0,2
960,5.0,8.0,-4.0,-3.0,-1.0,-4.0,0.0,-3.0,1651071308642010.0,2
961,-1.0,-1.0,3.0,0.0,0.0,0.0,0.0,-2.0,1651071308642010.0,2
962,-3.0,2.0,-2.0,3.0,0.0,-1.0,0.0,0.0,1651071308662236.0,2
963,-2.0,2.0,1.0,-2.0,0.0,-1.0,-1.0,-1.0,1651071308662236.0,2
964,2.0,1.0,3.0,5.0,5.0,3.0,0.0,1.0,1651071308668198.0,2
965,5.0,5.0,-5.0,-5.0,-2.0,-2.0,0.0,-4.0,1651071308668198.0,2
966,5.0,3.0,0.0,2.0,1.0,-1.0,-1.0,5.0,1651071308676338.0,2
967,-6.0,-1.0,-1.0,2.0,1.0,0.0,1.0,0.0,1651071308676338.0,2
968,-2.0,-5.0,-4.0,0.0,-1.0,0.0,0.0,1.0,1651071308685276.0,2
969,-5.0,0.0,0.0,-4.0,-5.0,-2.0,-1.0,-3.0,1651071308685276.0,2
970,-6.0,-4.0,-1.0,-8.0,-4.0,0.0,0.0,-4.0,1651071308700394.0,2
971,4.0,7.0,0.0,1.0,5.0,2.0,0.0,1.0,1651071308700394.0,2
972,-2.0,2.0,-1.0,0.0,2.0,2.0,-4.0,-5.0,1651071308702349.0,2
973,10.0,-2.0,3.0,6.0,0.0,-1.0,1.0,2.0,1651071308702349.0,2
974,-1.0,-1.0,-5.0,1.0,-1.0,0.0,-1.0,4.0,1651071308722602.0,2
975,-1.0,7.0,4.0,0.0,0.0,-2.0,-3.0,-3.0,1651071308722602.0,2
976,-1.0,7.0,-2.0,-5.0,-2.0,-2.0,2.0,3.0,1651071308723616.0,2
977,-7.0,-13.0,-7.0,-7.0,-1.0,1.0,-3.0,-4.0,1651071308723616.0,2
978,-3.0,4.0,3.0,-1.0,-2.0,-2.0,0.0,-5.0,1651071308736623.0,2
979,8.0,-3.0,-2.0,-2.0,-1.0,0.0,1.0,4.0,1651071308736623.0,2
980,1.0,8.0,1.0,4.0,1.0,-1.0,-1.0,0.0,1651071308745465.0,2
981,0.0,1.0,1.0,-7.0,-3.0,1.0,1.0,1.0,1651071308745465.0,2
982,-1.0,1.0,-5.0,-2.0,2.0,-2.0,-1.0,1.0,1651071308760352.0,2
983,2.0,-2.0,6.0,2.0,-2.0,-1.0,0.0,-3.0,1651071308760352.0,2
984,1.0,-3.0,-4.0,-2.0,-2.0,-2.0,-1.0,0.0,1651071308761308.0,2
985,-3.0,-2.0,8.0,6.0,-2.0,-2.0,-2.0,3.0,1651071308761308.0,2
986,-1.0,-1.0,1.0,4.0,-4.0,-2.0,-6.0,-6.0,1651071308782982.0,2
987,1.0,-2.0,-5.0,-5.0,-1.0,-1.0,0.0,-3.0,1651071308782982.0,2
988,0.0,-5.0,-1.0,5.0,13.0,5.0,2.0,2.0,1651071308783982.0,2
989,0.0,3.0,0.0,0.0,0.0,1.0,0.0,2.0,1651071308783982.0,2
990,-4.0,-4.0,-2.0,-6.0,-1.0,-1.0,2.0,1.0,1651071308796266.0,2
991,-2.0,-2.0,0.0,2.0,-5.0,-3.0,-3.0,-2.0,1651071308796266.0,2
992,-2.0,-5.0,2.0,-4.0,-6.0,-3.0,0.0,2.0,1651071308805154.0,2
993,-2.0,2.0,-6.0,-4.0,1.0,0.0,0.0,-1.0,1651071308805154.0,2
994,2.0,3.0,0.0,2.0,2.0,1.0,1.0,1.0,1651071308820417.0,2
995,-2.0,-2.0,2.0,2.0,-1.0,-2.0,-2.0,-2.0,1651071308820417.0,2
996,-3.0,-7.0,-4.0,-4.0,-3.0,-2.0,1.0,1.0,1651071308821302.0,2
997,6.0,9.0,5.0,6.0,4.0,4.0,0.0,0.0,1651071308821302.0,2
998,0.0,-5.0,-2.0,-1.0,-1.0,-1.0,-2.0,-1.0,1651071308842620.0,2
999,-8.0,-1.0,1.0,-2.0,1.0,-1.0,1.0,1.0,1651071308842620.0,2
1000,-2.0,-2.0,-3.0,-2.0,-5.0,-3.0,-1.0,-4.0,1651071308843591.0,2
1001,-1.0,-5.0,1.0,0.0,-5.0,-2.0,0.0,-1.0,1651071308843591.0,2
1002,2.0,2.0,0.0,-1.0,0.0,0.0,1.0,1.0,1651071308856602.0,2
1003,2.0,-1.0,-3.0,-1.0,-2.0,0.0,-1.0,2.0,1651071308856602.0,2
1004,2.0,-1.0,-1.0,-1.0,-1.0,0.0,1.0,-1.0,1651071308865545.0,2
1005,-3.0,0.0,-3.0,-1.0,4.0,0.0,-1.0,1.0,1651071308865545.0,2
1006,1.0,1.0,0.0,1.0,-2.0,1.0,1.0,0.0,1651071308879561.0,2
1007,-1.0,-2.0,1.0,2.0,1.0,0.0,-1.0,-2.0,1651071308879561.0,2
1008,0.0,0.0,1.0,-1.0,-10.0,-4.0,0.0,-2.0,1651071308881490.0,2
1009,1.0,-3.0,-2.0,-3.0,-3.0,-3.0,-2.0,0.0,1651071308881490.0,2
1010,-2.0,0.0,1.0,3.0,7.0,2.0,-1.0,2.0,1651071308902439.0,2
1011,-1.0,-1.0,-1.0,0.0,-6.0,-2.0,-4.0,-6.0,1651071308902439.0,2
1012,0.0,1.0,4.0,0.0,-1.0,1.0,-2.0,-1.0,1651071308904367.0,2
1013,-2.0,0.0,-4.0,0.0,15.0,9.0,2.0,0.0,1651071308904367.0,2
1014,-3.0,-4.0,4.0,-2.0,-2.0,-2.0,1.0,-4.0,1651071308916368.0,2
1015,-2.0,1.0,-5.0,1.0,0.0,-3.0,0.0,1.0,1651071308916368.0,2
1016,5.0,-3.0,3.0,4.0,1.0,3.0,2.0,5.0,1651071308925432.0,2
1017,-2.0,0.0,4.0,-6.0,-9.0,-6.0,0.0,-2.0,1651071308925432.0,2
1018,1.0,0.0,-2.0,4.0,3.0,2.0,1.0,-1.0,1651071308947355.0,2
1019,1.0,-1.0,-7.0,-2.0,-4.0,0.0,1.0,-1.0,1651071308947355.0,2
1020,-2.0,-3.0,-3.0,-8.0,4.0,2.0,-1.0,0.0,1651071308949311.0,2
1021,0.0,-1.0,-4.0,-1.0,-4.0,-4.0,-1.0,1.0,1651071308949311.0,2
1022,-1.0,0.0,7.0,1.0,3.0,0.0,-1.0,-3.0,1651071308962980.0,2
1023,1.0,-2.0,-1.0,3.0,7.0,3.0,0.0,0.0,1651071308962980.0,2
1024,-2.0,0.0,-6.0,-1.0,-5.0,-3.0,-4.0,-12.0,1651071308963979.0,2
1025,-1.0,-8.0,-1.0,-1.0,-5.0,-2.0,2.0,5.0,1651071308963979.0,2
1026,2.0,4.0,-1.0,-2.0,-4.0,-4.0,0.0,14.0,1651071308984922.0,2
1027,-1.0,2.0,1.0,1.0,7.0,4.0,0.0,1.0,1651071308984922.0,2
1028,0.0,4.0,1.0,5.0,6.0,-1.0,0.0,4.0,1651071308986944.0,2
1029,0.0,10.0,25.0,-7.0,-8.0,-2.0,-3.0,-8.0,1651071308986944.0,2
1030,-8.0,-34.0,-39.0,-7.0,-12.0,-8.0,-6.0,-8.0,1651071308999952.0,2
1031,1.0,0.0,-9.0,-2.0,-3.0,3.0,1.0,2.0,1651071308999952.0,2
1032,-1.0,1.0,-9.0,-12.0,2.0,0.0,-2.0,-1.0,1651071309001899.0,2
1033,1.0,8.0,12.0,14.0,1.0,-2.0,-1.0,-3.0,1651071309001899.0,2
1034,0.0,5.0,5.0,-11.0,-9.0,-4.0,-2.0,0.0,1651071309022749.0,2
1035,1.0,0.0,0.0,-9.0,2.0,-1.0,0.0,-2.0,1651071309022749.0,2
1036,-3.0,1.0,7.0,7.0,-1.0,-1.0,-2.0,1.0,1651071309023680.0,2
1037,4.0,-6.0,-9.0,21.0,2.0,2.0,0.0,3.0,1651071309023680.0,2
1038,2.0,3.0,2.0,-2.0,2.0,2.0,2.0,0.0,1651071309045443.0,2
1039,2.0,2.0,8.0,10.0,4.0,3.0,1.0,0.0,1651071309045443.0,2
1040,-3.0,-6.0,0.0,11.0,-4.0,-5.0,-3.0,-1.0,1651071309046346.0,2
1041,-2.0,-5.0,-11.0,-32.0,-6.0,-1.0,0.0,1.0,1651071309046346.0,2
1042,2.0,3.0,0.0,6.0,2.0,0.0,2.0,0.0,1651071309060369.0,2
1043,1.0,1.0,2.0,-4.0,5.0,2.0,-1.0,-1.0,1651071309060369.0,2
1044,1.0,6.0,15.0,38.0,9.0,3.0,0.0,2.0,1651071309061306.0,2
1045,0.0,-4.0,-2.0,5.0,8.0,5.0,2.0,2.0,1651071309061306.0,2
1046,-3.0,-5.0,-13.0,-20.0,-9.0,-6.0,-3.0,-5.0,1651071309083342.0,2
1047,-13.0,-9.0,-18.0,-38.0,-11.0,-5.0,1.0,1.0,1651071309083342.0,2
1048,2.0,1.0,0.0,0.0,-2.0,-2.0,0.0,1.0,1651071309088344.0,2
1049,1.0,-2.0,-10.0,-23.0,5.0,4.0,2.0,0.0,1651071309088344.0,2
1050,1.0,5.0,17.0,15.0,3.0,6.0,3.0,2.0,1651071309105434.0,2
1051,4.0,-3.0,-4.0,-6.0,-3.0,-4.0,-1.0,0.0,1651071309105434.0,2
1052,-11.0,-4.0,0.0,45.0,1.0,-2.0,1.0,-2.0,1651071309106296.0,2
1053,-4.0,0.0,19.0,23.0,0.0,-6.0,-2.0,-5.0,1651071309106296.0,2
1054,0.0,1.0,-6.0,2.0,-4.0,-2.0,-5.0,1.0,1651071309119263.0,2
1055,3.0,2.0,-2.0,-34.0,-5.0,0.0,-1.0,1.0,1651071309119263.0,2
1056,0.0,-5.0,-7.0,-45.0,-10.0,-2.0,-2.0,-2.0,1651071309126424.0,2
1057,0.0,2.0,3.0,33.0,0.0,1.0,1.0,2.0,1651071309126424.0,2
1058,-1.0,5.0,12.0,-9.0,7.0,3.0,2.0,-1.0,1651071309142199.0,2
1059,0.0,1.0,14.0,49.0,3.0,1.0,-1.0,0.0,1651071309142199.0,2
1060,1.0,4.0,1.0,-9.0,3.0,4.0,1.0,0.0,1651071309144194.0,2
1061,7.0,2.0,-17.0,-41.0,-5.0,0.0,1.0,0.0,1651071309144194.0,2
1062,-8.0,-7.0,-7.0,-8.0,-7.0,-4.0,-4.0,-3.0,1651071309172230.0,2
1063,0.0,1.0,7.0,0.0,2.0,1.0,0.0,0.0,1651071309172230.0,2
1064,2.0,-2.0,-3.0,5.0,-2.0,0.0,0.0,1.0,1651071309174158.0,2
1065,-1.0,0.0,4.0,16.0,-3.0,-4.0,-3.0,-3.0,1651071309174158.0,2
1066,2.0,4.0,5.0,6.0,5.0,3.0,2.0,-1.0,1651071309179173.0,2
1067,-1.0,-1.0,-1.0,5.0,-2.0,-3.0,-3.0,-2.0,1651071309179173.0,2
1068,-2.0,-2.0,-3.0,-2.0,0.0,1.0,0.0,1.0,1651071309186228.0,2
1069,-4.0,-1.0,-7.0,3.0,-1.0,-1.0,-1.0,0.0,1651071309186228.0,2
1070,2.0,1.0,0.0,-16.0,4.0,-2.0,-1.0,-2.0,1651071309202979.0,2
1071,-4.0,-5.0,-1.0,17.0,-4.0,-2.0,-2.0,-1.0,1651071309202979.0,2
1072,3.0,-1.0,-1.0,-12.0,-6.0,-3.0,-1.0,2.0,1651071309203978.0,2
1073,-2.0,-1.0,-9.0,-14.0,0.0,-1.0,-2.0,-2.0,1651071309203978.0,2
1074,2.0,1.0,7.0,12.0,5.0,1.0,2.0,0.0,1651071309225194.0,2
1075,2.0,2.0,-3.0,4.0,-3.0,-1.0,-1.0,0.0,1651071309225194.0,2
1076,-1.0,0.0,-1.0,-18.0,-2.0,-1.0,1.0,-1.0,1651071309226295.0,2
1077,-5.0,-5.0,-1.0,13.0,0.0,-2.0,-3.0,-3.0,1651071309226295.0,2
1078,0.0,2.0,2.0,2.0,-2.0,0.0,-1.0,1.0,1651071309239156.0,2
1079,2.0,1.0,-1.0,12.0,-1.0,-2.0,-1.0,0.0,1651071309239156.0,2
1080,-1.0,0.0,-5.0,-11.0,-4.0,-3.0,-1.0,-1.0,1651071309248141.0,2
1081,-2.0,-1.0,3.0,-1.0,-7.0,-3.0,-1.0,0.0,1651071309248141.0,2
1082,-1.0,2.0,-4.0,14.0,5.0,2.0,0.0,0.0,1651071309262278.0,2
1083,-1.0,-2.0,6.0,22.0,5.0,-2.0,1.0,1.0,1651071309262278.0,2
1084,-2.0,2.0,6.0,-6.0,0.0,-2.0,-3.0,-2.0,1651071309264240.0,2
1085,0.0,-4.0,-6.0,-15.0,-3.0,-2.0,0.0,0.0,1651071309264240.0,2
1086,0.0,1.0,2.0,-4.0,-6.0,-2.0,0.0,0.0,1651071309285270.0,2
1087,0.0,0.0,-4.0,-20.0,-5.0,1.0,1.0,0.0,1651071309285270.0,2
1088,0.0,-3.0,-6.0,14.0,4.0,-2.0,0.0,-1.0,1651071309287292.0,2
1089,-1.0,3.0,12.0,4.0,7.0,1.0,-1.0,-1.0,1651071309287292.0,2
1090,0.0,2.0,-1.0,-2.0,0.0,1.0,1.0,0.0,1651071309299300.0,2
1091,-1.0,-1.0,-2.0,-4.0,0.0,-1.0,-2.0,-1.0,1651071309299300.0,2
1092,-1.0,1.0,-1.0,-12.0,-5.0,-1.0,-1.0,-2.0,1651071309306281.0,2
1093,-1.0,-4.0,-5.0,10.0,-1.0,-1.0,-2.0,-1.0,1651071309306281.0,2
1094,-1.0,-2.0,-5.0,-12.0,0.0,0.0,-2.0,1.0,1651071309322199.0,2
1095,-2.0,-1.0,-3.0,3.0,0.0,-2.0,0.0,-2.0,1651071309322199.0,2
1096,0.0,-3.0,-3.0,-5.0,-5.0,-4.0,-2.0,1.0,1651071309324167.0,2
1097,1.0,0.0,-4.0,-7.0,0.0,-1.0,-2.0,1.0,1651071309324167.0,2
1098,0.0,-1.0,5.0,15.0,2.0,1.0,0.0,0.0,1651071309345412.0,2
1099,1.0,-3.0,-2.0,-13.0,-1.0,0.0,1.0,0.0,1651071309345412.0,2
1100,2.0,-1.0,-3.0,4.0,2.0,2.0,-1.0,0.0,1651071309346404.0,2
1101,-3.0,1.0,7.0,4.0,4.0,-4.0,-1.0,-2.0,1651071309346404.0,2
1102,-3.0,-3.0,-8.0,-4.0,0.0,-3.0,-2.0,0.0,1651071309359432.0,2
1103,1.0,3.0,2.0,-4.0,-1.0,2.0,-1.0,1.0,1651071309359432.0,2
1104,2.0,-2.0,1.0,-9.0,-2.0,1.0,-1.0,1.0,1651071309366439.0,2
1105,-1.0,-1.0,-8.0,-9.0,-6.0,-2.0,-1.0,1.0,1651071309366439.0,2
1106,0.0,0.0,4.0,12.0,2.0,1.0,0.0,2.0,1651071309382560.0,2
1107,-2.0,5.0,5.0,5.0,7.0,0.0,-1.0,-2.0,1651071309382560.0,2
1108,-3.0,-11.0,-7.0,-3.0,-2.0,0.0,1.0,-1.0,1651071309384487.0,2
1109,0.0,0.0,-3.0,1.0,-2.0,1.0,0.0,0.0,1651071309384487.0,2
1110,-2.0,2.0,-1.0,-19.0,-2.0,-3.0,0.0,-2.0,1651071309405412.0,2
1111,2.0,0.0,-1.0,-1.0,-12.0,-7.0,0.0,0.0,1651071309405412.0,2
1112,0.0,4.0,0.0,5.0,9.0,3.0,0.0,0.0,1651071309406344.0,2
1113,0.0,-2.0,-8.0,-12.0,-4.0,0.0,-1.0,1.0,1651071309406344.0,2
1114,0.0,-2.0,2.0,4.0,-2.0,-2.0,-1.0,-1.0,1651071309419301.0,2
1115,-1.0,-2.0,-1.0,5.0,-2.0,-1.0,-1.0,-1.0,1651071309419301.0,2
1116,0.0,2.0,4.0,-3.0,-2.0,-3.0,1.0,-1.0,1651071309426501.0,2
1117,0.0,0.0,7.0,10.0,1.0,0.0,2.0,-1.0,1651071309426501.0,2
1118,-2.0,-3.0,-18.0,-13.0,-3.0,-3.0,0.0,-3.0,1651071309442602.0,2
1119,-1.0,-3.0,2.0,3.0,-1.0,-1.0,-1.0,-2.0,1651071309442602.0,2
1120,0.0,2.0,3.0,-4.0,3.0,1.0,0.0,0.0,1651071309443603.0,2
1121,-2.0,-4.0,3.0,12.0,6.0,0.0,-1.0,-1.0,1651071309443603.0,2
1122,0.0,-1.0,5.0,7.0,-2.0,0.0,-3.0,-1.0,1651071309464448.0,2
1123,-1.0,-2.0,-7.0,-7.0,-1.0,0.0,0.0,1.0,1651071309464448.0,2
1124,-1.0,0.0,-1.0,-5.0,1.0,0.0,0.0,-1.0,1651071309466447.0,2
1125,-2.0,3.0,1.0,5.0,-6.0,1.0,0.0,-3.0,1651071309466447.0,2
1126,1.0,4.0,1.0,-20.0,1.0,1.0,2.0,0.0,1651071309478629.0,2
1127,0.0,-5.0,-6.0,13.0,5.0,1.0,1.0,-1.0,1651071309478629.0,2
1128,-1.0,-3.0,-9.0,-7.0,-12.0,0.0,0.0,0.0,1651071309487540.0,2
1129,1.0,1.0,-1.0,0.0,6.0,-2.0,-1.0,0.0,1651071309487540.0,2
1130,0.0,-2.0,3.0,10.0,4.0,2.0,-2.0,0.0,1651071309502314.0,2
1131,0.0,4.0,3.0,-6.0,1.0,0.0,-1.0,0.0,1651071309502314.0,2
1132,-1.0,0.0,3.0,3.0,1.0,0.0,-1.0,-1.0,1651071309504286.0,2
1133,-2.0,-1.0,-5.0,-4.0,-4.0,-2.0,-2.0,-1.0,1651071309504286.0,2
1134,-1.0,-1.0,1.0,-1.0,-2.0,-2.0,2.0,0.0,1651071309525319.0,2
1135,-1.0,1.0,5.0,2.0,-4.0,-2.0,-1.0,0.0,1651071309525319.0,2
1136,0.0,-2.0,5.0,15.0,12.0,1.0,0.0,-1.0,1651071309526316.0,2
1137,-2.0,-5.0,-22.0,-30.0,-9.0,-1.0,-3.0,-1.0,1651071309526316.0,2
1138,-1.0,0.0,1.0,7.0,1.0,-1.0,-1.0,-3.0,1651071309538333.0,2
1139,-1.0,1.0,1.0,-3.0,-2.0,-1.0,1.0,0.0,1651071309538333.0,2
1140,-1.0,2.0,-1.0,-3.0,-2.0,-5.0,-1.0,1.0,1651071309547301.0,2
1141,-1.0,3.0,6.0,1.0,3.0,0.0,0.0,1.0,1651071309547301.0,2
1142,1.0,-2.0,-4.0,4.0,-1.0,-2.0,0.0,-2.0,1651071309562312.0,2
1143,0.0,-4.0,-3.0,-7.0,-3.0,0.0,0.0,-1.0,1651071309562312.0,2
1144,-1.0,0.0,0.0,2.0,1.0,1.0,0.0,-1.0,1651071309564283.0,2
1145,-1.0,-2.0,0.0,1.0,2.0,-2.0,1.0,-1.0,1651071309564283.0,2
1146,-2.0,-2.0,-3.0,-5.0,-5.0,0.0,0.0,0.0,1651071309585463.0,2
1147,-4.0,4.0,9.0,0.0,5.0,1.0,0.0,-1.0,1651071309585463.0,2
1148,0.0,-3.0,-7.0,4.0,-2.0,1.0,-2.0,0.0,1651071309586310.0,2
1149,0.0,0.0,5.0,6.0,7.0,-1.0,0.0,0.0,1651071309586310.0,2
1150,0.0,-3.0,4.0,10.0,-6.0,-3.0,1.0,0.0,1651071309598403.0,2
1151,1.0,-1.0,-9.0,-19.0,4.0,-1.0,-1.0,-1.0,1651071309598403.0,2
1152,1.0,1.0,-1.0,1.0,-3.0,-2.0,-1.0,-2.0,1651071309607334.0,2
1153,0.0,0.0,0.0,-4.0,-4.0,-2.0,-1.0,0.0,1651071309607334.0,2
1154,-1.0,-2.0,2.0,6.0,-1.0,-1.0,0.0,0.0,1651071309622319.0,2
1155,-1.0,-2.0,-5.0,-11.0,-5.0,0.0,0.0,-2.0,1651071309622319.0,2
1156,-1.0,0.0,-2.0,-7.0,-2.0,-2.0,1.0,0.0,1651071309624274.0,2
1157,0.0,-1.0,7.0,6.0,-4.0,-2.0,-1.0,-1.0,1651071309624274.0,2
1158,1.0,1.0,-2.0,-1.0,-1.0,2.0,1.0,2.0,1651071309645318.0,2
1159,1.0,-1.0,3.0,16.0,-2.0,-1.0,-1.0,0.0,1651071309645318.0,2
1160,0.0,-1.0,0.0,-4.0,2.0,1.0,0.0,0.0,1651071309646316.0,2
1161,-2.0,-1.0,-5.0,-9.0,-4.0,-3.0,-1.0,-1.0,1651071309646316.0,2
1162,-3.0,1.0,2.0,-13.0,1.0,-2.0,0.0,0.0,1651071309658293.0,2
1163,-2.0,-3.0,-7.0,4.0,1.0,-2.0,-3.0,-1.0,1651071309658293.0,2
1164,0.0,0.0,2.0,3.0,-2.0,0.0,-2.0,1.0,1651071309667268.0,2
1165,1.0,0.0,1.0,9.0,3.0,3.0,-3.0,-1.0,1651071309667268.0,2
1166,-1.0,-1.0,-5.0,-9.0,-4.0,-2.0,0.0,2.0,1651071309682809.0,2
1167,0.0,2.0,1.0,1.0,-1.0,1.0,0.0,1.0,1651071309682809.0,2
1168,-1.0,-1.0,4.0,1.0,2.0,-2.0,0.0,0.0,1651071309683811.0,2
1169,-2.0,-2.0,-9.0,-7.0,-3.0,0.0,1.0,-1.0,1651071309683811.0,2
1170,0.0,-1.0,-8.0,-2.0,-13.0,-5.0,-1.0,-1.0,1651071309705224.0,2
1171,-1.0,2.0,9.0,5.0,17.0,5.0,3.0,1.0,1651071309705224.0,2
1172,-2.0,-3.0,8.0,25.0,3.0,-2.0,0.0,-2.0,1651071309706325.0,2
1173,-1.0,1.0,5.0,-6.0,-1.0,-4.0,1.0,0.0,1651071309706325.0,2
1174,-1.0,-4.0,-8.0,-6.0,-3.0,0.0,-1.0,-1.0,1651071309719195.0,2
1175,0.0,-1.0,-8.0,-12.0,-6.0,-1.0,0.0,-1.0,1651071309719195.0,2
1176,-2.0,3.0,-1.0,-5.0,-2.0,-1.0,1.0,0.0,1651071309727255.0,2
1177,3.0,1.0,-3.0,2.0,1.0,3.0,0.0,-1.0,1651071309727255.0,2
1178,0.0,3.0,6.0,4.0,1.0,-3.0,-2.0,0.0,1651071309742382.0,2
1179,0.0,-6.0,-5.0,-4.0,-5.0,-2.0,0.0,0.0,1651071309742382.0,2
1180,-2.0,-1.0,-1.0,1.0,-1.0,0.0,-1.0,1.0,1651071309744402.0,2
1181,-1.0,-1.0,3.0,7.0,1.0,-1.0,-1.0,-1.0,1651071309744402.0,2
1182,0.0,1.0,2.0,3.0,4.0,1.0,-2.0,-3.0,1651071309765444.0,2
1183,-1.0,0.0,5.0,6.0,-2.0,-2.0,-2.0,-1.0,1651071309765444.0,2
1184,1.0,0.0,-9.0,-3.0,-2.0,0.0,-1.0,-1.0,1651071309766313.0,2
1185,-1.0,-1.0,-5.0,-9.0,-2.0,0.0,-2.0,1.0,1651071309766313.0,2
1186,0.0,1.0,5.0,7.0,4.0,0.0,0.0,0.0,1651071309778340.0,2
1187,2.0,1.0,2.0,-5.0,-1.0,1.0,2.0,1.0,1651071309778340.0,2
1188,-1.0,-4.0,-1.0,-1.0,0.0,-1.0,-5.0,-2.0,1651071309787259.0,2
1189,0.0,-1.0,0.0,0.0,-2.0,0.0,0.0,-1.0,1651071309787259.0,2
1190,-2.0,-3.0,-2.0,3.0,2.0,1.0,-2.0,0.0,1651071309802276.0,2
1191,0.0,1.0,-3.0,-3.0,-6.0,-1.0,-2.0,-1.0,1651071309802276.0,2
1192,0.0,-1.0,-2.0,-9.0,3.0,1.0,0.0,0.0,1651071309804204.0,2
1193,-1.0,0.0,-2.0,3.0,1.0,0.0,-2.0,-1.0,1651071309804204.0,2
1194,0.0,-2.0,0.0,-6.0,-1.0,-1.0,-1.0,0.0,1651071309824569.0,2
1195,0.0,0.0,-1.0,5.0,-2.0,-3.0,-2.0,0.0,1651071309824569.0,2
1196,1.0,0.0,1.0,6.0,-3.0,-2.0,0.0,-1.0,1651071309826493.0,2
1197,-2.0,-2.0,-3.0,-7.0,-3.0,-2.0,-2.0,0.0,1651071309826493.0,2
1198,-1.0,0.0,2.0,3.0,3.0,1.0,-2.0,-1.0,1651071309838529.0,2
1199,0.0,0.0,-2.0,-6.0,-2.0,-1.0,-1.0,-1.0,1651071309838529.0,2
1200,0.0,-1.0,-1.0,-2.0,1.0,-1.0,-2.0,0.0,1651071309847483.0,2
1201,0.0,1.0,1.0,4.0,-1.0,0.0,1.0,-1.0,1651071309847483.0,2
1202,0.0,-2.0,-5.0,-8.0,-10.0,-1.0,1.0,-1.0,1651071309862915.0,2
1203,-1.0,0.0,4.0,10.0,11.0,3.0,0.0,-2.0,1651071309862915.0,2
1204,0.0,4.0,1.0,-1.0,1.0,0.0,1.0,0.0,1651071309864446.0,2
1205,0.0,-4.0,-7.0,-11.0,-5.0,-2.0,0.0,1.0,1651071309864446.0,2
1206,0.0,1.0,0.0,15.0,5.0,2.0,-1.0,0.0,1651071309892435.0,2
1207,-1.0,-3.0,0.0,1.0,-4.0,-2.0,-1.0,-2.0,1651071309892435.0,2
1208,-2.0,-1.0,0.0,-5.0,-4.0,-1.0,1.0,-1.0,1651071309894457.0,2
1209,-1.0,-1.0,0.0,-2.0,0.0,-1.0,0.0,0.0,1651071309894457.0,2
1210,1.0,-1.0,0.0,-1.0,0.0,-4.0,1.0,-1.0,1651071309907513.0,2
1211,-2.0,-1.0,-1.0,-2.0,-2.0,1.0,0.0,0.0,1651071309907513.0,2
1212,-1.0,0.0,0.0,-4.0,-5.0,-2.0,-1.0,-1.0,1651071309909447.0,2
1213,0.0,0.0,-6.0,-1.0,4.0,1.0,-1.0,-1.0,1651071309909447.0,2
1214,-1.0,-3.0,3.0,12.0,2.0,0.0,-2.0,0.0,1651071309922577.0,2
1215,0.0,-2.0,-7.0,-18.0,-3.0,-3.0,-1.0,-1.0,1651071309922577.0,2
1216,1.0,-5.0,-9.0,-10.0,-6.0,-3.0,-1.0,-1.0,1651071309928566.0,2
1217,1.0,1.0,4.0,2.0,0.0,0.0,1.0,0.0,1651071309928566.0,2
1218,0.0,-1.0,-3.0,-8.0,1.0,-2.0,-2.0,0.0,1651071309944590.0,2
1219,-1.0,2.0,2.0,5.0,-1.0,-1.0,0.0,0.0,1651071309944590.0,2
1220,1.0,1.0,1.0,-2.0,-1.0,0.0,0.0,2.0,1651071309946524.0,2
1221,-3.0,-2.0,-3.0,-4.0,-7.0,0.0,-1.0,-1.0,1651071309946524.0,2
1222,0.0,1.0,10.0,20.0,15.0,6.0,2.0,0.0,1651071309967360.0,2
1223,0.0,-2.0,3.0,3.0,-4.0,-2.0,-2.0,0.0,1651071309967360.0,2
1224,0.0,0.0,-1.0,-2.0,3.0,0.0,0.0,-1.0,1651071309969313.0,2
1225,-2.0,2.0,-1.0,0.0,-2.0,-1.0,-2.0,-1.0,1651071309969313.0,2
1226,-1.0,0.0,-3.0,-11.0,-6.0,-1.0,0.0,-1.0,1651071309982279.0,2
1227,0.0,-1.0,0.0,9.0,3.0,0.0,0.0,1.0,1651071309982279.0,2
1228,0.0,2.0,-3.0,-5.0,-2.0,-1.0,0.0,-1.0,1651071309984273.0,2
1229,-1.0,0.0,6.0,-6.0,-3.0,-1.0,0.0,-1.0,1651071309984273.0,2
1230,0.0,-1.0,-2.0,2.0,4.0,0.0,2.0,0.0,1651071310005212.0,2
1231,-1.0,1.0,2.0,-3.0,1.0,-1.0,-1.0,-1.0,1651071310005212.0,2
1232,-1.0,-3.0,-3.0,-4.0,1.0,2.0,0.0,0.0,1651071310006216.0,2
1233,0.0,0.0,3.0,10.0,-1.0,2.0,0.0,2.0,1651071310006216.0,2
1234,-2.0,-2.0,-4.0,-3.0,-8.0,-3.0,-3.0,-3.0,1651071310027366.0,2
1235,0.0,0.0,-3.0,-12.0,-6.0,-5.0,-1.0,-3.0,1651071310027366.0,2
1236,0.0,0.0,3.0,8.0,5.0,-1.0,-1.0,-2.0,1651071310029326.0,2
1237,1.0,1.0,6.0,15.0,9.0,5.0,0.0,-1.0,1651071310029326.0,2
1238,0.0,4.0,8.0,-10.0,-12.0,0.0,0.0,1.0,1651071310042300.0,2
1239,-2.0,-6.0,-15.0,-10.0,0.0,-3.0,0.0,0.0,1651071310042300.0,2
1240,1.0,0.0,4.0,15.0,4.0,0.0,0.0,-1.0,1651071310048356.0,2
1241,0.0,-3.0,-8.0,-18.0,-1.0,-2.0,-2.0,0.0,1651071310048356.0,2
1242,-2.0,1.0,-2.0,-2.0,-1.0,-3.0,-3.0,-1.0,1651071310065274.0,2
1243,-1.0,0.0,-1.0,9.0,-1.0,7.0,0.0,-1.0,1651071310065274.0,2
1244,-1.0,1.0,-1.0,-9.0,-5.0,-2.0,-1.0,1.0,1651071310066274.0,2
1245,0.0,3.0,2.0,8.0,7.0,1.0,2.0,0.0,1651071310066274.0,2
1246,0.0,-5.0,6.0,2.0,-5.0,-3.0,0.0,-2.0,1651071310087383.0,2
1247,1.0,0.0,0.0,-5.0,8.0,0.0,-1.0,0.0,1651071310087383.0,2
1248,-2.0,-3.0,-8.0,-8.0,-4.0,2.0,-1.0,0.0,1651071310089395.0,2
1249,-1.0,0.0,8.0,4.0,-5.0,-5.0,-2.0,-1.0,1651071310089395.0,2
1250,-1.0,0.0,-9.0,-12.0,-3.0,-1.0,1.0,-1.0,1651071310101681.0,2
1251,0.0,-3.0,-1.0,2.0,-4.0,1.0,-1.0,1.0,1651071310101681.0,2
1252,0.0,0.0,2.0,-4.0,0.0,-1.0,-1.0,-2.0,1651071310108731.0,2
1253,0.0,-2.0,-1.0,1.0,-7.0,-4.0,-3.0,0.0,1651071310108731.0,2
1254,0.0,-3.0,-4.0,4.0,7.0,2.0,-2.0,-1.0,1651071310125408.0,2
1255,-2.0,2.0,5.0,5.0,0.0,1.0,0.0,-1.0,1651071310125408.0,2
1256,-1.0,1.0,-3.0,-5.0,3.0,0.0,-1.0,0.0,1651071310126302.0,2
1257,0.0,-1.0,-2.0,-8.0,1.0,3.0,0.0,-1.0,1651071310126302.0,2
1258,0.0,-3.0,-8.0,-6.0,-3.0,-4.0,-2.0,0.0,1651071310147354.0,2
1259,-1.0,-1.0,3.0,2.0,4.0,-2.0,-1.0,-1.0,1651071310147354.0,2
1260,-2.0,-4.0,-2.0,-2.0,-4.0,-1.0,-3.0,-1.0,1651071310149283.0,2
1261,-1.0,-1.0,5.0,4.0,6.0,-1.0,-1.0,-1.0,1651071310149283.0,2
1262,-1.0,0.0,-4.0,2.0,2.0,5.0,1.0,-1.0,1651071310170291.0,2
1263,1.0,-1.0,-3.0,-5.0,-5.0,-5.0,-1.0,-1.0,1651071310170291.0,2
1264,0.0,1.0,2.0,2.0,-5.0,-2.0,-2.0,-1.0,1651071310171284.0,2
1265,0.0,-4.0,-7.0,-2.0,-3.0,-2.0,-1.0,-1.0,1651071310171284.0,2
1266,-1.0,1.0,1.0,4.0,5.0,3.0,0.0,0.0,1651071310185246.0,2
1267,1.0,1.0,0.0,-3.0,-4.0,-1.0,-1.0,0.0,1651071310185246.0,2
1268,0.0,1.0,3.0,-1.0,-2.0,0.0,0.0,-2.0,1651071310186244.0,2
1269,-1.0,-1.0,3.0,-1.0,-6.0,-3.0,-1.0,0.0,1651071310186244.0,2
1270,0.0,-2.0,-5.0,-4.0,7.0,4.0,-1.0,0.0,1651071310207425.0,2
1271,0.0,0.0,2.0,14.0,1.0,-1.0,0.0,0.0,1651071310207425.0,2
1272,-2.0,-2.0,-2.0,-5.0,-1.0,-1.0,-1.0,0.0,1651071310209374.0,2
1273,0.0,0.0,-2.0,0.0,-6.0,1.0,2.0,0.0,1651071310209374.0,2
1274,0.0,0.0,6.0,-2.0,-6.0,-4.0,0.0,1.0,1651071310222368.0,2
1275,0.0,2.0,-1.0,-2.0,4.0,0.0,2.0,0.0,1651071310222368.0,2
1276,-1.0,-2.0,-7.0,7.0,-1.0,-4.0,0.0,-1.0,1651071310228316.0,2
1277,-3.0,-3.0,-6.0,-8.0,-5.0,0.0,-1.0,-1.0,1651071310228316.0,2
1278,0.0,0.0,6.0,-2.0,-6.0,-3.0,0.0,0.0,1651071310245256.0,2
1279,-1.0,-1.0,4.0,5.0,6.0,2.0,-1.0,0.0,1651071310245256.0,2
1280,0.0,2.0,8.0,3.0,0.0,2.0,1.0,1.0,1651071310251308.0,2
1281,1.0,1.0,-3.0,-4.0,2.0,-2.0,-1.0,-2.0,1651071310251308.0,2
1282,-1.0,0.0,2.0,-1.0,-1.0,-2.0,-2.0,-2.0,1651071310267352.0,2
1283,-1.0,-4.0,-5.0,-7.0,-2.0,1.0,0.0,2.0,1651071310267352.0,2
1284,1.0,-2.0,6.0,8.0,5.0,0.0,1.0,-1.0,1651071310269307.0,2
1285,-3.0,-4.0,-10.0,-12.0,-3.0,-1.0,1.0,-2.0,1651071310269307.0,2
1286,-1.0,-2.0,-5.0,-6.0,5.0,0.0,0.0,-1.0,1651071310282280.0,2
1287,1.0,1.0,1.0,10.0,-8.0,-1.0,-1.0,-1.0,1651071310282280.0,2
1288,-1.0,2.0,4.0,4.0,0.0,-1.0,0.0,1.0,1651071310288229.0,2
1289,-1.0,-2.0,-3.0,2.0,4.0,2.0,0.0,1.0,1651071310288229.0,2
1290,-2.0,1.0,0.0,0.0,0.0,-4.0,-2.0,-2.0,1651071310305378.0,2
1291,0.0,0.0,-3.0,-8.0,-3.0,3.0,-1.0,-1.0,1651071310305378.0,2
1292,1.0,2.0,-2.0,-14.0,-8.0,-1.0,0.0,-2.0,1651071310306375.0,2
1293,-1.0,1.0,3.0,10.0,4.0,-2.0,-1.0,0.0,1651071310306375.0,2
1294,-1.0,-3.0,-2.0,-2.0,0.0,-2.0,-2.0,0.0,1651071310327609.0,2
1295,-2.0,-2.0,2.0,7.0,-1.0,3.0,-1.0,-1.0,1651071310327609.0,2
1296,0.0,0.0,1.0,0.0,0.0,-3.0,-3.0,-1.0,1651071310329537.0,2
1297,1.0,2.0,2.0,-8.0,-2.0,0.0,-2.0,-1.0,1651071310329537.0,2
1298,-1.0,5.0,0.0,9.0,-7.0,-1.0,-2.0,-3.0,1651071310341572.0,2
1299,2.0,-3.0,-17.0,-22.0,-7.0,-2.0,4.0,2.0,1651071310341572.0,2
1300,-1.0,-2.0,4.0,16.0,5.0,9.0,1.0,1.0,1651071310348549.0,2
1301,0.0,-2.0,1.0,4.0,-2.0,-2.0,-2.0,0.0,1651071310348549.0,2
1302,1.0,2.0,7.0,5.0,4.0,-4.0,-2.0,1.0,1651071310364607.0,2
1303,-1.0,-3.0,0.0,-12.0,-14.0,-7.0,-3.0,-1.0,1651071310364607.0,2
1304,1.0,1.0,-10.0,-2.0,3.0,-1.0,-3.0,-1.0,1651071310366605.0,2
1305,-2.0,-7.0,-2.0,-6.0,12.0,6.0,-1.0,0.0,1651071310366605.0,2
1306,2.0,0.0,6.0,11.0,-2.0,0.0,-1.0,0.0,1651071310387515.0,2
1307,-3.0,-2.0,-6.0,-10.0,-7.0,-7.0,-1.0,-3.0,1651071310387515.0,2
1308,-1.0,0.0,-2.0,-8.0,-9.0,-1.0,0.0,0.0,1651071310389514.0,2
1309,-1.0,3.0,-1.0,3.0,4.0,-1.0,0.0,-1.0,1651071310389514.0,2
1310,-4.0,-2.0,-5.0,-21.0,0.0,-1.0,0.0,1.0,1651071310402329.0,2
1311,-1.0,2.0,5.0,33.0,19.0,3.0,-1.0,0.0,1651071310402329.0,2
1312,0.0,1.0,15.0,-2.0,1.0,4.0,1.0,-1.0,1651071310408381.0,2
1313,2.0,-8.0,-14.0,6.0,8.0,4.0,1.0,0.0,1651071310408381.0,2
1314,2.0,1.0,-1.0,-3.0,-6.0,-1.0,-1.0,1.0,1651071310425441.0,2
1315,-1.0,-1.0,7.0,-1.0,-1.0,-2.0,-1.0,0.0,1651071310425441.0,2
1316,-2.0,1.0,-5.0,-2.0,-2.0,-3.0,-2.0,-2.0,1651071310426292.0,2
1317,0.0,4.0,7.0,-16.0,-15.0,-8.0,-3.0,-2.0,1651071310426292.0,2
1318,0.0,0.0,-14.0,11.0,26.0,13.0,2.0,-1.0,1651071310448299.0,2
1319,0.0,2.0,16.0,9.0,-7.0,-4.0,0.0,-1.0,1651071310448299.0,2
1320,0.0,-7.0,-16.0,-3.0,7.0,-3.0,0.0,0.0,1651071310449239.0,2
1321,-3.0,-4.0,-2.0,-10.0,-3.0,2.0,0.0,0.0,1651071310449239.0,2
1322,1.0,3.0,-5.0,3.0,-9.0,-3.0,0.0,-1.0,1651071310461264.0,2
1323,-7.0,-8.0,-3.0,3.0,3.0,3.0,-2.0,-4.0,1651071310461264.0,2
1324,-1.0,2.0,7.0,-3.0,-9.0,-5.0,-1.0,-2.0,1651071310469768.0,2
1325,3.0,3.0,-6.0,-23.0,-2.0,-1.0,4.0,4.0,1651071310469768.0,2
1326,1.0,9.0,19.0,21.0,2.0,3.0,0.0,4.0,1651071310485407.0,2
1327,-2.0,4.0,17.0,17.0,10.0,1.0,-3.0,-6.0,1651071310485407.0,2
1328,-4.0,-12.0,-31.0,-4.0,-5.0,-2.0,-1.0,-9.0,1651071310486336.0,2
1329,5.0,-9.0,-30.0,-7.0,-6.0,-5.0,1.0,15.0,1651071310486336.0,2
1330,1.0,-1.0,32.0,-18.0,-5.0,0.0,4.0,1.0,1651071310507201.0,2
1331,6.0,9.0,-7.0,-7.0,12.0,7.0,4.0,5.0,1651071310507201.0,2
1332,-5.0,7.0,15.0,3.0,1.0,0.0,-3.0,-14.0,1651071310509136.0,2
1333,-8.0,-13.0,9.0,10.0,1.0,-2.0,-2.0,-25.0,1651071310509136.0,2
1334,-11.0,-7.0,-27.0,-7.0,-20.0,-8.0,1.0,12.0,1651071310521104.0,2
1335,6.0,8.0,-3.0,1.0,0.0,-2.0,1.0,42.0,1651071310521104.0,2
1336,4.0,7.0,0.0,-5.0,11.0,5.0,-4.0,-14.0,1651071310529804.0,2
1337,9.0,9.0,-16.0,1.0,-10.0,-7.0,-1.0,9.0,1651071310529804.0,2
1338,3.0,-9.0,22.0,-3.0,-17.0,2.0,0.0,-18.0,1651071310545139.0,2
1339,0.0,-1.0,-3.0,-2.0,-4.0,-7.0,-1.0,-8.0,1651071310545139.0,2
1340,-1.0,-2.0,-10.0,-1.0,15.0,3.0,6.0,19.0,1651071310546226.0,2
1341,-14.0,3.0,16.0,13.0,4.0,11.0,2.0,-40.0,1651071310546226.0,2
1342,12.0,21.0,6.0,-7.0,1.0,-4.0,6.0,36.0,1651071310567100.0,2
1343,1.0,-16.0,-30.0,-15.0,-14.0,3.0,7.0,14.0,1651071310567100.0,2
1344,-9.0,-12.0,4.0,11.0,-3.0,-11.0,-9.0,-1.0,1651071310569028.0,2
1345,-4.0,13.0,27.0,6.0,11.0,1.0,-7.0,-21.0,1651071310569028.0,2
1346,-6.0,6.0,-7.0,15.0,17.0,1.0,-5.0,-23.0,1651071310581063.0,2
1347,-7.0,-7.0,-4.0,-22.0,-12.0,-3.0,-11.0,-83.0,1651071310581063.0,2
1348,10.0,-17.0,-5.0,-2.0,-12.0,-3.0,15.0,89.0,1651071310590087.0,2
1349,2.0,9.0,9.0,13.0,2.0,10.0,13.0,27.0,1651071310590087.0,2
1350,3.0,-2.0,-27.0,-10.0,5.0,4.0,6.0,-1.0,1651071310605130.0,2
1351,6.0,4.0,18.0,0.0,1.0,-1.0,-3.0,24.0,1651071310605130.0,2
1352,1.0,4.0,1.0,-6.0,-5.0,-6.0,-11.0,-29.0,1651071310606280.0,2
1353,2.0,-16.0,-5.0,1.0,-6.0,-6.0,-1.0,9.0,1651071310606280.0,2
1354,2.0,1.0,-1.0,4.0,0.0,2.0,-4.0,-20.0,1651071310627210.0,2
1355,-10.0,4.0,10.0,-1.0,2.0,4.0,1.0,-28.0,1651071310627210.0,2
1356,-6.0,0.0,-8.0,4.0,-5.0,-1.0,-3.0,-18.0,1651071310629205.0,2
1357,-12.0,-3.0,-3.0,-11.0,0.0,-1.0,-3.0,15.0,1651071310629205.0,2
1358,-2.0,-6.0,-7.0,2.0,-1.0,-1.0,-3.0,-23.0,1651071310650216.0,2
1359,9.0,0.0,-10.0,-4.0,-2.0,-1.0,6.0,41.0,1651071310650216.0,2
1360,1.0,-10.0,-2.0,1.0,3.0,3.0,-1.0,4.0,1651071310651146.0,2
1361,0.0,4.0,5.0,-4.0,-3.0,-5.0,-3.0,-6.0,1651071310651146.0,2
1362,-11.0,-6.0,-12.0,1.0,-3.0,0.0,-5.0,-17.0,1651071310665129.0,2
1363,6.0,-13.0,-3.0,9.0,3.0,2.0,7.0,25.0,1651071310665129.0,2
1364,5.0,15.0,10.0,-3.0,0.0,-2.0,-2.0,-3.0,1651071310666215.0,2
1365,-1.0,-3.0,9.0,2.0,0.0,-2.0,-7.0,-16.0,1651071310666215.0,2
1366,4.0,3.0,-2.0,-11.0,-2.0,-3.0,1.0,23.0,1651071310687362.0,2
1367,-11.0,-8.0,-9.0,2.0,2.0,-1.0,-6.0,7.0,1651071310687362.0,2
1368,-7.0,0.0,1.0,-1.0,1.0,4.0,2.0,-35.0,1651071310689291.0,2
1369,16.0,8.0,14.0,6.0,-1.0,0.0,2.0,-6.0,1651071310689291.0,2
1370,-13.0,-1.0,-1.0,-8.0,-4.0,-2.0,1.0,27.0,1651071310701325.0,2
1371,-6.0,-5.0,-7.0,-3.0,-5.0,-4.0,-5.0,-5.0,1651071310701325.0,2
1372,-7.0,0.0,16.0,1.0,1.0,0.0,0.0,-12.0,1651071310710234.0,2
1373,-4.0,2.0,-1.0,7.0,2.0,0.0,-1.0,3.0,1651071310710234.0,2
1374,2.0,-2.0,-15.0,-6.0,0.0,-1.0,-2.0,4.0,1651071310725276.0,2
1375,1.0,3.0,-15.0,-6.0,-7.0,-4.0,-8.0,-31.0,1651071310725276.0,2
1376,2.0,-14.0,-19.0,-2.0,0.0,2.0,10.0,44.0,1651071310727282.0,2
1377,-21.0,7.0,10.0,12.0,2.0,0.0,-6.0,-9.0,1651071310727282.0,2
1378,10.0,0.0,1.0,0.0,-3.0,-2.0,-1.0,4.0,1651071310747220.0,2
1379,-14.0,2.0,3.0,-5.0,1.0,-1.0,-3.0,-9.0,1651071310747220.0,2
1380,1.0,0.0,2.0,-10.0,-5.0,-2.0,-7.0,-23.0,1651071310749214.0,2
1381,23.0,1.0,4.0,22.0,4.0,4.0,8.0,35.0,1651071310749214.0,2
1382,-25.0,-26.0,-13.0,1.0,1.0,-2.0,-5.0,-25.0,1651071310761249.0,2
1383,-27.0,13.0,-5.0,-3.0,2.0,0.0,-5.0,-7.0,1651071310761249.0,2
1384,42.0,-2.0,6.0,1.0,-6.0,-3.0,-3.0,-7.0,1651071310770275.0,2
1385,-3.0,11.0,-6.0,-15.0,-3.0,-1.0,5.0,6.0,1651071310770275.0,2
1386,4.0,0.0,-4.0,0.0,2.0,2.0,-1.0,0.0,1651071310784676.0,2
1387,16.0,0.0,12.0,0.0,-1.0,0.0,4.0,10.0,1651071310784676.0,2
1388,3.0,4.0,-2.0,-1.0,3.0,-1.0,-2.0,10.0,1651071310791450.0,2
1389,-39.0,-4.0,-8.0,0.0,-1.0,-2.0,-4.0,-18.0,1651071310791450.0,2
1390,25.0,-1.0,5.0,3.0,-4.0,-1.0,-1.0,-1.0,1651071310807631.0,2
1391,-3.0,1.0,5.0,-13.0,1.0,-1.0,2.0,3.0,1651071310807631.0,2
1392,-5.0,0.0,-1.0,17.0,2.0,1.0,3.0,-3.0,1651071310809557.0,2
1393,23.0,-3.0,-5.0,7.0,1.0,-3.0,-4.0,11.0,1651071310809557.0,2
1394,15.0,13.0,9.0,-2.0,0.0,-3.0,-4.0,-10.0,1651071310821471.0,2
1395,-28.0,-7.0,-2.0,-4.0,-4.0,-1.0,-1.0,-2.0,1651071310821471.0,2
1396,-9.0,3.0,-5.0,-14.0,-1.0,0.0,0.0,-5.0,1651071310830444.0,2
1397,2.0,-2.0,-5.0,4.0,3.0,2.0,1.0,-1.0,1651071310830444.0,2
1398,3.0,-8.0,8.0,9.0,0.0,-1.0,-2.0,5.0,1651071310844567.0,2
1399,14.0,2.0,2.0,5.0,3.0,2.0,1.0,3.0,1651071310844567.0,2
1400,-11.0,3.0,4.0,0.0,-3.0,1.0,0.0,-10.0,1651071310851619.0,2
1401,8.0,-2.0,-6.0,-13.0,-5.0,-3.0,-1.0,17.0,1651071310851619.0,2
1402,1.0,0.0,4.0,6.0,1.0,-1.0,0.0,-3.0,1651071310867879.0,2
1403,15.0,-2.0,0.0,0.0,4.0,2.0,0.0,2.0,1651071310867879.0,2
1404,-12.0,5.0,-1.0,-6.0,-1.0,0.0,4.0,6.0,1651071310868810.0,2
1405,8.0,-7.0,-3.0,-9.0,-10.0,-5.0,0.0,1.0,1651071310868810.0,2
1406,-21.0,-2.0,-6.0,-3.0,0.0,3.0,-1.0,-4.0,1651071310890938.0,2
1407,4.0,-2.0,5.0,3.0,-1.0,-2.0,-2.0,0.0,1651071310890938.0,2
1408,30.0,4.0,-12.0,-4.0,3.0,4.0,3.0,2.0,1651071310891953.0,2
1409,-15.0,-1.0,12.0,1.0,-1.0,-3.0,-2.0,-7.0,1651071310891953.0,2
1410,9.0,4.0,4.0,-13.0,-2.0,-2.0,0.0,2.0,1651071310905416.0,2
1411,-11.0,-9.0,-8.0,13.0,4.0,1.0,1.0,1.0,1651071310905416.0,2
1412,-9.0,0.0,-2.0,-1.0,-2.0,0.0,-3.0,-15.0,1651071310906299.0,2
1413,9.0,-6.0,-9.0,-4.0,-1.0,-1.0,0.0,8.0,1651071310906299.0,2
1414,-8.0,-2.0,-8.0,-4.0,0.0,0.0,0.0,5.0,1651071310927295.0,2
1415,18.0,10.0,7.0,-8.0,-1.0,0.0,1.0,-4.0,1651071310927295.0,2
1416,-9.0,-13.0,4.0,20.0,-2.0,-4.0,-1.0,-3.0,1651071310929287.0,2
1417,-7.0,-2.0,-5.0,-3.0,-1.0,1.0,-2.0,-5.0,1651071310929287.0,2
1418,0.0,0.0,9.0,8.0,6.0,3.0,4.0,15.0,1651071310950429.0,2
1419,-2.0,-1.0,-3.0,-4.0,-3.0,-3.0,-2.0,-7.0,1651071310950429.0,2
1420,-3.0,6.0,-5.0,-10.0,-3.0,0.0,-3.0,4.0,1651071310951391.0,2
1421,-2.0,-8.0,-1.0,-9.0,-1.0,0.0,0.0,5.0,1651071310951391.0,2
1422,0.0,-1.0,-4.0,5.0,0.0,0.0,1.0,-5.0,1651071310965353.0,2
1423,6.0,10.0,-5.0,5.0,-2.0,-4.0,0.0,5.0,1651071310965353.0,2
1424,0.0,5.0,7.0,3.0,3.0,-1.0,-2.0,-10.0,1651071310966353.0,2
1425,3.0,-1.0,5.0,2.0,1.0,-1.0,-1.0,-9.0,1651071310966353.0,2
1426,-3.0,-2.0,-4.0,-4.0,-2.0,-1.0,0.0,4.0,1651071310987407.0,2
1427,-4.0,-6.0,-7.0,0.0,-2.0,0.0,-1.0,-4.0,1651071310987407.0,2
1428,2.0,6.0,10.0,-10.0,-4.0,-4.0,-3.0,1.0,1651071310989337.0,2
1429,3.0,2.0,-2.0,7.0,-2.0,1.0,4.0,8.0,1651071310989337.0,2
1430,-16.0,-6.0,4.0,6.0,6.0,-1.0,-2.0,-5.0,1651071311010371.0,2
1431,2.0,-3.0,5.0,4.0,3.0,2.0,0.0,-6.0,1651071311010371.0,2
1432,-5.0,-2.0,-3.0,-5.0,0.0,0.0,0.0,7.0,1651071311011372.0,2
1433,9.0,-7.0,-6.0,2.0,-5.0,-4.0,-2.0,-8.0,1651071311011372.0,2
1434,-4.0,3.0,11.0,0.0,-9.0,-2.0,1.0,0.0,1651071311024745.0,2
1435,-1.0,-8.0,-19.0,-4.0,-3.0,0.0,-1.0,1.0,1651071311024745.0,2
1436,-2.0,-1.0,2.0,-7.0,0.0,1.0,-4.0,-8.0,1651071311031447.0,2
1437,-15.0,-2.0,-9.0,-1.0,1.0,-2.0,-3.0,3.0,1651071311031447.0,2
1438,10.0,-3.0,-4.0,-2.0,3.0,0.0,5.0,-5.0,1651071311047418.0,2
1439,9.0,4.0,5.0,-6.0,-3.0,-1.0,0.0,8.0,1651071311047418.0,2
1440,-5.0,2.0,6.0,13.0,2.0,-1.0,-3.0,-5.0,1651071311049401.0,2
1441,-11.0,-2.0,-1.0,0.0,3.0,2.0,1.0,-7.0,1651071311049401.0,2
1442,-6.0,-2.0,0.0,1.0,-1.0,-1.0,-4.0,-5.0,1651071311069585.0,2
1443,4.0,0.0,3.0,-10.0,-4.0,-3.0,1.0,6.0,1651071311069585.0,2
1444,-2.0,-2.0,0.0,8.0,2.0,-1.0,3.0,4.0,1651071311071513.0,2
1445,-1.0,6.0,2.0,-4.0,-2.0,-2.0,-3.0,-9.0,1651071311071513.0,2
1446,-4.0,-2.0,-5.0,-3.0,-1.0,-1.0,-2.0,-4.0,1651071311084771.0,2
1447,1.0,3.0,7.0,-12.0,-3.0,1.0,1.0,-7.0,1651071311084771.0,2
1448,5.0,-2.0,-12.0,6.0,-3.0,-1.0,4.0,19.0,1651071311091649.0,2
1449,-3.0,5.0,12.0,14.0,11.0,0.0,-2.0,-1.0,1651071311091649.0,2
1450,0.0,-8.0,-10.0,-10.0,-2.0,-1.0,0.0,0.0,1651071311115295.0,2
1451,-5.0,1.0,3.0,3.0,5.0,0.0,-4.0,-9.0,1651071311115295.0,2
1452,-6.0,-4.0,-5.0,-11.0,-4.0,2.0,1.0,0.0,1651071311116296.0,2
1453,5.0,9.0,14.0,0.0,-2.0,3.0,1.0,-10.0,1651071311116296.0,2
1454,12.0,-7.0,-17.0,-5.0,-2.0,-3.0,0.0,7.0,1651071311130325.0,2
1455,-13.0,-4.0,1.0,5.0,1.0,2.0,0.0,4.0,1651071311130325.0,2
1456,-3.0,-7.0,-1.0,6.0,3.0,-3.0,-4.0,0.0,1651071311131256.0,2
1457,-7.0,4.0,0.0,-3.0,-3.0,-1.0,-1.0,-10.0,1651071311131256.0,2
1458,1.0,-7.0,7.0,5.0,5.0,3.0,-1.0,3.0,1651071311144722.0,2
1459,8.0,3.0,-5.0,0.0,-1.0,-1.0,3.0,3.0,1651071311144722.0,2
1460,8.0,2.0,-5.0,-7.0,-7.0,-3.0,0.0,8.0,1651071311150773.0,2
1461,0.0,-1.0,-13.0,-5.0,-4.0,-1.0,-3.0,0.0,1651071311150773.0,2
1462,-6.0,10.0,18.0,-5.0,-3.0,0.0,-1.0,-4.0,1651071311167728.0,0
1463,-1.0,-16.0,-19.0,7.0,0.0,-2.0,-2.0,3.0,1651071311167728.0,3
1464,-9.0,0.0,6.0,3.0,1.0,-1.0,-1.0,-7.0,1651071311168685.0,3
1465,8.0,2.0,-8.0,-8.0,0.0,-1.0,0.0,-8.0,1651071311168685.0,3
1466,7.0,5.0,4.0,4.0,-3.0,0.0,3.0,19.0,1651071311189614.0,3
1467,-7.0,3.0,12.0,9.0,3.0,-1.0,-3.0,-13.0,1651071311189614.0,3
1468,3.0,2.0,-2.0,-5.0,0.0,-1.0,-1.0,3.0,1651071311191597.0,3
1469,2.0,-8.0,-7.0,-2.0,-2.0,-3.0,0.0,12.0,1651071311191597.0,3
1470,-5.0,5.0,6.0,-6.0,-10.0,-3.0,-1.0,-6.0,1651071311204734.0,3
1471,-1.0,-3.0,-4.0,3.0,9.0,6.0,1.0,-4.0,1651071311204734.0,3
1472,-5.0,-4.0,-13.0,3.0,2.0,1.0,1.0,-3.0,1651071311211620.0,3
1473,-2.0,2.0,-6.0,-15.0,3.0,-1.0,1.0,-7.0,1651071311211620.0,3
1474,10.0,4.0,0.0,6.0,7.0,2.0,0.0,13.0,1651071311227642.0,3
1475,-13.0,-13.0,-5.0,-2.0,-9.0,-5.0,0.0,12.0,1651071311227642.0,3
1476,2.0,6.0,5.0,7.0,-1.0,-2.0,-1.0,-3.0,1651071311228666.0,3
1477,-3.0,3.0,6.0,1.0,-6.0,-3.0,-5.0,-2.0,1651071311228666.0,3
1478,-2.0,-9.0,-7.0,8.0,2.0,0.0,-2.0,-22.0,1651071311249692.0,3
1479,1.0,11.0,1.0,-8.0,-3.0,0.0,-3.0,-2.0,1651071311249692.0,3
1480,5.0,1.0,5.0,-6.0,-1.0,0.0,3.0,1.0,1651071311251691.0,3
1481,0.0,-13.0,-1.0,3.0,-3.0,-2.0,0.0,2.0,1651071311251691.0,3
1482,-8.0,5.0,3.0,1.0,2.0,0.0,-1.0,8.0,1651071311264259.0,3
1483,7.0,3.0,6.0,1.0,0.0,0.0,2.0,5.0,1651071311264259.0,3
1484,-5.0,-1.0,2.0,-4.0,0.0,-1.0,0.0,-8.0,1651071311278337.0,3
1485,4.0,2.0,9.0,3.0,-2.0,-3.0,-1.0,-1.0,1651071311278337.0,3
1486,-3.0,-6.0,-12.0,-6.0,4.0,4.0,2.0,1.0,1651071311287381.0,3
1487,4.0,-11.0,-9.0,1.0,1.0,0.0,-6.0,-14.0,1651071311287381.0,3
1488,-17.0,-2.0,2.0,1.0,-9.0,-2.0,-1.0,-8.0,1651071311289308.0,3
1489,7.0,-2.0,0.0,7.0,12.0,2.0,2.0,20.0,1651071311289308.0,3
1490,-3.0,0.0,0.0,-3.0,0.0,-3.0,-1.0,-3.0,1651071311310390.0,3
1491,3.0,8.0,-1.0,-3.0,-3.0,-1.0,1.0,0.0,1651071311310390.0,3
1492,-3.0,-1.0,0.0,-8.0,0.0,2.0,-3.0,-3.0,1651071311311370.0,3
1493,-3.0,-6.0,-9.0,2.0,-7.0,-1.0,-1.0,-6.0,1651071311311370.0,3
1494,1.0,6.0,4.0,12.0,-6.0,-4.0,-1.0,6.0,1651071311323339.0,3
1495,-1.0,1.0,-1.0,-3.0,1.0,0.0,1.0,-8.0,1651071311323339.0,3
1496,1.0,-4.0,-3.0,1.0,2.0,0.0,1.0,4.0,1651071311332326.0,3
1497,6.0,5.0,5.0,0.0,2.0,2.0,3.0,15.0,1651071311332326.0,3
1498,-2.0,-1.0,-18.0,-14.0,-1.0,-3.0,0.0,-3.0,1651071311347275.0,3
1499,-5.0,-5.0,-3.0,5.0,-4.0,-5.0,-3.0,-8.0,1651071311347275.0,3
1500,3.0,0.0,7.0,2.0,0.0,2.0,1.0,0.0,1651071311349298.0,3
1501,-7.0,-2.0,0.0,-6.0,-2.0,2.0,1.0,-2.0,1651071311349298.0,3
1502,0.0,-5.0,0.0,-2.0,-5.0,-1.0,1.0,-7.0,1651071311370446.0,3
1503,1.0,1.0,-6.0,1.0,-1.0,-1.0,-1.0,7.0,1651071311370446.0,3
1504,4.0,2.0,-7.0,-3.0,1.0,1.0,-2.0,-3.0,1651071311371447.0,3
1505,-20.0,-9.0,-2.0,2.0,0.0,2.0,-2.0,0.0,1651071311371447.0,3
1506,4.0,3.0,2.0,2.0,-1.0,-1.0,-2.0,-17.0,1651071311392973.0,3
1507,2.0,3.0,2.0,-2.0,-1.0,1.0,0.0,19.0,1651071311392973.0,3
1508,4.0,-2.0,4.0,-1.0,0.0,-1.0,2.0,0.0,1651071311393972.0,3
1509,7.0,6.0,-6.0,-4.0,-2.0,1.0,0.0,-3.0,1651071311393972.0,3
1510,-9.0,-2.0,-4.0,-3.0,-1.0,-2.0,0.0,-1.0,1651071311407962.0,3
1511,-5.0,3.0,5.0,5.0,-1.0,-2.0,-2.0,-11.0,1651071311407962.0,3
1512,2.0,-1.0,-1.0,-1.0,-1.0,-2.0,-4.0,-3.0,1651071311408940.0,3
1513,2.0,-5.0,-1.0,-5.0,-1.0,-1.0,2.0,8.0,1651071311408940.0,3
1514,-5.0,5.0,8.0,-2.0,0.0,1.0,-3.0,-7.0,1651071311429876.0,3
1515,5.0,-4.0,-10.0,5.0,0.0,1.0,2.0,4.0,1651071311429876.0,3
1516,-4.0,-5.0,-6.0,-5.0,-5.0,-3.0,-2.0,3.0,1651071311431871.0,3
1517,-2.0,2.0,3.0,14.0,7.0,-1.0,-1.0,-8.0,1651071311431871.0,3
1518,4.0,1.0,2.0,-4.0,-2.0,1.0,1.0,5.0,1651071311443905.0,3
1519,-4.0,5.0,6.0,-5.0,0.0,-1.0,1.0,1.0,1651071311443905.0,3
1520,1.0,1.0,8.0,5.0,-4.0,0.0,1.0,0.0,1651071311452684.0,3
1521,-5.0,-10.0,-13.0,-18.0,0.0,-1.0,-4.0,-17.0,1651071311452684.0,3
1522,3.0,1.0,-3.0,1.0,-5.0,-2.0,0.0,14.0,1651071311467406.0,3
1523,2.0,1.0,2.0,5.0,4.0,0.0,2.0,-1.0,1651071311467406.0,3
1524,-4.0,-7.0,-8.0,-4.0,-2.0,-3.0,-4.0,0.0,1651071311469344.0,3
1525,-1.0,6.0,4.0,1.0,-4.0,0.0,-1.0,-4.0,1651071311469344.0,3
1526,5.0,0.0,5.0,0.0,1.0,0.0,1.0,0.0,1651071311490443.0,3
1527,-4.0,-1.0,-2.0,-9.0,-3.0,1.0,-1.0,-5.0,1651071311490443.0,3
1528,-2.0,4.0,7.0,-2.0,2.0,-1.0,1.0,-8.0,1651071311491430.0,3
1529,2.0,-1.0,-10.0,2.0,-1.0,2.0,1.0,10.0,1651071311491430.0,3
1530,-1.0,-10.0,1.0,-6.0,1.0,-1.0,-2.0,2.0,1651071311504487.0,3
1531,5.0,-1.0,-4.0,4.0,-1.0,-1.0,-1.0,5.0,1651071311504487.0,3
1532,-3.0,-2.0,1.0,9.0,5.0,1.0,-2.0,-3.0,1651071311512290.0,3
1533,1.0,4.0,2.0,0.0,-1.0,-3.0,-3.0,-2.0,1651071311512290.0,3
1534,-10.0,0.0,2.0,-3.0,-2.0,1.0,0.0,-6.0,1651071311527365.0,3
1535,-1.0,0.0,6.0,-8.0,-7.0,-5.0,-1.0,1.0,1651071311527365.0,3
1536,0.0,-2.0,-13.0,-3.0,-1.0,0.0,0.0,2.0,1651071311529313.0,3
1537,7.0,2.0,0.0,1.0,3.0,1.0,1.0,2.0,1651071311529313.0,3
1538,-1.0,-3.0,1.0,1.0,0.0,-2.0,-4.0,-12.0,1651071311557742.0,3
1539,3.0,0.0,6.0,-4.0,-2.0,-2.0,-2.0,5.0,1651071311557742.0,3
1540,-4.0,1.0,-3.0,-4.0,1.0,-1.0,-1.0,0.0,1651071311558704.0,3
1541,3.0,0.0,-3.0,1.0,-1.0,-2.0,-1.0,4.0,1651071311558704.0,3
1542,-5.0,-6.0,-9.0,-7.0,0.0,1.0,0.0,-6.0,1651071311563686.0,3
1543,4.0,3.0,2.0,13.0,0.0,2.0,0.0,-3.0,1651071311563686.0,3
1544,4.0,2.0,13.0,3.0,-2.0,-1.0,0.0,3.0,1651071311572758.0,3
1545,-2.0,-2.0,7.0,-3.0,-3.0,-1.0,-2.0,-3.0,1651071311572758.0,3
1546,-1.0,-3.0,-6.0,6.0,2.0,1.0,-1.0,1.0,1651071311587259.0,3
1547,-3.0,4.0,3.0,-7.0,-3.0,-2.0,1.0,-6.0,1651071311587259.0,3
1548,-3.0,-5.0,-7.0,-8.0,-7.0,-3.0,-1.0,5.0,1651071311589216.0,3
1549,4.0,4.0,0.0,1.0,2.0,2.0,5.0,9.0,1651071311589216.0,3
1550,6.0,4.0,2.0,0.0,5.0,-1.0,-3.0,-4.0,1651071311610394.0,3
1551,-1.0,-3.0,-2.0,6.0,2.0,0.0,-1.0,3.0,1651071311610394.0,3
1552,1.0,-3.0,-4.0,-3.0,2.0,1.0,1.0,-5.0,1651071311611311.0,3
1553,-6.0,0.0,-2.0,-2.0,-7.0,-6.0,-4.0,-10.0,1651071311611311.0,3
1554,3.0,-2.0,-2.0,2.0,-4.0,-1.0,2.0,1.0,1651071311623377.0,3
1555,-1.0,0.0,-4.0,-2.0,3.0,0.0,-1.0,-5.0,1651071311623377.0,3
1556,3.0,1.0,-9.0,2.0,0.0,-1.0,2.0,11.0,1651071311640490.0,3
1557,-1.0,-9.0,-7.0,-6.0,-6.0,0.0,0.0,-1.0,1651071311640490.0,3
1558,-1.0,-1.0,-2.0,1.0,3.0,3.0,2.0,5.0,1651071311647473.0,3
1559,-4.0,0.0,7.0,-3.0,2.0,-1.0,-3.0,-4.0,1651071311647473.0,3
1560,-4.0,-1.0,2.0,1.0,-3.0,-2.0,0.0,2.0,1651071311649497.0,3
1561,2.0,0.0,4.0,9.0,2.0,-1.0,0.0,0.0,1651071311649497.0,3
1562,-4.0,-2.0,4.0,6.0,-1.0,-4.0,-1.0,-1.0,1651071311669587.0,3
1563,-2.0,-1.0,-2.0,-4.0,-1.0,3.0,0.0,-4.0,1651071311669587.0,3
1564,2.0,1.0,4.0,-3.0,-1.0,0.0,0.0,-1.0,1651071311671534.0,3
1565,-2.0,-7.0,-10.0,-4.0,-4.0,-1.0,-1.0,1.0,1651071311671534.0,3
1566,-5.0,3.0,4.0,-1.0,-3.0,-4.0,-1.0,-2.0,1651071311684099.0,3
1567,0.0,4.0,2.0,-3.0,-1.0,-1.0,1.0,3.0,1651071311684099.0,3
1568,-4.0,-6.0,6.0,0.0,-2.0,-2.0,-4.0,-12.0,1651071311692572.0,3
1569,-1.0,-1.0,-11.0,2.0,7.0,0.0,-2.0,-2.0,1651071311692572.0,3
1570,0.0,-4.0,3.0,-1.0,-7.0,0.0,-1.0,9.0,1651071311707300.0,3
1571,2.0,1.0,6.0,-7.0,1.0,-1.0,0.0,5.0,1651071311707300.0,3
1572,0.0,-6.0,-11.0,3.0,3.0,2.0,1.0,2.0,1651071311709320.0,3
1573,-1.0,2.0,8.0,8.0,-1.0,1.0,-1.0,-4.0,1651071311709320.0,3
1574,4.0,3.0,-2.0,-4.0,-5.0,-2.0,1.0,-1.0,1651071311730105.0,3
1575,-1.0,-3.0,-1.0,0.0,-5.0,-6.0,-2.0,-1.0,1651071311730105.0,3
1576,-5.0,0.0,3.0,1.0,10.0,9.0,4.0,-2.0,1651071311731129.0,3
1577,3.0,0.0,9.0,-7.0,-4.0,-6.0,-4.0,-3.0,1651071311731129.0,3
1578,0.0,1.0,-3.0,2.0,1.0,0.0,-1.0,2.0,1651071311744067.0,3
1579,0.0,1.0,-3.0,-1.0,-4.0,-2.0,-1.0,-3.0,1651071311744067.0,3
1580,3.0,2.0,-2.0,0.0,-2.0,-3.0,-1.0,-1.0,1651071311752199.0,3
1581,-6.0,-5.0,-1.0,-1.0,-1.0,0.0,0.0,-6.0,1651071311752199.0,3
1582,-3.0,-2.0,-2.0,-3.0,0.0,1.0,-2.0,-3.0,1651071311767740.0,3
1583,-2.0,6.0,11.0,3.0,0.0,-1.0,-2.0,-8.0,1651071311767740.0,3
1584,4.0,-3.0,-4.0,0.0,0.0,-4.0,-2.0,8.0,1651071311768689.0,3
1585,2.0,8.0,-1.0,-2.0,0.0,1.0,1.0,2.0,1651071311768689.0,3
1586,2.0,-4.0,-9.0,-2.0,-4.0,-5.0,-2.0,0.0,1651071311789913.0,3
1587,-1.0,4.0,7.0,-3.0,-3.0,0.0,-1.0,4.0,1651071311789913.0,3
1588,0.0,-3.0,-5.0,-6.0,0.0,2.0,-2.0,-7.0,1651071311791937.0,3
1589,1.0,0.0,12.0,7.0,0.0,1.0,2.0,7.0,1651071311791937.0,3
1590,-2.0,2.0,-5.0,1.0,6.0,0.0,-4.0,-7.0,1651071311812012.0,3
1591,-3.0,-5.0,-5.0,0.0,-3.0,-2.0,-2.0,-3.0,1651071311812012.0,3
1592,-4.0,4.0,7.0,-1.0,-5.0,-2.0,-2.0,-11.0,1651071311813940.0,3
1593,-1.0,-1.0,-4.0,-6.0,-3.0,-1.0,-1.0,5.0,1651071311813940.0,3
1594,-2.0,-5.0,-4.0,0.0,4.0,2.0,2.0,3.0,1651071311826964.0,3
1595,4.0,0.0,-1.0,4.0,4.0,3.0,3.0,6.0,1651071311826964.0,3
1596,-2.0,0.0,-7.0,-3.0,-5.0,-5.0,-1.0,1.0,1651071311834890.0,3
1597,-1.0,0.0,0.0,0.0,0.0,-1.0,-1.0,-7.0,1651071311834890.0,3
1598,-2.0,4.0,5.0,0.0,-1.0,-3.0,-1.0,-3.0,1651071311850032.0,3
1599,0.0,-11.0,-3.0,-5.0,-2.0,-1.0,-2.0,-4.0,1651071311850032.0,3
1600,4.0,5.0,6.0,1.0,1.0,3.0,2.0,6.0,1651071311851960.0,3
1601,-4.0,-4.0,-2.0,0.0,-2.0,0.0,1.0,-4.0,1651071311851960.0,3
1602,0.0,-3.0,3.0,0.0,-3.0,0.0,2.0,3.0,1651071311872911.0,3
1603,1.0,0.0,-7.0,-2.0,-1.0,0.0,-3.0,-5.0,1651071311872911.0,3
1604,-1.0,3.0,10.0,2.0,2.0,0.0,0.0,1.0,1651071311873809.0,3
1605,0.0,0.0,-10.0,-9.0,-4.0,-3.0,0.0,0.0,1651071311873809.0,3
1606,-3.0,-3.0,-4.0,6.0,8.0,3.0,0.0,-2.0,1651071311885880.0,3
1607,3.0,0.0,0.0,0.0,-5.0,-3.0,1.0,-1.0,1651071311885880.0,3
1608,0.0,0.0,2.0,7.0,10.0,0.0,-1.0,1.0,1651071311894902.0,3
1609,-5.0,0.0,14.0,1.0,-2.0,-1.0,-2.0,-4.0,1651071311894902.0,3
1610,1.0,-6.0,-10.0,-8.0,-3.0,0.0,2.0,0.0,1651071311917173.0,3
1611,-15.0,-8.0,-5.0,0.0,-2.0,-2.0,1.0,-2.0,1651071311917173.0,3
1612,0.0,0.0,-1.0,-1.0,-11.0,-3.0,-1.0,-1.0,1651071311919129.0,3
1613,-1.0,0.0,4.0,-4.0,2.0,1.0,0.0,1.0,1651071311919129.0,3
1614,0.0,5.0,5.0,-3.0,-4.0,-1.0,1.0,-1.0,1651071311932973.0,3
1615,4.0,-2.0,-4.0,0.0,0.0,1.0,0.0,1.0,1651071311932973.0,3
1616,-1.0,-3.0,-2.0,-2.0,-1.0,-3.0,-1.0,2.0,1651071311933979.0,3
1617,0.0,2.0,-3.0,2.0,0.0,4.0,-1.0,-1.0,1651071311933979.0,3
1618,3.0,1.0,11.0,16.0,8.0,-3.0,0.0,1.0,1651071311947442.0,3
1619,2.0,1.0,-10.0,2.0,7.0,3.0,0.0,1.0,1651071311947442.0,3
1620,-3.0,0.0,-5.0,-3.0,-7.0,-4.0,-3.0,1.0,1651071311949436.0,3
1621,2.0,0.0,7.0,-5.0,-1.0,-2.0,-2.0,-2.0,1651071311949436.0,3
1622,-3.0,-2.0,-4.0,-5.0,-3.0,-1.0,-2.0,-1.0,1651071311970407.0,3
1623,0.0,-1.0,4.0,0.0,1.0,-4.0,0.0,1.0,1651071311970407.0,3
1624,-1.0,1.0,1.0,3.0,0.0,3.0,-1.0,-4.0,1651071311971350.0,3
1625,0.0,6.0,11.0,-13.0,0.0,-2.0,1.0,1.0,1651071311971350.0,3
1626,-1.0,-13.0,-22.0,-9.0,3.0,6.0,3.0,0.0,1651071312000304.0,3
1627,0.0,2.0,17.0,26.0,8.0,0.0,2.0,0.0,1651071312000304.0,3
1628,1.0,-1.0,-7.0,5.0,-2.0,-3.0,-1.0,0.0,1651071312001236.0,3
1629,0.0,-9.0,-20.0,-12.0,-3.0,-4.0,2.0,1.0,1651071312001236.0,3
1630,-1.0,3.0,6.0,-8.0,-8.0,-2.0,0.0,-2.0,1651071312007219.0,3
1631,-1.0,-3.0,-10.0,-3.0,-8.0,-3.0,-2.0,-4.0,1651071312007219.0,3
1632,1.0,0.0,-3.0,0.0,5.0,1.0,0.0,-2.0,1651071312013211.0,3
1633,2.0,4.0,2.0,6.0,3.0,4.0,0.0,3.0,1651071312013211.0,3
1634,-1.0,6.0,8.0,12.0,-2.0,-3.0,-3.0,-1.0,1651071312030087.0,3
1635,0.0,0.0,-12.0,-11.0,-2.0,0.0,0.0,2.0,1651071312030087.0,3
1636,-2.0,1.0,8.0,-3.0,-7.0,-2.0,-1.0,-2.0,1651071312031087.0,3
1637,-1.0,-5.0,0.0,7.0,1.0,-3.0,-2.0,-1.0,1651071312031087.0,3
1638,1.0,3.0,-1.0,3.0,-1.0,-1.0,-1.0,1.0,1651071312052750.0,3
1639,1.0,5.0,0.0,-1.0,6.0,4.0,3.0,2.0,1651071312052750.0,3
1640,-1.0,-3.0,2.0,23.0,6.0,0.0,0.0,2.0,1651071312053710.0,3
1641,1.0,-3.0,-8.0,-5.0,-1.0,-2.0,-2.0,-1.0,1651071312053710.0,3
1642,-1.0,5.0,6.0,-5.0,4.0,0.0,-1.0,-1.0,1651071312066713.0,3
1643,0.0,2.0,1.0,-8.0,-1.0,3.0,0.0,2.0,1651071312066713.0,3
1644,-1.0,-5.0,-19.0,-12.0,-1.0,0.0,0.0,1.0,1651071312073782.0,3
1645,-3.0,-5.0,-8.0,-13.0,-9.0,-4.0,-1.0,-4.0,1651071312073782.0,3
1646,1.0,3.0,4.0,14.0,-1.0,0.0,-2.0,-1.0,1651071312090386.0,3
1647,0.0,-7.0,-4.0,12.0,-2.0,-4.0,0.0,-2.0,1651071312090386.0,3
1648,1.0,2.0,3.0,-40.0,0.0,1.0,0.0,-1.0,1651071312091839.0,3
1649,0.0,6.0,21.0,39.0,3.0,1.0,-1.0,0.0,1651071312091839.0,3
1650,-1.0,-8.0,-28.0,-44.0,-9.0,-3.0,-1.0,0.0,1651071312113063.0,3
1651,-3.0,-6.0,-16.0,-22.0,-5.0,-4.0,-4.0,-3.0,1651071312113063.0,3
1652,1.0,2.0,14.0,31.0,7.0,2.0,0.0,0.0,1651071312114002.0,3
1653,-1.0,-2.0,-7.0,-3.0,-3.0,-1.0,1.0,0.0,1651071312114002.0,3
1654,-1.0,0.0,9.0,2.0,7.0,5.0,2.0,0.0,1651071312127076.0,3
1655,1.0,1.0,16.0,17.0,7.0,3.0,1.0,0.0,1651071312127076.0,3
1656,-1.0,-3.0,-2.0,9.0,-4.0,-6.0,-1.0,-1.0,1651071312134066.0,3
1657,0.0,-2.0,-7.0,-1.0,0.0,1.0,0.0,0.0,1651071312134066.0,3
1658,0.0,1.0,11.0,21.0,-5.0,-1.0,0.0,0.0,1651071312150384.0,3
1659,0.0,-1.0,-16.0,-53.0,-7.0,-3.0,0.0,-1.0,1651071312150384.0,3
1660,-1.0,0.0,-5.0,1.0,-5.0,0.0,1.0,0.0,1651071312151381.0,3
1661,-1.0,-4.0,14.0,64.0,5.0,-2.0,-3.0,-3.0,1651071312151381.0,3
1662,-1.0,-4.0,-2.0,-7.0,-2.0,-4.0,-3.0,-1.0,1651071312172911.0,3
1663,2.0,0.0,16.0,15.0,2.0,1.0,1.0,1.0,1651071312172911.0,3
1664,0.0,1.0,-10.0,-41.0,-5.0,2.0,-1.0,2.0,1651071312173614.0,3
1665,-3.0,-3.0,-27.0,-42.0,-11.0,-4.0,-5.0,-1.0,1651071312173614.0,3
1666,2.0,3.0,8.0,26.0,4.0,2.0,1.0,2.0,1651071312186648.0,3
1667,-3.0,1.0,0.0,-10.0,-3.0,-2.0,-1.0,-3.0,1651071312186648.0,3
1668,1.0,-1.0,-10.0,-9.0,-1.0,-1.0,-1.0,-1.0,1651071312201354.0,3
1669,1.0,1.0,6.0,9.0,3.0,1.0,-1.0,0.0,1651071312201354.0,3
1670,0.0,-1.0,-4.0,-6.0,-1.0,-2.0,-1.0,-2.0,1651071312210440.0,3
1671,-1.0,0.0,8.0,20.0,-2.0,0.0,-1.0,0.0,1651071312210440.0,3
1672,1.0,0.0,5.0,-2.0,4.0,-1.0,2.0,1.0,1651071312211439.0,3
1673,-2.0,-2.0,-8.0,-14.0,-2.0,-1.0,1.0,0.0,1651071312211439.0,3
1674,1.0,-1.0,3.0,2.0,6.0,4.0,0.0,0.0,1651071312232450.0,3
1675,-2.0,-2.0,0.0,21.0,-3.0,-2.0,-1.0,0.0,1651071312232450.0,3
1676,1.0,-1.0,-5.0,-39.0,-4.0,-1.0,0.0,1.0,1651071312234405.0,3
1677,3.0,1.0,7.0,27.0,5.0,2.0,1.0,1.0,1651071312234405.0,3
1678,-3.0,-5.0,-10.0,-18.0,-9.0,-4.0,-3.0,-5.0,1651071312246413.0,3
1679,0.0,0.0,-3.0,-16.0,-1.0,3.0,0.0,-1.0,1651071312246413.0,3
1680,-1.0,-3.0,3.0,20.0,5.0,0.0,-2.0,-2.0,1651071312253395.0,3
1681,1.0,3.0,2.0,-12.0,-10.0,-1.0,1.0,1.0,1651071312253395.0,3
1682,0.0,3.0,8.0,23.0,9.0,2.0,2.0,1.0,1651071312270153.0,3
1683,-2.0,-1.0,0.0,-9.0,2.0,-2.0,0.0,-2.0,1651071312270153.0,3
1684,-2.0,-1.0,-1.0,-2.0,-2.0,-2.0,1.0,-1.0,1651071312276200.0,3
1685,-2.0,-1.0,-5.0,-12.0,-2.0,0.0,-1.0,-2.0,1651071312276200.0,3
1686,0.0,0.0,1.0,-10.0,-4.0,1.0,-2.0,1.0,1651071312292205.0,3
1687,-1.0,0.0,3.0,23.0,-2.0,-3.0,-2.0,1.0,1651071312292205.0,3
1688,-1.0,-2.0,1.0,27.0,3.0,0.0,-1.0,0.0,1651071312294133.0,3
1689,-3.0,-4.0,-8.0,-24.0,-2.0,-2.0,-1.0,-1.0,1651071312294133.0,3
1690,-3.0,1.0,-4.0,-12.0,-3.0,-1.0,1.0,-3.0,1651071312306168.0,3
1691,0.0,-1.0,2.0,-1.0,0.0,-1.0,-1.0,1.0,1651071312306168.0,3
1692,0.0,1.0,3.0,5.0,-1.0,0.0,0.0,0.0,1651071312315078.0,3
1693,-1.0,2.0,-6.0,-12.0,2.0,2.0,0.0,1.0,1651071312315078.0,3
1694,-2.0,0.0,10.0,40.0,4.0,-2.0,-1.0,-2.0,1651071312330351.0,3
1695,0.0,-3.0,-14.0,-32.0,-5.0,-2.0,0.0,0.0,1651071312330351.0,3
1696,2.0,1.0,3.0,7.0,3.0,2.0,0.0,0.0,1651071312331348.0,3
1697,0.0,1.0,-1.0,8.0,5.0,1.0,0.0,-1.0,1651071312331348.0,3
1698,-1.0,-1.0,2.0,-2.0,-2.0,1.0,1.0,1.0,1651071312351513.0,3
1699,-2.0,-1.0,2.0,7.0,2.0,1.0,0.0,0.0,1651071312351513.0,3
1700,0.0,-1.0,-2.0,-17.0,-6.0,-2.0,-1.0,-1.0,1651071312360422.0,3
1701,0.0,0.0,1.0,2.0,1.0,0.0,0.0,1.0,1651071312360422.0,3
1702,1.0,1.0,1.0,-5.0,-1.0,0.0,-1.0,1.0,1651071312366410.0,3
1703,0.0,-3.0,-3.0,10.0,-7.0,0.0,-2.0,0.0,1651071312366410.0,3
1704,-2.0,-3.0,2.0,10.0,7.0,0.0,0.0,0.0,1651071312375382.0,3
1705,1.0,0.0,4.0,1.0,1.0,2.0,1.0,0.0,1651071312375382.0,3
1706,-2.0,-3.0,-6.0,1.0,-1.0,-2.0,-2.0,-1.0,1651071312390532.0,3
1707,0.0,2.0,3.0,12.0,5.0,1.0,1.0,0.0,1651071312390532.0,3
1708,0.0,0.0,4.0,3.0,-4.0,-2.0,-1.0,1.0,1651071312392459.0,3
1709,-1.0,-5.0,-6.0,-6.0,-5.0,-3.0,-2.0,-3.0,1651071312392459.0,3
1710,1.0,0.0,-5.0,-19.0,0.0,-2.0,-1.0,0.0,1651071312412729.0,3
1711,-2.0,0.0,2.0,-3.0,-3.0,-1.0,-2.0,0.0,1651071312412729.0,3
1712,-1.0,0.0,-5.0,7.0,-2.0,2.0,0.0,1.0,1651071312413660.0,3
1713,0.0,0.0,-5.0,-13.0,-2.0,-1.0,1.0,-1.0,1651071312413660.0,3
1714,0.0,-1.0,1.0,8.0,10.0,8.0,0.0,1.0,1651071312426509.0,3
1715,-2.0,-4.0,-4.0,-1.0,3.0,-1.0,-2.0,-3.0,1651071312426509.0,3
1716,0.0,2.0,4.0,2.0,1.0,-2.0,0.0,0.0,1651071312435481.0,3
1717,0.0,-2.0,4.0,5.0,-4.0,-3.0,-1.0,-2.0,1651071312435481.0,3
1718,-1.0,-3.0,-7.0,-10.0,-9.0,-2.0,-1.0,0.0,1651071312449791.0,3
1719,1.0,1.0,-1.0,-2.0,0.0,-1.0,1.0,1.0,1651071312449791.0,3
1720,-2.0,-2.0,-3.0,-8.0,-3.0,-1.0,0.0,0.0,1651071312451789.0,3
1721,-1.0,1.0,1.0,1.0,2.0,0.0,-4.0,0.0,1651071312451789.0,3
1722,-1.0,1.0,4.0,0.0,-2.0,-4.0,2.0,0.0,1651071312472971.0,3
1723,0.0,-2.0,-1.0,-1.0,-1.0,0.0,0.0,0.0,1651071312472971.0,3
1724,-1.0,0.0,1.0,10.0,-2.0,-4.0,-2.0,-2.0,1651071312473984.0,3
1725,-1.0,1.0,1.0,-5.0,-1.0,0.0,0.0,0.0,1651071312473984.0,3
1726,0.0,-1.0,-7.0,-11.0,4.0,2.0,-1.0,-1.0,1651071312485986.0,3
1727,1.0,0.0,-1.0,-10.0,-5.0,-1.0,-1.0,-2.0,1651071312485986.0,3
1728,0.0,-1.0,-2.0,-6.0,-3.0,0.0,3.0,-2.0,1651071312502570.0,3
1729,0.0,-1.0,7.0,22.0,1.0,0.0,1.0,0.0,1651071312502570.0,3
1730,-3.0,-3.0,-4.0,-2.0,3.0,-7.0,-3.0,-2.0,1651071312510416.0,3
1731,-1.0,-2.0,-6.0,-26.0,-2.0,-1.0,-2.0,-1.0,1651071312510416.0,3
1732,-1.0,-1.0,3.0,10.0,-3.0,-2.0,-2.0,-2.0,1651071312511427.0,3
1733,-1.0,1.0,2.0,-9.0,-1.0,0.0,0.0,0.0,1651071312511427.0,3
1734,0.0,-1.0,-1.0,2.0,-5.0,-1.0,1.0,-1.0,1651071312532606.0,3
1735,1.0,3.0,1.0,7.0,3.0,0.0,2.0,2.0,1651071312532606.0,3
1736,1.0,1.0,-4.0,-8.0,1.0,1.0,1.0,0.0,1651071312533628.0,3
1737,1.0,-1.0,-1.0,-2.0,0.0,2.0,-1.0,-1.0,1651071312533628.0,3
1738,-2.0,-2.0,2.0,7.0,-1.0,-1.0,-2.0,-2.0,1651071312546597.0,3
1739,-2.0,-1.0,1.0,1.0,-1.0,-4.0,0.0,-1.0,1651071312546597.0,3
1740,-2.0,-3.0,-7.0,-10.0,-6.0,1.0,-1.0,0.0,1651071312555575.0,3
1741,-1.0,-4.0,-8.0,1.0,3.0,-5.0,-4.0,-1.0,1651071312555575.0,3
1742,1.0,-1.0,-3.0,-8.0,4.0,2.0,-1.0,0.0,1651071312570412.0,3
1743,1.0,2.0,4.0,3.0,6.0,3.0,-1.0,1.0,1651071312570412.0,3
1744,0.0,0.0,0.0,1.0,-1.0,-2.0,-1.0,-1.0,1651071312571632.0,3
1745,-1.0,0.0,-1.0,4.0,1.0,-1.0,1.0,1.0,1651071312571632.0,3
1746,0.0,-1.0,-1.0,-4.0,-10.0,-5.0,0.0,0.0,1651071312592618.0,3
1747,-2.0,-1.0,-1.0,0.0,-3.0,0.0,0.0,-1.0,1651071312592618.0,3
1748,-1.0,-2.0,-1.0,-9.0,-1.0,0.0,-1.0,-1.0,1651071312593645.0,3
1749,-1.0,-5.0,-12.0,0.0,-3.0,-3.0,-2.0,-2.0,1651071312593645.0,3
1750,0.0,2.0,17.0,18.0,8.0,6.0,1.0,1.0,1651071312606595.0,3
1751,1.0,-2.0,-13.0,-12.0,0.0,-3.0,-2.0,0.0,1651071312606595.0,3
1752,0.0,-2.0,-3.0,0.0,0.0,1.0,-1.0,-1.0,1651071312614745.0,3
1753,-2.0,0.0,0.0,-10.0,-2.0,-1.0,1.0,1.0,1651071312614745.0,3
1754,-1.0,1.0,-3.0,0.0,-4.0,1.0,-1.0,0.0,1651071312630387.0,3
1755,-1.0,0.0,-2.0,5.0,3.0,3.0,-1.0,-1.0,1651071312630387.0,3
1756,-1.0,-2.0,-3.0,-14.0,-7.0,-4.0,-3.0,-2.0,1651071312631380.0,3
1757,0.0,0.0,3.0,4.0,5.0,1.0,2.0,0.0,1651071312631380.0,3
1758,-2.0,-1.0,-3.0,9.0,-3.0,-2.0,-1.0,1.0,1651071312652591.0,3
1759,-1.0,0.0,2.0,-16.0,-3.0,0.0,0.0,-2.0,1651071312652591.0,3
1760,-2.0,-1.0,2.0,19.0,7.0,-1.0,0.0,0.0,1651071312654523.0,3
1761,-2.0,1.0,10.0,21.0,-2.0,-1.0,-2.0,-1.0,1651071312654523.0,3
1762,-2.0,-2.0,-7.0,-19.0,-15.0,-6.0,-3.0,-2.0,1651071312666377.0,3
1763,-1.0,0.0,2.0,3.0,7.0,-2.0,0.0,-1.0,1651071312666377.0,3
1764,-2.0,-1.0,2.0,0.0,1.0,0.0,0.0,0.0,1651071312675292.0,3
1765,0.0,-3.0,-6.0,-10.0,-1.0,0.0,0.0,1.0,1651071312675292.0,3
1766,2.0,2.0,-3.0,-2.0,-1.0,-2.0,1.0,-2.0,1651071312690419.0,3
1767,0.0,-1.0,3.0,12.0,-9.0,-5.0,-2.0,0.0,1651071312690419.0,3
1768,0.0,0.0,0.0,-1.0,3.0,1.0,1.0,-2.0,1651071312691418.0,3
1769,1.0,2.0,4.0,7.0,9.0,5.0,3.0,2.0,1651071312691418.0,3
1770,0.0,-2.0,-4.0,-11.0,-5.0,-4.0,-1.0,-1.0,1651071312712519.0,3
1771,-2.0,-3.0,-2.0,5.0,-2.0,0.0,0.0,-1.0,1651071312712519.0,3
1772,-1.0,2.0,4.0,-1.0,-2.0,-4.0,-1.0,0.0,1651071312714474.0,3
1773,1.0,-1.0,1.0,-1.0,-2.0,1.0,1.0,1.0,1651071312714474.0,3
1774,-1.0,0.0,-3.0,-11.0,5.0,2.0,2.0,0.0,1651071312726302.0,3
1775,0.0,0.0,4.0,20.0,3.0,-1.0,-2.0,0.0,1651071312726302.0,3
1776,1.0,-1.0,0.0,-3.0,-1.0,0.0,-1.0,0.0,1651071312735277.0,3
1777,-1.0,1.0,-1.0,-7.0,-6.0,-2.0,-1.0,-2.0,1651071312735277.0,3
1778,-1.0,-1.0,2.0,-1.0,-2.0,-2.0,-3.0,1.0,1651071312750089.0,3
1779,1.0,1.0,-4.0,-5.0,-2.0,-1.0,1.0,-1.0,1651071312750089.0,3
1780,1.0,-2.0,-3.0,-2.0,0.0,-4.0,0.0,2.0,1651071312751020.0,3
1781,0.0,-2.0,1.0,-1.0,-6.0,-2.0,0.0,-2.0,1651071312751020.0,3
1782,0.0,-3.0,-1.0,6.0,4.0,3.0,0.0,0.0,1651071312780169.0,3
1783,3.0,0.0,-1.0,-5.0,4.0,4.0,2.0,1.0,1651071312780169.0,3
1784,1.0,2.0,7.0,26.0,3.0,2.0,-1.0,1.0,1651071312781124.0,3
1785,-1.0,1.0,4.0,1.0,7.0,0.0,0.0,0.0,1651071312781124.0,3
1786,-2.0,-6.0,-9.0,10.0,-5.0,-5.0,-4.0,-3.0,1651071312794536.0,3
1787,-2.0,-4.0,-9.0,-35.0,-8.0,-3.0,-1.0,-3.0,1651071312794536.0,3
1788,1.0,1.0,4.0,12.0,5.0,1.0,2.0,0.0,1651071312796534.0,3
1789,-1.0,1.0,-3.0,-4.0,-3.0,-3.0,0.0,1.0,1651071312796534.0,3
1790,0.0,0.0,-1.0,1.0,-4.0,0.0,0.0,0.0,1651071312809480.0,3
1791,-1.0,2.0,2.0,2.0,-1.0,-1.0,0.0,0.0,1651071312809480.0,3
1792,-1.0,0.0,-2.0,-5.0,1.0,2.0,0.0,0.0,1651071312811477.0,3
1793,-1.0,-1.0,-1.0,-3.0,-8.0,-3.0,-2.0,-1.0,1651071312811477.0,3
1794,1.0,1.0,0.0,-1.0,9.0,-1.0,0.0,1.0,1651071312832973.0,3
1795,-1.0,-2.0,0.0,9.0,-1.0,1.0,0.0,0.0,1651071312832973.0,3
1796,0.0,-2.0,-2.0,-4.0,-2.0,3.0,1.0,0.0,1651071312833973.0,3
1797,0.0,-1.0,0.0,0.0,1.0,0.0,0.0,-1.0,1651071312833973.0,3
1798,-1.0,-1.0,-2.0,-5.0,-1.0,2.0,0.0,1.0,1651071312854652.0,3
1799,0.0,1.0,7.0,13.0,0.0,-3.0,-1.0,0.0,1651071312854652.0,3
1800,-1.0,0.0,-3.0,-2.0,-3.0,-2.0,-4.0,0.0,1651071312861664.0,3
1801,-1.0,-2.0,-4.0,-13.0,0.0,0.0,0.0,0.0,1651071312861664.0,3
1802,-2.0,0.0,4.0,10.0,0.0,0.0,-1.0,-1.0,1651071312869683.0,3
1803,-2.0,-1.0,3.0,4.0,-1.0,-2.0,0.0,-1.0,1651071312869683.0,3
1804,-1.0,0.0,0.0,4.0,0.0,-2.0,-1.0,0.0,1651071312871639.0,3
1805,1.0,-2.0,-5.0,-10.0,0.0,-1.0,-2.0,-2.0,1651071312871639.0,3
1806,0.0,-2.0,0.0,1.0,-4.0,-2.0,0.0,-2.0,1651071312891689.0,3
1807,1.0,1.0,-2.0,-2.0,1.0,2.0,-1.0,-1.0,1651071312891689.0,3
1808,2.0,0.0,3.0,11.0,5.0,2.0,1.0,-1.0,1651071312899791.0,3
1809,-2.0,-1.0,3.0,6.0,-2.0,-3.0,-2.0,-1.0,1651071312899791.0,3
1810,0.0,2.0,-1.0,-4.0,-3.0,1.0,1.0,0.0,1651071312914962.0,3
1811,1.0,-3.0,-5.0,2.0,4.0,2.0,-1.0,2.0,1651071312914962.0,3
1812,0.0,1.0,1.0,-1.0,-5.0,-2.0,-1.0,-2.0,1651071312916956.0,3
1813,0.0,0.0,-2.0,-5.0,2.0,-2.0,1.0,0.0,1651071312916956.0,3
1814,1.0,0.0,5.0,2.0,2.0,1.0,1.0,0.0,1651071312929355.0,3
1815,-1.0,-2.0,-1.0,9.0,0.0,3.0,0.0,1.0,1651071312929355.0,3
1816,-2.0,-3.0,-6.0,-18.0,-2.0,-3.0,-1.0,-2.0,1651071312944060.0,3
1817,-1.0,-1.0,-1.0,3.0,-4.0,-2.0,0.0,1.0,1651071312944060.0,3
1818,-1.0,-1.0,-2.0,-10.0,1.0,-4.0,0.0,-2.0,1651071312952331.0,3
1819,0.0,0.0,-1.0,-2.0,-1.0,0.0,0.0,-2.0,1651071312952331.0,3
1820,-1.0,-1.0,-2.0,-1.0,1.0,1.0,1.0,1.0,1651071312954298.0,3
1821,-1.0,-1.0,-4.0,-2.0,-1.0,-1.0,-1.0,-2.0,1651071312954298.0,3
1822,-1.0,1.0,0.0,-6.0,-3.0,-1.0,-2.0,-1.0,1651071312975463.0,3
1823,-1.0,-1.0,1.0,2.0,-1.0,-2.0,-2.0,0.0,1651071312975463.0,3
1824,-1.0,-2.0,-2.0,0.0,-3.0,-3.0,-1.0,-1.0,1651071312976434.0,3
1825,1.0,-1.0,-2.0,-7.0,-1.0,3.0,2.0,0.0,1651071312976434.0,3
1826,-4.0,-2.0,-7.0,1.0,-1.0,-1.0,-2.0,0.0,1651071312989465.0,3
1827,-1.0,1.0,3.0,12.0,-6.0,-3.0,-3.0,-3.0,1651071312989465.0,3
1828,0.0,1.0,-2.0,-10.0,-5.0,-2.0,0.0,-1.0,1651071312996447.0,3
1829,-1.0,-2.0,-5.0,-11.0,4.0,-2.0,-2.0,1.0,1651071312996447.0,3
1830,0.0,0.0,-3.0,-2.0,-2.0,-1.0,-1.0,-2.0,1651071313012118.0,3
1831,-2.0,-1.0,-4.0,-8.0,-17.0,-7.0,-1.0,-2.0,1651071313012118.0,3
1832,-1.0,-1.0,1.0,8.0,12.0,2.0,-1.0,1.0,1651071313014047.0,3
1833,1.0,1.0,1.0,8.0,1.0,1.0,-1.0,-1.0,1651071313014047.0,3
1834,0.0,-1.0,1.0,-4.0,-4.0,2.0,2.0,0.0,1651071313035242.0,3
1835,0.0,1.0,-3.0,-6.0,-2.0,-1.0,1.0,-1.0,1651071313035242.0,3
1836,-2.0,-1.0,2.0,1.0,-10.0,-4.0,0.0,-2.0,1651071313036346.0,3
1837,-2.0,-1.0,-7.0,-7.0,1.0,-1.0,-4.0,0.0,1651071313036346.0,3
1838,0.0,-1.0,2.0,5.0,0.0,-1.0,-2.0,-1.0,1651071313049251.0,3
1839,-1.0,0.0,4.0,8.0,2.0,-2.0,-1.0,0.0,1651071313049251.0,3
1840,-1.0,-1.0,-3.0,-4.0,2.0,0.0,-2.0,0.0,1651071313056391.0,3
1841,-1.0,-2.0,2.0,-5.0,-3.0,-4.0,-2.0,-1.0,1651071313056391.0,3
1842,0.0,0.0,1.0,2.0,-2.0,-2.0,-1.0,0.0,1651071313072255.0,3
1843,0.0,0.0,-2.0,-12.0,0.0,4.0,1.0,0.0,1651071313072255.0,3
1844,-2.0,-2.0,-5.0,0.0,-5.0,0.0,0.0,-1.0,1651071313074183.0,3
1845,0.0,0.0,3.0,2.0,2.0,0.0,0.0,-1.0,1651071313074183.0,3
1846,-4.0,0.0,0.0,14.0,2.0,0.0,0.0,-1.0,1651071313095217.0,3
1847,0.0,2.0,3.0,5.0,0.0,1.0,0.0,0.0,1651071313095217.0,3
1848,2.0,-3.0,-6.0,-17.0,-2.0,0.0,-1.0,1.0,1651071313096254.0,3
1849,-1.0,-1.0,1.0,8.0,3.0,0.0,-1.0,-1.0,1651071313096254.0,3
1850,1.0,-1.0,0.0,-3.0,-3.0,0.0,-1.0,1.0,1651071313110180.0,3
1851,-1.0,-3.0,1.0,3.0,6.0,3.0,0.0,1.0,1651071313110180.0,3
1852,0.0,2.0,1.0,6.0,-1.0,-1.0,-2.0,1.0,1651071313116374.0,3
1853,0.0,0.0,0.0,-1.0,-2.0,1.0,2.0,0.0,1651071313116374.0,3
1854,-1.0,-1.0,2.0,0.0,0.0,-6.0,-2.0,0.0,1651071313132236.0,3
1855,0.0,2.0,5.0,6.0,3.0,3.0,0.0,1.0,1651071313132236.0,3
1856,1.0,-1.0,-6.0,-5.0,5.0,4.0,1.0,-1.0,1651071313134188.0,3
1857,1.0,1.0,1.0,13.0,4.0,-1.0,-1.0,-1.0,1651071313134188.0,3
1858,-2.0,-1.0,-6.0,-12.0,-9.0,-1.0,-1.0,-1.0,1651071313155118.0,3
1859,-1.0,-1.0,-2.0,-1.0,-1.0,-4.0,-1.0,-1.0,1651071313155118.0,3
1860,0.0,1.0,5.0,-8.0,0.0,-1.0,-1.0,0.0,1651071313156250.0,3
1861,0.0,-1.0,0.0,8.0,-1.0,-1.0,-1.0,0.0,1651071313156250.0,3
1862,-2.0,0.0,3.0,7.0,5.0,1.0,1.0,-3.0,1651071313169136.0,3
1863,-2.0,-4.0,-16.0,-31.0,-9.0,-7.0,-3.0,-1.0,1651071313169136.0,3
1864,-1.0,0.0,6.0,9.0,7.0,6.0,1.0,1.0,1651071313176129.0,3
1865,-2.0,-1.0,-2.0,-3.0,-2.0,-1.0,-1.0,1.0,1651071313176129.0,3
1866,2.0,1.0,7.0,1.0,5.0,2.0,-2.0,0.0,1651071313192200.0,3
1867,-2.0,-2.0,-2.0,7.0,6.0,2.0,0.0,-1.0,1651071313192200.0,3
1868,-1.0,-2.0,-6.0,-10.0,-5.0,-4.0,-1.0,-2.0,1651071313194127.0,3
1869,0.0,4.0,6.0,2.0,-5.0,1.0,2.0,1.0,1651071313194127.0,3
1870,0.0,-2.0,-6.0,-2.0,4.0,-1.0,1.0,-1.0,1651071313222315.0,3
1871,-2.0,-1.0,-4.0,-3.0,-1.0,-3.0,-1.0,0.0,1651071313222315.0,3
1872,-1.0,3.0,6.0,6.0,-5.0,-2.0,-1.0,-2.0,1651071313224283.0,3
1873,0.0,-7.0,-12.0,-10.0,-7.0,-2.0,0.0,-1.0,1651071313224283.0,3
1874,0.0,0.0,5.0,8.0,-1.0,0.0,-1.0,0.0,1651071313229296.0,3
1875,0.0,1.0,-5.0,-5.0,0.0,-1.0,-1.0,0.0,1651071313229296.0,3
1876,-1.0,-2.0,1.0,9.0,0.0,-4.0,-4.0,0.0,1651071313236323.0,3
1877,0.0,-2.0,-4.0,-18.0,-2.0,0.0,0.0,-1.0,1651071313236323.0,3
1878,-2.0,-2.0,-3.0,-4.0,-1.0,-3.0,-1.0,0.0,1651071313252976.0,3
1879,-2.0,-2.0,-1.0,5.0,0.0,-1.0,-1.0,-2.0,1651071313252976.0,3
1880,0.0,2.0,1.0,0.0,-7.0,4.0,0.0,1.0,1651071313253976.0,3
1881,-1.0,1.0,4.0,15.0,17.0,4.0,0.0,-1.0,1651071313253976.0,3
1882,0.0,-1.0,0.0,12.0,-3.0,-1.0,1.0,1.0,1651071313275062.0,3
1883,0.0,1.0,1.0,3.0,1.0,-2.0,-1.0,1.0,1651071313275062.0,3
1884,-4.0,-5.0,-1.0,-3.0,-4.0,-6.0,-3.0,-3.0,1651071313277005.0,3
1885,4.0,5.0,5.0,1.0,-5.0,1.0,3.0,3.0,1651071313277005.0,3
1886,-1.0,-5.0,-11.0,-21.0,-2.0,3.0,-2.0,-1.0,1651071313289064.0,3
1887,-4.0,-2.0,0.0,4.0,0.0,-2.0,-2.0,-2.0,1651071313289064.0,3
1888,-1.0,1.0,-1.0,-2.0,-2.0,-2.0,1.0,-3.0,1651071313297950.0,3
1889,4.0,4.0,9.0,18.0,7.0,-1.0,-1.0,-1.0,1651071313297950.0,3
1890,6.0,6.0,3.0,-11.0,-10.0,-1.0,3.0,5.0,1651071313312354.0,3
1891,-1.0,-6.0,-8.0,-11.0,-3.0,0.0,0.0,1.0,1651071313312354.0,3
1892,-6.0,-11.0,3.0,5.0,6.0,-1.0,-2.0,-5.0,1651071313314308.0,3
1893,-8.0,-2.0,-2.0,8.0,-2.0,-3.0,-1.0,-4.0,1651071313314308.0,3
1894,0.0,6.0,3.0,3.0,3.0,-1.0,-1.0,-4.0,1651071313334443.0,3
1895,4.0,4.0,2.0,-2.0,-4.0,1.0,2.0,2.0,1651071313334443.0,3
1896,0.0,0.0,-1.0,-2.0,-5.0,-2.0,0.0,1.0,1651071313336441.0,3
1897,-5.0,-7.0,-2.0,-9.0,-4.0,-1.0,-1.0,0.0,1651071313336441.0,3
1898,1.0,-2.0,-2.0,-2.0,0.0,-1.0,1.0,2.0,1651071313348409.0,3
1899,3.0,4.0,0.0,7.0,3.0,-1.0,-1.0,-1.0,1651071313348409.0,3
1900,-7.0,7.0,-4.0,-3.0,7.0,-2.0,-2.0,-6.0,1651071313357383.0,3
1901,3.0,-15.0,-1.0,3.0,-11.0,-6.0,0.0,-5.0,1651071313357383.0,3
1902,-7.0,4.0,3.0,-7.0,4.0,3.0,-1.0,-5.0,1651071313372640.0,3
1903,4.0,4.0,-5.0,3.0,-7.0,4.0,6.0,12.0,1651071313372640.0,3
1904,6.0,16.0,9.0,-3.0,15.0,2.0,6.0,3.0,1651071313374568.0,3
1905,-3.0,-6.0,3.0,-4.0,5.0,5.0,2.0,7.0,1651071313374568.0,3
1906,1.0,-21.0,-17.0,-3.0,-5.0,-6.0,-6.0,-12.0,1651071313395294.0,3
1907,1.0,0.0,4.0,16.0,-5.0,-8.0,-11.0,-10.0,1651071313395294.0,3
1908,-7.0,4.0,2.0,-12.0,-21.0,-7.0,-6.0,12.0,1651071313396293.0,3
1909,-4.0,7.0,-6.0,-4.0,0.0,1.0,5.0,-19.0,1651071313396293.0,3
1910,-5.0,-5.0,-3.0,3.0,1.0,7.0,3.0,5.0,1651071313408328.0,3
1911,7.0,9.0,16.0,8.0,-1.0,-1.0,7.0,29.0,1651071313408328.0,3
1912,11.0,0.0,-23.0,-5.0,-7.0,2.0,6.0,15.0,1651071313417278.0,3
1913,-5.0,-5.0,11.0,5.0,22.0,4.0,-21.0,-32.0,1651071313417278.0,3
1914,-12.0,1.0,-16.0,-12.0,-10.0,-10.0,-13.0,-34.0,1651071313432434.0,3
1915,6.0,-10.0,6.0,0.0,4.0,2.0,8.0,29.0,1651071313432434.0,3
1916,6.0,9.0,7.0,6.0,-8.0,-10.0,6.0,36.0,1651071313434428.0,3
1917,5.0,7.0,-2.0,-3.0,-1.0,8.0,4.0,-4.0,1651071313434428.0,3
1918,-2.0,-3.0,-5.0,5.0,8.0,3.0,1.0,-12.0,1651071313455269.0,3
1919,-17.0,-8.0,2.0,-6.0,-4.0,1.0,-7.0,-61.0,1651071313455269.0,3
1920,-5.0,-3.0,7.0,4.0,7.0,0.0,-7.0,-11.0,1651071313456370.0,3
1921,2.0,4.0,-12.0,-3.0,0.0,0.0,7.0,20.0,1651071313456370.0,3
1922,12.0,-2.0,8.0,6.0,2.0,3.0,5.0,22.0,1651071313468300.0,3
1923,2.0,-1.0,3.0,-8.0,-6.0,-5.0,0.0,6.0,1651071313468300.0,3
1924,-3.0,-9.0,-11.0,-2.0,0.0,4.0,1.0,-24.0,1651071313477211.0,3
1925,-11.0,-6.0,-8.0,-1.0,-3.0,-3.0,-7.0,-5.0,1651071313477211.0,3
1926,10.0,13.0,9.0,-1.0,-5.0,-5.0,4.0,30.0,1651071313500222.0,3
1927,0.0,-11.0,1.0,-3.0,3.0,0.0,-3.0,-7.0,1651071313500222.0,3
1928,-3.0,-8.0,-2.0,1.0,6.0,6.0,-6.0,-19.0,1651071313501202.0,3
