,EMG_s0,EMG_s1,EMG_s2,EMG_s3,EMG_s4,EMG_s5,EMG_s6,EMG_s7,timestamp,signal
0,0.0,1.0,13.0,2.0,-5.0,-2.0,1.0,1.0,1651068261978769.0,0
1,-3.0,-1.0,-3.0,2.0,-2.0,-2.0,-2.0,-2.0,1651068261978769.0,0
2,-1.0,-3.0,-5.0,-4.0,-3.0,-4.0,-2.0,-1.0,1651068261979759.0,0
3,-1.0,1.0,4.0,8.0,2.0,1.0,1.0,1.0,1651068261979759.0,0
4,-3.0,-1.0,-3.0,-4.0,-3.0,0.0,-1.0,-1.0,1651068262000849.0,0
5,0.0,-3.0,-2.0,0.0,-3.0,-1.0,-1.0,-1.0,1651068262000849.0,0
6,1.0,0.0,-5.0,-8.0,-4.0,-1.0,-1.0,0.0,1651068262002776.0,0
7,-1.0,0.0,4.0,6.0,0.0,-2.0,-1.0,0.0,1651068262002776.0,0
8,1.0,-1.0,-1.0,-1.0,-3.0,-2.0,0.0,1.0,1651068262014811.0,0
9,-1.0,-2.0,-3.0,6.0,8.0,6.0,3.0,-1.0,1651068262014811.0,0
10,1.0,-1.0,3.0,-3.0,-2.0,1.0,1.0,0.0,1651068262023389.0,0
11,1.0,0.0,1.0,-2.0,-5.0,-5.0,-3.0,1.0,1651068262023389.0,0
12,-1.0,0.0,-3.0,-3.0,3.0,2.0,-2.0,1.0,1651068262038419.0,0
13,-2.0,-1.0,-9.0,-3.0,2.0,0.0,2.0,0.0,1651068262038419.0,0
14,0.0,4.0,12.0,6.0,2.0,1.0,1.0,-2.0,1651068262039349.0,0
15,-1.0,-1.0,-5.0,-5.0,-5.0,-1.0,0.0,0.0,1651068262039349.0,0
16,0.0,-1.0,-4.0,4.0,6.0,0.0,-1.0,-2.0,1651068262060456.0,0
17,0.0,0.0,3.0,0.0,-7.0,-1.0,0.0,-1.0,1651068262060456.0,0
18,-3.0,-1.0,-7.0,-6.0,-4.0,-3.0,-1.0,0.0,1651068262062384.0,0
19,0.0,-2.0,-8.0,-3.0,2.0,1.0,-2.0,-2.0,1651068262062384.0,0
20,0.0,0.0,0.0,-1.0,-3.0,-2.0,-1.0,-2.0,1651068262074418.0,0
21,-1.0,0.0,0.0,2.0,9.0,2.0,1.0,-1.0,1651068262074418.0,0
22,-1.0,0.0,9.0,6.0,5.0,2.0,1.0,1.0,1651068262083328.0,0
23,2.0,-1.0,-4.0,-9.0,-4.0,-1.0,0.0,-2.0,1651068262083328.0,0
24,-1.0,0.0,-2.0,1.0,-1.0,-4.0,-1.0,-2.0,1651068262098381.0,0
25,1.0,0.0,-2.0,1.0,1.0,2.0,1.0,2.0,1651068262098381.0,0
26,-1.0,1.0,1.0,-1.0,1.0,0.0,-2.0,-2.0,1651068262100309.0,0
27,-3.0,0.0,3.0,-3.0,-1.0,-4.0,-2.0,-1.0,1651068262100309.0,0
28,0.0,-1.0,-1.0,3.0,5.0,6.0,2.0,-1.0,1651068262120780.0,0
29,1.0,0.0,2.0,-2.0,-2.0,-3.0,-1.0,-1.0,1651068262120780.0,0
30,0.0,-1.0,-8.0,-7.0,-4.0,-3.0,-2.0,-2.0,1651068262122778.0,0
31,-3.0,-1.0,1.0,5.0,1.0,1.0,2.0,1.0,1651068262122778.0,0
32,-1.0,-1.0,-1.0,5.0,3.0,-1.0,0.0,2.0,1651068262143697.0,0
33,-2.0,1.0,10.0,-3.0,-5.0,-4.0,-3.0,-1.0,1651068262143697.0,0
34,0.0,-2.0,-5.0,-2.0,-3.0,1.0,1.0,-1.0,1651068262144628.0,0
35,1.0,0.0,-8.0,-2.0,0.0,-1.0,1.0,-1.0,1651068262144628.0,0
36,-1.0,-2.0,4.0,-1.0,0.0,1.0,0.0,-3.0,1651068262158466.0,0
37,-2.0,-2.0,-3.0,-7.0,-10.0,-5.0,-3.0,0.0,1651068262158466.0,0
38,-2.0,-1.0,-7.0,-2.0,1.0,-1.0,1.0,1.0,1651068262159396.0,0
39,-1.0,-2.0,2.0,4.0,9.0,3.0,2.0,1.0,1651068262159396.0,0
40,0.0,-2.0,-3.0,-6.0,-9.0,-4.0,-1.0,-1.0,1651068262180435.0,0
41,0.0,0.0,-1.0,-1.0,1.0,-2.0,-2.0,-1.0,1651068262180435.0,0
42,0.0,0.0,-2.0,6.0,4.0,2.0,3.0,-1.0,1651068262187357.0,0
43,-1.0,0.0,6.0,1.0,-4.0,-3.0,-1.0,0.0,1651068262187357.0,0
44,-2.0,0.0,-23.0,-15.0,4.0,3.0,0.0,0.0,1651068262203486.0,0
45,-2.0,0.0,1.0,5.0,3.0,2.0,1.0,0.0,1651068262203486.0,0
46,-1.0,-2.0,-4.0,-4.0,-3.0,3.0,-1.0,1.0,1651068262204443.0,0
47,0.0,-1.0,-2.0,-1.0,1.0,-1.0,-1.0,0.0,1651068262204443.0,0
48,-1.0,-2.0,2.0,4.0,3.0,2.0,0.0,0.0,1651068262218659.0,0
49,-1.0,0.0,7.0,-1.0,-5.0,-2.0,-2.0,-2.0,1651068262218659.0,0
50,0.0,-1.0,-3.0,-3.0,-4.0,-3.0,-1.0,-1.0,1651068262219659.0,0
51,-2.0,0.0,-4.0,1.0,4.0,1.0,0.0,-1.0,1651068262219659.0,0
52,1.0,0.0,-3.0,-5.0,-4.0,-5.0,-3.0,-1.0,1651068262240700.0,0
53,1.0,-1.0,3.0,4.0,9.0,1.0,-1.0,-1.0,1651068262240700.0,0
54,0.0,-2.0,3.0,2.0,0.0,1.0,2.0,0.0,1651068262242655.0,0
55,0.0,0.0,0.0,-2.0,-6.0,-2.0,-1.0,-1.0,1651068262242655.0,0
56,0.0,-1.0,2.0,0.0,-1.0,-3.0,1.0,1.0,1651068262263471.0,0
57,0.0,-3.0,-6.0,-4.0,2.0,1.0,-1.0,-1.0,1651068262263471.0,0
58,1.0,2.0,0.0,2.0,0.0,-3.0,-2.0,2.0,1651068262264497.0,0
59,-2.0,-3.0,-1.0,3.0,4.0,5.0,-1.0,0.0,1651068262264497.0,0
60,1.0,1.0,2.0,0.0,-4.0,-1.0,-1.0,-1.0,1651068262277464.0,0
61,1.0,1.0,7.0,3.0,1.0,2.0,1.0,0.0,1651068262277464.0,0
62,-1.0,-2.0,-21.0,-15.0,-9.0,-4.0,-1.0,0.0,1651068262284490.0,0
63,0.0,-2.0,-1.0,0.0,5.0,2.0,1.0,-1.0,1651068262284490.0,0
64,-2.0,1.0,10.0,3.0,-7.0,-3.0,1.0,0.0,1651068262301473.0,0
65,0.0,0.0,-3.0,-1.0,-1.0,-2.0,0.0,-2.0,1651068262301473.0,0
66,-1.0,0.0,4.0,-7.0,0.0,-2.0,-2.0,-2.0,1651068262302473.0,0
67,-1.0,0.0,-1.0,10.0,4.0,2.0,1.0,1.0,1651068262302473.0,0
68,0.0,0.0,3.0,-1.0,2.0,4.0,0.0,1.0,1651068262323563.0,0
69,-1.0,-1.0,-2.0,0.0,-4.0,-1.0,-1.0,1.0,1651068262323563.0,0
70,0.0,-2.0,-2.0,-2.0,-4.0,-6.0,-2.0,-1.0,1651068262324564.0,0
71,0.0,0.0,-1.0,-1.0,5.0,4.0,2.0,-1.0,1651068262324564.0,0
72,0.0,-1.0,6.0,-1.0,-6.0,-2.0,-2.0,0.0,1651068262337556.0,0
73,-1.0,-1.0,-8.0,-2.0,1.0,0.0,0.0,-1.0,1651068262337556.0,0
74,-2.0,-1.0,6.0,5.0,4.0,5.0,0.0,-2.0,1651068262344576.0,0
75,-2.0,1.0,-1.0,-4.0,-5.0,-1.0,-2.0,-3.0,1651068262344576.0,0
76,-1.0,-2.0,1.0,1.0,1.0,0.0,0.0,0.0,1651068262360729.0,0
77,0.0,-1.0,-2.0,-3.0,-1.0,-1.0,-1.0,2.0,1651068262360729.0,0
78,-1.0,2.0,5.0,3.0,3.0,1.0,1.0,1.0,1651068262362757.0,0
79,0.0,0.0,3.0,-6.0,-12.0,-5.0,-3.0,0.0,1651068262362757.0,0
80,-2.0,0.0,-5.0,0.0,2.0,-1.0,-2.0,-2.0,1651068262384197.0,0
81,-1.0,-2.0,1.0,0.0,1.0,1.0,-1.0,-1.0,1651068262384197.0,0
82,2.0,4.0,17.0,7.0,-7.0,-2.0,-1.0,0.0,1651068262385537.0,0
83,1.0,-1.0,-7.0,1.0,4.0,0.0,3.0,1.0,1651068262385537.0,0
84,-1.0,-1.0,0.0,-4.0,-6.0,-3.0,0.0,-2.0,1651068262397570.0,0
85,0.0,-2.0,-9.0,0.0,12.0,4.0,-2.0,-1.0,1651068262397570.0,0
86,-2.0,-1.0,1.0,-1.0,-3.0,0.0,-1.0,-1.0,1651068262404513.0,0
87,-1.0,0.0,4.0,-2.0,-3.0,-2.0,-1.0,-2.0,1651068262404513.0,0
88,0.0,-1.0,-2.0,1.0,2.0,2.0,-1.0,0.0,1651068262420611.0,0
89,-1.0,1.0,0.0,-2.0,-3.0,-4.0,0.0,-1.0,1651068262420611.0,0
90,-4.0,-1.0,-5.0,1.0,5.0,2.0,-3.0,-2.0,1651068262422608.0,0
91,0.0,0.0,0.0,0.0,0.0,1.0,1.0,0.0,1651068262422608.0,0
92,-1.0,-2.0,-3.0,-2.0,-3.0,-3.0,0.0,-1.0,1651068262442775.0,0
93,0.0,0.0,0.0,2.0,-2.0,1.0,0.0,-1.0,1651068262442775.0,0
94,0.0,-1.0,-4.0,-1.0,1.0,-1.0,-2.0,-1.0,1651068262450869.0,0
95,-1.0,0.0,-1.0,-3.0,-1.0,-1.0,0.0,0.0,1651068262450869.0,0
96,0.0,-1.0,3.0,1.0,7.0,2.0,0.0,0.0,1651068262457918.0,0
97,-3.0,0.0,3.0,-5.0,-11.0,-3.0,0.0,0.0,1651068262457918.0,0
98,-1.0,0.0,-4.0,1.0,0.0,-5.0,-1.0,-1.0,1651068262464899.0,0
99,-1.0,-2.0,-1.0,-4.0,0.0,-1.0,-1.0,-1.0,1651068262464899.0,0
100,0.0,0.0,-2.0,7.0,6.0,1.0,1.0,0.0,1651068262480694.0,0
101,0.0,0.0,-1.0,-1.0,1.0,-2.0,0.0,-1.0,1651068262480694.0,0
102,0.0,-4.0,4.0,0.0,-6.0,-4.0,-2.0,0.0,1651068262482647.0,0
103,0.0,1.0,-1.0,-4.0,1.0,1.0,1.0,-1.0,1651068262482647.0,0
104,-2.0,0.0,-2.0,-4.0,-6.0,-4.0,-1.0,-2.0,1651068262503626.0,0
105,0.0,-2.0,-2.0,0.0,-2.0,-3.0,-1.0,-1.0,1651068262503626.0,0
106,0.0,0.0,1.0,2.0,3.0,1.0,2.0,-1.0,1651068262504561.0,0
107,0.0,-1.0,-2.0,-2.0,-9.0,-3.0,-1.0,0.0,1651068262504561.0,0
108,0.0,0.0,0.0,0.0,2.0,0.0,1.0,0.0,1651068262517573.0,0
109,0.0,1.0,2.0,0.0,-1.0,0.0,-1.0,-1.0,1651068262517573.0,0
110,1.0,-1.0,-3.0,-1.0,2.0,1.0,-1.0,-1.0,1651068262524622.0,0
111,0.0,-1.0,-1.0,1.0,2.0,1.0,-2.0,-1.0,1651068262524622.0,0
112,1.0,1.0,0.0,-1.0,0.0,-1.0,-1.0,0.0,1651068262540297.0,0
113,0.0,-1.0,3.0,2.0,-6.0,-6.0,-3.0,0.0,1651068262540297.0,0
114,1.0,0.0,-4.0,-3.0,18.0,10.0,2.0,1.0,1651068262548714.0,0
115,-2.0,-2.0,-1.0,-4.0,-12.0,-1.0,1.0,1.0,1651068262548714.0,0
116,-1.0,-2.0,-2.0,3.0,3.0,0.0,0.0,-2.0,1651068262562846.0,0
117,-2.0,0.0,-4.0,-2.0,0.0,0.0,0.0,-1.0,1651068262562846.0,0
118,-2.0,2.0,5.0,7.0,0.0,-4.0,-3.0,0.0,1651068262563777.0,0
119,0.0,0.0,2.0,3.0,2.0,0.0,-1.0,-1.0,1651068262563777.0,0
120,-1.0,-2.0,2.0,-3.0,-3.0,0.0,-1.0,1.0,1651068262584650.0,0
121,0.0,0.0,6.0,2.0,3.0,0.0,0.0,-1.0,1651068262584650.0,0
122,0.0,-2.0,-9.0,-6.0,-7.0,-3.0,-1.0,-2.0,1651068262585652.0,0
123,-1.0,0.0,1.0,0.0,1.0,-3.0,-3.0,0.0,1651068262585652.0,0
124,0.0,-1.0,-3.0,-2.0,-5.0,-3.0,-1.0,0.0,1651068262607631.0,0
125,-2.0,-2.0,-6.0,0.0,2.0,0.0,-3.0,-1.0,1651068262607631.0,0
126,0.0,1.0,12.0,0.0,-5.0,0.0,1.0,1.0,1651068262608561.0,0
127,0.0,1.0,0.0,1.0,2.0,0.0,1.0,0.0,1651068262608561.0,0
128,-1.0,-1.0,3.0,-2.0,3.0,2.0,1.0,-3.0,1651068262623061.0,0
129,0.0,-1.0,-5.0,3.0,7.0,3.0,0.0,0.0,1651068262623061.0,0
130,-1.0,-4.0,-3.0,1.0,-3.0,0.0,0.0,-2.0,1651068262623061.0,0
131,0.0,0.0,-3.0,-4.0,-1.0,-2.0,-3.0,-2.0,1651068262623061.0,0
132,-1.0,1.0,2.0,1.0,-6.0,-1.0,0.0,-1.0,1651068262637014.0,0
133,-1.0,-1.0,-5.0,-7.0,-4.0,0.0,1.0,0.0,1651068262637014.0,0
134,-1.0,-1.0,-4.0,-3.0,0.0,1.0,-2.0,-1.0,1651068262644930.0,0
135,-1.0,0.0,5.0,6.0,7.0,2.0,1.0,0.0,1651068262644930.0,0
136,0.0,-1.0,-7.0,-6.0,-6.0,-2.0,-2.0,1.0,1651068262660062.0,0
137,-1.0,-2.0,-2.0,0.0,-4.0,-4.0,-2.0,-2.0,1651068262660062.0,0
138,0.0,1.0,0.0,2.0,4.0,0.0,-1.0,0.0,1651068262661068.0,0
139,-1.0,-2.0,-6.0,-3.0,-1.0,-1.0,0.0,-1.0,1651068262661068.0,0
140,-1.0,2.0,0.0,1.0,-1.0,-3.0,0.0,0.0,1651068262682715.0,0
141,-1.0,-1.0,0.0,5.0,1.0,1.0,2.0,0.0,1651068262682715.0,0
142,-1.0,-1.0,-4.0,1.0,3.0,1.0,0.0,-1.0,1651068262683646.0,0
143,-1.0,-1.0,5.0,-3.0,-10.0,-5.0,-2.0,-1.0,1651068262683646.0,0
144,0.0,-1.0,-2.0,-2.0,7.0,-1.0,0.0,-1.0,1651068262704635.0,0
145,-1.0,0.0,-1.0,-1.0,-1.0,1.0,1.0,1.0,1651068262704635.0,0
146,-2.0,0.0,-2.0,1.0,-1.0,-3.0,0.0,0.0,1651068262705633.0,0
147,-1.0,-2.0,-3.0,1.0,2.0,1.0,1.0,-2.0,1651068262705633.0,0
148,-1.0,1.0,7.0,5.0,1.0,0.0,-2.0,-2.0,1651068262719747.0,0
149,0.0,-1.0,-2.0,-6.0,-2.0,0.0,0.0,1.0,1651068262719747.0,0
150,0.0,2.0,10.0,1.0,-3.0,-1.0,-2.0,-1.0,1651068262720747.0,0
151,1.0,-3.0,-8.0,-3.0,-3.0,-4.0,0.0,1.0,1651068262720747.0,0
152,1.0,1.0,0.0,2.0,-1.0,-1.0,-1.0,-1.0,1651068262742751.0,0
153,1.0,-1.0,1.0,2.0,6.0,7.0,2.0,-2.0,1651068262742751.0,0
154,-1.0,-1.0,6.0,-6.0,-2.0,-1.0,1.0,-1.0,1651068262743688.0,0
155,-3.0,-3.0,-8.0,1.0,-7.0,-4.0,-3.0,-2.0,1651068262743688.0,0
156,-1.0,-2.0,-3.0,-1.0,0.0,-1.0,-2.0,-2.0,1651068262765599.0,0
157,-1.0,1.0,0.0,-2.0,-1.0,3.0,-1.0,1.0,1651068262765599.0,0
158,-2.0,-2.0,-7.0,-4.0,-4.0,-2.0,0.0,-1.0,1651068262765599.0,0
159,0.0,2.0,6.0,3.0,6.0,2.0,0.0,0.0,1651068262765599.0,0
160,-1.0,-1.0,-8.0,-2.0,-2.0,-2.0,-1.0,1.0,1651068262780497.0,0
161,-1.0,1.0,2.0,1.0,-4.0,-5.0,-1.0,-2.0,1651068262780497.0,0
162,2.0,-1.0,-6.0,-3.0,-1.0,-4.0,-1.0,0.0,1651068262780644.0,0
163,-3.0,0.0,3.0,-8.0,-6.0,1.0,0.0,-2.0,1651068262780644.0,0
164,1.0,-2.0,1.0,9.0,4.0,2.0,2.0,-2.0,1651068262804585.0,0
165,-1.0,0.0,-4.0,-9.0,-2.0,-2.0,1.0,0.0,1651068262804585.0,0
166,-3.0,-1.0,-3.0,9.0,0.0,-3.0,-2.0,-3.0,1651068262804684.0,0
167,0.0,0.0,1.0,0.0,8.0,6.0,1.0,-1.0,1651068262804684.0,0
168,0.0,0.0,11.0,-1.0,-2.0,-1.0,0.0,-1.0,1651068262825561.0,0
169,1.0,-3.0,-22.0,-11.0,-5.0,-3.0,-1.0,0.0,1651068262825561.0,0
170,-2.0,-2.0,-5.0,-5.0,-3.0,0.0,1.0,-1.0,1651068262825561.0,0
171,1.0,0.0,7.0,1.0,-9.0,-7.0,-1.0,1.0,1651068262825561.0,0
172,-1.0,-1.0,0.0,-1.0,2.0,2.0,-2.0,1.0,1651068262847570.0,0
173,1.0,1.0,7.0,4.0,5.0,4.0,-1.0,-1.0,1651068262847570.0,0
174,0.0,-2.0,-6.0,0.0,1.0,0.0,-1.0,1.0,1651068262848500.0,0
175,1.0,3.0,2.0,3.0,2.0,-1.0,0.0,0.0,1651068262848500.0,0
176,-1.0,-2.0,-2.0,-5.0,-2.0,-1.0,1.0,-2.0,1651068262863083.0,0
177,-1.0,-1.0,3.0,4.0,0.0,0.0,-2.0,-1.0,1651068262863083.0,0
178,1.0,-1.0,-4.0,-2.0,-1.0,1.0,-2.0,2.0,1651068262863083.0,0
179,1.0,2.0,0.0,-2.0,0.0,-1.0,-1.0,-1.0,1651068262863083.0,0
180,-1.0,1.0,-2.0,-2.0,6.0,2.0,-1.0,0.0,1651068262885599.0,0
181,-1.0,0.0,4.0,9.0,-10.0,-7.0,0.0,0.0,1651068262885599.0,0
182,0.0,-3.0,-12.0,-1.0,2.0,3.0,0.0,0.0,1651068262885599.0,0
183,-1.0,0.0,17.0,7.0,2.0,0.0,1.0,-1.0,1651068262885599.0,0
184,1.0,-1.0,-2.0,-4.0,-3.0,-1.0,-1.0,-1.0,1651068262915741.0,0
185,1.0,1.0,13.0,1.0,5.0,4.0,-1.0,1.0,1651068262915741.0,0
186,0.0,0.0,-7.0,-3.0,-4.0,-3.0,-1.0,-1.0,1651068262916672.0,0
187,-1.0,-5.0,-4.0,0.0,2.0,1.0,-2.0,0.0,1651068262916672.0,0
188,0.0,1.0,-6.0,-3.0,-4.0,-2.0,1.0,-1.0,1651068262922656.0,0
189,-1.0,0.0,7.0,1.0,-3.0,-1.0,0.0,-2.0,1651068262922656.0,0
190,-2.0,-1.0,4.0,1.0,-1.0,0.0,0.0,-2.0,1651068262923654.0,0
191,-2.0,0.0,-4.0,-4.0,1.0,-1.0,-1.0,-3.0,1651068262923654.0,0
192,0.0,2.0,6.0,-2.0,1.0,0.0,-2.0,-1.0,1651068262944678.0,0
193,0.0,1.0,-7.0,5.0,4.0,1.0,-2.0,-1.0,1651068262944678.0,0
194,-1.0,0.0,4.0,-3.0,0.0,2.0,4.0,0.0,1651068262945683.0,0
195,-1.0,-2.0,-9.0,-4.0,-6.0,-3.0,1.0,-2.0,1651068262945683.0,0
196,-1.0,0.0,1.0,2.0,2.0,-1.0,0.0,0.0,1651068262967597.0,0
197,-2.0,-2.0,-2.0,-2.0,2.0,-1.0,-2.0,-2.0,1651068262967597.0,0
198,0.0,-1.0,1.0,-1.0,-1.0,-1.0,-1.0,0.0,1651068262968527.0,0
199,-1.0,0.0,0.0,-6.0,-1.0,0.0,1.0,-1.0,1651068262968527.0,0
200,0.0,-1.0,0.0,9.0,3.0,-1.0,-1.0,0.0,1651068262983077.0,0
201,-1.0,-1.0,-8.0,-4.0,7.0,7.0,5.0,1.0,1651068262983077.0,0
202,-1.0,0.0,5.0,1.0,-3.0,-3.0,-1.0,0.0,1651068262983077.0,0
203,-1.0,-1.0,5.0,3.0,2.0,2.0,-2.0,0.0,1651068262983077.0,0
204,-2.0,-1.0,-1.0,-4.0,-1.0,-3.0,-2.0,-1.0,1651068263005218.0,0
205,0.0,0.0,-3.0,-3.0,-6.0,-3.0,0.0,0.0,1651068263005218.0,0
206,0.0,1.0,0.0,-1.0,-4.0,0.0,0.0,1.0,1651068263006242.0,0
207,-1.0,1.0,3.0,-2.0,4.0,3.0,2.0,0.0,1651068263006242.0,0
208,0.0,-1.0,-5.0,0.0,-2.0,0.0,-1.0,-2.0,1651068263027225.0,0
209,-1.0,0.0,4.0,-1.0,0.0,-1.0,1.0,-2.0,1651068263027225.0,0
210,-2.0,-1.0,2.0,1.0,8.0,2.0,0.0,1.0,1651068263028156.0,0
211,0.0,0.0,-7.0,1.0,-5.0,-4.0,-2.0,2.0,1651068263028156.0,0
212,-1.0,-3.0,-2.0,0.0,0.0,3.0,1.0,-2.0,1651068263042315.0,0
213,-1.0,-2.0,-2.0,-4.0,-4.0,-4.0,-3.0,-1.0,1651068263042315.0,0
214,-1.0,0.0,2.0,1.0,-3.0,1.0,-2.0,0.0,1651068263050295.0,0
215,-1.0,-2.0,-5.0,-2.0,2.0,-1.0,0.0,0.0,1651068263050295.0,0
216,-1.0,0.0,1.0,-5.0,-3.0,-1.0,0.0,1.0,1651068263065372.0,0
217,-2.0,-2.0,0.0,4.0,-1.0,-3.0,-2.0,-1.0,1651068263065372.0,0
218,-1.0,-1.0,-7.0,-3.0,0.0,0.0,-2.0,-2.0,1651068263066311.0,0
219,0.0,-1.0,0.0,3.0,2.0,-1.0,0.0,-1.0,1651068263066311.0,0
220,0.0,-1.0,-4.0,4.0,1.0,-2.0,0.0,0.0,1651068263087309.0,0
221,-1.0,-3.0,0.0,-6.0,-8.0,-3.0,0.0,0.0,1651068263087309.0,0
222,0.0,-1.0,-2.0,-4.0,0.0,1.0,0.0,0.0,1651068263088240.0,0
223,0.0,-1.0,-4.0,1.0,3.0,2.0,-1.0,-1.0,1651068263088240.0,0
224,0.0,0.0,4.0,-4.0,-8.0,-2.0,0.0,1.0,1651068263102371.0,0
225,-1.0,-1.0,-9.0,-2.0,2.0,-1.0,-2.0,0.0,1651068263102371.0,0
226,0.0,1.0,9.0,-1.0,2.0,-1.0,1.0,-1.0,1651068263110283.0,0
227,0.0,0.0,4.0,3.0,2.0,0.0,1.0,0.0,1651068263110283.0,0
228,-1.0,-3.0,2.0,0.0,-2.0,-2.0,0.0,0.0,1651068263124741.0,0
229,0.0,0.0,0.0,0.0,-1.0,-1.0,-1.0,-1.0,1651068263124741.0,0
230,0.0,0.0,0.0,-2.0,-6.0,-1.0,-1.0,0.0,1651068263125691.0,0
231,0.0,0.0,-3.0,1.0,2.0,0.0,0.0,-1.0,1651068263125691.0,0
232,0.0,0.0,-1.0,-2.0,-1.0,5.0,1.0,1.0,1651068263147656.0,0
233,0.0,-1.0,-7.0,-6.0,1.0,1.0,1.0,-1.0,1651068263147656.0,0
234,-1.0,0.0,1.0,6.0,3.0,-2.0,-2.0,-2.0,1651068263148585.0,0
235,0.0,-3.0,-1.0,2.0,-5.0,-2.0,-3.0,0.0,1651068263148585.0,0
236,-1.0,0.0,-4.0,2.0,3.0,1.0,0.0,-2.0,1651068263161550.0,0
237,1.0,-1.0,2.0,-8.0,-10.0,-6.0,0.0,-1.0,1651068263161550.0,0
238,-1.0,-1.0,-6.0,-4.0,-1.0,-2.0,-1.0,0.0,1651068263170571.0,0
239,-1.0,-3.0,-9.0,-5.0,-2.0,0.0,-2.0,1.0,1651068263170571.0,0
240,0.0,1.0,7.0,0.0,-1.0,-3.0,-4.0,1.0,1651068263184712.0,0
241,1.0,1.0,2.0,4.0,3.0,4.0,2.0,2.0,1651068263184712.0,0
242,0.0,-1.0,-1.0,-1.0,-1.0,-3.0,0.0,-2.0,1651068263185640.0,0
243,-1.0,-1.0,3.0,0.0,-1.0,-2.0,1.0,-1.0,1651068263185640.0,0
244,-1.0,-1.0,-5.0,-2.0,-1.0,-1.0,-2.0,-3.0,1651068263207874.0,0
245,1.0,-1.0,-1.0,2.0,2.0,0.0,0.0,-1.0,1651068263207874.0,0
246,0.0,0.0,2.0,4.0,1.0,0.0,1.0,1.0,1651068263208810.0,0
247,0.0,-1.0,-1.0,-4.0,2.0,-2.0,-1.0,-4.0,1651068263208810.0,0
248,-2.0,-2.0,-3.0,-5.0,-6.0,-2.0,-2.0,-2.0,1651068263221684.0,0
249,-2.0,3.0,9.0,3.0,1.0,-4.0,0.0,1.0,1651068263221684.0,0
250,1.0,0.0,1.0,3.0,6.0,10.0,3.0,1.0,1651068263230673.0,0
251,0.0,0.0,10.0,5.0,2.0,-1.0,0.0,1.0,1651068263230673.0,0
252,-1.0,-5.0,-22.0,-11.0,0.0,0.0,-1.0,1.0,1651068263244684.0,0
253,-1.0,0.0,-1.0,-4.0,-8.0,-5.0,-4.0,-4.0,1651068263244684.0,0
254,-1.0,0.0,0.0,-2.0,1.0,-2.0,-1.0,0.0,1651068263245622.0,0
255,-1.0,-1.0,1.0,4.0,5.0,2.0,0.0,-2.0,1651068263245622.0,0
256,0.0,1.0,4.0,-1.0,-7.0,-3.0,0.0,0.0,1651068263267587.0,0
257,0.0,-2.0,-1.0,0.0,-7.0,-1.0,0.0,1.0,1651068263267587.0,0
258,0.0,0.0,0.0,0.0,-3.0,-4.0,-4.0,0.0,1651068263268561.0,0
259,-1.0,-1.0,-6.0,-10.0,-3.0,3.0,1.0,-1.0,1651068263268561.0,0
260,0.0,1.0,8.0,13.0,6.0,-1.0,1.0,0.0,1651068263281596.0,0
261,-3.0,-3.0,-10.0,-4.0,1.0,0.0,0.0,0.0,1651068263281596.0,0
262,-1.0,1.0,2.0,6.0,1.0,-1.0,-1.0,-3.0,1651068263290378.0,0
263,-2.0,-1.0,-1.0,-7.0,-9.0,-4.0,-2.0,0.0,1651068263290378.0,0
264,0.0,0.0,1.0,2.0,3.0,-1.0,1.0,0.0,1651068263305551.0,0
265,0.0,-1.0,0.0,-3.0,-8.0,-3.0,-2.0,-1.0,1651068263305551.0,0
266,-1.0,-2.0,-2.0,0.0,3.0,1.0,1.0,-1.0,1651068263305551.0,0
267,1.0,1.0,-2.0,-6.0,-5.0,5.0,2.0,0.0,1651068263305551.0,0
268,0.0,1.0,6.0,10.0,6.0,1.0,-2.0,-1.0,1651068263327628.0,0
269,-2.0,0.0,2.0,3.0,5.0,3.0,2.0,0.0,1651068263327628.0,0
270,-1.0,-1.0,4.0,-2.0,-7.0,-6.0,-3.0,0.0,1651068263328562.0,0
271,1.0,-1.0,-2.0,-1.0,-1.0,-1.0,1.0,0.0,1651068263328562.0,0
272,-1.0,-1.0,9.0,1.0,-2.0,-1.0,-1.0,0.0,1651068263341672.0,0
273,1.0,0.0,-2.0,0.0,9.0,1.0,-1.0,2.0,1651068263341672.0,0
274,1.0,0.0,-1.0,-2.0,-13.0,-3.0,-1.0,0.0,1651068263350676.0,0
275,-1.0,1.0,-2.0,1.0,0.0,-3.0,-1.0,1.0,1651068263350676.0,0
276,1.0,-1.0,2.0,-2.0,0.0,-1.0,-1.0,-1.0,1651068263364916.0,0
277,-1.0,-2.0,0.0,1.0,2.0,0.0,-4.0,-2.0,1651068263364916.0,0
278,0.0,-1.0,-3.0,-2.0,7.0,3.0,4.0,0.0,1651068263365847.0,0
279,-1.0,2.0,3.0,3.0,-5.0,-4.0,-3.0,-1.0,1651068263365847.0,0
280,-1.0,-2.0,-6.0,-7.0,-4.0,-3.0,0.0,1.0,1651068263387847.0,0
281,-2.0,0.0,1.0,1.0,2.0,0.0,0.0,-1.0,1651068263387847.0,0
282,1.0,0.0,-2.0,-3.0,1.0,1.0,-2.0,1.0,1651068263388786.0,0
283,0.0,-2.0,1.0,3.0,4.0,2.0,2.0,1.0,1651068263388786.0,0
284,1.0,1.0,-2.0,-5.0,-3.0,2.0,-1.0,0.0,1651068263401740.0,0
285,0.0,0.0,0.0,1.0,-1.0,-1.0,-1.0,-1.0,1651068263401740.0,0
286,-3.0,-1.0,0.0,0.0,-3.0,-3.0,-1.0,0.0,1651068263409883.0,0
287,0.0,0.0,-1.0,0.0,1.0,-3.0,2.0,-1.0,1651068263409883.0,0
288,-2.0,-3.0,-11.0,-11.0,0.0,6.0,2.0,-2.0,1651068263425498.0,0
289,2.0,3.0,7.0,9.0,3.0,0.0,1.0,2.0,1651068263425498.0,0
290,0.0,-2.0,-7.0,-7.0,-2.0,-3.0,-2.0,0.0,1651068263425498.0,0
291,-2.0,-1.0,-1.0,3.0,1.0,-2.0,-3.0,-3.0,1651068263425498.0,0
292,-1.0,0.0,6.0,2.0,-5.0,-5.0,-1.0,0.0,1651068263447147.0,0
293,0.0,-1.0,-3.0,-6.0,-8.0,-1.0,-1.0,-1.0,1651068263447147.0,0
294,-1.0,-1.0,-2.0,-3.0,0.0,-1.0,1.0,0.0,1651068263448144.0,0
295,-1.0,-1.0,-2.0,0.0,-1.0,0.0,0.0,1.0,1651068263448144.0,0
296,0.0,0.0,6.0,5.0,3.0,-1.0,0.0,0.0,1651068263462107.0,0
297,0.0,-1.0,3.0,0.0,0.0,-1.0,0.0,0.0,1651068263462107.0,0
298,0.0,0.0,-1.0,0.0,0.0,-1.0,-1.0,0.0,1651068263470545.0,0
299,-1.0,-2.0,-2.0,-2.0,0.0,1.0,-1.0,-1.0,1651068263470545.0,0
300,-2.0,-1.0,-2.0,1.0,3.0,-1.0,-2.0,0.0,1651068263484987.0,0
301,-1.0,-1.0,3.0,-2.0,-4.0,-3.0,-2.0,-1.0,1651068263484987.0,0
302,-2.0,-1.0,-3.0,4.0,-3.0,-5.0,-2.0,-2.0,1651068263485893.0,0
303,-1.0,1.0,0.0,-4.0,0.0,4.0,-2.0,-1.0,1651068263485893.0,0
304,1.0,-2.0,-5.0,-5.0,-8.0,-4.0,-3.0,-1.0,1651068263507599.0,0
305,0.0,-2.0,-4.0,-2.0,4.0,5.0,0.0,-1.0,1651068263507599.0,0
306,0.0,-1.0,3.0,0.0,-1.0,2.0,-2.0,-2.0,1651068263508597.0,0
307,0.0,0.0,-1.0,1.0,-1.0,-5.0,-3.0,-1.0,1651068263508597.0,0
308,0.0,-1.0,1.0,-1.0,2.0,0.0,-1.0,-1.0,1651068263521693.0,0
309,-2.0,0.0,4.0,2.0,-1.0,1.0,0.0,0.0,1651068263521693.0,0
310,-2.0,0.0,-20.0,-10.0,-5.0,-4.0,-1.0,-2.0,1651068263529765.0,0
311,0.0,0.0,-1.0,-2.0,-4.0,-3.0,-2.0,1.0,1651068263529765.0,0
312,0.0,-2.0,-3.0,0.0,3.0,0.0,-1.0,-1.0,1651068263544879.0,0
313,-1.0,-2.0,-6.0,-4.0,-3.0,-2.0,0.0,2.0,1651068263544879.0,0
314,0.0,0.0,16.0,6.0,8.0,6.0,-1.0,1.0,1651068263545810.0,0
315,0.0,0.0,3.0,2.0,-6.0,-4.0,-2.0,0.0,1651068263545810.0,0
316,-2.0,0.0,-3.0,0.0,1.0,-1.0,1.0,1.0,1651068263567697.0,0
317,0.0,-1.0,-2.0,-2.0,2.0,-6.0,-1.0,0.0,1651068263567697.0,0
318,1.0,-1.0,5.0,2.0,0.0,7.0,2.0,0.0,1651068263568654.0,0
319,-1.0,0.0,-2.0,3.0,-1.0,5.0,4.0,1.0,1651068263568654.0,0
320,0.0,2.0,3.0,-3.0,-1.0,0.0,-1.0,-2.0,1651068263590845.0,0
321,1.0,0.0,-3.0,-2.0,-6.0,-8.0,-3.0,-2.0,1651068263590845.0,0
322,0.0,-2.0,-4.0,-5.0,-12.0,-8.0,-2.0,0.0,1651068263591781.0,0
323,0.0,-2.0,1.0,3.0,17.0,4.0,0.0,-1.0,1651068263591781.0,0
324,-1.0,-1.0,0.0,2.0,11.0,10.0,1.0,-2.0,1651068263605619.0,0
325,0.0,2.0,14.0,7.0,-5.0,-6.0,-1.0,-1.0,1651068263605619.0,0
326,2.0,0.0,-14.0,-2.0,6.0,10.0,4.0,2.0,1651068263605619.0,0
327,0.0,2.0,3.0,2.0,-4.0,0.0,-1.0,1.0,1651068263605619.0,0
328,-1.0,0.0,0.0,0.0,-6.0,1.0,2.0,1.0,1651068263627464.0,0
329,-2.0,-3.0,-3.0,-3.0,3.0,2.0,-2.0,-2.0,1651068263627464.0,0
330,1.0,-1.0,13.0,3.0,-4.0,-8.0,-1.0,-2.0,1651068263628393.0,0
331,-1.0,-2.0,-7.0,-5.0,-7.0,-4.0,-1.0,-1.0,1651068263628393.0,0
332,0.0,1.0,-2.0,-1.0,-4.0,-7.0,-5.0,-2.0,1651068263651069.0,0
333,-2.0,-1.0,-4.0,-2.0,3.0,0.0,-1.0,0.0,1651068263651069.0,0
334,1.0,1.0,-2.0,5.0,12.0,9.0,7.0,2.0,1651068263651570.0,0
335,0.0,-2.0,-5.0,-4.0,-1.0,-1.0,1.0,-1.0,1651068263651570.0,0
336,-1.0,0.0,2.0,-2.0,1.0,-1.0,0.0,-1.0,1651068263664690.0,0
337,-1.0,-3.0,-9.0,-10.0,-23.0,-10.0,-4.0,-2.0,1651068263664690.0,0
338,0.0,0.0,1.0,3.0,14.0,-3.0,-4.0,-2.0,1651068263665621.0,0
339,-2.0,-2.0,2.0,0.0,3.0,0.0,-1.0,-2.0,1651068263665621.0,0
340,-1.0,1.0,-1.0,-1.0,-8.0,-3.0,-1.0,2.0,1651068263687718.0,0
341,1.0,2.0,4.0,2.0,2.0,7.0,-1.0,-2.0,1651068263687718.0,0
342,-2.0,-2.0,-1.0,0.0,7.0,4.0,-1.0,-1.0,1651068263688648.0,0
343,1.0,0.0,3.0,-4.0,-3.0,0.0,0.0,2.0,1651068263688648.0,0
344,1.0,2.0,3.0,-2.0,-7.0,-2.0,2.0,0.0,1651068263710622.0,0
345,-1.0,-4.0,-9.0,-2.0,1.0,3.0,2.0,1.0,1651068263710622.0,0
346,-1.0,0.0,8.0,9.0,14.0,-4.0,-5.0,-3.0,1651068263711553.0,0
347,-2.0,1.0,1.0,-3.0,-1.0,5.0,1.0,-1.0,1651068263711553.0,0
348,-3.0,-4.0,-6.0,0.0,9.0,1.0,-2.0,-5.0,1651068263725563.0,0
349,-1.0,-5.0,-16.0,-16.0,-26.0,-1.0,5.0,2.0,1651068263725563.0,0
350,-2.0,-2.0,-5.0,-3.0,-22.0,-14.0,-5.0,4.0,1651068263725563.0,0
351,3.0,-5.0,-3.0,1.0,4.0,-20.0,-10.0,-2.0,1651068263725563.0,0
352,1.0,-2.0,6.0,16.0,23.0,13.0,3.0,-1.0,1651068263747678.0,0
353,-2.0,6.0,7.0,12.0,32.0,29.0,7.0,-3.0,1651068263747678.0,0
354,1.0,1.0,9.0,3.0,-10.0,-2.0,1.0,2.0,1651068263748610.0,1
355,2.0,5.0,4.0,-4.0,-14.0,-8.0,-2.0,1.0,1651068263748610.0,1
356,-5.0,-10.0,-10.0,-20.0,-31.0,-25.0,-11.0,-5.0,1651068263771050.0,1
357,-3.0,-4.0,1.0,3.0,5.0,-8.0,-6.0,-4.0,1651068263771050.0,1
358,-3.0,1.0,-2.0,-5.0,-2.0,-1.0,1.0,-1.0,1651068263771618.0,1
359,-1.0,-1.0,-4.0,3.0,8.0,5.0,2.0,1.0,1651068263771618.0,1
360,5.0,5.0,7.0,2.0,2.0,6.0,6.0,4.0,1651068263785528.0,1
361,1.0,0.0,-1.0,2.0,3.0,4.0,-1.0,1.0,1651068263785528.0,1
362,-3.0,-2.0,0.0,-1.0,1.0,4.0,2.0,-4.0,1651068263785528.0,1
363,-1.0,5.0,15.0,5.0,1.0,7.0,7.0,2.0,1651068263785528.0,1
364,1.0,-1.0,-10.0,-2.0,-6.0,-10.0,1.0,13.0,1651068263807618.0,1
365,2.0,-2.0,7.0,6.0,4.0,1.0,-6.0,-9.0,1651068263807618.0,1
366,-12.0,2.0,7.0,-3.0,-1.0,3.0,0.0,-19.0,1651068263808614.0,1
367,-1.0,-6.0,-18.0,-7.0,3.0,9.0,16.0,13.0,1651068263808614.0,1
368,27.0,8.0,5.0,2.0,2.0,14.0,2.0,32.0,1651068263830576.0,1
369,8.0,3.0,0.0,5.0,-1.0,-25.0,-12.0,-4.0,1651068263830576.0,1
370,-7.0,0.0,-1.0,-5.0,-3.0,-1.0,-9.0,-26.0,1651068263830576.0,1
371,-7.0,0.0,0.0,4.0,8.0,16.0,7.0,2.0,1651068263830576.0,1
372,-7.0,-7.0,-13.0,-15.0,-26.0,-16.0,-14.0,-14.0,1651068263844584.0,1
373,4.0,1.0,4.0,9.0,23.0,10.0,0.0,6.0,1651068263844584.0,1
374,1.0,0.0,-4.0,-2.0,-3.0,4.0,0.0,-3.0,1651068263852495.0,1
375,-7.0,-9.0,-11.0,-10.0,-10.0,-13.0,-2.0,-10.0,1651068263852495.0,1
376,-5.0,2.0,6.0,4.0,-2.0,-1.0,3.0,-1.0,1651068263867523.0,1
377,-4.0,-6.0,-13.0,-10.0,-2.0,-1.0,-7.0,-9.0,1651068263867523.0,1
378,3.0,0.0,-4.0,-9.0,-14.0,-9.0,6.0,10.0,1651068263868454.0,1
379,3.0,1.0,6.0,7.0,6.0,2.0,-7.0,2.0,1651068263868454.0,1
380,-5.0,-7.0,-8.0,5.0,17.0,8.0,-3.0,-6.0,1651068263890018.0,1
381,-1.0,6.0,15.0,2.0,-9.0,1.0,11.0,3.0,1651068263890018.0,1
382,3.0,-1.0,-5.0,-11.0,-10.0,-5.0,5.0,11.0,1651068263891017.0,1
383,3.0,-3.0,-7.0,-7.0,-12.0,-12.0,-8.0,-4.0,1651068263891017.0,1
384,-9.0,7.0,14.0,14.0,24.0,15.0,5.0,-10.0,1651068263905588.0,1
385,5.0,0.0,3.0,12.0,11.0,10.0,4.0,4.0,1651068263905588.0,1
386,1.0,-12.0,-14.0,-13.0,-14.0,-17.0,-15.0,-4.0,1651068263905588.0,1
387,3.0,5.0,11.0,0.0,-8.0,-7.0,-5.0,-6.0,1651068263905588.0,1
388,-8.0,0.0,0.0,2.0,4.0,0.0,1.0,-12.0,1651068263935678.0,1
389,-6.0,4.0,4.0,-9.0,-11.0,-7.0,-6.0,0.0,1651068263935678.0,1
390,5.0,2.0,1.0,5.0,1.0,5.0,0.0,10.0,1651068263936608.0,1
391,1.0,4.0,7.0,10.0,-1.0,0.0,-4.0,-2.0,1651068263936608.0,1
392,-8.0,-2.0,-1.0,-2.0,-1.0,-2.0,5.0,-9.0,1651068263950575.0,1
393,9.0,-2.0,-9.0,-4.0,-3.0,-5.0,-2.0,9.0,1651068263950575.0,1
394,-3.0,11.0,27.0,19.0,15.0,9.0,-6.0,-6.0,1651068263950575.0,1
395,-8.0,-14.0,-28.0,-14.0,-9.0,-6.0,-3.0,-2.0,1651068263950575.0,1
396,1.0,-3.0,-11.0,-6.0,1.0,0.0,-6.0,0.0,1651068263964579.0,1
397,-10.0,-5.0,-6.0,-6.0,-6.0,1.0,-1.0,-13.0,1651068263964579.0,1
398,-3.0,-2.0,-8.0,-4.0,-2.0,-4.0,4.0,-6.0,1651068263965589.0,1
399,23.0,9.0,12.0,11.0,15.0,11.0,6.0,38.0,1651068263965589.0,1
400,11.0,1.0,2.0,-5.0,-13.0,-12.0,-10.0,15.0,1651068263987742.0,1
401,-3.0,1.0,5.0,3.0,-1.0,-4.0,-4.0,-8.0,1651068263987742.0,1
402,-3.0,-4.0,-7.0,0.0,4.0,3.0,-1.0,-9.0,1651068263988673.0,1
403,-10.0,-6.0,-9.0,-5.0,-3.0,-2.0,0.0,-17.0,1651068263988673.0,1
404,-2.0,-1.0,-4.0,-1.0,-5.0,-1.0,4.0,3.0,1651068264010494.0,1
405,-7.0,-4.0,-6.0,-6.0,-2.0,-3.0,-5.0,-5.0,1651068264010494.0,1
406,4.0,2.0,-4.0,1.0,-1.0,-1.0,7.0,13.0,1651068264010823.0,1
407,2.0,0.0,5.0,4.0,5.0,-1.0,-5.0,-3.0,1651068264010823.0,1
408,4.0,-1.0,-3.0,0.0,2.0,4.0,2.0,3.0,1651068264025524.0,1
409,-4.0,-1.0,-3.0,-1.0,-1.0,1.0,6.0,-3.0,1651068264025524.0,1
410,-2.0,-2.0,-1.0,-8.0,-8.0,-2.0,3.0,1.0,1651068264025524.0,1
411,-2.0,-1.0,-1.0,2.0,-4.0,-5.0,-8.0,-5.0,1651068264025524.0,1
412,-1.0,2.0,1.0,2.0,4.0,2.0,0.0,-6.0,1651068264047496.0,1
413,1.0,-4.0,-4.0,-5.0,-2.0,1.0,7.0,8.0,1651068264047496.0,1
414,1.0,-1.0,0.0,3.0,4.0,-1.0,-8.0,-2.0,1651068264055533.0,1
415,-4.0,0.0,0.0,2.0,6.0,4.0,1.0,0.0,1651068264055533.0,1
416,0.0,-8.0,-5.0,-1.0,-3.0,-1.0,0.0,-7.0,1651068264070494.0,1
417,-2.0,5.0,3.0,-3.0,-6.0,-8.0,0.0,-12.0,1651068264070494.0,1
418,-28.0,-6.0,0.0,0.0,-1.0,-3.0,1.0,28.0,1651068264070494.0,1
419,54.0,11.0,9.0,0.0,-2.0,1.0,-3.0,-4.0,1651068264070494.0,1
420,-8.0,-10.0,-2.0,2.0,2.0,1.0,3.0,-4.0,1651068264084367.0,1
421,4.0,1.0,-7.0,-2.0,-1.0,-1.0,-2.0,-2.0,1651068264084367.0,1
422,4.0,-4.0,-2.0,2.0,5.0,4.0,5.0,-3.0,1651068264093103.0,1
423,-15.0,0.0,5.0,-4.0,-11.0,-8.0,-2.0,4.0,1651068264093103.0,1
424,-15.0,-4.0,-3.0,-3.0,-2.0,-2.0,-6.0,-5.0,1651068264107183.0,1
425,24.0,17.0,5.0,4.0,4.0,6.0,1.0,2.0,1651068264107183.0,1
426,-31.0,-24.0,-8.0,0.0,3.0,5.0,3.0,-11.0,1651068264108182.0,1
427,2.0,5.0,3.0,-6.0,-7.0,-3.0,-1.0,-3.0,1651068264108182.0,1
428,4.0,6.0,8.0,-3.0,-7.0,-4.0,-4.0,-4.0,1651068264130529.0,1
429,-9.0,-3.0,-5.0,3.0,4.0,-2.0,-2.0,5.0,1651068264130529.0,1
430,21.0,10.0,2.0,1.0,2.0,0.0,-4.0,3.0,1651068264130529.0,1
431,-15.0,-8.0,-9.0,-2.0,2.0,4.0,5.0,-9.0,1651068264130529.0,1
432,-3.0,0.0,3.0,-3.0,-4.0,-5.0,0.0,-11.0,1651068264144586.0,1
433,-3.0,-5.0,1.0,1.0,0.0,-4.0,1.0,11.0,1651068264144586.0,1
434,9.0,-2.0,-8.0,-1.0,-1.0,-3.0,-6.0,5.0,1651068264152664.0,1
435,-12.0,6.0,4.0,-8.0,-7.0,-4.0,-6.0,-18.0,1651068264152664.0,1
436,11.0,8.0,2.0,-4.0,-8.0,-3.0,4.0,30.0,1651068264167650.0,1
437,-3.0,0.0,5.0,7.0,3.0,0.0,1.0,-4.0,1651068264167650.0,1
438,0.0,-7.0,0.0,-3.0,-7.0,-2.0,-2.0,-10.0,1651068264168580.0,1
439,-17.0,-6.0,-14.0,-1.0,10.0,1.0,-2.0,-10.0,1651068264168580.0,1
440,5.0,7.0,8.0,0.0,1.0,3.0,-3.0,-12.0,1651068264190675.0,1
441,-7.0,-4.0,0.0,-5.0,-8.0,-5.0,-6.0,0.0,1651068264190675.0,1
442,15.0,6.0,3.0,0.0,-1.0,-1.0,1.0,4.0,1651068264190675.0,1
443,-2.0,-4.0,-1.0,2.0,2.0,8.0,21.0,26.0,1651068264190675.0,1
444,-2.0,5.0,7.0,-6.0,-13.0,-7.0,-3.0,-5.0,1651068264213690.0,1
445,2.0,-9.0,-2.0,4.0,8.0,8.0,5.0,12.0,1651068264213690.0,1
446,-9.0,2.0,-7.0,2.0,6.0,2.0,-1.0,-21.0,1651068264213690.0,1
447,0.0,3.0,8.0,-2.0,-4.0,-6.0,-10.0,-1.0,1651068264213690.0,1
448,10.0,3.0,0.0,1.0,2.0,1.0,8.0,9.0,1651068264227797.0,1
449,1.0,1.0,-2.0,-5.0,-6.0,-3.0,-2.0,2.0,1651068264227797.0,1
450,4.0,4.0,5.0,3.0,2.0,1.0,1.0,-2.0,1651068264228727.0,1
451,5.0,-3.0,-6.0,2.0,0.0,-1.0,1.0,5.0,1651068264228727.0,1
452,-6.0,0.0,0.0,8.0,10.0,12.0,2.0,-8.0,1651068264249905.0,1
453,-10.0,-1.0,-3.0,-8.0,-2.0,-4.0,-3.0,-12.0,1651068264249905.0,1
454,4.0,-1.0,-1.0,-5.0,-2.0,-1.0,-3.0,8.0,1651068264250905.0,1
455,12.0,9.0,0.0,2.0,-5.0,-3.0,-2.0,17.0,1651068264250905.0,1
456,-13.0,-11.0,-15.0,-10.0,-6.0,-6.0,-2.0,-10.0,1651068264264005.0,1
457,7.0,1.0,10.0,8.0,0.0,-2.0,1.0,18.0,1651068264264005.0,1
458,-7.0,-1.0,-8.0,-2.0,6.0,8.0,-2.0,-10.0,1651068264273069.0,1
459,-16.0,-5.0,11.0,3.0,1.0,-2.0,-5.0,-16.0,1651068264273069.0,1
460,2.0,0.0,-14.0,-3.0,0.0,-1.0,2.0,20.0,1651068264288030.0,1
461,36.0,4.0,0.0,-3.0,0.0,0.0,9.0,-7.0,1651068264288030.0,1
462,2.0,0.0,-2.0,-4.0,-3.0,-1.0,-1.0,12.0,1651068264288030.0,1
463,-5.0,3.0,8.0,2.0,-4.0,-2.0,-1.0,-10.0,1651068264288030.0,1
464,-4.0,-7.0,-7.0,1.0,4.0,0.0,-7.0,-9.0,1651068264310495.0,1
465,-7.0,-2.0,-5.0,2.0,-1.0,0.0,-1.0,2.0,1651068264310495.0,1
466,8.0,6.0,13.0,-3.0,-9.0,-8.0,-1.0,18.0,1651068264310729.0,1
467,-3.0,0.0,1.0,-2.0,2.0,0.0,-6.0,-18.0,1651068264310729.0,1
468,0.0,0.0,-4.0,-4.0,-3.0,-2.0,-6.0,-5.0,1651068264324568.0,1
469,-9.0,-8.0,0.0,-9.0,-12.0,-2.0,0.0,8.0,1651068264324568.0,1
470,7.0,3.0,-1.0,11.0,15.0,6.0,2.0,-4.0,1651068264332688.0,1
471,-14.0,-2.0,3.0,2.0,-1.0,-2.0,-1.0,-12.0,1651068264332688.0,1
472,6.0,-3.0,-2.0,-4.0,-1.0,-6.0,4.0,18.0,1651068264347676.0,1
473,-1.0,-1.0,-12.0,-5.0,0.0,4.0,0.0,2.0,1651068264347676.0,1
474,-4.0,1.0,-1.0,1.0,2.0,-2.0,0.0,-3.0,1651068264348603.0,1
475,6.0,-3.0,-4.0,-13.0,-14.0,-4.0,-1.0,-1.0,1651068264348603.0,1
476,-3.0,-6.0,-9.0,-1.0,0.0,1.0,-2.0,-1.0,1651068264369767.0,1
477,-3.0,3.0,3.0,-1.0,-2.0,-3.0,1.0,-4.0,1651068264369767.0,1
478,0.0,-4.0,-4.0,-1.0,1.0,1.0,4.0,0.0,1651068264370705.0,1
479,1.0,3.0,6.0,7.0,4.0,4.0,-3.0,-12.0,1651068264370705.0,1
480,-4.0,-6.0,-10.0,11.0,4.0,-2.0,-2.0,5.0,1651068264384642.0,1
481,-7.0,2.0,4.0,-10.0,1.0,1.0,-2.0,-5.0,1651068264384642.0,1
482,-2.0,1.0,4.0,4.0,-3.0,-5.0,-12.0,-16.0,1651068264393104.0,1
483,11.0,6.0,6.0,2.0,1.0,3.0,18.0,23.0,1651068264393104.0,1
484,-2.0,3.0,6.0,0.0,-3.0,-2.0,-1.0,-22.0,1651068264407704.0,1
485,-8.0,-6.0,2.0,9.0,11.0,3.0,-2.0,0.0,1651068264407704.0,1
486,6.0,-1.0,-6.0,-3.0,-3.0,0.0,6.0,18.0,1651068264408669.0,1
487,-17.0,-6.0,-2.0,-3.0,-7.0,-5.0,-7.0,2.0,1651068264408669.0,1
488,35.0,7.0,-2.0,4.0,9.0,4.0,4.0,2.0,1651068264429831.0,1
489,-8.0,5.0,11.0,4.0,5.0,7.0,-7.0,-15.0,1651068264429831.0,1
490,-2.0,7.0,6.0,-16.0,-13.0,-6.0,-2.0,-10.0,1651068264430831.0,1
491,-2.0,-11.0,-20.0,7.0,8.0,5.0,-1.0,0.0,1651068264430831.0,1
492,6.0,6.0,12.0,5.0,-5.0,-4.0,7.0,23.0,1651068264444679.0,1
493,-4.0,-2.0,-9.0,-6.0,-6.0,-4.0,-2.0,-10.0,1651068264444679.0,1
494,7.0,3.0,2.0,-4.0,-3.0,-3.0,-4.0,0.0,1651068264452757.0,1
495,0.0,4.0,12.0,2.0,0.0,0.0,8.0,3.0,1651068264452757.0,1
496,-21.0,-9.0,-22.0,-16.0,-3.0,-1.0,-6.0,-33.0,1651068264467738.0,1
497,18.0,2.0,1.0,10.0,0.0,-2.0,3.0,39.0,1651068264467738.0,1
498,-5.0,3.0,9.0,4.0,1.0,0.0,3.0,-5.0,1651068264468688.0,1
499,-2.0,-5.0,-11.0,-4.0,3.0,0.0,-6.0,-12.0,1651068264468688.0,1
500,-6.0,-3.0,4.0,-2.0,-2.0,-1.0,-6.0,-4.0,1651068264490583.0,1
501,2.0,1.0,-1.0,1.0,-3.0,2.0,11.0,9.0,1651068264490583.0,1
502,-6.0,-4.0,-3.0,1.0,0.0,-3.0,0.0,-9.0,1651068264490583.0,1
503,5.0,-3.0,-2.0,8.0,-1.0,0.0,-4.0,3.0,1651068264490583.0,1
504,3.0,11.0,13.0,4.0,0.0,-2.0,-1.0,3.0,1651068264512593.0,1
505,-10.0,-3.0,3.0,-10.0,-10.0,-7.0,-3.0,-12.0,1651068264512593.0,1
506,-1.0,-3.0,-9.0,-2.0,-2.0,-1.0,0.0,14.0,1651068264520518.0,1
507,3.0,0.0,4.0,2.0,9.0,0.0,-3.0,-13.0,1651068264520518.0,1
508,-10.0,-3.0,4.0,4.0,0.0,-2.0,-1.0,13.0,1651068264527569.0,1
509,-5.0,-1.0,-4.0,-5.0,-1.0,3.0,2.0,-24.0,1651068264527569.0,1
510,3.0,-3.0,-5.0,-11.0,-6.0,1.0,-1.0,9.0,1651068264528498.0,1
511,12.0,1.0,-2.0,1.0,-2.0,-3.0,-4.0,18.0,1651068264528498.0,1
512,-4.0,-4.0,0.0,-1.0,-2.0,1.0,5.0,-10.0,1651068264550518.0,1
513,1.0,0.0,-1.0,3.0,3.0,-2.0,0.0,-2.0,1651068264550518.0,1
514,-7.0,-4.0,-6.0,4.0,2.0,-1.0,0.0,-16.0,1651068264550518.0,1
515,3.0,-2.0,-7.0,-9.0,-3.0,4.0,4.0,12.0,1651068264550518.0,1
516,1.0,-1.0,4.0,1.0,-2.0,0.0,-7.0,-1.0,1651068264573749.0,1
517,-3.0,1.0,5.0,2.0,-2.0,-5.0,-5.0,-5.0,1651068264573749.0,1
518,1.0,-5.0,-20.0,-4.0,4.0,-2.0,-2.0,-5.0,1651068264573749.0,1
519,-2.0,5.0,9.0,-5.0,-6.0,-5.0,-1.0,4.0,1651068264573749.0,1
520,-2.0,1.0,1.0,5.0,7.0,6.0,3.0,-7.0,1651068264587704.0,1
521,-1.0,-4.0,-3.0,1.0,-2.0,-2.0,-2.0,14.0,1651068264587704.0,1
522,-1.0,4.0,11.0,4.0,-1.0,-2.0,-2.0,-2.0,1651068264588639.0,1
523,-3.0,-3.0,-12.0,-4.0,-1.0,-5.0,-4.0,-8.0,1651068264588639.0,1
524,1.0,1.0,5.0,-5.0,-5.0,-4.0,-4.0,1.0,1651068264610580.0,1
525,1.0,0.0,3.0,4.0,4.0,1.0,1.0,-4.0,1651068264610580.0,1
526,2.0,2.0,3.0,6.0,1.0,4.0,7.0,6.0,1651068264610580.0,1
527,-6.0,-4.0,-4.0,1.0,1.0,1.0,-5.0,-10.0,1651068264610580.0,1
528,4.0,3.0,3.0,-5.0,-6.0,-5.0,2.0,-1.0,1651068264633670.0,1
529,2.0,1.0,-2.0,1.0,0.0,1.0,8.0,10.0,1651068264633670.0,1
530,0.0,0.0,1.0,3.0,-1.0,-3.0,-4.0,1.0,1651068264633670.0,1
531,-1.0,0.0,4.0,2.0,4.0,6.0,13.0,2.0,1651068264633670.0,1
532,-3.0,-1.0,-2.0,0.0,2.0,1.0,-2.0,-4.0,1651068264647634.0,1
533,-2.0,-4.0,-7.0,-6.0,-4.0,-2.0,-7.0,-5.0,1651068264647634.0,1
534,0.0,0.0,2.0,3.0,0.0,0.0,0.0,1.0,1651068264648644.0,1
535,-3.0,-2.0,-2.0,-3.0,-3.0,-3.0,-4.0,-5.0,1651068264648644.0,1
536,1.0,-1.0,2.0,-1.0,1.0,4.0,2.0,6.0,1651068264669818.0,1
537,-1.0,2.0,6.0,3.0,2.0,1.0,1.0,-2.0,1651068264669818.0,1
538,-5.0,-4.0,-7.0,-8.0,-7.0,-5.0,-2.0,-5.0,1651068264670728.0,1
539,0.0,-3.0,4.0,1.0,2.0,-1.0,-2.0,1.0,1651068264670728.0,1
540,2.0,1.0,-15.0,-4.0,-2.0,1.0,4.0,4.0,1651068264693668.0,1
541,-2.0,-1.0,-6.0,-5.0,-3.0,-2.0,-10.0,-7.0,1651068264693668.0,1
542,-1.0,2.0,4.0,2.0,3.0,3.0,9.0,1.0,1651068264693668.0,1
543,1.0,-2.0,-9.0,-2.0,4.0,3.0,1.0,1.0,1651068264693668.0,1
544,-1.0,-1.0,11.0,-1.0,-5.0,-6.0,-4.0,0.0,1651068264707681.0,1
545,-3.0,-1.0,-4.0,3.0,3.0,2.0,2.0,-2.0,1651068264707681.0,1
546,1.0,1.0,2.0,-5.0,-5.0,1.0,-2.0,-1.0,1651068264708624.0,1
547,1.0,0.0,-7.0,0.0,-2.0,0.0,0.0,1.0,1651068264708624.0,1
548,-3.0,-2.0,-2.0,3.0,1.0,-1.0,-2.0,-3.0,1651068264729776.0,1
549,1.0,-1.0,-3.0,1.0,0.0,-2.0,-3.0,-2.0,1651068264729776.0,1
550,0.0,-2.0,3.0,2.0,3.0,1.0,0.0,0.0,1651068264730709.0,1
551,0.0,2.0,-1.0,-2.0,-8.0,-4.0,-2.0,-1.0,1651068264730709.0,1
552,0.0,0.0,-2.0,-3.0,1.0,0.0,2.0,-1.0,1651068264753799.0,1
553,0.0,0.0,6.0,5.0,0.0,-2.0,2.0,1.0,1651068264753799.0,1
554,0.0,0.0,-1.0,10.0,8.0,3.0,-4.0,-1.0,1651068264753799.0,1
555,-2.0,-2.0,4.0,-13.0,-12.0,-7.0,-2.0,1.0,1651068264753799.0,1
556,-3.0,0.0,-1.0,2.0,-2.0,1.0,-2.0,-1.0,1651068264767829.0,1
557,1.0,-2.0,-7.0,-4.0,-2.0,-1.0,-3.0,0.0,1651068264767829.0,1
558,-1.0,0.0,2.0,3.0,5.0,3.0,4.0,0.0,1651068264768759.0,1
559,1.0,1.0,-3.0,13.0,9.0,4.0,1.0,-4.0,1651068264768759.0,1
560,1.0,-3.0,-10.0,-25.0,-12.0,-8.0,-5.0,3.0,1651068264790644.0,1
561,-3.0,0.0,-6.0,-5.0,-1.0,1.0,4.0,-1.0,1651068264790644.0,1
562,1.0,0.0,-3.0,4.0,-1.0,2.0,7.0,3.0,1651068264790644.0,1
563,-1.0,-1.0,-3.0,1.0,-1.0,-3.0,-4.0,-2.0,1651068264790644.0,1
564,0.0,2.0,12.0,24.0,9.0,3.0,2.0,-1.0,1651068264813601.0,1
565,1.0,1.0,5.0,-15.0,-5.0,1.0,-2.0,-3.0,1651068264813601.0,1
566,0.0,0.0,9.0,14.0,1.0,1.0,-7.0,-5.0,1651068264813601.0,1
567,-4.0,-5.0,-7.0,-43.0,-13.0,-3.0,6.0,3.0,1651068264813601.0,1
568,-1.0,-2.0,-1.0,9.0,2.0,0.0,0.0,-3.0,1651068264827565.0,1
569,-3.0,-5.0,-22.0,-5.0,-6.0,-2.0,-3.0,0.0,1651068264827565.0,1
570,0.0,5.0,36.0,-6.0,-5.0,-4.0,-2.0,-1.0,1651068264828495.0,1
571,-2.0,-1.0,-12.0,35.0,25.0,7.0,-1.0,-1.0,1651068264828495.0,1
572,0.0,-2.0,-7.0,-21.0,-7.0,1.0,0.0,0.0,1651068264849745.0,1
573,-1.0,0.0,-5.0,-12.0,2.0,2.0,1.0,-2.0,1651068264849745.0,1
574,-1.0,-3.0,-8.0,0.0,-8.0,-7.0,-3.0,-1.0,1651068264850688.0,1
575,1.0,2.0,8.0,-2.0,0.0,-3.0,-3.0,-1.0,1651068264850688.0,1
576,-2.0,-3.0,1.0,7.0,1.0,2.0,3.0,1.0,1651068264873717.0,1
577,-1.0,2.0,6.0,3.0,0.0,2.0,0.0,1.0,1651068264873717.0,1
578,-1.0,-2.0,-12.0,-3.0,-7.0,-5.0,-3.0,-2.0,1651068264873854.0,1
579,2.0,4.0,13.0,17.0,2.0,2.0,1.0,2.0,1651068264873854.0,1
580,0.0,0.0,5.0,4.0,7.0,-1.0,0.0,0.0,1651068264887886.0,1
581,3.0,0.0,-11.0,-7.0,-3.0,0.0,0.0,1.0,1651068264887886.0,1
582,-6.0,-6.0,-4.0,2.0,2.0,-2.0,-4.0,-4.0,1651068264888829.0,1
583,-1.0,-4.0,-17.0,-23.0,-13.0,-5.0,-3.0,-2.0,1651068264888829.0,1
584,0.0,7.0,19.0,10.0,4.0,3.0,7.0,3.0,1651068264910603.0,1
585,0.0,-2.0,-9.0,-14.0,-8.0,-6.0,-2.0,-4.0,1651068264910603.0,1
586,-9.0,1.0,-9.0,-2.0,7.0,3.0,-1.0,1.0,1651068264910603.0,1
587,6.0,-2.0,2.0,23.0,4.0,3.0,8.0,6.0,1651068264910603.0,1
588,-1.0,-3.0,-10.0,-5.0,-1.0,-1.0,-3.0,-2.0,1651068264933698.0,1
589,-1.0,2.0,30.0,8.0,3.0,-2.0,-1.0,0.0,1651068264933698.0,1
590,2.0,2.0,-13.0,-4.0,-4.0,-3.0,-3.0,-2.0,1651068264933698.0,1
591,-4.0,0.0,0.0,-11.0,-14.0,-6.0,-5.0,-4.0,1651068264933698.0,1
592,3.0,-1.0,-3.0,7.0,7.0,3.0,0.0,-1.0,1651068264947523.0,1
593,-2.0,-4.0,-1.0,3.0,1.0,1.0,0.0,0.0,1651068264947523.0,1
594,0.0,-1.0,-17.0,-22.0,-4.0,2.0,2.0,1.0,1651068264948525.0,1
595,-1.0,0.0,4.0,1.0,2.0,-1.0,0.0,-1.0,1651068264948525.0,1
596,2.0,1.0,1.0,-1.0,-3.0,0.0,-2.0,1.0,1651068264970623.0,1
597,0.0,2.0,-9.0,8.0,-2.0,-1.0,-1.0,1.0,1651068264970623.0,1
598,2.0,2.0,16.0,-3.0,-5.0,-3.0,1.0,1.0,1651068264970623.0,1
599,-2.0,-3.0,-5.0,0.0,0.0,2.0,0.0,0.0,1651068264970623.0,1
600,-2.0,-3.0,-7.0,-4.0,-4.0,-1.0,-2.0,-2.0,1651068264993700.0,1
601,-1.0,-4.0,2.0,11.0,4.0,1.0,-1.0,-1.0,1651068264993700.0,1
602,0.0,0.0,6.0,-2.0,-1.0,-1.0,0.0,0.0,1651068264993700.0,1
603,1.0,2.0,1.0,1.0,6.0,2.0,-2.0,-1.0,1651068264993700.0,1
604,-1.0,-1.0,2.0,-8.0,-8.0,-4.0,0.0,1.0,1651068265007663.0,1
605,-1.0,-4.0,5.0,3.0,-1.0,-1.0,-1.0,-2.0,1651068265007663.0,1
606,2.0,-1.0,-11.0,-6.0,-2.0,-3.0,1.0,0.0,1651068265008593.0,1
607,0.0,-2.0,-9.0,-2.0,1.0,-1.0,-1.0,0.0,1651068265008593.0,1
608,0.0,3.0,11.0,4.0,0.0,0.0,0.0,1.0,1651068265029692.0,1
609,0.0,4.0,9.0,1.0,0.0,-2.0,-1.0,1.0,1651068265029692.0,1
610,0.0,-2.0,-8.0,2.0,1.0,3.0,-1.0,-2.0,1651068265030622.0,1
611,-2.0,1.0,5.0,3.0,-2.0,-1.0,-1.0,0.0,1651068265030622.0,1
612,-2.0,-3.0,-12.0,-4.0,-1.0,-4.0,0.0,0.0,1651068265053736.0,1
613,-1.0,-2.0,2.0,-2.0,-3.0,-2.0,0.0,0.0,1651068265053736.0,1
614,0.0,2.0,2.0,7.0,3.0,4.0,4.0,-1.0,1651068265053736.0,1
615,-1.0,0.0,7.0,0.0,-1.0,0.0,-2.0,-1.0,1651068265053736.0,1
616,0.0,-3.0,-18.0,-8.0,-4.0,-2.0,-3.0,0.0,1651068265067746.0,1
617,1.0,2.0,11.0,8.0,0.0,-1.0,1.0,-1.0,1651068265067746.0,1
618,1.0,-2.0,6.0,3.0,-1.0,-3.0,-1.0,-2.0,1651068265068702.0,1
619,-1.0,-2.0,-26.0,-14.0,-3.0,-2.0,1.0,0.0,1651068265068702.0,1
620,0.0,0.0,16.0,5.0,3.0,2.0,-1.0,0.0,1651068265090620.0,1
621,1.0,-1.0,-10.0,1.0,-1.0,-2.0,-1.0,0.0,1651068265090620.0,1
622,0.0,-2.0,4.0,-2.0,-3.0,0.0,0.0,-1.0,1651068265090620.0,1
623,0.0,1.0,-9.0,-1.0,-4.0,-4.0,-3.0,-3.0,1651068265090620.0,1
624,1.0,3.0,27.0,7.0,1.0,1.0,-2.0,-3.0,1651068265113607.0,1
625,0.0,-2.0,-8.0,-4.0,-2.0,-3.0,0.0,1.0,1651068265113607.0,1
626,1.0,0.0,-1.0,5.0,11.0,16.0,4.0,3.0,1651068265114538.0,1
627,0.0,0.0,28.0,5.0,2.0,3.0,1.0,-1.0,1651068265114538.0,1
628,0.0,-3.0,-29.0,-11.0,-5.0,-4.0,-2.0,-2.0,1651068265126507.0,1
629,1.0,2.0,-1.0,2.0,-3.0,0.0,2.0,-2.0,1651068265126507.0,1
630,-2.0,-2.0,6.0,-7.0,-9.0,-7.0,-3.0,-2.0,1651068265135574.0,1
631,-1.0,-4.0,-16.0,0.0,-7.0,-8.0,-4.0,-2.0,1651068265135574.0,1
632,1.0,1.0,3.0,5.0,12.0,12.0,5.0,0.0,1651068265150554.0,1
633,-1.0,0.0,-6.0,-2.0,4.0,0.0,0.0,0.0,1651068265150554.0,1
634,-2.0,-1.0,-4.0,-3.0,-3.0,-5.0,-2.0,0.0,1651068265150554.0,1
635,-1.0,-1.0,9.0,-1.0,-9.0,1.0,1.0,0.0,1651068265150554.0,1
636,-2.0,-2.0,-10.0,-6.0,-7.0,-8.0,-4.0,-1.0,1651068265173693.0,1
637,-1.0,3.0,17.0,7.0,5.0,5.0,-1.0,-1.0,1651068265173693.0,1
638,-1.0,-3.0,-16.0,-3.0,-2.0,-2.0,1.0,0.0,1651068265174493.0,1
639,1.0,1.0,7.0,1.0,3.0,-1.0,-2.0,-1.0,1651068265174493.0,1
640,0.0,-2.0,3.0,2.0,-2.0,2.0,1.0,2.0,1651068265187473.0,1
641,-1.0,-4.0,-6.0,-2.0,-3.0,-1.0,1.0,-1.0,1651068265187473.0,1
642,0.0,2.0,10.0,5.0,-1.0,-5.0,-2.0,1.0,1651068265195506.0,1
643,-1.0,-1.0,-10.0,-4.0,3.0,6.0,3.0,1.0,1651068265195506.0,1
644,-1.0,1.0,-2.0,3.0,3.0,0.0,0.0,-1.0,1651068265210466.0,1
645,0.0,0.0,-5.0,-2.0,2.0,-1.0,0.0,-1.0,1651068265210466.0,1
646,-1.0,-3.0,-2.0,2.0,-3.0,1.0,-1.0,-1.0,1651068265210466.0,1
647,-1.0,-1.0,6.0,2.0,5.0,-3.0,-1.0,-1.0,1651068265210466.0,1
648,0.0,0.0,-5.0,-4.0,-4.0,3.0,-1.0,-1.0,1651068265233418.0,1
649,-2.0,0.0,4.0,1.0,1.0,3.0,-1.0,-1.0,1651068265233418.0,1
650,1.0,-1.0,-4.0,-5.0,-1.0,-1.0,0.0,-1.0,1651068265240469.0,1
651,2.0,2.0,5.0,0.0,-7.0,-4.0,-2.0,-1.0,1651068265240469.0,1
652,-1.0,-2.0,-2.0,1.0,9.0,1.0,0.0,0.0,1651068265247392.0,1
653,-2.0,0.0,-3.0,-1.0,-4.0,-3.0,-1.0,-2.0,1651068265247392.0,1
654,0.0,0.0,-2.0,-1.0,3.0,3.0,1.0,0.0,1651068265255542.0,1
655,0.0,-2.0,-7.0,-3.0,-5.0,-1.0,-1.0,1.0,1651068265255542.0,1
656,-1.0,1.0,4.0,4.0,-6.0,-7.0,-3.0,-1.0,1651068265270621.0,1
657,0.0,-1.0,-16.0,-7.0,4.0,4.0,5.0,0.0,1651068265270621.0,1
658,0.0,-2.0,-2.0,-4.0,-7.0,-5.0,0.0,0.0,1651068265270621.0,1
659,0.0,1.0,12.0,4.0,5.0,4.0,1.0,0.0,1651068265270621.0,1
660,1.0,-1.0,-1.0,-1.0,-6.0,-4.0,1.0,-2.0,1651068265293603.0,1
661,-1.0,-2.0,-2.0,-1.0,1.0,-1.0,-2.0,0.0,1651068265293603.0,1
662,-2.0,3.0,15.0,6.0,-2.0,0.0,-1.0,-1.0,1651068265293603.0,1
663,-2.0,-2.0,-12.0,-2.0,7.0,3.0,0.0,-1.0,1651068265293603.0,1
664,0.0,-1.0,1.0,-1.0,-1.0,2.0,1.0,1.0,1651068265306637.0,1
665,0.0,1.0,1.0,0.0,-5.0,-4.0,-1.0,-2.0,1651068265306637.0,1
666,0.0,0.0,-4.0,-4.0,2.0,-1.0,-1.0,0.0,1651068265315546.0,1
667,-1.0,1.0,6.0,1.0,-3.0,-4.0,-2.0,1.0,1651068265315546.0,1
668,-2.0,-3.0,-3.0,-4.0,-1.0,-1.0,-3.0,-3.0,1651068265330539.0,1
669,0.0,0.0,4.0,2.0,0.0,-3.0,-3.0,0.0,1651068265330539.0,1
670,-1.0,-1.0,-4.0,-4.0,1.0,0.0,2.0,1.0,1651068265330539.0,1
671,-1.0,-1.0,-2.0,-4.0,-5.0,-2.0,1.0,0.0,1651068265330539.0,1
672,0.0,-2.0,1.0,-7.0,3.0,2.0,-1.0,-1.0,1651068265353560.0,1
673,0.0,-1.0,4.0,5.0,-2.0,1.0,-1.0,-2.0,1651068265353560.0,1
674,0.0,0.0,6.0,5.0,5.0,-2.0,1.0,-2.0,1651068265354511.0,1
675,-1.0,0.0,-8.0,-6.0,-1.0,2.0,0.0,-2.0,1651068265354511.0,1
676,-3.0,0.0,2.0,0.0,-7.0,-6.0,-2.0,-2.0,1651068265367471.0,1
677,-1.0,0.0,-5.0,-6.0,-7.0,1.0,-3.0,-1.0,1651068265367471.0,1
678,0.0,0.0,-2.0,2.0,7.0,3.0,-3.0,1.0,1651068265375519.0,1
679,2.0,-1.0,-2.0,-1.0,0.0,-1.0,-1.0,-1.0,1651068265375519.0,1
680,-2.0,-2.0,-2.0,-1.0,-2.0,-1.0,0.0,1.0,1651068265390628.0,1
681,-2.0,-1.0,5.0,0.0,2.0,-2.0,-1.0,1.0,1651068265390628.0,1
682,0.0,-2.0,-14.0,-3.0,-3.0,0.0,-1.0,-1.0,1651068265390628.0,1
683,-1.0,0.0,-12.0,-5.0,-1.0,-3.0,-1.0,-1.0,1651068265390628.0,1
684,0.0,2.0,1.0,-3.0,0.0,0.0,0.0,-1.0,1651068265413747.0,1
685,-1.0,-1.0,6.0,4.0,-4.0,-3.0,3.0,0.0,1651068265413747.0,1
686,0.0,-2.0,2.0,-1.0,-2.0,-1.0,2.0,0.0,1651068265413747.0,1
687,-1.0,0.0,6.0,2.0,-1.0,-1.0,0.0,-2.0,1651068265413747.0,1
688,1.0,0.0,-1.0,1.0,-3.0,1.0,2.0,-1.0,1651068265435467.0,1
689,-1.0,-2.0,-8.0,-5.0,-1.0,-1.0,-1.0,0.0,1651068265435467.0,1
690,0.0,0.0,1.0,-2.0,-3.0,-3.0,-1.0,-2.0,1651068265436465.0,1
691,1.0,1.0,2.0,1.0,0.0,0.0,-4.0,-1.0,1651068265436465.0,1
692,-2.0,-1.0,-5.0,0.0,1.0,0.0,-3.0,0.0,1651068265450494.0,1
693,-1.0,-1.0,1.0,-1.0,-2.0,1.0,-1.0,-1.0,1651068265450494.0,1
694,-1.0,-1.0,-3.0,-2.0,-1.0,1.0,-2.0,-1.0,1651068265450494.0,1
695,-1.0,0.0,2.0,1.0,-1.0,-2.0,2.0,1.0,1651068265450494.0,1
696,1.0,-1.0,0.0,-1.0,-2.0,-1.0,0.0,0.0,1651068265473666.0,1
697,-1.0,1.0,-2.0,1.0,1.0,-1.0,0.0,-2.0,1651068265473666.0,1
698,-2.0,-3.0,-1.0,-4.0,-12.0,-5.0,-3.0,0.0,1651068265474437.0,1
699,0.0,0.0,-4.0,5.0,19.0,10.0,3.0,-1.0,1651068265474437.0,1
700,1.0,2.0,6.0,6.0,6.0,4.0,3.0,1.0,1651068265495697.0,1
701,2.0,2.0,1.0,-1.0,2.0,0.0,-3.0,1.0,1651068265495697.0,1
702,0.0,1.0,-2.0,-2.0,-3.0,-2.0,-1.0,2.0,1651068265496678.0,1
703,-1.0,-2.0,6.0,1.0,-8.0,-3.0,-3.0,1.0,1651068265496678.0,1
704,-1.0,-2.0,-7.0,-3.0,-1.0,-1.0,0.0,-2.0,1651068265509704.0,1
705,0.0,-1.0,-3.0,-2.0,0.0,2.0,0.0,-1.0,1651068265509704.0,1
706,0.0,1.0,3.0,2.0,0.0,-1.0,-1.0,-1.0,1651068265510637.0,1
707,0.0,0.0,-2.0,-2.0,-5.0,-3.0,0.0,0.0,1651068265510637.0,1
708,0.0,-1.0,-1.0,-1.0,-1.0,-3.0,1.0,0.0,1651068265533694.0,1
709,-2.0,-1.0,0.0,0.0,-3.0,-5.0,-2.0,-1.0,1651068265533694.0,1
710,-2.0,-2.0,0.0,-3.0,-1.0,2.0,0.0,-2.0,1651068265533694.0,1
711,1.0,-1.0,-13.0,1.0,-1.0,5.0,1.0,0.0,1651068265533694.0,1
712,-1.0,1.0,18.0,3.0,5.0,0.0,-3.0,0.0,1651068265555773.0,1
713,0.0,0.0,-2.0,0.0,0.0,0.0,1.0,1.0,1651068265555773.0,1
714,-1.0,1.0,3.0,1.0,1.0,-2.0,0.0,0.0,1651068265556704.0,1
715,-1.0,-3.0,-9.0,-3.0,-3.0,-3.0,0.0,0.0,1651068265556704.0,1
716,-1.0,-1.0,-3.0,-3.0,-5.0,-4.0,-1.0,-3.0,1651068265569734.0,1
717,-1.0,-1.0,-4.0,-1.0,0.0,0.0,-1.0,1.0,1651068265569734.0,1
718,2.0,-1.0,3.0,5.0,6.0,4.0,1.0,1.0,1651068265570667.0,1
719,0.0,-1.0,3.0,-2.0,-4.0,-1.0,1.0,-1.0,1651068265570667.0,0
720,0.0,0.0,-7.0,-2.0,-2.0,-2.0,-3.0,-1.0,1651068265593353.0,0
721,-1.0,-2.0,2.0,-1.0,-2.0,1.0,2.0,-1.0,1651068265593353.0,0
722,-1.0,-3.0,-7.0,-2.0,-1.0,-2.0,-2.0,-2.0,1651068265594329.0,0
723,-1.0,-1.0,7.0,-1.0,-3.0,-3.0,-2.0,1.0,1651068265594329.0,0
724,1.0,-3.0,-9.0,-5.0,-7.0,-5.0,0.0,-1.0,1651068265615921.0,0
725,0.0,3.0,10.0,8.0,10.0,4.0,0.0,-1.0,1651068265615921.0,0
726,2.0,-1.0,-7.0,-2.0,0.0,-1.0,-1.0,1.0,1651068265616940.0,0
727,0.0,0.0,4.0,3.0,2.0,2.0,1.0,1.0,1651068265616940.0,0
728,0.0,-1.0,1.0,-1.0,-4.0,-2.0,-1.0,-3.0,1651068265630581.0,0
729,-2.0,-2.0,0.0,-3.0,-2.0,2.0,-1.0,0.0,1651068265630581.0,0
730,-2.0,2.0,0.0,0.0,-2.0,0.0,-1.0,0.0,1651068265630581.0,0
731,0.0,0.0,3.0,1.0,3.0,0.0,-3.0,0.0,1651068265630581.0,0
732,0.0,0.0,-2.0,0.0,-1.0,2.0,-1.0,1.0,1651068265653666.0,0
733,-1.0,-1.0,-4.0,-3.0,-2.0,-1.0,-1.0,-1.0,1651068265653666.0,0
734,-3.0,-3.0,-11.0,-5.0,-12.0,-10.0,-2.0,-3.0,1651068265654434.0,0
735,-2.0,2.0,9.0,5.0,13.0,13.0,4.0,-1.0,1651068265654434.0,0
736,-2.0,-1.0,-3.0,1.0,0.0,-1.0,1.0,1.0,1651068265675572.0,0
737,1.0,-2.0,-3.0,1.0,-5.0,-6.0,-2.0,-1.0,1651068265675572.0,0
738,1.0,-1.0,-3.0,-2.0,6.0,3.0,0.0,0.0,1651068265676504.0,0
739,-1.0,0.0,-1.0,-5.0,-10.0,-9.0,-3.0,-1.0,1651068265676504.0,0
740,0.0,0.0,0.0,0.0,1.0,2.0,-1.0,0.0,1651068265690521.0,0
741,0.0,-1.0,-3.0,-3.0,0.0,-1.0,-1.0,1.0,1651068265690521.0,0
742,1.0,1.0,9.0,5.0,-2.0,-2.0,-2.0,0.0,1651068265690521.0,0
743,-2.0,-3.0,-15.0,-6.0,-4.0,-4.0,-2.0,0.0,1651068265690521.0,0
744,-1.0,0.0,-2.0,0.0,7.0,4.0,0.0,1.0,1651068265713721.0,0
745,0.0,-2.0,-1.0,0.0,-3.0,-2.0,2.0,0.0,1651068265713721.0,0
746,1.0,2.0,5.0,-2.0,-1.0,0.0,0.0,0.0,1651068265713721.0,0
747,-1.0,-3.0,-3.0,1.0,2.0,0.0,1.0,1.0,1651068265713721.0,0
748,0.0,0.0,-3.0,-3.0,-3.0,-3.0,0.0,0.0,1651068265735700.0,0
749,-1.0,-2.0,-4.0,-4.0,-3.0,-2.0,-2.0,-1.0,1651068265735700.0,0
750,0.0,0.0,3.0,3.0,1.0,-1.0,0.0,-3.0,1651068265736671.0,0
751,-1.0,0.0,7.0,-1.0,1.0,5.0,3.0,0.0,1651068265736671.0,0
752,-2.0,-3.0,-12.0,-5.0,-4.0,-2.0,-2.0,-1.0,1651068265749703.0,0
753,-2.0,0.0,6.0,1.0,-1.0,2.0,1.0,0.0,1651068265749703.0,0
754,-1.0,2.0,2.0,5.0,8.0,4.0,2.0,0.0,1651068265750637.0,0
755,-1.0,0.0,0.0,-2.0,-11.0,-9.0,-2.0,-1.0,1651068265750637.0,0
756,1.0,2.0,-6.0,1.0,10.0,7.0,1.0,1.0,1651068265773691.0,0
757,-1.0,0.0,2.0,0.0,-3.0,-1.0,0.0,-1.0,1651068265773691.0,0
758,-2.0,-2.0,-6.0,-4.0,-3.0,-4.0,-2.0,1.0,1651068265773844.0,0
759,-1.0,2.0,2.0,0.0,2.0,-3.0,-1.0,0.0,1651068265773844.0,0
760,-1.0,0.0,10.0,7.0,0.0,1.0,0.0,-1.0,1651068265796007.0,0
761,2.0,-2.0,-8.0,-3.0,-1.0,-1.0,-1.0,0.0,1651068265796007.0,0
762,0.0,-1.0,0.0,-1.0,-1.0,2.0,-1.0,-1.0,1651068265796937.0,0
763,0.0,-2.0,1.0,-1.0,-2.0,-3.0,-2.0,-2.0,1651068265796937.0,0
764,0.0,1.0,5.0,3.0,-2.0,-7.0,-2.0,-1.0,1651068265810295.0,0
765,0.0,0.0,2.0,2.0,3.0,5.0,1.0,1.0,1651068265810295.0,0
766,-2.0,0.0,-6.0,-3.0,-1.0,0.0,-1.0,-1.0,1651068265811295.0,0
767,-1.0,1.0,5.0,2.0,0.0,1.0,3.0,0.0,1651068265811295.0,0
768,-1.0,-2.0,3.0,-3.0,-8.0,-7.0,-2.0,-3.0,1651068265833378.0,0
769,-1.0,-3.0,-11.0,-4.0,-5.0,-4.0,-4.0,-2.0,1651068265833378.0,0
770,2.0,0.0,0.0,0.0,0.0,3.0,3.0,2.0,1651068265834376.0,0
771,0.0,0.0,-1.0,3.0,1.0,0.0,-1.0,0.0,1651068265834376.0,0
772,1.0,3.0,1.0,0.0,-2.0,0.0,0.0,-1.0,1651068265855880.0,0
773,-2.0,1.0,-1.0,1.0,1.0,-4.0,0.0,0.0,1651068265855880.0,0
774,-3.0,-1.0,9.0,2.0,1.0,1.0,-1.0,1.0,1651068265856810.0,0
775,1.0,-2.0,-22.0,-9.0,-1.0,0.0,-2.0,-1.0,1651068265856810.0,0
776,-2.0,-1.0,-1.0,-2.0,-3.0,1.0,0.0,1.0,1651068265869787.0,0
777,0.0,0.0,4.0,0.0,-2.0,2.0,0.0,-1.0,1651068265869787.0,0
778,0.0,0.0,-2.0,0.0,2.0,-2.0,0.0,-1.0,1651068265870772.0,0
779,-1.0,0.0,6.0,1.0,0.0,1.0,-1.0,0.0,1651068265870772.0,0
780,0.0,-1.0,-1.0,0.0,-2.0,-3.0,-2.0,0.0,1651068265893740.0,0
781,1.0,0.0,-3.0,-3.0,1.0,2.0,0.0,-1.0,1651068265893740.0,0
782,0.0,-1.0,-2.0,0.0,-1.0,0.0,1.0,-1.0,1651068265893740.0,0
783,-2.0,-1.0,3.0,1.0,-3.0,0.0,0.0,-1.0,1651068265893740.0,0
784,0.0,-2.0,-2.0,2.0,2.0,2.0,0.0,0.0,1651068265915438.0,0
785,0.0,-2.0,2.0,-1.0,-3.0,-1.0,1.0,0.0,1651068265915438.0,0
786,0.0,1.0,-3.0,-1.0,4.0,1.0,-1.0,-2.0,1651068265916369.0,0
787,-1.0,0.0,-3.0,0.0,-3.0,-4.0,0.0,0.0,1651068265916369.0,0
788,-1.0,-1.0,8.0,1.0,2.0,0.0,0.0,-1.0,1651068265930398.0,0
789,0.0,3.0,-4.0,1.0,-3.0,-1.0,0.0,-2.0,1651068265930398.0,0
790,-1.0,0.0,10.0,6.0,7.0,1.0,-1.0,0.0,1651068265931330.0,0
791,0.0,-1.0,-7.0,-4.0,-1.0,0.0,-3.0,-1.0,1651068265931330.0,0
792,-1.0,-1.0,0.0,-2.0,-3.0,-1.0,-1.0,-1.0,1651068265953691.0,0
793,-1.0,-2.0,-1.0,-1.0,4.0,1.0,2.0,1.0,1651068265953691.0,0
794,1.0,0.0,-2.0,-2.0,-5.0,2.0,0.0,-1.0,1651068265954476.0,0
795,2.0,1.0,4.0,3.0,3.0,3.0,2.0,-1.0,1651068265954476.0,0
796,1.0,1.0,0.0,0.0,-2.0,-1.0,2.0,-1.0,1651068265975529.0,0
797,1.0,0.0,4.0,0.0,0.0,-3.0,0.0,-4.0,1651068265975529.0,0
798,0.0,-1.0,-4.0,-4.0,-4.0,-5.0,0.0,0.0,1651068265976524.0,0
799,0.0,-1.0,5.0,3.0,7.0,3.0,0.0,-2.0,1651068265976524.0,0
800,-3.0,-2.0,-6.0,-2.0,-1.0,1.0,-3.0,-2.0,1651068265990542.0,0
801,-1.0,1.0,2.0,0.0,-2.0,-1.0,-1.0,-2.0,1651068265990542.0,0
802,-1.0,-1.0,-9.0,-3.0,-4.0,-3.0,-2.0,0.0,1651068265990542.0,0
803,0.0,2.0,9.0,4.0,7.0,10.0,1.0,0.0,1651068265990542.0,0
804,1.0,-1.0,0.0,0.0,-2.0,-1.0,0.0,-1.0,1651068266013690.0,0
805,-2.0,-2.0,-1.0,1.0,5.0,-1.0,0.0,-2.0,1651068266013690.0,0
806,-1.0,-3.0,-3.0,-1.0,-5.0,-3.0,1.0,0.0,1651068266014536.0,0
807,-1.0,-1.0,-1.0,-1.0,-8.0,-4.0,-2.0,1.0,1651068266014536.0,0
808,0.0,-1.0,-2.0,-2.0,1.0,1.0,0.0,0.0,1651068266035611.0,0
809,0.0,-1.0,-9.0,-3.0,-3.0,6.0,3.0,1.0,1651068266035611.0,0
810,-1.0,2.0,-1.0,-1.0,4.0,3.0,-1.0,-1.0,1651068266036542.0,0
811,1.0,0.0,3.0,1.0,-5.0,-5.0,-1.0,0.0,1651068266036542.0,0
812,0.0,-2.0,-8.0,-2.0,0.0,-3.0,-1.0,-2.0,1651068266049533.0,0
813,-2.0,-2.0,0.0,0.0,-2.0,-3.0,-3.0,-1.0,1651068266049533.0,0
814,1.0,0.0,2.0,-1.0,0.0,0.0,-1.0,1.0,1651068266057552.0,0
815,-2.0,-1.0,-2.0,-3.0,1.0,-1.0,0.0,-2.0,1651068266057552.0,0
816,0.0,0.0,6.0,1.0,0.0,1.0,1.0,0.0,1651068266073745.0,0
817,-1.0,-1.0,-2.0,-1.0,1.0,-1.0,0.0,-2.0,1651068266073745.0,0
818,-1.0,-1.0,-1.0,-1.0,-9.0,-4.0,-1.0,-1.0,1651068266073745.0,0
819,1.0,-1.0,1.0,0.0,0.0,0.0,0.0,0.0,1651068266073745.0,0
820,0.0,1.0,-3.0,-1.0,-2.0,-2.0,2.0,1.0,1651068266095565.0,0
821,-2.0,-2.0,-6.0,-1.0,-3.0,-5.0,-3.0,0.0,1651068266095565.0,0
822,-1.0,-2.0,2.0,-1.0,7.0,8.0,0.0,1.0,1651068266096496.0,0
823,-2.0,-1.0,1.0,0.0,-4.0,-4.0,0.0,1.0,1651068266096496.0,0
824,-1.0,-1.0,-2.0,-2.0,0.0,2.0,-1.0,-1.0,1651068266109572.0,0
825,1.0,0.0,-3.0,1.0,1.0,-2.0,-2.0,-1.0,1651068266109572.0,0
826,1.0,-1.0,-2.0,0.0,-1.0,-6.0,-2.0,-2.0,1651068266117528.0,0
827,-1.0,-3.0,-4.0,-3.0,-1.0,-1.0,1.0,0.0,1651068266117528.0,0
828,0.0,1.0,0.0,0.0,4.0,2.0,0.0,0.0,1651068266133699.0,0
829,-1.0,1.0,7.0,4.0,-2.0,-3.0,0.0,1.0,1651068266133699.0,0
830,-2.0,0.0,-3.0,0.0,4.0,2.0,-1.0,-1.0,1651068266133699.0,0
831,0.0,1.0,1.0,-2.0,-4.0,-2.0,-3.0,0.0,1651068266133699.0,0
832,1.0,-3.0,-4.0,-1.0,-8.0,-4.0,-4.0,0.0,1651068266155710.0,0
833,1.0,0.0,0.0,0.0,8.0,1.0,0.0,1.0,1651068266155710.0,0
834,0.0,-1.0,-3.0,-1.0,-4.0,5.0,5.0,-1.0,1651068266156639.0,0
835,-2.0,-2.0,-4.0,-1.0,4.0,3.0,0.0,-1.0,1651068266156639.0,0
836,-1.0,0.0,1.0,-3.0,-3.0,0.0,-1.0,0.0,1651068266169807.0,0
837,-3.0,1.0,2.0,-2.0,-6.0,-4.0,-3.0,-1.0,1651068266169807.0,0
838,1.0,1.0,-4.0,-3.0,-4.0,-2.0,-3.0,-1.0,1651068266177800.0,0
839,-1.0,-1.0,4.0,0.0,-2.0,-2.0,0.0,1.0,1651068266177800.0,0
840,-2.0,-1.0,-3.0,0.0,0.0,0.0,0.0,-1.0,1651068266193787.0,0
841,0.0,-1.0,-3.0,-5.0,-6.0,1.0,2.0,0.0,1651068266193787.0,0
842,-1.0,0.0,2.0,0.0,7.0,0.0,-1.0,-1.0,1651068266193787.0,0
843,-1.0,4.0,12.0,5.0,-3.0,-3.0,-2.0,-3.0,1651068266193787.0,0
844,1.0,0.0,-2.0,0.0,2.0,-1.0,-1.0,1.0,1651068266215675.0,0
845,1.0,-1.0,-2.0,2.0,5.0,7.0,0.0,0.0,1651068266215675.0,0
846,-2.0,0.0,0.0,2.0,-2.0,1.0,1.0,0.0,1651068266216604.0,0
847,1.0,-2.0,-3.0,-1.0,-4.0,-3.0,-1.0,0.0,1651068266216604.0,0
848,-1.0,-1.0,3.0,0.0,0.0,0.0,-1.0,-1.0,1651068266229689.0,0
849,-3.0,-2.0,-6.0,-7.0,-2.0,-6.0,-3.0,-2.0,1651068266229689.0,0
850,0.0,-1.0,1.0,2.0,1.0,-1.0,1.0,0.0,1651068266237670.0,0
851,-1.0,-2.0,-6.0,1.0,3.0,3.0,1.0,0.0,1651068266237670.0,0
852,-3.0,0.0,3.0,-5.0,-13.0,-10.0,-3.0,-3.0,1651068266252761.0,0
853,-1.0,-1.0,-2.0,2.0,11.0,11.0,2.0,-1.0,1651068266252761.0,0
854,-2.0,-2.0,2.0,-3.0,-13.0,-7.0,-1.0,-2.0,1651068266253762.0,0
855,1.0,1.0,-5.0,-2.0,2.0,-3.0,-1.0,0.0,1651068266253762.0,0
856,-1.0,-1.0,-4.0,-2.0,-6.0,-4.0,0.0,0.0,1651068266275595.0,0
857,0.0,1.0,9.0,4.0,5.0,-3.0,-1.0,0.0,1651068266275595.0,0
858,-2.0,-1.0,-2.0,-3.0,-3.0,-2.0,-3.0,-3.0,1651068266276525.0,0
859,-1.0,0.0,-1.0,-2.0,-10.0,-6.0,-2.0,-1.0,1651068266276525.0,0
860,1.0,-1.0,7.0,8.0,9.0,4.0,2.0,0.0,1651068266289558.0,0
861,0.0,1.0,-7.0,-1.0,-4.0,-4.0,0.0,1.0,1651068266289558.0,0
862,-1.0,-1.0,1.0,-4.0,-8.0,-6.0,-1.0,2.0,1651068266297538.0,0
863,0.0,1.0,-6.0,3.0,29.0,16.0,2.0,-1.0,1651068266297538.0,0
864,-4.0,-2.0,2.0,-3.0,-9.0,-10.0,-5.0,-5.0,1651068266313513.0,0
865,1.0,1.0,9.0,9.0,10.0,15.0,5.0,1.0,1651068266313513.0,0
866,2.0,2.0,0.0,-1.0,-5.0,-2.0,1.0,1.0,1651068266314471.0,0
867,-4.0,-6.0,-6.0,-4.0,-1.0,-3.0,0.0,-3.0,1651068266314471.0,0
868,1.0,0.0,-6.0,0.0,10.0,8.0,5.0,1.0,1651068266335605.0,0
869,-2.0,-4.0,-3.0,-3.0,-6.0,-9.0,-4.0,-2.0,1651068266335605.0,0
870,-2.0,-1.0,0.0,1.0,0.0,0.0,-3.0,1.0,1651068266336602.0,0
871,1.0,1.0,1.0,-3.0,-13.0,-5.0,-2.0,0.0,1651068266336602.0,0
872,0.0,-1.0,-4.0,1.0,6.0,5.0,-1.0,-1.0,1651068266349859.0,0
873,0.0,-1.0,2.0,-4.0,-10.0,0.0,0.0,0.0,1651068266349859.0,0
874,-1.0,-2.0,-3.0,-1.0,4.0,1.0,1.0,0.0,1651068266357627.0,0
875,-1.0,0.0,1.0,0.0,-5.0,-6.0,-2.0,-3.0,1651068266357627.0,0
876,1.0,0.0,-4.0,2.0,5.0,9.0,2.0,0.0,1651068266373661.0,0
877,1.0,1.0,1.0,-1.0,1.0,0.0,-2.0,0.0,1651068266373661.0,0
878,-2.0,2.0,0.0,3.0,9.0,3.0,-1.0,0.0,1651068266373661.0,0
879,-1.0,-1.0,-2.0,-4.0,-5.0,0.0,1.0,2.0,1651068266373661.0,0
880,-1.0,-1.0,1.0,3.0,-1.0,-4.0,2.0,3.0,1651068266395757.0,0
881,-1.0,0.0,0.0,-2.0,-1.0,3.0,1.0,-1.0,1651068266395757.0,0
882,1.0,-2.0,-3.0,-2.0,4.0,-1.0,-1.0,1.0,1651068266396790.0,0
883,-3.0,-2.0,-3.0,-5.0,-10.0,-5.0,-4.0,-2.0,1651068266396790.0,0
884,-1.0,-2.0,0.0,-3.0,-13.0,-10.0,-4.0,0.0,1651068266418069.0,0
885,0.0,-2.0,-3.0,-1.0,1.0,0.0,0.0,0.0,1651068266418069.0,0
886,1.0,-2.0,-2.0,-1.0,-1.0,1.0,2.0,-2.0,1651068266419032.0,0
887,0.0,1.0,5.0,2.0,0.0,-1.0,1.0,0.0,1651068266419032.0,0
888,-1.0,-1.0,-5.0,-2.0,0.0,1.0,0.0,-2.0,1651068266433088.0,0
889,-2.0,1.0,5.0,3.0,-3.0,-6.0,-2.0,-1.0,1651068266433088.0,0
890,-1.0,-3.0,-17.0,-8.0,-8.0,-5.0,-3.0,-1.0,1651068266434025.0,0
891,0.0,1.0,2.0,3.0,8.0,4.0,0.0,1.0,1651068266434025.0,0
892,0.0,0.0,-1.0,1.0,-2.0,1.0,-2.0,-1.0,1651068266455618.0,0
893,1.0,-1.0,-4.0,1.0,16.0,11.0,3.0,2.0,1651068266455618.0,0
894,1.0,3.0,9.0,2.0,-1.0,3.0,1.0,0.0,1651068266456557.0,0
895,-2.0,-3.0,-2.0,-2.0,-7.0,-5.0,-1.0,-1.0,1651068266456557.0,0
896,-2.0,-1.0,-2.0,-10.0,-17.0,-19.0,-10.0,-4.0,1651068266478546.0,0
897,-1.0,1.0,5.0,6.0,4.0,12.0,3.0,1.0,1651068266478546.0,0
898,0.0,-1.0,3.0,4.0,12.0,2.0,-1.0,-2.0,1651068266478546.0,0
899,1.0,0.0,-1.0,-4.0,-5.0,-5.0,1.0,1.0,1651068266478546.0,0
900,0.0,0.0,2.0,4.0,7.0,9.0,2.0,-1.0,1651068266492575.0,0
901,0.0,-2.0,0.0,-5.0,-15.0,-12.0,-5.0,-1.0,1651068266492575.0,0
902,-1.0,-1.0,2.0,-1.0,-1.0,1.0,-1.0,1.0,1651068266493526.0,0
903,1.0,0.0,2.0,-2.0,0.0,-2.0,0.0,-1.0,1651068266493526.0,0
904,0.0,0.0,3.0,-1.0,4.0,1.0,2.0,2.0,1651068266515595.0,0
905,-1.0,-2.0,0.0,-2.0,-6.0,-7.0,-2.0,-2.0,1651068266515595.0,0
906,-2.0,-1.0,-4.0,-1.0,-1.0,3.0,1.0,-1.0,1651068266516525.0,0
907,0.0,0.0,-3.0,-1.0,1.0,-2.0,-3.0,0.0,1651068266516525.0,0
908,0.0,0.0,-1.0,1.0,2.0,3.0,0.0,-1.0,1651068266538702.0,0
909,-4.0,-4.0,-8.0,-4.0,-2.0,-4.0,-3.0,-2.0,1651068266538702.0,0
910,-3.0,-3.0,-3.0,-1.0,-3.0,-6.0,0.0,-1.0,1651068266538702.0,0
911,0.0,0.0,0.0,-2.0,-10.0,-2.0,0.0,0.0,1651068266538702.0,0
912,-1.0,2.0,2.0,3.0,12.0,10.0,3.0,-1.0,1651068266552734.0,0
913,1.0,-1.0,-2.0,0.0,9.0,-6.0,-1.0,0.0,1651068266552734.0,0
914,-1.0,-1.0,2.0,-1.0,-5.0,-4.0,-4.0,-2.0,1651068266553665.0,0
915,0.0,1.0,1.0,-3.0,-8.0,4.0,2.0,0.0,1651068266553665.0,0
916,-2.0,-4.0,-6.0,-1.0,10.0,-3.0,0.0,-1.0,1651068266575825.0,0
917,2.0,3.0,1.0,1.0,-1.0,-5.0,0.0,1.0,1651068266575825.0,0
918,0.0,0.0,1.0,2.0,-6.0,-5.0,-3.0,-2.0,1651068266576754.0,0
919,-1.0,-1.0,1.0,1.0,3.0,2.0,-1.0,0.0,1651068266576754.0,0
920,-2.0,0.0,-1.0,-5.0,-13.0,-2.0,3.0,1.0,1651068266598714.0,0
921,0.0,-1.0,-4.0,-2.0,-5.0,-6.0,-2.0,-1.0,1651068266598714.0,0
922,1.0,2.0,5.0,-2.0,-2.0,-2.0,1.0,0.0,1651068266598714.0,0
923,2.0,4.0,4.0,5.0,8.0,5.0,0.0,1.0,1651068266598714.0,0
924,-1.0,-2.0,-5.0,-2.0,5.0,2.0,0.0,-2.0,1651068266612718.0,0
925,-2.0,-3.0,-3.0,-3.0,-10.0,-5.0,0.0,0.0,1651068266612718.0,0
926,0.0,1.0,1.0,-1.0,3.0,4.0,1.0,3.0,1651068266613718.0,0
927,0.0,1.0,2.0,4.0,3.0,-2.0,0.0,-4.0,1651068266613718.0,0
928,1.0,-2.0,-4.0,5.0,12.0,3.0,1.0,2.0,1651068266635568.0,0
929,5.0,9.0,16.0,-5.0,-14.0,-1.0,-3.0,4.0,1651068266635568.0,0
930,-2.0,-5.0,-8.0,-3.0,1.0,1.0,-3.0,-2.0,1651068266636535.0,0
931,0.0,-1.0,2.0,1.0,1.0,-2.0,-1.0,0.0,1651068266636535.0,0
932,-1.0,-2.0,1.0,6.0,8.0,11.0,4.0,1.0,1651068266658514.0,0
933,-5.0,-8.0,-11.0,-8.0,-24.0,-17.0,-4.0,-5.0,1651068266658514.0,0
934,3.0,1.0,5.0,7.0,23.0,11.0,4.0,2.0,1651068266659471.0,0
935,-2.0,2.0,8.0,-4.0,-11.0,-15.0,-9.0,-6.0,1651068266659471.0,0
936,2.0,0.0,0.0,4.0,-3.0,1.0,-1.0,2.0,1651068266672438.0,0
937,0.0,2.0,-4.0,-8.0,-7.0,4.0,2.0,1.0,1651068266672438.0,0
938,-8.0,-16.0,-31.0,0.0,10.0,-4.0,-3.0,-5.0,1651068266680482.0,0
939,-2.0,-6.0,-16.0,-13.0,-11.0,-6.0,-3.0,1.0,1651068266680482.0,0
940,3.0,7.0,15.0,-3.0,-7.0,-3.0,2.0,2.0,1651068266695579.0,2
941,-3.0,-5.0,-8.0,8.0,17.0,8.0,0.0,-2.0,1651068266695579.0,2
942,1.0,6.0,13.0,1.0,-9.0,-8.0,-3.0,-1.0,1651068266697602.0,2
943,-1.0,1.0,6.0,4.0,5.0,1.0,-1.0,-2.0,1651068266697602.0,2
944,-2.0,-3.0,-4.0,-4.0,-5.0,-4.0,-2.0,0.0,1651068266718646.0,2
945,0.0,1.0,2.0,1.0,4.0,4.0,3.0,1.0,1651068266718646.0,2
946,1.0,0.0,1.0,-4.0,-6.0,0.0,2.0,-2.0,1651068266719725.0,2
947,-1.0,-5.0,-11.0,4.0,8.0,3.0,1.0,2.0,1651068266719725.0,2
948,-2.0,2.0,0.0,-7.0,-11.0,-2.0,-1.0,-2.0,1651068266740776.0,2
949,-2.0,0.0,0.0,2.0,9.0,4.0,2.0,-2.0,1651068266740776.0,2
950,0.0,1.0,6.0,4.0,-2.0,1.0,2.0,-2.0,1651068266742730.0,2
951,1.0,-5.0,-12.0,-2.0,0.0,-1.0,-4.0,2.0,1651068266742730.0,2
952,-1.0,4.0,9.0,-4.0,-11.0,-11.0,-9.0,-5.0,1651068266755734.0,2
953,1.0,0.0,-2.0,1.0,0.0,-1.0,-3.0,-2.0,1651068266755734.0,2
954,-2.0,5.0,10.0,2.0,-5.0,-1.0,-11.0,-3.0,1651068266757662.0,2
955,-1.0,-4.0,-5.0,2.0,8.0,10.0,21.0,9.0,1651068266757662.0,2
956,-1.0,-5.0,-9.0,1.0,-1.0,0.0,1.0,1.0,1651068266778591.0,2
957,-2.0,-1.0,0.0,-2.0,-3.0,-1.0,1.0,-1.0,1651068266778591.0,2
958,0.0,1.0,3.0,-1.0,-4.0,-2.0,1.0,1.0,1651068266779522.0,2
959,-2.0,2.0,5.0,-1.0,1.0,2.0,-5.0,-4.0,1651068266779522.0,2
960,-1.0,-2.0,-6.0,-4.0,0.0,0.0,-2.0,-2.0,1651068266791490.0,2
961,0.0,2.0,6.0,5.0,4.0,-1.0,-6.0,-1.0,1651068266791490.0,2
962,2.0,0.0,-4.0,-4.0,-5.0,0.0,2.0,5.0,1651068266800533.0,2
963,-1.0,-2.0,-4.0,1.0,3.0,2.0,1.0,-1.0,1651068266800533.0,2
964,0.0,-2.0,-2.0,-2.0,-2.0,0.0,4.0,0.0,1651068266823504.0,2
965,-4.0,2.0,2.0,-2.0,-2.0,0.0,-7.0,-6.0,1651068266823504.0,2
966,1.0,-1.0,-4.0,-1.0,0.0,1.0,5.0,6.0,1651068266824475.0,2
967,1.0,-1.0,2.0,2.0,0.0,-4.0,-1.0,-5.0,1651068266824475.0,2
968,-3.0,-3.0,-2.0,0.0,0.0,-1.0,-2.0,-2.0,1651068266838507.0,2
969,1.0,-4.0,-5.0,1.0,6.0,5.0,11.0,4.0,1651068266838507.0,2
970,-5.0,-2.0,-4.0,-5.0,-5.0,-1.0,-7.0,-6.0,1651068266839438.0,2
971,1.0,2.0,3.0,-3.0,-3.0,1.0,9.0,5.0,1651068266839438.0,2
972,-3.0,0.0,0.0,3.0,3.0,-5.0,-5.0,-5.0,1651068266851485.0,2
973,-2.0,0.0,-2.0,-1.0,-3.0,1.0,1.0,0.0,1651068266851485.0,2
974,-1.0,-2.0,-3.0,1.0,-1.0,-1.0,-5.0,-1.0,1651068266860554.0,2
975,1.0,0.0,5.0,0.0,-3.0,-3.0,-7.0,-5.0,1651068266860554.0,2
976,0.0,0.0,1.0,0.0,0.0,-2.0,-4.0,-4.0,1651068266875735.0,2
977,1.0,-2.0,2.0,1.0,-4.0,-5.0,-2.0,1.0,1651068266875735.0,2
978,-1.0,-1.0,2.0,-2.0,0.0,3.0,5.0,0.0,1651068266877689.0,2
979,-3.0,0.0,-2.0,-2.0,-2.0,1.0,-4.0,-2.0,1651068266877689.0,2
980,2.0,1.0,2.0,1.0,2.0,5.0,6.0,5.0,1651068266897676.0,2
981,-2.0,-4.0,-6.0,1.0,0.0,0.0,3.0,3.0,1651068266897676.0,2
982,0.0,2.0,2.0,-3.0,-6.0,-8.0,-5.0,1.0,1651068266904658.0,2
983,2.0,2.0,4.0,3.0,1.0,1.0,-1.0,3.0,1651068266904658.0,2
984,0.0,-4.0,-7.0,2.0,6.0,3.0,-1.0,-3.0,1651068266911685.0,2
985,0.0,4.0,5.0,-3.0,-5.0,-4.0,-6.0,-7.0,1651068266911685.0,2
986,-2.0,-2.0,-2.0,1.0,0.0,0.0,4.0,1.0,1651068266920672.0,2
987,-1.0,0.0,2.0,-3.0,-1.0,-2.0,-8.0,-5.0,1651068266920672.0,2
988,2.0,-1.0,1.0,-2.0,1.0,2.0,7.0,6.0,1651068266935673.0,2
989,1.0,-4.0,-8.0,0.0,0.0,-1.0,7.0,3.0,1651068266935673.0,2
990,-2.0,0.0,-2.0,1.0,4.0,5.0,4.0,-4.0,1651068266937695.0,2
991,-3.0,1.0,2.0,-1.0,-2.0,-7.0,-12.0,-6.0,1651068266937695.0,2
992,-1.0,-1.0,-1.0,-1.0,3.0,5.0,16.0,12.0,1651068266958766.0,2
993,1.0,-2.0,0.0,0.0,0.0,1.0,-4.0,-3.0,1651068266958766.0,2
994,2.0,1.0,1.0,0.0,1.0,3.0,10.0,5.0,1651068266959764.0,2
995,-3.0,-4.0,-13.0,-2.0,-3.0,-1.0,-3.0,-1.0,1651068266959764.0,2
996,1.0,8.0,31.0,6.0,-5.0,-4.0,-3.0,-4.0,1651068266971913.0,2
997,0.0,1.0,-13.0,-16.0,-6.0,-7.0,-14.0,-4.0,1651068266971913.0,2
998,1.0,-1.0,2.0,7.0,4.0,7.0,2.0,1.0,1651068266980941.0,2
999,-2.0,1.0,0.0,-2.0,-1.0,1.0,3.0,-1.0,1651068266980941.0,2
1000,1.0,-1.0,-2.0,2.0,-2.0,-3.0,0.0,1.0,1651068266995669.0,2
1001,1.0,1.0,6.0,3.0,0.0,-2.0,3.0,4.0,1651068266995669.0,2
1002,-1.0,-3.0,-5.0,0.0,-4.0,-5.0,-7.0,-6.0,1651068266997624.0,2
1003,-1.0,-1.0,-3.0,-3.0,-8.0,-2.0,4.0,0.0,1651068266997624.0,2
1004,-2.0,1.0,-5.0,1.0,5.0,-3.0,-5.0,-4.0,1651068267017632.0,2
1005,-2.0,-2.0,1.0,3.0,11.0,8.0,2.0,1.0,1651068267017632.0,2
1006,-3.0,1.0,-3.0,1.0,0.0,-4.0,-6.0,-3.0,1651068267025544.0,2
1007,2.0,-2.0,-4.0,-3.0,-5.0,1.0,6.0,4.0,1651068267025544.0,2
1008,-1.0,-4.0,-4.0,-4.0,-2.0,-5.0,-7.0,-2.0,1651068267031596.0,2
1009,-2.0,0.0,17.0,5.0,1.0,1.0,-1.0,-1.0,1651068267031596.0,2
1010,4.0,2.0,-15.0,-9.0,-2.0,2.0,5.0,4.0,1651068267040543.0,2
1011,-1.0,-2.0,0.0,10.0,10.0,4.0,1.0,1.0,1651068267040543.0,2
1012,0.0,-2.0,-11.0,-6.0,-4.0,-4.0,-3.0,-2.0,1651068267055801.0,2
1013,-3.0,-1.0,2.0,-2.0,-8.0,-9.0,-5.0,-5.0,1651068267055801.0,2
1014,-1.0,-1.0,-1.0,-1.0,3.0,3.0,1.0,2.0,1651068267057755.0,2
1015,-3.0,0.0,5.0,-3.0,0.0,-1.0,-4.0,-2.0,1651068267057755.0,2
1016,-4.0,-2.0,-5.0,-1.0,0.0,2.0,-10.0,-12.0,1651068267078756.0,2
1017,4.0,1.0,3.0,0.0,0.0,2.0,6.0,8.0,1651068267078756.0,2
1018,1.0,2.0,2.0,2.0,-6.0,-8.0,-3.0,-5.0,1651068267079714.0,2
1019,0.0,-2.0,-6.0,1.0,9.0,6.0,8.0,5.0,1651068267079714.0,2
1020,-3.0,-3.0,-6.0,-1.0,-1.0,2.0,-3.0,0.0,1651068267091732.0,2
1021,0.0,0.0,-3.0,0.0,-2.0,-3.0,-2.0,0.0,1651068267091732.0,2
1022,0.0,3.0,5.0,-3.0,-10.0,-4.0,-4.0,-5.0,1651068267100693.0,2
1023,1.0,0.0,1.0,2.0,11.0,3.0,-2.0,-2.0,1651068267100693.0,2
1024,2.0,1.0,1.0,-1.0,2.0,1.0,3.0,3.0,1651068267115800.0,2
1025,0.0,-3.0,-5.0,1.0,-10.0,-3.0,0.0,1.0,1651068267115800.0,2
1026,0.0,1.0,2.0,-1.0,8.0,-7.0,-2.0,1.0,1651068267117755.0,2
1027,0.0,1.0,-2.0,1.0,5.0,13.0,4.0,-1.0,1651068267117755.0,2
1028,1.0,0.0,7.0,3.0,1.0,2.0,2.0,3.0,1651068267138684.0,2
1029,0.0,0.0,-3.0,-1.0,-5.0,-1.0,-2.0,-5.0,1651068267138684.0,2
1030,-1.0,-3.0,-3.0,5.0,3.0,3.0,1.0,0.0,1651068267139654.0,2
1031,0.0,3.0,2.0,-5.0,-6.0,-6.0,-1.0,-2.0,1651068267139654.0,2
1032,-1.0,-2.0,-6.0,-7.0,-6.0,-2.0,-1.0,-3.0,1651068267151625.0,2
1033,-2.0,-2.0,1.0,2.0,7.0,2.0,-3.0,-1.0,1651068267151625.0,2
1034,-1.0,-3.0,0.0,2.0,2.0,2.0,-2.0,-3.0,1651068267160565.0,2
1035,0.0,0.0,0.0,3.0,2.0,-2.0,-3.0,-3.0,1651068267160565.0,2
1036,0.0,-3.0,-4.0,-1.0,1.0,1.0,9.0,10.0,1651068267175667.0,2
1037,-1.0,3.0,3.0,-1.0,-4.0,-2.0,-2.0,-3.0,1651068267175667.0,2
1038,-1.0,4.0,9.0,-1.0,-3.0,-4.0,-6.0,-1.0,1651068267181651.0,2
1039,0.0,-7.0,-12.0,0.0,0.0,1.0,16.0,8.0,1651068267181651.0,2
1040,0.0,0.0,1.0,-1.0,-3.0,-6.0,-6.0,-4.0,1651068267198718.0,2
1041,-1.0,-1.0,-7.0,1.0,7.0,9.0,7.0,0.0,1651068267198718.0,2
1042,-1.0,-5.0,-1.0,-3.0,-2.0,-1.0,1.0,-2.0,1651068267199650.0,2
1043,-1.0,0.0,-5.0,-2.0,-7.0,-3.0,4.0,3.0,1651068267199650.0,2
1044,0.0,4.0,8.0,4.0,-1.0,-6.0,-17.0,-6.0,1651068267211813.0,2
1045,1.0,3.0,6.0,-1.0,-4.0,-4.0,3.0,-3.0,1651068267211813.0,2
1046,0.0,2.0,6.0,-2.0,-1.0,1.0,5.0,4.0,1651068267220734.0,2
1047,-1.0,-8.0,-9.0,-1.0,3.0,1.0,-7.0,-2.0,1651068267220734.0,2
1048,0.0,2.0,-1.0,3.0,9.0,4.0,3.0,-2.0,1651068267235797.0,2
1049,-2.0,0.0,6.0,1.0,2.0,1.0,-3.0,-3.0,1651068267235797.0,2
1050,-1.0,-2.0,-5.0,-1.0,-5.0,1.0,-1.0,-2.0,1651068267237796.0,2
1051,0.0,1.0,8.0,-1.0,-13.0,-8.0,-3.0,-3.0,1651068267237796.0,2
1052,-1.0,0.0,-4.0,-2.0,7.0,3.0,-1.0,0.0,1651068267258758.0,2
1053,2.0,-3.0,-4.0,5.0,7.0,5.0,2.0,3.0,1651068267258758.0,2
1054,2.0,2.0,5.0,-3.0,-2.0,-3.0,0.0,-1.0,1651068267259728.0,2
1055,0.0,2.0,0.0,-2.0,-3.0,-3.0,-5.0,-2.0,1651068267259728.0,2
1056,-2.0,-4.0,-5.0,-2.0,-11.0,-6.0,0.0,-2.0,1651068267272406.0,2
1057,0.0,-1.0,-2.0,2.0,5.0,5.0,5.0,0.0,1651068267272406.0,2
1058,-2.0,-4.0,-7.0,-7.0,-7.0,0.0,3.0,3.0,1651068267280746.0,2
1059,0.0,1.0,4.0,8.0,7.0,3.0,-4.0,-3.0,1651068267280746.0,2
1060,-1.0,-1.0,8.0,5.0,1.0,3.0,4.0,4.0,1651068267295773.0,2
1061,-1.0,0.0,0.0,-6.0,-9.0,-6.0,-6.0,-2.0,1651068267295773.0,2
1062,1.0,-3.0,-9.0,2.0,4.0,-1.0,-2.0,2.0,1651068267297731.0,2
1063,0.0,2.0,5.0,0.0,-2.0,1.0,1.0,-3.0,1651068267297731.0,2
1064,-1.0,-3.0,-4.0,-3.0,-1.0,-5.0,5.0,2.0,1651068267318760.0,2
1065,-1.0,-4.0,-9.0,-4.0,0.0,-4.0,-11.0,-5.0,1651068267318760.0,2
1066,4.0,4.0,13.0,6.0,-2.0,0.0,9.0,8.0,1651068267319730.0,2
1067,-1.0,0.0,-13.0,-7.0,-4.0,-2.0,5.0,2.0,1651068267319730.0,2
1068,2.0,3.0,2.0,4.0,2.0,0.0,6.0,1.0,1651068267340943.0,2
1069,0.0,-3.0,-4.0,-3.0,-3.0,-4.0,-4.0,-1.0,1651068267340943.0,2
1070,-2.0,-4.0,-4.0,2.0,5.0,0.0,2.0,-2.0,1651068267341871.0,2
1071,0.0,5.0,4.0,-2.0,-6.0,-3.0,-2.0,1.0,1651068267341871.0,2
1072,-2.0,-1.0,-1.0,-6.0,-4.0,2.0,-3.0,-1.0,1651068267355678.0,2
1073,-1.0,-1.0,-3.0,3.0,-1.0,-2.0,0.0,1.0,1651068267355678.0,2
1074,-1.0,0.0,-1.0,0.0,1.0,0.0,-5.0,-5.0,1651068267357604.0,2
1075,1.0,-1.0,3.0,-1.0,1.0,-2.0,-1.0,0.0,1651068267357604.0,2
1076,-3.0,-2.0,-5.0,-1.0,-4.0,-1.0,-6.0,-5.0,1651068267378741.0,2
1077,1.0,4.0,2.0,1.0,7.0,13.0,9.0,3.0,1651068267378741.0,2
1078,0.0,-3.0,-4.0,0.0,0.0,-1.0,2.0,0.0,1651068267379660.0,2
1079,-2.0,-1.0,1.0,-3.0,-3.0,-2.0,0.0,-1.0,1651068267379660.0,2
1080,-1.0,-1.0,-5.0,-5.0,-5.0,-3.0,-4.0,-3.0,1651068267400660.0,2
1081,0.0,0.0,6.0,0.0,-3.0,-4.0,-2.0,3.0,1651068267400660.0,2
1082,-2.0,-2.0,-9.0,-2.0,2.0,3.0,-2.0,1.0,1651068267402589.0,2
1083,-1.0,0.0,4.0,-3.0,-4.0,-5.0,-9.0,-7.0,1651068267402589.0,2
1084,0.0,-2.0,-6.0,0.0,1.0,-1.0,-1.0,0.0,1651068267415621.0,2
1085,-2.0,-4.0,-7.0,-2.0,0.0,-1.0,3.0,-1.0,1651068267415621.0,2
1086,-2.0,0.0,0.0,1.0,-3.0,-1.0,-1.0,1.0,1651068267417549.0,2
1087,0.0,-3.0,-3.0,-3.0,-5.0,-5.0,-2.0,2.0,1651068267417549.0,2
1088,1.0,1.0,2.0,0.0,-1.0,-1.0,1.0,-2.0,1651068267438689.0,2
1089,0.0,3.0,3.0,-4.0,-4.0,-5.0,-1.0,0.0,1651068267438689.0,2
1090,-1.0,1.0,4.0,0.0,-1.0,-1.0,-3.0,-1.0,1651068267439633.0,2
1091,0.0,-1.0,1.0,3.0,3.0,1.0,-10.0,-3.0,1651068267439633.0,2
1092,-1.0,1.0,-3.0,-3.0,-1.0,3.0,13.0,4.0,1651068267460958.0,2
1093,0.0,-3.0,5.0,3.0,-2.0,-1.0,-2.0,-2.0,1651068267460958.0,2
1094,-3.0,2.0,-11.0,-8.0,-10.0,-4.0,-4.0,-5.0,1651068267461977.0,2
1095,0.0,0.0,2.0,3.0,14.0,4.0,-2.0,1.0,1651068267461977.0,2
1096,0.0,-2.0,-1.0,0.0,-1.0,1.0,-4.0,-1.0,1651068267475989.0,2
1097,-2.0,-1.0,1.0,0.0,-1.0,-4.0,-2.0,-2.0,1651068267475989.0,2
1098,0.0,0.0,1.0,1.0,1.0,1.0,2.0,2.0,1651068267476945.0,2
1099,0.0,-2.0,-2.0,-2.0,-5.0,-3.0,2.0,0.0,1651068267476945.0,2
1100,-1.0,-2.0,-10.0,-3.0,1.0,2.0,-2.0,-1.0,1651068267498790.0,2
1101,-1.0,3.0,10.0,3.0,-2.0,-2.0,0.0,1.0,1651068267498790.0,2
1102,-2.0,0.0,3.0,2.0,3.0,0.0,0.0,-3.0,1651068267499791.0,2
1103,-1.0,0.0,-5.0,-2.0,-5.0,-3.0,0.0,0.0,1651068267499791.0,2
1104,0.0,-1.0,8.0,3.0,3.0,-1.0,-1.0,-2.0,1651068267520571.0,2
1105,0.0,-2.0,-8.0,-4.0,-2.0,-3.0,-5.0,-2.0,1651068267520571.0,2
1106,0.0,-2.0,-1.0,-1.0,-2.0,-1.0,2.0,0.0,1651068267522528.0,2
1107,-1.0,-2.0,2.0,4.0,5.0,5.0,9.0,3.0,1651068267522528.0,2
1108,-3.0,1.0,-1.0,-8.0,-9.0,-7.0,-1.0,1.0,1651068267535641.0,2
1109,-1.0,-2.0,-3.0,-1.0,3.0,4.0,0.0,2.0,1651068267535641.0,2
1110,1.0,0.0,0.0,1.0,2.0,0.0,-1.0,-2.0,1651068267541622.0,2
1111,-1.0,0.0,2.0,1.0,-1.0,0.0,0.0,-1.0,1651068267541622.0,2
1112,-1.0,-3.0,2.0,4.0,4.0,1.0,-4.0,-2.0,1651068267558714.0,2
1113,-1.0,1.0,-7.0,-3.0,-2.0,-2.0,0.0,-1.0,1651068267558714.0,2
1114,0.0,-3.0,-3.0,1.0,3.0,-2.0,-6.0,-4.0,1651068267559662.0,2
1115,0.0,0.0,2.0,1.0,-4.0,-1.0,5.0,0.0,1651068267559662.0,2
1116,1.0,1.0,5.0,-3.0,-6.0,-1.0,-1.0,-1.0,1651068267580313.0,2
1117,0.0,-2.0,-6.0,2.0,1.0,-1.0,1.0,-1.0,1651068267580313.0,2
1118,0.0,2.0,12.0,3.0,4.0,1.0,-4.0,-1.0,1651068267582317.0,2
1119,0.0,0.0,-7.0,-5.0,2.0,0.0,-2.0,1.0,1651068267582317.0,2
1120,-2.0,-4.0,-1.0,1.0,-2.0,0.0,1.0,-1.0,1651068267595076.0,2
1121,0.0,2.0,7.0,-8.0,-1.0,0.0,0.0,0.0,1651068267595076.0,2
1122,0.0,-1.0,-2.0,-1.0,-1.0,-1.0,0.0,1.0,1651068267601991.0,2
1123,2.0,4.0,10.0,3.0,0.0,1.0,-1.0,1.0,1651068267601991.0,2
1124,0.0,0.0,-6.0,0.0,4.0,3.0,1.0,1.0,1651068267618015.0,2
1125,1.0,-2.0,-6.0,-2.0,-2.0,0.0,2.0,2.0,1651068267618015.0,2
1126,-1.0,-3.0,-30.0,-16.0,-6.0,-3.0,0.0,0.0,1651068267619943.0,2
1127,-1.0,6.0,43.0,21.0,10.0,3.0,-2.0,-2.0,1651068267619943.0,2
1128,-1.0,-4.0,-21.0,-12.0,-6.0,-4.0,-1.0,-3.0,1651068267641078.0,2
1129,-2.0,0.0,24.0,10.0,1.0,1.0,-1.0,0.0,1651068267641078.0,2
1130,0.0,-1.0,-19.0,-5.0,2.0,3.0,0.0,-1.0,1651068267642024.0,2
1131,0.0,-4.0,-16.0,-7.0,-1.0,1.0,1.0,1.0,1651068267642024.0,2
1132,-2.0,4.0,17.0,3.0,-1.0,-2.0,-3.0,0.0,1651068267655126.0,2
1133,0.0,-6.0,-9.0,-1.0,-1.0,-1.0,-2.0,-1.0,1651068267655126.0,2
1134,0.0,2.0,3.0,1.0,1.0,-2.0,0.0,2.0,1651068267662222.0,2
1135,0.0,0.0,-7.0,-9.0,-9.0,0.0,-1.0,-1.0,1651068267662222.0,2
1136,-1.0,-1.0,7.0,17.0,16.0,8.0,3.0,-1.0,1651068267678338.0,2
1137,1.0,0.0,-2.0,-4.0,-2.0,2.0,0.0,0.0,1651068267678338.0,2
1138,-2.0,0.0,6.0,6.0,-2.0,-5.0,-2.0,-3.0,1651068267680274.0,2
1139,-2.0,-3.0,-9.0,-3.0,-2.0,-4.0,-4.0,-3.0,1651068267680274.0,2
1140,1.0,-2.0,-11.0,-8.0,-3.0,2.0,2.0,1.0,1651068267700974.0,2
1141,2.0,3.0,12.0,0.0,-7.0,-4.0,1.0,1.0,1651068267700974.0,2
1142,0.0,-2.0,-4.0,2.0,-2.0,1.0,-1.0,0.0,1651068267701912.0,2
1143,-1.0,8.0,34.0,1.0,0.0,-4.0,-3.0,-1.0,1651068267701912.0,2
1144,-3.0,-4.0,-15.0,-11.0,-9.0,-5.0,-4.0,-2.0,1651068267714947.0,2
1145,-2.0,0.0,6.0,-3.0,6.0,1.0,2.0,0.0,1651068267714947.0,2
1146,12.0,6.0,-16.0,-16.0,-7.0,-1.0,0.0,1.0,1651068267723990.0,2
1147,-16.0,-18.0,-11.0,-7.0,0.0,1.0,-1.0,-2.0,1651068267723990.0,2
1148,-2.0,2.0,-1.0,-1.0,1.0,-2.0,-1.0,0.0,1651068267738425.0,2
1149,1.0,1.0,-11.0,4.0,0.0,0.0,-1.0,-1.0,1651068267738425.0,2
1150,-5.0,-3.0,14.0,6.0,4.0,0.0,2.0,1.0,1651068267740355.0,2
1151,4.0,-2.0,-34.0,-4.0,-1.0,-2.0,-2.0,-2.0,1651068267740355.0,2
1152,3.0,8.0,34.0,5.0,-1.0,-1.0,-1.0,0.0,1651068267760431.0,2
1153,0.0,-2.0,-8.0,-1.0,1.0,1.0,0.0,0.0,1651068267760431.0,2
1154,0.0,3.0,-6.0,1.0,-1.0,-1.0,-1.0,-2.0,1651068267762362.0,2
1155,-1.0,6.0,36.0,19.0,5.0,3.0,3.0,-2.0,1651068267762362.0,2
1156,-4.0,-6.0,-11.0,-1.0,-3.0,-2.0,-2.0,-1.0,1651068267774327.0,2
1157,1.0,4.0,-11.0,-8.0,-2.0,-2.0,-3.0,1.0,1651068267774327.0,2
1158,-1.0,-4.0,-1.0,9.0,2.0,2.0,-2.0,-2.0,1651068267783302.0,2
1159,-2.0,-1.0,-10.0,-4.0,2.0,-2.0,0.0,-1.0,1651068267783302.0,2
1160,2.0,-1.0,-24.0,-5.0,-9.0,-1.0,0.0,0.0,1651068267798308.0,2
1161,0.0,4.0,38.0,3.0,-1.0,0.0,-1.0,-1.0,1651068267798308.0,2
1162,-3.0,-7.0,6.0,1.0,0.0,2.0,-1.0,1.0,1651068267800284.0,2
1163,1.0,-2.0,-29.0,-5.0,-2.0,-3.0,-5.0,-1.0,1651068267800284.0,2
1164,3.0,-2.0,-21.0,8.0,6.0,0.0,-1.0,0.0,1651068267820413.0,2
1165,-3.0,3.0,4.0,-6.0,-2.0,-3.0,-2.0,-1.0,1651068267820413.0,2
1166,-4.0,1.0,17.0,-1.0,-1.0,2.0,2.0,1.0,1651068267822411.0,2
1167,3.0,4.0,20.0,5.0,-6.0,-2.0,0.0,1.0,1651068267822411.0,2
1168,1.0,4.0,21.0,4.0,5.0,1.0,1.0,2.0,1651068267834836.0,2
1169,-1.0,-10.0,-24.0,-9.0,6.0,3.0,1.0,0.0,1651068267834836.0,2
1170,-5.0,-2.0,-2.0,5.0,-3.0,-7.0,-3.0,-4.0,1651068267843278.0,2
1171,1.0,4.0,35.0,0.0,-5.0,-3.0,-3.0,1.0,1651068267843278.0,2
1172,1.0,-8.0,-55.0,-3.0,4.0,4.0,2.0,-1.0,1651068267858511.0,2
1173,-1.0,5.0,30.0,-1.0,-8.0,1.0,2.0,1.0,1651068267858511.0,2
1174,0.0,-3.0,1.0,-3.0,12.0,9.0,2.0,1.0,1651068267859442.0,2
1175,-1.0,-3.0,-13.0,1.0,-1.0,-2.0,2.0,0.0,1651068267859442.0,2
1176,-2.0,0.0,4.0,-11.0,-6.0,-4.0,-4.0,-2.0,1651068267880497.0,2
1177,1.0,0.0,-18.0,0.0,-2.0,-3.0,0.0,-1.0,1651068267880497.0,2
1178,0.0,-4.0,-17.0,-4.0,-4.0,1.0,0.0,-1.0,1651068267882494.0,2
1179,1.0,7.0,34.0,8.0,1.0,0.0,-1.0,0.0,1651068267882494.0,2
1180,3.0,3.0,16.0,2.0,4.0,0.0,0.0,1.0,1651068267894528.0,2
1181,-2.0,-4.0,-14.0,4.0,0.0,2.0,0.0,-1.0,1651068267894528.0,2
1182,0.0,3.0,6.0,-3.0,-4.0,-2.0,2.0,0.0,1651068267903441.0,2
1183,1.0,-8.0,-45.0,-10.0,1.0,-1.0,2.0,2.0,1651068267903441.0,2
1184,-2.0,6.0,39.0,2.0,-5.0,-3.0,-4.0,-3.0,1651068267918511.0,2
1185,-2.0,-2.0,-9.0,2.0,-1.0,-1.0,-1.0,-2.0,1651068267918511.0,2
1186,-1.0,-1.0,-8.0,-7.0,0.0,0.0,-2.0,-1.0,1651068267919451.0,2
1187,-1.0,-1.0,-13.0,-4.0,-5.0,-4.0,-3.0,-2.0,1651068267919451.0,2
1188,-1.0,-3.0,-5.0,-7.0,-5.0,-1.0,2.0,0.0,1651068267940788.0,2
1189,0.0,0.0,-9.0,1.0,4.0,0.0,2.0,0.0,1651068267940788.0,2
1190,-1.0,1.0,16.0,0.0,-10.0,-8.0,-2.0,-2.0,1651068267942716.0,2
1191,1.0,-3.0,-5.0,-1.0,14.0,11.0,1.0,1.0,1651068267942716.0,2
1192,-2.0,-1.0,8.0,6.0,4.0,-2.0,-1.0,-1.0,1651068267954751.0,2
1193,-1.0,-2.0,-3.0,1.0,-2.0,-1.0,-3.0,-1.0,1651068267954751.0,2
1194,1.0,3.0,11.0,-2.0,2.0,1.0,-1.0,3.0,1651068267963614.0,2
1195,-1.0,-3.0,-15.0,-7.0,-6.0,-3.0,1.0,2.0,1651068267963614.0,2
1196,0.0,-5.0,-22.0,-6.0,-11.0,-3.0,1.0,-2.0,1651068267978641.0,2
1197,-1.0,5.0,32.0,9.0,16.0,4.0,1.0,0.0,1651068267978641.0,2
1198,-1.0,0.0,11.0,-1.0,-2.0,-3.0,0.0,-2.0,1651068267979571.0,2
1199,0.0,-1.0,-10.0,-2.0,-2.0,-1.0,-3.0,-1.0,1651068267979571.0,2
1200,-4.0,-3.0,19.0,3.0,3.0,1.0,-2.0,-1.0,1651068268000656.0,2
1201,1.0,-3.0,-9.0,-8.0,-15.0,-10.0,-5.0,-2.0,1651068268000656.0,2
1202,-2.0,-2.0,-32.0,-15.0,-12.0,-5.0,-3.0,0.0,1651068268002615.0,2
1203,2.0,1.0,-4.0,3.0,19.0,9.0,4.0,1.0,1651068268002615.0,2
1204,-2.0,1.0,16.0,0.0,-3.0,-4.0,-3.0,-3.0,1651068268015189.0,2
1205,0.0,-4.0,-9.0,1.0,-1.0,1.0,0.0,-1.0,1651068268015189.0,2
1206,2.0,4.0,11.0,6.0,2.0,0.0,2.0,3.0,1651068268023277.0,2
1207,-2.0,-6.0,-18.0,-11.0,-7.0,-3.0,-2.0,-2.0,1651068268023277.0,2
1208,-1.0,-2.0,-6.0,2.0,2.0,0.0,-1.0,0.0,1651068268038668.0,2
1209,-2.0,-1.0,2.0,2.0,-1.0,-7.0,-2.0,0.0,1651068268038668.0,2
1210,3.0,2.0,7.0,4.0,-2.0,-1.0,-1.0,1.0,1651068268039610.0,2
1211,-1.0,2.0,3.0,1.0,-2.0,-1.0,-1.0,-3.0,1651068268039610.0,2
1212,2.0,1.0,-3.0,0.0,4.0,3.0,0.0,2.0,1651068268060608.0,2
1213,0.0,3.0,4.0,-4.0,-3.0,-2.0,-1.0,1.0,1651068268060608.0,2
1214,-1.0,-1.0,33.0,13.0,5.0,2.0,-1.0,-1.0,1651068268062537.0,2
1215,-5.0,-4.0,-45.0,-25.0,-13.0,-7.0,-2.0,-3.0,1651068268062537.0,2
1216,0.0,-1.0,4.0,-2.0,2.0,-3.0,1.0,0.0,1651068268074878.0,2
1217,-1.0,-3.0,-27.0,-3.0,-4.0,1.0,1.0,1.0,1651068268074878.0,2
1218,-1.0,1.0,22.0,10.0,6.0,3.0,0.0,0.0,1651068268083126.0,2
1219,1.0,2.0,17.0,6.0,0.0,1.0,-1.0,0.0,1651068268083126.0,2
1220,1.0,5.0,-1.0,-4.0,0.0,0.0,-1.0,0.0,1651068268098174.0,2
1221,-1.0,-5.0,-21.0,-9.0,-8.0,-6.0,-4.0,0.0,1651068268098174.0,2
1222,-2.0,-2.0,-17.0,2.0,16.0,15.0,5.0,-1.0,1651068268100169.0,2
1223,1.0,3.0,36.0,6.0,-6.0,-6.0,0.0,-1.0,1651068268100169.0,2
1224,0.0,0.0,1.0,0.0,7.0,10.0,3.0,0.0,1651068268121149.0,2
1225,0.0,0.0,10.0,3.0,-1.0,3.0,2.0,-1.0,1651068268121149.0,2
1226,-1.0,-3.0,-4.0,-3.0,-1.0,-9.0,-4.0,-1.0,1651068268122111.0,2
1227,0.0,1.0,19.0,7.0,-3.0,0.0,1.0,-2.0,1651068268122111.0,2
1228,-1.0,-2.0,-15.0,-8.0,-5.0,-2.0,2.0,1.0,1651068268134839.0,2
1229,-1.0,0.0,1.0,1.0,7.0,5.0,1.0,-2.0,1651068268134839.0,2
1230,0.0,-3.0,-10.0,-5.0,-6.0,-4.0,-2.0,-2.0,1651068268143128.0,2
1231,0.0,-1.0,3.0,2.0,-1.0,-4.0,1.0,1.0,1651068268143128.0,2
1232,-2.0,1.0,19.0,8.0,2.0,-2.0,-1.0,-3.0,1651068268158112.0,2
1233,-1.0,0.0,-11.0,-2.0,0.0,0.0,1.0,1.0,1651068268158112.0,2
1234,-2.0,-2.0,-9.0,-6.0,-1.0,-1.0,-2.0,0.0,1651068268160107.0,2
1235,1.0,-1.0,-3.0,1.0,-2.0,0.0,-2.0,-1.0,1651068268160107.0,2
1236,-2.0,2.0,19.0,2.0,-1.0,-3.0,-1.0,-2.0,1651068268180356.0,2
1237,2.0,-2.0,-11.0,-2.0,0.0,2.0,1.0,0.0,1651068268180356.0,2
1238,1.0,0.0,11.0,1.0,-3.0,-2.0,-3.0,-1.0,1651068268182364.0,2
1239,0.0,-1.0,-8.0,-4.0,-1.0,-2.0,-2.0,-1.0,1651068268182364.0,2
1240,1.0,-4.0,-12.0,-3.0,-1.0,0.0,2.0,2.0,1651068268194861.0,2
1241,0.0,0.0,9.0,4.0,2.0,-2.0,0.0,-1.0,1651068268194861.0,2
1242,-2.0,-2.0,-17.0,-9.0,-4.0,-3.0,0.0,-1.0,1651068268203139.0,2
1243,1.0,1.0,-7.0,3.0,3.0,4.0,3.0,1.0,1651068268203139.0,2
1244,-3.0,-2.0,-4.0,-1.0,-2.0,-4.0,-4.0,-1.0,1651068268218207.0,2
1245,0.0,-1.0,-1.0,-3.0,-2.0,2.0,0.0,0.0,1651068268218207.0,2
1246,0.0,0.0,3.0,2.0,-4.0,-2.0,-2.0,-3.0,1651068268220135.0,2
1247,-2.0,0.0,1.0,-2.0,-3.0,-5.0,1.0,0.0,1651068268220135.0,2
1248,1.0,-2.0,-9.0,1.0,-1.0,-1.0,-2.0,-1.0,1651068268240662.0,2
1249,1.0,0.0,11.0,3.0,4.0,1.0,1.0,-1.0,1651068268240662.0,2
1250,-1.0,-1.0,-2.0,-1.0,-7.0,-5.0,-1.0,0.0,1651068268242656.0,2
1251,-3.0,0.0,-1.0,2.0,6.0,0.0,-1.0,-1.0,1651068268242656.0,2
1252,0.0,2.0,12.0,3.0,-5.0,0.0,0.0,0.0,1651068268254696.0,2
1253,0.0,0.0,-10.0,-2.0,0.0,1.0,1.0,-1.0,1651068268254696.0,2
1254,-1.0,-2.0,-19.0,-4.0,0.0,0.0,0.0,0.0,1651068268263714.0,2
1255,-1.0,1.0,9.0,0.0,-2.0,-1.0,-1.0,1.0,1651068268263714.0,2
1256,0.0,1.0,5.0,4.0,0.0,0.0,1.0,-1.0,1651068268278420.0,2
1257,1.0,-1.0,-18.0,-7.0,0.0,-3.0,-2.0,0.0,1651068268278420.0,2
1258,-1.0,-1.0,-6.0,-3.0,-6.0,-5.0,0.0,-1.0,1651068268279378.0,2
1259,1.0,3.0,11.0,10.0,16.0,5.0,2.0,-1.0,1651068268279378.0,2
1260,0.0,-2.0,-14.0,-6.0,3.0,5.0,1.0,-1.0,1651068268300621.0,2
1261,-1.0,1.0,15.0,4.0,-7.0,-5.0,-3.0,-2.0,1651068268300621.0,2
1262,0.0,-2.0,2.0,-1.0,5.0,1.0,-1.0,-2.0,1651068268302578.0,2
1263,-1.0,0.0,-5.0,-5.0,-6.0,-2.0,-1.0,-1.0,1651068268302578.0,2
1264,0.0,-2.0,-5.0,-3.0,-9.0,-7.0,-5.0,0.0,1651068268323339.0,2
1265,-2.0,-2.0,-4.0,-1.0,5.0,1.0,-3.0,0.0,1651068268323339.0,2
1266,1.0,2.0,11.0,5.0,4.0,8.0,4.0,3.0,1651068268325294.0,2
1267,0.0,-3.0,-5.0,-2.0,-3.0,0.0,2.0,-3.0,1651068268325294.0,2
1268,0.0,-1.0,-8.0,-1.0,3.0,1.0,1.0,0.0,1651068268338299.0,2
1269,-1.0,-2.0,6.0,-1.0,-7.0,-8.0,-4.0,0.0,1651068268338299.0,2
1270,-1.0,0.0,0.0,1.0,1.0,0.0,-3.0,1.0,1651068268340255.0,2
1271,-1.0,-1.0,-8.0,-3.0,0.0,3.0,1.0,1.0,1651068268340255.0,2
1272,0.0,-1.0,-15.0,-6.0,-16.0,-9.0,0.0,0.0,1651068268361265.0,2
1273,0.0,-3.0,-18.0,2.0,25.0,16.0,1.0,1.0,1651068268361265.0,2
1274,0.0,3.0,18.0,3.0,2.0,-1.0,-3.0,-1.0,1651068268362277.0,2
1275,-1.0,-1.0,-3.0,-4.0,-4.0,-2.0,-2.0,-2.0,1651068268362277.0,2
1276,1.0,1.0,2.0,0.0,-1.0,2.0,0.0,-1.0,1651068268383566.0,2
1277,1.0,0.0,6.0,0.0,-6.0,-4.0,-1.0,-1.0,1651068268383566.0,2
1278,-1.0,-2.0,-11.0,-3.0,0.0,2.0,-1.0,-1.0,1651068268384528.0,2
1279,-2.0,-2.0,2.0,-1.0,-3.0,-1.0,-1.0,0.0,1651068268384528.0,2
1280,-3.0,0.0,3.0,-1.0,1.0,-2.0,-1.0,-1.0,1651068268398423.0,2
1281,-1.0,0.0,10.0,1.0,-6.0,-6.0,-2.0,-2.0,1651068268398423.0,2
1282,0.0,-2.0,-6.0,2.0,7.0,3.0,2.0,1.0,1651068268399352.0,2
1283,3.0,1.0,7.0,4.0,7.0,11.0,5.0,0.0,1651068268399352.0,2
1284,0.0,-3.0,1.0,0.0,2.0,1.0,-1.0,-1.0,1651068268420463.0,2
1285,-2.0,0.0,2.0,-2.0,-4.0,-2.0,1.0,-1.0,1651068268420463.0,2
1286,-1.0,0.0,-6.0,-3.0,-6.0,-7.0,-2.0,-1.0,1651068268422458.0,2
1287,0.0,0.0,10.0,0.0,-2.0,-5.0,-4.0,0.0,1651068268422458.0,2
1288,1.0,1.0,-19.0,-8.0,6.0,3.0,-1.0,-1.0,1651068268443763.0,2
1289,-2.0,-3.0,-10.0,-6.0,-5.0,-4.0,-2.0,0.0,1651068268443763.0,2
1290,0.0,1.0,8.0,2.0,3.0,2.0,-2.0,0.0,1651068268444763.0,2
1291,-1.0,-2.0,1.0,-1.0,-3.0,1.0,-2.0,1.0,1651068268444763.0,2
1292,-1.0,-1.0,11.0,1.0,0.0,0.0,1.0,0.0,1651068268456741.0,2
1293,-1.0,-1.0,-2.0,-2.0,-5.0,-7.0,-1.0,-2.0,1651068268456741.0,2
1294,-2.0,1.0,3.0,2.0,-2.0,1.0,0.0,-2.0,1651068268466366.0,2
1295,0.0,-1.0,-5.0,-3.0,-3.0,-1.0,0.0,-1.0,1651068268466366.0,2
1296,1.0,-1.0,0.0,5.0,2.0,-1.0,2.0,0.0,1651068268480503.0,2
1297,2.0,1.0,10.0,3.0,2.0,0.0,2.0,0.0,1651068268480503.0,2
1298,-2.0,-1.0,3.0,0.0,-2.0,-2.0,1.0,0.0,1651068268482502.0,2
1299,-2.0,0.0,-1.0,0.0,1.0,-1.0,-2.0,-2.0,1651068268482502.0,2
1300,-2.0,-1.0,-2.0,0.0,-4.0,-1.0,-2.0,-1.0,1651068268503666.0,2
1301,0.0,0.0,5.0,5.0,1.0,2.0,1.0,-1.0,1651068268503666.0,2
1302,-1.0,1.0,2.0,-1.0,1.0,-2.0,-1.0,0.0,1651068268504607.0,2
1303,-2.0,-1.0,-5.0,-1.0,-5.0,-4.0,-2.0,-1.0,1651068268504607.0,2
1304,-1.0,-1.0,3.0,0.0,2.0,-4.0,-2.0,-3.0,1651068268517629.0,2
1305,0.0,-2.0,-14.0,-3.0,-2.0,0.0,-1.0,-1.0,1651068268517629.0,2
1306,1.0,3.0,4.0,0.0,-1.0,-2.0,-2.0,1.0,1651068268524610.0,2
1307,-1.0,-2.0,-2.0,-1.0,1.0,-1.0,1.0,0.0,1651068268524610.0,2
1308,-1.0,-1.0,7.0,2.0,-3.0,-1.0,-2.0,0.0,1651068268540584.0,2
1309,-1.0,-1.0,-3.0,-2.0,-2.0,-3.0,0.0,-1.0,1651068268540584.0,2
1310,-1.0,-2.0,-5.0,2.0,0.0,-4.0,0.0,-2.0,1651068268542512.0,2
1311,2.0,0.0,7.0,4.0,8.0,7.0,3.0,0.0,1651068268542512.0,2
1312,1.0,-1.0,-14.0,-3.0,-1.0,1.0,0.0,1.0,1651068268562709.0,2
1313,-2.0,0.0,5.0,0.0,-1.0,0.0,-1.0,-1.0,1651068268562709.0,2
1314,-1.0,-3.0,-8.0,-4.0,-8.0,-2.0,-2.0,1.0,1651068268570602.0,2
1315,-2.0,-1.0,-5.0,-3.0,-3.0,-4.0,-3.0,0.0,1651068268570602.0,2
1316,-1.0,-2.0,14.0,6.0,1.0,-2.0,-1.0,-2.0,1651068268577653.0,2
1317,-1.0,-1.0,-15.0,-10.0,-5.0,0.0,-2.0,1.0,1651068268577653.0,2
1318,0.0,-2.0,-1.0,0.0,4.0,5.0,2.0,-1.0,1651068268584755.0,2
1319,-1.0,0.0,2.0,1.0,-4.0,-2.0,-1.0,-2.0,1651068268584755.0,2
1320,0.0,1.0,3.0,1.0,1.0,-1.0,0.0,1.0,1651068268601049.0,2
1321,0.0,0.0,7.0,3.0,1.0,-1.0,1.0,-1.0,1651068268601049.0,2
1322,0.0,-1.0,-3.0,-2.0,-2.0,-2.0,-1.0,0.0,1651068268602613.0,2
1323,0.0,0.0,16.0,-3.0,-6.0,-7.0,0.0,0.0,1651068268602613.0,2
1324,-1.0,-2.0,-8.0,-4.0,2.0,3.0,1.0,1.0,1651068268623760.0,2
1325,0.0,1.0,6.0,3.0,-6.0,-2.0,-3.0,-2.0,1651068268623760.0,2
1326,1.0,-1.0,-4.0,-1.0,5.0,0.0,-3.0,-2.0,1651068268624731.0,2
1327,-1.0,-1.0,-5.0,-3.0,-4.0,-1.0,1.0,0.0,1651068268624731.0,2
1328,-1.0,-2.0,-3.0,-1.0,0.0,2.0,2.0,-1.0,1651068268637811.0,2
1329,-3.0,-1.0,6.0,2.0,-1.0,-1.0,2.0,0.0,1651068268637811.0,2
1330,0.0,0.0,10.0,5.0,-1.0,-1.0,1.0,-1.0,1651068268644859.0,2
1331,0.0,-2.0,-11.0,-4.0,-1.0,-5.0,0.0,-2.0,1651068268644859.0,2
1332,-1.0,2.0,18.0,7.0,0.0,-1.0,1.0,-1.0,1651068268660902.0,2
1333,-1.0,-4.0,-28.0,-12.0,0.0,0.0,-1.0,-1.0,1651068268660902.0,2
1334,-1.0,-1.0,0.0,-2.0,-1.0,3.0,0.0,0.0,1651068268662828.0,2
1335,-1.0,-1.0,-1.0,0.0,0.0,1.0,-1.0,0.0,1651068268662828.0,2
1336,0.0,-1.0,0.0,-3.0,3.0,1.0,0.0,1.0,1651068268682877.0,2
1337,2.0,2.0,12.0,5.0,-1.0,1.0,0.0,-1.0,1651068268682877.0,0
1338,-2.0,-3.0,-17.0,-9.0,-12.0,-5.0,0.0,-2.0,1651068268684872.0,0
1339,-1.0,0.0,5.0,0.0,2.0,-3.0,-4.0,-1.0,1651068268684872.0,0
1340,0.0,4.0,20.0,5.0,7.0,6.0,-2.0,1.0,1651068268697780.0,0
1341,1.0,-2.0,0.0,-2.0,-4.0,-3.0,-3.0,-1.0,1651068268697780.0,0
1342,-1.0,-2.0,1.0,1.0,2.0,3.0,1.0,1.0,1651068268704694.0,0
1343,-2.0,0.0,-7.0,-2.0,-8.0,-4.0,-2.0,0.0,1651068268704694.0,0
1344,0.0,0.0,-5.0,-2.0,-4.0,-7.0,-1.0,-1.0,1651068268720887.0,0
1345,0.0,1.0,10.0,5.0,3.0,-1.0,-1.0,0.0,1651068268720887.0,0
1346,1.0,1.0,-15.0,-5.0,-1.0,9.0,6.0,0.0,1651068268722824.0,0
1347,0.0,-2.0,-4.0,-3.0,1.0,1.0,2.0,-1.0,1651068268722824.0,0
1348,-1.0,-2.0,-7.0,-1.0,-1.0,0.0,-2.0,-2.0,1651068268743446.0,0
1349,-1.0,2.0,1.0,0.0,-1.0,1.0,-1.0,0.0,1651068268743446.0,0
1350,0.0,-2.0,0.0,0.0,-3.0,-6.0,-2.0,-2.0,1651068268744446.0,0
1351,0.0,-1.0,-2.0,-2.0,-3.0,0.0,-1.0,-1.0,1651068268744446.0,0
1352,0.0,-4.0,-17.0,-6.0,0.0,1.0,0.0,0.0,1651068268757564.0,0
1353,0.0,3.0,19.0,6.0,0.0,-2.0,1.0,0.0,1651068268757564.0,0
1354,0.0,0.0,6.0,1.0,4.0,0.0,-1.0,-1.0,1651068268764558.0,0
1355,1.0,1.0,-6.0,0.0,1.0,2.0,0.0,1.0,1651068268764558.0,0
1356,0.0,-1.0,4.0,-1.0,-4.0,-3.0,0.0,0.0,1651068268781052.0,0
1357,-2.0,-3.0,-5.0,0.0,-1.0,1.0,2.0,0.0,1651068268781052.0,0
1358,1.0,1.0,11.0,2.0,-9.0,-4.0,-2.0,0.0,1651068268782431.0,0
1359,-2.0,-2.0,-24.0,-11.0,-2.0,-4.0,-3.0,-1.0,1651068268782431.0,0
1360,-1.0,-1.0,-2.0,1.0,8.0,8.0,0.0,-1.0,1651068268803347.0,0
1361,1.0,-1.0,-2.0,0.0,2.0,2.0,0.0,-1.0,1651068268803347.0,0
1362,-2.0,1.0,3.0,3.0,7.0,1.0,-1.0,-1.0,1651068268804374.0,0
1363,-2.0,-2.0,-13.0,-2.0,-13.0,-3.0,0.0,-1.0,1651068268804374.0,0
1364,-1.0,0.0,10.0,1.0,2.0,-5.0,-2.0,-1.0,1651068268816629.0,0
1365,-1.0,-1.0,-4.0,-3.0,6.0,5.0,1.0,0.0,1651068268816629.0,0
1366,0.0,1.0,4.0,2.0,-1.0,1.0,3.0,-1.0,1651068268825618.0,0
1367,-1.0,1.0,5.0,3.0,0.0,2.0,-2.0,-1.0,1651068268825618.0,0
1368,0.0,-1.0,-10.0,-3.0,-4.0,0.0,1.0,-1.0,1651068268840572.0,0
1369,1.0,0.0,14.0,2.0,-8.0,-3.0,-1.0,-1.0,1651068268840572.0,0
1370,-2.0,0.0,-3.0,-3.0,-4.0,-10.0,-6.0,-1.0,1651068268842583.0,0
1371,-1.0,-1.0,5.0,2.0,0.0,2.0,1.0,1.0,1651068268842583.0,0
1372,-1.0,-1.0,-9.0,-1.0,4.0,3.0,0.0,0.0,1651068268863767.0,0
1373,-1.0,-2.0,3.0,3.0,6.0,6.0,1.0,0.0,1651068268863767.0,0
1374,-2.0,-3.0,-2.0,-2.0,-4.0,-8.0,-4.0,-1.0,1651068268864779.0,0
1375,-1.0,0.0,4.0,1.0,-1.0,4.0,0.0,-2.0,1651068268864779.0,0
1376,-1.0,0.0,9.0,-1.0,-4.0,-2.0,-2.0,-3.0,1651068268876801.0,0
1377,0.0,-1.0,-8.0,-3.0,-2.0,-7.0,-1.0,0.0,1651068268876801.0,0
1378,-2.0,0.0,-4.0,0.0,2.0,8.0,3.0,1.0,1651068268885711.0,0
1379,-1.0,1.0,11.0,6.0,9.0,-1.0,-3.0,0.0,1651068268885711.0,0
1380,1.0,-2.0,-6.0,-3.0,-5.0,-4.0,-2.0,-2.0,1651068268901060.0,0
1381,-1.0,-1.0,-6.0,-8.0,-8.0,0.0,0.0,-1.0,1651068268901060.0,0
1382,-2.0,0.0,-9.0,-3.0,-13.0,-13.0,-3.0,1.0,1651068268902655.0,0
1383,-2.0,2.0,16.0,13.0,25.0,17.0,2.0,0.0,1651068268902655.0,0
1384,0.0,2.0,0.0,2.0,-3.0,10.0,5.0,3.0,1651068268923659.0,0
1385,-2.0,-2.0,-16.0,-3.0,5.0,-2.0,1.0,0.0,1651068268923659.0,0
1386,1.0,4.0,26.0,0.0,-14.0,-4.0,-2.0,-3.0,1651068268924670.0,0
1387,0.0,-8.0,-17.0,-5.0,-2.0,-10.0,1.0,0.0,1651068268924670.0,0
1388,0.0,-2.0,0.0,2.0,-1.0,-1.0,0.0,-1.0,1651068268936694.0,0
1389,-1.0,0.0,0.0,0.0,-4.0,-3.0,-1.0,2.0,1651068268936694.0,0
1390,-1.0,-3.0,-9.0,-5.0,6.0,6.0,-1.0,0.0,1651068268945665.0,0
1391,-1.0,2.0,9.0,2.0,-8.0,-7.0,-1.0,0.0,1651068268945665.0,0
1392,0.0,-2.0,-3.0,-4.0,-4.0,-7.0,-3.0,-1.0,1651068268960731.0,0
1393,0.0,0.0,1.0,2.0,2.0,3.0,3.0,1.0,1651068268960731.0,0
1394,-1.0,-2.0,-8.0,-3.0,4.0,2.0,0.0,-1.0,1651068268962657.0,0
1395,2.0,2.0,1.0,-3.0,-4.0,-6.0,-1.0,-1.0,1651068268962657.0,0
1396,-2.0,0.0,-5.0,0.0,2.0,6.0,0.0,-1.0,1651068268983687.0,0
1397,-1.0,-3.0,-9.0,-2.0,5.0,-1.0,-3.0,-2.0,1651068268983687.0,0
1398,-1.0,-1.0,11.0,8.0,20.0,18.0,3.0,2.0,1651068268984678.0,0
1399,0.0,-2.0,-3.0,-5.0,3.0,-8.0,-3.0,-1.0,1651068268984678.0,0
1400,0.0,1.0,1.0,8.0,-8.0,8.0,6.0,3.0,1651068268996713.0,0
1401,-1.0,0.0,3.0,-5.0,-16.0,-13.0,-2.0,-2.0,1651068268996713.0,0
1402,-1.0,2.0,10.0,5.0,1.0,-1.0,0.0,-1.0,1651068269005716.0,0
1403,0.0,-3.0,-16.0,-9.0,-7.0,0.0,-1.0,-1.0,1651068269005716.0,0
1404,-3.0,-1.0,-10.0,-3.0,0.0,-9.0,-3.0,-2.0,1651068269020751.0,0
1405,-1.0,2.0,25.0,10.0,4.0,6.0,1.0,1.0,1651068269020751.0,3
1406,-1.0,-5.0,-19.0,-15.0,-6.0,-6.0,-3.0,-1.0,1651068269022769.0,3
1407,-3.0,-2.0,1.0,0.0,-12.0,-6.0,-2.0,-2.0,1651068269022769.0,3
1408,-3.0,-3.0,-5.0,-9.0,-1.0,-10.0,-5.0,-3.0,1651068269043685.0,3
1409,2.0,0.0,-6.0,9.0,15.0,21.0,1.0,3.0,1651068269043685.0,3
1410,2.0,2.0,5.0,0.0,-3.0,-9.0,-2.0,1.0,1651068269045085.0,3
1411,-1.0,0.0,3.0,2.0,-2.0,1.0,-3.0,0.0,1651068269045085.0,3
1412,-2.0,0.0,4.0,-6.0,3.0,-3.0,-1.0,-3.0,1651068269057042.0,3
1413,-5.0,-2.0,1.0,2.0,-5.0,-6.0,1.0,-1.0,1651068269057042.0,3
1414,4.0,-2.0,-9.0,-3.0,-2.0,1.0,-2.0,6.0,1651068269066130.0,3
1415,3.0,4.0,8.0,8.0,8.0,19.0,6.0,0.0,1651068269066130.0,3
1416,-1.0,1.0,6.0,0.0,-13.0,-11.0,4.0,5.0,1651068269080649.0,3
1417,-3.0,-3.0,-3.0,3.0,21.0,12.0,2.0,2.0,1651068269080649.0,3
1418,2.0,4.0,0.0,4.0,-3.0,0.0,-5.0,-7.0,1651068269082576.0,3
1419,-3.0,0.0,6.0,-3.0,-8.0,-3.0,-4.0,-2.0,1651068269082576.0,3
1420,1.0,-1.0,-25.0,-12.0,-1.0,-3.0,-5.0,-3.0,1651068269103715.0,3
1421,0.0,-3.0,-10.0,-4.0,-8.0,-8.0,0.0,1.0,1651068269103715.0,3
1422,-1.0,4.0,24.0,13.0,13.0,6.0,5.0,3.0,1651068269104725.0,3
1423,-2.0,-2.0,-17.0,-15.0,-10.0,-1.0,-2.0,0.0,1651068269104725.0,3
1424,1.0,-1.0,4.0,3.0,0.0,2.0,0.0,-2.0,1651068269125559.0,3
1425,1.0,0.0,-1.0,-4.0,-8.0,-5.0,-5.0,-1.0,1651068269125559.0,3
1426,-4.0,-7.0,-19.0,-8.0,-8.0,-3.0,3.0,-1.0,1651068269127515.0,3
1427,1.0,2.0,10.0,8.0,5.0,10.0,4.0,-2.0,1651068269127515.0,3
1428,-1.0,-1.0,2.0,-1.0,10.0,4.0,2.0,2.0,1651068269140481.0,3
1429,3.0,4.0,0.0,-3.0,3.0,-2.0,-3.0,-4.0,1651068269140481.0,3
1430,1.0,1.0,4.0,-2.0,-10.0,-4.0,-1.0,2.0,1651068269142476.0,3
1431,-1.0,-2.0,-3.0,-3.0,-7.0,-11.0,-2.0,0.0,1651068269142476.0,3
1432,0.0,0.0,-2.0,4.0,0.0,-1.0,-1.0,0.0,1651068269163684.0,3
1433,0.0,-3.0,3.0,1.0,-5.0,-1.0,-3.0,3.0,1651068269163684.0,3
1434,-4.0,-5.0,-10.0,4.0,29.0,10.0,2.0,-1.0,1651068269164685.0,3
1435,4.0,3.0,2.0,-3.0,-1.0,8.0,-2.0,-2.0,1651068269164685.0,3
1436,0.0,1.0,6.0,6.0,-7.0,-4.0,-3.0,0.0,1651068269176719.0,3
1437,-1.0,-1.0,-2.0,-1.0,-1.0,-2.0,2.0,-3.0,1651068269176719.0,3
1438,-2.0,-3.0,-2.0,-9.0,-13.0,-10.0,-1.0,0.0,1651068269185742.0,3
1439,-2.0,-2.0,-4.0,3.0,-4.0,1.0,2.0,1.0,1651068269185742.0,3
1440,-2.0,-3.0,3.0,-8.0,-28.0,-16.0,-4.0,-4.0,1651068269200034.0,3
1441,0.0,-1.0,-5.0,14.0,41.0,21.0,6.0,1.0,1651068269200034.0,3
1442,-2.0,3.0,-2.0,-8.0,-23.0,-5.0,-3.0,-2.0,1651068269207086.0,3
1443,-1.0,0.0,2.0,0.0,10.0,-7.0,-3.0,0.0,1651068269207086.0,3
1444,0.0,1.0,5.0,-2.0,-12.0,-2.0,0.0,0.0,1651068269223430.0,3
1445,-5.0,-1.0,-3.0,-14.0,-26.0,-29.0,-11.0,-10.0,1651068269223430.0,3
1446,-4.0,-4.0,-12.0,-3.0,3.0,3.0,2.0,-4.0,1651068269224360.0,3
1447,1.0,-3.0,0.0,-4.0,-2.0,4.0,5.0,11.0,1651068269224360.0,3
1448,-3.0,1.0,1.0,1.0,8.0,-2.0,-8.0,-7.0,1651068269245459.0,3
1449,6.0,0.0,0.0,0.0,-7.0,-1.0,-3.0,4.0,1651068269245459.0,3
1450,4.0,-2.0,-4.0,4.0,20.0,8.0,4.0,5.0,1651068269247386.0,3
1451,-6.0,-5.0,-8.0,-15.0,-25.0,-18.0,-6.0,-8.0,1651068269247386.0,3
1452,0.0,0.0,6.0,29.0,44.0,23.0,8.0,3.0,1651068269260533.0,3
1453,-2.0,3.0,4.0,-7.0,-8.0,12.0,2.0,-2.0,1651068269260533.0,3
1454,-1.0,0.0,3.0,-3.0,-15.0,-6.0,-3.0,-1.0,1651068269266535.0,3
1455,0.0,-1.0,1.0,3.0,0.0,-3.0,1.0,2.0,1651068269266535.0,3
1456,-2.0,-3.0,-1.0,-4.0,5.0,-2.0,-1.0,-4.0,1651068269283413.0,3
1457,-2.0,1.0,1.0,1.0,-4.0,-4.0,-1.0,-2.0,1651068269283413.0,3
1458,2.0,0.0,2.0,-4.0,-8.0,-2.0,-2.0,1.0,1651068269289570.0,3
1459,-4.0,-2.0,-1.0,4.0,18.0,1.0,-3.0,-2.0,1651068269289570.0,3
1460,-2.0,-4.0,-11.0,-7.0,-4.0,5.0,-1.0,0.0,1651068269305680.0,3
1461,1.0,1.0,0.0,0.0,-5.0,-6.0,1.0,0.0,1651068269305680.0,3
1462,-2.0,-3.0,-6.0,-5.0,-7.0,-3.0,-2.0,0.0,1651068269307608.0,3
1463,0.0,-3.0,-3.0,7.0,14.0,5.0,1.0,-2.0,1651068269307608.0,3
1464,-1.0,5.0,11.0,-11.0,-13.0,-3.0,-1.0,-3.0,1651068269320612.0,3
1465,-7.0,5.0,11.0,8.0,15.0,6.0,-6.0,-15.0,1651068269320612.0,3
1466,10.0,-2.0,-6.0,-6.0,-24.0,-17.0,8.0,23.0,1651068269326566.0,3
1467,11.0,1.0,0.0,12.0,24.0,5.0,6.0,15.0,1651068269326566.0,3
1468,3.0,6.0,6.0,-5.0,-13.0,-4.0,2.0,4.0,1651068269343809.0,3
1469,2.0,-4.0,-5.0,-5.0,-4.0,7.0,4.0,-2.0,1651068269343809.0,3
1470,-14.0,2.0,15.0,8.0,15.0,3.0,-6.0,-14.0,1651068269344759.0,3
1471,-2.0,-4.0,-8.0,-8.0,-5.0,1.0,1.0,2.0,1651068269344759.0,3
1472,-7.0,-1.0,1.0,1.0,2.0,-3.0,-4.0,-17.0,1651068269365490.0,3
1473,-8.0,-6.0,-9.0,-6.0,-12.0,-11.0,-6.0,-3.0,1651068269365490.0,3
1474,20.0,6.0,2.0,6.0,8.0,10.0,9.0,28.0,1651068269367461.0,3
1475,3.0,0.0,-2.0,2.0,-1.0,-2.0,2.0,3.0,1651068269367461.0,3
1476,2.0,3.0,6.0,1.0,17.0,6.0,-3.0,0.0,1651068269380505.0,3
1477,-6.0,-5.0,-9.0,-11.0,-29.0,-13.0,-3.0,-10.0,1651068269380505.0,3
1478,-8.0,-3.0,-3.0,2.0,-1.0,0.0,-5.0,-13.0,1651068269386560.0,3
1479,1.0,5.0,6.0,0.0,-6.0,2.0,2.0,5.0,1651068269386560.0,3
1480,2.0,2.0,5.0,-1.0,-6.0,-3.0,-2.0,-2.0,1651068269403634.0,3
1481,-4.0,-9.0,-10.0,4.0,6.0,-3.0,0.0,0.0,1651068269403634.0,3
1482,-5.0,1.0,1.0,-9.0,2.0,4.0,-1.0,-5.0,1651068269405590.0,3
1483,-2.0,3.0,3.0,-4.0,-13.0,-2.0,-6.0,-11.0,1651068269405590.0,3
1484,0.0,-1.0,-4.0,5.0,3.0,3.0,-1.0,8.0,1651068269425676.0,3
1485,2.0,-1.0,-2.0,2.0,9.0,4.0,3.0,9.0,1651068269425676.0,3
1486,0.0,6.0,11.0,-5.0,-10.0,-5.0,-4.0,-7.0,1651068269427630.0,3
1487,-9.0,-4.0,-1.0,4.0,10.0,1.0,-6.0,-16.0,1651068269427630.0,3
1488,6.0,-5.0,-8.0,-6.0,-8.0,-1.0,4.0,14.0,1651068269439721.0,3
1489,-4.0,0.0,5.0,0.0,2.0,2.0,0.0,-2.0,1651068269439721.0,3
1490,2.0,0.0,-3.0,7.0,6.0,-2.0,2.0,7.0,1651068269446742.0,3
1491,-10.0,0.0,0.0,-1.0,-4.0,1.0,-6.0,-23.0,1651068269446742.0,3
1492,-6.0,-7.0,-7.0,-1.0,-6.0,-3.0,1.0,-11.0,1651068269462779.0,3
1493,20.0,11.0,4.0,5.0,19.0,4.0,6.0,34.0,1651068269462779.0,3
1494,11.0,-3.0,5.0,4.0,0.0,2.0,0.0,10.0,1651068269464776.0,3
1495,-8.0,-1.0,-9.0,-1.0,-7.0,-4.0,-4.0,-15.0,1651068269464776.0,3
1496,-13.0,1.0,25.0,7.0,8.0,2.0,-5.0,-29.0,1651068269485887.0,3
1497,-4.0,-6.0,1.0,0.0,1.0,-2.0,1.0,20.0,1651068269485887.0,3
1498,-1.0,-10.0,-18.0,-7.0,-2.0,1.0,1.0,3.0,1651068269487840.0,3
1499,10.0,7.0,3.0,-6.0,2.0,-1.0,3.0,14.0,1651068269487840.0,3
1500,-2.0,1.0,1.0,5.0,-5.0,-2.0,1.0,-7.0,1651068269499808.0,3
1501,-5.0,0.0,-3.0,5.0,-4.0,-2.0,-2.0,-18.0,1651068269499808.0,3
1502,-1.0,5.0,10.0,-6.0,12.0,5.0,-6.0,-14.0,1651068269514932.0,3
1503,7.0,2.0,2.0,2.0,-5.0,-2.0,1.0,23.0,1651068269514932.0,3
1504,-3.0,4.0,-17.0,-19.0,-11.0,-5.0,-7.0,-4.0,1651068269523640.0,3
1505,-5.0,-9.0,-5.0,-7.0,-12.0,-2.0,0.0,-13.0,1651068269523640.0,3
1506,-23.0,-11.0,-15.0,-8.0,-16.0,-9.0,-2.0,-10.0,1651068269524638.0,3
1507,12.0,12.0,15.0,9.0,24.0,6.0,-2.0,-18.0,1651068269524638.0,3
1508,24.0,13.0,10.0,11.0,13.0,7.0,15.0,51.0,1651068269546173.0,3
1509,9.0,7.0,3.0,-10.0,-13.0,-6.0,-4.0,0.0,1651068269546173.0,3
1510,-12.0,-5.0,5.0,2.0,0.0,-5.0,-5.0,-16.0,1651068269547659.0,3
1511,-11.0,-4.0,-3.0,-20.0,-13.0,-5.0,-1.0,-21.0,1651068269547659.0,3
1512,-1.0,-13.0,-13.0,18.0,6.0,2.0,-6.0,5.0,1651068269559715.0,3
1513,15.0,10.0,16.0,6.0,15.0,15.0,10.0,26.0,1651068269559715.0,3
1514,0.0,1.0,-14.0,4.0,-9.0,-6.0,-1.0,-12.0,1651068269568706.0,3
1515,-14.0,1.0,1.0,-13.0,-17.0,-17.0,-9.0,-5.0,1651068269568706.0,3
1516,5.0,-5.0,1.0,12.0,56.0,33.0,9.0,-2.0,1651068269583658.0,3
1517,-21.0,-8.0,-15.0,-8.0,-12.0,-1.0,-2.0,-14.0,1651068269583658.0,3
1518,29.0,9.0,18.0,9.0,-11.0,1.0,1.0,1.0,1651068269584819.0,3
1519,-4.0,-3.0,0.0,15.0,16.0,5.0,10.0,11.0,1651068269584819.0,3
1520,-5.0,2.0,3.0,-13.0,-24.0,-14.0,-5.0,-5.0,1651068269605360.0,3
1521,8.0,2.0,3.0,5.0,7.0,4.0,4.0,8.0,1651068269605360.0,3
1522,-10.0,-11.0,-12.0,-5.0,3.0,-1.0,-5.0,-8.0,1651068269607361.0,3
1523,-7.0,-7.0,-1.0,-2.0,-8.0,-6.0,-10.0,5.0,1651068269607361.0,3
1524,-3.0,2.0,-10.0,-8.0,-6.0,1.0,18.0,-27.0,1651068269619920.0,3
1525,-7.0,-10.0,7.0,-2.0,4.0,-1.0,-12.0,5.0,1651068269619920.0,3
1526,-13.0,5.0,2.0,7.0,2.0,1.0,16.0,21.0,1651068269628953.0,3
1527,33.0,-3.0,-8.0,0.0,4.0,7.0,9.0,16.0,1651068269628953.0,3
1528,-8.0,-8.0,0.0,-9.0,-19.0,-12.0,-9.0,0.0,1651068269643731.0,3
1529,-3.0,-1.0,-14.0,-4.0,-1.0,-5.0,-7.0,-21.0,1651068269643731.0,3
1530,-13.0,0.0,9.0,13.0,8.0,-1.0,-12.0,-23.0,1651068269644731.0,3
1531,-1.0,-5.0,-5.0,-14.0,1.0,2.0,-2.0,9.0,1651068269644731.0,3
1532,12.0,0.0,1.0,-2.0,1.0,6.0,12.0,37.0,1651068269665741.0,3
1533,-7.0,3.0,2.0,-3.0,-1.0,-6.0,-2.0,-26.0,1651068269665741.0,3
1534,0.0,-12.0,-6.0,6.0,9.0,1.0,1.0,9.0,1651068269667680.0,3
1535,-16.0,-7.0,-19.0,-2.0,-20.0,-12.0,-7.0,-25.0,1651068269667680.0,3
1536,10.0,1.0,19.0,3.0,11.0,0.0,-4.0,29.0,1651068269679870.0,3
1537,0.0,4.0,4.0,5.0,2.0,6.0,0.0,-2.0,1651068269679870.0,3
1538,5.0,1.0,1.0,1.0,16.0,13.0,5.0,0.0,1651068269688849.0,3
1539,6.0,7.0,-11.0,-9.0,-19.0,-7.0,5.0,23.0,1651068269688849.0,3
1540,-6.0,-4.0,-5.0,-3.0,-3.0,-2.0,-3.0,-17.0,1651068269703713.0,3
1541,-7.0,-12.0,-2.0,12.0,4.0,-3.0,-3.0,-2.0,1651068269703713.0,3
1542,1.0,6.0,-12.0,-3.0,0.0,0.0,-4.0,-11.0,1651068269704639.0,3
1543,9.0,-1.0,9.0,7.0,7.0,7.0,3.0,15.0,1651068269704639.0,3
1544,-7.0,-1.0,-14.0,-10.0,-13.0,-7.0,1.0,-2.0,1651068269725587.0,3
1545,2.0,-1.0,-3.0,1.0,2.0,0.0,3.0,2.0,1651068269725587.0,3
1546,3.0,-3.0,12.0,8.0,4.0,0.0,1.0,10.0,1651068269727581.0,3
1547,-8.0,-1.0,5.0,-8.0,-3.0,0.0,-2.0,-12.0,1651068269727581.0,3
1548,-4.0,1.0,-1.0,4.0,3.0,-11.0,-9.0,-8.0,1651068269739612.0,3
1549,-1.0,3.0,6.0,-12.0,-34.0,-18.0,-3.0,-4.0,1651068269739612.0,3
1550,4.0,1.0,-3.0,1.0,34.0,17.0,5.0,12.0,1651068269748522.0,3
1551,-2.0,-5.0,4.0,9.0,13.0,0.0,1.0,4.0,1651068269748522.0,3
1552,-4.0,1.0,5.0,3.0,-17.0,-5.0,-5.0,-5.0,1651068269763708.0,3
1553,1.0,5.0,0.0,-5.0,-14.0,0.0,-2.0,-6.0,1651068269763708.0,3
1554,2.0,5.0,6.0,-2.0,16.0,1.0,-5.0,3.0,1651068269764646.0,3
1555,-3.0,-3.0,-4.0,13.0,-1.0,-1.0,7.0,-8.0,1651068269764646.0,3
1556,-2.0,-3.0,-12.0,-30.0,-8.0,0.0,1.0,0.0,1651068269785295.0,3
1557,2.0,-2.0,2.0,6.0,3.0,0.0,-2.0,13.0,1651068269785295.0,3
1558,3.0,0.0,-6.0,-11.0,-18.0,-6.0,-1.0,-3.0,1651068269792361.0,3
1559,3.0,0.0,7.0,3.0,9.0,6.0,6.0,9.0,1651068269792361.0,3
1560,-7.0,-6.0,-6.0,9.0,2.0,-1.0,-13.0,-19.0,1651068269799918.0,3
1561,-4.0,-4.0,-13.0,-9.0,4.0,2.0,10.0,14.0,1651068269799918.0,3
1562,-5.0,0.0,1.0,-4.0,-5.0,0.0,0.0,-12.0,1651068269807967.0,3
1563,1.0,3.0,-1.0,6.0,6.0,0.0,-4.0,-3.0,1651068269807967.0,3
1564,3.0,-3.0,-13.0,-3.0,-8.0,-5.0,-3.0,6.0,1651068269823141.0,3
1565,4.0,7.0,20.0,2.0,10.0,5.0,-5.0,-6.0,1651068269823141.0,3
1566,-4.0,-9.0,-8.0,-8.0,-29.0,-11.0,4.0,5.0,1651068269825069.0,3
1567,1.0,0.0,3.0,14.0,41.0,13.0,4.0,1.0,1651068269825069.0,3
1568,0.0,-2.0,7.0,-3.0,-4.0,2.0,2.0,11.0,1651068269846203.0,3
1569,0.0,-2.0,-13.0,1.0,0.0,-5.0,-5.0,-9.0,1651068269846203.0,3
1570,5.0,10.0,14.0,3.0,-11.0,5.0,1.0,3.0,1651068269847163.0,3
1571,3.0,1.0,8.0,0.0,20.0,15.0,-1.0,10.0,1651068269847163.0,3
1572,-3.0,3.0,4.0,21.0,4.0,3.0,-2.0,-8.0,1651068269859214.0,3
1573,3.0,0.0,-10.0,-32.0,-7.0,-5.0,3.0,2.0,1651068269859214.0,3
1574,-5.0,-3.0,5.0,5.0,8.0,-2.0,-3.0,-4.0,1651068269876261.0,3
1575,-6.0,0.0,-5.0,-9.0,-20.0,0.0,-4.0,-6.0,1651068269876261.0,3
1576,-2.0,-3.0,-7.0,3.0,6.0,-1.0,-2.0,-13.0,1651068269883299.0,3
1577,7.0,4.0,6.0,7.0,0.0,4.0,7.0,14.0,1651068269883299.0,3
1578,-2.0,-3.0,-11.0,-3.0,-4.0,-6.0,-5.0,1.0,1651068269885227.0,3
1579,-3.0,-2.0,-8.0,-11.0,-6.0,-1.0,-3.0,-13.0,1651068269885227.0,3
1580,2.0,0.0,14.0,4.0,-2.0,-5.0,0.0,20.0,1651068269906207.0,3
1581,-5.0,5.0,-5.0,2.0,3.0,2.0,-1.0,-14.0,1651068269906207.0,3
1582,0.0,-1.0,-6.0,-12.0,-5.0,-3.0,-12.0,-1.0,1651068269907627.0,3
1583,-4.0,-4.0,-3.0,4.0,-6.0,-5.0,2.0,-3.0,1651068269907627.0,3
1584,-1.0,-10.0,-16.0,-10.0,-4.0,-3.0,-2.0,-4.0,1651068269919687.0,3
1585,4.0,3.0,15.0,10.0,13.0,7.0,8.0,1.0,1651068269919687.0,3
1586,-4.0,-4.0,3.0,5.0,1.0,1.0,2.0,-3.0,1651068269928666.0,3
1587,-3.0,3.0,-8.0,-15.0,-23.0,-12.0,-8.0,-1.0,1651068269928666.0,3
1588,0.0,6.0,7.0,3.0,5.0,2.0,-1.0,-7.0,1651068269943693.0,3
1589,-3.0,-7.0,-10.0,-8.0,0.0,2.0,-3.0,2.0,1651068269943693.0,3
1590,3.0,3.0,6.0,5.0,8.0,2.0,4.0,3.0,1651068269944635.0,3
1591,0.0,2.0,10.0,11.0,-9.0,-9.0,-5.0,-4.0,1651068269944635.0,3
1592,2.0,-1.0,-5.0,-17.0,4.0,6.0,6.0,9.0,1651068269965373.0,3
1593,-2.0,1.0,6.0,10.0,3.0,-4.0,-5.0,-6.0,1651068269965373.0,3
1594,-4.0,-4.0,-13.0,-5.0,-4.0,5.0,3.0,-2.0,1651068269967371.0,3
1595,1.0,2.0,9.0,1.0,0.0,-3.0,0.0,7.0,1651068269967371.0,3
1596,0.0,-3.0,-14.0,5.0,1.0,0.0,-1.0,-5.0,1651068269979451.0,3
1597,-1.0,0.0,11.0,0.0,-13.0,-4.0,-3.0,-2.0,1651068269979451.0,3
1598,-1.0,-2.0,-5.0,-1.0,19.0,3.0,1.0,-3.0,1651068269988398.0,3
1599,-1.0,-3.0,-4.0,-2.0,-2.0,-5.0,-19.0,-17.0,1651068269988398.0,3
1600,-5.0,-3.0,-3.0,-3.0,-4.0,2.0,28.0,20.0,1651068270003708.0,3
1601,1.0,-2.0,3.0,1.0,5.0,7.0,3.0,-1.0,1651068270003708.0,3
1602,2.0,2.0,-4.0,-1.0,-7.0,-3.0,0.0,5.0,1651068270004394.0,3
1603,-2.0,4.0,2.0,-2.0,-3.0,4.0,-4.0,-8.0,1651068270004394.0,3
1604,-2.0,-8.0,-10.0,-5.0,-4.0,-5.0,-11.0,-14.0,1651068270025574.0,3
1605,-3.0,-3.0,-13.0,-3.0,-6.0,0.0,0.0,9.0,1651068270025574.0,3
1606,1.0,1.0,7.0,-1.0,-1.0,0.0,2.0,-4.0,1651068270027502.0,3
1607,-3.0,-1.0,-1.0,0.0,2.0,-2.0,0.0,2.0,1651068270027502.0,3
1608,0.0,2.0,1.0,1.0,0.0,2.0,-3.0,-3.0,1651068270039537.0,3
1609,0.0,1.0,3.0,5.0,1.0,-1.0,3.0,3.0,1651068270039537.0,3
1610,1.0,0.0,-9.0,-4.0,-2.0,-2.0,-9.0,-10.0,1651068270048446.0,3
1611,0.0,-3.0,-5.0,-3.0,0.0,3.0,6.0,13.0,1651068270048446.0,3
1612,2.0,1.0,2.0,3.0,-6.0,-4.0,-3.0,-4.0,1651068270063467.0,3
1613,-1.0,2.0,8.0,-4.0,-4.0,-3.0,-10.0,-10.0,1651068270063467.0,3
1614,4.0,1.0,3.0,3.0,7.0,2.0,14.0,11.0,1651068270064403.0,3
1615,-1.0,-3.0,-2.0,-2.0,-7.0,0.0,3.0,1.0,1651068270064403.0,3
1616,1.0,3.0,7.0,4.0,2.0,2.0,-6.0,-4.0,1651068270085471.0,3
1617,1.0,-2.0,-6.0,-5.0,0.0,-1.0,-2.0,2.0,1651068270085471.0,3
1618,-1.0,1.0,1.0,-1.0,-6.0,-4.0,-3.0,-3.0,1651068270087439.0,3
1619,-2.0,-4.0,-2.0,0.0,0.0,0.0,6.0,1.0,1651068270087439.0,3
1620,-1.0,3.0,8.0,-1.0,-2.0,-3.0,-10.0,-7.0,1651068270099474.0,3
1621,0.0,0.0,-6.0,3.0,5.0,-2.0,-1.0,1.0,1651068270099474.0,3
1622,-1.0,-2.0,-4.0,-1.0,-5.0,-1.0,0.0,-1.0,1651068270108383.0,3
1623,1.0,-2.0,-3.0,1.0,2.0,3.0,4.0,0.0,1651068270108383.0,3
1624,-2.0,4.0,9.0,-4.0,-4.0,-1.0,-3.0,-1.0,1651068270123583.0,3
1625,-1.0,-7.0,-9.0,4.0,5.0,1.0,3.0,2.0,1651068270123583.0,3
1626,-3.0,-1.0,5.0,-2.0,-4.0,-3.0,-3.0,0.0,1651068270124512.0,3
1627,0.0,-1.0,-3.0,0.0,-5.0,-2.0,-2.0,1.0,1651068270124512.0,3
1628,2.0,1.0,-2.0,3.0,7.0,2.0,1.0,-1.0,1651068270145722.0,3
1629,0.0,-1.0,-3.0,-5.0,-4.0,0.0,6.0,3.0,1651068270145722.0,3
1630,-2.0,-3.0,-4.0,-3.0,-4.0,-3.0,-3.0,-4.0,1651068270147676.0,3
1631,0.0,0.0,4.0,-1.0,-2.0,-2.0,-2.0,0.0,1651068270147676.0,3
1632,-2.0,-1.0,-3.0,-1.0,0.0,-1.0,1.0,0.0,1651068270159761.0,3
1633,-1.0,-1.0,10.0,2.0,1.0,-2.0,-5.0,-3.0,1651068270159761.0,3
1634,4.0,2.0,-22.0,-4.0,-1.0,1.0,6.0,8.0,1651068270168739.0,3
1635,0.0,0.0,5.0,1.0,0.0,-3.0,2.0,1.0,1651068270168739.0,3
1636,0.0,3.0,14.0,-2.0,-6.0,-2.0,3.0,1.0,1651068270183721.0,3
1637,1.0,-1.0,1.0,6.0,2.0,3.0,-8.0,-3.0,1651068270183721.0,3
1638,-1.0,-1.0,0.0,-14.0,-7.0,1.0,10.0,3.0,1651068270184674.0,3
1639,-1.0,-1.0,-4.0,4.0,0.0,-1.0,2.0,1.0,1651068270184674.0,3
1640,1.0,-1.0,-13.0,-18.0,0.0,-1.0,-1.0,-2.0,1651068270205934.0,3
1641,-2.0,3.0,12.0,16.0,3.0,2.0,3.0,1.0,1651068270205934.0,3
1642,0.0,0.0,-21.0,-15.0,-3.0,-3.0,-6.0,-1.0,1651068270207863.0,3
1643,0.0,4.0,22.0,42.0,19.0,8.0,2.0,1.0,1651068270207863.0,3
1644,-9.0,-15.0,-29.0,-33.0,-23.0,-11.0,-7.0,-5.0,1651068270227986.0,3
1645,-1.0,-1.0,-7.0,-20.0,-9.0,-5.0,1.0,0.0,1651068270227986.0,3
1646,0.0,0.0,24.0,12.0,-2.0,-2.0,-3.0,-2.0,1651068270229914.0,3
1647,0.0,-2.0,-15.0,0.0,6.0,3.0,2.0,0.0,1651068270229914.0,3
1648,2.0,4.0,14.0,6.0,8.0,2.0,-2.0,1.0,1651068270242946.0,3
1649,-1.0,-5.0,-15.0,-6.0,-2.0,-2.0,-2.0,0.0,1651068270242946.0,3
1650,0.0,1.0,3.0,6.0,5.0,0.0,-3.0,-2.0,1651068270244874.0,3
1651,0.0,4.0,22.0,10.0,-1.0,-2.0,-3.0,-7.0,1651068270244874.0,3
1652,6.0,2.0,-16.0,9.0,2.0,4.0,8.0,9.0,1651068270265640.0,3
1653,-1.0,1.0,-16.0,6.0,-4.0,-3.0,3.0,-2.0,1651068270265640.0,3
1654,-1.0,0.0,15.0,0.0,1.0,2.0,-2.0,-2.0,1651068270267568.0,3
1655,7.0,2.0,12.0,0.0,-14.0,-3.0,1.0,0.0,1651068270267568.0,3
1656,-6.0,6.0,28.0,52.0,39.0,13.0,0.0,-1.0,1651068270288663.0,3
1657,-5.0,-14.0,-44.0,-71.0,-28.0,-11.0,-3.0,-3.0,1651068270288663.0,3
1658,-1.0,1.0,5.0,7.0,-4.0,-6.0,-5.0,-1.0,1651068270289594.0,3
1659,-2.0,0.0,-11.0,-32.0,-7.0,0.0,-2.0,-1.0,1651068270289594.0,3
1660,1.0,-4.0,-7.0,15.0,3.0,3.0,1.0,-3.0,1651068270303714.0,3
1661,0.0,4.0,6.0,5.0,7.0,0.0,-2.0,-1.0,1651068270303714.0,3
1662,-1.0,-3.0,12.0,4.0,3.0,0.0,2.0,-2.0,1651068270304668.0,3
1663,-2.0,-6.0,-24.0,-32.0,-14.0,-5.0,-2.0,0.0,1651068270304668.0,3
1664,11.0,6.0,-5.0,6.0,5.0,0.0,0.0,-3.0,1651068270325627.0,3
1665,-12.0,-5.0,33.0,6.0,9.0,4.0,6.0,8.0,1651068270325627.0,3
1666,-1.0,-4.0,-23.0,-2.0,-10.0,-5.0,-3.0,-4.0,1651068270327606.0,3
1667,-1.0,4.0,13.0,16.0,11.0,5.0,7.0,5.0,1651068270327606.0,3
1668,-2.0,-4.0,7.0,-28.0,-16.0,-3.0,-2.0,0.0,1651068270348617.0,3
1669,5.0,6.0,21.0,37.0,17.0,8.0,0.0,-3.0,1651068270348617.0,3
1670,-3.0,-6.0,-18.0,-12.0,4.0,0.0,-5.0,0.0,1651068270349555.0,3
1671,-2.0,-4.0,-8.0,2.0,-4.0,-2.0,3.0,2.0,1651068270349555.0,3
1672,0.0,3.0,1.0,-4.0,-6.0,-3.0,-1.0,-2.0,1651068270362914.0,3
1673,2.0,2.0,-6.0,-4.0,0.0,2.0,0.0,0.0,1651068270362914.0,3
1674,-1.0,3.0,19.0,23.0,1.0,-3.0,-3.0,0.0,1651068270369606.0,3
1675,-2.0,-4.0,-26.0,4.0,4.0,-1.0,-6.0,-3.0,1651068270369606.0,3
1676,-2.0,-1.0,7.0,-24.0,-13.0,-3.0,0.0,1.0,1651068270385602.0,3
1677,1.0,3.0,18.0,18.0,15.0,4.0,-1.0,-1.0,1651068270385602.0,3
1678,0.0,-6.0,-16.0,-26.0,-14.0,2.0,2.0,-1.0,1651068270387558.0,3
1679,-2.0,-2.0,-7.0,0.0,4.0,-1.0,0.0,0.0,1651068270387558.0,3
1680,-1.0,2.0,9.0,3.0,0.0,-2.0,-2.0,-2.0,1651068270408486.0,3
1681,1.0,-2.0,-14.0,1.0,-5.0,-7.0,-4.0,-1.0,1651068270408486.0,3
1682,1.0,3.0,3.0,-1.0,10.0,5.0,2.0,1.0,1651068270409473.0,3
1683,0.0,0.0,22.0,1.0,-7.0,-2.0,-1.0,-2.0,1651068270409473.0,3
1684,-8.0,-4.0,-32.0,-11.0,3.0,3.0,1.0,-2.0,1651068270423031.0,3
1685,4.0,-3.0,-7.0,-3.0,-8.0,-2.0,0.0,0.0,1651068270423031.0,3
1686,-1.0,-1.0,-3.0,5.0,2.0,0.0,-1.0,-1.0,1651068270429437.0,3
1687,-1.0,1.0,17.0,4.0,-3.0,-2.0,-3.0,0.0,1651068270429437.0,3
1688,-2.0,-2.0,7.0,5.0,2.0,-2.0,-2.0,0.0,1651068270445428.0,3
1689,3.0,5.0,22.0,1.0,-1.0,0.0,2.0,4.0,1651068270445428.0,3
1690,-2.0,-2.0,-3.0,-1.0,-7.0,-2.0,-3.0,-2.0,1651068270447423.0,3
1691,-3.0,-6.0,-18.0,-9.0,-1.0,-1.0,-3.0,-1.0,1651068270447423.0,3
1692,0.0,-3.0,2.0,2.0,0.0,-1.0,-1.0,0.0,1651068270468587.0,3
1693,1.0,0.0,-8.0,2.0,-1.0,0.0,1.0,1.0,1651068270468587.0,3
1694,0.0,1.0,4.0,-1.0,1.0,-1.0,1.0,0.0,1651068270469518.0,3
1695,-1.0,-1.0,-6.0,0.0,4.0,1.0,0.0,-1.0,1651068270469518.0,3
1696,0.0,-1.0,-4.0,6.0,-4.0,-1.0,1.0,1.0,1651068270481555.0,3
1697,-2.0,-2.0,-8.0,0.0,0.0,1.0,2.0,-3.0,1651068270481555.0,3
1698,-2.0,2.0,7.0,4.0,2.0,0.0,-1.0,1.0,1651068270490589.0,3
1699,3.0,4.0,10.0,-4.0,-3.0,-3.0,-1.0,-1.0,1651068270490589.0,3
1700,-4.0,-3.0,13.0,-2.0,-3.0,-1.0,0.0,-1.0,1651068270513669.0,3
1701,-1.0,-3.0,-9.0,4.0,-3.0,-3.0,-3.0,-4.0,1651068270513669.0,3
1702,-1.0,1.0,5.0,19.0,2.0,2.0,-1.0,-2.0,1651068270514626.0,3
1703,-2.0,1.0,11.0,-20.0,-5.0,-1.0,-4.0,-2.0,1651068270514626.0,3
1704,2.0,-2.0,-4.0,-9.0,-1.0,0.0,-1.0,1.0,1651068270528657.0,3
1705,-2.0,-1.0,-2.0,-7.0,-3.0,0.0,-1.0,-1.0,1651068270528657.0,3
1706,1.0,-1.0,1.0,7.0,5.0,4.0,-1.0,1.0,1651068270529586.0,3
1707,0.0,0.0,2.0,0.0,1.0,-1.0,2.0,1.0,1651068270529586.0,3
1708,-1.0,-4.0,-21.0,-2.0,0.0,-2.0,-1.0,-1.0,1651068270541682.0,3
1709,-1.0,4.0,7.0,0.0,1.0,-1.0,1.0,0.0,1651068270541682.0,3
1710,-1.0,0.0,-1.0,-12.0,-5.0,-1.0,0.0,0.0,1651068270550749.0,3
1711,0.0,0.0,-6.0,8.0,3.0,1.0,0.0,0.0,1651068270550749.0,3
1712,2.0,-1.0,2.0,0.0,-1.0,-2.0,-2.0,0.0,1651068270565594.0,3
1713,1.0,-2.0,-10.0,7.0,2.0,-1.0,1.0,-1.0,1651068270565594.0,3
1714,1.0,2.0,9.0,-14.0,1.0,-1.0,1.0,-1.0,1651068270567549.0,3
1715,-1.0,-1.0,-8.0,6.0,0.0,1.0,0.0,-2.0,1651068270567549.0,3
1716,-3.0,-8.0,-59.0,-7.0,-4.0,-5.0,-2.0,-1.0,1651068270588511.0,3
1717,3.0,10.0,50.0,-9.0,-1.0,1.0,-1.0,0.0,1651068270588511.0,3
1718,0.0,-1.0,-5.0,-2.0,0.0,0.0,0.0,0.0,1651068270589446.0,3
1719,-1.0,-3.0,-5.0,7.0,1.0,1.0,0.0,-3.0,1651068270589446.0,3
1720,1.0,2.0,9.0,9.0,2.0,2.0,0.0,-2.0,1651068270602412.0,3
1721,0.0,-2.0,-16.0,-8.0,-4.0,-2.0,-2.0,1.0,1651068270602412.0,3
1722,-2.0,-1.0,-18.0,-1.0,1.0,-3.0,-1.0,-1.0,1651068270610503.0,3
1723,-1.0,0.0,20.0,9.0,-1.0,-1.0,-2.0,1.0,1651068270610503.0,3
1724,0.0,1.0,14.0,2.0,-1.0,2.0,3.0,-1.0,1651068270625517.0,3
1725,-3.0,-5.0,3.0,-3.0,-2.0,0.0,0.0,-3.0,1651068270625517.0,3
1726,2.0,0.0,1.0,-3.0,0.0,-2.0,-1.0,-1.0,1651068270627445.0,3
1727,0.0,0.0,-1.0,-1.0,-4.0,-3.0,-2.0,1.0,1651068270627445.0,3
1728,-2.0,-1.0,1.0,-1.0,-1.0,1.0,0.0,0.0,1651068270648605.0,3
1729,-1.0,-2.0,-17.0,3.0,3.0,3.0,1.0,0.0,1651068270648605.0,3
1730,-1.0,-4.0,-2.0,-5.0,-7.0,-1.0,-2.0,-1.0,1651068270649538.0,3
1731,0.0,2.0,4.0,-5.0,-1.0,-2.0,1.0,1.0,1651068270649538.0,3
1732,-2.0,-2.0,1.0,-12.0,-4.0,-5.0,-3.0,-3.0,1651068270661682.0,3
1733,0.0,-4.0,-14.0,-3.0,-5.0,0.0,2.0,1.0,1651068270661682.0,3
1734,1.0,3.0,18.0,11.0,2.0,-1.0,-1.0,0.0,1651068270670481.0,3
1735,-1.0,-4.0,-12.0,-6.0,-7.0,-3.0,0.0,0.0,1651068270670481.0,3
1736,1.0,-1.0,0.0,0.0,2.0,-1.0,-1.0,-1.0,1651068270685625.0,3
1737,-3.0,-3.0,-7.0,-4.0,2.0,-2.0,0.0,-1.0,1651068270685625.0,3
1738,1.0,1.0,4.0,-1.0,-1.0,-1.0,0.0,1.0,1651068270687558.0,3
1739,-1.0,-3.0,-22.0,-11.0,-1.0,2.0,1.0,0.0,1651068270687558.0,3
1740,1.0,0.0,4.0,7.0,-1.0,-3.0,-3.0,-1.0,1651068270708676.0,3
1741,-1.0,4.0,3.0,0.0,-1.0,0.0,0.0,-1.0,1651068270708676.0,3
1742,1.0,-1.0,-5.0,5.0,0.0,3.0,1.0,0.0,1651068270709655.0,3
1743,-1.0,-1.0,10.0,3.0,3.0,1.0,1.0,-1.0,1651068270709655.0,3
1744,0.0,0.0,1.0,0.0,-1.0,2.0,-4.0,-1.0,1651068270722419.0,3
1745,1.0,-5.0,-24.0,-2.0,0.0,0.0,1.0,0.0,1651068270722419.0,3
1746,0.0,7.0,33.0,9.0,0.0,-2.0,-2.0,-1.0,1651068270730466.0,3
1747,-3.0,-3.0,-20.0,-10.0,-3.0,0.0,1.0,-2.0,1651068270730466.0,3
1748,-1.0,3.0,10.0,9.0,6.0,1.0,3.0,0.0,1651068270745426.0,3
1749,-1.0,-3.0,-11.0,-5.0,3.0,7.0,0.0,1.0,1651068270745426.0,3
1750,-2.0,-3.0,-14.0,-2.0,-3.0,-3.0,-2.0,2.0,1651068270747355.0,3
1751,0.0,-4.0,-5.0,-5.0,-6.0,-6.0,-2.0,-1.0,1651068270747355.0,3
1752,1.0,4.0,14.0,1.0,7.0,4.0,3.0,2.0,1651068270768735.0,3
1753,-1.0,0.0,-1.0,0.0,-2.0,-3.0,-2.0,0.0,1651068270768735.0,3
1754,-2.0,-2.0,-5.0,1.0,7.0,7.0,2.0,0.0,1651068270769663.0,3
1755,-2.0,-1.0,-10.0,-1.0,6.0,5.0,0.0,-2.0,1651068270769663.0,3
1756,-2.0,1.0,4.0,2.0,-7.0,-2.0,-1.0,0.0,1651068270791042.0,3
1757,0.0,-2.0,8.0,6.0,-1.0,-4.0,0.0,0.0,1651068270791042.0,3
1758,-2.0,0.0,-3.0,-6.0,-6.0,-4.0,1.0,-2.0,1651068270792380.0,3
1759,1.0,-1.0,-8.0,-3.0,0.0,0.0,-3.0,-1.0,1651068270792380.0,3
1760,1.0,1.0,11.0,1.0,-2.0,-3.0,-1.0,0.0,1651068270805459.0,3
1761,0.0,0.0,-5.0,2.0,0.0,0.0,-1.0,0.0,1651068270805459.0,3
1762,-1.0,1.0,7.0,3.0,-3.0,-3.0,-3.0,-1.0,1651068270807388.0,3
1763,0.0,2.0,3.0,0.0,-1.0,0.0,1.0,0.0,1651068270807388.0,3
1764,-2.0,-5.0,-14.0,-1.0,10.0,6.0,1.0,1.0,1651068270828515.0,3
1765,1.0,4.0,23.0,3.0,-5.0,-2.0,-1.0,0.0,1651068270828515.0,3
1766,-1.0,-1.0,-5.0,-1.0,-2.0,-2.0,-1.0,-1.0,1651068270829478.0,3
1767,0.0,-1.0,2.0,-1.0,3.0,-2.0,-1.0,0.0,1651068270829478.0,3
1768,1.0,1.0,-2.0,1.0,-6.0,-1.0,-1.0,0.0,1651068270841531.0,3
1769,-2.0,-1.0,18.0,3.0,-14.0,-6.0,-2.0,-2.0,1651068270841531.0,3
1770,-1.0,-1.0,-11.0,0.0,9.0,-1.0,2.0,0.0,1651068270850563.0,3
1771,-1.0,1.0,11.0,4.0,4.0,5.0,1.0,3.0,1651068270850563.0,3
1772,0.0,3.0,-5.0,-11.0,-5.0,-3.0,-1.0,1.0,1651068270873512.0,3
1773,-1.0,0.0,6.0,5.0,1.0,-1.0,-2.0,0.0,1651068270873512.0,3
1774,0.0,-4.0,-28.0,-14.0,-10.0,-6.0,-4.0,-1.0,1651068270874443.0,3
1775,1.0,0.0,13.0,6.0,-2.0,-3.0,2.0,-2.0,1651068270874443.0,3
1776,-1.0,1.0,14.0,3.0,4.0,6.0,2.0,-1.0,1651068270888472.0,3
1777,1.0,-1.0,-5.0,-2.0,3.0,-1.0,0.0,-2.0,1651068270888472.0,3
1778,0.0,2.0,8.0,2.0,-2.0,2.0,0.0,-1.0,1651068270889403.0,3
1779,-2.0,-2.0,-9.0,-5.0,-2.0,0.0,-3.0,-2.0,1651068270889403.0,3
1780,-2.0,-1.0,-9.0,-3.0,-2.0,-4.0,-1.0,-1.0,1651068270902367.0,3
1781,1.0,-1.0,-13.0,-5.0,1.0,0.0,1.0,-2.0,1651068270902367.0,3
1782,1.0,0.0,29.0,7.0,-1.0,1.0,0.0,-1.0,1651068270911350.0,3
1783,0.0,-2.0,-6.0,-4.0,-5.0,-3.0,-4.0,-1.0,1651068270911350.0,3
1784,-1.0,0.0,-1.0,2.0,-6.0,-6.0,-1.0,-1.0,1651068270925390.0,3
1785,0.0,2.0,10.0,4.0,6.0,5.0,0.0,-1.0,1651068270925390.0,3
1786,-1.0,-3.0,-5.0,0.0,3.0,2.0,1.0,0.0,1651068270927385.0,3
1787,1.0,1.0,6.0,-1.0,-7.0,-5.0,-1.0,-2.0,1651068270927385.0,3
1788,-2.0,-2.0,13.0,5.0,-2.0,1.0,-1.0,-2.0,1651068270948530.0,3
1789,-1.0,2.0,15.0,8.0,-1.0,-6.0,0.0,1.0,1651068270948530.0,3
1790,-2.0,0.0,-16.0,-4.0,10.0,9.0,3.0,2.0,1651068270949496.0,3
1791,-2.0,-1.0,5.0,3.0,2.0,-1.0,0.0,1.0,1651068270949496.0,3
1792,1.0,-1.0,-7.0,-3.0,1.0,0.0,1.0,0.0,1651068270962434.0,3
1793,0.0,-4.0,-1.0,-4.0,-11.0,-5.0,1.0,-1.0,1651068270962434.0,3
1794,-2.0,-2.0,-14.0,-1.0,-5.0,-6.0,-4.0,-2.0,1651068270970414.0,3
1795,-2.0,-1.0,1.0,4.0,-1.0,0.0,-1.0,1.0,1651068270970414.0,3
1796,0.0,0.0,-3.0,-5.0,1.0,3.0,0.0,1.0,1651068270985439.0,3
1797,-2.0,0.0,-11.0,-7.0,1.0,1.0,0.0,2.0,1651068270985439.0,3
1798,0.0,1.0,-2.0,0.0,2.0,1.0,1.0,0.0,1651068270987367.0,3
1799,1.0,-2.0,-14.0,-8.0,-5.0,-4.0,0.0,0.0,1651068270987367.0,3
1800,2.0,4.0,9.0,6.0,3.0,6.0,0.0,-1.0,1651068271008463.0,3
1801,-1.0,-2.0,-8.0,-2.0,-3.0,-3.0,-2.0,-1.0,1651068271008463.0,3
1802,0.0,0.0,16.0,5.0,8.0,8.0,3.0,0.0,1651068271009393.0,3
1803,0.0,0.0,-12.0,-2.0,-3.0,-3.0,-1.0,0.0,1651068271009393.0,3
1804,-1.0,-3.0,4.0,2.0,-1.0,-5.0,-1.0,-1.0,1651068271022251.0,3
1805,-1.0,0.0,-14.0,-4.0,-3.0,-6.0,-3.0,-1.0,1651068271022251.0,3
1806,1.0,1.0,19.0,-3.0,-13.0,0.0,1.0,-1.0,1651068271031276.0,3
1807,-2.0,-1.0,6.0,5.0,14.0,6.0,0.0,1.0,1651068271031276.0,3
1808,0.0,0.0,-5.0,-1.0,-6.0,-4.0,-1.0,-1.0,1651068271046206.0,3
1809,0.0,0.0,-2.0,1.0,3.0,0.0,-2.0,2.0,1651068271046206.0,3
1810,0.0,-4.0,-12.0,-8.0,-7.0,-3.0,-2.0,1.0,1651068271047603.0,3
1811,0.0,3.0,11.0,6.0,0.0,-1.0,1.0,0.0,1651068271047603.0,3
1812,-2.0,-1.0,-6.0,-3.0,-1.0,0.0,-2.0,0.0,1651068271068424.0,3
1813,-2.0,-1.0,1.0,-3.0,-2.0,3.0,0.0,-2.0,1651068271068424.0,3
1814,-2.0,0.0,-6.0,2.0,9.0,-2.0,0.0,-1.0,1651068271070350.0,3
1815,1.0,0.0,2.0,-1.0,-2.0,1.0,-1.0,-2.0,1651068271070350.0,3
1816,0.0,0.0,-2.0,-2.0,-5.0,-4.0,-1.0,-1.0,1651068271081639.0,3
1817,0.0,-2.0,-3.0,-2.0,0.0,2.0,0.0,-2.0,1651068271081639.0,3
1818,-1.0,0.0,-5.0,1.0,-9.0,-5.0,-2.0,-3.0,1651068271090635.0,3
1819,0.0,3.0,18.0,7.0,3.0,-6.0,-4.0,0.0,1651068271090635.0,3
1820,2.0,1.0,-3.0,3.0,7.0,13.0,6.0,2.0,1651068271105783.0,3
1821,0.0,-1.0,-1.0,-3.0,9.0,13.0,5.0,2.0,1651068271105783.0,3
1822,-2.0,-1.0,-4.0,-6.0,-6.0,-3.0,-1.0,-1.0,1651068271107583.0,3
1823,-2.0,-2.0,4.0,0.0,-5.0,-3.0,-1.0,-4.0,1651068271107583.0,3
1824,0.0,0.0,-1.0,-2.0,-7.0,-11.0,-5.0,0.0,1651068271128595.0,3
1825,0.0,0.0,4.0,6.0,3.0,-2.0,-2.0,-1.0,1651068271128595.0,3
1826,0.0,-1.0,-1.0,-3.0,2.0,1.0,0.0,0.0,1651068271129524.0,3
1827,-1.0,-3.0,-7.0,-6.0,-4.0,-1.0,0.0,0.0,1651068271129524.0,3
1828,-2.0,0.0,-4.0,5.0,1.0,0.0,0.0,2.0,1651068271150588.0,3
1829,0.0,1.0,6.0,-3.0,-2.0,0.0,1.0,1.0,1651068271150588.0,3
1830,-1.0,1.0,11.0,9.0,-4.0,-8.0,-2.0,-2.0,1651068271152516.0,3
1831,-2.0,1.0,1.0,-6.0,9.0,6.0,2.0,0.0,1651068271152516.0,3
1832,-1.0,-3.0,-12.0,-4.0,8.0,11.0,4.0,-1.0,1651068271165787.0,3
1833,-1.0,1.0,1.0,1.0,-1.0,-5.0,-1.0,-2.0,1651068271165787.0,3
1834,-2.0,0.0,-4.0,-2.0,-7.0,-3.0,-2.0,-1.0,1651068271167606.0,3
1835,0.0,-1.0,-3.0,-3.0,-7.0,-2.0,-1.0,0.0,1651068271167606.0,3
1836,-2.0,-2.0,3.0,2.0,1.0,-4.0,-3.0,-1.0,1651068271188476.0,3
1837,-1.0,-1.0,-5.0,-4.0,0.0,-2.0,-3.0,1.0,1651068271188476.0,3
1838,1.0,-3.0,-4.0,-4.0,1.0,-2.0,0.0,1.0,1651068271189407.0,3
1839,0.0,4.0,8.0,8.0,3.0,0.0,0.0,-1.0,1651068271189407.0,3
1840,-1.0,0.0,-9.0,-8.0,-7.0,-3.0,0.0,-1.0,1651068271210712.0,3
1841,0.0,0.0,0.0,7.0,-2.0,2.0,0.0,-1.0,1651068271210712.0,3
1842,0.0,0.0,0.0,0.0,3.0,3.0,1.0,0.0,1651068271212709.0,3
1843,-3.0,-2.0,-4.0,-6.0,-6.0,-3.0,-1.0,-2.0,1651068271212709.0,3
1844,-1.0,-1.0,6.0,0.0,-7.0,-7.0,-3.0,-2.0,1651068271225864.0,3
1845,0.0,-1.0,-7.0,-4.0,0.0,-1.0,-1.0,-2.0,1651068271225864.0,3
1846,-1.0,-1.0,0.0,-3.0,-15.0,-9.0,-2.0,0.0,1651068271227669.0,3
1847,-1.0,-1.0,-5.0,3.0,15.0,7.0,5.0,2.0,1651068271227669.0,3
1848,-1.0,-1.0,-2.0,0.0,-2.0,3.0,-1.0,0.0,1651068271248779.0,3
1849,-2.0,-1.0,-4.0,-4.0,0.0,-1.0,-2.0,-1.0,1651068271248779.0,3
1850,1.0,-1.0,-6.0,-4.0,3.0,1.0,-2.0,-1.0,1651068271249763.0,3
1851,-2.0,-1.0,-1.0,-1.0,-10.0,-7.0,-2.0,-2.0,1651068271249763.0,3
1852,0.0,-2.0,1.0,-1.0,2.0,4.0,0.0,0.0,1651068271270946.0,3
1853,-1.0,-1.0,6.0,4.0,0.0,-1.0,2.0,-1.0,1651068271270946.0,3
1854,-2.0,-1.0,-1.0,0.0,0.0,-2.0,0.0,-1.0,1651068271271943.0,3
1855,1.0,-1.0,-5.0,-3.0,-10.0,-1.0,-1.0,0.0,1651068271271943.0,3
1856,0.0,1.0,3.0,1.0,9.0,3.0,0.0,-3.0,1651068271285539.0,3
1857,0.0,1.0,-3.0,-2.0,-5.0,-1.0,-2.0,1.0,1651068271285539.0,3
1858,0.0,-1.0,-4.0,-3.0,-2.0,-1.0,-3.0,0.0,1651068271292362.0,3
1859,0.0,-2.0,-1.0,5.0,2.0,1.0,-2.0,0.0,1651068271292362.0,3
1860,1.0,0.0,-10.0,-4.0,-2.0,5.0,3.0,1.0,1651068271308334.0,3
1861,0.0,0.0,4.0,0.0,-4.0,-1.0,0.0,-1.0,1651068271308334.0,3
1862,0.0,-1.0,0.0,2.0,11.0,11.0,1.0,1.0,1651068271310262.0,3
1863,0.0,-2.0,-5.0,-4.0,-3.0,-3.0,0.0,-1.0,1651068271310262.0,3
1864,-1.0,1.0,5.0,2.0,-6.0,-10.0,-2.0,-1.0,1651068271331027.0,3
1865,-1.0,1.0,-1.0,0.0,5.0,6.0,1.0,-1.0,1651068271331027.0,3
1866,-1.0,-3.0,-8.0,-3.0,2.0,-1.0,-1.0,1.0,1651068271331994.0,3
1867,-1.0,-1.0,-3.0,-4.0,-1.0,2.0,-2.0,0.0,1651068271331994.0,3
1868,-2.0,-2.0,-13.0,-3.0,-5.0,-5.0,-4.0,0.0,1651068271344950.0,3
1869,0.0,1.0,4.0,1.0,0.0,0.0,3.0,1.0,1651068271344950.0,3
1870,-2.0,1.0,2.0,1.0,2.0,1.0,1.0,-3.0,1651068271351970.0,3
1871,-1.0,1.0,-5.0,-3.0,0.0,-1.0,1.0,-2.0,1651068271351970.0,3
1872,0.0,1.0,3.0,-1.0,-7.0,-5.0,-2.0,0.0,1651068271367928.0,3
1873,-1.0,-4.0,-6.0,5.0,0.0,-5.0,-2.0,0.0,1651068271367928.0,3
1874,0.0,0.0,-5.0,1.0,6.0,10.0,2.0,2.0,1651068271369868.0,3
1875,1.0,0.0,-14.0,-3.0,8.0,4.0,2.0,-1.0,1651068271369868.0,3
1876,-1.0,-1.0,4.0,-2.0,-3.0,-4.0,-2.0,-1.0,1651068271391042.0,3
1877,0.0,0.0,3.0,0.0,-3.0,-3.0,0.0,-1.0,1651068271391042.0,0
1878,-2.0,0.0,1.0,-5.0,-7.0,-2.0,-1.0,0.0,1651068271392665.0,0
1879,-1.0,0.0,0.0,0.0,2.0,0.0,-1.0,-1.0,1651068271392665.0,0
1880,0.0,-1.0,3.0,-4.0,-6.0,-5.0,0.0,-1.0,1651068271405462.0,0
1881,-3.0,-1.0,-10.0,-4.0,-1.0,2.0,0.0,-2.0,1651068271405462.0,0
1882,-1.0,0.0,3.0,-2.0,-3.0,-6.0,0.0,0.0,1651068271412387.0,0
1883,0.0,-2.0,4.0,3.0,11.0,9.0,1.0,1.0,1651068271412387.0,0
1884,-1.0,-1.0,3.0,0.0,0.0,-2.0,1.0,0.0,1651068271428311.0,0
1885,0.0,-1.0,2.0,1.0,1.0,1.0,-1.0,0.0,1651068271428311.0,0
1886,0.0,1.0,0.0,-3.0,-4.0,-4.0,0.0,0.0,1651068271430293.0,0
1887,-2.0,-1.0,-4.0,-4.0,-10.0,-2.0,0.0,-1.0,1651068271430293.0,0
1888,-1.0,2.0,21.0,9.0,-5.0,-2.0,-2.0,-1.0,1651068271450395.0,0
1889,0.0,-2.0,-26.0,-8.0,14.0,8.0,1.0,-1.0,1651068271450395.0,0
1890,1.0,1.0,2.0,4.0,-5.0,0.0,-1.0,2.0,1651068271458373.0,0
1891,2.0,-1.0,-4.0,-1.0,-1.0,2.0,0.0,1.0,1651068271458373.0,0
1892,-3.0,-1.0,3.0,0.0,0.0,3.0,0.0,-1.0,1651068271465162.0,0
1893,1.0,1.0,5.0,-3.0,-7.0,-7.0,-2.0,0.0,1651068271465162.0,0
1894,0.0,0.0,2.0,2.0,-2.0,-4.0,-1.0,-3.0,1651068271472199.0,0
1895,0.0,-2.0,-3.0,-2.0,-3.0,-2.0,-1.0,-2.0,1651068271472199.0,0
1896,1.0,0.0,-4.0,-1.0,5.0,2.0,0.0,-1.0,1651068271488187.0,0
1897,-1.0,-2.0,6.0,4.0,-5.0,-5.0,-4.0,1.0,1651068271488187.0,0
1898,0.0,-1.0,-5.0,-2.0,6.0,4.0,1.0,0.0,1651068271490183.0,0
1899,0.0,-1.0,7.0,-2.0,-11.0,-5.0,0.0,1.0,1651068271490183.0,0
1900,1.0,0.0,-7.0,4.0,9.0,6.0,4.0,-1.0,1651068271510433.0,0
1901,-1.0,0.0,-3.0,1.0,2.0,4.0,2.0,-1.0,1651068271510433.0,0
1902,1.0,2.0,23.0,3.0,5.0,6.0,1.0,-2.0,1651068271512430.0,0
1903,0.0,1.0,0.0,1.0,-2.0,-2.0,1.0,0.0,1651068271512430.0,0
1904,-1.0,-1.0,-4.0,-3.0,-4.0,-1.0,-2.0,-1.0,1651068271525363.0,0
1905,1.0,0.0,0.0,-2.0,-5.0,-3.0,-3.0,0.0,1651068271525363.0,0
1906,0.0,1.0,0.0,-2.0,-1.0,0.0,0.0,1.0,1651068271539458.0,0
1907,-2.0,-3.0,-5.0,-2.0,-1.0,-1.0,-3.0,-2.0,1651068271539458.0,0
1908,-1.0,0.0,7.0,-2.0,-6.0,-5.0,0.0,0.0,1651068271548491.0,0
1909,0.0,-1.0,-22.0,-12.0,-8.0,-7.0,-1.0,0.0,1651068271548491.0,0
1910,1.0,-2.0,-1.0,7.0,18.0,17.0,5.0,0.0,1651068271549422.0,0
1911,-1.0,2.0,6.0,0.0,-4.0,-3.0,0.0,0.0,1651068271549422.0,0
1912,-1.0,-1.0,-4.0,-2.0,-1.0,-2.0,1.0,-3.0,1651068271571362.0,0
1913,-1.0,-1.0,5.0,0.0,-7.0,-7.0,-3.0,-1.0,1651068271571362.0,0
1914,-1.0,-2.0,-6.0,-2.0,-8.0,-11.0,-4.0,-1.0,1651068271572366.0,0
1915,-1.0,-1.0,-2.0,1.0,3.0,4.0,0.0,2.0,1651068271572366.0,0
1916,-1.0,-3.0,-3.0,-1.0,-3.0,0.0,0.0,0.0,1651068271585361.0,0
1917,1.0,1.0,12.0,4.0,7.0,3.0,1.0,-1.0,1651068271585361.0,0
1918,-1.0,-2.0,-2.0,2.0,-5.0,-2.0,-1.0,-1.0,1651068271592357.0,0
1919,0.0,2.0,0.0,1.0,5.0,-2.0,0.0,0.0,1651068271592357.0,0
1920,0.0,1.0,-1.0,-1.0,6.0,2.0,-2.0,-1.0,1651068271608079.0,0
1921,-1.0,-1.0,4.0,4.0,0.0,5.0,0.0,0.0,1651068271608079.0,0
1922,-3.0,-1.0,-4.0,0.0,-5.0,-5.0,-2.0,0.0,1651068271610034.0,0
1923,0.0,-1.0,-2.0,-6.0,-10.0,-10.0,-3.0,-3.0,1651068271610034.0,0
1924,0.0,0.0,-3.0,4.0,8.0,11.0,3.0,0.0,1651068271630526.0,0
1925,0.0,1.0,8.0,2.0,5.0,0.0,1.0,2.0,1651068271630526.0,0
1926,-3.0,-2.0,-21.0,-13.0,-4.0,-5.0,-2.0,-3.0,1651068271632523.0,0
1927,1.0,-1.0,-3.0,2.0,-3.0,-2.0,-1.0,0.0,1651068271632523.0,0
1928,0.0,-1.0,2.0,-5.0,-10.0,-7.0,-3.0,-2.0,1651068271644499.0,0
