,EMG_s0,EMG_s1,EMG_s2,EMG_s3,EMG_s4,EMG_s5,EMG_s6,EMG_s7,timestamp,signal
0,0.0,-1.0,-1.0,0.0,1.0,-2.0,-1.0,-2.0,1651069657612015.0,0
1,-2.0,1.0,-1.0,-1.0,-4.0,1.0,1.0,0.0,1651069657612015.0,0
2,0.0,-2.0,0.0,1.0,0.0,-4.0,-2.0,-1.0,1651069657612015.0,0
3,-1.0,-2.0,0.0,0.0,2.0,-3.0,-2.0,0.0,1651069657612015.0,0
4,-1.0,-2.0,-2.0,-3.0,-3.0,4.0,-1.0,1.0,1651069657626478.0,0
5,0.0,0.0,0.0,0.0,5.0,-2.0,-2.0,-3.0,1651069657626478.0,0
6,0.0,-1.0,0.0,-3.0,-5.0,-3.0,0.0,-1.0,1651069657633527.0,0
7,0.0,-1.0,-1.0,1.0,0.0,-3.0,1.0,1.0,1651069657633527.0,0
8,0.0,-1.0,1.0,1.0,-1.0,4.0,1.0,-2.0,1651069657649485.0,0
9,0.0,-2.0,-2.0,-3.0,-8.0,-5.0,-1.0,-1.0,1651069657649485.0,0
10,-1.0,-1.0,-1.0,3.0,10.0,5.0,-2.0,1.0,1651069657649485.0,0
11,-1.0,1.0,-2.0,-1.0,-4.0,-1.0,-1.0,-2.0,1651069657649485.0,0
12,0.0,-2.0,-1.0,-3.0,-3.0,-5.0,-2.0,-1.0,1651069657671426.0,0
13,2.0,0.0,0.0,1.0,4.0,3.0,2.0,0.0,1651069657671426.0,0
14,0.0,0.0,-2.0,-3.0,-12.0,-2.0,-2.0,0.0,1651069657672359.0,0
15,0.0,0.0,1.0,-1.0,-2.0,-1.0,-1.0,0.0,1651069657672359.0,0
16,-1.0,1.0,0.0,-1.0,0.0,0.0,-1.0,1.0,1651069657694485.0,0
17,-1.0,0.0,2.0,2.0,2.0,4.0,1.0,-1.0,1651069657694485.0,0
18,1.0,-1.0,-2.0,-3.0,-8.0,-3.0,0.0,-1.0,1651069657695415.0,0
19,-1.0,0.0,0.0,0.0,1.0,-1.0,0.0,-1.0,1651069657695415.0,0
20,0.0,-1.0,-1.0,0.0,-2.0,-2.0,-2.0,1.0,1651069657709445.0,0
21,0.0,0.0,-1.0,1.0,3.0,2.0,-1.0,-1.0,1651069657709445.0,0
22,-1.0,0.0,1.0,-4.0,-1.0,-3.0,-1.0,-1.0,1651069657710377.0,0
23,-1.0,0.0,0.0,-1.0,0.0,1.0,0.0,0.0,1651069657710377.0,0
24,-2.0,-1.0,-1.0,1.0,3.0,-1.0,-1.0,0.0,1651069657731386.0,0
25,0.0,-1.0,0.0,-1.0,1.0,1.0,0.0,1.0,1651069657731386.0,0
26,0.0,0.0,0.0,0.0,-3.0,-2.0,-1.0,-1.0,1651069657732524.0,0
27,1.0,-2.0,-4.0,-1.0,4.0,4.0,0.0,1.0,1651069657732524.0,0
28,0.0,0.0,-1.0,-1.0,-4.0,-6.0,-1.0,-2.0,1651069657754516.0,0
29,0.0,-1.0,0.0,-2.0,-5.0,-3.0,-1.0,-1.0,1651069657754516.0,0
30,0.0,-2.0,-4.0,-2.0,-5.0,0.0,-1.0,-1.0,1651069657754516.0,0
31,-1.0,0.0,2.0,3.0,10.0,-2.0,1.0,1.0,1651069657754516.0,0
32,1.0,0.0,0.0,-1.0,-4.0,3.0,0.0,0.0,1651069657769495.0,0
33,-2.0,0.0,-2.0,1.0,-3.0,-3.0,0.0,-2.0,1651069657769495.0,0
34,-1.0,0.0,1.0,0.0,4.0,-2.0,1.0,0.0,1651069657770407.0,0
35,0.0,0.0,-2.0,-2.0,-5.0,2.0,1.0,0.0,1651069657770407.0,0
36,-2.0,0.0,-1.0,-2.0,1.0,-2.0,0.0,-1.0,1651069657791616.0,0
37,-1.0,0.0,-2.0,0.0,2.0,-1.0,0.0,0.0,1651069657791616.0,0
38,-2.0,0.0,2.0,-3.0,-5.0,-7.0,-3.0,0.0,1651069657792546.0,0
39,0.0,0.0,0.0,3.0,3.0,5.0,-1.0,-1.0,1651069657792546.0,0
40,-2.0,0.0,0.0,-1.0,-2.0,-5.0,-1.0,-1.0,1651069657814586.0,0
41,-1.0,0.0,0.0,1.0,2.0,3.0,1.0,1.0,1651069657814586.0,0
42,0.0,0.0,-3.0,-1.0,0.0,1.0,0.0,0.0,1651069657814837.0,0
43,0.0,1.0,0.0,0.0,2.0,2.0,-1.0,-1.0,1651069657814837.0,0
44,0.0,1.0,0.0,1.0,-3.0,-4.0,-2.0,-2.0,1651069657829040.0,0
45,1.0,0.0,-1.0,-1.0,5.0,4.0,0.0,2.0,1651069657829040.0,0
46,1.0,0.0,-1.0,3.0,2.0,-1.0,-1.0,-2.0,1651069657829969.0,0
47,-3.0,-1.0,1.0,-2.0,-8.0,0.0,1.0,1.0,1651069657829969.0,0
48,-2.0,0.0,0.0,1.0,1.0,-1.0,1.0,-1.0,1651069657851976.0,0
49,-3.0,-1.0,0.0,-3.0,-3.0,-4.0,-1.0,-2.0,1651069657851976.0,0
50,-1.0,-1.0,-2.0,0.0,1.0,-1.0,-1.0,0.0,1651069657852907.0,0
51,0.0,-1.0,-3.0,0.0,-1.0,-1.0,-2.0,-1.0,1651069657852907.0,0
52,1.0,1.0,1.0,-1.0,0.0,1.0,0.0,0.0,1651069657873918.0,0
53,0.0,1.0,-1.0,1.0,-1.0,0.0,1.0,-1.0,1651069657873918.0,0
54,-1.0,-1.0,1.0,0.0,-1.0,-5.0,-1.0,-1.0,1651069657874848.0,0
55,-1.0,-1.0,-3.0,-1.0,2.0,3.0,1.0,0.0,1651069657874848.0,0
56,-2.0,-2.0,-2.0,-1.0,-1.0,-1.0,-1.0,-1.0,1651069657888877.0,0
57,1.0,-3.0,0.0,-1.0,1.0,1.0,0.0,-1.0,1651069657888877.0,0
58,-1.0,0.0,0.0,-2.0,-5.0,-1.0,-1.0,0.0,1651069657889808.0,0
59,0.0,0.0,0.0,-1.0,-5.0,-6.0,-3.0,-1.0,1651069657889808.0,0
60,-1.0,-2.0,-1.0,0.0,3.0,0.0,0.0,-1.0,1651069657911418.0,0
61,-1.0,-1.0,-1.0,0.0,1.0,0.0,-2.0,-1.0,1651069657911418.0,0
62,0.0,-1.0,1.0,1.0,0.0,-1.0,2.0,0.0,1651069657912346.0,0
63,-1.0,0.0,-2.0,0.0,-3.0,-1.0,1.0,0.0,1651069657912346.0,0
64,-1.0,-1.0,-1.0,1.0,-4.0,-1.0,0.0,-1.0,1651069657934212.0,0
65,-1.0,-2.0,-2.0,-1.0,-3.0,-6.0,-3.0,-2.0,1651069657934212.0,0
66,-1.0,0.0,-2.0,0.0,3.0,4.0,1.0,1.0,1651069657935212.0,0
67,0.0,0.0,1.0,-2.0,-3.0,-7.0,-2.0,0.0,1651069657935212.0,0
68,-1.0,1.0,-3.0,-5.0,-1.0,-1.0,0.0,0.0,1651069657949190.0,0
69,-1.0,1.0,0.0,3.0,7.0,-1.0,-3.0,-1.0,1651069657949190.0,0
70,0.0,0.0,0.0,-1.0,-4.0,-2.0,0.0,-2.0,1651069657950172.0,0
71,1.0,-1.0,0.0,0.0,-7.0,-2.0,-1.0,-1.0,1651069657950172.0,0
72,0.0,-1.0,-1.0,2.0,9.0,2.0,-1.0,0.0,1651069657971388.0,0
73,-3.0,-1.0,-1.0,-3.0,-4.0,-2.0,0.0,-1.0,1651069657971388.0,0
74,0.0,0.0,0.0,1.0,-3.0,1.0,-1.0,-2.0,1651069657979366.0,0
75,-2.0,-1.0,-2.0,-3.0,-1.0,-2.0,0.0,-1.0,1651069657979366.0,0
76,0.0,0.0,-1.0,1.0,-2.0,-1.0,-2.0,0.0,1651069657994261.0,0
77,-1.0,-2.0,-1.0,-2.0,-3.0,0.0,1.0,-1.0,1651069657994261.0,0
78,1.0,1.0,0.0,0.0,-3.0,-2.0,0.0,3.0,1651069657995284.0,0
79,-2.0,-2.0,0.0,-2.0,2.0,0.0,0.0,-3.0,1651069657995284.0,0
80,1.0,-1.0,1.0,2.0,-1.0,1.0,1.0,0.0,1651069658017697.0,0
81,0.0,0.0,-1.0,-3.0,-2.0,-4.0,-1.0,-2.0,1651069658017697.0,0
82,-2.0,-2.0,-3.0,-2.0,-1.0,0.0,-1.0,-2.0,1651069658017697.0,0
83,0.0,0.0,-1.0,-1.0,1.0,0.0,-1.0,-1.0,1651069658017697.0,0
84,-1.0,-1.0,-1.0,-1.0,-1.0,0.0,1.0,-1.0,1651069658030715.0,0
85,-1.0,-1.0,-1.0,1.0,-7.0,-5.0,-1.0,-1.0,1651069658030715.0,0
86,1.0,-1.0,0.0,1.0,9.0,7.0,1.0,-1.0,1651069658039708.0,0
87,-1.0,1.0,-2.0,-1.0,0.0,1.0,-1.0,-2.0,1651069658039708.0,0
88,-2.0,-1.0,0.0,0.0,-2.0,-3.0,0.0,1.0,1651069658054686.0,0
89,1.0,0.0,1.0,4.0,5.0,2.0,-1.0,0.0,1651069658054686.0,0
90,-1.0,-1.0,-2.0,-2.0,-3.0,0.0,-2.0,-1.0,1651069658054686.0,0
91,-3.0,-1.0,0.0,-1.0,-3.0,1.0,0.0,0.0,1651069658054686.0,0
92,-1.0,-2.0,-1.0,0.0,1.0,-3.0,-2.0,-1.0,1651069658077764.0,0
93,1.0,-1.0,-4.0,-3.0,0.0,6.0,3.0,1.0,1651069658077764.0,0
94,1.0,-2.0,0.0,1.0,6.0,2.0,-1.0,0.0,1651069658077764.0,0
95,1.0,0.0,1.0,0.0,-2.0,-1.0,-1.0,-1.0,1651069658077764.0,0
96,-3.0,-1.0,1.0,0.0,-2.0,-5.0,-2.0,2.0,1651069658091410.0,0
97,-1.0,-1.0,-1.0,-3.0,-4.0,1.0,-1.0,0.0,1651069658091410.0,0
98,-1.0,1.0,0.0,0.0,-1.0,0.0,0.0,-2.0,1651069658099637.0,0
99,-2.0,-1.0,0.0,-1.0,-7.0,-4.0,-2.0,1.0,1651069658099637.0,0
100,1.0,1.0,1.0,3.0,10.0,5.0,0.0,-1.0,1651069658114559.0,0
101,-1.0,1.0,-1.0,-1.0,0.0,-2.0,-1.0,-1.0,1651069658114559.0,0
102,0.0,1.0,1.0,-2.0,-4.0,-2.0,1.0,0.0,1651069658115292.0,0
103,-1.0,-2.0,-2.0,1.0,1.0,-2.0,-2.0,-1.0,1651069658115292.0,0
104,-2.0,0.0,1.0,-1.0,-4.0,-2.0,-1.0,0.0,1651069658137370.0,0
105,0.0,-1.0,-2.0,0.0,3.0,0.0,-1.0,0.0,1651069658137370.0,0
106,0.0,-1.0,0.0,-4.0,-7.0,-4.0,-1.0,-1.0,1651069658138368.0,0
107,0.0,-1.0,0.0,-1.0,4.0,8.0,2.0,1.0,1651069658138368.0,0
108,0.0,-2.0,-1.0,-1.0,2.0,3.0,-1.0,-1.0,1651069658151401.0,0
109,-2.0,0.0,-1.0,-1.0,-1.0,0.0,-1.0,0.0,1651069658151401.0,0
110,-1.0,-1.0,-2.0,1.0,-1.0,-3.0,-2.0,-1.0,1651069658159382.0,0
111,2.0,-1.0,0.0,-2.0,1.0,-1.0,-1.0,-1.0,1651069658159382.0,0
112,0.0,0.0,-1.0,1.0,1.0,2.0,1.0,-2.0,1651069658174610.0,0
113,0.0,0.0,0.0,-1.0,-3.0,-2.0,-1.0,-1.0,1651069658174610.0,0
114,-1.0,-1.0,-1.0,1.0,1.0,-1.0,0.0,-3.0,1651069658175161.0,0
115,1.0,1.0,0.0,0.0,2.0,1.0,1.0,-1.0,1651069658175161.0,0
116,-1.0,1.0,-1.0,-4.0,-5.0,-1.0,0.0,-1.0,1651069658196474.0,0
117,-1.0,0.0,0.0,-2.0,-10.0,-6.0,-1.0,-1.0,1651069658196474.0,0
118,0.0,-2.0,0.0,1.0,11.0,5.0,-1.0,0.0,1651069658204424.0,0
119,1.0,0.0,-2.0,-1.0,-1.0,-1.0,0.0,-1.0,1651069658204424.0,0
120,-1.0,-3.0,-3.0,-1.0,-1.0,0.0,-1.0,0.0,1651069658220310.0,0
121,0.0,-1.0,-2.0,0.0,1.0,2.0,0.0,1.0,1651069658220310.0,0
122,0.0,0.0,-1.0,-3.0,-3.0,-1.0,-3.0,1.0,1651069658220310.0,0
123,-1.0,0.0,0.0,3.0,6.0,0.0,-1.0,-2.0,1651069658220310.0,0
124,2.0,0.0,-1.0,-5.0,-11.0,-1.0,1.0,1.0,1651069658234584.0,0
125,0.0,0.0,-1.0,-1.0,8.0,1.0,-1.0,-1.0,1651069658234584.0,0
126,-1.0,-1.0,0.0,-2.0,-8.0,0.0,1.0,0.0,1651069658235318.0,0
127,-1.0,-2.0,-1.0,2.0,8.0,1.0,-2.0,0.0,1651069658235318.0,0
128,0.0,-2.0,-1.0,0.0,1.0,-1.0,-1.0,-1.0,1651069658257430.0,0
129,0.0,-1.0,0.0,-4.0,-4.0,-2.0,-2.0,0.0,1651069658257430.0,0
130,0.0,-2.0,-2.0,1.0,0.0,1.0,0.0,1.0,1651069658258360.0,0
131,-1.0,0.0,-2.0,-2.0,-5.0,-3.0,-2.0,1.0,1651069658258360.0,0
132,0.0,-1.0,-1.0,0.0,-3.0,-2.0,0.0,-2.0,1651069658279318.0,0
133,0.0,0.0,0.0,0.0,0.0,2.0,-1.0,0.0,1651069658279318.0,0
134,-3.0,0.0,-3.0,-2.0,-1.0,-3.0,-3.0,0.0,1651069658287295.0,0
135,0.0,0.0,2.0,-2.0,-3.0,-2.0,-1.0,0.0,1651069658287295.0,0
136,-1.0,1.0,0.0,1.0,0.0,0.0,-3.0,-2.0,1651069658294300.0,0
137,-1.0,0.0,0.0,1.0,-2.0,-3.0,0.0,0.0,1651069658294300.0,0
138,-1.0,0.0,0.0,0.0,0.0,0.0,1.0,-1.0,1651069658295297.0,0
139,0.0,-1.0,0.0,-1.0,-3.0,-4.0,0.0,-2.0,1651069658295297.0,0
140,1.0,0.0,0.0,-1.0,0.0,1.0,0.0,-1.0,1651069658317474.0,0
141,0.0,0.0,1.0,-1.0,2.0,0.0,1.0,-1.0,1651069658317474.0,0
142,0.0,-1.0,0.0,-2.0,-5.0,-4.0,-1.0,1.0,1651069658318404.0,0
143,0.0,0.0,-4.0,-3.0,-9.0,-4.0,-2.0,-1.0,1651069658318404.0,0
144,0.0,-1.0,0.0,3.0,10.0,3.0,-1.0,1.0,1651069658340345.0,0
145,-3.0,-1.0,-1.0,0.0,-2.0,-2.0,-2.0,-2.0,1651069658340345.0,0
146,0.0,1.0,0.0,0.0,0.0,4.0,2.0,-1.0,1651069658340345.0,0
147,0.0,0.0,0.0,1.0,6.0,1.0,0.0,1.0,1651069658340345.0,0
148,-1.0,-1.0,1.0,-2.0,-4.0,-3.0,-2.0,0.0,1651069658354400.0,0
149,0.0,-1.0,-2.0,-1.0,-4.0,-2.0,-1.0,-1.0,1651069658354400.0,0
150,0.0,-2.0,0.0,-2.0,0.0,-1.0,1.0,-1.0,1651069658354400.0,0
151,0.0,-2.0,-3.0,-1.0,-3.0,-1.0,-3.0,-2.0,1651069658354400.0,0
152,-2.0,1.0,-3.0,1.0,-1.0,2.0,-2.0,-1.0,1651069658377064.0,0
153,-2.0,0.0,-1.0,-1.0,5.0,2.0,0.0,-2.0,1651069658377064.0,0
154,1.0,-2.0,0.0,-1.0,-4.0,-3.0,0.0,-1.0,1651069658377994.0,0
155,0.0,1.0,1.0,0.0,-2.0,0.0,0.0,1.0,1651069658377994.0,0
156,-1.0,-1.0,-3.0,-1.0,-1.0,-2.0,1.0,0.0,1651069658400305.0,0
157,0.0,-1.0,0.0,-2.0,-2.0,3.0,1.0,0.0,1651069658400305.0,0
158,2.0,0.0,-1.0,1.0,2.0,1.0,0.0,-1.0,1651069658400583.0,0
159,0.0,-1.0,-1.0,0.0,0.0,0.0,0.0,0.0,1651069658400583.0,0
160,0.0,-1.0,0.0,0.0,-5.0,-2.0,-1.0,-2.0,1651069658414671.0,0
161,1.0,-1.0,-3.0,-1.0,2.0,-2.0,-3.0,-2.0,1651069658414671.0,0
162,-1.0,2.0,-1.0,1.0,-1.0,0.0,-1.0,-1.0,1651069658414671.0,0
163,-2.0,-2.0,1.0,-1.0,-2.0,-2.0,1.0,0.0,1651069658414671.0,0
164,-2.0,0.0,1.0,-3.0,-8.0,1.0,-1.0,-2.0,1651069658437786.0,0
165,0.0,0.0,-1.0,3.0,10.0,3.0,-1.0,0.0,1651069658437786.0,0
166,-1.0,-1.0,0.0,-1.0,-3.0,0.0,-2.0,-2.0,1651069658437786.0,0
167,0.0,0.0,0.0,-1.0,-1.0,0.0,0.0,1.0,1651069658437786.0,0
168,0.0,-1.0,-2.0,-1.0,-2.0,-1.0,0.0,0.0,1651069658460096.0,0
169,-1.0,-2.0,-2.0,0.0,-5.0,-1.0,0.0,-1.0,1651069658460096.0,0
170,1.0,1.0,0.0,-1.0,1.0,1.0,-2.0,0.0,1651069658461052.0,0
171,0.0,-1.0,0.0,4.0,4.0,4.0,2.0,-1.0,1651069658461052.0,0
172,0.0,0.0,1.0,-1.0,1.0,0.0,-1.0,0.0,1651069658474058.0,0
173,-1.0,0.0,0.0,4.0,0.0,-2.0,2.0,0.0,1651069658474058.0,0
174,-2.0,0.0,1.0,-4.0,1.0,-2.0,-1.0,-2.0,1651069658474989.0,0
175,-1.0,0.0,-2.0,-2.0,-6.0,-4.0,-1.0,-1.0,1651069658474989.0,0
176,1.0,0.0,7.0,0.0,2.0,6.0,1.0,1.0,1651069658497752.0,0
177,0.0,-2.0,12.0,2.0,-3.0,-2.0,1.0,1.0,1651069658497752.0,0
178,0.0,-2.0,-12.0,1.0,8.0,3.0,0.0,-2.0,1651069658497752.0,0
179,-3.0,-4.0,-8.0,-8.0,-17.0,-6.0,-2.0,-2.0,1651069658497752.0,0
180,-2.0,0.0,0.0,-6.0,4.0,-3.0,0.0,-1.0,1651069658519464.0,0
181,0.0,-3.0,-12.0,-8.0,2.0,5.0,1.0,-1.0,1651069658519464.0,0
182,0.0,1.0,11.0,5.0,-5.0,-2.0,1.0,1.0,1651069658520444.0,0
183,1.0,1.0,-2.0,-7.0,6.0,5.0,-1.0,2.0,1651069658520444.0,0
184,1.0,0.0,1.0,-15.0,-18.0,-6.0,-3.0,1.0,1651069658534708.0,0
185,1.0,2.0,5.0,44.0,25.0,7.0,0.0,0.0,1651069658534708.0,0
186,-1.0,-1.0,-5.0,-11.0,-1.0,1.0,2.0,0.0,1651069658534708.0,1
187,-2.0,-2.0,-5.0,-10.0,-7.0,-4.0,-3.0,-3.0,1651069658534708.0,1
188,-1.0,-1.0,-5.0,-11.0,-17.0,-2.0,0.0,-1.0,1651069658564860.0,1
189,-1.0,0.0,0.0,5.0,6.0,-6.0,-1.0,0.0,1651069658564860.0,1
190,-1.0,2.0,8.0,22.0,11.0,2.0,-3.0,-3.0,1651069658565857.0,1
191,-2.0,-2.0,0.0,-12.0,-6.0,0.0,1.0,-3.0,1651069658565857.0,1
192,1.0,-2.0,-3.0,17.0,20.0,13.0,1.0,1.0,1651069658579886.0,1
193,-2.0,-3.0,-6.0,-21.0,-6.0,-6.0,-2.0,-4.0,1651069658579886.0,1
194,-1.0,-3.0,-1.0,4.0,-17.0,-10.0,-1.0,3.0,1651069658580817.0,1
195,1.0,2.0,4.0,9.0,16.0,21.0,6.0,0.0,1651069658580817.0,1
196,-2.0,-3.0,-6.0,-10.0,-8.0,-13.0,-4.0,-3.0,1651069658593778.0,1
197,4.0,2.0,4.0,14.0,21.0,20.0,3.0,3.0,1651069658593778.0,1
198,0.0,-1.0,-3.0,-25.0,-32.0,-16.0,-7.0,-2.0,1651069658594776.0,1
199,-1.0,2.0,3.0,4.0,-4.0,-15.0,-2.0,2.0,1651069658594776.0,1
200,-3.0,-2.0,3.0,11.0,-2.0,-1.0,2.0,-6.0,1651069658617791.0,1
201,1.0,5.0,-2.0,-9.0,2.0,4.0,3.0,2.0,1651069658617791.0,1
202,-2.0,-4.0,-6.0,-11.0,-1.0,-9.0,-8.0,-5.0,1651069658617791.0,1
203,3.0,2.0,7.0,14.0,7.0,-6.0,-4.0,5.0,1651069658617791.0,1
204,0.0,-3.0,-5.0,1.0,2.0,3.0,8.0,5.0,1651069658647862.0,1
205,-1.0,-4.0,-5.0,-20.0,-26.0,-15.0,-11.0,-12.0,1651069658647862.0,1
206,-2.0,-1.0,3.0,7.0,18.0,17.0,2.0,-1.0,1651069658647862.0,1
207,2.0,4.0,1.0,4.0,-4.0,4.0,-2.0,2.0,1651069658647862.0,1
208,1.0,2.0,10.0,18.0,24.0,-1.0,-4.0,-1.0,1651069658653788.0,1
209,-6.0,-3.0,0.0,-8.0,-23.0,-11.0,-2.0,4.0,1651069658653788.0,1
210,3.0,1.0,2.0,-3.0,-3.0,0.0,7.0,4.0,1651069658654785.0,1
211,-6.0,-3.0,1.0,6.0,2.0,3.0,-2.0,-20.0,1651069658654785.0,1
212,6.0,-4.0,-11.0,-21.0,-13.0,-8.0,-1.0,14.0,1651069658677628.0,1
213,1.0,1.0,-5.0,4.0,-2.0,8.0,4.0,3.0,1651069658677628.0,1
214,-3.0,1.0,3.0,7.0,5.0,-8.0,-8.0,-3.0,1651069658677628.0,1
215,2.0,-6.0,-5.0,-2.0,10.0,7.0,-5.0,-8.0,1651069658677628.0,1
216,-4.0,-1.0,-4.0,-2.0,-17.0,-7.0,-6.0,-8.0,1651069658699687.0,1
217,2.0,14.0,14.0,-9.0,-17.0,-17.0,-2.0,-1.0,1651069658699687.0,1
218,8.0,2.0,-9.0,-3.0,6.0,16.0,13.0,10.0,1651069658700660.0,1
219,-9.0,-16.0,-9.0,4.0,19.0,21.0,3.0,-10.0,1651069658700660.0,1
220,-9.0,-18.0,-2.0,3.0,0.0,-5.0,-5.0,-10.0,1651069658714583.0,1
221,1.0,3.0,11.0,12.0,-9.0,-10.0,-5.0,-3.0,1651069658714583.0,1
222,8.0,1.0,1.0,5.0,12.0,6.0,17.0,18.0,1651069658714737.0,1
223,2.0,10.0,4.0,-2.0,1.0,-5.0,-8.0,-1.0,1651069658714737.0,1
224,2.0,11.0,-1.0,-4.0,-6.0,-1.0,0.0,0.0,1651069658737747.0,1
225,-4.0,-19.0,-1.0,5.0,27.0,13.0,-2.0,2.0,1651069658737747.0,1
226,-20.0,-6.0,-10.0,-17.0,-24.0,-8.0,-4.0,-4.0,1651069658737747.0,1
227,7.0,6.0,-10.0,-8.0,-5.0,-13.0,-7.0,-2.0,1651069658737747.0,1
228,-1.0,4.0,12.0,7.0,9.0,-2.0,9.0,4.0,1651069658759850.0,1
229,13.0,3.0,-2.0,14.0,15.0,34.0,19.0,12.0,1651069658759850.0,1
230,0.0,1.0,1.0,1.0,7.0,-2.0,-7.0,-5.0,1651069658760848.0,1
231,-17.0,-32.0,-15.0,-14.0,-29.0,-18.0,-10.0,-11.0,1651069658760848.0,1
232,6.0,39.0,18.0,5.0,27.0,9.0,3.0,5.0,1651069658773933.0,1
233,-25.0,-41.0,-18.0,0.0,14.0,-2.0,-10.0,-11.0,1651069658773933.0,1
234,8.0,3.0,10.0,12.0,8.0,4.0,1.0,-3.0,1651069658781884.0,1
235,-3.0,-5.0,-2.0,-20.0,-20.0,-17.0,8.0,7.0,1651069658781884.0,1
236,-7.0,-31.0,-22.0,-29.0,-65.0,-36.0,-21.0,-17.0,1651069658797038.0,1
237,26.0,57.0,15.0,29.0,24.0,37.0,10.0,12.0,1651069658797038.0,1
238,-7.0,-17.0,-16.0,2.0,39.0,33.0,0.0,-8.0,1651069658797970.0,1
239,1.0,9.0,19.0,16.0,13.0,6.0,1.0,10.0,1651069658797970.0,1
240,-16.0,-56.0,-19.0,-14.0,-14.0,-13.0,-4.0,-1.0,1651069658820292.0,1
241,-8.0,25.0,5.0,-33.0,-59.0,-15.0,5.0,-1.0,1651069658820292.0,1
242,25.0,11.0,13.0,7.0,10.0,-8.0,-4.0,10.0,1651069658820292.0,1
243,-11.0,-17.0,-24.0,-3.0,-21.0,-12.0,-12.0,-11.0,1651069658820292.0,1
244,8.0,8.0,14.0,22.0,61.0,24.0,13.0,16.0,1651069658833673.0,1
245,2.0,36.0,9.0,-18.0,-17.0,9.0,5.0,2.0,1651069658833673.0,1
246,-15.0,-16.0,-9.0,3.0,2.0,-8.0,-15.0,-25.0,1651069658841618.0,1
247,-1.0,22.0,17.0,8.0,2.0,5.0,6.0,3.0,1651069658841618.0,1
248,-12.0,-39.0,-16.0,-4.0,28.0,-12.0,-12.0,-4.0,1651069658857734.0,1
249,18.0,16.0,11.0,10.0,36.0,29.0,16.0,10.0,1651069658857734.0,1
250,-13.0,-8.0,-17.0,-24.0,-25.0,-17.0,-7.0,-4.0,1651069658857734.0,1
251,5.0,-46.0,-8.0,34.0,23.0,9.0,11.0,17.0,1651069658857734.0,1
252,9.0,52.0,21.0,-19.0,-21.0,2.0,-13.0,-21.0,1651069658880387.0,1
253,-16.0,-3.0,-10.0,-8.0,-46.0,-29.0,9.0,5.0,1651069658880387.0,1
254,26.0,45.0,16.0,24.0,-13.0,1.0,-1.0,11.0,1651069658880387.0,1
255,-14.0,-18.0,-1.0,17.0,42.0,13.0,-17.0,-31.0,1651069658880387.0,1
256,22.0,13.0,-9.0,-44.0,-26.0,-2.0,26.0,28.0,1651069658893861.0,1
257,8.0,-20.0,29.0,-38.0,-20.0,-21.0,-22.0,13.0,1651069658893861.0,1
258,-35.0,-38.0,-41.0,32.0,-1.0,-19.0,-35.0,-60.0,1651069658901908.0,1
259,32.0,73.0,39.0,4.0,14.0,25.0,48.0,43.0,1651069658901908.0,1
260,-20.0,-16.0,-13.0,-13.0,-26.0,-21.0,-2.0,-15.0,1651069658917426.0,1
261,-34.0,-73.0,-45.0,-25.0,-49.0,-29.0,-22.0,-24.0,1651069658917426.0,1
262,25.0,5.0,27.0,-20.0,45.0,39.0,32.0,30.0,1651069658918356.0,1
263,3.0,5.0,5.0,-16.0,16.0,21.0,-17.0,-7.0,1651069658918356.0,1
264,-7.0,33.0,7.0,24.0,38.0,12.0,-15.0,-38.0,1651069658939462.0,1
265,26.0,-6.0,-9.0,-21.0,-11.0,-14.0,36.0,92.0,1651069658939462.0,1
266,-37.0,-4.0,-9.0,-36.0,-56.0,-31.0,11.0,-41.0,1651069658940471.0,1
267,14.0,51.0,41.0,9.0,42.0,19.0,12.0,32.0,1651069658940471.0,1
268,70.0,-51.0,-27.0,-23.0,-31.0,-27.0,-10.0,77.0,1651069658953908.0,1
269,-12.0,33.0,8.0,21.0,43.0,41.0,-26.0,-72.0,1651069658953908.0,1
270,10.0,2.0,-9.0,-23.0,-18.0,-9.0,25.0,24.0,1651069658961554.0,1
271,-12.0,26.0,5.0,-23.0,-54.0,-33.0,-2.0,-15.0,1651069658961554.0,1
272,-40.0,-16.0,29.0,27.0,-13.0,-9.0,-15.0,-61.0,1651069658976679.0,1
273,29.0,26.0,-34.0,-7.0,-12.0,-33.0,-34.0,46.0,1651069658976679.0,1
274,10.0,-10.0,9.0,65.0,9.0,17.0,11.0,3.0,1651069658977609.0,1
275,-6.0,4.0,-27.0,-15.0,-8.0,1.0,-15.0,-35.0,1651069658977609.0,1
276,-3.0,28.0,17.0,62.0,12.0,24.0,-2.0,-22.0,1651069658999752.0,1
277,-44.0,-46.0,-37.0,-38.0,-22.0,-22.0,-14.0,-42.0,1651069658999752.0,1
278,20.0,39.0,65.0,-6.0,37.0,33.0,24.0,25.0,1651069659000684.0,1
279,18.0,-13.0,-10.0,7.0,-8.0,-19.0,-10.0,28.0,1651069659000684.0,1
280,-1.0,2.0,14.0,2.0,-33.0,-6.0,7.0,4.0,1651069659013996.0,1
281,-9.0,8.0,-21.0,-3.0,58.0,7.0,-2.0,-22.0,1651069659013996.0,1
282,-7.0,-7.0,-6.0,-2.0,-54.0,-29.0,-51.0,-23.0,1651069659022084.0,1
283,8.0,10.0,22.0,39.0,54.0,26.0,58.0,52.0,1651069659022084.0,1
284,51.0,31.0,-18.0,-39.0,21.0,19.0,18.0,30.0,1651069659036159.0,1
285,-25.0,-37.0,-4.0,3.0,-64.0,-42.0,-12.0,-37.0,1651069659036159.0,1
286,-4.0,0.0,26.0,39.0,81.0,45.0,5.0,26.0,1651069659044114.0,1
287,-23.0,29.0,-28.0,-29.0,-45.0,-31.0,-40.0,-88.0,1651069659044114.0,1
288,31.0,68.0,17.0,-4.0,-5.0,25.0,18.0,35.0,1651069659059825.0,1
289,5.0,-31.0,50.0,58.0,23.0,-5.0,12.0,32.0,1651069659059825.0,1
290,-7.0,23.0,-21.0,-8.0,9.0,-5.0,-27.0,-31.0,1651069659060755.0,1
291,4.0,-33.0,-23.0,-87.0,-75.0,-27.0,-7.0,2.0,1651069659060755.0,1
292,-8.0,37.0,9.0,27.0,117.0,46.0,31.0,17.0,1651069659073910.0,1
293,11.0,21.0,28.0,12.0,0.0,5.0,-1.0,-12.0,1651069659073910.0,1
294,-1.0,-24.0,-27.0,-20.0,-9.0,-9.0,-2.0,-1.0,1651069659082183.0,1
295,-14.0,-26.0,5.0,3.0,-4.0,1.0,13.0,-1.0,1651069659082183.0,1
296,-13.0,-5.0,-2.0,43.0,41.0,21.0,-16.0,-16.0,1651069659096278.0,1
297,6.0,7.0,-18.0,-46.0,-11.0,5.0,4.0,-12.0,1651069659096278.0,1
298,-11.0,-33.0,-4.0,-8.0,-42.0,-25.0,1.0,0.0,1651069659105285.0,1
299,16.0,2.0,-9.0,-14.0,-3.0,-16.0,-26.0,28.0,1651069659105285.0,1
300,-5.0,12.0,-10.0,19.0,-32.0,7.0,10.0,-9.0,1651069659120380.0,1
301,-30.0,-79.0,1.0,25.0,34.0,24.0,7.0,-4.0,1651069659120380.0,1
302,10.0,24.0,-19.0,-36.0,-14.0,-15.0,3.0,-4.0,1651069659121359.0,1
303,0.0,-14.0,2.0,18.0,-7.0,-19.0,-13.0,-12.0,1651069659121359.0,1
304,15.0,13.0,26.0,13.0,-22.0,-15.0,11.0,74.0,1651069659142518.0,1
305,-6.0,14.0,-20.0,-33.0,-21.0,-7.0,-10.0,-51.0,1651069659142518.0,1
306,-21.0,-25.0,-6.0,10.0,18.0,4.0,16.0,15.0,1651069659144466.0,1
307,1.0,-25.0,-7.0,3.0,-17.0,-10.0,-10.0,-8.0,1651069659144466.0,1
308,-45.0,-74.0,-14.0,-10.0,-26.0,-9.0,-20.0,-49.0,1651069659156360.0,1
309,48.0,73.0,28.0,29.0,1.0,1.0,-6.0,39.0,1651069659156360.0,1
310,-23.0,-14.0,-14.0,-70.0,-30.0,-18.0,5.0,-28.0,1651069659165345.0,1
311,9.0,0.0,-9.0,21.0,9.0,15.0,17.0,37.0,1651069659165345.0,1
312,5.0,-8.0,0.0,17.0,26.0,9.0,-1.0,3.0,1651069659180380.0,1
313,-12.0,-19.0,-16.0,-18.0,11.0,13.0,1.0,-20.0,1651069659180380.0,1
314,-12.0,-15.0,4.0,16.0,-27.0,-19.0,-13.0,-12.0,1651069659181361.0,1
315,7.0,17.0,4.0,6.0,1.0,14.0,12.0,24.0,1651069659181361.0,1
316,-15.0,-29.0,-45.0,-99.0,-68.0,-53.0,-27.0,-6.0,1651069659203991.0,1
317,-5.0,20.0,28.0,53.0,58.0,46.0,35.0,5.0,1651069659203991.0,1
318,29.0,10.0,5.0,5.0,54.0,8.0,-18.0,11.0,1651069659204988.0,1
319,-20.0,-28.0,-10.0,0.0,-37.0,0.0,3.0,-13.0,1651069659204988.0,1
320,-9.0,5.0,14.0,5.0,9.0,-1.0,-6.0,-28.0,1651069659216135.0,1
321,-31.0,-16.0,-49.0,-49.0,-31.0,-29.0,-11.0,-40.0,1651069659216135.0,1
322,8.0,-28.0,-18.0,-4.0,-10.0,-3.0,-9.0,47.0,1651069659225256.0,1
323,22.0,31.0,65.0,46.0,47.0,15.0,21.0,30.0,1651069659225256.0,1
324,-18.0,-19.0,-49.0,-21.0,-20.0,-31.0,-32.0,-38.0,1651069659240403.0,1
325,-17.0,21.0,9.0,13.0,16.0,20.0,-32.0,-37.0,1651069659240403.0,1
326,31.0,27.0,18.0,24.0,8.0,25.0,85.0,46.0,1651069659241380.0,1
327,-11.0,-24.0,-10.0,-1.0,-9.0,-15.0,3.0,24.0,1651069659241380.0,1
328,-5.0,28.0,26.0,-2.0,-6.0,3.0,-8.0,-25.0,1651069659262136.0,1
329,20.0,-20.0,2.0,41.0,12.0,-4.0,20.0,34.0,1651069659262136.0,1
330,-22.0,-11.0,-38.0,-23.0,-29.0,-17.0,-33.0,-35.0,1651069659264133.0,1
331,-8.0,15.0,12.0,-20.0,19.0,10.0,2.0,-8.0,1651069659264133.0,1
332,9.0,7.0,-3.0,-1.0,-20.0,4.0,28.0,29.0,1651069659276425.0,1
333,8.0,-27.0,-9.0,-27.0,-6.0,-13.0,-17.0,0.0,1651069659276425.0,1
334,5.0,22.0,38.0,87.0,65.0,40.0,17.0,15.0,1651069659285292.0,1
335,-2.0,0.0,-3.0,16.0,-40.0,-11.0,-11.0,-33.0,1651069659285292.0,1
336,-5.0,2.0,-6.0,-19.0,-8.0,3.0,-10.0,-18.0,1651069659299480.0,1
337,29.0,13.0,19.0,5.0,5.0,-11.0,24.0,77.0,1651069659299480.0,1
338,-31.0,-66.0,-26.0,-46.0,-60.0,-26.0,-19.0,-23.0,1651069659301475.0,1
339,1.0,20.0,-7.0,41.0,40.0,16.0,-9.0,-24.0,1651069659301475.0,1
340,0.0,5.0,-8.0,-41.0,7.0,-5.0,1.0,-8.0,1651069659322540.0,1
341,-15.0,-25.0,-3.0,43.0,41.0,0.0,-1.0,8.0,1651069659322540.0,1
342,20.0,34.0,23.0,23.0,20.0,13.0,-9.0,8.0,1651069659323529.0,1
343,0.0,-1.0,-12.0,-23.0,-2.0,6.0,8.0,-14.0,1651069659323529.0,1
344,1.0,7.0,8.0,17.0,9.0,7.0,0.0,20.0,1651069659336404.0,1
345,-12.0,16.0,-15.0,-51.0,-53.0,-21.0,11.0,-37.0,1651069659336404.0,1
346,1.0,-7.0,11.0,63.0,42.0,3.0,-19.0,17.0,1651069659351370.0,1
347,7.0,-27.0,-26.0,-16.0,25.0,15.0,0.0,1.0,1651069659351370.0,1
348,0.0,-4.0,6.0,30.0,5.0,-3.0,3.0,10.0,1651069659360315.0,1
349,6.0,32.0,6.0,8.0,-6.0,-6.0,-9.0,-42.0,1651069659360315.0,1
350,-7.0,-4.0,-5.0,-37.0,-8.0,-4.0,-13.0,26.0,1651069659361283.0,1
351,-4.0,-8.0,-7.0,-8.0,-60.0,-25.0,-6.0,-26.0,1651069659361283.0,1
352,3.0,0.0,7.0,21.0,10.0,9.0,17.0,28.0,1651069659382395.0,1
353,-1.0,-23.0,-25.0,5.0,27.0,18.0,-8.0,0.0,1651069659382395.0,1
354,13.0,27.0,27.0,15.0,5.0,2.0,8.0,-8.0,1651069659384330.0,1
355,-17.0,-25.0,-12.0,-31.0,-1.0,-17.0,-9.0,-2.0,1651069659384330.0,1
356,-6.0,1.0,6.0,15.0,-14.0,-10.0,-17.0,-31.0,1651069659396297.0,1
357,-11.0,-10.0,-20.0,-3.0,10.0,21.0,2.0,9.0,1651069659396297.0,1
358,35.0,45.0,25.0,22.0,-21.0,-3.0,21.0,25.0,1651069659405274.0,1
359,-23.0,-45.0,-12.0,-22.0,-21.0,-4.0,3.0,-9.0,1651069659405274.0,1
360,-8.0,-34.0,0.0,4.0,17.0,4.0,-8.0,-15.0,1651069659420292.0,1
361,15.0,51.0,31.0,28.0,-32.0,-37.0,-20.0,9.0,1651069659420292.0,1
362,7.0,-4.0,-20.0,-23.0,68.0,48.0,44.0,18.0,1651069659421245.0,1
363,0.0,16.0,18.0,41.0,33.0,-6.0,-11.0,-4.0,1651069659421245.0,1
364,-8.0,-15.0,-10.0,36.0,11.0,12.0,7.0,9.0,1651069659442234.0,1
365,-1.0,-47.0,-5.0,-10.0,-10.0,-6.0,-3.0,9.0,1651069659442234.0,1
366,-3.0,12.0,-12.0,-28.0,-70.0,-39.0,-24.0,-20.0,1651069659444183.0,1
367,1.0,7.0,5.0,-5.0,24.0,19.0,0.0,2.0,1651069659444183.0,1
368,-4.0,14.0,3.0,4.0,7.0,-7.0,0.0,-4.0,1651069659456206.0,1
369,-7.0,-18.0,8.0,-6.0,-22.0,-12.0,-9.0,-16.0,1651069659456206.0,1
370,-14.0,-24.0,-27.0,-11.0,0.0,17.0,9.0,-7.0,1651069659465099.0,1
371,21.0,21.0,22.0,48.0,31.0,23.0,19.0,34.0,1651069659465099.0,1
372,-14.0,-21.0,-32.0,-57.0,-50.0,-22.0,-10.0,-16.0,1651069659480219.0,1
373,7.0,11.0,24.0,5.0,13.0,-4.0,-1.0,14.0,1651069659480219.0,1
374,-19.0,-1.0,3.0,3.0,-17.0,-7.0,-14.0,-45.0,1651069659481212.0,1
375,4.0,11.0,-5.0,0.0,-6.0,6.0,-9.0,-2.0,1651069659481212.0,1
376,-10.0,-43.0,-19.0,-11.0,10.0,1.0,-16.0,-1.0,1651069659502376.0,1
377,23.0,24.0,1.0,3.0,-8.0,7.0,40.0,31.0,1651069659502376.0,1
378,-4.0,4.0,4.0,3.0,27.0,-3.0,-13.0,-14.0,1651069659504386.0,1
379,-18.0,-5.0,-4.0,-4.0,6.0,-2.0,-8.0,-10.0,1651069659504386.0,1
380,22.0,29.0,9.0,-15.0,-46.0,-11.0,2.0,-7.0,1651069659516487.0,1
381,-28.0,-26.0,0.0,-39.0,-4.0,-11.0,-4.0,-15.0,1651069659516487.0,1
382,11.0,19.0,11.0,30.0,41.0,19.0,0.0,-3.0,1651069659525430.0,1
383,13.0,-24.0,-9.0,-9.0,-27.0,-30.0,-6.0,49.0,1651069659525430.0,1
384,-9.0,0.0,-4.0,-21.0,20.0,32.0,8.0,-8.0,1651069659539514.0,1
385,-1.0,3.0,0.0,14.0,13.0,6.0,3.0,-2.0,1651069659539514.0,1
386,-5.0,3.0,-8.0,-25.0,-43.0,-22.0,8.0,2.0,1651069659541510.0,1
387,-2.0,7.0,7.0,-13.0,-13.0,-8.0,-8.0,-15.0,1651069659541510.0,1
388,5.0,6.0,6.0,15.0,14.0,-3.0,4.0,11.0,1651069659562754.0,1
389,-2.0,3.0,-5.0,-3.0,-9.0,10.0,3.0,8.0,1651069659562754.0,1
390,0.0,-2.0,5.0,2.0,-10.0,-8.0,-9.0,2.0,1651069659563693.0,1
391,-1.0,10.0,-10.0,-11.0,-2.0,-1.0,5.0,-11.0,1651069659563693.0,1
392,0.0,-8.0,2.0,13.0,-12.0,-9.0,5.0,10.0,1651069659576436.0,1
393,17.0,20.0,16.0,5.0,18.0,17.0,3.0,9.0,1651069659576436.0,1
394,-9.0,-12.0,0.0,-16.0,-27.0,-22.0,-12.0,-4.0,1651069659585397.0,1
395,-2.0,-4.0,-12.0,4.0,18.0,17.0,-4.0,-13.0,1651069659585397.0,1
396,2.0,4.0,2.0,-2.0,14.0,12.0,21.0,16.0,1651069659600364.0,1
397,5.0,-1.0,1.0,12.0,-8.0,-2.0,4.0,4.0,1651069659600364.0,1
398,-1.0,-1.0,-6.0,-15.0,-10.0,-9.0,-23.0,-6.0,1651069659601371.0,1
399,0.0,8.0,-4.0,3.0,3.0,6.0,14.0,5.0,1651069659601371.0,1
400,-1.0,-3.0,7.0,5.0,14.0,-5.0,-6.0,-7.0,1651069659622756.0,1
401,2.0,6.0,0.0,8.0,5.0,5.0,2.0,4.0,1651069659622756.0,1
402,-2.0,-7.0,-3.0,-3.0,-5.0,-2.0,-7.0,-7.0,1651069659624383.0,1
403,1.0,8.0,8.0,-11.0,0.0,-2.0,-4.0,5.0,1651069659624383.0,1
404,6.0,10.0,3.0,14.0,12.0,1.0,-5.0,-3.0,1651069659636510.0,1
405,-15.0,-18.0,-28.0,-17.0,-6.0,-6.0,2.0,-3.0,1651069659636510.0,1
406,12.0,21.0,1.0,-18.0,-17.0,1.0,10.0,3.0,1651069659644556.0,1
407,-21.0,-22.0,-5.0,-6.0,2.0,-2.0,0.0,-2.0,1651069659644556.0,1
408,4.0,7.0,13.0,5.0,15.0,2.0,-9.0,-2.0,1651069659660017.0,1
409,16.0,11.0,-14.0,-12.0,-9.0,2.0,0.0,-2.0,1651069659660017.0,1
410,-4.0,-7.0,-34.0,-45.0,6.0,-9.0,-31.0,-9.0,1651069659660981.0,1
411,3.0,32.0,14.0,-37.0,-31.0,-5.0,25.0,2.0,1651069659660981.0,1
412,10.0,-12.0,15.0,16.0,-27.0,-7.0,5.0,8.0,1651069659682272.0,1
413,-42.0,-19.0,18.0,-8.0,4.0,-1.0,-9.0,-14.0,1651069659682272.0,1
414,-30.0,-14.0,-26.0,10.0,-8.0,0.0,21.0,5.0,1651069659684208.0,1
415,33.0,6.0,-13.0,-8.0,6.0,-1.0,-13.0,-4.0,1651069659684208.0,1
416,9.0,0.0,-17.0,20.0,36.0,10.0,3.0,8.0,1651069659696346.0,1
417,33.0,9.0,-26.0,0.0,0.0,0.0,0.0,0.0,1651069659696346.0,1
418,-21.0,-15.0,47.0,14.0,-9.0,-14.0,-25.0,-18.0,1651069659705151.0,1
419,21.0,11.0,1.0,-11.0,-17.0,-5.0,17.0,11.0,1651069659705151.0,1
420,-32.0,-24.0,34.0,75.0,34.0,9.0,10.0,0.0,1651069659720235.0,1
421,24.0,8.0,-16.0,-41.0,-10.0,6.0,-2.0,6.0,1651069659720235.0,1
422,-5.0,-11.0,-70.0,-70.0,-8.0,-6.0,-5.0,-4.0,1651069659721214.0,1
423,-20.0,-22.0,18.0,43.0,14.0,-10.0,-20.0,-16.0,1651069659721214.0,1
424,11.0,16.0,16.0,-6.0,-4.0,0.0,1.0,-1.0,1651069659742216.0,1
425,-10.0,20.0,17.0,7.0,-2.0,-7.0,-2.0,-2.0,1651069659742216.0,1
426,27.0,8.0,31.0,41.0,22.0,13.0,7.0,9.0,1651069659744144.0,1
427,-3.0,-11.0,-37.0,-74.0,-29.0,0.0,-20.0,-19.0,1651069659744144.0,1
428,7.0,5.0,-1.0,49.0,17.0,8.0,31.0,30.0,1651069659756432.0,1
429,-10.0,-12.0,7.0,-33.0,-5.0,1.0,-8.0,-8.0,1651069659756432.0,1
430,-3.0,14.0,2.0,36.0,-9.0,-6.0,5.0,1.0,1651069659764640.0,1
431,-4.0,-14.0,23.0,-16.0,6.0,0.0,-1.0,3.0,1651069659764640.0,1
432,6.0,5.0,1.0,-9.0,14.0,1.0,-10.0,-13.0,1651069659780305.0,1
433,6.0,-11.0,-37.0,-10.0,-16.0,-10.0,0.0,5.0,1651069659780305.0,1
434,-19.0,-14.0,29.0,26.0,3.0,6.0,12.0,2.0,1651069659781305.0,1
435,7.0,22.0,-23.0,-11.0,16.0,12.0,2.0,1.0,1651069659781305.0,1
436,-12.0,-13.0,-26.0,-30.0,-30.0,-10.0,-7.0,-6.0,1651069659801984.0,1
437,8.0,-1.0,25.0,19.0,8.0,0.0,5.0,4.0,1651069659801984.0,1
438,10.0,14.0,44.0,60.0,22.0,8.0,0.0,2.0,1651069659803911.0,1
439,-4.0,-9.0,-22.0,-5.0,4.0,1.0,-1.0,-1.0,1651069659803911.0,1
440,-8.0,3.0,3.0,-37.0,-21.0,-4.0,-3.0,-2.0,1651069659816227.0,1
441,-3.0,5.0,9.0,60.0,12.0,0.0,-5.0,-3.0,1651069659816227.0,1
442,0.0,-20.0,-29.0,-64.0,-6.0,-2.0,3.0,5.0,1651069659824978.0,1
443,-10.0,15.0,28.0,33.0,4.0,4.0,-1.0,-1.0,1651069659824978.0,1
444,7.0,8.0,-15.0,-5.0,2.0,-2.0,-4.0,-3.0,1651069659840005.0,1
445,2.0,4.0,-8.0,2.0,16.0,6.0,0.0,2.0,1651069659840005.0,1
446,-6.0,-13.0,-22.0,-52.0,-24.0,-6.0,3.0,1.0,1651069659840936.0,1
447,25.0,19.0,5.0,10.0,0.0,-3.0,0.0,-1.0,1651069659840936.0,1
448,-20.0,-33.0,6.0,16.0,7.0,1.0,-3.0,-2.0,1651069659862749.0,1
449,-13.0,-15.0,-5.0,-8.0,1.0,2.0,-1.0,-1.0,1651069659862749.0,1
450,18.0,16.0,15.0,15.0,5.0,0.0,2.0,2.0,1651069659863681.0,1
451,-6.0,-7.0,-5.0,10.0,-2.0,-4.0,-2.0,-2.0,1651069659863681.0,1
452,3.0,4.0,0.0,-10.0,-6.0,-1.0,0.0,-1.0,1651069659875844.0,1
453,11.0,-2.0,2.0,1.0,-3.0,-2.0,-1.0,-2.0,1651069659875844.0,1
454,-13.0,0.0,-22.0,-2.0,4.0,3.0,2.0,0.0,1651069659884690.0,1
455,-5.0,-5.0,13.0,4.0,1.0,-2.0,-4.0,-2.0,1651069659884690.0,1
456,1.0,2.0,-12.0,-12.0,-9.0,0.0,-2.0,-1.0,1651069659900759.0,1
457,1.0,2.0,8.0,-4.0,3.0,-2.0,-2.0,0.0,1651069659900759.0,1
458,13.0,3.0,-35.0,5.0,-3.0,0.0,-2.0,1.0,1651069659905749.0,1
459,-21.0,-7.0,57.0,25.0,5.0,1.0,0.0,-2.0,1651069659905749.0,1
460,1.0,-1.0,-60.0,-33.0,-3.0,-1.0,-1.0,-1.0,1651069659922825.0,1
461,0.0,7.0,33.0,32.0,6.0,1.0,1.0,-1.0,1651069659922825.0,1
462,2.0,-4.0,1.0,26.0,0.0,-1.0,0.0,1.0,1651069659923822.0,1
463,3.0,-20.0,-63.0,-36.0,-14.0,-4.0,0.0,2.0,1651069659923822.0,1
464,0.0,8.0,43.0,8.0,-2.0,-3.0,1.0,-2.0,1651069659935859.0,1
465,-6.0,-5.0,-14.0,-5.0,-2.0,-2.0,1.0,-1.0,1651069659935859.0,1
466,1.0,4.0,23.0,9.0,4.0,1.0,1.0,2.0,1651069659952247.0,1
467,-4.0,-6.0,-16.0,6.0,2.0,-2.0,0.0,-2.0,1651069659952247.0,1
468,3.0,-1.0,-20.0,-36.0,-8.0,-3.0,-2.0,1.0,1651069659960288.0,1
469,1.0,13.0,27.0,11.0,2.0,2.0,1.0,-1.0,1651069659960288.0,1
470,3.0,-2.0,-28.0,-10.0,-1.0,3.0,2.0,1.0,1651069659961225.0,1
471,1.0,2.0,45.0,41.0,8.0,2.0,-1.0,0.0,1651069659961225.0,1
472,-1.0,6.0,30.0,-12.0,-3.0,-1.0,0.0,-3.0,1651069659982809.0,1
473,-1.0,-3.0,-3.0,-6.0,2.0,1.0,0.0,1.0,1651069659982809.0,1
474,-1.0,-2.0,15.0,-17.0,-12.0,-4.0,0.0,-1.0,1651069659983834.0,1
475,-1.0,3.0,-18.0,26.0,7.0,4.0,-1.0,-1.0,1651069659983834.0,1
476,3.0,8.0,21.0,17.0,3.0,2.0,0.0,2.0,1651069659996422.0,1
477,13.0,12.0,29.0,22.0,2.0,-1.0,-3.0,0.0,1651069659996422.0,1
478,-19.0,-17.0,-3.0,-18.0,0.0,1.0,1.0,1.0,1651069660005352.0,1
479,1.0,-1.0,-9.0,-13.0,-4.0,-1.0,-1.0,1.0,1651069660005352.0,1
480,0.0,0.0,-12.0,1.0,0.0,-2.0,-2.0,-3.0,1651069660019381.0,1
481,-1.0,4.0,-3.0,-1.0,-3.0,-3.0,-2.0,-3.0,1651069660019381.0,1
482,4.0,-1.0,-2.0,0.0,-3.0,-1.0,-1.0,1.0,1651069660026450.0,1
483,-3.0,-4.0,-9.0,-4.0,1.0,0.0,0.0,-1.0,1651069660026450.0,1
484,0.0,-1.0,-10.0,-8.0,-3.0,-2.0,-1.0,-3.0,1651069660042534.0,1
485,-6.0,-9.0,-49.0,-14.0,-4.0,-3.0,-1.0,-1.0,1651069660042534.0,1
486,4.0,5.0,27.0,13.0,3.0,2.0,0.0,0.0,1651069660043459.0,1
487,-2.0,-2.0,14.0,0.0,0.0,0.0,-2.0,1.0,1651069660043459.0,1
488,6.0,13.0,22.0,5.0,2.0,-1.0,0.0,1.0,1651069660056469.0,1
489,-12.0,-6.0,-7.0,-7.0,-3.0,-1.0,0.0,0.0,1651069660056469.0,1
490,2.0,5.0,19.0,15.0,1.0,-1.0,-3.0,-1.0,1651069660064593.0,1
491,-1.0,0.0,-42.0,-16.0,0.0,-1.0,1.0,-1.0,1651069660064593.0,1
492,-1.0,-4.0,-11.0,-4.0,-1.0,0.0,1.0,1.0,1651069660079695.0,1
493,0.0,0.0,7.0,5.0,1.0,-1.0,0.0,-1.0,1651069660079695.0,1
494,1.0,1.0,-10.0,-13.0,0.0,0.0,0.0,-1.0,1651069660085714.0,1
495,-1.0,3.0,5.0,2.0,-1.0,-2.0,-1.0,0.0,1651069660085714.0,1
496,-1.0,-7.0,-6.0,5.0,0.0,0.0,-1.0,0.0,1651069660102416.0,1
497,-2.0,-2.0,14.0,-9.0,-3.0,-1.0,-1.0,-2.0,1651069660102416.0,1
498,4.0,-1.0,-17.0,5.0,2.0,0.0,0.0,-1.0,1651069660104344.0,1
499,0.0,-2.0,3.0,-2.0,-1.0,-1.0,-1.0,1.0,1651069660104344.0,1
500,1.0,5.0,34.0,3.0,0.0,2.0,-1.0,0.0,1651069660124685.0,1
501,-3.0,-5.0,-1.0,-1.0,2.0,3.0,1.0,1.0,1651069660124685.0,1
502,1.0,0.0,-12.0,-3.0,-1.0,1.0,-2.0,-1.0,1651069660126697.0,1
503,-1.0,2.0,21.0,4.0,4.0,1.0,0.0,0.0,1651069660126697.0,1
504,-4.0,-6.0,-14.0,-10.0,-7.0,-3.0,-3.0,0.0,1651069660138640.0,1
505,-1.0,0.0,8.0,4.0,1.0,-1.0,-2.0,-2.0,1651069660138640.0,1
506,1.0,3.0,9.0,1.0,0.0,2.0,1.0,-1.0,1651069660147618.0,1
507,0.0,-4.0,-10.0,5.0,0.0,-2.0,0.0,-1.0,1651069660147618.0,1
508,0.0,-2.0,-9.0,-1.0,-1.0,0.0,1.0,-2.0,1651069660162764.0,1
509,-1.0,2.0,-9.0,4.0,-2.0,-2.0,-2.0,-1.0,1651069660162764.0,1
510,-1.0,0.0,-10.0,-4.0,-1.0,-1.0,1.0,-1.0,1651069660163694.0,1
511,-1.0,0.0,4.0,0.0,-2.0,0.0,0.0,1.0,1651069660163694.0,1
512,-1.0,-5.0,-14.0,-3.0,1.0,0.0,0.0,-2.0,1651069660184768.0,1
513,1.0,-1.0,13.0,0.0,-2.0,-1.0,0.0,0.0,1651069660184768.0,1
514,0.0,0.0,-10.0,-1.0,1.0,1.0,1.0,-1.0,1651069660186764.0,1
515,2.0,1.0,-14.0,-1.0,-1.0,-1.0,-1.0,-3.0,1651069660186764.0,1
516,-1.0,-3.0,-5.0,-2.0,-1.0,-1.0,-1.0,-1.0,1651069660199789.0,1
517,-3.0,-2.0,5.0,1.0,-1.0,1.0,-2.0,-2.0,1651069660199789.0,1
518,2.0,0.0,5.0,4.0,-1.0,0.0,-2.0,0.0,1651069660201752.0,1
519,-1.0,-2.0,-7.0,-7.0,-2.0,-2.0,0.0,0.0,1651069660201752.0,1
520,0.0,4.0,2.0,3.0,2.0,0.0,0.0,0.0,1651069660222789.0,1
521,0.0,-2.0,-4.0,-2.0,-2.0,1.0,-1.0,1.0,1651069660222789.0,1
522,0.0,1.0,6.0,3.0,0.0,1.0,-1.0,1.0,1651069660224789.0,1
523,-2.0,-5.0,-11.0,-4.0,-3.0,2.0,-1.0,-1.0,1651069660224789.0,1
524,-1.0,0.0,17.0,6.0,1.0,0.0,-2.0,0.0,1651069660244901.0,1
525,-2.0,-3.0,2.0,-4.0,1.0,0.0,-1.0,0.0,1651069660244901.0,1
526,0.0,-2.0,-29.0,-7.0,-2.0,0.0,0.0,-1.0,1651069660246829.0,1
527,2.0,9.0,30.0,5.0,1.0,-1.0,-1.0,-1.0,1651069660246829.0,1
528,-3.0,-3.0,-10.0,-4.0,-3.0,-1.0,0.0,-1.0,1651069660258857.0,1
529,0.0,-1.0,-1.0,-1.0,-1.0,1.0,-1.0,-2.0,1651069660258857.0,1
530,0.0,0.0,0.0,-1.0,2.0,-2.0,-1.0,0.0,1651069660265839.0,1
531,0.0,-3.0,-7.0,-1.0,-1.0,-1.0,-2.0,-2.0,1651069660265839.0,1
532,0.0,-1.0,-9.0,-2.0,-1.0,0.0,-1.0,0.0,1651069660282810.0,1
533,1.0,-1.0,-2.0,-4.0,-2.0,-2.0,0.0,0.0,1651069660282810.0,1
534,-2.0,1.0,24.0,13.0,0.0,2.0,1.0,0.0,1651069660283822.0,1
535,-2.0,-3.0,-16.0,3.0,2.0,-1.0,-1.0,-1.0,1651069660283822.0,1
536,2.0,0.0,4.0,-3.0,-1.0,-2.0,0.0,-1.0,1651069660312668.0,1
537,-1.0,-1.0,-6.0,0.0,1.0,0.0,1.0,-1.0,1651069660312668.0,1
538,-2.0,-3.0,10.0,-4.0,-1.0,-1.0,-2.0,-1.0,1651069660313668.0,1
539,-1.0,0.0,-9.0,-4.0,-3.0,-2.0,0.0,0.0,1651069660313668.0,1
540,-2.0,-2.0,4.0,3.0,-1.0,-2.0,0.0,-2.0,1651069660318681.0,1
541,0.0,-2.0,-8.0,-3.0,-2.0,-1.0,0.0,-2.0,1651069660318681.0,1
542,1.0,0.0,-1.0,-2.0,-2.0,-1.0,1.0,0.0,1651069660325635.0,1
543,-1.0,1.0,-1.0,-4.0,0.0,1.0,-1.0,0.0,1651069660325635.0,1
544,0.0,-1.0,2.0,0.0,-1.0,0.0,-3.0,0.0,1651069660342785.0,1
545,0.0,1.0,-6.0,-3.0,-1.0,-1.0,-1.0,-1.0,1651069660342785.0,1
546,0.0,-1.0,19.0,6.0,0.0,0.0,0.0,0.0,1651069660343727.0,1
547,0.0,1.0,8.0,-6.0,1.0,-1.0,0.0,-2.0,1651069660343727.0,1
548,0.0,-1.0,-3.0,3.0,0.0,1.0,0.0,0.0,1651069660364835.0,1
549,0.0,-1.0,-9.0,-6.0,-2.0,-1.0,-1.0,1.0,1651069660364835.0,1
550,0.0,1.0,7.0,6.0,0.0,-2.0,-1.0,-1.0,1651069660366763.0,1
551,-2.0,-3.0,0.0,-3.0,-1.0,0.0,-1.0,0.0,1651069660366763.0,1
552,-3.0,-2.0,-25.0,-8.0,-3.0,-1.0,-1.0,0.0,1651069660378899.0,1
553,1.0,2.0,8.0,3.0,-1.0,0.0,0.0,0.0,1651069660378899.0,1
554,-1.0,1.0,-8.0,-4.0,0.0,-2.0,0.0,-1.0,1651069660385949.0,1
555,-1.0,-3.0,5.0,1.0,0.0,0.0,-2.0,-1.0,1651069660385949.0,1
556,0.0,3.0,0.0,0.0,1.0,1.0,0.0,-1.0,1651069660402165.0,1
557,0.0,0.0,-5.0,-2.0,1.0,-1.0,-1.0,1.0,1651069660402165.0,1
558,1.0,0.0,0.0,0.0,-2.0,1.0,0.0,-2.0,1651069660404093.0,1
559,0.0,-2.0,-4.0,3.0,0.0,0.0,-1.0,0.0,1651069660404093.0,1
560,0.0,1.0,12.0,2.0,-1.0,-1.0,-2.0,-1.0,1651069660424506.0,1
561,-1.0,-2.0,-1.0,-2.0,-1.0,-1.0,-1.0,-1.0,1651069660424506.0,1
562,-1.0,-2.0,1.0,-1.0,0.0,1.0,1.0,0.0,1651069660426463.0,1
563,-1.0,-1.0,-2.0,0.0,0.0,0.0,2.0,0.0,1651069660426463.0,1
564,2.0,-1.0,12.0,0.0,-2.0,-2.0,1.0,-1.0,1651069660439541.0,1
565,-2.0,3.0,16.0,-7.0,0.0,-1.0,1.0,-2.0,1651069660439541.0,1
566,-2.0,0.0,1.0,2.0,-2.0,-1.0,-2.0,-2.0,1651069660446525.0,1
567,-1.0,-3.0,-7.0,-3.0,-2.0,-1.0,2.0,0.0,1651069660446525.0,1
568,-2.0,-1.0,1.0,0.0,0.0,1.0,1.0,0.0,1651069660462752.0,1
569,-1.0,-5.0,-20.0,-2.0,-1.0,0.0,-1.0,0.0,1651069660462752.0,1
570,-1.0,3.0,27.0,1.0,0.0,-1.0,-1.0,1.0,1651069660463752.0,1
571,0.0,3.0,13.0,3.0,0.0,0.0,-2.0,-2.0,1651069660463752.0,1
572,-1.0,-1.0,-8.0,0.0,1.0,0.0,1.0,2.0,1651069660484443.0,1
573,-1.0,0.0,-4.0,3.0,-3.0,-1.0,-1.0,-1.0,1651069660484443.0,1
574,0.0,-1.0,-7.0,-3.0,1.0,0.0,0.0,-1.0,1651069660486371.0,1
575,-1.0,-5.0,-10.0,1.0,0.0,-1.0,-1.0,0.0,1651069660486371.0,1
576,-2.0,-1.0,-2.0,-4.0,0.0,-1.0,0.0,-1.0,1651069660507385.0,1
577,-1.0,1.0,1.0,-5.0,0.0,2.0,0.0,-1.0,1651069660507385.0,1
578,-1.0,0.0,-2.0,5.0,0.0,-2.0,0.0,-1.0,1651069660509336.0,1
579,-1.0,0.0,0.0,-2.0,-2.0,0.0,0.0,-1.0,1651069660509336.0,1
580,0.0,1.0,4.0,4.0,0.0,-2.0,-2.0,-2.0,1651069660522341.0,1
581,-2.0,-1.0,-5.0,-1.0,2.0,1.0,1.0,-1.0,1651069660522341.0,1
582,-1.0,0.0,-8.0,-4.0,0.0,1.0,1.0,0.0,1651069660524296.0,1
583,0.0,0.0,3.0,-1.0,-3.0,-1.0,0.0,0.0,1651069660524296.0,1
584,-2.0,0.0,-2.0,-2.0,-1.0,-1.0,0.0,-1.0,1651069660544757.0,1
585,1.0,1.0,4.0,3.0,0.0,-1.0,-2.0,0.0,1651069660544757.0,1
586,0.0,0.0,-2.0,-2.0,-1.0,-3.0,-3.0,-1.0,1651069660546710.0,1
587,1.0,-1.0,-5.0,-2.0,-1.0,-3.0,0.0,-1.0,1651069660546710.0,1
588,0.0,-2.0,-10.0,-1.0,0.0,-1.0,-2.0,-1.0,1651069660559655.0,1
589,-1.0,-4.0,-9.0,0.0,0.0,1.0,2.0,-1.0,1651069660559655.0,1
590,1.0,-3.0,-15.0,-3.0,-1.0,1.0,1.0,0.0,1651069660565700.0,1
591,-2.0,0.0,13.0,-1.0,0.0,0.0,1.0,0.0,1651069660565700.0,1
592,1.0,0.0,-6.0,2.0,-2.0,-1.0,1.0,0.0,1651069660582819.0,1
593,-2.0,-1.0,-3.0,-3.0,-4.0,-3.0,-1.0,-2.0,1651069660582819.0,1
594,-1.0,0.0,6.0,1.0,-2.0,1.0,-1.0,-1.0,1651069660583780.0,1
595,0.0,0.0,-5.0,-1.0,-2.0,0.0,0.0,-1.0,1651069660583780.0,1
596,-1.0,-4.0,-8.0,-2.0,0.0,0.0,0.0,0.0,1651069660605292.0,1
597,0.0,1.0,-19.0,-7.0,1.0,0.0,-1.0,0.0,1651069660605292.0,1
598,0.0,-1.0,-1.0,0.0,1.0,-1.0,1.0,0.0,1651069660606311.0,1
599,0.0,0.0,1.0,0.0,1.0,-2.0,-1.0,-1.0,1651069660606311.0,1
600,0.0,-2.0,2.0,-1.0,-2.0,0.0,0.0,0.0,1651069660618303.0,1
601,-2.0,1.0,-11.0,-2.0,-1.0,-1.0,-1.0,-1.0,1651069660618303.0,1
602,-2.0,-1.0,-1.0,-1.0,0.0,-1.0,-1.0,0.0,1651069660627235.0,1
603,0.0,-1.0,-11.0,-1.0,0.0,0.0,-1.0,1.0,1651069660627235.0,1
604,-1.0,0.0,3.0,1.0,-1.0,0.0,-1.0,0.0,1651069660642869.0,1
605,0.0,2.0,10.0,4.0,-1.0,-1.0,-1.0,0.0,1651069660642869.0,1
606,-1.0,-1.0,2.0,1.0,1.0,0.0,-1.0,-1.0,1651069660643869.0,1
607,-1.0,-1.0,-3.0,0.0,-1.0,0.0,-1.0,-2.0,1651069660643869.0,1
608,-1.0,2.0,11.0,-1.0,-1.0,-1.0,-2.0,-2.0,1651069660664495.0,1
609,0.0,-2.0,5.0,2.0,0.0,-1.0,-1.0,0.0,1651069660664495.0,1
610,-1.0,-1.0,-7.0,-2.0,-1.0,-2.0,0.0,1.0,1651069660666423.0,1
611,0.0,1.0,10.0,0.0,0.0,-1.0,0.0,-1.0,1651069660666423.0,1
612,-2.0,0.0,-9.0,-3.0,0.0,0.0,-1.0,0.0,1651069660678386.0,1
613,0.0,0.0,10.0,4.0,0.0,1.0,0.0,0.0,1651069660678386.0,1
614,0.0,-1.0,5.0,0.0,0.0,-1.0,-2.0,0.0,1651069660687378.0,1
615,-2.0,-3.0,-5.0,2.0,0.0,1.0,-2.0,-1.0,1651069660687378.0,1
616,-1.0,0.0,-5.0,-2.0,-1.0,-1.0,-1.0,-2.0,1651069660702673.0,1
617,1.0,-2.0,4.0,2.0,-2.0,1.0,-1.0,-1.0,1651069660702673.0,1
618,0.0,0.0,-1.0,0.0,-1.0,-1.0,0.0,-1.0,1651069660703683.0,1
619,-1.0,2.0,7.0,-1.0,0.0,-1.0,0.0,1.0,1651069660703683.0,1
620,0.0,-3.0,1.0,2.0,-1.0,-2.0,1.0,0.0,1651069660725296.0,1
621,-1.0,-2.0,5.0,-1.0,0.0,0.0,0.0,0.0,1651069660725296.0,1
622,-2.0,-3.0,9.0,2.0,0.0,1.0,0.0,-2.0,1651069660726300.0,1
623,1.0,0.0,-8.0,-3.0,-2.0,-2.0,-1.0,-1.0,1651069660726300.0,1
624,-1.0,-1.0,-20.0,-2.0,1.0,1.0,1.0,-2.0,1651069660738326.0,1
625,0.0,1.0,7.0,1.0,2.0,-1.0,-2.0,1.0,1651069660738326.0,1
626,-1.0,-2.0,-2.0,0.0,-1.0,-3.0,-2.0,-2.0,1651069660747287.0,1
627,1.0,1.0,-1.0,0.0,0.0,0.0,-1.0,-1.0,1651069660747287.0,1
628,-1.0,-1.0,0.0,-2.0,1.0,-3.0,-1.0,-1.0,1651069660762268.0,1
629,0.0,-1.0,6.0,-1.0,-2.0,-2.0,1.0,-2.0,1651069660762268.0,1
630,0.0,2.0,-12.0,-4.0,-3.0,1.0,-1.0,-1.0,1651069660764222.0,1
631,-1.0,1.0,-4.0,-1.0,-1.0,-1.0,-2.0,0.0,1651069660764222.0,1
632,0.0,-1.0,4.0,-3.0,-1.0,-2.0,-2.0,1.0,1651069660785401.0,1
633,-1.0,-2.0,-3.0,-2.0,-1.0,0.0,0.0,-1.0,1651069660785401.0,1
634,-1.0,-1.0,1.0,1.0,-1.0,0.0,0.0,2.0,1651069660787324.0,1
635,0.0,-3.0,-3.0,-1.0,1.0,-1.0,0.0,0.0,1651069660787324.0,1
636,2.0,0.0,-1.0,0.0,0.0,0.0,-1.0,-1.0,1651069660798308.0,1
637,0.0,-3.0,-1.0,-3.0,0.0,0.0,-1.0,-1.0,1651069660798308.0,1
638,0.0,0.0,-2.0,-1.0,0.0,-2.0,1.0,-1.0,1651069660807283.0,1
639,-2.0,-2.0,-3.0,1.0,-3.0,1.0,0.0,-1.0,1651069660807283.0,1
640,-1.0,1.0,4.0,1.0,-2.0,0.0,-2.0,-1.0,1651069660822567.0,1
641,1.0,0.0,0.0,2.0,0.0,-1.0,-2.0,1.0,1651069660822567.0,1
642,0.0,1.0,2.0,-1.0,-1.0,0.0,-1.0,-1.0,1651069660823530.0,1
643,-1.0,-2.0,1.0,1.0,-1.0,0.0,-1.0,1.0,1651069660823530.0,1
644,-2.0,1.0,6.0,-2.0,0.0,1.0,-1.0,-1.0,1651069660844646.0,1
645,-2.0,1.0,-4.0,0.0,-1.0,-2.0,0.0,0.0,1651069660844646.0,1
646,-1.0,-2.0,-3.0,-1.0,-2.0,-1.0,-1.0,0.0,1651069660846674.0,1
647,0.0,-1.0,17.0,3.0,1.0,-1.0,0.0,0.0,1651069660846674.0,1
648,0.0,0.0,-22.0,-7.0,-1.0,1.0,0.0,0.0,1651069660858621.0,1
649,-1.0,-1.0,6.0,1.0,0.0,-1.0,-1.0,0.0,1651069660858621.0,1
650,-2.0,-1.0,0.0,-1.0,1.0,-2.0,0.0,-1.0,1651069660867586.0,1
651,0.0,0.0,-1.0,-1.0,0.0,1.0,-2.0,-2.0,1651069660867586.0,1
652,-1.0,-1.0,4.0,-1.0,0.0,-1.0,0.0,-1.0,1651069660882546.0,1
653,-1.0,-1.0,-2.0,0.0,-1.0,0.0,-1.0,0.0,1651069660882546.0,1
654,-2.0,-2.0,0.0,0.0,-2.0,0.0,-1.0,-1.0,1651069660883544.0,1
655,-1.0,0.0,-1.0,-1.0,-2.0,-2.0,0.0,0.0,1651069660883544.0,1
656,-2.0,0.0,3.0,1.0,0.0,-1.0,0.0,0.0,1651069660904623.0,1
657,1.0,0.0,-1.0,0.0,0.0,0.0,-2.0,-1.0,1651069660904623.0,1
658,1.0,-2.0,-7.0,0.0,2.0,0.0,-1.0,-1.0,1651069660906648.0,1
659,-1.0,1.0,15.0,-1.0,-1.0,-1.0,-2.0,1.0,1651069660906648.0,1
660,0.0,-1.0,1.0,0.0,-2.0,-1.0,1.0,1.0,1651069660918590.0,1
661,-3.0,-1.0,-4.0,-1.0,-2.0,0.0,0.0,-2.0,1651069660918590.0,1
662,1.0,0.0,-2.0,0.0,1.0,0.0,-1.0,-1.0,1651069660927285.0,1
663,1.0,-1.0,-28.0,-9.0,-2.0,1.0,1.0,-4.0,1651069660927285.0,1
664,0.0,0.0,8.0,2.0,-1.0,-1.0,-1.0,-1.0,1651069660942247.0,1
665,-1.0,0.0,12.0,2.0,1.0,0.0,0.0,-2.0,1651069660942247.0,1
666,1.0,1.0,-2.0,-1.0,2.0,1.0,0.0,-2.0,1651069660944243.0,1
667,-2.0,-3.0,-4.0,-2.0,0.0,-1.0,-2.0,-1.0,1651069660944243.0,1
668,-2.0,0.0,8.0,-1.0,-2.0,1.0,-2.0,0.0,1651069660964811.0,1
669,-2.0,-3.0,-14.0,-3.0,0.0,0.0,0.0,1.0,1651069660964811.0,1
670,0.0,-2.0,-5.0,-3.0,-3.0,0.0,-1.0,0.0,1651069660966831.0,1
671,0.0,-1.0,4.0,3.0,-1.0,-1.0,-2.0,1.0,1651069660966831.0,1
672,0.0,0.0,-3.0,1.0,1.0,1.0,0.0,-1.0,1651069660978833.0,1
673,-1.0,0.0,2.0,0.0,1.0,0.0,-1.0,-1.0,1651069660978833.0,1
674,-1.0,0.0,-1.0,-4.0,-3.0,-3.0,0.0,-1.0,1651069660987399.0,1
675,-1.0,1.0,0.0,-1.0,0.0,0.0,0.0,0.0,1651069660987399.0,1
676,-2.0,-1.0,-1.0,-2.0,-1.0,-2.0,0.0,0.0,1651069661001429.0,1
677,0.0,1.0,-6.0,-2.0,-2.0,0.0,-1.0,-1.0,1651069661001429.0,1
678,0.0,2.0,13.0,5.0,1.0,1.0,-2.0,0.0,1651069661008346.0,1
679,1.0,1.0,1.0,0.0,-1.0,-2.0,1.0,-1.0,1651069661008346.0,1
680,2.0,0.0,3.0,2.0,0.0,1.0,1.0,-1.0,1651069661024447.0,1
681,0.0,-2.0,-8.0,-2.0,-2.0,0.0,0.0,0.0,1651069661024447.0,1
682,-1.0,2.0,-1.0,-2.0,-2.0,-1.0,0.0,0.0,1651069661026444.0,1
683,-2.0,2.0,20.0,7.0,-1.0,-1.0,-1.0,-1.0,1651069661026444.0,1
684,0.0,-1.0,-5.0,-2.0,-1.0,0.0,-1.0,0.0,1651069661047525.0,1
685,-1.0,-1.0,5.0,1.0,-2.0,-2.0,0.0,0.0,1651069661047525.0,1
686,-1.0,-1.0,-2.0,0.0,-1.0,1.0,0.0,0.0,1651069661048462.0,1
687,-3.0,-2.0,-4.0,-1.0,1.0,0.0,0.0,1.0,1651069661048462.0,1
688,-1.0,-1.0,-1.0,-2.0,0.0,0.0,0.0,0.0,1651069661062733.0,1
689,0.0,0.0,-2.0,-1.0,-1.0,-2.0,0.0,-1.0,1651069661062733.0,1
690,-2.0,0.0,3.0,1.0,-2.0,-2.0,-2.0,1.0,1651069661064695.0,1
691,0.0,-2.0,-6.0,-4.0,-1.0,-2.0,-2.0,0.0,1651069661064695.0,1
692,-1.0,-1.0,3.0,1.0,-1.0,1.0,0.0,0.0,1651069661084766.0,1
693,0.0,0.0,-2.0,0.0,0.0,0.0,0.0,-1.0,1651069661084766.0,1
694,0.0,-2.0,-2.0,-1.0,0.0,-1.0,2.0,-2.0,1651069661086693.0,1
695,0.0,-1.0,1.0,-1.0,0.0,-1.0,-1.0,0.0,1651069661086693.0,1
696,-1.0,-1.0,-5.0,-2.0,1.0,-2.0,-2.0,-1.0,1651069661107706.0,1
697,1.0,-1.0,-3.0,-3.0,0.0,-3.0,-2.0,-1.0,1651069661107706.0,1
698,-1.0,-2.0,-2.0,0.0,0.0,-1.0,1.0,2.0,1651069661108646.0,1
699,2.0,0.0,-5.0,-2.0,0.0,0.0,1.0,0.0,1651069661108646.0,1
700,1.0,-1.0,-1.0,-1.0,0.0,-2.0,-1.0,-1.0,1651069661122701.0,1
701,-1.0,1.0,22.0,7.0,-2.0,-1.0,-2.0,-2.0,1651069661122701.0,1
702,0.0,1.0,-4.0,-2.0,-1.0,-1.0,0.0,-2.0,1651069661123672.0,1
703,-1.0,0.0,-2.0,0.0,0.0,-1.0,-1.0,-2.0,1651069661123672.0,1
704,0.0,0.0,-1.0,0.0,-2.0,0.0,-1.0,0.0,1651069661145391.0,1
705,-1.0,1.0,-1.0,-1.0,1.0,1.0,-1.0,1.0,1651069661145391.0,1
706,-2.0,-1.0,0.0,0.0,-1.0,-2.0,-1.0,0.0,1651069661146389.0,1
707,-1.0,-1.0,-2.0,0.0,-1.0,0.0,-1.0,-1.0,1651069661146389.0,1
708,0.0,-1.0,-11.0,-3.0,-1.0,-1.0,-2.0,-2.0,1651069661167523.0,1
709,0.0,-1.0,-2.0,-3.0,0.0,1.0,-1.0,0.0,1651069661167523.0,1
710,0.0,0.0,-2.0,-1.0,0.0,-1.0,-2.0,0.0,1651069661168450.0,1
711,-1.0,1.0,-4.0,-1.0,0.0,2.0,0.0,0.0,1651069661168450.0,1
712,-1.0,-2.0,3.0,-1.0,-2.0,-2.0,1.0,0.0,1651069661181449.0,1
713,-1.0,-3.0,-8.0,-3.0,0.0,0.0,-1.0,0.0,1651069661181449.0,1
714,0.0,0.0,1.0,-1.0,0.0,-1.0,0.0,0.0,1651069661188398.0,1
715,-1.0,-1.0,2.0,-1.0,0.0,1.0,0.0,-1.0,1651069661188398.0,1
716,0.0,2.0,3.0,1.0,0.0,1.0,0.0,-1.0,1651069661204754.0,1
717,1.0,0.0,-5.0,-4.0,-1.0,-1.0,-2.0,1.0,1651069661204754.0,1
718,-2.0,0.0,3.0,1.0,-1.0,0.0,-1.0,-1.0,1651069661206683.0,1
719,0.0,-1.0,-4.0,-2.0,-2.0,-1.0,-1.0,-1.0,1651069661206683.0,1
720,-1.0,-1.0,2.0,-1.0,0.0,1.0,1.0,0.0,1651069661227780.0,1
721,0.0,0.0,-1.0,1.0,-2.0,0.0,0.0,0.0,1651069661227780.0,1
722,-1.0,-2.0,0.0,-1.0,-1.0,0.0,-1.0,-1.0,1651069661228775.0,1
723,-2.0,-2.0,-18.0,-5.0,-1.0,0.0,-2.0,-2.0,1651069661228775.0,1
724,0.0,1.0,6.0,0.0,2.0,-1.0,-1.0,-2.0,1651069661242160.0,1
725,0.0,-3.0,-23.0,-4.0,-2.0,-4.0,0.0,-1.0,1651069661242160.0,1
726,0.0,1.0,6.0,0.0,-1.0,-2.0,1.0,0.0,1651069661248146.0,1
727,-1.0,-1.0,0.0,-1.0,-6.0,-3.0,0.0,-1.0,1651069661248146.0,1
728,0.0,-2.0,-1.0,-4.0,-11.0,-3.0,1.0,-1.0,1651069661264393.0,1
729,-2.0,0.0,-2.0,3.0,12.0,1.0,0.0,0.0,1651069661264393.0,1
730,-1.0,-1.0,-1.0,3.0,10.0,9.0,4.0,1.0,1651069661266332.0,1
731,-1.0,-1.0,3.0,-1.0,-6.0,-4.0,0.0,0.0,1651069661266332.0,1
732,-1.0,-1.0,-1.0,2.0,9.0,-1.0,-3.0,0.0,1651069661287552.0,1
733,0.0,1.0,9.0,3.0,-13.0,10.0,2.0,1.0,1651069661287552.0,1
734,-1.0,-1.0,-6.0,-12.0,-20.0,-15.0,-4.0,-2.0,1651069661288482.0,1
735,0.0,0.0,6.0,10.0,17.0,6.0,1.0,0.0,1651069661288482.0,1
736,1.0,0.0,-3.0,-3.0,-3.0,2.0,-1.0,1.0,1651069661301599.0,1
737,-1.0,-2.0,1.0,-3.0,1.0,-8.0,-2.0,-4.0,1651069661301599.0,1
738,0.0,1.0,2.0,1.0,2.0,5.0,1.0,0.0,1651069661308596.0,1
739,-3.0,-3.0,-6.0,-14.0,-24.0,-14.0,-4.0,-2.0,1651069661308596.0,1
740,0.0,-2.0,1.0,-1.0,-8.0,-8.0,-1.0,-1.0,1651069661325333.0,1
741,-2.0,0.0,2.0,-2.0,3.0,-7.0,-5.0,-1.0,1651069661325333.0,1
742,-2.0,-3.0,-6.0,-2.0,-8.0,-4.0,-2.0,-1.0,1651069661326334.0,1
743,0.0,1.0,6.0,6.0,14.0,9.0,1.0,0.0,1651069661326334.0,1
744,1.0,2.0,2.0,7.0,15.0,6.0,3.0,2.0,1651069661347719.0,1
745,-1.0,-1.0,1.0,-4.0,-3.0,3.0,1.0,1.0,1651069661347719.0,1
746,-2.0,-1.0,-2.0,-21.0,-34.0,-19.0,-8.0,-4.0,1651069661348658.0,1
747,-1.0,-1.0,1.0,16.0,46.0,3.0,0.0,0.0,1651069661348658.0,1
748,2.0,2.0,2.0,12.0,9.0,32.0,9.0,4.0,1651069661361641.0,1
749,2.0,2.0,4.0,7.0,28.0,34.0,11.0,5.0,1651069661361641.0,1
750,-4.0,-4.0,-3.0,-7.0,-11.0,-12.0,-3.0,-6.0,1651069661368574.0,1
751,-1.0,1.0,-1.0,-11.0,-35.0,-26.0,-5.0,0.0,1651069661368574.0,1
752,1.0,-2.0,-2.0,-10.0,-17.0,-14.0,-4.0,-1.0,1651069661384578.0,1
753,3.0,5.0,8.0,8.0,10.0,10.0,5.0,4.0,1651069661384578.0,1
754,0.0,-1.0,1.0,0.0,3.0,0.0,0.0,3.0,1651069661386515.0,1
755,-2.0,-2.0,3.0,4.0,12.0,5.0,-3.0,1.0,1651069661386515.0,1
756,-2.0,-6.0,-8.0,-2.0,-6.0,-10.0,-3.0,-3.0,1651069661407465.0,1
757,-1.0,0.0,2.0,0.0,-6.0,-1.0,0.0,-1.0,1651069661407465.0,1
758,-2.0,-2.0,-1.0,-5.0,2.0,2.0,2.0,-2.0,1651069661408407.0,1
759,0.0,3.0,6.0,-5.0,-17.0,-13.0,-5.0,-4.0,1651069661408407.0,1
760,1.0,2.0,5.0,1.0,2.0,-19.0,-9.0,1.0,1651069661421437.0,1
761,-3.0,-6.0,-9.0,21.0,22.0,21.0,5.0,0.0,1651069661421437.0,1
762,4.0,3.0,8.0,4.0,10.0,9.0,8.0,6.0,1651069661428421.0,1
763,-3.0,-6.0,-17.0,-14.0,-8.0,2.0,2.0,1.0,1651069661428421.0,1
764,0.0,0.0,8.0,7.0,4.0,5.0,3.0,2.0,1651069661444733.0,1
765,3.0,4.0,0.0,-17.0,-35.0,-30.0,-1.0,0.0,1651069661444733.0,1
766,-3.0,-2.0,3.0,17.0,25.0,6.0,-16.0,-1.0,1651069661451428.0,1
767,3.0,-3.0,-13.0,-21.0,-34.0,1.0,4.0,1.0,1651069661451428.0,1
768,-2.0,7.0,21.0,28.0,33.0,4.0,-11.0,-12.0,1651069661467644.0,1
769,-4.0,-9.0,-15.0,-25.0,-33.0,-22.0,5.0,3.0,1651069661467644.0,1
770,1.0,2.0,-9.0,1.0,-6.0,1.0,7.0,2.0,1651069661468578.0,1
771,6.0,4.0,5.0,-7.0,-13.0,-11.0,-9.0,-4.0,1651069661468578.0,1
772,1.0,-6.0,-8.0,2.0,28.0,46.0,27.0,26.0,1651069661480611.0,1
773,-6.0,-1.0,1.0,-10.0,-20.0,-24.0,-19.0,-13.0,1651069661480611.0,1
774,-9.0,1.0,12.0,25.0,44.0,15.0,-19.0,-21.0,1651069661489585.0,1
775,-4.0,-13.0,-24.0,-7.0,0.0,8.0,12.0,2.0,1651069661489585.0,1
776,5.0,7.0,7.0,8.0,-2.0,-3.0,11.0,3.0,1651069661505318.0,1
777,-9.0,-13.0,-8.0,-18.0,-17.0,-17.0,-10.0,-4.0,1651069661505318.0,1
778,-11.0,-11.0,-15.0,-10.0,7.0,-2.0,-10.0,-17.0,1651069661506318.0,1
779,11.0,21.0,16.0,24.0,14.0,8.0,-3.0,-2.0,1651069661506318.0,1
780,-1.0,-4.0,-24.0,-21.0,-30.0,-25.0,-11.0,-1.0,1651069661527636.0,1
781,-6.0,-7.0,0.0,-1.0,-2.0,4.0,-2.0,-5.0,1651069661527636.0,1
782,-10.0,-11.0,4.0,-2.0,-10.0,-9.0,10.0,0.0,1651069661528645.0,1
783,-5.0,-6.0,0.0,-8.0,-32.0,-2.0,1.0,1.0,1651069661528645.0,1
784,2.0,6.0,-8.0,4.0,14.0,-7.0,-8.0,-1.0,1651069661541026.0,1
785,-1.0,-8.0,13.0,17.0,9.0,11.0,2.0,1.0,1651069661541026.0,1
786,7.0,12.0,6.0,6.0,0.0,-3.0,-10.0,-6.0,1651069661549685.0,1
787,-12.0,-14.0,-11.0,-12.0,-15.0,-8.0,-15.0,-6.0,1651069661549685.0,0
788,10.0,22.0,7.0,-20.0,-20.0,-16.0,18.0,3.0,1651069661564838.0,2
789,7.0,3.0,-5.0,-2.0,0.0,3.0,-3.0,5.0,1651069661564838.0,2
790,2.0,-3.0,-12.0,-14.0,-26.0,-3.0,-1.0,0.0,1651069661566766.0,2
791,5.0,16.0,12.0,7.0,20.0,22.0,7.0,2.0,1651069661566766.0,2
792,-23.0,-16.0,8.0,-11.0,-25.0,-18.0,-23.0,-25.0,1651069661587783.0,2
793,8.0,36.0,7.0,36.0,28.0,-6.0,-1.0,-4.0,1651069661587783.0,2
794,36.0,35.0,3.0,-4.0,-23.0,-3.0,19.0,48.0,1651069661588708.0,2
795,-16.0,-21.0,-9.0,14.0,27.0,15.0,1.0,-13.0,1651069661588708.0,2
796,-13.0,16.0,7.0,10.0,16.0,1.0,-7.0,-13.0,1651069661600742.0,2
797,38.0,10.0,27.0,-2.0,-39.0,-17.0,2.0,16.0,1651069661600742.0,2
798,-21.0,-10.0,-31.0,-43.0,3.0,13.0,-3.0,-10.0,1651069661609695.0,2
799,9.0,9.0,35.0,92.0,66.0,20.0,14.0,22.0,1651069661609695.0,2
800,-22.0,-30.0,-7.0,-13.0,-41.0,-5.0,-9.0,-17.0,1651069661624488.0,2
801,19.0,59.0,14.0,-11.0,5.0,2.0,30.0,21.0,1651069661624488.0,2
802,43.0,23.0,27.0,71.0,79.0,50.0,8.0,31.0,1651069661626463.0,2
803,-23.0,-7.0,-2.0,-34.0,-10.0,-10.0,-9.0,-19.0,1651069661626463.0,2
804,-9.0,-28.0,2.0,56.0,24.0,4.0,-21.0,-31.0,1651069661647738.0,2
805,-6.0,-16.0,-37.0,-90.0,-52.0,-12.0,6.0,33.0,1651069661647738.0,2
806,2.0,-7.0,-24.0,26.0,36.0,15.0,8.0,-1.0,1651069661648669.0,2
807,10.0,17.0,62.0,23.0,-13.0,-13.0,9.0,9.0,1651069661648669.0,2
808,15.0,5.0,-16.0,-19.0,18.0,1.0,-28.0,8.0,1651069661660696.0,2
809,-19.0,-12.0,-3.0,-6.0,-28.0,5.0,7.0,-26.0,1651069661660696.0,2
810,6.0,20.0,14.0,15.0,4.0,14.0,54.0,36.0,1651069661669606.0,2
811,-6.0,-39.0,-32.0,-32.0,-26.0,-6.0,-2.0,-6.0,1651069661669606.0,2
812,-5.0,29.0,3.0,-37.0,8.0,-12.0,-7.0,-33.0,1651069661684615.0,2
813,-19.0,-51.0,-3.0,29.0,52.0,20.0,-13.0,-10.0,1651069661684615.0,2
814,7.0,-7.0,-5.0,-60.0,-20.0,-13.0,-5.0,35.0,1651069661686542.0,2
815,5.0,6.0,-4.0,40.0,8.0,13.0,-12.0,-5.0,1651069661686542.0,2
816,2.0,-25.0,-12.0,26.0,14.0,0.0,19.0,7.0,1651069661707628.0,2
817,-20.0,-28.0,-23.0,16.0,-31.0,-18.0,-17.0,-46.0,1651069661707628.0,2
818,-8.0,-48.0,-7.0,3.0,24.0,27.0,9.0,9.0,1651069661708650.0,2
819,22.0,81.0,16.0,-42.0,11.0,-6.0,-12.0,-3.0,1651069661708650.0,2
820,-4.0,-34.0,-13.0,2.0,-19.0,3.0,7.0,12.0,1651069661721452.0,2
821,-16.0,-10.0,4.0,18.0,15.0,1.0,-7.0,-15.0,1651069661721452.0,2
822,-13.0,3.0,5.0,-7.0,-49.0,-23.0,-11.0,-28.0,1651069661729633.0,2
823,-4.0,-10.0,-1.0,27.0,34.0,14.0,3.0,-3.0,1651069661729633.0,2
824,19.0,16.0,-4.0,-61.0,-11.0,16.0,-23.0,16.0,1651069661744677.0,2
825,13.0,-5.0,5.0,40.0,10.0,12.0,85.0,46.0,1651069661744677.0,2
826,-13.0,15.0,18.0,66.0,4.0,-4.0,-13.0,-23.0,1651069661746672.0,2
827,9.0,-23.0,-24.0,-53.0,7.0,8.0,18.0,18.0,1651069661746672.0,2
828,1.0,7.0,0.0,16.0,-43.0,-25.0,-13.0,6.0,1651069661767701.0,2
829,-1.0,-24.0,-7.0,-51.0,39.0,6.0,-30.0,-9.0,1651069661767701.0,2
830,-7.0,-3.0,3.0,12.0,23.0,-5.0,-9.0,-20.0,1651069661768698.0,2
831,-5.0,6.0,2.0,17.0,-14.0,-7.0,16.0,5.0,1651069661768698.0,2
832,14.0,9.0,-19.0,13.0,16.0,6.0,27.0,26.0,1651069661780733.0,2
833,23.0,64.0,46.0,27.0,29.0,21.0,-16.0,17.0,1651069661780733.0,2
834,-10.0,-20.0,-13.0,-22.0,-64.0,-28.0,-21.0,-25.0,1651069661789630.0,2
835,-9.0,6.0,3.0,-8.0,45.0,5.0,5.0,-29.0,1651069661789630.0,2
836,5.0,-6.0,-11.0,-36.0,-27.0,-10.0,14.0,26.0,1651069661804835.0,2
837,11.0,14.0,2.0,-3.0,26.0,30.0,8.0,15.0,1651069661804835.0,2
838,-19.0,-27.0,5.0,-9.0,-6.0,-18.0,-17.0,-15.0,1651069661806859.0,2
839,15.0,6.0,8.0,18.0,-9.0,6.0,-8.0,8.0,1651069661806859.0,2
840,-27.0,-30.0,-3.0,-23.0,-16.0,-6.0,7.0,-2.0,1651069661827676.0,2
841,0.0,10.0,-6.0,58.0,73.0,2.0,-28.0,-20.0,1651069661827676.0,2
842,14.0,14.0,1.0,-40.0,-26.0,-13.0,28.0,21.0,1651069661828674.0,2
843,-7.0,-31.0,-17.0,-9.0,-28.0,4.0,-21.0,13.0,1651069661828674.0,2
844,-3.0,0.0,39.0,59.0,25.0,12.0,21.0,-9.0,1651069661840814.0,2
845,-16.0,-10.0,-31.0,-42.0,-18.0,-6.0,11.0,-14.0,1651069661840814.0,2
846,15.0,19.0,22.0,-8.0,-1.0,-5.0,-6.0,23.0,1651069661849779.0,2
847,3.0,-10.0,-24.0,7.0,10.0,-7.0,1.0,3.0,1651069661849779.0,2
848,3.0,23.0,1.0,-65.0,-58.0,-3.0,-16.0,-8.0,1651069661864627.0,2
849,-5.0,-19.0,-4.0,65.0,38.0,18.0,9.0,-2.0,1651069661864627.0,2
850,-2.0,15.0,27.0,-8.0,2.0,-1.0,-19.0,-19.0,1651069661871372.0,2
851,-7.0,-17.0,-14.0,-2.0,-34.0,-19.0,-10.0,6.0,1651069661871372.0,2
852,-7.0,3.0,-6.0,0.0,0.0,-7.0,6.0,-13.0,1651069661886675.0,2
853,-20.0,-30.0,-9.0,-30.0,-51.0,-6.0,-7.0,-10.0,1651069661886675.0,2
854,2.0,21.0,-10.0,-2.0,11.0,2.0,-22.0,-25.0,1651069661894875.0,2
855,20.0,6.0,13.0,3.0,-13.0,1.0,35.0,36.0,1651069661894875.0,2
856,-4.0,10.0,4.0,8.0,30.0,7.0,5.0,-2.0,1651069661900925.0,2
857,-3.0,-11.0,8.0,-1.0,-53.0,-39.0,-15.0,1.0,1651069661900925.0,2
858,-21.0,-22.0,-22.0,29.0,13.0,19.0,-10.0,-30.0,1651069661909834.0,2
859,-10.0,2.0,-13.0,-39.0,-2.0,-5.0,-12.0,-9.0,1651069661909834.0,2
860,16.0,-11.0,-9.0,18.0,5.0,9.0,12.0,24.0,1651069661924906.0,2
861,-1.0,15.0,-10.0,-55.0,-57.0,-31.0,-18.0,-16.0,1651069661924906.0,2
862,-9.0,-14.0,4.0,49.0,55.0,34.0,28.0,-7.0,1651069661925906.0,2
863,22.0,-22.0,7.0,-5.0,-5.0,-7.0,6.0,37.0,1651069661925906.0,2
864,-19.0,-8.0,-2.0,-21.0,-16.0,-1.0,-1.0,-25.0,1651069661947071.0,2
865,-9.0,1.0,-10.0,-11.0,-26.0,-11.0,-22.0,-15.0,1651069661947071.0,2
866,-10.0,-16.0,-9.0,-26.0,-15.0,-15.0,11.0,-16.0,1651069661949000.0,2
867,13.0,19.0,15.0,54.0,12.0,12.0,3.0,20.0,1651069661949000.0,2
868,14.0,10.0,7.0,-2.0,39.0,12.0,7.0,5.0,1651069661977213.0,2
869,-3.0,-14.0,-5.0,-10.0,0.0,-14.0,-8.0,11.0,1651069661977213.0,2
870,2.0,17.0,11.0,-6.0,-41.0,-5.0,14.0,-1.0,1651069661979142.0,2
871,-18.0,8.0,-11.0,-39.0,-7.0,-9.0,-13.0,-34.0,1651069661979142.0,2
872,21.0,5.0,20.0,47.0,41.0,25.0,0.0,11.0,1651069661985125.0,2
873,-11.0,10.0,-3.0,-4.0,-10.0,-8.0,-9.0,-12.0,1651069661985125.0,2
874,9.0,0.0,-1.0,-17.0,9.0,-12.0,0.0,4.0,1651069661986134.0,2
875,-15.0,-14.0,-21.0,12.0,-13.0,-1.0,-7.0,-6.0,1651069661986134.0,2
876,-9.0,-18.0,10.0,-12.0,37.0,20.0,4.0,-16.0,1651069662006274.0,2
877,14.0,26.0,8.0,8.0,11.0,-2.0,1.0,20.0,1651069662006274.0,2
878,2.0,0.0,0.0,-13.0,-15.0,-8.0,-3.0,4.0,1651069662015344.0,2
879,4.0,6.0,-9.0,-16.0,-31.0,-13.0,-3.0,5.0,1651069662015344.0,2
880,-7.0,12.0,-8.0,14.0,2.0,-7.0,-13.0,-21.0,1651069662029461.0,2
881,7.0,-19.0,-11.0,-12.0,1.0,8.0,10.0,12.0,1651069662029461.0,2
882,-17.0,-9.0,-4.0,15.0,5.0,-14.0,-12.0,-6.0,1651069662031454.0,2
883,-3.0,8.0,8.0,14.0,46.0,33.0,7.0,-17.0,1651069662031454.0,2
884,12.0,33.0,7.0,5.0,-26.0,-18.0,-22.0,12.0,1651069662044539.0,2
885,-7.0,-26.0,3.0,39.0,40.0,19.0,18.0,6.0,1651069662044539.0,2
886,2.0,-13.0,-29.0,-33.0,-44.0,-16.0,-13.0,1.0,1651069662046537.0,2
887,-10.0,-8.0,2.0,-20.0,-17.0,-21.0,-7.0,-9.0,1651069662046537.0,2
888,0.0,-3.0,-2.0,7.0,-19.0,7.0,-4.0,4.0,1651069662067366.0,2
889,-6.0,-5.0,5.0,18.0,47.0,13.0,1.0,-24.0,1651069662067366.0,2
890,17.0,25.0,8.0,-29.0,-49.0,-10.0,-3.0,30.0,1651069662069364.0,2
891,-11.0,-28.0,-24.0,-7.0,36.0,9.0,8.0,-8.0,1651069662069364.0,2
892,-2.0,3.0,15.0,42.0,-15.0,-13.0,-12.0,-26.0,1651069662091518.0,2
893,9.0,14.0,-11.0,-40.0,-11.0,-10.0,1.0,40.0,1651069662091518.0,2
894,-11.0,-34.0,-14.0,5.0,-15.0,-8.0,-13.0,-25.0,1651069662092518.0,2
895,-3.0,13.0,23.0,-6.0,-52.0,-25.0,-23.0,2.0,1651069662092518.0,2
896,15.0,10.0,3.0,26.0,77.0,42.0,28.0,27.0,1651069662104601.0,2
897,-8.0,-1.0,-7.0,1.0,-3.0,12.0,-18.0,-27.0,1651069662104601.0,2
898,11.0,15.0,14.0,26.0,0.0,-1.0,24.0,22.0,1651069662111281.0,2
899,-2.0,15.0,-16.0,-49.0,33.0,19.0,-8.0,-15.0,1651069662111281.0,2
900,-12.0,-31.0,-9.0,-3.0,-22.0,-19.0,14.0,1.0,1651069662127714.0,2
901,14.0,20.0,13.0,1.0,-6.0,-1.0,-10.0,-3.0,1651069662127714.0,2
902,13.0,-1.0,-5.0,11.0,19.0,5.0,0.0,28.0,1651069662128717.0,2
903,-20.0,-13.0,9.0,10.0,-27.0,-9.0,4.0,-30.0,1651069662128717.0,2
904,-5.0,13.0,9.0,4.0,-13.0,3.0,-5.0,20.0,1651069662149756.0,2
905,1.0,2.0,-12.0,-9.0,12.0,-2.0,0.0,-21.0,1651069662149756.0,2
906,-9.0,0.0,5.0,-18.0,-27.0,-12.0,-17.0,-16.0,1651069662151690.0,2
907,-3.0,2.0,-12.0,16.0,6.0,-12.0,14.0,-16.0,1651069662151690.0,2
908,7.0,-10.0,-28.0,-57.0,-55.0,-26.0,-13.0,34.0,1651069662172751.0,2
909,13.0,0.0,17.0,16.0,34.0,42.0,19.0,17.0,1651069662172751.0,2
910,-7.0,-12.0,-7.0,3.0,10.0,1.0,-5.0,-15.0,1651069662173752.0,2
911,7.0,7.0,5.0,16.0,-6.0,4.0,-1.0,18.0,1651069662173752.0,2
912,-17.0,-3.0,2.0,-38.0,-12.0,-22.0,-21.0,-29.0,1651069662187754.0,2
913,7.0,4.0,9.0,66.0,-48.0,-13.0,8.0,6.0,1651069662187754.0,2
914,-6.0,-9.0,-26.0,-43.0,-2.0,5.0,3.0,3.0,1651069662188712.0,2
915,-3.0,-4.0,3.0,2.0,-10.0,-11.0,-9.0,-11.0,1651069662188712.0,2
916,-4.0,10.0,-5.0,-24.0,-12.0,16.0,3.0,-13.0,1651069662209849.0,2
917,2.0,-11.0,-8.0,-6.0,11.0,-28.0,15.0,10.0,1651069662209849.0,2
918,0.0,11.0,5.0,-6.0,25.0,27.0,12.0,12.0,1651069662211797.0,2
919,2.0,-17.0,0.0,3.0,11.0,11.0,5.0,15.0,1651069662211797.0,2
920,-2.0,5.0,-3.0,6.0,-9.0,-17.0,2.0,-16.0,1651069662223934.0,2
921,-23.0,-19.0,-7.0,-35.0,-29.0,-20.0,-16.0,-12.0,1651069662223934.0,2
922,20.0,20.0,27.0,39.0,11.0,16.0,5.0,21.0,1651069662230916.0,2
923,8.0,-2.0,-13.0,-38.0,2.0,1.0,0.0,7.0,1651069662230916.0,2
924,-8.0,-17.0,-15.0,-20.0,-19.0,-12.0,12.0,1.0,1651069662247030.0,2
925,6.0,11.0,13.0,-3.0,10.0,6.0,-5.0,-2.0,1651069662247030.0,2
926,-6.0,21.0,3.0,18.0,43.0,31.0,4.0,-1.0,1651069662248953.0,2
927,4.0,6.0,9.0,35.0,-28.0,-6.0,11.0,13.0,1651069662248953.0,2
928,7.0,-1.0,3.0,13.0,20.0,5.0,-7.0,-13.0,1651069662270080.0,2
929,-15.0,9.0,9.0,-31.0,-34.0,-14.0,2.0,3.0,1651069662270080.0,2
930,-3.0,-27.0,-4.0,23.0,40.0,10.0,2.0,-24.0,1651069662271017.0,2
931,5.0,19.0,-16.0,8.0,35.0,11.0,-1.0,22.0,1651069662271017.0,2
932,-2.0,-7.0,12.0,-7.0,-16.0,0.0,-3.0,-13.0,1651069662283983.0,2
933,12.0,20.0,12.0,9.0,12.0,1.0,1.0,8.0,1651069662283983.0,2
934,-2.0,-3.0,-2.0,20.0,-11.0,-13.0,-11.0,1.0,1651069662292240.0,2
935,-5.0,13.0,-11.0,-62.0,-63.0,-25.0,-6.0,-34.0,1651069662292240.0,2
936,-9.0,-19.0,4.0,4.0,12.0,7.0,-2.0,6.0,1651069662307541.0,2
937,14.0,22.0,6.0,3.0,-3.0,-1.0,4.0,14.0,1651069662307541.0,2
938,-3.0,-23.0,-5.0,3.0,-39.0,-11.0,17.0,4.0,1651069662308472.0,2
939,5.0,-4.0,20.0,17.0,32.0,17.0,11.0,16.0,1651069662308472.0,2
940,-16.0,3.0,3.0,8.0,-15.0,-11.0,-27.0,-29.0,1651069662329637.0,2
941,3.0,-4.0,-16.0,21.0,10.0,-4.0,7.0,5.0,1651069662329637.0,2
942,1.0,8.0,6.0,-23.0,-3.0,0.0,-10.0,-1.0,1651069662331587.0,2
943,5.0,7.0,11.0,-5.0,0.0,2.0,15.0,5.0,1651069662331587.0,2
944,6.0,-9.0,-11.0,0.0,27.0,-8.0,0.0,10.0,1651069662344528.0,2
945,-13.0,7.0,-3.0,-26.0,13.0,38.0,-10.0,-39.0,1651069662344528.0,2
946,-6.0,-13.0,-10.0,-11.0,-2.0,-17.0,3.0,6.0,1651069662350560.0,2
947,5.0,26.0,25.0,19.0,-10.0,-3.0,-11.0,-10.0,1651069662350560.0,2
948,-13.0,-30.0,-18.0,-6.0,-20.0,-5.0,9.0,4.0,1651069662367672.0,2
949,-6.0,-26.0,-3.0,8.0,-7.0,3.0,-18.0,-20.0,1651069662367672.0,2
950,-1.0,13.0,-11.0,-17.0,-9.0,-4.0,5.0,11.0,1651069662368674.0,2
951,-4.0,-8.0,25.0,24.0,-3.0,-2.0,-4.0,-11.0,1651069662368674.0,2
952,15.0,32.0,-23.0,-14.0,11.0,9.0,14.0,6.0,1651069662389768.0,2
953,0.0,-17.0,7.0,-7.0,-51.0,-17.0,3.0,28.0,1651069662389768.0,2
954,8.0,-7.0,-5.0,-2.0,67.0,39.0,5.0,-3.0,1651069662391763.0,2
955,-14.0,-10.0,-5.0,15.0,12.0,-8.0,-15.0,-21.0,1651069662391763.0,2
956,4.0,17.0,8.0,32.0,-7.0,2.0,-1.0,3.0,1651069662404601.0,2
957,4.0,-23.0,-15.0,-29.0,40.0,2.0,-11.0,-7.0,1651069662404601.0,2
958,-14.0,8.0,0.0,-1.0,-31.0,-24.0,14.0,3.0,1651069662411344.0,2
959,13.0,-15.0,-7.0,11.0,-7.0,3.0,16.0,36.0,1651069662411344.0,2
960,-8.0,3.0,-7.0,-29.0,-9.0,-24.0,-12.0,-15.0,1651069662427412.0,2
961,-2.0,8.0,3.0,2.0,11.0,47.0,10.0,8.0,1651069662427412.0,2
962,10.0,2.0,12.0,30.0,39.0,-3.0,-32.0,-28.0,1651069662429347.0,2
963,-8.0,-3.0,-7.0,10.0,18.0,9.0,42.0,6.0,1651069662429347.0,2
964,16.0,4.0,-10.0,-13.0,-26.0,-1.0,26.0,49.0,1651069662450327.0,2
965,-3.0,-1.0,-7.0,-21.0,-8.0,-20.0,-11.0,-34.0,1651069662450327.0,2
966,-3.0,16.0,11.0,-13.0,-6.0,8.0,-11.0,11.0,1651069662451313.0,2
967,-11.0,-9.0,-20.0,7.0,10.0,14.0,-21.0,-23.0,1651069662451313.0,2
968,5.0,11.0,17.0,10.0,9.0,9.0,-6.0,-1.0,1651069662463964.0,2
969,-5.0,-14.0,-11.0,4.0,-18.0,-13.0,6.0,3.0,1651069662463964.0,2
970,0.0,6.0,-11.0,-18.0,-26.0,-9.0,8.0,3.0,1651069662472150.0,2
971,-8.0,-9.0,17.0,-38.0,-43.0,-37.0,-34.0,-19.0,1651069662472150.0,2
972,6.0,-3.0,7.0,16.0,10.0,27.0,1.0,-5.0,1651069662487423.0,2
973,7.0,21.0,-1.0,22.0,12.0,3.0,23.0,17.0,1651069662487423.0,2
974,3.0,-33.0,-7.0,-17.0,-15.0,-16.0,6.0,19.0,1651069662489384.0,2
975,-4.0,-19.0,-11.0,-15.0,-18.0,-3.0,-9.0,-22.0,1651069662489384.0,2
976,16.0,18.0,15.0,46.0,35.0,20.0,0.0,19.0,1651069662510335.0,2
977,8.0,4.0,1.0,-13.0,-5.0,-2.0,11.0,22.0,1651069662510335.0,2
978,-6.0,8.0,17.0,19.0,12.0,2.0,-20.0,-26.0,1651069662511338.0,2
979,-1.0,5.0,-20.0,-22.0,-7.0,2.0,19.0,8.0,1651069662511338.0,2
980,-7.0,-15.0,-7.0,-8.0,8.0,-3.0,-5.0,2.0,1651069662523413.0,2
981,-4.0,-16.0,-3.0,4.0,-15.0,-10.0,-19.0,-9.0,1651069662523413.0,2
982,-6.0,3.0,2.0,-23.0,7.0,2.0,2.0,-7.0,1651069662532507.0,2
983,9.0,11.0,7.0,32.0,48.0,16.0,-11.0,-4.0,1651069662532507.0,2
984,-4.0,-6.0,-8.0,-8.0,-15.0,-3.0,-1.0,-7.0,1651069662547651.0,2
985,-4.0,1.0,3.0,6.0,-4.0,-20.0,-16.0,-2.0,1651069662547651.0,2
986,-3.0,-5.0,-18.0,-22.0,-7.0,-5.0,-4.0,-7.0,1651069662548585.0,2
987,3.0,4.0,3.0,11.0,-8.0,0.0,-5.0,7.0,1651069662548585.0,2
988,-3.0,4.0,9.0,0.0,7.0,1.0,-7.0,-17.0,1651069662570251.0,2
989,-4.0,0.0,5.0,2.0,-4.0,0.0,12.0,11.0,1651069662570251.0,2
990,1.0,-5.0,-7.0,-9.0,-13.0,-1.0,2.0,5.0,1651069662571733.0,2
991,8.0,5.0,5.0,19.0,18.0,-1.0,1.0,12.0,1651069662571733.0,2
992,-6.0,-8.0,-12.0,-24.0,-14.0,-10.0,1.0,-5.0,1651069662583746.0,2
993,-2.0,5.0,14.0,11.0,1.0,2.0,-4.0,-5.0,1651069662583746.0,2
994,3.0,1.0,-3.0,14.0,1.0,1.0,0.0,0.0,1651069662592707.0,2
995,-2.0,2.0,0.0,-8.0,-7.0,-7.0,-15.0,-8.0,1651069662592707.0,2
996,-1.0,-5.0,0.0,1.0,-3.0,-2.0,22.0,13.0,1651069662607435.0,2
997,0.0,0.0,-3.0,-3.0,4.0,3.0,0.0,1.0,1651069662607435.0,2
998,3.0,3.0,13.0,10.0,-5.0,-4.0,2.0,2.0,1651069662609409.0,2
999,-3.0,-5.0,-19.0,-28.0,-34.0,-15.0,-7.0,-3.0,1651069662609409.0,2
1000,-3.0,-1.0,3.0,20.0,42.0,16.0,-4.0,-2.0,1651069662629407.0,2
1001,-1.0,0.0,-4.0,-4.0,-2.0,0.0,-4.0,-5.0,1651069662629407.0,2
1002,3.0,2.0,5.0,7.0,-4.0,5.0,12.0,7.0,1651069662631401.0,2
1003,-5.0,-9.0,-8.0,-3.0,-9.0,-5.0,-1.0,3.0,1651069662631401.0,2
1004,-1.0,-1.0,-2.0,1.0,0.0,-3.0,-9.0,-6.0,1651069662643926.0,2
1005,-1.0,4.0,-13.0,-12.0,-7.0,-2.0,9.0,3.0,1651069662643926.0,2
1006,1.0,5.0,26.0,19.0,-3.0,-3.0,-7.0,7.0,1651069662652475.0,2
1007,3.0,-1.0,-4.0,-10.0,6.0,7.0,11.0,6.0,1651069662652475.0,2
1008,-2.0,-3.0,11.0,4.0,-12.0,-8.0,-7.0,-2.0,1651069662667614.0,2
1009,-4.0,-7.0,-27.0,-13.0,8.0,4.0,-2.0,-5.0,1651069662667614.0,2
1010,-3.0,-4.0,-7.0,-8.0,-5.0,-3.0,-8.0,-8.0,1651069662668549.0,2
1011,3.0,1.0,-1.0,-7.0,-6.0,1.0,2.0,0.0,1651069662668549.0,2
1012,0.0,-1.0,3.0,21.0,6.0,-2.0,5.0,5.0,1651069662689706.0,2
1013,-2.0,-1.0,-10.0,-9.0,4.0,0.0,-12.0,-7.0,1651069662689706.0,2
1014,-3.0,2.0,13.0,7.0,-6.0,0.0,4.0,-2.0,1651069662691707.0,2
1015,4.0,10.0,24.0,1.0,-9.0,2.0,5.0,6.0,1651069662691707.0,2
1016,-2.0,-9.0,-16.0,-35.0,-19.0,-4.0,-1.0,-4.0,1651069662704015.0,2
1017,1.0,4.0,0.0,20.0,1.0,-2.0,-1.0,1.0,1651069662704015.0,2
1018,0.0,-2.0,-34.0,-3.0,17.0,-2.0,-2.0,-1.0,1651069662712827.0,2
1019,1.0,0.0,13.0,10.0,13.0,5.0,0.0,-1.0,1651069662712827.0,2
1020,2.0,-6.0,-16.0,15.0,14.0,2.0,-5.0,-2.0,1651069662727738.0,2
1021,0.0,5.0,-8.0,-19.0,-3.0,6.0,1.0,0.0,1651069662727738.0,2
1022,-8.0,5.0,64.0,15.0,-30.0,-19.0,-5.0,-2.0,1651069662728673.0,2
1023,12.0,-7.0,-10.0,1.0,8.0,6.0,15.0,4.0,1651069662728673.0,2
1024,-12.0,2.0,10.0,7.0,3.0,-3.0,2.0,1.0,1651069662750275.0,2
1025,-1.0,-5.0,-14.0,10.0,9.0,-3.0,-18.0,-14.0,1651069662750275.0,2
1026,7.0,10.0,-39.0,-6.0,19.0,14.0,13.0,8.0,1651069662751777.0,2
1027,-10.0,-30.0,4.0,23.0,-6.0,-12.0,-10.0,3.0,1651069662751777.0,2
1028,22.0,26.0,1.0,-39.0,-12.0,-6.0,6.0,0.0,1651069662763857.0,2
1029,-37.0,-31.0,-3.0,-18.0,-17.0,-7.0,-9.0,-8.0,1651069662763857.0,2
1030,-5.0,-10.0,27.0,-10.0,-8.0,2.0,12.0,2.0,1651069662772836.0,2
1031,2.0,0.0,-58.0,-53.0,-9.0,-8.0,-12.0,-5.0,1651069662772836.0,2
1032,1.0,8.0,5.0,74.0,30.0,10.0,-3.0,-6.0,1651069662787077.0,2
1033,-4.0,-4.0,27.0,20.0,-22.0,-10.0,-2.0,1.0,1651069662787077.0,2
1034,-2.0,-10.0,-45.0,-23.0,-1.0,0.0,-5.0,-5.0,1651069662793958.0,2
1035,-1.0,4.0,11.0,23.0,20.0,11.0,5.0,2.0,1651069662793958.0,2
1036,-5.0,-12.0,-8.0,-3.0,-24.0,-9.0,-8.0,-5.0,1651069662810118.0,2
1037,11.0,8.0,3.0,-12.0,-3.0,-2.0,8.0,4.0,1651069662810118.0,2
1038,-3.0,1.0,4.0,12.0,6.0,1.0,-3.0,-1.0,1651069662811102.0,2
1039,-1.0,7.0,7.0,37.0,7.0,-1.0,-7.0,-7.0,1651069662811102.0,2
1040,4.0,8.0,18.0,18.0,9.0,2.0,1.0,4.0,1651069662823139.0,2
1041,7.0,3.0,-51.0,-51.0,-26.0,-3.0,6.0,5.0,1651069662823139.0,2
1042,-9.0,-12.0,53.0,16.0,3.0,1.0,4.0,-2.0,1651069662832682.0,2
1043,3.0,17.0,14.0,10.0,10.0,1.0,-6.0,-3.0,1651069662832682.0,2
1044,-6.0,-14.0,-25.0,13.0,17.0,-1.0,-1.0,-3.0,1651069662846406.0,2
1045,13.0,16.0,9.0,-9.0,-9.0,-2.0,9.0,6.0,1651069662846406.0,2
1046,-16.0,-14.0,11.0,29.0,-8.0,-4.0,-12.0,-5.0,1651069662853989.0,2
1047,1.0,13.0,-12.0,-17.0,2.0,6.0,2.0,-3.0,1651069662853989.0,2
1048,1.0,-8.0,26.0,57.0,21.0,11.0,10.0,9.0,1651069662870354.0,2
1049,3.0,3.0,-12.0,-28.0,4.0,0.0,-19.0,-14.0,1651069662870354.0,2
1050,20.0,15.0,5.0,-30.0,-7.0,5.0,34.0,25.0,1651069662871368.0,2
1051,-5.0,4.0,10.0,11.0,10.0,1.0,2.0,-2.0,1651069662871368.0,2
1052,-3.0,-8.0,1.0,-18.0,-18.0,-3.0,1.0,5.0,1651069662883900.0,2
1053,1.0,0.0,5.0,18.0,10.0,-1.0,-7.0,-5.0,1651069662883900.0,2
1054,0.0,0.0,-16.0,-3.0,0.0,-3.0,-15.0,-12.0,1651069662892314.0,2
1055,-3.0,-8.0,5.0,29.0,8.0,1.0,2.0,1.0,1651069662892314.0,2
1056,0.0,1.0,-28.0,-72.0,-21.0,-4.0,-1.0,-2.0,1651069662906344.0,2
1057,-1.0,0.0,48.0,42.0,13.0,2.0,4.0,5.0,1651069662906344.0,2
1058,1.0,-2.0,-20.0,-11.0,-8.0,-2.0,-5.0,-3.0,1651069662913285.0,2
1059,-1.0,1.0,6.0,-14.0,6.0,2.0,1.0,2.0,1651069662913285.0,2
1060,0.0,1.0,-10.0,-24.0,-20.0,-9.0,-9.0,-6.0,1651069662930123.0,2
1061,-5.0,-5.0,8.0,11.0,8.0,3.0,7.0,5.0,1651069662930123.0,2
1062,1.0,-4.0,-26.0,-10.0,-3.0,-6.0,-3.0,-2.0,1651069662931124.0,2
1063,2.0,3.0,3.0,-11.0,-4.0,0.0,-4.0,-5.0,1651069662931124.0,2
1064,-12.0,-3.0,6.0,-6.0,-10.0,-5.0,2.0,3.0,1651069662952416.0,2
1065,5.0,0.0,9.0,11.0,9.0,5.0,6.0,2.0,1651069662952416.0,2
1066,6.0,10.0,1.0,1.0,2.0,-2.0,-5.0,-3.0,1651069662954373.0,2
1067,-8.0,-9.0,-6.0,0.0,-5.0,-1.0,-1.0,-2.0,1651069662954373.0,2
1068,2.0,1.0,5.0,-14.0,-2.0,0.0,3.0,1.0,1651069662966933.0,2
1069,-1.0,0.0,-4.0,8.0,6.0,1.0,4.0,2.0,1651069662966933.0,2
1070,-4.0,-2.0,-18.0,-8.0,-5.0,-3.0,-9.0,-7.0,1651069662973920.0,2
1071,1.0,0.0,7.0,6.0,-5.0,-2.0,1.0,0.0,1651069662973920.0,2
1072,1.0,-1.0,-7.0,-4.0,4.0,4.0,0.0,-2.0,1651069662989744.0,2
1073,0.0,-1.0,1.0,0.0,-4.0,-4.0,1.0,0.0,1651069662989744.0,2
1074,1.0,-2.0,-3.0,9.0,2.0,-1.0,-3.0,-2.0,1651069662991673.0,2
1075,0.0,-3.0,3.0,-8.0,-5.0,0.0,0.0,0.0,1651069662991673.0,2
1076,0.0,-1.0,-22.0,-6.0,1.0,0.0,-1.0,0.0,1651069663014107.0,2
1077,-2.0,0.0,20.0,8.0,3.0,2.0,1.0,-1.0,1651069663014107.0,2
1078,1.0,-1.0,8.0,3.0,-2.0,-2.0,-3.0,-2.0,1651069663015111.0,2
1079,-2.0,-5.0,-28.0,-3.0,5.0,0.0,0.0,-1.0,1651069663015111.0,2
1080,-2.0,0.0,2.0,-3.0,-4.0,-3.0,-1.0,-1.0,1651069663027179.0,2
1081,1.0,1.0,-7.0,-7.0,0.0,-1.0,0.0,0.0,1651069663027179.0,2
1082,1.0,1.0,-16.0,10.0,4.0,0.0,0.0,-1.0,1651069663033928.0,2
1083,0.0,3.0,29.0,-3.0,-7.0,-2.0,-2.0,-1.0,1651069663033928.0,2
1084,0.0,-2.0,1.0,-11.0,-4.0,0.0,0.0,0.0,1651069663050204.0,2
1085,-1.0,0.0,-3.0,-15.0,-2.0,-2.0,2.0,1.0,1651069663050204.0,2
1086,-1.0,-4.0,-5.0,20.0,7.0,2.0,-1.0,-1.0,1651069663051140.0,2
1087,-2.0,-3.0,-9.0,-8.0,-4.0,-3.0,-2.0,0.0,1651069663051140.0,2
1088,-1.0,-2.0,5.0,1.0,-11.0,-10.0,-1.0,-2.0,1651069663072267.0,2
1089,-1.0,-3.0,-11.0,7.0,3.0,-2.0,-1.0,-1.0,1651069663072267.0,2
1090,3.0,6.0,22.0,2.0,13.0,14.0,4.0,1.0,1651069663074195.0,2
1091,-1.0,-1.0,2.0,-5.0,-6.0,-3.0,0.0,0.0,1651069663074195.0,2
1092,0.0,-1.0,0.0,0.0,-1.0,-1.0,2.0,0.0,1651069663087162.0,2
1093,-1.0,0.0,2.0,3.0,-14.0,-13.0,-3.0,-3.0,1651069663087162.0,2
1094,0.0,-2.0,-9.0,1.0,1.0,1.0,-1.0,-1.0,1651069663094008.0,2
1095,-1.0,0.0,-6.0,-4.0,1.0,3.0,-1.0,0.0,1651069663094008.0,2
1096,-1.0,0.0,1.0,-1.0,-3.0,-1.0,-1.0,0.0,1651069663110250.0,2
1097,0.0,-2.0,0.0,8.0,-1.0,-2.0,0.0,0.0,1651069663110250.0,2
1098,0.0,0.0,7.0,-1.0,-2.0,0.0,1.0,-1.0,1651069663111506.0,2
1099,-1.0,-2.0,-4.0,-7.0,-1.0,1.0,-1.0,0.0,1651069663111506.0,2
1100,-1.0,-3.0,-7.0,3.0,0.0,-2.0,-4.0,-1.0,1651069663132835.0,2
1101,-2.0,0.0,-6.0,5.0,7.0,7.0,0.0,1.0,1651069663132835.0,2
1102,0.0,0.0,0.0,-6.0,-2.0,-4.0,-2.0,-1.0,1651069663133842.0,2
1103,-2.0,-5.0,-27.0,-8.0,-4.0,-4.0,0.0,-1.0,1651069663133842.0,2
1104,-1.0,-2.0,6.0,4.0,3.0,4.0,0.0,-2.0,1651069663146884.0,2
1105,-1.0,-2.0,-15.0,3.0,3.0,3.0,1.0,0.0,1651069663146884.0,2
1106,1.0,1.0,-3.0,-13.0,-7.0,-6.0,-4.0,-1.0,1651069663153931.0,2
1107,-3.0,-4.0,18.0,14.0,-8.0,-4.0,-2.0,-1.0,1651069663153931.0,2
1108,0.0,-2.0,-17.0,0.0,7.0,6.0,1.0,-1.0,1651069663170434.0,2
1109,0.0,2.0,6.0,-2.0,5.0,3.0,0.0,1.0,1651069663170434.0,2
1110,-3.0,-4.0,-12.0,-9.0,-14.0,-7.0,-2.0,-1.0,1651069663171390.0,2
1111,2.0,2.0,10.0,1.0,13.0,0.0,1.0,1.0,1651069663171390.0,2
1112,0.0,1.0,5.0,-6.0,-10.0,-3.0,-2.0,-2.0,1651069663191655.0,2
1113,-1.0,-3.0,6.0,4.0,-7.0,-5.0,-1.0,-1.0,1651069663191655.0,2
1114,0.0,0.0,-6.0,4.0,10.0,3.0,0.0,-1.0,1651069663199660.0,2
1115,-1.0,-1.0,5.0,3.0,-1.0,0.0,0.0,-1.0,1651069663199660.0,2
1116,1.0,2.0,5.0,-15.0,-8.0,-5.0,-3.0,-1.0,1651069663206615.0,2
1117,-2.0,-1.0,-2.0,-5.0,1.0,1.0,-1.0,0.0,1651069663206615.0,2
1118,-1.0,0.0,-1.0,2.0,-5.0,-1.0,1.0,-2.0,1651069663213067.0,2
1119,0.0,0.0,0.0,-2.0,-6.0,-1.0,-1.0,1.0,1651069663213067.0,2
1120,-2.0,-2.0,6.0,4.0,11.0,6.0,0.0,-1.0,1651069663230024.0,2
1121,1.0,-2.0,5.0,6.0,8.0,5.0,1.0,0.0,1651069663230024.0,2
1122,-2.0,-1.0,-3.0,-3.0,-1.0,-3.0,0.0,-1.0,1651069663231021.0,2
1123,0.0,1.0,-1.0,-2.0,-3.0,0.0,-2.0,-1.0,1651069663231021.0,2
1124,1.0,1.0,-5.0,-5.0,-4.0,-2.0,0.0,0.0,1651069663252502.0,2
1125,1.0,2.0,19.0,13.0,7.0,2.0,0.0,1.0,1651069663252502.0,2
1126,-1.0,-4.0,-7.0,-2.0,-3.0,-1.0,-1.0,-1.0,1651069663253501.0,2
1127,-1.0,0.0,-5.0,-5.0,-1.0,1.0,1.0,-2.0,1651069663253501.0,2
1128,-2.0,-1.0,3.0,4.0,-5.0,-5.0,-3.0,-1.0,1651069663266539.0,2
1129,1.0,0.0,-2.0,-4.0,1.0,2.0,-1.0,1.0,1651069663266539.0,2
1130,1.0,-2.0,-1.0,-2.0,-5.0,-2.0,-1.0,1.0,1651069663281462.0,2
1131,-2.0,-2.0,-1.0,1.0,9.0,-2.0,-2.0,-1.0,1651069663281462.0,2
1132,2.0,0.0,11.0,-3.0,2.0,7.0,1.0,1.0,1651069663289470.0,2
1133,0.0,-2.0,-5.0,6.0,-1.0,-1.0,0.0,2.0,1651069663289470.0,2
1134,-2.0,0.0,2.0,-2.0,-4.0,-4.0,-1.0,0.0,1651069663291445.0,2
1135,-1.0,-3.0,-1.0,1.0,-1.0,0.0,0.0,1.0,1651069663291445.0,2
1136,-1.0,-2.0,1.0,-1.0,-1.0,-4.0,-1.0,-4.0,1651069663312379.0,2
1137,-1.0,0.0,0.0,-7.0,-2.0,1.0,0.0,-1.0,1651069663312379.0,2
1138,-1.0,0.0,-1.0,0.0,1.0,2.0,0.0,-1.0,1651069663314375.0,2
1139,-1.0,1.0,2.0,-3.0,-9.0,-4.0,-2.0,-1.0,1651069663314375.0,2
1140,-1.0,-2.0,-6.0,2.0,8.0,-2.0,0.0,1.0,1651069663326370.0,2
1141,0.0,3.0,10.0,0.0,4.0,9.0,2.0,1.0,1651069663326370.0,2
1142,-1.0,1.0,2.0,5.0,1.0,1.0,1.0,-2.0,1651069663333351.0,2
1143,0.0,-2.0,-1.0,-3.0,-2.0,0.0,1.0,-1.0,1651069663333351.0,2
1144,-1.0,1.0,-1.0,0.0,-8.0,-8.0,-2.0,-1.0,1651069663349309.0,2
1145,-1.0,-1.0,-4.0,-10.0,-4.0,-4.0,-1.0,-1.0,1651069663349309.0,2
1146,1.0,1.0,0.0,-3.0,1.0,0.0,-1.0,-1.0,1651069663351276.0,2
1147,-2.0,-1.0,2.0,2.0,1.0,3.0,1.0,-1.0,1651069663351276.0,2
1148,-1.0,-2.0,-5.0,0.0,1.0,1.0,1.0,1.0,1651069663372724.0,2
1149,1.0,2.0,9.0,4.0,-1.0,0.0,-2.0,-1.0,1651069663372724.0,2
1150,0.0,-2.0,-5.0,0.0,-8.0,1.0,-1.0,1.0,1651069663373724.0,2
1151,1.0,-1.0,-5.0,1.0,9.0,5.0,0.0,-1.0,1651069663373724.0,2
1152,-1.0,-1.0,-3.0,-1.0,-4.0,-3.0,-1.0,0.0,1651069663385719.0,2
1153,0.0,0.0,-2.0,-5.0,-3.0,-2.0,0.0,-4.0,1651069663385719.0,2
1154,-1.0,-1.0,-3.0,9.0,1.0,-2.0,0.0,0.0,1651069663394666.0,2
1155,1.0,-1.0,-1.0,-5.0,-3.0,-2.0,0.0,1.0,1651069663394666.0,2
1156,0.0,0.0,4.0,3.0,0.0,0.0,-1.0,0.0,1651069663409653.0,2
1157,-2.0,0.0,-2.0,-3.0,-1.0,-4.0,-1.0,0.0,1651069663409653.0,2
1158,-1.0,-2.0,-19.0,-9.0,2.0,-1.0,-2.0,0.0,1651069663411621.0,2
1159,0.0,-1.0,1.0,2.0,-4.0,0.0,-1.0,-1.0,1651069663411621.0,2
1160,-1.0,0.0,-1.0,2.0,1.0,0.0,0.0,-1.0,1651069663432584.0,2
1161,0.0,-2.0,-7.0,2.0,-5.0,-3.0,-2.0,0.0,1651069663432584.0,2
1162,-1.0,-1.0,6.0,1.0,6.0,4.0,1.0,2.0,1651069663433563.0,2
1163,-1.0,0.0,0.0,2.0,0.0,1.0,1.0,1.0,1651069663433563.0,2
1164,0.0,-1.0,-3.0,-1.0,-1.0,0.0,-3.0,-1.0,1651069663445550.0,2
1165,0.0,0.0,-2.0,-3.0,-2.0,-3.0,0.0,-1.0,1651069663445550.0,2
1166,-1.0,-1.0,1.0,-16.0,-8.0,-2.0,-1.0,0.0,1651069663454506.0,2
1167,-1.0,-1.0,1.0,24.0,6.0,0.0,-1.0,-1.0,1651069663454506.0,2
1168,-1.0,0.0,1.0,-4.0,0.0,2.0,1.0,0.0,1651069663469493.0,2
1169,-1.0,-2.0,-3.0,-3.0,-4.0,-4.0,1.0,-1.0,1651069663469493.0,2
1170,0.0,0.0,0.0,-7.0,5.0,0.0,0.0,-2.0,1651069663471461.0,2
1171,-1.0,1.0,-2.0,-6.0,-2.0,-2.0,-1.0,0.0,1651069663471461.0,2
1172,0.0,0.0,0.0,2.0,-2.0,0.0,0.0,-1.0,1651069663492404.0,2
1173,-1.0,-2.0,-2.0,-3.0,-2.0,0.0,-2.0,-1.0,1651069663492404.0,2
1174,0.0,-1.0,0.0,2.0,-5.0,-6.0,0.0,-1.0,1651069663493402.0,2
1175,0.0,-1.0,3.0,-4.0,10.0,8.0,2.0,0.0,1651069663493402.0,2
1176,0.0,2.0,-1.0,0.0,-1.0,-1.0,-1.0,-1.0,1651069663506377.0,2
1177,1.0,-1.0,-2.0,1.0,3.0,-2.0,-2.0,-1.0,1651069663506377.0,2
1178,-1.0,-1.0,3.0,3.0,-5.0,-4.0,-2.0,-2.0,1651069663515343.0,2
1179,-2.0,0.0,-4.0,-11.0,-7.0,-4.0,-1.0,-1.0,1651069663515343.0,2
1180,-1.0,0.0,3.0,8.0,3.0,0.0,2.0,-1.0,1651069663530304.0,2
1181,-1.0,-1.0,0.0,0.0,0.0,1.0,1.0,1.0,1651069663530304.0,2
1182,0.0,-1.0,-2.0,1.0,1.0,0.0,-2.0,0.0,1651069663531301.0,2
1183,0.0,-1.0,-4.0,-6.0,-7.0,-4.0,0.0,-1.0,1651069663531301.0,2
1184,1.0,2.0,11.0,0.0,1.0,2.0,2.0,1.0,1651069663560225.0,2
1185,1.0,1.0,-1.0,0.0,0.0,-1.0,1.0,0.0,1651069663560225.0,2
1186,0.0,1.0,0.0,5.0,4.0,2.0,0.0,-1.0,1651069663561236.0,2
1187,-1.0,-1.0,-2.0,-8.0,-4.0,-2.0,-2.0,1.0,1651069663561236.0,2
1188,-2.0,-1.0,-7.0,2.0,-1.0,-3.0,-1.0,-1.0,1651069663566207.0,2
1189,-1.0,-3.0,-4.0,-5.0,-2.0,0.0,-1.0,-1.0,1651069663566207.0,2
1190,-2.0,-3.0,3.0,10.0,2.0,-2.0,1.0,0.0,1651069663575183.0,2
1191,0.0,1.0,0.0,0.0,-3.0,-2.0,0.0,0.0,1651069663575183.0,2
1192,1.0,-1.0,-1.0,-2.0,-1.0,2.0,0.0,1.0,1651069663590284.0,2
1193,-1.0,-1.0,-2.0,-6.0,-1.0,-2.0,-1.0,1.0,1651069663590284.0,2
1194,0.0,1.0,0.0,-3.0,-1.0,0.0,-2.0,0.0,1651069663591283.0,2
1195,0.0,-1.0,-3.0,-1.0,-2.0,-3.0,-2.0,-2.0,1651069663591283.0,2
1196,-1.0,-1.0,-2.0,-2.0,-1.0,0.0,1.0,0.0,1651069663612675.0,2
1197,-1.0,-1.0,-1.0,0.0,-1.0,-2.0,1.0,-1.0,1651069663612675.0,2
1198,0.0,0.0,0.0,-3.0,-7.0,-2.0,-1.0,2.0,1651069663613639.0,2
1199,0.0,0.0,9.0,9.0,9.0,0.0,-1.0,-1.0,1651069663613639.0,2
1200,1.0,0.0,-1.0,-5.0,1.0,2.0,-1.0,-1.0,1651069663626388.0,2
1201,0.0,0.0,0.0,5.0,1.0,-1.0,-1.0,0.0,1651069663626388.0,2
1202,-2.0,0.0,-3.0,-1.0,2.0,1.0,1.0,-1.0,1651069663634625.0,2
1203,-3.0,0.0,-2.0,-5.0,-5.0,0.0,-2.0,2.0,1651069663634625.0,2
1204,0.0,-1.0,-3.0,-1.0,-3.0,-2.0,-2.0,-2.0,1651069663649368.0,2
1205,-1.0,1.0,1.0,-2.0,-1.0,-1.0,0.0,-1.0,1651069663649368.0,2
1206,0.0,-1.0,1.0,1.0,-1.0,0.0,0.0,-1.0,1651069663651328.0,2
1207,-2.0,-3.0,0.0,-5.0,0.0,0.0,-1.0,-1.0,1651069663651328.0,2
1208,1.0,0.0,5.0,11.0,4.0,-2.0,0.0,1.0,1651069663672308.0,2
1209,0.0,0.0,-3.0,-3.0,-1.0,-3.0,1.0,-1.0,1651069663672308.0,2
1210,1.0,-2.0,0.0,-4.0,-4.0,-2.0,-2.0,-1.0,1651069663674296.0,2
1211,-1.0,0.0,-2.0,-1.0,-2.0,-1.0,-1.0,1.0,1651069663674296.0,2
1212,1.0,-2.0,1.0,-3.0,-2.0,-2.0,-1.0,0.0,1651069663686238.0,2
1213,0.0,0.0,0.0,2.0,1.0,3.0,-2.0,-1.0,1651069663686238.0,2
1214,0.0,-1.0,-3.0,-1.0,1.0,1.0,2.0,0.0,1651069663695307.0,2
1215,0.0,-1.0,-2.0,0.0,-1.0,0.0,-1.0,-4.0,1651069663695307.0,2
1216,-2.0,-1.0,-3.0,-4.0,-5.0,-1.0,-2.0,-1.0,1651069663710309.0,2
1217,-1.0,-1.0,1.0,2.0,-5.0,-2.0,-1.0,-1.0,1651069663710309.0,2
1218,-1.0,-1.0,0.0,-3.0,-1.0,1.0,0.0,0.0,1651069663711321.0,2
1219,0.0,1.0,-2.0,0.0,1.0,2.0,1.0,0.0,1651069663711321.0,2
1220,1.0,0.0,-1.0,-4.0,-1.0,-3.0,-1.0,0.0,1651069663732862.0,2
1221,1.0,-1.0,0.0,2.0,3.0,3.0,1.0,1.0,1651069663732862.0,2
1222,-1.0,0.0,2.0,-1.0,-4.0,-3.0,-1.0,1.0,1651069663733863.0,2
1223,-1.0,0.0,-3.0,-7.0,-2.0,-1.0,1.0,0.0,1651069663733863.0,2
1224,-1.0,-1.0,-1.0,4.0,-1.0,-4.0,0.0,-2.0,1651069663745897.0,2
1225,-1.0,0.0,2.0,-10.0,0.0,-2.0,0.0,0.0,1651069663745897.0,2
1226,-2.0,-2.0,-10.0,4.0,3.0,0.0,0.0,-1.0,1651069663755295.0,2
1227,0.0,0.0,2.0,0.0,-4.0,-3.0,-1.0,0.0,1651069663755295.0,2
1228,-1.0,1.0,7.0,0.0,6.0,2.0,0.0,0.0,1651069663770209.0,2
1229,-1.0,-1.0,0.0,-5.0,-2.0,0.0,-1.0,1.0,1651069663770209.0,2
1230,0.0,-1.0,-3.0,-3.0,1.0,1.0,0.0,-1.0,1651069663771170.0,2
1231,-1.0,-1.0,-2.0,0.0,-1.0,-1.0,0.0,-1.0,1651069663771170.0,2
1232,-1.0,-1.0,-5.0,-4.0,-5.0,1.0,-2.0,-3.0,1651069663792295.0,2
1233,0.0,0.0,0.0,5.0,2.0,-1.0,0.0,0.0,1651069663792295.0,2
1234,-2.0,-1.0,0.0,-2.0,-3.0,-3.0,-1.0,-3.0,1651069663794278.0,2
1235,0.0,-1.0,-2.0,2.0,0.0,-3.0,0.0,-1.0,1651069663794278.0,2
1236,-1.0,-1.0,-1.0,-4.0,-1.0,2.0,0.0,1.0,1651069663806246.0,2
1237,0.0,1.0,0.0,-1.0,-2.0,-2.0,-1.0,-1.0,1651069663806246.0,2
1238,1.0,-1.0,3.0,9.0,5.0,0.0,-1.0,0.0,1651069663815226.0,2
1239,0.0,1.0,-1.0,-2.0,0.0,1.0,-1.0,-1.0,1651069663815226.0,2
1240,-2.0,-2.0,-3.0,-1.0,-2.0,0.0,1.0,-1.0,1651069663837395.0,2
1241,-2.0,-2.0,-3.0,-2.0,-1.0,-2.0,-2.0,0.0,1651069663837395.0,2
1242,0.0,-1.0,1.0,-2.0,-4.0,-1.0,-1.0,1.0,1651069663839415.0,2
1243,0.0,-2.0,-1.0,3.0,0.0,-3.0,1.0,1.0,1651069663839415.0,2
1244,0.0,-1.0,0.0,-1.0,-1.0,-1.0,-1.0,0.0,1651069663852541.0,2
1245,0.0,1.0,-1.0,3.0,-2.0,0.0,0.0,-1.0,1651069663852541.0,2
1246,-1.0,1.0,2.0,-2.0,0.0,1.0,-1.0,-1.0,1651069663853498.0,0
1247,-1.0,-2.0,0.0,1.0,1.0,1.0,-1.0,-1.0,1651069663853498.0,0
1248,-1.0,0.0,-2.0,-2.0,-1.0,-1.0,-1.0,0.0,1651069663875296.0,0
1249,0.0,-1.0,-2.0,2.0,0.0,0.0,0.0,-1.0,1651069663875296.0,0
1250,-2.0,-1.0,-2.0,-5.0,-3.0,-2.0,0.0,-2.0,1651069663876296.0,0
1251,-1.0,0.0,-3.0,-4.0,-4.0,-4.0,-3.0,-1.0,1651069663876296.0,0
1252,0.0,-1.0,-2.0,4.0,3.0,7.0,2.0,-1.0,1651069663890302.0,0
1253,-1.0,-1.0,0.0,0.0,0.0,-1.0,0.0,-1.0,1651069663890302.0,0
1254,0.0,-1.0,1.0,-3.0,-1.0,0.0,0.0,0.0,1651069663891255.0,0
1255,1.0,-1.0,-1.0,-17.0,-6.0,-3.0,0.0,1.0,1651069663891255.0,0
1256,-1.0,-1.0,3.0,34.0,8.0,0.0,0.0,-1.0,1651069663912266.0,0
1257,-1.0,-2.0,-2.0,-12.0,0.0,0.0,0.0,0.0,1651069663912266.0,3
1258,1.0,-1.0,-1.0,-2.0,-1.0,0.0,-1.0,1.0,1651069663914224.0,3
1259,-1.0,-1.0,-1.0,-1.0,-1.0,-1.0,-1.0,-1.0,1651069663914224.0,3
1260,-1.0,1.0,-1.0,-7.0,-4.0,-2.0,-1.0,-1.0,1651069663934645.0,3
1261,0.0,-1.0,-1.0,4.0,-3.0,1.0,-2.0,-1.0,1651069663934645.0,3
1262,-2.0,-3.0,0.0,0.0,6.0,1.0,-1.0,0.0,1651069663936643.0,3
1263,-2.0,0.0,0.0,3.0,4.0,1.0,-1.0,-1.0,1651069663936643.0,3
1264,0.0,-4.0,-3.0,-9.0,-7.0,-5.0,-1.0,0.0,1651069663949675.0,3
1265,-1.0,0.0,0.0,6.0,0.0,-2.0,-1.0,-1.0,1651069663949675.0,3
1266,-1.0,0.0,-1.0,-7.0,-5.0,-4.0,-1.0,-1.0,1651069663951603.0,3
1267,0.0,0.0,0.0,7.0,2.0,-1.0,-1.0,0.0,1651069663951603.0,3
1268,-1.0,0.0,0.0,-3.0,1.0,1.0,1.0,-1.0,1651069663972810.0,3
1269,0.0,-3.0,-1.0,0.0,-2.0,-1.0,-3.0,-1.0,1651069663972810.0,3
1270,0.0,-1.0,0.0,3.0,0.0,1.0,1.0,0.0,1651069663973817.0,3
1271,0.0,0.0,0.0,2.0,-1.0,-1.0,-1.0,0.0,1651069663973817.0,3
1272,-1.0,0.0,-1.0,-6.0,-3.0,-5.0,-1.0,-2.0,1651069663994507.0,3
1273,-1.0,-3.0,-4.0,-1.0,2.0,3.0,1.0,0.0,1651069663994507.0,3
1274,-1.0,-1.0,0.0,2.0,-2.0,-2.0,0.0,-1.0,1651069663996436.0,3
1275,-1.0,-1.0,-2.0,-2.0,0.0,0.0,-1.0,0.0,1651069663996436.0,3
1276,0.0,-1.0,0.0,-3.0,-2.0,-3.0,0.0,1.0,1651069664009468.0,3
1277,0.0,0.0,0.0,-1.0,-2.0,-1.0,-1.0,-1.0,1651069664009468.0,3
1278,2.0,-1.0,-1.0,-6.0,0.0,-1.0,0.0,1.0,1651069664016398.0,3
1279,0.0,1.0,0.0,14.0,2.0,1.0,1.0,-1.0,1651069664016398.0,3
1280,0.0,0.0,-2.0,-6.0,-2.0,0.0,-1.0,3.0,1651069664032676.0,3
1281,-1.0,1.0,0.0,-2.0,1.0,-1.0,0.0,-1.0,1651069664032676.0,3
1282,-1.0,0.0,-1.0,0.0,-1.0,-2.0,0.0,0.0,1651069664033646.0,3
1283,2.0,-2.0,-2.0,-9.0,-3.0,1.0,-1.0,1.0,1651069664033646.0,3
1284,-1.0,2.0,-1.0,-1.0,2.0,1.0,-1.0,1.0,1651069664055009.0,3
1285,-1.0,-1.0,0.0,4.0,-2.0,-1.0,-1.0,-1.0,1651069664055009.0,3
1286,-1.0,1.0,-2.0,-6.0,-3.0,-1.0,-2.0,-1.0,1651069664056006.0,3
1287,-1.0,-1.0,3.0,2.0,2.0,0.0,1.0,0.0,1651069664056006.0,3
1288,0.0,-2.0,-1.0,-1.0,-2.0,-1.0,-1.0,-2.0,1651069664069038.0,3
1289,0.0,-1.0,-1.0,-5.0,-3.0,-1.0,-1.0,-1.0,1651069664069038.0,3
1290,0.0,1.0,2.0,12.0,3.0,-1.0,-1.0,0.0,1651069664076019.0,3
1291,-2.0,-2.0,-1.0,0.0,0.0,1.0,1.0,-1.0,1651069664076019.0,3
1292,-1.0,-1.0,0.0,-3.0,-1.0,-1.0,0.0,0.0,1651069664092162.0,3
1293,-1.0,-3.0,-2.0,-3.0,-1.0,-1.0,1.0,-1.0,1651069664092162.0,3
1294,-1.0,1.0,-1.0,1.0,-2.0,-2.0,-3.0,-1.0,1651069664094091.0,3
1295,-1.0,-2.0,-1.0,1.0,-1.0,2.0,-1.0,0.0,1651069664094091.0,3
1296,-1.0,0.0,-1.0,-10.0,-4.0,-3.0,-2.0,0.0,1651069664115119.0,3
1297,-1.0,0.0,1.0,11.0,2.0,1.0,2.0,2.0,1651069664115119.0,3
1298,0.0,2.0,1.0,0.0,8.0,4.0,2.0,2.0,1651069664116119.0,3
1299,1.0,0.0,0.0,-4.0,-3.0,-2.0,-2.0,-2.0,1651069664116119.0,3
1300,0.0,-2.0,-2.0,1.0,1.0,0.0,-1.0,-1.0,1651069664129469.0,3
1301,2.0,0.0,-1.0,-3.0,-1.0,-1.0,-2.0,0.0,1651069664129469.0,3
1302,0.0,0.0,-1.0,0.0,-1.0,-1.0,-2.0,-2.0,1651069664136426.0,3
1303,-1.0,0.0,-2.0,-2.0,-3.0,-4.0,-2.0,-2.0,1651069664136426.0,3
1304,-2.0,-1.0,-1.0,0.0,3.0,1.0,0.0,-1.0,1651069664152563.0,3
1305,0.0,0.0,-1.0,2.0,2.0,2.0,-2.0,0.0,1651069664152563.0,3
1306,-1.0,-1.0,-3.0,-5.0,-2.0,-1.0,1.0,0.0,1651069664153517.0,3
1307,-1.0,0.0,-1.0,2.0,0.0,0.0,2.0,0.0,1651069664153517.0,3
1308,-1.0,-2.0,0.0,1.0,-3.0,-2.0,-1.0,0.0,1651069664174543.0,3
1309,0.0,-1.0,-2.0,-2.0,-2.0,-2.0,-1.0,1.0,1651069664174543.0,3
1310,-3.0,-3.0,-2.0,-3.0,-2.0,0.0,-2.0,-1.0,1651069664176470.0,3
1311,0.0,-1.0,0.0,0.0,-3.0,-1.0,-1.0,0.0,1651069664176470.0,3
1312,0.0,0.0,-2.0,3.0,3.0,2.0,-2.0,-1.0,1651069664189504.0,3
1313,-1.0,1.0,1.0,-1.0,1.0,2.0,1.0,-1.0,1651069664189504.0,3
1314,0.0,-2.0,1.0,0.0,-3.0,-1.0,1.0,2.0,1651069664196450.0,3
1315,-1.0,0.0,1.0,0.0,0.0,-2.0,0.0,0.0,1651069664196450.0,3
1316,0.0,-1.0,-2.0,0.0,-4.0,-4.0,0.0,0.0,1651069664212442.0,3
1317,-1.0,-1.0,-2.0,2.0,8.0,2.0,-1.0,-1.0,1651069664212442.0,3
1318,-2.0,1.0,-1.0,-1.0,-3.0,-2.0,-1.0,-2.0,1651069664214370.0,3
1319,-1.0,-1.0,-1.0,0.0,1.0,-1.0,-1.0,0.0,1651069664214370.0,3
1320,0.0,2.0,1.0,-1.0,3.0,6.0,1.0,0.0,1651069664234655.0,3
1321,-1.0,-1.0,-1.0,-3.0,-4.0,-3.0,-1.0,0.0,1651069664234655.0,3
1322,0.0,-2.0,-1.0,1.0,0.0,-1.0,0.0,0.0,1651069664236612.0,3
1323,0.0,-3.0,0.0,2.0,-2.0,-4.0,-1.0,0.0,1651069664236612.0,3
1324,-2.0,0.0,1.0,-4.0,-1.0,3.0,0.0,0.0,1651069664249547.0,3
1325,-1.0,-1.0,1.0,1.0,2.0,-3.0,-2.0,1.0,1651069664249547.0,3
1326,1.0,0.0,0.0,-4.0,2.0,4.0,-1.0,-1.0,1651069664255604.0,3
1327,-1.0,-1.0,-1.0,-3.0,-5.0,-3.0,-1.0,-1.0,1651069664255604.0,3
1328,-1.0,-1.0,-4.0,1.0,0.0,-1.0,-2.0,0.0,1651069664272675.0,3
1329,-1.0,-1.0,1.0,-1.0,0.0,1.0,1.0,-1.0,1651069664272675.0,3
1330,0.0,1.0,-1.0,-1.0,-3.0,-3.0,-1.0,0.0,1651069664273605.0,3
1331,-2.0,0.0,-2.0,-1.0,2.0,1.0,-2.0,-1.0,1651069664273605.0,3
1332,1.0,-1.0,1.0,0.0,-4.0,-4.0,0.0,-3.0,1651069664294616.0,3
1333,0.0,-1.0,-2.0,-2.0,3.0,-1.0,-1.0,-1.0,1651069664294616.0,3
1334,-1.0,-1.0,1.0,5.0,-1.0,-3.0,-4.0,-1.0,1651069664296544.0,3
1335,0.0,0.0,0.0,2.0,2.0,8.0,2.0,1.0,1651069664296544.0,3
1336,1.0,-2.0,-4.0,-5.0,-2.0,-6.0,-2.0,-2.0,1651069664309576.0,3
1337,0.0,0.0,1.0,1.0,-2.0,0.0,0.0,0.0,1651069664309576.0,3
1338,-2.0,-3.0,-2.0,-1.0,-4.0,-4.0,-1.0,-1.0,1651069664316503.0,3
1339,-1.0,0.0,0.0,-4.0,-8.0,-3.0,-2.0,0.0,1651069664316503.0,3
1340,-1.0,-2.0,-2.0,1.0,7.0,2.0,0.0,-1.0,1651069664332845.0,3
1341,0.0,-2.0,-2.0,-2.0,3.0,2.0,-2.0,-1.0,1651069664332845.0,3
1342,1.0,-1.0,1.0,3.0,2.0,0.0,-1.0,0.0,1651069664333851.0,3
1343,1.0,-1.0,-1.0,1.0,3.0,9.0,3.0,0.0,1651069664333851.0,3
1344,-1.0,-3.0,0.0,-3.0,2.0,-6.0,-3.0,-2.0,1651069664354907.0,3
1345,-1.0,0.0,-1.0,-2.0,-17.0,-7.0,0.0,0.0,1651069664354907.0,3
1346,1.0,0.0,1.0,-1.0,-1.0,3.0,1.0,0.0,1651069664356865.0,3
1347,0.0,-1.0,-1.0,10.0,31.0,11.0,2.0,0.0,1651069664356865.0,3
1348,1.0,0.0,3.0,-2.0,-12.0,-1.0,3.0,0.0,1651069664368473.0,3
1349,-3.0,-3.0,-6.0,-4.0,-18.0,-8.0,-3.0,1.0,1651069664368473.0,3
1350,1.0,1.0,1.0,-4.0,-5.0,0.0,1.0,0.0,1651069664377360.0,3
1351,-1.0,0.0,-3.0,-6.0,-2.0,-5.0,-1.0,-1.0,1651069664377360.0,3
1352,-2.0,0.0,2.0,3.0,3.0,9.0,1.0,-2.0,1651069664392802.0,3
1353,0.0,0.0,1.0,1.0,2.0,2.0,1.0,0.0,1651069664392802.0,3
1354,-2.0,-2.0,-2.0,-3.0,-14.0,-9.0,-4.0,-1.0,1651069664393808.0,3
1355,-1.0,-1.0,-2.0,-6.0,-1.0,-3.0,-1.0,-3.0,1651069664393808.0,3
1356,-1.0,1.0,-1.0,-2.0,-4.0,-5.0,-1.0,1.0,1651069664415218.0,3
1357,1.0,0.0,-1.0,-1.0,-5.0,-1.0,-1.0,-1.0,1651069664415218.0,3
1358,-1.0,-3.0,-2.0,3.0,11.0,4.0,0.0,0.0,1651069664416150.0,3
1359,0.0,3.0,2.0,-3.0,-19.0,-14.0,-4.0,0.0,1651069664416150.0,3
1360,0.0,-1.0,-4.0,5.0,22.0,17.0,2.0,1.0,1651069664428184.0,3
1361,-1.0,0.0,1.0,-4.0,-8.0,-7.0,-1.0,-1.0,1651069664428184.0,3
1362,-5.0,0.0,-2.0,-7.0,-7.0,-17.0,-6.0,-5.0,1651069664437159.0,3
1363,1.0,0.0,4.0,16.0,21.0,28.0,8.0,3.0,1651069664437159.0,3
1364,-1.0,0.0,1.0,-7.0,-15.0,-17.0,-4.0,-2.0,1651069664452758.0,3
1365,-3.0,-4.0,-7.0,-6.0,-15.0,-13.0,-6.0,-2.0,1651069664452758.0,3
1366,3.0,3.0,2.0,-3.0,-1.0,18.0,11.0,4.0,1651069664453688.0,3
1367,-1.0,0.0,2.0,2.0,9.0,2.0,-1.0,-1.0,1651069664453688.0,3
1368,-2.0,-3.0,-2.0,-2.0,0.0,4.0,0.0,3.0,1651069664475354.0,3
1369,1.0,0.0,0.0,-3.0,19.0,0.0,1.0,0.0,1651069664475354.0,3
1370,-3.0,-2.0,-5.0,4.0,-3.0,-9.0,-4.0,-4.0,1651069664476361.0,3
1371,0.0,-1.0,0.0,-4.0,2.0,5.0,0.0,0.0,1651069664476361.0,3
1372,2.0,2.0,4.0,4.0,-5.0,0.0,1.0,2.0,1651069664488351.0,3
1373,-1.0,-2.0,-2.0,-4.0,1.0,7.0,0.0,-1.0,1651069664488351.0,3
1374,-1.0,-2.0,-3.0,0.0,-6.0,-5.0,-2.0,-1.0,1651069664497307.0,3
1375,0.0,0.0,1.0,2.0,16.0,8.0,3.0,1.0,1651069664497307.0,3
1376,-2.0,0.0,3.0,2.0,5.0,0.0,-5.0,-2.0,1651069664512440.0,3
1377,0.0,-3.0,-3.0,-9.0,-19.0,-10.0,1.0,0.0,1651069664512440.0,3
1378,0.0,2.0,7.0,11.0,24.0,1.0,0.0,2.0,1651069664514390.0,3
1379,-5.0,-5.0,-10.0,-15.0,-31.0,-15.0,-8.0,-3.0,1651069664514390.0,3
1380,2.0,1.0,3.0,3.0,-2.0,0.0,-1.0,2.0,1651069664535299.0,3
1381,0.0,2.0,7.0,15.0,18.0,15.0,6.0,1.0,1651069664535299.0,3
1382,-1.0,-5.0,-4.0,-12.0,-5.0,14.0,6.0,1.0,1651069664536298.0,3
1383,-3.0,-1.0,-1.0,4.0,7.0,-17.0,-7.0,-11.0,1651069664536298.0,3
1384,-2.0,-4.0,-7.0,-16.0,-27.0,-14.0,-3.0,-1.0,1651069664548295.0,3
1385,1.0,1.0,1.0,-2.0,-1.0,7.0,-1.0,4.0,1651069664548295.0,3
1386,-2.0,-1.0,1.0,11.0,10.0,-5.0,-11.0,-6.0,1651069664557670.0,3
1387,4.0,4.0,6.0,-8.0,-16.0,-5.0,3.0,6.0,1651069664557670.0,3
1388,-3.0,-4.0,-5.0,5.0,12.0,10.0,4.0,-7.0,1651069664572696.0,3
1389,-7.0,-10.0,-12.0,-9.0,-9.0,-16.0,-4.0,-7.0,1651069664572696.0,3
1390,6.0,7.0,0.0,3.0,-3.0,9.0,5.0,7.0,1651069664573694.0,3
1391,-8.0,-9.0,-1.0,-2.0,-13.0,-11.0,-11.0,-10.0,1651069664573694.0,3
1392,5.0,11.0,-8.0,-18.0,-14.0,-7.0,-2.0,9.0,1651069664595352.0,3
1393,-2.0,-6.0,-3.0,-8.0,-18.0,-2.0,4.0,-1.0,1651069664595352.0,3
1394,4.0,2.0,2.0,0.0,11.0,12.0,1.0,4.0,1651069664596353.0,3
1395,1.0,-5.0,1.0,13.0,10.0,-4.0,4.0,1.0,1651069664596353.0,3
1396,-1.0,7.0,5.0,10.0,13.0,17.0,-2.0,-2.0,1651069664608341.0,3
1397,3.0,14.0,13.0,9.0,28.0,15.0,12.0,12.0,1651069664608341.0,3
1398,7.0,-1.0,-1.0,-3.0,-11.0,-5.0,2.0,-3.0,1651069664617290.0,3
1399,-1.0,1.0,-3.0,-5.0,-10.0,-3.0,1.0,2.0,1651069664617290.0,3
1400,1.0,0.0,5.0,18.0,22.0,8.0,6.0,2.0,1651069664632447.0,3
1401,-14.0,-8.0,2.0,-3.0,-4.0,-8.0,-12.0,-12.0,1651069664632447.0,3
1402,3.0,-1.0,3.0,-5.0,-18.0,-3.0,5.0,3.0,1651069664638383.0,3
1403,-2.0,2.0,-2.0,4.0,27.0,17.0,-3.0,-2.0,1651069664638383.0,3
1404,-10.0,-9.0,-6.0,6.0,7.0,-11.0,-5.0,-10.0,1651069664655349.0,3
1405,5.0,-5.0,0.0,1.0,-9.0,0.0,5.0,8.0,1651069664655349.0,3
1406,4.0,19.0,0.0,-14.0,-2.0,1.0,-14.0,-13.0,1651069664656337.0,3
1407,3.0,10.0,10.0,-10.0,-27.0,-23.0,1.0,6.0,1651069664656337.0,3
1408,-6.0,-4.0,8.0,27.0,21.0,21.0,-5.0,-10.0,1651069664668616.0,3
1409,-4.0,8.0,9.0,10.0,15.0,3.0,-4.0,-7.0,1651069664668616.0,3
1410,4.0,10.0,5.0,-9.0,27.0,0.0,6.0,10.0,1651069664677587.0,3
1411,-6.0,-3.0,-17.0,-13.0,-24.0,-3.0,-17.0,-10.0,1651069664677587.0,3
1412,5.0,-14.0,-20.0,-17.0,-3.0,5.0,19.0,9.0,1651069664692746.0,3
1413,-7.0,6.0,6.0,29.0,17.0,10.0,-4.0,-9.0,1651069664692746.0,3
1414,14.0,4.0,4.0,12.0,1.0,-3.0,10.0,17.0,1651069664693626.0,3
1415,-2.0,30.0,-3.0,-24.0,-35.0,-23.0,-14.0,-9.0,1651069664693626.0,3
1416,2.0,-15.0,-3.0,-23.0,-15.0,-16.0,4.0,-2.0,1651069664714869.0,3
1417,-1.0,-8.0,-4.0,-10.0,-7.0,6.0,-15.0,-20.0,1651069664714869.0,3
1418,-15.0,6.0,-2.0,3.0,8.0,9.0,-3.0,-9.0,1651069664716867.0,3
1419,3.0,-19.0,4.0,20.0,21.0,-3.0,7.0,11.0,1651069664716867.0,3
1420,31.0,40.0,15.0,-1.0,-66.0,-15.0,13.0,19.0,1651069664728903.0,3
1421,-2.0,-5.0,-5.0,-7.0,24.0,-6.0,-5.0,-3.0,1651069664728903.0,3
1422,-4.0,-10.0,17.0,10.0,54.0,31.0,-7.0,-6.0,1651069664737894.0,3
1423,-5.0,-12.0,-11.0,20.0,14.0,13.0,14.0,11.0,1651069664737894.0,3
1424,-8.0,18.0,-4.0,-38.0,-4.0,-26.0,-27.0,-20.0,1651069664751364.0,3
1425,10.0,-28.0,-8.0,-11.0,-36.0,-12.0,2.0,-4.0,1651069664751364.0,3
1426,-34.0,-44.0,-20.0,7.0,-4.0,15.0,1.0,-1.0,1651069664758291.0,3
1427,28.0,48.0,47.0,24.0,28.0,7.0,-21.0,2.0,1651069664758291.0,3
1428,-34.0,-44.0,-45.0,-45.0,-21.0,-20.0,7.0,-22.0,1651069664775249.0,3
1429,16.0,24.0,3.0,30.0,-26.0,-1.0,14.0,16.0,1651069664775249.0,3
1430,-4.0,-31.0,-34.0,-92.0,-52.0,-18.0,-7.0,16.0,1651069664776237.0,3
1431,2.0,6.0,-3.0,2.0,-23.0,-7.0,-11.0,-9.0,1651069664776237.0,3
1432,20.0,34.0,22.0,22.0,11.0,9.0,9.0,29.0,1651069664797630.0,3
1433,5.0,11.0,17.0,23.0,10.0,3.0,8.0,10.0,1651069664797630.0,3
1434,3.0,3.0,-17.0,-24.0,-27.0,-15.0,3.0,-9.0,1651069664798560.0,3
1435,-12.0,-11.0,3.0,11.0,33.0,20.0,-24.0,-15.0,1651069664798560.0,3
1436,-9.0,-8.0,5.0,20.0,-15.0,8.0,19.0,-10.0,1651069664812157.0,3
1437,-21.0,3.0,-16.0,3.0,17.0,7.0,9.0,-3.0,1651069664812157.0,3
1438,9.0,-24.0,-9.0,11.0,-11.0,-38.0,-2.0,5.0,1651069664818211.0,3
1439,7.0,-22.0,1.0,8.0,11.0,28.0,20.0,16.0,1651069664818211.0,3
1440,8.0,-2.0,4.0,-21.0,-13.0,-11.0,-12.0,17.0,1651069664835349.0,3
1441,23.0,44.0,-6.0,0.0,-10.0,0.0,3.0,17.0,1651069664835349.0,3
1442,-1.0,-10.0,18.0,25.0,27.0,27.0,10.0,-7.0,1651069664836348.0,3
1443,-17.0,-19.0,-19.0,-38.0,8.0,-19.0,-8.0,-23.0,1651069664836348.0,3
1444,-24.0,-23.0,-6.0,33.0,16.0,7.0,-8.0,-6.0,1651069664857480.0,3
1445,25.0,20.0,14.0,-17.0,-12.0,-3.0,1.0,14.0,1651069664857480.0,3
1446,-2.0,7.0,-13.0,-12.0,-31.0,-15.0,-14.0,-7.0,1651069664858452.0,3
1447,-2.0,9.0,-2.0,-4.0,-7.0,-3.0,13.0,-12.0,1651069664858452.0,3
1448,-10.0,-11.0,6.0,-12.0,-24.0,-14.0,-10.0,17.0,1651069664871487.0,3
1449,-5.0,-36.0,-11.0,-5.0,51.0,29.0,4.0,-5.0,1651069664871487.0,3
1450,-11.0,-11.0,-1.0,15.0,-9.0,-16.0,-8.0,-16.0,1651069664878473.0,3
1451,9.0,26.0,6.0,-8.0,-23.0,-5.0,0.0,6.0,1651069664878473.0,3
1452,32.0,18.0,3.0,10.0,28.0,14.0,26.0,40.0,1651069664894438.0,3
1453,-15.0,-4.0,5.0,-5.0,-34.0,-26.0,-23.0,-26.0,1651069664894438.0,3
1454,5.0,30.0,5.0,43.0,38.0,24.0,13.0,13.0,1651069664896427.0,3
1455,-12.0,-41.0,-19.0,-14.0,5.0,0.0,1.0,-19.0,1651069664896427.0,3
1456,-17.0,2.0,8.0,-33.0,-42.0,-19.0,-20.0,-16.0,1651069664917709.0,3
1457,2.0,-1.0,-5.0,17.0,42.0,14.0,4.0,6.0,1651069664917709.0,3
1458,-5.0,-12.0,3.0,-5.0,10.0,-4.0,-5.0,-18.0,1651069664918640.0,3
1459,-5.0,-2.0,-1.0,11.0,-1.0,9.0,8.0,10.0,1651069664918640.0,3
1460,11.0,14.0,5.0,9.0,15.0,-2.0,-7.0,-5.0,1651069664932230.0,3
1461,-12.0,-20.0,-4.0,-23.0,-11.0,-6.0,-14.0,-6.0,1651069664932230.0,3
1462,19.0,41.0,12.0,1.0,4.0,-2.0,19.0,13.0,1651069664938285.0,3
1463,-13.0,-6.0,4.0,35.0,14.0,14.0,5.0,-15.0,1651069664938285.0,3
1464,23.0,-2.0,-9.0,-9.0,-12.0,0.0,7.0,30.0,1651069664956604.0,3
1465,-1.0,-6.0,-1.0,1.0,3.0,-17.0,-55.0,-29.0,1651069664956604.0,3
1466,1.0,17.0,5.0,-7.0,5.0,12.0,51.0,26.0,1651069664957604.0,3
1467,9.0,-11.0,-7.0,2.0,-30.0,-14.0,14.0,32.0,1651069664957604.0,3
1468,-9.0,11.0,10.0,22.0,38.0,16.0,-8.0,-26.0,1651069664985377.0,3
1469,-12.0,-24.0,-19.0,-23.0,-22.0,-1.0,-9.0,-21.0,1651069664985377.0,3
1470,-19.0,-7.0,2.0,8.0,-73.0,-35.0,-26.0,-14.0,1651069664986373.0,3
1471,34.0,43.0,21.0,3.0,30.0,23.0,28.0,51.0,1651069664986373.0,3
1472,-15.0,-34.0,-13.0,-37.0,-17.0,-9.0,-23.0,-33.0,1651069664991388.0,3
1473,-12.0,-14.0,-21.0,2.0,17.0,18.0,14.0,6.0,1651069664991388.0,3
1474,5.0,0.0,14.0,23.0,0.0,0.0,-3.0,-1.0,1651069664998348.0,3
1475,-7.0,-17.0,-25.0,-34.0,-34.0,-24.0,-3.0,-1.0,1651069664998348.0,3
1476,5.0,9.0,9.0,42.0,30.0,25.0,-2.0,3.0,1651069665014743.0,3
1477,-7.0,10.0,9.0,-16.0,-16.0,-8.0,7.0,-5.0,1651069665014743.0,3
1478,5.0,-3.0,-5.0,-18.0,-4.0,1.0,-5.0,7.0,1651069665016671.0,3
1479,4.0,9.0,6.0,34.0,49.0,3.0,-10.0,-11.0,1651069665016671.0,3
1480,-7.0,-4.0,-5.0,-19.0,-9.0,3.0,7.0,-7.0,1651069665037779.0,3
1481,2.0,1.0,4.0,6.0,-11.0,-3.0,8.0,7.0,1651069665037779.0,3
1482,-10.0,1.0,-9.0,-23.0,-7.0,4.0,-16.0,-7.0,1651069665038724.0,3
1483,-11.0,-32.0,-5.0,-2.0,-12.0,-10.0,-13.0,-12.0,1651069665038724.0,3
1484,11.0,14.0,3.0,18.0,21.0,10.0,34.0,27.0,1651069665051918.0,3
1485,-3.0,-8.0,2.0,12.0,33.0,12.0,20.0,15.0,1651069665051918.0,3
1486,13.0,11.0,2.0,-3.0,-21.0,-15.0,-23.0,-15.0,1651069665058902.0,3
1487,-3.0,1.0,-6.0,-29.0,-33.0,-7.0,-3.0,-9.0,1651069665058902.0,3
1488,-19.0,-6.0,-5.0,26.0,50.0,17.0,-7.0,-32.0,1651069665075151.0,3
1489,8.0,5.0,12.0,18.0,4.0,5.0,3.0,33.0,1651069665075151.0,3
1490,11.0,1.0,7.0,-29.0,-7.0,8.0,13.0,15.0,1651069665076148.0,3
1491,7.0,6.0,-2.0,-6.0,11.0,6.0,-6.0,3.0,1651069665076148.0,3
1492,-16.0,-14.0,-1.0,-10.0,-17.0,-18.0,-3.0,-14.0,1651069665097275.0,3
1493,18.0,36.0,11.0,32.0,29.0,14.0,5.0,8.0,1651069665097275.0,3
1494,-3.0,-37.0,-6.0,11.0,2.0,-5.0,3.0,9.0,1651069665099213.0,3
1495,-15.0,5.0,6.0,-8.0,-9.0,1.0,1.0,-8.0,1651069665099213.0,3
1496,4.0,-12.0,-20.0,-8.0,25.0,4.0,-10.0,-5.0,1651069665112173.0,3
1497,-12.0,4.0,0.0,-7.0,-5.0,-7.0,-4.0,-15.0,1651069665112173.0,3
1498,3.0,-12.0,-9.0,-7.0,-21.0,-14.0,-8.0,6.0,1651069665118217.0,3
1499,2.0,2.0,2.0,24.0,27.0,33.0,14.0,-8.0,1651069665118217.0,3
1500,-1.0,18.0,14.0,20.0,-2.0,-11.0,-4.0,6.0,1651069665135248.0,3
1501,5.0,-9.0,-12.0,-27.0,-54.0,-26.0,0.0,8.0,1651069665135248.0,3
1502,4.0,11.0,-5.0,-15.0,-3.0,-7.0,-4.0,-5.0,1651069665136238.0,3
1503,-2.0,2.0,9.0,26.0,43.0,19.0,5.0,1.0,1651069665136238.0,3
1504,-2.0,-4.0,-2.0,-5.0,-23.0,-15.0,-7.0,-20.0,1651069665157580.0,3
1505,-1.0,-4.0,3.0,-6.0,-14.0,7.0,11.0,15.0,1651069665157580.0,3
1506,2.0,16.0,12.0,6.0,11.0,-7.0,-1.0,-7.0,1651069665158511.0,3
1507,-4.0,-14.0,-17.0,-2.0,-19.0,-5.0,-5.0,2.0,1651069665158511.0,3
1508,9.0,16.0,5.0,24.0,15.0,12.0,-1.0,4.0,1651069665171543.0,3
1509,2.0,-10.0,-6.0,-45.0,-2.0,4.0,10.0,2.0,1651069665171543.0,3
1510,-18.0,-10.0,-2.0,19.0,-1.0,-9.0,-8.0,-16.0,1651069665178470.0,3
1511,3.0,11.0,7.0,-5.0,11.0,-2.0,-8.0,-1.0,1651069665178470.0,3
1512,-7.0,-10.0,-2.0,-1.0,-21.0,-1.0,5.0,-5.0,1651069665194482.0,3
1513,27.0,20.0,4.0,5.0,14.0,1.0,-2.0,19.0,1651069665194482.0,3
1514,-13.0,-5.0,-8.0,0.0,-12.0,-15.0,-17.0,-18.0,1651069665196410.0,3
1515,3.0,-1.0,2.0,9.0,0.0,18.0,2.0,4.0,1651069665196410.0,3
1516,-3.0,-6.0,-3.0,5.0,-9.0,-11.0,-6.0,-3.0,1651069665217532.0,3
1517,-11.0,0.0,-5.0,-22.0,-15.0,-5.0,0.0,-12.0,1651069665217532.0,3
1518,4.0,7.0,3.0,5.0,21.0,14.0,5.0,-5.0,1651069665218501.0,3
1519,-4.0,-5.0,-5.0,-8.0,-16.0,-19.0,1.0,12.0,1651069665218501.0,3
1520,12.0,22.0,9.0,-2.0,-28.0,2.0,-9.0,1.0,1651069665231578.0,3
1521,-7.0,-1.0,3.0,1.0,10.0,0.0,5.0,-12.0,1651069665231578.0,3
1522,1.0,-1.0,0.0,10.0,27.0,11.0,-11.0,-3.0,1651069665238563.0,3
1523,-6.0,-4.0,-5.0,-26.0,-59.0,-30.0,-4.0,-7.0,1651069665238563.0,3
1524,2.0,-4.0,1.0,0.0,10.0,-1.0,1.0,6.0,1651069665255327.0,3
1525,-3.0,-5.0,-8.0,-5.0,-14.0,-13.0,-7.0,-6.0,1651069665255327.0,3
1526,-4.0,2.0,-2.0,15.0,16.0,14.0,-8.0,-7.0,1651069665256327.0,3
1527,-1.0,6.0,3.0,-46.0,-6.0,-12.0,5.0,1.0,1651069665256327.0,3
1528,-5.0,-12.0,5.0,28.0,36.0,16.0,10.0,4.0,1651069665277564.0,3
1529,2.0,-19.0,-11.0,6.0,-4.0,1.0,-6.0,9.0,1651069665277564.0,3
1530,-11.0,5.0,5.0,21.0,0.0,1.0,-3.0,-22.0,1651069665278561.0,3
1531,27.0,9.0,1.0,-4.0,-1.0,1.0,0.0,43.0,1651069665278561.0,3
1532,7.0,9.0,4.0,5.0,20.0,12.0,12.0,-14.0,1651069665291420.0,3
1533,-7.0,12.0,10.0,-20.0,-16.0,-14.0,0.0,9.0,1651069665291420.0,3
1534,1.0,-12.0,-1.0,2.0,3.0,13.0,5.0,1.0,1651069665299637.0,3
1535,-17.0,-11.0,5.0,30.0,43.0,11.0,-8.0,-21.0,1651069665299637.0,3
1536,9.0,2.0,-3.0,-17.0,-10.0,-2.0,-3.0,7.0,1651069665315328.0,3
1537,-2.0,2.0,3.0,29.0,2.0,-10.0,-7.0,-3.0,1651069665315328.0,3
1538,0.0,6.0,2.0,-35.0,-32.0,-6.0,0.0,1.0,1651069665316328.0,3
1539,-3.0,-11.0,-11.0,-2.0,-23.0,-24.0,-5.0,-9.0,1651069665316328.0,3
1540,0.0,5.0,1.0,-6.0,18.0,13.0,4.0,11.0,1651069665337798.0,3
1541,-2.0,-1.0,15.0,47.0,9.0,3.0,0.0,-2.0,1651069665337798.0,3
1542,9.0,5.0,-20.0,-38.0,20.0,15.0,11.0,20.0,1651069665339751.0,3
1543,-12.0,-19.0,-4.0,-5.0,-8.0,-13.0,-5.0,-19.0,1651069665339751.0,3
1544,6.0,-3.0,1.0,-8.0,-19.0,-6.0,-3.0,5.0,1651069665350942.0,3
1545,-7.0,-13.0,-3.0,-2.0,-5.0,-6.0,1.0,8.0,1651069665350942.0,3
1546,-4.0,-15.0,5.0,-8.0,23.0,8.0,-1.0,-3.0,1651069665359903.0,3
1547,3.0,13.0,0.0,-7.0,-22.0,-7.0,9.0,2.0,1651069665359903.0,3
1548,1.0,-7.0,-8.0,-11.0,-5.0,-12.0,-8.0,11.0,1651069665374683.0,3
1549,-4.0,9.0,6.0,-4.0,9.0,2.0,0.0,-27.0,1651069665374683.0,3
1550,-1.0,-5.0,-2.0,29.0,-41.0,-10.0,-1.0,5.0,1651069665376701.0,3
1551,3.0,-4.0,-10.0,-17.0,23.0,6.0,-3.0,11.0,1651069665376701.0,3
1552,2.0,9.0,10.0,30.0,13.0,7.0,3.0,0.0,1651069665397387.0,3
1553,-1.0,-11.0,-3.0,-24.0,-7.0,-1.0,-10.0,-6.0,1651069665397387.0,3
1554,-10.0,1.0,-7.0,-16.0,-9.0,-12.0,6.0,-5.0,1651069665399385.0,3
1555,-3.0,-10.0,3.0,-6.0,10.0,-1.0,-1.0,-9.0,1651069665399385.0,3
1556,2.0,-2.0,-3.0,13.0,4.0,0.0,-6.0,-9.0,1651069665411391.0,3
1557,-6.0,-2.0,-13.0,-12.0,-8.0,-3.0,2.0,11.0,1651069665411391.0,3
1558,11.0,10.0,11.0,19.0,14.0,1.0,1.0,5.0,1651069665420311.0,3
1559,1.0,9.0,-4.0,-20.0,-31.0,-4.0,-3.0,-6.0,1651069665420311.0,3
1560,-10.0,-20.0,7.0,34.0,30.0,26.0,3.0,-2.0,1651069665434551.0,3
1561,-4.0,6.0,-2.0,-17.0,-22.0,-4.0,-8.0,-23.0,1651069665434551.0,3
1562,0.0,-6.0,-1.0,23.0,20.0,-1.0,9.0,8.0,1651069665436518.0,3
1563,-6.0,7.0,-1.0,-32.0,-1.0,8.0,5.0,5.0,1651069665436518.0,3
1564,1.0,3.0,0.0,-5.0,-43.0,-15.0,-6.0,4.0,1651069665457393.0,3
1565,5.0,1.0,-1.0,-8.0,13.0,7.0,5.0,3.0,1651069665457393.0,3
1566,-3.0,-2.0,1.0,7.0,-22.0,-13.0,-7.0,-9.0,1651069665459403.0,3
1567,1.0,4.0,5.0,23.0,-17.0,7.0,-1.0,-4.0,1651069665459403.0,3
1568,-11.0,-11.0,-5.0,-30.0,-31.0,-26.0,-7.0,2.0,1651069665471395.0,3
1569,8.0,24.0,4.0,19.0,63.0,43.0,15.0,-27.0,1651069665471395.0,3
1570,21.0,-19.0,3.0,-18.0,2.0,0.0,10.0,81.0,1651069665479678.0,3
1571,-6.0,12.0,3.0,18.0,-14.0,-6.0,-4.0,-34.0,1651069665479678.0,3
1572,-8.0,-15.0,-13.0,-32.0,-13.0,-19.0,-16.0,-11.0,1651069665502723.0,3
1573,-2.0,11.0,8.0,8.0,-4.0,9.0,5.0,-5.0,1651069665502723.0,3
1574,-12.0,9.0,-2.0,9.0,22.0,7.0,-6.0,-18.0,1651069665503653.0,3
1575,-2.0,-13.0,2.0,12.0,16.0,8.0,11.0,-1.0,1651069665503653.0,3
1576,9.0,12.0,0.0,10.0,-12.0,-11.0,7.0,18.0,1651069665517615.0,3
1577,0.0,-2.0,2.0,2.0,-17.0,-10.0,-14.0,-13.0,1651069665517615.0,3
1578,-1.0,3.0,-2.0,-13.0,-11.0,-6.0,1.0,-5.0,1651069665518633.0,3
1579,20.0,20.0,15.0,53.0,41.0,19.0,0.0,30.0,1651069665518633.0,3
1580,-15.0,-24.0,-15.0,-60.0,-14.0,-10.0,-9.0,-22.0,1651069665530651.0,3
1581,-1.0,-9.0,0.0,17.0,14.0,2.0,-1.0,5.0,1651069665530651.0,3
1582,1.0,5.0,1.0,-10.0,6.0,6.0,3.0,-1.0,1651069665539636.0,3
1583,-4.0,-8.0,-8.0,-5.0,-18.0,-19.0,-4.0,-2.0,1651069665539636.0,3
1584,8.0,3.0,2.0,9.0,16.0,13.0,5.0,3.0,1651069665554722.0,3
1585,-12.0,0.0,7.0,12.0,-6.0,-17.0,-1.0,5.0,1651069665554722.0,3
1586,2.0,5.0,6.0,18.0,7.0,26.0,-1.0,-14.0,1651069665556678.0,3
1587,-6.0,-13.0,-17.0,-46.0,11.0,-10.0,-18.0,-1.0,1651069665556678.0,3
1588,-8.0,1.0,-4.0,11.0,-9.0,-7.0,14.0,9.0,1651069665585044.0,3
1589,10.0,6.0,2.0,0.0,5.0,-2.0,2.0,14.0,1651069665585044.0,3
1590,-15.0,-6.0,-5.0,-8.0,-9.0,-12.0,-13.0,-36.0,1651069665586040.0,3
1591,12.0,17.0,14.0,25.0,5.0,9.0,10.0,18.0,1651069665586040.0,3
1592,-1.0,11.0,2.0,9.0,16.0,9.0,-8.0,11.0,1651069665591027.0,3
1593,3.0,-17.0,-15.0,-20.0,-25.0,-14.0,-2.0,-2.0,1651069665591027.0,3
1594,1.0,11.0,6.0,14.0,-4.0,5.0,4.0,-4.0,1651069665599658.0,3
1595,8.0,-2.0,0.0,6.0,3.0,1.0,-8.0,6.0,1651069665599658.0,3
1596,-2.0,4.0,-2.0,-39.0,-4.0,7.0,13.0,1.0,1651069665614687.0,3
1597,-2.0,5.0,0.0,8.0,2.0,-3.0,-6.0,-6.0,1651069665614687.0,3
1598,-1.0,0.0,0.0,9.0,11.0,-1.0,0.0,-7.0,1651069665616641.0,3
1599,6.0,9.0,-8.0,-26.0,-14.0,-9.0,15.0,18.0,1651069665616641.0,3
1600,-3.0,-8.0,-8.0,-2.0,-10.0,-1.0,-8.0,-16.0,1651069665637625.0,3
1601,14.0,0.0,6.0,-5.0,26.0,22.0,7.0,15.0,1651069665637625.0,3
1602,-8.0,-7.0,-8.0,10.0,38.0,7.0,-3.0,-2.0,1651069665638556.0,3
1603,-7.0,1.0,3.0,11.0,-13.0,-8.0,-6.0,-13.0,1651069665638556.0,3
1604,5.0,18.0,15.0,19.0,18.0,-1.0,8.0,0.0,1651069665650591.0,3
1605,7.0,-14.0,-10.0,-8.0,10.0,26.0,7.0,24.0,1651069665650591.0,3
1606,3.0,4.0,-8.0,-6.0,-18.0,-18.0,-5.0,3.0,1651069665659580.0,3
1607,-8.0,-12.0,6.0,10.0,11.0,2.0,0.0,-14.0,1651069665659580.0,3
1608,6.0,3.0,-6.0,-3.0,11.0,2.0,-2.0,8.0,1651069665674513.0,3
1609,-7.0,-14.0,-2.0,2.0,-16.0,-7.0,2.0,-9.0,1651069665674513.0,3
1610,0.0,8.0,8.0,8.0,33.0,4.0,-7.0,14.0,1651069665676441.0,3
1611,2.0,-5.0,-2.0,4.0,-10.0,18.0,36.0,13.0,1651069665676441.0,3
1612,-8.0,-8.0,-3.0,-10.0,-7.0,-1.0,0.0,-9.0,1651069665697492.0,3
1613,7.0,12.0,5.0,14.0,6.0,-2.0,2.0,9.0,1651069665697492.0,3
1614,-5.0,-6.0,-3.0,-19.0,-25.0,-5.0,10.0,5.0,1651069665699418.0,3
1615,-1.0,8.0,-1.0,-12.0,8.0,-1.0,-13.0,-10.0,1651069665699418.0,3
1616,-3.0,-11.0,-2.0,13.0,3.0,-2.0,-12.0,-7.0,1651069665719577.0,3
1617,1.0,0.0,-4.0,-3.0,-13.0,-7.0,8.0,9.0,1651069665719577.0,3
1618,1.0,-5.0,-1.0,-3.0,-5.0,-3.0,-3.0,-7.0,1651069665721591.0,3
1619,-5.0,-4.0,-2.0,-2.0,-3.0,-3.0,-9.0,-5.0,1651069665721591.0,3
1620,3.0,5.0,5.0,3.0,0.0,4.0,5.0,-1.0,1651069665734564.0,3
1621,-8.0,-2.0,-3.0,-4.0,-16.0,-22.0,-13.0,-1.0,1651069665734564.0,3
1622,8.0,13.0,7.0,4.0,17.0,16.0,-1.0,-4.0,1651069665736531.0,3
1623,-6.0,-11.0,-5.0,-3.0,1.0,-2.0,2.0,-2.0,1651069665736531.0,3
1624,-1.0,-6.0,-2.0,3.0,-10.0,-4.0,1.0,4.0,1651069665757441.0,3
1625,-5.0,-2.0,-3.0,-20.0,-17.0,-11.0,-4.0,-10.0,1651069665757441.0,3
1626,0.0,-1.0,1.0,6.0,8.0,-4.0,-1.0,1.0,1651069665759376.0,3
1627,0.0,-4.0,1.0,26.0,17.0,6.0,-5.0,-1.0,1651069665759376.0,3
1628,4.0,4.0,-1.0,-23.0,0.0,1.0,5.0,0.0,1651069665780719.0,3
1629,-9.0,-3.0,-5.0,-8.0,-3.0,-6.0,-15.0,-5.0,1651069665780719.0,3
1630,0.0,-6.0,-4.0,-2.0,-16.0,0.0,19.0,5.0,1651069665781616.0,3
1631,1.0,2.0,2.0,4.0,-7.0,-7.0,-4.0,0.0,1651069665781616.0,3
1632,2.0,6.0,4.0,4.0,-2.0,-2.0,-5.0,-4.0,1651069665794715.0,3
1633,-4.0,-1.0,0.0,3.0,2.0,3.0,-3.0,-4.0,1651069665794715.0,3
1634,0.0,-4.0,-2.0,-7.0,-5.0,-2.0,3.0,8.0,1651069665796684.0,3
1635,-3.0,-4.0,-3.0,-11.0,-15.0,-9.0,-4.0,-5.0,1651069665796684.0,3
1636,-1.0,0.0,1.0,9.0,12.0,10.0,-1.0,-1.0,1651069665817736.0,3
1637,0.0,-1.0,-2.0,-3.0,0.0,1.0,0.0,-3.0,1651069665817736.0,3
1638,0.0,-2.0,1.0,4.0,-6.0,-4.0,-12.0,-8.0,1651069665818665.0,3
1639,0.0,0.0,-2.0,-7.0,-7.0,2.0,22.0,11.0,1651069665818665.0,3
1640,1.0,3.0,1.0,2.0,0.0,-2.0,0.0,4.0,1651069665839923.0,3
1641,1.0,-2.0,-3.0,0.0,7.0,-2.0,5.0,0.0,1651069665839923.0,3
1642,-2.0,-1.0,-4.0,-2.0,-7.0,-4.0,-8.0,-5.0,1651069665841899.0,3
1643,-1.0,-1.0,1.0,5.0,-10.0,-4.0,-11.0,-4.0,1651069665841899.0,3
1644,-1.0,-4.0,-7.0,-12.0,5.0,0.0,0.0,1.0,1651069665855347.0,3
1645,1.0,1.0,3.0,3.0,1.0,-1.0,2.0,-2.0,1651069665855347.0,3
1646,1.0,4.0,12.0,2.0,-4.0,-4.0,-3.0,1.0,1651069665856347.0,3
1647,-1.0,-4.0,-5.0,6.0,2.0,4.0,-1.0,-2.0,1651069665856347.0,3
1648,-2.0,-3.0,9.0,-10.0,-7.0,-2.0,0.0,-2.0,1651069665878677.0,3
1649,-1.0,-2.0,-19.0,0.0,-6.0,-1.0,-3.0,-3.0,1651069665878677.0,3
1650,13.0,5.0,-18.0,6.0,-10.0,-2.0,-2.0,-1.0,1651069665880695.0,3
1651,-7.0,-5.0,33.0,22.0,15.0,6.0,4.0,0.0,1651069665880695.0,3
1652,-2.0,0.0,2.0,-13.0,8.0,0.0,-1.0,0.0,1651069665900328.0,3
1653,-8.0,-6.0,-1.0,5.0,-2.0,-6.0,-1.0,-1.0,1651069665900328.0,3
1654,-4.0,-7.0,0.0,3.0,-4.0,-2.0,-13.0,-13.0,1651069665901328.0,3
1655,0.0,0.0,-22.0,-41.0,-18.0,-3.0,9.0,7.0,1651069665901328.0,3
1656,12.0,7.0,8.0,20.0,10.0,2.0,5.0,7.0,1651069665914594.0,3
1657,15.0,12.0,-5.0,7.0,9.0,10.0,7.0,4.0,1651069665914594.0,3
1658,-18.0,-28.0,8.0,-9.0,-35.0,-13.0,2.0,3.0,1651069665921377.0,3
1659,-10.0,-12.0,-17.0,-16.0,-5.0,-4.0,-13.0,-10.0,1651069665921377.0,3
1660,-2.0,-6.0,26.0,-11.0,-4.0,-5.0,-10.0,-4.0,1651069665937534.0,3
1661,17.0,4.0,-17.0,-56.0,-12.0,-6.0,-4.0,1.0,1651069665937534.0,3
1662,-16.0,10.0,14.0,54.0,30.0,13.0,13.0,3.0,1651069665938477.0,3
1663,-6.0,-11.0,-6.0,34.0,29.0,9.0,3.0,1.0,1651069665938477.0,3
1664,-8.0,1.0,-30.0,-37.0,-53.0,-15.0,-3.0,-6.0,1651069665960328.0,3
1665,-1.0,1.0,16.0,20.0,24.0,7.0,-4.0,-2.0,1651069665960328.0,3
1666,4.0,12.0,-19.0,-44.0,-8.0,-4.0,1.0,1.0,1651069665961331.0,3
1667,20.0,25.0,52.0,25.0,18.0,8.0,-6.0,0.0,1651069665961331.0,3
1668,0.0,-17.0,-13.0,58.0,18.0,6.0,5.0,3.0,1651069665974309.0,3
1669,-10.0,0.0,0.0,-31.0,-19.0,-4.0,2.0,0.0,1651069665974309.0,3
1670,4.0,6.0,-17.0,6.0,-6.0,4.0,1.0,1.0,1651069665981394.0,3
1671,22.0,13.0,0.0,3.0,8.0,-1.0,-3.0,-2.0,1651069665981394.0,3
1672,-30.0,-26.0,1.0,-25.0,14.0,5.0,0.0,0.0,1651069665997816.0,3
1673,11.0,11.0,-22.0,-72.0,-53.0,-21.0,-8.0,-4.0,1651069665997816.0,3
1674,-18.0,-27.0,3.0,22.0,27.0,8.0,0.0,-3.0,1651069665998786.0,3
1675,10.0,5.0,-8.0,89.0,0.0,1.0,0.0,1.0,1651069665998786.0,3
1676,-2.0,16.0,2.0,-37.0,-8.0,-4.0,-5.0,-4.0,1651069666019796.0,3
1677,-1.0,-12.0,-15.0,23.0,24.0,12.0,10.0,7.0,1651069666019796.0,3
1678,3.0,13.0,20.0,-32.0,4.0,-2.0,-3.0,-5.0,1651069666021724.0,3
1679,-10.0,-21.0,-10.0,-15.0,-11.0,-3.0,-2.0,-3.0,1651069666021724.0,3
1680,4.0,2.0,0.0,34.0,5.0,0.0,-14.0,-7.0,1651069666033843.0,3
1681,12.0,11.0,16.0,30.0,8.0,8.0,28.0,15.0,1651069666033843.0,3
1682,-4.0,-10.0,49.0,62.0,-6.0,-7.0,-5.0,3.0,1651069666042970.0,3
1683,-11.0,0.0,-34.0,-64.0,-7.0,0.0,-6.0,-9.0,1651069666042970.0,3
1684,5.0,-9.0,-42.0,-45.0,-6.0,0.0,5.0,6.0,1651069666057426.0,3
1685,15.0,27.0,16.0,56.0,14.0,-1.0,-10.0,-5.0,1651069666057426.0,3
1686,-24.0,-8.0,12.0,-24.0,2.0,4.0,6.0,1.0,1651069666059354.0,3
1687,-5.0,-5.0,11.0,-8.0,-29.0,-13.0,-7.0,-2.0,1651069666059354.0,3
1688,-2.0,4.0,-6.0,51.0,10.0,-2.0,0.0,-7.0,1651069666080345.0,3
1689,-5.0,-7.0,-7.0,10.0,5.0,0.0,-8.0,-3.0,1651069666080345.0,3
1690,12.0,7.0,7.0,-35.0,-28.0,-12.0,-2.0,-3.0,1651069666081294.0,3
1691,-1.0,4.0,2.0,15.0,13.0,4.0,0.0,-1.0,1651069666081294.0,3
1692,9.0,-2.0,-18.0,-42.0,-10.0,-2.0,1.0,2.0,1651069666093333.0,3
1693,-2.0,-2.0,18.0,15.0,6.0,2.0,-2.0,0.0,1651069666093333.0,3
1694,-6.0,3.0,-17.0,3.0,10.0,2.0,-1.0,-2.0,1651069666102706.0,3
1695,4.0,1.0,3.0,-27.0,-3.0,-4.0,0.0,0.0,1651069666102706.0,3
1696,-20.0,-2.0,10.0,8.0,1.0,4.0,3.0,-1.0,1651069666117744.0,3
1697,21.0,-25.0,-16.0,-9.0,-3.0,-5.0,-5.0,1.0,1651069666117744.0,3
1698,13.0,9.0,0.0,-9.0,-6.0,1.0,0.0,0.0,1651069666118670.0,3
1699,-7.0,1.0,-3.0,-20.0,-6.0,-1.0,1.0,-1.0,1651069666118670.0,3
1700,1.0,-4.0,6.0,29.0,4.0,2.0,0.0,0.0,1651069666140308.0,3
1701,-26.0,-3.0,21.0,17.0,1.0,-1.0,-4.0,-8.0,1651069666140308.0,3
1702,11.0,3.0,-40.0,-31.0,-4.0,-1.0,-1.0,1.0,1651069666141306.0,3
1703,8.0,-2.0,-13.0,-18.0,1.0,-2.0,-1.0,0.0,1651069666141306.0,3
1704,-12.0,-5.0,17.0,9.0,3.0,0.0,-1.0,-2.0,1651069666153512.0,3
1705,-17.0,-17.0,-3.0,0.0,-5.0,-1.0,-1.0,-2.0,1651069666153512.0,3
1706,9.0,1.0,-8.0,-4.0,0.0,0.0,0.0,-1.0,1651069666162420.0,3
1707,-4.0,7.0,25.0,-11.0,-1.0,0.0,-2.0,-4.0,1651069666162420.0,3
1708,6.0,5.0,7.0,0.0,-4.0,0.0,2.0,1.0,1651069666177572.0,3
1709,-7.0,-1.0,-27.0,-10.0,-2.0,-1.0,0.0,-1.0,1651069666177572.0,3
1710,4.0,3.0,35.0,21.0,10.0,3.0,0.0,1.0,1651069666178502.0,3
1711,-7.0,-3.0,-29.0,4.0,-5.0,-2.0,-1.0,0.0,1651069666178502.0,3
1712,9.0,3.0,20.0,-7.0,-1.0,1.0,2.0,1.0,1651069666199604.0,3
1713,-3.0,3.0,6.0,-5.0,0.0,1.0,-3.0,-3.0,1651069666199604.0,3
1714,3.0,-4.0,-28.0,0.0,2.0,-1.0,0.0,-2.0,1651069666201533.0,3
1715,-7.0,-5.0,5.0,2.0,1.0,0.0,-1.0,1.0,1651069666201533.0,3
1716,7.0,2.0,-7.0,0.0,-2.0,-2.0,-1.0,1.0,1651069666214007.0,3
1717,-4.0,8.0,32.0,8.0,2.0,0.0,0.0,-3.0,1651069666214007.0,3
1718,-2.0,-5.0,-20.0,-14.0,-3.0,-1.0,0.0,-1.0,1651069666222171.0,3
1719,2.0,1.0,6.0,-3.0,0.0,-1.0,0.0,1.0,1651069666222171.0,3
1720,3.0,3.0,-1.0,11.0,1.0,-1.0,0.0,1.0,1651069666237424.0,3
1721,-6.0,-2.0,0.0,0.0,-2.0,0.0,-2.0,-2.0,1651069666237424.0,3
1722,2.0,1.0,4.0,2.0,-2.0,-1.0,1.0,0.0,1651069666239358.0,3
1723,-2.0,-1.0,5.0,-2.0,-4.0,-3.0,-2.0,-1.0,1651069666239358.0,3
1724,4.0,4.0,-1.0,2.0,2.0,1.0,-2.0,-3.0,1651069666260328.0,3
1725,-5.0,-6.0,0.0,-1.0,-2.0,0.0,-3.0,-3.0,1651069666260328.0,3
1726,1.0,1.0,-6.0,-6.0,-1.0,0.0,2.0,0.0,1651069666261332.0,3
1727,-4.0,-3.0,-15.0,-6.0,-1.0,1.0,0.0,0.0,1651069666261332.0,3
1728,1.0,0.0,-9.0,2.0,-1.0,-2.0,0.0,1.0,1651069666273748.0,3
1729,-1.0,4.0,21.0,-2.0,-3.0,-1.0,0.0,0.0,1651069666273748.0,3
1730,1.0,1.0,2.0,9.0,4.0,2.0,0.0,1.0,1651069666282148.0,3
1731,-2.0,-1.0,15.0,7.0,0.0,0.0,0.0,-1.0,1651069666282148.0,3
1732,3.0,2.0,-5.0,-7.0,-2.0,0.0,-1.0,-1.0,1651069666297405.0,3
1733,-1.0,-4.0,-32.0,-8.0,-1.0,1.0,0.0,0.0,1651069666297405.0,3
1734,-1.0,0.0,8.0,-2.0,-1.0,-3.0,-4.0,-2.0,1651069666299377.0,3
1735,-3.0,-3.0,4.0,2.0,-1.0,-1.0,1.0,0.0,1651069666299377.0,3
1736,2.0,2.0,4.0,4.0,2.0,0.0,0.0,-1.0,1651069666319462.0,3
1737,-1.0,-4.0,-10.0,-9.0,-1.0,1.0,0.0,-2.0,1651069666319462.0,3
1738,0.0,-1.0,-5.0,-1.0,-1.0,-2.0,0.0,0.0,1651069666321436.0,3
1739,2.0,0.0,-3.0,0.0,-1.0,0.0,0.0,0.0,1651069666321436.0,3
1740,1.0,-1.0,0.0,1.0,-4.0,-1.0,-3.0,-4.0,1651069666333518.0,3
1741,-1.0,1.0,-5.0,13.0,2.0,-1.0,0.0,0.0,1651069666333518.0,3
1742,1.0,3.0,8.0,-12.0,-4.0,1.0,0.0,1.0,1651069666342497.0,3
1743,-2.0,-6.0,-7.0,29.0,5.0,-1.0,0.0,-1.0,1651069666342497.0,3
1744,-2.0,1.0,0.0,-4.0,-1.0,0.0,1.0,1.0,1651069666357625.0,3
1745,-2.0,0.0,9.0,0.0,-2.0,-2.0,0.0,2.0,1651069666357625.0,3
1746,-1.0,-1.0,2.0,-3.0,-1.0,-1.0,-1.0,0.0,1651069666358562.0,3
1747,1.0,2.0,-25.0,-20.0,-4.0,0.0,0.0,-1.0,1651069666358562.0,3
1748,-1.0,2.0,4.0,16.0,5.0,0.0,-1.0,0.0,1651069666379781.0,3
1749,-3.0,0.0,2.0,0.0,-2.0,1.0,1.0,0.0,1651069666379781.0,3
1750,0.0,-3.0,-4.0,5.0,2.0,-1.0,0.0,-2.0,1651069666381710.0,3
1751,-1.0,0.0,7.0,-11.0,-4.0,-1.0,0.0,-1.0,1651069666381710.0,3
1752,0.0,-1.0,1.0,1.0,-3.0,-2.0,-1.0,-2.0,1651069666393950.0,3
1753,1.0,0.0,-1.0,-6.0,2.0,1.0,1.0,1.0,1651069666393950.0,3
1754,1.0,-2.0,-11.0,4.0,0.0,-3.0,-1.0,0.0,1651069666402050.0,3
1755,1.0,1.0,6.0,-2.0,3.0,1.0,-1.0,0.0,1651069666402050.0,3
1756,1.0,-1.0,-4.0,-5.0,-1.0,1.0,0.0,2.0,1651069666417233.0,3
1757,-1.0,0.0,4.0,3.0,0.0,-2.0,0.0,-1.0,1651069666417233.0,3
1758,-1.0,1.0,1.0,0.0,-2.0,-1.0,-2.0,0.0,1651069666419158.0,3
1759,0.0,-1.0,-5.0,0.0,0.0,-2.0,-1.0,0.0,1651069666419158.0,3
1760,2.0,1.0,2.0,-5.0,-1.0,-2.0,0.0,1.0,1651069666440159.0,3
1761,-1.0,-3.0,-4.0,-6.0,-2.0,0.0,-1.0,-3.0,1651069666440159.0,3
1762,0.0,-2.0,-1.0,-5.0,-2.0,-2.0,-1.0,0.0,1651069666441088.0,3
1763,-2.0,-2.0,-27.0,-3.0,4.0,1.0,1.0,1.0,1651069666441088.0,3
1764,-2.0,1.0,2.0,-4.0,-2.0,-1.0,1.0,0.0,1651069666453084.0,3
1765,-1.0,-1.0,6.0,6.0,1.0,0.0,-2.0,-2.0,1651069666453084.0,3
1766,-1.0,-1.0,-6.0,-7.0,-2.0,-2.0,-1.0,0.0,1651069666462044.0,3
1767,-1.0,2.0,10.0,0.0,-4.0,-1.0,-1.0,-1.0,1651069666462044.0,3
1768,-1.0,-1.0,-1.0,0.0,-2.0,0.0,-2.0,-1.0,1651069666477847.0,3
1769,-1.0,-1.0,-12.0,-6.0,0.0,1.0,0.0,-1.0,1651069666477847.0,3
1770,-1.0,-1.0,10.0,9.0,2.0,1.0,0.0,-1.0,1651069666478845.0,3
1771,0.0,-2.0,1.0,-10.0,-2.0,-2.0,-2.0,-1.0,1651069666478845.0,3
1772,-1.0,0.0,2.0,19.0,3.0,0.0,0.0,-2.0,1651069666500006.0,3
1773,0.0,1.0,4.0,-4.0,-1.0,-4.0,-2.0,0.0,1651069666500006.0,3
1774,-1.0,-1.0,-5.0,0.0,0.0,0.0,0.0,-2.0,1651069666500936.0,3
1775,0.0,-1.0,4.0,-3.0,0.0,-1.0,-1.0,0.0,1651069666500936.0,3
1776,-1.0,0.0,-3.0,-10.0,1.0,1.0,1.0,0.0,1651069666513998.0,3
1777,0.0,-2.0,-1.0,0.0,-1.0,-1.0,-1.0,-1.0,1651069666513998.0,3
1778,0.0,0.0,-7.0,-1.0,-1.0,1.0,-1.0,0.0,1651069666522945.0,3
1779,1.0,1.0,3.0,-3.0,-3.0,-3.0,0.0,-1.0,1651069666522945.0,3
1780,-1.0,0.0,7.0,18.0,2.0,1.0,-1.0,0.0,1651069666536942.0,3
1781,-2.0,-1.0,-4.0,1.0,0.0,-2.0,0.0,-1.0,1651069666536942.0,3
1782,0.0,1.0,-1.0,-11.0,-3.0,-1.0,1.0,0.0,1651069666538905.0,3
1783,-2.0,-1.0,2.0,0.0,0.0,-1.0,0.0,-2.0,1651069666538905.0,3
1784,0.0,0.0,-1.0,-4.0,-3.0,0.0,0.0,0.0,1651069666559699.0,3
1785,0.0,-2.0,-1.0,-3.0,-1.0,0.0,0.0,1.0,1651069666559699.0,3
1786,-1.0,0.0,-14.0,0.0,3.0,1.0,0.0,0.0,1651069666561709.0,3
1787,-1.0,-1.0,4.0,4.0,-2.0,-2.0,-2.0,1.0,1651069666561709.0,3
1788,0.0,-2.0,-5.0,-12.0,-3.0,-1.0,0.0,0.0,1651069666573893.0,3
1789,-1.0,-2.0,-1.0,3.0,0.0,1.0,-1.0,0.0,1651069666573893.0,3
1790,-1.0,-1.0,3.0,5.0,2.0,1.0,0.0,1.0,1651069666582225.0,3
1791,0.0,-1.0,-1.0,1.0,2.0,0.0,0.0,0.0,1651069666582225.0,3
1792,-2.0,-2.0,-4.0,-11.0,-3.0,-2.0,1.0,0.0,1651069666597254.0,3
1793,0.0,1.0,8.0,-2.0,-1.0,0.0,0.0,0.0,1651069666597254.0,3
1794,0.0,0.0,-1.0,1.0,-3.0,-2.0,-3.0,-1.0,1651069666599210.0,3
1795,1.0,0.0,4.0,-1.0,-1.0,-1.0,0.0,0.0,1651069666599210.0,3
1796,0.0,1.0,3.0,5.0,2.0,2.0,1.0,-2.0,1651069666619398.0,3
1797,0.0,-2.0,-4.0,-3.0,-2.0,-1.0,1.0,0.0,1651069666619398.0,3
1798,-2.0,-1.0,3.0,3.0,1.0,-1.0,0.0,-1.0,1651069666621346.0,3
1799,-2.0,-1.0,-4.0,-1.0,-3.0,0.0,0.0,-1.0,1651069666621346.0,3
1800,1.0,2.0,9.0,0.0,-3.0,-2.0,-3.0,0.0,1651069666633493.0,3
1801,0.0,1.0,5.0,0.0,-1.0,0.0,0.0,0.0,1651069666633493.0,3
1802,-1.0,-3.0,-3.0,-1.0,1.0,-1.0,-1.0,-2.0,1651069666642471.0,3
1803,0.0,1.0,-2.0,1.0,0.0,-2.0,-1.0,0.0,1651069666642471.0,3
1804,-1.0,-1.0,9.0,2.0,0.0,0.0,0.0,-1.0,1651069666657611.0,3
1805,1.0,0.0,-19.0,-6.0,1.0,3.0,-1.0,0.0,1651069666657611.0,3
1806,1.0,-1.0,2.0,-12.0,-5.0,-1.0,1.0,0.0,1651069666658548.0,3
1807,1.0,-2.0,5.0,23.0,8.0,1.0,1.0,-2.0,1651069666658548.0,3
1808,-1.0,0.0,-2.0,-14.0,-4.0,-4.0,0.0,1.0,1651069666680302.0,3
1809,-2.0,0.0,1.0,0.0,-3.0,-1.0,-1.0,-1.0,1651069666680302.0,3
1810,1.0,0.0,-1.0,-3.0,0.0,1.0,0.0,-1.0,1651069666681301.0,3
1811,1.0,-1.0,-3.0,-7.0,-2.0,2.0,-2.0,-2.0,1651069666681301.0,3
1812,-2.0,-2.0,-6.0,2.0,0.0,-2.0,-1.0,-4.0,1651069666702748.0,3
1813,-1.0,-2.0,4.0,3.0,2.0,0.0,1.0,0.0,1651069666702748.0,3
1814,-1.0,0.0,-1.0,1.0,-1.0,0.0,0.0,0.0,1651069666703679.0,3
1815,-2.0,0.0,3.0,-12.0,-6.0,-2.0,-1.0,0.0,1651069666703679.0,3
1816,0.0,-1.0,0.0,16.0,4.0,-1.0,-1.0,0.0,1651069666717708.0,3
1817,-1.0,0.0,-1.0,-8.0,-4.0,-2.0,-2.0,-1.0,1651069666717708.0,3
1818,-1.0,-1.0,-1.0,8.0,2.0,1.0,0.0,-1.0,1651069666718640.0,3
1819,-1.0,-3.0,1.0,-5.0,-1.0,0.0,0.0,0.0,1651069666718640.0,3
1820,0.0,-2.0,-8.0,-10.0,-2.0,0.0,-1.0,-2.0,1651069666740243.0,3
1821,-1.0,-1.0,1.0,6.0,-1.0,-1.0,-1.0,-1.0,1651069666740243.0,3
1822,0.0,1.0,2.0,5.0,0.0,0.0,2.0,0.0,1651069666741660.0,3
1823,0.0,0.0,0.0,0.0,1.0,3.0,0.0,0.0,1651069666741660.0,3
1824,-2.0,0.0,0.0,-3.0,0.0,0.0,0.0,-1.0,1651069666762210.0,3
1825,1.0,-1.0,1.0,2.0,2.0,-1.0,0.0,-1.0,1651069666762210.0,3
1826,1.0,0.0,9.0,0.0,-2.0,0.0,-2.0,-1.0,1651069666764232.0,3
1827,0.0,0.0,-2.0,-2.0,-2.0,0.0,-1.0,0.0,1651069666764232.0,3
1828,-1.0,-1.0,0.0,2.0,0.0,0.0,-1.0,1.0,1651069666777285.0,3
1829,0.0,1.0,2.0,-3.0,-5.0,-1.0,-1.0,0.0,1651069666777285.0,3
1830,-1.0,0.0,-3.0,-1.0,-1.0,0.0,-1.0,0.0,1651069666779275.0,3
1831,0.0,-1.0,1.0,2.0,1.0,-1.0,1.0,0.0,1651069666779275.0,3
1832,1.0,-1.0,-1.0,-3.0,0.0,1.0,-1.0,1.0,1651069666799470.0,3
1833,1.0,1.0,-2.0,-2.0,0.0,0.0,1.0,-1.0,1651069666799470.0,3
1834,0.0,2.0,7.0,1.0,-1.0,-1.0,-2.0,0.0,1651069666801397.0,3
1835,-1.0,-1.0,0.0,9.0,1.0,-1.0,0.0,-3.0,1651069666801397.0,3
1836,-1.0,-2.0,-2.0,-5.0,-4.0,-1.0,1.0,0.0,1651069666822409.0,3
1837,-1.0,0.0,0.0,2.0,2.0,0.0,-1.0,0.0,1651069666822409.0,3
1838,1.0,-1.0,-2.0,-4.0,2.0,1.0,0.0,2.0,1651069666824376.0,3
1839,0.0,1.0,-2.0,-8.0,-3.0,-2.0,-1.0,1.0,1651069666824376.0,3
1840,1.0,0.0,3.0,3.0,-2.0,-2.0,-2.0,-1.0,1651069666836413.0,3
1841,-2.0,0.0,0.0,-2.0,-1.0,-1.0,-1.0,-1.0,1651069666836413.0,3
1842,0.0,-2.0,-3.0,-1.0,1.0,1.0,1.0,-1.0,1651069666843434.0,3
1843,-1.0,0.0,5.0,2.0,2.0,1.0,-1.0,1.0,1651069666843434.0,3
1844,-2.0,0.0,-19.0,3.0,0.0,-1.0,1.0,0.0,1651069666859587.0,3
1845,-2.0,-4.0,-7.0,-17.0,-3.0,-2.0,-1.0,-2.0,1651069666859587.0,3
1846,-2.0,2.0,-1.0,7.0,0.0,-1.0,0.0,-1.0,1651069666861541.0,3
1847,-1.0,2.0,1.0,-1.0,1.0,0.0,1.0,0.0,1651069666861541.0,3
1848,-2.0,0.0,2.0,-3.0,-4.0,-3.0,-3.0,1.0,1651069666882831.0,3
1849,0.0,2.0,3.0,6.0,2.0,0.0,-1.0,0.0,1651069666882831.0,3
1850,-2.0,-3.0,-6.0,-7.0,-2.0,-2.0,-1.0,-1.0,1651069666883843.0,3
1851,-1.0,0.0,-1.0,1.0,-2.0,0.0,0.0,-1.0,1651069666883843.0,3
1852,0.0,-1.0,3.0,-2.0,1.0,2.0,-1.0,-2.0,1651069666896864.0,3
1853,-1.0,-2.0,-2.0,3.0,1.0,-1.0,1.0,1.0,1651069666896864.0,3
1854,0.0,1.0,4.0,-1.0,-3.0,0.0,-1.0,-2.0,1651069666903777.0,3
1855,-1.0,-2.0,-5.0,-2.0,-1.0,-1.0,-2.0,1.0,1651069666903777.0,3
1856,1.0,-3.0,0.0,-4.0,-1.0,-1.0,-2.0,0.0,1651069666920061.0,3
1857,1.0,-1.0,0.0,3.0,1.0,0.0,1.0,0.0,1651069666920061.0,3
1858,0.0,-1.0,-1.0,2.0,-1.0,-2.0,1.0,0.0,1651069666921061.0,0
1859,-2.0,0.0,1.0,-4.0,0.0,2.0,0.0,-1.0,1651069666921061.0,4
1860,-2.0,-1.0,1.0,3.0,0.0,-1.0,-1.0,-2.0,1651069666942344.0,4
1861,0.0,0.0,2.0,-7.0,-4.0,0.0,-1.0,-1.0,1651069666942344.0,4
1862,0.0,0.0,-2.0,8.0,1.0,-1.0,-2.0,-1.0,1651069666944273.0,4
1863,-1.0,-2.0,0.0,-4.0,-1.0,-1.0,0.0,-3.0,1651069666944273.0,4
1864,2.0,0.0,2.0,0.0,1.0,2.0,2.0,0.0,1651069666956420.0,4
1865,0.0,2.0,2.0,1.0,-2.0,-1.0,0.0,1.0,1651069666956420.0,4
1866,-1.0,2.0,-5.0,-4.0,0.0,2.0,2.0,2.0,1651069666963404.0,4
1867,1.0,-1.0,-3.0,-6.0,-1.0,-1.0,0.0,-1.0,1651069666963404.0,4
1868,1.0,0.0,1.0,19.0,3.0,-1.0,-2.0,-3.0,1651069666980327.0,4
1869,0.0,0.0,0.0,-2.0,-2.0,-2.0,1.0,-1.0,1651069666980327.0,4
1870,0.0,0.0,1.0,1.0,4.0,1.0,-1.0,0.0,1651069666981338.0,4
1871,-1.0,0.0,-2.0,-3.0,-5.0,-2.0,2.0,1.0,1651069666981338.0,4
1872,-1.0,0.0,-1.0,-5.0,0.0,1.0,0.0,-1.0,1651069667002773.0,4
1873,-1.0,-2.0,-1.0,4.0,2.0,-1.0,-1.0,0.0,1651069667002773.0,4
1874,-2.0,-3.0,-2.0,-1.0,-2.0,1.0,-2.0,0.0,1651069667003682.0,4
1875,1.0,1.0,-1.0,-3.0,-6.0,-2.0,-1.0,-1.0,1651069667003682.0,4
1876,-1.0,0.0,2.0,-1.0,1.0,-1.0,0.0,0.0,1651069667016493.0,4
1877,0.0,0.0,2.0,2.0,1.0,1.0,-1.0,-1.0,1651069667016493.0,4
1878,0.0,0.0,0.0,-3.0,-2.0,-3.0,-1.0,-1.0,1651069667023983.0,4
1879,0.0,-1.0,0.0,1.0,2.0,0.0,-2.0,-1.0,1651069667023983.0,4
1880,-2.0,-2.0,0.0,-6.0,-3.0,-2.0,1.0,-1.0,1651069667040259.0,4
1881,0.0,0.0,-2.0,-1.0,-1.0,-1.0,-2.0,0.0,1651069667040259.0,4
1882,-1.0,0.0,2.0,1.0,1.0,2.0,-1.0,-1.0,1651069667041189.0,4
1883,-2.0,-3.0,-6.0,-3.0,-3.0,-2.0,-2.0,1.0,1651069667041189.0,4
1884,2.0,1.0,-3.0,-4.0,0.0,-2.0,-2.0,0.0,1651069667062200.0,4
1885,-2.0,1.0,12.0,5.0,0.0,-2.0,-1.0,-2.0,1651069667062200.0,4
1886,0.0,-1.0,-2.0,1.0,3.0,1.0,1.0,-1.0,1651069667064128.0,4
1887,-1.0,-1.0,-1.0,2.0,2.0,0.0,0.0,-1.0,1651069667064128.0,4
1888,-1.0,1.0,-1.0,-8.0,-4.0,0.0,1.0,2.0,1651069667077119.0,4
1889,0.0,-2.0,-4.0,3.0,-1.0,1.0,0.0,0.0,1651069667077119.0,4
1890,-1.0,2.0,2.0,-2.0,-2.0,-3.0,-1.0,0.0,1651069667083144.0,4
