,EMG_s0,EMG_s1,EMG_s2,EMG_s3,EMG_s4,EMG_s5,EMG_s6,EMG_s7,timestamp,signal
0,-1.0,-2.0,-20.0,-11.0,-4.0,-2.0,1.0,0.0,1651069788059645.0,0
1,-1.0,-1.0,0.0,3.0,-1.0,-3.0,-2.0,-1.0,1651069788059645.0,0
2,-1.0,0.0,0.0,0.0,2.0,1.0,-2.0,-2.0,1651069788061594.0,0
3,-2.0,-1.0,-2.0,-2.0,-6.0,-8.0,-3.0,-1.0,1651069788061594.0,0
4,-2.0,2.0,4.0,4.0,5.0,8.0,3.0,1.0,1651069788073606.0,0
5,0.0,-1.0,-4.0,-6.0,-12.0,-3.0,-3.0,-1.0,1651069788073606.0,0
6,-1.0,-2.0,-8.0,-3.0,8.0,5.0,3.0,1.0,1651069788082515.0,0
7,-2.0,0.0,-3.0,-3.0,-11.0,-7.0,0.0,-2.0,1651069788082515.0,0
8,0.0,0.0,5.0,6.0,9.0,0.0,-3.0,-1.0,1651069788096658.0,0
9,-2.0,0.0,-3.0,-4.0,-8.0,-1.0,0.0,-1.0,1651069788096658.0,0
10,0.0,0.0,2.0,7.0,9.0,9.0,1.0,1.0,1651069788103638.0,0
11,2.0,0.0,-3.0,-4.0,-3.0,0.0,-1.0,1.0,1651069788103638.0,0
12,-1.0,0.0,4.0,0.0,-9.0,-5.0,-1.0,0.0,1651069788119596.0,0
13,-1.0,-1.0,2.0,2.0,2.0,1.0,2.0,0.0,1651069788119596.0,0
14,0.0,1.0,2.0,-2.0,-6.0,-6.0,-2.0,-2.0,1651069788121524.0,0
15,-1.0,-1.0,-6.0,-1.0,-1.0,0.0,1.0,1.0,1651069788121524.0,0
16,0.0,2.0,0.0,0.0,-3.0,-3.0,-2.0,-2.0,1651069788142398.0,0
17,-2.0,-4.0,4.0,4.0,9.0,9.0,1.0,1.0,1651069788142398.0,0
18,-1.0,-1.0,-22.0,-15.0,-13.0,-8.0,-4.0,2.0,1651069788143401.0,0
19,0.0,0.0,1.0,3.0,-13.0,-2.0,1.0,0.0,1651069788143401.0,0
20,1.0,0.0,14.0,4.0,15.0,0.0,1.0,-1.0,1651069788157382.0,0
21,-1.0,-1.0,-5.0,2.0,13.0,5.0,2.0,0.0,1651069788157382.0,0
22,0.0,0.0,6.0,5.0,-5.0,-5.0,-3.0,-2.0,1651069788159375.0,0
23,-1.0,0.0,-7.0,-5.0,-6.0,-6.0,-2.0,-3.0,1651069788159375.0,0
24,-1.0,-2.0,-4.0,-3.0,-1.0,3.0,-1.0,-1.0,1651069788179411.0,0
25,1.0,0.0,-2.0,0.0,2.0,2.0,0.0,1.0,1651069788179411.0,0
26,-1.0,-2.0,5.0,1.0,2.0,0.0,-1.0,-2.0,1651069788181418.0,0
27,-1.0,-1.0,-1.0,-4.0,-4.0,-4.0,-1.0,-1.0,1651069788181418.0,0
28,0.0,-1.0,-3.0,0.0,-5.0,-3.0,0.0,-1.0,1651069788202410.0,0
29,-1.0,1.0,-1.0,-3.0,0.0,-1.0,-1.0,0.0,1651069788202410.0,0
30,0.0,0.0,3.0,3.0,-3.0,2.0,1.0,0.0,1651069788203340.0,0
31,-2.0,-1.0,-3.0,-2.0,5.0,-2.0,-1.0,0.0,1651069788203340.0,0
32,-1.0,0.0,-2.0,-2.0,-4.0,-3.0,-2.0,-2.0,1651069788217367.0,0
33,1.0,-1.0,2.0,-1.0,-3.0,1.0,0.0,-1.0,1651069788217367.0,0
34,-1.0,-2.0,-3.0,-4.0,-2.0,-6.0,-3.0,0.0,1651069788218301.0,0
35,1.0,2.0,1.0,9.0,27.0,24.0,5.0,5.0,1651069788218301.0,0
36,-1.0,-3.0,0.0,7.0,5.0,0.0,2.0,0.0,1651069788239245.0,0
37,-1.0,-2.0,-5.0,-19.0,-13.0,-5.0,-2.0,-2.0,1651069788239245.0,0
38,-1.0,0.0,8.0,6.0,5.0,1.0,0.0,-1.0,1651069788241239.0,0
39,-1.0,-1.0,-3.0,-5.0,-3.0,-1.0,-1.0,-4.0,1651069788241239.0,0
40,-1.0,0.0,-1.0,-3.0,-3.0,-3.0,-2.0,0.0,1651069788261471.0,0
41,0.0,1.0,0.0,-2.0,-14.0,-6.0,-3.0,-1.0,1651069788261471.0,0
42,0.0,-2.0,0.0,-1.0,2.0,2.0,0.0,-1.0,1651069788269385.0,0
43,0.0,1.0,-1.0,-2.0,-2.0,-7.0,-2.0,1.0,1651069788269385.0,0
44,-1.0,1.0,1.0,2.0,0.0,3.0,1.0,-2.0,1651069788276434.0,0
45,-1.0,1.0,-1.0,-1.0,-3.0,-3.0,-1.0,-1.0,1651069788276434.0,0
46,0.0,-1.0,2.0,6.0,4.0,5.0,2.0,0.0,1651069788283371.0,0
47,-1.0,-4.0,0.0,1.0,0.0,-3.0,-2.0,0.0,1651069788283371.0,0
48,3.0,0.0,-4.0,-4.0,-4.0,-3.0,0.0,1.0,1651069788299407.0,0
49,1.0,1.0,0.0,4.0,2.0,-1.0,-2.0,0.0,1651069788299407.0,0
50,0.0,0.0,-1.0,-3.0,-3.0,-3.0,0.0,0.0,1651069788301429.0,0
51,-1.0,0.0,-1.0,-3.0,-7.0,-4.0,0.0,-2.0,1651069788301429.0,0
52,1.0,1.0,0.0,0.0,2.0,4.0,2.0,-1.0,1651069788322223.0,0
53,-1.0,0.0,2.0,1.0,0.0,-2.0,-2.0,-2.0,1651069788322223.0,0
54,-1.0,0.0,-1.0,-1.0,-1.0,-1.0,-3.0,-1.0,1651069788324219.0,0
55,0.0,-3.0,-4.0,-1.0,-4.0,-2.0,-1.0,-1.0,1651069788324219.0,0
56,-1.0,-1.0,0.0,-1.0,0.0,0.0,0.0,-1.0,1651069788336255.0,0
57,1.0,-4.0,-2.0,2.0,-2.0,-3.0,-3.0,0.0,1651069788336255.0,0
58,-1.0,-2.0,-3.0,-3.0,-4.0,-4.0,-1.0,0.0,1651069788343235.0,0
59,0.0,3.0,15.0,8.0,7.0,5.0,1.0,1.0,1651069788343235.0,0
60,-2.0,-2.0,-9.0,-10.0,-5.0,4.0,-2.0,2.0,1651069788359292.0,0
61,1.0,-1.0,5.0,10.0,11.0,5.0,1.0,0.0,1651069788359292.0,0
62,-1.0,0.0,-1.0,-3.0,-3.0,-5.0,-1.0,0.0,1651069788361220.0,0
63,0.0,-3.0,-5.0,-7.0,-12.0,-7.0,-4.0,0.0,1651069788361220.0,0
64,-2.0,-1.0,-1.0,5.0,16.0,5.0,1.0,-2.0,1651069788382395.0,0
65,-1.0,0.0,2.0,2.0,-9.0,-4.0,0.0,1.0,1651069788382395.0,0
66,0.0,-1.0,-2.0,-2.0,5.0,6.0,1.0,-1.0,1651069788383326.0,0
67,0.0,0.0,12.0,5.0,1.0,-3.0,-1.0,-2.0,1651069788383326.0,0
68,-1.0,-1.0,-17.0,-13.0,-9.0,-9.0,-2.0,-1.0,1651069788396358.0,0
69,-1.0,-1.0,-2.0,3.0,0.0,-2.0,1.0,-1.0,1651069788396358.0,0
70,-1.0,0.0,7.0,4.0,3.0,4.0,0.0,0.0,1651069788404355.0,0
71,0.0,-1.0,-4.0,-2.0,-5.0,-4.0,1.0,0.0,1651069788404355.0,0
72,0.0,0.0,5.0,3.0,-1.0,2.0,-2.0,0.0,1651069788418324.0,0
73,0.0,0.0,0.0,-5.0,-4.0,2.0,0.0,-2.0,1651069788418324.0,0
74,-2.0,-2.0,-1.0,9.0,6.0,-1.0,-2.0,0.0,1651069788427296.0,0
75,0.0,-1.0,-1.0,-6.0,-1.0,0.0,-2.0,-2.0,1651069788427296.0,0
76,-1.0,-1.0,7.0,3.0,-8.0,-6.0,0.0,-1.0,1651069788442310.0,0
77,-2.0,-2.0,-5.0,-4.0,6.0,1.0,-1.0,1.0,1651069788442310.0,0
78,-1.0,-3.0,-3.0,-8.0,-6.0,0.0,0.0,0.0,1651069788443347.0,0
79,0.0,-1.0,-1.0,3.0,1.0,-1.0,0.0,0.0,1651069788443347.0,0
80,0.0,0.0,1.0,0.0,-10.0,-2.0,0.0,-2.0,1651069788472408.0,0
81,-1.0,-1.0,3.0,1.0,3.0,-1.0,1.0,0.0,1651069788472408.0,0
82,-2.0,-1.0,-4.0,-3.0,-2.0,-2.0,-1.0,0.0,1651069788473408.0,0
83,1.0,0.0,-6.0,1.0,3.0,4.0,1.0,-1.0,1651069788473408.0,0
84,0.0,-3.0,-1.0,-5.0,-7.0,-3.0,-2.0,-1.0,1651069788478422.0,0
85,-2.0,-2.0,-2.0,-5.0,-12.0,-6.0,-1.0,-3.0,1651069788478422.0,0
86,1.0,1.0,-1.0,6.0,10.0,8.0,4.0,2.0,1651069788487370.0,0
87,0.0,-2.0,-3.0,0.0,2.0,-6.0,-2.0,1.0,1651069788487370.0,0
88,-1.0,1.0,4.0,2.0,-3.0,3.0,1.0,3.0,1651069788502439.0,0
89,-1.0,-2.0,0.0,4.0,9.0,7.0,2.0,-1.0,1651069788502439.0,0
90,1.0,1.0,-1.0,-2.0,4.0,2.0,0.0,-1.0,1651069788503376.0,0
91,-1.0,-1.0,-2.0,-5.0,-8.0,-4.0,-2.0,-3.0,1651069788503376.0,0
92,0.0,-2.0,1.0,7.0,7.0,3.0,1.0,0.0,1651069788524669.0,0
93,-1.0,-1.0,1.0,-3.0,-2.0,-4.0,-2.0,0.0,1651069788524669.0,0
94,0.0,0.0,1.0,-2.0,-8.0,-4.0,-2.0,-1.0,1651069788526598.0,0
95,0.0,-1.0,-5.0,-1.0,4.0,5.0,1.0,-1.0,1651069788526598.0,0
96,1.0,-1.0,6.0,1.0,-2.0,-2.0,-2.0,0.0,1651069788538353.0,0
97,-1.0,-1.0,1.0,2.0,-1.0,0.0,1.0,2.0,1651069788538353.0,0
98,0.0,0.0,-1.0,-3.0,-6.0,-7.0,-1.0,-3.0,1651069788547360.0,0
99,-1.0,1.0,0.0,1.0,4.0,7.0,1.0,-1.0,1651069788547360.0,0
100,-1.0,-1.0,-3.0,-2.0,-10.0,-5.0,0.0,0.0,1651069788561590.0,0
101,0.0,-1.0,-1.0,3.0,11.0,5.0,1.0,0.0,1651069788561590.0,0
102,0.0,-2.0,-1.0,-1.0,-1.0,-1.0,2.0,1.0,1651069788563596.0,0
103,0.0,0.0,3.0,-2.0,-4.0,-3.0,0.0,1.0,1651069788563596.0,0
104,0.0,-2.0,-4.0,0.0,0.0,0.0,-1.0,-2.0,1651069788584785.0,0
105,-2.0,1.0,5.0,6.0,-2.0,-5.0,-3.0,-1.0,1651069788584785.0,0
106,0.0,1.0,2.0,-3.0,2.0,6.0,4.0,1.0,1651069788585740.0,0
107,-1.0,-1.0,-7.0,1.0,6.0,6.0,0.0,-1.0,1651069788585740.0,0
108,0.0,1.0,-3.0,-8.0,-1.0,-5.0,-1.0,0.0,1651069788606835.0,0
109,0.0,0.0,-4.0,-6.0,-7.0,-10.0,-4.0,-1.0,1651069788606835.0,0
110,0.0,-1.0,0.0,0.0,-4.0,1.0,0.0,-1.0,1651069788608791.0,0
111,0.0,-2.0,1.0,1.0,0.0,3.0,1.0,1.0,1651069788608791.0,0
112,-1.0,1.0,-1.0,0.0,4.0,0.0,-2.0,-1.0,1651069788629854.0,0
113,0.0,0.0,-3.0,0.0,-4.0,-2.0,-1.0,1.0,1651069788629854.0,0
114,-2.0,-1.0,-2.0,-1.0,-1.0,-2.0,-1.0,0.0,1651069788630799.0,0
115,-1.0,-4.0,-13.0,-7.0,-7.0,-4.0,-2.0,0.0,1651069788630799.0,0
116,1.0,0.0,11.0,7.0,7.0,5.0,3.0,-1.0,1651069788644814.0,0
117,1.0,-2.0,-3.0,-3.0,0.0,1.0,1.0,0.0,1651069788644814.0,0
118,1.0,0.0,3.0,2.0,-1.0,-4.0,-4.0,-1.0,1651069788645745.0,0
119,-4.0,-1.0,-3.0,-4.0,-11.0,-10.0,-5.0,-1.0,1651069788645745.0,0
120,-1.0,-1.0,-7.0,3.0,16.0,2.0,1.0,-1.0,1651069788667559.0,0
121,-1.0,0.0,2.0,-1.0,1.0,3.0,0.0,-1.0,1651069788667559.0,0
122,0.0,-2.0,-4.0,-2.0,-8.0,-2.0,-1.0,-1.0,1651069788668587.0,0
123,0.0,1.0,3.0,-5.0,-7.0,-6.0,-2.0,-1.0,1651069788668587.0,0
124,-3.0,0.0,-1.0,7.0,5.0,9.0,5.0,0.0,1651069788681682.0,0
125,-1.0,-1.0,-3.0,-3.0,0.0,-1.0,0.0,-2.0,1651069788681682.0,0
126,0.0,1.0,0.0,0.0,0.0,-4.0,-2.0,-2.0,1651069788683680.0,0
127,-1.0,0.0,3.0,-1.0,-3.0,-3.0,-4.0,-1.0,1651069788683680.0,0
128,0.0,0.0,3.0,-3.0,-1.0,0.0,1.0,1.0,1651069788704853.0,0
129,-1.0,-3.0,-1.0,-3.0,0.0,5.0,1.0,0.0,1651069788704853.0,0
130,-1.0,-1.0,2.0,3.0,-1.0,-1.0,-2.0,-1.0,1651069788710908.0,0
131,0.0,-1.0,-2.0,1.0,3.0,4.0,1.0,-2.0,1651069788710908.0,0
132,-1.0,-1.0,-4.0,-3.0,-7.0,-2.0,-1.0,0.0,1651069788726684.0,0
133,0.0,2.0,0.0,2.0,3.0,1.0,2.0,1.0,1651069788726684.0,0
134,-1.0,-2.0,1.0,1.0,2.0,-3.0,0.0,0.0,1651069788728682.0,0
135,0.0,-1.0,0.0,1.0,2.0,3.0,3.0,0.0,1651069788728682.0,0
136,0.0,-3.0,-3.0,-2.0,-3.0,-3.0,-3.0,1.0,1651069788742837.0,0
137,1.0,1.0,-6.0,-3.0,-6.0,-5.0,-1.0,-1.0,1651069788742837.0,0
138,-2.0,0.0,1.0,0.0,-7.0,-2.0,0.0,0.0,1651069788747769.0,0
139,-1.0,-2.0,-4.0,3.0,8.0,1.0,2.0,0.0,1651069788747769.0,0
140,-1.0,0.0,2.0,-1.0,1.0,5.0,0.0,1.0,1651069788764881.0,0
141,0.0,-2.0,-1.0,-2.0,-9.0,-7.0,-2.0,-2.0,1651069788764881.0,0
142,-1.0,0.0,-2.0,0.0,7.0,4.0,0.0,-1.0,1651069788765881.0,0
143,1.0,0.0,-1.0,-6.0,-13.0,-8.0,-2.0,0.0,1651069788765881.0,0
144,-1.0,0.0,-2.0,-1.0,5.0,8.0,1.0,0.0,1651069788795082.0,0
145,-1.0,-1.0,1.0,3.0,4.0,4.0,-1.0,0.0,1651069788795082.0,0
146,0.0,1.0,-2.0,-3.0,6.0,-2.0,0.0,-1.0,1651069788796076.0,0
147,0.0,0.0,2.0,-1.0,-1.0,-1.0,-1.0,-2.0,1651069788796076.0,0
148,-2.0,-2.0,-1.0,-4.0,-6.0,-7.0,-2.0,-2.0,1651069788801063.0,0
149,0.0,0.0,2.0,-2.0,-3.0,-1.0,-1.0,0.0,1651069788801063.0,0
150,1.0,-1.0,-1.0,1.0,-1.0,-1.0,0.0,0.0,1651069788808045.0,0
151,-2.0,-2.0,-2.0,-1.0,3.0,3.0,0.0,0.0,1651069788808045.0,0
152,-2.0,-1.0,-1.0,2.0,2.0,-4.0,-1.0,-2.0,1651069788824262.0,0
153,-1.0,0.0,1.0,2.0,0.0,1.0,-1.0,0.0,1651069788824262.0,0
154,0.0,-2.0,-4.0,-5.0,-4.0,-5.0,-2.0,-1.0,1651069788826228.0,0
155,-1.0,-2.0,2.0,2.0,8.0,10.0,1.0,0.0,1651069788826228.0,0
156,0.0,0.0,-4.0,-7.0,-11.0,-10.0,-3.0,0.0,1651069788847425.0,0
157,-1.0,-1.0,9.0,5.0,3.0,8.0,3.0,0.0,1651069788847425.0,0
158,-2.0,-1.0,-19.0,-9.0,-3.0,0.0,2.0,0.0,1651069788848355.0,0
159,0.0,-1.0,-3.0,0.0,0.0,-1.0,1.0,-1.0,1651069788848355.0,0
160,1.0,1.0,10.0,0.0,-14.0,-5.0,-1.0,0.0,1651069788861507.0,0
161,-2.0,-2.0,-4.0,-1.0,5.0,-5.0,-2.0,-2.0,1651069788861507.0,0
162,0.0,-1.0,5.0,4.0,3.0,2.0,1.0,0.0,1651069788868421.0,0
163,0.0,2.0,2.0,-1.0,-7.0,-6.0,-1.0,1.0,1651069788868421.0,0
164,0.0,-2.0,-3.0,1.0,4.0,4.0,3.0,-1.0,1651069788884380.0,0
165,-1.0,0.0,-2.0,-5.0,-7.0,-5.0,-1.0,-1.0,1651069788884380.0,0
166,-2.0,-1.0,4.0,-2.0,-4.0,-1.0,-2.0,-1.0,1651069788886297.0,0
167,0.0,-1.0,0.0,5.0,9.0,2.0,-1.0,-1.0,1651069788886297.0,0
168,-1.0,1.0,-3.0,-3.0,-5.0,-8.0,-2.0,-1.0,1651069788907465.0,0
169,-1.0,0.0,2.0,6.0,10.0,8.0,2.0,0.0,1651069788907465.0,0
170,-2.0,-1.0,-5.0,-3.0,-10.0,-4.0,-2.0,-1.0,1651069788908396.0,0
171,1.0,2.0,5.0,1.0,-1.0,-1.0,-2.0,-3.0,1651069788908396.0,0
172,0.0,0.0,3.0,1.0,0.0,2.0,-3.0,0.0,1651069788921428.0,0
173,1.0,0.0,-4.0,-5.0,5.0,5.0,3.0,1.0,1651069788921428.0,0
174,-1.0,-3.0,-2.0,9.0,-3.0,-2.0,-3.0,0.0,1651069788928343.0,0
175,-2.0,0.0,12.0,5.0,0.0,-4.0,-2.0,-2.0,1651069788928343.0,0
176,-1.0,-2.0,-23.0,-14.0,-13.0,-1.0,-1.0,0.0,1651069788945420.0,0
177,-4.0,-4.0,-16.0,-1.0,11.0,6.0,2.0,-1.0,1651069788945420.0,0
178,1.0,3.0,33.0,3.0,6.0,6.0,1.0,1.0,1651069788946350.0,0
179,0.0,-2.0,-2.0,-4.0,-8.0,-7.0,0.0,-1.0,1651069788946350.0,0
180,-1.0,-3.0,-5.0,0.0,-8.0,-11.0,-5.0,-2.0,1651069788966636.0,0
181,0.0,2.0,6.0,4.0,18.0,15.0,5.0,3.0,1651069788966636.0,0
182,-2.0,-2.0,-8.0,-6.0,-9.0,-15.0,-7.0,-5.0,1651069788968562.0,0
183,1.0,1.0,8.0,6.0,-4.0,17.0,6.0,4.0,1651069788968562.0,0
184,-3.0,1.0,-2.0,-22.0,-12.0,-13.0,-5.0,-1.0,1651069788989753.0,0
185,-1.0,-4.0,-9.0,-1.0,19.0,18.0,-1.0,-2.0,1651069788989753.0,0
186,4.0,6.0,14.0,65.0,55.0,27.0,13.0,5.0,1651069788990765.0,0
187,-2.0,-4.0,-16.0,-76.0,-33.0,-19.0,-5.0,-3.0,1651069788990765.0,1
188,-1.0,0.0,3.0,21.0,10.0,-4.0,-3.0,0.0,1651069789004927.0,1
189,-1.0,2.0,5.0,7.0,19.0,18.0,5.0,1.0,1651069789004927.0,1
190,-4.0,-5.0,-13.0,-26.0,-20.0,-13.0,-6.0,-5.0,1651069789005858.0,1
191,-3.0,1.0,6.0,25.0,6.0,3.0,-4.0,1.0,1651069789005858.0,1
192,-3.0,-7.0,-10.0,-24.0,-3.0,-13.0,2.0,1.0,1651069789026854.0,1
193,3.0,3.0,8.0,-1.0,-22.0,-19.0,0.0,5.0,1651069789026854.0,1
194,6.0,6.0,-5.0,1.0,18.0,25.0,5.0,0.0,1651069789028780.0,1
195,-3.0,-4.0,-9.0,0.0,3.0,-2.0,-10.0,-14.0,1651069789028780.0,1
196,1.0,-9.0,0.0,-2.0,-10.0,-10.0,-12.0,-8.0,1651069789040776.0,1
197,-4.0,-1.0,1.0,4.0,-16.0,-14.0,-7.0,-6.0,1651069789040776.0,1
198,3.0,6.0,5.0,-15.0,-26.0,-4.0,10.0,12.0,1651069789049810.0,1
199,-1.0,5.0,-2.0,9.0,0.0,-3.0,1.0,0.0,1651069789049810.0,1
200,0.0,0.0,1.0,6.0,4.0,-7.0,-7.0,1.0,1651069789065005.0,1
201,1.0,1.0,2.0,0.0,1.0,4.0,1.0,-1.0,1651069789065005.0,1
202,-1.0,0.0,-7.0,-19.0,-12.0,2.0,-1.0,-4.0,1651069789066004.0,1
203,0.0,-3.0,-1.0,15.0,22.0,23.0,16.0,3.0,1651069789066004.0,1
204,-4.0,0.0,7.0,9.0,2.0,10.0,8.0,-5.0,1651069789086911.0,1
205,-8.0,-7.0,-9.0,-17.0,-21.0,-25.0,-8.0,3.0,1651069789086911.0,1
206,-4.0,-2.0,-4.0,-11.0,-8.0,-22.0,-22.0,-14.0,1651069789088873.0,1
207,12.0,1.0,-10.0,11.0,4.0,3.0,-19.0,2.0,1651069789088873.0,1
208,2.0,8.0,19.0,27.0,18.0,11.0,19.0,14.0,1651069789100842.0,1
209,1.0,-2.0,-7.0,-15.0,-15.0,0.0,20.0,1.0,1651069789100842.0,1
210,1.0,-2.0,1.0,-1.0,4.0,20.0,11.0,9.0,1651069789109902.0,1
211,-5.0,-6.0,-6.0,-8.0,-7.0,-15.0,-6.0,-1.0,1651069789109902.0,1
212,-3.0,-1.0,5.0,5.0,18.0,16.0,-3.0,-2.0,1651069789124847.0,1
213,0.0,2.0,-3.0,-5.0,-14.0,-13.0,-7.0,2.0,1651069789124847.0,1
214,-8.0,-4.0,0.0,5.0,1.0,-11.0,1.0,-11.0,1651069789125801.0,1
215,2.0,1.0,1.0,2.0,8.0,1.0,-9.0,-3.0,1651069789125801.0,1
216,-1.0,-1.0,-5.0,-15.0,-10.0,-5.0,-5.0,-4.0,1651069789146789.0,1
217,-2.0,0.0,1.0,12.0,14.0,7.0,-1.0,-5.0,1651069789146789.0,1
218,-5.0,-6.0,-1.0,2.0,0.0,-1.0,-4.0,-4.0,1651069789148716.0,1
219,1.0,6.0,4.0,1.0,8.0,3.0,8.0,6.0,1651069789148716.0,1
220,-11.0,-11.0,-18.0,-1.0,-10.0,-3.0,-3.0,-12.0,1651069789160751.0,1
221,12.0,10.0,16.0,1.0,-12.0,-5.0,-7.0,-1.0,1651069789160751.0,1
222,2.0,1.0,-12.0,-11.0,-14.0,-8.0,-2.0,10.0,1651069789169363.0,1
223,-10.0,-10.0,3.0,-5.0,-6.0,-9.0,3.0,-3.0,1651069789169363.0,1
224,18.0,19.0,9.0,7.0,12.0,27.0,13.0,20.0,1651069789184325.0,1
225,-4.0,-4.0,-3.0,9.0,25.0,1.0,-13.0,-14.0,1651069789184325.0,1
226,-2.0,-11.0,-3.0,-1.0,-13.0,-6.0,7.0,11.0,1651069789186347.0,1
227,6.0,2.0,-3.0,-7.0,-13.0,-9.0,10.0,10.0,1651069789186347.0,1
228,10.0,24.0,12.0,9.0,17.0,15.0,1.0,-2.0,1651069789207264.0,1
229,-4.0,-2.0,-5.0,1.0,-5.0,-7.0,-9.0,-5.0,1651069789207264.0,1
230,5.0,8.0,14.0,5.0,20.0,14.0,5.0,4.0,1651069789208262.0,1
231,-7.0,-2.0,-14.0,-8.0,0.0,2.0,8.0,3.0,1651069789208262.0,1
232,-9.0,-32.0,-2.0,-1.0,-24.0,-10.0,-7.0,-3.0,1651069789221125.0,1
233,7.0,10.0,8.0,-1.0,1.0,-2.0,-5.0,-2.0,1651069789221125.0,1
234,-5.0,-5.0,-9.0,3.0,1.0,-4.0,-4.0,-6.0,1651069789229515.0,1
235,8.0,6.0,-4.0,6.0,8.0,0.0,-1.0,1.0,1651069789229515.0,1
236,-4.0,-13.0,-3.0,-11.0,-8.0,-5.0,4.0,4.0,1651069789244950.0,1
237,-8.0,-1.0,-9.0,-9.0,-7.0,11.0,11.0,8.0,1651069789244950.0,1
238,6.0,8.0,9.0,13.0,5.0,-3.0,-3.0,-4.0,1651069789245881.0,1
239,-20.0,-21.0,5.0,-3.0,-8.0,-8.0,-4.0,-13.0,1651069789245881.0,1
240,2.0,-10.0,-17.0,-7.0,15.0,3.0,-7.0,-8.0,1651069789267976.0,1
241,-3.0,-9.0,-9.0,-16.0,-40.0,-21.0,-10.0,-1.0,1651069789267976.0,1
242,10.0,12.0,1.0,14.0,38.0,-1.0,2.0,8.0,1651069789268975.0,1
243,-4.0,2.0,-14.0,-27.0,-33.0,-4.0,2.0,-3.0,1651069789268975.0,1
244,1.0,20.0,11.0,35.0,29.0,2.0,10.0,16.0,1651069789281075.0,1
245,2.0,-12.0,19.0,4.0,-16.0,1.0,5.0,9.0,1651069789281075.0,1
246,0.0,12.0,-18.0,-27.0,-29.0,-21.0,-21.0,-19.0,1651069789290095.0,1
247,-1.0,2.0,26.0,14.0,-7.0,-18.0,-18.0,-8.0,1651069789290095.0,1
248,-10.0,2.0,-31.0,-26.0,-33.0,-22.0,-7.0,-9.0,1651069789304174.0,1
249,3.0,-3.0,1.0,15.0,28.0,21.0,24.0,17.0,1651069789304174.0,1
250,-24.0,-45.0,-21.0,-18.0,-36.0,-25.0,-4.0,12.0,1651069789306102.0,1
251,18.0,49.0,30.0,25.0,26.0,54.0,23.0,1.0,1651069789306102.0,1
252,5.0,-25.0,-2.0,14.0,32.0,3.0,-10.0,-16.0,1651069789327319.0,1
253,-8.0,8.0,10.0,10.0,-37.0,-33.0,-10.0,-1.0,1651069789327319.0,1
254,7.0,22.0,14.0,-10.0,31.0,30.0,-12.0,-21.0,1651069789328249.0,1
255,-33.0,-46.0,-27.0,-15.0,-5.0,-7.0,1.0,-22.0,1651069789328249.0,1
256,15.0,34.0,15.0,-1.0,-14.0,3.0,6.0,40.0,1651069789340837.0,1
257,6.0,-33.0,5.0,6.0,52.0,25.0,-3.0,9.0,1651069789340837.0,1
258,-24.0,-18.0,-23.0,-27.0,-58.0,-30.0,5.0,-17.0,1651069789349308.0,1
259,28.0,94.0,44.0,30.0,23.0,-15.0,-18.0,13.0,1651069789349308.0,1
260,-3.0,-12.0,-14.0,-1.0,-71.0,-35.0,-31.0,-37.0,1651069789364390.0,1
261,3.0,-23.0,-6.0,-10.0,0.0,29.0,4.0,40.0,1651069789364390.0,1
262,16.0,17.0,13.0,3.0,3.0,19.0,26.0,-1.0,1651069789366341.0,1
263,-25.0,-22.0,14.0,93.0,7.0,-9.0,4.0,7.0,1651069789366341.0,1
264,-24.0,-27.0,-41.0,-43.0,-49.0,-27.0,7.0,-18.0,1651069789386667.0,1
265,17.0,63.0,20.0,-31.0,-8.0,-8.0,-3.0,2.0,1651069789386667.0,1
266,-25.0,-15.0,4.0,29.0,24.0,4.0,-18.0,-45.0,1651069789388667.0,1
267,16.0,-24.0,-4.0,-11.0,5.0,6.0,-7.0,14.0,1651069789388667.0,1
268,7.0,-10.0,-37.0,-40.0,8.0,11.0,42.0,65.0,1651069789401099.0,1
269,21.0,81.0,78.0,97.0,102.0,64.0,19.0,-45.0,1651069789401099.0,1
270,48.0,0.0,-45.0,-73.0,-34.0,-9.0,-4.0,115.0,1651069789409715.0,1
271,6.0,-21.0,-28.0,24.0,-30.0,-34.0,-10.0,-34.0,1651069789409715.0,1
272,-43.0,-40.0,9.0,16.0,49.0,24.0,-3.0,-32.0,1651069789432508.0,1
273,-16.0,-15.0,-40.0,54.0,49.0,11.0,5.0,-30.0,1651069789432508.0,1
274,34.0,63.0,53.0,-25.0,-38.0,-20.0,6.0,33.0,1651069789433496.0,1
275,-10.0,0.0,10.0,-12.0,-11.0,-10.0,-27.0,-35.0,1651069789433496.0,1
276,-10.0,-43.0,-7.0,-12.0,39.0,27.0,0.0,-13.0,1651069789447489.0,1
277,-31.0,-17.0,-41.0,-74.0,-60.0,-40.0,-16.0,-40.0,1651069789447489.0,1
278,-18.0,-12.0,-7.0,23.0,24.0,6.0,-7.0,-26.0,1651069789448443.0,1
279,17.0,-20.0,-19.0,-66.0,-23.0,-10.0,-1.0,60.0,1651069789448443.0,1
280,15.0,72.0,29.0,31.0,4.0,-10.0,0.0,-3.0,1651069789460477.0,1
281,9.0,1.0,-15.0,-16.0,-26.0,-12.0,-15.0,17.0,1651069789460477.0,1
282,-12.0,-15.0,13.0,16.0,71.0,27.0,7.0,-30.0,1651069789469387.0,1
283,-7.0,-3.0,-38.0,-68.0,-48.0,-19.0,19.0,21.0,1651069789469387.0,1
284,-1.0,1.0,13.0,-1.0,-27.0,-2.0,-25.0,-40.0,1651069789485655.0,1
285,33.0,-6.0,18.0,-25.0,-22.0,1.0,20.0,49.0,1651069789485655.0,1
286,-36.0,-23.0,4.0,63.0,-23.0,-30.0,-13.0,-45.0,1651069789490638.0,1
287,-9.0,18.0,-25.0,-12.0,27.0,39.0,-4.0,-20.0,1651069789490638.0,1
288,7.0,-12.0,18.0,-1.0,-54.0,-50.0,-9.0,25.0,1651069789506875.0,1
289,14.0,35.0,10.0,47.0,2.0,42.0,53.0,63.0,1651069789506875.0,1
290,38.0,-23.0,1.0,37.0,8.0,9.0,0.0,39.0,1651069789508804.0,1
291,-36.0,-38.0,2.0,-16.0,-13.0,-14.0,-24.0,-38.0,1651069789508804.0,1
292,27.0,66.0,2.0,-28.0,43.0,24.0,-1.0,-36.0,1651069789520838.0,1
293,-53.0,-41.0,-28.0,-28.0,-31.0,-31.0,-35.0,-42.0,1651069789520838.0,1
294,28.0,-12.0,25.0,42.0,-5.0,16.0,40.0,47.0,1651069789529747.0,1
295,10.0,-12.0,-30.0,5.0,31.0,17.0,15.0,5.0,1651069789529747.0,1
296,-3.0,18.0,8.0,18.0,24.0,30.0,5.0,5.0,1651069789543897.0,1
297,-3.0,-7.0,22.0,-1.0,-10.0,-26.0,-15.0,-12.0,1651069789543897.0,1
298,-11.0,10.0,-25.0,-51.0,27.0,10.0,-23.0,-17.0,1651069789550878.0,1
299,19.0,0.0,35.0,52.0,9.0,2.0,19.0,18.0,1651069789550878.0,1
300,-16.0,-32.0,-22.0,-84.0,-54.0,-36.0,-2.0,-23.0,1651069789566948.0,1
301,12.0,3.0,2.0,14.0,67.0,47.0,17.0,51.0,1651069789566948.0,1
302,19.0,41.0,2.0,26.0,40.0,21.0,-4.0,-19.0,1651069789568876.0,1
303,-28.0,-10.0,0.0,-19.0,-2.0,-15.0,1.0,-23.0,1651069789568876.0,1
304,34.0,16.0,22.0,25.0,27.0,23.0,18.0,51.0,1651069789589352.0,1
305,-7.0,-14.0,-30.0,-54.0,-64.0,-49.0,-25.0,-26.0,1651069789589352.0,1
306,-37.0,-26.0,-22.0,1.0,0.0,-12.0,2.0,-19.0,1651069789591289.0,1
307,1.0,-8.0,2.0,-25.0,30.0,31.0,-3.0,-26.0,1651069789591289.0,1
308,-20.0,-12.0,-12.0,31.0,-29.0,-37.0,-8.0,5.0,1651069789604974.0,1
309,8.0,-71.0,-3.0,-23.0,1.0,11.0,-2.0,12.0,1651069789604974.0,1
310,-31.0,-5.0,0.0,23.0,-29.0,-15.0,-4.0,-65.0,1651069789606330.0,1
311,-4.0,10.0,5.0,-1.0,13.0,-8.0,-1.0,44.0,1651069789606330.0,1
312,39.0,24.0,30.0,27.0,53.0,45.0,14.0,30.0,1651069789627374.0,1
313,18.0,65.0,28.0,-18.0,17.0,-2.0,-7.0,23.0,1651069789627374.0,1
314,-13.0,-68.0,-18.0,28.0,-65.0,-10.0,4.0,-13.0,1651069789628317.0,1
315,-24.0,27.0,9.0,-9.0,55.0,14.0,3.0,-15.0,1651069789628317.0,1
316,44.0,8.0,8.0,16.0,-9.0,-11.0,-7.0,60.0,1651069789649318.0,1
317,-31.0,-27.0,-17.0,23.0,14.0,-4.0,-2.0,-46.0,1651069789649318.0,1
318,-11.0,8.0,-12.0,-38.0,33.0,10.0,-8.0,3.0,1651069789651242.0,1
319,5.0,0.0,-4.0,-7.0,-45.0,-24.0,-5.0,-7.0,1651069789651242.0,1
320,-22.0,-14.0,12.0,35.0,-22.0,-31.0,-14.0,-8.0,1651069789664275.0,1
321,12.0,31.0,-14.0,-16.0,-3.0,3.0,0.0,-29.0,1651069789664275.0,1
322,-36.0,-50.0,-25.0,-50.0,8.0,-5.0,-8.0,13.0,1651069789666318.0,1
323,51.0,28.0,58.0,43.0,-24.0,6.0,18.0,28.0,1651069789666318.0,1
324,-19.0,-32.0,-37.0,0.0,37.0,9.0,-19.0,-25.0,1651069789687476.0,1
325,-20.0,-16.0,8.0,34.0,-21.0,-24.0,-6.0,-25.0,1651069789687476.0,1
326,20.0,19.0,17.0,16.0,-15.0,7.0,22.0,23.0,1651069789688422.0,1
327,45.0,31.0,-3.0,-5.0,43.0,27.0,12.0,76.0,1651069789688422.0,1
328,-12.0,-14.0,-10.0,-8.0,-39.0,-17.0,10.0,8.0,1651069789709646.0,1
329,1.0,24.0,10.0,4.0,9.0,0.0,-17.0,-63.0,1651069789709646.0,1
330,9.0,-3.0,16.0,-3.0,-17.0,-12.0,0.0,20.0,1651069789711621.0,1
331,-21.0,-35.0,-5.0,17.0,-60.0,-32.0,-10.0,-13.0,1651069789711621.0,1
332,13.0,44.0,9.0,-10.0,4.0,22.0,2.0,-8.0,1651069789723651.0,1
333,0.0,-14.0,-22.0,27.0,46.0,5.0,18.0,5.0,1651069789723651.0,1
334,15.0,45.0,9.0,-32.0,-34.0,-23.0,-10.0,26.0,1651069789730639.0,1
335,1.0,-30.0,9.0,20.0,-23.0,-6.0,-11.0,-23.0,1651069789730639.0,1
336,-48.0,-7.0,-45.0,-23.0,62.0,53.0,17.0,-14.0,1651069789747552.0,1
337,2.0,-7.0,29.0,0.0,-67.0,-39.0,-12.0,15.0,1651069789747552.0,1
338,-2.0,22.0,11.0,19.0,-3.0,-14.0,-25.0,-39.0,1651069789748522.0,1
339,11.0,6.0,-21.0,-17.0,-4.0,34.0,29.0,37.0,1651069789748522.0,1
340,-9.0,-49.0,-7.0,-42.0,-18.0,5.0,-2.0,-13.0,1651069789769208.0,1
341,-8.0,32.0,10.0,5.0,-55.0,-31.0,-20.0,-14.0,1651069789769208.0,1
342,-1.0,-2.0,-22.0,-22.0,8.0,0.0,2.0,6.0,1651069789771194.0,1
343,-19.0,-11.0,4.0,-3.0,4.0,-9.0,-14.0,-43.0,1651069789771194.0,1
344,6.0,45.0,46.0,23.0,33.0,23.0,2.0,7.0,1651069789784272.0,1
345,10.0,-14.0,-34.0,-9.0,-3.0,4.0,-6.0,9.0,1651069789784272.0,1
346,-23.0,-17.0,-2.0,-32.0,-43.0,-26.0,-16.0,-14.0,1651069789790580.0,1
347,7.0,14.0,-1.0,10.0,35.0,-5.0,33.0,1.0,1651069789790580.0,1
348,-14.0,5.0,4.0,17.0,-15.0,-3.0,-18.0,-50.0,1651069789807541.0,1
349,-6.0,-28.0,-18.0,-1.0,14.0,1.0,10.0,42.0,1651069789807541.0,1
350,21.0,34.0,28.0,17.0,31.0,13.0,6.0,-26.0,1651069789808533.0,1
351,0.0,12.0,-27.0,18.0,12.0,24.0,-1.0,5.0,1651069789808533.0,1
352,-5.0,-15.0,1.0,-24.0,-2.0,-6.0,-5.0,-19.0,1651069789829544.0,1
353,-1.0,4.0,-6.0,-1.0,-20.0,-8.0,7.0,28.0,1651069789829544.0,1
354,7.0,-6.0,11.0,21.0,-2.0,0.0,3.0,-5.0,1651069789831473.0,1
355,-27.0,-12.0,-11.0,-39.0,25.0,4.0,-22.0,-31.0,1651069789831473.0,1
356,19.0,4.0,5.0,-3.0,-69.0,-40.0,1.0,18.0,1651069789843551.0,1
357,2.0,20.0,7.0,18.0,12.0,4.0,-21.0,-2.0,1651069789843551.0,1
358,13.0,4.0,2.0,-9.0,0.0,7.0,22.0,-1.0,1651069789850575.0,1
359,-15.0,-9.0,-3.0,-2.0,-23.0,-11.0,-26.0,-29.0,1651069789850575.0,1
360,-20.0,-32.0,-1.0,-7.0,-24.0,-39.0,-10.0,14.0,1651069789867476.0,1
361,1.0,1.0,-15.0,-32.0,21.0,21.0,4.0,2.0,1651069789867476.0,1
362,15.0,6.0,-20.0,13.0,22.0,24.0,11.0,36.0,1651069789868443.0,1
363,12.0,17.0,15.0,25.0,-17.0,-10.0,-7.0,-2.0,1651069789868443.0,1
364,5.0,34.0,25.0,32.0,-12.0,-4.0,-3.0,-22.0,1651069789889950.0,1
365,-7.0,-16.0,7.0,-50.0,-25.0,-7.0,7.0,-12.0,1651069789889950.0,1
366,-2.0,12.0,9.0,39.0,22.0,13.0,1.0,19.0,1651069789890671.0,1
367,5.0,1.0,-18.0,-20.0,-14.0,-17.0,-18.0,-43.0,1651069789890671.0,1
368,28.0,5.0,6.0,12.0,19.0,18.0,32.0,83.0,1651069789912373.0,1
369,15.0,3.0,17.0,37.0,61.0,41.0,13.0,9.0,1651069789912373.0,1
370,-21.0,-6.0,-25.0,-17.0,-27.0,-13.0,-14.0,-28.0,1651069789913314.0,1
371,0.0,-34.0,-21.0,-16.0,-14.0,-13.0,8.0,23.0,1651069789913314.0,1
372,5.0,15.0,6.0,4.0,11.0,-9.0,-3.0,-11.0,1651069789927450.0,1
373,-1.0,-7.0,8.0,1.0,7.0,17.0,10.0,11.0,1651069789927450.0,1
374,3.0,12.0,3.0,-18.0,4.0,-3.0,-11.0,-3.0,1651069789928380.0,1
375,11.0,20.0,17.0,5.0,8.0,10.0,17.0,13.0,1651069789928380.0,1
376,-20.0,-32.0,-20.0,-11.0,22.0,2.0,-16.0,-36.0,1651069789949507.0,1
377,-10.0,-19.0,-22.0,-21.0,-29.0,-16.0,-3.0,-2.0,1651069789949507.0,1
378,19.0,20.0,26.0,46.0,66.0,24.0,-2.0,15.0,1651069789951436.0,1
379,4.0,-6.0,3.0,-4.0,3.0,6.0,4.0,18.0,1651069789951436.0,1
380,-7.0,0.0,0.0,-16.0,15.0,5.0,-1.0,-14.0,1651069789963515.0,1
381,-7.0,-13.0,-8.0,5.0,-4.0,-13.0,-9.0,-18.0,1651069789963515.0,1
382,-7.0,-14.0,-4.0,-25.0,-45.0,-21.0,1.0,7.0,1651069789970540.0,1
383,-2.0,3.0,6.0,-1.0,21.0,-1.0,-4.0,-1.0,1651069789970540.0,1
384,3.0,4.0,1.0,13.0,1.0,8.0,2.0,0.0,1651069789987373.0,1
385,-2.0,4.0,-4.0,1.0,1.0,-4.0,-5.0,-8.0,1651069789987373.0,1
386,-2.0,-3.0,-2.0,-22.0,-16.0,-4.0,0.0,8.0,1651069789988372.0,1
387,-3.0,-5.0,-7.0,-2.0,-43.0,-8.0,-2.0,-8.0,1651069789988372.0,1
388,2.0,-4.0,2.0,2.0,48.0,5.0,-2.0,1.0,1651069790009317.0,1
389,14.0,14.0,9.0,6.0,-3.0,12.0,13.0,14.0,1651069790009317.0,1
390,-2.0,-5.0,-11.0,-8.0,-3.0,5.0,-7.0,-4.0,1651069790011312.0,1
391,-9.0,0.0,1.0,7.0,2.0,-5.0,-6.0,-3.0,1651069790011312.0,1
392,-4.0,-19.0,-4.0,5.0,-11.0,-1.0,2.0,-4.0,1651069790024329.0,1
393,9.0,6.0,7.0,9.0,3.0,1.0,2.0,13.0,1651069790024329.0,1
394,-7.0,-5.0,-3.0,-17.0,10.0,2.0,1.0,-12.0,1651069790030375.0,1
395,1.0,-1.0,0.0,4.0,-3.0,2.0,7.0,9.0,1651069790030375.0,1
396,4.0,12.0,3.0,12.0,5.0,7.0,8.0,0.0,1651069790047496.0,1
397,-10.0,-4.0,-9.0,-2.0,-3.0,-9.0,-6.0,-13.0,1651069790047496.0,1
398,0.0,4.0,2.0,-3.0,-8.0,-6.0,-15.0,-15.0,1651069790048467.0,1
399,-3.0,-3.0,1.0,-2.0,3.0,2.0,-1.0,13.0,1651069790048467.0,1
400,11.0,-1.0,-7.0,-9.0,-29.0,1.0,-1.0,-1.0,1651069790069580.0,1
401,-2.0,7.0,-1.0,3.0,42.0,2.0,2.0,-10.0,1651069790069580.0,1
402,5.0,0.0,5.0,12.0,5.0,11.0,7.0,14.0,1651069790071561.0,1
403,-1.0,-1.0,-6.0,-7.0,-7.0,-6.0,-3.0,-3.0,1651069790071561.0,1
404,-8.0,-2.0,10.0,18.0,3.0,-2.0,-2.0,-3.0,1651069790083748.0,1
405,5.0,8.0,-3.0,-27.0,-8.0,2.0,1.0,-3.0,1651069790083748.0,1
406,-6.0,-8.0,-11.0,-8.0,2.0,9.0,4.0,-1.0,1651069790099661.0,1
407,3.0,-4.0,0.0,5.0,24.0,12.0,5.0,6.0,1651069790099661.0,1
408,-1.0,5.0,0.0,14.0,-3.0,-6.0,-6.0,-1.0,1651069790106709.0,1
409,-6.0,-10.0,-16.0,-8.0,-32.0,-13.0,-6.0,-9.0,1651069790106709.0,1
410,-1.0,-4.0,2.0,-15.0,1.0,-1.0,5.0,8.0,1651069790108638.0,1
411,0.0,2.0,1.0,5.0,2.0,0.0,-1.0,-2.0,1651069790108638.0,1
412,-1.0,-2.0,-10.0,-9.0,-4.0,2.0,1.0,1.0,1651069790129648.0,1
413,-4.0,-3.0,15.0,1.0,-16.0,-11.0,-10.0,-16.0,1651069790129648.0,1
414,6.0,1.0,-3.0,0.0,14.0,1.0,5.0,17.0,1651069790131576.0,1
415,-1.0,2.0,-4.0,-7.0,0.0,-4.0,-5.0,-7.0,1651069790131576.0,1
416,1.0,0.0,-1.0,-3.0,-11.0,-3.0,-16.0,-4.0,1651069790143628.0,1
417,-1.0,-3.0,-5.0,0.0,6.0,7.0,22.0,5.0,1651069790143628.0,1
418,1.0,1.0,3.0,7.0,-7.0,-5.0,5.0,-1.0,1651069790152447.0,1
419,-2.0,-3.0,5.0,10.0,4.0,-2.0,0.0,2.0,1651069790152447.0,1
420,-1.0,2.0,-6.0,-17.0,1.0,0.0,-3.0,-1.0,1651069790167574.0,1
421,-3.0,-1.0,1.0,10.0,-6.0,-7.0,-15.0,-9.0,1651069790167574.0,1
422,-2.0,-4.0,3.0,5.0,2.0,-2.0,-2.0,-4.0,1651069790168581.0,1
423,2.0,2.0,2.0,5.0,0.0,-1.0,-2.0,6.0,1651069790168581.0,1
424,-3.0,-4.0,-5.0,-5.0,-7.0,3.0,7.0,-2.0,1651069790189924.0,1
425,1.0,1.0,-6.0,-7.0,-1.0,-3.0,-5.0,2.0,1651069790189924.0,1
426,-1.0,1.0,13.0,16.0,-11.0,-6.0,-4.0,-3.0,1651069790190926.0,1
427,1.0,-3.0,-6.0,-7.0,5.0,-1.0,1.0,3.0,1651069790190926.0,1
428,-1.0,3.0,3.0,1.0,5.0,-1.0,0.0,1.0,1651069790203498.0,1
429,0.0,-1.0,-2.0,-8.0,2.0,5.0,2.0,1.0,1651069790203498.0,1
430,1.0,1.0,-2.0,-4.0,1.0,1.0,1.0,-1.0,1651069790219457.0,1
431,-1.0,0.0,-12.0,-10.0,-5.0,-5.0,-8.0,-5.0,1651069790219457.0,1
432,4.0,6.0,19.0,17.0,9.0,4.0,6.0,5.0,1651069790227476.0,1
433,-3.0,-5.0,-11.0,-3.0,-15.0,-9.0,-1.0,-1.0,1651069790227476.0,1
434,-3.0,-3.0,0.0,-11.0,9.0,6.0,-1.0,-5.0,1651069790228441.0,1
435,0.0,1.0,-2.0,-8.0,-14.0,-2.0,0.0,3.0,1651069790228441.0,1
436,0.0,-2.0,-21.0,-17.0,-3.0,-3.0,-4.0,-1.0,1651069790249566.0,1
437,-1.0,-2.0,3.0,12.0,16.0,5.0,0.0,-6.0,1651069790249566.0,1
438,9.0,0.0,-16.0,-6.0,-10.0,-7.0,1.0,10.0,1651069790251495.0,1
439,4.0,5.0,45.0,24.0,6.0,-2.0,-1.0,-6.0,1651069790251495.0,1
440,-11.0,-4.0,-25.0,-13.0,-17.0,-3.0,-10.0,-3.0,1651069790263485.0,1
441,-1.0,0.0,-8.0,-25.0,-16.0,-3.0,22.0,7.0,1651069790263485.0,1
442,-10.0,0.0,2.0,-6.0,-1.0,0.0,4.0,-4.0,1651069790272463.0,1
443,12.0,6.0,-5.0,0.0,21.0,13.0,11.0,11.0,1651069790272463.0,1
444,4.0,-8.0,-5.0,-9.0,-9.0,-4.0,0.0,0.0,1651069790286696.0,1
445,13.0,8.0,34.0,38.0,25.0,2.0,-10.0,-3.0,1651069790286696.0,1
446,-24.0,-16.0,-30.0,-24.0,-4.0,-5.0,-6.0,-8.0,1651069790293679.0,1
447,-9.0,3.0,-8.0,-3.0,-15.0,-6.0,0.0,0.0,1651069790293679.0,1
448,-1.0,8.0,27.0,-32.0,-7.0,-1.0,2.0,-3.0,1651069790309909.0,1
449,-7.0,3.0,-17.0,18.0,-11.0,-6.0,-8.0,7.0,1651069790309909.0,1
450,5.0,0.0,-1.0,-13.0,-11.0,-3.0,1.0,-1.0,1651069790310906.0,1
451,-6.0,-6.0,15.0,9.0,11.0,-1.0,-9.0,-9.0,1651069790310906.0,1
452,-1.0,-2.0,-11.0,-29.0,-10.0,-2.0,-3.0,1.0,1651069790323662.0,1
453,7.0,-5.0,12.0,26.0,2.0,-1.0,0.0,1.0,1651069790323662.0,1
454,2.0,3.0,8.0,15.0,17.0,3.0,-3.0,-4.0,1651069790332701.0,1
455,5.0,-5.0,-27.0,-5.0,-8.0,-2.0,-2.0,-1.0,1651069790332701.0,1
456,-10.0,-9.0,-6.0,21.0,3.0,4.0,12.0,5.0,1651069790346670.0,1
457,-1.0,19.0,36.0,0.0,3.0,0.0,-7.0,-8.0,1651069790346670.0,1
458,2.0,-11.0,-1.0,17.0,4.0,1.0,-3.0,1.0,1651069790348668.0,1
459,-17.0,1.0,42.0,-17.0,-1.0,0.0,-2.0,-7.0,1651069790348668.0,1
460,24.0,5.0,-5.0,-20.0,-3.0,-2.0,0.0,8.0,1651069790369655.0,1
461,1.0,6.0,-4.0,-14.0,-11.0,1.0,0.0,2.0,1651069790369655.0,1
462,13.0,4.0,-6.0,17.0,11.0,5.0,4.0,2.0,1651069790375663.0,1
463,3.0,-1.0,-12.0,-29.0,-12.0,-4.0,-1.0,2.0,1651069790375663.0,1
464,-19.0,-15.0,-27.0,29.0,3.0,3.0,0.0,-3.0,1651069790383623.0,1
465,-5.0,-5.0,18.0,-8.0,3.0,-1.0,-4.0,-1.0,1651069790383623.0,1
466,-1.0,-5.0,-1.0,-26.0,-5.0,1.0,4.0,4.0,1651069790392447.0,1
467,17.0,0.0,-1.0,3.0,-3.0,4.0,4.0,5.0,1651069790392447.0,1
468,19.0,29.0,8.0,37.0,22.0,1.0,-6.0,-3.0,1651069790406359.0,1
469,-30.0,-29.0,-34.0,-36.0,-21.0,-12.0,-2.0,-4.0,1651069790406359.0,1
470,-5.0,2.0,-13.0,-9.0,-8.0,-3.0,-1.0,-2.0,1651069790413685.0,1
471,-3.0,10.0,25.0,29.0,16.0,2.0,2.0,-1.0,1651069790413685.0,1
472,-5.0,-7.0,-9.0,-41.0,-26.0,-10.0,-3.0,-4.0,1651069790429471.0,1
473,7.0,-3.0,-15.0,13.0,11.0,5.0,0.0,0.0,1651069790429471.0,1
474,-2.0,14.0,40.0,20.0,-3.0,-2.0,-3.0,-2.0,1651069790431483.0,1
475,5.0,-13.0,-33.0,-29.0,-7.0,-2.0,0.0,0.0,1651069790431483.0,1
476,8.0,-1.0,1.0,20.0,10.0,2.0,1.0,0.0,1651069790443600.0,1
477,-8.0,4.0,26.0,17.0,8.0,0.0,-1.0,-5.0,1651069790443600.0,1
478,5.0,1.0,-53.0,-38.0,-13.0,-5.0,-2.0,0.0,1651069790452641.0,1
479,-11.0,-5.0,-4.0,24.0,1.0,2.0,1.0,-1.0,1651069790452641.0,1
480,1.0,4.0,41.0,13.0,5.0,1.0,1.0,0.0,1651069790468358.0,1
481,3.0,-6.0,-19.0,-11.0,-1.0,0.0,0.0,0.0,1651069790468358.0,1
482,-3.0,2.0,4.0,5.0,-2.0,-2.0,-3.0,-3.0,1651069790470350.0,1
483,-1.0,5.0,14.0,20.0,6.0,2.0,2.0,1.0,1651069790470350.0,1
484,-7.0,-9.0,-30.0,-3.0,-4.0,-1.0,1.0,0.0,1651069790489478.0,1
485,5.0,-1.0,-11.0,-27.0,-2.0,1.0,1.0,3.0,1651069790489478.0,1
486,-1.0,-3.0,12.0,44.0,15.0,6.0,2.0,-1.0,1651069790491516.0,1
487,2.0,5.0,-7.0,-23.0,-16.0,-8.0,-3.0,-3.0,1651069790491516.0,1
488,-7.0,-10.0,-10.0,-7.0,0.0,0.0,0.0,0.0,1651069790512451.0,1
489,0.0,4.0,25.0,12.0,3.0,2.0,1.0,-3.0,1651069790512451.0,1
490,0.0,-2.0,-20.0,2.0,-2.0,-1.0,-1.0,-1.0,1651069790513451.0,1
491,-3.0,-3.0,-23.0,-7.0,-1.0,0.0,-1.0,1.0,1651069790513451.0,1
492,0.0,8.0,35.0,10.0,10.0,3.0,0.0,0.0,1651069790526501.0,1
493,0.0,-3.0,-20.0,-5.0,-11.0,-6.0,-3.0,-2.0,1651069790526501.0,1
494,0.0,5.0,43.0,6.0,0.0,0.0,1.0,-1.0,1651069790533536.0,1
495,2.0,-2.0,-20.0,-6.0,1.0,2.0,2.0,1.0,1651069790533536.0,1
496,0.0,5.0,26.0,-1.0,3.0,1.0,2.0,0.0,1651069790549456.0,1
497,2.0,-1.0,-12.0,-9.0,-1.0,1.0,0.0,0.0,1651069790549456.0,1
498,-1.0,3.0,28.0,18.0,2.0,0.0,-2.0,-1.0,1651069790551420.0,1
499,-4.0,-10.0,-28.0,-17.0,-7.0,-2.0,-3.0,-1.0,1651069790551420.0,1
500,0.0,4.0,29.0,18.0,-2.0,-3.0,0.0,-1.0,1651069790572573.0,1
501,1.0,0.0,-1.0,0.0,1.0,-1.0,0.0,1.0,1651069790572573.0,1
502,-3.0,-5.0,-16.0,-11.0,-2.0,0.0,-1.0,-2.0,1651069790573521.0,1
503,-3.0,0.0,3.0,11.0,7.0,3.0,-1.0,-1.0,1651069790573521.0,1
504,-2.0,-4.0,-17.0,-10.0,-1.0,1.0,2.0,0.0,1651069790586542.0,1
505,0.0,0.0,1.0,22.0,-3.0,-3.0,-2.0,-2.0,1651069790586542.0,1
506,0.0,-1.0,-8.0,-14.0,-2.0,-1.0,-1.0,-1.0,1651069790593482.0,1
507,0.0,0.0,-3.0,5.0,6.0,3.0,0.0,-1.0,1651069790593482.0,1
508,-3.0,-7.0,-10.0,-7.0,-8.0,-2.0,-1.0,-1.0,1651069790609438.0,1
509,1.0,4.0,-1.0,-7.0,0.0,-1.0,0.0,0.0,1651069790609438.0,1
510,-2.0,-3.0,-24.0,-11.0,-5.0,-3.0,-1.0,1.0,1651069790611373.0,1
511,0.0,7.0,31.0,9.0,-1.0,-3.0,0.0,1.0,1651069790611373.0,1
512,-2.0,-1.0,-11.0,1.0,1.0,1.0,-1.0,-2.0,1651069790632434.0,1
513,1.0,1.0,-36.0,-9.0,4.0,2.0,0.0,0.0,1651069790632434.0,1
514,-1.0,-6.0,10.0,12.0,0.0,0.0,3.0,-2.0,1651069790633373.0,1
515,-1.0,-4.0,-10.0,-8.0,-2.0,-3.0,0.0,-2.0,1651069790633373.0,1
516,1.0,0.0,-8.0,5.0,1.0,1.0,0.0,0.0,1651069790647327.0,1
517,-2.0,-1.0,6.0,3.0,1.0,3.0,-2.0,-1.0,1651069790647327.0,1
518,-1.0,-4.0,-3.0,-4.0,-3.0,0.0,-1.0,0.0,1651069790653419.0,1
519,0.0,-1.0,-18.0,-7.0,-7.0,-2.0,0.0,-2.0,1651069790653419.0,1
520,0.0,3.0,15.0,6.0,9.0,1.0,1.0,0.0,1651069790669607.0,1
521,-3.0,-8.0,-7.0,-6.0,-5.0,-1.0,0.0,0.0,1651069790669607.0,1
522,1.0,4.0,9.0,-4.0,-1.0,-2.0,-1.0,-1.0,1651069790671571.0,1
523,-1.0,-4.0,-7.0,1.0,1.0,1.0,0.0,0.0,1651069790671571.0,1
524,-3.0,-4.0,-12.0,-13.0,-6.0,-3.0,0.0,0.0,1651069790691863.0,1
525,0.0,1.0,21.0,12.0,0.0,-1.0,-2.0,0.0,1651069790691863.0,1
526,-2.0,-1.0,-13.0,-9.0,-4.0,-2.0,0.0,0.0,1651069790693888.0,1
527,0.0,-3.0,-10.0,1.0,1.0,0.0,-2.0,-1.0,1651069790693888.0,1
528,1.0,6.0,44.0,9.0,-3.0,-3.0,2.0,0.0,1651069790706876.0,1
529,0.0,-2.0,-9.0,-6.0,3.0,0.0,-3.0,-1.0,1651069790706876.0,1
530,1.0,0.0,5.0,-1.0,-3.0,0.0,-1.0,0.0,1651069790712877.0,1
531,1.0,-1.0,3.0,1.0,1.0,0.0,0.0,-1.0,1651069790712877.0,1
532,-1.0,-4.0,-16.0,1.0,0.0,0.0,1.0,1.0,1651069790730000.0,1
533,-1.0,-1.0,-3.0,-6.0,0.0,-1.0,2.0,0.0,1651069790730000.0,1
534,0.0,2.0,14.0,5.0,1.0,1.0,-1.0,-2.0,1651069790731009.0,1
535,0.0,2.0,18.0,0.0,-3.0,-1.0,0.0,2.0,1651069790731009.0,1
536,-1.0,-5.0,-22.0,-9.0,-2.0,-1.0,-3.0,-2.0,1651069790752507.0,1
537,0.0,3.0,25.0,14.0,1.0,-1.0,1.0,0.0,1651069790752507.0,1
538,-1.0,-2.0,-13.0,-4.0,1.0,-2.0,-1.0,-4.0,1651069790753507.0,1
539,-2.0,3.0,3.0,3.0,-1.0,0.0,0.0,0.0,1651069790753507.0,1
540,-1.0,-5.0,-23.0,-7.0,-2.0,0.0,-3.0,-2.0,1651069790766656.0,1
541,-1.0,-1.0,4.0,-3.0,-3.0,-2.0,-2.0,-2.0,1651069790766656.0,1
542,0.0,-1.0,5.0,21.0,6.0,0.0,0.0,0.0,1651069790773614.0,1
543,0.0,-1.0,5.0,-1.0,1.0,-2.0,-1.0,0.0,1651069790773614.0,1
544,0.0,2.0,22.0,9.0,1.0,2.0,3.0,0.0,1651069790789478.0,1
545,-2.0,-4.0,-28.0,-8.0,0.0,-1.0,-1.0,1.0,1651069790789478.0,1
546,-2.0,0.0,-13.0,-10.0,-5.0,-2.0,-1.0,0.0,1651069790791480.0,1
547,0.0,2.0,14.0,6.0,-1.0,0.0,-3.0,-1.0,1651069790791480.0,1
548,-1.0,-5.0,-13.0,0.0,3.0,2.0,-2.0,-2.0,1651069790811615.0,1
549,1.0,1.0,28.0,6.0,-2.0,-2.0,1.0,0.0,1651069790811615.0,1
550,0.0,-1.0,0.0,0.0,-1.0,-2.0,-1.0,0.0,1651069790813608.0,1
551,1.0,3.0,20.0,1.0,-1.0,0.0,-1.0,1.0,1651069790813608.0,1
552,0.0,2.0,6.0,3.0,1.0,-1.0,0.0,0.0,1651069790826640.0,1
553,0.0,-3.0,-8.0,-1.0,4.0,2.0,0.0,-1.0,1651069790826640.0,1
554,-1.0,-1.0,2.0,0.0,-1.0,-1.0,-1.0,2.0,1651069790833600.0,1
555,0.0,-3.0,-6.0,-5.0,-3.0,-1.0,0.0,1.0,1651069790833600.0,1
556,2.0,0.0,2.0,-6.0,0.0,1.0,0.0,0.0,1651069790849726.0,1
557,-1.0,-1.0,-21.0,-10.0,1.0,-1.0,0.0,0.0,1651069790849726.0,1
558,-1.0,0.0,9.0,-1.0,-2.0,0.0,0.0,-1.0,1651069790855705.0,1
559,-1.0,-1.0,-11.0,1.0,3.0,2.0,1.0,0.0,1651069790855705.0,1
560,-2.0,-2.0,-5.0,-5.0,-5.0,-3.0,1.0,0.0,1651069790872400.0,1
561,-1.0,-6.0,-36.0,-5.0,1.0,1.0,0.0,1.0,1651069790872400.0,1
562,0.0,0.0,20.0,1.0,-1.0,0.0,-1.0,1.0,1651069790873383.0,1
563,0.0,-1.0,-6.0,0.0,-3.0,-2.0,0.0,-2.0,1651069790873383.0,1
564,0.0,-2.0,0.0,-5.0,-1.0,1.0,0.0,0.0,1651069790886376.0,1
565,-1.0,4.0,22.0,20.0,2.0,1.0,0.0,-2.0,1651069790886376.0,1
566,-1.0,-1.0,-2.0,-5.0,-5.0,-2.0,-1.0,-1.0,1651069790893329.0,1
567,-1.0,-2.0,-8.0,-4.0,3.0,1.0,-2.0,-2.0,1651069790893329.0,1
568,-1.0,-4.0,1.0,7.0,-2.0,0.0,1.0,1.0,1651069790909314.0,1
569,1.0,4.0,9.0,-6.0,-1.0,0.0,1.0,1.0,1651069790909314.0,1
570,1.0,-3.0,-19.0,0.0,2.0,-2.0,2.0,-1.0,1651069790911283.0,1
571,0.0,0.0,5.0,-1.0,-1.0,-2.0,-1.0,0.0,1651069790911283.0,1
572,-2.0,0.0,-21.0,5.0,1.0,-1.0,0.0,-1.0,1651069790931584.0,1
573,0.0,0.0,19.0,0.0,-2.0,1.0,0.0,1.0,1651069790931584.0,1
574,-2.0,0.0,-4.0,6.0,3.0,4.0,-1.0,-1.0,1651069790933588.0,1
575,-3.0,-2.0,-4.0,0.0,-1.0,-1.0,2.0,0.0,1651069790933588.0,1
576,1.0,2.0,12.0,6.0,-1.0,-2.0,-2.0,-1.0,1651069790946615.0,1
577,0.0,0.0,-4.0,-3.0,-3.0,-1.0,-2.0,-1.0,1651069790946615.0,1
578,0.0,-2.0,-7.0,-4.0,2.0,2.0,-1.0,1.0,1651069790953572.0,1
579,-2.0,0.0,11.0,4.0,-4.0,-2.0,0.0,-1.0,1651069790953572.0,1
580,0.0,-1.0,2.0,-7.0,-3.0,-3.0,-3.0,0.0,1651069790969976.0,1
581,-1.0,0.0,6.0,-3.0,-1.0,-2.0,-1.0,0.0,1651069790969976.0,1
582,-1.0,-2.0,7.0,-2.0,-1.0,0.0,-2.0,-4.0,1651069790970976.0,1
583,0.0,-2.0,0.0,4.0,0.0,1.0,-1.0,-1.0,1651069790970976.0,1
584,-1.0,0.0,-5.0,-1.0,2.0,0.0,2.0,-2.0,1651069790991682.0,1
585,0.0,-1.0,-9.0,-8.0,-2.0,-1.0,-2.0,0.0,1651069790991682.0,1
586,-2.0,0.0,-3.0,-1.0,3.0,0.0,0.0,1.0,1651069790993690.0,1
587,0.0,-4.0,-8.0,-2.0,-3.0,-1.0,0.0,-1.0,1651069790993690.0,1
588,-2.0,-1.0,-6.0,3.0,0.0,-1.0,0.0,-2.0,1651069791006150.0,1
589,1.0,-3.0,7.0,1.0,1.0,0.0,-1.0,-1.0,1651069791006150.0,1
590,0.0,4.0,19.0,2.0,-3.0,-1.0,0.0,-1.0,1651069791014324.0,1
591,-1.0,1.0,2.0,0.0,-1.0,-2.0,-2.0,-1.0,1651069791014324.0,1
592,-2.0,0.0,-5.0,-2.0,1.0,2.0,0.0,0.0,1651069791030002.0,1
593,-1.0,-3.0,-3.0,5.0,-4.0,-3.0,-2.0,-2.0,1651069791030002.0,1
594,-1.0,-2.0,1.0,0.0,-2.0,-2.0,1.0,-1.0,1651069791030972.0,1
595,-1.0,1.0,-11.0,-8.0,0.0,-1.0,-1.0,0.0,1651069791030972.0,1
596,-3.0,-2.0,8.0,0.0,0.0,-1.0,-1.0,1.0,1651069791051685.0,1
597,0.0,1.0,-9.0,-3.0,2.0,3.0,1.0,-1.0,1651069791051685.0,1
598,0.0,-1.0,-3.0,-5.0,-3.0,-3.0,-2.0,-1.0,1651069791053682.0,1
599,1.0,-1.0,3.0,4.0,2.0,1.0,1.0,-2.0,1651069791053682.0,1
600,-1.0,0.0,-1.0,-1.0,0.0,-2.0,-1.0,-1.0,1651069791065716.0,1
601,-3.0,-1.0,-3.0,1.0,-1.0,-1.0,-1.0,0.0,1651069791065716.0,1
602,0.0,-1.0,-9.0,-5.0,-2.0,-2.0,0.0,1.0,1651069791074670.0,1
603,0.0,3.0,20.0,3.0,0.0,2.0,-1.0,0.0,1651069791074670.0,1
604,0.0,0.0,-11.0,-2.0,-2.0,-1.0,-1.0,-2.0,1651069791089899.0,1
605,-1.0,-1.0,-3.0,-2.0,-3.0,-2.0,0.0,0.0,1651069791089899.0,1
606,-1.0,1.0,16.0,6.0,-2.0,0.0,0.0,0.0,1651069791090830.0,1
607,0.0,-4.0,-24.0,-12.0,-2.0,0.0,0.0,1.0,1651069791090830.0,1
608,0.0,-2.0,-1.0,5.0,-1.0,1.0,1.0,-1.0,1651069791111841.0,1
609,0.0,-1.0,-2.0,-8.0,-2.0,0.0,1.0,-1.0,1651069791111841.0,1
610,-1.0,2.0,-6.0,-5.0,2.0,0.0,-1.0,0.0,1651069791113769.0,1
611,-1.0,-2.0,-12.0,2.0,0.0,-1.0,-1.0,-1.0,1651069791113769.0,1
612,0.0,2.0,10.0,2.0,1.0,-2.0,-1.0,-1.0,1651069791125803.0,1
613,-1.0,0.0,12.0,6.0,0.0,0.0,2.0,1.0,1651069791125803.0,1
614,0.0,-3.0,-12.0,-7.0,-1.0,0.0,-1.0,0.0,1651069791135093.0,1
615,-1.0,-2.0,-3.0,-1.0,-3.0,-1.0,0.0,-1.0,1651069791135093.0,1
616,0.0,-3.0,-9.0,-2.0,-1.0,-3.0,-2.0,-3.0,1651069791150030.0,1
617,-1.0,0.0,11.0,5.0,0.0,0.0,-3.0,0.0,1651069791150030.0,1
618,0.0,1.0,-1.0,-1.0,-1.0,-4.0,-3.0,-2.0,1651069791151030.0,1
619,-2.0,0.0,2.0,-1.0,-1.0,0.0,-1.0,-1.0,1651069791151030.0,1
620,-1.0,0.0,4.0,1.0,-2.0,1.0,0.0,1.0,1651069791171626.0,1
621,-1.0,-2.0,-6.0,1.0,0.0,-1.0,-1.0,0.0,1651069791171626.0,1
622,0.0,-2.0,9.0,-3.0,-3.0,-1.0,0.0,0.0,1651069791173623.0,1
623,1.0,1.0,3.0,11.0,4.0,1.0,0.0,0.0,1651069791173623.0,1
624,-2.0,0.0,-3.0,-12.0,-4.0,-3.0,-2.0,-1.0,1651069791185658.0,1
625,-1.0,-4.0,-10.0,-7.0,0.0,-2.0,0.0,0.0,1651069791185658.0,1
626,0.0,-1.0,-7.0,0.0,-2.0,-1.0,0.0,-1.0,1651069791195080.0,1
627,0.0,1.0,12.0,5.0,0.0,-2.0,-2.0,-1.0,1651069791195080.0,1
628,1.0,2.0,6.0,0.0,-2.0,-1.0,0.0,1.0,1651069791209225.0,1
629,-2.0,0.0,-8.0,1.0,3.0,0.0,0.0,-2.0,1651069791209225.0,0
630,-1.0,-1.0,-4.0,-2.0,1.0,-1.0,-1.0,0.0,1651069791211179.0,0
631,0.0,-1.0,1.0,-2.0,-4.0,-1.0,0.0,1.0,1651069791211179.0,0
632,-1.0,0.0,-12.0,-1.0,0.0,-1.0,0.0,1.0,1651069791232329.0,0
633,1.0,3.0,20.0,2.0,-2.0,-2.0,-2.0,-1.0,1651069791232329.0,0
634,0.0,0.0,12.0,7.0,2.0,1.0,1.0,1.0,1651069791233300.0,0
635,0.0,-1.0,-6.0,-6.0,-1.0,-1.0,0.0,-1.0,1651069791233300.0,0
636,-1.0,-1.0,3.0,6.0,1.0,0.0,0.0,0.0,1651069791245340.0,0
637,-1.0,-1.0,-19.0,-5.0,-1.0,-1.0,0.0,0.0,1651069791245340.0,0
638,0.0,0.0,4.0,4.0,0.0,-1.0,-2.0,0.0,1651069791254329.0,0
639,2.0,-2.0,-2.0,-17.0,-6.0,-3.0,-2.0,-2.0,1651069791254329.0,0
640,1.0,0.0,9.0,7.0,2.0,0.0,-1.0,-1.0,1651069791269324.0,0
641,0.0,-1.0,-8.0,-4.0,-1.0,1.0,-1.0,-1.0,1651069791269324.0,0
642,-2.0,-1.0,-4.0,-3.0,-3.0,-1.0,-1.0,-1.0,1651069791271322.0,0
643,-1.0,2.0,3.0,1.0,-1.0,0.0,0.0,-1.0,1651069791271322.0,0
644,-1.0,-1.0,3.0,3.0,0.0,-1.0,-2.0,-1.0,1651069791292462.0,0
645,0.0,-2.0,8.0,14.0,1.0,1.0,2.0,0.0,1651069791292462.0,0
646,-1.0,-1.0,-4.0,-4.0,-2.0,1.0,1.0,-2.0,1651069791293403.0,0
647,-1.0,1.0,1.0,3.0,0.0,0.0,0.0,-3.0,1651069791293403.0,0
648,-2.0,1.0,3.0,0.0,1.0,1.0,-1.0,1.0,1651069791305322.0,0
649,0.0,-2.0,-5.0,-9.0,-3.0,-3.0,-1.0,1.0,1651069791305322.0,0
650,0.0,-1.0,-6.0,4.0,2.0,-1.0,0.0,0.0,1651069791314323.0,0
651,-1.0,-3.0,-4.0,2.0,2.0,-1.0,0.0,-1.0,1651069791314323.0,0
652,-1.0,0.0,7.0,3.0,2.0,-2.0,-2.0,-1.0,1651069791329462.0,0
653,0.0,0.0,-6.0,-5.0,-1.0,1.0,0.0,0.0,1651069791329462.0,0
654,1.0,0.0,2.0,8.0,0.0,1.0,1.0,-2.0,1651069791331432.0,0
655,-1.0,-3.0,-9.0,-13.0,0.0,-1.0,1.0,1.0,1651069791331432.0,0
656,-1.0,-5.0,-12.0,-7.0,-3.0,0.0,0.0,-1.0,1651069791351739.0,0
657,-1.0,-1.0,-1.0,-1.0,1.0,-1.0,-2.0,-1.0,1651069791351739.0,0
658,-1.0,-2.0,-3.0,-5.0,0.0,-1.0,0.0,-1.0,1651069791353668.0,0
659,1.0,0.0,4.0,8.0,3.0,5.0,1.0,0.0,1651069791353668.0,0
660,0.0,0.0,6.0,-1.0,-3.0,0.0,-1.0,-1.0,1651069791365703.0,0
661,-1.0,0.0,3.0,2.0,-1.0,-2.0,-3.0,0.0,1651069791365703.0,0
662,0.0,-1.0,-1.0,2.0,1.0,0.0,-1.0,0.0,1651069791374692.0,0
663,-1.0,1.0,-1.0,1.0,-3.0,0.0,1.0,2.0,1651069791374692.0,0
664,2.0,-2.0,-5.0,-5.0,-2.0,-3.0,0.0,1.0,1651069791389450.0,0
665,0.0,-3.0,-9.0,-3.0,-4.0,-2.0,-1.0,-2.0,1651069791389450.0,0
666,0.0,1.0,-5.0,-3.0,2.0,3.0,1.0,-1.0,1651069791391470.0,0
667,-3.0,-5.0,-13.0,-8.0,0.0,-2.0,-2.0,-2.0,1651069791391470.0,0
668,-1.0,3.0,23.0,5.0,-2.0,0.0,2.0,2.0,1651069791411615.0,0
669,-2.0,-1.0,-4.0,-10.0,-4.0,-1.0,1.0,0.0,1651069791411615.0,0
670,-2.0,-3.0,-8.0,-5.0,-4.0,-2.0,-2.0,-1.0,1651069791413600.0,0
671,-1.0,1.0,5.0,1.0,-2.0,-2.0,1.0,0.0,1651069791413600.0,0
672,0.0,-1.0,-19.0,-6.0,0.0,1.0,-1.0,-1.0,1651069791425752.0,0
673,1.0,-3.0,-10.0,-1.0,1.0,-2.0,-1.0,-1.0,1651069791425752.0,0
674,0.0,3.0,6.0,-3.0,-4.0,-2.0,0.0,0.0,1651069791434661.0,0
675,-1.0,1.0,15.0,5.0,0.0,2.0,-1.0,0.0,1651069791434661.0,0
676,-1.0,0.0,-5.0,-2.0,-1.0,-3.0,-2.0,-1.0,1651069791448626.0,0
677,1.0,1.0,5.0,1.0,-3.0,0.0,-2.0,1.0,1651069791448626.0,0
678,-1.0,-4.0,-12.0,-7.0,0.0,1.0,0.0,0.0,1651069791457600.0,0
679,0.0,0.0,8.0,8.0,1.0,-1.0,0.0,-1.0,1651069791457600.0,0
680,-1.0,-3.0,1.0,5.0,0.0,2.0,0.0,-1.0,1651069791472528.0,0
681,-1.0,0.0,-14.0,-5.0,-1.0,0.0,1.0,0.0,1651069791472528.0,0
682,-1.0,-2.0,12.0,6.0,-4.0,-4.0,-1.0,-1.0,1651069791473511.0,0
683,1.0,1.0,4.0,1.0,-2.0,0.0,0.0,1.0,1651069791473511.0,0
684,0.0,0.0,0.0,2.0,12.0,9.0,3.0,-1.0,1651069791494634.0,0
685,-1.0,1.0,1.0,-2.0,-2.0,-1.0,0.0,0.0,1651069791494634.0,0
686,0.0,0.0,3.0,4.0,-1.0,-2.0,-3.0,-2.0,1651069791495634.0,0
687,0.0,-1.0,-2.0,-4.0,-8.0,-4.0,-2.0,-3.0,1651069791495634.0,0
688,0.0,1.0,-3.0,-2.0,-4.0,-3.0,-1.0,1.0,1651069791509665.0,0
689,-2.0,-5.0,-3.0,-2.0,2.0,2.0,2.0,-2.0,1651069791509665.0,0
690,-1.0,0.0,-3.0,0.0,-2.0,-2.0,-1.0,0.0,1651069791510618.0,0
691,-2.0,-2.0,0.0,5.0,10.0,3.0,-2.0,0.0,1651069791510618.0,0
692,0.0,0.0,-3.0,-7.0,-3.0,-1.0,-1.0,-1.0,1651069791532551.0,0
693,-2.0,2.0,9.0,0.0,0.0,0.0,0.0,-3.0,1651069791532551.0,0
694,-1.0,-1.0,-14.0,-5.0,-2.0,0.0,0.0,1.0,1651069791533532.0,0
695,-1.0,-1.0,-2.0,3.0,1.0,-3.0,-2.0,0.0,1651069791533532.0,0
696,1.0,-1.0,-16.0,-7.0,-1.0,0.0,0.0,-2.0,1651069791554699.0,0
697,-1.0,-2.0,-2.0,1.0,-2.0,-3.0,-3.0,-1.0,1651069791554699.0,0
698,-1.0,2.0,26.0,3.0,-7.0,-4.0,-2.0,-1.0,1651069791555699.0,0
699,-1.0,-1.0,-8.0,-4.0,4.0,2.0,-1.0,-1.0,1651069791555699.0,0
700,1.0,-2.0,-4.0,3.0,6.0,2.0,3.0,2.0,1651069791569842.0,0
701,-1.0,-2.0,5.0,5.0,-2.0,0.0,0.0,-1.0,1651069791569842.0,0
702,-1.0,1.0,0.0,-3.0,-5.0,-1.0,-3.0,0.0,1651069791570773.0,0
703,-1.0,0.0,-2.0,-2.0,-6.0,-7.0,-1.0,-1.0,1651069791570773.0,0
704,-2.0,2.0,7.0,1.0,2.0,3.0,-2.0,-2.0,1651069791591463.0,0
705,0.0,1.0,1.0,4.0,6.0,1.0,1.0,0.0,1651069791591463.0,0
706,0.0,-3.0,-5.0,2.0,6.0,3.0,2.0,0.0,1651069791598513.0,0
707,-2.0,0.0,2.0,-7.0,-7.0,-1.0,1.0,-1.0,1651069791598513.0,0
708,-2.0,-2.0,-1.0,-2.0,-6.0,-7.0,-3.0,-2.0,1651069791614761.0,0
709,-2.0,0.0,-1.0,-1.0,-1.0,2.0,-2.0,-1.0,1651069791614761.0,0
710,-1.0,0.0,6.0,2.0,2.0,2.0,0.0,0.0,1651069791615691.0,0
711,-2.0,-3.0,-17.0,-5.0,-1.0,-4.0,-2.0,-1.0,1651069791615691.0,0
712,-1.0,-1.0,-7.0,-2.0,1.0,6.0,0.0,0.0,1651069791628723.0,0
713,0.0,0.0,3.0,0.0,2.0,-2.0,-1.0,1.0,1651069791628723.0,0
714,0.0,-1.0,-2.0,-6.0,0.0,0.0,1.0,0.0,1651069791635363.0,0
715,1.0,-1.0,1.0,5.0,-11.0,-9.0,-3.0,-1.0,1651069791635363.0,0
716,1.0,0.0,9.0,7.0,18.0,8.0,0.0,0.0,1651069791652921.0,0
717,1.0,1.0,-1.0,-1.0,-6.0,-5.0,-1.0,0.0,1651069791652921.0,0
718,-1.0,-2.0,-7.0,-5.0,-6.0,0.0,1.0,0.0,1651069791654454.0,0
719,-2.0,-1.0,-13.0,5.0,18.0,8.0,1.0,2.0,1651069791654454.0,0
720,-2.0,-1.0,22.0,3.0,-18.0,-14.0,-4.0,-1.0,1651069791674108.0,0
721,1.0,-1.0,0.0,0.0,3.0,0.0,-1.0,-1.0,1651069791674108.0,0
722,-1.0,-2.0,-4.0,-3.0,0.0,-2.0,0.0,0.0,1651069791682703.0,0
723,0.0,-1.0,-7.0,-3.0,-7.0,-5.0,-2.0,-1.0,1651069791682703.0,0
724,-1.0,-2.0,2.0,-4.0,-7.0,-6.0,-3.0,-1.0,1651069791688752.0,0
725,-3.0,-3.0,-5.0,-3.0,-8.0,1.0,-2.0,-1.0,1651069791688752.0,0
726,0.0,0.0,-1.0,1.0,13.0,2.0,-1.0,0.0,1651069791695667.0,0
727,0.0,0.0,14.0,6.0,1.0,7.0,3.0,1.0,1651069791695667.0,0
728,-2.0,2.0,-12.0,-5.0,-2.0,-3.0,-1.0,0.0,1651069791712444.0,0
729,-1.0,1.0,5.0,-1.0,-4.0,-2.0,-1.0,0.0,1651069791712444.0,0
730,-1.0,-1.0,-10.0,-6.0,-13.0,-8.0,-4.0,-4.0,1651069791713374.0,0
731,0.0,-2.0,6.0,2.0,-1.0,3.0,3.0,2.0,1651069791713374.0,0
732,1.0,1.0,-3.0,1.0,9.0,0.0,2.0,0.0,1651069791734995.0,0
733,0.0,0.0,-5.0,6.0,0.0,4.0,3.0,0.0,1651069791734995.0,0
734,-1.0,-2.0,-2.0,2.0,5.0,4.0,0.0,0.0,1651069791736294.0,0
735,-1.0,-1.0,1.0,-5.0,-3.0,-4.0,-3.0,-2.0,1651069791736294.0,0
736,0.0,-2.0,-5.0,-3.0,-6.0,-2.0,0.0,-1.0,1651069791749352.0,0
737,0.0,1.0,-16.0,-6.0,-5.0,-10.0,-4.0,-3.0,1651069791749352.0,0
738,2.0,4.0,5.0,13.0,36.0,26.0,7.0,4.0,1651069791755309.0,0
739,1.0,0.0,-9.0,3.0,30.0,25.0,6.0,3.0,1651069791755309.0,0
740,-3.0,-4.0,-7.0,-2.0,-4.0,-1.0,0.0,0.0,1651069791772268.0,0
741,1.0,0.0,9.0,-1.0,-11.0,-1.0,-1.0,0.0,1651069791772268.0,0
742,-1.0,-2.0,-6.0,-9.0,-22.0,-21.0,-8.0,-4.0,1651069791773271.0,0
743,-1.0,-2.0,2.0,-4.0,-11.0,-15.0,-7.0,-3.0,1651069791773271.0,0
744,-1.0,-1.0,-1.0,6.0,10.0,10.0,0.0,2.0,1651069791794280.0,0
745,-1.0,0.0,1.0,0.0,15.0,8.0,-1.0,1.0,1651069791794280.0,0
746,-2.0,-3.0,-1.0,-2.0,-3.0,5.0,2.0,0.0,1651069791796208.0,0
747,-1.0,0.0,11.0,-6.0,-20.0,-12.0,-4.0,-2.0,1651069791796208.0,0
748,-2.0,0.0,-17.0,-5.0,-5.0,1.0,-1.0,-3.0,1651069791809172.0,0
749,1.0,1.0,5.0,8.0,30.0,11.0,7.0,3.0,1651069791809172.0,0
750,1.0,3.0,8.0,1.0,-3.0,-2.0,-1.0,0.0,1651069791816153.0,0
751,-2.0,-2.0,-6.0,-2.0,-5.0,1.0,-1.0,-1.0,1651069791816153.0,2
752,-1.0,-1.0,2.0,-9.0,-21.0,-8.0,-3.0,2.0,1651069791832525.0,2
753,-2.0,-3.0,-4.0,1.0,10.0,6.0,-1.0,1.0,1651069791832525.0,2
754,1.0,-1.0,-4.0,-2.0,-8.0,-2.0,3.0,-1.0,1651069791833444.0,2
755,-2.0,0.0,1.0,2.0,5.0,1.0,-2.0,-6.0,1651069791833444.0,2
756,1.0,0.0,5.0,3.0,-16.0,-7.0,1.0,4.0,1651069791854455.0,2
757,0.0,0.0,11.0,1.0,13.0,3.0,4.0,4.0,1651069791854455.0,2
758,2.0,-2.0,0.0,1.0,-12.0,-11.0,-3.0,-3.0,1651069791856384.0,2
759,-1.0,-1.0,-3.0,-12.0,-11.0,-12.0,-5.0,-3.0,1651069791856384.0,2
760,-1.0,-3.0,0.0,1.0,10.0,-4.0,-2.0,-1.0,1651069791869361.0,2
761,-1.0,0.0,1.0,11.0,15.0,19.0,6.0,0.0,1651069791869361.0,2
762,0.0,-1.0,-3.0,-11.0,-24.0,-9.0,-2.0,1.0,1651069791875557.0,2
763,-1.0,1.0,2.0,-2.0,-3.0,0.0,1.0,0.0,1651069791875557.0,2
764,-1.0,1.0,-2.0,-2.0,-4.0,-1.0,1.0,0.0,1651069791892488.0,2
765,-2.0,-3.0,-9.0,-19.0,-11.0,-7.0,-4.0,-2.0,1651069791892488.0,2
766,-1.0,-3.0,-1.0,7.0,-11.0,-6.0,3.0,5.0,1651069791893453.0,2
767,-3.0,0.0,-3.0,5.0,23.0,14.0,-6.0,-17.0,1651069791893453.0,2
768,2.0,2.0,5.0,1.0,-4.0,-3.0,-3.0,-1.0,1651069791914466.0,2
769,-2.0,-2.0,-3.0,-7.0,-21.0,-17.0,-5.0,1.0,1651069791914466.0,2
770,-1.0,-2.0,0.0,5.0,26.0,12.0,0.0,-3.0,1651069791916392.0,2
771,-2.0,-2.0,-1.0,3.0,4.0,0.0,3.0,8.0,1651069791916392.0,2
772,-1.0,-1.0,1.0,-3.0,-5.0,-3.0,-2.0,-1.0,1651069791928360.0,2
773,0.0,1.0,10.0,2.0,-20.0,-28.0,-8.0,-7.0,1651069791928360.0,2
774,1.0,0.0,-1.0,-6.0,5.0,20.0,5.0,5.0,1651069791937336.0,2
775,4.0,2.0,2.0,7.0,-5.0,-1.0,7.0,9.0,1651069791937336.0,2
776,-5.0,-9.0,-20.0,-7.0,13.0,5.0,-3.0,-9.0,1651069791951688.0,2
777,-4.0,-1.0,16.0,-3.0,-18.0,-7.0,-7.0,-12.0,1651069791951688.0,2
778,-1.0,3.0,5.0,8.0,9.0,-13.0,-10.0,-8.0,1651069791953685.0,2
779,-2.0,-3.0,-8.0,-14.0,-10.0,-5.0,-3.0,0.0,1651069791953685.0,2
780,2.0,3.0,1.0,0.0,0.0,4.0,2.0,6.0,1651069791975000.0,2
781,3.0,0.0,-8.0,7.0,2.0,-2.0,7.0,13.0,1651069791975000.0,2
782,-1.0,0.0,-5.0,-3.0,3.0,4.0,3.0,-3.0,1651069791976100.0,2
783,0.0,0.0,5.0,-2.0,-7.0,-3.0,-4.0,-4.0,1651069791976100.0,2
784,12.0,8.0,10.0,1.0,0.0,-13.0,-1.0,6.0,1651069791988754.0,2
785,-9.0,-6.0,-12.0,-14.0,-27.0,-15.0,-9.0,-13.0,1651069791988754.0,2
786,0.0,-4.0,5.0,6.0,11.0,26.0,8.0,8.0,1651069791997358.0,2
787,-3.0,-7.0,-17.0,-1.0,13.0,1.0,2.0,0.0,1651069791997358.0,2
788,2.0,0.0,6.0,6.0,5.0,4.0,3.0,7.0,1651069792012511.0,2
789,0.0,1.0,9.0,8.0,6.0,-3.0,1.0,-3.0,1651069792012511.0,2
790,1.0,2.0,-9.0,-17.0,-37.0,-14.0,-6.0,-1.0,1651069792013463.0,2
791,9.0,14.0,9.0,-2.0,-4.0,-3.0,2.0,9.0,1651069792013463.0,2
792,-9.0,-6.0,-4.0,1.0,8.0,10.0,1.0,-13.0,1651069792034944.0,2
793,10.0,9.0,7.0,3.0,6.0,8.0,6.0,9.0,1651069792034944.0,2
794,-6.0,-11.0,-20.0,-9.0,-4.0,-21.0,-8.0,-1.0,1651069792036319.0,2
795,-5.0,1.0,8.0,2.0,-8.0,-1.0,-14.0,-21.0,1651069792036319.0,2
796,0.0,2.0,9.0,19.0,29.0,12.0,5.0,1.0,1651069792048367.0,2
797,-4.0,-13.0,-24.0,-14.0,-18.0,-5.0,-3.0,-6.0,1651069792048367.0,2
798,-1.0,3.0,-2.0,-13.0,6.0,2.0,-1.0,-1.0,1651069792057447.0,2
799,6.0,1.0,6.0,12.0,0.0,1.0,19.0,19.0,1651069792057447.0,2
800,-2.0,-1.0,3.0,-6.0,-16.0,-12.0,-6.0,-5.0,1651069792072514.0,2
801,-7.0,-18.0,-4.0,6.0,7.0,16.0,-2.0,-6.0,1651069792072514.0,2
802,-2.0,-3.0,-1.0,-9.0,-13.0,-7.0,-1.0,-1.0,1651069792073513.0,2
803,-3.0,3.0,12.0,16.0,19.0,8.0,-7.0,-11.0,1651069792073513.0,2
804,-1.0,3.0,-11.0,-15.0,-24.0,-10.0,1.0,1.0,1651069792094604.0,2
805,5.0,9.0,22.0,17.0,28.0,3.0,6.0,9.0,1651069792094604.0,2
806,-6.0,-4.0,-5.0,0.0,-12.0,3.0,-4.0,-11.0,1651069792096547.0,2
807,-3.0,6.0,-3.0,-15.0,-27.0,-22.0,1.0,2.0,1651069792096547.0,2
808,5.0,-5.0,1.0,7.0,10.0,20.0,-5.0,3.0,1651069792108570.0,2
809,-2.0,1.0,-11.0,-1.0,7.0,1.0,-7.0,-12.0,1651069792108570.0,2
810,1.0,1.0,7.0,8.0,25.0,2.0,0.0,-2.0,1651069792117476.0,2
811,-3.0,-5.0,-15.0,-14.0,-32.0,-5.0,-3.0,2.0,1651069792117476.0,2
812,-13.0,-4.0,-2.0,-9.0,-21.0,-11.0,-6.0,-12.0,1651069792131706.0,2
813,21.0,22.0,15.0,6.0,12.0,-3.0,5.0,19.0,1651069792131706.0,2
814,-11.0,-21.0,-4.0,4.0,23.0,34.0,8.0,0.0,1651069792133634.0,2
815,3.0,7.0,-7.0,12.0,5.0,0.0,-6.0,-6.0,1651069792133634.0,2
816,-8.0,-4.0,7.0,-9.0,16.0,0.0,2.0,0.0,1651069792154970.0,2
817,-5.0,12.0,7.0,1.0,-61.0,-24.0,-12.0,-3.0,1651069792154970.0,2
818,11.0,5.0,10.0,-21.0,-16.0,-13.0,3.0,12.0,1651069792156294.0,2
819,15.0,-2.0,8.0,13.0,55.0,36.0,21.0,21.0,1651069792156294.0,2
820,8.0,23.0,9.0,4.0,1.0,2.0,-6.0,0.0,1651069792168271.0,2
821,-12.0,-13.0,-25.0,-16.0,-21.0,-15.0,-6.0,-10.0,1651069792168271.0,2
822,6.0,32.0,14.0,7.0,10.0,1.0,1.0,-6.0,1651069792177238.0,2
823,-16.0,-43.0,-4.0,-1.0,34.0,9.0,-10.0,-15.0,1651069792177238.0,2
824,13.0,2.0,0.0,42.0,-2.0,-4.0,6.0,17.0,1651069792192310.0,2
825,-7.0,-21.0,-13.0,-41.0,2.0,9.0,-4.0,-8.0,1651069792192310.0,2
826,-7.0,0.0,-8.0,20.0,22.0,14.0,1.0,-17.0,1651069792193296.0,2
827,-2.0,1.0,-3.0,-23.0,-30.0,-20.0,-3.0,9.0,1651069792193296.0,2
828,24.0,23.0,6.0,-10.0,7.0,13.0,16.0,36.0,1651069792214447.0,2
829,-13.0,-10.0,0.0,25.0,26.0,10.0,0.0,-22.0,1651069792214447.0,2
830,-1.0,-6.0,0.0,-16.0,-17.0,-27.0,-6.0,16.0,1651069792216402.0,2
831,5.0,10.0,0.0,-12.0,-33.0,3.0,0.0,-10.0,1651069792216402.0,2
832,-8.0,-10.0,-12.0,-9.0,5.0,6.0,0.0,-3.0,1651069792228452.0,2
833,9.0,-15.0,-2.0,26.0,24.0,22.0,15.0,16.0,1651069792228452.0,2
834,-9.0,14.0,-4.0,-56.0,-68.0,-44.0,-15.0,-9.0,1651069792237428.0,2
835,-1.0,0.0,19.0,61.0,95.0,53.0,17.0,-8.0,1651069792237428.0,2
836,2.0,15.0,-6.0,-17.0,-46.0,-24.0,-7.0,16.0,1651069792251654.0,2
837,4.0,22.0,11.0,-3.0,25.0,4.0,4.0,-4.0,1651069792251654.0,2
838,-12.0,-29.0,-11.0,3.0,-2.0,6.0,1.0,-10.0,1651069792253651.0,2
839,7.0,4.0,-18.0,-48.0,-47.0,-28.0,-9.0,19.0,1651069792253651.0,2
840,-11.0,6.0,1.0,-5.0,5.0,-7.0,-7.0,-32.0,1651069792274223.0,2
841,-14.0,-15.0,-1.0,28.0,22.0,16.0,1.0,7.0,1651069792274223.0,2
842,14.0,12.0,9.0,15.0,-50.0,-27.0,-9.0,-7.0,1651069792274223.0,2
843,11.0,10.0,18.0,25.0,49.0,36.0,6.0,18.0,1651069792274223.0,2
844,2.0,-2.0,-8.0,-45.0,-23.0,-7.0,3.0,-8.0,1651069792296337.0,2
845,-10.0,-4.0,-3.0,11.0,20.0,4.0,1.0,-4.0,1651069792296337.0,2
846,-3.0,24.0,-1.0,2.0,-7.0,-3.0,0.0,2.0,1651069792297152.0,2
847,-5.0,-2.0,5.0,-14.0,-27.0,-14.0,-5.0,-27.0,1651069792297152.0,2
848,-2.0,-31.0,-2.0,12.0,-14.0,-8.0,0.0,13.0,1651069792320004.0,2
849,-2.0,6.0,-5.0,-51.0,-44.0,-11.0,-5.0,-7.0,1651069792320004.0,2
850,4.0,11.0,0.0,43.0,73.0,21.0,-7.0,-9.0,1651069792320004.0,2
851,-8.0,-20.0,-16.0,-11.0,5.0,0.0,4.0,2.0,1651069792320004.0,2
852,11.0,21.0,15.0,6.0,-1.0,0.0,1.0,10.0,1651069792334296.0,2
853,2.0,-12.0,6.0,24.0,-17.0,-7.0,6.0,-2.0,1651069792334296.0,2
854,-2.0,-15.0,-14.0,-30.0,20.0,8.0,2.0,10.0,1651069792334296.0,2
855,-4.0,4.0,-4.0,-1.0,-33.0,-30.0,-13.0,-8.0,1651069792334296.0,2
856,-15.0,-14.0,-17.0,1.0,26.0,1.0,-7.0,-10.0,1651069792356479.0,2
857,3.0,-3.0,-1.0,9.0,-9.0,17.0,6.0,-1.0,1651069792356479.0,2
858,4.0,10.0,13.0,-2.0,-5.0,-13.0,-6.0,-4.0,1651069792357430.0,2
859,-3.0,-20.0,-10.0,2.0,12.0,10.0,7.0,11.0,1651069792357430.0,2
860,-13.0,-18.0,-15.0,-12.0,6.0,-4.0,-12.0,-28.0,1651069792370442.0,2
861,9.0,8.0,-12.0,-26.0,-17.0,-14.0,5.0,27.0,1651069792370442.0,2
862,-9.0,6.0,17.0,15.0,-5.0,-4.0,-2.0,-16.0,1651069792379353.0,2
863,-7.0,-4.0,0.0,-12.0,-47.0,-9.0,1.0,-3.0,1651069792379353.0,2
864,-9.0,-18.0,0.0,27.0,53.0,21.0,-11.0,-27.0,1651069792394373.0,2
865,6.0,4.0,-9.0,-9.0,8.0,13.0,5.0,28.0,1651069792394373.0,2
866,8.0,-3.0,-3.0,0.0,-14.0,-10.0,1.0,-6.0,1651069792394373.0,2
867,-14.0,4.0,-1.0,-14.0,-24.0,-2.0,-10.0,-15.0,1651069792394373.0,2
868,5.0,11.0,16.0,10.0,-31.0,-10.0,1.0,-1.0,1651069792417352.0,2
869,-7.0,4.0,-4.0,14.0,19.0,-1.0,-1.0,-9.0,1651069792417352.0,2
870,7.0,-14.0,-13.0,-9.0,26.0,12.0,12.0,25.0,1651069792418317.0,2
871,-2.0,13.0,-1.0,0.0,15.0,-7.0,-8.0,-11.0,1651069792418317.0,2
872,4.0,-6.0,-3.0,-4.0,-10.0,-10.0,-2.0,9.0,1651069792431305.0,2
873,6.0,21.0,13.0,-8.0,-19.0,-6.0,-2.0,-4.0,1651069792431305.0,2
874,7.0,7.0,9.0,18.0,30.0,8.0,0.0,21.0,1651069792432274.0,2
875,1.0,3.0,1.0,20.0,-10.0,-12.0,-5.0,-16.0,1651069792432274.0,2
876,13.0,-6.0,3.0,-1.0,30.0,27.0,17.0,24.0,1651069792454347.0,2
877,-15.0,-8.0,-2.0,-8.0,-37.0,-17.0,-11.0,-19.0,1651069792454347.0,2
878,2.0,6.0,14.0,55.0,14.0,19.0,7.0,-2.0,1651069792454347.0,2
879,-4.0,-8.0,-22.0,-40.0,-17.0,-20.0,-5.0,3.0,1651069792454347.0,2
880,-10.0,3.0,2.0,-3.0,-4.0,3.0,-1.0,-7.0,1651069792476646.0,2
881,5.0,-2.0,-1.0,12.0,37.0,24.0,5.0,2.0,1651069792476646.0,2
882,-5.0,-12.0,-5.0,-9.0,-10.0,-12.0,-13.0,-16.0,1651069792476646.0,2
883,13.0,15.0,11.0,5.0,-23.0,3.0,8.0,28.0,1651069792476646.0,2
884,2.0,5.0,3.0,5.0,19.0,27.0,11.0,0.0,1651069792491765.0,2
885,-5.0,-9.0,-2.0,-2.0,-6.0,-15.0,-9.0,-19.0,1651069792491765.0,2
886,-4.0,2.0,1.0,-7.0,9.0,7.0,0.0,-2.0,1651069792491765.0,2
887,9.0,-10.0,-9.0,4.0,9.0,-2.0,5.0,28.0,1651069792491765.0,2
888,2.0,17.0,2.0,9.0,22.0,7.0,-2.0,-8.0,1651069792513635.0,2
889,-4.0,-20.0,5.0,11.0,-18.0,-10.0,-5.0,-8.0,1651069792513635.0,2
890,-1.0,-7.0,-8.0,1.0,9.0,10.0,22.0,16.0,1651069792514654.0,2
891,1.0,5.0,11.0,21.0,20.0,8.0,0.0,-5.0,1651069792514654.0,2
892,-16.0,-16.0,-10.0,-12.0,-11.0,-9.0,-6.0,-17.0,1651069792536644.0,2
893,5.0,8.0,0.0,-2.0,-5.0,2.0,-3.0,7.0,1651069792536644.0,2
894,-3.0,-7.0,0.0,-17.0,-19.0,-6.0,-3.0,-6.0,1651069792536644.0,2
895,-4.0,4.0,-2.0,12.0,6.0,-17.0,0.0,4.0,1651069792536644.0,2
896,-2.0,-13.0,-4.0,8.0,-10.0,15.0,11.0,6.0,1651069792551602.0,2
897,-1.0,-11.0,-2.0,-13.0,-24.0,-12.0,-5.0,-1.0,1651069792551602.0,2
898,-3.0,5.0,1.0,-4.0,-21.0,-15.0,-6.0,-4.0,1651069792552531.0,2
899,-2.0,-4.0,-6.0,-2.0,20.0,9.0,9.0,2.0,1651069792552531.0,2
900,-11.0,-6.0,-10.0,9.0,-25.0,-27.0,-24.0,-30.0,1651069792573695.0,2
901,12.0,3.0,-3.0,-22.0,66.0,20.0,5.0,11.0,1651069792573695.0,2
902,-7.0,-11.0,-10.0,8.0,-10.0,3.0,0.0,2.0,1651069792574624.0,2
903,-4.0,5.0,3.0,-3.0,5.0,-6.0,-8.0,-11.0,1651069792574624.0,2
904,-5.0,-9.0,3.0,7.0,-7.0,-16.0,7.0,6.0,1651069792596576.0,2
905,21.0,23.0,0.0,13.0,8.0,18.0,5.0,15.0,1651069792596576.0,2
906,-6.0,3.0,1.0,-16.0,-4.0,-7.0,-4.0,-3.0,1651069792597571.0,2
907,-4.0,-10.0,-5.0,-7.0,3.0,6.0,-12.0,-19.0,1651069792597571.0,2
908,5.0,11.0,4.0,-4.0,-23.0,-12.0,4.0,5.0,1651069792611684.0,2
909,-12.0,-3.0,-1.0,-24.0,-9.0,-18.0,-1.0,2.0,1651069792611684.0,2
910,7.0,3.0,-4.0,-1.0,30.0,24.0,-2.0,-1.0,1651069792611684.0,2
911,2.0,12.0,10.0,10.0,-19.0,-1.0,9.0,0.0,1651069792611684.0,2
912,2.0,-4.0,-1.0,-9.0,-2.0,-9.0,-4.0,3.0,1651069792633694.0,2
913,0.0,10.0,9.0,8.0,-26.0,-14.0,-8.0,-8.0,1651069792633694.0,2
914,8.0,10.0,5.0,-12.0,19.0,11.0,6.0,15.0,1651069792634624.0,2
915,-16.0,-19.0,-9.0,-6.0,-29.0,-7.0,-10.0,-13.0,1651069792634624.0,2
916,6.0,9.0,1.0,0.0,30.0,4.0,1.0,1.0,1651069792656415.0,2
917,2.0,9.0,-1.0,18.0,16.0,17.0,7.0,-2.0,1651069792656415.0,2
918,-4.0,-11.0,-3.0,5.0,-23.0,-17.0,-10.0,0.0,1651069792657353.0,2
919,8.0,11.0,11.0,9.0,19.0,-1.0,0.0,2.0,1651069792657353.0,2
920,3.0,4.0,-5.0,-22.0,-22.0,-2.0,5.0,4.0,1651069792671372.0,2
921,-15.0,-19.0,-6.0,-5.0,-19.0,-9.0,-16.0,-25.0,1651069792671372.0,2
922,0.0,-5.0,2.0,8.0,1.0,0.0,1.0,-2.0,1651069792672330.0,2
923,3.0,-3.0,-1.0,-6.0,3.0,-5.0,0.0,3.0,1651069792672330.0,2
924,-3.0,-1.0,-10.0,-9.0,-18.0,-7.0,-3.0,-6.0,1651069792693508.0,2
925,4.0,5.0,2.0,9.0,19.0,3.0,3.0,5.0,1651069792693508.0,2
926,6.0,7.0,-2.0,-9.0,-21.0,-6.0,11.0,21.0,1651069792694508.0,2
927,-4.0,-12.0,-4.0,0.0,3.0,-5.0,-1.0,-5.0,1651069792694508.0,2
928,-10.0,-8.0,-10.0,11.0,4.0,-3.0,0.0,-6.0,1651069792716667.0,2
929,6.0,-3.0,-6.0,-16.0,-17.0,-3.0,2.0,15.0,1651069792716667.0,2
930,-7.0,-8.0,1.0,11.0,-13.0,-4.0,-8.0,-14.0,1651069792717597.0,2
931,5.0,8.0,-3.0,-16.0,6.0,4.0,3.0,12.0,1651069792717597.0,2
932,1.0,3.0,6.0,-3.0,1.0,-6.0,-4.0,-2.0,1651069792731626.0,2
933,-8.0,-1.0,3.0,-8.0,-31.0,-8.0,3.0,-6.0,1651069792731626.0,2
934,6.0,5.0,5.0,8.0,25.0,28.0,7.0,-6.0,1651069792732557.0,2
935,-13.0,-23.0,-6.0,4.0,21.0,8.0,-1.0,2.0,1651069792732557.0,2
936,5.0,2.0,1.0,2.0,7.0,11.0,-6.0,7.0,1651069792754268.0,2
937,2.0,12.0,0.0,-5.0,9.0,-12.0,0.0,5.0,1651069792754268.0,2
938,-6.0,-16.0,-12.0,-2.0,-7.0,-8.0,5.0,7.0,1651069792754268.0,2
939,6.0,36.0,27.0,-1.0,-17.0,-2.0,-8.0,-23.0,1651069792754268.0,2
940,0.0,-39.0,-8.0,6.0,20.0,11.0,13.0,15.0,1651069792776626.0,2
941,7.0,-2.0,9.0,3.0,0.0,7.0,-4.0,6.0,1651069792776626.0,2
942,6.0,1.0,-10.0,-34.0,-2.0,2.0,2.0,0.0,1651069792777557.0,2
943,-10.0,-9.0,-12.0,8.0,-2.0,-8.0,-7.0,1.0,1651069792777557.0,2
944,-7.0,10.0,9.0,-2.0,-18.0,-9.0,-8.0,-6.0,1651069792791672.0,2
945,1.0,-10.0,-9.0,-8.0,11.0,9.0,5.0,-1.0,1651069792791672.0,2
946,-7.0,-6.0,0.0,16.0,-35.0,-19.0,-10.0,-16.0,1651069792791672.0,2
947,13.0,-1.0,1.0,17.0,26.0,17.0,8.0,31.0,1651069792791672.0,2
948,-9.0,10.0,-4.0,-20.0,-22.0,-17.0,-7.0,-10.0,1651069792813613.0,2
949,-1.0,5.0,-4.0,-5.0,-16.0,-2.0,-3.0,-9.0,1651069792813613.0,2
950,-7.0,-19.0,-10.0,-12.0,18.0,7.0,-5.0,-5.0,1651069792814611.0,2
951,-3.0,-4.0,4.0,6.0,-9.0,5.0,12.0,-2.0,1651069792814611.0,2
952,2.0,-1.0,-1.0,10.0,7.0,-4.0,-8.0,2.0,1651069792836436.0,2
953,4.0,9.0,5.0,2.0,1.0,5.0,1.0,-3.0,1651069792836436.0,2
954,7.0,2.0,-6.0,-1.0,-18.0,-12.0,1.0,7.0,1651069792837366.0,2
955,-3.0,7.0,3.0,-10.0,-5.0,5.0,-1.0,-5.0,1651069792837366.0,2
956,-4.0,-5.0,2.0,16.0,33.0,16.0,5.0,-4.0,1651069792851648.0,2
957,-10.0,-1.0,-6.0,7.0,7.0,-1.0,-10.0,-17.0,1651069792851648.0,2
958,2.0,7.0,9.0,-18.0,0.0,-4.0,6.0,6.0,1651069792852561.0,2
959,10.0,-1.0,-10.0,9.0,-1.0,-2.0,1.0,-2.0,1651069792852561.0,2
960,-9.0,3.0,2.0,-6.0,-24.0,-10.0,-5.0,-14.0,1651069792883003.0,2
961,-3.0,-11.0,-1.0,5.0,-1.0,-1.0,0.0,10.0,1651069792883003.0,2
962,-3.0,0.0,2.0,8.0,15.0,6.0,-6.0,-17.0,1651069792883003.0,2
963,1.0,6.0,1.0,-1.0,20.0,2.0,-1.0,0.0,1651069792883003.0,2
964,12.0,6.0,2.0,-10.0,24.0,15.0,10.0,23.0,1651069792896132.0,2
965,-4.0,-8.0,-4.0,4.0,-6.0,-8.0,-4.0,-2.0,1651069792896132.0,2
966,0.0,4.0,10.0,7.0,8.0,5.0,2.0,1.0,1651069792897064.0,2
967,-3.0,4.0,1.0,-8.0,-7.0,-3.0,1.0,-6.0,1651069792897064.0,2
968,1.0,-10.0,-9.0,8.0,-5.0,-1.0,0.0,5.0,1651069792911176.0,2
969,1.0,3.0,11.0,-4.0,-4.0,-6.0,-2.0,3.0,1651069792911176.0,2
970,-4.0,-6.0,-11.0,-6.0,-12.0,-9.0,-5.0,1.0,1651069792919220.0,2
971,-3.0,-3.0,-2.0,3.0,0.0,-3.0,-6.0,-10.0,1651069792919220.0,2
972,1.0,1.0,-3.0,-22.0,-25.0,-6.0,-3.0,3.0,1651069792934181.0,2
973,-4.0,7.0,11.0,23.0,41.0,13.0,-4.0,2.0,1651069792934181.0,2
974,1.0,9.0,4.0,-1.0,3.0,9.0,10.0,-2.0,1651069792935113.0,2
975,2.0,-22.0,-8.0,-13.0,-24.0,-5.0,-2.0,-11.0,1651069792935113.0,2
976,-4.0,-3.0,2.0,2.0,6.0,2.0,-7.0,0.0,1651069792956216.0,2
977,-1.0,-3.0,-10.0,-9.0,21.0,1.0,-2.0,-3.0,1651069792956216.0,2
978,0.0,-2.0,5.0,5.0,2.0,-4.0,1.0,-3.0,1651069792957157.0,2
979,-1.0,5.0,1.0,23.0,4.0,2.0,7.0,23.0,1651069792957157.0,2
980,7.0,5.0,-14.0,-20.0,-17.0,3.0,-3.0,2.0,1651069792971196.0,2
981,-3.0,4.0,6.0,2.0,13.0,7.0,-6.0,-19.0,1651069792971196.0,2
982,-4.0,5.0,3.0,-4.0,-11.0,-4.0,4.0,7.0,1651069792979257.0,2
983,-3.0,0.0,-2.0,0.0,8.0,-7.0,-5.0,-9.0,1651069792979257.0,2
984,1.0,-14.0,5.0,11.0,1.0,12.0,10.0,8.0,1651069792994292.0,2
985,-2.0,0.0,-10.0,-16.0,-21.0,-8.0,-2.0,-2.0,1651069792994292.0,2
986,0.0,-1.0,-3.0,7.0,26.0,7.0,-7.0,-2.0,1651069792994292.0,2
987,-6.0,6.0,-3.0,-1.0,-10.0,-11.0,-7.0,-22.0,1651069792994292.0,2
988,-1.0,-3.0,0.0,5.0,15.0,0.0,0.0,18.0,1651069793016753.0,2
989,11.0,6.0,0.0,-1.0,-4.0,1.0,11.0,7.0,1651069793016753.0,2
990,-2.0,-11.0,2.0,9.0,15.0,25.0,11.0,4.0,1651069793016753.0,2
991,-3.0,2.0,-2.0,-7.0,-7.0,-8.0,-8.0,-4.0,1651069793016753.0,2
992,2.0,6.0,6.0,-11.0,16.0,-2.0,2.0,-12.0,1651069793030729.0,2
993,-3.0,-6.0,-11.0,-2.0,-30.0,-13.0,-6.0,8.0,1651069793030729.0,2
994,-2.0,-19.0,-8.0,-3.0,9.0,-10.0,-10.0,3.0,1651069793039351.0,2
995,-4.0,-15.0,-7.0,3.0,10.0,10.0,-4.0,-7.0,1651069793039351.0,2
996,1.0,6.0,10.0,23.0,-2.0,9.0,11.0,0.0,1651069793053385.0,2
997,0.0,-3.0,4.0,-8.0,-19.0,-15.0,-4.0,3.0,1651069793053385.0,2
998,2.0,6.0,2.0,-8.0,-13.0,-3.0,3.0,11.0,1651069793054312.0,2
999,7.0,-3.0,-2.0,13.0,54.0,35.0,9.0,10.0,1651069793054312.0,2
1000,-10.0,1.0,0.0,1.0,-13.0,-15.0,-10.0,-18.0,1651069793076385.0,2
1001,-1.0,3.0,0.0,1.0,0.0,0.0,4.0,-3.0,1651069793076385.0,2
1002,-1.0,2.0,1.0,-4.0,-9.0,-3.0,-7.0,-5.0,1651069793077316.0,2
1003,1.0,-4.0,-3.0,-3.0,-22.0,-11.0,1.0,13.0,1651069793077316.0,2
1004,3.0,12.0,0.0,9.0,16.0,4.0,6.0,0.0,1651069793091117.0,2
1005,-2.0,-8.0,-5.0,-6.0,11.0,8.0,4.0,1.0,1651069793091117.0,2
1006,-9.0,-1.0,0.0,2.0,-19.0,-21.0,-8.0,-18.0,1651069793099347.0,2
1007,12.0,6.0,2.0,-1.0,-3.0,5.0,5.0,12.0,1651069793099347.0,2
1008,0.0,6.0,-1.0,-14.0,-4.0,3.0,-3.0,4.0,1651069793114268.0,2
1009,1.0,0.0,1.0,11.0,38.0,7.0,-3.0,-11.0,1651069793114268.0,2
1010,5.0,0.0,0.0,31.0,-2.0,-12.0,-6.0,5.0,1651069793114401.0,2
1011,-7.0,-1.0,0.0,-27.0,-20.0,8.0,13.0,0.0,1651069793114401.0,2
1012,1.0,-4.0,2.0,-2.0,-5.0,-5.0,-11.0,-3.0,1651069793136363.0,2
1013,2.0,-1.0,0.0,10.0,-9.0,3.0,14.0,11.0,1651069793136363.0,2
1014,5.0,8.0,-2.0,-8.0,1.0,-4.0,0.0,-1.0,1651069793137293.0,2
1015,-10.0,-15.0,-2.0,-4.0,-14.0,-16.0,-11.0,-10.0,1651069793137293.0,2
1016,4.0,-1.0,3.0,12.0,12.0,8.0,5.0,13.0,1651069793150258.0,2
1017,0.0,-6.0,-6.0,-5.0,-2.0,-7.0,-2.0,-4.0,1651069793150258.0,2
1018,-1.0,-5.0,-9.0,-7.0,8.0,7.0,-4.0,1.0,1651069793159244.0,2
1019,-1.0,7.0,0.0,9.0,-31.0,-11.0,-6.0,-6.0,1651069793159244.0,2
1020,-4.0,0.0,9.0,-6.0,16.0,11.0,5.0,-7.0,1651069793174261.0,2
1021,6.0,8.0,9.0,-4.0,-6.0,2.0,7.0,24.0,1651069793174261.0,2
1022,3.0,0.0,-5.0,24.0,24.0,12.0,0.0,-10.0,1651069793174261.0,2
1023,-10.0,9.0,8.0,-9.0,-6.0,-10.0,-3.0,-7.0,1651069793174261.0,2
1024,4.0,1.0,-12.0,-1.0,-8.0,-13.0,-11.0,-1.0,1651069793196203.0,2
1025,8.0,5.0,1.0,3.0,11.0,30.0,11.0,21.0,1651069793196203.0,2
1026,-8.0,-11.0,2.0,2.0,-18.0,-9.0,0.0,-7.0,1651069793197134.0,2
1027,4.0,16.0,5.0,-2.0,17.0,-8.0,-6.0,4.0,1651069793197134.0,2
1028,4.0,6.0,6.0,1.0,4.0,14.0,4.0,-3.0,1651069793211095.0,2
1029,-5.0,3.0,-4.0,-16.0,-14.0,-17.0,-13.0,-23.0,1651069793211095.0,2
1030,1.0,-4.0,0.0,-11.0,-10.0,1.0,2.0,23.0,1651069793219140.0,2
1031,-4.0,-11.0,-4.0,7.0,6.0,3.0,2.0,-8.0,1651069793219140.0,2
1032,0.0,4.0,4.0,8.0,-15.0,-5.0,3.0,3.0,1651069793234267.0,2
1033,-8.0,-6.0,-5.0,-10.0,2.0,-8.0,-8.0,-9.0,1651069793234267.0,2
1034,5.0,5.0,1.0,-14.0,-4.0,-5.0,-1.0,-8.0,1651069793234267.0,2
1035,0.0,0.0,-3.0,13.0,6.0,2.0,0.0,8.0,1651069793234267.0,2
1036,-2.0,-10.0,0.0,1.0,-6.0,-7.0,-2.0,-1.0,1651069793256573.0,2
1037,-7.0,4.0,5.0,5.0,-24.0,-6.0,-5.0,-15.0,1651069793256573.0,2
1038,-6.0,-5.0,-4.0,-6.0,17.0,-4.0,0.0,3.0,1651069793257529.0,2
1039,22.0,22.0,5.0,5.0,12.0,16.0,10.0,12.0,1651069793257529.0,2
1040,-9.0,-3.0,-6.0,-10.0,7.0,-10.0,-8.0,-8.0,1651069793270500.0,2
1041,0.0,-3.0,2.0,2.0,-13.0,1.0,4.0,1.0,1651069793270500.0,2
1042,-4.0,5.0,-7.0,-5.0,4.0,2.0,-5.0,-4.0,1651069793278510.0,2
1043,0.0,-10.0,3.0,-2.0,2.0,4.0,-2.0,0.0,1651069793278510.0,2
1044,-5.0,-8.0,0.0,5.0,-4.0,-6.0,3.0,-11.0,1651069793294242.0,2
1045,5.0,2.0,-1.0,-8.0,5.0,-3.0,2.0,16.0,1651069793294242.0,2
1046,1.0,13.0,7.0,6.0,5.0,15.0,1.0,-8.0,1651069793294545.0,2
1047,-1.0,-13.0,-4.0,5.0,18.0,6.0,3.0,-1.0,1651069793294545.0,2
1048,-1.0,1.0,2.0,-4.0,-10.0,-1.0,-2.0,2.0,1651069793316827.0,2
1049,8.0,-1.0,-1.0,5.0,16.0,1.0,0.0,13.0,1651069793316827.0,2
1050,-6.0,-4.0,-7.0,0.0,-10.0,-1.0,-2.0,-11.0,1651069793316827.0,2
1051,-2.0,1.0,6.0,-7.0,-5.0,0.0,0.0,0.0,1651069793316827.0,2
1052,3.0,2.0,-4.0,1.0,1.0,-4.0,-1.0,-5.0,1651069793339592.0,2
1053,-3.0,-3.0,2.0,0.0,-5.0,-1.0,1.0,1.0,1651069793339592.0,2
1054,2.0,4.0,2.0,-9.0,-5.0,0.0,1.0,5.0,1651069793340520.0,2
1055,-2.0,0.0,-3.0,-5.0,-6.0,-9.0,-7.0,-4.0,1651069793340520.0,2
1056,-3.0,-6.0,1.0,2.0,-9.0,2.0,-2.0,2.0,1651069793354268.0,2
1057,-1.0,1.0,0.0,6.0,4.0,2.0,3.0,-5.0,1651069793354268.0,2
1058,-1.0,-3.0,-3.0,-7.0,-7.0,0.0,1.0,1.0,1651069793354268.0,2
1059,-6.0,-3.0,-3.0,-8.0,-12.0,-9.0,-1.0,-1.0,1651069793354268.0,2
1060,2.0,2.0,-5.0,-1.0,3.0,0.0,-7.0,-5.0,1651069793376338.0,2
1061,-5.0,-1.0,0.0,1.0,2.0,-1.0,1.0,-1.0,1651069793376338.0,2
1062,3.0,3.0,7.0,5.0,1.0,-1.0,1.0,1.0,1651069793377336.0,2
1063,2.0,-2.0,-4.0,-8.0,-4.0,-3.0,-4.0,-3.0,1651069793377336.0,2
1064,-1.0,-3.0,-17.0,-7.0,-3.0,-1.0,-1.0,1.0,1651069793399380.0,2
1065,0.0,-1.0,9.0,11.0,2.0,-4.0,-3.0,-6.0,1651069793399380.0,2
1066,10.0,13.0,0.0,-1.0,-2.0,3.0,2.0,1.0,1651069793400361.0,2
1067,-29.0,-29.0,20.0,10.0,-5.0,-1.0,-7.0,-7.0,1651069793400361.0,2
1068,15.0,11.0,-22.0,-9.0,3.0,1.0,9.0,7.0,1651069793414313.0,2
1069,-21.0,-16.0,-2.0,0.0,-13.0,-6.0,-4.0,-6.0,1651069793414313.0,2
1070,3.0,-1.0,-14.0,-18.0,-2.0,-2.0,-1.0,1.0,1651069793414313.0,2
1071,4.0,8.0,3.0,4.0,0.0,1.0,-2.0,-2.0,1651069793414313.0,2
1072,-4.0,-13.0,8.0,18.0,8.0,0.0,-3.0,-1.0,1651069793436492.0,2
1073,10.0,33.0,-1.0,4.0,3.0,2.0,0.0,-2.0,1651069793436492.0,2
1074,-6.0,-20.0,-6.0,7.0,4.0,3.0,3.0,4.0,1651069793437449.0,2
1075,-5.0,-15.0,-18.0,-7.0,-2.0,-3.0,1.0,3.0,1651069793437449.0,2
1076,3.0,2.0,3.0,-46.0,-27.0,-8.0,-6.0,-4.0,1651069793459394.0,2
1077,0.0,-9.0,-10.0,11.0,-4.0,-1.0,-3.0,0.0,1651069793459394.0,2
1078,-3.0,7.0,3.0,-8.0,-5.0,-2.0,-2.0,-1.0,1651069793460360.0,2
1079,-2.0,2.0,-8.0,-2.0,13.0,4.0,2.0,-1.0,1651069793460360.0,2
1080,11.0,1.0,9.0,-7.0,-15.0,-5.0,-6.0,-6.0,1651069793474322.0,2
1081,-10.0,-20.0,-18.0,-1.0,-5.0,-3.0,5.0,5.0,1651069793474322.0,2
1082,2.0,0.0,-9.0,-8.0,6.0,1.0,-1.0,-1.0,1651069793474322.0,2
1083,6.0,13.0,40.0,4.0,-6.0,1.0,2.0,5.0,1651069793474322.0,2
1084,-1.0,-5.0,-19.0,-14.0,5.0,1.0,-1.0,-3.0,1651069793496332.0,2
1085,10.0,-3.0,-14.0,-19.0,-3.0,2.0,2.0,2.0,1651069793496332.0,2
1086,-7.0,9.0,47.0,30.0,7.0,-4.0,-3.0,-3.0,1651069793497262.0,2
1087,5.0,2.0,-14.0,30.0,8.0,2.0,1.0,2.0,1651069793497262.0,2
1088,-1.0,2.0,18.0,17.0,-11.0,-3.0,3.0,1.0,1651069793519858.0,2
1089,10.0,5.0,10.0,-10.0,8.0,0.0,0.0,1.0,1651069793519858.0,2
1090,-11.0,-10.0,-49.0,-14.0,-1.0,-2.0,-3.0,-2.0,1651069793520857.0,2
1091,7.0,14.0,12.0,-16.0,-12.0,-4.0,0.0,1.0,1651069793520857.0,2
1092,-7.0,1.0,31.0,25.0,27.0,8.0,2.0,1.0,1651069793533831.0,2
1093,2.0,-9.0,-19.0,4.0,-21.0,-10.0,-4.0,-4.0,1651069793533831.0,2
1094,12.0,6.0,22.0,-8.0,5.0,5.0,0.0,3.0,1651069793534820.0,2
1095,-17.0,7.0,-1.0,30.0,20.0,-6.0,-13.0,-12.0,1651069793534820.0,2
1096,4.0,3.0,-29.0,-49.0,-24.0,-4.0,7.0,9.0,1651069793556232.0,2
1097,4.0,13.0,17.0,3.0,9.0,1.0,0.0,-3.0,1651069793556232.0,2
1098,-3.0,-14.0,-4.0,-22.0,-12.0,-3.0,1.0,-1.0,1651069793557163.0,2
1099,12.0,-3.0,-6.0,-1.0,-5.0,1.0,2.0,4.0,1651069793557163.0,2
1100,1.0,10.0,24.0,42.0,20.0,9.0,1.0,3.0,1651069793579171.0,2
1101,6.0,3.0,-14.0,-30.0,7.0,2.0,-4.0,-5.0,1651069793579171.0,2
1102,-6.0,1.0,-6.0,19.0,-9.0,-8.0,-3.0,-5.0,1651069793579171.0,2
1103,5.0,-1.0,6.0,-5.0,-9.0,-3.0,2.0,2.0,1651069793579171.0,2
1104,-15.0,-3.0,-12.0,12.0,6.0,-1.0,-3.0,-4.0,1651069793593411.0,2
1105,14.0,2.0,28.0,16.0,-3.0,-1.0,-1.0,2.0,1651069793593411.0,2
1106,-20.0,-13.0,-7.0,-36.0,-12.0,1.0,-5.0,0.0,1651069793594411.0,2
1107,2.0,14.0,-20.0,45.0,10.0,4.0,4.0,3.0,1651069793594411.0,2
1108,-1.0,8.0,6.0,5.0,-5.0,-5.0,-2.0,-3.0,1651069793616796.0,2
1109,-19.0,-22.0,-3.0,11.0,0.0,0.0,-1.0,-2.0,1651069793616796.0,2
1110,6.0,8.0,6.0,-7.0,7.0,0.0,1.0,1.0,1651069793616796.0,2
1111,12.0,0.0,12.0,20.0,1.0,0.0,0.0,0.0,1651069793616796.0,2
1112,-11.0,-13.0,-37.0,22.0,-3.0,0.0,0.0,-1.0,1651069793639718.0,2
1113,-5.0,12.0,18.0,-12.0,11.0,3.0,-1.0,-1.0,1651069793639718.0,2
1114,3.0,-2.0,-9.0,8.0,-12.0,-4.0,-1.0,-3.0,1651069793640647.0,2
1115,3.0,2.0,-8.0,-54.0,-14.0,-3.0,0.0,1.0,1651069793640647.0,2
1116,0.0,1.0,11.0,18.0,6.0,2.0,-1.0,-2.0,1651069793654233.0,2
1117,-1.0,-6.0,-4.0,11.0,0.0,-1.0,-2.0,-3.0,1651069793654233.0,2
1118,8.0,4.0,-5.0,19.0,10.0,5.0,5.0,4.0,1651069793654694.0,2
1119,-10.0,-5.0,-20.0,-17.0,-15.0,-6.0,-1.0,-3.0,1651069793654694.0,2
1120,4.0,-1.0,26.0,30.0,21.0,10.0,1.0,2.0,1651069793676138.0,2
1121,-3.0,-3.0,1.0,-14.0,-10.0,-4.0,-3.0,-1.0,1651069793676138.0,2
1122,0.0,2.0,3.0,-5.0,3.0,-1.0,-2.0,-1.0,1651069793677135.0,2
1123,0.0,-10.0,-13.0,-50.0,-12.0,-3.0,0.0,-1.0,1651069793677135.0,2
1124,3.0,2.0,14.0,25.0,6.0,-2.0,0.0,0.0,1651069793699178.0,2
1125,-4.0,0.0,-5.0,3.0,4.0,1.0,0.0,-1.0,1651069793699178.0,2
1126,-1.0,-4.0,-8.0,-21.0,-10.0,-3.0,0.0,-1.0,1651069793706220.0,2
1127,0.0,-4.0,-7.0,8.0,3.0,1.0,-2.0,0.0,1651069793706220.0,2
1128,0.0,-1.0,5.0,-29.0,-9.0,-6.0,-2.0,-1.0,1651069793713940.0,2
1129,-5.0,-7.0,-11.0,-3.0,-7.0,-2.0,1.0,-2.0,1651069793713940.0,2
1130,4.0,10.0,28.0,30.0,15.0,4.0,-1.0,2.0,1651069793714939.0,2
1131,0.0,-3.0,-4.0,-1.0,-4.0,-2.0,-2.0,-1.0,1651069793714939.0,2
1132,-3.0,-3.0,-29.0,-27.0,-4.0,0.0,0.0,0.0,1651069793736119.0,2
1133,-3.0,2.0,12.0,26.0,7.0,-1.0,-2.0,0.0,1651069793736119.0,2
1134,0.0,-1.0,6.0,-1.0,-3.0,-1.0,0.0,0.0,1651069793737049.0,2
1135,1.0,2.0,25.0,-3.0,-1.0,0.0,-1.0,0.0,1651069793737049.0,2
1136,1.0,0.0,-4.0,-27.0,-8.0,-2.0,0.0,-1.0,1651069793758753.0,2
1137,1.0,2.0,17.0,22.0,5.0,1.0,0.0,-1.0,1651069793758753.0,2
1138,2.0,-3.0,-5.0,15.0,1.0,-2.0,0.0,0.0,1651069793759701.0,2
1139,-4.0,-2.0,1.0,-7.0,-2.0,0.0,-2.0,-1.0,1651069793759701.0,2
1140,1.0,-1.0,19.0,-8.0,-6.0,-1.0,-1.0,-1.0,1651069793774291.0,2
1141,1.0,4.0,-3.0,2.0,2.0,1.0,0.0,2.0,1651069793774291.0,2
1142,0.0,-3.0,-7.0,13.0,0.0,-1.0,0.0,0.0,1651069793774987.0,2
1143,-1.0,0.0,8.0,-4.0,0.0,0.0,-1.0,-1.0,1651069793774987.0,2
1144,0.0,-3.0,-3.0,-4.0,-3.0,-1.0,1.0,-1.0,1651069793796441.0,2
1145,0.0,0.0,-20.0,-13.0,-3.0,0.0,-3.0,0.0,1651069793796441.0,2
1146,-1.0,2.0,19.0,0.0,-3.0,-1.0,0.0,0.0,1651069793797372.0,2
1147,0.0,-4.0,-17.0,7.0,6.0,0.0,0.0,-1.0,1651069793797372.0,2
1148,1.0,1.0,-2.0,-17.0,-4.0,-3.0,1.0,0.0,1651069793818408.0,2
1149,-2.0,-2.0,-4.0,28.0,3.0,0.0,-1.0,-2.0,1651069793818408.0,2
1150,0.0,-4.0,-15.0,-12.0,-1.0,2.0,1.0,1.0,1651069793819403.0,2
1151,0.0,-4.0,-26.0,-7.0,-1.0,0.0,2.0,0.0,1651069793819403.0,2
1152,-2.0,-3.0,-8.0,-6.0,-2.0,0.0,-1.0,0.0,1651069793833425.0,2
1153,0.0,-2.0,-1.0,-4.0,-4.0,1.0,1.0,-1.0,1651069793833425.0,2
1154,1.0,4.0,21.0,4.0,-1.0,-3.0,-2.0,-1.0,1651069793834364.0,2
1155,-1.0,-1.0,-9.0,-10.0,-5.0,-1.0,-1.0,1.0,1651069793834364.0,2
1156,-2.0,-1.0,24.0,30.0,11.0,1.0,-2.0,-2.0,1651069793856769.0,2
1157,2.0,2.0,-8.0,-30.0,-7.0,-1.0,0.0,-1.0,1651069793856769.0,2
1158,-1.0,-7.0,-21.0,3.0,2.0,1.0,-1.0,-2.0,1651069793856769.0,2
1159,-2.0,-1.0,-7.0,-13.0,-7.0,-2.0,1.0,-1.0,1651069793856769.0,2
1160,-1.0,1.0,6.0,3.0,1.0,-2.0,-1.0,0.0,1651069793879368.0,2
1161,0.0,1.0,3.0,7.0,3.0,0.0,-1.0,0.0,1651069793879368.0,2
1162,-2.0,-1.0,-2.0,-1.0,-2.0,0.0,1.0,1.0,1651069793879368.0,2
1163,-2.0,0.0,15.0,6.0,2.0,-1.0,0.0,-2.0,1651069793879368.0,2
1164,1.0,-2.0,-28.0,-8.0,0.0,-2.0,-1.0,1.0,1651069793893410.0,2
1165,0.0,-1.0,-5.0,-5.0,-2.0,-2.0,-2.0,-2.0,1651069793893410.0,2
1166,0.0,-1.0,-8.0,-11.0,-9.0,-2.0,0.0,1.0,1651069793894406.0,2
1167,0.0,-1.0,-19.0,10.0,8.0,1.0,1.0,-1.0,1651069793894406.0,2
1168,-1.0,1.0,4.0,4.0,-2.0,-1.0,-1.0,-1.0,1651069793916572.0,2
1169,-1.0,-2.0,-16.0,-11.0,-4.0,-4.0,-2.0,-1.0,1651069793916572.0,2
1170,1.0,-1.0,-1.0,-3.0,0.0,-2.0,-1.0,-1.0,1651069793917509.0,2
1171,1.0,0.0,2.0,-7.0,-2.0,1.0,2.0,1.0,1651069793917509.0,2
1172,-1.0,0.0,19.0,-2.0,-3.0,0.0,0.0,0.0,1651069793940025.0,2
1173,0.0,-1.0,-3.0,11.0,7.0,0.0,1.0,0.0,1651069793940025.0,2
1174,1.0,3.0,15.0,3.0,-1.0,-1.0,-1.0,-1.0,1651069793940025.0,2
1175,0.0,-1.0,1.0,5.0,-1.0,-1.0,-1.0,-1.0,1651069793940025.0,2
1176,1.0,-3.0,-24.0,-14.0,-3.0,1.0,1.0,0.0,1651069793953591.0,2
1177,0.0,0.0,4.0,-8.0,-5.0,2.0,1.0,1.0,1651069793953591.0,2
1178,-1.0,1.0,-4.0,-5.0,0.0,-2.0,-1.0,-1.0,1651069793961024.0,2
1179,-1.0,-1.0,25.0,9.0,-2.0,-3.0,-1.0,0.0,1651069793961024.0,2
1180,-1.0,-3.0,-13.0,2.0,0.0,-2.0,-1.0,-1.0,1651069793976293.0,2
1181,0.0,0.0,6.0,0.0,-1.0,-1.0,1.0,-1.0,1651069793976293.0,2
1182,0.0,-2.0,-5.0,3.0,1.0,0.0,-3.0,0.0,1651069793977224.0,2
1183,1.0,4.0,12.0,8.0,2.0,0.0,-1.0,2.0,1651069793977224.0,2
1184,-2.0,-4.0,-13.0,-14.0,-7.0,-2.0,-3.0,-1.0,1651069793999328.0,2
1185,1.0,-2.0,-3.0,8.0,5.0,2.0,4.0,2.0,1651069793999328.0,2
1186,-2.0,-2.0,6.0,4.0,-2.0,-2.0,0.0,-1.0,1651069794000325.0,2
1187,1.0,0.0,0.0,-6.0,-2.0,-1.0,-1.0,0.0,1651069794000325.0,2
1188,0.0,-4.0,-1.0,5.0,0.0,-2.0,-2.0,0.0,1651069794013359.0,2
1189,0.0,2.0,18.0,-11.0,-1.0,1.0,-1.0,0.0,1651069794013359.0,2
1190,0.0,-1.0,-15.0,-2.0,1.0,0.0,2.0,-1.0,1651069794021683.0,2
1191,-1.0,3.0,20.0,4.0,1.0,-1.0,-2.0,-1.0,1651069794021683.0,2
1192,0.0,-1.0,1.0,8.0,0.0,-1.0,1.0,0.0,1651069794036712.0,2
1193,-2.0,-3.0,-6.0,-1.0,-2.0,-1.0,-1.0,0.0,1651069794036712.0,2
1194,0.0,1.0,0.0,1.0,5.0,1.0,0.0,0.0,1651069794037657.0,2
1195,-2.0,-3.0,-5.0,-8.0,-4.0,-1.0,-1.0,0.0,1651069794037657.0,2
1196,0.0,0.0,0.0,3.0,0.0,2.0,1.0,-2.0,1651069794058812.0,2
1197,-1.0,0.0,4.0,-3.0,-4.0,1.0,0.0,-1.0,1651069794058812.0,2
1198,-1.0,0.0,-1.0,-1.0,-2.0,-1.0,-1.0,-1.0,1651069794059746.0,2
1199,0.0,-4.0,-17.0,-7.0,-2.0,-1.0,-1.0,0.0,1651069794059746.0,2
1200,0.0,-1.0,0.0,1.0,-3.0,-3.0,-2.0,-1.0,1651069794073616.0,2
1201,2.0,4.0,-11.0,-26.0,-4.0,4.0,0.0,0.0,1651069794073616.0,2
1202,0.0,-4.0,-7.0,30.0,20.0,6.0,1.0,1.0,1651069794081536.0,2
1203,-1.0,0.0,3.0,8.0,2.0,0.0,1.0,-2.0,1651069794081536.0,2
1204,0.0,2.0,6.0,-4.0,-1.0,-2.0,0.0,1.0,1651069794096581.0,2
1205,0.0,0.0,7.0,-1.0,-5.0,-4.0,0.0,-2.0,1651069794096581.0,2
1206,-1.0,-2.0,-6.0,-14.0,-8.0,-5.0,-2.0,-1.0,1651069794097528.0,2
1207,0.0,0.0,-6.0,-2.0,-3.0,-2.0,-1.0,0.0,1651069794097528.0,2
1208,-1.0,0.0,-3.0,1.0,4.0,0.0,0.0,2.0,1651069794118456.0,2
1209,0.0,0.0,27.0,10.0,3.0,1.0,2.0,1.0,1651069794118456.0,2
1210,1.0,-1.0,-7.0,-8.0,-11.0,-7.0,-2.0,-2.0,1651069794119464.0,2
1211,1.0,4.0,16.0,14.0,12.0,4.0,0.0,-1.0,1651069794119464.0,2
1212,0.0,1.0,-1.0,-12.0,0.0,4.0,1.0,0.0,1651069794133428.0,2
1213,-1.0,-2.0,-1.0,16.0,5.0,-2.0,-1.0,-1.0,1651069794133428.0,2
1214,-1.0,0.0,3.0,-4.0,-3.0,-1.0,1.0,1.0,1651069794141812.0,2
1215,-1.0,-2.0,0.0,-5.0,-8.0,-3.0,-2.0,-1.0,1651069794141812.0,2
1216,-1.0,0.0,-1.0,0.0,-1.0,-1.0,-3.0,-3.0,1651069794156423.0,2
1217,0.0,-2.0,-7.0,-3.0,1.0,0.0,-2.0,-1.0,1651069794156423.0,2
1218,-2.0,-1.0,2.0,0.0,-2.0,0.0,0.0,-1.0,1651069794157354.0,2
1219,0.0,-1.0,5.0,0.0,-2.0,-1.0,0.0,-1.0,1651069794157354.0,2
1220,-1.0,-2.0,-7.0,-2.0,1.0,0.0,1.0,-1.0,1651069794179351.0,2
1221,-1.0,-1.0,-11.0,-1.0,-2.0,-4.0,2.0,1.0,1651069794179351.0,2
1222,2.0,1.0,12.0,5.0,13.0,12.0,2.0,0.0,1651069794179351.0,2
1223,-2.0,-1.0,-4.0,-8.0,-8.0,-4.0,0.0,0.0,1651069794179351.0,2
1224,-1.0,1.0,10.0,17.0,6.0,0.0,1.0,-2.0,1651069794193503.0,2
1225,1.0,-1.0,-5.0,-6.0,-3.0,-6.0,-3.0,-2.0,1651069794193503.0,2
1226,-1.0,0.0,3.0,-2.0,-5.0,-3.0,-2.0,0.0,1651069794201672.0,2
1227,0.0,-1.0,-7.0,-8.0,-1.0,0.0,1.0,0.0,1651069794201672.0,2
1228,0.0,1.0,-1.0,-2.0,-1.0,-1.0,-1.0,0.0,1651069794216633.0,2
1229,-1.0,-1.0,-16.0,1.0,0.0,0.0,-2.0,-1.0,1651069794216633.0,2
1230,1.0,1.0,6.0,-6.0,-2.0,-2.0,-1.0,0.0,1651069794217564.0,2
1231,0.0,0.0,14.0,3.0,-7.0,-1.0,0.0,-1.0,1651069794217564.0,2
1232,-1.0,1.0,6.0,13.0,10.0,0.0,-3.0,1.0,1651069794239281.0,2
1233,-2.0,-2.0,-10.0,-24.0,-1.0,3.0,1.0,-1.0,1651069794239281.0,2
1234,0.0,0.0,14.0,30.0,6.0,1.0,0.0,-1.0,1651069794239281.0,2
1235,-1.0,-2.0,-11.0,-6.0,-1.0,-1.0,-1.0,-2.0,1651069794239281.0,2
1236,0.0,-2.0,4.0,-3.0,-7.0,-3.0,0.0,-1.0,1651069794253434.0,2
1237,-2.0,-1.0,3.0,-4.0,-5.0,-1.0,0.0,-1.0,1651069794253434.0,2
1238,2.0,0.0,-9.0,-11.0,-5.0,-3.0,0.0,-1.0,1651069794261313.0,2
1239,-2.0,0.0,-7.0,-4.0,0.0,-3.0,-2.0,0.0,1651069794261313.0,2
1240,-1.0,-1.0,-9.0,-2.0,-5.0,-3.0,-1.0,-1.0,1651069794276317.0,2
1241,1.0,1.0,1.0,1.0,1.0,0.0,0.0,2.0,1651069794276317.0,2
1242,-2.0,-2.0,0.0,-5.0,-3.0,-2.0,0.0,-1.0,1651069794277248.0,2
1243,-2.0,-1.0,-4.0,0.0,2.0,0.0,0.0,-1.0,1651069794277248.0,2
1244,0.0,0.0,6.0,-12.0,-2.0,1.0,-2.0,1.0,1651069794299257.0,2
1245,1.0,0.0,3.0,12.0,2.0,0.0,-2.0,-2.0,1651069794299257.0,2
1246,0.0,1.0,-2.0,-5.0,-3.0,-5.0,-3.0,0.0,1651069794299257.0,2
1247,1.0,-1.0,2.0,2.0,2.0,0.0,0.0,0.0,1651069794299257.0,2
1248,1.0,0.0,-4.0,-1.0,0.0,5.0,3.0,2.0,1651069794321683.0,2
1249,-1.0,0.0,-3.0,-3.0,-2.0,-2.0,-2.0,0.0,1651069794321683.0,2
1250,-1.0,1.0,11.0,4.0,-2.0,-2.0,-3.0,-1.0,1651069794322683.0,2
1251,-1.0,-2.0,-8.0,-3.0,-1.0,-2.0,-2.0,-1.0,1651069794322683.0,0
1252,0.0,-2.0,-5.0,-4.0,-3.0,-1.0,-2.0,-2.0,1651069794336870.0,0
1253,-2.0,-1.0,9.0,14.0,-1.0,-1.0,0.0,-1.0,1651069794336870.0,0
1254,-2.0,0.0,-8.0,-10.0,-5.0,-2.0,0.0,-1.0,1651069794336870.0,0
1255,0.0,-1.0,2.0,6.0,11.0,3.0,-2.0,0.0,1651069794336870.0,0
1256,0.0,1.0,2.0,1.0,-1.0,3.0,4.0,1.0,1651069794358824.0,0
1257,-1.0,-2.0,-3.0,0.0,1.0,1.0,0.0,0.0,1651069794358824.0,0
1258,-1.0,-3.0,1.0,-4.0,-4.0,-2.0,-1.0,-1.0,1651069794359754.0,0
1259,-1.0,-1.0,-20.0,-6.0,-4.0,-1.0,-1.0,0.0,1651069794359754.0,0
1260,-2.0,0.0,-2.0,-9.0,1.0,-3.0,-2.0,-1.0,1651069794382454.0,0
1261,1.0,-1.0,-2.0,12.0,5.0,4.0,0.0,-1.0,1651069794382454.0,0
1262,-2.0,-2.0,-16.0,-12.0,-4.0,-1.0,-1.0,0.0,1651069794382454.0,0
1263,1.0,-1.0,2.0,-2.0,0.0,2.0,3.0,0.0,1651069794382454.0,0
1264,-1.0,2.0,9.0,12.0,0.0,1.0,-3.0,-3.0,1651069794396079.0,0
1265,-2.0,-1.0,-4.0,-13.0,-6.0,-4.0,-1.0,0.0,1651069794396079.0,0
1266,-2.0,0.0,-4.0,0.0,1.0,1.0,-1.0,0.0,1651069794396886.0,0
1267,-1.0,-2.0,8.0,4.0,-2.0,-1.0,-1.0,-1.0,1651069794396886.0,0
1268,-1.0,-1.0,-4.0,2.0,-1.0,-3.0,-2.0,0.0,1651069794419219.0,0
1269,1.0,0.0,5.0,-4.0,-4.0,-2.0,-2.0,-2.0,1651069794419219.0,0
1270,1.0,-1.0,-3.0,8.0,3.0,1.0,1.0,-1.0,1651069794419219.0,0
1271,0.0,-2.0,-1.0,-3.0,-2.0,-2.0,0.0,-2.0,1651069794419219.0,0
1272,1.0,-1.0,-6.0,-3.0,-4.0,-2.0,1.0,0.0,1651069794442345.0,0
1273,0.0,-1.0,2.0,3.0,5.0,1.0,0.0,-1.0,1651069794442345.0,0
1274,0.0,1.0,1.0,-1.0,-1.0,-1.0,0.0,0.0,1651069794442345.0,0
1275,0.0,-1.0,-5.0,0.0,0.0,1.0,1.0,0.0,1651069794442345.0,0
1276,-1.0,1.0,8.0,2.0,-4.0,-2.0,-1.0,-3.0,1651069794456307.0,0
1277,-2.0,2.0,3.0,0.0,-3.0,0.0,-2.0,-1.0,1651069794456307.0,0
1278,-1.0,-1.0,-1.0,-3.0,-1.0,0.0,0.0,0.0,1651069794457239.0,0
1279,-1.0,1.0,-7.0,-1.0,1.0,0.0,0.0,0.0,1651069794457239.0,0
1280,0.0,-2.0,1.0,0.0,-1.0,-1.0,-2.0,0.0,1651069794479366.0,0
1281,1.0,0.0,-5.0,-5.0,-3.0,-1.0,0.0,1.0,1651069794479366.0,0
1282,2.0,-2.0,3.0,3.0,0.0,3.0,1.0,-1.0,1651069794479366.0,0
1283,-2.0,0.0,3.0,-5.0,4.0,4.0,1.0,-2.0,1651069794479366.0,0
1284,-1.0,-2.0,-1.0,10.0,2.0,-1.0,1.0,-2.0,1651069794502172.0,0
1285,0.0,-1.0,3.0,-4.0,-3.0,0.0,-2.0,-1.0,1651069794502172.0,0
1286,0.0,-1.0,-3.0,-3.0,6.0,0.0,0.0,0.0,1651069794503128.0,0
1287,1.0,0.0,2.0,-4.0,-8.0,-4.0,-2.0,1.0,1651069794503128.0,0
1288,-1.0,0.0,-3.0,2.0,2.0,4.0,2.0,-1.0,1651069794516389.0,0
1289,-2.0,-3.0,-6.0,-2.0,2.0,0.0,2.0,1.0,1651069794516389.0,0
1290,0.0,2.0,4.0,7.0,-3.0,-2.0,-1.0,-2.0,1651069794517387.0,0
1291,0.0,-1.0,-5.0,-8.0,2.0,-1.0,-1.0,-1.0,1651069794517387.0,0
1292,-1.0,0.0,6.0,1.0,-1.0,-4.0,-1.0,1.0,1651069794539563.0,0
1293,-1.0,-1.0,-1.0,-1.0,-4.0,-4.0,0.0,-1.0,1651069794539563.0,0
1294,0.0,-2.0,-3.0,1.0,-2.0,1.0,-2.0,1.0,1651069794540504.0,0
1295,-1.0,0.0,20.0,12.0,3.0,-1.0,0.0,-1.0,1651069794540504.0,0
1296,-1.0,-2.0,-12.0,-19.0,-4.0,-1.0,1.0,-1.0,1651069794561607.0,0
1297,0.0,-2.0,1.0,6.0,3.0,0.0,0.0,-2.0,1651069794561607.0,0
1298,-2.0,-1.0,-3.0,-3.0,-1.0,-1.0,-2.0,-3.0,1651069794562592.0,0
1299,0.0,0.0,-1.0,2.0,-4.0,0.0,-1.0,-1.0,1651069794562592.0,0
1300,0.0,-1.0,3.0,-3.0,-4.0,-5.0,-3.0,-1.0,1651069794576427.0,0
1301,0.0,-6.0,-47.0,-15.0,-3.0,-1.0,1.0,1.0,1651069794576427.0,0
1302,0.0,3.0,28.0,9.0,9.0,8.0,2.0,0.0,1651069794577387.0,0
1303,-1.0,-1.0,-4.0,10.0,11.0,3.0,-2.0,-2.0,1651069794577387.0,0
1304,-2.0,-3.0,-6.0,-5.0,0.0,-3.0,-3.0,-2.0,1651069794598549.0,0
1305,-1.0,1.0,2.0,-1.0,-4.0,-3.0,-3.0,0.0,1651069794598549.0,0
1306,-1.0,-2.0,-16.0,-14.0,-10.0,-5.0,0.0,0.0,1651069794599481.0,0
1307,0.0,0.0,3.0,1.0,-4.0,-1.0,-1.0,0.0,1651069794599481.0,0
1308,0.0,-2.0,3.0,5.0,2.0,2.0,0.0,2.0,1651069794621864.0,0
1309,-2.0,1.0,16.0,3.0,-1.0,0.0,-1.0,0.0,1651069794621864.0,0
1310,0.0,-4.0,-6.0,0.0,2.0,2.0,0.0,0.0,1651069794622796.0,0
1311,-1.0,1.0,3.0,-3.0,-6.0,-3.0,-1.0,0.0,1651069794622796.0,0
1312,0.0,-1.0,-9.0,-3.0,1.0,-4.0,-3.0,-1.0,1651069794636446.0,0
1313,0.0,1.0,10.0,4.0,1.0,3.0,1.0,0.0,1651069794636446.0,0
1314,-2.0,0.0,-5.0,-7.0,-3.0,-2.0,-1.0,-1.0,1651069794637407.0,0
1315,-2.0,-3.0,-21.0,-7.0,-5.0,-3.0,-2.0,-1.0,1651069794637407.0,0
1316,0.0,4.0,14.0,5.0,10.0,7.0,1.0,0.0,1651069794658547.0,0
1317,1.0,2.0,15.0,10.0,0.0,-3.0,-1.0,-1.0,1651069794658547.0,0
1318,-2.0,-2.0,-13.0,-9.0,-1.0,3.0,0.0,0.0,1651069794659477.0,0
1319,-1.0,-1.0,-5.0,-5.0,-11.0,-5.0,-1.0,-1.0,1651069794659477.0,0
1320,-1.0,0.0,0.0,2.0,4.0,-3.0,-2.0,0.0,1651069794681823.0,0
1321,-1.0,1.0,6.0,1.0,8.0,6.0,2.0,-2.0,1651069794681823.0,0
1322,1.0,1.0,1.0,1.0,-3.0,-3.0,-1.0,-1.0,1651069794682753.0,0
1323,0.0,0.0,-1.0,1.0,6.0,1.0,-1.0,1.0,1651069794682753.0,0
1324,-2.0,-2.0,-2.0,-7.0,-6.0,0.0,0.0,-3.0,1651069794704924.0,0
1325,-2.0,-1.0,-4.0,-4.0,-3.0,-2.0,0.0,0.0,1651069794704924.0,0
1326,-1.0,-3.0,-2.0,2.0,0.0,0.0,-1.0,-1.0,1651069794704924.0,0
1327,1.0,-2.0,-2.0,-3.0,-2.0,1.0,1.0,-1.0,1651069794704924.0,0
1328,1.0,3.0,0.0,4.0,-3.0,-3.0,-2.0,-1.0,1651069794718821.0,0
1329,1.0,-1.0,6.0,0.0,-1.0,-2.0,-4.0,-2.0,1651069794718821.0,0
1330,1.0,0.0,-3.0,-2.0,2.0,0.0,-1.0,1.0,1651069794719818.0,0
1331,-1.0,-1.0,8.0,9.0,1.0,-4.0,-2.0,-1.0,1651069794719818.0,0
1332,0.0,-1.0,-1.0,-4.0,-3.0,1.0,1.0,1.0,1651069794742467.0,0
1333,-1.0,-1.0,-9.0,0.0,2.0,7.0,3.0,3.0,1651069794742467.0,0
1334,-1.0,2.0,15.0,3.0,-2.0,-5.0,-2.0,-1.0,1651069794742467.0,0
1335,1.0,-3.0,-10.0,-3.0,0.0,0.0,0.0,-1.0,1651069794742467.0,0
1336,-3.0,-3.0,2.0,4.0,-4.0,-2.0,-2.0,-2.0,1651069794756421.0,0
1337,0.0,-2.0,-9.0,-6.0,-9.0,-6.0,-2.0,-1.0,1651069794756421.0,0
1338,0.0,-2.0,-8.0,-2.0,7.0,1.0,-1.0,0.0,1651069794757348.0,0
1339,0.0,1.0,4.0,-3.0,-7.0,-3.0,-1.0,0.0,1651069794757348.0,0
1340,-1.0,-2.0,-3.0,-11.0,10.0,3.0,0.0,-1.0,1651069794779349.0,0
1341,0.0,-1.0,-1.0,-1.0,-5.0,-5.0,-2.0,0.0,1651069794779349.0,0
1342,-1.0,1.0,11.0,8.0,4.0,3.0,2.0,0.0,1651069794779349.0,0
1343,-1.0,0.0,-1.0,3.0,9.0,-2.0,-1.0,-1.0,1651069794779349.0,0
1344,-1.0,0.0,-3.0,-1.0,-2.0,6.0,3.0,2.0,1651069794802429.0,0
1345,-3.0,0.0,0.0,-3.0,-2.0,-5.0,-2.0,-1.0,1651069794802429.0,0
1346,-3.0,0.0,0.0,-4.0,-5.0,-5.0,-3.0,0.0,1651069794802429.0,0
1347,-1.0,-2.0,-2.0,-2.0,-7.0,-2.0,0.0,0.0,1651069794802429.0,0
1348,1.0,-1.0,-4.0,2.0,-3.0,-4.0,-2.0,0.0,1651069794816438.0,0
1349,0.0,-1.0,0.0,-1.0,6.0,2.0,-2.0,-2.0,1651069794816438.0,0
1350,-1.0,-2.0,-7.0,-3.0,-3.0,2.0,1.0,-1.0,1651069794817369.0,0
1351,0.0,-1.0,0.0,-6.0,-3.0,4.0,1.0,-1.0,1651069794817369.0,0
1352,0.0,-3.0,-20.0,-4.0,-6.0,-3.0,0.0,0.0,1651069794838866.0,0
1353,2.0,2.0,12.0,-3.0,-3.0,1.0,1.0,-2.0,1651069794838866.0,0
1354,-1.0,-1.0,0.0,5.0,4.0,-4.0,-4.0,-2.0,1651069794839797.0,0
1355,1.0,2.0,0.0,-4.0,-13.0,-4.0,0.0,-2.0,1651069794839797.0,0
1356,0.0,0.0,8.0,-2.0,12.0,15.0,6.0,3.0,1651069794861511.0,0
1357,-3.0,-1.0,-4.0,1.0,2.0,2.0,1.0,1.0,1651069794861511.0,0
1358,0.0,-1.0,-2.0,0.0,-2.0,-3.0,-4.0,-1.0,1651069794862509.0,0
1359,-1.0,0.0,0.0,-1.0,-3.0,3.0,0.0,1.0,1651069794862509.0,0
1360,1.0,0.0,9.0,1.0,-14.0,-13.0,-2.0,-1.0,1651069794875542.0,0
1361,0.0,-2.0,-18.0,-8.0,5.0,2.0,1.0,0.0,1651069794875542.0,0
1362,0.0,-1.0,-2.0,-3.0,-5.0,-4.0,-1.0,-1.0,1651069794883452.0,0
1363,0.0,1.0,6.0,3.0,5.0,-1.0,-2.0,1.0,1651069794883452.0,0
1364,-1.0,2.0,10.0,6.0,8.0,4.0,0.0,-2.0,1651069794899337.0,0
1365,-1.0,-2.0,6.0,3.0,3.0,1.0,-1.0,0.0,1651069794899337.0,0
1366,-2.0,0.0,-4.0,-1.0,2.0,6.0,1.0,-2.0,1651069794899337.0,0
1367,-1.0,-2.0,-4.0,-3.0,2.0,2.0,-1.0,-2.0,1651069794899337.0,0
1368,1.0,-1.0,-2.0,1.0,-13.0,-5.0,-2.0,-2.0,1651069794922291.0,0
1369,-1.0,-2.0,-5.0,-3.0,0.0,-6.0,-4.0,0.0,1651069794922291.0,0
1370,-1.0,-1.0,-8.0,4.0,0.0,-3.0,-1.0,0.0,1651069794923222.0,0
1371,-3.0,-1.0,4.0,-3.0,-10.0,-4.0,-1.0,0.0,1651069794923222.0,0
1372,0.0,1.0,-1.0,9.0,16.0,14.0,4.0,1.0,1651069794936199.0,0
1373,-1.0,-1.0,-1.0,-4.0,-10.0,-6.0,-1.0,-2.0,1651069794936199.0,0
1374,0.0,1.0,1.0,-1.0,-10.0,-1.0,2.0,2.0,1651069794944166.0,0
1375,-2.0,-1.0,-2.0,-4.0,-7.0,-7.0,-5.0,-3.0,1651069794944166.0,0
1376,-1.0,-3.0,-1.0,3.0,2.0,-7.0,-4.0,-1.0,1651069794959294.0,0
1377,0.0,-1.0,-1.0,3.0,-2.0,6.0,1.0,-1.0,1651069794959294.0,0
1378,-1.0,1.0,3.0,1.0,6.0,0.0,2.0,1.0,1651069794959294.0,0
1379,-2.0,-2.0,-24.0,-9.0,2.0,-1.0,0.0,-1.0,1651069794959294.0,0
1380,-1.0,0.0,3.0,-8.0,-19.0,-11.0,-2.0,-2.0,1651069794982497.0,0
1381,0.0,3.0,1.0,-1.0,1.0,-3.0,-1.0,-1.0,1651069794982497.0,0
1382,1.0,-4.0,-5.0,0.0,-4.0,-6.0,-5.0,-3.0,1651069794982497.0,0
1383,1.0,-1.0,10.0,5.0,-12.0,4.0,1.0,-1.0,1651069794982497.0,0
1384,-1.0,0.0,-6.0,-7.0,13.0,4.0,1.0,1.0,1651069794995290.0,0
1385,-1.0,0.0,-2.0,7.0,30.0,7.0,-1.0,-1.0,1651069794995290.0,0
1386,1.0,2.0,4.0,-1.0,-2.0,17.0,4.0,3.0,1651069795004313.0,0
1387,1.0,0.0,3.0,9.0,24.0,9.0,2.0,0.0,1651069795004313.0,0
1388,-1.0,-2.0,-4.0,-10.0,6.0,-6.0,-3.0,-2.0,1651069795018391.0,0
1389,-1.0,-2.0,1.0,4.0,-17.0,3.0,0.0,-1.0,1651069795018391.0,0
1390,0.0,-1.0,0.0,11.0,34.0,23.0,9.0,2.0,1651069795019409.0,0
1391,1.0,1.0,2.0,0.0,-10.0,-9.0,-2.0,-2.0,1651069795019409.0,0
1392,-1.0,1.0,2.0,3.0,20.0,17.0,2.0,2.0,1651069795041695.0,0
1393,-3.0,-5.0,-6.0,-15.0,-21.0,-13.0,-3.0,-2.0,1651069795041695.0,0
1394,-3.0,-3.0,-3.0,-5.0,-14.0,-22.0,-9.0,-5.0,1651069795042695.0,0
1395,-1.0,1.0,1.0,-1.0,3.0,6.0,1.0,2.0,1651069795042695.0,0
1396,2.0,2.0,1.0,1.0,-17.0,-10.0,-3.0,-1.0,1651069795055727.0,0
1397,0.0,-1.0,0.0,-1.0,-3.0,-2.0,-3.0,-1.0,1651069795055727.0,0
1398,-1.0,0.0,2.0,-1.0,-1.0,3.0,1.0,-1.0,1651069795064264.0,0
1399,-1.0,-2.0,0.0,-2.0,-2.0,-7.0,-2.0,-2.0,1651069795064264.0,0
1400,0.0,-2.0,-2.0,0.0,-2.0,-3.0,-3.0,-2.0,1651069795078512.0,0
1401,1.0,1.0,8.0,11.0,22.0,13.0,3.0,3.0,1651069795078512.0,0
1402,0.0,-1.0,-9.0,-10.0,-3.0,-8.0,1.0,-2.0,1651069795079515.0,0
1403,-1.0,0.0,1.0,2.0,-8.0,5.0,4.0,4.0,1651069795079515.0,0
1404,-1.0,-3.0,-2.0,0.0,-15.0,-3.0,0.0,8.0,1651069795101706.0,0
1405,7.0,4.0,9.0,11.0,25.0,24.0,5.0,-9.0,1651069795101706.0,0
1406,-1.0,5.0,4.0,-8.0,-18.0,-21.0,-9.0,0.0,1651069795102702.0,0
1407,5.0,0.0,-8.0,-4.0,29.0,11.0,3.0,4.0,1651069795102702.0,0
1408,-7.0,-7.0,-8.0,-5.0,-30.0,-17.0,2.0,5.0,1651069795115359.0,0
1409,-6.0,-3.0,-2.0,-2.0,-1.0,-1.0,-2.0,-10.0,1651069795115359.0,0
1410,-1.0,5.0,11.0,5.0,0.0,4.0,-4.0,-7.0,1651069795124313.0,0
1411,-4.0,0.0,2.0,-2.0,-12.0,-10.0,-4.0,-8.0,1651069795124313.0,0
1412,-5.0,-12.0,-5.0,-3.0,3.0,-7.0,-9.0,-6.0,1651069795139285.0,0
1413,1.0,1.0,-1.0,-1.0,-16.0,-5.0,4.0,9.0,1651069795139285.0,0
1414,-2.0,-2.0,7.0,7.0,-7.0,-7.0,4.0,-1.0,1651069795139285.0,0
1415,-1.0,0.0,4.0,5.0,25.0,23.0,7.0,8.0,1651069795139285.0,0
1416,5.0,6.0,-8.0,-12.0,-6.0,1.0,3.0,-3.0,1651069795162247.0,0
1417,2.0,5.0,-2.0,-6.0,-21.0,-10.0,-14.0,-14.0,1651069795162247.0,0
1418,-8.0,-10.0,-10.0,2.0,2.0,-5.0,-7.0,-8.0,1651069795162247.0,0
1419,8.0,3.0,4.0,-1.0,-16.0,-6.0,8.0,12.0,1651069795162247.0,0
1420,-8.0,-14.0,0.0,0.0,10.0,9.0,1.0,-1.0,1651069795184322.0,0
1421,3.0,11.0,6.0,-5.0,-10.0,-8.0,5.0,6.0,1651069795184322.0,0
1422,18.0,19.0,16.0,27.0,28.0,10.0,11.0,18.0,1651069795185319.0,0
1423,-15.0,-11.0,-2.0,-17.0,-26.0,3.0,-4.0,-15.0,1651069795185319.0,3
1424,12.0,2.0,-11.0,-21.0,-20.0,-3.0,5.0,7.0,1651069795199309.0,3
1425,-9.0,-17.0,-16.0,1.0,2.0,-10.0,-5.0,-2.0,1651069795199309.0,3
1426,2.0,5.0,7.0,5.0,14.0,11.0,4.0,4.0,1651069795199309.0,3
1427,1.0,8.0,5.0,5.0,14.0,2.0,5.0,3.0,1651069795199309.0,3
1428,0.0,8.0,17.0,11.0,11.0,14.0,2.0,-2.0,1651069795221684.0,3
1429,-1.0,0.0,-3.0,-6.0,-4.0,-10.0,-8.0,-3.0,1651069795221684.0,3
1430,-5.0,-21.0,-9.0,4.0,-9.0,-4.0,1.0,1.0,1651069795222693.0,3
1431,-1.0,-7.0,-12.0,-4.0,11.0,10.0,-4.0,-6.0,1651069795222693.0,3
1432,1.0,6.0,12.0,4.0,-9.0,-18.0,-15.0,-3.0,1651069795244859.0,3
1433,0.0,4.0,-2.0,9.0,34.0,35.0,16.0,8.0,1651069795244859.0,3
1434,-5.0,-1.0,-2.0,-13.0,-12.0,-7.0,-2.0,-6.0,1651069795244859.0,3
1435,1.0,-1.0,2.0,0.0,-11.0,-13.0,-3.0,0.0,1651069795244859.0,3
1436,7.0,12.0,1.0,15.0,27.0,7.0,4.0,5.0,1651069795258821.0,3
1437,-5.0,-5.0,0.0,-9.0,-17.0,-16.0,-8.0,-2.0,1651069795258821.0,3
1438,5.0,-7.0,-11.0,-13.0,-18.0,8.0,5.0,4.0,1651069795259751.0,3
1439,-5.0,-7.0,10.0,-3.0,-3.0,0.0,-2.0,2.0,1651069795259751.0,3
1440,0.0,8.0,-13.0,11.0,20.0,-19.0,-8.0,-17.0,1651069795282371.0,3
1441,9.0,-4.0,14.0,5.0,25.0,47.0,16.0,14.0,1651069795282371.0,3
1442,-5.0,-6.0,-20.0,-24.0,-38.0,-26.0,-10.0,-6.0,1651069795283312.0,3
1443,-1.0,11.0,7.0,19.0,28.0,11.0,3.0,1.0,1651069795283312.0,3
1444,-4.0,-16.0,3.0,-9.0,-29.0,-11.0,2.0,4.0,1651069795304583.0,3
1445,1.0,22.0,12.0,5.0,-11.0,-15.0,-6.0,0.0,1651069795304583.0,3
1446,-1.0,-8.0,0.0,-2.0,6.0,-1.0,-1.0,-3.0,1651069795305609.0,3
1447,-6.0,-14.0,-19.0,-9.0,-2.0,-7.0,-9.0,-9.0,1651069795305609.0,3
1448,3.0,10.0,9.0,17.0,-11.0,10.0,6.0,7.0,1651069795318548.0,3
1449,-4.0,1.0,-2.0,-24.0,-30.0,-15.0,3.0,-4.0,1651069795318548.0,3
1450,4.0,26.0,4.0,8.0,15.0,8.0,2.0,5.0,1651069795319543.0,3
1451,-4.0,-34.0,-8.0,2.0,-2.0,-25.0,-8.0,0.0,1651069795319543.0,3
1452,-4.0,-2.0,2.0,-5.0,-3.0,-1.0,-6.0,-7.0,1651069795341726.0,3
1453,-9.0,-13.0,-8.0,4.0,13.0,-8.0,-11.0,-10.0,1651069795341726.0,3
1454,1.0,12.0,3.0,-4.0,-1.0,15.0,4.0,-1.0,1651069795342656.0,3
1455,6.0,13.0,1.0,-2.0,-12.0,3.0,4.0,4.0,1651069795342656.0,3
1456,-7.0,7.0,-4.0,-1.0,22.0,9.0,0.0,-3.0,1651069795364749.0,3
1457,2.0,-14.0,-4.0,0.0,-26.0,-26.0,-7.0,7.0,1651069795364749.0,3
1458,10.0,8.0,-3.0,-22.0,0.0,6.0,-1.0,-5.0,1651069795365706.0,3
1459,-9.0,2.0,2.0,1.0,-18.0,7.0,-3.0,-17.0,1651069795365706.0,3
1460,-2.0,-3.0,-7.0,-14.0,-16.0,-15.0,-11.0,-7.0,1651069795378885.0,3
1461,17.0,27.0,15.0,28.0,36.0,16.0,24.0,21.0,1651069795378885.0,3
1462,-8.0,-13.0,-10.0,-29.0,-13.0,-7.0,1.0,9.0,1651069795379814.0,3
1463,-8.0,-10.0,6.0,20.0,42.0,3.0,1.0,-4.0,1651069795379814.0,3
1464,1.0,9.0,6.0,7.0,-16.0,5.0,4.0,0.0,1651069795402496.0,3
1465,-7.0,-14.0,-6.0,-11.0,-23.0,-19.0,-11.0,-12.0,1651069795402496.0,3
1466,12.0,19.0,6.0,-7.0,18.0,7.0,-3.0,3.0,1651069795402496.0,3
1467,-6.0,-25.0,5.0,-6.0,-24.0,-12.0,5.0,-5.0,1651069795402496.0,3
1468,-3.0,-2.0,-13.0,6.0,6.0,4.0,-6.0,-7.0,1651069795424963.0,3
1469,6.0,1.0,2.0,-7.0,-18.0,-5.0,4.0,14.0,1651069795424963.0,3
1470,-8.0,-12.0,5.0,28.0,22.0,8.0,4.0,-3.0,1651069795425293.0,3
1471,2.0,3.0,-14.0,-7.0,-3.0,-7.0,-8.0,-2.0,1651069795425293.0,3
1472,0.0,8.0,5.0,-4.0,-3.0,-7.0,1.0,-7.0,1651069795439285.0,3
1473,-9.0,-4.0,-6.0,-8.0,-20.0,7.0,-1.0,-7.0,1651069795439285.0,3
1474,-5.0,-11.0,3.0,5.0,-1.0,-3.0,-2.0,-1.0,1651069795439285.0,3
1475,10.0,12.0,4.0,12.0,6.0,2.0,1.0,1.0,1651069795439285.0,3
1476,-3.0,1.0,2.0,0.0,5.0,-1.0,8.0,7.0,1651069795462495.0,3
1477,11.0,14.0,7.0,-3.0,-16.0,-2.0,-7.0,-6.0,1651069795462495.0,3
1478,-10.0,1.0,1.0,4.0,17.0,9.0,1.0,-5.0,1651069795462495.0,3
1479,4.0,4.0,5.0,3.0,19.0,3.0,-3.0,15.0,1651069795462495.0,3
1480,-2.0,-4.0,3.0,-11.0,-14.0,-12.0,-6.0,-7.0,1651069795484759.0,3
1481,6.0,0.0,-7.0,9.0,15.0,6.0,1.0,0.0,1651069795484759.0,3
1482,-12.0,-18.0,1.0,-1.0,-35.0,-16.0,8.0,-8.0,1651069795485696.0,3
1483,12.0,29.0,2.0,6.0,25.0,14.0,5.0,4.0,1651069795485696.0,3
1484,-9.0,-20.0,-4.0,-27.0,-17.0,-4.0,-3.0,4.0,1651069795498723.0,3
1485,-1.0,3.0,4.0,26.0,35.0,11.0,5.0,-2.0,1651069795498723.0,3
1486,1.0,-6.0,-8.0,-10.0,4.0,2.0,-8.0,5.0,1651069795499650.0,3
1487,-1.0,5.0,-4.0,-26.0,-60.0,-17.0,0.0,-4.0,1651069795499650.0,3
1488,8.0,13.0,3.0,27.0,38.0,8.0,0.0,5.0,1651069795521678.0,3
1489,-6.0,-16.0,-1.0,-1.0,16.0,29.0,8.0,0.0,1651069795521678.0,3
1490,-2.0,1.0,9.0,9.0,3.0,-4.0,0.0,0.0,1651069795522674.0,3
1491,-1.0,-11.0,-13.0,-11.0,-31.0,-23.0,-8.0,1.0,1651069795522674.0,3
1492,0.0,4.0,-3.0,-10.0,17.0,27.0,8.0,-2.0,1651069795544835.0,3
1493,-8.0,-3.0,-7.0,-5.0,-4.0,-16.0,-10.0,-9.0,1651069795544835.0,3
1494,-10.0,-15.0,-6.0,-3.0,-25.0,-21.0,-9.0,-1.0,1651069795545766.0,3
1495,5.0,16.0,11.0,16.0,-14.0,-3.0,-9.0,-17.0,1651069795545766.0,3
1496,-1.0,-23.0,-11.0,-5.0,20.0,29.0,19.0,14.0,1651069795558798.0,3
1497,-3.0,-3.0,-8.0,-15.0,-12.0,-18.0,-4.0,7.0,1651069795558798.0,3
1498,4.0,16.0,5.0,7.0,24.0,15.0,7.0,-2.0,1651069795559742.0,3
1499,-5.0,-6.0,-2.0,0.0,-12.0,-3.0,-6.0,-12.0,1651069795559742.0,3
1500,-3.0,-2.0,-2.0,-4.0,-12.0,-21.0,-7.0,-5.0,1651069795581825.0,3
1501,10.0,1.0,0.0,21.0,8.0,24.0,6.0,12.0,1651069795581825.0,3
1502,-1.0,-2.0,-4.0,-4.0,-12.0,-6.0,-1.0,6.0,1651069795582767.0,3
1503,-6.0,-14.0,-13.0,-8.0,19.0,4.0,-1.0,-4.0,1651069795582767.0,3
1504,-3.0,-1.0,2.0,-15.0,-43.0,-17.0,-8.0,-11.0,1651069795604926.0,3
1505,-14.0,-17.0,-6.0,5.0,41.0,-1.0,-5.0,-11.0,1651069795604926.0,3
1506,4.0,-1.0,-7.0,-8.0,-8.0,-1.0,-3.0,1.0,1651069795604926.0,3
1507,3.0,11.0,1.0,-8.0,14.0,11.0,8.0,8.0,1651069795604926.0,3
1508,2.0,11.0,1.0,-5.0,-24.0,-17.0,-7.0,-8.0,1651069795618830.0,3
1509,-1.0,-3.0,5.0,5.0,10.0,11.0,2.0,-5.0,1651069795618830.0,3
1510,2.0,1.0,11.0,14.0,-3.0,2.0,1.0,3.0,1651069795619819.0,3
1511,0.0,10.0,-5.0,-9.0,-6.0,-6.0,-3.0,2.0,1651069795619819.0,3
1512,4.0,-4.0,-2.0,7.0,7.0,0.0,7.0,6.0,1651069795642098.0,3
1513,3.0,9.0,-5.0,-9.0,-20.0,-17.0,-6.0,-2.0,1651069795642098.0,3
1514,3.0,-2.0,-1.0,6.0,10.0,-1.0,-4.0,-8.0,1651069795642098.0,3
1515,-3.0,6.0,7.0,0.0,18.0,5.0,-3.0,3.0,1651069795642098.0,3
1516,0.0,-2.0,1.0,11.0,-5.0,4.0,-1.0,-1.0,1651069795664612.0,3
1517,-8.0,-10.0,-13.0,-11.0,-16.0,-12.0,-4.0,-10.0,1651069795664612.0,3
1518,0.0,8.0,-4.0,-18.0,-5.0,-7.0,-6.0,-3.0,1651069795665570.0,3
1519,6.0,0.0,9.0,14.0,-21.0,-11.0,1.0,5.0,1651069795665570.0,3
1520,3.0,8.0,3.0,9.0,32.0,15.0,3.0,2.0,1651069795678575.0,3
1521,-1.0,-3.0,0.0,-11.0,-21.0,-3.0,-1.0,7.0,1651069795678575.0,3
1522,-8.0,-19.0,-5.0,17.0,8.0,1.0,-5.0,-11.0,1651069795679505.0,3
1523,-2.0,-6.0,-8.0,-9.0,13.0,-4.0,3.0,-2.0,1651069795679505.0,3
1524,1.0,0.0,7.0,5.0,1.0,2.0,-2.0,8.0,1651069795701848.0,3
1525,-2.0,-16.0,7.0,-10.0,-20.0,-18.0,0.0,-4.0,1651069795701848.0,3
1526,1.0,-1.0,-13.0,-8.0,-5.0,12.0,-1.0,1.0,1651069795702845.0,3
1527,-10.0,-17.0,-6.0,3.0,15.0,7.0,4.0,-4.0,1651069795702845.0,3
1528,6.0,10.0,4.0,6.0,8.0,3.0,-4.0,1.0,1651069795724937.0,3
1529,-4.0,-3.0,-1.0,-1.0,7.0,0.0,0.0,1.0,1651069795724937.0,3
1530,2.0,14.0,9.0,2.0,-9.0,-8.0,-4.0,3.0,1651069795725320.0,3
1531,2.0,4.0,5.0,6.0,-2.0,2.0,2.0,1.0,1651069795725320.0,3
1532,-8.0,-21.0,-12.0,-6.0,-12.0,-8.0,-5.0,-12.0,1651069795739313.0,3
1533,4.0,22.0,8.0,-2.0,-8.0,2.0,8.0,2.0,1651069795739313.0,3
1534,6.0,-3.0,-1.0,-3.0,0.0,0.0,6.0,16.0,1651069795739313.0,3
1535,7.0,25.0,12.0,4.0,-5.0,5.0,3.0,2.0,1651069795739313.0,3
1536,0.0,-4.0,-3.0,2.0,12.0,5.0,-4.0,-5.0,1651069795762463.0,3
1537,2.0,15.0,8.0,5.0,3.0,-9.0,-6.0,-1.0,1651069795762463.0,3
1538,-10.0,-10.0,-1.0,-4.0,-32.0,-18.0,-3.0,-7.0,1651069795762463.0,3
1539,10.0,0.0,2.0,2.0,5.0,3.0,4.0,9.0,1651069795762463.0,3
1540,-5.0,-3.0,3.0,-5.0,-24.0,-15.0,-4.0,-5.0,1651069795784404.0,3
1541,-1.0,-14.0,-17.0,11.0,31.0,30.0,7.0,1.0,1651069795784404.0,3
1542,1.0,10.0,2.0,-1.0,-7.0,-7.0,-2.0,-3.0,1651069795785366.0,3
1543,-6.0,-7.0,-4.0,-6.0,-5.0,-7.0,-6.0,-2.0,1651069795785366.0,3
1544,-1.0,-18.0,5.0,3.0,-11.0,-8.0,-3.0,1.0,1651069795798656.0,3
1545,3.0,9.0,-2.0,-10.0,4.0,-5.0,-2.0,-2.0,1651069795798656.0,3
1546,3.0,10.0,3.0,13.0,20.0,19.0,5.0,3.0,1651069795806792.0,3
1547,-5.0,-12.0,0.0,-6.0,-8.0,3.0,-2.0,-8.0,1651069795806792.0,3
1548,2.0,10.0,1.0,4.0,15.0,8.0,2.0,0.0,1651069795822054.0,3
1549,-11.0,-8.0,-4.0,-4.0,-15.0,-24.0,-9.0,-6.0,1651069795822054.0,3
1550,8.0,6.0,-2.0,0.0,9.0,4.0,-1.0,-5.0,1651069795823054.0,3
1551,-13.0,-4.0,-11.0,0.0,28.0,4.0,-3.0,-15.0,1651069795823054.0,3
1552,11.0,11.0,-1.0,-6.0,-15.0,-8.0,7.0,12.0,1651069795852468.0,3
1553,8.0,19.0,9.0,-4.0,-12.0,0.0,1.0,15.0,1651069795852468.0,3
1554,-4.0,-31.0,-9.0,-2.0,-4.0,-12.0,-1.0,-4.0,1651069795852468.0,3
1555,5.0,-7.0,0.0,-1.0,-11.0,6.0,-3.0,0.0,1651069795852468.0,3
1556,-10.0,0.0,2.0,-15.0,2.0,9.0,6.0,-8.0,1651069795858398.0,3
1557,-5.0,3.0,3.0,9.0,24.0,11.0,0.0,-4.0,1651069795858398.0,3
1558,6.0,4.0,0.0,-1.0,-3.0,3.0,-1.0,7.0,1651069795866414.0,3
1559,-5.0,-1.0,-1.0,8.0,15.0,-2.0,0.0,-4.0,1651069795866414.0,3
1560,-2.0,-9.0,-7.0,2.0,-8.0,5.0,1.0,3.0,1651069795881724.0,3
1561,6.0,3.0,1.0,-3.0,-3.0,1.0,2.0,-1.0,1651069795881724.0,3
1562,-4.0,3.0,2.0,-10.0,-2.0,-1.0,0.0,-3.0,1651069795882654.0,3
1563,3.0,0.0,1.0,1.0,3.0,4.0,4.0,4.0,1651069795882654.0,3
1564,-5.0,-8.0,-6.0,-4.0,-16.0,-18.0,-5.0,1.0,1651069795904532.0,3
1565,-3.0,-4.0,-4.0,2.0,9.0,7.0,1.0,-1.0,1651069795904532.0,3
1566,-7.0,-5.0,8.0,-2.0,-15.0,-6.0,-1.0,-9.0,1651069795905529.0,3
1567,12.0,27.0,-5.0,1.0,5.0,0.0,5.0,17.0,1651069795905529.0,3
1568,-3.0,-13.0,-2.0,11.0,6.0,1.0,-4.0,-7.0,1651069795918560.0,3
1569,-3.0,-17.0,-6.0,-21.0,-45.0,-19.0,-2.0,-1.0,1651069795918560.0,3
1570,-9.0,3.0,-13.0,1.0,27.0,4.0,-1.0,-1.0,1651069795926635.0,3
1571,-6.0,-27.0,-1.0,-4.0,-1.0,3.0,-1.0,-9.0,1651069795926635.0,3
1572,2.0,15.0,5.0,-7.0,-15.0,-15.0,-9.0,-4.0,1651069795941612.0,3
1573,-3.0,-4.0,-9.0,8.0,14.0,11.0,-2.0,-2.0,1651069795941612.0,3
1574,-1.0,7.0,5.0,-4.0,-6.0,-2.0,1.0,-3.0,1651069795942611.0,3
1575,1.0,1.0,-1.0,4.0,-12.0,3.0,-4.0,3.0,1651069795942611.0,3
1576,-3.0,-2.0,-6.0,-1.0,12.0,4.0,4.0,0.0,1651069795964526.0,3
1577,-3.0,-8.0,2.0,-7.0,-14.0,-6.0,-5.0,-9.0,1651069795964526.0,3
1578,1.0,7.0,3.0,15.0,34.0,6.0,-1.0,6.0,1651069795965509.0,3
1579,-1.0,2.0,-8.0,-9.0,0.0,-2.0,-4.0,-9.0,1651069795965509.0,3
1580,4.0,-3.0,-2.0,-1.0,0.0,6.0,5.0,13.0,1651069795978474.0,3
1581,8.0,11.0,4.0,-8.0,-16.0,-8.0,-1.0,10.0,1651069795978474.0,3
1582,-1.0,-18.0,-6.0,3.0,7.0,1.0,2.0,-1.0,1651069795986594.0,3
1583,-9.0,11.0,9.0,12.0,-4.0,-13.0,-4.0,-9.0,1651069795986594.0,3
1584,7.0,-6.0,8.0,1.0,40.0,38.0,9.0,7.0,1651069796001688.0,3
1585,-3.0,-6.0,-8.0,3.0,-1.0,1.0,0.0,-2.0,1651069796001688.0,3
1586,5.0,5.0,3.0,-1.0,1.0,7.0,3.0,5.0,1651069796002619.0,3
1587,-2.0,-1.0,5.0,-11.0,-14.0,-13.0,-5.0,-7.0,1651069796002619.0,3
1588,-4.0,2.0,-5.0,8.0,-2.0,-4.0,-3.0,0.0,1651069796024705.0,3
1589,-10.0,-14.0,8.0,4.0,14.0,10.0,3.0,4.0,1651069796024705.0,3
1590,7.0,11.0,4.0,2.0,-27.0,-7.0,0.0,-11.0,1651069796025642.0,3
1591,5.0,-4.0,-12.0,-21.0,2.0,11.0,1.0,15.0,1651069796025642.0,3
1592,-4.0,2.0,0.0,10.0,11.0,-5.0,-3.0,-5.0,1651069796038606.0,3
1593,5.0,-11.0,-7.0,-1.0,-13.0,-13.0,-4.0,-1.0,1651069796038606.0,3
1594,-5.0,10.0,8.0,7.0,33.0,24.0,2.0,1.0,1651069796046305.0,3
1595,-1.0,2.0,1.0,5.0,-2.0,-2.0,-4.0,0.0,1651069796046305.0,3
1596,-3.0,-19.0,-4.0,-4.0,4.0,-5.0,5.0,-3.0,1651069796062516.0,3
1597,7.0,29.0,12.0,-2.0,4.0,1.0,-2.0,8.0,1651069796062516.0,3
1598,-2.0,-21.0,-4.0,-4.0,-7.0,-4.0,-1.0,-5.0,1651069796062516.0,3
1599,3.0,0.0,-1.0,5.0,-18.0,-5.0,1.0,11.0,1651069796062516.0,3
1600,-4.0,-3.0,-4.0,-5.0,-3.0,-1.0,-5.0,-8.0,1651069796092538.0,3
1601,1.0,17.0,13.0,5.0,-6.0,-12.0,-5.0,-10.0,1651069796092538.0,3
1602,3.0,-5.0,-5.0,-4.0,13.0,12.0,0.0,-1.0,1651069796092538.0,3
1603,2.0,-2.0,2.0,-1.0,-3.0,-3.0,2.0,3.0,1651069796092538.0,3
1604,-4.0,-10.0,-10.0,-2.0,-10.0,-8.0,-4.0,-1.0,1651069796098509.0,3
1605,-1.0,-5.0,-4.0,-1.0,8.0,2.0,2.0,-6.0,1651069796098509.0,3
1606,3.0,5.0,4.0,-8.0,-19.0,-14.0,-6.0,-1.0,1651069796106487.0,3
1607,0.0,-12.0,-16.0,2.0,-14.0,-1.0,3.0,5.0,1651069796106487.0,3
1608,5.0,12.0,3.0,-8.0,-24.0,-10.0,-1.0,1.0,1651069796122494.0,3
1609,-10.0,-7.0,-8.0,6.0,-3.0,-12.0,-5.0,-3.0,1651069796122494.0,3
1610,1.0,0.0,6.0,3.0,6.0,1.0,1.0,1.0,1651069796122494.0,3
1611,-6.0,-11.0,1.0,0.0,6.0,6.0,5.0,-1.0,1651069796122494.0,3
1612,6.0,6.0,1.0,0.0,-3.0,-7.0,-3.0,4.0,1651069796144482.0,3
1613,-1.0,-1.0,-5.0,-5.0,-10.0,-2.0,3.0,1.0,1651069796144482.0,3
1614,-5.0,-8.0,-7.0,9.0,37.0,4.0,-1.0,-1.0,1651069796145413.0,3
1615,-5.0,-3.0,4.0,-13.0,-8.0,-6.0,-3.0,-12.0,1651069796145413.0,3
1616,3.0,18.0,10.0,10.0,6.0,3.0,-3.0,3.0,1651069796158379.0,3
1617,1.0,-25.0,-13.0,-7.0,11.0,-2.0,0.0,5.0,1651069796158379.0,3
1618,1.0,-3.0,-10.0,-12.0,-25.0,7.0,6.0,14.0,1651069796166383.0,3
1619,-1.0,10.0,12.0,5.0,2.0,4.0,0.0,3.0,1651069796166383.0,3
1620,1.0,-11.0,-5.0,0.0,7.0,-3.0,0.0,-11.0,1651069796182496.0,3
1621,-12.0,-8.0,1.0,-3.0,-7.0,2.0,-4.0,-6.0,1651069796182496.0,3
1622,7.0,15.0,3.0,0.0,-10.0,-5.0,-3.0,-6.0,1651069796182496.0,3
1623,-7.0,-25.0,-15.0,11.0,7.0,-5.0,-3.0,0.0,1651069796182496.0,3
1624,-3.0,32.0,6.0,-14.0,-17.0,-6.0,-9.0,-4.0,1651069796204526.0,3
1625,9.0,-13.0,-2.0,3.0,5.0,10.0,2.0,-2.0,1651069796204526.0,3
1626,-1.0,2.0,-1.0,7.0,13.0,-8.0,-3.0,4.0,1651069796205522.0,3
1627,-2.0,5.0,9.0,11.0,13.0,11.0,4.0,-4.0,1651069796205522.0,3
1628,-4.0,-7.0,-5.0,-12.0,0.0,0.0,-3.0,-4.0,1651069796226686.0,3
1629,-4.0,7.0,2.0,1.0,-2.0,1.0,-1.0,-1.0,1651069796226686.0,3
1630,-3.0,5.0,3.0,-11.0,-24.0,-11.0,5.0,-1.0,1651069796227628.0,3
1631,1.0,-3.0,-4.0,-3.0,-5.0,-6.0,-4.0,1.0,1651069796227628.0,3
1632,2.0,-2.0,7.0,7.0,9.0,7.0,3.0,2.0,1651069796241684.0,3
1633,1.0,10.0,1.0,-4.0,-13.0,0.0,-2.0,-9.0,1651069796241684.0,3
1634,1.0,0.0,-7.0,-1.0,-6.0,-9.0,-2.0,5.0,1651069796242684.0,3
1635,-7.0,0.0,4.0,1.0,6.0,1.0,-1.0,-7.0,1651069796242684.0,3
1636,3.0,-2.0,-2.0,2.0,0.0,1.0,3.0,13.0,1651069796264769.0,3
1637,3.0,-2.0,-14.0,-7.0,-19.0,-4.0,-1.0,1.0,1651069796264769.0,3
1638,-7.0,-5.0,2.0,4.0,6.0,0.0,-4.0,-11.0,1651069796265759.0,3
1639,6.0,7.0,10.0,13.0,25.0,11.0,2.0,4.0,1651069796265759.0,3
1640,-11.0,-6.0,-5.0,-18.0,-13.0,-7.0,-3.0,-9.0,1651069796286859.0,3
1641,9.0,7.0,2.0,15.0,23.0,14.0,6.0,2.0,1651069796286859.0,3
1642,-5.0,3.0,6.0,1.0,0.0,-2.0,2.0,2.0,1651069796287860.0,3
1643,4.0,0.0,-12.0,-4.0,-4.0,0.0,-7.0,-2.0,1651069796287860.0,3
1644,-5.0,-21.0,-5.0,-1.0,4.0,-4.0,10.0,4.0,1651069796301693.0,3
1645,-5.0,-3.0,8.0,6.0,10.0,0.0,0.0,-2.0,1651069796301693.0,3
1646,1.0,2.0,3.0,-3.0,-9.0,0.0,-2.0,-4.0,1651069796302694.0,3
1647,4.0,-3.0,-9.0,-11.0,-19.0,-9.0,-1.0,2.0,1651069796302694.0,3
1648,3.0,5.0,-4.0,0.0,6.0,5.0,-4.0,-6.0,1651069796324962.0,3
1649,-9.0,-5.0,1.0,-1.0,2.0,-4.0,-3.0,7.0,1651069796324962.0,3
1650,0.0,-4.0,-1.0,-5.0,-17.0,3.0,0.0,-3.0,1651069796326293.0,3
1651,3.0,12.0,10.0,6.0,31.0,6.0,-2.0,0.0,1651069796326293.0,3
1652,2.0,-4.0,1.0,-1.0,-24.0,1.0,1.0,0.0,1651069796347477.0,3
1653,-5.0,-4.0,-4.0,-5.0,-13.0,-4.0,-1.0,-5.0,1651069796347477.0,3
1654,-2.0,-6.0,1.0,12.0,40.0,7.0,-2.0,-4.0,1651069796347477.0,3
1655,4.0,9.0,-3.0,-7.0,-11.0,0.0,3.0,5.0,1651069796347477.0,3
1656,2.0,3.0,1.0,1.0,-11.0,-1.0,2.0,3.0,1651069796361722.0,3
1657,-2.0,1.0,2.0,3.0,16.0,-1.0,-1.0,-2.0,1651069796361722.0,3
1658,3.0,0.0,-1.0,6.0,-5.0,8.0,2.0,4.0,1651069796361722.0,3
1659,0.0,5.0,7.0,-2.0,0.0,-1.0,2.0,-3.0,1651069796361722.0,3
1660,-1.0,-5.0,2.0,10.0,19.0,7.0,0.0,1.0,1651069796384964.0,3
1661,2.0,-1.0,2.0,1.0,-9.0,-5.0,-1.0,1.0,1651069796384964.0,3
1662,-3.0,-5.0,-15.0,-21.0,-19.0,-15.0,-4.0,-4.0,1651069796385964.0,3
1663,-2.0,-5.0,-4.0,6.0,13.0,0.0,-3.0,1.0,1651069796385964.0,3
1664,-1.0,4.0,2.0,-3.0,-7.0,-2.0,-1.0,-3.0,1651069796407126.0,3
1665,4.0,3.0,0.0,2.0,7.0,6.0,0.0,5.0,1651069796407126.0,3
1666,1.0,6.0,4.0,-1.0,-6.0,-2.0,0.0,-1.0,1651069796409053.0,3
1667,-4.0,-6.0,1.0,-9.0,-19.0,-6.0,0.0,2.0,1651069796409053.0,3
1668,0.0,-1.0,-5.0,5.0,-1.0,-3.0,0.0,-1.0,1651069796421088.0,3
1669,-1.0,6.0,4.0,2.0,5.0,7.0,2.0,-3.0,1651069796421088.0,3
1670,-3.0,3.0,-1.0,3.0,-5.0,-3.0,-6.0,-4.0,1651069796429999.0,3
1671,0.0,-8.0,-2.0,-5.0,-11.0,-8.0,7.0,6.0,1651069796429999.0,3
1672,-1.0,-3.0,-4.0,0.0,2.0,6.0,3.0,-2.0,1651069796444911.0,3
1673,2.0,2.0,-2.0,-8.0,-7.0,-10.0,-2.0,2.0,1651069796444911.0,3
1674,1.0,-2.0,1.0,3.0,3.0,14.0,4.0,2.0,1651069796446104.0,3
1675,-1.0,3.0,-2.0,-1.0,-10.0,-6.0,-5.0,-6.0,1651069796446104.0,3
1676,-1.0,-2.0,-2.0,1.0,6.0,-1.0,-1.0,0.0,1651069796467205.0,3
1677,0.0,0.0,-1.0,-1.0,1.0,1.0,0.0,-1.0,1651069796467205.0,3
1678,0.0,-3.0,-1.0,-5.0,-5.0,-9.0,-2.0,0.0,1651069796468140.0,3
1679,0.0,-3.0,-3.0,-4.0,-5.0,-3.0,-3.0,-1.0,1651069796468140.0,3
1680,-1.0,1.0,1.0,5.0,11.0,7.0,-1.0,0.0,1651069796481215.0,3
1681,0.0,2.0,0.0,-1.0,-1.0,0.0,0.0,0.0,1651069796481215.0,3
1682,-2.0,-2.0,-2.0,3.0,-2.0,-1.0,2.0,-1.0,1651069796489208.0,3
1683,-2.0,-1.0,-4.0,-7.0,-6.0,-2.0,1.0,0.0,1651069796489208.0,3
1684,-1.0,1.0,4.0,-1.0,-2.0,-4.0,-3.0,2.0,1651069796504517.0,3
1685,0.0,2.0,3.0,5.0,-2.0,-1.0,-1.0,-1.0,1651069796504517.0,3
1686,0.0,-3.0,-2.0,-1.0,2.0,-2.0,0.0,1.0,1651069796506444.0,3
1687,-4.0,-2.0,0.0,1.0,6.0,6.0,0.0,-4.0,1651069796506444.0,3
1688,1.0,3.0,-3.0,-16.0,-7.0,-1.0,0.0,-1.0,1651069796526662.0,3
1689,1.0,2.0,3.0,0.0,-3.0,-4.0,-3.0,-2.0,1651069796526662.0,3
1690,2.0,-6.0,-8.0,5.0,1.0,1.0,1.0,0.0,1651069796528590.0,3
1691,4.0,7.0,0.0,11.0,7.0,0.0,0.0,0.0,1651069796528590.0,3
1692,-2.0,-2.0,10.0,-11.0,5.0,2.0,1.0,0.0,1651069796540625.0,3
1693,-5.0,-1.0,-5.0,16.0,-3.0,3.0,1.0,-1.0,1651069796540625.0,3
1694,1.0,-9.0,-4.0,-20.0,-11.0,-8.0,-4.0,0.0,1651069796549567.0,3
1695,5.0,0.0,-7.0,-34.0,-8.0,-5.0,-3.0,-7.0,1651069796549567.0,3
1696,14.0,16.0,-2.0,22.0,4.0,2.0,-3.0,3.0,1651069796564673.0,3
1697,-16.0,-23.0,19.0,32.0,8.0,0.0,10.0,4.0,1651069796564673.0,3
1698,6.0,17.0,-8.0,-20.0,-6.0,-5.0,-5.0,1.0,1651069796565677.0,3
1699,11.0,-5.0,-12.0,-18.0,-15.0,-5.0,-2.0,2.0,1651069796565677.0,3
1700,-18.0,8.0,2.0,37.0,20.0,3.0,-1.0,-6.0,1651069796586690.0,3
1701,4.0,-1.0,-24.0,-23.0,7.0,5.0,-3.0,-2.0,1651069796586690.0,3
1702,-11.0,-11.0,27.0,-1.0,-12.0,-6.0,0.0,-2.0,1651069796588613.0,3
1703,-15.0,-3.0,-4.0,-24.0,-23.0,-8.0,-4.0,-4.0,1651069796588613.0,3
1704,19.0,10.0,-4.0,-3.0,-8.0,0.0,1.0,5.0,1651069796601086.0,3
1705,6.0,-2.0,-8.0,25.0,18.0,5.0,0.0,1.0,1651069796601086.0,3
1706,9.0,24.0,30.0,52.0,11.0,3.0,2.0,0.0,1651069796609396.0,3
1707,-8.0,-25.0,-27.0,-77.0,3.0,3.0,1.0,2.0,1651069796609396.0,3
1708,-19.0,-18.0,-19.0,-38.0,-6.0,-6.0,-5.0,-6.0,1651069796624962.0,3
1709,4.0,10.0,14.0,-16.0,-6.0,-1.0,0.0,2.0,1651069796624962.0,3
1710,8.0,-11.0,-24.0,20.0,2.0,1.0,-1.0,0.0,1651069796626320.0,3
1711,7.0,38.0,55.0,31.0,-19.0,4.0,4.0,-2.0,1651069796626320.0,3
1712,-14.0,-20.0,-19.0,74.0,18.0,-1.0,2.0,6.0,1651069796647496.0,3
1713,-3.0,1.0,-4.0,-15.0,-12.0,-5.0,-3.0,-2.0,1651069796647496.0,3
1714,-7.0,-19.0,-76.0,-75.0,-19.0,-8.0,-5.0,-5.0,1651069796648484.0,3
1715,15.0,15.0,6.0,39.0,38.0,12.0,1.0,1.0,1651069796648484.0,3
1716,-9.0,-17.0,-34.0,-43.0,-25.0,-13.0,-5.0,-5.0,1651069796660518.0,3
1717,3.0,13.0,23.0,5.0,-19.0,-3.0,1.0,0.0,1651069796660518.0,3
1718,0.0,-1.0,10.0,2.0,4.0,4.0,4.0,4.0,1651069796675635.0,3
1719,0.0,1.0,-11.0,73.0,21.0,3.0,1.0,1.0,1651069796675635.0,3
1720,10.0,4.0,20.0,-32.0,3.0,8.0,3.0,0.0,1651069796684609.0,3
1721,2.0,-2.0,0.0,6.0,11.0,0.0,-6.0,-3.0,1651069796684609.0,3
1722,3.0,12.0,5.0,-23.0,-20.0,-7.0,-2.0,-4.0,1651069796686576.0,3
1723,-27.0,-23.0,-2.0,-21.0,1.0,0.0,2.0,-1.0,1651069796686576.0,3
1724,9.0,10.0,10.0,44.0,6.0,-1.0,1.0,3.0,1651069796707525.0,3
1725,0.0,-1.0,23.0,-4.0,2.0,0.0,1.0,-2.0,1651069796707525.0,3
1726,-2.0,2.0,3.0,4.0,3.0,4.0,1.0,1.0,1651069796708515.0,3
1727,3.0,2.0,-3.0,12.0,-9.0,-7.0,-7.0,-3.0,1651069796708515.0,3
1728,4.0,0.0,24.0,3.0,-1.0,1.0,0.0,1.0,1651069796720468.0,3
1729,-8.0,-14.0,-52.0,-48.0,-9.0,-2.0,0.0,-2.0,1651069796720468.0,3
1730,-2.0,-1.0,22.0,40.0,20.0,3.0,-1.0,-1.0,1651069796729444.0,3
1731,1.0,3.0,15.0,-12.0,-2.0,-1.0,-1.0,2.0,1651069796729444.0,3
1732,-4.0,-8.0,-16.0,-24.0,-12.0,-2.0,1.0,-2.0,1651069796744534.0,3
1733,2.0,-2.0,-3.0,9.0,0.0,1.0,0.0,-2.0,1651069796744534.0,3
1734,-3.0,0.0,18.0,11.0,5.0,2.0,-1.0,0.0,1651069796746538.0,3
1735,0.0,-7.0,-41.0,-7.0,-8.0,-2.0,-1.0,0.0,1651069796746538.0,3
1736,0.0,6.0,33.0,10.0,8.0,2.0,0.0,-1.0,1651069796766652.0,3
1737,2.0,9.0,15.0,-3.0,-3.0,-1.0,-1.0,0.0,1651069796766652.0,3
1738,-4.0,-6.0,-16.0,0.0,4.0,0.0,1.0,1.0,1651069796768580.0,3
1739,-1.0,-5.0,0.0,-1.0,1.0,0.0,0.0,-2.0,1651069796768580.0,3
1740,1.0,-2.0,-17.0,-19.0,-11.0,-5.0,0.0,-1.0,1651069796780614.0,3
1741,0.0,-3.0,-5.0,5.0,3.0,-1.0,0.0,-1.0,1651069796780614.0,3
1742,-2.0,0.0,16.0,-3.0,-2.0,1.0,0.0,3.0,1651069796789658.0,3
1743,3.0,0.0,2.0,19.0,1.0,0.0,3.0,2.0,1651069796789658.0,3
1744,0.0,-3.0,-27.0,-16.0,3.0,2.0,0.0,1.0,1651069796804700.0,3
1745,-3.0,1.0,54.0,14.0,0.0,-2.0,-2.0,-2.0,1651069796804700.0,3
1746,-3.0,-2.0,-27.0,-5.0,1.0,-2.0,-3.0,-4.0,1651069796805697.0,3
1747,-1.0,-3.0,-23.0,-2.0,-5.0,0.0,-1.0,1.0,1651069796805697.0,3
1748,0.0,7.0,27.0,0.0,-1.0,0.0,1.0,0.0,1651069796826641.0,3
1749,-1.0,-4.0,-36.0,3.0,0.0,-2.0,0.0,1.0,1651069796826641.0,3
1750,-2.0,0.0,17.0,0.0,0.0,-1.0,-2.0,-2.0,1651069796828636.0,3
1751,-2.0,1.0,35.0,12.0,-1.0,-3.0,-1.0,1.0,1651069796828636.0,3
1752,0.0,-2.0,-9.0,-22.0,-10.0,5.0,1.0,0.0,1651069796840670.0,3
1753,-2.0,0.0,6.0,10.0,9.0,2.0,-1.0,-1.0,1651069796840670.0,3
1754,1.0,1.0,-18.0,12.0,3.0,0.0,-1.0,0.0,1651069796849579.0,3
1755,2.0,2.0,32.0,0.0,-1.0,-2.0,1.0,-1.0,1651069796849579.0,3
1756,-1.0,-1.0,4.0,1.0,0.0,-1.0,-1.0,-1.0,1651069796864707.0,3
1757,-3.0,-3.0,-6.0,-12.0,-12.0,-4.0,-1.0,-1.0,1651069796864707.0,3
1758,2.0,0.0,-11.0,-14.0,-2.0,-4.0,-1.0,1.0,1651069796866635.0,3
1759,-2.0,-2.0,-3.0,8.0,1.0,0.0,-1.0,-2.0,1651069796866635.0,3
1760,0.0,1.0,0.0,10.0,5.0,0.0,0.0,-1.0,1651069796886738.0,3
1761,0.0,2.0,29.0,3.0,3.0,3.0,0.0,0.0,1651069796886738.0,3
1762,-1.0,-3.0,-4.0,-4.0,-7.0,-3.0,0.0,-1.0,1651069796888665.0,3
1763,-1.0,0.0,0.0,-1.0,1.0,1.0,0.0,0.0,1651069796888665.0,3
1764,-2.0,-2.0,0.0,2.0,1.0,-1.0,-1.0,-1.0,1651069796901111.0,3
1765,0.0,-5.0,-23.0,-1.0,-2.0,-1.0,-1.0,0.0,1651069796901111.0,3
1766,-1.0,-1.0,6.0,0.0,-2.0,2.0,1.0,2.0,1651069796909606.0,3
1767,1.0,1.0,0.0,4.0,3.0,0.0,0.0,-2.0,1651069796909606.0,3
1768,0.0,-2.0,-15.0,8.0,-3.0,-4.0,-4.0,0.0,1651069796924784.0,3
1769,1.0,5.0,16.0,-15.0,0.0,2.0,5.0,2.0,1651069796924784.0,3
1770,-2.0,-2.0,-4.0,3.0,1.0,0.0,-1.0,0.0,1651069796925716.0,3
1771,-2.0,-2.0,1.0,-2.0,0.0,0.0,-2.0,-1.0,1651069796925716.0,3
1772,0.0,1.0,18.0,8.0,1.0,-4.0,-2.0,-1.0,1651069796946726.0,3
1773,0.0,0.0,-12.0,-6.0,-1.0,0.0,0.0,0.0,1651069796946726.0,3
1774,-1.0,-7.0,-18.0,4.0,-1.0,0.0,-1.0,-2.0,1651069796953687.0,3
1775,0.0,2.0,26.0,5.0,3.0,2.0,2.0,2.0,1651069796953687.0,3
1776,1.0,-3.0,-11.0,-3.0,-1.0,0.0,-1.0,-3.0,1651069796960808.0,3
1777,-2.0,-3.0,-24.0,-6.0,-1.0,-1.0,-3.0,-1.0,1651069796960808.0,3
1778,-1.0,1.0,16.0,-9.0,-2.0,0.0,-1.0,1.0,1651069796969717.0,3
1779,0.0,-3.0,-12.0,3.0,-3.0,-2.0,-2.0,-2.0,1651069796969717.0,3
1780,-1.0,3.0,17.0,1.0,0.0,0.0,0.0,0.0,1651069796984963.0,3
1781,1.0,-2.0,-8.0,7.0,5.0,-1.0,-1.0,0.0,1651069796984963.0,3
1782,-1.0,-1.0,-2.0,-2.0,-2.0,0.0,-1.0,-1.0,1651069796985949.0,3
1783,0.0,0.0,-4.0,0.0,-3.0,1.0,0.0,-2.0,1651069796985949.0,3
1784,0.0,1.0,23.0,2.0,4.0,2.0,0.0,0.0,1651069797006604.0,3
1785,0.0,0.0,-35.0,-20.0,-10.0,-6.0,-3.0,-3.0,1651069797006604.0,3
1786,-1.0,-4.0,2.0,9.0,7.0,1.0,1.0,0.0,1651069797008602.0,3
1787,0.0,2.0,1.0,-9.0,-1.0,1.0,1.0,0.0,1651069797008602.0,3
1788,-1.0,-4.0,-18.0,1.0,-2.0,-3.0,-1.0,-1.0,1651069797020637.0,3
1789,-2.0,0.0,7.0,-7.0,-6.0,-1.0,-1.0,1.0,1651069797020637.0,3
1790,1.0,0.0,5.0,7.0,1.0,0.0,-1.0,-1.0,1651069797035637.0,3
1791,-1.0,-2.0,-8.0,-1.0,1.0,0.0,1.0,0.0,1651069797035637.0,3
1792,0.0,3.0,22.0,8.0,-1.0,-1.0,-1.0,-2.0,1651069797044451.0,3
1793,0.0,1.0,0.0,1.0,-1.0,-3.0,-2.0,2.0,1651069797044451.0,3
1794,-1.0,0.0,-2.0,-11.0,-6.0,2.0,-2.0,0.0,1651069797046406.0,3
1795,0.0,-2.0,-5.0,2.0,9.0,2.0,0.0,0.0,1651069797046406.0,3
1796,-2.0,0.0,-9.0,-3.0,-6.0,-2.0,1.0,-1.0,1651069797067389.0,3
1797,0.0,0.0,9.0,11.0,4.0,0.0,-1.0,-3.0,1651069797067389.0,3
1798,1.0,0.0,-7.0,-11.0,-5.0,1.0,1.0,-1.0,1651069797068320.0,3
1799,-1.0,1.0,-4.0,-3.0,-3.0,-2.0,0.0,-1.0,1651069797068320.0,3
1800,0.0,-2.0,-21.0,-10.0,1.0,3.0,0.0,-1.0,1651069797080399.0,3
1801,-2.0,-3.0,-10.0,1.0,8.0,3.0,0.0,-1.0,1651069797080399.0,3
1802,0.0,2.0,11.0,7.0,1.0,-3.0,0.0,-1.0,1651069797089351.0,3
1803,-1.0,-2.0,1.0,-10.0,-5.0,-3.0,-1.0,0.0,1651069797089351.0,3
1804,-1.0,-2.0,-2.0,-2.0,-2.0,-1.0,-1.0,1.0,1651069797104398.0,3
1805,0.0,-1.0,-3.0,2.0,-1.0,0.0,2.0,-1.0,1651069797104398.0,3
1806,-1.0,0.0,3.0,9.0,2.0,0.0,0.0,-1.0,1651069797106423.0,3
1807,0.0,-1.0,-8.0,-2.0,-1.0,-1.0,-2.0,-1.0,1651069797106423.0,3
1808,-3.0,-1.0,8.0,-2.0,0.0,-2.0,-1.0,0.0,1651069797127525.0,3
1809,1.0,-1.0,-1.0,4.0,2.0,3.0,0.0,1.0,1651069797127525.0,3
1810,0.0,-1.0,0.0,-2.0,-3.0,-1.0,-2.0,-1.0,1651069797128491.0,3
1811,-2.0,0.0,2.0,-1.0,-5.0,-2.0,-2.0,-2.0,1651069797128491.0,3
1812,2.0,1.0,12.0,10.0,-1.0,-4.0,-1.0,0.0,1651069797149435.0,3
1813,-1.0,-1.0,-1.0,-4.0,2.0,2.0,-1.0,0.0,1651069797149435.0,3
1814,-2.0,-1.0,1.0,7.0,0.0,1.0,2.0,-1.0,1651069797151457.0,3
1815,-1.0,-6.0,-16.0,-7.0,-3.0,-4.0,-2.0,-1.0,1651069797151457.0,3
1816,0.0,-1.0,0.0,11.0,9.0,2.0,-2.0,-2.0,1651069797164539.0,3
1817,1.0,5.0,38.0,2.0,-3.0,1.0,3.0,1.0,1651069797164539.0,3
1818,-1.0,0.0,8.0,-4.0,-3.0,-1.0,-1.0,-2.0,1651069797166566.0,3
1819,-1.0,-1.0,-7.0,-7.0,-3.0,0.0,2.0,0.0,1651069797166566.0,3
1820,-1.0,-2.0,-6.0,4.0,2.0,-4.0,1.0,-1.0,1651069797187541.0,3
1821,2.0,0.0,-7.0,-6.0,-6.0,-2.0,0.0,-1.0,1651069797187541.0,3
1822,-2.0,0.0,-7.0,-5.0,-4.0,-3.0,1.0,0.0,1651069797188534.0,3
1823,-1.0,0.0,11.0,5.0,0.0,0.0,-1.0,-2.0,1651069797188534.0,3
1824,0.0,-1.0,-13.0,-15.0,-3.0,-2.0,0.0,0.0,1651069797209935.0,3
1825,-2.0,-1.0,-8.0,1.0,-1.0,-1.0,-1.0,-1.0,1651069797209935.0,3
1826,0.0,-1.0,10.0,10.0,1.0,1.0,-2.0,0.0,1651069797210678.0,3
1827,-3.0,-2.0,-11.0,-3.0,0.0,1.0,0.0,0.0,1651069797210678.0,3
1828,1.0,1.0,17.0,3.0,-5.0,1.0,-1.0,0.0,1651069797224705.0,3
1829,-1.0,-1.0,6.0,7.0,3.0,1.0,1.0,-1.0,1651069797224705.0,3
1830,0.0,-3.0,-7.0,-5.0,-1.0,-2.0,-2.0,0.0,1651069797225664.0,3
1831,0.0,-1.0,-1.0,-3.0,-1.0,-2.0,-3.0,-1.0,1651069797225664.0,3
1832,-1.0,0.0,-8.0,-2.0,0.0,3.0,1.0,-1.0,1651069797246650.0,3
1833,-1.0,0.0,-3.0,-1.0,-3.0,-3.0,-2.0,-1.0,1651069797246650.0,3
1834,0.0,-2.0,-1.0,-6.0,1.0,-2.0,0.0,1.0,1651069797248579.0,3
1835,0.0,-2.0,0.0,5.0,-1.0,-1.0,0.0,1.0,1651069797248579.0,3
1836,1.0,-2.0,-2.0,-5.0,-3.0,1.0,0.0,-1.0,1651069797269797.0,3
1837,0.0,0.0,-13.0,-4.0,-4.0,-3.0,-2.0,0.0,1651069797269797.0,3
1838,-2.0,1.0,-6.0,2.0,7.0,4.0,0.0,-1.0,1651069797270765.0,3
1839,1.0,1.0,10.0,1.0,6.0,7.0,4.0,1.0,1651069797270765.0,3
1840,-2.0,-2.0,-12.0,1.0,-7.0,-4.0,-1.0,0.0,1651069797283680.0,3
1841,0.0,-2.0,2.0,2.0,3.0,2.0,0.0,0.0,1651069797283680.0,3
1842,-1.0,2.0,7.0,-6.0,-7.0,-5.0,1.0,0.0,1651069797291109.0,3
1843,-1.0,1.0,-3.0,4.0,4.0,-1.0,-3.0,0.0,1651069797291109.0,3
1844,0.0,1.0,4.0,-5.0,-1.0,1.0,0.0,-2.0,1651069797305675.0,3
1845,-1.0,-2.0,-4.0,-2.0,-3.0,-2.0,-2.0,-2.0,1651069797305675.0,3
1846,0.0,2.0,17.0,11.0,1.0,2.0,0.0,0.0,1651069797314763.0,3
1847,-1.0,-2.0,-9.0,-3.0,-4.0,-1.0,-1.0,-1.0,1651069797314763.0,3
1848,-2.0,1.0,7.0,-1.0,1.0,0.0,-1.0,-3.0,1651069797329708.0,3
1849,1.0,0.0,-5.0,-3.0,-9.0,-2.0,-2.0,0.0,1651069797329708.0,3
1850,1.0,-1.0,-4.0,2.0,6.0,-1.0,-1.0,-1.0,1651069797330707.0,3
1851,-1.0,0.0,0.0,0.0,3.0,-1.0,1.0,-1.0,1651069797330707.0,3
1852,0.0,-2.0,-6.0,-3.0,-2.0,-1.0,0.0,0.0,1651069797343687.0,0
1853,0.0,2.0,2.0,1.0,2.0,0.0,0.0,-2.0,1651069797343687.0,0
1854,-1.0,-2.0,-5.0,-8.0,-7.0,-2.0,-1.0,-2.0,1651069797352666.0,0
1855,0.0,-2.0,4.0,13.0,2.0,-1.0,-2.0,1.0,1651069797352666.0,0
1856,1.0,-1.0,-28.0,-24.0,4.0,-1.0,1.0,1.0,1651069797366638.0,0
1857,-1.0,-2.0,-12.0,0.0,3.0,-1.0,-1.0,-1.0,1651069797366638.0,0
1858,0.0,3.0,19.0,2.0,0.0,-1.0,-2.0,0.0,1651069797368607.0,0
1859,-1.0,2.0,13.0,0.0,0.0,1.0,2.0,1.0,1651069797368607.0,0
1860,0.0,-1.0,-1.0,4.0,-4.0,0.0,2.0,1.0,1651069797389461.0,0
1861,0.0,-1.0,-3.0,7.0,8.0,5.0,2.0,-1.0,1651069797389461.0,0
1862,-1.0,2.0,1.0,-6.0,-1.0,-2.0,-1.0,-1.0,1651069797391387.0,0
1863,-2.0,-3.0,-5.0,-5.0,-7.0,-3.0,-4.0,-3.0,1651069797391387.0,0
1864,0.0,-2.0,5.0,4.0,-7.0,-4.0,-2.0,-3.0,1651069797404412.0,0
1865,0.0,0.0,-1.0,-10.0,1.0,1.0,0.0,0.0,1651069797404412.0,0
1866,0.0,0.0,3.0,11.0,-6.0,-2.0,0.0,1.0,1651069797410504.0,0
1867,1.0,2.0,-2.0,1.0,10.0,4.0,1.0,1.0,1651069797410504.0,0
1868,-1.0,-1.0,-1.0,0.0,2.0,0.0,-2.0,0.0,1651069797427489.0,0
1869,1.0,0.0,-2.0,-8.0,-4.0,-3.0,0.0,0.0,1651069797427489.0,0
1870,0.0,0.0,-3.0,2.0,4.0,1.0,0.0,-2.0,1651069797428450.0,0
1871,0.0,1.0,-2.0,-5.0,-11.0,-5.0,-2.0,0.0,1651069797428450.0,0
1872,2.0,-2.0,-8.0,-4.0,8.0,0.0,-1.0,2.0,1651069797449614.0,0
1873,-1.0,1.0,7.0,4.0,-2.0,0.0,1.0,0.0,1651069797449614.0,0
1874,0.0,-1.0,-6.0,0.0,0.0,2.0,0.0,1.0,1651069797450614.0,0
1875,1.0,-1.0,-2.0,-4.0,-4.0,-3.0,-1.0,1.0,1651069797450614.0,0
1876,-1.0,1.0,6.0,3.0,3.0,-1.0,-1.0,-1.0,1651069797463751.0,0
1877,-3.0,-2.0,0.0,1.0,0.0,0.0,-1.0,-1.0,1651069797463751.0,0
1878,0.0,-3.0,-7.0,-12.0,-9.0,-5.0,-4.0,-3.0,1651069797470779.0,0
1879,0.0,-2.0,-6.0,-5.0,2.0,6.0,2.0,0.0,1651069797470779.0,0
1880,0.0,1.0,4.0,15.0,8.0,2.0,-4.0,0.0,1651069797486993.0,0
1881,-1.0,-1.0,1.0,-4.0,0.0,-2.0,0.0,1.0,1651069797486993.0,0
1882,0.0,-3.0,-5.0,-3.0,-2.0,-1.0,0.0,0.0,1651069797489009.0,0
1883,1.0,-1.0,0.0,-1.0,-3.0,1.0,1.0,-1.0,1651069797489009.0,0
1884,-2.0,-1.0,1.0,-6.0,-7.0,-2.0,0.0,-1.0,1651069797509996.0,0
1885,0.0,-2.0,1.0,0.0,-2.0,-3.0,-2.0,-2.0,1651069797509996.0,0
1886,-1.0,0.0,1.0,4.0,2.0,-2.0,-3.0,-1.0,1651069797510998.0,0
1887,1.0,0.0,-3.0,-6.0,-3.0,-5.0,-3.0,-1.0,1651069797510998.0,0
1888,-2.0,0.0,4.0,11.0,6.0,5.0,2.0,0.0,1651069797524027.0,0
1889,0.0,0.0,-7.0,-6.0,-4.0,-3.0,-2.0,0.0,1651069797524027.0,0
1890,1.0,-2.0,-9.0,-2.0,5.0,2.0,2.0,-1.0,1651069797531059.0,0
1891,0.0,1.0,31.0,16.0,0.0,-1.0,0.0,1.0,1651069797531059.0,0
1892,0.0,0.0,-10.0,-13.0,-5.0,-4.0,0.0,-1.0,1651069797546768.0,0
1893,0.0,-1.0,-4.0,-1.0,-2.0,-3.0,-1.0,-1.0,1651069797546768.0,0
1894,-1.0,1.0,-4.0,0.0,0.0,0.0,1.0,0.0,1651069797548696.0,0
1895,-1.0,-1.0,-1.0,2.0,1.0,-2.0,-2.0,0.0,1651069797548696.0,0
1896,-2.0,-1.0,-1.0,-5.0,-4.0,-1.0,-1.0,-1.0,1651069797569961.0,0
