,EMG_s0,EMG_s1,EMG_s2,EMG_s3,EMG_s4,EMG_s5,EMG_s6,EMG_s7,timestamp,signal
0,0.0,8.0,-2.0,-8.0,-5.0,-3.0,-1.0,0.0,1651087139450244.0,0
1,1.0,-12.0,4.0,10.0,12.0,0.0,0.0,0.0,1651087139450244.0,0
2,-2.0,9.0,-4.0,-1.0,1.0,2.0,3.0,0.0,1651087139451068.0,0
3,-3.0,-14.0,3.0,0.0,-4.0,-2.0,-1.0,-2.0,1651087139451068.0,0
4,1.0,1.0,-4.0,1.0,10.0,8.0,0.0,1.0,1651087139464416.0,0
5,0.0,1.0,1.0,-5.0,-11.0,-7.0,-2.0,0.0,1651087139464416.0,0
6,0.0,0.0,0.0,-3.0,-1.0,-2.0,0.0,-2.0,1651087139480167.0,0
7,0.0,6.0,5.0,3.0,4.0,0.0,1.0,0.0,1651087139480167.0,0
8,-1.0,-2.0,-2.0,0.0,0.0,0.0,1.0,-2.0,1651087139487148.0,0
9,-1.0,1.0,-2.0,-7.0,-9.0,-2.0,-1.0,-3.0,1651087139487148.0,0
10,0.0,-6.0,1.0,3.0,-3.0,1.0,0.0,0.0,1651087139488113.0,0
11,-2.0,4.0,-3.0,-2.0,1.0,0.0,-1.0,-2.0,1651087139488113.0,0
12,0.0,-5.0,-2.0,0.0,2.0,1.0,1.0,0.0,1651087139510127.0,0
13,0.0,5.0,-4.0,-5.0,-4.0,-4.0,0.0,-1.0,1651087139510127.0,0
14,-1.0,-4.0,7.0,6.0,5.0,1.0,0.0,-2.0,1651087139511124.0,0
15,0.0,-4.0,6.0,1.0,1.0,1.0,0.0,-2.0,1651087139511124.0,0
16,-2.0,-1.0,-11.0,-1.0,2.0,1.0,2.0,-1.0,1651087139533225.0,0
17,0.0,6.0,1.0,-4.0,-9.0,-2.0,-2.0,0.0,1651087139533225.0,0
18,0.0,-5.0,-7.0,-4.0,-3.0,-1.0,0.0,0.0,1651087139533225.0,0
19,0.0,2.0,-1.0,1.0,1.0,1.0,-1.0,1.0,1651087139533225.0,0
20,-1.0,-4.0,6.0,-2.0,-1.0,-2.0,-1.0,-3.0,1651087139548537.0,0
21,1.0,-3.0,-11.0,-3.0,-6.0,-6.0,-2.0,0.0,1651087139548537.0,0
22,-1.0,-4.0,-7.0,-9.0,-4.0,3.0,0.0,0.0,1651087139548537.0,0
23,-2.0,-1.0,0.0,8.0,13.0,5.0,3.0,0.0,1651087139548537.0,0
24,0.0,3.0,3.0,-3.0,-2.0,-3.0,0.0,0.0,1651087139571157.0,0
25,-2.0,-10.0,-7.0,-2.0,-1.0,3.0,0.0,0.0,1651087139571157.0,0
26,-1.0,-2.0,-4.0,-1.0,-4.0,-4.0,-2.0,-2.0,1651087139572157.0,0
27,-1.0,5.0,-1.0,-2.0,-3.0,0.0,-1.0,0.0,1651087139572157.0,0
28,-1.0,-2.0,-3.0,2.0,-2.0,-1.0,-2.0,0.0,1651087139592332.0,0
29,-2.0,2.0,7.0,2.0,-1.0,-1.0,-1.0,-1.0,1651087139592332.0,0
30,2.0,2.0,-1.0,3.0,-3.0,-4.0,-1.0,0.0,1651087139593201.0,0
31,0.0,-3.0,-7.0,-17.0,-4.0,4.0,-1.0,-1.0,1651087139593201.0,0
32,-2.0,2.0,13.0,7.0,7.0,1.0,1.0,-1.0,1651087139608668.0,0
33,-3.0,-2.0,12.0,3.0,4.0,0.0,1.0,1.0,1651087139608668.0,0
34,-1.0,3.0,2.0,-1.0,-4.0,-3.0,-4.0,-1.0,1651087139609072.0,0
35,1.0,4.0,4.0,0.0,-6.0,-3.0,-3.0,1.0,1651087139609072.0,0
36,-1.0,-5.0,-16.0,-5.0,-1.0,0.0,1.0,1.0,1651087139629841.0,0
37,1.0,2.0,1.0,-4.0,-10.0,-4.0,-5.0,-1.0,1651087139629841.0,0
38,-2.0,7.0,0.0,-3.0,0.0,-3.0,-1.0,-3.0,1651087139630794.0,0
39,-2.0,-10.0,3.0,10.0,12.0,6.0,2.0,0.0,1651087139630794.0,0
40,1.0,5.0,-1.0,-5.0,-8.0,-1.0,0.0,-2.0,1651087139653043.0,0
41,-3.0,-11.0,1.0,7.0,8.0,4.0,-1.0,-1.0,1651087139653043.0,0
42,-1.0,-2.0,-2.0,-2.0,-1.0,-1.0,-1.0,0.0,1651087139653103.0,0
43,1.0,4.0,3.0,-3.0,-5.0,-5.0,0.0,-1.0,1651087139653103.0,0
44,-1.0,0.0,-2.0,1.0,3.0,3.0,-1.0,0.0,1651087139668065.0,0
45,0.0,-9.0,-5.0,-3.0,-5.0,-3.0,-1.0,-1.0,1651087139668065.0,0
46,-2.0,-4.0,0.0,-2.0,-1.0,1.0,1.0,-2.0,1651087139668065.0,0
47,0.0,4.0,2.0,-1.0,-1.0,-2.0,-2.0,0.0,1651087139668065.0,0
48,1.0,-7.0,-11.0,2.0,1.0,1.0,0.0,0.0,1651087139690229.0,0
49,1.0,10.0,2.0,6.0,8.0,2.0,0.0,1.0,1651087139690229.0,0
50,-1.0,-2.0,3.0,2.0,0.0,1.0,-1.0,-1.0,1651087139691258.0,0
51,0.0,-1.0,0.0,1.0,-4.0,-2.0,0.0,-1.0,1651087139691258.0,0
52,-1.0,-6.0,-6.0,-8.0,-10.0,-4.0,-2.0,-3.0,1651087139712381.0,0
53,0.0,-2.0,-3.0,-1.0,1.0,1.0,1.0,-1.0,1651087139712381.0,0
54,0.0,3.0,0.0,-1.0,1.0,-2.0,-1.0,1.0,1651087139713233.0,0
55,-3.0,-2.0,-8.0,-3.0,-5.0,-2.0,-1.0,0.0,1651087139713233.0,0
56,-2.0,2.0,11.0,-1.0,-2.0,-1.0,-2.0,1.0,1651087139727096.0,0
57,0.0,5.0,-2.0,0.0,-1.0,0.0,1.0,-1.0,1651087139727096.0,0
58,-2.0,-9.0,-4.0,4.0,6.0,3.0,2.0,0.0,1651087139728109.0,0
59,1.0,7.0,7.0,-7.0,1.0,-1.0,-1.0,-1.0,1651087139728109.0,0
60,1.0,-1.0,-1.0,0.0,0.0,-2.0,-1.0,0.0,1651087139750186.0,0
61,-1.0,-7.0,4.0,-10.0,-13.0,0.0,-1.0,0.0,1651087139750186.0,0
62,0.0,9.0,1.0,11.0,9.0,1.0,1.0,1.0,1651087139751045.0,0
63,0.0,-2.0,-4.0,2.0,0.0,1.0,-2.0,-1.0,1651087139751045.0,0
64,-1.0,-2.0,4.0,-1.0,-1.0,-4.0,0.0,0.0,1651087139773065.0,0
65,-2.0,-3.0,-8.0,1.0,4.0,3.0,-1.0,-1.0,1651087139773065.0,0
66,1.0,-6.0,8.0,-2.0,0.0,2.0,-1.0,0.0,1651087139773065.0,0
67,0.0,5.0,-2.0,1.0,1.0,-3.0,2.0,-2.0,1651087139773065.0,0
68,-1.0,-4.0,3.0,1.0,-1.0,-1.0,-1.0,-2.0,1651087139789299.0,0
69,-1.0,11.0,10.0,-6.0,-6.0,-4.0,-2.0,-1.0,1651087139789299.0,0
70,0.0,-2.0,-14.0,-1.0,2.0,-1.0,2.0,0.0,1651087139790298.0,0
71,-2.0,-4.0,1.0,3.0,-2.0,-1.0,-2.0,0.0,1651087139790298.0,0
72,0.0,-3.0,-7.0,-6.0,-5.0,-2.0,0.0,0.0,1651087139809229.0,0
73,-1.0,1.0,4.0,6.0,2.0,5.0,0.0,0.0,1651087139809229.0,0
74,0.0,10.0,8.0,-2.0,0.0,0.0,-1.0,0.0,1651087139818060.0,0
75,-1.0,-6.0,1.0,-3.0,1.0,-1.0,-1.0,0.0,1651087139818060.0,0
76,-1.0,4.0,3.0,7.0,10.0,2.0,-2.0,1.0,1651087139833091.0,0
77,-1.0,0.0,0.0,-4.0,-3.0,-3.0,-2.0,0.0,1651087139833091.0,0
78,0.0,2.0,3.0,-4.0,-9.0,-2.0,0.0,-1.0,1651087139833091.0,0
79,1.0,-2.0,-3.0,-3.0,-11.0,-4.0,-5.0,-1.0,1651087139833091.0,0
80,0.0,-4.0,-1.0,-3.0,1.0,2.0,1.0,1.0,1651087139855363.0,0
81,1.0,10.0,0.0,0.0,5.0,1.0,-2.0,0.0,1651087139855363.0,0
82,-3.0,-6.0,-1.0,0.0,4.0,1.0,0.0,0.0,1651087139856240.0,0
83,2.0,-4.0,0.0,-2.0,-4.0,-2.0,-1.0,-1.0,1651087139856240.0,0
84,-3.0,2.0,-12.0,-3.0,-6.0,0.0,-2.0,0.0,1651087139869219.0,0
85,-1.0,-5.0,-4.0,-5.0,-7.0,-7.0,0.0,-1.0,1651087139869219.0,0
86,0.0,-3.0,9.0,4.0,9.0,6.0,1.0,-1.0,1651087139877347.0,0
87,-1.0,-2.0,-12.0,-5.0,-4.0,-3.0,-2.0,-2.0,1651087139877347.0,0
88,0.0,3.0,7.0,-1.0,0.0,-3.0,-1.0,-1.0,1651087139892341.0,0
89,1.0,-2.0,-2.0,0.0,6.0,4.0,3.0,0.0,1651087139892341.0,0
90,0.0,0.0,4.0,2.0,-8.0,-4.0,-3.0,-1.0,1651087139893199.0,0
91,0.0,2.0,-5.0,-3.0,0.0,1.0,1.0,2.0,1651087139893199.0,0
92,0.0,6.0,7.0,8.0,10.0,7.0,1.0,1.0,1651087139923109.0,0
93,1.0,3.0,-4.0,1.0,-1.0,-4.0,1.0,1.0,1651087139923109.0,0
94,-4.0,-17.0,-10.0,4.0,1.0,-2.0,0.0,-2.0,1651087139924108.0,0
95,0.0,0.0,2.0,-2.0,-1.0,1.0,-1.0,0.0,1651087139924108.0,0
96,1.0,-8.0,-5.0,-4.0,-3.0,-1.0,2.0,1.0,1651087139929126.0,0
97,0.0,6.0,2.0,-2.0,-3.0,0.0,0.0,1.0,1651087139929126.0,0
98,0.0,-1.0,-4.0,-1.0,1.0,-1.0,0.0,2.0,1651087139938154.0,0
99,0.0,-3.0,6.0,5.0,4.0,1.0,-1.0,0.0,1651087139938154.0,0
100,-1.0,3.0,-11.0,0.0,0.0,-1.0,-1.0,-3.0,1651087139953223.0,0
101,-1.0,-11.0,0.0,-2.0,0.0,2.0,-1.0,-1.0,1651087139953223.0,0
102,4.0,16.0,8.0,0.0,-1.0,-2.0,1.0,0.0,1651087139953223.0,0
103,-3.0,-9.0,-7.0,-2.0,-1.0,-2.0,-1.0,-1.0,1651087139953223.0,0
104,2.0,5.0,7.0,-2.0,-4.0,0.0,-1.0,0.0,1651087139984318.0,0
105,1.0,-6.0,-12.0,-6.0,-6.0,-2.0,-2.0,-1.0,1651087139984318.0,0
106,-3.0,-3.0,-4.0,2.0,5.0,-1.0,-1.0,-4.0,1651087139984318.0,0
107,1.0,3.0,3.0,3.0,0.0,1.0,-1.0,-1.0,1651087139984318.0,0
108,-1.0,-4.0,2.0,3.0,3.0,0.0,1.0,-1.0,1651087139989250.0,0
109,1.0,4.0,0.0,0.0,0.0,0.0,-1.0,0.0,1651087139989250.0,0
110,0.0,-4.0,-6.0,-7.0,-6.0,2.0,-1.0,2.0,1651087140005393.0,0
111,-1.0,5.0,5.0,-4.0,-6.0,-4.0,3.0,1.0,1651087140005393.0,0
112,0.0,-1.0,-5.0,7.0,3.0,6.0,2.0,0.0,1651087140012208.0,0
113,0.0,-6.0,2.0,1.0,6.0,2.0,-1.0,-1.0,1651087140012208.0,0
114,1.0,2.0,4.0,-4.0,-4.0,-3.0,-3.0,0.0,1651087140013207.0,0
115,-2.0,2.0,-10.0,3.0,3.0,-1.0,-2.0,-2.0,1651087140013207.0,0
116,-1.0,2.0,6.0,-4.0,-6.0,-6.0,-1.0,0.0,1651087140043168.0,0
117,-2.0,-1.0,0.0,0.0,-6.0,0.0,1.0,0.0,1651087140043168.0,0
118,2.0,3.0,5.0,3.0,4.0,1.0,1.0,1.0,1651087140044121.0,0
119,1.0,-8.0,7.0,-1.0,-2.0,-3.0,0.0,-1.0,1651087140044121.0,0
120,-1.0,9.0,-16.0,-2.0,5.0,1.0,-1.0,0.0,1651087140066657.0,0
121,0.0,-4.0,6.0,3.0,1.0,-2.0,-1.0,-1.0,1651087140066657.0,0
122,-3.0,-5.0,-3.0,0.0,4.0,4.0,0.0,-1.0,1651087140066657.0,0
123,1.0,5.0,-2.0,5.0,-2.0,2.0,2.0,1.0,1651087140066657.0,0
124,-2.0,-5.0,-3.0,-13.0,-12.0,-5.0,-2.0,0.0,1651087140072515.0,0
125,0.0,-3.0,2.0,11.0,11.0,0.0,0.0,-2.0,1651087140072515.0,0
126,0.0,1.0,-6.0,-3.0,-5.0,-3.0,-1.0,-1.0,1651087140073478.0,0
127,0.0,1.0,-1.0,-4.0,-5.0,-1.0,-1.0,-1.0,1651087140073478.0,0
128,-1.0,-10.0,2.0,-1.0,-3.0,-1.0,-1.0,0.0,1651087140095400.0,0
129,-2.0,2.0,-4.0,-3.0,0.0,-2.0,1.0,1.0,1651087140095400.0,0
130,-1.0,-4.0,-2.0,-4.0,-4.0,0.0,1.0,1.0,1651087140096232.0,0
131,0.0,2.0,-2.0,-1.0,0.0,3.0,-2.0,0.0,1651087140096232.0,0
132,0.0,-3.0,-1.0,-2.0,-7.0,-4.0,-2.0,-2.0,1651087140119110.0,0
133,-2.0,3.0,4.0,-3.0,1.0,1.0,-1.0,-2.0,1651087140119110.0,0
134,0.0,-1.0,-4.0,4.0,2.0,-2.0,-1.0,1.0,1651087140119110.0,0
135,-1.0,-2.0,8.0,1.0,-2.0,0.0,0.0,0.0,1651087140119110.0,0
136,-2.0,-4.0,-5.0,1.0,8.0,5.0,0.0,0.0,1651087140133075.0,0
137,-3.0,-7.0,2.0,4.0,3.0,-1.0,1.0,-2.0,1651087140133075.0,0
138,-1.0,-1.0,-7.0,-6.0,-7.0,0.0,0.0,-2.0,1651087140133075.0,0
139,-1.0,11.0,6.0,-3.0,-2.0,-2.0,-2.0,0.0,1651087140133075.0,0
140,0.0,-10.0,1.0,2.0,-3.0,-1.0,1.0,-1.0,1651087140155390.0,0
141,0.0,3.0,-9.0,-2.0,-1.0,-2.0,-2.0,-1.0,1651087140155390.0,0
142,0.0,-7.0,-2.0,3.0,13.0,6.0,1.0,-2.0,1651087140155390.0,0
143,0.0,3.0,0.0,-6.0,0.0,-2.0,0.0,-1.0,1651087140155390.0,0
144,0.0,0.0,6.0,2.0,-1.0,-1.0,-1.0,1.0,1651087140178245.0,0
145,1.0,-7.0,-4.0,1.0,6.0,3.0,2.0,0.0,1651087140178245.0,0
146,0.0,-1.0,-13.0,-4.0,-10.0,-6.0,-4.0,-2.0,1651087140179089.0,0
147,-1.0,3.0,9.0,11.0,10.0,1.0,1.0,0.0,1651087140179089.0,0
148,-1.0,1.0,4.0,1.0,-3.0,-2.0,0.0,-1.0,1651087140201844.0,0
149,-2.0,-1.0,-3.0,4.0,-1.0,0.0,-1.0,-1.0,1651087140201844.0,0
150,0.0,3.0,10.0,-2.0,-4.0,1.0,1.0,2.0,1651087140201844.0,0
151,0.0,0.0,-8.0,-1.0,5.0,-2.0,-1.0,-3.0,1651087140201844.0,0
152,1.0,-2.0,1.0,2.0,8.0,2.0,0.0,0.0,1651087140215955.0,0
153,-2.0,-1.0,4.0,-3.0,-12.0,-4.0,-1.0,0.0,1651087140215955.0,0
154,1.0,-7.0,-3.0,2.0,11.0,2.0,2.0,0.0,1651087140215955.0,0
155,1.0,3.0,-4.0,-4.0,-5.0,0.0,-2.0,0.0,1651087140215955.0,0
156,-2.0,1.0,10.0,-1.0,-3.0,-1.0,0.0,-2.0,1651087140239094.0,0
157,-3.0,-1.0,-5.0,-6.0,-8.0,-1.0,-2.0,-1.0,1651087140239094.0,0
158,0.0,-3.0,4.0,14.0,13.0,2.0,2.0,0.0,1651087140239094.0,0
159,-2.0,-1.0,-3.0,3.0,14.0,5.0,0.0,0.0,1651087140239094.0,0
160,0.0,-4.0,-11.0,-2.0,-11.0,-7.0,-4.0,-1.0,1651087140261373.0,0
161,-1.0,5.0,7.0,-18.0,-13.0,-4.0,-1.0,-3.0,1651087140261373.0,0
162,-2.0,0.0,4.0,13.0,-10.0,-8.0,-2.0,-3.0,1651087140261373.0,0
163,0.0,-8.0,-11.0,4.0,22.0,16.0,4.0,2.0,1651087140261373.0,0
164,-2.0,7.0,-2.0,18.0,32.0,11.0,3.0,-1.0,1651087140275271.0,0
165,1.0,-5.0,5.0,-3.0,-24.0,-15.0,-4.0,0.0,1651087140275271.0,0
166,-2.0,-2.0,-10.0,1.0,13.0,9.0,-1.0,-2.0,1651087140276123.0,0
167,0.0,-5.0,6.0,0.0,-3.0,0.0,2.0,1.0,1651087140276123.0,0
168,0.0,2.0,-22.0,-17.0,-15.0,-8.0,-2.0,0.0,1651087140298470.0,0
169,-1.0,-7.0,16.0,17.0,20.0,9.0,2.0,0.0,1651087140298470.0,0
170,0.0,-6.0,-7.0,-12.0,-14.0,-10.0,-3.0,-2.0,1651087140299105.0,0
171,-2.0,-8.0,4.0,1.0,-10.0,-4.0,-3.0,-3.0,1651087140299105.0,0
172,-1.0,12.0,12.0,-2.0,-6.0,0.0,0.0,-1.0,1651087140312468.0,0
173,-2.0,7.0,-15.0,-8.0,-7.0,-5.0,-3.0,-2.0,1651087140312468.0,0
174,1.0,9.0,17.0,-6.0,-8.0,-2.0,0.0,2.0,1651087140313300.0,0
175,0.0,-10.0,-7.0,-3.0,-4.0,-2.0,0.0,1.0,1651087140313300.0,0
176,2.0,3.0,2.0,-4.0,-4.0,0.0,0.0,-1.0,1651087140344375.0,0
177,0.0,3.0,-6.0,3.0,10.0,4.0,2.0,0.0,1651087140344375.0,0
178,0.0,1.0,4.0,-9.0,0.0,2.0,0.0,0.0,1651087140344375.0,0
179,-2.0,7.0,0.0,-5.0,-18.0,-7.0,-1.0,-1.0,1651087140344375.0,0
180,0.0,-10.0,-4.0,7.0,11.0,2.0,2.0,-1.0,1651087140359152.0,0
181,0.0,4.0,-1.0,-2.0,-2.0,-2.0,-1.0,-1.0,1651087140359152.0,0
182,0.0,-4.0,0.0,7.0,13.0,10.0,1.0,1.0,1651087140359152.0,0
183,-1.0,4.0,0.0,6.0,-2.0,-5.0,-2.0,-3.0,1651087140359152.0,0
184,2.0,-13.0,-2.0,-13.0,-5.0,5.0,3.0,3.0,1651087140373092.0,0
185,-5.0,5.0,-7.0,4.0,15.0,2.0,-5.0,-4.0,1651087140373092.0,0
186,3.0,10.0,5.0,-8.0,-11.0,0.0,6.0,4.0,1651087140373092.0,0
187,2.0,-9.0,1.0,1.0,-7.0,-5.0,-3.0,1.0,1651087140373092.0,0
188,2.0,1.0,2.0,-4.0,-1.0,-7.0,-2.0,0.0,1651087140395381.0,0
189,-1.0,-2.0,-6.0,-15.0,-2.0,10.0,5.0,0.0,1651087140395381.0,0
190,-4.0,-1.0,-9.0,-4.0,-16.0,-11.0,-4.0,-6.0,1651087140396222.0,0
191,-2.0,-3.0,-2.0,8.0,12.0,1.0,-1.0,-2.0,1651087140396222.0,0
192,-2.0,-2.0,3.0,0.0,-11.0,-4.0,-2.0,-2.0,1651087140418528.0,0
193,2.0,11.0,-4.0,-2.0,3.0,-2.0,-1.0,0.0,1651087140418528.0,0
194,-1.0,5.0,3.0,-3.0,-2.0,-4.0,-2.0,-1.0,1651087140419364.0,0
195,-3.0,-13.0,-5.0,2.0,-1.0,6.0,0.0,-1.0,1651087140419364.0,0
196,0.0,-5.0,-8.0,-5.0,-4.0,-6.0,-4.0,-3.0,1651087140432819.0,0
197,-1.0,-6.0,-2.0,12.0,7.0,0.0,1.0,0.0,1651087140432819.0,0
198,3.0,4.0,4.0,-8.0,0.0,4.0,-2.0,0.0,1651087140433689.0,0
199,0.0,15.0,8.0,0.0,-8.0,-8.0,-1.0,0.0,1651087140433689.0,0
200,-6.0,-5.0,-1.0,14.0,18.0,10.0,2.0,1.0,1651087140456108.0,0
201,7.0,0.0,11.0,-6.0,-20.0,-7.0,-2.0,0.0,1651087140456108.0,0
202,-6.0,-4.0,-5.0,8.0,24.0,9.0,1.0,1.0,1651087140456108.0,0
203,8.0,-10.0,-15.0,-15.0,-10.0,-3.0,2.0,3.0,1651087140456108.0,0
204,-4.0,17.0,11.0,-3.0,-2.0,0.0,-2.0,-1.0,1651087140478270.0,0
205,-1.0,-13.0,4.0,21.0,14.0,5.0,4.0,3.0,1651087140478270.0,0
206,-12.0,-6.0,-4.0,-12.0,-12.0,-10.0,-5.0,-5.0,1651087140479304.0,0
207,-1.0,19.0,-6.0,1.0,4.0,6.0,1.0,1.0,1651087140479304.0,0
208,20.0,-9.0,8.0,-3.0,-8.0,-1.0,4.0,5.0,1651087140493311.0,0
209,8.0,19.0,-10.0,-14.0,-11.0,-6.0,-4.0,-6.0,1651087140493311.0,0
210,1.0,-25.0,-4.0,-3.0,-8.0,-3.0,-1.0,2.0,1651087140493311.0,0
211,-16.0,8.0,6.0,6.0,5.0,-1.0,-1.0,-3.0,1651087140493311.0,0
212,-3.0,-18.0,-24.0,0.0,10.0,2.0,-1.0,-2.0,1651087140516604.0,0
213,-12.0,-8.0,11.0,2.0,-3.0,0.0,-3.0,-1.0,1651087140516604.0,0
214,10.0,6.0,-6.0,-7.0,-2.0,-2.0,-2.0,-2.0,1651087140517444.0,0
215,28.0,15.0,11.0,-1.0,-5.0,-2.0,-1.0,3.0,1651087140517444.0,0
216,-17.0,-14.0,-5.0,-5.0,-15.0,-11.0,-6.0,-5.0,1651087140538767.0,0
217,-7.0,7.0,10.0,5.0,14.0,7.0,3.0,2.0,1651087140538767.0,0
218,8.0,15.0,2.0,6.0,4.0,1.0,3.0,2.0,1651087140539073.0,0
219,8.0,4.0,-4.0,-10.0,-8.0,-4.0,2.0,6.0,1651087140539073.0,0
220,8.0,14.0,11.0,9.0,6.0,5.0,1.0,2.0,1651087140553124.0,0
221,-26.0,-5.0,-16.0,-12.0,-4.0,-3.0,-7.0,-5.0,1651087140553124.0,0
222,6.0,10.0,9.0,5.0,-1.0,-3.0,0.0,-4.0,1651087140553124.0,0
223,36.0,-30.0,-8.0,-8.0,-2.0,-2.0,3.0,9.0,1651087140553124.0,0
224,-19.0,-22.0,-7.0,9.0,0.0,-2.0,-5.0,-11.0,1651087140575229.0,0
225,20.0,-1.0,7.0,-12.0,-6.0,-1.0,2.0,6.0,1651087140575229.0,0
226,-3.0,6.0,-1.0,0.0,-15.0,-9.0,-6.0,-4.0,1651087140576079.0,0
227,7.0,47.0,8.0,16.0,15.0,5.0,1.0,0.0,1651087140576079.0,0
228,16.0,-5.0,12.0,0.0,16.0,9.0,7.0,11.0,1651087140599238.0,1
229,-13.0,-55.0,-9.0,2.0,-12.0,-11.0,-8.0,-17.0,1651087140599238.0,1
230,-8.0,-7.0,1.0,17.0,7.0,6.0,-1.0,1.0,1651087140599238.0,1
231,4.0,-3.0,-8.0,-27.0,3.0,3.0,8.0,5.0,1651087140599238.0,1
232,24.0,22.0,6.0,22.0,12.0,6.0,3.0,-3.0,1651087140612508.0,1
233,15.0,-9.0,-3.0,-18.0,-17.0,-13.0,-3.0,19.0,1651087140612508.0,1
234,-64.0,-5.0,-22.0,-15.0,4.0,10.0,2.0,-7.0,1651087140620391.0,1
235,-17.0,6.0,3.0,15.0,-8.0,-13.0,-13.0,-32.0,1651087140620391.0,1
236,44.0,-9.0,14.0,-4.0,-25.0,-18.0,-27.0,-43.0,1651087140635732.0,1
237,44.0,52.0,3.0,0.0,6.0,16.0,18.0,40.0,1651087140635732.0,1
238,41.0,-56.0,-4.0,-5.0,32.0,6.0,1.0,-7.0,1651087140635732.0,1
239,-31.0,-1.0,8.0,18.0,5.0,11.0,16.0,42.0,1651087140635732.0,1
240,-38.0,-59.0,-12.0,2.0,5.0,3.0,2.0,-46.0,1651087140658997.0,1
241,92.0,24.0,-1.0,-7.0,-30.0,-29.0,-1.0,34.0,1651087140658997.0,1
242,-36.0,11.0,-3.0,15.0,10.0,5.0,-14.0,-2.0,1651087140659077.0,1
243,-45.0,5.0,-11.0,-15.0,-7.0,-9.0,-11.0,-10.0,1651087140659077.0,1
244,76.0,50.0,5.0,3.0,27.0,19.0,-25.0,-40.0,1651087140672442.0,1
245,-57.0,-19.0,-15.0,-13.0,2.0,-5.0,1.0,-27.0,1651087140672442.0,1
246,28.0,-25.0,15.0,-10.0,-29.0,0.0,16.0,30.0,1651087140680414.0,1
247,-34.0,-35.0,-6.0,26.0,26.0,-7.0,-13.0,-16.0,1651087140680414.0,1
248,21.0,81.0,20.0,-36.0,-44.0,-18.0,15.0,76.0,1651087140695389.0,1
249,-57.0,-64.0,-31.0,33.0,32.0,17.0,-4.0,-60.0,1651087140695389.0,1
250,62.0,41.0,-8.0,-18.0,-17.0,-8.0,-18.0,17.0,1651087140696224.0,1
251,20.0,47.0,26.0,7.0,-4.0,0.0,-7.0,-52.0,1651087140696224.0,1
252,-25.0,26.0,-35.0,6.0,33.0,5.0,5.0,48.0,1651087140719121.0,1
253,-15.0,-79.0,-34.0,-25.0,-13.0,-5.0,-1.0,19.0,1651087140719121.0,1
254,-24.0,72.0,63.0,46.0,8.0,-1.0,9.0,-31.0,1651087140719121.0,1
255,-65.0,-27.0,-22.0,-26.0,-18.0,-5.0,6.0,-3.0,1651087140719121.0,1
256,2.0,37.0,8.0,-12.0,-23.0,-6.0,2.0,11.0,1651087140732448.0,1
257,4.0,83.0,-9.0,-18.0,-15.0,-7.0,-6.0,-11.0,1651087140732448.0,1
258,45.0,-5.0,-10.0,9.0,43.0,18.0,7.0,-4.0,1651087140740311.0,1
259,30.0,50.0,1.0,-40.0,-58.0,-17.0,18.0,-19.0,1651087140740311.0,1
260,35.0,-33.0,6.0,30.0,18.0,-7.0,-31.0,27.0,1651087140763351.0,1
261,-16.0,-24.0,-10.0,-18.0,-15.0,2.0,-5.0,-61.0,1651087140763351.0,1
262,42.0,105.0,-11.0,-12.0,-19.0,-20.0,-3.0,61.0,1651087140764230.0,1
263,-73.0,-80.0,2.0,-6.0,8.0,10.0,-14.0,-4.0,1651087140764230.0,1
264,43.0,-38.0,-5.0,9.0,-1.0,6.0,24.0,15.0,1651087140778229.0,1
265,47.0,97.0,29.0,14.0,12.0,7.0,-5.0,-2.0,1651087140778229.0,1
266,26.0,-86.0,-32.0,-19.0,-31.0,-16.0,3.0,-71.0,1651087140778229.0,1
267,30.0,27.0,9.0,-24.0,0.0,-1.0,-19.0,32.0,1651087140778229.0,1
268,16.0,16.0,-14.0,52.0,47.0,18.0,16.0,21.0,1651087140792409.0,1
269,-15.0,3.0,22.0,-9.0,-14.0,0.0,-4.0,11.0,1651087140792409.0,1
270,30.0,25.0,-8.0,-2.0,-9.0,-8.0,2.0,-20.0,1651087140800406.0,1
271,-6.0,-65.0,-14.0,12.0,4.0,2.0,7.0,-9.0,1651087140800406.0,1
272,-58.0,-34.0,-2.0,-31.0,-32.0,-6.0,-24.0,-20.0,1651087140815563.0,1
273,31.0,20.0,12.0,8.0,15.0,2.0,6.0,17.0,1651087140815563.0,1
274,-90.0,8.0,27.0,32.0,28.0,15.0,6.0,4.0,1651087140815563.0,1
275,23.0,-35.0,-1.0,-1.0,-15.0,-7.0,-6.0,0.0,1651087140815563.0,1
276,-32.0,32.0,8.0,-4.0,-26.0,-10.0,14.0,7.0,1651087140837562.0,1
277,-73.0,-58.0,-10.0,-7.0,11.0,8.0,10.0,-1.0,1651087140837562.0,1
278,65.0,56.0,15.0,-2.0,-2.0,1.0,-16.0,-1.0,1651087140838587.0,1
279,-39.0,59.0,8.0,28.0,10.0,1.0,19.0,53.0,1651087140838587.0,1
280,-40.0,-5.0,1.0,-2.0,27.0,0.0,-14.0,-27.0,1651087140852513.0,1
281,-20.0,54.0,5.0,5.0,14.0,11.0,-7.0,-22.0,1651087140852513.0,1
282,48.0,13.0,-5.0,-2.0,-16.0,-6.0,13.0,42.0,1651087140860398.0,1
283,73.0,82.0,25.0,0.0,2.0,2.0,-6.0,8.0,1651087140860398.0,1
284,23.0,53.0,10.0,1.0,8.0,-4.0,-6.0,-6.0,1651087140875272.0,1
285,-16.0,-24.0,-19.0,-10.0,-19.0,-15.0,-3.0,1.0,1651087140875272.0,1
286,-76.0,-36.0,-15.0,-6.0,-15.0,-2.0,-9.0,-24.0,1651087140876134.0,1
287,26.0,-62.0,-21.0,-21.0,9.0,6.0,17.0,10.0,1651087140876134.0,1
288,-12.0,-52.0,1.0,3.0,-21.0,-6.0,-18.0,-14.0,1651087140898563.0,1
289,85.0,42.0,23.0,27.0,43.0,11.0,-2.0,-13.0,1651087140898563.0,1
290,21.0,62.0,4.0,6.0,6.0,4.0,11.0,46.0,1651087140899074.0,1
291,-15.0,-94.0,-32.0,-8.0,-12.0,-4.0,9.0,-34.0,1651087140899074.0,1
292,-22.0,-34.0,-17.0,-22.0,-3.0,-6.0,-12.0,-7.0,1651087140912310.0,1
293,44.0,48.0,20.0,15.0,9.0,12.0,17.0,-6.0,1651087140912310.0,1
294,-9.0,-128.0,-36.0,-16.0,-5.0,-7.0,-8.0,26.0,1651087140920397.0,1
295,1.0,17.0,3.0,-7.0,3.0,-1.0,-13.0,-22.0,1651087140920397.0,1
296,-98.0,-65.0,8.0,11.0,-30.0,-7.0,18.0,-3.0,1651087140935436.0,1
297,4.0,-81.0,-7.0,-4.0,-1.0,9.0,-3.0,-4.0,1651087140935436.0,1
298,-2.0,45.0,-2.0,-17.0,5.0,-1.0,6.0,3.0,1651087140935436.0,1
299,20.0,37.0,-12.0,11.0,-2.0,6.0,1.0,-13.0,1651087140935436.0,1
300,-21.0,17.0,-5.0,-11.0,5.0,5.0,4.0,-25.0,1651087140959004.0,1
301,56.0,-75.0,-5.0,-3.0,-11.0,-4.0,6.0,27.0,1651087140959004.0,1
302,-60.0,-68.0,-8.0,-5.0,-14.0,-6.0,-19.0,-5.0,1651087140959117.0,1
303,-4.0,21.0,12.0,20.0,37.0,4.0,-17.0,-13.0,1651087140959117.0,1
304,110.0,79.0,12.0,-30.0,-24.0,-5.0,20.0,4.0,1651087140981608.0,1
305,-26.0,2.0,16.0,44.0,18.0,2.0,26.0,67.0,1651087140981608.0,1
306,49.0,-40.0,-1.0,-7.0,-2.0,6.0,4.0,-60.0,1651087140981608.0,1
307,-17.0,1.0,-14.0,19.0,11.0,0.0,-13.0,43.0,1651087140981608.0,1
308,4.0,25.0,-21.0,-11.0,7.0,1.0,-25.0,-42.0,1651087140995376.0,1
309,19.0,46.0,7.0,-14.0,-20.0,-9.0,19.0,21.0,1651087140995376.0,1
310,-13.0,-15.0,2.0,5.0,1.0,-1.0,-16.0,-26.0,1651087140996206.0,1
311,5.0,11.0,11.0,-22.0,-28.0,-7.0,6.0,21.0,1651087140996206.0,1
312,-9.0,-94.0,-12.0,23.0,12.0,3.0,8.0,-2.0,1651087141018605.0,1
313,-50.0,27.0,4.0,12.0,4.0,-5.0,-19.0,-7.0,1651087141018605.0,1
314,1.0,53.0,13.0,1.0,-3.0,2.0,16.0,10.0,1651087141018605.0,1
315,-46.0,-44.0,-10.0,-1.0,-2.0,-4.0,-13.0,-39.0,1651087141018605.0,1
316,15.0,-46.0,-1.0,-25.0,-13.0,4.0,18.0,41.0,1651087141040235.0,1
317,32.0,-37.0,-5.0,-17.0,-18.0,-19.0,-43.0,-27.0,1651087141040235.0,1
318,-21.0,-25.0,-21.0,11.0,13.0,7.0,32.0,60.0,1651087141041282.0,1
319,-15.0,32.0,7.0,-5.0,-4.0,3.0,-6.0,-2.0,1651087141041282.0,1
320,-8.0,47.0,5.0,0.0,-21.0,-7.0,6.0,-10.0,1651087141055387.0,1
321,-83.0,-42.0,-3.0,4.0,33.0,6.0,-1.0,-6.0,1651087141055387.0,1
322,-23.0,29.0,5.0,-19.0,-13.0,-8.0,-23.0,-43.0,1651087141056251.0,1
323,16.0,42.0,4.0,20.0,-2.0,6.0,26.0,29.0,1651087141056251.0,1
324,-47.0,-45.0,-6.0,-9.0,13.0,-4.0,-20.0,-27.0,1651087141078411.0,1
325,7.0,96.0,14.0,4.0,-31.0,-6.0,-32.0,-41.0,1651087141078411.0,1
326,13.0,-41.0,-13.0,-8.0,31.0,12.0,12.0,35.0,1651087141079410.0,1
327,0.0,-25.0,1.0,11.0,14.0,-3.0,15.0,19.0,1651087141079410.0,1
328,9.0,86.0,15.0,16.0,-14.0,-1.0,-23.0,-77.0,1651087141101217.0,1
329,31.0,48.0,-9.0,2.0,9.0,16.0,32.0,62.0,1651087141101217.0,1
330,-36.0,32.0,14.0,-3.0,-15.0,-10.0,13.0,3.0,1651087141101217.0,1
331,48.0,26.0,25.0,17.0,30.0,9.0,-9.0,9.0,1651087141101217.0,1
332,10.0,-12.0,-18.0,-9.0,-8.0,-3.0,1.0,13.0,1651087141115350.0,1
333,-7.0,-66.0,6.0,-6.0,9.0,5.0,-15.0,-38.0,1651087141115350.0,1
334,-45.0,-35.0,-7.0,12.0,-9.0,0.0,9.0,-6.0,1651087141116199.0,1
335,55.0,52.0,-7.0,-18.0,-5.0,-5.0,-18.0,0.0,1651087141116199.0,1
336,-4.0,-47.0,-4.0,-10.0,-33.0,-11.0,8.0,-2.0,1651087141138200.0,1
337,15.0,-53.0,-15.0,27.0,28.0,12.0,-3.0,4.0,1651087141138200.0,1
338,35.0,67.0,18.0,-13.0,-6.0,-5.0,-2.0,-8.0,1651087141139198.0,1
339,26.0,-68.0,-34.0,-9.0,-14.0,-12.0,-22.0,-37.0,1651087141139198.0,1
340,-23.0,58.0,24.0,32.0,21.0,13.0,30.0,42.0,1651087141161448.0,1
341,-39.0,-55.0,-9.0,-31.0,-46.0,-21.0,-12.0,19.0,1651087141161448.0,1
342,-1.0,-11.0,-17.0,12.0,42.0,14.0,-8.0,-14.0,1651087141161448.0,1
343,1.0,73.0,13.0,-9.0,-15.0,-8.0,8.0,-3.0,1651087141161448.0,1
344,51.0,40.0,-6.0,-9.0,-5.0,-3.0,-2.0,3.0,1651087141175209.0,1
345,-37.0,7.0,7.0,16.0,25.0,7.0,21.0,20.0,1651087141175209.0,1
346,-19.0,-71.0,-6.0,-14.0,-29.0,-8.0,-14.0,-2.0,1651087141176086.0,1
347,-1.0,43.0,10.0,-3.0,6.0,1.0,-4.0,-2.0,1651087141176086.0,1
348,-36.0,-16.0,-13.0,6.0,22.0,6.0,-2.0,-9.0,1651087141198239.0,1
349,42.0,-31.0,-2.0,-16.0,1.0,-5.0,-8.0,-4.0,1651087141198239.0,1
350,-27.0,2.0,7.0,-1.0,-21.0,-14.0,-18.0,-22.0,1651087141199000.0,1
351,8.0,-25.0,-6.0,-1.0,9.0,14.0,-4.0,-16.0,1651087141199000.0,1
352,-13.0,-50.0,3.0,-1.0,1.0,-4.0,31.0,87.0,1651087141221235.0,1
353,-43.0,116.0,-7.0,-10.0,-17.0,-8.0,-19.0,2.0,1651087141221235.0,1
354,4.0,-21.0,8.0,6.0,22.0,1.0,-6.0,-27.0,1651087141221235.0,1
355,-30.0,-62.0,10.0,5.0,-16.0,-2.0,0.0,5.0,1651087141221235.0,1
356,29.0,40.0,-13.0,-16.0,-5.0,-3.0,7.0,-5.0,1651087141235367.0,1
357,0.0,-55.0,3.0,-17.0,-15.0,-6.0,-2.0,-25.0,1651087141235367.0,1
358,-56.0,62.0,-16.0,20.0,5.0,4.0,-2.0,-8.0,1651087141235367.0,1
359,-4.0,-54.0,-12.0,-1.0,-3.0,-7.0,-10.0,-9.0,1651087141235367.0,1
360,67.0,46.0,26.0,1.0,-2.0,5.0,0.0,20.0,1651087141257283.0,1
361,-40.0,28.0,4.0,8.0,11.0,10.0,13.0,-5.0,1651087141257283.0,1
362,68.0,49.0,1.0,-12.0,-10.0,-2.0,-17.0,-57.0,1651087141265408.0,1
363,-21.0,-56.0,6.0,7.0,15.0,5.0,18.0,72.0,1651087141265408.0,1
364,4.0,3.0,0.0,-2.0,-11.0,-4.0,-5.0,-7.0,1651087141281181.0,1
365,-67.0,6.0,3.0,23.0,5.0,2.0,5.0,-13.0,1651087141281181.0,1
366,69.0,88.0,11.0,-10.0,12.0,8.0,9.0,15.0,1651087141281181.0,1
367,16.0,61.0,-11.0,-3.0,-11.0,-8.0,-20.0,-4.0,1651087141281181.0,1
368,-37.0,-48.0,19.0,9.0,14.0,8.0,20.0,7.0,1651087141295334.0,1
369,-5.0,-38.0,-28.0,-31.0,-33.0,-15.0,-12.0,-9.0,1651087141295334.0,1
370,-33.0,-33.0,3.0,14.0,31.0,8.0,-1.0,-10.0,1651087141296224.0,1
371,-4.0,65.0,31.0,7.0,1.0,3.0,6.0,-5.0,1651087141296224.0,1
372,-21.0,-22.0,-26.0,-14.0,-10.0,-7.0,-18.0,-16.0,1651087141318733.0,1
373,22.0,25.0,5.0,2.0,-1.0,-4.0,0.0,-3.0,1651087141318733.0,1
374,7.0,-1.0,5.0,6.0,-7.0,-10.0,-20.0,-20.0,1651087141319072.0,1
375,-26.0,-96.0,-16.0,-8.0,8.0,3.0,29.0,33.0,1651087141319072.0,1
376,-14.0,22.0,8.0,-13.0,-10.0,0.0,-19.0,-20.0,1651087141340319.0,1
377,41.0,25.0,3.0,16.0,14.0,0.0,27.0,53.0,1651087141340319.0,1
378,-1.0,-17.0,-11.0,-18.0,-12.0,-3.0,-6.0,0.0,1651087141341320.0,1
379,-29.0,-21.0,2.0,25.0,-12.0,2.0,32.0,0.0,1651087141341320.0,1
380,29.0,16.0,-18.0,-5.0,32.0,12.0,-21.0,-48.0,1651087141355517.0,1
381,-2.0,50.0,25.0,-9.0,4.0,7.0,22.0,37.0,1651087141355517.0,1
382,-25.0,-22.0,-1.0,1.0,-30.0,-10.0,-2.0,-6.0,1651087141355517.0,1
383,30.0,-44.0,-17.0,-8.0,2.0,-3.0,-23.0,-28.0,1651087141355517.0,1
384,-29.0,-26.0,-13.0,-3.0,5.0,1.0,11.0,29.0,1651087141378165.0,1
385,50.0,15.0,-1.0,-2.0,-8.0,-5.0,-9.0,-31.0,1651087141378165.0,1
386,67.0,57.0,-2.0,4.0,1.0,4.0,10.0,32.0,1651087141379104.0,1
387,-20.0,9.0,17.0,1.0,-3.0,-1.0,-5.0,-37.0,1651087141379104.0,1
388,29.0,59.0,7.0,-23.0,-30.0,-25.0,-23.0,29.0,1651087141401190.0,1
389,-21.0,11.0,-13.0,11.0,0.0,2.0,7.0,24.0,1651087141401190.0,1
390,52.0,34.0,-14.0,-2.0,30.0,12.0,-12.0,-5.0,1651087141401190.0,1
391,-48.0,57.0,16.0,4.0,-13.0,-10.0,19.0,15.0,1651087141401190.0,1
392,1.0,-25.0,16.0,7.0,10.0,3.0,3.0,-7.0,1651087141415307.0,1
393,55.0,0.0,-15.0,-18.0,-20.0,-11.0,-15.0,-19.0,1651087141415307.0,1
394,-47.0,-37.0,8.0,-7.0,-22.0,-3.0,11.0,12.0,1651087141416175.0,1
395,60.0,106.0,0.0,13.0,11.0,8.0,-19.0,-13.0,1651087141416175.0,1
396,-59.0,-56.0,9.0,22.0,26.0,5.0,10.0,-5.0,1651087141439207.0,1
397,1.0,96.0,5.0,-4.0,2.0,5.0,6.0,0.0,1651087141439207.0,1
398,-59.0,-102.0,-29.0,-10.0,-5.0,-6.0,-21.0,-16.0,1651087141439207.0,1
399,26.0,-7.0,-3.0,-32.0,-20.0,-5.0,-6.0,-23.0,1651087141439207.0,1
400,-14.0,71.0,8.0,19.0,3.0,5.0,14.0,45.0,1651087141461347.0,1
401,-11.0,-128.0,-5.0,24.0,26.0,-3.0,-24.0,-20.0,1651087141461347.0,1
402,60.0,3.0,11.0,6.0,1.0,6.0,-3.0,4.0,1651087141461347.0,1
403,22.0,89.0,21.0,-12.0,6.0,6.0,35.0,20.0,1651087141461347.0,1
404,-14.0,-79.0,1.0,9.0,9.0,7.0,-14.0,-34.0,1651087141475320.0,1
405,6.0,55.0,-11.0,-24.0,-15.0,-1.0,10.0,14.0,1651087141475320.0,1
406,-71.0,-62.0,-6.0,19.0,16.0,1.0,-9.0,-23.0,1651087141476178.0,1
407,-11.0,-4.0,2.0,-8.0,-19.0,-10.0,-13.0,-12.0,1651087141476178.0,1
408,-46.0,6.0,4.0,17.0,42.0,19.0,5.0,17.0,1651087141498535.0,1
409,59.0,-14.0,-9.0,-6.0,-11.0,0.0,25.0,9.0,1651087141498535.0,1
410,0.0,48.0,12.0,7.0,-12.0,-10.0,-16.0,-1.0,1651087141499400.0,1
411,0.0,-8.0,-2.0,-12.0,1.0,-3.0,-8.0,-29.0,1651087141499400.0,1
412,-12.0,-2.0,-10.0,-4.0,-8.0,-1.0,17.0,30.0,1651087141521377.0,1
413,8.0,-26.0,2.0,3.0,7.0,-1.0,-21.0,-2.0,1651087141521377.0,1
414,-4.0,-24.0,11.0,-2.0,-2.0,-3.0,22.0,28.0,1651087141521377.0,1
415,12.0,-40.0,-6.0,8.0,6.0,13.0,5.0,-7.0,1651087141521377.0,1
416,13.0,-50.0,-19.0,-17.0,-25.0,-19.0,-25.0,-47.0,1651087141535362.0,1
417,-37.0,-15.0,10.0,1.0,-5.0,7.0,11.0,-34.0,1651087141535362.0,1
418,95.0,62.0,-1.0,18.0,24.0,3.0,17.0,53.0,1651087141536247.0,1
419,9.0,-28.0,-5.0,-6.0,5.0,6.0,-5.0,8.0,1651087141536247.0,1
420,24.0,29.0,-10.0,-4.0,3.0,-3.0,3.0,-17.0,1651087141560544.0,1
421,-11.0,24.0,15.0,10.0,-14.0,-6.0,-26.0,-35.0,1651087141560544.0,1
422,8.0,12.0,13.0,-2.0,-13.0,1.0,6.0,12.0,1651087141560544.0,1
423,-9.0,12.0,-13.0,-2.0,8.0,-2.0,-12.0,-20.0,1651087141560544.0,1
424,54.0,57.0,-11.0,-15.0,-9.0,-9.0,13.0,49.0,1651087141581184.0,1
425,-48.0,-31.0,3.0,23.0,32.0,14.0,3.0,14.0,1651087141581184.0,1
426,4.0,28.0,1.0,-6.0,-14.0,0.0,2.0,-24.0,1651087141581184.0,1
427,5.0,-31.0,-4.0,8.0,4.0,-1.0,14.0,57.0,1651087141581184.0,1
428,-13.0,4.0,11.0,-20.0,-30.0,-14.0,-22.0,-44.0,1651087141594197.0,1
429,6.0,38.0,-4.0,8.0,2.0,-2.0,-9.0,-16.0,1651087141594197.0,1
430,-36.0,-65.0,-11.0,-10.0,6.0,0.0,16.0,39.0,1651087141603213.0,1
431,-9.0,46.0,2.0,-5.0,1.0,1.0,-17.0,-26.0,1651087141603213.0,1
432,-10.0,-11.0,-12.0,-6.0,-1.0,3.0,8.0,2.0,1651087141618726.0,1
433,20.0,-49.0,27.0,3.0,-5.0,-6.0,15.0,12.0,1651087141618726.0,1
434,-17.0,-6.0,-4.0,-15.0,-3.0,-2.0,-6.0,-4.0,1651087141619070.0,1
435,-3.0,9.0,-16.0,12.0,-1.0,-5.0,-9.0,-14.0,1651087141619070.0,1
436,21.0,24.0,12.0,16.0,4.0,0.0,-9.0,-12.0,1651087141640224.0,1
437,6.0,46.0,5.0,-4.0,14.0,4.0,13.0,31.0,1651087141640224.0,1
438,-6.0,-61.0,-4.0,-1.0,-4.0,0.0,-6.0,-15.0,1651087141648485.0,1
439,-22.0,-46.0,-17.0,-16.0,-9.0,-4.0,7.0,-5.0,1651087141648485.0,1
440,14.0,11.0,10.0,-1.0,1.0,9.0,2.0,25.0,1651087141654204.0,1
441,-11.0,-1.0,-28.0,11.0,7.0,5.0,1.0,-38.0,1651087141654204.0,1
442,-7.0,27.0,10.0,-3.0,-7.0,-2.0,3.0,23.0,1651087141662212.0,1
443,55.0,8.0,-20.0,-4.0,2.0,0.0,3.0,13.0,1651087141662212.0,1
444,-19.0,13.0,11.0,13.0,-1.0,-1.0,-5.0,-1.0,1651087141678209.0,1
445,-31.0,-45.0,0.0,-14.0,-9.0,-4.0,-11.0,-3.0,1651087141678209.0,1
446,-11.0,26.0,-7.0,-7.0,-8.0,-3.0,4.0,-16.0,1651087141679242.0,1
447,-4.0,-8.0,17.0,16.0,7.0,5.0,10.0,17.0,1651087141679242.0,1
448,9.0,23.0,1.0,4.0,0.0,2.0,-8.0,-20.0,1651087141701536.0,1
449,8.0,7.0,-3.0,-10.0,-4.0,1.0,20.0,28.0,1651087141701536.0,1
450,-9.0,-19.0,-15.0,-1.0,0.0,1.0,-8.0,-28.0,1651087141701536.0,1
451,-39.0,-37.0,8.0,-8.0,-12.0,-8.0,-12.0,0.0,1651087141701536.0,1
452,18.0,16.0,-17.0,-2.0,-3.0,-1.0,11.0,-1.0,1651087141714569.0,1
453,3.0,4.0,0.0,0.0,2.0,1.0,-5.0,4.0,1651087141714569.0,1
454,-11.0,-11.0,-3.0,-6.0,-13.0,-4.0,3.0,-6.0,1651087141722963.0,1
455,11.0,34.0,-4.0,8.0,7.0,2.0,0.0,2.0,1651087141722963.0,1
456,-17.0,-5.0,18.0,11.0,-3.0,-3.0,-2.0,-1.0,1651087141738248.0,1
457,12.0,30.0,17.0,4.0,9.0,1.0,1.0,-6.0,1651087141738248.0,1
458,-4.0,15.0,-11.0,-9.0,-1.0,0.0,-3.0,15.0,1651087141738248.0,1
459,0.0,-11.0,0.0,-1.0,5.0,2.0,16.0,20.0,1651087141738248.0,1
460,7.0,1.0,-12.0,-11.0,-3.0,-4.0,-1.0,-10.0,1651087141761548.0,1
461,-16.0,-14.0,-9.0,-4.0,1.0,-1.0,-10.0,-5.0,1651087141761548.0,1
462,0.0,7.0,1.0,9.0,0.0,-2.0,1.0,9.0,1651087141761548.0,1
463,1.0,13.0,0.0,0.0,6.0,3.0,-6.0,-5.0,1651087141761548.0,1
464,-7.0,-42.0,-3.0,-5.0,-1.0,-4.0,-3.0,-13.0,1651087141774063.0,1
465,10.0,16.0,-3.0,-3.0,-10.0,-5.0,-19.0,-19.0,1651087141774063.0,1
466,0.0,14.0,5.0,2.0,5.0,1.0,17.0,28.0,1651087141783227.0,1
467,-2.0,-6.0,1.0,5.0,8.0,1.0,-7.0,-4.0,1651087141783227.0,1
468,-4.0,3.0,-4.0,-4.0,-1.0,0.0,7.0,6.0,1651087141798550.0,1
469,9.0,3.0,-6.0,-6.0,-5.0,-2.0,-10.0,-11.0,1651087141798550.0,1
470,-1.0,-1.0,6.0,5.0,1.0,1.0,5.0,5.0,1651087141798550.0,1
471,-4.0,0.0,2.0,0.0,-5.0,-4.0,-5.0,-8.0,1651087141798550.0,1
472,6.0,5.0,4.0,1.0,3.0,1.0,-1.0,-1.0,1651087141821387.0,1
473,-1.0,-6.0,-8.0,-5.0,0.0,-1.0,1.0,4.0,1651087141821387.0,1
474,-2.0,6.0,6.0,4.0,2.0,3.0,0.0,7.0,1651087141821387.0,1
475,-5.0,-6.0,-2.0,-4.0,-3.0,-3.0,-2.0,-2.0,1651087141821387.0,1
476,-1.0,-1.0,-3.0,-3.0,-2.0,-1.0,1.0,1.0,1651087141834353.0,1
477,1.0,-1.0,0.0,3.0,4.0,2.0,2.0,3.0,1651087141834353.0,1
478,-2.0,5.0,-4.0,-3.0,-3.0,-5.0,-5.0,-9.0,1651087141843131.0,1
479,0.0,0.0,1.0,2.0,3.0,2.0,-2.0,-5.0,1651087141843131.0,1
480,-2.0,-3.0,-5.0,-4.0,0.0,-2.0,3.0,6.0,1651087141857957.0,1
481,1.0,3.0,2.0,-1.0,-5.0,-1.0,1.0,3.0,1651087141857957.0,1
482,4.0,-1.0,-2.0,-3.0,-3.0,1.0,-6.0,-13.0,1651087141857957.0,1
483,-3.0,19.0,9.0,4.0,4.0,1.0,-2.0,-15.0,1651087141857957.0,1
484,-11.0,-6.0,6.0,4.0,4.0,0.0,6.0,22.0,1651087141882743.0,1
485,12.0,15.0,-7.0,-8.0,-9.0,-6.0,0.0,4.0,1651087141882743.0,1
486,-1.0,-5.0,0.0,-1.0,7.0,1.0,-3.0,-5.0,1651087141882743.0,1
487,0.0,-2.0,-4.0,0.0,-1.0,-1.0,-3.0,-4.0,1651087141882743.0,1
488,-1.0,1.0,2.0,0.0,0.0,1.0,-1.0,-6.0,1651087141904329.0,1
489,-2.0,5.0,2.0,1.0,1.0,1.0,0.0,0.0,1651087141904329.0,1
490,1.0,-3.0,-3.0,-2.0,-4.0,0.0,1.0,-1.0,1651087141904329.0,1
491,-1.0,-3.0,-2.0,-4.0,-6.0,-4.0,-3.0,-1.0,1651087141904329.0,1
492,3.0,6.0,3.0,0.0,1.0,2.0,-1.0,-1.0,1651087141926214.0,1
493,-4.0,-11.0,-2.0,-1.0,0.0,0.0,2.0,5.0,1651087141926214.0,1
494,2.0,5.0,6.0,-1.0,-1.0,-5.0,-1.0,-6.0,1651087141926214.0,1
495,-3.0,-13.0,-23.0,-4.0,5.0,5.0,4.0,4.0,1651087141926214.0,1
496,0.0,1.0,-8.0,-1.0,-3.0,2.0,0.0,-2.0,1651087141940219.0,1
497,-2.0,-3.0,-8.0,-5.0,-4.0,-1.0,1.0,0.0,1651087141940219.0,1
498,-4.0,4.0,14.0,6.0,-2.0,-1.0,-2.0,-1.0,1651087141941271.0,1
499,0.0,1.0,4.0,-2.0,2.0,1.0,-2.0,1.0,1651087141941271.0,1
500,4.0,-3.0,-4.0,-3.0,-1.0,-1.0,1.0,-1.0,1651087141963224.0,1
501,-1.0,0.0,1.0,4.0,0.0,3.0,-2.0,10.0,1651087141963224.0,1
502,1.0,2.0,-8.0,-10.0,-4.0,-8.0,-5.0,-22.0,1651087141964222.0,1
503,-8.0,-9.0,-15.0,-1.0,0.0,-1.0,-2.0,-3.0,1651087141964222.0,1
504,2.0,1.0,-9.0,-2.0,2.0,-1.0,-1.0,-6.0,1651087141978192.0,1
505,-5.0,-7.0,5.0,0.0,-6.0,-5.0,-2.0,-6.0,1651087141978192.0,1
506,18.0,4.0,7.0,2.0,1.0,6.0,6.0,35.0,1651087141978192.0,1
507,4.0,1.0,3.0,-1.0,0.0,6.0,-1.0,-10.0,1651087141978192.0,1
508,-4.0,-8.0,-2.0,-4.0,-2.0,4.0,1.0,-4.0,1651087142001253.0,1
509,-3.0,1.0,7.0,9.0,-2.0,-6.0,-3.0,-4.0,1651087142001253.0,1
510,-7.0,-2.0,12.0,13.0,1.0,1.0,0.0,1.0,1651087142001323.0,1
511,1.0,4.0,9.0,2.0,5.0,0.0,-1.0,10.0,1651087142001323.0,1
512,11.0,2.0,-2.0,-13.0,1.0,-2.0,0.0,-4.0,1651087142023063.0,1
513,-5.0,-2.0,-8.0,-4.0,0.0,-1.0,1.0,2.0,1651087142023063.0,1
514,-2.0,-4.0,-7.0,-7.0,-5.0,-3.0,-1.0,15.0,1651087142024065.0,1
515,-3.0,-2.0,5.0,3.0,-3.0,-5.0,-6.0,-21.0,1651087142024065.0,1
516,3.0,3.0,25.0,11.0,7.0,1.0,-3.0,-4.0,1651087142038219.0,1
517,0.0,-2.0,5.0,11.0,-1.0,1.0,6.0,16.0,1651087142038219.0,1
518,13.0,-3.0,20.0,16.0,4.0,2.0,2.0,14.0,1651087142038219.0,1
519,0.0,7.0,-3.0,-11.0,2.0,-2.0,-4.0,-12.0,1651087142038219.0,1
520,-8.0,0.0,-8.0,-13.0,-4.0,2.0,1.0,12.0,1651087142060320.0,1
521,6.0,1.0,-18.0,1.0,-5.0,-3.0,-5.0,-4.0,1651087142060320.0,1
522,-4.0,3.0,13.0,1.0,3.0,2.0,8.0,8.0,1651087142061320.0,1
523,8.0,-3.0,0.0,8.0,-4.0,-4.0,3.0,33.0,1651087142061320.0,1
524,-25.0,-1.0,12.0,12.0,4.0,2.0,2.0,-9.0,1651087142083196.0,1
525,23.0,4.0,-4.0,-11.0,4.0,1.0,-1.0,-5.0,1651087142083196.0,1
526,-10.0,-1.0,-9.0,5.0,3.0,1.0,0.0,-19.0,1651087142084227.0,1
527,20.0,-2.0,-15.0,-28.0,-16.0,-8.0,-2.0,17.0,1651087142084227.0,1
528,-23.0,1.0,-5.0,-2.0,-4.0,2.0,-1.0,-14.0,1651087142098030.0,1
529,6.0,4.0,30.0,3.0,3.0,4.0,3.0,29.0,1651087142098030.0,1
530,-14.0,-9.0,-60.0,-18.0,-2.0,-1.0,-8.0,-40.0,1651087142098030.0,1
531,-12.0,-2.0,19.0,9.0,5.0,1.0,-1.0,-3.0,1651087142098030.0,1
532,9.0,-2.0,-18.0,-1.0,-8.0,-4.0,-5.0,8.0,1651087142121203.0,1
533,-2.0,-4.0,-5.0,-2.0,2.0,3.0,4.0,13.0,1651087142121203.0,1
534,4.0,-3.0,-20.0,-16.0,-5.0,-6.0,-7.0,-17.0,1651087142121203.0,1
535,-2.0,-4.0,6.0,18.0,2.0,3.0,6.0,-2.0,1651087142121203.0,1
536,0.0,4.0,10.0,-3.0,-2.0,-4.0,-1.0,6.0,1651087142143199.0,1
537,-3.0,-4.0,-22.0,-10.0,-2.0,-2.0,3.0,-1.0,1651087142143199.0,1
538,-4.0,4.0,33.0,9.0,1.0,2.0,-2.0,2.0,1651087142144196.0,1
539,-10.0,-12.0,-12.0,-7.0,-5.0,-1.0,-1.0,-1.0,1651087142144196.0,1
540,13.0,1.0,-3.0,8.0,6.0,2.0,1.0,14.0,1651087142157923.0,1
541,-2.0,-1.0,-2.0,-2.0,-3.0,-1.0,-4.0,-18.0,1651087142157923.0,1
542,3.0,5.0,2.0,3.0,0.0,-3.0,1.0,2.0,1651087142157923.0,1
543,-22.0,-15.0,-1.0,-3.0,-1.0,-1.0,0.0,-16.0,1651087142157923.0,1
544,11.0,5.0,34.0,9.0,-1.0,-3.0,0.0,14.0,1651087142181087.0,1
545,-12.0,0.0,-27.0,-18.0,-6.0,-3.0,-5.0,-14.0,1651087142181087.0,1
546,1.0,1.0,8.0,9.0,-3.0,-1.0,3.0,17.0,1651087142181087.0,1
547,-7.0,8.0,6.0,6.0,9.0,4.0,0.0,-5.0,1651087142181087.0,1
548,6.0,-11.0,-10.0,2.0,0.0,-3.0,5.0,-12.0,1651087142203186.0,1
549,-14.0,-1.0,7.0,2.0,4.0,1.0,-2.0,-6.0,1651087142203186.0,1
550,23.0,2.0,1.0,-8.0,-4.0,1.0,0.0,-17.0,1651087142204048.0,1
551,-6.0,5.0,-4.0,-7.0,-6.0,-4.0,-5.0,-3.0,1651087142204048.0,1
552,-2.0,-10.0,-36.0,-14.0,-1.0,0.0,2.0,-3.0,1651087142217230.0,1
553,0.0,8.0,10.0,3.0,1.0,-1.0,-1.0,-10.0,1651087142217230.0,1
554,-8.0,-13.0,-7.0,-2.0,-3.0,-1.0,-3.0,2.0,1651087142218230.0,1
555,3.0,3.0,23.0,15.0,4.0,1.0,3.0,12.0,1651087142218230.0,1
556,8.0,3.0,-5.0,1.0,-1.0,-1.0,-2.0,-6.0,1651087142240248.0,1
557,-5.0,-1.0,5.0,0.0,-3.0,-4.0,-4.0,-4.0,1651087142240248.0,1
558,-7.0,-12.0,-25.0,1.0,6.0,0.0,-1.0,2.0,1651087142241212.0,1
559,6.0,-4.0,-23.0,-9.0,-5.0,-2.0,-1.0,-3.0,1651087142241212.0,1
560,0.0,7.0,17.0,-11.0,-8.0,-3.0,-2.0,-2.0,1651087142263212.0,1
561,3.0,-16.0,-2.0,19.0,4.0,5.0,2.0,-1.0,1651087142263212.0,1
562,-3.0,27.0,19.0,-12.0,0.0,-1.0,1.0,-2.0,1651087142264211.0,1
563,6.0,3.0,-1.0,6.0,0.0,-1.0,1.0,-1.0,1651087142264211.0,1
564,0.0,-5.0,0.0,7.0,5.0,-1.0,-3.0,2.0,1651087142278018.0,1
565,2.0,0.0,13.0,-4.0,-3.0,0.0,2.0,-10.0,1651087142278018.0,1
566,-4.0,-6.0,4.0,-2.0,-7.0,-1.0,0.0,2.0,1651087142278018.0,1
567,0.0,-3.0,-11.0,-3.0,2.0,-1.0,0.0,2.0,1651087142278018.0,1
568,1.0,9.0,18.0,6.0,0.0,0.0,0.0,-1.0,1651087142301234.0,1
569,-3.0,-3.0,6.0,4.0,2.0,0.0,0.0,6.0,1651087142301234.0,1
570,-2.0,0.0,-10.0,-6.0,1.0,1.0,1.0,1.0,1651087142301234.0,1
571,7.0,7.0,4.0,-1.0,-4.0,1.0,1.0,0.0,1651087142301234.0,1
572,-2.0,-24.0,-19.0,-7.0,-6.0,-4.0,-2.0,-2.0,1651087142323061.0,1
573,-1.0,8.0,17.0,4.0,1.0,-3.0,-1.0,-3.0,1651087142323061.0,1
574,-5.0,-7.0,-33.0,-9.0,-1.0,0.0,-1.0,-2.0,1651087142325090.0,1
575,1.0,3.0,10.0,6.0,-1.0,1.0,-1.0,-2.0,1651087142325090.0,1
576,-6.0,2.0,-12.0,-4.0,1.0,-1.0,-3.0,-5.0,1651087142338043.0,1
577,5.0,0.0,-1.0,-6.0,-5.0,-3.0,1.0,1.0,1651087142338043.0,1
578,-2.0,-10.0,3.0,5.0,5.0,1.0,-1.0,-1.0,1651087142338043.0,1
579,1.0,-12.0,-1.0,-4.0,-2.0,-3.0,1.0,2.0,1651087142338043.0,1
580,-8.0,7.0,-4.0,-1.0,-10.0,-2.0,-1.0,-4.0,1651087142361191.0,1
581,1.0,0.0,-8.0,5.0,4.0,0.0,-2.0,-1.0,1651087142361191.0,1
582,-2.0,4.0,3.0,-5.0,3.0,2.0,0.0,0.0,1651087142362493.0,1
583,5.0,-5.0,-5.0,-1.0,2.0,1.0,1.0,-3.0,1651087142362493.0,1
584,1.0,1.0,1.0,2.0,-3.0,-3.0,-1.0,2.0,1651087142383203.0,1
585,-1.0,-1.0,-7.0,-4.0,-3.0,0.0,0.0,-2.0,1651087142383203.0,1
586,0.0,-7.0,1.0,3.0,-4.0,-1.0,0.0,0.0,1651087142385231.0,1
587,-3.0,7.0,14.0,1.0,-1.0,-2.0,-3.0,0.0,1651087142385231.0,1
588,-1.0,-11.0,-13.0,-2.0,1.0,1.0,-1.0,1.0,1651087142397355.0,1
589,-2.0,5.0,8.0,-3.0,-1.0,-1.0,0.0,0.0,1651087142397355.0,1
590,0.0,1.0,2.0,-5.0,-1.0,-2.0,-2.0,0.0,1651087142406272.0,1
591,-1.0,0.0,14.0,12.0,0.0,1.0,0.0,0.0,1651087142406272.0,1
592,1.0,3.0,-3.0,-4.0,0.0,1.0,1.0,1.0,1651087142421690.0,1
593,-3.0,-3.0,-24.0,-8.0,1.0,0.0,0.0,-1.0,1651087142421690.0,1
594,-2.0,-16.0,-10.0,1.0,-2.0,-1.0,1.0,0.0,1651087142422690.0,1
595,-1.0,9.0,4.0,-10.0,-9.0,-2.0,-2.0,-2.0,1651087142422690.0,1
596,2.0,1.0,15.0,8.0,5.0,1.0,1.0,-2.0,1651087142443093.0,1
597,-3.0,-21.0,-15.0,2.0,6.0,2.0,2.0,-2.0,1651087142443093.0,1
598,2.0,21.0,-8.0,-7.0,-2.0,-2.0,-2.0,-1.0,1651087142444981.0,1
599,-1.0,-13.0,-9.0,2.0,2.0,2.0,1.0,-1.0,1651087142444981.0,1
600,0.0,4.0,10.0,2.0,-2.0,-2.0,0.0,0.0,1651087142456917.0,1
601,1.0,0.0,2.0,-3.0,-3.0,2.0,-2.0,0.0,1651087142456917.0,1
602,-4.0,-7.0,6.0,10.0,-5.0,-5.0,-3.0,-2.0,1651087142465894.0,1
603,-2.0,-4.0,-33.0,-14.0,2.0,3.0,-1.0,1.0,1651087142465894.0,1
604,0.0,2.0,2.0,3.0,2.0,1.0,0.0,0.0,1651087142481691.0,1
605,0.0,8.0,4.0,1.0,-2.0,-2.0,0.0,-1.0,1651087142481691.0,1
606,-1.0,-1.0,4.0,4.0,2.0,2.0,1.0,0.0,1651087142482692.0,1
607,-2.0,0.0,-1.0,-3.0,-4.0,-5.0,-2.0,-1.0,1651087142482692.0,1
608,-1.0,-6.0,-5.0,-5.0,-1.0,0.0,-2.0,-1.0,1651087142504182.0,1
609,-1.0,6.0,9.0,-1.0,0.0,-2.0,0.0,-1.0,1651087142504182.0,1
610,0.0,1.0,7.0,2.0,0.0,1.0,2.0,0.0,1651087142509168.0,1
611,0.0,-5.0,-11.0,-5.0,-2.0,-2.0,0.0,1.0,1651087142509168.0,1
612,2.0,8.0,9.0,4.0,5.0,1.0,-1.0,-2.0,1651087142517414.0,1
613,-2.0,-12.0,1.0,2.0,-1.0,-2.0,0.0,-1.0,1651087142517414.0,1
614,0.0,-2.0,12.0,4.0,0.0,0.0,0.0,0.0,1651087142526055.0,1
615,0.0,2.0,-5.0,3.0,1.0,-1.0,-1.0,0.0,1651087142526055.0,1
616,1.0,-5.0,-12.0,-8.0,1.0,0.0,-1.0,-3.0,1651087142540200.0,1
617,-1.0,18.0,5.0,3.0,4.0,3.0,1.0,0.0,1651087142540200.0,1
618,1.0,0.0,-10.0,-11.0,-2.0,0.0,1.0,0.0,1651087142542239.0,1
619,-1.0,-2.0,23.0,13.0,2.0,-3.0,0.0,0.0,1651087142542239.0,1
620,1.0,1.0,-2.0,-2.0,-9.0,-4.0,0.0,0.0,1651087142563193.0,1
621,0.0,-3.0,-1.0,-1.0,-4.0,2.0,-1.0,0.0,1651087142563193.0,1
622,1.0,9.0,11.0,3.0,4.0,-2.0,-3.0,-3.0,1651087142565191.0,1
623,-2.0,1.0,-20.0,-6.0,1.0,0.0,-1.0,-2.0,1651087142565191.0,1
624,-2.0,-3.0,4.0,2.0,5.0,6.0,1.0,2.0,1651087142577342.0,1
625,-2.0,-4.0,2.0,0.0,-5.0,-5.0,-2.0,-1.0,1651087142577342.0,1
626,0.0,3.0,9.0,3.0,-1.0,-3.0,-1.0,1.0,1651087142586332.0,1
627,0.0,2.0,-5.0,-6.0,-2.0,0.0,-2.0,-2.0,1651087142586332.0,1
628,-1.0,-3.0,-16.0,-2.0,-5.0,-4.0,-1.0,-1.0,1651087142601183.0,1
629,0.0,6.0,-1.0,-2.0,-1.0,0.0,-1.0,0.0,1651087142601183.0,1
630,-1.0,-9.0,-1.0,-1.0,3.0,1.0,1.0,0.0,1651087142602515.0,1
631,-1.0,0.0,1.0,0.0,6.0,1.0,-1.0,-2.0,1651087142602515.0,0
632,0.0,-6.0,-7.0,-3.0,-2.0,-2.0,0.0,1.0,1651087142623661.0,0
633,0.0,-5.0,7.0,5.0,0.0,1.0,0.0,0.0,1651087142623661.0,0
634,-2.0,4.0,-6.0,-9.0,-5.0,-3.0,-2.0,0.0,1651087142624658.0,0
635,0.0,7.0,12.0,6.0,-2.0,0.0,1.0,-2.0,1651087142624658.0,0
636,0.0,0.0,1.0,2.0,0.0,1.0,0.0,0.0,1651087142637344.0,0
637,4.0,-3.0,-18.0,-13.0,-7.0,-3.0,-3.0,1.0,1651087142637344.0,0
638,-6.0,-8.0,11.0,9.0,2.0,2.0,0.0,-2.0,1651087142645982.0,0
639,-1.0,-3.0,-15.0,-6.0,0.0,2.0,1.0,-1.0,1651087142645982.0,0
640,-2.0,7.0,-4.0,1.0,-1.0,-1.0,0.0,-1.0,1651087142660370.0,0
641,-1.0,-5.0,7.0,-1.0,-1.0,-4.0,-1.0,0.0,1651087142660370.0,0
642,0.0,-4.0,-1.0,-1.0,2.0,4.0,0.0,-2.0,1651087142662217.0,0
643,1.0,9.0,15.0,-1.0,-2.0,1.0,0.0,2.0,1651087142662217.0,0
644,-3.0,-7.0,0.0,1.0,-1.0,-1.0,0.0,0.0,1651087142683399.0,0
645,-2.0,-1.0,0.0,-3.0,-3.0,-1.0,-1.0,1.0,1651087142683399.0,0
646,3.0,-5.0,-21.0,-7.0,-3.0,-2.0,0.0,-2.0,1651087142684235.0,0
647,-4.0,-5.0,18.0,8.0,-1.0,-1.0,-1.0,-2.0,1651087142684235.0,0
648,2.0,11.0,16.0,3.0,3.0,1.0,0.0,0.0,1651087142697414.0,0
649,-3.0,-7.0,-6.0,-2.0,-3.0,-1.0,0.0,0.0,1651087142697414.0,0
650,0.0,7.0,2.0,-1.0,2.0,0.0,0.0,2.0,1651087142706233.0,0
651,1.0,-4.0,-7.0,-3.0,0.0,0.0,-1.0,1.0,1651087142706233.0,0
652,0.0,1.0,-7.0,-3.0,-2.0,-2.0,0.0,-1.0,1651087142721512.0,0
653,-3.0,2.0,4.0,2.0,0.0,1.0,-1.0,-2.0,1651087142721512.0,0
654,0.0,-3.0,-3.0,3.0,-4.0,-1.0,-1.0,-1.0,1651087142722546.0,0
655,0.0,0.0,0.0,-4.0,-5.0,-2.0,-2.0,0.0,1651087142722546.0,0
656,0.0,-6.0,-8.0,2.0,1.0,0.0,0.0,-1.0,1651087142744379.0,0
657,-1.0,-16.0,1.0,4.0,8.0,3.0,1.0,0.0,1651087142744379.0,0
658,-2.0,11.0,5.0,1.0,-1.0,-2.0,-2.0,-2.0,1651087142750447.0,0
659,-1.0,3.0,-4.0,0.0,-2.0,-1.0,0.0,-1.0,1651087142750447.0,0
660,0.0,0.0,4.0,-7.0,-7.0,-1.0,-2.0,-1.0,1651087142756697.0,0
661,1.0,0.0,6.0,8.0,6.0,3.0,1.0,0.0,1651087142756697.0,0
662,1.0,-1.0,-6.0,-1.0,0.0,-3.0,1.0,0.0,1651087142766075.0,0
663,-1.0,-2.0,1.0,1.0,0.0,-5.0,-3.0,-1.0,1651087142766075.0,0
664,1.0,-4.0,5.0,-2.0,0.0,4.0,-1.0,-1.0,1651087142781232.0,0
665,-2.0,8.0,-9.0,-7.0,-8.0,-5.0,-2.0,-2.0,1651087142781232.0,0
666,1.0,9.0,0.0,5.0,1.0,2.0,0.0,1.0,1651087142782233.0,0
667,-4.0,-10.0,2.0,-6.0,-1.0,2.0,2.0,1.0,1651087142782233.0,0
668,-1.0,2.0,4.0,5.0,-1.0,-2.0,-2.0,-1.0,1651087142811401.0,0
669,0.0,2.0,-13.0,-9.0,-1.0,-1.0,-2.0,-1.0,1651087142811401.0,0
670,0.0,-5.0,1.0,0.0,0.0,-3.0,-1.0,-1.0,1651087142812240.0,0
671,-1.0,-15.0,-6.0,5.0,4.0,2.0,2.0,0.0,1651087142812240.0,0
672,0.0,2.0,6.0,4.0,0.0,-1.0,-1.0,-2.0,1651087142826215.0,0
673,-1.0,-7.0,-11.0,-5.0,-2.0,-1.0,0.0,0.0,1651087142826215.0,0
674,2.0,-2.0,4.0,-3.0,-3.0,-1.0,-2.0,0.0,1651087142827056.0,0
675,0.0,17.0,-9.0,-14.0,-4.0,-1.0,-1.0,0.0,1651087142827056.0,0
676,-3.0,-4.0,1.0,12.0,6.0,3.0,1.0,-1.0,1651087142840246.0,0
677,-2.0,-3.0,-8.0,5.0,4.0,0.0,-2.0,-2.0,1651087142840246.0,0
678,1.0,-14.0,2.0,-3.0,-6.0,-1.0,0.0,2.0,1651087142842241.0,0
679,1.0,7.0,-4.0,-1.0,-8.0,-1.0,-1.0,-4.0,1651087142842241.0,0
680,0.0,3.0,7.0,-7.0,0.0,-2.0,-1.0,-1.0,1651087142871379.0,0
681,1.0,3.0,5.0,0.0,-2.0,0.0,-2.0,-1.0,1651087142871379.0,0
682,-2.0,-8.0,-9.0,2.0,2.0,0.0,2.0,-1.0,1651087142872234.0,0
683,-2.0,3.0,13.0,0.0,2.0,4.0,-2.0,-1.0,1651087142872234.0,0
684,0.0,1.0,-6.0,-5.0,-5.0,-1.0,0.0,2.0,1651087142887510.0,0
685,0.0,1.0,4.0,5.0,0.0,0.0,-1.0,-2.0,1651087142887510.0,0
686,-3.0,4.0,-9.0,-4.0,-2.0,-3.0,-1.0,0.0,1651087142887510.0,0
687,-2.0,-12.0,5.0,0.0,0.0,-2.0,-1.0,-2.0,1651087142887510.0,0
688,0.0,5.0,-5.0,-1.0,-1.0,-1.0,0.0,1.0,1651087142901359.0,0
689,-2.0,4.0,2.0,-2.0,-1.0,1.0,1.0,-1.0,1651087142901359.0,0
690,0.0,2.0,-4.0,-4.0,-4.0,1.0,-1.0,-1.0,1651087142902214.0,0
691,0.0,3.0,2.0,7.0,-2.0,-1.0,0.0,2.0,1651087142902214.0,0
692,-2.0,-12.0,-1.0,-1.0,2.0,-1.0,-1.0,-1.0,1651087142923061.0,0
693,0.0,3.0,-3.0,6.0,-1.0,1.0,1.0,0.0,1651087142923061.0,0
694,2.0,-4.0,7.0,-2.0,0.0,0.0,0.0,0.0,1651087142925091.0,0
695,0.0,15.0,-7.0,0.0,-1.0,-3.0,-1.0,-2.0,1651087142925091.0,0
696,-2.0,-5.0,7.0,-3.0,-2.0,1.0,0.0,0.0,1651087142945364.0,0
697,0.0,0.0,9.0,-1.0,-2.0,0.0,-1.0,0.0,1651087142945364.0,0
698,-3.0,4.0,-5.0,6.0,4.0,0.0,1.0,-1.0,1651087142953020.0,0
699,0.0,-14.0,6.0,0.0,0.0,-1.0,0.0,-1.0,1651087142953020.0,0
700,0.0,2.0,-9.0,0.0,-2.0,-1.0,0.0,-2.0,1651087142961362.0,0
701,0.0,1.0,-2.0,-4.0,-5.0,-2.0,0.0,-1.0,1651087142961362.0,0
702,0.0,-2.0,15.0,11.0,3.0,3.0,-1.0,-1.0,1651087142962217.0,0
703,0.0,3.0,-6.0,-4.0,-2.0,-3.0,-1.0,-1.0,1651087142962217.0,0
704,0.0,4.0,4.0,1.0,4.0,-1.0,-2.0,-1.0,1651087142983215.0,0
705,-1.0,-2.0,4.0,1.0,-1.0,2.0,1.0,2.0,1651087142983215.0,0
706,1.0,0.0,-1.0,-2.0,2.0,2.0,-1.0,-1.0,1651087142985245.0,0
707,-1.0,4.0,11.0,5.0,1.0,0.0,-1.0,-1.0,1651087142985245.0,0
708,0.0,-1.0,-8.0,-2.0,-1.0,-2.0,0.0,2.0,1651087143005522.0,0
709,1.0,-2.0,-2.0,0.0,-5.0,-3.0,-1.0,-1.0,1651087143005522.0,0
710,-1.0,-10.0,0.0,0.0,4.0,4.0,2.0,-1.0,1651087143007366.0,0
711,0.0,8.0,-1.0,4.0,3.0,2.0,1.0,-1.0,1651087143007366.0,0
712,1.0,-8.0,-2.0,-4.0,-2.0,-2.0,-1.0,-1.0,1651087143020491.0,0
713,0.0,3.0,4.0,4.0,0.0,-1.0,0.0,-1.0,1651087143020491.0,0
714,-3.0,-2.0,1.0,-2.0,-4.0,-2.0,-1.0,-2.0,1651087143034220.0,0
715,2.0,-14.0,-6.0,-9.0,-2.0,0.0,-1.0,0.0,1651087143034220.0,0
716,0.0,3.0,-10.0,0.0,-4.0,-1.0,-1.0,0.0,1651087143043217.0,0
717,1.0,0.0,-9.0,-6.0,1.0,-1.0,-2.0,0.0,1651087143043217.0,0
718,-1.0,1.0,6.0,-1.0,0.0,-1.0,0.0,0.0,1651087143045246.0,0
719,-1.0,-2.0,1.0,2.0,1.0,1.0,0.0,-2.0,1651087143045246.0,0
720,0.0,12.0,-5.0,-8.0,-4.0,-5.0,-1.0,0.0,1651087143065206.0,0
721,-2.0,-3.0,-1.0,-3.0,-7.0,-2.0,-2.0,-1.0,1651087143065206.0,0
722,-2.0,9.0,2.0,2.0,5.0,5.0,0.0,1.0,1651087143067200.0,0
723,-1.0,-3.0,-7.0,-1.0,2.0,-2.0,0.0,2.0,1651087143067200.0,0
724,-1.0,-7.0,10.0,-2.0,-2.0,-2.0,-2.0,-3.0,1651087143080208.0,0
725,-2.0,5.0,4.0,-1.0,-1.0,-3.0,-2.0,-2.0,1651087143080208.0,0
726,0.0,4.0,10.0,3.0,-2.0,-2.0,0.0,-2.0,1651087143087148.0,0
727,0.0,3.0,15.0,1.0,-3.0,-1.0,0.0,-1.0,1651087143087148.0,0
728,-2.0,-8.0,-34.0,0.0,1.0,2.0,-1.0,-2.0,1651087143103105.0,0
729,-2.0,1.0,13.0,5.0,7.0,2.0,0.0,-1.0,1651087143103105.0,0
730,0.0,11.0,-4.0,-7.0,-7.0,-4.0,-2.0,-1.0,1651087143105101.0,0
731,-3.0,-23.0,-6.0,0.0,-8.0,-4.0,-3.0,-2.0,1651087143105101.0,0
732,-1.0,22.0,17.0,-2.0,2.0,3.0,-1.0,0.0,1651087143126086.0,0
733,-2.0,3.0,1.0,0.0,-1.0,0.0,0.0,-1.0,1651087143126086.0,0
734,-3.0,-7.0,-17.0,-1.0,-2.0,-1.0,-4.0,0.0,1651087143127041.0,0
735,0.0,3.0,-9.0,-2.0,-11.0,-3.0,0.0,0.0,1651087143127041.0,0
736,0.0,0.0,-1.0,6.0,19.0,3.0,3.0,1.0,1651087143148029.0,0
737,-1.0,0.0,-3.0,1.0,-6.0,-4.0,-1.0,-1.0,1651087143148029.0,0
738,0.0,-5.0,9.0,-12.0,-1.0,0.0,-2.0,-1.0,1651087143150011.0,0
739,0.0,-7.0,-31.0,2.0,-2.0,2.0,-1.0,1.0,1651087143150011.0,0
740,-3.0,-11.0,6.0,5.0,-8.0,-2.0,-1.0,-2.0,1651087143163975.0,0
741,1.0,0.0,0.0,0.0,1.0,1.0,1.0,1.0,1651087143163975.0,0
742,1.0,0.0,-9.0,-2.0,-3.0,-3.0,1.0,-1.0,1651087143164971.0,0
743,0.0,9.0,13.0,-6.0,-2.0,-2.0,-2.0,-1.0,1651087143164971.0,0
744,0.0,-6.0,-15.0,-1.0,-4.0,0.0,-1.0,0.0,1651087143185916.0,0
745,-2.0,-6.0,-12.0,-3.0,2.0,0.0,0.0,0.0,1651087143185916.0,0
746,-1.0,-3.0,2.0,-6.0,-10.0,-1.0,0.0,-2.0,1651087143186913.0,0
747,-1.0,-5.0,0.0,1.0,7.0,4.0,1.0,-1.0,1651087143186913.0,0
748,0.0,-9.0,-4.0,-4.0,-11.0,-2.0,-2.0,-2.0,1651087143199877.0,0
749,-2.0,-7.0,1.0,4.0,-8.0,-4.0,0.0,-2.0,1651087143199877.0,0
750,0.0,-5.0,-9.0,-8.0,2.0,-3.0,0.0,-1.0,1651087143206828.0,0
751,3.0,12.0,10.0,0.0,-9.0,-2.0,3.0,3.0,1651087143206828.0,0
752,-2.0,-4.0,2.0,18.0,42.0,11.0,2.0,2.0,1651087143223814.0,0
753,2.0,-11.0,2.0,-8.0,-12.0,1.0,-1.0,-1.0,1651087143223814.0,0
754,-1.0,3.0,-13.0,-5.0,-8.0,-1.0,-1.0,-1.0,1651087143228801.0,0
755,1.0,6.0,7.0,6.0,7.0,1.0,0.0,-2.0,1651087143228801.0,0
756,-2.0,-19.0,-1.0,-23.0,-41.0,-22.0,-5.0,-2.0,1651087143252736.0,0
757,-3.0,10.0,4.0,3.0,1.0,4.0,0.0,-1.0,1651087143252736.0,0
758,2.0,-1.0,4.0,-6.0,2.0,3.0,0.0,0.0,1651087143254700.0,0
759,0.0,3.0,1.0,8.0,12.0,1.0,-1.0,0.0,1651087143254700.0,0
760,-3.0,-6.0,-7.0,-5.0,5.0,5.0,0.0,0.0,1651087143259719.0,0
761,-3.0,2.0,-5.0,-9.0,-4.0,-6.0,-2.0,-3.0,1651087143259719.0,0
762,4.0,5.0,0.0,1.0,-8.0,-5.0,-1.0,-1.0,1651087143266667.0,0
763,-4.0,-3.0,-7.0,-6.0,-3.0,0.0,0.0,-1.0,1651087143266667.0,0
764,-1.0,-7.0,17.0,5.0,5.0,3.0,1.0,0.0,1651087143282657.0,0
765,-1.0,-2.0,-1.0,3.0,5.0,0.0,0.0,3.0,1651087143282657.0,0
766,-3.0,4.0,2.0,3.0,3.0,0.0,-1.0,0.0,1651087143290604.0,0
767,0.0,-3.0,7.0,1.0,2.0,1.0,-1.0,-1.0,1651087143290604.0,0
768,-1.0,8.0,4.0,3.0,-4.0,2.0,0.0,0.0,1651087143305598.0,0
769,-2.0,-14.0,-3.0,4.0,14.0,6.0,1.0,1.0,1651087143305598.0,0
770,2.0,1.0,9.0,16.0,19.0,4.0,0.0,0.0,1651087143311588.0,0
771,-1.0,-3.0,-5.0,-1.0,-2.0,-1.0,1.0,2.0,1651087143311588.0,0
772,-4.0,17.0,-1.0,-3.0,-9.0,-2.0,-1.0,0.0,1651087143319557.0,0
773,3.0,-4.0,-5.0,-8.0,-4.0,-2.0,-1.0,1.0,1651087143319557.0,0
774,0.0,-1.0,0.0,0.0,-7.0,2.0,1.0,0.0,1651087143328536.0,0
775,-1.0,1.0,-1.0,1.0,4.0,-2.0,-1.0,-1.0,1651087143328536.0,0
776,3.0,3.0,-1.0,-4.0,0.0,1.0,1.0,0.0,1651087143344201.0,0
777,1.0,3.0,-4.0,2.0,2.0,-2.0,0.0,0.0,1651087143344201.0,0
778,-3.0,-3.0,6.0,10.0,6.0,-1.0,0.0,-3.0,1651087143345103.0,0
779,0.0,-2.0,-6.0,-13.0,-12.0,-2.0,-3.0,-1.0,1651087143345103.0,0
780,-1.0,2.0,-8.0,8.0,6.0,1.0,-1.0,0.0,1651087143365573.0,0
781,-1.0,-4.0,-6.0,6.0,9.0,5.0,0.0,0.0,1651087143365573.0,0
782,-1.0,-12.0,-4.0,-7.0,-2.0,0.0,0.0,1.0,1651087143367457.0,0
783,-1.0,14.0,3.0,1.0,4.0,0.0,-2.0,-1.0,1651087143367457.0,0
784,1.0,-1.0,12.0,2.0,-6.0,-1.0,-1.0,-1.0,1651087143379697.0,0
785,-2.0,4.0,-16.0,-8.0,0.0,-1.0,-2.0,-1.0,1651087143379697.0,0
786,-2.0,-5.0,-3.0,-4.0,-11.0,-6.0,-2.0,-1.0,1651087143388704.0,0
787,-3.0,-12.0,-8.0,-1.0,9.0,4.0,-1.0,-3.0,1651087143388704.0,0
788,2.0,-2.0,3.0,-11.0,-11.0,-6.0,-1.0,2.0,1651087143403214.0,0
789,0.0,15.0,20.0,16.0,-2.0,-2.0,-1.0,-2.0,1651087143403214.0,0
790,0.0,-1.0,-11.0,1.0,12.0,1.0,1.0,0.0,1651087143405242.0,0
791,-1.0,1.0,-2.0,7.0,-1.0,-1.0,0.0,-1.0,1651087143405242.0,0
792,1.0,3.0,8.0,-5.0,1.0,3.0,0.0,-1.0,1651087143426207.0,0
793,-1.0,-5.0,-6.0,-13.0,-7.0,-1.0,-1.0,0.0,1651087143426207.0,0
794,0.0,15.0,18.0,-8.0,-16.0,-5.0,-6.0,-3.0,1651087143427053.0,0
795,5.0,2.0,0.0,5.0,-4.0,-1.0,1.0,3.0,1651087143427053.0,0
796,-1.0,-10.0,-3.0,3.0,4.0,-2.0,-1.0,0.0,1651087143439216.0,0
797,-2.0,5.0,3.0,2.0,1.0,-2.0,0.0,-3.0,1651087143439216.0,0
798,-4.0,9.0,-2.0,3.0,2.0,0.0,-2.0,-2.0,1651087143448214.0,0
799,2.0,-24.0,-9.0,-9.0,2.0,4.0,0.0,3.0,1651087143448214.0,0
800,-10.0,-2.0,-6.0,-7.0,-11.0,-4.0,-2.0,-4.0,1651087143463210.0,0
801,-6.0,-8.0,11.0,5.0,-7.0,-4.0,-2.0,0.0,1651087143463210.0,0
802,4.0,-4.0,-11.0,2.0,15.0,5.0,2.0,3.0,1651087143465208.0,0
803,-5.0,3.0,2.0,-2.0,-15.0,-9.0,-2.0,-3.0,1651087143465208.0,0
804,16.0,5.0,2.0,-1.0,11.0,8.0,1.0,1.0,1651087143486233.0,0
805,1.0,-4.0,-7.0,-13.0,-9.0,-2.0,-2.0,-4.0,1651087143486233.0,0
806,-1.0,7.0,2.0,13.0,-5.0,-6.0,-5.0,-4.0,1651087143487196.0,0
807,4.0,-3.0,-5.0,-13.0,0.0,0.0,-1.0,3.0,1651087143487196.0,0
808,-21.0,-23.0,-4.0,7.0,-1.0,-3.0,-3.0,-7.0,1651087143499817.0,0
809,-1.0,0.0,-5.0,-6.0,7.0,5.0,2.0,1.0,1651087143499817.0,0
810,16.0,2.0,6.0,2.0,-1.0,-1.0,-2.0,-2.0,1651087143507959.0,0
811,4.0,10.0,7.0,-1.0,-1.0,-1.0,4.0,7.0,1651087143507959.0,0
812,10.0,7.0,0.0,3.0,-3.0,-2.0,-2.0,-1.0,1651087143523885.0,0
813,-7.0,-13.0,-4.0,-1.0,7.0,1.0,0.0,0.0,1651087143523885.0,0
814,-11.0,7.0,-4.0,-9.0,-7.0,-3.0,-1.0,-3.0,1651087143525878.0,0
815,1.0,4.0,-1.0,11.0,10.0,2.0,-1.0,-3.0,1651087143525878.0,0
816,-3.0,-5.0,-3.0,-4.0,4.0,1.0,4.0,3.0,1651087143545371.0,0
817,8.0,2.0,10.0,6.0,-3.0,-3.0,-2.0,0.0,1651087143545371.0,0
818,-22.0,-6.0,-6.0,-5.0,-6.0,0.0,1.0,1.0,1651087143547203.0,0
819,-6.0,-24.0,-1.0,-9.0,-5.0,-3.0,-3.0,-3.0,1651087143547203.0,0
820,31.0,36.0,-1.0,15.0,16.0,6.0,2.0,0.0,1651087143560453.0,0
821,4.0,-26.0,-1.0,9.0,10.0,4.0,2.0,4.0,1651087143560453.0,0
822,17.0,28.0,-6.0,-20.0,-24.0,-7.0,-1.0,1.0,1651087143568312.0,0
823,-29.0,-65.0,-5.0,-5.0,3.0,-1.0,-4.0,-5.0,1651087143568312.0,0
824,-14.0,29.0,-8.0,-9.0,-16.0,-9.0,-5.0,-8.0,1651087143583189.0,0
825,14.0,-1.0,24.0,10.0,-3.0,-7.0,-3.0,-1.0,1651087143583189.0,0
826,-7.0,-3.0,-7.0,8.0,18.0,12.0,4.0,1.0,1651087143591307.0,2
827,31.0,32.0,-9.0,-22.0,-12.0,-5.0,2.0,5.0,1651087143591307.0,2
828,-38.0,0.0,-1.0,-14.0,-9.0,-2.0,-1.0,2.0,1651087143607253.0,2
829,-26.0,-38.0,-4.0,14.0,19.0,8.0,-1.0,-6.0,1651087143607253.0,2
830,-5.0,-42.0,8.0,8.0,2.0,-3.0,4.0,4.0,1651087143608225.0,2
831,20.0,30.0,2.0,6.0,-8.0,-2.0,-5.0,-6.0,1651087143608225.0,2
832,-30.0,3.0,4.0,-4.0,-10.0,-1.0,8.0,-4.0,1651087143620412.0,2
833,30.0,27.0,-4.0,-4.0,-5.0,1.0,0.0,16.0,1651087143620412.0,2
834,-20.0,-2.0,-9.0,-1.0,5.0,-4.0,-17.0,-23.0,1651087143628258.0,2
835,11.0,13.0,0.0,-9.0,-8.0,-5.0,9.0,1.0,1651087143628258.0,2
836,4.0,-11.0,-5.0,10.0,18.0,4.0,6.0,42.0,1651087143643234.0,2
837,-19.0,-45.0,5.0,-2.0,-1.0,4.0,-3.0,-20.0,1651087143643234.0,2
838,25.0,90.0,-2.0,-12.0,-30.0,-14.0,-7.0,2.0,1651087143644268.0,2
839,-36.0,-58.0,1.0,13.0,27.0,7.0,-6.0,-2.0,1651087143644268.0,2
840,70.0,45.0,4.0,-8.0,-7.0,-2.0,-8.0,-18.0,1651087143666378.0,2
841,-9.0,-13.0,-10.0,-1.0,-10.0,-8.0,1.0,-3.0,1651087143666378.0,2
842,-31.0,-9.0,10.0,5.0,9.0,9.0,8.0,14.0,1651087143667236.0,2
843,-9.0,-11.0,-4.0,-15.0,-21.0,-16.0,-22.0,4.0,1651087143667236.0,2
844,-63.0,23.0,14.0,26.0,17.0,3.0,3.0,3.0,1651087143679735.0,2
845,20.0,1.0,1.0,-11.0,4.0,9.0,1.0,-2.0,1651087143679735.0,2
846,5.0,-19.0,-14.0,3.0,-29.0,-10.0,-5.0,-26.0,1651087143696324.0,2
847,-44.0,26.0,4.0,-1.0,18.0,13.0,9.0,-7.0,1651087143696324.0,2
848,36.0,39.0,9.0,15.0,8.0,0.0,-6.0,23.0,1651087143703199.0,2
849,-49.0,-40.0,-5.0,-11.0,-1.0,5.0,30.0,-1.0,1651087143703199.0,2
850,33.0,0.0,2.0,3.0,-4.0,-6.0,6.0,37.0,1651087143705240.0,2
851,46.0,14.0,-8.0,5.0,0.0,4.0,7.0,-3.0,1651087143705240.0,2
852,15.0,16.0,6.0,-9.0,-18.0,-9.0,-33.0,-3.0,1651087143726443.0,2
853,44.0,73.0,-6.0,9.0,13.0,2.0,15.0,12.0,1651087143726443.0,2
854,-26.0,-92.0,-2.0,-3.0,20.0,3.0,-7.0,-6.0,1651087143727311.0,2
855,40.0,60.0,-4.0,2.0,-7.0,10.0,5.0,2.0,1651087143727311.0,2
856,-56.0,-42.0,0.0,19.0,22.0,8.0,6.0,-11.0,1651087143739418.0,2
857,-19.0,-10.0,-21.0,-26.0,-16.0,-11.0,-16.0,-24.0,1651087143739418.0,2
858,-18.0,-42.0,0.0,-11.0,-10.0,-1.0,9.0,19.0,1651087143748004.0,2
859,-15.0,24.0,20.0,21.0,18.0,9.0,-6.0,-37.0,1651087143748004.0,2
860,-21.0,-35.0,10.0,-2.0,-25.0,-7.0,-2.0,-21.0,1651087143762304.0,2
861,-64.0,-37.0,-13.0,-9.0,3.0,-4.0,-3.0,26.0,1651087143762304.0,2
862,37.0,94.0,24.0,24.0,27.0,17.0,22.0,40.0,1651087143770067.0,2
863,-23.0,-18.0,-2.0,-16.0,-9.0,-4.0,8.0,3.0,1651087143770067.0,2
864,-15.0,68.0,10.0,-3.0,-23.0,-11.0,-5.0,6.0,1651087143786661.0,2
865,72.0,56.0,16.0,13.0,23.0,11.0,1.0,4.0,1651087143786661.0,2
866,-11.0,20.0,0.0,-16.0,-8.0,-2.0,-5.0,-13.0,1651087143787676.0,2
867,72.0,-34.0,-4.0,10.0,-29.0,-18.0,-7.0,18.0,1651087143787676.0,2
868,34.0,2.0,-7.0,4.0,66.0,28.0,18.0,-10.0,1651087143808687.0,2
869,69.0,-4.0,17.0,11.0,-12.0,-13.0,-18.0,22.0,1651087143808687.0,2
870,-51.0,-48.0,-4.0,9.0,-4.0,-7.0,-18.0,-15.0,1651087143810070.0,2
871,-11.0,6.0,-9.0,-10.0,-7.0,-5.0,-9.0,-11.0,1651087143810070.0,2
872,-15.0,0.0,7.0,-9.0,-7.0,-8.0,-19.0,-67.0,1651087143823190.0,2
873,6.0,18.0,-12.0,-6.0,-15.0,1.0,20.0,75.0,1651087143823190.0,2
874,59.0,127.0,8.0,-8.0,-8.0,4.0,9.0,2.0,1651087143825218.0,2
875,-11.0,-57.0,14.0,15.0,26.0,15.0,-1.0,-8.0,1651087143825218.0,2
876,46.0,-4.0,-27.0,-19.0,-15.0,-10.0,-3.0,24.0,1651087143846203.0,2
877,-45.0,45.0,6.0,-5.0,-5.0,0.0,2.0,-17.0,1651087143846203.0,2
878,26.0,71.0,15.0,12.0,-2.0,-5.0,-14.0,-29.0,1651087143847168.0,2
879,-26.0,-29.0,-10.0,-2.0,5.0,2.0,24.0,30.0,1651087143847168.0,2
880,-8.0,-35.0,-26.0,15.0,3.0,0.0,-10.0,6.0,1651087143868211.0,2
881,-40.0,8.0,24.0,-10.0,-8.0,-1.0,2.0,-6.0,1651087143868211.0,2
882,95.0,-58.0,-9.0,-3.0,18.0,2.0,5.0,-8.0,1651087143870139.0,2
883,4.0,78.0,23.0,12.0,-12.0,-10.0,-3.0,-6.0,1651087143870139.0,2
884,50.0,13.0,0.0,1.0,22.0,15.0,10.0,20.0,1651087143883189.0,2
885,-31.0,-8.0,-10.0,4.0,-13.0,-10.0,-6.0,-16.0,1651087143883189.0,2
886,-37.0,24.0,2.0,1.0,7.0,-3.0,-14.0,-15.0,1651087143885098.0,2
887,2.0,20.0,-4.0,-7.0,7.0,-1.0,-21.0,-9.0,1651087143885098.0,2
888,-12.0,-18.0,8.0,-25.0,-60.0,-18.0,10.0,7.0,1651087143905289.0,2
889,-65.0,-71.0,-12.0,16.0,34.0,10.0,-13.0,-26.0,1651087143905289.0,2
890,-93.0,-36.0,-14.0,12.0,14.0,4.0,-6.0,-22.0,1651087143907166.0,2
891,38.0,76.0,11.0,-16.0,-38.0,-11.0,3.0,10.0,1651087143907166.0,2
892,30.0,57.0,-2.0,2.0,15.0,10.0,19.0,29.0,1651087143928688.0,2
893,-5.0,-57.0,19.0,8.0,-7.0,-2.0,-18.0,-44.0,1651087143928688.0,2
894,0.0,34.0,-37.0,-23.0,-16.0,-8.0,3.0,6.0,1651087143930109.0,2
895,-36.0,-103.0,-8.0,-1.0,-14.0,-5.0,1.0,16.0,1651087143930109.0,2
896,41.0,19.0,1.0,8.0,16.0,4.0,-8.0,-26.0,1651087143943180.0,2
897,45.0,80.0,-2.0,-4.0,7.0,-1.0,0.0,18.0,1651087143943180.0,2
898,10.0,17.0,17.0,1.0,-6.0,-3.0,7.0,17.0,1651087143945178.0,2
899,64.0,46.0,13.0,-8.0,-25.0,-9.0,-12.0,-16.0,1651087143945178.0,2
900,-32.0,-97.0,-29.0,-8.0,4.0,-2.0,12.0,18.0,1651087143966173.0,2
901,-25.0,13.0,0.0,8.0,1.0,10.0,-1.0,-15.0,1651087143966173.0,2
902,11.0,-77.0,-17.0,-13.0,-18.0,-6.0,4.0,3.0,1651087143967202.0,2
903,-10.0,47.0,-16.0,-24.0,4.0,2.0,6.0,22.0,1651087143967202.0,2
904,-3.0,-29.0,-5.0,19.0,2.0,-2.0,-27.0,-35.0,1651087143988219.0,2
905,-5.0,59.0,2.0,20.0,3.0,-1.0,14.0,5.0,1651087143988219.0,2
906,55.0,86.0,18.0,2.0,9.0,6.0,23.0,16.0,1651087143990106.0,2
907,-82.0,-93.0,-24.0,-3.0,3.0,-2.0,-15.0,-28.0,1651087143990106.0,2
908,-12.0,7.0,0.0,1.0,-4.0,4.0,8.0,20.0,1651087144002367.0,2
909,20.0,-16.0,9.0,-9.0,-20.0,-16.0,-8.0,-11.0,1651087144002367.0,2
910,-27.0,-36.0,-25.0,-35.0,-26.0,-9.0,-6.0,15.0,1651087144009200.0,2
911,10.0,58.0,22.0,55.0,60.0,24.0,17.0,-7.0,1651087144009200.0,2
912,-27.0,-36.0,1.0,-14.0,-3.0,-2.0,4.0,23.0,1651087144027181.0,2
913,7.0,72.0,22.0,-3.0,-21.0,-3.0,-8.0,-16.0,1651087144027181.0,2
914,-94.0,-91.0,-34.0,-12.0,-2.0,-5.0,-10.0,-37.0,1651087144028082.0,2
915,67.0,122.0,1.0,-8.0,-1.0,-5.0,-32.0,-3.0,1651087144028082.0,2
916,29.0,-7.0,4.0,13.0,-4.0,5.0,28.0,-15.0,1651087144048332.0,2
917,-7.0,6.0,-7.0,0.0,16.0,5.0,-5.0,35.0,1651087144048332.0,2
918,1.0,-40.0,-5.0,-17.0,-15.0,-4.0,3.0,15.0,1651087144050209.0,2
919,-9.0,12.0,16.0,25.0,24.0,13.0,8.0,22.0,1651087144050209.0,2
920,-8.0,-68.0,-8.0,1.0,7.0,2.0,-10.0,-38.0,1651087144062507.0,2
921,6.0,-32.0,-21.0,-21.0,-23.0,-21.0,-46.0,-39.0,1651087144062507.0,2
922,33.0,37.0,7.0,6.0,16.0,8.0,37.0,60.0,1651087144069218.0,2
923,-17.0,-25.0,6.0,-8.0,-7.0,-6.0,-2.0,0.0,1651087144069218.0,2
924,-7.0,-23.0,2.0,-3.0,3.0,1.0,1.0,3.0,1651087144093196.0,2
925,17.0,-5.0,-22.0,-14.0,-13.0,0.0,-6.0,-33.0,1651087144093196.0,2
926,-5.0,-17.0,7.0,25.0,13.0,-3.0,-17.0,-2.0,1651087144095226.0,2
927,2.0,-24.0,0.0,3.0,11.0,10.0,25.0,31.0,1651087144095226.0,2
928,-28.0,62.0,-4.0,-23.0,-36.0,-25.0,-23.0,-23.0,1651087144108983.0,2
929,-2.0,-27.0,-7.0,-2.0,-18.0,-12.0,2.0,-2.0,1651087144108983.0,2
930,31.0,71.0,11.0,19.0,25.0,18.0,-1.0,2.0,1651087144110076.0,2
931,-15.0,-20.0,-11.0,-19.0,-16.0,-6.0,8.0,-13.0,1651087144110076.0,2
932,29.0,127.0,10.0,-7.0,-16.0,-6.0,-7.0,10.0,1651087144122795.0,2
933,-56.0,-74.0,-14.0,6.0,25.0,7.0,4.0,24.0,1651087144122795.0,2
934,14.0,45.0,10.0,9.0,6.0,6.0,-2.0,-14.0,1651087144129050.0,2
935,-4.0,-48.0,-4.0,-12.0,-11.0,-4.0,-2.0,-39.0,1651087144129050.0,2
936,-31.0,-1.0,3.0,3.0,2.0,4.0,7.0,45.0,1651087144146207.0,2
937,55.0,-35.0,-8.0,-19.0,-7.0,-1.0,13.0,-5.0,1651087144146207.0,2
938,-27.0,-61.0,0.0,7.0,7.0,-6.0,-35.0,-39.0,1651087144147236.0,2
939,-2.0,-31.0,-14.0,12.0,16.0,1.0,8.0,3.0,1651087144147236.0,2
940,-14.0,-25.0,21.0,-10.0,-15.0,-6.0,-10.0,3.0,1651087144169167.0,2
941,-4.0,57.0,5.0,1.0,7.0,12.0,23.0,12.0,1651087144169167.0,2
942,21.0,8.0,23.0,20.0,11.0,2.0,-3.0,9.0,1651087144170199.0,2
943,-30.0,6.0,-16.0,-6.0,-2.0,-5.0,-11.0,-16.0,1651087144170199.0,2
944,14.0,5.0,-2.0,5.0,18.0,2.0,4.0,-2.0,1651087144183296.0,2
945,-34.0,-10.0,-18.0,-14.0,-2.0,-1.0,-17.0,-15.0,1651087144183296.0,2
946,73.0,32.0,6.0,-13.0,-7.0,-7.0,8.0,4.0,1651087144189166.0,2
947,-72.0,63.0,21.0,25.0,-3.0,-1.0,-12.0,-2.0,1651087144189166.0,2
948,-11.0,36.0,-1.0,3.0,15.0,14.0,23.0,41.0,1651087144206134.0,2
949,49.0,34.0,-8.0,-3.0,-10.0,-6.0,-21.0,-39.0,1651087144206134.0,2
950,-50.0,-97.0,-17.0,7.0,-4.0,3.0,20.0,36.0,1651087144207070.0,2
951,27.0,45.0,12.0,-20.0,-16.0,-12.0,-7.0,-12.0,1651087144207070.0,2
952,9.0,-3.0,-7.0,-13.0,-21.0,-9.0,-7.0,-11.0,1651087144229126.0,2
953,19.0,44.0,16.0,20.0,22.0,14.0,6.0,10.0,1651087144229126.0,2
954,5.0,17.0,15.0,-3.0,-12.0,-11.0,-40.0,-60.0,1651087144230158.0,2
955,-32.0,15.0,-12.0,-7.0,20.0,9.0,22.0,43.0,1651087144230158.0,2
956,-12.0,-50.0,-13.0,1.0,-8.0,0.0,-4.0,-14.0,1651087144243159.0,2
957,15.0,43.0,-1.0,-20.0,-9.0,-7.0,-1.0,2.0,1651087144243159.0,2
958,-72.0,-65.0,-8.0,0.0,-11.0,-2.0,5.0,-3.0,1651087144249145.0,2
959,67.0,74.0,12.0,9.0,-2.0,5.0,9.0,17.0,1651087144249145.0,2
960,-11.0,-75.0,-4.0,6.0,4.0,-4.0,-7.0,-11.0,1651087144265225.0,2
961,-1.0,38.0,2.0,9.0,8.0,5.0,11.0,16.0,1651087144265225.0,2
962,46.0,114.0,10.0,-7.0,2.0,1.0,-9.0,-23.0,1651087144267220.0,2
963,-27.0,-55.0,-17.0,-29.0,-29.0,-16.0,-16.0,-34.0,1651087144267220.0,2
964,18.0,33.0,2.0,46.0,73.0,19.0,19.0,57.0,1651087144288835.0,2
965,28.0,17.0,13.0,4.0,-13.0,-5.0,-16.0,-42.0,1651087144288835.0,2
966,-43.0,-17.0,8.0,-3.0,-7.0,0.0,28.0,31.0,1651087144290074.0,2
967,29.0,-7.0,-9.0,10.0,12.0,8.0,16.0,38.0,1651087144290074.0,2
968,-21.0,-1.0,4.0,-8.0,-11.0,-6.0,-24.0,-40.0,1651087144303095.0,2
969,-28.0,-25.0,4.0,-4.0,6.0,2.0,22.0,32.0,1651087144303095.0,2
970,18.0,-29.0,-21.0,-32.0,-2.0,4.0,-17.0,-32.0,1651087144311463.0,2
971,-35.0,-32.0,-6.0,23.0,-8.0,-12.0,-27.0,-42.0,1651087144311463.0,2
972,22.0,27.0,-9.0,-18.0,-13.0,4.0,24.0,22.0,1651087144326351.0,2
973,-22.0,19.0,11.0,6.0,-16.0,-4.0,2.0,-4.0,1651087144326351.0,2
974,-16.0,21.0,1.0,21.0,19.0,9.0,14.0,16.0,1651087144327205.0,2
975,6.0,-12.0,-2.0,-10.0,-2.0,-8.0,-12.0,-2.0,1651087144327205.0,2
976,-34.0,-16.0,7.0,5.0,14.0,5.0,-12.0,-21.0,1651087144349151.0,2
977,58.0,24.0,-12.0,-27.0,-19.0,-9.0,-23.0,-57.0,1651087144349151.0,2
978,-35.0,-39.0,3.0,11.0,12.0,3.0,40.0,88.0,1651087144350152.0,2
979,96.0,94.0,17.0,7.0,1.0,8.0,0.0,6.0,1651087144350152.0,2
980,-24.0,-58.0,4.0,-6.0,-14.0,-2.0,3.0,-6.0,1651087144362339.0,2
981,31.0,-4.0,-11.0,-1.0,-7.0,2.0,2.0,4.0,1651087144362339.0,2
982,-8.0,-2.0,-1.0,-2.0,-2.0,1.0,-4.0,-21.0,1651087144371415.0,2
983,19.0,54.0,-1.0,9.0,2.0,0.0,-8.0,12.0,1651087144371415.0,2
984,-32.0,-72.0,-4.0,-12.0,-8.0,-7.0,6.0,4.0,1651087144386234.0,2
985,-28.0,-22.0,6.0,15.0,12.0,0.0,5.0,13.0,1651087144386234.0,2
986,66.0,63.0,10.0,-4.0,-18.0,-4.0,-19.0,-22.0,1651087144387200.0,2
987,-79.0,-116.0,-21.0,-6.0,18.0,1.0,2.0,-5.0,1651087144387200.0,2
988,2.0,82.0,6.0,1.0,-11.0,-5.0,-12.0,-15.0,1651087144408670.0,2
989,20.0,-28.0,-21.0,-32.0,-34.0,-13.0,-2.0,34.0,1651087144408670.0,2
990,32.0,39.0,21.0,54.0,62.0,20.0,7.0,12.0,1651087144410074.0,2
991,-14.0,-22.0,15.0,-9.0,-17.0,-2.0,3.0,9.0,1651087144410074.0,2
992,21.0,58.0,-6.0,-8.0,1.0,-3.0,-3.0,-21.0,1651087144422339.0,2
993,-69.0,-88.0,-14.0,-21.0,-10.0,-9.0,-2.0,16.0,1651087144422339.0,2
994,17.0,-10.0,1.0,-10.0,-16.0,0.0,4.0,5.0,1651087144431411.0,2
995,-16.0,8.0,-8.0,-5.0,-16.0,1.0,3.0,2.0,1651087144431411.0,2
996,9.0,-62.0,-11.0,16.0,15.0,4.0,-1.0,-20.0,1651087144446241.0,2
997,-31.0,28.0,5.0,-12.0,4.0,3.0,14.0,30.0,1651087144446241.0,2
998,-13.0,-6.0,-23.0,-14.0,-5.0,-5.0,-25.0,-34.0,1651087144447206.0,2
999,16.0,-3.0,23.0,15.0,-11.0,-2.0,0.0,-1.0,1651087144447206.0,2
1000,5.0,74.0,-5.0,-15.0,4.0,-1.0,-20.0,-34.0,1651087144468691.0,2
1001,-20.0,-82.0,17.0,9.0,-11.0,3.0,33.0,43.0,1651087144468691.0,2
1002,-6.0,-43.0,-18.0,16.0,47.0,10.0,4.0,-6.0,1651087144470078.0,2
1003,-35.0,-26.0,-7.0,-9.0,-9.0,-2.0,5.0,2.0,1651087144470078.0,2
1004,22.0,45.0,19.0,22.0,-8.0,-5.0,-18.0,-21.0,1651087144482191.0,2
1005,49.0,63.0,14.0,17.0,28.0,20.0,22.0,30.0,1651087144482191.0,2
1006,-63.0,-33.0,1.0,-21.0,-16.0,-13.0,-28.0,-34.0,1651087144491221.0,2
1007,111.0,13.0,-25.0,-9.0,6.0,5.0,27.0,23.0,1651087144491221.0,2
1008,4.0,-52.0,16.0,9.0,-7.0,1.0,7.0,17.0,1651087144505348.0,2
1009,-24.0,29.0,2.0,3.0,6.0,-7.0,-7.0,-11.0,1651087144505348.0,2
1010,23.0,27.0,-7.0,-9.0,-28.0,-12.0,-1.0,-6.0,1651087144507197.0,2
1011,-17.0,29.0,12.0,3.0,16.0,6.0,-18.0,-20.0,1651087144507197.0,2
1012,7.0,23.0,-1.0,0.0,9.0,4.0,11.0,1.0,1651087144528181.0,2
1013,21.0,-71.0,-23.0,-18.0,5.0,-8.0,-5.0,11.0,1651087144528181.0,2
1014,-22.0,-45.0,5.0,8.0,2.0,2.0,2.0,-3.0,1651087144530133.0,2
1015,-45.0,-12.0,-9.0,-6.0,-25.0,-13.0,1.0,-15.0,1651087144530133.0,2
1016,-14.0,28.0,7.0,6.0,16.0,14.0,9.0,22.0,1651087144542411.0,2
1017,32.0,-17.0,-25.0,3.0,-3.0,-2.0,-6.0,-10.0,1651087144542411.0,2
1018,20.0,55.0,5.0,0.0,-7.0,-2.0,0.0,-1.0,1651087144551353.0,2
1019,-37.0,-13.0,-2.0,-12.0,-5.0,-3.0,-8.0,3.0,1651087144551353.0,2
1020,-28.0,-84.0,-14.0,-1.0,-12.0,-8.0,-3.0,1.0,1651087144565350.0,2
1021,38.0,72.0,-8.0,7.0,10.0,2.0,-3.0,5.0,1651087144565350.0,2
1022,5.0,-25.0,10.0,-13.0,-13.0,-2.0,20.0,45.0,1651087144567204.0,2
1023,12.0,-42.0,-4.0,-9.0,-13.0,1.0,-8.0,-30.0,1651087144567204.0,2
1024,5.0,39.0,7.0,10.0,19.0,5.0,-4.0,19.0,1651087144589149.0,2
1025,-5.0,38.0,9.0,14.0,-5.0,-5.0,-25.0,-48.0,1651087144589149.0,2
1026,-65.0,26.0,-13.0,-11.0,-16.0,5.0,14.0,11.0,1651087144590151.0,2
1027,29.0,18.0,18.0,6.0,13.0,-2.0,15.0,17.0,1651087144590151.0,2
1028,-15.0,-14.0,-25.0,-33.0,-30.0,-13.0,-33.0,-24.0,1651087144602459.0,2
1029,-40.0,9.0,-2.0,18.0,11.0,2.0,6.0,-21.0,1651087144602459.0,2
1030,41.0,55.0,12.0,-8.0,-26.0,-9.0,-13.0,26.0,1651087144618290.0,2
1031,-35.0,-27.0,-9.0,-1.0,10.0,8.0,10.0,-20.0,1651087144618290.0,2
1032,-7.0,30.0,26.0,35.0,22.0,0.0,8.0,26.0,1651087144626433.0,2
1033,38.0,55.0,20.0,10.0,4.0,4.0,-8.0,-39.0,1651087144626433.0,2
1034,-6.0,-26.0,-6.0,-24.0,-10.0,-4.0,-3.0,2.0,1651087144627266.0,2
1035,43.0,-31.0,-19.0,3.0,15.0,8.0,21.0,41.0,1651087144627266.0,2
1036,-24.0,-41.0,-4.0,-19.0,-26.0,-15.0,-1.0,-20.0,1651087144648381.0,2
1037,-21.0,-8.0,-10.0,-16.0,-14.0,-6.0,3.0,0.0,1651087144648381.0,2
1038,12.0,1.0,11.0,26.0,37.0,19.0,16.0,8.0,1651087144650247.0,2
1039,-5.0,-21.0,-14.0,-12.0,-16.0,-13.0,-36.0,-45.0,1651087144650247.0,2
1040,6.0,15.0,-8.0,-9.0,13.0,8.0,34.0,51.0,1651087144662635.0,2
1041,-49.0,-103.0,0.0,-7.0,-7.0,-6.0,-28.0,-28.0,1651087144662635.0,2
1042,-31.0,13.0,-2.0,-9.0,-17.0,-7.0,-3.0,-14.0,1651087144671417.0,2
1043,-31.0,-30.0,-9.0,6.0,4.0,0.0,1.0,15.0,1651087144671417.0,2
1044,30.0,19.0,19.0,-6.0,-19.0,-2.0,7.0,-18.0,1651087144686486.0,2
1045,-13.0,-43.0,-16.0,5.0,23.0,4.0,0.0,3.0,1651087144686486.0,2
1046,9.0,44.0,-2.0,-8.0,-7.0,-6.0,-23.0,-25.0,1651087144687332.0,2
1047,-30.0,57.0,23.0,13.0,12.0,3.0,6.0,32.0,1651087144687332.0,2
1048,60.0,16.0,-23.0,-6.0,-19.0,-13.0,-5.0,-18.0,1651087144709252.0,2
1049,0.0,29.0,22.0,19.0,1.0,8.0,4.0,3.0,1651087144709252.0,2
1050,-22.0,23.0,3.0,6.0,24.0,13.0,16.0,10.0,1651087144710252.0,2
1051,-29.0,-52.0,-26.0,-21.0,-21.0,-7.0,-13.0,-21.0,1651087144710252.0,2
1052,32.0,23.0,0.0,3.0,-7.0,-6.0,-26.0,-30.0,1651087144731119.0,2
1053,-42.0,12.0,-2.0,-13.0,-13.0,0.0,40.0,52.0,1651087144731119.0,2
1054,27.0,-37.0,3.0,15.0,19.0,-2.0,-18.0,-22.0,1651087144732116.0,2
1055,31.0,59.0,26.0,17.0,10.0,3.0,11.0,0.0,1651087144732116.0,2
1056,-25.0,-19.0,-2.0,-20.0,-10.0,0.0,-12.0,-18.0,1651087144745362.0,2
1057,20.0,31.0,5.0,16.0,15.0,1.0,-4.0,14.0,1651087144745362.0,2
1058,-26.0,-67.0,0.0,2.0,-8.0,-5.0,0.0,-10.0,1651087144747224.0,2
1059,15.0,6.0,-11.0,-11.0,14.0,4.0,9.0,28.0,1651087144747224.0,2
1060,35.0,-3.0,-8.0,-10.0,-11.0,1.0,-4.0,-10.0,1651087144769141.0,2
1061,-19.0,-14.0,15.0,17.0,18.0,5.0,9.0,26.0,1651087144769141.0,2
1062,22.0,-21.0,-41.0,-9.0,-13.0,-4.0,-12.0,-37.0,1651087144770140.0,2
1063,-16.0,16.0,23.0,4.0,-15.0,-10.0,-6.0,15.0,1651087144770140.0,2
1064,-5.0,3.0,1.0,8.0,31.0,16.0,13.0,18.0,1651087144790992.0,2
1065,38.0,72.0,5.0,-8.0,-1.0,3.0,-2.0,25.0,1651087144790992.0,2
1066,-22.0,6.0,0.0,-11.0,-19.0,-5.0,7.0,-10.0,1651087144792455.0,2
1067,19.0,-24.0,4.0,11.0,5.0,2.0,-6.0,-41.0,1651087144792455.0,2
1068,-18.0,-2.0,-8.0,-9.0,-9.0,-4.0,10.0,28.0,1651087144805389.0,2
1069,25.0,47.0,8.0,7.0,6.0,9.0,0.0,-12.0,1651087144805389.0,2
1070,-19.0,-34.0,-30.0,-30.0,-17.0,-8.0,-2.0,-4.0,1651087144807223.0,2
1071,13.0,15.0,-2.0,1.0,9.0,4.0,-20.0,-11.0,1651087144807223.0,2
1072,11.0,-1.0,5.0,11.0,-16.0,-5.0,20.0,52.0,1651087144828215.0,2
1073,-17.0,5.0,1.0,2.0,20.0,7.0,-15.0,-29.0,1651087144828215.0,2
1074,3.0,-8.0,10.0,8.0,4.0,-2.0,2.0,-18.0,1651087144830082.0,2
1075,14.0,16.0,3.0,-4.0,1.0,2.0,20.0,34.0,1651087144830082.0,2
1076,10.0,23.0,-33.0,-13.0,3.0,0.0,-18.0,-32.0,1651087144851250.0,2
1077,-5.0,-68.0,-11.0,7.0,-14.0,-7.0,2.0,19.0,1651087144851250.0,2
1078,-10.0,-11.0,23.0,6.0,-1.0,-1.0,17.0,22.0,1651087144852250.0,2
1079,19.0,10.0,9.0,26.0,10.0,3.0,-10.0,-4.0,1651087144852250.0,2
1080,-8.0,28.0,1.0,-6.0,7.0,1.0,26.0,22.0,1651087144865224.0,2
1081,2.0,8.0,1.0,-20.0,-12.0,-7.0,-6.0,-4.0,1651087144865224.0,2
1082,7.0,26.0,13.0,17.0,3.0,2.0,-19.0,-17.0,1651087144867219.0,2
1083,-22.0,-5.0,-14.0,-20.0,-11.0,-5.0,2.0,8.0,1651087144867219.0,2
1084,12.0,12.0,13.0,12.0,11.0,4.0,-1.0,7.0,1651087144895389.0,2
1085,1.0,7.0,-11.0,-7.0,-5.0,-5.0,-12.0,-22.0,1651087144895389.0,2
1086,-8.0,8.0,9.0,12.0,2.0,-1.0,0.0,-2.0,1651087144897221.0,2
1087,-32.0,-34.0,3.0,-27.0,-14.0,-2.0,11.0,26.0,1651087144897221.0,2
1088,-34.0,-61.0,2.0,10.0,9.0,3.0,-22.0,-21.0,1651087144911186.0,2
1089,40.0,-1.0,-12.0,-11.0,-17.0,-9.0,-9.0,-26.0,1651087144911186.0,2
1090,31.0,39.0,-13.0,12.0,21.0,4.0,26.0,58.0,1651087144912235.0,2
1091,1.0,-9.0,2.0,2.0,-2.0,-3.0,-13.0,-27.0,1651087144912235.0,2
1092,-6.0,0.0,15.0,2.0,-16.0,-7.0,-9.0,-22.0,1651087144926223.0,2
1093,-19.0,-11.0,-14.0,6.0,30.0,9.0,19.0,32.0,1651087144926223.0,2
1094,-9.0,-64.0,3.0,-19.0,-17.0,3.0,-12.0,-37.0,1651087144933029.0,2
1095,10.0,23.0,1.0,22.0,28.0,13.0,9.0,6.0,1651087144933029.0,2
1096,7.0,-1.0,-5.0,-7.0,-10.0,-9.0,-2.0,1.0,1651087144949242.0,2
1097,-17.0,6.0,10.0,-3.0,-1.0,-3.0,-12.0,-21.0,1651087144949242.0,2
1098,8.0,-8.0,-2.0,11.0,4.0,2.0,6.0,24.0,1651087144950243.0,2
1099,-2.0,5.0,-2.0,2.0,1.0,-2.0,-5.0,-18.0,1651087144950243.0,2
1100,-10.0,-5.0,6.0,0.0,-1.0,1.0,-4.0,-3.0,1651087144971344.0,2
1101,8.0,6.0,4.0,0.0,-6.0,0.0,1.0,2.0,1651087144971344.0,2
1102,5.0,8.0,-2.0,-4.0,-5.0,-3.0,7.0,15.0,1651087144972228.0,2
1103,2.0,-11.0,10.0,4.0,-2.0,1.0,-11.0,-21.0,1651087144972228.0,2
1104,-12.0,3.0,-16.0,-5.0,-8.0,-5.0,8.0,10.0,1651087144985334.0,2
1105,-11.0,-17.0,-3.0,-4.0,-5.0,-4.0,-3.0,-3.0,1651087144985334.0,2
1106,2.0,6.0,-7.0,-3.0,4.0,1.0,-4.0,1.0,1651087144992175.0,2
1107,3.0,9.0,13.0,3.0,-7.0,-5.0,-4.0,-6.0,1651087144992175.0,2
1108,-6.0,3.0,-6.0,-3.0,1.0,1.0,0.0,-10.0,1651087145023211.0,2
1109,0.0,-6.0,3.0,7.0,4.0,2.0,7.0,12.0,1651087145023211.0,2
1110,3.0,7.0,0.0,0.0,1.0,-2.0,-9.0,-9.0,1651087145025237.0,2
1111,-4.0,13.0,-6.0,-5.0,-2.0,-4.0,4.0,4.0,1651087145025237.0,2
1112,3.0,-3.0,1.0,-2.0,1.0,1.0,-1.0,4.0,1651087145030220.0,2
1113,-3.0,-5.0,0.0,4.0,-5.0,-5.0,3.0,10.0,1651087145030220.0,2
1114,-1.0,10.0,-2.0,-12.0,-5.0,0.0,-4.0,-21.0,1651087145032183.0,2
1115,6.0,4.0,-6.0,0.0,1.0,9.0,0.0,-4.0,1651087145032183.0,2
1116,1.0,-7.0,10.0,7.0,1.0,0.0,5.0,18.0,1651087145045146.0,2
1117,6.0,-4.0,-6.0,1.0,3.0,1.0,2.0,4.0,1651087145045146.0,2
1118,-2.0,8.0,-1.0,-3.0,-3.0,-6.0,-11.0,-7.0,1651087145052160.0,2
1119,-2.0,2.0,2.0,-2.0,-4.0,-9.0,-3.0,-3.0,1651087145052160.0,2
1120,4.0,-1.0,2.0,19.0,12.0,19.0,9.0,17.0,1651087145068127.0,2
1121,-11.0,0.0,-11.0,-10.0,-7.0,-13.0,-5.0,-16.0,1651087145068127.0,2
1122,-12.0,2.0,2.0,-10.0,-2.0,5.0,4.0,15.0,1651087145070082.0,2
1123,7.0,1.0,-22.0,8.0,0.0,-15.0,-10.0,-10.0,1651087145070082.0,2
1124,-31.0,-3.0,6.0,-9.0,0.0,-3.0,-1.0,-5.0,1651087145091061.0,2
1125,-1.0,1.0,4.0,5.0,1.0,18.0,7.0,14.0,1651087145091061.0,2
1126,33.0,4.0,-12.0,-11.0,-5.0,-1.0,6.0,7.0,1651087145092025.0,2
1127,-19.0,0.0,17.0,12.0,2.0,5.0,1.0,2.0,1651087145092025.0,2
1128,8.0,0.0,2.0,4.0,-1.0,-9.0,-8.0,-4.0,1651087145105080.0,2
1129,-9.0,-5.0,2.0,-1.0,-2.0,-9.0,-7.0,9.0,1651087145105080.0,2
1130,8.0,8.0,9.0,-4.0,0.0,-4.0,-7.0,-27.0,1651087145112030.0,2
1131,4.0,-2.0,-8.0,1.0,2.0,5.0,10.0,45.0,1651087145112030.0,2
1132,0.0,-2.0,-13.0,-11.0,1.0,-8.0,0.0,-25.0,1651087145129171.0,2
1133,-2.0,-2.0,14.0,-16.0,-6.0,8.0,-6.0,4.0,1651087145129171.0,2
1134,8.0,5.0,17.0,19.0,-1.0,1.0,7.0,29.0,1651087145130172.0,2
1135,1.0,-4.0,-24.0,-21.0,-4.0,-3.0,2.0,8.0,1651087145130172.0,2
1136,-5.0,2.0,16.0,20.0,-2.0,-3.0,-10.0,-25.0,1651087145152792.0,2
1137,2.0,0.0,0.0,4.0,4.0,-1.0,1.0,-3.0,1651087145152792.0,2
1138,-14.0,-1.0,-1.0,-4.0,0.0,-8.0,-6.0,-3.0,1651087145153638.0,2
1139,0.0,7.0,13.0,-2.0,-5.0,-2.0,1.0,-5.0,1651087145153638.0,2
1140,5.0,-2.0,-8.0,-4.0,-1.0,-1.0,-1.0,6.0,1651087145172912.0,2
1141,0.0,1.0,-9.0,-2.0,-3.0,-2.0,2.0,-5.0,1651087145172912.0,2
1142,-1.0,2.0,-4.0,1.0,9.0,4.0,-3.0,-5.0,1651087145174906.0,2
1143,-1.0,4.0,0.0,1.0,4.0,0.0,0.0,-4.0,1651087145174906.0,2
1144,1.0,3.0,-8.0,3.0,-1.0,2.0,0.0,0.0,1651087145188020.0,2
1145,-1.0,0.0,8.0,-1.0,-3.0,-1.0,0.0,-15.0,1651087145188020.0,2
1146,-3.0,-5.0,12.0,-2.0,-3.0,2.0,2.0,5.0,1651087145189867.0,2
1147,3.0,-1.0,8.0,-2.0,-5.0,-3.0,-2.0,5.0,1651087145189867.0,2
1148,-1.0,-5.0,-5.0,9.0,7.0,1.0,-4.0,-27.0,1651087145211217.0,2
1149,-3.0,-8.0,-13.0,-6.0,-2.0,-1.0,4.0,4.0,1651087145211217.0,2
1150,1.0,-6.0,-11.0,3.0,2.0,-1.0,-2.0,-2.0,1651087145212217.0,2
1151,-3.0,-1.0,0.0,-5.0,-5.0,-2.0,-5.0,-3.0,1651087145212217.0,2
1152,1.0,-7.0,-34.0,-28.0,-11.0,-3.0,3.0,6.0,1651087145225210.0,2
1153,-2.0,0.0,-1.0,8.0,3.0,3.0,3.0,-3.0,1651087145225210.0,2
1154,-13.0,1.0,2.0,4.0,-6.0,-1.0,-3.0,7.0,1651087145232343.0,2
1155,4.0,1.0,9.0,0.0,1.0,-2.0,-5.0,-35.0,1651087145232343.0,2
1156,5.0,0.0,12.0,-8.0,-3.0,1.0,2.0,11.0,1651087145247795.0,2
1157,4.0,0.0,-8.0,7.0,4.0,1.0,-4.0,-21.0,1651087145247795.0,2
1158,-1.0,-1.0,8.0,2.0,1.0,-6.0,4.0,1.0,1651087145262978.0,2
1159,-5.0,-4.0,-33.0,-7.0,1.0,3.0,0.0,1.0,1651087145262978.0,2
1160,5.0,0.0,17.0,-4.0,-2.0,-2.0,-2.0,9.0,1651087145271212.0,2
1161,-3.0,-2.0,2.0,4.0,-5.0,-4.0,-3.0,-7.0,1651087145271212.0,2
1162,-2.0,-1.0,-11.0,-7.0,0.0,1.0,0.0,4.0,1651087145272212.0,2
1163,-3.0,-1.0,-9.0,6.0,3.0,2.0,1.0,-2.0,1651087145272212.0,2
1164,-5.0,2.0,25.0,6.0,2.0,1.0,1.0,2.0,1651087145284355.0,2
1165,1.0,-2.0,-10.0,-16.0,-6.0,-3.0,0.0,2.0,1651087145284355.0,2
1166,3.0,1.0,-2.0,3.0,1.0,1.0,-2.0,-2.0,1651087145293043.0,2
1167,-1.0,-5.0,-5.0,-10.0,-2.0,-3.0,-3.0,-2.0,1651087145293043.0,2
1168,-2.0,10.0,2.0,-3.0,-5.0,1.0,1.0,4.0,1651087145308341.0,2
1169,-1.0,1.0,25.0,16.0,1.0,-1.0,0.0,5.0,1651087145308341.0,2
1170,-1.0,-13.0,-37.0,-17.0,-3.0,-2.0,-4.0,-10.0,1651087145310219.0,2
1171,1.0,0.0,3.0,4.0,7.0,5.0,0.0,-1.0,1651087145310219.0,2
1172,2.0,0.0,-4.0,-4.0,-2.0,-4.0,-1.0,15.0,1651087145330655.0,2
1173,4.0,6.0,5.0,5.0,0.0,2.0,-1.0,-19.0,1651087145330655.0,2
1174,1.0,2.0,7.0,6.0,0.0,-1.0,-3.0,-3.0,1651087145332535.0,2
1175,-5.0,1.0,-6.0,0.0,-2.0,1.0,-1.0,1.0,1651087145332535.0,2
1176,-2.0,-4.0,-6.0,-4.0,-1.0,0.0,0.0,2.0,1651087145344203.0,2
1177,1.0,-1.0,-13.0,-14.0,-6.0,-3.0,-2.0,7.0,1651087145344203.0,2
1178,-4.0,-2.0,-3.0,14.0,6.0,2.0,2.0,2.0,1651087145353093.0,2
1179,0.0,1.0,3.0,0.0,-2.0,-3.0,-1.0,-2.0,1651087145353093.0,2
1180,-3.0,-1.0,-6.0,-3.0,1.0,0.0,-1.0,-6.0,1651087145368664.0,2
1181,3.0,-1.0,-4.0,-3.0,0.0,0.0,-1.0,4.0,1651087145368664.0,2
1182,-1.0,4.0,10.0,-2.0,-4.0,-5.0,-1.0,-4.0,1651087145370102.0,2
1183,-4.0,-1.0,4.0,-3.0,0.0,1.0,1.0,1.0,1651087145370102.0,2
1184,7.0,0.0,12.0,18.0,0.0,-1.0,1.0,8.0,1651087145391307.0,2
1185,-5.0,-2.0,-17.0,-15.0,-2.0,-3.0,-2.0,-3.0,1651087145391307.0,2
1186,2.0,1.0,4.0,4.0,0.0,0.0,-1.0,3.0,1651087145392239.0,2
1187,-1.0,1.0,12.0,-5.0,0.0,-2.0,0.0,-2.0,1651087145392239.0,2
1188,-4.0,-5.0,-12.0,-8.0,-1.0,2.0,-1.0,-1.0,1651087145405391.0,2
1189,1.0,5.0,-6.0,1.0,2.0,-1.0,-1.0,2.0,1651087145405391.0,2
1190,-1.0,-8.0,5.0,4.0,-3.0,-2.0,-1.0,-5.0,1651087145413612.0,2
1191,4.0,3.0,0.0,5.0,-2.0,1.0,0.0,-2.0,1651087145413612.0,2
1192,-2.0,-2.0,5.0,-1.0,7.0,0.0,0.0,-5.0,1651087145429232.0,2
1193,-1.0,0.0,2.0,8.0,-3.0,-1.0,0.0,5.0,1651087145429232.0,2
1194,0.0,2.0,5.0,-7.0,-1.0,-3.0,-3.0,-3.0,1651087145430232.0,2
1195,-1.0,-2.0,5.0,2.0,4.0,2.0,-1.0,0.0,1651087145430232.0,2
1196,-2.0,5.0,-12.0,-1.0,3.0,1.0,2.0,-1.0,1651087145451369.0,2
1197,0.0,-2.0,8.0,0.0,-3.0,-2.0,1.0,1.0,1651087145451369.0,2
1198,1.0,-6.0,2.0,3.0,2.0,6.0,0.0,2.0,1651087145452209.0,2
1199,-3.0,6.0,1.0,-4.0,-5.0,-5.0,-1.0,-2.0,1651087145452209.0,2
1200,2.0,-2.0,-5.0,-7.0,-5.0,-3.0,-1.0,-3.0,1651087145464382.0,2
1201,-1.0,0.0,-5.0,-4.0,1.0,3.0,0.0,1.0,1651087145464382.0,2
1202,1.0,6.0,5.0,3.0,-3.0,-1.0,1.0,1.0,1651087145473194.0,2
1203,-2.0,-8.0,8.0,1.0,-2.0,0.0,-1.0,-2.0,1651087145473194.0,2
1204,0.0,2.0,10.0,1.0,2.0,3.0,-1.0,-4.0,1651087145489104.0,2
1205,-3.0,-9.0,-3.0,2.0,1.0,-1.0,1.0,-2.0,1651087145489104.0,2
1206,-1.0,5.0,-7.0,-4.0,-2.0,-2.0,-1.0,-1.0,1651087145490105.0,2
1207,1.0,-6.0,-10.0,-9.0,-2.0,2.0,0.0,1.0,1651087145490105.0,2
1208,1.0,7.0,-8.0,-4.0,0.0,-2.0,-3.0,-1.0,1651087145511419.0,2
1209,1.0,1.0,19.0,10.0,5.0,1.0,0.0,2.0,1651087145511419.0,2
1210,-1.0,-7.0,6.0,-3.0,-3.0,1.0,0.0,-1.0,1651087145512419.0,2
1211,2.0,-8.0,-27.0,-3.0,1.0,-3.0,0.0,1.0,1651087145512419.0,2
1212,-2.0,-6.0,13.0,4.0,-2.0,-1.0,-2.0,-3.0,1651087145533363.0,2
1213,1.0,7.0,-9.0,-1.0,3.0,2.0,1.0,1.0,1651087145533363.0,2
1214,-1.0,-5.0,3.0,-1.0,-5.0,-2.0,-2.0,-2.0,1651087145534360.0,2
1215,0.0,0.0,5.0,-7.0,-4.0,0.0,-1.0,0.0,1651087145534360.0,2
1216,-3.0,-3.0,1.0,-1.0,-5.0,-4.0,-3.0,-4.0,1651087145549239.0,2
1217,-1.0,4.0,0.0,10.0,9.0,3.0,0.0,0.0,1651087145549239.0,2
1218,-1.0,-1.0,-16.0,-10.0,0.0,-2.0,1.0,0.0,1651087145550240.0,2
1219,0.0,4.0,5.0,3.0,-1.0,0.0,-1.0,-1.0,1651087145550240.0,2
1220,1.0,2.0,-5.0,0.0,0.0,1.0,0.0,0.0,1651087145571323.0,2
1221,-1.0,-2.0,3.0,-3.0,-4.0,-2.0,-3.0,-1.0,1651087145571323.0,2
1222,-3.0,-10.0,6.0,4.0,-4.0,0.0,-1.0,0.0,1651087145572240.0,2
1223,-1.0,5.0,-4.0,1.0,0.0,-1.0,0.0,-1.0,1651087145572240.0,2
1224,-1.0,-4.0,-9.0,-2.0,0.0,2.0,1.0,-1.0,1651087145585385.0,2
1225,-2.0,-2.0,0.0,0.0,-2.0,2.0,0.0,0.0,1651087145585385.0,0
1226,0.0,3.0,-3.0,1.0,5.0,1.0,-1.0,0.0,1651087145593121.0,0
1227,0.0,5.0,-3.0,-10.0,-5.0,-8.0,-1.0,0.0,1651087145593121.0,0
1228,1.0,1.0,-19.0,6.0,-1.0,4.0,0.0,0.0,1651087145609237.0,0
1229,-3.0,-15.0,-1.0,0.0,-2.0,-1.0,0.0,0.0,1651087145609237.0,0
1230,0.0,7.0,10.0,-1.0,1.0,-2.0,-2.0,-2.0,1651087145610272.0,0
1231,0.0,1.0,-2.0,3.0,4.0,2.0,-1.0,-1.0,1651087145610272.0,0
1232,-1.0,-8.0,-2.0,-8.0,-1.0,-4.0,0.0,-1.0,1651087145631112.0,0
1233,-2.0,17.0,6.0,-3.0,-7.0,-1.0,-2.0,0.0,1651087145631112.0,0
1234,-1.0,4.0,-5.0,1.0,6.0,1.0,1.0,-2.0,1651087145632144.0,0
1235,-1.0,-3.0,6.0,1.0,-1.0,-3.0,0.0,0.0,1651087145632144.0,0
1236,1.0,-4.0,-17.0,0.0,-2.0,-3.0,-4.0,0.0,1651087145644259.0,0
1237,0.0,-11.0,-5.0,1.0,-2.0,0.0,0.0,-1.0,1651087145644259.0,0
1238,-1.0,12.0,3.0,-2.0,3.0,4.0,0.0,-2.0,1651087145653228.0,0
1239,-2.0,-1.0,3.0,2.0,0.0,-1.0,-1.0,-1.0,1651087145653228.0,0
1240,1.0,-3.0,-3.0,-4.0,-1.0,-1.0,-1.0,0.0,1651087145668397.0,0
1241,0.0,1.0,10.0,-2.0,1.0,-2.0,-2.0,0.0,1651087145668397.0,0
1242,1.0,2.0,5.0,-1.0,-9.0,-4.0,-2.0,1.0,1651087145670073.0,0
1243,-2.0,-10.0,-9.0,0.0,2.0,4.0,1.0,0.0,1651087145670073.0,0
1244,-1.0,1.0,3.0,1.0,2.0,-1.0,2.0,-2.0,1651087145691374.0,0
1245,2.0,2.0,0.0,1.0,1.0,0.0,0.0,0.0,1651087145691374.0,0
1246,1.0,-6.0,-17.0,-2.0,0.0,-1.0,-1.0,1.0,1651087145692375.0,0
1247,-1.0,3.0,3.0,-1.0,-3.0,2.0,-2.0,0.0,1651087145692375.0,0
1248,-1.0,-4.0,11.0,0.0,-2.0,-3.0,-2.0,0.0,1651087145713287.0,0
1249,-1.0,2.0,-4.0,-4.0,-1.0,-1.0,0.0,0.0,1651087145713287.0,0
1250,1.0,10.0,-6.0,-6.0,1.0,0.0,0.0,-1.0,1651087145715237.0,0
1251,-1.0,-12.0,10.0,8.0,0.0,1.0,1.0,-2.0,1651087145715237.0,0
1252,-1.0,3.0,3.0,-4.0,-2.0,-1.0,-3.0,-2.0,1651087145728226.0,0
1253,1.0,-6.0,4.0,-4.0,3.0,1.0,1.0,1.0,1651087145728226.0,0
1254,-1.0,14.0,-5.0,-3.0,-2.0,-2.0,-3.0,-1.0,1651087145730198.0,0
1255,0.0,1.0,-13.0,-4.0,5.0,4.0,0.0,-1.0,1651087145730198.0,0
1256,-1.0,1.0,8.0,1.0,-2.0,-2.0,0.0,-1.0,1651087145751843.0,0
1257,1.0,2.0,2.0,1.0,-3.0,-2.0,-1.0,-1.0,1651087145751843.0,0
1258,0.0,-8.0,-2.0,0.0,-3.0,-2.0,0.0,1.0,1651087145751843.0,0
1259,-1.0,3.0,2.0,-1.0,-2.0,1.0,-1.0,0.0,1651087145751843.0,0
1260,0.0,0.0,-3.0,-4.0,-5.0,-2.0,0.0,-1.0,1651087145772872.0,0
1261,0.0,-11.0,-6.0,4.0,3.0,2.0,-2.0,-1.0,1651087145772872.0,0
1262,-2.0,6.0,-2.0,-10.0,5.0,5.0,3.0,0.0,1651087145774901.0,0
1263,-3.0,-5.0,9.0,10.0,1.0,-4.0,-1.0,-1.0,1651087145774901.0,0
1264,-1.0,1.0,14.0,13.0,6.0,2.0,0.0,0.0,1651087145789003.0,0
1265,-2.0,1.0,-19.0,-12.0,-8.0,-1.0,-1.0,-2.0,1651087145789003.0,0
1266,0.0,-6.0,8.0,-2.0,-7.0,-3.0,-1.0,-2.0,1651087145790004.0,0
1267,1.0,5.0,-3.0,-7.0,-3.0,-2.0,0.0,1.0,1651087145790004.0,0
1268,-1.0,0.0,-3.0,-3.0,-3.0,-2.0,-2.0,0.0,1651087145811407.0,0
1269,-1.0,3.0,8.0,5.0,1.0,-1.0,-1.0,1.0,1651087145811407.0,0
1270,-1.0,-8.0,0.0,5.0,-1.0,1.0,-1.0,-1.0,1651087145812271.0,0
1271,0.0,3.0,-4.0,0.0,-2.0,-2.0,-1.0,1.0,1651087145812271.0,0
1272,-1.0,-1.0,-3.0,2.0,0.0,2.0,1.0,-1.0,1651087145833441.0,0
1273,-2.0,1.0,0.0,3.0,6.0,1.0,2.0,0.0,1651087145833441.0,0
1274,-2.0,-5.0,0.0,1.0,2.0,-3.0,-1.0,0.0,1651087145834439.0,0
1275,1.0,0.0,0.0,-2.0,-2.0,-4.0,-1.0,-2.0,1651087145834439.0,0
1276,0.0,0.0,-7.0,-7.0,-1.0,-1.0,-1.0,-1.0,1651087145848399.0,0
1277,1.0,3.0,8.0,2.0,-4.0,-2.0,-2.0,-1.0,1651087145848399.0,0
1278,-1.0,4.0,19.0,0.0,-4.0,-4.0,-1.0,-2.0,1651087145854219.0,0
1279,0.0,-1.0,-21.0,0.0,4.0,7.0,0.0,-2.0,1651087145854219.0,0
1280,2.0,5.0,5.0,6.0,-2.0,-2.0,-1.0,0.0,1651087145871312.0,0
1281,-1.0,0.0,-4.0,-7.0,0.0,-2.0,-2.0,-1.0,1651087145871312.0,0
1282,-2.0,-4.0,2.0,3.0,0.0,0.0,-1.0,-1.0,1651087145872343.0,0
1283,-1.0,-5.0,11.0,2.0,-2.0,-1.0,1.0,-1.0,1651087145872343.0,0
1284,1.0,-4.0,-9.0,-6.0,2.0,1.0,1.0,1.0,1651087145894394.0,0
1285,-1.0,8.0,4.0,5.0,1.0,-1.0,1.0,0.0,1651087145894394.0,0
1286,-1.0,-4.0,2.0,-6.0,-3.0,0.0,0.0,-2.0,1651087145894394.0,0
1287,0.0,0.0,6.0,2.0,-1.0,-2.0,0.0,1.0,1651087145894394.0,0
1288,0.0,0.0,-2.0,-7.0,0.0,2.0,0.0,-3.0,1651087145908562.0,0
1289,1.0,1.0,14.0,16.0,2.0,-2.0,1.0,0.0,1651087145908562.0,0
1290,0.0,-4.0,-7.0,-4.0,-2.0,2.0,-1.0,0.0,1651087145914062.0,0
1291,0.0,10.0,5.0,-3.0,-5.0,-6.0,-3.0,-2.0,1651087145914062.0,0
1292,-2.0,-12.0,-16.0,-7.0,-1.0,0.0,-1.0,0.0,1651087145939032.0,0
1293,-1.0,-3.0,-1.0,0.0,1.0,1.0,0.0,0.0,1651087145939032.0,0
1294,0.0,4.0,2.0,8.0,1.0,2.0,0.0,1.0,1651087145940110.0,0
1295,0.0,0.0,-1.0,6.0,4.0,3.0,-2.0,1.0,1651087145940110.0,0
1296,0.0,3.0,6.0,1.0,0.0,-2.0,-1.0,1.0,1651087145954271.0,0
1297,-1.0,-6.0,-18.0,-11.0,0.0,1.0,-1.0,-1.0,1651087145954271.0,0
1298,0.0,-8.0,-9.0,4.0,-2.0,-4.0,0.0,2.0,1651087145955247.0,0
1299,-3.0,-3.0,7.0,-2.0,-3.0,0.0,-1.0,-2.0,1651087145955247.0,0
1300,-2.0,6.0,1.0,2.0,7.0,4.0,1.0,-2.0,1651087145968180.0,0
1301,0.0,-2.0,0.0,-2.0,-1.0,0.0,0.0,-1.0,1651087145968180.0,0
1302,0.0,-3.0,-2.0,-1.0,-3.0,-4.0,0.0,0.0,1651087145975203.0,0
1303,-1.0,2.0,7.0,-1.0,-4.0,-2.0,-2.0,0.0,1651087145975203.0,0
1304,1.0,-4.0,-17.0,-7.0,0.0,1.0,1.0,1.0,1651087145990994.0,0
1305,-1.0,0.0,0.0,-2.0,-5.0,-3.0,-1.0,1.0,1651087145990994.0,0
1306,-2.0,1.0,9.0,4.0,9.0,4.0,1.0,0.0,1651087145991871.0,0
1307,1.0,2.0,6.0,0.0,-3.0,-3.0,0.0,-1.0,1651087145991871.0,0
1308,0.0,0.0,15.0,7.0,-3.0,-2.0,-1.0,0.0,1651087146013434.0,0
1309,0.0,-2.0,-7.0,-11.0,-3.0,-2.0,1.0,0.0,1651087146013434.0,0
1310,0.0,1.0,-8.0,6.0,2.0,-1.0,0.0,-1.0,1651087146014334.0,0
1311,1.0,-2.0,-4.0,-6.0,2.0,-1.0,0.0,0.0,1651087146014334.0,0
1312,0.0,-2.0,-7.0,-5.0,0.0,1.0,-2.0,-3.0,1651087146028195.0,0
1313,0.0,2.0,5.0,4.0,0.0,-1.0,0.0,0.0,1651087146028195.0,0
1314,-1.0,-4.0,-10.0,-9.0,-3.0,-1.0,0.0,0.0,1651087146035177.0,0
1315,0.0,-2.0,5.0,11.0,6.0,3.0,2.0,0.0,1651087146035177.0,0
1316,0.0,-3.0,-1.0,-2.0,1.0,2.0,0.0,1.0,1651087146051276.0,0
1317,0.0,6.0,4.0,-5.0,-5.0,-4.0,-2.0,0.0,1651087146051276.0,0
1318,-3.0,0.0,-6.0,-1.0,-2.0,-2.0,-1.0,-1.0,1651087146052276.0,0
1319,-2.0,-9.0,-7.0,-4.0,-2.0,1.0,0.0,-1.0,1651087146052276.0,0
1320,-2.0,-3.0,-11.0,0.0,-4.0,-3.0,-1.0,-2.0,1651087146073216.0,0
1321,-1.0,-7.0,-10.0,-6.0,-2.0,-1.0,-1.0,-1.0,1651087146073216.0,0
1322,1.0,-1.0,14.0,2.0,2.0,4.0,1.0,1.0,1651087146075211.0,0
1323,-3.0,18.0,-2.0,-2.0,-3.0,-3.0,-1.0,-3.0,1651087146075211.0,0
1324,-2.0,3.0,-9.0,4.0,1.0,-1.0,0.0,2.0,1651087146088062.0,0
1325,-1.0,-2.0,5.0,5.0,2.0,3.0,0.0,0.0,1651087146088062.0,0
1326,0.0,1.0,-24.0,-10.0,-5.0,-2.0,-4.0,-2.0,1651087146094197.0,0
1327,1.0,-6.0,1.0,0.0,-1.0,0.0,1.0,-2.0,1651087146094197.0,0
1328,0.0,-1.0,8.0,-4.0,-3.0,-2.0,0.0,-2.0,1651087146111377.0,0
1329,0.0,4.0,-2.0,1.0,-1.0,-1.0,-2.0,-2.0,1651087146111377.0,0
1330,-1.0,-6.0,2.0,5.0,6.0,1.0,2.0,1.0,1651087146112230.0,0
1331,0.0,-1.0,2.0,0.0,-2.0,0.0,0.0,0.0,1651087146112230.0,0
1332,-3.0,1.0,-1.0,4.0,2.0,-1.0,0.0,-1.0,1651087146132433.0,0
1333,-3.0,-7.0,-19.0,-12.0,-4.0,-1.0,-2.0,1.0,1651087146132433.0,0
1334,1.0,-1.0,-5.0,-5.0,-5.0,-3.0,-1.0,-1.0,1651087146141458.0,0
1335,-2.0,-6.0,0.0,14.0,13.0,1.0,-2.0,-1.0,1651087146141458.0,0
1336,3.0,-5.0,-4.0,-11.0,-4.0,0.0,-1.0,-1.0,1651087146148064.0,0
1337,-1.0,6.0,21.0,11.0,-1.0,2.0,1.0,-1.0,1651087146148064.0,0
1338,0.0,-4.0,-20.0,-7.0,-12.0,-6.0,-1.0,0.0,1651087146155352.0,0
1339,0.0,3.0,-15.0,-8.0,7.0,4.0,1.0,1.0,1651087146155352.0,0
1340,-2.0,2.0,9.0,7.0,5.0,0.0,1.0,-2.0,1651087146171272.0,0
1341,1.0,-12.0,-1.0,-4.0,-5.0,1.0,-1.0,0.0,1651087146171272.0,0
1342,0.0,7.0,22.0,13.0,-3.0,-4.0,-2.0,0.0,1651087146172215.0,0
1343,-2.0,-9.0,-18.0,-7.0,-5.0,-1.0,-1.0,-2.0,1651087146172215.0,0
1344,0.0,-6.0,12.0,3.0,-1.0,-1.0,0.0,-1.0,1651087146193370.0,0
1345,0.0,18.0,-10.0,-7.0,1.0,-1.0,-1.0,-2.0,1651087146193370.0,0
1346,-3.0,-1.0,13.0,1.0,-1.0,0.0,1.0,-1.0,1651087146195239.0,0
1347,1.0,-1.0,-8.0,-4.0,-6.0,-5.0,0.0,-1.0,1651087146195239.0,0
1348,0.0,4.0,12.0,6.0,5.0,3.0,1.0,0.0,1651087146207344.0,0
1349,0.0,-7.0,8.0,3.0,-2.0,-1.0,-1.0,0.0,1651087146207344.0,0
1350,1.0,-2.0,-3.0,1.0,6.0,3.0,1.0,-1.0,1651087146216181.0,0
1351,0.0,6.0,13.0,2.0,-1.0,-1.0,-2.0,0.0,1651087146216181.0,0
1352,-1.0,0.0,-8.0,-6.0,-9.0,-4.0,-1.0,-1.0,1651087146231277.0,0
1353,0.0,-3.0,-4.0,7.0,-1.0,1.0,-1.0,-1.0,1651087146231277.0,0
1354,0.0,3.0,-9.0,-6.0,10.0,2.0,1.0,0.0,1651087146232278.0,0
1355,1.0,-6.0,21.0,7.0,3.0,2.0,0.0,0.0,1651087146232278.0,0
1356,0.0,13.0,15.0,2.0,-4.0,-3.0,-1.0,1.0,1651087146254322.0,0
1357,0.0,-15.0,-29.0,-13.0,-10.0,-7.0,-1.0,0.0,1651087146254322.0,0
1358,-2.0,2.0,10.0,1.0,2.0,6.0,-2.0,-1.0,1651087146254322.0,0
1359,-1.0,10.0,5.0,-1.0,1.0,1.0,-1.0,-1.0,1651087146254322.0,0
1360,-1.0,-4.0,-2.0,5.0,2.0,-3.0,-1.0,-1.0,1651087146267520.0,0
1361,2.0,10.0,14.0,6.0,10.0,9.0,4.0,2.0,1651087146267520.0,0
1362,-2.0,-16.0,-1.0,-6.0,-16.0,-9.0,-2.0,-1.0,1651087146276498.0,0
1363,0.0,-7.0,-31.0,-6.0,-12.0,-4.0,-1.0,-1.0,1651087146276498.0,0
1364,-2.0,-2.0,3.0,-20.0,-16.0,-2.0,-2.0,-2.0,1651087146290364.0,0
1365,1.0,-3.0,4.0,6.0,10.0,3.0,-1.0,0.0,1651087146290364.0,0
1366,0.0,-4.0,9.0,12.0,8.0,3.0,-1.0,1.0,1651087146292231.0,0
1367,-1.0,2.0,-12.0,-11.0,-6.0,-2.0,-1.0,-1.0,1651087146292231.0,0
1368,-1.0,-11.0,-10.0,-4.0,-14.0,-7.0,-1.0,-2.0,1651087146313234.0,0
1369,-1.0,-1.0,-6.0,-1.0,8.0,3.0,1.0,1.0,1651087146313234.0,0
1370,-1.0,7.0,5.0,-2.0,-6.0,-2.0,-2.0,-1.0,1651087146315230.0,0
1371,-2.0,-2.0,9.0,-2.0,-4.0,-3.0,-1.0,-1.0,1651087146315230.0,0
1372,0.0,2.0,-17.0,-5.0,3.0,0.0,-1.0,0.0,1651087146327519.0,0
1373,-1.0,-2.0,12.0,9.0,11.0,1.0,0.0,0.0,1651087146327519.0,0
1374,-2.0,6.0,-5.0,8.0,6.0,3.0,1.0,-1.0,1651087146336394.0,0
1375,0.0,0.0,0.0,-10.0,-6.0,-2.0,1.0,1.0,1651087146336394.0,0
1376,1.0,1.0,-7.0,5.0,3.0,-3.0,-2.0,-1.0,1651087146351378.0,0
1377,-4.0,-2.0,6.0,-4.0,-8.0,-1.0,0.0,-1.0,1651087146351378.0,0
1378,0.0,-11.0,-16.0,-4.0,0.0,2.0,-3.0,-3.0,1651087146352218.0,0
1379,-2.0,2.0,2.0,-1.0,3.0,3.0,2.0,1.0,1651087146352218.0,0
1380,0.0,0.0,11.0,2.0,3.0,3.0,0.0,1.0,1651087146373393.0,0
1381,-1.0,-1.0,-3.0,-8.0,-19.0,-12.0,-2.0,-3.0,1651087146373393.0,0
1382,6.0,1.0,-3.0,6.0,19.0,6.0,3.0,2.0,1651087146374426.0,0
1383,-3.0,-6.0,-8.0,1.0,-10.0,-7.0,-4.0,-3.0,1651087146374426.0,0
1384,-2.0,-6.0,-12.0,-10.0,-12.0,-6.0,-4.0,-3.0,1651087146387371.0,0
1385,0.0,0.0,14.0,20.0,31.0,14.0,3.0,2.0,1651087146387371.0,0
1386,-2.0,5.0,5.0,3.0,-5.0,-1.0,2.0,1.0,1651087146396221.0,0
1387,3.0,0.0,2.0,1.0,3.0,-2.0,-4.0,-1.0,1651087146396221.0,0
1388,-5.0,-6.0,-1.0,15.0,22.0,8.0,5.0,0.0,1651087146410930.0,0
1389,2.0,4.0,-6.0,-10.0,-18.0,-2.0,0.0,-1.0,1651087146410930.0,0
1390,-3.0,-6.0,-2.0,4.0,-2.0,-2.0,-2.0,-1.0,1651087146411967.0,0
1391,1.0,0.0,-2.0,5.0,3.0,-1.0,2.0,2.0,1651087146411967.0,0
1392,-4.0,2.0,-1.0,-22.0,-16.0,-3.0,-3.0,-3.0,1651087146434312.0,0
1393,0.0,1.0,-8.0,2.0,5.0,-2.0,-1.0,1.0,1651087146434312.0,0
1394,2.0,5.0,5.0,-3.0,-3.0,-1.0,0.0,-2.0,1651087146434312.0,0
1395,0.0,-2.0,-4.0,7.0,1.0,2.0,0.0,-1.0,1651087146434312.0,0
1396,-1.0,7.0,3.0,2.0,0.0,0.0,1.0,0.0,1651087146447567.0,0
1397,-4.0,-2.0,0.0,-3.0,-6.0,-3.0,-2.0,-2.0,1651087146447567.0,0
1398,-2.0,2.0,7.0,-5.0,-5.0,-6.0,-2.0,-1.0,1651087146456218.0,0
1399,-4.0,-16.0,0.0,-1.0,3.0,0.0,0.0,1.0,1651087146456218.0,0
1400,6.0,-1.0,-3.0,-5.0,-2.0,-1.0,1.0,2.0,1651087146470477.0,0
1401,-2.0,-1.0,-3.0,-4.0,-1.0,-2.0,0.0,-3.0,1651087146470477.0,0
1402,-6.0,-8.0,-18.0,-7.0,-9.0,-5.0,-3.0,-1.0,1651087146472524.0,0
1403,-2.0,5.0,16.0,4.0,4.0,4.0,0.0,-1.0,1651087146472524.0,0
1404,1.0,2.0,3.0,15.0,17.0,9.0,2.0,2.0,1651087146493236.0,0
1405,8.0,3.0,-2.0,-6.0,-2.0,-2.0,0.0,-2.0,1651087146493236.0,0
1406,-11.0,12.0,-8.0,-25.0,-18.0,-9.0,-4.0,-6.0,1651087146494236.0,0
1407,-6.0,-15.0,3.0,21.0,6.0,3.0,3.0,2.0,1651087146494236.0,0
1408,-1.0,-5.0,0.0,-14.0,1.0,0.0,1.0,3.0,1651087146507350.0,0
1409,-1.0,7.0,5.0,13.0,-8.0,-5.0,-3.0,0.0,1651087146507350.0,0
1410,7.0,-9.0,-8.0,-19.0,8.0,3.0,0.0,-2.0,1651087146515543.0,0
1411,8.0,18.0,22.0,7.0,9.0,7.0,1.0,3.0,1651087146515543.0,0
1412,-8.0,-13.0,-22.0,-1.0,-5.0,-6.0,-4.0,-4.0,1651087146538213.0,0
1413,1.0,-15.0,3.0,4.0,9.0,8.0,5.0,4.0,1651087146538213.0,0
1414,0.0,16.0,5.0,7.0,-3.0,-4.0,-2.0,-3.0,1651087146540184.0,0
1415,-1.0,-24.0,-24.0,-14.0,1.0,-6.0,-3.0,-3.0,1651087146540184.0,0
1416,11.0,15.0,15.0,2.0,0.0,0.0,2.0,4.0,1651087146560366.0,0
1417,-2.0,25.0,-17.0,-8.0,-6.0,0.0,-5.0,-5.0,1651087146560366.0,0
1418,-4.0,-18.0,15.0,10.0,0.0,0.0,-1.0,-2.0,1651087146562217.0,0
1419,-22.0,6.0,-17.0,-7.0,3.0,0.0,1.0,-1.0,1651087146562217.0,0
1420,0.0,9.0,0.0,-6.0,-11.0,-3.0,-1.0,0.0,1651087146567203.0,0
1421,9.0,-4.0,-1.0,-5.0,8.0,-1.0,-1.0,-3.0,1651087146567203.0,0
1422,1.0,9.0,8.0,-7.0,-4.0,1.0,5.0,7.0,1651087146575611.0,0
1423,3.0,6.0,5.0,-2.0,-2.0,1.0,-1.0,0.0,1651087146575611.0,0
1424,-1.0,1.0,-1.0,3.0,5.0,1.0,0.0,-2.0,1651087146591173.0,0
1425,-3.0,9.0,8.0,-19.0,-19.0,-5.0,2.0,7.0,1651087146591173.0,0
1426,5.0,-7.0,-14.0,25.0,17.0,6.0,2.0,1.0,1651087146592067.0,0
1427,1.0,-7.0,11.0,-1.0,-8.0,-4.0,0.0,-2.0,1651087146592067.0,0
1428,-9.0,1.0,-3.0,-4.0,-7.0,-4.0,-5.0,-9.0,1651087146613096.0,0
1429,12.0,-7.0,3.0,7.0,0.0,0.0,-5.0,-5.0,1651087146613096.0,0
1430,6.0,13.0,-3.0,-11.0,-1.0,-2.0,3.0,-2.0,1651087146615122.0,0
1431,-6.0,-6.0,3.0,-8.0,0.0,-2.0,-4.0,4.0,1651087146615122.0,0
1432,15.0,0.0,-2.0,-1.0,-4.0,-3.0,-1.0,-4.0,1651087146635920.0,0
1433,-5.0,17.0,6.0,9.0,1.0,3.0,8.0,13.0,1651087146635920.0,0
1434,9.0,-15.0,-12.0,-11.0,-9.0,-3.0,-1.0,1.0,1651087146638016.0,0
1435,-15.0,-20.0,-10.0,2.0,-15.0,-9.0,0.0,-6.0,1651087146638016.0,0
1436,33.0,-3.0,16.0,10.0,23.0,11.0,-4.0,-7.0,1651087146651163.0,0
1437,-53.0,-12.0,-7.0,-5.0,-9.0,-3.0,-1.0,2.0,1651087146651163.0,0
1438,-2.0,-6.0,-7.0,-3.0,-10.0,-7.0,-4.0,-3.0,1651087146652163.0,3
1439,1.0,8.0,-16.0,0.0,2.0,1.0,0.0,11.0,1651087146652163.0,3
1440,-15.0,-1.0,1.0,5.0,2.0,5.0,-1.0,-7.0,1651087146673257.0,3
1441,8.0,14.0,12.0,7.0,-1.0,0.0,4.0,-9.0,1651087146673257.0,3
1442,5.0,-8.0,1.0,-1.0,8.0,4.0,5.0,20.0,1651087146675241.0,3
1443,-8.0,26.0,6.0,-16.0,-16.0,-9.0,-16.0,-16.0,1651087146675241.0,3
1444,4.0,1.0,-9.0,2.0,-2.0,-2.0,9.0,10.0,1651087146695359.0,3
1445,8.0,-37.0,-8.0,1.0,9.0,0.0,-14.0,-24.0,1651087146695359.0,3
1446,-23.0,-25.0,-2.0,2.0,-18.0,-6.0,7.0,10.0,1651087146697209.0,3
1447,20.0,21.0,5.0,-4.0,7.0,1.0,-4.0,13.0,1651087146697209.0,3
1448,-14.0,-22.0,-1.0,-4.0,-2.0,-4.0,-13.0,-23.0,1651087146711464.0,3
1449,6.0,56.0,4.0,-15.0,-30.0,-16.0,11.0,13.0,1651087146711464.0,3
1450,6.0,-25.0,4.0,15.0,17.0,14.0,3.0,2.0,1651087146712465.0,3
1451,41.0,27.0,-15.0,10.0,14.0,12.0,9.0,9.0,1651087146712465.0,3
1452,-40.0,-45.0,12.0,2.0,-19.0,-15.0,-3.0,4.0,1651087146733471.0,3
1453,14.0,-8.0,-36.0,-2.0,36.0,18.0,1.0,26.0,1651087146733471.0,3
1454,-10.0,-22.0,9.0,-1.0,-23.0,-11.0,-16.0,-37.0,1651087146734348.0,3
1455,-30.0,2.0,-5.0,1.0,33.0,12.0,23.0,17.0,1651087146734348.0,3
1456,4.0,5.0,5.0,-4.0,-3.0,2.0,-3.0,4.0,1651087146757226.0,3
1457,35.0,-18.0,-5.0,-2.0,-20.0,-18.0,-4.0,3.0,1651087146757226.0,3
1458,-34.0,25.0,21.0,-20.0,-5.0,-2.0,-14.0,-25.0,1651087146758223.0,3
1459,11.0,-17.0,-5.0,9.0,2.0,1.0,-10.0,-13.0,1651087146758223.0,3
1460,25.0,26.0,1.0,10.0,0.0,2.0,19.0,19.0,1651087146770414.0,3
1461,-10.0,-35.0,6.0,-2.0,-1.0,5.0,0.0,0.0,1651087146770414.0,3
1462,18.0,53.0,3.0,6.0,-1.0,-6.0,-12.0,-7.0,1651087146777386.0,3
1463,-4.0,0.0,19.0,-9.0,-13.0,-11.0,-14.0,-4.0,1651087146777386.0,3
1464,-11.0,-3.0,0.0,3.0,12.0,4.0,-4.0,-11.0,1651087146793233.0,3
1465,28.0,23.0,-17.0,-12.0,-17.0,-8.0,-2.0,7.0,1651087146793233.0,3
1466,10.0,31.0,16.0,15.0,22.0,6.0,-1.0,-45.0,1651087146794266.0,3
1467,-38.0,-80.0,-18.0,-27.0,-32.0,-11.0,12.0,47.0,1651087146794266.0,3
1468,-24.0,40.0,3.0,13.0,-2.0,-4.0,-14.0,-9.0,1651087146816595.0,3
1469,28.0,60.0,-2.0,10.0,21.0,7.0,10.0,2.0,1651087146816595.0,3
1470,-25.0,-116.0,-21.0,1.0,3.0,2.0,1.0,22.0,1651087146817461.0,3
1471,31.0,93.0,14.0,-1.0,-8.0,2.0,3.0,-31.0,1651087146817461.0,3
1472,58.0,27.0,-12.0,-27.0,-21.0,-5.0,0.0,-2.0,1651087146829403.0,3
1473,-59.0,-39.0,11.0,5.0,4.0,-2.0,-7.0,-5.0,1651087146829403.0,3
1474,92.0,105.0,7.0,15.0,16.0,7.0,-1.0,-6.0,1651087146838748.0,3
1475,-24.0,18.0,30.0,38.0,45.0,18.0,7.0,20.0,1651087146838748.0,3
1476,19.0,33.0,-6.0,-8.0,-5.0,1.0,5.0,-4.0,1651087146854279.0,3
1477,10.0,9.0,8.0,-5.0,-16.0,-4.0,16.0,9.0,1651087146854279.0,3
1478,-87.0,19.0,14.0,-4.0,19.0,8.0,-3.0,7.0,1651087146854279.0,3
1479,89.0,47.0,-11.0,-16.0,-14.0,-6.0,-12.0,-38.0,1651087146854279.0,3
1480,-67.0,-79.0,-15.0,-8.0,-26.0,-15.0,5.0,9.0,1651087146876380.0,3
1481,17.0,8.0,0.0,13.0,20.0,15.0,8.0,2.0,1651087146876380.0,3
1482,-18.0,53.0,1.0,-2.0,0.0,3.0,-5.0,0.0,1651087146877219.0,3
1483,-77.0,-38.0,18.0,19.0,-6.0,-4.0,1.0,-9.0,1651087146877219.0,3
1484,-21.0,-34.0,-38.0,-28.0,8.0,1.0,-8.0,1.0,1651087146890218.0,3
1485,41.0,28.0,5.0,19.0,10.0,3.0,9.0,13.0,1651087146890218.0,3
1486,1.0,-99.0,-8.0,7.0,-18.0,-10.0,-10.0,-2.0,1651087146897366.0,3
1487,4.0,-46.0,-16.0,-28.0,-11.0,2.0,9.0,22.0,1651087146897366.0,3
1488,63.0,74.0,34.0,42.0,26.0,12.0,4.0,-39.0,1651087146921253.0,3
1489,24.0,-25.0,-40.0,-38.0,-38.0,-19.0,-12.0,42.0,1651087146921253.0,3
1490,37.0,127.0,18.0,-2.0,12.0,7.0,25.0,10.0,1651087146922219.0,3
1491,25.0,-76.0,-11.0,1.0,8.0,1.0,-16.0,-10.0,1651087146922219.0,3
1492,-9.0,28.0,6.0,8.0,-8.0,0.0,5.0,-11.0,1651087146936322.0,3
1493,69.0,120.0,26.0,9.0,16.0,7.0,-3.0,-7.0,1651087146936322.0,3
1494,-51.0,-111.0,-18.0,-12.0,-1.0,-2.0,0.0,-7.0,1651087146937179.0,3
1495,56.0,15.0,-1.0,-11.0,-36.0,-10.0,11.0,11.0,1651087146937179.0,3
1496,-34.0,-10.0,-10.0,-4.0,21.0,9.0,0.0,25.0,1651087146951091.0,3
1497,32.0,3.0,6.0,12.0,15.0,2.0,-22.0,-39.0,1651087146951091.0,3
1498,27.0,92.0,2.0,4.0,-7.0,5.0,19.0,14.0,1651087146957221.0,3
1499,-36.0,-78.0,-24.0,-34.0,-11.0,-11.0,-15.0,-12.0,1651087146957221.0,3
1500,-12.0,-20.0,15.0,17.0,17.0,8.0,-10.0,-2.0,1651087146973218.0,3
1501,-71.0,-115.0,11.0,-16.0,-2.0,5.0,9.0,-26.0,1651087146973218.0,3
1502,38.0,-3.0,-41.0,4.0,17.0,-2.0,9.0,52.0,1651087146974215.0,3
1503,6.0,54.0,-3.0,-19.0,-29.0,-15.0,-10.0,2.0,1651087146974215.0,3
1504,5.0,47.0,16.0,20.0,9.0,6.0,7.0,12.0,1651087146995216.0,3
1505,-54.0,5.0,-1.0,-1.0,6.0,-3.0,-14.0,-37.0,1651087146995216.0,3
1506,1.0,53.0,18.0,1.0,-11.0,1.0,23.0,18.0,1651087146997211.0,3
1507,-53.0,-9.0,-20.0,-10.0,-1.0,6.0,10.0,-5.0,1651087146997211.0,3
1508,9.0,-83.0,-11.0,-2.0,0.0,-7.0,-6.0,9.0,1651087147010378.0,3
1509,50.0,55.0,15.0,-4.0,-9.0,-2.0,2.0,7.0,1651087147010378.0,3
1510,-77.0,-95.0,-16.0,-5.0,-14.0,-8.0,-9.0,-17.0,1651087147017354.0,3
1511,29.0,127.0,17.0,27.0,32.0,5.0,-10.0,11.0,1651087147017354.0,3
1512,2.0,48.0,-2.0,-6.0,-19.0,-1.0,-1.0,-24.0,1651087147033252.0,3
1513,40.0,-34.0,-43.0,-16.0,9.0,-1.0,-2.0,11.0,1651087147033252.0,3
1514,-45.0,12.0,1.0,-4.0,-9.0,-4.0,-9.0,0.0,1651087147041101.0,3
1515,-8.0,40.0,11.0,9.0,-2.0,10.0,18.0,6.0,1651087147041101.0,3
1516,-2.0,37.0,28.0,8.0,-2.0,-6.0,-20.0,-25.0,1651087147063210.0,3
1517,-24.0,-30.0,6.0,6.0,-23.0,-7.0,3.0,3.0,1651087147063210.0,3
1518,46.0,5.0,-13.0,5.0,8.0,0.0,-22.0,19.0,1651087147071926.0,3
1519,-18.0,-20.0,-2.0,-7.0,-11.0,-7.0,-17.0,-45.0,1651087147071926.0,3
1520,18.0,-26.0,-1.0,-33.0,-16.0,1.0,33.0,54.0,1651087147072927.0,3
1521,-62.0,-37.0,-1.0,6.0,-16.0,-9.0,-35.0,-56.0,1651087147072927.0,3
1522,41.0,38.0,10.0,-8.0,-8.0,0.0,15.0,35.0,1651087147076957.0,3
1523,16.0,30.0,1.0,24.0,41.0,12.0,-3.0,-4.0,1651087147076957.0,3
1524,-18.0,-4.0,-6.0,2.0,-7.0,-5.0,-3.0,-7.0,1651087147094258.0,3
1525,-30.0,-14.0,-5.0,-9.0,-5.0,-8.0,-25.0,7.0,1651087147094258.0,3
1526,12.0,57.0,27.0,9.0,-7.0,-3.0,18.0,-44.0,1651087147095119.0,3
1527,-25.0,17.0,-15.0,-17.0,-23.0,-6.0,-8.0,6.0,1651087147095119.0,3
1528,103.0,15.0,1.0,22.0,25.0,4.0,14.0,60.0,1651087147116552.0,3
1529,-12.0,19.0,-7.0,-22.0,2.0,4.0,0.0,-24.0,1651087147116552.0,3
1530,-37.0,-22.0,0.0,28.0,-6.0,-5.0,-10.0,-3.0,1651087147117420.0,3
1531,-31.0,-44.0,11.0,-10.0,-11.0,4.0,35.0,-3.0,1651087147117420.0,3
1532,49.0,80.0,22.0,25.0,48.0,19.0,4.0,15.0,1651087147130476.0,3
1533,-41.0,-45.0,-14.0,-5.0,-11.0,-5.0,-8.0,-44.0,1651087147130476.0,3
1534,29.0,-18.0,0.0,-17.0,10.0,0.0,-3.0,35.0,1651087147144398.0,3
1535,51.0,-22.0,-15.0,-23.0,-22.0,-15.0,1.0,0.0,1651087147144398.0,3
1536,-39.0,-20.0,-10.0,13.0,-17.0,-4.0,3.0,0.0,1651087147154305.0,3
1537,10.0,-25.0,24.0,29.0,21.0,12.0,18.0,4.0,1651087147154305.0,3
1538,-14.0,-45.0,-11.0,-8.0,7.0,5.0,-9.0,-28.0,1651087147154305.0,3
1539,-36.0,-21.0,-11.0,2.0,0.0,-5.0,-17.0,-26.0,1651087147154305.0,3
1540,-34.0,-16.0,-11.0,-22.0,-40.0,-19.0,-5.0,23.0,1651087147176354.0,3
1541,44.0,67.0,13.0,-8.0,9.0,6.0,15.0,37.0,1651087147176354.0,3
1542,-26.0,-91.0,-9.0,8.0,15.0,-2.0,-11.0,-26.0,1651087147177208.0,3
1543,-2.0,28.0,-2.0,28.0,9.0,4.0,-6.0,-25.0,1651087147177208.0,3
1544,1.0,-58.0,-16.0,-11.0,5.0,-4.0,-2.0,-3.0,1651087147189230.0,3
1545,-36.0,4.0,6.0,-16.0,-22.0,-8.0,0.0,24.0,1651087147189230.0,3
1546,9.0,-20.0,10.0,-1.0,7.0,11.0,17.0,-25.0,1651087147198333.0,3
1547,3.0,8.0,-12.0,-7.0,-1.0,-3.0,-6.0,37.0,1651087147198333.0,3
1548,-38.0,-40.0,0.0,-4.0,-9.0,2.0,-1.0,-20.0,1651087147214287.0,3
1549,12.0,85.0,28.0,6.0,7.0,5.0,5.0,4.0,1651087147214287.0,3
1550,3.0,-66.0,-22.0,-3.0,-21.0,-11.0,-13.0,-18.0,1651087147215208.0,3
1551,52.0,53.0,2.0,16.0,14.0,0.0,9.0,11.0,1651087147215208.0,3
1552,-88.0,41.0,-4.0,-14.0,-1.0,-2.0,-7.0,-16.0,1651087147236394.0,3
1553,-27.0,-29.0,7.0,4.0,-3.0,5.0,14.0,17.0,1651087147236394.0,3
1554,107.0,118.0,2.0,-9.0,3.0,4.0,3.0,-11.0,1651087147237227.0,3
1555,-29.0,-55.0,17.0,9.0,-4.0,8.0,0.0,10.0,1651087147237227.0,3
1556,22.0,8.0,-3.0,0.0,-2.0,-11.0,1.0,12.0,1651087147259192.0,3
1557,28.0,-25.0,-12.0,-10.0,1.0,4.0,-6.0,-19.0,1651087147259192.0,3
1558,-61.0,30.0,13.0,7.0,1.0,-11.0,2.0,20.0,1651087147260192.0,3
1559,40.0,-97.0,-20.0,-5.0,-3.0,-1.0,13.0,37.0,1651087147260192.0,3
1560,-40.0,-7.0,8.0,-3.0,-11.0,1.0,-14.0,-51.0,1651087147273280.0,3
1561,10.0,21.0,3.0,2.0,2.0,-3.0,-13.0,-8.0,1651087147273280.0,3
1562,-39.0,-6.0,0.0,2.0,-2.0,4.0,20.0,40.0,1651087147274245.0,3
1563,-36.0,25.0,7.0,-6.0,-19.0,-1.0,-17.0,-18.0,1651087147274245.0,3
1564,27.0,2.0,9.0,-12.0,0.0,-4.0,-12.0,-30.0,1651087147295949.0,3
1565,-9.0,-2.0,4.0,31.0,40.0,16.0,15.0,25.0,1651087147295949.0,3
1566,19.0,2.0,-1.0,12.0,13.0,2.0,-14.0,-1.0,1651087147296971.0,3
1567,-40.0,-18.0,14.0,-4.0,-10.0,-8.0,-11.0,-35.0,1651087147296971.0,3
1568,19.0,-34.0,-2.0,6.0,16.0,14.0,14.0,-17.0,1651087147309687.0,3
1569,-21.0,41.0,1.0,-3.0,-13.0,-1.0,11.0,58.0,1651087147309687.0,3
1570,-32.0,-87.0,-44.0,-32.0,-25.0,-12.0,-9.0,-9.0,1651087147318114.0,3
1571,-15.0,24.0,13.0,20.0,22.0,8.0,-7.0,-9.0,1651087147318114.0,3
1572,60.0,48.0,7.0,-13.0,-16.0,-8.0,-5.0,-13.0,1651087147333429.0,3
1573,-78.0,-39.0,10.0,-8.0,-12.0,-10.0,-16.0,-16.0,1651087147333429.0,3
1574,2.0,-5.0,-1.0,31.0,23.0,19.0,12.0,22.0,1651087147334294.0,3
1575,7.0,24.0,4.0,-5.0,5.0,-2.0,-4.0,-10.0,1651087147334294.0,3
1576,43.0,-16.0,-6.0,-19.0,-23.0,-12.0,-27.0,-7.0,1651087147355386.0,3
1577,8.0,-15.0,-36.0,-9.0,-1.0,-1.0,-2.0,-29.0,1651087147355386.0,3
1578,19.0,31.0,18.0,0.0,-13.0,-9.0,-8.0,9.0,1651087147357215.0,3
1579,30.0,13.0,-12.0,2.0,12.0,3.0,21.0,1.0,1651087147357215.0,3
1580,-73.0,30.0,11.0,2.0,0.0,-1.0,-7.0,14.0,1651087147370420.0,3
1581,60.0,-60.0,-12.0,-3.0,27.0,12.0,13.0,16.0,1651087147370420.0,3
1582,0.0,13.0,17.0,-12.0,-25.0,-12.0,-19.0,-31.0,1651087147378259.0,3
1583,1.0,-14.0,-16.0,11.0,23.0,-3.0,-12.0,28.0,1651087147378259.0,3
1584,-3.0,-47.0,-20.0,1.0,2.0,7.0,27.0,29.0,1651087147393227.0,3
1585,20.0,30.0,10.0,-5.0,-15.0,-5.0,-11.0,-17.0,1651087147393227.0,3
1586,-41.0,-38.0,-6.0,-13.0,1.0,-2.0,-5.0,-29.0,1651087147395256.0,3
1587,56.0,72.0,20.0,-11.0,-11.0,1.0,-11.0,-7.0,1651087147395256.0,3
1588,-3.0,-6.0,-5.0,17.0,16.0,8.0,13.0,24.0,1651087147416386.0,3
1589,3.0,-27.0,-3.0,-12.0,-17.0,-11.0,-3.0,2.0,1651087147416386.0,3
1590,1.0,48.0,-4.0,8.0,4.0,0.0,3.0,-6.0,1651087147417221.0,3
1591,-47.0,-42.0,3.0,-24.0,-38.0,-11.0,-2.0,-27.0,1651087147417221.0,3
1592,-11.0,-30.0,-12.0,30.0,49.0,15.0,0.0,16.0,1651087147430413.0,3
1593,-19.0,-15.0,-12.0,19.0,7.0,-1.0,21.0,9.0,1651087147430413.0,3
1594,-23.0,1.0,-21.0,-20.0,-17.0,-9.0,-7.0,-5.0,1651087147438216.0,3
1595,61.0,105.0,21.0,-18.0,-20.0,-6.0,11.0,-40.0,1651087147438216.0,3
1596,-18.0,18.0,-2.0,13.0,-5.0,-6.0,24.0,89.0,1651087147453204.0,3
1597,-33.0,26.0,15.0,17.0,13.0,11.0,-4.0,-15.0,1651087147453204.0,3
1598,58.0,44.0,25.0,-28.0,-20.0,-4.0,5.0,-1.0,1651087147455233.0,3
1599,19.0,-17.0,-36.0,41.0,20.0,1.0,-4.0,12.0,1651087147455233.0,3
1600,-11.0,-8.0,-19.0,-31.0,-22.0,-13.0,-20.0,-51.0,1651087147475347.0,3
1601,20.0,40.0,21.0,10.0,-8.0,-2.0,11.0,2.0,1651087147475347.0,3
1602,-42.0,2.0,-2.0,-7.0,11.0,5.0,7.0,21.0,1651087147477198.0,3
1603,-13.0,-66.0,-21.0,-16.0,-22.0,-5.0,-21.0,-35.0,1651087147477198.0,3
1604,44.0,39.0,34.0,22.0,34.0,14.0,25.0,44.0,1651087147489210.0,3
1605,27.0,0.0,-1.0,-2.0,1.0,-5.0,-13.0,-3.0,1651087147489210.0,3
1606,-8.0,26.0,-2.0,8.0,18.0,11.0,-13.0,-31.0,1651087147498369.0,3
1607,-27.0,-25.0,6.0,2.0,-6.0,1.0,35.0,59.0,1651087147498369.0,3
1608,-20.0,-49.0,-17.0,-2.0,0.0,-5.0,-34.0,-44.0,1651087147513354.0,3
1609,17.0,5.0,-1.0,-5.0,-12.0,-5.0,6.0,-18.0,1651087147513354.0,3
1610,30.0,-34.0,-4.0,-15.0,-23.0,-8.0,-6.0,36.0,1651087147514205.0,3
1611,-39.0,-5.0,17.0,19.0,32.0,12.0,9.0,7.0,1651087147514205.0,3
1612,-5.0,32.0,-22.0,-16.0,-15.0,-5.0,12.0,-11.0,1651087147536232.0,3
1613,0.0,-30.0,-3.0,-5.0,12.0,-1.0,-14.0,-2.0,1651087147536232.0,3
1614,0.0,46.0,-5.0,-4.0,-5.0,1.0,-8.0,-20.0,1651087147537195.0,3
1615,29.0,44.0,22.0,6.0,-17.0,-3.0,-17.0,6.0,1651087147537195.0,3
1616,-63.0,-27.0,3.0,-41.0,-14.0,-15.0,-2.0,-17.0,1651087147549221.0,3
1617,-63.0,-18.0,-24.0,32.0,18.0,1.0,-29.0,-17.0,1651087147549221.0,3
1618,71.0,14.0,-3.0,13.0,13.0,7.0,46.0,33.0,1651087147558035.0,3
1619,-11.0,16.0,-18.0,-24.0,-11.0,-2.0,-4.0,12.0,1651087147558035.0,3
1620,28.0,30.0,23.0,5.0,-29.0,-2.0,-16.0,-31.0,1651087147573493.0,3
1621,-25.0,29.0,1.0,2.0,17.0,-1.0,1.0,28.0,1651087147573493.0,3
1622,30.0,-50.0,4.0,5.0,1.0,-2.0,-16.0,-13.0,1651087147574494.0,3
1623,-31.0,-34.0,8.0,0.0,0.0,-6.0,-4.0,-1.0,1651087147574494.0,3
1624,42.0,-14.0,-11.0,2.0,-19.0,0.0,4.0,-7.0,1651087147595982.0,3
1625,-18.0,16.0,-7.0,-4.0,7.0,4.0,23.0,29.0,1651087147595982.0,3
1626,-1.0,-13.0,10.0,12.0,10.0,2.0,-2.0,-6.0,1651087147596982.0,3
1627,26.0,8.0,-12.0,4.0,15.0,4.0,-8.0,-36.0,1651087147596982.0,3
1628,27.0,58.0,1.0,-12.0,-24.0,-2.0,1.0,5.0,1651087147618659.0,3
1629,6.0,-29.0,-6.0,8.0,-16.0,-10.0,1.0,13.0,1651087147618659.0,3
1630,-12.0,5.0,-5.0,-9.0,9.0,9.0,-5.0,-14.0,1651087147620102.0,3
1631,-33.0,-44.0,4.0,-4.0,-5.0,-4.0,2.0,4.0,1651087147620102.0,3
1632,17.0,87.0,21.0,18.0,20.0,5.0,5.0,-11.0,1651087147633179.0,3
1633,29.0,-4.0,26.0,4.0,-10.0,4.0,3.0,-9.0,1651087147633179.0,3
1634,-2.0,-32.0,-2.0,-1.0,-5.0,-2.0,13.0,20.0,1651087147635061.0,3
1635,53.0,79.0,18.0,14.0,24.0,6.0,-2.0,6.0,1651087147635061.0,3
1636,-69.0,-109.0,-18.0,-19.0,-15.0,-11.0,-15.0,-18.0,1651087147655395.0,3
1637,-12.0,22.0,5.0,6.0,-14.0,0.0,-4.0,-5.0,1651087147655395.0,3
1638,-34.0,25.0,-9.0,17.0,13.0,-2.0,-3.0,9.0,1651087147657229.0,3
1639,22.0,-15.0,25.0,-9.0,-6.0,5.0,13.0,4.0,1651087147657229.0,3
1640,27.0,4.0,-42.0,0.0,16.0,7.0,14.0,27.0,1651087147678417.0,3
1641,-42.0,-26.0,-28.0,-29.0,-20.0,-9.0,-8.0,-28.0,1651087147678417.0,3
1642,3.0,1.0,12.0,2.0,-7.0,-4.0,-7.0,14.0,1651087147679467.0,3
1643,-1.0,7.0,-2.0,-1.0,6.0,5.0,4.0,0.0,1651087147679467.0,3
1644,-16.0,-41.0,17.0,15.0,2.0,3.0,8.0,2.0,1651087147693224.0,3
1645,11.0,-18.0,-17.0,-6.0,8.0,4.0,-13.0,-17.0,1651087147693224.0,3
1646,-13.0,64.0,-3.0,-3.0,-1.0,5.0,6.0,7.0,1651087147694254.0,3
1647,-28.0,-11.0,-4.0,-28.0,-30.0,-15.0,-23.0,-28.0,1651087147694254.0,3
1648,52.0,18.0,1.0,49.0,50.0,17.0,10.0,14.0,1651087147716595.0,3
1649,-6.0,-91.0,-16.0,-10.0,1.0,3.0,15.0,18.0,1651087147716595.0,3
1650,-2.0,30.0,7.0,-5.0,-24.0,-8.0,-1.0,-5.0,1651087147717461.0,3
1651,25.0,40.0,12.0,19.0,35.0,18.0,12.0,-2.0,1651087147717461.0,3
1652,-25.0,-86.0,-8.0,-28.0,-20.0,-13.0,-28.0,-15.0,1651087147738895.0,3
1653,-1.0,19.0,0.0,18.0,-10.0,-7.0,12.0,11.0,1651087147738895.0,3
1654,37.0,7.0,-2.0,-13.0,6.0,4.0,-11.0,-20.0,1651087147739896.0,3
1655,-12.0,-73.0,-12.0,6.0,-5.0,-1.0,17.0,33.0,1651087147739896.0,3
1656,-1.0,40.0,4.0,-15.0,-5.0,-4.0,-3.0,-1.0,1651087147753238.0,3
1657,21.0,21.0,19.0,-12.0,-16.0,-1.0,10.0,-5.0,1651087147753238.0,3
1658,-40.0,-48.0,-19.0,-16.0,-10.0,-10.0,-26.0,11.0,1651087147760387.0,3
1659,-10.0,6.0,-2.0,24.0,22.0,9.0,14.0,16.0,1651087147760387.0,3
1660,33.0,19.0,4.0,-10.0,-14.0,-10.0,-3.0,6.0,1651087147776572.0,3
1661,35.0,-15.0,22.0,2.0,-5.0,4.0,-2.0,-12.0,1651087147776572.0,3
1662,-47.0,5.0,-15.0,-5.0,13.0,3.0,11.0,-21.0,1651087147777403.0,3
1663,11.0,20.0,3.0,5.0,8.0,1.0,-14.0,3.0,1651087147777403.0,3
1664,-35.0,-56.0,-19.0,-5.0,-9.0,-6.0,-6.0,-12.0,1651087147799226.0,3
1665,33.0,31.0,15.0,2.0,2.0,0.0,11.0,26.0,1651087147799226.0,3
1666,20.0,-17.0,7.0,11.0,-6.0,0.0,-5.0,-20.0,1651087147799226.0,3
1667,23.0,8.0,-8.0,-19.0,-3.0,-6.0,6.0,4.0,1651087147799226.0,3
1668,-60.0,1.0,25.0,21.0,20.0,10.0,-14.0,-11.0,1651087147812539.0,3
1669,28.0,61.0,16.0,-16.0,-8.0,-6.0,-1.0,21.0,1651087147812539.0,3
1670,-17.0,-39.0,-22.0,14.0,12.0,3.0,25.0,16.0,1651087147820274.0,3
1671,36.0,-1.0,-11.0,1.0,-4.0,-7.0,-12.0,-2.0,1651087147820274.0,3
1672,-6.0,30.0,17.0,5.0,2.0,1.0,-16.0,-18.0,1651087147836568.0,3
1673,-15.0,29.0,-8.0,5.0,9.0,6.0,15.0,15.0,1651087147836568.0,3
1674,-16.0,26.0,7.0,-3.0,20.0,10.0,3.0,9.0,1651087147837416.0,3
1675,-42.0,-33.0,0.0,15.0,-23.0,-13.0,-7.0,-13.0,1651087147837416.0,3
1676,17.0,20.0,-17.0,-5.0,23.0,7.0,6.0,-6.0,1651087147859080.0,3
1677,-15.0,24.0,2.0,-2.0,-8.0,-7.0,-20.0,-23.0,1651087147859080.0,3
1678,-14.0,-47.0,5.0,-3.0,-12.0,-3.0,0.0,-7.0,1651087147859999.0,3
1679,-9.0,8.0,2.0,-7.0,2.0,4.0,13.0,9.0,1651087147859999.0,3
1680,21.0,1.0,9.0,5.0,-6.0,1.0,4.0,8.0,1651087147872518.0,3
1681,-11.0,16.0,-7.0,-16.0,-9.0,-10.0,-12.0,-15.0,1651087147872518.0,3
1682,25.0,7.0,7.0,13.0,8.0,6.0,5.0,-3.0,1651087147880711.0,3
1683,-18.0,-31.0,0.0,-10.0,0.0,-9.0,-22.0,-9.0,1651087147880711.0,3
1684,-3.0,21.0,-4.0,-6.0,-20.0,-5.0,11.0,8.0,1651087147895308.0,3
1685,-2.0,-13.0,-18.0,-10.0,5.0,1.0,-16.0,-18.0,1651087147895308.0,3
1686,11.0,6.0,11.0,3.0,-18.0,-10.0,-6.0,-8.0,1651087147897183.0,3
1687,14.0,12.0,4.0,12.0,32.0,15.0,16.0,28.0,1651087147897183.0,3
1688,-3.0,41.0,15.0,-3.0,0.0,3.0,7.0,-1.0,1651087147918679.0,3
1689,5.0,-33.0,-29.0,3.0,4.0,-3.0,-13.0,-1.0,1651087147918679.0,3
1690,5.0,-3.0,6.0,-8.0,-5.0,-1.0,2.0,1.0,1651087147920106.0,3
1691,-16.0,0.0,-14.0,-10.0,-16.0,-7.0,-9.0,-18.0,1651087147920106.0,3
1692,46.0,47.0,11.0,8.0,4.0,4.0,8.0,16.0,1651087147933005.0,3
1693,-32.0,-24.0,5.0,7.0,10.0,3.0,-2.0,-7.0,1651087147933005.0,3
1694,16.0,14.0,2.0,1.0,-10.0,-5.0,0.0,16.0,1651087147939189.0,3
1695,-9.0,-12.0,8.0,-1.0,1.0,2.0,-5.0,-8.0,1651087147939189.0,3
1696,-8.0,1.0,-8.0,-4.0,-2.0,-2.0,4.0,-2.0,1651087147955327.0,3
1697,2.0,4.0,1.0,-2.0,-3.0,0.0,-2.0,-5.0,1651087147955327.0,3
1698,8.0,-6.0,0.0,4.0,4.0,1.0,1.0,13.0,1651087147957184.0,3
1699,-12.0,5.0,-2.0,-3.0,-7.0,-3.0,3.0,-7.0,1651087147957184.0,3
1700,-6.0,-19.0,-16.0,-7.0,-4.0,-3.0,-2.0,-1.0,1651087147986223.0,3
1701,3.0,5.0,3.0,7.0,5.0,2.0,5.0,3.0,1651087147986223.0,3
1702,-1.0,-3.0,12.0,-1.0,-1.0,-6.0,-10.0,-9.0,1651087147987189.0,3
1703,0.0,6.0,3.0,0.0,-1.0,2.0,5.0,2.0,1651087147987189.0,3
1704,-2.0,-10.0,-32.0,-11.0,-8.0,-7.0,-8.0,-3.0,1651087147992211.0,3
1705,-5.0,-9.0,-3.0,0.0,-3.0,1.0,2.0,0.0,1651087147992211.0,3
1706,3.0,14.0,-1.0,1.0,-1.0,-2.0,-5.0,-4.0,1651087147999192.0,3
1707,-6.0,0.0,0.0,2.0,-4.0,-4.0,2.0,0.0,1651087147999192.0,3
1708,-3.0,-14.0,14.0,6.0,4.0,4.0,0.0,-3.0,1651087148015457.0,3
1709,-3.0,7.0,-4.0,-5.0,-4.0,-4.0,2.0,0.0,1651087148015457.0,3
1710,-1.0,-5.0,-9.0,-5.0,1.0,1.0,-4.0,-1.0,1651087148017362.0,3
1711,-5.0,-1.0,-11.0,1.0,1.0,-4.0,-3.0,-4.0,1651087148017362.0,3
1712,-3.0,-6.0,9.0,0.0,-3.0,-8.0,-5.0,5.0,1651087148038637.0,3
1713,6.0,3.0,-4.0,-1.0,6.0,12.0,7.0,-3.0,1651087148038637.0,3
1714,-3.0,0.0,4.0,-3.0,-9.0,-5.0,-3.0,-4.0,1651087148040075.0,3
1715,-6.0,0.0,-7.0,-5.0,0.0,-9.0,-9.0,-5.0,1651087148040075.0,3
1716,8.0,-4.0,-3.0,2.0,5.0,13.0,8.0,4.0,1651087148052717.0,3
1717,-3.0,-1.0,4.0,-5.0,-7.0,-13.0,-5.0,15.0,1651087148052717.0,3
1718,11.0,-2.0,6.0,4.0,2.0,8.0,1.0,-15.0,1651087148061341.0,3
1719,-17.0,-1.0,-11.0,4.0,0.0,3.0,-9.0,-14.0,1651087148061341.0,3
1720,-8.0,-7.0,-9.0,-5.0,-1.0,9.0,10.0,7.0,1651087148075579.0,3
1721,21.0,6.0,7.0,3.0,1.0,-5.0,3.0,9.0,1651087148075579.0,3
1722,4.0,-5.0,-9.0,0.0,2.0,6.0,1.0,10.0,1651087148077484.0,3
1723,-1.0,6.0,14.0,-8.0,-9.0,-7.0,-2.0,-12.0,1651087148077484.0,3
1724,-2.0,0.0,-12.0,-8.0,-2.0,-4.0,-5.0,-8.0,1651087148098648.0,3
1725,-17.0,-4.0,-3.0,3.0,8.0,5.0,3.0,-8.0,1651087148098648.0,3
1726,10.0,4.0,5.0,10.0,-6.0,-9.0,-4.0,4.0,1651087148100102.0,3
1727,13.0,1.0,-2.0,3.0,2.0,8.0,10.0,7.0,1651087148100102.0,3
1728,-3.0,8.0,16.0,9.0,3.0,-7.0,-7.0,3.0,1651087148112324.0,3
1729,-1.0,-5.0,10.0,-2.0,-4.0,1.0,0.0,-1.0,1651087148112324.0,3
1730,-4.0,-1.0,-15.0,-3.0,8.0,-1.0,-2.0,-16.0,1651087148121066.0,3
1731,-3.0,-6.0,-27.0,-7.0,-2.0,0.0,0.0,6.0,1651087148121066.0,3
1732,-1.0,1.0,-1.0,-6.0,-7.0,-4.0,-2.0,9.0,1651087148136349.0,3
1733,-2.0,-1.0,1.0,4.0,2.0,-1.0,-1.0,-16.0,1651087148136349.0,3
1734,-10.0,11.0,22.0,2.0,0.0,2.0,-2.0,2.0,1651087148137204.0,3
1735,1.0,-7.0,-18.0,-16.0,-4.0,0.0,4.0,-1.0,1651087148137204.0,3
1736,-4.0,-6.0,4.0,15.0,5.0,1.0,0.0,-2.0,1651087148158815.0,3
1737,-3.0,4.0,21.0,3.0,-2.0,-3.0,1.0,12.0,1651087148158815.0,3
1738,-4.0,-8.0,-14.0,-6.0,-4.0,-4.0,-2.0,-8.0,1651087148160107.0,3
1739,-4.0,4.0,17.0,14.0,2.0,3.0,2.0,6.0,1651087148160107.0,3
1740,-2.0,-4.0,1.0,-15.0,-2.0,1.0,2.0,-10.0,1651087148172379.0,3
1741,-6.0,-16.0,-24.0,-5.0,-2.0,-3.0,-1.0,5.0,1651087148172379.0,3
1742,-6.0,8.0,-14.0,-8.0,-2.0,1.0,-1.0,-12.0,1651087148180399.0,3
1743,-5.0,2.0,-2.0,9.0,7.0,3.0,3.0,24.0,1651087148180399.0,3
1744,4.0,-7.0,29.0,11.0,-6.0,-4.0,-6.0,-13.0,1651087148195225.0,3
1745,1.0,3.0,22.0,3.0,-5.0,-2.0,0.0,-15.0,1651087148195225.0,3
1746,-20.0,-4.0,-31.0,-17.0,2.0,2.0,-2.0,-6.0,1651087148197221.0,3
1747,4.0,-6.0,29.0,18.0,1.0,-1.0,-3.0,-3.0,1651087148197221.0,3
1748,-9.0,-2.0,-3.0,-3.0,0.0,-2.0,5.0,-7.0,1651087148219230.0,3
1749,-16.0,2.0,-6.0,2.0,-4.0,-4.0,-6.0,7.0,1651087148219230.0,3
1750,5.0,-8.0,5.0,6.0,0.0,1.0,0.0,5.0,1651087148219230.0,3
1751,1.0,1.0,-29.0,-17.0,2.0,2.0,1.0,-7.0,1651087148219230.0,3
1752,22.0,1.0,17.0,12.0,3.0,0.0,-1.0,0.0,1651087148233238.0,3
1753,1.0,1.0,-11.0,-8.0,1.0,3.0,2.0,1.0,1651087148233238.0,3
1754,1.0,0.0,0.0,-2.0,-3.0,-6.0,0.0,5.0,1651087148241362.0,3
1755,-1.0,0.0,21.0,-3.0,-5.0,1.0,1.0,5.0,1651087148241362.0,3
1756,-2.0,-8.0,-17.0,1.0,-1.0,-2.0,-2.0,-1.0,1651087148255384.0,3
1757,5.0,17.0,12.0,11.0,4.0,2.0,3.0,7.0,1651087148255384.0,3
1758,2.0,-1.0,18.0,3.0,3.0,2.0,-1.0,3.0,1651087148257216.0,3
1759,1.0,-2.0,-9.0,-8.0,-4.0,-1.0,2.0,-6.0,1651087148257216.0,3
1760,0.0,1.0,2.0,-3.0,-1.0,-1.0,-2.0,-2.0,1651087148278577.0,3
1761,-7.0,-5.0,-10.0,-2.0,0.0,3.0,-1.0,-7.0,1651087148278577.0,3
1762,11.0,-2.0,6.0,8.0,3.0,0.0,2.0,12.0,1651087148279576.0,3
1763,-5.0,-5.0,-10.0,-11.0,-1.0,-1.0,-2.0,-33.0,1651087148279576.0,3
1764,-2.0,2.0,-3.0,2.0,-2.0,-2.0,-5.0,-5.0,1651087148292971.0,3
1765,4.0,1.0,-26.0,-8.0,-2.0,0.0,3.0,20.0,1651087148292971.0,3
1766,-6.0,-20.0,17.0,9.0,-3.0,-4.0,-2.0,4.0,1651087148308501.0,3
1767,1.0,13.0,-22.0,-14.0,-2.0,1.0,0.0,9.0,1651087148308501.0,3
1768,16.0,2.0,10.0,11.0,2.0,3.0,0.0,14.0,1651087148316218.0,3
1769,2.0,-2.0,-25.0,-9.0,2.0,1.0,-2.0,-28.0,1651087148316218.0,3
1770,2.0,6.0,16.0,3.0,-4.0,-1.0,0.0,1.0,1651087148317055.0,3
1771,3.0,1.0,-20.0,-4.0,-2.0,-2.0,1.0,-1.0,1651087148317055.0,3
1772,-5.0,-7.0,-3.0,-2.0,-3.0,-3.0,2.0,16.0,1651087148338685.0,3
1773,10.0,-5.0,10.0,4.0,1.0,3.0,-2.0,7.0,1651087148338685.0,3
1774,3.0,8.0,2.0,2.0,4.0,0.0,0.0,-3.0,1651087148340104.0,3
1775,3.0,-14.0,19.0,8.0,0.0,-1.0,-1.0,0.0,1651087148340104.0,3
1776,-6.0,25.0,0.0,-6.0,0.0,-1.0,-2.0,-6.0,1651087148352434.0,3
1777,-1.0,-6.0,-6.0,-2.0,-6.0,-6.0,-2.0,-2.0,1651087148352434.0,3
1778,-6.0,0.0,-7.0,-3.0,1.0,1.0,-2.0,-5.0,1651087148361073.0,3
1779,3.0,-1.0,-10.0,-4.0,3.0,3.0,-1.0,5.0,1651087148361073.0,3
1780,-5.0,-21.0,-25.0,-8.0,-4.0,0.0,0.0,-3.0,1651087148375401.0,3
1781,0.0,-3.0,31.0,5.0,-5.0,-1.0,0.0,-1.0,1651087148375401.0,3
1782,7.0,12.0,-9.0,0.0,5.0,1.0,0.0,3.0,1651087148377251.0,3
1783,-2.0,5.0,20.0,5.0,-3.0,-2.0,0.0,5.0,1651087148377251.0,3
1784,-2.0,-1.0,-5.0,-1.0,2.0,1.0,1.0,-4.0,1651087148398664.0,3
1785,-2.0,1.0,-4.0,-3.0,1.0,1.0,0.0,-2.0,1651087148398664.0,3
1786,-3.0,-18.0,-13.0,-10.0,-5.0,0.0,-1.0,-1.0,1651087148400107.0,3
1787,4.0,3.0,11.0,4.0,-1.0,0.0,-1.0,1.0,1651087148400107.0,3
1788,-2.0,-1.0,-8.0,-3.0,2.0,-3.0,0.0,-6.0,1651087148412333.0,3
1789,-5.0,1.0,0.0,4.0,0.0,2.0,-1.0,2.0,1651087148412333.0,3
1790,-6.0,0.0,-1.0,-5.0,-2.0,0.0,2.0,1.0,1651087148421300.0,3
1791,-2.0,-12.0,-15.0,-3.0,-4.0,-4.0,-4.0,1.0,1651087148421300.0,3
1792,2.0,10.0,15.0,-1.0,-2.0,2.0,0.0,-3.0,1651087148443207.0,3
1793,0.0,4.0,-7.0,-6.0,0.0,-4.0,-1.0,-2.0,1651087148443207.0,3
1794,2.0,1.0,-10.0,-2.0,3.0,0.0,1.0,-1.0,1651087148445239.0,3
1795,-1.0,-3.0,-11.0,3.0,-2.0,0.0,1.0,1.0,1651087148445239.0,3
1796,-5.0,-18.0,-16.0,-2.0,2.0,4.0,-2.0,-1.0,1651087148458664.0,3
1797,0.0,40.0,25.0,4.0,6.0,0.0,-1.0,2.0,1651087148458664.0,3
1798,-4.0,-8.0,8.0,0.0,-3.0,-4.0,-4.0,-29.0,1651087148460139.0,3
1799,-1.0,4.0,12.0,6.0,-1.0,-4.0,-1.0,1.0,1651087148460139.0,3
1800,-4.0,-4.0,-11.0,-5.0,2.0,-1.0,1.0,0.0,1651087148472355.0,3
1801,8.0,-2.0,3.0,5.0,0.0,2.0,-1.0,-4.0,1651087148472355.0,3
1802,-3.0,-12.0,-20.0,-6.0,-1.0,-2.0,-1.0,5.0,1651087148481438.0,3
1803,-1.0,6.0,11.0,2.0,2.0,0.0,-1.0,-1.0,1651087148481438.0,3
1804,0.0,-3.0,2.0,0.0,-2.0,0.0,-2.0,-5.0,1651087148495208.0,3
1805,-6.0,-5.0,-17.0,-10.0,-3.0,-2.0,1.0,1.0,1651087148495208.0,3
1806,4.0,6.0,1.0,2.0,-5.0,-2.0,1.0,3.0,1651087148497203.0,3
1807,0.0,-1.0,15.0,3.0,4.0,2.0,1.0,0.0,1651087148497203.0,3
1808,-3.0,-2.0,0.0,-4.0,-1.0,-1.0,-2.0,2.0,1651087148518690.0,3
1809,-2.0,-3.0,-8.0,1.0,4.0,1.0,2.0,0.0,1651087148518690.0,3
1810,-3.0,-9.0,8.0,3.0,-2.0,0.0,-2.0,4.0,1651087148520076.0,3
1811,-1.0,5.0,2.0,-4.0,1.0,0.0,1.0,-1.0,1651087148520076.0,3
1812,-1.0,3.0,-8.0,-4.0,-3.0,-3.0,0.0,0.0,1651087148540383.0,3
1813,0.0,-10.0,-3.0,-2.0,-3.0,-6.0,-2.0,-2.0,1651087148540383.0,3
1814,1.0,28.0,9.0,-3.0,-6.0,1.0,1.0,1.0,1651087148542378.0,3
1815,2.0,-9.0,-5.0,1.0,5.0,5.0,2.0,1.0,1651087148542378.0,3
1816,-3.0,-9.0,-4.0,0.0,-2.0,-2.0,1.0,1.0,1651087148555374.0,3
1817,2.0,-6.0,7.0,1.0,-1.0,-2.0,0.0,-1.0,1651087148555374.0,3
1818,0.0,6.0,-13.0,2.0,2.0,-2.0,0.0,4.0,1651087148557338.0,3
1819,1.0,-1.0,11.0,1.0,-4.0,-2.0,-2.0,1.0,1651087148557338.0,3
1820,-1.0,13.0,1.0,-3.0,-4.0,-1.0,2.0,-1.0,1651087148577388.0,3
1821,1.0,-9.0,-3.0,-1.0,-3.0,-2.0,-2.0,-1.0,1651087148577388.0,3
1822,1.0,-6.0,2.0,2.0,1.0,-1.0,-2.0,2.0,1651087148586364.0,3
1823,-1.0,2.0,0.0,0.0,-1.0,1.0,0.0,-1.0,1651087148586364.0,3
1824,0.0,-13.0,-8.0,-4.0,1.0,2.0,0.0,0.0,1651087148601392.0,3
1825,0.0,8.0,13.0,6.0,-2.0,-1.0,1.0,-1.0,1651087148601392.0,3
1826,0.0,-6.0,0.0,-1.0,4.0,2.0,0.0,0.0,1651087148602229.0,3
1827,1.0,3.0,1.0,-1.0,-2.0,-1.0,0.0,0.0,1651087148602229.0,3
1828,2.0,5.0,5.0,3.0,-2.0,-2.0,-2.0,2.0,1651087148616542.0,3
1829,-6.0,-8.0,-15.0,-2.0,-1.0,1.0,0.0,-1.0,1651087148616542.0,3
1830,2.0,-1.0,3.0,0.0,-1.0,0.0,0.0,3.0,1651087148617417.0,3
1831,-2.0,-7.0,-4.0,-2.0,0.0,-1.0,1.0,-1.0,1651087148617417.0,3
1832,2.0,13.0,2.0,0.0,-1.0,-1.0,1.0,0.0,1651087148638836.0,3
1833,-2.0,1.0,9.0,-2.0,-2.0,-2.0,-3.0,-1.0,1651087148638836.0,3
1834,-1.0,-8.0,-3.0,-1.0,1.0,2.0,-1.0,-2.0,1651087148640093.0,3
1835,1.0,6.0,2.0,0.0,-3.0,-6.0,-1.0,-1.0,1651087148640093.0,3
1836,-2.0,1.0,0.0,0.0,-4.0,2.0,1.0,-1.0,1651087148661279.0,3
1837,-4.0,-7.0,-3.0,3.0,6.0,1.0,1.0,1.0,1651087148661279.0,3
1838,1.0,1.0,-3.0,-7.0,-5.0,-6.0,0.0,1.0,1651087148662404.0,3
1839,-3.0,-9.0,-13.0,-2.0,1.0,-2.0,0.0,-3.0,1651087148662404.0,3
1840,-3.0,1.0,22.0,1.0,-4.0,-5.0,-3.0,-2.0,1651087148675529.0,3
1841,-1.0,1.0,-17.0,-3.0,-2.0,1.0,1.0,0.0,1651087148675529.0,0
1842,-1.0,2.0,-1.0,1.0,3.0,2.0,0.0,2.0,1651087148681514.0,0
1843,0.0,-10.0,5.0,3.0,-3.0,-2.0,-2.0,0.0,1651087148681514.0,0
1844,1.0,7.0,1.0,-6.0,1.0,1.0,1.0,0.0,1651087148698611.0,0
1845,-2.0,-4.0,2.0,5.0,0.0,3.0,1.0,-1.0,1651087148698611.0,0
1846,0.0,2.0,-1.0,-2.0,-1.0,-1.0,-2.0,0.0,1651087148699465.0,0
1847,-1.0,3.0,0.0,1.0,-2.0,1.0,0.0,0.0,1651087148699465.0,0
1848,0.0,-3.0,-2.0,-4.0,-4.0,-3.0,-2.0,1.0,1651087148720448.0,0
1849,1.0,7.0,7.0,-3.0,-1.0,-2.0,-2.0,1.0,1651087148720448.0,0
1850,-4.0,-15.0,-23.0,-1.0,3.0,0.0,2.0,0.0,1651087148722446.0,0
1851,-1.0,4.0,7.0,1.0,-4.0,-3.0,-3.0,-4.0,1651087148722446.0,0
1852,-1.0,-6.0,3.0,5.0,4.0,2.0,0.0,0.0,1651087148735577.0,0
1853,2.0,-1.0,-5.0,-5.0,-2.0,1.0,1.0,-1.0,1651087148735577.0,0
1854,2.0,6.0,1.0,-1.0,-4.0,-2.0,0.0,0.0,1651087148742696.0,0
1855,-1.0,-6.0,1.0,0.0,5.0,3.0,-2.0,0.0,1651087148742696.0,0
1856,-1.0,-5.0,-10.0,-1.0,-2.0,-3.0,-1.0,0.0,1651087148759244.0,0
1857,0.0,-1.0,2.0,-4.0,-3.0,-3.0,-3.0,-1.0,1651087148759244.0,0
1858,-1.0,-3.0,5.0,2.0,-2.0,-2.0,-1.0,-3.0,1651087148759244.0,0
1859,-4.0,-3.0,-10.0,0.0,2.0,5.0,2.0,1.0,1651087148759244.0,0
1860,0.0,4.0,7.0,3.0,1.0,-1.0,-1.0,-1.0,1651087148781230.0,0
1861,2.0,-16.0,-12.0,-1.0,-2.0,-1.0,-1.0,1.0,1651087148781230.0,0
1862,-2.0,6.0,1.0,1.0,-1.0,-2.0,-1.0,-1.0,1651087148783183.0,0
1863,-1.0,6.0,3.0,4.0,3.0,1.0,0.0,1.0,1651087148783183.0,0
1864,-1.0,0.0,-1.0,-2.0,-1.0,-2.0,-1.0,0.0,1651087148794393.0,0
1865,0.0,-3.0,-6.0,-1.0,-1.0,0.0,1.0,2.0,1651087148794393.0,0
1866,0.0,-2.0,-1.0,-4.0,-5.0,-4.0,-2.0,-2.0,1651087148803223.0,0
1867,5.0,12.0,5.0,-2.0,-6.0,-3.0,0.0,0.0,1651087148803223.0,0
1868,-5.0,-23.0,-17.0,-1.0,-1.0,0.0,-2.0,-4.0,1651087148819232.0,0
1869,-1.0,-5.0,1.0,-2.0,5.0,1.0,0.0,0.0,1651087148819232.0,0
1870,-1.0,-2.0,-10.0,0.0,3.0,4.0,-1.0,0.0,1651087148819232.0,0
1871,-1.0,2.0,4.0,3.0,1.0,0.0,1.0,1.0,1651087148819232.0,0
1872,-1.0,-1.0,5.0,1.0,1.0,1.0,1.0,1.0,1651087148841118.0,0
1873,1.0,2.0,2.0,-3.0,-5.0,-3.0,-2.0,-2.0,1651087148841118.0,0
1874,0.0,-5.0,2.0,-3.0,-3.0,1.0,0.0,0.0,1651087148842118.0,0
1875,1.0,-9.0,-2.0,-4.0,4.0,3.0,0.0,-1.0,1651087148842118.0,0
1876,-2.0,0.0,-7.0,-1.0,-1.0,-2.0,-2.0,-2.0,1651087148855377.0,0
1877,1.0,2.0,1.0,0.0,3.0,3.0,1.0,1.0,1651087148855377.0,0
1878,-4.0,-14.0,-4.0,2.0,-2.0,-3.0,-2.0,-1.0,1651087148861373.0,0
