,EMG_s0,EMG_s1,EMG_s2,EMG_s3,EMG_s4,EMG_s5,EMG_s6,EMG_s7,timestamp,signal
0,-1.0,-5.0,-5.0,2.0,7.0,4.0,0.0,2.0,1651087047921821.0,0
1,0.0,-4.0,2.0,-1.0,-2.0,-3.0,-2.0,0.0,1651087047921821.0,0
2,0.0,0.0,2.0,3.0,1.0,0.0,0.0,0.0,1651087047921821.0,0
3,0.0,-2.0,-3.0,-6.0,-9.0,-2.0,-2.0,0.0,1651087047921821.0,0
4,2.0,7.0,-4.0,-15.0,-8.0,-4.0,-3.0,1.0,1651087047944357.0,0
5,-2.0,-9.0,10.0,15.0,4.0,3.0,-1.0,-3.0,1651087047944357.0,0
6,0.0,0.0,8.0,7.0,3.0,-2.0,-1.0,-1.0,1651087047944357.0,0
7,-2.0,-3.0,-2.0,-2.0,3.0,-2.0,0.0,-1.0,1651087047944357.0,0
8,0.0,5.0,3.0,-3.0,-3.0,2.0,2.0,1.0,1651087047958504.0,0
9,1.0,-3.0,-22.0,0.0,5.0,-1.0,0.0,1.0,1651087047958504.0,0
10,-2.0,-2.0,3.0,3.0,4.0,2.0,1.0,-1.0,1651087047958504.0,0
11,0.0,-3.0,-7.0,-1.0,-1.0,3.0,0.0,0.0,1651087047958504.0,0
12,1.0,-1.0,0.0,-1.0,-4.0,-5.0,0.0,0.0,1651087047982298.0,0
13,-2.0,-5.0,-8.0,-7.0,-11.0,-4.0,-2.0,-2.0,1651087047982298.0,0
14,-1.0,-2.0,12.0,-1.0,4.0,1.0,0.0,-2.0,1651087047982298.0,0
15,-2.0,1.0,-10.0,2.0,3.0,1.0,1.0,-1.0,1651087047982298.0,0
16,-3.0,-3.0,-2.0,-1.0,0.0,2.0,1.0,0.0,1651087048004287.0,0
17,-1.0,1.0,-4.0,-4.0,0.0,-1.0,0.0,0.0,1651087048004287.0,0
18,0.0,3.0,0.0,9.0,6.0,0.0,-2.0,2.0,1651087048004287.0,0
19,-1.0,-2.0,9.0,-6.0,-7.0,-1.0,-3.0,-1.0,1651087048004287.0,0
20,-2.0,-2.0,6.0,8.0,6.0,2.0,0.0,-1.0,1651087048018238.0,0
21,0.0,1.0,-12.0,-10.0,-8.0,-3.0,-2.0,0.0,1651087048018238.0,0
22,-1.0,-2.0,2.0,1.0,-4.0,2.0,1.0,1.0,1651087048019271.0,0
23,1.0,3.0,8.0,10.0,13.0,6.0,4.0,1.0,1651087048019271.0,0
24,-1.0,0.0,2.0,-1.0,-2.0,0.0,-2.0,-1.0,1651087048042210.0,0
25,0.0,-2.0,-9.0,8.0,4.0,-1.0,1.0,0.0,1651087048042210.0,0
26,-1.0,-2.0,-14.0,-14.0,-11.0,-5.0,-4.0,-2.0,1651087048042210.0,0
27,0.0,-4.0,-4.0,2.0,1.0,-1.0,-2.0,2.0,1651087048042210.0,0
28,0.0,-1.0,7.0,3.0,3.0,1.0,1.0,-1.0,1651087048064193.0,0
29,-1.0,3.0,4.0,-8.0,-2.0,0.0,-1.0,-1.0,1651087048064193.0,0
30,0.0,0.0,-11.0,-3.0,-11.0,-3.0,0.0,0.0,1651087048064193.0,0
31,-1.0,-2.0,1.0,7.0,15.0,2.0,0.0,-2.0,1651087048064193.0,0
32,-1.0,-2.0,-3.0,-1.0,-3.0,0.0,1.0,1.0,1651087048079057.0,0
33,1.0,-5.0,0.0,-4.0,-3.0,-1.0,-2.0,-2.0,1651087048079057.0,0
34,2.0,3.0,1.0,4.0,3.0,-1.0,1.0,0.0,1651087048079057.0,0
35,-2.0,1.0,0.0,-9.0,-13.0,-1.0,-2.0,-2.0,1651087048079057.0,0
36,1.0,1.0,1.0,2.0,2.0,0.0,-1.0,0.0,1651087048101678.0,0
37,-1.0,-4.0,-9.0,-3.0,-5.0,-2.0,-3.0,-3.0,1651087048101678.0,0
38,-2.0,-4.0,6.0,2.0,2.0,1.0,-1.0,0.0,1651087048101678.0,0
39,0.0,4.0,1.0,-3.0,-5.0,-2.0,0.0,1.0,1651087048101678.0,0
40,-1.0,0.0,-4.0,3.0,11.0,2.0,-1.0,-1.0,1651087048123167.0,0
41,-3.0,0.0,17.0,6.0,-3.0,-1.0,1.0,0.0,1651087048123167.0,0
42,0.0,6.0,1.0,0.0,1.0,-3.0,-1.0,1.0,1651087048131144.0,0
43,-2.0,-12.0,-21.0,-2.0,1.0,-1.0,-1.0,-2.0,1651087048131144.0,0
44,1.0,1.0,-8.0,-4.0,-3.0,-2.0,0.0,-1.0,1651087048138300.0,0
45,1.0,0.0,-3.0,-12.0,-7.0,-2.0,-1.0,0.0,1651087048138300.0,0
46,0.0,-2.0,-4.0,4.0,11.0,5.0,2.0,1.0,1651087048139106.0,0
47,1.0,11.0,13.0,1.0,-2.0,-1.0,-1.0,1.0,1651087048139106.0,0
48,-1.0,0.0,-1.0,2.0,-2.0,-4.0,-4.0,-1.0,1651087048161066.0,0
49,1.0,1.0,-1.0,0.0,3.0,1.0,2.0,0.0,1651087048161066.0,0
50,-1.0,-3.0,0.0,1.0,-2.0,0.0,0.0,-1.0,1651087048162047.0,0
51,-1.0,-2.0,2.0,2.0,-7.0,-2.0,-2.0,0.0,1651087048162047.0,0
52,-2.0,-5.0,-3.0,-3.0,-5.0,-4.0,-3.0,-3.0,1651087048184309.0,0
53,-1.0,3.0,2.0,7.0,9.0,0.0,-1.0,-1.0,1651087048184309.0,0
54,-2.0,-7.0,1.0,0.0,3.0,1.0,0.0,-1.0,1651087048184309.0,0
55,-3.0,0.0,-15.0,-5.0,-4.0,-3.0,-1.0,-1.0,1651087048184309.0,0
56,0.0,2.0,8.0,1.0,-3.0,-1.0,-1.0,-1.0,1651087048198081.0,0
57,0.0,-2.0,-13.0,-13.0,-7.0,-2.0,-1.0,0.0,1651087048198081.0,0
58,0.0,1.0,24.0,14.0,9.0,2.0,1.0,-1.0,1651087048199073.0,0
59,0.0,0.0,-11.0,-6.0,2.0,-1.0,-2.0,-2.0,1651087048199073.0,0
60,0.0,-1.0,-2.0,1.0,-1.0,-7.0,1.0,0.0,1651087048221663.0,0
61,0.0,2.0,4.0,7.0,9.0,6.0,2.0,2.0,1651087048221663.0,0
62,-1.0,0.0,-11.0,-5.0,-6.0,-2.0,-2.0,0.0,1651087048221663.0,0
63,-1.0,1.0,12.0,1.0,0.0,0.0,-1.0,0.0,1651087048221663.0,0
64,1.0,4.0,0.0,-6.0,-4.0,0.0,-1.0,1.0,1651087048244326.0,0
65,-2.0,-8.0,0.0,1.0,0.0,-1.0,1.0,0.0,1651087048244326.0,0
66,0.0,3.0,1.0,4.0,4.0,-1.0,-2.0,-1.0,1651087048244326.0,0
67,2.0,0.0,4.0,2.0,-1.0,0.0,0.0,0.0,1651087048244326.0,0
68,0.0,-3.0,-4.0,-2.0,2.0,1.0,1.0,1.0,1651087048258423.0,0
69,0.0,2.0,6.0,-3.0,-4.0,-2.0,-2.0,-1.0,1651087048258423.0,0
70,-1.0,1.0,-4.0,-4.0,-6.0,-5.0,-4.0,0.0,1651087048266243.0,0
71,0.0,-1.0,0.0,-2.0,1.0,3.0,3.0,1.0,1651087048266243.0,0
72,1.0,2.0,8.0,5.0,1.0,3.0,-1.0,0.0,1651087048289238.0,0
73,-2.0,4.0,-8.0,-5.0,-4.0,-2.0,-3.0,-3.0,1651087048289238.0,0
74,-1.0,-3.0,1.0,1.0,-3.0,-3.0,-1.0,-2.0,1651087048290254.0,0
75,1.0,-2.0,-2.0,-1.0,1.0,0.0,0.0,1.0,1651087048290254.0,0
76,-1.0,1.0,2.0,-2.0,3.0,2.0,1.0,2.0,1651087048304118.0,0
77,-1.0,-3.0,-3.0,5.0,7.0,1.0,0.0,0.0,1651087048304118.0,0
78,1.0,-7.0,-12.0,-6.0,0.0,3.0,1.0,2.0,1651087048304989.0,0
79,0.0,3.0,6.0,0.0,-3.0,-5.0,-1.0,-2.0,1651087048304989.0,0
80,-3.0,-5.0,-8.0,2.0,2.0,2.0,-1.0,-2.0,1651087048326850.0,0
81,1.0,2.0,4.0,-4.0,-3.0,2.0,-1.0,-1.0,1651087048326850.0,0
82,-1.0,0.0,-7.0,-9.0,-10.0,-5.0,0.0,0.0,1651087048327850.0,0
83,0.0,1.0,2.0,16.0,6.0,-1.0,2.0,0.0,1651087048327850.0,0
84,-3.0,-4.0,2.0,-5.0,-5.0,-1.0,-2.0,1.0,1651087048349445.0,0
85,1.0,2.0,7.0,5.0,1.0,0.0,0.0,1.0,1651087048349445.0,0
86,0.0,1.0,-13.0,-6.0,-2.0,1.0,2.0,0.0,1651087048356588.0,0
87,0.0,-2.0,0.0,-4.0,-5.0,-2.0,-1.0,-2.0,1651087048356588.0,0
88,1.0,2.0,11.0,4.0,2.0,0.0,-1.0,0.0,1651087048363410.0,0
89,-2.0,-2.0,-13.0,-1.0,-1.0,-2.0,1.0,1.0,1651087048363410.0,0
90,0.0,-4.0,6.0,-3.0,-4.0,0.0,1.0,-2.0,1651087048365404.0,0
91,-2.0,2.0,-9.0,-5.0,-2.0,-4.0,-1.0,-1.0,1651087048365404.0,0
92,0.0,3.0,-2.0,0.0,2.0,2.0,3.0,-1.0,1651087048386198.0,0
93,-1.0,-3.0,7.0,-1.0,-5.0,0.0,-1.0,-3.0,1651087048386198.0,0
94,2.0,6.0,4.0,4.0,8.0,1.0,-1.0,0.0,1651087048388225.0,0
95,-1.0,-1.0,2.0,-8.0,-8.0,-2.0,-2.0,1.0,1651087048388225.0,0
96,1.0,3.0,-6.0,-3.0,-3.0,-1.0,-1.0,-1.0,1651087048409215.0,0
97,0.0,-6.0,-3.0,4.0,9.0,2.0,3.0,0.0,1651087048409215.0,0
98,-2.0,1.0,-1.0,1.0,-2.0,-1.0,-1.0,-3.0,1651087048410216.0,0
99,2.0,-1.0,10.0,4.0,0.0,3.0,2.0,1.0,1651087048410216.0,0
100,-2.0,-2.0,-11.0,-11.0,-6.0,-4.0,-3.0,-1.0,1651087048423213.0,0
101,0.0,1.0,-2.0,-2.0,-1.0,-2.0,-2.0,0.0,1651087048423213.0,0
102,2.0,2.0,-3.0,6.0,1.0,0.0,-2.0,-1.0,1651087048430223.0,0
103,-2.0,-11.0,-3.0,-5.0,-6.0,-5.0,-2.0,-1.0,1651087048430223.0,0
104,-1.0,-2.0,9.0,7.0,5.0,6.0,4.0,0.0,1651087048446335.0,0
105,-1.0,0.0,-8.0,-9.0,-7.0,-1.0,-2.0,0.0,1651087048446335.0,0
106,-1.0,-1.0,-3.0,2.0,-1.0,-2.0,-1.0,0.0,1651087048448227.0,0
107,1.0,0.0,-5.0,2.0,9.0,4.0,0.0,1.0,1651087048448227.0,0
108,-2.0,0.0,4.0,3.0,-6.0,-6.0,-1.0,-2.0,1651087048469221.0,0
109,-1.0,1.0,1.0,-2.0,3.0,1.0,2.0,1.0,1651087048469221.0,0
110,1.0,0.0,6.0,1.0,-6.0,0.0,0.0,1.0,1651087048470222.0,0
111,-4.0,-5.0,-9.0,-5.0,-3.0,0.0,-1.0,-2.0,1651087048470222.0,0
112,0.0,-3.0,4.0,7.0,3.0,0.0,-2.0,-3.0,1651087048483212.0,0
113,0.0,4.0,-3.0,-13.0,-10.0,-6.0,-4.0,2.0,1651087048483212.0,0
114,0.0,3.0,10.0,5.0,-1.0,2.0,-1.0,0.0,1651087048490327.0,0
115,-2.0,0.0,-13.0,0.0,-1.0,0.0,0.0,-2.0,1651087048490327.0,0
116,0.0,-5.0,-9.0,-5.0,4.0,4.0,3.0,1.0,1651087048506771.0,0
117,-1.0,0.0,5.0,3.0,-5.0,-5.0,-2.0,-2.0,1651087048506771.0,0
118,0.0,-3.0,-5.0,-8.0,-5.0,-3.0,-1.0,0.0,1651087048507772.0,0
119,1.0,3.0,7.0,-2.0,0.0,-1.0,-1.0,1.0,1651087048507772.0,0
120,0.0,-2.0,-6.0,4.0,3.0,1.0,0.0,-1.0,1651087048529107.0,0
121,0.0,-1.0,2.0,1.0,3.0,7.0,3.0,0.0,1651087048529107.0,0
122,0.0,2.0,-8.0,-7.0,-3.0,-4.0,-1.0,-2.0,1651087048530108.0,0
123,1.0,2.0,8.0,13.0,11.0,2.0,0.0,0.0,1651087048530108.0,0
124,0.0,-3.0,-2.0,-6.0,-2.0,-4.0,-2.0,-1.0,1651087048543137.0,0
125,0.0,2.0,7.0,6.0,-1.0,-5.0,-1.0,-3.0,1651087048543137.0,0
126,-1.0,-2.0,2.0,4.0,10.0,3.0,0.0,1.0,1651087048550353.0,0
127,1.0,0.0,-6.0,-15.0,-6.0,1.0,-2.0,0.0,1651087048550353.0,0
128,-1.0,1.0,7.0,7.0,-2.0,-2.0,-1.0,2.0,1651087048566167.0,0
129,0.0,-3.0,-2.0,-5.0,-4.0,-2.0,-1.0,-1.0,1651087048566167.0,0
130,-2.0,-3.0,-10.0,-1.0,-1.0,-1.0,0.0,-1.0,1651087048568022.0,0
131,0.0,0.0,5.0,-4.0,-9.0,-5.0,0.0,-1.0,1651087048568022.0,0
132,2.0,-2.0,-9.0,0.0,3.0,2.0,2.0,1.0,1651087048589230.0,0
133,2.0,8.0,5.0,5.0,5.0,3.0,0.0,-1.0,1651087048589230.0,0
134,-1.0,-7.0,0.0,-2.0,-2.0,0.0,-1.0,0.0,1651087048590241.0,0
135,-1.0,0.0,-2.0,-6.0,-5.0,-2.0,0.0,-1.0,1651087048590241.0,0
136,-1.0,-2.0,0.0,1.0,-4.0,-3.0,-2.0,-1.0,1651087048604539.0,0
137,0.0,-1.0,-5.0,-6.0,-3.0,1.0,0.0,1.0,1651087048604539.0,0
138,1.0,-1.0,-4.0,10.0,7.0,2.0,0.0,0.0,1651087048610398.0,0
139,1.0,-2.0,6.0,5.0,3.0,-1.0,0.0,-2.0,1651087048610398.0,0
140,0.0,0.0,2.0,0.0,-3.0,-3.0,-2.0,0.0,1651087048626393.0,0
141,0.0,1.0,-1.0,-13.0,-4.0,-2.0,-2.0,-1.0,1651087048626393.0,0
142,0.0,-2.0,-1.0,-1.0,-15.0,-3.0,-2.0,-1.0,1651087048628261.0,0
143,1.0,4.0,-6.0,-1.0,12.0,3.0,2.0,0.0,1651087048628261.0,0
144,-1.0,0.0,6.0,-7.0,1.0,-3.0,-1.0,-2.0,1651087048649252.0,0
145,-1.0,-4.0,-8.0,7.0,-4.0,0.0,0.0,-1.0,1651087048649252.0,0
146,0.0,-1.0,0.0,-1.0,0.0,-1.0,-1.0,-1.0,1651087048650252.0,0
147,-1.0,2.0,4.0,0.0,-7.0,-2.0,-1.0,0.0,1651087048650252.0,0
148,0.0,-3.0,-7.0,-6.0,0.0,2.0,0.0,1.0,1651087048663070.0,0
149,0.0,5.0,2.0,6.0,2.0,-2.0,-1.0,0.0,1651087048663070.0,0
150,-3.0,-1.0,-1.0,0.0,4.0,-2.0,0.0,-2.0,1651087048670266.0,0
151,0.0,1.0,0.0,1.0,3.0,1.0,-1.0,0.0,1651087048670266.0,0
152,-1.0,-2.0,-5.0,-9.0,-8.0,0.0,0.0,-1.0,1651087048686395.0,0
153,-2.0,-6.0,4.0,16.0,3.0,-2.0,-1.0,1.0,1651087048686395.0,0
154,-1.0,2.0,-4.0,-10.0,-4.0,-3.0,-2.0,0.0,1651087048687392.0,0
155,0.0,-2.0,-1.0,-4.0,-9.0,-2.0,-1.0,0.0,1651087048687392.0,0
156,0.0,8.0,3.0,-1.0,2.0,2.0,-1.0,-1.0,1651087048709199.0,0
157,-1.0,-13.0,0.0,1.0,-2.0,-4.0,1.0,0.0,1651087048709199.0,0
158,-1.0,1.0,7.0,8.0,5.0,1.0,-1.0,0.0,1651087048710200.0,0
159,-1.0,-6.0,-23.0,-10.0,-3.0,0.0,-1.0,-2.0,1651087048710200.0,0
160,0.0,-3.0,16.0,10.0,-9.0,-4.0,-2.0,-3.0,1651087048722536.0,0
161,1.0,2.0,-11.0,-9.0,-9.0,-5.0,1.0,-1.0,1651087048722536.0,0
162,-1.0,4.0,15.0,-2.0,6.0,4.0,1.0,-1.0,1651087048731248.0,0
163,0.0,-2.0,-2.0,11.0,19.0,7.0,1.0,2.0,1651087048731248.0,0
164,-1.0,4.0,-3.0,3.0,1.0,-1.0,1.0,-1.0,1651087048746321.0,0
165,0.0,-2.0,3.0,3.0,12.0,6.0,-2.0,2.0,1651087048746321.0,0
166,0.0,-3.0,-8.0,-12.0,-17.0,-8.0,-3.0,-2.0,1651087048748260.0,0
167,-2.0,-1.0,1.0,1.0,-4.0,-2.0,-1.0,0.0,1651087048748260.0,0
168,-1.0,-1.0,2.0,-9.0,1.0,5.0,2.0,0.0,1651087048769047.0,0
169,-3.0,0.0,-16.0,-5.0,-13.0,-6.0,-3.0,-2.0,1651087048769047.0,0
170,0.0,-1.0,-1.0,7.0,8.0,4.0,1.0,0.0,1651087048770071.0,0
171,-1.0,-1.0,-3.0,-8.0,-13.0,-8.0,-3.0,-3.0,1651087048770071.0,0
172,-1.0,-3.0,-2.0,2.0,5.0,-3.0,-1.0,-2.0,1651087048783235.0,0
173,-1.0,1.0,0.0,-14.0,-5.0,1.0,1.0,-2.0,1651087048783235.0,0
174,0.0,-4.0,2.0,12.0,9.0,1.0,0.0,0.0,1651087048791163.0,0
175,0.0,4.0,12.0,9.0,-6.0,0.0,0.0,-2.0,1651087048791163.0,0
176,-1.0,0.0,-13.0,-5.0,1.0,1.0,-1.0,1.0,1651087048806127.0,0
177,0.0,0.0,5.0,-9.0,-7.0,-3.0,-1.0,-2.0,1651087048806127.0,0
178,-1.0,-2.0,1.0,26.0,30.0,11.0,2.0,2.0,1651087048808121.0,0
179,-3.0,1.0,4.0,-5.0,1.0,0.0,0.0,-1.0,1651087048808121.0,0
180,-1.0,4.0,4.0,-6.0,-7.0,-2.0,-3.0,-1.0,1651087048829242.0,0
181,0.0,2.0,-6.0,-7.0,-31.0,-15.0,-6.0,-4.0,1651087048829242.0,0
182,-2.0,-8.0,7.0,41.0,62.0,20.0,3.0,-1.0,1651087048830261.0,0
183,0.0,0.0,7.0,-7.0,3.0,2.0,2.0,2.0,1651087048830261.0,0
184,-1.0,-4.0,-4.0,11.0,2.0,0.0,1.0,2.0,1651087048843223.0,0
185,-1.0,-1.0,-3.0,-16.0,8.0,3.0,0.0,2.0,1651087048843223.0,0
186,0.0,7.0,4.0,-28.0,-39.0,-13.0,-4.0,-1.0,1651087048851369.0,0
187,0.0,-5.0,-6.0,10.0,6.0,1.0,-2.0,0.0,1651087048851369.0,1
188,0.0,6.0,6.0,-4.0,2.0,0.0,0.0,-1.0,1651087048866354.0,1
189,-2.0,-6.0,-1.0,15.0,10.0,0.0,1.0,1.0,1651087048866354.0,1
190,-1.0,-1.0,-9.0,-11.0,-14.0,-3.0,0.0,-1.0,1651087048868218.0,1
191,-1.0,0.0,-2.0,1.0,1.0,1.0,-1.0,1.0,1651087048868218.0,1
192,-1.0,-3.0,-2.0,2.0,-4.0,-3.0,-2.0,-1.0,1651087048888461.0,1
193,-1.0,-3.0,3.0,-1.0,-12.0,-4.0,-2.0,-2.0,1651087048888461.0,1
194,0.0,-1.0,5.0,0.0,14.0,5.0,3.0,1.0,1651087048890292.0,1
195,-1.0,1.0,-11.0,-2.0,2.0,-1.0,-1.0,0.0,1651087048890292.0,1
196,-1.0,-4.0,-6.0,-5.0,-8.0,-7.0,-3.0,0.0,1651087048911816.0,1
197,1.0,-1.0,1.0,15.0,15.0,7.0,1.0,1.0,1651087048911816.0,1
198,1.0,8.0,3.0,-9.0,-15.0,-7.0,-2.0,-1.0,1651087048912815.0,1
199,-1.0,-6.0,-1.0,8.0,-3.0,-3.0,-2.0,-3.0,1651087048912815.0,1
200,-2.0,-3.0,-6.0,-8.0,-5.0,0.0,1.0,1.0,1651087048927102.0,1
201,0.0,1.0,-6.0,-3.0,-1.0,-1.0,0.0,-2.0,1651087048927102.0,1
202,4.0,2.0,4.0,-4.0,-16.0,-5.0,0.0,1.0,1651087048927943.0,1
203,2.0,-2.0,8.0,0.0,-7.0,-1.0,-1.0,-2.0,1651087048927943.0,1
204,2.0,8.0,-7.0,-5.0,8.0,4.0,2.0,1.0,1651087048949253.0,1
205,2.0,-12.0,8.0,3.0,10.0,4.0,4.0,4.0,1651087048949253.0,1
206,-2.0,-14.0,-28.0,-9.0,-18.0,-7.0,-3.0,-3.0,1651087048950253.0,1
207,-1.0,11.0,4.0,-1.0,8.0,3.0,2.0,-1.0,1651087048950253.0,1
208,-4.0,-8.0,10.0,8.0,-10.0,-5.0,-4.0,-3.0,1651087048962952.0,1
209,0.0,10.0,4.0,-3.0,1.0,-1.0,-1.0,-3.0,1651087048962952.0,1
210,0.0,-3.0,0.0,2.0,4.0,2.0,-1.0,1.0,1651087048971043.0,1
211,1.0,1.0,-1.0,-5.0,-10.0,-2.0,0.0,1.0,1651087048971043.0,1
212,2.0,-1.0,-2.0,-7.0,0.0,-3.0,1.0,-1.0,1651087048986232.0,1
213,-2.0,2.0,4.0,17.0,11.0,3.0,0.0,0.0,1651087048986232.0,1
214,-1.0,1.0,0.0,-13.0,-8.0,-4.0,0.0,-1.0,1651087048988259.0,1
215,-5.0,-4.0,-3.0,1.0,-5.0,-3.0,-1.0,-2.0,1651087048988259.0,1
216,-1.0,-1.0,-2.0,-5.0,0.0,1.0,-1.0,-1.0,1651087049009229.0,1
217,1.0,-7.0,-4.0,-3.0,7.0,6.0,0.0,3.0,1651087049009229.0,1
218,-2.0,15.0,6.0,-2.0,-3.0,-2.0,-3.0,-2.0,1651087049010230.0,1
219,-5.0,-4.0,-10.0,-12.0,-12.0,-6.0,-3.0,-5.0,1651087049010230.0,1
220,3.0,-16.0,-7.0,16.0,6.0,0.0,1.0,4.0,1651087049023203.0,1
221,12.0,19.0,-10.0,-29.0,-12.0,-5.0,0.0,1.0,1651087049023203.0,1
222,1.0,-6.0,10.0,-2.0,-11.0,-2.0,-2.0,-2.0,1651087049031970.0,1
223,-6.0,23.0,-4.0,-5.0,4.0,-2.0,0.0,3.0,1651087049031970.0,1
224,-8.0,-26.0,-5.0,5.0,-6.0,-4.0,-7.0,-9.0,1651087049046279.0,1
225,-6.0,9.0,0.0,-5.0,5.0,1.0,-1.0,-2.0,1651087049046279.0,1
226,11.0,-9.0,6.0,2.0,8.0,3.0,3.0,3.0,1651087049048239.0,1
227,-12.0,6.0,2.0,-6.0,-11.0,-7.0,-1.0,-5.0,1651087049048239.0,1
228,37.0,21.0,-4.0,3.0,7.0,5.0,7.0,12.0,1651087049069055.0,1
229,-12.0,-28.0,-3.0,8.0,12.0,7.0,-1.0,-3.0,1651087049069055.0,1
230,9.0,-8.0,0.0,-6.0,2.0,-2.0,-4.0,-3.0,1651087049070082.0,1
231,-25.0,-10.0,2.0,6.0,-3.0,2.0,-1.0,-3.0,1651087049070082.0,1
232,-38.0,-14.0,4.0,-10.0,12.0,5.0,3.0,0.0,1651087049083202.0,1
233,14.0,4.0,-18.0,-16.0,-22.0,-14.0,-9.0,-5.0,1651087049083202.0,1
234,-15.0,3.0,-8.0,7.0,8.0,0.0,3.0,2.0,1651087049091396.0,1
235,7.0,2.0,9.0,9.0,13.0,5.0,2.0,2.0,1651087049091396.0,1
236,16.0,25.0,20.0,13.0,14.0,11.0,3.0,3.0,1651087049106422.0,1
237,-10.0,10.0,-4.0,-2.0,-13.0,-5.0,-5.0,-3.0,1651087049106422.0,1
238,-10.0,-21.0,-2.0,-4.0,-1.0,-2.0,-5.0,-9.0,1651087049108285.0,1
239,22.0,35.0,-7.0,-17.0,-5.0,0.0,3.0,6.0,1651087049108285.0,1
240,-23.0,-78.0,-11.0,5.0,-10.0,-6.0,-2.0,-3.0,1651087049129233.0,1
241,-29.0,-23.0,7.0,8.0,12.0,4.0,-2.0,-7.0,1651087049129233.0,1
242,68.0,49.0,-6.0,-13.0,-11.0,-2.0,4.0,12.0,1651087049130236.0,1
243,-2.0,1.0,7.0,17.0,12.0,2.0,-2.0,-6.0,1651087049130236.0,1
244,56.0,40.0,-4.0,3.0,-8.0,-9.0,-9.0,-10.0,1651087049151400.0,1
245,-56.0,-39.0,6.0,14.0,5.0,9.0,10.0,8.0,1651087049151400.0,1
246,-44.0,-71.0,-7.0,-14.0,-18.0,-11.0,-1.0,-8.0,1651087049153236.0,1
247,50.0,59.0,-3.0,4.0,3.0,4.0,-5.0,-1.0,1651087049153236.0,1
248,-1.0,12.0,5.0,-5.0,-5.0,0.0,-2.0,-4.0,1651087049167212.0,1
249,15.0,56.0,-15.0,-1.0,2.0,-5.0,3.0,7.0,1651087049167212.0,1
250,-7.0,-48.0,-10.0,-10.0,-14.0,-5.0,-11.0,4.0,1651087049168073.0,1
251,-7.0,-28.0,2.0,-16.0,-9.0,1.0,-3.0,-4.0,1651087049168073.0,1
252,14.0,28.0,7.0,19.0,10.0,-4.0,-14.0,-14.0,1651087049190983.0,1
253,3.0,21.0,5.0,1.0,-1.0,-1.0,1.0,3.0,1651087049190983.0,1
254,1.0,64.0,-4.0,3.0,11.0,13.0,10.0,13.0,1651087049191829.0,1
255,-29.0,-128.0,6.0,-15.0,-19.0,-16.0,-10.0,-11.0,1651087049191829.0,1
256,22.0,78.0,-10.0,-19.0,21.0,14.0,-4.0,1.0,1651087049212214.0,1
257,1.0,-17.0,26.0,25.0,18.0,10.0,15.0,-4.0,1651087049212214.0,1
258,34.0,67.0,-7.0,11.0,4.0,-8.0,2.0,20.0,1651087049212855.0,1
259,41.0,-6.0,-10.0,17.0,-6.0,1.0,-1.0,15.0,1651087049212855.0,1
260,5.0,-28.0,-13.0,-4.0,11.0,6.0,-2.0,-14.0,1651087049226380.0,1
261,-46.0,16.0,4.0,-9.0,-13.0,-14.0,-3.0,5.0,1651087049226380.0,1
262,41.0,-2.0,-6.0,-17.0,-25.0,-12.0,-44.0,-91.0,1651087049233188.0,1
263,-9.0,61.0,8.0,0.0,12.0,3.0,6.0,74.0,1651087049233188.0,1
264,-76.0,-27.0,0.0,-35.0,-60.0,-24.0,7.0,45.0,1651087049249253.0,1
265,16.0,76.0,33.0,45.0,95.0,46.0,12.0,-65.0,1651087049249253.0,1
266,-82.0,-90.0,5.0,15.0,28.0,3.0,12.0,66.0,1651087049250253.0,1
267,18.0,7.0,-30.0,12.0,3.0,10.0,24.0,-6.0,1651087049250253.0,1
268,6.0,-44.0,-19.0,-49.0,-54.0,-36.0,-33.0,-53.0,1651087049271485.0,1
269,-44.0,-8.0,0.0,11.0,24.0,19.0,-3.0,43.0,1651087049271485.0,1
270,-21.0,69.0,25.0,-4.0,-6.0,-1.0,-7.0,-51.0,1651087049272472.0,1
271,-18.0,-27.0,-15.0,-22.0,-23.0,-7.0,42.0,-13.0,1651087049272472.0,1
272,-55.0,-55.0,9.0,54.0,41.0,20.0,-4.0,48.0,1651087049286564.0,1
273,48.0,54.0,16.0,-1.0,5.0,17.0,39.0,-7.0,1651087049286564.0,1
274,22.0,-71.0,-14.0,-17.0,-21.0,-26.0,-21.0,-30.0,1651087049293226.0,1
275,-35.0,-12.0,14.0,23.0,28.0,12.0,-33.0,6.0,1651087049293226.0,1
276,2.0,65.0,10.0,16.0,2.0,-5.0,15.0,-5.0,1651087049309255.0,1
277,45.0,-39.0,-14.0,-31.0,-61.0,-28.0,-8.0,23.0,1651087049309255.0,1
278,-9.0,20.0,9.0,12.0,36.0,14.0,6.0,11.0,1651087049310256.0,1
279,-20.0,-1.0,13.0,8.0,9.0,-7.0,-18.0,-39.0,1651087049310256.0,1
280,14.0,2.0,-19.0,-12.0,-22.0,-1.0,-6.0,-10.0,1651087049331795.0,1
281,101.0,34.0,5.0,8.0,9.0,-7.0,-11.0,16.0,1651087049331795.0,1
282,-97.0,-58.0,-3.0,-5.0,-5.0,19.0,44.0,42.0,1651087049332796.0,1
283,-79.0,107.0,-12.0,6.0,-25.0,-13.0,-8.0,-5.0,1651087049332796.0,1
284,93.0,6.0,7.0,-17.0,0.0,4.0,14.0,10.0,1651087049345388.0,1
285,-50.0,-24.0,-4.0,7.0,22.0,-5.0,-9.0,-9.0,1651087049345388.0,1
286,23.0,28.0,-7.0,6.0,-8.0,-3.0,-6.0,-15.0,1651087049354414.0,1
287,33.0,-43.0,-8.0,-30.0,-14.0,-7.0,-20.0,-23.0,1651087049354414.0,1
288,-16.0,3.0,1.0,6.0,10.0,9.0,56.0,61.0,1651087049369246.0,1
289,-46.0,-5.0,-8.0,-29.0,-46.0,-18.0,-37.0,-31.0,1651087049369246.0,1
290,27.0,-18.0,-7.0,-14.0,-7.0,-4.0,-5.0,19.0,1651087049370248.0,1
291,-18.0,-33.0,0.0,12.0,41.0,17.0,6.0,-15.0,1651087049370248.0,1
292,12.0,-28.0,-3.0,-7.0,-15.0,-10.0,-17.0,-32.0,1651087049391649.0,1
293,13.0,-23.0,12.0,8.0,10.0,9.0,-4.0,16.0,1651087049391649.0,1
294,83.0,89.0,13.0,5.0,-2.0,-5.0,3.0,-15.0,1651087049392649.0,1
295,-18.0,-29.0,-2.0,-12.0,-4.0,-1.0,22.0,38.0,1651087049392649.0,1
296,-26.0,55.0,-15.0,6.0,1.0,-5.0,-30.0,-33.0,1651087049405369.0,1
297,-44.0,-105.0,-27.0,-25.0,-19.0,-8.0,32.0,17.0,1651087049405369.0,1
298,48.0,34.0,-6.0,18.0,4.0,6.0,-25.0,7.0,1651087049413850.0,1
299,-92.0,-84.0,-1.0,1.0,12.0,3.0,3.0,-37.0,1651087049413850.0,1
300,43.0,32.0,6.0,14.0,8.0,0.0,-3.0,1.0,1651087049429003.0,1
301,7.0,-60.0,9.0,9.0,2.0,-2.0,-14.0,-21.0,1651087049429003.0,1
302,-43.0,30.0,4.0,21.0,-13.0,-2.0,-2.0,6.0,1651087049430003.0,1
303,85.0,23.0,5.0,-41.0,-6.0,0.0,15.0,9.0,1651087049430003.0,1
304,-65.0,-86.0,12.0,30.0,20.0,14.0,-14.0,-23.0,1651087049451780.0,1
305,23.0,24.0,-23.0,15.0,18.0,1.0,22.0,34.0,1651087049451780.0,1
306,-32.0,-24.0,1.0,-21.0,-20.0,-14.0,-13.0,-7.0,1651087049452652.0,1
307,12.0,27.0,-9.0,2.0,23.0,4.0,-3.0,-20.0,1651087049452652.0,1
308,-19.0,0.0,10.0,4.0,0.0,5.0,16.0,13.0,1651087049466188.0,1
309,-67.0,-38.0,-16.0,-6.0,-11.0,-13.0,-10.0,10.0,1651087049466188.0,1
310,71.0,-4.0,-1.0,7.0,25.0,17.0,30.0,18.0,1651087049472822.0,1
311,36.0,27.0,15.0,-10.0,-28.0,-8.0,-2.0,19.0,1651087049472822.0,1
312,72.0,89.0,9.0,4.0,36.0,14.0,-7.0,6.0,1651087049489257.0,1
313,3.0,-40.0,1.0,-23.0,-21.0,-7.0,2.0,-20.0,1651087049489257.0,1
314,24.0,50.0,8.0,11.0,15.0,7.0,2.0,-23.0,1651087049490260.0,1
315,-53.0,-29.0,8.0,6.0,1.0,4.0,-20.0,-17.0,1651087049490260.0,1
316,2.0,35.0,-23.0,-13.0,-19.0,-6.0,29.0,33.0,1651087049519050.0,1
317,84.0,98.0,28.0,22.0,15.0,-1.0,-30.0,-11.0,1651087049519050.0,1
318,-48.0,-68.0,-16.0,-19.0,-3.0,0.0,-11.0,-26.0,1651087049520071.0,1
319,-24.0,10.0,8.0,13.0,7.0,6.0,-9.0,8.0,1651087049520071.0,1
320,63.0,14.0,-8.0,5.0,-24.0,-20.0,4.0,-17.0,1651087049526185.0,1
321,77.0,65.0,-2.0,10.0,34.0,8.0,10.0,47.0,1651087049526185.0,1
322,-88.0,-13.0,-10.0,-30.0,-15.0,4.0,11.0,-3.0,1651087049533115.0,1
323,41.0,2.0,-2.0,4.0,4.0,-13.0,-53.0,-41.0,1651087049533115.0,1
324,33.0,7.0,-7.0,-13.0,5.0,9.0,43.0,53.0,1651087049549364.0,1
325,-5.0,83.0,14.0,50.0,19.0,12.0,4.0,-24.0,1651087049549364.0,1
326,-1.0,-91.0,-1.0,-32.0,-45.0,-22.0,10.0,-6.0,1651087049550205.0,1
327,21.0,5.0,-10.0,20.0,19.0,8.0,-14.0,7.0,1651087049550205.0,1
328,-11.0,33.0,-3.0,-18.0,-2.0,-3.0,-8.0,-14.0,1651087049572392.0,1
329,-105.0,-94.0,-18.0,-31.0,-35.0,-10.0,-17.0,-55.0,1651087049572392.0,1
330,86.0,127.0,29.0,35.0,33.0,18.0,35.0,79.0,1651087049573062.0,1
331,-33.0,-78.0,-50.0,-26.0,-28.0,-15.0,0.0,-37.0,1651087049573062.0,1
332,9.0,13.0,20.0,19.0,8.0,1.0,-4.0,1.0,1651087049586031.0,1
333,-100.0,-34.0,-5.0,-27.0,-28.0,-13.0,-38.0,-57.0,1651087049586031.0,1
334,54.0,118.0,9.0,17.0,10.0,2.0,15.0,28.0,1651087049593166.0,1
335,30.0,-73.0,4.0,3.0,3.0,2.0,14.0,23.0,1651087049593166.0,1
336,-23.0,13.0,6.0,-10.0,-3.0,-8.0,2.0,-20.0,1651087049609235.0,1
337,3.0,-15.0,1.0,6.0,-30.0,-8.0,1.0,3.0,1651087049609235.0,1
338,25.0,-14.0,-3.0,2.0,17.0,8.0,-8.0,-8.0,1651087049610235.0,1
339,-22.0,15.0,7.0,8.0,10.0,12.0,15.0,28.0,1651087049610235.0,1
340,-70.0,-16.0,-2.0,-20.0,-33.0,-22.0,-67.0,-61.0,1651087049631793.0,1
341,-15.0,-18.0,-10.0,0.0,4.0,1.0,52.0,75.0,1651087049631793.0,1
342,-3.0,8.0,2.0,9.0,-6.0,-10.0,-32.0,-39.0,1651087049632794.0,1
343,-4.0,50.0,9.0,-19.0,-19.0,-6.0,20.0,6.0,1651087049632794.0,1
344,-58.0,-62.0,-5.0,21.0,24.0,6.0,4.0,-17.0,1651087049645384.0,1
345,79.0,120.0,-3.0,-20.0,-3.0,4.0,-8.0,31.0,1651087049645384.0,1
346,-63.0,-60.0,-8.0,-14.0,-28.0,-16.0,-1.0,-10.0,1651087049654020.0,1
347,32.0,16.0,6.0,19.0,35.0,16.0,3.0,16.0,1651087049654020.0,1
348,65.0,-13.0,8.0,-11.0,-1.0,10.0,18.0,10.0,1651087049669051.0,1
349,28.0,-17.0,0.0,15.0,9.0,-2.0,-6.0,-7.0,1651087049669051.0,1
350,-51.0,-32.0,7.0,12.0,12.0,-2.0,-17.0,-39.0,1651087049670048.0,1
351,-9.0,83.0,7.0,-13.0,-24.0,-5.0,14.0,13.0,1651087049670048.0,1
352,-27.0,-68.0,-7.0,9.0,-4.0,0.0,30.0,49.0,1651087049692308.0,1
353,60.0,24.0,-3.0,-3.0,14.0,12.0,-8.0,0.0,1651087049692308.0,1
354,9.0,-56.0,16.0,-12.0,-10.0,-1.0,0.0,-7.0,1651087049693092.0,1
355,-78.0,14.0,2.0,14.0,-22.0,-13.0,-20.0,-28.0,1651087049693092.0,1
356,-16.0,-38.0,15.0,6.0,15.0,7.0,5.0,20.0,1651087049705230.0,1
357,-23.0,50.0,-8.0,-8.0,1.0,9.0,28.0,11.0,1651087049705230.0,1
358,-15.0,-67.0,-14.0,-11.0,-3.0,-9.0,-35.0,-2.0,1651087049714063.0,1
359,107.0,82.0,-2.0,10.0,-19.0,0.0,35.0,25.0,1651087049714063.0,1
360,-69.0,8.0,-6.0,17.0,37.0,8.0,-15.0,-21.0,1651087049729242.0,1
361,-101.0,-56.0,-3.0,-37.0,-30.0,-15.0,-33.0,-18.0,1651087049729242.0,1
362,73.0,31.0,-18.0,39.0,33.0,13.0,27.0,23.0,1651087049731273.0,1
363,44.0,-24.0,14.0,18.0,-8.0,-8.0,-48.0,-30.0,1651087049731273.0,1
364,5.0,45.0,14.0,-33.0,-31.0,0.0,61.0,36.0,1651087049751350.0,1
365,36.0,-37.0,-33.0,-14.0,1.0,-16.0,-58.0,-52.0,1651087049751350.0,1
366,-12.0,117.0,4.0,27.0,44.0,17.0,33.0,39.0,1651087049753234.0,1
367,-82.0,-111.0,7.0,-16.0,-23.0,-12.0,-25.0,-5.0,1651087049753234.0,1
368,8.0,27.0,-4.0,16.0,14.0,10.0,7.0,-41.0,1651087049765316.0,1
369,13.0,-25.0,-27.0,-22.0,-21.0,-6.0,11.0,26.0,1651087049765316.0,1
370,-86.0,6.0,21.0,0.0,6.0,6.0,-26.0,-19.0,1651087049774147.0,1
371,14.0,-46.0,-18.0,-20.0,-6.0,-2.0,52.0,2.0,1651087049774147.0,1
372,-77.0,-69.0,13.0,22.0,36.0,3.0,-34.0,0.0,1651087049796420.0,1
373,116.0,44.0,23.0,3.0,-33.0,-4.0,14.0,26.0,1651087049796420.0,1
374,-46.0,-8.0,-12.0,1.0,25.0,12.0,9.0,16.0,1651087049797417.0,1
375,22.0,76.0,11.0,11.0,23.0,13.0,18.0,-20.0,1651087049797417.0,1
376,14.0,-63.0,-21.0,-12.0,-32.0,-14.0,-16.0,27.0,1651087049811795.0,1
377,-23.0,-40.0,-2.0,10.0,34.0,22.0,30.0,-16.0,1651087049811795.0,1
378,46.0,36.0,-11.0,2.0,-13.0,-13.0,-28.0,-10.0,1651087049812798.0,1
379,24.0,70.0,39.0,1.0,1.0,4.0,-5.0,25.0,1651087049812798.0,1
380,-27.0,-15.0,-76.0,-60.0,-48.0,-23.0,-14.0,-7.0,1651087049824767.0,1
381,12.0,92.0,65.0,74.0,63.0,24.0,24.0,17.0,1651087049824767.0,1
382,-57.0,-128.0,-29.0,-17.0,-8.0,0.0,-3.0,-24.0,1651087049834212.0,1
383,-10.0,40.0,-5.0,-11.0,-1.0,-11.0,-12.0,-14.0,1651087049834212.0,1
384,36.0,119.0,45.0,-36.0,-24.0,-1.0,-26.0,-33.0,1651087049849215.0,1
385,-4.0,-99.0,-32.0,31.0,13.0,-2.0,16.0,11.0,1651087049849215.0,1
386,-6.0,20.0,-11.0,-18.0,-16.0,1.0,-3.0,-32.0,1651087049850215.0,1
387,32.0,45.0,5.0,-2.0,10.0,3.0,23.0,75.0,1651087049850215.0,1
388,9.0,-72.0,-13.0,9.0,-9.0,-2.0,7.0,-11.0,1651087049871738.0,1
389,13.0,52.0,-4.0,-27.0,-23.0,-19.0,-61.0,-31.0,1651087049871738.0,1
390,38.0,111.0,37.0,18.0,20.0,15.0,82.0,16.0,1651087049872739.0,1
391,-28.0,-41.0,-10.0,-7.0,-11.0,-6.0,-28.0,2.0,1651087049872739.0,1
392,36.0,-9.0,-2.0,32.0,15.0,2.0,6.0,16.0,1651087049885202.0,1
393,-37.0,2.0,8.0,-35.0,-42.0,-16.0,-40.0,-47.0,1651087049885202.0,1
394,-3.0,-66.0,-16.0,21.0,18.0,-4.0,36.0,62.0,1651087049894210.0,1
395,6.0,67.0,1.0,-13.0,-4.0,-4.0,-16.0,-25.0,1651087049894210.0,1
396,89.0,-53.0,-24.0,-9.0,0.0,11.0,0.0,16.0,1651087049909215.0,1
397,-58.0,95.0,14.0,-16.0,-22.0,-10.0,57.0,-18.0,1651087049909215.0,1
398,-11.0,-67.0,-16.0,-23.0,-29.0,-13.0,-17.0,27.0,1651087049910216.0,1
399,60.0,100.0,22.0,8.0,14.0,13.0,5.0,-38.0,1651087049910216.0,1
400,-59.0,0.0,5.0,34.0,33.0,5.0,-4.0,12.0,1651087049931394.0,1
401,45.0,-50.0,-5.0,-8.0,-5.0,-6.0,-17.0,-3.0,1651087049931394.0,1
402,-8.0,1.0,11.0,-15.0,-41.0,-13.0,-12.0,-21.0,1651087049932422.0,1
403,-34.0,-35.0,-21.0,10.0,12.0,10.0,35.0,43.0,1651087049932422.0,1
404,29.0,97.0,14.0,-14.0,-17.0,-5.0,-33.0,-41.0,1651087049945485.0,1
405,-15.0,-88.0,-22.0,19.0,14.0,-4.0,-23.0,1.0,1651087049945485.0,1
406,-21.0,-10.0,7.0,-3.0,16.0,5.0,10.0,2.0,1651087049954742.0,1
407,-27.0,-8.0,-13.0,-10.0,-11.0,-4.0,-26.0,-13.0,1651087049954742.0,1
408,40.0,-50.0,-7.0,9.0,33.0,3.0,1.0,-11.0,1651087049969074.0,1
409,25.0,13.0,10.0,-11.0,-37.0,-8.0,-1.0,-9.0,1651087049969074.0,1
410,-48.0,46.0,7.0,2.0,17.0,11.0,-2.0,21.0,1651087049970047.0,1
411,-1.0,-42.0,2.0,-9.0,11.0,1.0,6.0,5.0,1651087049970047.0,1
412,-67.0,40.0,5.0,-7.0,-7.0,0.0,-6.0,-39.0,1651087049992486.0,1
413,-30.0,9.0,-8.0,-6.0,5.0,-1.0,11.0,55.0,1651087049992486.0,1
414,15.0,-37.0,-2.0,-3.0,-16.0,-11.0,-7.0,-4.0,1651087049993075.0,1
415,34.0,18.0,-25.0,-32.0,-15.0,-12.0,-44.0,-68.0,1651087049993075.0,1
416,-106.0,0.0,21.0,54.0,22.0,3.0,24.0,41.0,1651087050005213.0,1
417,92.0,46.0,16.0,1.0,-3.0,2.0,-14.0,-19.0,1651087050005213.0,1
418,16.0,2.0,-1.0,-17.0,-23.0,-11.0,-5.0,2.0,1651087050014065.0,1
419,-25.0,-77.0,-25.0,17.0,23.0,10.0,10.0,2.0,1651087050014065.0,1
420,74.0,46.0,44.0,-1.0,-13.0,-2.0,-29.0,-6.0,1651087050029241.0,1
421,-82.0,2.0,-21.0,-44.0,-21.0,-4.0,14.0,-22.0,1651087050029241.0,1
422,34.0,8.0,-10.0,44.0,26.0,7.0,-6.0,-27.0,1651087050030242.0,1
423,-59.0,32.0,0.0,10.0,-6.0,-4.0,1.0,36.0,1651087050030242.0,1
424,46.0,89.0,0.0,-21.0,-10.0,-3.0,50.0,19.0,1651087050051851.0,1
425,3.0,-79.0,8.0,6.0,6.0,-2.0,2.0,24.0,1651087050051851.0,1
426,-63.0,-32.0,-18.0,-15.0,2.0,2.0,-42.0,-39.0,1651087050052851.0,1
427,-11.0,-97.0,-5.0,-4.0,-17.0,-4.0,15.0,-32.0,1651087050052851.0,1
428,37.0,86.0,19.0,31.0,24.0,10.0,-13.0,31.0,1651087050074276.0,1
429,-1.0,8.0,-16.0,-24.0,-7.0,4.0,32.0,36.0,1651087050074276.0,1
430,6.0,9.0,-15.0,9.0,-5.0,-1.0,-2.0,-10.0,1651087050075161.0,1
431,-33.0,63.0,23.0,7.0,23.0,7.0,-6.0,-9.0,1651087050075161.0,1
432,-31.0,-86.0,9.0,5.0,-14.0,-7.0,5.0,-5.0,1651087050088396.0,1
433,-15.0,-23.0,-6.0,0.0,-3.0,3.0,-12.0,-30.0,1651087050088396.0,1
434,15.0,57.0,5.0,-16.0,-45.0,-22.0,-19.0,-2.0,1651087050090485.0,1
435,-56.0,-25.0,-6.0,23.0,42.0,18.0,19.0,37.0,1651087050090485.0,1
436,3.0,-76.0,-30.0,-21.0,0.0,-9.0,-22.0,-15.0,1651087050112874.0,1
437,-37.0,37.0,29.0,38.0,19.0,8.0,27.0,10.0,1651087050112874.0,1
438,-2.0,-8.0,1.0,-20.0,0.0,-1.0,-25.0,-14.0,1651087050113062.0,1
439,53.0,-9.0,-13.0,-16.0,-30.0,-10.0,-3.0,-35.0,1651087050113062.0,1
440,-32.0,25.0,-13.0,15.0,22.0,13.0,12.0,50.0,1651087050134350.0,1
441,7.0,5.0,6.0,20.0,14.0,9.0,19.0,8.0,1651087050134350.0,1
442,27.0,44.0,21.0,-2.0,-9.0,-7.0,-41.0,-32.0,1651087050135213.0,1
443,49.0,-46.0,5.0,-8.0,-15.0,-6.0,46.0,24.0,1651087050135213.0,1
444,-39.0,-20.0,-29.0,-23.0,-17.0,1.0,1.0,6.0,1651087050149345.0,1
445,-41.0,9.0,-11.0,4.0,7.0,-5.0,-15.0,-22.0,1651087050149345.0,1
446,58.0,71.0,21.0,17.0,3.0,7.0,17.0,30.0,1651087050150212.0,1
447,26.0,18.0,8.0,-27.0,-33.0,-9.0,-16.0,-5.0,1651087050150212.0,1
448,16.0,-24.0,-4.0,10.0,35.0,9.0,-9.0,-23.0,1651087050172311.0,1
449,-49.0,-37.0,17.0,8.0,-2.0,-1.0,-24.0,-2.0,1651087050172311.0,1
450,32.0,28.0,-20.0,-19.0,-12.0,-2.0,27.0,-5.0,1651087050173060.0,1
451,-22.0,-98.0,18.0,13.0,17.0,5.0,-42.0,-5.0,1651087050173060.0,1
452,22.0,68.0,8.0,14.0,-11.0,-4.0,59.0,73.0,1651087050194321.0,1
453,62.0,46.0,7.0,12.0,-7.0,-2.0,-17.0,-1.0,1651087050194321.0,1
454,-64.0,-38.0,-15.0,-8.0,6.0,-2.0,-4.0,-11.0,1651087050195233.0,1
455,37.0,56.0,21.0,-6.0,9.0,5.0,15.0,20.0,1651087050195233.0,1
456,-54.0,-18.0,-5.0,-1.0,-11.0,-4.0,-42.0,-65.0,1651087050209245.0,1
457,-16.0,93.0,-5.0,-12.0,16.0,14.0,32.0,39.0,1651087050209245.0,1
458,-95.0,-108.0,-5.0,22.0,1.0,-18.0,-17.0,-1.0,1651087050210278.0,1
459,45.0,79.0,-18.0,22.0,-4.0,-7.0,-17.0,-34.0,1651087050210278.0,1
460,15.0,15.0,-2.0,-23.0,-6.0,2.0,-33.0,-1.0,1651087050232367.0,1
461,-40.0,-78.0,-3.0,5.0,-13.0,0.0,26.0,4.0,1651087050232367.0,1
462,3.0,3.0,3.0,-2.0,11.0,13.0,13.0,28.0,1651087050233059.0,1
463,7.0,51.0,5.0,7.0,12.0,-3.0,-11.0,-2.0,1651087050233059.0,1
464,38.0,-4.0,15.0,0.0,2.0,-4.0,16.0,-14.0,1651087050254035.0,1
465,-28.0,22.0,-15.0,-34.0,-25.0,-6.0,-20.0,-13.0,1651087050254035.0,1
466,28.0,3.0,19.0,12.0,12.0,9.0,8.0,21.0,1651087050255065.0,1
467,-26.0,-45.0,6.0,26.0,-1.0,1.0,20.0,5.0,1651087050255065.0,1
468,33.0,23.0,-6.0,-31.0,-7.0,0.0,-2.0,-1.0,1651087050269187.0,1
469,47.0,83.0,5.0,9.0,9.0,1.0,10.0,-7.0,1651087050269187.0,1
470,-40.0,-2.0,-2.0,-4.0,9.0,2.0,-24.0,-12.0,1651087050270188.0,1
471,-24.0,-19.0,-36.0,-28.0,-9.0,-7.0,-24.0,-14.0,1651087050270188.0,1
472,-54.0,10.0,13.0,34.0,6.0,3.0,85.0,47.0,1651087050291355.0,1
473,71.0,12.0,8.0,-1.0,-4.0,-5.0,-12.0,6.0,1651087050291355.0,1
474,-12.0,103.0,5.0,0.0,22.0,10.0,-25.0,-28.0,1651087050297853.0,1
475,37.0,-49.0,-8.0,1.0,-14.0,-5.0,33.0,41.0,1651087050297853.0,1
476,-14.0,93.0,0.0,-18.0,-13.0,-10.0,-51.0,-41.0,1651087050314183.0,1
477,-6.0,-61.0,0.0,4.0,2.0,3.0,9.0,-2.0,1651087050314183.0,1
478,-3.0,-7.0,5.0,6.0,4.0,2.0,4.0,-5.0,1651087050315085.0,1
479,-116.0,48.0,-22.0,-3.0,13.0,5.0,32.0,2.0,1651087050315085.0,1
480,-9.0,-26.0,34.0,5.0,-7.0,-10.0,-48.0,-48.0,1651087050328237.0,1
481,56.0,-26.0,-27.0,16.0,15.0,-2.0,-3.0,-35.0,1651087050328237.0,1
482,3.0,-63.0,-28.0,-27.0,-26.0,-9.0,30.0,65.0,1651087050335365.0,1
483,3.0,-27.0,15.0,3.0,20.0,12.0,-24.0,10.0,1651087050335365.0,1
484,-24.0,-28.0,4.0,18.0,15.0,9.0,10.0,-24.0,1651087050351963.0,1
485,48.0,10.0,3.0,-19.0,-9.0,-5.0,-16.0,4.0,1651087050351963.0,1
486,11.0,51.0,10.0,5.0,3.0,-3.0,-5.0,-26.0,1651087050353001.0,1
487,55.0,-35.0,-12.0,-20.0,-26.0,-17.0,-26.0,-18.0,1651087050353001.0,1
488,-67.0,-128.0,-22.0,-11.0,-2.0,-1.0,15.0,18.0,1651087050374320.0,1
489,13.0,16.0,7.0,-7.0,6.0,-3.0,-10.0,-3.0,1651087050374320.0,1
490,0.0,3.0,2.0,12.0,-3.0,3.0,-1.0,2.0,1651087050375202.0,1
491,39.0,13.0,12.0,4.0,-2.0,-2.0,-12.0,-1.0,1651087050375202.0,1
492,-1.0,0.0,-12.0,-14.0,-16.0,-4.0,13.0,-26.0,1651087050389214.0,1
493,0.0,-16.0,-1.0,4.0,-20.0,-10.0,-7.0,8.0,1651087050389214.0,1
494,78.0,24.0,-9.0,-3.0,15.0,10.0,22.0,34.0,1651087050395342.0,1
495,-41.0,9.0,19.0,4.0,-15.0,-6.0,1.0,-41.0,1651087050395342.0,1
496,46.0,38.0,4.0,13.0,29.0,12.0,11.0,43.0,1651087050412307.0,1
497,-22.0,-30.0,-12.0,7.0,-3.0,-6.0,-34.0,-26.0,1651087050412307.0,1
498,47.0,27.0,3.0,-12.0,-16.0,2.0,35.0,15.0,1651087050413201.0,1
499,10.0,-20.0,8.0,6.0,5.0,-1.0,-13.0,0.0,1651087050413201.0,1
500,-9.0,-11.0,-20.0,-19.0,-19.0,-8.0,-17.0,-27.0,1651087050434314.0,1
501,-55.0,1.0,7.0,-3.0,11.0,3.0,14.0,33.0,1651087050434314.0,1
502,69.0,4.0,-5.0,-14.0,-5.0,-4.0,-6.0,-17.0,1651087050435195.0,1
503,-4.0,32.0,-1.0,15.0,6.0,0.0,8.0,11.0,1651087050435195.0,1
504,2.0,58.0,22.0,7.0,-12.0,0.0,-10.0,-14.0,1651087050448708.0,1
505,-54.0,-85.0,-22.0,-12.0,4.0,-4.0,9.0,15.0,1651087050448708.0,1
506,-28.0,-18.0,0.0,0.0,-2.0,-1.0,20.0,11.0,1651087050455188.0,1
507,7.0,16.0,-8.0,1.0,3.0,4.0,-12.0,1.0,1651087050455188.0,1
508,5.0,-17.0,-3.0,-29.0,-5.0,-1.0,15.0,1.0,1651087050471481.0,1
509,7.0,22.0,20.0,29.0,-1.0,-3.0,-16.0,-9.0,1651087050471481.0,1
510,-6.0,5.0,-7.0,-7.0,-5.0,-1.0,-4.0,-12.0,1651087050472491.0,1
511,-11.0,-30.0,-12.0,-1.0,-1.0,2.0,20.0,33.0,1651087050472491.0,1
512,33.0,-3.0,-2.0,5.0,7.0,5.0,-16.0,-15.0,1651087050494344.0,1
513,1.0,19.0,10.0,-1.0,5.0,0.0,8.0,0.0,1651087050494344.0,1
514,-4.0,-8.0,-2.0,-12.0,-13.0,-5.0,-9.0,-12.0,1651087050495223.0,1
515,2.0,8.0,9.0,11.0,6.0,-2.0,-12.0,-4.0,1651087050495223.0,1
516,3.0,-9.0,-7.0,-5.0,-1.0,1.0,12.0,10.0,1651087050509229.0,1
517,17.0,5.0,-4.0,-5.0,2.0,-31.0,-11.0,-3.0,1651087050509229.0,1
518,-16.0,-16.0,6.0,5.0,14.0,74.0,41.0,8.0,1651087050515378.0,1
519,0.0,5.0,3.0,-3.0,-4.0,-21.0,-12.0,17.0,1651087050515378.0,1
520,1.0,1.0,-3.0,4.0,2.0,24.0,-10.0,-26.0,1651087050531816.0,1
521,5.0,8.0,2.0,-6.0,-1.0,22.0,24.0,10.0,1651087050531816.0,1
522,1.0,-5.0,-4.0,3.0,6.0,-13.0,-9.0,-9.0,1651087050532816.0,1
523,-3.0,6.0,7.0,7.0,5.0,-7.0,3.0,9.0,1651087050532816.0,1
524,13.0,5.0,-11.0,-9.0,-9.0,-7.0,-2.0,25.0,1651087050554277.0,1
525,0.0,4.0,24.0,16.0,3.0,-4.0,-5.0,-19.0,1651087050554277.0,1
526,-11.0,-6.0,-12.0,-7.0,-3.0,-12.0,-5.0,8.0,1651087050555221.0,1
527,-1.0,-1.0,-13.0,-2.0,-3.0,3.0,7.0,-9.0,1651087050555221.0,1
528,24.0,-1.0,-4.0,-10.0,-13.0,-22.0,-1.0,33.0,1651087050569213.0,1
529,-18.0,-3.0,0.0,-1.0,4.0,-2.0,-12.0,-61.0,1651087050569213.0,1
530,16.0,-6.0,9.0,14.0,-3.0,7.0,-12.0,1.0,1651087050575201.0,1
531,10.0,12.0,-5.0,-7.0,2.0,-25.0,-10.0,-2.0,1651087050575201.0,1
532,-17.0,-6.0,-8.0,-15.0,-5.0,19.0,10.0,-6.0,1651087050592479.0,1
533,5.0,1.0,2.0,4.0,1.0,1.0,11.0,7.0,1651087050592479.0,1
534,-10.0,0.0,1.0,11.0,-2.0,2.0,2.0,-4.0,1651087050593091.0,1
535,18.0,3.0,13.0,17.0,7.0,13.0,5.0,0.0,1651087050593091.0,1
536,5.0,17.0,-2.0,-8.0,-5.0,-13.0,-9.0,-2.0,1651087050614195.0,1
537,4.0,4.0,-29.0,-14.0,-4.0,5.0,-1.0,17.0,1651087050614195.0,1
538,-26.0,11.0,-15.0,-13.0,-4.0,-27.0,-14.0,-15.0,1651087050615081.0,1
539,-8.0,3.0,8.0,-20.0,-8.0,8.0,7.0,-7.0,1651087050615081.0,1
540,-2.0,-10.0,18.0,8.0,-2.0,-8.0,-11.0,-10.0,1651087050627960.0,1
541,-5.0,-8.0,-6.0,-4.0,8.0,9.0,5.0,21.0,1651087050627960.0,1
542,-10.0,-19.0,5.0,17.0,-5.0,-13.0,-8.0,-1.0,1651087050636940.0,1
543,5.0,0.0,9.0,-7.0,-3.0,1.0,1.0,7.0,1651087050636940.0,1
544,-2.0,-15.0,-20.0,-14.0,2.0,6.0,0.0,-15.0,1651087050651251.0,1
545,-3.0,0.0,16.0,16.0,2.0,5.0,3.0,4.0,1651087050651251.0,1
546,5.0,-9.0,-13.0,-20.0,-2.0,-3.0,-2.0,20.0,1651087050653280.0,1
547,16.0,1.0,5.0,20.0,2.0,-3.0,3.0,5.0,1651087050653280.0,1
548,-30.0,-4.0,15.0,4.0,2.0,-9.0,0.0,-8.0,1651087050674324.0,1
549,3.0,-6.0,-13.0,5.0,2.0,5.0,5.0,-1.0,1651087050674324.0,1
550,14.0,1.0,18.0,-1.0,-4.0,-10.0,0.0,-5.0,1651087050675252.0,1
551,-23.0,2.0,-2.0,-9.0,-10.0,7.0,2.0,-19.0,1651087050675252.0,1
552,23.0,-1.0,-10.0,3.0,1.0,-11.0,-8.0,41.0,1651087050687803.0,1
553,3.0,4.0,-12.0,6.0,5.0,7.0,2.0,-15.0,1651087050687803.0,1
554,-7.0,-3.0,-7.0,0.0,4.0,-2.0,-2.0,-7.0,1651087050696780.0,1
555,1.0,0.0,-12.0,-16.0,-8.0,-1.0,-5.0,-4.0,1651087050696780.0,1
556,3.0,6.0,15.0,12.0,3.0,0.0,-1.0,-9.0,1651087050712233.0,1
557,-5.0,-2.0,10.0,-9.0,-9.0,-6.0,-4.0,4.0,1651087050712233.0,1
558,3.0,-4.0,0.0,16.0,3.0,-6.0,-4.0,9.0,1651087050712955.0,1
559,1.0,-5.0,2.0,-17.0,-3.0,1.0,3.0,4.0,1651087050712955.0,1
560,-4.0,1.0,-15.0,8.0,5.0,6.0,0.0,-17.0,1651087050734386.0,1
561,5.0,-4.0,-15.0,-14.0,-6.0,-6.0,0.0,19.0,1651087050734386.0,1
562,-8.0,-6.0,14.0,6.0,-1.0,-3.0,-4.0,-19.0,1651087050735233.0,1
563,-4.0,4.0,-4.0,3.0,9.0,8.0,2.0,5.0,1651087050735233.0,1
564,12.0,1.0,33.0,12.0,-2.0,-8.0,-6.0,-7.0,1651087050747832.0,1
565,-3.0,1.0,-23.0,-6.0,4.0,10.0,9.0,11.0,1651087050747832.0,1
566,-5.0,2.0,25.0,0.0,0.0,-3.0,-3.0,-3.0,1651087050756337.0,1
567,-11.0,5.0,22.0,20.0,8.0,5.0,-1.0,-32.0,1651087050756337.0,1
568,10.0,-4.0,-15.0,-4.0,-3.0,-2.0,6.0,32.0,1651087050772422.0,1
569,-5.0,-4.0,-25.0,-17.0,-5.0,-6.0,-13.0,-12.0,1651087050772422.0,1
570,6.0,2.0,2.0,-6.0,-3.0,11.0,4.0,-10.0,1651087050773313.0,1
571,-7.0,2.0,-6.0,6.0,-2.0,-3.0,2.0,3.0,1651087050773313.0,1
572,7.0,-1.0,8.0,-1.0,2.0,2.0,6.0,4.0,1651087050795377.0,1
573,-15.0,-1.0,-3.0,0.0,3.0,-4.0,-3.0,12.0,1651087050795377.0,1
574,13.0,2.0,23.0,18.0,5.0,2.0,3.0,0.0,1651087050796218.0,1
575,11.0,0.0,-4.0,-4.0,-5.0,-6.0,-7.0,-1.0,1651087050796218.0,1
576,-4.0,-1.0,-23.0,-10.0,-2.0,-7.0,-2.0,5.0,1651087050808175.0,1
577,-3.0,-1.0,26.0,4.0,-1.0,16.0,9.0,-16.0,1651087050808175.0,1
578,-7.0,-4.0,-10.0,-19.0,-4.0,-7.0,-3.0,5.0,1651087050824233.0,1
579,1.0,3.0,-12.0,18.0,7.0,7.0,5.0,-4.0,1651087050824233.0,1
580,-3.0,-2.0,-10.0,-7.0,-5.0,-2.0,-2.0,-4.0,1651087050832262.0,1
581,3.0,4.0,15.0,-5.0,-1.0,-4.0,-1.0,3.0,1651087050832262.0,1
582,-6.0,-3.0,-9.0,-4.0,2.0,-3.0,-2.0,-3.0,1651087050833229.0,1
583,-3.0,-2.0,11.0,4.0,-1.0,3.0,3.0,0.0,1651087050833229.0,1
584,-6.0,7.0,2.0,6.0,1.0,1.0,2.0,-7.0,1651087050854391.0,1
585,-3.0,-2.0,-4.0,7.0,-1.0,-4.0,-2.0,0.0,1651087050854391.0,1
586,-3.0,-8.0,-5.0,-4.0,-5.0,0.0,-1.0,-6.0,1651087050855237.0,1
587,0.0,-2.0,-33.0,-29.0,-4.0,-2.0,2.0,15.0,1651087050855237.0,1
588,-4.0,-7.0,14.0,22.0,7.0,2.0,-5.0,-11.0,1651087050868344.0,1
589,13.0,8.0,11.0,-9.0,-4.0,-2.0,-1.0,2.0,1651087050868344.0,1
590,-3.0,0.0,-1.0,1.0,-2.0,-4.0,-1.0,-2.0,1651087050876202.0,1
591,-7.0,-3.0,-6.0,1.0,0.0,1.0,2.0,1.0,1651087050876202.0,1
592,-1.0,1.0,-5.0,-4.0,-2.0,2.0,-3.0,-10.0,1651087050892451.0,1
593,8.0,-1.0,5.0,2.0,9.0,1.0,1.0,2.0,1651087050892451.0,1
594,-3.0,-2.0,-15.0,-8.0,1.0,-2.0,-1.0,5.0,1651087050893093.0,1
595,0.0,1.0,6.0,2.0,-3.0,-3.0,-1.0,4.0,1651087050893093.0,1
596,-2.0,-2.0,-6.0,-1.0,1.0,2.0,-2.0,-4.0,1651087050914195.0,1
597,5.0,0.0,5.0,9.0,-1.0,-2.0,-1.0,2.0,1651087050914195.0,1
598,-3.0,-1.0,-21.0,-16.0,-5.0,-5.0,-1.0,0.0,1651087050915059.0,1
599,1.0,-1.0,6.0,11.0,3.0,2.0,1.0,0.0,1651087050915059.0,1
600,-5.0,-2.0,-13.0,-2.0,2.0,3.0,1.0,-3.0,1651087050928303.0,1
601,-1.0,2.0,8.0,2.0,-2.0,1.0,-3.0,1.0,1651087050928303.0,1
602,0.0,-3.0,2.0,1.0,-3.0,-2.0,-2.0,-4.0,1651087050936227.0,1
603,2.0,-1.0,-8.0,-10.0,-3.0,-2.0,-1.0,-3.0,1651087050936227.0,1
604,-3.0,-2.0,17.0,8.0,0.0,-1.0,0.0,-3.0,1651087050951570.0,1
605,2.0,-2.0,-20.0,-10.0,-3.0,-2.0,0.0,1.0,1651087050951570.0,1
606,1.0,3.0,-4.0,-2.0,1.0,0.0,-1.0,-1.0,1651087050952570.0,1
607,0.0,-2.0,2.0,-5.0,-1.0,-3.0,-1.0,2.0,1651087050952570.0,1
608,-2.0,0.0,2.0,7.0,-1.0,3.0,1.0,0.0,1651087050976348.0,1
609,0.0,-2.0,-5.0,-1.0,-1.0,-4.0,-2.0,-1.0,1651087050976348.0,1
610,0.0,0.0,1.0,1.0,-2.0,0.0,-2.0,-1.0,1651087050976348.0,1
611,-2.0,-5.0,-7.0,-7.0,-1.0,-1.0,1.0,1.0,1651087050976348.0,1
612,1.0,8.0,0.0,-6.0,-2.0,-2.0,0.0,-1.0,1651087050988544.0,1
613,0.0,-6.0,7.0,0.0,3.0,2.0,0.0,-1.0,1651087050988544.0,1
614,1.0,-4.0,-1.0,3.0,-2.0,-3.0,-3.0,-2.0,1651087050996131.0,1
615,-1.0,-1.0,-10.0,4.0,2.0,2.0,0.0,-1.0,1651087050996131.0,1
616,-1.0,-4.0,10.0,1.0,-3.0,-3.0,-1.0,-2.0,1651087051011746.0,1
617,0.0,0.0,5.0,-1.0,3.0,0.0,0.0,1.0,1651087051011746.0,1
618,-3.0,-1.0,-9.0,-2.0,-1.0,0.0,1.0,0.0,1651087051012745.0,1
619,0.0,-2.0,-3.0,1.0,-2.0,-2.0,0.0,-1.0,1651087051012745.0,1
620,0.0,-6.0,-6.0,-20.0,-9.0,-1.0,-3.0,-2.0,1651087051034307.0,1
621,1.0,9.0,21.0,16.0,7.0,-1.0,2.0,1.0,1651087051034307.0,1
622,1.0,-2.0,-8.0,0.0,6.0,2.0,1.0,-1.0,1651087051035209.0,1
623,0.0,-5.0,7.0,15.0,12.0,4.0,0.0,0.0,1651087051035209.0,1
624,-2.0,6.0,-7.0,-15.0,-19.0,-5.0,-3.0,-3.0,1651087051047838.0,1
625,0.0,3.0,-8.0,14.0,11.0,2.0,0.0,1.0,1651087051047838.0,1
626,-1.0,-1.0,8.0,-5.0,-6.0,-2.0,-1.0,-1.0,1651087051056161.0,1
627,-2.0,-2.0,-4.0,-12.0,-7.0,-6.0,-1.0,1.0,1651087051056161.0,1
628,-1.0,-1.0,-4.0,1.0,2.0,3.0,1.0,0.0,1651087051071507.0,1
629,-1.0,-2.0,10.0,2.0,-8.0,-4.0,-1.0,-2.0,1651087051071507.0,1
630,-1.0,3.0,-9.0,-4.0,-4.0,-3.0,-1.0,0.0,1651087051072511.0,1
631,-1.0,2.0,7.0,1.0,3.0,1.0,0.0,-1.0,1651087051072511.0,1
632,0.0,-6.0,6.0,5.0,2.0,-1.0,0.0,0.0,1651087051094258.0,1
633,-2.0,0.0,-28.0,-25.0,-9.0,-3.0,-1.0,-1.0,1651087051094258.0,1
634,-1.0,3.0,12.0,9.0,0.0,-1.0,-1.0,-1.0,1651087051095210.0,1
635,1.0,0.0,8.0,-5.0,-3.0,0.0,-1.0,1.0,1651087051095210.0,1
636,0.0,-4.0,-3.0,3.0,4.0,-2.0,0.0,0.0,1651087051116202.0,1
637,1.0,0.0,9.0,6.0,-3.0,-1.0,0.0,-1.0,1651087051116202.0,1
638,-2.0,0.0,12.0,-2.0,2.0,4.0,0.0,0.0,1651087051118083.0,1
639,-1.0,2.0,-5.0,1.0,-5.0,-3.0,-2.0,0.0,1651087051118083.0,1
640,0.0,1.0,-15.0,-2.0,10.0,3.0,1.0,1.0,1651087051131701.0,1
641,0.0,-3.0,21.0,8.0,-2.0,-1.0,1.0,1.0,1651087051131701.0,1
642,-1.0,-9.0,-15.0,-1.0,0.0,-4.0,-1.0,-1.0,1651087051132700.0,1
643,0.0,7.0,-2.0,3.0,-3.0,-1.0,-2.0,0.0,1651087051132700.0,1
644,1.0,2.0,-2.0,-6.0,-2.0,-3.0,-1.0,0.0,1651087051153830.0,1
645,0.0,-3.0,-9.0,-11.0,-7.0,-3.0,-2.0,-1.0,1651087051153830.0,1
646,0.0,0.0,3.0,5.0,4.0,4.0,2.0,-1.0,1651087051155856.0,1
647,1.0,1.0,10.0,2.0,2.0,4.0,2.0,1.0,1651087051155856.0,1
648,1.0,-3.0,-2.0,7.0,-5.0,-5.0,-2.0,0.0,1651087051184247.0,1
649,0.0,1.0,-10.0,-13.0,-5.0,2.0,0.0,-1.0,1651087051184247.0,1
650,0.0,-1.0,4.0,6.0,2.0,-2.0,0.0,-1.0,1651087051185201.0,1
651,-3.0,2.0,12.0,1.0,-1.0,-2.0,-2.0,-3.0,1651087051185201.0,1
652,-1.0,0.0,6.0,-4.0,-2.0,-1.0,-1.0,0.0,1651087051191744.0,1
653,0.0,-5.0,-18.0,4.0,-5.0,-5.0,-2.0,-2.0,1651087051191744.0,1
654,0.0,4.0,7.0,-2.0,1.0,-1.0,-2.0,0.0,1651087051192768.0,1
655,-1.0,-2.0,-16.0,-9.0,-6.0,-1.0,0.0,0.0,1651087051192768.0,1
656,-1.0,-3.0,6.0,7.0,1.0,0.0,-1.0,-1.0,1651087051213688.0,1
657,1.0,-1.0,3.0,4.0,7.0,6.0,0.0,0.0,1651087051213688.0,1
658,0.0,5.0,7.0,0.0,0.0,1.0,2.0,1.0,1651087051215714.0,1
659,0.0,-9.0,-8.0,-4.0,7.0,3.0,1.0,-1.0,1651087051215714.0,1
660,0.0,3.0,0.0,-1.0,-4.0,-3.0,-2.0,0.0,1651087051236224.0,1
661,0.0,-1.0,-1.0,-5.0,-4.0,-2.0,-1.0,0.0,1651087051236224.0,1
662,0.0,-2.0,-14.0,-1.0,-6.0,-2.0,-1.0,0.0,1651087051238250.0,1
663,-1.0,0.0,11.0,2.0,-1.0,-4.0,-1.0,-1.0,1651087051238250.0,1
664,-2.0,-3.0,-6.0,-1.0,0.0,4.0,2.0,0.0,1651087051250468.0,1
665,1.0,3.0,-1.0,1.0,6.0,0.0,1.0,-2.0,1651087051250468.0,1
666,-2.0,-2.0,11.0,2.0,-2.0,-1.0,0.0,-1.0,1651087051258986.0,1
667,-1.0,-7.0,-21.0,-6.0,5.0,3.0,-2.0,-1.0,1651087051258986.0,1
668,-1.0,-3.0,1.0,1.0,-4.0,-3.0,-3.0,-2.0,1651087051274259.0,1
669,-2.0,-2.0,-4.0,2.0,2.0,1.0,0.0,1.0,1651087051274259.0,1
670,-1.0,2.0,5.0,-3.0,-5.0,-3.0,-4.0,-2.0,1651087051275222.0,1
671,-1.0,-3.0,1.0,4.0,-2.0,1.0,0.0,1.0,1651087051275222.0,1
672,-1.0,-2.0,-16.0,-14.0,-4.0,1.0,1.0,-2.0,1651087051296230.0,1
673,0.0,0.0,4.0,-6.0,-8.0,-3.0,-1.0,1.0,1651087051296230.0,1
674,-3.0,-6.0,-4.0,5.0,-2.0,-1.0,0.0,-1.0,1651087051298256.0,1
675,0.0,1.0,-1.0,0.0,16.0,4.0,2.0,2.0,1651087051298256.0,1
676,0.0,3.0,-3.0,-3.0,-3.0,-2.0,-3.0,-1.0,1651087051311221.0,1
677,-3.0,-1.0,-4.0,3.0,-2.0,0.0,0.0,-2.0,1651087051311221.0,1
678,0.0,-1.0,0.0,-6.0,-6.0,-3.0,-2.0,0.0,1651087051318489.0,1
679,2.0,-3.0,2.0,4.0,-4.0,-2.0,-1.0,0.0,1651087051318489.0,1
680,-1.0,-3.0,3.0,-1.0,1.0,-2.0,-1.0,-1.0,1651087051334334.0,0
681,-2.0,1.0,-8.0,-9.0,-5.0,0.0,-1.0,-1.0,1651087051334334.0,0
682,-2.0,-2.0,-7.0,-5.0,1.0,1.0,-1.0,-1.0,1651087051335214.0,0
683,-1.0,1.0,4.0,3.0,-4.0,-3.0,1.0,0.0,1651087051335214.0,0
684,0.0,-1.0,8.0,2.0,4.0,3.0,-1.0,2.0,1651087051356585.0,0
685,0.0,-2.0,4.0,1.0,3.0,3.0,2.0,0.0,1651087051356585.0,0
686,-3.0,-1.0,-4.0,8.0,3.0,2.0,-1.0,-2.0,1651087051357601.0,0
687,1.0,7.0,-1.0,-9.0,-6.0,-2.0,-1.0,0.0,1651087051357601.0,0
688,-1.0,-8.0,-2.0,2.0,-1.0,-4.0,2.0,-1.0,1651087051371076.0,0
689,0.0,-2.0,-4.0,4.0,-1.0,0.0,-1.0,1.0,1651087051371076.0,0
690,0.0,-5.0,-1.0,-7.0,-4.0,-2.0,0.0,0.0,1651087051378038.0,0
691,0.0,2.0,-4.0,-2.0,-4.0,-4.0,-3.0,0.0,1651087051378038.0,0
692,1.0,2.0,6.0,7.0,5.0,3.0,1.0,2.0,1651087051394328.0,0
693,1.0,3.0,2.0,4.0,-8.0,-5.0,-3.0,-1.0,1651087051394328.0,0
694,0.0,4.0,-3.0,-9.0,7.0,3.0,1.0,0.0,1651087051395213.0,0
695,0.0,1.0,5.0,-1.0,0.0,1.0,-2.0,-1.0,1651087051395213.0,0
696,-1.0,-1.0,-1.0,-2.0,-2.0,-2.0,0.0,-2.0,1651087051417353.0,0
697,-2.0,-4.0,2.0,10.0,7.0,3.0,0.0,-1.0,1651087051417353.0,0
698,1.0,1.0,-5.0,-7.0,-7.0,-3.0,-1.0,0.0,1651087051418240.0,0
699,-3.0,-5.0,-5.0,5.0,-1.0,-1.0,0.0,-2.0,1651087051418240.0,0
700,3.0,10.0,12.0,0.0,13.0,10.0,2.0,0.0,1651087051430177.0,0
701,-2.0,-2.0,-12.0,-5.0,-8.0,-3.0,-2.0,-1.0,1651087051430177.0,0
702,-1.0,3.0,-2.0,6.0,2.0,-2.0,-2.0,-1.0,1651087051438477.0,0
703,-1.0,-5.0,5.0,-3.0,0.0,1.0,1.0,0.0,1651087051438477.0,0
704,-1.0,-4.0,-6.0,1.0,-5.0,-3.0,-2.0,-3.0,1651087051454327.0,0
705,1.0,2.0,6.0,-11.0,-8.0,-4.0,-1.0,0.0,1651087051454327.0,0
706,-1.0,1.0,1.0,14.0,16.0,8.0,0.0,1.0,1651087051455191.0,0
707,-2.0,0.0,-11.0,-9.0,-5.0,0.0,-2.0,-3.0,1651087051455191.0,0
708,-2.0,-2.0,-6.0,-6.0,-6.0,-4.0,-3.0,-4.0,1651087051476754.0,0
709,-1.0,-3.0,9.0,5.0,3.0,0.0,0.0,0.0,1651087051476754.0,0
710,0.0,-2.0,-2.0,-7.0,-11.0,-5.0,0.0,-3.0,1651087051477758.0,0
711,0.0,-2.0,1.0,3.0,0.0,-2.0,0.0,-2.0,1651087051477758.0,0
712,-1.0,-6.0,-15.0,-1.0,-2.0,-1.0,1.0,0.0,1651087051491047.0,0
713,0.0,5.0,-4.0,-8.0,3.0,4.0,-1.0,-2.0,1651087051491047.0,0
714,-2.0,-3.0,-2.0,-4.0,-1.0,-3.0,0.0,0.0,1651087051497975.0,0
715,-2.0,-5.0,-9.0,-1.0,0.0,-1.0,0.0,-1.0,1651087051497975.0,0
716,-2.0,-3.0,23.0,10.0,-3.0,-5.0,-2.0,-1.0,1651087051514165.0,0
717,0.0,-3.0,-32.0,-8.0,0.0,0.0,0.0,1.0,1651087051514165.0,0
718,1.0,-1.0,5.0,1.0,2.0,0.0,1.0,1.0,1651087051515038.0,0
719,1.0,5.0,11.0,4.0,-3.0,-3.0,-1.0,0.0,1651087051515038.0,0
720,1.0,0.0,0.0,-1.0,0.0,0.0,1.0,1.0,1651087051536753.0,0
721,-1.0,-3.0,4.0,-1.0,2.0,1.0,1.0,-2.0,1651087051536753.0,0
722,-1.0,-1.0,4.0,1.0,-1.0,1.0,0.0,-1.0,1651087051537768.0,0
723,0.0,2.0,25.0,18.0,9.0,4.0,0.0,2.0,1651087051537768.0,0
724,-1.0,0.0,-19.0,-4.0,-4.0,-2.0,0.0,-1.0,1651087051551040.0,0
725,1.0,2.0,8.0,4.0,6.0,2.0,1.0,0.0,1651087051551040.0,0
726,-3.0,-4.0,-12.0,-11.0,-8.0,0.0,1.0,-1.0,1651087051557929.0,0
727,-1.0,-3.0,-2.0,3.0,6.0,1.0,0.0,-2.0,1651087051557929.0,0
728,-1.0,0.0,2.0,-3.0,-5.0,-3.0,-2.0,-1.0,1651087051574243.0,0
729,0.0,-3.0,-7.0,2.0,2.0,0.0,-1.0,-1.0,1651087051574243.0,0
730,0.0,5.0,-3.0,4.0,4.0,-1.0,-2.0,0.0,1651087051575191.0,0
731,-1.0,1.0,5.0,-5.0,-6.0,-2.0,0.0,-2.0,1651087051575191.0,0
732,0.0,-2.0,-3.0,-4.0,1.0,0.0,0.0,-1.0,1651087051596191.0,0
733,-3.0,-4.0,-1.0,-7.0,-10.0,-8.0,-1.0,0.0,1651087051596191.0,0
734,1.0,-5.0,-3.0,0.0,5.0,5.0,2.0,0.0,1651087051598217.0,0
735,1.0,4.0,0.0,7.0,5.0,2.0,1.0,0.0,1651087051598217.0,0
736,-1.0,-2.0,5.0,-4.0,0.0,-2.0,-3.0,0.0,1651087051610340.0,0
737,0.0,2.0,11.0,-2.0,0.0,0.0,0.0,1.0,1651087051610340.0,0
738,0.0,2.0,-3.0,0.0,-3.0,-2.0,-2.0,1.0,1651087051619174.0,0
739,-4.0,-8.0,-15.0,-12.0,-7.0,-2.0,-1.0,-3.0,1651087051619174.0,0
740,2.0,1.0,5.0,-2.0,-2.0,1.0,1.0,-1.0,1651087051634256.0,0
741,1.0,-3.0,-8.0,4.0,0.0,-3.0,-1.0,0.0,1651087051634256.0,0
742,0.0,1.0,6.0,4.0,14.0,3.0,1.0,1.0,1651087051635209.0,0
743,-3.0,2.0,-12.0,-8.0,-9.0,-3.0,-3.0,0.0,1651087051635209.0,0
744,0.0,0.0,0.0,4.0,-4.0,-4.0,0.0,0.0,1651087051656752.0,0
745,0.0,-1.0,15.0,-3.0,0.0,3.0,1.0,-1.0,1651087051656752.0,0
746,-1.0,-8.0,-24.0,-9.0,-11.0,-7.0,-3.0,-2.0,1651087051657783.0,0
747,2.0,3.0,11.0,5.0,5.0,2.0,0.0,1.0,1651087051657783.0,0
748,-1.0,-1.0,-22.0,-5.0,1.0,-2.0,0.0,0.0,1651087051669856.0,0
749,0.0,1.0,7.0,9.0,-1.0,1.0,0.0,-1.0,1651087051669856.0,0
750,-1.0,-3.0,2.0,2.0,-1.0,1.0,-1.0,-1.0,1651087051686341.0,0
751,0.0,0.0,5.0,-10.0,-6.0,-6.0,-2.0,-2.0,1651087051686341.0,0
752,-3.0,-1.0,-7.0,2.0,3.0,3.0,0.0,-1.0,1651087051694254.0,0
753,1.0,1.0,1.0,-1.0,5.0,1.0,0.0,1.0,1651087051694254.0,0
754,-2.0,0.0,-7.0,-3.0,-2.0,1.0,0.0,0.0,1651087051695104.0,0
755,1.0,0.0,-9.0,-5.0,-5.0,-2.0,0.0,0.0,1651087051695104.0,0
756,1.0,3.0,17.0,8.0,2.0,2.0,0.0,-1.0,1651087051717213.0,0
757,-2.0,-4.0,-12.0,-2.0,-2.0,-1.0,0.0,-1.0,1651087051717213.0,0
758,1.0,-1.0,17.0,7.0,-2.0,-1.0,-2.0,-1.0,1651087051718080.0,0
759,0.0,0.0,-6.0,-7.0,-4.0,0.0,0.0,0.0,1651087051718080.0,0
760,1.0,2.0,-18.0,-6.0,-4.0,-1.0,-1.0,0.0,1651087051739223.0,0
761,-1.0,-7.0,-7.0,-3.0,-6.0,-2.0,1.0,-2.0,1651087051739223.0,0
762,-1.0,-2.0,5.0,0.0,11.0,6.0,0.0,0.0,1651087051740224.0,0
763,-2.0,-8.0,-7.0,-3.0,-1.0,-3.0,-1.0,0.0,1651087051740224.0,0
764,0.0,3.0,10.0,11.0,11.0,5.0,0.0,-1.0,1651087051753624.0,0
765,1.0,7.0,2.0,-1.0,2.0,0.0,-1.0,-1.0,1651087051753624.0,0
766,-1.0,1.0,0.0,-9.0,-10.0,-4.0,-1.0,-1.0,1651087051755505.0,0
767,1.0,-2.0,7.0,9.0,-1.0,1.0,0.0,0.0,1651087051755505.0,0
768,-1.0,-4.0,-3.0,5.0,0.0,-2.0,-1.0,0.0,1651087051776919.0,0
769,-2.0,2.0,-6.0,-8.0,-7.0,-2.0,-2.0,0.0,1651087051776919.0,0
770,0.0,-1.0,-9.0,-6.0,-5.0,-4.0,-1.0,-2.0,1651087051777790.0,0
771,0.0,0.0,8.0,4.0,1.0,0.0,-1.0,1.0,1651087051777790.0,0
772,0.0,-2.0,4.0,-7.0,-4.0,2.0,-1.0,-1.0,1651087051790883.0,0
773,-1.0,-4.0,3.0,3.0,5.0,-2.0,-2.0,-2.0,1651087051790883.0,0
774,1.0,6.0,20.0,3.0,-3.0,-2.0,0.0,-1.0,1651087051798906.0,0
775,-1.0,-2.0,-26.0,4.0,-5.0,-1.0,1.0,0.0,1651087051798906.0,0
776,-1.0,0.0,-5.0,0.0,12.0,5.0,1.0,-2.0,1651087051813901.0,0
777,1.0,-4.0,2.0,-1.0,-1.0,-3.0,-1.0,-1.0,1651087051813901.0,0
778,0.0,0.0,-3.0,3.0,3.0,-1.0,1.0,1.0,1651087051814914.0,0
779,-1.0,-2.0,16.0,1.0,-3.0,-1.0,-3.0,0.0,1651087051814914.0,0
780,-2.0,1.0,-17.0,-8.0,-4.0,-1.0,0.0,1.0,1651087051835826.0,0
781,-2.0,1.0,-3.0,-3.0,-4.0,-2.0,-1.0,-1.0,1651087051835826.0,0
782,2.0,-2.0,0.0,1.0,0.0,0.0,-2.0,-1.0,1651087051837821.0,0
783,-2.0,-1.0,-4.0,-3.0,4.0,0.0,0.0,0.0,1651087051837821.0,0
784,-1.0,0.0,3.0,0.0,-3.0,0.0,0.0,0.0,1651087051850953.0,0
785,-1.0,4.0,15.0,6.0,1.0,2.0,1.0,-1.0,1651087051850953.0,0
786,-2.0,-3.0,-19.0,-4.0,-1.0,-3.0,-1.0,-2.0,1651087051858979.0,0
787,1.0,-1.0,-4.0,-8.0,-1.0,-3.0,-1.0,-1.0,1651087051858979.0,0
788,1.0,-6.0,-9.0,-1.0,0.0,-2.0,1.0,-2.0,1651087051874321.0,0
789,-1.0,-2.0,9.0,-3.0,-6.0,-1.0,0.0,-2.0,1651087051874321.0,0
790,-2.0,0.0,0.0,1.0,-3.0,-3.0,0.0,-3.0,1651087051875190.0,0
791,-1.0,3.0,-9.0,1.0,-2.0,-1.0,-3.0,-3.0,1651087051875190.0,0
792,2.0,8.0,20.0,10.0,13.0,2.0,1.0,2.0,1651087051896247.0,0
793,-1.0,-6.0,-21.0,-2.0,0.0,1.0,-1.0,-1.0,1651087051896247.0,0
794,-2.0,-3.0,-1.0,1.0,-1.0,-2.0,0.0,-1.0,1651087051898271.0,0
795,1.0,0.0,-6.0,-4.0,-4.0,0.0,0.0,1.0,1651087051898271.0,0
796,-1.0,-2.0,12.0,-2.0,-3.0,-2.0,-1.0,0.0,1651087051910343.0,0
797,-1.0,8.0,8.0,-3.0,2.0,1.0,0.0,1.0,1651087051910343.0,0
798,-1.0,-4.0,-9.0,2.0,0.0,0.0,-1.0,0.0,1651087051919183.0,0
799,0.0,0.0,2.0,-4.0,-1.0,2.0,0.0,-2.0,1651087051919183.0,0
800,0.0,-1.0,5.0,0.0,-3.0,-3.0,-1.0,-2.0,1651087051934319.0,0
801,0.0,-4.0,0.0,2.0,2.0,0.0,1.0,1.0,1651087051934319.0,0
802,0.0,0.0,3.0,-3.0,-3.0,-2.0,0.0,0.0,1651087051935202.0,0
803,0.0,4.0,8.0,6.0,5.0,0.0,-1.0,0.0,1651087051935202.0,0
804,-1.0,-5.0,-11.0,-4.0,-1.0,0.0,1.0,-2.0,1651087051956516.0,0
805,0.0,-1.0,3.0,-1.0,-3.0,-2.0,-1.0,0.0,1651087051956516.0,0
806,1.0,-6.0,-10.0,-1.0,-2.0,0.0,-1.0,-1.0,1651087051957407.0,0
807,-1.0,6.0,17.0,6.0,2.0,0.0,1.0,1.0,1651087051957407.0,0
808,-3.0,-3.0,-20.0,-15.0,-8.0,-4.0,-3.0,-3.0,1651087051969664.0,0
809,-1.0,-1.0,-10.0,-2.0,4.0,2.0,1.0,1.0,1651087051969664.0,0
810,0.0,1.0,10.0,0.0,4.0,-1.0,0.0,1.0,1651087051979069.0,0
811,-1.0,-2.0,-5.0,-6.0,-5.0,-2.0,-1.0,-1.0,1651087051979069.0,0
812,-4.0,-8.0,7.0,13.0,1.0,1.0,-1.0,-1.0,1651087051994300.0,0
813,0.0,1.0,-11.0,-11.0,-3.0,-4.0,0.0,-1.0,1651087051994300.0,0
814,-2.0,-1.0,10.0,5.0,-5.0,-2.0,-3.0,-3.0,1651087051995232.0,0
815,1.0,-5.0,0.0,-1.0,5.0,4.0,1.0,1.0,1651087051995232.0,0
816,-1.0,4.0,-18.0,-19.0,-15.0,-5.0,-1.0,1.0,1651087052017595.0,0
817,0.0,2.0,4.0,-7.0,-2.0,1.0,0.0,1.0,1651087052017595.0,0
818,-3.0,0.0,11.0,18.0,8.0,2.0,1.0,-1.0,1651087052018475.0,0
819,0.0,-4.0,-4.0,-8.0,-8.0,-6.0,-2.0,0.0,1651087052018475.0,0
820,-1.0,-1.0,4.0,7.0,-3.0,-4.0,-1.0,-1.0,1651087052039245.0,0
821,-2.0,-6.0,-6.0,-12.0,-14.0,-4.0,-3.0,-1.0,1651087052039245.0,0
822,1.0,3.0,-9.0,-20.0,-14.0,-1.0,0.0,-1.0,1651087052040255.0,0
823,-1.0,-2.0,3.0,7.0,18.0,9.0,3.0,0.0,1651087052040255.0,0
824,1.0,-1.0,4.0,1.0,-5.0,-3.0,-1.0,1.0,1651087052054391.0,0
825,-1.0,1.0,1.0,6.0,-9.0,-6.0,-1.0,-2.0,1651087052054391.0,0
826,-3.0,-4.0,3.0,1.0,6.0,4.0,-2.0,-1.0,1651087052055233.0,0
827,0.0,2.0,1.0,10.0,9.0,1.0,3.0,0.0,1651087052055233.0,0
828,1.0,-7.0,-1.0,-2.0,1.0,-2.0,-1.0,1.0,1651087052076643.0,0
829,2.0,4.0,2.0,-7.0,-9.0,1.0,0.0,-4.0,1651087052076643.0,0
830,0.0,-1.0,5.0,2.0,8.0,1.0,0.0,1.0,1651087052077643.0,0
831,-8.0,-5.0,1.0,1.0,-1.0,-1.0,0.0,-2.0,1651087052077643.0,0
832,2.0,-2.0,2.0,-8.0,-4.0,2.0,2.0,1.0,1651087052099240.0,0
833,4.0,-2.0,6.0,11.0,7.0,-1.0,-1.0,3.0,1651087052099240.0,0
834,-2.0,1.0,-3.0,-4.0,1.0,-2.0,-3.0,-1.0,1651087052100240.0,0
835,4.0,6.0,6.0,0.0,5.0,-1.0,-4.0,-1.0,1651087052100240.0,0
836,2.0,4.0,-1.0,3.0,4.0,2.0,2.0,0.0,1651087052113523.0,0
837,-2.0,-3.0,5.0,1.0,11.0,3.0,0.0,-2.0,1651087052113523.0,0
838,1.0,0.0,-6.0,-14.0,-16.0,-4.0,-1.0,-1.0,1651087052115515.0,0
839,-4.0,-4.0,-8.0,15.0,7.0,-2.0,-3.0,-2.0,1651087052115515.0,0
840,0.0,-1.0,3.0,3.0,3.0,4.0,0.0,2.0,1651087052136383.0,0
841,-1.0,7.0,-2.0,3.0,6.0,2.0,-1.0,0.0,1651087052136383.0,0
842,-5.0,-12.0,-3.0,-3.0,-12.0,-6.0,-4.0,-3.0,1651087052138214.0,0
843,4.0,6.0,-1.0,-7.0,1.0,1.0,2.0,0.0,1651087052138214.0,0
844,0.0,2.0,-2.0,-1.0,1.0,0.0,-3.0,-1.0,1651087052159868.0,0
845,-9.0,-10.0,-1.0,6.0,12.0,4.0,-1.0,-1.0,1651087052159868.0,0
846,4.0,5.0,2.0,0.0,-2.0,-2.0,2.0,-1.0,1651087052160735.0,0
847,12.0,2.0,3.0,-5.0,-2.0,4.0,3.0,4.0,1651087052160735.0,0
848,-6.0,-2.0,8.0,11.0,8.0,0.0,1.0,3.0,1651087052174286.0,0
849,-1.0,-1.0,-10.0,-4.0,-7.0,-2.0,0.0,-1.0,1651087052174286.0,0
850,8.0,-1.0,-2.0,3.0,5.0,1.0,-2.0,1.0,1651087052180048.0,0
851,11.0,-2.0,-7.0,-17.0,-19.0,-5.0,-1.0,-2.0,1651087052180048.0,0
852,-19.0,9.0,5.0,19.0,28.0,9.0,-3.0,-8.0,1651087052196228.0,0
853,-4.0,-11.0,5.0,-1.0,3.0,-2.0,-1.0,1.0,1651087052196228.0,0
854,-25.0,25.0,-12.0,17.0,12.0,5.0,4.0,4.0,1651087052198254.0,0
855,-15.0,-29.0,6.0,-1.0,-15.0,-6.0,-2.0,-1.0,1651087052198254.0,0
856,14.0,4.0,-6.0,-21.0,-15.0,-7.0,-6.0,-4.0,1651087052219048.0,0
857,-9.0,-28.0,-10.0,-2.0,-7.0,-4.0,-1.0,-3.0,1651087052219048.0,0
858,4.0,6.0,2.0,-5.0,13.0,10.0,1.0,-1.0,1651087052220073.0,0
859,5.0,11.0,-1.0,7.0,-1.0,-7.0,-4.0,2.0,1651087052220073.0,0
860,12.0,2.0,1.0,-8.0,-19.0,-8.0,-4.0,-3.0,1651087052241658.0,0
861,-36.0,6.0,-2.0,1.0,5.0,0.0,3.0,1.0,1651087052241658.0,0
862,-2.0,-21.0,-1.0,0.0,4.0,8.0,3.0,2.0,1651087052242658.0,0
863,-19.0,-19.0,-6.0,-3.0,-8.0,-7.0,-5.0,-9.0,1651087052242658.0,0
864,22.0,5.0,-3.0,-7.0,-5.0,0.0,-2.0,-2.0,1651087052257027.0,0
865,20.0,22.0,-5.0,0.0,-5.0,-1.0,7.0,9.0,1651087052257027.0,0
866,10.0,19.0,8.0,-5.0,-9.0,-7.0,-5.0,-2.0,1651087052257866.0,0
867,37.0,13.0,-1.0,-2.0,3.0,8.0,6.0,3.0,1651087052257866.0,0
868,-56.0,-16.0,0.0,4.0,12.0,4.0,-3.0,-4.0,1651087052279140.0,2
869,-34.0,29.0,-10.0,-1.0,-10.0,-7.0,-1.0,-3.0,1651087052279140.0,2
870,-33.0,-71.0,2.0,3.0,13.0,7.0,-3.0,-1.0,1651087052280139.0,2
871,-5.0,18.0,-21.0,-11.0,-11.0,-8.0,3.0,-4.0,1651087052280139.0,2
872,41.0,4.0,1.0,-14.0,-23.0,-11.0,4.0,14.0,1651087052294336.0,2
873,11.0,54.0,17.0,2.0,6.0,2.0,-15.0,-24.0,1651087052294336.0,2
874,50.0,42.0,6.0,5.0,-10.0,-5.0,-5.0,-18.0,1651087052300377.0,2
875,-32.0,43.0,-1.0,-7.0,5.0,3.0,10.0,40.0,1651087052300377.0,2
876,28.0,-3.0,-9.0,-8.0,-11.0,-6.0,7.0,19.0,1651087052316797.0,2
877,25.0,48.0,-4.0,0.0,1.0,-5.0,-19.0,-25.0,1651087052316797.0,2
878,-5.0,11.0,15.0,2.0,-6.0,-5.0,7.0,6.0,1651087052317798.0,2
879,37.0,-38.0,3.0,3.0,0.0,11.0,10.0,-10.0,1651087052317798.0,2
880,6.0,38.0,9.0,6.0,20.0,7.0,-1.0,5.0,1651087052339119.0,2
881,59.0,27.0,17.0,34.0,31.0,9.0,4.0,11.0,1651087052339119.0,2
882,26.0,-6.0,2.0,-22.0,-33.0,-22.0,-14.0,-37.0,1651087052340120.0,2
883,-27.0,-5.0,-23.0,11.0,29.0,9.0,7.0,18.0,1651087052340120.0,2
884,8.0,-60.0,-6.0,6.0,4.0,12.0,49.0,35.0,1651087052353193.0,2
885,-38.0,-92.0,-3.0,-20.0,-39.0,-10.0,-3.0,-48.0,1651087052353193.0,2
886,70.0,104.0,-3.0,5.0,21.0,2.0,-28.0,-2.0,1651087052360630.0,2
887,-31.0,-27.0,0.0,-22.0,-13.0,-7.0,51.0,71.0,1651087052360630.0,2
888,52.0,14.0,-12.0,23.0,2.0,-3.0,-24.0,-46.0,1651087052376707.0,2
889,-43.0,-16.0,4.0,6.0,27.0,1.0,-13.0,14.0,1651087052376707.0,2
890,14.0,16.0,-14.0,-20.0,-42.0,4.0,21.0,-11.0,1651087052377568.0,2
891,-28.0,-11.0,9.0,11.0,26.0,6.0,-40.0,-42.0,1651087052377568.0,2
892,-16.0,34.0,14.0,-34.0,-33.0,-25.0,-47.0,-62.0,1651087052399239.0,2
893,-4.0,42.0,12.0,41.0,5.0,4.0,70.0,105.0,1651087052399239.0,2
894,1.0,-81.0,-10.0,-19.0,-23.0,-3.0,1.0,-36.0,1651087052400239.0,2
895,77.0,90.0,-4.0,19.0,30.0,1.0,1.0,-10.0,1651087052400239.0,2
896,41.0,-101.0,-6.0,-41.0,-18.0,9.0,27.0,-7.0,1651087052412712.0,2
897,46.0,-24.0,-2.0,56.0,67.0,23.0,-34.0,-42.0,1651087052412712.0,2
898,-35.0,5.0,25.0,33.0,28.0,7.0,22.0,41.0,1651087052421201.0,2
899,15.0,3.0,-5.0,-9.0,-23.0,-18.0,-58.0,-48.0,1651087052421201.0,2
900,50.0,111.0,7.0,2.0,-24.0,-7.0,26.0,34.0,1651087052436360.0,2
901,17.0,-122.0,-41.0,-37.0,-16.0,-6.0,7.0,16.0,1651087052436360.0,2
902,-69.0,-88.0,-27.0,2.0,11.0,8.0,20.0,15.0,1651087052438253.0,2
903,12.0,49.0,31.0,-4.0,-13.0,-1.0,-25.0,-23.0,1651087052438253.0,2
904,-91.0,-43.0,-32.0,-11.0,-6.0,-17.0,-31.0,-43.0,1651087052459242.0,2
905,58.0,69.0,35.0,27.0,3.0,2.0,23.0,68.0,1651087052459242.0,2
906,-45.0,-58.0,0.0,-2.0,0.0,5.0,8.0,-12.0,1651087052460243.0,2
907,-67.0,-8.0,-3.0,19.0,22.0,5.0,-1.0,13.0,1651087052460243.0,2
908,-69.0,17.0,15.0,15.0,9.0,13.0,15.0,-11.0,1651087052472384.0,2
909,-48.0,15.0,7.0,-25.0,-19.0,-16.0,-39.0,-39.0,1651087052472384.0,2
910,0.0,39.0,-13.0,-20.0,-1.0,0.0,6.0,-6.0,1651087052481405.0,2
911,12.0,-18.0,9.0,-5.0,-19.0,-9.0,18.0,12.0,1651087052481405.0,2
912,28.0,89.0,0.0,33.0,10.0,15.0,-6.0,18.0,1651087052496198.0,2
913,-15.0,-56.0,-21.0,-27.0,-14.0,-7.0,-17.0,-39.0,1651087052496198.0,2
914,-19.0,14.0,-16.0,-18.0,-14.0,-12.0,-12.0,17.0,1651087052498222.0,2
915,-11.0,69.0,-13.0,-19.0,-18.0,0.0,2.0,-24.0,1651087052498222.0,2
916,31.0,-82.0,15.0,54.0,66.0,20.0,7.0,32.0,1651087052519224.0,2
917,-5.0,17.0,-15.0,-52.0,-53.0,-20.0,-14.0,-10.0,1651087052519224.0,2
918,-8.0,-5.0,28.0,43.0,33.0,13.0,18.0,3.0,1651087052520224.0,2
919,62.0,-85.0,-39.0,2.0,-20.0,-1.0,-3.0,-6.0,1651087052520224.0,2
920,-80.0,-44.0,-14.0,-32.0,-15.0,-18.0,-26.0,-13.0,1651087052532364.0,2
921,51.0,-33.0,-9.0,-7.0,-8.0,4.0,31.0,44.0,1651087052532364.0,2
922,-39.0,42.0,29.0,4.0,7.0,6.0,10.0,28.0,1651087052549108.0,2
923,-63.0,-73.0,-4.0,-10.0,0.0,5.0,14.0,-1.0,1651087052549108.0,2
924,-12.0,52.0,13.0,9.0,5.0,2.0,-7.0,-11.0,1651087052556237.0,2
925,7.0,-5.0,-4.0,-38.0,-26.0,-1.0,-5.0,-22.0,1651087052556237.0,2
926,22.0,25.0,-6.0,32.0,28.0,-7.0,-8.0,-1.0,1651087052558121.0,2
927,30.0,33.0,19.0,18.0,-3.0,-5.0,-17.0,-16.0,1651087052558121.0,2
928,-23.0,24.0,17.0,0.0,-5.0,-6.0,5.0,19.0,1651087052578792.0,2
929,-4.0,21.0,3.0,-22.0,-16.0,1.0,6.0,-13.0,1651087052578792.0,2
930,-3.0,-13.0,-15.0,-4.0,-1.0,-6.0,-17.0,-2.0,1651087052579793.0,2
931,-12.0,14.0,10.0,2.0,6.0,5.0,2.0,6.0,1651087052579793.0,2
932,20.0,43.0,-7.0,-3.0,16.0,3.0,2.0,-30.0,1651087052592045.0,2
933,-26.0,5.0,-1.0,20.0,9.0,0.0,4.0,21.0,1651087052592045.0,2
934,-2.0,-9.0,4.0,-11.0,-13.0,1.0,-24.0,-34.0,1651087052601158.0,2
935,-13.0,-67.0,-1.0,3.0,-7.0,-6.0,34.0,58.0,1651087052601158.0,2
936,24.0,81.0,-11.0,-2.0,-7.0,-6.0,-8.0,-8.0,1651087052616180.0,2
937,-2.0,-26.0,3.0,-7.0,11.0,7.0,5.0,-18.0,1651087052616180.0,2
938,25.0,21.0,-23.0,0.0,3.0,-1.0,-7.0,-11.0,1651087052618063.0,2
939,-93.0,45.0,7.0,-12.0,5.0,-8.0,-25.0,-27.0,1651087052618063.0,2
940,-13.0,-63.0,-10.0,-31.0,-36.0,-10.0,-12.0,1.0,1651087052639227.0,2
941,-33.0,25.0,3.0,43.0,33.0,9.0,16.0,-1.0,1651087052639227.0,2
942,26.0,-3.0,6.0,-4.0,2.0,2.0,15.0,27.0,1651087052640228.0,2
943,20.0,18.0,9.0,-22.0,-19.0,-2.0,-20.0,-34.0,1651087052640228.0,2
944,22.0,-25.0,22.0,24.0,9.0,5.0,28.0,28.0,1651087052652558.0,2
945,-35.0,-26.0,-9.0,10.0,14.0,-2.0,-5.0,10.0,1651087052652558.0,2
946,-20.0,-5.0,-22.0,-4.0,3.0,1.0,-10.0,0.0,1651087052661215.0,2
947,48.0,59.0,1.0,-10.0,-6.0,3.0,16.0,-15.0,1651087052661215.0,2
948,6.0,-41.0,-10.0,-18.0,-8.0,-15.0,-30.0,-6.0,1651087052676796.0,2
949,-12.0,-14.0,7.0,3.0,-5.0,5.0,25.0,26.0,1651087052676796.0,2
950,83.0,92.0,9.0,-7.0,-8.0,-2.0,13.0,21.0,1651087052677796.0,2
951,13.0,-109.0,-32.0,-9.0,5.0,0.0,-4.0,-19.0,1651087052677796.0,2
952,45.0,5.0,0.0,0.0,15.0,7.0,-3.0,9.0,1651087052699154.0,2
953,51.0,117.0,35.0,10.0,1.0,1.0,6.0,-7.0,1651087052699154.0,2
954,-36.0,-76.0,-21.0,-10.0,-12.0,-11.0,-25.0,-17.0,1651087052700154.0,2
955,-14.0,-5.0,1.0,-26.0,-29.0,-11.0,6.0,10.0,1651087052700154.0,2
956,31.0,-11.0,0.0,17.0,14.0,4.0,-5.0,-19.0,1651087052721083.0,2
957,-26.0,17.0,-10.0,-1.0,-1.0,-8.0,-9.0,5.0,1651087052721083.0,2
958,9.0,-4.0,-2.0,-8.0,-8.0,5.0,3.0,-18.0,1651087052723070.0,2
959,47.0,17.0,1.0,12.0,2.0,2.0,-7.0,13.0,1651087052723070.0,2
960,-96.0,-17.0,12.0,6.0,-10.0,-3.0,35.0,31.0,1651087052736001.0,2
961,56.0,-54.0,-11.0,0.0,0.0,-2.0,-17.0,-13.0,1651087052736001.0,2
962,-28.0,16.0,2.0,-31.0,-25.0,-8.0,-11.0,-8.0,1651087052738027.0,2
963,28.0,17.0,-4.0,51.0,42.0,15.0,12.0,-7.0,1651087052738027.0,2
964,-29.0,25.0,20.0,-6.0,-6.0,2.0,-16.0,-6.0,1651087052767180.0,2
965,21.0,51.0,5.0,0.0,-10.0,-5.0,-8.0,-17.0,1651087052767180.0,2
966,18.0,27.0,18.0,9.0,-3.0,-1.0,5.0,-5.0,1651087052768023.0,2
967,-18.0,-78.0,3.0,-7.0,-5.0,-7.0,-19.0,11.0,1651087052768023.0,2
968,-49.0,32.0,-5.0,-7.0,20.0,16.0,23.0,6.0,1651087052772012.0,2
969,-34.0,-6.0,-3.0,16.0,13.0,-3.0,1.0,-10.0,1651087052772012.0,2
970,9.0,-23.0,-29.0,-10.0,-1.0,2.0,-2.0,-2.0,1651087052789125.0,2
971,-7.0,12.0,31.0,13.0,0.0,3.0,21.0,30.0,1651087052789125.0,2
972,14.0,14.0,-10.0,2.0,-8.0,-8.0,-34.0,-36.0,1651087052796026.0,2
973,-2.0,75.0,-1.0,-19.0,-3.0,5.0,8.0,9.0,1651087052796026.0,2
974,16.0,-47.0,7.0,6.0,3.0,-4.0,13.0,27.0,1651087052797943.0,2
975,6.0,52.0,-14.0,-11.0,7.0,6.0,9.0,-3.0,1651087052797943.0,2
976,3.0,-33.0,-2.0,16.0,14.0,4.0,-47.0,-48.0,1651087052819061.0,2
977,-46.0,-14.0,-12.0,-27.0,-29.0,-16.0,25.0,22.0,1651087052819061.0,2
978,-5.0,16.0,36.0,43.0,40.0,3.0,-1.0,9.0,1651087052820018.0,2
979,-10.0,41.0,-7.0,-11.0,2.0,2.0,-6.0,-27.0,1651087052820018.0,2
980,98.0,48.0,-1.0,-15.0,-33.0,-15.0,9.0,26.0,1651087052833116.0,2
981,-51.0,-113.0,-14.0,-7.0,9.0,5.0,-35.0,-39.0,1651087052833116.0,2
982,7.0,19.0,10.0,3.0,4.0,-3.0,9.0,13.0,1651087052841410.0,2
983,48.0,3.0,10.0,28.0,-7.0,-2.0,23.0,-8.0,1651087052841410.0,2
984,-14.0,-3.0,-10.0,-16.0,0.0,-6.0,-36.0,-33.0,1651087052856268.0,2
985,39.0,39.0,-4.0,-19.0,-15.0,-6.0,19.0,73.0,1651087052856268.0,2
986,-40.0,-3.0,5.0,14.0,20.0,6.0,5.0,-4.0,1651087052858129.0,2
987,1.0,-4.0,-5.0,-3.0,-13.0,-5.0,-5.0,-19.0,1651087052858129.0,2
988,-5.0,-31.0,-3.0,9.0,12.0,7.0,5.0,12.0,1651087052879236.0,2
989,-62.0,17.0,8.0,-23.0,-8.0,-1.0,4.0,-23.0,1651087052879236.0,2
990,23.0,-7.0,-8.0,0.0,-18.0,-2.0,-11.0,2.0,1651087052880238.0,2
991,-6.0,54.0,5.0,-17.0,-22.0,-6.0,-2.0,7.0,1651087052880238.0,2
992,-68.0,-85.0,-7.0,14.0,33.0,14.0,21.0,25.0,1651087052893217.0,2
993,7.0,4.0,12.0,2.0,-4.0,-4.0,-38.0,-52.0,1651087052893217.0,2
994,39.0,42.0,-3.0,-13.0,-26.0,-11.0,16.0,42.0,1651087052901410.0,2
995,-44.0,-40.0,0.0,7.0,21.0,8.0,14.0,-12.0,1651087052901410.0,2
996,21.0,-9.0,-14.0,-20.0,-24.0,-9.0,8.0,11.0,1651087052916385.0,2
997,60.0,39.0,10.0,26.0,31.0,18.0,-26.0,4.0,1651087052916385.0,2
998,-98.0,-40.0,-11.0,-34.0,-26.0,-9.0,16.0,-23.0,1651087052918242.0,2
999,10.0,38.0,-8.0,18.0,18.0,2.0,-11.0,12.0,1651087052918242.0,2
1000,-22.0,-9.0,-3.0,-13.0,-16.0,-3.0,20.0,14.0,1651087052939005.0,2
1001,13.0,-49.0,-15.0,7.0,1.0,-2.0,-1.0,1.0,1651087052939005.0,2
1002,-15.0,20.0,-3.0,-10.0,9.0,5.0,-30.0,-18.0,1651087052939873.0,2
1003,51.0,47.0,6.0,-8.0,-24.0,-9.0,4.0,11.0,1651087052939873.0,2
1004,-27.0,-15.0,4.0,1.0,5.0,4.0,18.0,-14.0,1651087052952951.0,2
1005,-5.0,-2.0,-5.0,-9.0,-6.0,-2.0,4.0,21.0,1651087052952951.0,2
1006,-11.0,0.0,-31.0,21.0,2.0,-2.0,-5.0,-3.0,1651087052961352.0,2
1007,20.0,10.0,13.0,12.0,9.0,1.0,0.0,3.0,1651087052961352.0,2
1008,19.0,-19.0,-18.0,-7.0,-5.0,-3.0,-8.0,10.0,1651087052976382.0,2
1009,5.0,4.0,32.0,26.0,11.0,2.0,2.0,-44.0,1651087052976382.0,2
1010,47.0,-3.0,11.0,-6.0,-4.0,6.0,19.0,38.0,1651087052978248.0,2
1011,-112.0,-14.0,-12.0,-53.0,-25.0,-20.0,-25.0,-32.0,1651087052978248.0,2
1012,47.0,1.0,-14.0,33.0,29.0,13.0,11.0,26.0,1651087052999256.0,2
1013,-4.0,-35.0,-10.0,0.0,-8.0,0.0,-5.0,-9.0,1651087052999256.0,2
1014,51.0,52.0,6.0,-8.0,-4.0,-2.0,3.0,-12.0,1651087053000256.0,2
1015,-35.0,-47.0,-11.0,2.0,9.0,4.0,-27.0,-18.0,1651087053000256.0,2
1016,70.0,-8.0,32.0,-7.0,-16.0,-2.0,0.0,6.0,1651087053021809.0,2
1017,-31.0,18.0,1.0,-1.0,1.0,1.0,23.0,3.0,1651087053021809.0,2
1018,-23.0,1.0,-3.0,10.0,10.0,7.0,-23.0,-32.0,1651087053022809.0,2
1019,72.0,-3.0,12.0,13.0,16.0,5.0,25.0,41.0,1651087053022809.0,2
1020,-15.0,16.0,2.0,12.0,-1.0,-4.0,1.0,-4.0,1651087053036224.0,2
1021,53.0,25.0,0.0,37.0,25.0,7.0,-12.0,1.0,1651087053036224.0,2
1022,-30.0,-78.0,-23.0,-25.0,-11.0,-3.0,-15.0,-9.0,1651087053038219.0,2
1023,-2.0,-8.0,-6.0,-4.0,-1.0,5.0,39.0,11.0,1651087053038219.0,2
1024,16.0,50.0,0.0,8.0,6.0,1.0,-6.0,1.0,1651087053059235.0,2
1025,-5.0,14.0,15.0,1.0,-17.0,-9.0,0.0,7.0,1651087053059235.0,2
1026,-58.0,-59.0,-2.0,-15.0,-6.0,-8.0,-25.0,-62.0,1651087053060235.0,2
1027,16.0,16.0,-5.0,18.0,10.0,4.0,-11.0,44.0,1651087053060235.0,2
1028,-32.0,11.0,2.0,-17.0,-16.0,-5.0,4.0,-3.0,1651087053082059.0,2
1029,66.0,-15.0,-11.0,-27.0,-17.0,-1.0,9.0,-26.0,1651087053082059.0,2
1030,-23.0,39.0,-18.0,14.0,-4.0,-3.0,7.0,28.0,1651087053083093.0,2
1031,17.0,18.0,25.0,1.0,-11.0,-1.0,3.0,-13.0,1651087053083093.0,2
1032,-24.0,-21.0,-7.0,4.0,-8.0,-6.0,7.0,14.0,1651087053096577.0,2
1033,-24.0,-8.0,-4.0,4.0,7.0,6.0,-11.0,-10.0,1651087053096577.0,2
1034,65.0,24.0,21.0,-14.0,-8.0,-4.0,6.0,14.0,1651087053097577.0,2
1035,1.0,-4.0,-44.0,-10.0,-11.0,5.0,2.0,-5.0,1651087053097577.0,2
1036,2.0,9.0,12.0,12.0,17.0,-3.0,-34.0,-26.0,1651087053126834.0,2
1037,13.0,4.0,-14.0,-18.0,-8.0,3.0,31.0,28.0,1651087053126834.0,2
1038,17.0,-6.0,4.0,15.0,6.0,-2.0,12.0,28.0,1651087053127834.0,2
1039,-56.0,-8.0,8.0,-13.0,-8.0,-4.0,-16.0,-28.0,1651087053127834.0,2
1040,16.0,10.0,-9.0,-15.0,-8.0,1.0,-15.0,-30.0,1651087053142359.0,2
1041,-10.0,-3.0,-1.0,6.0,8.0,-3.0,5.0,36.0,1651087053142359.0,2
1042,44.0,66.0,18.0,-8.0,-5.0,-1.0,-2.0,-9.0,1651087053143090.0,2
1043,9.0,-82.0,-2.0,21.0,29.0,5.0,-7.0,-6.0,1651087053143090.0,2
1044,-37.0,19.0,-26.0,-29.0,-12.0,-8.0,-19.0,-16.0,1651087053156220.0,2
1045,-10.0,3.0,5.0,-3.0,-11.0,-3.0,27.0,10.0,1651087053156220.0,2
1046,0.0,40.0,28.0,43.0,37.0,22.0,-1.0,1.0,1651087053162654.0,2
1047,62.0,31.0,-21.0,-25.0,-16.0,-10.0,3.0,24.0,1651087053162654.0,2
1048,-105.0,-23.0,11.0,-18.0,-22.0,-7.0,6.0,-17.0,1651087053179243.0,2
1049,-31.0,-28.0,-1.0,0.0,8.0,3.0,-8.0,-5.0,1651087053179243.0,2
1050,48.0,52.0,9.0,14.0,16.0,-7.0,-13.0,8.0,1651087053180244.0,2
1051,-81.0,-58.0,-5.0,-34.0,-27.0,-7.0,-23.0,-86.0,1651087053180244.0,2
1052,56.0,5.0,-7.0,56.0,28.0,13.0,63.0,105.0,1651087053201468.0,2
1053,19.0,-12.0,-4.0,-7.0,-13.0,-2.0,-22.0,-15.0,1651087053201468.0,2
1054,-19.0,-10.0,2.0,-19.0,-13.0,-5.0,-12.0,-32.0,1651087053202508.0,2
1055,-75.0,-63.0,-3.0,16.0,4.0,-9.0,-23.0,-16.0,1651087053202508.0,2
1056,44.0,58.0,11.0,-21.0,-19.0,-3.0,-3.0,-5.0,1651087053215220.0,2
1057,-20.0,-41.0,-10.0,15.0,9.0,-5.0,-16.0,-25.0,1651087053215220.0,2
1058,-19.0,-30.0,-11.0,26.0,-4.0,2.0,11.0,21.0,1651087053224325.0,2
1059,16.0,4.0,-7.0,-14.0,-6.0,0.0,8.0,6.0,1651087053224325.0,2
1060,4.0,-1.0,4.0,-9.0,-8.0,2.0,-32.0,-34.0,1651087053239242.0,2
1061,-2.0,17.0,6.0,12.0,20.0,7.0,39.0,52.0,1651087053239242.0,2
1062,-24.0,-2.0,1.0,-15.0,0.0,-4.0,-25.0,-52.0,1651087053240243.0,2
1063,8.0,-22.0,-32.0,-11.0,-3.0,-1.0,11.0,34.0,1651087053240243.0,2
1064,-21.0,-74.0,4.0,15.0,1.0,-4.0,-5.0,11.0,1651087053261526.0,2
1065,-8.0,21.0,-4.0,-17.0,-18.0,-3.0,-9.0,-11.0,1651087053261526.0,2
1066,4.0,4.0,7.0,-3.0,-7.0,-2.0,19.0,24.0,1651087053262561.0,2
1067,83.0,22.0,-1.0,3.0,4.0,5.0,0.0,19.0,1651087053262561.0,2
1068,14.0,-17.0,8.0,16.0,14.0,4.0,16.0,-7.0,1651087053275801.0,2
1069,-24.0,23.0,-7.0,27.0,17.0,0.0,-24.0,-33.0,1651087053275801.0,2
1070,-3.0,-51.0,0.0,-8.0,-8.0,-8.0,-18.0,-20.0,1651087053284209.0,2
1071,-2.0,48.0,19.0,10.0,7.0,-2.0,6.0,32.0,1651087053284209.0,2
1072,-41.0,-1.0,-7.0,-1.0,8.0,2.0,7.0,-31.0,1651087053299218.0,2
1073,-14.0,-9.0,-5.0,-1.0,-12.0,-8.0,2.0,22.0,1651087053299218.0,2
1074,-9.0,-14.0,-30.0,-9.0,10.0,4.0,-5.0,-2.0,1651087053300218.0,2
1075,-14.0,5.0,0.0,-4.0,-13.0,-5.0,-17.0,-29.0,1651087053300218.0,2
1076,22.0,20.0,-2.0,-18.0,-14.0,-3.0,15.0,27.0,1651087053321729.0,2
1077,15.0,-11.0,-1.0,-10.0,-2.0,4.0,-3.0,10.0,1651087053321729.0,2
1078,-6.0,-20.0,9.0,27.0,19.0,4.0,12.0,3.0,1651087053322754.0,2
1079,-31.0,31.0,6.0,-16.0,-16.0,-4.0,-3.0,-5.0,1651087053322754.0,2
1080,30.0,63.0,3.0,-18.0,-13.0,-1.0,25.0,0.0,1651087053336049.0,2
1081,13.0,-73.0,-7.0,10.0,22.0,5.0,-20.0,-12.0,1651087053336049.0,2
1082,22.0,4.0,4.0,-24.0,-20.0,-9.0,-21.0,-17.0,1651087053350958.0,2
1083,36.0,30.0,15.0,21.0,20.0,8.0,16.0,12.0,1651087053350958.0,2
1084,37.0,-18.0,0.0,-37.0,-31.0,-11.0,-3.0,2.0,1651087053359223.0,2
1085,8.0,58.0,21.0,23.0,39.0,16.0,32.0,22.0,1651087053359223.0,2
1086,-35.0,-22.0,-10.0,-6.0,-10.0,-1.0,-3.0,-14.0,1651087053360224.0,2
1087,23.0,10.0,5.0,-8.0,-9.0,-4.0,-2.0,-24.0,1651087053360224.0,2
1088,-22.0,-3.0,-3.0,17.0,22.0,0.0,-14.0,19.0,1651087053381381.0,2
1089,-15.0,-4.0,-5.0,-25.0,-27.0,-7.0,-16.0,-12.0,1651087053381381.0,2
1090,53.0,62.0,-2.0,3.0,4.0,3.0,-8.0,-16.0,1651087053383244.0,2
1091,-12.0,26.0,29.0,14.0,3.0,3.0,10.0,31.0,1651087053383244.0,2
1092,-28.0,-16.0,-2.0,28.0,20.0,12.0,20.0,8.0,1651087053404322.0,2
1093,-8.0,-11.0,-21.0,-29.0,-12.0,-3.0,5.0,1.0,1651087053404322.0,2
1094,41.0,69.0,1.0,4.0,4.0,12.0,33.0,35.0,1651087053405183.0,2
1095,-33.0,-35.0,5.0,5.0,2.0,-4.0,-26.0,-40.0,1651087053405183.0,2
1096,61.0,13.0,12.0,10.0,5.0,4.0,23.0,40.0,1651087053419226.0,2
1097,-11.0,0.0,-10.0,-11.0,-7.0,-7.0,-30.0,-41.0,1651087053419226.0,2
1098,0.0,1.0,-4.0,-19.0,-20.0,-3.0,-31.0,-22.0,1651087053420226.0,2
1099,4.0,17.0,6.0,14.0,23.0,3.0,42.0,18.0,1651087053420226.0,2
1100,-30.0,-63.0,0.0,-1.0,-7.0,-6.0,-15.0,14.0,1651087053442500.0,2
1101,4.0,-1.0,5.0,-7.0,-5.0,-3.0,-6.0,-47.0,1651087053442500.0,2
1102,12.0,-19.0,-10.0,-16.0,-23.0,-12.0,-4.0,36.0,1651087053443060.0,2
1103,52.0,-15.0,-16.0,40.0,50.0,19.0,30.0,28.0,1651087053443060.0,2
1104,-43.0,15.0,20.0,20.0,5.0,-7.0,-22.0,-34.0,1651087053455341.0,2
1105,45.0,16.0,1.0,-21.0,-19.0,-5.0,-4.0,9.0,1651087053455341.0,2
1106,-32.0,-40.0,15.0,12.0,22.0,0.0,14.0,8.0,1651087053464062.0,2
1107,2.0,-17.0,0.0,-10.0,-8.0,0.0,-19.0,-17.0,1651087053464062.0,2
1108,-2.0,36.0,-26.0,0.0,-4.0,3.0,-5.0,-17.0,1651087053479227.0,2
1109,-18.0,-56.0,2.0,3.0,-4.0,-2.0,2.0,19.0,1651087053479227.0,2
1110,14.0,19.0,-4.0,-1.0,5.0,9.0,38.0,22.0,1651087053480228.0,2
1111,-25.0,-18.0,-14.0,-15.0,-11.0,-4.0,-15.0,6.0,1651087053480228.0,2
1112,5.0,30.0,8.0,-2.0,4.0,1.0,-7.0,-16.0,1651087053501417.0,2
1113,11.0,7.0,18.0,9.0,-8.0,-4.0,-14.0,-18.0,1651087053501417.0,2
1114,-6.0,-35.0,-20.0,-5.0,-19.0,-9.0,6.0,13.0,1651087053502418.0,2
1115,64.0,16.0,7.0,10.0,25.0,13.0,-2.0,-12.0,1651087053502418.0,2
1116,-60.0,-36.0,-16.0,-36.0,-18.0,-6.0,-2.0,20.0,1651087053515649.0,2
1117,-9.0,35.0,4.0,29.0,9.0,-1.0,5.0,-1.0,1651087053515649.0,2
1118,-2.0,3.0,-1.0,-21.0,-3.0,-1.0,7.0,6.0,1651087053523634.0,2
1119,-11.0,-6.0,6.0,-8.0,-22.0,-9.0,-19.0,-12.0,1651087053523634.0,2
1120,26.0,38.0,7.0,19.0,12.0,-1.0,-16.0,-30.0,1651087053539333.0,2
1121,-2.0,3.0,-7.0,-11.0,1.0,-1.0,7.0,14.0,1651087053539333.0,2
1122,-13.0,-12.0,4.0,5.0,10.0,2.0,0.0,-2.0,1651087053540194.0,2
1123,-18.0,10.0,4.0,-11.0,-15.0,-6.0,-12.0,0.0,1651087053540194.0,2
1124,-7.0,-31.0,-10.0,-22.0,-12.0,-3.0,-4.0,-20.0,1651087053561370.0,2
1125,2.0,11.0,1.0,27.0,13.0,4.0,12.0,19.0,1651087053561370.0,2
1126,-11.0,-26.0,2.0,2.0,4.0,4.0,0.0,6.0,1651087053563220.0,2
1127,-18.0,-10.0,0.0,8.0,10.0,3.0,-3.0,2.0,1651087053563220.0,2
1128,13.0,-6.0,-3.0,-2.0,-3.0,2.0,7.0,5.0,1651087053575372.0,2
1129,2.0,-3.0,-8.0,-11.0,-13.0,-6.0,-7.0,-9.0,1651087053575372.0,2
1130,-6.0,12.0,12.0,3.0,-3.0,-7.0,-10.0,-19.0,1651087053584209.0,2
1131,-7.0,-3.0,-6.0,-5.0,-2.0,1.0,5.0,18.0,1651087053584209.0,2
1132,11.0,-3.0,-5.0,9.0,3.0,-10.0,-5.0,0.0,1651087053598726.0,2
1133,-3.0,9.0,6.0,-8.0,-2.0,3.0,2.0,3.0,1651087053598726.0,2
1134,-10.0,-14.0,2.0,3.0,4.0,1.0,-3.0,-17.0,1651087053600608.0,2
1135,-13.0,-3.0,-26.0,-8.0,-2.0,4.0,3.0,3.0,1651087053600608.0,2
1136,-3.0,-11.0,-3.0,-5.0,-1.0,3.0,0.0,-16.0,1651087053621817.0,2
1137,7.0,1.0,10.0,4.0,-1.0,-17.0,-5.0,15.0,1651087053621817.0,2
1138,-6.0,-6.0,1.0,4.0,5.0,14.0,5.0,-7.0,1651087053622817.0,2
1139,-4.0,-6.0,12.0,7.0,-9.0,-2.0,2.0,13.0,1651087053622817.0,2
1140,9.0,9.0,-14.0,-12.0,6.0,-7.0,-6.0,-10.0,1651087053635231.0,2
1141,-10.0,-4.0,13.0,5.0,3.0,1.0,5.0,28.0,1651087053635231.0,2
1142,-21.0,1.0,-11.0,6.0,-6.0,-5.0,-6.0,-62.0,1651087053644224.0,2
1143,-11.0,-3.0,-17.0,-22.0,-9.0,-11.0,-20.0,-26.0,1651087053644224.0,2
1144,2.0,3.0,14.0,-3.0,0.0,20.0,20.0,0.0,1651087053659245.0,2
1145,16.0,-8.0,-19.0,-12.0,-1.0,-1.0,-2.0,-20.0,1651087053659245.0,2
1146,17.0,-5.0,3.0,-7.0,-2.0,-20.0,2.0,47.0,1651087053660246.0,2
1147,2.0,2.0,43.0,27.0,3.0,7.0,0.0,-48.0,1651087053660246.0,2
1148,-14.0,-7.0,-38.0,-17.0,-6.0,-5.0,-7.0,16.0,1651087053682195.0,2
1149,-31.0,2.0,-2.0,-4.0,1.0,1.0,-2.0,-50.0,1651087053682195.0,2
1150,14.0,11.0,13.0,21.0,9.0,-13.0,-12.0,59.0,1651087053682418.0,2
1151,1.0,4.0,8.0,-8.0,-3.0,16.0,11.0,-9.0,1651087053682418.0,2
1152,3.0,-4.0,-18.0,-5.0,-5.0,0.0,8.0,14.0,1651087053695396.0,2
1153,28.0,31.0,13.0,9.0,-3.0,13.0,-2.0,-7.0,1651087053695396.0,2
1154,-31.0,2.0,-11.0,-11.0,3.0,-6.0,-3.0,-2.0,1651087053704225.0,2
1155,9.0,4.0,4.0,-3.0,-3.0,-15.0,-6.0,-2.0,1651087053704225.0,2
1156,-3.0,-2.0,9.0,35.0,17.0,19.0,9.0,21.0,1651087053719241.0,2
1157,-9.0,-16.0,-6.0,-36.0,-10.0,-2.0,-8.0,-21.0,1651087053719241.0,2
1158,-9.0,6.0,25.0,45.0,14.0,-3.0,4.0,-29.0,1651087053720242.0,2
1159,34.0,-15.0,-58.0,-25.0,-10.0,3.0,15.0,24.0,1651087053720242.0,2
1160,25.0,-3.0,-9.0,-19.0,-9.0,-10.0,-11.0,1.0,1651087053741629.0,2
1161,-25.0,-6.0,34.0,11.0,4.0,-4.0,6.0,11.0,1651087053741629.0,2
1162,5.0,-8.0,-2.0,-7.0,-1.0,12.0,7.0,16.0,1651087053742630.0,2
1163,36.0,-2.0,-7.0,-6.0,-5.0,-16.0,-4.0,16.0,1651087053742630.0,2
1164,-1.0,1.0,37.0,16.0,4.0,-8.0,-3.0,-9.0,1651087053755331.0,2
1165,1.0,-2.0,-73.0,-3.0,4.0,1.0,-7.0,1.0,1651087053755331.0,2
1166,0.0,-8.0,-46.0,-60.0,-15.0,4.0,2.0,-4.0,1651087053763682.0,2
1167,-2.0,3.0,33.0,42.0,10.0,9.0,5.0,7.0,1651087053763682.0,2
1168,-12.0,-2.0,15.0,-4.0,0.0,-17.0,-8.0,10.0,1651087053778591.0,2
1169,19.0,10.0,-1.0,20.0,4.0,4.0,5.0,-2.0,1651087053778591.0,2
1170,-11.0,-11.0,0.0,-18.0,-7.0,3.0,-5.0,-14.0,1651087053785204.0,2
1171,-11.0,4.0,-5.0,-7.0,-3.0,-2.0,2.0,15.0,1651087053785204.0,2
1172,11.0,0.0,6.0,7.0,3.0,3.0,-1.0,-1.0,1651087053801352.0,2
1173,-4.0,3.0,35.0,24.0,4.0,1.0,0.0,-15.0,1651087053801352.0,2
1174,17.0,-7.0,-32.0,-13.0,0.0,5.0,0.0,-4.0,1651087053803217.0,2
1175,-24.0,-2.0,8.0,-23.0,-9.0,-9.0,-7.0,-16.0,1651087053803217.0,2
1176,13.0,3.0,22.0,12.0,6.0,8.0,0.0,-16.0,1651087053815316.0,2
1177,-9.0,-19.0,-41.0,-13.0,-6.0,2.0,2.0,25.0,1651087053815316.0,2
1178,-3.0,-1.0,4.0,19.0,1.0,-2.0,6.0,12.0,1651087053824199.0,2
1179,-14.0,4.0,-2.0,-2.0,0.0,1.0,-7.0,0.0,1651087053824199.0,2
1180,7.0,-4.0,-34.0,-8.0,2.0,5.0,4.0,-2.0,1651087053838602.0,2
1181,4.0,5.0,13.0,7.0,1.0,-3.0,-1.0,6.0,1651087053838602.0,2
1182,10.0,2.0,47.0,11.0,-2.0,0.0,6.0,9.0,1651087053845191.0,2
1183,-3.0,-1.0,4.0,6.0,3.0,-1.0,-5.0,9.0,1651087053845191.0,2
1184,-12.0,0.0,-22.0,-7.0,-7.0,-1.0,-2.0,-15.0,1651087053861749.0,2
1185,5.0,-3.0,-2.0,-9.0,-4.0,-3.0,0.0,8.0,1651087053861749.0,2
1186,-1.0,5.0,31.0,6.0,4.0,4.0,-1.0,11.0,1651087053862749.0,2
1187,-4.0,-4.0,-35.0,-14.0,-2.0,0.0,0.0,1.0,1651087053862749.0,2
1188,-1.0,-2.0,-4.0,7.0,0.0,-3.0,-3.0,-7.0,1651087053874692.0,2
1189,0.0,7.0,25.0,2.0,-2.0,0.0,1.0,11.0,1651087053874692.0,2
1190,-3.0,-5.0,-15.0,6.0,-1.0,-2.0,-1.0,-6.0,1651087053884191.0,2
1191,1.0,-3.0,8.0,10.0,2.0,-3.0,0.0,3.0,1651087053884191.0,2
1192,-4.0,-1.0,-3.0,-9.0,3.0,4.0,-1.0,-3.0,1651087053898578.0,2
1193,0.0,-4.0,1.0,-4.0,0.0,3.0,3.0,1.0,1651087053898578.0,2
1194,-19.0,-2.0,0.0,11.0,-1.0,-1.0,-5.0,-18.0,1651087053905197.0,2
1195,-16.0,-2.0,10.0,6.0,-2.0,-4.0,0.0,-5.0,1651087053905197.0,2
1196,-2.0,1.0,-8.0,-11.0,-3.0,-1.0,-1.0,2.0,1651087053922375.0,2
1197,5.0,0.0,1.0,-8.0,1.0,1.0,1.0,14.0,1651087053922375.0,2
1198,-1.0,1.0,4.0,12.0,3.0,-2.0,-6.0,-34.0,1651087053923090.0,2
1199,-3.0,0.0,9.0,-12.0,-2.0,-1.0,1.0,4.0,1651087053923090.0,2
1200,-2.0,-2.0,10.0,10.0,-4.0,-3.0,0.0,-1.0,1651087053943968.0,2
1201,9.0,1.0,-7.0,0.0,3.0,3.0,0.0,-1.0,1651087053943968.0,2
1202,4.0,-2.0,3.0,-8.0,-1.0,0.0,-2.0,8.0,1651087053945866.0,2
1203,-7.0,-2.0,-32.0,-4.0,-5.0,-1.0,-2.0,-2.0,1651087053945866.0,2
1204,-7.0,4.0,31.0,16.0,6.0,1.0,-2.0,-4.0,1651087053958151.0,2
1205,-5.0,-3.0,-8.0,-6.0,-6.0,-3.0,-5.0,-6.0,1651087053958151.0,2
1206,3.0,1.0,-6.0,-15.0,-2.0,-1.0,0.0,5.0,1651087053965132.0,2
1207,-4.0,-5.0,34.0,28.0,4.0,1.0,-2.0,-3.0,1651087053965132.0,2
1208,1.0,-3.0,-12.0,-3.0,-3.0,-3.0,-1.0,1.0,1651087053981754.0,2
1209,-3.0,-2.0,-6.0,-16.0,-9.0,-3.0,-1.0,1.0,1651087053981754.0,2
1210,3.0,-5.0,-23.0,4.0,4.0,3.0,1.0,10.0,1651087053982753.0,2
1211,-2.0,10.0,0.0,-2.0,5.0,0.0,-2.0,3.0,1651087053982753.0,2
1212,1.0,-6.0,-10.0,-1.0,-5.0,-6.0,-2.0,1.0,1651087054003954.0,2
1213,-4.0,-6.0,12.0,3.0,0.0,0.0,-2.0,-5.0,1651087054003954.0,2
1214,3.0,8.0,-14.0,-13.0,-9.0,-4.0,-3.0,1.0,1651087054004985.0,2
1215,-4.0,-3.0,-12.0,9.0,8.0,4.0,3.0,0.0,1651087054004985.0,2
1216,-1.0,-2.0,15.0,-2.0,2.0,2.0,1.0,2.0,1651087054019063.0,2
1217,0.0,12.0,14.0,6.0,-3.0,0.0,1.0,-1.0,1651087054019063.0,2
1218,-8.0,-9.0,-14.0,-9.0,-3.0,-3.0,-1.0,0.0,1651087054019966.0,2
1219,0.0,-2.0,-13.0,-2.0,-4.0,-1.0,-3.0,0.0,1651087054019966.0,2
1220,-3.0,3.0,5.0,-9.0,-2.0,-1.0,-3.0,-4.0,1651087054041028.0,2
1221,-2.0,-2.0,16.0,5.0,1.0,-2.0,-2.0,-3.0,1651087054041028.0,2
1222,0.0,-5.0,-4.0,0.0,6.0,6.0,2.0,0.0,1651087054049072.0,2
1223,0.0,1.0,15.0,-5.0,-2.0,-1.0,-1.0,1.0,1651087054049072.0,2
1224,1.0,-5.0,-21.0,-4.0,-3.0,0.0,3.0,13.0,1651087054064818.0,2
1225,-5.0,0.0,-15.0,-19.0,-7.0,-3.0,-6.0,-23.0,1651087054064818.0,2
1226,0.0,4.0,33.0,29.0,4.0,0.0,0.0,-2.0,1651087054066664.0,2
1227,2.0,-2.0,-10.0,-8.0,-5.0,-2.0,1.0,1.0,1651087054066664.0,2
1228,1.0,1.0,15.0,5.0,3.0,4.0,0.0,0.0,1651087054078775.0,2
1229,-1.0,0.0,-2.0,11.0,6.0,-1.0,1.0,6.0,1651087054078775.0,2
1230,1.0,-3.0,-25.0,-13.0,-3.0,-3.0,-2.0,-2.0,1651087054086024.0,2
1231,0.0,-2.0,0.0,-1.0,0.0,1.0,0.0,-2.0,1651087054086024.0,2
1232,-3.0,-4.0,1.0,-3.0,-6.0,-2.0,-1.0,-1.0,1651087054102226.0,2
1233,3.0,9.0,-12.0,0.0,6.0,1.0,0.0,3.0,1651087054102226.0,2
1234,1.0,-1.0,1.0,-5.0,-6.0,-4.0,-3.0,-1.0,1651087054103091.0,2
1235,-1.0,-2.0,1.0,-4.0,-5.0,-2.0,-1.0,2.0,1651087054103091.0,2
1236,3.0,7.0,-7.0,0.0,2.0,1.0,0.0,-1.0,1651087054124561.0,2
1237,-3.0,-12.0,14.0,1.0,-1.0,-1.0,0.0,1.0,1651087054124561.0,2
1238,1.0,-5.0,-40.0,-18.0,-2.0,1.0,2.0,3.0,1651087054125486.0,2
1239,0.0,4.0,13.0,7.0,-2.0,-2.0,-1.0,-1.0,1651087054125486.0,2
1240,-1.0,-5.0,3.0,6.0,-5.0,-3.0,-4.0,-4.0,1651087054138532.0,2
1241,1.0,11.0,-8.0,3.0,7.0,1.0,1.0,0.0,1651087054138532.0,2
1242,-4.0,-4.0,15.0,4.0,2.0,-1.0,0.0,-3.0,1651087054145526.0,2
1243,-1.0,-2.0,-4.0,-6.0,-1.0,0.0,1.0,1.0,1651087054145526.0,2
1244,-2.0,-5.0,7.0,8.0,-1.0,1.0,-1.0,-2.0,1651087054162156.0,2
1245,-2.0,-2.0,7.0,-1.0,-7.0,-3.0,1.0,3.0,1651087054162156.0,2
1246,-2.0,0.0,-3.0,5.0,-6.0,-3.0,1.0,0.0,1651087054162560.0,2
1247,0.0,-3.0,-18.0,-2.0,10.0,7.0,0.0,0.0,1651087054162560.0,2
1248,-2.0,6.0,17.0,-2.0,-3.0,-3.0,-3.0,-2.0,1651087054184752.0,2
1249,-1.0,-3.0,-2.0,-1.0,-3.0,-1.0,-1.0,0.0,1651087054184752.0,2
1250,0.0,2.0,11.0,2.0,2.0,3.0,0.0,0.0,1651087054185641.0,2
1251,-2.0,-4.0,-18.0,-7.0,-7.0,-7.0,-2.0,-2.0,1651087054185641.0,2
1252,2.0,-3.0,-11.0,3.0,7.0,4.0,3.0,1.0,1651087054198627.0,2
1253,-1.0,2.0,2.0,-1.0,-1.0,0.0,-3.0,0.0,1651087054198627.0,2
1254,1.0,-11.0,0.0,-4.0,-4.0,-2.0,0.0,-1.0,1651087054205216.0,2
1255,1.0,4.0,27.0,12.0,1.0,-2.0,-3.0,-1.0,1651087054205216.0,2
1256,-2.0,-6.0,-34.0,-15.0,-1.0,-1.0,-2.0,-3.0,1651087054221905.0,2
1257,-1.0,0.0,-14.0,-20.0,-4.0,-3.0,1.0,-1.0,1651087054221905.0,2
1258,0.0,6.0,26.0,37.0,7.0,2.0,1.0,1.0,1651087054222755.0,2
1259,-1.0,-2.0,-14.0,-5.0,-1.0,3.0,-1.0,-2.0,1651087054222755.0,2
1260,-1.0,0.0,6.0,-1.0,-9.0,-5.0,1.0,-1.0,1651087054243237.0,2
1261,1.0,-7.0,-10.0,0.0,-2.0,0.0,1.0,1.0,1651087054243237.0,2
1262,0.0,2.0,4.0,-4.0,3.0,5.0,-1.0,-1.0,1651087054245189.0,2
1263,-1.0,6.0,5.0,-1.0,-2.0,-3.0,0.0,-2.0,1651087054245189.0,2
1264,-1.0,-3.0,5.0,5.0,1.0,1.0,1.0,0.0,1651087054258942.0,2
1265,-2.0,-4.0,-10.0,-5.0,-9.0,-4.0,-3.0,-1.0,1651087054258942.0,2
1266,1.0,3.0,8.0,6.0,4.0,1.0,2.0,0.0,1651087054265225.0,2
1267,-2.0,3.0,10.0,4.0,1.0,-1.0,0.0,2.0,1651087054265225.0,2
1268,0.0,3.0,-4.0,-23.0,-2.0,0.0,-1.0,-2.0,1651087054281280.0,2
1269,0.0,-9.0,-11.0,-1.0,-5.0,-1.0,-1.0,0.0,1651087054281280.0,2
1270,-1.0,0.0,-8.0,-3.0,3.0,0.0,-1.0,1.0,1651087054283275.0,2
1271,0.0,1.0,6.0,-1.0,-2.0,-2.0,-2.0,-2.0,1651087054283275.0,2
1272,0.0,6.0,3.0,-1.0,0.0,-1.0,0.0,-1.0,1651087054304532.0,2
1273,-3.0,-11.0,25.0,25.0,4.0,2.0,-2.0,-1.0,1651087054304532.0,2
1274,2.0,4.0,-23.0,-14.0,-6.0,-5.0,-2.0,-1.0,1651087054305490.0,2
1275,-2.0,-3.0,7.0,4.0,1.0,6.0,1.0,1.0,1651087054305490.0,2
1276,2.0,0.0,-4.0,-1.0,-4.0,-3.0,-2.0,-1.0,1651087054318649.0,2
1277,0.0,2.0,12.0,9.0,12.0,5.0,2.0,-3.0,1651087054318649.0,2
1278,0.0,5.0,-4.0,-14.0,-1.0,2.0,-1.0,0.0,1651087054325790.0,2
1279,-1.0,-5.0,19.0,23.0,-1.0,-3.0,0.0,1.0,1651087054325790.0,2
1280,-1.0,-1.0,-26.0,-9.0,-4.0,-4.0,-4.0,-2.0,1651087054342270.0,2
1281,0.0,-5.0,-12.0,-14.0,-5.0,1.0,0.0,1.0,1651087054342270.0,2
1282,-2.0,7.0,28.0,20.0,3.0,-1.0,0.0,-1.0,1651087054343091.0,2
1283,1.0,0.0,-3.0,-11.0,1.0,1.0,2.0,0.0,1651087054343091.0,2
1284,0.0,0.0,5.0,2.0,1.0,0.0,1.0,0.0,1651087054364202.0,2
1285,-2.0,-7.0,-12.0,1.0,-4.0,-1.0,1.0,0.0,1651087054364202.0,2
1286,1.0,-2.0,-7.0,-2.0,6.0,1.0,-1.0,0.0,1651087054365068.0,2
1287,-3.0,1.0,-10.0,-12.0,-3.0,-4.0,-2.0,-2.0,1651087054365068.0,2
1288,0.0,3.0,-1.0,3.0,4.0,2.0,0.0,0.0,1651087054378699.0,2
1289,-1.0,1.0,20.0,8.0,-3.0,-5.0,-1.0,0.0,1651087054378699.0,2
1290,-1.0,-2.0,0.0,0.0,-5.0,1.0,0.0,-1.0,1651087054385044.0,2
1291,-2.0,-3.0,4.0,-1.0,1.0,3.0,-1.0,-2.0,1651087054385044.0,2
1292,2.0,0.0,4.0,5.0,3.0,-2.0,0.0,0.0,1651087054401550.0,2
1293,-1.0,5.0,-12.0,-5.0,-2.0,-2.0,-1.0,-2.0,1651087054401550.0,2
1294,-1.0,-11.0,5.0,-2.0,-1.0,1.0,0.0,0.0,1651087054402552.0,2
1295,1.0,5.0,-7.0,-5.0,-3.0,-3.0,-1.0,-1.0,1651087054402552.0,2
1296,-4.0,-3.0,8.0,2.0,-3.0,-2.0,0.0,-1.0,1651087054424374.0,2
1297,0.0,3.0,-2.0,-3.0,5.0,2.0,1.0,1.0,1651087054424374.0,2
1298,-1.0,-1.0,7.0,1.0,-4.0,-6.0,-2.0,-2.0,1651087054425230.0,2
1299,0.0,-5.0,-14.0,-4.0,-3.0,0.0,1.0,0.0,1651087054425230.0,2
1300,0.0,-3.0,-13.0,-3.0,1.0,3.0,0.0,-1.0,1651087054438335.0,2
1301,0.0,2.0,6.0,9.0,5.0,1.0,0.0,-1.0,1651087054438335.0,2
1302,-1.0,-3.0,-13.0,-13.0,-3.0,-2.0,-2.0,-2.0,1651087054446220.0,2
1303,0.0,0.0,16.0,9.0,0.0,-1.0,1.0,1.0,1651087054446220.0,2
1304,1.0,-3.0,-7.0,6.0,-4.0,0.0,-1.0,0.0,1651087054461400.0,2
1305,0.0,3.0,16.0,0.0,5.0,-2.0,-1.0,-1.0,1651087054461400.0,2
1306,-1.0,-2.0,-15.0,-3.0,-4.0,3.0,0.0,-2.0,1651087054463231.0,2
1307,-1.0,-3.0,-1.0,-3.0,-1.0,-1.0,1.0,-1.0,1651087054463231.0,2
1308,-1.0,-1.0,-3.0,-2.0,4.0,4.0,1.0,0.0,1651087054484390.0,2
1309,1.0,-3.0,-8.0,-6.0,-2.0,1.0,-1.0,-1.0,1651087054484390.0,2
1310,0.0,3.0,13.0,-2.0,-5.0,-3.0,0.0,-1.0,1651087054491371.0,2
1311,-3.0,0.0,-2.0,1.0,-1.0,-1.0,-1.0,0.0,1651087054491371.0,2
1312,-1.0,-3.0,6.0,3.0,-3.0,0.0,1.0,-1.0,1651087054498507.0,2
1313,-1.0,6.0,5.0,-12.0,-6.0,-3.0,1.0,1.0,1651087054498507.0,2
1314,0.0,-4.0,-2.0,14.0,3.0,2.0,1.0,0.0,1651087054513369.0,2
1315,0.0,-2.0,-6.0,0.0,1.0,-3.0,-3.0,-2.0,1651087054513369.0,2
1316,0.0,2.0,1.0,-1.0,3.0,2.0,-1.0,1.0,1651087054521228.0,2
1317,0.0,0.0,0.0,2.0,-1.0,-3.0,-1.0,1.0,1651087054521228.0,2
1318,-1.0,-1.0,-2.0,0.0,1.0,1.0,0.0,0.0,1651087054523249.0,2
1319,-1.0,-5.0,-9.0,-14.0,-2.0,-2.0,0.0,-1.0,1651087054523249.0,2
1320,0.0,2.0,10.0,2.0,-2.0,-2.0,-2.0,0.0,1651087054544329.0,2
1321,0.0,-2.0,-11.0,-8.0,-5.0,-3.0,-3.0,-2.0,1651087054544329.0,2
1322,-1.0,3.0,-3.0,3.0,-4.0,-1.0,-1.0,0.0,1651087054545222.0,2
1323,-2.0,-6.0,-10.0,1.0,3.0,0.0,-3.0,-2.0,1651087054545222.0,2
1324,0.0,1.0,4.0,-6.0,3.0,4.0,-1.0,-1.0,1651087054558209.0,2
1325,-1.0,-1.0,-15.0,-3.0,0.0,-1.0,2.0,1.0,1651087054558209.0,2
1326,-2.0,-9.0,24.0,11.0,-2.0,-3.0,0.0,-1.0,1651087054566247.0,2
1327,0.0,8.0,-21.0,-3.0,-3.0,0.0,0.0,1.0,1651087054566247.0,0
1328,1.0,-4.0,-6.0,-6.0,-3.0,-1.0,0.0,1.0,1651087054581568.0,0
1329,-3.0,3.0,16.0,13.0,5.0,4.0,-2.0,0.0,1651087054581568.0,0
1330,1.0,1.0,-9.0,-2.0,-2.0,-2.0,-1.0,1.0,1651087054582568.0,0
1331,-1.0,1.0,18.0,0.0,1.0,0.0,-1.0,1.0,1651087054582568.0,0
1332,-1.0,-1.0,-1.0,1.0,-5.0,-1.0,0.0,0.0,1651087054604248.0,0
1333,0.0,0.0,3.0,10.0,9.0,3.0,1.0,2.0,1651087054604248.0,0
1334,0.0,2.0,-21.0,-15.0,-4.0,-3.0,-1.0,-1.0,1651087054605194.0,0
1335,-1.0,-10.0,-4.0,-7.0,-2.0,-1.0,-2.0,-2.0,1651087054605194.0,0
1336,2.0,1.0,20.0,21.0,5.0,-3.0,0.0,-1.0,1651087054618242.0,0
1337,-1.0,-4.0,-13.0,-9.0,-1.0,-1.0,-1.0,-2.0,1651087054618242.0,0
1338,0.0,0.0,-1.0,-3.0,-2.0,0.0,0.0,-1.0,1651087054626384.0,0
1339,3.0,5.0,5.0,-3.0,-4.0,-5.0,0.0,2.0,1651087054626384.0,0
1340,-1.0,0.0,8.0,1.0,3.0,4.0,1.0,-1.0,1651087054641652.0,0
1341,-2.0,-4.0,-15.0,-11.0,-1.0,1.0,2.0,1.0,1651087054641652.0,0
1342,-1.0,1.0,1.0,4.0,4.0,0.0,-2.0,-2.0,1651087054642652.0,0
1343,-2.0,-4.0,2.0,7.0,-1.0,0.0,1.0,-2.0,1651087054642652.0,0
1344,0.0,0.0,-8.0,-4.0,-4.0,-5.0,-1.0,0.0,1651087054663779.0,0
1345,0.0,2.0,7.0,5.0,-2.0,-1.0,0.0,-1.0,1651087054663779.0,0
1346,0.0,1.0,-7.0,-9.0,2.0,3.0,0.0,0.0,1651087054665670.0,0
1347,-1.0,0.0,8.0,6.0,1.0,0.0,-2.0,0.0,1651087054665670.0,0
1348,0.0,2.0,-3.0,0.0,1.0,-1.0,-1.0,0.0,1651087054678076.0,0
1349,1.0,-1.0,-11.0,-1.0,-4.0,-2.0,0.0,-1.0,1651087054678076.0,0
1350,-1.0,-2.0,18.0,5.0,-2.0,-3.0,-1.0,-1.0,1651087054686126.0,0
1351,1.0,4.0,-28.0,-11.0,2.0,3.0,1.0,0.0,1651087054686126.0,0
1352,-3.0,-4.0,0.0,5.0,-2.0,-4.0,0.0,-2.0,1651087054701444.0,0
1353,2.0,2.0,6.0,2.0,2.0,3.0,1.0,0.0,1651087054701444.0,0
1354,1.0,-3.0,-7.0,-8.0,-7.0,-5.0,-1.0,-1.0,1651087054702476.0,0
1355,-5.0,-13.0,-16.0,-7.0,-9.0,-5.0,-4.0,-4.0,1651087054702476.0,0
1356,0.0,10.0,10.0,7.0,11.0,6.0,0.0,-1.0,1651087054724350.0,0
1357,1.0,-4.0,-8.0,0.0,-5.0,-4.0,0.0,-1.0,1651087054724350.0,0
1358,1.0,4.0,26.0,16.0,16.0,10.0,1.0,1.0,1651087054725217.0,0
1359,1.0,1.0,0.0,-1.0,3.0,2.0,1.0,-1.0,1651087054725217.0,0
1360,-1.0,-6.0,-7.0,-10.0,-4.0,-3.0,0.0,0.0,1651087054737255.0,0
1361,-1.0,-6.0,8.0,6.0,-3.0,-3.0,-4.0,-3.0,1651087054737255.0,0
1362,-1.0,10.0,-2.0,-3.0,-6.0,-5.0,0.0,0.0,1651087054746205.0,0
1363,0.0,-1.0,3.0,6.0,0.0,2.0,1.0,0.0,1651087054746205.0,0
1364,-2.0,-5.0,-9.0,-3.0,-2.0,0.0,-1.0,0.0,1651087054761149.0,0
1365,0.0,3.0,-4.0,-6.0,0.0,0.0,-1.0,0.0,1651087054761149.0,0
1366,-1.0,-8.0,-14.0,-7.0,-4.0,-1.0,0.0,-1.0,1651087054763146.0,0
1367,2.0,5.0,20.0,8.0,2.0,1.0,0.0,0.0,1651087054763146.0,0
1368,1.0,0.0,-6.0,-17.0,-1.0,0.0,0.0,0.0,1651087054790117.0,0
1369,-2.0,-2.0,4.0,10.0,0.0,0.0,0.0,-1.0,1651087054790117.0,0
1370,0.0,-8.0,-9.0,-7.0,-6.0,-3.0,-2.0,-1.0,1651087054799094.0,0
1371,1.0,3.0,3.0,5.0,3.0,0.0,0.0,1.0,1651087054799094.0,0
1372,-2.0,-4.0,-2.0,-3.0,3.0,1.0,2.0,1.0,1651087054800046.0,0
1373,-1.0,-1.0,2.0,4.0,-1.0,3.0,-1.0,-1.0,1651087054800046.0,0
1374,-1.0,-1.0,5.0,6.0,8.0,3.0,0.0,0.0,1651087054806030.0,0
1375,-1.0,-1.0,-8.0,-11.0,-8.0,-3.0,-1.0,0.0,1651087054806030.0,0
1376,0.0,0.0,5.0,3.0,0.0,-2.0,-3.0,-1.0,1651087054821005.0,0
1377,1.0,2.0,-5.0,8.0,8.0,1.0,-1.0,1.0,1651087054821005.0,0
1378,0.0,3.0,-2.0,-11.0,-12.0,-6.0,-1.0,-2.0,1651087054822985.0,0
1379,-3.0,-4.0,-1.0,9.0,14.0,7.0,0.0,-1.0,1651087054822985.0,0
1380,0.0,0.0,4.0,-4.0,-6.0,-1.0,-1.0,-1.0,1651087054844045.0,0
1381,-2.0,2.0,6.0,11.0,12.0,1.0,0.0,-2.0,1651087054844045.0,0
1382,-2.0,-3.0,5.0,-7.0,2.0,2.0,-1.0,-1.0,1651087054845028.0,0
1383,-1.0,1.0,-3.0,6.0,-6.0,-3.0,-2.0,-1.0,1651087054845028.0,0
1384,-2.0,-14.0,-3.0,2.0,-7.0,-4.0,-2.0,1.0,1651087054867159.0,0
1385,-1.0,17.0,10.0,-6.0,8.0,4.0,1.0,-1.0,1651087054867159.0,0
1386,0.0,-3.0,-5.0,-6.0,3.0,1.0,0.0,-2.0,1651087054867998.0,0
1387,2.0,-2.0,1.0,0.0,-2.0,2.0,-1.0,1.0,1651087054867998.0,0
1388,1.0,2.0,-13.0,-10.0,-10.0,-3.0,-2.0,-2.0,1651087054881781.0,0
1389,1.0,-8.0,-4.0,-1.0,0.0,-3.0,0.0,0.0,1651087054881781.0,0
1390,-2.0,0.0,-1.0,-7.0,-7.0,-3.0,-1.0,-1.0,1651087054882781.0,0
1391,-1.0,5.0,5.0,5.0,-1.0,1.0,0.0,-1.0,1651087054882781.0,0
1392,1.0,-1.0,3.0,9.0,6.0,1.0,1.0,0.0,1651087054904083.0,0
1393,-2.0,-8.0,-12.0,-15.0,-11.0,-4.0,-3.0,-2.0,1651087054904083.0,0
1394,0.0,1.0,-2.0,2.0,-6.0,-3.0,0.0,-1.0,1651087054904915.0,0
1395,-1.0,-2.0,4.0,4.0,10.0,0.0,2.0,2.0,1651087054904915.0,0
1396,0.0,2.0,7.0,5.0,3.0,2.0,0.0,0.0,1651087054926794.0,0
1397,-3.0,-9.0,-29.0,-16.0,-16.0,-5.0,-1.0,-1.0,1651087054926794.0,0
1398,1.0,8.0,13.0,16.0,9.0,2.0,-1.0,-1.0,1651087054927795.0,0
1399,-1.0,4.0,10.0,5.0,12.0,5.0,2.0,-1.0,1651087054927795.0,0
1400,-3.0,-2.0,-8.0,-13.0,-32.0,-13.0,-6.0,-3.0,1651087054942050.0,0
1401,0.0,1.0,7.0,10.0,32.0,7.0,0.0,0.0,1651087054942050.0,0
1402,0.0,-7.0,-8.0,-16.0,-17.0,1.0,-1.0,1.0,1651087054943073.0,0
1403,0.0,7.0,2.0,-4.0,-16.0,-6.0,0.0,0.0,1651087054943073.0,0
1404,0.0,0.0,-5.0,8.0,13.0,5.0,1.0,1.0,1651087054963222.0,0
1405,-2.0,-3.0,1.0,-8.0,-19.0,-12.0,-4.0,-2.0,1651087054963222.0,0
1406,-5.0,1.0,-13.0,-11.0,-7.0,-2.0,-3.0,-3.0,1651087054964219.0,0
1407,-2.0,-10.0,7.0,3.0,-4.0,-7.0,-4.0,-2.0,1651087054964219.0,0
1408,1.0,2.0,-1.0,-25.0,-18.0,-5.0,0.0,0.0,1651087054985713.0,0
1409,4.0,0.0,0.0,0.0,-8.0,0.0,0.0,2.0,1651087054985713.0,0
1410,-3.0,-5.0,-12.0,15.0,13.0,2.0,0.0,0.0,1651087054986546.0,0
1411,3.0,2.0,0.0,-3.0,4.0,6.0,1.0,-1.0,1651087054986546.0,0
1412,-7.0,-5.0,0.0,-6.0,-2.0,-5.0,-3.0,-2.0,1651087055000655.0,0
1413,-4.0,-8.0,-5.0,4.0,10.0,7.0,0.0,-1.0,1651087055000655.0,0
1414,3.0,0.0,11.0,12.0,8.0,-1.0,3.0,4.0,1651087055001506.0,0
1415,8.0,17.0,-7.0,-11.0,-18.0,-8.0,-1.0,3.0,1651087055001506.0,0
1416,-1.0,-4.0,5.0,-1.0,5.0,2.0,-3.0,-5.0,1651087055023891.0,0
1417,-1.0,-10.0,-1.0,7.0,-2.0,6.0,4.0,2.0,1651087055023891.0,0
1418,-15.0,-7.0,5.0,0.0,7.0,2.0,4.0,2.0,1651087055023891.0,0
1419,7.0,11.0,-8.0,-3.0,-7.0,-6.0,-4.0,-6.0,1651087055023891.0,0
1420,-15.0,-6.0,-9.0,4.0,0.0,-2.0,-3.0,-4.0,1651087055045366.0,0
1421,7.0,12.0,6.0,-8.0,-1.0,0.0,-1.0,0.0,1651087055045366.0,0
1422,6.0,1.0,4.0,7.0,-1.0,0.0,0.0,0.0,1651087055046212.0,0
1423,-14.0,2.0,-16.0,-8.0,0.0,-3.0,-3.0,-3.0,1651087055046212.0,0
1424,34.0,6.0,4.0,8.0,7.0,5.0,5.0,11.0,1651087055068736.0,0
1425,-8.0,19.0,7.0,-5.0,-1.0,2.0,0.0,-4.0,1651087055068736.0,0
1426,7.0,-15.0,-3.0,14.0,2.0,4.0,1.0,2.0,1651087055069606.0,0
1427,-3.0,3.0,8.0,-12.0,7.0,5.0,0.0,-1.0,1651087055069606.0,0
1428,-18.0,-14.0,-15.0,-7.0,-2.0,-3.0,-3.0,0.0,1651087055084405.0,0
1429,9.0,-3.0,2.0,9.0,-5.0,-3.0,-2.0,2.0,1651087055084405.0,0
1430,11.0,23.0,15.0,-5.0,-6.0,-6.0,-7.0,-6.0,1651087055085237.0,0
1431,-16.0,-35.0,-3.0,6.0,15.0,8.0,5.0,3.0,1651087055085237.0,0
1432,-7.0,18.0,4.0,-4.0,-1.0,-1.0,-1.0,-3.0,1651087055105595.0,0
1433,13.0,-5.0,-6.0,3.0,-3.0,-1.0,2.0,4.0,1651087055105595.0,0
1434,-7.0,4.0,-6.0,-2.0,-2.0,-2.0,-7.0,-8.0,1651087055106425.0,0
1435,35.0,18.0,-3.0,-4.0,-10.0,-2.0,0.0,3.0,1651087055106425.0,0
1436,-41.0,-44.0,12.0,15.0,9.0,3.0,0.0,-5.0,1651087055119719.0,0
1437,8.0,23.0,-12.0,-2.0,2.0,-1.0,-2.0,0.0,1651087055119719.0,3
1438,0.0,-49.0,-11.0,8.0,0.0,-2.0,3.0,6.0,1651087055135390.0,3
1439,-7.0,20.0,8.0,-18.0,-8.0,-3.0,-4.0,-6.0,1651087055135390.0,3
1440,-9.0,-2.0,-14.0,-2.0,-1.0,-3.0,-2.0,-4.0,1651087055143218.0,3
1441,-19.0,16.0,19.0,1.0,2.0,5.0,-2.0,-2.0,1651087055143218.0,3
1442,-1.0,7.0,-7.0,-9.0,-3.0,-4.0,1.0,2.0,1651087055144249.0,3
1443,38.0,-8.0,-3.0,13.0,12.0,4.0,3.0,8.0,1651087055144249.0,3
1444,-6.0,-9.0,6.0,8.0,-9.0,-4.0,2.0,-1.0,1651087055165664.0,3
1445,-13.0,-27.0,14.0,-5.0,8.0,8.0,3.0,2.0,1651087055165664.0,3
1446,-4.0,42.0,-1.0,-8.0,-1.0,0.0,-1.0,-2.0,1651087055166541.0,3
1447,5.0,-12.0,2.0,-4.0,-8.0,-5.0,-7.0,-5.0,1651087055166541.0,3
1448,30.0,29.0,-5.0,7.0,15.0,7.0,5.0,6.0,1651087055180190.0,3
1449,-7.0,-7.0,0.0,-4.0,-23.0,-13.0,-2.0,-1.0,1651087055180190.0,3
1450,-19.0,-20.0,6.0,5.0,12.0,6.0,-3.0,-9.0,1651087055189183.0,3
1451,0.0,2.0,-8.0,16.0,20.0,5.0,3.0,0.0,1651087055189183.0,3
1452,40.0,20.0,12.0,-14.0,-18.0,0.0,6.0,17.0,1651087055203435.0,3
1453,-30.0,-8.0,-9.0,10.0,25.0,10.0,5.0,4.0,1651087055203435.0,3
1454,-11.0,-1.0,-12.0,-4.0,-6.0,2.0,3.0,-5.0,1651087055203435.0,3
1455,9.0,14.0,3.0,-5.0,-12.0,-5.0,2.0,4.0,1651087055203435.0,3
1456,10.0,33.0,8.0,7.0,2.0,1.0,-8.0,-22.0,1651087055225324.0,3
1457,1.0,-14.0,0.0,-3.0,-15.0,-11.0,-11.0,5.0,1651087055225324.0,3
1458,69.0,45.0,4.0,-8.0,2.0,4.0,8.0,3.0,1651087055226196.0,3
1459,-68.0,12.0,-5.0,-3.0,-24.0,-12.0,-10.0,-6.0,1651087055226196.0,3
1460,21.0,-79.0,4.0,1.0,23.0,7.0,-1.0,12.0,1651087055240355.0,3
1461,50.0,79.0,-1.0,-14.0,-18.0,-12.0,0.0,2.0,1651087055240355.0,3
1462,-70.0,-87.0,-15.0,-10.0,12.0,-2.0,-12.0,-35.0,1651087055247868.0,3
1463,16.0,47.0,6.0,17.0,-26.0,-13.0,-10.0,0.0,1651087055247868.0,3
1464,28.0,15.0,11.0,10.0,15.0,17.0,-4.0,-10.0,1651087055263180.0,3
1465,-11.0,0.0,7.0,-7.0,-23.0,-12.0,13.0,25.0,1651087055263180.0,3
1466,15.0,7.0,-14.0,-12.0,2.0,-8.0,-23.0,-6.0,1651087055264212.0,3
1467,-4.0,25.0,-2.0,-8.0,-2.0,7.0,18.0,-4.0,1651087055264212.0,3
1468,-46.0,-30.0,-14.0,-9.0,-9.0,-18.0,-32.0,-53.0,1651087055285342.0,3
1469,1.0,-6.0,-10.0,-7.0,-5.0,-2.0,-3.0,4.0,1651087055285342.0,3
1470,5.0,-9.0,7.0,-14.0,-30.0,-3.0,20.0,31.0,1651087055286195.0,3
1471,29.0,-57.0,11.0,1.0,-20.0,-23.0,-25.0,15.0,1651087055286195.0,3
1472,-37.0,12.0,10.0,12.0,42.0,20.0,27.0,9.0,1651087055308340.0,3
1473,20.0,-8.0,-35.0,3.0,23.0,6.0,-16.0,-26.0,1651087055308340.0,3
1474,-44.0,-35.0,8.0,0.0,-34.0,-14.0,-16.0,-33.0,1651087055309217.0,3
1475,27.0,-4.0,-5.0,-15.0,35.0,24.0,14.0,-8.0,1651087055309217.0,3
1476,-6.0,-16.0,8.0,29.0,17.0,-7.0,-24.0,31.0,1651087055323385.0,3
1477,-11.0,-2.0,6.0,1.0,5.0,10.0,2.0,-13.0,1651087055323385.0,3
1478,38.0,17.0,13.0,9.0,12.0,7.0,18.0,30.0,1651087055324248.0,3
1479,-45.0,-21.0,-9.0,0.0,14.0,6.0,6.0,-11.0,1651087055324248.0,3
1480,31.0,13.0,-2.0,-16.0,-45.0,-15.0,-17.0,-12.0,1651087055345348.0,3
1481,20.0,71.0,18.0,4.0,16.0,4.0,-14.0,-4.0,1651087055345348.0,3
1482,63.0,-64.0,-23.0,8.0,23.0,7.0,36.0,42.0,1651087055346201.0,3
1483,-3.0,37.0,8.0,0.0,-5.0,-3.0,-12.0,-11.0,1651087055346201.0,3
1484,-29.0,-41.0,-10.0,-7.0,-20.0,-7.0,9.0,12.0,1651087055360389.0,3
1485,-41.0,-50.0,-12.0,-23.0,-46.0,-16.0,-5.0,-36.0,1651087055360389.0,3
1486,71.0,106.0,35.0,30.0,32.0,12.0,28.0,11.0,1651087055368350.0,3
1487,-11.0,-31.0,-1.0,4.0,-4.0,-2.0,-15.0,22.0,1651087055368350.0,3
1488,58.0,36.0,32.0,9.0,-1.0,0.0,11.0,1.0,1651087055383206.0,3
1489,-9.0,71.0,-1.0,-20.0,-13.0,1.0,18.0,30.0,1651087055383206.0,3
1490,-29.0,-56.0,-25.0,-3.0,-10.0,-4.0,-13.0,-21.0,1651087055384237.0,3
1491,-57.0,30.0,9.0,10.0,-2.0,5.0,4.0,6.0,1651087055384237.0,3
1492,13.0,6.0,-2.0,-16.0,-4.0,-5.0,-10.0,-12.0,1651087055413672.0,3
1493,-22.0,24.0,0.0,-6.0,15.0,6.0,11.0,-2.0,1651087055413672.0,3
1494,-6.0,48.0,10.0,31.0,8.0,11.0,19.0,3.0,1651087055414536.0,3
1495,43.0,-11.0,-9.0,-14.0,-1.0,-11.0,-26.0,0.0,1651087055414536.0,3
1496,-110.0,-96.0,-17.0,6.0,5.0,-3.0,-2.0,-33.0,1651087055419555.0,3
1497,5.0,48.0,19.0,0.0,-4.0,6.0,16.0,35.0,1651087055419555.0,3
1498,-5.0,-69.0,-21.0,-57.0,-11.0,2.0,-16.0,-7.0,1651087055428759.0,3
1499,-9.0,-17.0,0.0,36.0,35.0,12.0,13.0,-3.0,1651087055428759.0,3
1500,15.0,69.0,-13.0,4.0,-13.0,1.0,25.0,33.0,1651087055443212.0,3
1501,-3.0,-32.0,12.0,-8.0,-4.0,-3.0,-16.0,-37.0,1651087055443212.0,3
1502,-16.0,99.0,-5.0,-3.0,-8.0,-15.0,-37.0,-5.0,1651087055444244.0,3
1503,14.0,-67.0,-1.0,-11.0,-6.0,3.0,9.0,-2.0,1651087055444244.0,3
1504,-25.0,1.0,-12.0,-7.0,-15.0,-5.0,11.0,5.0,1651087055466492.0,3
1505,24.0,-34.0,2.0,17.0,31.0,15.0,16.0,18.0,1651087055466492.0,3
1506,-48.0,3.0,34.0,3.0,-4.0,-1.0,-17.0,-28.0,1651087055466492.0,3
1507,25.0,84.0,10.0,-21.0,-25.0,-4.0,8.0,2.0,1651087055466492.0,3
1508,35.0,42.0,-8.0,49.0,72.0,20.0,-8.0,5.0,1651087055480205.0,3
1509,18.0,-26.0,-12.0,-7.0,-29.0,-20.0,-6.0,-4.0,1651087055480205.0,3
1510,48.0,-57.0,-8.0,8.0,8.0,4.0,8.0,11.0,1651087055488427.0,3
1511,-89.0,17.0,1.0,-7.0,-31.0,-13.0,-9.0,-7.0,1651087055488427.0,3
1512,-23.0,15.0,23.0,-9.0,-1.0,2.0,18.0,-5.0,1651087055503191.0,3
1513,37.0,73.0,-16.0,5.0,5.0,1.0,-18.0,0.0,1651087055503191.0,3
1514,44.0,82.0,-13.0,-4.0,-29.0,-14.0,-4.0,-8.0,1651087055504190.0,3
1515,-35.0,-26.0,2.0,-22.0,-2.0,5.0,20.0,-11.0,1651087055504190.0,3
1516,92.0,39.0,-22.0,-13.0,-17.0,-5.0,-5.0,30.0,1651087055526357.0,3
1517,-4.0,4.0,35.0,44.0,27.0,13.0,7.0,-6.0,1651087055526357.0,3
1518,-52.0,56.0,-15.0,-15.0,-44.0,-16.0,-4.0,-2.0,1651087055526357.0,3
1519,37.0,34.0,-10.0,-8.0,13.0,6.0,0.0,16.0,1651087055526357.0,3
1520,70.0,65.0,20.0,-5.0,6.0,6.0,-4.0,-19.0,1651087055540396.0,3
1521,-28.0,-89.0,-13.0,-11.0,-19.0,-10.0,14.0,0.0,1651087055540396.0,3
1522,-26.0,-26.0,-10.0,2.0,14.0,8.0,-16.0,16.0,1651087055549199.0,3
1523,26.0,-1.0,9.0,26.0,-11.0,-4.0,12.0,-3.0,1651087055549199.0,3
1524,5.0,-6.0,-4.0,-1.0,24.0,11.0,-16.0,-29.0,1651087055563386.0,3
1525,10.0,17.0,-11.0,-15.0,-13.0,-3.0,4.0,-3.0,1651087055563386.0,3
1526,-2.0,-16.0,14.0,-2.0,-5.0,-5.0,-17.0,4.0,1651087055563386.0,3
1527,79.0,14.0,-5.0,-1.0,13.0,-9.0,-15.0,0.0,1651087055563386.0,3
1528,-125.0,-95.0,-14.0,-21.0,-37.0,-5.0,9.0,15.0,1651087055585239.0,3
1529,-5.0,-51.0,-4.0,31.0,17.0,-4.0,-8.0,-1.0,1651087055585239.0,3
1530,18.0,94.0,-7.0,-10.0,7.0,7.0,5.0,-40.0,1651087055586215.0,3
1531,-31.0,-76.0,0.0,-4.0,13.0,7.0,14.0,38.0,1651087055586215.0,3
1532,49.0,51.0,7.0,8.0,-9.0,9.0,15.0,11.0,1651087055600386.0,3
1533,37.0,-24.0,-12.0,1.0,-7.0,-10.0,-10.0,-3.0,1651087055600386.0,3
1534,-68.0,-86.0,9.0,11.0,23.0,5.0,-6.0,10.0,1651087055609211.0,3
1535,1.0,29.0,12.0,3.0,-3.0,1.0,-1.0,-26.0,1651087055609211.0,3
1536,-10.0,18.0,8.0,-5.0,1.0,-6.0,-5.0,-7.0,1651087055624266.0,3
1537,-8.0,24.0,3.0,-20.0,-8.0,-8.0,-6.0,-30.0,1651087055624266.0,3
1538,-34.0,-38.0,15.0,47.0,26.0,12.0,34.0,79.0,1651087055624266.0,3
1539,21.0,-54.0,-27.0,-45.0,-34.0,-12.0,-5.0,-9.0,1651087055624266.0,3
1540,38.0,-4.0,-6.0,26.0,38.0,-1.0,-20.0,-28.0,1651087055645379.0,3
1541,52.0,77.0,28.0,7.0,5.0,12.0,25.0,52.0,1651087055645379.0,3
1542,-57.0,-65.0,15.0,-2.0,9.0,-4.0,-14.0,-24.0,1651087055646222.0,3
1543,-2.0,56.0,-19.0,-3.0,1.0,-3.0,-14.0,-10.0,1651087055646222.0,3
1544,-113.0,-116.0,-14.0,-15.0,-16.0,-2.0,10.0,-7.0,1651087055660432.0,3
1545,-10.0,17.0,-18.0,-31.0,-34.0,-16.0,-8.0,-18.0,1651087055660432.0,3
1546,4.0,25.0,47.0,52.0,43.0,11.0,12.0,17.0,1651087055668602.0,3
1547,37.0,27.0,-17.0,-10.0,-11.0,-4.0,-17.0,-17.0,1651087055668602.0,3
1548,2.0,8.0,-26.0,-56.0,-83.0,-36.0,-22.0,-11.0,1651087055683319.0,3
1549,-13.0,42.0,44.0,68.0,97.0,42.0,25.0,34.0,1651087055683319.0,3
1550,-32.0,-41.0,-33.0,-23.0,-21.0,-5.0,0.0,-3.0,1651087055684183.0,3
1551,-21.0,-11.0,-8.0,18.0,14.0,7.0,2.0,-20.0,1651087055684183.0,3
1552,50.0,-61.0,-2.0,-24.0,-21.0,-17.0,-7.0,9.0,1651087055705399.0,3
1553,-9.0,-21.0,-3.0,-14.0,-19.0,-4.0,-17.0,-3.0,1651087055705399.0,3
1554,-15.0,-13.0,-6.0,-5.0,0.0,-1.0,14.0,-24.0,1651087055706236.0,3
1555,41.0,24.0,1.0,-19.0,6.0,8.0,1.0,10.0,1651087055706236.0,3
1556,-13.0,20.0,8.0,28.0,0.0,7.0,-7.0,-13.0,1651087055721249.0,3
1557,-67.0,-65.0,-15.0,-22.0,-7.0,2.0,-2.0,8.0,1651087055721249.0,3
1558,58.0,13.0,-7.0,-23.0,-16.0,-12.0,3.0,-27.0,1651087055728392.0,3
1559,-74.0,2.0,18.0,20.0,18.0,10.0,15.0,1.0,1651087055728392.0,3
1560,40.0,7.0,-12.0,-14.0,-1.0,-3.0,-33.0,-11.0,1651087055743230.0,3
1561,-36.0,-25.0,-10.0,5.0,-7.0,-3.0,35.0,24.0,1651087055743230.0,3
1562,-18.0,35.0,27.0,-13.0,-13.0,4.0,-6.0,-12.0,1651087055744261.0,3
1563,5.0,35.0,7.0,-1.0,-1.0,-7.0,4.0,33.0,1651087055744261.0,3
1564,-47.0,28.0,-21.0,-5.0,-1.0,-1.0,8.0,25.0,1651087055766227.0,3
1565,55.0,60.0,-11.0,24.0,33.0,14.0,-4.0,-17.0,1651087055766227.0,3
1566,-18.0,-48.0,-20.0,-55.0,-39.0,-20.0,-44.0,-46.0,1651087055767225.0,3
1567,28.0,-46.0,18.0,40.0,33.0,4.0,-4.0,-18.0,1651087055767225.0,3
1568,-44.0,21.0,-1.0,7.0,18.0,11.0,27.0,47.0,1651087055789241.0,3
1569,10.0,-12.0,-21.0,-21.0,-30.0,-18.0,-10.0,-10.0,1651087055789241.0,3
1570,50.0,41.0,-3.0,-6.0,1.0,3.0,-4.0,8.0,1651087055789241.0,3
1571,-22.0,-6.0,14.0,6.0,11.0,18.0,-6.0,-39.0,1651087055789241.0,3
1572,58.0,56.0,-1.0,31.0,2.0,-16.0,24.0,35.0,1651087055803460.0,3
1573,12.0,-80.0,-8.0,4.0,6.0,0.0,-8.0,-5.0,1651087055803460.0,3
1574,-26.0,81.0,-2.0,4.0,8.0,8.0,-14.0,-13.0,1651087055803460.0,3
1575,15.0,-39.0,-18.0,-4.0,-22.0,-17.0,20.0,28.0,1651087055803460.0,3
1576,71.0,-31.0,-13.0,-15.0,10.0,7.0,5.0,-6.0,1651087055825800.0,3
1577,-24.0,10.0,47.0,17.0,-5.0,1.0,11.0,12.0,1651087055825800.0,3
1578,57.0,61.0,-18.0,5.0,7.0,0.0,-28.0,-25.0,1651087055826667.0,3
1579,-44.0,-63.0,-18.0,-16.0,-10.0,-7.0,7.0,48.0,1651087055826667.0,3
1580,-30.0,-22.0,20.0,11.0,15.0,9.0,-2.0,-3.0,1651087055857086.0,3
1581,-2.0,1.0,19.0,6.0,6.0,-4.0,-20.0,-32.0,1651087055857086.0,3
1582,37.0,-17.0,-2.0,-6.0,-13.0,-5.0,13.0,0.0,1651087055857086.0,3
1583,-34.0,31.0,8.0,5.0,-11.0,5.0,3.0,-3.0,1651087055857086.0,3
1584,12.0,-34.0,8.0,18.0,20.0,5.0,-2.0,5.0,1651087055862908.0,3
1585,-18.0,50.0,-13.0,-23.0,-18.0,-5.0,-40.0,-42.0,1651087055862908.0,3
1586,-12.0,-55.0,-4.0,8.0,-9.0,1.0,53.0,61.0,1651087055863908.0,3
1587,-26.0,-40.0,-1.0,16.0,19.0,1.0,-42.0,-31.0,1651087055863908.0,3
1588,-26.0,-14.0,-14.0,-25.0,-19.0,1.0,1.0,-22.0,1651087055885397.0,3
1589,53.0,13.0,-7.0,-9.0,0.0,0.0,-24.0,-22.0,1651087055885397.0,3
1590,35.0,48.0,7.0,11.0,3.0,-7.0,34.0,36.0,1651087055886233.0,3
1591,62.0,35.0,13.0,7.0,7.0,2.0,0.0,21.0,1651087055886233.0,3
1592,51.0,-58.0,2.0,-26.0,-13.0,0.0,-8.0,-17.0,1651087055909246.0,3
1593,-29.0,-54.0,-39.0,-5.0,3.0,-4.0,23.0,17.0,1651087055909246.0,3
1594,21.0,11.0,10.0,-15.0,-11.0,2.0,-37.0,-34.0,1651087055909246.0,3
1595,-12.0,43.0,9.0,13.0,5.0,-7.0,10.0,9.0,1651087055909246.0,3
1596,5.0,26.0,23.0,1.0,1.0,2.0,5.0,-4.0,1651087055923213.0,3
1597,3.0,-13.0,-11.0,-7.0,-11.0,-9.0,-15.0,-5.0,1651087055923213.0,3
1598,-24.0,-39.0,-7.0,26.0,36.0,4.0,-9.0,-6.0,1651087055924245.0,3
1599,35.0,87.0,4.0,-21.0,-22.0,0.0,24.0,20.0,1651087055924245.0,3
1600,-24.0,-31.0,-18.0,2.0,2.0,-6.0,-20.0,-23.0,1651087055945648.0,3
1601,24.0,29.0,11.0,0.0,-2.0,-2.0,-1.0,-18.0,1651087055945648.0,3
1602,-44.0,-65.0,-14.0,-16.0,-13.0,-10.0,-12.0,-2.0,1651087055946496.0,3
1603,57.0,102.0,9.0,15.0,22.0,12.0,30.0,16.0,1651087055946496.0,3
1604,-67.0,-38.0,-23.0,-12.0,-12.0,-15.0,-18.0,8.0,1651087055969042.0,3
1605,-28.0,1.0,-16.0,-3.0,8.0,8.0,15.0,15.0,1651087055969042.0,3
1606,50.0,102.0,26.0,13.0,4.0,3.0,7.0,-6.0,1651087055969931.0,3
1607,47.0,-94.0,-20.0,-28.0,-36.0,-12.0,-31.0,-32.0,1651087055969931.0,3
1608,-25.0,113.0,27.0,23.0,37.0,13.0,0.0,-27.0,1651087055983233.0,3
1609,45.0,-57.0,3.0,6.0,0.0,4.0,37.0,76.0,1651087055983233.0,3
1610,-28.0,42.0,-1.0,18.0,13.0,1.0,-12.0,-2.0,1651087055983233.0,3
1611,-19.0,-71.0,-7.0,-9.0,-14.0,-8.0,0.0,-11.0,1651087055983233.0,3
1612,25.0,79.0,7.0,2.0,9.0,14.0,2.0,-24.0,1651087056006541.0,3
1613,-26.0,-21.0,-6.0,-9.0,-3.0,-9.0,-17.0,-5.0,1651087056006541.0,3
1614,-5.0,-20.0,0.0,-3.0,-22.0,-7.0,15.0,33.0,1651087056006541.0,3
1615,11.0,4.0,6.0,7.0,13.0,6.0,-11.0,-14.0,1651087056006541.0,3
1616,2.0,-11.0,6.0,13.0,9.0,1.0,13.0,0.0,1651087056029118.0,3
1617,0.0,42.0,14.0,-19.0,-22.0,-8.0,3.0,24.0,1651087056029118.0,3
1618,40.0,-29.0,-11.0,7.0,24.0,5.0,22.0,21.0,1651087056029118.0,3
1619,-58.0,-47.0,-9.0,37.0,13.0,2.0,-19.0,-30.0,1651087056029118.0,3
1620,-39.0,1.0,4.0,2.0,7.0,0.0,5.0,-49.0,1651087056043196.0,3
1621,74.0,-11.0,1.0,-8.0,-5.0,2.0,20.0,63.0,1651087056043196.0,3
1622,-2.0,15.0,-5.0,-35.0,-13.0,-4.0,-49.0,-46.0,1651087056044230.0,3
1623,8.0,0.0,-10.0,5.0,10.0,0.0,44.0,47.0,1651087056044230.0,3
1624,13.0,3.0,1.0,3.0,-1.0,-5.0,-4.0,3.0,1651087056065333.0,3
1625,-5.0,2.0,7.0,-1.0,-1.0,3.0,-10.0,-30.0,1651087056065333.0,3
1626,2.0,21.0,-3.0,-6.0,-8.0,-2.0,-16.0,1.0,1651087056066195.0,3
1627,-19.0,26.0,-1.0,1.0,6.0,-2.0,-18.0,-25.0,1651087056066195.0,3
1628,12.0,2.0,3.0,-23.0,-29.0,-5.0,30.0,40.0,1651087056089183.0,3
1629,-103.0,-57.0,-17.0,-3.0,-13.0,-7.0,-8.0,-31.0,1651087056089183.0,3
1630,3.0,0.0,19.0,21.0,14.0,10.0,13.0,26.0,1651087056089183.0,3
1631,0.0,4.0,7.0,-8.0,5.0,8.0,19.0,17.0,1651087056089183.0,3
1632,20.0,31.0,-2.0,5.0,-5.0,3.0,1.0,8.0,1651087056103476.0,3
1633,-23.0,16.0,10.0,1.0,0.0,-7.0,-27.0,-50.0,1651087056103476.0,3
1634,17.0,-54.0,-27.0,13.0,1.0,-1.0,16.0,18.0,1651087056103476.0,3
1635,-34.0,-1.0,-16.0,-7.0,-2.0,-1.0,-44.0,-46.0,1651087056103476.0,3
1636,8.0,69.0,22.0,-27.0,-24.0,-3.0,35.0,47.0,1651087056126326.0,3
1637,-55.0,-102.0,-29.0,19.0,34.0,6.0,4.0,-5.0,1651087056126326.0,3
1638,17.0,43.0,19.0,14.0,16.0,-5.0,-31.0,-23.0,1651087056126326.0,3
1639,-1.0,26.0,-11.0,-22.0,-3.0,-1.0,22.0,3.0,1651087056126326.0,3
1640,-35.0,-98.0,-31.0,-10.0,-11.0,2.0,3.0,9.0,1651087056148560.0,3
1641,21.0,28.0,30.0,4.0,1.0,4.0,-13.0,20.0,1651087056148560.0,3
1642,5.0,-17.0,-4.0,-3.0,6.0,5.0,23.0,1.0,1651087056149074.0,3
1643,-49.0,6.0,3.0,6.0,-10.0,-7.0,-34.0,-45.0,1651087056149074.0,3
1644,59.0,80.0,-3.0,-1.0,28.0,5.0,-13.0,29.0,1651087056163358.0,3
1645,-22.0,-18.0,-22.0,31.0,4.0,-1.0,25.0,20.0,1651087056163358.0,3
1646,11.0,37.0,1.0,-31.0,-25.0,-5.0,2.0,-17.0,1651087056163358.0,3
1647,-72.0,-18.0,31.0,3.0,-10.0,-2.0,-7.0,-7.0,1651087056163358.0,3
1648,-4.0,29.0,-6.0,19.0,14.0,3.0,-19.0,-15.0,1651087056185327.0,3
1649,-6.0,25.0,-17.0,-22.0,-7.0,-11.0,-2.0,3.0,1651087056185327.0,3
1650,16.0,-16.0,10.0,15.0,24.0,3.0,13.0,26.0,1651087056186191.0,3
1651,69.0,51.0,0.0,5.0,13.0,4.0,-1.0,-13.0,1651087056186191.0,3
1652,-36.0,-78.0,-7.0,-3.0,-27.0,-9.0,-5.0,-26.0,1651087056208567.0,3
1653,7.0,8.0,7.0,3.0,18.0,5.0,13.0,39.0,1651087056208567.0,3
1654,-11.0,6.0,-15.0,-20.0,-12.0,1.0,13.0,5.0,1651087056209073.0,3
1655,51.0,20.0,4.0,13.0,-17.0,-1.0,22.0,23.0,1651087056209073.0,3
1656,18.0,-40.0,4.0,-3.0,2.0,-12.0,-30.0,-9.0,1651087056223220.0,3
1657,28.0,29.0,-11.0,-5.0,-8.0,2.0,-6.0,-25.0,1651087056223220.0,3
1658,-8.0,16.0,31.0,17.0,-8.0,-3.0,6.0,-26.0,1651087056224253.0,3
1659,2.0,-7.0,-20.0,-9.0,21.0,8.0,7.0,37.0,1651087056224253.0,3
1660,-24.0,17.0,14.0,11.0,3.0,6.0,33.0,7.0,1651087056245282.0,3
1661,79.0,112.0,32.0,0.0,-4.0,-5.0,-26.0,-2.0,1651087056245282.0,3
1662,-108.0,-101.0,-31.0,-6.0,-6.0,-3.0,-31.0,-41.0,1651087056246116.0,3
1663,-21.0,24.0,0.0,-16.0,-21.0,-16.0,2.0,6.0,1651087056246116.0,3
1664,50.0,36.0,-8.0,24.0,21.0,11.0,-1.0,-3.0,1651087056268353.0,3
1665,24.0,-10.0,-5.0,-53.0,-35.0,-8.0,10.0,-3.0,1651087056268353.0,3
1666,19.0,64.0,2.0,53.0,37.0,6.0,4.0,11.0,1651087056269188.0,3
1667,-52.0,-128.0,-27.0,-17.0,-7.0,-10.0,-20.0,-1.0,1651087056269188.0,3
1668,-44.0,66.0,-3.0,-7.0,-11.0,-7.0,-8.0,-18.0,1651087056283223.0,3
1669,11.0,72.0,18.0,28.0,8.0,9.0,-4.0,-6.0,1651087056283223.0,3
1670,0.0,-78.0,-28.0,-33.0,-17.0,-3.0,2.0,12.0,1651087056284255.0,3
1671,17.0,11.0,1.0,-8.0,-4.0,-6.0,-1.0,-20.0,1651087056284255.0,3
1672,-37.0,-11.0,20.0,22.0,23.0,5.0,-20.0,24.0,1651087056305530.0,3
1673,66.0,-13.0,-13.0,-8.0,-9.0,-2.0,7.0,-34.0,1651087056305530.0,3
1674,-6.0,3.0,12.0,-16.0,-15.0,-10.0,25.0,30.0,1651087056306362.0,3
1675,13.0,80.0,9.0,21.0,1.0,5.0,-6.0,0.0,1651087056306362.0,3
1676,-43.0,-83.0,-33.0,-31.0,-21.0,-9.0,-15.0,-24.0,1651087056329110.0,3
1677,-30.0,5.0,19.0,3.0,-14.0,-3.0,-30.0,-32.0,1651087056329110.0,3
1678,43.0,-22.0,17.0,37.0,41.0,30.0,36.0,51.0,1651087056329110.0,3
1679,68.0,72.0,-5.0,-34.0,-23.0,-7.0,9.0,19.0,1651087056329110.0,3
1680,-10.0,-40.0,-20.0,-8.0,-21.0,-13.0,2.0,-13.0,1651087056343233.0,3
1681,-49.0,-1.0,-18.0,5.0,27.0,11.0,1.0,7.0,1651087056343233.0,3
1682,-4.0,63.0,7.0,-29.0,-33.0,-13.0,-11.0,-22.0,1651087056344266.0,3
1683,-17.0,-30.0,15.0,-20.0,-6.0,-1.0,-2.0,-19.0,1651087056344266.0,3
1684,14.0,37.0,14.0,29.0,33.0,10.0,0.0,16.0,1651087056365396.0,3
1685,34.0,-5.0,12.0,11.0,-1.0,-1.0,1.0,1.0,1651087056365396.0,3
1686,-25.0,-33.0,-17.0,-5.0,-14.0,-10.0,-23.0,-11.0,1651087056373240.0,3
1687,38.0,16.0,-5.0,-9.0,9.0,4.0,15.0,31.0,1651087056373240.0,3
1688,10.0,-53.0,3.0,15.0,10.0,6.0,0.0,-24.0,1651087056389163.0,3
1689,-32.0,-7.0,-5.0,-15.0,-12.0,0.0,-7.0,-9.0,1651087056389163.0,3
1690,45.0,13.0,-1.0,3.0,3.0,-5.0,25.0,45.0,1651087056389163.0,3
1691,-34.0,-35.0,-23.0,13.0,-1.0,0.0,-2.0,-14.0,1651087056389163.0,3
1692,14.0,4.0,13.0,-6.0,-19.0,-8.0,2.0,19.0,1651087056402600.0,3
1693,-39.0,36.0,-1.0,4.0,5.0,-1.0,15.0,19.0,1651087056402600.0,3
1694,-92.0,-80.0,4.0,-8.0,-5.0,-4.0,-32.0,-43.0,1651087056411004.0,3
1695,-13.0,27.0,20.0,19.0,22.0,7.0,1.0,9.0,1651087056411004.0,3
1696,40.0,0.0,-10.0,18.0,9.0,4.0,8.0,15.0,1651087056426387.0,3
1697,-18.0,-27.0,13.0,-4.0,1.0,-3.0,-2.0,-22.0,1651087056426387.0,3
1698,17.0,124.0,-17.0,-8.0,6.0,2.0,-11.0,-28.0,1651087056426387.0,3
1699,-33.0,-102.0,-1.0,8.0,-12.0,-9.0,9.0,23.0,1651087056426387.0,3
1700,-6.0,64.0,23.0,-10.0,21.0,11.0,15.0,13.0,1651087056448545.0,3
1701,25.0,-46.0,-10.0,26.0,3.0,-9.0,-47.0,-44.0,1651087056448545.0,3
1702,29.0,46.0,1.0,-16.0,-16.0,-2.0,25.0,52.0,1651087056456217.0,3
1703,-23.0,-27.0,-9.0,-3.0,5.0,3.0,0.0,-16.0,1651087056456217.0,3
1704,9.0,9.0,0.0,-8.0,-5.0,-2.0,-4.0,-6.0,1651087056462445.0,3
1705,-12.0,16.0,1.0,-2.0,2.0,1.0,9.0,-1.0,1651087056462445.0,3
1706,-14.0,-9.0,5.0,4.0,5.0,5.0,-4.0,-15.0,1651087056471147.0,3
1707,-19.0,3.0,8.0,8.0,3.0,3.0,-6.0,-9.0,1651087056471147.0,3
1708,-56.0,-8.0,1.0,-4.0,-12.0,-4.0,6.0,16.0,1651087056486396.0,3
1709,22.0,-34.0,-14.0,-11.0,-4.0,-5.0,-8.0,-18.0,1651087056486396.0,3
1710,-3.0,13.0,3.0,5.0,-3.0,0.0,-1.0,3.0,1651087056486396.0,3
1711,20.0,-13.0,-6.0,-1.0,3.0,0.0,-1.0,8.0,1651087056486396.0,3
1712,-55.0,-7.0,-4.0,-9.0,-8.0,-6.0,-9.0,-16.0,1651087056508392.0,3
1713,-20.0,5.0,-9.0,-4.0,3.0,3.0,15.0,12.0,1651087056508392.0,3
1714,33.0,19.0,0.0,-2.0,-1.0,0.0,-8.0,-5.0,1651087056508392.0,3
1715,-20.0,-30.0,-4.0,6.0,3.0,-1.0,1.0,-1.0,1651087056508392.0,3
1716,57.0,24.0,-6.0,-15.0,-5.0,-1.0,-8.0,-4.0,1651087056522324.0,3
1717,-33.0,-20.0,20.0,18.0,1.0,-6.0,3.0,12.0,1651087056522324.0,3
1718,1.0,-48.0,-9.0,-6.0,-5.0,2.0,0.0,-5.0,1651087056531143.0,3
1719,8.0,42.0,16.0,4.0,6.0,6.0,0.0,-9.0,1651087056531143.0,3
1720,11.0,-6.0,-32.0,-11.0,-8.0,-4.0,1.0,11.0,1651087056545388.0,3
1721,-1.0,-12.0,-3.0,-4.0,2.0,11.0,10.0,2.0,1651087056545388.0,3
1722,13.0,24.0,10.0,4.0,1.0,5.0,8.0,6.0,1651087056546226.0,3
1723,1.0,-11.0,1.0,-2.0,-2.0,-3.0,-6.0,-2.0,1651087056546226.0,3
1724,16.0,11.0,4.0,-13.0,-10.0,-7.0,1.0,15.0,1651087056568530.0,3
1725,-39.0,-10.0,3.0,13.0,8.0,6.0,7.0,-4.0,1651087056568530.0,3
1726,-9.0,-12.0,-3.0,0.0,-1.0,-13.0,-5.0,12.0,1651087056568530.0,3
1727,17.0,7.0,13.0,11.0,4.0,9.0,-6.0,-43.0,1651087056568530.0,3
1728,12.0,-8.0,-8.0,-6.0,-6.0,1.0,0.0,-9.0,1651087056582864.0,3
1729,12.0,16.0,-16.0,-18.0,-5.0,-13.0,-4.0,9.0,1651087056582864.0,3
1730,6.0,-8.0,7.0,1.0,2.0,7.0,1.0,7.0,1651087056590405.0,3
1731,-4.0,1.0,-21.0,-6.0,-3.0,-7.0,-2.0,-11.0,1651087056590405.0,3
1732,15.0,22.0,34.0,35.0,2.0,-1.0,-1.0,5.0,1651087056605355.0,3
1733,10.0,3.0,10.0,-2.0,2.0,-3.0,-4.0,3.0,1651087056605355.0,3
1734,-7.0,-9.0,7.0,1.0,-3.0,8.0,0.0,-40.0,1651087056606205.0,3
1735,-1.0,4.0,-9.0,-8.0,-4.0,-7.0,-1.0,13.0,1651087056606205.0,3
1736,14.0,6.0,2.0,-4.0,1.0,8.0,3.0,24.0,1651087056628565.0,3
1737,-2.0,1.0,20.0,17.0,9.0,0.0,-3.0,-13.0,1651087056628565.0,3
1738,-1.0,-5.0,-22.0,1.0,-4.0,-10.0,-5.0,0.0,1651087056629075.0,3
1739,7.0,10.0,12.0,-11.0,-4.0,2.0,2.0,-4.0,1651087056629075.0,3
1740,-1.0,4.0,-11.0,-1.0,3.0,-3.0,1.0,-6.0,1651087056651420.0,3
1741,-23.0,-14.0,-27.0,-4.0,-6.0,-5.0,-7.0,-9.0,1651087056651420.0,3
1742,1.0,11.0,-6.0,-12.0,1.0,14.0,3.0,-6.0,1651087056652420.0,3
1743,-5.0,4.0,23.0,6.0,-5.0,-2.0,-7.0,-41.0,1651087056652420.0,3
1744,17.0,1.0,-25.0,-20.0,-11.0,-22.0,1.0,75.0,1651087056665481.0,3
1745,-19.0,6.0,17.0,18.0,8.0,29.0,10.0,-59.0,1651087056665481.0,3
1746,-1.0,-2.0,-25.0,-9.0,1.0,-8.0,-14.0,-13.0,1651087056666383.0,3
1747,4.0,13.0,-9.0,7.0,5.0,12.0,10.0,14.0,1651087056666383.0,3
1748,26.0,-3.0,-1.0,-5.0,1.0,-4.0,-6.0,-23.0,1651087056688539.0,3
1749,6.0,7.0,22.0,9.0,-4.0,-3.0,7.0,33.0,1651087056688539.0,3
1750,-7.0,-9.0,-30.0,-10.0,-6.0,4.0,2.0,-11.0,1651087056689071.0,3
1751,4.0,-16.0,-11.0,-18.0,-4.0,-6.0,-3.0,13.0,1651087056689071.0,3
1752,-14.0,3.0,30.0,20.0,1.0,-1.0,-3.0,-22.0,1651087056702547.0,3
1753,15.0,-2.0,-22.0,-3.0,1.0,-5.0,0.0,18.0,1651087056702547.0,3
1754,-4.0,-9.0,5.0,-14.0,-11.0,-13.0,-10.0,-19.0,1651087056711041.0,3
1755,-5.0,-6.0,-13.0,2.0,2.0,1.0,3.0,18.0,1651087056711041.0,3
1756,1.0,0.0,29.0,7.0,3.0,3.0,2.0,-16.0,1651087056725357.0,3
1757,15.0,3.0,11.0,-5.0,-1.0,-1.0,0.0,8.0,1651087056725357.0,3
1758,-10.0,-7.0,11.0,12.0,8.0,-2.0,0.0,11.0,1651087056726209.0,3
1759,4.0,-3.0,-45.0,-25.0,-6.0,-6.0,-2.0,4.0,1651087056726209.0,3
1760,-7.0,1.0,20.0,19.0,9.0,10.0,0.0,-14.0,1651087056748539.0,3
1761,13.0,1.0,7.0,-10.0,-4.0,-5.0,3.0,12.0,1651087056748539.0,3
1762,-10.0,-4.0,8.0,9.0,2.0,0.0,1.0,12.0,1651087056749073.0,3
1763,6.0,-2.0,32.0,19.0,3.0,-2.0,0.0,4.0,1651087056749073.0,3
1764,-4.0,-6.0,1.0,13.0,3.0,4.0,2.0,-9.0,1651087056771780.0,3
1765,-1.0,6.0,0.0,-7.0,-3.0,-4.0,-3.0,0.0,1651087056771780.0,3
1766,4.0,6.0,1.0,12.0,3.0,-2.0,0.0,17.0,1651087056771780.0,3
1767,-3.0,6.0,5.0,-8.0,-7.0,-5.0,-5.0,4.0,1651087056771780.0,3
1768,11.0,-10.0,-18.0,1.0,0.0,2.0,4.0,-11.0,1651087056785388.0,3
1769,-17.0,-7.0,-22.0,-15.0,-5.0,1.0,0.0,7.0,1651087056785388.0,3
1770,-9.0,0.0,19.0,2.0,2.0,-3.0,-2.0,2.0,1651087056786222.0,3
1771,2.0,2.0,15.0,29.0,5.0,5.0,1.0,0.0,1651087056786222.0,3
1772,2.0,9.0,11.0,-7.0,-6.0,-4.0,-2.0,-9.0,1651087056808994.0,3
1773,3.0,-9.0,-61.0,-37.0,-5.0,-2.0,-3.0,9.0,1651087056808994.0,3
1774,-1.0,0.0,24.0,16.0,-2.0,-1.0,-3.0,-10.0,1651087056809106.0,3
1775,6.0,2.0,12.0,-10.0,3.0,-1.0,1.0,18.0,1651087056809106.0,3
1776,-13.0,1.0,-13.0,7.0,1.0,0.0,-3.0,-16.0,1651087056831586.0,3
1777,2.0,-5.0,-5.0,-34.0,-9.0,-2.0,1.0,-1.0,1651087056831586.0,3
1778,6.0,8.0,-7.0,21.0,9.0,8.0,9.0,41.0,1651087056831586.0,3
1779,-7.0,-7.0,33.0,17.0,7.0,2.0,-7.0,-15.0,1651087056831586.0,3
1780,-1.0,2.0,-10.0,-5.0,-5.0,-4.0,2.0,13.0,1651087056845388.0,3
1781,3.0,0.0,-16.0,-17.0,-6.0,-3.0,-3.0,1.0,1651087056845388.0,3
1782,-8.0,3.0,6.0,2.0,0.0,-3.0,-3.0,-22.0,1651087056846220.0,3
1783,-2.0,0.0,-19.0,-9.0,-5.0,-3.0,-1.0,10.0,1651087056846220.0,3
1784,0.0,-1.0,16.0,0.0,2.0,3.0,1.0,1.0,1651087056868577.0,3
1785,-2.0,0.0,12.0,20.0,3.0,0.0,1.0,12.0,1651087056868577.0,3
1786,-1.0,-9.0,-21.0,-14.0,-9.0,-5.0,-4.0,-26.0,1651087056869074.0,3
1787,5.0,4.0,6.0,11.0,0.0,-2.0,1.0,-1.0,1651087056869074.0,3
1788,-9.0,-5.0,-9.0,-13.0,3.0,3.0,-2.0,-5.0,1651087056891621.0,3
1789,5.0,-2.0,2.0,9.0,0.0,-1.0,2.0,0.0,1651087056891621.0,3
1790,2.0,-1.0,12.0,-4.0,-2.0,-4.0,-2.0,-3.0,1651087056891621.0,3
1791,-5.0,-8.0,-27.0,-10.0,1.0,-2.0,0.0,-9.0,1651087056891621.0,3
1792,5.0,3.0,-8.0,-10.0,-1.0,1.0,1.0,9.0,1651087056906227.0,3
1793,6.0,5.0,17.0,14.0,0.0,-1.0,-1.0,-2.0,1651087056906227.0,3
1794,-1.0,-5.0,-1.0,-12.0,-8.0,-5.0,-4.0,-25.0,1651087056907225.0,3
1795,-2.0,0.0,-19.0,-6.0,-4.0,-5.0,-1.0,0.0,1651087056907225.0,3
1796,-5.0,-1.0,-11.0,-16.0,-1.0,0.0,-1.0,-5.0,1651087056929047.0,3
1797,4.0,-2.0,12.0,19.0,4.0,3.0,0.0,-5.0,1651087056929047.0,3
1798,-6.0,-6.0,17.0,8.0,1.0,-1.0,-1.0,-9.0,1651087056929114.0,3
1799,3.0,22.0,4.0,-12.0,-6.0,-2.0,-1.0,-8.0,1651087056929114.0,3
1800,-21.0,2.0,-14.0,-13.0,-8.0,-6.0,-3.0,2.0,1651087056951842.0,3
1801,5.0,-11.0,12.0,5.0,-2.0,-2.0,-2.0,3.0,1651087056951842.0,3
1802,-1.0,2.0,-7.0,0.0,0.0,1.0,-1.0,8.0,1651087056952408.0,3
1803,0.0,-6.0,-25.0,-5.0,1.0,-2.0,4.0,10.0,1651087056952408.0,3
1804,19.0,-3.0,10.0,15.0,4.0,1.0,1.0,-6.0,1651087056966165.0,3
1805,-17.0,7.0,6.0,6.0,2.0,1.0,0.0,5.0,1651087056966165.0,3
1806,13.0,-8.0,-21.0,-22.0,-7.0,-2.0,-1.0,10.0,1651087056966165.0,3
1807,2.0,-6.0,12.0,-1.0,0.0,0.0,1.0,0.0,1651087056966165.0,3
1808,-2.0,2.0,-1.0,5.0,-1.0,-1.0,2.0,13.0,1651087056988383.0,3
1809,5.0,-6.0,-19.0,2.0,0.0,-2.0,-1.0,-4.0,1651087056988383.0,3
1810,7.0,7.0,10.0,17.0,3.0,0.0,2.0,1.0,1651087056989252.0,3
1811,3.0,-7.0,6.0,-8.0,0.0,3.0,-3.0,-5.0,1651087056989252.0,3
1812,2.0,-1.0,-2.0,-7.0,-3.0,-1.0,-2.0,3.0,1651087057011409.0,3
1813,1.0,-2.0,-2.0,-2.0,-1.0,-4.0,-1.0,-5.0,1651087057011409.0,3
1814,-12.0,1.0,2.0,-1.0,3.0,2.0,1.0,2.0,1651087057012280.0,3
1815,-11.0,0.0,4.0,12.0,-5.0,-2.0,0.0,-4.0,1651087057012280.0,3
1816,0.0,-4.0,-12.0,-2.0,-1.0,1.0,1.0,2.0,1651087057026390.0,3
1817,2.0,0.0,-16.0,-22.0,-11.0,-6.0,-6.0,-25.0,1651087057026390.0,3
1818,3.0,2.0,-5.0,-2.0,1.0,3.0,-2.0,-1.0,1651087057026390.0,3
1819,1.0,-1.0,8.0,1.0,5.0,0.0,0.0,2.0,1651087057026390.0,3
1820,-2.0,4.0,32.0,-3.0,0.0,1.0,-1.0,5.0,1651087057048543.0,3
1821,-4.0,-2.0,-15.0,6.0,4.0,3.0,0.0,0.0,1651087057048543.0,3
1822,-1.0,-2.0,-9.0,-7.0,-3.0,-1.0,0.0,12.0,1651087057049070.0,3
1823,1.0,-10.0,0.0,2.0,0.0,1.0,-1.0,-3.0,1651087057049070.0,3
1824,-3.0,19.0,10.0,5.0,2.0,0.0,-2.0,-5.0,1651087057071562.0,3
1825,3.0,-4.0,11.0,-2.0,-3.0,-1.0,0.0,6.0,1651087057071562.0,3
1826,-4.0,0.0,-6.0,-6.0,0.0,-1.0,-1.0,-2.0,1651087057071562.0,3
1827,0.0,-3.0,13.0,-2.0,3.0,2.0,1.0,5.0,1651087057071562.0,3
1828,-2.0,-10.0,-16.0,-1.0,-8.0,-5.0,-2.0,-8.0,1651087057085530.0,3
1829,3.0,6.0,10.0,3.0,4.0,-1.0,2.0,5.0,1651087057085530.0,3
1830,-1.0,0.0,11.0,7.0,-2.0,-2.0,0.0,-7.0,1651087057086526.0,3
1831,1.0,0.0,-42.0,-22.0,-3.0,1.0,1.0,2.0,1651087057086526.0,3
1832,-2.0,-3.0,29.0,31.0,3.0,-1.0,0.0,-2.0,1651087057108571.0,3
1833,-6.0,1.0,-10.0,-9.0,-4.0,-2.0,-1.0,0.0,1651087057108571.0,3
1834,-3.0,-4.0,9.0,-7.0,0.0,1.0,-1.0,-2.0,1651087057109073.0,3
1835,1.0,4.0,-5.0,7.0,6.0,0.0,2.0,4.0,1651087057109073.0,3
1836,-3.0,-7.0,-17.0,-8.0,-3.0,2.0,-1.0,-5.0,1651087057131834.0,3
1837,-1.0,1.0,5.0,8.0,0.0,-1.0,-1.0,1.0,1651087057131834.0,3
1838,2.0,5.0,12.0,-2.0,-2.0,-3.0,-1.0,-1.0,1651087057131834.0,3
1839,0.0,-3.0,-19.0,1.0,-3.0,-2.0,-2.0,0.0,1651087057131834.0,3
1840,-1.0,-4.0,-3.0,-6.0,-5.0,-1.0,-1.0,-5.0,1651087057154104.0,3
1841,-1.0,1.0,14.0,2.0,11.0,7.0,3.0,-2.0,1651087057154104.0,3
1842,-2.0,-6.0,-6.0,8.0,-8.0,-2.0,0.0,1.0,1651087057155000.0,3
1843,-1.0,5.0,-5.0,5.0,3.0,0.0,0.0,-1.0,1651087057155000.0,3
1844,-4.0,-10.0,-23.0,-13.0,-1.0,0.0,-3.0,-5.0,1651087057168145.0,3
1845,4.0,3.0,7.0,3.0,-5.0,-4.0,0.0,4.0,1651087057168145.0,3
1846,1.0,8.0,-15.0,-3.0,0.0,-4.0,0.0,8.0,1651087057169146.0,3
1847,0.0,-7.0,10.0,5.0,-3.0,1.0,-2.0,-10.0,1651087057169146.0,3
1848,1.0,-1.0,6.0,1.0,3.0,1.0,3.0,1.0,1651087057191649.0,3
1849,-1.0,-1.0,4.0,-4.0,-2.0,0.0,-1.0,0.0,1651087057191649.0,3
1850,0.0,-4.0,-11.0,-4.0,-2.0,-2.0,0.0,1.0,1651087057191649.0,3
1851,2.0,1.0,4.0,0.0,-6.0,-5.0,-1.0,4.0,1651087057191649.0,3
1852,-1.0,4.0,-1.0,-4.0,-2.0,0.0,-2.0,0.0,1651087057206579.0,3
1853,0.0,-3.0,2.0,0.0,1.0,1.0,-1.0,-3.0,1651087057206579.0,3
1854,-3.0,0.0,11.0,-7.0,-2.0,-1.0,1.0,18.0,1651087057206579.0,3
1855,-1.0,-4.0,-2.0,24.0,5.0,3.0,-2.0,-1.0,1651087057206579.0,3
1856,-8.0,-8.0,-12.0,-15.0,2.0,2.0,4.0,0.0,1651087057229015.0,3
1857,1.0,9.0,11.0,11.0,3.0,0.0,1.0,-1.0,1651087057229015.0,3
1858,1.0,-3.0,-7.0,-3.0,-3.0,-1.0,-2.0,-3.0,1651087057229111.0,3
1859,-1.0,-7.0,16.0,-1.0,3.0,1.0,1.0,2.0,1651087057229111.0,3
1860,0.0,1.0,3.0,1.0,-1.0,-1.0,-2.0,2.0,1651087057252361.0,3
1861,0.0,2.0,-11.0,1.0,-3.0,-2.0,-1.0,3.0,1651087057252361.0,3
1862,0.0,-2.0,1.0,-4.0,0.0,0.0,-2.0,-7.0,1651087057252361.0,3
1863,-2.0,0.0,14.0,0.0,-2.0,1.0,0.0,-2.0,1651087057252361.0,3
1864,2.0,4.0,-1.0,10.0,2.0,0.0,0.0,-5.0,1651087057266320.0,3
1865,-1.0,-6.0,0.0,-4.0,-2.0,-3.0,-1.0,1.0,1651087057266320.0,3
1866,-1.0,0.0,-18.0,-11.0,0.0,-1.0,-1.0,-8.0,1651087057266320.0,3
1867,1.0,2.0,-8.0,1.0,-6.0,-3.0,-2.0,1.0,1651087057266320.0,3
