,EMG_s0,EMG_s1,EMG_s2,EMG_s3,EMG_s4,EMG_s5,EMG_s6,EMG_s7,timestamp,signal
0,-1.0,0.0,-6.0,-4.0,0.0,0.0,1.0,-1.0,1651087274412783.0,0
1,-1.0,-1.0,3.0,7.0,5.0,2.0,0.0,-1.0,1651087274412783.0,0
2,-2.0,0.0,3.0,1.0,3.0,-1.0,1.0,0.0,1651087274412783.0,0
3,0.0,-3.0,9.0,-1.0,-3.0,-1.0,-1.0,2.0,1651087274412783.0,0
4,-2.0,-1.0,-15.0,-8.0,-4.0,-2.0,1.0,-2.0,1651087274435248.0,0
5,0.0,-1.0,-6.0,-9.0,-12.0,-5.0,-3.0,-3.0,1651087274435248.0,0
6,0.0,1.0,2.0,7.0,9.0,3.0,1.0,-1.0,1651087274435248.0,0
7,-1.0,0.0,12.0,7.0,1.0,1.0,1.0,-2.0,1651087274435248.0,0
8,0.0,0.0,5.0,1.0,3.0,-1.0,0.0,0.0,1651087274451078.0,0
9,1.0,0.0,4.0,1.0,3.0,6.0,0.0,0.0,1651087274451078.0,0
10,-3.0,-5.0,-7.0,-4.0,-5.0,-3.0,0.0,-2.0,1651087274451078.0,0
11,1.0,0.0,-8.0,-9.0,-4.0,-4.0,-1.0,-2.0,1651087274451078.0,0
12,0.0,0.0,3.0,3.0,-4.0,-1.0,0.0,0.0,1651087274472620.0,0
13,-2.0,0.0,3.0,5.0,4.0,-4.0,0.0,-2.0,1651087274472620.0,0
14,0.0,4.0,4.0,-2.0,0.0,5.0,-1.0,0.0,1651087274472620.0,0
15,-3.0,-8.0,-5.0,-3.0,-4.0,-3.0,0.0,-1.0,1651087274472620.0,0
16,-1.0,-2.0,-10.0,0.0,2.0,-2.0,-2.0,0.0,1651087274494366.0,0
17,0.0,0.0,8.0,-2.0,2.0,3.0,1.0,1.0,1651087274494366.0,0
18,-1.0,-2.0,-9.0,-6.0,-8.0,-5.0,-1.0,-3.0,1651087274495214.0,0
19,0.0,-2.0,-16.0,-1.0,-4.0,-1.0,-3.0,-2.0,1651087274495214.0,0
20,0.0,3.0,7.0,7.0,7.0,1.0,-1.0,0.0,1651087274518495.0,0
21,0.0,-4.0,-12.0,-7.0,-4.0,-4.0,-2.0,1.0,1651087274518495.0,0
22,-1.0,-1.0,11.0,5.0,5.0,2.0,1.0,-1.0,1651087274518495.0,0
23,-1.0,1.0,-2.0,2.0,2.0,0.0,0.0,-1.0,1651087274518495.0,0
24,0.0,-1.0,-2.0,-2.0,-3.0,-1.0,-1.0,0.0,1651087274532234.0,0
25,0.0,1.0,-2.0,-7.0,-7.0,-1.0,-1.0,0.0,1651087274532234.0,0
26,0.0,-1.0,-6.0,-1.0,-4.0,-3.0,-1.0,1.0,1651087274532234.0,0
27,1.0,0.0,5.0,1.0,1.0,2.0,-1.0,-3.0,1651087274532234.0,0
28,-1.0,-3.0,-2.0,-1.0,2.0,0.0,-3.0,1.0,1651087274554624.0,0
29,-3.0,0.0,7.0,1.0,-4.0,0.0,0.0,0.0,1651087274554624.0,0
30,0.0,-3.0,-18.0,-15.0,-12.0,-7.0,-1.0,-2.0,1651087274554624.0,0
31,0.0,4.0,-10.0,2.0,7.0,2.0,1.0,1.0,1651087274554624.0,0
32,0.0,-3.0,8.0,0.0,-3.0,4.0,-1.0,-2.0,1651087274569650.0,0
33,0.0,1.0,0.0,2.0,5.0,-4.0,-3.0,-2.0,1651087274569650.0,0
34,2.0,0.0,3.0,1.0,6.0,6.0,1.0,1.0,1651087274569650.0,0
35,-2.0,-2.0,10.0,0.0,4.0,3.0,3.0,-1.0,1651087274569650.0,0
36,1.0,4.0,2.0,-1.0,-3.0,-2.0,-1.0,-1.0,1651087274592562.0,0
37,1.0,-4.0,-14.0,0.0,3.0,3.0,0.0,-1.0,1651087274592562.0,0
38,-2.0,-1.0,-3.0,-2.0,-7.0,-5.0,-1.0,0.0,1651087274592562.0,0
39,-1.0,1.0,1.0,1.0,-1.0,0.0,0.0,0.0,1651087274592562.0,0
40,-1.0,-1.0,4.0,4.0,2.0,-2.0,0.0,0.0,1651087274614219.0,0
41,-1.0,-2.0,8.0,-1.0,-4.0,-3.0,-2.0,-1.0,1651087274614219.0,0
42,0.0,2.0,-3.0,1.0,3.0,2.0,-1.0,-1.0,1651087274615217.0,0
43,-1.0,-3.0,-9.0,-4.0,1.0,-1.0,0.0,0.0,1651087274615217.0,0
44,-1.0,-1.0,-1.0,1.0,1.0,1.0,1.0,-2.0,1651087274629208.0,0
45,-2.0,1.0,4.0,0.0,-1.0,0.0,0.0,0.0,1651087274629208.0,0
46,0.0,0.0,4.0,2.0,4.0,3.0,-1.0,1.0,1651087274630209.0,0
47,2.0,0.0,10.0,-1.0,-7.0,-6.0,-3.0,-2.0,1651087274630209.0,0
48,-1.0,-1.0,-9.0,0.0,-3.0,0.0,0.0,-1.0,1651087274652700.0,0
49,0.0,0.0,-11.0,-12.0,-8.0,-3.0,-1.0,-1.0,1651087274652700.0,0
50,-1.0,1.0,9.0,9.0,11.0,3.0,-1.0,-1.0,1651087274652700.0,0
51,0.0,0.0,10.0,7.0,4.0,-1.0,0.0,-1.0,1651087274652700.0,0
52,2.0,2.0,-11.0,-8.0,-4.0,-2.0,-2.0,0.0,1651087274674334.0,0
53,-2.0,-6.0,2.0,-4.0,-1.0,-2.0,-2.0,-2.0,1651087274674334.0,0
54,-1.0,-3.0,-5.0,-5.0,-9.0,-4.0,0.0,0.0,1651087274675194.0,0
55,0.0,0.0,-3.0,-2.0,2.0,0.0,-1.0,-1.0,1651087274675194.0,0
56,2.0,0.0,1.0,1.0,4.0,1.0,-1.0,-1.0,1651087274689685.0,0
57,-1.0,1.0,2.0,-1.0,-1.0,-1.0,0.0,1.0,1651087274689685.0,0
58,-2.0,-1.0,-1.0,-4.0,-1.0,-1.0,0.0,-1.0,1651087274689685.0,0
59,-2.0,-2.0,-1.0,4.0,0.0,0.0,2.0,0.0,1651087274689685.0,0
60,1.0,0.0,3.0,4.0,7.0,4.0,2.0,3.0,1651087274712183.0,0
61,0.0,1.0,-1.0,2.0,-2.0,-3.0,0.0,-1.0,1651087274712183.0,0
62,1.0,0.0,6.0,2.0,4.0,2.0,-1.0,-1.0,1651087274712183.0,0
63,-1.0,0.0,-10.0,-11.0,-10.0,-1.0,-1.0,1.0,1651087274712183.0,0
64,-2.0,-4.0,-7.0,-3.0,-2.0,-2.0,0.0,0.0,1651087274734201.0,0
65,2.0,3.0,6.0,9.0,3.0,-1.0,2.0,0.0,1651087274734201.0,0
66,0.0,3.0,6.0,-5.0,-2.0,-4.0,1.0,-1.0,1651087274735065.0,0
67,0.0,0.0,1.0,-4.0,-5.0,-4.0,-3.0,-1.0,1651087274735065.0,0
68,-2.0,-1.0,6.0,7.0,3.0,2.0,-1.0,0.0,1651087274748185.0,0
69,-1.0,-1.0,3.0,-1.0,3.0,4.0,-1.0,1.0,1651087274748185.0,0
70,-1.0,-2.0,-7.0,4.0,-4.0,-3.0,-3.0,-1.0,1651087274757298.0,0
71,-1.0,0.0,-4.0,-5.0,-5.0,-4.0,-2.0,1.0,1651087274757298.0,0
72,0.0,0.0,-10.0,-9.0,-5.0,-1.0,-2.0,-1.0,1651087274779545.0,0
73,0.0,0.0,10.0,0.0,-4.0,-1.0,-3.0,-2.0,1651087274779545.0,0
74,-3.0,-2.0,3.0,10.0,11.0,3.0,4.0,0.0,1651087274780408.0,0
75,-1.0,1.0,1.0,-1.0,-7.0,-1.0,0.0,0.0,1651087274780408.0,0
76,1.0,-1.0,-4.0,-1.0,4.0,3.0,-1.0,0.0,1651087274794353.0,0
77,0.0,-1.0,-2.0,-8.0,-2.0,-2.0,-1.0,1.0,1651087274794353.0,0
78,0.0,0.0,1.0,0.0,-3.0,-6.0,-2.0,0.0,1651087274795209.0,0
79,0.0,-5.0,-9.0,-3.0,1.0,0.0,0.0,-2.0,1651087274795209.0,0
80,0.0,2.0,12.0,11.0,7.0,0.0,2.0,-1.0,1651087274817890.0,0
81,1.0,3.0,13.0,8.0,6.0,4.0,1.0,0.0,1651087274817890.0,0
82,0.0,-3.0,-17.0,-7.0,-10.0,-4.0,-4.0,0.0,1651087274817890.0,0
83,0.0,1.0,7.0,-3.0,-3.0,-3.0,-1.0,-1.0,1651087274817890.0,0
84,-1.0,-4.0,-7.0,-6.0,-4.0,-1.0,1.0,-1.0,1651087274840244.0,0
85,-2.0,-2.0,-8.0,-4.0,1.0,1.0,-2.0,0.0,1651087274840244.0,0
86,-1.0,1.0,8.0,4.0,-3.0,-1.0,0.0,-1.0,1651087274840244.0,0
87,0.0,-1.0,9.0,-1.0,-3.0,-3.0,-2.0,0.0,1651087274840244.0,0
88,0.0,-3.0,-9.0,-3.0,2.0,1.0,-1.0,-1.0,1651087274854344.0,0
89,1.0,1.0,-3.0,-1.0,0.0,0.0,1.0,0.0,1651087274854344.0,0
90,0.0,-2.0,-6.0,-2.0,-2.0,0.0,0.0,0.0,1651087274855232.0,0
91,1.0,2.0,6.0,5.0,6.0,0.0,0.0,-1.0,1651087274855232.0,0
92,-2.0,-1.0,0.0,0.0,1.0,-1.0,-1.0,-2.0,1651087274877189.0,0
93,-2.0,-1.0,-11.0,-3.0,-7.0,-4.0,-1.0,-1.0,1651087274877189.0,0
94,-1.0,1.0,2.0,-1.0,-2.0,2.0,-1.0,0.0,1651087274877189.0,0
95,0.0,0.0,0.0,-6.0,-2.0,0.0,-2.0,0.0,1651087274877189.0,0
96,-1.0,1.0,-7.0,-9.0,-11.0,-3.0,0.0,1.0,1651087274900372.0,0
97,0.0,-1.0,2.0,12.0,12.0,4.0,1.0,-1.0,1651087274900372.0,0
98,-2.0,-4.0,2.0,-5.0,-6.0,-4.0,-3.0,0.0,1651087274900372.0,0
99,0.0,0.0,0.0,-2.0,-1.0,-1.0,-2.0,0.0,1651087274900372.0,0
100,1.0,2.0,14.0,-3.0,-14.0,-5.0,0.0,0.0,1651087274914428.0,0
101,-1.0,-1.0,-20.0,-13.0,-1.0,1.0,0.0,1.0,1651087274914428.0,0
102,0.0,-3.0,7.0,10.0,2.0,0.0,-1.0,-1.0,1651087274914428.0,0
103,0.0,-1.0,-8.0,-8.0,-5.0,1.0,-1.0,-3.0,1651087274914428.0,0
104,0.0,0.0,-2.0,0.0,6.0,3.0,1.0,-2.0,1651087274936391.0,0
105,-1.0,-1.0,7.0,5.0,1.0,4.0,1.0,0.0,1651087274936391.0,0
106,1.0,3.0,8.0,5.0,12.0,1.0,0.0,1.0,1651087274937234.0,0
107,0.0,-3.0,-23.0,-5.0,-7.0,-3.0,-1.0,1.0,1651087274937234.0,0
108,-2.0,-2.0,-3.0,-6.0,-3.0,-2.0,-3.0,-2.0,1651087274960684.0,0
109,-1.0,-1.0,0.0,6.0,-1.0,1.0,0.0,-1.0,1651087274960684.0,0
110,0.0,-4.0,-2.0,-5.0,-2.0,-2.0,0.0,-1.0,1651087274960684.0,0
111,0.0,3.0,5.0,0.0,4.0,-1.0,0.0,-1.0,1651087274960684.0,0
112,-2.0,-1.0,4.0,-8.0,-12.0,-6.0,-1.0,-1.0,1651087274974370.0,0
113,-1.0,-2.0,2.0,9.0,-1.0,-6.0,-2.0,-2.0,1651087274974370.0,0
114,1.0,7.0,8.0,3.0,14.0,14.0,2.0,1.0,1651087274975210.0,0
115,0.0,-6.0,-3.0,2.0,3.0,-1.0,-1.0,0.0,1651087274975210.0,0
116,0.0,-4.0,-3.0,2.0,-1.0,1.0,-1.0,0.0,1651087274996340.0,0
117,0.0,1.0,12.0,-5.0,-12.0,-6.0,-2.0,-2.0,1651087274996340.0,0
118,-1.0,1.0,-15.0,-3.0,-6.0,-3.0,-1.0,-2.0,1651087274997178.0,0
119,-1.0,1.0,-4.0,1.0,4.0,4.0,0.0,0.0,1651087274997178.0,0
120,-2.0,0.0,0.0,1.0,-1.0,-5.0,-2.0,0.0,1651087275020384.0,0
121,0.0,-3.0,1.0,1.0,-1.0,-1.0,1.0,0.0,1651087275020384.0,0
122,2.0,4.0,5.0,3.0,-1.0,2.0,0.0,0.0,1651087275020384.0,0
123,-2.0,-19.0,-11.0,-8.0,-5.0,-5.0,-1.0,-1.0,1651087275020384.0,0
124,-2.0,15.0,15.0,3.0,-3.0,-5.0,-3.0,-1.0,1651087275034375.0,0
125,-3.0,-9.0,-20.0,-12.0,-11.0,-3.0,-1.0,-2.0,1651087275034375.0,0
126,1.0,1.0,1.0,-17.0,-11.0,-8.0,-2.0,0.0,1651087275035219.0,0
127,1.0,5.0,14.0,22.0,21.0,7.0,1.0,1.0,1651087275035219.0,0
128,0.0,-6.0,-5.0,5.0,6.0,2.0,1.0,0.0,1651087275065211.0,0
129,1.0,3.0,5.0,-6.0,9.0,5.0,1.0,1.0,1651087275065211.0,0
130,0.0,3.0,9.0,0.0,-12.0,-9.0,-3.0,-2.0,1651087275065211.0,0
131,0.0,-2.0,-27.0,-8.0,1.0,0.0,0.0,-2.0,1651087275065211.0,0
132,1.0,0.0,1.0,2.0,1.0,3.0,2.0,1.0,1651087275080233.0,0
133,-1.0,1.0,-6.0,-1.0,17.0,7.0,2.0,2.0,1651087275080233.0,0
134,0.0,-7.0,5.0,16.0,5.0,8.0,0.0,0.0,1651087275080233.0,0
135,-1.0,0.0,10.0,5.0,-3.0,-6.0,-2.0,-3.0,1651087275080233.0,0
136,-1.0,0.0,-8.0,-9.0,-6.0,-2.0,-2.0,-2.0,1651087275094375.0,0
137,-4.0,11.0,9.0,-1.0,-14.0,-9.0,-4.0,-3.0,1651087275094375.0,0
138,-1.0,-3.0,-12.0,-26.0,-16.0,-6.0,-2.0,-2.0,1651087275095217.0,0
139,1.0,4.0,11.0,21.0,2.0,2.0,1.0,1.0,1651087275095217.0,0
140,-2.0,-7.0,-10.0,11.0,31.0,14.0,1.0,-1.0,1651087275118199.0,0
141,0.0,-3.0,-5.0,0.0,4.0,3.0,-1.0,1.0,1651087275118199.0,0
142,-1.0,-2.0,-10.0,-6.0,-2.0,-2.0,0.0,1.0,1651087275118257.0,0
143,0.0,6.0,5.0,-19.0,-15.0,-1.0,0.0,-2.0,1651087275118257.0,0
144,-2.0,-5.0,-9.0,-5.0,-13.0,-5.0,1.0,-1.0,1651087275140376.0,0
145,1.0,1.0,8.0,16.0,2.0,-1.0,-1.0,0.0,1651087275140376.0,0
146,-1.0,-1.0,-10.0,-1.0,2.0,-4.0,-2.0,0.0,1651087275140376.0,0
147,-1.0,0.0,2.0,1.0,5.0,5.0,0.0,3.0,1651087275140376.0,0
148,1.0,2.0,10.0,4.0,-5.0,-4.0,-3.0,-2.0,1651087275154337.0,0
149,-2.0,-1.0,-3.0,-6.0,2.0,1.0,-1.0,-2.0,1651087275154337.0,0
150,0.0,-4.0,-5.0,-6.0,-9.0,-7.0,-1.0,-2.0,1651087275155242.0,0
151,-3.0,-3.0,9.0,-10.0,-2.0,1.0,-1.0,-1.0,1651087275155242.0,0
152,0.0,-1.0,-9.0,16.0,5.0,0.0,-1.0,-1.0,1651087275177344.0,0
153,1.0,-1.0,-2.0,7.0,9.0,5.0,1.0,1.0,1651087275177344.0,0
154,-2.0,1.0,0.0,-12.0,-8.0,-2.0,-2.0,0.0,1651087275177344.0,0
155,-1.0,-4.0,-4.0,6.0,3.0,-3.0,-2.0,0.0,1651087275177344.0,0
156,5.0,1.0,7.0,-8.0,-7.0,-3.0,-3.0,1.0,1651087275200539.0,0
157,-5.0,-1.0,5.0,5.0,-4.0,-5.0,-4.0,-1.0,1651087275200539.0,0
158,-2.0,1.0,-4.0,-5.0,3.0,2.0,0.0,-2.0,1651087275200539.0,0
159,-1.0,-6.0,-1.0,-1.0,-5.0,-2.0,-1.0,-1.0,1651087275200539.0,0
160,-1.0,10.0,8.0,15.0,11.0,4.0,3.0,0.0,1651087275214220.0,0
161,2.0,-4.0,0.0,9.0,25.0,9.0,2.0,0.0,1651087275214220.0,0
162,2.0,5.0,4.0,4.0,-2.0,-1.0,-2.0,0.0,1651087275215251.0,0
163,-3.0,-9.0,-11.0,-19.0,-13.0,-4.0,-3.0,-2.0,1651087275215251.0,0
164,0.0,-9.0,1.0,3.0,-7.0,-4.0,-2.0,-2.0,1651087275237200.0,0
165,1.0,0.0,-2.0,-4.0,-5.0,-2.0,0.0,-1.0,1651087275237200.0,0
166,-6.0,-5.0,-12.0,13.0,8.0,3.0,0.0,-2.0,1651087275237200.0,0
167,0.0,8.0,9.0,-2.0,-2.0,-3.0,-1.0,0.0,1651087275237200.0,0
168,4.0,-3.0,-4.0,-12.0,-17.0,-8.0,-4.0,1.0,1651087275260378.0,0
169,-2.0,6.0,5.0,-9.0,-9.0,1.0,1.0,0.0,1651087275260378.0,0
170,-2.0,-9.0,4.0,21.0,39.0,18.0,2.0,1.0,1651087275260378.0,0
171,2.0,1.0,-1.0,0.0,-12.0,-6.0,2.0,2.0,1651087275260378.0,0
172,-15.0,-18.0,1.0,-13.0,-12.0,-8.0,-1.0,-1.0,1651087275273226.0,0
173,5.0,-2.0,-3.0,13.0,17.0,2.0,0.0,0.0,1651087275273226.0,0
174,2.0,8.0,3.0,5.0,-19.0,-10.0,-1.0,-2.0,1651087275282830.0,0
175,-13.0,-1.0,-11.0,-7.0,14.0,4.0,-2.0,-4.0,1651087275282830.0,0
176,1.0,5.0,4.0,4.0,-1.0,4.0,2.0,0.0,1651087275296379.0,0
177,-6.0,-14.0,-16.0,-21.0,-17.0,-8.0,-3.0,0.0,1651087275296379.0,0
178,1.0,4.0,-1.0,-4.0,-8.0,-1.0,-1.0,1.0,1651087275297218.0,0
179,7.0,2.0,6.0,12.0,5.0,2.0,1.0,1.0,1651087275297218.0,0
180,-1.0,5.0,-2.0,-5.0,0.0,2.0,0.0,1.0,1651087275320391.0,0
181,-1.0,0.0,1.0,-3.0,-3.0,-1.0,-1.0,-2.0,1651087275320391.0,0
182,0.0,-2.0,2.0,-5.0,2.0,2.0,-1.0,0.0,1651087275320391.0,0
183,-1.0,-1.0,1.0,4.0,1.0,-1.0,0.0,-1.0,1651087275320391.0,0
184,-2.0,2.0,7.0,26.0,29.0,8.0,1.0,-1.0,1651087275334391.0,0
185,4.0,-12.0,-16.0,-21.0,-7.0,-1.0,-2.0,1.0,1651087275334391.0,0
186,0.0,4.0,3.0,3.0,-1.0,-5.0,0.0,-2.0,1651087275350337.0,0
187,1.0,11.0,3.0,-1.0,-5.0,-2.0,-1.0,-1.0,1651087275350337.0,0
188,-6.0,-15.0,5.0,0.0,5.0,2.0,3.0,3.0,1651087275356771.0,0
189,1.0,6.0,-1.0,10.0,-3.0,-5.0,-1.0,-2.0,1651087275356771.0,0
190,7.0,-6.0,-12.0,-16.0,-10.0,-2.0,0.0,0.0,1651087275357805.0,0
191,-2.0,-1.0,-7.0,-10.0,2.0,0.0,-1.0,-2.0,1651087275357805.0,0
192,13.0,5.0,-6.0,-11.0,-7.0,-2.0,1.0,1.0,1651087275380094.0,0
193,-29.0,-28.0,2.0,3.0,-4.0,-3.0,-1.0,-3.0,1651087275380094.0,0
194,0.0,6.0,5.0,3.0,2.0,0.0,0.0,-1.0,1651087275381047.0,0
195,2.0,12.0,5.0,12.0,5.0,5.0,2.0,1.0,1651087275381047.0,0
196,5.0,1.0,-5.0,-13.0,-7.0,-3.0,-2.0,-1.0,1651087275402597.0,0
197,7.0,4.0,-1.0,-2.0,0.0,2.0,0.0,0.0,1651087275402597.0,0
198,-4.0,0.0,10.0,2.0,-2.0,-6.0,-1.0,1.0,1651087275403466.0,0
199,-5.0,-8.0,-7.0,-4.0,-10.0,-3.0,-3.0,1.0,1651087275403466.0,0
200,-2.0,-1.0,1.0,1.0,6.0,3.0,0.0,1.0,1651087275417376.0,0
201,7.0,3.0,0.0,-2.0,-2.0,0.0,1.0,0.0,1651087275417376.0,0
202,-11.0,-11.0,-1.0,-4.0,6.0,-1.0,0.0,-3.0,1651087275417376.0,0
203,4.0,6.0,-1.0,15.0,20.0,10.0,3.0,1.0,1651087275417376.0,0
204,2.0,15.0,3.0,-4.0,-11.0,-2.0,-1.0,0.0,1651087275439376.0,0
205,5.0,-3.0,2.0,10.0,8.0,2.0,-1.0,0.0,1651087275439376.0,0
206,5.0,-4.0,-13.0,-14.0,-13.0,-4.0,1.0,2.0,1651087275440375.0,0
207,6.0,-2.0,12.0,-9.0,-13.0,-5.0,0.0,-3.0,1651087275440375.0,0
208,-6.0,-15.0,-4.0,-1.0,6.0,4.0,-4.0,-8.0,1651087275463227.0,0
209,-11.0,5.0,-7.0,-10.0,-11.0,-4.0,0.0,1.0,1651087275463227.0,0
210,3.0,1.0,15.0,14.0,13.0,5.0,2.0,2.0,1651087275463227.0,0
211,0.0,14.0,11.0,11.0,5.0,3.0,2.0,2.0,1651087275463227.0,0
212,4.0,8.0,-4.0,2.0,3.0,-2.0,0.0,-1.0,1651087275477575.0,0
213,2.0,5.0,-3.0,8.0,-14.0,-9.0,-5.0,-2.0,1651087275477575.0,0
214,-13.0,-13.0,-6.0,-14.0,4.0,5.0,3.0,-1.0,1651087275477575.0,0
215,5.0,-15.0,4.0,2.0,-4.0,-4.0,-2.0,-1.0,1651087275477575.0,0
216,-17.0,10.0,0.0,3.0,13.0,4.0,0.0,2.0,1651087275500368.0,0
217,-26.0,3.0,10.0,3.0,6.0,0.0,0.0,-4.0,1651087275500368.0,0
218,28.0,14.0,-18.0,-3.0,-6.0,-2.0,0.0,2.0,1651087275500368.0,0
219,-19.0,-32.0,-2.0,-11.0,-16.0,-9.0,-5.0,-8.0,1651087275500368.0,0
220,-6.0,5.0,-2.0,-10.0,-11.0,-5.0,-4.0,-2.0,1651087275513232.0,0
221,11.0,0.0,7.0,6.0,3.0,4.0,1.0,-3.0,1651087275513232.0,0
222,2.0,2.0,8.0,-5.0,-5.0,-2.0,-1.0,1.0,1651087275522468.0,0
223,-2.0,12.0,-4.0,1.0,4.0,2.0,-1.0,1.0,1651087275522468.0,0
224,8.0,5.0,2.0,5.0,2.0,-2.0,2.0,2.0,1651087275538869.0,0
225,-8.0,5.0,-5.0,-1.0,8.0,2.0,-1.0,-2.0,1651087275538869.0,0
226,20.0,2.0,2.0,-3.0,-10.0,-4.0,-1.0,3.0,1651087275538869.0,0
227,-24.0,-14.0,-8.0,4.0,15.0,13.0,1.0,-5.0,1651087275538869.0,0
228,26.0,4.0,9.0,6.0,-1.0,-2.0,4.0,7.0,1651087275560181.0,0
229,-1.0,19.0,-11.0,-12.0,-4.0,0.0,0.0,1.0,1651087275560181.0,0
230,-19.0,-36.0,9.0,-5.0,4.0,1.0,-2.0,-3.0,1651087275561061.0,0
231,7.0,-5.0,-9.0,9.0,-1.0,-4.0,1.0,-3.0,1651087275561061.0,0
232,-19.0,-28.0,1.0,2.0,1.0,1.0,-7.0,-9.0,1651087275574322.0,0
233,1.0,-14.0,-15.0,-8.0,-8.0,-6.0,-9.0,3.0,1651087275574322.0,0
234,18.0,53.0,2.0,4.0,13.0,6.0,11.0,-3.0,1651087275581259.0,0
235,36.0,9.0,-7.0,-21.0,-25.0,-13.0,-11.0,13.0,1651087275581259.0,0
236,-6.0,11.0,-2.0,10.0,28.0,17.0,13.0,9.0,1651087275596380.0,0
237,9.0,34.0,11.0,12.0,2.0,0.0,-1.0,-8.0,1651087275596380.0,0
238,-8.0,-39.0,11.0,2.0,-15.0,-4.0,-10.0,-15.0,1651087275597397.0,0
239,-28.0,28.0,13.0,7.0,-5.0,-5.0,-6.0,-2.0,1651087275597397.0,0
240,0.0,-13.0,-29.0,-25.0,-11.0,0.0,8.0,-21.0,1651087275620306.0,0
241,39.0,26.0,15.0,-4.0,8.0,5.0,8.0,27.0,1651087275620306.0,0
242,-42.0,-38.0,-16.0,9.0,-6.0,-5.0,-4.0,-2.0,1651087275620306.0,0
243,-2.0,-4.0,12.0,17.0,34.0,22.0,17.0,12.0,1651087275620306.0,0
244,15.0,56.0,6.0,-7.0,-23.0,-19.0,-19.0,-6.0,1651087275643224.0,0
245,-38.0,-47.0,1.0,-4.0,-30.0,0.0,12.0,-12.0,1651087275643224.0,0
246,21.0,64.0,8.0,2.0,35.0,8.0,9.0,11.0,1651087275643224.0,0
247,6.0,-52.0,-19.0,-13.0,1.0,-4.0,-11.0,-51.0,1651087275643224.0,0
248,-53.0,1.0,-6.0,9.0,5.0,6.0,21.0,81.0,1651087275656555.0,1
249,9.0,17.0,-6.0,4.0,-9.0,-5.0,-12.0,-36.0,1651087275656555.0,1
250,-14.0,-17.0,18.0,10.0,-7.0,-2.0,-2.0,46.0,1651087275657411.0,1
251,-3.0,-12.0,-15.0,-4.0,0.0,0.0,8.0,-1.0,1651087275657411.0,1
252,3.0,3.0,18.0,-6.0,-13.0,-1.0,-14.0,-30.0,1651087275680248.0,1
253,26.0,67.0,30.0,4.0,10.0,-2.0,-3.0,22.0,1651087275680248.0,1
254,-24.0,-16.0,-24.0,-17.0,-30.0,-8.0,3.0,10.0,1651087275680248.0,1
255,59.0,127.0,21.0,19.0,34.0,13.0,8.0,17.0,1651087275680248.0,1
256,-62.0,-84.0,18.0,10.0,-4.0,-9.0,0.0,1.0,1651087275703217.0,1
257,29.0,36.0,-17.0,-20.0,-3.0,-2.0,-2.0,-24.0,1651087275703217.0,1
258,-31.0,-16.0,-28.0,0.0,10.0,1.0,-15.0,-31.0,1651087275703217.0,1
259,-13.0,-55.0,5.0,-2.0,-23.0,-16.0,-13.0,29.0,1651087275703217.0,1
260,36.0,26.0,0.0,-28.0,-22.0,3.0,13.0,-21.0,1651087275717571.0,1
261,-26.0,-49.0,13.0,36.0,16.0,-1.0,-1.0,-22.0,1651087275717571.0,1
262,53.0,46.0,20.0,-3.0,-11.0,-1.0,-1.0,14.0,1651087275717571.0,1
263,-28.0,-81.0,-23.0,-6.0,9.0,-6.0,-26.0,-37.0,1651087275717571.0,1
264,46.0,-9.0,-5.0,-3.0,13.0,10.0,16.0,-13.0,1651087275740454.0,1
265,-4.0,53.0,9.0,-34.0,-46.0,-21.0,-5.0,53.0,1651087275740454.0,1
266,-89.0,-60.0,-21.0,26.0,21.0,9.0,5.0,-43.0,1651087275740454.0,1
267,71.0,72.0,15.0,11.0,-4.0,6.0,21.0,35.0,1651087275740454.0,1
268,-19.0,33.0,-24.0,-23.0,-38.0,-24.0,-37.0,-26.0,1651087275762909.0,1
269,-26.0,-56.0,-5.0,8.0,41.0,24.0,30.0,-14.0,1651087275762909.0,1
270,17.0,64.0,17.0,-10.0,-8.0,-7.0,-11.0,-16.0,1651087275763095.0,1
271,-9.0,-27.0,-2.0,-6.0,-27.0,0.0,25.0,24.0,1651087275763095.0,1
272,9.0,-14.0,-5.0,25.0,19.0,13.0,-3.0,11.0,1651087275777432.0,1
273,-35.0,-6.0,-15.0,-7.0,9.0,-10.0,-19.0,3.0,1651087275777432.0,1
274,-21.0,-4.0,13.0,-3.0,-7.0,3.0,-2.0,-27.0,1651087275777432.0,1
275,38.0,121.0,20.0,2.0,-7.0,-2.0,17.0,-12.0,1651087275777432.0,1
276,31.0,4.0,-15.0,-4.0,-5.0,0.0,14.0,-3.0,1651087275801361.0,1
277,29.0,-93.0,-18.0,-10.0,-27.0,-8.0,-22.0,14.0,1651087275801361.0,1
278,39.0,-2.0,-8.0,13.0,41.0,15.0,16.0,32.0,1651087275801361.0,1
279,-45.0,113.0,6.0,-33.0,-31.0,-21.0,-28.0,-31.0,1651087275801361.0,1
280,15.0,8.0,7.0,20.0,11.0,0.0,7.0,30.0,1651087275822523.0,1
281,-30.0,-42.0,10.0,17.0,16.0,9.0,-2.0,-7.0,1651087275822523.0,1
282,23.0,36.0,16.0,-4.0,-48.0,-24.0,6.0,9.0,1651087275823400.0,1
283,-39.0,-87.0,-29.0,4.0,54.0,16.0,1.0,4.0,1651087275823400.0,1
284,7.0,65.0,2.0,-9.0,-2.0,0.0,-27.0,-34.0,1651087275837460.0,1
285,13.0,-17.0,7.0,8.0,-2.0,-4.0,2.0,74.0,1651087275837460.0,1
286,2.0,-12.0,-24.0,1.0,6.0,3.0,1.0,22.0,1651087275844365.0,1
287,37.0,-1.0,-5.0,-9.0,-22.0,-4.0,-2.0,-28.0,1651087275844365.0,1
288,-41.0,14.0,-8.0,3.0,-13.0,-19.0,-32.0,-25.0,1651087275860372.0,1
289,119.0,-9.0,3.0,-30.0,-14.0,6.0,7.0,-5.0,1651087275860372.0,1
290,-57.0,54.0,-2.0,30.0,65.0,22.0,3.0,-12.0,1651087275860372.0,1
291,20.0,-79.0,-15.0,12.0,18.0,6.0,9.0,34.0,1651087275860372.0,1
292,-9.0,-105.0,-20.0,-16.0,-9.0,-8.0,-8.0,-22.0,1651087275883354.0,1
293,-28.0,112.0,33.0,1.0,-21.0,-3.0,-17.0,-12.0,1651087275883354.0,1
294,-62.0,-68.0,-40.0,-47.0,-39.0,-21.0,-14.0,-30.0,1651087275883354.0,1
295,17.0,-9.0,-7.0,32.0,15.0,6.0,7.0,0.0,1651087275883354.0,1
296,46.0,31.0,19.0,0.0,5.0,7.0,-19.0,-27.0,1651087275905313.0,1
297,-30.0,44.0,29.0,37.0,32.0,14.0,45.0,39.0,1651087275905313.0,1
298,20.0,-69.0,-1.0,-12.0,-16.0,-1.0,9.0,32.0,1651087275905313.0,1
299,-50.0,1.0,19.0,-16.0,-14.0,-8.0,8.0,-17.0,1651087275905313.0,1
300,65.0,-2.0,1.0,12.0,23.0,10.0,-26.0,-17.0,1651087275920333.0,1
301,-17.0,30.0,-25.0,-19.0,-2.0,-5.0,4.0,23.0,1651087275920333.0,1
302,108.0,108.0,9.0,28.0,12.0,2.0,12.0,-35.0,1651087275920333.0,1
303,3.0,34.0,-10.0,-23.0,-12.0,-3.0,7.0,53.0,1651087275920333.0,1
304,-9.0,59.0,29.0,25.0,5.0,1.0,25.0,-10.0,1651087275942876.0,1
305,9.0,17.0,-5.0,-11.0,7.0,2.0,-6.0,-22.0,1651087275942876.0,1
306,39.0,-3.0,11.0,17.0,14.0,5.0,-6.0,7.0,1651087275943095.0,1
307,-18.0,79.0,16.0,-13.0,-34.0,-20.0,-18.0,-11.0,1651087275943095.0,1
308,70.0,9.0,-23.0,-27.0,-15.0,-12.0,15.0,54.0,1651087275957638.0,1
309,-35.0,-31.0,-15.0,-1.0,-1.0,1.0,-7.0,-34.0,1651087275957638.0,1
310,13.0,48.0,-5.0,-21.0,-28.0,-6.0,19.0,53.0,1651087275957638.0,1
311,-23.0,-110.0,3.0,26.0,18.0,11.0,-11.0,-23.0,1651087275957638.0,1
312,-4.0,-18.0,15.0,17.0,20.0,3.0,8.0,9.0,1651087275980170.0,1
313,-33.0,0.0,-21.0,-13.0,-16.0,-9.0,-7.0,3.0,1651087275980170.0,1
314,52.0,-57.0,6.0,-8.0,-17.0,-5.0,-13.0,-29.0,1651087275980170.0,1
315,-18.0,6.0,0.0,-24.0,8.0,2.0,-18.0,-13.0,1651087275980170.0,1
316,-5.0,19.0,11.0,36.0,46.0,19.0,22.0,33.0,1651087276002445.0,1
317,-64.0,34.0,-7.0,0.0,-7.0,-9.0,-4.0,-13.0,1651087276002445.0,1
318,-65.0,-40.0,3.0,-13.0,-22.0,-13.0,-31.0,-43.0,1651087276003312.0,1
319,22.0,-21.0,1.0,2.0,18.0,0.0,1.0,52.0,1651087276003312.0,1
320,-49.0,-69.0,-10.0,-24.0,-27.0,-4.0,18.0,3.0,1651087276016316.0,1
321,59.0,6.0,-7.0,3.0,-2.0,-9.0,-38.0,-55.0,1651087276016316.0,1
322,9.0,71.0,26.0,30.0,13.0,6.0,22.0,34.0,1651087276017214.0,1
323,-77.0,-120.0,-1.0,1.0,5.0,9.0,-10.0,-57.0,1651087276017214.0,1
324,-54.0,-26.0,-35.0,-21.0,-8.0,-5.0,1.0,-20.0,1651087276039304.0,1
325,45.0,-79.0,11.0,21.0,25.0,14.0,10.0,38.0,1651087276039304.0,1
326,-17.0,53.0,-14.0,-36.0,-37.0,-8.0,4.0,5.0,1651087276046279.0,1
327,52.0,76.0,-10.0,11.0,-6.0,-1.0,12.0,0.0,1651087276046279.0,1
328,-16.0,-46.0,8.0,-5.0,3.0,-1.0,-7.0,3.0,1651087276062200.0,1
329,17.0,55.0,5.0,-14.0,-31.0,-6.0,11.0,-6.0,1651087276062200.0,1
330,32.0,-128.0,-35.0,-10.0,8.0,5.0,9.0,31.0,1651087276063095.0,1
331,-55.0,52.0,18.0,27.0,-4.0,-8.0,4.0,-36.0,1651087276063095.0,1
332,-28.0,42.0,0.0,-2.0,-2.0,3.0,-9.0,20.0,1651087276077168.0,1
333,30.0,22.0,-3.0,3.0,-18.0,-4.0,18.0,30.0,1651087276077168.0,1
334,-43.0,41.0,20.0,10.0,36.0,21.0,-15.0,-45.0,1651087276077168.0,1
335,22.0,47.0,11.0,-3.0,-6.0,-2.0,-5.0,27.0,1651087276077168.0,1
336,-78.0,-95.0,-67.0,-46.0,-42.0,-16.0,2.0,-39.0,1651087276100316.0,1
337,-35.0,8.0,10.0,-18.0,-31.0,-15.0,-18.0,-6.0,1651087276100316.0,1
338,43.0,76.0,10.0,60.0,82.0,23.0,7.0,-4.0,1651087276100316.0,1
339,20.0,-93.0,10.0,1.0,-6.0,8.0,18.0,-4.0,1651087276100316.0,1
340,2.0,84.0,24.0,-8.0,-23.0,-16.0,-21.0,15.0,1651087276122279.0,1
341,2.0,-110.0,-32.0,0.0,23.0,15.0,-7.0,-30.0,1651087276122279.0,1
342,-27.0,-42.0,-6.0,-10.0,-9.0,-10.0,-11.0,-5.0,1651087276123158.0,1
343,118.0,104.0,19.0,-16.0,-2.0,1.0,28.0,55.0,1651087276123158.0,1
344,-32.0,-64.0,0.0,19.0,0.0,-8.0,10.0,25.0,1651087276137209.0,1
345,-39.0,-79.0,-12.0,9.0,-1.0,4.0,26.0,-36.0,1651087276137209.0,1
346,87.0,81.0,23.0,4.0,26.0,9.0,-16.0,6.0,1651087276137209.0,1
347,-17.0,-23.0,-4.0,6.0,5.0,5.0,9.0,49.0,1651087276137209.0,1
348,55.0,14.0,-15.0,-4.0,-2.0,5.0,-4.0,-13.0,1651087276160339.0,1
349,12.0,34.0,2.0,-13.0,-11.0,-10.0,4.0,-9.0,1651087276160339.0,1
350,-5.0,-41.0,6.0,2.0,-6.0,-1.0,-9.0,-10.0,1651087276160339.0,1
351,6.0,-12.0,-3.0,37.0,20.0,3.0,-19.0,-4.0,1651087276160339.0,1
352,-12.0,0.0,22.0,5.0,8.0,12.0,25.0,12.0,1651087276182561.0,1
353,-52.0,-15.0,-17.0,-9.0,2.0,-13.0,-38.0,-35.0,1651087276182561.0,1
354,-17.0,-40.0,-20.0,-13.0,-10.0,-8.0,3.0,56.0,1651087276183469.0,1
355,-47.0,15.0,5.0,-7.0,-25.0,-11.0,-20.0,-13.0,1651087276183469.0,1
356,-24.0,41.0,8.0,-22.0,-10.0,-3.0,-4.0,-7.0,1651087276196701.0,1
357,30.0,10.0,-18.0,41.0,21.0,5.0,-1.0,-19.0,1651087276196701.0,1
358,-10.0,68.0,13.0,1.0,10.0,9.0,9.0,3.0,1651087276197714.0,1
359,-40.0,-79.0,-47.0,-47.0,-43.0,-21.0,-20.0,-29.0,1651087276197714.0,1
360,33.0,48.0,30.0,36.0,29.0,14.0,13.0,-3.0,1651087276219028.0,1
361,-17.0,16.0,14.0,-23.0,-1.0,0.0,-3.0,20.0,1651087276219028.0,1
362,42.0,32.0,13.0,-5.0,-41.0,-14.0,5.0,-2.0,1651087276226148.0,1
363,26.0,-27.0,-4.0,12.0,21.0,7.0,-2.0,-21.0,1651087276226148.0,1
364,3.0,43.0,20.0,2.0,-4.0,-3.0,-1.0,10.0,1651087276242185.0,1
365,-52.0,-47.0,-24.0,-8.0,14.0,8.0,13.0,5.0,1651087276242185.0,1
366,59.0,42.0,-4.0,-12.0,-30.0,-5.0,6.0,6.0,1651087276243183.0,1
367,-29.0,23.0,12.0,6.0,19.0,9.0,-10.0,-37.0,1651087276243183.0,1
368,62.0,9.0,-3.0,8.0,0.0,-13.0,11.0,72.0,1651087276256148.0,1
369,48.0,46.0,21.0,4.0,17.0,14.0,10.0,10.0,1651087276256148.0,1
370,-33.0,0.0,11.0,15.0,-19.0,-5.0,6.0,3.0,1651087276264223.0,1
371,-42.0,-33.0,-21.0,-39.0,-13.0,-9.0,-6.0,-28.0,1651087276264223.0,1
372,-22.0,-1.0,11.0,18.0,37.0,16.0,-13.0,-32.0,1651087276280234.0,1
373,1.0,51.0,7.0,30.0,-1.0,6.0,23.0,38.0,1651087276280234.0,1
374,-24.0,-46.0,-18.0,-19.0,-6.0,-4.0,3.0,-21.0,1651087276280234.0,1
375,22.0,-17.0,7.0,-9.0,-23.0,-7.0,13.0,53.0,1651087276280234.0,1
376,-3.0,5.0,-1.0,-2.0,-26.0,-8.0,-8.0,-19.0,1651087276302724.0,1
377,55.0,58.0,-4.0,25.0,56.0,18.0,-12.0,-48.0,1651087276302724.0,1
378,-83.0,-128.0,-14.0,-22.0,-7.0,-12.0,-47.0,-5.0,1651087276303625.0,1
379,11.0,66.0,2.0,20.0,0.0,-2.0,13.0,18.0,1651087276303625.0,1
380,-30.0,-58.0,-25.0,-9.0,-18.0,-22.0,-29.0,-9.0,1651087276317038.0,1
381,66.0,36.0,-7.0,-31.0,-32.0,-5.0,12.0,25.0,1651087276317038.0,1
382,-23.0,65.0,3.0,16.0,22.0,8.0,12.0,-16.0,1651087276325216.0,1
383,15.0,99.0,4.0,14.0,15.0,11.0,2.0,0.0,1651087276325216.0,1
384,-7.0,-17.0,5.0,-23.0,-23.0,-11.0,-15.0,-36.0,1651087276340414.0,1
385,-25.0,8.0,2.0,-1.0,15.0,-7.0,-34.0,-18.0,1651087276340414.0,1
386,3.0,50.0,-1.0,-30.0,-21.0,-7.0,10.0,47.0,1651087276340414.0,1
387,10.0,-29.0,-14.0,18.0,23.0,4.0,-12.0,-42.0,1651087276340414.0,1
388,15.0,56.0,0.0,-13.0,9.0,9.0,23.0,40.0,1651087276363224.0,1
389,16.0,2.0,3.0,11.0,-14.0,-9.0,-10.0,6.0,1651087276363224.0,1
390,-61.0,-76.0,3.0,-14.0,10.0,4.0,3.0,-8.0,1651087276363224.0,1
391,-66.0,-43.0,9.0,17.0,-7.0,-10.0,-15.0,-8.0,1651087276363224.0,1
392,101.0,67.0,-19.0,-1.0,-8.0,2.0,-4.0,20.0,1651087276376412.0,1
393,-70.0,-59.0,9.0,-23.0,10.0,7.0,10.0,-3.0,1651087276376412.0,1
394,18.0,79.0,-26.0,35.0,5.0,-5.0,18.0,-6.0,1651087276384390.0,1
395,-40.0,-27.0,5.0,-12.0,-1.0,6.0,-5.0,-13.0,1651087276384390.0,1
396,-4.0,-124.0,3.0,12.0,16.0,5.0,-3.0,-7.0,1651087276400393.0,1
397,61.0,39.0,8.0,-1.0,-18.0,-6.0,22.0,60.0,1651087276400393.0,1
398,2.0,7.0,29.0,-24.0,-49.0,-15.0,-3.0,-22.0,1651087276400393.0,1
399,7.0,-17.0,-2.0,27.0,53.0,24.0,4.0,1.0,1651087276400393.0,1
400,26.0,92.0,35.0,5.0,-5.0,-5.0,-10.0,15.0,1651087276422650.0,1
401,-51.0,-62.0,-4.0,8.0,0.0,8.0,19.0,-20.0,1651087276422650.0,1
402,-26.0,-93.0,-7.0,-4.0,13.0,6.0,0.0,-36.0,1651087276429242.0,1
403,42.0,-1.0,-25.0,-19.0,-22.0,-13.0,26.0,42.0,1651087276429242.0,1
404,18.0,-15.0,13.0,25.0,28.0,14.0,-25.0,5.0,1651087276436226.0,1
405,-59.0,28.0,-24.0,-16.0,0.0,0.0,8.0,13.0,1651087276436226.0,1
406,35.0,0.0,33.0,13.0,2.0,3.0,-22.0,-43.0,1651087276444367.0,1
407,-54.0,-8.0,-19.0,3.0,-8.0,4.0,28.0,16.0,1651087276444367.0,1
408,-18.0,-75.0,-34.0,-32.0,-21.0,-14.0,-13.0,-63.0,1651087276460227.0,1
409,35.0,60.0,13.0,-4.0,-2.0,1.0,-8.0,0.0,1651087276460227.0,1
410,49.0,38.0,-26.0,12.0,5.0,-2.0,-2.0,11.0,1651087276461086.0,1
411,-48.0,-28.0,-6.0,-17.0,-23.0,-16.0,-39.0,-33.0,1651087276461086.0,1
412,-54.0,33.0,-2.0,4.0,-1.0,9.0,28.0,37.0,1651087276483220.0,1
413,65.0,17.0,11.0,11.0,-4.0,-5.0,-5.0,-9.0,1651087276483220.0,1
414,-53.0,-76.0,-21.0,-4.0,14.0,1.0,-1.0,-13.0,1651087276484221.0,1
415,83.0,-32.0,10.0,-10.0,2.0,0.0,0.0,-1.0,1651087276484221.0,1
416,-48.0,-24.0,0.0,3.0,-20.0,-7.0,5.0,-4.0,1651087276496432.0,1
417,6.0,-7.0,12.0,15.0,6.0,-7.0,-27.0,-22.0,1651087276496432.0,1
418,-20.0,13.0,2.0,10.0,-1.0,13.0,40.0,56.0,1651087276512513.0,1
419,-8.0,-42.0,6.0,-5.0,8.0,-5.0,-30.0,-27.0,1651087276512513.0,1
420,2.0,-51.0,-9.0,-43.0,-22.0,-5.0,-1.0,8.0,1651087276520417.0,1
421,-35.0,32.0,19.0,27.0,15.0,17.0,11.0,0.0,1651087276520417.0,1
422,-18.0,28.0,4.0,-7.0,-32.0,-14.0,-13.0,-9.0,1651087276521249.0,1
423,-13.0,54.0,24.0,11.0,29.0,11.0,14.0,11.0,1651087276521249.0,1
424,42.0,52.0,0.0,-8.0,-1.0,3.0,3.0,8.0,1651087276543181.0,1
425,-23.0,-62.0,-4.0,-16.0,-16.0,-4.0,-11.0,-17.0,1651087276543181.0,1
426,-24.0,-33.0,-25.0,4.0,3.0,-6.0,-20.0,-13.0,1651087276544215.0,1
427,26.0,23.0,9.0,-50.0,-41.0,-19.0,-10.0,16.0,1651087276544215.0,1
428,48.0,127.0,16.0,55.0,75.0,28.0,27.0,6.0,1651087276556470.0,1
429,-78.0,-34.0,-1.0,-17.0,-17.0,-14.0,-4.0,8.0,1651087276556470.0,1
430,21.0,56.0,-5.0,-10.0,-7.0,-8.0,-26.0,-63.0,1651087276565238.0,1
431,23.0,1.0,3.0,-18.0,-32.0,-2.0,2.0,48.0,1651087276565238.0,1
432,-60.0,-34.0,-23.0,16.0,17.0,6.0,8.0,-21.0,1651087276579249.0,1
433,25.0,-7.0,-12.0,-1.0,-1.0,-3.0,8.0,36.0,1651087276579249.0,1
434,33.0,3.0,16.0,1.0,-2.0,-4.0,-18.0,-29.0,1651087276586233.0,1
435,5.0,-4.0,8.0,3.0,2.0,2.0,15.0,-11.0,1651087276586233.0,1
436,-30.0,38.0,-9.0,-25.0,-30.0,-11.0,-11.0,-6.0,1651087276602374.0,1
437,-51.0,19.0,4.0,30.0,35.0,12.0,18.0,27.0,1651087276602374.0,1
438,-43.0,-65.0,-18.0,-17.0,-4.0,4.0,15.0,10.0,1651087276604237.0,1
439,2.0,62.0,5.0,14.0,2.0,-1.0,-2.0,-17.0,1651087276604237.0,1
440,21.0,52.0,2.0,20.0,9.0,7.0,10.0,7.0,1651087276625387.0,1
441,14.0,-30.0,-11.0,-14.0,-9.0,-8.0,-12.0,-14.0,1651087276625387.0,1
442,-73.0,-29.0,24.0,15.0,12.0,6.0,-15.0,-13.0,1651087276626228.0,1
443,-6.0,55.0,-10.0,2.0,-12.0,0.0,50.0,33.0,1651087276626228.0,1
444,35.0,47.0,14.0,6.0,7.0,-5.0,-16.0,4.0,1651087276639724.0,1
445,24.0,-44.0,-34.0,-28.0,-28.0,-10.0,-5.0,-19.0,1651087276639724.0,1
446,55.0,57.0,19.0,16.0,30.0,16.0,10.0,46.0,1651087276645876.0,1
447,6.0,9.0,-9.0,11.0,31.0,10.0,-10.0,-27.0,1651087276645876.0,1
448,-41.0,-8.0,4.0,-13.0,-15.0,5.0,22.0,15.0,1651087276663059.0,1
449,38.0,79.0,20.0,-3.0,5.0,-1.0,-8.0,3.0,1651087276663059.0,1
450,0.0,-11.0,3.0,-18.0,-18.0,-7.0,1.0,-12.0,1651087276663897.0,1
451,1.0,21.0,-19.0,-17.0,-16.0,-2.0,0.0,7.0,1651087276663897.0,1
452,-16.0,0.0,-13.0,16.0,27.0,5.0,8.0,9.0,1651087276685366.0,1
453,0.0,15.0,9.0,-3.0,-22.0,-12.0,-13.0,-17.0,1651087276685366.0,1
454,0.0,43.0,5.0,-17.0,-5.0,-6.0,-16.0,-29.0,1651087276686199.0,1
455,-86.0,-72.0,-10.0,6.0,16.0,18.0,16.0,42.0,1651087276686199.0,1
456,37.0,-49.0,-1.0,-16.0,-13.0,-6.0,-20.0,-43.0,1651087276698167.0,1
457,24.0,-22.0,15.0,3.0,0.0,0.0,14.0,41.0,1651087276698167.0,1
458,4.0,-66.0,-9.0,31.0,23.0,3.0,-14.0,-1.0,1651087276707295.0,1
459,28.0,36.0,3.0,5.0,6.0,-2.0,-1.0,-30.0,1651087276707295.0,1
460,4.0,32.0,16.0,2.0,-8.0,-7.0,-8.0,12.0,1651087276723222.0,1
461,-29.0,-29.0,-20.0,17.0,38.0,17.0,-6.0,-26.0,1651087276723222.0,1
462,53.0,40.0,-6.0,-38.0,-34.0,-13.0,16.0,40.0,1651087276724248.0,1
463,-19.0,-4.0,9.0,27.0,16.0,-5.0,-32.0,-21.0,1651087276724248.0,1
464,-20.0,-62.0,-14.0,3.0,1.0,-2.0,16.0,14.0,1651087276745371.0,1
465,-6.0,-28.0,-12.0,-33.0,-31.0,-10.0,7.0,7.0,1651087276745371.0,1
466,26.0,-9.0,7.0,14.0,1.0,3.0,1.0,0.0,1651087276746224.0,1
467,14.0,-21.0,-5.0,20.0,9.0,1.0,-5.0,-13.0,1651087276746224.0,1
468,-6.0,26.0,3.0,-33.0,-22.0,-14.0,-3.0,-44.0,1651087276760326.0,1
469,69.0,10.0,8.0,11.0,12.0,2.0,-18.0,-18.0,1651087276760326.0,1
470,37.0,-81.0,-39.0,-16.0,-15.0,-2.0,32.0,66.0,1651087276766379.0,1
471,26.0,66.0,7.0,9.0,1.0,1.0,-3.0,-32.0,1651087276766379.0,1
472,4.0,12.0,15.0,-2.0,-6.0,2.0,-19.0,2.0,1651087276782408.0,1
473,-13.0,-53.0,-16.0,3.0,0.0,-4.0,-4.0,-22.0,1651087276782408.0,1
474,-25.0,-39.0,-15.0,-2.0,15.0,5.0,15.0,0.0,1651087276790266.0,1
475,15.0,-30.0,2.0,-22.0,-28.0,-17.0,-26.0,-3.0,1651087276790266.0,1
476,25.0,15.0,13.0,33.0,33.0,14.0,8.0,-3.0,1651087276805329.0,1
477,-10.0,48.0,13.0,-3.0,-5.0,0.0,19.0,21.0,1651087276805329.0,1
478,-12.0,3.0,14.0,7.0,-4.0,-8.0,-25.0,-6.0,1651087276806193.0,1
479,31.0,18.0,-3.0,-7.0,10.0,2.0,-15.0,-15.0,1651087276806193.0,1
480,-70.0,-63.0,-15.0,-5.0,-5.0,-2.0,-2.0,-23.0,1651087276819295.0,1
481,-18.0,-8.0,-20.0,-9.0,-14.0,0.0,10.0,7.0,1651087276819295.0,1
482,47.0,99.0,29.0,32.0,20.0,11.0,21.0,45.0,1651087276827243.0,1
483,-44.0,-98.0,-15.0,-12.0,8.0,-6.0,-7.0,15.0,1651087276827243.0,1
484,-37.0,14.0,12.0,-7.0,-19.0,-5.0,7.0,-9.0,1651087276843191.0,1
485,57.0,58.0,3.0,-30.0,-18.0,-6.0,-12.0,-18.0,1651087276843191.0,1
486,-37.0,17.0,-20.0,10.0,16.0,0.0,-8.0,0.0,1651087276844224.0,1
487,33.0,19.0,11.0,-17.0,-22.0,-8.0,-7.0,-21.0,1651087276844224.0,1
488,27.0,2.0,2.0,24.0,34.0,9.0,-6.0,30.0,1651087276866311.0,1
489,-36.0,-29.0,-3.0,1.0,0.0,3.0,16.0,-1.0,1651087276866311.0,1
490,72.0,127.0,17.0,-5.0,-12.0,-4.0,-6.0,8.0,1651087276867217.0,1
491,-5.0,56.0,-12.0,-22.0,-18.0,0.0,0.0,-24.0,1651087276867217.0,1
492,-14.0,31.0,14.0,17.0,5.0,-3.0,1.0,-20.0,1651087276879191.0,1
493,-33.0,-77.0,-3.0,6.0,2.0,-1.0,-1.0,22.0,1651087276879191.0,1
494,-17.0,37.0,-7.0,-12.0,7.0,2.0,0.0,-31.0,1651087276886300.0,1
495,33.0,31.0,-5.0,23.0,1.0,2.0,19.0,41.0,1651087276886300.0,1
496,15.0,69.0,8.0,-12.0,-16.0,-7.0,-1.0,6.0,1651087276903181.0,1
497,29.0,25.0,8.0,-3.0,-12.0,-5.0,-8.0,-22.0,1651087276903181.0,1
498,-37.0,-39.0,6.0,-13.0,10.0,1.0,-9.0,-8.0,1651087276904215.0,1
499,-15.0,4.0,-27.0,-16.0,-12.0,-3.0,-3.0,-19.0,1651087276904215.0,1
500,8.0,-22.0,-3.0,1.0,-7.0,-2.0,-3.0,27.0,1651087276925303.0,1
501,-2.0,6.0,5.0,23.0,12.0,5.0,-7.0,-4.0,1651087276925303.0,1
502,3.0,-29.0,0.0,3.0,-9.0,-2.0,-2.0,-11.0,1651087276926211.0,1
503,27.0,5.0,-9.0,-14.0,-5.0,-2.0,7.0,35.0,1651087276926211.0,1
504,16.0,-21.0,-16.0,-7.0,2.0,2.0,-4.0,-4.0,1651087276940240.0,1
505,2.0,0.0,-3.0,2.0,5.0,3.0,1.0,-29.0,1651087276940240.0,1
506,-11.0,-24.0,-5.0,-9.0,-9.0,-11.0,-25.0,10.0,1651087276946321.0,1
507,3.0,-14.0,0.0,11.0,5.0,9.0,7.0,-21.0,1651087276946321.0,1
508,1.0,-39.0,-9.0,-6.0,-9.0,-3.0,-2.0,27.0,1651087276963188.0,1
509,2.0,27.0,6.0,1.0,0.0,0.0,-4.0,-4.0,1651087276963188.0,1
510,-8.0,4.0,-5.0,1.0,0.0,-9.0,1.0,-16.0,1651087276964188.0,1
511,-12.0,6.0,20.0,7.0,10.0,17.0,17.0,13.0,1651087276964188.0,1
512,4.0,-24.0,-2.0,-12.0,-7.0,-9.0,-11.0,-16.0,1651087276985311.0,1
513,11.0,19.0,-6.0,-6.0,2.0,13.0,18.0,26.0,1651087276985311.0,1
514,-5.0,2.0,6.0,12.0,2.0,-16.0,-10.0,-27.0,1651087276986186.0,1
515,-8.0,-12.0,7.0,-2.0,-1.0,15.0,17.0,2.0,1651087276986186.0,1
516,0.0,-24.0,-24.0,-11.0,-7.0,-7.0,-9.0,-10.0,1651087277000357.0,1
517,16.0,20.0,12.0,4.0,9.0,8.0,11.0,10.0,1651087277000357.0,1
518,-9.0,-18.0,-6.0,1.0,-5.0,9.0,24.0,10.0,1651087277006361.0,1
519,1.0,-1.0,8.0,2.0,3.0,-11.0,-16.0,2.0,1651087277006361.0,1
520,3.0,-4.0,-7.0,1.0,0.0,4.0,4.0,-8.0,1651087277023185.0,1
521,-7.0,11.0,-1.0,2.0,1.0,-9.0,-6.0,13.0,1651087277023185.0,1
522,-5.0,-7.0,-7.0,-13.0,-5.0,0.0,-8.0,-6.0,1651087277024209.0,1
523,0.0,0.0,17.0,14.0,-3.0,-16.0,-8.0,-9.0,1651087277024209.0,1
524,7.0,1.0,18.0,6.0,1.0,-4.0,-5.0,-1.0,1651087277045366.0,1
525,-9.0,-1.0,10.0,0.0,-2.0,-7.0,1.0,5.0,1651087277045366.0,1
526,3.0,-9.0,-18.0,3.0,0.0,14.0,13.0,3.0,1651087277046209.0,1
527,-9.0,5.0,2.0,-2.0,-3.0,-13.0,-10.0,8.0,1651087277046209.0,1
528,0.0,-13.0,-31.0,-12.0,0.0,-2.0,2.0,2.0,1651087277059241.0,1
529,9.0,9.0,5.0,1.0,-4.0,-2.0,0.0,-16.0,1651087277059241.0,1
530,-10.0,-1.0,6.0,10.0,8.0,5.0,-13.0,18.0,1651087277067374.0,1
531,20.0,-4.0,-27.0,-25.0,-6.0,-4.0,18.0,30.0,1651087277067374.0,1
532,-39.0,-8.0,17.0,15.0,4.0,2.0,0.0,-32.0,1651087277083208.0,1
533,21.0,11.0,17.0,10.0,-3.0,0.0,-14.0,-30.0,1651087277083208.0,1
534,-16.0,-5.0,-33.0,-26.0,-7.0,24.0,32.0,17.0,1651087277085071.0,1
535,-18.0,-5.0,6.0,7.0,3.0,10.0,-15.0,-18.0,1651087277085071.0,1
536,16.0,-6.0,7.0,6.0,-3.0,-14.0,-8.0,38.0,1651087277105027.0,1
537,3.0,8.0,-7.0,-1.0,2.0,16.0,22.0,-6.0,1651087277105027.0,1
538,21.0,-1.0,16.0,2.0,-2.0,-7.0,-3.0,-13.0,1651087277106015.0,1
539,-3.0,-4.0,1.0,8.0,-1.0,-4.0,-6.0,8.0,1651087277106015.0,1
540,3.0,2.0,-8.0,-17.0,0.0,7.0,6.0,12.0,1651087277119162.0,1
541,-9.0,-4.0,-3.0,-3.0,4.0,-9.0,-21.0,-37.0,1651087277119162.0,1
542,-20.0,-1.0,4.0,19.0,-3.0,-15.0,-11.0,0.0,1651087277127291.0,1
543,15.0,2.0,-6.0,-4.0,1.0,8.0,12.0,17.0,1651087277127291.0,1
544,-7.0,-3.0,7.0,-6.0,-1.0,-3.0,-5.0,-10.0,1651087277142506.0,1
545,-16.0,3.0,5.0,9.0,2.0,-2.0,-7.0,-15.0,1651087277142506.0,1
546,6.0,-7.0,-24.0,-15.0,-4.0,-3.0,7.0,28.0,1651087277144369.0,1
547,-13.0,-3.0,24.0,3.0,-6.0,-12.0,-22.0,-27.0,1651087277144369.0,1
548,1.0,-4.0,-32.0,-11.0,-1.0,3.0,2.0,2.0,1651087277165397.0,1
549,24.0,2.0,6.0,10.0,0.0,-5.0,-3.0,24.0,1651087277165397.0,1
550,-11.0,-2.0,-4.0,-1.0,2.0,3.0,-4.0,-6.0,1651087277166227.0,1
551,2.0,-2.0,2.0,1.0,0.0,-3.0,-6.0,-7.0,1651087277166227.0,1
552,6.0,-3.0,3.0,-10.0,-3.0,2.0,4.0,19.0,1651087277179238.0,1
553,-8.0,4.0,15.0,10.0,0.0,-1.0,-4.0,17.0,1651087277179238.0,1
554,-15.0,-7.0,-26.0,-15.0,-1.0,-3.0,-4.0,-10.0,1651087277187256.0,1
555,1.0,3.0,14.0,0.0,3.0,-2.0,1.0,7.0,1651087277187256.0,1
556,17.0,0.0,-17.0,9.0,2.0,0.0,1.0,-16.0,1651087277202596.0,1
557,-19.0,-1.0,-4.0,-12.0,-4.0,-8.0,-2.0,15.0,1651087277202596.0,1
558,11.0,5.0,14.0,25.0,4.0,3.0,3.0,12.0,1651087277203460.0,1
559,-18.0,-4.0,32.0,-8.0,0.0,4.0,5.0,-13.0,1651087277203460.0,1
560,-5.0,-4.0,-39.0,4.0,-2.0,3.0,2.0,-12.0,1651087277225373.0,1
561,-26.0,2.0,46.0,1.0,-4.0,-8.0,-10.0,-7.0,1651087277225373.0,1
562,-2.0,1.0,-26.0,-12.0,-3.0,-3.0,-3.0,-1.0,1651087277226214.0,1
563,3.0,-2.0,-34.0,-5.0,7.0,6.0,2.0,-31.0,1651087277226214.0,1
564,0.0,1.0,20.0,-5.0,-4.0,-2.0,1.0,-4.0,1651087277239239.0,1
565,9.0,0.0,-5.0,0.0,0.0,2.0,2.0,6.0,1651087277239239.0,1
566,-5.0,-3.0,5.0,-8.0,-4.0,-2.0,0.0,-12.0,1651087277248058.0,1
567,6.0,3.0,-3.0,8.0,-2.0,-1.0,2.0,13.0,1651087277248058.0,1
568,3.0,1.0,37.0,21.0,-1.0,-2.0,1.0,-3.0,1651087277263222.0,1
569,-10.0,-7.0,-39.0,-24.0,2.0,6.0,-1.0,-2.0,1651087277263222.0,1
570,15.0,7.0,29.0,2.0,6.0,4.0,1.0,-2.0,1651087277264222.0,1
571,-3.0,-2.0,-10.0,2.0,-3.0,-5.0,-3.0,-2.0,1651087277264222.0,1
572,4.0,0.0,20.0,2.0,-2.0,1.0,1.0,-3.0,1651087277285397.0,1
573,-4.0,4.0,-20.0,-2.0,-3.0,-4.0,-1.0,-7.0,1651087277285397.0,1
574,-2.0,-9.0,15.0,14.0,3.0,4.0,0.0,-6.0,1651087277287255.0,1
575,-5.0,2.0,-25.0,-6.0,-2.0,1.0,0.0,9.0,1651087277287255.0,1
576,-5.0,0.0,17.0,2.0,-2.0,-2.0,-2.0,-4.0,1651087277299186.0,1
577,5.0,-6.0,0.0,-5.0,-2.0,1.0,0.0,5.0,1651087277299186.0,1
578,5.0,-1.0,0.0,0.0,2.0,0.0,-1.0,-6.0,1651087277308129.0,1
579,-1.0,7.0,-10.0,-9.0,-3.0,-1.0,-1.0,-2.0,1651087277308129.0,1
580,1.0,0.0,25.0,19.0,12.0,6.0,3.0,4.0,1651087277322484.0,1
581,-1.0,-1.0,-9.0,-5.0,-3.0,-3.0,0.0,4.0,1651087277322484.0,1
582,2.0,-11.0,1.0,0.0,-5.0,-1.0,-1.0,-5.0,1651087277324371.0,1
583,0.0,14.0,17.0,4.0,-3.0,-1.0,0.0,8.0,1651087277324371.0,1
584,-3.0,-7.0,-10.0,-1.0,4.0,3.0,-1.0,-1.0,1651087277345562.0,1
585,3.0,-3.0,-23.0,-9.0,0.0,0.0,0.0,2.0,1651087277345562.0,1
586,-3.0,7.0,19.0,8.0,0.0,0.0,0.0,-4.0,1651087277346403.0,1
587,1.0,-4.0,14.0,-4.0,0.0,-1.0,0.0,3.0,1651087277346403.0,1
588,1.0,-4.0,-26.0,-6.0,-2.0,0.0,1.0,-3.0,1651087277359524.0,1
589,-6.0,-4.0,2.0,0.0,-2.0,-1.0,-3.0,-1.0,1651087277359524.0,1
590,4.0,4.0,6.0,-6.0,-3.0,-4.0,0.0,0.0,1651087277367503.0,1
591,1.0,-6.0,-3.0,6.0,-6.0,-2.0,-1.0,0.0,1651087277367503.0,1
592,0.0,-1.0,18.0,5.0,4.0,1.0,-1.0,-1.0,1651087277384231.0,1
593,0.0,-2.0,-13.0,-7.0,1.0,3.0,0.0,4.0,1651087277384231.0,1
594,-2.0,3.0,16.0,7.0,3.0,0.0,0.0,-1.0,1651087277385230.0,1
595,0.0,3.0,-10.0,-8.0,-1.0,-1.0,-1.0,0.0,1651087277385230.0,1
596,0.0,1.0,-1.0,-2.0,-8.0,-4.0,0.0,-3.0,1651087277405775.0,1
597,0.0,-10.0,-18.0,-4.0,-2.0,-1.0,-2.0,0.0,1651087277405775.0,1
598,1.0,9.0,19.0,8.0,9.0,5.0,-2.0,-2.0,1651087277406644.0,1
599,-2.0,-8.0,-17.0,4.0,6.0,0.0,1.0,0.0,1651087277406644.0,1
600,0.0,-1.0,-13.0,-12.0,-7.0,-5.0,0.0,2.0,1651087277419240.0,1
601,0.0,3.0,-7.0,-1.0,-6.0,-1.0,-2.0,1.0,1651087277419240.0,1
602,-1.0,-7.0,-4.0,-1.0,4.0,4.0,1.0,0.0,1651087277427253.0,1
603,-1.0,1.0,-7.0,-15.0,2.0,-1.0,0.0,2.0,1651087277427253.0,1
604,-2.0,7.0,-5.0,6.0,-4.0,0.0,0.0,-2.0,1651087277442187.0,1
605,2.0,-1.0,16.0,5.0,2.0,-2.0,0.0,2.0,1651087277442187.0,1
606,-3.0,-6.0,-22.0,-8.0,-5.0,-3.0,-1.0,-1.0,1651087277448287.0,1
607,0.0,-5.0,6.0,3.0,0.0,-1.0,-2.0,0.0,1651087277448287.0,1
608,1.0,4.0,-3.0,-10.0,3.0,-1.0,-1.0,1.0,1651087277465209.0,1
609,0.0,-2.0,12.0,7.0,1.0,0.0,1.0,-1.0,1651087277465209.0,1
610,1.0,1.0,0.0,0.0,-6.0,-2.0,-1.0,-1.0,1651087277466207.0,1
611,-1.0,-4.0,-17.0,-5.0,4.0,-1.0,0.0,-1.0,1651087277466207.0,1
612,1.0,-2.0,-1.0,-6.0,-3.0,-1.0,-2.0,-2.0,1651087277487888.0,1
613,0.0,-4.0,9.0,6.0,0.0,0.0,0.0,-1.0,1651087277487888.0,1
614,1.0,1.0,-10.0,-5.0,3.0,0.0,-1.0,1.0,1651087277488889.0,1
615,0.0,-1.0,-17.0,3.0,-2.0,-3.0,0.0,1.0,1651087277488889.0,1
616,-2.0,-2.0,4.0,5.0,4.0,7.0,0.0,0.0,1651087277502030.0,1
617,-1.0,7.0,1.0,-7.0,3.0,-2.0,0.0,1.0,1651087277502030.0,1
618,-2.0,-5.0,-5.0,-9.0,-6.0,-6.0,-4.0,-2.0,1651087277508998.0,1
619,0.0,1.0,7.0,10.0,1.0,1.0,0.0,0.0,1651087277508998.0,1
620,0.0,-1.0,4.0,-1.0,0.0,-3.0,-1.0,1.0,1651087277525349.0,1
621,0.0,-2.0,-10.0,2.0,-6.0,-3.0,0.0,2.0,1651087277525349.0,1
622,0.0,3.0,-2.0,-4.0,0.0,0.0,0.0,-1.0,1651087277526204.0,1
623,0.0,-4.0,-3.0,-4.0,-1.0,-4.0,-2.0,-2.0,1651087277526204.0,1
624,-1.0,-1.0,-4.0,-1.0,5.0,3.0,0.0,0.0,1651087277547885.0,1
625,-1.0,-3.0,-2.0,-3.0,1.0,-1.0,-1.0,-1.0,1651087277547885.0,1
626,0.0,-3.0,-1.0,5.0,-2.0,-1.0,-1.0,-1.0,1651087277548886.0,1
627,-3.0,-2.0,-16.0,-8.0,-2.0,0.0,1.0,-1.0,1651087277548886.0,1
628,-1.0,7.0,25.0,1.0,-3.0,-6.0,-2.0,-3.0,1651087277562892.0,1
629,0.0,-8.0,-18.0,-8.0,2.0,3.0,0.0,-1.0,1651087277562892.0,0
630,-1.0,10.0,-5.0,-5.0,-1.0,-1.0,0.0,-2.0,1651087277564094.0,0
631,-1.0,-12.0,0.0,6.0,-2.0,-1.0,0.0,-2.0,1651087277564094.0,0
632,1.0,-2.0,-8.0,-5.0,-4.0,-2.0,0.0,0.0,1651087277585359.0,0
633,-2.0,7.0,5.0,-1.0,-3.0,-4.0,-3.0,-2.0,1651087277585359.0,0
634,-2.0,-7.0,5.0,2.0,4.0,5.0,1.0,0.0,1651087277586212.0,0
635,0.0,3.0,18.0,8.0,0.0,0.0,1.0,2.0,1651087277586212.0,0
636,-1.0,-6.0,-15.0,-2.0,6.0,-1.0,0.0,1.0,1651087277607888.0,0
637,0.0,1.0,-2.0,1.0,2.0,1.0,-1.0,-1.0,1651087277607888.0,0
638,-2.0,-6.0,4.0,-8.0,-6.0,-2.0,-2.0,0.0,1651087277608891.0,0
639,1.0,3.0,-3.0,-2.0,-7.0,-1.0,-2.0,-1.0,1651087277608891.0,0
640,-1.0,1.0,5.0,5.0,0.0,0.0,0.0,-1.0,1651087277622875.0,0
641,-2.0,-4.0,-19.0,-13.0,-5.0,-3.0,0.0,-4.0,1651087277622875.0,0
642,0.0,2.0,2.0,0.0,4.0,-1.0,2.0,0.0,1651087277623855.0,0
643,-2.0,-2.0,3.0,3.0,-2.0,1.0,-2.0,-2.0,1651087277623855.0,0
644,0.0,-1.0,9.0,4.0,-2.0,-3.0,0.0,0.0,1651087277645351.0,0
645,0.0,0.0,-8.0,-2.0,0.0,2.0,2.0,0.0,1651087277645351.0,0
646,0.0,1.0,-4.0,-3.0,-2.0,1.0,2.0,-1.0,1651087277651280.0,0
647,0.0,-1.0,-6.0,-2.0,1.0,2.0,0.0,1.0,1651087277651280.0,0
648,-3.0,-3.0,13.0,7.0,-7.0,-1.0,-1.0,0.0,1651087277667582.0,0
649,0.0,4.0,7.0,3.0,3.0,1.0,-2.0,2.0,1651087277667582.0,0
650,2.0,-2.0,-11.0,-1.0,-1.0,-3.0,-1.0,0.0,1651087277668452.0,0
651,1.0,2.0,9.0,-1.0,5.0,2.0,-1.0,-1.0,1651087277668452.0,0
652,0.0,-6.0,-14.0,-6.0,0.0,3.0,1.0,-1.0,1651087277682372.0,0
653,-1.0,-4.0,10.0,3.0,-5.0,-4.0,0.0,-1.0,1651087277682372.0,0
654,1.0,1.0,-3.0,0.0,-4.0,-1.0,-3.0,-3.0,1651087277688368.0,0
655,0.0,8.0,12.0,-2.0,0.0,0.0,0.0,-1.0,1651087277688368.0,0
656,-1.0,15.0,-28.0,-2.0,0.0,-1.0,0.0,1.0,1651087277705220.0,0
657,-2.0,-13.0,-4.0,-7.0,-4.0,2.0,0.0,-1.0,1651087277705220.0,0
658,0.0,-2.0,-7.0,8.0,11.0,3.0,1.0,0.0,1651087277706215.0,0
659,-1.0,-2.0,15.0,4.0,-5.0,-5.0,-3.0,-2.0,1651087277706215.0,0
660,1.0,-4.0,-5.0,-9.0,-1.0,1.0,-2.0,-2.0,1651087277728313.0,0
661,0.0,5.0,8.0,7.0,6.0,4.0,1.0,2.0,1651087277728313.0,0
662,0.0,3.0,-8.0,-7.0,-5.0,-5.0,-1.0,-1.0,1651087277729105.0,0
663,-1.0,-2.0,4.0,2.0,-1.0,2.0,0.0,-1.0,1651087277729105.0,0
664,-1.0,-5.0,3.0,3.0,-1.0,0.0,-2.0,-2.0,1651087277742532.0,0
665,-1.0,-1.0,-2.0,2.0,-2.0,-3.0,-1.0,-1.0,1651087277742532.0,0
666,-1.0,-1.0,-3.0,-9.0,-4.0,-1.0,-1.0,-2.0,1651087277749212.0,0
667,-1.0,1.0,-4.0,0.0,-1.0,1.0,2.0,1.0,1651087277749212.0,0
668,0.0,-2.0,1.0,-9.0,-5.0,-4.0,0.0,0.0,1651087277765351.0,0
669,-1.0,2.0,8.0,6.0,2.0,0.0,0.0,0.0,1651087277765351.0,0
670,1.0,-1.0,0.0,6.0,5.0,4.0,0.0,1.0,1651087277766202.0,0
671,-1.0,2.0,13.0,3.0,-2.0,-4.0,-1.0,-1.0,1651087277766202.0,0
672,-3.0,-8.0,-3.0,7.0,1.0,4.0,-1.0,0.0,1651087277788490.0,0
673,1.0,1.0,2.0,-7.0,3.0,-1.0,-2.0,2.0,1651087277788490.0,0
674,-1.0,1.0,2.0,-3.0,-5.0,-1.0,-1.0,-2.0,1651087277789072.0,0
675,1.0,-1.0,-4.0,0.0,2.0,3.0,-1.0,0.0,1651087277789072.0,0
676,-1.0,-4.0,-12.0,-4.0,0.0,-1.0,-1.0,-2.0,1651087277802370.0,0
677,0.0,-1.0,6.0,4.0,-2.0,-3.0,-1.0,-1.0,1651087277802370.0,0
678,-2.0,-1.0,3.0,0.0,-2.0,-1.0,-2.0,0.0,1651087277809106.0,0
679,-1.0,-3.0,-5.0,-6.0,-2.0,-1.0,-2.0,0.0,1651087277809106.0,0
680,-2.0,-3.0,1.0,-7.0,0.0,-1.0,0.0,0.0,1651087277825213.0,0
681,-1.0,4.0,1.0,4.0,-3.0,3.0,1.0,-2.0,1651087277825213.0,0
682,-1.0,-1.0,4.0,5.0,5.0,-1.0,0.0,0.0,1651087277826091.0,0
683,1.0,-1.0,-5.0,1.0,4.0,0.0,0.0,0.0,1651087277826091.0,0
684,-1.0,3.0,-1.0,-8.0,-5.0,-2.0,-2.0,1.0,1651087277848092.0,0
685,0.0,-5.0,0.0,-3.0,0.0,-2.0,-1.0,-2.0,1651087277848092.0,0
686,0.0,-1.0,-1.0,1.0,-2.0,0.0,1.0,-2.0,1651087277849103.0,0
687,0.0,0.0,2.0,-5.0,-5.0,-3.0,0.0,-3.0,1651087277849103.0,0
688,1.0,-9.0,1.0,-2.0,5.0,1.0,-2.0,1.0,1651087277861979.0,0
689,0.0,5.0,-6.0,3.0,-5.0,-1.0,0.0,1.0,1651087277861979.0,0
690,-2.0,1.0,1.0,-2.0,-7.0,-5.0,-1.0,-2.0,1651087277876368.0,0
691,-1.0,-2.0,-7.0,-1.0,6.0,6.0,1.0,1.0,1651087277876368.0,0
692,0.0,1.0,1.0,1.0,-2.0,-6.0,0.0,0.0,1651087277885223.0,0
693,-1.0,-2.0,0.0,-7.0,-1.0,4.0,-2.0,0.0,1651087277885223.0,0
694,1.0,0.0,21.0,14.0,-4.0,-3.0,0.0,-1.0,1651087277886221.0,0
695,-1.0,-7.0,-8.0,-2.0,4.0,2.0,0.0,0.0,1651087277886221.0,0
696,-1.0,4.0,2.0,-1.0,2.0,1.0,1.0,-1.0,1651087277907889.0,0
697,-1.0,0.0,5.0,2.0,-3.0,-4.0,-1.0,-1.0,1651087277907889.0,0
698,-1.0,-1.0,-23.0,-12.0,-5.0,-3.0,-2.0,-1.0,1651087277908889.0,0
699,1.0,0.0,12.0,7.0,-5.0,-2.0,0.0,-3.0,1651087277908889.0,0
700,1.0,2.0,-4.0,5.0,8.0,6.0,2.0,1.0,1651087277922233.0,0
701,-2.0,-10.0,7.0,0.0,-1.0,-2.0,-1.0,-1.0,1651087277922233.0,0
702,2.0,9.0,-7.0,-9.0,-4.0,-3.0,-3.0,2.0,1651087277929217.0,0
703,-3.0,-2.0,-2.0,2.0,-4.0,-6.0,-2.0,1.0,1651087277929217.0,0
704,0.0,2.0,1.0,-2.0,-2.0,3.0,1.0,1.0,1651087277945387.0,0
705,0.0,2.0,4.0,4.0,9.0,7.0,0.0,-2.0,1651087277945387.0,0
706,-1.0,-5.0,1.0,3.0,4.0,-1.0,0.0,1.0,1651087277946221.0,0
707,1.0,1.0,-7.0,-2.0,1.0,-1.0,-2.0,-1.0,1651087277946221.0,0
708,-1.0,-3.0,15.0,5.0,-5.0,-4.0,0.0,-2.0,1651087277968348.0,0
709,1.0,-1.0,-6.0,-3.0,-5.0,-4.0,-2.0,0.0,1651087277968348.0,0
710,-1.0,-2.0,4.0,3.0,-3.0,0.0,1.0,-2.0,1651087277969189.0,0
711,-1.0,0.0,-3.0,-5.0,-4.0,-2.0,-2.0,-1.0,1651087277969189.0,0
712,0.0,1.0,-11.0,-1.0,7.0,5.0,-1.0,-1.0,1651087277981374.0,0
713,-1.0,2.0,-1.0,8.0,6.0,4.0,2.0,2.0,1651087277981374.0,0
714,0.0,-3.0,4.0,1.0,1.0,-2.0,-1.0,2.0,1651087277996389.0,0
715,0.0,1.0,2.0,1.0,-1.0,-2.0,-1.0,0.0,1651087277996389.0,0
716,-2.0,-3.0,-8.0,-6.0,-7.0,-2.0,-1.0,0.0,1651087278005361.0,0
717,1.0,-6.0,6.0,-2.0,-8.0,-6.0,-2.0,-1.0,1651087278005361.0,0
718,-1.0,13.0,-1.0,-6.0,1.0,-1.0,-3.0,-2.0,1651087278006206.0,0
719,-3.0,-2.0,-24.0,-8.0,0.0,-2.0,0.0,0.0,1651087278006206.0,0
720,-1.0,0.0,19.0,12.0,5.0,9.0,1.0,-2.0,1651087278028702.0,0
721,0.0,2.0,-8.0,-2.0,2.0,-1.0,2.0,2.0,1651087278028702.0,0
722,0.0,-9.0,16.0,4.0,2.0,1.0,1.0,0.0,1651087278029070.0,0
723,-1.0,4.0,-7.0,-9.0,-4.0,-1.0,-2.0,-2.0,1651087278029070.0,0
724,-2.0,-12.0,-42.0,-19.0,-9.0,-8.0,-1.0,-2.0,1651087278041274.0,0
725,-1.0,16.0,22.0,7.0,1.0,-2.0,1.0,0.0,1651087278041274.0,0
726,0.0,-1.0,5.0,8.0,5.0,9.0,0.0,0.0,1651087278050361.0,0
727,-1.0,-2.0,2.0,-5.0,-2.0,-3.0,1.0,-1.0,1651087278050361.0,0
728,1.0,-2.0,3.0,6.0,5.0,-2.0,-1.0,0.0,1651087278065363.0,0
729,-1.0,-2.0,-2.0,-1.0,0.0,1.0,0.0,-2.0,1651087278065363.0,0
730,-1.0,-4.0,-17.0,-8.0,-6.0,-7.0,-1.0,0.0,1651087278066211.0,0
731,0.0,1.0,12.0,7.0,3.0,1.0,-1.0,0.0,1651087278066211.0,0
732,-2.0,3.0,3.0,-4.0,-8.0,-4.0,-2.0,-1.0,1651087278088352.0,0
733,-2.0,-2.0,-4.0,9.0,4.0,-1.0,-1.0,0.0,1651087278088352.0,0
734,0.0,1.0,-6.0,-4.0,4.0,5.0,2.0,-1.0,1651087278089255.0,0
735,0.0,-1.0,-5.0,-2.0,-1.0,2.0,0.0,0.0,1651087278089255.0,0
736,-1.0,-4.0,9.0,1.0,-2.0,-4.0,-2.0,-4.0,1651087278101378.0,0
737,0.0,-1.0,-1.0,-6.0,-2.0,2.0,0.0,-1.0,1651087278101378.0,0
738,-1.0,-2.0,3.0,2.0,-2.0,-1.0,0.0,-1.0,1651087278110231.0,0
739,0.0,-1.0,-15.0,-3.0,2.0,-3.0,0.0,0.0,1651087278110231.0,0
740,-1.0,4.0,14.0,5.0,5.0,5.0,1.0,0.0,1651087278125299.0,0
741,0.0,-6.0,-3.0,-2.0,-3.0,-1.0,-3.0,-2.0,1651087278125299.0,0
742,-1.0,1.0,4.0,-1.0,-5.0,-1.0,-1.0,-1.0,1651087278126198.0,0
743,-1.0,-3.0,-5.0,-5.0,-5.0,-2.0,-1.0,-1.0,1651087278126198.0,0
744,-2.0,1.0,2.0,2.0,4.0,2.0,0.0,1.0,1651087278147835.0,0
745,-1.0,-9.0,-1.0,-3.0,-5.0,-3.0,-1.0,1.0,1651087278147835.0,0
746,-1.0,9.0,9.0,-3.0,-4.0,-6.0,-3.0,-1.0,1651087278148835.0,0
747,1.0,2.0,1.0,4.0,5.0,6.0,1.0,0.0,1651087278148835.0,0
748,-1.0,-4.0,-3.0,-3.0,-8.0,-3.0,-1.0,-2.0,1651087278161700.0,0
749,0.0,1.0,-8.0,-1.0,3.0,-1.0,0.0,0.0,1651087278161700.0,0
750,0.0,-4.0,5.0,2.0,0.0,-1.0,-1.0,2.0,1651087278169858.0,0
751,-1.0,-3.0,11.0,5.0,-3.0,1.0,2.0,1.0,1651087278169858.0,0
752,0.0,3.0,3.0,-6.0,1.0,1.0,0.0,0.0,1651087278185452.0,0
753,-2.0,-2.0,-13.0,-1.0,-4.0,-1.0,0.0,-1.0,1651087278185452.0,0
754,0.0,-5.0,-10.0,-8.0,-7.0,-8.0,-1.0,-2.0,1651087278186329.0,0
755,0.0,1.0,4.0,4.0,4.0,6.0,1.0,0.0,1651087278186329.0,0
756,0.0,2.0,5.0,4.0,-2.0,-4.0,-1.0,0.0,1651087278208524.0,0
757,0.0,-2.0,-2.0,0.0,8.0,4.0,2.0,0.0,1651087278208524.0,0
758,-2.0,1.0,-9.0,-1.0,2.0,2.0,2.0,-2.0,1651087278209105.0,0
759,0.0,-2.0,9.0,-2.0,-4.0,-4.0,-2.0,0.0,1651087278209105.0,0
760,1.0,0.0,1.0,2.0,-2.0,-8.0,-3.0,0.0,1651087278221239.0,0
761,-2.0,2.0,-2.0,7.0,-2.0,3.0,0.0,-2.0,1651087278221239.0,0
762,-2.0,6.0,-12.0,-16.0,-4.0,-2.0,-1.0,-1.0,1651087278230255.0,0
763,-2.0,-12.0,8.0,7.0,4.0,2.0,0.0,-1.0,1651087278230255.0,0
764,1.0,0.0,-2.0,0.0,-3.0,-1.0,-1.0,0.0,1651087278245384.0,0
765,0.0,-7.0,-11.0,-5.0,3.0,-2.0,0.0,-1.0,1651087278245384.0,0
766,0.0,5.0,9.0,4.0,2.0,4.0,-3.0,-1.0,1651087278246226.0,0
767,-3.0,2.0,3.0,0.0,-4.0,-5.0,-1.0,-1.0,1651087278246226.0,0
768,1.0,-4.0,-11.0,-3.0,-4.0,-2.0,2.0,0.0,1651087278268336.0,0
769,0.0,-1.0,5.0,2.0,-2.0,-3.0,-1.0,-2.0,1651087278268336.0,0
770,-1.0,-3.0,12.0,2.0,8.0,8.0,3.0,1.0,1651087278269198.0,0
771,-1.0,-6.0,-39.0,-10.0,-3.0,-3.0,1.0,1.0,1651087278269198.0,0
772,0.0,0.0,1.0,4.0,4.0,2.0,-1.0,0.0,1651087278280507.0,0
773,-2.0,1.0,-4.0,-9.0,-5.0,-5.0,-3.0,-1.0,1651087278280507.0,0
774,-1.0,-1.0,-4.0,-4.0,-3.0,-3.0,-1.0,-2.0,1651087278290367.0,0
775,2.0,4.0,-1.0,-1.0,-3.0,-2.0,-2.0,-2.0,1651087278290367.0,0
776,-3.0,-3.0,15.0,11.0,1.0,1.0,0.0,-2.0,1651087278305669.0,0
777,0.0,3.0,-20.0,-10.0,-1.0,1.0,0.0,1.0,1651087278305669.0,0
778,0.0,-9.0,-24.0,-9.0,0.0,4.0,1.0,0.0,1651087278306505.0,0
779,0.0,3.0,11.0,11.0,0.0,-2.0,-1.0,-1.0,1651087278306505.0,0
780,-3.0,-1.0,-16.0,-6.0,4.0,4.0,0.0,0.0,1651087278328298.0,0
781,1.0,1.0,20.0,7.0,1.0,-2.0,0.0,-1.0,1651087278328298.0,0
782,-1.0,-5.0,-3.0,-1.0,-4.0,-3.0,-2.0,0.0,1651087278329075.0,0
783,-3.0,2.0,15.0,6.0,-5.0,-3.0,-2.0,-2.0,1651087278329075.0,0
784,0.0,-5.0,-5.0,-6.0,-5.0,-4.0,-1.0,1.0,1651087278341344.0,0
785,-2.0,-1.0,7.0,5.0,3.0,4.0,0.0,-1.0,1651087278341344.0,0
786,-1.0,-1.0,5.0,5.0,8.0,6.0,1.0,2.0,1651087278350399.0,0
787,0.0,-3.0,-15.0,-8.0,0.0,-1.0,-1.0,-1.0,1651087278350399.0,0
788,0.0,4.0,6.0,-6.0,-6.0,-3.0,0.0,0.0,1651087278365376.0,0
789,-1.0,-1.0,-12.0,-8.0,-7.0,-4.0,-2.0,-2.0,1651087278365376.0,0
790,0.0,-5.0,5.0,6.0,0.0,-3.0,0.0,0.0,1651087278366217.0,0
791,-2.0,2.0,11.0,4.0,2.0,2.0,0.0,-1.0,1651087278366217.0,0
792,-2.0,0.0,-6.0,0.0,1.0,2.0,1.0,0.0,1651087278388514.0,0
793,-1.0,2.0,-7.0,-9.0,-7.0,-2.0,-2.0,0.0,1651087278388514.0,0
794,-1.0,-3.0,-1.0,1.0,-3.0,-8.0,0.0,-2.0,1651087278389102.0,0
795,1.0,-9.0,-3.0,0.0,-1.0,1.0,0.0,1.0,1651087278389102.0,0
796,-2.0,15.0,15.0,-4.0,-5.0,-3.0,1.0,0.0,1651087278402469.0,0
797,0.0,-2.0,4.0,-1.0,9.0,6.0,2.0,2.0,1651087278402469.0,0
798,-1.0,0.0,-4.0,3.0,0.0,-1.0,0.0,0.0,1651087278410800.0,0
799,0.0,1.0,3.0,-1.0,-3.0,-1.0,-1.0,0.0,1651087278410800.0,0
800,-1.0,-4.0,10.0,13.0,2.0,-3.0,-3.0,-2.0,1651087278426238.0,0
801,-1.0,0.0,-8.0,-16.0,-7.0,-5.0,-1.0,-3.0,1651087278426238.0,0
802,-1.0,-1.0,-1.0,1.0,-7.0,-2.0,1.0,0.0,1651087278427073.0,0
803,-1.0,0.0,-6.0,-6.0,-3.0,1.0,0.0,0.0,1651087278427073.0,0
804,-1.0,2.0,2.0,5.0,11.0,7.0,2.0,0.0,1651087278455385.0,0
805,-1.0,2.0,6.0,1.0,-1.0,0.0,0.0,3.0,1651087278455385.0,0
806,-1.0,-11.0,1.0,3.0,5.0,-1.0,-3.0,0.0,1651087278456224.0,0
807,1.0,1.0,2.0,10.0,6.0,2.0,3.0,0.0,1651087278456224.0,0
808,1.0,-3.0,-11.0,-2.0,-1.0,-3.0,-3.0,-1.0,1651087278470219.0,0
809,-1.0,-4.0,6.0,-3.0,-3.0,-3.0,-1.0,-2.0,1651087278470219.0,0
810,2.0,1.0,-2.0,6.0,1.0,-2.0,2.0,0.0,1651087278471184.0,0
811,0.0,6.0,14.0,-14.0,-11.0,1.0,-2.0,-1.0,1651087278471184.0,0
812,0.0,1.0,-1.0,-3.0,-18.0,-6.0,-3.0,-1.0,1651087278485384.0,0
813,0.0,-1.0,-5.0,0.0,3.0,-2.0,-1.0,1.0,1651087278485384.0,0
814,1.0,-3.0,2.0,10.0,21.0,13.0,3.0,1.0,1651087278486226.0,0
815,-1.0,-2.0,2.0,9.0,-1.0,-9.0,-2.0,-1.0,1651087278486226.0,0
816,0.0,-9.0,-20.0,-27.0,-10.0,-2.0,-1.0,-2.0,1651087278508505.0,0
817,-1.0,5.0,-3.0,-4.0,-28.0,-16.0,-6.0,-3.0,1651087278508505.0,0
818,-3.0,2.0,19.0,11.0,1.0,5.0,0.0,-2.0,1651087278509069.0,0
819,0.0,-1.0,-7.0,5.0,27.0,15.0,3.0,1.0,1651087278509069.0,0
820,-3.0,-6.0,-24.0,-24.0,-13.0,-13.0,-2.0,-2.0,1651087278530045.0,0
821,0.0,-4.0,2.0,29.0,25.0,11.0,3.0,2.0,1651087278530045.0,0
822,-1.0,1.0,1.0,-6.0,-4.0,-4.0,-4.0,-1.0,1651087278531073.0,0
823,-2.0,3.0,-1.0,-9.0,-22.0,-13.0,-5.0,-4.0,1651087278531073.0,0
824,-1.0,0.0,-4.0,5.0,-2.0,-2.0,-2.0,0.0,1651087278545365.0,0
825,-1.0,3.0,-3.0,-19.0,-10.0,-9.0,-3.0,-3.0,1651087278545365.0,0
826,3.0,5.0,10.0,20.0,19.0,10.0,2.0,1.0,1651087278546202.0,0
827,0.0,-4.0,-1.0,1.0,8.0,4.0,3.0,3.0,1651087278546202.0,0
828,1.0,-3.0,-7.0,-4.0,4.0,4.0,2.0,0.0,1651087278575390.0,0
829,-1.0,-3.0,-13.0,-3.0,-2.0,1.0,-2.0,-2.0,1651087278575390.0,0
830,-4.0,0.0,-8.0,-7.0,-28.0,-16.0,-5.0,-3.0,1651087278576228.0,0
831,0.0,-3.0,-8.0,-18.0,0.0,0.0,-2.0,-3.0,1651087278576228.0,0
832,-1.0,3.0,19.0,30.0,13.0,7.0,3.0,2.0,1651087278589358.0,0
833,2.0,1.0,3.0,-2.0,3.0,3.0,2.0,3.0,1651087278589358.0,0
834,0.0,0.0,-4.0,-9.0,1.0,-4.0,-2.0,-1.0,1651087278598031.0,0
835,-1.0,3.0,-3.0,-13.0,-8.0,0.0,-2.0,-1.0,1651087278598031.0,0
836,-3.0,-2.0,-1.0,-7.0,-14.0,-5.0,-4.0,-4.0,1651087278605173.0,0
837,0.0,0.0,4.0,18.0,34.0,13.0,5.0,5.0,1651087278605173.0,0
838,0.0,1.0,-4.0,-7.0,-9.0,-5.0,1.0,0.0,1651087278611442.0,0
839,-8.0,-9.0,6.0,18.0,22.0,6.0,1.0,-1.0,1651087278611442.0,0
840,6.0,8.0,0.0,-7.0,-10.0,-3.0,-1.0,2.0,1651087278627260.0,0
841,10.0,0.0,3.0,-10.0,-13.0,-5.0,-3.0,1.0,1651087278627260.0,0
842,12.0,9.0,-3.0,-6.0,10.0,7.0,0.0,-1.0,1651087278629248.0,0
843,-12.0,-1.0,-1.0,-6.0,0.0,5.0,4.0,2.0,1651087278629248.0,0
844,-10.0,-14.0,-2.0,10.0,13.0,1.0,-2.0,-4.0,1651087278650396.0,0
845,-12.0,-10.0,5.0,17.0,10.0,3.0,-3.0,-5.0,1651087278650396.0,0
846,-4.0,-1.0,0.0,-10.0,-23.0,-18.0,-5.0,-4.0,1651087278651396.0,0
847,13.0,9.0,-1.0,2.0,16.0,13.0,5.0,6.0,1651087278651396.0,0
848,10.0,18.0,-4.0,-10.0,-6.0,-2.0,0.0,1.0,1651087278664153.0,0
849,-13.0,-16.0,5.0,11.0,5.0,1.0,0.0,-1.0,1651087278664153.0,0
850,-6.0,-2.0,4.0,-5.0,-6.0,-1.0,-3.0,-5.0,1651087278671433.0,0
851,24.0,11.0,2.0,5.0,-12.0,-6.0,3.0,7.0,1651087278671433.0,0
852,-2.0,-8.0,5.0,3.0,10.0,4.0,3.0,2.0,1651087278687221.0,0
853,-10.0,-1.0,-4.0,-15.0,-22.0,-6.0,-2.0,-3.0,1651087278687221.0,0
854,-7.0,-4.0,-6.0,10.0,10.0,1.0,-3.0,-3.0,1651087278689246.0,0
855,-6.0,1.0,-5.0,-5.0,-8.0,-10.0,-7.0,-6.0,1651087278689246.0,0
856,9.0,-12.0,-4.0,-5.0,-1.0,0.0,-3.0,-2.0,1651087278710393.0,0
857,2.0,20.0,0.0,-5.0,-10.0,-4.0,1.0,0.0,1651087278710393.0,0
858,-19.0,-26.0,-4.0,-10.0,-14.0,-2.0,2.0,3.0,1651087278711231.0,0
859,-12.0,21.0,4.0,12.0,14.0,1.0,0.0,-2.0,1651087278711231.0,0
860,9.0,-8.0,-3.0,-4.0,-11.0,-7.0,-7.0,-7.0,1651087278724400.0,0
861,6.0,-5.0,-1.0,5.0,18.0,11.0,2.0,1.0,1651087278724400.0,0
862,11.0,10.0,1.0,3.0,-3.0,-2.0,-5.0,-3.0,1651087278732392.0,0
863,-13.0,-15.0,-23.0,-13.0,-9.0,-7.0,-4.0,-4.0,1651087278732392.0,0
864,-26.0,-17.0,5.0,-6.0,-4.0,1.0,4.0,2.0,1651087278747215.0,0
865,21.0,16.0,1.0,-14.0,-20.0,-13.0,-10.0,-7.0,1651087278747215.0,0
866,15.0,-13.0,-1.0,11.0,12.0,11.0,8.0,9.0,1651087278749241.0,0
867,1.0,-11.0,3.0,5.0,-7.0,-8.0,-10.0,-12.0,1651087278749241.0,0
868,3.0,19.0,9.0,13.0,26.0,14.0,5.0,3.0,1651087278770388.0,0
869,-6.0,-17.0,-10.0,-10.0,-7.0,-4.0,-5.0,-8.0,1651087278770388.0,0
870,-33.0,17.0,1.0,-7.0,-19.0,-9.0,-1.0,4.0,1651087278771244.0,0
871,3.0,8.0,-3.0,3.0,17.0,7.0,-1.0,-7.0,1651087278771244.0,0
872,-43.0,-33.0,-4.0,-7.0,-2.0,-1.0,3.0,-19.0,1651087278784346.0,0
873,47.0,81.0,22.0,12.0,3.0,1.0,8.0,55.0,1651087278784346.0,0
874,5.0,-19.0,-7.0,8.0,11.0,5.0,6.0,2.0,1651087278791358.0,2
875,27.0,55.0,16.0,-10.0,-16.0,-6.0,1.0,-2.0,1651087278791358.0,2
876,1.0,9.0,-10.0,15.0,1.0,1.0,4.0,15.0,1651087278807865.0,2
877,-15.0,5.0,-10.0,-32.0,-29.0,-16.0,-11.0,-31.0,1651087278807865.0,2
878,-30.0,-4.0,10.0,57.0,72.0,33.0,3.0,-21.0,1651087278808866.0,2
879,-4.0,-1.0,1.0,-7.0,-19.0,-8.0,12.0,12.0,1651087278808866.0,2
880,-9.0,-29.0,3.0,9.0,16.0,9.0,-14.0,-5.0,1651087278830202.0,2
881,7.0,58.0,4.0,-15.0,-19.0,-9.0,3.0,17.0,1651087278830202.0,2
882,29.0,48.0,1.0,5.0,13.0,3.0,7.0,25.0,1651087278831206.0,2
883,-23.0,-104.0,-22.0,-20.0,-26.0,-13.0,-18.0,-40.0,1651087278831206.0,2
884,-8.0,95.0,1.0,10.0,5.0,2.0,17.0,30.0,1651087278843221.0,2
885,-27.0,-68.0,2.0,-10.0,-8.0,-2.0,-7.0,-11.0,1651087278843221.0,2
886,39.0,-14.0,-6.0,-8.0,-21.0,-4.0,-3.0,10.0,1651087278853054.0,2
887,5.0,32.0,-11.0,17.0,-13.0,-11.0,0.0,-14.0,1651087278853054.0,2
888,14.0,-59.0,5.0,-16.0,24.0,6.0,12.0,17.0,1651087278867863.0,2
889,-23.0,5.0,-14.0,4.0,9.0,5.0,-3.0,-9.0,1651087278867863.0,2
890,-15.0,-83.0,-13.0,-32.0,-48.0,-20.0,-14.0,-31.0,1651087278868863.0,2
891,-36.0,18.0,-2.0,-19.0,-14.0,-11.0,23.0,-4.0,1651087278868863.0,2
892,16.0,25.0,46.0,45.0,50.0,17.0,-19.0,62.0,1651087278890330.0,2
893,-14.0,21.0,4.0,-1.0,-1.0,4.0,3.0,-22.0,1651087278890330.0,2
894,29.0,82.0,-7.0,11.0,6.0,6.0,19.0,7.0,1651087278891161.0,2
895,-18.0,-54.0,-3.0,7.0,7.0,1.0,-19.0,-5.0,1651087278891161.0,2
896,14.0,2.0,-20.0,-23.0,-27.0,-9.0,0.0,-24.0,1651087278903373.0,2
897,78.0,63.0,14.0,-1.0,26.0,17.0,17.0,11.0,1651087278903373.0,2
898,-24.0,-4.0,-15.0,-27.0,-28.0,-17.0,-23.0,-9.0,1651087278913091.0,2
899,-15.0,21.0,13.0,-6.0,4.0,6.0,2.0,24.0,1651087278913091.0,2
900,-2.0,-2.0,-5.0,22.0,-16.0,-8.0,10.0,-33.0,1651087278927893.0,2
901,15.0,10.0,3.0,30.0,39.0,25.0,22.0,55.0,1651087278927893.0,2
902,-30.0,-22.0,-6.0,-26.0,-27.0,-19.0,-26.0,-38.0,1651087278928893.0,2
903,37.0,1.0,11.0,23.0,20.0,17.0,27.0,8.0,1651087278928893.0,2
904,-48.0,-21.0,-34.0,-29.0,-24.0,-17.0,-40.0,-1.0,1651087278950361.0,2
905,31.0,-9.0,3.0,7.0,-6.0,-3.0,11.0,-13.0,1651087278950361.0,2
906,-1.0,116.0,13.0,-12.0,7.0,0.0,-2.0,11.0,1651087278951317.0,2
907,35.0,-40.0,0.0,6.0,15.0,4.0,-12.0,-20.0,1651087278951317.0,2
908,32.0,-10.0,11.0,-44.0,-68.0,-27.0,12.0,-22.0,1651087278963128.0,2
909,-15.0,7.0,-23.0,38.0,41.0,9.0,-10.0,18.0,1651087278963128.0,2
910,-27.0,-16.0,10.0,13.0,13.0,4.0,0.0,19.0,1651087278972194.0,2
911,25.0,68.0,22.0,-3.0,-12.0,1.0,21.0,-16.0,1651087278972194.0,2
912,20.0,-45.0,-18.0,-24.0,-25.0,-6.0,0.0,-9.0,1651087278987732.0,2
913,-14.0,-20.0,-4.0,-1.0,13.0,-1.0,-31.0,-19.0,1651087278987732.0,2
914,-2.0,-38.0,-11.0,6.0,13.0,6.0,1.0,16.0,1651087278988732.0,2
915,-12.0,27.0,-7.0,-16.0,-16.0,-4.0,-12.0,-14.0,1651087278988732.0,2
916,2.0,-57.0,0.0,11.0,8.0,-5.0,-13.0,9.0,1651087279010181.0,2
917,-12.0,-3.0,-21.0,-22.0,-32.0,-16.0,-4.0,-24.0,1651087279010181.0,2
918,-70.0,-69.0,4.0,-10.0,5.0,12.0,41.0,12.0,1651087279011067.0,2
919,56.0,2.0,-7.0,-17.0,-16.0,-16.0,-28.0,-12.0,1651087279011067.0,2
920,11.0,106.0,21.0,32.0,16.0,9.0,-4.0,17.0,1651087279023218.0,2
921,-25.0,-57.0,-3.0,-23.0,-19.0,-9.0,-11.0,-15.0,1651087279023218.0,2
922,31.0,-2.0,7.0,28.0,23.0,1.0,-3.0,-2.0,1651087279032218.0,2
923,-46.0,-13.0,-3.0,-28.0,-18.0,7.0,10.0,31.0,1651087279032218.0,2
924,-55.0,-57.0,-5.0,24.0,1.0,-11.0,-18.0,-27.0,1651087279047826.0,2
925,25.0,-55.0,-2.0,-16.0,-3.0,-8.0,-8.0,-27.0,1651087279047826.0,2
926,-13.0,16.0,-24.0,-4.0,-19.0,-1.0,18.0,4.0,1651087279048826.0,2
927,-39.0,-35.0,0.0,9.0,22.0,5.0,6.0,34.0,1651087279048826.0,2
928,54.0,103.0,-3.0,-22.0,-12.0,-3.0,-2.0,-22.0,1651087279070062.0,2
929,0.0,-105.0,4.0,4.0,-19.0,1.0,8.0,19.0,1651087279070062.0,2
930,41.0,103.0,18.0,8.0,9.0,-2.0,-10.0,-16.0,1651087279071096.0,2
931,7.0,-12.0,21.0,26.0,7.0,5.0,-25.0,-30.0,1651087279071096.0,2
932,1.0,-26.0,-40.0,-17.0,6.0,9.0,34.0,68.0,1651087279092975.0,2
933,8.0,101.0,20.0,4.0,6.0,3.0,3.0,-15.0,1651087279092975.0,2
934,-16.0,-2.0,15.0,27.0,1.0,12.0,18.0,-20.0,1651087279094128.0,2
935,-7.0,-96.0,-18.0,-1.0,37.0,6.0,10.0,60.0,1651087279094128.0,2
936,-19.0,-1.0,14.0,-3.0,-5.0,0.0,-5.0,-70.0,1651087279107855.0,2
937,73.0,42.0,-16.0,-14.0,-36.0,-9.0,0.0,66.0,1651087279107855.0,2
938,-36.0,-71.0,-12.0,-6.0,21.0,3.0,-14.0,6.0,1651087279108865.0,2
939,-43.0,-36.0,2.0,-7.0,-24.0,-6.0,-4.0,-22.0,1651087279108865.0,2
940,28.0,-37.0,-10.0,11.0,13.0,-3.0,-4.0,-19.0,1651087279130091.0,2
941,-41.0,-35.0,-12.0,-23.0,-27.0,-16.0,10.0,3.0,1651087279130091.0,2
942,29.0,1.0,5.0,3.0,-9.0,-5.0,-6.0,-15.0,1651087279131135.0,2
943,17.0,58.0,-4.0,5.0,2.0,6.0,2.0,11.0,1651087279131135.0,2
944,-30.0,36.0,24.0,-10.0,4.0,11.0,9.0,24.0,1651087279143189.0,2
945,-31.0,-13.0,-7.0,20.0,17.0,5.0,3.0,-19.0,1651087279143189.0,2
946,-29.0,-2.0,-3.0,-15.0,-8.0,-9.0,-8.0,14.0,1651087279152169.0,2
947,49.0,119.0,5.0,0.0,9.0,-7.0,-9.0,-9.0,1651087279152169.0,2
948,-1.0,-64.0,-10.0,3.0,14.0,17.0,19.0,37.0,1651087279168233.0,2
949,-43.0,-17.0,11.0,2.0,-17.0,-13.0,-28.0,-41.0,1651087279168233.0,2
950,30.0,25.0,1.0,3.0,23.0,11.0,18.0,23.0,1651087279169087.0,2
951,5.0,-20.0,-3.0,4.0,7.0,12.0,38.0,6.0,1651087279169087.0,2
952,-18.0,-41.0,-1.0,-12.0,-16.0,-15.0,-46.0,-33.0,1651087279190367.0,2
953,-11.0,21.0,3.0,12.0,21.0,10.0,31.0,21.0,1651087279190367.0,2
954,22.0,5.0,-6.0,-30.0,-30.0,-21.0,-48.0,-20.0,1651087279191220.0,2
955,-9.0,14.0,8.0,-1.0,0.0,3.0,7.0,-6.0,1651087279191220.0,2
956,5.0,18.0,-7.0,29.0,27.0,0.0,7.0,25.0,1651087279203209.0,2
957,15.0,-3.0,14.0,-3.0,0.0,2.0,-6.0,-26.0,1651087279203209.0,2
958,-5.0,16.0,4.0,7.0,5.0,10.0,9.0,23.0,1651087279212827.0,2
959,-29.0,-61.0,-22.0,-12.0,-10.0,-14.0,-21.0,-45.0,1651087279212827.0,2
960,8.0,43.0,10.0,9.0,24.0,13.0,10.0,15.0,1651087279227485.0,2
961,-20.0,7.0,-8.0,11.0,18.0,6.0,1.0,15.0,1651087279227485.0,2
962,19.0,28.0,6.0,-7.0,-14.0,-6.0,-15.0,-14.0,1651087279235206.0,2
963,12.0,-26.0,-5.0,5.0,-3.0,-4.0,-29.0,-38.0,1651087279235206.0,2
964,16.0,62.0,6.0,-17.0,-23.0,-6.0,28.0,37.0,1651087279250366.0,2
965,-20.0,-22.0,6.0,14.0,22.0,5.0,-10.0,-13.0,1651087279250366.0,2
966,26.0,-17.0,-6.0,-9.0,-7.0,-1.0,12.0,-1.0,1651087279251228.0,2
967,-32.0,31.0,-1.0,1.0,-6.0,-4.0,-13.0,5.0,1651087279251228.0,2
968,4.0,-17.0,5.0,10.0,13.0,11.0,6.0,-18.0,1651087279263106.0,2
969,-20.0,-21.0,3.0,-1.0,-6.0,0.0,3.0,-9.0,1651087279263106.0,2
970,17.0,-11.0,-5.0,-3.0,4.0,-3.0,9.0,48.0,1651087279272361.0,2
971,-27.0,-11.0,-3.0,-33.0,-38.0,-12.0,4.0,14.0,1651087279272361.0,2
972,9.0,0.0,7.0,33.0,35.0,11.0,1.0,-25.0,1651087279288259.0,2
973,-12.0,10.0,17.0,2.0,3.0,2.0,4.0,10.0,1651087279288259.0,2
974,19.0,33.0,-14.0,-7.0,0.0,0.0,-32.0,-39.0,1651087279289294.0,2
975,14.0,-30.0,4.0,3.0,-3.0,-5.0,11.0,31.0,1651087279289294.0,2
976,35.0,2.0,-7.0,-19.0,-14.0,4.0,10.0,29.0,1651087279310346.0,2
977,-18.0,3.0,-6.0,11.0,-5.0,-2.0,8.0,-27.0,1651087279310346.0,2
978,-6.0,-12.0,-10.0,-10.0,-14.0,-3.0,1.0,-6.0,1651087279311194.0,2
979,9.0,17.0,8.0,8.0,18.0,12.0,7.0,12.0,1651087279311194.0,2
980,-5.0,15.0,-1.0,7.0,-6.0,-4.0,-6.0,-24.0,1651087279324370.0,2
981,30.0,13.0,-3.0,-3.0,-12.0,-5.0,2.0,14.0,1651087279324370.0,2
982,42.0,-46.0,7.0,0.0,-4.0,5.0,10.0,10.0,1651087279332319.0,2
983,-25.0,0.0,-3.0,7.0,6.0,3.0,7.0,4.0,1651087279332319.0,2
984,-75.0,-21.0,3.0,-9.0,-27.0,-14.0,-38.0,-47.0,1651087279347861.0,2
985,-3.0,-28.0,3.0,5.0,14.0,9.0,11.0,73.0,1651087279347861.0,2
986,-2.0,33.0,-10.0,-9.0,-2.0,-6.0,-7.0,-25.0,1651087279348861.0,2
987,22.0,-40.0,3.0,12.0,9.0,2.0,-3.0,8.0,1651087279348861.0,2
988,17.0,21.0,-4.0,-14.0,-2.0,0.0,8.0,-28.0,1651087279370386.0,2
989,-9.0,-3.0,-2.0,-9.0,-17.0,-11.0,-19.0,-6.0,1651087279370386.0,2
990,-4.0,41.0,11.0,20.0,26.0,3.0,4.0,-8.0,1651087279371228.0,2
991,14.0,-7.0,-8.0,-5.0,-2.0,2.0,-6.0,6.0,1651087279371228.0,2
992,5.0,26.0,-8.0,-17.0,-35.0,-15.0,-11.0,-17.0,1651087279393220.0,2
993,0.0,11.0,-4.0,7.0,14.0,11.0,-4.0,-4.0,1651087279393220.0,2
994,-46.0,-86.0,5.0,7.0,3.0,0.0,3.0,22.0,1651087279394254.0,2
995,9.0,32.0,2.0,9.0,5.0,-2.0,3.0,-12.0,1651087279394254.0,2
996,-2.0,18.0,-12.0,-11.0,-5.0,-7.0,6.0,10.0,1651087279408259.0,2
997,-25.0,-15.0,0.0,-3.0,5.0,-1.0,4.0,18.0,1651087279408259.0,2
998,-7.0,0.0,-3.0,8.0,5.0,6.0,4.0,-26.0,1651087279409071.0,2
999,-1.0,16.0,11.0,27.0,24.0,9.0,9.0,18.0,1651087279409071.0,2
1000,-10.0,-5.0,14.0,-16.0,-23.0,-13.0,-31.0,-27.0,1651087279430235.0,2
1001,23.0,21.0,-24.0,-19.0,-6.0,3.0,6.0,-26.0,1651087279430235.0,2
1002,15.0,-64.0,2.0,12.0,1.0,-1.0,-3.0,10.0,1651087279431233.0,2
1003,6.0,16.0,-9.0,-22.0,-18.0,1.0,6.0,-8.0,1651087279431233.0,2
1004,14.0,3.0,0.0,19.0,27.0,1.0,0.0,25.0,1651087279452373.0,2
1005,68.0,53.0,4.0,-2.0,-14.0,-8.0,-14.0,-36.0,1651087279452373.0,2
1006,-84.0,-44.0,-12.0,-11.0,-16.0,-8.0,22.0,7.0,1651087279454240.0,2
1007,7.0,-8.0,-8.0,-14.0,-7.0,1.0,14.0,32.0,1651087279454240.0,2
1008,12.0,26.0,23.0,13.0,-9.0,-9.0,-12.0,-20.0,1651087279468233.0,2
1009,-12.0,-38.0,-19.0,1.0,18.0,4.0,-11.0,-21.0,1651087279468233.0,2
1010,40.0,21.0,-2.0,-22.0,-7.0,6.0,28.0,24.0,1651087279469270.0,2
1011,6.0,41.0,3.0,12.0,24.0,9.0,-7.0,-10.0,1651087279469270.0,2
1012,-3.0,-52.0,-8.0,-26.0,-25.0,-7.0,12.0,14.0,1651087279490399.0,2
1013,-16.0,11.0,24.0,38.0,28.0,7.0,-12.0,-16.0,1651087279490399.0,2
1014,-20.0,-11.0,5.0,-21.0,-20.0,-5.0,13.0,1.0,1651087279491228.0,2
1015,6.0,49.0,5.0,17.0,-3.0,-6.0,-11.0,-19.0,1651087279491228.0,2
1016,0.0,-44.0,11.0,19.0,11.0,6.0,-18.0,-10.0,1651087279512594.0,2
1017,21.0,1.0,0.0,-12.0,-5.0,0.0,34.0,40.0,1651087279512594.0,2
1018,-45.0,-50.0,-23.0,-10.0,-13.0,-3.0,-6.0,-27.0,1651087279513475.0,2
1019,0.0,-5.0,7.0,6.0,13.0,-2.0,-6.0,-17.0,1651087279513475.0,2
1020,13.0,20.0,-6.0,-9.0,-9.0,-1.0,9.0,20.0,1651087279528910.0,2
1021,6.0,-3.0,-9.0,11.0,27.0,10.0,-13.0,9.0,1651087279528910.0,2
1022,31.0,23.0,16.0,5.0,-2.0,-1.0,-2.0,10.0,1651087279529749.0,2
1023,-31.0,-29.0,-8.0,-11.0,-12.0,-5.0,9.0,4.0,1651087279529749.0,2
1024,33.0,-14.0,-12.0,9.0,22.0,7.0,-28.0,-27.0,1651087279550986.0,2
1025,-25.0,-6.0,0.0,-23.0,-29.0,-14.0,16.0,16.0,1651087279550986.0,2
1026,28.0,35.0,5.0,15.0,-1.0,-4.0,-62.0,-104.0,1651087279551236.0,2
1027,-5.0,16.0,6.0,12.0,19.0,4.0,28.0,84.0,1651087279551236.0,2
1028,14.0,12.0,-8.0,-5.0,9.0,1.0,-11.0,5.0,1651087279573168.0,2
1029,-50.0,-36.0,0.0,-21.0,-43.0,-23.0,-7.0,-19.0,1651087279573168.0,2
1030,11.0,36.0,-15.0,21.0,62.0,25.0,6.0,-7.0,1651087279574192.0,2
1031,-25.0,-42.0,15.0,-4.0,-17.0,-11.0,7.0,11.0,1651087279574192.0,2
1032,-19.0,30.0,3.0,9.0,4.0,7.0,21.0,-11.0,1651087279587250.0,2
1033,26.0,15.0,-13.0,-10.0,-13.0,-4.0,-10.0,0.0,1651087279587250.0,2
1034,3.0,18.0,-3.0,-10.0,-9.0,-12.0,-3.0,-5.0,1651087279594348.0,2
1035,10.0,4.0,-18.0,-13.0,-7.0,-3.0,3.0,10.0,1651087279594348.0,2
1036,-1.0,-6.0,14.0,21.0,17.0,16.0,21.0,30.0,1651087279610393.0,2
1037,-11.0,-17.0,10.0,0.0,-13.0,-7.0,-15.0,-54.0,1651087279610393.0,2
1038,-8.0,-32.0,-15.0,-20.0,-53.0,-24.0,7.0,49.0,1651087279611235.0,2
1039,29.0,19.0,-16.0,19.0,70.0,15.0,-54.0,-62.0,1651087279611235.0,2
1040,-45.0,-28.0,-1.0,-24.0,-21.0,0.0,35.0,54.0,1651087279633236.0,2
1041,-6.0,-13.0,-3.0,20.0,31.0,8.0,-8.0,-10.0,1651087279633236.0,2
1042,10.0,4.0,16.0,1.0,-11.0,-5.0,10.0,20.0,1651087279634269.0,2
1043,23.0,92.0,3.0,4.0,-16.0,-1.0,4.0,-32.0,1651087279634269.0,2
1044,16.0,-70.0,-16.0,-15.0,-3.0,-5.0,-20.0,-27.0,1651087279646383.0,2
1045,-8.0,33.0,12.0,11.0,13.0,10.0,13.0,32.0,1651087279646383.0,2
1046,-10.0,-33.0,5.0,1.0,-6.0,-3.0,6.0,32.0,1651087279654355.0,2
1047,-16.0,7.0,15.0,8.0,6.0,2.0,-2.0,-8.0,1651087279654355.0,2
1048,-5.0,29.0,-5.0,-12.0,-9.0,-11.0,-17.0,-34.0,1651087279670399.0,2
1049,21.0,50.0,-9.0,-12.0,-45.0,-3.0,20.0,29.0,1651087279670399.0,2
1050,1.0,-7.0,2.0,21.0,57.0,22.0,-5.0,1.0,1651087279671240.0,2
1051,9.0,17.0,20.0,-10.0,-40.0,-12.0,1.0,22.0,1651087279671240.0,2
1052,-21.0,-4.0,0.0,16.0,29.0,10.0,12.0,-3.0,1651087279693198.0,2
1053,4.0,-19.0,-22.0,-16.0,-16.0,-15.0,-10.0,-24.0,1651087279693198.0,2
1054,5.0,29.0,14.0,-6.0,-23.0,-6.0,9.0,-27.0,1651087279694230.0,2
1055,-16.0,-29.0,-14.0,-7.0,-6.0,-4.0,-44.0,-35.0,1651087279694230.0,2
1056,-7.0,0.0,-7.0,-6.0,-6.0,7.0,43.0,74.0,1651087279707523.0,2
1057,-32.0,-40.0,16.0,-6.0,-2.0,-7.0,-4.0,40.0,1651087279707523.0,2
1058,45.0,68.0,14.0,8.0,13.0,7.0,-5.0,-11.0,1651087279713510.0,2
1059,-15.0,-77.0,-14.0,16.0,1.0,-1.0,-7.0,-52.0,1651087279713510.0,2
1060,15.0,56.0,12.0,5.0,1.0,-1.0,-2.0,9.0,1651087279729636.0,2
1061,19.0,-13.0,-16.0,-18.0,3.0,4.0,4.0,7.0,1651087279729636.0,2
1062,-30.0,6.0,4.0,-4.0,0.0,-2.0,9.0,14.0,1651087279731464.0,2
1063,-24.0,4.0,5.0,-29.0,-33.0,-7.0,-21.0,-79.0,1651087279731464.0,2
1064,10.0,12.0,-9.0,9.0,14.0,10.0,28.0,31.0,1651087279752342.0,2
1065,-22.0,39.0,16.0,11.0,18.0,3.0,-8.0,-36.0,1651087279752342.0,2
1066,36.0,8.0,10.0,-4.0,11.0,10.0,8.0,83.0,1651087279760810.0,2
1067,1.0,-11.0,-14.0,-19.0,-14.0,-5.0,4.0,16.0,1651087279760810.0,2
1068,-17.0,-11.0,0.0,7.0,-13.0,-7.0,-3.0,-70.0,1651087279767237.0,2
1069,34.0,9.0,5.0,8.0,20.0,12.0,-6.0,30.0,1651087279767237.0,2
1070,-20.0,-15.0,-7.0,-25.0,-37.0,-23.0,-12.0,26.0,1651087279774351.0,2
1071,9.0,-38.0,17.0,24.0,29.0,3.0,5.0,4.0,1651087279774351.0,2
1072,2.0,7.0,-4.0,7.0,16.0,11.0,3.0,11.0,1651087279790400.0,2
1073,-29.0,-36.0,-1.0,-2.0,-4.0,-2.0,13.0,-18.0,1651087279790400.0,2
1074,19.0,50.0,-4.0,-5.0,-25.0,-13.0,-38.0,-16.0,1651087279791241.0,2
1075,16.0,-60.0,-6.0,6.0,29.0,11.0,67.0,93.0,1651087279791241.0,2
1076,-21.0,19.0,-2.0,1.0,-9.0,-8.0,-19.0,-38.0,1651087279813100.0,2
1077,5.0,-36.0,-6.0,0.0,-5.0,0.0,10.0,10.0,1651087279813100.0,2
1078,13.0,-9.0,-7.0,3.0,9.0,2.0,-17.0,-39.0,1651087279814141.0,2
1079,-27.0,24.0,-5.0,-4.0,-6.0,5.0,7.0,29.0,1651087279814141.0,2
1080,24.0,40.0,10.0,-14.0,-12.0,-7.0,-15.0,-1.0,1651087279827224.0,2
1081,15.0,6.0,-10.0,13.0,25.0,-1.0,-29.0,-43.0,1651087279827224.0,2
1082,-36.0,-61.0,-16.0,-10.0,-7.0,-1.0,35.0,42.0,1651087279841063.0,2
1083,-5.0,15.0,28.0,-6.0,-32.0,-16.0,-46.0,-79.0,1651087279841063.0,2
1084,-6.0,-20.0,-30.0,13.0,17.0,14.0,48.0,74.0,1651087279850047.0,2
1085,-8.0,-36.0,8.0,-14.0,-17.0,-7.0,-11.0,63.0,1651087279850047.0,2
1086,32.0,54.0,16.0,9.0,1.0,-4.0,9.0,-98.0,1651087279851033.0,2
1087,14.0,27.0,-9.0,-18.0,-41.0,-16.0,-14.0,61.0,1651087279851033.0,2
1088,17.0,-46.0,16.0,27.0,54.0,0.0,-31.0,-29.0,1651087279873217.0,2
1089,1.0,31.0,-5.0,8.0,1.0,5.0,17.0,-5.0,1651087279873217.0,2
1090,-2.0,7.0,-8.0,1.0,-1.0,2.0,-16.0,-84.0,1651087279874251.0,2
1091,23.0,49.0,3.0,-29.0,-12.0,1.0,16.0,52.0,1651087279874251.0,2
1092,-10.0,-27.0,9.0,37.0,9.0,-3.0,-4.0,6.0,1651087279886354.0,2
1093,-5.0,-1.0,-14.0,-2.0,-6.0,1.0,5.0,7.0,1651087279886354.0,2
1094,-7.0,-35.0,-7.0,9.0,7.0,-2.0,1.0,1.0,1651087279895282.0,2
1095,23.0,12.0,-13.0,5.0,27.0,6.0,-10.0,-28.0,1651087279895282.0,2
1096,-23.0,-47.0,-12.0,-29.0,-25.0,-7.0,-32.0,-28.0,1651087279910397.0,2
1097,-1.0,14.0,10.0,7.0,-1.0,5.0,11.0,-26.0,1651087279910397.0,2
1098,3.0,-27.0,-11.0,-5.0,-10.0,-1.0,32.0,42.0,1651087279911233.0,2
1099,5.0,-21.0,26.0,9.0,-17.0,-3.0,-33.0,-57.0,1651087279911233.0,2
1100,8.0,12.0,-12.0,6.0,23.0,5.0,9.0,18.0,1651087279933220.0,2
1101,-8.0,-21.0,2.0,-18.0,-7.0,-1.0,36.0,76.0,1651087279933220.0,2
1102,-80.0,-57.0,-1.0,-6.0,-9.0,-2.0,-32.0,-13.0,1651087279934221.0,2
1103,1.0,3.0,-15.0,2.0,10.0,-3.0,0.0,26.0,1651087279934221.0,2
1104,16.0,-5.0,14.0,-9.0,2.0,4.0,4.0,-23.0,1651087279946385.0,2
1105,10.0,83.0,5.0,4.0,-8.0,-7.0,-28.0,-58.0,1651087279946385.0,2
1106,5.0,-10.0,-14.0,1.0,24.0,12.0,18.0,65.0,1651087279955203.0,2
1107,-24.0,-47.0,-1.0,-1.0,-12.0,-7.0,-9.0,-21.0,1651087279955203.0,2
1108,2.0,2.0,-11.0,-23.0,-28.0,-7.0,-3.0,6.0,1651087279970169.0,2
1109,-14.0,-14.0,-7.0,1.0,16.0,-1.0,-4.0,-19.0,1651087279970169.0,2
1110,25.0,31.0,11.0,3.0,-9.0,1.0,-1.0,-16.0,1651087279971161.0,2
1111,3.0,7.0,2.0,2.0,4.0,4.0,25.0,15.0,1651087279971161.0,2
1112,-2.0,11.0,-23.0,-11.0,-7.0,-9.0,2.0,12.0,1651087279993229.0,2
1113,14.0,-14.0,16.0,1.0,1.0,-9.0,-9.0,-13.0,1651087279993229.0,2
1114,-2.0,-4.0,6.0,-1.0,6.0,26.0,5.0,13.0,1651087279994260.0,2
1115,-5.0,3.0,-4.0,5.0,9.0,7.0,16.0,-9.0,1651087279994260.0,2
1116,-8.0,8.0,9.0,-4.0,-3.0,0.0,-3.0,-11.0,1651087280006548.0,2
1117,9.0,-14.0,-12.0,-1.0,-3.0,-5.0,-8.0,-9.0,1651087280006548.0,2
1118,-6.0,3.0,11.0,10.0,-4.0,-29.0,-36.0,1.0,1651087280015091.0,2
1119,9.0,1.0,6.0,8.0,14.0,36.0,18.0,33.0,1651087280015091.0,2
1120,1.0,7.0,-1.0,-13.0,-17.0,-10.0,-3.0,-12.0,1651087280030238.0,2
1121,-2.0,-5.0,10.0,16.0,9.0,17.0,15.0,1.0,1651087280030238.0,2
1122,5.0,6.0,7.0,7.0,6.0,1.0,2.0,-1.0,1651087280031239.0,2
1123,-6.0,-5.0,-12.0,-1.0,2.0,6.0,3.0,5.0,1651087280031239.0,2
1124,-9.0,-1.0,0.0,-2.0,-13.0,-21.0,-18.0,-22.0,1651087280051975.0,2
1125,9.0,4.0,-1.0,-1.0,8.0,6.0,17.0,25.0,1651087280051975.0,2
1126,2.0,6.0,-2.0,1.0,2.0,-19.0,-18.0,-15.0,1651087280061255.0,2
1127,-26.0,1.0,-9.0,-4.0,-5.0,-16.0,-4.0,-18.0,1651087280061255.0,2
1128,25.0,-2.0,2.0,-4.0,-1.0,1.0,-25.0,30.0,1651087280066334.0,2
1129,-9.0,-4.0,9.0,2.0,-3.0,-12.0,2.0,3.0,1651087280066334.0,2
1130,3.0,3.0,2.0,-1.0,2.0,27.0,26.0,14.0,1651087280075149.0,2
1131,-7.0,-4.0,-16.0,-2.0,-3.0,-36.0,-16.0,3.0,1651087280075149.0,2
1132,-13.0,2.0,4.0,2.0,2.0,16.0,7.0,-10.0,1651087280097880.0,2
1133,-6.0,0.0,0.0,-1.0,6.0,31.0,8.0,-14.0,1651087280097880.0,2
1134,5.0,-4.0,1.0,4.0,-6.0,-23.0,-30.0,-12.0,1651087280098880.0,2
1135,4.0,1.0,6.0,1.0,2.0,11.0,6.0,-13.0,1651087280098880.0,2
1136,-2.0,5.0,3.0,-1.0,-1.0,-14.0,12.0,21.0,1651087280112653.0,2
1137,11.0,-1.0,-2.0,-2.0,-4.0,-26.0,-17.0,-11.0,1651087280112653.0,2
1138,-19.0,-1.0,-9.0,-11.0,-5.0,13.0,18.0,6.0,1651087280119208.0,2
1139,3.0,3.0,-7.0,4.0,6.0,-5.0,-14.0,-22.0,1651087280119208.0,2
1140,7.0,1.0,7.0,1.0,-8.0,8.0,4.0,-5.0,1651087280126193.0,2
1141,-20.0,-3.0,-12.0,-14.0,-2.0,-2.0,-17.0,-44.0,1651087280126193.0,2
1142,22.0,20.0,2.0,6.0,5.0,2.0,-7.0,15.0,1651087280135227.0,2
1143,-10.0,-24.0,6.0,5.0,-3.0,0.0,6.0,1.0,1651087280135227.0,2
1144,14.0,0.0,-8.0,-11.0,-6.0,-18.0,-1.0,-10.0,1651087280150295.0,2
1145,-4.0,3.0,10.0,6.0,5.0,22.0,11.0,16.0,1651087280150295.0,2
1146,-2.0,0.0,-11.0,1.0,-2.0,-6.0,-5.0,-13.0,1651087280151292.0,2
1147,0.0,11.0,11.0,4.0,4.0,6.0,6.0,5.0,1651087280151292.0,2
1148,-2.0,-2.0,6.0,10.0,2.0,5.0,3.0,35.0,1651087280172841.0,2
1149,19.0,-2.0,14.0,3.0,-3.0,-6.0,-15.0,-31.0,1651087280172841.0,2
1150,-16.0,-7.0,-22.0,-18.0,-4.0,2.0,7.0,-9.0,1651087280174122.0,2
1151,13.0,2.0,17.0,17.0,-2.0,-7.0,-3.0,17.0,1651087280174122.0,2
1152,-2.0,-1.0,-6.0,-17.0,-3.0,8.0,3.0,-2.0,1651087280186238.0,2
1153,-7.0,1.0,-8.0,-4.0,-2.0,-4.0,-5.0,28.0,1651087280186238.0,2
1154,-8.0,-2.0,33.0,20.0,9.0,2.0,1.0,-22.0,1651087280195210.0,2
1155,16.0,-2.0,-38.0,-22.0,-9.0,3.0,16.0,11.0,1651087280195210.0,2
1156,-9.0,6.0,15.0,6.0,10.0,1.0,-9.0,-24.0,1651087280209222.0,2
1157,-6.0,2.0,-22.0,-12.0,-11.0,-8.0,13.0,11.0,1651087280209222.0,2
1158,0.0,-2.0,0.0,4.0,10.0,16.0,-4.0,18.0,1651087280216352.0,2
1159,-20.0,0.0,15.0,18.0,12.0,15.0,17.0,-8.0,1651087280216352.0,2
1160,16.0,1.0,5.0,1.0,-8.0,-7.0,6.0,-1.0,1651087280232514.0,2
1161,-7.0,-5.0,-24.0,-22.0,-6.0,-4.0,3.0,29.0,1651087280232514.0,2
1162,5.0,-5.0,3.0,2.0,-4.0,0.0,-5.0,-28.0,1651087280234364.0,2
1163,3.0,-2.0,-39.0,-27.0,-3.0,4.0,1.0,1.0,1651087280234364.0,2
1164,-19.0,-1.0,14.0,17.0,3.0,-1.0,-9.0,-1.0,1651087280245807.0,2
1165,11.0,2.0,22.0,21.0,9.0,0.0,-3.0,-21.0,1651087280245807.0,2
1166,8.0,1.0,11.0,15.0,-2.0,-11.0,5.0,8.0,1651087280254867.0,2
1167,11.0,4.0,38.0,28.0,-1.0,-15.0,-17.0,0.0,1651087280254867.0,2
1168,-3.0,-2.0,-11.0,-15.0,2.0,10.0,4.0,-1.0,1651087280270316.0,2
1169,0.0,-1.0,-15.0,5.0,0.0,-5.0,-7.0,20.0,1651087280270316.0,2
1170,-6.0,-4.0,-6.0,-21.0,-1.0,1.0,4.0,-6.0,1651087280271149.0,2
1171,18.0,7.0,2.0,16.0,1.0,-1.0,-4.0,-11.0,1651087280271149.0,2
1172,-5.0,1.0,20.0,1.0,3.0,4.0,5.0,-3.0,1651087280292840.0,2
1173,9.0,-2.0,-32.0,-2.0,-3.0,-1.0,5.0,0.0,1651087280292840.0,2
1174,0.0,-4.0,-9.0,-12.0,-7.0,-7.0,-3.0,15.0,1651087280294060.0,2
1175,3.0,1.0,44.0,8.0,0.0,2.0,1.0,24.0,1651087280294060.0,2
1176,-5.0,3.0,-11.0,-9.0,-2.0,-4.0,-8.0,-15.0,1651087280315207.0,2
1177,3.0,0.0,14.0,9.0,10.0,5.0,-2.0,-14.0,1651087280315207.0,2
1178,6.0,0.0,-14.0,-4.0,1.0,3.0,6.0,11.0,1651087280316087.0,2
1179,-3.0,-1.0,-4.0,-17.0,-3.0,-4.0,-5.0,3.0,1651087280316087.0,2
1180,-3.0,-1.0,-12.0,1.0,-5.0,-2.0,-1.0,-12.0,1651087280330215.0,2
1181,1.0,-2.0,7.0,-16.0,-4.0,-3.0,-4.0,-5.0,1651087280330215.0,2
1182,-2.0,1.0,7.0,16.0,-2.0,-4.0,1.0,5.0,1651087280331213.0,2
1183,0.0,-5.0,-23.0,-12.0,-4.0,-4.0,-2.0,-9.0,1651087280331213.0,2
1184,12.0,2.0,0.0,8.0,-1.0,0.0,4.0,3.0,1651087280354332.0,2
1185,-6.0,0.0,8.0,1.0,-2.0,-1.0,-3.0,0.0,1651087280354332.0,2
1186,-19.0,-8.0,1.0,-5.0,-1.0,-1.0,2.0,-14.0,1651087280355217.0,2
1187,-11.0,1.0,3.0,12.0,3.0,1.0,-4.0,7.0,1651087280355217.0,2
1188,2.0,-4.0,-21.0,-16.0,-7.0,-3.0,1.0,-3.0,1651087280375343.0,2
1189,-5.0,-3.0,-4.0,-8.0,-1.0,-2.0,-3.0,0.0,1651087280375343.0,2
1190,5.0,5.0,2.0,1.0,-2.0,-2.0,-1.0,1.0,1651087280376205.0,2
1191,3.0,-7.0,-20.0,-11.0,-2.0,-1.0,-2.0,-18.0,1651087280376205.0,2
1192,-5.0,-2.0,-14.0,-6.0,1.0,3.0,1.0,1.0,1651087280397195.0,2
1193,1.0,1.0,20.0,22.0,1.0,0.0,-2.0,-4.0,1651087280397195.0,2
1194,1.0,-1.0,8.0,0.0,5.0,0.0,1.0,4.0,1651087280399189.0,2
1195,-1.0,6.0,-1.0,-15.0,-7.0,-3.0,-1.0,-1.0,1651087280399189.0,2
1196,-5.0,-11.0,-24.0,-3.0,-4.0,-1.0,0.0,-2.0,1651087280412861.0,2
1197,-5.0,-2.0,5.0,12.0,8.0,3.0,-1.0,-4.0,1651087280412861.0,2
1198,6.0,0.0,-14.0,-13.0,-4.0,-4.0,0.0,6.0,1651087280414122.0,2
1199,-3.0,3.0,9.0,0.0,-7.0,-4.0,-1.0,3.0,1651087280414122.0,2
1200,0.0,8.0,8.0,8.0,3.0,6.0,-1.0,0.0,1651087280434384.0,2
1201,-4.0,-4.0,11.0,6.0,6.0,1.0,1.0,-2.0,1651087280434384.0,2
1202,-4.0,-4.0,-20.0,-9.0,1.0,0.0,0.0,-5.0,1651087280451235.0,2
1203,-4.0,-1.0,-6.0,-7.0,-1.0,0.0,1.0,1.0,1651087280451235.0,2
1204,3.0,0.0,14.0,7.0,2.0,1.0,1.0,20.0,1651087280451235.0,2
1205,2.0,1.0,-11.0,-4.0,-3.0,0.0,-2.0,-6.0,1651087280451235.0,2
1206,-2.0,2.0,16.0,8.0,0.0,-2.0,0.0,4.0,1651087280453109.0,2
1207,-1.0,-9.0,-16.0,-9.0,-2.0,-6.0,-3.0,-1.0,1651087280453109.0,2
1208,-3.0,6.0,8.0,1.0,3.0,5.0,3.0,1.0,1651087280472543.0,2
1209,2.0,-7.0,-2.0,2.0,-1.0,-2.0,-2.0,1.0,1651087280472543.0,2
1210,-2.0,17.0,17.0,2.0,-5.0,-2.0,-1.0,-3.0,1651087280473412.0,2
1211,1.0,0.0,11.0,4.0,5.0,4.0,3.0,5.0,1651087280473412.0,2
1212,-2.0,-6.0,-6.0,2.0,-1.0,-3.0,0.0,-7.0,1651087280495789.0,2
1213,2.0,9.0,14.0,-3.0,-4.0,-1.0,-1.0,0.0,1651087280495789.0,2
1214,0.0,-11.0,-22.0,-7.0,-2.0,-1.0,-1.0,-3.0,1651087280496631.0,2
1215,-3.0,-7.0,9.0,11.0,3.0,0.0,-3.0,-4.0,1651087280496631.0,2
1216,-4.0,4.0,-10.0,-11.0,-3.0,-2.0,0.0,-4.0,1651087280509761.0,2
1217,0.0,-4.0,-20.0,-7.0,-8.0,-2.0,-1.0,-3.0,1651087280509761.0,2
1218,1.0,-4.0,-3.0,-9.0,-4.0,-1.0,-1.0,4.0,1651087280516734.0,2
1219,-1.0,6.0,-1.0,0.0,0.0,1.0,-1.0,-1.0,1651087280516734.0,2
1220,-1.0,-4.0,4.0,7.0,3.0,-1.0,-2.0,-5.0,1651087280533228.0,2
1221,2.0,-1.0,-6.0,-8.0,-4.0,-4.0,0.0,3.0,1651087280533228.0,2
1222,-1.0,-3.0,-2.0,-5.0,-3.0,-2.0,0.0,0.0,1651087280534262.0,2
1223,-1.0,-2.0,-5.0,3.0,8.0,8.0,2.0,1.0,1651087280534262.0,2
1224,-3.0,-5.0,-8.0,-12.0,-8.0,-7.0,-2.0,-3.0,1651087280555355.0,2
1225,7.0,5.0,6.0,4.0,-1.0,-2.0,0.0,-3.0,1651087280555355.0,2
1226,2.0,-3.0,-1.0,2.0,2.0,0.0,-1.0,3.0,1651087280556222.0,2
1227,-1.0,-3.0,-2.0,-5.0,-2.0,-2.0,1.0,-2.0,1651087280556222.0,2
1228,1.0,-2.0,-1.0,6.0,0.0,3.0,1.0,-1.0,1651087280569435.0,2
1229,-2.0,0.0,15.0,3.0,-2.0,-2.0,-1.0,-2.0,1651087280569435.0,2
1230,-1.0,-8.0,-8.0,-8.0,1.0,0.0,1.0,-1.0,1651087280584281.0,2
1231,0.0,6.0,1.0,10.0,-3.0,-2.0,-2.0,1.0,1651087280584281.0,2
1232,-2.0,4.0,9.0,0.0,-3.0,2.0,1.0,-2.0,1651087280593185.0,2
1233,-2.0,-5.0,-10.0,-3.0,0.0,0.0,-1.0,-2.0,1651087280593185.0,2
1234,-1.0,-1.0,7.0,7.0,1.0,2.0,-1.0,-1.0,1651087280594219.0,2
1235,0.0,2.0,-3.0,-11.0,-3.0,-3.0,-1.0,0.0,1651087280594219.0,2
1236,0.0,-2.0,7.0,8.0,-2.0,-2.0,-1.0,-3.0,1651087280623169.0,2
1237,-2.0,0.0,1.0,-2.0,-6.0,1.0,1.0,0.0,1651087280623169.0,2
1238,3.0,-9.0,-17.0,-7.0,4.0,1.0,-2.0,-1.0,1651087280624195.0,2
1239,0.0,13.0,3.0,2.0,8.0,4.0,2.0,0.0,1651087280624195.0,2
1240,-2.0,-6.0,2.0,-4.0,-1.0,-5.0,-2.0,-2.0,1651087280629180.0,2
1241,1.0,2.0,7.0,1.0,-4.0,-3.0,-2.0,1.0,1651087280629180.0,2
1242,-3.0,2.0,2.0,3.0,-5.0,2.0,-1.0,-1.0,1651087280636137.0,2
1243,0.0,-2.0,-7.0,-2.0,-3.0,-3.0,-1.0,1.0,1651087280636137.0,2
1244,-3.0,-1.0,-13.0,-8.0,6.0,2.0,1.0,-2.0,1651087280652209.0,2
1245,-3.0,-4.0,-11.0,-3.0,6.0,4.0,1.0,-1.0,1651087280652209.0,2
1246,0.0,2.0,13.0,3.0,-7.0,-4.0,-1.0,-2.0,1651087280654124.0,2
1247,-1.0,-3.0,-13.0,-3.0,-4.0,-2.0,-3.0,-3.0,1651087280654124.0,2
1248,1.0,0.0,9.0,4.0,0.0,0.0,-1.0,2.0,1651087280676278.0,2
1249,-1.0,-6.0,-14.0,-6.0,-1.0,-3.0,-3.0,0.0,1651087280676278.0,2
1250,-3.0,5.0,-7.0,-3.0,2.0,0.0,2.0,-1.0,1651087280677209.0,2
1251,-1.0,-6.0,0.0,3.0,-1.0,1.0,-1.0,-3.0,1651087280677209.0,0
1252,1.0,2.0,2.0,2.0,-3.0,-3.0,-1.0,-2.0,1651087280690224.0,0
1253,-1.0,0.0,11.0,4.0,-3.0,-1.0,-2.0,-2.0,1651087280690224.0,0
1254,1.0,-1.0,8.0,6.0,1.0,3.0,1.0,1.0,1651087280696287.0,0
1255,-2.0,-6.0,-33.0,-18.0,0.0,0.0,-2.0,-1.0,1651087280696287.0,0
1256,-1.0,7.0,26.0,18.0,3.0,1.0,2.0,-1.0,1651087280712528.0,0
1257,0.0,0.0,-6.0,-2.0,-2.0,-1.0,-2.0,0.0,1651087280712528.0,0
1258,0.0,-2.0,6.0,0.0,-3.0,-4.0,-2.0,-2.0,1651087280714413.0,0
1259,-2.0,-8.0,7.0,1.0,4.0,-1.0,2.0,0.0,1651087280714413.0,0
1260,0.0,1.0,-7.0,-7.0,-5.0,1.0,-1.0,-2.0,1651087280735363.0,0
1261,-1.0,2.0,17.0,11.0,4.0,7.0,1.0,0.0,1651087280735363.0,0
1262,-2.0,-1.0,-8.0,-8.0,-3.0,-5.0,-1.0,-1.0,1651087280736197.0,0
1263,3.0,13.0,0.0,-2.0,2.0,2.0,-1.0,1.0,1651087280736197.0,0
1264,-3.0,-18.0,-6.0,-5.0,-4.0,-5.0,-3.0,-1.0,1651087280749686.0,0
1265,0.0,2.0,1.0,0.0,-6.0,-4.0,-2.0,0.0,1651087280749686.0,0
1266,-2.0,0.0,-7.0,-5.0,2.0,-2.0,-1.0,1.0,1651087280756828.0,0
1267,-2.0,-2.0,1.0,1.0,2.0,0.0,2.0,0.0,1651087280756828.0,0
1268,0.0,4.0,-1.0,2.0,1.0,2.0,1.0,3.0,1651087280773043.0,0
1269,-1.0,1.0,-1.0,-1.0,-2.0,-1.0,-1.0,-1.0,1651087280773043.0,0
1270,0.0,-1.0,6.0,6.0,4.0,2.0,1.0,0.0,1651087280774125.0,0
1271,-1.0,-2.0,10.0,10.0,-3.0,-2.0,-1.0,-2.0,1651087280774125.0,0
1272,-1.0,6.0,5.0,-5.0,-5.0,0.0,-1.0,-2.0,1651087280795389.0,0
1273,-2.0,-6.0,-10.0,-6.0,4.0,-2.0,-1.0,-1.0,1651087280795389.0,0
1274,-2.0,4.0,12.0,2.0,3.0,-2.0,-1.0,1.0,1651087280796228.0,0
1275,-2.0,-5.0,-5.0,-3.0,-2.0,-1.0,0.0,1.0,1651087280796228.0,0
1276,-2.0,-3.0,-1.0,3.0,1.0,3.0,1.0,1.0,1651087280810380.0,0
1277,0.0,-6.0,-3.0,-1.0,0.0,1.0,0.0,0.0,1651087280810380.0,0
1278,0.0,17.0,-1.0,-5.0,-3.0,-1.0,-3.0,-2.0,1651087280816395.0,0
1279,1.0,-3.0,7.0,1.0,-2.0,-1.0,-1.0,-1.0,1651087280816395.0,0
1280,0.0,-1.0,-5.0,-3.0,-2.0,0.0,-3.0,0.0,1651087280833231.0,0
1281,1.0,-2.0,-5.0,-1.0,-3.0,0.0,1.0,1.0,1651087280833231.0,0
1282,-1.0,-5.0,-5.0,6.0,4.0,1.0,1.0,1.0,1651087280834262.0,0
1283,1.0,1.0,0.0,-5.0,-3.0,-4.0,-3.0,-2.0,1651087280834262.0,0
1284,-1.0,1.0,2.0,3.0,7.0,1.0,-1.0,-1.0,1651087280855198.0,0
1285,0.0,2.0,-1.0,3.0,3.0,1.0,1.0,0.0,1651087280855198.0,0
1286,-2.0,-14.0,-1.0,-3.0,-4.0,3.0,-1.0,0.0,1651087280856055.0,0
1287,0.0,5.0,-2.0,-3.0,-3.0,-2.0,-2.0,0.0,1651087280856055.0,0
1288,-2.0,-6.0,-17.0,-6.0,-4.0,-3.0,-1.0,-1.0,1651087280869150.0,0
1289,0.0,8.0,4.0,-8.0,-4.0,-2.0,-3.0,0.0,1651087280869150.0,0
1290,-2.0,-14.0,-8.0,4.0,3.0,0.0,0.0,-1.0,1651087280877147.0,0
1291,0.0,-2.0,4.0,2.0,-3.0,-1.0,-1.0,0.0,1651087280877147.0,0
1292,1.0,1.0,-8.0,-8.0,-6.0,0.0,-1.0,0.0,1651087280901338.0,0
1293,1.0,5.0,4.0,2.0,8.0,1.0,2.0,-1.0,1651087280901338.0,0
1294,0.0,5.0,20.0,19.0,4.0,2.0,0.0,-2.0,1651087280902211.0,0
1295,0.0,-2.0,4.0,-3.0,-1.0,-2.0,0.0,1.0,1651087280902211.0,0
1296,1.0,-2.0,-8.0,1.0,-1.0,-2.0,-1.0,-1.0,1651087280915193.0,0
1297,0.0,3.0,1.0,-8.0,-2.0,-2.0,-1.0,-2.0,1651087280915193.0,0
1298,1.0,0.0,-13.0,-8.0,-5.0,-4.0,-1.0,1.0,1651087280916086.0,0
1299,-3.0,-6.0,4.0,1.0,-1.0,-2.0,-1.0,-2.0,1651087280916086.0,0
1300,1.0,4.0,15.0,1.0,2.0,5.0,-3.0,-2.0,1651087280929221.0,0
1301,0.0,-6.0,-4.0,7.0,2.0,-2.0,-1.0,-1.0,1651087280929221.0,0
1302,2.0,0.0,-7.0,-3.0,5.0,3.0,3.0,0.0,1651087280937133.0,0
1303,-2.0,4.0,-9.0,-2.0,-2.0,-1.0,1.0,-2.0,1651087280937133.0,0
1304,-3.0,-9.0,-2.0,-4.0,0.0,-4.0,0.0,-1.0,1651087280953209.0,0
1305,-2.0,-3.0,3.0,-2.0,-3.0,1.0,-2.0,0.0,1651087280953209.0,0
1306,0.0,4.0,12.0,7.0,-2.0,-2.0,-3.0,-3.0,1651087280954211.0,0
1307,-1.0,0.0,0.0,-1.0,2.0,2.0,1.0,1.0,1651087280954211.0,0
1308,0.0,0.0,-2.0,-7.0,-6.0,-3.0,-1.0,-2.0,1651087280975321.0,0
1309,-2.0,1.0,3.0,4.0,-3.0,-1.0,-3.0,-1.0,1651087280975321.0,0
1310,2.0,1.0,2.0,0.0,2.0,2.0,0.0,0.0,1651087280976189.0,0
1311,2.0,1.0,-7.0,-2.0,-1.0,-2.0,-1.0,1.0,1651087280976189.0,0
1312,0.0,0.0,6.0,6.0,2.0,1.0,0.0,0.0,1651087280989152.0,0
1313,-2.0,0.0,0.0,-5.0,-4.0,-2.0,-2.0,-3.0,1651087280989152.0,0
1314,0.0,1.0,-4.0,-7.0,-1.0,-2.0,-2.0,-1.0,1651087280997153.0,0
1315,0.0,-2.0,8.0,4.0,-2.0,-3.0,-1.0,-1.0,1651087280997153.0,0
1316,1.0,2.0,1.0,7.0,5.0,3.0,1.0,0.0,1651087281012938.0,0
1317,-1.0,-11.0,-10.0,-11.0,-3.0,-3.0,0.0,0.0,1651087281012938.0,0
1318,-1.0,5.0,0.0,4.0,0.0,-2.0,0.0,0.0,1651087281014067.0,0
1319,-1.0,-9.0,-1.0,4.0,-2.0,1.0,-1.0,0.0,1651087281014067.0,0
1320,-2.0,5.0,-12.0,-6.0,-5.0,-6.0,0.0,0.0,1651087281035321.0,0
1321,-2.0,-1.0,11.0,2.0,3.0,1.0,0.0,1.0,1651087281035321.0,0
1322,-3.0,-6.0,-18.0,-12.0,-1.0,2.0,0.0,0.0,1651087281036191.0,0
1323,0.0,2.0,-6.0,-5.0,-1.0,0.0,0.0,-2.0,1651087281036191.0,0
1324,1.0,-1.0,3.0,0.0,1.0,1.0,-1.0,1.0,1651087281049187.0,0
1325,-1.0,1.0,-2.0,-1.0,0.0,-1.0,-2.0,0.0,1651087281049187.0,0
1326,-1.0,-1.0,2.0,2.0,-5.0,-2.0,-1.0,0.0,1651087281057261.0,0
1327,-3.0,-2.0,6.0,1.0,-4.0,-2.0,-1.0,-2.0,1651087281057261.0,0
1328,1.0,-1.0,4.0,10.0,10.0,5.0,2.0,2.0,1651087281072340.0,0
1329,-1.0,1.0,4.0,4.0,4.0,1.0,0.0,-1.0,1651087281072340.0,0
1330,1.0,0.0,-3.0,-5.0,-5.0,-1.0,-2.0,-2.0,1651087281080245.0,0
1331,0.0,-1.0,-4.0,-6.0,-1.0,0.0,-1.0,1.0,1651087281080245.0,0
1332,0.0,0.0,1.0,1.0,-5.0,-4.0,-2.0,-2.0,1651087281095330.0,0
1333,1.0,0.0,-1.0,4.0,-1.0,-1.0,0.0,1.0,1651087281095330.0,0
1334,1.0,1.0,0.0,6.0,1.0,2.0,0.0,0.0,1651087281096220.0,0
1335,-4.0,-6.0,4.0,-9.0,-6.0,-4.0,0.0,-2.0,1651087281096220.0,0
1336,-2.0,0.0,3.0,0.0,3.0,4.0,0.0,-1.0,1651087281108998.0,0
1337,1.0,-3.0,-9.0,0.0,1.0,0.0,2.0,-1.0,1651087281108998.0,0
1338,-1.0,4.0,4.0,0.0,1.0,-4.0,1.0,-2.0,1651087281117204.0,0
1339,2.0,0.0,4.0,4.0,1.0,4.0,-1.0,1.0,1651087281117204.0,0
1340,0.0,-4.0,-6.0,-4.0,-2.0,-4.0,0.0,-1.0,1651087281133094.0,0
1341,-2.0,-1.0,2.0,0.0,-4.0,-2.0,-1.0,-2.0,1651087281133094.0,0
1342,-2.0,-6.0,-26.0,-12.0,-1.0,4.0,0.0,0.0,1651087281134127.0,0
1343,0.0,2.0,6.0,-1.0,1.0,1.0,1.0,1.0,1651087281134127.0,0
1344,-3.0,2.0,-13.0,3.0,-2.0,-2.0,-1.0,-2.0,1651087281155459.0,0
1345,0.0,1.0,2.0,-6.0,-6.0,-1.0,-2.0,-1.0,1651087281155459.0,0
1346,-1.0,-5.0,3.0,3.0,0.0,-5.0,0.0,1.0,1651087281156334.0,0
1347,1.0,4.0,1.0,1.0,6.0,3.0,1.0,0.0,1651087281156334.0,0
1348,1.0,1.0,8.0,-1.0,4.0,0.0,0.0,-1.0,1651087281168441.0,0
1349,1.0,-3.0,-4.0,-3.0,0.0,1.0,0.0,1.0,1651087281168441.0,0
1350,-3.0,0.0,8.0,1.0,-6.0,-4.0,-4.0,-1.0,1651087281177404.0,0
1351,2.0,-2.0,-9.0,-4.0,2.0,1.0,-1.0,0.0,1651087281177404.0,0
1352,-3.0,0.0,3.0,2.0,0.0,2.0,3.0,1.0,1651087281193182.0,0
1353,0.0,1.0,-8.0,-3.0,-5.0,-1.0,0.0,-1.0,1651087281193182.0,0
1354,-1.0,-3.0,5.0,8.0,7.0,5.0,1.0,-1.0,1651087281194215.0,0
1355,-2.0,2.0,2.0,-8.0,-1.0,-3.0,1.0,-2.0,1651087281194215.0,0
1356,0.0,-2.0,0.0,-2.0,-4.0,-3.0,-3.0,-2.0,1651087281215198.0,0
1357,0.0,-1.0,-4.0,0.0,0.0,-1.0,0.0,0.0,1651087281215198.0,0
1358,-1.0,0.0,9.0,3.0,-1.0,0.0,1.0,-1.0,1651087281216090.0,0
1359,-1.0,0.0,10.0,11.0,4.0,1.0,0.0,1.0,1651087281216090.0,0
1360,0.0,-4.0,-16.0,-7.0,-2.0,1.0,-2.0,-1.0,1651087281229135.0,0
1361,-1.0,3.0,3.0,0.0,-3.0,-2.0,-2.0,-3.0,1651087281229135.0,0
1362,0.0,-1.0,3.0,-4.0,-4.0,-2.0,-1.0,0.0,1651087281237183.0,0
1363,0.0,-1.0,-23.0,-3.0,-1.0,-7.0,-1.0,-2.0,1651087281237183.0,0
1364,-1.0,-1.0,6.0,5.0,-4.0,2.0,1.0,0.0,1651087281253114.0,0
1365,-1.0,1.0,4.0,8.0,10.0,6.0,0.0,-1.0,1651087281253114.0,0
1366,-3.0,-13.0,-13.0,-9.0,-5.0,-2.0,-1.0,-1.0,1651087281254147.0,0
1367,0.0,8.0,9.0,2.0,-2.0,0.0,-1.0,0.0,1651087281254147.0,0
1368,-1.0,-3.0,-1.0,-5.0,-9.0,-8.0,-1.0,-1.0,1651087281275491.0,0
1369,1.0,4.0,-2.0,2.0,12.0,5.0,2.0,2.0,1651087281275491.0,0
1370,0.0,4.0,9.0,-2.0,-2.0,3.0,2.0,0.0,1651087281276362.0,0
1371,-1.0,-4.0,-3.0,7.0,6.0,1.0,-1.0,-1.0,1651087281276362.0,0
1372,-1.0,0.0,-7.0,-6.0,-2.0,-2.0,-2.0,0.0,1651087281297670.0,0
1373,-3.0,-2.0,-4.0,-2.0,-9.0,-5.0,-3.0,-2.0,1651087281297670.0,0
1374,1.0,1.0,-8.0,-3.0,-2.0,4.0,0.0,1.0,1651087281298673.0,0
1375,0.0,2.0,1.0,-9.0,0.0,3.0,2.0,2.0,1651087281298673.0,0
1376,1.0,2.0,9.0,7.0,5.0,-2.0,1.0,-1.0,1651087281312919.0,0
1377,1.0,-3.0,0.0,-7.0,-3.0,-3.0,-1.0,-3.0,1651087281312919.0,0
1378,0.0,1.0,-6.0,-3.0,-7.0,-3.0,0.0,1.0,1651087281314099.0,0
1379,-1.0,-1.0,-2.0,6.0,7.0,2.0,-2.0,0.0,1651087281314099.0,0
1380,1.0,-3.0,8.0,-6.0,-1.0,1.0,0.0,1.0,1651087281335391.0,0
1381,-2.0,-15.0,-24.0,-6.0,-5.0,-1.0,0.0,0.0,1651087281335391.0,0
1382,-1.0,18.0,17.0,18.0,13.0,2.0,-1.0,-2.0,1651087281336231.0,0
1383,-2.0,-2.0,-4.0,0.0,-15.0,-6.0,-1.0,-1.0,1651087281336231.0,0
1384,-2.0,0.0,-1.0,-6.0,0.0,-1.0,-1.0,0.0,1651087281358292.0,0
1385,0.0,-5.0,1.0,1.0,0.0,1.0,0.0,1.0,1651087281358292.0,0
1386,0.0,5.0,-9.0,-7.0,1.0,-1.0,-2.0,-2.0,1651087281359072.0,0
1387,-3.0,-10.0,-4.0,-7.0,0.0,2.0,-2.0,-1.0,1651087281359072.0,0
1388,-2.0,-5.0,5.0,4.0,-9.0,-3.0,-2.0,0.0,1651087281373138.0,0
1389,0.0,2.0,3.0,5.0,-3.0,1.0,0.0,-2.0,1651087281373138.0,0
1390,0.0,-2.0,-8.0,-10.0,3.0,-1.0,-1.0,0.0,1651087281374170.0,0
1391,-1.0,3.0,-4.0,1.0,-6.0,-2.0,2.0,-1.0,1651087281374170.0,0
1392,0.0,-1.0,-6.0,-2.0,-1.0,-3.0,-2.0,-1.0,1651087281395394.0,0
1393,-1.0,7.0,12.0,2.0,13.0,6.0,2.0,0.0,1651087281395394.0,0
1394,0.0,-3.0,1.0,-16.0,-20.0,-9.0,-3.0,-2.0,1651087281396223.0,0
1395,0.0,1.0,8.0,-1.0,-18.0,-11.0,-5.0,-1.0,1651087281396223.0,0
1396,-1.0,-3.0,-12.0,24.0,42.0,20.0,5.0,2.0,1651087281418206.0,0
1397,-3.0,7.0,14.0,4.0,-2.0,-2.0,-1.0,1.0,1651087281418206.0,0
1398,0.0,-5.0,-15.0,-14.0,5.0,4.0,-1.0,-1.0,1651087281419073.0,0
1399,1.0,1.0,2.0,-2.0,-26.0,-15.0,-4.0,-3.0,1651087281419073.0,0
1400,-3.0,-1.0,-10.0,-23.0,-18.0,-9.0,-2.0,-4.0,1651087281433307.0,0
1401,2.0,-5.0,-1.0,-2.0,-4.0,-1.0,-2.0,0.0,1651087281433307.0,0
1402,0.0,-3.0,1.0,29.0,25.0,10.0,3.0,3.0,1651087281434168.0,0
1403,1.0,11.0,-6.0,-10.0,35.0,22.0,3.0,1.0,1651087281434168.0,0
1404,0.0,-13.0,-4.0,0.0,-23.0,-13.0,-5.0,-2.0,1651087281455644.0,0
1405,-1.0,2.0,-4.0,-11.0,3.0,-7.0,-2.0,0.0,1651087281455644.0,0
1406,1.0,2.0,10.0,4.0,-13.0,-3.0,2.0,1.0,1651087281456527.0,0
1407,-2.0,-7.0,-8.0,9.0,9.0,8.0,-1.0,-1.0,1651087281456527.0,0
1408,3.0,8.0,10.0,9.0,23.0,9.0,6.0,2.0,1651087281477352.0,0
1409,-3.0,-2.0,-4.0,-13.0,-28.0,-12.0,-2.0,-3.0,1651087281477352.0,0
1410,1.0,-1.0,1.0,-7.0,-7.0,-6.0,-3.0,-2.0,1651087281479199.0,0
1411,-5.0,2.0,0.0,-2.0,19.0,7.0,3.0,2.0,1651087281479199.0,0
1412,6.0,8.0,7.0,-3.0,-8.0,1.0,1.0,1.0,1651087281491198.0,0
1413,6.0,-9.0,-3.0,7.0,2.0,-1.0,-2.0,1.0,1651087281491198.0,0
1414,8.0,6.0,-2.0,-6.0,-15.0,-11.0,-2.0,-2.0,1651087281498179.0,0
1415,-3.0,-28.0,-12.0,-20.0,-8.0,-5.0,-1.0,-3.0,1651087281498179.0,0
1416,0.0,0.0,4.0,-21.0,-12.0,4.0,3.0,1.0,1651087281515198.0,0
1417,-10.0,8.0,5.0,38.0,24.0,3.0,1.0,-4.0,1651087281515198.0,0
1418,5.0,-1.0,-8.0,-1.0,2.0,3.0,-1.0,-1.0,1651087281516087.0,0
1419,6.0,7.0,0.0,-1.0,-16.0,-10.0,-5.0,-4.0,1651087281516087.0,0
1420,1.0,3.0,3.0,16.0,0.0,-11.0,-2.0,1.0,1651087281537859.0,0
1421,-3.0,2.0,1.0,-19.0,13.0,13.0,3.0,1.0,1651087281537859.0,0
1422,-3.0,-5.0,3.0,0.0,-23.0,-9.0,-3.0,-3.0,1651087281538860.0,0
1423,6.0,-5.0,7.0,11.0,11.0,7.0,8.0,8.0,1651087281538860.0,0
1424,1.0,2.0,-21.0,-9.0,1.0,-2.0,-4.0,-3.0,1651087281552144.0,0
1425,1.0,2.0,-5.0,-4.0,-11.0,-2.0,-2.0,-2.0,1651087281552144.0,0
1426,6.0,2.0,-1.0,13.0,8.0,1.0,1.0,-1.0,1651087281558989.0,0
1427,0.0,-10.0,7.0,7.0,-3.0,-3.0,0.0,3.0,1651087281558989.0,0
1428,-5.0,4.0,8.0,2.0,1.0,1.0,0.0,-1.0,1651087281575346.0,0
1429,-15.0,6.0,-5.0,-7.0,-14.0,-6.0,-3.0,-2.0,1651087281575346.0,0
1430,-3.0,-11.0,-2.0,1.0,15.0,6.0,2.0,1.0,1651087281576205.0,0
1431,8.0,28.0,0.0,-2.0,-2.0,-3.0,-1.0,1.0,1651087281576205.0,0
1432,11.0,-12.0,3.0,-10.0,-15.0,-4.0,-2.0,-3.0,1651087281599070.0,0
1433,-5.0,15.0,8.0,21.0,18.0,7.0,0.0,0.0,1651087281599070.0,0
1434,-5.0,-40.0,-15.0,-21.0,2.0,3.0,-1.0,2.0,1651087281600072.0,0
1435,-6.0,9.0,-2.0,5.0,4.0,0.0,-2.0,-6.0,1651087281600072.0,0
1436,7.0,25.0,4.0,1.0,2.0,1.0,0.0,3.0,1651087281612215.0,0
1437,54.0,4.0,-11.0,-19.0,-21.0,-10.0,-2.0,1.0,1651087281612215.0,0
1438,-36.0,-21.0,6.0,15.0,11.0,-3.0,-7.0,-9.0,1651087281618188.0,0
1439,6.0,-3.0,-3.0,7.0,-3.0,-1.0,1.0,2.0,1651087281618188.0,3
1440,11.0,-13.0,0.0,-14.0,-6.0,-3.0,-2.0,-3.0,1651087281635210.0,3
1441,-21.0,-7.0,-4.0,-7.0,-17.0,-3.0,2.0,2.0,1651087281635210.0,3
1442,8.0,14.0,-3.0,6.0,16.0,5.0,-1.0,-1.0,1651087281636209.0,3
1443,-15.0,17.0,15.0,-4.0,-2.0,-3.0,-3.0,-5.0,1651087281636209.0,3
1444,-24.0,1.0,-11.0,6.0,4.0,-1.0,1.0,1.0,1651087281657682.0,3
1445,-4.0,-26.0,-3.0,-11.0,-9.0,-3.0,-1.0,0.0,1651087281657682.0,3
1446,14.0,24.0,9.0,-3.0,-2.0,3.0,4.0,6.0,1651087281658683.0,3
1447,-4.0,-16.0,4.0,6.0,3.0,0.0,-1.0,0.0,1651087281658683.0,3
1448,-4.0,51.0,10.0,7.0,-21.0,-14.0,-5.0,-12.0,1651087281672159.0,3
1449,9.0,-21.0,-5.0,3.0,31.0,21.0,6.0,9.0,1651087281672159.0,3
1450,6.0,15.0,-15.0,1.0,7.0,5.0,9.0,22.0,1651087281678860.0,3
1451,10.0,4.0,6.0,-4.0,-6.0,-4.0,-2.0,-1.0,1651087281678860.0,3
1452,5.0,-8.0,4.0,-3.0,-19.0,-7.0,-15.0,-25.0,1651087281701935.0,3
1453,-10.0,-12.0,-9.0,7.0,20.0,7.0,3.0,0.0,1651087281701935.0,3
1454,-20.0,-12.0,13.0,-3.0,-8.0,-11.0,1.0,-9.0,1651087281710069.0,3
1455,-8.0,33.0,-11.0,-3.0,-4.0,12.0,11.0,22.0,1651087281710069.0,3
1456,14.0,-74.0,-16.0,1.0,9.0,-6.0,-6.0,-1.0,1651087281717865.0,3
1457,-31.0,2.0,14.0,11.0,-9.0,-10.0,-9.0,-17.0,1651087281717865.0,3
1458,21.0,-6.0,-5.0,-28.0,-26.0,-5.0,-1.0,4.0,1651087281719064.0,3
1459,-2.0,0.0,-22.0,30.0,32.0,8.0,-5.0,-24.0,1651087281719064.0,3
1460,-23.0,-7.0,11.0,-6.0,-16.0,-6.0,12.0,9.0,1651087281732399.0,3
1461,24.0,51.0,2.0,6.0,10.0,3.0,-14.0,-15.0,1651087281732399.0,3
1462,18.0,-2.0,-3.0,7.0,-8.0,-1.0,14.0,51.0,1651087281739244.0,3
1463,22.0,53.0,0.0,-19.0,-15.0,-3.0,-3.0,-36.0,1651087281739244.0,3
1464,-16.0,-76.0,-20.0,-4.0,14.0,13.0,12.0,33.0,1651087281755781.0,3
1465,-3.0,-7.0,9.0,-6.0,-2.0,-2.0,20.0,8.0,1651087281755781.0,3
1466,9.0,-43.0,-1.0,-1.0,-25.0,-14.0,-28.0,12.0,1651087281756670.0,3
1467,-27.0,11.0,8.0,9.0,13.0,4.0,3.0,13.0,1651087281756670.0,3
1468,58.0,33.0,3.0,18.0,37.0,18.0,26.0,-14.0,1651087281778030.0,3
1469,25.0,48.0,3.0,-30.0,-56.0,-19.0,0.0,13.0,1651087281778030.0,3
1470,-6.0,-57.0,-11.0,28.0,56.0,10.0,-22.0,-22.0,1651087281784175.0,3
1471,28.0,-22.0,-18.0,0.0,3.0,-2.0,11.0,24.0,1651087281784175.0,3
1472,-91.0,-42.0,30.0,1.0,19.0,15.0,-7.0,19.0,1651087281792514.0,3
1473,-19.0,-64.0,-50.0,-9.0,-6.0,-5.0,-13.0,-24.0,1651087281792514.0,3
1474,31.0,60.0,10.0,-17.0,-35.0,-15.0,7.0,-31.0,1651087281799239.0,3
1475,-9.0,16.0,24.0,20.0,-36.0,-8.0,3.0,-1.0,1651087281799239.0,3
1476,20.0,14.0,4.0,11.0,51.0,21.0,-2.0,8.0,1651087281823222.0,3
1477,-18.0,35.0,-6.0,16.0,19.0,15.0,18.0,11.0,1651087281823222.0,3
1478,-22.0,-13.0,-21.0,-26.0,-12.0,-2.0,0.0,-5.0,1651087281824247.0,3
1479,-22.0,-57.0,-3.0,-13.0,-10.0,-12.0,-6.0,9.0,1651087281824247.0,3
1480,1.0,27.0,0.0,-14.0,-41.0,-20.0,-10.0,-5.0,1651087281837690.0,3
1481,13.0,-17.0,1.0,16.0,8.0,8.0,9.0,-15.0,1651087281837690.0,3
1482,-18.0,-44.0,10.0,-12.0,-4.0,-9.0,-7.0,-23.0,1651087281838690.0,3
1483,45.0,44.0,2.0,19.0,38.0,21.0,29.0,62.0,1651087281838690.0,3
1484,-21.0,-49.0,-15.0,-9.0,-16.0,-7.0,-22.0,-20.0,1651087281851797.0,3
1485,6.0,4.0,18.0,1.0,-5.0,-7.0,29.0,26.0,1651087281851797.0,3
1486,13.0,61.0,18.0,9.0,13.0,20.0,8.0,-14.0,1651087281860111.0,3
1487,7.0,-93.0,-3.0,-19.0,-19.0,-16.0,-5.0,-28.0,1651087281860111.0,3
1488,-37.0,33.0,8.0,8.0,-6.0,-3.0,-5.0,20.0,1651087281874364.0,3
1489,-2.0,-16.0,0.0,2.0,22.0,8.0,0.0,4.0,1651087281874364.0,3
1490,-3.0,52.0,13.0,-7.0,-18.0,-4.0,1.0,-4.0,1651087281881350.0,3
1491,3.0,15.0,-1.0,-48.0,-51.0,-16.0,-9.0,-2.0,1651087281881350.0,3
1492,54.0,28.0,-12.0,23.0,43.0,10.0,8.0,-4.0,1651087281897223.0,3
1493,-65.0,6.0,10.0,-9.0,-14.0,-14.0,-40.0,-51.0,1651087281897223.0,3
1494,30.0,95.0,5.0,31.0,22.0,3.0,-5.0,68.0,1651087281899238.0,3
1495,5.0,18.0,8.0,-15.0,1.0,7.0,12.0,5.0,1651087281899238.0,3
1496,-56.0,7.0,-16.0,-24.0,-37.0,-18.0,-10.0,-25.0,1651087281911369.0,3
1497,-4.0,-3.0,2.0,28.0,65.0,17.0,0.0,27.0,1651087281911369.0,3
1498,-14.0,-32.0,1.0,-11.0,-13.0,-6.0,-16.0,-73.0,1651087281919677.0,3
1499,-18.0,-3.0,-7.0,-16.0,-10.0,-4.0,-5.0,10.0,1651087281919677.0,3
1500,15.0,24.0,14.0,11.0,-7.0,7.0,40.0,26.0,1651087281935394.0,3
1501,68.0,53.0,-16.0,6.0,-23.0,-21.0,-21.0,-13.0,1651087281935394.0,3
1502,-86.0,-9.0,2.0,-34.0,-8.0,12.0,-1.0,-32.0,1651087281936227.0,3
1503,-4.0,-4.0,-24.0,21.0,42.0,11.0,22.0,13.0,1651087281936227.0,3
1504,18.0,27.0,26.0,25.0,13.0,9.0,-4.0,8.0,1651087281958491.0,3
1505,33.0,60.0,26.0,-19.0,-16.0,-17.0,-17.0,-35.0,1651087281958491.0,3
1506,-38.0,-77.0,-24.0,13.0,5.0,6.0,12.0,49.0,1651087281958639.0,3
1507,-37.0,-103.0,-23.0,-18.0,0.0,-6.0,-13.0,-16.0,1651087281958639.0,3
1508,11.0,56.0,-6.0,-15.0,-20.0,-6.0,-8.0,-6.0,1651087281971947.0,3
1509,3.0,0.0,18.0,7.0,-1.0,0.0,1.0,-1.0,1651087281971947.0,3
1510,-18.0,5.0,-10.0,-5.0,25.0,13.0,19.0,-7.0,1651087281980107.0,3
1511,38.0,36.0,16.0,20.0,-9.0,-4.0,-30.0,-29.0,1651087281980107.0,3
1512,14.0,20.0,7.0,-18.0,-13.0,-7.0,2.0,-28.0,1651087281995399.0,3
1513,16.0,-95.0,-43.0,5.0,7.0,10.0,46.0,36.0,1651087281995399.0,3
1514,2.0,-34.0,8.0,1.0,-5.0,-12.0,-20.0,-4.0,1651087281996236.0,3
1515,33.0,23.0,-13.0,-2.0,-7.0,-1.0,6.0,11.0,1651087281996236.0,3
1516,8.0,-6.0,13.0,-35.0,-20.0,-11.0,-17.0,-27.0,1651087282018215.0,3
1517,-29.0,-12.0,-5.0,30.0,-6.0,0.0,-13.0,-38.0,1651087282018215.0,3
1518,53.0,22.0,17.0,7.0,27.0,17.0,5.0,29.0,1651087282019046.0,3
1519,-43.0,-8.0,3.0,2.0,-1.0,-4.0,8.0,37.0,1651087282019046.0,3
1520,0.0,16.0,4.0,-3.0,1.0,-1.0,-28.0,-17.0,1651087282031367.0,3
1521,-10.0,-13.0,7.0,-10.0,1.0,5.0,5.0,8.0,1651087282031367.0,3
1522,52.0,63.0,-34.0,-13.0,-16.0,-15.0,-8.0,-9.0,1651087282040330.0,3
1523,12.0,37.0,33.0,65.0,44.0,12.0,-10.0,-12.0,1651087282040330.0,3
1524,12.0,-57.0,-18.0,-6.0,28.0,8.0,18.0,34.0,1651087282062893.0,3
1525,-59.0,-11.0,-15.0,-24.0,-31.0,-4.0,3.0,-5.0,1651087282062893.0,3
1526,-33.0,-77.0,25.0,4.0,-16.0,-2.0,9.0,-23.0,1651087282064060.0,3
1527,24.0,89.0,18.0,0.0,11.0,3.0,4.0,14.0,1651087282064060.0,3
1528,36.0,17.0,-14.0,21.0,16.0,18.0,40.0,26.0,1651087282078004.0,3
1529,11.0,43.0,13.0,-26.0,-21.0,-17.0,-34.0,-16.0,1651087282078004.0,3
1530,-54.0,-28.0,15.0,1.0,-15.0,-7.0,-7.0,-5.0,1651087282079004.0,3
1531,19.0,-45.0,-50.0,-49.0,-37.0,-13.0,-6.0,16.0,1651087282079004.0,3
1532,-12.0,-58.0,5.0,50.0,53.0,11.0,33.0,4.0,1651087282091354.0,3
1533,-62.0,32.0,2.0,-23.0,7.0,-5.0,-36.0,-20.0,1651087282091354.0,3
1534,52.0,26.0,-11.0,10.0,6.0,1.0,4.0,52.0,1651087282100697.0,3
1535,13.0,23.0,9.0,-9.0,-15.0,-2.0,2.0,-14.0,1651087282100697.0,3
1536,-58.0,-42.0,-35.0,-17.0,-26.0,-14.0,-44.0,-24.0,1651087282115222.0,3
1537,48.0,-23.0,-2.0,-6.0,7.0,4.0,10.0,14.0,1651087282115222.0,3
1538,23.0,78.0,7.0,17.0,8.0,-1.0,5.0,16.0,1651087282116088.0,3
1539,-27.0,-102.0,-23.0,-6.0,-7.0,-1.0,0.0,-15.0,1651087282116088.0,3
1540,48.0,25.0,10.0,-22.0,-36.0,-10.0,-16.0,-10.0,1651087282137409.0,3
1541,-41.0,-6.0,-6.0,20.0,19.0,5.0,-6.0,10.0,1651087282137409.0,3
1542,-19.0,-7.0,13.0,30.0,20.0,8.0,12.0,-12.0,1651087282139408.0,3
1543,-49.0,-60.0,-4.0,-14.0,-4.0,0.0,-12.0,-40.0,1651087282139408.0,3
1544,-7.0,63.0,21.0,8.0,-26.0,-9.0,5.0,10.0,1651087282151402.0,3
1545,71.0,-20.0,-1.0,7.0,2.0,9.0,10.0,32.0,1651087282151402.0,3
1546,8.0,-25.0,-6.0,-16.0,-21.0,-22.0,-9.0,17.0,1651087282159853.0,3
1547,-36.0,39.0,14.0,22.0,43.0,17.0,-13.0,-45.0,1651087282159853.0,3
1548,52.0,66.0,-4.0,-22.0,-11.0,-3.0,-8.0,4.0,1651087282175367.0,3
1549,-37.0,-14.0,1.0,11.0,-17.0,-6.0,25.0,26.0,1651087282175367.0,3
1550,40.0,31.0,-15.0,3.0,6.0,-2.0,-7.0,-11.0,1651087282176218.0,3
1551,-55.0,-47.0,3.0,11.0,12.0,10.0,4.0,-10.0,1651087282176218.0,3
1552,9.0,20.0,-2.0,-28.0,-41.0,-13.0,6.0,-38.0,1651087282197756.0,3
1553,49.0,99.0,43.0,37.0,62.0,26.0,6.0,54.0,1651087282197756.0,3
1554,-11.0,-11.0,-37.0,-5.0,2.0,-1.0,-2.0,-23.0,1651087282198756.0,3
1555,2.0,26.0,4.0,-21.0,-18.0,-12.0,-5.0,-16.0,1651087282198756.0,3
1556,52.0,51.0,17.0,48.0,40.0,18.0,15.0,28.0,1651087282211061.0,3
1557,-47.0,-113.0,-19.0,-29.0,-25.0,-15.0,-25.0,-11.0,1651087282211061.0,3
1558,-10.0,23.0,0.0,-2.0,-4.0,-10.0,-42.0,-57.0,1651087282219884.0,3
1559,74.0,105.0,18.0,-16.0,-34.0,-3.0,19.0,35.0,1651087282219884.0,3
1560,-41.0,-76.0,-13.0,16.0,40.0,11.0,1.0,28.0,1651087282235225.0,3
1561,38.0,89.0,-3.0,-5.0,-12.0,-2.0,12.0,13.0,1651087282235225.0,3
1562,3.0,-29.0,2.0,-5.0,-33.0,-11.0,-9.0,-34.0,1651087282236065.0,3
1563,17.0,9.0,-18.0,-23.0,-12.0,-3.0,-6.0,-11.0,1651087282236065.0,3
1564,-55.0,-50.0,1.0,-10.0,6.0,3.0,-17.0,9.0,1651087282258226.0,3
1565,6.0,27.0,1.0,4.0,11.0,8.0,38.0,16.0,1651087282258226.0,3
1566,25.0,-93.0,-2.0,-24.0,-31.0,-9.0,-6.0,5.0,1651087282259072.0,3
1567,34.0,90.0,12.0,45.0,23.0,3.0,12.0,31.0,1651087282259072.0,3
1568,-20.0,-26.0,-1.0,3.0,-3.0,-6.0,-9.0,-9.0,1651087282279282.0,3
1569,-12.0,8.0,-10.0,-17.0,-6.0,0.0,-7.0,-28.0,1651087282279282.0,3
1570,-12.0,-11.0,-23.0,-13.0,-28.0,-2.0,-3.0,16.0,1651087282288016.0,3
1571,-14.0,-55.0,18.0,54.0,58.0,18.0,1.0,11.0,1651087282288016.0,3
1572,-17.0,-18.0,1.0,-33.0,-31.0,-14.0,-10.0,-25.0,1651087282295145.0,3
1573,-23.0,21.0,1.0,38.0,40.0,18.0,24.0,-3.0,1651087282295145.0,3
1574,7.0,-17.0,-1.0,-7.0,32.0,10.0,19.0,32.0,1651087282296031.0,3
1575,-6.0,12.0,-1.0,-4.0,-21.0,-16.0,-15.0,-10.0,1651087282296031.0,3
1576,47.0,120.0,26.0,10.0,-6.0,-2.0,0.0,-10.0,1651087282318089.0,3
1577,37.0,-57.0,15.0,-15.0,-25.0,-8.0,-13.0,-25.0,1651087282318089.0,3
1578,30.0,7.0,3.0,9.0,27.0,10.0,4.0,6.0,1651087282319088.0,3
1579,-53.0,-48.0,9.0,17.0,10.0,8.0,20.0,21.0,1651087282319088.0,3
1580,10.0,85.0,-21.0,-23.0,-3.0,-6.0,-17.0,-28.0,1651087282340349.0,3
1581,5.0,-35.0,-6.0,16.0,-5.0,-6.0,-11.0,0.0,1651087282340349.0,3
1582,0.0,20.0,5.0,14.0,29.0,13.0,27.0,3.0,1651087282341318.0,3
1583,-5.0,-18.0,-8.0,-17.0,-26.0,-13.0,-10.0,-21.0,1651087282341318.0,3
1584,47.0,-25.0,10.0,2.0,-19.0,-2.0,-1.0,-12.0,1651087282355534.0,3
1585,-25.0,-56.0,-29.0,-21.0,7.0,-8.0,-29.0,-19.0,1651087282355534.0,3
1586,9.0,15.0,-3.0,16.0,4.0,9.0,26.0,52.0,1651087282356380.0,3
1587,23.0,95.0,12.0,-7.0,-5.0,3.0,-9.0,-35.0,1651087282356380.0,3
1588,-57.0,-43.0,-2.0,8.0,3.0,6.0,20.0,6.0,1651087282377331.0,3
1589,-14.0,7.0,-2.0,3.0,-15.0,-8.0,-3.0,22.0,1651087282377331.0,3
1590,25.0,78.0,17.0,-10.0,12.0,5.0,-20.0,-47.0,1651087282379191.0,3
1591,-8.0,-18.0,-10.0,-18.0,-14.0,-5.0,5.0,3.0,1651087282379191.0,3
1592,-54.0,-112.0,-25.0,2.0,10.0,3.0,3.0,11.0,1651087282400343.0,3
1593,48.0,26.0,3.0,-32.0,-46.0,-8.0,3.0,11.0,1651087282400343.0,3
1594,-7.0,59.0,15.0,30.0,27.0,4.0,4.0,-8.0,1651087282401211.0,3
1595,-19.0,-23.0,-27.0,-18.0,-12.0,6.0,3.0,14.0,1651087282401211.0,3
1596,44.0,35.0,6.0,3.0,9.0,-4.0,9.0,2.0,1651087282413738.0,3
1597,2.0,91.0,7.0,-32.0,-32.0,-12.0,5.0,23.0,1651087282413738.0,3
1598,-80.0,-47.0,-15.0,-21.0,-4.0,-8.0,-27.0,-51.0,1651087282421618.0,3
1599,-2.0,36.0,3.0,20.0,17.0,0.0,7.0,27.0,1651087282421618.0,3
1600,11.0,27.0,12.0,-6.0,23.0,4.0,-11.0,-32.0,1651087282438320.0,3
1601,-22.0,-73.0,-21.0,21.0,23.0,10.0,5.0,25.0,1651087282438320.0,3
1602,8.0,11.0,12.0,4.0,3.0,-1.0,1.0,-6.0,1651087282439212.0,3
1603,21.0,10.0,3.0,-10.0,-7.0,-6.0,4.0,0.0,1651087282439212.0,3
1604,-13.0,3.0,-9.0,-7.0,-7.0,0.0,-1.0,1.0,1651087282460351.0,3
1605,6.0,-27.0,14.0,-27.0,-21.0,-8.0,-27.0,-48.0,1651087282460351.0,3
1606,-17.0,-17.0,-2.0,21.0,22.0,12.0,29.0,29.0,1651087282461212.0,3
1607,16.0,-41.0,6.0,4.0,1.0,-5.0,-22.0,-22.0,1651087282461212.0,3
1608,-50.0,-53.0,-16.0,-1.0,1.0,-1.0,-1.0,54.0,1651087282474355.0,3
1609,51.0,58.0,16.0,-7.0,3.0,5.0,0.0,-25.0,1651087282474355.0,3
1610,-30.0,-5.0,-11.0,-12.0,-20.0,-18.0,-2.0,0.0,1651087282481619.0,3
1611,10.0,50.0,9.0,-3.0,8.0,5.0,15.0,13.0,1651087282481619.0,3
1612,54.0,48.0,11.0,-8.0,-14.0,3.0,3.0,-2.0,1651087282497836.0,3
1613,-78.0,-70.0,-32.0,22.0,31.0,4.0,-14.0,-6.0,1651087282497836.0,3
1614,-16.0,25.0,-12.0,-4.0,0.0,3.0,3.0,11.0,1651087282498836.0,3
1615,46.0,56.0,23.0,-24.0,-10.0,-7.0,-3.0,-1.0,1651087282498836.0,3
1616,8.0,51.0,-6.0,26.0,9.0,0.0,-8.0,-24.0,1651087282520317.0,3
1617,-1.0,-31.0,7.0,-1.0,-21.0,-3.0,12.0,-30.0,1651087282520317.0,3
1618,35.0,33.0,1.0,20.0,31.0,8.0,10.0,36.0,1651087282521178.0,3
1619,-57.0,-128.0,-32.0,-18.0,-14.0,-9.0,-27.0,-24.0,1651087282521178.0,3
1620,-2.0,36.0,16.0,-9.0,-26.0,-4.0,25.0,38.0,1651087282534383.0,3
1621,-69.0,-73.0,-29.0,-23.0,-13.0,-14.0,-21.0,-22.0,1651087282534383.0,3
1622,9.0,7.0,-2.0,24.0,16.0,8.0,-6.0,-14.0,1651087282541408.0,3
1623,33.0,43.0,-14.0,4.0,3.0,2.0,-18.0,-27.0,1651087282541408.0,3
1624,-53.0,-4.0,2.0,-3.0,2.0,-2.0,31.0,51.0,1651087282558684.0,3
1625,-32.0,3.0,27.0,20.0,-13.0,-3.0,-1.0,-12.0,1651087282558684.0,3
1626,6.0,32.0,7.0,-18.0,-20.0,-2.0,-7.0,16.0,1651087282559075.0,3
1627,10.0,-42.0,-11.0,-39.0,-20.0,-2.0,0.0,-8.0,1651087282559075.0,3
1628,-14.0,-92.0,4.0,46.0,29.0,3.0,-15.0,-18.0,1651087282579595.0,3
1629,2.0,-17.0,-16.0,14.0,-1.0,6.0,35.0,46.0,1651087282579595.0,3
1630,51.0,29.0,5.0,-7.0,-5.0,-5.0,-18.0,-17.0,1651087282581583.0,3
1631,-70.0,8.0,14.0,-8.0,-28.0,-4.0,27.0,0.0,1651087282581583.0,3
1632,29.0,-39.0,-9.0,-11.0,18.0,5.0,-1.0,30.0,1651087282594378.0,3
1633,42.0,42.0,18.0,40.0,45.0,21.0,13.0,-27.0,1651087282594378.0,3
1634,-5.0,34.0,6.0,-25.0,-19.0,-5.0,-11.0,25.0,1651087282601357.0,3
1635,-14.0,-68.0,-21.0,-18.0,-22.0,-15.0,-10.0,0.0,1651087282601357.0,3
1636,-5.0,-62.0,14.0,30.0,-3.0,-3.0,1.0,-13.0,1651087282618209.0,3
1637,45.0,28.0,-18.0,-22.0,-1.0,3.0,9.0,2.0,1651087282618209.0,3
1638,-36.0,-18.0,7.0,-15.0,-27.0,-11.0,-20.0,-13.0,1651087282619052.0,3
1639,5.0,57.0,20.0,16.0,20.0,4.0,-7.0,-3.0,1651087282619052.0,3
1640,102.0,59.0,-35.0,-47.0,-54.0,-13.0,15.0,50.0,1651087282640387.0,3
1641,-53.0,-23.0,18.0,23.0,44.0,17.0,-6.0,8.0,1651087282640387.0,3
1642,6.0,6.0,-7.0,4.0,-11.0,-4.0,19.0,-26.0,1651087282641235.0,3
1643,-32.0,-32.0,-14.0,3.0,8.0,-3.0,-3.0,35.0,1651087282641235.0,3
1644,18.0,83.0,26.0,12.0,10.0,4.0,-25.0,-52.0,1651087282654575.0,3
1645,48.0,20.0,-15.0,-37.0,-43.0,-14.0,5.0,5.0,1651087282654575.0,3
1646,-19.0,-64.0,-10.0,23.0,34.0,5.0,13.0,16.0,1651087282662066.0,3
1647,32.0,98.0,13.0,41.0,21.0,-2.0,-7.0,-6.0,1651087282662066.0,3
1648,-67.0,-35.0,-17.0,-11.0,-11.0,-2.0,2.0,-26.0,1651087282677955.0,3
1649,14.0,64.0,3.0,-12.0,-3.0,-4.0,-27.0,11.0,1651087282677955.0,3
1650,10.0,-8.0,-3.0,-21.0,-24.0,-9.0,10.0,-57.0,1651087282678955.0,3
1651,45.0,-9.0,5.0,35.0,26.0,15.0,23.0,69.0,1651087282678955.0,3
1652,21.0,26.0,26.0,-5.0,8.0,9.0,7.0,12.0,1651087282700128.0,3
1653,32.0,-17.0,-18.0,-35.0,-32.0,-16.0,-23.0,-15.0,1651087282700128.0,3
1654,-33.0,7.0,7.0,26.0,18.0,3.0,-14.0,-2.0,1651087282700969.0,3
1655,10.0,10.0,15.0,8.0,13.0,9.0,25.0,20.0,1651087282700969.0,3
1656,-12.0,-41.0,-9.0,-20.0,-20.0,-16.0,-12.0,11.0,1651087282714194.0,3
1657,-20.0,-42.0,10.0,22.0,15.0,4.0,4.0,-13.0,1651087282714194.0,3
1658,-7.0,13.0,3.0,-28.0,-9.0,9.0,13.0,3.0,1651087282721412.0,3
1659,1.0,-7.0,-28.0,19.0,7.0,-3.0,-15.0,-22.0,1651087282721412.0,3
1660,-15.0,-4.0,-11.0,-12.0,-3.0,-7.0,-14.0,-7.0,1651087282745405.0,3
1661,22.0,60.0,23.0,-6.0,-25.0,-8.0,-5.0,1.0,1651087282745405.0,3
1662,-16.0,-37.0,1.0,7.0,13.0,0.0,3.0,-3.0,1651087282746237.0,3
1663,25.0,-20.0,1.0,-24.0,-33.0,-15.0,-17.0,-56.0,1651087282746237.0,3
1664,4.0,-31.0,-1.0,12.0,20.0,12.0,12.0,19.0,1651087282760402.0,3
1665,7.0,24.0,-10.0,3.0,11.0,1.0,-3.0,-17.0,1651087282760402.0,3
1666,10.0,13.0,9.0,1.0,-17.0,-5.0,12.0,44.0,1651087282761240.0,3
1667,-19.0,-23.0,-1.0,-7.0,4.0,7.0,-6.0,-31.0,1651087282761240.0,3
1668,-16.0,13.0,-12.0,-1.0,-12.0,-13.0,-26.0,-26.0,1651087282774338.0,3
1669,-1.0,-8.0,-35.0,-2.0,16.0,1.0,11.0,29.0,1651087282774338.0,3
1670,15.0,-3.0,20.0,2.0,-7.0,0.0,1.0,-7.0,1651087282782357.0,3
1671,-8.0,24.0,11.0,-4.0,-6.0,-1.0,-5.0,8.0,1651087282782357.0,3
1672,8.0,21.0,3.0,-5.0,-20.0,2.0,-4.0,-30.0,1651087282797798.0,3
1673,-27.0,-15.0,24.0,44.0,52.0,13.0,11.0,49.0,1651087282797798.0,3
1674,7.0,-4.0,-16.0,2.0,-18.0,-11.0,-7.0,-6.0,1651087282798798.0,3
1675,1.0,0.0,-24.0,-10.0,4.0,3.0,9.0,10.0,1651087282798798.0,3
1676,-12.0,2.0,4.0,-5.0,-9.0,-4.0,-3.0,-10.0,1651087282820335.0,3
1677,11.0,4.0,-4.0,-20.0,-20.0,-4.0,-1.0,-16.0,1651087282820335.0,3
1678,6.0,-11.0,29.0,20.0,6.0,5.0,4.0,10.0,1651087282821146.0,3
1679,-3.0,4.0,0.0,1.0,-6.0,-4.0,-3.0,6.0,1651087282821146.0,3
1680,-11.0,4.0,10.0,10.0,7.0,-3.0,-2.0,-6.0,1651087282834398.0,3
1681,-1.0,5.0,0.0,-11.0,0.0,-3.0,-1.0,-1.0,1651087282834398.0,3
1682,-1.0,-12.0,-6.0,-5.0,0.0,3.0,-1.0,5.0,1651087282842370.0,3
1683,-5.0,-7.0,3.0,-4.0,-6.0,7.0,0.0,1.0,1651087282842370.0,3
1684,-8.0,-2.0,-7.0,7.0,14.0,-4.0,-6.0,-11.0,1651087282857378.0,3
1685,4.0,8.0,14.0,7.0,1.0,-4.0,4.0,6.0,1651087282857378.0,3
1686,1.0,-2.0,-30.0,-19.0,-9.0,9.0,-9.0,-6.0,1651087282859244.0,3
1687,4.0,-8.0,-2.0,-3.0,-4.0,-19.0,-12.0,9.0,1651087282859244.0,3
1688,2.0,4.0,-1.0,4.0,12.0,15.0,8.0,10.0,1651087282880253.0,3
1689,-4.0,2.0,21.0,13.0,1.0,-6.0,1.0,-5.0,1651087282880253.0,3
1690,1.0,-24.0,-4.0,-6.0,-10.0,-12.0,-5.0,-23.0,1651087282881226.0,3
1691,9.0,34.0,0.0,1.0,6.0,0.0,-8.0,-32.0,1651087282881226.0,3
1692,-10.0,-21.0,-16.0,-4.0,-2.0,-4.0,15.0,33.0,1651087282893224.0,3
1693,11.0,0.0,2.0,4.0,0.0,3.0,7.0,20.0,1651087282893224.0,3
1694,-3.0,-10.0,-7.0,-12.0,-7.0,2.0,9.0,-25.0,1651087282902187.0,3
1695,-5.0,-20.0,6.0,25.0,26.0,7.0,8.0,30.0,1651087282902187.0,3
1696,-2.0,17.0,1.0,-4.0,-5.0,-1.0,-3.0,-26.0,1651087282917198.0,3
1697,12.0,24.0,-4.0,1.0,-1.0,5.0,-5.0,-15.0,1651087282917198.0,3
1698,-7.0,-6.0,1.0,5.0,9.0,3.0,2.0,22.0,1651087282919083.0,3
1699,0.0,-2.0,1.0,-14.0,-17.0,-10.0,-8.0,-14.0,1651087282919083.0,3
1700,0.0,2.0,-5.0,2.0,4.0,1.0,0.0,5.0,1651087282940356.0,3
1701,-11.0,-14.0,0.0,4.0,-2.0,-3.0,4.0,5.0,1651087282940356.0,3
1702,6.0,14.0,3.0,-5.0,-8.0,-5.0,-13.0,4.0,1651087282941210.0,3
1703,-7.0,-12.0,-26.0,-17.0,-6.0,2.0,9.0,6.0,1651087282941210.0,3
1704,2.0,-7.0,12.0,18.0,12.0,12.0,4.0,-2.0,1651087282953645.0,3
1705,-5.0,6.0,10.0,-1.0,-6.0,-4.0,-1.0,-9.0,1651087282953645.0,3
1706,4.0,4.0,2.0,3.0,1.0,-10.0,-7.0,3.0,1651087282968955.0,3
1707,-1.0,2.0,4.0,-3.0,5.0,10.0,-3.0,-3.0,1651087282968955.0,3
1708,0.0,2.0,-16.0,0.0,1.0,-4.0,9.0,16.0,1651087282976203.0,3
1709,-5.0,-4.0,-9.0,-14.0,-5.0,-2.0,-5.0,-36.0,1651087282976203.0,3
1710,-2.0,3.0,-3.0,4.0,0.0,12.0,9.0,10.0,1651087282992190.0,3
1711,0.0,-5.0,10.0,5.0,-6.0,-7.0,-7.0,3.0,1651087282992190.0,3
1712,-3.0,6.0,-5.0,-5.0,0.0,-6.0,-1.0,-6.0,1651087283000214.0,3
1713,-4.0,-6.0,-5.0,-4.0,-1.0,3.0,8.0,-2.0,1651087283000214.0,3
1714,3.0,3.0,1.0,0.0,1.0,-1.0,1.0,10.0,1651087283001097.0,3
1715,-1.0,1.0,0.0,7.0,1.0,-5.0,-9.0,-6.0,1651087283001097.0,3
1716,-8.0,-2.0,13.0,-3.0,0.0,4.0,-2.0,-4.0,1651087283013212.0,3
1717,2.0,-1.0,0.0,2.0,-1.0,2.0,6.0,2.0,1651087283013212.0,3
1718,-3.0,3.0,-13.0,-6.0,2.0,-5.0,0.0,2.0,1651087283022219.0,3
1719,-4.0,-6.0,16.0,-5.0,-7.0,4.0,0.0,3.0,1651087283022219.0,3
1720,1.0,2.0,8.0,-1.0,5.0,-4.0,-8.0,13.0,1651087283037376.0,3
1721,0.0,-2.0,3.0,18.0,12.0,4.0,-15.0,-8.0,1651087283037376.0,3
1722,-3.0,2.0,17.0,4.0,-5.0,-4.0,9.0,21.0,1651087283039372.0,3
1723,-6.0,-1.0,-30.0,-15.0,-3.0,6.0,4.0,-11.0,1651087283039372.0,3
1724,-2.0,-6.0,-16.0,-10.0,-10.0,-7.0,-8.0,-23.0,1651087283059586.0,3
1725,-6.0,6.0,10.0,2.0,-4.0,-8.0,1.0,14.0,1651087283059586.0,3
1726,-1.0,-1.0,-6.0,1.0,0.0,14.0,3.0,-21.0,1651087283061433.0,3
1727,-16.0,-10.0,16.0,-11.0,-6.0,-3.0,3.0,31.0,1651087283061433.0,3
1728,3.0,-1.0,-2.0,1.0,3.0,-3.0,-3.0,-20.0,1651087283073215.0,3
1729,4.0,4.0,17.0,19.0,1.0,-2.0,0.0,25.0,1651087283073215.0,3
1730,8.0,3.0,-10.0,22.0,6.0,0.0,-7.0,-25.0,1651087283082194.0,3
1731,-4.0,-6.0,-26.0,-37.0,-8.0,0.0,8.0,4.0,1651087283082194.0,3
1732,2.0,-3.0,-14.0,-13.0,-10.0,-6.0,-8.0,15.0,1651087283097813.0,3
1733,1.0,-5.0,6.0,-3.0,3.0,3.0,7.0,4.0,1651087283097813.0,3
1734,-3.0,4.0,13.0,11.0,4.0,1.0,-1.0,-1.0,1651087283098813.0,3
1735,10.0,1.0,28.0,15.0,-4.0,-2.0,1.0,-3.0,1651087283098813.0,3
1736,-4.0,4.0,-15.0,-8.0,3.0,1.0,-3.0,0.0,1651087283120092.0,3
1737,2.0,3.0,10.0,7.0,1.0,3.0,2.0,-4.0,1651087283120092.0,3
1738,-2.0,4.0,16.0,5.0,-5.0,-5.0,1.0,14.0,1651087283121091.0,3
1739,4.0,1.0,-32.0,-15.0,2.0,-3.0,-4.0,-24.0,1651087283121091.0,3
1740,-7.0,-1.0,11.0,17.0,5.0,4.0,2.0,3.0,1651087283134390.0,3
1741,-11.0,-1.0,-15.0,-1.0,-4.0,2.0,-1.0,-4.0,1651087283134390.0,3
1742,9.0,-7.0,4.0,-9.0,-4.0,-8.0,-4.0,-6.0,1651087283142205.0,3
1743,-1.0,3.0,12.0,11.0,1.0,-4.0,-2.0,12.0,1651087283142205.0,3
1744,3.0,-3.0,-7.0,-9.0,4.0,14.0,3.0,8.0,1651087283158107.0,3
1745,19.0,3.0,-1.0,-3.0,5.0,10.0,6.0,-49.0,1651087283158107.0,3
1746,6.0,3.0,-9.0,-9.0,-6.0,-8.0,-2.0,16.0,1651087283159074.0,3
1747,7.0,-3.0,7.0,20.0,-2.0,-4.0,-9.0,-25.0,1651087283159074.0,3
1748,15.0,2.0,16.0,8.0,0.0,-7.0,-5.0,6.0,1651087283180063.0,3
1749,-4.0,-3.0,-6.0,-17.0,-7.0,-6.0,-4.0,0.0,1651087283180063.0,3
1750,-4.0,2.0,-3.0,-5.0,7.0,16.0,7.0,7.0,1651087283181097.0,3
1751,20.0,2.0,11.0,12.0,3.0,6.0,8.0,11.0,1651087283181097.0,3
1752,2.0,-3.0,19.0,16.0,0.0,-2.0,-4.0,-27.0,1651087283202210.0,3
1753,-17.0,-2.0,8.0,-3.0,-5.0,-4.0,-3.0,22.0,1651087283202210.0,3
1754,-9.0,-2.0,-6.0,-7.0,-3.0,-5.0,-3.0,8.0,1651087283204237.0,3
1755,6.0,3.0,-5.0,-1.0,0.0,-5.0,-4.0,-10.0,1651087283204237.0,3
1756,-19.0,-1.0,11.0,17.0,6.0,2.0,2.0,5.0,1651087283218296.0,3
1757,2.0,1.0,20.0,-2.0,-5.0,-2.0,0.0,4.0,1651087283218296.0,3
1758,3.0,2.0,-23.0,-13.0,0.0,1.0,-1.0,2.0,1651087283219296.0,3
1759,-4.0,-2.0,-6.0,-1.0,3.0,3.0,3.0,5.0,1651087283219296.0,3
1760,5.0,3.0,-3.0,11.0,-4.0,-1.0,5.0,18.0,1651087283240401.0,3
1761,-6.0,-2.0,-4.0,-11.0,-9.0,-2.0,-6.0,-5.0,1651087283240401.0,3
1762,-1.0,-6.0,-15.0,-6.0,6.0,-2.0,-2.0,-4.0,1651087283241239.0,3
1763,-17.0,-2.0,-21.0,-11.0,4.0,-1.0,-2.0,-16.0,1651087283241239.0,3
1764,9.0,3.0,14.0,3.0,2.0,2.0,3.0,-5.0,1651087283262798.0,3
1765,0.0,-7.0,-35.0,2.0,-4.0,-5.0,-3.0,6.0,1651087283262798.0,3
1766,-3.0,-2.0,12.0,3.0,-5.0,-4.0,-1.0,-4.0,1651087283264096.0,3
1767,1.0,4.0,14.0,7.0,-1.0,0.0,1.0,9.0,1651087283264096.0,3
1768,1.0,-1.0,-5.0,-7.0,2.0,0.0,1.0,3.0,1651087283276416.0,3
1769,2.0,11.0,0.0,-7.0,-1.0,3.0,1.0,1.0,1651087283276416.0,3
1770,1.0,-14.0,-9.0,-4.0,0.0,0.0,0.0,0.0,1651087283285222.0,3
1771,-6.0,-1.0,-9.0,0.0,-1.0,0.0,-1.0,-9.0,1651087283285222.0,3
1772,10.0,0.0,-5.0,-10.0,-4.0,-4.0,0.0,-5.0,1651087283300411.0,3
1773,-1.0,-5.0,3.0,8.0,-1.0,-2.0,-5.0,9.0,1651087283300411.0,3
1774,-5.0,5.0,16.0,9.0,-2.0,-3.0,0.0,4.0,1651087283301246.0,3
1775,-3.0,3.0,12.0,-9.0,2.0,3.0,4.0,7.0,1651087283301246.0,3
1776,8.0,-3.0,-17.0,-5.0,3.0,-1.0,-5.0,-15.0,1651087283322456.0,3
1777,-5.0,-9.0,-18.0,-6.0,-8.0,-5.0,0.0,11.0,1651087283322456.0,3
1778,0.0,3.0,22.0,6.0,3.0,2.0,-1.0,-2.0,1651087283324342.0,3
1779,-1.0,5.0,18.0,26.0,6.0,3.0,1.0,7.0,1651087283324342.0,3
1780,-5.0,-2.0,-37.0,-25.0,-9.0,-5.0,0.0,-1.0,1651087283337647.0,3
1781,-4.0,-10.0,22.0,0.0,6.0,5.0,0.0,-1.0,1651087283337647.0,3
1782,1.0,0.0,-13.0,-5.0,-1.0,-1.0,-2.0,-4.0,1651087283338542.0,3
1783,1.0,6.0,15.0,-1.0,1.0,-2.0,2.0,2.0,1651087283338542.0,3
1784,-8.0,-3.0,-10.0,-12.0,-3.0,-1.0,-1.0,3.0,1651087283360372.0,3
1785,6.0,0.0,-6.0,6.0,-1.0,-4.0,-1.0,-2.0,1651087283360372.0,3
1786,-9.0,-3.0,3.0,-4.0,-4.0,0.0,0.0,-6.0,1651087283367558.0,3
1787,-3.0,-2.0,-17.0,0.0,-2.0,-3.0,-4.0,-4.0,1651087283367558.0,3
1788,-1.0,4.0,15.0,3.0,4.0,3.0,-1.0,1.0,1651087283383169.0,3
1789,0.0,-7.0,-4.0,-3.0,-1.0,-3.0,0.0,-2.0,1651087283383169.0,3
1790,2.0,11.0,-8.0,-20.0,-5.0,-2.0,-1.0,-4.0,1651087283384201.0,3
1791,-3.0,-8.0,10.0,24.0,-2.0,-3.0,0.0,1.0,1651087283384201.0,3
1792,-5.0,-6.0,-5.0,-7.0,1.0,-1.0,-2.0,-3.0,1651087283397348.0,3
1793,2.0,8.0,-2.0,-5.0,1.0,0.0,0.0,-2.0,1651087283397348.0,3
1794,0.0,2.0,-8.0,10.0,-1.0,-3.0,0.0,-1.0,1651087283404349.0,3
1795,0.0,-15.0,-28.0,-15.0,-5.0,-1.0,-2.0,-1.0,1651087283404349.0,3
1796,-5.0,12.0,35.0,8.0,-3.0,0.0,-1.0,-3.0,1651087283420358.0,3
1797,2.0,-13.0,-32.0,-9.0,6.0,3.0,-1.0,-3.0,1651087283420358.0,3
1798,-4.0,6.0,-12.0,-10.0,-6.0,-5.0,-3.0,-4.0,1651087283421232.0,3
1799,0.0,2.0,4.0,-5.0,0.0,0.0,0.0,2.0,1651087283421232.0,3
1800,-1.0,-9.0,16.0,19.0,4.0,2.0,0.0,1.0,1651087283444354.0,3
1801,2.0,7.0,5.0,-2.0,4.0,1.0,2.0,1.0,1651087283444354.0,3
1802,-1.0,-4.0,23.0,12.0,-5.0,-6.0,-4.0,-3.0,1651087283449389.0,3
1803,-1.0,-3.0,3.0,7.0,-9.0,-5.0,0.0,-2.0,1651087283449389.0,3
1804,0.0,7.0,-24.0,-13.0,4.0,6.0,0.0,2.0,1651087283457554.0,3
1805,1.0,2.0,7.0,1.0,0.0,-3.0,-1.0,-1.0,1651087283457554.0,3
1806,2.0,-5.0,-2.0,6.0,5.0,2.0,-1.0,-1.0,1651087283463062.0,3
1807,0.0,3.0,4.0,1.0,3.0,-2.0,0.0,0.0,1651087283463062.0,3
1808,0.0,-1.0,3.0,-2.0,-4.0,2.0,1.0,0.0,1651087283480236.0,3
1809,-1.0,-2.0,-43.0,-8.0,-4.0,-2.0,-1.0,-1.0,1651087283480236.0,3
1810,-1.0,-6.0,2.0,4.0,0.0,-2.0,0.0,-1.0,1651087283481232.0,3
1811,0.0,7.0,15.0,-10.0,0.0,2.0,-1.0,1.0,1651087283481232.0,3
1812,-5.0,-6.0,-30.0,-6.0,-4.0,-5.0,-3.0,-4.0,1651087283502573.0,3
1813,0.0,3.0,23.0,17.0,4.0,0.0,2.0,-2.0,1651087283502573.0,3
1814,3.0,-3.0,-5.0,-3.0,-4.0,0.0,-1.0,0.0,1651087283503440.0,3
1815,-1.0,-4.0,-17.0,-19.0,1.0,-1.0,-1.0,-1.0,1651087283503440.0,3
1816,-1.0,1.0,12.0,15.0,0.0,0.0,-1.0,1.0,1651087283517212.0,3
1817,-2.0,5.0,6.0,-4.0,-2.0,-4.0,-2.0,-2.0,1651087283517212.0,3
1818,-1.0,-10.0,8.0,6.0,0.0,0.0,-1.0,-2.0,1651087283524197.0,3
1819,-1.0,-5.0,-9.0,-17.0,-2.0,3.0,1.0,-1.0,1651087283524197.0,3
1820,-2.0,2.0,21.0,26.0,2.0,-1.0,-1.0,0.0,1651087283540461.0,3
1821,1.0,0.0,17.0,1.0,-1.0,-2.0,-2.0,1.0,1651087283540461.0,3
1822,1.0,4.0,-11.0,-4.0,1.0,0.0,0.0,0.0,1651087283541792.0,3
1823,0.0,-3.0,-22.0,-6.0,1.0,-1.0,-1.0,-1.0,1651087283541792.0,3
1824,1.0,-2.0,-5.0,-9.0,-6.0,-1.0,1.0,-1.0,1651087283562826.0,3
1825,0.0,-1.0,-4.0,0.0,-10.0,-2.0,-1.0,0.0,1651087283562826.0,3
1826,-1.0,6.0,51.0,19.0,10.0,5.0,1.0,-1.0,1651087283563827.0,3
1827,-2.0,4.0,-16.0,-9.0,5.0,1.0,-2.0,1.0,1651087283563827.0,3
1828,0.0,-15.0,-32.0,-7.0,0.0,-2.0,0.0,0.0,1651087283576387.0,3
1829,0.0,1.0,-5.0,-14.0,-3.0,1.0,-1.0,-1.0,1651087283576387.0,3
1830,-2.0,-4.0,9.0,8.0,-7.0,-3.0,-2.0,-2.0,1651087283585237.0,3
1831,0.0,3.0,2.0,1.0,-6.0,-3.0,-1.0,0.0,1651087283585237.0,3
1832,-2.0,0.0,6.0,1.0,5.0,3.0,0.0,1.0,1651087283600734.0,3
1833,2.0,0.0,-9.0,-1.0,3.0,2.0,-1.0,0.0,1651087283600734.0,3
1834,-2.0,4.0,0.0,-4.0,-4.0,-3.0,1.0,1.0,1651087283601634.0,3
1835,-6.0,-4.0,-16.0,1.0,3.0,-1.0,-3.0,-2.0,1651087283601634.0,3
1836,1.0,-2.0,4.0,-5.0,-5.0,-3.0,-1.0,0.0,1651087283622994.0,3
1837,-2.0,-2.0,-15.0,-12.0,-8.0,-3.0,0.0,0.0,1651087283622994.0,3
1838,-1.0,2.0,1.0,5.0,2.0,1.0,0.0,0.0,1651087283624124.0,3
1839,3.0,1.0,11.0,4.0,1.0,-4.0,-1.0,-1.0,1651087283624124.0,3
1840,0.0,6.0,2.0,-2.0,2.0,0.0,-2.0,1.0,1651087283637112.0,3
1841,-4.0,-10.0,-13.0,2.0,7.0,5.0,3.0,-2.0,1651087283637112.0,3
1842,2.0,-7.0,-4.0,-13.0,0.0,1.0,-1.0,-1.0,1651087283644231.0,3
1843,0.0,2.0,12.0,18.0,-2.0,0.0,-1.0,1.0,1651087283644231.0,3
1844,0.0,-3.0,-12.0,-14.0,-4.0,-3.0,-2.0,-2.0,1651087283660353.0,3
1845,-1.0,0.0,-13.0,-6.0,-10.0,-5.0,-2.0,-1.0,1651087283660353.0,3
1846,-1.0,-11.0,-5.0,-2.0,-3.0,1.0,-1.0,-1.0,1651087283661218.0,3
1847,2.0,6.0,20.0,7.0,5.0,3.0,1.0,0.0,1651087283661218.0,3
1848,-3.0,1.0,9.0,7.0,-2.0,-4.0,-3.0,-4.0,1651087283682637.0,3
1849,-1.0,-3.0,12.0,7.0,1.0,-2.0,-1.0,0.0,1651087283682637.0,3
1850,1.0,7.0,-13.0,1.0,0.0,-1.0,1.0,-1.0,1651087283683529.0,3
1851,-1.0,-10.0,-12.0,-18.0,0.0,4.0,-1.0,-1.0,1651087283683529.0,3
1852,-1.0,3.0,6.0,8.0,0.0,2.0,2.0,0.0,1651087283695605.0,3
1853,0.0,-3.0,20.0,10.0,2.0,2.0,0.0,-1.0,1651087283695605.0,3
1854,-1.0,6.0,-41.0,-21.0,-3.0,-2.0,-1.0,1.0,1651087283705200.0,3
1855,-2.0,8.0,24.0,18.0,0.0,-2.0,1.0,0.0,1651087283705200.0,3
1856,0.0,-7.0,-22.0,-20.0,-5.0,-4.0,-2.0,2.0,1651087283728125.0,3
1857,-2.0,-2.0,-15.0,-6.0,-2.0,-4.0,-4.0,-4.0,1651087283728125.0,3
1858,1.0,3.0,18.0,6.0,4.0,4.0,2.0,2.0,1651087283729075.0,3
1859,1.0,-3.0,6.0,-5.0,0.0,2.0,1.0,1.0,1651087283729075.0,3
1860,-1.0,-1.0,-11.0,3.0,3.0,1.0,0.0,-1.0,1651087283743093.0,3
1861,-1.0,1.0,27.0,-5.0,-6.0,0.0,-1.0,-1.0,1651087283743093.0,3
1862,-2.0,-9.0,-17.0,6.0,0.0,-2.0,-2.0,-2.0,1651087283744127.0,3
1863,0.0,-8.0,-15.0,-11.0,-6.0,-2.0,-2.0,0.0,1651087283744127.0,3
1864,-1.0,6.0,5.0,-3.0,-7.0,-4.0,-4.0,-3.0,1651087283756424.0,3
1865,0.0,4.0,-5.0,-3.0,-1.0,-1.0,0.0,-2.0,1651087283756424.0,3
1866,-2.0,-4.0,-15.0,-12.0,-3.0,-2.0,-1.0,2.0,1651087283765183.0,3
1867,-1.0,2.0,14.0,5.0,7.0,9.0,1.0,1.0,1651087283765183.0,3
1868,-1.0,-2.0,2.0,7.0,4.0,0.0,0.0,1.0,1651087283780207.0,3
1869,2.0,1.0,4.0,-1.0,-2.0,-3.0,-1.0,-2.0,1651087283780207.0,3
1870,0.0,3.0,7.0,-1.0,0.0,0.0,1.0,-2.0,1651087283781205.0,3
