EMG_s0,EMG_s1,EMG_s2,EMG_s3,EMG_s4,EMG_s5,EMG_s6,EMG_s7,timestamp
0.0,2.0,7.0,0.0,-2.0,-2.0,-1.0,0.0,1651090876583819.0
-2.0,0.0,-4.0,1.0,-2.0,2.0,1.0,0.0,1651090876583819.0
-1.0,-1.0,-4.0,-4.0,-3.0,-1.0,-1.0,-2.0,1651090876584822.0
1.0,-3.0,-1.0,-2.0,-2.0,-3.0,-1.0,-1.0,1651090876584822.0
-2.0,-1.0,-3.0,2.0,2.0,2.0,1.0,-1.0,1651090876585817.0
0.0,1.0,0.0,-3.0,-1.0,-1.0,-1.0,0.0,1651090876585817.0
-1.0,-2.0,-2.0,-4.0,2.0,-1.0,-1.0,-1.0,1651090876586815.0
-3.0,-2.0,-5.0,8.0,4.0,2.0,2.0,-2.0,1651090876586815.0
-1.0,0.0,1.0,-1.0,-4.0,-1.0,0.0,-1.0,1651090876597768.0
-1.0,-1.0,-10.0,-2.0,2.0,-3.0,0.0,-1.0,1651090876597768.0
-2.0,0.0,11.0,0.0,0.0,-1.0,0.0,1.0,1651090876605938.0
0.0,1.0,-1.0,-1.0,0.0,0.0,1.0,-1.0,1651090876605938.0
1.0,-3.0,-4.0,2.0,-3.0,-2.0,-2.0,0.0,1651090876615029.0
0.0,0.0,-1.0,1.0,-2.0,-2.0,-3.0,-1.0,1651090876615029.0
-1.0,1.0,-4.0,-1.0,4.0,1.0,0.0,1.0,1651090876627851.0
-2.0,1.0,2.0,-3.0,-13.0,1.0,2.0,2.0,1651090876627851.0
0.0,0.0,2.0,3.0,3.0,2.0,1.0,1.0,1651090876639150.0
-3.0,-7.0,-19.0,0.0,5.0,0.0,-1.0,-1.0,1651090876639150.0
0.0,3.0,18.0,1.0,-20.0,2.0,0.0,0.0,1651090876650681.0
-2.0,1.0,-2.0,-4.0,2.0,-2.0,-3.0,2.0,1651090876650681.0
0.0,2.0,-1.0,-1.0,1.0,-2.0,0.0,2.0,1651090876658663.0
-1.0,1.0,1.0,0.0,1.0,0.0,1.0,-1.0,1651090876658663.0
-1.0,-3.0,-10.0,1.0,-1.0,-3.0,-1.0,-1.0,1651090876672661.0
-2.0,-1.0,2.0,-2.0,-5.0,0.0,-2.0,-3.0,1651090876672661.0
1.0,-1.0,-2.0,2.0,-6.0,-2.0,-2.0,0.0,1651090876713553.0
1.0,2.0,11.0,-2.0,-12.0,-3.0,0.0,-1.0,1651090876713553.0
-1.0,1.0,-1.0,-3.0,12.0,2.0,2.0,0.0,1651090876713553.0
-1.0,1.0,-1.0,-2.0,-4.0,-3.0,-2.0,0.0,1651090876713553.0
-2.0,-1.0,0.0,3.0,4.0,-2.0,-1.0,0.0,1651090876714518.0
-2.0,-4.0,-10.0,0.0,0.0,1.0,-1.0,0.0,1651090876714518.0
0.0,1.0,2.0,-1.0,-8.0,0.0,0.0,2.0,1651090876718502.0
0.0,0.0,6.0,-3.0,-2.0,-1.0,-1.0,0.0,1651090876718502.0
-1.0,-2.0,-6.0,-2.0,1.0,2.0,0.0,-2.0,1651090876724487.0
0.0,0.0,-1.0,3.0,7.0,2.0,1.0,-2.0,1651090876724487.0
0.0,-2.0,-1.0,-2.0,1.0,-3.0,-2.0,0.0,1651090876733470.0
0.0,-1.0,2.0,4.0,-10.0,-1.0,1.0,-1.0,1651090876733470.0
-1.0,1.0,0.0,-2.0,-4.0,-1.0,2.0,1.0,1651090876739604.0
-1.0,-1.0,-3.0,-1.0,0.0,-1.0,-2.0,0.0,1651090876739604.0
-1.0,-4.0,-1.0,-1.0,1.0,-1.0,0.0,-1.0,1651090876756472.0
-1.0,-1.0,-3.0,2.0,3.0,1.0,1.0,-2.0,1651090876756472.0
1.0,-1.0,-7.0,-3.0,-6.0,-1.0,-2.0,0.0,1651090876762638.0
-1.0,3.0,14.0,0.0,10.0,0.0,0.0,-1.0,1651090876762638.0
0.0,0.0,-7.0,2.0,1.0,0.0,0.0,-1.0,1651090876785915.0
0.0,-3.0,0.0,-1.0,-9.0,0.0,-1.0,-1.0,1651090876785915.0
0.0,0.0,-6.0,-2.0,1.0,-2.0,1.0,-1.0,1651090876786749.0
0.0,-2.0,1.0,-1.0,-6.0,-1.0,-1.0,0.0,1651090876786749.0
-1.0,-2.0,0.0,-2.0,-6.0,0.0,-1.0,-1.0,1651090876800977.0
-1.0,-2.0,0.0,3.0,6.0,-1.0,-1.0,-1.0,1651090876800977.0
0.0,1.0,2.0,0.0,10.0,-1.0,1.0,-1.0,1651090876800977.0
-1.0,-1.0,-3.0,-2.0,-2.0,0.0,-2.0,1.0,1651090876800977.0
0.0,0.0,-1.0,1.0,-26.0,0.0,0.0,-1.0,1651090876823476.0
-2.0,-2.0,-4.0,-3.0,15.0,2.0,0.0,0.0,1651090876823476.0
0.0,1.0,10.0,-3.0,-5.0,3.0,-1.0,0.0,1651090876823798.0
0.0,-2.0,-2.0,-1.0,4.0,-2.0,-1.0,-1.0,1651090876823798.0
1.0,1.0,2.0,3.0,1.0,-1.0,-2.0,-2.0,1651090876845967.0
-1.0,-2.0,-12.0,-8.0,-5.0,-2.0,1.0,-1.0,1651090876845967.0
-1.0,0.0,0.0,1.0,-4.0,-1.0,-3.0,-2.0,1651090876845967.0
0.0,-1.0,-2.0,1.0,1.0,-2.0,-1.0,-1.0,1651090876845967.0
-2.0,-1.0,-2.0,1.0,-7.0,-2.0,1.0,1.0,1651090876860927.0
1.0,5.0,11.0,-1.0,-1.0,0.0,-1.0,0.0,1651090876860927.0
0.0,-1.0,-2.0,0.0,8.0,-2.0,-1.0,-2.0,1651090876860927.0
0.0,-1.0,-2.0,-1.0,-7.0,0.0,0.0,-1.0,1651090876860927.0
-1.0,-3.0,-3.0,-1.0,6.0,1.0,-1.0,-1.0,1651090876883149.0
0.0,-1.0,-4.0,0.0,-15.0,2.0,1.0,1.0,1651090876883149.0
-1.0,2.0,13.0,-2.0,2.0,0.0,0.0,-1.0,1651090876884020.0
0.0,-2.0,-9.0,0.0,-5.0,-3.0,1.0,-1.0,1651090876884020.0
-2.0,-1.0,0.0,-2.0,2.0,-2.0,-2.0,-2.0,1651090876905248.0
-1.0,-1.0,-6.0,-4.0,9.0,0.0,-1.0,0.0,1651090876905248.0
1.0,-2.0,-2.0,5.0,-5.0,0.0,-1.0,-1.0,1651090876906244.0
0.0,2.0,2.0,0.0,-1.0,1.0,1.0,-1.0,1651090876906244.0
0.0,-2.0,-9.0,-5.0,7.0,-2.0,-1.0,0.0,1651090876920886.0
0.0,0.0,6.0,2.0,-1.0,-2.0,-1.0,-1.0,1651090876920886.0
0.0,-1.0,-17.0,-2.0,-2.0,-1.0,-2.0,0.0,1651090876920886.0
1.0,5.0,21.0,4.0,14.0,0.0,-1.0,-1.0,1651090876920886.0
-1.0,2.0,0.0,0.0,1.0,1.0,0.0,0.0,1651090876943281.0
0.0,-2.0,-3.0,-2.0,-11.0,-2.0,-1.0,-1.0,1651090876943281.0
-1.0,-3.0,-5.0,-2.0,-2.0,-1.0,-1.0,-1.0,1651090876944024.0
0.0,-4.0,-8.0,-1.0,-9.0,0.0,-3.0,0.0,1651090876944024.0
2.0,-1.0,3.0,4.0,5.0,0.0,-1.0,1.0,1651090876965486.0
1.0,1.0,3.0,1.0,0.0,-3.0,-2.0,1.0,1651090876965486.0
-3.0,-1.0,2.0,-5.0,3.0,-1.0,-1.0,1.0,1651090876966447.0
-1.0,-2.0,-6.0,2.0,-13.0,2.0,1.0,0.0,1651090876966447.0
-1.0,2.0,4.0,-3.0,-3.0,-3.0,-2.0,0.0,1651090876980570.0
0.0,-1.0,-2.0,3.0,7.0,-1.0,0.0,-1.0,1651090876980570.0
1.0,-4.0,-2.0,1.0,3.0,-1.0,0.0,-2.0,1651090876981407.0
0.0,2.0,3.0,-1.0,0.0,-3.0,-1.0,0.0,1651090876981407.0
-1.0,3.0,1.0,1.0,0.0,0.0,2.0,0.0,1651090877003498.0
0.0,2.0,1.0,-1.0,2.0,0.0,-1.0,-3.0,1651090877003498.0
-1.0,0.0,-1.0,-4.0,0.0,0.0,-1.0,0.0,1651090877003903.0
-1.0,-2.0,-5.0,1.0,-9.0,-2.0,1.0,0.0,1651090877003903.0
0.0,-2.0,-3.0,0.0,-1.0,2.0,1.0,-3.0,1651090877025114.0
-2.0,-3.0,-12.0,-1.0,5.0,0.0,0.0,0.0,1651090877025114.0
1.0,2.0,18.0,1.0,-3.0,0.0,0.0,-1.0,1651090877026111.0
-2.0,1.0,-4.0,-3.0,4.0,-1.0,-2.0,0.0,1651090877026111.0
0.0,1.0,2.0,-2.0,-5.0,0.0,-2.0,0.0,1651090877042292.0
-1.0,0.0,-2.0,6.0,1.0,0.0,0.0,0.0,1651090877042292.0
0.0,-1.0,-8.0,-2.0,-6.0,0.0,-2.0,0.0,1651090877042292.0
0.0,-2.0,-5.0,0.0,2.0,-2.0,-2.0,-1.0,1651090877042292.0
-1.0,0.0,3.0,-4.0,0.0,-4.0,-1.0,-2.0,1651090877064606.0
1.0,2.0,7.0,0.0,-8.0,2.0,0.0,2.0,1651090877064606.0
-2.0,0.0,-4.0,5.0,-3.0,-1.0,-1.0,0.0,1651090877064606.0
0.0,0.0,1.0,0.0,3.0,1.0,0.0,0.0,1651090877064606.0
1.0,0.0,-1.0,0.0,5.0,0.0,-2.0,-1.0,1651090877085541.0
-1.0,-5.0,-2.0,-2.0,-4.0,-3.0,-2.0,-1.0,1651090877085541.0
0.0,0.0,-7.0,-2.0,0.0,-2.0,1.0,-1.0,1651090877086539.0
-1.0,-1.0,7.0,-3.0,-3.0,0.0,0.0,-1.0,1651090877086539.0
1.0,-1.0,-4.0,7.0,10.0,1.0,0.0,-1.0,1651090877099726.0
0.0,-1.0,0.0,1.0,-3.0,0.0,-1.0,0.0,1651090877099726.0
0.0,0.0,3.0,-3.0,3.0,-1.0,-1.0,0.0,1651090877115844.0
-2.0,-1.0,-6.0,-5.0,-1.0,-2.0,-1.0,0.0,1651090877115844.0
-1.0,-2.0,-7.0,-1.0,-3.0,-1.0,-2.0,0.0,1651090877122997.0
-1.0,2.0,16.0,-1.0,3.0,-1.0,1.0,-2.0,1651090877122997.0
0.0,0.0,-7.0,0.0,-3.0,0.0,0.0,-1.0,1651090877123836.0
1.0,1.0,6.0,1.0,5.0,-1.0,0.0,0.0,1651090877123836.0
0.0,-1.0,1.0,1.0,0.0,-1.0,-1.0,-1.0,1651090877145172.0
0.0,0.0,-9.0,2.0,0.0,-3.0,-1.0,-2.0,1651090877145172.0
0.0,-2.0,3.0,0.0,2.0,0.0,-1.0,0.0,1651090877146013.0
-2.0,-3.0,-4.0,-1.0,-1.0,2.0,0.0,-1.0,1651090877146013.0
-2.0,-2.0,1.0,1.0,-2.0,0.0,-1.0,0.0,1651090877160053.0
-1.0,0.0,-3.0,-4.0,-1.0,-3.0,-1.0,-1.0,1651090877160053.0
-1.0,-1.0,4.0,-2.0,2.0,-2.0,-1.0,1.0,1651090877167865.0
2.0,1.0,-1.0,6.0,0.0,-2.0,-1.0,0.0,1651090877167865.0
-1.0,2.0,5.0,3.0,6.0,2.0,2.0,1.0,1651090877183305.0
-2.0,-1.0,-6.0,-5.0,0.0,0.0,0.0,-2.0,1651090877183305.0
-1.0,-4.0,-2.0,-1.0,-14.0,-2.0,1.0,0.0,1651090877183305.0
-2.0,-1.0,-4.0,-5.0,2.0,0.0,-2.0,-1.0,1651090877183305.0
0.0,0.0,1.0,-1.0,-7.0,0.0,-2.0,-1.0,1651090877205113.0
-1.0,1.0,-3.0,1.0,3.0,1.0,-1.0,1.0,1651090877205113.0
1.0,3.0,8.0,1.0,-1.0,1.0,0.0,-1.0,1651090877206066.0
-1.0,-2.0,-3.0,-2.0,-8.0,-2.0,0.0,0.0,1651090877206066.0
-2.0,-1.0,-4.0,-7.0,-20.0,-1.0,1.0,-1.0,1651090877219643.0
1.0,1.0,10.0,4.0,2.0,2.0,0.0,-1.0,1651090877219643.0
0.0,-3.0,-9.0,2.0,5.0,1.0,0.0,1.0,1651090877227695.0
-1.0,1.0,1.0,-3.0,2.0,-1.0,0.0,0.0,1651090877227695.0
-1.0,-5.0,-15.0,-2.0,12.0,-4.0,-2.0,-2.0,1651090877242715.0
0.0,2.0,14.0,1.0,-11.0,4.0,1.0,0.0,1651090877242715.0
-1.0,3.0,4.0,-1.0,-3.0,-2.0,-1.0,0.0,1651090877243672.0
-1.0,0.0,-2.0,-3.0,-1.0,-1.0,-2.0,0.0,1651090877243672.0
-2.0,-1.0,1.0,-3.0,13.0,-3.0,-1.0,-1.0,1651090877265977.0
1.0,-2.0,-8.0,-2.0,-5.0,-2.0,-1.0,-2.0,1651090877265977.0
1.0,-3.0,2.0,2.0,3.0,1.0,-1.0,0.0,1651090877266816.0
0.0,-3.0,-6.0,2.0,9.0,2.0,0.0,-1.0,1651090877266816.0
0.0,2.0,8.0,1.0,-13.0,1.0,0.0,0.0,1651090877279940.0
1.0,1.0,4.0,0.0,0.0,-1.0,-1.0,1.0,1651090877279940.0
1.0,2.0,-3.0,2.0,-4.0,-3.0,1.0,0.0,1651090877287785.0
-1.0,-1.0,-4.0,-6.0,0.0,-3.0,-1.0,-2.0,1651090877287785.0
0.0,-2.0,0.0,2.0,-4.0,-2.0,0.0,-1.0,1651090877303422.0
2.0,-2.0,-5.0,1.0,4.0,1.0,0.0,0.0,1651090877303422.0
-1.0,1.0,3.0,-3.0,5.0,1.0,-1.0,0.0,1651090877303902.0
2.0,1.0,0.0,-2.0,-2.0,-3.0,-1.0,1.0,1651090877303902.0
1.0,2.0,1.0,-1.0,10.0,-1.0,0.0,-2.0,1651090877333602.0
-1.0,-2.0,-2.0,-1.0,-1.0,-2.0,0.0,2.0,1651090877333602.0
1.0,-5.0,-12.0,1.0,-5.0,-1.0,0.0,0.0,1651090877334427.0
1.0,6.0,6.0,3.0,-3.0,2.0,-2.0,0.0,1651090877334427.0
0.0,1.0,16.0,-1.0,-1.0,-1.0,0.0,-1.0,1651090877339446.0
0.0,-2.0,-8.0,0.0,2.0,-2.0,-1.0,0.0,1651090877339446.0
-1.0,0.0,3.0,-3.0,-13.0,0.0,-1.0,-1.0,1651090877347625.0
0.0,0.0,-7.0,4.0,15.0,-1.0,1.0,-1.0,1651090877347625.0
-1.0,-3.0,-4.0,-2.0,-1.0,-1.0,-2.0,1.0,1651090877371668.0
-4.0,-3.0,0.0,1.0,2.0,-1.0,0.0,-2.0,1651090877371668.0
-3.0,-1.0,-4.0,1.0,0.0,-1.0,-1.0,-2.0,1651090877372079.0
0.0,0.0,0.0,-4.0,-3.0,1.0,0.0,-1.0,1651090877372079.0
-1.0,-1.0,2.0,-1.0,-5.0,0.0,0.0,-2.0,1651090877394220.0
-1.0,-2.0,-2.0,-3.0,0.0,-1.0,-2.0,-1.0,1651090877394220.0
-1.0,1.0,4.0,1.0,8.0,0.0,-1.0,-1.0,1651090877394220.0
0.0,-3.0,2.0,-1.0,-3.0,-4.0,-1.0,-2.0,1651090877394220.0
0.0,-1.0,-2.0,-1.0,1.0,-2.0,0.0,-1.0,1651090877399227.0
1.0,-3.0,-4.0,-3.0,-2.0,-2.0,0.0,0.0,1651090877399227.0
-2.0,1.0,-1.0,4.0,1.0,-1.0,0.0,1.0,1651090877407305.0
0.0,1.0,7.0,-1.0,-6.0,-1.0,0.0,-1.0,1651090877407305.0
-1.0,0.0,-4.0,3.0,-7.0,0.0,-2.0,-1.0,1651090877423426.0
-2.0,1.0,-2.0,1.0,3.0,-1.0,0.0,-1.0,1651090877423426.0
-1.0,-1.0,0.0,-4.0,-3.0,-1.0,-1.0,-1.0,1651090877423426.0
-1.0,-6.0,-6.0,0.0,-2.0,-3.0,0.0,-1.0,1651090877423426.0
-1.0,1.0,2.0,2.0,-1.0,0.0,-2.0,0.0,1651090877445680.0
0.0,0.0,7.0,0.0,0.0,1.0,0.0,0.0,1651090877445680.0
0.0,1.0,-2.0,0.0,-2.0,-2.0,-1.0,-3.0,1651090877446551.0
1.0,1.0,3.0,0.0,-1.0,0.0,-1.0,-2.0,1651090877446551.0
0.0,-1.0,-8.0,-3.0,2.0,1.0,0.0,0.0,1651090877468435.0
1.0,0.0,-2.0,1.0,-3.0,2.0,1.0,0.0,1651090877468435.0
0.0,-1.0,5.0,1.0,2.0,1.0,1.0,0.0,1651090877468435.0
0.0,-2.0,-4.0,-2.0,-9.0,0.0,1.0,-1.0,1651090877468435.0
0.0,2.0,7.0,2.0,8.0,1.0,-1.0,0.0,1651090877482609.0
0.0,1.0,0.0,-2.0,-1.0,-1.0,-1.0,-2.0,1651090877482609.0
-1.0,-2.0,-2.0,-2.0,-1.0,1.0,-1.0,-2.0,1651090877483610.0
-1.0,0.0,-2.0,2.0,-10.0,0.0,-1.0,1.0,1651090877483610.0
2.0,1.0,-2.0,0.0,5.0,-1.0,0.0,-1.0,1651090877505974.0
0.0,2.0,2.0,-2.0,-1.0,-1.0,0.0,0.0,1651090877505974.0
0.0,-2.0,-3.0,-3.0,0.0,-1.0,0.0,1.0,1651090877505974.0
-2.0,0.0,0.0,0.0,1.0,0.0,0.0,0.0,1651090877505974.0
0.0,0.0,1.0,1.0,-11.0,-1.0,0.0,0.0,1651090877528480.0
-1.0,-2.0,-5.0,-1.0,0.0,-2.0,0.0,-1.0,1651090877528480.0
-1.0,1.0,2.0,0.0,1.0,0.0,-3.0,-1.0,1651090877528480.0
1.0,2.0,1.0,1.0,1.0,0.0,-1.0,0.0,1651090877528480.0
-1.0,-2.0,-1.0,-2.0,0.0,-1.0,1.0,1.0,1651090877543422.0
-2.0,-4.0,-26.0,-3.0,0.0,2.0,-1.0,0.0,1651090877543422.0
0.0,6.0,36.0,0.0,-2.0,0.0,1.0,1.0,1651090877543422.0
-1.0,0.0,-4.0,-1.0,1.0,-1.0,-2.0,0.0,1651090877543422.0
1.0,-1.0,-2.0,0.0,-1.0,-1.0,0.0,-2.0,1651090877565994.0
-1.0,-4.0,-6.0,-1.0,-1.0,-1.0,-1.0,-2.0,1651090877565994.0
-1.0,-3.0,-9.0,0.0,-2.0,0.0,-1.0,0.0,1651090877565994.0
0.0,2.0,3.0,-1.0,0.0,0.0,0.0,1.0,1651090877565994.0
-1.0,-1.0,4.0,-2.0,6.0,2.0,0.0,-1.0,1651090877588484.0
2.0,-4.0,-3.0,-4.0,-4.0,-1.0,0.0,-1.0,1651090877588484.0
-1.0,-2.0,-6.0,9.0,2.0,0.0,-2.0,-1.0,1651090877588907.0
-2.0,-1.0,5.0,2.0,0.0,1.0,-1.0,-1.0,1651090877588907.0
-1.0,0.0,-6.0,-2.0,-1.0,3.0,-1.0,1.0,1651090877611585.0
-2.0,4.0,12.0,-3.0,-2.0,-2.0,0.0,0.0,1651090877611585.0
-1.0,2.0,-4.0,-5.0,3.0,3.0,0.0,-1.0,1651090877612094.0
0.0,-1.0,-8.0,1.0,-2.0,-1.0,0.0,0.0,1651090877612094.0
-1.0,1.0,6.0,-2.0,4.0,-2.0,-1.0,-1.0,1651090877625267.0
-2.0,-1.0,3.0,5.0,-12.0,1.0,0.0,1.0,1651090877625267.0
0.0,0.0,-2.0,1.0,3.0,-1.0,1.0,-1.0,1651090877626263.0
0.0,-2.0,-2.0,1.0,4.0,-1.0,1.0,0.0,1651090877626263.0
-1.0,-2.0,-2.0,-1.0,-8.0,-3.0,1.0,-1.0,1651090877648342.0
-1.0,1.0,2.0,-3.0,2.0,0.0,0.0,0.0,1651090877648342.0
0.0,-1.0,-5.0,1.0,-1.0,0.0,0.0,0.0,1651090877648342.0
-1.0,-1.0,4.0,1.0,2.0,0.0,-1.0,-1.0,1651090877648342.0
-1.0,-1.0,-1.0,0.0,-1.0,0.0,-1.0,-2.0,1651090877678705.0
1.0,-3.0,-10.0,2.0,1.0,-2.0,-2.0,-1.0,1651090877678705.0
2.0,-4.0,6.0,-5.0,-3.0,-1.0,-1.0,0.0,1651090877679702.0
-1.0,3.0,2.0,-2.0,1.0,1.0,1.0,1.0,1651090877679702.0
-1.0,2.0,0.0,3.0,-1.0,0.0,-2.0,1.0,1651090877684689.0
-2.0,0.0,5.0,-2.0,-2.0,-1.0,-1.0,1.0,1651090877684689.0
0.0,-1.0,-7.0,-8.0,-2.0,0.0,-1.0,0.0,1651090877693822.0
-1.0,-4.0,-4.0,6.0,-3.0,-3.0,-2.0,-1.0,1651090877693822.0
-1.0,-2.0,-2.0,-4.0,2.0,0.0,0.0,-2.0,1651090877707991.0
0.0,1.0,4.0,1.0,-1.0,1.0,0.0,-2.0,1651090877707991.0
-2.0,-1.0,-5.0,-2.0,1.0,-2.0,-2.0,1.0,1651090877708990.0
0.0,-5.0,0.0,-9.0,2.0,0.0,1.0,0.0,1651090877708990.0
-2.0,0.0,-5.0,0.0,-8.0,-2.0,-1.0,-1.0,1651090877730538.0
0.0,2.0,3.0,1.0,-5.0,-1.0,0.0,-1.0,1651090877730538.0
0.0,0.0,1.0,1.0,8.0,-1.0,-1.0,-2.0,1651090877730538.0
-1.0,0.0,1.0,-1.0,0.0,-1.0,0.0,-1.0,1651090877730538.0
-1.0,0.0,-3.0,-3.0,0.0,0.0,1.0,-1.0,1651090877744763.0
-1.0,-2.0,-3.0,-5.0,-2.0,-1.0,0.0,-2.0,1651090877744763.0
0.0,1.0,-6.0,-3.0,-6.0,0.0,-1.0,-2.0,1651090877753102.0
0.0,1.0,6.0,3.0,-2.0,1.0,-1.0,-1.0,1651090877753102.0
0.0,-2.0,-2.0,3.0,-18.0,1.0,0.0,1.0,1651090877768006.0
0.0,4.0,8.0,1.0,4.0,-2.0,-1.0,-1.0,1651090877768006.0
-2.0,0.0,1.0,-6.0,-6.0,-2.0,1.0,1.0,1651090877768875.0
-3.0,-2.0,-6.0,-1.0,2.0,1.0,-2.0,-2.0,1651090877768875.0
0.0,-2.0,2.0,3.0,2.0,0.0,1.0,-1.0,1651090877790293.0
-1.0,-1.0,-8.0,1.0,3.0,-1.0,-1.0,0.0,1651090877790293.0
-1.0,2.0,8.0,4.0,0.0,-1.0,-1.0,0.0,1651090877791293.0
0.0,1.0,-3.0,-8.0,-3.0,-1.0,0.0,-2.0,1651090877791293.0
0.0,-1.0,-1.0,1.0,0.0,-3.0,-1.0,2.0,1651090877813802.0
-3.0,1.0,-1.0,6.0,2.0,0.0,0.0,-2.0,1651090877813802.0
1.0,-2.0,2.0,3.0,1.0,-2.0,0.0,0.0,1651090877814685.0
0.0,-1.0,-3.0,-3.0,-1.0,1.0,-1.0,0.0,1651090877814685.0
0.0,-2.0,-4.0,-2.0,12.0,0.0,0.0,-1.0,1651090877828550.0
0.0,-1.0,-3.0,-7.0,-4.0,-1.0,0.0,-1.0,1651090877828550.0
-2.0,0.0,6.0,-3.0,-8.0,-1.0,1.0,-1.0,1651090877828550.0
-2.0,0.0,-5.0,1.0,2.0,-3.0,-1.0,-1.0,1651090877828550.0
0.0,1.0,0.0,1.0,11.0,1.0,-2.0,-1.0,1651090877850706.0
0.0,-1.0,4.0,1.0,1.0,1.0,-1.0,0.0,1651090877850706.0
0.0,-1.0,-7.0,-1.0,3.0,-2.0,1.0,0.0,1651090877850706.0
-1.0,0.0,0.0,-1.0,-2.0,-1.0,-1.0,-1.0,1651090877850706.0
-1.0,-4.0,2.0,-1.0,-4.0,-2.0,0.0,-1.0,1651090877873997.0
0.0,1.0,1.0,-2.0,0.0,-1.0,0.0,0.0,1651090877873997.0
1.0,1.0,1.0,1.0,2.0,4.0,1.0,-1.0,1651090877873997.0
-1.0,-2.0,-4.0,0.0,-1.0,0.0,0.0,-1.0,1651090877873997.0
1.0,0.0,1.0,-1.0,-6.0,-2.0,2.0,0.0,1651090877888857.0
-2.0,-4.0,-7.0,0.0,-3.0,0.0,0.0,-2.0,1651090877888857.0
-2.0,-2.0,1.0,-5.0,-3.0,-1.0,-1.0,0.0,1651090877889023.0
0.0,3.0,7.0,5.0,0.0,0.0,0.0,-1.0,1651090877889023.0
-2.0,-1.0,-4.0,2.0,-5.0,-2.0,-1.0,-2.0,1651090877910330.0
-1.0,-2.0,-7.0,-1.0,9.0,1.0,-2.0,0.0,1651090877910330.0
-1.0,3.0,3.0,2.0,7.0,2.0,-1.0,0.0,1651090877911166.0
1.0,-1.0,-2.0,-3.0,-3.0,-1.0,0.0,1.0,1651090877911166.0
1.0,1.0,4.0,-7.0,0.0,-1.0,-1.0,1.0,1651090877933677.0
-3.0,-4.0,-3.0,2.0,4.0,-2.0,-1.0,-1.0,1651090877933677.0
-2.0,-3.0,-3.0,-1.0,-12.0,0.0,1.0,-1.0,1651090877934676.0
-1.0,1.0,0.0,2.0,2.0,0.0,-1.0,0.0,1651090877934676.0
-1.0,0.0,-1.0,-3.0,-2.0,0.0,-2.0,-1.0,1651090877948693.0
0.0,1.0,1.0,-3.0,5.0,0.0,-1.0,0.0,1651090877948693.0
-1.0,-5.0,-14.0,-2.0,-2.0,-3.0,-3.0,-1.0,1651090877948693.0
0.0,-1.0,12.0,-1.0,0.0,-1.0,-1.0,0.0,1651090877948693.0
-2.0,4.0,0.0,0.0,-2.0,1.0,-1.0,0.0,1651090877970294.0
2.0,-2.0,4.0,0.0,-8.0,1.0,0.0,0.0,1651090877970294.0
0.0,-1.0,-1.0,-2.0,2.0,-1.0,0.0,-2.0,1651090877971295.0
-2.0,-2.0,-9.0,2.0,-3.0,2.0,0.0,-2.0,1651090877971295.0
-1.0,-2.0,-3.0,-2.0,-8.0,0.0,0.0,-2.0,1651090877993765.0
0.0,3.0,9.0,1.0,-1.0,0.0,-1.0,0.0,1651090877993765.0
0.0,-1.0,-6.0,-1.0,-2.0,-1.0,-1.0,-1.0,1651090877994632.0
-1.0,-5.0,-3.0,-2.0,3.0,0.0,-1.0,-2.0,1651090877994632.0
-1.0,0.0,2.0,0.0,2.0,1.0,-1.0,-1.0,1651090878008192.0
1.0,-1.0,0.0,0.0,-7.0,-2.0,1.0,-2.0,1651090878008192.0
1.0,1.0,2.0,2.0,6.0,0.0,-2.0,0.0,1651090878008192.0
0.0,3.0,0.0,-4.0,-4.0,-1.0,0.0,1.0,1651090878008192.0
-1.0,-3.0,-1.0,-2.0,2.0,0.0,1.0,-2.0,1651090878030665.0
0.0,-1.0,-2.0,5.0,-12.0,-2.0,-1.0,-2.0,1651090878030665.0
0.0,-2.0,-7.0,-2.0,0.0,1.0,0.0,2.0,1651090878030665.0
-2.0,4.0,11.0,0.0,-7.0,-1.0,-1.0,-1.0,1651090878030665.0
1.0,-1.0,-1.0,4.0,11.0,0.0,-3.0,0.0,1651090878054026.0
1.0,1.0,2.0,-1.0,5.0,0.0,-1.0,0.0,1651090878054026.0
0.0,-2.0,-14.0,0.0,6.0,1.0,-1.0,0.0,1651090878055026.0
-1.0,1.0,9.0,-3.0,-7.0,-1.0,0.0,1.0,1651090878055026.0
0.0,-2.0,-5.0,-3.0,-3.0,-3.0,0.0,1.0,1651090878068314.0
-2.0,-1.0,-2.0,-3.0,7.0,-2.0,1.0,-1.0,1651090878068314.0
-1.0,-4.0,-3.0,0.0,-15.0,-1.0,-1.0,-1.0,1651090878068314.0
-1.0,0.0,-6.0,-2.0,6.0,-1.0,-2.0,0.0,1651090878068314.0
1.0,2.0,6.0,3.0,1.0,-1.0,-2.0,-2.0,1651090878090395.0
0.0,0.0,-1.0,2.0,3.0,0.0,0.0,1.0,1651090878090395.0
0.0,3.0,5.0,-2.0,-11.0,2.0,1.0,-2.0,1651090878091392.0
-1.0,-1.0,-3.0,0.0,-4.0,-2.0,0.0,0.0,1651090878091392.0
-3.0,-4.0,-2.0,-2.0,-2.0,0.0,-9.0,-1.0,1651090878113800.0
-2.0,-3.0,-6.0,-4.0,-7.0,-10.0,-22.0,-4.0,1651090878113800.0
0.0,2.0,9.0,5.0,-5.0,-8.0,16.0,-1.0,1651090878113800.0
1.0,-2.0,-4.0,-2.0,-61.0,4.0,22.0,1.0,1651090878113800.0
2.0,1.0,1.0,11.0,67.0,20.0,9.0,2.0,1651090878128125.0
1.0,-1.0,0.0,-3.0,-8.0,3.0,-22.0,0.0,1651090878128125.0
-4.0,-4.0,-14.0,-4.0,-16.0,-21.0,-64.0,-13.0,1651090878128997.0
-7.0,-7.0,-5.0,-7.0,-14.0,-16.0,-41.0,-17.0,1651090878128997.0
-3.0,1.0,6.0,-6.0,-48.0,-10.0,53.0,4.0,1651090878150884.0
9.0,4.0,-1.0,3.0,18.0,26.0,104.0,36.0,1651090878150884.0
10.0,7.0,10.0,3.0,11.0,32.0,29.0,20.0,1651090878150884.0
-4.0,-8.0,-10.0,-6.0,-2.0,-19.0,-69.0,-19.0,1651090878150884.0
-28.0,-16.0,-14.0,-4.0,-14.0,-45.0,-28.0,-51.0,1651090878175033.0
-29.0,-15.0,-4.0,-3.0,3.0,-35.0,-128.0,-61.0,1651090878175033.0
33.0,9.0,0.0,4.0,10.0,61.0,115.0,65.0,1651090878176030.0
28.0,16.0,9.0,9.0,22.0,-29.0,-70.0,39.0,1651090878176030.0
25.0,13.0,11.0,-6.0,11.0,98.0,74.0,52.0,1651090878188152.0
-35.0,-14.0,-7.0,-13.0,-16.0,34.0,-108.0,-45.0,1651090878188152.0
-53.0,-21.0,-8.0,5.0,7.0,-8.0,-2.0,-68.0,1651090878195161.0
18.0,12.0,3.0,10.0,-13.0,-64.0,-38.0,27.0,1651090878195161.0
61.0,17.0,13.0,34.0,38.0,38.0,32.0,95.0,1651090878210587.0
30.0,20.0,14.0,6.0,-16.0,69.0,41.0,24.0,1651090878210587.0
-14.0,-7.0,1.0,-38.0,25.0,77.0,-38.0,-26.0,1651090878211541.0
-11.0,-4.0,0.0,6.0,11.0,-9.0,65.0,-18.0,1651090878211541.0
-56.0,-25.0,-25.0,-34.0,-41.0,-128.0,-128.0,-95.0,1651090878233888.0
1.0,-5.0,-8.0,24.0,-55.0,64.0,1.0,33.0,1651090878233888.0
13.0,2.0,2.0,-2.0,-23.0,-116.0,28.0,-3.0,1651090878234806.0
-9.0,6.0,9.0,3.0,69.0,124.0,75.0,9.0,1651090878234806.0
-78.0,-7.0,-5.0,-43.0,-35.0,12.0,-26.0,-25.0,1651090878248024.0
73.0,-8.0,-12.0,-24.0,7.0,-65.0,-72.0,-5.0,1651090878248024.0
16.0,8.0,3.0,39.0,-4.0,10.0,-18.0,34.0,1651090878248990.0
49.0,24.0,18.0,19.0,24.0,104.0,36.0,45.0,1651090878248990.0
48.0,14.0,16.0,-59.0,-34.0,-7.0,-73.0,7.0,1651090878270796.0
-51.0,-13.0,-11.0,46.0,28.0,-95.0,41.0,-20.0,1651090878270796.0
2.0,-1.0,1.0,-9.0,-1.0,59.0,-11.0,19.0,1651090878270796.0
18.0,-5.0,-1.0,-8.0,7.0,4.0,-66.0,25.0,1651090878270796.0
-61.0,-21.0,-10.0,15.0,1.0,119.0,-8.0,-73.0,1651090878293994.0
-13.0,17.0,18.0,-41.0,-5.0,-75.0,15.0,9.0,1651090878293994.0
-13.0,-7.0,-8.0,3.0,-2.0,13.0,-48.0,-13.0,1651090878294994.0
22.0,-3.0,-11.0,11.0,-19.0,-128.0,-45.0,14.0,1651090878294994.0
-11.0,8.0,5.0,-22.0,8.0,24.0,119.0,-47.0,1651090878307923.0
41.0,6.0,4.0,60.0,-7.0,-56.0,-94.0,53.0,1651090878307923.0
15.0,5.0,1.0,-12.0,22.0,9.0,-86.0,39.0,1651090878308967.0
14.0,2.0,2.0,-37.0,-28.0,20.0,-81.0,5.0,1651090878308967.0
13.0,-9.0,-10.0,50.0,2.0,-72.0,25.0,33.0,1651090878330871.0
-65.0,-12.0,5.0,16.0,10.0,17.0,53.0,-85.0,1651090878330871.0
-58.0,-16.0,-10.0,27.0,5.0,-95.0,26.0,-47.0,1651090878331859.0
-9.0,-8.0,-12.0,15.0,-14.0,-7.0,64.0,0.0,1651090878331859.0
58.0,12.0,2.0,-8.0,8.0,2.0,85.0,3.0,1651090878354209.0
40.0,14.0,6.0,-25.0,11.0,122.0,111.0,81.0,1651090878354209.0
-26.0,4.0,12.0,-12.0,-26.0,-42.0,-76.0,-48.0,1651090878354209.0
-51.0,-19.0,-11.0,-13.0,-5.0,-91.0,-106.0,-43.0,1651090878354209.0
-28.0,-15.0,-16.0,19.0,5.0,59.0,62.0,-25.0,1651090878368361.0
6.0,22.0,13.0,-33.0,-8.0,-38.0,-42.0,7.0,1651090878368361.0
87.0,5.0,-3.0,-47.0,12.0,35.0,-70.0,34.0,1651090878368361.0
23.0,2.0,0.0,50.0,9.0,57.0,2.0,26.0,1651090878368361.0
-6.0,2.0,10.0,-35.0,2.0,86.0,69.0,25.0,1651090878390728.0
-38.0,-13.0,-35.0,-60.0,3.0,53.0,-126.0,-29.0,1651090878390728.0
-65.0,-12.0,20.0,25.0,-29.0,-69.0,-92.0,-102.0,1651090878391566.0
82.0,3.0,-17.0,22.0,21.0,122.0,-5.0,61.0,1651090878391566.0
21.0,4.0,1.0,6.0,-18.0,-127.0,20.0,67.0,1651090878413511.0
-72.0,-24.0,-15.0,1.0,23.0,118.0,-32.0,-60.0,1651090878413511.0
70.0,27.0,10.0,13.0,33.0,60.0,125.0,68.0,1651090878414512.0
-33.0,-3.0,9.0,-56.0,-42.0,16.0,-62.0,-82.0,1651090878414512.0
37.0,9.0,6.0,90.0,9.0,-90.0,-92.0,48.0,1651090878428482.0
-16.0,-8.0,-3.0,-38.0,-23.0,-76.0,2.0,-40.0,1651090878428482.0
-92.0,-10.0,-2.0,-3.0,9.0,77.0,-17.0,-65.0,1651090878428482.0
61.0,7.0,3.0,-37.0,12.0,-86.0,127.0,65.0,1651090878428482.0
36.0,12.0,2.0,20.0,-3.0,-23.0,-24.0,27.0,1651090878450772.0
-1.0,-3.0,4.0,33.0,7.0,-69.0,110.0,1.0,1651090878450772.0
-1.0,-6.0,-11.0,6.0,6.0,7.0,-61.0,-23.0,1651090878450772.0
-65.0,-9.0,-6.0,-30.0,-16.0,-42.0,127.0,-58.0,1651090878450772.0
-43.0,-7.0,1.0,-27.0,-16.0,84.0,-79.0,-46.0,1651090878473942.0
34.0,5.0,5.0,64.0,26.0,55.0,118.0,-15.0,1651090878473942.0
-16.0,-3.0,-11.0,5.0,-17.0,-2.0,56.0,10.0,1651090878473942.0
12.0,0.0,4.0,67.0,41.0,83.0,57.0,13.0,1651090878473942.0
15.0,-1.0,7.0,-45.0,-22.0,1.0,-37.0,40.0,1651090878488359.0
42.0,10.0,10.0,-6.0,7.0,-39.0,-64.0,27.0,1651090878488359.0
1.0,1.0,-4.0,-3.0,-23.0,38.0,-10.0,-44.0,1651090878488977.0
-75.0,-23.0,-19.0,12.0,7.0,11.0,-3.0,-67.0,1651090878488977.0
-58.0,-12.0,-10.0,21.0,10.0,115.0,24.0,-89.0,1651090878511006.0
48.0,6.0,17.0,-5.0,-4.0,-27.0,74.0,105.0,1651090878511006.0
36.0,8.0,-14.0,-35.0,-23.0,-70.0,35.0,49.0,1651090878511006.0
7.0,9.0,23.0,-14.0,10.0,53.0,-115.0,-31.0,1651090878511006.0
4.0,-2.0,-7.0,-26.0,7.0,22.0,-24.0,42.0,1651090878534158.0
-15.0,0.0,1.0,33.0,-7.0,57.0,18.0,-4.0,1651090878534158.0
-1.0,-6.0,2.0,49.0,17.0,-26.0,-69.0,-1.0,1651090878534158.0
-33.0,-1.0,0.0,20.0,10.0,92.0,60.0,-16.0,1651090878534158.0
-56.0,-18.0,-12.0,-27.0,12.0,39.0,-32.0,-95.0,1651090878547692.0
77.0,23.0,7.0,-24.0,-11.0,-128.0,-128.0,89.0,1651090878547692.0
-11.0,-14.0,-10.0,-5.0,-3.0,-31.0,19.0,11.0,1651090878555833.0
-24.0,-3.0,-2.0,16.0,2.0,-85.0,-50.0,-35.0,1651090878555833.0
84.0,19.0,14.0,-79.0,-42.0,-106.0,-18.0,74.0,1651090878570896.0
-17.0,-8.0,-16.0,66.0,-11.0,66.0,59.0,-39.0,1651090878570896.0
0.0,-5.0,5.0,-28.0,1.0,28.0,5.0,15.0,1651090878570896.0
-32.0,-12.0,-18.0,-17.0,-21.0,-46.0,23.0,-23.0,1651090878570896.0
-16.0,1.0,14.0,-29.0,-10.0,-54.0,-24.0,-25.0,1651090878593194.0
-33.0,-3.0,-5.0,-8.0,-22.0,48.0,-96.0,-31.0,1651090878593194.0
27.0,7.0,6.0,52.0,31.0,38.0,2.0,23.0,1651090878594192.0
-13.0,7.0,-1.0,-12.0,-1.0,-91.0,-64.0,71.0,1651090878594192.0
41.0,-7.0,-10.0,11.0,7.0,101.0,-27.0,-39.0,1651090878607198.0
-23.0,-11.0,-3.0,-41.0,1.0,-35.0,-94.0,-5.0,1651090878607198.0
1.0,-3.0,4.0,-79.0,-45.0,-70.0,29.0,-5.0,1651090878615294.0
-8.0,2.0,2.0,85.0,50.0,64.0,88.0,-18.0,1651090878615294.0
82.0,29.0,10.0,11.0,11.0,2.0,5.0,85.0,1651090878630776.0
-39.0,-15.0,0.0,-39.0,-5.0,-12.0,-84.0,-65.0,1651090878630776.0
-18.0,-3.0,-7.0,14.0,14.0,59.0,-49.0,-62.0,1651090878630776.0
-47.0,0.0,0.0,-55.0,-42.0,17.0,101.0,49.0,1651090878630776.0
-17.0,-16.0,-17.0,7.0,2.0,-103.0,-128.0,-81.0,1651090878654949.0
37.0,7.0,28.0,36.0,27.0,121.0,127.0,83.0,1651090878654949.0
4.0,5.0,-6.0,-27.0,-22.0,-100.0,-90.0,-22.0,1651090878655946.0
-4.0,4.0,19.0,-39.0,2.0,113.0,-117.0,-47.0,1651090878655946.0
38.0,17.0,0.0,72.0,31.0,-53.0,59.0,74.0,1651090878667070.0
-20.0,-11.0,-15.0,-21.0,3.0,-14.0,-49.0,-41.0,1651090878667070.0
21.0,3.0,0.0,-16.0,-3.0,81.0,46.0,55.0,1651090878674896.0
-43.0,-21.0,-11.0,77.0,10.0,-75.0,-128.0,-102.0,1651090878674896.0
8.0,4.0,4.0,-55.0,17.0,-2.0,120.0,75.0,1651090878698403.0
-32.0,-6.0,-13.0,20.0,-8.0,-93.0,-87.0,-94.0,1651090878698403.0
-5.0,0.0,4.0,20.0,16.0,-58.0,61.0,57.0,1651090878699218.0
78.0,11.0,-4.0,-60.0,-32.0,-75.0,-92.0,24.0,1651090878699218.0
-48.0,-18.0,-5.0,4.0,-16.0,44.0,-53.0,-43.0,1651090878713408.0
20.0,6.0,-2.0,-40.0,-4.0,-23.0,-2.0,-5.0,1651090878713408.0
-104.0,-15.0,1.0,54.0,33.0,89.0,-52.0,-128.0,1651090878714246.0
94.0,12.0,3.0,-21.0,-3.0,21.0,116.0,120.0,1651090878714246.0
-11.0,1.0,-2.0,-25.0,-19.0,-57.0,-12.0,-23.0,1651090878736647.0
42.0,2.0,-3.0,18.0,2.0,16.0,-4.0,6.0,1651090878736647.0
-16.0,1.0,5.0,-28.0,-10.0,57.0,-28.0,-39.0,1651090878736647.0
-13.0,1.0,-1.0,-23.0,41.0,65.0,-45.0,-1.0,1651090878736647.0
7.0,-6.0,-5.0,82.0,11.0,57.0,102.0,26.0,1651090878750861.0
-10.0,5.0,4.0,-50.0,-28.0,-74.0,5.0,-15.0,1651090878750861.0
-7.0,-5.0,-1.0,-31.0,3.0,29.0,54.0,-6.0,1651090878750861.0
46.0,7.0,-5.0,57.0,-11.0,5.0,127.0,63.0,1651090878750861.0
-40.0,-4.0,5.0,-26.0,-11.0,-62.0,-106.0,-33.0,1651090878781657.0
-17.0,-7.0,-2.0,8.0,7.0,74.0,-9.0,1.0,1651090878781657.0
24.0,18.0,0.0,32.0,9.0,43.0,44.0,19.0,1651090878781657.0
8.0,2.0,3.0,-48.0,-26.0,-121.0,-8.0,-3.0,1651090878781657.0
4.0,-9.0,-9.0,21.0,21.0,68.0,-41.0,3.0,1651090878787451.0
-49.0,-8.0,-9.0,-33.0,-17.0,-50.0,-18.0,-79.0,1651090878787451.0
96.0,17.0,26.0,62.0,37.0,36.0,12.0,118.0,1651090878802767.0
-33.0,-9.0,-4.0,6.0,2.0,-30.0,-70.0,-43.0,1651090878802767.0
-6.0,3.0,0.0,-2.0,-7.0,-18.0,3.0,-17.0,1651090878810934.0
-19.0,-3.0,-2.0,-13.0,3.0,87.0,6.0,-46.0,1651090878810934.0
-41.0,-16.0,-6.0,-8.0,-18.0,-128.0,-46.0,-32.0,1651090878810934.0
37.0,13.0,4.0,20.0,16.0,112.0,126.0,69.0,1651090878810934.0
43.0,8.0,-4.0,16.0,4.0,-27.0,48.0,-6.0,1651090878834233.0
2.0,2.0,25.0,1.0,8.0,84.0,102.0,13.0,1651090878834233.0
-9.0,-1.0,-18.0,-20.0,9.0,61.0,-41.0,-51.0,1651090878834233.0
19.0,-10.0,-1.0,30.0,4.0,-20.0,45.0,17.0,1651090878834233.0
-67.0,-1.0,4.0,-98.0,-1.0,22.0,28.0,-68.0,1651090878847651.0
9.0,3.0,2.0,34.0,-4.0,-89.0,-9.0,36.0,1651090878847651.0
35.0,-1.0,-7.0,57.0,9.0,60.0,42.0,3.0,1651090878855678.0
-52.0,-15.0,-6.0,-58.0,-27.0,-68.0,7.0,-36.0,1651090878855678.0
14.0,-14.0,-14.0,28.0,3.0,-42.0,-93.0,-14.0,1651090878870953.0
-1.0,14.0,18.0,-13.0,3.0,55.0,111.0,51.0,1651090878870953.0
37.0,7.0,11.0,-21.0,-7.0,-46.0,-97.0,56.0,1651090878870953.0
-24.0,1.0,-13.0,-48.0,-8.0,70.0,30.0,-40.0,1651090878870953.0
-10.0,-5.0,4.0,60.0,-10.0,44.0,10.0,16.0,1651090878894135.0
-12.0,-13.0,-16.0,8.0,7.0,34.0,-82.0,-50.0,1651090878894135.0
-11.0,-2.0,2.0,-24.0,-27.0,-100.0,-77.0,28.0,1651090878894135.0
21.0,-1.0,-1.0,-77.0,-32.0,-51.0,37.0,15.0,1651090878894135.0
7.0,4.0,2.0,82.0,23.0,46.0,-85.0,3.0,1651090878907324.0
32.0,6.0,-6.0,22.0,17.0,-62.0,-23.0,82.0,1651090878907324.0
-81.0,-22.0,-27.0,-16.0,-2.0,108.0,91.0,-96.0,1651090878915438.0
-68.0,-16.0,5.0,-19.0,3.0,-61.0,-99.0,-102.0,1651090878915438.0
76.0,32.0,10.0,-25.0,-28.0,-119.0,20.0,87.0,1651090878930759.0
-20.0,-3.0,-6.0,-16.0,-11.0,83.0,-70.0,-57.0,1651090878930759.0
-18.0,-2.0,-3.0,-52.0,-24.0,-73.0,-73.0,18.0,1651090878930759.0
9.0,-6.0,11.0,104.0,17.0,28.0,-81.0,-24.0,1651090878930759.0
-59.0,-5.0,-2.0,24.0,4.0,-42.0,-54.0,-76.0,1651090878953877.0
60.0,13.0,11.0,-9.0,-3.0,-4.0,6.0,72.0,1651090878953877.0
2.0,2.0,-11.0,33.0,-1.0,-37.0,97.0,-26.0,1651090878953877.0
-6.0,2.0,8.0,18.0,36.0,16.0,-32.0,48.0,1651090878953877.0
-24.0,-2.0,-16.0,14.0,11.0,55.0,100.0,-20.0,1651090878975870.0
56.0,4.0,18.0,-19.0,5.0,25.0,17.0,73.0,1651090878975870.0
-24.0,-5.0,-1.0,-12.0,-28.0,54.0,-34.0,-27.0,1651090878976867.0
3.0,8.0,1.0,24.0,-8.0,54.0,-106.0,-32.0,1651090878976867.0
-24.0,-17.0,-9.0,22.0,28.0,38.0,25.0,-15.0,1651090878990175.0
20.0,3.0,2.0,-49.0,4.0,-97.0,107.0,53.0,1651090878990175.0
6.0,4.0,3.0,0.0,3.0,127.0,22.0,-6.0,1651090878998003.0
-25.0,-4.0,-2.0,6.0,9.0,91.0,89.0,20.0,1651090878998003.0
-16.0,4.0,5.0,-51.0,-22.0,12.0,-66.0,20.0,1651090879014215.0
24.0,-17.0,-12.0,83.0,5.0,15.0,-104.0,-76.0,1651090879014215.0
71.0,25.0,11.0,-23.0,7.0,60.0,-9.0,73.0,1651090879014215.0
-17.0,-1.0,10.0,36.0,16.0,-71.0,0.0,-46.0,1651090879014215.0
-97.0,-30.0,-16.0,-86.0,-45.0,-68.0,45.0,-71.0,1651090879035775.0
21.0,15.0,-4.0,93.0,14.0,-74.0,59.0,86.0,1651090879035775.0
44.0,10.0,6.0,29.0,13.0,92.0,53.0,32.0,1651090879036650.0
52.0,16.0,4.0,-10.0,-6.0,-28.0,-31.0,64.0,1651090879036650.0
-15.0,-3.0,3.0,-77.0,-24.0,-1.0,-48.0,-28.0,1651090879059049.0
-50.0,-10.0,0.0,60.0,49.0,94.0,44.0,-60.0,1651090879059049.0
-35.0,-19.0,-4.0,-36.0,-21.0,-127.0,-81.0,-54.0,1651090879059049.0
-17.0,1.0,-19.0,-14.0,-12.0,57.0,91.0,-48.0,1651090879059049.0
54.0,24.0,22.0,1.0,26.0,-64.0,17.0,31.0,1651090879074081.0
-39.0,-9.0,-8.0,-104.0,-57.0,101.0,91.0,-1.0,1651090879074081.0
41.0,2.0,4.0,98.0,41.0,-87.0,-80.0,32.0,1651090879074081.0
-4.0,-6.0,-9.0,-52.0,-19.0,12.0,21.0,-8.0,1651090879074081.0
-47.0,-11.0,8.0,45.0,5.0,39.0,-68.0,-69.0,1651090879096426.0
-18.0,-3.0,-10.0,-43.0,35.0,26.0,-37.0,3.0,1651090879096426.0
42.0,3.0,-6.0,-11.0,-15.0,-57.0,72.0,80.0,1651090879096426.0
34.0,2.0,0.0,-6.0,-5.0,-71.0,-49.0,0.0,1651090879096426.0
23.0,2.0,-2.0,22.0,3.0,95.0,-33.0,7.0,1651090879110842.0
-47.0,-6.0,-3.0,-13.0,-12.0,22.0,-112.0,-35.0,1651090879110842.0
-58.0,3.0,25.0,-7.0,-7.0,-113.0,-111.0,-98.0,1651090879110842.0
83.0,22.0,2.0,34.0,-1.0,36.0,72.0,96.0,1651090879110842.0
30.0,4.0,-7.0,-1.0,24.0,83.0,110.0,72.0,1651090879134509.0
-81.0,-9.0,3.0,7.0,-9.0,-91.0,-32.0,-78.0,1651090879134509.0
14.0,-2.0,-7.0,1.0,1.0,-31.0,61.0,27.0,1651090879135354.0
-43.0,-5.0,13.0,-42.0,-24.0,56.0,-4.0,-90.0,1651090879135354.0
82.0,10.0,3.0,34.0,22.0,-40.0,-74.0,72.0,1651090879156669.0
11.0,7.0,-4.0,6.0,-35.0,15.0,-12.0,6.0,1651090879156669.0
-4.0,-3.0,3.0,2.0,63.0,-22.0,117.0,39.0,1651090879156669.0
-61.0,-16.0,-7.0,-10.0,-8.0,-39.0,-128.0,-55.0,1651090879156669.0
-28.0,-2.0,-1.0,-27.0,15.0,106.0,82.0,-11.0,1651090879170966.0
44.0,5.0,-4.0,30.0,23.0,-28.0,-43.0,5.0,1651090879170966.0
-19.0,-5.0,-10.0,-23.0,-44.0,2.0,-67.0,-11.0,1651090879170966.0
-2.0,0.0,15.0,-1.0,4.0,84.0,-18.0,-7.0,1651090879170966.0
27.0,3.0,1.0,-21.0,-34.0,-3.0,43.0,47.0,1651090879194158.0
52.0,11.0,-9.0,47.0,13.0,-24.0,17.0,33.0,1651090879194158.0
-62.0,-18.0,-13.0,-46.0,-22.0,-42.0,-128.0,-89.0,1651090879194158.0
-128.0,-35.0,-16.0,55.0,16.0,35.0,-112.0,-111.0,1651090879194158.0
86.0,40.0,28.0,105.0,49.0,25.0,65.0,83.0,1651090879216635.0
23.0,-2.0,-6.0,-62.0,-1.0,69.0,-12.0,-57.0,1651090879216635.0
-68.0,-16.0,-9.0,-4.0,-8.0,116.0,-9.0,-68.0,1651090879216635.0
47.0,-5.0,1.0,-48.0,-20.0,15.0,-26.0,-24.0,1651090879216635.0
-11.0,0.0,9.0,25.0,2.0,-89.0,-32.0,-11.0,1651090879230665.0
-10.0,-6.0,-9.0,0.0,15.0,45.0,-51.0,-2.0,1651090879230665.0
29.0,6.0,8.0,-13.0,-3.0,8.0,31.0,52.0,1651090879230665.0
-1.0,-1.0,-10.0,-19.0,-11.0,-8.0,-28.0,44.0,1651090879230665.0
-55.0,-27.0,-33.0,-1.0,-16.0,-19.0,-63.0,-77.0,1651090879254023.0
-59.0,7.0,42.0,-24.0,-28.0,-121.0,-84.0,-59.0,1651090879254023.0
40.0,11.0,-10.0,27.0,30.0,112.0,50.0,26.0,1651090879254023.0
76.0,20.0,5.0,7.0,-25.0,-128.0,113.0,85.0,1651090879254023.0
-9.0,-7.0,-6.0,-22.0,-24.0,59.0,-35.0,-21.0,1651090879276227.0
-31.0,-24.0,-12.0,-19.0,-4.0,-78.0,-38.0,-53.0,1651090879276227.0
-17.0,-1.0,9.0,-15.0,-35.0,-17.0,-52.0,-27.0,1651090879277225.0
-34.0,8.0,-4.0,12.0,50.0,-31.0,48.0,-1.0,1651090879277225.0
3.0,0.0,-2.0,0.0,-1.0,21.0,-114.0,7.0,1651090879290574.0
17.0,11.0,3.0,-25.0,0.0,-46.0,108.0,22.0,1651090879290574.0
19.0,0.0,4.0,32.0,20.0,24.0,26.0,22.0,1651090879291414.0
22.0,4.0,-5.0,22.0,2.0,49.0,24.0,3.0,1651090879291414.0
-35.0,-17.0,-1.0,-30.0,-24.0,-76.0,-17.0,-30.0,1651090879313739.0
-7.0,-2.0,-11.0,-13.0,1.0,93.0,-6.0,3.0,1651090879313739.0
18.0,-1.0,9.0,24.0,-5.0,-53.0,1.0,-4.0,1651090879313739.0
-3.0,-3.0,-9.0,19.0,6.0,72.0,16.0,53.0,1651090879313739.0
-2.0,7.0,16.0,-9.0,10.0,-1.0,21.0,-8.0,1651090879336185.0
27.0,4.0,5.0,10.0,-20.0,-27.0,12.0,26.0,1651090879336185.0
0.0,6.0,-12.0,-45.0,-26.0,-55.0,-27.0,0.0,1651090879337021.0
-97.0,-24.0,4.0,-6.0,-25.0,-17.0,-128.0,-119.0,1651090879337021.0
58.0,9.0,-5.0,33.0,48.0,109.0,47.0,56.0,1651090879350994.0
51.0,13.0,-2.0,-18.0,-8.0,-37.0,42.0,65.0,1651090879350994.0
-6.0,-4.0,-3.0,5.0,-12.0,-33.0,-36.0,-15.0,1651090879350994.0
-10.0,0.0,4.0,-28.0,-1.0,-17.0,35.0,-5.0,1651090879350994.0
-105.0,-31.0,-12.0,-33.0,-10.0,-58.0,-124.0,-128.0,1651090879374269.0
43.0,17.0,3.0,53.0,-42.0,-3.0,70.0,85.0,1651090879374269.0
80.0,12.0,4.0,52.0,66.0,106.0,-56.0,102.0,1651090879374269.0
8.0,2.0,0.0,-42.0,-21.0,30.0,45.0,6.0,1651090879374269.0
-24.0,3.0,-3.0,-5.0,-9.0,-78.0,20.0,-65.0,1651090879396560.0
-19.0,-9.0,-3.0,-51.0,-18.0,120.0,-19.0,16.0,1651090879396560.0
-8.0,-12.0,-10.0,27.0,-6.0,-25.0,-66.0,-24.0,1651090879396560.0
-69.0,-7.0,3.0,-3.0,4.0,28.0,82.0,-64.0,1651090879396560.0
89.0,14.0,-15.0,-11.0,11.0,-64.0,-30.0,108.0,1651090879410700.0
-40.0,-9.0,28.0,84.0,27.0,-14.0,19.0,-112.0,1651090879410700.0
47.0,13.0,9.0,56.0,32.0,106.0,127.0,68.0,1651090879410700.0
-11.0,-3.0,-11.0,-1.0,18.0,-48.0,-93.0,-42.0,1651090879410700.0
33.0,13.0,10.0,-4.0,19.0,123.0,124.0,83.0,1651090879434008.0
-31.0,-9.0,-16.0,-39.0,-28.0,-68.0,-104.0,-76.0,1651090879434008.0
-38.0,-6.0,3.0,-59.0,3.0,65.0,2.0,-28.0,1651090879434008.0
38.0,0.0,2.0,48.0,-7.0,-52.0,37.0,77.0,1651090879434008.0
-8.0,-1.0,4.0,-97.0,-14.0,94.0,87.0,-34.0,1651090879457233.0
25.0,-2.0,-5.0,117.0,30.0,-15.0,-73.0,35.0,1651090879457233.0
-50.0,-9.0,-7.0,-48.0,-43.0,-86.0,-77.0,-97.0,1651090879457233.0
23.0,9.0,8.0,-20.0,16.0,-19.0,-99.0,-16.0,1651090879457233.0
-24.0,-3.0,0.0,-6.0,-65.0,-36.0,-44.0,-28.0,1651090879470910.0
-19.0,-6.0,-17.0,-33.0,62.0,6.0,24.0,6.0,1651090879470910.0
-17.0,-8.0,0.0,-9.0,-37.0,-34.0,51.0,-16.0,1651090879470910.0
39.0,-5.0,-19.0,8.0,-30.0,-34.0,-31.0,-38.0,1651090879470910.0
-53.0,-4.0,33.0,33.0,-1.0,-33.0,16.0,33.0,1651090879494127.0
35.0,10.0,1.0,-2.0,8.0,29.0,55.0,48.0,1651090879494127.0
13.0,0.0,-5.0,-13.0,-7.0,-35.0,-2.0,1.0,1651090879494127.0
1.0,5.0,-2.0,0.0,-10.0,14.0,12.0,45.0,1651090879494127.0
0.0,6.0,-6.0,31.0,60.0,-9.0,-49.0,-24.0,1651090879516357.0
4.0,-3.0,4.0,-20.0,-21.0,-4.0,-25.0,-55.0,1651090879516357.0
-26.0,-7.0,0.0,-22.0,-43.0,-21.0,11.0,-38.0,1651090879517229.0
13.0,7.0,-2.0,-5.0,-11.0,9.0,-32.0,29.0,1651090879517229.0
7.0,-7.0,-6.0,19.0,-99.0,-17.0,0.0,52.0,1651090879529358.0
-47.0,-5.0,-3.0,-10.0,112.0,48.0,44.0,35.0,1651090879529358.0
36.0,11.0,7.0,7.0,-86.0,43.0,16.0,25.0,1651090879538480.0
3.0,-2.0,10.0,8.0,89.0,10.0,2.0,-33.0,1651090879538480.0
-14.0,-2.0,-13.0,2.0,-49.0,-38.0,-20.0,9.0,1651090879553646.0
12.0,-6.0,-10.0,-6.0,51.0,28.0,-4.0,-2.0,1651090879553646.0
-14.0,-12.0,-7.0,-13.0,-39.0,-21.0,-4.0,-4.0,1651090879554485.0
22.0,5.0,19.0,14.0,33.0,21.0,21.0,40.0,1651090879554485.0
-11.0,9.0,2.0,-2.0,-2.0,1.0,-13.0,-13.0,1651090879574772.0
-7.0,4.0,-7.0,-19.0,-64.0,-28.0,-7.0,-22.0,1651090879574772.0
4.0,2.0,-11.0,-1.0,-18.0,-15.0,8.0,11.0,1651090879582884.0
-7.0,1.0,10.0,4.0,61.0,-11.0,4.0,2.0,1651090879582884.0
11.0,-11.0,-2.0,10.0,49.0,-10.0,-17.0,-26.0,1651090879590255.0
-3.0,-5.0,-1.0,-1.0,-94.0,-11.0,5.0,0.0,1651090879590255.0
-4.0,5.0,0.0,-8.0,-29.0,-12.0,2.0,13.0,1651090879598210.0
5.0,-5.0,-11.0,-2.0,-39.0,2.0,5.0,6.0,1651090879598210.0
-2.0,-4.0,-1.0,-3.0,-25.0,-20.0,-26.0,-20.0,1651090879613499.0
3.0,3.0,4.0,-2.0,-10.0,18.0,15.0,15.0,1651090879613499.0
-2.0,3.0,15.0,5.0,63.0,-3.0,6.0,1.0,1651090879613499.0
0.0,-4.0,-9.0,1.0,-75.0,-4.0,-1.0,1.0,1651090879613499.0
4.0,1.0,-8.0,9.0,34.0,16.0,-2.0,-9.0,1651090879636693.0
-8.0,-1.0,-9.0,-25.0,-5.0,-36.0,0.0,-8.0,1651090879636693.0
1.0,-2.0,6.0,22.0,35.0,-14.0,-8.0,-5.0,1651090879636693.0
-2.0,-1.0,-7.0,-26.0,-23.0,-48.0,8.0,5.0,1651090879636693.0
-1.0,-1.0,-2.0,10.0,-52.0,-27.0,0.0,-5.0,1651090879649795.0
0.0,0.0,11.0,10.0,71.0,7.0,5.0,1.0,1651090879649795.0
-2.0,0.0,1.0,-2.0,24.0,11.0,-4.0,1.0,1651090879657776.0
4.0,2.0,-1.0,-1.0,17.0,20.0,2.0,9.0,1651090879657776.0
-1.0,-5.0,-4.0,-3.0,-60.0,-2.0,-7.0,-8.0,1651090879673432.0
-3.0,-2.0,-3.0,2.0,-5.0,-15.0,2.0,-1.0,1651090879673432.0
-1.0,4.0,14.0,-9.0,26.0,12.0,-1.0,-2.0,1651090879673432.0
-1.0,1.0,-2.0,6.0,-52.0,-1.0,-1.0,3.0,1651090879673432.0
2.0,-1.0,0.0,2.0,73.0,2.0,-4.0,-7.0,1651090879696657.0
-1.0,-6.0,6.0,2.0,-80.0,-4.0,-3.0,-1.0,1651090879696657.0
-3.0,5.0,-9.0,-2.0,5.0,5.0,2.0,2.0,1651090879696657.0
2.0,-1.0,2.0,-2.0,15.0,3.0,2.0,3.0,1651090879696657.0
0.0,0.0,-2.0,-13.0,8.0,9.0,-7.0,-5.0,1651090879710391.0
0.0,-1.0,-2.0,19.0,-22.0,-6.0,3.0,2.0,1651090879710391.0
0.0,-3.0,-3.0,-6.0,13.0,-5.0,0.0,2.0,1651090879718392.0
-1.0,-1.0,0.0,-1.0,-24.0,-4.0,-3.0,-1.0,1651090879718392.0
2.0,2.0,7.0,0.0,14.0,-1.0,3.0,1.0,1651090879733543.0
-2.0,-1.0,-3.0,-20.0,-40.0,-4.0,0.0,-2.0,1651090879733543.0
0.0,-1.0,-5.0,2.0,45.0,-10.0,-1.0,-2.0,1651090879733543.0
0.0,2.0,-4.0,2.0,17.0,-3.0,-2.0,1.0,1651090879733543.0
0.0,-1.0,6.0,7.0,19.0,-9.0,-3.0,-2.0,1651090879757680.0
0.0,6.0,-3.0,-31.0,-18.0,9.0,0.0,-1.0,1651090879757680.0
-1.0,-2.0,7.0,33.0,-14.0,-5.0,0.0,2.0,1651090879758699.0
-1.0,-2.0,-4.0,-2.0,-4.0,8.0,-2.0,1.0,1651090879758699.0
-2.0,-3.0,-3.0,5.0,20.0,18.0,-1.0,0.0,1651090879769807.0
-2.0,-1.0,6.0,-7.0,3.0,-5.0,-1.0,-1.0,1651090879769807.0
1.0,4.0,-6.0,-22.0,-9.0,2.0,1.0,1.0,1651090879777932.0
-1.0,0.0,2.0,10.0,-4.0,6.0,-2.0,0.0,1651090879777932.0
-2.0,-5.0,1.0,-5.0,4.0,-16.0,-3.0,-5.0,1651090879793083.0
0.0,-7.0,-6.0,5.0,30.0,-2.0,0.0,-1.0,1651090879793083.0
2.0,4.0,1.0,-5.0,-16.0,0.0,1.0,1.0,1651090879799954.0
-2.0,-4.0,3.0,6.0,16.0,23.0,-2.0,1.0,1651090879799954.0
0.0,-2.0,-7.0,-8.0,-39.0,-13.0,-1.0,-6.0,1651090879816256.0
2.0,3.0,8.0,5.0,-4.0,-1.0,0.0,7.0,1651090879816256.0
-1.0,-3.0,-2.0,3.0,11.0,-8.0,-2.0,-1.0,1651090879817136.0
1.0,-2.0,-6.0,-7.0,-13.0,-4.0,-4.0,-2.0,1651090879817136.0
-1.0,-2.0,-1.0,-4.0,10.0,-6.0,-1.0,4.0,1651090879830445.0
-2.0,1.0,4.0,9.0,17.0,3.0,-2.0,0.0,1651090879830445.0
1.0,2.0,0.0,-4.0,2.0,6.0,1.0,-7.0,1651090879838308.0
1.0,0.0,-1.0,-8.0,-2.0,-1.0,0.0,0.0,1651090879838308.0
0.0,0.0,-2.0,5.0,2.0,3.0,-1.0,1.0,1651090879852569.0
-1.0,-2.0,-8.0,4.0,-1.0,-1.0,1.0,-2.0,1651090879852569.0
-2.0,-2.0,5.0,0.0,9.0,-5.0,-3.0,4.0,1651090879860584.0
-1.0,-1.0,-2.0,-5.0,-12.0,-4.0,2.0,1.0,1651090879860584.0
1.0,2.0,2.0,2.0,12.0,6.0,-1.0,-1.0,1651090879875819.0
-2.0,-1.0,-6.0,-1.0,-8.0,-3.0,0.0,-2.0,1651090879875819.0
-2.0,3.0,14.0,-10.0,-21.0,-1.0,2.0,0.0,1651090879876772.0
-1.0,-4.0,-8.0,7.0,76.0,-2.0,2.0,0.0,1651090879876772.0
-1.0,0.0,3.0,4.0,-73.0,0.0,-2.0,0.0,1651090879899088.0
-1.0,-2.0,-9.0,-3.0,11.0,-3.0,1.0,-2.0,1651090879899088.0
0.0,-1.0,-6.0,-10.0,2.0,-12.0,0.0,0.0,1651090879899088.0
1.0,3.0,9.0,7.0,-41.0,11.0,4.0,-1.0,1651090879899088.0
0.0,-5.0,-6.0,0.0,4.0,-3.0,-3.0,-2.0,1651090879914243.0
0.0,-1.0,9.0,1.0,22.0,5.0,-1.0,0.0,1651090879914243.0
0.0,3.0,-7.0,2.0,-18.0,-12.0,-1.0,0.0,1651090879915240.0
-1.0,1.0,0.0,-15.0,21.0,0.0,-3.0,1.0,1651090879915240.0
-2.0,1.0,1.0,7.0,14.0,5.0,-1.0,-1.0,1651090879936695.0
-1.0,0.0,0.0,-1.0,-13.0,-4.0,-2.0,-1.0,1651090879936695.0
2.0,-5.0,2.0,-1.0,13.0,8.0,-1.0,0.0,1651090879936695.0
0.0,0.0,0.0,2.0,-2.0,-5.0,-1.0,1.0,1651090879936695.0
0.0,1.0,-2.0,-5.0,8.0,0.0,-1.0,-1.0,1651090879959027.0
-1.0,1.0,3.0,3.0,19.0,3.0,-1.0,0.0,1651090879959027.0
-1.0,-2.0,-7.0,3.0,11.0,-7.0,-4.0,-1.0,1651090879959619.0
-1.0,-4.0,-9.0,0.0,-24.0,1.0,1.0,0.0,1651090879959619.0
-2.0,2.0,16.0,-3.0,20.0,-12.0,-1.0,-2.0,1651090879972788.0
0.0,0.0,2.0,4.0,-20.0,5.0,0.0,-1.0,1651090879972788.0
-1.0,-3.0,-13.0,0.0,-10.0,-4.0,-1.0,-1.0,1651090879980768.0
-1.0,6.0,15.0,1.0,45.0,-3.0,1.0,-3.0,1651090879980768.0
1.0,-5.0,-7.0,-1.0,10.0,7.0,1.0,1.0,1651090879996114.0
0.0,-2.0,-8.0,0.0,-12.0,-4.0,-2.0,-2.0,1651090879996114.0
-1.0,-3.0,6.0,11.0,21.0,7.0,5.0,1.0,1651090879997983.0
0.0,0.0,-1.0,-3.0,-31.0,-4.0,-2.0,-1.0,1651090879997983.0
0.0,-1.0,-6.0,-2.0,30.0,4.0,0.0,1.0,1651090880018396.0
0.0,2.0,4.0,-7.0,0.0,1.0,2.0,1.0,1651090880018396.0
0.0,-3.0,-1.0,-4.0,-26.0,0.0,-2.0,0.0,1651090880020274.0
1.0,1.0,3.0,5.0,-41.0,5.0,-1.0,-1.0,1651090880020274.0
-1.0,-1.0,-2.0,0.0,4.0,-9.0,1.0,0.0,1651090880032448.0
-1.0,-3.0,-6.0,-7.0,-1.0,-3.0,0.0,-2.0,1651090880032448.0
-1.0,-2.0,-2.0,5.0,12.0,-1.0,-1.0,-2.0,1651090880041592.0
-2.0,-3.0,-2.0,0.0,-3.0,-15.0,-2.0,0.0,1651090880041592.0
2.0,2.0,3.0,-3.0,-5.0,23.0,1.0,0.0,1651090880055929.0
-2.0,-1.0,1.0,1.0,-12.0,-15.0,-1.0,0.0,1651090880055929.0
-2.0,-1.0,0.0,-5.0,-32.0,-1.0,-2.0,-1.0,1651090880057770.0
-3.0,-2.0,-12.0,1.0,37.0,7.0,-2.0,-1.0,1651090880057770.0
-2.0,2.0,10.0,-1.0,28.0,-1.0,-1.0,-3.0,1651090880079071.0
0.0,2.0,6.0,0.0,33.0,-3.0,-1.0,0.0,1651090880079071.0
-1.0,0.0,0.0,4.0,1.0,13.0,3.0,-1.0,1651090880079923.0
-1.0,0.0,-5.0,-2.0,-25.0,-9.0,1.0,0.0,1651090880079923.0
-1.0,-4.0,-8.0,-2.0,2.0,-3.0,-1.0,1.0,1651090880092548.0
-1.0,-1.0,3.0,3.0,6.0,-1.0,0.0,-2.0,1651090880092548.0
-1.0,0.0,4.0,-7.0,9.0,-6.0,-3.0,1.0,1651090880106873.0
-2.0,-4.0,-12.0,-1.0,-17.0,8.0,2.0,2.0,1651090880106873.0
-2.0,-5.0,7.0,6.0,-2.0,-1.0,-1.0,-2.0,1651090880116698.0
1.0,7.0,5.0,2.0,-17.0,1.0,-2.0,-3.0,1651090880116698.0
0.0,-2.0,-5.0,2.0,18.0,0.0,0.0,0.0,1651090880121684.0
1.0,0.0,2.0,-3.0,30.0,3.0,0.0,1.0,1651090880121684.0
-1.0,0.0,-5.0,-5.0,-59.0,-8.0,-3.0,-3.0,1651090880139165.0
1.0,-4.0,1.0,6.0,1.0,3.0,0.0,2.0,1651090880139165.0
-1.0,-2.0,-1.0,-4.0,-33.0,7.0,0.0,1.0,1651090880140138.0
-1.0,2.0,5.0,4.0,19.0,-4.0,-2.0,-1.0,1651090880140138.0
-1.0,0.0,-8.0,2.0,-7.0,-4.0,0.0,1.0,1651090880152330.0
-1.0,-4.0,-4.0,-7.0,2.0,0.0,-1.0,-1.0,1651090880152330.0
-1.0,-3.0,-3.0,-2.0,6.0,4.0,-1.0,-3.0,1651090880168417.0
-1.0,-3.0,3.0,-4.0,-23.0,0.0,0.0,-2.0,1651090880168417.0
1.0,3.0,11.0,4.0,15.0,6.0,0.0,0.0,1651090880176457.0
1.0,-3.0,-7.0,4.0,-26.0,-9.0,1.0,0.0,1651090880176457.0
-1.0,1.0,0.0,-1.0,18.0,20.0,1.0,-1.0,1651090880177297.0
1.0,0.0,-4.0,1.0,2.0,-8.0,-1.0,1.0,1651090880177297.0
1.0,1.0,-5.0,1.0,2.0,-4.0,0.0,-2.0,1651090880199203.0
0.0,1.0,10.0,3.0,35.0,18.0,2.0,1.0,1651090880199203.0
0.0,0.0,-1.0,-5.0,-24.0,-10.0,-2.0,0.0,1651090880200462.0
-1.0,-1.0,1.0,0.0,8.0,-5.0,-1.0,-4.0,1651090880200462.0
-1.0,2.0,-3.0,-7.0,-40.0,-6.0,1.0,2.0,1651090880212625.0
-1.0,0.0,-1.0,-2.0,-10.0,-5.0,-3.0,0.0,1651090880212625.0
-2.0,-3.0,-7.0,2.0,35.0,-2.0,-1.0,0.0,1651090880220951.0
1.0,-1.0,0.0,-4.0,-16.0,18.0,2.0,0.0,1651090880220951.0
0.0,-2.0,-3.0,-6.0,8.0,-8.0,0.0,0.0,1651090880236544.0
0.0,-2.0,-2.0,1.0,-4.0,-2.0,0.0,-1.0,1651090880236544.0
0.0,1.0,6.0,6.0,44.0,2.0,0.0,0.0,1651090880237503.0
-1.0,-1.0,2.0,-3.0,-7.0,-9.0,-2.0,-1.0,1651090880237503.0
-1.0,-3.0,-14.0,-9.0,-1.0,6.0,0.0,-1.0,1651090880258634.0
-2.0,2.0,9.0,4.0,6.0,-1.0,0.0,-1.0,1651090880258634.0
0.0,1.0,7.0,3.0,-10.0,-5.0,-2.0,-1.0,1651090880259656.0
-2.0,-1.0,-5.0,-4.0,-6.0,-1.0,-2.0,-2.0,1651090880259656.0
-1.0,-2.0,0.0,1.0,29.0,1.0,1.0,0.0,1651090880272808.0
-1.0,-2.0,-7.0,-2.0,-15.0,-1.0,-1.0,-2.0,1651090880272808.0
0.0,0.0,-2.0,-2.0,-4.0,-6.0,0.0,-1.0,1651090880280776.0
1.0,1.0,9.0,-1.0,-7.0,6.0,1.0,0.0,1651090880280776.0
-1.0,-3.0,-7.0,3.0,-5.0,-1.0,-1.0,-1.0,1651090880296134.0
2.0,0.0,-6.0,-6.0,3.0,-2.0,0.0,-3.0,1651090880296134.0
1.0,-4.0,-8.0,1.0,5.0,7.0,2.0,1.0,1651090880297992.0
1.0,0.0,15.0,2.0,-7.0,-17.0,-3.0,0.0,1651090880297992.0
0.0,0.0,-1.0,-1.0,10.0,18.0,0.0,0.0,1651090880319119.0
0.0,-1.0,-1.0,0.0,-14.0,-6.0,0.0,0.0,1651090880319119.0
0.0,1.0,-2.0,-6.0,19.0,0.0,-2.0,1.0,1651090880320119.0
0.0,1.0,-1.0,0.0,-17.0,1.0,-1.0,-2.0,1651090880320119.0
0.0,-1.0,-2.0,-2.0,-5.0,-5.0,-2.0,0.0,1651090880332553.0
-1.0,-5.0,-3.0,-1.0,-23.0,-3.0,0.0,-1.0,1651090880332553.0
-1.0,-1.0,-3.0,-2.0,8.0,1.0,1.0,-1.0,1651090880341531.0
1.0,2.0,-2.0,6.0,4.0,2.0,-1.0,0.0,1651090880341531.0
0.0,0.0,6.0,0.0,-3.0,-8.0,-1.0,0.0,1651090880355869.0
-1.0,-7.0,-18.0,-2.0,4.0,11.0,0.0,0.0,1651090880355869.0
-3.0,3.0,19.0,5.0,-15.0,-9.0,-1.0,-2.0,1651090880357712.0
0.0,3.0,-4.0,-9.0,22.0,2.0,-2.0,-2.0,1651090880357712.0
3.0,0.0,-2.0,6.0,-39.0,-4.0,0.0,-1.0,1651090880379032.0
-1.0,0.0,-2.0,-4.0,4.0,1.0,-1.0,0.0,1651090880379032.0
0.0,-3.0,-5.0,-2.0,-21.0,-3.0,-1.0,-1.0,1651090880379871.0
0.0,-2.0,-3.0,6.0,39.0,5.0,2.0,0.0,1651090880379871.0
-2.0,-2.0,14.0,-2.0,-5.0,-9.0,-3.0,0.0,1651090880392141.0
0.0,1.0,-5.0,0.0,-6.0,-2.0,-1.0,0.0,1651090880392141.0
-1.0,1.0,9.0,3.0,-8.0,-4.0,0.0,-1.0,1651090880408213.0
1.0,-2.0,-3.0,-4.0,4.0,3.0,1.0,-1.0,1651090880408213.0
0.0,-1.0,-8.0,-3.0,-6.0,-4.0,1.0,1.0,1651090880416353.0
0.0,1.0,4.0,2.0,27.0,1.0,1.0,-1.0,1651090880416353.0
1.0,-1.0,-5.0,-2.0,-21.0,4.0,-1.0,-2.0,1651090880417215.0
0.0,0.0,-1.0,1.0,28.0,-4.0,-1.0,0.0,1651090880417215.0
-1.0,-2.0,0.0,1.0,9.0,3.0,1.0,-2.0,1651090880439271.0
1.0,1.0,1.0,-3.0,-2.0,1.0,-3.0,1.0,1651090880439271.0
0.0,0.0,-4.0,-2.0,-4.0,-1.0,0.0,-1.0,1651090880440302.0
-1.0,-1.0,-4.0,5.0,-13.0,-3.0,2.0,-1.0,1651090880440302.0
-1.0,5.0,12.0,2.0,9.0,4.0,1.0,0.0,1651090880452444.0
-2.0,-3.0,-6.0,-9.0,-2.0,-4.0,0.0,1.0,1651090880452444.0
-1.0,-3.0,-4.0,4.0,-3.0,4.0,-1.0,-1.0,1651090880461710.0
-1.0,0.0,1.0,1.0,-14.0,2.0,-1.0,0.0,1651090880461710.0
-1.0,0.0,-2.0,2.0,11.0,4.0,1.0,0.0,1651090880475775.0
0.0,0.0,5.0,1.0,9.0,2.0,1.0,0.0,1651090880475775.0
-2.0,-3.0,-5.0,-6.0,-7.0,-19.0,0.0,-1.0,1651090880477801.0
-1.0,-1.0,-2.0,-5.0,-16.0,8.0,-2.0,-1.0,1651090880477801.0
-1.0,-1.0,-2.0,5.0,-1.0,15.0,-1.0,-1.0,1651090880499205.0
-1.0,0.0,-5.0,2.0,14.0,8.0,0.0,-1.0,1651090880499205.0
0.0,7.0,13.0,3.0,7.0,0.0,0.0,1.0,1651090880500062.0
0.0,-3.0,-2.0,-4.0,-4.0,-8.0,-2.0,-1.0,1651090880500062.0
-1.0,-4.0,-6.0,-2.0,19.0,-11.0,1.0,0.0,1651090880512219.0
1.0,-1.0,5.0,-4.0,-11.0,2.0,-1.0,-1.0,1651090880512219.0
1.0,-1.0,-7.0,1.0,8.0,7.0,1.0,1.0,1651090880521860.0
-2.0,-2.0,4.0,-3.0,-7.0,-4.0,0.0,1.0,1651090880521860.0
-1.0,-4.0,-8.0,-9.0,-11.0,-9.0,-4.0,-2.0,1651090880536980.0
0.0,10.0,0.0,4.0,21.0,-4.0,3.0,1.0,1651090880536980.0
0.0,1.0,12.0,4.0,-15.0,-6.0,-2.0,-4.0,1651090880537852.0
-1.0,-3.0,-1.0,9.0,9.0,7.0,1.0,-1.0,1651090880537852.0
-1.0,-2.0,-5.0,-1.0,10.0,-1.0,-2.0,0.0,1651090880558141.0
0.0,-4.0,-2.0,-11.0,-7.0,-3.0,0.0,0.0,1651090880558141.0
0.0,-1.0,-7.0,-3.0,-7.0,0.0,-2.0,1.0,1651090880560167.0
0.0,3.0,0.0,2.0,-10.0,-1.0,-1.0,-1.0,1651090880560167.0
0.0,-1.0,3.0,-3.0,0.0,-5.0,-3.0,0.0,1651090880572857.0
-2.0,-1.0,3.0,5.0,12.0,7.0,2.0,2.0,1651090880572857.0
1.0,-1.0,-3.0,-3.0,5.0,6.0,1.0,1.0,1651090880580993.0
-1.0,-2.0,-8.0,0.0,-6.0,-2.0,-1.0,-1.0,1651090880580993.0
0.0,3.0,8.0,2.0,1.0,-6.0,0.0,-1.0,1651090880595924.0
-1.0,-1.0,6.0,2.0,-17.0,-6.0,-2.0,0.0,1651090880595924.0
-2.0,-2.0,-9.0,0.0,15.0,3.0,0.0,0.0,1651090880597792.0
1.0,-4.0,-6.0,-3.0,-3.0,-1.0,0.0,-1.0,1651090880597792.0
-2.0,5.0,10.0,-2.0,-12.0,-2.0,-1.0,-2.0,1651090880619207.0
0.0,-2.0,-4.0,4.0,17.0,-5.0,-2.0,0.0,1651090880619207.0
0.0,0.0,1.0,-9.0,-3.0,2.0,0.0,0.0,1651090880620068.0
-3.0,-2.0,-18.0,-1.0,4.0,-4.0,-1.0,-1.0,1651090880620068.0
0.0,1.0,13.0,-1.0,1.0,3.0,0.0,0.0,1651090880632251.0
0.0,-2.0,-1.0,-2.0,-10.0,-9.0,-1.0,-1.0,1651090880632251.0
-1.0,-1.0,-2.0,3.0,-4.0,6.0,-2.0,0.0,1651090880641536.0
1.0,0.0,0.0,10.0,3.0,-20.0,-2.0,0.0,1651090880641536.0
-1.0,-1.0,-3.0,-7.0,0.0,12.0,0.0,-2.0,1651090880663783.0
-1.0,0.0,3.0,1.0,-9.0,0.0,-1.0,-1.0,1651090880663783.0
-1.0,-2.0,-6.0,-8.0,-12.0,-2.0,0.0,0.0,1651090880664784.0
0.0,1.0,6.0,0.0,-12.0,2.0,1.0,0.0,1651090880664784.0
0.0,-3.0,-9.0,3.0,5.0,-1.0,-1.0,0.0,1651090880679142.0
0.0,-1.0,0.0,5.0,8.0,2.0,1.0,0.0,1651090880679142.0
0.0,-2.0,-1.0,-6.0,-7.0,-10.0,-2.0,-1.0,1651090880680141.0
-2.0,-1.0,3.0,-6.0,-4.0,10.0,0.0,1.0,1651090880680141.0
1.0,5.0,-13.0,1.0,-6.0,-5.0,-1.0,-1.0,1651090880692143.0
-1.0,-1.0,11.0,-2.0,-10.0,7.0,1.0,-2.0,1651090880692143.0
-1.0,0.0,-5.0,0.0,15.0,-6.0,0.0,-2.0,1651090880701085.0
1.0,2.0,4.0,0.0,-14.0,5.0,0.0,-1.0,1651090880701085.0
-2.0,-8.0,-7.0,1.0,12.0,-3.0,-1.0,1.0,1651090880716203.0
0.0,0.0,-12.0,2.0,-8.0,6.0,0.0,1.0,1651090880716203.0
0.0,4.0,20.0,4.0,-2.0,4.0,-3.0,-2.0,1651090880718042.0
-1.0,1.0,-1.0,-5.0,8.0,-11.0,0.0,0.0,1651090880718042.0
-1.0,-2.0,-3.0,1.0,-3.0,10.0,3.0,-1.0,1651090880739517.0
-1.0,-4.0,-6.0,-3.0,-3.0,-14.0,-1.0,-1.0,1651090880739517.0
-2.0,0.0,0.0,0.0,-6.0,4.0,1.0,1.0,1651090880744633.0
0.0,-3.0,-2.0,-9.0,4.0,-1.0,-1.0,-1.0,1651090880744633.0
0.0,-1.0,-2.0,4.0,8.0,-6.0,0.0,1.0,1651090880752641.0
-1.0,0.0,3.0,1.0,-22.0,6.0,1.0,-2.0,1651090880752641.0
-1.0,-1.0,-6.0,-4.0,8.0,0.0,1.0,-1.0,1651090880760945.0
0.0,0.0,3.0,1.0,-6.0,4.0,-1.0,0.0,1651090880760945.0
-1.0,1.0,-3.0,-9.0,-26.0,-10.0,-1.0,-1.0,1651090880776081.0
0.0,-3.0,-5.0,-7.0,31.0,9.0,-1.0,-1.0,1651090880776081.0
1.0,3.0,3.0,8.0,-4.0,-5.0,-1.0,1.0,1651090880783271.0
0.0,1.0,2.0,-2.0,2.0,2.0,-1.0,1.0,1651090880783271.0
-1.0,-5.0,-3.0,0.0,-10.0,-2.0,-1.0,-1.0,1651090880798606.0
-2.0,3.0,-3.0,2.0,-20.0,1.0,1.0,1.0,1651090880798606.0
-2.0,0.0,3.0,1.0,4.0,-1.0,-1.0,0.0,1651090880799604.0
-1.0,-3.0,-13.0,1.0,6.0,-9.0,1.0,-1.0,1651090880799604.0
-1.0,3.0,20.0,3.0,1.0,6.0,0.0,1.0,1651090880821681.0
-1.0,-2.0,-2.0,-6.0,7.0,-9.0,0.0,-1.0,1651090880821681.0
-1.0,-2.0,-10.0,1.0,5.0,6.0,1.0,-1.0,1651090880822952.0
0.0,-1.0,2.0,-1.0,-4.0,-3.0,-2.0,-1.0,1651090880822952.0
-1.0,-1.0,0.0,-2.0,-11.0,-1.0,-1.0,1.0,1651090880836031.0
-2.0,-2.0,-5.0,1.0,6.0,-2.0,-1.0,0.0,1651090880836031.0
2.0,1.0,3.0,4.0,-5.0,-4.0,0.0,0.0,1651090880837906.0
-1.0,-1.0,4.0,1.0,2.0,1.0,-1.0,-1.0,1651090880837906.0
-1.0,-2.0,-4.0,-2.0,11.0,-2.0,1.0,-1.0,1651090880858174.0
0.0,2.0,5.0,-4.0,-27.0,3.0,-1.0,0.0,1651090880858174.0
0.0,-2.0,-1.0,-2.0,9.0,2.0,-2.0,-1.0,1651090880860201.0
0.0,1.0,1.0,3.0,-5.0,-2.0,1.0,0.0,1651090880860201.0
2.0,6.0,1.0,8.0,30.0,16.0,2.0,1.0,1651090880881314.0
0.0,-4.0,0.0,-1.0,-7.0,-10.0,-1.0,1.0,1651090880881314.0
-1.0,-3.0,-7.0,-2.0,-12.0,16.0,0.0,0.0,1651090880882315.0
-2.0,3.0,7.0,-2.0,-7.0,-1.0,-1.0,0.0,1651090880882315.0
0.0,-3.0,-8.0,-2.0,-4.0,-4.0,-1.0,0.0,1651090880896648.0
-3.0,-6.0,-18.0,1.0,5.0,-3.0,-1.0,0.0,1651090880896648.0
1.0,1.0,9.0,2.0,5.0,-8.0,-1.0,2.0,1651090880897645.0
-1.0,1.0,12.0,3.0,-1.0,13.0,-3.0,0.0,1651090880897645.0
0.0,-1.0,-6.0,-3.0,-5.0,-6.0,-3.0,0.0,1651090880918940.0
1.0,1.0,5.0,0.0,13.0,-6.0,-2.0,-2.0,1651090880918940.0
0.0,-3.0,-12.0,0.0,-17.0,8.0,3.0,1.0,1651090880919940.0
0.0,-3.0,-9.0,-3.0,-12.0,-4.0,2.0,-2.0,1651090880919940.0
0.0,-2.0,8.0,-3.0,3.0,1.0,-1.0,0.0,1651090880941282.0
2.0,1.0,2.0,0.0,-2.0,2.0,-1.0,0.0,1651090880941282.0
-1.0,-1.0,1.0,3.0,3.0,-7.0,-1.0,-1.0,1651090880943302.0
-1.0,0.0,-1.0,-4.0,3.0,1.0,0.0,1.0,1651090880943302.0
-1.0,0.0,-2.0,-3.0,-13.0,-2.0,0.0,-2.0,1651090880955395.0
0.0,3.0,4.0,0.0,11.0,-4.0,-3.0,0.0,1651090880955395.0
-1.0,-2.0,-1.0,-6.0,2.0,4.0,0.0,1.0,1651090880962475.0
0.0,1.0,0.0,2.0,-2.0,-2.0,-2.0,0.0,1651090880962475.0
-3.0,-4.0,-7.0,0.0,-6.0,-5.0,0.0,-2.0,1651090880978772.0
-3.0,0.0,1.0,-3.0,-3.0,0.0,1.0,-1.0,1651090880978772.0
0.0,-7.0,-1.0,6.0,6.0,-4.0,-1.0,-2.0,1651090880979643.0
2.0,7.0,1.0,1.0,-14.0,-5.0,-1.0,1.0,1651090880979643.0
-1.0,-1.0,0.0,0.0,25.0,-3.0,-1.0,-2.0,1651090881001032.0
1.0,1.0,8.0,3.0,-1.0,12.0,4.0,-1.0,1651090881001032.0
-1.0,-2.0,-18.0,-3.0,-6.0,1.0,-2.0,-1.0,1651090881003031.0
-1.0,2.0,20.0,-9.0,6.0,-5.0,-12.0,-3.0,1651090881003031.0
-2.0,0.0,-5.0,2.0,18.0,-1.0,-20.0,-2.0,1651090881015247.0
0.0,-1.0,1.0,6.0,-8.0,5.0,51.0,5.0,1651090881015247.0
2.0,-2.0,-11.0,-2.0,-5.0,5.0,8.0,2.0,1651090881022420.0
-1.0,-2.0,9.0,-1.0,-9.0,2.0,5.0,-1.0,1651090881022420.0
0.0,2.0,0.0,-3.0,7.0,-2.0,-25.0,-3.0,1651090881039205.0
-3.0,-1.0,-4.0,-1.0,23.0,-8.0,-35.0,-7.0,1651090881039205.0
-3.0,-2.0,1.0,0.0,-1.0,-10.0,-5.0,-3.0,1651090881040560.0
0.0,-3.0,-8.0,-1.0,0.0,9.0,25.0,4.0,1651090881040560.0
1.0,-1.0,4.0,-1.0,-12.0,3.0,18.0,2.0,1651090881060953.0
-2.0,-3.0,-4.0,-2.0,-13.0,2.0,2.0,-2.0,1651090881060953.0
-2.0,3.0,5.0,-2.0,5.0,-2.0,17.0,-1.0,1651090881062950.0
-2.0,-2.0,0.0,0.0,-10.0,-15.0,-60.0,-7.0,1651090881062950.0
2.0,-1.0,-4.0,-3.0,42.0,5.0,-71.0,6.0,1651090881075053.0
-2.0,-2.0,-6.0,4.0,9.0,9.0,66.0,-3.0,1651090881075053.0
-30.0,-7.0,3.0,-10.0,2.0,-22.0,-55.0,-29.0,1651090881082616.0
-19.0,-7.0,-9.0,1.0,-2.0,25.0,80.0,-14.0,1651090881082616.0
44.0,14.0,8.0,3.0,3.0,15.0,-75.0,22.0,1651090881098570.0
35.0,14.0,8.0,-1.0,-19.0,10.0,56.0,64.0,1651090881098570.0
21.0,6.0,1.0,4.0,2.0,-79.0,-90.0,21.0,1651090881100414.0
-21.0,-11.0,0.0,-29.0,-6.0,-13.0,-37.0,-40.0,1651090881100414.0
-40.0,-10.0,-5.0,18.0,-35.0,38.0,-67.0,-20.0,1651090881121633.0
-47.0,-20.0,-11.0,-28.0,-20.0,-76.0,-99.0,-95.0,1651090881121633.0
30.0,8.0,0.0,33.0,-5.0,30.0,28.0,26.0,1651090881122526.0
46.0,32.0,16.0,-10.0,17.0,-42.0,60.0,66.0,1651090881122526.0
12.0,5.0,3.0,38.0,10.0,38.0,62.0,26.0,1651090881134866.0
-8.0,-4.0,-4.0,-2.0,-6.0,-9.0,29.0,27.0,1651090881134866.0
-78.0,-29.0,-5.0,-36.0,-30.0,29.0,-16.0,-72.0,1651090881143695.0
-6.0,-29.0,-21.0,-33.0,-5.0,-19.0,-14.0,-39.0,1651090881143695.0
39.0,35.0,22.0,0.0,8.0,33.0,127.0,52.0,1651090881159061.0
45.0,8.0,4.0,12.0,-5.0,-37.0,-54.0,52.0,1651090881159061.0
-15.0,8.0,0.0,31.0,27.0,23.0,26.0,-17.0,1651090881164984.0
-25.0,-9.0,-13.0,-89.0,-18.0,15.0,-99.0,-17.0,1651090881164984.0
-41.0,-45.0,-34.0,52.0,-27.0,-28.0,-93.0,-99.0,1651090881180965.0
40.0,23.0,22.0,5.0,44.0,24.0,98.0,47.0,1651090881180965.0
4.0,15.0,13.0,-24.0,-35.0,-76.0,-8.0,-10.0,1651090881188521.0
36.0,2.0,1.0,33.0,13.0,56.0,-94.0,59.0,1651090881188521.0
63.0,3.0,-12.0,-27.0,-11.0,56.0,113.0,71.0,1651090881195288.0
-35.0,-2.0,1.0,-19.0,-23.0,-74.0,-36.0,-29.0,1651090881195288.0
-48.0,-15.0,-3.0,-1.0,15.0,127.0,40.0,-59.0,1651090881203471.0
-35.0,-6.0,1.0,0.0,5.0,41.0,107.0,-2.0,1651090881203471.0
26.0,7.0,0.0,66.0,-8.0,-37.0,-19.0,8.0,1651090881218843.0
-4.0,-5.0,2.0,18.0,20.0,126.0,-108.0,-47.0,1651090881218843.0
8.0,-7.0,-6.0,-15.0,0.0,-90.0,37.0,5.0,1651090881219696.0
31.0,5.0,3.0,51.0,10.0,-42.0,-99.0,63.0,1651090881219696.0
1.0,4.0,8.0,-60.0,-3.0,9.0,99.0,-32.0,1651090881240279.0
15.0,17.0,6.0,70.0,24.0,104.0,105.0,48.0,1651090881240279.0
-57.0,-14.0,-13.0,-36.0,-17.0,-73.0,-67.0,-47.0,1651090881249190.0
-14.0,-8.0,-13.0,78.0,17.0,53.0,-29.0,-34.0,1651090881249190.0
-3.0,7.0,16.0,-57.0,14.0,-45.0,-15.0,10.0,1651090881255283.0
0.0,-6.0,-8.0,3.0,-12.0,23.0,-61.0,-43.0,1651090881255283.0
-8.0,-1.0,7.0,1.0,1.0,-30.0,123.0,40.0,1651090881263302.0
6.0,2.0,-6.0,-61.0,-8.0,-81.0,-3.0,-10.0,1651090881263302.0
-3.0,8.0,0.0,-4.0,-42.0,-95.0,-2.0,-19.0,1651090881279258.0
-12.0,-15.0,-13.0,51.0,30.0,-96.0,-88.0,-24.0,1651090881279258.0
76.0,20.0,10.0,6.0,10.0,106.0,106.0,123.0,1651090881280109.0
-95.0,-17.0,-8.0,11.0,-23.0,-115.0,-110.0,-115.0,1651090881280109.0
14.0,3.0,15.0,14.0,52.0,102.0,33.0,58.0,1651090881301666.0
-16.0,-14.0,-17.0,-116.0,-47.0,-85.0,-111.0,-32.0,1651090881301666.0
8.0,0.0,-10.0,98.0,29.0,70.0,26.0,10.0,1651090881302081.0
112.0,34.0,22.0,-19.0,1.0,-32.0,55.0,110.0,1651090881302081.0
-13.0,-5.0,-4.0,29.0,10.0,92.0,62.0,-1.0,1651090881314230.0
-30.0,-12.0,5.0,59.0,29.0,48.0,-68.0,-51.0,1651090881314230.0
-70.0,-9.0,8.0,-20.0,-3.0,-57.0,15.0,-80.0,1651090881323512.0
3.0,-5.0,-11.0,-17.0,-17.0,84.0,-46.0,-5.0,1651090881323512.0
75.0,25.0,-2.0,-43.0,-20.0,-127.0,59.0,80.0,1651090881339104.0
-22.0,-12.0,8.0,-38.0,-10.0,106.0,101.0,-39.0,1651090881339104.0
63.0,26.0,13.0,6.0,18.0,-26.0,-104.0,74.0,1651090881340527.0
-128.0,-25.0,-8.0,-40.0,-16.0,42.0,-73.0,-128.0,1651090881340527.0
57.0,5.0,12.0,106.0,31.0,-65.0,-71.0,72.0,1651090881360974.0
-43.0,-13.0,-13.0,-25.0,13.0,-37.0,-5.0,-12.0,1651090881360974.0
52.0,12.0,5.0,-30.0,-9.0,7.0,-7.0,87.0,1651090881362853.0
38.0,-2.0,-5.0,-4.0,-9.0,-17.0,110.0,12.0,1651090881362853.0
-105.0,-21.0,-10.0,-55.0,-15.0,58.0,-127.0,-128.0,1651090881374991.0
66.0,9.0,-25.0,35.0,9.0,30.0,127.0,34.0,1651090881374991.0
6.0,9.0,27.0,20.0,10.0,-23.0,-74.0,-33.0,1651090881383994.0
-52.0,-4.0,17.0,-52.0,-26.0,-46.0,91.0,-16.0,1651090881383994.0
41.0,6.0,-9.0,17.0,1.0,-30.0,91.0,66.0,1651090881398189.0
-4.0,4.0,-10.0,-14.0,-27.0,53.0,34.0,10.0,1651090881398189.0
33.0,3.0,-13.0,59.0,-3.0,-11.0,17.0,59.0,1651090881406142.0
-47.0,-11.0,-5.0,18.0,5.0,51.0,-47.0,-72.0,1651090881406142.0
-24.0,-6.0,0.0,-39.0,2.0,15.0,55.0,-3.0,1651090881421566.0
-24.0,12.0,19.0,-87.0,-16.0,39.0,-43.0,-26.0,1651090881421566.0
6.0,-13.0,-20.0,-41.0,-39.0,-89.0,54.0,-18.0,1651090881422312.0
42.0,16.0,13.0,-37.0,17.0,49.0,108.0,50.0,1651090881422312.0
-100.0,-45.0,-37.0,106.0,2.0,-52.0,-128.0,-128.0,1651090881434856.0
96.0,29.0,22.0,-70.0,-3.0,-77.0,6.0,122.0,1651090881434856.0
-16.0,-5.0,-23.0,-88.0,-19.0,92.0,-113.0,-36.0,1651090881443688.0
-54.0,-19.0,2.0,92.0,25.0,-35.0,-100.0,-42.0,1651090881443688.0
53.0,10.0,3.0,-62.0,-32.0,29.0,-67.0,-20.0,1651090881458855.0
-68.0,-8.0,-2.0,25.0,3.0,-34.0,76.0,-49.0,1651090881458855.0
67.0,-24.0,4.0,4.0,3.0,20.0,-53.0,35.0,1651090881464840.0
12.0,38.0,-25.0,-3.0,4.0,-45.0,-41.0,-4.0,1651090881464840.0
-41.0,7.0,44.0,-24.0,6.0,108.0,56.0,77.0,1651090881481518.0
-17.0,-29.0,-7.0,87.0,17.0,50.0,4.0,-89.0,1651090881481518.0
38.0,13.0,4.0,-42.0,-10.0,54.0,47.0,22.0,1651090881482502.0
-66.0,-32.0,-16.0,3.0,-2.0,112.0,-47.0,-69.0,1651090881482502.0
64.0,32.0,-2.0,10.0,3.0,-88.0,-33.0,49.0,1651090881495307.0
-13.0,17.0,19.0,80.0,-4.0,45.0,-17.0,-57.0,1651090881495307.0
-39.0,-6.0,6.0,23.0,26.0,-58.0,106.0,-33.0,1651090881503549.0
-10.0,-9.0,13.0,-9.0,3.0,-8.0,-43.0,6.0,1651090881503549.0
-75.0,-9.0,-15.0,-55.0,-19.0,108.0,102.0,-68.0,1651090881518873.0
95.0,3.0,-10.0,33.0,16.0,-39.0,-111.0,122.0,1651090881518873.0
-10.0,8.0,1.0,-22.0,-25.0,-58.0,-128.0,-42.0,1651090881519856.0
66.0,16.0,41.0,19.0,-14.0,-126.0,127.0,108.0,1651090881519856.0
-99.0,-29.0,-14.0,-95.0,-23.0,-15.0,-54.0,-89.0,1651090881540801.0
-9.0,-5.0,-25.0,75.0,31.0,95.0,-54.0,-50.0,1651090881540801.0
-31.0,-11.0,-15.0,-19.0,-24.0,-36.0,-36.0,-52.0,1651090881542796.0
7.0,8.0,-12.0,-47.0,20.0,41.0,19.0,12.0,1651090881542796.0
89.0,-1.0,19.0,0.0,-22.0,-65.0,40.0,15.0,1651090881554763.0
37.0,33.0,36.0,-92.0,-23.0,19.0,52.0,99.0,1651090881554763.0
-128.0,-20.0,-20.0,67.0,33.0,63.0,-122.0,-128.0,1651090881569755.0
127.0,-16.0,-16.0,-6.0,-1.0,9.0,-64.0,120.0,1651090881569755.0
-35.0,14.0,9.0,9.0,-3.0,38.0,13.0,-57.0,1651090881579696.0
-70.0,-13.0,-15.0,-59.0,-23.0,23.0,-92.0,-62.0,1651090881579696.0
42.0,15.0,52.0,6.0,2.0,-8.0,127.0,54.0,1651090881581694.0
-11.0,-2.0,-41.0,27.0,-4.0,-4.0,-13.0,-35.0,1651090881581694.0
-42.0,-18.0,-14.0,-27.0,0.0,-85.0,-72.0,-37.0,1651090881600640.0
-11.0,3.0,5.0,49.0,20.0,36.0,67.0,25.0,1651090881600640.0
71.0,-3.0,13.0,-35.0,-1.0,-21.0,59.0,39.0,1651090881602635.0
-22.0,6.0,-37.0,1.0,-12.0,-58.0,-32.0,-22.0,1651090881602635.0
64.0,10.0,64.0,4.0,2.0,83.0,17.0,51.0,1651090881614604.0
-95.0,-11.0,-27.0,9.0,-15.0,-11.0,34.0,-64.0,1651090881614604.0
21.0,-1.0,-19.0,-55.0,6.0,9.0,-111.0,-9.0,1651090881623579.0
-42.0,-1.0,10.0,32.0,14.0,127.0,48.0,-53.0,1651090881623579.0
5.0,-11.0,-41.0,41.0,11.0,36.0,27.0,-4.0,1651090881638540.0
-11.0,-4.0,18.0,-51.0,-34.0,-77.0,72.0,18.0,1651090881638540.0
-15.0,2.0,8.0,7.0,9.0,52.0,93.0,-3.0,1651090881640534.0
-33.0,-2.0,13.0,-31.0,-8.0,-78.0,-48.0,-44.0,1651090881640534.0
51.0,6.0,-6.0,11.0,-18.0,2.0,65.0,75.0,1651090881660513.0
-2.0,-6.0,-9.0,71.0,18.0,-38.0,-48.0,-10.0,1651090881660513.0
2.0,-17.0,-13.0,12.0,21.0,25.0,-64.0,-58.0,1651090881662476.0
-16.0,0.0,25.0,-34.0,-16.0,-37.0,-16.0,26.0,1651090881662476.0
-44.0,1.0,-34.0,-32.0,-29.0,3.0,-91.0,-98.0,1651090881674445.0
93.0,20.0,37.0,56.0,20.0,-25.0,51.0,106.0,1651090881674445.0
-52.0,7.0,-17.0,-31.0,-2.0,-16.0,-12.0,-32.0,1651090881683420.0
-49.0,-16.0,-1.0,66.0,15.0,1.0,-18.0,-20.0,1651090881683420.0
74.0,0.0,13.0,7.0,12.0,-79.0,13.0,95.0,1651090881698421.0
41.0,-2.0,-48.0,-95.0,-35.0,-80.0,-82.0,38.0,1651090881698421.0
-66.0,8.0,66.0,127.0,29.0,100.0,-48.0,-73.0,1651090881700374.0
11.0,2.0,-13.0,-6.0,22.0,61.0,85.0,45.0,1651090881700374.0
-65.0,-20.0,-54.0,-15.0,7.0,-48.0,49.0,-71.0,1651090881721351.0
-8.0,-2.0,60.0,-63.0,-11.0,-7.0,-48.0,-14.0,1651090881721351.0
36.0,-5.0,-31.0,-28.0,-17.0,11.0,48.0,3.0,1651090881722315.0
-7.0,2.0,-11.0,39.0,-24.0,-88.0,-44.0,-19.0,1651090881722315.0
-11.0,0.0,17.0,19.0,23.0,-16.0,-38.0,-77.0,1651090881734284.0
4.0,-2.0,-3.0,-49.0,-12.0,-99.0,27.0,15.0,1651090881734284.0
63.0,2.0,-37.0,18.0,-12.0,-18.0,2.0,92.0,1651090881743261.0
-9.0,6.0,52.0,36.0,26.0,20.0,-2.0,-47.0,1651090881743261.0
1.0,15.0,17.0,4.0,-7.0,79.0,54.0,17.0,1651090881758220.0
-69.0,-9.0,-17.0,-3.0,-7.0,-48.0,-114.0,-60.0,1651090881758220.0
-32.0,-7.0,-10.0,28.0,33.0,33.0,-62.0,-53.0,1651090881764204.0
76.0,28.0,-15.0,28.0,7.0,-89.0,127.0,103.0,1651090881764204.0
45.0,-17.0,-14.0,-45.0,-18.0,63.0,-128.0,-8.0,1651090881781158.0
-17.0,3.0,11.0,65.0,14.0,63.0,61.0,-39.0,1651090881781158.0
-58.0,-4.0,-8.0,-38.0,-8.0,-73.0,-88.0,-13.0,1651090881782155.0
66.0,-6.0,-16.0,28.0,1.0,40.0,-70.0,-6.0,1651090881782155.0
-31.0,15.0,49.0,-88.0,-23.0,-24.0,-58.0,25.0,1651090881804096.0
-35.0,-29.0,-40.0,23.0,0.0,109.0,65.0,-30.0,1651090881804096.0
21.0,-2.0,-36.0,-9.0,-2.0,-11.0,58.0,47.0,1651090881805094.0
-13.0,15.0,87.0,-32.0,-24.0,90.0,-82.0,-41.0,1651090881805094.0
-29.0,-5.0,-34.0,-15.0,17.0,42.0,11.0,-15.0,1651090881818059.0
47.0,-5.0,-30.0,-2.0,-8.0,63.0,51.0,7.0,1651090881818059.0
35.0,5.0,21.0,-10.0,2.0,18.0,-11.0,63.0,1651090881820054.0
4.0,8.0,-6.0,-30.0,-9.0,-19.0,70.0,1.0,1651090881820054.0
-62.0,-6.0,-22.0,5.0,17.0,77.0,-27.0,12.0,1651090881840997.0
63.0,26.0,72.0,40.0,16.0,-17.0,-109.0,-1.0,1651090881840997.0
26.0,-1.0,-28.0,-11.0,-21.0,37.0,23.0,31.0,1651090881842993.0
-8.0,-24.0,-20.0,-27.0,8.0,25.0,-28.0,-43.0,1651090881842993.0
-22.0,-2.0,5.0,52.0,4.0,-34.0,26.0,-7.0,1651090881863937.0
-19.0,6.0,-19.0,2.0,15.0,30.0,44.0,11.0,1651090881863937.0
-13.0,0.0,30.0,-31.0,-51.0,-60.0,-66.0,2.0,1651090881864940.0
-1.0,-12.0,-63.0,-26.0,24.0,1.0,14.0,-5.0,1651090881864940.0
-21.0,8.0,55.0,50.0,-10.0,-56.0,75.0,-40.0,1651090881878037.0
50.0,-4.0,-49.0,-75.0,-7.0,-48.0,9.0,64.0,1651090881878037.0
-52.0,4.0,32.0,17.0,-4.0,41.0,-30.0,-77.0,1651090881879923.0
54.0,6.0,2.0,28.0,-1.0,-22.0,5.0,49.0,1651090881879923.0
-47.0,-7.0,-24.0,-7.0,1.0,-89.0,-48.0,-18.0,1651090881901367.0
-60.0,-11.0,19.0,-2.0,35.0,125.0,-47.0,-76.0,1651090881901367.0
81.0,18.0,11.0,28.0,4.0,16.0,-2.0,99.0,1651090881902932.0
-66.0,-14.0,7.0,-5.0,10.0,91.0,13.0,-53.0,1651090881902932.0
87.0,25.0,19.0,61.0,14.0,60.0,99.0,127.0,1651090881923852.0
-35.0,-7.0,-13.0,-35.0,-28.0,-55.0,-128.0,-43.0,1651090881923852.0
-17.0,-19.0,-41.0,-15.0,23.0,111.0,-50.0,-56.0,1651090881924844.0
-26.0,-11.0,-5.0,62.0,5.0,-36.0,-79.0,-32.0,1651090881924844.0
26.0,-15.0,42.0,-69.0,-20.0,75.0,4.0,35.0,1651090881937847.0
-16.0,-5.0,-14.0,-2.0,2.0,10.0,87.0,17.0,1651090881937847.0
-68.0,-19.0,-66.0,-8.0,2.0,62.0,-75.0,-64.0,1651090881944841.0
112.0,40.0,94.0,-20.0,2.0,78.0,127.0,80.0,1651090881944841.0
-34.0,-14.0,-44.0,-27.0,-3.0,-21.0,-66.0,-28.0,1651090881961005.0
50.0,-8.0,-9.0,34.0,-15.0,38.0,-30.0,48.0,1651090881961005.0
1.0,11.0,34.0,-32.0,-7.0,-72.0,98.0,-28.0,1651090881962986.0
-70.0,-4.0,-24.0,-5.0,-9.0,80.0,-65.0,-48.0,1651090881962986.0
40.0,-12.0,-36.0,-16.0,4.0,-43.0,-35.0,24.0,1651090881983636.0
-42.0,-2.0,14.0,-4.0,-14.0,-28.0,32.0,-58.0,1651090881983636.0
58.0,1.0,0.0,19.0,4.0,-24.0,-11.0,101.0,1651090881990116.0
-14.0,0.0,-6.0,3.0,-4.0,25.0,-2.0,-24.0,1651090881990116.0
40.0,6.0,18.0,20.0,17.0,31.0,29.0,-15.0,1651090881998231.0
-40.0,-2.0,-16.0,-38.0,1.0,-48.0,17.0,-30.0,1651090881998231.0
9.0,-7.0,16.0,19.0,-5.0,-34.0,64.0,32.0,1651090882005123.0
-43.0,-10.0,-19.0,34.0,-4.0,-73.0,-52.0,-33.0,1651090882005123.0
12.0,3.0,-50.0,-30.0,-7.0,-119.0,-54.0,26.0,1651090882021372.0
-7.0,4.0,44.0,14.0,-9.0,83.0,12.0,-25.0,1651090882021372.0
15.0,-11.0,-25.0,-76.0,-9.0,-76.0,3.0,3.0,1651090882022192.0
-2.0,24.0,62.0,97.0,-8.0,-55.0,39.0,-2.0,1651090882022192.0
-2.0,4.0,7.0,17.0,29.0,34.0,4.0,-1.0,1651090882043483.0
6.0,-4.0,-44.0,-32.0,-19.0,-13.0,70.0,5.0,1651090882043483.0
4.0,2.0,22.0,2.0,-1.0,15.0,-16.0,10.0,1651090882045464.0
-31.0,-15.0,-39.0,-76.0,-27.0,-87.0,-97.0,-49.0,1651090882045464.0
-38.0,-22.0,5.0,77.0,44.0,127.0,-11.0,-86.0,1651090882057407.0
108.0,43.0,41.0,42.0,1.0,-128.0,101.0,127.0,1651090882057407.0
-4.0,8.0,18.0,-20.0,-10.0,39.0,-6.0,-46.0,1651090882064388.0
-23.0,-19.0,-25.0,-27.0,-9.0,-44.0,-42.0,-34.0,1651090882064388.0
-12.0,8.0,16.0,-14.0,-15.0,-26.0,-6.0,49.0,1651090882082428.0
-41.0,-9.0,-4.0,-24.0,-3.0,21.0,6.0,-33.0,1651090882082428.0
32.0,15.0,-8.0,60.0,14.0,84.0,58.0,9.0,1651090882083430.0
9.0,-2.0,10.0,-9.0,2.0,-1.0,-18.0,-10.0,1651090882083430.0
70.0,5.0,12.0,21.0,8.0,2.0,35.0,37.0,1651090882103763.0
-15.0,-28.0,-53.0,-12.0,-8.0,-53.0,-117.0,-25.0,1651090882103763.0
-11.0,19.0,57.0,-41.0,-2.0,-12.0,51.0,36.0,1651090882104638.0
-42.0,-4.0,16.0,24.0,-11.0,43.0,87.0,-10.0,1651090882104638.0
5.0,-6.0,-26.0,6.0,24.0,-4.0,-31.0,-20.0,1651090882118444.0
35.0,7.0,19.0,53.0,-4.0,-68.0,-69.0,34.0,1651090882118444.0
-56.0,-28.0,-40.0,17.0,5.0,-111.0,11.0,-76.0,1651090882124432.0
48.0,20.0,7.0,-7.0,19.0,40.0,-88.0,84.0,1651090882124432.0
-31.0,6.0,22.0,-52.0,-19.0,31.0,-30.0,58.0,1651090882140673.0
28.0,-3.0,-1.0,26.0,8.0,-17.0,-45.0,-8.0,1651090882140673.0
-31.0,4.0,-2.0,2.0,16.0,68.0,-38.0,-54.0,1651090882142667.0
33.0,-2.0,-14.0,-52.0,-13.0,127.0,-49.0,56.0,1651090882142667.0
-40.0,-15.0,-33.0,55.0,-17.0,-29.0,9.0,-24.0,1651090882163166.0
4.0,14.0,66.0,47.0,37.0,125.0,29.0,-48.0,1651090882163166.0
11.0,-8.0,-12.0,-44.0,-33.0,29.0,-6.0,72.0,1651090882165031.0
1.0,1.0,-32.0,30.0,27.0,-70.0,-43.0,-41.0,1651090882165031.0
-5.0,4.0,2.0,-45.0,-17.0,28.0,34.0,-26.0,1651090882178449.0
-48.0,1.0,3.0,40.0,23.0,45.0,-47.0,-16.0,1651090882178449.0
2.0,9.0,20.0,34.0,2.0,-26.0,72.0,-18.0,1651090882184340.0
20.0,-2.0,-13.0,-20.0,5.0,6.0,-20.0,11.0,1651090882184340.0
-30.0,-8.0,-17.0,-84.0,-34.0,-30.0,-95.0,-42.0,1651090882201439.0
-26.0,-7.0,-5.0,84.0,53.0,100.0,57.0,-9.0,1651090882201439.0
36.0,10.0,5.0,-30.0,-13.0,-69.0,29.0,50.0,1651090882202439.0
39.0,-1.0,-6.0,-75.0,-18.0,-69.0,103.0,47.0,1651090882202439.0
-33.0,7.0,17.0,94.0,29.0,57.0,27.0,-10.0,1651090882223426.0
64.0,6.0,-6.0,-78.0,-33.0,-53.0,-62.0,1.0,1651090882223426.0
-45.0,-7.0,11.0,23.0,10.0,-27.0,-68.0,-65.0,1651090882225412.0
2.0,-3.0,-11.0,-44.0,1.0,41.0,41.0,32.0,1651090882225412.0
-78.0,-3.0,11.0,7.0,3.0,33.0,94.0,-37.0,1651090882238397.0
-7.0,-17.0,-54.0,-72.0,-29.0,3.0,-54.0,-72.0,1651090882238397.0
53.0,18.0,40.0,79.0,16.0,-4.0,42.0,45.0,1651090882244525.0
24.0,-2.0,-17.0,14.0,-5.0,66.0,94.0,60.0,1651090882244525.0
8.0,-16.0,-12.0,-40.0,-12.0,-21.0,-55.0,-15.0,1651090882261643.0
-12.0,26.0,62.0,-30.0,-17.0,-21.0,41.0,32.0,1651090882261643.0
-17.0,-13.0,-29.0,-49.0,-13.0,4.0,43.0,-24.0,1651090882262640.0
-50.0,-3.0,-4.0,86.0,18.0,15.0,-30.0,-81.0,1651090882262640.0
94.0,8.0,-7.0,17.0,0.0,-96.0,-42.0,96.0,1651090882284040.0
-45.0,-14.0,-44.0,-47.0,-6.0,-24.0,23.0,-30.0,1651090882284040.0
73.0,11.0,27.0,9.0,7.0,104.0,-4.0,57.0,1651090882285040.0
21.0,-3.0,19.0,22.0,11.0,-111.0,50.0,40.0,1651090882285040.0
-34.0,-2.0,-10.0,5.0,1.0,-65.0,-7.0,-49.0,1651090882297532.0
-91.0,-32.0,-17.0,-45.0,-33.0,-70.0,-100.0,-82.0,1651090882297532.0
65.0,28.0,28.0,46.0,34.0,77.0,-9.0,84.0,1651090882306266.0
-1.0,-1.0,-18.0,-23.0,5.0,113.0,-61.0,-16.0,1651090882306266.0
28.0,-4.0,-4.0,5.0,-18.0,43.0,5.0,-37.0,1651090882328999.0
-66.0,-10.0,12.0,-15.0,-7.0,-7.0,-13.0,-16.0,1651090882328999.0
4.0,-7.0,-26.0,-15.0,-9.0,40.0,-113.0,-9.0,1651090882330177.0
-8.0,-10.0,-14.0,43.0,-1.0,-58.0,-45.0,-9.0,1651090882330177.0
47.0,21.0,34.0,-9.0,13.0,-43.0,65.0,101.0,1651090882344291.0
32.0,6.0,36.0,-29.0,-10.0,14.0,66.0,22.0,1651090882344291.0
-69.0,-18.0,-44.0,-20.0,-24.0,-57.0,-13.0,-31.0,1651090882345291.0
3.0,1.0,-19.0,-8.0,14.0,58.0,10.0,-55.0,1651090882345291.0
3.0,1.0,11.0,8.0,-23.0,-49.0,-115.0,-17.0,1651090882356784.0
-18.0,-10.0,-13.0,31.0,-1.0,-85.0,31.0,-4.0,1651090882356784.0
16.0,7.0,-4.0,-42.0,-9.0,-12.0,105.0,40.0,1651090882365995.0
-24.0,-3.0,-3.0,-41.0,-36.0,-58.0,-55.0,-30.0,1651090882365995.0
3.0,1.0,17.0,85.0,17.0,-29.0,-28.0,15.0,1651090882389126.0
49.0,15.0,17.0,-84.0,-3.0,100.0,31.0,23.0,1651090882389126.0
-66.0,-22.0,-38.0,91.0,20.0,-28.0,0.0,-45.0,1651090882390126.0
-25.0,1.0,15.0,-17.0,9.0,113.0,-5.0,-25.0,1651090882390126.0
3.0,14.0,1.0,-15.0,-10.0,-47.0,-115.0,37.0,1651090882411010.0
119.0,21.0,8.0,-14.0,4.0,106.0,18.0,87.0,1651090882411010.0
-39.0,-4.0,-13.0,31.0,2.0,-27.0,17.0,-42.0,1651090882412844.0
8.0,-6.0,-6.0,22.0,27.0,-14.0,-63.0,5.0,1651090882412844.0
-95.0,-10.0,24.0,-13.0,-9.0,58.0,63.0,-59.0,1651090882416834.0
84.0,14.0,4.0,18.0,-4.0,-37.0,7.0,14.0,1651090882416834.0
-57.0,-7.0,10.0,-33.0,-9.0,47.0,40.0,-98.0,1651090882426010.0
106.0,24.0,19.0,18.0,-6.0,-56.0,99.0,113.0,1651090882426010.0
-52.0,-24.0,-37.0,-3.0,-8.0,34.0,-29.0,-72.0,1651090882441188.0
-31.0,0.0,6.0,49.0,20.0,-30.0,14.0,7.0,1651090882441188.0
-12.0,-9.0,-28.0,-116.0,-9.0,-82.0,-17.0,-11.0,1651090882442187.0
-23.0,-1.0,21.0,105.0,11.0,-24.0,-28.0,-18.0,1651090882442187.0
35.0,3.0,-8.0,-63.0,28.0,127.0,83.0,23.0,1651090882463634.0
-37.0,-8.0,-12.0,11.0,0.0,12.0,-42.0,-17.0,1651090882463634.0
23.0,1.0,27.0,-6.0,-1.0,78.0,-34.0,13.0,1651090882465520.0
-8.0,4.0,-6.0,-49.0,-14.0,67.0,32.0,3.0,1651090882465520.0
11.0,7.0,6.0,7.0,-1.0,-30.0,-28.0,-18.0,1651090882477704.0
-36.0,-15.0,-20.0,36.0,5.0,-1.0,-103.0,-49.0,1651090882477704.0
-4.0,-19.0,-10.0,5.0,-2.0,0.0,-32.0,14.0,1651090882486026.0
20.0,14.0,31.0,-29.0,6.0,-6.0,25.0,27.0,1651090882486026.0
-17.0,-1.0,1.0,26.0,-15.0,-20.0,-10.0,-81.0,1651090882501618.0
5.0,7.0,-9.0,-5.0,-38.0,-11.0,-10.0,80.0,1651090882501618.0
0.0,0.0,2.0,13.0,44.0,-26.0,-26.0,55.0,1651090882502298.0
2.0,-19.0,-45.0,-7.0,5.0,-20.0,9.0,-36.0,1651090882502298.0
26.0,24.0,42.0,-6.0,13.0,-1.0,30.0,10.0,1651090882523795.0
-31.0,-7.0,-10.0,-9.0,-51.0,-59.0,15.0,-19.0,1651090882523795.0
23.0,1.0,-5.0,9.0,-27.0,-12.0,-1.0,2.0,1651090882524636.0
4.0,-3.0,5.0,7.0,-19.0,26.0,6.0,21.0,1651090882524636.0
-23.0,-4.0,-19.0,-8.0,76.0,-17.0,-21.0,-18.0,1651090882537823.0
9.0,-3.0,-4.0,-2.0,-52.0,7.0,-11.0,46.0,1651090882537823.0
26.0,0.0,12.0,29.0,43.0,20.0,-15.0,19.0,1651090882545953.0
-16.0,5.0,12.0,-20.0,-31.0,-41.0,-21.0,-38.0,1651090882545953.0
-3.0,-8.0,-12.0,0.0,16.0,-33.0,-5.0,5.0,1651090882561522.0
-4.0,-5.0,-2.0,2.0,8.0,25.0,12.0,2.0,1651090882561522.0
2.0,2.0,-14.0,-2.0,-33.0,-31.0,-27.0,-16.0,1651090882562251.0
-9.0,5.0,28.0,-13.0,-62.0,0.0,-5.0,-9.0,1651090882562251.0
8.0,-5.0,-29.0,7.0,27.0,40.0,8.0,12.0,1651090882583740.0
10.0,3.0,9.0,6.0,90.0,17.0,4.0,5.0,1651090882583740.0
-9.0,-1.0,-2.0,1.0,-11.0,-40.0,-18.0,-22.0,1651090882584582.0
-6.0,-3.0,9.0,-6.0,17.0,-14.0,-3.0,8.0,1651090882584582.0
2.0,-4.0,-14.0,-7.0,-87.0,-1.0,2.0,-16.0,1651090882614105.0
1.0,-2.0,9.0,8.0,-10.0,0.0,-20.0,16.0,1651090882614105.0
-6.0,9.0,3.0,8.0,85.0,16.0,2.0,-16.0,1651090882615105.0
-1.0,3.0,-36.0,8.0,57.0,12.0,13.0,13.0,1651090882615105.0
9.0,-7.0,52.0,-11.0,31.0,-3.0,-7.0,7.0,1651090882621123.0
-8.0,1.0,-5.0,12.0,-18.0,5.0,0.0,-20.0,1651090882621123.0
-5.0,-4.0,1.0,-11.0,-20.0,-21.0,-13.0,-5.0,1651090882622112.0
2.0,-7.0,-22.0,-10.0,-60.0,-4.0,3.0,4.0,1651090882622112.0
5.0,4.0,6.0,16.0,30.0,19.0,-10.0,4.0,1651090882651394.0
-1.0,9.0,12.0,4.0,43.0,4.0,4.0,-7.0,1651090882651394.0
-1.0,0.0,6.0,-2.0,-18.0,30.0,-4.0,-2.0,1651090882652244.0
-4.0,-8.0,-5.0,-16.0,-16.0,-23.0,-3.0,2.0,1651090882652244.0
-2.0,-12.0,-25.0,-7.0,-75.0,-25.0,1.0,-3.0,1651090882666467.0
3.0,2.0,1.0,6.0,30.0,44.0,4.0,-3.0,1651090882666467.0
-1.0,10.0,-9.0,6.0,-86.0,-17.0,-3.0,-3.0,1651090882667386.0
-3.0,-2.0,29.0,-9.0,70.0,14.0,-1.0,7.0,1651090882667386.0
6.0,-1.0,-9.0,1.0,-59.0,9.0,4.0,4.0,1651090882681416.0
-1.0,-4.0,-14.0,0.0,-8.0,1.0,-1.0,2.0,1651090882681416.0
-3.0,-1.0,6.0,-5.0,47.0,-35.0,2.0,-9.0,1651090882683409.0
7.0,3.0,3.0,1.0,-68.0,-9.0,-2.0,5.0,1651090882683409.0
2.0,0.0,-13.0,-8.0,-59.0,-12.0,0.0,0.0,1651090882703841.0
-2.0,-3.0,11.0,6.0,11.0,-4.0,-1.0,-9.0,1651090882703841.0
2.0,0.0,5.0,14.0,0.0,33.0,12.0,8.0,1651090882704717.0
-2.0,0.0,-4.0,-6.0,40.0,1.0,-2.0,1.0,1651090882704717.0
4.0,6.0,12.0,15.0,0.0,16.0,2.0,4.0,1651090882725857.0
-2.0,-7.0,-23.0,-12.0,-33.0,-8.0,0.0,-5.0,1651090882725857.0
-2.0,-2.0,32.0,0.0,-16.0,-6.0,-6.0,-3.0,1651090882727885.0
-1.0,3.0,-8.0,8.0,2.0,-3.0,1.0,5.0,1651090882727885.0
1.0,-5.0,-13.0,-1.0,-13.0,7.0,0.0,-4.0,1651090882742126.0
-3.0,-3.0,-4.0,-11.0,-56.0,-9.0,-1.0,-3.0,1651090882742126.0
2.0,1.0,2.0,10.0,53.0,9.0,4.0,1.0,1651090882747647.0
0.0,0.0,1.0,-7.0,-11.0,-8.0,-3.0,-1.0,1651090882747647.0
0.0,-3.0,-15.0,-6.0,33.0,11.0,-4.0,-1.0,1651090882763779.0
-3.0,2.0,15.0,11.0,11.0,-8.0,-1.0,0.0,1651090882763779.0
-4.0,-3.0,-2.0,-16.0,-20.0,-8.0,-5.0,-3.0,1651090882764616.0
1.0,0.0,2.0,0.0,-21.0,14.0,1.0,2.0,1651090882764616.0
0.0,0.0,-2.0,4.0,20.0,-6.0,-3.0,-1.0,1651090882785775.0
2.0,-3.0,-8.0,4.0,45.0,2.0,5.0,2.0,1651090882785775.0
-1.0,-2.0,-6.0,-2.0,-38.0,-6.0,-3.0,-4.0,1651090882793744.0
-3.0,0.0,4.0,-9.0,8.0,-5.0,-2.0,-1.0,1651090882793744.0
0.0,-1.0,-2.0,-1.0,-33.0,-4.0,-1.0,1.0,1651090882800960.0
1.0,0.0,-1.0,0.0,8.0,5.0,3.0,0.0,1651090882800960.0
0.0,3.0,5.0,6.0,36.0,-1.0,-7.0,-1.0,1651090882802823.0
-1.0,0.0,1.0,0.0,-14.0,16.0,1.0,0.0,1651090882802823.0
1.0,1.0,2.0,3.0,48.0,-2.0,0.0,1.0,1651090882823987.0
0.0,-5.0,-6.0,-7.0,-59.0,-6.0,-1.0,-1.0,1651090882823987.0
2.0,7.0,3.0,-4.0,-8.0,3.0,-1.0,-3.0,1651090882824986.0
-2.0,-2.0,-7.0,5.0,25.0,-8.0,0.0,1.0,1651090882824986.0
0.0,-1.0,6.0,-4.0,-7.0,2.0,2.0,-3.0,1651090882845341.0
-3.0,2.0,1.0,-5.0,39.0,-8.0,-1.0,0.0,1651090882845341.0
1.0,-4.0,-9.0,8.0,-61.0,17.0,3.0,0.0,1651090882853527.0
0.0,-1.0,2.0,4.0,25.0,-6.0,1.0,1.0,1651090882853527.0
-3.0,3.0,5.0,4.0,-15.0,-3.0,-2.0,0.0,1651090882860530.0
-1.0,6.0,-6.0,-8.0,-8.0,-6.0,1.0,-2.0,1651090882860530.0
-1.0,-8.0,-20.0,-16.0,2.0,-4.0,-2.0,-2.0,1651090882867617.0
-3.0,2.0,21.0,16.0,8.0,-4.0,2.0,2.0,1651090882867617.0
-1.0,-2.0,-1.0,-6.0,21.0,0.0,-2.0,2.0,1651090882883932.0
-1.0,0.0,0.0,-1.0,-30.0,4.0,0.0,1.0,1651090882883932.0
2.0,1.0,-4.0,6.0,13.0,-6.0,-1.0,-1.0,1651090882885809.0
-1.0,-2.0,-5.0,-6.0,3.0,2.0,0.0,0.0,1651090882885809.0
0.0,0.0,11.0,-1.0,-6.0,-3.0,2.0,1.0,1651090882906426.0
0.0,-1.0,-5.0,-2.0,10.0,-4.0,0.0,0.0,1651090882906426.0
-1.0,2.0,9.0,-4.0,-11.0,-1.0,-2.0,-1.0,1651090882907280.0
-2.0,-7.0,-14.0,-5.0,-35.0,-2.0,-3.0,-2.0,1651090882907280.0
0.0,1.0,3.0,4.0,40.0,3.0,-1.0,-1.0,1651090882920755.0
-1.0,-1.0,2.0,1.0,-8.0,15.0,1.0,0.0,1651090882920755.0
-1.0,4.0,5.0,3.0,6.0,-2.0,0.0,-1.0,1651090882927774.0
1.0,4.0,6.0,-2.0,-5.0,-5.0,-2.0,-2.0,1651090882927774.0
-1.0,-2.0,-8.0,-5.0,-42.0,-5.0,-3.0,-3.0,1651090882944043.0
-1.0,-1.0,1.0,2.0,67.0,-11.0,0.0,0.0,1651090882944043.0
-1.0,-2.0,-4.0,3.0,-27.0,27.0,2.0,1.0,1651090882945075.0
0.0,-5.0,-3.0,-5.0,-4.0,-4.0,-3.0,-2.0,1651090882945075.0
-1.0,-1.0,-15.0,-5.0,-13.0,6.0,2.0,-2.0,1651090882966603.0
0.0,2.0,18.0,3.0,1.0,-6.0,-1.0,0.0,1651090882966603.0
-2.0,-1.0,-2.0,-2.0,-7.0,-9.0,-2.0,-1.0,1651090882967459.0
0.0,-3.0,0.0,-12.0,-4.0,-6.0,1.0,-1.0,1651090882967459.0
-2.0,0.0,-1.0,8.0,7.0,1.0,-2.0,-2.0,1651090882980765.0
0.0,-4.0,-6.0,1.0,22.0,-2.0,-2.0,0.0,1651090882980765.0
-2.0,-1.0,-2.0,-1.0,-10.0,0.0,1.0,-1.0,1651090882987781.0
-1.0,0.0,2.0,3.0,-34.0,5.0,0.0,1.0,1651090882987781.0
0.0,1.0,1.0,-3.0,10.0,-1.0,1.0,0.0,1651090883003886.0
0.0,3.0,-1.0,-1.0,-23.0,1.0,0.0,-1.0,1651090883003886.0
-1.0,-1.0,1.0,-3.0,-10.0,-14.0,-2.0,-2.0,1651090883004886.0
0.0,-7.0,-8.0,0.0,25.0,2.0,0.0,0.0,1651090883004886.0
1.0,10.0,7.0,-1.0,-7.0,0.0,-1.0,1.0,1651090883026099.0
0.0,-3.0,-2.0,-2.0,-25.0,-11.0,-2.0,-3.0,1651090883026099.0
0.0,-2.0,-6.0,2.0,16.0,11.0,0.0,0.0,1651090883027972.0
0.0,-3.0,-15.0,-1.0,5.0,-3.0,0.0,-2.0,1651090883027972.0
0.0,0.0,23.0,4.0,-10.0,-1.0,0.0,0.0,1651090883040263.0
0.0,-4.0,-15.0,-3.0,2.0,-1.0,-2.0,-1.0,1651090883040263.0
-2.0,3.0,15.0,0.0,2.0,-10.0,-1.0,-1.0,1651090883047252.0
2.0,2.0,0.0,0.0,-15.0,-5.0,0.0,0.0,1651090883047252.0
1.0,-2.0,-8.0,1.0,12.0,10.0,0.0,0.0,1651090883064249.0
0.0,2.0,1.0,5.0,-16.0,-1.0,0.0,0.0,1651090883064249.0
-2.0,-4.0,-4.0,-7.0,5.0,-2.0,0.0,-1.0,1651090883069558.0
-4.0,-1.0,-3.0,-1.0,2.0,-5.0,-2.0,-1.0,1651090883069558.0
-1.0,-3.0,-4.0,0.0,-28.0,1.0,1.0,0.0,1651090883085869.0
-1.0,-1.0,4.0,0.0,8.0,5.0,0.0,0.0,1651090883085869.0
1.0,0.0,0.0,6.0,34.0,-5.0,-1.0,-1.0,1651090883087748.0
0.0,3.0,4.0,-9.0,-6.0,2.0,1.0,3.0,1651090883087748.0
-2.0,-2.0,-7.0,6.0,21.0,-1.0,0.0,1.0,1651090883100941.0
0.0,-1.0,1.0,-3.0,29.0,5.0,1.0,1.0,1651090883100941.0
1.0,1.0,0.0,-2.0,-26.0,-3.0,-2.0,0.0,1651090883106877.0
-1.0,0.0,-1.0,-1.0,10.0,1.0,-1.0,-1.0,1651090883106877.0
-1.0,-1.0,2.0,-2.0,2.0,-3.0,-2.0,-1.0,1651090883123939.0
2.0,-1.0,-4.0,1.0,-24.0,-5.0,-1.0,0.0,1651090883123939.0
0.0,0.0,2.0,-1.0,26.0,4.0,-1.0,-1.0,1651090883124862.0
-2.0,3.0,4.0,1.0,0.0,6.0,1.0,0.0,1651090883124862.0
-1.0,-7.0,-15.0,2.0,-2.0,-2.0,-1.0,0.0,1651090883146316.0
-2.0,2.0,14.0,1.0,6.0,-3.0,-2.0,-1.0,1651090883146316.0
1.0,-4.0,-10.0,-2.0,-14.0,-7.0,-1.0,0.0,1651090883147154.0
-1.0,1.0,6.0,6.0,4.0,4.0,2.0,1.0,1651090883147154.0
0.0,0.0,0.0,-4.0,-2.0,-6.0,0.0,-1.0,1651090883161456.0
-3.0,-1.0,-4.0,1.0,-10.0,7.0,0.0,0.0,1651090883161456.0
1.0,0.0,4.0,4.0,-14.0,-4.0,0.0,-1.0,1651090883167675.0
-1.0,1.0,-1.0,3.0,19.0,4.0,1.0,0.0,1651090883167675.0
0.0,-8.0,5.0,-2.0,-6.0,-9.0,0.0,-1.0,1651090883183676.0
-1.0,6.0,-4.0,-2.0,5.0,-7.0,-3.0,-1.0,1651090883183676.0
-2.0,-7.0,0.0,4.0,-2.0,14.0,1.0,0.0,1651090883184667.0
1.0,-1.0,-3.0,1.0,-3.0,-3.0,-3.0,-2.0,1651090883184667.0
-2.0,0.0,0.0,-4.0,-12.0,5.0,-2.0,0.0,1651090883206130.0
-1.0,-1.0,-1.0,-1.0,8.0,-6.0,-1.0,-1.0,1651090883206130.0
-1.0,6.0,1.0,-3.0,-36.0,-4.0,-3.0,-1.0,1651090883208011.0
-1.0,-3.0,-2.0,-3.0,16.0,-2.0,-1.0,-1.0,1651090883208011.0
0.0,2.0,3.0,4.0,42.0,1.0,-1.0,0.0,1651090883220684.0
-1.0,-4.0,-1.0,-5.0,-22.0,4.0,1.0,0.0,1651090883220684.0
-2.0,1.0,-6.0,-4.0,18.0,-9.0,-1.0,-2.0,1651090883228554.0
0.0,-5.0,0.0,0.0,-33.0,6.0,1.0,-2.0,1651090883228554.0
0.0,3.0,2.0,-3.0,37.0,1.0,2.0,0.0,1651090883243877.0
-1.0,-3.0,-12.0,0.0,1.0,0.0,1.0,1.0,1651090883243877.0
0.0,1.0,12.0,0.0,-25.0,-5.0,-1.0,-2.0,1651090883244876.0
0.0,3.0,2.0,2.0,10.0,-7.0,2.0,0.0,1651090883244876.0
-1.0,-2.0,-6.0,-2.0,25.0,14.0,-1.0,0.0,1651090883266015.0
3.0,-4.0,-6.0,-1.0,-58.0,-3.0,0.0,0.0,1651090883266015.0
0.0,-5.0,-8.0,-5.0,-4.0,1.0,-2.0,-1.0,1651090883267879.0
-2.0,2.0,10.0,-2.0,-27.0,-5.0,-2.0,-1.0,1651090883267879.0
-2.0,0.0,-1.0,-1.0,9.0,1.0,-2.0,-1.0,1651090883280027.0
-2.0,-1.0,1.0,0.0,13.0,-4.0,0.0,0.0,1651090883280027.0
-1.0,1.0,-4.0,-7.0,-8.0,-3.0,-1.0,1.0,1651090883288506.0
0.0,-3.0,-1.0,3.0,-18.0,-2.0,-1.0,-1.0,1651090883288506.0
-1.0,1.0,0.0,-2.0,34.0,0.0,-2.0,-3.0,1651090883303533.0
-1.0,-2.0,2.0,-3.0,-12.0,3.0,-1.0,-2.0,1651090883303533.0
0.0,0.0,-3.0,-1.0,8.0,-1.0,-1.0,-1.0,1651090883305401.0
-1.0,3.0,-1.0,-3.0,30.0,4.0,0.0,0.0,1651090883305401.0
1.0,-2.0,8.0,3.0,-38.0,-7.0,0.0,-2.0,1651090883326661.0
-1.0,8.0,0.0,3.0,12.0,0.0,0.0,-2.0,1651090883326661.0
-3.0,-4.0,-4.0,0.0,-18.0,5.0,0.0,0.0,1651090883327658.0
-2.0,-2.0,-7.0,-7.0,30.0,-6.0,-3.0,-1.0,1651090883327658.0
0.0,1.0,-2.0,2.0,-20.0,-6.0,-1.0,-1.0,1651090883339841.0
1.0,1.0,11.0,-2.0,-25.0,6.0,0.0,1.0,1651090883339841.0
0.0,-4.0,-11.0,2.0,16.0,3.0,0.0,0.0,1651090883348819.0
1.0,2.0,14.0,1.0,-4.0,-5.0,-2.0,0.0,1651090883348819.0
-2.0,-6.0,-22.0,-2.0,-8.0,-4.0,0.0,-1.0,1651090883363328.0
0.0,2.0,15.0,-3.0,6.0,-1.0,1.0,-1.0,1651090883363328.0
-1.0,0.0,-1.0,-1.0,-6.0,-10.0,-1.0,-2.0,1651090883365161.0
1.0,-7.0,-2.0,3.0,11.0,15.0,2.0,1.0,1651090883365161.0
0.0,2.0,-3.0,-2.0,1.0,-6.0,-2.0,1.0,1651090883386620.0
-2.0,-3.0,1.0,3.0,9.0,2.0,-1.0,0.0,1651090883386620.0
-1.0,-1.0,-3.0,1.0,-17.0,1.0,0.0,1.0,1651090883387483.0
-1.0,-2.0,-1.0,4.0,0.0,-3.0,-1.0,-3.0,1651090883387483.0
0.0,3.0,6.0,-2.0,-7.0,1.0,3.0,-1.0,1651090883399681.0
-1.0,-1.0,-10.0,0.0,8.0,-2.0,-2.0,0.0,1651090883399681.0
1.0,-3.0,8.0,-1.0,11.0,2.0,-1.0,-1.0,1651090883408847.0
-1.0,0.0,-8.0,-1.0,0.0,-4.0,-2.0,-1.0,1651090883408847.0
-1.0,-2.0,4.0,-1.0,-16.0,2.0,1.0,1.0,1651090883423937.0
-1.0,-1.0,-1.0,0.0,7.0,-2.0,-1.0,0.0,1651090883423937.0
-1.0,2.0,0.0,2.0,7.0,-2.0,-1.0,0.0,1651090883424938.0
1.0,-1.0,-3.0,0.0,-10.0,0.0,1.0,0.0,1651090883424938.0
-2.0,0.0,2.0,2.0,-7.0,0.0,-1.0,-1.0,1651090883446239.0
0.0,-1.0,-3.0,-3.0,7.0,-4.0,1.0,0.0,1651090883446239.0
-2.0,-3.0,-1.0,0.0,-22.0,0.0,0.0,1.0,1651090883447112.0
0.0,3.0,-2.0,-1.0,27.0,2.0,-2.0,0.0,1651090883447112.0
1.0,-5.0,-3.0,-6.0,-21.0,2.0,-1.0,0.0,1651090883460183.0
1.0,2.0,6.0,2.0,18.0,-10.0,-2.0,-1.0,1651090883460183.0
-1.0,1.0,-7.0,-5.0,-10.0,8.0,0.0,-2.0,1651090883468482.0
0.0,-1.0,11.0,2.0,4.0,-5.0,0.0,2.0,1651090883468482.0
0.0,0.0,0.0,0.0,10.0,1.0,0.0,0.0,1651090883483512.0
1.0,-3.0,-3.0,1.0,7.0,3.0,0.0,0.0,1651090883483512.0
2.0,1.0,0.0,0.0,7.0,-13.0,-1.0,-1.0,1651090883485347.0
-2.0,-1.0,-1.0,-3.0,1.0,11.0,-1.0,-1.0,1651090883485347.0
-1.0,-1.0,-2.0,2.0,10.0,2.0,1.0,-1.0,1651090883507010.0
-3.0,-3.0,-6.0,-3.0,-27.0,-12.0,0.0,0.0,1651090883507010.0
0.0,-3.0,2.0,2.0,40.0,15.0,1.0,1.0,1651090883512121.0
1.0,0.0,-6.0,0.0,-26.0,-5.0,-1.0,0.0,1651090883512121.0
0.0,-1.0,5.0,-2.0,-18.0,-4.0,-2.0,0.0,1651090883520334.0
0.0,2.0,-1.0,-1.0,14.0,7.0,-1.0,-1.0,1651090883520334.0
1.0,3.0,5.0,0.0,-2.0,-2.0,1.0,1.0,1651090883528248.0
0.0,4.0,-5.0,2.0,0.0,-4.0,0.0,-1.0,1651090883528248.0
-1.0,1.0,2.0,1.0,-4.0,3.0,-2.0,-1.0,1651090883544636.0
-1.0,-3.0,-4.0,-5.0,1.0,-3.0,-1.0,0.0,1651090883544636.0
-2.0,-4.0,-6.0,1.0,14.0,-1.0,0.0,0.0,1651090883545485.0
-2.0,5.0,18.0,4.0,5.0,0.0,0.0,0.0,1651090883545485.0
0.0,0.0,-5.0,-12.0,-2.0,2.0,-1.0,1.0,1651090883566011.0
0.0,1.0,-3.0,3.0,-7.0,3.0,1.0,-2.0,1651090883566011.0
-1.0,-4.0,-1.0,2.0,-6.0,-7.0,-2.0,-1.0,1651090883567941.0
-1.0,-1.0,-5.0,2.0,44.0,3.0,0.0,1.0,1651090883567941.0
-1.0,1.0,4.0,-2.0,-3.0,-2.0,-1.0,-2.0,1651090883580144.0
0.0,-1.0,7.0,-2.0,-6.0,7.0,0.0,1.0,1651090883580144.0
0.0,-2.0,-3.0,-5.0,-22.0,-5.0,1.0,-2.0,1651090883589145.0
0.0,-3.0,-1.0,-2.0,-9.0,-13.0,-3.0,-1.0,1651090883589145.0
0.0,0.0,-1.0,2.0,1.0,5.0,1.0,0.0,1651090883603518.0
-1.0,-1.0,-4.0,1.0,5.0,-3.0,-1.0,0.0,1651090883603518.0
-1.0,3.0,5.0,0.0,6.0,1.0,1.0,-1.0,1651090883605386.0
-1.0,-1.0,-4.0,-2.0,-16.0,-3.0,-2.0,-2.0,1651090883605386.0
0.0,-1.0,0.0,1.0,10.0,-6.0,0.0,-2.0,1651090883626633.0
0.0,-5.0,-4.0,1.0,1.0,3.0,-1.0,-1.0,1651090883626633.0
-1.0,-1.0,4.0,-1.0,-9.0,-4.0,-1.0,0.0,1651090883627519.0
-2.0,-4.0,-2.0,-4.0,-1.0,2.0,1.0,-1.0,1651090883627519.0
-1.0,2.0,-8.0,-1.0,-9.0,-7.0,0.0,0.0,1651090883639697.0
-1.0,3.0,12.0,0.0,0.0,2.0,-1.0,0.0,1651090883639697.0
0.0,-2.0,-6.0,-2.0,-10.0,-2.0,0.0,0.0,1651090883656026.0
0.0,-2.0,-2.0,-1.0,26.0,6.0,0.0,0.0,1651090883656026.0
-1.0,-4.0,1.0,3.0,-43.0,-9.0,-2.0,-3.0,1651090883663519.0
1.0,2.0,-5.0,0.0,16.0,-5.0,-2.0,1.0,1651090883663519.0
1.0,3.0,1.0,-3.0,-41.0,3.0,0.0,1.0,1651090883665351.0
0.0,-5.0,-5.0,-2.0,-3.0,-7.0,-1.0,-1.0,1651090883665351.0
0.0,-1.0,2.0,5.0,5.0,6.0,0.0,0.0,1651090883686002.0
-1.0,-2.0,-2.0,-6.0,14.0,-2.0,-1.0,0.0,1651090883686002.0
0.0,1.0,1.0,-1.0,-6.0,-4.0,0.0,0.0,1651090883687872.0
-1.0,2.0,8.0,-6.0,-20.0,-5.0,0.0,-2.0,1651090883687872.0
0.0,2.0,-4.0,5.0,16.0,12.0,-2.0,0.0,1651090883716157.0
0.0,0.0,12.0,2.0,-8.0,-2.0,0.0,-1.0,1651090883716157.0
0.0,-2.0,-13.0,1.0,32.0,-2.0,-2.0,-1.0,1651090883717188.0
-2.0,-2.0,-7.0,-2.0,-22.0,-2.0,-1.0,-1.0,1651090883717188.0
-1.0,-3.0,3.0,-3.0,29.0,1.0,1.0,1.0,1651090883723170.0
-1.0,1.0,-2.0,0.0,-3.0,4.0,-1.0,-3.0,1651090883723170.0
-1.0,0.0,7.0,1.0,7.0,4.0,-1.0,0.0,1651090883725132.0
1.0,-1.0,-4.0,-1.0,-9.0,-1.0,0.0,-1.0,1651090883725132.0
0.0,0.0,0.0,-4.0,1.0,5.0,0.0,1.0,1651090883746370.0
-2.0,-1.0,-7.0,-2.0,10.0,-9.0,-2.0,0.0,1651090883746370.0
2.0,-3.0,-3.0,3.0,-4.0,6.0,-1.0,-2.0,1651090883747268.0
0.0,3.0,11.0,0.0,-18.0,2.0,-2.0,0.0,1651090883747268.0
1.0,-2.0,-6.0,-4.0,5.0,-9.0,-2.0,-1.0,1651090883776533.0
-1.0,-2.0,1.0,5.0,8.0,1.0,0.0,-2.0,1651090883776533.0
-2.0,4.0,1.0,3.0,19.0,2.0,1.0,-1.0,1651090883777456.0
-1.0,-7.0,-9.0,-7.0,-7.0,-1.0,0.0,0.0,1651090883777456.0
-1.0,3.0,3.0,-2.0,-13.0,-5.0,-2.0,-2.0,1651090883783464.0
-1.0,-2.0,-1.0,-3.0,-11.0,2.0,0.0,-1.0,1651090883783464.0
2.0,0.0,2.0,3.0,7.0,-1.0,-1.0,0.0,1651090883785460.0
-1.0,-2.0,-8.0,4.0,-3.0,3.0,1.0,0.0,1651090883785460.0
-3.0,-1.0,12.0,-2.0,1.0,-13.0,-1.0,0.0,1651090883806608.0
0.0,-1.0,-7.0,-2.0,-12.0,10.0,-1.0,-2.0,1651090883806608.0
-1.0,0.0,0.0,-2.0,18.0,-1.0,1.0,0.0,1651090883807570.0
-1.0,0.0,-4.0,0.0,-5.0,-5.0,-2.0,-1.0,1651090883807570.0
0.0,-1.0,-3.0,-1.0,-5.0,3.0,-2.0,-3.0,1651090883828923.0
0.0,1.0,3.0,1.0,9.0,-4.0,-1.0,-1.0,1651090883828923.0
-2.0,-3.0,1.0,-2.0,-15.0,0.0,0.0,0.0,1651090883829924.0
-1.0,-8.0,-4.0,-2.0,0.0,5.0,-2.0,0.0,1651090883829924.0
-1.0,5.0,-9.0,-9.0,-2.0,-5.0,0.0,0.0,1651090883843507.0
-1.0,1.0,4.0,1.0,-27.0,-12.0,-2.0,-1.0,1651090883843507.0
1.0,-1.0,-1.0,2.0,22.0,5.0,-3.0,-2.0,1651090883849252.0
-1.0,1.0,1.0,2.0,9.0,3.0,2.0,0.0,1651090883849252.0
0.0,-2.0,0.0,-1.0,-10.0,0.0,-1.0,0.0,1651090883866296.0
0.0,0.0,-5.0,0.0,3.0,-1.0,0.0,1.0,1651090883866296.0
-1.0,-3.0,-8.0,-2.0,1.0,-7.0,-1.0,0.0,1651090883867320.0
-1.0,5.0,13.0,0.0,0.0,2.0,-1.0,-1.0,1651090883867320.0
-1.0,-5.0,-3.0,0.0,-3.0,2.0,1.0,-2.0,1651090883888955.0
0.0,-1.0,-5.0,-4.0,-9.0,0.0,0.0,1.0,1651090883888955.0
-2.0,-1.0,2.0,1.0,2.0,-2.0,0.0,-1.0,1651090883890356.0
0.0,1.0,3.0,0.0,-1.0,-2.0,0.0,0.0,1651090883890356.0
-1.0,0.0,-2.0,-4.0,-5.0,-1.0,-1.0,0.0,1651090883903571.0
-2.0,-1.0,5.0,4.0,6.0,-4.0,-2.0,0.0,1651090883903571.0
-1.0,1.0,-1.0,-5.0,-8.0,7.0,-1.0,-1.0,1651090883909777.0
0.0,0.0,-2.0,3.0,6.0,1.0,-1.0,1.0,1651090883909777.0
0.0,-5.0,-3.0,0.0,5.0,-1.0,0.0,2.0,1651090883926119.0
0.0,1.0,2.0,-2.0,1.0,-3.0,-1.0,0.0,1651090883926119.0
0.0,1.0,5.0,0.0,-1.0,-2.0,-1.0,0.0,1651090883927977.0
-1.0,1.0,-7.0,3.0,3.0,1.0,-1.0,-1.0,1651090883927977.0
0.0,-2.0,3.0,0.0,-5.0,-5.0,-1.0,-1.0,1651090883948643.0
-1.0,-1.0,-5.0,-2.0,-27.0,0.0,0.0,0.0,1651090883948643.0
-1.0,0.0,4.0,4.0,47.0,7.0,2.0,1.0,1651090883950541.0
0.0,1.0,-2.0,-5.0,-8.0,3.0,-2.0,-2.0,1651090883950541.0
-1.0,-1.0,1.0,8.0,9.0,-3.0,0.0,-1.0,1651090883962678.0
0.0,3.0,0.0,-8.0,-9.0,0.0,-2.0,0.0,1651090883962678.0
-1.0,1.0,-2.0,-5.0,-19.0,-6.0,-1.0,-3.0,1651090883969862.0
-2.0,-5.0,-2.0,1.0,1.0,-5.0,-2.0,0.0,1651090883969862.0
1.0,1.0,2.0,4.0,5.0,1.0,-1.0,-1.0,1651090883994112.0
1.0,-1.0,-1.0,4.0,14.0,9.0,1.0,1.0,1651090883994112.0
-1.0,-3.0,-1.0,-2.0,-20.0,-9.0,-1.0,0.0,1651090883995112.0
0.0,4.0,-6.0,2.0,39.0,4.0,1.0,2.0,1651090883995112.0
0.0,0.0,3.0,-2.0,-11.0,4.0,-7.0,0.0,1651090884008391.0
-2.0,-3.0,6.0,-6.0,8.0,-10.0,-18.0,-4.0,1651090884008391.0
-3.0,-1.0,-4.0,2.0,-16.0,0.0,-15.0,-3.0,1651090884010280.0
0.0,-3.0,-5.0,7.0,-16.0,9.0,58.0,2.0,1651090884010280.0
2.0,-1.0,-2.0,-3.0,5.0,1.0,15.0,4.0,1651090884023468.0
1.0,0.0,-2.0,-1.0,-19.0,4.0,16.0,6.0,1651090884023468.0
-1.0,-1.0,1.0,0.0,49.0,-7.0,-51.0,-12.0,1651090884029549.0
-11.0,-7.0,-5.0,-8.0,-14.0,-24.0,-88.0,-23.0,1651090884029549.0
0.0,0.0,-6.0,-5.0,-4.0,5.0,15.0,8.0,1651090884046035.0
15.0,7.0,5.0,13.0,-28.0,52.0,97.0,42.0,1651090884046035.0
9.0,7.0,11.0,12.0,5.0,18.0,28.0,10.0,1651090884047906.0
2.0,2.0,6.0,1.0,61.0,-1.0,-47.0,-4.0,1651090884047906.0
-9.0,-7.0,-6.0,-5.0,-23.0,-17.0,-46.0,-23.0,1651090884069000.0
-11.0,-9.0,-13.0,-12.0,-5.0,-33.0,-75.0,-18.0,1651090884069000.0
-6.0,-4.0,0.0,-1.0,-33.0,-22.0,-83.0,-15.0,1651090884070007.0
-2.0,-3.0,-6.0,-5.0,-20.0,-31.0,9.0,-6.0,1651090884070007.0
7.0,3.0,6.0,5.0,8.0,71.0,93.0,35.0,1651090884082295.0
2.0,2.0,-1.0,3.0,60.0,-6.0,-22.0,-1.0,1651090884082295.0
-4.0,-2.0,-1.0,-5.0,-13.0,16.0,112.0,4.0,1651090884091301.0
-14.0,-7.0,-7.0,-11.0,-15.0,-35.0,-113.0,-16.0,1651090884091301.0
-15.0,-4.0,5.0,-10.0,-12.0,-59.0,-37.0,-35.0,1651090884106403.0
15.0,2.0,-4.0,21.0,17.0,43.0,-7.0,13.0,1651090884106403.0
18.0,13.0,9.0,14.0,21.0,5.0,81.0,34.0,1651090884107259.0
21.0,13.0,11.0,3.0,-34.0,-6.0,54.0,46.0,1651090884107259.0
-1.0,-3.0,0.0,-5.0,5.0,44.0,1.0,7.0,1651090884129196.0
-36.0,-19.0,-20.0,-58.0,-18.0,-49.0,-75.0,-50.0,1651090884129196.0
-30.0,-17.0,-6.0,25.0,-24.0,-98.0,-128.0,-56.0,1651090884130409.0
12.0,2.0,0.0,59.0,17.0,41.0,-33.0,-6.0,1651090884130409.0
14.0,13.0,3.0,4.0,17.0,50.0,42.0,21.0,1651090884151627.0
50.0,22.0,20.0,7.0,3.0,49.0,33.0,73.0,1651090884151627.0
-8.0,-5.0,-6.0,-39.0,-27.0,-42.0,-4.0,9.0,1651090884152332.0
-35.0,-17.0,-6.0,-77.0,-33.0,-29.0,-40.0,-30.0,1651090884152332.0
-43.0,-16.0,-14.0,36.0,-1.0,-67.0,-128.0,-64.0,1651090884166606.0
27.0,4.0,-1.0,75.0,49.0,15.0,-20.0,5.0,1651090884166606.0
23.0,3.0,-3.0,-13.0,-5.0,55.0,127.0,42.0,1651090884167457.0
25.0,24.0,22.0,11.0,23.0,97.0,114.0,36.0,1651090884167457.0
15.0,1.0,-4.0,-57.0,-19.0,-10.0,-13.0,19.0,1651090884188756.0
-51.0,-22.0,-5.0,-8.0,-19.0,4.0,-16.0,-51.0,1651090884188756.0
-8.0,-2.0,-2.0,-21.0,-9.0,-40.0,20.0,-10.0,1651090884194730.0
28.0,1.0,-12.0,8.0,-4.0,-102.0,76.0,21.0,1651090884194730.0
-17.0,1.0,7.0,17.0,16.0,85.0,-12.0,-8.0,1651090884202624.0
3.0,3.0,4.0,43.0,14.0,16.0,32.0,-7.0,1651090884202624.0
-59.0,-7.0,-3.0,-12.0,8.0,34.0,16.0,-58.0,1651090884211689.0
42.0,6.0,6.0,-52.0,-4.0,88.0,70.0,54.0,1651090884211689.0
59.0,10.0,5.0,-44.0,-32.0,10.0,39.0,66.0,1651090884225787.0
-7.0,-5.0,2.0,90.0,10.0,-115.0,-57.0,-2.0,1651090884225787.0
12.0,-3.0,-9.0,-78.0,16.0,-26.0,36.0,54.0,1651090884227782.0
-51.0,-22.0,-16.0,70.0,-16.0,50.0,-128.0,-74.0,1651090884227782.0
-7.0,19.0,18.0,30.0,36.0,-80.0,41.0,-25.0,1651090884257572.0
11.0,-7.0,-2.0,-128.0,-54.0,39.0,-8.0,-23.0,1651090884257572.0
26.0,14.0,5.0,49.0,5.0,-16.0,-5.0,41.0,1651090884258569.0
-30.0,-13.0,-10.0,28.0,11.0,7.0,21.0,-19.0,1651090884258569.0
47.0,-9.0,-13.0,-16.0,-10.0,-81.0,-43.0,64.0,1651090884262557.0
-51.0,-11.0,-11.0,-22.0,-3.0,17.0,69.0,-97.0,1651090884262557.0
30.0,12.0,6.0,-98.0,-23.0,-73.0,-58.0,15.0,1651090884270847.0
-115.0,-26.0,6.0,11.0,-13.0,52.0,-44.0,-122.0,1651090884270847.0
83.0,32.0,11.0,127.0,70.0,54.0,-75.0,97.0,1651090884286009.0
-50.0,1.0,8.0,-17.0,10.0,36.0,62.0,-53.0,1651090884286009.0
78.0,0.0,-12.0,-12.0,-6.0,-24.0,-43.0,65.0,1651090884287852.0
-8.0,2.0,9.0,-16.0,0.0,-81.0,-48.0,6.0,1651090884287852.0
-33.0,-15.0,-2.0,-41.0,-13.0,120.0,49.0,-77.0,1651090884316117.0
41.0,41.0,10.0,57.0,11.0,-90.0,34.0,113.0,1651090884316117.0
-35.0,-6.0,9.0,-17.0,-3.0,26.0,33.0,-103.0,1651090884347734.0
63.0,12.0,-10.0,-7.0,-12.0,-105.0,-57.0,76.0,1651090884347734.0
-112.0,-22.0,-25.0,-47.0,-25.0,-3.0,0.0,-128.0,1651090884347734.0
62.0,2.0,43.0,39.0,12.0,29.0,-78.0,93.0,1651090884347734.0
-83.0,-1.0,-10.0,-25.0,-29.0,57.0,51.0,-113.0,1651090884349732.0
-7.0,0.0,-8.0,3.0,30.0,67.0,-68.0,32.0,1651090884349732.0
-2.0,-17.0,-35.0,3.0,-15.0,-106.0,106.0,-24.0,1651090884353753.0
-10.0,-10.0,-22.0,-42.0,-13.0,18.0,-27.0,-49.0,1651090884353753.0
58.0,13.0,7.0,79.0,-3.0,42.0,-62.0,64.0,1651090884354740.0
71.0,16.0,12.0,-48.0,4.0,-6.0,-22.0,11.0,1651090884354740.0
-55.0,-21.0,-29.0,-42.0,-15.0,-99.0,-69.0,-54.0,1651090884369194.0
-85.0,-23.0,10.0,30.0,7.0,64.0,5.0,-86.0,1651090884369194.0
27.0,22.0,25.0,42.0,17.0,45.0,-13.0,81.0,1651090884369765.0
-25.0,19.0,35.0,36.0,18.0,82.0,0.0,-47.0,1651090884369765.0
34.0,4.0,-2.0,-30.0,-6.0,-9.0,92.0,77.0,1651090884382745.0
30.0,-2.0,-29.0,29.0,-23.0,-128.0,22.0,22.0,1651090884382745.0
3.0,-21.0,-29.0,69.0,35.0,11.0,-62.0,-1.0,1651090884391299.0
29.0,-8.0,-8.0,-15.0,2.0,39.0,127.0,-19.0,1651090884391299.0
-5.0,28.0,51.0,-13.0,1.0,45.0,-88.0,-18.0,1651090884406625.0
9.0,6.0,-16.0,-73.0,-15.0,18.0,13.0,0.0,1651090884406625.0
-14.0,-12.0,-1.0,17.0,-15.0,-96.0,-35.0,13.0,1651090884407474.0
-36.0,-11.0,-20.0,9.0,15.0,-11.0,-37.0,-65.0,1651090884407474.0
-11.0,-5.0,30.0,7.0,-6.0,-84.0,58.0,53.0,1651090884427803.0
-12.0,4.0,-13.0,-34.0,-34.0,-42.0,-128.0,-43.0,1651090884427803.0
15.0,-1.0,-18.0,49.0,13.0,127.0,127.0,51.0,1651090884435968.0
-10.0,-2.0,16.0,-61.0,-29.0,-128.0,15.0,-44.0,1651090884435968.0
87.0,3.0,-7.0,93.0,53.0,6.0,-87.0,67.0,1651090884441827.0
-26.0,3.0,-6.0,-10.0,-2.0,7.0,18.0,-20.0,1651090884441827.0
-36.0,4.0,32.0,-41.0,-6.0,-44.0,-111.0,-55.0,1651090884450772.0
-28.0,-20.0,-63.0,15.0,-21.0,-2.0,21.0,-32.0,1651090884450772.0
5.0,10.0,55.0,64.0,14.0,29.0,-32.0,38.0,1651090884465732.0
22.0,-4.0,-27.0,-85.0,1.0,36.0,74.0,55.0,1651090884465732.0
-1.0,1.0,5.0,13.0,25.0,-40.0,-24.0,-21.0,1651090884467726.0
-3.0,2.0,-1.0,-19.0,-28.0,-3.0,92.0,12.0,1651090884467726.0
-59.0,-16.0,-26.0,-46.0,-8.0,42.0,-41.0,-83.0,1651090884488670.0
56.0,12.0,24.0,52.0,-1.0,-24.0,41.0,71.0,1651090884488670.0
-42.0,-11.0,-25.0,0.0,-2.0,-40.0,-108.0,-87.0,1651090884489668.0
20.0,-2.0,17.0,-9.0,17.0,97.0,34.0,102.0,1651090884489668.0
5.0,23.0,4.0,20.0,-17.0,11.0,-16.0,-14.0,1651090884510052.0
30.0,2.0,7.0,-39.0,14.0,75.0,-66.0,12.0,1651090884510052.0
-24.0,-15.0,9.0,0.0,-7.0,-59.0,-49.0,-36.0,1651090884519061.0
-48.0,-13.0,0.0,41.0,0.0,-47.0,60.0,-47.0,1651090884519061.0
4.0,-3.0,-53.0,-61.0,-5.0,100.0,39.0,7.0,1651090884526049.0
7.0,17.0,10.0,25.0,5.0,-119.0,22.0,12.0,1651090884526049.0
36.0,0.0,1.0,14.0,-6.0,-10.0,-74.0,7.0,1651090884527904.0
12.0,14.0,11.0,-25.0,-1.0,57.0,28.0,26.0,1651090884527904.0
-17.0,-14.0,26.0,68.0,8.0,-2.0,8.0,-33.0,1651090884548494.0
-30.0,-11.0,-13.0,-2.0,-1.0,48.0,-9.0,-22.0,1651090884548494.0
16.0,4.0,-8.0,12.0,-14.0,-14.0,79.0,47.0,1651090884550235.0
23.0,9.0,1.0,27.0,23.0,63.0,-58.0,22.0,1651090884550235.0
22.0,-19.0,-26.0,19.0,3.0,21.0,-6.0,-28.0,1651090884570483.0
-28.0,-5.0,34.0,10.0,24.0,105.0,-27.0,-27.0,1651090884570483.0
18.0,12.0,21.0,-9.0,-5.0,35.0,-7.0,27.0,1651090884578477.0
11.0,2.0,-8.0,-15.0,-12.0,-35.0,59.0,26.0,1651090884578477.0
18.0,17.0,-20.0,-19.0,-4.0,48.0,38.0,27.0,1651090884586592.0
-38.0,-6.0,38.0,18.0,-3.0,-48.0,-49.0,-58.0,1651090884586592.0
7.0,-10.0,-35.0,-62.0,-25.0,-15.0,-35.0,7.0,1651090884587441.0
-35.0,-5.0,20.0,35.0,1.0,-51.0,-64.0,-27.0,1651090884587441.0
9.0,-10.0,-16.0,11.0,21.0,66.0,68.0,-14.0,1651090884609647.0
68.0,10.0,-17.0,-16.0,-3.0,7.0,118.0,97.0,1651090884609647.0
9.0,18.0,-9.0,-26.0,-12.0,95.0,-67.0,-25.0,1651090884610648.0
10.0,-2.0,25.0,78.0,24.0,-59.0,6.0,-14.0,1651090884610648.0
-37.0,-19.0,-8.0,-21.0,-21.0,-128.0,3.0,-14.0,1651090884631632.0
-67.0,-10.0,1.0,-10.0,-9.0,45.0,-103.0,-92.0,1651090884631632.0
81.0,-1.0,-27.0,-32.0,8.0,15.0,81.0,91.0,1651090884632977.0
-28.0,3.0,8.0,-37.0,-14.0,52.0,-50.0,-18.0,1651090884632977.0
-17.0,-13.0,8.0,-2.0,-24.0,-35.0,-90.0,-55.0,1651090884646103.0
7.0,-5.0,-4.0,-27.0,-2.0,-56.0,77.0,58.0,1651090884646103.0
-55.0,0.0,8.0,86.0,35.0,82.0,94.0,-47.0,1651090884647937.0
52.0,2.0,-27.0,-69.0,-33.0,-101.0,-75.0,68.0,1651090884647937.0
10.0,14.0,38.0,63.0,46.0,95.0,83.0,21.0,1651090884669203.0
-15.0,-7.0,-21.0,-29.0,-17.0,-102.0,-95.0,-23.0,1651090884669203.0
-12.0,2.0,33.0,2.0,10.0,67.0,100.0,8.0,1651090884670464.0
-17.0,-9.0,-12.0,12.0,6.0,22.0,0.0,-34.0,1651090884670464.0
45.0,13.0,-3.0,-54.0,-2.0,17.0,-43.0,57.0,1651090884690612.0
-41.0,-7.0,7.0,9.0,-3.0,31.0,47.0,-42.0,1651090884690612.0
-39.0,-22.0,-31.0,-12.0,4.0,-4.0,-109.0,-34.0,1651090884692642.0
80.0,17.0,36.0,-6.0,-6.0,25.0,-20.0,33.0,1651090884692642.0
0.0,1.0,-17.0,-20.0,-4.0,-91.0,0.0,-19.0,1651090884705614.0
-20.0,-10.0,-31.0,31.0,1.0,64.0,9.0,-17.0,1651090884705614.0
18.0,11.0,45.0,11.0,7.0,-35.0,94.0,58.0,1651090884707568.0
-12.0,3.0,-14.0,-6.0,-5.0,13.0,-26.0,-2.0,1651090884707568.0
-44.0,-12.0,-1.0,-8.0,-29.0,-93.0,-46.0,-30.0,1651090884728901.0
63.0,9.0,-30.0,-32.0,-13.0,25.0,6.0,32.0,1651090884728901.0
-46.0,-7.0,-1.0,-1.0,13.0,-1.0,-42.0,-53.0,1651090884729919.0
15.0,-3.0,-9.0,7.0,-16.0,-69.0,88.0,46.0,1651090884729919.0
8.0,10.0,7.0,-42.0,-19.0,-53.0,-87.0,-5.0,1651090884751510.0
2.0,2.0,5.0,76.0,23.0,62.0,49.0,-6.0,1651090884751510.0
7.0,-5.0,1.0,1.0,11.0,12.0,-8.0,12.0,1651090884752301.0
-20.0,-13.0,-22.0,-17.0,-1.0,13.0,-7.0,-1.0,1651090884752301.0
-14.0,-7.0,4.0,-46.0,-34.0,44.0,-56.0,-29.0,1651090884765583.0
51.0,25.0,22.0,57.0,39.0,-12.0,-9.0,52.0,1651090884765583.0
3.0,-11.0,13.0,42.0,2.0,-23.0,-25.0,-21.0,1651090884772601.0
-30.0,9.0,6.0,10.0,28.0,63.0,-105.0,-54.0,1651090884772601.0
32.0,4.0,7.0,-16.0,0.0,39.0,127.0,74.0,1651090884788875.0
-13.0,-12.0,-23.0,-11.0,1.0,82.0,-51.0,-16.0,1651090884788875.0
-20.0,-10.0,-24.0,-21.0,-27.0,-58.0,-9.0,-52.0,1651090884794726.0
-3.0,0.0,18.0,23.0,6.0,-18.0,45.0,36.0,1651090884794726.0
-59.0,2.0,24.0,-52.0,-6.0,42.0,-20.0,-91.0,1651090884811010.0
35.0,0.0,-21.0,6.0,3.0,-64.0,-35.0,82.0,1651090884811010.0
-14.0,4.0,13.0,18.0,3.0,69.0,10.0,-38.0,1651090884812891.0
21.0,3.0,-13.0,-12.0,-17.0,-68.0,79.0,57.0,1651090884812891.0
-18.0,-6.0,-14.0,-18.0,23.0,-4.0,11.0,-40.0,1651090884826030.0
-10.0,-1.0,32.0,40.0,-9.0,-128.0,-128.0,-28.0,1651090884826030.0
-29.0,6.0,-23.0,22.0,10.0,15.0,-44.0,-26.0,1651090884832682.0
73.0,-1.0,11.0,-9.0,8.0,14.0,57.0,69.0,1651090884832682.0
0.0,3.0,15.0,32.0,2.0,37.0,-67.0,7.0,1651090884849106.0
-31.0,-14.0,-29.0,-94.0,-11.0,3.0,-31.0,-20.0,1651090884849106.0
-6.0,-8.0,-50.0,19.0,-27.0,15.0,-24.0,-10.0,1651090884850021.0
-4.0,5.0,40.0,50.0,15.0,-32.0,-46.0,-16.0,1651090884850021.0
16.0,-17.0,-33.0,-30.0,-6.0,-65.0,-55.0,10.0,1651090884871524.0
24.0,15.0,41.0,26.0,4.0,109.0,55.0,24.0,1651090884871524.0
-44.0,1.0,-10.0,-44.0,-13.0,18.0,22.0,-35.0,1651090884872398.0
7.0,-16.0,-25.0,-57.0,-32.0,24.0,-81.0,15.0,1651090884872398.0
-13.0,-12.0,-9.0,108.0,49.0,98.0,-16.0,1.0,1651090884885600.0
36.0,23.0,7.0,-28.0,13.0,-60.0,4.0,37.0,1651090884885600.0
31.0,-1.0,11.0,-12.0,-6.0,-28.0,-14.0,32.0,1651090884893633.0
-44.0,2.0,2.0,-27.0,5.0,42.0,30.0,-61.0,1651090884893633.0
16.0,16.0,37.0,-2.0,-17.0,-4.0,-2.0,24.0,1651090884908857.0
-30.0,-18.0,-38.0,18.0,-4.0,-8.0,105.0,-55.0,1651090884908857.0
41.0,6.0,8.0,-50.0,14.0,66.0,-29.0,65.0,1651090884909857.0
-14.0,7.0,-14.0,0.0,-1.0,-11.0,-10.0,-40.0,1651090884909857.0
-3.0,6.0,33.0,8.0,-16.0,88.0,-69.0,28.0,1651090884931580.0
-4.0,-9.0,-1.0,79.0,41.0,124.0,21.0,-8.0,1651090884931580.0
3.0,4.0,7.0,-15.0,9.0,-94.0,25.0,7.0,1651090884932094.0
14.0,-17.0,-48.0,-12.0,-23.0,-4.0,-32.0,-13.0,1651090884932094.0
-17.0,6.0,-10.0,7.0,-3.0,-79.0,3.0,-1.0,1651090884945424.0
9.0,6.0,16.0,-42.0,-10.0,76.0,-35.0,13.0,1651090884945424.0
-17.0,-9.0,3.0,-7.0,-3.0,-85.0,43.0,-39.0,1651090884952443.0
-7.0,5.0,-11.0,33.0,8.0,106.0,-5.0,-11.0,1651090884952443.0
48.0,8.0,4.0,-29.0,-2.0,15.0,2.0,43.0,1651090884969184.0
3.0,-2.0,-14.0,47.0,-13.0,-30.0,64.0,26.0,1651090884969184.0
-22.0,-5.0,24.0,-18.0,-26.0,-59.0,-56.0,-35.0,1651090884970482.0
-36.0,17.0,26.0,14.0,26.0,-42.0,65.0,-19.0,1651090884970482.0
4.0,-14.0,-23.0,-20.0,-20.0,-7.0,-77.0,-40.0,1651090884991930.0
21.0,-4.0,-14.0,-27.0,0.0,-25.0,-20.0,-10.0,1651090884991930.0
13.0,18.0,35.0,20.0,-7.0,85.0,48.0,20.0,1651090884992930.0
-69.0,-17.0,-25.0,-9.0,19.0,61.0,-111.0,-48.0,1651090884992930.0
-7.0,-20.0,-44.0,-38.0,-7.0,-13.0,81.0,-9.0,1651090885005222.0
52.0,21.0,38.0,40.0,12.0,36.0,-62.0,39.0,1651090885005222.0
-1.0,-8.0,-3.0,-8.0,-9.0,-78.0,-63.0,-52.0,1651090885012203.0
55.0,18.0,16.0,12.0,-13.0,-30.0,44.0,96.0,1651090885012203.0
-47.0,-12.0,-35.0,36.0,14.0,-9.0,-24.0,-12.0,1651090885029086.0
-33.0,-13.0,10.0,-6.0,-13.0,-104.0,-92.0,-73.0,1651090885029086.0
11.0,17.0,48.0,-1.0,17.0,121.0,86.0,13.0,1651090885030265.0
27.0,-5.0,-34.0,-19.0,-7.0,-43.0,32.0,24.0,1651090885030265.0
-32.0,-4.0,-19.0,-42.0,-34.0,-51.0,-2.0,-22.0,1651090885051615.0
-5.0,-8.0,-1.0,34.0,-3.0,16.0,49.0,-30.0,1651090885051615.0
26.0,11.0,-10.0,11.0,2.0,-4.0,33.0,74.0,1651090885052389.0
3.0,-18.0,-8.0,-7.0,6.0,-8.0,38.0,-3.0,1651090885052389.0
-10.0,6.0,27.0,-17.0,9.0,62.0,-67.0,-58.0,1651090885065659.0
4.0,-1.0,-12.0,28.0,-18.0,84.0,74.0,52.0,1651090885065659.0
30.0,2.0,0.0,-1.0,17.0,-36.0,19.0,41.0,1651090885072736.0
13.0,5.0,-5.0,-31.0,-23.0,76.0,-26.0,-13.0,1651090885072736.0
5.0,8.0,16.0,16.0,-3.0,-14.0,-29.0,-3.0,1651090885088741.0
-58.0,-31.0,-23.0,7.0,-5.0,7.0,-47.0,-73.0,1651090885088741.0
0.0,0.0,10.0,6.0,10.0,71.0,24.0,20.0,1651090885089627.0
-2.0,4.0,-5.0,22.0,6.0,78.0,14.0,18.0,1651090885089627.0
-10.0,2.0,22.0,-52.0,-8.0,-99.0,-24.0,-3.0,1651090885111637.0
-49.0,-10.0,-16.0,-10.0,-25.0,-26.0,-83.0,-84.0,1651090885111637.0
63.0,9.0,9.0,52.0,38.0,-109.0,-109.0,88.0,1651090885112964.0
-15.0,-11.0,0.0,4.0,-9.0,50.0,32.0,-45.0,1651090885112964.0
26.0,8.0,14.0,-31.0,-3.0,87.0,127.0,22.0,1651090885125059.0
-19.0,-1.0,-30.0,0.0,18.0,-14.0,-55.0,2.0,1651090885125059.0
12.0,-8.0,-2.0,-27.0,-9.0,67.0,19.0,33.0,1651090885133382.0
2.0,-3.0,28.0,43.0,9.0,-46.0,-128.0,-32.0,1651090885133382.0
-58.0,2.0,-18.0,40.0,7.0,-15.0,-37.0,-24.0,1651090885148556.0
65.0,-5.0,30.0,-77.0,1.0,1.0,-24.0,47.0,1651090885148556.0
21.0,20.0,-38.0,17.0,-15.0,42.0,-38.0,7.0,1651090885150244.0
-25.0,-11.0,13.0,-7.0,-1.0,69.0,-35.0,-22.0,1651090885150244.0
-38.0,-10.0,-16.0,18.0,-12.0,-45.0,4.0,-63.0,1651090885171653.0
16.0,7.0,-20.0,33.0,16.0,60.0,9.0,51.0,1651090885171653.0
9.0,0.0,46.0,-39.0,-13.0,-47.0,-2.0,-9.0,1651090885172392.0
-19.0,-6.0,-47.0,-60.0,1.0,-86.0,27.0,-36.0,1651090885172392.0
61.0,23.0,61.0,85.0,40.0,110.0,125.0,77.0,1651090885184706.0
-55.0,0.0,0.0,-51.0,-16.0,-42.0,-26.0,-44.0,1651090885184706.0
0.0,-23.0,-45.0,-24.0,-21.0,-27.0,-24.0,-35.0,1651090885193714.0
-2.0,3.0,15.0,70.0,0.0,-25.0,-85.0,-17.0,1651090885193714.0
-21.0,-24.0,-35.0,-87.0,2.0,17.0,31.0,-37.0,1651090885208676.0
12.0,18.0,1.0,-11.0,-11.0,-71.0,25.0,11.0,1651090885208676.0
7.0,-5.0,25.0,88.0,36.0,89.0,-2.0,60.0,1651090885209692.0
25.0,5.0,5.0,-29.0,-10.0,17.0,-54.0,7.0,1651090885209692.0
-19.0,-15.0,-17.0,9.0,-18.0,-92.0,20.0,-1.0,1651090885230937.0
-5.0,-1.0,15.0,-2.0,-16.0,25.0,-42.0,-14.0,1651090885230937.0
-18.0,16.0,-39.0,-49.0,0.0,-61.0,40.0,-34.0,1651090885232826.0
-43.0,-10.0,17.0,16.0,12.0,-65.0,-65.0,-40.0,1651090885232826.0
66.0,24.0,6.0,16.0,-10.0,-65.0,36.0,82.0,1651090885245137.0
-10.0,-10.0,-4.0,-53.0,22.0,1.0,44.0,1.0,1651090885245137.0
12.0,-8.0,-21.0,35.0,-8.0,32.0,-16.0,-18.0,1651090885254004.0
-27.0,2.0,15.0,14.0,-1.0,72.0,-25.0,-32.0,1651090885254004.0
36.0,13.0,14.0,33.0,7.0,-14.0,-88.0,56.0,1651090885269201.0
-30.0,-7.0,17.0,-35.0,-19.0,40.0,3.0,-22.0,1651090885269201.0
5.0,-18.0,-40.0,-42.0,-18.0,-75.0,103.0,-13.0,1651090885270234.0
0.0,2.0,20.0,16.0,24.0,91.0,17.0,13.0,1651090885270234.0
-41.0,0.0,-10.0,40.0,5.0,-88.0,-94.0,-76.0,1651090885290559.0
70.0,14.0,4.0,19.0,-7.0,-58.0,105.0,82.0,1651090885290559.0
-40.0,-22.0,-6.0,-35.0,4.0,105.0,-90.0,-64.0,1651090885292531.0
33.0,5.0,-6.0,-61.0,-23.0,-67.0,127.0,83.0,1651090885292531.0
-30.0,-18.0,-19.0,72.0,20.0,47.0,17.0,-58.0,1651090885304882.0
12.0,7.0,9.0,-30.0,17.0,34.0,-23.0,20.0,1651090885304882.0
-18.0,27.0,36.0,59.0,0.0,24.0,46.0,-8.0,1651090885313706.0
-37.0,-14.0,9.0,10.0,-7.0,-54.0,-107.0,-66.0,1651090885313706.0
63.0,5.0,-20.0,-10.0,17.0,48.0,94.0,105.0,1651090885329199.0
-8.0,-3.0,5.0,34.0,11.0,-21.0,-69.0,-25.0,1651090885329199.0
-38.0,-8.0,-36.0,-20.0,-2.0,-46.0,-8.0,-22.0,1651090885335319.0
29.0,13.0,25.0,30.0,-7.0,-13.0,-18.0,-8.0,1651090885335319.0
-7.0,-8.0,19.0,-74.0,-41.0,41.0,34.0,-3.0,1651090885359129.0
-4.0,-4.0,-26.0,39.0,29.0,-68.0,-25.0,-4.0,1651090885359129.0
8.0,6.0,17.0,6.0,-3.0,-32.0,61.0,29.0,1651090885360504.0
-11.0,3.0,-14.0,2.0,10.0,-5.0,83.0,-7.0,1651090885360504.0
13.0,9.0,-5.0,-36.0,-21.0,29.0,15.0,57.0,1651090885364494.0
32.0,-11.0,-2.0,14.0,-9.0,-99.0,9.0,17.0,1651090885364494.0
-45.0,-7.0,-14.0,-27.0,-4.0,-23.0,-74.0,-35.0,1651090885380798.0
0.0,-2.0,-1.0,-58.0,-11.0,-8.0,-27.0,-9.0,1651090885380798.0
13.0,1.0,-8.0,48.0,18.0,-8.0,5.0,-22.0,1651090885388996.0
-29.0,7.0,38.0,-32.0,-31.0,67.0,-45.0,-23.0,1651090885388996.0
24.0,8.0,-5.0,61.0,50.0,30.0,42.0,35.0,1651090885389997.0
-25.0,-24.0,-47.0,-26.0,-19.0,-60.0,-20.0,-16.0,1651090885389997.0
-30.0,4.0,67.0,13.0,2.0,77.0,51.0,-29.0,1651090885411603.0
51.0,12.0,-33.0,-36.0,-28.0,-53.0,19.0,56.0,1651090885411603.0
-72.0,-12.0,2.0,27.0,5.0,-18.0,-124.0,-54.0,1651090885412202.0
91.0,18.0,26.0,10.0,14.0,75.0,105.0,61.0,1651090885412202.0
-79.0,-7.0,-34.0,-6.0,-9.0,35.0,-106.0,-30.0,1651090885424952.0
16.0,-16.0,13.0,-2.0,-11.0,-14.0,-2.0,-12.0,1651090885424952.0
5.0,0.0,-5.0,-39.0,-11.0,43.0,-31.0,-8.0,1651090885441254.0
-54.0,-3.0,24.0,55.0,13.0,-49.0,-55.0,-34.0,1651090885441254.0
55.0,16.0,-10.0,-100.0,-25.0,30.0,28.0,74.0,1651090885448379.0
6.0,12.0,15.0,92.0,37.0,89.0,49.0,21.0,1651090885448379.0
7.0,-15.0,-22.0,-13.0,-3.0,29.0,-38.0,4.0,1651090885450265.0
-19.0,11.0,-8.0,-34.0,-27.0,-19.0,-31.0,-28.0,1651090885450265.0
13.0,-12.0,-1.0,13.0,-16.0,-73.0,-128.0,-17.0,1651090885471590.0
-11.0,0.0,8.0,-10.0,0.0,71.0,40.0,-12.0,1651090885471590.0
-3.0,-5.0,12.0,8.0,-28.0,-49.0,90.0,4.0,1651090885472340.0
-1.0,3.0,1.0,5.0,28.0,-12.0,-24.0,26.0,1651090885472340.0
70.0,7.0,3.0,2.0,-13.0,40.0,-56.0,11.0,1651090885484833.0
-5.0,6.0,-12.0,-11.0,23.0,75.0,80.0,-9.0,1651090885484833.0
-9.0,-15.0,8.0,14.0,-16.0,-64.0,-72.0,-46.0,1651090885493663.0
-37.0,7.0,19.0,-32.0,-24.0,13.0,37.0,5.0,1651090885493663.0
-47.0,-7.0,-27.0,6.0,25.0,-21.0,71.0,-9.0,1651090885508802.0
38.0,-2.0,-6.0,32.0,7.0,-36.0,-44.0,1.0,1651090885508802.0
21.0,12.0,7.0,-28.0,-4.0,42.0,99.0,28.0,1651090885509800.0
82.0,-11.0,-24.0,-4.0,2.0,0.0,19.0,44.0,1651090885509800.0
-57.0,4.0,10.0,17.0,16.0,-47.0,-2.0,1.0,1651090885530952.0
-68.0,14.0,6.0,-9.0,-14.0,-20.0,-16.0,-46.0,1651090885530952.0
-1.0,8.0,7.0,-27.0,-22.0,4.0,-17.0,9.0,1651090885532966.0
2.0,-3.0,-17.0,-1.0,3.0,-1.0,-11.0,3.0,1651090885532966.0
11.0,-9.0,6.0,35.0,21.0,57.0,-24.0,-20.0,1651090885554211.0
-7.0,-9.0,-13.0,-31.0,-5.0,3.0,-31.0,-11.0,1651090885554211.0
-3.0,-3.0,1.0,0.0,-5.0,-9.0,-39.0,-22.0,1651090885555211.0
2.0,-2.0,10.0,17.0,0.0,0.0,39.0,11.0,1651090885555211.0
9.0,1.0,-11.0,1.0,-6.0,-13.0,8.0,6.0,1651090885569241.0
-7.0,4.0,11.0,-9.0,-13.0,-72.0,12.0,-45.0,1651090885569241.0
10.0,-1.0,-2.0,-4.0,12.0,10.0,-6.0,28.0,1651090885570272.0
-9.0,-7.0,-3.0,8.0,-11.0,51.0,13.0,17.0,1651090885570272.0
13.0,3.0,-1.0,2.0,7.0,-90.0,-5.0,6.0,1651090885591396.0
-11.0,-17.0,-4.0,-12.0,-23.0,-9.0,-6.0,1.0,1651090885591396.0
-18.0,-20.0,0.0,-7.0,-2.0,-53.0,-24.0,-22.0,1651090885592396.0
16.0,5.0,-3.0,12.0,-66.0,6.0,-22.0,-29.0,1651090885592396.0
18.0,12.0,8.0,6.0,40.0,8.0,-25.0,34.0,1651090885613833.0
-21.0,2.0,0.0,-8.0,7.0,-22.0,-11.0,-9.0,1651090885613833.0
3.0,-1.0,-9.0,-5.0,-20.0,37.0,-2.0,-4.0,1651090885614682.0
0.0,3.0,-2.0,0.0,-14.0,-13.0,-11.0,0.0,1651090885614682.0
-2.0,-8.0,0.0,1.0,22.0,-8.0,20.0,-15.0,1651090885627803.0
-1.0,-10.0,-6.0,-7.0,-8.0,1.0,5.0,4.0,1651090885627803.0
11.0,3.0,11.0,4.0,17.0,8.0,-3.0,9.0,1651090885634782.0
-6.0,-4.0,-22.0,6.0,45.0,3.0,1.0,0.0,1651090885634782.0
6.0,3.0,21.0,-4.0,-39.0,8.0,-13.0,-11.0,1651090885650277.0
-7.0,-4.0,-4.0,-11.0,19.0,-39.0,-4.0,15.0,1651090885650277.0
-2.0,-1.0,-17.0,3.0,-17.0,16.0,6.0,-13.0,1651090885666293.0
-2.0,4.0,9.0,-2.0,2.0,-39.0,-7.0,2.0,1651090885666293.0
1.0,-1.0,2.0,-1.0,-86.0,-20.0,4.0,0.0,1651090885673626.0
-3.0,-5.0,-9.0,1.0,-32.0,18.0,-4.0,-1.0,1651090885673626.0
-3.0,2.0,8.0,-8.0,76.0,8.0,-7.0,-7.0,1651090885675461.0
3.0,6.0,-3.0,15.0,88.0,25.0,11.0,11.0,1651090885675461.0
5.0,-6.0,-11.0,-8.0,-12.0,7.0,-3.0,-1.0,1651090885688456.0
-6.0,1.0,7.0,1.0,-23.0,-2.0,-3.0,-3.0,1651090885688456.0
6.0,13.0,6.0,1.0,24.0,12.0,-2.0,1.0,1651090885702550.0
0.0,-5.0,0.0,-7.0,-60.0,-2.0,-2.0,9.0,1651090885702550.0
-1.0,0.0,3.0,2.0,45.0,-4.0,-4.0,-9.0,1651090885719204.0
-2.0,1.0,-1.0,6.0,-23.0,8.0,-5.0,0.0,1651090885719204.0
-1.0,-1.0,-3.0,-2.0,12.0,-3.0,2.0,1.0,1651090885719562.0
1.0,-1.0,-4.0,-4.0,51.0,1.0,3.0,1.0,1651090885719562.0
3.0,-10.0,3.0,6.0,-38.0,11.0,1.0,-3.0,1651090885733732.0
0.0,6.0,10.0,-11.0,-19.0,-4.0,1.0,0.0,1651090885733732.0
0.0,-6.0,-9.0,-1.0,-16.0,-1.0,-6.0,-2.0,1651090885734731.0
-3.0,-2.0,-11.0,-1.0,38.0,-10.0,-3.0,0.0,1651090885734731.0
3.0,-4.0,8.0,6.0,-3.0,4.0,-3.0,-7.0,1651090885747821.0
3.0,10.0,13.0,22.0,110.0,27.0,10.0,11.0,1651090885747821.0
-1.0,-1.0,-1.0,-10.0,-41.0,-7.0,0.0,0.0,1651090885754834.0
-1.0,0.0,-2.0,0.0,-30.0,-1.0,-3.0,-3.0,1651090885754834.0
-2.0,-5.0,-22.0,-3.0,-23.0,-8.0,1.0,-2.0,1651090885771466.0
-3.0,-6.0,-5.0,-5.0,5.0,-3.0,-3.0,-1.0,1651090885771466.0
0.0,3.0,12.0,5.0,24.0,-3.0,-4.0,-3.0,1651090885772317.0
1.0,-2.0,0.0,-4.0,20.0,6.0,3.0,4.0,1651090885772317.0
0.0,6.0,-18.0,8.0,-3.0,7.0,4.0,1.0,1651090885794105.0
-1.0,3.0,38.0,-1.0,-20.0,-4.0,-3.0,-4.0,1651090885794105.0
-1.0,-2.0,-10.0,2.0,-34.0,0.0,-1.0,0.0,1651090885795105.0
0.0,0.0,6.0,-5.0,4.0,-7.0,-2.0,1.0,1651090885795105.0
-3.0,-8.0,-21.0,0.0,-2.0,0.0,-1.0,-2.0,1651090885807141.0
0.0,-1.0,6.0,-3.0,42.0,2.0,-1.0,-2.0,1651090885807141.0
-1.0,2.0,3.0,-6.0,-17.0,1.0,-8.0,0.0,1651090885816601.0
0.0,-3.0,-9.0,-3.0,-45.0,1.0,2.0,0.0,1651090885816601.0
-2.0,8.0,12.0,6.0,25.0,-6.0,-2.0,-2.0,1651090885831664.0
-1.0,-6.0,-22.0,-1.0,-31.0,-4.0,-2.0,1.0,1651090885831664.0
0.0,-3.0,-5.0,-2.0,-2.0,-1.0,-4.0,-3.0,1651090885832626.0
2.0,5.0,30.0,-8.0,-7.0,1.0,2.0,2.0,1651090885832626.0
1.0,3.0,-1.0,11.0,2.0,5.0,2.0,1.0,1651090885853930.0
-1.0,-3.0,-2.0,-10.0,-19.0,-10.0,-5.0,-3.0,1651090885853930.0
0.0,0.0,-10.0,7.0,71.0,9.0,4.0,0.0,1651090885854930.0
0.0,-3.0,-7.0,-1.0,-50.0,1.0,-2.0,0.0,1651090885854930.0
-2.0,1.0,7.0,8.0,26.0,2.0,2.0,1.0,1651090885868341.0
-1.0,-1.0,-11.0,-7.0,-44.0,-6.0,0.0,-1.0,1651090885868341.0
-2.0,0.0,8.0,2.0,-20.0,-2.0,3.0,-1.0,1651090885875072.0
-1.0,0.0,-9.0,3.0,19.0,-4.0,0.0,-1.0,1651090885875072.0
3.0,2.0,23.0,-5.0,9.0,6.0,-1.0,0.0,1651090885891434.0
-2.0,-4.0,-21.0,-2.0,9.0,1.0,-1.0,-3.0,1651090885891434.0
1.0,-2.0,1.0,-3.0,-34.0,3.0,1.0,2.0,1651090885892434.0
-2.0,0.0,3.0,4.0,4.0,-1.0,-1.0,0.0,1651090885892434.0
-2.0,-2.0,-7.0,-10.0,14.0,-2.0,0.0,-2.0,1651090885913770.0
0.0,-2.0,-1.0,-2.0,-11.0,1.0,1.0,0.0,1651090885913770.0
-1.0,-1.0,9.0,8.0,1.0,-1.0,0.0,0.0,1651090885914650.0
2.0,6.0,-3.0,3.0,-11.0,-5.0,-3.0,0.0,1651090885914650.0
-1.0,-2.0,-1.0,-5.0,22.0,-4.0,1.0,2.0,1651090885937146.0
0.0,-5.0,-8.0,-6.0,-24.0,-1.0,1.0,-2.0,1651090885937146.0
-3.0,-2.0,0.0,-3.0,5.0,-4.0,-1.0,-2.0,1651090885939142.0
4.0,-9.0,-13.0,3.0,-12.0,1.0,-2.0,-3.0,1651090885939142.0
2.0,2.0,13.0,-1.0,13.0,-5.0,0.0,2.0,1651090885951229.0
1.0,7.0,13.0,-6.0,-21.0,11.0,-2.0,1.0,1651090885951229.0
1.0,-1.0,-6.0,11.0,-14.0,-7.0,0.0,-3.0,1651090885952100.0
-4.0,-5.0,-2.0,-6.0,-9.0,1.0,0.0,-1.0,1651090885952100.0
-2.0,-4.0,-14.0,-4.0,-2.0,1.0,1.0,-1.0,1651090885974560.0
-1.0,-8.0,5.0,3.0,14.0,-5.0,-2.0,1.0,1651090885974560.0
2.0,12.0,8.0,1.0,-14.0,5.0,0.0,1.0,1651090885975574.0
-3.0,-3.0,-2.0,3.0,10.0,3.0,0.0,0.0,1651090885975574.0
-4.0,-4.0,-12.0,-9.0,-22.0,-4.0,-1.0,-2.0,1651090885996005.0
-1.0,-1.0,-1.0,6.0,21.0,1.0,0.0,0.0,1651090885996005.0
-2.0,1.0,0.0,-6.0,3.0,1.0,1.0,1.0,1651090885997867.0
1.0,1.0,6.0,0.0,6.0,-6.0,-2.0,0.0,1651090885997867.0
0.0,-1.0,2.0,6.0,-7.0,7.0,0.0,2.0,1651090886010970.0
-2.0,-1.0,0.0,-4.0,3.0,-3.0,-1.0,-1.0,1651090886010970.0
-1.0,-2.0,-3.0,1.0,7.0,-3.0,-1.0,0.0,1651090886012827.0
-1.0,1.0,-3.0,-5.0,5.0,-3.0,-1.0,-2.0,1651090886012827.0
0.0,0.0,-2.0,0.0,-1.0,1.0,1.0,0.0,1651090886033976.0
0.0,2.0,0.0,3.0,11.0,0.0,1.0,2.0,1651090886033976.0
-1.0,-4.0,-1.0,-1.0,7.0,5.0,-1.0,-1.0,1651090886034979.0
-2.0,4.0,4.0,-1.0,-4.0,-2.0,-1.0,-1.0,1651090886034979.0
0.0,-3.0,0.0,2.0,-21.0,0.0,0.0,-2.0,1651090886046943.0
0.0,-1.0,-15.0,0.0,-8.0,-8.0,-1.0,0.0,1651090886046943.0
-1.0,0.0,9.0,-2.0,-1.0,1.0,1.0,-1.0,1651090886056264.0
0.0,1.0,-4.0,2.0,-9.0,1.0,-1.0,2.0,1651090886056264.0
1.0,3.0,13.0,-3.0,41.0,-1.0,-1.0,-4.0,1651090886071905.0
0.0,0.0,-12.0,0.0,-3.0,6.0,0.0,-1.0,1651090886071905.0
0.0,-4.0,-5.0,-5.0,-8.0,-3.0,-3.0,-1.0,1651090886077469.0
1.0,0.0,1.0,4.0,9.0,2.0,1.0,-1.0,1651090886077469.0
-1.0,-1.0,-6.0,0.0,-29.0,-1.0,-1.0,-1.0,1651090886093754.0
0.0,-5.0,1.0,-2.0,38.0,2.0,0.0,0.0,1651090886093754.0
0.0,1.0,-1.0,2.0,17.0,2.0,0.0,1.0,1651090886094623.0
-1.0,3.0,8.0,1.0,-6.0,-2.0,0.0,0.0,1651090886094623.0
0.0,0.0,-4.0,-5.0,5.0,0.0,-1.0,-2.0,1651090886107078.0
0.0,0.0,1.0,2.0,26.0,1.0,-1.0,-3.0,1651090886107078.0
1.0,-7.0,-3.0,2.0,-36.0,-4.0,0.0,-2.0,1651090886115896.0
1.0,6.0,-2.0,-6.0,-12.0,-1.0,0.0,0.0,1651090886115896.0
0.0,-2.0,3.0,5.0,23.0,1.0,0.0,1.0,1651090886131094.0
-2.0,-1.0,-3.0,-2.0,-23.0,-7.0,-2.0,-2.0,1651090886131094.0
2.0,4.0,2.0,1.0,0.0,-1.0,0.0,1.0,1651090886132090.0
-1.0,-4.0,-7.0,2.0,2.0,0.0,0.0,0.0,1651090886132090.0
-2.0,1.0,9.0,-7.0,-17.0,-2.0,-2.0,0.0,1651090886153546.0
0.0,-2.0,-7.0,-2.0,13.0,-1.0,1.0,1.0,1651090886153546.0
1.0,2.0,-2.0,2.0,-20.0,-1.0,1.0,0.0,1651090886155415.0
-1.0,-2.0,9.0,-5.0,-1.0,-5.0,0.0,-3.0,1651090886155415.0
-2.0,-2.0,-18.0,1.0,14.0,3.0,-1.0,0.0,1651090886167554.0
0.0,-1.0,8.0,5.0,5.0,-5.0,0.0,1.0,1651090886167554.0
-1.0,0.0,1.0,-2.0,0.0,19.0,1.0,-1.0,1651090886182752.0
-1.0,-2.0,-2.0,-1.0,23.0,-1.0,-1.0,0.0,1651090886182752.0
0.0,0.0,2.0,0.0,2.0,-2.0,0.0,1.0,1651090886190875.0
-1.0,2.0,0.0,0.0,-9.0,-3.0,0.0,-1.0,1651090886190875.0
0.0,-1.0,-2.0,-4.0,4.0,-8.0,-1.0,-1.0,1651090886192901.0
0.0,-2.0,-1.0,3.0,-13.0,2.0,-1.0,-1.0,1651090886192901.0
1.0,-4.0,-1.0,-2.0,7.0,0.0,-2.0,0.0,1651090886213981.0
-1.0,1.0,-5.0,-4.0,-15.0,4.0,-1.0,-2.0,1651090886213981.0
-1.0,1.0,0.0,0.0,19.0,-5.0,-1.0,0.0,1651090886215052.0
-1.0,-5.0,6.0,5.0,-18.0,4.0,3.0,-1.0,1651090886215052.0
0.0,2.0,-7.0,-6.0,-6.0,-7.0,-1.0,-2.0,1651090886227252.0
0.0,0.0,-3.0,5.0,-23.0,1.0,-1.0,0.0,1651090886227252.0
-3.0,-3.0,6.0,-6.0,-9.0,6.0,-1.0,-3.0,1651090886242398.0
0.0,-1.0,-3.0,-9.0,18.0,-5.0,-1.0,-1.0,1651090886242398.0
0.0,-4.0,-11.0,4.0,-14.0,0.0,-2.0,0.0,1651090886252003.0
0.0,2.0,14.0,1.0,-10.0,0.0,1.0,0.0,1651090886252003.0
0.0,-1.0,-2.0,-1.0,2.0,-5.0,-2.0,-3.0,1651090886257392.0
-1.0,-2.0,-14.0,-2.0,-2.0,1.0,-1.0,1.0,1651090886257392.0
-2.0,5.0,16.0,-1.0,-12.0,-10.0,0.0,-1.0,1651090886282001.0
-1.0,-2.0,-7.0,-1.0,17.0,22.0,0.0,0.0,1651090886282001.0
1.0,1.0,3.0,1.0,-6.0,-8.0,-1.0,1.0,1651090886283000.0
2.0,2.0,-1.0,1.0,15.0,-1.0,2.0,-1.0,1651090886283000.0
-1.0,-3.0,-5.0,1.0,11.0,1.0,1.0,-1.0,1651090886287013.0
-2.0,-4.0,-2.0,-2.0,-17.0,-7.0,-1.0,-3.0,1651090886287013.0
0.0,0.0,2.0,2.0,25.0,6.0,3.0,1.0,1651090886295965.0
-1.0,0.0,-1.0,0.0,-8.0,-2.0,-2.0,-1.0,1651090886295965.0
0.0,-3.0,-5.0,-1.0,6.0,1.0,0.0,0.0,1651090886311626.0
0.0,-2.0,9.0,0.0,-6.0,-6.0,-2.0,1.0,1651090886311626.0
0.0,8.0,-4.0,-3.0,-38.0,3.0,1.0,1.0,1651090886312135.0
-1.0,0.0,-2.0,2.0,16.0,-4.0,-1.0,-1.0,1651090886312135.0
-1.0,-1.0,6.0,1.0,-5.0,4.0,1.0,0.0,1651090886333626.0
0.0,0.0,-3.0,-1.0,14.0,-1.0,-2.0,0.0,1651090886333626.0
0.0,-5.0,-8.0,-3.0,-15.0,-7.0,-1.0,0.0,1651090886335463.0
-2.0,-2.0,0.0,-6.0,-2.0,1.0,-2.0,-1.0,1651090886335463.0
0.0,0.0,0.0,5.0,5.0,8.0,-1.0,-1.0,1651090886346779.0
1.0,0.0,-4.0,-4.0,-24.0,-6.0,0.0,0.0,1651090886346779.0
1.0,1.0,-6.0,3.0,59.0,4.0,1.0,-1.0,1651090886356000.0
0.0,4.0,22.0,-2.0,-17.0,0.0,0.0,-2.0,1651090886356000.0
0.0,-1.0,-5.0,5.0,0.0,-2.0,-3.0,-1.0,1651090886371449.0
0.0,1.0,0.0,-4.0,22.0,-2.0,0.0,-2.0,1651090886371449.0
-1.0,-5.0,-8.0,0.0,-10.0,2.0,-1.0,-1.0,1651090886372301.0
-1.0,-2.0,-4.0,0.0,19.0,3.0,1.0,1.0,1651090886372301.0
-1.0,-1.0,4.0,-3.0,-6.0,0.0,2.0,0.0,1651090886393755.0
0.0,2.0,-2.0,-1.0,6.0,-4.0,-2.0,-1.0,1651090886393755.0
-1.0,-3.0,2.0,2.0,-10.0,-6.0,-1.0,0.0,1651090886394624.0
-1.0,-5.0,5.0,-4.0,-5.0,2.0,-1.0,2.0,1651090886394624.0
0.0,2.0,-4.0,4.0,6.0,-2.0,0.0,0.0,1651090886406905.0
-2.0,1.0,-4.0,-1.0,-5.0,0.0,-1.0,-2.0,1651090886406905.0
0.0,-1.0,1.0,-8.0,-6.0,-2.0,-1.0,-1.0,1651090886415911.0
1.0,1.0,2.0,4.0,3.0,0.0,-1.0,0.0,1651090886415911.0
-1.0,-3.0,-1.0,-1.0,-16.0,-1.0,0.0,0.0,1651090886431592.0
-3.0,-5.0,-6.0,-6.0,7.0,3.0,-1.0,-1.0,1651090886431592.0
0.0,0.0,2.0,1.0,-3.0,-9.0,-2.0,0.0,1651090886432052.0
1.0,-1.0,-7.0,-1.0,18.0,16.0,0.0,-1.0,1651090886432052.0
0.0,2.0,2.0,2.0,10.0,-1.0,-1.0,-2.0,1651090886453468.0
1.0,2.0,1.0,1.0,-10.0,-8.0,-1.0,2.0,1651090886453468.0
-1.0,-3.0,-3.0,-6.0,-3.0,-3.0,0.0,-2.0,1651090886459516.0
-2.0,-1.0,-15.0,-1.0,-14.0,-6.0,-1.0,-1.0,1651090886459516.0
-1.0,2.0,11.0,-2.0,-14.0,2.0,-2.0,-1.0,1651090886476671.0
0.0,4.0,8.0,5.0,21.0,0.0,0.0,0.0,1651090886476671.0
0.0,-2.0,-3.0,-4.0,-3.0,-6.0,1.0,1.0,1651090886477700.0
-1.0,-1.0,-2.0,-2.0,4.0,0.0,1.0,1.0,1651090886477700.0
0.0,-3.0,-9.0,0.0,-15.0,11.0,0.0,0.0,1651090886491922.0
1.0,0.0,1.0,1.0,-6.0,-1.0,1.0,-1.0,1651090886491922.0
-2.0,1.0,4.0,4.0,-1.0,-2.0,-3.0,-1.0,1651090886492855.0
0.0,1.0,-3.0,1.0,4.0,-2.0,-2.0,-2.0,1651090886492855.0
0.0,1.0,-2.0,-3.0,1.0,-4.0,-1.0,0.0,1651090886521475.0
0.0,0.0,-3.0,-1.0,-2.0,-1.0,-1.0,0.0,1651090886521475.0
0.0,-5.0,3.0,0.0,9.0,7.0,-1.0,-1.0,1651090886522275.0
-1.0,-1.0,-2.0,-3.0,-6.0,0.0,0.0,-1.0,1651090886522275.0
0.0,0.0,0.0,3.0,-13.0,-10.0,-1.0,0.0,1651090886536592.0
-1.0,-1.0,-1.0,6.0,55.0,11.0,2.0,1.0,1651090886536592.0
0.0,1.0,-3.0,-1.0,-8.0,-3.0,-2.0,0.0,1651090886537433.0
-2.0,0.0,8.0,0.0,-15.0,-1.0,-1.0,-1.0,1651090886537433.0
0.0,0.0,-2.0,-3.0,12.0,-3.0,-3.0,-2.0,1651090886552077.0
0.0,-2.0,-3.0,2.0,4.0,-5.0,-2.0,-1.0,1651090886552077.0
-1.0,1.0,0.0,0.0,-6.0,8.0,-1.0,-1.0,1651090886553456.0
1.0,0.0,1.0,1.0,2.0,6.0,1.0,1.0,1651090886553456.0
-2.0,-5.0,-18.0,-5.0,-4.0,-4.0,0.0,0.0,1651090886573736.0
1.0,4.0,24.0,-4.0,-21.0,-5.0,0.0,-1.0,1651090886573736.0
0.0,1.0,-2.0,2.0,14.0,-2.0,-3.0,-1.0,1651090886574682.0
1.0,1.0,1.0,-1.0,-25.0,-3.0,0.0,-1.0,1651090886574682.0
-1.0,-3.0,-2.0,2.0,-14.0,-3.0,0.0,-1.0,1651090886596178.0
0.0,-5.0,-14.0,-5.0,27.0,5.0,-2.0,0.0,1651090886596178.0
-1.0,-2.0,-2.0,-2.0,-15.0,-6.0,0.0,0.0,1651090886598016.0
-1.0,-5.0,1.0,0.0,2.0,-2.0,-1.0,-1.0,1651090886598016.0
0.0,3.0,10.0,-4.0,5.0,1.0,0.0,1.0,1651090886611507.0
-1.0,-1.0,-6.0,2.0,-18.0,-3.0,0.0,-1.0,1651090886611507.0
0.0,2.0,5.0,-1.0,4.0,-3.0,0.0,0.0,1651090886613000.0
-1.0,-4.0,-10.0,-2.0,1.0,-5.0,-1.0,-2.0,1651090886613000.0
0.0,1.0,4.0,-2.0,-21.0,0.0,0.0,1.0,1651090886633334.0
-1.0,4.0,1.0,1.0,-3.0,4.0,0.0,-2.0,1651090886633334.0
0.0,-4.0,-1.0,-1.0,0.0,-2.0,0.0,-1.0,1651090886635229.0
0.0,-1.0,-4.0,2.0,-2.0,0.0,1.0,-2.0,1651090886635229.0
1.0,2.0,3.0,-3.0,10.0,0.0,0.0,0.0,1651090886656534.0
-2.0,-2.0,-4.0,-7.0,-17.0,0.0,-1.0,-1.0,1651090886656534.0
0.0,0.0,-2.0,3.0,-7.0,-1.0,0.0,-1.0,1651090886657461.0
-1.0,2.0,3.0,2.0,11.0,0.0,0.0,0.0,1651090886657461.0
0.0,-1.0,-1.0,2.0,16.0,1.0,-1.0,-1.0,1651090886670767.0
0.0,-2.0,-6.0,-2.0,-4.0,-3.0,0.0,-1.0,1651090886670767.0
1.0,1.0,0.0,3.0,-4.0,0.0,0.0,1.0,1651090886676915.0
0.0,6.0,18.0,1.0,-3.0,-4.0,1.0,-3.0,1651090886676915.0
-2.0,-2.0,-6.0,1.0,13.0,2.0,0.0,-1.0,1651090886693803.0
-2.0,-4.0,-4.0,-2.0,-18.0,1.0,0.0,0.0,1651090886693803.0
-1.0,0.0,-3.0,-4.0,-2.0,1.0,0.0,-1.0,1651090886694772.0
0.0,-1.0,4.0,2.0,10.0,-4.0,-2.0,-1.0,1651090886694772.0
-1.0,-3.0,-3.0,-1.0,-23.0,-10.0,-3.0,-2.0,1651090886715876.0
0.0,-1.0,-1.0,-4.0,15.0,14.0,-2.0,-1.0,1651090886715876.0
0.0,0.0,-1.0,4.0,4.0,7.0,0.0,0.0,1651090886717735.0
-1.0,1.0,-3.0,4.0,1.0,-1.0,-1.0,1.0,1651090886717735.0
1.0,2.0,0.0,-3.0,12.0,-2.0,0.0,-1.0,1651090886730677.0
-1.0,-3.0,-3.0,1.0,-53.0,-3.0,0.0,0.0,1651090886730677.0
-1.0,-1.0,-1.0,-6.0,1.0,-5.0,-1.0,-3.0,1651090886736691.0
0.0,1.0,-2.0,-1.0,2.0,1.0,-1.0,-1.0,1651090886736691.0
1.0,-3.0,-4.0,0.0,-17.0,-1.0,1.0,-1.0,1651090886753818.0
0.0,1.0,6.0,0.0,24.0,-2.0,1.0,-2.0,1651090886753818.0
-1.0,0.0,3.0,2.0,2.0,-2.0,-2.0,1.0,1651090886754818.0
-1.0,-2.0,-4.0,-2.0,-1.0,-2.0,2.0,0.0,1651090886754818.0
-2.0,-4.0,-3.0,2.0,9.0,3.0,-1.0,-1.0,1651090886776016.0
0.0,3.0,-2.0,-1.0,-1.0,-5.0,-1.0,0.0,1651090886776016.0
-1.0,-3.0,6.0,4.0,-1.0,2.0,-1.0,0.0,1651090886777875.0
0.0,-2.0,-8.0,-4.0,10.0,-3.0,-2.0,0.0,1651090886777875.0
-2.0,-3.0,-7.0,-4.0,2.0,-1.0,-2.0,-2.0,1651090886790272.0
0.0,3.0,11.0,3.0,-6.0,1.0,0.0,0.0,1651090886790272.0
0.0,0.0,-2.0,-1.0,18.0,-3.0,1.0,1.0,1651090886797095.0
0.0,0.0,-4.0,-1.0,-13.0,-1.0,-2.0,0.0,1651090886797095.0
-2.0,-4.0,-6.0,1.0,13.0,2.0,0.0,-1.0,1651090886813600.0
-1.0,1.0,15.0,-1.0,1.0,-3.0,-2.0,-2.0,1651090886813600.0
-2.0,-1.0,-6.0,-2.0,7.0,-7.0,-2.0,-2.0,1651090886815455.0
-1.0,-1.0,1.0,-5.0,-7.0,7.0,0.0,0.0,1651090886815455.0
-1.0,0.0,0.0,3.0,18.0,5.0,-1.0,0.0,1651090886836638.0
-1.0,-2.0,-5.0,0.0,0.0,-5.0,0.0,-2.0,1651090886836638.0
0.0,2.0,-5.0,0.0,-11.0,-3.0,0.0,1.0,1651090886837588.0
0.0,0.0,3.0,4.0,3.0,-4.0,0.0,0.0,1651090886837588.0
-1.0,0.0,1.0,-1.0,-12.0,-2.0,-2.0,0.0,1651090886850913.0
1.0,-1.0,-4.0,3.0,5.0,1.0,0.0,0.0,1651090886850913.0
1.0,1.0,6.0,-6.0,-2.0,3.0,-1.0,0.0,1651090886856902.0
1.0,-1.0,-6.0,2.0,-10.0,1.0,-1.0,-1.0,1651090886856902.0
1.0,1.0,5.0,0.0,-3.0,-3.0,0.0,-1.0,1651090886873910.0
0.0,1.0,1.0,0.0,0.0,4.0,1.0,0.0,1651090886873910.0
-2.0,-3.0,-7.0,-3.0,-2.0,3.0,-1.0,0.0,1651090886874919.0
-1.0,-3.0,-7.0,-3.0,8.0,-4.0,-2.0,-1.0,1651090886874919.0
0.0,0.0,7.0,3.0,-8.0,-3.0,-1.0,0.0,1651090886896357.0
0.0,-4.0,-4.0,-2.0,3.0,1.0,-1.0,-2.0,1651090886896357.0
